-234
-240
-246
-239
-244
-241
-240
-238
-238
-241
-242
-240
-241
-240
-242
-237
-239
-248
-237
-238
-240
-235
-237
-237
-239
-236
-239
-234
-235
-239
-244
-240
-241
-241
-238
-240
-241
-242
-238
-238
-235
-239
-233
-232
-240
-238
-236
-240
-239
-235
-235
-236
-236
-238
-237
-237
-233
-236
-239
-237
-237
-236
-242
-237
-240
-241
-239
-237
-236
-235
-236
-233
-230
-233
-232
-240
-234
-237
-237
-240
-242
-236
-232
-237
-237
-236
-237
-238
-239
-239
-238
-238
-239
-234
-232
-235
-237
-236
-243
-240
-239
-233
-232
-233
-237
-234
-229
-238
-237
-238
-236
-237
-233
-232
-231
-235
-234
-231
-232
-228
-233
-232
-230
-229
-227
-225
-223
-224
-221
-222
-220
-222
-218
-223
-221
-222
-227
-219
-218
-226
-226
-231
-234
-234
-233
-235
-232
-234
-237
-241
-227
-228
-236
-238
-239
-236
-239
-236
-236
-234
-235
-236
-240
-236
-236
-236
-239
-231
-232
-235
-236
-235
-234
-239
-239
-242
-237
-237
-241
-238
-239
-244
-249
-250
-256
-263
-271
-277
-276
-273
-263
-245
-225
-195
-165
-142
-111
-90
-58
-34
-22
-33
-48
-57
-76
-87
-102
-139
-163
-173
-185
-189
-197
-203
-203
-218
-220
-224
-227
-225
-224
-228
-226
-231
-230
-230
-233
-232
-235
-230
-228
-235
-231
-236
-232
-231
-233
-235
-237
-234
-229
-230
-235
-238
-231
-234
-235
-231
-234
-237
-229
-230
-232
-231
-231
-230
-232
-233
-227
-226
-232
-230
-231
-231
-231
-230
-228
-226
-227
-227
-230
-230
-226
-229
-224
-228
-228
-228
-226
-225
-227
-223
-224
-223
-223
-224
-222
-223
-218
-221
-217
-216
-220
-214
-215
-217
-212
-218
-212
-211
-210
-213
-207
-209
-209
-208
-206
-202
-203
-196
-194
-201
-199
-201
-200
-200
-197
-194
-197
-201
-197
-188
-189
-201
-196
-193
-195
-196
-196
-195
-196
-203
-204
-204
-204
-205
-207
-205
-203
-209
-214
-211
-211
-212
-214
-218
-228
-217
-219
-220
-221
-217
-211
-213
-226
-225
-225
-224
-223
-217
-224
-229
-226
-227
-224
-224
-223
-223
-220
-226
-219
-224
-227
-220
-223
-221
-227
-220
-227
-223
-225
-222
-223
-226
-223
-220
-224
-223
-226
-228
-226
-226
-228
-218
-219
-222
-224
-223
-226
-223
-221
-221
-221
-221
-226
-227
-230
-218
-219
-221
-224
-218
-223
-222
-223
-226
-227
-224
-221
-225
-223
-215
-218
-219
-223
-221
-224
-219
-221
-221
-222
-223
-221
-222
-225
-224
-221
-220
-221
-220
-225
-223
-221
-220
-220
-217
-223
-221
-222
-220
-221
-224
-223
-217
-220
-220
-221
-219
-218
-223
-218
-223
-223
-221
-221
-222
-222
-217
-229
-223
-225
-224
-227
-219
-220
-221
-218
-219
-219
-223
-224
-224
-221
-220
-222
-223
-220
-220
-217
-221
-220
-218
-222
-220
-226
-224
-222
-222
-220
-219
-222
-219
-218
-217
-218
-216
-218
-216
-217
-218
-213
-217
-217
-211
-215
-212
-219
-218
-212
-207
-205
-211
-209
-206
-203
-204
-208
-203
-204
-202
-205
-209
-204
-212
-217
-217
-219
-220
-216
-216
-216
-216
-216
-217
-217
-220
-214
-221
-225
-223
-216
-219
-222
-220
-220
-218
-216
-222
-221
-216
-219
-224
-221
-223
-221
-226
-227
-225
-220
-223
-221
-220
-221
-222
-223
-229
-225
-235
-232
-246
-254
-258
-265
-265
-261
-250
-230
-203
-176
-148
-117
-89
-67
-42
-22
-17
-21
-32
-47
-66
-75
-93
-127
-149
-160
-173
-176
-181
-190
-196
-199
-205
-213
-218
-215
-217
-218
-215
-214
-213
-218
-220
-222
-219
-223
-222
-222
-225
-222
-214
-220
-225
-221
-222
-220
-217
-221
-221
-220
-221
-225
-221
-222
-222
-222
-222
-219
-223
-222
-216
-222
-220
-224
-216
-218
-220
-223
-218
-217
-218
-215
-214
-218
-220
-217
-217
-225
-222
-217
-219
-218
-208
-215
-213
-215
-217
-210
-212
-212
-213
-218
-211
-215
-209
-205
-203
-210
-209
-206
-203
-207
-206
-205
-199
-198
-198
-202
-203
-199
-193
-199
-199
-192
-195
-198
-191
-188
-185
-185
-186
-182
-190
-185
-189
-187
-187
-186
-187
-188
-177
-183
-187
-190
-191
-190
-194
-193
-195
-198
-190
-189
-192
-196
-196
-199
-199
-202
-199
-202
-206
-206
-204
-210
-212
-209
-208
-207
-211
-211
-207
-212
-211
-213
-214
-213
-209
-213
-214
-217
-217
-216
-216
-215
-215
-217
-211
-215
-216
-214
-212
-215
-210
-210
-215
-217
-215
-214
-214
-215
-216
-213
-208
-211
-215
-218
-208
-212
-214
-212
-213
-216
-216
-217
-215
-216
-216
-214
-214
-212
-215
-215
-212
-219
-219
-213
-211
-218
-215
-213
-216
-214
-214
-209
-210
-215
-215
-211
-212
-210
-213
-212
-214
-214
-215
-212
-214
-216
-211
-212
-215
-214
-214
-215
-211
-217
-218
-213
-216
-215
-212
-213
-209
-210
-212
-212
-214
-213
-211
-212
-214
-213
-212
-213
-214
-216
-217
-213
-212
-214
-214
-214
-221
-210
-215
-217
-217
-213
-215
-215
-214
-215
-214
-215
-212
-217
-214
-211
-209
-208
-212
-214
-213
-213
-219
-213
-214
-218
-214
-212
-213
-214
-216
-217
-214
-212
-212
-218
-218
-218
-216
-214
-213
-214
-214
-215
-216
-216
-211
-210
-217
-215
-216
-211
-213
-212
-212
-215
-217
-217
-215
-209
-211
-213
-209
-214
-214
-209
-209
-205
-207
-207
-209
-206
-205
-205
-202
-201
-200
-200
-196
-199
-200
-199
-199
-197
-199
-204
-206
-206
-206
-208
-210
-215
-214
-215
-216
-210
-209
-211
-213
-215
-216
-214
-212
-213
-213
-214
-216
-214
-214
-218
-219
-217
-216
-219
-218
-213
-217
-220
-219
-221
-218
-219
-218
-217
-221
-217
-221
-220
-218
-221
-227
-232
-237
-242
-248
-254
-260
-259
-259
-242
-223
-204
-173
-137
-107
-76
-48
-17
1
4
-7
-20
-26
-49
-59
-80
-109
-138
-153
-161
-170
-180
-185
-194
-194
-202
-209
-209
-214
-212
-211
-216
-219
-215
-219
-217
-217
-215
-215
-218
-219
-218
-222
-219
-221
-222
-220
-214
-221
-223
-221
-220
-222
-220
-221
-220
-220
-222
-221
-223
-219
-222
-220
-222
-218
-217
-217
-221
-217
-219
-218
-222
-220
-219
-216
-217
-216
-217
-213
-216
-219
-218
-214
-216
-215
-216
-217
-219
-214
-216
-218
-218
-215
-213
-212
-206
-212
-212
-211
-210
-210
-213
-206
-207
-204
-201
-203
-210
-201
-203
-203
-196
-198
-196
-196
-196
-196
-198
-191
-186
-187
-187
-187
-186
-185
-186
-183
-188
-185
-183
-184
-182
-181
-184
-181
-183
-185
-185
-184
-186
-188
-189
-189
-193
-193
-192
-194
-197
-203
-197
-198
-200
-200
-204
-201
-207
-205
-208
-206
-204
-211
-219
-214
-205
-207
-202
-206
-213
-211
-216
-216
-212
-211
-211
-213
-212
-208
-210
-215
-211
-213
-213
-211
-214
-211
-209
-212
-212
-211
-212
-208
-208
-211
-211
-211
-213
-209
-211
-209
-209
-213
-214
-210
-211
-203
-206
-210
-207
-213
-212
-212
-207
-209
-206
-208
-210
-212
-212
-208
-206
-207
-209
-205
-210
-206
-211
-208
-208
-208
-210
-207
-206
-206
-208
-207
-207
-208
-209
-209
-210
-205
-206
-204
-207
-212
-207
-207
-207
-209
-208
-210
-210
-207
-208
-209
-206
-209
-210
-210
-209
-204
-205
-206
-205
-208
-205
-205
-205
-203
-210
-213
-209
-208
-209
-205
-210
-209
-210
-204
-207
-208
-212
-208
-204
-203
-204
-211
-208
-206
-210
-210
-212
-209
-209
-210
-214
-216
-210
-207
-209
-209
-209
-209
-201
-207
-213
-212
-210
-206
-211
-211
-210
-211
-215
-210
-209
-211
-212
-208
-207
-208
-215
-209
-211
-210
-211
-211
-209
-213
-210
-214
-212
-208
-214
-207
-214
-209
-209
-209
-213
-211
-210
-209
-204
-207
-207
-207
-207
-214
-205
-211
-207
-202
-205
-206
-203
-204
-204
-200
-201
-198
-196
-198
-197
-197
-192
-199
-198
-200
-195
-196
-194
-189
-201
-200
-195
-203
-205
-212
-210
-208
-212
-209
-207
-210
-211
-213
-210
-212
-213
-207
-211
-212
-210
-214
-214
-218
-219
-216
-215
-211
-209
-214
-212
-214
-212
-212
-208
-217
-218
-211
-213
-212
-217
-214
-214
-217
-217
-220
-226
-233
-237
-250
-254
-261
-257
-256
-242
-218
-194
-167
-129
-94
-59
-29
-1
19
22
15
1
-10
-33
-47
-69
-98
-123
-143
-151
-165
-173
-175
-186
-189
-193
-204
-203
-203
-205
-210
-204
-207
-207
-209
-214
-213
-213
-214
-214
-215
-213
-213
-217
-215
-214
-214
-214
-215
-219
-215
-214
-215
-212
-212
-220
-215
-216
-219
-214
-214
-213
-212
-214
-208
-213
-215
-215
-216
-213
-212
-212
-215
-217
-215
-214
-212
-215
-215
-212
-213
-213
-208
-208
-208
-208
-206
-209
-197
-208
-212
-206
-204
-210
-210
-205
-203
-205
-206
-206
-208
-199
-200
-199
-199
-202
-199
-201
-197
-195
-195
-189
-190
-193
-192
-188
-187
-186
-182
-181
-185
-183
-179
-185
-188
-183
-178
-181
-180
-180
-177
-177
-178
-179
-177
-177
-183
-183
-187
-185
-183
-180
-180
-184
-184
-184
-187
-189
-195
-197
-197
-196
-193
-199
-200
-201
-203
-204
-207
-206
-205
-208
-206
-206
-209
-208
-209
-207
-213
-212
-207
-208
-210
-209
-211
-210
-209
-211
-213
-214
-212
-213
-213
-211
-212
-209
-204
-210
-209
-209
-210
-210
-210
-207
-209
-211
-209
-207
-213
-212
-205
-202
-211
-213
-212
-212
-214
-215
-212
-215
-210
-210
-213
-215
-212
-214
-212
-212
-213
-213
-211
-212
-209
-213
-209
-211
-212
-213
-211
-212
-209
-213
-213
-210
-208
-209
-209
-212
-213
-212
-211
-209
-210
-208
-208
-214
-214
-212
-211
-212
-212
-209
-211
-211
-213
-213
-214
-209
-208
-212
-210
-210
-213
-210
-210
-206
-208
-211
-211
-211
-208
-210
-215
-215
-207
-213
-217
-218
-210
-211
-215
-209
-211
-211
-210
-214
-213
-211
-216
-207
-213
-211
-211
-213
-213
-216
-210
-211
-213
-210
-211
-215
-208
-212
-216
-215
-212
-214
-215
-215
-211
-215
-214
-216
-217
-210
-212
-214
-215
-215
-214
-210
-210
-217
-212
-216
-216
-220
-218
-215
-216
-207
-216
-214
-214
-211
-214
-218
-219
-217
-213
-218
-218
-215
-212
-209
-214
-215
-214
-213
-208
-211
-208
-205
-210
-212
-210
-211
-207
-209
-202
-201
-197
-188
-200
-197
-196
-199
-202
-201
-196
-202
-203
-200
-196
-201
-200
-202
-206
-207
-206
-209
-210
-208
-211
-210
-214
-210
-206
-206
-207
-205
-203
-206
-206
-211
-207
-212
-208
-209
-210
-207
-207
-202
-202
-201
-196
-197
-196
-196
-196
-192
-197
-196
-192
-192
-190
-190
-192
-196
-206
-208
-218
-225
-232
-228
-227
-217
-199
-170
-140
-107
-75
-37
-13
18
39
49
41
24
13
-8
-24
-42
-73
-99
-114
-126
-133
-140
-148
-156
-163
-168
-170
-172
-173
-167
-170
-177
-173
-170
-184
-181
-180
-182
-184
-183
-183
-179
-184
-182
-180
-182
-180
-184
-185
-184
-183
-183
-182
-181
-181
-181
-186
-184
-188
-184
-177
-181
-181
-179
-181
-186
-187
-183
-184
-178
-187
-182
-182
-184
-184
-181
-186
-184
-179
-175
-181
-177
-173
-176
-178
-177
-178
-174
-174
-176
-174
-171
-166
-168
-170
-169
-170
-172
-170
-171
-169
-162
-162
-167
-165
-166
-162
-164
-162
-161
-158
-157
-159
-157
-154
-150
-152
-152
-154
-149
-148
-150
-144
-144
-145
-141
-143
-140
-140
-146
-143
-139
-146
-143
-136
-143
-148
-146
-147
-144
-142
-147
-150
-150
-158
-154
-154
-156
-158
-157
-157
-158
-160
-166
-162
-160
-165
-170
-166
-166
-169
-168
-170
-169
-171
-174
-172
-169
-176
-177
-177
-175
-170
-171
-172
-174
-176
-170
-170
-173
-175
-176
-175
-177
-173
-175
-177
-176
-174
-177
-174
-175
-172
-176
-174
-173
-174
-175
-175
-174
-177
-175
-171
-175
-177
-180
-173
-175
-174
-172
-172
-185
-180
-178
-177
-171
-173
-168
-173
-169
-172
-177
-176
-177
-174
-172
-176
-174
-175
-177
-172
-172
-170
-167
-174
-168
-170
-172
-172
-172
-176
-169
-173
-171
-164
-164
-167
-167
-170
-172
-170
-172
-170
-169
-165
-169
-173
-165
-168
-174
-171
-169
-171
-168
-170
-169
-172
-173
-173
-167
-174
-172
-173
-166
-170
-173
-172
-171
-174
-173
-171
-170
-172
-171
-173
-173
-171
-177
-172
-173
-166
-177
-170
-170
-175
-174
-171
-173
-173
-175
-170
-177
-173
-173
-174
-173
-174
-177
-172
-176
-178
-167
-170
-174
-173
-171
-175
-178
-170
-170
-168
-172
-173
-172
-175
-174
-175
-178
-176
-175
-171
-172
-171
-176
-176
-170
-170
-174
-171
-170
-170
-170
-170
-167
-175
-176
-170
-172
-168
-167
-169
-168
-166
-166
-165
-167
-162
-163
-166
-160
-161
-162
-161
-158
-152
-155
-150
-160
-159
-160
-159
-156
-158
-162
-157
-162
-165
-165
-167
-167
-163
-160
-175
-169
-171
-172
-170
-169
-170
-169
-174
-170
-174
-168
-169
-178
-175
-176
-173
-173
-172
-170
-171
-173
-176
-173
-172
-174
-175
-177
-176
-181
-179
-175
-177
-177
-179
-177
-186
-188
-195
-204
-215
-219
-214
-215
-202
-187
-160
-129
-96
-57
-24
5
34
53
68
62
53
36
14
-2
-20
-160
-163
-165
-166
-168
-170
-168
-173
-173
-174
-175
-175
-172
-175
-177
-173
-178
-175
-178
-180
-171
-175
-176
-179
-177
-177
-177
-176
-175
-174
-174
-182
-175
-181
-178
-178
-178
-174
-178
-180
-177
-174
-176
-180
-181
-184
-178
-178
-185
-184
-183
-183
-185
-186
-185
-182
-183
-183
-184
-188
-181
-183
-184
-180
-182
-181
-182
-186
-181
-179
-178
-179
-179
-178
-178
-175
-174
-176
-175
-172
-173
-171
-171
-172
-167
-168
-171
-176
-164
-165
-162
-160
-162
-162
-157
-154
-156
-152
-151
-154
-157
-158
-155
-149
-151
-155
-151
-151
-152
-153
-154
-155
-155
-155
-154
-157
-161
-164
-163
-162
-166
-165
-169
-169
-173
-175
-173
-177
-179
-177
-178
-180
-182
-181
-177
-183
-183
-181
-185
-191
-186
-186
-187
-184
-189
-190
-188
-190
-189
-191
-192
-188
-189
-191
-184
-188
-188
-190
-189
-191
-186
-187
-189
-187
-190
-193
-189
-188
-189
-190
-190
-189
-187
-184
-192
-194
-186
-187
-192
-188
-186
-187
-189
-189
-189
-185
-187
-190
-192
-196
-192
-190
-188
-191
-188
-192
-192
-191
-190
-188
-190
-188
-192
-192
-189
-191
-191
-194
-186
-193
-190
-191
-190
-190
-191
-188
-188
-193
-191
-192
-191
-189
-191
-190
-192
-194
-186
-189
-190
-185
-189
-189
-191
-183
-190
-190
-187
-191
-193
-193
-191
-192
-189
-188
-190
-200
-190
-188
-186
-191
-196
-195
-193
-188
-190
-191
-187
-189
-186
-192
-194
-189
-190
-191
-191
-186
-191
-195
-191
-196
-190
-192
-190
-189
-191
-192
-192
-190
-193
-192
-194
-195
-194
-195
-191
-191
-191
-193
-194
-196
-190
-193
-197
-190
-190
-201
-192
-189
-184
-189
-190
-190
-188
-189
-195
-189
-190
-189
-188
-190
-191
-193
-191
-193
-192
-190
-190
-190
-187
-189
-186
-187
-186
-183
-182
-182
-176
-182
-182
-181
-180
-178
-180
-170
-170
-176
-174
-174
-177
-177
-177
-178
-174
-172
-172
-175
-177
-178
-184
-183
-185
-186
-190
-188
-186
-189
-186
-189
-188
-189
-188
-184
-186
-187
-188
-185
-187
-189
-190
-190
-192
-190
-188
-189
-183
-184
-192
-194
-189
-188
-189
-192
-191
-190
-191
-196
-195
-198
-204
-210
-213
-224
-229
-226
-226
-216
-205
-180
-148
-118
-88
-57
-29
2
23
37
31
20
13
-11
-31
-50
-78
-100
-116
-120
-131
-141
-148
-155
-161
-163
-167
-169
-173
-174
-173
-175
-173
-174
-178
-178
-177
-180
-175
-177
-181
-179
-181
-175
-179
-184
-180
-179
-181
-180
-177
-181
-177
-177
-176
-178
-176
-177
-178
-176
-178
-177
-175
-174
-173
-179
-179
-177
-176
-176
-175
-167
-173
-171
-169
-173
-170
-170
-168
-166
-166
-169
-170
-175
-168
-165
-167
-163
-168
-166
-163
-166
-159
-158
-161
-163
-160
-161
-160
-159
-158
-157
-151
-155
-154
-150
-147
-152
-152
-147
-149
-147
-144
-143
-144
-145
-140
-139
-137
-132
-134
-134
-128
-127
-132
-133
-130
-130
-127
-125
-125
-128
-129
-124
-126
-129
-130
-125
-127
-127
-127
-128
-129
-129
-138
-133
-134
-132
-136
-139
-141
-145
-143
-144
-143
-145
-147
-146
-149
-146
-151
-153
-150
-153
-153
-156
-157
-155
-154
-155
-156
-152
-153
-155
-161
-155
-156
-154
-154
-158
-155
-153
-155
-154
-156
-153
-152
-152
-147
-154
-161
-153
-156
-155
-153
-151
-152
-155
-153
-153
-154
-159
-153
-155
-156
-152
-153
-150
-151
-154
-152
-153
-153
-155
-156
-155
-153
-152
-156
-154
-149
-152
-155
-150
-151
-153
-155
-153
-152
-157
-154
-153
-156
-157
-154
-152
-153
-154
-151
-150
-152
-151
-152
-149
-155
-155
-152
-156
-148
-148
-150
-151
-154
-152
-149
-151
-154
-149
-154
-156
-151
-150
-149
-154
-148
-150
-150
-148
-151
-152
-155
-153
-155
-151
-154
-152
-146
-147
-151
-154
-155
-152
-149
-155
-154
-153
-153
-152
-146
-151
-154
-156
-156
-152
-147
-147
-156
-153
-149
-152
-154
-154
-156
-150
-157
-154
-149
-151
-153
-157
-156
-153
-151
-151
-153
-151
-152
-154
-149
-152
-154
-152
-154
-157
-153
-152
-156
-154
-152
-152
-153
-152
-152
-153
-153
-153
-152
-154
-155
-155
-156
-153
-150
-147
-145
-144
-145
-142
-146
-147
-146
-146
-143
-143
-141
-141
-139
-138
-138
-136
-142
-141
-135
-139
-139
-139
-140
-139
-141
-142
-146
-146
-151
-152
-154
-152
-151
-151
-155
-150
-154
-155
-154
-153
-151
-154
-154
-152
-152
-153
-155
-154
-156
-155
-152
-152
-155
-157
-156
-152
-158
-159
-156
-152
-152
-154
-154
-155
-159
-164
-169
-175
-182
-187
-187
-201
-193
-177
-164
-136
-104
-72
-42
-3
24
51
68
80
74
58
50
30
13
-10
-37
-64
-74
-88
-98
-103
-116
-124
-130
-133
-136
-137
-138
-140
-145
-145
-151
-145
-143
-148
-150
-149
-147
-154
-149
-149
-154
-153
-154
-152
-152
-155
-154
-153
-153
-153
-150
-154
-151
-152
-153
-150
-150
-152
-154
-149
-152
-155
-154
-152
-149
-148
-149
-151
-152
-154
-152
-145
-150
-143
-147
-152
-146
-145
-152
-148
-148
-150
-147
-147
-151
-148
-144
-147
-145
-145
-146
-143
-143
-141
-139
-138
-141
-142
-140
-138
-141
-138
-137
-139
-137
-134
-132
-126
-126
-129
-131
-126
-128
-125
-126
-124
-122
-123
-120
-120
-121
-116
-111
-113
-119
-117
-115
-117
-115
-116
-114
-120
-113
-114
-116
-118
-115
-117
-120
-119
-123
-125
-125
-129
-130
-130
-130
-132
-133
-138
-134
-133
-137
-141
-139
-140
-141
-141
-142
-143
-147
-149
-149
-143
-147
-146
-148
-151
-143
-144
-146
-145
-144
-147
-146
-151
-146
-144
-148
-147
-147
-145
-148
-148
-146
-144
-143
-150
-145
-147
-147
-144
-145
-148
-149
-142
-146
-146
-147
-146
-147
-142
-146
-144
-150
-149
-147
-151
-152
-149
-146
-148
-149
-148
-149
-149
-144
-144
-146
-145
-151
-146
-150
-146
-145
-146
-145
-146
-148
-149
-150
-150
-147
-144
-143
-141
-149
-148
-149
-149
-150
-148
-145
-144
-147
-147
-153
-154
-152
-154
-154
-152
-153
-152
-152
-150
-152
-153
-149
-152
-149
-150
-149
-153
-150
-151
-149
-150
-148
-144
-150
-147
-149
-147
-149
-150
-148
-146
-146
-151
-150
-150
-148
-147
-149
-151
-150
-151
-153
-152
-144
-148
-146
-145
-149
-146
-147
-152
-148
-148
-148
-143
-142
-151
-151
-154
-148
-149
-149
-149
-151
-149
-151
-149
-146
-150
-154
-151
-150
-152
-152
-150
-148
-149
-149
-147
-150
-151
-150
-147
-153
-152
-150
-142
-144
-147
-139
-144
-143
-141
-140
-140
-141
-141
-140
-141
-138
-134
-137
-135
-136
-133
-134
-137
-135
-129
-132
-137
-134
-135
-137
-138
-141
-144
-146
-150
-144
-145
-148
-146
-145
-149
-152
-154
-151
-154
-152
-152
-149
-151
-154
-152
-152
-152
-153
-153
-154
-157
-156
-146
-150
-150
-150
-153
-156
-150
-152
-156
-154
-155
-156
-159
-165
-172
-178
-188
-191
-200
-196
-198
-191
-167
-134
-106
-75
-34
-6
18
50
76
87
77
52
44
21
6
-17
-48
-67
-83
-93
-101
-109
-117
-127
-132
-136
-141
-139
-148
-149
-149
-145
-149
-151
-156
-154
-160
-154
-156
-157
-152
-152
-150
-151
-159
-157
-157
-160
-160
-158
-155
-156
-158
-158
-152
-156
-158
-157
-156
-153
-154
-159
-152
-156
-154
-155
-156
-157
-157
-156
-153
-155
-155
-149
-148
-157
-155
-155
-148
-157
-154
-153
-152
-152
-158
-154
-156
-154
-156
-151
-154
-158
-149
-148
-149
-150
-145
-144
-146
-147
-144
-145
-142
-142
-143
-142
-140
-139
-140
-135
-136
-134
-132
-132
-133
-132
-130
-133
-130
-128
-129
-124
-126
-123
-125
-121
-124
-122
-125
-120
-118
-123
-119
-120
-123
-122
-127
-120
-123
-125
-125
-124
-127
-133
-131
-130
-132
-138
-138
-135
-139
-146
-138
-135
-143
-144
-146
-144
-146
-149
-149
-150
-151
-154
-151
-151
-152
-159
-154
-155
-152
-149
-153
-159
-155
-155
-152
-156
-154
-157
-156
-156
-154
-151
-155
-157
-156
-153
-156
-153
-154
-153
-157
-153
-155
-155
-154
-153
-147
-154
-154
-153
-156
-152
-152
-158
-156
-152
-154
-155
-154
-153
-156
-158
-159
-153
-155
-157
-156
-157
-157
-150
-147
-152
-151
-152
-153
-157
-154
-155
-153
-158
-155
-151
-151
-156
-153
-151
-153
-149
-154
-157
-158
-155
-158
-156
-154
-158
-154
-156
-156
-158
-151
-152
-151
-154
-157
-155
-154
-158
-155
-155
-159
-160
-154
-156
-159
-155
-155
-156
-155
-161
-157
-155
-157
-156
-156
-158
-159
-157
-158
-162
-158
-160
-156
-154
-156
-154
-157
-154
-158
-157
-155
-156
-161
-156
-156
-160
-157
-161
-161
-154
-163
-157
-156
-158
-162
-161
-159
-159
-158
-157
-159
-157
-155
-158
-160
-158
-156
-156
-157
-154
-155
-155
-157
-166
-159
-158
-152
-156
-154
-157
-154
-150
-153
-152
-151
-151
-154
-148
-150
-150
-143
-144
-137
-144
-145
-143
-142
-144
-144
-142
-145
-145
-141
-144
-145
-149
-149
-151
-157
-158
-161
-154
-156
-164
-155
-156
-160
-160
-158
-161
-161
-162
-162
-163
-164
-163
-162
-165
-163
-167
-160
-161
-163
-163
-165
-164
-167
-165
-164
-160
-165
-163
-165
-167
-166
-170
-177
-183
-186
-194
-206
-210
-204
-202
-191
-170
-140
-110
-76
-44
-10
21
51
73
69
59
46
32
4
-13
-34
-62
-87
-100
-104
-113
-126
-130
-135
-142
-142
-149
-154
-155
-159
-162
-160
-159
-161
-159
-162
-164
-164
-163
-163
-165
-163
-162
-166
-166
-163
-166
-167
-164
-169
-166
-165
-161
-163
-163
-163
-165
-163
-161
-160
-162
-162
-161
-165
-164
-165
-161
-163
-163
-161
-163
-161
-164
-163
-161
-160
-161
-160
-163
-161
-155
-162
-165
-163
-160
-159
-158
-153
-156
-152
-160
-159
-157
-154
-155
-157
-153
-154
-151
-154
-148
-147
-150
-148
-149
-148
-146
-144
-142
-138
-141
-142
-143
-135
-137
-139
-136
-135
-135
-129
-128
-130
-125
-127
-131
-128
-125
-132
-131
-128
-129
-130
-123
-122
-130
-128
-127
-125
-129
-129
-128
-133
-135
-135
-139
-137
-138
-137
-137
-138
-141
-144
-146
-142
-148
-152
-150
-147
-153
-155
-153
-154
-155
-154
-156
-157
-157
-154
-152
-160
-157
-153
-158
-156
-159
-156
-155
-158
-156
-155
-156
-154
-153
-157
-159
-157
-156
-159
-155
-153
-150
-157
-157
-156
-161
-158
-158
-157
-157
-157
-161
-155
-157
-158
-158
-157
-159
-158
-157
-157
-161
-157
-159
-153
-155
-157
-159
-155
-154
-157
-159
-159
-159
-160
-158
-156
-159
-162
-154
-156
-155
-156
-159
-159
-156
-155
-157
-156
-156
-157
-155
-160
-159
-157
-155
-153
-156
-155
-158
-156
-159
-157
-155
-158
-158
-160
-160
-159
-158
-157
-160
-159
-156
-154
-154
-158
-159
-155
-156
-154
-154
-158
-153
-156
-160
-158
-156
-160
-160
-159
-160
-163
-155
-155
-153
-159
-157
-154
-158
-157
-157
-155
-160
-154
-159
-159
-155
-157
-157
-157
-158
-160
-157
-155
-160
-160
-159
-159
-156
-159
-157
-162
-159
-157
-159
-157
-160
-156
-160
-161
-159
-154
-158
-157
-158
-155
-162
-160
-158
-154
-154
-158
-154
-157
-157
-154
-156
-154
-148
-150
-152
-158
-152
-152
-148
-148
-149
-144
-143
-143
-142
-144
-143
-142
-142
-149
-150
-144
-143
-142
-144
-148
-151
-154
-154
-152
-157
-156
-159
-159
-158
-160
-153
-155
-157
-154
-159
-157
-157
-157
-153
-157
-163
-161
-161
-160
-161
-157
-161
-161
-164
-161
-167
-158
-159
-158
-158
-159
-158
-159
-163
-167
-175
-179
-186
-194
-204
-203
-204
-194
-176
-159
-128
-102
-68
-31
-2
26
57
77
76
65
51
32
11
-3
-29
-55
-77
-88
-99
-106
-113
-121
-128
-133
-142
-146
-154
-145
-145
-149
-153
-154
-153
-155
-154
-151
-161
-161
-159
-160
-158
-159
-162
-155
-156
-158
-161
-158
-160
-162
-156
-160
-161
-157
-159
-158
-162
-160
-154
-154
-155
-155
-157
-157
-156
-153
-155
-155
-154
-164
-155
-160
-155
-156
-154
-155
-157
-155
-157
-149
-154
-152
-148
-150
-150
-150
-147
-153
-148
-149
-150
-152
-148
-143
-147
-141
-145
-145
-146
-145
-145
-143
-142
-139
-138
-141
-139
-138
-136
-133
-133
-133
-133
-131
-128
-126
-118
-124
-127
-124
-121
-120
-121
-120
-121
-116
-122
-116
-119
-115
-121
-114
-113
-117
-116
-115
-119
-120
-119
-119
-121
-123
-123
-124
-129
-127
-131
-134
-133
-134
-135
-135
-139
-140
-138
-138
-143
-144
-140
-139
-145
-144
-146
-151
-141
-145
-149
-148
-143
-146
-144
-148
-150
-148
-151
-142
-144
-145
-149
-151
-146
-148
-144
-146
-148
-148
-146
-151
-149
-147
-146
-150
-148
-144
-144
-147
-148
-148
-144
-146
-141
-148
-144
-146
-145
-147
-150
-148
-148
-148
-149
-147
-150
-146
-147
-145
-145
-147
-147
-146
-149
-146
-148
-143
-147
-147
-150
-148
-147
-150
-147
-151
-149
-144
-147
-146
-148
-148
-142
-140
-144
-144
-148
-146
-149
-144
-144
-142
-145
-147
-150
-149
-153
-149
-142
-147
-142
-146
-153
-149
-146
-148
-146
-144
-149
-149
-145
-140
-153
-149
-149
-143
-144
-149
-147
-145
-144
-143
-142
-150
-146
-147
-152
-145
-147
-146
-145
-149
-148
-146
-145
-147
-148
-148
-145
-147
-143
-143
-145
-151
-147
-148
-153
-148
-148
-145
-144
-144
-145
-148
-147
-150
-148
-148
-146
-144
-149
-146
-146
-150
-142
-145
-143
-141
-144
-144
-141
-136
-141
-143
-133
-143
-141
-141
-141
-138
-132
-136
-136
-133
-132
-132
-128
-129
-130
-129
-133
-132
-132
-129
-137
-136
-132
-135
-135
-136
-139
-142
-143
-141
-147
-140
-147
-143
-142
-146
-146
-144
-143
-147
-146
-149
-147
-146
-149
-145
-149
-145
-149
-144
-149
-150
-142
-146
-149
-146
-145
-147
-146
-147
-150
-152
-148
-152
-159
-163
-169
-177
-183
-196
-192
-185
-172
-153
-125
-98
-68
-41
-9
18
46
74
78
67
55
29
16
-5
-17
-50
-74
-92
-95
-102
-110
-121
-120
-123
-132
-135
-135
-133
-132
-139
-136
-141
-140
-140
-145
-146
-139
-145
-146
-146
-148
-143
-143
-148
-146
-148
-143
-145
-148
-143
-143
-145
-148
-143
-148
-141
-143
-144
-145
-144
-144
-145
-141
-141
-144
-142
-144
-145
-141
-138
-139
-141
-146
-140
-144
-145
-146
-141
-143
-136
-139
-136
-135
-138
-138
-137
-142
-134
-135
-140
-138
-134
-139
-133
-136
-135
-136
-134
-130
-131
-129
-123
-130
-130
-128
-134
-120
-128
-118
-116
-118
-122
-119
-115
-116
-111
-111
-111
-113
-112
-110
-109
-108
-110
-109
-107
-101
-104
-105
-104
-105
-105
-105
-103
-105
-107
-109
-110
-108
-109
-106
-110
-108
-112
-116
-123
-112
-117
-113
-119
-119
-121
-123
-125
-121
-128
-127
-131
-123
-127
-132
-130
-135
-133
-131
-132
-132
-134
-131
-131
-128
-131
-131
-137
-136
-134
-136
-141
-134
-128
-131
-129
-131
-131
-133
-135
-133
-131
-133
-135
-134
-131
-129
-135
-138
-134
-134
-134
-130
-132
-132
-130
-129
-134
-132
-127
-127
-130
-135
-132
-130
-132
-135
-136
-133
-128
-131
-134
-130
-131
-128
-131
-127
-131
-131
-129
-133
-132
-124
-126
-130
-135
-130
-130
-131
-131
-131
-124
-125
-132
-126
-131
-125
-131
-126
-128
-125
-128
-130
-133
-128
-128
-126
-132
-126
-130
-125
-129
-126
-125
-126
-123
-122
-125
-130
-131
-129
-129
-129
-127
-126
-117
-126
-126
-127
-127
-130
-129
-124
-127
-126
-128
-129
-125
-127
-127
-126
-124
-126
-124
-129
-128
-127
-128
-124
-125
-125
-127
-127
-122
-126
-126
-123
-124
-128
-129
-130
-119
-126
-127
-123
-120
-126
-128
-126
-125
-119
-123
-123
-122
-131
-123
-120
-119
-119
-122
-121
-119
-113
-117
-121
-114
-115
-112
-117
-112
-114
-117
-110
-108
-106
-106
-104
-114
-114
-110
-111
-107
-108
-114
-112
-108
-114
-119
-117
-121
-121
-120
-120
-121
-122
-124
-125
-123
-122
-124
-122
-121
-123
-121
-121
-119
-123
-123
-121
-123
-124
-122
-121
-121
-126
-122
-123
-125
-126
-127
-125
-126
-127
-117
-124
-124
-128
-136
-145
-147
-149
-158
-168
-162
-158
-150
-133
-108
-75
-44
-21
5
33
66
79
88
82
69
54
41
28
6
-32
-46
-55
-69
-78
-82
-89
-100
-101
-105
-111
-109
-112
-112
-111
-117
-115
-119
-122
-120
-115
-118
-120
-122
-120
-121
-123
-121
-127
-118
-121
-120
-119
-116
-123
-121
-120
-119
-118
-122
-121
-119
-119
-124
-122
-120
-119
-121
-120
-121
-115
-117
-118
-115
-117
-116
-121
-119
-114
-116
-118
-117
-119
-118
-113
-115
-118
-112
-113
-113
-113
-115
-113
-109
-113
-112
-111
-113
-111
-111
-108
-109
-109
-110
-112
-106
-107
-108
-103
-103
-103
-105
-104
-98
-102
-96
-91
-92
-95
-95
-94
-86
-83
-91
-89
-88
-85
-85
-83
-83
-82
-85
-83
-81
-83
-80
-86
-83
-81
-80
-81
-88
-87
-88
-85
-86
-88
-86
-89
-91
-92
-91
-99
-96
-96
-97
-103
-101
-103
-101
-108
-105
-103
-102
-104
-104
-109
-109
-106
-110
-111
-110
-110
-113
-109
-111
-113
-114
-110
-110
-112
-110
-114
-112
-109
-113
-114
-115
-112
-106
-111
-111
-111
-112
-110
-113
-115
-106
-115
-115
-112
-109
-105
-109
-109
-108
-107
-106
-111
-113
-108
-106
-114
-109
-112
-112
-111
-109
-109
-108
-110
-111
-109
-111
-111
-113
-109
-112
-110
-111
-107
-107
-108
-114
-113
-112
-107
-107
-108
-111
-108
-110
-109
-110
-109
-110
-111
-110
-109
-111
-110
-113
-112
-108
-108
-108
-107
-106
-107
-108
-107
-109
-106
-105
-105
-109
-102
-106
-110
-108
-108
-104
-107
-111
-109
-114
-109
-106
-107
-107
-108
-107
-110
-107
-106
-107
-108
-107
-109
-108
-108
-107
-107
-111
-110
-109
-110
-110
-107
-104
-106
-111
-110
-105
-109
-110
-112
-108
-110
-108
-105
-106
-110
-114
-112
-110
-112
-118
-102
-107
-118
-110
-112
-109
-107
-106
-108
-109
-110
-107
-109
-110
-107
-111
-113
-107
-103
-104
-105
-103
-100
-99
-100
-106
-103
-103
-99
-100
-98
-93
-92
-93
-97
-96
-95
-103
-95
-95
-96
-97
-101
-96
-101
-101
-100
-101
-102
-104
-105
-105
-110
-107
-110
-109
-112
-110
-112
-113
-107
-116
-112
-105
-116
-114
-116
-111
-109
-111
-110
-113
-111
-110
-112
-115
-115
-116
-113
-112
-116
-115
-112
-113
-118
-116
-117
-119
-123
-130
-143
-149
-160
-158
-154
-143
-128
-107
-73
-36
-2
22
58
89
107
122
124
105
96
78
59
40
13
-18
-38
-50
-59
-68
-74
-79
-89
-92
-96
-95
-96
-103
-104
-107
-104
-106
-102
-112
-112
-109
-111
-113
-113
-110
-112
-112
-109
-111
-111
-112
-109
-111
-110
-105
-110
-110
-114
-115
-111
-113
-117
-112
-108
-108
-110
-106
-112
-107
-106
-104
-109
-108
-108
-106
-111
-109
-105
-109
-107
-108
-109
-109
-106
-108
-107
-109
-101
-103
-110
-103
-103
-105
-103
-103
-105
-102
-98
-101
-105
-100
-98
-97
-96
-95
-93
-97
-95
-94
-93
-92
-91
-90
-90
-86
-87
-86
-82
-82
-85
-81
-78
-80
-83
-81
-78
-76
-72
-74
-73
-70
-75
-74
-74
-71
-70
-74
-71
-67
-72
-73
-72
-77
-78
-77
-78
-78
-84
-81
-82
-83
-82
-86
-85
-87
-87
-95
-92
-93
-95
-95
-93
-98
-97
-97
-100
-101
-100
-100
-99
-101
-100
-99
-103
-101
-100
-104
-100
-100
-100
-100
-103
-102
-102
-101
-99
-103
-101
-99
-108
-104
-102
-105
-94
-99
-101
-100
-102
-105
-104
-99
-102
-101
-99
-105
-101
-104
-102
-98
-96
-101
-102
-109
-103
-105
-100
-98
-100
-101
-100
-97
-104
-105
-100
-96
-102
-102
-97
-102
-103
-107
-103
-100
-95
-98
-98
-97
-101
-100
-97
-103
-101
-100
-98
-101
-100
-98
-98
-99
-102
-101
-99
-101
-98
-100
-96
-96
-99
-99
-97
-102
-95
-99
-103
-99
-94
-99
-99
-98
-99
-100
-104
-95
-99
-100
-100
-100
-101
-97
-97
-101
-98
-98
-96
-96
-96
-102
-99
-98
-99
-100
-99
-97
-100
-98
-96
-99
-105
-101
-93
-99
-97
-96
-97
-104
-101
-102
-104
-104
-103
-100
-100
-99
-99
-102
-99
-88
-98
-100
-98
-97
-99
-98
-100
-99
-101
-101
-102
-106
-100
-98
-99
-99
-98
-96
-95
-100
-98
-97
-99
-100
-99
-97
-94
-90
-94
-97
-93
-91
-92
-94
-91
-97
-93
-91
-93
-87
-93
-90
-86
-84
-83
-84
-83
-85
-87
-88
-86
-82
-86
-83
-87
-85
-88
-95
-97
-90
-90
-92
-94
-95
-97
-102
-93
-91
-99
-100
-96
-101
-101
-99
-98
-97
-96
-99
-106
-104
-99
-100
-100
-100
-100
-99
-103
-92
-95
-98
-102
-104
-104
-101
-99
-104
-103
-104
-112
-119
-130
-134
-138
-148
-147
-140
-125
-105
-83
-50
-14
20
50
78
114
141
140
133
114
101
84
66
46
12
-7
-23
-33
-39
-50
-59
-64
-71
-76
-75
-78
-83
-82
-83
-85
-78
-77
-85
-87
-89
-85
-77
-82
-88
-91
-90
-88
-86
-86
-87
-88
-88
-87
-93
-90
-83
-86
-82
-85
-85
-86
-86
-82
-88
-83
-85
-80
-83
-86
-86
-83
-88
-85
-87
-83
-86
-85
-84
-84
-85
-83
-81
-81
-79
-84
-81
-82
-82
-86
-82
-75
-82
-77
-76
-81
-84
-79
-74
-75
-74
-75
-72
-72
-73
-76
-74
-74
-68
-65
-67
-66
-71
-64
-60
-61
-58
-62
-62
-64
-54
-58
-55
-55
-53
-56
-50
-46
-46
-50
-51
-49
-50
-48
-50
-43
-43
-45
-50
-50
-47
-47
-41
-48
-55
-53
-56
-54
-55
-56
-55
-58
-64
-59
-65
-65
-65
-66
-67
-74
-75
-75
-71
-75
-71
-71
-70
-75
-76
-72
-77
-79
-79
-76
-76
-77
-81
-79
-77
-79
-76
-77
-80
-78
-76
-79
-81
-83
-80
-78
-75
-80
-73
-80
-79
-72
-75
-75
-81
-82
-81
-82
-83
-79
-79
-77
-78
-75
-76
-76
-80
-78
-81
-81
-82
-78
-79
-80
-79
-80
-78
-78
-77
-76
-76
-78
-78
-77
-81
-81
-77
-78
-82
-83
-82
-80
-78
-75
-80
-79
-80
-73
-76
-77
-81
-79
-78
-79
-79
-80
-80
-77
-78
-79
-79
-81
-72
-80
-83
-80
-77
-77
-77
-75
-78
-80
-79
-80
-80
-81
-82
-78
-82
-83
-76
-83
-80
-80
-79
-75
-80
-81
-78
-79
-79
-79
-81
-79
-81
-81
-77
-80
-80
-80
-81
-85
-84
-80
-85
-77
-78
-79
-77
-82
-82
-82
-82
-85
-79
-83
-80
-80
-77
-81
-77
-81
-84
-83
-80
-83
-81
-80
-81
-81
-82
-83
-78
-81
-82
-83
-82
-82
-84
-83
-79
-81
-80
-84
-75
-88
-79
-82
-79
-84
-85
-85
-81
-79
-80
-81
-81
-77
-77
-75
-73
-76
-76
-80
-76
-75
-74
-71
-74
-77
-71
-71
-69
-66
-65
-65
-66
-66
-66
-62
-69
-72
-73
-72
-68
-68
-69
-71
-79
-76
-81
-80
-78
-78
-77
-76
-77
-80
-75
-83
-82
-81
-83
-83
-84
-86
-78
-82
-83
-80
-80
-86
-82
-82
-84
-84
-84
-82
-86
-83
-84
-87
-85
-83
-85
-88
-87
-86
-98
-102
-105
-116
-120
-127
-126
-124
-115
-101
-68
-39
-9
21
63
94
126
148
162
153
132
124
101
85
65
38
7
-9
-19
-32
-36
-43
-53
-58
-68
-69
-69
-73
-76
-76
-83
-79
-85
-83
-78
-88
-83
-86
-84
-85
-81
-87
-86
-84
-85
-83
-85
-87
-83
-87
-81
-84
-86
-84
-85
-87
-88
-87
-83
-83
-83
-85
-86
-86
-85
-84
-83
-81
-85
-82
-82
-81
-83
-83
-83
-86
-83
-80
-81
-83
-86
-81
-79
-82
-81
-83
-80
-77
-80
-80
-81
-76
-80
-79
-79
-76
-76
-70
-78
-74
-77
-74
-69
-69
-72
-67
-68
-66
-67
-64
-62
-64
-62
-61
-64
-56
-58
-57
-53
-55
-53
-49
-53
-52
-50
-50
-50
-48
-46
-50
-43
-46
-47
-50
-48
-47
-50
-48
-49
-48
-52
-57
-53
-59
-53
-57
-58
-57
-58
-62
-65
-64
-62
-64
-69
-70
-69
-69
-70
-73
-69
-72
-76
-80
-76
-77
-78
-80
-77
-74
-75
-75
-78
-78
-78
-77
-75
-77
-80
-78
-75
-79
-78
-77
-78
-79
-74
-75
-80
-78
-78
-78
-78
-80
-76
-80
-78
-82
-83
-75
-79
-80
-76
-79
-75
-72
-75
-79
-79
-79
-83
-81
-79
-78
-78
-76
-75
-76
-74
-74
-79
-80
-79
-79
-75
-73
-78
-72
-78
-77
-77
-78
-76
-77
-79
-75
-81
-84
-78
-80
-78
-74
-78
-79
-77
-77
-75
-74
-76
-77
-77
-79
-77
-81
-75
-78
-75
-73
-76
-78
-76
-76
-81
-79
-79
-74
-72
-79
-84
-79
-76
-74
-75
-75
-77
-80
-77
-76
-79
-78
-79
-77
-78
-82
-78
-79
-76
-78
-75
-78
-75
-77
-79
-79
-78
-79
-80
-74
-83
-83
-73
-74
-80
-83
-81
-76
-75
-77
-77
-76
-76
-80
-77
-82
-77
-77
-79
-77
-75
-75
-77
-77
-79
-72
-81
-80
-76
-76
-80
-78
-79
-78
-77
-77
-77
-75
-77
-74
-80
-82
-72
-81
-79
-76
-79
-78
-73
-72
-69
-70
-69
-73
-71
-67
-65
-68
-70
-69
-67
-67
-65
-65
-62
-63
-65
-54
-58
-65
-63
-64
-64
-66
-66
-64
-61
-63
-65
-72
-74
-75
-74
-73
-72
-71
-73
-75
-80
-76
-73
-74
-76
-72
-79
-82
-75
-80
-75
-80
-83
-78
-82
-82
-80
-80
-80
-86
-83
-85
-83
-79
-80
-84
-83
-82
-83
-84
-87
-96
-100
-107
-115
-119
-125
-124
-118
-107
-88
-55
-24
12
41
77
108
141
160
159
147
138
128
102
83
59
29
7
-12
-16
-27
-28
-44
-52
-59
-64
-65
-72
-71
-71
-71
-74
-76
-77
-76
-81
-82
-84
-78
-81
-78
-78
-81
-85
-80
-84
-80
-83
-85
-84
-83
-82
-86
-84
-84
-83
-82
-80
-80
-81
-84
-78
-74
-84
-83
-82
-83
-84
-86
-80
-82
-82
-77
-79
-78
-79
-81
-83
-76
-77
-82
-77
-77
-79
-79
-79
-80
-78
-74
-75
-77
-75
-72
-71
-76
-75
-70
-70
-73
-75
-71
-67
-69
-71
-67
-69
-65
-61
-58
-64
-61
-61
-61
-54
-54
-55
-52
-52
-51
-49
-50
-51
-49
-47
-46
-45
-40
-47
-41
-43
-44
-44
-45
-43
-38
-45
-41
-44
-44
-47
-46
-51
-48
-54
-51
-53
-45
-51
-55
-59
-59
-60
-62
-62
-63
-66
-65
-61
-70
-71
-66
-66
-68
-68
-70
-71
-77
-77
-74
-71
-74
-77
-74
-72
-70
-78
-75
-72
-72
-72
-74
-76
-74
-74
-74
-72
-73
-70
-72
-70
-74
-74
-71
-73
-72
-78
-74
-73
-77
-76
-74
-75
-73
-73
-74
-73
-77
-68
-75
-77
-72
-73
-67
-71
-74
-73
-72
-71
-75
-72
-75
-80
-76
-72
-70
-78
-73
-77
-73
-72
-73
-70
-75
-74
-71
-73
-72
-76
-75
-74
-76
-73
-74
-71
-72
-71
-73
-75
-74
-70
-72
-69
-77
-75
-78
-72
-72
-74
-71
-73
-72
-72
-67
-72
-75
-76
-77
-74
-66
-72
-72
-71
-76
-72
-74
-75
-75
-78
-75
-75
-74
-73
-75
-73
-74
-75
-75
-69
-73
-74
-69
-75
-77
-77
-72
-78
-73
-73
-68
-75
-73
-71
-80
-80
-76
-71
-79
-72
-74
-74
-76
-78
-74
-76
-71
-76
-77
-75
-80
-80
-79
-74
-75
-75
-76
-76
-79
-72
-70
-75
-77
-75
-74
-76
-76
-77
-72
-74
-74
-72
-71
-69
-72
-72
-68
-69
-73
-72
-65
-64
-72
-73
-67
-69
-70
-67
-62
-63
-58
-56
-61
-60
-58
-61
-65
-61
-58
-60
-60
-62
-60
-64
-66
-71
-70
-75
-72
-71
-72
-75
-74
-72
-77
-79
-76
-76
-78
-78
-79
-70
-69
-76
-78
-79
-79
-76
-73
-76
-74
-76
-74
-68
-80
-83
-78
-79
-79
-78
-78
-80
-83
-86
-90
-99
-104
-114
-119
-116
-118
-116
-103
-79
-50
-18
21
54
81
105
137
152
155
136
124
113
92
73
48
22
1
-21
-27
-30
-39
-44
-48
-54
-62
-65
-66
-72
-70
-71
-73
-66
-74
-74
-75
-73
-80
-73
-79
-79
-79
-77
-78
-83
-78
-74
-72
-75
-81
-79
-80
-80
-79
-78
-78
-76
-79
-76
-73
-74
-74
-79
-73
-73
-73
-75
-77
-77
-77
-74
-77
-75
-75
-73
-74
-74
-70
-70
-76
-72
-75
-71
-67
-68
-68
-74
-70
-70
-73
-72
-70
-67
-73
-66
-70
-63
-67
-71
-66
-67
-62
-61
-58
-59
-62
-63
-53
-53
-53
-55
-52
-48
-47
-50
-50
-55
-45
-48
-45
-41
-41
-44
-42
-37
-36
-37
-38
-37
-38
-39
-40
-32
-40
-41
-36
-33
-35
-38
-37
-39
-42
-37
-46
-45
-45
-50
-49
-47
-47
-57
-54
-59
-55
-60
-59
-61
-60
-58
-59
-65
-69
-65
-66
-65
-66
-67
-70
-65
-71
-68
-66
-70
-71
-68
-71
-67
-65
-70
-70
-73
-67
-67
-65
-68
-71
-68
-71
-69
-68
-65
-70
-69
-65
-69
-68
-67
-65
-67
-65
-69
-69
-70
-70
-69
-65
-70
-69
-72
-67
-65
-64
-70
-74
-70
-71
-71
-72
-64
-68
-70
-67
-68
-69
-73
-69
-62
-67
-67
-65
-65
-72
-73
-69
-66
-63
-70
-64
-69
-67
-66
-67
-67
-68
-66
-71
-69
-68
-64
-65
-65
-67
-66
-70
-70
-65
-64
-62
-67
-68
-66
-64
-67
-69
-67
-68
-67
-72
-73
-67
-69
-64
-65
-66
-69
-74
-67
-63
-66
-73
-68
-67
-69
-71
-68
-61
-68
-66
-68
-69
-70
-69
-67
-71
-70
-68
-69
-64
-68
-70
-71
-68
-70
-67
-70
-73
-68
-65
-64
-69
-65
-65
-65
-63
-62
-76
-72
-66
-66
-65
-68
-74
-66
-65
-69
-72
-69
-67
-67
-68
-65
-64
-65
-67
-65
-65
-63
-65
-65
-66
-63
-63
-62
-62
-61
-63
-58
-58
-62
-58
-62
-59
-58
-51
-49
-50
-50
-53
-54
-52
-53
-56
-52
-51
-57
-56
-55
-58
-61
-70
-67
-67
-65
-66
-66
-71
-67
-69
-69
-66
-64
-68
-70
-68
-70
-68
-70
-64
-71
-69
-70
-66
-69
-67
-67
-69
-70
-70
-69
-68
-68
-73
-66
-66
-74
-70
-71
-78
-80
-89
-90
-95
-106
-113
-108
-105
-96
-79
-49
-15
16
36
71
93
124
139
142
134
121
106
86
78
54
25
4
-14
-15
-25
-31
-37
-42
-51
-52
-57
-57
-61
-62
-66
-69
-60
-62
-61
-65
-71
-71
-65
-66
-69
-73
-69
-70
-74
-67
-70
-72
-74
-73
-79
-75
-72
-70
-67
-71
-77
-75
-74
-76
-75
-72
-73
-76
-73
-70
-71
-76
-72
-70
-71
-73
-76
-73
-71
-73
-73
-71
-76
-72
-70
-67
-68
-69
-72
-70
-71
-70
-68
-64
-73
-71
-66
-66
-65
-67
-65
-64
-62
-61
-66
-60
-59
-66
-63
-59
-58
-56
-51
-56
-54
-52
-49
-50
-47
-48
-44
-47
-42
-43
-42
-40
-41
-42
-43
-39
-35
-35
-37
-37
-39
-37
-35
-33
-35
-36
-35
-40
-40
-40
-42
-44
-41
-42
-44
-47
-50
-45
-51
-50
-58
-58
-56
-53
-57
-59
-67
-61
-62
-64
-64
-65
-62
-62
-62
-60
-63
-68
-70
-69
-66
-69
-66
-61
-62
-63
-66
-67
-67
-66
-67
-68
-65
-66
-68
-72
-68
-67
-69
-70
-70
-67
-67
-69
-68
-70
-69
-68
-68
-66
-69
-68
-67
-65
-71
-69
-68
-68
-69
-71
-72
-70
-76
-69
-70
-68
-69
-68
-65
-68
-68
-69
-68
-66
-67
-69
-67
-66
-67
-73
-72
-68
-68
-63
-68
-67
-72
-68
-69
-70
-72
-73
-70
-68
-64
-65
-64
-67
-69
-70
-69
-69
-71
-70
-72
-71
-72
-70
-64
-63
-63
-67
-68
-70
-67
-67
-66
-70
-73
-69
-69
-67
-65
-66
-69
-65
-64
-70
-70
-70
-66
-68
-71
-66
-66
-67
-67
-65
-69
-69
-70
-67
-67
-64
-65
-68
-66
-69
-75
-70
-62
-65
-66
-71
-67
-69
-66
-68
-69
-74
-73
-64
-64
-68
-70
-60
-61
-67
-69
-70
-69
-71
-72
-69
-69
-70
-64
-69
-61
-66
-68
-64
-65
-66
-66
-69
-66
-65
-68
-67
-68
-62
-64
-60
-56
-59
-63
-67
-63
-58
-51
-54
-55
-54
-53
-51
-51
-48
-56
-57
-55
-52
-58
-52
-54
-57
-58
-58
-65
-65
-70
-63
-64
-65
-65
-64
-68
-67
-68
-68
-67
-70
-68
-69
-68
-67
-67
-72
-73
-68
-66
-72
-67
-65
-63
-70
-66
-67
-69
-66
-67
-67
-65
-71
-65
-72
-65
-70
-73
-80
-88
-100
-102
-107
-112
-107
-95
-81
-53
-19
14
41
74
105
132
157
171
164
146
135
119
100
86
54
31
8
-4
-7
-15
-27
-33
-37
-48
-50
-48
-54
-54
-61
-66
-67
-58
-53
-65
-63
-66
-66
-65
-63
-68
-65
-65
-62
-64
-64
-70
-66
-66
-68
-67
-69
-67
-64
-65
-64
-65
-68
-63
-64
-64
-62
-66
-62
-69
-61
-65
-64
-64
-62
-64
-62
-65
-68
-65
-61
-64
-62
-61
-64
-59
-57
-64
-63
-61
-64
-63
-60
-63
-66
-68
-63
-65
-63
-51
-55
-58
-54
-55
-55
-55
-54
-53
-52
-52
-53
-50
-47
-49
-48
-45
-44
-48
-43
-35
-36
-40
-38
-39
-35
-33
-32
-31
-31
-29
-29
-29
-28
-29
-35
-25
-30
-27
-25
-24
-25
-26
-27
-29
-33
-31
-29
-31
-38
-40
-34
-39
-44
-43
-41
-38
-47
-49
-46
-48
-51
-51
-55
-53
-50
-56
-57
-57
-55
-55
-56
-58
-54
-58
-62
-57
-59
-59
-58
-61
-65
-64
-56
-57
-60
-60
-57
-58
-56
-55
-55
-58
-58
-59
-61
-64
-62
-59
-54
-58
-59
-59
-56
-59
-61
-58
-58
-56
-57
-59
-55
-63
-62
-58
-58
-60
-58
-55
-58
-59
-59
-59
-60
-62
-56
-57
-57
-58
-58
-55
-56
-57
-60
-55
-58
-56
-53
-55
-55
-54
-56
-55
-55
-52
-52
-55
-56
-58
-58
-54
-53
-51
-59
-52
-51
-51
-53
-51
-52
-52
-57
-58
-53
-53
-59
-53
-53
-54
-58
-56
-57
-50
-60
-57
-54
-52
-56
-53
-53
-55
-55
-56
-53
-55
-57
-55
-56
-56
-53
-56
-56
-55
-58
-57
-56
-60
-53
-54
-55
-56
-55
-54
-57
-52
-55
-57
-56
-53
-52
-57
-60
-54
-50
-55
-57
-59
-55
-56
-52
-53
-56
-58
-57
-57
-57
-58
-58
-60
-62
-62
-56
-58
-58
-57
-59
-60
-52
-60
-62
-54
-62
-60
-59
-54
-57
-51
-59
-57
-56
-54
-52
-54
-52
-51
-53
-48
-51
-48
-45
-46
-46
-48
-43
-51
-43
-47
-45
-47
-48
-45
-44
-47
-41
-48
-46
-49
-52
-56
-65
-61
-58
-57
-66
-65
-65
-63
-64
-71
-65
-73
-75
-77
-78
-81
-79
-79
-85
-86
-84
-84
-87
-87
-92
-88
-89
-95
-93
-95
-95
-95
-99
-101
-105
-106
-106
-108
-115
-115
-120
-133
-140
-150
-161
-167
-169
-169
-159
-144
-120
-89
-54
-18
10
30
66
86
92
82
65
53
35
13
-14
-38
-67
-85
-97
-108
-120
-135
-151
-146
-153
-163
-163
-167
-168
-168
-175
-177
-176
-176
-177
-181
-186
-186
-184
-186
-190
-191
-189
-190
-189
-190
-192
-192
-192
-192
-192
-193
-197
-196
-197
-196
-197
-197
-199
-204
-199
-201
-202
-198
-195
-207
-203
-202
-198
-201
-202
-203
-200
-199
-199
-205
-202
-204
-202
-200
-202
-206
-200
-196
-200
-203
-196
-197
-196
-189
-194
-192
-189
-188
-188
-190
-186
-184
-185
-179
-177
-177
-181
-178
-176
-174
-170
-166
-162
-165
-164
-160
-156
-151
-151
-150
-146
-141
-141
-139
-135
-130
-130
-129
-126
-127
-122
-119
-116
-117
-121
-121
-111
-115
-118
-117
-117
-113
-112
-117
-116
-115
-117
-119
-121
-119
-118
-120
-126
-114
-123
-120
-121
-122
-122
-126
-126
-124
-123
-122
-122
-121
-118
-119
-122
-122
-119
-118
-117
-116
-118
-112
-116
-114
-112
-111
-106
-109
-111
-115
-111
-107
-104
-108
-109
-109
-105
-97
-105
-107
-105
-100
-102
-103
-108
-103
-98
-100
-102
-95
-103
-100
-94
-95
-92
-91
-95
-96
-95
-97
-94
-89
-94
-90
-90
-94
-98
-90
-88
-88
-88
-89
-86
-90
-87
-85
-87
-84
-84
-83
-82
-85
-81
-82
-83
-81
-82
-79
-77
-77
-80
-77
-82
-78
-66
-72
-75
-71
-75
-75
-75
-78
-74
-70
-74
-75
-75
-72
-75
-74
-69
-70
-69
-71
-69
-69
-67
-68
-70
-67
-72
-69
-70
-70
-69
-66
-71
-72
-71
-72
-70
-72
-69
-66
-67
-65
-68
-67
-65
-69
-69
-67
-68
-66
-63
-64
-61
-62
-68
-61
-63
-65
-64
-64
-64
-64
-61
-63
-62
-59
-57
-63
-61
-58
-57
-60
-59
-65
-57
-55
-60
-60
-62
-59
-59
-66
-61
-58
-57
-60
-55
-54
-56
-54
-59
-60
-57
-54
-54
-54
-53
-54
-53
-58
-51
-47
-52
-48
-49
-47
-52
-43
-46
-45
-39
-39
-38
-35
-41
-39
-37
-44
-45
-40
-42
-41
-42
-43
-50
-44
-49
-51
-51
-53
-48
-50
-54
-51
-49
-51
-61
-57
-58
-59
-52
-54
-53
-55
-57
-57
-57
-60
-51
-55
-58
-57
-59
-56
-54
-59
-58
-55
-57
-53
-55
-58
-54
-53
-65
-65
-70
-73
-86
-90
-99
-98
-96
-87
-75
-49
-19
11
53
88
114
148
173
193
187
174
164
145
130
106
84
57
38
24
15
2
-11
-21
-24
-34
-41
-42
-42
-47
-42
-46
-46
-48
-47
-47
-53
-55
-54
-57
-57
-53
-50
-49
-46
-49
-52
-54
-51
-56
-56
-55
-56
-56
-53
-53
-60
-54
-55
-55
-52
-55
-55
-51
-49
-56
-56
-51
-52
-47
-54
-58
-56
-52
-51
-50
-51
-55
-52
-49
-54
-52
-52
-52
-47
-48
-47
-48
-51
-50
-49
-44
-50
-51
-45
-40
-46
-43
-38
-38
-39
-40
-39
-40
-39
-38
-40
-36
-33
-32
-32
-32
-31
-34
-26
-23
-25
-27
-25
-25
-22
-18
-21
-18
-21
-17
-16
-18
-16
-15
-16
-15
-16
-15
-18
-16
-14
-13
-14
-19
-15
-16
-21
-21
-23
-24
-26
-24
-26
-28
-29
-35
-28
-32
-37
-42
-44
-38
-40
-37
-43
-39
-38
-42
-49
-47
-42
-41
-46
-48
-45
-43
-46
-43
-45
-46
-45
-43
-45
-49
-47
-47
-45
-43
-45
-48
-50
-47
-45
-46
-51
-48
-44
-42
-52
-46
-44
-46
-49
-45
-46
-47
-50
-51
-49
-45
-47
-45
-46
-47
-49
-50
-45
-44
-46
-48
-50
-48
-50
-48
-46
-45
-44
-49
-45
-48
-47
-41
-47
-47
-45
-50
-49
-50
-48
-50
-44
-49
-47
-49
-50
-48
-48
-53
-44
-45
-47
-44
-46
-43
-43
-47
-49
-44
-45
-48
-45
-40
-49
-45
-48
-50
-45
-46
-48
-42
-44
-48
-42
-48
-48
-49
-45
-47
-52
-46
-48
-45
-50
-46
-42
-52
-47
-46
-43
-46
-44
-44
-45
-45
-48
-46
-48
-47
-48
-45
-44
-46
-47
-47
-43
-45
-51
-51
-45
-45
-46
-52
-51
-49
-45
-47
-45
-44
-45
-48
-52
-42
-46
-44
-47
-48
-45
-47
-46
-42
-45
-45
-39
-46
-46
-53
-53
-44
-46
-46
-47
-44
-43
-43
-40
-43
-46
-42
-46
-42
-40
-47
-45
-37
-41
-40
-40
-44
-42
-38
-36
-36
-35
-34
-30
-35
-33
-28
-33
-33
-33
-29
-28
-25
-29
-28
-35
-32
-26
-24
-29
-29
-31
-34
-32
-40
-40
-41
-43
-37
-38
-41
-40
-40
-42
-46
-45
-46
-42
-45
-45
-43
-45
-47
-44
-46
-46
-45
-45
-47
-44
-47
-46
-50
-48
-47
-45
-42
-47
-47
-46
-46
-48
-49
-52
-52
-66
-70
-83
-82
-87
-81
-82
-72
-62
-38
-2
26
63
98
129
152
177
196
190
178
162
141
126
110
87
61
37
21
15
10
-3
-13
-21
-30
-30
-32
-32
-42
-36
-40
-45
-36
-39
-40
-45
-51
-47
-42
-41
-47
-50
-48
-41
-47
-44
-47
-45
-39
-42
-45
-42
-44
-46
-46
-47
-52
-41
-38
-38
-45
-45
-39
-49
-44
-39
-39
-45
-42
-44
-42
-39
-40
-44
-46
-42
-40
-38
-42
-36
-40
-39
-41
-37
-42
-43
-39
-35
-36
-35
-42
-37
-41
-32
-35
-32
-30
-29
-32
-34
-30
-32
-30
-32
-32
-22
-27
-25
-20
-20
-20
-18
-23
-20
-17
-18
-19
-10
-13
-11
-8
-8
-10
-9
-9
-7
-6
-6
-8
-10
-7
-6
-5
-6
-5
-6
-4
-8
-14
-13
-5
-7
-16
-15
-16
-11
-14
-17
-16
-20
-21
-20
-25
-25
-25
-28
-33
-29
-28
-31
-30
-31
-36
-36
-35
-33
-38
-33
-36
-36
-34
-40
-34
-34
-35
-37
-37
-36
-39
-33
-31
-41
-39
-35
-38
-38
-36
-41
-39
-36
-37
-34
-35
-42
-41
-37
-36
-37
-42
-38
-38
-35
-34
-37
-35
-35
-36
-38
-37
-39
-38
-34
-37
-39
-39
-39
-34
-35
-34
-36
-36
-38
-38
-36
-35
-38
-37
-32
-33
-33
-34
-34
-34
-34
-35
-31
-37
-34
-32
-35
-43
-36
-40
-32
-34
-33
-33
-38
-38
-38
-39
-37
-35
-35
-34
-38
-33
-37
-33
-32
-35
-33
-34
-31
-35
-36
-36
-37
-33
-32
-35
-29
-31
-30
-26
-29
-22
-28
-29
-34
-33
-29
-26
-26
-23
-24
-27
-23
-26
-30
-27
-23
-28
-30
-31
-20
-28
-23
-20
-30
-25
-22
-22
-24
-24
-23
-23
-16
-27
-19
-18
-21
-25
-25
-25
-18
-20
-15
-21
-23
-18
-17
-18
-20
-20
-23
-21
-25
-18
-14
-16
-17
-23
-23
-21
-17
-22
-24
-24
-25
-19
-18
-20
-17
-18
-21
-19
-16
-18
-19
-21
-19
-16
-11
-12
-10
-16
-13
-12
-4
-9
-11
-7
-13
-5
-6
-1
-5
-1
4
-2
-6
4
0
2
1
3
7
-1
-4
2
-2
-10
-10
-13
-16
-17
-12
-15
-16
-12
-19
-16
-9
-13
-15
-13
-14
-13
-15
-15
-15
-15
-17
-16
-16
-15
-17
-14
-15
-17
-16
-12
-13
-14
-14
-16
-15
-17
-17
-12
-14
-22
-25
-34
-36
-41
-55
-58
-51
-41
-31
-5
25
62
99
132
162
189
215
229
231
215
201
184
166
152
120
87
74
58
54
44
24
23
10
10
1
-1
0
-3
-5
-8
-9
-10
-13
-9
-13
-12
-9
-19
-17
-14
-14
-12
-17
-15
-15
-13
-16
-13
-14
-18
-20
-11
-20
-17
-17
-15
-13
-9
-14
-15
-16
-13
-14
-9
-15
-15
-10
-16
-15
-14
-18
-14
-16
-16
-14
-13
-10
-8
-14
-16
-17
-13
-16
-9
-13
-8
-8
-11
-5
-3
-9
-5
-6
-4
-4
-4
-6
-7
1
-1
-1
2
0
1
-2
1
0
2
6
4
12
4
8
8
10
7
9
13
15
9
16
21
20
16
19
24
22
18
21
20
21
19
21
25
20
19
21
19
18
15
21
19
11
12
9
13
8
12
7
6
1
-1
-1
-2
0
-2
-4
1
-1
-7
-11
-8
-5
-9
-8
-13
-12
-11
-12
-15
-11
-9
-12
-15
-11
-12
-14
-9
-19
-17
-16
-13
-15
-9
-9
-10
-16
-11
-14
-19
-9
-11
-14
-12
-13
-13
-12
-14
-18
-11
-12
-10
