-46
-44
-31
-35
-38
-40
-52
-35
-37
-35
-33
-33
-33
-42
-53
-49
-37
-47
-64
-32
-18
-35
-44
-42
-49
-52
-43
-42
-48
-41
-51
-49
-42
-35
-26
-41
-43
-54
-35
-31
-43
-43
-39
-33
-33
-37
-56
-49
-48
-52
-58
-43
-41
-45
-42
-45
-36
-33
-48
-47
-53
-57
-50
-45
-51
-51
-48
-60
-52
-46
-56
-44
-41
-35
-43
-57
-50
-50
-52
-54
-49
-50
-33
-51
-59
-52
-53
-61
-52
-60
-57
-51
-43
-36
-40
-42
-67
-66
-45
-48
-53
-59
-52
-54
-57
-58
-51
-48
-61
-56
-54
-39
-40
-41
-60
-48
-40
-57
-60
-49
-48
-39
-37
-42
-55
-54
-42
-49
-50
-45
-50
-32
-47
-40
-30
-30
-34
-37
-44
-54
-48
-54
-54
-53
-49
-57
-36
-54
-56
-45
-37
-66
-65
-53
-53
-63
-55
-56
-53
-54
-61
-52
-47
-49
-48
-57
-61
-59
-68
-68
-49
-46
-40
-57
-66
-61
-57
-56
-55
-48
-43
-46
-55
-54
-64
-54
-50
-43
-21
-25
-6
17
7
7
6
5
-27
-45
-65
-62
-63
-75
-91
-92
-88
-83
-93
-81
-72
-73
-66
-63
-70
-55
-43
-53
-48
-60
-58
-47
-52
-48
-49
-50
-53
-43
-50
-52
-57
-53
-60
-47
-41
-50
-57
-65
-52
-60
-46
-42
-26
-31
-51
-59
-45
-51
-52
-53
-58
-52
-51
-45
-41
-54
-46
-46
-42
-45
-47
-49
-49
-47
-50
-53
-43
-50
-55
-50
-43
-41
-37
-29
-44
-55
-52
-47
-35
-62
-43
-40
-42
-44
-39
-42
-43
-35
-35
-31
-31
-47
-34
-26
-25
-30
-43
-40
-43
-48
-26
-26
-38
-36
-28
-23
-31
-32
-20
-35
-24
-22
-26
-19
-16
-23
-18
-22
-16
-7
0
-20
-16
-9
-15
-17
-17
-10
-9
-13
-17
-19
-18
-14
-19
-26
-23
-15
-29
-37
-30
-21
-36
-40
-44
-34
-45
-43
-54
-45
-31
-41
-50
-45
-50
-64
-69
-50
-63
-58
-55
-58
-58
-61
-57
-54
-64
-73
-63
-61
-65
-59
-56
-50
-57
-60
-62
-64
-69
-60
-57
-56
-54
-67
-61
-56
-63
-66
-61
-61
-64
-61
-64
-63
-51
-51
-62
-72
-62
-56
-56
-50
-58
-61
-63
-72
-64
-61
-45
-48
-59
-66
-60
-63
-61
-60
-67
-63
-63
-59
-55
-56
-58
-72
-71
-57
-56
-57
-58
-47
-47
-54
-56
-60
-59
-56
-55
-60
-58
-65
-54
-65
-57
-48
-53
-65
-69
-56
-59
-60
-53
-56
-62
-43
-41
-46
-60
-66
-67
-71
-66
-66
-60
-58
-67
-58
-43
-51
-62
-62
-60
-57
-61
-62
-49
-52
-61
-63
-55
-58
-59
-57
-61
-52
-65
-68
-54
-54
-44
-51
-57
-52
-61
-58
-57
-65
-63
-57
-57
-58
-49
-59
-60
-55
-63
-59
-59
-54
-59
-56
-43
-56
-45
-56
-54
-48
-59
-63
-58
-67
-55
-45
-48
-65
-60
-56
-53
-64
-61
-60
-59
-45
-43
-49
-57
-60
-43
-51
-33
-53
-46
-50
-48
-48
-49
-43
-32
-52
-56
-37
-48
-45
-43
-31
-38
-32
-43
-44
-43
-35
-40
-45
-55
-42
-48
-45
-47
-46
-43
-52
-47
-46
-53
-53
-62
-55
-53
-42
-56
-52
-44
-50
-54
-54
-62
-52
-52
-64
-64
-59
-56
-51
-42
-50
-51
-60
-64
-58
-49
-49
-45
-45
-47
-45
-44
-50
-53
-49
-25
-20
-14
-17
9
17
14
24
22
4
-21
-34
-54
-58
-77
-83
-79
-90
-87
-78
-73
-70
-54
-48
-58
-50
-54
-52
-49
-56
-40
-48
-35
-25
-34
-44
-57
-61
-52
-54
-50
-44
-44
-46
-41
-39
-35
-43
-48
-49
-42
-27
-47
-33
-35
-40
-48
-32
-42
-42
-45
-38
-37
-36
-36
-41
-40
-37
-37
-25
-35
-29
-28
-32
-26
-22
-39
-36
-32
-30
-44
-37
-28
-36
-35
-36
-40
-38
-41
-23
-30
-37
-24
-27
-20
-27
-31
-36
-26
-18
-22
-27
-20
-10
-22
-33
-22
-28
-25
-15
-24
-22
-6
-5
-11
-14
-22
-21
-27
-22
-14
1
-1
-1
-10
-3
-2
5
3
-4
6
5
-3
6
12
10
11
5
6
13
8
0
9
5
-1
3
6
3
-3
10
5
-6
-15
-5
-3
-18
-12
-19
-16
-12
-15
-5
-25
-23
-16
-30
-19
-27
-38
-25
-31
-29
-30
-26
-32
-43
-34
-26
-34
-34
-22
-29
-41
-34
-29
-36
-33
-29
-25
-18
-17
-15
-34
-38
-17
-36
-36
-25
-23
-34
-24
-23
-17
-24
-19
-29
-32
-31
-39
-35
-13
-10
-16
-32
-35
-35
-30
-23
-11
-11
-21
-31
-20
-26
-17
-16
-13
-24
-24
-29
-21
-16
-21
-26
-20
-16
-11
-18
-20
-15
-18
-24
-24
-20
-15
-19
-26
-20
-27
-18
-19
-22
-21
-24
-12
-24
-23
-13
-23
-25
-20
-19
-18
-19
-23
-20
-34
-41
-13
-16
-15
-15
-23
-28
-26
-21
-20
-35
-26
-18
-31
-30
-16
-16
-23
-22
-23
-30
-34
-32
-18
-18
-21
-23
-26
-32
-24
-22
-30
-16
-19
-28
-33
-32
-26
-33
-24
-26
-23
-28
-31
-21
-27
-31
-28
-23
-23
-27
-31
-27
-30
-28
-31
-27
-29
-18
-27
-19
-22
-36
-33
-34
-23
-24
-28
-36
-23
-26
-23
-33
-15
-22
-24
-31
-27
-34
-19
-27
-16
-18
-10
-29
-25
-18
-18
-22
-25
-18
-7
-29
-14
-9
-15
-26
-15
-11
-9
-7
2
-13
-22
-9
3
-4
-25
-18
-18
-22
-15
-7
-15
-20
-27
-29
-30
-24
-28
-34
-18
-14
-20
-22
-27
-27
-21
-21
-21
-36
-15
-20
-26
-26
-16
-13
-24
-34
-34
-26
-19
-30
-28
-18
-27
-25
-21
-20
-20
-33
-22
-9
-18
-20
1
8
22
24
32
44
62
52
39
19
-15
-28
-42
-54
-56
-54
-68
-56
-46
-60
-38
-37
-35
-33
-35
-21
-19
-26
-22
-21
-42
-23
-25
-16
-15
-20
-19
-24
-27
-26
-17
-26
-14
-13
-6
-19
-17
-14
-20
-27
-22
-12
-12
-29
-20
-19
-8
-7
-17
-8
-9
-12
-5
-22
-17
-6
-9
-11
-13
-13
-6
-15
-8
-19
-13
-14
-3
-4
-10
-10
0
-7
-17
-15
-14
-18
-2
1
5
-7
-12
-5
-8
1
-1
-9
4
0
-4
1
-7
-10
3
4
11
14
12
10
0
1
4
6
8
1
6
10
6
11
14
20
28
14
15
12
27
28
30
25
18
20
20
10
24
20
25
29
32
33
39
30
25
15
18
17
25
31
28
15
20
25
29
28
18
8
-2
-5
-1
5
-2
-1
-4
-3
0
-5
-2
-3
-6
-15
-10
-9
-17
-19
-8
-19
-11
-15
-15
-7
-6
-19
-14
-12
-24
-7
-16
-9
-16
-20
-23
-21
-12
-17
-9
-27
-28
-6
-9
-15
-8
-4
-10
-7
-3
-22
-15
-15
-10
-18
-19
-19
-9
-12
-9
-12
-7
1
-5
-21
-15
-10
-17
-11
-7
-4
-18
-21
-22
-10
7
-20
-16
-17
-11
-8
-8
-11
-16
-1
-7
-12
-11
-13
-6
-2
-3
2
14
-18
-19
-15
-18
-26
-9
-13
-2
1
-10
-9
-7
-11
-19
-11
-10
-8
-15
-16
-14
-10
-10
-3
-8
-12
-14
-1
3
-13
-16
-1
-4
-7
-10
-21
-12
-2
-3
0
-6
-15
-10
-13
-20
-17
-10
-4
-8
-13
1
-8
5
-12
-16
-22
-4
-10
-22
-9
-10
-29
-20
-31
-27
-26
-18
-22
-26
-12
-13
-21
-20
-23
-11
-27
-22
-13
-10
3
-12
-7
-3
-20
-13
-15
-8
-11
-18
-11
-13
-6
-12
-13
-17
-1
-7
-13
-11
2
-10
-12
-10
-9
-11
-8
-12
-1
-14
-6
4
-3
-3
-2
-5
-8
-20
-8
1
-6
-5
1
-8
-23
-6
10
1
0
4
1
2
9
3
2
-1
11
-7
-7
9
8
-7
5
4
4
3
0
14
0
-4
3
11
10
9
14
16
21
-3
-7
4
-4
-1
1
0
-5
-6
-3
-6
-5
3
-10
0
4
-13
-7
-4
2
4
-1
0
2
4
0
-6
-1
12
-3
-6
3
17
-2
-11
-12
-1
-6
-8
-2
0
-1
0
-1
-12
-6
-10
11
20
32
43
56
54
76
85
77
50
26
0
-6
-10
-13
-12
-40
-44
-40
-39
-42
-17
-10
-9
-4
-2
4
10
13
4
-3
12
3
0
8
16
14
7
13
5
-2
18
7
11
10
-1
21
16
19
15
5
24
38
31
15
14
18
15
6
12
14
22
16
27
18
26
31
8
20
16
6
21
15
23
23
28
29
22
17
7
23
29
34
26
18
20
21
18
29
32
34
33
35
32
30
27
29
18
24
29
35
34
25
38
45
41
30
36
36
32
38
58
51
41
44
46
43
45
37
44
39
47
44
56
53
50
55
58
44
58
54
50
60
65
63
47
58
60
66
75
78
75
68
64
69
47
73
68
63
53
66
67
57
67
64
65
54
49
55
44
39
38
42
44
36
30
35
38
56
50
29
23
29
37
33
32
41
31
25
29
43
47
31
26
16
23
25
26
32
16
31
32
47
18
27
39
33
31
25
18
31
34
41
35
16
27
30
32
38
34
26
35
32
44
26
21
13
24
26
30
43
32
32
35
27
30
15
20
29
28
41
34
33
22
19
13
21
27
20
42
54
33
27
24
19
15
21
28
22
37
40
27
10
20
23
16
21
18
20
20
25
20
29
33
22
25
15
20
24
21
14
30
14
37
17
16
30
15
8
13
18
18
17
12
11
19
4
19
26
20
13
9
19
20
28
18
15
14
12
14
27
21
15
13
23
23
11
16
18
14
8
19
16
16
7
5
10
11
14
26
23
4
10
6
12
14
9
19
26
8
18
33
26
23
23
35
8
19
22
37
19
9
8
31
27
29
36
26
12
16
16
28
23
25
19
7
5
7
15
11
2
10
9
17
22
11
11
12
-4
4
9
5
1
5
8
-7
5
8
4
13
9
12
12
8
8
-4
6
4
0
9
13
4
-2
13
0
-1
6
-8
-6
0
16
28
30
54
67
74
74
72
61
44
3
1
-8
-6
-21
-27
-32
-33
-41
-34
-21
-17
-2
-13
-11
2
27
-3
-5
-9
0
2
3
6
8
1
4
6
-5
1
13
27
-1
0
7
20
6
-3
9
11
15
8
2
4
7
19
15
9
16
14
12
11
8
6
12
8
12
27
10
-12
19
11
10
13
19
14
14
13
5
12
12
18
9
30
28
14
12
10
18
22
24
28
23
16
26
20
19
11
24
24
20
32
46
36
29
11
26
14
21
25
23
32
33
33
33
33
37
33
37
38
44
52
56
47
32
46
42
37
35
47
49
39
40
49
59
47
49
44
59
53
51
47
61
50
28
36
50
42
43
43
47
40
33
27
39
30
30
21
21
24
28
29
23
24
19
11
3
10
11
5
12
9
11
9
2
9
15
-2
11
5
1
4
10
2
3
5
9
16
20
12
10
7
3
6
14
0
-12
2
13
3
11
14
6
11
11
11
3
9
13
11
11
-2
12
6
7
10
-4
1
-2
10
10
2
5
9
15
8
13
9
5
5
10
2
2
4
7
6
0
2
-3
7
14
11
8
15
9
16
2
-5
-2
5
5
0
11
-1
11
14
7
-1
-5
1
1
5
-2
6
5
11
5
9
3
3
-2
5
9
6
6
-9
-9
-5
3
7
10
4
1
18
16
27
-9
-11
-2
-4
-5
1
-8
3
7
6
14
6
7
-6
-2
1
10
-4
-10
-3
8
14
13
10
6
13
-1
1
4
0
-4
-7
-1
3
2
4
8
12
-2
8
6
-6
-5
-4
2
6
2
6
-1
1
3
-5
11
-4
-6
-2
13
4
3
4
7
-5
6
17
6
2
12
3
-6
-10
1
4
9
8
8
2
4
4
15
-2
6
17
7
14
6
13
5
10
10
13
7
9
11
16
15
24
14
15
31
30
25
18
20
18
2
8
6
0
-8
5
15
5
-8
3
17
6
17
-2
-6
-6
10
2
-2
13
9
-9
0
1
0
15
26
9
0
-11
-14
-8
-3
25
33
33
47
53
67
64
89
80
52
31
14
-16
-5
-27
-18
-18
-30
-41
-27
-21
-18
-7
5
7
5
1
-6
-6
-3
-1
4
5
-1
5
5
-3
9
-1
6
17
4
2
-6
3
15
8
3
8
22
15
16
7
9
5
23
10
10
15
7
12
17
13
28
2
10
-1
11
10
6
9
22
15
6
12
29
18
27
16
10
12
22
12
2
9
16
26
15
28
27
15
21
13
18
15
10
18
20
21
20
19
35
18
34
31
22
25
30
27
45
31
27
26
30
32
43
42
45
50
37
27
33
34
40
33
46
31
38
51
55
45
52
51
53
48
52
61
65
59
53
56
56
54
52
62
51
28
46
50
43
53
59
43
28
46
32
31
26
25
38
40
27
18
23
22
20
18
16
20
7
17
16
14
6
9
16
27
7
-6
4
13
29
24
22
13
-2
3
4
8
7
10
-1
-2
19
14
26
2
7
10
8
9
12
6
18
15
12
15
13
7
0
7
4
11
12
17
2
5
9
12
20
30
9
0
7
35
35
0
0
4
4
22
12
17
16
22
15
-1
7
13
5
8
11
9
17
11
13
11
16
3
14
17
19
-7
4
21
16
8
3
10
15
20
16
17
20
17
5
-2
13
12
14
-1
9
7
13
19
9
17
9
9
-4
8
1
11
9
8
8
2
15
16
17
1
9
9
16
14
1
-2
5
7
6
14
23
16
19
5
8
12
15
12
8
2
5
0
11
11
20
16
10
8
15
16
5
7
12
7
-1
5
4
15
18
22
15
12
12
4
8
1
3
13
5
13
22
10
9
24
2
14
17
1
20
14
6
7
8
-9
15
12
23
20
23
3
9
5
10
-2
0
11
0
20
23
19
14
9
1
12
20
16
16
9
14
4
6
9
16
7
9
9
16
13
7
15
20
12
10
19
17
8
16
18
26
20
30
23
26
12
28
27
20
21
25
32
34
23
33
22
22
31
32
21
24
25
24
26
14
18
18
15
22
26
23
24
11
32
24
6
4
10
5
5
5
23
19
16
1
12
12
19
35
24
20
0
12
12
23
15
10
22
-10
0
21
23
30
44
6
-3
-9
6
20
32
32
47
58
68
84
86
95
83
64
39
19
17
24
-10
-26
-23
-36
-23
-21
-13
-8
-3
4
7
18
12
9
-1
11
8
16
13
19
13
14
15
23
11
7
15
19
3
16
16
16
13
31
16
19
12
15
14
19
33
44
14
-1
18
22
20
24
18
13
9
11
18
21
24
25
20
20
29
10
15
24
25
19
23
34
24
16
26
20
27
21
16
31
27
9
19
24
20
28
39
27
21
23
30
23
22
32
38
39
39
33
32
33
24
30
32
31
41
53
45
20
31
34
38
43
43
44
34
41
47
37
46
38
50
55
57
66
50
52
50
44
53
53
50
55
55
62
66
59
72
55
55
40
27
46
42
47
40
39
31
35
41
35
33
23
23
29
36
31
25
30
11
2
13
11
6
21
11
17
17
11
6
-5
10
19
19
-1
9
20
9
7
-1
6
0
14
13
-1
6
0
-3
1
13
5
-11
4
9
5
-2
3
11
1
12
2
-8
0
4
6
2
-4
2
4
-9
-18
-26
-17
-3
-12
-13
-6
-25
-16
-7
-5
-14
-12
-19
-21
-18
-20
-13
-12
-17
-26
-22
-8
-21
-13
-14
-22
-16
-15
-13
-22
-10
-13
-4
-15
-24
-18
-28
-13
-7
-12
-8
-4
0
-4
-19
-28
-15
-15
-14
-20
-15
-17
-8
-13
-14
-1
3
-25
-28
-18
-14
-11
-10
-19
-21
-21
-17
-11
-12
-17
-21
-17
-6
-4
-10
-19
-32
-24
0
0
-19
-17
-25
-18
-26
-12
-15
-29
-20
-17
-11
-7
-12
-22
-12
-8
0
-21
-40
-25
-28
-9
-19
-17
-21
-18
-18
-14
-30
-32
-19
-11
-13
-8
-11
-12
-19
-21
-17
-14
-10
-6
-5
-27
-23
-21
-17
-19
-15
-12
-18
-16
-8
-12
-7
-8
-24
-20
-23
-23
-16
-5
-10
-7
-11
-15
-17
-3
-18
-6
5
7
-14
-7
-5
-5
-23
-28
-18
-13
-9
-24
-18
-10
-12
-13
-1
-15
-22
-28
-23
-21
-23
-27
-27
-24
-25
-17
-18
-24
-28
-15
-15
-18
-22
-22
-22
-16
-28
-25
-17
-24
-18
-15
-16
-11
-8
-27
-31
-22
-30
-13
-4
-1
0
8
30
36
41
43
35
16
-1
-35
-25
-43
-52
-72
-69
-59
-59
-52
-48
-49
-39
-34
-33
-29
-23
-13
-13
-29
-25
-20
-27
-25
-19
-25
-35
-20
-18
-26
-14
-6
-23
-35
-33
-19
-12
-19
-19
-15
-15
-29
-20
-15
-22
-15
-12
-19
-31
-17
-20
-15
-18
-25
-22
-20
-21
-20
-14
-14
-15
-22
-28
-20
-23
-16
-14
-10
-6
-7
-23
-18
-10
-15
-25
-23
-18
-16
-10
-24
-16
-13
-15
-12
-5
-10
-6
-9
-6
-13
-11
-15
-6
-11
-7
-9
-8
0
-5
-19
2
6
12
4
-17
-23
-8
-4
-4
8
3
13
17
4
13
1
1
8
5
1
11
14
25
14
3
9
23
19
12
14
24
24
12
-2
10
20
9
1
5
19
11
6
1
-1
-3
-8
-10
-14
-11
-5
-17
-19
-15
-19
-30
-30
-25
-11
-16
-22
-35
-22
-10
-31
-36
-27
-30
-28
-31
-18
-27
-32
-30
-31
-39
-30
-34
-23
-22
-15
-19
-42
-33
-31
-39
-40
-27
-33
-36
-31
-20
-8
-28
-37
-50
-36
-23
-13
-21
-33
-26
-22
-29
-29
-37
-23
-26
-24
-29
-32
-30
-19
-22
-32
-31
-37
-38
-25
-12
-3
-35
-47
-38
-33
-32
-24
-30
-30
-24
-28
-25
-23
-27
-32
-31
-37
-24
-23
-23
-24
-12
-21
-31
-43
-45
-41
-28
-18
-20
-28
-34
-30
-26
-27
-46
-14
-12
-20
-30
-30
-43
-31
-34
-36
-36
-39
-26
-31
-33
-31
-17
-20
-32
-40
-39
-25
-30
-30
-28
-26
-35
-34
-38
-35
-32
-35
-33
-35
-42
-23
-33
-33
-26
-42
-38
-37
-34
-34
-38
-21
-16
-22
-29
-42
-35
-35
-37
-37
-36
-38
-41
-35
-38
-38
-43
-40
-36
-21
-26
-36
-44
-40
-39
-26
-32
-45
-37
-42
-49
-39
-43
-36
-34
-36
-34
-40
-32
-41
-40
-48
-44
-32
-38
-24
-46
-38
-41
-42
-26
-42
-49
-48
-45
-33
-39
-40
-31
-40
-44
-57
-49
-48
-43
-45
-35
-41
-42
-32
-32
-33
-48
-43
-54
-32
-34
-26
-25
-32
-31
-31
-43
-34
-38
-31
-21
-15
-7
-21
-34
-37
-41
-41
-31
-30
-23
-28
-35
-31
-39
-40
-38
-34
-30
-44
-40
-47
-38
-43
-28
-28
-35
-41
-48
-56
-44
-34
-38
-43
-43
-35
-36
-47
-38
-52
-39
-48
-40
-37
-36
-51
-45
-43
-41
-47
-42
-45
-33
-34
-51
-49
-46
-24
-22
-11
-6
4
-1
25
36
35
20
-24
-34
-57
-53
-66
-78
-88
-84
-68
-69
-66
-54
-58
-47
-38
-44
-35
-39
-42
-53
-43
-48
-56
-31
-25
-30
-42
-46
-42
-54
-40
-54
-43
-41
-48
-42
-33
-31
-25
-32
-37
-36
-39
-42
-39
-37
-36
-42
-37
-28
-30
-36
-36
-29
-19
-27
-31
-35
-47
-49
-30
-40
-29
-21
-17
-32
-42
-29
-26
-37
-37
-27
-35
-30
-22
-16
-28
-48
-36
-31
-36
-24
-26
-23
-30
-28
-26
-32
-27
-30
-23
-21
-31
-26
-13
-15
-20
-24
-12
-19
-16
-1
-18
-18
-19
-12
-5
-17
-24
-18
-9
-7
-4
-17
-1
-12
-6
1
-11
-6
4
5
6
4
2
7
4
-2
3
7
-9
3
23
0
3
-1
4
3
0
5
10
0
-1
-9
-10
-19
-1
-9
-19
-20
-36
-28
-18
-25
-28
-22
-34
-31
-38
-32
-35
-22
-21
-37
-34
-34
-45
-37
-39
-40
-49
-32
-45
-45
-34
-35
-30
-31
-33
-37
-32
-15
-22
-37
-37
-35
-41
-37
-42
-42
-33
-43
-53
-37
-35
-36
-36
-39
-31
-41
-37
-37
-33
-32
-30
-39
-29
-34
-35
-37
-36
-35
-38
-31
-33
-35
-32
-35
-34
-31
-33
-39
-49
-46
-31
-31
-38
-30
-17
-29
-37
-38
-32
-36
-40
-31
-28
-36
-41
-38
-35
-26
-28
-23
-32
-34
-29
-34
-40
-37
-27
-38
-40
-29
-35
-21
-32
-45
-31
-25
-30
-33
-36
-37
-28
-30
-33
-29
-34
-32
-27
-42
-32
-34
-20
-37
-29
-33
-33
-26
-36
-28
-32
-43
-25
-26
-38
-27
-29
-37
-33
-43
-32
-18
-31
-32
-35
-36
-32
-29
-31
-19
-31
-44
-40
-35
-25
-30
-29
-38
-33
-23
-17
-15
-26
-34
-37
-41
-39
-29
-27
-30
-12
-25
-35
-32
-22
-36
-34
-35
-31
-38
-42
-26
-26
-29
-28
-30
-29
-33
-46
-34
-21
-28
-22
-22
-20
-34
-31
-34
-30
-28
-36
-32
-32
-23
-22
-36
-33
-20
-22
-29
-27
-28
-37
-22
-30
-39
-26
-31
-30
-22
-22
-30
-19
-20
-22
-30
-22
-12
-14
-21
-18
-14
-21
-20
-31
-28
-19
-15
-9
-12
-12
-7
-17
-17
-3
-14
-12
-11
-16
-12
-15
-8
-10
-15
-26
-17
-28
-15
-15
-15
-26
-19
-19
-31
-25
-28
-19
-13
-23
-35
-22
-12
-22
-36
-30
-22
-30
-30
-22
-12
-9
-25
-25
-21
-20
-31
-34
-32
-22
-6
-19
-16
-9
-13
-25
-27
-7
-2
9
6
27
37
43
52
57
40
18
-3
-20
-35
-43
-55
-47
-49
-50
-42
-42
-32
-35
-29
-18
-20
-24
-27
-25
-19
-18
-20
-14
-15
-8
-11
-1
-19
-17
-9
-5
-1
-7
-22
-18
-7
0
-4
-5
1
-7
-4
-1
-13
-21
-10
4
17
6
-11
-21
-9
-3
-4
-7
1
-4
-5
0
2
6
-6
-9
-6
5
20
23
8
-3
-9
-4
-6
-4
-2
9
-1
-3
-14
3
7
3
10
22
17
6
-5
13
15
9
5
11
16
5
12
27
27
6
0
12
9
10
24
19
18
22
20
24
27
23
14
18
30
23
18
40
35
36
35
36
32
35
36
41
35
22
42
38
32
45
43
38
45
60
50
33
31
39
36
40
31
33
36
36
35
35
27
27
34
28
11
15
8
13
19
15
6
1
-1
9
6
4
9
21
10
-7
1
8
5
1
-7
-7
-7
-5
-4
8
4
5
1
-4
-3
-9
4
2
-2
5
16
7
-14
-7
-4
-17
-4
8
8
1
0
4
12
4
-7
-1
-1
17
14
9
8
-2
-10
11
6
-11
-7
-1
4
12
8
11
-4
-17
-10
8
10
6
6
20
9
0
13
-2
-4
15
11
3
4
-1
-2
4
1
1
3
-2
2
8
11
4
2
-6
5
-4
-3
-4
17
9
0
-1
10
8
9
-1
3
11
2
-2
-14
6
5
1
-6
-8
3
12
15
9
-9
5
10
6
-4
-7
0
15
11
-4
3
3
-4
-9
5
2
4
1
18
18
5
3
-6
-4
2
3
-11
-2
6
6
6
6
7
-5
-1
6
0
4
4
9
-2
9
8
4
0
-3
-2
11
1
-9
0
6
3
-5
2
3
-1
6
10
7
1
1
0
2
-2
-6
2
-1
-5
2
8
12
12
20
9
-6
-1
4
8
11
14
13
0
-3
1
7
-1
6
13
16
18
30
13
14
12
9
3
5
8
16
20
11
15
21
16
11
7
15
11
3
7
5
0
1
15
16
1
-7
-14
4
3
-1
-2
0
1
-3
-1
2
11
10
-19
-9
-1
6
5
4
8
1
4
13
0
0
-13
-8
6
1
-1
-12
-13
-11
5
4
20
24
39
54
77
69
55
55
41
26
11
-6
-20
-11
-36
-38
-40
-40
-36
-31
-22
-28
-10
-15
-13
-4
0
-2
4
-4
-9
-9
-3
-1
2
0
-1
-8
9
1
-4
1
-1
9
5
0
1
3
10
0
-1
-4
-8
7
11
4
3
6
15
11
3
2
7
15
-8
4
10
12
-7
3
7
-2
8
13
3
11
19
-3
2
12
12
-1
-2
10
18
9
2
12
20
24
11
9
14
4
-5
6
8
14
23
8
23
13
14
16
14
20
21
21
9
17
15
18
15
14
29
27
27
26
29
32
32
31
32
23
32
37
34
35
43
37
35
30
35
30
39
45
47
48
34
26
32
34
42
43
36
39
37
34
26
22
23
23
23
27
21
30
22
23
26
23
12
-2
2
13
3
1
6
-4
2
7
4
-7
-11
-2
-4
-2
-22
-17
-11
-6
-11
-7
-9
-1
-5
-19
-3
-3
5
-12
-5
-19
-13
-5
-6
-4
-6
-6
2
-3
-8
-10
-18
-10
-14
-7
-10
-18
-14
-11
-14
-4
-3
-9
-12
-10
-10
-12
-13
-2
5
-6
-16
1
-6
-3
-11
-11
-13
-21
-15
-3
-2
-18
-17
-15
-4
-5
-19
-8
-16
-11
-12
-12
0
-4
-17
-10
-9
-18
-15
-5
-7
-4
-11
-12
-11
-10
-13
-19
-23
-24
-13
-17
-8
-13
-11
-5
-3
-13
-14
-19
-19
-13
-16
-23
-19
-16
-19
-16
-17
-20
-30
-11
-17
-10
-14
-15
-18
-28
-12
-15
-16
-28
-26
-33
-27
-24
-26
-29
-27
-17
-35
-30
-21
-14
-25
-22
-13
-10
-22
-24
-36
-28
-28
-21
-18
-28
-23
-15
-27
-33
-37
-35
-23
-18
-12
-21
-25
-45
-40
-19
-26
-19
-13
-26
-39
-28
-24
-21
-26
-37
-32
-18
-19
-15
-27
-25
-23
-30
-32
-36
-38
-35
-17
-38
-30
-25
-30
-29
-26
-34
-29
-34
-27
-28
-26
-20
-28
-33
-24
-19
-22
-28
-16
-21
-34
-33
-37
-26
-24
-30
-21
-22
-17
-21
-23
-22
-8
-4
-7
-42
-34
-34
-37
-36
-34
-39
-34
-30
-32
-35
-28
-40
-31
-34
-27
-33
-48
-47
-47
-39
-35
-28
-30
-42
-47
-53
-48
-42
-41
-28
-33
-30
-25
-49
-56
-52
-57
-52
-42
-33
-40
-38
-28
-27
-32
-48
-52
-43
-43
-39
-20
5
-5
-16
10
26
34
40
24
-3
-22
-32
-43
-57
-71
-81
-77
-64
-68
-76
-71
-55
-54
-54
-48
-43
-36
-40
-47
-45
-27
-29
-40
-39
-34
-50
-56
-44
-37
-37
-29
-22
-38
-39
-40
-40
-40
-32
-33
-44
-38
-31
-35
-29
-34
-40
-37
-34
-32
-37
-38
-25
-33
-45
-30
-36
-34
-37
-34
-28
-20
-20
-32
-44
-36
-28
-41
-42
-34
-22
-28
-37
-46
-40
-37
-34
-26
-26
-28
-32
-18
-25
-22
-21
-44
-31
-17
-34
-37
-31
-19
-20
-27
-23
-26
-26
-11
-12
-26
-33
-23
-19
-13
4
-11
-21
-17
-15
-14
-5
-11
-4
-15
-12
-9
-9
-11
-14
11
2
8
-5
-2
-2
-4
-1
5
10
5
9
2
6
9
14
13
16
6
-1
-12
-7
-11
-3
5
4
-11
-20
-21
-30
-25
-34
-20
-23
-31
-37
-25
-24
-30
-24
-27
-35
-43
-33
-32
-39
-34
-31
-33
-40
-27
-43
-48
-43
-46
-40
-46
-30
-41
-48
-50
-40
-42
-50
-37
-35
-46
-32
-47
-41
-45
-26
-25
-38
-34
-39
-31
-42
-45
-31
-22
-30
-45
-40
-47
-39
-28
-37
-34
-37
-48
-42
-22
-28
-42
-35
-40
-28
-44
-35
-33
-41
-35
-37
-42
-39
-43
-38
-36
-21
-31
-43
-42
-18
-27
-38
-36
-47
-36
-46
-56
-38
-31
-34
-31
-18
-41
-45
-42
-25
-34
-50
-49
-35
-33
-32
-30
-34
-59
-29
-38
-39
-38
-32
-29
-51
-50
-45
-35
-26
-35
-39
-33
-39
-46
-49
-39
-34
-41
-22
-24
-43
-48
-59
-40
-43
-47
-50
-35
-34
-34
-30
-25
-38
-47
-55
-48
-42
-35
-41
-48
-43
-35
-21
-39
-64
-48
-34
-39
-47
-40
-39
-41
-41
-47
-44
-45
-43
-33
-34
-48
-45
-45
-40
-30
-44
-48
-54
-47
-51
-55
-37
-45
-45
-44
-46
-48
-28
-39
-48
-63
-52
-43
-38
-34
-53
-55
-44
-39
-40
-40
-36
-45
-44
-45
-40
-40
-47
-43
-47
-49
-47
-36
-35
-36
-43
-55
-52
-43
-42
-42
-49
-47
-43
-52
-47
-49
-39
-45
-45
-35
-37
-39
-39
-41
-50
-47
-45
-47
-32
-21
-41
-46
-44
-42
-41
-28
-29
-42
-43
-37
-33
-39
-31
-50
-27
-22
-12
-24
-16
-27
-40
-48
-43
-40
-35
-46
-51
-40
-40
-47
-46
-37
-32
-38
-37
-44
-60
-43
-44
-40
-39
-45
-40
-59
-41
-44
-59
-59
-51
-42
-55
-41
-44
-49
-51
-48
-58
-43
-33
-40
-50
-54
-43
-30
-44
-52
-41
-49
-35
-23
-25
-19
-4
15
28
37
40
20
2
-32
-49
-59
-72
-70
-76
-74
-82
-89
-73
-60
-68
-57
-49
-53
-52
-46
-45
-51
-50
-43
-38
-51
-51
-58
-52
-42
-41
-41
-43
-42
-42
-40
-33
-53
-40
-27
-35
-46
-25
-24
-52
-62
-52
-31
-34
-40
-43
-39
-41
-30
-25
-36
-47
-38
-32
-32
-37
-43
-34
-32
-35
-47
-46
-37
-34
-35
-27
-23
-26
-38
-43
-30
-31
-28
-26
-30
-35
-31
-35
-16
-22
-20
-42
-36
-36
-37
-31
-38
-24
-24
-24
-19
-12
-12
-40
-25
-34
-16
-10
-11
-14
-23
-28
-25
-9
-12
1
-1
-6
-17
-13
-3
-1
-5
-22
-7
-6
-2
1
5
2
19
11
-4
-8
0
3
4
10
4
8
15
9
7
6
11
8
4
-2
2
7
-1
2
-7
-6
-14
-4
-3
-25
-12
-7
-26
-35
-32
-27
-26
-27
-32
-26
-30
-32
-26
-36
-33
-28
-30
-32
-43
-32
-41
-41
-47
-34
-30
-32
-33
-36
-33
-41
-27
-33
-41
-41
-38
-26
-29
-44
-30
-32
-45
-28
-32
-31
-28
-40
-40
-22
-47
-42
-31
-32
-38
-30
-28
-40
-44
-21
-17
-38
-44
-40
-29
-44
-40
-21
-24
-23
-19
-18
-21
-39
-46
-37
-36
-39
-39
-22
-24
-33
-41
-25
-39
-35
-18
-34
-31
-26
-16
-30
-28
-27
-25
-29
-37
-26
-36
-42
-36
-32
-27
-31
-32
-41
-36
-30
-33
-41
-36
-30
-39
-37
-31
-22
-22
-32
-28
-29
-26
-34
-17
-35
-34
-33
-40
-33
-20
-26
-37
-24
-23
-25
-37
-40
-41
-37
-26
-36
-28
-28
-34
-39
-36
-27
-15
-13
-22
-36
-47
-33
-27
-31
-28
-33
-28
-21
-23
-48
-19
-8
-16
-29
-34
-33
-40
-30
-21
-29
-27
-26
-10
-23
-19
-22
-33
-14
-44
-29
-32
-25
-24
-9
-28
-27
-19
-30
-31
-36
-29
-25
-15
-17
-11
-34
-29
-22
-21
-13
-26
-22
-22
-23
-34
-31
-20
-15
-12
-9
-21
-27
-31
-22
-24
-20
-11
-25
-12
-10
-10
-14
-16
-16
-17
-11
-14
-10
-12
6
21
-6
-27
-35
-12
-14
-28
-29
-29
-24
-23
-17
-10
-15
-27
-32
-15
-20
-30
-24
-23
-16
-14
-21
-14
-22
-20
-17
-12
-17
-17
-24
-23
-29
-22
-19
-12
-14
-12
-3
-17
-30
-18
-24
-27
-31
-40
-27
-16
13
15
22
23
35
46
30
26
-8
-29
-22
-45
-56
-52
-52
-56
-58
-45
-42
-38
-35
-26
-39
-25
-12
-14
-24
-20
-26
-26
-20
-10
-3
0
-24
-10
-19
-4
-4
0
-8
-14
-16
-7
-3
-14
-15
-8
-12
-8
-10
-5
18
13
12
-7
-12
-4
-4
-6
-7
-6
3
-10
2
-10
-2
11
-5
0
0
1
7
-1
3
12
-2
-5
5
8
6
21
7
-5
1
26
13
9
10
17
14
1
4
12
10
5
0
30
4
12
6
17
16
7
14
25
21
20
27
28
-1
19
35
28
15
25
25
20
24
31
37
33
31
41
47
50
31
29
40
23
28
34
43
45
46
48
41
43
44
40
46
49
47
42
48
48
45
31
32
33
51
40
32
42
45
22
27
26
22
17
17
15
15
7
22
12
10
5
0
12
7
7
7
9
17
2
-6
7
4
5
11
-4
13
11
12
-5
6
25
18
22
25
-12
-17
-7
-7
-3
-3
0
6
-1
7
2
3
-9
6
14
18
2
1
10
1
1
0
-3
2
-1
1
2
-2
1
6
7
4
0
1
5
7
3
1
-10
-9
6
-4
-5
1
3
6
-3
5
6
1
6
19
-15
-11
7
12
6
-2
-3
3
0
-1
-7
-9
9
-2
-2
2
2
-9
3
4
-16
-14
-2
1
20
6
1
-10
3
12
1
-10
-5
5
-9
1
-8
-5
12
1
-1
0
13
3
-3
-10
-1
-6
-8
4
1
-7
-3
9
10
-1
5
8
23
28
-1
-2
7
12
9
5
2
7
18
6
8
7
4
-4
-10
1
-3
4
11
-1
-10
-5
15
2
-1
-13
-7
-4
-7
-7
-11
-2
2
3
5
7
5
-13
-10
-18
-26
-7
-10
1
8
21
-11
-16
-6
-11
-9
-5
-5
-10
5
-3
-6
7
-2
5
5
-1
2
15
38
43
53
53
65
48
29
5
-7
0
-10
-13
-32
-22
-29
-37
-23
-27
-22
-25
-7
1
0
-7
-2
7
-11
-3
-4
3
8
6
4
1
5
-5
2
5
3
1
1
5
10
4
4
9
-4
-13
18
16
4
3
4
-2
-6
-1
-2
10
0
-6
2
8
14
6
-5
7
-2
10
17
12
10
6
1
3
-3
-13
-1
1
0
8
11
19
7
6
4
0
-8
-2
-5
3
17
8
8
4
0
10
13
2
8
6
5
8
7
9
8
18
13
19
20
30
34
22
7
12
23
26
25
21
20
29
33
30
27
30
35
30
37
55
41
35
22
29
33
43
54
38
36
55
42
42
45
35
33
22
32
29
32
24
15
20
25
18
6
19
4
12
17
5
-1
8
9
14
-5
-6
-2
9
0
-11
-9
-4
-12
-5
-6
-6
-10
-3
-12
-4
2
1
-3
0
-13
-4
8
7
2
-17
-7
-11
-15
-6
-8
-11
-16
-10
-11
-10
-6
-3
-6
-3
-2
0
-9
-12
3
-3
-9
-3
-3
1
-4
-7
-15
-11
-6
-2
-13
-11
-11
-11
-1
-4
-13
-6
-4
-6
-2
9
19
-12
-16
-10
-10
-12
-10
-5
-5
-8
-14
-4
-11
-8
-17
-6
-2
1
3
-16
-8
-8
5
-2
-9
-26
-17
-16
-18
-14
-5
-7
-12
-15
-20
-10
-12
1
-1
-10
-13
-11
-16
-9
-18
-5
-3
-14
-8
-30
-26
-5
-18
-24
-20
-9
-9
-17
-18
-14
-15
-16
-10
-11
-4
-8
-13
-10
-15
4
-3
-7
-6
-10
-11
-8
-8
-7
-5
0
-1
-6
-4
2
-9
-30
-29
-27
-19
-20
-14
-13
-18
-27
-22
-11
-18
-28
-22
-20
-24
-29
-27
-20
-13
-25
-23
-11
-18
-28
-28
-34
-31
-31
-33
-34
-29
-25
-28
-33
-43
-14
-12
-20
-33
-31
-12
-12
-12
-31
-46
-32
-27
-4
1
4
15
30
43
45
38
8
-13
-25
-32
-55
-60
-59
-51
-74
-71
-66
-65
-49
-35
-45
-51
-31
-42
-41
-43
-45
-36
-39
-38
-33
-36
-27
-29
-37
-39
-43
-33
-31
-30
-33
-24
-34
-41
-34
-43
-32
-35
-39
-35
-39
-38
-38
-36
-37
-34
-34
-34
-35
-37
-33
-41
-24
-35
-38
-29
-40
-35
-37
-42
-35
-36
-29
-31
-23
-27
-31
-37
-32
-33
-32
-36
-39
-33
-27
-24
-47
-41
-25
-32
-34
-31
-36
-33
-21
-44
-32
-30
-35
-31
-32
-21
-22
-25
-28
-28
-34
-27
-33
-22
-29
-20
-22
-21
-9
-19
-21
-18
-16
-11
-14
-16
-10
-15
-5
-15
-32
-9
-23
-16
-7
-7
-7
-13
-9
-1
-12
-16
-19
-26
-27
-16
-33
-12
-17
-27
-29
-26
-29
-30
-33
-37
-43
-35
-49
-51
-43
-53
-60
-61
-56
-62
-54
-47
-57
-53
-58
-70
-69
-67
-65
-61
-54
-61
-77
-72
-67
-67
-65
-59
-70
-82
-60
-59
-66
-70
-71
-65
-77
-77
-68
-63
-70
-78
-78
-74
-76
-70
-63
-80
-74
-67
-65
-65
-70
-77
-74
-78
-63
-76
-64
-60
-82
-80
-62
-65
-77
-73
-72
-76
-72
-71
-84
-79
-71
-70
-71
-76
-81
-75
-78
-72
-79
-63
-65
-76
-73
-72
-78
-75
-89
-67
-67
-80
-75
-84
-80
-70
-78
-72
-65
-88
-87
-77
-83
-85
-89
-88
-73
-70
-75
-74
-76
-82
-81
-77
-84
-87
-80
-78
-83
-81
-82
-85
-81
-67
-87
-79
-75
-79
-93
-83
-92
-100
-86
-94
-92
-84
-87
-79
-77
-81
-77
-80
-94
-79
-87
-87
-85
-96
-76
-71
-88
-95
-86
-93
-92
-85
-87
-86
-82
-76
-87
-84
-78
-79
-92
-92
-83
-69
-64
-88
-99
-79
-85
-87
-94
-85
-76
-79
-71
-81
-76
-72
-80
-69
-77
-74
-69
-85
-90
-84
-88
-91
-90
-97
-89
-89
-91
-91
-98
-91
-93
-87
-85
-78
-102
-99
-98
-96
-84
-86
-96
-105
-96
-104
-92
-85
-98
-89
-96
-95
-93
-94
-93
-102
-94
-96
-100
-100
-93
-97
-106
-89
-97
-101
-97
-99
-97
-75
-67
-55
-46
-37
-19
-17
-28
-35
-70
-92
-93
-89
-103
-127
-124
-137
-138
-138
-123
-113
-114
-102
-95
-89
-87
-107
-111
-120
-101
-100
-89
-92
-94
-99
-103
-98
-90
-90
-97
-93
-87
-92
-83
-81
-101
-97
-100
-94
-81
-89
-97
-97
-93
-88
-81
-98
-91
-84
-93
-82
-88
-93
-95
-97
-91
-100
-93
-92
-85
-84
-89
-93
-90
-69
-79
-98
-87
-87
-87
-88
-94
-86
-78
-88
-92
-91
-99
-91
-79
-80
-79
-78
-86
-78
-86
-68
-78
-87
-87
-88
-84
-75
-87
-88
-80
-73
-78
-90
-67
-68
-66
-72
-84
-78
-71
-75
-69
-65
-67
-69
-72
-72
-64
-66
-66
-64
-72
-63
-63
-50
-65
-58
-60
-65
-66
-58
-62
-63
-61
-72
-60
-52
-51
-40
-69
-88
-76
-64
-64
-66
-72
-76
-77
-82
-84
-89
-86
-91
-79
-89
-92
-106
-90
-92
-96
-91
-92
-97
-99
-96
-90
-104
-110
-105
-80
-90
-116
-108
-102
-108
-100
-111
-98
-112
-108
-103
-104
-109
-109
-111
-102
-86
-82
-102
-110
-111
-113
-102
-101
-104
-93
-107
-109
-103
-102
-106
-96
-108
-92
-95
-115
-104
-92
-92
-93
-112
-108
-103
-101
-94
-101
-104
-100
-104
-106
-110
-111
-94
-101
-102
-109
-109
-95
-98
-104
-89
-100
-110
-116
-95
-93
-103
-114
-115
-101
-100
-89
-99
-97
-103
-108
-104
-112
-111
-96
-95
-111
-110
-94
-100
-89
-114
-121
-114
-102
-97
-98
-106
-103
-101
-88
-106
-112
-113
-104
-109
-89
-83
-105
-116
-114
-107
-97
-107
-106
-100
-102
-118
-115
-98
-97
-94
-106
-111
-108
-105
-108
-104
-92
-95
-83
-81
-110
-122
-104
-110
-112
-98
-104
-95
-97
-105
-109
-110
-109
-98
-100
-99
-96
-105
-100
-111
-124
-107
-101
-100
-91
-102
-110
-99
-100
-109
-110
-98
-103
-105
-103
-108
-102
-106
-105
-92
-115
-105
-105
-106
-106
-109
-115
-101
-95
-118
-113
-97
-93
-97
-111
-94
-96
-115
-117
-94
-99
-101
-94
-100
-100
-107
-105
-109
-98
-99
-104
-100
-95
-101
-102
-73
-80
-96
-103
-98
-98
-96
-84
-96
-91
-94
-91
-100
-96
-107
-103
-100
-107
-99
-112
-104
-93
-96
-85
-101
-109
-115
-112
-113
-103
-114
-115
-107
-103
-105
-115
-111
-110
-93
-106
-114
-111
-116
-123
-123
-114
-110
-111
-103
-104
-109
-108
-111
-106
-103
-103
-110
-100
-91
-71
-75
-69
-48
-36
-36
-37
-41
-77
-97
-109
-119
-123
-140
-144
-141
-150
-148
-140
-133
-125
-127
-103
-116
-109
-106
-111
-118
-110
-98
-93
-104
-106
-118
-107
-104
-137
-117
-94
-97
-94
-111
-112
-121
-117
-108
-102
-107
-111
-100
-102
-102
-99
-106
-106
-108
-95
-89
-100
-99
-95
-103
-109
-96
-88
-106
-104
-101
-101
-104
-96
-103
-98
-99
-101
-110
-111
-99
-104
-87
-92
-87
-95
-91
-86
-84
-96
-103
-98
-97
-101
-88
-84
-89
-98
-90
-98
-95
-74
-88
-87
-84
-81
-77
-78
-100
-99
-82
-77
-76
-70
-67
-87
-79
-72
-72
-64
-78
-73
-62
-64
-68
-73
-83
-79
-67
-66
-54
-57
-65
-71
-70
-70
-66
-64
-54
-62
-49
-45
-51
-59
-54
-73
-61
-51
-54
-66
-70
-67
-66
-77
-73
-72
-73
-72
-75
-77
-77
-77
-80
-87
-92
-84
-78
-88
-94
-91
-97
-102
-112
-103
-90
-102
-95
-102
-93
-86
-102
-108
-100
-92
-99
-112
-98
-91
-98
-97
-105
-109
-98
-101
-104
-108
-104
-104
-110
-105
-98
-104
-87
-82
-97
-96
-100
-103
-112
-101
-98
-90
-100
-100
-101
-96
-82
-85
-98
-105
-96
-93
-117
-92
-105
-100
-101
-99
-104
-102
-106
-102
-89
-79
-93
-92
-91
-103
-99
-102
-100
-88
-92
-92
-88
-99
-112
-105
-97
-104
-99
-91
-100
-93
-92
-96
-92
-91
-105
-107
-97
-96
-85
-81
-86
-98
-113
-101
-99
-102
-99
-96
-99
-100
-99
-89
-98
-94
-95
-96
-87
-103
-91
-87
-97
-79
-101
-111
-108
-100
-93
-102
-101
-98
-93
-94
-111
-103
-91
-99
-99
-104
-102
-89
-86
-95
-113
-113
-98
-96
-104
-94
-101
-102
-102
-94
-101
-112
-106
-105
-101
-90
-97
-95
-91
-108
-95
-105
-100
-94
-92
-99
-105
-104
-111
-109
-98
-100
-104
-108
-98
-90
-106
-103
-91
-95
-111
-98
-98
-104
-115
-115
-103
-96
-98
-110
-100
-108
-106
-106
-91
-97
-99
-97
-106
-113
-101
-106
-98
-92
-100
-98
-91
-94
-92
-104
-99
-94
-109
-95
-84
-86
-83
-93
-101
-93
-94
-102
-99
-107
-105
-117
-103
-93
-115
-106
-104
-97
-110
-117
-113
-108
-117
-119
-118
-107
-107
-115
-106
-101
-104
-103
-100
-96
-111
-110
-112
-120
-120
-110
-110
-106
-105
-110
-107
-106
-95
-101
-117
-106
-102
-90
-89
-67
-80
-84
-65
-47
-29
-9
-8
-35
-64
-78
-100
-104
-123
-118
-138
-138
-136
-138
-128
-127
-125
-123
-107
-101
-93
-106
-100
-101
-96
-95
-89
-93
-96
-99
-104
-104
-97
-103
-107
-103
-89
-89
-101
-113
-105
-97
-95
-104
-109
-100
-92
-89
-96
-107
-98
-105
-98
-88
-86
-96
-92
-87
-93
-90
-92
-96
-98
-109
-96
-99
-100
-83
-90
-86
-87
-88
-76
-86
-93
-92
-110
-105
-100
-88
-90
-85
-82
-92
-94
-101
-98
-82
-85
-75
-86
-96
-94
-82
-95
-94
-90
-94
-88
-91
-92
-79
-70
-75
-69
-64
-74
-94
-93
-89
-80
-79
-79
-73
-80
-70
-70
-76
-81
-70
-53
-50
-72
-74
-74
-65
-72
-68
-73
-61
-67
-60
-52
-56
-56
-55
-61
-70
-62
-60
-65
-61
-65
-54
-63
-67
-85
-76
-67
-71
-70
-66
-69
-78
-79
-83
-83
-86
-83
-78
-81
-76
-84
-94
-93
-78
-95
-97
-77
-97
-109
-95
-91
-82
-97
-93
-78
-89
-105
-97
-98
-89
-78
-89
-74
-93
-98
-102
-99
-96
-93
-91
-92
-91
-81
-76
-99
-89
-91
-92
-87
-92
-69
-82
-93
-95
-87
-88
-99
-75
-83
-91
-90
-79
-80
-82
-82
-89
-82
-93
-98
-91
-82
-89
-87
-84
-101
-82
-82
-100
-82
-76
-88
-97
-93
-87
-89
-83
-90
-80
-88
-86
-85
-75
-84
-93
-84
-91
-86
-80
-83
-98
-93
-85
-85
-86
-84
-80
-80
-77
-81
-94
-109
-95
-90
-76
-102
-104
-95
-87
-83
-88
-93
-100
-99
-98
-100
-100
-78
-75
-78
-93
-103
-90
-95
-97
-80
-73
-66
-93
-89
-98
-102
-102
-85
-87
-96
-85
-84
-89
-93
-86
-83
-91
-77
-88
-109
-91
-94
-96
-91
-83
-88
-91
-82
-93
-95
-87
-92
-83
-75
-81
-87
-97
-85
-90
-86
-83
-78
-87
-86
-87
-89
-85
-96
-85
-90
-81
-77
-75
-86
-86
-75
-78
-80
-71
-77
-88
-84
-73
-79
-70
-58
-69
-70
-67
-67
-76
-78
-61
-71
-70
-69
-80
-73
-73
-71
-72
-70
-70
-83
-86
-79
-68
-67
-76
-86
-85
-81
-78
-87
-83
-72
-77
-79
-85
-90
-80
-68
-71
-77
-85
-83
-80
-75
-83
-83
-83
-82
-80
-86
-80
-77
-87
-82
-92
-72
-65
-57
-72
-84
-80
-85
-73
-73
-62
-40
-28
-23
-7
7
-1
1
-9
-49
-63
-91
-89
-101
-126
-122
-127
-117
-121
-100
-102
-94
-83
-77
-85
-68
-69
-92
-88
-82
-75
-79
-80
-76
-67
-63
-64
-74
-77
-85
-76
-85
-79
-68
-68
-79
-62
-74
-77
-76
-59
-56
-69
-63
-69
-72
-70
-74
-78
-69
-58
-78
-79
-72
-60
-68
-70
-67
-66
-69
-67
-66
-63
-63
-57
-64
-60
-65
-68
-67
-64
-64
-76
-63
-50
-54
-62
-54
-54
-54
-57
-53
-46
-52
-52
-57
-55
-56
-51
-38
-58
-52
-56
-49
-50
-48
-46
-44
-42
-51
-38
-39
-37
-36
-45
-34
-22
-29
-22
-29
-32
-13
-19
-16
-21
-16
-26
-19
-2
-14
5
-10
-32
-35
-29
-19
-7
29
51
0
-36
-15
-5
-32
-36
-28
-18
-13
-21
-27
-16
11
2
-3
-32
-53
-57
-47
-50
-24
-8
-32
-46
-49
-59
-48
-60
-75
-62
-57
-48
-45
-58
-32
-51
-60
-55
-49
-50
-46
-35
-44
-40
-43
-46
-33
-16
8
8
-53
-74
-55
-46
-37
-18
-19
-33
-41
-48
-36
-23
-9
-11
-16
-16
-13
-13
-8
-5
5
5
-8
-10
8
31
14
14
23
-1
-22
-7
9
11
16
2
6
2
6
4
18
17
23
26
19
4
11
19
11
13
21
19
17
27
28
34
30
43
11
29
25
29
29
36
36
30
37
33
11
20
17
7
20
35
45
39
28
6
13
21
32
24
15
11
19
16
15
12
10
27
26
24
23
25
21
22
24
29
31
26
21
24
26
27
14
21
14
20
27
20
15
25
18
16
17
31
30
15
32
23
23
30
37
39
35
33
42
47
22
20
32
29
31
46
37
32
42
34
26
20
24
27
30
26
16
17
16
21
20
26
12
24
19
9
20
4
5
14
9
14
20
16
19
14
32
14
2
21
22
10
4
6
3
4
12
6
18
23
11
13
11
20
14
9
9
1
12
10
26
51
58
58
62
75
61
42
8
-1
-13
-19
-22
-23
-24
-16
-20
-27
-28
-23
-31
-28
-18
-12
3
1
7
10
5
19
10
3
31
19
-3
-13
2
5
4
5
10
4
11
21
10
10
9
11
22
21
9
-2
22
31
30
12
11
8
8
13
15
19
23
24
15
23
36
27
8
11
13
4
21
18
26
31
16
26
25
17
20
23
9
14
24
17
28
26
23
26
30
31
31
22
19
20
25
22
27
30
31
32
30
29
39
29
28
48
31
30
35
23
56
49
32
37
44
35
40
42
52
52
49
48
61
66
51
51
53
47
48
43
43
54
65
55
66
66
59
60
69
61
59
53
49
65
56
46
39
41
37
38
41
46
41
33
34
24
41
40
40
35
9
8
9
6
16
15
9
17
20
20
18
38
17
14
16
19
8
12
0
11
12
8
11
16
17
-2
10
23
22
5
16
8
-3
15
6
13
11
14
21
23
13
13
6
6
10
10
5
5
12
20
33
26
13
4
8
1
2
6
12
8
17
32
29
-7
9
18
2
9
13
-1
10
18
8
3
7
14
10
12
-6
3
16
17
2
9
18
12
7
5
9
10
2
6
2
8
4
16
8
14
8
3
7
17
12
21
15
3
-2
4
9
4
6
8
6
18
18
7
14
-1
7
14
16
15
22
19
11
-8
11
23
23
20
18
15
14
30
32
24
21
12
27
18
10
14
13
12
10
13
13
1
12
7
3
5
6
8
11
6
14
11
12
10
4
0
-8
-2
5
1
6
7
-3
6
11
7
14
0
0
7
7
1
5
7
3
3
8
11
19
7
7
5
6
9
21
44
48
29
39
50
58
71
74
51
30
12
11
-7
-12
-17
-27
-13
-37
-34
-20
-10
-4
-3
1
16
13
3
1
7
8
7
8
2
7
-1
-3
14
17
12
15
14
11
7
14
17
7
19
26
13
11
6
3
1
10
13
13
23
25
24
22
15
6
8
7
20
16
11
20
24
10
17
16
13
24
29
18
21
20
15
22
23
30
25
14
14
22
29
24
27
8
21
17
6
28
35
22
20
21
29
26
27
28
34
40
42
31
30
30
22
31
37
36
42
36
33
32
44
38
42
35
35
46
50
51
51
40
44
43
51
50
50
54
65
63
56
52
50
51
49
64
58
44
48
50
51
39
44
41
44
35
40
43
38
34
32
28
43
50
40
21
10
6
13
15
16
18
20
28
22
20
23
10
9
15
16
25
21
21
20
17
16
5
23
25
21
-1
11
24
23
18
12
11
15
11
10
16
16
28
13
7
6
19
16
18
24
19
22
27
16
15
12
14
15
17
24
20
14
14
14
14
18
15
16
20
17
24
11
20
15
15
22
30
20
12
10
14
19
8
17
23
14
11
20
19
12
25
22
14
16
16
14
16
18
14
16
19
22
9
25
12
13
9
16
28
18
16
15
14
14
16
15
17
16
14
16
25
12
25
22
17
25
26
27
18
19
24
21
20
36
28
24
16
22
34
35
32
40
29
20
-1
1
8
12
29
10
-3
5
12
11
18
6
6
13
13
7
15
9
6
7
10
8
9
5
7
14
7
3
7
10
7
13
5
5
14
13
14
22
14
19
18
11
-1
2
5
25
48
54
71
64
61
68
85
79
66
44
20
14
9
-7
-20
-18
-25
-20
-21
-8
-9
-4
2
4
12
10
10
2
14
0
17
13
11
18
13
13
5
14
16
11
14
18
21
8
12
29
10
11
9
19
23
21
19
20
14
26
15
18
21
20
24
25
21
16
21
20
30
24
26
9
15
18
24
23
21
26
25
9
20
29
31
38
36
23
15
22
23
18
20
18
29
34
32
25
26
29
25
24
29
24
32
36
32
27
29
35
41
33
44
45
42
40
39
42
50
33
45
43
46
41
44
54
59
53
55
47
47
50
50
55
57
57
70
63
73
75
41
36
38
53
60
52
62
55
55
55
53
41
38
43
34
37
36
28
25
27
23
27
31
21
25
23
19
19
15
16
16
19
25
4
11
14
18
6
10
9
6
8
7
4
7
8
13
13
13
12
11
8
12
6
5
15
10
16
13
16
15
10
7
14
20
19
13
12
18
18
10
12
13
27
21
13
15
10
7
16
20
26
7
18
21
24
20
26
11
8
20
14
24
27
22
20
11
8
19
22
14
9
19
22
15
20
20
24
28
26
35
22
6
5
5
10
13
13
13
21
14
12
10
18
19
25
12
3
12
13
14
13
13
12
18
23
22
13
13
16
9
21
23
23
23
32
16
10
24
32
22
24
22
35
37
21
16
17
18
23
32
24
15
16
21
23
14
14
9
4
11
14
14
23
21
11
14
6
1
9
22
15
10
-2
1
5
3
5
2
8
4
11
13
7
4
9
12
19
12
8
0
8
14
20
12
8
19
-2
-10
-2
15
34
43
43
59
70
79
78
81
65
48
18
2
0
-11
-20
-31
-22
-17
-22
-33
-17
3
2
3
3
1
14
11
15
5
4
7
7
21
19
11
10
14
10
17
18
19
23
18
15
14
13
14
26
16
4
16
23
28
25
17
11
6
10
5
14
21
25
28
24
15
10
11
19
18
22
12
15
24
27
19
20
21
17
16
29
26
20
23
26
26
33
15
16
28
35
31
26
25
16
14
26
26
28
26
22
30
29
25
33
40
30
37
36
49
40
29
22
42
44
41
37
39
37
40
41
46
47
44
42
49
58
53
43
55
44
52
39
55
51
48
50
49
53
46
53
61
48
52
48
49
44
47
52
46
54
69
36
23
22
-2
13
8
8
11
16
25
34
17
6
7
14
6
4
-2
8
10
4
5
7
10
10
8
1
3
9
15
5
15
18
12
3
4
5
11
10
8
20
8
11
13
1
0
4
10
11
14
13
14
14
10
6
3
2
9
27
14
15
6
10
9
5
7
7
8
23
23
17
1
-3
-1
9
11
9
17
30
21
16
3
8
8
9
2
3
8
17
29
22
-3
2
5
6
10
-2
6
8
10
8
13
12
8
15
27
20
8
-1
1
-1
15
17
5
-1
9
9
9
2
10
4
7
23
15
8
6
-1
3
6
3
1
13
10
7
10
5
3
5
5
