340
350
406
406
431
512
434
338
243
290
341
354
405
407
447
511
424
331
239
297
347
358
402
401
451
501
419
329
247
314
348
363
407
413
479
506
424
334
247
316
355
367
400
406
480
491
411
316
243
315
344
357
391
403
483
476
390
304
232
318
349
369
401
413
504
492
412
323
238
328
354
371
400
406
499
483
403
316
234
332
349
369
389
399
497
472
387
304
227
320
345
369
393
409
514
476
389
311
237
339
344
383
409
417
525
480
392
291
242
341
337
388
403
409
512
459
370
271
250
346
342
404
414
418
533
467
370
271
266
345
345
412
418
418
523
461
361
268
293
380
402
488
511
545
674
626
546
471
513
587
594
649
621
604
632
499
353
216
249
298
308
361
364
397
465
387
294
202
260
307
324
372
382
443
486
408
314
224
292
332
354
390
397
468
492
408
319
230
299
343
356
391
407
482
492
407
316
239
323
353
370
401
411
498
496
405
323
236
319
354
370
397
408
493
481
404
321
246
339
366
378
410
423
515
498
421
337
256
348
374
398
417
427
531
505
421
342
269
363
380
415
438
450
557
526
448
369
289
387
404
439
456
465
570
533
446
350
293
391
397
446
467
468
575
532
430
325
301
396
390
449
462
462
563
507
403
298
291
369
363
424
422
422
524
459
352
255
260
334
331
392
390
394
497
419
321
224
253
314
322
374
375
397
481
397
292
198
241
296
303
360
364
395
466
391
288
197
252
301
310
363
364
411
459
373
280
190
254
297
307
347
349
412
442
358
270
181
247
288
299
340
351
422
433
355
259
175
250
281
297
327
338
418
416
333
245
163
246
272
287
321
322
405
395
314
224
145
234
262
285
306
311
401
389
300
214
137
228
244
264
287
298
390
364
276
197
124
215
238
259
275
288
389
351
265
182
107
204
213
244
278
278
377
342
255
159
101
197
199
241
263
272
371
322
228
127
92
191
186
251
263
261
367
308
211
111
107
191
189
254
261
265
371
306
199
107
121
193
194
259
263
266
368
299
200
106
137
201
209
272
275
293
379
306
205
110
157
212
217
263
273
313
377
293
197
103
163
202
216
263
273
317
375
280
183
98
159
205
222
267
277
333
373
288
191
98
174
215
227
264
271
348
361
278
172
92
166
203
219
246
255
342
346
272
179
92
172
202
217
252
262
352
343
259
168
92
176
206
222
254
263
358
345
257
163
74
173
206
220
247
258
362
336
249
161
80
177
198
224
245
254
365
333
242
159
83
176
193
225
249
264
380
337
239
146
76
179
188
232
256
269
374
333
233
123
85
184
186
241
257
260
370
315
214
106
94
189
204
282
302
331
468
433
351
274
300
390
411
493
514
515
613
499
348
188
147
171
154
207
206
232
321
246
150
55
101
155
167
230
240
278
355
274
176
87
138
185
203
258
257
305
356
276
180
93
156
195
215
256
269
334
360
280
191
106
175
215
226
265
274
348
363
291
197
110
187
223
236
267
279
362
368
286
198
117
199
238
257
285
291
375
365
283
203
122
210
245
263
296
314
403
384
297
216
139
229
256
278
305
323
420
390
320
235
162
254
281
312
336
348
443
414
333
250
176
272
288
323
348
356
466
423
331
244
180
276
283
322
348
345
449
401
307
198
163
260
252
311
317
319
419
368
263
157
145
233
224
286
293
290
392
333
231
127
139
208
206
265
271
268
368
299
201
100
128
193
196
252
258
269
356
273
180
90
132
182
190
238
241
282
346
271
172
77
136
182
195
245
246
295
349
264
170
81
144
185
201
242
255
311
349
268
178
89
153
194
216
247
257
328
343
262
169
90
159
204
216
245
251
333
328
254
167
85
163
191
211
236
251
340
328
245
155
75
163
199
214
237
254
344
329
250
164
83
176
209
225
252
260
361
339
250
165
98
185
202
224
253
269
366
332
247
172
95
189
199
233
257
267
370
333
240
149
89
185
189
240
262
268
362
323
230
124
89
191
188
238
256
254
367
308
209
105
94
183
181
244
250
253
361
302
196
102
110
184
184
252
256
258
363
296
197
102
128
189
195
255
262
278
363
287
191
98
138
193
200
249
260
297
360
282
189
95
148
192
208
253
260
312
359
280
187
107
161
201
217
260
265
325
354
276
186
98
172
211
228
264
272
340
360
280
195
113
193
230
247
281
292
369
370
288
198
115
193
225
244
274
285
368
367
279
193
111
195
222
248
274
289
372
359
275
192
115
201
224
239
266
282
371
351
269
188
107
207
229
251
274
296
392
356
273
192
111
216
226
258
283
295
400
358
269
179
115
213
220
266
286
291
398
346
255
151
114
207
206
269
295
312
438
410
328
264
276
388
408
491
511
528
650
588
468
325
264
277
223
245
232
234
334
270
170
72
103
173
181
238
248
277
366
297
204
109
154
208
219
272
271
304
372
290
197
108
163
210
220
265
268
323
373
286
195
107
170
207
227
270
278
338
371
282
197
106
178
220
232
271
285
355
376
288
195
113
189
224
240
277
289
366
370
291
197
116
205
238
262
290
309
397
386
312
225
145
233
271
287
314
321
434
413
334
249
167
268
296
317
348
367
467
443
362
282
205
301
323
351
376
387
494
460
371
290
209
304
318
351
367
379
489
439
352
264
191
286
287
332
350
352
451
402
315
199
160
267
255
303
320
324
431
374
268
167
154
240
237
301
304
305
416
356
249
144
152
228
233
301
295
294
402
333
234
128
156
222
225
286
287
306
393
321
215
121
164
219
231
287
291
328
399
317
222
131
182
230
240
286
292
336
392
307
208
116
179
223
235
279
293
351
386
305
213
124
189
230
248
288
294
363
380
299
208
125
194
234
260
290
290
371
375
295
210
130
214
245
265
295
306
394
387
304
213
141
222
253
272
305
308
394
375
293
207
129
218
256
270
292
311
411
377
295
213
138
234
258
277
298
310
411
377
300
209
141
228
242
272
297
310
413
373
283
201
134
227
238
276
301
302
405
363
274
168
133
235
243
293
307
311
424
376
278
176
156
245
243
310
319
326
428
368
268
172
176
255
253
321
323
325
426
365
266
164
187
257
258
319
320
347
437
367
269
172
217
271
280
334
341
365
438
359
265
171
221
269
285
332
336
379
434
356
262
166
223
272
282
325
340
391
428
346
252
165
241
274
285
331
338
407
422
338
247
157
232
267
286
318
325
410
409
322
231
152
228
260
276
314
318
397
390
312
219
141
233
256
270
299
311
402
386
301
216
139
230
252
277
299
307
401
376
288
204
123
218
244
263
290
298
397
373
277
202
138
252
286
342
385
421
554
552
480
413
345
461
465
513
516
476
537
438
292
144
80
183
183
239
253
245
351
305
209
108
87
175
181
250
261
267
384
329
228
131
134
217
218
285
289
294
409
344
246
148
164
235
235
298
302
319
409
337
237
135
173
233
244
299
305
330
402
322
230
137
187
239
255
305
312
355
420
337
242
155
214
260
274
319
330
371
423
341
245
149
209
248
264
302
309
382
412
327
240
156
230
268
290
331
332
415
427
340
250
175
251
285
303
340
354
436
431
352
267
184
271
308
322
351
360
453
433
350
261
183
269
300
319
338
337
434
404
316
228
143
241
262
275
292
305
403
364
275
187
106
203
220
243
255
264
369
326
244
163
80
184
187
227
251
259
371
327
234
140
82
189
183
228
243
247
350
299
205
101
75
170
169
220
226
227
333
272
173
76
75
154
151
215
220
219
325
260
160
66
89
155
153
217
222
233
328
257
158
65
102
158
169
226
234
259
338
264
167
74
124
180
187
238
242
283
349
266
173
91
139
174
193
244
245
302
339
250
160
66
133
170
180
217
231
295
324
234
141
50
123
157
173
205
213
290
295
211
123
39
120
149
164
196
203
287
279
205
118
30
118
147
166
193
201
287
269
188
101
17
108
133
144
177
197
282
261
181
97
11
104
132
147
165
176
273
249
162
84
6
104
121
147
167
184
283
252
171
93
17
112
125
161
181
195
301
259
166
68
17
115
117
162
186
193
298
248
155
55
24
114
111
165
173
176
282
229
123
23
21
106
103
167
175
185
288
215
119
27
38
107
111
180
180
187
289
223
126
25
60
126
130
190
196
213
297
223
127
28
71
127
146
201
203
245
310
228
134
45
102
153
166
209
216
270
319
237
149
66
130
163
180
219
232
303
328
243
152
66
147
194
217
273
302
406
440
379
315
252
349
400
430
458
461
519
478
337
206
79
119
135
150
181
187
275
273
175
89
12
103
136
160
184
199
295
279
199
116
44
136
170
189
215
229
327
301
218
140
65
158
179
198
222
238
342
308
225
150
74
171
183
223
241
250
359
326
229
146
94
186
190
241
272
272
375
328
233
135
102
198
197
256
274
281
388
337
241
142
136
220
223
295
301
308
416
353
261
167
178
256
261
328
331
332
434
372
278
184
216
277
286
346
350
375
459
380
288
189
231
288
297
352
361
399
465
381
280
188
243
289
298
345
348
405
447
358
270
170
240
276
286
324
331
390
415
328
235
138
206
248
258
299
305
374
385
304
209
125
199
231
242
279
289
366
367
287
192
114
192
221
237
265
279
357
348
264
186
104
188
221
233
243
240
320
292
204
114
31
116
141
162
180
184
270
251
173
81
-4
88
108
134
150
160
262
229
146
65
-17
88
81
115
131
144
246
199
105
14
-49
51
61
95
115
124
229
194
98
-8
-38
62
57
114
132
136
241
185
90
-15
-24
65
72
122
135
141
247
189
92
-13
-3
72
71
131
134
150
250
184
85
-15
12
82
80
134
141
158
251
175
79
-20
23
77
90
142
145
177
249
173
73
-21
29
85
96
140
149
193
243
166
69
-24
38
83
99
144
154
211
254
172
84
-8
62
112
123
158
170
239
259
183
86
1
80
117
133
164
169
250
254
172
81
-3
82
108
125
155
170
250
242
165
70
-12
71
101
115
134
145
237
216
135
48
-35
57
86
100
128
142
237
208
122
38
-48
45
61
85
109
124
228
199
110
31
-47
51
66
101
120
135
236
190
106
29
-47
53
55
92
110
110
213
173
84
-25
-57
44
41
100
118
118
228
176
75
-22
-38
45
53
128
148
167
292
264
190
119
153
244
259
346
357
364
479
397
253
117
86
86
51
85
80
101
194
115
18
-79
-33
23
35
91
98
134
211
136
36
-52
2
56
71
124
129
179
235
155
62
-28
35
76
94
140
151
206
251
169
78
-12
58
90
102
146
157
226
248
158
68
-15
69
103
118
152
164
247
255
166
76
-2
78
113
132
166
177
263
262
185
101
20
106
138
159
189
207
300
288
206
122
47
136
170
193
227
237
332
307
227
145
70
168
196
221
238
249
355
320
240
160
84
185
198
219
244
255
354
316
228
152
74
178
183
223
236
242
343
307
212
103
61
155
154
209
220
219
319
267
169
61
39
125
123
184
194
197
299
242
138
38
43
121
105
179
183
178
281
215
116
11
38
108
110
177
177
183
276
202
107
11
45
107
118
172
177
208
285
198
108
14
58
105
124
170
179
223
280
200
105
13
70
114
125
175
183
233
277
189
101
17
82
125
141
178
184
257
274
191
103
20
90
128
144
172
183
259
273
192
100
14
93
125
133
164
171
259
247
170
83
-1
81
110
129
150
162
251
237
152
68
-15
75
106
127
149
159
253
222
137
53
-25
59
93
115
127
143
241
210
127
46
-37
56
68
88
117
123
222
184
95
15
-59
38
55
94
110
116
223
182
92
1
-52
48
55
103
124
127
233
185
88
-10
-30
62
53
113
124
128
229
176
76
-25
-22
61
61
127
134
136
244
182
87
-12
7
79
78
146
154
168
265
197
100
6
46
108
118
177
174
200
275
202
106
8
55
107
117
172
172
208
268
190
94
6
63
105
123
161
173
225
276
194
101
14
75
120
124
165
180
243
274
194
102
16
88
122
143
178
182
255
270
188
96
18
102
133
147
189
196
279
288
197
104
28
114
144
158
189
199
284
273
195
110
25
114
142
166
207
231
346
348
290
227
177
297
343
374
415
445
551
530
431
308
173
199
161
151
148
154
257
222
136
56
-13
90
96
133
161
180
288
250
164
74
18
121
124
171
192
199
306
261
163
64
39
136
135
198
206
211
324
265
168
70
68
151
149
221
227
227
328
271
165
71
76
149
151
219
223
234
338
261
162
64
100
160
159
217
221
242
324
251
153
58
101
153
164
216
223
263
326
245
155
63
125
166
178
225
234
284
327
246
152
69
136
176
196
239
247
309
339
261
168
82
163
197
213
245
257
334
346
267
175
89
169
205
214
242
258
334
331
244
149
67
148
169
181
205
214
297
275
195
109
28
112
139
145
173
174
267
248
165
79
-2
83
113
127
157
177
269
240
156
78
-1
100
116
144
167
180
284
249
164
84
10
109
114
149
170
185
288
253
158
66
10
110
117
162
182
185
295
247
152
54
15
115
114
172
183
187
289
234
138
39
33
118
120
184
187
188
294
239
136
35
52
123
124
188
188
193
294
227
128
31
60
126
130
192
192
211
299
219
121
33
74
128
138
186
184
229
296
218
121
32
90
137
147
198
199
253
301
219
130
41
102
148
163
203
215
283
313
223
137
48
123
160
176
214
225
290
308
226
138
55
132
164
178
212
225
309
296
216
131
49
137
164
178
202
213
297
290
206
121
40
127
153
174
196
204
296
272
198
113
34
122
148
168
186
199
300
268
189
103
27
124
145
167
190
206
300
268
179
106
27
120
136
167
187
205
304
269
180
87
29
126
137
181
201
199
304
250
158
53
20
118
115
172
183
182
294
240
144
45
32
123
118
182
187
189
299
238
136
40
50
120
126
190
198
198
299
223
126
30
59
123
128
193
198
213
297
224
130
32
80
134
143
191
197
236
301
220
127
33
99
143
157
195
207
262
305
226
132
44
107
148
154
189
196
255
285
194
105
12
74
107
122
154
154
228
243
158
67
-17
63
99
124
172
196
290
324
257
201
148
257
305
336
385
411
508
499
400
265
132
156
136
112
117
136
228
204
122
43
-36
59
90
113
137
156
259
235
147
65
-9
89
116
138
166
173
275
244
160
77
-1
96
106
136
159
168
277
239
154
63
2
109
118
168
189
189
302
244
163
56
21
115
118
177
189
194
302
252
151
53
53
128
124
188
192
199
302
239
144
41
53
127
130
201
206
211
314
254
156
60
91
156
165
220
231
250
343
264
170
79
124
178
208
249
250
294
366
289
194
103
156
205
219
264
268
322
374
291
194
106
172
213
226
265
271
334
359
282
192
99
156
196
205
242
247
325
329
233
142
57
131
169
183
211
221
300
290
214
119
36
117
147
166
194
205
287
280
194
110
36
121
152
166
189
204
299
281
201
114
34
121
157
187
196
207
307
279
197
111
38
133
155
180
200
210
309
278
195
115
35
133
152
186
200
216
325
284
199
105
46
150
154
199
227
234
346
295
207
101
70
166
167
222
236
239
346
290
190
87
79
168
163
231
232
235
345
286
186
89
95
172
174
241
244
250
349
282
183
87
118
177
182
244
246
266
353
277
185
90
132
185
193
245
248
285
356
277
180
84
132
180
198
237
242
299
345
258
170
83
145
191
204
241
257
321
353
265
174
88
161
207
216
254
262
340
351
267
179
97
174
207
222
254
259
352
348
269
179
101
182
210
230
266
272
354
350
267
179
101
190
217
235
259
274
367
346
264
179
103
192
218
238
259
272
364
343
256
175
97
187
209
230
248
260
359
329
235
162
80
176
184
213
241
242
349
307
218
128
66
167
166
211
234
242
348
305
217
109
75
173
180
238
247
239
354
306
204
95
90
174
173
237
245
244
348
294
187
86
96
166
174
236
240
244
346
276
176
92
109
171
180
238
244
262
340
270
180
77
123
179
185
235
240
271
340
261
167
75
118
174
188
224
231
282
333
247
153
63
125
166
178
221
230
288
323
235
148
54
123
161
179
223
242
335
371
313
252
190
295
361
385
437
460
561
564
480
348
231
259
234
192
188
192
274
270
187
97
16
105
143
166
182
195
291
279
207
128
54
143
177
198
224
233
331
302
221
135
63
156
181
202
226
240
340
308
227
144
72
169
177
209
233
247
349
312
227
140
77
174
180
225
242
250
357
317
226
120
87
186
184
240
255
266
368
314
216
119
109
198
205
271
276
284
389
326
229
135
147
222
228
290
293
302
412
347
254
159
187
254
262
325
328
337
435
362
264
172
220
275
283
340
347
375
451
370
273
182
236
284
300
343
342
396
445
358
262
172
229
267
280
320
320
380
411
322
226
136
205
240
250
288
293
361
384
288
196
114
185
219
232
272
272
352
353
270
175
92
174
210
225
257
266
351
342
265
176
94
176
210
231
258
272
362
344
263
179
104
198
218
236
268
286
380
346
266
185
105
198
229
248
268
282
379
348
265
187
111
201
221
247
277
284
398
362
270
187
123
223
228
271
297
301
413
364
277
170
131
228
230
280
295
301
406
355
261
163
143
234
230
291
299
304
408
353
249
153
154
233
239
295
303
304
413
350
252
155
183
249
252
313
317
331
421
344
249
152
191
244
248
300
311
334
407
324
228
132
185
233
245
292
298
343
398
319
223
131
189
230
244
284
294
352
387
305
205
122
191
228
240
277
283
351
369
286
197
99
181
217
231
257
265
346
347
266
174
90
167
204
220
249
258
343
333
251
161
79
160
186
205
231
239
332
311
226
137
56
148
175
197
224
235
335
314
230
148
75
162
185
205
228
241
331
304
213
134
58
154
166
196
214
223
325
286
202
117
44
145
146
194
213
214
319
269
179
75
46
139
134
192
206
206
316
260
162
60
44
134
129
188
194
196
305
248
144
48
56
128
132
195
195
195
305
235
132
43
64
126
132
193
196
201
296
223
124
28
67
125
147
205
228
285
381
328
257
194
269
336
363
413
428
475
515
393
253
113
116
117
102
136
142
205
244
151
54
-35
39
76
93
135
144
216
235
156
71
-15
64
100
115
156
164
240
247
162
72
-3
75
101
118
150
160
249
236
154
66
-10
65
97
112
139
155
246
222
136
53
-23
67
93
111
133
145
240
218
131
50
-29
62
90
113
134
147
249
216
132
56
-25
77
86
118
140
157
258
220
136
65
-12
90
94
140
164
173
283
242
151
49
14
108
108
163
181
190
299
246
149
49
35
128
123
179
193
195
304
246
146
41
49
125
122
189
192
194
295
227
127
26
42
101
104
165
167
171
262
184
82
-17
15
73
78
129
128
160
232
146
57
-43
2
50
60
107
117
158
220
130
36
-54
-3
51
63
102
112
162
203
115
28
-65
3
53
60
94
106
168
187
107
13
-71
4
44
59
97
106
183
185
104
16
-64
16
48
67
95
109
193
184
111
19
-60
26
59
70
104
113
203
183
101
21
-60
29
56
77
102
113
208
183
98
16
-57
31
60
81
105
114
214
180
95
11
-68
33
43
80
96
106
208
173
87
5
-63
30
33
76
102
96
205
169
75
-32
-73
30
30
81
99
101
206
156
63
-39
-67
31
27
93
96
98
213
157
58
-48
-45
34
33
107
109
112
216
151
50
-42
-23
42
48
107
118
128
222
148
50
-45
-9
50
54
109
112
144
219
139
46
-47
8
61
68
113
114
159
221
144
53
-42
12
63
78
120
121
174
222
140
47
-41
30
67
83
122
132
198
222
143
50
-33
43
80
97
125
133
216
223
149
56
-29
53
91
107
139
147
229
229
143
56
-16
63
92
114
137
151
237
224
138
52
-27
60
85
101
130
140
237
215
127
45
-35
59
84
105
130
143
242
211
127
51
-29
64
86
111
135
144
251
218
126
50
-28
75
83
126
143
154
262
221
125
24
-25
77
80
126
147
149
256
207
116
10
-10
81
75
144
157
172
278
246
168
93
112
225
247
331
352
370
491
433
344
237
218
247
198
198
152
123
211
140
43
-59
-27
36
45
99
109
137
218
135
51
-42
10
62
79
123
132
173
233
148
55
-37
17
64
77
119
122
183
230
148
63
-29
37
82
89
135
141
196
224
146
59
-26
41
80
92
126
133
211
219
135
46
-39
43
72
90
119
124
208
204
116
29
-46
35
66
82
114
128
217
207
129
50
-38
54
86
109
138
145
244
222
147
62
-12
83
111
132
158
175
267
238
152
77
-1
95
117
148
167
179
285
255
169
93
22
118
125
161
178
187
297
255
161
60
3
106
106
147
165
162
258
204
109
-2
-31
61
61
116
122
126
228
167
67
-37
-41
38
34
101
109
108
214
141
39
-56
-39
30
32
95
88
96
195
124
21
-80
-50
14
21
74
76
87
176
100
1
-88
-47
4
17
70
73
112
170
85
-1
-95
-36
9
19
66
72
128
178
88
-5
-90
-27
18
34
73
81
145
183
96
9
-76
-1
39
57
94
102
179
188
106
19
-63
14
52
70
100
110
189
184
105
15
-64
20
58
74
99
110
200
188
106
18
-63
25
58
82
105
103
199
179
92
10
-69
28
58
76
103
113
214
184
103
25
-51
43
69
88
117
126
225
196
107
30
-45
55
59
94
114
122
225
185
96
-7
-56
43
47
95
114
122
234
187
90
-17
-46
46
46
103
114
117
221
173
69
-31
-35
45
44
111
115
115
226
168
65
-32
-17
48
52
117
118
118
228
153
51
-48
-14
38
44
99
102
124
208
132
37
-62
-14
41
51
105
117
155
218
140
40
-49
8
58
74
122
125
172
223
140
50
-40
24
65
83
118
126
187
217
138
51
-41
34
73
87
124
137
209
228
149
60
-27
58
93
106
137
146
220
219
137
56
-32
52
89
103
122
137
223
208
129
42
-38
50
80
101
128
136
230
213
128
53
-25
67
97
115
142
153
252
226
144
65
-16
82
98
116
146
153
259
227
136
54
-12
85
98
131
154
169
277
233
148
56
-4
98
97
142
164
168
271
221
130
32
10
120
135
215
251
279
409
374
296
218
218
330
339
407
403
370
424
302
144
6
-6
60
58
121
124
123
228
159
72
-35
-10
62
73
135
137
159
245
164
80
-23
19
71
81
131
140
171
233
157
69
-21
30
80
92
138
150
190
239
155
59
-27
37
78
91
127
138
201
231
150
56
-31
34
77
93
127
138
215
224
142
52
-26
55
91
103
132
154
233
237
158
69
-7
79
119
133
166
179
267
260
177
91
8
92
110
113
144
160
260
238
151
68
-7
84
112
132
162
170
267
244
167
81
1
98
131
152
179
186
287
251
165
85
5
108
116
151
172
180
276
238
150
52
-15
86
75
120
139
143
252
207
111
1
-33
59
55
109
117
103
213
156
59
-51
-58
31
23
89
93
94
198
134
32
-68
-61
12
13
79
85
90
193
127
33
-65
-40
28
35
95
95
117
207
128
30
-60
-17
42
47
105
103
142
213
137
40
-56
3
50
64
111
119
172
223
141
49
-34
24
72
85
119
127
186
222
141
48
-38
35
78
96
124
138
218
217
138
48
-39
43
78
97
131
142
218
228
147
59
-22
61
93
108
135
148
230
221
147
59
-18
71
100
119
145
161
258
241
159
78
-1
92
118
140
162
173
269
239
157
73
-4
90
111
128
160
171
266
236
154
77
1
101
110
139
164
183
277
234
147
62
-2
105
103
153
175
179
285
243
157
46
11
109
112
165
178
178
279
220
126
33
23
100
107
169
172
176
280
224
118
15
28
99
102
161
164
172
273
205
104
5
32
99
103
154
163
178
267
196
100
4
46
100
105
155
160
197
268
189
99
3
55
97
112
161
162
212
265
184
89
3
73
109
118
160
171
228
261
175
88
2
77
123
133
171
180
255
270
184
99
15
88
125
143
172
176
262
260
176
88
11
93
133
145
175
180
262
257
169
82
6
96
128
148
169
180
269
248
165
79
0
91
123
143
160
175
272
248
166
84
4
105
122
154
174
181
283
244
161
84
6
105
116
148
171
185
288
252
168
80
16
110
116
160
187
189
303
273
190
91
87
213
240
327
365
393
517
488
406
314
312
390
352
375
324
265
323
233
120
25
33
110
107
170
180
187
295
229
137
43
79
147
147
209
221
241
329
262
159
72
118
172
177
230
235
271
338
263
169
81
130
182
188
236
248
291
344
264
172
83
148
191
202
249
250
314
354
264
177
93
164
200
220
261
263
332
356
272
182
99
175
214
231
266
278
363
365
288
198
111
206
231
252
283
290
387
377
298
211
135
224
251
273
300
307
396
393
306
222
141
234
266
290
304
317
421
392
309
219
143
240
261
279
301
320
420
390
302
219
142
233
246
276
290
300
401
358
273
179
112
217
202
243
265
270
374
330
235
122
83
180
184
227
239
237
344
294
189
87
69
160
156
219
226
229
332
276
180
80
82
159
161
225
222
233
335
272
173
73
100
162
174
230
232
254
343
267
171
77
115
170
178
232
234
264
329
256
162
67
120
171
183
228
235
279
337
259
159
63
121
172
185
219
231
292
335
252
157
58
134
169
182
225
193
127
-40
-300
-547
-775
-826
-908
-1004
-1065
-1149
-1158
-1238
-1398
-1552
-1690
-1680
-1712
-1757
-1781
-1831
-1803
-1856
-1962
-2004
-1973
-1970
-1973
-1972
-1981
-1988
-2012
-2028
-2022
-2003
-1971
-1970
-1970
-1971
-1983
-1989
-2013
-2030
-2024
-2000
-1968
-1969
-1971
-1973
-1981
-1990
-2015
-2028
-2021
-1999
-1968
-1970
-1969
-1975
-1982
-1991
-2018
-2030
-2020
-1998
-1966
-1970
-1969
-1974
-1985
-1990
-1966
-1987
-2019
-1994
-1967
-1971
-1969
-1904
-1871
-1842
-1734
-1754
-1825
-1886
-1882
-1798
-1781
-1718
-1696
-1692
-1595
-1679
-1792
-1891
-1890
-1829
-1826
-1778
-1790
-1817
-1760
-1857
-1994
-1986
-1969
-1972
-1971
-1901
-1866
-1825
-1728
-1777
-1870
-1985
-1968
-1972
-1970
-1981
-1987
-1997
-2026
-2026
-2012
-1983
-1969
-1972
-1972
-1981
-1988
-2000
-2027
-2028
-2010
-1979
-1968
-1970
-1972
-1980
-1989
-2002
-2028
-2025
-2007
-1978
-1969
-1971
-1971
-1982
-1988
-2003
-2027
-2024
-2006
-1977
-1969
-1969
-1972
-1982
-1988
-2008
-2027
-2024
-2005
-1973
-1970
-1973
-1972
-1982
-1990
-2009
-2028
-2022
-2004
-1974
-1970
-1973
-1973
-1984
-1988
-2011
-2030
-2023
-2003
-1972
-1971
-1973
-1974
-1983
-1988
-2013
-2029
-2022
-2001
-1971
-1970
-1972
-1975
-1985
-1989
-2015
-2029
-2023
-2001
-1966
-1971
-1972
-1976
-1983
-1992
-2016
-2031
-2021
-1998
-1967
-1970
-1970
-1976
-1985
-1992
-2020
-2031
-2018
-1993
-1966
-1970
-1970
-1977
-1985
-1992
-2021
-2030
-2017
-1991
-1966
-1970
-1968
-1980
-1986
-1993
-2022
-2030
-2015
-1987
-1968
-1971
-1970
-1981
-1986
-1992
-2023
-2030
-2014
-1986
-1967
-1971
-1970
-1980
-1987
-1994
-2025
-2027
-2011
-1984
-1968
-1971
-1971
-1981
-1987
-1997
-2026
-2027
-2010
-1982
-1967
-1973
-1970
-1980
-1988
-1999
-2027
-2026
-2010
-1979
-1967
-1971
-1972
-1982
-1988
-2001
-2027
-2026
-2008
-1978
-1969
-1972
-1973
-1981
-1989
-2005
-2027
-2026
-2007
-1976
-1968
-1969
-1973
-1985
-1989
-2008
-2029
-2025
-2006
-1975
-1970
-1973
-1974
-1983
-1990
-2009
-2027
-2025
-2005
-1974
-1969
-1973
-1973
-1982
-1989
-2011
-2028
-2022
-2003
-1972
-1971
-1971
-1974
-1984
-1990
-2013
-2029
-2022
-2002
-1971
-1972
-1973
-1975
-1983
-1989
-2015
-2030
-2021
-2000
-1969
-1971
-1971
-1975
-1985
-1989
-2016
-2030
-2021
-1999
-1967
-1971
-1969
-1975
-1986
-1991
-2019
-2030
-2019
-1994
-1966
-1970
-1969
-1978
-1985
-1992
-2020
-2030
-2018
-1992
-1967
-1971
-1970
-1978
-1985
-1991
-2021
-2030
-2016
-1989
-1967
-1970
-1970
-1980
-1987
-1993
-2023
-2029
-2014
-1985
-1967
-1971
-1972
-1982
-1986
-1993
-2024
-2028
-2013
-1985
-1968
-1972
-1970
-1980
-1987
-1994
-2026
-2027
-2011
-1982
-1969
-1971
-1971
-1980
-1987
-1999
-2027
-2025
-2010
-1980
-1967
-1972
-1972
-1981
-1988
-2002
-2028
-2025
-2008
-1978
-1968
-1970
-1972
-1982
-1987
-2004
-2027
-2025
-2006
-1977
-1968
-1973
-1972
-1981
-1989
-2008
-2027
-2024
-2006
-1975
-1970
-1973
-1973
-1982
-1988
-2009
-2027
-2025
-2005
-1974
-1971
-1973
-1974
-1982
-1990
-2011
-2029
-2024
-2003
-1972
-1968
-1973
-1975
-1983
-1989
-2014
-2029
-2021
-2003
-1969
-1971
-1973
-1975
-1984
-1991
-2015
-2030
-2022
-2002
-1969
-1971
-1972
-1976
-1984
-1991
-2017
-2031
-2021
-2000
-1968
-1971
-1971
-1976
-1985
-1993
-2021
-2031
-2021
-1996
-1966
-1972
-1968
-1977
-1986
-1993
-2022
-2031
-2020
-1993
-1967
-1972
-1970
-1979
-1986
-1994
-2024
-2031
-2018
-1991
-1967
-1970
-1970
-1980
-1987
-1993
-2024
-2030
-2015
-1989
-1969
-1972
-1970
-1980
-1989
-1995
-2026
-2030
-2014
-1985
-1969
-1973
-1971
-1981
-1988
-1998
-2028
-2029
-2013
-1983
-1969
-1973
-1970
-1984
-1990
-2001
-2029
-2028
-2012
-1983
-1970
-1973
-1974
-1982
-1988
-2004
-2028
-2029
-2011
-1982
-1972
-1973
-1975
-1983
-1990
-2006
-2030
-2026
-2008
-1980
-1972
-1974
-1975
-1983
-1992
-2008
-2030
-2028
-2008
-1978
-1971
-1974
-1974
-1985
-1991
-2012
-2029
-2025
-2006
-1977
-1972
-1974
-1974
-1988
-1992
-2013
-2031
-2026
-2006
-1975
-1972
-1976
-1977
-1986
-1994
-2017
-2031
-2027
-2006
-1973
-1975
-1977
-1976
-1986
-1994
-2019
-2035
-2026
-2005
-1974
-1975
-1976
-1977
-1989
-1995
-2020
-2034
-2026
-2004
-1973
-1975
-1976
-1980
-1989
-1996
-2023
-2034
-2025
-2000
-1971
-1974
-1974
-1981
-1991
-1996
-2025
-2035
-2023
-1996
-1970
-1977
-1975
-1981
-1991
-1997
-2027
-2035
-2021
-1994
-1971
-1975
-1974
-1984
-1990
-1996
-2029
-2032
-2021
-1992
-1973
-1976
-1974
-1986
-1991
-1998
-2030
-2033
-2017
-1991
-1972
-1977
-1976
-1986
-1992
-2000
-2031
-2033
-2015
-1989
-1974
-1977
-1976
-1987
-1991
-2003
-2031
-2032
-2016
-1985
-1973
-1977
-1977
-1985
-1992
-2005
-2031
-2031
-2014
-1984
-1974
-1975
-1978
-1987
-1992
-2007
-2033
-2030
-2013
-1982
-1974
-1976
-1978
-1987
-1992
-2012
-2033
-2029
-2012
-1981
-1976
-1976
-1980
-1988
-1994
-2013
-2033
-2030
-2009
-1981
-1976
-1979
-1980
-1989
-1996
-2017
-2035
-2030
-2010
-1978
-1976
-1980
-1980
-1990
-1995
-2019
-2036
-2029
-2009
-1977
-1975
-1979
-1979
-1989
-1997
-2021
-2036
-2029
-2008
-1975
-1978
-1980
-1982
-1990
-1998
-2022
-2037
-2028
-2008
-1975
-1978
-1978
-1983
-1991
-1997
-2025
-2036
-2027
-2004
-1975
-1977
-1976
-1982
-1992
-1999
-2026
-2039
-2026
-2000
-1973
-1979
-1977
-1984
-1992
-1998
-2029
-2036
-2023
-1997
-1974
-1979
-1977
-1986
-1993
-1998
-2030
-2037
-2022
-1995
-1974
-1978
-1976
-1987
-1992
-1999
-2032
-2035
-2021
-1993
-1975
-1978
-1976
-1989
-1993
-2003
-2032
-2036
-2019
-1990
-1975
-1980
-1978
-1988
-1995
-2005
-2034
-2035
-2017
-1989
-1976
-1979
-1978
-1988
-1995
-2008
-2035
-2034
-2016
-1988
-1976
-1980
-1979
-1989
-1995
-2009
-2036
-2033
-2016
-1986
-1977
-1980
-1979
-1989
-1996
-2012
-2036
-2032
-2013
-1983
-1978
-1980
-1981
-1989
-1996
-2014
-2035
-2032
-2013
-1983
-1978
-1980
-1980
-1989
-1996
-2016
-2034
-2030
-2011
-1980
-1977
-1978
-1983
-1991
-1997
-2019
-2036
-2030
-2008
-1980
-1978
-1981
-1982
-1992
-1997
-2022
-2037
-2030
-2008
-1977
-1979
-1981
-1982
-1991
-1998
-2024
-2037
-2029
-2006
-1978
-1979
-1980
-1984
-1992
-1997
-2027
-2037
-2028
-2005
-1975
-1981
-1979
-1984
-1993
-2000
-2028
-2038
-2027
-2003
-1975
-1979
-1979
-1988
-1993
-1999
-2030
-2037
-2025
-1999
-1975
-1978
-1979
-1988
-1995
-2000
-2032
-2037
-2025
-1996
-1978
-1981
-1980
-1990
-1997
-2002
-2031
-2037
-2024
-1995
-1979
-1982
-1981
-1990
-1996
-2005
-2031
-2039
-2022
-1994
-1979
-1982
-1983
-1991
-1998
-2007
-2036
-2037
-2021
-1992
-1978
-1982
-1982
-1992
-1999
-2010
-2036
-2036
-2019
-1992
-1978
-1984
-1985
-1992
-2000
-2013
-2039
-2036
-2019
-1989
-1982
-1984
-1983
-1995
-2001
-2016
-2039
-2036
-2017
-1988
-1982
-1985
-1985
-1995
-2001
-2020
-2040
-2035
-2017
-1987
-1983
-1986
-1985
-1996
-2002
-1945
-1932
-1987
-2017
-1987
-1983
-1960
-1935
-1899
-1880
-1794
-1793
-1845
-1899
-1939
-1850
-1816
-1790
-1753
-1731
-1627
-1634
-1692
-1753
-1807
-1711
-1678
-1649
-1614
-1585
-1486
-1496
-1559
-1620
-1669
-1578
-1543
-1507
-1476
-1455
-1347
-1367
-1438
-1498
-1552
-1448
-1430
-1390
-1360
-1340
-1228
-1258
-1339
-1424
-1459
-1357
-1346
-1296
-1270
-1259
-1151
-1192
-1279
-1363
-1371
-1282
-1276
-1209
-1195
-1185
-1066
-1113
-1205
-1294
-1282
-1203
-1197
-1125
-1115
-1109
-1003
-1052
-1135
-1222
-1200
-1132
-1110
-1045
-1032
-1014
-904
-962
-1057
-1130
-1096
-1029
-1022
-957
-949
-907
-816
-886
-981
-1062
-1003
-948
-930
-876
-863
-817
-736
-807
-888
-979
-918
-863
-839
-788
-773
-713
-665
-736
-823
-908
-831
-793
-766
-723
-708
-628
-595
-673
-760
-842
-759
-715
-692
-652
-639
-559
-538
-621
-699
-774
-687
-657
-629
-591
-582
-503
-498
-569
-642
-719
-632
-596
-578
-542
-521
-433
-436
-509
-592
-664
-572
-534
-513
-482
-472
-379
-386
-461
-538
-607
-516
-481
-468
-439
-417
-312
-348
-427
-497
-247
-111
-58
-25
-9
-2
42
11
-26
-43
-52
4
2
21
20
17
51
23
-23
-58
-46
9
1
26
26
19
135
90
7
-91
-113
-15
-20
53
75
95
185
121
41
-45
-38
48
59
138
152
163
282
233
143
47
68
155
165
224
239
262
372
305
238
155
185
261
267
333
348
367
461
396
302
210
266
338
355
421
436
475
546
479
386
303
374
421
440
490
507
569
625
547
464
388
458
502
523
557
582
654
694
613
527
456
540
588
597
637
656
738
753
676
605
531
599
646
672
709
710
803
803
730
658
581
669
708
727
763
776
875
872
795
714
645
732
764
795
829
843
932
924
850
768
698
790
821
840
868
896
1009
998
936
874
831
957
1002
1058
1103
1134
1256
1254
1185
1126
1041
1119
1090
1069
1035
1004
1063
1017
948
871
814
894
906
953
989
1000
1110
1087
1000
903
892
990
1000
1069
1080
1083
1203
1133
1047
961
960
1052
1058
1127
1132
1145
1253
1194
1104
1013
1030
1107
1112
1176
1181
1196
1293
1229
1139
1048
1075
1141
1153
1214
1222
1239
1332
1266
1171
1088
1137
1197
1213
1264
1273
1312
1385
1305
1222
1135
1202
1255
1266
1318
1326
1377
1433
1351
1265
1187
1260
1307
1326
1361
1369
1433
1472
1399
1317
1243
1316
1357
1372
1416
1427
1502
1519
1448
1367
1288
1365
1409
1435
1473
1475
1547
1555
1484
1416
1341
1424
1453
1479
1503
1502
1592
1587
1524
1442
1343
1431
1464
1483
1509
1523
1610
1585
1508
1433
1366
1446
1469
1487
1508
1515
1610
1582
1499
1427
1344
1441
1459
1489
1513
1527
1629
1589
1511
1438
1370
1463
1485
1514
1529
1538
1636
1607
1532
1455
1399
1491
1495
1538
1555
1569
1660
1628
1540
1437
1408
1527
1525
1577
1579
1578
1679
1629
1541
1454
1439
1520
1519
1583
1583
1589
1694
1645
1553
1457
1458
1532
1545
1610
1613
1619
1720
1655
1565
1469
1497
1561
1577
1629
1638
1655
1734
1666
1578
1494
1533
1583
1595
1644
1648
1683
1748
1682
1590
1508
1565
1600
1610
1654
1666
1710
1763
1693
1605
1517
1577
1623
1631
1683
1691
1744
1779
1703
1628
1557
1622
1653
1664
1698
1696
1764
1784
1713
1632
1563
1625
1662
1670
1700
1715
1775
1781
1711
1643
1569
1645
1678
1683
1717
1720
1795
1794
1724
1656
1586
1673
1693
1699
1726
766
485
295
153
68
19
53
42
35
24
20
61
29
-12
-40
-49
8
14
22
22
15
51
18
-20
-39
-52
5
20
52
84
91
202
173
84
13
-52
57
69
112
134
144
264
234
151
64
23
120
124
173
199
204
321
272
184
88
76
160
163
233
246
256
361
310
220
138
136
213
218
293
298
306
411
350
253
160
186
256
268
326
333
343
441
367
276
187
228
288
294
343
351
385
463
390
297
209
258
306
321
377
387
427
491
410
311
221
299
340
350
397
400
449
497
425
337
247
310
355
369
410
431
496
524
446
345
257
329
370
388
423
432
514
537
463
378
294
371
400
414
456
477
575
581
541
475
423
531
598
644
692
724
828
822
763
672
575
616
590
558
527
499
586
566
482
402
332
426
459
489
512
521
629
609
537
461
385
487
510
538
555
575
675
652
566
491
420
533
531
570
605
614
721
680
596
500
448
551
555
602
616
622
729
686
597
503
476
571
577
649
647
661
762
708
615
519
518
598
600
673
685
694
792
738
643
547
570
643
654
707
715
727
827
755
664
567
611
671
685
738
746
772
866
788
705
617
661
722
733
787
795
834
906
830
741
652
713
742
754
800
807
861
909
830
734
650
724
756
778
814
817
894
916
836
743
649
702
734
741
782
787
869
880
794
707
617
685
721
726
758
765
844
847
766
676
591
671
703
727
746
757
842
830
756
673
605
694
711
735
757
764
854
836
756
672
604
692
712
738
768
782
877
848
757
677
600
691
709
741
764
770
864
827
748
672
584
683
692
725
748
757
860
828
746
646
591
685
694
735
767
766
872
829
735
637
608
706
704
767
775
780
889
837
738
638
640
725
724
782
792
803
910
844
747
655
670
745
746
812
815
822
931
860
765
665
697
752
764
822
827
852
939
859
765
294
195
139
93
78
53
52
57
4
-33
-62
-9
14
14
26
21
40
40
-7
-41
-61
-7
13
33
72
75
141
170
91
11
-80
-14
28
56
94
107
177
190
108
24
-64
16
47
73
100
108
191
189
122
30
-49
31
53
66
113
147
218
208
135
46
-38
51
80
97
123
140
229
212
143
48
-32
64
89
107
133
152
241
218
133
49
-24
77
92
122
156
162
262
243
155
83
16
117
127
158
178
180
289
258
173
80
25
130
134
189
212
218
327
280
194
94
61
155
150
215
212
232
355
310
202
102
115
182
182
226
230
251
363
309
202
111
129
193
198
269
275
270
377
312
212
115
145
213
223
274
274
299
385
317
225
135
177
233
244
297
308
339
408
335
243
141
215
262
270
309
320
375
419
348
255
166
227
269
282
321
344
410
455
393
329
277
377
440
481
528
560
642
677
603
515
407
442
422
379
353
316
381
388
304
213
128
206
246
259
289
299
388
390
320
234
158
247
285
295
317
333
421
401
322
228
170
256
283
303
326
340
437
407
332
247
175
274
295
312
336
347
455
421
332
267
186
281
295
333
354
363
468
433
350
274
214
312
313
359
376
391
497
457
362
264
237
337
334
393
419
422
521
471
377
276
270
361
365
429
438
450
551
494
401
309
321
400
402
470
477
492
588
514
433
350
370
437
445
499
504
527
614
543
443
351
398
445
454
506
511
535
593
516
428
333
387
421
429
473
476
520
567
482
388
289
344
387
398
440
447
505
527
449
365
269
345
372
385
420
429
505
522
436
350
264
343
376
391
423
434
524
516
439
349
274
351
396
411
447
454
534
529
444
358
283
372
401
412
441
458
530
530
442
364
279
369
418
441
453
464
559
539
457
378
306
394
417
440
460
471
567
532
455
377
290
396
407
445
467
485
581
543
455
360
302
399
399
443
468
475
579
530
442
354
311
396
401
450
475
486
595
540
439
337
326
415
411
474
479
479
580
525
426
330
326
401
410
467
477
474
577
523
426
330
354
420
424
484
492
509
591
521
424
334
383
437
450
502
506
541
608
532
432
335
386
445
457
504
509
547
612
537
441
356
412
452
469
514
526
583
621
539
448
358
417
458
470
502
504
574
590
503
415
329
410
450
465
498
502
578
591
511
418
339
422
459
463
477
505
584
568
487
399
320
403
424
441
469
481
572
554
474
378
308
398
441
442
468
484
582
572
496
413
336
441
460
489
517
540
630
598
514
434
356
456
469
507
522
535
637
603
523
436
359
461
468
506
531
534
641
598
510
403
366
454
465
524
528
532
640
593
496
392
368
475
477
557
585
625
760
723
658
581
612
699
706
769
759
742
812
693
548
404
383
435
434
496
502
523
614
539
437
336
374
430
432
485
490
525
609
530
445
345
396
448
461
507
517
557
617
533
438
346
397
438
452
497
517
569
612
525
426
346
411
446
462
502
509
584
598
529
430
339
417
464
468
503
511
593
600
521
430
347
427
465
476
511
523
611
608
531
436
360
444
483
499
538
549
637
626
538
464
376
468
498
516
544
550
646
631
554
459
378
482
503
521
547
562
663
630
549
473
388
485
503
531
545
557
657
621
537
456
369
472
467
505
531
532
636
587
496
379
332
423
419
470
485
481
589
536
434
319
303
397
386
446
452
452
560
499
397
296
297
369
366
433
434
448
553
489
387
290
304
371
368
428
421
428
527
454
353
248
275
330
333
385
399
422
499
423
319
220
265
318
320
361
362
410
464
375
278
176
236
289
290
328
342
390
432
346
252
167
222
266
275
318
336
404
428
344
259
173
242
277
288
328
339
414
430
349
256
173
261
285
303
335
349
429
433
353
262
178
258
285
301
323
338
423
405
325
232
152
241
274
298
326
341
433
420
342
257
172
261
295
313
338
345
447
413
330
247
163
259
279
309
338
345
447
413
333
250
179
269
286
317
336
349
458
418
323
219
167
266
266
315
336
341
444
395
302
203
177
269
268
329
342
344
450
399
304
201
197
288
280
346
351
363
470
404
306
207
219
299
306
365
374
386
484
411
311
211
240
303
310
365
371
400
485
410
312
218
256
320
342
395
403
450
512
439
342
237
300
348
358
404
406
463
518
433
340
263
323
367
375
417
425
485
515
435
340
253
327
366
383
426
444
538
573
506
439
381
486
544
581
637
673
771
777
701
595
462
491
472
438
424
407
498
495
418
322
234
319
354
376
409
423
521
509
441
361
279
370
415
441
462
475
578
548
473
386
310
406
432
459
482
495
604
572
484
410
335
434
451
489
512
518
635
603
511
410
355
456
458
505
531
538
653
613
511
414
371
470
475
534
543
553
663
611
512
406
394
487
487
553
556
564
674
622
525
423
429
504
511
584
586
593
704
642
541
444
471
540
548
604
612
641
725
654
559
462
503
562
578
627
628
672
728
657
565
466
517
565
578
629
640
688
739
659
557
458
515
552
563
599
607
671
708
622
527
425
485
527
531
568
579
654
662
573
483
397
463
494
509
547
556
631
638
559
465
383
462
493
508
538
555
645
633
555
460
371
458
489
512
541
550
643
624
541
456
372
466
492
516
543
558
656
627
549
465
381
473
498
524
541
550
653
624
537
455
372
472
480
515
541
540
644
603
514
422
350
443
450
490
510
514
621
572
475
368
324
426
429
485
500
510
617
561
461
365
342
437
430
500
506
511
620
565
464
363
367
448
450
516
520
523
635
568
472
362
398
450
457
519
531
545
640
568
473
376
411
465
475
529
532
564
643
560
463
371
422
479
494
537
544
594
649
564
465
369
428
477
499
540
551
612
654
568
471
381
442
491
505
541
553
636
661
580
482
390
468
515
529
565
569
651
652
566
471
383
466
501
523
553
560
649
644
563
466
384
479
500
518
546
557
655
647
566
475
394
487
518
535
558
572
667
650
563
474
399
489
517
538
556
569
674
644
553
469
395
493
510
536
556
572
682
644
552
474
395
492
500
548
570
568
676
640
545
445
420
535
558
638
682
701
841
809
720
632
626
726
735
788
770
730
781
672
510
361
356
434
442
507
510
517
622
564
467
369
389
459
459
521
527
539
624
549
439
336
371
427
430
489
492
524
602
532
436
328
370
431
443
493
500
546
605
521
420
333
396
435
453
496
508
566
608
523
420
327
397
441
448
496
502
581
599
524
434
345
417
456
472
518
529
607
630
542
454
365
449
487
504
545
554
642
647
557
466
383
470
497
525
561
569
656
647
566
474
392
483
512
530
558
576
673
653
574
489
409
505
533
555
572
589
690
661
580
493
413
499
511
543
565
565
671
632
540
455
378
475
480
514
536
543
647
603
511
399
352
454
445
500
515
515
621
564
464
362
332
422
422
489
501
505
611
557
448
348
347
430
429
497
498
506
614
548
444
343
360
428
442
504
510
522
620
554
456
356
384
450
457
518
518
552
619
546
445
350
393
448
459
513
522
568
623
541
452
355
409
453
470
507
520
579
622
533
444
349
419
459
482
520
532
603
633
548
454
371
446
487
505
541
546
628
639
557
464
377
452
489
501
535
551
631
626
543
456
365
461
486
506
536
555
645
628
541
453
373
464
496
509
542
558
657
631
545
460
382
466
503
524
551
563
665
637
552
473
401
493
511
542
563
572
683
646
560
485
398
491
500
543
574
574
684
644
550
442
391
494
498
550
572
582
689
638
543
439
421
511
510
573
583
582
686
644
535
426
420
504
506
576
571
574
678
617
512
414
431
502
506
566
568
581
685
607
507
407
444
503
513
568
567
601
676
595
498
403
448
499
512
562
569
619
676
591
498
408
461
504
517
564
574
636
681
591
498
407
466
506
526
567
574
642
667
579
487
398
479
523
559
605
639
746
787
731
662
606
704
764
803
843
862
956
925
794
648
511
531
525
525
560
576
667
649
563
476
400
481
521
538
568
588
687
669
592
503
425
528
549
569
600
613
712
686
601
521
442
540
560
584
611
630
736
704
616
533
457
552
559
594
621
632
742
704
615
511
460
567
568
620
642
650
757
713
613
506
478
578
578
637
653
658
767
719
604
506
495
582
579
648
647
661
774
703
603
504
517
589
604
667
674
681
787
718
619
522
546
614
624
681
684
711
796
726
619
525
568
625
630
685
684
722
787
709
614
513
568
615
626
668
675
731
770
683
581
488
544
582
591
628
630
694
713
626
527
431
497
531
546
576
589
664
669
584
496
402
477
512
525
561
566
647
645
558
464
382
468
502
513
546
558
646
632
551
465
377
463
492
510
545
543
639
625
537
453
371
465
494
520
541
549
652
629
540
456
375
475
498
521
542
558
658
622
532
451
369
464
480
513
530
544
649
603
516
419
360
464
467
517
538
540
653
602
512
404
363
459
459
517
533
536
640
590
490
382
376
457
457
517
521
526
629
563
461
355
363
435
422
496
492
494
602
524
429
321
341
401
416
470
465
484
570
487
386
281
310
369
376
423
435
468
532
445
348
242
293
337
351
392
396
451
505
413
312
218
282
323
334
377
389
453
484
391
289
190
252
278
288
310
311
367
357
249
128
15
79
98
86
91
70
120
98
-25
-146
-253
-186
-175
-182
-178
-265
-307
-450
-663
-862
-1049
-1052
-1111
-1192
-1233
-1295
-1277
-1366
-1508
-1648
-1771
-1747
-1774
-1809
-1837
-1870
-1835
-1901
-2012
-2028
-1995
-1994
-1994
-1996
-2004
-2014
-2040
-30726
-30721
2063
2097
2093
2096
2092
2082
2074
-2041
-30727
2037
2061
2093
2090
2092
2087
2078
2070
2040
-30725
2043
2068
2096
2094
2096
2087
2081
2074
2042
-30726
2046
2072
2097
2094
2096
2086
2081
2074
2041
-30724
2049
2078
2100
2098
2100
2089
2083
2076
2042
-30723
2054
2082
2103
2101
2102
2092
2086
2075
2045
-30723
2057
2085
2103
2101
2102
2092
2087
2075
2043
-30721
2062
2094
2107
2104
2106
2096
2090
2077
2047
2047
2063
2094
2107
2106
2107
2096
2090
2074
2047
2048
2066
2095
2109
2106
2106
2096
2090
2072
2048
2050
2067
2099
2107
2106
2106
2097
2089
2069
2047
2050
2072
2101
2107
2107
2105
2097
2090
2068
2047
2051
2071
2104
2107
2107
2105
2097
2088
2066
2047
2052
2073
2106
2108
2106
2105
2096
2089
-2031
-30722
2034
2055
2089
2090
2089
2086
2079
2069
2043
-30721
2039
2061
2095
2093
2094
2091
2082
2075
2045
-30722
2040
2066
2097
2095
2096
2091
2083
2076
2046
2036
2042
2069
2099
2095
2098
2091
2081
2076
-2038
-30721
2048
2076
2102
2099
2102
2092
2085
2078
2046
-30721
2053
2080
2103
2098
2104
2092
2086
2079
2045
2039
2054
2084
2102
2099
2101
2091
2085
2076
2044
2040
2055
2085
2102
2099
2101
2092
2085
2074
2044
2039
2056
2087
2102
2100
2100
2091
2084
2071
2042
2042
2058
2087
2101
2099
2100
2091
2085
2069
-2044
-2045
-2027
-1996
-1985
-1986
-1987
-1996
-2002
-2018
-2046
-2044
-2026
-1993
-1985
-1987
-1986
-1997
-2003
-2023
-2048
-2044
-2024
-1992
-1987
-1988
-1988
-1997
-2004
-2026
-2048
-2043
-2024
-1992
-1986
-1988
-1989
-1997
-2005
-2029
-2047
-2042
-2022
-1989
-1985
-1989
-1989
-1997
-2006
-2031
-2048
-2042
-2020
-1987
-1988
-1987
-1988
-1998
-2007
-2034
-2048
-2042
-2020
-1987
-1988
-1986
-1988
-1999
-2006
-2035
-30721
2041
2065
2098
2095
2097
2093
2082
2076
2048
-30722
2039
2069
2098
2094
2096
2088
2079
2074
2043
2032
2043
2071
2097
2093
2096
2087
2080
2073
-2039
-30721
2051
2078
2103
2100
2104
2092
2085
2078
2044
2038
2053
2081
2102
2099
2101
2091
2085
2077
2044
2039
2054
2084
2104
2099
2100
2091
2084
2075
2043
2041
2055
2086
2101
2099
2101
2090
2084
2073
2043
2042
2057
2088
2102
2098
2101
2089
2082
2069
2042
2041
2059
2090
2101
2098
2102
2091
2084
2065
2040
2042
2060
2091
2100
2100
2099
2089
2083
2062
2040
2042
2062
2093
2100
2100
2100
2089
2081
2061
2040
2043
2063
2095
2100
2098
2099
2090
2083
2059
2039
2045
2063
2096
2100
2098
2098
2089
2081
2057
2038
