-8
-6
-5
-7
-7
-6
-4
-7
-9
-6
-3
-8
-5
-4
-3
-3
-8
-1
-8
-6
-4
-6
-5
-3
-6
-5
-2
-1
-6
-5
0
-5
-4
-7
-1
-2
-3
-6
-4
-2
-5
-6
-5
-2
1
-1
-8
-4
-1
-3
-5
-8
-4
-6
-6
-4
-4
-6
-5
-3
-5
-6
-11
-4
-6
-5
-5
-5
-6
-6
-7
-6
-10
-7
-5
-1
-5
-7
-1
-5
-9
-7
-6
-7
-8
-3
-5
-1
-9
-8
-6
-2
-8
-6
-10
-2
-3
-5
-7
-8
-9
-11
-6
-4
-6
-6
-5
-7
-6
-3
-8
-7
-4
-7
-4
-3
-4
-9
-5
-5
-9
-8
-5
-8
-1
-8
-10
-7
-5
-5
-9
-3
-5
-5
-9
-4
-7
-10
-6
-4
-6
-9
-3
-5
-4
-3
-7
-6
-2
-7
-6
-1
-2
-7
-5
-1
-7
-9
-3
-7
-9
-2
-1
-5
-5
-2
-2
-5
2
2
-1
6
1
-1
5
6
2
9
15
8
5
6
7
4
9
11
7
4
7
12
8
-4
1
2
3
-1
-1
-7
-3
-6
-8
-6
-1
-5
3
-8
-6
-8
-6
-6
-7
-6
1
-5
-3
-2
-5
-4
-3
-5
-2
0
-5
-8
-2
-5
-7
0
-6
-8
-4
-5
-9
-14
-15
-16
-13
2
26
41
46
60
58
59
56
57
65
59
51
51
50
48
40
33
11
-1
-4
-6
-15
-12
-13
-8
-8
-7
-1
-8
-8
0
-2
-4
-6
1
-2
-9
-3
-3
-3
-1
-6
-1
-2
5
-8
-2
2
2
-3
3
-5
-4
3
1
-3
-3
7
2
0
0
3
2
1
1
1
1
2
6
5
3
-1
3
3
7
8
-1
3
5
1
8
1
3
3
5
10
9
7
7
7
10
13
12
8
8
10
14
14
11
11
14
10
14
19
18
20
16
24
20
20
22
21
28
31
30
27
33
32
35
32
36
34
40
43
41
40
44
44
43
43
42
44
46
44
45
46
48
44
45
47
45
45
45
42
42
36
39
38
32
35
32
27
29
26
22
22
22
22
16
18
19
7
7
20
9
9
4
15
7
10
9
4
3
3
5
8
5
6
3
1
6
6
6
9
4
1
5
9
4
7
4
4
2
8
4
0
4
7
6
8
4
9
4
5
5
7
9
4
9
4
5
1
12
15
4
7
11
3
9
9
4
8
10
8
7
5
8
10
7
5
7
10
5
14
4
6
10
6
8
5
3
4
8
5
5
7
6
5
7
6
6
5
8
8
7
10
14
8
3
11
7
7
9
11
11
10
9
10
11
4
12
7
8
7
12
18
8
8
9
14
12
10
11
9
13
11
10
10
7
7
8
11
10
6
11
10
10
12
11
11
7
9
9
9
9
12
15
5
12
9
7
9
13
0
8
12
10
13
15
14
5
10
10
1
9
11
8
6
10
8
11
18
8
6
10
13
6
11
10
8
7
10
15
11
10
13
9
9
14
16
9
9
7
8
7
8
11
10
11
13
10
11
11
7
12
17
24
15
20
20
14
16
23
25
23
22
27
25
22
19
25
20
29
26
24
21
21
19
19
24
20
17
17
18
7
11
8
7
10
13
6
16
11
14
14
17
14
10
10
7
14
13
16
11
18
14
11
15
20
13
11
10
11
10
11
11
10
8
8
9
13
4
-3
-6
8
12
39
53
71
76
75
78
73
81
84
76
71
62
63
63
63
54
25
17
11
3
1
1
12
-3
8
6
8
8
9
11
10
16
9
8
18
14
8
12
12
14
10
14
12
14
13
17
12
14
13
13
10
12
16
14
18
16
11
13
20
12
13
17
16
12
16
21
14
14
15
18
17
17
19
15
17
18
16
20
21
16
16
20
22
15
19
23
24
18
30
22
20
24
22
22
27
29
29
24
28
32
27
30
27
31
31
31
31
37
36
40
37
43
40
37
41
46
45
48
47
53
49
56
55
53
54
57
56
61
59
63
57
62
61
59
65
61
62
58
61
58
59
62
57
55
56
51
50
51
51
45
46
44
38
38
36
34
35
38
32
27
30
28
25
24
25
22
22
25
28
23
26
24
17
24
21
20
20
25
24
22
22
22
21
20
19
23
18
19
24
22
22
22
21
23
21
21
22
23
21
21
25
29
27
25
27
21
23
28
25
27
27
23
24
23
23
28
26
30
25
25
20
23
23
28
28
27
27
26
22
19
25
28
21
27
27
23
25
21
26
26
24
26
26
28
27
28
25
25
23
23
20
25
22
24
26
21
25
21
25
24
26
24
20
25
23
22
23
29
23
21
21
23
17
21
23
24
24
25
25
25
27
24
24
26
20
22
26
23
23
24
25
20
24
25
24
16
26
22
22
25
26
20
24
25
24
23
22
26
26
24
20
24
24
23
23
27
25
23
23
22
27
19
21
20
24
21
22
19
16
22
26
22
23
22
25
22
22
24
25
27
21
23
20
20
25
23
25
27
23
20
19
23
27
24
22
22
23
28
26
23
24
29
29
28
27
29
36
27
34
31
38
27
39
37
34
27
35
42
33
33
37
33
34
32
27
30
28
25
22
19
20
19
20
21
21
20
20
22
22
19
18
18
19
23
22
21
21
21
19
20
20
20
18
26
24
21
19
19
20
20
16
21
16
22
19
19
21
21
6
9
14
21
43
62
80
87
89
86
87
77
82
85
80
78
83
77
71
52
29
17
3
7
12
6
7
16
15
18
19
14
17
20
24
19
19
23
19
23
22
19
19
18
23
19
23
21
22
23
23
23
19
24
26
26
30
26
24
21
24
21
24
20
29
22
26
27
25
20
28
24
22
30
26
23
28
25
27
28
24
29
29
30
26
29
32
31
31
28
31
34
24
34
34
31
32
32
33
37
35
35
32
36
38
38
40
42
37
41
39
43
38
45
48
47
48
53
52
51
54
57
56
60
64
63
63
60
64
62
65
71
63
66
70
70
68
69
66
67
69
65
67
68
68
64
66
64
63
58
57
51
50
53
53
48
47
47
41
37
41
40
36
36
35
27
32
29
25
28
26
25
28
19
23
27
26
21
20
23
23
21
23
21
18
20
27
26
15
23
22
22
27
21
20
21
23
24
22
20
26
20
21
29
25
22
25
22
26
22
27
16
26
27
24
28
26
26
24
24
23
23
28
28
26
29
23
23
25
24
29
22
28
29
25
22
27
25
25
29
26
24
22
26
23
23
25
24
22
22
26
25
25
23
18
26
22
24
27
22
23
15
24
23
27
24
25
26
20
25
26
23
19
22
19
28
29
23
23
23
22
19
24
22
24
27
23
27
23
22
20
20
28
18
24
21
28
19
22
27
17
22
25
23
23
26
27
25
25
25
29
27
29
27
28
33
34
36
37
34
32
32
37
32
36
36
37
36
35
38
30
29
30
26
27
27
19
23
20
26
18
19
21
18
23
23
22
20
21
22
13
25
24
20
26
18
25
22
22
22
24
22
22
24
23
22
22
23
26
23
19
25
22
19
24
25
21
14
13
19
25
45
61
73
82
83
82
78
82
73
71
75
75
80
78
63
48
24
13
8
8
11
8
11
18
21
18
19
14
21
21
24
29
21
29
26
28
23
27
28
23
27
29
28
29
29
29
27
30
28
31
27
30
29
32
35
31
28
26
33
30
34
33
34
33
34
33
37
33
32
34
36
35
36
39
41
42
38
38
35
38
39
38
43
37
41
42
39
42
42
42
42
42
41
45
44
45
47
43
51
47
47
52
49
54
54
53
58
57
54
58
61
62
60
66
62
67
68
76
70
73
73
74
78
80
81
83
84
81
83
80
85
82
78
86
81
82
83
86
82
81
83
79
74
78
77
72
71
69
74
61
65
62
59
58
51
52
53
50
46
45
46
41
44
40
42
39
37
39
41
39
39
37
35
39
34
32
38
37
35
35
33
37
39
38
38
32
39
37
36
38
42
39
37
42
36
37
35
39
38
41
38
41
40
41
43
38
42
38
40
40
42
43
40
44
46
41
39
37
43
43
40
37
43
43
46
42
37
33
41
39
45
41
41
43
41
41
40
41
37
40
41
44
41
40
40
41
41
40
39
40
37
39
38
40
41
41
40
44
40
36
40
39
41
43
38
41
39
36
45
35
42
42
43
44
40
45
45
43
45
48
42
49
48
47
47
47
50
53
47
50
51
46
50
55
51
55
50
51
50
51
48
56
56
56
51
52
51
54
52
54
55
56
55
51
53
52
61
52
55
57
52
55
59
51
54
62
55
58
55
60
58
60
63
63
63
59
58
60
64
67
68
65
73
66
64
70
71
66
72
66
67
67
68
62
53
57
58
59
60
63
61
51
52
53
56
55
55
55
55
53
54
55
56
57
50
60
52
53
54
56
60
56
57
56
54
57
50
50
56
58
56
60
54
54
54
57
48
50
49
42
44
44
48
57
67
92
104
113
118
117
118
122
129
131
123
114
111
116
112
98
82
61
49
46
49
46
38
46
52
43
45
51
51
47
53
57
52
49
55
52
51
52
53
51
52
53
51
50
55
56
52
56
55
52
56
53
53
53
53
57
58
55
56
47
56
58
53
55
59
60
51
54
57
59
57
57
51
58
58
54
55
60
58
60
56
57
62
54
59
61
64
58
59
60
65
65
65
58
61
65
63
65
63
62
66
65
67
70
71
70
74
72
72
72
78
73
74
76
84
79
82
82
86
94
88
83
88
91
89
89
94
92
99
98
94
94
93
96
100
98
100
92
93
94
93
93
95
90
88
86
86
88
84
80
81
81
77
70
75
69
70
67
69
65
61
60
57
59
63
56
59
55
55
57
55
61
55
51
53
52
57
54
53
57
56
54
51
57
49
51
54
58
51
54
51
51
59
53
51
52
58
53
49
57
54
56
55
56
55
56
55
58
59
56
55
57
58
58
59
55
55
50
62
53
61
56
54
58
57
61
52
58
56
54
54
56
54
52
54
59
55
54
53
53
57
58
57
58
57
56
56
56
53
55
54
55
57
56
58
53
57
58
60
54
55
56
55
54
56
55
60
55
58
55
55
55
57
56
53
58
59
56
56
60
51
56
54
56
53
58
54
55
55
58
52
55
56
51
57
57
56
57
58
55
50
54
55
62
50
56
54
57
58
56
50
54
56
53
55
53
56
53
53
56
52
52
57
49
56
52
56
48
50
53
52
54
53
48
53
56
51
52
59
56
54
52
51
50
51
55
57
56
60
58
52
56
53
56
61
54
54
53
55
61
52
56
55
54
51
58
54
54
57
57
59
55
61
58
60
56
62
65
58
62
60
62
64
60
63
67
66
66
72
67
66
72
72
63
69
71
71
72
66
64
68
65
65
64
61
66
62
59
57
55
57
54
53
53
55
55
56
53
52
47
54
50
51
54
54
51
54
53
53
48
49
55
51
45
56
41
41
42
38
45
55
80
94
106
120
115
116
114
118
115
117
115
107
115
106
99
85
60
49
45
42
41
32
37
43
47
44
44
44
45
48
54
52
45
45
53
46
45
46
44
49
48
48
50
48
47
46
54
50
43
54
45
45
50
51
48
56
48
50
48
49
49
51
50
53
53
51
52
49
50
53
52
47
52
50
51
47
51
48
52
54
53
48
49
55
55
55
54
52
49
52
57
52
48
57
59
61
59
63
54
62
62
54
59
59
62
61
63
61
66
68
68
72
68
77
71
69
71
71
78
81
82
78
85
87
86
89
84
83
83
87
88
85
89
86
91
86
82
92
89
81
82
86
86
82
81
78
74
77
73
71
70
67
68
65
62
64
63
55
54
55
52
49
50
50
44
47
42
40
50
50
42
40
42
41
42
44
43
40
38
44
36
41
32
46
42
40
41
38
40
40
39
42
49
38
38
39
36
40
44
42
36
43
39
44
42
42
41
42
40
44
40
43
38
36
38
46
43
39
43
41
40
37
45
41
41
41
42
39
41
47
37
37
41
34
39
40
39
39
40
38
38
37
38
37
37
37
37
38
41
35
44
36
37
34
41
33
31
37
39
38
37
41
35
34
33
38
34
34
33
39
35
34
31
38
35
34
35
35
33
34
33
37
33
36
35
37
28
35
30
29
33
31
32
37
33
38
32
31
34
31
30
36
32
36
36
32
30
31
31
28
34
36
30
34
35
32
31
35
31
29
30
34
36
35
30
31
32
30
31
27
31
32
34
34
32
34
31
28
32
33
29
32
32
30
34
32
32
29
31
31
30
34
29
36
32
32
29
39
36
34
33
40
34
35
36
42
43
45
48
44
43
44
40
44
47
39
44
45
41
45
44
39
38
36
38
35
33
33
29
30
30
34
32
30
31
33
31
30
26
36
32
29
29
34
33
29
31
31
31
33
34
33
31
33
29
29
31
35
35
34
31
33
33
33
23
21
31
21
23
31
47
65
81
91
96
93
90
98
91
90
87
87
86
85
83
72
51
26
16
21
22
19
19
21
32
25
23
26
23
32
33
30
28
33
33
30
26
35
32
29
32
34
30
36
39
36
31
39
34
30
39
35
36
36
35
32
40
35
40
40
40
42
37
42
42
41
42
39
40
41
44
39
46
43
46
48
46
44
40
43
46
43
46
43
38
49
46
45
52
47
56
46
42
51
47
48
53
50
52
51
50
55
56
59
56
51
64
58
57
60
62
64
64
76
69
68
68
69
77
77
79
72
84
83
80
81
82
87
79
84
89
89
88
83
85
86
84
89
86
87
86
85
83
81
78
78
77
74
72
77
69
64
64
64
63
60
54
59
53
53
50
49
44
50
47
43
44
46
43
40
42
42
44
40
43
35
42
35
41
39
40
41
42
41
39
40
42
41
39
41
41
42
39
47
42
38
39
41
42
42
37
40
45
42
39
45
43
37
44
44
44
42
45
47
40
46
52
40
39
43
43
42
46
47
43
42
42
38
43
43
40
41
47
42
46
38
44
41
42
44
41
41
45
42
38
43
47
38
40
48
41
41
41
40
41
43
50
38
41
43
42
41
38
43
44
43
40
38
40
42
43
40
37
42
41
38
40
37
38
42
42
42
46
36
33
40
41
45
38
42
34
38
42
39
39
41
37
36
38
40
42
39
38
38
38
36
42
37
39
38
43
38
39
37
37
40
39
39
39
42
39
39
36
39
37
33
32
35
39
44
41
39
37
37
39
37
36
37
38
39
35
40
38
34
38
42
40
41
44
36
34
39
42
34
37
37
38
35
38
32
34
38
44
37
36
37
39
38
37
37
34
38
39
35
36
39
38
36
41
36
33
36
39
35
38
43
38
46
39
39
39
38
43
44
43
46
46
42
51
47
49
53
54
46
47
50
46
50
50
48
46
49
45
49
41
40
44
43
39
31
34
36
35
33
34
39
32
35
36
36
36
37
35
30
37
30
37
35
35
33
38
34
35
34
37
40
35
34
36
34
36
38
37
28
30
32
29
29
22
27
26
43
64
86
95
96
99
99
101
104
109
102
96
90
97
93
84
75
45
38
31
33
23
27
32
26
27
33
34
30
29
35
28
33
35
33
34
31
32
31
38
35
32
37
33
33
31
36
34
32
37
36
33
42
33
31
40
36
33
34
36
35
35
36
36
36
34
39
40
36
36
37
35
41
38
41
38
41
37
37
39
40
43
41
45
44
42
44
39
41
44
41
45
45
42
43
44
45
43
42
46
48
48
49
46
48
49
56
56
51
49
55
55
60
58
58
61
63
64
67
73
65
71
70
68
72
81
76
73
75
73
74
79
79
78
79
82
78
83
84
79
72
75
80
77
71
74
72
69
71
68
63
66
59
59
53
59
56
50
53
51
47
47
49
43
42
48
45
36
37
31
40
43
35
37
41
41
37
32
36
37
36
39
38
38
29
38
36
35
37
36
35
33
40
39
36
41
38
34
37
35
36
39
41
35
38
34
40
39
40
39
39
40
34
39
42
46
36
34
37
37
45
36
38
40
39
38
35
38
47
38
39
39
44
37
40
35
38
35
37
39
39
39
35
35
36
36
34
34
38
41
36
37
42
37
32
37
37
36
35
35
36
36
40
34
36
35
37
35
39
34
35
31
40
34
38
40
35
35
33
36
34
36
38
38
34
38
37
34
32
34
33
38
36
33
36
35
34
34
35
35
37
33
35
33
35
34
35
33
39
32
27
34
33
35
37
37
32
34
29
34
28
36
34
36
36
37
32
32
30
32
26
36
33
34
34
33
29
35
34
32
30
36
32
32
30
32
33
35
37
30
28
36
34
34
29
35
32
34
32
34
34
33
31
29
29
30
32
34
34
30
33
35
34
31
34
34
33
33
33
34
36
31
31
35
36
35
30
31
31
30
35
33
30
31
28
29
36
34
33
31
33
30
31
32
31
30
25
32
32
35
34
31
38
34
30
30
33
33
32
33
32
29
26
32
32
31
30
33
35
33
38
36
36
38
41
36
41
39
37
41
41
46
44
42
41
41
42
35
46
39
42
38
42
43
37
33
36
34
33
33
24
28
25
28
33
23
37
31
23
29
29
28
30
30
29
30
27
28
21
31
33
23
25
30
31
30
28
30
25
29
28
28
25
28
27
24
26
21
19
16
20
27
37
56
80
91
88
96
88
92
94
94
97
88
88
91
88
73
56
36
28
24
21
14
15
13
25
23
21
23
21
24
27
25
24
30
24
25
25
25
28
26
29
28
26
28
27
28
28
28
26
28
27
32
25
30
31
26
24
32
30
27
33
26
26
36
30
30
27
29
24
30
31
30
26
29
32
29
24
33
31
30
34
34
35
26
34
37
30
35
33
38
37
38
33
34
36
33
36
40
29
36
39
37
40
40
41
40
39
45
44
44
47
52
46
46
51
49
51
54
56
57
62
59
60
64
60
61
68
65
60
66
68
65
63
67
64
63
68
67
65
62
66
64
62
65
61
60
60
58
55
52
54
49
47
46
48
44
38
41
35
39
33
33
32
30
29
26
27
25
27
25
23
22
19
25
24
16
22
27
24
18
21
18
20
18
17
19
22
22
19
20
22
19
22
20
24
29
17
18
22
22
21
24
21
19
20
23
22
21
21
28
20
24
24
24
23
21
19
24
25
23
19
21
27
20
24
26
29
20
20
20
19
26
23
21
18
14
19
22
20
24
16
20
22
22
19
22
20
18
17
24
14
23
19
19
18
22
21
18
14
20
21
18
19
16
21
18
19
18
17
24
17
17
20
14
17
16
20
11
13
21
21
15
26
21
15
18
19
15
21
22
17
16
24
18
14
19
18
11
16
16
20
22
17
16
12
18
18
15
17
16
17
14
18
16
21
14
16
17
17
19
16
16
18
18
18
18
17
16
9
19
17
15
17
15
17
20
15
15
17
19
16
9
18
18
17
16
11
15
17
23
17
17
17
19
13
15
17
19
15
18
18
20
11
11
13
17
24
18
18
14
21
20
22
20
21
20
23
23
26
29
27
32
30
24
27
30
26
27
30
27
32
26
27
27
23
20
26
21
18
19
14
15
15
14
16
14
17
15
16
18
15
17
15
11
12
13
13
16
16
14
16
21
14
9
15
16
17
16
14
20
10
11
17
17
16
13
11
10
3
2
11
21
35
56
69
77
75
79
72
69
74
77
67
68
72
69
63
47
20
14
2
1
-2
1
5
9
9
13
8
9
9
15
12
11
17
17
13
13
14
15
13
18
16
17
15
19
10
19
19
21
16
17
20
17
18
19
19
20
20
22
18
25
20
18
21
25
24
18
21
19
21
22
23
20
24
22
20
24
25
22
24
24
25
21
24
31
27
30
28
26
22
27
25
28
27
30
32
33
35
31
36
35
33
38
33
34
35
38
40
40
44
46
39
46
47
52
46
48
54
55
53
58
59
60
62
61
63
68
66
66
71
74
66
62
65
70
72
69
70
72
73
70
68
62
71
65
63
63
63
61
57
56
50
51
49
44
41
40
45
40
41
37
34
36
27
29
36
21
23
29
27
23
25
24
23
20
21
25
20
18
19
23
22
26
22
20
24
21
22
21
24
20
20
21
25
23
26
19
24
22
24
27
27
25
28
21
24
23
24
25
25
25
25
26
24
26
33
28
26
26
29
27
23
28
27
26
31
30
28
29
29
25
27
30
28
25
28
27
28
31
26
26
27
33
27
31
27
33
29
24
36
26
25
28
31
30
28
29
27
30
28
26
29
28
29
28
30
33
26
26
29
31
29
28
24
27
27
30
28
31
33
25
27
29
26
28
30
28
27
29
27
30
24
28
26
26
31
31
31
26
28
28
29
30
29
23
31
30
23
28
24
28
31
29
29
28
28
27
26
27
31
26
26
33
29
25
30
25
26
30
27
31
30
26
26
26
27
26
27
30
31
33
28
24
29
26
25
30
26
27
31
27
30
31
29
35
34
37
34
34
33
36
38
40
42
42
44
38
42
37
38
40
40
41
39
42
38
36
34
35
31
33
35
32
22
25
29
25
23
29
26
25
30
27
27
28
25
23
28
27
26
25
25
26
25
28
28
25
28
27
26
27
25
25
27
31
24
24
25
24
20
20
17
11
14
27
47
62
81
91
91
96
88
92
94
100
87
89
87
85
80
69
52
33
24
21
16
19
23
22
19
18
22
21
25
26
26
24
30
31
27
26
26
24
27
27
29
25
31
29
25
23
23
31
31
35
33
30
32
33
28
32
34
34
35
33
30
30
38
31
32
34
35
32
32
32
34
34
37
31
31
31
34
37
34
33
33
35
36
34
35
34
35
34
39
40
41
36
39
37
38
39
43
43
42
44
44
45
45
40
46
51
43
44
49
53
54
50
51
55
57
58
60
62
58
62
64
65
67
69
66
74
72
73
76
71
71
81
74
68
75
72
76
76
76
76
76
71
72
70
73
64
69
64
67
60
60
54
56
54
49
44
48
51
48
39
40
43
40
36
37
40
35
32
34
32
34
35
31
28
32
33
26
32
33
29
27
32
29
28
31
31
26
29
33
29
26
32
34
28
28
29
26
29
33
30
31
33
32
29
32
30
31
27
34
34
35
29
35
31
29
31
32
34
31
30
30
31
34
33
32
29
32
30
35
30
33
32
33
26
35
32
26
36
30
31
29
30
30
30
31
28
32
31
28
28
31
32
28
26
32
33
28
29
31
32
30
31
27
27
32
25
29
29
31
28
23
28
27
28
30
30
30
29
31
30
29
29
26
28
29
27
28
28
34
32
28
31
24
25
25
24
27
27
28
27
25
25
26
23
26
28
25
25
26
24
32
28
25
25
28
22
23
27
24
22
29
23
18
25
29
23
23
27
29
22
27
24
25
23
26
22
24
25
24
23
30
25
23
27
26
18
25
17
25
23
23
26
21
22
27
23
24
21
22
24
23
22
21
27
25
18
25
28
19
20
24
26
22
22
22
22
21
22
21
22
24
21
21
24
23
21
22
23
20
19
24
24
20
24
22
24
24
22
21
27
26
29
28
23
27
35
29
35
34
30
30
31
30
32
33
31
34
33
32
32
28
24
26
27
26
19
24
16
22
18
18
18
18
18
18
16
18
21
19
17
17
14
21
15
19
14
21
15
19
21
17
14
16
19
14
15
19
20
17
12
18
16
12
13
11
6
4
6
6
24
41
58
72
80
81
78
81
84
84
84
71
73
77
71
60
48
26
14
5
5
3
3
3
6
5
10
8
14
10
15
9
10
17
12
11
18
15
11
11
13
13
10
14
17
14
9
5
12
14
17
17
11
15
18
13
16
13
15
15
15
14
13
11
13
12
13
15
13
15
14
11
8
13
17
14
14
13
15
12
14
13
9
13
14
14
22
13
17
21
22
14
16
15
20
25
20
21
16
18
26
17
20
25
23
26
27
28
28
32
29
29
32
33
32
35
35
36
39
40
40
38
41
50
46
48
50
50
60
48
49
53
51
53
54
49
55
51
48
46
47
48
53
54
50
47
46
45
43
42
36
38
34
29
27
31
28
25
21
23
20
13
13
18
15
10
11
9
8
8
7
3
5
9
0
7
1
6
1
5
2
2
2
4
5
1
6
-2
2
5
4
5
8
5
1
-3
6
5
7
4
-2
4
6
6
-2
4
9
6
3
2
3
3
4
3
5
4
4
3
5
1
5
5
1
3
8
1
5
5
5
2
5
2
8
5
7
8
8
4
4
3
1
8
5
1
1
7
5
2
3
1
4
2
3
6
4
6
0
2
0
2
3
3
1
3
3
1
6
3
3
2
0
2
4
3
2
2
1
0
0
6
-4
3
2
2
3
3
0
5
3
-1
-4
3
1
-1
-1
-1
5
6
1
0
3
1
1
2
1
2
1
0
-2
3
0
-1
2
-2
2
1
0
-2
2
7
2
-1
5
-10
1
5
1
0
3
4
2
-2
0
0
2
2
0
-1
4
9
5
4
7
-1
9
7
8
10
12
15
9
12
10
11
9
13
12
12
13
7
6
5
7
6
2
4
-5
-2
-2
2
-1
-1
-1
-3
-4
-3
-5
-1
-4
-3
-2
0
2
-1
-3
-4
-4
-2
-1
-3
0
-4
-2
-2
-2
-2
-2
-4
-3
-3
-5
-6
-1
0
-5
-10
-10
-16
-9
-7
18
33
51
59
58
53
54
48
45
43
49
45
47
44
45
25
-2
-13
-18
-17
-20
-13
-14
-19
-12
-7
-5
-11
-9
-9
-6
-5
-4
-4
-3
-4
-3
-2
-4
-3
-5
1
-1
-2
1
-1
-2
-1
2
-4
-5
-1
-3
2
4
2
-2
1
1
0
1
5
-2
4
5
7
0
5
5
4
5
8
5
6
3
8
4
9
6
6
7
9
7
7
11
10
8
13
16
13
13
12
11
14
12
17
13
15
22
15
21
18
18
19
24
20
21
27
29
30
27
32
30
36
32
39
37
40
40
41
46
48
47
44
49
51
48
48
55
51
55
58
52
56
57
56
55
54
53
51
55
54
51
50
49
49
41
42
43
38
45
36
30
35
31
24
21
27
20
18
16
17
14
14
15
13
10
12
7
8
10
9
9
7
6
12
4
4
3
7
10
10
5
6
6
6
5
11
8
5
7
4
4
10
8
5
9
5
10
9
13
7
9
12
11
7
12
15
9
12
12
10
14
12
13
8
11
10
11
14
15
13
12
11
10
14
16
15
8
13
15
13
14
13
12
10
13
16
12
14
16
14
17
16
15
10
17
14
13
11
14
11
18
14
10
11
17
13
12
12
14
13
14
12
12
15
10
11
16
17
10
12
15
13
14
13
16
14
10
15
13
14
12
12
17
13
11
12
11
12
12
9
12
14
13
12
8
14
13
16
11
9
16
13
9
9
12
9
9
12
15
9
11
16
12
11
14
17
15
8
11
7
13
12
12
11
10
9
13
9
10
13
8
15
12
12
19
14
15
17
17
18
17
20
21
21
17
26
29
20
19
20
20
22
24
22
22
24
22
19
19
17
17
19
12
14
16
9
6
8
11
7
8
10
7
9
12
10
4
9
8
11
12
8
6
10
7
7
8
12
8
10
15
11
8
6
8
5
3
15
9
9
9
1
-6
-3
4
6
18
43
63
72
80
79
72
73
78
79
79
66
69
75
69
58
36
21
7
7
7
1
-1
3
9
3
6
5
5
6
11
14
5
9
16
7
6
11
13
11
5
10
12
12
14
12
13
14
15
9
17
16
13
15
16
16
12
16
15
15
14
17
16
16
17
17
21
24
15
12
17
16
17
16
18
21
17
17
18
18
17
21
18
23
24
21
20
22
19
19
22
26
22
24
23
26
31
29
23
25
27
27
30
32
30
32
34
33
35
32
36
37
37
41
41
43
47
47
52
49
48
49
53
53
53
56
61
58
52
61
62
59
59
61
61
59
60
62
58
61
60
62
58
57
56
47
52
51
50
46
45
44
41
39
36
33
34
36
28
27
29
26
23
23
20
19
17
22
19
22
18
19
16
19
12
17
21
14
20
11
14
17
14
14
18
17
16
13
14
15
17
15
10
18
17
11
13
19
14
19
14
14
20
17
15
18
18
13
16
20
18
19
18
17
13
18
16
11
12
16
17
14
15
21
14
19
11
13
16
18
12
15
16
19
18
18
14
13
13
19
12
14
20
12
11
11
15
17
14
13
12
10
20
14
11
13
15
20
10
10
8
14
11
15
14
12
16
14
16
10
11
11
12
10
10
11
16
14
11
14
12
13
8
7
11
15
13
11
13
12
10
13
10
8
8
12
2
8
10
7
9
7
12
9
7
8
9
10
10
11
8
5
5
7
9
8
5
9
8
7
4
9
12
7
11
5
3
3
8
10
7
5
7
4
6
6
5
6
4
7
5
4
11
8
5
3
-2
3
1
9
7
8
2
2
4
10
9
7
8
11
11
7
10
10
14
16
13
12
15
14
11
15
13
14
13
16
9
13
9
9
4
7
4
3
-4
1
-4
-4
-1
-6
-4
3
-1
-7
-4
5
-8
-2
-7
-1
-5
-2
-3
-10
0
-6
-3
-1
-4
-7
-4
-2
-2
-3
-1
-8
-6
-9
-8
-11
-8
-7
-14
-13
-11
-15
0
22
37
46
55
55
55
51
46
50
45
47
46
45
42
39
15
-8
-20
-24
-15
-20
-24
-19
-18
-9
-12
-16
-13
-13
-14
-9
-11
-12
-8
-4
-3
-11
-13
-10
-9
-2
-12
-7
-10
-6
-12
-7
-1
-8
-2
-7
-8
-5
-5
-4
-10
1
-5
-9
-7
-7
-5
-2
-7
0
-3
-3
0
-2
-10
-5
-2
-4
1
0
-4
-6
-4
-1
-2
3
-4
1
2
-1
-2
-3
0
-1
2
3
1
0
1
8
7
5
5
3
6
8
8
12
9
9
11
9
13
12
13
15
20
19
21
18
23
28
26
25
24
33
29
29
40
28
31
41
32
37
35
35
36
39
38
37
40
41
34
37
37
38
38
30
32
35
31
30
25
27
22
22
15
15
19
10
11
10
7
2
4
0
-1
1
-2
-10
-4
-5
-5
-7
-9
-8
-9
-11
-7
-12
-18
-9
-14
-11
-12
-11
-11
-12
-9
-16
-14
-12
-9
-11
-10
-12
-11
-9
-9
-11
-9
-9
-10
-12
-11
-9
-4
-3
-10
-10
-13
-5
-5
-12
-5
-5
-7
-7
-10
-7
-9
-12
-7
-8
-4
-9
-9
-4
-4
-5
-7
-2
-7
-7
-5
-4
-10
-4
-2
-9
-10
-4
-10
-9
-12
-7
-7
-10
-8
-1
-6
-5
-8
-10
-7
-8
-10
-4
-8
-6
-2
-8
-6
-7
-2
-10
-6
-1
-8
-12
-8
-5
-2
-12
-13
-9
-8
-7
-8
-8
-4
-4
-8
-12
-9
-4
-4
-5
-10
-7
-7
-6
-4
-8
-9
-11
-7
-8
-2
-7
-5
-1
-7
-4
0
-10
-3
-7
-5
-5
1
-2
6
2
-3
-4
-2
2
1
7
9
9
1
6
7
8
3
7
8
4
4
10
1
6
1
2
0
2
-2
-5
-6
-9
-8
-9
-8
-7
-12
-8
-3
-4
-6
-6
-11
-9
-6
-5
-7
-6
-8
-8
-7
-8
-8
-5
-9
-7
-4
-5
-8
-9
-10
-9
-7
-9
-2
-9
-7
-8
-8
-15
-12
-20
-14
1
22
40
51
58
57
54
56
53
48
48
48
49
49
46
36
21
0
-12
-19
-17
-16
-19
-18
-12
-15
-10
-6
-9
-11
-8
-6
-9
-4
-4
-7
-5
-1
-5
-6
-1
-7
-7
0
0
-5
-5
-3
-4
-1
-3
-1
-3
-2
-3
4
-4
1
-1
1
0
1
-3
2
2
0
3
2
4
7
3
0
1
3
2
5
2
2
3
4
7
6
6
11
8
1
9
4
8
10
9
11
13
10
10
7
15
14
11
16
19
13
18
18
14
18
18
22
24
22
27
26
27
28
27
34
30
32
32
40
39
37
41
43
40
43
47
45
48
52
46
50
51
48
50
50
45
47
53
48
50
50
46
42
42
41
41
37
38
35
33
27
26
24
23
20
20
18
17
13
17
11
8
10
8
7
12
9
2
5
0
6
4
5
2
3
4
-1
-1
3
2
2
1
5
0
0
1
4
-1
-1
0
1
2
5
3
1
3
0
2
3
3
1
-2
4
5
6
10
0
3
6
5
4
6
3
2
7
5
3
4
2
4
4
5
6
4
7
1
5
7
3
0
4
8
2
2
5
3
2
4
3
7
3
4
3
0
3
1
3
6
4
1
5
5
3
0
2
0
1
4
5
2
6
2
3
3
1
4
3
2
3
-1
0
7
5
3
4
0
0
-1
4
3
3
5
-1
3
0
1
5
3
5
0
0
0
2
2
1
0
-1
4
2
0
1
4
3
0
2
-3
-1
1
-1
-3
-2
2
1
1
2
-1
2
-1
-1
-1
3
-1
0
-2
2
-3
-6
1
0
2
3
2
0
-1
0
0
-6
3
2
0
0
-2
-2
1
1
1
-5
-1
1
4
0
0
-2
0
5
-1
-4
2
-1
6
-2
-2
-2
4
1
-1
-5
2
-3
1
-2
0
3
0
4
5
6
10
2
5
5
5
7
13
12
13
12
15
13
12
12
10
8
12
7
13
10
12
12
7
7
3
3
3
1
-1
-1
1
-2
-3
-1
-3
-5
-1
0
-1
-5
1
-8
0
-1
0
2
0
-6
-1
-2
-2
1
-1
-5
-3
2
-1
-6
0
-5
-4
6
-1
-4
-6
-10
-14
-16
-12
-6
11
29
48
57
58
64
61
62
71
72
63
56
54
61
54
48
34
11
0
3
-6
-15
-6
-10
-10
-9
-8
-5
-3
-4
0
-5
0
-4
-4
0
-7
1
-3
-3
-3
-4
-1
-1
2
4
0
-1
-5
-2
-3
-1
3
-2
1
-6
9
0
-4
-1
0
1
-2
2
-2
3
2
-1
3
8
2
0
2
0
-1
6
2
0
5
5
1
1
6
8
5
8
4
4
8
8
3
11
9
4
5
11
12
5
7
9
9
12
11
11
11
16
13
17
21
22
20
19
20
20
26
22
29
26
26
36
33
34
30
31
34
36
41
37
43
43
40
38
38
41
42
41
43
42
44
42
41
41
38
43
37
37
32
32
36
32
33
27
24
22
24
18
18
16
17
12
15
11
10
9
12
5
-5
5
4
4
6
3
3
2
-1
3
2
0
1
3
2
0
0
0
5
-3
-2
4
1
1
0
9
5
0
1
2
-1
4
3
3
-2
3
5
6
8
5
4
5
4
9
1
2
6
6
4
8
6
3
13
4
1
2
5
6
8
4
7
2
3
2
5
8
4
6
5
6
3
7
11
-3
3
0
2
5
6
9
0
3
4
5
5
0
4
-2
6
3
3
-2
3
3
6
6
4
-1
4
0
3
2
8
6
0
3
5
10
2
1
1
6
5
12
4
0
4
0
2
5
0
6
2
1
1
0
4
2
8
2
0
-2
5
1
5
4
5
-3
2
-2
1
8
-1
3
1
3
0
2
-2
-3
3
-5
-2
3
4
6
1
-2
2
-2
2
1
-1
0
2
3
1
-1
-7
-1
1
0
-1
-2
7
4
-8
5
1
0
-4
-2
-2
-7
0
1
0
-1
-8
3
1
0
-3
-1
-2
-3
-3
5
-4
-6
-4
1
-3
0
0
-2
-2
-2
-2
-5
-4
1
1
-4
-1
5
-4
1
-2
-4
0
1
-2
-5
0
-1
-7
-4
-3
-5
-8
-1
-3
-2
-3
-1
-3
-6
-1
-3
-3
2
-3
-5
-3
0
0
0
5
6
5
4
6
8
9
9
5
11
9
6
10
12
7
12
10
-4
8
11
7
4
1
1
1
3
0
-5
-3
-3
-8
-9
-2
-6
-6
-5
-4
-2
-6
-7
-13
-3
-5
-8
-10
-4
-5
-2
-4
-6
-8
-7
-4
-8
-3
-5
-9
-5
-5
-9
-6
-2
-3
-13
-12
-9
-14
-17
-15
-10
4
24
43
51
52
59
55
54
54
53
49
49
50
50
42
38
25
-7
-11
-12
-15
-26
-21
-13
-17
-15
-14
-14
-10
-11
-14
-9
-6
-11
-15
-8
-6
-10
-6
-9
-5
-11
-10
-4
-6
-5
-5
-7
-6
-5
-2
-7
-6
-5
-5
-5
-3
-4
-4
-3
-7
-3
-4
-6
-5
-1
-7
-5
-4
-5
2
0
-2
-3
-3
-3
-5
-3
-2
0
1
-1
3
-1
-3
0
3
0
-2
-3
3
4
8
2
0
0
-2
1
14
3
1
7
5
10
7
9
9
9
9
8
9
13
14
11
16
20
16
14
16
26
27
26
28
29
28
27
30
33
34
32
33
33
33
35
35
37
35
33
35
33
29
34
32
31
28
32
28
24
28
22
21
24
18
18
19
9
7
7
8
5
1
1
-5
-4
4
-2
-5
-8
-4
-14
-13
-11
-13
-12
-7
-7
-17
-9
-15
-11
-12
-12
-13
-13
-11
-10
-13
-15
-12
-17
-11
-11
-20
-9
-13
-15
-12
-11
-12
-9
-10
-12
-9
-14
-12
-12
-16
-11
-9
-15
-10
-12
-4
-9
-10
-12
-12
-10
-10
-11
-11
-8
-7
-16
-8
-10
-6
-14
-11
-15
-16
-6
-8
-9
-11
-14
-14
-13
-11
-12
-10
-13
-15
-13
-11
-13
-11
-8
-16
-14
-10
-11
-16
-14
-11
-9
-12
-15
-14
-15
-11
-14
-14
-12
-10
-16
-14
-16
-12
-19
-13
-12
-14
-12
-15
-13
-14
-13
-16
-18
-13
-14
-12
-13
-13
-17
-13
-16
-14
-18
-12
-18
-14
-11
-11
-15
-17
-12
-16
-15
-13
-14
-14
-9
-11
-21
-17
-14
-11
-18
-11
-12
-15
-13
-12
-19
-17
-11
-20
-11
-18
-21
-17
-16
-13
-10
-12
-12
-18
-15
-16
-17
-17
-14
-11
-15
-16
-14
-17
-10
-9
-15
-16
-11
-10
-13
-8
-9
-10
-11
-7
-11
-9
-3
-6
-5
0
3
-4
-3
-2
-4
-3
1
-3
2
-1
-5
-3
-9
-3
-11
-16
-12
-10
-8
-16
-17
-17
-15
-15
-17
-16
-16
-15
-15
-11
-17
-16
-18
-16
-18
-15
-15
-14
-13
-20
-14
-17
-17
-17
-16
-18
-16
-16
-13
-18
-18
-23
-13
-21
-21
-18
-17
-26
-28
-24
-12
6
28
37
47
43
49
41
41
42
38
37
38
37
32
33
16
-10
-17
-23
-27
-27
-28
-27
-27
-21
-20
-21
-20
-18
-23
-18
-15
-18
-19
-14
-15
-13
-14
-11
-14
-15
-15
-16
-14
-9
-13
-14
-14
-12
-7
-13
-19
-9
-8
-13
-14
-9
-12
-6
-7
-11
-10
-11
-15
-9
-9
-11
-11
-4
-6
-8
-9
-8
-6
-6
-9
-8
-4
-3
-5
-4
-3
-8
-4
-6
-4
0
-5
-3
-4
-2
-4
-1
4
2
0
2
2
5
8
2
8
5
8
8
8
5
10
10
11
13
11
22
23
18
21
21
25
24
25
27
31
29
36
33
32
31
34
37
35
40
43
39
42
36
35
38
39
38
39
44
39
34
37
36
32
31
28
23
22
25
20
20
17
13
8
8
10
5
2
3
3
-1
2
-4
-5
-7
-6
-10
-4
-7
-9
-9
-7
-5
-5
-13
-11
-11
-12
-9
-11
-6
-5
-10
-8
-11
-3
-9
-11
-10
-6
-11
-7
-9
-7
-8
-7
-10
-8
-5
-4
-1
-12
-7
-6
-2
-7
-4
-5
-7
-5
-4
-5
-6
-6
-4
-4
-7
-3
1
-2
1
-3
-6
-4
-3
-4
-3
-5
-3
-5
-4
-4
-6
1
-3
-4
-6
-2
-4
-7
-4
-2
-3
-5
-2
-1
-4
-2
-5
-5
-4
-6
-3
-6
1
-2
-6
-3
-2
-6
0
0
-7
-3
-2
-7
-10
-4
-1
1
-4
-6
-5
-2
-1
-2
-2
-1
-4
-3
-2
-5
-3
-7
-3
1
-7
0
-8
0
-5
-2
-7
-9
-1
2
-5
-3
-1
-1
-3
0
-2
-10
-4
-7
-5
3
-4
-5
-6
-2
-4
-3
-4
-8
-4
-2
-1
2
0
-3
-4
-4
-3
-3
-5
-1
-3
-5
-1
-3
-2
-5
-3
-1
-4
-1
-3
2
-4
0
-6
-6
3
-4
-7
-2
-2
-4
2
0
-1
-1
-11
1
-2
4
-4
-4
-3
-1
-2
-1
4
-5
-3
-3
-5
-1
2
1
-2
-1
0
-1
1
0
4
1
4
6
5
9
3
-3
7
10
8
12
17
13
13
14
12
8
13
12
10
11
14
14
6
6
10
3
5
7
7
2
0
-4
-2
-3
-5
-5
-3
0
0
-6
-2
-2
-2
-5
-2
-2
-2
0
-3
0
-1
-4
1
-2
-1
-5
-1
1
-5
-4
3
-5
-7
-5
-4
-7
-3
-8
-15
-11
-3
19
41
56
59
58
64
63
64
74
68
54
57
64
57
52
46
24
10
-1
-8
-12
-15
-15
-6
-5
-3
-8
-6
2
-2
-2
-7
0
-5
-4
1
-3
-2
6
0
-2
-1
4
-5
-1
0
-3
3
1
3
-1
-2
-1
-3
2
4
3
3
0
4
2
5
0
3
8
-2
1
6
6
-2
5
3
10
4
2
8
4
8
9
7
7
12
6
7
7
11
9
8
6
10
10
9
11
10
15
13
13
11
19
14
10
15
19
18
15
14
20
17
21
21
21
27
31
31
27
30
28
34
36
33
34
39
44
39
42
40
44
43
43
46
43
49
46
44
49
49
46
46
49
43
40
48
45
43
47
44
40
39
39
34
35
28
29
31
28
25
22
20
19
17
18
18
11
6
11
10
2
7
10
9
7
5
3
5
5
0
4
7
5
1
10
5
1
-2
4
4
2
0
3
5
0
-1
-3
5
-1
2
3
3
-1
0
3
7
5
5
5
12
0
5
2
4
9
5
6
6
11
-5
-5
4
5
10
5
3
0
1
1
5
6
-2
1
1
5
4
5
4
0
0
4
0
0
0
3
0
4
1
2
0
-2
5
-2
3
-4
0
-1
-2
4
-2
0
0
-2
-5
0
-1
-2
-2
-5
-2
0
1
-1
-4
1
1
-2
0
-2
-3
0
-3
-5
-4
-4
-2
-4
-4
0
-7
-5
0
-6
-5
-6
-5
-4
-6
-6
0
-3
1
-8
-7
-2
-3
0
-4
-7
-5
2
-2
-6
-12
-6
-7
-10
-8
-5
-5
-7
-6
-7
-6
-6
-7
-4
-8
-6
-4
-6
-5
-9
-5
-6
-14
-9
-13
-6
-6
-5
-5
-8
1
-8
-13
-15
-6
-8
-12
-3
-4
-9
-7
-7
-9
-13
-10
-11
-10
-3
-11
-10
-13
-14
-11
-9
-6
-6
-10
-10
-9
-10
-2
-13
-6
2
-4
-4
-7
2
2
-2
0
0
-3
2
1
-9
-7
2
-5
5
1
0
2
2
-11
0
-8
-6
-7
-6
-12
-14
-12
-8
-15
-18
-13
-13
-15
-14
-12
-8
-15
-18
-13
-15
-14
-15
-10
-14
-15
-19
-20
-17
-17
-18
-13
-14
-18
-16
-15
-16
-19
-10
-18
-19
-17
-13
-24
-20
-29
-27
-14
-3
16
31
43
41
43
36
37
29
29
30
30
33
32
32
18
-8
-20
-42
-38
-30
-30
-36
-28
-25
-17
-26
-24
-18
-26
-20
-17
-21
-20
-11
-17
-21
-17
-18
-19
-20
-18
-16
-12
-13
-15
-16
-15
-15
-14
-7
-6
-9
-16
-22
-23
-21
-13
-7
-9
-9
-16
-21
-14
-12
-10
-10
-14
-11
-14
-16
-15
-11
-15
-10
-12
-12
-9
-10
-15
-7
-7
-2
-11
-10
-10
-6
-8
-6
-8
-6
-1
0
-8
-13
-7
-5
-6
-6
-4
5
2
4
17
16
4
4
-7
-1
3
15
4
3
9
7
6
10
13
19
16
28
17
20
36
27
27
29
30
30
37
38
31
31
33
29
22
28
31
27
29
31
25
29
30
20
23
20
15
22
15
16
11
8
8
7
-6
-4
4
0
-5
-6
-10
-15
-16
-23
-16
-17
-19
-22
-28
-20
-18
-21
-35
-29
-32
-32
-30
-30
-31
-36
-33
-30
-32
-38
-33
-30
-40
-47
-39
-32
-34
-29
-31
-33
-34
-33
-32
-28
-41
-36
-39
-37
-37
-35
-29
-35
-40
-34
-27
-24
-29
-38
-46
-42
-41
-39
-37
-30
-45
-39
-34
-31
-43
-41
-39
-39
-42
-42
-32
-37
-38
-38
-37
-40
-37
-40
-42
-44
-41
-38
-36
-38
-39
-45
-41
-51
-45
-45
-35
-47
-43
-43
-41
-42
-40
-47
-44
-45
-38
-40
-44
-44
-47
-48
-48
-41
-46
-47
-45
-38
-41
-43
-42
-47
-50
-49
-48
-45
-42
-50
-49
-48
-51
-40
-44
-58
-42
-38
-45
-47
-50
-49
-49
-45
-45
-47
-45
-40
-47
-44
-41
-40
-47
-44
-35
-44
-40
-39
-35
-31
-32
-38
-38
-39
-38
-40
-36
-34
-39
-40
-34
-28
-32
-36
-40
-40
-47
-50
-48
-48
-47
-46
-50
-52
-42
-43
-52
-51
-53
-55
-45
-46
-46
-42
-47
-49
-57
-48
-50
-55
-45
-44
-45
-43
-45
-50
-40
-44
-51
-52
-42
-48
-48
-44
-42
-40
-36
-44
-56
-61
-57
-49
-43
-25
-4
9
16
14
13
7
9
8
16
8
7
9
5
6
-9
-29
-47
-54
-53
-50
-51
-57
-54
-47
-44
-43
-48
-47
-46
-41
-43
-45
-43
-41
-47
-40
-38
-42
-44
-40
-34
-43
-40
-31
-44
-41
-33
-36
-39
-38
-38
-40
-38
-35
-35
-35
-30
-38
-39
-40
-42
-32
-32
-32
-35
-35
-37
-36
-28
-31
-33
-36
-26
-27
-33
-28
-31
-32
-24
-28
-29
-26
-31
-30
-26
-28
-23
-23
-23
-27
-32
-25
-23
-23
-22
-23
-22
-25
-21
-16
-19
-18
-6
-14
-17
-11
-9
-7
-11
-11
-3
-3
0
2
-1
6
4
6
1
12
7
10
12
11
11
14
13
18
16
18
18
19
17
18
13
25
24
21
18
19
19
16
16
14
12
14
14
4
4
4
1
1
1
-8
-6
-10
-17
-15
-19
-21
-19
-20
-18
-23
-23
-23
-23
-27
-28
-28
-27
-22
-30
-27
-24
-22
-27
-22
-24
-31
-28
-26
-22
-31
-26
-22
-29
-26
-24
-23
-27
-28
-27
-28
-31
-27
-22
-27
-23
-23
-23
-26
-27
-26
-25
-20
-24
-27
-30
-22
-20
-18
-25
-19
-22
-20
-21
-22
-16
-25
-26
-22
-15
-18
-20
-26
-24
-26
-22
-23
-21
-20
-22
-18
-20
-18
-22
-16
-19
-21
-20
-19
-22
-21
-21
-15
-21
-25
-25
-22
-27
-25
-19
-15
-24
-20
-23
-24
-26
-27
-24
-24
-25
-21
-21
-20
-20
-19
-23
-21
-25
-22
-19
-20
-21
-19
-21
-22
-23
-19
-24
-23
-23
-22
-21
-21
-21
-15
-16
-20
-25
-25
-26
-20
-24
-24
-21
-23
-21
-26
-24
-21
-25
-22
-24
-23
-22
-22
-25
-23
-19
-21
-26
-25
-20
-19
-21
-18
-18
-24
-23
-22
-22
-20
-19
-15
-22
-17
-23
-28
-22
-13
-21
-17
-13
-20
-19
-11
-9
-11
-11
-7
-7
-8
-13
-5
-9
-10
-10
-9
-6
-10
-9
-10
-10
-11
-14
-13
-11
-15
-21
-19
-31
-25
-22
-20
-23
-23
-23
-27
-24
-27
-23
-20
-22
-24
-22
-23
-21
-23
-25
-22
-21
-22
-23
-25
-22
-21
-24
-18
-23
-23
-25
-18
-20
-26
-28
-26
-29
-36
-31
-25
-7
16
32
39
41
41
40
44
49
54
44
37
39
35
33
29
13
-9
-21
-22
-27
-31
-28
-28
-22
-21
-18
-21
-25
-22
-17
-17
-20
-18
-19
-16
-21
-22
-16
-19
-16
-14
-21
-16
-15
-20
-23
-24
-19
-20
-20
-19
-18
-20
-16
-16
-15
-15
-10
-18
-17
-14
-13
-18
-14
-15
-14
-17
-11
-14
-18
-9
-13
-15
-11
-12
-14
-9
-10
-13
-10
-6
-9
-10
-9
-11
-5
-4
-5
-13
-15
-12
-12
-8
-9
-10
-9
-3
-2
-4
-1
0
-2
3
1
0
1
2
6
2
4
14
6
13
11
15
6
11
16
21
22
23
23
21
20
25
26
29
25
26
30
24
31
32
29
23
25
28
30
27
29
26
27
26
20
22
18
18
18
13
18
17
10
9
7
8
-2
3
1
-2
-4
-3
-11
-10
-10
-8
-11
-13
-9
-18
-19
-12
-12
-17
-14
-18
-17
-11
-13
-13
-11
-17
-21
-17
-13
-15
-16
-18
-19
-16
-12
-16
-13
-13
-18
-18
-15
-10
-14
-8
-8
-8
-14
-10
-13
-14
-15
-13
-12
-9
-11
-7
-12
-11
-17
-13
-17
-13
-13
-11
-10
-13
-18
-11
-13
-13
-15
-17
-15
-14
-12
-22
-20
-14
-11
-12
-11
-17
-18
-17
-13
-20
-25
-19
-17
-16
-13
-15
-14
-15
-9
-16
-19
-15
-15
-17
-17
-17
-17
-13
-17
-15
-15
-19
-17
-17
-16
-17
-22
-11
-15
-15
-22
-16
-23
-20
-14
-17
-16
-18
-15
-16
-23
-21
-20
-17
-18
-19
-15
-17
-20
-24
-18
-20
-23
-25
-19
-17
-18
-14
