-150
-151
-170
-165
-160
-163
-165
-154
-149
-164
-160
-161
-161
-158
-163
-149
-176
-174
-158
-166
-160
-149
-147
-146
-167
-171
-154
-160
-163
-162
-168
-161
-162
-172
-160
-161
-166
-152
-142
-159
-155
-159
-162
-170
-158
-145
-151
-164
-158
-154
-147
-148
-154
-167
-173
-165
-152
-157
-166
-154
-154
-163
-161
-164
-156
-149
-137
-138
-163
-172
-157
-169
-164
-161
-155
-163
-158
-164
-151
-147
-165
-160
-151
-157
-155
-153
-157
-158
-155
-162
-162
-156
-152
-152
-147
-134
-156
-170
-156
-167
-151
-168
-159
-162
-164
-163
-164
-164
-157
-170
-152
-148
-156
-159
-165
-170
-165
-166
-156
-170
-177
-154
-157
-153
-155
-162
-163
-161
-152
-155
-157
-164
-160
-159
-172
-169
-170
-151
-162
-156
-158
-171
-189
-167
-168
-167
-165
-157
-158
-155
-154
-164
-163
-162
-164
-152
-166
-159
-171
-175
-159
-162
-163
-160
-156
-161
-164
-167
-164
-163
-161
-162
-160
-156
-143
-155
-155
-164
-177
-169
-173
-173
-152
-145
-160
-163
-176
-168
-166
-167
-168
-155
-159
-155
-148
-168
-177
-158
-170
-172
-163
-157
-150
-155
-161
-163
-150
-153
-156
-163
-172
-159
-151
-160
-169
-171
-164
-161
-164
-158
-154
-157
-166
-154
-155
-167
-147
-152
-150
-146
-165
-155
-161
-153
-155
-158
-144
-157
-162
-145
-144
-156
-149
-144
-134
-137
-144
-147
-151
-152
-154
-139
-135
-149
-156
-138
-135
-140
-154
-144
-152
-158
-155
-154
-167
-164
-147
-146
-160
-152
-155
-152
-164
-160
-161
-147
-155
-157
-168
-155
-166
-165
-144
-159
-153
-151
-147
-163
-154
-174
-169
-148
-174
-164
-169
-154
-150
-147
-150
-162
-153
-157
-169
-176
-163
-154
-134
-122
-129
-116
-91
-83
-64
-77
-98
-116
-135
-145
-155
-176
-194
-204
-191
-200
-184
-181
-172
-174
-175
-156
-156
-160
-169
-165
-162
-155
-155
-152
-148
-145
-154
-144
-147
-171
-167
-170
-152
-142
-146
-155
-156
-138
-159
-158
-157
-160
-158
-155
-139
-147
-145
-146
-156
-159
-144
-143
-142
-150
-148
-143
-158
-135
-152
-147
-132
-139
-152
-143
-150
-151
-147
-155
-156
-155
-140
-150
-141
-145
-143
-152
-153
-153
-135
-138
-147
-151
-135
-125
-138
-143
-149
-139
-140
-132
-131
-129
-141
-135
-129
-134
-134
-146
-134
-146
-136
-138
-134
-134
-122
-115
-125
-145
-129
-116
-111
-121
-115
-113
-117
-129
-111
-102
-104
-135
-112
-106
-108
-112
-117
-114
-109
-113
-103
-114
-116
-112
-117
-100
-110
-110
-104
-103
-106
-120
-114
-111
-120
-125
-120
-126
-116
-118
-143
-129
-117
-119
-121
-150
-156
-138
-142
-148
-140
-143
-145
-150
-151
-141
-143
-146
-153
-160
-164
-142
-147
-151
-148
-161
-154
-148
-162
-153
-161
-147
-159
-153
-147
-144
-166
-167
-156
-148
-152
-154
-147
-160
-161
-160
-142
-155
-159
-149
-160
-161
-152
-152
-143
-157
-162
-152
-154
-148
-154
-150
-157
-169
-163
-164
-159
-161
-144
-143
-143
-145
-164
-161
-151
-151
-151
-156
-160
-151
-152
-143
-155
-165
-146
-148
-151
-164
-157
-145
-160
-157
-150
-153
-150
-145
-143
-136
-169
-174
-162
-160
-150
-151
-139
-136
-162
-181
-167
-162
-161
-155
-156
-163
-165
-158
-152
-160
-162
-157
-154
-158
-163
-160
-157
-160
-154
-154
-160
-167
-150
-158
-162
-148
-159
-167
-170
-164
-152
-159
-168
-163
-158
-162
-159
-159
-175
-183
-163
-162
-164
-174
-172
-173
-173
-167
-169
-171
-167
-166
-163
-166
-154
-161
-162
-187
-178
-177
-179
-182
-180
-171
-164
-163
-159
-172
-166
-169
-159
-171
-171
-171
-174
-168
-171
-167
-177
-179
-173
-166
-168
-181
-179
-171
-170
-179
-166
-173
-174
-178
-174
-178
-173
-184
-174
-168
-174
-179
-177
-161
-168
-172
-182
-182
-166
-175
-179
-174
-178
-172
-175
-178
-173
-161
-189
-188
-182
-174
-171
-175
-171
-183
-179
-184
-169
-183
-181
-169
-185
-184
-178
-192
-192
-179
-168
-176
-168
-174
-181
-184
-186
-184
-176
-169
-173
-170
-175
-178
-186
-193
-162
-172
-178
-176
-173
-175
-175
-173
-170
-169
-169
-175
-163
-163
-162
-157
-167
-176
-170
-162
-173
-163
-151
-165
-170
-175
-173
-174
-170
-184
-180
-179
-164
-158
-175
-174
-177
-194
-168
-174
-171
-169
-169
-174
-173
-179
-171
-174
-178
-187
-180
-184
-183
-184
-168
-166
-175
-173
-171
-169
-184
-176
-183
-171
-171
-177
-164
-166
-176
-177
-179
-171
-170
-170
-159
-162
-150
-147
-118
-106
-81
-89
-106
-136
-165
-172
-168
-190
-196
-209
-206
-205
-199
-189
-204
-192
-187
-182
-174
-179
-189
-176
-155
-172
-166
-164
-159
-158
-166
-168
-170
-170
-171
-155
-142
-152
-169
-166
-156
-148
-168
-155
-149
-152
-169
-183
-181
-162
-149
-148
-156
-157
-154
-145
-136
-169
-157
-156
-157
-165
-170
-155
-145
-137
-137
-155
-145
-156
-167
-154
-160
-150
-146
-150
-148
-143
-148
-140
-142
-157
-146
-149
-156
-151
-147
-144
-155
-157
-152
-135
-111
-121
-153
-169
-152
-142
-138
-148
-146
-148
-124
-139
-142
-127
-122
-136
-152
-140
-116
-122
-123
-140
-127
-126
-139
-122
-112
-117
-114
-130
-122
-127
-113
-101
-83
-78
-124
-131
-127
-117
-117
-112
-113
-110
-113
-104
-116
-100
-118
-117
-112
-106
-114
-89
-83
-85
-132
-158
-141
-129
-138
-133
-121
-121
-136
-132
-145
-155
-152
-137
-144
-141
-150
-151
-145
-159
-158
-140
-162
-149
-142
-128
-146
-160
-155
-156
-149
-140
-158
-155
-162
-160
-161
-158
-158
-158
-147
-140
-158
-158
-168
-147
-150
-155
-165
-143
-147
-146
-150
-157
-145
-139
-141
-146
-141
-144
-152
-165
-165
-163
-160
-158
-150
-149
-148
-147
-133
-133
-154
-155
-157
-164
-158
-145
-153
-150
-152
-139
-137
-145
-155
-164
-156
-161
-146
-145
-156
-139
-144
-143
-149
-146
-146
-150
-160
-158
-167
-159
-142
-144
-153
-153
-146
-139
-142
-146
-142
-142
-138
-149
-154
-149
-150
-153
-170
-164
-156
-150
-139
-153
-153
-149
-153
-159
-153
-142
-156
-147
-149
-152
-148
-139
-165
-149
-140
-141
-150
-159
-145
-147
-160
-142
-159
-144
-136
-150
-158
-153
-153
-154
-144
-147
-149
-124
-147
-154
-164
-158
-149
-144
-146
-160
-153
-155
-157
-149
-125
-132
-131
-137
-144
-155
-156
-139
-144
-156
-150
-141
-142
-133
-119
-130
-141
-136
-129
-143
-157
-127
-126
-119
-125
-138
-133
-142
-143
-138
-148
-148
-151
-141
-144
-161
-140
-149
-145
-153
-155
-150
-144
-132
-145
-151
-143
-150
-149
-148
-154
-150
-148
-146
-138
-137
-149
-156
-141
-153
-152
-160
-134
-146
-144
-140
-150
-140
-137
-155
-162
-156
-151
-154
-137
-121
-105
-110
-94
-85
-70
-82
-93
-109
-142
-150
-148
-148
-169
-191
-174
-177
-173
-168
-160
-157
-149
-153
-150
-156
-160
-154
-143
-138
-138
-135
-147
-142
-142
-164
-149
-142
-146
-142
-139
-136
-139
-141
-155
-134
-139
-134
-131
-136
-144
-126
-128
-136
-143
-146
-145
-136
-134
-132
-135
-139
-132
-135
-141
-140
-133
-130
-131
-117
-129
-147
-134
-130
-119
-121
-126
-135
-146
-140
-131
-134
-143
-138
-125
-122
-133
-132
-133
-127
-117
-129
-133
-124
-116
-116
-121
-133
-130
-129
-125
-119
-120
-129
-123
-122
-120
-108
-110
-116
-130
-116
-119
-121
-112
-108
-103
-107
-111
-99
-114
-94
-111
-93
-83
-100
-104
-105
-107
-107
-97
-86
-83
-83
-108
-101
-91
-97
-88
-88
-93
-89
-94
-101
-108
-112
-101
-96
-96
-93
-111
-114
-109
-107
-103
-121
-135
-121
-121
-118
-124
-137
-131
-128
-133
-127
-119
-131
-119
-127
-145
-133
-140
-134
-146
-147
-137
-122
-129
-143
-139
-132
-128
-147
-145
-139
-142
-143
-147
-149
-144
-135
-137
-136
-132
-144
-142
-137
-142
-146
-140
-149
-128
-123
-124
-144
-146
-146
-131
-141
-146
-123
-128
-143
-143
-140
-133
-122
-145
-133
-139
-137
-138
-141
-134
-135
-149
-133
-134
-142
-137
-134
-145
-143
-136
-123
-136
-143
-148
-133
-131
-123
-136
-148
-128
-134
-143
-135
-140
-126
-142
-130
-134
-141
-144
-151
-137
-130
-131
-138
-134
-137
-137
-146
-129
-144
-127
-127
-134
-146
-139
-133
-142
-137
-141
-138
-141
-143
-139
-123
-136
-143
-146
-140
-137
-130
-134
-144
-119
-130
-130
-134
-147
-152
-136
-130
-134
-147
-143
-139
-129
-131
-138
-136
-148
-147
-148
-140
-134
-143
-133
-132
-126
-127
-145
-131
-141
-141
-131
-140
-128
-121
-124
-117
-121
-128
-116
-116
-135
-141
-129
-134
-121
-126
-130
-120
-118
-122
-114
-131
-140
-125
-121
-139
-133
-127
-131
-143
-134
-123
-124
-142
-137
-139
-139
-143
-140
-138
-133
-141
-139
-138
-142
-142
-136
-147
-125
-140
-142
-133
-147
-146
-130
-135
-137
-140
-132
-134
-131
-138
-117
-110
-127
-145
-150
-155
-145
-138
-119
-120
-95
-81
-80
-73
-79
-74
-75
-97
-128
-141
-154
-147
-153
-158
-163
-164
-171
-163
-155
-148
-141
-135
-131
-134
-144
-147
-137
-135
-138
-144
-133
-127
-128
-132
-133
-136
-126
-136
-134
-118
-130
-139
-143
-136
-124
-124
-122
-126
-128
-133
-129
-139
-136
-125
-113
-124
-119
-121
-133
-144
-138
-124
-123
-129
-112
-116
-128
-127
-127
-116
-117
-131
-143
-127
-110
-125
-113
-118
-123
-121
-134
-113
-119
-144
-129
-121
-123
-123
-114
-112
-134
-125
-119
-116
-116
-125
-124
-121
-115
-112
-113
-115
-107
-106
-116
-113
-113
-111
-105
-116
-118
-115
-126
-100
-104
-100
-97
-101
-98
-101
-102
-96
-71
-91
-102
-99
-96
-91
-92
-92
-95
-89
-84
-75
-81
-97
-102
-98
-95
-88
-89
-93
-102
-100
-97
-94
-105
-104
-86
-104
-114
-113
-98
-111
-132
-112
-115
-124
-121
-128
-141
-120
-117
-129
-124
-128
-132
-136
-138
-136
-128
-137
-137
-130
-131
-120
-126
-134
-133
-128
-138
-124
-136
-120
-123
-136
-130
-133
-144
-149
-113
-116
-145
-142
-123
-131
-146
-146
-133
-143
-146
-124
-123
-129
-126
-121
-135
-137
-129
-131
-137
-133
-132
-131
-129
-140
-122
-135
-116
-134
-128
-118
-137
-126
-131
-145
-146
-134
-136
-134
-133
-121
-133
-129
-130
-118
-130
-135
-136
-132
-131
-137
-133
-121
-135
-137
-137
-123
-118
-131
-145
-133
-133
-136
-125
-120
-120
-120
-122
-136
-147
-137
-130
-133
-140
-141
-117
-126
-128
-134
-137
-124
-130
-124
-126
-138
-135
-149
-127
-139
-138
-136
-123
-126
-130
-125
-122
-129
-140
-129
-134
-138
-134
-135
-135
-116
-116
-145
-131
-129
-131
-124
-123
-143
-136
-140
-139
-127
-130
-144
-134
-130
-133
-118
-126
-128
-139
-132
-133
-122
-125
-124
-130
-133
-132
-139
-137
-134
-140
-136
-130
-124
-138
-133
-129
-112
-127
-138
-129
-135
-134
-118
-118
-121
-126
-119
-118
-126
-123
-122
-127
-115
-131
-112
-111
-131
-130
-120
-116
-116
-111
-116
-130
-121
-123
-115
-120
-137
-124
-113
-122
-120
-134
-133
-130
-132
-133
-136
-120
-118
-121
-127
-148
-139
-128
-115
-132
-136
-137
-141
-141
-131
-132
-127
-128
-128
-126
-125
-125
-142
-133
-132
-130
-127
-133
-135
-127
-128
-131
-139
-128
-131
-126
-106
-96
-105
-105
-92
-74
-62
-52
-62
-84
-102
-114
-126
-126
-144
-161
-156
-165
-171
-160
-154
-144
-142
-141
-136
-140
-127
-131
-132
-138
-129
-128
-132
-119
-116
-118
-125
-131
-141
-129
-121
-116
-126
-118
-130
-135
-135
-120
-134
-124
-120
-130
-125
-126
-129
-125
-117
-117
-121
-121
-121
-112
-116
-134
-124
-117
-144
-131
-117
-112
-117
-128
-114
-99
-118
-118
-121
-125
-116
-122
-125
-110
-122
-117
-110
-110
-111
-117
-96
-112
-135
-128
-119
-109
-119
-111
-115
-106
-110
-116
-105
-117
-115
-104
-95
-108
-91
-95
-100
-86
-109
-116
-101
-102
-117
-104
-98
-101
-97
-100
-89
-95
-97
-86
-84
-81
-79
-83
-72
-73
-86
-80
-77
-83
-76
-64
-92
-100
-76
-86
-82
-88
-68
-72
-95
-84
-92
-86
-74
-83
-96
-88
-95
-81
-97
-99
-82
-96
-114
-126
-119
-116
-121
-129
-108
-102
-107
-111
-119
-128
-117
-124
-124
-124
-114
-119
-114
-120
-96
-132
-137
-126
-121
-117
-119
-119
-117
-119
-128
-114
-117
-122
-118
-114
-126
-125
-128
-130
-117
-126
-125
-122
-118
-101
-121
-121
-124
-120
-121
-125
-121
-109
-115
-101
-118
-116
-129
-128
-134
-130
-125
-122
-123
-131
-116
-99
-116
-129
-108
-107
-113
-122
-129
-122
-128
-120
-125
-115
-105
-107
-111
-123
-120
-128
-115
-123
-131
-119
-111
-127
-132
-121
-116
-118
-120
-91
-106
-135
-134
-135
-112
-109
-113
-115
-122
-136
-120
-115
-123
-128
-120
-123
-108
-108
-108
-140
-126
-126
-132
-114
-114
-120
-129
-123
-130
-126
-113
-124
-134
-125
-126
-122
-119
-116
-116
-111
-108
-130
-132
-128
-128
-133
-124
-128
-119
-121
-127
-121
-126
-131
-125
-120
-116
-122
-129
-134
-123
-116
-109
-117
-113
-133
-134
-123
-130
-126
-136
-132
-123
-106
-111
-142
-137
-127
-127
-123
-117
-120
-123
-143
-132
-126
-128
-131
-124
-121
-122
-131
-133
-128
-131
-113
-107
-134
-132
-118
-121
-138
-143
-130
-146
-133
-124
-123
-127
-132
-124
-133
-128
-137
-124
-131
-138
-133
-131
-133
-125
-131
-123
-138
-135
-128
-112
-102
-128
-150
-140
-144
-134
-143
-141
-137
-133
-127
-124
-126
-142
-142
-123
-125
-134
-134
-141
-136
-140
-127
-132
-134
-125
-130
-130
-122
-140
-151
-141
-138
-121
-135
-136
-127
-121
-136
-140
-132
-132
-126
-123
-106
-126
-128
-123
-114
-129
-135
-127
-129
-141
-140
-123
-119
-103
-132
-154
-138
-142
-139
-131
-144
-152
-139
-138
-149
-142
-137
-138
-147
-136
-139
-150
-141
-133
-135
-155
-153
-143
-139
-152
-153
-141
-141
-155
-145
-134
-154
-140
-145
-137
-137
-129
-132
-147
-147
-146
-157
-138
-147
-139
-132
-131
-117
-105
-93
-82
-82
-80
-72
-89
-138
-150
-155
-155
-166
-166
-190
-193
-186
-180
-172
-166
-157
-152
-150
-155
-160
-145
-148
-160
-167
-155
-150
-145
-143
-153
-146
-154
-140
-159
-162
-159
-161
-148
-137
-133
-160
-152
-163
-154
-160
-148
-144
-145
-158
-160
-159
-143
-148
-148
-144
-155
-161
-149
-135
-153
-158
-162
-150
-163
-160
-155
-145
-148
-149
-152
-159
-154
-142
-145
-148
-145
-152
-141
-143
-160
-159
-150
-149
-148
-141
-138
-138
-141
-149
-153
-155
-150
-152
-147
-143
-141
-141
-140
-136
-146
-145
-140
-149
-146
-140
-143
-134
-133
-140
-137
-130
-139
-130
-131
-133
-114
-132
-137
-141
-126
-123
-112
-120
-125
-126
-134
-134
-130
-120
-122
-123
-133
-120
-114
-139
-121
-118
-121
-126
-113
-124
-113
-110
-137
-149
-144
-146
-129
-127
-135
-152
-153
-154
-152
-160
-155
-147
-170
-172
-160
-155
-155
-156
-162
-173
-165
-161
-172
-178
-171
-165
-169
-164
-171
-167
-162
-167
-181
-177
-174
-170
-168
-173
-174
-174
-172
-167
-170
-166
-169
-184
-183
-171
-177
-175
-175
-168
-171
-169
-180
-171
-175
-184
-172
-174
-179
-168
-165
-180
-176
-176
-174
-172
-163
-174
-185
-179
-170
-172
-167
-168
-172
-159
-172
-192
-184
-174
-180
-188
-168
-168
-176
-176
-178
-177
-183
-181
-173
-170
-183
-183
-178
-166
-167
-176
-177
-170
-177
-192
-196
-174
-182
-186
-182
-175
-185
-186
-183
-181
-175
-176
-183
-180
-184
-177
-179
-189
-170
-174
-194
-182
-181
-183
-176
-172
-164
-198
-191
-188
-179
-185
-203
-181
-180
-182
-190
-189
-188
-184
-178
-181
-181
-188
-178
-180
-180
-185
-193
-183
-184
-178
-186
-184
-189
-197
-179
-175
-162
-167
-201
-180
-165
-183
-199
-185
-185
-185
-179
-168
-182
-192
-184
-175
-178
-193
-187
-178
-187
-182
-187
-191
-169
-165
-170
-182
-181
-179
-176
-185
-180
-182
-190
-186
-181
-184
-183
-187
-183
-185
-176
-191
-181
-174
-177
-185
-175
-171
-180
-169
-166
-177
-192
-184
-184
-184
-191
-176
-171
-184
-194
-191
-175
-173
-181
-192
-174
-168
-189
-186
-180
-188
-179
-162
-168
-169
-168
-177
-192
-176
-167
-185
-192
-184
-182
-177
-186
-181
-179
-170
-174
-178
-156
-176
-172
-166
-174
-162
-163
-169
-164
-171
-170
-165
-156
-163
-169
-165
-161
-167
-171
-159
-175
-191
-190
-177
-185
-184
-183
-181
-186
-182
-178
-181
-165
-170
-182
-185
-181
-180
-171
-172
-187
-183
-186
-194
-183
-178
-185
-186
-198
-172
-184
-187
-172
-178
-176
-179
-186
-182
-180
-173
-183
-191
-192
-187
-187
-182
-175
-171
-163
-163
-137
-120
-117
-131
-142
-160
-207
-201
-203
-204
-209
-224
-220
-210
-213
-219
-220
-210
-187
-194
-201
-172
-184
-187
-195
-187
-168
-183
-188
-186
-190
-194
-170
-173
-181
-191
-178
-179
-178
-175
-166
-166
-188
-188
-181
-177
-179
-182
-172
-175
-165
-176
-187
-186
-170
-172
-174
-184
-174
-180
-180
-172
-167
-169
-170
-162
-162
-164
-174
-179
-164
-156
-169
-177
-169
-171
-165
-156
-166
-174
-167
-171
-154
-162
-165
-147
-173
-154
-163
-171
-164
-148
-151
-159
-160
-165
-169
-154
-145
-136
-146
-157
-163
-144
-140
-158
-148
-162
-134
-140
-143
-131
-142
-134
-144
-139
-121
-121
-127
-131
-131
-133
-123
-114
-111
-114
-130
-129
-142
-118
-111
-111
-111
-120
-127
-125
-120
-115
-124
-121
-105
-122
-129
-110
-121
-140
-126
-125
-125
-133
-140
-154
-134
-136
-145
-142
-139
-150
-147
-149
-144
-154
-150
-141
-143
-166
-164
-164
-171
-159
-162
-173
-169
-156
-167
-159
-158
-161
-169
-166
-172
-152
-162
-161
-170
-167
-158
-163
-167
-183
-163
-165
-159
-164
-175
-166
-160
-155
-150
-157
-150
-160
-150
-159
-159
-160
-181
-166
-160
-165
-159
-159
-162
-164
-161
-154
-151
-143
-154
-179
-163
-154
-162
-162
-164
-172
-155
-148
-169
-175
-165
-159
-153
-168
-178
-174
-157
-152
-163
-167
-166
-162
-164
-159
-155
-167
-158
-156
-144
-141
-178
-177
-166
-153
-158
-175
-176
-164
-158
-161
-164
-162
-162
-163
-168
-176
-173
-159
-157
-161
-168
-165
-162
-165
-176
-168
-165
-159
-160
-151
-166
-171
-168
-161
-166
-159
-158
-165
-160
-156
-159
-148
-149
-167
-174
-157
-165
-169
-162
-149
-151
-174
-172
-161
-163
-152
-163
-169
-163
-156
-155
-155
-174
-159
-153
-162
-151
-157
-159
-155
-165
-161
-167
-178
-163
-162
-173
-156
-161
-159
-155
-149
-160
-169
-165
-172
-162
-157
-154
-161
-165
-170
-160
-156
-167
-167
-159
-150
-169
-159
-164
-164
-152
-153
-159
-151
-159
-158
-167
-174
-164
-175
-172
-166
-163
-169
-163
-165
-162
-150
-161
-168
-166
-159
-167
-162
-157
-155
-184
-174
-162
-158
-157
-157
-159
-152
-153
-162
-160
-159
-160
-154
-157
-160
-153
-152
-157
-150
-135
-142
-157
-145
-147
-150
-149
-162
-177
-165
-164
-160
-165
-163
-162
-170
-169
-162
-159
-164
-160
-168
-174
-166
-173
-160
-173
-169
-167
-160
-169
-162
-163
-175
-188
-179
-173
-176
-172
-174
-178
-174
-173
-171
-176
-165
-165
-151
-173
-167
-170
-176
-180
-175
-173
-159
-151
-144
-133
-116
-114
-108
-110
-116
-152
-165
-165
-174
-183
-198
-209
-207
-204
-203
-194
-186
-181
-183
-195
-175
-169
-173
-187
-176
-170
-172
-170
-173
-174
-174
-170
-167
-175
-163
-166
-179
-172
-173
-161
-174
-170
-171
-170
-171
-169
-150
-150
-160
-161
-168
-169
-167
-167
-165
-169
-176
-178
-172
-170
-172
-176
-169
-165
-162
-163
-161
-166
-166
-176
-174
-159
-149
-161
-172
-161
-157
-167
-172
-187
-199
-175
-166
-178
-180
-166
-173
-168
-167
-161
-166
-169
-162
-172
-172
-162
-161
-166
-156
-152
-156
-159
-159
-166
-167
-169
-173
-150
-161
-161
-157
-166
-152
-151
-147
-150
-139
-133
-146
-140
-147
-144
-141
-139
-142
-158
-145
-146
-138
-133
-142
-145
-146
-136
-128
-142
-130
-133
-124
-135
-128
-135
-146
-146
-143
-153
-144
-147
-148
-151
-143
-148
-156
-159
-157
-152
-159
-173
-187
-182
-179
-170
-180
-171
-166
-178
-182
-173
-173
-176
-179
-173
-183
-169
-183
-183
-178
-176
-177
-178
-174
-162
-175
-180
-174
-165
-176
-173
-192
-200
-181
-192
-179
-186
-186
-165
-179
-186
-176
-176
-175
-178
-174
-177
-179
-172
-179
-184
-185
-182
-192
-197
-178
-176
-178
-173
-176
-179
-167
-184
-194
-176
-178
-180
-170
-183
-179
-185
-190
-169
-167
-164
-172
-183
-178
-177
-179
-173
-169
-185
-175
-182
-179
-177
-187
-177
-176
-169
-168
-187
-182
-180
-174
-180
-170
-179
-178
-184
-185
-174
-183
-175
-175
-166
-172
-172
-175
-183
-178
-176
-174
-176
-171
-174
-185
-183
-173
-176
-170
-163
-167
-176
-190
-185
-176
-172
-175
-172
-174
-179
-169
-185
-182
-182
-186
-177
-178
-163
-172
-185
-179
-177
-171
-185
-182
-184
-172
-176
-166
-161
-164
-186
-189
-177
-176
-174
-172
-178
-178
-172
-181
-171
-178
-167
-168
-188
-189
-177
-178
-172
-177
-175
-169
-172
-189
-189
-175
-173
-181
-185
-164
-161
-187
-179
-174
-174
-181
-179
-179
-184
-180
-177
-177
-175
-156
-179
-175
-174
-172
-177
-170
-173
-166
-177
-189
-187
-187
-177
-173
-166
-173
-175
-174
-174
-171
-176
-176
-167
-175
-176
-179
-165
-178
-170
-173
-163
-166
-171
-168
-160
-162
-176
-164
-190
-187
-178
-182
-172
-166
-167
-182
-174
-175
-172
-153
-166
-167
-167
-177
-176
-168
-167
-155
-163
-160
-173
-169
-173
-172
-185
-160
-153
-159
-157
-160
-160
-163
-157
-148
-152
-159
-167
-153
-161
-167
-166
-150
-152
-166
-157
-153
-135
-137
-153
-173
-157
-163
-167
-152
-155
-172
-173
-162
-164
-169
-176
-170
-157
-157
-154
-156
-182
-171
-173
-163
-167
-174
-168
-161
-173
-163
-166
-157
-159
-162
-168
-173
-173
-166
-157
-168
-185
-166
-147
-150
-139
-154
-166
-165
-159
-162
-156
-140
-140
-112
-107
-94
-86
-95
-118
-132
-153
-170
-166
-175
-177
-189
-191
-177
-179
-174
-190
-172
-178
-169
-162
-167
-160
-152
-159
-146
-170
-175
-166
-155
-155
-152
-161
-156
-165
-175
-150
-150
-154
-157
-151
-147
-155
-162
-162
-156
-155
-171
-151
-156
-154
-156
-158
-155
-150
-154
-135
-149
-152
-146
-148
-150
-158
-149
-158
-159
-153
-155
-140
-133
-139
-150
-150
-165
-161
-145
-154
-149
-146
-140
-146
-151
-156
-136
-135
-138
-142
-144
-129
-143
-138
-137
-134
-144
-159
-140
-150
-152
-147
-147
-137
-133
-132
-135
-126
-131
-124
-122
-127
-124
-117
-138
-139
-132
-133
-127
-122
-123
-101
-115
-110
-90
-114
-135
-125
-116
-121
-116
-113
-106
-118
-121
-108
-103
-104
-109
-108
-101
-93
-104
-115
-112
-109
-115
-112
-115
-112
-121
-123
-121
-129
-130
-128
-119
-121
-128
-129
-140
-150
-142
-130
-143
-142
-150
-149
-146
-146
-138
-140
-150
-146
-139
-135
-142
-136
-152
-148
-149
-152
-152
-152
-133
-125
-142
-169
-158
-154
-143
-145
-151
-133
-141
-145
-160
-159
-145
-144
-157
-135
-135
-155
-149
-156
-158
-144
-138
-135
-129
-130
-132
-150
-166
-151
-147
-153
-139
-139
-148
-149
-139
-133
-139
-151
-153
-140
-133
-132
-149
-154
-144
-141
-143
-155
-145
-127
-128
-132
-147
-150
-144
-155
-146
-138
-136
-136
-148
-142
-149
-144
-145
-136
-129
-154
-151
-138
-144
-142
-131
-136
-137
-138
-142
-145
-127
-152
-140
-132
-135
-135
-132
-139
-146
-155
-157
-152
-148
-143
-137
-148
-144
-143
-140
-141
-150
-131
-129
-126
-125
-139
-149
-132
-139
-132
-147
-142
-141
-145
-141
-138
-147
-139
-139
-126
-135
-138
-132
-140
-133
-138
-141
-136
-136
-139
-137
-140
-136
-132
-122
-134
-146
-129
-131
-133
-135
-133
-128
-137
-142
-137
-130
-118
-125
-120
-138
-141
-145
-143
-138
-132
-133
-131
-129
-127
-137
-143
-139
-134
-120
-121
-135
-134
-133
-136
-131
-128
-135
-141
-130
-133
-144
-144
-129
-126
-144
-138
-129
-132
-126
-132
-136
-139
-126
-129
-120
-122
-136
-143
-141
-132
-124
-132
-128
-125
-135
-136
-129
-139
-133
-117
-129
-124
-134
-131
-126
-148
-149
-130
-128
-136
-118
-122
-130
-135
-131
-131
-120
-122
-132
-117
-128
-127
-126
-122
-120
-112
-116
-118
-117
-111
-123
-130
-121
-126
-124
-113
-116
-111
-108
-111
-114
-116
-111
-107
-125
-115
-112
-128
-131
-107
-118
-120
-128
-126
-131
-107
-124
-115
-123
-129
-113
-113
-127
-140
-128
-128
-137
-138
-125
-129
-127
-125
-124
-124
-108
-113
-119
-122
-128
-124
-134
-130
-129
-126
-128
-125
-123
-123
-115
-106
-117
-118
-112
-115
-105
-81
-90
-57
-50
-44
-41
-60
-88
-106
-115
-125
-138
-145
-152
-148
-156
-152
-155
-149
-132
-127
-125
-120
-118
-131
-131
-130
-123
-128
-113
-109
-114
-119
-117
-111
-111
-101
-117
-114
-121
-115
-142
-110
-107
-109
-109
-101
-107
-105
-125
-118
-125
-99
-111
-120
-109
-117
-114
-119
-112
-120
-113
-111
-109
-110
-102
-90
-86
-104
-127
-121
-120
-113
-114
-118
-113
-103
-114
-105
-114
-120
-107
-97
-102
-112
-100
-91
-108
-102
-114
-113
-100
-103
-102
-99
-86
-89
-103
-107
-109
-110
-95
-91
-98
-89
-93
-88
-85
-91
-92
-77
-85
-80
-80
-78
-73
-75
-62
-81
-89
-80
-67
-55
-66
-76
-68
-69
-78
-67
-66
-61
-57
-60
-58
-63
-61
-52
-57
-55
-58
-53
-53
-68
-55
-50
-41
-57
-70
-70
-84
-90
-75
-73
-71
-69
-76
-85
-87
-91
-95
-84
-82
-87
-87
-94
-93
-91
-89
-97
-96
-85
-91
-106
-96
-100
-99
-105
-105
-102
-98
-106
-103
-94
-95
-103
-103
-87
-97
-100
-94
-100
-94
-112
-94
-94
-102
-89
-96
-109
-101
-112
-108
-96
-88
-93
-109
-96
-92
-104
-109
-86
-100
-93
-100
-99
-97
-98
-109
-93
-86
-78
-82
-79
-90
-104
-112
-98
-98
-97
-102
-106
-94
-104
-92
-91
-87
-93
-85
-74
-83
-89
-104
-92
-84
-108
-101
-93
-88
-87
-81
-86
-98
-98
-100
-79
-83
-75
-85
-93
-104
-107
-86
-94
-101
-100
-96
-88
-85
-78
-84
-90
-92
-96
-79
-89
-92
-103
-100
-97
-99
-85
-83
-77
-87
-87
-80
-86
-81
-89
-93
-98
-88
-96
-97
-81
-78
-88
-78
-88
-85
-85
-99
-94
-91
-91
-87
-78
-81
-91
-82
-81
-86
-85
-78
-79
-94
-90
-90
-87
-87
-81
-74
-71
-83
-101
-91
-87
-88
-81
-98
-85
-72
-79
-88
-78
-73
-79
-75
-91
-92
-86
-90
-89
-75
-82
-72
-84
-95
-88
-74
-83
-80
-72
-88
-93
-78
-89
-92
-77
-78
-90
-78
-69
-72
-81
-86
-81
-86
-71
-66
-97
-90
-83
-72
-88
-91
-73
-79
-72
-58
-46
-57
-73
-82
-76
-79
-84
-82
-79
-71
-69
-73
-75
-60
-60
-60
-69
-83
-62
-65
-68
-70
-72
-80
-65
-67
-65
-85
-83
-78
-84
-94
-93
-88
-68
-56
-63
-81
-93
-78
-67
-69
-82
-59
-83
-105
-89
-89
-78
-62
-77
-72
-67
-78
-79
-84
-80
-83
-85
-73
-65
-74
-88
-79
-79
-78
-92
-83
-73
-63
-54
-40
-23
-16
-16
-28
-50
-55
-90
-99
-90
-92
-93
-101
-115
-129
-128
-113
-118
-94
-93
-79
-85
-88
-78
-81
-68
-51
-57
-74
-71
-67
-81
-72
-77
-79
-67
-64
-64
-72
-62
-63
-62
-66
-69
-76
-75
-52
-52
-62
-47
-57
-60
-54
-56
-65
-51
-59
-53
-58
-66
-70
-50
-51
-58
-53
-70
-58
-56
-57
-56
-44
-51
-58
-66
-57
-51
-50
-47
-42
-46
-41
-41
-58
-53
-55
-54
-42
-37
-50
-52
-49
-42
-38
-43
-37
-42
-57
-43
-60
-47
-44
-37
-33
-28
-43
-36
-41
-37
-34
-45
-29
-16
-23
-44
-34
-29
-24
-30
-20
-15
-22
-23
-18
-12
-27
-27
-22
-15
-13
-26
-8
-2
-11
-26
-11
-8
-14
-9
-14
-3
-10
-18
-11
3
1
-24
-23
-27
-27
-25
-25
-25
-18
-29
-18
-45
-43
-36
-39
-48
-47
-37
-29
-43
-59
-42
-36
-54
-50
-58
-49
-57
-52
-56
-43
-54
-37
-34
-62
-55
-49
-46
-38
-44
-53
-60
-56
-54
-51
-52
-44
-48
-65
-56
-58
-36
-51
-44
-51
-39
-40
-66
-54
-56
-52
-48
-47
-49
-42
-47
-50
-43
-56
-52
-41
-47
-40
-45
-37
-29
-32
-38
-48
-53
-68
-48
-52
-49
-41
-53
-40
-45
-45
-66
-57
-38
-35
-56
-49
-50
-46
-42
-48
-68
-50
-24
-31
-49
-59
-52
-37
-32
-45
-46
-58
-57
-46
-47
-54
-52
-50
-58
-45
-38
-31
-32
-54
-52
-50
-53
-51
-50
-55
-40
-44
-34
-37
-43
-57
-58
-56
-55
-52
-51
-51
-44
-55
-57
-53
-52
-42
-45
-54
-53
-45
-43
-38
-43
-47
-36
-34
-48
-52
-42
-70
-45
-52
-51
-52
-52
-47
-43
-56
-54
-63
-50
-48
-51
-46
-39
-45
-64
-54
-58
-50
-43
-40
-39
-52
-58
-54
-51
-49
-45
-50
-57
-58
-58
-56
-43
-48
-53
-50
-37
-40
-50
-46
-32
-42
-50
-47
-43
-47
-38
-36
-48
-42
-44
-43
-53
-42
-40
-39
-38
-24
-35
-46
-42
-22
-37
-50
-46
-50
-42
-52
-58
-60
-46
-38
-36
-42
-32
-33
-54
-61
-62
-56
-62
-55
-52
-56
-51
-40
-40
-41
-49
-55
-54
-57
-55
-54
-46
-46
-43
-63
-50
-43
-43
-46
-57
-45
-47
-64
-59
-53
-53
-55
-39
-30
-28
-12
5
0
19
10
-6
-34
-51
-57
-48
-68
-73
-92
-76
-80
-87
-84
-65
-60
-57
-74
-62
-69
-56
-47
-43
-48
-62
-50
-47
-54
-54
-50
-31
-33
-39
-38
-44
-55
-49
-45
-48
-57
-50
-46
-35
-32
-47
-41
-47
-44
-50
-52
-47
-39
-34
-38
-46
-44
-36
-31
-40
-49
-36
-28
-44
-45
-34
-38
-44
-54
-53
-53
-43
-40
-36
-34
-36
-31
-40
-48
-40
-45
-25
-36
-36
-38
-33
-43
-47
-30
-21
-25
-35
-32
-26
-41
-31
-28
-36
-30
-25
-40
-36
-27
-31
-24
-37
-18
-25
-30
-16
-24
-20
-11
-21
-12
-28
-29
-25
-9
-2
-1
12
-6
-24
-23
-18
-12
-3
-2
-14
-9
2
1
-5
-2
-13
-14
-18
-8
-9
-22
-6
-7
-6
-6
-12
-2
-26
-18
-20
-32
-32
-33
-35
-36
-28
-31
-35
-38
-31
-37
-29
-44
-45
-47
-50
-51
-59
-43
-49
-46
-43
-41
-42
-34
-37
-55
-51
-43
-43
-44
-48
-52
-53
-42
-57
-46
-46
-57
-53
-54
-44
-44
-46
-53
-48
-47
-49
-40
-35
-42
-44
-53
-46
-37
-47
-32
-25
-44
-52
-41
-43
-48
-57
-52
-51
-50
-49
-49
-50
-46
-42
-42
-41
-39
-38
-60
-55
-42
-40
-51
-50
-46
-45
-41
-41
-36
-39
-36
-48
-45
-45
-30
-44
-57
-58
-62
-37
-46
-64
-46
-32
-39
-49
-50
-47
-42
-42
-48
-53
-51
-47
-48
-57
-46
-45
-46
-48
-46
-43
-51
-50
-46
-46
-54
-42
-34
-59
-62
-55
-38
-39
-58
-57
-64
-43
-35
-50
-53
-50
-45
-54
-60
-54
-55
-54
-53
-52
-49
-54
-51
-49
-37
-32
-63
-64
-52
-57
-60
-46
-41
-62
-55
-54
-48
-53
-51
-37
-40
-63
-60
-51
-45
-51
-44
-52
-53
-72
-49
-40
-48
-53
-42
-54
-44
-46
-42
-61
-61
-60
-64
-62
-54
-57
-56
-46
-59
-50
-48
-43
-48
-54
-57
-64
-52
-54
-47
-49
-51
-62
-63
-50
-57
-40
-59
-62
-53
-41
-54
-57
-61
-61
-50
-48
-55
-41
-42
-45
-49
-62
-41
-45
-65
-42
-29
-36
-49
-48
-50
-42
-38
-38
-34
-48
-50
-53
-32
-31
-40
-44
-43
-56
-58
-59
-39
-64
-65
-55
-56
-56
-57
-67
-64
-53
-51
-41
-51
-58
-62
-65
-62
-56
-58
-44
-47
-61
-61
-52
-62
-59
-58
-68
-57
-61
-61
-55
-51
-38
-59
-71
-60
-46
-53
-59
-44
-36
-43
-32
-23
-15
15
33
2
-25
-55
-55
-60
-67
-80
-80
-86
-88
-85
-87
-72
-66
-69
-67
-68
-62
-66
-62
-59
-58
-58
-70
-59
-53
-65
-54
-51
-52
-40
-50
-70
-66
-63
-57
-59
-54
-57
-56
-50
-52
-46
-45
-48
-51
-63
-49
-57
-58
-48
-54
-53
-60
-44
-32
-37
-50
-67
-60
-45
-49
-51
-34
-45
-55
-52
-55
-53
-44
-46
-59
-56
-43
-49
-52
-49
-49
-42
-50
-57
-56
-47
-40
-46
-48
-53
-51
-44
-28
-34
-47
-49
-37
-32
-42
-39
-41
-46
-42
-31
-37
-37
-31
-36
-31
-29
-30
-30
-33
-36
-36
-38
-24
-23
-24
-13
-25
-31
-26
-11
-12
-22
-24
-32
-24
-16
-16
-13
-18
-13
-16
-21
-11
-16
-22
-19
-11
-10
-24
-21
-26
-23
-27
-33
-34
-34
-38
-42
-41
-36
-42
-43
-47
-58
-48
-37
-37
-38
-33
-19
-49
-60
-58
-69
-70
-56
-58
-45
-57
-60
-64
-59
-59
-60
-60
-70
-58
-53
-64
-57
-49
-64
-54
-59
-53
-51
-45
-32
-58
-63
-79
-70
-59
-55
-65
-60
-52
-52
-54
-60
-75
-63
-65
-63
-62
-45
-36
-49
-43
-55
-70
-70
-68
-68
-66
-52
-37
-53
-62
-51
-56
-60
-59
-60
-48
-54
-53
-55
-68
-61
-65
-57
-47
-51
-51
-58
-54
-54
-54
-59
-54
-47
-52
-63
-68
-69
-59
-58
-43
-48
-59
-61
-62
-49
-42
-60
-70
-51
-52
-62
-53
-58
-76
-55
-47
-59
-57
-52
-54
-59
-68
-63
-54
-56
-70
-56
-45
-55
-40
-59
-64
-67
-68
-64
-65
-63
-64
-54
-56
-60
-56
-66
-60
-68
-62
-53
-52
-49
-58
-63
-60
-61
-53
-70
-68
-41
-57
-81
-72
-65
-60
-59
-54
-63
-61
-57
-62
-69
-64
-67
-60
-58
-60
-64
-64
-61
-62
-60
-68
-64
-62
-66
-66
-59
-54
-56
-61
-53
-66
-50
-35
-64
-77
-71
-58
-52
-59
-66
-78
-76
-70
-69
-58
-59
-71
-72
-68
-74
-55
-54
-51
-62
-72
-69
-60
-69
-52
-44
-59
-74
-72
-78
-71
-67
-63
-65
-63
-66
-61
-60
-68
-77
-53
-49
-53
-61
-55
-57
-51
-54
-60
-60
-61
-61
-53
-59
-57
-52
-63
-67
-52
-66
-45
-44
-56
-44
-58
-55
-63
-53
-49
-47
-53
-57
-65
-63
-50
-46
-59
-56
-58
-67
-77
-68
-76
-70
-70
-78
-70
-74
-92
-78
-68
-74
-78
-78
-82
-85
-64
-71
-86
-80
-70
-67
-65
-71
-68
-81
-73
-72
-66
-90
-80
-70
-86
-83
-70
-71
-80
-89
-84
-81
-73
-62
-64
-59
-62
-50
-46
-32
-20
-14
-32
-45
-58
-75
-89
-105
-104
-108
-111
-102
-99
-106
-112
-91
-83
-85
-92
-79
-92
-86
-82
-82
-103
-101
-88
-86
-81
-92
-84
-85
-85
-79
-78
-88
-81
-80
-80
-84
-81
-81
-75
-65
-86
-79
-65
-84
-90
-97
-102
-90
-84
-77
-78
-77
-92
-93
-96
-90
-85
-84
-83
-79
-87
-90
-87
-81
-80
-72
-79
-73
-73
-82
-88
-92
-87
-82
-87
-93
-88
-85
-81
-75
-86
-87
-82
-75
-88
-90
-83
-90
-83
-80
-77
-91
-82
-76
-83
-81
-83
-80
-74
-71
-70
-62
-71
-87
-84
-86
-83
-72
-76
-72
-79
-72
-72
-78
-64
-65
-72
-72
-73
-68
-63
-70
-51
-61
-67
-69
-74
-64
-70
-67
-58
-55
-67
-55
-65
-70
-70
-73
-59
-49
-63
-82
-88
-68
-90
-91
-105
-108
-106
-103
-93
-93
-97
-95
-113
-121
-111
-99
-107
-110
-116
-123
-119
-116
-119
-114
-113
-116
-112
-113
-122
-123
-118
-108
-118
-129
-107
-116
-122
-121
-109
-109
-101
-116
-133
-141
-141
-129
-128
-130
-108
-109
-124
-129
-129
-116
-126
-127
-134
-127
-127
-135
-128
-114
-106
-129
-120
-129
-122
-122
-127
-123
-128
-124
-123
-135
-120
-131
-123
-126
-137
-133
-131
-120
-123
-128
-118
-125
-128
-122
-122
-134
-121
-133
-127
-130
-128
-130
-126
-122
-125
-136
-120
-113
-115
-141
-140
-134
-140
-129
-134
-131
-133
-130
-132
-131
-142
-126
-116
-131
-134
-129
-138
-123
-129
-128
-125
-125
-140
-124
-142
-154
-148
-137
-136
-149
-137
-142
-140
-140
-139
-141
-133
-133
-139
-132
-143
-141
-147
-136
-140
-135
-143
-142
-137
-129
-129
-143
-139
-143
-137
-135
-137
-141
-147
-134
-141
-147
-149
-144
-147
-147
-138
-142
-141
-147
-135
-139
-136
-134
-125
-140
-134
-138
-140
-150
-144
-149
-136
-131
-143
-153
-146
-149
-150
-153
-141
-135
-149
-150
-147
-156
-148
-151
-144
-143
-144
-142
-136
-145
-149
-160
-155
-149
-154
-147
-151
-149
-143
-130
-147
-156
-167
-160
-152
-158
-145
-146
-149
-162
-153
-153
-159
-151
-158
-139
-145
-144
-156
-145
-143
-142
-145
-142
-142
-155
-139
-140
-129
-134
-149
-153
-137
-135
-128
-134
-141
-146
-142
-148
-154
-160
-149
-148
-143
-138
-148
-154
-148
-147
-152
-148
-156
-144
-134
-143
-156
-154
-146
-137
-151
-155
-168
-161
-156
-159
-157
-143
-144
-139
-151
-160
-138
-143
-165
-160
-163
-144
-153
-131
-143
-135
-151
-147
-156
-158
-139
-123
-115
-115
-112
-92
-76
-74
-75
-91
-95
-120
-131
-156
-155
-167
-177
-175
-188
-170
-163
-175
-158
-155
-158
-145
-147
-135
-135
-125
-125
-131
-140
-150
-156
-149
-129
-146
-144
-140
-132
-121
-134
-135
-143
-132
-143
-145
-141
-132
-136
-136
-114
-119
-136
-154
-138
-134
-132
-136
-123
-130
-129
-141
-136
-131
-127
-121
-120
-118
-125
-130
-130
-122
-134
-140
-128
-118
-117
-121
-124
-127
-122
-122
-122
-135
-128
-135
-128
-121
-116
-127
-121
-112
-113
-117
-104
-101
-111
-93
-96
-112
-117
-113
-114
-107
-99
-103
-98
-97
-106
-100
-98
-105
-80
-97
-102
-92
-91
-82
-86
-88
-104
-96
-76
-81
-87
-72
-66
-76
-72
-74
-79
-81
-74
-69
-61
-62
-61
-71
-71
-74
-76
-66
-61
-69
-83
-64
-65
-62
-73
-82
-74
-65
-72
-69
-68
-64
-76
-86
-120
-117
-118
-132
-127
-114
-106
-104
-99
-97
-95
-88
-109
-110
-113
-119
-127
-116
-119
-121
-123
-111
-119
-117
-113
-114
-121
-111
-118
-104
-105
-111
-100
-106
-95
-83
-47
-40
-42
-30
-47
-67
-82
-112
-140
-128
-101
-107
-111
-126
-118
-103
-94
-98
-106
-103
-103
-109
-103
-103
-92
-96
-88
-108
-113
-91
-104
-102
-109
-104
-85
-102
-92
-89
-86
-91
-83
-75
-70
-87
-88
-76
-87
-92
-82
-67
-61
-86
-89
-86
-84
-77
-65
-64
-51
-41
-38
-47
-63
-62
-60
-79
-101
-112
-92
-75
-59
-63
-86
-89
-88
-93
-77
-83
-96
-92
-78
-77
-78
-81
-82
-85
-77
-59
-57
-73
-66
-64
-76
-81
-73
-98
-94
-94
-82
-64
-72
-84
-87
-73
-77
-81
-72
-74
-76
-69
-66
-58
-62
-76
-79
-84
-83
-75
-56
-74
-57
-63
-52
-55
-80
-87
-85
-81
-76
-87
-84
-77
-56
-71
-75
-77
-68
-63
-65
-91
-83
-76
-72
-64
-61
-75
-85
-78
-62
-62
-66
-68
-65
-67
-77
-67
-51
-73
-57
-59
-55
-55
-71
-86
-77
-57
-67
-64
-62
-47
-68
-62
-84
-67
-50
-65
-63
-65
-70
-61
-56
-61
-53
-37
-45
-62
-51
-57
-50
-53
-74
-61
-55
-67
-54
-43
-37
-28
-41
-28
-25
-32
-27
-17
-6
-13
-3
-3
-3
-2
8
13
26
26
25
25
16
2
25
17
24
18
9
22
11
20
17
23
40
33
39
47
52
64
62
57
45
44
47
50
62
53
45
52
52
42
55
51
56
67
64
60
51
61
50
51
63
68
70
51
68
69
64
72
65
51
68
109
108
102
112
116
92
83
45
45
34
37
23
19
16
14
20
18
39
39
23
27
51
45
50
53
53
60
55
41
46
59
61
57
63
56
61
67
57
44
41
55
50
55
60
68
79
87
76
43
41
49
56
57
59
59
65
66
59
63
48
73
68
57
64
73
65
49
50
61
73
68
38
41
44
49
53
62
62
61
65
60
66
63
68
67
55
53
58
68
61
54
63
57
57
59
64
70
55
67
59
60
67
60
64
64
75
73
67
73
85
67
57
55
64
65
71
72
86
82
71
75
67
68
73
69
92
77
85
64
71
89
94
78
88
67
70
73
68
65
67
67
76
84
80
73
71
66
73
63
56
55
64
58
47
53
54
35
32
26
36
44
45
37
39
36
33
38
44
43
41
36
23
8
11
8
14
27
26
26
21
27
22
17
26
38
34
27
11
15
25
38
26
15
14
-1
13
16
13
19
17
21
20
20
13
-5
-2
30
7
9
4
-2
4
8
9
10
12
10
13
7
-5
-4
11
12
0
11
-5
-11
-7
-4
-11
0
-13
-17
-5
-1
8
-7
-11
-12
-9
-23
-17
-12
-9
-15
-19
-27
-11
-24
-28
-19
-24
-25
-21
-13
-12
-27
-31
-44
-22
-35
-31
-16
-17
-23
-29
-12
-14
-29
-25
-28
-46
-32
-27
-23
-15
-36
-39
-34
-33
-30
-34
-26
-32
-46
-48
-28
-23
-24
-31
-39
-34
-35
-28
-33
-41
-35
-33
-31
-37
-33
-34
-30
-23
-31
-38
-33
-38
-36
-39
-45
-52
-37
-34
-34
-28
-41
-42
-31
-16
-26
-55
-41
-43
-44
-39
-36
-38
-38
-48
-34
-38
-46
-35
-36
-41
-42
-41
-45
-44
-31
-46
-39
-32
-43
-40
-45
-43
-31
-38
-28
-47
-50
-42
-39
-36
-34
-39
-21
-28
-36
-19
-25
-46
-44
-36
-26
-28
-38
-29
-26
-30
-25
-38
-50
-40
-48
-41
-25
-46
-45
-44
-34
-45
-44
-45
-47
-48
-60
-54
-41
-49
-48
-41
-34
-46
-52
-41
-43
-47
-32
-41
-54
-48
-41
-42
-47
-61
-48
-50
-50
-38
-37
-45
-46
-34
-28
-35
-49
-41
-47
-57
-44
-31
-25
-23
4
15
22
4
-11
-20
-37
-44
-31
-45
-78
-84
-77
-84
-79
-76
-62
-50
-65
-63
-59
-52
-46
-55
-50
-46
-40
-39
-38
-26
-23
-42
-52
-59
-72
-53
-35
-46
-53
-41
-37
-49
-53
-46
-28
-42
-36
-46
-47
-49
-57
-48
-39
-44
-47
-48
-54
-41
-43
-38
-54
-49
-37
-27
-18
-28
-60
-65
-58
-43
-47
-42
-47
-50
-42
-28
-24
-37
-43
-46
-60
-55
-41
-34
-45
-45
-45
-37
-42
-39
-50
-45
-23
-35
-40
-34
-36
-34
-23
-40
-24
-45
-51
-23
-29
-24
-29
-38
-37
-38
-32
-34
-32
-11
-18
-26
-19
-31
-26
-27
-19
-14
-11
-7
-16
-24
-11
-18
-9
0
-7
-9
-20
-23
-6
11
-13
-12
-21
-24
-15
-15
-16
-11
-17
-28
-23
-9
-23
-21
-28
-31
-47
-31
-32
-37
-36
-44
-43
-53
-42
-38
-29
-36
-44
-56
-51
-48
-54
-56
-47
-39
-60
-45
-55
-47
-45
-50
-53
-41
-64
-60
-42
-35
-50
-53
-60
-47
-48
-62
-63
-47
-48
-54
-53
-57
-49
-50
-56
-57
-46
-45
-48
-44
-34
-55
-58
-63
-53
-40
-49
-61
-65
-50
-45
-50
-57
-53
-44
-51
-47
-56
-53
-58
-55
-55
-63
-33
-35
-47
-57
-54
-44
-38
-50
-58
-40
-62
-64
-52
-48
-56
-46
-49
-58
-56
-57
-47
-47
-54
-53
-53
-49
-50
-49
-51
-69
-47
-44
-46
-52
-52
-45
-49
-45
-58
-53
-52
-60
-48
-55
-60
-59
-56
-50
-56
-57
-45
-57
-54
-63
-58
-54
-50
-56
-61
-49
-44
-44
-47
-58
-68
-59
-72
-64
-58
-48
-52
-63
-53
-56
-52
-59
-52
-60
-69
-60
-51
-53
-39
-53
-58
-50
-45
-35
-51
-55
-59
-65
-56
-53
-45
-53
-43
-52
-50
-55
-54
-51
-51
-41
-37
-37
-44
-45
-44
-54
-46
-32
-31
-54
-54
-58
-56
-51
-51
-51
-55
-37
-47
-71
-73
-69
-61
-60
-47
-45
-55
-75
-63
-53
-41
-51
-63
-67
-61
-58
-63
-70
-62
-69
-63
-60
-59
-54
-51
-58
-50
-56
-70
-60
-61
-54
-58
-61
-60
-62
-58
-39
-41
-46
-28
-7
-5
-1
6
-3
-13
-27
-36
-68
-74
-74
-67
-69
-83
-89
-88
-82
-67
-71
-64
-58
-68
-54
-66
-72
-62
-68
-49
-49
-52
-54
-58
-63
-70
-70
-58
-58
-27
-55
-43
-57
-37
-44
-48
-51
-45
-61
-70
-56
-42
-62
-61
-38
-52
-79
-68
-49
-60
-62
-60
-62
-64
-59
-67
-74
-70
-54
-57
-56
-51
-58
-62
-56
-72
-71
-73
-54
-60
-58
-54
-53
-51
-63
-76
-63
-65
-65
-56
-62
-48
-55
-57
-65
-70
-62
-56
-54
-46
-62
-66
-54
-57
-63
-77
-37
-37
-46
-47
-45
-46
-41
-39
-47
-50
-38
-40
-44
-36
-40
-51
-41
-42
-47
-38
-36
-41
-23
-33
-35
-18
-29
-36
-26
-33
-37
-32
-39
-31
-30
-24
-38
-34
-41
-48
-32
-35
-36
-43
-30
-41
-53
-46
-47
-46
-52
-75
-77
-53
-65
-54
-61
-53
-70
-71
-66
-63
-42
-61
-62
-50
-79
-81
-60
-54
-64
-62
-40
-22
-40
-74
-77
-82
-84
-92
-63
-52
-52
-60
-87
-83
-73
-80
-70
-69
-68
-52
-66
-68
-89
-90
-83
-72
-64
-65
-78
-84
-73
-69
-82
-87
-82
-84
-76
-89
-80
-79
-77
-84
-80
-78
-77
-68
-77
-87
-85
-87
-81
-84
-100
-81
-63
-83
-107
-89
-91
-91
-76
-74
-82
-100
-99
-98
-90
-88
-104
-92
-81
-94
-90
-96
-87
-88
-92
-86
-77
-76
-84
-82
-87
-96
-97
-92
-99
-96
-96
-98
-85
-76
-89
-78
-85
-78
-96
-77
-93
-90
-103
-90
-71
-95
-99
-100
-97
-78
-92
-96
-81
-72
-91
-69
-74
-85
-94
-93
-81
-84
-87
-79
-80
-75
-81
-83
-84
-93
-87
-88
-82
-85
-90
-91
-83
-87
-74
-88
-86
-79
-80
-78
-89
-87
-69
-68
-78
-83
-73
-71
-60
-75
-85
-84
-88
-88
-95
-95
-90
-83
-85
-77
-76
-75
-84
-80
-75
-80
-84
-79
-69
-54
-58
-82
-76
-82
-82
-78
-63
-80
-71
-68
-58
-60
-70
-71
-68
-72
-61
-72
-79
-82
-78
-70
-72
-68
-65
-72
-75
-64
-74
-79
-70
-94
-89
-78
-75
-77
-73
-67
-77
-83
-90
-90
-74
-81
-61
-91
-96
-95
-83
-77
-70
-75
-83
-83
-70
-59
-88
-79
-75
-71
-73
-76
-86
-75
-74
-76
-50
-47
-52
-32
-20
-15
-10
-23
-39
-65
-79
-86
-101
-97
-100
-113
-117
-111
-114
-103
-101
-104
-96
-82
-88
-80
-72
-83
-71
-84
-82
-68
-68
-72
-82
-85
-83
-90
-98
-79
-82
-78
-88
-76
-75
-57
-72
-82
-69
-67
-63
-65
-85
-78
-71
-63
-62
-87
-73
-67
-67
-71
-72
-82
-79
-77
-71
-57
-63
-76
-71
-82
-81
-76
-67
-57
-63
-69
-79
-63
-62
-66
-70
-58
-53
-70
-72
-67
-66
-69
-74
-62
-59
-44
-49
-75
-71
-55
-66
-61
-41
-58
-62
-58
-43
-59
-44
-51
-60
-45
-50
-51
-55
-51
-44
-42
-31
-42
-24
-37
-36
-47
-43
-31
-35
-38
-42
-27
-14
-30
-28
-45
-20
-17
-21
-37
-29
-26
-18
-31
-43
-26
-21
-22
-31
-30
-31
-27
-33
-38
-45
-47
-32
-23
-36
-55
-45
-55
-66
-64
-53
-55
-56
-54
-59
-60
-58
-47
-69
-58
-60
-67
-67
-65
-62
-72
-73
-79
-61
-52
-44
-68
-77
-78
-67
-62
-62
-81
-81
-67
-63
-68
-62
-61
-56
-48
-66
-67
-70
-76
-83
-74
-63
-71
-62
-61
-67
-72
-66
-68
-74
-66
-60
-57
-60
-73
-64
-76
-63
-60
-58
-56
-74
-69
-79
-63
-54
-60
-58
-66
-64
-71
-65
-69
-63
-57
-65
-58
-62
-64
-69
-56
-68
-63
-66
-66
-63
-66
-62
-59
-49
-59
-71
-61
-56
-64
-62
-62
-72
-68
-76
-75
-59
-61
-75
-72
-64
-69
-62
-63
-61
-60
-71
-76
-86
-53
-61
-66
-57
-60
-65
-72
-65
-67
-67
-57
-54
-58
-48
-65
-83
-78
-70
-65
-56
-72
-71
-70
-61
-60
-54
-46
-66
-56
-60
-71
-66
-67
-72
-65
-67
-71
-49
-61
-66
-71
-67
-64
-74
-46
-55
-61
-64
-63
-69
-62
-60
-57
-64
-55
-48
-54
-70
-64
-69
-72
-68
-63
-61
-70
-69
-67
-61
-70
-62
-57
-54
-44
-61
-58
-57
-67
-75
-68
-71
-70
-60
-57
-52
-59
-74
-64
-60
-64
-64
-60
-56
-50
-58
-62
-44
-65
-53
-61
-55
-57
-59
-59
-70
-50
-49
-63
-59
-62
-60
-50
-48
-56
-44
-48
-46
-51
-47
-49
-48
-51
-39
-45
-63
-55
-53
-44
-57
-74
-62
-72
-64
-49
-52
-65
-53
-67
-57
-51
-75
-60
-72
-58
-54
-67
-64
-75
-71
-61
-66
-58
-65
-50
-51
-63
-82
-70
-67
-70
-65
-63
-47
-54
-69
-54
-53
-72
-62
-61
-49
-42
-28
-10
-16
7
15
18
7
-34
-52
-66
-71
-79
-100
-104
-94
-85
-92
-95
-96
-86
-77
-73
-69
-61
-64
-52
-72
-69
-65
-59
-63
-53
-65
-72
-78
-62
-59
-56
-54
-52
-60
-72
-59
-52
-74
-70
-71
-63
-54
-60
-55
-50
-45
-49
-65
-63
-50
-61
-65
-77
-70
-62
-64
-49
-60
-61
-48
-51
-58
-55
-58
-70
-69
-66
-45
-40
-52
-56
-45
-64
-54
-65
-59
-63
-58
-50
-44
-49
-48
-51
-64
-54
-64
-46
-51
-49
-62
-62
-61
-55
-46
-52
-48
-40
-40
-50
-48
-51
-47
-57
-55
-40
-45
-41
-45
-35
-41
-34
-36
-33
-30
-47
-36
-24
-10
-32
-30
-37
-36
-37
-48
-39
-31
-30
-28
-29
-38
-38
-23
-26
-26
-23
-18
-23
-38
-43
-37
-43
-39
-43
-46
-42
-46
-41
-44
-53
-53
-56
-64
-75
-54
-55
-80
-65
-71
-82
-79
-81
-83
-65
-70
-73
-69
-74
-67
-62
-80
-83
-80
-80
-78
-77
-89
-92
-87
-79
-76
-81
-88
-78
-81
-87
-84
-92
-86
-71
-75
-94
-76
-71
-85
-91
-75
-80
-86
-97
-101
-87
-84
-79
-81
-77
-75
-94
-93
-96
-85
-76
-83
-79
-71
-80
-104
-93
-89
-92
-96
-102
-89
-97
-95
-90
-91
-90
-80
-83
-94
-100
-83
-81
-90
-89
-81
-92
-95
-95
-96
-96
-93
-98
-90
-94
-87
-93
-92
-87
-99
-114
-98
-101
-99
-97
-92
-99
-99
-104
-101
-98
-85
-100
-104
-106
-104
-95
-103
-106
-112
-106
-103
-92
-104
-92
-91
-102
-105
-100
-106
-92
-95
-112
-104
-116
-113
-103
-104
-120
-102
-104
-108
-104
-117
-100
-111
-105
-120
-96
-90
-114
-122
-108
-102
-106
-105
-103
-108
-112
-108
-109
-107
-100
-102
-122
-114
-106
-119
-86
-113
-128
-118
-114
-93
-105
-129
-124
-117
-116
-112
-112
-110
-118
-133
-113
-108
-106
-116
-121
-118
-121
-119
-114
-124
-122
-112
-103
-102
-107
-108
-110
-117
-105
-117
-115
-113
-120
-107
-106
-107
-125
-115
-106
-98
-105
-92
-86
-114
-106
-102
-100
-115
-95
-110
-120
-113
-113
-123
-114
-119
-125
-126
-121
-116
-114
-104
-121
-116
-133
-125
-125
-121
-101
-133
-127
-121
-113
-124
-126
-112
-117
-133
-125
-124
-127
-129
-121
-116
-131
-136
-122
-103
-118
-115
-116
-104
-119
-135
-141
-141
-131
-117
-109
-103
-82
-76
-62
-64
-71
-89
-116
-140
-144
-126
-144
-154
-159
-158
-145
-153
-155
-163
-168
-153
-140
-136
-120
-137
-141
-126
-120
-128
-125
-126
-126
-127
-121
-118
-114
-118
-115
-119
-115
-114
-121
-124
-120
-122
-127
-109
-105
-115
-124
-132
-142
-102
-109
-107
-124
-118
-119
-114
-125
-114
-120
-112
-119
-120
-120
-127
-115
-117
-112
-122
-123
-115
-101
-123
-122
-125
-123
-114
-108
-111
-110
-116
-122
-116
-111
-114
-98
-124
-118
-112
-108
-103
-109
-96
-121
-116
-94
-105
-102
-120
-115
-102
-108
-124
-109
-96
-102
-103
-113
-117
-107
-107
-104
-100
-98
-92
-105
-99
-92
-90
-86
-76
-97
-100
-87
-93
-94
-86
-100
-84
-90
-77
-85
-74
-78
-93
-90
-78
-79
-70
-77
-101
-103
-90
-92
-105
-99
-100
-90
-88
-98
-104
-104
-109
-98
-93
-96
-102
-109
-131
-131
-127
-123
-133
-138
-133
-124
-130
-129
-123
-130
-128
-141
-126
-137
-134
-132
-123
-127
-126
-129
-121
-128
-132
-124
-135
-135
-139
-129
-127
-130
-147
-135
-141
-135
-146
-134
-123
-132
-126
-123
-131
-129
-143
-143
-133
-132
-130
-131
-130
-119
-121
-140
-132
-134
-138
-126
-118
-137
-138
-140
-140
-129
-127
-139
-145
-141
-136
-123
-127
-126
-137
-121
-131
-142
-135
-148
-142
-144
-135
-137
-136
-129
-134
-124
-135
-130
-136
-144
-138
-140
-135
-134
-135
-134
-115
-131
-140
-137
-126
-142
-144
-144
-139
-132
-131
-139
-142
-117
-140
-148
-136
-141
-137
-133
-127
-137
-144
-132
-131
-136
-127
-133
-145
-145
-142
-130
-128
-146
-136
-133
-128
-122
-127
-122
-122
-123
-130
-119
-118
-117
-141
-132
-137
-121
-134
-124
-129
-119
-110
-115
-134
-131
-143
-137
-138
-135
-145
-140
-156
-144
-149
-146
-143
-136
-150
-137
-130
-126
-130
-128
-136
-126
-126
-143
-137
-145
-144
-137
-141
-135
-126
-140
-156
-153
-154
-144
-138
-133
-134
-142
-136
-139
-145
-135
-136
-150
-152
-131
-131
-132
-133
-121
-96
-87
-79
-76
-91
-115
-145
-155
-150
-150
-169
-176
-182
-183
-168
-163
-172
-159
-161
-156
-143
-137
-140
-150
-146
-148
-154
-146
-149
-144
-138
-129
-123
-140
-131
-120
-135
-142
-126
-141
-140
-137
-142
-148
-128
-117
-122
-128
-120
-138
-136
-137
-128
-139
-145
-134
-132
-124
-132
-144
-143
-136
-135
-129
-130
-128
-132
-141
-121
-127
-131
-122
-126
-123
-120
-128
-122
-123
-132
-132
-125
-122
-115
-116
-127
-140
-133
-126
-124
-134
-136
-120
-126
-129
-122
-117
-116
-110
-108
-122
-112
-119
-114
-120
-113
-114
-111
-122
-118
-106
-107
-99
-100
-111
-123
-115
-110
-107
-96
-102
-103
-101
-98
-90
-94
-93
-79
-83
-86
-116
-103
-95
-102
-93
-90
-93
-98
-91
-105
-111
-108
-111
-99
-93
-107
-100
-108
-120
-115
-116
-113
-108
-118
-127
-130
-126
-122
-126
-128
-133
-118
-133
-146
-133
-124
-137
-138
-136
-140
-142
-137
-140
-137
-146
-129
-125
-129
-134
-129
-149
-151
-134
-143
-138
-139
-135
-141
-148
-145
-144
-140
-143
-136
-132
-135
-129
-129
-129
-138
-132
-136
-148
-143
-135
-140
-143
-130
-131
-122
-137
-146
-143
-127
-133
-132
-140
-142
-138
-145
-139
-124
-126
-129
-134
-135
-132
-138
-145
-142
-144
-125
-126
-140
-139
-126
-120
-123
-135
-144
-132
-131
-142
-139
-138
-138
-137
-138
-139
-131
-128
-127
-140
-130
-132
-129
-122
-147
-146
-143
-139
-140
-126
-131
-134
-132
-131
-140
-128
-124
-121
-141
-139
-123
-124
-113
-134
-144
-141
-128
-132
-137
-137
-130
-134
-129
-119
-131
-134
-125
-128
-133
-125
-116
-115
-119
-125
-124
-121
-124
-125
-119
-123
-119
-126
-120
-124
-140
-140
-133
-139
-127
-135
-136
-127
-129
-145
-143
-135
-141
-141
-132
-126
-132
-136
-136
-138
-135
-131
-134
-129
-127
-127
-137
-143
-140
-136
-139
-118
-141
-145
-139
-137
-133
-127
-120
-134
-143
-128
-114
-130
-126
-104
-103
-83
-75
-71
-59
-81
-100
-116
-126
-134
-134
-148
-151
-154
-161
-172
-174
-159
-141
-141
-134
-134
-145
-139
-129
-134
-141
-133
-136
-126
-121
-126
-117
-128
-126
-128
-130
-134
-132
-131
-131
-126
-125
-129
-127
-121
-121
-132
-118
-123
-126
-126
-125
-130
-127
-113
-125
-128
-128
-125
-118
-117
-113
-113
-121
-123
-110
-117
-114
-117
-121
-129
