1
3
-1
0
2
1
-1
2
1
8
0
2
-2
3
2
1
-3
0
4
1
3
4
5
2
2
3
-3
0
0
4
6
3
0
2
4
0
-1
1
-1
5
0
-1
5
0
2
2
0
-1
3
2
-7
1
-2
-1
2
0
0
-5
-3
-3
2
-1
-2
-4
0
0
-8
-4
2
-4
-1
0
-3
-8
-9
2
0
-3
-4
-2
-5
-7
-5
-4
-3
-2
-6
-4
-5
-5
-4
-7
-10
-7
0
-3
-2
-8
-6
-9
-9
-3
-5
-2
-1
-3
-8
-7
-7
-3
-4
-7
-6
-10
-10
-7
-2
-2
-2
-3
-3
0
2
-1
1
3
4
-1
0
-2
2
8
4
10
12
13
13
19
20
10
9
12
14
10
12
14
13
12
7
8
9
12
6
6
9
5
3
2
1
0
-4
-7
-8
-9
-7
-12
-8
-5
-7
-8
-8
-10
-11
-7
-11
-10
-6
-2
-8
-14
-10
-7
-14
-10
-5
-9
-9
-5
-1
-7
-2
2
12
24
45
62
71
99
115
143
159
167
176
176
161
145
128
95
60
29
9
-8
-34
-61
-65
-60
-52
-34
-30
-21
-14
-9
-12
-8
-2
-2
-5
0
1
-6
-8
-5
-6
1
-2
-5
0
0
2
0
-2
-3
2
-2
-1
2
-2
0
6
4
0
2
0
12
9
5
6
12
10
10
8
10
11
10
15
13
13
10
12
18
13
15
16
18
19
24
20
21
23
25
23
23
26
23
27
30
34
35
35
31
38
39
41
44
46
44
50
52
54
57
58
58
51
64
69
74
71
77
73
75
72
80
86
87
81
84
87
93
91
86
85
92
88
84
86
86
85
85
86
81
81
76
75
70
63
62
60
58
52
46
40
40
41
35
29
31
21
24
18
17
19
17
12
10
9
8
8
4
3
9
2
4
4
8
4
-2
-1
-2
-2
1
2
-3
-2
-2
-3
1
4
-2
-5
-3
4
-4
0
0
4
2
3
0
-4
-3
-3
-3
1
-3
1
5
1
-1
2
-1
-4
-2
-3
-4
0
6
-2
1
2
0
-5
-2
-2
-1
2
-1
-1
-6
-2
2
4
2
-2
-2
0
6
2
-3
-3
-2
-2
-5
6
4
-3
-2
1
-2
0
0
-4
-2
0
-5
-4
-2
-2
0
-3
-8
-5
-8
-3
-3
-4
-1
-6
-5
-3
-6
-2
-1
-3
-8
-8
-7
-1
-3
-6
-6
-4
-3
-4
-6
-5
-10
-2
-6
-7
-6
-5
-8
-8
-7
-5
-4
-8
-8
-7
-6
-12
-9
-2
-5
-5
-7
-11
-9
-4
-7
-6
-2
-3
-8
-12
-5
-6
-3
-5
-5
-3
-2
2
0
4
3
-2
2
3
1
2
4
10
8
13
16
12
13
13
12
13
10
9
8
15
16
14
10
6
7
11
11
8
7
5
-1
4
0
-6
-7
-8
-7
-6
-4
-8
-10
-9
-11
-8
-8
-12
-13
-13
-11
-6
-10
-11
-9
-6
-3
-10
-12
-12
-9
-2
-9
-7
-4
-6
-9
0
13
22
38
55
74
94
117
138
154
163
175
182
161
156
143
113
68
39
13
-3
-27
-63
-72
-63
-57
-42
-25
-13
-12
-9
-8
-5
-4
-3
-5
1
-1
-4
-2
2
2
-9
-1
-1
-3
1
1
1
1
-3
9
1
-2
-9
-4
0
8
3
7
5
1
4
1
11
14
7
7
4
5
10
15
9
13
11
13
10
11
13
19
17
20
22
15
23
18
19
18
20
29
28
32
27
29
31
32
29
32
32
31
37
39
43
43
48
45
49
52
56
62
59
61
64
67
70
67
64
73
75
79
78
84
79
85
90
85
83
87
89
91
87
89
86
90
89
87
84
82
77
71
69
72
72
68
68
62
59
55
44
47
40
32
29
34
28
24
26
22
16
14
13
10
8
6
10
6
8
0
2
-1
2
1
-3
2
1
-4
-1
2
-2
-7
-3
-3
-2
0
-4
-1
-6
-8
-6
-5
-3
-4
-2
-4
-5
-6
-2
-9
-4
-2
1
-1
-7
-1
-5
-2
-2
-5
-5
-2
-7
-2
-1
-3
-6
-8
-3
-1
-8
2
4
-4
-7
-3
-2
-3
-4
-7
-7
-1
-5
-2
-5
-2
-4
-4
1
-5
-8
-12
-5
-4
0
-3
-6
-8
-6
-10
-4
-5
-7
-6
-5
-9
-4
-6
1
-1
-7
-9
-11
-12
-5
-4
-4
-9
-10
-11
-11
-9
-5
-8
-9
-11
-10
-10
-6
-6
-7
-9
-9
-7
-8
-12
-13
-6
-5
-10
-17
-8
-14
-14
-10
-8
-9
-10
-10
-12
-15
-10
-5
-4
-9
-12
-12
-13
-12
-12
-11
-11
-14
-7
-8
-7
-11
-8
-7
1
-3
-8
-7
-1
-3
-6
-5
-2
-6
1
-1
-3
-2
4
9
18
8
10
3
9
10
3
8
6
11
10
5
-2
5
6
5
6
1
1
-1
-5
-10
-3
-7
-12
-10
-14
-15
-13
-12
-12
-14
-16
-17
-16
-17
-18
-18
-22
-20
-16
-14
-16
-16
-16
-14
-16
-16
-12
-15
-15
-17
-14
-11
-9
-10
-4
8
32
46
62
84
103
126
147
169
173
182
169
157
140
111
74
42
20
0
-25
-59
-72
-68
-64
-50
-33
-30
-24
-16
-17
-14
-10
-11
-8
-4
-10
-12
-13
-5
-9
-11
-7
-13
-10
-5
-9
-12
-10
-13
-15
-7
-10
-9
-7
-8
-10
-3
-3
-1
-6
-5
-2
-2
-4
0
1
-3
0
1
2
4
3
0
-1
5
2
5
4
3
7
11
16
11
6
10
15
15
15
17
15
16
21
18
19
23
23
20
24
35
28
26
35
35
38
42
44
45
48
47
47
53
57
52
59
60
61
65
64
68
73
70
71
76
77
82
76
75
78
76
76
78
74
77
76
73
74
68
62
67
59
57
52
50
46
44
39
31
32
31
28
26
18
7
8
12
6
5
2
-2
0
-4
-1
-1
-8
-12
-9
-8
-8
-10
-15
-8
-10
-11
-18
-18
-18
-15
-16
-13
-13
-11
-16
-14
-14
-14
-12
-8
-13
-21
-16
-17
-17
-19
-20
-17
-20
-17
-12
-16
-19
-14
-12
-16
-16
-18
-19
-19
-14
-12
-15
-16
-16
-16
-14
-15
-13
-8
-13
-16
-13
-17
-13
-12
-16
-17
-12
-15
-24
-11
-12
-17
-17
-20
-14
-14
-18
-18
-16
-16
-19
-16
-20
-22
-16
-19
-19
-17
-15
-17
-20
-16
-22
-18
-21
-18
-18
-18
-17
-14
-22
-28
-21
-18
-15
-21
-25
-20
-23
-21
-21
-22
-23
-21
-19
-17
-25
-23
-21
-19
-20
-25
-27
-23
-21
-23
-23
-23
-22
-25
-21
-20
-19
-21
-19
-26
-25
-23
-17
-19
-18
-15
-13
-18
-14
-12
-13
-19
-15
-20
-16
-20
-14
-15
-10
-8
-5
-3
-2
2
2
-9
-9
-6
-6
-4
-3
-3
-4
-6
-5
-5
-4
-5
-9
-15
-12
-4
-15
-18
-20
-14
-23
-22
-25
-27
-23
-24
-29
-25
-23
-23
-28
-31
-27
-26
-27
-29
-25
-23
-24
-24
-26
-26
-27
-25
-27
-25
-29
-28
-21
-21
-22
-15
-5
6
28
40
62
79
98
125
144
159
163
155
140
126
107
70
39
7
-15
-42
-72
-92
-95
-79
-71
-61
-52
-38
-31
-28
-22
-24
-23
-16
-17
-20
-16
-16
-21
-22
-25
-24
-20
-21
-20
-19
-18
-21
-18
-14
-18
-18
-13
-13
-17
-16
-16
-16
-9
-9
-13
-11
-8
-5
-11
-7
-7
-4
-6
-7
-9
-8
-3
2
-7
-2
1
1
1
2
4
4
6
5
0
13
11
11
10
15
10
15
14
18
17
16
15
24
29
28
31
32
34
31
35
40
41
44
45
49
50
49
58
58
58
61
62
60
71
73
73
73
72
77
81
82
79
71
76
77
78
80
76
75
75
75
74
70
64
54
54
54
51
45
43
36
32
29
29
30
19
17
14
12
7
13
11
2
0
1
-4
-7
-4
-10
-3
-10
-9
-11
-10
-10
-15
-7
-6
-12
-14
-14
-13
-15
-12
-13
-13
-14
-17
-14
-17
-15
-8
-13
-19
-15
-16
-15
-18
-14
-13
-11
-12
-13
-10
-20
-17
-8
-10
-10
-10
-15
-16
-14
-13
-14
-13
-12
-9
-12
-8
-15
-11
-9
-11
-14
-12
-8
-9
-11
-13
-5
-8
-11
-12
-11
-9
-7
-14
-8
-11
-10
-10
-15
-10
-12
-5
-7
-13
-18
-14
-10
-11
-14
-12
-13
-7
-10
-10
-11
-4
-13
-9
-3
-12
-16
-16
-18
-13
-11
-11
-10
-17
-14
-8
-12
-12
-9
-17
-16
-7
-13
-15
-11
-16
-20
-14
-12
-13
-14
-15
-15
-12
-15
-9
-15
-11
-10
-15
-16
-13
-16
-17
-15
-10
-14
-14
-10
-18
-13
-15
-18
-19
-13
-9
-12
-12
-5
-9
-8
0
-5
-5
-6
-8
-10
-3
1
-5
-2
12
10
11
14
12
8
6
8
7
9
11
5
2
7
4
2
-2
2
0
5
5
0
-1
-9
-7
-10
-14
-11
-15
-12
-14
-15
-16
-15
-14
-15
-12
-12
-15
-18
-12
-15
-19
-18
-8
-6
-17
-19
-18
-9
-18
-18
-15
-11
-12
-15
-7
2
12
29
48
64
78
100
128
149
162
172
181
171
155
138
126
74
39
14
-2
-18
-49
-72
-75
-59
-49
-40
-28
-19
-16
-14
-15
-14
-9
-6
-6
-9
-6
-8
-12
-9
-9
-10
-11
-10
-8
-8
-9
-8
-10
-8
-7
-4
-5
-7
-9
-4
-4
-4
-2
-4
-1
7
5
0
-3
1
1
2
5
5
8
3
4
7
5
6
5
7
3
5
7
14
15
18
15
13
15
16
18
11
22
24
22
20
24
25
28
30
31
34
36
38
35
41
49
45
46
48
51
54
55
56
58
61
64
68
68
72
73
73
76
73
82
79
78
81
79
78
80
80
81
81
83
81
73
72
69
69
68
66
60
60
56
48
43
44
39
41
31
25
27
20
15
14
9
6
5
7
3
-2
2
1
-2
-1
-2
-6
-5
-6
-12
-9
-6
-10
-14
-10
-12
-11
-5
-15
-13
-14
-11
-13
-15
-14
-11
-18
-14
-13
-10
-13
-14
-13
-16
-15
-13
-18
-13
-10
-16
-9
-15
-14
-18
-11
-10
-13
-9
-10
-13
-17
-7
-14
-18
-12
-12
-19
-16
-12
-14
-16
-17
-14
-10
-6
-19
-16
-6
-9
-12
-16
-13
-12
-8
-10
-16
-17
-15
-14
-13
-11
-13
-12
-12
-22
-15
-13
-11
-15
-14
-16
-13
-14
-14
-16
-19
-21
-17
-17
-14
-14
-18
-16
-16
-20
-16
-14
-17
-18
-13
-17
-20
-12
-12
-11
-21
-20
-15
-17
-20
-18
-16
-16
-20
-15
-17
-23
-20
-19
-20
-19
-18
-16
-15
-20
-25
-22
-19
-23
-23
-17
-23
-19
-19
-21
-19
-16
-18
-22
-16
-18
-22
-20
-12
-12
-16
-12
-13
-12
-11
-13
-14
-13
-10
-13
-14
-5
-8
-6
3
3
0
0
1
10
-6
0
-2
0
0
-1
2
0
-3
-1
-7
-10
1
-5
-5
-5
-10
-14
-15
-14
-18
-19
-16
-21
-19
-20
-20
-26
-20
-21
-22
-19
-21
-23
-15
-21
-23
-22
-28
-27
-24
-25
-19
-23
-25
-22
-23
-17
-17
-20
-18
-9
-5
8
28
47
65
84
105
124
146
166
178
178
166
150
137
107
62
35
12
-2
-30
-71
-79
-72
-64
-56
-38
-28
-30
-29
-22
-17
-16
-14
-13
-13
-18
-19
-17
-14
-16
-16
-16
-16
-16
-17
-13
-21
-19
-9
-14
-13
-13
-14
-11
-10
-13
-7
-11
-11
-11
-10
-3
-9
-7
-9
-5
-9
-2
-3
-6
-1
6
1
-3
1
-1
4
5
4
-1
5
3
6
5
9
8
14
14
12
10
12
22
22
18
20
19
22
22
32
30
27
35
37
34
43
39
40
42
43
48
51
51
56
60
65
68
69
65
68
70
75
67
74
75
75
79
81
81
80
79
74
69
69
75
77
72
66
66
62
63
54
54
45
46
40
31
34
32
27
19
20
16
12
10
9
4
-2
8
3
-4
-5
-4
-6
-8
-5
-12
-10
-11
-13
-14
-10
-8
-15
-21
-19
-14
-15
-16
-15
-14
-18
-18
-20
-14
-19
-14
-13
-20
-18
-19
-19
-18
-14
-16
-14
-13
-16
-16
-22
-14
-16
-16
-18
-18
-21
-17
-19
-17
-14
-16
-13
-15
-10
-14
-17
-19
-19
-17
-19
-17
-14
-16
-17
-17
-19
-13
-13
-18
-21
-20
-17
-15
-16
-21
-24
-18
-21
-19
-19
-13
-15
-17
-15
-19
-22
-21
-22
-18
-20
-18
-16
-16
-18
-26
-22
-25
-22
-21
-11
-22
-29
-22
-20
-19
-18
-20
-23
-23
-17
-22
-23
-21
-23
-24
-20
-21
-22
-22
-19
-23
-26
-20
-18
-18
-20
-24
-22
-22
-24
-26
-23
-23
-21
-24
-21
-21
-26
-21
-20
-21
-24
-19
-23
-19
-14
-18
-21
-17
-15
-17
-13
-19
-12
-13
-13
-12
-9
-11
-2
-4
-2
-2
1
-4
-4
-7
-8
-3
-3
-5
-3
-4
-9
-12
-11
-10
-3
-9
-11
-14
-13
-18
-17
-19
-19
-24
-25
-27
-26
-28
-29
-24
-23
-28
-28
-29
-28
-25
-27
-26
-23
-23
-26
-28
-28
-33
-29
-26
-25
-21
-24
-24
-25
-25
-23
-22
-9
14
30
44
57
79
101
128
148
159
165
166
157
138
124
84
42
19
-7
-36
-63
-81
-75
-76
-72
-58
-46
-41
-34
-30
-28
-30
-23
-20
-20
-22
-22
-23
-21
-22
-23
-25
-22
-22
-20
-21
-25
-22
-22
-23
-16
-19
-21
-20
-21
-24
-21
-19
-18
-16
-12
-14
-12
-16
-11
-11
-16
-13
-9
-18
-8
-11
-9
-7
-12
-10
-9
-5
-5
-2
-2
-2
-7
-1
3
5
-2
2
4
7
14
12
1
2
8
11
14
21
14
12
17
22
27
26
29
31
31
35
35
37
42
47
48
49
54
55
51
54
63
65
63
62
63
67
68
68
72
70
71
69
66
66
66
62
71
62
54
61
58
52
52
43
41
38
33
26
24
22
16
16
14
7
3
2
5
-1
3
-5
-8
-12
-10
-16
-17
-11
-10
-19
-21
-22
-22
-21
-22
-26
-25
-15
-22
-24
-23
-20
-24
-22
-25
-24
-25
-26
-25
-30
-26
-27
-25
-26
-25
-27
-28
-21
-22
-26
-25
-24
-27
-23
-22
-25
-23
-21
-25
-27
-29
-21
-21
-23
-15
-22
-25
-17
-19
-24
-22
-21
-25
-21
-16
-24
-27
-21
-23
-22
-17
-21
-21
-22
-18
-23
-20
-14
-12
-25
-28
-25
-22
-16
-19
-20
-17
-18
-24
-24
-21
-25
-24
-25
-21
-21
-24
-23
-24
-21
-19
-22
-26
-22
-20
-20
-21
-26
-22
-29
-24
-25
-28
-27
-25
-27
-21
-23
-24
-26
-26
-31
-25
-18
-23
-29
-24
-25
-24
-20
-28
-25
-27
-22
-26
-27
-22
-21
-28
-25
-26
-27
-27
-25
-25
-22
-21
-23
-23
-19
-20
-20
-22
-24
-18
-20
-14
-12
-15
-17
-15
-17
-16
-6
-11
-10
1
-8
-7
-3
-5
-8
-5
-9
-10
-8
4
-2
-3
-13
-7
-14
-10
-6
-9
-12
-13
-15
-13
-16
-14
-21
-24
-20
-24
-27
-24
-23
-29
-20
-23
-26
-22
-21
-28
-27
-21
-20
-25
-29
-34
-25
-23
-19
-22
-24
-26
-19
-25
-24
-18
-24
-19
-7
2
17
37
54
71
91
114
138
151
161
166
155
146
131
103
67
33
11
-15
-36
-76
-85
-74
-70
-67
-46
-36
-28
-25
-25
-23
-20
-12
-16
-20
-17
-18
-18
-20
-17
-15
-15
-17
-14
-16
-13
-10
-18
-17
-11
-15
-15
-9
-8
-14
-14
-13
-7
-9
-6
-3
-3
-3
-14
-9
-6
-8
-3
-4
-3
0
-1
0
-3
5
3
0
4
7
2
2
10
10
5
5
6
8
9
16
15
9
20
20
25
17
17
17
20
25
25
29
32
36
29
32
40
40
41
45
46
46
51
51
54
61
66
66
66
71
69
71
73
73
73
73
79
79
77
79
74
73
74
77
73
73
72
68
68
62
56
50
53
44
44
35
31
31
28
24
15
20
16
10
6
5
2
1
2
4
-6
-7
-8
-11
-5
-8
-4
-8
-11
-13
-13
-16
-12
-12
-14
-19
-18
-20
-15
-11
-16
-11
-17
-18
-18
-15
-16
-18
-17
-17
-17
-19
-21
-17
-20
-16
-16
-21
-16
-13
-19
-17
-15
-19
-15
-18
-19
-18
-18
-14
-16
-10
-14
-19
-18
-17
-15
-20
-16
-12
-17
-14
-14
-12
-16
-16
-17
-19
-14
-13
-15
-9
-11
-15
-11
-22
-14
-14
-18
-11
-11
-14
-20
-15
-13
-15
-16
-12
-14
-18
-14
-12
-16
-16
-18
-16
-19
-19
-18
-19
-19
-17
-16
-16
-18
-18
-18
-13
-17
-15
-16
-19
-18
-19
-22
-18
-19
-21
-21
-17
-16
-19
-17
-19
-21
-22
-17
-19
-19
-20
-17
-16
-19
-22
-18
-20
-20
-23
-23
-17
-17
-13
-16
-17
-20
-20
-19
-18
-15
-24
-22
-24
-21
-21
-22
-18
-19
-20
-17
-18
-18
-18
-18
-18
-19
-20
-22
-17
-16
-16
-14
-13
-17
-14
-8
-11
-9
-10
-13
-14
-16
-10
-4
-1
0
3
-1
0
6
-3
-2
0
1
-2
1
-6
-1
-2
-1
-3
-3
-1
-1
-6
-9
-9
-6
-6
-12
-19
-13
-12
-16
-17
-17
-22
-25
-16
-21
-21
-21
-22
-22
-24
-21
-21
-21
-29
-21
-19
-23
-16
-16
-20
-21
-22
-22
-19
-20
-21
-19
-21
-13
-1
14
31
44
66
79
106
134
151
160
166
172
155
144
132
95
61
31
7
-8
-29
-71
-81
-70
-58
-53
-40
-26
-27
-21
-22
-20
-16
-17
-14
-16
-13
-16
-20
-24
-18
-13
-14
-12
-14
-14
-17
-10
-9
-16
-15
-18
-15
-9
-8
-7
-12
-14
-12
-9
-14
-8
-2
-1
-5
-4
-5
-1
-2
-7
-6
-6
-1
0
2
-4
-1
4
3
0
3
1
7
14
10
9
11
9
9
9
12
17
15
15
16
21
25
23
22
22
24
28
31
36
34
39
40
41
43
45
45
47
52
53
55
61
56
63
64
68
74
75
68
74
73
71
80
80
81
81
79
73
74
74
73
71
71
71
67
58
57
59
57
50
47
38
38
37
30
29
25
22
21
17
12
7
14
8
0
3
-1
-3
0
-3
-7
-6
-8
-9
-10
-13
-13
-10
-11
-7
-11
-17
-13
-14
-16
-8
-10
-14
-11
-12
-15
-14
-15
-9
-13
-14
-11
-13
-16
-14
-17
-16
-13
-13
-13
-14
-16
-12
-15
-13
-14
-11
-9
-17
-10
-16
-21
-19
-17
-13
-17
-10
-17
-14
-11
-12
-12
-9
-15
-14
-11
-14
-9
-10
-15
-8
-15
-16
-15
-11
-14
-15
-7
-12
-8
-9
-14
-11
-19
-19
-19
-14
-8
-12
-13
-9
-13
-12
-16
-6
-15
-11
-13
-15
-20
-15
-16
-17
-16
-13
-12
-16
-17
-16
-13
-10
-18
-14
-12
-20
-15
-18
-14
-13
-17
-18
-18
-11
-13
-17
-20
-18
-15
-18
-11
-10
-27
-19
-17
-10
-12
-19
-13
-17
-15
-16
-17
-23
-17
-19
-17
-12
-13
-21
-22
-11
-11
-22
-15
-17
-19
-17
-22
-23
-17
-17
-17
-15
-14
-16
-17
-18
-14
-17
-14
-14
-19
-14
-13
-18
-17
-21
-19
-8
-13
-16
-14
-9
-6
-10
-6
-9
-8
-13
-9
-14
-9
-4
-9
1
8
7
7
5
5
-2
2
5
5
2
4
5
5
1
-3
0
-2
0
1
-1
-2
0
-8
-8
-4
-11
-19
-9
-12
-19
-19
-19
-20
-23
-17
-16
-18
-15
-16
-18
-15
-18
-17
-16
-15
-16
-25
-17
-17
-19
-16
-20
-18
-17
-15
-17
-10
-7
-3
9
26
46
62
81
97
119
141
157
172
177
170
157
143
123
82
43
20
9
-10
-43
-69
-71
-63
-48
-42
-28
-23
-18
-16
-16
-10
-11
-12
-14
-13
-11
-12
-15
-18
-9
-11
-12
-15
-11
-12
-10
-9
-8
-13
-11
-13
-12
-6
-6
-7
-6
-3
0
-5
-3
-1
-4
-5
-2
-2
-1
-2
-3
4
7
5
8
9
6
3
4
3
1
4
3
9
10
7
14
13
14
13
13
11
17
26
23
22
20
27
27
24
28
29
29
31
34
42
40
40
43
49
54
50
58
57
55
60
66
64
68
71
74
69
73
74
77
82
82
81
79
82
83
78
81
88
83
81
75
76
75
77
74
68
69
63
56
49
50
44
41
46
30
31
29
23
22
15
12
16
13
7
0
5
5
4
-2
-3
-4
-7
1
-1
-8
-4
6
-11
-12
-8
-12
-7
-3
-4
-11
-5
-7
-9
-16
-12
-12
-12
-11
-11
-8
-11
-6
-13
-9
-10
-10
-10
-14
-10
-11
-9
-13
-13
-12
-12
-10
-11
-9
-11
-15
-6
-3
-14
-17
-14
-9
-10
-11
-12
-7
-9
-7
-6
-11
-11
-7
-11
-15
-10
-9
-8
-7
-7
-6
-14
-12
-12
-9
-11
-10
-14
-10
-10
-7
-2
-14
-11
-12
-7
-5
-6
-8
-8
-11
-9
-13
-10
-9
-15
-9
-9
-10
-8
-6
-9
-11
-12
-7
-13
-14
-13
-12
-13
-15
-10
-14
-14
-11
-11
-16
-14
-13
-10
-15
-12
-15
-9
-11
-9
-10
-11
-16
-14
-13
-11
-12
-12
-16
-17
-8
-12
-15
-13
-11
-12
-15
-14
-8
-14
-18
-11
-15
-17
-17
-8
-7
-11
-17
-14
-13
-12
-18
-13
-15
-9
-6
-13
-14
-15
-14
-8
-14
-15
-11
-14
-15
-12
-13
-14
-13
-15
-16
-14
-12
-14
-11
-13
-12
-14
-11
-8
-17
-14
-13
-13
-9
-4
-5
-6
-5
-1
-1
-3
-5
-6
-7
-5
3
0
5
4
9
11
14
7
10
8
8
3
11
8
8
9
5
-7
4
6
5
0
4
2
1
-4
-3
-3
-7
-12
-18
-19
-13
-16
-19
-10
-11
-15
-16
-17
-14
-18
-12
-13
-18
-17
-16
-17
-21
-17
-13
-17
-12
-14
-15
-10
-20
-16
-12
-14
-13
-1
17
29
45
70
88
105
131
152
164
176
179
168
155
142
114
74
41
15
9
-16
-53
-70
-69
-64
-55
-40
-26
-16
-20
-17
-16
-14
-11
-1
-2
-10
-13
-10
-10
-7
-9
-11
-16
-14
-6
-6
-6
-7
-9
-9
-5
-7
-3
-5
-6
-3
-2
-1
-3
-3
-5
-7
0
4
0
-2
3
4
4
6
8
5
6
6
10
9
10
8
6
8
16
15
14
12
14
11
23
19
19
21
27
24
21
19
26
27
32
30
31
36
35
37
37
46
43
42
44
54
55
55
56
60
61
63
65
67
71
72
73
75
77
79
85
83
78
82
87
84
87
82
84
84
90
80
79
80
76
79
74
73
71
66
60
56
52
49
44
42
38
39
32
25
26
21
19
22
12
9
12
12
1
4
7
5
-1
1
-2
-2
4
1
-7
-9
-3
-6
-4
-5
-8
-9
-12
-11
-7
-9
-5
-6
-7
-13
-12
-11
-10
-6
-9
-10
-5
-9
-12
-9
-8
-11
-8
-10
-13
-11
-9
-7
-7
-12
-11
-7
-3
-6
-10
-9
-8
-10
-7
-7
-10
-13
-7
-7
-5
-9
-6
-12
-8
-5
-5
-8
-2
-8
-9
-12
-2
-9
-9
-3
-3
-10
-9
-7
-14
-15
-11
-5
-8
-6
-10
-8
-7
-9
-13
-10
-10
-13
-11
-10
-15
-12
-10
-6
-11
-8
-10
-10
-13
-10
-8
-12
-9
-8
-14
-14
-17
-12
-13
-14
-11
-16
-10
-11
-10
-3
-10
-14
-18
-13
-10
-12
-18
-15
-19
-14
-13
-16
-18
-14
-14
-14
-14
-14
-14
-15
-15
-19
-13
-15
-15
-16
-15
-9
-18
-15
-12
-14
-17
-12
-19
-14
-12
-14
-17
-16
-18
-14
-13
-15
-17
-15
-14
-12
-15
-17
-12
-9
-6
-7
-8
-8
-6
-9
-8
-4
-6
-5
-2
0
4
3
7
9
9
5
5
2
4
8
9
10
8
-1
-3
0
-3
-2
-6
-8
-8
-6
2
-4
-3
-13
-13
-15
-15
-17
-14
-16
-19
-21
-15
-13
-15
-16
-18
-16
-13
-16
-16
-18
-16
-16
-16
-18
-11
-20
-15
-13
-14
-12
-13
-16
-13
-1
8
17
32
51
69
91
110
133
146
159
171
169
149
134
123
85
46
24
-3
-30
-62
-80
-79
-71
-61
-51
-40
-31
-23
-21
-12
-10
-13
-6
-9
-12
-9
-11
-12
-6
-4
-7
-13
-10
-8
-9
-9
-8
-10
-9
-7
-7
-3
-4
-3
-7
-6
-5
-6
0
-5
-2
0
2
-2
-3
-3
-4
5
6
0
5
7
0
3
11
10
5
9
7
12
15
12
12
9
13
12
17
17
17
21
20
19
23
23
24
27
27
34
32
33
36
35
42
40
40
47
49
48
52
48
54
62
59
67
64
70
73
68
74
73
80
82
82
79
73
82
87
83
84
85
81
82
81
79
80
79
74
70
69
63
61
54
56
53
50
48
38
36
30
27
25
21
22
22
12
6
4
7
5
-1
1
-2
-2
-7
-4
-6
-7
-5
-3
-2
-3
-6
-12
-16
-13
-14
-14
-6
-6
-11
-11
-6
-15
-13
-10
-14
-13
-14
-16
-14
-13
-13
-11
-7
-12
-13
-12
-14
-11
-16
-13
-6
-7
-10
-9
-15
-12
-3
-3
-9
-9
-13
-14
-14
-10
-11
-7
-7
-4
-9
-7
0
-4
-2
-4
-11
-7
-7
-7
-5
-7
-5
-10
-6
-6
-6
-11
-2
2
-5
-6
-2
-10
-5
-8
-6
-8
-7
-6
-9
-8
-4
-6
-8
-7
-9
-9
-11
-6
-11
-4
-4
-11
-9
-7
-10
-15
-14
-9
-6
-5
-9
-11
-7
-8
-8
-14
-13
-8
-7
-7
-8
-7
-11
-8
-9
-8
-12
-16
-12
-11
-10
-9
-7
-8
-11
-10
-12
-12
-8
-9
-7
-6
-7
-7
-12
-17
-9
-10
-9
-9
-14
-16
-9
-6
-10
-5
-2
-6
-5
-3
0
-4
0
-1
-3
0
3
3
5
3
6
8
11
10
5
8
12
13
13
9
6
10
9
7
8
3
8
5
0
2
-2
3
2
-2
-7
-8
-11
-7
-12
-9
-15
-13
-11
-11
-9
-11
-10
-14
-13
-9
-13
-10
-9
-12
-16
-15
-12
-9
-9
-10
-11
-9
-17
-13
-7
-3
0
6
21
38
55
71
88
109
128
150
163
167
167
154
142
128
97
61
29
3
-16
-39
-65
-71
-67
-59
-46
-37
-29
-16
-12
-13
-9
-3
-3
-4
-5
-5
-8
-5
-3
-7
-3
-2
-6
-6
-7
-6
-6
-3
4
0
0
-6
-7
-4
0
-3
1
3
0
3
6
3
4
8
8
8
6
7
8
8
7
6
10
8
10
14
17
10
12
16
20
19
16
17
18
14
17
23
18
20
22
28
29
30
28
29
34
38
34
37
41
41
43
45
45
45
52
56
56
56
56
58
65
65
70
72
72
72
76
82
85
89
84
84
78
83
84
88
85
86
85
83
86
84
81
82
79
78
70
66
68
66
59
56
49
47
46
40
41
39
35
31
26
22
18
18
18
15
13
13
8
4
6
4
3
-3
1
4
1
1
-3
-5
0
-5
-3
-7
1
-4
-1
-5
-5
-1
0
-6
-6
-8
-8
-4
1
-4
-3
-4
-2
-7
-9
-6
-7
-7
-9
-6
-1
-7
-3
-7
-4
-4
0
-2
-3
1
-7
-6
-5
-2
-2
-3
-1
0
-6
-2
-4
0
-2
-3
2
3
-2
-5
-4
-4
-3
-3
3
0
0
-4
-4
-2
-5
-6
-3
-1
-4
-7
-3
0
-2
-6
-1
0
2
-2
-3
-8
-10
-2
2
-6
-5
-7
-9
-4
-4
-2
-5
-8
-7
-4
-1
-6
-9
-4
-8
-5
-7
-9
-6
-2
-1
1
-5
-4
-9
-12
-14
-9
-5
-2
-2
-4
-5
-5
-5
-11
-11
-7
-11
-7
-5
-10
-8
-3
-7
-8
-5
-2
-6
-7
-4
-3
-5
-10
-11
-10
-9
-8
-6
-8
-5
-9
-12
-3
-4
-9
-7
-6
-7
-1
-1
-2
-5
-3
3
5
6
-3
2
-3
0
1
5
5
10
14
18
16
14
13
11
11
8
12
11
8
14
15
12
12
9
4
9
9
8
4
4
3
3
-1
-1
-4
-10
-6
-8
-12
-9
-6
-5
-6
-9
-12
-11
-8
-9
-1
-7
-10
-8
-10
-9
-12
-13
-11
-9
-7
-8
-9
-2
-2
-10
-4
5
9
24
43
66
85
106
122
143
157
171
177
173
153
146
129
89
52
27
5
-8
-38
-64
-68
-59
-51
-39
-24
-21
-13
-7
-9
-12
-3
-3
-2
2
-2
-1
-6
-4
2
-5
-6
-1
-4
-3
-2
2
1
5
1
1
-2
1
-1
6
6
4
7
3
-3
2
3
8
7
2
3
9
8
10
11
11
11
17
12
9
16
14
16
18
22
17
14
18
17
20
27
25
23
21
27
22
25
30
29
33
32
35
36
37
39
41
43
41
42
50
53
54
54
56
60
64
63
64
67
69
75
76
77
74
80
78
86
83
83
85
87
86
86
89
85
85
90
90
85
85
84
80
74
76
70
62
65
58
58
58
51
45
42
41
37
37
29
28
28
26
18
18
15
14
13
10
5
8
8
15
0
0
2
3
3
2
-3
0
3
0
1
2
1
-1
-8
-1
0
-7
-5
-1
0
-2
-3
-4
-1
-5
-3
-6
-6
-6
2
-4
-4
-5
-2
1
-2
-5
-6
-1
0
-5
-4
-5
-6
-1
-2
-1
-1
-2
1
-7
-5
2
2
4
1
-3
-4
-6
1
1
-1
0
0
3
1
-2
0
-1
2
1
1
7
-1
-1
-2
-3
-6
-7
-2
-8
3
-3
-4
1
-2
-2
3
0
-3
-3
-6
-3
-4
1
0
-7
-5
-2
-3
-3
-4
-2
2
-4
-6
-8
-7
-2
-4
-1
-12
-4
-6
-4
-6
-3
-5
-1
-4
-6
-8
-8
-8
-2
-5
-6
-6
-8
-6
-9
-4
-4
-6
-6
-8
-3
-3
-9
-6
-2
-7
-7
-3
-5
-5
-7
-6
-5
-3
-4
-5
-5
-10
-7
-8
-8
-4
-8
-6
-9
-9
-14
-2
-1
-2
-6
-2
2
-1
0
-2
3
4
2
0
3
1
-1
-2
2
8
13
17
16
14
18
18
8
5
9
16
11
11
11
11
9
11
11
8
7
6
9
5
5
3
6
3
0
-2
-8
-6
-10
-8
-8
-9
-5
-7
-10
-11
-7
-5
-7
-7
-7
-10
-19
-11
-9
-11
-9
-8
-9
-8
-3
-10
-10
-6
-6
-10
-8
1
10
36
54
63
82
106
126
145
161
172
175
170
153
145
125
89
49
26
6
-19
-46
-69
-65
-54
-49
-40
-19
-17
-15
-15
-14
-5
0
4
-1
-7
-2
0
-3
-5
-6
-1
-4
-6
-2
-2
-4
-2
-2
-4
-4
-3
-2
-2
5
-2
1
-2
3
0
-2
4
2
8
3
8
5
7
7
9
12
4
2
9
14
14
15
13
13
10
14
23
21
15
13
18
17
20
24
22
27
25
21
23
27
32
36
33
36
37
38
41
34
42
42
44
46
50
51
57
60
60
60
62
69
72
71
70
72
75
81
79
81
77
81
83
84
86
85
89
83
84
84
84
82
82
80
81
75
69
69
68
63
59
51
55
50
44
35
41
34
33
27
32
24
21
8
13
15
10
7
9
9
6
2
5
4
4
-2
1
1
-6
-3
-5
-3
-3
-3
-2
-9
-8
-9
-5
-8
-4
-6
-4
-3
-6
-9
-4
-10
-5
-1
0
-8
-11
-8
-11
-8
-9
-11
-9
-7
-3
-3
-2
-3
-9
-4
-3
-8
-7
-4
-5
-2
-4
-7
-4
-5
-6
-5
-7
3
-3
-4
-4
-6
-2
-7
-6
-1
-6
-9
0
1
-7
-5
-5
-9
-5
-1
-4
-5
-5
-9
-12
-6
-8
-8
-7
-9
-5
-6
-3
-6
-12
-2
-3
-5
-7
-8
-7
-2
-7
-8
-13
-7
-8
-10
-9
-7
-10
-9
-9
-9
-16
-9
-4
-10
-16
-11
-12
-11
-6
-11
-11
-13
-14
-13
-14
-12
-12
-10
-8
-6
-5
-10
-11
-10
-15
-15
-11
-13
-12
-10
-13
-17
-11
-12
-5
-9
-14
-11
-10
-12
-14
-11
-10
-6
-6
-5
-5
-2
-4
-1
-4
-5
-5
-2
-4
-3
2
4
5
10
11
13
3
-2
3
8
6
8
7
7
8
7
-2
-2
2
4
2
5
2
0
0
-3
-8
-3
-13
-13
-14
-13
-10
-12
-12
-14
-18
-10
-14
-15
-13
-21
-17
-19
-13
-13
-17
-6
-10
-14
-9
-14
-16
-14
-12
-7
-11
-7
-4
-1
5
18
34
51
68
85
105
122
144
154
164
167
145
132
120
81
51
26
3
-25
-51
-73
-75
-61
-61
-57
-43
-33
-22
-17
-17
-11
-7
-9
-6
-4
-8
-7
-8
-4
-3
-3
-1
-8
-4
-4
1
-3
-2
-1
2
3
1
5
4
5
0
1
8
6
9
9
6
7
10
12
14
3
6
6
15
9
12
16
17
9
10
9
14
21
22
22
21
20
20
23
23
19
17
24
33
29
29
33
36
30
33
32
39
39
40
42
39
47
51
47
51
53
59
59
61
62
61
67
74
73
72
79
78
79
81
80
77
84
90
81
86
91
88
90
91
84
89
89
90
86
81
84
79
70
71
64
65
62
54
51
51
47
46
44
40
36
32
30
24
20
21
22
12
15
12
10
10
9
8
5
7
2
5
9
9
-2
0
1
-1
-2
-2
-6
2
-4
-5
-1
2
-2
3
-3
-2
-3
2
-7
1
-4
-4
-4
-3
0
-4
-1
-1
0
5
-2
-11
-8
-3
3
2
6
3
-2
1
2
5
5
5
-6
0
1
4
3
3
-1
-1
0
-3
3
0
-1
3
3
-3
0
0
4
-2
0
3
2
5
0
-2
-6
-2
5
1
-1
-1
-3
-1
4
-1
0
0
-1
-4
-2
-2
0
-1
-1
-1
0
-4
-1
-4
2
-3
-7
-5
-3
-3
-7
-2
-3
-7
-13
-5
-6
3
-3
-8
-8
-1
-1
-2
-9
-3
-7
-9
0
-7
-6
-3
-5
-6
-3
-3
-2
-7
-11
-9
-8
-5
-2
-6
-9
-10
-7
-10
-13
-6
-8
-4
-3
-4
-9
-2
-7
1
5
-1
-3
0
4
0
1
0
-3
1
4
7
11
16
13
13
17
14
10
10
10
11
13
6
6
10
10
10
7
5
5
1
3
8
4
4
5
0
2
-1
-3
-10
-11
-5
-9
-4
-4
-10
-9
-9
-10
-9
-5
-10
-11
-12
-16
-14
-10
-6
-12
-11
-9
-10
-12
-9
-10
-10
-9
-9
6
5
29
45
63
74
91
108
131
152
157
161
162
148
133
121
95
53
26
14
-4
-34
-58
-63
-66
-54
-44
-39
-26
-18
-18
-11
-11
-13
-10
-6
-2
-2
-3
-5
-4
-7
-14
-5
-1
-8
-1
-3
-5
-6
-6
-2
-4
-8
-8
-2
-1
0
-2
6
2
6
-1
3
3
4
5
1
8
3
4
6
6
7
11
9
15
13
12
12
13
16
15
15
13
21
19
21
21
22
21
23
20
18
26
30
28
35
36
40
35
35
35
42
40
41
45
48
50
50
50
55
59
57
67
65
68
67
67
71
80
80
85
80
80
80
80
84
83
81
86
84
81
79
82
82
80
77
79
72
69
75
68
62
57
53
48
39
47
43
37
32
33
27
24
26
20
20
14
11
11
13
9
7
9
5
4
6
4
3
1
-4
-1
-5
1
0
-3
-2
2
-5
-7
-4
-8
-6
-4
-7
-7
0
-3
-6
-4
-3
-5
-10
-6
-1
-2
-4
1
-5
-6
-2
-5
-4
-1
0
-4
-3
-4
-5
-7
-3
-4
-9
-5
-7
-4
-3
-3
-3
-3
-2
-3
-3
-1
1
-2
-4
-5
-2
-1
-7
-6
-5
-5
-7
-3
-2
-6
-1
1
-4
-5
-2
-4
-7
-1
-3
-9
-4
-4
-6
-10
-8
-7
-4
-11
1
-5
-2
-7
-8
-6
-5
-5
-9
-8
-5
-5
-6
-5
-9
-4
-7
-8
-7
-10
-8
-10
-12
-9
-10
-5
-9
-7
-11
-12
-5
-7
-12
-8
-9
-12
-13
-11
-7
-7
-6
-7
-12
-9
-14
-13
-10
-11
-11
-10
-8
-9
-12
-7
-8
-10
-10
-6
-7
-4
-2
-6
-8
-8
-6
-1
-1
-2
-2
1
2
0
6
12
17
13
6
9
9
10
8
6
8
7
8
8
6
12
4
4
3
6
2
6
-2
1
-8
-8
-13
-6
-11
-9
-12
-16
-14
-17
-16
-14
-14
-9
-15
-13
-14
-14
-15
-11
-15
-14
-15
-10
-15
-16
-15
-8
-15
-16
-13
-5
-2
-1
2
7
24
37
57
80
98
114
137
158
166
175
162
148
136
122
91
45
20
6
-11
-44
-69
-69
-65
-56
-42
-30
-25
-17
-16
-17
-12
-6
-9
-9
-10
-10
-11
-5
-9
-12
-15
-13
-13
-7
-7
-9
-9
-7
-7
-4
-6
-8
-6
-6
-1
-7
-8
-5
-1
0
2
-2
1
4
-1
2
0
-2
1
0
2
10
5
4
4
5
7
10
7
8
12
12
7
14
16
14
16
18
16
14
18
22
20
30
27
22
27
28
26
35
38
34
39
43
44
45
45
46
47
47
52
59
61
67
68
67
67
72
69
72
73
76
71
76
81
82
82
82
77
79
74
75
79
76
76
76
77
67
67
60
60
51
49
47
44
40
42
37
35
22
22
22
21
18
8
9
7
6
5
5
5
3
-2
-8
-10
-11
-2
2
-3
-4
-11
-17
-18
-11
-9
-5
-8
-10
-12
-10
-9
-5
-17
-18
-12
-10
-11
-9
-11
-9
-14
-15
-12
-11
-10
-11
-11
-14
-15
-16
-12
-7
-8
-10
-11
-11
-6
-11
-16
-10
-10
-11
-12
-8
-10
-11
-7
-10
-16
-17
-11
-12
-3
-7
-9
-5
-13
-8
-10
-12
-12
-8
-7
-8
-10
-15
-10
-13
-11
-12
-14
-11
-13
-11
-11
-9
-10
-16
-12
-13
-14
-17
-16
-13
-13
-16
-12
-10
-12
-16
-11
-10
-9
-13
-14
-13
-16
-16
-13
-16
-19
-15
-15
-16
-12
-10
-16
-15
-16
-13
-16
-20
-18
-15
-15
-13
-14
-15
-17
-17
-20
-18
-14
-22
-20
-15
-20
-18
-15
-19
-16
-12
-17
-18
-17
-18
-19
-19
-16
-21
-21
-12
-16
-17
-14
-17
-20
-19
-14
-11
-17
-9
-6
-7
-9
-14
-12
-11
-7
-5
-7
-8
-4
-5
-3
3
7
3
-5
1
3
4
1
1
2
-3
-6
-7
-8
-3
-1
-3
-4
-7
-8
-5
-10
-13
-19
-17
-16
-21
-21
-25
-22
-24
-24
-27
-25
-22
-24
-25
-20
-21
-21
-19
-22
-24
-26
-28
-27
-25
-21
-19
-23
-27
-17
-18
-20
-20
-13
-2
10
25
46
65
79
97
126
143
155
161
160
149
144
124
88
50
22
-1
-22
-47
-79
-84
-72
-74
-59
-45
-34
-33
-25
-25
-20
-16
-16
-20
-22
-16
-16
-22
-17
-20
-21
-17
-17
-16
-18
-12
-18
-24
-20
-17
-18
-16
-11
-17
-14
-8
-14
-16
-16
-14
-6
-8
-12
-13
-10
-8
-6
-12
-10
-12
-4
-3
-5
-4
-7
0
-2
-7
-3
-2
-5
-1
1
5
5
6
2
3
7
10
10
15
9
9
5
17
19
17
21
21
25
27
27
30
35
36
33
38
36
38
40
48
50
53
53
53
51
56
58
60
66
67
61
67
67
62
66
69
68
69
67
63
63
66
61
64
62
57
48
55
50
46
41
38
33
29
26
25
14
15
13
17
12
14
5
5
3
2
-1
-4
1
-5
-7
-12
-12
-15
-12
-13
-17
-14
-17
-11
-18
-14
-14
-13
-19
-17
-19
-18
-17
-14
-14
-20
-19
-22
-24
-19
-15
-19
-17
-16
-14
-24
-23
-20
-22
-18
-14
-19
-20
-18
-17
-20
-16
-18
-21
-19
-15
-16
-18
-21
-24
-18
-13
-15
-18
-12
-18
-15
-18
-22
-22
-18
-17
-17
-14
-20
-16
-18
-17
-16
-21
-25
-22
-19
-16
-17
-20
-22
-15
-16
-24
-18
-19
-19
-18
-21
-24
-20
-24
-22
-22
-17
-20
-20
-17
-18
-23
-24
-19
-19
-20
-23
-24
-25
-24
-20
-20
-23
-20
-18
-24
-28
-24
-23
-26
-20
-21
-19
-26
-27
-22
-24
-29
-31
-24
-18
-18
-26
-21
-28
-20
-26
-22
-28
-25
-25
-25
-20
-24
-23
-23
-28
-28
-25
-22
-20
-23
-25
-16
-17
-20
-21
-14
-18
-16
-15
-17
-21
-13
-15
-16
-12
-10
-11
-7
-3
-4
-5
-5
-3
-11
-1
-4
-4
-12
-9
-8
-14
-12
-8
-12
-6
-12
-15
-16
-15
-18
-22
-15
-22
-19
-24
-25
-27
-26
-26
-32
-26
-25
-22
-22
-22
-26
-27
-23
-22
-31
-29
-26
-29
-24
-24
-25
-27
-20
-23
-25
-26
-21
-23
-16
-10
3
20
32
51
70
88
112
131
145
151
157
142
137
123
97
52
27
0
-31
-49
-81
-87
-76
-71
-68
-53
-46
-37
-31
-29
-26
-21
-19
-17
-17
-11
-19
-22
-21
-18
-20
-20
-18
-16
-20
-14
-16
-18
-14
-17
-19
-16
-14
-15
-11
-12
-13
-11
-10
-10
-10
-10
-10
-11
-7
-7
-4
-10
-2
-8
-6
-1
2
0
0
-2
-1
3
7
8
6
7
7
11
11
16
18
9
12
19
19
17
17
17
21
27
32
27
27
29
30
36
40
35
44
44
45
49
51
55
56
62
70
62
60
65
71
70
76
77
81
78
75
84
81
84
83
89
89
84
83
86
82
82
78
82
74
73
71
66
63
63
56
50
44
45
39
31
30
26
27
23
22
20
18
13
10
6
4
2
2
2
-1
-2
3
-1
-3
-5
-4
-8
-5
-7
-10
-5
-6
-8
-11
-8
-4
-13
-9
-11
-10
-8
-10
-12
-10
-8
-7
-12
-13
-10
-8
-9
-4
-10
-12
-7
-6
-11
-14
-16
-5
-4
-1
-3
-7
-5
-6
-8
-6
-5
-9
-8
-2
-2
-2
-6
-1
-6
-3
-6
-8
-6
3
-5
0
-3
-3
-3
-5
-6
-1
-1
-2
-3
-4
1
-4
-6
0
-4
-7
-2
0
-4
-7
-8
-9
-4
1
-1
-7
-5
-4
-9
-11
-9
-6
-1
-4
-4
-5
-6
-5
-7
-6
-6
-5
-10
-5
-4
-2
-10
-6
-6
-6
-6
-4
-10
-8
-6
-2
-7
-6
-6
0
-2
-6
-8
-5
-5
-8
-7
-1
0
-8
-4
-4
-12
-6
-4
-6
-3
-8
-7
-8
-11
-10
-10
-3
-6
-7
-2
-3
-6
-9
-6
-7
-8
-2
-2
2
3
1
6
7
5
2
0
1
1
4
8
8
9
14
14
18
19
16
15
17
16
13
15
12
15
15
9
11
12
12
12
11
11
8
8
4
9
7
-1
-8
-5
-2
-5
-5
-5
-9
-6
-6
-10
-7
-8
-8
-5
-5
-5
-10
-9
-12
-6
-11
-6
-7
-6
-4
-5
-1
-7
1
-2
-7
4
13
26
50
62
80
100
122
143
164
178
190
186
171
157
141
112
71
35
20
4
-19
-59
-67
-59
-49
-37
-23
-19
-7
-5
-10
-9
2
5
1
0
0
0
0
3
3
-1
-1
-2
-5
-4
-1
0
1
-1
3
0
2
2
5
-1
2
10
9
7
7
8
7
8
11
5
14
10
12
11
11
16
11
13
11
17
17
19
21
19
14
22
18
17
24
28
27
24
26
27
25
32
34
34
30
32
36
36
44
46
46
44
49
50
53
55
47
52
59
60
67
70
69
69
73
73
78
81
83
85
86
86
89
85
86
90
89
95
97
91
94
92
89
87
92
88
84
86
87
81
77
75
70
65
65
59
52
46
48
47
40
42
34
30
29
29
24
19
21
16
10
10
12
10
13
9
10
6
8
4
5
6
4
6
5
8
3
4
2
1
3
5
3
3
3
0
-2
3
4
2
2
7
2
-1
3
4
3
2
3
-2
-2
-2
-1
3
3
3
-2
2
-3
5
3
-3
4
2
8
5
2
8
8
2
1
5
2
4
4
3
2
2
5
-1
1
4
4
0
0
3
3
9
5
1
3
4
-1
0
3
6
6
6
3
0
0
0
0
-1
7
-2
-4
0
5
0
0
1
2
-2
3
3
0
2
1
-1
3
2
4
2
-5
1
1
3
2
-3
-4
5
4
2
3
-2
-2
-2
-1
0
-1
-2
-1
2
1
1
-3
0
0
2
0
-1
-4
-1
-3
-6
-5
2
3
1
2
-1
-1
3
-2
-2
-5
-3
-5
3
2
-2
3
1
0
5
3
8
1
5
5
7
8
10
7
8
11
10
10
8
11
17
21
22
22
19
24
18
12
19
25
21
19
18
23
21
15
14
14
19
18
16
18
15
14
9
12
8
1
3
0
0
2
-5
-2
0
4
1
-1
-2
0
-2
-4
-3
-1
-3
-2
2
-4
-1
2
-1
2
-1
-6
3
0
5
0
7
13
18
35
55
72
88
118
136
158
180
187
192
189
178
167
148
109
73
41
22
8
-25
-56
-55
-46
-42
-34
-20
-12
1
9
2
5
5
5
8
6
3
4
6
7
8
3
5
6
13
11
3
2
7
9
9
6
9
7
1
13
12
11
17
14
17
15
18
18
18
18
18
22
19
21
19
20
19
26
21
26
23
27
30
35
30
33
31
28
29
32
32
38
33
37
38
40
37
38
42
42
43
54
57
54
52
54
56
58
62
65
62
64
71
71
75
79
80
80
83
86
93
90
92
94
96
100
94
101
109
103
105
104
101
98
102
106
101
103
105
98
95
90
89
92
88
87
78
73
76
68
67
58
55
55
50
51
45
44
40
34
31
35
31
24
27
20
21
24
16
19
11
19
16
12
18
17
12
7
12
12
19
11
11
7
11
14
12
10
11
11
8
10
10
11
12
13
8
11
9
11
13
12
9
7
9
14
10
15
14
9
6
11
13
11
10
11
12
7
9
11
10
17
12
11
10
7
12
16
13
8
8
10
10
15
11
13
13
9
13
11
10
15
9
13
12
11
10
12
11
4
9
12
4
9
9
15
13
9
7
14
10
12
11
5
0
4
9
10
15
7
9
7
7
8
4
4
5
8
7
8
3
8
11
4
11
6
4
7
8
5
7
1
4
6
6
6
8
3
3
2
2
6
2
5
2
3
5
6
6
2
6
4
4
4
5
2
3
4
6
1
3
1
-2
1
8
3
1
2
2
3
-1
4
2
5
10
-3
0
3
-1
-1
1
4
11
6
5
9
9
10
11
13
13
5
2
10
14
11
13
14
19
24
25
24
29
22
17
18
19
19
17
14
19
17
17
14
14
12
17
16
15
12
9
6
12
8
11
1
3
-2
-3
-3
-1
2
-8
1
5
-1
-5
1
-5
-3
0
-5
-4
-4
-6
-6
-2
-4
-2
-7
-5
-3
-8
-6
-1
-2
10
17
28
49
67
83
103
121
140
168
182
187
182
168
160
147
110
73
45
14
-14
-38
-65
-59
-55
-51
-39
-18
-13
-3
-5
-7
-2
2
-5
1
2
0
6
5
5
2
1
-1
-1
2
-2
-3
-1
2
6
10
-1
2
6
9
4
4
5
7
8
7
4
9
8
15
15
12
8
10
11
12
13
17
17
13
15
15
17
20
18
19
17
17
17
20
20
22
20
23
26
26
21
24
27
28
28
33
33
33
36
34
33
41
39
46
51
48
55
59
55
56
57
58
56
69
74
72
76
75
78
81
81
83
83
84
80
82
85
79
88
83
81
87
84
81
82
77
75
74
73
68
66
65
57
54
45
40
38
40
41
37
27
26
20
21
19
11
11
12
9
6
6
3
-2
-5
3
2
-2
-1
-5
-7
-7
0
-4
-9
-7
-9
-9
-3
-6
-10
-12
-12
-11
-7
-9
-8
-10
-9
-7
-12
-12
-12
-12
-15
-12
-9
-5
-8
-12
-9
-11
-6
-10
-9
-14
-7
-5
-10
-9
-9
-8
-13
-12
-7
-9
-6
-3
-6
-15
-16
-12
-3
-13
-10
-9
-7
-9
-7
-9
-10
-10
-11
-10
-14
-8
-13
-14
-10
-13
-9
-8
-12
-12
-12
-8
-11
-15
-16
-14
-17
-13
-19
-16
-15
-11
-10
-16
-16
-11
-14
-14
-15
-17
-22
-21
-20
-16
-18
-19
-18
-17
-17
-19
-20
-16
-15
-14
-17
-17
-19
-20
-21
-20
-19
-24
-17
-10
-15
-22
-18
-23
-27
-24
-15
-16
-19
-19
-20
-23
-18
-23
-19
-16
-17
-18
-23
-24
-25
-21
-22
-21
-23
-21
-18
-16
-17
-16
-14
-16
-8
-8
-16
-17
-10
-12
-14
-13
-8
-7
-5
3
5
1
-5
-9
-7
-3
-4
-1
-1
0
-2
-1
-1
-5
-4
-4
-10
-14
-10
-9
-14
-8
-11
-15
-18
-21
-22
-23
-26
-24
-22
-21
-23
-21
-22
-24
-27
-24
-24
-22
-27
-22
-21
-22
-22
-19
-15
-20
-21
-22
-18
-20
-21
-17
-15
-5
1
13
25
38
54
78
99
116
139
154
164
162
147
137
117
88
48
23
-1
-26
-45
-70
-73
-67
-62
-51
-45
-35
-25
-20
-20
-15
-13
-12
-9
-8
-6
-15
-13
-11
-11
-10
-7
-11
-19
-14
-10
-11
-7
-4
-7
-5
-6
-9
-2
-1
-4
-4
-1
-2
-5
-1
-4
0
0
-1
-1
0
3
3
-2
-2
3
8
6
12
7
7
7
10
10
8
10
17
17
10
12
15
20
17
18
19
22
26
27
25
31
30
37
30
32
33
36
40
39
42
44
47
50
52
53
57
59
60
62
66
69
70
73
69
75
76
78
83
82
82
83
79
82
81
85
80
80
83
77
76
74
73
67
66
61
61
56
51
50
47
39
37
33
28
23
20
18
16
17
15
11
11
6
6
1
5
-2
-2
-6
-6
-6
-6
-10
-7
-7
-12
-10
-10
-10
-5
-10
-9
-15
-13
-17
-17
-14
-9
-3
-11
-12
-11
-14
-14
-19
-14
-12
-7
-16
-15
-14
-4
-11
-15
-15
-16
-12
-13
-16
-11
-8
-12
-9
-17
-13
-11
-9
-8
-11
-14
-10
-8
-9
-15
-10
-12
-13
-13
-7
-7
-9
-11
-14
-14
-9
-11
-10
-7
-10
-12
-13
-14
-16
-15
-10
-14
-10
-12
-12
-15
-13
-11
-10
-9
-15
-19
-15
-15
-12
-12
-9
-9
-12
-15
-13
-15
-19
-16
-17
-12
-12
-16
-12
-18
-14
-12
-12
-12
-16
-17
-13
-16
-14
-16
-15
-16
-18
-17
-17
-19
-16
-15
-18
-20
-18
-16
-15
-21
-17
-16
-16
-17
-20
-19
-14
-19
-16
-16
-21
-25
-15
-12
-21
-16
-19
-20
-12
-17
-15
-18
-18
-17
-18
-18
-16
-18
-14
-16
-20
-15
-19
-16
-21
-16
-16
-15
-15
-14
-13
-12
-11
-10
-6
-13
-9
-10
-10
-10
-10
-4
-3
2
1
4
5
4
4
3
0
4
1
1
-3
2
2
-1
0
-5
-4
-6
-6
-4
-4
-4
-5
-9
-11
-16
-14
-19
-18
-18
-19
-19
-22
-23
-20
-16
-12
-18
-16
-17
-25
-23
-17
-24
-27
-21
-18
-16
-19
-20
-18
-17
-28
-19
-17
-16
-10
-8
1
13
32
49
68
86
105
126
146
159
173
164
148
136
122
82
49
19
3
-12
-37
-67
-75
-67
-57
-48
-38
-30
-21
-17
-22
-21
-16
-12
-15
-18
-17
-15
-17
-14
-17
-11
-9
-14
-13
-13
-18
-15
-13
-6
-9
-16
-11
-8
-9
-12
-13
-15
-8
-8
-5
-3
-7
-5
-5
-4
-2
-5
-3
-5
-8
-4
-1
1
8
8
2
2
6
4
2
3
7
5
6
10
10
8
8
11
13
14
18
15
17
19
21
22
21
23
27
30
33
29
31
41
41
41
43
44
50
49
47
55
55
60
58
60
66
70
68
71
71
72
69
78
74
75
75
78
76
73
74
76
74
74
71
69
60
63
62
55
54
55
49
42
41
37
32
26
24
26
21
17
12
6
7
4
8
3
-3
-4
-2
-5
-7
-5
-7
-7
-11
-11
-9
-12
-14
-7
-12
-16
-17
-13
-13
-16
-17
-14
-14
-13
-16
-16
-16
-11
-8
-15
-14
-12
-11
-19
-16
-17
-16
-18
-11
-10
-18
-20
-17
-15
-13
-15
-17
-13
-14
-15
-12
-10
-17
-16
-15
-17
-13
-16
-17
-18
-16
-13
-12
-16
-13
-14
-18
-14
-12
-15
-19
-14
-18
-14
-11
-16
-17
-16
-15
-15
-16
-8
-15
-19
-16
-10
-20
-15
-14
-14
-18
-19
-18
-16
-15
-17
-13
-17
-18
-22
-17
-16
-17
-18
-16
-17
-17
-15
-16
-17
-19
-16
-19
-18
-22
-15
-22
-20
-20
-20
-25
-18
-20
-24
-20
-20
-19
-17
-15
-16
-18
-24
-23
-20
-21
-21
-22
-20
-20
-21
-20
-16
-20
-25
-27
-21
-19
-21
-17
-18
-23
-24
-22
-27
-22
-19
-20
-19
-18
-21
-22
-21
-21
-16
-18
-24
-20
-22
-20
-20
-23
-19
-18
-18
-21
-23
-20
-22
