1
-7
27
19
11
26
9
13
18
10
5
18
15
16
17
21
16
15
23
8
-1
11
1
13
23
23
20
26
22
13
7
7
33
17
10
12
15
3
17
12
3
10
15
2
11
22
27
14
14
10
8
11
1
3
11
19
19
8
33
28
14
18
17
12
15
11
11
7
8
6
24
16
10
11
21
17
-2
0
14
17
16
6
12
17
25
5
21
5
-3
14
19
9
-5
18
10
28
21
13
13
9
10
13
15
13
18
9
-13
5
26
21
15
13
20
20
7
11
13
6
6
11
18
25
22
11
15
20
11
1
12
15
18
4
17
1
14
-2
0
22
6
25
16
1
11
35
42
15
15
16
13
35
32
35
21
23
17
12
23
34
30
23
30
32
35
22
16
20
11
-1
6
12
13
17
9
21
3
-2
16
14
21
10
4
6
0
-5
-1
10
11
1
5
11
13
20
9
20
24
34
36
72
103
131
166
162
178
167
149
144
141
140
101
58
16
1
-10
-15
-1
-1
-12
6
11
11
10
-2
4
22
14
-4
-4
2
4
5
10
3
7
8
9
8
21
29
-3
1
12
14
16
20
20
24
35
24
3
3
13
9
5
12
4
18
23
24
20
7
5
11
12
17
28
5
4
19
5
9
25
13
3
6
26
37
30
22
21
25
25
13
20
18
33
27
32
28
31
30
39
35
28
27
37
43
41
33
49
32
33
41
46
41
58
56
40
51
61
36
35
44
67
58
75
55
55
62
54
59
68
68
57
53
50
49
52
63
48
33
27
38
55
58
34
30
36
32
33
25
18
24
15
20
25
30
30
6
10
22
-2
-17
7
42
30
21
27
26
18
21
13
12
19
19
25
23
4
13
11
18
12
29
35
11
11
22
9
17
21
13
13
12
2
8
9
27
23
12
15
4
7
6
20
14
6
30
20
19
11
21
18
27
23
12
-2
15
25
24
26
24
7
10
25
24
21
25
28
24
35
30
24
10
11
13
20
14
16
27
8
5
28
26
20
31
15
4
7
20
24
9
6
6
24
22
22
15
21
16
19
12
17
24
21
24
20
17
28
26
7
22
10
23
0
-2
22
32
28
23
30
26
1
33
21
16
14
15
6
23
21
14
14
9
10
26
31
10
16
26
9
16
17
11
25
23
22
14
13
6
18
22
23
33
31
7
9
2
15
25
8
14
12
23
31
31
19
19
17
23
11
22
23
22
25
10
33
39
18
17
30
36
32
29
34
42
39
15
28
41
17
25
32
33
27
26
7
7
31
7
9
15
22
19
25
17
19
21
29
15
-1
5
14
3
-1
11
15
8
6
11
8
15
3
33
36
67
78
103
150
170
189
196
190
176
156
158
144
120
68
42
19
4
-1
4
-3
8
4
11
10
20
8
15
21
32
1
-3
9
25
7
8
10
15
28
14
9
22
22
8
14
1
13
17
7
-4
21
20
26
21
15
23
24
20
28
18
8
20
27
16
14
22
16
14
18
9
23
30
22
15
10
23
28
12
8
-1
15
25
40
41
25
24
25
38
20
19
25
36
35
41
35
23
31
29
32
48
40
39
35
42
43
36
57
65
45
47
54
46
73
56
25
52
62
59
55
63
55
68
44
60
52
55
71
60
48
49
59
50
52
59
52
60
46
43
53
49
23
45
34
30
35
36
41
48
27
29
43
21
22
23
27
25
22
24
36
24
29
13
24
9
24
13
25
21
16
33
25
23
26
18
26
15
27
28
17
23
18
19
28
16
11
29
38
21
24
25
18
21
30
27
16
23
19
41
24
30
30
40
8
15
22
21
31
25
13
18
28
4
25
37
35
21
15
38
29
30
25
32
11
30
25
23
6
29
26
32
34
25
27
20
23
25
20
26
29
31
36
22
35
19
19
17
20
25
32
37
23
31
32
29
24
25
21
18
21
21
31
17
20
8
29
30
26
30
21
13
25
26
34
22
18
17
32
34
31
19
28
23
20
21
21
31
23
27
35
28
15
20
13
19
33
25
16
14
32
38
38
49
20
14
14
16
19
21
23
25
26
25
27
25
21
19
18
27
20
24
26
23
22
29
35
48
30
24
32
35
36
33
33
30
38
41
39
32
20
19
31
49
32
42
36
27
40
33
31
29
6
20
38
24
22
18
26
23
25
20
18
17
37
13
19
25
8
19
15
11
31
12
19
27
30
42
56
63
79
111
182
189
206
210
194
172
162
159
147
124
88
46
8
22
-1
2
16
19
16
9
1
30
19
2
20
20
19
18
24
45
26
27
25
14
8
13
12
21
23
8
28
31
34
21
10
38
38
25
34
31
30
19
7
33
32
26
26
28
23
22
17
24
19
32
27
28
31
35
28
29
41
37
30
15
27
36
17
38
29
33
26
37
32
29
40
33
34
38
39
42
47
31
39
38
40
45
45
48
48
40
43
58
63
47
53
66
62
71
64
72
85
56
67
51
53
74
75
80
61
71
81
86
58
62
69
59
60
71
85
61
51
51
50
53
49
43
49
40
34
50
57
41
41
43
27
25
45
50
36
38
29
40
37
27
23
22
36
38
24
28
34
35
33
26
35
33
21
33
34
31
32
22
16
21
32
35
32
25
29
34
22
20
38
37
36
36
44
35
33
19
8
27
35
22
27
44
30
31
24
34
39
19
26
28
25
25
35
29
28
46
31
19
39
43
28
32
35
26
30
45
27
26
39
32
28
22
25
35
30
24
33
21
26
23
25
31
30
32
21
29
33
41
27
21
40
40
28
29
27
8
37
43
29
24
29
28
27
28
24
35
37
36
26
34
36
23
29
27
13
27
35
26
15
17
14
16
33
33
30
44
43
36
30
35
23
18
14
22
30
31
43
32
20
27
26
35
43
32
27
15
17
27
22
27
19
33
31
24
16
39
26
22
29
33
30
28
27
24
37
37
22
16
30
27
29
27
31
37
39
34
26
30
28
39
24
27
20
29
40
38
52
52
38
40
40
46
33
44
33
22
26
28
40
48
55
23
12
34
35
27
25
23
26
16
23
32
21
26
33
20
28
7
5
15
12
18
13
12
22
27
30
34
39
50
67
90
123
169
195
191
186
194
176
158
164
147
134
76
48
26
2
8
14
7
10
24
23
23
9
32
12
35
22
16
17
16
19
12
18
17
24
28
14
29
18
24
19
14
28
21
26
26
28
24
34
42
37
26
16
22
34
23
8
15
28
23
28
15
15
33
42
22
18
28
35
25
31
22
20
24
31
32
42
39
25
18
35
32
24
27
30
31
28
32
26
49
52
35
32
49
51
48
50
48
28
31
53
45
57
57
49
56
60
55
54
62
67
67
83
67
41
57
61
63
65
60
72
74
58
51
49
66
62
55
69
58
66
57
54
54
44
37
62
43
38
42
51
45
39
29
22
24
37
35
40
35
18
24
33
26
26
24
33
15
13
11
10
9
43
28
25
12
29
2
38
26
27
8
17
29
24
27
37
25
15
20
16
20
26
11
18
34
31
30
24
12
6
14
34
34
26
40
21
15
21
18
15
36
30
24
14
21
19
23
31
9
17
31
39
14
28
23
27
15
20
33
42
17
20
23
28
24
30
17
-4
4
43
34
24
28
28
18
22
26
23
27
27
12
21
31
11
25
16
37
20
26
28
17
12
26
17
15
13
21
20
17
29
22
13
21
19
12
27
17
22
17
16
30
23
27
19
24
26
23
18
35
30
5
3
2
12
19
21
28
33
21
8
25
16
22
6
-6
38
17
22
23
31
25
26
27
12
17
15
26
24
31
23
22
21
20
31
24
21
35
27
30
44
31
23
31
36
33
32
42
39
20
30
32
28
19
12
10
30
21
22
15
19
4
16
35
24
21
16
29
9
18
8
3
13
40
29
0
6
19
9
5
17
1
8
3
3
32
42
56
75
109
125
152
170
182
176
166
160
156
137
124
72
13
-1
1
-5
-2
10
4
7
17
19
14
13
10
24
11
17
2
10
7
17
16
10
4
11
25
12
11
20
8
7
42
33
32
10
4
10
12
18
10
7
25
27
17
13
20
15
19
29
25
18
17
15
14
20
11
20
13
24
25
29
21
20
18
14
24
26
23
14
31
39
22
38
28
9
21
23
46
36
19
37
38
34
23
34
31
44
35
43
47
35
40
44
49
55
66
57
58
58
75
57
52
56
54
54
61
66
63
51
66
66
61
60
64
56
60
62
51
60
46
41
42
36
31
50
40
30
39
37
35
25
30
23
18
31
18
29
32
25
22
22
31
23
24
16
20
17
6
10
23
27
27
30
32
8
17
34
20
16
21
20
18
-9
17
17
26
25
23
11
5
25
15
10
8
10
18
23
17
19
14
4
14
31
20
15
18
14
18
23
30
18
15
24
17
20
14
18
25
6
34
8
13
25
31
45
31
22
17
17
22
23
24
24
8
3
20
18
18
24
19
16
34
19
22
8
17
22
19
21
25
23
15
31
19
12
-1
14
39
32
21
24
27
18
23
5
16
25
17
3
22
28
26
25
9
19
27
24
23
6
21
27
11
18
17
-1
12
28
40
22
14
17
16
29
17
22
15
24
17
15
15
17
16
15
7
19
21
36
23
16
14
5
22
38
29
12
18
28
18
8
27
21
32
33
23
10
24
38
52
27
29
23
39
34
25
45
31
41
23
17
18
24
28
13
22
12
7
24
25
31
6
10
10
23
12
21
19
22
16
8
0
14
5
-3
7
2
11
24
42
30
23
31
69
103
105
140
175
196
186
186
180
163
154
126
110
78
47
23
11
10
10
6
14
5
12
10
19
6
-3
9
9
19
6
11
28
33
26
14
19
22
16
16
20
6
3
9
22
3
6
5
18
27
24
25
21
15
15
22
19
16
14
26
16
24
17
15
3
15
29
24
18
20
23
34
20
-2
8
4
38
32
38
25
15
13
20
16
30
29
16
26
30
33
30
33
30
38
35
37
42
28
31
31
24
32
61
64
35
37
50
65
53
47
60
54
56
52
62
51
53
63
57
53
58
59
61
57
57
60
63
54
47
47
59
53
58
53
39
46
33
44
42
37
35
32
39
28
24
40
33
19
17
17
9
30
45
23
16
18
31
23
24
36
22
37
25
0
24
21
9
28
34
17
26
17
23
22
3
26
42
22
25
17
7
19
30
20
10
19
30
19
30
20
19
24
8
9
33
31
17
25
32
26
23
22
22
19
20
27
19
28
26
9
22
24
24
41
36
26
24
21
24
25
29
22
24
34
13
22
26
28
27
25
26
38
29
24
31
38
30
32
23
16
20
33
28
16
21
23
30
22
28
28
30
26
17
34
33
19
33
14
24
23
14
34
33
26
23
28
15
26
22
27
31
34
20
24
31
22
29
35
35
28
15
4
33
30
19
36
33
20
23
27
18
29
38
27
24
20
21
23
44
25
23
33
16
13
33
30
31
33
42
28
31
33
28
20
23
24
14
7
24
29
30
18
35
28
27
37
40
27
37
43
29
35
44
43
38
33
37
33
40
32
36
40
30
36
31
47
43
44
33
38
31
31
29
39
26
12
22
32
22
21
26
14
32
23
23
16
24
30
19
22
27
9
6
34
33
26
14
30
63
67
87
104
148
183
206
213
198
200
176
170
151
141
101
65
44
30
17
23
17
8
16
8
3
22
33
22
16
15
23
26
13
32
32
40
46
28
25
14
25
43
46
15
20
14
28
33
23
32
33
36
35
22
23
35
27
25
6
32
35
23
31
31
42
37
32
29
22
27
36
31
37
34
46
28
23
32
36
26
25
36
33
27
32
30
29
34
47
40
39
29
36
32
33
47
49
41
40
55
52
34
36
45
61
70
59
48
44
75
66
72
67
64
59
74
76
77
82
68
58
89
71
68
78
75
61
56
58
74
73
60
74
65
52
66
51
42
49
61
47
50
47
35
45
71
48
33
40
38
45
49
35
37
44
40
34
42
38
47
31
26
26
39
42
40
33
36
44
34
24
14
33
34
25
27
19
41
33
35
44
35
39
33
30
34
22
21
26
52
32
21
49
33
31
40
36
30
42
35
36
36
26
37
33
37
38
42
33
24
27
44
39
34
16
28
51
31
28
41
35
25
49
36
30
45
38
34
29
24
28
33
42
37
34
37
31
44
39
34
38
30
40
34
41
32
34
35
39
28
27
36
38
40
47
37
32
30
26
37
40
43
40
48
51
29
25
35
41
34
35
39
37
39
36
31
43
52
41
35
40
50
30
38
35
37
39
47
52
52
52
46
32
40
40
52
43
52
49
37
39
47
55
58
57
54
56
54
49
50
48
59
67
53
34
44
55
63
65
48
64
55
63
59
74
61
60
64
51
56
55
60
64
53
51
54
68
58
51
60
71
56
55
65
54
65
62
63
68
58
55
66
63
55
61
72
53
66
65
86
91
81
75
67
65
70
77
81
77
78
73
61
57
68
72
89
82
74
73
65
53
66
58
56
61
66
67
65
63
53
64
74
51
66
79
64
68
66
66
48
50
49
55
46
44
57
50
61
74
87
103
119
131
164
215
228
251
224
225
219
202
188
168
130
111
84
70
65
54
47
59
58
76
79
52
44
59
54
50
65
56
64
59
67
67
60
54
56
56
81
74
64
61
58
54
67
66
58
56
57
67
67
72
61
71
91
69
55
63
79
64
65
66
64
69
64
73
64
51
68
82
75
71
64
67
73
79
67
60
79
77
72
67
72
77
66
77
83
93
79
80
79
89
64
70
82
100
85
78
79
96
80
83
91
97
100
102
102
111
93
84
106
108
105
93
110
107
115
110
110
116
119
116
104
122
102
95
118
104
107
100
104
99
107
104
115
105
90
83
88
80
104
86
95
83
91
72
85
80
73
74
81
63
70
63
84
84
79
69
68
72
72
75
75
71
71
74
69
68
70
56
63
64
92
76
63
63
74
77
76
77
67
71
71
52
77
79
77
76
72
65
59
58
72
70
66
79
75
71
75
64
61
81
87
76
59
60
89
73
77
75
74
64
72
83
65
78
75
70
62
79
76
71
69
78
82
74
72
58
54
71
87
71
73
73
76
73
68
72
67
74
85
81
63
80
83
78
74
84
76
82
72
62
75
69
66
59
46
75
85
79
74
84
69
74
64
65
82
71
56
72
71
76
84
72
69
84
69
70
74
69
71
73
70
68
74
74
74
92
64
72
70
71
81
75
57
82
77
73
67
69
73
74
68
71
71
74
69
74
78
75
85
74
67
66
80
53
82
81
83
64
81
90
87
83
67
68
85
82
81
86
86
82
89
95
87
84
90
83
79
84
90
84
85
77
69
64
66
71
74
76
75
83
76
81
76
74
69
68
65
70
69
71
76
74
66
58
74
78
69
84
74
80
92
109
135
158
203
235
239
224
232
221
209
210
178
141
106
74
68
54
62
41
51
56
62
69
55
82
83
70
77
84
78
72
76
82
77
68
80
85
72
77
67
78
67
76
74
76
77
75
73
73
79
72
72
81
86
77
68
69
77
86
83
85
82
94
71
69
79
93
93
98
88
91
70
74
94
88
71
83
84
79
73
93
98
109
95
92
90
90
94
85
91
88
101
88
81
85
100
92
100
114
110
111
115
111
110
107
104
114
118
130
118
126
125
128
118
123
131
124
116
126
128
125
119
128
133
124
125
145
108
132
152
121
120
109
117
116
121
118
102
92
112
88
96
93
97
86
106
109
103
88
94
94
98
99
88
97
92
88
86
94
97
87
87
92
85
97
91
88
93
84
77
87
82
88
91
108
112
103
85
94
88
78
76
81
101
86
93
84
88
100
94
87
87
87
100
105
85
85
94
97
104
95
89
84
96
94
92
95
94
86
79
93
94
102
98
96
115
107
107
108
105
100
93
89
96
102
89
96
116
98
93
113
104
107
109
99
99
113
105
100
105
99
100
103
93
91
110
112
77
96
115
120
103
108
101
97
100
110
119
102
106
96
103
95
115
108
109
106
115
105
98
96
105
115
109
102
113
110
107
116
116
113
104
100
100
114
113
105
99
121
115
102
111
125
111
111
119
121
128
126
109
100
103
136
124
101
104
118
128
130
132
133
143
132
127
133
126
133
123
136
142
127
133
131
133
132
125
137
124
138
140
121
135
122
115
108
122
126
126
140
116
115
124
117
122
119
123
129
113
122
129
106
98
122
128
125
123
137
136
142
161
176
193
223
265
298
321
310
310
304
295
272
257
222
190
161
145
122
127
137
135
120
128
136
143
145
143
148
141
128
150
147
146
153
150
154
154
148
149
146
143
147
164
164
152
155
154
154
165
154
167
163
165
168
167
167
163
164
162
170
172
161
169
172
173
161
170
187
176
175
182
177
173
168
179
176
178
186
184
181
185
186
187
175
191
181
179
199
193
188
189
184
188
196
195
190
204
211
207
211
208
199
206
211
205
210
226
214
226
227
230
227
234
237
236
240
248
241
243
240
238
247
246
243
232
243
263
255
244
251
252
248
253
255
256
248
236
238
233
195
170
176
166
149
145
130
124
116
116
130
116
96
99
98
92
93
95
93
100
86
71
66
80
88
78
72
84
64
81
71
74
64
66
59
67
63
60
81
65
56
65
68
74
61
49
57
52
48
40
68
53
52
50
44
38
45
55
48
35
47
54
50
53
41
38
40
42
45
40
48
44
54
47
32
29
48
46
47
47
29
41
32
27
38
33
27
53
45
24
32
29
31
30
28
31
29
41
47
44
26
25
20
31
39
25
42
42
15
21
29
35
29
32
33
22
38
30
27
33
28
28
33
29
22
19
28
22
17
23
27
26
22
15
26
10
20
20
28
32
16
20
38
22
10
0
-1
26
23
32
32
18
21
16
27
21
21
17
25
19
8
10
30
20
16
15
8
20
23
24
13
14
17
15
29
33
32
32
15
19
31
20
18
14
31
42
42
42
27
30
30
30
30
19
21
15
21
20
15
0
20
26
20
16
13
8
2
17
22
12
10
18
11
11
5
-2
-18
-2
9
12
3
10
-13
0
29
52
66
85
126
162
188
208
202
181
163
151
150
122
92
53
36
13
3
10
0
2
-6
12
5
15
14
5
8
7
3
4
7
13
5
-2
-5
11
-1
19
16
19
13
8
8
-8
9
20
16
14
20
-9
16
32
19
23
5
3
-1
-2
27
12
4
23
23
13
-1
1
11
6
3
3
17
16
9
14
23
5
21
21
26
17
16
20
16
15
3
19
29
20
18
24
33
31
26
29
16
11
27
24
44
33
34
49
37
26
23
29
47
54
44
36
32
46
55
60
44
59
53
55
45
58
62
59
44
64
48
46
44
58
46
36
32
61
51
47
44
29
26
31
28
43
37
18
22
29
20
14
15
16
9
-1
16
16
22
10
23
28
16
10
20
14
12
10
6
10
16
14
-2
16
17
25
24
4
-13
13
4
28
21
10
12
24
11
11
3
-10
7
11
8
-1
15
12
14
7
-7
12
12
15
8
15
9
9
-6
7
13
-4
-2
15
11
21
10
24
11
4
11
-5
-1
-4
2
13
4
11
-3
8
14
-1
-3
2
9
0
-11
15
11
2
5
-1
-6
4
11
16
1
1
-10
-10
-13
14
8
2
8
-11
-7
-13
-1
6
-7
2
-6
-10
1
-8
10
11
10
-2
-3
-15
-13
-4
5
-6
-1
-5
-5
-2
9
-9
-13
11
5
-8
10
-20
-24
-25
-5
4
-8
-9
-11
-4
5
-2
5
-3
-8
4
-14
-13
15
-1
-10
-11
-11
-2
-9
1
-1
-13
-2
11
16
-4
-17
-11
-11
-21
5
6
-1
-5
4
13
-12
-2
-2
3
1
-1
-7
6
5
9
10
25
21
-7
-7
-4
2
-3
-4
-8
-11
-6
-6
-17
-9
-3
3
-14
-14
-14
-14
-12
-7
-10
-18
-9
-8
-10
-2
-25
-31
-24
-13
6
-15
-21
-3
24
26
37
76
115
129
144
164
151
145
125
124
101
73
39
4
-23
-21
-21
-28
-31
-41
-24
-25
-20
-2
-19
0
-9
-18
-20
-3
6
-6
-16
-14
-17
-6
-7
-8
-8
-24
-16
-4
-7
-18
2
-1
-19
-22
-3
-6
-12
-12
-19
-12
9
4
-5
6
-4
2
14
-6
8
-2
8
-18
-12
-7
5
7
0
5
10
14
-1
3
15
12
24
9
4
-5
4
-2
1
8
-9
1
15
-2
4
-1
31
29
20
26
21
36
33
32
18
31
45
42
41
39
45
50
48
46
44
43
45
50
55
55
55
67
74
67
55
59
49
42
56
58
62
74
59
72
64
47
40
60
60
67
64
64
50
44
42
41
49
52
45
40
51
61
40
46
34
30
45
36
29
33
48
42
53
50
43
51
44
23
35
43
54
49
41
31
34
24
34
45
36
25
30
36
31
34
7
9
25
18
27
21
12
40
26
13
37
28
23
6
34
23
8
15
13
33
25
24
30
21
16
31
16
21
29
30
32
26
26
23
16
19
38
34
35
35
27
36
29
32
24
13
32
44
36
34
48
22
40
30
29
29
41
39
36
20
25
37
32
44
39
22
33
41
31
38
45
25
14
50
42
34
47
31
50
37
24
34
39
42
44
42
42
36
55
51
35
47
47
62
46
51
49
59
54
44
50
40
56
49
50
57
54
54
52
62
71
60
51
65
61
65
73
75
77
77
69
70
81
83
71
74
79
88
77
68
63
75
67
67
77
78
89
65
74
73
56
62
83
64
50
71
69
68
70
79
78
77
72
74
59
55
61
74
79
71
62
71
80
95
97
121
155
167
199
231
253
255
247
248
220
218
212
182
144
109
91
62
52
47
96
87
82
85
81
86
88
86
93
89
101
110
100
104
110
101
108
100
99
109
102
108
115
97
95
101
111
109
120
109
98
110
115
106
113
117
108
113
111
113
116
122
133
127
109
113
113
110
116
118
124
137
120
133
123
140
132
124
138
141
126
132
141
144
146
129
112
132
136
129
132
134
147
125
143
149
130
140
136
133
134
114
132
127
115
123
130
127
111
111
112
132
121
112
138
140
131
134
147
148
133
134
124
141
129
139
127
138
145
130
128
133
130
127
131
141
132
124
122
137
126
118
120
119
109
107
118
121
98
93
113
125
106
123
118
113
123
124
131
111
131
132
127
114
120
116
125
128
126
121
120
119
121
104
94
95
98
94
85
76
77
79
76
58
50
54
68
65
65
67
75
47
48
48
35
38
33
40
49
55
46
47
42
42
48
34
28
57
67
66
63
62
54
56
63
66
66
65
78
76
90
95
76
79
97
93
80
78
83
87
82
81
73
77
79
84
60
75
95
87
72
73
72
82
85
83
80
71
72
67
69
62
66
63
79
85
88
84
66
60
78
82
95
106
84
102
81
97
96
88
93
74
69
64
82
88
85
73
74
75
79
66
94
87
70
76
72
68
66
64
77
68
68
65
70
65
77
76
81
93
90
89
89
97
94
101
112
86
75
103
89
96
106
91
95
87
91
97
117
113
103
100
104
102
107
101
99
108
106
104
119
115
101
114
108
122
113
125
133
123
124
122
112
110
117
130
129
105
119
104
116
118
105
103
105
110
118
115
107
121
124
117
111
108
121
109
97
106
104
109
112
99
90
111
101
104
101
120
114
138
156
166
172
217
259
274
300
300
284
281
276
256
245
234
184
155
135
114
116
121
116
103
118
133
134
125
115
115
121
118
121
116
127
126
116
117
109
129
129
123
119
120
122
120
124
122
127
125
148
144
136
123
128
130
143
138
130
112
126
137
162
136
145
124
132
145
152
138
132
146
148
156
160
134
134
135
160
158
154
160
164
177
176
164
163
165
164
178
183
172
177
185
185
184
172
179
184
179
182
189
165
171
191
185
176
186
194
190
192
200
210
193
209
210
221
208
211
211
217
227
236
209
213
224
214
209
206
215
219
216
205
208
212
211
212
207
211
190
190
202
200
196
193
195
187
178
193
195
190
194
175
184
175
181
184
178
174
178
189
195
186
186
184
198
180
194
190
178
191
193
196
186
188
196
179
175
162
168
166
161
163
181
188
167
168
166
173
157
147
161
173
178
177
169
172
167
167
171
167
152
165
162
174
186
176
170
178
169
164
172
166
174
176
176
173
188
183
182
184
185
183
181
188
186
190
182
185
192
186
176
181
166
176
178
187
198
175
206
197
192
176
187
190
189
176
191
194
181
197
191
184
176
194
189
181
179
192
187
197
206
176
190
194
204
205
200
206
205
207
222
222
217
209
213
229
218
219
228
243
244
236
231
242
232
241
237
227
228
222
255
248
263
252
262
252
242
247
268
261
254
244
246
251
243
237
258
247
256
248
251
238
234
253
241
242
246
266
239
257
261
242
251
260
245
249
258
252
265
256
268
257
261
244
253
268
284
278
284
277
279
278
278
269
269
259
263
277
283
273
279
272
283
288
297
296
287
286
287
268
291
285
300
283
287
279
276
281
270
277
280
275
283
276
280
286
290
307
296
276
279
279
259
269
272
265
256
249
270
279
288
276
251
282
283
281
281
304
304
302
292
303
297
289
287
303
305
291
300
302
332
318
314
324
330
326
321
322
317
325
309
327
336
338
331
327
323
330
331
328
324
315
323
336
335
331
333
322
326
330
328
327
334
340
329
330
340
370
381
395
419
487
530
575
629
647
638
640
632
627
636
617
516
405
380
346
355
419
443
459
488
489
500
499
527
522
545
543
548
572
554
573
592
604
602
599
606
602
617
608
624
634
643
633
661
668
686
682
691
698
706
742
761
764
771
772
789
784
801
803
802
805
817
836
830
841
841
849
854
854
854
868
866
853
859
863
883
883
893
896
888
888
915
910
899
896
912
922
919
916
913
921
917
921
926
940
929
933
936
966
969
953
949
947
940
971
974
982
971
976
985
974
995
998
990
985
995
988
992
1006
997
994
983
986
1000
1005
991
1009
996
1019
1009
1002
1003
1009
998
1005
1000
1010
1013
1011
1009
992
985
994
1002
988
979
986
983
982
972
986
993
1008
1001
1002
1010
993
993
1012
1013
1014
1007
992
995
1016
984
989
991
982
1000
1005
998
1008
1007
982
989
997
991
1020
1030
1035
1044
1042
1054
1047
1064
1067
1079
1082
1075
1068
1086
1083
1069
1083
1098
1102
1097
1087
1082
1084
1100
1097
1109
1099
1094
1095
1089
1107
1089
1111
1104
1113
1086
1122
1125
1130
1142
1139
1137
1139
1158
1161
1159
1164
1179
1185
1190
1188
1180
1166
1180
1185
1196
1194
1198
1190
1193
1192
1168
1180
1180
1206
1210
1190
1203
1199
1205
1211
1189
1201
1196
1211
1234
1221
1221
1215
1225
1207
1205
1230
1221
1225
1229
1230
1225
1224
1224
1219
1223
1211
1225
1216
1216
1222
1212
1233
1240
1237
1230
1225
1222
1231
1234
1232
1232
1228
1222
1235
1236
1239
1242
1243
1238
1227
1233
1246
1249
1259
1252
1254
1237
1240
1260
1272
1256
1263
1273
1271
1262
1284
1271
1282
1276
1294
1281
1280
1283
1281
1268
1273
1291
1295
1292
1300
1298
1314
1303
1298
1306
1303
1304
1310
1302
1296
1301
1304
1329
1317
1315
1308
1331
1319
1326
1307
1334
1328
1303
1342
1328
1331
1314
1319
1318
1330
1340
1340
1333
1331
1335
1335
1336
1342
1349
1346
1341
1328
1351
1327
1319
1316
1321
1319
1337
1329
1328
1321
1348
1371
1361
1378
1383
1400
1444
1476
1489
1502
1505
1512
1495
1476
1472
1458
1438
1396
1375
1373
1373
1363
1352
1356
1353
1376
1386
1394
1384
1408
1372
1382
1381
1379
1385
1404
1403
1408
1403
1391
1402
1393
1391
1403
1398
1403
1397
1389
1390
1403
1417
1406
1399
1408
1430
1422
1399
1407
1419
1425
1421
1414
1403
1424
1421
1430
1426
1424
1396
1426
1428
1424
1427
1428
1429
1432
1439
1431
1429
1423
1435
1425
1428
1439
1441
1453
1446
1447
1449
1446
1444
1446
1441
1445
1438
1433
1437
1448
1451
1455
1463
1461
1464
1470
1455
1462
1465
1464
1467
1477
1467
1472
1479
1479
1468
1491
1495
1483
1473
1487
1479
1459
1495
1502
1503
1498
1496
1483
1487
1502
1494
1509
1514
1495
1496
1493
1497
1484
1477
1484
1493
1496
1496
1477
1484
1481
1492
1475
1467
1486
1495
1473
1473
1466
1468
1508
1490
1468
1490
1480
1468
1468
1473
1466
1456
1451
1459
1478
1461
1463
1455
1445
1444
1453
1452
1464
1452
1446
1455
1479
1466
1464
1466
1467
1470
1470
1481
1475
1476
1473
1487
1499
1502
1503
1500
1506
1509
1491
1494
1505
1511
1520
1524
1525
1521
1524
1538
1537
1534
1540
1534
1525
1548
1535
1537
1532
1534
1545
1536
1547
1543
1526
1526
1525
1533
1542
1542
1529
1538
1542
1537
1555
1554
1530
1523
1561
1559
1552
1538
1530
1529
1550
1547
1538
1549
1564
1540
1529
1542
1560
1553
1550
1551
1542
1543
1550
1528
1534
1538
1534
1551
1541
1525
1526
1547
1544
1538
1539
1529
1530
1550
1531
1531
1534
1544
1543
1548
1566
1537
1550
1540
1543
1535
1555
1548
1549
1535
1559
1557
1547
1563
1551
1553
1537
1540
1565
1577
1573
1566
1579
1581
1572
1582
1570
1569
1591
1586
1598
1594
1605
1599
1585
1599
1614
1604
1600
1599
1615
1605
1599
1583
1588
1612
1604
1606
1595
1605
1590
1591
1599
1600
1601
1603
1589
1591
1602
1598
1589
1587
1588
1599
1606
1593
1631
1627
1646
1655
1646
1670
1694
1723
1755
1775
1762
1778
1772
1750
1750
1738
1710
1679
1665
1661
1625
1626
1645
1643
1656
1649
1668
1659
1662
1670
1668
1676
1683
1671
1673
1652
1688
1691
1685
1685
1693
1683
1686
1697
1704
1686
1704
1700
1705
1688
1692
1692
1708
1702
1700
1711
1715
1716
1710
1698
1688
1692
1706
1701
1697
1704
1715
1725
1731
1730
1728
1726
1734
1724
1732
1736
1741
1729
1748
1744
1737
1736
1735
1730
1750
1755
1741
1737
1724
1749
1733
1744
1746
1756
1766
1763
1750
1749
1765
1780
1754
1746
1744
1762
1757
1755
1775
1774
1761
1776
1776
1782
1793
1792
1789
1786
1797
1791
1791
1786
1792
1791
1800
1808
1801
1786
1776
1605
1339
1227
1146
1109
1043
990
949
899
860
841
806
780
752
728
691
691
662
636
614
606
577
624
723
747
758
752
702
645
621
602
602
574
559
513
521
492
496
487
457
455
488
418
440
432
392
397
383
351
350
358
338
337
358
375
368
350
352
349
320
330
318
319
311
311
316
302
285
274
262
257
258
259
245
253
250
243
268
247
250
261
262
270
266
263
267
270
241
235
249
268
280
263
270
247
262
278
285
281
266
268
259
266
288
268
268
260
253
248
237
261
245
253
257
249
262
254
259
252
248
265
273
265
280
289
286
293
293
298
292
282
289
306
302
289
278
303
281
272
269
251
238
234
238
243
262
258
251
242
244
260
254
239
244
246
254
262
265
275
296
294
303
296
294
320
326
315
315
324
346
347
341
349
358
350
349
368
372
348
340
350
362
308
295
299
312
289
272
250
247
231
201
183
147
93
70
57
40
29
26
-2
-9
-25
-44
-45
-57
-60
-56
-72
-72
-80
-70
-69
-47
-44
7
31
52
61
37
35
8
-12
-12
-24
-55
-103
-127
-144
-168
-180
-175
-169
-173
-191
-180
-206
-183
-191
-201
-210
-191
-195
-206
-207
-201
-209
-218
-230
-223
-214
-218
-222
-230
-228
-230
-230
-227
-237
-245
-255
-245
-236
-240
-239
-244
-264
-265
-269
-256
-249
-257
-262
-282
-257
-261
-261
-277
-267
-272
-266
-265
-262
-285
-291
-283
-281
-283
-288
-283
-298
-294
-269
-282
-289
-278
-295
-308
-293
-290
-306
-299
-298
-301
-304
-300
-297
-288
-309
-308
-289
-289
-296
-279
-277
-299
-317
-302
-309
-297
-303
-287
-293
-284
-298
-295
-293
-295
-300
-305
-293
-278
-294
-301
-304
-298
-298
-307
-299
-314
-315
-303
-321
-314
-322
-324
-318
-309
-313
-325
-333
-325
-322
-323
-343
-347
-342
-344
-355
-346
-344
-356
-352
-343
-347
-357
-362
-366
-359
-358
-363
-358
-361
-361
-350
-349
-370
-377
-364
-372
-365
-368
-355
-364
-360
-364
-361
-368
-387
-367
-355
-371
-366
-379
-383
-374
-377
-377
-361
-365
-383
-382
-380
-378
-377
-386
-378
-401
-401
-384
-375
-380
-377
-379
-371
-368
-391
-395
-395
-386
-387
-390
-388
-378
-388
-381
-392
-388
-374
-390
-373
-378
-396
-393
-388
-384
-393
-382
-379
-387
-390
-395
-384
-388
-394
-403
-395
-387
-395
-387
-404
-392
-394
-399
-402
-407
-391
-387
-393
-398
-386
-396
-395
-398
-405
-415
-392
-391
-406
-402
-395
-393
-396
-412
-400
-385
-404
-403
-403
-410
-415
-386
-393
-395
-399
-401
-411
-409
-417
-399
-406
-393
-391
-401
-396
-396
-403
-407
-396
-401
-400
-396
-395
-395
-407
-405
-376
-400
-403
-398
-402
-393
-397
-396
-403
-412
-394
-415
-409
-424
-413
-406
-412
-414
-400
-417
-418
-417
-403
-410
-402
-400
-409
-416
-411
-420
-438
-411
-421
-442
-416
-412
-412
-412
-423
-408
-395
-383
-362
-334
-310
-267
-250
-238
-235
-270
-275
-277
-302
-315
-335
-392
-413
-420
-425
-416
-414
-425
-424
-423
-433
-417
-420
-421
-413
-416
-429
-419
-429
-422
-417
-414
-414
-427
-415
-421
-419
-428
-426
-413
-399
-414
-424
-427
-415
-411
-418
-424
-422
-420
-419
-433
-419
-408
-412
-413
-425
-418
-412
-395
-405
-416
-421
-414
-420
-416
-417
-430
-420
-398
-406
-415
-404
-407
-423
-427
-415
-413
-402
-391
-429
-412
-421
-406
-399
-430
-410
-401
-398
-400
-393
-393
-411
-400
-403
-397
-402
-411
-406
-399
-375
-391
-391
-384
-391
-386
-393
-390
-375
-394
-389
-367
-374
-377
-375
-368
-373
-383
-367
-370
-375
-378
-388
-370
-371
-370
-396
-375
-379
-375
-373
-374
-380
-378
-377
-382
-379
-383
-385
-407
-374
-373
-366
-381
-387
-399
-392
-371
-391
-394
-368
-369
-371
-366
-358
-351
-367
-361
-358
-347
-357
-345
-343
-342
-334
-330
-333
-338
-343
-338
-326
-340
-339
-333
-305
-317
-324
-307
-325
-287
-326
-314
-329
-319
-317
-312
-327
-315
-322
-315
-303
-304
-302
-283
-298
-305
-291
-289
-294
-298
-287
-259
-265
-263
-269
-267
-262
-253
-246
-248
-250
-252
-259
-252
-237
-255
-268
-273
-258
-260
-255
-253
-254
-263
-267
-277
-275
-273
-267
-255
-258
-262
-254
-256
-268
-267
-236
-238
-243
-262
-251
-235
-249
-258
-251
-272
-250
-243
-237
-247
-263
-253
-248
-276
-260
-255
-252
-250
-248
-256
-242
-247
-255
-235
-255
-250
-263
-253
-228
-238
-243
-255
-265
-246
-250
-254
-236
-233
-237
-238
-217
-216
-231
-226
-202
-201
-197
-199
-205
-189
-179
-184
-191
-183
-168
-187
-168
-157
-156
-148
-155
-139
-130
-143
-142
-131
-127
-135
-127
-117
-115
-119
-132
-128
-131
-138
-128
-125
-123
-129
-127
-127
-131
-112
-119
-121
-124
-117
-118
-86
-77
-78
-69
-82
-81
-73
-92
-67
-71
-55
-53
-42
-26
-28
-8
5
39
70
136
156
159
134
122
109
100
91
76
51
6
-12
2
-19
-37
-33
-9
-12
-31
-40
-31
-30
-15
-27
-26
-29
-24
-32
-9
-17
-6
-12
-16
1
6
21
20
-15
1
0
0
1
-4
-11
-1
-4
-3
15
25
11
14
17
4
24
-1
1
18
33
49
64
41
35
28
26
10
20
20
7
8
6
-3
6
0
1
-1
26
16
8
8
13
0
13
0
5
2
-2
10
5
0
3
8
3
8
5
26
6
1
5
11
-2
0
6
4
-1
9
8
6
11
9
7
18
13
12
8
7
18
34
31
36
33
45
20
40
55
63
59
66
76
71
62
50
39
18
23
5
12
14
-12
10
3
36
25
8
6
18
-3
7
4
4
10
17
27
24
15
34
27
2
7
12
29
24
35
37
34
21
17
43
41
18
14
19
39
49
43
38
37
33
30
31
30
21
24
28
25
37
41
71
100
115
123
116
131
147
147
142
155
164
170
172
174
181
176
190
182
194
197
184
183
183
196
212
196
190
194
196
192
205
217
207
215
223
202
202
223
249
231
236
246
243
243
238
247
271
246
247
240
231
257
252
263
265
260
279
286
283
283
284
287
279
309
309
293
282
301
297
299
303
310
307
290
321
313
302
288
279
299
298
211
193
201
210
167
177
188
164
170
165
163
174
227
245
277
292
300
304
344
344
370
362
367
402
397
389
404
432
417
432
447
442
427
443
447
450
440
440
428
400
424
426
420
420
422
431
424
417
433
441
450
430
433
433
430
415
434
434
442
429
436
441
439
442
441
455
459
468
462
476
504
514
527
557
611
651
656
676
666
652
647
628
627
610
600
555
524
495
506
504
446
422
399
423
441
391
370
408
421
448
446
442
453
461
462
452
457
469
465
466
464
468
462
478
470
481
469
479
495
496
491
480
474
480
484
488
494
486
510
511
479
465
467
477
472
475
482
472
485
475
491
480
500
486
492
492
480
486
499
498
493
495
493
498
510
480
514
502
516
509
529
539
523
515
528
521
517
526
521
533
527
507
512
523
515
519
523
519
524
518
524
512
507
520
496
508
512
517
518
514
529
522
531
533
531
539
561
548
541
556
554
548
535
544
552
545
540
521
536
563
553
526
516
533
547
535
548
547
561
562
547
565
561
556
573
561
573
578
584
577
589
592
598
607
597
595
620
621
628
636
601
621
616
627
609
609
614
621
612
602
610
611
605
608
612
607
619
619
623
639
615
615
611
626
621
631
633
615
602
618
640
634
627
634
627
636
627
622
635
641
627
648
647
627
642
640
642
660
658
659
664
676
668
675
660
658
676
678
684
689
697
688
695
694
694
709
712
728
750
778
757
767
764
764
753
751
748
761
758
772
759
754
773
767
764
784
812
805
800
780
756
789
784
769
774
779
774
769
763
793
779
771
766
776
770
751
778
778
788
791
776
752
755
775
770
775
793
797
806
790
782
772
780
759
770
774
775
773
775
779
779
782
777
762
752
761
759
747
764
767
744
759
769
771
781
767
764
786
800
798
780
771
773
747
746
743
754
758
754
786
796
786
794
821
849
887
944
1017
1018
1066
1079
1087
1064
1051
1049
1037
1008
973
942
894
793
707
668
649
688
746
802
828
864
859
862
879
899
900
875
901
905
911
913
926
928
939
922
836
846
815
824
819
806
833
816
825
817
793
793
818
784
766
779
769
759
760
770
750
770
774
771
784
772
780
777
782
778
779
744
728
754
739
733
743
771
753
755
745
726
749
736
742
757
774
768
769
781
755
770
763
757
765
676
619
653
662
671
664
651
648
640
653
643
640
649
664
669
666
648
656
665
671
666
674
685
679
685
739
741
742
710
717
701
712
702
707
710
721
697
693
699
691
694
692
685
682
691
684
678
673
688
691
685
688
669
682
691
693
678
670
651
656
685
671
622
609
680
684
674
694
697
707
717
729
719
689
669
662
664
636
633
667
691
691
683
688
692
689
703
688
719
689
686
704
697
691
684
701
697
685
685
678
688
696
671
689
689
685
688
679
670
666
663
667
656
656
652
661
647
657
675
680
673
663
667
672
668
672
662
662
675
675
680
688
684
690
694
696
702
702
704
723
731
745
724
710
716
724
738
716
681
682
690
664
652
660
676
676
661
660
641
643
633
628
637
624
599
632
676
680
666
682
666
660
682
689
679
665
669
672
685
693
694
683
692
681
682
690
691
683
672
699
701
690
701
689
694
698
704
691
685
686
694
697
688
674
676
689
692
681
672
689
658
668
684
691
691
693
661
670
676
665
662
662
645
651
659
656
661
670
670
666
708
738
751
795
838
847
860
842
833
821
798
791
753
714
685
661
661
665
649
665
666
652
655
646
661
673
670
658
664
669
669
653
656
649
665
668
673
660
673
667
658
656
647
645
652
657
655
656
668
673
689
685
673
635
640
651
661
653
653
649
645
657
661
679
681
664
664
681
662
654
666
665
650
670
668
648
660
648
680
670
680
681
681
671
667
670
679
672
667
668
672
663
658
646
649
659
670
659
660
655
650
648
654
650
650
652
652
636
642
639
640
654
649
641
641
662
637
628
635
642
651
630
624
607
631
643
635
629
627
616
620
618
622
613
610
606
595
598
597
597
595
598
582
582
573
559
574
566
566
571
557
570
570
553
562
556
562
554
536
539
533
546
535
520
515
503
507
516
471
469
471
467
472
498
477
492
482
481
473
472
466
484
482
460
465
449
441
435
443
437
437
447
448
436
446
423
410
434
417
435
427
418
413
412
400
379
382
387
387
379
383
394
384
369
395
400
421
422
390
409
414
423
391
392
408
409
386
388
381
384
379
391
390
377
381
382
380
364
387
377
385
388
371
375
375
372
378
403
409
397
403
415
427
421
426
420
444
443
452
454
448
482
473
459
451
454
474
486
481
473
480
482
472
455
448
478
455
461
454
445
460
461
467
475
471
470
460
446
465
430
413
410
391
403
395
389
387
375
385
380
374
378
366
360
363
371
356
367
362
375
382
390
396
416
459
494
517
516
498
489
463
433
427
399
338
296
297
270
274
272
291
305
290
262
262
277
277
275
269
275
268
262
257
254
274
271
262
256
260
253
258
257
256
248
247
252
254
259
257
236
237
234
234
240
218
241
248
251
240
224
234
239
256
263
243
244
248
242
247
250
230
233
234
231
220
214
229
232
238
239
239
240
253
226
233
257
260
245
255
259
255
251
258
261
272
268
265
289
287
267
259
263
284
306
312
303
318
325
349
355
353
367
367
362
373
381
366
380
399
393
405
391
381
392
395
386
395
387
373
374
387
393
398
405
408
399
415
411
440
460
468
468
433
423
428
431
430
433
438
432
430
420
429
432
437
444
432
419
416
436
440
444
439
426
429
425
432
424
431
414
423
423
443
428
439
452
455
484
491
504
521
521
509
510
527
517
522
514
520
541
508
527
521
528
517
547
543
552
563
563
561
552
552
554
564
567
557
555
569
572
567
556
564
566
554
566
557
564
574
564
570
567
566
557
556
538
546
552
543
536
531
542
527
522
531
547
519
509
526
512
511
518
525
536
522
536
521
514
524
509
503
522
516
532
518
515
523
519
527
511
520
528
561
546
553
558
556
557
555
540
576
558
562
577
559
552
550
555
545
549
528
526
519
522
540
531
522
525
526
534
556
548
547
534
512
541
547
536
515
529
549
551
540
522
535
552
566
573
599
638
675
693
719
706
713
698
701
685
649
629
578
543
532
536
539
533
551
547
528
552
565
561
553
548
553
580
566
544
551
553
563
536
546
547
544
535
563
545
542
536
537
549
560
552
559
542
536
547
543
538
534
549
548
517
507
508
545
543
533
473
466
504
486
476
497
475
455
523
560
554
565
572
588
593
600
577
593
618
600
588
579
583
601
598
595
613
580
586
592
589
569
539
546
550
538
520
515
521
511
491
483
470
463
477
485
486
483
470
452
444
433
437
439
435
422
437
419
413
412
407
422
428
405
409
395
415
400
393
373
401
379
392
370
392
388
385
387
387
364
361
366
349
357
371
390
381
379
351
361
367
356
350
344
353
369
362
349
373
373
361
333
355
341
349
344
319
332
332
339
325
326
350
341
363
369
361
363
353
353
338
333
328
348
361
339
347
349
343
335
337
288
290
285
286
276
293
283
277
254
272
269
263
270
277
252
253
267
258
239
240
256
266
244
250
245
243
249
280
257
260
269
257
246
263
277
289
272
247
256
255
244
254
257
264
264
266
260
259
269
268
255
265
256
262
252
251
247
247
254
261
252
277
287
285
290
280
290
288
291
305
291
307
290
271
292
291
262
264
274
282
278
296
289
275
234
208
171
178
187
183
164
111
143
171
149
273
381
423
460
492
501
488
525
553
550
539
560
583
584
593
583
585
572
604
614
640
623
622
626
651
668
682
690
725
773
818
838
875
857
854
849
844
833
793
740
723
727
731
729
721
707
709
729
734
733
765
755
738
751
776
776
778
785
783
851
871
865
880
872
846
868
880
804
762
765
748
733
731
722
668
699
775
757
804
836
826
840
847
846
865
873
883
886
886
886
887
926
919
909
933
920
857
905
918
926
916
901
866
876
875
869
874
823
807
711
597
543
488
415
375
340
341
347
315
267
278
252
251
225
220
230
221
224
192
182
146
132
150
149
110
77
70
67
56
56
19
-18
-23
-15
-28
-34
-52
-47
-47
-61
-93
-88
-125
-120
-121
-134
-156
-149
-164
-171
-186
-188
-210
-200
-200
-214
-216
-208
-200
-210
-224
-237
-238
-247
-257
-250
-255
-271
-274
-276
-290
-290
-293
-299
-292
-279
-288
-300
-292
-314
-308
-301
-277
-268
-257
-273
-274
-264
-262
-231
-225
-231
-241
-258
-259
-252
-213
-212
-191
-183
-170
-168
-146
-147
-148
-132
-135
-124
-119
-110
-122
-107
-102
-80
-81
-106
-95
-105
-80
-159
-211
-192
-161
-167
-178
-177
-175
-167
-171
-157
-148
-158
-129
-130
-134
-140
-135
-143
-149
-151
-126
-122
-122
-146
-146
-146
-130
-125
-134
-154
-189
-186
-186
-160
-165
-154
-145
-105
-94
-78
-81
-52
-45
-48
-17
7
6
10
0
20
29
17
4
19
38
28
28
39
35
36
30
28
50
68
60
56
75
67
59
57
80
56
33
47
66
55
41
27
15
22
20
23
27
28
34
35
35
21
26
47
74
84
119
152
188
182
158
147
149
149
132
97
47
17
-19
-14
-27
-34
-32
-11
-63
-48
-11
-55
-47
-54
-49
-59
-57
-62
-74
-71
-51
-33
-20
-41
-39
-3
6
10
36
23
29
29
32
55
77
102
142
168
176
168
179
164
177
174
177
178
188
181
193
195
179
177
173
195
200
192
217
224
229
230
241
253
263
265
289
330
321
332
340
346
355
368
369
379
391
392
409
401
398
419
429
418
433
430
447
442
437
432
438
462
451
444
448
455
467
484
496
471
476
486
501
511
508
502
498
493
494
506
521
521
543
529
523
538
522
555
567
557
542
560
554
570
594
589
592
581
586
588
602
593
600
603
596
578
597
600
618
590
594
600
602
627
634
627
637
636
613
633
604
605
619
609
616
622
636
622
619
624
653
634
621
650
653
631
639
629
630
622
619
605
610
618
634
610
611
604
584
526
479
453
454
443
413
432
418
416
396
417
391
382
387
374
371
360
348
350
343
347
342
307
316
327
329
303
304
275
309
286
267
257
256
255
285
264
253
284
289
262
267
280
299
273
273
241
263
275
257
243
265
271
266
290
321
340
304
309
329
293
285
270
253
267
259
261
278
307
327
309
293
315
294
262
256
269
283
291
283
266
254
237
240
254
211
190
140
109
89
96
94
110
81
154
190
225
293
332
377
446
475
496
503
479
478
444
390
370
355
301
303
289
306
308
303
308
320
344
339
347
391
405
381
376
362
323
312
336
382
414
420
416
415
398
363
408
420
421
429
451
442
420
417
410
415
449
464
484
474
471
471
479
445
433
413
414
377
344
325
309
288
291
313
323
290
264
274
273
255
247
218
223
227
220
234
222
225
210
211
211
200
205
211
224
200
205
201
206
167
143
138
149
156
160
156
160
176
187
181
171
186
209
189
189
183
183
177
185
173
174
166
183
192
195
177
193
191
191
202
184
193
176
218
231
223
202
182
175
172
160
183
151
136
148
138
145
141
132
150
153
137
131
126
129
138
136
133
128
127
126
140
131
137
141
143
159
181
177
127
109
116
120
96
55
81
113
118
133
139
156
206
243
243
252
185
161
161
176
197
219
204
216
226
242
208
207
206
223
247
215
247
293
327
343
343
342
353
355
363
366
369
374
395
397
415
412
409
415
433
427
403
406
405
416
444
434
442
445
455
468
464
469
461
442
454
435
494
528
559
567
584
609
614
624
629
624
618
616
623
606
627
637
654
645
634
632
649
