-25
-32
-23
-19
-33
-25
-25
-33
-22
-22
-22
-28
-22
-30
-27
-27
-27
-27
-29
-38
-35
-26
-23
-35
-26
-28
-24
-28
-32
-17
-18
-27
-31
-19
-9
-14
-26
-12
-9
-16
-22
-31
-36
-42
-31
-28
-44
-51
-48
-40
-56
-47
-50
-54
-60
-37
-22
-18
-39
-43
-34
-35
-43
-56
-54
-47
-28
-33
-38
-36
-53
-52
-35
-53
-52
-43
-33
-40
-41
-38
-47
-54
-61
-47
-31
-45
-35
-25
-33
-3
-16
4
12
37
45
53
66
85
103
109
104
90
38
-78
-165
-221
-253
-245
-248
-252
-244
-234
-230
-226
-227
-202
-177
-156
-148
-149
-138
-108
-90
-85
-80
-65
-66
-52
-49
-32
-23
-23
-30
-21
-9
-22
-31
-29
-16
-7
-6
-22
-10
-26
-21
-18
-11
-6
-16
-11
-16
-10
3
-3
-9
2
-9
3
-13
-2
-1
-9
-14
-12
6
6
10
19
19
14
14
16
19
26
15
16
37
28
35
46
37
32
42
43
41
53
59
61
75
67
70
78
69
70
77
77
77
88
75
89
94
82
78
77
86
64
66
60
57
49
47
59
44
46
33
18
19
22
11
9
2
9
10
-1
-7
-5
-10
-19
-11
-20
-18
-23
-30
-15
-26
-14
-10
-26
-24
-19
-25
-22
-27
-19
-23
-24
-34
-26
-10
-25
-15
-7
-14
-38
-38
-18
-34
-34
-4
-30
-42
-34
-51
-47
-33
-26
-15
-20
-6
-27
-43
-23
-17
-18
-22
-21
-21
-23
-25
-26
-26
-27
-26
-10
-20
-21
-16
-8
-3
-22
-21
-22
-23
-29
-8
-8
-11
-22
-11
-6
-23
-8
-9
-10
-1
-17
-14
-1
-4
-14
-20
-23
-8
1
-12
-11
2
-7
-2
1
-1
2
-5
-3
8
-2
-6
-15
-14
7
7
3
4
3
-15
-14
-11
-2
-3
-15
-12
4
-10
-19
-16
-12
-14
-17
-20
-22
-18
-26
-14
-18
-23
-14
-14
-4
-9
-22
-7
-19
-15
-20
-17
-17
-29
-12
-1
-1
2
-19
-27
-25
-24
-1
-9
-8
-8
-16
-9
-18
-13
-21
7
23
24
55
78
99
118
106
117
130
137
136
107
15
-86
-168
-197
-213
-212
-232
-233
-216
-208
-187
-181
-159
-142
-129
-127
-124
-90
-63
-67
-61
-41
-28
-33
-25
-18
-8
-5
-9
-10
-11
-9
-5
20
5
13
11
3
9
6
11
9
9
15
11
29
15
4
8
11
14
22
11
11
13
21
24
21
34
36
23
26
34
39
35
34
42
43
32
33
34
24
39
37
47
62
60
69
86
97
83
63
68
71
81
86
86
75
79
95
98
92
98
93
104
109
114
109
103
111
113
104
90
94
80
84
94
79
69
62
61
57
58
62
52
47
31
29
21
12
29
32
20
19
18
1
2
16
9
-3
1
2
15
-6
-10
-9
-14
-6
-16
-17
-24
-10
5
-6
6
17
0
3
7
15
-14
-19
-10
-5
-15
-8
-15
-3
6
-3
-4
-10
-6
-23
-2
-6
8
4
3
-1
5
-2
-12
-11
6
11
6
15
7
-9
-6
5
-8
-1
10
5
-1
1
-2
10
11
5
4
1
3
-6
-4
0
10
3
1
13
13
19
18
18
16
5
20
0
25
23
12
-2
-2
0
11
6
13
15
11
8
12
26
28
28
18
34
19
16
10
14
27
20
21
10
7
10
21
14
5
4
18
4
-4
5
-2
7
-16
-5
12
5
-3
-4
0
5
7
14
15
17
12
0
1
13
-12
4
17
3
6
1
23
-2
4
1
6
16
16
32
31
34
13
-23
-5
18
11
-2
1
44
58
68
82
103
120
119
144
161
152
159
152
76
-9
-106
-164
-191
-211
-208
-214
-224
-205
-218
-191
-152
-141
-133
-118
-107
-100
-98
-84
-40
-20
-39
-33
-56
-23
-16
-3
10
14
16
28
20
23
46
37
17
30
35
27
26
22
34
30
12
24
31
23
22
18
27
37
42
45
66
42
39
46
65
57
60
45
61
49
49
40
64
70
62
57
72
71
73
83
94
88
70
94
91
76
103
93
102
100
102
97
93
113
117
112
126
131
145
123
132
134
142
136
133
136
131
144
113
111
103
123
120
111
97
96
92
74
74
74
66
63
52
72
57
37
28
40
48
63
53
23
43
17
2
6
31
7
-2
3
11
8
11
20
29
34
26
14
17
5
14
23
18
10
30
-2
0
-10
-6
16
-1
-2
0
1
13
21
9
7
0
-3
7
15
8
39
3
-9
15
5
21
34
23
9
6
13
3
14
9
23
12
13
26
13
7
-4
10
27
9
25
16
44
39
4
23
10
4
1
8
22
40
36
27
28
26
23
29
8
16
38
25
32
23
33
19
28
23
36
46
36
42
39
24
23
36
51
49
41
30
28
29
18
41
51
52
36
40
33
36
12
29
25
16
21
33
33
36
29
19
15
44
16
10
18
42
18
36
40
32
35
24
15
24
12
36
35
38
41
30
4
39
42
27
25
29
33
21
33
26
31
38
29
54
48
64
53
82
72
70
105
115
142
170
151
181
164
159
95
-18
-120
-135
-129
-155
-162
-165
-164
-169
-164
-123
-102
-104
-115
-84
-65
-75
-58
-34
-14
1
9
20
37
19
28
45
32
41
50
40
51
75
67
59
46
58
68
74
65
54
55
86
74
67
59
64
69
72
62
87
62
56
95
98
87
96
80
78
70
72
80
87
81
83
84
112
123
117
107
97
94
116
112
113
101
104
114
123
129
118
129
130
155
149
148
127
160
182
183
140
159
150
153
165
180
173
160
170
175
183
164
146
166
162
162
140
156
120
114
136
126
105
102
114
130
119
111
93
105
109
100
93
71
66
74
82
82
68
81
76
74
71
73
54
51
70
70
71
52
93
79
74
75
70
78
93
79
53
72
75
77
76
84
77
63
66
64
84
78
62
74
78
60
69
71
83
77
79
73
75
76
77
76
78
73
61
82
75
90
79
89
83
75
73
70
87
95
101
66
51
93
83
71
85
110
94
84
82
81
86
100
100
94
75
87
77
92
84
86
80
79
92
89
93
94
78
100
76
69
94
108
106
110
97
99
107
110
97
92
101
96
86
87
86
97
100
69
84
67
77
62
84
106
75
83
93
96
86
68
78
60
98
100
100
98
94
89
86
85
94
107
101
78
56
72
80
76
98
79
99
83
82
97
100
104
122
115
101
88
87
104
127
132
137
187
209
185
211
218
211
223
208
165
85
-31
-62
-83
-85
-94
-105
-82
-95
-93
-61
-65
-46
-18
-30
-17
-23
12
26
33
61
67
85
100
80
94
96
95
123
92
104
81
88
108
97
83
93
111
130
130
119
96
116
99
109
116
116
95
106
100
116
121
116
116
117
148
121
119
118
132
109
133
137
124
120
127
138
144
145
135
112
121
143
145
148
140
139
161
169
165
176
182
169
185
179
166
175
183
163
176
187
196
181
192
218
198
210
200
177
193
197
178
185
185
172
164
187
179
149
165
171
159
137
120
141
144
140
135
112
128
133
121
142
120
106
117
116
109
106
87
102
104
97
103
108
80
96
110
107
103
100
95
74
96
110
142
109
89
93
105
111
108
119
115
99
104
109
107
103
115
97
134
119
96
89
99
103
107
123
118
105
104
123
106
107
120
117
128
143
116
106
114
125
120
115
130
124
149
121
113
121
112
138
116
108
116
124
130
149
138
99
105
142
154
137
132
125
165
170
131
140
149
141
147
136
122
132
140
139
168
147
144
143
119
137
129
87
143
147
141
154
136
126
125
124
133
121
115
117
125
120
122
142
138
122
120
125
132
145
130
134
131
129
125
146
138
134
143
117
115
142
119
113
108
116
111
127
118
117
118
122
127
118
135
134
123
123
134
141
149
144
168
150
185
186
224
240
261
269
244
248
240
209
148
80
-16
-51
-60
-54
-77
-47
-69
-60
-31
-17
-6
10
23
40
21
59
76
70
96
82
90
108
118
127
127
114
144
145
156
149
150
152
148
140
147
159
159
152
132
150
153
149
151
168
160
149
152
152
133
151
170
154
174
142
163
187
162
155
162
155
180
184
160
168
175
170
182
182
175
184
189
191
190
223
203
199
201
198
203
229
228
206
213
234
218
236
220
213
228
230
230
225
244
260
249
229
256
259
237
236
241
241
227
226
233
222
211
201
206
198
207
206
192
183
179
158
141
143
163
167
145
148
154
137
152
150
145
138
152
161
155
137
145
150
140
140
166
145
125
149
140
143
149
145
134
155
150
152
153
140
147
154
138
140
135
146
147
126
139
151
150
132
131
129
142
136
158
134
131
142
162
157
168
172
150
165
158
145
157
165
164
162
145
149
151
138
157
137
155
153
143
158
159
172
165
156
137
137
141
161
169
173
171
174
178
159
172
168
151
160
162
168
172
166
160
172
164
155
175
158
190
180
168
161
171
176
180
195
175
177
172
155
161
169
164
166
158
167
160
144
149
175
162
170
157
143
144
143
153
148
149
175
127
144
149
156
161
149
143
144
157
138
143
173
150
139
136
129
145
146
141
143
152
152
157
139
133
143
135
143
153
146
157
174
187
186
216
215
258
265
272
297
302
296
297
261
176
82
2
-18
-25
-31
-38
-35
-28
-24
-12
-6
10
34
48
65
77
83
100
115
124
120
126
148
156
171
183
183
185
195
199
198
196
193
194
191
187
178
187
188
190
190
191
196
195
201
181
179
177
181
177
182
175
173
174
178
174
171
172
168
167
164
157
159
193
180
179
178
178
171
169
178
182
172
169
173
161
170
181
176
173
171
178
179
174
182
182
179
181
186
190
184
181
182
184
185
181
179
188
188
177
171
169
167
167
161
153
148
138
139
123
130
119
123
125
112
99
95
89
87
80
81
76
77
81
84
66
57
51
55
57
56
65
70
70
71
62
52
59
62
52
51
52
50
51
51
52
52
50
49
47
48
47
48
49
48
47
47
47
46
46
48
49
50
51
50
54
55
55
49
52
54
53
47
49
51
55
61
53
48
59
53
61
56
60
60
62
65
64
64
69
71
69
69
68
77
78
71
66
68
72
74
72
76
74
80
79
76
80
76
78
76
79
84
83
82
85
79
76
73
76
91
83
77
83
84
92
88
89
88
99
106
116
93
94
90
90
88
86
87
92
96
83
86
87
84
83
78
78
75
74
67
76
67
74
71
71
71
74
78
78
82
89
84
95
77
69
87
76
56
55
70
73
73
74
66
70
68
71
71
69
70
67
68
69
67
75
62
79
78
77
84
94
103
110
123
159
203
200
210
232
238
234
216
150
63
-43
-98
-126
-122
-123
-131
-132
-125
-114
-109
-98
-80
-60
-46
-41
-31
-20
13
19
29
44
39
39
67
89
82
80
91
88
85
105
94
88
85
83
87
90
89
90
95
89
95
108
101
89
81
86
90
92
92
85
63
80
94
93
93
106
109
116
115
114
111
102
110
109
103
103
101
111
117
129
127
129
135
128
136
137
137
141
137
135
146
149
148
146
151
157
164
167
183
183
179
182
177
179
169
165
161
157
157
154
151
147
154
156
144
140
140
141
130
128
117
106
101
97
111
110
77
74
76
69
64
55
60
63
62
59
52
56
56
56
64
59
58
53
55
59
53
56
64
60
56
61
59
55
51
52
59
52
52
59
46
45
52
56
53
56
50
58
53
46
44
50
40
39
39
49
54
49
47
53
49
55
53
57
50
55
60
65
47
42
48
54
52
51
48
55
53
53
53
52
44
56
57
62
60
49
51
49
48
42
52
50
52
52
43
50
50
56
67
72
90
82
62
57
56
62
61
60
65
65
58
50
54
68
55
68
62
62
60
58
60
72
84
72
70
71
67
62
60
66
58
51
66
68
67
63
56
55
58
53
49
51
48
41
52
60
55
56
63
48
40
38
54
53
50
42
44
54
55
41
44
35
56
45
52
48
54
43
41
61
50
39
51
54
65
55
56
59
74
49
48
58
64
66
74
71
98
105
131
144
159
183
183
194
204
200
135
24
-76
-119
-154
-167
-179
-163
-163
-168
-168
-155
-150
-125
-108
-97
-74
-66
-56
-36
-11
-2
20
28
16
29
43
42
49
44
51
59
65
71
62
66
70
69
67
70
61
76
64
78
78
83
90
72
71
86
78
74
84
91
82
79
83
91
88
92
92
94
100
97
87
88
116
111
99
103
105
100
106
97
102
110
117
112
111
122
132
133
140
140
149
164
157
148
158
162
154
175
168
164
168
164
170
171
165
172
168
166
162
171
170
155
156
151
151
145
136
123
113
105
109
101
102
94
96
92
83
74
74
69
74
64
59
72
58
49
57
52
56
52
54
49
41
41
36
48
39
49
44
44
54
39
44
52
45
50
48
42
35
28
40
50
51
58
46
41
31
51
48
41
44
56
53
47
42
40
34
37
36
30
34
42
46
43
51
57
47
54
56
45
33
29
45
53
45
40
39
42
46
53
46
39
52
52
51
46
49
42
49
52
51
47
73
61
62
42
41
49
56
47
49
49
61
63
62
63
58
69
71
68
72
75
60
67
62
57
57
61
50
61
56
69
74
64
72
75
72
75
66
56
67
64
54
51
51
55
59
50
53
51
42
46
49
50
44
46
50
48
52
56
45
46
44
42
45
44
47
49
44
48
43
36
37
47
45
47
48
55
52
49
49
49
45
42
55
59
49
50
61
72
81
74
89
108
132
159
179
190
218
201
196
197
158
75
-41
-129
-149
-172
-180
-185
-183
-173
-174
-162
-143
-127
-96
-77
-65
-56
-41
3
8
8
10
19
26
37
39
51
67
51
54
66
57
68
75
63
66
63
70
70
73
73
72
73
68
67
68
75
79
81
79
75
82
78
85
88
93
92
95
94
97
101
84
94
94
90
109
115
110
103
107
106
120
116
119
116
127
139
140
125
143
139
140
146
138
149
153
146
157
164
159
162
158
159
162
165
185
178
174
165
164
166
163
152
159
156
160
149
138
148
142
139
134
126
113
112
113
104
97
101
92
83
73
71
67
67
73
60
48
52
62
58
52
58
60
50
50
40
58
49
35
43
39
37
52
38
37
49
53
37
36
48
44
48
47
49
43
52
49
47
48
53
43
39
32
41
44
38
42
46
42
46
43
39
54
53
54
44
34
55
41
39
39
44
43
51
49
43
37
44
42
42
42
47
44
43
46
50
49
51
56
51
41
44
55
61
52
50
43
55
63
46
48
46
52
47
51
61
56
58
54
61
61
55
52
55
41
41
62
72
60
65
72
73
65
65
64
57
62
62
49
43
47
38
43
49
45
41
44
50
51
48
47
46
31
39
32
37
43
43
38
38
49
50
28
46
43
43
48
42
36
43
37
33
28
37
30
36
41
36
38
40
40
55
50
44
50
62
67
79
100
111
135
156
169
193
192
198
206
184
106
7
-103
-139
-162
-183
-181
-173
-183
-171
-159
-146
-136
-119
-108
-80
-79
-57
-31
-19
-2
5
14
43
27
18
35
37
46
49
50
47
60
56
58
60
60
67
61
61
63
70
67
62
56
65
68
69
72
67
71
80
81
62
68
64
68
68
80
74
79
83
84
92
94
86
84
89
90
95
103
100
95
93
111
114
107
113
123
118
123
123
132
144
134
131
146
154
141
142
146
144
154
151
153
149
163
163
163
161
159
158
170
150
142
150
143
137
135
138
130
120
113
109
110
99
84
86
83
78
57
73
61
63
69
63
56
62
52
47
42
43
42
37
35
30
53
57
51
50
48
50
45
48
51
48
45
50
51
39
34
31
36
35
39
38
38
37
41
32
48
41
39
40
43
36
25
29
34
28
30
33
36
40
39
35
34
41
47
39
43
55
50
35
42
47
41
35
33
46
50
45
57
47
41
40
47
46
55
51
54
53
48
38
39
37
51
53
46
50
57
50
46
43
45
45
51
54
59
56
41
49
52
57
49
52
54
54
47
55
62
52
61
56
53
39
44
40
30
40
35
40
32
34
43
36
41
42
38
41
34
35
28
33
49
45
47
56
49
36
37
37
36
24
32
30
22
26
28
24
21
31
36
27
36
40
35
44
34
32
48
48
51
61
66
74
72
100
114
140
152
164
180
180
170
166
107
8
-93
-146
-179
-188
-194
-187
-185
-183
-164
-147
-152
-137
-122
-109
-87
-82
-69
-45
-20
-14
-14
-3
9
4
9
36
43
43
45
51
52
45
47
49
53
57
62
54
53
58
54
52
59
65
64
61
63
64
61
62
63
66
58
63
61
56
66
68
72
75
79
74
82
74
66
71
67
86
88
83
84
87
96
99
101
95
100
113
117
112
118
129
136
135
132
136
137
149
151
145
142
146
146
150
158
160
152
148
151
148
148
149
143
136
135
133
127
115
109
106
110
102
93
82
83
79
77
68
77
66
70
75
61
39
47
44
43
42
45
50
41
33
26
34
32
43
40
42
37
39
32
20
14
20
38
30
38
40
35
38
43
34
36
39
26
29
31
26
32
31
35
33
25
30
30
33
31
38
42
24
27
38
24
18
49
29
26
31
34
39
44
38
31
34
38
43
33
36
22
23
29
37
42
31
31
39
43
47
53
41
37
46
41
37
46
48
47
51
35
33
46
34
45
51
53
53
36
47
52
47
44
40
49
44
44
52
44
46
38
35
51
50
44
44
48
50
38
34
31
35
38
42
37
33
45
38
38
24
25
32
30
29
35
34
19
25
31
30
16
36
39
34
15
12
22
25
28
44
35
31
30
30
44
36
32
28
28
25
40
43
48
69
79
82
116
142
155
167
185
186
189
178
135
38
-52
-113
-150
-184
-184
-184
-178
-177
-180
-164
-151
-138
-121
-96
-89
-77
-68
-42
-24
-10
-5
2
17
26
37
35
53
40
38
36
39
34
40
40
46
46
51
52
56
52
50
59
61
64
62
52
53
57
48
54
58
44
54
53
60
59
63
68
67
66
69
77
78
77
68
80
86
74
76
79
85
80
81
93
102
103
95
97
105
99
91
109
125
127
132
115
124
137
145
142
138
139
143
142
146
161
159
141
128
135
136
133
129
127
129
122
129
122
119
112
106
102
97
90
86
104
88
75
52
43
51
53
43
43
46
48
41
40
46
54
46
38
37
32
26
40
40
42
33
28
21
31
26
33
33
37
36
34
34
38
30
29
21
47
28
33
17
26
14
10
21
27
40
34
34
43
39
39
34
22
23
34
34
37
41
32
30
24
20
21
27
36
35
29
21
35
54
40
37
36
40
33
40
33
39
32
32
36
39
35
42
38
37
44
35
28
39
48
46
40
46
43
41
40
52
50
48
53
49
54
54
52
52
46
54
54
40
38
35
48
51
53
47
31
41
40
27
31
22
20
35
22
18
19
25
35
38
31
29
31
34
32
32
32
33
31
29
27
26
30
26
31
21
36
37
31
29
31
38
16
15
15
28
30
25
31
30
33
37
41
53
51
66
85
92
116
149
151
168
182
188
199
176
101
2
-111
-156
-182
-178
-175
-175
-192
-192
-180
-164
-153
-134
-110
-100
-96
-75
-59
-36
-24
-11
3
-5
7
10
42
35
34
43
49
48
46
44
43
47
50
54
48
53
54
44
42
44
46
55
52
55
62
50
53
61
64
60
60
66
68
62
62
58
60
70
65
55
64
72
72
75
76
80
85
77
80
89
91
92
104
112
96
98
113
107
107
124
119
123
129
138
130
129
142
144
149
150
157
152
145
144
145
142
136
135
133
134
133
129
123
117
114
111
121
106
102
98
96
87
77
81
85
70
68
54
60
49
38
47
35
45
49
54
45
41
35
28
26
34
39
37
25
22
33
28
21
18
30
31
41
38
40
33
28
28
20
15
26
28
30
29
40
43
36
27
20
28
20
13
28
25
22
27
29
26
22
29
33
35
32
31
28
32
22
30
42
27
30
36
29
20
30
31
35
32
33
41
42
32
40
42
29
39
30
37
39
35
35
43
35
36
51
52
39
36
39
25
27
36
34
36
45
47
46
43
29
40
54
52
46
50
47
43
48
41
48
41
45
40
43
31
37
40
33
28
28
28
31
37
38
31
26
22
32
29
33
33
24
26
27
20
24
27
21
22
20
29
17
6
3
24
31
35
30
16
21
26
21
24
28
35
29
30
28
27
30
37
36
53
58
83
103
119
144
150
161
167
171
179
173
117
25
-95
-154
-181
-195
-198
-193
-197
-187
-178
-170
-149
-143
-106
-92
-104
-83
-65
-41
-30
-16
-6
1
9
9
33
47
41
35
22
33
33
27
38
45
40
44
43
50
48
43
42
46
55
45
48
51
44
41
49
67
59
56
53
62
65
62
71
65
52
54
62
74
59
54
64
82
73
75
80
88
82
82
74
90
94
97
99
115
106
98
103
123
124
116
120
123
121
133
149
142
148
136
138
136
138
145
141
139
137
141
138
140
141
133
124
121
116
110
104
99
100
102
98
81
80
72
62
65
68
62
55
48
47
42
38
42
40
45
43
29
39
39
19
36
36
40
28
27
29
20
26
23
20
20
22
34
26
28
17
16
29
38
26
19
19
14
20
13
17
15
19
16
35
30
31
31
31
32
25
20
21
22
35
30
32
31
34
31
30
30
24
22
21
19
19
17
18
31
31
35
27
32
33
31
30
31
33
35
35
33
36
38
37
25
24
20
24
25
36
46
49
46
37
35
30
34
33
38
38
44
41
48
33
33
47
43
42
37
37
32
43
50
44
33
35
35
38
24
20
31
28
35
22
25
22
27
21
32
28
18
20
26
48
39
27
26
15
17
19
14
18
19
27
27
25
21
13
20
27
18
16
30
28
25
24
23
26
28
17
13
16
19
21
27
45
68
71
87
91
109
132
131
151
170
164
177
176
118
9
-100
-146
-186
-194
-196
-204
-211
-208
-190
-184
-173
-163
-135
-115
-100
-87
-78
-53
-34
-25
0
3
-8
17
26
18
22
35
32
42
32
35
30
31
36
42
42
44
45
42
39
37
60
48
43
51
46
43
45
48
50
50
54
51
62
60
59
54
51
61
57
62
64
78
70
76
80
83
84
76
79
76
78
92
97
85
94
106
117
112
102
103
110
126
125
122
128
133
133
141
139
138
152
143
142
146
133
138
137
140
139
130
128
127
134
129
123
116
123
107
107
116
95
84
78
75
72
62
56
49
59
48
37
55
60
35
51
51
34
32
31
23
31
32
42
25
19
24
24
31
33
37
39
37
31
24
22
14
13
12
22
34
25
28
33
25
22
20
22
21
20
24
19
27
22
22
24
28
18
24
35
41
31
26
36
36
30
30
17
18
28
26
25
24
26
29
26
31
36
32
32
19
23
41
36
41
35
34
33
41
33
33
35
25
38
22
29
39
46
44
25
23
37
36
33
35
43
34
37
36
38
44
40
40
45
48
38
34
44
34
32
41
38
39
37
32
24
20
29
16
14
13
26
25
10
15
23
28
26
29
29
18
26
33
19
21
32
19
13
11
22
25
26
14
19
23
22
25
20
16
19
23
15
27
33
39
12
10
14
18
28
34
35
42
62
82
111
123
151
147
158
166
168
158
122
26
-78
-137
-174
-189
-201
-206
-207
-188
-178
-181
-177
-155
-136
-121
-101
-94
-83
-62
-40
-31
-12
-7
-1
10
16
20
29
40
27
19
28
39
33
38
18
28
40
36
47
46
48
31
40
51
48
53
52
37
48
46
51
52
49
50
44
43
50
55
54
60
63
67
62
69
69
67
70
74
85
70
66
70
75
78
81
84
90
94
94
104
105
100
109
115
127
128
120
127
131
135
129
125
133
137
135
132
135
133
133
138
136
130
131
132
124
112
111
124
103
82
95
88
70
62
65
70
63
61
54
63
59
53
49
47
39
39
39
32
32
34
26
25
18
23
38
34
40
26
17
10
15
14
10
12
21
23
20
25
22
24
12
15
21
24
24
15
21
19
20
16
19
17
15
16
22
21
33
35
27
15
28
33
12
22
15
23
19
21
18
17
15
14
10
23
28
32
33
33
31
30
28
28
19
18
27
27
32
38
38
43
35
34
27
28
26
35
37
27
25
25
26
18
32
40
46
53
42
33
37
43
29
37
33
29
35
27
44
47
48
39
29
33
35
34
33
24
30
31
29
26
20
27
21
24
28
17
12
17
33
22
24
33
25
24
26
21
15
19
24
35
26
24
15
16
24
7
18
28
19
20
21
22
15
18
19
19
20
24
21
24
31
33
32
39
48
52
68
93
113
135
156
160
176
176
182
141
65
-34
-126
-167
-184
-180
-198
-193
-190
-179
-167
-155
-143
-134
-106
-96
-83
-65
-52
-29
-16
-26
-19
8
14
18
25
27
30
37
45
35
32
33
33
39
34
37
42
44
44
44
48
43
40
42
48
44
51
50
55
62
51
38
49
52
52
49
45
53
52
54
43
36
65
81
70
70
87
70
86
84
80
77
81
84
85
87
97
102
94
90
103
103
119
121
122
130
133
130
129
127
130
137
130
134
132
125
120
124
119
127
130
132
149
144
126
111
115
103
93
97
91
94
87
73
76
72
59
61
55
49
57
62
46
40
37
33
44
33
24
21
26
23
21
20
22
16
32
30
30
35
21
14
14
18
18
23
16
26
27
22
23
29
19
34
20
21
29
23
17
21
10
11
19
19
16
12
9
18
25
28
33
30
19
23
22
19
22
12
11
8
18
25
26
27
38
32
32
36
27
23
26
25
20
11
19
24
19
17
25
29
26
41
33
36
28
40
47
33
27
32
29
20
27
22
27
31
28
35
37
39
38
28
25
23
33
33
25
27
29
38
43
35
42
32
30
28
23
17
22
21
21
19
14
8
9
16
5
14
18
26
17
11
22
22
14
14
10
10
14
12
5
10
5
1
9
15
9
11
9
18
20
22
17
7
4
8
18
22
14
7
10
16
23
20
27
40
61
84
106
127
151
157
176
159
165
160
124
38
-66
-149
-178
-186
-197
-195
-195
-190
-185
-185
-156
-149
-126
-112
-101
-87
-71
-40
-18
-10
-8
1
6
11
30
38
37
36
35
36
32
28
27
35
38
51
49
46
46
47
46
43
42
47
45
48
52
49
53
56
52
55
51
52
55
65
67
60
68
78
82
72
64
59
66
63
55
66
66
71
83
90
91
93
90
94
92
109
107
105
112
116
119
114
115
127
128
131
136
140
135
141
130
130
152
145
149
150
138
139
144
142
136
124
123
119
120
112
108
102
97
98
81
79
87
77
76
61
47
43
57
44
45
41
42
35
38
36
33
23
28
13
21
18
26
25
26
36
32
28
31
22
14
18
30
22
11
14
20
20
21
23
21
16
17
16
11
11
15
17
15
7
15
23
20
16
17
23
20
31
25
16
18
27
28
19
26
14
16
19
22
24
23
21
27
25
34
22
19
26
29
35
21
16
21
23
11
19
22
23
21
33
24
25
30
30
31
31
33
25
26
21
25
42
38
38
34
41
52
37
31
31
28
24
19
34
34
44
41
42
42
47
55
51
43
41
47
41
40
39
32
35
36
19
20
20
29
23
26
28
21
38
34
27
24
31
29
24
22
16
21
21
24
22
16
28
28
35
38
25
24
20
17
16
19
27
25
22
16
14
14
19
22
21
22
14
28
47
41
49
47
48
49
65
89
109
131
143
157
168
168
191
169
121
10
-108
-166
-191
-201
-209
-199
-192
-191
-188
-169
-156
-140
-127
-110
-89
-84
-76
-48
-21
-23
-13
0
14
12
22
31
36
35
33
32
37
33
40
46
35
39
38
35
43
44
48
57
51
51
55
55
47
47
53
48
56
57
67
67
58
65
71
65
72
57
52
60
59
55
67
66
72
79
75
75
86
92
87
85
94
94
108
104
98
112
109
105
110
120
114
128
137
130
135
139
148
152
148
139
127
137
134
122
140
140
143
144
133
137
129
126
114
112
107
103
95
98
86
84
79
69
70
68
59
62
60
43
45
53
42
37
33
35
33
38
36
29
29
31
31
30
33
33
28
26
37
28
32
32
10
19
24
24
15
28
31
27
34
35
31
24
18
22
39
24
18
22
22
35
31
29
27
17
29
33
29
26
27
23
25
24
23
31
30
30
23
21
26
30
28
35
48
39
27
28
36
28
26
29
40
31
24
30
37
36
27
23
29
31
29
28
30
32
37
32
36
38
43
41
41
37
32
32
34
28
27
41
43
33
42
44
56
38
36
46
37
44
46
42
45
35
39
46
38
35
31
34
38
34
44
43
34
26
22
32
27
21
26
28
18
25
30
25
25
25
21
37
41
40
34
31
41
32
26
24
24
36
24
21
14
20
20
18
22
24
14
36
35
36
18
24
24
35
33
30
37
46
49
58
76
90
102
128
149
160
164
169
176
161
114
30
-62
-138
-152
-169
-174
-182
-188
-184
-174
-164
-154
-135
-114
-100
-104
-74
-41
-32
-17
-10
-6
8
21
28
28
25
28
29
31
38
47
46
42
44
46
46
48
52
49
40
43
48
52
48
48
40
44
48
50
54
47
51
57
62
58
54
59
60
64
69
66
65
60
67
59
61
60
78
80
73
77
79
80
83
87
80
90
97
99
99
105
99
114
119
125
124
118
123
117
124
136
127
132
137
127
123
119
126
134
140
141
139
127
131
132
121
114
106
99
102
95
89
71
72
81
69
69
71
53
42
46
38
36
39
31
33
35
40
40
42
37
38
36
51
36
27
25
30
30
32
28
33
32
22
30
25
19
17
26
31
28
22
29
20
25
36
24
14
18
15
12
25
29
22
22
17
29
29
23
28
28
30
32
30
29
21
27
31
32
22
17
28
29
31
29
31
31
40
27
22
32
33
25
32
28
37
32
23
18
27
20
26
30
23
33
35
27
30
39
31
30
31
34
41
29
27
32
35
31
32
38
43
40
36
37
42
30
36
31
34
36
44
44
42
35
55
50
44
39
51
45
47
47
49
39
27
27
34
27
36
35
43
30
26
26
33
28
29
23
20
29
34
26
28
21
20
32
30
29
24
32
31
26
30
19
13
38
30
34
29
21
24
20
17
23
19
19
24
25
27
18
19
24
27
26
31
39
46
62
70
91
106
126
145
153
170
167
175
159
120
28
-79
-141
-170
-180
-193
-191
-191
-194
-168
-158
-156
-134
-117
-99
-87
-60
-53
-44
-29
-19
-8
7
11
10
23
33
36
37
51
46
34
32
34
31
28
39
49
47
45
50
36
39
46
40
44
52
51
49
67
66
48
57
52
56
56
62
57
52
56
63
63
60
57
67
78
75
79
80
86
69
85
84
81
91
87
93
96
97
102
107
103
110
116
107
116
103
118
125
132
137
139
138
132
141
134
146
152
132
139
136
139
131
130
133
124
115
117
120
116
116
95
95
93
80
77
64
64
62
65
61
57
66
48
41
32
39
39
40
39
39
36
23
31
43
46
36
27
24
29
25
20
29
33
25
22
22
13
16
21
29
26
20
24
21
35
44
38
31
31
32
29
28
23
25
24
27
25
22
26
17
21
30
23
24
28
21
17
22
20
20
17
31
34
30
28
28
26
33
29
30
29
25
31
20
26
24
25
26
24
19
16
24
30
25
28
42
39
43
33
24
38
41
22
25
31
37
30
28
28
22
26
30
30
26
36
36
33
30
35
30
37
34
44
39
37
37
42
43
43
36
39
48
53
36
40
48
42
34
43
49
47
42
37
42
27
19
28
26
21
22
24
31
16
25
30
27
24
30
36
30
25
29
22
8
15
12
12
20
25
31
33
34
25
20
30
13
22
30
38
39
20
21
30
31
24
23
24
37
34
28
33
27
33
49
67
77
102
130
152
168
176
164
180
168
95
15
-95
-154
-185
-196
-203
-202
-206
-195
-175
-172
-151
-129
-99
-95
-92
-82
-68
-50
-33
-18
-9
-4
8
20
39
36
34
41
36
32
26
33
41
42
31
40
42
34
35
40
49
49
51
58
55
54
58
57
56
52
57
58
55
53
49
53
66
72
68
69
80
74
69
72
66
75
79
78
80
85
74
91
74
72
79
92
111
108
106
115
117
122
122
125
124
134
129
135
132
147
150
133
144
151
143
146
152
158
141
139
147
144
134
147
134
138
123
125
125
119
103
92
103
94
85
73
72
70
66
59
63
60
58
58
54
50
37
52
53
51
36
40
42
41
28
34
44
29
31
26
35
24
22
34
38
29
34
22
30
25
32
40
42
28
34
39
25
28
35
30
27
23
29
30
27
30
32
29
35
32
34
37
29
25
24
35
31
30
33
34
37
28
16
30
45
35
29
25
33
29
39
33
39
35
28
33
30
44
36
33
38
40
36
32
23
28
27
23
38
36
30
41
36
39
38
34
37
34
23
33
26
34
46
42
38
34
43
39
38
40
47
40
42
39
24
26
30
36
59
54
63
55
47
51
46
45
55
46
42
43
49
37
26
22
30
24
24
27
37
35
30
30
31
29
34
31
36
26
11
24
24
23
30
36
25
25
26
34
31
29
33
34
29
16
13
7
22
28
31
35
34
29
35
36
25
29
19
25
25
46
47
46
51
58
83
95
108
137
147
165
179
177
182
175
92
-10
-121
-169
-187
-208
-199
-192
-193
-192
-183
-164
-155
-143
-126
-114
-109
-83
-70
-50
-30
-17
-4
12
6
17
25
28
35
39
31
34
41
32
30
40
49
52
50
49
48
43
51
49
52
53
66
59
57
66
69
67
62
65
57
58
53
64
66
65
73
58
54
65
66
80
74
82
89
93
73
89
99
84
92
94
97
95
111
119
121
116
117
122
126
132
132
142
127
129
134
147
147
140
145
145
152
159
159
154
149
154
154
150
144
142
135
127
147
125
120
115
101
98
106
101
87
89
77
76
77
75
73
77
62
49
50
62
46
46
32
38
40
44
40
38
42
33
15
22
35
30
27
28
15
25
19
23
38
48
40
34
44
46
34
35
35
30
31
41
36
34
30
28
30
25
34
37
34
26
17
37
35
32
19
23
23
27
36
36
41
38
38
37
43
38
34
32
30
47
32
34
30
36
31
30
41
37
41
32
22
30
30
35
36
33
40
45
42
47
46
51
34
34
42
39
35
42
50
44
37
32
35
36
57
55
47
47
35
39
42
40
38
53
46
50
52
44
49
50
45
34
37
31
24
19
24
27
30
25
33
56
33
27
32
33
36
42
27
29
30
37
26
31
27
29
28
28
29
18
17
27
27
28
24
21
15
12
23
24
22
28
17
14
16
15
28
37
35
34
43
47
57
65
75
85
103
119
139
155
172
171
166
158
140
77
-38
-126
-172
-186
-178
-183
-187
-195
-190
-177
-170
-170
-154
-133
-111
-95
-62
-23
-9
-11
-3
3
5
11
15
24
42
37
39
32
30
36
41
46
41
37
25
41
49
53
53
54
60
60
51
59
54
50
52
55
55
56
54
48
56
55
69
67
62
60
52
58
69
72
71
68
74
87
79
73
74
84
98
94
88
94
98
108
110
104
105
112
119
117
108
116
132
134
131
131
133
138
131
138
138
133
134
133
138
145
151
144
139
132
134
138
133
128
118
119
106
94
90
79
87
82
78
72
70
68
53
60
55
52
43
39
35
48
34
36
46
36
41
41
39
39
34
43
36
34
39
47
26
21
27
35
33
28
32
33
33
34
33
26
21
13
23
33
25
34
37
32
39
21
39
36
46
42
45
42
39
42
40
45
31
26
39
30
34
45
39
37
34
48
38
43
50
47
54
47
41
33
32
40
43
45
43
38
49
52
54
63
56
53
47
28
51
47
47
44
44
44
59
65
53
51
55
56
58
59
58
66
64
65
61
65
60
58
50
64
65
63
58
51
58
59
56
50
50
49
38
28
42
43
43
38
34
40
42
37
32
38
31
29
34
15
18
32
33
32
30
37
39
39
36
40
42
43
36
32
35
31
14
29
24
33
35
31
35
37
40
44
38
35
42
53
71
79
89
125
158
167
171
189
200
209
203
164
85
-14
-108
-148
-164
-173
-184
-194
-198
-192
-183
-161
-145
-138
-100
-77
-75
-65
-45
-15
-4
4
5
20
28
36
42
50
57
58
54
52
52
67
62
55
53
58
64
72
62
58
71
67
73
76
76
78
78
84
88
79
83
78
97
91
88
93
98
94
94
99
101
99
104
112
115
111
113
117
111
121
125
125
128
123
119
130
144
154
155
147
139
149
139
163
165
163
167
165
177
187
179
180
184
186
180
175
169
175
182
191
192
189
185
175
170
169
163
167
145
138
137
133
125
117
119
114
110
98
97
100
86
79
79
78
87
78
70
65
69
65
56
51
51
47
40
52
69
77
76
73
73
67
62
58
58
63
58
62
71
64
55
56
57
55
58
55
62
64
60
49
39
52
46
58
48
50
62
53
64
56
63
72
73
66
62
59
55
57
52
59
56
53
59
54
51
44
57
47
47
48
63
66
61
65
67
66
65
69
50
58
58
59
52
56
56
56
46
51
58
39
56
78
66
52
55
61
73
83
71
67
67
60
69
68
71
74
63
56
64
71
77
71
74
65
65
63
55
59
56
50
53
54
59
55
57
55
57
54
54
55
51
48
54
52
56
44
41
42
43
59
55
47
44
47
55
52
41
44
65
45
44
52
53
45
48
58
59
42
37
45
46
48
60
71
82
78
109
115
137
161
182
201
207
198
214
207
112
27
-84
-136
-173
-191
-194
-195
-204
-195
-179
-166
-151
-127
-88
-81
-79
-61
-36
-13
-1
1
11
25
29
37
51
62
55
54
71
72
62
63
64
67
67
67
71
67
72
74
78
82
85
85
84
88
90
95
90
92
88
83
80
83
80
89
95
112
115
114
109
114
116
132
124
112
113
112
108
111
116
113
119
138
144
147
148
144
146
151
148
149
143
157
172
184
170
179
173
167
170
188
194
184
179
182
183
185
179
195
182
180
178
169
162
157
144
147
138
121
120
121
121
116
117
106
106
106
98
82
81
81
90
79
72
75
68
68
63
59
61
65
53
47
63
55
48
61
62
45
47
44
52
50
53
59
50
62
44
38
44
45
47
44
45
46
51
53
60
60
56
58
55
65
58
58
65
61
60
56
49
47
52
60
49
36
46
63
60
47
61
67
55
56
51
47
45
38
40
49
49
59
65
65
58
69
72
68
65
63
63
53
56
52
60
71
55
55
52
58
62
57
64
55
57
65
60
56
70
62
66
68
71
69
56
41
52
50
55
46
40
35
43
42
37
43
54
53
58
54
47
48
50
48
64
59
55
48
43
46
43
44
48
51
52
58
59
57
49
53
48
61
52
52
44
48
52
57
52
53
48
40
45
43
64
89
85
97
119
136
163
189
205
223
243
239
245
216
160
67
-47
-123
-171
-181
-189
-189
-197
-192
-184
-163
-143
-125
-112
-84
-66
-55
-39
-32
0
-5
6
14
14
48
44
48
53
41
45
53
57
45
63
69
71
81
83
69
72
75
63
68
74
77
75
77
78
77
81
86
89
80
83
106
108
91
87
92
105
100
98
106
108
102
111
113
119
116
120
129
118
123
126
127
133
147
140
137
140
139
151
155
155
182
200
191
186
186
198
202
205
191
201
207
209
206
198
186
186
201
201
191
189
191
177
162
161
157
157
146
135
134
129
122
116
99
89
87
86
91
80
71
62
61
54
67
65
66
57
58
61
62
66
60
52
61
72
63
60
44
63
52
55
58
49
51
52
46
41
42
48
57
50
54
54
56
54
59
62
54
52
56
58
38
50
50
48
50
45
56
61
51
51
55
63
70
71
73
69
63
63
80
68
67
73
78
71
68
78
74
73
74
87
94
85
88
91
80
75
79
68
62
62
72
84
81
78
74
74
76
79
67
66
71
61
55
51
33
50
65
72
79
71
70
68
56
49
54
47
47
42
44
46
42
46
43
48
52
53
58
48
47
35
40
29
18
23
41
54
64
55
56
58
61
61
55
49
55
57
51
45
50
63
51
51
62
61
60
61
69
75
82
86
97
111
138
174
186
212
245
248
236
245
229
158
72
-46
-112
-157
-161
-167
-169
-165
-168
-159
-137
-110
-88
-66
-40
-36
-15
6
21
33
49
50
46
63
70
63
67
67
75
73
78
78
89
77
77
77
82
85
91
86
83
72
86
109
86
74
90
96
79
75
89
99
98
96
101
95
106
110
111
118
112
117
113
113
110
117
124
122
123
123
124
125
128
135
130
150
156
151
157
164
156
167
180
170
172
179
184
191
184
186
191
203
189
204
207
210
212
207
210
213
205
192
215
199
201
188
183
179
173
169
163
159
157
144
140
139
137
122
115
113
100
96
92
78
78
77
74
69
63
67
68
57
63
58
62
54
56
74
70
58
49
61
61
57
57
52
48
53
53
60
48
42
47
42
48
48
54
60
56
48
57
54
58
59
48
53
48
57
56
54
51
61
68
66
53
56
58
61
63
70
73
65
72
75
77
78
76
84
83
88
82
69
84
83
79
72
75
75
72
74
78
88
91
95
105
106
102
96
97
96
95
97
98
90
95
94
91
87
72
79
78
64
60
59
67
69
75
50
38
36
50
60
58
48
65
63
56
62
77
71
57
42
44
30
31
36
51
51
55
56
57
53
48
46
50
44
52
50
41
45
48
54
51
49
54
59
66
82
70
60
71
89
106
128
151
177
198
217
232
233
234
210
137
26
-111
-149
-173
-181
-187
-177
-167
-169
-141
-124
-112
-88
-87
-62
-50
-45
-17
-6
15
35
42
44
56
74
84
88
92
92
90
88
91
91
92
83
81
87
79
81
91
86
84
84
91
85
76
81
80
76
86
92
81
76
76
73
80
88
85
91
96
88
87
108
90
87
104
87
100
107
110
107
115
115
120
121
116
128
135
138
142
130
131
137
144
151
150
146
151
163
159
162
172
169
171
177
176
178
177
169
175
175
170
168
161
152
153
151
146
140
129
124
127
120
106
95
97
99
86
89
73
71
80
71
61
59
54
51
48
50
56
48
52
54
54
45
32
25
60
30
32
42
44
50
41
40
39
39
39
37
51
50
46
53
44
42
33
35
33
42
39
48
34
36
37
37
41
41
46
42
33
31
41
47
47
49
42
44
47
44
40
41
47
51
46
36
48
59
62
66
57
49
55
62
46
53
53
40
49
45
61
48
47
56
55
57
54
48
51
57
60
54
47
49
56
48
50
56
61
57
57
52
55
42
31
28
29
36
45
38
30
39
48
40
38
33
39
32
38
35
38
37
33
39
33
31
31
36
36
34
31
22
21
23
26
25
16
25
27
24
19
26
41
55
37
34
34
31
39
31
41
45
67
82
99
129
143
161
180
186
186
184
168
101
4
-109
-146
-173
-189
-198
-193
-198
-189
-178
-168
-162
-154
-138
-122
-103
-89
-69
-40
-20
-5
-1
2
11
9
21
21
23
29
29
22
23
29
35
36
38
45
34
40
51
65
54
51
43
41
46
46
49
48
46
44
49
47
47
50
58
64
71
55
53
63
62
56
67
62
64
68
65
56
69
70
79
82
88
86
88
95
103
106
114
103
105
113
116
122
126
122
133
141
145
135
140
137
135
135
153
153
151
143
137
142
131
129
127
127
126
120
122
111
98
92
86
80
73
72
80
72
67
72
66
54
43
53
57
45
45
40
39
41
40
38
35
39
36
44
38
29
18
29
25
29
26
17
21
19
34
37
28
34
24
21
24
23
27
18
30
26
18
29
30
30
26
32
36
29
26
28
23
35
25
30
19
32
27
23
19
33
29
27
32
32
30
43
46
30
37
38
40
32
38
35
38
41
34
54
36
38
34
37
48
46
50
51
59
57
58
64
50
57
62
58
57
51
55
55
53
48
48
69
67
57
61
59
59
60
52
50
50
51
52
54
50
55
60
61
58
54
56
60
57
68
66
64
77
77
78
78
79
73
66
61
69
83
82
87
82
90
80
89
87
85
81
79
97
99
96
114
108
102
111
118
105
110
125
134
157
189
208
222
238
247
253
256
247
207
123
10
-71
-102
-114
-122
-127
-135
-146
-130
-107
-94
-73
-46
-42
-31
-16
1
19
39
54
62
48
58
66
68
80
96
94
97
109
111
117
106
121
119
110
109
115
111
112
115
122
111
108
113
123
126
130
127
128
125
127
130
119
126
127
136
128
119
124
115
113
126
139
140
141
156
156
164
171
174
166
162
174
173
170
163
161
163
170
172
173
170
166
189
203
202
194
203
203
206
202
184
195
184
179
189
196
196
184
179
177
182
173
166
156
142
142
146
135
109
112
116
120
114
111
99
91
97
95
88
83
81
72
70
71
77
70
63
69
79
63
49
81
71
62
67
63
66
69
67
58
60
53
56
52
58
53
59
51
54
54
44
49
54
58
53
46
53
51
49
44
41
43
45
50
63
61
54
58
64
53
47
49
55
49
50
47
51
54
49
53
59
50
56
70
66
62
65
72
78
72
73
77
64
55
71
57
49
53
57
62
62
51
51
44
48
47
39
38
43
37
45
54
67
60
43
48
53
57
62
71
75
47
44
48
58
48
46
60
55
39
43
52
43
39
45
48
43
40
44
47
51
44
47
54
51
52
41
46
51
51
59
46
45
44
53
50
46
40
31
35
41
37
34
42
38
31
39
29
37
42
40
41
45
46
47
47
46
62
67
68
79
85
95
129
168
178
172
194
213
215
210
171
92
-2
-103
-144
-183
-190
-194
-196
-196
-179
-161
-156
-140
-123
-101
-90
-85
-58
-26
-14
-14
-6
3
10
21
19
40
42
39
50
62
56
49
59
43
50
58
48
54
58
53
67
70
62
62
63
58
63
70
79
82
74
79
81
75
70
73
84
82
82
78
86
94
91
95
98
101
109
103
95
101
104
110
114
119
120
114
129
134
138
147
154
151
161
159
162
163
164
173
170
167
173
184
181
179
173
194
202
204
202
198
186
179
181
185
182
184
171
159
156
149
144
146
139
129
120
103
104
91
81
70
70
79
72
65
57
63
66
52
54
55
48
46
40
43
46
39
34
30
29
53
45
49
49
37
49
35
46
46
41
38
53
42
41
36
48
39
48
41
43
57
46
44
46
42
42
38
40
46
46
48
48
46
42
34
45
41
50
46
44
45
43
49
52
50
43
43
47
41
43
51
57
58
48
50
48
49
60
51
44
50
59
57
59
52
45
47
56
56
54
50
55
61
61
58
58
53
67
53
46
46
48
45
45
64
66
65
57
53
63
71
70
64
61
58
48
50
56
62
59
50
56
44
41
39
36
32
34
41
38
35
39
41
45
48
55
44
30
41
36
36
38
44
38
39
46
50
57
50
49
50
48
43
44
42
42
42
42
47
44
40
39
44
37
41
34
36
43
45
51
55
60
68
64
83
116
141
154
174
203
222
221
220
204
133
44
-75
-137
-174
-182
-184
-182
-184
-188
-172
-150
-142
-132
-99
-81
-78
-69
-46
-30
-8
14
17
28
23
36
49
58
56
55
52
45
55
63
56
50
53
44
62
68
63
51
53
56
