30
32
47
35
30
36
37
39
43
33
23
31
38
17
26
28
30
23
36
34
29
29
34
30
23
35
30
34
37
33
30
22
30
29
25
16
22
42
36
29
38
30
28
39
32
28
35
33
36
28
41
47
49
39
34
28
16
34
37
42
33
26
34
28
39
45
32
38
38
35
28
30
26
30
35
32
25
31
36
31
38
37
37
30
43
41
31
33
30
28
18
17
30
36
33
40
35
37
41
41
36
32
34
25
35
22
28
31
26
30
33
25
37
37
31
39
31
29
40
45
43
41
43
45
47
47
43
45
40
45
46
53
51
44
43
44
47
41
34
35
35
38
39
42
37
36
37
20
31
30
23
22
30
35
24
35
28
25
29
21
21
24
36
41
38
27
26
26
25
26
19
25
17
17
34
29
22
24
20
20
25
32
36
26
20
26
31
28
23
24
23
23
31
25
23
27
27
35
23
25
25
23
16
31
36
32
44
56
60
66
74
102
121
121
115
106
96
76
78
77
58
55
44
55
64
51
32
9
-2
11
16
15
18
21
27
34
36
13
29
33
21
23
17
18
34
28
17
31
29
36
25
23
45
42
33
31
27
35
28
29
30
29
23
39
36
20
28
32
34
35
31
34
33
28
38
42
41
36
30
37
30
33
38
32
37
34
35
36
34
44
37
31
35
44
38
45
56
44
41
56
60
52
53
48
48
56
52
47
49
50
51
62
78
77
71
68
74
69
67
74
79
76
75
83
80
87
94
88
98
106
118
104
105
107
132
108
103
131
129
126
133
132
121
124
128
121
128
130
122
115
116
115
118
113
93
102
100
90
82
72
74
72
63
62
60
63
67
48
42
50
38
43
39
30
24
23
27
29
37
26
36
38
30
29
21
25
30
24
22
25
23
26
33
36
29
21
23
27
20
12
23
33
32
26
20
21
28
21
23
20
16
18
24
26
33
39
34
30
23
28
39
28
20
32
30
22
22
24
18
23
16
32
35
34
29
25
18
18
14
24
22
25
16
20
26
29
22
22
27
38
30
18
30
36
39
33
28
25
27
33
38
25
31
29
22
24
26
21
17
24
24
26
25
26
29
24
23
28
19
21
35
31
33
29
22
23
27
26
30
38
23
44
39
31
40
24
23
34
46
49
42
44
38
43
40
37
41
42
41
48
48
37
45
34
31
29
38
24
24
21
30
35
19
21
33
30
20
14
20
20
37
36
27
18
19
20
10
24
29
19
15
21
23
26
16
12
17
29
24
14
17
22
19
23
25
23
20
19
23
20
18
40
31
16
21
17
20
29
20
19
20
19
16
14
24
27
21
14
20
26
36
27
35
27
41
63
68
91
105
113
118
115
109
105
98
83
78
62
55
54
59
50
25
-2
-3
6
16
17
17
18
20
24
28
28
29
33
27
25
18
14
17
29
25
27
26
26
24
26
22
34
30
31
22
22
33
38
35
33
32
27
31
31
14
17
15
25
37
36
32
26
23
27
38
39
43
37
26
31
36
39
43
27
29
32
41
47
36
39
34
37
48
41
56
47
47
46
47
48
57
59
46
49
51
47
47
52
64
68
58
58
63
72
73
58
66
74
81
88
82
72
89
99
96
93
98
98
100
98
109
114
123
120
123
127
128
135
133
131
125
129
134
131
132
128
117
119
110
110
104
114
106
93
93
89
84
78
67
60
56
51
53
61
54
49
50
42
34
33
30
26
40
37
26
32
37
28
27
35
29
28
20
23
23
31
26
31
30
26
5
23
27
32
29
31
24
23
18
29
34
26
18
11
22
20
23
29
25
24
25
26
35
30
36
21
16
25
23
15
15
27
22
30
31
27
36
27
20
27
23
31
29
16
20
24
25
31
29
22
22
29
25
29
27
21
25
19
22
30
28
20
34
23
24
27
24
23
20
29
36
35
37
32
28
32
27
22
24
25
25
29
30
21
12
19
23
23
21
20
27
31
32
24
18
21
26
31
30
29
29
26
22
20
22
17
30
23
14
30
26
23
24
22
23
20
29
30
19
23
25
27
25
29
27
20
26
17
12
16
30
16
20
28
26
30
20
15
24
31
24
31
30
25
33
27
18
16
23
22
24
24
25
24
24
21
23
28
39
34
25
28
44
31
28
24
25
24
27
24
33
42
37
38
43
44
32
38
35
33
50
43
44
34
40
42
32
33
31
28
32
25
34
33
31
25
23
26
22
22
20
18
21
27
25
13
3
14
32
33
24
34
26
19
25
25
16
21
27
16
19
21
27
20
11
23
20
19
10
18
20
30
25
30
23
24
22
18
24
22
26
16
17
20
8
14
15
13
18
26
32
22
27
14
25
29
35
37
41
27
42
58
77
83
98
117
114
111
106
100
96
73
68
47
34
41
56
40
29
1
-6
2
8
-1
4
27
30
26
28
34
17
18
24
24
22
29
25
15
18
20
25
35
30
30
29
20
20
24
24
27
32
30
26
25
20
14
18
27
25
27
24
24
34
35
34
34
38
29
27
30
29
25
39
36
28
20
32
38
37
37
36
37
34
27
41
37
31
42
38
49
54
46
41
38
47
53
55
58
57
54
46
44
59
61
60
53
55
54
63
71
74
73
66
73
76
81
89
94
88
81
90
101
109
108
115
105
105
102
111
118
115
109
120
133
123
119
122
127
137
140
132
123
126
113
100
103
101
94
99
92
83
83
84
81
61
63
63
53
55
61
57
44
42
37
41
31
26
30
24
19
31
19
28
18
31
21
9
11
20
32
25
20
26
21
19
21
28
39
31
23
18
22
21
16
18
16
17
25
16
24
23
30
30
22
20
14
13
24
17
25
29
18
16
18
26
25
15
14
10
26
22
24
31
38
27
29
25
21
24
24
27
24
20
13
17
19
19
19
23
24
22
7
14
32
21
22
29
26
17
12
18
24
21
14
21
30
26
25
20
19
26
30
15
22
22
15
20
30
28
24
13
33
26
13
18
26
13
14
23
22
24
20
16
18
17
26
20
11
21
20
19
10
13
6
10
23
15
17
18
21
29
15
21
24
18
19
18
25
33
16
15
20
14
15
22
10
17
21
19
15
18
12
18
14
26
23
25
17
10
11
21
23
23
22
22
27
22
14
22
24
26
19
20
27
26
32
30
30
41
36
29
29
36
45
30
35
25
31
31
32
27
28
25
38
38
34
33
32
20
28
26
27
18
22
27
26
20
26
23
19
15
14
10
13
16
20
11
12
13
32
20
20
22
18
17
13
20
26
24
20
18
24
5
17
26
20
14
13
15
16
20
22
18
24
10
15
7
14
21
33
29
17
15
11
13
19
20
17
23
15
10
9
25
22
26
36
40
36
27
30
48
67
81
100
114
121
113
95
85
73
57
38
29
23
38
29
8
4
-11
-11
-9
-3
4
2
14
27
37
31
16
18
18
27
18
23
28
21
28
31
26
27
28
29
28
32
32
42
46
35
23
31
24
24
31
25
26
26
34
27
38
39
32
29
25
34
28
32
44
32
39
34
28
36
33
31
38
37
37
35
41
40
38
38
50
48
32
38
34
47
47
36
43
54
46
44
48
34
59
53
53
49
56
63
69
77
53
52
63
70
72
68
79
83
91
81
82
89
94
96
88
98
103
109
110
99
98
110
116
116
109
115
116
126
129
129
132
115
117
126
131
127
121
118
108
100
109
103
99
89
86
91
83
74
68
66
62
60
56
51
48
37
28
38
43
40
37
33
21
26
31
35
33
28
25
32
23
25
19
16
29
31
34
11
24
28
20
13
19
32
30
19
30
30
20
19
12
12
20
22
24
33
28
27
12
18
29
21
20
19
12
12
28
26
14
19
29
18
10
29
35
23
35
36
34
17
18
22
23
26
14
14
19
28
32
33
30
29
20
20
34
28
22
22
32
30
17
31
33
27
20
19
23
25
23
17
19
29
33
28
27
22
19
27
29
28
21
16
6
17
31
27
13
12
28
24
28
19
19
16
21
30
31
20
25
29
27
33
27
30
32
28
18
22
24
17
14
21
23
36
25
16
21
22
41
47
40
43
33
34
39
36
43
37
27
26
32
36
46
28
21
28
28
24
35
41
33
21
23
25
29
28
18
9
19
11
14
23
35
27
14
13
28
19
16
19
10
16
22
30
29
28
14
27
27
16
22
15
16
10
10
27
35
20
15
21
23
17
15
26
33
27
19
20
25
11
18
15
18
25
18
20
24
18
8
25
46
36
35
32
27
40
45
63
76
90
90
105
92
88
95
81
63
56
42
36
36
43
36
20
9
-10
-10
-4
5
21
22
22
18
17
29
28
17
19
24
10
22
33
21
23
21
12
17
31
29
24
32
19
21
27
25
24
36
36
27
36
36
35
26
24
28
27
35
32
27
29
34
35
30
21
27
41
40
36
50
37
23
34
38
24
38
31
30
40
45
34
34
45
44
48
38
40
44
42
39
47
40
42
58
51
52
60
58
57
66
63
64
58
65
67
65
80
89
77
75
86
87
84
87
91
89
95
98
96
102
92
109
125
122
117
112
119
119
123
123
124
114
122
127
122
115
117
124
116
110
111
99
105
97
89
84
86
83
71
66
55
53
56
55
47
41
49
43
37
39
38
33
27
18
35
38
19
21
27
17
24
33
26
26
18
10
28
25
24
27
26
20
30
40
12
25
25
26
20
22
21
29
29
30
29
27
14
20
33
16
17
20
13
10
21
31
20
23
32
19
22
29
26
22
26
19
23
29
32
34
33
27
24
22
24
26
22
26
20
27
21
15
24
35
24
18
22
34
31
24
21
27
31
34
29
29
23
29
23
19
22
28
17
32
38
32
27
17
22
28
14
27
29
27
41
40
35
36
29
31
27
28
25
24
29
21
27
40
34
29
45
47
32
34
42
35
34
36
40
45
48
54
39
32
34
40
35
33
31
24
17
9
18
27
28
32
31
32
28
31
24
12
13
22
17
11
27
27
26
26
31
32
22
18
11
6
24
22
19
28
20
24
27
24
21
23
22
24
22
21
16
14
23
21
21
15
15
24
29
30
23
27
20
16
25
24
16
23
12
23
28
29
31
20
21
43
59
79
87
98
104
109
100
87
80
74
62
66
55
52
52
58
40
25
7
-1
0
15
16
13
21
10
22
17
19
26
28
29
27
31
31
19
28
31
21
24
25
19
14
25
22
18
28
38
34
32
21
26
28
31
28
20
9
30
44
34
25
21
27
29
21
21
29
31
28
32
35
32
35
36
38
34
39
39
32
35
34
35
37
38
37
43
45
36
41
46
32
46
45
41
46
47
53
54
52
53
62
62
63
59
63
59
58
66
49
54
63
73
81
84
85
84
81
85
90
100
98
103
123
110
117
115
111
115
113
107
125
112
113
115
112
120
120
123
121
115
116
109
106
110
100
76
79
78
70
73
73
59
50
49
56
43
43
47
43
47
36
30
35
43
27
23
26
23
25
19
18
19
21
17
23
26
26
24
32
31
28
27
20
23
23
30
17
16
20
21
20
15
23
27
15
15
12
22
26
21
19
22
25
23
22
15
21
19
17
13
26
24
29
20
25
26
20
25
22
29
28
25
16
20
12
11
18
26
28
26
20
18
25
23
34
34
26
21
16
22
26
43
32
20
21
25
20
14
19
29
26
21
21
23
25
34
25
23
23
24
22
22
23
16
26
19
19
13
3
32
28
26
26
32
36
24
31
29
27
33
36
37
34
33
21
27
29
40
38
38
25
31
38
43
48
39
34
41
34
31
34
35
31
36
25
23
26
32
30
17
22
20
31
24
6
15
20
19
20
18
13
24
21
22
21
27
16
21
21
32
25
14
20
13
25
22
14
4
17
26
17
11
22
17
14
15
15
19
20
18
31
26
28
17
15
23
7
0
19
26
10
2
13
23
23
26
25
29
18
34
34
42
47
44
58
64
79
90
101
112
105
97
94
87
83
70
63
45
37
42
52
43
23
12
6
13
8
14
18
18
28
31
14
25
27
17
19
23
22
17
21
30
27
27
29
27
25
26
26
19
24
20
27
23
18
12
26
28
24
23
26
32
29
25
38
27
22
31
38
37
33
26
17
31
26
35
30
27
35
44
43
43
40
34
35
32
32
30
29
44
40
38
42
47
43
44
47
50
48
44
45
46
49
48
51
53
44
54
62
65
68
73
62
58
70
82
66
80
86
85
97
93
97
91
87
99
99
107
102
104
113
123
122
121
118
118
117
119
115
116
114
122
124
121
104
112
114
100
88
92
86
84
82
76
65
60
58
51
50
54
54
49
34
34
33
32
33
24
34
47
22
20
22
26
23
21
19
24
16
15
19
22
26
24
26
33
26
23
28
25
24
23
22
13
20
20
22
17
24
24
18
27
21
24
29
30
19
21
20
22
23
20
23
21
23
17
13
17
22
19
23
24
22
20
28
21
27
28
23
20
20
19
12
16
23
19
20
14
15
32
29
28
28
21
23
28
27
17
22
23
30
21
19
24
31
29
24
34
28
9
9
25
16
25
26
17
13
21
20
31
29
11
19
23
18
20
27
22
19
23
16
6
12
-2
12
30
35
23
13
22
15
14
23
20
16
20
12
18
31
28
24
31
13
3
13
18
22
25
15
16
21
32
30
29
23
20
21
22
19
42
40
31
24
24
22
27
21
23
37
42
39
42
40
34
40
38
41
41
35
33
27
32
25
24
27
36
30
17
20
30
22
19
12
17
17
15
11
9
23
28
23
17
19
13
37
18
25
19
11
10
23
7
13
17
9
16
24
23
23
20
14
12
18
20
17
12
15
23
28
13
15
16
25
23
11
12
21
26
23
20
17
8
10
17
16
21
21
20
12
17
35
36
29
31
46
48
61
74
96
108
103
98
98
91
90
71
53
46
44
52
60
63
40
18
11
9
15
13
16
21
31
24
20
24
13
15
14
24
20
22
14
15
17
25
18
14
23
24
26
28
28
26
23
13
15
27
25
12
6
26
30
25
21
27
22
32
36
41
31
32
33
39
26
18
25
32
26
15
30
22
25
31
37
28
30
36
43
41
37
33
44
41
38
43
40
48
50
47
46
39
42
51
38
33
48
40
45
55
62
64
64
68
65
60
63
69
68
77
77
76
84
83
86
78
89
100
92
94
105
93
107
110
114
110
104
118
123
131
125
126
128
127
117
120
124
121
116
112
104
101
97
95
89
71
85
75
69
65
61
62
54
60
47
39
29
30
36
28
26
36
34
25
20
26
12
18
21
34
36
20
23
31
23
20
10
20
21
25
28
24
29
30
20
18
17
23
25
29
17
17
29
29
22
19
16
17
28
29
27
14
27
18
25
16
12
4
15
18
23
30
25
23
24
38
24
29
21
21
26
25
18
31
27
24
16
22
31
33
19
21
21
26
25
18
26
20
11
19
20
23
25
21
28
32
10
13
25
33
25
28
23
11
4
21
24
28
32
28
31
30
21
17
17
17
14
13
17
19
21
30
25
20
30
25
10
15
34
28
21
14
17
20
20
16
14
20
19
18
19
11
22
20
19
16
14
21
26
33
26
23
20
19
14
17
18
28
19
19
11
19
21
21
21
12
14
20
22
31
31
13
15
10
12
20
28
13
14
25
31
29
11
15
17
22
23
20
5
8
26
15
12
23
29
14
21
23
16
21
33
30
21
38
28
26
29
23
24
29
42
15
11
23
30
27
27
37
42
41
31
30
25
30
42
40
40
41
40
39
42
32
26
29
24
26
15
17
28
15
20
23
23
25
14
18
24
32
31
16
22
17
18
20
18
14
8
25
13
4
18
9
14
17
14
19
25
24
26
24
15
20
22
12
-3
3
18
18
21
22
23
14
11
21
17
15
11
15
18
24
19
12
9
23
20
22
25
20
21
23
24
25
16
37
26
30
68
77
89
99
105
100
105
102
102
89
77
61
41
40
55
50
48
22
4
-5
0
-13
3
12
16
20
29
21
17
25
23
24
21
19
21
20
18
13
21
30
33
31
24
15
16
15
22
21
23
22
26
25
23
18
19
12
8
25
25
24
31
25
31
38
35
31
17
22
35
29
38
41
29
25
21
29
31
26
25
27
36
43
48
50
44
33
25
28
27
27
34
46
40
45
51
46
46
51
63
52
48
56
51
50
58
56
62
67
69
72
79
76
77
68
65
79
87
84
96
93
99
95
94
104
101
103
108
105
110
105
114
128
130
128
117
120
130
129
126
118
120
118
104
105
109
101
102
90
85
84
92
79
68
60
72
59
54
55
61
52
41
35
31
27
25
27
23
20
26
35
38
23
15
23
26
21
21
28
19
30
31
6
12
26
23
22
23
22
15
22
27
26
10
14
22
11
19
24
35
37
26
15
17
19
18
13
17
12
14
15
21
24
27
22
22
17
20
28
27
18
17
20
24
15
17
11
19
17
4
7
29
31
30
26
25
31
28
30
27
20
22
31
30
22
11
16
18
26
25
28
24
18
24
19
18
15
24
24
22
19
28
19
23
23
22
22
20
15
19
21
14
1
17
23
23
24
25
16
17
25
17
16
17
20
13
9
12
22
14
10
17
20
20
19
24
15
21
19
22
23
11
16
18
23
14
9
11
18
16
11
11
16
20
12
6
6
23
16
6
12
19
24
30
24
24
24
20
16
13
17
16
11
14
11
14
18
19
16
16
16
17
14
19
15
23
26
12
7
2
11
16
13
16
4
2
23
28
23
20
22
9
15
22
24
21
26
26
13
7
14
22
17
16
21
17
10
20
26
24
24
25
19
26
41
42
36
27
27
24
25
43
39
28
36
35
35
26
30
34
29
20
17
23
21
19
16
20
8
22
24
26
22
13
2
15
16
20
10
2
10
15
15
17
18
13
10
10
3
22
21
11
21
10
-9
8
14
22
14
12
18
17
7
5
7
12
15
16
9
9
26
22
13
12
10
20
15
16
25
27
9
9
11
22
8
6
23
22
25
21
35
42
48
66
74
100
102
112
102
100
85
56
61
54
26
31
36
44
46
21
2
-3
0
8
9
15
13
14
20
32
32
14
19
21
16
22
21
11
14
24
11
10
18
26
24
21
31
24
18
25
23
20
11
6
4
16
26
27
32
28
31
25
28
26
25
29
27
25
24
30
42
35
35
23
21
26
30
27
23
28
44
39
33
41
52
28
31
43
40
32
36
29
39
46
40
43
43
40
34
44
43
44
49
51
61
56
37
57
75
61
69
70
76
72
69
75
85
79
78
81
88
94
86
95
100
106
107
100
100
105
103
103
118
124
118
121
124
109
117
127
121
113
112
116
110
117
106
107
109
100
88
90
86
71
68
66
65
57
54
57
42
38
39
34
32
31
38
32
33
28
26
26
19
17
18
25
17
23
14
26
33
23
15
18
20
16
15
23
22
24
18
21
16
19
13
15
21
17
14
20
17
9
24
22
19
15
15
21
20
20
22
10
7
22
22
21
19
19
21
27
25
25
15
18
26
15
15
19
21
14
18
12
17
9
12
18
17
21
18
23
33
23
18
25
20
18
14
15
18
9
9
24
18
17
16
25
21
22
26
14
4
-1
9
24
30
18
24
22
25
23
19
9
17
13
22
26
13
13
5
0
14
19
14
19
22
18
20
22
15
16
9
15
17
14
17
16
7
5
22
25
9
6
16
14
8
17
14
13
13
18
21
23
29
15
6
22
26
29
24
23
30
28
20
15
22
24
25
32
30
35
30
17
23
31
25
16
28
38
36
22
31
35
32
26
29
24
11
25
36
30
18
15
12
16
16
16
28
25
15
12
18
15
15
6
9
13
21
19
18
3
4
9
14
26
19
7
15
8
7
0
6
25
17
15
22
20
21
14
3
4
15
24
19
21
22
19
10
2
15
20
16
18
11
8
19
23
18
14
7
22
19
22
13
14
30
49
47
56
78
90
95
105
80
82
82
55
44
29
12
4
17
8
6
-6
-12
-10
-9
-15
-16
-4
6
7
9
7
19
28
28
22
18
19
15
18
21
17
8
7
24
21
18
29
25
28
12
14
18
25
18
17
31
18
16
20
18
30
22
19
27
23
18
28
32
28
15
25
27
25
33
35
36
24
39
27
32
28
14
25
33
33
43
33
39
38
35
35
30
50
47
49
57
42
45
44
47
39
45
46
53
44
54
60
55
52
54
56
66
72
74
63
72
87
79
68
89
85
97
90
87
98
107
98
108
116
118
111
114
104
114
109
124
128
117
129
125
110
118
125
107
102
99
104
95
90
86
81
75
80
61
62
55
49
57
45
37
37
42
39
24
32
32
30
20
9
17
24
19
26
19
23
27
24
23
17
9
5
14
14
12
11
12
12
19
18
15
17
16
8
13
18
13
5
14
12
11
10
14
11
7
13
12
10
6
11
6
2
23
18
12
9
24
9
24
20
21
17
16
20
17
8
10
1
4
20
25
21
21
18
18
19
9
13
11
23
6
10
28
6
6
20
12
12
13
17
18
7
8
7
14
17
20
19
17
25
25
13
25
18
9
11
11
16
18
14
16
22
31
21
16
19
5
10
17
5
13
21
25
21
29
23
28
18
35
22
23
29
34
37
32
39
29
28
26
24
25
21
20
20
16
27
18
21
12
6
11
16
17
15
17
6
5
3
10
7
13
11
18
11
16
11
16
0
7
5
7
23
12
9
16
15
11
14
17
4
8
16
8
5
6
9
3
13
9
11
6
10
12
15
13
8
13
8
8
4
3
15
10
10
9
14
10
15
13
11
9
34
37
56
73
89
84
97
94
80
75
52
43
34
21
12
13
22
19
4
-12
-12
-4
-6
-2
-2
-7
7
24
11
21
11
14
24
20
5
11
12
15
11
3
16
21
18
15
11
18
19
13
18
14
19
28
20
11
10
25
20
19
12
10
16
15
14
20
20
19
17
20
23
21
21
30
17
27
16
12
11
22
29
22
33
38
31
22
22
27
20
26
36
32
39
35
25
22
33
41
39
37
37
52
50
44
49
42
40
47
63
58
57
59
59
50
63
67
66
61
68
72
86
82
82
79
81
100
107
99
101
99
105
97
112
121
116
106
107
111
116
113
109
95
97
100
93
88
81
80
77
81
64
67
68
61
56
47
34
29
32
37
32
24
20
23
28
10
11
10
13
33
18
16
3
7
20
17
14
4
15
21
18
10
10
16
4
-1
-8
1
10
15
14
11
12
11
3
2
9
14
11
0
-5
3
5
6
3
8
6
0
8
7
15
1
8
1
-3
-3
13
21
4
10
17
15
12
6
16
6
7
-3
-3
1
10
11
18
9
17
14
10
18
15
8
15
9
6
3
13
17
19
14
15
23
21
13
6
12
19
24
18
24
21
22
14
22
20
15
21
32
25
25
26
27
30
32
28
25
14
14
28
21
26
20
5
6
13
15
14
11
17
15
3
8
9
3
2
3
-6
-2
0
17
14
14
18
12
5
9
11
0
-3
6
10
-1
9
7
10
6
0
-9
-3
3
8
6
8
7
9
7
-4
5
4
-1
4
-4
-1
12
9
11
10
-1
5
3
-3
-4
4
0
-16
-21
19
32
15
18
17
42
46
63
69
85
92
95
83
83
78
66
55
46
36
34
29
41
30
0
-17
-21
-6
3
-2
-10
-8
6
10
10
9
12
15
12
3
8
4
6
-3
1
2
9
14
10
12
10
7
4
9
10
10
1
4
15
22
11
8
1
6
11
1
4
16
14
14
16
16
17
10
18
16
14
15
21
13
11
8
8
2
16
18
22
13
22
27
16
14
17
28
22
29
31
40
31
26
38
48
39
22
22
23
36
42
37
40
41
36
46
51
58
45
53
56
50
44
58
56
63
75
74
82
86
84
87
86
84
84
85
98
106
101
103
124
108
106
110
96
100
91
91
99
100
89
80
75
78
70
61
65
56
57
52
50
51
43
37
31
23
16
24
14
14
8
15
2
15
12
13
9
12
15
9
12
-9
1
-2
0
17
16
11
4
1
3
-1
-3
-10
-3
11
10
8
8
5
3
11
11
2
5
-4
-4
6
14
1
9
6
6
-6
-3
4
6
7
4
7
-4
10
3
9
11
9
7
5
6
7
-3
2
0
0
7
11
2
2
11
15
4
1
5
16
13
9
8
6
4
4
1
6
14
17
6
13
18
15
16
20
18
18
12
7
16
18
12
20
22
23
25
28
25
25
19
19
19
24
27
24
23
21
24
38
23
7
20
21
13
8
20
14
9
12
4
-3
-1
-3
2
13
6
5
13
16
13
5
8
4
-2
5
13
3
0
6
10
5
5
10
5
0
0
-4
-8
7
3
-1
5
7
8
8
8
5
11
6
3
1
0
2
1
-1
-6
7
8
0
3
7
9
14
11
1
-9
-3
4
13
21
17
14
22
26
50
64
85
107
103
100
89
82
85
80
70
61
35
41
45
50
26
-5
-3
-5
-15
3
1
-9
3
10
6
14
10
12
11
2
2
3
8
17
14
19
18
18
13
12
7
-4
1
8
15
22
9
16
12
10
9
11
15
16
14
8
9
14
17
23
28
15
23
11
23
15
6
19
24
26
16
23
17
16
16
26
27
17
19
19
15
20
26
25
25
40
39
35
34
35
39
33
30
30
29
25
28
43
47
37
42
42
46
55
52
55
54
64
72
69
63
68
75
73
78
88
81
83
94
89
89
94
100
106
98
100
99
102
111
120
122
112
106
102
103
104
105
97
84
75
71
72
68
67
70
65
64
47
43
46
45
45
12
22
30
25
22
33
38
22
22
12
4
3
11
10
6
12
19
18
10
6
9
2
5
-1
11
15
11
-1
3
-1
8
9
1
11
19
3
6
8
8
6
2
9
17
16
2
7
14
19
14
8
11
3
2
3
2
15
14
11
-3
-2
14
10
5
16
12
0
4
16
6
7
8
-4
12
11
9
9
5
21
15
11
-2
6
6
14
14
11
12
16
16
21
-2
-1
11
11
5
2
6
3
-1
2
13
7
19
14
9
5
-7
-5
10
18
5
-9
1
12
22
13
7
10
14
7
10
-2
0
10
13
3
1
15
13
10
13
2
1
6
2
11
12
-2
0
8
5
19
27
26
22
13
24
22
30
16
8
4
25
23
22
17
23
26
25
23
21
22
22
21
24
20
20
6
2
-5
-7
20
17
3
4
-5
-2
6
3
-2
7
13
4
6
1
-1
10
12
4
-2
2
2
9
1
6
2
0
-7
9
-2
3
7
-4
-8
10
16
18
20
9
4
4
2
-6
2
10
8
5
8
6
8
6
12
21
2
-8
3
9
0
0
2
-6
-6
17
36
28
29
49
71
83
97
102
103
91
80
81
61
45
31
31
25
28
35
17
-1
-29
-30
-21
-10
-4
-11
-3
2
10
16
14
16
-1
-9
0
15
14
4
16
19
7
15
7
4
10
12
17
21
14
17
17
17
12
12
4
1
-6
8
21
20
18
27
10
4
6
13
12
5
12
14
13
28
24
19
15
25
29
17
21
19
22
20
18
23
29
25
20
24
24
32
35
40
34
23
20
32
40
36
36
40
35
54
50
44
64
60
43
39
53
47
45
56
59
62
61
76
72
71
80
93
87
82
82
91
94
97
97
101
104
103
94
96
99
100
104
113
112
116
111
103
95
86
92
93
87
75
80
67
67
75
61
51
39
44
50
38
40
48
29
21
29
18
18
21
18
17
11
8
8
10
7
-3
14
21
14
8
9
14
10
10
15
9
2
3
8
13
4
5
14
1
-3
-1
-8
11
16
19
17
12
14
9
1
0
-2
-3
1
18
8
6
2
9
14
13
7
7
14
9
10
6
10
17
9
19
10
3
3
7
7
9
1
-5
3
15
9
17
14
17
15
17
4
0
11
1
7
15
15
11
3
7
12
10
12
10
15
15
17
12
13
10
10
16
10
5
10
12
6
8
4
3
10
5
-9
6
11
4
4
12
13
3
0
13
11
-3
4
4
1
13
12
9
5
5
4
9
5
2
0
1
8
20
9
3
12
4
2
21
18
13
13
-18
-4
18
28
11
8
6
8
2
-5
7
2
16
23
11
8
24
22
14
19
24
14
14
18
17
23
20
26
17
21
16
18
6
-4
10
14
13
16
27
13
-2
0
5
-3
-5
-10
4
1
8
10
7
3
-3
-1
-1
-4
-3
-3
-2
11
12
13
7
-1
4
13
12
4
3
6
12
7
5
-3
-10
-7
0
4
7
11
6
16
3
-3
-6
-9
4
-1
6
6
8
2
-2
2
4
-3
-1
15
11
10
11
14
17
20
28
46
62
72
75
87
83
77
72
65
60
38
16
21
9
15
18
-2
-23
-30
-9
-16
-3
1
9
4
4
13
9
5
7
7
6
0
6
17
13
11
8
5
16
10
5
23
12
9
14
2
13
3
16
3
24
19
14
15
13
13
5
6
27
19
16
13
11
19
14
18
12
7
23
20
21
19
9
22
17
7
21
34
20
31
23
21
30
31
34
27
16
19
25
28
38
41
42
36
31
33
34
33
36
40
46
37
50
64
57
39
53
57
52
53
56
58
71
77
82
73
80
78
82
86
84
97
97
93
93
96
91
96
96
100
110
109
115
104
98
102
109
101
105
90
84
83
89
80
69
65
58
64
54
50
51
43
33
33
31
31
31
18
16
28
24
8
8
9
5
9
8
-1
7
11
15
12
16
7
9
5
8
14
14
12
6
13
21
2
-9
-1
7
-3
3
5
0
4
3
7
3
26
16
3
13
7
1
-2
0
-1
1
1
-6
3
4
0
15
11
0
6
10
3
-2
5
11
4
13
10
11
1
6
5
-7
5
10
11
10
14
10
11
6
3
15
7
7
1
8
14
17
22
10
2
2
4
9
4
15
20
12
-1
-2
16
9
13
10
1
10
10
7
6
5
0
3
5
2
1
8
-2
-2
-7
-2
-2
2
4
19
10
7
12
13
11
17
8
8
1
6
2
0
9
13
6
1
-9
-6
-2
11
3
6
17
12
6
-1
-1
2
7
10
5
5
10
10
5
0
17
11
4
10
19
23
28
21
21
22
27
17
18
19
24
22
17
21
22
11
7
6
9
8
20
21
8
-1
-2
-7
4
2
-5
1
0
-5
-6
9
10
6
2
5
5
4
-2
2
8
12
10
2
-6
0
-8
-3
3
4
-3
-9
0
-6
-3
0
3
3
7
4
3
5
-10
-11
5
2
-2
1
0
-5
0
9
10
2
1
2
11
14
10
3
3
5
11
0
3
12
10
10
34
53
65
79
78
77
72
69
73
59
43
38
28
18
20
29
22
9
-9
-17
-15
-11
2
-4
-9
-3
0
4
9
19
9
14
7
2
2
1
1
0
0
6
4
8
2
5
6
6
5
5
12
6
6
8
-2
-3
15
12
4
18
16
12
11
4
6
7
14
16
5
2
6
18
21
16
8
23
13
16
21
8
14
15
9
11
14
14
16
15
23
26
28
20
23
33
28
19
29
29
27
32
30
34
22
33
31
32
51
45
40
41
42
47
63
71
70
67
60
65
74
80
68
75
70
73
75
83
82
90
93
90
84
96
101
101
104
100
97
104
112
103
96
101
95
87
83
81
75
80
66
59
58
53
52
53
44
42
39
29
23
16
14
17
10
8
11
11
10
19
8
4
8
3
6
13
8
-2
1
5
4
7
0
1
1
-2
0
0
1
2
8
10
0
4
2
3
5
-1
6
-1
-1
5
10
5
4
1
-2
6
1
2
-1
-4
-1
8
11
5
-2
-7
-8
-5
3
8
7
9
7
-1
-2
5
4
10
4
2
8
7
11
0
4
3
14
6
1
19
16
16
5
2
4
-1
-9
-1
4
6
9
-1
2
4
7
12
8
5
4
7
-11
2
6
12
14
6
12
12
4
-2
9
9
8
-1
-2
3
1
6
7
4
11
6
-5
-14
3
9
4
4
-1
9
4
-1
7
4
-9
0
9
8
-1
4
4
5
7
0
7
0
-5
6
12
8
-5
5
3
-6
0
6
2
12
6
7
9
3
9
7
-2
-6
3
5
7
6
-4
-2
8
9
7
8
-6
0
2
11
11
0
-7
0
10
6
9
0
5
-3
4
4
3
5
10
3
12
4
2
-7
7
3
12
2
-3
11
15
14
15
0
5
5
-3
2
13
14
3
2
-4
15
14
-3
14
12
16
19
24
18
20
24
26
19
19
22
11
15
21
20
16
16
15
4
9
5
6
6
4
0
-3
4
5
3
2
6
7
-4
-11
-2
4
1
2
13
7
6
11
4
1
2
-3
-4
-4
7
3
11
8
2
-1
0
7
4
-3
-8
-5
-6
0
11
4
-6
5
10
4
7
16
7
-10
-7
-3
-8
6
9
8
7
-6
-8
3
-9
1
15
29
26
17
20
38
49
55
76
92
86
84
79
66
63
63
40
43
26
21
43
47
29
-2
-12
-22
-13
-14
-2
0
-1
6
11
10
5
8
11
3
9
1
3
4
5
-1
4
10
7
8
9
6
12
11
13
4
5
9
2
1
3
3
5
13
13
17
16
18
15
7
17
29
18
16
11
0
8
12
25
24
21
10
18
23
18
19
14
8
8
16
17
18
33
33
28
21
14
14
16
23
34
29
34
39
44
46
35
37
39
38
39
53
49
47
47
46
40
43
51
63
64
68
64
61
69
71
65
70
78
90
83
77
85
102
102
102
106
99
103
94
96
94
97
111
112
112
109
96
101
107
93
84
98
78
72
75
73
67
54
51
47
34
34
30
19
33
27
28
30
23
21
20
22
15
7
3
7
3
3
11
-1
4
18
13
12
5
1
-8
0
2
14
4
-3
2
5
19
14
10
3
0
-13
5
7
2
-1
5
6
7
9
-1
-10
4
2
5
-6
6
8
1
-7
-6
5
3
3
1
1
2
1
1
0
10
15
11
-5
0
4
10
6
0
-5
-1
0
-7
2
4
13
10
6
3
2
-2
0
10
2
8
5
9
2
-4
-2
-3
4
5
2
10
9
5
1
-1
-8
1
-8
1
0
2
3
7
7
3
-2
-1
8
8
-6
-12
-12
-4
6
7
4
-8
-1
3
-10
-4
4
1
2
4
0
-6
-14
3
17
4
-2
-1
0
1
-1
-1
-5
-6
-4
-5
0
-2
-2
-4
-7
-8
3
3
10
-13
-12
-5
1
4
2
-5
-11
0
19
10
-7
-16
4
1
2
-5
-10
7
10
4
7
12
7
6
4
-1
12
14
4
3
-1
5
-1
5
7
8
12
11
16
15
20
22
20
26
22
19
20
6
0
8
10
3
8
4
2
-4
-3
4
1
-7
-2
-3
-14
-20
-12
1
1
0
5
-5
5
1
-3
-11
-9
-9
1
-5
3
-2
8
2
-2
-5
-9
-11
-4
-5
3
0
-7
3
8
-2
-14
1
8
-1
-4
-2
-2
-2
0
-12
-8
-10
-12
-4
-5
-16
0
2
-1
8
6
3
7
13
20
14
15
6
22
52
67
83
95
85
76
68
63
43
24
13
14
21
11
17
-4
-25
-30
-20
-32
-27
-11
-8
-8
10
6
2
-7
-5
1
1
0
5
9
-1
-5
4
-2
0
10
7
-1
-1
7
20
16
8
-1
4
-1
-2
-7
9
11
2
17
23
15
7
12
12
3
4
3
11
15
8
8
11
7
13
8
10
12
19
9
6
16
19
20
18
19
24
23
7
17
22
35
26
12
16
26
33
26
18
21
32
35
33
37
33
38
40
44
42
48
46
41
42
56
48
47
52
53
78
79
74
74
70
75
66
81
96
100
106
97
80
80
81
93
100
103
102
105
109
102
105
101
91
96
96
79
60
70
75
65
64
65
60
41
44
51
38
30
40
36
29
26
12
12
12
8
5
5
11
9
1
-3
-8
-1
8
2
-12
-3
13
14
1
-6
5
-8
1
10
3
3
-5
-1
7
0
-6
-5
-2
-5
-8
1
2
-6
16
3
-3
-12
-6
-3
4
-10
-3
-9
-5
0
5
-2
0
6
2
4
5
6
4
2
-9
-7
-1
-17
-23
-14
5
11
3
14
8
-5
-1
8
11
9
3
5
2
11
0
3
11
9
8
8
6
6
-1
3
4
10
2
-2
-3
-4
-9
-6
2
-7
-15
-10
-4
7
16
8
12
2
7
0
-4
3
-4
-2
-14
-3
7
3
-1
1
5
11
9
12
7
7
3
-3
-10
-8
-3
-1
7
5
2
5
9
7
2
16
14
9
8
7
10
16
17
13
18
18
20
18
21
25
22
10
8
1
-1
-1
0
1
5
-3
2
0
-9
-14
-8
5
0
9
4
5
4
3
2
-8
-8
-14
-5
1
-2
-3
-6
8
4
-9
-9
0
-1
1
-5
-8
-11
-7
3
-3
-7
-7
4
-2
-10
-5
0
-2
-4
-9
-19
-9
1
-14
-13
0
-3
0
4
4
-4
-3
-5
3
13
16
7
15
16
17
26
50
62
78
81
95
79
62
52
50
41
14
6
10
2
14
4
-9
-21
-23
-17
-29
-35
-16
-1
0
6
3
-2
4
9
-2
2
6
-7
-2
6
2
-6
3
-1
4
7
11
11
10
5
3
-3
-8
0
3
-1
6
-2
1
1
0
-6
11
8
12
11
11
5
7
9
12
8
7
10
11
3
5
4
7
8
11
20
18
4
13
8
14
22
19
7
14
24
19
13
10
30
20
20
26
32
24
26
33
41
37
30
31
36
42
40
45
57
42
48
52
52
56
63
68
65
71
74
66
77
79
82
79
81
87
93
90
90
90
92
96
102
101
95
104
106
97
86
94
83
83
85
76
73
75
66
59
53
51
41
43
37
27
28
27
25
25
24
15
3
7
9
2
-7
3
-5
-2
-1
10
4
-1
5
3
-7
-7
0
0
-13
6
-2
-16
4
-2
-4
0
4
0
1
-7
-8
-8
-2
-3
5
6
3
-10
-9
-10
1
-3
-6
-1
1
-5
-5
-10
-9
-15
-6
-1
3
4
-11
-4
-12
-1
-7
-4
4
3
8
0
-4
1
-5
-6
-7
-8
-2
7
2
-8
9
8
-1
3
-12
-2
8
4
0
4
2
3
3
-6
-8
-3
-4
3
2
-1
-8
-8
-8
4
0
-5
1
3
4
1
-9
-14
1
0
-9
-1
-1
6
-1
-6
6
-2
4
3
-9
-7
0
-5
8
17
11
-1
-1
-1
3
3
1
-4
-16
2
13
12
8
20
18
13
16
15
22
17
15
14
13
12
11
8
11
2
12
4
11
10
8
-2
2
-2
5
1
-3
1
-4
-9
-2
0
-10
-7
-6
-5
-4
-10
-13
-8
-7
0
-10
-8
-8
-4
-1
-10
-18
-16
-12
-5
10
7
3
-1
-9
-7
-13
1
-4
-6
-13
-15
-6
-5
2
14
-13
0
-1
-6
-7
-12
-6
-5
-8
-14
-11
-11
3
4
10
14
14
9
3
16
33
52
61
80
76
73
71
72
62
57
40
18
16
17
27
29
9
-13
-20
-23
-20
-19
-12
-8
-9
-4
7
11
8
-2
-2
7
-5
-3
2
-3
-16
-6
2
3
3
3
8
1
-9
-9
-7
-2
3
-6
5
-5
-1
0
-7
5
4
4
8
11
12
2
-3
1
1
3
7
14
5
3
3
2
15
8
3
8
4
18
9
14
18
10
13
13
14
9
9
21
15
14
10
19
25
21
16
13
26
24
24
32
24
26
32
30
42
43
33
41
46
51
41
48
59
65
61
67
65
67
73
63
70
76
82
89
81
73
87
96
103
98
98
92
95
93
95
92
93
101
94
80
83
87
78
74
61
37
47
47
51
56
52
47
40
27
32
26
25
13
21
13
6
-2
-10
9
-2
3
-3
2
9
-1
2
1
-4
-11
-12
-8
-3
0
-4
1
-15
-18
-7
-11
-11
-13
-2
2
5
1
1
2
-4
-16
-9
-7
-7
2
-4
-15
3
-4
-3
-3
-3
-8
-3
9
11
2
-3
-13
-7
-11
-3
-19
-4
-10
-10
-9
0
10
-8
-13
-1
3
7
-6
-3
-1
-3
-2
-13
-13
-2
-7
11
10
2
-8
-9
-6
-9
-11
-2
6
4
0
10
-4
3
-4
-14
-8
-7
-1
-11
-3
0
1
-6
-2
-9
-6
-6
-12
9
10
-2
-8
-5
-3
1
2
-9
-18
-10
-1
4
7
7
-1
0
2
-7
1
9
3
-3
6
8
-2
6
-1
4
8
7
17
14
20
17
12
5
10
0
-3
12
14
25
24
10
12
4
6
5
-3
1
2
-10
-12
-14
-17
-2
-2
-2
-10
-12
-3
5
2
3
1
-2
-5
-9
-9
-13
-17
-2
2
-3
-12
-11
-10
-10
-3
-4
-10
-12
-13
-10
-21
6
0
-7
-13
-16
-12
-8
-12
1
-3
-9
-10
0
-8
-6
-8
-16
4
1
-9
-7
-9
-7
4
-2
-7
-4
0
15
11
7
21
35
55
75
80
69
73
74
63
62
58
47
32
22
18
17
22
20
-13
-26
-22
-20
-10
-10
-19
-9
-11
-7
6
1
4
-7
-2
1
3
3
-7
-7
-10
-4
-5
-7
-2
13
12
0
-7
0
-3
-4
-6
0
4
-3
-4
3
4
4
-4
5
13
5
0
1
12
-4
0
8
10
0
9
21
15
9
10
12
3
7
14
14
5
9
8
10
13
9
14
15
13
15
11
14
18
17
24
19
31
26
22
20
26
36
32
46
44
48
31
34
50
41
45
39
49
63
63
64
64
61
65
69
63
78
83
88
89
83
81
77
84
96
93
92
94
113
106
91
90
84
81
99
95
86
91
83
78
77
65
63
58
49
37
44
49
35
24
27
4
8
18
22
8
12
6
6
-7
-1
0
-2
-9
-15
-2
9
10
-4
4
-3
-11
-4
-12
-7
0
2
-1
-8
-2
-13
-1
5
-2
-12
-16
4
6
-2
-1
-8
-11
-13
-3
-1
-13
-14
-1
1
5
-3
-2
-6
-10
-12
-16
-4
0
-14
-16
-11
-2
8
-1
-12
5
-3
-7
-6
-6
-4
-7
-7
1
-7
-3
-8
-2
-8
-17
-2
7
-5
-5
1
-3
1
-9
-6
4
0
3
4
-8
-10
-14
-4
-2
-10
-3
3
1
-4
-6
-5
-7
-4
-3
3
-3
-9
-5
-6
-16
0
-8
-8
-7
-16
-5
-8
-1
-3
-9
-9
-8
9
-1
-5
-1
2
-8
2
-3
2
6
7
5
4
4
-5
1
8
4
9
2
0
2
7
6
2
15
13
19
12
14
13
15
5
2
5
13
-3
4
7
3
7
-1
-8
-2
-5
-11
-15
-1
-2
-9
-15
-7
-2
-3
-6
-5
-7
-5
-9
-13
-4
0
-14
2
-4
-16
-6
2
-7
-14
-2
1
-4
0
-4
-6
-8
-14
-8
-10
-13
-5
0
4
-11
-20
-18
-4
-4
-4
-6
-1
5
-7
-9
1
-11
-11
-10
-4
-3
7
17
17
14
8
9
29
41
79
90
89
87
71
75
57
43
26
12
7
4
1
-5
-21
-36
-40
-37
-18
-20
-9
-2
-2
-3
5
3
-11
-4
-2
-1
-4
1
7
-4
-11
0
-8
-10
-4
12
12
5
0
4
6
6
-7
4
8
1
-4
-7
-6
11
4
-8
7
1
5
-4
-12
8
6
9
11
9
13
17
8
13
10
5
6
9
9
8
2
11
19
24
18
18
18
13
14
23
26
20
28
23
22
32
29
29
21
27
32
28
27
41
44
31
21
38
48
42
52
53
45
59
56
58
59
70
64
73
81
77
76
88
75
80
86
88
91
89
93
101
88
103
101
82
91
108
104
88
90
88
87
85
75
72
65
60
52
52
58
45
34
36
27
24
22
19
10
14
8
0
8
12
11
8
2
-5
-10
-10
-1
-3
-13
-7
12
1
2
8
2
-5
3
-2
0
-1
-12
-2
-18
-12
-5
-10
-12
-7
-3
1
9
-4
-8
-10
-7
-3
-4
-11
-18
-6
0
-12
-8
-4
-7
1
7
1
0
11
2
-6
-15
-10
1
-8
-9
-8
3
4
-1
8
2
3
-7
-6
1
-12
5
5
5
2
-10
-6
-2
-4
1
9
-3
5
-13
-8
-5
6
14
3
-2
0
3
3
1
3
0
-4
-15
-13
-14
-2
4
-4
-3
-1
-5
6
6
8
2
9
9
4
0
-7
-2
-4
-3
8
10
2
2
1
-1
9
11
21
16
16
18
20
19
6
8
8
7
6
-6
4
2
-7
-6
-13
0
-7
-5
-1
1
2
-7
-8
3
4
-5
1
-14
-19
-18
-16
-19
-6
1
1
-5
-12
-9
-9
-12
-1
0
-7
-7
0
0
-2
-17
-19
-9
-11
3
1
-11
-20
-15
2
-4
-7
-13
-17
-10
-19
-6
-4
-1
-10
-8
-16
-6
-1
-16
-21
-5
13
4
6
5
5
10
22
48
62
71
74
83
73
60
59
51
33
15
-2
3
3
9
-1
-11
-18
-41
-37
-25
-21
-14
-12
-18
-11
0
10
-3
3
0
2
1
-4
1
-5
-7
-6
-7
-3
-1
-7
-13
-2
5
-2
-7
-1
-4
-13
0
-7
-1
4
-4
5
1
0
0
3
3
3
-2
-2
16
13
9
-6
-3
3
2
8
10
15
16
18
20
22
7
4
1
1
5
0
3
6
9
6
23
22
23
24
32
39
26
24
28
24
16
19
31
39
34
39
47
37
35
46
44
49
51
50
53
55
60
63
69
73
74
87
87
75
80
81
81
85
84
87
95
102
98
96
91
91
90
90
85
83
81
76
80
71
58
53
68
51
43
45
37
32
34
35
23
21
23
21
4
4
2
8
5
10
3
5
1
-11
-1
0
3
2
-5
-10
-13
-20
-23
-25
-8
-6
-1
-2
-10
1
0
-6
-13
-19
-2
7
-6
0
-11
-13
-7
6
4
-5
-6
-15
-9
-12
-3
-7
-10
1
-4
-9
-12
-12
-14
-10
-10
-9
-17
-18
12
-3
-5
-10
-11
2
0
0
1
-8
-8
-5
-9
-2
-10
-12
-14
2
-1
12
-1
-13
-4
2
2
-2
-6
1
-1
-15
-18
-11
-10
-7
-5
-9
1
3
-4
-10
-14
-2
-6
0
3
4
-2
-7
2
1
-10
-9
3
-1
3
7
-1
5
10
-6
-3
5
3
0
3
7
9
11
12
13
8
12
14
-1
3
10
3
-4
-8
2
-8
-6
5
9
5
-6
6
0
1
-11
-8
-6
-19
-26
-31
-11
-17
-7
1
10
-5
-17
-7
-7
-4
0
-6
-3
-7
-13
-18
-18
-19
-19
-19
-10
-4
-4
-10
-22
-10
-12
-8
-11
-16
-15
0
-1
-10
-9
-10
1
-9
-7
-14
-23
-17
-4
-4
-25
-20
-2
-9
-11
11
10
5
3
8
7
16
25
37
61
81
81
85
72
63
64
47
30
20
13
7
14
18
8
-13
-13
-21
-19
-24
-17
-10
2
0
-1
-8
-4
-10
-10
-5
-8
-23
-16
-8
-6
5
4
-6
-5
-7
-5
-6
-2
-3
-3
4
-8
0
0
-7
-6
-1
-2
-9
-5
3
6
-4
-5
-7
-2
-2
5
-4
-13
-12
-6
0
3
9
4
4
13
10
5
6
-5
-5
7
11
8
15
16
12
9
19
11
10
9
5
3
22
26
25
25
20
26
22
21
27
33
26
23
36
34
49
34
38
41
55
58
55
57
66
61
64
71
78
71
71
78
74
81
77
84
83
74
85
104
92
101
110
99
88
86
75
65
70
74
68
67
57
62
57
53
46
41
32
15
19
24
22
12
7
9
4
-5
4
4
21
15
-1
-7
1
-6
-5
-20
-16
-7
-4
-6
-8
-6
-4
1
-8
-22
-14
-4
-9
-8
-8
-11
-5
