-14
76
77
80
207
152
15
-106
-114
-16
-11
78
85
84
222
146
21
-109
-91
-7
-12
82
89
115
239
141
7
-115
-56
18
11
91
85
128
224
126
16
-86
-29
29
27
91
92
143
240
126
7
-112
-29
38
60
104
105
156
222
124
21
-82
-16
25
51
93
96
194
246
141
24
-83
-20
47
55
103
113
223
243
143
32
-60
45
86
98
129
138
242
243
148
50
-53
49
78
108
150
141
251
256
129
52
-48
70
77
96
122
143
285
249
137
-17
-88
29
69
100
120
117
224
192
109
-19
-117
-3
38
71
78
114
228
180
48
-29
-112
7
22
42
72
66
201
141
66
-43
-120
14
32
95
113
114
209
174
39
-98
-152
-18
17
121
115
100
227
136
12
-108
-112
-14
-18
66
80
80
213
132
12
-98
-88
7
-2
91
89
85
213
139
12
-107
-72
5
18
91
88
110
232
139
13
-108
-53
17
28
87
92
137
226
133
11
-115
-57
26
37
110
113
164
212
108
5
-102
-29
10
19
99
92
179
221
126
4
-96
-4
25
31
66
75
146
198
101
-17
-112
-31
14
38
81
77
177
193
85
-15
-132
-15
11
38
77
93
181
182
85
-17
-124
-6
39
62
82
79
196
192
88
-27
-128
-11
30
50
76
95
214
186
84
-30
-137
-2
35
47
68
94
235
215
131
49
-13
130
173
219
259
265
352
315
194
73
-52
21
4
40
41
75
218
157
54
-40
-98
7
15
81
96
98
233
173
43
-75
-93
24
18
86
104
102
248
168
52
-74
-50
31
26
114
112
119
252
160
49
-82
-45
34
41
114
120
137
250
171
33
-80
-39
40
50
115
111
153
251
161
25
-78
-16
50
62
114
115
167
254
157
43
-66
5
70
75
127
149
208
259
165
39
-72
12
73
98
148
166
238
249
150
55
-43
31
82
103
153
154
252
270
174
64
-40
64
114
124
154
172
284
289
187
72
-29
78
127
146
163
183
289
281
187
70
-26
76
118
156
162
172
297
262
158
40
-64
56
94
119
139
139
262
231
127
27
-90
35
47
86
108
129
256
202
97
-4
-97
33
44
88
101
103
245
196
75
-25
-91
25
35
95
106
114
256
200
65
-51
-83
39
40
104
114
111
243
184
58
-67
-59
28
20
112
119
132
258
194
47
-66
-53
40
31
117
118
128
253
177
51
-57
-26
50
41
127
121
145
261
162
45
-77
-18
50
68
142
132
175
249
150
29
-96
-7
50
60
116
151
179
233
139
14
-88
-5
49
41
91
110
197
235
122
8
-85
8
44
62
103
96
188
214
119
3
-108
-6
43
56
95
107
199
199
120
0
-104
-4
28
53
99
110
222
208
107
0
-113
5
47
63
94
120
215
186
99
-8
-98
39
79
134
193
250
383
359
263
133
18
148
165
171
167
128
218
170
63
-19
-120
2
29
72
99
121
264
219
105
8
-75
23
23
81
105
116
247
202
99
-27
-82
30
25
101
124
114
250
192
69
-52
-57
41
37
123
126
123
258
194
58
-62
-66
48
36
120
113
125
268
184
51
-68
-46
41
44
127
131
162
255
177
42
-71
-25
48
56
122
133
174
262
167
47
-71
5
53
61
127
140
204
272
167
64
-59
23
78
79
135
140
233
276
179
43
-54
42
96
129
138
176
248
289
183
81
-38
83
100
126
161
179
282
290
164
62
-43
83
109
115
171
178
267
264
165
40
-63
57
75
94
121
124
232
236
135
26
-102
23
51
74
98
119
238
209
114
-2
-83
14
38
66
101
106
237
201
88
2
-98
14
41
70
96
107
238
193
87
-13
-107
14
32
80
96
106
248
192
80
-41
-125
24
15
63
107
114
238
186
65
-63
-85
30
26
104
111
105
241
175
54
-65
-73
49
45
102
111
123
255
182
48
-58
-47
40
26
114
135
143
254
183
40
-83
-33
60
58
116
100
128
256
153
21
-97
-40
21
19
101
105
162
237
136
14
-100
-26
24
40
90
94
179
234
121
-12
-93
-25
16
43
97
109
190
213
110
-4
-114
-24
24
47
85
96
203
195
87
-17
-107
-15
36
54
89
105
214
211
99
-9
-107
10
80
101
157
200
328
322
247
132
38
135
163
171
196
171
246
199
87
-12
-106
2
42
62
100
122
237
199
99
-9
-102
22
46
75
100
121
249
211
97
-12
-107
20
36
68
102
117
240
199
90
-7
-87
20
28
77
108
121
250
194
75
-54
-92
34
28
101
117
108
248
177
55
-77
-86
43
33
116
123
127
261
190
64
-59
-51
44
40
129
142
132
260
187
62
-58
-22
57
57
127
132
160
272
191
72
-48
-7
62
75
149
150
196
281
185
71
-41
16
84
99
157
163
232
301
202
79
-36
46
100
115
165
173
258
307
188
73
-32
57
100
117
165
165
253
279
171
51
-52
47
76
90
137
137
208
234
133
11
-77
-3
46
55
102
98
214
215
91
-6
-112
-10
36
48
91
96
204
186
92
-35
-127
-8
20
43
76
84
210
177
74
-25
-125
-2
32
54
84
93
219
178
72
-31
-127
-4
19
51
75
95
226
177
75
-20
-115
11
16
65
84
98
229
173
66
-45
-111
17
21
79
95
103
238
182
55
-75
-97
20
12
94
98
100
227
163
26
-84
-94
4
1
89
78
83
215
145
2
-112
-89
-4
-3
66
68
89
199
118
-12
-128
-85
-13
-15
63
72
110
182
91
-24
-141
-83
-21
-7
55
49
115
175
88
-43
-146
-84
-21
-5
47
55
126
165
74
-55
-150
-73
-25
-3
49
55
135
156
50
-52
-149
-44
27
63
137
179
275
301
208
85
-32
72
103
94
108
67
141
127
26
-67
-167
-56
-35
2
44
63
179
153
51
-62
-155
-34
-3
9
38
56
176
148
43
-55
-164
-41
-12
16
45
54
179
144
50
-66
-157
-47
-8
12
40
62
195
135
39
-56
-164
-38
-26
21
41
55
193
148
36
-65
-153
-25
-17
39
74
40
188
133
20
-111
-141
-20
-27
49
55
56
209
136
7
-105
-113
-11
-22
61
69
66
206
137
9
-111
-94
-1
-5
73
79
87
224
143
23
-101
-66
12
24
89
90
119
238
144
26
-95
-41
38
64
108
108
144
228
140
18
-97
-27
20
38
93
115
154
223
122
-5
-118
-45
11
25
69
71
140
193
59
-42
-149
-68
-18
-3
29
45
123
149
48
-55
-167
-69
-32
-24
22
42
136
126
24
-75
-190
-78
-41
-22
18
31
143
129
18
-81
-171
-60
-42
-17
15
14
150
129
17
-81
-188
-69
-24
-1
0
17
140
116
16
-83
-170
-60
-29
-15
10
31
157
122
22
-72
-170
-59
-43
-2
29
42
175
132
28
-70
-159
-36
-22
20
41
56
189
148
32
-86
-162
-31
-35
25
52
54
181
132
18
-139
-171
-45
-47
31
35
38
177
104
-34
-156
-137
-50
-37
43
24
26
169
92
-46
-168
-134
-51
-54
32
43
52
161
68
-50
-168
-129
-60
-54
28
20
55
162
75
-60
-175
-114
-49
-38
25
35
85
156
55
-65
-175
-104
-56
-35
37
47
135
224
130
56
-36
62
123
147
188
174
265
275
153
-11
-169
-91
-50
-33
6
11
109
133
35
-71
-172
-75
-30
-11
21
38
134
129
36
-70
-174
-74
-30
-15
26
41
152
137
20
-67
-180
-59
-27
6
33
43
166
130
39
-66
-180
-59
-24
-6
24
46
176
142
26
-66
-170
-48
-29
26
23
49
192
141
35
-62
-144
-16
-23
11
45
66
213
150
40
-51
-142
-13
-9
50
80
95
208
150
43
-85
-120
-3
1
86
88
93
235
179
53
-82
-108
17
19
103
110
108
244
172
45
-63
-47
37
33
120
104
127
261
195
43
-76
-41
38
49
117
137
133
252
152
29
-83
-32
42
49
100
101
125
214
114
-8
-110
-69
-5
-2
60
63
129
193
73
-48
-158
-76
-35
-13
38
41
103
155
39
-55
-166
-89
-48
-23
25
31
130
143
54
-79
-177
-86
-40
-12
32
27
128
144
47
-66
-168
-67
-26
-2
26
28
149
137
45
-61
-166
-58
-23
0
47
52
174
158
56
-56
-155
-32
11
30
56
65
185
163
60
-37
-133
-15
5
38
74
100
206
164
66
-42
-134
-2
23
61
64
99
213
168
52
-32
-142
-22
-14
25
43
62
195
139
16
-90
-165
-31
-31
27
40
52
189
131
9
-112
-136
-19
-21
59
61
70
203
129
-8
-123
-118
-25
-36
44
42
57
200
108
-5
-144
-119
-23
-24
68
64
76
192
114
-19
-137
-96
-20
-19
58
56
87
189
85
-37
-148
-69
16
59
131
162
229
331
249
127
11
91
138
144
180
149
164
190
72
-40
-150
-64
-1
8
60
75
161
197
94
-28
-148
-38
-3
6
50
60
166
177
64
-44
-141
-32
8
29
60
80
179
172
78
-30
-140
-40
5
18
49
68
174
160
76
-40
-134
-30
-6
29
64
67
166
146
62
-41
-123
-24
9
25
54
65
187
157
53
-51
-126
-25
-8
27
54
84
198
159
53
-40
-126
-12
5
36
63
81
217
172
58
-30
-125
2
11
58
85
91
219
181
68
-59
-119
17
10
83
96
95
239
180
69
-46
-79
31
20
109
106
114
258
169
49
-63
-50
40
33
125
113
112
247
168
34
-95
-74
5
13
94
94
107
226
123
-11
-132
-76
-2
2
71
58
95
191
107
-15
-140
-93
-34
-16
51
61
108
185
69
-44
-156
-73
-17
-13
39
51
124
179
66
-55
-163
-64
-20
-9
29
44
143
166
67
-58
-164
-61
-14
-12
30
43
152
159
51
-70
-164
-65
-12
3
40
51
148
141
47
-60
-162
-51
-13
10
45
56
163
154
52
-50
-153
-54
-10
15
46
64
182
153
46
-66
-159
-51
-26
6
41
52
167
143
42
-84
-184
-52
-27
-2
27
36
166
118
23
-77
-173
-49
-44
-17
18
41
167
113
-1
-95
-178
-53
-41
-1
34
39
173
118
9
-134
-177
-51
-50
18
33
40
167
105
-27
-146
-146
-39
-43
34
36
41
175
106
-29
-150
-128
-30
-14
97
125
155
308
250
133
19
46
141
132
185
157
165
229
90
-52
-170
-115
-44
-32
49
54
97
188
90
-38
-138
-70
-24
-16
40
45
115
183
78
-41
-160
-79
-32
-3
39
47
127
175
84
-57
-157
-67
-24
-5
35
52
146
165
54
-52
-153
-54
-15
6
46
66
153
167
58
-50
-153
-50
-5
11
46
56
171
157
58
-45
-132
-48
-2
26
45
56
178
156
70
-48
-151
-27
6
30
63
71
199
171
67
-34
-136
-21
18
46
75
89
226
185
70
-28
-112
8
27
69
90
97
248
189
98
-3
-114
22
37
87
110
120
251
198
93
-32
-90
42
28
85
106
114
255
179
51
-72
-92
17
10
67
69
84
223
140
7
-118
-111
-6
-13
64
65
70
191
112
-34
-140
-107
-23
-26
50
53
46
179
97
-41
-150
-111
-45
-20
50
47
66
183
84
-36
-154
-92
-39
-29
35
36
98
179
84
-45
-147
-90
-31
-19
35
43
107
174
62
-43
-160
-81
-34
-9
35
45
130
164
71
-52
-151
-60
-10
15
47
57
139
153
64
-49
-149
-50
5
10
48
70
161
158
56
-43
-146
-34
9
24
54
64
164
145
52
-42
-158
-54
-13
0
35
55
171
142
44
-70
-162
-49
-12
7
29
30
158
145
36
-78
-181
-54
-22
4
27
48
174
135
28
-83
-167
-52
-32
6
29
31
171
127
23
-77
-170
-39
-46
18
45
58
185
119
-8
-120
-158
-40
-47
26
43
53
185
113
-10
-124
-123
0
20
134
140
160
306
248
115
-24
-17
77
52
106
76
45
178
104
-10
-156
-113
-37
-31
57
62
82
189
106
-17
-137
-81
-10
-13
49
51
97
188
94
-31
-146
-72
-10
2
54
70
127
187
76
-35
-154
-69
1
8
52
62
133
183
83
-30
-138
-56
-7
2
52
68
153
179
78
-30
-141
-39
10
28
63
74
169
184
75
-27
-139
-34
15
25
62
72
180
178
67
-27
-131
-11
15
41
77
88
202
188
88
-22
-127
-7
32
56
92
105
223
188
92
-4
-99
16
47
71
101
116
246
210
108
9
-96
30
59
87
111
126
254
213
107
3
-89
31
40
85
110
123
253
196
74
-33
-112
8
3
82
98
93
203
155
43
-94
-125
-15
-12
64
70
72
204
138
18
-109
-117
-9
-19
55
60
66
200
129
-17
-134
-101
-18
-24
62
59
66
201
125
-6
-136
-99
-17
-12
62
59
90
201
115
-12
-142
-88
-23
-2
61
61
107
195
95
-22
-142
-66
-12
3
62
68
129
198
97
-19
-132
-47
3
16
64
74
152
195
94
-17
-129
-37
10
31
77
88
174
194
88
-21
-128
-31
17
36
74
87
180
181
81
-33
-136
-30
9
28
65
79
184
169
64
-41
-144
-37
0
20
53
65
179
158
56
-48
-150
-30
0
32
48
61
183
150
46
-56
-149
-27
4
20
42
68
197
151
35
-55
-157
-37
-11
27
47
58
193
150
45
-44
-156
-24
-8
38
55
64
199
161
42
-64
-112
28
55
134
165
179
317
250
111
-18
-29
62
47
98
72
67
204
138
-3
-121
-117
-16
-20
72
78
90
200
128
3
-119
-97
-15
-13
66
74
81
210
118
-8
-128
-77
-4
3
74
76
105
207
115
-20
-133
-62
3
13
69
82
131
201
106
-7
-121
-49
0
16
65
81
147
204
103
-9
-122
-41
3
23
76
84
163
198
103
-18
-130
-25
8
34
74
85
191
203
102
-10
-126
-22
27
48
80
101
203
202
106
-6
-105
1
42
63
96
111
224
215
113
5
-92
14
53
80
115
123
247
224
118
18
-82
35
69
84
113
127
252
209
111
16
-89
34
56
81
103
117
244
199
95
-23
-119
7
19
56
79
86
219
176
68
-32
-137
-19
-10
41
70
72
203
139
27
-87
-137
-17
-15
50
61
70
204
135
11
-109
-130
-16
-24
56
61
64
200
130
7
-119
-107
-15
-27
62
65
65
194
119
-9
-129
-99
-17
-12
61
60
86
197
111
-17
-132
-83
-12
1
65
79
102
198
108
-14
-126
-61
-12
0
64
79
136
204
100
-18
-128
-43
4
22
74
74
145
201
105
-19
-121
-38
14
24
76
77
164
189
87
-28
-142
-46
0
19
61
67
160
174
71
-44
-148
-48
-6
17
53
64
162
161
67
-41
-152
-43
-2
17
48
58
171
157
58
-54
-156
-35
-5
18
53
68
174
144
44
-58
-152
-31
-4
10
55
56
189
147
40
-61
-147
-34
0
32
52
65
199
156
61
-29
-112
31
66
121
145
170
303
246
118
28
-58
51
49
72
76
64
199
140
23
-107
-143
-16
-15
60
65
71
210
144
21
-111
-117
-11
-17
63
69
72
202
136
5
-117
-100
-9
-21
75
67
80
213
133
-1
-119
-92
-11
-13
70
74
101
214
120
-8
-124
-65
-3
2
71
78
121
213
113
-8
-119
-48
5
15
78
85
142
207
109
-8
-116
-48
4
27
84
81
162
209
111
-5
-111
-22
18
34
81
96
191
212
112
-2
-101
-10
29
51
102
109
206
217
116
8
-95
12
53
77
118
128
228
224
117
17
-85
18
64
78
115
124
237
215
121
19
-79
20
55
78
104
115
237
197
89
-18
-112
-3
27
58
86
93
206
163
61
-33
-134
-19
-7
29
55
71
202
154
51
-53
-153
-28
-13
33
48
71
198
146
36
-82
-148
-23
-18
43
51
59
201
154
8
-112
-138
-22
-29
55
59
66
204
130
1
-116
-122
-16
-23
59
64
69
202
123
-17
-129
-103
-20
-25
58
64
81
204
120
-18
-142
-90
-11
-4
62
65
98
211
104
-17
-136
-67
3
8
66
74
123
203
104
-18
-135
-56
2
27
69
78
149
204
100
-12
-126
-37
8
16
58
67
153
191
86
-38
-130
-49
4
13
58
66
161
172
69
-39
-143
-53
-15
6
51
54
158
158
61
-46
-147
-45
0
8
48
56
166
141
47
-61
-154
-30
-9
7
41
54
170
147
50
-53
-149
-34
-12
10
45
56
188
144
46
-54
-154
-36
2
26
50
74
212
173
81
1
-84
52
76
119
135
139
269
217
104
8
-91
-1
-19
33
58
59
181
136
25
-92
-143
-20
-24
46
61
72
204
132
12
-116
-125
-26
-34
52
66
64
202
132
12
-116
-108
-21
-28
59
63
70
195
120
-9
-128
-95
-11
-9
69
59
89
205
116
-12
-127
-76
-12
-1
64
76
115
205
104
-17
-130
-65
-3
12
78
81
137
204
95
-23
-139
-49
1
20
72
77
159
205
102
-18
-129
-36
14
39
84
91
174
210
100
-7
-116
-19
34
50
88
102
200
209
106
-4
-106
0
42
63
102
113
216
210
117
8
-93
21
55
59
97
115
229
214
109
5
-99
9
42
57
88
99
224
192
88
-27
-131
-22
17
40
66
76
199
161
53
-56
-151
-29
-3
35
50
70
206
153
33
-62
-160
-36
-22
16
39
57
196
140
21
-83
-153
-30
-29
34
57
60
196
127
-4
-116
-149
-31
-30
42
52
55
192
122
-2
-125
-127
-19
-30
49
55
50
192
127
-18
-137
-116
-25
-25
55
51
58
189
116
-19
-144
-105
-26
-26
48
53
86
195
99
-32
-147
-88
-18
-5
42
54
101
187
87
-40
-153
-74
6
-7
31
48
117
184
81
-35
-141
-66
-17
0
47
57
139
181
77
-27
-143
-46
-16
10
62
72
162
178
78
-32
-145
-39
4
15
57
72
168
169
57
-48
-153
-42
-9
13
52
63
170
161
42
-56
-154
-59
-23
-6
33
51
163
146
45
-62
-168
-48
-12
15
39
55
170
138
37
-70
-170
-50
-16
8
37
50
178
141
32
-74
-165
-43
-23
14
36
51
187
134
25
-63
-166
-43
-39
17
48
62
197
140
20
-94
-133
-8
1
95
119
133
276
226
91
-28
-63
47
45
108
109
79
199
122
-9
-139
-129
-29
-31
53
56
62
194
121
-12
-144
-109
-20
-12
61
51
74
195
106
-22
-140
-85
-12
-6
58
55
87
190
93
-28
-144
-76
-22
-13
56
75
119
190
92
-26
-140
-71
-12
8
60
70
143
190
78
-36
-146
-52
-5
8
55
69
158
182
83
-38
-142
-35
13
23
62
74
172
168
76
-34
-136
-34
14
32
66
79
187
184
85
-17
-130
-20
23
35
71
91
202
191
86
-21
-119
0
39
60
92
101
222
188
92
-11
-109
15
51
72
97
108
240
195
89
-7
-99
17
40
68
100
107
235
189
83
-19
-121
6
7
52
72
88
219
169
48
-51
-137
-13
-26
47
58
52
194
143
21
-106
-149
-31
-33
40
51
53
184
115
-9
-130
-132
-28
-33
52
49
57
186
117
-20
-142
-123
-31
-32
51
47
59
180
106
-28
-147
-102
-33
-29
53
51
75
187
88
-36
-148
-98
-25
-14
49
53
103
180
74
-37
-157
-83
-24
-10
45
50
115
179
77
-40
-154
-76
-22
-2
42
43
132
177
68
-50
-162
-69
-22
-3
41
48
142
161
61
-52
-159
-68
-21
-2
32
50
150
156
52
-61
-161
-57
-15
0
41
53
160
137
49
-68
-165
-51
-11
5
40
50
172
132
36
-57
-177
-55
-18
4
36
50
173
135
39
-64
-159
-42
-14
15
42
56
184
145
35
-59
-156
-28
-10
28
44
58
190
146
33
-64
-155
-31
-23
27
50
57
194
138
14
-117
-167
-41
-42
27
43
46
179
117
-8
-129
-161
-47
-43
37
32
42
171
100
-22
-143
-138
-41
-43
50
52
37
177
104
-34
-157
-126
-40
-38
45
52
69
178
82
-45
-165
-113
-35
-35
37
43
81
172
75
-43
-155
-85
-23
-14
36
49
122
204
113
2
-91
-8
63
92
145
149
208
251
140
0
-115
-56
-35
-26
27
33
117
148
56
-53
-162
-62
-18
2
45
51
151
169
59
-54
-162
-59
-18
4
42
55
152
146
52
-56
-158
-46
-13
9
43
56
167
151
52
-65
-164
-43
-10
5
41
57
179
150
46
-59
-158
-43
8
12
45
55
186
149
43
-54
-151
-25
3
25
57
55
188
144
42
-54
-146
-19
-10
26
52
66
202
153
41
-53
-144
-16
-11
54
76
84
214
153
35
-89
-127
-11
-5
78
93
99
220
161
28
-101
-88
12
11
88
93
101
237
168
33
-89
-70
18
6
96
106
119
247
156
27
-102
-63
22
26
90
87
121
235
134
4
-135
-72
-4
3
60
70
114
207
101
-29
-147
-74
-22
-7
49
43
108
184
85
-54
-172
-93
-36
-13
36
44
124
169
62
-54
-167
-75
-32
-18
32
45
138
156
57
-61
-172
-72
-26
-7
34
46
149
151
48
-65
-176
-61
-19
0
15
43
149
140
40
-67
-172
-63
-31
-12
31
42
160
144
45
-70
-178
-69
-24
0
30
45
172
139
37
-73
-176
-52
-20
-5
25
50
180
125
20
-78
-181
-53
-31
4
31
46
179
127
20
-77
-181
-52
-43
10
39
43
188
134
1
-118
-173
-47
-48
24
46
49
177
121
-25
-148
-165
-52
-54
26
36
43
181
115
-17
-150
-152
-46
-49
37
37
39
177
101
-31
-154
-127
-47
-48
33
38
57
173
96
-45
-165
-123
-39
-36
38
47
87
183
82
-44
-165
-102
-39
-25
36
45
110
187
83
-35
-153
-78
-35
-22
43
52
128
187
82
-38
-160
-76
-23
-18
36
46
133
163
62
-58
-178
-85
-41
-25
20
46
138
144
42
-70
-177
-82
-37
-18
23
31
141
140
39
-68
-182
-76
-28
-11
15
32
152
133
28
-80
-185
-68
-28
-11
17
35
150
124
25
-83
-181
-65
-31
-2
33
45
165
128
36
-66
-154
-24
15
63
107
132
276
235
125
10
-112
17
25
52
63
29
154
111
2
-100
-200
-64
-57
10
34
41
181
120
2
-129
-166
-45
-44
28
42
50
189
115
-17
-144
-145
-38
-43
40
39
42
179
104
-26
-142
-120
-23
-26
49
49
47
186
100
-32
-151
-113
-29
-27
50
48
75
185
101
-28
-146
-95
-22
-16
48
52
111
185
88
-33
-146
-84
-26
-13
52
62
134
187
86
-24
-144
-60
-13
3
55
69
147
194
89
-24
-141
-56
-8
18
67
75
172
192
86
-25
-126
-25
23
34
79
87
186
194
95
-16
-119
-15
30
45
79
93
205
198
93
-23
-117
-8
27
48
81
94
209
187
82
-28
-135
-25
15
34
63
69
191
157
51
-55
-154
-34
-5
22
39
49
173
144
33
-82
-168
-48
-32
0
26
38
171
131
15
-82
-178
-50
-53
-5
22
39
173
121
5
-113
-175
-51
-57
7
25
38
175
112
-15
-145
-166
-50
-47
34
36
34
175
103
-30
-149
-149
-50
-49
32
35
25
172
102
-36
-157
-133
-40
-40
38
40
51
182
94
-46
-161
-118
-40
-34
39
24
64
169
81
-49
-169
-108
-39
-32
31
39
95
167
67
-55
-174
-100
-42
-28
26
36
106
166
59
-64
-168
-89
-43
-26
21
38
125
163
54
-71
-192
-90
-33
-13
19
28
128
141
36
-73
-181
-79
-37
-24
20
32
137
136
28
-81
-180
-73
-32
-16
18
33
147
133
30
-75
-187
-70
-27
-17
15
34
143
124
29
-80
-176
-63
-28
2
21
32
159
123
30
-73
-179
-63
-25
7
35
49
178
134
31
-64
-178
-40
-25
19
24
33
174
120
12
-84
-181
-59
-52
9
27
38
171
106
-10
-139
-183
-55
-62
7
29
33
170
103
-29
-153
-161
-60
-65
18
26
32
155
80
-41
-161
-141
-47
-58
20
14
27
168
89
-49
-171
-139
-51
-50
26
29
51
174
85
-45
-162
-107
-31
-27
57
81
138
254
163
52
-60
-11
41
27
97
99
140
181
41
-83
-197
-110
-59
-43
6
30
110
163
56
-65
-170
-79
-31
-17
27
36
127
148
52
-61
-174
-81
-34
-17
28
40
140
151
47
-66
-167
-71
-29
-9
29
43
149
144
42
-68
-171
-59
-22
1
39
65
161
139
35
-72
-172
-47
-24
1
33
45
163
147
38
-61
-164
-43
-9
13
35
54
181
144
30
-64
-155
-33
-9
20
47
69
192
155
43
-56
-156
-28
-18
32
58
75
205
149
41
-65
-138
-13
-8
59
73
80
218
157
40
-94
-119
-3
-2
78
78
88
225
156
37
-86
-95
2
-5
83
80
87
225
149
18
-110
-83
-13
-16
73
78
84
198
115
-17
-137
-97
-22
-20
55
49
74
179
90
-36
-163
-102
-43
-32
28
37
84
166
67
-53
-180
-108
-48
-32
25
33
97
156
47
-66
-175
-96
-34
-25
14
25
115
147
39
-72
-179
-89
-37
-28
14
37
137
139
33
-78
-185
-82
-37
-20
16
33
130
137
34
-77
-178
-72
-32
-19
18
24
140
133
34
-72
-182
-72
-32
-11
25
37
148
122
22
-85
-183
-59
-31
-17
20
34
153
118
16
-84
-177
-66
-40
-12
15
30
164
119
15
-85
-180
-57
-42
-10
11
25
154
111
7
-87
-187
-62
-58
-3
24
31
169
111
-12
-137
-189
-63
-62
14
25
27
159
96
-27
-149
-157
-58
-57
26
30
31
163
97
-32
-154
-142
-61
-59
36
39
46
175
105
-39
-159
-126
-38
-35
43
46
64
180
87
-40
-168
-113
-32
-36
32
36
68
161
62
-57
-177
-112
-55
-48
15
22
83
159
55
-68
-184
-103
-54
-46
8
25
99
146
49
-76
-183
-101
-51
-37
14
20
111
131
37
-73
-187
-94
-48
-32
15
29
124
134
33
-76
-173
-66
-33
-15
28
45
153
164
85
-6
-98
26
75
99
113
108
214
197
78
-52
-193
-89
-59
-38
-10
9
132
110
26
-76
-186
-73
-28
-3
24
35
159
118
11
-86
-183
-62
-35
-8
22
35
155
121
19
-80
-175
-56
-45
-5
21
40
175
122
4
-92
-178
-51
-48
12
37
46
180
123
1
-132
-167
-45
-42
27
38
44
184
118
-7
-136
-149
-43
-44
46
50
55
185
111
-16
-137
-125
-36
-33
52
51
61
191
111
-17
-135
-90
-16
-16
60
59
82
196
106
-14
-133
-69
-8
-1
68
74
118
205
110
-12
-123
-57
6
20
74
87
149
215
107
-6
-120
-44
12
30
75
83
162
209
101
-12
-123
-34
6
22
66
73
162
183
81
-39
-150
-58
-12
3
41
51
150
156
48
-69
-172
-66
-28
-13
27
35
140
131
26
-85
-183
-72
-34
-18
14
25
143
120
24
-86
-187
-75
-43
-19
19
26
143
112
11
-93
-189
-71
-40
-14
12
26
155
114
9
-99
-188
-61
-39
-9
8
23
158
115
8
-90
-184
-65
-55
-8
17
32
164
115
-4
-121
-183
-56
-54
7
28
26
162
101
-15
-149
-172
-54
-60
17
26
22
166
91
-36
-160
-154
-56
-62
19
24
33
168
101
-54
-171
-144
-57
-61
22
20
33
159
74
-54
-175
-127
-48
-47
29
32
59
158
71
-59
-177
-110
-48
-36
27
45
93
173
72
-53
-167
-96
-37
-25
32
36
109
165
53
-61
-172
-89
-41
-26
21
30
107
140
37
-80
-189
-94
-46
-30
10
26
119
130
31
-85
-196
-100
-50
-34
7
21
118
121
22
-92
-194
-82
-52
-36
4
23
126
113
14
-93
-194
-85
-51
-26
8
22
142
113
12
-91
-184
-64
-30
-12
14
39
176
156
76
-3
-84
59
92
117
125
112
245
185
58
-89
-216
-94
-88
-40
-10
1
139
99
2
-83
-180
-58
-47
-1
22
31
163
106
-8
-139
-185
-53
-55
13
26
27
171
104
-22
-149
-160
-51
-52
28
32
34
174
98
-25
-146
-137
-51
-58
23
33
36
170
93
-32
-156
-127
-42
-38
38
43
59
175
81
-44
-161
-112
-35
-25
41
42
86
180
85
-37
-149
-82
-25
-18
41
53
115
188
79
-39
-153
-73
-17
0
51
63
134
188
85
-32
-144
-55
-2
18
66
77
169
172
76
-20
-118
-30
17
23
67
73
179
194
96
-21
-132
-24
20
38
78
90
189
181
83
-27
-134
-28
13
32
60
72
182
162
59
-51
-158
-40
-9
8
34
42
161
126
25
-81
-179
-64
-26
-13
6
26
160
122
16
-89
-189
-70
-48
-17
4
19
152
107
3
-97
-193
-60
-55
-12
2
21
148
99
-3
-117
-190
-75
-69
-6
16
21
162
103
-22
-147
-181
-59
-66
7
19
26
162
90
-36
-160
-157
-48
-55
24
20
25
160
84
-50
-170
-151
-62
-59
27
26
35
159
79
-47
-163
-129
-59
-52
22
25
54
162
72
-52
-174
-118
-54
-47
19
33
82
159
62
-56
-172
-104
-46
-29
29
32
100
171
62
-56
-173
-84
-31
-27
23
31
114
157
47
-72
-175
-89
-47
-32
17
20
112
130
29
-87
-191
-98
-55
-39
-5
14
119
121
22
-91
-192
-90
-53
-31
7
17
116
107
7
-95
-195
-86
-51
-36
2
16
133
112
6
-111
-206
-84
-48
-28
-2
13
139
106
10
-91
-183
-69
-46
-21
10
28
167
137
59
-30
-96
46
74
106
133
119
238
193
59
-68
-201
-90
-84
-43
-22
1
144
92
-14
-141
-190
-62
-61
11
26
27
162
100
-27
-151
-167
-57
-62
17
24
30
161
95
-32
-159
-154
-51
-52
32
28
34
158
84
-57
-166
-130
-48
-49
26
28
46
171
77
-45
-170
-117
-45
-37
32
35
73
168
76
-46
-164
-97
-36
-28
35
46
99
173
62
-52
-163
-87
-29
-7
36
48
116
169
69
-42
-157
-68
-20
-1
46
56
139
169
73
-38
-147
-48
-5
19
68
69
163
176
79
-31
-135
-34
4
25
65
81
183
184
91
-26
-125
-26
6
31
67
84
196
172
76
-36
-141
-29
10
24
58
66
183
157
52
-59
-165
-45
-16
3
26
41
169
129
30
-79
-187
-65
-40
-18
6
23
156
115
0
-96
-201
-71
-58
-20
3
16
152
105
-10
-104
-194
-69
-69
-15
14
26
158
97
-28
-157
-192
-62
-65
4
19
26
157
90
-38
-153
-170
-64
-72
12
18
22
157
87
-47
-164
-145
-57
-67
19
16
34
148
79
-46
-174
-138
-51
-52
23
27
54
165
75
-46
-174
-120
-51
-45
25
38
81
169
56
-57
-169
-99
-41
-35
28
41
105
170
60
-56
-168
-93
-47
-28
9
31
104
149
39
-80
-190
-100
-51
-34
5
19
102
125
25
-86
-199
-100
-56
-35
10
17
117
119
16
-89
-195
-94
-62
-41
-3
13
127
114
9
-101
-200
-89
-53
-28
9
20
127
103
-1
-101
-207
-87
-50
-28
-1
16
150
119
13
-99
-200
-60
-38
3
50
90
237
208
117
25
-86
9
24
57
65
63
160
90
-23
-127
-222
-93
-80
-26
5
24
158
106
-10
-120
-189
-59
-57
8
19
22
156
100
-28
-146
-169
-54
-60
14
23
18
156
81
-39
-152
-154
-55
-57
24
33
34
165
88
-38
-159
-137
-48
-55
25
32
48
173
86
-46
-174
-123
-41
-38
31
33
66
166
79
-43
-163
-102
-39
-27
25
43
95
171
75
-46
-159
-84
-26
-20
42
57
117
178
77
-38
-154
-73
-15
-6
45
60
149
182
69
-38
-142
-46
-6
18
61
78
178
180
85
-25
-142
-42
6
34
70
74
184
181
78
-31
-133
-30
11
32
60
72
181
168
68
-47
-151
-40
-5
14
39
55
169
139
38
-70
-177
-71
-31
-9
19
40
149
119
11
-94
-189
-70
-49
-14
7
22
155
116
-6
-114
-201
-78
-61
-24
4
12
150
106
-3
-104
-195
-71
-67
-15
4
18
153
101
-28
-156
-195
-71
-70
6
20
17
160
95
-30
-165
-187
-69
-67
18
9
16
161
94
-39
-160
-149
-52
-54
27
23
20
161
92
-39
-171
-143
-57
-48
31
31
51
175
75
-40
-172
-116
-47
-43
33
35
80
169
78
-45
-171
-113
-46
-40
20
25
80
157
59
-73
-193
-114
-61
-42
7
7
88
138
38
-79
-198
-113
-60
-49
4
26
105
127
25
-88
-201
-101
-62
-47
0
10
114
119
15
-95
-200
-92
-53
-50
-5
8
122
116
18
-98
-202
-97
-55
-37
10
26
140
122
10
-104
-206
-80
-33
12
55
88
228
215
123
12
-105
-9
29
54
54
54
139
88
-11
-117
-208
-89
-65
-26
14
18
144
103
5
-94
-191
-67
-57
-13
13
25
156
107
-1
-117
-192
-60
-55
3
14
18
165
101
-26
-147
-177
-60
-64
19
25
26
162
95
-33
-157
-157
-53
-54
30
34
32
169
95
-43
-167
-142
-47
-46
35
34
42
172
87
-44
-159
-114
-31
-47
30
37
68
177
82
-45
-157
-99
-34
-24
41
49
99
173
74
-35
-150
-77
-12
-1
44
55
131
197
86
-32
-144
-63
-4
12
61
67
145
202
89
-24
-140
-40
12
21
61
74
172
189
81
-26
-132
-31
9
26
62
79
165
174
69
-46
-146
-39
-15
-5
23
46
162
145
40
-61
-170
-58
-35
-25
18
26
145
125
28
-90
-205
-89
-43
-18
19
22
139
104
5
-96
-198
-86
-48
-17
16
23
149
97
-8
-100
-196
-77
-61
-17
-4
13
148
108
-3
-99
-191
-67
-74
-18
7
23
157
107
-9
-131
-198
-70
-62
15
12
18
169
99
-36
-163
-180
-63
-62
21
22
28
165
94
-34
-158
-150
-59
-52
32
24
28
173
98
-30
-162
-135
-50
-51
35
36
56
177
89
-47
-165
-118
-37
-37
25
16
61
157
60
-66
-187
-121
-60
-48
15
15
70
145
46
-79
-196
-121
-64
-47
8
18
93
146
29
-89
-198
-111
-59
-41
0
15
102
128
27
-91
-204
-111
-55
-41
7
24
121
127
15
-101
-204
-102
-59
-42
0
19
122
116
24
-91
-200
-91
-41
-18
33
64
195
202
117
24
-72
26
28
40
80
76
187
139
7
-104
-205
-95
-62
-41
-1
24
154
116
16
-100
-195
-67
-40
-18
7
24
159
115
9
-88
-196
-78
-60
-15
12
22
164
117
-5
-103
-196
-69
-59
3
20
28
169
108
-16
-137
-182
-65
-59
21
28
29
159
99
-27
-154
-162
-54
-57
28
25
34
170
104
-36
-146
-129
-39
-51
31
37
41
172
91
-35
-154
-109
-34
-41
45
45
60
179
90
-32
-148
-95
-26
-20
50
60
107
196
99
-20
-143
-81
-14
-4
55
65
135
203
96
-24
-133
-53
1
20
67
76
160
201
94
-22
-128
-48
-4
15
62
75
168
184
82
-37
-150
-48
-17
5
47
46
146
146
51
-66
-175
-77
-39
-19
23
37
134
124
22
-91
-197
-83
-48
-29
2
23
138
114
13
-94
-201
-86
-43
-28
7
7
136
102
-4
-107
-197
-85
-50
-27
7
23
153
98
-13
-110
-199
-76
-56
-23
3
19
152
97
-7
-102
-195
-72
-65
-16
11
19
144
98
-17
-130
-195
-67
-62
4
17
28
159
86
-29
-155
-184
-72
-64
17
23
24
168
94
-32
-158
-162
-55
-62
21
21
27
161
92
-27
-163
-138
-49
-47
34
35
47
164
83
-50
-166
-124
-51
-45
17
21
52
148
52
-69
-187
-121
-66
-55
11
12
63
142
38
-83
-191
-122
-66
-47
10
12
80
138
24
-88
-203
-119
-56
-39
-5
3
88
125
22
-92
-201
-106
-59
-45
-1
14
105
122
19
-93
-198
-100
-63
-40
2
15
113
111
17
-92
-196
-90
-51
-35
12
41
167
176
98
0
-85
36
74
76
90
107
216
168
46
-91
-200
-86
-56
-35
-12
5
137
105
10
-97
-189
-72
-45
-16
9
18
153
108
5
-101
-195
-68
-55
-16
16
26
149
103
-3
-95
-198
-65
-50
3
13
23
151
106
-12
-143
-187
-55
-62
8
25
26
164
100
-32
-153
-164
-51
-55
17
28
37
166
91
-35
-157
-139
-39
-45
33
32
35
171
98
-31
-149
-120
-41
-40
36
45
65
181
94
-42
-152
-97
-33
-24
48
49
94
190
95
-31
-143
-71
-12
-4
56
52
123
202
98
-21
-131
-51
0
22
65
74
156
197
94
-24
-139
-41
2
21
62
76
167
195
96
-33
-147
-54
-16
9
43
54
149
154
52
-64
-169
-65
-28
-10
18
31
132
133
31
-94
-190
-83
-46
-25
4
20
137
103
4
-97
-190
-82
-58
-29
2
11
129
106
2
-97
-206
-87
-47
-19
9
10
142
99
-10
-119
-202
-75
-53
-24
1
18
144
107
2
-106
-208
-77
-69
-16
3
17
147
97
-15
-122
-191
-67
-72
-6
9
17
154
89
-31
-162
-189
-60
-77
6
16
21
152
80
-48
-168
-162
-58
-69
11
12
15
158
81
-60
-176
-149
-55
-54
25
16
35
157
70
-50
-185
-130
-53
-45
16
16
55
158
66
-54
-172
-115
-51
-36
27
32
77
164
56
-72
-190
-102
-51
-36
19
24
90
148
41
-81
-193
-114
-59
-52
-6
9
94
133
23
-89
-205
-109
-63
-44
3
3
105
117
16
-94
-202
-100
-56
-37
4
14
115
118
4
-103
-203
-100
-62
-33
-1
9
123
108
6
-106
-203
-92
-53
-32
4
13
139
108
11
-98
-193
-81
-46
-33
-2
23
157
132
50
-28
-92
44
74
103
134
142
251
211
90
-36
-150
-64
-67
-31
1
10
149
102
-7
-98
-188
-55
-47
6
14
26
164
108
-9
-147
-190
-62
-53
29
23
32
166
101
-19
-146
-165
-52
-62
25
27
36
166
88
-28
-158
-140
-44
-54
30
35
47
178
92
-32
-159
-126
-38
-34
40
40
66
183
86
-34
-154
-104
-35
-20
36
49
98
191
83
-28
-144
-72
-24
-11
47
62
134
204
93
-26
-142
-56
-3
19
75
83
164
208
107
-8
-130
-27
29
42
87
103
198
222
136
21
-94
3
58
79
120
136
247
247
153
34
-60
56
91
100
134
164
258
255
157
38
-64
53
93
104
130
141
263
236
130
25
-75
39
54
91
112
121
243
206
101
-3
-103
25
56
78
107
114
239
199
97
3
-96
36
43
78
108
125
254
202
98
19
-88
31
43
91
109
115
257
211
94
-22
-88
42
45
111
128
134
271
211
88
-47
-71
48
47
131
141
139
272
206
81
-45
-47
55
61
146
155
147
280
205
76
-48
-14
73
73
148
147
169
298
204
71
-44
7
83
86
154
161
190
291
193
78
-40
22
89
98
154
160
207
298
197
74
-45
35
89
99
162
167
239
288
194
78
-36
44
97
112
162
170
248
291
187
70
-33
60
104
128
167
178
276
298
193
72
-24
85
117
141
180
194
298
291
199
86
-10
102
141
163
203
211
315
308
204
95
-5
107
137
164
198
207
313
300
201
95
-6
114
146
159
194
209
337
302
195
97
-2
116
141
168
201
211
341
299
188
94
-2
124
136
173
202
215
352
301
191
108
8
135
135
187
209
218
359
308
186
63
29
144
129
203
220
225
364
296
171
56
48
150
141
232
237
242
374
304
181
54
86
200
215
338
343
356
507
438
296
153
187
282
263
307
274
261
361
275
157
41
84
163
181
249
254
303
394
304
181
50
122
177
197
263
268
324
394
284
170
60
138
194
214
260
264
347
391
282
177
67
154
198
220
250
280
376
391
288
174
68
168
210
229
258
272
378
393
294
184
85
187
225
241
276
292
404
396
288
187
88
196
239
260
290
307
419
397
296
193
96
208
234
267
310
312
439
408
304
201
106
224
258
287
311
323
462
421
315
218
118
247
274
312
332
346
479
436
327
233
140
281
280
324
345
359
482
444
328
216
148
276
278
345
356
362
489
433
299
177
153
257
247
331
338
339
471
402
269
141
135
240
235
318
316
319
449
382
240
123
142
232
228
302
306
317
432
347
223
100
137
228
222
294
295
324
434
331
216
96
142
220
233
295
284
345
424
330
210
97
163
228
239
291
305
371
432
325
212
82
185
234
246
291
296
385
411
315
208
92
188
236
251
291
295
395
411
320
202
88
197
235
247
299
308
413
411
302
196
89
201
240
265
299
310
424
403
303
195
92
211
241
269
304
310
428
390
293
187
103
211
245
269
293
312
436
405
301
187
102
216
251
279
300
310
438
402
296
203
107
223
247
281
305
310
447
400
292
196
113
228
219
281
310
315
440
391
271
150
107
228
220
303
315
324
458
387
268
146
136
244
241
324
334
330
468
398
268
132
157
256
260
337
335
339
473
393
271
148
194
258
260
339
341
368
475
381
253
139
191
263
268
331
348
379
464
360
245
135
204
255
259
325
333
392
461
362
250
124
202
258
282
329
342
412
456
354
234
130
221
274
284
330
338
432
457
350
238
123
219
273
276
297
308
376
376
262
149
42
142
179
203
223
230
342
327
228
117
13
117
163
190
229
249
395
396
307
195
103
223
246
252
282
284
389
335
191
62
-42
70
96
125
156
170
300
258
154
56
-35
84
106
138
158
164
289
243
138
43
-50
77
79
113
132
153
292
236
111
-14
-59
68
72
136
143
140
290
209
82
-51
-57
56
55
136
142
139
269
195
75
-52
-45
48
48
136
136
124
265
193
55
-56
-41
41
52
129
127
139
262
171
51
-74
-23
53
50
122
122
154
257
164
44
-78
-10
51
64
126
134
188
264
161
29
-69
7
65
69
127
141
213
270
164
43
-67
21
72
73
126
147
223
257
160
37
-62
37
83
100
131
138
234
235
138
30
-76
15
62
75
107
118
208
214
102
-10
-117
-7
29
51
76
84
192
177
63
-46
-145
-33
5
20
53
61
172
149
45
-63
-151
-39
-11
17
34
46
170
128
25
-73
-168
-50
-21
18
36
47
175
124
24
-79
-175
-46
-34
7
34
48
178
130
15
-98
-173
-56
-54
-1
32
39
173
113
-10
-132
-169
-54
-54
30
30
27
159
101
-25
-150
-153
-30
-58
17
32
26
164
87
-45
-167
-143
-48
-46
42
23
27
164
82
-55
-180
-134
-58
-49
20
17
50
165
75
-63
-180
-133
-64
-38
22
29
86
165
35
-83
-186
-115
-64
-53
8
12
89
144
39
-87
-194
-106
-58
-37
11
10
89
128
30
-77
-188
-108
-57
-42
-2
12
113
110
13
-97
-205
-100
-55
-55
-7
9
114
113
10
-102
-202
-95
-64
-59
-15
13
125
113
-7
-108
-207
-96
-58
-43
-10
4
122
95
-7
-112
-213
-97
-61
-55
-14
2
127
89
-10
-111
-209
-93
-69
-39
-1
7
131
82
-8
-110
-221
-88
-64
-26
6
19
152
92
-16
-110
-212
-85
-79
-23
8
21
157
89
-31
-146
-217
-98
-90
-21
-8
-1
140
69
-60
-181
-203
-98
-98
-20
-11
-3
139
67
-67
-204
-190
-101
-102
-20
-15
-20
122
54
-80
-202
-182
-103
-91
-24
-20
11
112
32
-93
-209
-161
-94
-89
-16
-11
27
122
13
-97
-213
-164
-98
-78
-26
-15
46
129
11
-99
-223
-159
-84
-59
5
31
123
191
117
11
-82
7
43
24
76
103
169
175
36
-108
-232
-138
-94
-77
-29
-18
93
110
-6
-112
-217
-121
-73
-58
-21
3
101
106
-3
-119
-227
-113
-75
-53
-22
-11
103
92
-4
-103
-210
-110
-71
-75
-25
-4
112
83
-14
-121
-215
-98
-64
-40
-11
2
125
85
-19
-114
-217
-102
-61
-45
-11
2
135
98
-14
-125
-224
-90
-72
-31
-16
-1
133
86
-8
-119
-219
-83
-73
-16
15
20
160
106
-38
-167
-200
-68
-73
6
17
30
154
100
-23
-152
-159
-38
-51
23
30
34
185
97
-30
-151
-123
-41
-48
48
48
54
184
103
-18
-143
-107
-33
-29
46
50
79
190
95
-37
-161
-107
-34
-29
32
32
81
166
54
-64
-177
-115
-64
-63
10
13
68
142
36
-90
-206
-133
-89
-71
-28
-19
62
114
9
-99
-218
-138
-82
-71
-39
-20
76
94
-16
-125
-231
-127
-88
-91
-36
-21
88
92
-7
-123
-231
-127
-93
-72
-26
-14
102
89
-15
-132
-238
-127
-83
-68
-36
-14
102
73
-28
-127
-242
-122
-79
-61
-32
-27
96
79
-24
-133
-249
-117
-82
-55
-30
-6
119
81
-25
-135
-250
-120
-88
-52
-35
-18
124
75
-36
-137
-238
-109
-101
-44
-39
-19
132
73
-50
-174
-224
-103
-103
-47
-28
-8
132
71
-63
-191
-221
-107
-113
-34
-18
-32
127
52
-70
-212
-210
-111
-115
-27
-22
-13
133
44
-90
-220
-198
-102
-92
-17
-19
-4
127
25
-107
-224
-178
-105
-88
-22
-13
24
112
27
-99
-224
-159
-95
-77
-16
-7
37
119
18
-95
-215
-148
-84
-62
-15
-14
68
123
14
-109
-221
-138
-80
-71
-13
-7
74
111
-11
-126
-234
-143
-98
-90
-42
-24
79
96
-14
-130
-238
-136
-88
-77
-38
-20
80
80
-15
-126
-242
-154
-107
-68
-32
-23
77
70
-35
-141
-240
-119
-88
-70
-43
-30
97
70
-31
-145
-246
-124
-91
-78
-45
-23
115
79
-31
-145
-248
-119
-81
-46
-11
24
189
168
87
-1
-102
17
10
36
61
58
174
91
-51
-163
-267
-141
-130
-59
-32
-30
117
67
-58
-182
-225
-91
-104
-22
-22
-6
149
61
-77
-201
-211
-92
-103
-28
-28
-17
136
60
-76
-199
-184
-89
-105
-24
-17
-10
132
53
-78
-201
-162
-92
-90
-9
-7
21
142
46
-83
-211
-168
-84
-83
-6
-1
44
135
44
-85
-201
-145
-84
-66
-3
-7
48
137
40
-71
-201
-122
-61
-50
-9
16
88
142
31
-86
-194
-111
-52
-32
18
25
113
150
41
-75
-175
-77
-35
-36
25
33
138
156
55
-63
-166
-58
-17
1
38
52
171
160
59
-51
-179
-62
-5
18
39
53
175
147
46
-63
-171
-63
-33
-9
18
31
154
122
20
-92
-200
-106
-69
-42
-12
1
143
91
-13
-136
-244
-103
-81
-61
-32
-10
127
73
-43
-146
-237
-104
-104
-59
-35
-15
117
58
-50
-161
-238
-112
-110
-50
-25
-19
123
56
-76
-198
-231
-114
-112
-30
-31
-24
113
36
-78
-202
-216
-109
-126
-43
-28
-12
131
60
-84
-224
-194
-103
-106
-28
-26
-16
120
40
-107
-219
-179
-98
-90
-25
-19
1
122
26
-104
-207
-166
-100
-88
-29
-16
25
121
27
-114
-246
-166
-94
-85
-13
-17
51
126
14
-121
-228
-145
-96
-79
-36
-13
57
99
2
-106
-236
-145
-100
-79
-28
-4
86
95
-9
-126
-235
-132
-93
-78
-37
-23
85
95
-3
-121
-223
-133
-96
-73
-33
-18
97
81
-20
-132
-232
-113
-68
-55
-36
-12
108
88
-25
-127
-221
-107
-66
-59
-36
-16
128
91
-13
-131
-230
-98
-73
-52
-27
-7
131
69
-36
-134
-226
-102
-78
-43
-36
-25
120
71
-38
-158
-244
-120
-109
-60
-32
-23
117
57
-51
-180
-237
-111
-105
-35
-27
-26
119
60
-61
-214
-248
-117
-110
-28
-31
-30
113
53
-80
-206
-208
-100
-112
-20
-15
-10
137
55
-101
-207
-184
-96
-93
-2
25
62
212
139
23
-87
-36
31
7
89
94
96
187
75
-72
-217
-173
-98
-86
-21
-20
53
136
20
-93
-209
-143
-89
-58
-6
6
53
116
23
-88
-206
-131
-81
-75
-18
-3
79
121
6
-102
-217
-128
-77
-55
1
-8
88
100
9
-107
-201
-113
-77
-53
-2
0
102
111
17
-94
-206
-102
-66
-54
-10
0
125
114
14
-104
-197
-77
-45
-30
3
17
135
109
15
-92
-194
-80
-40
-24
4
14
145
119
6
-90
-176
-73
-38
-10
25
41
174
139
38
-69
-177
-59
-34
18
47
51
187
146
46
-58
-156
-23
-18
36
72
58
211
162
35
-97
-139
-16
-17
59
68
72
211
146
17
-119
-132
-30
-34
47
50
52
189
105
-23
-155
-141
-63
-64
28
25
31
158
96
-58
-185
-157
-80
-70
14
15
27
122
37
-91
-206
-138
-73
-79
-7
5
45
137
43
-82
-208
-134
-73
-67
-11
-19
54
138
49
-84
-217
-140
-91
-72
-6
1
84
116
23
-92
-208
-115
-78
-61
-12
-10
85
121
25
-97
-206
-114
-80
-53
-12
6
114
114
25
-82
-200
-114
-72
-49
-7
10
119
113
9
-96
-209
-107
-60
-42
2
7
120
96
3
-112
-201
-97
-57
-44
-14
9
135
100
-10
-106
-207
-91
-55
-48
-10
9
141
84
-16
-113
-213
-86
-73
-39
-12
2
138
88
-20
-114
-210
-104
-76
-40
-11
17
153
113
-19
-133
-208
-79
-75
-2
23
11
152
108
-10
-165
-195
-74
-77
9
13
23
151
92
-39
-173
-173
-82
-95
-2
3
7
149
55
-69
-181
-174
-94
-95
-3
-13
0
137
55
-70
-194
-161
-85
-78
-15
-6
19
124
40
-90
-212
-156
-89
-85
-14
-16
39
126
29
-86
-209
-147
-90
-69
-11
-11
49
126
24
-92
-205
-131
-76
-77
-28
-3
71
127
41
-40
-139
-27
46
79
146
175
267
290
190
58
-68
-7
-11
-39
-18
-15
84
98
-2
-114
-220
-104
-58
-42
1
4
117
114
18
-89
-207
-91
-56
-45
-11
5
129
100
0
-107
-203
-97
-70
-47
-10
13
137
100
-9
-105
-214
-95
-62
-33
-13
15
148
116
6
-108
-210
-91
-65
-23
3
30
163
100
1
-125
-196
-64
-67
-6
16
21
168
119
-11
-135
-186
-63
-66
9
26
27
166
112
-19
-138
-165
-53
-50
29
37
44
190
115
-18
-146
-146
-44
-45
48
58
56
196
125
3
-115
-96
-37
-27
63
70
82
207
121
-2
-113
-71
5
6
74
79
115
217
122
5
-129
-57
1
16
71
79
131
196
93
-30
-149
-82
-28
-11
36
41
118
164
49
-62
-187
-101
-46
-35
13
22
95
128
39
-82
-191
-109
-65
-50
-10
1
102
108
10
-99
-204
-108
-68
-57
-17
-11
103
100
-1
-113
-220
-109
-61
-50
-25
-4
114
95
-18
-127
-224
-110
-80
-54
-17
1
118
99
2
-119
-223
-104
-70
-48
-20
-4
131
86
-17
-124
-219
-92
-71
-51
-16
8
129
80
-28
-109
-207
-86
-78
-49
-20
-4
137
89
-25
-129
-225
-93
-86
-24
-6
-2
136
86
-42
-167
-219
-90
-92
-23
-5
-7
133
61
-60
-175
-188
-82
-94
-13
-3
-1
132
60
-59
-188
-176
-81
-88
-2
0
21
149
64
-70
-193
-157
-76
-71
2
4
30
144
54
-75
-189
-140
-75
-76
-11
10
41
141
42
-90
-214
-151
-93
-73
-15
-13
52
122
16
-103
-223
-155
-94
-76
-31
-24
62
114
7
-105
-233
-148
-104
-82
-32
-18
79
101
-9
-123
-228
-130
-96
-81
-33
-19
82
94
-9
-124
-233
-140
-94
-76
-41
-18
96
86
-3
-125
-241
-139
-94
-52
-12
15
158
159
80
-2
-84
41
82
91
99
123
242
175
34
-118
-240
-133
-100
-70
-42
-20
107
82
-18
-131
-232
-112
-79
-42
-18
-17
116
73
-33
-136
-229
-108
-94
-50
-24
-16
128
69
-41
-153
-222
-106
-91
-26
-23
-14
125
72
-54
-182
-215
-104
-106
-25
-11
2
137
63
-67
-194
-192
-88
-97
-7
-5
-18
128
60
-69
-189
-161
-76
-83
-13
-6
8
138
63
-80
-211
-162
-94
-78
4
7
42
144
53
-75
-191
-132
-71
-54
13
13
77
147
47
-74
-186
-110
-54
-41
21
33
104
169
61
-54
-175
-89
-43
-15
23
38
129
166
64
-51
-160
-66
-20
-4
42
60
148
160
53
-60
-166
-76
-30
-12
26
38
144
150
32
-95
-222
-102
-67
-55
-21
-8
111
90
-11
-121
-219
-117
-86
-61
-28
-28
97
