-92
-50
-29
-8
152
102
-22
-137
-257
-114
-101
-45
-12
3
146
94
-39
-178
-240
-98
-103
-27
4
4
156
88
-48
-195
-221
-94
-95
2
4
14
165
91
-56
-208
-200
-90
-72
25
43
36
185
94
-40
-173
-146
-47
-33
47
43
65
207
106
-34
-168
-119
-40
-21
52
61
107
216
100
-41
-180
-116
-31
-18
45
40
113
188
73
-60
-200
-120
-54
-41
24
33
108
171
45
-102
-225
-135
-79
-57
0
0
91
136
16
-119
-241
-145
-89
-68
-19
1
112
120
1
-135
-253
-142
-96
-78
-29
-4
99
114
2
-134
-249
-133
-92
-71
-27
-4
113
98
-12
-145
-257
-133
-85
-60
-24
-17
116
91
-21
-142
-256
-131
-98
-53
-25
-3
144
90
-26
-148
-283
-140
-102
-48
-24
-3
144
88
-44
-155
-266
-121
-111
-54
-19
-8
139
82
-42
-190
-256
-125
-117
-40
-16
-16
142
73
-69
-216
-245
-117
-119
-22
-5
5
151
69
-80
-228
-230
-113
-109
-18
-10
-15
134
47
-77
-223
-204
-105
-100
-17
-11
9
143
37
-109
-237
-182
-105
-89
-26
-7
32
130
22
-112
-250
-183
-104
-82
-21
-6
49
138
17
-121
-247
-173
-118
-101
-23
7
81
135
11
-122
-254
-159
-98
-75
-17
-5
90
116
-8
-130
-259
-153
-101
-82
-38
-15
103
110
-3
-138
-261
-144
-92
-78
-26
-15
104
100
-18
-147
-266
-144
-97
-61
-26
-13
113
106
-14
-144
-260
-138
-98
-72
-35
-10
127
93
-34
-155
-258
-124
-98
-74
-36
-15
132
95
-26
-152
-265
-141
-116
-65
-26
-6
130
69
-54
-159
-260
-129
-118
-57
-17
-6
136
77
-48
-195
-254
-113
-102
-35
-19
-11
138
69
-68
-219
-232
-104
-109
-22
-7
-2
146
72
-75
-219
-216
-111
-101
-11
-11
-9
141
49
-93
-235
-211
-122
-112
-18
-11
9
132
28
-103
-242
-194
-114
-98
-25
-14
24
128
19
-109
-242
-177
-112
-100
-29
-24
46
116
-2
-124
-259
-170
-113
-82
-24
-7
73
118
-9
-134
-254
-163
-118
-90
-27
-19
86
114
2
-138
-261
-141
-85
-65
-15
2
110
127
5
-123
-237
-116
-65
-29
20
45
183
191
67
-54
-161
-41
-4
7
13
-4
102
42
-86
-199
-314
-182
-143
-95
-42
-30
104
73
-39
-160
-266
-143
-114
-74
-29
-8
125
76
-46
-159
-267
-136
-116
-59
-30
-9
129
74
-51
-181
-267
-130
-122
-57
-20
-3
140
72
-59
-206
-259
-122
-125
-45
-21
-3
149
71
-74
-219
-233
-122
-120
-21
-18
-9
144
56
-87
-232
-225
-106
-92
-12
-12
-2
150
50
-92
-230
-193
-106
-86
-12
-2
24
140
49
-92
-221
-162
-88
-72
3
9
61
166
57
-72
-209
-143
-80
-50
22
39
112
173
52
-61
-194
-107
-48
-28
30
48
143
190
76
-59
-184
-89
-36
-14
41
56
156
176
61
-67
-191
-84
-37
-19
21
31
154
155
35
-102
-228
-111
-63
-45
-5
8
125
115
-3
-132
-250
-129
-89
-60
-12
7
131
94
-30
-159
-263
-134
-94
-71
-33
-11
129
95
-27
-158
-259
-131
-104
-71
-32
-11
125
74
-44
-147
-263
-138
-123
-65
-28
-14
130
83
-50
-179
-264
-127
-125
-60
-20
-19
129
67
-60
-209
-257
-133
-127
-43
-22
-21
136
57
-81
-228
-242
-125
-113
-17
-21
-25
120
35
-104
-231
-225
-118
-125
-31
-20
-8
132
37
-98
-245
-208
-118
-105
-34
-26
4
129
18
-113
-247
-190
-117
-103
-28
-17
40
114
4
-126
-254
-177
-110
-99
-40
-37
41
120
6
-131
-264
-175
-111
-84
-36
-37
51
98
-8
-137
-265
-164
-114
-94
-38
-18
87
99
-23
-151
-269
-170
-114
-91
-40
-23
93
95
-25
-159
-273
-165
-116
-88
-53
-35
100
92
-32
-159
-276
-152
-109
-78
-40
-33
95
70
-40
-168
-284
-155
-106
-82
-50
-38
111
69
-40
-160
-276
-146
-121
-73
-44
-29
118
71
-54
-165
-279
-150
-133
-76
-44
-31
113
60
-57
-205
-280
-138
-130
-64
-35
-21
117
50
-87
-226
-272
-143
-131
-39
-21
-18
121
41
-99
-244
-247
-129
-128
-39
-26
-17
131
32
-104
-244
-236
-128
-112
-31
-19
-1
136
28
-114
-261
-200
-112
-97
-24
-10
16
124
9
-121
-263
-205
-125
-106
-36
-27
25
116
2
-136
-275
-196
-125
-93
-45
-38
46
113
-12
-149
-269
-165
-122
-111
-46
-36
51
102
-12
-137
-264
-163
-116
-94
-48
-37
63
74
-37
-153
-264
-158
-114
-89
-42
-23
88
82
-38
-162
-282
-164
-116
-87
-32
-12
119
98
-14
-150
-265
-144
-92
-56
-15
7
148
128
34
-75
-185
-47
-18
17
54
76
205
129
-31
-182
-311
-205
-174
-123
-90
-59
91
51
-70
-182
-292
-153
-137
-84
-46
-30
115
60
-76
-212
-286
-148
-134
-56
-41
-34
120
47
-84
-228
-268
-134
-136
-59
-32
-27
119
40
-99
-244
-245
-134
-124
-29
-31
-22
129
38
-105
-248
-235
-128
-118
-27
-22
-9
121
29
-116
-251
-207
-124
-113
-39
-17
19
120
26
-108
-256
-197
-120
-99
-28
-17
49
134
12
-126
-253
-168
-101
-82
-18
-5
79
142
23
-109
-240
-142
-85
-59
-14
-1
103
152
38
-95
-220
-116
-63
-33
11
32
141
160
40
-84
-206
-99
-44
-31
26
44
158
161
45
-79
-199
-81
-44
-23
15
32
150
134
17
-103
-223
-104
-70
-48
-12
14
144
112
-11
-150
-255
-128
-87
-60
-29
-10
131
86
-39
-161
-269
-137
-110
-70
-47
-26
118
75
-49
-171
-274
-141
-124
-64
-28
-26
119
66
-51
-201
-279
-146
-130
-56
-31
-27
124
54
-94
-228
-260
-137
-133
-40
-26
-23
119
44
-90
-234
-244
-134
-122
-34
-16
-29
125
28
-108
-247
-231
-143
-126
-27
-25
-8
123
24
-115
-259
-208
-124
-114
-37
-27
14
124
11
-127
-259
-191
-127
-105
-38
-23
36
116
-2
-137
-265
-192
-132
-99
-26
-19
55
121
4
-132
-262
-181
-125
-102
-42
-25
71
105
-13
-145
-273
-171
-104
-82
-34
-25
86
107
-13
-147
-278
-163
-110
-89
-47
-39
86
102
-17
-153
-272
-157
-107
-78
-42
-20
103
86
-35
-166
-265
-143
-110
-76
-36
-23
114
79
-43
-176
-277
-146
-114
-67
-34
-24
115
81
-41
-161
-277
-152
-116
-78
-50
-15
132
79
-53
-167
-276
-136
-131
-66
-28
-23
117
67
-57
-203
-273
-146
-137
-48
-24
-25
123
58
-85
-230
-259
-127
-132
-38
-25
-25
125
49
-94
-239
-248
-126
-117
-20
-20
-14
125
24
-96
-246
-229
-131
-118
-28
-18
-1
129
29
-118
-260
-215
-129
-115
-34
-12
31
134
6
-124
-256
-191
-130
-104
-30
-23
35
121
3
-131
-264
-183
-127
-94
-32
-13
73
127
-3
-132
-261
-175
-115
-90
-27
-21
76
108
-6
-148
-260
-152
-102
-81
-23
-5
92
113
-5
-139
-249
-131
-93
-79
-31
-6
112
104
-12
-144
-253
-146
-102
-81
-42
-19
112
96
-28
-163
-280
-146
-108
-84
-45
-23
119
88
-31
-157
-275
-140
-108
-84
-45
-24
124
90
-45
-161
-261
-135
-121
-75
-41
-12
117
64
-47
-168
-276
-134
-121
-62
-37
-31
127
61
-71
-213
-260
-125
-138
-57
-24
-22
128
69
-63
-203
-227
-103
-101
-18
1
3
163
87
-39
-185
-168
-50
-27
86
88
89
228
141
-2
-161
-165
-109
-125
-75
-86
-55
83
-17
-146
-284
-227
-136
-118
-29
-23
13
125
17
-131
-252
-184
-123
-110
-35
-18
36
118
1
-136
-258
-176
-109
-98
-37
-21
62
125
-2
-132
-265
-164
-105
-88
-33
-17
73
110
-2
-134
-259
-156
-106
-76
-29
-14
94
98
-11
-138
-265
-169
-125
-94
-38
-16
88
82
-39
-156
-279
-169
-124
-83
-34
-17
104
80
-32
-173
-285
-156
-107
-83
-41
-26
104
74
-44
-161
-263
-134
-107
-73
-26
-8
124
89
-32
-140
-258
-122
-94
-36
2
14
149
100
-26
-147
-245
-101
-90
-29
6
18
180
112
-16
-170
-222
-91
-88
-12
7
19
165
95
-52
-195
-222
-109
-112
-13
5
-5
142
60
-90
-232
-229
-125
-118
-36
-32
-34
111
11
-128
-266
-230
-134
-124
-47
-46
-28
97
-5
-143
-277
-227
-144
-135
-66
-47
5
97
-27
-161
-289
-213
-150
-129
-60
-46
12
86
-32
-163
-286
-209
-152
-131
-66
-54
38
89
-32
-171
-297
-204
-151
-122
-66
-52
36
75
-38
-172
-304
-198
-132
-115
-71
-61
49
68
-48
-171
-305
-193
-149
-121
-73
-52
72
59
-64
-189
-298
-188
-148
-118
-71
-43
78
53
-63
-188
-305
-179
-144
-115
-66
-53
89
55
-76
-193
-305
-178
-140
-106
-63
-50
94
50
-76
-193
-309
-179
-156
-106
-66
-50
91
46
-89
-214
-300
-166
-162
-98
-62
-49
100
37
-98
-242
-303
-165
-159
-76
-51
-48
94
20
-120
-256
-279
-164
-165
-68
-55
-51
104
18
-125
-270
-270
-162
-155
-71
-64
-52
99
2
-139
-270
-240
-154
-144
-70
-55
-33
92
-11
-142
-278
-236
-157
-141
-59
-52
-6
93
-27
-165
-295
-213
-144
-126
-65
-47
13
84
-42
-165
-298
-219
-152
-122
-64
-48
32
83
-39
-170
-295
-213
-153
-118
-63
-52
45
69
-41
-166
-296
-199
-146
-121
-75
-52
59
68
-51
-185
-307
-181
-132
-112
-74
-58
62
53
-61
-183
-302
-182
-133
-111
-68
-41
78
49
-66
-189
-298
-173
-128
-106
-76
-48
87
49
-68
-192
-307
-183
-141
-109
-70
-50
94
54
-66
-179
-289
-157
-148
-98
-57
-36
94
36
-80
-192
-287
-152
-143
-78
-52
-38
104
36
-94
-250
-297
-149
-155
-83
-55
-55
76
13
-114
-267
-289
-165
-153
-65
-57
-46
96
6
-138
-277
-275
-163
-155
-63
-55
-51
95
3
-146
-280
-243
-154
-146
-68
-59
-26
102
-7
-150
-291
-241
-163
-143
-64
-48
7
86
-32
-164
-286
-217
-153
-127
-58
-46
24
107
-14
-143
-276
-193
-136
-104
-35
-20
77
139
24
-75
-194
-96
-39
-20
37
53
134
133
-24
-180
-331
-245
-194
-156
-110
-91
25
40
-74
-202
-322
-204
-147
-112
-73
-60
61
58
-61
-188
-311
-184
-131
-110
-69
-57
77
62
-69
-197
-303
-172
-135
-111
-77
-48
88
51
-84
-199
-294
-158
-125
-85
-59
-63
87
46
-74
-187
-294
-163
-143
-97
-64
-47
105
52
-86
-207
-292
-154
-151
-85
-44
-40
106
47
-88
-234
-289
-143
-153
-70
-44
-34
114
46
-102
-241
-252
-128
-126
-30
-26
-31
124
38
-103
-227
-222
-125
-109
-18
-13
-11
142
59
-83
-226
-191
-91
-79
0
6
41
171
58
-79
-213
-160
-85
-63
11
19
70
167
57
-81
-202
-133
-74
-58
12
10
79
155
28
-98
-238
-158
-98
-82
-21
-10
71
124
-2
-132
-264
-175
-124
-93
-44
-38
56
95
-32
-153
-273
-174
-124
-97
-60
-52
59
79
-36
-171
-291
-186
-138
-102
-52
-38
84
67
-52
-178
-290
-170
-127
-100
-63
-54
79
62
-49
-184
-304
-169
-131
-102
-61
-45
92
56
-63
-185
-299
-183
-131
-92
-65
-58
93
61
-71
-189
-306
-166
-134
-93
-66
-48
103
51
-81
-218
-293
-155
-149
-84
-57
-46
103
38
-98
-243
-295
-160
-157
-72
-63
-47
110
33
-114
-259
-271
-153
-154
-50
-47
-52
107
19
-125
-274
-259
-149
-140
-50
-47
-30
109
12
-128
-271
-248
-161
-140
-38
-40
-13
113
-21
-149
-269
-224
-154
-133
-51
-44
0
96
-16
-152
-282
-212
-140
-119
-55
-39
31
97
-27
-158
-290
-207
-143
-115
-49
-43
43
86
-28
-165
-297
-198
-138
-113
-66
-50
56
87
-45
-166
-282
-186
-129
-107
-61
-31
71
74
-46
-185
-295
-180
-138
-106
-59
-48
75
65
-54
-174
-291
-172
-141
-109
-64
-49
86
57
-70
-182
-292
-164
-120
-102
-62
-43
91
57
-53
-182
-302
-176
-136
-88
-57
-53
94
52
-66
-187
-293
-155
-143
-93
-58
-39
107
50
-74
-202
-300
-154
-142
-79
-42
-37
113
49
-86
-230
-275
-140
-132
-56
-39
-40
117
49
-98
-250
-264
-142
-157
-66
-52
-39
111
16
-121
-266
-244
-155
-149
-54
-39
-35
106
3
-130
-270
-238
-149
-139
-58
-39
-7
106
-2
-145
-281
-231
-147
-122
-58
-56
1
100
-20
-149
-282
-212
-144
-129
-60
-36
29
82
-35
-164
-276
-197
-146
-119
-56
-44
54
96
-19
-145
-264
-168
-119
-95
-34
-17
91
116
9
-115
-233
-106
-45
-9
42
51
167
173
59
-90
-240
-169
-150
-135
-115
-87
32
28
-81
-203
-315
-186
-149
-127
-76
-51
87
70
-59
-188
-302
-174
-126
-99
-62
-37
89
61
-72
-187
-290
-168
-133
-103
-68
-44
103
54
-65
-181
-289
-155
-135
-83
-55
-44
105
54
-69
-208
-301
-154
-144
-80
-42
-32
111
46
-90
-231
-279
-144
-150
-57
-35
-30
113
44
-89
-241
-270
-151
-138
-40
-29
-25
126
37
-105
-250
-238
-138
-124
-34
-24
-3
130
36
-99
-243
-205
-113
-105
-11
-10
24
152
45
-91
-225
-167
-88
-79
-7
10
75
170
45
-81
-222
-138
-75
-53
19
20
94
172
49
-77
-214
-123
-68
-48
10
33
120
154
29
-101
-228
-131
-84
-64
-4
13
112
126
10
-124
-253
-160
-117
-89
-37
-31
89
101
-14
-143
-269
-156
-113
-87
-44
-35
90
75
-51
-172
-293
-171
-122
-89
-56
-32
100
75
-49
-181
-301
-166
-120
-82
-49
-38
96
75
-53
-181
-288
-156
-133
-94
-59
-38
111
56
-55
-174
-288
-156
-147
-86
-46
-38
105
48
-76
-220
-288
-147
-152
-78
-41
-35
107
38
-92
-234
-281
-145
-141
-60
-52
-41
116
37
-105
-245
-273
-154
-135
-44
-41
-33
111
22
-110
-257
-242
-152
-129
-46
-36
-18
117
1
-132
-267
-227
-131
-129
-50
-38
-6
115
-1
-134
-272
-216
-135
-110
-45
-34
16
111
-4
-145
-274
-199
-138
-115
-45
-28
40
110
-13
-152
-286
-198
-126
-106
-37
-29
52
97
-17
-155
-288
-185
-132
-103
-49
-35
70
93
-25
-164
-294
-177
-125
-102
-57
-44
76
73
-36
-161
-278
-165
-119
-84
-51
-43
92
71
-49
-174
-289
-155
-125
-96
-49
-35
94
70
-43
-165
-280
-160
-125
-104
-66
-35
104
60
-49
-179
-287
-150
-131
-85
-53
-27
110
57
-66
-182
-282
-150
-133
-80
-41
-32
113
53
-76
-224
-296
-150
-134
-68
-38
-26
120
45
-91
-238
-282
-147
-150
-58
-38
-37
119
52
-89
-246
-262
-150
-138
-34
-31
-30
117
29
-110
-253
-232
-126
-118
-36
-30
-13
124
22
-108
-251
-209
-123
-114
-24
-21
14
130
14
-125
-265
-210
-135
-123
-46
-25
22
102
-10
-144
-281
-205
-121
-107
-38
-33
44
107
-18
-153
-274
-184
-132
-110
-52
-35
57
99
-23
-158
-276
-180
-127
-99
-45
-32
72
91
-37
-157
-280
-170
-122
-96
-60
-42
77
77
-39
-168
-289
-178
-118
-83
-33
-15
106
98
-22
-147
-273
-144
-95
-59
-14
6
147
133
38
-72
-185
-57
-11
22
39
59
207
142
-25
-176
-312
-213
-201
-137
-102
-64
87
56
-68
-194
-294
-153
-135
-89
-59
-44
116
53
-77
-223
-291
-143
-133
-70
-37
-43
118
45
-90
-243
-280
-149
-143
-51
-32
-27
118
45
-116
-262
-257
-132
-131
-36
-21
-20
128
39
-115
-257
-234
-136
-133
-39
-30
-12
117
26
-115
-256
-211
-132
-116
-37
-28
15
129
13
-126
-258
-201
-128
-102
-30
-22
42
124
1
-115
-245
-160
-115
-91
-22
-9
65
140
10
-115
-246
-151
-98
-75
-24
8
107
144
34
-91
-224
-128
-69
-55
4
31
146
158
35
-98
-212
-98
-44
-29
16
29
157
156
33
-95
-210
-94
-50
-20
23
46
159
138
19
-109
-234
-113
-74
-45
-9
12
140
98
-24
-148
-258
-129
-100
-63
-36
-15
131
80
-35
-158
-280
-144
-106
-70
-41
-25
122
74
-56
-175
-276
-141
-130
-73
-39
-27
122
69
-69
-216
-279
-141
-133
-63
-38
-33
125
45
-83
-238
-263
-136
-139
-31
-39
-36
125
41
-107
-239
-242
-135
-145
-40
-28
-26
119
30
-110
-248
-234
-138
-128
-45
-40
-9
120
16
-117
-260
-213
-140
-123
-47
-21
11
112
6
-124
-262
-198
-124
-121
-62
-41
27
116
4
-127
-264
-189
-120
-106
-48
-36
46
120
-8
-147
-267
-177
-125
-104
-42
-26
69
105
-18
-155
-270
-166
-115
-95
-39
-26
78
90
-24
-155
-278
-174
-117
-89
-41
-21
92
85
-28
-162
-271
-164
-116
-83
-43
-27
95
81
-47
-166
-280
-155
-112
-82
-41
-16
111
81
-43
-167
-287
-162
-112
-87
-47
-25
132
76
-52
-166
-283
-147
-123
-71
-48
-34
110
71
-61
-168
-279
-147
-135
-65
-37
-28
120
61
-75
-213
-277
-140
-143
-57
-26
-27
123
48
-79
-228
-258
-138
-138
-42
-31
-41
127
50
-104
-244
-237
-128
-129
-36
-34
-24
130
36
-113
-251
-233
-138
-128
-38
-29
-4
126
16
-129
-254
-205
-123
-106
-39
-33
25
129
4
-127
-257
-200
-129
-110
-27
-16
46
128
8
-125
-262
-172
-109
-85
-31
-21
68
126
-6
-133
-247
-158
-108
-90
-31
-12
83
110
-19
-146
-275
-168
-111
-98
-42
-29
84
90
-22
-156
-273
-160
-113
-93
-39
-25
85
86
-26
-158
-288
-165
-118
-86
-42
-30
98
81
-38
-162
-279
-159
-114
-81
-50
-28
113
70
-44
-163
-272
-146
-103
-82
-47
-22
113
66
-57
-164
-269
-132
-105
-52
-16
-14
140
102
-30
-137
-233
-90
-76
-7
42
76
238
179
48
-108
-167
-38
-43
0
-16
-45
79
1
-138
-286
-298
-168
-166
-73
-42
-30
118
41
-99
-244
-237
-130
-124
-34
-33
-18
126
27
-120
-265
-233
-126
-118
-30
-25
-6
123
9
-125
-251
-209
-132
-109
-28
-20
23
127
17
-122
-256
-189
-124
-108
-35
-20
41
119
6
-136
-256
-169
-116
-93
-25
-20
61
123
4
-134
-260
-160
-107
-97
-38
-11
83
118
-4
-137
-259
-162
-107
-78
-25
-9
98
123
13
-124
-248
-142
-90
-64
-10
12
128
131
10
-119
-234
-113
-59
-40
15
36
160
135
14
-104
-219
-99
-35
-10
35
47
183
149
33
-86
-203
-71
-38
-3
34
58
194
139
13
-95
-206
-72
-47
-12
18
41
178
124
-2
-134
-230
-97
-85
-27
2
-6
145
83
-49
-192
-249
-112
-115
-47
-17
-17
138
71
-71
-226
-249
-123
-118
-31
-26
-17
133
59
-88
-236
-235
-129
-119
-27
-22
-17
128
42
-106
-251
-218
-125
-115
-37
-26
11
130
19
-110
-252
-203
-123
-110
-40
-29
18
133
19
-114
-254
-183
-114
-99
-38
-25
39
127
3
-136
-261
-182
-110
-94
-25
-17
55
117
-1
-133
-271
-180
-123
-92
-36
-21
77
107
-22
-150
-258
-163
-117
-93
-34
-15
92
103
-22
-143
-264
-158
-105
-83
-41
-16
108
90
-29
-163
-267
-157
-104
-78
-37
-22
112
93
-42
-160
-269
-152
-104
-75
-36
-24
112
79
-46
-176
-276
-126
-106
-66
-37
-20
125
74
-40
-160
-272
-142
-127
-68
-28
-22
127
80
-63
-197
-274
-134
-126
-58
-26
-18
126
62
-76
-220
-261
-126
-132
-47
-35
-23
131
53
-87
-224
-247
-133
-130
-47
-35
-16
135
38
-105
-243
-235
-130
-120
-20
-14
-9
129
27
-112
-247
-217
-134
-118
-24
-20
5
120
13
-116
-262
-208
-129
-102
-35
-20
24
116
4
-124
-261
-188
-114
-99
-29
-19
44
120
1
-147
-270
-176
-106
-91
-38
-23
71
113
-13
-143
-257
-167
-109
-85
-24
-14
85
111
-13
-141
-247
-147
-101
-85
-34
-13
97
106
-13
-132
-249
-144
-108
-78
-40
-30
104
96
-18
-156
-276
-149
-109
-82
-52
-28
110
85
-40
-164
-277
-142
-116
-77
-47
-24
110
82
-43
-162
-273
-146
-108
-78
-43
-20
121
78
-56
-166
-270
-140
-132
-78
-44
-24
122
55
-61
-193
-273
-132
-127
-63
-31
-27
118
57
-71
-214
-257
-117
-110
-27
-8
-8
142
70
-66
-201
-212
-85
-75
22
43
73
242
143
12
-124
-118
-31
-36
17
-15
-46
67
-31
-172
-298
-257
-162
-133
-50
-38
-5
109
1
-127
-256
-202
-133
-115
-36
-21
24
119
-5
-131
-259
-187
-125
-105
-39
-22
52
117
-1
-137
-262
-180
-116
-96
-35
-19
66
110
-1
-130
-259
-163
-116
-94
-41
-25
92
105
-19
-135
-257
-156
-109
-92
-35
-29
90
108
-16
-143
-262
-150
-103
-76
-34
-4
118
107
-18
-141
-252
-138
-97
-66
-29
-2
126
110
-2
-134
-255
-125
-83
-54
-10
15
148
114
5
-122
-235
-101
-64
-34
4
29
176
133
-1
-110
-211
-73
-51
2
32
45
190
145
14
-124
-205
-67
-62
12
45
55
205
137
-5
-155
-195
-74
-70
16
28
24
181
102
-45
-190
-212
-104
-89
0
5
4
146
56
-84
-230
-205
-108
-101
-13
-8
-6
131
38
-100
-243
-199
-112
-95
-20
-28
6
121
23
-118
-256
-198
-119
-98
-26
-15
36
130
12
-125
-264
-188
-114
-94
-35
-24
50
124
3
-123
-265
-178
-114
-95
-39
-23
69
113
-9
-142
-265
-163
-109
-86
-33
-27
79
105
-15
-129
-261
-164
-115
-88
-33
-19
96
91
-18
-143
-265
-159
-110
-87
-34
-19
109
96
-32
-157
-272
-158
-106
-84
-33
-14
111
84
-32
-149
-260
-142
-95
-68
-34
-18
114
70
-40
-147
-264
-150
-113
-62
-32
-7
137
80
-35
-154
-268
-136
-123
-56
-27
-13
138
82
-46
-196
-264
-127
-124
-62
-25
-9
139
70
-74
-220
-253
-128
-121
-33
-18
-17
127
64
-78
-224
-228
-111
-123
-27
-18
-2
136
52
-93
-239
-221
-117
-103
-23
-20
0
136
39
-103
-246
-196
-104
-97
-22
-14
23
136
25
-117
-257
-191
-117
-95
-21
-14
54
132
14
-117
-258
-171
-104
-82
-20
-12
62
126
11
-118
-249
-166
-104
-78
-18
-6
79
118
3
-128
-249
-153
-102
-74
-33
-7
105
120
3
-110
-230
-128
-89
-63
-9
-4
113
118
0
-126
-246
-131
-86
-65
-23
-2
119
93
-26
-148
-259
-137
-88
-59
-25
-14
126
91
-30
-148
-270
-129
-94
-72
-25
-6
134
96
-33
-148
-259
-123
-104
-53
-15
-12
126
72
-33
-150
-263
-125
-118
-58
-20
-5
144
75
-48
-191
-259
-123
-114
-45
-21
-3
150
86
-48
-212
-227
-100
-100
-13
12
11
167
88
-47
-173
-168
-43
-30
71
80
90
255
158
14
-142
-125
-55
-78
-25
-63
-53
89
-23
-150
-269
-217
-126
-118
-30
-8
26
120
16
-109
-249
-183
-111
-98
-19
-5
55
136
16
-111
-251
-171
-116
-97
-11
-2
77
142
18
-121
-255
-158
-94
-79
-33
-5
100
128
7
-119
-240
-149
-109
-78
-20
-5
106
127
-6
-129
-252
-143
-89
-62
-11
-3
119
123
7
-132
-249
-134
-82
-56
-5
14
144
116
-8
-130
-239
-115
-75
-51
-15
14
153
122
7
-120
-233
-100
-68
-28
5
29
167
141
23
-98
-212
-75
-51
-6
16
38
193
148
31
-98
-191
-49
-40
13
57
70
218
157
28
-131
-183
-41
-45
27
56
71
214
139
0
-144
-170
-56
-54
36
35
49
196
91
-56
-193
-176
-81
-74
13
13
20
170
69
-76
-218
-187
-98
-78
-12
6
32
147
49
-89
-225
-171
-101
-88
-15
0
48
146
34
-102
-237
-175
-113
-83
-11
3
62
140
13
-116
-235
-156
-96
-70
-19
-5
78
128
8
-111
-242
-148
-104
-78
-20
-1
99
135
22
-113
-253
-154
-95
-75
-14
-6
105
117
-2
-127
-250
-137
-93
-60
-18
7
129
115
-16
-145
-249
-135
-88
-66
-15
3
128
96
-16
-136
-250
-119
-87
-63
-20
1
134
95
-16
-131
-248
-116
-90
-57
-16
2
146
94
-25
-142
-259
-126
-96
-43
-21
4
152
100
-25
-165
-252
-118
-101
-33
-6
1
147
86
-49
-200
-245
-112
-114
-23
-8
4
154
84
-58
-211
-228
-105
-107
-10
-5
1
150
64
-83
-212
-215
-110
-98
-7
-5
8
153
52
-97
-238
-201
-97
-83
1
0
21
144
40
-107
-235
-178
-104
-83
-5
-2
50
145
28
-108
-234
-170
-99
-89
-13
3
80
148
20
-123
-242
-161
-102
-78
-14
9
90
132
14
-120
-251
-154
-92
-66
-31
-8
108
127
8
-122
-244
-145
-93
-71
-12
2
107
112
8
-126
-244
-136
-88
-59
-8
14
127
117
-4
-130
-247
-122
-78
-59
-22
-1
140
116
-4
-131
-251
-114
-74
-32
-1
17
154
109
-15
-128
-241
-113
-87
-50
-19
5
144
98
-21
-141
-258
-125
-109
-48
-10
10
150
100
-34
-180
-256
-124
-112
-46
-12
-12
150
82
-54
-194
-240
-114
-118
-31
-11
-3
141
71
-73
-210
-216
-101
-103
-12
-5
0
150
57
-100
-237
-208
-117
-107
-6
-7
8
153
56
-77
-211
-177
-93
-82
6
34
61
178
72
-66
-187
-114
-17
8
96
105
151
242
127
-2
-154
-106
-79
-90
-53
-54
10
90
-23
-144
-271
-175
-117
-91
-37
-13
87
125
-4
-122
-241
-151
-94
-82
-20
-11
103
122
-2
-130
-256
-144
-94
-69
-12
-3
109
108
-17
-139
-241
-131
-80
-48
-10
0
119
106
-6
-135
-252
-136
-90
-59
-21
-3
137
108
-12
-129
-236
-118
-75
-47
-15
5
141
95
-33
-131
-227
-97
-86
-49
-14
3
155
109
-14
-136
-246
-109
-88
-23
11
21
163
108
-13
-157
-219
-86
-85
-3
22
31
188
114
-16
-167
-194
-54
-59
26
48
59
207
129
-16
-154
-154
-33
-27
59
62
70
214
130
-16
-171
-139
-39
-15
64
69
92
212
106
-21
-164
-131
-48
-39
48
51
82
186
68
-64
-208
-135
-67
-51
14
19
81
162
53
-92
-225
-151
-88
-84
-18
14
89
150
35
-105
-239
-150
-91
-75
-20
-5
94
120
20
-122
-248
-145
-93
-64
-9
8
110
119
7
-124
-240
-132
-88
-74
-31
3
120
110
-7
-135
-255
-134
-94
-64
-17
-4
132
111
-9
-132
-250
-136
-89
-59
-26
0
132
103
-14
-141
-262
-141
-90
-53
-18
1
150
98
-27
-144
-248
-121
-112
-54
-20
6
148
102
-27
-162
-259
-118
-111
-44
-12
3
152
87
-46
-208
-267
-117
-107
-40
-5
-11
141
86
-53
-204
-234
-106
-111
-19
4
3
151
64
-82
-218
-209
-104
-108
-15
-9
6
160
48
-85
-224
-194
-106
-100
-11
-10
16
153
38
-115
-248
-185
-90
-76
-12
-1
48
144
35
-102
-245
-177
-102
-84
-15
-5
59
140
23
-117
-240
-161
-100
-86
-24
-9
80
132
19
-114
-252
-148
-99
-83
-28
-11
95
126
0
-128
-246
-141
-90
-70
-20
0
112
116
2
-135
-243
-133
-88
-67
-16
-6
104
104
-15
-134
-262
-134
-88
-62
-18
-1
114
98
-17
-135
-245
-127
-86
-76
-27
3
139
103
-23
-139
-249
-117
-85
-59
-20
4
143
97
-30
-143
-247
-109
-91
-48
-9
11
156
102
-29
-164
-247
-105
-104
-35
-7
-3
145
88
-37
-179
-236
-111
-112
-31
-17
-7
152
80
-65
-216
-237
-110
-106
-15
-4
-5
147
62
-78
-217
-221
-122
-110
-14
-11
1
145
44
-93
-230
-197
-112
-97
-17
-14
17
142
21
-106
-234
-179
-106
-83
-11
-9
46
135
23
-109
-238
-177
-101
-74
-3
8
82
146
23
-95
-224
-142
-82
-57
20
39
127
191
80
-37
-153
-48
6
26
90
91
175
177
23
-141
-294
-200
-146
-128
-62
-47
71
104
-17
-151
-264
-155
-103
-76
-19
-4
114
99
-14
-142
-257
-136
-96
-66
-22
-17
123
108
-19
-141
-256
-129
-85
-61
-19
-8
130
96
-20
-144
-250
-112
-95
-55
-27
1
143
95
-28
-139
-253
-124
-101
-44
-9
3
146
90
-26
-164
-251
-116
-110
-41
-6
14
180
111
-41
-201
-236
-103
-103
-20
-1
4
157
99
-49
-204
-215
-92
-82
10
22
22
175
95
-46
-192
-183
-75
-59
23
34
55
195
91
-36
-174
-136
-51
-27
49
53
87
203
104
-34
-169
-109
-33
-23
55
73
120
215
96
-48
-182
-98
-25
-9
62
62
137
200
76
-56
-193
-110
-56
-39
20
38
123
164
39
-94
-219
-126
-74
-50
-7
15
122
135
17
-117
-244
-138
-79
-60
-26
-2
111
117
-5
-130
-235
-134
-91
-56
-10
2
123
113
-6
-131
-252
-135
-88
-58
-20
0
133
116
-9
-140
-259
-125
-79
-57
-24
-3
134
93
-26
-143
-240
-115
-92
-48
-18
-7
134
97
-20
-145
-266
-125
-109
-52
-23
-11
145
87
-38
-185
-255
-107
-107
-42
-9
9
156
79
-68
-208
-237
-109
-103
-11
2
-10
141
64
-71
-217
-223
-115
-101
-2
15
5
143
50
-93
-233
-204
-112
-104
-9
-1
27
164
48
-105
-232
-192
-103
-84
-13
1
34
150
39
-99
-237
-181
-103
-88
-15
3
60
148
25
-109
-235
-152
-99
-75
-11
0
66
130
23
-106
-243
-158
-94
-77
-19
6
98
126
14
-128
-250
-148
-92
-68
-25
-5
100
115
7
-132
-265
-138
-86
-68
-15
0
113
113
-4
-134
-252
-139
-91
-62
-11
1
119
103
-8
-120
-247
-129
-93
-55
-13
-6
130
106
-19
-148
-253
-132
-98
-62
-20
9
142
95
-27
-137
-244
-122
-97
-54
-19
-1
142
96
-26
-133
-249
-112
-111
-53
0
15
147
94
-26
-179
-241
-104
-96
-14
8
13
168
83
-51
-198
-229
-117
-120
-24
0
-2
151
58
-65
-217
-220
-107
-102
-4
-7
-8
141
51
-85
-239
-218
-115
-106
-9
-3
18
158
50
-95
-237
-192
-107
-91
-21
-9
36
146
34
-100
-239
-186
-107
-90
-20
0
57
144
34
-113
-254
-171
-110
-75
-15
6
89
151
30
-99
-225
-130
-75
-57
-1
30
135
169
54
-49
-165
-40
13
32
79
90
203
205
69
-99
-247
-180
-151
-123
-78
-51
72
76
-33
-152
-260
-144
-85
-59
-17
-19
108
105
-20
-148
-271
-147
-81
-66
-31
1
136
105
-22
-152
-257
-130
-84
-58
-33
-14
131
100
-19
-133
-252
-121
-99
-57
-21
-2
145
98
-29
-153
-254
-120
-111
-50
-2
7
156
92
-42
-189
-246
-113
-104
-24
-1
16
151
82
-53
-203
-234
-118
-102
-9
5
18
168
77
-59
-199
-193
-87
-87
3
1
26
163
80
-55
-203
-163
-78
-63
23
23
51
190
95
-41
-182
-140
-61
-30
39
59
106
208
98
-35
-176
-108
-43
-13
54
68
131
211
90
-41
-172
-94
-40
-21
51
66
132
194
71
-55
-188
-102
-52
-27
27
43
143
159
38
-99
-224
-122
-78
-58
-9
3
122
129
15
-120
-244
-139
-81
-52
-11
7
121
112
1
-131
-250
-129
-91
-69
-26
-4
133
107
-18
-130
-241
-126
-86
-64
-22
-7
137
91
-23
-142
-256
-127
-93
-56
-22
-8
137
93
-26
-144
-268
-124
-99
-54
-16
1
141
92
-24
-149
-255
-118
-110
-56
-23
-5
138
77
-59
-199
-251
-123
-114
-31
-2
6
132
70
-59
-213
-230
-107
-114
-27
-13
-3
143
65
-83
-212
-208
-102
-108
-19
-12
2
146
51
-101
-228
-197
-104
-96
-16
-2
23
142
40
-100
-237
-181
-98
-82
-22
-6
41
145
31
-112
-241
-177
-96
-81
-28
-13
62
143
20
-112
-248
-157
-99
-71
-9
-7
74
135
16
-117
-248
-152
-94
-71
-23
-7
105
130
3
-131
-245
-140
-93
-75
-26
3
112
117
5
-118
-243
-141
-97
-72
-26
-8
108
111
-13
-128
-241
-123
-79
-63
-33
-6
133
108
-14
-139
-245
-118
-84
-64
-23
5
135
96
-25
-145
-249
-117
-91
-51
-10
3
137
96
-32
-146
-256
-124
-96
-46
-20
3
150
93
-31
-166
-269
-120
-101
-28
1
8
160
90
-47
-203
-245
-112
-109
-30
-3
22
167
87
-58
-204
-220
-99
-101
-10
11
17
163
75
-67
-211
-197
-90
-82
1
12
17
159
58
-82
-216
-188
-97
-93
-6
-1
27
148
50
-84
-226
-177
-108
-86
-8
-6
47
147
33
-103
-237
-167
-102
-79
-11
5
69
138
-3
-128
-241
-164
-96
-66
-17
-2
81
143
21
-111
-244
-157
-101
-73
-12
-3
93
120
7
-123
-237
-136
-100
-69
-1
8
127
134
22
-115
-231
-107
-66
-44
10
26
155
162
69
-41
-144
-9
26
51
80
103
219
175
29
-129
-265
-168
-147
-114
-69
-40
97
68
-38
-152
-264
-127
-94
-62
-20
-4
135
92
-30
-145
-249
-126
-115
-44
-15
-10
129
84
-30
-163
-247
-118
-112
-41
-3
0
135
92
-39
-195
-228
-99
-104
-30
-16
-5
148
77
-58
-210
-220
-110
-104
-12
10
20
156
60
-81
-215
-208
-105
-89
-1
-8
21
167
57
-86
-223
-184
-90
-77
3
22
53
163
58
-87
-218
-158
-80
-52
14
18
74
171
57
-73
-215
-141
-64
-39
25
29
109
182
61
-65
-189
-93
-40
-25
48
69
156
202
94
-49
-189
-96
-26
6
58
72
173
206
84
-52
-168
-61
-18
5
51
59
181
194
70
-73
-189
-87
-49
-25
17
39
152
135
32
-95
-224
-104
-57
-34
4
19
143
113
3
-122
-230
-111
-74
-52
-20
4
148
109
-14
-135
-246
-113
-86
-42
-13
3
137
106
-18
-140
-248
-111
-105
-44
-7
11
154
97
-37
-180
-255
-119
-113
-36
-1
-8
144
79
-48
-195
-233
-102
-99
-23
-9
-8
150
83
-72
-210
-233
-108
-97
-8
-1
4
154
60
-72
-218
-208
-106
-96
-2
4
26
161
54
-94
-238
-200
-101
-83
-6
-2
38
150
41
-91
-229
-172
-98
-84
-8
-2
50
139
26
-108
-240
-160
-95
-74
-10
-1
78
142
20
-102
-241
-150
-89
-72
-16
2
105
136
16
-114
-243
-146
-97
-59
-9
4
111
129
10
-124
-245
-127
-78
-70
-17
0
111
119
-6
-135
-245
-133
-86
-67
-25
0
135
109
-19
-146
-246
-119
-78
-55
-19
6
132
96
-17
-133
-245
-120
-88
-61
-8
15
137
91
-19
-143
-250
-114
-94
-67
-18
-2
154
102
-29
-137
-241
-118
-108
-56
-20
8
154
98
-39
-193
-256
-109
-102
-40
-12
2
151
73
-82
-215
-222
-103
-103
-8
0
-5
150
78
-55
-212
-222
-113
-101
-4
7
-2
146
57
-76
-212
-189
-99
-94
-15
-4
25
157
46
-78
-213
-179
-87
-84
-4
5
39
161
48
-86
-214
-162
-95
-83
4
15
62
147
25
-103
-234
-164
-101
-81
-13
-11
68
128
9
-118
-244
-158
-103
-79
-15
4
98
124
1
-122
-252
-147
-93
-72
-22
-11
106
121
6
-127
-257
-148
-90
-65
-20
-10
108
102
-11
-145
-253
-135
-95
-61
-21
6
122
97
-13
-129
-245
-109
-54
-47
-12
8
147
123
-2
-118
-221
-78
-23
18
67
91
244
199
83
-32
-152
-41
-38
-27
-26
-41
88
43
-84
-196
-294
-155
-143
-80
-26
-13
131
88
-43
-193
-264
-122
-107
-39
-23
-15
137
70
-65
-221
-237
-108
-113
-28
-10
8
143
62
-70
-221
-224
-123
-105
-12
-9
-3
150
64
-85
-224
-205
-109
-98
-14
-9
10
148
50
-90
-240
-196
-107
-91
-3
-4
34
144
26
-92
-219
-159
-93
-75
-5
9
73
157
24
-106
-228
-148
-86
-62
7
8
89
157
28
-101
-219
-123
-73
-59
8
20
115
156
45
-87
-212
-94
-50
-24
33
51
146
169
49
-80
-212
-83
-24
2
50
66
180
181
57
-78
-192
-61
-17
4
51
74
196
174
59
-72
-195
-76
-45
-13
40
59
175
139
32
-106
-222
-93
-67
-32
13
21
157
107
-8
-125
-243
-104
-81
-42
-8
11
148
92
-28
-153
-262
-115
-96
-43
0
-5
152
97
-41
-197
-257
-126
-117
-42
-9
10
149
77
-55
-212
-236
-111
-117
-17
-3
0
145
65
-81
-230
-222
-111
-102
-22
-8
-3
149
62
-85
-230
-203
-112
-94
-13
-15
8
144
37
-99
-238
-184
-101
-82
-14
-7
27
133
36
-90
-233
-177
-102
-88
-22
-8
55
134
17
-103
-234
-161
-106
-84
-21
-13
74
134
20
-112
-245
-157
-103
-82
-20
-14
93
118
15
-122
-244
-140
-92
-66
-15
-14
97
120
3
-117
-249
-140
-94
-58
-16
-8
107
109
-3
-132
-251
-132
-100
-55
-10
1
128
100
-17
-145
-255
-131
-83
-58
-29
-11
134
112
-11
-138
-255
-129
-90
-49
-22
-20
135
96
-32
-134
-251
-125
-106
-42
-14
0
143
97
-35
-160
-248
-117
-107
-51
-12
-4
139
79
-57
-207
-248
-105
-104
-33
-20
7
152
68
-61
-209
-236
-119
-109
-22
-5
-4
138
66
-75
-226
-213
-105
-104
-6
4
17
156
46
-95
-236
-206
-103
-84
1
3
22
148
41
-99
-223
-171
-88
-69
0
3
59
158
43
-96
-237
-162
-104
-85
-12
5
65
135
10
-105
-237
-158
-98
-70
-2
-6
60
128
-3
-121
-249
-148
-98
-81
-21
-2
94
119
7
-131
-267
-142
-91
-65
-10
5
117
111
-7
-132
-255
-138
-100
-71
-26
-4
107
104
-13
-147
-249
-128
-83
-55
-19
-20
118
113
1
-128
-245
-111
-64
-46
-4
17
150
121
6
-110
-206
-68
-20
19
80
95
235
189
70
-53
-171
-64
-90
-76
-65
-60
92
46
-75
-197
-283
-141
-144
-67
-16
-7
146
85
-56
-215
-259
-111
-116
-31
-14
-9
142
74
-72
-215
-230
-114
-111
-6
1
-3
141
60
-78
-216
-209
-109
-105
-16
-20
-5
140
43
-83
-215
-190
-93
-89
-9
-8
22
146
40
-99
-239
-186
-98
-81
-7
5
52
150
34
-92
-221
-166
-98
-71
-4
16
73
147
34
-98
-233
-148
-84
-58
8
8
97
154
36
-91
-222
-129
-64
-55
11
40
135
163
45
-88
-206
-90
-51
-26
38
63
161
169
41
-68
-191
-65
-14
7
51
68
185
173
63
-64
-177
-66
-13
19
53
77
198
171
47
-90
-192
-65
-28
-7
35
40
179
145
19
-107
-218
-100
-81
-37
15
23
149
114
-4
-123
-233
-109
-100
-41
-12
6
152
95
-24
-156
-256
-118
-109
-41
-3
7
156
80
-56
-194
-242
-118
-110
-17
-1
3
148
69
-67
-203
-229
-115
-118
-14
-4
4
149
56
-76
-212
-207
-114
-94
-3
-7
-9
143
54
-75
-223
-196
-100
-89
-10
0
28
146
35
-101
-240
-184
-113
-97
-15
4
63
150
28
-103
-239
-170
-103
-78
-16
-9
57
140
29
-97
-234
-158
-92
-78
-18
6
87
142
13
-117
-249
-155
-98
-64
-5
-1
102
132
13
-121
-248
-145
-85
-64
-26
-7
105
123
12
-136
-251
-132
-94
-58
-12
-5
120
113
-5
-134
-251
-135
-83
-44
-10
0
129
107
-11
-140
-257
-125
-87
-56
-13
-2
126
95
-18
-134
-251
-130
-84
-45
-11
-3
141
87
-22
-150
-254
-115
-102
-71
-21
-4
148
94
-37
-165
-243
-114
-116
-37
-7
-4
154
92
-50
-207
-247
-121
-115
-30
-10
8
156
69
-74
-219
-227
-103
-109
-22
-7
1
154
62
-79
-226
-208
-105
-103
-3
2
5
145
49
-88
-225
-194
-105
-98
-19
-2
25
148
51
-93
-222
-171
-90
-79
0
-3
58
165
41
-95
-224
-158
-92
-75
-9
4
83
142
19
-112
-244
-157
-87
-82
-24
0
87
129
8
-122
-245
-155
-103
-77
-32
-8
110
130
8
-116
-243
-139
-103
-74
-22
-9
103
106
-5
-135
-257
-141
-92
-67
-18
3
116
102
-16
-137
-246
-133
-92
-79
-22
-3
134
105
-14
-156
-256
-115
-67
-31
-14
0
145
123
9
-117
-239
-93
-46
3
49
78
224
185
71
-40
-151
-16
-10
31
50
26
147
63
-86
-241
-312
-169
-148
-78
-32
-21
123
71
-54
-200
-248
-117
-127
-46
-6
-11
142
72
-64
-212
-229
-117
-111
-24
-4
4
146
57
-82
-221
-219
-120
-95
-10
-11
3
149
44
-103
-229
-198
-106
-88
-9
-10
32
145
29
-99
-241
-180
-100
-83
-9
0
57
157
36
-111
-237
-167
-99
-78
-5
8
81
153
27
-101
-231
-143
-91
-76
-8
5
98
146
29
-119
-232
-128
-70
-50
-4
15
141
153
36
-96
-212
-104
-56
-36
21
37
154
168
48
-77
-196
-72
-21
-4
39
49
184
170
55
-73
-184
-74
-23
6
48
67
204
166
38
-74
-179
-62
-20
-5
28
50
184
145
29
-90
-200
-80
-55
-17
13
27
166
113
-9
-131
-243
-99
-84
-42
-15
1
154
104
-30
-174
-249
-111
-114
-54
-10
0
151
84
-54
-207
-249
-112
-108
-21
-9
-1
155
77
-72
-216
-230
-116
-116
-12
-19
0
147
55
-93
-221
-203
-103
-101
-7
-9
6
150
49
-99
-235
-189
-113
-98
-7
-8
20
144
33
-104
-240
-183
-106
-91
-25
-11
66
149
21
-118
-248
-176
-113
-85
-20
2
70
145
23
-111
-255
-168
-109
-69
-13
-2
91
138
4
-130
-255
-155
-86
-68
-21
-1
103
117
3
-128
-258
-148
-94
-61
-6
-1
109
109
-15
-136
-244
-137
-91
-67
-31
-5
124
104
-8
-137
-252
-141
-84
-57
-24
-5
132
104
-12
-133
-251
-123
-91
-49
-22
-8
137
90
-31
-148
-254
-129
-106
-59
-17
6
143
89
-28
-150
-262
-118
-108
-54
-14
-13
150
99
-31
-173
-265
-121
-120
-45
-11
-10
144
85
-53
-207
-243
-119
-113
-20
-14
-13
135
61
-72
-212
-233
-123
-105
-16
-11
-5
152
62
-80
-221
-204
-122
-111
-21
-6
3
143
39
-90
-236
-204
-105
-88
-6
-1
22
138
27
-109
-241
-181
-103
-84
-12
-5
45
139
21
-109
-244
-159
-92
-74
-4
3
87
150
27
-108
-242
-152
-83
-65
-11
7
98
144
14
-124
-248
-137
-89
-82
-29
-4
116
122
0
-127
-259
-149
-97
-70
-29
-5
108
95
-14
-138
-256
-133
-98
-75
-25
-4
123
103
-12
-143
-264
-138
-90
-66
-34
-11
131
95
-18
-142
-253
-128
-99
-65
-29
-13
135
85
-34
-147
-272
-121
-98
-58
-28
-10
142
100
-16
-126
-242
-103
-85
-27
8
31
188
124
7
-126
-169
-29
0
70
94
99
252
165
20
-147
-227
-134
-152
-78
-61
-64
100
24
-116
-248
-243
-130
-125
-31
-9
-15
145
44
-88
-229
-216
-116
-110
-25
-2
7
142
33
-104
-239
-183
-111
-97
-6
-8
37
142
24
-111
-252
-184
-108
-87
-14
-7
61
139
17
-105
-251
-180
-104
-75
-7
10
80
123
-1
-126
-237
-135
-92
-72
-8
-3
91
133
10
-114
-237
-143
-90
-63
-18
10
119
126
4
-119
-229
-124
-80
-52
-7
11
126
118
15
-106
-220
-100
-57
-31
12
29
149
143
14
-105
-212
-81
-44
-13
39
57
194
165
41
-89
-200
-68
-26
14
48
65
199
163
44
-86
-204
-66
-23
11
52
71
209
151
23
-97
-206
-72
-59
1
41
42
187
120
-11
-172
-236
-85
-76
-15
4
16
157
86
-53
-199
-226
-100
-108
-21
-13
-5
141
60
-78
-225
-215
-107
-93
-9
-11
-3
149
46
-102
-241
-208
-103
-91
-10
-4
13
139
38
-98
-238
-189
-103
-87
-8
-11
19
115
23
-99
-240
-177
-109
-89
-24
-11
58
144
10
-127
-248
-164
-108
-76
-20
-8
67
124
5
-131
-251
-156
-110
-82
-28
-3
94
116
2
-120
-248
-153
-100
-68
-10
-10
103
106
-7
-140
-265
-150
-101
-70
-21
-10
112
103
-7
-140
-260
-146
-98
-66
-20
-4
117
97
-16
-140
-262
-139
-96
-61
-12
2
128
96
-25
-145
-257
-137
-94
-64
-18
-3
137
103
-28
-156
-270
-134
-105
-67
-38
-12
136
86
-32
-160
-251
-135
-115
-39
-11
-10
146
73
-67
-204
-252
-124
-120
-34
-13
-3
141
71
-70
-215
-239
-123
-129
-25
-5
1
151
50
-86
-224
-220
-119
-111
-24
-21
-10
133
19
-97
-217
-196
-111
-102
-19
-17
12
141
31
-111
-245
-190
-113
-95
-24
-19
34
137
23
-110
-239
-182
-107
-88
-18
-13
55
138
-1
-116
-238
-169
-102
-83
-35
-20
69
129
11
-134
-252
-145
-101
-87
-14
1
100
130
2
-122
-239
-143
-101
-63
-8
3
115
127
16
-122
-241
-136
-95
-74
-24
-5
107
99
-11
-139
-269
-139
-101
-77
-43
-2
127
91
-28
-140
-254
-138
-96
-66
-27
-4
120
91
-28
-155
-262
-136
-102
-67
-32
-8
132
81
-33
-147
-257
-125
-118
-74
-34
-5
147
83
-40
-167
-259
-130
-125
-50
-19
-21
147
98
-48
-186
-234
-102
-107
-25
8
7
160
89
-43
-179
-191
-65
-46
68
88
91
242
154
21
-122
-141
-61
-86
-27
-53
-60
87
-4
-138
-279
-239
-139
-111
-32
-26
8
137
37
-115
-250
-195
-115
-98
-25
-7
47
139
21
-110
-238
-179
-103
-78
-19
-15
48
134
17
-115
-251
-160
-104
-80
-19
-13
70
131
10
-132
-240
-148
-111
-80
-17
-12
101
115
4
-130
-252
-139
-85
-73
-16
6
111
120
-1
-132
-253
-139
-84
-59
-2
9
131
124
0
-133
-247
-127
-90
-55
4
18
147
118
8
-119
-233
-107
-73
-35
9
29
159
129
18
-104
-222
-85
-52
-9
29
56
203
148
27
-76
-200
-66
-38
7
41
63
213
155
27
-96
-168
-41
-43
5
53
62
212
150
12
-140
-175
-52
-53
17
37
40
189
114
-31
-176
-211
-94
-87
14
23
20
168
85
-59
-214
-209
-97
-87
-5
-5
13
153
49
-86
-225
-199
-108
-83
-5
-8
31
160
50
-88
-253
-198
-115
-84
-11
-2
40
132
16
-97
-233
-162
-98
-92
-18
-8
65
146
13
-119
-245
-146
-93
-84
-17
-3
87
125
1
-126
-247
-155
-102
-76
-20
-5
88
108
2
-117
-252
-159
-93
-61
-15
-5
106
112
5
-132
-256
-147
-82
-62
-25
-3
117
105
-20
-140
-252
-131
-90
-63
-13
9
127
94
-32
-145
-250
-129
-89
-61
-27
-6
143
101
-25
-137
-255
-136
-99
-45
-9
2
133
91
-27
-145
-252
-116
-109
-46
-17
-2
145
89
-36
-174
-249
-119
-121
-50
-10
-3
135
80
-44
-200
-245
-117
-106
-20
-7
0
141
70
-75
-218
-229
-111
-99
-15
-5
-1
149
66
-89
-227
-211
-114
-104
-16
2
17
151
42
-88
-231
-190
-103
-101
-23
-9
28
148
38
-101
-240
-178
-111
-77
-5
5
49
137
18
-112
-232
-165
-108
-86
-9
7
82
143
16
-121
-228
-128
-80
-75
-23
-7
91
135
10
-108
-232
-139
-75
-61
-8
13
112
132
14
-118
-244
-143
-89
-72
-20
-6
117
110
-10
-132
-243
-137
-102
-60
-17
1
132
104
-15
-143
-255
-132
-90
-60
-26
-5
131
94
-18
-148
-254
-134
-95
-59
-20
1
132
102
-21
-146
-253
-119
-97
-56
-25
-4
135
92
-28
-146
-258
-121
-105
-37
1
27
165
101
-19
-163
-244
-98
-81
-7
18
43
214
149
28
-114
-139
-11
-9
76
87
85
220
102
-72
-246
-270
-164
-156
-63
-47
-39
126
37
-90
-242
-219
-121
-109
-10
-1
22
148
38
-104
-243
-194
-113
-92
-16
-3
32
149
36
-99
-254
-181
-105
-76
-10
-10
55
150
28
-114
-254
-170
-106
-71
-11
-4
81
145
15
-115
-240
-152
-86
-69
-15
0
97
131
21
-113
-238
-127
-83
-67
-14
3
109
110
4
-123
-228
-125
-83
-50
-13
7
134
126
9
-115
-237
-124
-74
-36
6
30
149
133
19
-115
-226
-94
-49
-17
32
43
172
142
31
-87
-202
-58
-25
1
41
56
197
155
38
-92
-204
-61
-31
22
61
66
213
160
46
-79
-187
-49
-46
21
45
56
202
141
14
-138
-201
-79
-72
11
34
28
177
111
-32
-180
-210
-90
-98
-8
3
17
155
82
-65
-215
-209
-97
-89
1
0
-3
151
56
-90
-227
-197
-95
-88
-3
0
20
144
38
-90
-230
-187
-115
-92
-5
6
47
137
30
-98
-228
-165
-106
-86
-10
0
66
144
22
-121
-253
-163
-99
-82
3
12
79
130
10
-118
-238
-150
-94
-63
-11
-14
96
133
0
-131
-239
-138
-93
-74
-17
0
112
121
-1
-132
-245
-143
-84
-59
-16
-13
105
111
-1
-122
-255
-134
-89
-69
-18
4
127
105
-6
-133
-249
-138
-95
-70
-20
2
139
106
-9
-141
-253
-111
-75
-54
-20
3
146
96
-34
-139
-249
-118
-95
-50
-19
4
143
82
-37
-147
-255
-113
-99
-34
-5
-5
140
77
-44
-198
-255
-114
-111
-30
-9
-9
149
75
-54
-205
-227
-114
-116
-30
-4
9
157
67
-78
-211
-203
-113
-110
-22
-8
2
145
57
-87
-229
-203
-105
-92
-9
-3
29
149
42
-102
-235
-184
-110
-100
-18
-2
57
148
33
-101
-227
-158
-93
-83
-11
0
72
153
30
-103
-241
-154
-91
-63
-9
14
96
147
35
-111
-243
-140
-79
-60
-17
-2
105
131
8
-126
-246
-146
-95
-75
-26
-4
112
120
3
-128
-243
-138
-92
-63
-21
-7
118
104
-5
-137
-256
-130
-84
-61
-17
-5
118
88
-22
-137
-253
-123
-88
-59
-22
-5
132
97
-23
-146
-268
-127
-79
-54
-11
5
155
113
-10
-121
-241
-104
-66
-17
16
27
183
153
31
-83
-163
-17
-11
58
94
93
237
175
9
-191
-264
-155
-172
-81
-56
-43
110
42
-87
-228
-249
-126
-114
-16
-13
-4
142
53
-86
-217
-213
-108
-101
-7
-15
-4
143
52
-89
-234
-205
-101
-97
-12
2
21
147
38
-83
-232
-189
-101
-78
-10
-4
34
141
34
-96
-233
-160
-97
-87
-9
13
71
145
24
-103
-241
-166
-91
-66
-6
1
92
146
23
-116
-240
-136
-81
-63
-10
20
119
142
29
-113
-226
-135
-89
-51
17
28
124
138
26
-103
-208
-99
-56
-26
20
40
166
144
22
-87
-197
-83
-32
-5
37
59
193
158
55
-66
-179
-63
-20
25
57
69
204
170
55
-68
-186
-57
-31
23
47
62
215
160
25
-83
-202
-72
-50
-2
24
32
176
124
3
-138
-229
-96
-89
-17
9
15
164
102
-40
-193
-239
-95
-105
-15
3
3
149
80
-62
-208
-225
-107
-105
-16
-2
5
151
61
-76
-214
-212
-105
-92
-4
-11
10
156
50
-93
-228
-197
-107
-95
-18
-6
35
149
44
-93
-227
-181
-99
-87
-16
2
50
140
27
-110
-250
-169
-97
-69
-16
-2
70
152
27
-120
-250
-162
-96
-77
-9
-2
78
136
17
-116
-249
-160
-99
-65
-9
-1
98
132
11
-121
-240
-134
-102
-70
-16
3
120
112
-2
-129
-254
-142
-87
-52
-10
8
126
109
-5
-134
-250
-134
-83
-60
-26
4
132
108
-5
-150
-262
-124
-75
-46
-17
3
139
101
-13
-135
-247
-122
-79
-53
-24
1
146
102
-21
-139
-253
-117
-113
-52
-7
-3
152
103
-34
-165
-256
-110
-105
-49
-16
-10
147
95
-40
-193
-243
-117
-112
-28
4
4
148
68
-58
-201
-224
-103
-108
-8
-1
8
157
64
-77
-218
-207
-112
-86
0
6
8
150
57
-80
-216
-181
-93
-82
-3
15
38
162
57
-85
-211
-165
-88
-74
7
6
54
152
29
-100
-230
-173
-112
-88
-5
8
75
138
22
-107
-240
-167
-98
-77
-15
-1
86
135
23
-126
-255
-155
-88
-63
-21
-11
97
126
10
-118
-247
-142
-101
-72
-19
-3
103
111
-2
-135
-238
-135
-92
-63
-15
3
122
108
9
-115
-227
-118
-76
-39
1
25
156
142
30
-78
-181
-47
8
50
89
104
241
199
79
-64
-202
-109
-104
-80
-64
-54
99
44
-78
-183
-274
-127
-110
-61
-31
-10
145
93
-35
-171
-271
-136
-115
-47
-10
1
152
83
-48
-198
-246
-119
-107
-25
-12
0
144
74
-67
-214
-231
-109
-108
-11
-2
1
155
68
-84
-212
-201
-106
-105
-7
0
13
160
59
-74
-223
-190
-104
-87
-15
-4
30
151
58
-86
-224
-178
-94
-78
-2
21
59
163
49
-89
-212
-145
-97
-77
2
18
95
167
52
-86
-217
-129
-64
-37
30
36
117
167
49
-70
-199
-102
-55
-14
38
54
159
194
67
-74
-194
-74
-22
3
58
73
185
195
70
-56
-175
-59
-6
1
55
66
190
174
61
-67
-184
-61
-30
-16
21
49
171
135
32
-96
-216
-104
-62
-43
-11
20
161
120
-6
-127
-237
-106
-76
-45
-12
9
154
109
-16
-123
-255
-120
-96
-46
-16
-4
152
101
-34
-165
-255
-115
-96
-41
3
12
145
87
-42
-200
-249
-110
-104
-23
8
10
142
60
-87
-201
-226
-106
-106
-11
-8
-6
154
61
-71
-212
-205
-114
-96
-12
-4
7
151
44
-96
-227
-197
-108
-94
-6
1
28
148
35
-96
-237
-180
-89
-85
-4
-6
52
147
32
-101
-233
-171
-115
-92
-12
1
69
143
19
-115
-243
-149
-93
-71
-16
-4
85
132
13
-127
-245
-145
-88
-74
-15
6
114
130
1
-119
-243
-131
-92
-70
-28
-2
120
118
-3
-129
-240
-132
-95
-68
-20
1
120
115
-2
-131
-258
-142
-89
-58
-16
1
135
102
-14
-138
-258
-118
-90
-61
-19
-11
139
104
-25
-138
-244
-126
-88
-50
-20
-2
145
96
-27
-154
-262
-115
-96
-52
-29
-4
151
91
-35
-162
-245
-114
-107
-49
-5
1
135
74
-49
-205
-256
-110
-111
-25
-5
7
164
86
-55
-201
-223
-108
-114
-29
-14
0
157
70
-70
-211
-213
-101
-91
-8
10
12
153
55
-80
-220
-183
-88
-82
4
8
38
156
50
-88
-222
-176
-93
-84
-24
-4
52
145
26
-101
-238
-170
-101
-77
-24
-7
59
139
21
-103
-236
-159
-98
-77
-22
-10
81
131
6
-121
-249
-152
-102
-82
-18
0
95
120
-2
-123
