-5
2
-2
17
9
4
1
6
-3
7
9
19
-3
6
11
13
1
9
6
6
13
2
4
6
9
7
-3
1
-4
5
6
10
4
13
17
7
8
12
5
11
10
12
5
0
9
15
15
3
5
2
-3
3
21
7
2
2
4
-6
-1
8
5
4
8
8
15
6
1
1
6
10
7
-2
5
7
1
13
8
4
7
8
2
9
11
2
0
-8
-14
-1
15
3
-2
30
14
-14
-5
2
-11
2
4
24
22
5
-3
2
-9
3
5
5
-10
-2
24
5
5
10
23
12
8
14
-4
-11
-6
17
2
3
18
-4
-5
7
5
-3
13
13
16
10
6
11
0
18
24
20
28
35
31
9
12
-5
7
9
15
8
20
10
5
10
3
1
2
0
0
8
7
-3
13
2
-8
5
11
-7
-1
6
-2
-17
-7
-9
-11
12
6
-11
-1
36
44
30
62
103
154
189
186
183
169
160
132
122
106
79
47
17
5
3
4
-5
-10
1
4
6
-7
10
14
0
8
3
2
-9
-1
0
1
3
5
5
9
-2
4
2
-8
5
13
-4
2
-6
-2
8
1
-8
-11
3
28
7
-8
0
-9
-2
-6
12
-6
5
21
10
-1
12
1
7
18
19
11
2
0
13
17
9
14
5
26
15
6
10
16
19
16
10
17
1
15
11
5
20
19
27
9
2
21
31
29
33
19
18
26
39
40
31
46
37
30
42
46
54
50
41
37
33
40
44
59
50
47
50
68
60
49
43
44
42
57
38
45
37
45
36
35
30
18
29
43
42
29
16
3
24
35
22
7
16
5
19
-2
2
11
7
14
18
28
10
-1
-7
-3
11
13
4
10
9
1
20
12
13
-5
-8
-1
2
-7
-8
18
21
9
16
16
-1
-9
-24
11
10
22
9
-2
2
-12
23
4
0
14
9
-2
4
2
16
8
14
14
-4
8
17
16
19
-14
5
18
1
-5
8
-3
-2
-7
3
5
9
-5
15
-3
20
22
2
3
6
15
14
5
2
3
0
-5
2
17
14
13
9
1
-13
-14
3
10
3
0
6
9
13
11
17
-3
1
-15
3
21
18
-1
9
12
9
1
-13
1
15
13
8
20
2
-14
-19
3
2
1
10
6
-2
20
2
7
-9
-10
17
1
-2
17
6
0
10
6
1
-6
-18
-17
4
13
-1
-4
8
10
0
2
9
3
5
4
14
19
19
31
24
25
8
0
-12
6
21
7
19
18
10
-8
23
20
17
9
23
15
13
-19
2
7
5
12
-4
-1
7
-17
-5
14
10
1
0
-8
-17
-21
-19
-20
10
11
3
-25
-10
-12
10
8
4
-2
15
32
60
64
92
126
164
200
196
176
152
155
133
98
79
40
25
-11
-2
-17
-1
-4
-3
6
4
-30
-19
-8
-15
-12
-20
-5
16
16
4
-14
-8
5
2
5
-27
6
8
3
-1
9
-7
10
-6
-9
14
5
-3
-10
7
5
16
18
9
23
13
32
-9
-18
-3
3
8
1
16
-5
-8
-6
3
-6
-5
-1
8
11
10
10
6
1
12
27
27
4
7
10
16
5
19
7
19
17
26
25
33
20
9
27
34
20
32
19
41
43
48
55
16
44
47
27
25
31
46
38
38
46
56
45
60
39
39
44
46
39
57
41
48
49
39
21
46
49
58
44
34
33
24
21
35
23
23
29
12
12
21
34
25
19
26
27
12
3
-4
-2
17
-3
3
6
-3
-1
4
-4
-13
10
4
14
8
4
2
20
-1
-2
-2
-7
-14
-7
4
6
9
4
-2
-3
25
14
-10
-1
5
7
3
0
5
2
-5
5
1
9
13
12
11
3
-1
-8
-10
18
0
19
1
5
4
-3
-4
5
-1
17
20
4
-8
14
11
17
10
5
-5
8
-6
-6
13
17
-1
-5
-10
4
18
20
11
-5
1
6
-3
3
11
-1
1
0
8
-15
16
21
-1
10
-5
2
-4
18
2
11
14
22
7
3
-12
-16
6
14
10
12
10
7
9
8
3
14
5
29
-6
-14
6
2
13
8
-4
-1
12
12
13
25
-3
-6
14
8
20
6
19
22
5
-2
7
12
-1
13
13
5
2
9
4
1
12
13
23
14
13
-11
-8
-13
-19
-10
-2
-15
-28
-19
-19
4
1
10
4
-16
6
-2
0
2
-15
-12
2
-5
12
43
41
63
93
114
146
165
152
160
157
163
126
100
73
21
-14
-18
-21
-17
-10
-10
-8
0
-13
-15
-25
-13
-6
-6
-24
-12
7
4
4
-4
4
3
13
23
5
-2
-7
-4
1
-5
-2
5
-1
-9
-12
7
3
-5
10
8
11
-4
-8
-10
5
26
13
1
-10
11
-1
11
10
15
7
0
3
13
-4
-7
9
-4
10
5
1
9
5
-1
-7
-14
-8
25
21
21
13
23
27
21
5
3
24
47
28
23
23
16
30
40
22
37
43
56
52
40
49
43
39
51
31
47
62
45
34
24
41
42
45
29
44
39
53
42
51
42
48
43
45
29
27
33
43
38
28
18
28
27
36
30
17
17
12
9
26
17
11
9
13
20
3
15
8
22
2
-5
7
-2
-8
14
1
-5
-12
-5
-10
7
11
14
-4
-15
-8
-4
-16
-16
-9
17
6
-3
7
1
10
-1
-16
-8
-4
20
24
4
-18
-10
13
9
13
9
0
-1
-1
7
-1
15
11
5
4
1
4
10
17
-1
10
-4
10
1
3
-3
14
-10
-1
6
16
2
-16
-4
1
1
0
-7
-2
10
29
7
-9
-17
2
12
8
-2
-8
-8
2
5
15
7
4
12
18
35
21
9
14
-2
5
14
-7
6
3
-7
-2
0
-1
7
5
6
2
-18
0
9
10
4
15
12
7
18
-5
-2
-3
-24
0
27
4
10
2
11
38
27
23
4
10
2
10
23
6
1
-7
4
7
8
5
3
-11
-11
14
19
3
-2
8
13
-1
-6
3
-13
-5
-4
-16
-6
-17
-16
-10
-12
-13
6
-10
5
17
17
33
74
110
148
163
171
183
163
166
163
149
123
105
29
-4
-10
-11
-21
-5
-1
-14
-3
-1
-9
3
-7
-8
-10
-6
0
-6
0
-14
4
-4
7
0
-6
-3
3
14
13
1
-4
2
-17
-16
-5
5
5
-2
1
0
2
-4
-9
-6
-4
8
-4
3
19
24
20
13
24
22
-5
21
4
16
9
-11
4
2
11
9
0
1
14
4
11
22
3
5
1
23
17
5
20
6
-8
37
26
10
11
30
21
26
35
36
36
37
33
42
32
15
17
18
42
38
43
39
63
63
48
57
43
37
55
58
57
46
53
36
51
52
36
54
35
26
21
23
18
24
30
34
29
32
38
20
-2
11
21
26
18
-1
6
4
3
13
13
11
6
7
1
1
12
9
8
5
-11
8
11
12
10
-15
0
16
12
1
-5
9
19
8
2
3
19
-8
-10
-6
28
12
-10
-22
8
10
10
14
-4
-7
11
1
-22
14
22
17
-1
-7
-14
0
5
6
-1
-4
13
20
16
11
13
-2
-2
7
-6
2
-1
-3
9
12
8
4
19
14
15
14
6
8
11
9
11
1
-18
-10
10
20
4
-18
-1
10
2
2
-11
6
8
16
-2
-2
-4
12
7
-5
2
-18
4
12
-1
17
16
11
22
19
1
-2
6
5
7
1
15
-10
2
20
16
0
-3
-4
-9
-10
2
1
-1
8
18
14
-4
12
12
7
16
0
18
8
11
20
27
7
15
23
11
-6
-5
28
19
11
12
9
-2
13
1
8
6
6
10
-8
-13
4
14
3
5
-6
0
-6
10
6
-1
-10
-15
-10
15
-38
-26
0
-14
-9
20
31
38
58
56
94
131
169
190
203
177
161
148
148
119
76
55
17
4
1
0
-16
-23
-11
5
6
3
3
3
5
1
-12
-12
13
4
4
10
-9
3
-4
-5
3
2
6
5
0
1
1
4
2
-6
-3
-5
2
8
11
-4
0
5
-2
9
-5
-3
6
4
14
10
5
5
20
15
6
11
5
-1
-5
5
21
-1
7
6
2
-9
18
10
3
3
17
11
10
6
23
31
33
26
23
24
20
17
16
16
37
31
17
46
38
47
17
29
31
33
43
32
47
47
17
34
53
46
42
42
57
43
50
63
48
35
46
56
38
28
42
48
43
58
40
32
23
18
34
43
43
31
28
25
40
46
28
7
1
19
27
5
4
-6
8
7
0
3
6
9
6
19
22
10
-4
11
9
19
-6
-8
18
13
21
5
-4
6
13
19
7
6
4
11
18
3
3
2
1
14
14
6
6
11
6
-1
-2
-1
10
9
2
16
22
10
9
14
7
5
-5
15
33
-5
3
10
5
16
8
11
18
-2
7
13
14
13
4
-3
6
13
9
12
8
20
26
14
20
-5
14
14
5
26
16
-4
-12
5
20
14
3
8
33
22
19
15
-5
-4
6
5
3
1
0
-7
-2
19
19
20
15
-7
-5
5
21
4
-5
4
23
22
25
16
7
11
20
6
8
21
12
15
10
13
1
-9
-14
-1
18
16
19
10
9
15
-2
10
3
4
17
26
16
16
6
2
9
0
9
17
2
0
27
18
7
24
15
15
33
24
6
45
30
28
41
32
-2
8
8
0
6
33
21
25
26
25
13
6
3
11
-6
7
23
10
12
17
16
8
14
3
-1
-6
-15
-6
-15
4
17
-1
-9
-18
21
22
35
75
85
120
152
191
217
210
179
152
139
140
119
113
29
17
10
2
-4
-8
-3
4
12
4
-5
-7
12
15
15
14
20
0
-12
15
25
-8
-13
1
15
23
-1
2
24
24
8
3
8
9
1
6
16
-12
13
21
26
12
16
22
35
18
0
-6
6
17
9
12
16
19
25
12
7
7
20
25
22
8
10
-20
4
23
9
17
23
31
11
9
32
26
28
40
44
20
20
14
22
32
20
23
39
35
40
29
28
43
37
52
44
31
46
61
38
35
45
52
48
44
48
37
39
74
72
67
62
57
52
48
37
56
73
49
46
47
49
38
52
48
20
25
41
59
50
37
40
27
14
25
27
16
14
24
38
28
11
18
29
20
13
7
26
20
24
25
23
20
5
11
6
12
19
19
17
7
13
-6
-6
8
22
30
18
24
7
3
0
11
9
6
29
18
25
15
16
20
12
26
3
15
21
15
25
4
15
33
7
13
8
13
19
2
5
10
9
11
15
22
21
28
28
27
32
34
24
11
9
5
7
16
13
20
-6
27
14
27
31
-7
16
33
9
-5
10
34
24
10
5
1
12
31
34
14
7
3
11
13
20
20
10
19
25
24
31
19
47
16
11
9
19
12
11
8
5
18
24
24
7
7
7
11
12
20
19
4
2
11
12
11
12
1
13
14
16
38
19
19
35
13
6
8
12
18
40
7
24
19
22
19
4
13
13
7
14
9
15
26
16
20
15
28
13
5
5
10
10
24
33
23
26
32
22
2
-1
8
39
37
23
23
41
41
30
39
22
16
34
25
26
21
13
31
20
17
29
20
19
35
21
22
12
-8
3
32
19
17
8
-3
-6
23
-4
-4
7
-4
-12
-6
-3
22
20
6
28
40
37
64
68
104
125
152
178
181
174
182
171
152
133
143
94
30
0
-7
-15
-13
-14
15
19
22
-1
20
30
28
18
12
10
7
5
6
11
11
24
18
10
17
5
25
23
26
12
-3
20
24
-3
16
6
32
43
19
21
30
23
18
6
18
33
35
27
13
34
22
15
19
19
38
46
30
29
52
37
20
43
23
18
30
16
43
34
38
48
52
54
46
41
36
33
46
65
45
44
70
50
68
64
53
47
59
67
51
66
73
57
62
83
75
61
55
56
51
64
66
69
69
55
48
61
44
47
50
48
40
30
38
23
40
43
33
26
26
22
34
38
14
-15
5
-6
30
36
47
38
37
24
1
15
22
30
9
18
20
29
18
15
29
12
25
39
18
26
33
19
13
14
14
12
11
15
24
25
18
2
16
11
17
12
3
-6
22
20
43
25
14
7
27
41
22
12
15
12
16
7
16
17
20
16
21
31
24
19
8
28
38
31
32
30
-1
12
31
43
19
15
31
38
26
11
11
17
3
11
26
23
34
22
13
12
13
16
26
27
23
27
10
20
30
23
22
26
19
9
20
18
31
10
17
23
26
9
31
28
16
21
20
22
13
33
22
20
13
27
18
20
25
15
23
8
7
-4
9
27
33
22
18
17
35
11
7
22
22
22
23
33
21
43
18
5
30
34
26
24
26
16
31
31
20
18
29
28
25
41
30
26
26
22
33
43
6
14
30
30
27
34
12
6
-1
20
10
13
6
24
18
24
28
19
15
17
21
33
14
17
9
-3
11
5
-7
1
9
14
7
11
43
37
59
87
111
145
177
173
154
140
151
177
151
141
113
53
12
2
-8
-5
-5
-6
5
7
18
19
36
-1
4
17
29
32
32
14
12
9
14
9
12
24
32
12
5
9
28
13
21
17
16
23
9
14
20
14
-1
6
2
-2
13
20
13
28
33
26
21
24
5
1
20
28
19
12
31
27
30
11
10
29
32
20
25
36
33
39
32
19
27
32
34
35
27
33
29
39
38
40
51
22
17
36
35
41
14
40
54
44
33
56
49
50
45
58
59
68
52
57
56
58
50
47
58
57
54
77
69
82
71
51
54
40
52
70
72
61
58
62
39
49
33
35
41
40
34
45
36
35
40
29
36
21
20
25
20
6
9
31
21
27
24
7
7
6
14
23
9
19
16
31
25
30
10
-7
34
36
25
13
26
27
7
15
-5
16
22
21
17
12
22
15
15
19
11
37
18
16
1
12
10
11
19
15
19
6
6
9
17
20
13
-5
5
8
38
17
22
23
29
21
23
38
20
18
40
31
2
-8
17
28
16
10
27
16
32
21
15
13
16
13
22
24
13
30
9
12
29
29
18
13
6
25
23
-3
-5
28
29
22
0
19
6
0
14
27
24
13
9
43
28
30
25
30
22
-3
17
31
17
-7
-7
2
0
-1
21
19
9
6
13
11
12
16
7
8
20
34
29
5
9
16
6
19
33
8
10
-2
22
44
21
1
7
9
16
20
18
12
-3
29
23
9
3
16
24
13
1
15
20
13
15
19
23
12
15
19
35
11
25
28
15
-3
20
19
28
23
36
45
37
23
32
37
30
34
16
15
17
20
15
4
4
19
11
14
18
13
11
-2
12
12
6
6
17
16
10
5
5
7
5
5
5
-5
-14
9
24
45
53
82
116
130
135
194
214
175
186
175
137
152
116
68
34
15
-5
-4
-9
-6
0
17
17
14
11
15
20
11
10
16
13
0
17
14
11
19
10
17
4
15
4
10
12
16
-9
-2
5
15
14
4
24
27
12
-2
-8
7
4
29
32
14
15
18
7
10
24
17
26
6
8
11
16
15
26
13
11
9
31
31
28
22
8
12
25
35
23
32
38
16
23
18
27
22
16
11
23
16
20
40
23
35
47
48
38
42
42
43
45
43
56
50
60
37
25
56
59
50
46
53
53
44
39
62
63
67
67
71
46
43
43
51
62
41
55
55
53
43
49
52
36
33
53
36
28
22
30
39
45
29
22
36
25
18
-5
7
24
29
10
17
10
16
20
14
16
22
26
0
7
7
-9
16
6
0
18
20
8
20
30
15
14
22
20
25
26
12
12
14
20
13
28
12
2
-1
23
18
18
21
10
15
0
21
28
4
8
14
17
6
5
-5
11
30
19
6
24
22
22
9
8
9
16
24
11
18
13
22
10
8
13
22
5
26
23
31
18
29
20
18
21
20
-6
-13
21
18
16
16
-1
13
19
22
12
11
3
13
19
21
9
10
9
12
4
13
31
22
23
20
9
8
24
18
4
14
24
17
13
18
15
4
9
3
15
27
-3
0
33
15
12
20
18
16
11
16
37
7
0
4
24
9
-3
9
4
30
17
8
12
10
2
-2
5
24
15
6
26
19
11
19
32
12
16
19
2
-6
22
32
8
-3
18
11
9
22
16
-5
21
11
16
21
13
14
22
13
30
5
-5
14
29
7
10
14
14
15
24
32
22
28
32
11
13
18
34
25
26
39
24
24
15
25
12
24
35
24
26
20
20
19
0
11
5
20
18
3
12
34
17
-15
6
10
14
0
-11
-3
8
9
0
7
11
-3
5
29
31
25
58
76
99
142
162
164
191
188
180
156
148
139
119
80
31
44
9
-2
20
-5
3
11
-1
-10
8
21
8
27
-15
2
14
19
6
4
6
21
12
-11
4
15
23
14
0
5
21
22
4
29
30
7
17
14
16
6
-3
-10
-2
26
-2
-4
10
16
29
27
27
23
6
15
25
24
26
20
7
9
19
16
9
18
28
23
19
10
-10
15
21
23
24
17
36
31
21
26
22
15
20
45
46
43
20
18
43
41
37
22
39
48
39
32
61
59
41
51
39
57
49
73
55
66
53
61
53
58
49
56
55
37
38
46
46
57
55
66
71
68
58
53
45
42
66
45
36
26
23
22
16
12
36
33
39
35
12
28
40
26
11
2
22
14
9
10
3
-4
20
5
2
11
11
-2
35
31
62
13
-2
3
26
30
31
3
13
8
0
9
9
8
12
12
4
22
19
23
21
18
9
17
15
3
-1
20
29
16
29
21
28
12
17
19
16
32
17
-1
-29
28
23
8
-1
16
15
13
18
7
20
17
21
17
1
25
31
27
30
34
7
-6
30
41
9
-3
21
18
19
22
13
33
21
27
13
24
21
12
-14
18
24
6
16
23
20
19
7
14
12
13
9
9
32
8
16
5
-13
9
15
1
28
18
0
5
8
34
14
7
0
12
35
6
25
26
31
15
19
29
33
12
14
38
-7
6
-4
0
15
33
34
7
2
16
27
17
24
14
14
20
9
33
22
6
29
6
0
13
19
0
-6
4
25
42
23
28
0
-2
18
36
11
7
19
14
0
-16
10
30
24
21
26
30
24
0
21
20
31
18
29
34
41
41
38
23
24
36
16
-6
0
20
45
34
54
51
14
23
22
26
20
21
26
10
0
6
24
21
11
8
30
17
26
15
14
16
14
6
17
-2
-2
25
35
11
8
14
8
18
24
16
25
41
54
74
122
156
192
208
176
173
167
142
159
119
105
51
14
11
0
23
10
3
-8
-2
-7
-5
12
33
27
22
20
22
12
24
13
23
26
2
25
13
11
11
7
9
3
27
15
5
14
20
36
42
29
2
17
10
26
12
5
9
11
6
20
33
33
29
16
1
-3
11
16
30
12
23
29
31
28
32
27
23
13
34
12
41
13
23
26
35
32
32
31
47
35
46
23
35
40
34
30
40
32
47
32
30
30
49
41
44
64
56
50
56
65
65
67
63
49
58
45
68
60
59
54
69
76
81
74
54
40
59
65
63
69
61
60
59
63
62
50
32
41
39
24
27
28
50
48
31
37
31
29
10
30
47
35
35
23
16
12
25
11
27
17
18
18
12
-9
16
30
30
25
33
36
25
30
18
-9
4
17
8
34
19
12
10
27
21
18
29
14
16
10
18
27
26
14
28
28
20
7
17
3
24
12
12
14
14
7
28
29
34
21
31
22
-6
15
15
29
28
25
20
23
12
15
24
26
20
18
21
12
22
21
15
14
21
13
19
25
35
31
24
25
6
1
39
24
9
17
30
40
14
17
26
30
18
3
35
20
21
26
21
21
26
33
23
22
20
17
12
4
-3
-1
1
37
30
10
4
-1
-1
33
22
21
29
9
14
26
21
14
27
21
35
27
22
19
35
34
29
20
6
28
16
13
35
17
19
26
17
-6
9
11
36
34
31
30
26
15
13
31
22
27
48
31
31
6
21
25
24
32
32
44
36
30
35
35
39
26
6
17
26
17
9
23
14
18
22
35
31
29
10
9
10
16
2
24
9
12
5
4
7
0
-8
-4
7
25
39
53
67
73
113
139
163
190
174
164
182
154
138
133
117
60
26
22
-8
-1
-21
6
18
9
-4
10
-5
11
20
9
11
4
13
22
16
5
-4
4
34
12
26
19
11
12
33
23
47
32
25
22
7
16
14
13
14
18
27
33
22
20
33
7
21
16
29
20
28
26
7
30
25
27
11
-1
7
29
46
32
21
18
20
17
22
24
26
31
38
29
32
33
30
45
40
31
45
26
39
46
39
43
39
54
50
61
24
29
39
65
51
35
60
48
69
63
80
72
52
40
69
71
71
59
54
61
53
70
65
75
74
58
65
64
62
75
63
45
41
39
59
75
65
49
35
23
52
39
24
31
38
18
27
20
44
36
18
17
7
8
26
33
33
9
21
28
12
15
14
14
11
9
-7
19
17
21
18
25
34
44
39
27
6
25
30
19
13
3
15
13
22
25
27
31
18
8
8
3
23
12
37
20
14
12
7
24
13
17
21
31
10
22
21
29
9
16
20
38
30
32
16
15
17
28
34
21
15
32
27
30
26
19
14
23
19
11
15
24
19
10
16
15
20
24
23
28
40
42
32
13
14
30
18
6
9
23
18
10
3
11
23
1
6
23
12
21
20
36
51
17
0
27
25
23
17
3
10
13
22
30
16
29
44
26
14
21
29
17
10
24
16
7
1
9
15
23
25
13
14
15
17
7
29
26
10
16
15
19
14
21
29
24
37
23
42
32
35
30
30
40
39
32
24
26
30
37
31
28
2
16
25
16
23
15
22
18
10
27
-2
-6
9
22
10
5
7
9
16
-5
6
-11
-8
-14
-8
-6
20
22
45
56
66
71
91
133
162
184
203
189
195
181
154
158
147
91
30
24
28
2
-11
-6
2
1
8
6
1
15
6
3
20
17
15
9
-4
-12
19
13
13
8
7
9
14
1
3
-1
22
31
15
21
21
30
29
25
14
17
17
9
15
11
33
22
16
11
1
22
29
12
3
9
25
21
17
12
5
14
8
15
3
20
30
14
21
23
23
10
20
35
26
20
34
-1
23
32
26
34
44
36
37
28
33
39
46
46
39
32
22
47
54
45
43
51
46
43
57
40
38
62
70
36
44
76
51
46
52
61
59
67
63
61
62
54
44
48
53
52
47
30
36
49
58
36
41
43
45
29
15
10
35
31
21
38
19
28
48
20
21
4
1
9
26
13
-3
18
17
9
25
13
12
12
5
25
29
15
6
22
8
-1
4
17
27
12
-4
8
16
12
12
26
29
28
30
39
27
5
5
2
8
2
9
9
24
26
2
1
19
18
29
26
5
16
16
3
8
22
24
7
24
23
29
17
15
0
11
20
-1
25
8
6
14
15
29
15
7
14
12
13
9
27
31
22
23
29
6
-2
-2
21
32
37
13
15
7
13
6
17
13
16
0
-2
28
22
18
25
26
19
11
5
26
23
13
8
1
5
15
27
14
9
14
7
10
28
15
3
8
2
11
10
-6
0
31
18
23
20
27
5
8
11
11
6
12
8
23
15
16
3
18
13
18
18
37
28
28
20
17
13
10
17
38
33
27
16
19
33
7
24
42
48
28
4
16
6
14
19
13
-7
8
13
12
2
-11
32
18
7
15
28
22
11
1
-9
8
24
10
-9
-4
-4
-15
9
11
9
17
25
56
74
93
123
163
193
214
200
183
177
141
141
101
100
39
29
0
-4
13
16
11
0
1
3
-3
10
8
10
-4
8
4
23
15
4
-6
2
11
6
10
10
13
9
4
35
31
18
4
6
5
14
8
1
9
15
7
3
22
8
4
9
26
19
26
28
14
6
11
13
14
34
28
13
5
28
-5
8
25
6
0
18
13
14
23
18
19
25
35
26
22
6
3
16
18
24
39
37
31
35
44
43
41
39
46
50
30
36
44
52
40
37
56
59
54
29
36
59
73
80
56
48
52
57
53
60
59
55
44
69
65
55
50
51
38
55
53
44
50
45
44
36
54
43
53
42
32
20
13
21
29
26
28
17
17
0
21
23
11
18
20
23
17
27
13
21
10
7
16
7
33
26
13
19
12
13
-1
3
18
1
11
27
20
22
15
24
31
26
9
7
10
22
19
19
13
36
21
16
27
-2
1
0
2
-17
21
4
8
20
9
17
2
5
29
23
4
16
20
39
25
15
23
21
24
5
5
23
18
32
29
12
21
27
6
17
24
22
25
6
13
10
11
18
15
13
7
3
16
14
25
27
20
27
9
11
5
22
10
10
7
6
12
31
40
12
-1
10
32
16
15
19
-3
8
11
16
17
11
26
21
-18
30
33
3
9
10
15
17
10
0
9
48
39
8
13
21
12
4
9
10
7
25
4
19
-1
3
24
1
1
19
15
0
18
29
28
10
26
31
28
5
17
30
39
27
28
16
22
23
23
33
24
33
38
50
47
0
-8
9
22
27
10
13
20
10
20
9
-5
12
7
16
2
9
4
14
22
17
5
-11
-3
11
5
-15
-12
-3
16
33
28
16
61
88
98
109
138
171
198
196
186
177
162
154
128
86
47
30
9
-4
4
15
-23
-3
12
11
-2
7
0
-6
8
38
3
19
17
14
5
-2
19
9
12
16
26
-3
3
11
9
9
14
3
19
25
31
11
29
24
-3
17
5
3
8
21
31
9
19
19
30
17
19
15
20
11
8
5
8
26
10
21
26
21
1
27
20
9
27
35
28
22
21
27
30
30
31
33
24
35
34
37
33
50
41
47
47
40
34
41
55
43
41
40
49
46
26
61
46
54
74
52
56
71
67
76
66
72
65
51
49
58
54
26
47
82
70
54
38
58
58
48
31
49
51
49
51
48
43
41
41
26
18
35
35
32
35
15
17
10
11
26
32
24
8
10
36
30
16
15
19
8
20
1
5
20
22
22
16
1
12
11
31
18
9
41
15
11
5
13
24
14
16
23
14
13
19
19
18
23
16
16
27
25
11
8
34
22
2
11
17
22
22
23
27
10
24
7
-3
10
16
21
17
27
14
23
30
32
11
14
16
13
12
11
11
10
-5
28
28
41
24
18
25
23
7
28
1
0
19
14
17
26
10
20
19
0
10
16
18
27
30
27
10
16
-4
7
13
33
12
13
27
9
15
15
20
30
10
8
21
-3
-5
11
17
9
26
17
7
27
29
-4
21
28
31
32
20
27
15
-3
28
16
30
45
33
14
23
43
31
24
20
29
29
23
21
28
3
1
26
20
6
3
9
0
-2
-8
22
22
29
14
6
19
28
10
17
-6
-7
14
21
17
16
9
-13
-2
-4
-6
11
19
37
42
63
91
103
148
152
155
163
161
141
120
113
97
61
23
8
-5
-17
-12
-6
-12
-8
-6
9
9
16
-4
7
22
0
5
9
23
13
-8
-7
19
32
19
23
20
11
0
4
8
11
0
19
10
13
11
6
16
32
31
14
1
22
10
29
18
6
22
16
13
17
10
-3
15
16
21
20
14
17
27
23
16
22
18
7
10
38
23
17
22
28
30
14
17
23
46
41
30
40
28
26
24
23
38
58
56
26
17
30
31
65
68
51
49
54
51
54
47
28
57
64
54
53
57
58
63
50
56
72
59
63
70
58
44
45
53
50
38
39
39
52
55
47
30
38
32
28
33
30
17
7
22
29
23
23
15
9
3
19
23
28
28
18
23
16
5
8
-4
12
26
21
21
5
16
12
13
11
4
3
0
7
11
2
12
12
20
14
8
5
4
3
26
24
-7
9
5
19
23
12
37
-6
11
9
10
20
41
-5
-2
6
11
36
24
1
9
22
21
15
9
5
29
5
15
-5
-5
29
19
13
19
18
26
33
33
27
20
4
2
4
24
9
4
8
-7
3
10
-2
22
9
11
27
12
24
23
28
41
23
9
0
15
-3
11
10
5
12
28
38
32
15
25
34
33
27
52
28
20
29
11
29
10
19
17
11
30
15
7
13
6
4
1
8
6
16
10
14
5
-4
10
-7
-6
5
-4
-4
-9
20
27
10
6
16
24
10
2
-2
0
15
12
37
45
64
94
124
142
164
178
170
178
164
155
141
104
63
23
-9
-9
2
-4
-8
-7
-21
-9
-11
-4
2
-3
18
20
2
18
9
2
24
-1
16
18
15
19
6
2
8
15
-14
30
15
0
20
14
36
33
27
22
12
1
9
13
11
1
13
-12
20
19
29
18
3
21
13
-4
2
-3
-4
25
34
19
26
17
32
28
30
18
17
9
10
22
31
47
33
19
35
37
12
25
38
47
42
47
33
35
39
33
32
26
13
27
29
35
61
35
44
58
62
54
48
51
61
48
54
52
51
46
55
70
62
63
67
62
41
49
46
47
39
57
52
45
39
57
38
38
23
16
28
23
28
20
22
19
11
7
15
20
27
32
24
12
9
2
2
1
-3
13
22
23
30
26
23
7
21
14
16
5
14
-3
2
24
29
15
2
3
0
8
17
2
18
23
27
29
23
7
4
-4
1
6
12
9
30
17
26
7
13
1
1
4
35
14
11
5
5
12
24
7
22
20
-2
27
32
8
19
9
7
2
4
18
33
10
14
11
26
20
-5
12
29
11
7
3
9
11
34
20
7
17
10
17
27
24
8
20
-2
21
32
31
12
23
19
17
16
22
-1
17
26
18
19
7
19
15
33
35
34
21
32
30
-5
7
22
24
18
19
12
9
21
8
9
-3
3
30
15
15
-2
3
17
20
10
1
6
6
-4
1
-6
-12
-15
7
11
3
4
13
35
60
40
60
99
111
157
180
197
196
165
163
155
136
117
83
52
18
17
12
-1
5
-12
-14
1
4
4
13
6
19
11
2
11
21
7
12
10
3
4
-2
-17
7
11
20
21
15
8
-1
6
3
-23
0
-2
5
17
25
15
36
20
3
8
5
4
11
8
5
9
17
30
7
27
39
17
15
16
5
10
19
17
27
20
18
21
24
30
7
12
6
7
3
19
27
23
2
29
26
25
34
39
21
5
30
43
41
37
30
42
50
39
30
45
34
58
62
56
41
42
60
51
41
44
60
63
49
55
46
37
60
37
33
54
51
46
48
37
25
30
42
27
34
21
43
37
31
24
11
8
10
33
45
15
11
9
-3
16
24
32
16
7
4
3
5
9
27
4
14
35
26
7
8
22
-2
12
20
4
11
6
2
19
22
12
8
3
7
2
-10
2
7
9
14
25
20
12
-19
-5
9
23
33
26
15
4
15
12
15
23
16
10
14
12
22
21
11
7
-3
15
2
16
14
11
18
22
13
10
17
7
4
16
16
20
17
4
9
15
13
1
-6
15
11
23
10
14
10
9
24
25
3
12
15
17
18
19
22
18
14
13
8
4
3
13
11
7
7
10
-2
6
18
13
15
6
14
4
19
10
27
11
10
24
25
17
29
33
34
34
14
-1
11
11
24
28
20
12
36
32
30
23
0
4
23
17
16
13
12
-2
0
-2
11
1
2
4
2
11
2
26
9
17
0
-4
-6
7
-6
-9
-13
-15
-1
11
18
23
37
69
99
130
172
190
215
193
163
167
144
134
118
92
60
4
0
0
4
-15
-4
15
19
22
16
-20
-2
-2
0
0
0
1
6
14
5
-1
5
7
5
3
9
7
6
-11
-7
1
16
10
11
16
16
38
21
-2
3
-9
8
14
19
5
13
24
15
14
-4
-5
2
-2
2
-7
30
28
23
24
25
14
13
17
16
12
12
11
2
-6
-11
29
22
5
28
22
20
17
33
16
17
22
8
26
19
34
38
32
25
40
47
61
36
31
34
40
34
45
51
65
42
50
50
57
60
57
45
40
60
54
50
43
60
45
31
44
42
40
32
29
25
42
46
43
36
44
46
37
35
16
15
21
6
12
25
23
23
14
6
15
6
25
24
10
12
17
20
11
16
16
9
25
22
0
8
5
7
7
4
10
4
11
0
12
16
9
-5
19
16
27
20
5
-12
2
3
23
21
5
20
0
23
12
13
10
29
23
0
14
13
15
8
-9
12
25
22
16
18
15
-8
-3
-9
9
5
-4
16
22
6
19
18
12
16
13
13
6
8
3
23
11
32
31
2
16
17
8
-5
22
22
26
14
13
7
2
19
6
-4
0
-5
10
2
-7
4
8
26
25
-1
34
22
35
6
15
1
10
12
5
16
16
-9
-4
4
-1
7
18
31
24
13
22
8
-5
13
7
6
16
-5
22
12
16
21
13
8
15
30
5
0
18
17
10
32
7
0
7
5
8
9
12
24
22
1
12
23
23
14
14
19
3
33
26
24
12
29
39
9
12
18
22
26
15
25
27
22
23
13
30
7
3
-6
13
25
9
3
13
16
17
18
11
19
20
-5
9
4
0
8
-5
-7
-14
19
14
-6
-4
4
4
4
45
69
84
108
151
171
189
191
176
157
153
168
134
128
82
41
0
5
11
-1
-3
-14
9
6
-4
8
-5
-2
-10
13
20
14
18
4
13
19
0
4
16
17
3
-8
5
25
10
1
23
-2
16
12
10
17
15
1
19
14
3
-11
24
6
11
-11
1
7
6
20
-4
12
31
30
34
14
31
9
4
14
13
4
16
20
22
28
13
16
9
7
27
6
20
44
4
37
28
18
13
27
-1
27
33
44
38
26
32
26
44
40
41
36
34
36
36
42
51
59
51
44
68
65
52
53
54
56
47
56
67
61
63
69
58
51
55
38
42
63
60
41
44
14
39
51
29
20
44
25
4
21
11
37
32
17
38
18
22
27
29
17
21
15
2
6
25
23
14
19
12
10
16
5
24
19
35
32
6
16
10
1
-18
13
22
6
4
33
14
-1
13
16
20
-14
20
44
4
13
23
18
18
24
39
5
9
15
1
13
7
-6
-1
23
22
11
-1
5
18
27
12
14
19
16
11
22
9
26
38
15
11
8
0
15
-10
33
30
27
15
7
8
6
19
20
-4
2
33
25
21
22
21
8
-4
33
16
2
12
0
14
5
21
11
24
5
-3
21
14
0
8
17
30
20
25
25
0
8
16
15
14
1
5
20
6
19
3
13
22
8
13
-11
1
28
39
21
14
9
-1
23
5
-1
7
0
4
13
7
22
26
21
-2
13
7
27
-2
28
10
2
30
21
27
25
1
13
-8
4
21
-1
4
19
27
5
28
34
34
26
24
14
18
21
20
18
20
32
16
3
20
14
18
15
26
33
19
1
21
13
25
13
18
15
14
9
22
0
3
20
5
6
-2
6
21
-11
5
-12
-5
-6
4
12
7
12
7
21
37
47
55
91
124
159
166
148
155
177
161
153
146
94
47
27
18
2
-20
-6
-5
5
0
-5
8
-2
-6
9
24
15
-4
-9
13
29
3
2
12
4
14
10
17
-3
-11
-1
14
10
5
2
12
16
7
15
23
40
27
32
18
10
8
15
-10
2
19
15
16
6
20
23
13
-2
6
16
20
12
8
24
17
30
23
23
15
-3
9
5
2
2
28
14
22
28
35
17
27
22
25
53
58
34
28
27
17
43
40
28
45
38
36
54
63
38
54
42
42
53
55
56
55
68
57
46
67
63
41
37
61
51
46
51
49
51
48
52
35
42
55
53
49
40
47
36
36
21
38
35
31
13
27
9
28
24
5
22
29
22
8
12
23
26
15
16
20
0
7
17
13
7
11
3
13
15
6
9
25
-2
15
-2
-2
5
36
28
18
14
4
20
13
0
-9
16
15
9
10
17
3
-2
4
13
14
22
17
11
10
9
12
4
6
3
18
20
17
18
29
7
16
18
0
12
19
19
20
23
11
6
3
-2
8
24
15
22
0
0
20
13
20
21
3
0
10
28
17
3
23
26
17
0
6
16
11
10
17
16
8
6
5
6
2
-5
36
23
9
35
19
1
-1
29
20
20
-5
-2
8
4
13
20
0
-14
14
31
20
15
6
15
13
2
18
16
24
-4
-1
22
16
-10
5
-6
-21
10
28
10
26
33
33
28
35
26
22
23
21
14
6
10
24
30
11
15
29
24
32
15
15
12
24
18
14
6
4
27
9
7
1
10
15
8
2
-13
-16
5
15
23
20
-6
2
-3
-10
2
-4
2
-5
10
19
5
0
24
42
67
87
122
170
200
183
179
177
146
150
148
124
60
38
0
-11
-17
-13
1
0
5
1
5
-1
16
25
11
14
7
0
19
25
9
11
1
-3
-5
2
13
3
6
11
8
-7
13
12
9
-1
-10
3
15
12
12
-2
4
30
17
17
20
4
9
24
28
1
-9
15
6
22
14
9
6
23
19
20
22
26
28
43
0
5
21
26
20
19
19
-2
5
12
18
20
25
27
31
19
41
25
18
24
47
33
30
34
34
47
44
31
39
44
43
34
25
38
60
46
58
46
62
70
73
69
52
53
33
61
62
46
47
44
27
45
51
41
48
40
33
26
42
54
25
20
30
24
28
9
14
16
23
20
12
35
19
20
6
22
29
2
12
7
-1
2
14
27
17
14
0
14
19
26
8
3
21
16
11
5
13
25
9
14
12
9
-12
-3
12
9
-3
8
8
-12
12
8
8
19
13
6
13
5
-1
-4
3
-4
13
22
12
6
-11
19
8
21
17
29
-8
-3
14
18
17
-7
19
8
31
22
16
-3
9
-2
18
9
32
25
22
6
9
17
7
11
19
14
16
6
-2
-1
8
23
5
6
0
9
11
22
13
15
3
-20
11
26
18
27
13
25
8
7
-6
4
11
7
5
7
3
20
13
15
5
4
16
20
2
3
11
17
8
8
16
5
5
-2
11
18
4
12
4
9
11
22
12
8
9
16
9
13
-10
18
-5
-2
16
34
20
12
5
4
7
11
4
-6
9
18
26
11
-6
15
9
15
23
28
17
20
30
15
8
2
26
28
9
3
16
35
20
24
28
7
5
6
15
31
30
14
-1
5
-1
-3
11
14
22
8
15
22
0
11
13
-1
8
14
7
9
-4
-16
-17
12
2
-2
-8
4
13
38
54
73
94
96
122
147
176
191
183
151
145
135
122
104
68
30
18
-3
0
-3
8
6
13
-8
-7
-1
8
11
13
-15
1
24
16
-1
-2
1
8
17
12
-15
-10
-4
17
1
0
21
11
23
2
15
10
12
5
11
9
13
-8
11
20
16
20
24
10
-3
7
1
-1
8
19
6
3
28
24
16
19
11
-6
6
4
16
6
14
24
15
24
6
8
29
15
25
32
33
18
33
15
6
11
19
31
40
30
37
25
49
25
14
31
53
46
34
56
53
58
45
49
54
34
37
44
48
44
35
51
69
62
50
50
49
42
59
61
62
65
44
41
43
32
27
45
51
39
13
25
1
43
45
9
21
30
49
24
22
19
7
-2
12
13
2
24
21
12
0
12
29
0
-23
-10
25
21
13
23
11
14
31
15
15
24
-2
7
15
7
24
19
0
-1
4
23
29
14
7
4
28
10
8
0
9
21
26
22
18
4
2
9
-7
-2
3
3
14
23
19
17
3
4
6
19
18
20
8
24
22
18
12
10
15
10
12
8
-13
3
18
12
0
17
29
22
13
8
12
20
29
27
19
21
8
5
14
26
24
22
5
0
7
22
3
5
10
-9
-3
15
27
9
6
32
10
-1
-2
12
35
12
1
16
17
4
14
23
4
20
31
11
14
4
12
21
-9
-12
1
-1
19
16
17
20
11
-4
23
8
10
8
-1
-1
12
22
6
3
6
7
-2
18
19
20
30
6
8
8
3
10
8
33
-1
17
-4
4
26
13
24
20
14
3
19
41
19
3
33
35
26
18
24
23
37
26
22
42
30
20
11
13
1
-1
5
21
-11
-3
-2
34
36
14
5
13
11
14
-9
-16
10
9
-10
-7
4
1
-5
3
2
20
-1
6
37
26
35
38
67
108
165
173
203
217
162
156
149
139
98
105
70
35
9
-2
-3
-13
-5
-10
-5
6
4
-12
13
5
8
1
15
11
5
19
36
3
-9
13
19
16
-2
-4
12
33
36
7
9
8
25
18
9
4
13
6
7
19
4
-16
1
-7
0
8
24
13
25
16
13
14
23
10
18
28
24
7
12
23
18
21
19
8
14
34
11
10
29
21
28
20
29
28
38
15
4
11
26
37
19
22
28
33
43
45
35
29
30
43
44
37
36
53
57
45
52
57
41
49
59
37
62
69
67
55
68
71
61
68
54
77
54
60
42
48
50
50
27
30
31
51
47
40
33
36
44
43
34
34
25
16
30
28
8
35
25
22
32
20
10
0
4
11
3
10
19
13
22
24
27
24
14
3
19
15
19
1
10
10
22
37
-2
-4
6
11
12
33
13
8
16
12
14
12
28
10
18
25
23
6
8
27
17
18
-3
19
12
8
14
19
12
11
16
17
28
40
14
32
6
0
16
22
19
23
27
11
2
37
11
-10
-6
13
1
11
22
28
26
27
26
29
22
21
4
4
0
-1
6
29
19
9
10
10
17
25
22
19
30
9
-4
25
19
24
10
19
12
30
31
37
3
9
1
-2
2
11
7
24
36
30
15
13
7
23
7
8
2
10
24
24
13
-1
9
11
27
35
13
25
11
15
-5
10
17
8
36
15
35
31
33
19
19
13
12
27
15
30
32
37
44
31
25
43
28
14
31
25
11
1
18
15
20
-2
5
17
15
23
18
11
-3
-3
2
19
21
16
7
-4
4
16
9
-2
9
5
-8
7
21
1
34
43
46
66
88
139
149
183
179
179
173
155
152
142
117
60
21
-11
-4
-8
-7
-18
-26
13
14
13
-7
4
11
12
-6
22
14
31
2
8
12
10
11
23
26
26
6
4
28
15
-13
13
12
20
26
22
11
27
17
16
17
13
21
3
11
24
28
7
11
-7
-17
31
32
14
15
23
15
15
19
25
30
31
26
36
52
33
15
21
18
11
23
33
15
41
53
33
21
17
36
43
39
28
26
10
28
31
54
47
59
44
46
47
45
42
35
51
47
37
63
69
69
58
56
69
71
68
75
57
78
62
71
53
26
62
72
68
64
53
72
51
50
36
44
38
47
42
28
26
37
35
24
20
23
30
25
14
10
18
34
23
20
12
7
7
21
21
8
26
9
9
13
22
28
23
18
18
13
27
24
22
0
15
30
28
1
9
31
11
6
19
21
24
13
13
10
24
10
20
17
11
-4
4
17
22
7
-6
4
28
24
15
14
2
30
39
24
30
14
11
7
4
15
29
27
24
22
30
15
19
31
27
16
25
35
28
14
23
14
-6
4
21
19
14
6
14
24
5
13
19
0
13
28
29
23
17
28
14
13
19
11
23
6
5
9
27
33
27
26
28
21
16
19
19
2
19
35
31
25
38
15
37
35
21
28
21
22
28
25
13
29
15
12
6
18
13
26
29
28
7
7
1
19
20
9
11
2
8
23
10
21
33
35
10
16
6
6
7
-4
7
-8
-20
17
7
11
9
23
43
23
45
90
119
162
177
196
187
189
174
159
123
123
78
34
14
-8
3
7
-4
-9
-11
13
0
7
20
26
16
8
9
1
1
21
6
15
16
17
21
6
13
-2
15
16
10
17
6
19
10
9
-9
16
12
24
19
14
12
31
33
24
36
12
6
-1
11
16
14
27
14
29
14
38
33
19
16
14
10
10
15
15
20
22
9
30
24
24
26
24
12
15
16
30
32
17
23
46
47
35
39
52
37
49
38
23
54
47
49
55
39
64
58
43
49
62
45
37
60
71
79
44
44
41
59
59
66
64
66
69
65
46
19
34
49
55
45
54
53
48
33
33
40
32
53
51
30
29
40
22
17
27
32
36
2
15
5
12
24
20
7
10
32
0
-9
4
28
20
21
15
15
23
10
6
22
10
15
21
3
1
25
26
-6
5
-2
12
17
24
26
27
19
13
16
15
20
4
18
14
19
5
-1
23
23
16
11
15
21
25
18
10
5
21
21
22
4
21
19
3
20
2
29
12
8
6
14
32
30
21
25
34
26
26
-2
7
19
3
14
29
15
22
15
17
39
17
5
7
1
11
27
33
25
16
7
6
11
6
26
19
16
13
15
-3
15
34
6
9
14
32
22
22
10
17
23
6
9
24
25
29
26
29
16
28
27
25
44
43
26
32
2
13
8
26
26
17
17
25
8
11
22
16
11
-7
8
6
26
17
13
22
18
11
-1
-4
-9
2
6
14
9
-1
4
4
0
2
3
5
16
50
48
69
102
128
190
209
193
184
176
175
163
143
94
65
58
6
2
9
0
-13
-3
21
13
10
-13
-2
10
26
19
11
9
7
8
-5
15
24
13
0
-7
2
17
21
10
13
14
14
2
7
42
23
25
12
16
19
9
4
23
5
-8
-11
-4
11
27
13
31
27
28
17
5
9
26
20
19
28
18
17
13
12
15
6
19
32
29
23
9
18
26
26
5
19
27
25
11
15
39
41
34
34
38
30
39
28
45
53
39
46
35
35
32
69
66
46
47
60
61
53
59
41
51
54
55
64
68
54
38
58
60
59
61
54
54
50
32
26
36
19
23
41
35
31
20
26
29
16
26
36
30
23
27
4
18
27
14
34
50
32
22
18
10
7
13
17
4
3
14
39
4
25
23
14
18
22
29
8
7
7
11
14
9
24
14
0
8
23
18
9
-3
8
-12
12
25
21
22
13
20
14
7
18
36
21
12
11
18
11
8
17
16
6
5
17
31
29
20
13
17
17
5
21
12
18
29
17
1
6
34
31
19
8
13
-1
27
15
5
8
18
3
7
19
24
21
13
17
0
-4
22
20
24
14
28
38
3
-4
18
9
23
14
10
20
16
15
12
26
23
23
-1
-1
3
8
13
16
29
16
27
11
24
16
9
-3
17
16
8
19
24
22
20
27
33
20
20
37
38
18
28
25
39
25
6
2
14
30
24
14
13
3
10
21
9
6
11
24
18
-10
4
16
11
9
7
13
20
11
-3
-10
7
4
-13
-6
23
14
4
22
58
64
83
120
157
185
192
186
179
151
136
132
126
97
40
38
11
3
-6
1
3
2
-3
8
18
11
10
0
-10
23
18
10
16
13
17
10
18
14
12
-6
2
19
8
-3
-3
-8
14
24
7
19
28
19
11
-1
15
17
29
1
3
14
9
20
14
16
10
17
6
-5
12
24
27
28
24
34
17
24
12
14
9
27
27
11
14
23
9
7
26
21
26
24
25
29
44
22
11
34
24
31
29
31
38
27
32
32
50
50
47
49
68
59
56
68
33
36
56
63
36
58
56
37
51
66
49
46
43
50
65
76
63
42
54
51
44
44
56
55
50
48
36
42
34
23
29
11
20
40
23
26
42
3
6
16
20
17
18
11
-14
11
22
15
18
-8
2
46
23
21
27
20
2
26
21
13
5
2
13
4
9
11
19
-6
12
18
16
10
19
27
32
6
-1
13
18
24
8
9
19
21
28
14
8
19
7
18
6
14
22
10
9
7
-3
-3
4
23
25
21
32
13
20
14
3
22
19
6
5
19
22
-2
24
22
20
13
13
8
9
23
13
21
27
37
11
13
0
19
19
14
21
2
6
20
26
9
-2
6
20
-9
0
-1
5
29
17
15
-2
3
3
24
19
27
20
-4
17
19
9
37
49
38
5
5
18
18
18
23
1
-4
23
13
-1
5
13
6
15
29
10
29
34
31
28
23
10
14
22
27
12
26
32
34
19
21
11
21
40
23
18
-3
-14
19
17
18
20
15
2
20
15
17
15
25
14
14
