-7
1
10
5
10
5
-27
-53
-51
-8
-26
-41
-20
-8
-12
-11
1
15
3
-10
-6
-12
-6
-14
-21
-26
-10
-20
-14
-2
1
-5
-17
-9
3
14
9
11
-10
-5
-2
-14
-31
-45
-40
-23
8
17
0
-18
-35
-31
-21
-29
-34
-28
-17
8
8
13
-1
-32
-19
-10
15
15
26
18
2
0
-8
-3
-6
26
18
9
-8
6
1
-3
21
46
4
-11
6
-10
1
10
5
16
5
-17
-28
-18
-15
-24
-16
0
0
-13
-36
-13
-13
-29
-15
-13
-35
-41
-12
-14
-18
-14
-17
-39
-39
-38
-38
10
-2
-16
-12
-20
-21
-26
-25
-26
-20
-5
36
42
64
85
103
98
105
138
135
101
95
98
80
58
21
16
-4
-32
-53
-42
-23
-14
-19
16
-4
-31
-14
-5
-6
-15
-22
-19
-13
-17
-13
-3
-17
-27
-25
-29
-31
-11
-6
2
1
1
-5
-30
-36
-23
-23
-24
-18
-16
-14
-3
0
-14
-26
-28
-9
-17
-33
-32
-33
-1
7
13
39
47
0
-5
4
-22
-6
-11
-13
-12
-5
13
22
-2
4
5
-12
-20
-10
36
33
33
31
29
20
29
28
25
20
28
23
8
-2
-7
-6
31
43
37
51
86
94
98
89
61
80
72
59
71
69
82
99
110
97
62
55
64
64
89
103
66
57
47
42
61
48
32
33
29
25
13
20
44
31
-1
-14
-25
-29
-29
6
23
13
17
-10
-8
8
-3
-38
-55
-21
-32
-24
-5
-4
0
-1
-12
11
9
-19
-26
-14
-10
3
4
6
-11
1
0
-6
-18
-12
-9
7
5
5
-16
-28
-34
-12
-27
-21
-13
-40
-27
-15
-10
11
32
-4
-7
-7
-7
-18
-15
13
-10
-10
-1
3
4
-2
-6
-19
-28
-24
-17
-12
-15
-9
13
1
-20
0
-9
-13
-19
-21
-46
-51
-29
-18
-8
-23
-6
-4
17
6
-7
2
-3
-13
-24
-11
-9
10
8
7
9
-21
-36
-12
16
-1
-38
-26
-16
18
43
42
28
35
19
0
-28
-11
1
-3
-1
11
25
20
18
19
16
7
15
7
3
6
-1
-12
-46
-38
-7
14
-13
-7
7
-8
-9
-15
-28
-44
-34
-22
-36
-44
-39
-29
-16
-10
-15
-11
-12
-23
-24
0
-8
-22
-31
-38
-38
-20
11
10
-2
6
8
28
37
72
100
107
120
131
153
169
134
127
113
75
37
11
22
-1
-15
-40
-73
-32
-13
-26
-13
-13
-30
-36
-30
-11
-4
9
11
-9
-9
-15
-24
-17
-22
-24
-19
-24
-18
-28
-35
-5
-4
-25
-20
-16
1
0
-11
-9
-17
-6
-8
5
-4
-34
-8
5
8
11
-7
1
6
-5
5
-8
6
15
-2
-8
-7
5
28
-7
-29
-39
-19
-23
-15
-11
-8
15
22
33
26
15
11
12
8
-4
13
28
30
55
55
58
48
18
18
16
32
46
49
56
52
72
69
71
81
84
77
51
29
61
68
98
105
117
117
102
78
74
60
44
64
69
43
38
53
37
12
31
36
60
46
27
-1
5
6
9
24
9
-26
-28
-13
-13
-11
-3
-11
-53
-40
-18
-34
-24
5
9
13
8
8
8
14
13
13
1
-19
-26
-28
-44
-42
-17
-10
-10
-15
-28
-37
-22
-22
13
23
17
12
-2
-8
-11
-31
-32
-38
-36
-34
-23
-13
-7
16
21
38
11
-20
10
31
34
12
-9
-14
-4
-2
-26
-51
-102
-86
-23
7
-7
-5
16
1
6
-2
10
30
18
20
30
-9
-15
-3
-1
-14
-23
-25
-10
-16
-22
-32
-23
-27
-4
-7
-11
0
19
28
12
2
-1
-8
3
1
-10
5
7
19
10
-8
-3
12
29
20
38
27
-15
8
33
23
13
-21
-38
-9
11
7
-18
-57
-51
-1
-8
-18
-9
-1
-4
-6
-12
-17
-5
2
3
-1
-6
-10
-10
-17
-27
-27
-8
-15
-34
-17
-12
-27
-35
-39
-53
-20
13
30
25
32
15
10
17
52
84
117
108
134
149
137
121
135
124
99
61
30
22
16
10
9
-17
-53
-77
-60
-30
-17
11
14
-13
-11
-12
6
-5
-17
-15
-14
-14
3
16
20
12
-25
-37
-41
-20
-26
-22
-24
-22
-8
7
-9
-13
-9
-6
-9
-15
-15
-35
-38
-28
4
26
12
6
5
0
4
-18
-27
-28
-13
-14
2
2
-3
-4
20
28
16
8
13
16
45
57
48
-24
-62
-33
-16
-12
7
12
23
44
37
37
41
41
25
53
51
56
50
56
55
52
45
36
41
28
67
78
88
77
83
79
55
69
63
91
103
100
92
91
92
94
86
81
71
37
33
14
13
26
32
21
3
8
13
10
-1
22
15
2
17
4
-1
-11
-23
-8
-5
-13
-9
0
12
5
-36
-36
0
-5
4
13
6
18
2
-30
-34
-16
1
-15
-11
-9
-24
-40
-27
-12
-16
-12
3
4
-1
6
-12
-33
-13
-1
1
7
1
-4
4
0
5
5
-4
-10
-9
-9
-8
7
2
-15
-17
-9
-13
-13
-14
-16
-5
0
-7
-10
-29
-40
-35
15
4
0
12
29
28
3
-14
-18
2
7
-2
-10
2
-13
-2
9
21
21
5
-4
-16
4
-12
5
-29
-37
-36
-25
-15
-14
-4
23
9
6
19
30
36
23
26
29
9
10
21
9
2
5
22
16
-1
4
2
-2
12
13
15
-3
-12
-12
-10
-27
-15
-26
-25
-15
-8
-5
-14
-13
-32
-4
2
-9
-3
-13
0
-14
-5
-17
-17
-16
-24
-18
-11
-18
-10
-22
-32
-22
-33
-28
-12
3
19
39
50
77
112
134
106
100
108
123
115
103
104
84
66
61
29
3
-4
-9
3
-12
-6
-1
-15
-3
-15
-27
-25
-15
1
13
11
0
-27
-12
-11
-34
-46
-10
-10
-12
-26
-28
-20
-18
-7
2
2
-2
-22
-19
-10
-16
-38
-38
-18
0
-4
-1
-18
-47
-24
9
4
12
9
-8
-21
-3
5
17
18
17
15
0
7
1
4
5
-8
-10
14
19
-15
-22
25
33
12
-8
9
18
19
26
42
42
46
40
31
10
20
24
31
54
64
55
39
49
53
55
75
85
75
64
67
88
84
64
55
75
75
80
83
100
97
59
60
80
59
51
47
58
24
11
28
46
28
17
29
23
21
16
13
1
-15
-20
2
-1
8
18
13
17
9
-10
-12
-31
-8
-8
-14
-14
-23
-32
-26
10
31
19
2
-11
-18
-24
-22
-18
-11
-18
-6
7
26
28
13
-6
-27
-23
-24
7
2
-25
-35
-40
-26
-22
2
25
10
-10
0
2
4
-17
-44
-19
-9
-21
-38
-29
-11
2
15
-13
1
18
17
0
-20
-33
-11
4
13
6
-1
-3
9
2
-6
15
14
27
13
11
8
-8
-27
-18
-28
-22
-30
-14
-15
-29
-39
-16
19
-12
-44
-16
8
16
18
23
28
26
26
31
13
5
1
0
6
24
13
24
14
17
7
13
21
-5
-14
-5
13
-5
-13
-12
6
6
-14
-15
-11
-13
-33
-24
-15
-8
-9
0
2
-1
-22
-25
-23
-16
-14
0
-7
-9
-19
-28
-25
-40
-31
-15
-19
-9
-6
7
0
-15
-59
-21
-21
-25
20
64
91
110
118
111
141
157
138
100
84
75
69
46
29
-8
-11
-5
-12
-18
-7
-9
2
-4
-7
-22
-18
-22
-26
-44
-32
-25
-19
-18
-3
1
-24
-22
-22
-30
-26
-15
-25
-19
7
7
-5
-18
4
8
14
10
-11
-27
-24
-6
-21
-15
0
-1
1
12
-8
-23
-30
-20
-4
-16
14
12
10
3
8
14
13
2
0
-12
-33
-16
-22
-16
5
18
18
24
25
17
30
26
21
27
33
26
26
27
44
37
35
26
2
5
19
18
28
51
63
72
59
63
76
86
74
77
67
83
74
74
72
65
67
94
93
81
78
71
72
68
89
63
57
57
43
45
33
11
10
9
-11
-3
-3
25
17
14
10
-5
-13
-22
-6
4
6
4
7
4
-13
-17
-18
-49
-67
-20
-2
12
7
0
3
1
-12
-11
-28
-26
-10
-14
-2
5
-7
-17
-3
10
-7
-11
-2
-24
-38
-30
-26
-26
-20
-6
-4
1
-6
13
10
25
-7
-17
5
-20
-35
-19
-10
1
-8
-31
-41
-40
-18
-9
11
32
31
27
-11
-25
-33
1
10
9
-6
-27
-18
-22
-28
-21
-17
-19
5
25
41
3
11
11
-29
-35
-33
-22
-30
-18
-10
-19
-29
-7
12
9
-10
0
-2
-21
-12
3
0
-2
2
32
17
-11
-15
11
3
6
5
9
8
6
-8
4
4
27
30
17
6
9
15
17
11
15
0
-21
-35
-50
-55
-61
-22
-21
-5
-12
-17
2
16
6
-13
-16
-11
-32
-14
-19
-32
-32
-45
-32
-25
-15
-3
-23
-25
-24
-25
-35
-33
-40
-21
11
55
80
105
136
118
128
146
136
133
101
98
80
50
35
9
-10
-18
-30
-7
-4
-1
10
0
-18
-28
-10
2
-7
-19
-30
-35
-16
-4
-31
-16
-12
-5
-9
-44
-28
-26
-23
-5
-10
-32
-46
-26
-10
-17
-8
-25
-42
-2
13
5
-14
-13
13
21
16
16
-7
-29
-18
-27
-28
-23
-45
-46
-42
-43
-25
-20
28
56
37
38
20
23
-2
-2
3
-2
1
5
4
-2
-8
6
12
18
25
21
51
45
43
18
10
10
3
17
35
44
54
56
52
48
65
72
81
74
67
71
70
61
59
64
69
56
58
92
90
90
84
60
59
57
51
53
54
55
51
30
41
57
37
19
2
5
-1
6
9
-4
-16
-29
-10
-16
-13
-17
-26
-5
9
5
14
4
-2
-5
-23
-43
-57
-26
-10
-20
-8
-9
-22
-12
-8
9
-23
-19
1
-3
-8
-25
-17
-26
-17
-9
-13
-6
-16
-9
-22
-18
-17
-20
-20
-17
-13
-13
-18
-6
-14
-12
-13
-33
-31
-9
-8
-26
-28
-18
-12
-4
-12
-18
-12
19
46
11
3
-12
-14
0
2
-21
-26
-20
-31
-33
-29
-10
-5
-7
-2
-12
-13
-4
-10
-5
-7
1
-5
-20
-20
-15
-19
-17
-21
-6
13
5
-2
-1
4
18
20
26
18
-18
-8
-11
1
6
17
8
17
28
20
0
-6
-11
-6
0
0
-21
-25
-11
9
-5
-17
-26
-23
1
-6
-19
-33
-19
-4
-18
-33
-35
-26
-25
-37
-40
-43
6
12
3
-19
-35
-27
-30
-24
-19
-8
-15
-24
-41
-35
-20
-7
17
35
61
96
119
118
112
132
135
120
102
117
103
73
51
21
-11
-23
-9
-12
5
4
8
-40
-23
-20
-18
-19
-7
-1
-6
-20
-17
-17
-16
-14
-5
-5
-2
-19
-36
-39
-32
-33
-20
-10
-19
-25
-20
-29
-24
-4
-10
-4
-8
-16
-17
-13
-11
-4
1
0
2
4
-1
3
3
-14
-25
-17
-25
-29
-15
1
-10
-26
-44
-18
16
24
40
3
10
14
19
10
-1
-12
-12
-10
6
32
21
13
18
24
33
33
20
8
18
14
40
41
42
46
72
85
81
65
44
50
43
33
65
83
79
81
83
79
89
86
101
93
76
69
60
61
51
50
45
56
58
41
37
41
9
-14
-9
0
4
20
12
-4
-8
-19
-24
-19
-12
4
2
-20
-30
-48
-29
3
4
-6
9
-12
-25
-20
-10
-13
-9
6
-18
-30
-12
-17
-35
-41
-24
35
22
14
14
6
-16
-42
-36
-23
-24
-11
-7
-12
-18
-30
-32
-47
-27
7
9
18
30
-2
8
-9
-25
-32
-29
-25
-16
-12
-11
-12
-26
-36
-39
-4
25
28
10
12
-2
-8
3
-22
-43
-30
-21
-23
-6
2
-3
7
0
-12
-9
-7
-18
-18
-25
-9
-11
-28
-26
-6
9
11
9
-16
-24
-25
10
15
21
34
31
30
20
11
3
-9
-13
-14
0
-5
10
12
9
-12
-12
-14
-11
13
8
17
8
3
13
8
-9
-17
-43
-69
-53
-21
-21
-21
-6
14
3
-9
-18
-20
-27
-7
23
10
-13
-43
-26
-32
-43
-45
-57
-30
-11
-15
-26
-22
-17
-11
-17
-12
35
69
72
93
94
92
105
111
86
35
2
-3
11
9
-14
-27
-23
-4
-15
-15
-14
-11
-20
-18
-28
-46
-31
-14
-15
-5
-5
-17
-10
-2
-13
-13
-21
-38
-33
-13
-15
-26
-16
-16
-22
-25
-21
-20
-10
-24
-12
-13
-8
-13
5
7
-24
-51
-35
-29
-18
-7
-29
2
13
8
5
7
-8
-16
-11
-7
-8
-12
-10
6
13
28
18
13
1
-18
-10
2
9
11
22
29
26
12
-15
1
26
22
36
15
11
20
28
57
63
73
64
63
61
58
54
64
56
60
55
65
79
76
69
78
72
90
89
67
69
64
62
55
50
54
42
30
22
2
8
43
50
27
28
18
-13
-14
-12
-13
-1
-1
-11
-28
-28
-28
-29
-26
-27
-30
-16
-6
-8
13
10
14
12
-6
-11
-9
-17
-24
-25
-23
-26
-27
-35
-42
-28
-14
6
13
-22
-26
16
-13
-12
-23
-17
-21
-9
-13
-15
-22
-34
-34
-27
11
15
22
34
29
-30
-56
-44
-23
-13
7
9
3
-3
-15
-18
-19
-47
-61
-53
-22
-27
3
49
34
4
-20
-16
-10
-22
-40
-18
-3
-13
-11
-18
-18
-5
-1
4
6
16
41
32
9
-26
-47
-25
-29
-14
9
14
5
-3
4
22
43
40
17
12
11
-10
-4
-8
-5
-11
-25
-30
-10
-6
-17
-16
-1
7
3
-8
-17
-22
-21
-47
-45
-54
-29
-15
8
19
-13
-46
-21
-1
-7
-1
-7
-39
-35
-32
-26
-19
5
2
-10
-48
-30
-20
-31
-32
-18
-1
19
9
50
62
77
96
95
114
138
128
115
110
91
59
2
-20
-12
-36
-12
23
-18
-28
-18
-16
-2
-17
-19
-19
-19
-13
-18
-17
-9
-6
-12
-4
-7
-22
-23
-16
-28
-17
-30
-28
-22
-21
-22
-31
-23
-14
10
3
-32
-27
-40
-47
-25
-9
-8
-16
-10
-13
-6
1
23
1
-18
-10
-10
-26
-14
9
12
-1
-14
-23
-30
-44
-46
-12
17
20
13
23
3
-9
-4
-16
-15
11
6
9
18
9
15
9
9
24
43
62
52
37
29
16
12
22
44
39
26
38
52
61
61
45
82
108
95
68
63
63
59
65
84
87
79
95
83
56
16
-14
26
55
52
36
12
15
16
14
8
1
18
20
12
3
5
3
2
-18
-25
-22
-6
18
5
-40
-45
-29
-9
-27
-12
7
-7
-8
-21
-25
-21
-4
9
13
-16
-17
-18
-31
-17
-8
-3
8
10
-12
-39
-45
-41
-29
-23
-24
-20
-11
-16
-28
-41
-25
-6
-22
-22
-17
-9
-16
-12
-9
-10
-18
3
-6
1
-31
11
12
-19
-33
-26
-7
-8
-9
-14
-14
27
26
0
-33
-50
-42
-33
-40
1
9
5
10
-5
0
-2
-22
-11
-9
-1
-13
-12
-9
-18
-13
2
13
14
16
19
4
-5
-15
-5
-10
-1
15
9
-4
-10
7
9
14
-4
-18
-24
-30
-16
6
-9
-12
-5
-18
-47
-27
-32
-16
-15
-18
-20
-32
-43
-27
-22
-5
-18
-37
-33
-4
-15
-27
-24
-24
-30
-23
-29
-45
-55
-20
-15
-34
-55
-36
-6
12
65
105
113
131
135
141
161
146
121
105
94
85
57
17
19
9
-13
-19
-32
-48
-43
-49
-27
-13
-9
-6
7
-5
-6
-1
2
-2
-28
-32
-72
-89
-36
-9
-7
-8
-20
-23
-33
-17
10
8
4
-12
-14
-16
-41
-60
-40
-33
-10
13
5
-8
-3
-23
-36
-32
-13
-18
-30
-14
-13
-8
-3
3
5
-12
-10
-13
-7
-8
-6
-14
-2
7
12
19
3
-14
-11
6
31
18
16
25
26
13
-7
-2
14
13
20
10
15
15
39
59
30
28
33
43
62
71
77
86
71
45
53
53
45
65
75
74
66
77
74
71
62
33
36
39
54
71
76
76
48
24
33
24
4
1
-3
-15
-28
7
2
-4
-3
0
-5
-14
-44
-51
-45
-9
-32
-22
-21
-36
-20
-14
-21
-11
-2
-15
-28
1
-2
-4
-11
-3
-4
-22
-17
-5
-2
-3
-10
-24
-18
-27
-25
-3
-19
-28
-60
-34
-26
-31
-45
-23
2
-4
3
-5
-3
-1
-12
-7
-20
-30
-15
-30
-36
-15
6
11
-2
-4
-13
-1
-23
-12
-13
-12
-13
-11
-33
-23
-23
-17
-5
-9
-12
-10
-19
-23
-24
-22
-6
12
19
15
28
24
15
-5
-27
-40
-21
-13
2
-5
-16
2
20
36
18
7
-4
-16
-50
-44
-8
29
40
16
8
-3
2
6
2
-1
-7
-17
-17
-20
-58
-61
-24
-21
-15
-7
-12
-22
-21
-22
-37
-48
-12
5
-8
-10
-10
-44
-29
-31
-37
-36
-22
-5
6
-15
-37
-39
-48
-58
-52
-20
-3
23
47
68
85
115
110
114
151
162
170
131
107
93
72
53
34
17
11
-4
-15
1
-2
-5
2
6
10
7
2
-19
-60
-79
-62
-48
-23
-32
-27
-28
0
1
9
0
-14
-16
-5
-32
-48
-35
-10
-9
-36
-29
-28
-18
-8
-24
-19
-10
-22
-11
-8
-5
-20
-32
-34
-54
-27
0
8
2
1
-10
-7
-2
-9
-21
-28
-28
-18
-8
4
-3
-7
-40
-9
6
-6
-32
-1
24
24
27
14
11
17
22
24
22
26
26
25
19
37
39
27
34
33
54
50
37
47
44
58
59
38
64
69
79
72
66
53
57
70
90
74
64
63
61
44
28
34
27
30
26
3
-6
31
40
15
6
-1
-11
-7
3
2
4
-17
-39
-42
-40
-12
-6
-2
-2
-23
-37
-47
-22
4
2
-17
-25
-23
-30
-15
-16
1
23
9
-6
-34
-62
-33
-17
-24
-17
-33
-13
-11
-11
-18
-17
-20
-21
-17
-14
-11
-18
-21
-25
-12
3
-13
-22
-32
-34
-33
-17
-21
2
8
-4
-15
-24
-20
-18
-12
-5
8
11
9
7
-9
-8
-25
-28
-43
-28
-18
-10
2
1
-4
-18
-33
-43
-46
-45
-24
-15
-11
-12
20
30
14
1
-21
-25
-38
-36
-28
-29
0
19
14
17
-4
1
7
13
18
10
3
10
8
-1
25
13
0
-15
1
7
-12
-12
-28
-32
-18
-7
-10
-4
-25
-23
-30
-19
-19
-23
5
9
-30
-60
-39
-45
-37
-16
-5
-12
-16
-21
-21
-40
-47
-34
-24
-16
3
-10
-33
-48
-63
-46
-24
-19
-4
22
56
65
71
94
119
113
123
114
101
108
125
103
83
64
40
8
-4
-9
-33
-38
-24
-32
-23
-24
-34
-33
-27
-10
-4
-6
-16
-18
-16
-18
-9
-19
-17
-20
-15
-25
-21
-31
-43
-43
-39
-26
-21
-25
-33
-23
8
5
-11
-35
-38
-37
-27
-15
-12
-25
-27
-17
-13
-25
-33
-28
-20
7
31
24
8
-16
-26
-9
-8
-22
-26
-20
-17
-12
9
-6
-17
2
22
41
43
37
13
-1
-5
-14
-29
-33
-26
-12
10
48
64
58
38
5
8
21
11
37
83
79
77
76
59
53
61
66
56
51
63
90
96
88
68
56
64
65
69
63
37
39
31
31
49
42
30
19
8
-9
-2
-7
-14
3
21
8
20
30
24
-4
-23
-40
-47
-32
-26
-3
-3
-16
-31
-33
-28
-19
-30
-7
-5
-1
-4
3
-14
-4
-13
-29
-25
-42
-31
-17
-17
-20
-27
-12
-9
-28
-27
-6
-12
-11
-8
-3
-12
-21
-28
-35
-38
-50
-25
-1
-1
-10
-33
-17
-12
-9
-10
-1
-12
-11
-1
-19
-12
-7
-17
-26
-46
-31
-23
3
17
19
6
-17
-28
-35
-29
-18
-5
-13
-18
-20
-31
-11
-2
-7
-19
-22
-20
-19
-34
-16
7
-2
-2
-4
-8
0
5
11
39
6
-10
-16
-5
1
-3
19
10
6
8
-11
-16
-1
26
19
-1
-17
-21
-33
-46
-30
-27
-27
-8
-13
-13
-17
-26
-3
12
-23
-25
-33
-36
-33
-31
-37
-29
-15
-22
-15
3
-2
-42
-35
-27
-33
-32
-33
-26
-19
-34
-48
-47
-34
-19
-2
4
37
45
71
107
145
131
146
151
138
113
97
77
47
9
0
1
-23
-30
-45
-39
-34
-37
-15
-3
-2
14
5
15
-23
-47
-40
-40
-50
-34
-43
-40
-65
-17
13
-4
-1
-11
-26
-29
-25
-14
-19
-14
-23
-34
-23
-24
-38
-42
-25
-4
2
13
19
8
-16
-46
-25
-41
-40
-34
-11
10
12
-6
-9
-23
-30
-15
-21
-13
8
15
19
25
18
-20
-20
-27
-45
-22
-12
-16
-15
22
14
9
18
10
25
23
35
43
31
37
31
42
19
14
28
31
46
79
96
109
91
58
58
51
63
49
38
58
62
46
48
58
72
74
76
53
35
39
67
59
18
2
14
24
0
-1
3
23
8
-6
-2
-4
-7
4
2
-23
-24
-28
-26
-15
-33
-41
-28
-13
-14
-18
-27
-6
2
-5
-13
-3
-26
-34
-45
-34
-5
9
0
-17
-20
-28
-37
-34
-2
13
3
-16
-31
-34
-37
-36
-22
-26
-40
-51
-44
-31
-14
-6
4
-21
-40
-10
-4
-6
-14
-35
-12
-3
2
-12
-31
-11
-16
-14
-13
-10
0
-6
-17
-33
-19
-7
-12
-22
-28
-17
-22
-7
-29
-30
-36
-30
-23
-22
-25
-37
-41
-20
-2
-20
-38
-6
12
-12
-8
9
16
9
6
14
12
4
10
24
17
-19
-10
-3
-7
8
11
-12
-10
-5
-10
-23
-26
-16
-20
-27
-53
-50
-36
-20
0
24
21
-3
-49
-73
-52
-33
-29
-24
-16
-16
-18
-49
-40
-10
-12
-12
-23
-19
-33
-46
-56
-59
-71
-46
-37
-30
1
-21
-6
21
46
50
74
101
128
132
150
147
157
136
117
84
66
41
6
23
8
-7
-28
-22
-26
-37
-34
-33
-16
-1
-3
4
-6
-16
-37
-63
-51
-33
-25
-21
-12
-11
-21
-23
-19
-37
-37
-36
-50
-62
-15
-24
-32
-22
-30
-5
8
5
-11
-22
-43
-22
-12
-16
-44
-51
-5
-29
-20
-22
-21
-35
-18
-5
7
17
9
13
1
-13
-24
-13
-27
-24
-19
-15
10
7
13
13
-18
-18
-18
-2
-4
5
10
15
22
20
16
35
35
36
47
33
19
28
21
28
35
43
27
43
63
68
75
69
56
93
68
76
66
53
40
38
64
76
74
61
49
43
29
15
33
25
2
24
11
7
11
19
9
8
11
-2
-18
-23
-34
-29
-29
-30
-23
-3
-13
-14
4
-1
0
6
-6
-28
-38
-49
-53
-59
-50
-38
-16
8
5
-3
-4
0
-33
-27
-41
-37
-29
-6
-21
-23
-21
-18
-19
-21
-17
-34
-23
5
0
-17
-19
-31
-35
-28
-16
-18
-18
-18
-26
-22
-20
-20
-9
3
-3
-6
-7
8
-10
-23
-32
-24
-13
-18
-26
-24
-14
-28
-25
-18
-17
-4
7
9
6
-13
-8
-9
-13
-16
-27
-31
-21
-16
-34
-28
-6
15
13
4
10
9
14
-16
-41
-16
8
15
17
-15
7
16
-9
1
16
-1
-12
-9
-4
-13
1
4
-7
-13
-3
-5
-15
-12
-15
-34
-36
-49
-44
-24
-36
-29
-30
-8
1
-15
-13
-30
-49
-29
-6
1
3
6
3
-33
-35
-37
-37
-38
-39
-27
-23
-31
-16
-9
-13
-7
16
52
106
125
140
160
156
150
123
108
106
67
32
-16
-33
2
7
-8
-1
-2
15
22
-1
-30
-42
-51
-35
-9
-4
-8
-15
-24
-25
-12
-21
-33
-21
-19
-21
-18
-30
-35
-17
1
-8
-16
-14
-21
-36
-34
-36
-37
-39
-51
-25
7
3
5
0
-19
-7
-9
-17
-13
-3
10
21
6
-9
-21
-49
-67
-62
-20
-9
-13
-9
0
6
0
11
30
53
25
-11
-5
0
5
18
9
-9
-17
-20
-4
2
12
35
56
66
85
62
43
44
15
13
18
43
46
45
41
34
34
58
61
75
76
85
85
75
64
68
76
75
62
60
75
59
45
32
23
40
49
17
25
25
12
-6
-15
-6
-1
2
-1
-19
-18
-27
-28
-48
-37
-23
-29
-33
6
15
-10
-16
-8
-9
-9
-23
-32
-24
-15
-19
-12
-3
-7
-8
-10
-16
-15
-32
-41
-38
-25
-6
-3
0
8
-4
-21
-54
-75
-64
-64
-20
39
39
31
8
-33
-33
-26
-26
-33
-16
2
4
2
-16
-11
-22
-24
-50
-37
4
-2
-8
-16
-6
-17
-31
-48
-27
-33
3
3
-13
-17
-1
-10
-13
-23
-39
-30
-38
8
2
-4
8
6
-10
-20
-27
-7
5
7
6
-18
-24
-32
-34
-21
-35
-27
10
20
7
16
9
11
14
24
23
3
1
6
-7
-2
-9
-6
-4
-9
-4
8
4
-3
-21
-34
-26
-12
-24
-34
-58
-39
-44
-24
-21
-24
-25
-24
-26
-24
-40
-31
-6
-20
-27
-22
-24
-14
5
-15
-26
-23
-41
-45
-63
-57
-35
-11
8
22
34
39
52
84
108
109
114
117
106
111
120
96
59
37
22
2
-15
-14
-18
-23
-4
-17
-24
-7
-31
-44
-44
-28
-16
-26
-14
-15
27
26
-12
-46
-47
-54
-52
-47
-30
-13
-1
-13
-32
-20
-27
-41
-43
-23
-8
-13
-22
-19
-14
-5
-3
-4
-5
-24
-37
-37
-33
-17
-4
0
-8
-1
-7
-14
1
-1
-16
-8
-3
-28
-40
11
-11
-9
-1
-4
10
8
8
-3
19
30
0
-15
-5
15
16
17
19
23
35
46
55
67
44
6
0
0
14
36
50
62
62
47
40
41
36
40
60
53
75
109
99
68
81
79
74
82
68
43
43
35
27
37
52
59
42
45
39
27
14
1
27
7
-5
-14
-16
-16
-10
-12
5
0
-14
-28
-18
-34
-49
-40
-18
-14
-16
-28
-17
-18
-23
-20
-32
-29
-21
-3
4
-21
14
-14
-7
-18
-1
3
-11
-17
-8
-17
-38
-44
-49
-44
-35
-24
-8
-4
-18
-11
-11
-8
3
8
-8
-6
-26
-32
-39
-41
-35
9
26
24
19
-18
-35
-57
-29
-11
19
1
-27
-34
-38
-40
-38
-21
1
5
3
5
-15
-16
-23
-28
-32
-31
-12
-9
4
9
2
-12
-30
-51
-39
-12
-31
-9
9
13
11
4
-2
11
21
15
6
-19
-37
-38
-23
1
8
15
16
3
-5
10
17
11
11
22
38
14
11
-42
-49
-61
-16
-17
8
-3
-25
-29
-34
-34
-34
-43
-40
-21
-18
-7
-12
-16
-26
-55
-42
-13
-2
-2
-9
-5
-9
-35
-29
-27
-8
-8
-12
-19
-21
-36
-48
-53
-80
-19
42
60
118
150
143
152
141
141
109
75
38
17
2
-22
-56
-71
-31
-32
-19
-15
-13
3
-3
12
16
-2
4
-35
-29
-11
-10
-8
-15
-20
-18
-9
-12
-17
-16
-7
-22
-22
-25
-13
-19
-35
-51
-50
-41
-28
-23
-12
-36
-30
-26
-20
-8
-1
-9
-16
-12
-11
6
-7
-34
-25
-14
-26
-23
-11
23
27
10
-10
-16
-3
-22
-16
10
-8
1
2
-10
5
0
31
21
3
9
15
5
17
11
6
29
18
25
17
0
22
47
49
64
62
68
64
55
29
45
50
50
51
87
96
112
91
54
41
90
95
82
73
84
74
54
44
42
52
51
55
49
46
50
31
33
30
25
25
11
-7
-15
-30
-36
-39
-17
-18
-1
-21
-20
-25
-5
-2
-16
-36
-40
-55
-11
-21
-18
-27
-19
-9
12
-6
-12
-17
-11
4
-6
-9
15
-2
-5
5
-16
-24
-17
-9
-20
-22
-30
-1
18
-5
-30
-6
-32
-43
-35
-25
-15
-7
-12
-6
-8
-33
-40
-27
-18
-24
-28
-24
-16
-26
-8
-3
8
-1
2
-19
-11
-15
-17
-18
-33
-6
-25
-16
-16
-8
-19
-27
7
8
7
-23
-31
-23
-15
-11
-39
-10
17
8
15
7
-15
-9
-14
-15
-19
1
18
34
13
11
27
18
9
-8
-6
-13
-4
15
16
-17
-7
5
-20
-32
-13
-5
-8
-29
-25
1
0
7
-8
-28
-31
-8
13
5
-3
-25
-49
-67
-27
-7
-36
-16
-23
-22
-36
-15
-24
-21
-19
-21
-8
-10
-27
-32
-22
-12
-30
-24
-49
-15
8
24
37
78
124
139
121
139
163
145
119
116
98
72
15
13
25
22
18
-12
-40
-45
-19
-23
-21
-15
-9
-27
-37
-57
-39
-8
1
6
-13
-37
-54
-52
-38
-34
3
-13
6
2
-22
-40
-21
-34
-23
-6
2
-8
-11
-4
-11
-14
-14
-11
-7
0
12
7
-6
-26
-23
-13
-28
-7
4
8
8
1
2
11
-11
-16
-37
-4
-1
-5
-3
33
17
9
-1
15
28
34
32
27
16
1
-17
1
16
11
12
-2
22
29
13
28
25
38
41
30
29
39
58
87
84
84
79
84
88
92
80
57
61
52
41
63
79
94
111
81
56
53
42
55
48
49
40
47
26
28
13
13
-3
-12
5
7
-1
-8
-10
-5
-9
17
-8
-26
-22
-25
3
-14
4
3
-3
15
0
2
11
-29
-52
-24
-32
-36
-31
-32
-26
-34
-31
4
7
0
-14
-10
-10
-5
-4
-30
5
16
-8
-24
-25
-12
-22
-19
-15
5
-11
-20
7
9
1
-13
-19
-8
3
1
2
16
3
-2
-9
-33
-40
-30
-11
-19
-3
13
4
-17
-9
-3
2
-11
-17
-18
-28
-23
4
-18
-26
-7
-3
21
33
28
14
-7
-8
-29
-3
-1
-16
-46
-29
11
13
27
23
36
28
17
6
-2
-13
-23
-8
-2
8
-1
2
10
4
-2
19
3
-10
5
3
12
4
-26
-21
-25
-29
-20
-26
-5
-22
-31
-28
-21
-17
15
5
-18
-32
-15
-37
-47
-39
5
2
-6
2
-1
-24
-34
-14
-13
-49
-26
-26
-29
-28
-2
49
43
82
130
145
148
154
159
151
125
120
83
42
22
2
-16
-8
-4
-9
-21
-11
-17
-18
-10
-14
-18
-22
-23
-11
5
-2
-10
-32
-37
-31
-2
11
-7
-18
-23
-29
-40
-41
-38
-15
-18
9
23
10
-14
-18
-26
-35
-41
-19
7
23
-23
-14
-14
19
-9
-15
-8
-1
-16
-23
-32
-14
16
22
23
13
20
3
-24
-24
9
10
22
30
30
-5
-11
-2
-7
-11
10
14
5
-6
19
22
39
30
44
29
25
27
23
27
48
58
41
46
53
62
67
69
62
75
75
69
46
53
69
86
100
87
87
71
62
60
40
44
66
91
80
38
23
24
24
33
39
39
29
26
17
2
9
6
-4
-9
-12
-11
4
-15
-22
-22
-21
-7
-8
-17
-16
-7
-3
-15
-19
-30
-43
-26
-28
-30
-32
-9
3
-8
-10
-8
-19
-23
-19
-24
-37
-46
-22
-8
-11
1
6
11
12
2
12
20
7
-21
-34
-9
-8
-16
-23
-24
-11
-3
-24
-16
-25
-29
-21
-20
-17
-25
-10
-11
-19
-29
-25
-7
5
-10
-20
-19
-7
-17
-26
-14
12
34
23
8
11
7
-37
-33
-24
-20
-28
-38
-6
8
-1
-18
-19
-12
-5
-6
7
16
6
7
12
12
10
3
1
-8
3
10
1
2
16
15
21
15
18
17
2
-7
-20
-31
-40
-44
-40
-3
7
-10
-35
-40
-38
-48
-34
-25
-13
8
4
1
7
10
-14
-46
-65
-44
-40
-36
-55
-54
-5
-16
-14
-16
-2
-26
-28
-20
-4
0
6
37
67
90
126
126
130
128
113
94
80
88
93
93
62
38
5
-12
-39
-51
-65
-57
-36
0
2
1
-20
-19
-2
-2
-31
-53
-63
-53
-13
5
-3
-13
-7
-12
-11
1
2
-7
-2
-21
-38
-39
-26
-38
-45
-28
-11
-8
16
-4
-11
-19
-34
-37
-29
-6
0
-5
-15
-15
3
4
-23
-19
-12
-27
-28
-19
9
18
23
21
14
13
27
18
0
-13
-14
-14
7
5
8
-11
-2
6
33
42
48
36
11
9
11
21
25
38
53
41
51
65
50
48
26
27
43
76
82
79
77
81
70
76
86
101
97
87
72
77
66
59
61
49
37
33
43
56
55
49
31
26
8
12
11
12
8
1
-15
-6
-3
-22
-24
-24
-20
-22
-19
-19
-18
16
23
-20
-13
-8
-23
-14
13
7
-16
-16
-32
-54
-37
-28
-36
-8
-14
9
-10
-21
-17
-18
-11
-6
-20
-23
-17
-12
-3
-3
-20
-11
-4
3
12
5
10
-14
-47
-27
-24
-14
-6
-11
-13
-7
-21
-12
0
7
17
25
-18
-53
-58
-36
-16
4
-11
-5
-5
-17
-34
-48
-14
-4
-7
15
36
29
12
-20
-17
-23
-22
-16
-7
-9
9
10
-13
-26
-10
15
13
10
45
60
59
40
23
-5
-25
-34
-36
-28
-22
-26
13
8
-4
0
7
12
24
9
9
-14
-40
-46
-50
-70
-44
-16
-10
-12
-6
-9
-24
-26
-13
9
16
5
-2
-21
-36
-62
-75
-59
-59
-34
-2
7
-10
-1
-2
-15
-17
3
6
19
40
57
76
109
144
142
131
125
114
75
100
79
70
40
9
-14
4
-2
-8
-18
-30
-25
-34
-57
-24
-1
-4
-5
-17
-22
-20
-30
-29
0
-25
-29
-33
-31
-31
-43
-53
-48
-12
-1
-4
-15
-4
-4
-13
12
3
-25
-30
-22
-27
-27
-12
-12
-11
-20
32
32
7
-16
-13
-13
-16
-26
16
17
-1
-27
-30
-15
-17
-35
-3
5
16
20
17
-7
6
18
4
0
-11
-7
7
14
17
17
27
36
39
31
16
9
6
19
35
53
51
67
54
67
64
64
53
45
62
53
59
76
72
78
101
94
84
66
82
63
56
63
50
54
53
57
67
53
32
36
43
51
32
39
33
28
31
-14
-64
-44
-53
-38
15
-3
-2
7
-7
-16
-15
-22
-45
-31
-29
-26
-10
-10
-6
-4
-3
-25
-40
-20
-6
11
-2
8
-13
-17
-25
-5
-17
-30
-28
-15
-9
-12
4
-1
-11
-18
-35
-30
-20
5
-2
-5
-16
-23
-24
-28
-20
-18
-1
-16
-22
0
9
7
4
3
-22
-24
-32
7
31
25
-10
-29
-21
-34
-30
-13
-7
-11
-15
-6
-6
-7
4
4
-10
-21
-5
8
3
-5
-7
-3
6
-7
-5
-16
-11
15
12
7
-8
9
21
40
28
12
1
-5
-8
-5
-8
0
8
-3
-13
-34
-48
-41
-14
-5
0
-3
13
-13
-28
-34
-17
-13
-10
-12
-21
-21
-10
-3
6
3
-33
-40
-51
-36
-43
-28
-13
-11
1
-6
-36
-38
-33
-17
6
22
40
51
42
84
106
113
134
167
176
133
132
108
91
43
31
38
23
10
-31
-42
-26
-12
-20
-29
-22
0
0
-12
-5
-9
-9
-12
-23
-49
-39
-37
-14
-31
11
5
-16
-10
3
1
-12
0
-4
-5
-19
-41
-31
-41
-10
-20
-21
2
8
-9
-7
-8
-17
-30
-13
-20
-9
-19
-31
-13
-15
-1
-11
-20
-14
7
17
18
20
22
11
-3
10
12
21
1
4
6
-1
-3
-6
-3
2
-2
6
32
26
16
25
38
40
31
38
33
40
33
30
45
52
43
60
48
37
48
69
88
101
62
44
63
58
66
77
72
65
90
87
74
53
48
47
37
40
35
26
25
15
17
6
8
-2
-6
-3
3
-2
11
2
-20
-23
-23
-24
2
29
19
15
-5
-41
-40
-52
-24
-29
-20
-21
-22
-30
-7
-18
-14
-14
-33
-24
3
12
1
-14
-14
-14
-15
-15
-11
-33
-20
-26
-29
-33
4
4
1
-7
-28
-46
-31
-3
-7
12
14
1
-10
-4
-5
-17
-11
-28
-21
-18
-16
-13
-11
-19
-16
-2
19
17
-15
-14
-12
-15
-5
-16
-11
-6
-3
-1
2
12
-23
-13
-16
-13
-3
18
33
24
1
-10
-35
-30
10
29
14
-1
19
0
-19
9
-2
18
16
15
5
-8
-6
-12
-26
-17
-11
-18
-15
-12
2
-2
2
-6
-10
-16
-24
-14
-8
6
5
15
5
-17
-35
-28
-22
-33
-36
-35
-31
-28
-9
-24
-21
-10
-13
-27
-34
-10
-20
-33
-38
-51
-44
-19
-4
44
81
88
100
110
99
142
168
162
109
80
61
40
32
16
24
23
17
-11
-12
-6
-26
-22
-28
-36
-35
-32
-7
1
12
-7
-20
-22
-21
-36
-22
-19
-26
-18
-26
-32
-34
-17
-21
-11
-18
4
-19
-17
11
-6
-27
-23
-21
-3
-12
1
4
-4
2
14
-18
-34
-27
-3
-21
-17
-21
-3
-18
-22
-12
-10
-8
7
19
0
8
5
10
8
18
31
24
5
-9
4
20
27
22
-7
-13
-11
11
34
20
29
45
41
25
40
47
56
58
52
58
63
52
74
82
65
54
75
58
62
73
71
58
79
110
91
76
62
72
43
52
43
49
44
35
29
47
46
33
12
32
20
10
-1
-12
-15
1
-11
-1
-4
-8
-14
-37
-23
-8
-14
-10
-21
-18
7
-4
-24
-24
-40
-46
-27
3
12
-8
-35
-19
12
29
19
-6
-6
-19
-44
-12
-15
-18
-28
-28
-28
-16
-4
-33
-34
-26
-44
-29
-5
-7
-28
-45
-29
-12
-18
-19
-26
-15
-21
-15
0
-1
0
5
-21
-13
-12
-4
3
-3
-16
-35
-70
-46
24
15
2
-2
20
26
12
-8
1
-2
2
11
1
-16
-24
-33
1
30
20
-4
4
7
-18
-20
-12
-12
16
35
33
40
36
24
22
20
14
1
-9
-7
-16
-15
-4
-24
-39
-26
-17
-6
7
8
-16
-29
-38
-32
-41
-39
-16
3
-12
-25
-27
-40
-21
-6
-28
-35
-29
-33
-49
-41
-11
-7
-39
-18
-20
-25
-38
-46
-51
-28
-4
2
38
71
76
108
143
160
172
131
125
130
111
77
38
14
6
-18
-25
-14
-48
-58
-49
-41
-19
-18
-32
-25
-13
-31
-36
-27
-31
-30
-27
-23
-16
-26
-29
-38
-33
-22
-30
-43
-34
-26
-32
-32
-17
-26
-27
-43
-37
-26
10
21
0
-12
-33
-10
-38
-26
-8
12
34
-2
-31
-38
-30
-4
9
-24
-13
-9
-8
-9
-12
8
7
-12
-16
13
15
2
-5
0
-1
2
-10
8
15
33
36
35
33
25
21
1
16
39
60
48
59
64
62
55
69
73
69
57
84
77
61
60
37
53
69
77
93
105
126
107
90
47
49
59
74
89
72
86
77
62
73
79
51
17
12
27
18
13
5
0
-4
0
-8
-11
-1
-10
-2
-18
-21
-5
-17
-3
-31
-31
-24
-35
-21
1
-8
6
-6
-44
-43
-32
-24
-39
-30
-12
-1
-23
-19
-17
-34
-36
-22
-25
-10
-19
-29
-17
-20
-18
-3
4
0
3
5
-1
-19
-14
-13
-7
-11
-6
-18
-17
-21
-41
-29
-31
-23
-12
1
-16
-25
-32
-45
-27
-25
-24
-52
-19
16
24
20
-7
-17
-9
0
8
0
-7
-12
-6
-5
-4
-12
-7
-1
15
19
11
13
-2
15
16
6
-2
-2
2
14
11
-5
-11
-24
-25
-38
-22
-17
-11
-19
-5
-8
-47
-32
-19
-24
-19
-44
-38
-8
13
-16
-27
-49
-67
-51
-28
-33
-26
-10
-24
-21
-22
-23
-32
-36
-38
-44
-23
-8
-13
-29
-39
-22
-24
-20
3
20
55
87
116
161
155
145
159
144
121
85
72
54
29
11
2
-26
-42
-38
-39
-38
-37
-15
4
9
-13
-30
-39
-57
-52
-40
-31
-9
-10
-24
-40
-44
-37
-25
-18
-39
-38
-26
-14
-21
-38
-53
-48
-34
-7
14
-8
-24
-28
-33
-38
-32
-15
5
16
12
-25
-61
-31
-25
-22
-10
-5
-2
-27
-36
-12
-11
-21
-41
-37
-12
7
22
49
35
14
-10
-31
-35
-13
25
32
35
31
30
34
24
8
16
2
9
12
30
37
50
43
32
42
52
63
57
45
46
55
60
39
43
51
58
56
63
63
64
87
74
93
104
89
83
102
75
45
30
-10
-6
37
20
11
27
4
-16
-5
9
4
10
-11
-14
0
19
25
6
-18
-29
-52
-58
-26
-1
-19
-26
-4
-12
-6
-21
-24
-27
-7
3
20
5
-19
-4
-6
-18
-23
-23
-21
-29
-52
-45
-40
-16
-16
-1
-1
-10
-17
-1
-4
-1
4
-21
-26
-19
-31
-31
-21
-37
-42
-24
19
-2
-21
-15
-17
-17
-21
-5
2
22
9
1
6
0
-39
-56
-58
-47
-9
-3
7
-6
-5
7
4
-7
4
15
7
18
4
2
-15
-19
-10
-1
6
20
12
8
17
17
11
2
-2
11
25
22
-8
-24
-26
-32
-39
-21
-18
-20
-20
-26
-27
-2
4
-4
-12
-31
-29
-30
-40
-48
-49
-3
-9
-10
-15
0
-18
-21
-33
-32
-34
-42
-28
-13
-37
-22
-26
-33
-30
-32
-15
11
26
50
57
76
116
112
116
134
143
125
102
110
87
41
0
-19
-37
-40
-67
-64
-50
-23
-4
-10
-4
-10
-13
-12
8
5
-9
-35
-14
-19
-37
-34
-39
-36
-26
-14
-9
1
-20
-32
-43
-55
-39
-4
-17
-24
-15
-18
-10
2
-6
-5
0
-9
-16
-23
-32
-19
-18
-10
-5
-7
-17
-20
-25
-5
-18
-27
-9
1
-2
4
2
11
4
-3
-7
-5
-6
-9
0
12
27
24
9
-10
17
25
40
50
41
43
25
16
-4
-4
3
30
69
60
34
53
75
64
70
79
70
71
69
76
73
72
93
84
67
75
78
76
84
64
72
63
55
57
53
49
53
41
15
-5
-20
-17
11
23
20
27
34
26
18
0
-10
-5
-10
-8
-16
-13
-9
-4
-18
-33
-22
-8
-19
-19
4
17
6
-16
-12
-10
-29
-27
-25
-3
-8
-8
-20
-12
-16
-31
-43
-51
-40
-27
-5
7
-10
-1
-18
-31
-33
-21
-8
0
2
-4
-16
-20
-21
-18
-14
-16
-4
14
36
18
-33
-42
-20
-29
-11
-1
13
14
-11
-22
-9
0
2
15
16
15
13
-13
-20
-27
-17
-13
-1
27
33
35
10
11
31
43
49
29
8
20
17
13
-8
-21
-5
-4
-9
-9
-22
-29
-18
-41
-15
3
-6
-23
-24
-30
-20
-23
-27
-35
-36
-20
-9
-6
-12
-14
-27
-21
4
28
49
-17
-29
-34
-41
-38
-28
-22
-29
-41
-53
-62
-44
-45
-27
34
62
83
109
110
126
122
113
99
112
107
92
97
84
61
20
-17
-2
-6
-28
-54
-58
-39
-34
-29
-21
-10
5
-20
-28
-22
-25
-11
-5
-2
-20
-28
-6
-18
-27
-18
-34
-42
-39
-15
12
-3
-3
8
-18
-28
-9
-14
-33
-30
-20
-16
-30
-29
-33
2
8
9
1
-12
10
7
-6
-28
-19
-13
10
19
-8
-11
-3
8
7
12
22
26
9
2
0
9
8
6
10
1
8
17
25
6
9
24
33
34
21
32
32
36
36
29
27
31
46
63
87
89
100
75
61
49
55
57
81
92
88
102
61
51
46
69
109
89
74
60
56
42
49
29
36
53
34
39
24
13
14
18
1
-1
-3
-8
-19
-22
-32
-18
-5
-16
0
6
3
6
2
-10
-12
-12
-4
-7
-14
-22
-21
-30
-35
-25
-10
8
-4
-13
-2
-11
0
7
4
12
-11
-35
-30
-13
-36
-42
-18
-10
-4
-9
-31
-29
-34
9
9
17
4
-4
-20
-23
-22
-14
-7
-7
-2
-12
4
10
4
-32
-47
-21
-6
-7
-3
15
17
20
9
27
9
-3
-7
0
13
25
14
2
-5
-8
21
15
11
13
27
11
15
-3
-34
-9
3
11
14
18
22
8
-15
-14
-9
-20
-41
-10
-12
0
4
-1
-13
-14
-10
-25
-28
-18
-29
-28
-37
-55
-20
9
12
6
16
4
-24
-40
-38
-21
-19
-12
-11
-34
-24
-11
-4
-7
-7
28
56
58
86
111
113
121
142
158
147
131
104
80
39
21
8
-26
-22
-29
-48
-38
-9
-15
-7
-3
-10
-6
-19
-6
-10
-10
1
-9
-10
-16
-6
-21
-40
-49
-58
-39
-32
-16
-8
-3
3
13
15
12
-3
1
-9
-25
-35
-26
-19
-14
-29
-9
-25
-33
-12
-3
12
15
15
-17
-3
-3
-14
3
5
2
7
9
-2
-15
-6
0
4
0
9
1
-4
18
10
16
24
9
14
6
15
23
11
30
31
22
22
27
45
54
53
57
45
45
49
60
53
76
73
73
78
82
98
77
79
79
81
82
68
60
67
69
72
70
62
53
44
55
45
25
27
31
14
22
19
15
5
-21
-22
-1
1
7
-14
-15
7
4
3
-19
-27
-13
-17
-4
-17
-19
-25
-17
6
6
6
-3
-19
-16
-28
-41
-16
10
-12
-26
-16
-16
-23
-13
19
27
18
0
-8
-27
-33
-33
-26
-22
-24
-27
-12
26
2
11
1
-11
-28
-28
-18
-6
-5
-24
-11
-2
-2
-25
-23
5
17
1
-3
-9
-7
-6
-1
9
16
8
-12
-6
14
11
22
9
1
1
10
8
17
14
10
13
18
32
38
34
29
32
-7
-20
-41
1
10
-7
-6
-19
-32
-2
11
13
12
-4
10
-2
-24
-18
-29
-37
-34
-22
-8
-25
-11
6
-8
-15
-32
-44
-30
-19
-5
-7
-17
-25
-21
5
-8
-23
-18
-19
-19
-10
-33
-16
23
49
73
85
116
120
133
157
179
146
146
111
87
49
20
-28
-35
-45
-39
-34
-21
-28
-5
-17
-19
11
5
14
-6
-25
-23
-18
-24
-31
-28
-15
-28
-21
-18
-14
-1
-17
-31
-21
-7
2
-4
-17
-33
-21
-5
-23
-26
-5
-5
-11
10
14
5
9
24
16
-7
-22
-17
-40
-31
-18
3
6
-12
-5
-22
-5
13
33
24
10
11
8
6
8
10
9
3
2
7
6
-5
-14
7
27
28
38
46
36
8
-7
14
49
48
63
80
80
66
57
63
63
51
37
60
76
85
81
75
83
78
63
67
76
74
68
74
62
54
48
22
4
43
55
51
45
48
34
29
40
41
30
20
-4
-11
-3
-5
-20
-30
-29
-23
-24
-17
6
28
27
28
-4
-23
-29
-39
-22
-35
7
-5
-18
-14
-16
-25
-17
-23
-4
11
22
33
3
-31
-44
-47
-18
-18
-2
-5
3
8
-6
-16
-14
-3
-7
6
15
2
-14
-29
-47
-33
-19
-14
-15
-6
-1
3
7
-9
-14
7
24
2
-5
15
36
42
20
8
0
13
7
17
21
48
48
-17
-43
-38
-26
8
41
58
43
30
23
0
0
-13
-16
-2
4
0
-6
-22
-25
0
-9
-11
-17
-40
-12
7
-34
-49
-16
28
19
9
6
4
-2
-8
-44
-52
-39
-14
-7
-19
-21
-21
-8
-6
-5
-29
-37
-23
-20
-20
-8
2
20
59
92
114
132
143
130
170
194
169
148
103
52
26
24
10
-6
1
-13
-23
-20
-14
-23
-14
-17
-13
-18
-35
-36
-23
-6
-17
-8
5
11
7
12
-8
-11
-11
-10
-7
12
-26
-54
-45
-39
-25
-18
-13
10
12
3
-11
-8
-24
-23
-15
-25
-14
-14
-1
4
0
-2
-16
-27
-13
6
6
3
16
21
26
17
-10
-16
-29
-13
6
14
8
15
22
22
22
22
10
24
32
42
22
27
17
7
-1
20
30
45
45
51
53
51
64
60
79
59
32
18
41
48
52
57
61
68
63
62
64
72
91
106
111
107
72
64
41
34
34
25
21
37
28
31
32
23
18
23
30
24
7
6
-20
-45
-35
-17
-20
-22
-15
-12
6
14
32
16
0
-6
-20
-35
-32
-4
13
-16
-22
-6
11
14
0
-6
-2
-7
-14
-28
-37
-19
-3
7
-17
-28
-18
-22
-37
-37
-25
-26
3
37
33
0
-1
-5
-9
8
4
-16
-17
-8
-3
-10
-5
0
18
25
8
-4
-13
-20
2
2
11
8
-7
-1
3
14
29
18
21
29
33
22
19
3
-2
12
23
2
-47
-47
16
21
14
14
29
23
25
29
16
-4
-21
-11
-15
-15
-33
-27
-25
-21
-12
4
14
5
-49
-44
-42
-26
-9
-3
5
10
9
-23
-25
-41
-47
-49
-26
-16
-6
-12
-30
-42
-35
-20
9
44
72
79
74
100
126
129
128
151
149
124
96
95
56
2
-7
19
24
11
-25
-47
-25
-30
-12
4
9
-4
-25
-30
-13
-18
-11
-14
-10
-26
-18
-19
-4
-12
-34
-40
-25
-21
-20
-7
-2
3
7
-4
-23
-30
-25
-11
-10
-8
2
-6
-15
-2
7
20
22
1
-28
-42
-37
-15
5
7
4
-5
-10
-9
-7
-13
-3
17
37
32
-8
-8
-19
0
-4
-8
8
8
18
29
32
21
16
10
-15
-16
26
41
54
56
57
55
43
46
60
52
53
64
75
68
63
67
82
100
78
55
34
40
51
72
84
103
95
85
82
77
57
51
57
70
49
25
17
20
11
-10
2
2
12
19
15
0
2
-5
0
-4
-17
-22
-32
-16
-3
-3
-1
-3
-8
-35
-18
-12
-1
37
11
1
-9
-32
-39
-27
-7
6
29
4
-4
-1
9
4
-8
-29
-45
-6
28
-1
-10
0
12
2
-12
0
5
1
-19
-33
-39
-46
-32
-16
-13
3
13
26
7
7
-2
0
9
-6
-27
-11
-4
20
40
41
46
17
-10
-10
26
34
10
12
13
16
34
32
22
-1
-3
12
9
11
2
-4
11
20
18
15
1
-16
-4
-2
-17
-16
7
28
-6
-17
-5
-9
-6
-29
-20
-6
-7
-19
-20
-10
-27
-31
-25
-3
3
-6
-9
0
-8
-22
-20
-29
-48
-35
-37
-13
9
23
31
71
83
88
128
124
139
157
175
117
103
99
81
39
14
16
10
6
-14
7
-1
20
-30
-55
-70
-21
-3
-9
-1
11
21
9
-28
-34
-19
-9
-8
-20
-29
-28
-9
5
-2
-4
-13
12
-3
-13
-10
-26
-52
-34
-12
11
13
5
-15
4
0
-1
0
0
8
15
18
29
13
-23
-10
-34
-39
-25
20
39
13
20
-4
-5
30
10
19
29
32
8
-32
-12
-9
-10
10
5
-19
14
24
35
54
32
43
57
57
52
57
48
55
56
58
62
66
81
87
78
55
44
74
48
88
84
74
83
81
82
70
67
55
52
59
62
61
46
46
39
9
5
34
31
17
27
11
20
6
-7
1
-2
-1
7
25
5
14
9
-13
-18
-10
-9
-10
-19
-22
-17
-17
-13
16
9
-5
-22
-25
-22
-12
1
-1
13
19
7
3
-17
-15
-24
-15
8
-3
-21
-5
-7
5
-1
-13
-31
-5
9
28
26
37
3
-9
-50
-20
-16
-12
5
22
19
4
-11
-23
-28
-1
18
12
23
36
50
28
0
-7
-14
-16
8
29
37
22
5
14
39
26
15
4
0
27
32
22
15
-14
-6
-4
0
7
24
20
16
2
-8
-27
-39
-41
-32
-14
9
14
29
19
-11
-16
-22
-23
-23
-5
-10
-3
-11
-26
-13
-7
-8
-5
-6
-17
-7
-2
-8
-29
-33
-2
11
18
45
69
88
95
112
89
126
154
167
162
142
126
107
81
55
37
22
13
-8
-10
-3
8
3
-20
-36
-69
-25
-7
9
-2
-3
-4
-10
-6
-4
10
3
7
-4
-8
-19
-16
-28
-39
-41
-34
2
-3
-9
-2
20
18
-9
-4
5
10
24
29
13
-1
-23
-32
-35
-14
-10
22
43
37
14
12
-13
-27
-29
-35
-31
15
13
35
27
29
20
12
18
20
17
34
23
21
-3
5
-8
16
29
42
45
45
69
60
52
43
50
42
29
21
24
62
74
66
65
107
95
83
89
93
90
90
100
87
71
78
73
75
64
64
67
54
45
36
70
47
55
53
37
20
15
3
12
-6
2
8
11
0
-6
-26
-48
-4
-1
-12
-3
13
13
1
-2
-9
9
19
29
12
13
-5
-27
-34
-17
-16
-12
4
4
13
9
-2
1
8
-8
9
33
17
4
7
9
-3
-15
-14
-23
-17
-28
-39
-26
9
-7
1
-3
2
7
14
21
31
23
0
5
-7
-8
-9
-3
10
23
14
-4
-2
-18
-15
-4
23
49
47
32
26
15
8
3
2
10
21
27
24
41
52
20
26
18
13
19
28
7
26
22
18
19
-4
-36
-6
-1
17
8
6
12
18
7
-11
-35
-52
-30
-14
17
9
4
15
6
-6
8
3
-2
-15
-13
8
0
-22
-26
-46
-44
-18
6
5
3
7
17
23
35
64
84
117
132
122
132
149
135
101
90
91
58
28
6
10
24
25
9
13
30
25
26
32
23
-10
-32
-34
-20
-18
-8
-9
-19
-36
-17
-10
5
9
17
24
22
17
-12
-49
-32
-20
-4
-2
-27
-7
-15
-7
-2
-12
3
25
35
20
21
8
-5
-22
-4
8
1
-2
8
6
13
21
16
1
-13
-9
3
-1
15
16
25
34
26
17
8
20
21
27
32
21
19
17
15
14
26
23
20
43
46
43
43
47
61
47
72
75
66
82
74
62
38
41
59
59
43
38
63
92
96
74
96
93
93
96
99
68
59
83
67
61
66
55
53
51
30
11
15
9
6
-2
-4
7
17
7
6
-2
-5
-8
4
19
9
4
-4
-10
14
10
-5
-6
4
-8
-16
-4
9
3
1
-2
