-83
-85
-103
-100
-91
-91
-87
-101
-85
-100
-97
-96
-89
-79
-106
-101
-99
-102
-90
-87
-98
-101
-83
-99
-102
-88
-94
-105
-103
-80
-88
-85
-87
-84
-91
-94
-95
-97
-78
-72
-92
-93
-96
-90
-96
-92
-96
-108
-99
-89
-91
-98
-103
-98
-81
-95
-95
-94
-100
-96
-99
-106
-87
-85
-104
-96
-94
-104
-102
-103
-97
-99
-87
-84
-97
-89
-110
-104
-90
-108
-109
-84
-82
-94
-84
-93
-81
-84
-97
-98
-110
-95
-96
-90
-104
-101
-98
-90
-95
-114
-97
-97
-104
-90
-87
-89
-116
-104
-97
-98
-105
-87
-86
-86
-99
-85
-85
-95
-94
-85
-89
-79
-93
-92
-103
-75
-92
-74
-80
-70
-76
-74
-83
-88
-97
-90
-88
-85
-84
-80
-86
-100
-103
-97
-98
-100
-106
-116
-109
-92
-106
-97
-104
-97
-116
-98
-84
-99
-101
-103
-116
-104
-116
-101
-106
-104
-90
-101
-93
-108
-111
-91
-105
-103
-94
-100
-106
-94
-90
-108
-122
-104
-93
-94
-100
-81
-85
-94
-69
-70
-63
-68
-77
-68
-53
-30
-8
6
3
-13
0
-4
-42
-52
-74
-91
-118
-126
-150
-150
-153
-144
-128
-128
-110
-99
-108
-84
-90
-91
-97
-112
-104
-110
-98
-95
-100
-108
-115
-101
-107
-98
-84
-93
-100
-92
-98
-95
-92
-90
-100
-106
-99
-100
-105
-94
-97
-103
-99
-83
-103
-96
-97
-101
-96
-102
-90
-85
-86
-102
-98
-96
-79
-99
-97
-96
-100
-92
-88
-89
-101
-91
-84
-74
-79
-93
-84
-82
-82
-93
-86
-84
-93
-90
-83
-89
-85
-88
-77
-83
-58
-75
-70
-69
-65
-69
-71
-56
-56
-55
-69
-53
-42
-43
-47
-51
-55
-60
-62
-39
-26
-25
-41
-33
-45
-42
-38
-40
-45
-54
-51
-47
-57
-57
-65
-67
-64
-71
-108
-84
-93
-79
-80
-86
-86
-109
-74
-91
-102
-106
-99
-102
-107
-108
-117
-99
-104
-116
-122
-101
-100
-104
-101
-108
-108
-115
-110
-101
-109
-107
-110
-106
-124
-123
-94
-112
-96
-106
-105
-110
-103
-114
-114
-115
-108
-102
-113
-98
-86
-108
-108
-96
-94
-108
-112
-110
-114
-114
-112
-110
-96
-94
-104
-102
-103
-99
-100
-102
-113
-119
-105
-106
-93
-92
-98
-95
-100
-88
-101
-106
-95
-103
-100
-104
-100
-87
-98
-98
-88
-86
-103
-103
-115
-110
-94
-98
-103
-106
-99
-96
-87
-99
-94
-85
-86
-92
-104
-91
-104
-111
-102
-97
-106
-107
-114
-90
-89
-107
-99
-98
-104
-98
-101
-113
-97
-93
-83
-104
-93
-104
-102
-100
-90
-89
-97
-101
-95
-103
-109
-107
-98
-98
-101
-104
-97
-102
-105
-86
-95
-96
-98
-99
-94
-90
-100
-101
-99
-106
-92
-92
-105
-107
-95
-98
-88
-89
-105
-96
-91
-91
-105
-92
-98
-80
-90
-103
-87
-79
-88
-104
-103
-73
-83
-98
-95
-71
-70
-70
-80
-80
-71
-74
-82
-87
-78
-79
-98
-94
-102
-108
-97
-98
-91
-100
-94
-86
-105
-101
-93
-102
-100
-99
-101
-108
-89
-97
-101
-103
-97
-119
-98
-89
-101
-87
-96
-105
-107
-106
-85
-91
-96
-103
-94
-95
-98
-101
-107
-100
-92
-107
-100
-85
-78
-75
-69
-84
-67
-65
-60
-62
-65
-48
-36
-28
-17
3
1
24
17
-23
-30
-43
-73
-94
-103
-134
-121
-126
-115
-100
-101
-94
-103
-110
-103
-92
-95
-105
-84
-91
-86
-86
-90
-97
-101
-81
-98
-106
-100
-88
-98
-96
-88
-87
-89
-85
-87
-76
-90
-95
-100
-88
-86
-64
-91
-99
-100
-105
-91
-82
-97
-85
-89
-79
-84
-79
-92
-103
-78
-88
-91
-82
-68
-81
-89
-92
-74
-82
-83
-93
-89
-92
-85
-79
-77
-72
-75
-73
-78
-70
-83
-82
-87
-93
-95
-77
-56
-52
-62
-77
-57
-46
-57
-58
-34
-45
-62
-52
-52
-64
-52
-29
-46
-57
-42
-38
-51
-54
-27
-25
-53
-50
-31
-38
-32
-37
-40
-47
-46
-55
-67
-57
-52
-42
-59
-54
-66
-77
-62
-69
-72
-72
-77
-77
-90
-78
-74
-82
-105
-91
-88
-103
-91
-88
-82
-93
-100
-81
-96
-92
-99
-87
-98
-106
-102
-88
-98
-97
-98
-97
-78
-97
-99
-89
-84
-96
-99
-84
-92
-82
-87
-81
-91
-88
-84
-102
-99
-83
-94
-109
-94
-85
-93
-96
-91
-83
-107
-106
-86
-90
-81
-90
-98
-93
-104
-73
-81
-96
-85
-105
-103
-80
-90
-93
-84
-97
-92
-104
-85
-80
-82
-102
-93
-87
-93
-93
-98
-94
-83
-96
-97
-75
-80
-103
-88
-89
-81
-85
-92
-113
-113
-91
-88
-87
-87
-88
-83
-85
-87
-81
-83
-85
-108
-109
-112
-91
-77
-80
-79
-97
-111
-96
-81
-77
-82
-89
-100
-93
-91
-93
-94
-99
-93
-104
-95
-95
-86
-97
-97
-95
-85
-103
-103
-86
-92
-89
-92
-98
-89
-93
-87
-94
-99
-69
-80
-98
-94
-103
-95
-88
-92
-103
-89
-91
-107
-90
-98
-103
-90
-73
-95
-83
-86
-86
-92
-91
-82
-87
-101
-94
-84
-75
-91
-91
-88
-81
-75
-70
-71
-82
-91
-73
-76
-54
-76
-91
-74
-66
-87
-77
-68
-91
-92
-102
-108
-93
-99
-94
-96
-95
-92
-90
-114
-92
-74
-89
-80
-92
-108
-90
-97
-98
-94
-100
-95
-104
-104
-96
-91
-86
-81
-76
-97
-106
-100
-103
-95
-95
-88
-79
-91
-98
-93
-113
-106
-90
-90
-110
-104
-62
-70
-73
-71
-63
-56
-46
-54
-60
-42
-19
-7
-3
2
32
26
6
-10
-44
-80
-86
-95
-117
-111
-114
-126
-117
-92
-93
-86
-93
-101
-106
-92
-101
-113
-92
-95
-80
-83
-74
-86
-96
-109
-93
-99
-88
-85
-89
-101
-87
-85
-94
-99
-92
-89
-95
-87
-83
-89
-82
-89
-92
-88
-87
-92
-89
-82
-89
-84
-93
-92
-73
-88
-97
-89
-77
-86
-91
-86
-84
-74
-75
-89
-82
-100
-93
-75
-77
-81
-88
-88
-77
-79
-79
-83
-71
-81
-85
-68
-81
-68
-69
-74
-78
-56
-60
-64
-67
-53
-65
-63
-60
-56
-48
-47
-44
-48
-53
-47
-39
-44
-55
-21
-30
-47
-36
-45
-29
-39
-52
-37
-34
-51
-54
-47
-40
-62
-55
-42
-61
-56
-69
-74
-69
-59
-73
-75
-71
-79
-68
-87
-90
-94
-88
-96
-90
-97
-89
-94
-95
-91
-95
-85
-98
-113
-90
-89
-74
-82
-107
-103
-94
-97
-99
-96
-95
-100
-99
-95
-100
-100
-92
-92
-96
-92
-99
-100
-90
-84
-93
-98
-108
-74
-80
-100
-116
-89
-95
-107
-94
-98
-83
-84
-83
-93
-92
-103
-113
-94
-90
-89
-90
-100
-93
-93
-90
-86
-110
-87
-99
-98
-86
-91
-89
-99
-96
-112
-85
-72
-92
-99
-85
-92
-106
-108
-96
-83
-74
-74
-94
-95
-93
-102
-99
-89
-98
-85
-92
-88
-95
-93
-102
-89
-82
-84
-108
-101
-95
-95
-94
-90
-86
-95
-91
-97
-93
-85
-113
-94
-84
-87
-90
-98
-90
-85
-98
-98
-91
-103
-89
-75
-79
-98
-107
-101
-87
-99
-87
-82
-90
-99
-116
-100
-91
-65
-91
-98
-93
-89
-112
-102
-90
-98
-88
-83
-104
-101
-97
-86
-84
-87
-99
-88
-87
-108
-87
-99
-93
-100
-109
-92
-92
-77
-84
-93
-109
-96
-83
-95
-95
-98
-95
-92
-70
-90
-96
-93
-92
-96
-102
-90
-100
-86
-93
-106
-98
-79
-89
-99
-97
-100
-93
-100
-91
-85
-87
-94
-102
-89
-63
-85
-90
-106
-102
-85
-89
-92
-90
-118
-100
-82
-90
-93
-111
-92
-92
-85
-89
-85
-95
-106
-95
-106
-86
-76
-86
-86
-92
-91
-99
-97
-96
-94
-93
-86
-65
-90
-101
-87
-90
-74
-98
-96
-85
-84
-86
-80
-82
-92
-90
-96
-80
-62
-78
-76
-75
-76
-71
-78
-55
-70
-88
-98
-83
-64
-74
-95
-80
-95
-96
-89
-91
-107
-92
-97
-105
-93
-83
-96
-75
-91
-102
-91
-96
-94
-89
-89
-90
-98
-108
-95
-103
-102
-111
-83
-73
-87
-90
-90
-86
-83
-102
-111
-85
-90
-97
-94
-96
-98
-97
-86
-79
-82
-91
-72
-62
-52
-56
-81
-54
-45
-53
-29
-37
4
19
15
32
26
-2
-28
-42
-48
-75
-109
-131
-127
-136
-120
-100
-109
-104
-89
-86
-97
-96
-91
-85
-93
-87
-98
-115
-106
-81
-81
-84
-84
-97
-94
-82
-89
-107
-84
-77
-80
-81
-105
-90
-84
-85
-91
-96
-95
-85
-91
-82
-82
-83
-77
-80
-76
-69
-88
-99
-107
-89
-74
-93
-83
-72
-103
-87
-81
-81
-105
-88
-79
-70
-81
-81
-73
-86
-79
-80
-77
-79
-80
-76
-77
-65
-61
-86
-93
-83
-75
-73
-56
-67
-54
-62
-82
-77
-52
-55
-65
-66
-57
-46
-48
-59
-46
-30
-49
-48
-47
-50
-34
-30
-38
-38
-32
-29
-16
-32
-49
-53
-39
-51
-53
-26
-52
-42
-50
-59
-54
-54
-77
-73
-74
-77
-71
-70
-77
-75
-73
-77
-81
-86
-92
-96
-103
-96
-90
-97
-98
-85
-79
-98
-105
-99
-93
-120
-111
-93
-102
-90
-106
-85
-83
-106
-100
-105
-92
-101
-101
-110
-110
-94
-77
-95
-97
-90
-85
-95
-93
-105
-107
-82
-95
-108
-97
-102
-106
-91
-102
-93
-94
-102
-113
-115
-106
-102
-78
-86
-93
-91
-103
-111
-83
-105
-120
-126
-98
-90
-89
-69
-106
-112
-110
-88
-97
-96
-106
-103
-106
-103
-115
-98
-95
-98
-110
-97
-88
-98
-106
-98
-94
-96
-99
-101
-108
-102
-103
-94
-113
-118
-104
-86
-112
-106
-104
-110
-107
-114
-105
-109
-91
-101
-125
-111
-98
-104
-117
-123
-92
-92
-107
-108
-110
-94
-98
-104
-105
-115
-117
-113
-97
-112
-114
-110
-105
-97
-113
-119
-116
-120
-114
-89
-91
-90
-98
-107
-103
-121
-122
-104
-109
-113
-109
-117
-110
-107
-116
-108
-96
-105
-102
-102
-111
-115
-98
-102
-111
-97
-107
-107
-96
-87
-99
-107
-97
-104
-114
-92
-90
-102
-97
-104
-88
-96
-95
-97
-100
-90
-90
-105
-119
-117
-112
-113
-99
-120
-106
-97
-105
-113
-117
-105
-90
-110
-124
-119
-124
-116
-109
-127
-108
-109
-118
-101
-107
-112
-115
-124
-113
-107
-106
-105
-116
-126
-117
-109
-114
-116
-110
-118
-116
-109
-101
-114
-107
-107
-104
-108
-106
-85
-86
-76
-61
-70
-75
-70
-52
-35
-17
-13
-7
6
-13
-36
-52
-70
-84
-110
-119
-139
-149
-164
-136
-125
-132
-123
-121
-131
-113
-102
-102
-113
-112
-100
-107
-119
-108
-110
-100
-103
-96
-103
-105
-101
-106
-107
-106
-94
-97
-92
-96
-84
-106
-103
-97
-102
-100
-110
-104
-84
-94
-101
-97
-90
-88
-107
-111
-96
-101
-89
-87
-91
-84
-97
-91
-96
-100
-98
-95
-92
-90
-89
-100
-97
-93
-80
-85
-83
-97
-90
-82
-83
-82
-92
-93
-74
-67
-71
-63
-75
-77
-82
-73
-78
-82
-72
-80
-72
-72
-70
-74
-78
-56
-72
-65
-61
-58
-53
-46
-50
-56
-51
-48
-49
-46
-31
-42
-40
-23
-36
-62
-56
-64
-46
-69
-77
-57
-58
-64
-66
-65
-79
-100
-77
-72
-84
-87
-90
-102
-92
-94
-100
-84
-88
-99
-97
-99
-107
-101
-96
-99
-100
-111
-105
-109
-106
-90
-98
-103
-101
-95
-96
-97
-97
-111
-97
-92
-105
-109
-85
-99
-115
-94
-92
-98
-76
-97
-108
-94
-106
-99
-95
-101
-105
-104
-105
-93
-94
-102
-95
-110
-103
-100
-97
-101
-114
-110
-96
-102
-83
-101
-92
-79
-88
-100
-103
-104
-117
-87
-100
-90
-88
-94
-95
-98
-91
-96
-90
-89
-94
-93
-90
-100
-92
-92
-84
-91
-87
-96
-75
-81
-101
-94
-88
-100
-98
-90
-97
-84
-85
-80
-90
-88
-94
-106
-103
-108
-87
-101
-95
-98
-110
-94
-87
-88
-95
-92
-94
-97
-102
-94
-88
-92
-73
-95
-92
-85
-85
-99
-97
-98
-107
-88
-80
-82
-82
-99
-93
-77
-100
-90
-90
-95
-105
-99
-91
-90
-96
-86
-86
-91
-93
-101
-100
-85
-88
-83
-92
-83
-87
-94
-94
-88
-77
-82
-80
-91
-80
-87
-84
-85
-81
-87
-89
-80
-81
-74
-72
-60
-66
-67
-68
-75
-81
-82
-68
-74
-81
-69
-86
-80
-82
-88
-84
-97
-95
-91
-86
-83
-84
-86
-82
-77
-95
-95
-89
-85
-91
-89
-94
-86
-95
-93
-91
-97
-82
-79
-83
-94
-90
-102
-90
-90
-96
-95
-79
-89
-84
-84
-93
-101
-101
-84
-64
-69
-86
-91
-75
-56
-67
-79
-50
-50
-53
-27
-30
-31
-29
-5
13
17
38
21
1
-32
-41
-62
-79
-94
-110
-117
-118
-114
-109
-96
-89
-93
-98
-87
-96
-91
-71
-85
-88
-86
-86
-77
-73
-85
-91
-76
-76
-75
-81
-97
-88
-88
-70
-93
-95
-83
-80
-77
-74
-75
-76
-79
-79
-75
-72
-77
-68
-76
-77
-89
-70
-86
-66
-62
-84
-82
-87
-76
-98
-74
-60
-73
-59
-68
-71
-71
-78
-78
-79
-84
-80
-75
-80
-70
-77
-81
-64
-57
-62
-61
-64
-74
-64
-63
-57
-63
-55
-55
-74
-52
-48
-39
-40
-48
-43
-38
-55
-46
-45
-24
-21
-25
-44
-54
-33
-19
-31
-26
-25
-21
-22
-14
-11
-18
-37
-42
-29
-40
-26
-47
-41
-39
-63
-51
-53
-49
-61
-75
-62
-51
-60
-76
-68
-75
-79
-61
-77
-83
-70
-88
-79
-69
-68
-85
-102
-73
-73
-85
-83
-69
-78
-82
-78
-82
-91
-74
-72
-82
-80
-74
-80
-92
-82
-84
-92
-86
-92
-89
-78
-75
-64
-64
-90
-89
-89
-80
-68
-81
-89
-81
-80
-80
-76
-80
-73
-79
-87
-76
-71
-85
-76
-61
-77
-89
-81
-79
-87
-78
-85
-83
-83
-80
-90
-88
-72
-63
-62
-74
-76
-79
-81
-71
-81
-73
-72
-65
-84
-82
-65
-68
-83
-77
-79
-72
-71
-67
-68
-83
-85
-83
-73
-71
-73
-77
-62
-77
-81
-94
-80
-74
-80
-70
-69
-82
-79
-70
-72
-66
-86
-89
-77
-83
-81
-71
-78
-96
-81
-61
-77
-67
-69
-88
-77
-71
-67
-76
-100
-75
-79
-79
-71
-66
-72
-75
-77
-84
-68
-67
-78
-85
-70
-73
-84
-75
-59
-66
-80
-82
-81
-90
-79
-91
-81
-69
-61
-74
-93
-85
-77
-70
-67
-73
-73
-80
-92
-65
-67
-77
-92
-87
-62
-68
-77
-64
-54
-59
-69
-88
-94
-83
-64
-66
-71
-65
-53
-67
-70
-68
-71
-73
-59
-65
-65
-56
-75
-62
-63
-61
-50
-65
-66
-77
-63
-55
-57
-46
-62
-66
-79
-70
-94
-76
-86
-72
-64
-76
-84
-73
-78
-77
-83
-79
-86
-75
-75
-72
-69
-62
-89
-93
-63
-83
-75
-71
-69
-94
-89
-75
-93
-77
-85
-80
-67
-67
-65
-86
-81
-81
-82
-68
-74
-85
-77
-70
-67
-60
-51
-45
-46
-37
-39
-48
-38
-25
-23
-10
17
16
37
42
33
10
-15
-18
-45
-65
-98
-101
-96
-97
-102
-96
-95
-88
-79
-85
-70
-62
-74
-64
-70
-78
-72
-83
-69
-67
-73
-68
-69
-81
-75
-65
-70
-78
-70
-80
-79
-79
-69
-58
-63
-68
-72
-81
-82
-73
-66
-60
-60
-76
-77
-90
-79
-68
-72
-63
-72
-79
-66
-49
-66
-85
-70
-51
-80
-65
-56
-62
-56
-60
-73
-71
-61
-58
-47
-61
-64
-62
-61
-70
-48
-70
-75
-55
-64
-57
-41
-54
-65
-49
-46
-47
-52
-47
-45
-43
-35
-27
-35
-56
-38
-12
-24
-30
-24
-19
-21
-19
-28
-14
-11
-22
-16
-8
-15
-27
-9
-5
-21
-12
-5
-22
-20
-18
-40
-50
-44
-48
-47
-48
-54
-46
-47
-58
-62
-65
-80
-66
-65
-62
-73
-65
-56
-60
-51
-60
-80
-78
-73
-84
-64
-68
-65
-76
-63
-62
-52
-73
-76
-79
-83
-85
-76
-63
-94
-78
-62
-66
-54
-73
-82
-75
-84
-74
-88
-68
-71
-73
-65
-61
-74
-65
-58
-74
-79
-75
-63
-72
-69
-84
-70
-74
-54
-56
-39
-55
-83
-89
-78
-86
-80
-67
-65
-78
-80
-79
-67
-67
-62
-79
-68
-63
-67
-63
-67
-67
-66
-73
-58
-66
-71
-71
-73
-75
-67
-80
-73
-50
-63
-64
-83
-79
-70
-81
-78
-63
-68
-69
-91
-72
-73
-56
-55
-63
-70
-71
-67
-54
-57
-51
-62
-71
-58
-82
-86
-83
-71
-64
-72
-75
-67
-65
-90
-84
-60
-74
-74
-80
-87
-59
-56
-65
-62
-74
-80
-58
-57
-73
-73
-68
-77
-73
-79
-65
-63
-84
-75
-65
-68
-70
-71
-60
-52
-68
-83
-75
-62
-73
-73
-83
-79
-67
-74
-68
-70
-57
-78
-64
-57
-69
-66
-76
-71
-62
-65
-92
-88
-64
-72
-81
-81
-52
-65
-62
-73
-78
-62
-55
-58
-63
-62
-68
-65
-75
-38
-57
-67
-57
-69
-54
-56
-61
-54
-60
-54
-49
-56
-44
-62
-69
-79
-76
-47
-56
-48
-67
-63
-63
-69
-72
-75
-58
-74
-59
-63
-69
-71
-72
-77
-67
-68
-58
-92
-66
-76
-67
-70
-79
-102
-74
-76
-58
-50
-64
-66
-70
-74
-65
-70
-77
-69
-63
-73
-71
-71
-72
-78
-84
-72
-68
-77
-69
-43
-36
-35
-48
-43
-49
-43
-42
-23
-28
-16
16
26
42
41
48
20
-18
-56
-54
-31
-71
-82
-98
-117
-112
-108
-102
-83
-75
-78
-65
-56
-70
-70
-75
-82
-79
-89
-101
-67
-68
-65
-61
-66
-61
-53
-66
-85
-100
-73
-56
-64
-65
-67
-67
-77
-81
-63
-65
-66
-65
-66
-83
-62
-65
-68
-68
-66
-61
-67
-62
-63
-73
-71
-93
-70
-69
-66
-53
-59
-62
-70
-68
-64
-46
-63
-80
-75
-58
-77
-65
-68
-64
-53
-64
-71
-52
-54
-77
-51
-35
-65
-68
-30
-33
-36
-52
-67
-53
-50
-35
-36
-30
-39
-34
-16
-19
-31
-39
-34
-27
-24
-26
-24
-13
-17
-35
-20
-22
-12
-34
-26
-14
-24
-25
-27
-35
-39
-51
-44
-57
-48
-54
-43
-41
-65
-69
-70
-80
-76
-71
-73
-80
-60
-86
-98
-85
-79
-79
-78
-78
-89
-92
-98
-96
-90
-80
-79
-93
-95
-93
-64
-71
-79
-93
-102
-93
-91
-84
-87
-92
-95
-93
-95
-86
-100
-93
-100
-93
-77
-86
-88
-85
-95
-90
-107
-85
-87
-90
-80
-86
-97
-90
-74
-84
-79
-103
-96
-135
-116
-79
-80
-107
-86
-78
-91
-84
-77
-87
-99
-96
-92
-94
-85
-87
-90
-103
-93
-92
-85
-94
-88
-78
-90
-96
-88
-89
-89
-92
-96
-85
-85
-85
-88
-86
-81
-90
-85
-86
-105
-110
-89
-102
-93
-74
-83
-90
-101
-96
-91
-85
-87
-84
-92
-90
-84
-94
-109
-89
-74
-90
-100
-84
-75
-84
-93
-90
-99
-101
-91
-74
-84
-93
-95
-75
-87
-108
-112
-93
-97
-73
-78
-78
-81
-94
-85
-82
-76
-73
-80
-83
-91
-79
-83
-93
-92
-70
-72
-95
-59
-66
-75
-73
-63
-78
-68
-66
-73
-69
-74
-77
-75
-79
-74
-70
-74
-67
-74
-82
-79
-85
-88
-87
-94
-88
-99
-86
-99
-82
-73
-66
-74
-69
-78
-93
-101
-96
-74
-89
-87
-95
-94
-76
-77
-90
-111
-92
-79
-76
-78
-79
-82
-75
-79
-83
-87
-92
-89
-92
-79
-87
-68
-81
-71
-66
-62
-67
-57
-42
-57
-43
-35
-44
-16
-8
20
-4
-11
43
15
-18
-24
-54
-74
-84
-105
-115
-123
-110
-103
-105
-96
-90
-88
-100
-101
-98
-94
-76
-72
-82
-75
-70
-76
-90
-84
-89
-93
-70
-76
-87
-106
-76
-63
-76
-70
-78
-76
-95
-80
-79
-72
-85
-76
-72
-75
-83
-84
-94
-82
-71
-81
-73
-70
-74
-75
-77
-79
-83
-61
-69
-66
-69
-78
-74
-75
-74
-59
-75
-89
-77
-63
-69
-64
-53
-56
-71
-67
-72
-66
-72
-52
-64
-66
-49
-53
-56
-47
-42
-53
-49
-55
-57
-40
-40
-45
-44
-38
-16
-27
-32
-20
-23
-17
-26
-34
-35
-11
-21
-8
-13
-6
-24
-28
-31
-30
-31
-23
-14
-30
-44
-41
-33
-33
-34
-24
-46
-56
-61
-57
-65
-63
-66
-74
-62
-68
-63
-62
-70
-72
-63
-73
-74
-96
-82
-66
-65
-85
-74
-95
-73
-74
-77
-81
-68
-63
-70
-77
-86
-84
-76
-75
-75
-80
-73
-80
-88
-75
-76
-74
-74
-73
-63
-69
-75
-71
-73
-70
-70
-92
-91
-97
-67
-73
-70
-75
-72
-69
-69
-66
-71
-71
-77
-74
-77
-78
-68
-56
-83
-80
-69
-85
-90
-79
-61
-77
-77
-61
-69
-74
-50
-63
-74
-77
-71
-84
-60
-69
-79
-83
-63
-67
-74
-64
-68
-73
-59
-63
-73
-71
-71
-74
-56
-79
-85
-68
-63
-53
-65
-78
-68
-67
-68
-74
-63
-77
-65
-73
-67
-62
-73
-71
-75
-67
-71
-67
-65
-63
-58
-73
-76
-75
-74
-71
-72
-75
-69
-75
-70
-64
-70
-68
-74
-64
-65
-71
-76
-61
-56
-56
-56
-84
-73
-47
-59
-94
-77
-68
-60
-63
-66
-59
-62
-62
-69
-66
-59
-76
-70
-61
-49
-61
-68
-58
-58
-63
-61
-66
-55
-59
-62
-53
-50
-48
-56
-66
-51
-39
-32
-36
-53
-67
-68
-43
-47
-46
-54
-47
-61
-63
-76
-69
-67
-60
-62
-60
-74
-81
-73
-61
-50
-72
-80
-67
-60
-73
-69
-64
-66
-71
-70
-77
-93
-58
-71
-46
-37
-65
-66
-71
-75
-74
-65
-59
-68
-70
-59
-59
-61
-72
-74
-68
-49
-54
-47
-44
-38
-39
-36
-27
-28
-38
-6
-4
12
36
37
45
56
30
14
-4
0
-38
-48
-86
-89
-85
-107
-97
-87
-82
-77
-82
-62
-67
-56
-70
-62
-54
-58
-56
-64
-69
-55
-58
-61
-53
-64
-73
-58
-72
-77
-68
-69
-41
-50
-75
-51
-42
-51
-55
-68
-72
-54
-57
-52
-60
-63
-63
-69
-69
-57
-70
-46
-50
-49
-64
-48
-35
-43
-52
-59
-67
-55
-72
-73
-55
-44
-38
-46
-58
-47
-42
-46
-55
-43
-55
-53
-41
-49
-47
-48
-40
-50
-55
-42
-40
-38
-37
-19
-22
-30
-26
-15
-25
-24
-31
-18
-15
-10
-14
-16
-22
-2
-26
-11
-8
-7
-11
0
-2
1
-18
-10
-6
3
-14
-18
-6
-19
-22
-13
-22
-55
-15
-32
-43
-34
-40
-57
-24
-27
-40
-41
-43
-51
-65
-75
-60
-48
-62
-71
-65
-60
-61
-55
-51
-65
-59
-54
-58
-65
-56
-64
-47
-54
-61
-61
-71
-74
-68
-48
-58
-62
-51
-64
-67
-63
-63
-59
-50
-56
-65
-84
-62
-71
-58
-58
-62
-53
-70
-76
-55
-56
-52
-61
-51
-53
-56
-51
-63
-70
-66
-62
-68
-56
-59
-53
-59
-62
-61
-56
-58
-67
-60
-69
-50
-47
-57
-56
-56
-65
-72
-56
-59
-62
-60
-63
-47
-64
-58
-49
-52
-61
-63
-48
-57
-68
-38
-66
-55
-62
-70
-66
-44
-50
-58
-72
-57
-53
-54
-53
-56
-54
-56
-71
-65
-62
-62
-50
-65
-68
-51
-56
-62
-60
-44
-54
-59
-65
-69
-60
-57
-63
-56
-55
-50
-61
-62
-48
-60
-70
-59
-61
-79
-62
-43
-52
-65
-58
-64
-51
-50
-58
-66
-54
-61
-64
-58
-57
-61
-68
-61
-65
-58
-60
-57
-57
-54
-55
-57
-62
-54
-47
-53
-53
-58
-52
-56
-72
-62
-34
-26
-36
-67
-66
-46
-40
-25
-50
-78
-60
-41
-39
-56
-66
-50
-37
-30
-39
-40
-28
-46
-45
-49
-54
-65
-63
-57
-61
-61
-77
-62
-49
-56
-50
-52
-66
-59
-56
-68
-57
-57
-61
-46
-57
-60
-72
-65
-68
-71
-63
-66
-62
-61
-49
-62
-65
-74
-62
-57
-79
-51
-57
-68
-48
-49
-53
-63
-64
-65
-74
-61
-34
-24
-37
-31
-36
-19
-29
-30
-29
-1
6
14
39
42
52
69
45
-3
-5
-4
-35
-72
-75
-68
-78
-84
-90
-77
-59
-59
-64
-61
-70
-51
-60
-61
-60
-71
-56
-69
-67
-57
-57
-54
-50
-58
-67
-65
-50
-46
-51
-51
-52
-75
-44
-48
-58
-55
-59
-54
-48
-57
-54
-58
-59
-48
-62
-58
-54
-50
-59
-56
-46
-53
-58
-66
-45
-47
-49
-46
-51
-47
-51
-46
-51
-65
-51
-53
-47
-43
-48
-35
-45
-57
-52
-36
-43
-52
-36
-26
-33
-43
-41
-40
-33
-34
-37
-49
-24
-25
-23
-36
-24
-40
-21
-18
5
-9
-30
-11
5
-9
-28
-18
11
7
-13
0
-10
-6
-6
-9
-3
-5
0
-11
-19
-31
-12
-7
-22
-22
-22
-26
-28
-41
-51
-49
-34
-37
-53
-35
-39
-71
-72
-57
-44
-49
-75
-56
-47
-52
-38
-54
-57
-54
-62
-66
-69
-63
-60
-70
-67
-61
-63
-48
-61
-53
-53
-58
-58
-58
-63
-64
-64
-62
-70
-69
-68
-77
-63
-61
-45
-56
-68
-62
-48
-68
-58
-66
-60
-53
-64
-54
-55
-59
-60
-76
-50
-48
-86
-63
-52
-69
-64
-55
-64
-63
-64
-72
-54
-58
-64
-51
-50
-69
-72
-49
-65
-71
-53
-59
-58
-61
-55
-55
-58
-60
-72
-65
-57
-64
-72
-59
-50
-54
-63
-64
-54
-56
-56
-56
-66
-66
-70
-65
-54
-62
-73
-57
-53
-63
-66
-54
-50
-65
-82
-65
-61
-51
-49
-57
-66
-70
-61
-52
-59
-65
-54
-56
-69
-60
-63
-78
-71
-46
-55
-51
-50
-49
-63
-75
-69
-68
-47
-55
-71
-78
-62
-52
-63
-52
-71
-64
-71
-72
-55
-58
-62
-74
-56
-62
-68
-73
-55
-63
-55
-71
-73
-66
-55
-43
-50
-59
-72
-55
-59
-56
-56
-66
-75
-81
-75
-59
-55
-67
-50
-69
-67
-72
-60
-64
-85
-88
-50
-42
-65
-62
-58
-76
-59
-56
-63
-60
-63
-56
-75
-67
-57
-64
-60
-56
-64
-73
-45
-59
-55
-68
-62
-61
-57
-65
-61
-57
-55
-55
-85
-74
-63
-59
-68
-75
-62
-56
-63
-76
-60
-63
-77
-66
-56
-62
-67
-55
-63
-57
-56
-54
-55
-71
-63
-58
-55
-60
-62
-71
-62
-72
-70
-53
-50
-54
-58
-66
-56
-72
-62
-66
-54
-66
-85
-49
-53
-69
-81
-39
-51
-54
-60
-72
-56
-59
-66
-69
-61
-53
-55
-61
-66
-55
-73
-66
-57
-53
-70
-62
-58
-77
-59
-54
-54
-73
-60
-58
-63
-63
-48
-32
-49
-50
-55
-50
-45
-56
-54
-52
-64
-54
-47
-43
-44
-59
-43
-30
-49
-50
-48
-45
-53
-49
-53
-59
-51
-50
-59
-55
-43
-45
-61
-56
-59
-68
-57
-64
-65
-54
-43
-56
-66
-56
-57
-57
-63
-72
-68
-55
-61
-59
-53
-50
-59
-61
-66
-64
-64
-78
-62
-51
-66
-55
-52
-52
-60
-49
-68
-64
-64
-77
-70
-36
-35
-38
-44
-48
-27
-20
-22
-28
13
30
8
34
43
54
70
56
38
-3
-25
-53
-57
-77
-96
-94
-88
-83
-75
-85
-59
-59
-72
-62
-53
-77
-75
-55
-52
-46
-41
-47
-55
-46
-59
-64
-52
-52
-69
-50
-55
-63
-55
-51
-47
-58
-45
-57
-43
-75
-48
-59
-73
-45
-57
-69
-54
-59
-61
-73
-62
-46
-52
-42
-67
-58
-40
-61
-50
-51
-58
-60
-52
-51
-64
-80
-41
-39
-56
-42
-44
-34
-39
-49
-48
-54
-52
-53
-48
-38
-38
-46
-36
-29
-37
-33
-37
-42
-55
-28
-41
-45
-24
-36
-20
-8
-31
-17
-21
-40
-3
5
-7
-13
-18
-7
0
11
1
-6
-21
-15
-16
-8
-5
10
7
-16
-17
-17
-12
-11
-28
-41
-36
-24
-13
-25
-40
-41
-33
-43
-54
-44
-53
-62
-39
-42
-62
-63
-51
-49
-46
-50
-70
-55
-60
-65
-70
-59
-45
-51
-80
-65
-72
-64
-58
-47
-62
-84
-72
-64
-47
-57
-64
-69
-54
-43
-70
-72
-63
-62
-77
-64
-77
-70
-53
-64
-60
-60
-59
-54
-59
-60
-68
-67
-63
-67
-65
-63
-71
-66
-68
-45
-52
-68
-78
-54
-46
-57
-63
-64
-67
-63
-51
-70
-54
-60
-77
-58
-77
-66
-63
-64
-66
-65
-62
-66
-64
-49
-51
-62
-63
-54
-68
-53
-62
-75
-77
-59
-77
-52
-64
-68
-68
-61
-56
-64
-69
-67
-76
-45
-52
-57
-71
-83
-61
-50
-59
-72
-63
-70
-66
-69
-65
-73
-68
-65
-58
-50
-68
-66
-63
-65
-72
-68
-74
-77
-70
-54
-62
-61
-64
-70
-64
-72
-75
-62
-62
-62
-73
-76
-61
-58
-61
-53
-60
-73
-66
-66
-65
-67
-68
-61
-76
-69
-68
-61
-44
-66
-56
-58
-79
-61
-70
-69
-65
-63
-52
-59
-68
-63
-58
-57
-68
-52
-49
-66
-52
-47
-60
-61
-52
-54
-55
-60
-53
-47
-62
-61
-55
-50
-57
-65
-68
-67
-68
-65
-65
-77
-69
-65
-72
-78
-82
-65
-57
-80
-62
-54
-64
-74
-64
-70
-74
-69
-67
-72
-78
-81
-68
-66
-65
-50
-63
-73
-69
-85
-71
-74
-74
-70
-74
-76
-63
-66
-67
-75
-58
-83
-51
-42
-31
-42
-46
-28
-24
-26
-18
0
15
30
42
43
33
-2
-15
-76
-41
-30
-74
-101
-101
-101
-93
-103
-105
-82
-76
-70
-75
-76
-54
-69
-67
-62
-68
-78
-77
-75
-65
-70
-62
-56
-71
-73
-68
-60
-72
-77
-82
-64
-60
-59
-61
-67
-69
-62
-55
-55
-74
-67
-75
-53
-69
-72
-52
-58
-69
-57
-60
-65
-62
-65
-68
-51
-57
-72
-55
-51
-63
-59
-54
-36
-52
-61
-58
-70
-48
-46
-66
-54
-57
-59
-39
-64
-46
-29
-44
-45
-49
-36
-39
-47
-36
-27
-34
-30
-35
-29
-22
-31
-17
-11
-22
-25
-24
-14
-8
-16
-3
-8
-8
-3
-10
-5
5
9
5
9
5
-7
-4
-9
-5
-10
-14
0
-33
-47
-25
-19
-18
-36
-56
-51
-35
-44
-49
-51
-58
-37
-48
-53
-61
-72
-68
-62
-60
-53
-71
-79
-59
-57
-62
-58
-70
-71
-57
-57
-69
-64
-61
-62
-72
-79
-68
-69
-73
-63
-57
-61
-67
-75
-69
-69
-76
-65
-65
-58
-66
-55
-67
-69
-49
-66
-68
-78
-77
-66
-68
-64
-59
-70
-70
-64
-63
-59
-72
-77
-58
-64
-62
-46
-61
-59
-65
-74
-61
-64
-70
-62
-64
-59
-67
-60
-56
-61
-61
-73
-75
-63
-63
-64
-57
-63
-54
-64
-63
-63
-63
-61
-61
-59
-54
-61
-62
-65
-62
-57
-60
-70
-63
-62
-77
-57
-58
-49
-58
-65
-65
-61
-67
-64
-65
-59
-56
-57
-62
-56
-54
-64
-70
-65
-74
-82
-58
-36
-63
-67
-60
-55
-66
-63
-59
-46
-65
-69
-60
-54
-58
-74
-66
-67
-87
-64
-42
-62
-46
-52
-58
-32
-47
-45
-47
-59
-54
-59
-55
-60
-36
-34
-41
-42
-52
-29
-36
-45
-51
-51
-61
-47
-61
-59
-60
-68
-72
-66
-60
-47
-59
-74
-62
-53
-75
-61
-55
-61
-61
-71
-52
-55
-76
-71
-70
-68
-56
-60
-63
-62
-65
-66
-59
-53
-71
-63
-67
-66
-69
-53
-54
-61
-59
-56
-67
-68
-68
-63
-63
-52
-45
-46
-45
-35
-24
-20
-18
-23
-4
7
24
36
52
62
52
22
-7
-29
-44
-45
-78
-89
-94
-84
-85
-74
-69
-67
-58
-74
-63
-61
-55
-56
-71
-62
-48
-53
-51
-61
-64
-53
-45
-67
-70
-67
-69
-75
-68
-46
-53
-64
-52
-49
-64
-72
-67
-64
-54
-57
-72
-51
-48
-61
-64
-57
-57
-46
-55
-62
-57
-57
-55
-55
-58
-43
-51
-55
-55
-46
-54
-56
-59
-56
-56
-49
-52
-57
-55
-37
-47
-51
-51
-50
-53
-45
-46
-43
-40
-44
-45
-46
-36
-43
-32
-28
-52
-29
-29
-27
-39
-38
-22
-19
-31
-7
-12
-21
-10
-5
-20
-22
7
-1
-2
-9
-11
-18
-6
1
4
-17
-18
3
0
-16
-18
-36
-23
-27
-25
-22
-39
-40
-31
-56
-60
-53
-44
-50
-48
-63
-56
-45
-52
-58
-69
-59
-63
-58
-61
-57
-62
-60
-57
-64
-71
-64
-63
-65
-57
-74
-63
-52
-62
-59
-71
-64
-60
-62
-76
-53
-56
-61
-65
-61
-56
-67
-60
-48
-50
-54
-82
-79
-64
-55
-61
-70
-76
-59
-64
-75
-69
-56
-46
-45
-71
-88
-84
-78
-54
-55
-59
-52
-53
-66
-65
-59
-60
-55
-59
-75
-63
-51
-55
-72
-60
-61
-58
-74
-73
-56
-55
-65
-64
-60
-57
-56
-58
-50
-49
-58
-58
-60
-68
-54
-67
-61
-76
-60
-61
-51
-72
-73
-73
-72
-58
-65
-69
-58
-46
-51
-61
-60
-61
-59
-63
-63
-68
-80
-63
-59
-59
-60
-68
-74
-66
-52
-56
-67
-59
-46
-66
-67
-52
-67
-66
-55
-56
-67
-69
-74
-69
-56
-57
-57
-42
-69
-68
-53
-54
-56
-65
-73
-61
-60
-57
-71
-54
-61
-61
-57
-55
-58
-44
-55
-54
-58
-64
-72
-59
-45
-47
-51
-56
-42
-55
-44
-59
-56
-36
-34
-52
-38
-42
-59
-49
-49
-56
-59
-53
-52
-62
-66
-57
-67
-61
-51
-68
-60
-37
-40
-55
-72
-70
-61
-69
-74
-60
-73
-67
-52
-63
-51
-60
-61
-64
-62
-74
-64
-67
-58
-66
-63
-67
-54
-60
-60
-55
-72
-63
-63
-70
-43
-52
-63
-47
-55
-69
-46
-22
-27
-29
-27
-25
-7
-7
15
39
44
62
55
53
32
9
-15
-28
-51
-76
-87
-75
-78
-79
-80
-72
-61
-58
-68
-83
-65
-58
-66
-56
-59
-65
-74
-41
-46
-61
-58
-58
-58
-70
-66
-68
-65
-55
-59
-43
-56
-52
-55
-52
-60
-60
-64
-56
-57
-53
-54
-55
-58
-61
-58
-58
-40
-44
-62
-60
-54
-42
-54
-48
-53
-58
-58
-46
-51
-64
-54
-61
-58
-52
-38
-58
-54
-39
-43
-50
-39
-40
-51
-39
-51
-46
-44
-41
-50
-25
-39
-50
-34
-31
-21
-30
-28
-17
-29
-35
-44
-15
-17
-22
-11
-15
-12
0
-6
0
-5
-6
-17
-2
-2
-6
-2
-12
-5
-12
-3
-9
-6
-14
-1
-16
-29
-24
-28
-22
-29
-35
-23
-35
-42
-42
-50
-47
-40
-49
-55
-51
-51
-51
-55
-54
-59
-45
-70
-68
-60
-46
-58
-53
-54
-57
-50
-58
-59
-70
-62
-84
-60
-49
-60
-64
-45
-46
-53
-66
-80
-58
-64
-62
-68
-62
-53
-45
-62
-59
-64
-66
-53
-50
-58
-73
-62
-62
-58
-53
-50
-66
-50
-54
-64
-55
-57
-67
-73
-62
-52
-50
-59
-50
-62
-61
-66
-37
-60
-66
-52
-56
-62
-35
-59
-61
-61
-56
-57
-40
-55
-64
-54
-45
-61
-56
-60
-67
-63
-51
-47
-62
-63
-47
-48
-65
-54
-55
-56
-66
-64
-53
-53
-61
-63
-75
-56
-49
-54
-51
-74
-55
-42
-58
-63
-60
-42
-47
-77
-61
-44
-58
-50
-45
-50
-59
-47
-57
-69
-58
-58
-61
-56
-60
-62
-60
-48
-56
-78
-58
-61
-64
-49
-55
-59
-41
-45
-54
-71
-58
-60
-72
-53
-38
-50
-59
-47
-65
-58
-62
-53
-58
-57
-68
-73
-55
-54
-44
-51
-57
-52
-73
-55
-57
-49
-60
-44
-39
-54
-51
-45
-41
-54
-63
-53
-46
-49
-47
-36
-32
-45
-53
-40
-39
-40
-37
-36
-49
-50
-30
-39
-43
-58
-59
-73
-54
-53
-71
-61
-47
-65
-51
-54
-54
-47
-59
-57
-60
-56
-44
-46
-56
-67
-67
-75
-83
-63
-64
-60
-58
-54
-56
-63
-67
-53
-63
-61
-34
-58
-66
-74
-62
-42
-78
-47
-40
-53
-59
-59
-39
-38
-25
-33
-32
-26
-26
-18
-14
-5
16
44
57
60
55
47
37
8
-5
-39
-45
-67
-74
-92
-81
-80
-90
-90
-81
-60
-65
-50
-50
-52
-53
-51
-53
-50
-62
-64
-59
-58
-52
-77
-68
-64
-45
-61
-51
-59
-57
-65
-74
-50
-47
-43
-49
-57
-68
-67
-59
-59
-77
-52
-54
-58
-60
-59
-56
-76
-57
-53
-56
-67
-64
-64
-58
-60
-61
-43
-57
-65
-49
-58
-66
-57
-75
-62
-61
-68
-60
-53
-65
-49
-68
-55
-69
-87
-60
-43
-53
-58
-45
-51
-53
-60
-64
-58
-44
-31
-58
-45
-46
-44
-55
-61
-45
-35
-30
-52
-52
-38
-41
-37
-31
-42
-43
-30
-20
-32
-40
-28
-36
-33
-36
-41
-55
-62
-54
-52
-48
-77
-72
-73
-69
-77
-77
-82
-91
-85
-68
-62
-93
-91
-94
-106
-106
-88
-107
-100
-110
-118
-103
-100
-109
-99
-103
-110
-118
-92
-111
-113
-99
-114
-114
-101
-101
-101
-105
-108
-126
-127
-113
-120
-129
-88
-109
-130
-105
-104
-127
-123
-107
-115
-115
-118
-120
-126
-114
-133
-112
-116
-106
-110
-114
-117
-124
-120
-143
-110
-114
-123
-114
-123
-123
-112
-114
-139
-122
-127
-135
-129
-119
-129
-123
-144
-131
-132
-109
-118
-128
-116
-122
-119
-112
-127
-132
-127
-111
-109
-122
-124
-132
-135
-137
-92
-118
-131
-136
-129
-128
-132
-126
-126
-118
-122
-128
-133
-123
-136
-129
-120
-119
-127
-116
-139
-144
-129
-112
-123
-117
-129
-124
-119
-111
-121
-133
-127
-127
-123
-127
-115
-113
-130
-115
-135
-116
-117
-123
-105
-110
-114
-125
-114
-109
-109
-113
-118
-123
-104
-103
-121
-117
-103
-98
-114
-124
-103
-99
-106
-111
-100
-81
-105
-118
-126
-105
-94
-114
-97
-97
-108
-118
-110
-116
-108
-115
-112
-109
-129
-117
-111
-119
-116
-119
-115
-120
-107
-106
-112
-134
-105
-120
-119
-109
-109
-106
-106
-127
-113
-112
-119
-109
-107
-108
-109
-108
-113
-106
-120
-125
-104
-99
-101
-107
-92
-101
-103
-89
-90
-78
-79
-68
-71
-80
-64
-75
-68
-56
-5
7
6
15
9
-24
-35
-50
-71
-84
-111
-138
-133
-149
-144
-114
-120
-109
-101
-109
-100
-87
-92
-97
-108
-105
-110
-84
-83
-98
-83
-86
-97
-96
-89
-80
-82
-92
-92
-87
-87
-92
-85
-86
-92
-82
-92
-82
-87
-93
-85
-66
-93
-85
-75
-92
-89
-77
-75
-80
-73
-78
-79
-77
-67
-75
-81
-87
-72
-81
-78
-62
-71
-97
-72
-54
-72
-69
-75
-66
-65
-61
-67
-69
-59
-87
-54
-43
-50
-46
-57
-56
-49
-47
-52
-38
-33
-60
-48
-22
-38
-43
-32
-19
-16
-15
-30
-45
-49
7
-5
1
0
-14
-12
-5
4
0
-14
-5
-5
-12
0
-14
-26
-14
-12
-23
-21
-32
-27
-32
-41
-32
-37
-48
-53
-44
-64
-55
-55
-48
-52
-56
-55
-55
-58
-68
-69
-68
-50
-56
-60
-69
-61
-66
-65
-55
-64
-66
-55
-62
-66
-64
-62
-51
-56
-62
-64
-59
-62
-51
-61
-56
-60
-50
-52
-62
-70
-68
-59
-65
-52
-59
-71
-65
-59
-50
-57
-83
-50
-40
-52
-56
-67
-53
-58
-69
-56
-49
-49
-51
-53
-54
-50
-51
-55
-52
-51
-48
-47
-53
-50
-51
-52
-57
-58
-45
-54
-53
-35
-56
-56
-45
-51
-51
-41
-42
-48
-41
-42
-53
-43
-38
-50
-52
-47
-68
-50
-47
-50
-42
-34
-21
-46
-42
-55
-52
-56
-54
-32
-42
-49
-44
-55
-54
-41
-51
-43
-36
-49
-60
-42
-35
-41
-55
-42
-42
-43
-27
-37
-46
-37
-45
-61
-52
-49
-67
-48
-35
-36
-42
-40
-40
-32
-37
-46
-58
-59
-32
-33
-28
-33
-51
-48
-48
-35
-36
-46
-36
-28
-27
-22
-24
-27
-34
-22
-29
-42
-37
-36
-27
-19
-33
-24
-33
-29
-16
-19
-24
-31
-39
-51
-32
-31
-25
-48
-41
-29
-39
-44
-43
-53
-48
-44
-40
-31
-35
-42
-49
-43
-39
-46
-45
-48
-30
-38
-51
-46
-41
-42
-37
-45
-58
-42
-14
-25
-16
-23
-46
-53
-45
-35
-41
-35
-44
-50
-35
-29
-27
-29
-23
-8
2
5
-14
1
4
13
18
17
49
68
70
81
78
59
42
6
14
-6
-50
-75
-69
-57
-52
-43
-46
-42
-39
-34
-40
-32
-28
-9
-25
-43
-53
-40
-32
-36
-38
-38
-38
-41
-32
-37
-37
-39
-19
-29
-27
-37
-21
-23
-22
-27
-29
-26
-27
-39
-44
-28
-29
-37
-29
-21
-29
-18
-29
-32
-32
-37
-32
-16
-5
-27
-29
-14
-13
-29
-25
-25
-20
-27
-26
-30
-27
-23
-23
-26
-36
-9
7
2
-32
-23
-21
-4
-2
-23
-9
-6
-11
-16
-8
-15
-6
-3
3
18
19
7
14
9
10
7
17
13
19
10
32
17
19
17
18
32
28
25
26
38
18
13
12
14
14
17
12
23
24
10
6
1
0
-3
1
2
-6
-18
-21
-7
-18
-29
-25
-32
-32
-22
-19
-30
-14
-14
-28
-27
-28
-27
-27
-33
-32
-28
-25
-22
-27
-43
-45
-60
-9
-18
-26
-28
-12
-27
-22
-31
-31
-27
-31
-33
-38
-38
-23
-23
-24
-30
-24
-23
-41
-16
-34
-37
-32
-21
-28
-35
-27
-24
-21
-18
-32
-20
-17
-20
-39
-44
-43
-29
-44
-25
-16
-17
-28
-42
-17
-30
-18
-11
-24
-26
-12
4
-19
-32
-33
-33
-32
-33
-33
-33
-38
-29
-23
-16
-30
-26
-24
-28
-27
-22
-12
-20
-38
-20
-19
-31
-15
-29
-41
-37
-28
-24
-25
-20
-21
-31
-39
-32
-33
-2
-8
-24
-42
-20
-30
-38
-25
-21
-27
-29
-27
-34
-29
-15
-17
-28
-21
-25
-25
-26
-31
-36
-32
-29
-28
-32
-24
-19
-19
-28
-15
-19
-19
-43
-38
-20
-22
-35
-12
-19
-26
-32
-32
-28
-32
-23
-40
-43
-13
-19
-22
-25
-33
-26
-26
-24
-34
-26
-15
-29
-15
-13
-18
-26
-18
-21
-11
-14
-18
-8
-13
-34
-17
-11
-16
-26
-11
-13
-3
2
-3
-12
-19
-3
2
-9
-24
-19
-2
-30
-26
-36
-33
-34
-31
-16
-29
-24
-22
-20
-19
-28
-15
-34
-30
-31
-31
-20
-23
-37
-50
-25
-31
-25
-36
-29
-20
-34
-26
-39
-34
-25
-25
-38
-22
-26
-23
-18
-21
-34
-34
-36
-48
-28
-13
-18
-24
-16
-5
-8
16
10
10
29
37
21
47
73
82
74
96
88
63
44
17
2
-22
-39
-46
-40
-55
-58
-37
-39
-39
-28
-19
-33
-37
-24
-24
-20
-19
-28
-30
-32
-18
-25
-19
-26
-28
-24
-12
-13
-19
-22
-14
-22
-34
-10
-18
-14
-3
-23
-20
-12
-17
-36
-31
-33
-25
-19
-13
-19
-27
-19
-10
-26
-13
-18
-25
-37
-28
-5
-12
-26
-15
-14
-8
-18
-20
-11
-17
-18
-26
-16
-40
-17
-2
-18
-14
-9
-8
-13
-27
5
4
1
4
6
5
6
4
8
-10
-23
1
17
16
19
9
26
22
17
15
21
30
32
32
38
33
22
23
39
22
19
30
18
14
40
27
19
10
2
7
25
29
13
9
-1
6
-4
-19
-17
-9
-6
-18
-20
-20
-26
-26
-18
-28
-14
-9
-16
-24
-27
-20
-34
-31
-28
-22
-26
-24
-39
-35
-46
-25
-2
-19
-20
-27
-34
-24
-37
-12
-24
-31
-23
-37
-23
-30
-13
-25
-40
-26
-18
-9
-24
-27
-26
-33
-34
-8
-27
-38
-30
-29
-26
-8
-13
-13
-31
-32
-23
-29
-25
-27
-23
-38
-21
-17
-14
-15
-16
-34
-49
-29
-14
-21
-41
-28
-11
-26
-19
-23
-17
-20
-26
-24
-26
-14
-23
-27
-23
-4
-9
-36
-30
-24
-19
-28
-28
-22
-19
-15
-14
-15
-34
-28
-26
-12
-38
-49
-31
-29
-27
-10
2
-6
-22
-31
-33
-20
-7
-25
-21
-22
-28
-27
-18
-9
-15
-23
-31
-32
-15
-21
-29
-34
-30
-15
-21
-32
-24
-32
-24
-17
-26
-21
-7
-26
-30
-27
-9
-21
-15
-30
-33
-15
-22
-16
-36
-25
-21
-39
-24
-2
-25
-22
-24
-31
-18
-13
-26
-27
-29
-21
-13
-34
-23
-32
-20
-19
-14
-17
-14
-18
-24
-12
-19
-10
-6
-21
-15
-5
-10
-22
-13
15
0
-24
-8
-8
-6
-24
-29
-24
16
-4
-24
-26
-22
-19
-35
-35
-19
-24
-14
-29
-26
-19
-54
-31
-12
-20
-30
-25
-38
-25
-21
-19
-21
-21
-29
-17
-22
-18
-22
-25
-39
-28
-26
-24
-32
-30
-21
-29
-31
-27
-46
-29
-19
-29
-7
-8
-19
-23
-21
-13
-3
-3
1
9
-1
11
22
38
53
68
80
69
85
71
48
30
7
2
-14
-53
-69
-74
-76
-67
-76
-52
-34
-40
-27
-33
-22
-27
-22
-18
-28
-21
-12
-30
-35
-47
-44
-19
-19
-28
-26
-27
-20
-31
-34
-39
-31
-23
-12
-24
-33
-33
-27
-35
-44
-32
-26
-30
-22
-27
-39
-21
-28
-23
-37
-45
-43
-37
-28
-17
-6
-13
-29
-37
-39
-35
-33
-24
-10
-25
-34
-30
-26
-28
-32
-29
-26
-40
-28
-6
-17
-36
-13
-13
-30
-26
-15
-29
-28
-6
-6
-9
-2
-13
-27
-5
4
4
-10
15
-9
16
22
13
22
12
-12
18
31
13
17
17
13
26
30
11
17
10
12
15
-2
-10
6
-9
-13
-11
-30
-13
-16
-16
-7
-21
-43
-35
-22
-59
-45
-23
-41
-40
-37
-37
-51
-48
-58
-63
-56
-42
-46
-44
-39
-59
-51
-53
-45
-53
-59
-43
-50
-31
-41
-48
-53
-47
-59
-52
-50
-41
-56
-49
-46
-55
-72
-51
-50
-45
-45
-38
-53
-54
-46
-48
-53
-46
-56
-53
-41
-54
-59
-53
-53
-64
-51
-41
-54
-57
-54
-36
-54
-55
-38
-47
-44
-39
-60
-48
-52
-41
-50
-43
-45
-46
-57
-44
-42
-36
-45
-43
-35
-39
-47
-55
-45
-42
-47
-45
-49
-47
-48
-50
-44
-41
-49
-48
-51
-45
-46
-37
-25
-43
-52
-48
-47
-48
-57
-36
-55
-59
-44
-27
-43
-48
-37
-72
-52
-35
-50
-48
-46
-39
-50
-54
-51
-50
-43
-53
-54
-46
-40
-46
-56
-53
-50
-37
-49
-55
-42
-41
-53
-47
-45
-47
-48
-46
-58
-42
-33
-48
-46
-51
-54
-54
-41
-35
-31
-46
-39
-42
-39
-44
-43
-39
-32
-44
-46
-29
-39
-55
-37
-26
-29
-34
-45
-34
-32
-22
-36
-50
-33
-30
-52
-49
-50
-48
-51
-45
-56
-46
-46
-35
-41
-54
-49
-52
-56
-55
-46
-55
-53
-52
-61
-75
-60
-39
-47
-51
-54
-55
-46
-49
-47
-51
-51
-72
-60
-60
-46
-37
-36
-45
-41
-55
-52
-42
-49
-52
-61
-52
-39
-35
-11
-16
-21
-20
-8
0
-2
6
24
35
63
59
62
40
30
19
-14
-19
-42
-66
-75
-68
-70
-81
-65
-65
-62
-57
-60
-55
-49
-42
-31
-38
-38
-45
-42
-49
-56
-57
-56
-45
-33
-45
-46
-51
-51
-37
-42
-46
-50
-45
-39
-33
-29
-41
-48
-36
-42
-51
-31
-36
-46
-72
-30
-20
-50
-31
-28
-37
-49
-41
-38
-40
-41
-38
-43
-25
-25
-31
-42
-47
-48
-35
-36
-33
-28
-44
-36
-35
-23
-25
-35
-22
-39
-31
-26
-15
-22
-23
-41
-14
-12
-27
-14
-17
-35
-32
-15
5
1
7
-3
2
0
18
-4
-11
-10
2
14
-8
17
19
6
2
26
28
17
9
14
13
0
15
19
-6
0
-5
-18
-6
-3
-11
-12
-18
-20
-14
-43
-36
-35
-32
-27
-38
-30
-35
-43
-61
-45
-32
-24
-40
-73
-53
-54
-46
-31
-36
-55
-46
-46
-47
-44
-42
-47
-43
-40
-43
-43
-54
-61
-29
-30
-51
-56
-48
-38
-41
-37
-33
-33
-58
-53
-44
-49
-65
-57
-45
-38
-43
-37
-37
-53
-49
-38
-52
-34
-36
-44
-46
-54
-45
-55
-54
-35
-38
-51
-37
-41
-41
-53
-43
-36
-41
-36
-47
-39
-41
-42
-56
-47
-43
-40
-51
-48
-47
-48
-51
-39
-46
-56
-54
-41
-20
-34
-41
-44
-38
-43
-45
-50
-48
-34
-55
-53
-53
-61
-46
-43
-67
-75
-74
-86
-98
-100
-124
-161
-211
-261
-314
-370
-389
-413
-406
-386
-374
-351
-358
-328
-313
-301
-273
-241
-238
-215
-207
-199
-207
-182
-188
-171
-161
-172
-168
-160
-159
-161
-148
-156
-160
-138
-140
-139
-130
-137
-123
-130
-120
-111
-125
-130
-125
-120
-124
-126
-136
-128
-108
-123
-123
-120
-109
-102
-105
-93
-101
-99
-114
-112
-103
-110
-103
-88
-91
-102
-102
-111
-90
-79
-102
-94
-96
-103
-84
-94
-92
-87
-92
-86
-88
-93
-81
-87
-85
-88
-72
-68
-84
-70
-82
-94
-84
-75
-84
-80
-66
-78
-70
-66
-76
-69
-72
-68
-75
-73
-58
-57
-67
-55
-55
-65
-55
-57
-60
-56
-42
-61
-69
-65
-68
-85
-84
-75
-63
-67
-73
-76
-74
-61
-58
-60
-88
-61
-57
-73
-67
-74
-68
-69
-69
-70
-55
-48
-93
-92
-62
-78
-70
-60
-74
-66
-66
-68
-62
-66
-65
-74
-47
-66
-61
-69
-63
-67
-76
-71
-54
-30
-35
-43
-34
-36
-35
-14
-5
-18
-14
-10
24
50
49
59
67
14
5
-13
-27
-51
-63
-85
-83
-89
-91
-75
-77
-62
-65
-70
-49
-48
-47
-64
-67
-64
-56
-54
-64
-44
-56
-62
-57
-53
-41
-47
-50
-68
-60
-49
-42
-64
-65
-49
-50
-56
-47
-59
-54
-40
-44
-23
-59
-43
-56
-55
-42
-45
-56
-70
-46
-46
-53
-47
-53
-55
-51
-44
-34
-51
-48
-54
-51
-40
-39
-45
-44
-29
-35
-42
-40
-35
-48
-37
-41
-45
-42
-30
-26
-36
-37
-25
-36
-40
-31
-28
-18
-30
-24
-11
-2
-14
-25
-31
-20
-9
-17
-9
7
4
4
0
-5
-7
-3
4
6
3
6
15
9
-8
-9
-5
5
3
-11
0
-2
-27
1
-9
-14
-13
-18
-30
-47
-32
-34
-37
-46
-25
-35
-39
-50
-43
-38
-46
-57
-55
-34
-41
-44
-45
-35
-40
-54
-48
-57
-47
-57
-56
-48
-47
-45
-48
-53
-61
-42
-41
-42
-46
-53
-50
-63
-55
-40
-44
-57
-56
-59
-56
-48
-36
-37
-47
-53
-54
-58
-56
-50
-43
-44
-44
-59
-51
-41
-53
-54
-29
-40
-54
-43
-33
-40
-57
-56
-51
-50
-42
-34
-51
-49
-43
-47
-43
-50
-54
-46
-37
-46
-51
-57
-44
-44
-54
-48
-32
-48
-66
-41
-40
-62
-39
-45
-42
-49
-36
-49
-49
-44
-45
-47
-53
-62
-44
-45
-41
-39
-40
-54
-53
-39
-45
-59
-53
-55
-40
-56
-37
-30
-41
-54
-63
-66
-46
-47
-43
-34
-50
-65
-56
-49
-41
-46
-46
-43
-45
-44
-47
-47
-55
-47
-47
-41
-39
-62
-49
-40
-48
-53
-39
-47
-48
-66
-59
-60
-40
-48
-36
-43
-59
-50
-78
-61
-54
-41
-39
-45
-46
-57
-40
-45
-49
-44
-39
-50
-59
-49
-47
-56
-56
-54
-48
-39
-35
-51
-59
-45
-38
-63
-40
-54
-54
-39
-45
-47
-60
-59
-57
-46
-47
-41
-44
-51
-56
-45
-49
-59
-53
-38
-32
-46
-43
-49
-38
-35
-67
-55
-54
-53
-59
-46
-46
-60
-41
-38
-42
-46
-50
-48
-52
-52
-46
-40
-42
-56
-59
-48
-59
-50
-44
-53
-45
-48
-43
-46
-42
-49
-51
-56
-49
-46
-42
-37
-43
-45
-42
-50
-61
-43
-33
-51
-49
-40
-62
-47
-55
-53
-50
-53
-53
-48
-43
-50
-47
-48
-62
-50
-45
-49
-50
-43
-48
-41
-59
-47
-42
-40
-50
-53
-36
-36
-48
-39
-56
-54
-58
-44
-45
-41
-35
-43
-38
-44
-38
-35
-41
-31
-38
-49
-44
-37
-48
-38
-34
-23
-36
-25
-39
-41
-15
-29
-62
-36
-29
-32
-34
-36
-37
-47
-45
-54
-48
-41
-44
-35
-50
-58
-51
-49
-49
-54
-45
-44
-59
-54
-51
-33
-41
-45
-54
-41
-44
-54
-51
-58
-50
-59
-57
-48
-43
-49
-50
-45
-32
-30
-41
-45
-59
-56
-55
-55
-54
-51
-57
-23
-32
-36
-22
-15
-7
-9
-12
3
16
24
41
50
57
56
56
35
14
2
-14
-36
-43
-62
-71
-61
-57
-73
-64
-57
-48
-44
-58
-49
-49
-53
-60
-44
-54
-45
-47
-50
-50
-40
-31
-43
-48
-40
-41
-53
-42
-45
-39
-37
-44
-37
-29
-64
-55
-44
-41
-35
-36
-35
-53
-53
-41
-44
-32
-43
-49
-36
-45
-43
-40
-38
-40
-51
-46
-45
-46
-36
-38
-46
-30
-30
-43
-44
-29
-27
-26
-42
-36
-22
-40
-36
-28
-31
-43
-30
-27
-13
-33
-30
-23
-30
-31
-27
-16
-15
-23
-29
-28
-10
-4
-25
-16
3
0
1
14
1
-7
-23
0
15
16
13
4
1
-4
27
28
2
-1
22
9
11
10
-8
-1
0
-9
-20
-12
-8
-18
-3
-17
-23
-24
-30
-39
-32
-34
-33
-40
-37
-37
-46
-61
-41
-37
-31
-29
-32
-48
-37
-44
-45
-53
-44
-37
-37
-55
-53
-41
-49
-45
-47
-50
-39
-45
-38
-43
-45
-50
-39
-50
-55
-41
-41
-47
-52
-56
-33
-54
-59
-41
-53
-54
-42
-45
-57
-54
-43
-42
-46
-36
-33
-19
-39
-37
-19
-43
-59
-29
-40
-34
-52
-52
-56
-61
-64
-23
-49
-46
-41
-37
-46
-66
-58
-46
-39
-68
-51
-32
-36
-29
-35
-58
-42
-39
-31
-35
-54
-57
-45
-43
-34
-44
-60
-57
-66
-37
-41
-36
-34
-50
-58
-74
-42
-31
-49
-54
-38
-33
-42
-44
-39
-40
-42
-51
-46
-33
-47
-33
-40
-49
-47
-43
-53
-64
-42
-35
-53
-39
-43
-60
-58
-51
-39
-51
-50
-36
-54
-52
-42
-40
-57
-53
-42
-30
-48
-62
-45
-41
-54
-54
-34
-39
-34
-46
-55
-69
-62
-42
-51
-44
-38
-40
-41
-51
-44
-46
-53
-48
-46
-52
-56
-45
-56
-47
-44
-54
-44
-42
-49
-39
-46
-45
-60
-78
-47
-25
-31
-31
-54
-48
-50
-38
-40
-64
-36
-42
-55
-53
-45
-50
-51
-67
-52
-38
-44
-38
-49
-28
-31
-32
-32
-35
-46
-61
-30
-41
-44
-48
-43
-28
-25
-19
-24
-27
-23
-39
-49
-34
-38
-45
-42
-45
-39
-41
-61
-84
-57
-36
-43
-50
-46
-34
-35
-57
-41
-60
-47
-51
-45
-55
-52
-29
-46
-67
-58
-52
-52
-55
-84
-42
-48
-50
-51
-41
-45
-54
-51
-57
-41
-51
-49
-45
-51
-52
-70
-46
-33
-43
-27
-39
-25
-22
-27
-22
0
7
-3
19
54
56
61
67
28
20
-7
2
-27
-47
-59
-88
-87
-99
-85
-87
-75
-63
-62
-62
-44
-46
-54
-47
-51
-64
-82
-48
-49
-52
-52
-39
-42
-54
-41
-48
-41
-42
-59
-52
-45
-53
-53
-59
-55
-58
-59
-45
-37
-33
-45
-46
-40
-58
-58
-46
-47
-38
-56
-46
-23
-36
-40
-41
-66
-58
-41
-47
-29
-48
-45
-43
-40
-50
-34
-37
-52
-44
-42
-44
-32
-41
-46
-42
-32
-42
-44
-45
-29
-23
-35
-44
-26
-17
-32
-35
-23
-16
-18
-22
-9
-13
-9
-11
2
7
-27
-25
1
0
5
11
-2
-8
-3
15
20
19
1
11
11
14
3
2
-2
0
11
-2
-2
-13
-12
-32
-18
-15
-20
-26
-35
-36
-35
-49
-47
-38
-31
-40
-47
-50
-60
-45
-52
-62
-52
-57
-58
-53
-64
-61
-60
-33
-42
-63
-68
-61
-54
-68
-58
-62
-56
-59
-55
-58
-60
-66
-72
-72
-78
-56
-42
-50
-60
-64
-56
-55
-61
-55
-67
-65
-62
-62
-60
-67
-72
-60
-56
-66
-62
-63
-67
-43
-53
-52
-52
-44
-60
-73
-75
-60
-67
-57
-65
-74
-71
-54
-45
-50
-69
-60
-53
-59
-35
-67
-68
-44
-55
-57
-59
-72
-60
-61
-61
-61
-60
-63
-60
-59
-61
-63
-69
-54
-55
-59
-53
-56
-69
-68
-62
-64
-60
-52
-46
-60
-57
-64
-68
-66
-59
-69
-71
-62
-52
-74
-32
-32
-67
-71
-76
-75
-52
-55
-68
-76
-67
-67
-57
-58
-70
-60
-59
-65
-68
-64
-70
-48
-58
-53
-51
-59
-69
-63
-61
-61
-68
-63
-54
-76
-74
-60
-41
-55
-42
-52
-77
-66
-64
-73
-60
-72
-66
-61
-67
-55
-40
-52
-48
-50
-51
-59
-56
-55
-47
-49
-51
-49
-41
-41
-48
-45
-40
-42
-51
-58
-52
-45
-48
-41
-58
-65
-70
-77
-63
-49
-58
-74
-63
-72
-54
-44
-54
-50
