167
223
297
270
204
284
338
228
214
251
244
249
219
262
334
314
244
248
250
291
337
188
209
294
323
357
247
262
252
295
262
316
314
261
310
363
337
342
279
287
301
252
299
296
280
262
331
339
306
303
326
337
319
348
314
292
294
294
284
281
352
276
326
369
326
243
314
384
326
325
276
257
336
306
270
291
345
308
324
354
410
346
319
303
303
281
361
343
341
268
332
332
395
384
363
367
341
346
353
382
427
491
490
462
429
498
554
570
522
472
398
238
267
123
102
207
209
235
275
309
170
228
304
269
274
325
345
290
350
468
394
318
403
369
423
502
446
528
463
479
458
410
340
378
426
490
518
511
486
418
472
474
509
457
444
497
425
475
482
514
469
551
517
368
471
512
486
448
492
563
550
500
518
493
441
483
569
527
492
476
513
527
499
522
577
602
547
570
493
533
467
505
529
577
587
580
593
554
506
642
659
527
509
571
557
603
622
534
577
586
619
596
576
560
610
577
476
535
494
482
496
516
575
572
571
476
530
573
492
465
457
411
453
376
375
487
603
568
528
500
407
488
514
405
460
427
428
410
435
483
528
498
457
492
376
363
411
472
524
502
442
462
449
368
319
366
459
524
422
436
356
464
400
369
383
390
410
402
379
436
418
401
414
477
428
318
371
321
427
357
439
438
380
381
421
379
251
271
312
357
441
438
354
317
354
364
423
444
430
325
191
290
440
271
318
361
369
362
319
363
394
287
340
294
391
418
375
309
298
366
331
289
217
346
497
530
331
204
288
315
306
272
366
379
318
314
297
406
377
289
269
405
332
272
188
229
316
342
323
255
347
365
252
289
250
302
364
349
398
307
305
280
310
291
331
295
228
312
344
363
299
375
302
350
305
258
260
307
284
267
307
388
378
282
359
449
282
179
367
430
481
453
436
408
493
380
354
454
381
303
298
148
175
103
45
112
98
42
51
40
126
222
291
173
226
149
246
328
315
233
266
272
345
240
304
308
231
267
364
278
266
377
407
410
326
299
401
195
229
291
379
284
292
396
460
492
298
250
269
256
372
388
304
308
315
347
304
300
363
460
413
267
205
226
311
215
415
427
403
398
469
403
363
307
257
297
288
402
402
410
450
359
394
392
497
354
220
469
421
327
300
369
508
429
430
371
429
329
398
390
442
388
487
405
374
388
307
405
344
401
337
303
323
328
269
419
372
294
318
335
372
323
252
178
415
346
269
395
326
260
263
343
362
244
242
290
308
320
205
198
370
264
327
312
185
244
257
246
259
228
341
326
232
233
242
392
338
259
274
235
267
260
366
306
234
306
181
265
266
216
323
356
289
306
274
210
297
274
292
320
290
352
300
302
133
238
214
355
331
282
275
256
240
320
245
256
343
420
234
144
281
335
229
162
393
411
285
264
250
227
258
237
269
305
315
328
307
248
266
308
357
260
121
238
399
334
327
366
286
158
324
369
63
157
279
407
316
223
294
225
323
271
162
374
261
183
248
307
282
359
274
341
234
288
224
214
311
353
255
171
208
219
325
213
347
352
271
278
209
330
324
216
301
316
255
230
288
421
218
173
349
254
260
318
228
305
289
318
304
389
367
333
402
409
442
476
459
459
356
268
126
87
185
87
-49
-32
118
136
-6
67
142
117
-2
-25
215
201
209
178
277
273
258
262
294
308
167
254
279
311
290
304
288
283
291
268
273
295
268
357
373
285
234
187
339
407
308
197
195
356
376
294
273
286
293
296
293
298
264
291
299
268
283
393
288
360
393
322
293
303
356
351
315
286
357
359
294
361
296
244
231
405
422
423
399
381
382
326
363
370
382
383
373
381
402
372
293
373
411
395
410
380
383
367
366
335
351
359
358
331
246
316
352
309
262
230
266
230
261
260
241
269
328
274
186
191
239
188
139
190
227
110
137
201
286
233
141
122
151
135
152
177
154
140
127
118
160
141
135
122
126
138
101
83
100
119
122
156
148
91
133
225
172
20
42
34
95
108
157
91
37
38
64
86
60
52
18
69
88
33
45
79
74
94
61
35
46
85
57
42
24
10
18
48
120
85
139
77
45
12
65
39
9
26
55
39
11
-69
19
131
73
46
12
-16
42
73
22
32
28
30
0
32
48
37
-39
-36
16
72
102
-1
1
9
-27
-15
20
8
8
-48
-37
43
-22
20
17
-20
12
1
-28
-20
-12
-41
-19
-27
43
-41
-87
-14
10
41
-35
14
69
9
-87
-57
-31
-25
-53
-18
-10
-23
19
-12
-38
-16
-94
-25
3
-11
39
-129
-52
48
-2
-11
110
71
23
-16
86
69
54
176
107
26
-16
43
-33
-128
-192
-185
-209
-264
-191
-211
-237
-280
-277
-221
-209
-207
-184
-109
-133
-167
-120
-66
-47
-64
-17
-16
-27
-55
-23
-65
-45
58
38
26
6
23
41
-10
-7
28
-17
17
23
28
-14
31
16
-33
-19
3
12
20
9
11
38
-22
8
26
10
30
39
-5
14
45
47
26
52
65
61
44
36
43
59
63
66
63
61
67
87
93
84
86
99
99
114
121
125
134
106
122
134
122
103
106
121
121
114
111
101
89
84
59
68
71
58
42
39
26
-1
-8
-21
-21
-44
-57
-72
-86
-101
-112
-120
-141
-150
-163
-164
-178
-186
-191
-204
-218
-227
-242
-242
-247
-263
-279
-283
-285
-298
-301
-316
-321
-322
-337
-330
-328
-328
-320
-330
-321
-334
-333
-331
-333
-342
-345
-350
-356
-358
-361
-367
-375
-363
-372
-378
-382
-371
-375
-383
-379
-373
-376
-369
-367
-379
-379
-377
-384
-394
-398
-399
-390
-388
-380
-382
-388
-365
-356
-347
-348
-345
-334
-337
-338
-327
-336
-329
-325
-321
-313
-319
-326
-325
-316
-309
-311
-311
-312
-318
-298
-296
-320
-299
-300
-318
-306
-304
-287
-291
-287
-295
-283
-284
-282
-274
-276
-280
-279
-283
-289
-286
-284
-293
-294
-295
-293
-281
-284
-294
-296
-285
-261
-275
-302
-292
-289
-286
-280
-279
-282
-292
-282
-290
-286
-294
-284
-283
-278
-282
-289
-295
-285
-287
-292
-276
-274
-267
-272
-272
-268
-263
-281
-286
-285
-283
-283
-277
-259
-262
-257
-253
-242
-225
-203
-191
-172
-159
-151
-148
-146
-150
-202
-310
-405
-449
-484
-497
-494
-493
-501
-497
-493
-470
-452
-442
-432
-413
-397
-386
-376
-355
-334
-336
-329
-322
-308
-291
-286
-281
-283
-277
-275
-273
-277
-270
-270
-281
-267
-272
-264
-265
-265
-255
-252
-273
-260
-262
-262
-254
-254
-248
-253
-248
-260
-258
-260
-245
-253
-264
-245
-243
-245
-243
-246
-243
-237
-234
-234
-243
-229
-228
-228
-231
-220
-225
-229
-230
-214
-212
-204
-210
-198
-199
-212
-202
-197
-191
-192
-192
-188
-178
-185
-196
-192
-177
-171
-182
-177
-181
-175
-156
-154
-160
-158
-160
-153
-159
-175
-184
-187
-180
-178
-182
-186
-202
-197
-202
-207
-210
-229
-239
-225
-228
-227
-234
-231
-232
-234
-246
-255
-257
-254
-258
-258
-250
-244
-265
-255
-251
-242
-255
-246
-239
-239
-252
-245
-250
-258
-246
-238
-247
-235
-235
-243
-241
-244
-248
-253
-249
-244
-240
-244
-255
-258
-249
-243
-237
-248
-232
-237
-239
-235
-226
-224
-236
-229
-221
-235
-241
-228
-215
-218
-226
-237
-230
-236
-229
-234
-221
-224
-222
-208
-212
-214
-212
-212
-219
-216
-216
-201
-214
-219
-220
-216
-214
-203
-206
-209
-208
-205
-208
-203
-213
-215
-223
-190
-181
-198
-210
-213
-214
-199
-206
-203
-209
-207
-215
-206
-214
-214
-214
-213
-218
-215
-220
-211
-227
-229
-241
-215
-211
-216
-224
-227
-220
-221
-220
-226
-217
-219
-216
-210
-221
-220
-210
-204
-208
-206
-218
-228
-215
-208
-207
-215
-219
-224
-220
-210
-214
-217
-218
-222
-211
-201
-209
-211
-197
-202
-207
-182
-149
-120
-101
-86
-63
-50
-55
-71
-84
-154
-264
-363
-392
-426
-419
-394
-429
-432
-429
-416
-386
-381
-358
-345
-334
-321
-300
-285
-270
-270
-251
-235
-231
-223
-212
-199
-196
-203
-200
-206
-207
-199
-196
-200
-199
-198
-208
-196
-194
-194
-189
-192
-186
-192
-199
-192
-188
-184
-188
-188
-180
-176
-195
-190
-189
-174
-171
-172
-166
-168
-178
-168
-173
-176
-175
-173
-177
-172
-165
-160
-157
-151
-150
-145
-144
-150
-148
-149
-153
-146
-112
-113
-120
-129
-123
-109
-117
-119
-115
-109
-114
-117
-110
-106
-100
-89
-87
-95
-99
-103
-100
-97
-105
-115
-109
-110
-126
-131
-129
-135
-143
-151
-145
-149
-163
-169
-166
-176
-188
-185
-166
-173
-197
-205
-204
-195
-207
-200
-205
-209
-210
-203
-203
-206
-223
-207
-209
-217
-225
-229
-216
-213
-206
-210
-216
-213
-220
-212
-213
-212
-216
-221
-220
-222
-223
-226
-232
-233
-222
-201
-199
-219
-224
-211
-209
-219
-210
-211
-213
-211
-216
-217
-226
-238
-229
-213
-217
-227
-236
-234
-217
-210
-223
-228
-235
-235
-231
-218
-208
-225
-223
-209
-205
-211
-208
-229
-227
-215
-213
-218
-214
-212
-205
-206
-207
-221
-207
-202
-214
-204
-188
-219
-206
-203
-208
-208
-200
-216
-212
-212
-198
-209
-216
-211
-196
-197
-210
-218
-219
-216
-216
-225
-224
-217
-219
-220
-220
-222
-231
-224
-223
-232
-221
-225
-222
-216
-220
-218
-224
-220
-222
-222
-229
-235
-223
-223
-228
-219
-225
-243
-217
-216
-215
-201
-215
-221
-220
-221
-227
-228
-206
-217
-215
-199
-193
-185
-174
-160
-143
-117
-92
-69
-67
-60
-63
-67
-111
-202
-287
-370
-416
-452
-456
-438
-434
-450
-424
-413
-399
-383
-374
-337
-333
-321
-311
-295
-275
-262
-253
-246
-236
-236
-216
-211
-206
-201
-208
-200
-191
-204
-197
-184
-183
-182
-183
-189
-196
-193
-195
-195
-189
-189
-185
-189
-190
-174
-172
-176
-183
-179
-175
-174
-171
-170
-171
-177
-175
-167
-168
-162
-160
-168
-163
-154
-154
-155
-159
-144
-150
-157
-151
-139
-141
-135
-133
-122
-113
-124
-130
-127
-115
-111
-109
-101
-96
-90
-88
-90
-88
-88
-82
-91
-88
-85
-83
-82
-81
-77
-79
-91
-85
-94
-82
-101
-110
-96
-112
-123
-128
-130
-132
-134
-131
-136
-143
-153
-171
-180
-174
-157
-176
-187
-187
-190
-194
-186
-189
-186
-183
-188
-187
-195
-203
-210
-211
-206
-197
-195
-195
-203
-218
-204
-214
-223
-211
-213
-219
-224
-223
-217
-206
-212
-204
-209
-214
-209
-209
-214
-217
-214
-215
-211
-210
-214
-206
-217
-220
-216
-216
-226
-229
-218
-205
-203
-214
-215
-195
-202
-219
-215
-215
-203
-202
-217
-211
-212
-204
-196
-202
-199
-212
-213
-204
-213
-190
-178
-187
-192
-198
-195
-200
-194
-196
-198
-195
-190
-193
-190
-196
-193
-194
-188
-190
-196
-185
-182
-188
-188
-180
-189
-193
-180
-174
-179
-183
-183
-183
-195
-193
-189
-186
-188
-196
-186
-183
-183
-201
-219
-206
-186
-188
-197
-205
-213
-194
-187
-200
-197
-197
-192
-199
-201
-206
-209
-206
-212
-216
-193
-200
-204
-200
-188
-195
-198
-198
-197
-204
-203
-209
-200
-196
-190
-190
-189
-203
-185
-166
-168
-155
-144
-123
-96
-76
-67
-46
-39
-41
-49
-75
-158
-263
-357
-398
-419
-425
-423
-427
-416
-420
-412
-392
-369
-369
-336
-313
-302
-297
-273
-257
-241
-240
-228
-226
-222
-203
-187
-187
-180
-185
-191
-189
-176
-173
-181
-184
-179
-173
-178
-184
-176
-168
-176
-168
-169
-172
-171
-172
-162
-159
-174
-180
-158
-163
-164
-170
-160
-154
-150
-154
-154
-149
-150
-152
-148
-150
-148
-148
-143
-132
-140
-134
-132
-138
-135
-127
-110
-124
-140
-117
-104
-100
-102
-92
-86
-96
-88
-85
-76
-80
-75
-64
-79
-79
-74
-68
-71
-64
-70
-63
-65
-63
-82
-81
-70
-70
-74
-77
-89
-94
-92
-104
-110
-111
-117
-121
-124
-135
-139
-138
-137
-151
-155
-161
-169
-173
-172
-164
-169
-173
-184
-185
-177
-184
-192
-180
-186
-183
-188
-184
-176
-191
-182
-187
-188
-182
-193
-194
-185
-186
-175
-182
-186
-184
-190
-178
-181
-181
-193
-187
-185
-188
-185
-189
-179
-172
-177
-189
-178
-176
-180
-179
-180
-177
-173
-165
-171
-163
-165
-163
-163
-165
-164
-167
-165
-171
-169
-174
-181
-175
-160
-169
-177
-177
-172
-168
-163
-165
-168
-163
-172
-158
-168
-159
-155
-151
-154
-163
-165
-162
-164
-163
-166
-166
-165
-171
-178
-179
-177
-176
-195
-187
-161
-163
-168
-170
-169
-173
-178
-177
-170
-168
-179
-176
-180
-189
-182
-185
-183
-181
-181
-182
-181
-172
-172
-177
-180
-181
-182
-180
-183
-181
-184
-183
-180
-177
-172
-180
-179
-173
-177
-175
-161
-143
-153
-151
-119
-92
-76
-58
-38
-31
-24
-19
-26
-32
-102
-208
-319
-363
-393
-394
-406
-397
-396
-399
-391
-384
-362
-341
-322
-319
-302
-292
-273
-240
-224
-215
-207
-193
-186
-179
-174
-170
-168
-168
-165
-172
-169
-167
-170
-161
-153
-161
-146
-148
-141
-143
-136
-148
-145
-146
-141
-134
-135
-139
-148
-142
-141
-148
-132
-138
-132
-135
-140
-133
-121
-128
-128
-129
-122
-121
-117
-125
-126
-119
-119
-114
-108
-107
-109
-102
-103
-90
-87
-86
-80
-68
-77
-80
-69
-68
-66
-65
-53
-56
-49
-51
-60
-58
-46
-46
-38
-41
-50
-57
-45
-39
-41
-47
-51
-46
-55
-52
-57
-64
-69
-89
-89
-88
-90
-103
-110
-113
-110
-112
-117
-123
-134
-138
-129
-130
-143
-148
-134
-145
-147
-153
-151
-149
-154
-146
-156
-159
-160
-160
-155
-157
-163
-154
-178
-168
-153
-154
-154
-155
-162
-162
-159
-153
-144
-151
-160
-158
-157
-153
-166
-162
-164
-159
-156
-156
-162
-153
-154
-159
-166
-161
-159
-161
-155
-149
-165
-158
-149
-139
-144
-165
-163
-160
-160
-150
-147
-143
-148
-143
-145
-145
-144
-148
-144
-140
-145
-139
-127
-131
-141
-142
-139
-147
-146
-140
-143
-141
-139
-135
-140
-138
-135
-139
-132
-130
-132
-130
-122
-133
-128
-129
-137
-137
-137
-135
-143
-140
-138
-151
-169
-159
-151
-153
-161
-144
-137
-138
-145
-147
-146
-140
-151
-156
-151
-153
-152
-145
-154
-142
-153
-154
-144
-147
-143
-150
-147
-151
-153
-151
-151
-155
-162
-160
-146
-146
-157
-151
-153
-154
-158
-155
-153
-143
-134
-131
-136
-129
-122
-116
-66
-55
-54
-29
-13
4
16
18
7
-43
-126
-225
-310
-352
-364
-375
-378
-380
-376
-369
-346
-330
-332
-305
-277
-276
-255
-247
-227
-199
-183
-170
-177
-170
-165
-150
-143
-136
-132
-135
-133
-134
-132
-138
-120
-124
-132
-130
-126
-109
-113
-115
-119
-130
-129
-130
-128
-117
-110
-107
-113
-120
-112
-106
-119
-118
-103
-108
-103
-98
-99
-100
-104
-102
-101
-98
-95
-101
-95
-92
-91
-90
-87
-85
-80
-79
-73
-69
-66
-60
-65
-54
-51
-60
-64
-53
-31
-44
-37
-33
-17
-27
-28
-22
-21
-20
-21
-20
-17
-22
-24
-21
-21
-35
-38
-33
-39
-35
-42
-46
-49
-54
-58
-75
-74
-75
-84
-90
-96
-99
-90
-102
-108
-111
-109
-111
-112
-114
-122
-118
-121
-128
-141
-138
-129
-135
-132
-140
-132
-133
-132
-121
-134
-130
-140
-134
-125
-131
-129
-128
-129
-133
-131
-130
-129
-129
-135
-130
-136
-133
-136
-135
-131
-132
-136
-125
-126
-132
-140
-134
-128
-119
-139
-142
-136
-135
-130
-135
-127
-130
-132
-129
-134
-135
-125
-125
-124
-118
-126
-126
-101
-109
-116
-112
-128
-110
-108
-123
-122
-126
-128
-115
-127
-125
-119
-116
-117
-111
-116
-114
-114
-116
-109
-116
-113
-112
-104
-108
-110
-113
-117
-118
-117
-106
-102
-101
-100
-102
-111
-111
-118
-123
-124
-135
-136
-129
-94
-108
-125
-134
-132
-133
-129
-119
-125
-124
-121
-132
-130
-124
-133
-136
-127
-124
-123
-122
-122
-123
-121
-129
-129
-125
-124
-129
-137
-140
-138
-132
-125
-121
-126
-136
-137
-144
-126
-107
-113
-110
-101
-98
-90
-64
-48
-25
-4
18
30
40
41
36
-13
-96
-198
-292
-330
-339
-344
-350
-345
-345
-341
-331
-304
-300
-278
-258
-250
-234
-223
-207
-192
-168
-157
-148
-140
-135
-133
-123
-113
-101
-120
-125
-112
-103
-108
-98
-101
-108
-112
-106
-101
-103
-100
-101
-107
-98
-84
-89
-96
-94
-100
-97
-84
-93
-97
-89
-86
-88
-91
-87
-82
-75
-81
-83
-81
-75
-71
-70
-79
-62
-72
-82
-76
-66
-57
-48
-49
-54
-35
-33
-40
-42
-38
-45
-40
-31
-23
3
-11
-17
-6
16
-4
-4
6
-3
-13
-14
-5
-2
-10
-5
-5
3
8
1
-8
-10
-23
-24
-21
-24
-23
-34
-45
-40
-50
-68
-72
-77
-78
-81
-87
-83
-87
-93
-94
-90
-98
-111
-102
-116
-93
-95
-103
-105
-111
-116
-121
-109
-108
-107
-105
-107
-111
-119
-112
-113
-111
-109
-105
-116
-107
-102
-111
-118
-115
-120
-119
-108
-107
-114
-114
-111
-116
-120
-119
-116
-116
-105
-112
-107
-112
-109
-102
-100
-111
-116
-115
-115
-125
-109
-109
-108
-97
-106
-107
-100
-97
-102
-101
-96
-93
-98
-88
-87
-92
-94
-97
-103
-98
-102
-98
-103
-99
-102
-107
-97
-99
-96
-94
-102
-90
-86
-78
-80
-85
-84
-78
-81
-97
-94
-80
-94
-88
-84
-85
-98
-98
-94
-90
-101
-109
-100
-100
-104
-104
-106
-105
-109
-105
-109
-109
-98
-99
-106
-105
-108
-104
-105
-103
-120
-105
-99
-83
-102
-109
-103
-104
-111
-103
-109
-117
-107
-97
-98
-103
-109
-110
-108
-114
-100
-101
-98
-101
-101
-88
-82
-82
-75
-66
-41
-27
5
23
26
30
41
41
41
23
-70
-180
-269
-302
-313
-330
-329
-325
-326
-319
-319
-307
-295
-264
-253
-233
-222
-213
-194
-181
-160
-135
-127
-122
-116
-114
-105
-98
-99
-97
-86
-84
-88
-84
-76
-82
-86
-77
-88
-76
-72
-77
-80
-73
-77
-70
-76
-83
-69
-66
-68
-66
-57
-61
-68
-64
-56
-57
-59
-63
-58
-52
-58
-59
-51
-55
-56
-50
-42
-48
-43
-36
-37
-38
-32
-32
-30
-26
-23
-8
-1
2
-7
6
15
0
2
2
21
19
15
16
23
25
28
25
31
28
37
34
22
26
32
31
20
4
14
25
14
8
1
-15
-17
-22
-23
-25
-36
-43
-45
-47
-51
-58
-70
-63
-54
-61
-74
-71
-75
-78
-79
-76
-78
-89
-82
-96
-78
-84
-96
-89
-90
-89
-87
-89
-94
-90
-92
-88
-85
-77
-82
-75
-81
-87
-101
-98
-88
-92
-92
-87
-88
-87
-82
-86
-93
-96
-93
-80
-94
-91
-92
-90
-94
-95
-82
-88
-87
-84
-82
-88
-92
-86
-77
-72
-81
-88
-83
-77
-80
-80
-83
-78
-75
-86
-90
-86
-79
-77
-68
-64
-59
-78
-72
-68
-69
-70
-78
-78
-78
-67
-69
-76
-81
-90
-91
-67
-77
-61
-69
-71
-70
-69
-58
-72
-71
-72
-74
-78
-82
-78
-82
-83
-85
-84
-91
-80
-89
-87
-80
-86
-82
-88
-92
-88
-97
-96
-85
-94
-94
-86
-93
-88
-91
-96
-96
-79
-90
-86
-87
-86
-90
-93
-93
-101
-92
-90
-91
-95
-92
-92
-76
-77
-85
-73
-63
-57
-54
-44
-32
-11
17
27
43
54
55
58
62
27
-59
-174
-238
-280
-303
-309
-311
-312
-310
-302
-289
-281
-270
-244
-223
-199
-207
-197
-168
-133
-147
-143
-127
-105
-114
-97
-77
-94
-65
-60
-72
-75
-81
-71
-75
-72
-71
-66
-71
-72
-69
-69
-69
-72
-64
-60
-63
-73
-58
-53
-54
-60
-61
-49
-63
-56
-53
-48
-51
-47
-36
-42
-45
-38
-41
-51
-56
-31
-45
-36
-33
-37
-34
-29
-27
-35
-25
-19
-18
-13
-9
0
-3
3
12
14
20
11
14
12
30
22
28
19
21
37
35
32
35
36
38
33
23
16
21
18
11
10
9
4
1
-4
-16
-24
-16
-36
-38
-47
-51
-55
-48
-49
-50
-55
-65
-68
-65
-71
-74
-68
-60
-75
-72
-67
-72
-77
-79
-75
-83
-76
-74
-84
-92
-80
-89
-80
-92
-91
-90
-79
-81
-80
-82
-83
-84
-74
-77
-76
-82
-76
-73
-89
-90
-100
-95
-88
-76
-74
-71
-85
-84
-78
-82
-82
-81
-82
-82
-82
-77
-81
-77
-81
-80
-89
-76
-68
-74
-86
-71
-65
-80
-75
-73
-71
-74
-82
-81
-75
-48
-52
-73
-72
-70
-74
-80
-75
-68
-60
-68
-58
-62
-53
-59
-75
-70
-65
-70
-78
-69
-67
-62
-61
-58
-55
-61
-57
-56
-65
-58
-81
-81
-74
-79
-93
-81
-82
-82
-78
-80
-82
-84
-78
-91
-84
-67
-78
-83
-86
-87
-80
-88
-83
-87
-80
-85
-94
-84
-76
-79
-83
-77
-73
-76
-87
-89
-84
-81
-78
-86
-82
-80
-77
-71
-70
-59
-69
-60
-59
-47
-25
14
23
39
55
68
70
69
69
18
-60
-171
-249
-274
-273
-268
-287
-298
-302
-291
-275
-254
-245
-234
-199
-197
-178
-163
-132
-121
-112
-110
-103
-89
-84
-80
-80
-74
-62
-65
-68
-63
-72
-65
-62
-66
-69
-77
-65
-47
-54
-56
-49
-55
-54
-49
-50
-50
-49
-52
-56
-55
-46
-43
-40
-34
-48
-54
-46
-35
-39
-29
-34
-32
-34
-30
-31
-28
-26
-25
-22
-27
-33
-24
-9
-23
-14
2
6
6
11
13
14
19
27
29
27
24
22
32
18
26
50
40
46
47
42
40
46
33
40
46
46
33
37
34
30
27
14
8
5
2
-3
-13
-20
-19
-14
-14
-26
-33
-44
-42
-52
-53
-54
-55
-49
-54
-48
-58
-55
-58
-64
-57
-57
-70
-66
-78
-67
-62
-67
-67
-71
-75
-67
-66
-69
-64
-71
-65
-69
-68
-74
-76
-71
-76
-83
-79
-86
-78
-66
-66
-63
-66
-72
-69
-70
-76
-69
-67
-63
-63
-67
-65
-73
-66
-67
-72
-64
-62
-62
-71
-66
-66
-65
-71
-70
-63
-66
-59
-50
-56
-73
-62
-63
-65
-62
-61
-60
-65
-65
-61
-63
-62
-53
-53
-58
-56
-54
-56
-54
-53
-44
-43
-43
-45
-49
-45
-55
-55
-55
-55
-55
-53
-50
-54
-67
-61
-54
-43
-54
-71
-63
-60
-70
-74
-70
-65
-69
-69
-69
-60
-62
-70
-67
-70
-69
-61
-70
-75
-64
-63
-76
-82
-76
-71
-65
-63
-80
-67
-72
-66
-60
-66
-74
-68
-74
-60
-65
-72
-63
-63
-71
-66
-70
-58
-58
-46
-43
-24
-16
9
34
47
68
79
88
91
104
73
-13
-109
-219
-254
-280
-288
-286
-287
-282
-275
-272
-251
-239
-228
-203
-188
-176
-155
-137
-120
-101
-93
-76
-80
-87
-82
-77
-70
-54
-46
-49
-55
-49
-52
-44
-42
-47
-52
-48
-48
-44
-42
-36
-42
-59
-56
-51
-43
-29
-27
-28
-28
-29
-30
-24
-22
-28
-29
-31
-25
-34
-23
-24
-35
-21
-15
-7
-13
-10
-9
-7
-5
-2
0
-6
3
10
12
19
14
4
21
37
29
30
28
33
48
56
54
52
54
59
56
61
48
41
55
64
51
54
61
61
61
60
51
47
45
45
37
28
26
15
3
-5
4
-19
-18
1
-18
-24
-15
-34
-36
-31
-35
-39
-46
-46
-50
-43
-48
-53
-54
-55
-63
-57
-54
-48
-49
-53
-50
-54
-55
-51
-55
-60
-69
-48
-42
-57
-65
-70
-62
-59
-60
-57
-62
-58
-54
-62
-62
-61
-60
-59
-55
-55
-45
-50
-57
-51
-55
-48
-59
-55
-54
-63
-62
-58
-63
-47
-46
-59
-58
-53
-43
-49
-56
-54
-57
-51
-53
-57
-47
-45
-45
-48
-45
-39
-42
-44
-43
-52
-59
-45
-37
-37
-33
-40
-45
-31
-26
-39
-37
-36
-43
-45
-32
-26
-32
-30
-30
-43
-33
-36
-34
-44
-45
-48
-45
-44
-51
-55
-54
-54
-59
-55
-51
-55
-61
-51
-43
-43
-51
-54
-54
-46
-44
-51
-55
-53
-55
-56
-54
-44
-55
-58
-59
-55
-51
-54
-57
-58
-48
-55
-61
-52
-48
-53
-54
-58
-64
-59
-57
-57
-55
-44
-37
-41
-29
-25
-14
2
28
49
77
87
102
113
118
108
56
-23
-136
-215
-253
-249
-265
-274
-269
-271
-275
-258
-238
-232
-205
-194
-173
-163
-142
-117
-113
-98
-81
-74
-68
-61
-56
-49
-47
-46
-42
-40
-38
-35
-34
-33
-28
-28
-38
-21
-29
-25
-15
-21
-33
-32
-23
-26
-19
-27
-23
-24
-26
-17
-19
-19
-21
-14
-3
-22
-18
-10
-16
-12
-11
-1
-3
0
3
1
6
12
10
10
13
9
16
12
16
34
34
38
35
38
45
57
54
52
59
60
53
71
67
71
69
64
60
65
67
79
74
77
66
61
68
67
66
57
50
47
36
44
28
30
35
23
5
6
5
-7
-10
-7
-6
-17
-27
-30
-25
-36
-36
-38
-41
-36
-32
-38
-45
-44
-40
-34
-27
-53
-45
-33
-36
-46
-52
-48
-46
-47
-44
-50
-46
-42
-39
-47
-39
-50
-53
-61
-38
-39
-54
-54
-53
-54
-49
-52
-47
-42
-41
-48
-35
-40
-50
-52
-50
-45
-46
-44
-39
-45
-49
-53
-54
-44
-42
-37
-39
-44
-37
-36
-55
-43
-28
-41
-35
-43
-55
-35
-42
-41
-41
-43
-36
-34
-34
-32
-31
-24
-30
-39
-34
-37
-37
-44
-39
-32
-30
-31
-32
-20
-23
-27
-34
-27
-30
-24
-22
-21
-20
-22
-27
-31
-28
-30
-37
-35
-35
-45
-41
-43
-32
-39
-46
-51
-48
-39
-47
-49
-38
-47
-47
-58
-50
-41
-40
-35
-43
-39
-46
-41
-50
-42
-51
-47
-49
-35
-42
-52
-55
-49
-43
-41
-41
-45
-53
-52
-49
-47
-42
-41
-52
-56
-54
-37
-39
-21
-14
-18
-10
12
24
38
53
80
94
109
109
126
107
32
-53
-166
-230
-242
-256
-264
-263
-266
-274
-255
-239
-223
-221
-194
-173
-164
-154
-127
-107
-94
-80
-72
-65
-63
-47
-44
-35
-27
-40
-43
-30
-31
-36
-50
-34
-17
-28
-17
-23
-23
-26
-23
-16
-18
-24
-19
-16
-16
-17
-19
-29
-21
-9
-16
-17
-5
-9
-11
-12
-4
-7
1
7
4
3
5
3
9
9
3
12
18
27
10
17
20
23
23
20
30
38
51
56
55
62
63
53
53
68
71
72
78
73
75
72
71
74
75
79
77
69
65
81
76
80
70
72
65
54
47
43
38
31
28
24
16
5
3
1
-9
-13
-5
-6
-26
-18
-17
-18
-27
-30
-30
-24
-21
-29
-18
-31
-37
-24
-21
-30
-54
-49
-39
-51
-49
-44
-38
-40
-40
-43
-35
-40
-44
-38
-41
-34
-36
-46
-40
-42
-42
-46
-47
-41
-36
-27
-36
-52
-49
-43
-40
-37
-35
-37
-37
-29
-30
-40
-46
-35
-39
-52
-48
-43
-43
-39
-35
-34
-39
-43
-30
-39
-27
-35
-42
-37
-42
-40
-33
-35
-32
-30
-32
-28
-30
-34
-36
-35
-26
-28
-22
-9
-26
-25
-24
-32
-34
-26
-26
-30
-26
-23
-23
-22
-20
-24
-23
-21
-13
-19
-20
-26
-27
-19
-24
-26
-28
-24
-31
-34
-42
-44
-30
-33
-29
-26
-25
-34
-47
-46
-40
-41
-41
-40
-39
-37
-44
-50
-49
-35
-43
-40
-38
-42
-38
-38
-44
-44
-40
-44
-41
-40
-46
-43
-44
-43
-45
-39
-40
-48
-47
-30
-31
-36
-34
-35
-33
-28
-20
-10
6
34
62
69
80
107
112
109
113
99
49
-60
-162
-219
-248
-263
-268
-270
-261
-255
-251
-245
-232
-215
-200
-186
-161
-160
-149
-121
-107
-94
-72
-69
-54
-41
-33
-35
-36
-33
-32
-35
-30
-32
-30
-22
-22
-22
-18
-24
-25
-24
-6
1
-12
-10
-9
-12
-8
-8
-11
-6
-10
-6
0
-11
-13
-14
-6
2
8
6
-4
-5
6
11
22
11
13
29
27
20
9
17
26
31
24
31
35
31
28
43
63
59
63
65
64
66
61
70
74
81
87
81
79
73
84
84
79
88
95
87
83
82
82
84
70
65
70
58
51
53
50
35
34
49
23
26
26
16
3
2
3
-1
-14
-14
-11
-10
-19
-29
-27
-28
-32
-31
-27
-26
-22
-26
-21
-21
-19
-30
-36
-33
-30
-28
-27
-31
-36
-39
-31
-35
-38
-33
-40
-40
-30
-27
-30
-41
-42
-46
-47
-31
-37
-38
-41
-32
-26
-22
-32
-27
-29
-26
-30
-30
-32
-30
-29
-41
-41
-26
-28
-34
-36
-26
-32
-30
-25
-32
-30
-24
-19
-27
-32
-30
-32
-28
-29
-26
-26
-30
-26
-18
-14
-33
-33
-31
-13
-15
-15
-26
-24
-40
-14
-9
-22
-20
-22
-26
-20
-14
-18
-10
-7
-10
-28
-24
-28
-20
-19
-8
-7
-9
-16
-15
-18
-27
-23
-10
-9
-18
-38
-34
-35
-30
-36
-33
-30
-19
-31
-24
-45
-36
-28
-36
-30
-42
-21
-28
-31
-45
-34
-34
-30
-34
-30
-37
-43
-39
-33
-32
-36
-40
-38
-38
-46
-49
-52
-36
-23
-29
-38
-44
-31
-25
-20
-23
-14
-14
-3
12
27
49
62
72
91
102
113
124
113
56
-20
-130
-204
-232
-246
-256
-251
-250
-256
-240
-212
-207
-202
-182
-165
-148
-150
-139
-102
-84
-63
-53
-60
-48
-45
-29
-30
-18
-19
-19
-22
-28
-25
-17
-15
-27
-17
-18
-13
-12
3
-9
-10
-15
-14
-8
-9
-15
-12
-10
-3
10
-4
-6
-4
-1
17
11
7
6
11
10
6
4
4
4
12
24
11
13
22
30
34
24
40
38
39
39
39
45
59
58
60
53
49
60
63
68
71
68
81
78
75
72
76
88
79
83
100
87
91
75
74
77
71
75
70
67
74
64
52
43
35
37
38
30
25
27
20
7
19
9
1
-18
-4
-7
-11
-11
-9
-13
-18
-10
-12
-18
-31
-31
-25
-18
-22
-23
-14
-12
-28
-32
-31
-27
-29
-30
-24
-34
-29
-32
-29
-17
-22
-26
-36
-23
-28
-24
-25
-21
-23
-26
-20
-27
-23
-25
-22
-27
-29
-22
-26
-24
-24
-24
-33
-25
-27
-19
-19
-27
-33
-27
-22
-23
-26
-24
-32
-21
-21
-25
-25
-25
-18
-16
-22
-21
-21
-25
-26
-24
-11
-12
-15
-19
-10
-11
-1
-8
-13
-19
-10
-27
-29
-18
-17
-13
-8
-5
-15
-15
-15
-16
-9
-5
-7
-11
-4
-6
-9
-8
-12
-21
-12
-13
-3
4
7
-9
-29
-17
-22
-26
-26
-20
-24
-29
-32
-20
-19
-21
-23
-15
-21
-27
-25
-22
-30
-29
-29
-24
-24
-26
-28
-23
-21
-29
-30
-36
-30
-25
-21
-19
-26
-18
-19
-18
-33
-40
-28
-27
-33
-33
-28
-27
-9
-24
-16
-9
-6
-7
22
40
64
74
95
106
129
129
127
128
98
13
-83
-173
-211
-229
-239
-245
-245
-240
-227
-212
-215
-195
-177
-153
-143
-132
-118
-100
-85
-61
-61
-71
-74
-45
-42
-24
-7
-4
-6
-6
-10
-9
-7
-7
-5
-3
-15
-11
-16
-2
-6
-5
0
7
13
13
5
6
12
8
1
-8
1
8
16
-1
4
14
-3
25
13
14
13
14
16
21
27
17
23
31
26
27
36
35
35
37
58
49
39
45
45
56
71
70
77
75
85
78
90
84
82
95
89
89
92
86
85
93
99
87
87
90
90
88
74
69
80
66
66
58
51
53
54
37
25
24
23
25
27
25
15
9
5
1
0
-2
1
-11
-16
-22
-17
-21
-2
-6
-13
-19
-19
-15
-16
-27
-21
-23
-26
-25
-29
-22
-25
-41
-27
-21
-18
-23
-27
-21
-26
-32
-23
-17
-28
-30
-31
-39
-33
-22
-21
-18
-19
-20
-15
-13
-22
-20
-22
-18
-23
-27
-16
-20
-32
-21
-23
-21
-25
-30
-26
-29
-28
-23
-31
-29
-16
-7
-9
-29
-15
-11
-20
-21
-19
-14
-13
-11
-21
-20
-19
-20
-18
-22
-6
-5
-12
-13
-18
-18
-16
-11
-7
-12
-15
-14
-14
-18
-14
-18
-21
-15
-18
-9
-10
7
9
-3
7
-2
-7
-13
-15
-10
-13
-14
6
9
-2
-6
0
-13
-18
-19
-19
-23
-20
-24
-32
-20
-26
-30
-23
-19
-16
-14
-16
-26
-29
-23
-34
-33
-26
-22
-30
-21
-24
-16
-20
-13
-10
-18
-24
-22
-25
-32
-36
-26
-33
-20
-21
-21
-20
-23
-19
-22
-17
-14
-6
-10
-8
13
22
43
69
85
103
117
121
137
139
121
79
-8
-134
-209
-238
-250
-241
-238
-246
-241
-221
-211
-196
-175
-160
-164
-137
-116
-100
-83
-88
-67
-47
-43
-40
-32
-24
-13
-11
-12
-11
-6
-5
-9
-5
-7
-1
1
-2
-10
-9
-20
-14
-5
-1
2
13
3
-6
13
11
5
5
9
22
24
15
22
13
18
24
12
16
15
16
19
28
28
27
23
29
33
33
35
38
46
47
50
48
61
59
59
64
68
74
69
80
88
85
84
86
90
85
91
97
97
94
101
105
102
97
102
99
99
97
83
79
94
90
82
68
65
58
55
60
48
33
30
25
22
23
21
17
12
17
13
7
10
2
-3
-3
-12
-8
-17
-12
-9
-16
-12
-16
-17
-10
-5
-8
-23
-26
-20
-16
-27
-18
-17
-23
-29
-15
-23
-16
-11
-17
-22
-22
-21
-18
-17
-22
-31
-18
-6
-13
-20
-19
-15
-21
-21
-15
-17
-19
-19
-12
-12
-19
-20
-21
-9
-6
-9
-15
-10
-12
-12
-12
-19
-22
-21
-31
-23
-17
-19
-16
-13
-10
-15
-18
-18
-19
-19
-21
-26
-16
-15
-8
-6
-2
9
2
-3
-2
-13
-14
-12
-8
-5
-6
-8
0
-3
3
-5
-10
1
-1
-5
-10
-8
-5
-2
-9
-13
-2
3
-3
-5
-7
-4
-5
-5
-10
-12
-12
-13
-10
-4
-10
-11
-8
-1
-5
-14
-30
-23
-34
-29
-17
-21
-23
-21
-24
-20
-23
-14
-5
-12
-21
-13
-19
-25
-21
-14
-18
-25
-28
-12
-5
-18
-25
-17
-23
-24
-18
-11
-16
-14
-25
-18
-16
-33
-29
-9
7
22
41
49
61
82
92
106
138
140
129
128
92
2
-113
-190
-223
-240
-252
-254
-249
-243
-226
-219
-208
-197
-180
-162
-136
-121
-130
-106
-75
-63
-49
-39
-28
-26
-29
-28
-21
-19
-8
-2
-4
-7
-1
-2
14
3
-5
-8
3
3
-5
12
9
4
2
3
1
8
13
10
15
16
22
18
23
23
24
14
20
20
22
27
29
24
23
28
30
33
28
34
46
41
44
41
49
48
59
53
60
78
82
75
76
78
80
83
75
92
95
101
98
100
95
101
108
109
104
111
109
108
106
100
108
103
95
91
96
81
64
60
74
78
78
63
41
44
47
46
39
27
28
24
19
12
7
5
-1
-8
-13
-9
2
10
5
-4
-6
-6
3
-7
-10
-7
-17
-22
0
-6
-16
3
-18
-10
-8
-1
-4
-8
-15
-8
-12
-16
-16
-21
-13
-16
-17
-13
1
-12
-15
-16
-16
-11
-18
-9
-9
-22
-22
-24
-24
-9
-7
-11
0
1
-6
-14
-9
-7
-6
-8
-10
-9
-13
-7
-8
-11
-7
-17
-19
-21
-10
-11
-4
-5
-7
-2
-3
-11
-9
-13
-6
3
-8
0
1
-11
-6
-1
2
2
-3
6
-3
7
3
0
1
-10
-8
6
0
-3
-2
11
13
8
0
2
1
1
-5
-5
10
0
-4
4
5
-3
-10
-20
-14
-8
-9
-11
-20
-7
-2
-9
-14
-15
-13
-13
-6
-11
-14
-5
-7
-18
-14
-30
-18
-19
-27
-9
-13
-16
-8
-12
-12
-16
-24
-11
-13
-11
-20
-24
-18
-27
-36
-31
-10
-7
0
-13
-1
-4
4
5
20
25
43
60
94
101
121
138
133
150
137
80
-12
-125
-192
-232
-234
-222
-220
-233
-232
-226
-220
-201
-188
-172
-153
-132
-123
-109
-75
-63
-47
-38
-46
-33
-26
-15
-18
-10
-6
0
-9
2
-12
-12
3
0
-4
-6
-5
1
8
22
16
11
1
13
18
13
5
5
14
17
17
13
7
6
11
19
26
17
16
25
40
34
34
36
34
32
31
34
45
36
34
42
46
38
49
56
52
62
60
61
67
68
78
77
72
81
88
89
89
100
101
105
101
92
106
103
101
101
109
109
107
107
106
97
93
67
65
77
67
66
56
49
38
44
43
35
24
15
17
20
16
16
19
16
1
0
3
2
-4
0
-4
-9
1
1
-8
-8
-5
-4
-18
-18
-14
-5
-12
-2
-21
-8
-9
-11
-15
-10
-9
-10
-4
-4
-14
-24
-18
-19
-31
-30
-10
-9
-12
-2
-3
-12
-9
-13
-10
-4
-11
-7
-13
-11
-6
-11
-16
-18
-17
-14
-13
-15
-13
-4
-14
-14
-14
-7
-6
-16
-3
-1
-8
-5
11
-5
-11
-10
-7
-4
1
-7
-21
-15
-15
-15
4
4
3
-9
-8
0
-3
-1
3
0
2
-9
-13
-8
-3
0
-6
-7
6
12
5
10
15
4
3
-2
20
4
7
8
5
8
-5
-10
1
-3
0
-1
-3
-7
-7
-10
-19
-11
-14
-3
3
-7
-5
-11
-3
-9
-13
-8
-7
-12
-5
-6
-13
-13
-22
-25
-15
-10
-18
-20
-15
-23
-17
-19
-17
-20
-11
-11
-21
-12
-18
-13
-13
-15
-18
-16
-16
-8
-19
-4
12
3
3
17
43
70
93
103
114
127
132
137
145
125
61
-30
-142
-195
-217
-227
-232
-233
-238
-233
-224
-214
-189
-184
-155
-132
-122
-109
-96
-82
-63
-53
-50
-34
-27
-23
-16
-10
-4
3
-3
-1
-6
2
-3
-5
-12
12
7
-5
4
0
-13
11
0
0
3
15
11
20
21
12
5
2
21
25
26
14
9
24
14
23
21
34
33
41
41
33
27
24
23
27
37
57
64
54
54
46
57
61
59
53
61
74
77
78
80
79
84
90
91
92
101
101
101
99
105
115
106
102
107
92
95
99
91
91
91
89
85
80
76
71
70
50
51
39
56
62
53
40
41
30
17
10
5
9
14
4
1
0
-16
-12
-3
-1
-1
-5
-17
-17
-11
-13
-12
-19
-14
-17
1
-7
-21
-15
-10
-18
-22
-19
-22
-16
-18
-18
-7
2
-9
-18
0
-12
-17
-12
-14
-15
-16
-15
-15
-12
-13
-13
-14
-15
-7
-13
-16
-15
9
-8
-31
-22
-19
-19
-23
-23
-19
-16
-10
-15
-14
-13
-4
0
-5
-16
-17
-13
-3
-2
-9
-8
-8
-7
-4
-7
-9
-8
-1
0
-7
-4
2
-5
-5
-14
-7
-3
-9
1
-6
-10
-6
2
-9
-8
-1
7
6
8
5
13
6
4
7
2
5
3
-1
0
7
6
-2
-6
5
13
-3
-3
-4
1
-16
-10
-18
-10
-19
-16
-6
-7
-1
-1
-12
-16
-15
-19
-12
-8
1
-11
-13
-19
-13
-7
-14
-18
-10
-13
-14
-18
-30
-16
-18
-23
-21
-17
-14
-9
-12
-15
-4
-4
-6
-14
-13
-15
-17
-14
-10
-5
16
31
41
60
81
92
107
152
145
136
160
154
67
-28
-147
-199
-223
-228
-230
-232
-234
-232
-213
-208
-206
-183
-159
-143
-127
-119
-101
-78
-59
-41
-38
-32
-35
-29
-18
-12
-9
-7
-9
-9
4
3
4
6
6
7
5
6
2
6
22
11
9
6
10
20
19
16
10
14
21
19
21
21
22
25
42
35
39
25
37
35
25
27
29
38
38
34
44
48
47
51
48
47
54
59
61
63
83
76
74
76
78
84
94
93
89
93
91
103
101
101
100
104
112
112
117
114
123
113
107
113
108
100
95
90
89
84
89
87
69
63
59
63
64
57
50
45
36
37
31
16
10
12
10
7
18
23
16
5
5
-3
0
-1
-2
-6
-6
-2
-3
-12
-17
-5
-9
-14
-13
-9
3
-14
-7
-12
-10
-4
-12
-18
-13
-7
-9
-5
-2
2
-3
-5
3
-3
-3
-7
-17
-15
-8
3
-15
-9
-9
-15
-17
-14
-8
-8
1
7
-2
-8
-14
-14
-12
-5
-1
-4
-21
-17
-5
-1
-2
-10
-3
5
6
0
-7
-4
-9
5
0
-8
-7
1
4
11
6
0
5
10
3
-4
1
4
-4
-3
9
1
-2
-2
-6
-5
6
6
8
21
13
9
10
14
11
18
8
3
4
4
6
11
16
7
3
3
5
-3
2
-8
-10
-2
5
4
-11
-20
-17
-15
-17
-12
-9
-3
-5
-8
-8
-12
-10
-8
-6
-1
-9
-10
-21
-16
-7
-6
-15
0
-12
-18
-16
-6
-8
-6
-2
0
6
-6
-22
-13
-10
0
-9
-5
3
10
25
30
50
68
85
110
124
139
134
128
136
106
30
-74
-143
-188
-215
-229
-237
-237
-231
-222
-207
-200
-188
-166
-162
-145
-124
-109
-98
-79
-61
-47
-35
-28
-30
-21
-2
-11
-11
-5
5
2
7
-2
-4
3
9
9
11
19
17
17
18
14
17
20
24
19
25
27
12
12
11
17
23
26
27
21
25
26
32
34
39
43
37
38
26
38
44
44
48
50
50
42
58
61
58
49
54
63
70
80
81
93
83
89
91
93
93
97
106
111
111
109
109
115
116
111
111
110
107
113
107
111
118
101
99
100
105
84
82
82
76
59
56
52
55
53
49
42
30
33
26
24
21
17
9
11
10
0
-1
7
7
15
15
4
-7
-7
-5
-5
-3
-7
-3
-1
-7
1
3
0
9
-6
-4
-6
-12
-11
-9
-9
-11
-5
-8
-13
-13
-10
-18
-18
-10
-11
-14
6
5
6
-1
-1
3
9
0
1
-3
-14
-15
-10
-5
-8
-7
-12
6
-4
-6
-7
-3
-10
-3
1
0
-8
-3
-8
-9
3
2
-10
-8
-1
1
-1
-7
5
13
6
3
3
5
9
12
6
1
5
9
11
0
-7
7
6
-3
-1
6
12
10
13
21
16
12
14
16
12
7
-5
-1
12
25
15
0
8
13
2
4
10
12
-1
1
7
10
-6
-10
-14
-9
-5
-5
-5
-5
-5
-4
-5
-4
-1
-12
-5
-6
2
-1
-6
-3
-2
-6
-6
-14
-12
-10
-4
-7
-3
-5
-11
-14
-14
-12
-8
-4
0
7
-12
-8
-2
-10
-10
3
25
53
52
57
90
102
115
125
145
152
146
137
93
8
-106
-176
-208
-219
-231
-229
-219
-233
-213
-198
-183
-171
-145
-126
-123
-107
-84
-68
-51
-37
-37
-25
-32
-13
-1
-8
-2
-10
-7
-6
12
9
7
6
9
13
16
30
21
10
13
18
11
10
11
9
16
21
28
31
25
29
29
18
24
11
22
32
32
28
38
40
45
35
33
50
44
42
40
43
51
57
53
55
59
49
52
75
76
79
70
68
75
85
77
90
92
91
98
94
104
91
109
99
107
110
103
109
113
103
106
118
110
101
101
106
103
79
80
74
63
58
52
39
50
55
52
53
42
30
31
26
19
22
17
10
9
6
5
-6
-4
-4
0
-9
2
12
2
5
-1
-11
-11
-12
-10
-5
6
-5
-16
-7
-3
-6
-5
-13
-6
1
-5
-8
-9
-8
-5
-1
-9
-15
-15
-17
-14
-12
-7
2
-2
-2
-7
-2
-12
-19
-3
0
-12
-11
1
-2
-7
-10
-2
-6
-6
-9
-6
-3
2
9
-8
-18
-16
-9
-4
-1
4
2
-3
-2
0
-3
1
0
-5
1
-7
-11
1
21
10
-1
-8
-2
12
7
0
5
10
1
-8
0
0
3
3
15
2
10
21
29
15
4
7
12
11
13
6
7
9
4
-4
1
7
-4
19
21
9
11
6
-6
-1
2
-11
-9
-4
0
-10
-14
-5
-22
-11
-10
-13
-4
4
-2
-4
-5
-12
-7
-4
-16
-12
-1
-6
-21
-27
-18
-14
-12
-12
-8
-7
-4
-12
-16
-10
11
-6
-4
-2
-2
-2
3
-6
18
18
27
48
61
90
108
136
147
149
147
142
124
55
-41
-153
-197
-209
-218
-224
-227
-225
-224
-214
-202
-184
-167
-152
-134
-123
-98
-86
-71
-51
-35
-29
-27
-29
-18
-6
-1
0
0
0
9
10
10
14
10
15
17
6
-3
2
21
20
-2
2
21
24
10
12
27
19
4
28
32
14
19
16
19
28
30
32
30
26
30
33
37
44
41
36
42
51
47
48
54
57
56
65
63
69
64
65
60
83
76
75
83
93
85
86
96
105
96
103
99
98
118
122
109
108
117
120
110
112
111
104
104
91
102
102
87
88
73
76
69
65
53
56
52
49
28
25
16
25
23
4
16
20
13
8
8
16
21
-9
-16
-9
2
2
-6
-1
-1
0
4
1
0
-6
-1
-9
-19
-26
-5
9
-11
-5
-11
-16
-3
-11
-7
-9
-1
-9
-6
-9
-5
-9
-18
-17
-4
-4
-9
-7
-4
-8
-10
-4
-9
-3
7
-11
-14
-11
-4
4
-6
1
-7
-14
-12
-6
1
-6
1
-5
-6
-11
-17
-16
-12
-4
-4
-3
9
-4
-8
-4
-4
5
-2
-7
-6
6
6
-2
6
17
6
-1
-3
21
9
5
3
-1
2
7
14
-3
-8
2
-5
-4
-5
11
20
18
14
16
19
21
18
7
11
13
9
16
8
13
7
4
4
1
-6
-2
6
0
-8
-11
-13
-9
0
8
-1
1
-3
-12
-9
10
-7
-11
-9
-13
-10
-8
-8
-6
-9
-3
-8
-10
-9
-13
-6
3
-3
0
-1
-3
-7
-9
-3
0
-3
-9
-16
-14
-13
-13
-4
0
0
9
11
29
37
47
87
100
115
131
136
145
156
153
124
21
-92
-190
-194
-217
-229
-236
-221
-229
-227
-215
-192
-170
-165
-135
-120
-121
-110
-84
-66
-50
-44
-43
-34
-24
-6
5
3
-3
5
13
14
3
3
6
8
11
22
7
5
9
15
8
10
21
30
29
20
30
35
21
32
33
30
25
36
22
16
30
35
34
38
34
37
41
41
41
43
46
39
51
55
53
52
53
66
68
79
75
85
90
69
73
82
83
86
101
105
92
102
112
115
123
115
119
121
117
112
109
112
119
110
116
120
111
110
108
102
109
101
95
86
78
72
72
65
53
56
52
48
57
44
41
32
38
27
13
6
11
8
4
6
11
9
16
12
-1
-6
5
1
-2
-4
-12
0
-2
-2
-1
-3
-3
-3
-7
4
8
-4
-3
-4
-8
-6
-2
-9
4
4
-1
-6
-5
0
-1
-6
0
6
-1
9
1
-7
11
7
9
-5
-13
-6
-11
-6
-15
-3
4
3
-4
4
-2
-5
6
0
-3
-7
-5
4
1
-7
3
1
-1
-9
-2
3
5
6
14
7
0
10
18
17
15
10
11
5
13
14
8
12
8
9
16
7
1
6
13
10
7
12
26
9
-2
3
8
12
16
13
21
23
19
14
19
14
4
3
3
0
-3
-1
-4
3
0
-3
2
4
-7
8
-3
5
-9
-2
8
0
-2
-5
-5
-2
-2
-4
-11
-9
-8
0
-3
-11
-8
-14
-13
-15
-25
-16
-2
14
-1
7
1
3
7
0
-4
-8
7
8
17
24
31
52
74
88
97
112
135
137
139
141
130
61
-48
-148
-192
-209
-229
-237
-229
-220
-220
-207
-196
-196
-179
-156
-130
-119
-111
-93
-68
-48
-43
-34
-27
-25
-22
-6
6
10
2
0
10
-6
-1
8
14
18
11
6
13
13
10
23
18
16
24
24
25
31
26
24
29
27
27
33
28
22
21
23
36
37
40
30
25
23
33
40
47
37
44
44
43
58
56
60
54
59
59
77
76
71
87
86
82
87
92
99
91
89
100
102
106
109
106
110
111
106
112
114
113
120
113
105
110
114
113
106
93
89
82
82
75
75
79
73
67
64
47
30
45
46
19
24
25
21
23
19
9
12
9
8
10
6
-9
-4
-9
4
-10
4
17
3
-1
7
2
8
2
0
5
-6
0
-8
-9
-8
-4
-7
-5
0
-13
-8
-1
-16
-7
-15
-6
-2
1
6
3
-12
-14
-10
-3
-8
0
3
-5
-8
-1
-3
-2
-21
9
7
-12
-8
-3
-4
-4
-3
6
9
-1
1
-4
-7
-1
2
-12
-7
-11
-9
13
5
-2
7
2
-1
-2
7
4
8
18
10
4
9
5
6
8
7
11
4
0
6
10
8
14
12
9
13
9
4
4
16
11
13
12
15
10
13
19
13
15
12
8
14
16
3
4
-3
3
-3
-8
-17
-11
-2
-13
-2
8
12
-3
-5
1
-4
-1
-3
3
3
-8
-9
-8
-10
-8
-3
0
-3
-13
-12
-18
-22
-14
0
-12
-8
-5
7
11
10
1
-7
0
3
3
9
13
13
16
29
44
51
77
98
119
135
142
157
169
151
81
-5
-127
-187
-200
-212
-218
-225
-227
-233
-209
-181
-165
-157
-137
-122
-111
-98
-94
-78
-57
-41
-29
-27
-21
-9
2
7
8
5
1
2
10
8
8
9
6
-2
-5
13
22
12
16
20
15
26
27
18
34
27
13
15
8
17
26
27
27
29
26
38
41
35
38
39
38
37
38
48
44
41
44
38
43
49
51
53
55
66
78
77
83
83
83
79
73
84
94
97
89
94
103
91
99
100
116
125
113
119
124
120
118
108
106
109
99
102
101
103
107
89
81
91
84
77
69
64
60
46
42
41
48
32
18
22
19
15
10
8
16
18
12
11
4
8
7
1
-5
3
4
10
6
5
0
-7
-9
-2
4
6
4
-7
-4
-9
2
-7
-6
5
1
3
-2
-13
-8
3
-3
8
8
-1
-2
0
-1
-11
-11
-7
-9
-31
-14
3
-6
0
11
8
-1
-1
-1
-3
3
6
6
6
-5
-3
-1
12
4
-3
-3
3
9
-2
-4
-2
-5
1
6
6
13
6
-1
8
5
8
10
11
6
8
13
4
2
7
4
18
12
5
16
19
20
10
22
27
20
12
13
9
3
11
10
17
26
24
14
23
13
-1
2
3
2
2
-4
-7
-9
0
0
7
13
10
13
-1
-1
6
-4
-10
-11
-5
-2
-4
-8
-9
-11
-11
-13
-6
-19
-7
-6
8
6
3
-5
-3
-8
-6
-7
-16
-5
-5
0
2
10
7
9
10
7
21
34
54
68
79
102
141
148
155
156
164
145
62
-40
-146
-189
-204
-204
-224
-226
-231
-229
-207
-192
-181
-160
-135
-125
-115
-101
-93
-54
-41
-32
-20
-18
-24
-15
-5
4
11
8
12
6
10
9
11
3
4
24
24
15
14
20
24
21
12
7
16
19
16
20
18
30
36
22
29
30
23
27
29
26
40
39
35
28
31
40
40
36
50
50
56
56
49
52
51
60
56
65
72
72
72
71
78
75
85
93
98
100
109
111
110
104
104
113
114
108
111
117
109
110
112
112
112
125
109
117
102
98
95
90
87
80
83
68
66
62
51
47
46
43
38
27
29
29
22
5
-4
7
10
5
10
8
5
-4
-14
-1
-2
-8
10
10
5
-10
-5
-5
-4
1
1
-5
-2
-12
-8
0
-5
-3
4
1
-10
-15
-10
-6
-10
-15
-15
0
-5
-8
-8
-7
-6
-8
-12
-11
-7
-2
-8
-7
5
-3
-3
6
-1
-11
-12
-2
2
4
-9
-19
-20
-11
-5
-7
-11
-6
-11
-8
-1
-4
1
9
12
4
-1
6
17
9
6
0
8
-3
7
17
-1
-7
-3
10
6
2
-1
6
13
11
17
9
11
21
13
10
9
8
-5
-1
-4
-6
4
2
-3
2
17
20
5
1
6
1
-6
-10
-9
5
2
-7
-6
2
-1
-6
-7
-7
-8
-11
4
-6
-2
-19
-23
-14
-11
-3
-9
-13
-11
-13
-13
-11
-14
-19
-16
-13
-12
-11
-6
-8
-2
-7
-12
-11
-8
1
9
31
40
60
84
110
123
127
154
163
171
150
82
-9
-116
-189
-228
-238
-244
-241
-243
-239
-231
-211
-205
-177
-149
-131
-114
-112
-88
-79
-67
-56
-52
-53
-43
-26
-11
3
2
1
4
7
1
11
10
11
6
0
-2
4
4
13
14
7
-1
9
4
4
16
22
18
10
22
19
13
14
21
19
22
28
24
20
27
29
29
31
32
39
40
39
55
48
46
46
50
43
59
59
54
62
78
81
82
76
80
78
91
88
87
88
97
93
98
106
108
116
115
102
111
125
119
114
105
103
98
95
92
93
93
86
80
75
68
71
65
63
47
38
35
34
18
20
15
24
18
16
14
22
17
-2
5
9
-5
1
-3
-3
-4
-8
-20
-18
-10
4
-14
-17
-11
-14
-24
-14
-7
-6
-7
-2
-14
-16
-21
-19
-25
-12
-9
-15
-8
-8
-12
-12
-1
-8
-18
-15
-8
-2
-17
-5
-6
-14
-16
-17
-11
-8
-22
-23
-18
-11
-13
-5
-10
4
-3
-8
-10
-15
-18
-14
-16
-11
-13
-18
-12
0
1
-4
8
1
4
9
-3
-10
-9
4
10
8
7
2
-2
-20
-15
-9
-2
-6
-7
-7
2
7
12
8
11
12
13
3
-2
3
13
8
5
13
9
5
3
2
1
-3
7
-10
-9
-12
-4
-10
-17
-7
-6
-16
-12
-17
-12
-21
-12
-12
-11
-11
-10
-8
-7
-14
-9
-11
-15
-15
-11
-20
-14
-13
-9
-21
-11
-14
-16
-12
-12
-14
-10
-10
-7
-2
-6
-10
-13
-13
-15
-13
-9
7
6
17
37
81
92
103
134
142
150
147
143
111
23
-74
-175
-217
-230
-239
-235
-237
-242
-233
-218
-199
-197
-177
-151
-139
-135
-126
-97
-58
-56
-46
-34
-32
-32
-22
-11
-6
0
5
4
2
-1
-2
-1
