102
95
99
105
114
111
105
101
93
94
100
102
110
112
112
116
115
106
98
99
105
97
103
111
103
104
104
113
120
116
108
104
99
106
111
109
109
99
97
102
109
98
104
112
114
112
107
96
102
105
96
103
107
106
107
112
105
103
103
102
96
99
97
103
97
100
107
101
98
100
100
99
98
101
101
96
95
91
94
96
86
80
102
116
118
109
101
93
89
88
96
114
102
99
92
97
92
96
102
101
105
102
99
101
97
95
104
100
96
97
104
110
111
99
98
99
104
105
112
118
111
118
115
113
115
111
121
116
119
119
120
120
121
113
106
102
111
111
106
106
105
104
96
90
104
100
103
113
116
109
108
102
100
100
93
91
93
93
99
97
95
97
101
99
96
92
89
95
91
90
100
93
86
86
82
86
96
93
95
90
105
100
107
118
123
134
151
177
189
207
227
238
246
256
264
259
245
228
214
183
155
138
112
86
77
48
41
47
54
58
69
70
79
85
88
84
84
86
104
107
104
100
99
97
95
100
98
93
93
98
99
96
100
107
109
100
97
97
97
105
99
108
110
110
115
109
107
111
104
107
111
114
113
109
109
114
111
114
117
126
112
115
121
119
125
119
118
121
120
118
114
122
125
129
129
125
129
140
151
152
152
150
151
144
143
143
151
161
163
171
166
160
167
173
175
173
163
168
177
169
173
174
186
185
188
185
183
174
176
175
174
167
172
168
164
156
163
161
150
143
149
147
141
145
134
135
135
126
129
134
125
118
115
122
113
120
118
107
112
104
108
103
101
102
97
103
104
99
99
94
81
83
95
101
106
112
94
95
95
100
99
93
90
93
92
94
102
109
98
95
88
88
97
103
104
102
96
99
99
103
102
99
99
102
105
102
103
101
94
91
86
98
99
101
104
106
110
91
95
97
89
95
97
93
94
100
93
92
92
89
106
106
114
110
114
114
108
99
95
95
95
95
87
87
97
93
97
89
100
95
96
101
93
95
88
105
102
101
95
93
86
103
100
102
114
101
95
99
99
98
89
90
95
94
89
92
100
97
96
93
98
92
91
92
96
93
95
93
92
88
80
84
78
91
92
98
93
96
107
102
95
92
94
104
97
93
91
85
83
93
88
97
99
96
88
94
104
97
102
108
100
107
107
101
99
101
97
105
115
117
119
114
116
114
111
115
111
93
104
116
114
100
104
106
104
110
110
101
100
94
89
94
92
88
90
87
90
92
86
98
89
89
88
80
80
92
91
96
102
92
97
95
97
88
83
82
74
87
96
96
96
88
92
94
89
93
86
77
102
125
146
162
173
177
196
227
247
255
260
264
249
241
231
203
166
146
116
84
74
42
33
53
70
69
70
78
77
75
82
77
84
82
82
87
92
91
88
90
99
106
102
92
91
95
96
92
91
97
89
85
87
95
98
93
101
97
94
90
99
110
115
112
110
95
106
98
95
104
103
103
108
109
112
118
110
106
106
110
118
116
105
101
104
112
107
113
125
123
124
133
131
125
128
128
128
132
141
141
139
142
138
154
153
155
157
171
170
172
166
170
175
168
164
167
150
155
176
186
181
180
173
171
166
169
164
172
162
158
164
155
154
162
160
152
143
145
130
129
126
119
123
120
117
108
107
95
100
98
93
96
105
109
100
91
99
89
82
98
110
109
104
86
86
91
88
99
100
92
98
103
91
79
72
77
86
88
98
91
83
84
91
92
89
79
79
77
86
89
85
82
83
86
85
85
90
94
95
92
90
85
82
71
81
91
83
85
88
83
89
97
92
92
94
90
89
91
88
89
86
90
87
81
91
102
81
82
89
91
85
79
80
86
81
81
83
99
105
97
93
102
95
92
83
84
91
89
91
74
78
80
77
80
71
84
79
86
84
84
82
81
86
82
84
90
75
68
72
84
87
95
94
87
85
87
82
84
75
77
77
84
87
88
88
88
88
83
91
84
71
76
83
76
63
63
71
93
90
81
71
85
90
89
79
74
83
80
82
85
91
84
87
87
84
83
92
94
93
96
100
101
95
103
98
94
93
87
96
101
102
100
99
101
100
91
93
95
101
99
89
92
95
97
90
84
95
87
84
81
78
73
83
90
86
83
75
76
83
76
79
73
93
87
79
84
81
81
83
78
70
79
83
70
67
70
72
77
73
77
86
87
79
80
89
98
109
125
138
147
160
177
198
215
234
240
246
246
238
231
218
182
138
117
97
76
63
35
12
24
34
46
65
75
74
67
61
63
73
77
76
76
65
80
90
94
83
90
85
79
84
75
91
87
82
79
86
88
93
93
94
95
83
83
94
93
91
95
95
86
86
95
98
93
92
87
85
86
87
96
106
114
106
101
84
86
95
93
92
105
111
108
110
112
120
126
125
113
116
111
116
118
114
117
118
123
133
134
141
147
151
139
140
152
150
146
148
155
160
161
159
162
164
156
161
152
153
170
159
159
157
150
153
157
157
154
149
148
144
149
143
136
127
138
131
122
115
125
121
119
112
106
100
100
106
97
88
85
94
89
89
88
90
89
80
73
77
85
82
82
80
66
66
75
82
92
82
81
82
88
80
77
77
78
86
89
93
83
87
85
74
77
81
76
80
85
84
83
89
77
79
75
74
71
72
79
80
79
73
80
79
76
80
81
91
91
87
79
83
84
81
83
82
77
79
78
79
87
82
80
79
89
88
88
85
84
80
86
85
79
82
85
75
77
76
83
82
82
73
58
69
79
85
95
81
80
77
74
77
81
83
82
77
77
75
82
74
85
88
86
84
75
77
75
81
77
78
80
73
75
77
73
74
79
76
80
78
66
82
85
81
79
78
79
72
74
78
72
81
84
75
73
69
76
75
73
74
77
68
75
83
82
76
68
71
74
77
68
71
71
68
72
71
70
73
76
75
71
81
91
89
81
84
88
85
78
73
79
85
96
95
98
101
106
104
101
97
95
91
97
97
87
96
102
92
92
94
89
84
84
82
79
81
76
74
70
80
86
79
67
65
73
84
81
73
64
64
60
68
69
76
69
68
74
83
88
85
84
79
78
77
68
72
69
65
76
74
76
70
82
82
73
80
100
117
132
137
143
179
211
224
232
235
243
235
232
227
210
177
135
100
86
78
65
36
25
26
38
48
56
65
62
67
66
61
71
79
79
82
75
79
79
78
78
78
85
75
63
68
65
70
80
89
77
80
91
88
84
79
80
87
87
88
86
82
81
76
77
76
78
82
81
87
91
97
88
92
94
92
88
91
101
104
104
97
92
106
104
106
100
100
114
119
106
112
111
107
117
117
106
117
119
113
117
120
133
143
140
140
143
142
145
145
151
148
147
144
150
162
176
176
165
159
160
154
155
153
158
154
147
145
151
151
149
147
146
137
135
126
128
134
140
125
115
112
105
103
101
90
92
97
97
92
90
99
101
102
98
91
83
84
81
73
80
86
86
79
78
69
70
81
81
87
87
78
86
84
86
79
77
73
73
73
69
71
71
79
85
84
84
80
74
77
76
82
83
81
83
83
81
79
76
85
84
75
74
83
80
75
58
65
73
78
88
81
78
79
79
80
76
75
73
78
77
79
80
67
76
87
74
78
81
89
82
83
86
93
87
87
82
71
73
73
79
82
81
81
74
78
83
80
81
91
92
82
65
74
76
77
86
75
68
74
68
72
77
78
72
71
72
76
85
90
86
85
82
77
67
64
68
70
81
79
85
81
83
72
70
73
68
62
57
77
71
78
92
84
79
87
82
74
76
73
80
76
77
77
79
79
80
68
70
68
77
70
68
68
71
67
80
80
80
79
80
77
78
85
74
75
72
64
75
92
87
86
87
86
84
80
83
77
79
89
97
93
92
91
100
104
100
98
102
103
95
80
70
80
95
94
93
91
90
87
95
77
73
92
92
79
81
75
83
76
66
65
64
74
74
65
71
71
68
67
80
71
61
67
74
74
81
80
79
76
80
69
64
73
73
77
83
78
78
80
89
99
90
112
124
138
158
182
202
217
228
239
242
245
237
222
210
177
143
120
100
78
49
15
18
30
23
32
54
63
66
78
73
80
82
85
80
69
78
70
77
82
77
79
73
65
65
69
70
76
77
82
80
84
84
69
76
86
83
91
88
88
86
88
84
79
80
85
90
97
99
107
101
96
90
91
86
82
90
105
95
103
102
102
95
94
90
100
105
112
104
103
110
93
100
108
113
112
122
116
112
118
130
118
123
145
139
139
148
145
139
147
149
151
162
169
165
161
158
157
158
168
162
167
162
158
158
155
151
153
152
147
139
140
125
124
127
125
123
132
128
124
122
110
115
110
114
104
104
89
90
92
89
101
91
81
82
80
83
89
87
96
94
80
69
72
74
77
75
80
82
65
59
62
62
78
69
72
72
72
73
87
80
79
79
68
67
66
72
75
77
83
80
79
75
74
72
74
70
65
67
76
76
77
74
76
68
75
79
76
78
74
67
65
59
62
75
80
79
86
87
79
81
82
79
74
82
90
79
79
71
74
73
73
77
74
70
67
69
72
70
70
68
66
57
71
76
76
73
73
73
67
69
71
69
67
68
81
73
82
80
72
71
72
67
70
75
66
71
73
77
72
63
63
69
75
76
64
60
63
67
64
74
71
73
71
68
60
58
71
69
69
76
68
59
65
73
72
67
78
73
66
63
66
73
66
68
70
72
68
70
63
61
71
71
65
64
70
79
75
76
71
60
62
62
60
57
74
68
62
74
80
80
80
90
90
94
97
97
94
84
90
87
73
77
84
83
82
82
89
83
77
74
76
76
78
78
74
70
66
72
68
63
58
55
58
58
59
66
60
62
62
73
68
63
63
58
58
58
66
60
59
65
60
53
54
66
67
65
71
71
61
58
76
69
89
109
127
139
157
169
191
205
220
233
245
219
208
200
182
140
108
84
73
52
25
6
12
26
17
27
47
56
62
66
71
73
73
69
70
71
71
65
68
64
63
70
68
64
64
71
73
73
74
74
64
58
64
64
61
65
83
68
64
67
74
68
67
70
64
68
64
76
65
58
74
77
88
90
88
93
88
90
91
96
91
88
95
95
94
93
98
96
90
90
96
104
109
115
112
114
117
114
111
110
100
102
108
118
126
122
126
131
140
141
141
143
140
142
141
147
150
146
144
160
162
149
148
138
147
144
144
154
139
135
129
125
124
125
121
116
109
109
108
105
104
105
103
96
93
84
82
84
77
79
73
68
73
74
67
67
70
77
77
69
65
61
63
65
60
57
62
64
66
68
66
61
62
61
68
66
65
62
68
69
62
50
49
55
60
59
56
49
49
62
75
77
72
66
60
55
57
70
72
69
72
69
59
62
67
75
77
70
68
59
56
49
63
70
79
76
75
74
71
63
58
57
69
61
64
61
58
59
64
61
59
60
61
58
63
69
71
64
66
65
62
69
66
64
68
63
58
62
59
57
59
63
70
70
65
60
46
53
65
64
57
54
53
51
61
59
50
51
52
55
54
45
46
53
65
53
64
68
56
66
67
62
67
62
63
66
59
53
54
63
63
69
59
56
59
53
46
57
54
51
53
58
54
61
62
52
57
61
56
57
52
46
43
51
66
60
49
57
68
70
70
70
68
72
69
74
75
81
83
83
79
67
70
75
63
63
68
71
76
77
77
80
75
73
66
67
59
60
60
64
63
57
52
48
46
41
53
52
52
53
63
65
51
58
51
44
41
45
54
50
54
53
62
62
54
50
52
46
42
54
53
56
54
57
57
63
62
61
63
73
97
115
137
158
166
182
198
214
211
230
230
208
196
168
130
101
74
60
50
19
-11
-20
-12
3
16
37
55
59
55
50
52
51
56
56
62
70
60
56
57
55
57
53
56
48
51
51
58
58
59
68
68
56
55
51
52
53
54
63
61
59
63
65
59
59
63
59
58
60
63
65
70
62
65
68
73
75
82
88
77
73
74
71
71
75
71
72
77
84
84
88
89
88
93
94
99
101
99
102
104
112
115
105
106
113
116
114
116
119
118
126
126
125
128
123
133
134
138
137
140
138
130
125
129
136
128
132
131
127
130
126
122
119
123
118
105
105
101
95
95
93
90
94
90
84
78
85
85
78
70
56
49
57
59
50
44
41
58
52
58
56
64
67
71
65
65
63
60
50
50
51
54
47
45
42
47
56
69
58
60
56
60
57
60
55
60
57
60
57
48
44
36
41
56
57
54
40
48
59
52
49
41
40
61
72
59
53
53
59
53
49
57
54
57
49
45
41
43
62
58
55
49
46
57
57
58
60
56
56
48
45
43
43
46
53
59
60
54
48
53
51
50
51
47
52
55
50
52
61
56
46
38
33
55
51
40
54
56
51
51
54
49
47
50
50
46
44
51
49
50
49
40
42
48
49
50
48
48
47
46
47
47
50
43
40
45
47
45
39
42
33
32
31
41
41
40
46
37
45
46
46
47
50
49
46
39
47
44
46
47
49
49
54
45
40
41
42
41
41
42
47
48
47
42
44
38
40
39
44
49
46
49
49
45
47
49
49
50
54
56
54
44
52
56
53
59
54
46
51
64
68
73
71
71
66
70
75
75
67
63
54
47
46
51
50
51
59
48
49
56
56
62
65
53
50
45
48
51
46
50
51
47
38
41
41
30
37
42
46
45
37
52
47
47
49
40
29
29
36
34
42
43
39
34
36
36
41
39
51
49
48
58
80
95
111
134
150
167
184
201
213
221
216
209
197
191
176
141
114
86
55
40
24
-21
-23
-2
9
18
25
32
32
33
35
34
40
51
52
54
50
39
40
43
45
54
52
42
39
37
38
34
46
51
48
45
42
43
51
61
57
50
50
59
61
52
48
54
61
63
61
62
63
59
56
63
61
57
61
58
57
65
68
64
67
60
61
71
78
72
72
75
74
73
75
79
80
84
83
78
78
80
92
97
96
89
90
92
82
82
95
97
100
108
135
137
135
138
138
140
144
138
137
141
132
124
123
135
123
125
123
124
123
118
111
116
119
110
116
107
102
101
92
80
83
89
88
80
75
72
72
74
71
63
57
47
47
41
49
54
49
53
56
50
40
52
52
51
52
56
54
51
49
44
38
38
48
38
55
55
43
43
44
47
52
48
46
47
54
51
39
33
37
32
39
44
45
50
54
44
36
37
39
36
32
44
49
41
33
37
44
43
42
44
43
45
46
44
43
49
45
35
41
47
47
46
48
44
42
50
52
46
44
39
35
29
41
47
43
43
41
38
39
38
47
45
41
40
37
41
46
41
43
46
46
36
29
28
23
31
39
37
37
38
44
35
34
42
44
43
46
51
49
40
30
31
46
46
40
43
35
30
33
41
37
42
36
33
30
25
36
47
43
36
32
34
32
35
36
30
28
24
34
43
41
40
39
37
43
48
38
40
32
40
35
27
29
38
38
26
26
44
36
32
34
42
36
36
40
41
34
40
43
36
37
36
40
40
38
29
21
33
42
40
41
44
48
53
57
52
56
59
59
60
52
48
48
53
49
61
54
57
57
48
59
57
51
53
42
38
49
46
51
53
46
41
34
34
41
35
31
28
30
25
22
28
27
31
39
46
37
26
36
33
29
32
33
33
37
35
34
29
26
34
32
33
35
29
26
24
20
29
42
45
64
81
101
114
131
163
178
192
202
215
219
200
188
172
151
112
83
63
41
24
-3
-18
-16
-11
-2
9
6
15
26
24
30
37
35
40
39
34
29
28
27
23
22
27
35
47
48
40
34
35
32
36
53
41
38
38
38
42
46
48
44
50
42
40
42
46
34
31
39
42
54
54
54
41
50
59
53
52
57
51
51
45
56
58
63
60
60
60
60
56
47
56
57
75
84
80
85
82
84
84
76
78
80
91
99
99
99
107
108
101
100
103
113
105
107
116
116
119
113
111
115
122
117
108
106
116
115
116
110
103
101
106
97
97
92
91
82
88
84
89
87
87
74
67
60
61
64
63
54
59
54
57
53
55
58
46
44
47
40
44
44
39
35
42
34
24
30
35
32
24
17
20
30
25
18
24
29
38
38
32
31
37
40
29
41
39
32
22
18
35
30
34
35
37
28
32
28
28
30
28
34
35
37
35
34
30
24
21
25
28
46
35
24
25
30
26
23
28
37
31
35
34
28
25
26
30
39
35
34
34
33
34
32
41
36
33
25
26
30
38
39
41
40
33
27
34
29
30
35
26
12
21
26
28
36
26
22
20
23
29
27
27
27
23
28
20
20
18
23
25
31
33
34
33
31
37
19
23
25
22
17
20
23
33
31
19
18
29
32
31
32
33
31
32
21
23
25
20
12
13
25
32
23
29
29
24
23
24
17
17
18
22
29
26
20
27
24
22
27
28
33
33
33
38
35
33
30
33
38
37
37
33
35
40
46
44
44
37
35
40
41
39
41
46
46
46
38
41
47
44
43
38
32
31
29
24
22
32
40
34
35
35
22
23
21
22
24
28
25
26
22
22
25
24
24
26
30
26
25
21
24
14
23
21
27
29
27
26
26
28
26
24
19
27
28
36
46
57
70
91
106
125
138
155
174
190
192
187
173
172
173
136
100
75
41
20
2
-32
-35
-26
-28
-4
7
7
14
21
31
31
40
30
30
29
25
33
29
17
21
24
24
25
28
35
31
26
35
35
34
28
30
30
34
34
33
32
36
38
35
32
37
40
33
48
55
45
38
28
28
51
54
46
45
49
52
53
52
48
49
45
46
48
52
41
58
55
57
60
53
62
62
65
67
70
67
69
75
84
87
77
82
85
92
102
100
100
98
110
106
107
115
115
114
116
109
106
109
110
101
98
94
100
109
108
117
108
110
103
98
93
97
104
96
95
87
76
69
69
66
67
64
61
64
62
59
51
53
54
50
38
39
49
41
39
37
28
32
38
40
37
38
27
19
21
38
40
29
22
32
30
30
31
32
27
26
27
28
34
35
39
37
38
38
30
30
30
30
36
26
26
32
37
33
29
22
26
33
30
28
22
28
34
37
39
35
27
26
28
28
34
37
30
28
30
26
23
23
31
26
20
35
36
28
27
28
24
23
33
28
28
43
43
43
41
33
33
28
25
25
35
30
27
20
24
34
44
33
34
27
31
28
36
36
33
33
35
30
28
23
23
26
19
17
19
22
24
24
27
24
34
33
19
16
18
10
10
23
26
27
29
34
26
29
31
21
26
29
29
18
21
19
21
28
33
27
25
18
27
24
23
25
28
30
23
25
17
21
22
16
18
28
15
14
25
24
22
26
31
30
30
31
29
26
26
20
19
25
21
20
24
35
38
30
32
29
30
28
26
29
27
33
36
33
23
27
32
31
33
37
44
31
47
54
51
50
51
44
36
45
37
48
43
39
38
35
41
38
38
34
33
29
30
35
29
25
24
30
18
16
11
21
20
20
19
14
21
20
19
19
27
30
21
28
25
30
18
17
17
20
21
22
18
21
20
18
18
16
27
42
61
66
87
103
123
138
165
185
186
183
189
186
181
169
138
96
78
56
39
23
-2
-28
-28
-23
-18
-5
3
15
11
16
19
16
22
20
24
20
19
20
17
28
26
18
12
22
17
25
26
21
20
17
28
24
26
35
35
32
27
24
34
37
41
37
32
43
45
47
41
33
33
32
36
37
37
35
32
30
34
36
35
38
41
45
45
39
44
42
40
57
54
58
61
60
65
73
70
69
64
76
80
79
74
62
60
70
86
85
86
87
88
96
106
94
97
97
98
102
110
115
105
99
102
104
97
105
109
110
103
109
94
94
90
93
97
94
91
92
83
67
74
73
69
62
62
65
62
56
55
48
40
31
31
30
29
28
35
40
39
33
25
26
38
35
39
43
35
30
22
21
26
23
23
27
31
25
18
16
27
23
19
22
26
24
21
16
28
36
34
27
35
33
30
21
9
17
27
24
19
28
37
29
31
32
30
32
23
20
23
19
22
30
27
28
28
26
23
28
32
28
9
7
17
10
16
33
34
35
27
16
26
34
30
30
27
26
25
22
22
22
27
29
29
23
24
15
16
25
27
29
27
17
19
26
28
31
24
23
27
25
16
23
15
15
19
21
23
16
19
21
18
27
23
21
15
8
18
19
18
20
26
31
25
27
26
28
22
8
8
20
19
21
27
23
24
21
22
20
16
18
18
18
25
19
10
20
7
15
22
17
16
19
25
23
23
21
22
26
19
18
17
8
13
11
20
22
21
30
30
37
32
31
28
24
22
29
35
35
28
17
27
28
38
48
47
48
53
49
46
44
31
28
31
32
41
34
42
45
37
26
39
33
33
23
19
19
6
8
8
8
20
21
16
18
11
9
18
24
17
4
7
11
20
22
17
10
18
16
17
29
19
20
24
22
18
17
23
27
32
40
48
60
79
94
95
120
138
152
164
181
188
174
164
155
145
99
72
49
22
4
-24
-52
-45
-26
-24
-28
-4
10
9
13
0
1
22
15
23
22
16
19
34
38
36
33
32
35
35
26
33
26
25
30
40
40
37
34
32
29
29
32
31
27
28
33
46
34
30
29
31
30
50
60
57
40
38
50
44
45
52
45
48
51
50
46
53
54
62
59
59
62
60
70
69
71
72
61
60
65
58
69
71
84
86
82
80
82
90
93
96
99
104
107
101
103
105
110
116
112
106
107
109
115
114
111
112
113
110
113
106
106
117
107
105
93
83
93
93
87
81
76
77
68
56
59
62
74
69
63
57
55
51
52
45
45
56
48
32
31
33
22
36
29
28
38
40
40
33
23
24
32
36
30
27
32
23
22
28
23
30
28
31
28
31
30
35
33
37
32
24
25
26
28
34
32
39
34
35
33
32
24
28
25
18
24
34
36
27
38
30
28
29
33
18
25
26
30
32
45
40
46
30
34
29
26
30
22
26
39
37
33
36
38
34
35
38
33
33
31
26
27
30
33
31
33
25
20
15
6
9
23
41
31
17
17
21
28
37
34
29
34
35
30
22
25
23
21
29
31
30
18
22
35
41
29
21
19
22
17
21
30
28
21
17
23
28
27
32
27
32
32
22
22
24
20
19
20
29
31
35
23
25
18
19
25
21
18
21
21
23
19
22
18
23
36
46
35
19
25
31
25
35
48
46
42
42
39
39
43
38
44
48
40
43
45
44
46
40
34
33
32
24
29
32
26
32
36
24
16
15
30
29
22
31
26
24
30
26
19
27
17
16
19
26
21
18
13
26
25
21
20
22
20
11
9
14
13
22
26
18
21
31
38
43
51
65
88
98
116
131
147
155
159
181
174
157
151
140
109
82
65
39
19
2
-26
-32
-29
-21
-8
-10
6
14
23
15
11
22
25
30
27
19
17
17
18
15
15
26
29
39
35
29
35
38
36
29
28
22
17
23
27
29
27
21
31
37
30
31
40
35
33
28
28
30
43
43
42
40
38
30
35
40
30
31
37
49
62
42
45
60
54
52
52
51
51
55
59
58
59
50
50
54
70
80
75
75
74
74
82
85
82
83
90
93
102
90
90
98
100
93
93
94
101
103
100
110
101
95
93
92
89
87
90
93
83
89
89
83
85
76
69
75
69
64
75
66
53
53
44
40
39
39
43
49
37
39
40
38
37
36
34
32
31
24
26
18
11
27
23
20
22
16
13
17
15
16
23
22
14
13
17
29
33
29
27
28
20
30
23
13
18
21
19
20
29
20
15
15
17
11
21
29
25
30
20
22
15
18
24
20
13
19
20
22
22
22
19
22
25
19
17
19
24
22
31
29
25
27
16
10
17
23
24
22
29
20
15
14
18
31
25
26
16
16
25
25
19
5
7
18
21
20
17
36
27
24
16
19
16
14
17
24
25
26
26
18
19
20
22
16
23
16
8
15
24
12
14
11
7
18
18
22
17
12
10
15
13
7
15
22
30
32
19
21
21
17
19
15
20
18
21
19
12
11
17
18
21
13
11
10
8
18
22
19
22
24
18
25
15
18
16
17
22
18
31
45
46
35
27
41
35
39
35
32
34
27
36
41
36
35
33
36
36
38
29
30
29
25
20
21
12
9
13
14
17
15
16
11
10
10
12
7
3
9
8
13
18
23
22
14
12
10
15
6
16
15
10
-2
-3
13
16
20
26
16
24
35
45
53
68
92
97
111
125
145
158
156
158
162
159
153
130
102
75
41
21
15
10
-17
-25
-23
-22
-20
-8
2
2
14
19
10
11
20
24
20
25
21
20
10
11
6
10
21
20
18
13
11
13
12
17
12
15
17
18
14
18
14
18
21
24
32
29
27
31
19
22
26
21
26
32
34
28
33
30
36
28
34
28
28
36
31
29
31
39
43
44
46
50
43
41
41
47
47
44
44
36
49
53
52
58
57
55
59
64
77
80
77
75
69
81
88
94
90
94
93
93
85
83
82
75
78
75
72
85
92
86
80
76
74
74
75
66
68
62
56
50
40
32
40
45
52
53
53
47
42
40
35
37
30
28
25
21
23
14
23
20
21
21
14
6
10
16
10
12
12
12
9
7
6
10
8
-6
-3
3
5
16
18
18
11
8
7
4
2
-4
1
8
12
15
15
6
13
10
4
14
15
7
2
10
9
8
-3
-4
1
3
-2
9
13
11
3
-4
-16
-12
-16
-2
1
0
-2
13
24
20
18
14
19
18
15
14
11
5
7
4
8
13
8
7
12
9
7
7
6
3
4
1
4
3
3
2
10
3
3
2
-6
-10
-2
0
-1
4
6
5
4
9
-3
-15
-10
4
-7
-5
-22
-9
-4
-2
8
13
2
3
12
13
-11
-6
-2
2
3
0
-1
-1
-1
3
0
5
7
-1
3
3
-2
-2
-6
-8
-9
-11
-16
-9
7
6
-5
-11
0
7
-2
1
-5
-3
-4
-3
2
5
3
6
11
6
0
5
12
11
6
8
15
17
10
10
15
16
14
24
20
13
-3
3
3
11
4
1
-7
9
18
6
12
8
7
0
-10
-11
0
-5
-4
-4
-12
-8
-4
-1
4
-7
8
7
2
-1
-1
-11
-8
-13
-8
-4
-2
0
-7
-12
-15
-14
-11
-3
0
6
1
2
7
15
19
35
42
48
67
86
103
118
134
131
135
135
129
121
104
67
42
19
11
4
-18
-48
-56
-52
-37
-33
-34
-24
-13
-7
-12
-9
-7
-1
5
-1
-10
-4
-7
-4
-4
-7
6
8
5
8
4
-7
-3
-5
0
1
-3
-8
-11
-2
5
0
0
4
13
9
3
11
5
4
6
8
6
5
7
13
11
6
7
5
2
17
16
23
23
18
19
20
12
9
15
22
15
16
16
24
20
23
24
39
46
43
46
51
56
57
51
58
64
62
54
59
62
53
52
51
59
66
83
78
69
73
76
79
84
79
71
67
73
78
69
67
66
59
59
58
54
51
53
56
48
46
43
38
32
30
28
26
32
28
26
24
19
14
7
5
5
-3
-7
-14
-15
-9
-2
2
1
-1
3
10
8
16
18
17
-1
5
11
9
2
6
1
-5
-6
3
4
-7
-10
-4
0
-4
-8
1
-6
-2
-4
-10
-6
-7
-13
-10
-6
-2
-1
-2
-15
-6
-2
5
9
9
6
9
-1
4
1
-2
-4
-6
-2
-4
-2
2
1
2
-5
-8
-1
-3
-8
-8
-4
-13
-11
-5
-11
-12
-7
-2
3
1
-15
-9
-10
-7
-5
-9
-2
3
4
-1
-5
-9
-8
-1
0
-7
-7
2
-1
-9
-16
-16
-8
-5
-4
5
6
7
-1
0
-8
-19
-10
-13
-17
-19
-11
-4
-10
-12
-7
-3
-6
-13
-9
-12
-10
-14
-15
-13
-13
-16
-20
-17
-21
-14
-1
-1
-5
-4
-5
-3
-6
-10
-9
-6
-2
-1
-14
-19
-16
-7
0
-5
-8
-8
-11
-11
-9
-14
-15
-8
-4
-11
-12
-19
-13
-14
5
8
3
-3
-7
-9
-4
-4
-7
1
1
8
7
10
10
11
16
14
4
5
3
-5
1
11
15
2
-1
2
-2
-3
-6
-5
-5
-9
-9
-11
-1
7
-3
-9
-9
-14
-23
-20
-9
-14
-11
-9
-10
-17
-23
-21
-18
-17
-18
-24
-24
-26
-19
-6
0
-8
-18
-24
-29
-28
-27
-9
-7
-9
4
12
34
46
51
64
75
94
114
125
136
128
129
126
112
99
75
44
12
-1
-8
-25
-58
-78
-74
-66
-56
-53
-46
-41
-36
-37
-29
-23
-27
-25
-29
-24
-23
-24
-18
-20
-32
-29
-31
-36
-43
-29
-22
-28
-30
-31
-27
-25
-15
-20
-25
-23
-22
-30
-29
-25
-26
-23
-14
-12
-9
-14
-16
-16
-18
-23
-28
-29
-21
-17
-17
-16
-21
-16
-15
-3
-6
-8
-15
-13
-17
-20
-29
-23
-11
1
-4
-10
-6
1
-5
0
2
-2
5
5
6
13
12
15
15
21
24
30
36
37
42
34
33
31
40
34
37
38
35
33
33
33
29
41
37
32
36
32
32
25
28
24
9
5
5
8
19
-1
-6
0
-2
-3
-7
-16
-14
-19
-9
-17
-25
-28
-38
-32
-39
-34
-34
-40
-40
-39
-46
-39
-38
-29
-31
-36
-41
-46
-41
-41
-43
-39
-39
-42
-48
-52
-45
-36
-42
-40
-42
-54
-56
-52
-54
-52
-48
-49
-51
-45
-45
-36
-38
-35
-35
-39
-49
-55
-47
-42
-43
-34
-40
-45
-42
-48
-55
-52
-59
-55
-58
-51
-44
-36
-41
-51
-51
-53
-56
-45
-34
-36
-35
-41
-40
-39
-44
-48
-48
-44
-46
-53
-49
-45
-45
-53
-54
-48
-45
-41
-40
-49
-52
-50
-51
-52
-57
-60
-56
-62
-59
-52
-63
-58
-51
-44
-38
-44
-42
-43
-49
-57
-54
-62
-65
-58
-55
-56
-51
-54
-38
-46
-55
-48
-40
-45
-48
-46
-46
-52
-55
-57
-58
-56
-57
-58
-55
-57
-54
-50
-52
-49
-53
-61
-76
-71
-60
-58
-59
-46
-54
-49
-45
-55
-57
-57
-61
-54
-60
-50
-57
-55
-57
-67
-56
-49
-47
-52
-59
-60
-55
-54
-57
-61
-66
-54
-55
-53
-45
-45
-46
-48
-41
-41
-46
-48
-43
-44
-48
-40
-38
-46
-44
-44
-49
-42
-33
-19
-22
-36
-48
-39
-42
-42
-41
-31
-28
-41
-45
-40
-40
-40
-41
-36
-44
-49
-53
-50
-50
-55
-51
-49
-55
-56
-58
-57
-59
-55
-61
-62
-74
-66
-66
-62
-57
-61
-69
-67
-69
-62
-63
-59
-61
-47
-49
-57
-53
-54
-48
-47
-47
-41
-38
-32
-6
9
21
38
55
69
85
98
101
100
90
73
65
54
19
-14
-33
-48
-58
-76
-107
-112
-109
-100
-86
-78
-77
-64
-55
-61
-67
-53
-55
-57
-57
-69
-69
-56
-49
-53
-53
-54
-51
-51
-46
-42
-44
-41
-44
-45
-44
-52
-52
-52
-59
-50
-37
-37
-44
-48
-43
-38
-35
-42
-40
-34
-26
-35
-42
-36
-40
-48
-41
-32
-31
-38
-35
-34
-27
-32
-34
-37
-28
-17
-14
-19
-23
-25
-20
-23
-21
-19
-11
-17
-10
-5
-6
-2
2
10
1
-4
-1
5
3
1
9
24
27
14
14
24
26
26
25
18
25
21
23
26
17
12
18
24
29
21
20
20
24
23
24
15
15
12
11
11
5
-4
-8
-4
-14
-31
-34
-28
-18
-10
-18
-24
-25
-35
-44
-35
-35
-35
-35
-37
-39
-39
-43
-45
-45
-40
-41
-50
-51
-45
-45
-48
-44
-48
-53
-52
-49
-49
-50
-52
-43
-47
-57
-56
-47
-43
-48
-46
-46
-45
-48
-45
-50
-63
-69
-60
-47
-41
-42
-38
-41
-36
-53
-49
-51
-47
-52
-48
-42
-36
-43
-46
-47
-45
-49
-62
-61
-52
-55
-50
-46
-45
-49
-45
-45
-45
-41
-53
-51
-51
-54
-57
-54
-46
-50
-52
-48
-52
-51
-50
-45
-48
-49
-45
-52
-49
-43
-48
-48
-53
-60
-59
-57
-62
-62
-64
-52
-45
-48
-45
-46
-52
-51
-55
-53
-56
-50
-45
-49
-52
-59
-53
-45
-51
-51
-55
-57
-60
-62
-54
-52
-57
-59
-59
-62
-56
-49
-58
-61
-61
-62
-58
-59
-50
-52
-57
-69
-65
-50
-53
-52
-55
-49
-47
-51
-52
-46
-51
-57
-52
-56
-53
-58
-59
-55
-52
-50
-51
-54
-52
-57
-58
-53
-48
-58
-60
-58
-50
-47
-48
-59
-57
-60
-56
-54
-47
-50
-54
-47
-38
-50
-50
-51
-50
-38
-30
-31
-38
-39
-31
-32
-39
-35
-33
-35
-40
-44
-37
-31
-30
-29
-42
-42
-40
-41
-50
-45
-48
-39
-37
-54
-64
-57
-57
-62
-57
-58
-53
-54
-53
-54
-57
-62
-63
-69
-77
-71
-72
-62
-62
-62
-55
-45
-41
-49
-49
-59
-56
-48
-43
-35
-47
-54
-45
-31
-10
1
20
32
45
63
76
90
99
96
96
86
80
71
47
5
-32
-61
-74
-88
-114
-120
-117
-100
-90
-88
-88
-81
-70
-53
-46
-58
-61
-49
-52
-51
-48
-45
-45
-44
-46
-52
-50
-55
-51
-50
-48
-45
-46
-54
-45
-41
-45
-50
-46
-56
-53
-48
-50
-40
-43
-48
-45
-41
-46
-47
-45
-43
-37
-36
-39
-35
-29
-25
-33
-35
-29
-34
-33
-38
-36
-34
-26
-25
-23
-28
-23
-23
-15
-9
-14
-17
-21
-18
-16
-10
-7
-8
-9
4
9
2
5
8
5
2
-1
3
19
23
18
21
28
32
33
29
33
29
36
34
31
30
31
28
19
18
18
24
32
34
32
20
12
-1
2
12
2
3
-3
-7
-9
-10
-16
-19
-20
-25
-30
-32
-37
-32
-29
-35
-32
-36
-30
-40
-46
-34
-42
-50
-45
-43
-41
-41
-50
-55
-57
-53
-57
-56
-51
-52
-46
-43
-53
-50
-36
-48
-52
-36
-41
-50
-45
-42
-48
-45
-48
-53
-46
-47
-48
-46
-43
-49
-54
-42
-40
-46
-46
-43
-41
-43
-45
-48
-47
-49
-50
-50
-48
-44
-44
-43
-49
-43
-33
-43
-57
-43
-40
-45
-44
-45
-51
-57
-47
-41
-36
-35
-39
-51
-49
-43
-46
-45
-57
-60
-60
-64
-61
-51
-47
-50
-43
-46
-52
-56
-53
-51
-49
-51
-51
-49
-50
-58
-54
-49
-47
-52
-48
-42
-53
-54
-54
-52
-46
-44
-52
-51
-49
-50
-50
-53
-57
-61
-60
-55
-50
-46
-40
-41
-54
-51
-50
-60
-61
-48
-42
-51
-47
-48
-53
-52
-46
-52
-49
-46
-49
-48
-60
-58
-51
-50
-54
-51
-44
-51
-47
-45
-60
-64
-56
-57
-66
-62
-60
-63
-62
-54
-53
-57
-63
-53
-43
-54
-53
-53
-50
-49
-39
-39
-42
-43
-52
-51
-43
-41
-46
-29
-35
-32
-35
-28
-30
-29
-31
-28
-33
-33
-34
-25
-29
-39
-29
-31
-34
-39
-50
-54
-48
-37
-34
-29
-30
-37
-42
-45
-43
-46
-51
-45
-51
-53
-48
-50
-50
-51
-50
-51
-53
-51
-51
-51
-49
-49
-53
-59
-55
-59
-54
-51
-46
-45
-51
-51
-59
-61
-65
-60
-56
-56
-55
-42
-30
-15
10
24
33
50
71
89
105
107
109
102
100
88
70
44
10
-13
-36
-52
-68
-101
-121
-108
-101
-90
-77
-69
-59
-55
-57
-50
-44
-50
-53
-52
-40
-44
-48
-45
-47
-40
-41
-51
-55
-52
-44
-46
-48
-47
-45
-45
-45
-51
-44
-51
-46
-47
-42
-35
-44
-41
-42
-32
-29
-27
-37
-38
-39
-42
-33
-36
-45
-29
-25
-38
-38
-26
-29
-36
-28
-27
-17
-20
-14
-18
-20
-12
-17
-2
-12
-10
-11
-10
2
2
12
10
-1
-2
8
13
8
-1
10
13
23
18
15
13
12
15
17
33
28
26
30
40
44
41
38
36
33
26
19
19
30
51
53
44
39
29
17
12
10
10
5
6
7
-1
-3
-9
-7
-14
-16
-13
-19
-20
-28
-29
-31
-31
-25
-26
-23
-24
-28
-32
-39
-40
-34
-38
-44
-51
-43
-43
-40
-35
-36
-34
-41
-44
-51
-44
-38
-50
-47
-37
-28
-25
-39
-49
-51
-45
-47
-39
-42
-49
-45
-43
-43
-37
-32
-39
-46
-40
-36
-30
-39
-36
-48
-50
-46
-42
-51
-49
-59
-46
-41
-34
-44
-45
-38
-35
-41
-36
-30
-38
-37
-44
-49
-58
-57
-41
-32
-26
-34
-39
-42
-47
-48
-45
-43
-38
-38
-39
-46
-45
-43
-49
-49
-44
-46
-54
-53
-52
-51
-58
-39
-42
-40
-43
-48
-52
-47
-45
-50
-42
-47
-48
-51
-56
-49
-40
-47
-51
-56
-55
-47
-45
-43
-45
-45
-45
-49
-51
-49
-46
-45
-48
-47
-55
-60
-49
-48
-44
-36
-42
-48
-49
-50
-59
-67
-58
-50
-60
-53
-49
-49
-47
-41
-44
-52
-53
-51
-57
-56
-53
-49
-51
-54
-52
-48
-45
-45
-47
-57
-45
-47
-47
-48
-49
-46
-36
-50
-59
-57
-57
-55
-42
-39
-34
-29
-33
-36
-44
-48
-53
-56
-55
-45
-34
-33
-30
-28
-26
-32
-37
-35
-33
-28
-26
-27
-27
-27
-32
-22
-19
-33
-38
-36
-40
-39
-37
-33
-27
-38
-48
-54
-43
-41
-50
-42
-44
-38
-41
-52
-55
-52
-57
-61
-57
-52
-56
-53
-54
-55
-51
-52
-58
-59
-53
-51
-40
-45
-41
-43
-44
-40
-38
-44
-42
-35
-21
-8
1
29
36
51
75
94
105
116
124
119
102
92
81
54
9
0
-26
-61
-79
-106
-111
-89
-90
-85
-72
-64
-54
-50
-51
-44
-49
-50
-55
-54
-42
-35
-35
-35
-38
-37
-39
-36
-32
-41
-48
-42
-29
-32
-33
-35
-37
-37
-36
-33
-39
-35
-32
-35
-35
-40
-38
-40
-33
-20
-33
-39
-37
-31
-23
-20
-24
-21
-28
-31
-28
-34
-31
-27
-35
-28
-22
-21
-22
-25
-16
0
10
2
-7
-1
-17
-21
-18
-13
-4
9
26
20
14
28
31
27
19
25
28
20
24
31
26
20
24
23
26
31
36
29
40
30
40
39
38
31
30
38
34
26
26
31
31
37
27
22
20
20
17
17
15
9
1
-4
-6
-5
-8
-6
-10
-15
-19
-15
-25
-26
-33
-38
-45
-34
-43
-42
-42
-41
-39
-36
-35
-36
-40
-34
-32
-33
-33
-37
-32
-35
-37
-38
-41
-34
-32
-34
-34
-31
-31
-35
-36
-33
-32
-43
-45
-44
-42
-46
-45
-41
-41
-49
-51
-41
-32
-36
-37
-34
-36
-37
-23
-28
-38
-36
-32
-39
-38
-38
-42
-34
-33
-27
-32
-32
-32
-37
-26
-30
-39
-43
-41
-33
-33
-32
-44
-56
-46
-37
-30
-33
-36
-30
-44
-42
-41
-52
-52
-48
-42
-34
-39
-38
-35
-33
-30
-37
-44
-45
-46
-46
-47
-38
-43
-38
-33
-40
-41
-37
-37
-33
-35
-44
-49
-53
-39
-37
-44
-48
-40
-49
-52
-46
-45
-41
-43
-42
-40
-36
-33
-39
-58
-45
-39
-43
-46
-40
-36
-39
-34
-43
-44
-43
-41
-48
-47
-40
-44
-36
-39
-35
-33
-40
-44
-42
-40
-37
-31
-29
-35
-41
-41
-38
-41
-43
-37
-37
-36
-26
-19
-24
-26
-22
-23
-22
-20
-17
-24
-24
-29
-23
-29
-38
-36
-38
-42
-31
-27
-28
-19
-28
-37
-42
-43
-50
-49
-45
-49
-48
-42
-44
-45
-38
-39
-32
-48
-55
-56
-49
-44
-41
-43
-40
-42
-49
-48
-44
-41
-45
-40
-44
-41
-42
-42
-37
-31
-12
-1
21
36
47
58
70
89
98
96
103
89
77
74
61
31
4
-16
-44
-68
-98
-99
-95
-85
-85
-73
-58
-55
-51
-54
-54
-46
-43
-45
-42
-34
-33
-30
-37
-37
-34
-32
-29
-40
-42
-55
-55
-59
-56
-33
-27
-30
-32
-33
-30
-30
-30
-35
-32
-33
-33
-31
-31
-31
-34
-33
-37
-32
-29
-30
-35
-26
-24
-25
-34
-37
-34
-29
-30
-26
-25
-24
-19
-15
-20
-20
-24
-13
-13
-16
-13
-5
-6
-13
-1
2
0
-4
0
8
16
14
11
16
19
24
22
26
29
29
36
24
22
25
31
32
35
38
43
36
38
34
30
31
28
25
26
28
32
27
15
12
25
25
17
7
-4
-9
-12
-6
-6
-4
-20
-22
-30
-37
-33
-42
-38
-28
-31
-38
-38
-29
-38
-33
-41
-39
-35
-40
-41
-43
-37
-32
-34
-41
-41
-44
-42
-44
-44
-54
-55
-46
-38
-47
-47
-47
-47
-47
-49
-48
-43
-40
-47
-45
-44
-50
-45
-50
-58
-42
-39
-39
-37
-31
-42
-49
-47
-44
-52
-50
-52
-53
-47
-49
-38
-46
-46
-40
-42
-44
-44
-47
-49
-56
-48
-41
-41
-43
-35
-30
-35
-39
-40
-42
-44
-42
-45
-48
-51
-42
-47
-48
-45
-46
-47
-45
-53
-52
-59
-57
-46
-45
-45
-42
-46
-49
-51
-47
-44
-43
-46
-52
-50
-45
-45
-48
-45
-48
-47
-42
-45
-44
-43
-55
-53
-52
-58
-56
-50
-46
-46
-52
-55
-60
-59
-51
-49
-53
-40
-39
-36
-39
-44
-48
-56
-56
-57
-54
-42
-47
-44
-45
-49
-49
-51
-38
-34
-37
-34
-53
-56
-52
-55
-48
-49
-48
-44
-35
-27
-21
-28
-32
-33
-32
-40
-36
-38
-40
-31
-26
-32
-43
-46
-47
-41
-37
-42
-43
-33
-25
-21
-41
-43
-38
-44
-47
-43
-50
-48
-51
-58
-50
-51
-47
-47
-48
-54
-51
-52
-51
-58
-53
-53
-58
-53
-46
-53
-54
-47
-51
-61
-57
-44
-44
-42
-46
-48
-39
-30
-18
-3
17
33
38
57
87
100
103
102
101
85
70
60
32
1
-5
-27
-50
-71
-96
-105
-102
-96
-91
-82
-68
-59
-52
-55
-56
-55
-42
-40
-40
-50
-58
-59
-55
-56
-57
-52
-47
-41
-37
-42
-35
-24
-30
-38
-41
-44
-44
-52
-44
-34
-37
-35
-38
-39
-40
-40
-39
-31
-36
-36
-36
-29
-30
-32
-33
-29
-42
-45
-45
-34
-38
-34
-23
-22
-26
-27
-28
-32
-31
-18
-11
-10
-5
-16
-11
0
3
-5
-14
-12
-9
-6
1
10
8
15
15
19
20
14
14
13
9
10
19
21
33
30
35
31
29
32
37
34
28
31
32
30
22
26
26
22
16
14
14
24
7
13
13
8
5
0
-9
-11
-11
-12
-18
-19
-21
-23
-32
-36
-37
-31
-23
-30
-30
-37
-42
-39
-36
-33
-39
-40
-40
-41
-40
-45
-49
-50
-49
-46
-39
-49
-61
-44
-32
-39
-38
-46
-43
-46
-54
-53
-56
-52
-44
-42
-45
-47
-46
-44
-41
-44
-53
-50
-43
-44
-45
-49
-46
-39
-38
-36
-45
-60
-58
-42
-46
-41
-36
-38
-44
-39
-34
-39
-46
-42
-48
-60
-49
-40
-45
-39
-35
-42
-46
-44
-39
-45
-46
-45
-40
-38
-39
-44
-44
-47
-45
-54
-52
-44
-46
-46
-48
-55
-46
-45
-48
-43
-44
-49
-44
-43
-50
-44
-38
-36
-37
-54
-52
-54
-57
-51
-47
-41
-47
-46
-47
-57
-58
-39
-36
-43
-45
-47
-50
-52
-54
-58
-53
-49
-55
-57
-44
-41
-45
-49
-50
-45
-52
-56
-54
-48
-38
-43
-43
-37
-33
-38
-45
-40
-37
-43
-48
-53
-41
-39
-28
-21
-18
-33
-26
-29
-32
-33
-33
-30
-33
-33
-32
-29
-29
-30
-35
-34
-47
-54
-43
-53
-64
-49
-44
-48
-49
-42
-35
-42
-43
-42
-43
-47
-60
-59
-59
-61
-64
-65
-53
-44
-45
-44
-44
-44
-50
-42
-45
-43
-45
-42
-48
-49
-53
-49
-44
-34
-37
-20
2
12
22
35
47
65
93
99
113
110
104
100
85
74
34
4
-16
-33
-51
-84
-115
-112
-103
-88
-77
-65
-55
-57
-54
-52
-39
-35
-34
-35
-39
-47
-43
-55
-52
-44
-45
-43
-51
-46
-47
-49
-55
-48
-45
-43
-37
-37
-40
-39
-39
-39
-35
-41
-43
-39
-32
-36
-39
-38
-39
-31
-24
-24
-32
-35
-20
-24
-22
-26
-30
-32
-35
-32
-26
-24
-20
-15
-15
-12
-18
-23
-18
-14
-16
-16
-11
-4
1
4
5
6
2
-2
7
4
8
12
1
7
17
20
30
25
30
34
26
27
34
30
29
24
27
38
33
41
42
32
36
29
30
33
27
24
29
22
21
20
28
19
9
-5
-2
-5
-7
-14
-12
-9
-4
-8
-17
-25
-26
-27
-21
-29
-27
-33
-31
-39
-43
-35
-36
-35
-32
-31
-34
-37
-39
-48
-49
-49
-38
-28
-31
-38
-37
-39
-45
-44
-48
-49
-50
-52
-48
-47
-47
-39
-30
-36
-36
-38
-46
-55
-50
-56
-42
-36
-30
-26
-35
-41
-42
-54
-45
-38
-35
-32
-36
-33
-32
-29
-41
-46
-44
-51
-44
-35
-31
-34
-51
-54
-57
-54
-26
-23
-31
-38
-44
-43
-39
-41
-44
-48
-38
-33
-36
-38
-36
-41
-45
-47
-42
-42
-39
-50
-56
-52
-32
-31
-36
-33
-40
-42
-47
-40
-43
-38
-40
-47
-46
-44
-49
-49
-46
-39
-41
-42
-37
-45
-55
-53
-46
-46
-50
-41
-34
-28
-35
-39
-52
-48
-44
-49
-49
-40
-42
-42
-47
-48
-37
-33
-40
-45
-46
-47
-42
-40
-42
-44
-43
-35
-34
-33
-30
-33
-33
-32
-26
-28
-29
-29
-25
-40
-42
-34
-31
-29
-33
-27
-25
-27
-37
-34
-18
-17
-9
-16
-25
-27
-36
-32
-35
-35
-34
-38
-39
-46
-44
-57
-54
-52
-57
-54
-44
-38
-42
-41
-31
-39
-44
-52
-47
-39
-45
-40
-40
-46
-38
-47
-53
-49
-42
-39
-32
-35
-32
-34
-28
-20
-18
2
11
30
52
69
86
108
117
121
128
121
109
100
81
48
19
7
-18
-45
-68
-96
-99
-85
-71
-57
-53
-52
-47
-57
-44
-39
-29
-29
-35
-42
-33
-40
-43
-42
-47
-41
-34
-29
-27
-30
-24
-29
-29
-31
-29
-37
-48
-40
-36
-30
-21
-27
-35
-27
-29
-34
-39
-33
-32
-27
-32
-28
-21
-23
-15
-12
-10
-7
-13
-14
-10
-16
-20
-20
-15
-20
-12
-13
-13
-7
-5
-8
-5
-5
-1
-2
-8
0
6
12
19
14
9
4
1
6
25
23
25
21
18
12
13
26
35
39
50
51
43
37
48
43
40
43
35
30
36
41
45
38
33
31
29
25
24
25
23
28
22
15
6
9
6
2
6
-15
-8
-4
-8
-11
-2
-8
-16
-16
-19
-25
-24
-27
-29
-31
-34
-37
-31
-31
-24
-31
-35
-29
-38
-39
-36
-43
-37
-39
-40
-41
-40
-43
-53
-44
-37
-46
-39
-38
-44
-52
-50
-49
-45
-38
-24
-29
-33
-36
-34
-32
-37
-36
-41
-44
-34
-40
-30
-36
-37
-42
-40
-38
-34
-30
-34
-34
-29
-36
-34
-33
-38
-37
-41
-34
-34
-37
-42
-48
-48
-44
-30
-28
-27
-22
-33
-34
-33
-31
-39
-35
-29
-31
-38
-45
-38
-28
-32
-36
-39
-43
-43
-37
-34
-43
-41
-43
-52
-49
-41
-39
-42
-46
-42
-38
-38
-38
-34
-34
-34
-36
-43
-51
-49
-40
-45
-40
-36
-34
-40
-47
-47
-49
-38
-36
-27
-35
-40
-41
-41
-39
-49
-53
-50
-43
-39
-39
-34
-41
-45
-39
-38
-39
-39
-33
-34
-33
-44
-41
-37
-33
-30
-33
-33
-32
-37
-32
-36
-45
-40
-39
-45
-39
-28
-27
-38
-40
-39
-40
-29
-20
-17
-20
-26
-20
-22
-26
-33
-31
-30
-25
-27
-34
-32
-33
-23
-15
-25
-32
-41
-46
-42
-35
-42
-40
-36
-44
-39
-45
-48
-45
-41
-28
-32
-36
-37
-43
-42
-43
-50
-50
-52
-56
-53
-35
-38
-38
-38
-39
-38
-42
-37
-33
-30
-17
3
17
25
38
51
61
89
103
109
112
111
96
94
86
63
21
-3
-23
-35
-52
-86
-100
-93
-78
-71
-62
-62
-58
-47
-43
-42
-42
-40
-32
-33
-34
-35
-40
-43
-42
-39
-35
-32
-38
-38
-41
-46
-39
-31
-35
-41
-32
-23
-24
-23
-28
-27
-28
-35
-34
-33
-33
-31
-32
-27
-18
-14
-15
-25
-19
-31
-27
-25
-26
-28
-24
-19
-17
-18
-25
-20
-21
-19
-18
-18
-19
-15
-18
-8
9
12
4
-2
2
-7
6
12
11
15
19
27
25
23
16
13
22
35
34
36
34
37
35
32
30
40
50
43
45
39
34
31
31
42
40
33
35
36
37
32
28
35
36
26
20
16
18
12
8
12
7
1
-3
-14
-15
-13
-11
-8
-16
-13
-12
-19
-23
-34
-33
-23
-33
-33
-28
-36
-39
-38
-33
-35
-35
-42
-19
-18
-31
-40
-45
-46
-41
-30
-18
-28
-25
-30
-31
-24
-21
-26
-44
-41
-37
-33
-28
-29
-32
-37
-34
-30
-30
-31
-28
-28
-34
-35
-36
-32
-32
-35
-32
-34
-28
-35
-46
-53
-45
-45
-41
-33
-32
-33
-28
-30
-25
-31
-30
-33
-28
-27
-29
-23
-21
-31
-35
-33
-36
-35
-28
-28
-31
-38
-29
-20
-29
-33
-30
-30
-35
-42
-35
-29
-35
-36
-30
-32
-34
-32
-35
-35
-45
-45
-36
-37
-36
-35
-40
-37
-37
-38
-30
-30
-31
-29
-30
-36
-40
-34
-39
-39
-31
-35
-38
-35
-32
-24
-32
-33
-36
-38
-37
-35
-35
-37
-31
-21
-33
-42
-38
-43
-39
-41
-44
-43
-34
-25
-26
-36
-38
-35
-32
-36
-35
-37
-35
-37
-33
-36
-40
-32
-31
-31
-37
-43
-38
-35
-40
-44
-43
-36
-31
-30
-30
-29
-23
-23
-22
-23
-21
-22
-18
-25
-28
-28
-27
-27
-15
-12
-9
-3
-5
-11
-16
-21
-21
-22
-24
-24
-15
-19
-21
-24
-14
-26
-35
-29
-33
-28
-35
-32
-33
-39
-34
-31
-28
-34
-38
-29
-30
-29
-26
-27
-37
-30
-25
-27
-36
-29
-34
-33
-33
-32
-40
-38
-27
-31
-32
-35
-35
-26
-28
-35
-29
-19
-11
5
21
37
39
53
75
101
119
121
119
123
107
104
94
62
32
16
-8
-24
-45
-76
-85
-82
-69
-61
-47
-36
-26
-31
-35
-30
-31
-34
-31
-28
-27
-23
-29
-29
-32
-29
-36
-42
-43
