-123
-130
-121
-122
-123
-128
-125
-123
-134
-125
-121
-125
-130
-125
-128
-135
-125
-118
-122
-122
-123
-120
-118
-117
-120
-134
-148
-129
-115
-117
-116
-124
-113
-118
-134
-145
-136
-124
-114
-117
-121
-122
-125
-132
-124
-131
-131
-118
-124
-136
-137
-135
-145
-134
-121
-123
-128
-131
-130
-117
-131
-122
-130
-138
-133
-145
-149
-138
-132
-114
-116
-126
-116
-127
-123
-123
-114
-127
-134
-129
-118
-121
-108
-123
-120
-120
-136
-116
-89
-99
-110
-116
-117
-113
-125
-115
-119
-129
-116
-119
-121
-133
-127
-123
-136
-139
-133
-144
-154
-128
-130
-141
-155
-144
-134
-124
-135
-133
-134
-138
-119
-141
-149
-139
-118
-128
-127
-135
-130
-130
-139
-141
-131
-125
-136
-145
-131
-117
-131
-132
-117
-125
-97
-58
-43
-26
-16
-10
4
2
-18
-19
-13
-21
-11
-47
-79
-107
-151
-201
-226
-204
-190
-176
-164
-167
-154
-153
-139
-126
-129
-131
-130
-121
-124
-132
-135
-118
-127
-133
-126
-152
-134
-102
-116
-126
-111
-117
-127
-153
-118
-131
-133
-111
-101
-109
-110
-117
-125
-122
-113
-115
-106
-107
-113
-118
-120
-115
-108
-105
-118
-120
-113
-121
-115
-98
-95
-109
-119
-87
-100
-104
-102
-105
-117
-107
-81
-87
-88
-98
-113
-92
-81
-84
-84
-84
-89
-88
-99
-77
-78
-91
-90
-81
-79
-79
-86
-73
-66
-76
-75
-73
-72
-77
-88
-73
-68
-72
-74
-56
-65
-67
-67
-74
-61
-66
-70
-79
-67
-72
-80
-71
-71
-72
-78
-86
-82
-82
-86
-90
-117
-84
-75
-87
-94
-89
-93
-99
-101
-113
-111
-114
-106
-95
-110
-114
-92
-92
-104
-104
-110
-109
-108
-117
-88
-91
-98
-96
-94
-96
-103
-105
-96
-101
-115
-111
-103
-87
-87
-81
-90
-88
-92
-100
-93
-104
-67
-73
-81
-84
-84
-81
-79
-85
-90
-81
-80
-81
-88
-95
-85
-97
-84
-78
-87
-78
-87
-88
-87
-88
-104
-125
-82
-75
-83
-70
-82
-81
-91
-80
-94
-103
-85
-81
-82
-90
-100
-91
-88
-92
-90
-85
-88
-90
-103
-97
-94
-93
-95
-95
-88
-100
-103
-102
-102
-105
-99
-92
-92
-94
-108
-131
-85
-87
-92
-84
-92
-95
-93
-92
-104
-102
-89
-90
-99
-85
-83
-89
-95
-96
-94
-75
-74
-89
-84
-85
-88
-96
-93
-100
-103
-116
-126
-93
-78
-87
-107
-96
-96
-100
-102
-107
-102
-104
-111
-112
-102
-107
-108
-119
-122
-97
-112
-113
-110
-112
-120
-107
-99
-101
-107
-115
-131
-134
-105
-98
-109
-103
-116
-113
-106
-109
-83
-83
-92
-87
-76
-70
-50
-25
-29
-32
-11
-20
-26
-40
-64
-48
-34
-61
-85
-105
-135
-170
-193
-187
-163
-163
-165
-148
-146
-131
-126
-127
-112
-114
-118
-106
-115
-115
-108
-98
-107
-104
-105
-115
-108
-106
-109
-106
-120
-101
-89
-106
-112
-111
-110
-95
-103
-105
-109
-106
-112
-111
-92
-106
-108
-109
-103
-111
-89
-93
-105
-103
-102
-95
-85
-97
-100
-90
-94
-97
-108
-101
-91
-89
-95
-92
-85
-99
-91
-83
-88
-89
-83
-85
-94
-88
-92
-104
-79
-84
-75
-66
-78
-77
-78
-72
-69
-79
-77
-69
-59
-68
-67
-64
-69
-62
-63
-65
-72
-74
-67
-63
-73
-66
-55
-67
-71
-64
-64
-73
-89
-85
-76
-66
-71
-77
-77
-77
-82
-92
-92
-91
-112
-82
-84
-89
-97
-100
-115
-99
-97
-106
-106
-101
-107
-112
-112
-110
-109
-114
-118
-112
-119
-124
-119
-122
-125
-107
-110
-118
-119
-104
-114
-129
-115
-106
-114
-117
-114
-120
-115
-119
-113
-115
-110
-113
-118
-125
-117
-114
-114
-116
-115
-115
-113
-111
-118
-118
-116
-121
-123
-121
-109
-103
-116
-108
-109
-123
-127
-119
-120
-119
-111
-118
-120
-105
-113
-106
-109
-119
-116
-110
-115
-110
-118
-114
-106
-112
-118
-114
-124
-123
-110
-117
-115
-112
-118
-114
-114
-113
-114
-115
-115
-120
-112
-114
-126
-117
-106
-106
-111
-112
-117
-118
-114
-117
-103
-116
-118
-103
-90
-100
-101
-94
-100
-99
-95
-97
-95
-101
-108
-126
-122
-97
-102
-106
-115
-114
-116
-122
-123
-125
-134
-119
-116
-120
-118
-118
-123
-120
-121
-119
-125
-124
-133
-121
-118
-124
-122
-126
-129
-129
-116
-114
-118
-121
-122
-125
-124
-123
-130
-128
-129
-135
-112
-110
-110
-104
-97
-86
-77
-65
-51
-40
-39
-31
-28
-44
-47
-46
-54
-65
-76
-92
-110
-133
-164
-201
-200
-187
-177
-174
-158
-147
-136
-138
-135
-124
-125
-125
-125
-125
-122
-125
-125
-128
-126
-122
-132
-128
-123
-113
-112
-121
-125
-111
-114
-122
-119
-117
-113
-116
-119
-111
-114
-121
-117
-121
-127
-119
-111
-122
-111
-119
-106
-107
-110
-111
-109
-107
-107
-114
-116
-102
-107
-114
-117
-101
-96
-98
-100
-99
-99
-100
-98
-101
-101
-100
-106
-112
-94
-82
-86
-88
-84
-83
-84
-87
-88
-84
-82
-76
-89
-77
-68
-78
-80
-81
-80
-66
-68
-67
-71
-72
-79
-79
-68
-74
-65
-66
-71
-69
-74
-74
-78
-77
-80
-81
-82
-84
-77
-80
-86
-92
-95
-86
-96
-95
-97
-98
-101
-103
-110
-114
-108
-119
-103
-109
-110
-114
-115
-116
-118
-112
-113
-116
-119
-128
-125
-126
-125
-113
-123
-101
-105
-111
-116
-123
-114
-117
-130
-115
-111
-116
-119
-122
-115
-110
-110
-115
-117
-127
-122
-111
-114
-114
-118
-119
-109
-111
-117
-117
-120
-113
-117
-108
-111
-122
-117
-113
-117
-109
-112
-127
-116
-113
-110
-102
-111
-110
-112
-110
-107
-106
-111
-113
-110
-111
-114
-119
-104
-110
-117
-110
-112
-107
-108
-111
-114
-114
-108
-104
-108
-114
-116
-116
-111
-117
-111
-111
-109
-116
-117
-102
-103
-106
-112
-114
-121
-110
-104
-114
-119
-105
-102
-99
-106
-104
-102
-105
-110
-106
-95
-102
-98
-98
-97
-94
-95
-91
-89
-93
-100
-99
-101
-100
-105
-103
-98
-104
-104
-107
-107
-113
-121
-115
-108
-108
-111
-119
-123
-123
-117
-98
-105
-110
-109
-114
-112
-110
-110
-117
-112
-112
-115
-116
-114
-118
-115
-114
-114
-104
-109
-115
-113
-112
-113
-108
-105
-109
-96
-92
-86
-67
-62
-48
-38
-33
-32
-19
-25
-32
-42
-54
-67
-68
-83
-100
-112
-132
-156
-175
-179
-177
-157
-145
-138
-127
-126
-115
-115
-127
-121
-105
-108
-110
-100
-108
-110
-116
-103
-96
-107
-98
-105
-100
-105
-101
-107
-99
-100
-101
-107
-103
-105
-99
-96
-104
-99
-96
-99
-99
-103
-92
-93
-99
-102
-103
-102
-116
-87
-90
-96
-102
-77
-84
-85
-85
-87
-85
-84
-84
-84
-84
-85
-87
-89
-90
-79
-76
-80
-82
-77
-74
-68
-73
-70
-70
-64
-71
-67
-65
-69
-70
-63
-61
-67
-71
-54
-42
-53
-54
-53
-51
-49
-46
-52
-58
-49
-59
-65
-46
-40
-49
-53
-55
-54
-63
-54
-57
-53
-46
-55
-60
-67
-70
-70
-69
-66
-72
-81
-84
-71
-78
-80
-83
-95
-86
-95
-80
-88
-90
-92
-88
-91
-93
-94
-106
-106
-92
-94
-110
-103
-89
-89
-92
-100
-99
-94
-107
-109
-88
-94
-90
-93
-103
-91
-94
-97
-98
-89
-95
-102
-100
-106
-104
-91
-94
-90
-98
-105
-99
-103
-96
-92
-96
-109
-104
-84
-90
-97
-97
-85
-95
-103
-88
-92
-92
-98
-90
-86
-95
-96
-99
-93
-85
-95
-99
-90
-86
-93
-103
-93
-83
-83
-86
-89
-94
-91
-103
-91
-84
-93
-106
-93
-81
-88
-90
-80
-82
-90
-81
-82
-92
-98
-98
-89
-90
-84
-85
-89
-96
-97
-89
-83
-83
-92
-99
-90
-94
-98
-113
-81
-73
-86
-87
-87
-88
-86
-91
-91
-90
-97
-84
-85
-84
-85
-81
-88
-87
-92
-99
-92
-83
-94
-93
-99
-103
-83
-76
-73
-80
-84
-81
-75
-77
-76
-75
-73
-73
-68
-77
-74
-73
-62
-76
-75
-85
-78
-66
-73
-73
-74
-78
-80
-83
-90
-89
-93
-87
-81
-82
-93
-95
-88
-83
-88
-93
-87
-87
-86
-88
-89
-84
-93
-90
-110
-109
-75
-82
-91
-90
-80
-82
-91
-101
-87
-83
-95
-94
-75
-75
-85
-86
-76
-61
-72
-58
-48
-36
-20
-7
-7
-7
7
15
12
7
-3
-7
-8
-25
-51
-74
-84
-121
-145
-149
-134
-119
-133
-137
-120
-101
-84
-83
-79
-69
-74
-78
-78
-76
-69
-74
-82
-76
-74
-72
-66
-70
-69
-71
-77
-64
-70
-74
-60
-64
-69
-81
-84
-60
-64
-55
-60
-64
-76
-70
-60
-63
-70
-54
-51
-55
-56
-58
-64
-61
-52
-50
-55
-55
-55
-56
-53
-54
-57
-62
-46
-52
-40
-50
-62
-48
-44
-45
-45
-42
-39
-39
-34
-39
-27
-35
-38
-36
-27
-29
-31
-31
-33
-31
-21
-19
-25
-20
-19
-20
-31
-30
-14
-30
-37
-10
-12
-7
-17
-16
-14
-14
-12
-15
-20
-38
-24
-15
-29
-37
-43
-10
-32
-27
-16
-31
-29
-31
-36
-38
-39
-47
-53
-51
-52
-45
-40
-48
-48
-41
-56
-53
-61
-46
-51
-62
-54
-54
-57
-67
-57
-58
-56
-49
-49
-52
-64
-64
-53
-64
-64
-52
-54
-65
-55
-58
-63
-62
-62
-45
-50
-53
-53
-64
-56
-62
-75
-79
-41
-39
-48
-53
-57
-53
-55
-66
-55
-52
-62
-52
-41
-50
-52
-52
-37
-42
-56
-66
-45
-39
-44
-55
-64
-50
-64
-71
-59
-30
-35
-40
-56
-43
-48
-56
-50
-46
-55
-54
-47
-38
-39
-37
-44
-59
-49
-43
-44
-41
-44
-50
-57
-64
-48
-51
-52
-64
-62
-46
-26
-35
-39
-46
-44
-50
-57
-52
-45
-51
-54
-58
-36
-36
-42
-50
-50
-43
-38
-45
-48
-49
-47
-45
-53
-46
-34
-36
-36
-36
-40
-48
-52
-58
-46
-8
-25
-35
-35
-40
-37
-31
-35
-46
-49
-37
-43
-42
-37
-48
-47
-61
-69
-34
-39
-54
-47
-48
-55
-56
-41
-48
-57
-54
-41
-52
-63
-45
-43
-47
-47
-63
-52
-58
-53
-49
-52
-52
-37
-48
-56
-62
-52
-39
-37
-40
-35
-41
-35
-28
-22
-19
-18
11
28
29
32
29
17
18
-1
-2
-14
-9
-36
-38
-49
-68
-94
-116
-117
-121
-101
-99
-83
-64
-57
-58
-56
-43
-47
-50
-43
-43
-45
-39
-46
-42
-43
-48
-27
-30
-38
-43
-36
-41
-34
-36
-41
-31
-42
-59
-34
-27
-27
-30
-27
-34
-36
-47
-25
-42
-14
-21
-34
-35
-29
-31
-25
-26
-26
-24
-28
-34
-45
-36
-21
-15
-14
-26
-16
-12
-19
-20
-18
-20
-21
-27
-32
-29
-7
-14
-12
-4
-14
-7
-18
-20
3
-7
-4
7
3
-6
-1
1
4
5
3
8
5
12
6
7
2
-1
-4
2
20
-1
7
1
10
15
3
2
2
1
-13
-1
11
-2
-8
-10
-13
-11
-24
-25
-12
-9
-22
-28
-16
-19
-30
-24
-26
-35
-26
-36
-40
-31
-48
-33
-31
-35
-39
-34
-32
-39
-37
-42
-43
-43
-43
-37
-39
-40
-37
-40
-40
-35
-35
-37
-46
-55
-47
-41
-28
-41
-31
-39
-38
-41
-38
-42
-44
-41
-42
-39
-46
-45
-53
-36
-57
-48
-33
-27
-38
-40
-37
-49
-46
-33
-35
-47
-43
-39
-31
-33
-41
-39
-40
-29
-34
-36
-34
-41
-51
-42
-45
-45
-42
-41
-43
-41
-49
-42
-26
-40
-35
-34
-45
-50
-31
-40
-34
-39
-49
-49
-52
-34
-35
-36
-42
-43
-40
-41
-49
-38
-38
-47
-38
-40
-48
-47
-44
-43
-46
-51
-56
-43
-45
-45
-45
-54
-48
-48
-39
-39
-40
-46
-35
-35
-43
-47
-49
-41
-38
-38
-39
-40
-25
-32
-31
-25
-31
-33
-34
-35
-39
-42
-38
-37
-43
-46
-49
-44
-39
-38
-40
-47
-49
-48
-53
-53
-53
-72
-53
-40
-63
-59
-48
-49
-51
-54
-55
-57
-53
-57
-58
-51
-56
-59
-47
-55
-64
-52
-71
-64
-35
-43
-50
-51
-51
-50
-47
-44
-35
-30
-37
-32
-9
7
17
23
25
33
19
14
11
1
-4
2
-14
-36
-45
-67
-100
-130
-124
-116
-105
-110
-98
-81
-76
-68
-63
-58
-52
-57
-56
-55
-59
-67
-56
-46
-51
-57
-54
-56
-61
-63
-53
-58
-74
-59
-47
-39
-47
-43
-47
-49
-51
-50
-56
-48
-50
-47
-50
-51
-44
-45
-45
-50
-36
-44
-52
-46
-37
-43
-45
-44
-47
-43
-48
-53
-47
-39
-41
-38
-39
-41
-35
-29
-41
-45
-35
-20
-30
-21
-27
-24
-22
-26
-25
-27
-29
-16
-20
-18
-17
-17
-13
-15
-13
-17
-14
-10
-9
-12
-11
-9
-14
-13
-9
-8
-16
-12
-16
-10
-6
-17
-16
-6
-11
-14
-19
-16
-21
-19
-17
-16
-20
-32
-31
-24
-29
-32
-34
-39
-45
-50
-42
-46
-48
-54
-43
-50
-58
-52
-46
-48
-49
-49
-55
-60
-58
-56
-56
-58
-59
-62
-60
-59
-69
-61
-60
-54
-60
-64
-59
-54
-57
-62
-66
-58
-53
-57
-66
-64
-55
-51
-56
-66
-64
-53
-53
-53
-60
-69
-59
-48
-53
-56
-66
-71
-62
-51
-52
-58
-50
-49
-52
-51
-53
-53
-54
-58
-63
-71
-54
-47
-60
-76
-64
-61
-42
-44
-51
-52
-55
-54
-63
-58
-56
-56
-57
-62
-62
-59
-56
-64
-62
-55
-68
-56
-52
-54
-66
-69
-66
-59
-64
-65
-59
-59
-61
-67
-52
-59
-58
-59
-59
-62
-62
-59
-57
-53
-58
-60
-71
-83
-75
-56
-55
-55
-58
-66
-62
-60
-59
-60
-70
-65
-62
-66
-71
-61
-62
-63
-71
-77
-54
-53
-65
-58
-62
-65
-75
-79
-59
-60
-61
-64
-64
-66
-60
-63
-60
-64
-64
-63
-64
-63
-60
-67
-67
-68
-64
-62
-62
-67
-64
-65
-64
-68
-59
-59
-46
-53
-59
-48
-54
-52
-52
-53
-50
-51
-58
-57
-52
-62
-58
-60
-66
-54
-61
-66
-62
-62
-66
-69
-67
-70
-69
-70
-71
-64
-69
-71
-67
-76
-71
-70
-64
-59
-66
-69
-73
-72
-76
-75
-73
-77
-64
-58
-66
-65
-70
-75
-71
-71
-53
-50
-52
-44
-46
-22
-10
-14
-6
7
22
20
15
2
-14
-29
-7
-4
-26
-51
-71
-98
-110
-115
-135
-119
-111
-94
-91
-84
-77
-73
-77
-75
-66
-72
-70
-73
-58
-62
-69
-63
-65
-65
-65
-66
-75
-71
-73
-74
-58
-65
-55
-51
-57
-66
-66
-53
-61
-59
-57
-55
-74
-76
-87
-43
-42
-51
-53
-57
-59
-59
-51
-49
-53
-55
-51
-53
-55
-49
-51
-53
-54
-43
-49
-49
-43
-43
-50
-57
-57
-40
-44
-44
-35
-44
-34
-30
-37
-36
-30
-33
-41
-27
-21
-33
-26
-19
-23
-22
-22
-19
-28
-18
-14
-16
-20
-21
-25
-18
-20
-9
-6
-15
-15
-30
-25
-13
-9
-11
-15
-12
-16
-21
-17
-15
-16
-26
-26
-28
-32
-33
-36
-37
-37
-41
-47
-55
-51
-32
-46
-53
-54
-45
-52
-53
-59
-62
-67
-55
-57
-66
-68
-67
-67
-56
-56
-58
-55
-58
-66
-59
-73
-65
-61
-59
-61
-61
-64
-66
-62
-66
-61
-65
-65
-62
-66
-68
-78
-55
-59
-58
-58
-66
-61
-63
-60
-64
-62
-57
-66
-68
-64
-67
-81
-75
-50
-59
-77
-72
-42
-57
-64
-65
-55
-55
-62
-65
-59
-57
-61
-61
-59
-58
-59
-58
-59
-61
-62
-57
-62
-60
-58
-62
-65
-70
-70
-60
-55
-53
-59
-60
-57
-53
-54
-56
-57
-63
-63
-60
-60
-61
-72
-60
-62
-73
-78
-57
-62
-46
-52
-56
-59
-62
-61
-57
-67
-66
-63
-70
-67
-49
-61
-62
-63
-67
-65
-54
-53
-62
-62
-64
-59
-61
-61
-61
-67
-65
-66
-59
-65
-72
-59
-63
-71
-65
-49
-62
-67
-72
-66
-60
-62
-68
-58
-62
-58
-61
-65
-68
-72
-76
-64
-65
-65
-58
-62
-59
-60
-67
-69
-62
-61
-64
-72
-69
-74
-77
-78
-53
-62
-63
-67
-69
-71
-68
-62
-65
-73
-66
-58
-65
-65
-65
-71
-79
-66
-70
-86
-58
-62
-59
-62
-68
-67
-62
-69
-64
-58
-64
-68
-74
-67
-48
-56
-58
-55
-61
-59
-55
-55
-55
-56
-56
-48
-57
-52
-64
-63
-53
-58
-66
-59
-64
-60
-60
-54
-64
-71
-57
-65
-63
-65
-74
-85
-83
-86
-54
-50
-65
-69
-67
-68
-72
-69
-72
-68
-65
-68
-68
-72
-72
-67
-75
-75
-59
-67
-66
-66
-76
-69
-49
-54
-45
-42
-32
-20
-15
-2
6
7
14
21
4
-6
-10
-14
-17
-34
-32
-49
-71
-99
-116
-135
-124
-122
-106
-105
-98
-102
-80
-71
-68
-69
-68
-69
-69
-71
-69
-66
-65
-70
-75
-65
-58
-68
-70
-62
-63
-56
-61
-73
-92
-69
-47
-46
-56
-54
-58
-58
-58
-60
-60
-64
-72
-63
-59
-65
-55
-51
-57
-61
-47
-54
-50
-53
-50
-53
-56
-48
-47
-51
-52
-49
-51
-54
-57
-52
-33
-48
-40
-32
-37
-37
-38
-41
-40
-36
-36
-33
-30
-29
-25
-24
-23
-30
-28
-30
-22
-16
-15
-17
-17
-15
-24
-13
-11
-15
-17
-15
-16
-27
-11
-18
-16
-6
-20
-17
-6
-13
-6
-5
-12
-21
-20
-27
-23
-20
-33
-20
-17
-26
-36
-30
-32
-41
-43
-39
-34
-44
-44
-49
-53
-53
-52
-54
-48
-58
-64
-63
-57
-50
-49
-57
-58
-55
-59
-62
-68
-64
-63
-59
-53
-54
-56
-58
-63
-70
-63
-64
-72
-68
-61
-52
-55
-55
-60
-66
-56
-59
-66
-62
-56
-56
-58
-58
-63
-55
-61
-58
-73
-68
-59
-58
-55
-57
-65
-59
-57
-63
-54
-54
-67
-64
-66
-59
-52
-53
-57
-71
-56
-53
-67
-63
-48
-63
-61
-46
-56
-55
-57
-57
-63
-63
-69
-59
-49
-53
-63
-53
-52
-55
-51
-53
-57
-57
-58
-58
-57
-68
-74
-70
-51
-45
-57
-57
-58
-58
-52
-57
-62
-59
-60
-57
-54
-57
-57
-56
-67
-64
-59
-64
-58
-61
-59
-67
-60
-57
-56
-56
-60
-58
-62
-59
-76
-82
-63
-57
-47
-55
-68
-48
-60
-53
-60
-60
-63
-65
-53
-54
-54
-57
-63
-68
-56
-54
-65
-76
-60
-55
-57
-61
-59
-60
-56
-64
-67
-67
-54
-53
-59
-65
-70
-60
-63
-70
-54
-53
-56
-64
-61
-58
-57
-57
-61
-59
-58
-66
-77
-62
-56
-53
-71
-64
-48
-54
-56
-62
-59
-59
-67
-72
-44
-51
-60
-63
-59
-56
-58
-57
-64
-53
-54
-59
-66
-81
-70
-61
-50
-53
-64
-39
-43
-44
-42
-46
-49
-47
-39
-40
-42
-51
-66
-55
-40
-50
-46
-45
-46
-45
-50
-52
-49
-50
-54
-53
-56
-59
-59
-67
-83
-72
-71
-45
-47
-55
-63
-54
-53
-63
-52
-57
-62
-61
-60
-59
-68
-73
-71
-49
-48
-59
-60
-57
-70
-57
-46
-55
-60
-49
-40
-36
-29
-25
-2
5
22
28
25
30
15
18
8
-7
-16
-15
-45
-43
-50
-80
-115
-129
-125
-115
-105
-100
-89
-81
-74
-65
-57
-59
-61
-60
-57
-54
-61
-55
-58
-57
-58
-68
-71
-63
-48
-45
-66
-57
-53
-43
-44
-48
-51
-49
-50
-52
-52
-47
-53
-49
-50
-47
-52
-43
-44
-42
-41
-47
-47
-43
-44
-47
-43
-46
-43
-44
-43
-36
-39
-42
-41
-44
-50
-45
-35
-42
-41
-26
-27
-28
-25
-31
-35
-33
-26
-26
-13
-18
-21
-23
-24
-24
-15
-16
-14
-12
-15
-13
-12
-17
-6
-10
-9
-5
-12
-7
0
-5
-3
0
-4
-5
-14
-6
-8
-7
-16
-4
3
-4
-8
-8
0
-10
-22
-14
-12
-14
-16
-12
-21
-24
-19
-28
-32
-37
-29
-42
-46
-44
-30
-33
-37
-38
-41
-43
-43
-51
-51
-48
-49
-43
-47
-55
-54
-62
-48
-40
-53
-54
-64
-52
-48
-63
-55
-35
-43
-46
-46
-50
-50
-50
-51
-61
-61
-44
-63
-37
-44
-45
-48
-45
-47
-50
-48
-48
-52
-55
-61
-55
-42
-45
-48
-46
-42
-48
-56
-61
-51
-37
-50
-63
-56
-45
-36
-35
-49
-45
-37
-45
-42
-37
-43
-46
-48
-48
-47
-41
-37
-47
-50
-43
-45
-39
-46
-50
-41
-53
-55
-39
-46
-48
-53
-51
-42
-55
-45
-45
-50
-41
-49
-41
-37
-42
-42
-42
-45
-44
-48
-45
-51
-54
-53
-43
-40
-41
-42
-45
-44
-46
-52
-47
-50
-49
-46
-44
-47
-41
-42
-44
-51
-65
-44
-28
-41
-42
-52
-43
-43
-45
-48
-40
-47
-39
-49
-44
-43
-46
-48
-61
-51
-49
-40
-33
-50
-42
-46
-43
-39
-46
-49
-40
-48
-55
-42
-44
-47
-44
-42
-48
-48
-45
-49
-30
-41
-44
-45
-55
-44
-43
-42
-47
-53
-54
-62
-31
-32
-43
-43
-58
-39
-44
-43
-38
-44
-45
-43
-52
-37
-41
-49
-35
-27
-34
-31
-41
-42
-36
-27
-32
-34
-27
-36
-38
-22
-26
-26
-35
-32
-35
-42
-49
-37
-22
-29
-28
-37
-33
-40
-41
-40
-44
-40
-36
-44
-48
-39
-53
-41
-48
-49
-40
-37
-55
-45
-35
-37
-45
-44
-45
-39
-41
-45
-51
-36
-40
-38
-36
-43
-36
-41
-33
-26
-23
-20
-15
-7
6
15
24
42
38
35
34
32
28
34
20
12
2
-4
-22
-51
-80
-109
-127
-116
-116
-98
-78
-68
-61
-58
-49
-41
-45
-41
-36
-34
-31
-34
-43
-36
-43
-36
-34
-34
-33
-40
-33
-29
-27
-34
-42
-47
-37
-32
-16
-20
-30
-25
-29
-37
-39
-28
-24
-21
-30
-29
-18
-23
-18
-29
-18
-15
-26
-14
-16
-14
-18
-20
-12
-26
-42
-25
-5
-4
-8
-10
-8
-13
-21
-5
-7
-4
-10
-9
-7
-6
-8
-4
-1
0
-1
5
8
7
6
8
2
-4
17
10
5
7
9
23
11
15
20
18
9
14
14
14
22
17
19
15
22
20
15
11
15
22
10
11
14
15
2
10
7
7
6
-1
-4
-6
-14
4
-10
-4
-8
-12
-9
-11
-23
-38
-17
-4
-13
-9
-27
-31
-17
-12
-22
-28
-32
-33
-17
-20
-24
-27
-29
-21
-18
-25
-29
-26
-17
-23
-23
-28
-29
-35
-31
-36
-25
-12
-15
-23
-23
-25
-20
-29
-43
-23
-26
-32
-25
-29
-36
-19
-15
-21
-10
-17
-18
-20
-18
-24
-23
-25
-19
-16
-19
-25
-31
-34
-17
-26
-20
-16
-21
-23
-21
-30
-30
-24
-29
-19
-23
-26
-12
-14
-28
-20
-14
-17
-14
-18
-22
-30
-17
-16
-18
-24
-20
-26
-17
-26
-20
-27
-35
-23
-21
-27
-22
-24
-21
-27
-28
-31
-25
-22
-27
-18
-31
-11
-18
-27
-29
-32
-26
-29
-30
-21
-27
-28
-32
-40
-29
-22
-24
-18
-18
-17
-21
-24
-27
-19
-27
-26
-27
-42
-28
0
-8
-22
-14
-9
-16
-13
-11
-8
-17
-16
-18
-20
-19
-9
-7
-26
-26
-10
-14
-20
-18
-16
-11
-23
-26
-19
-25
-32
-31
-29
-25
-30
-32
-30
-31
-37
-26
-34
-31
-47
-28
-20
-37
-29
-29
-27
-26
-30
-31
-34
-41
-41
-39
-26
-24
-25
-26
-28
-20
1
-7
-5
-8
4
13
28
50
50
44
52
44
45
39
24
17
15
15
-9
-24
-53
-80
-107
-104
-94
-88
-85
-80
-67
-45
-47
-43
-38
-37
-37
-34
-16
-24
-26
-32
-36
-29
-18
-20
-27
-25
-22
-23
-28
-22
-17
-22
-30
-24
-22
-17
-17
-21
-19
-16
-22
-22
-17
-22
-23
-20
-21
-16
-23
-9
-11
-20
-29
-19
-25
-25
-12
-11
-3
0
-7
-12
-12
-11
-5
-16
-14
-6
-7
5
-2
-5
-4
6
2
4
-3
-9
1
1
1
8
9
13
13
21
19
12
14
24
22
14
18
22
26
24
16
23
22
27
21
26
21
21
22
18
24
27
24
17
23
18
15
7
6
12
10
12
11
13
8
-9
1
13
1
-1
-6
-4
-7
-15
-8
-15
-17
-20
-17
-23
-25
-20
-26
-27
-18
-23
-26
-24
-26
-28
-36
-22
-23
-37
-27
-32
-39
-40
-21
-25
-29
-39
-25
-15
-23
-35
-36
-28
-30
-26
-25
-25
-28
-25
-23
-36
-27
-29
-25
-29
-38
-26
-25
-37
-25
-25
-30
-29
-19
-20
-22
-29
-30
-36
-34
-26
-37
-29
-22
-16
-16
-25
-29
-28
-28
-25
-19
-23
-26
-30
-33
-30
-26
-40
-31
-23
-20
-23
-25
-32
-34
-25
-29
-27
-35
-40
-40
-27
-28
-25
-34
-33
-28
-33
-43
-40
-31
-30
-30
-24
-26
-27
-26
-32
-37
-31
-37
-32
-30
-32
-33
-33
-32
-33
-39
-44
-36
-29
-29
-27
-36
-35
-33
-39
-36
-29
-44
-37
-29
-44
-52
-39
-14
-29
-29
-20
-23
-32
-30
-28
-34
-24
-21
-20
-23
-25
-23
-25
-19
-15
-20
-26
-22
-28
-27
-25
-21
-21
-23
-30
-34
-40
-23
-30
-34
-35
-34
-29
-43
-42
-50
-32
-31
-35
-48
-50
-34
-37
-32
-33
-32
-43
-43
-35
-36
-34
-37
-39
-41
-49
-39
-37
-37
-38
-41
-34
-38
-46
-21
-22
-19
-10
-15
-4
18
26
41
39
39
50
63
47
34
19
21
30
11
-12
-27
-56
-89
-106
-109
-99
-82
-76
-69
-67
-51
-55
-56
-44
-39
-39
-36
-38
-38
-37
-34
-36
-34
-33
-37
-34
-32
-35
-33
-34
-28
-32
-31
-37
-34
-30
-32
-33
-31
-27
-32
-33
-30
-31
-32
-37
-42
-27
-20
-33
-28
-35
-18
-18
-35
-30
-18
-14
-18
-21
-23
-26
-25
-19
-11
-16
-16
-11
-10
-20
-18
-14
-18
-24
-11
1
-6
-1
2
5
-7
0
5
4
3
6
5
5
1
-1
11
-4
1
25
19
11
22
21
21
20
20
18
14
15
11
18
8
9
30
29
27
19
19
8
14
17
12
10
9
3
4
-1
3
-1
-4
-8
-8
-13
-19
-25
-6
-15
-25
-29
-34
-36
-10
-11
-13
-18
-23
-23
-37
-64
-33
0
-16
-22
-24
-22
-29
-31
-22
-30
-31
-28
-29
-39
-26
-21
-29
-26
-30
-31
-27
-29
-34
-26
-31
-32
-30
-30
-35
-33
-28
-25
-31
-39
-36
-27
-33
-28
-22
-37
-40
-39
-17
-15
-21
-30
-38
-19
-17
-27
-30
-24
-21
-27
-21
-25
-29
-30
-34
-34
-38
-12
-19
-23
-25
-24
-25
-18
-23
-24
-25
-30
-24
-23
-27
-25
-24
-30
-25
-29
-35
-37
-33
-19
-27
-24
-28
-40
-24
-24
-33
-28
-16
-27
-25
-25
-29
-36
-41
-34
-23
-24
-26
-31
-33
-28
-40
-37
-18
-28
-19
-29
-28
-31
-36
-37
-35
-37
-28
-37
-33
-42
-23
-28
-35
-38
-32
-30
-29
-32
-26
-33
-24
-29
-33
-30
-27
-30
-25
-22
-28
-31
-30
-13
-19
-29
-12
-9
-19
-26
-26
-19
-21
-25
-22
-29
-21
-20
-28
-36
-25
-29
-29
-27
-30
-32
-31
-32
-34
-41
-41
-35
-37
-35
-41
-46
-45
-63
-56
-30
-27
-31
-21
-34
-36
-45
-46
-47
-39
-34
-32
-35
-45
-44
-40
-34
-36
-31
-25
-22
-15
-14
-6
6
21
26
37
34
52
60
50
40
35
28
23
13
-10
-29
-42
-68
-99
-105
-90
-86
-86
-69
-67
-55
-50
-47
-48
-43
-43
-44
-47
-40
-29
-34
-41
-43
-35
-39
-32
-32
-25
-30
-38
-36
-41
-35
-31
-31
-34
-32
-33
-37
-30
-29
-32
-35
-44
-41
-32
-42
-27
-27
-28
-29
-29
-27
-24
-28
-28
-35
-26
-23
-32
-24
-24
-21
-13
-15
-19
-18
-16
-17
-19
-18
-23
-25
-13
-15
-22
-13
-6
-2
1
-3
-5
-3
-1
-3
2
4
-6
3
4
6
5
3
2
4
2
15
22
13
17
9
17
21
17
15
13
11
11
13
11
2
9
1
15
14
7
3
10
6
3
-3
-5
-9
-7
-14
-5
-10
-15
-17
-20
-25
-26
-29
-28
-37
-44
-30
-25
-29
-37
-39
-43
-43
-41
-37
-32
-44
-40
-36
-33
-35
-39
-40
-39
-46
-40
-41
-43
-42
-46
-39
-40
-46
-30
-33
-40
-40
-36
-40
-48
-50
-37
-37
-42
-41
-47
-45
-41
-29
-38
-39
-39
-38
-42
-43
-33
-36
-38
-31
-39
-31
-31
-32
-33
-40
-51
-43
-32
-28
-35
-39
-37
-29
-34
-40
-32
-37
-35
-31
-34
-34
-34
-44
-40
-27
-33
-33
-37
-36
-38
-36
-28
-36
-41
-29
-28
-35
-49
-43
-28
-32
-42
-41
-30
-28
-38
-35
-32
-30
-35
-38
-36
-31
-36
-44
-43
-52
-36
-31
-37
-36
-40
-35
-34
-30
-36
-33
-47
-37
-34
-42
-43
-44
-36
-43
-34
-27
-36
-40
-38
-25
-32
-35
-33
-32
-33
-26
-36
-39
-17
-30
-22
-16
-16
-21
-26
-21
-18
-22
-25
-24
-31
-41
-32
-22
-34
-38
-37
-26
-42
-44
-39
-31
-39
-38
-41
-49
-46
-41
-38
-36
-41
-39
-36
-37
-39
-43
-44
-41
-49
-55
-46
-33
-38
-43
-26
-36
-46
-46
-39
-39
-49
-40
-38
-44
-35
-22
-16
-6
-3
10
33
48
48
51
64
54
50
47
44
40
36
14
-7
-25
-50
-79
-104
-104
-94
-80
-72
-60
-51
-48
-49
-43
-40
-38
-35
-33
-31
-29
-34
-45
-50
-32
-21
-25
-29
-33
-46
-27
-21
-19
-20
-26
-28
-28
-33
-30
-18
-19
-23
-26
-21
-26
-25
-24
-19
-21
-23
-17
-20
-22
-20
-22
-21
-20
-10
-18
-22
-21
-15
-12
-11
-20
-12
-15
-11
-9
-9
-19
-21
-39
-11
1
2
-5
-4
4
11
3
1
3
-1
9
15
10
9
12
15
13
17
14
9
13
23
14
21
21
6
11
16
28
30
27
24
21
28
26
25
21
17
21
27
19
18
23
23
21
18
7
8
4
-1
-5
0
6
4
1
-3
-7
-12
-6
-16
-13
-9
-24
-27
-4
-23
-17
-24
-24
-20
-29
-16
-19
-23
-19
-21
-14
-17
-19
-21
-21
-27
-26
-21
-29
-26
-23
-24
-23
-26
-27
-26
-24
-25
-32
-12
-19
-34
-29
-25
-26
-20
-17
-21
-18
-15
-19
-30
-26
-15
-11
-16
-22
-17
-13
-16
-17
-22
-18
-21
-14
-25
-23
-18
-11
-18
-16
-9
-17
-29
-22
-16
-30
-27
-3
-6
-13
-13
-13
-15
-20
-16
-7
-16
-24
-30
-9
-12
-17
-18
-9
-6
-15
-17
-16
-12
-6
-18
-21
-17
-18
-13
-16
-19
-24
-16
-9
-12
-20
-19
-6
-11
-15
-18
-21
-15
-22
-16
-12
2
0
3
-1
1
-6
-16
-12
9
7
-1
-1
1
0
3
2
-5
0
-1
-8
-17
-14
-4
-7
-17
-14
-15
-31
-13
-4
-11
-14
-16
-22
-26
-16
-18
-22
-16
-20
-32
-27
-17
-16
-11
-15
-16
-18
-20
-20
-22
-25
-33
-19
-13
-17
-20
-13
-7
5
-13
-9
-3
2
25
41
49
61
65
69
68
61
59
61
55
46
41
29
6
-9
-47
-84
-99
-101
-96
-75
-66
-63
-50
-35
-26
-25
-23
-19
-16
-21
-24
-16
-17
-15
-21
-23
-9
-11
-20
-13
-3
-4
-14
-18
-21
-15
-3
-9
-20
-3
-14
-17
-16
-8
1
-5
-10
-13
-10
2
-4
-12
-5
-8
-12
-14
0
4
-7
-2
3
0
2
2
-9
-14
-2
3
3
10
13
10
9
6
9
12
11
12
21
17
5
7
10
8
28
28
20
18
17
25
27
24
18
27
34
33
35
33
29
28
32
30
26
30
32
46
43
39
38
36
41
41
31
25
23
27
25
11
25
47
25
24
27
20
18
14
8
7
6
10
-4
-5
-1
2
-4
-7
-11
-10
-9
-5
-21
-21
-14
-15
-12
-22
-13
-17
-13
-9
-8
-10
-13
-8
-15
-26
-30
-20
-26
-15
-10
-17
-23
-23
-10
-15
-20
-19
-20
-21
-22
-20
-25
-17
-17
-25
-16
-15
-20
-19
-19
-22
-16
-20
-23
-21
-10
-23
-14
-13
-14
-16
-16
-26
-21
-13
-9
-25
-8
-10
-14
-14
-15
-18
-21
-17
-16
-17
-20
-21
-26
-17
-27
-9
-20
-26
-28
-25
-31
-19
-19
-27
-16
-16
-28
-24
-24
-10
-23
-32
-17
-18
-28
-33
-32
-14
-19
-19
-20
-21
-27
-19
-22
-19
-28
-28
-32
-23
-15
-16
-18
-26
-28
-26
-26
-36
-14
-21
-18
-9
-12
-14
-16
-23
-15
-8
-11
-11
-14
-19
-2
-7
-22
-4
-7
-9
-15
-16
-14
-13
-21
-30
-39
-24
-22
-22
-20
-23
-22
-34
-27
-29
-36
-22
-25
-33
-30
-28
-23
-25
-27
-31
-28
-30
-30
-32
-27
-28
-27
-36
-35
-36
-55
-34
-28
-2
-15
-17
-12
-8
-8
-3
7
20
34
58
66
64
73
66
64
54
50
44
29
18
2
-26
-57
-86
-100
-99
-89
-75
-66
-73
-55
-31
-35
-38
-35
-32
-35
-40
-39
-21
-18
-16
-24
-38
-24
-19
-21
-20
-21
-23
-25
-29
-31
-25
-27
-19
-16
-18
-22
-28
-23
-19
-17
-13
-17
-23
-22
-18
-18
-22
-15
-19
-24
-25
-18
-1
-18
-17
-8
-13
-15
-22
-5
-2
-5
0
-3
-10
-13
-7
-9
-5
-9
-6
-8
-1
-9
6
6
7
8
2
8
6
11
14
11
11
13
9
7
22
20
18
23
17
15
23
20
20
21
28
30
9
15
33
21
23
32
25
24
23
10
26
14
20
22
18
11
12
5
8
8
4
-1
-4
-11
-11
-13
-22
-14
-15
-16
-12
-17
-14
-22
-23
-23
-28
-31
-26
-26
-18
-14
-25
-23
-31
-27
-26
-22
-25
-32
-24
-26
-30
-33
-33
-33
-33
-32
-22
-30
-34
-26
-32
-40
-35
-14
-29
-27
-26
-30
-28
-27
-36
-43
-51
-25
-8
-22
-26
-29
-31
-31
-31
-34
-29
-20
-28
-23
-27
-26
-31
-29
-29
-23
-24
-27
-25
-26
-22
-31
-30
-38
-25
-19
-26
-22
-27
-22
-29
-32
-24
-23
-25
-26
-33
-29
-32
-36
-27
-33
-24
-24
-27
-37
-36
-33
-29
-19
-23
-23
-33
-26
-23
-28
-29
-33
-34
-37
-24
-22
-29
-31
-35
-43
-33
-27
-27
-28
-30
-31
-26
-30
-29
-28
-29
-26
-28
-30
-30
-26
-35
-34
-32
-27
-18
-11
-22
-22
-24
-14
-3
-12
-17
-14
-23
-26
-38
-12
-10
-24
-20
-22
-23
-29
-37
-31
-26
-33
-43
-33
-36
-39
-39
-46
-33
-31
-35
-36
-38
-42
-36
-38
-42
-52
-42
-34
-39
-25
-42
-42
-33
-37
-41
-48
-42
-39
-45
-45
-39
-36
-27
-17
-27
-19
-15
-2
15
20
32
46
53
50
54
51
43
39
28
5
-18
-19
-29
-50
-94
-111
-103
-94
-85
-73
-75
-64
-56
-50
-44
-43
-50
-47
-42
-36
-44
-50
-49
-38
-38
-38
-38
-40
-47
-45
-40
-33
-34
-34
-43
-46
-42
-35
-36
-43
-46
-39
-34
-38
-51
-44
-44
-55
-30
-21
-25
-30
-30
-32
-38
-30
-29
-34
-31
-32
-42
-40
-27
-26
-32
-37
-35
-25
-20
-23
-25
-25
-28
-26
-35
-26
-16
-24
-19
-25
-24
-17
-1
-16
-9
-9
-4
-14
-12
-10
-1
-3
-10
-5
-1
0
0
-2
-5
-2
-3
-12
5
7
-2
2
4
2
-4
4
1
-4
-1
5
-1
-3
-16
-17
-10
-9
-13
-11
-16
-21
-20
-23
-26
-31
-34
-27
-30
-31
-36
-39
-42
-45
-53
-39
-30
-41
-46
-41
-45
-46
-50
-49
-56
-54
-49
-51
-44
-47
-48
-48
-55
-47
-43
-48
-43
-50
-55
-50
-53
-49
-49
-49
-54
-54
-65
-59
-41
-46
-52
-43
-42
-48
-44
-42
-45
-48
-47
-45
-48
-57
-62
-52
-48
-50
-40
-42
-49
-50
-45
-48
-42
-47
-57
-56
-37
-41
-41
-43
-47
-37
-40
-44
-45
-46
-56
-50
-45
-46
-49
-49
-40
-45
-45
-50
-54
-58
-38
-37
-38
-40
-48
-56
-43
-43
-43
-46
-49
-49
-44
-45
-43
-49
-43
-42
-50
-49
-45
-45
-43
-48
-55
-50
-38
-44
-49
-50
-49
-48
-48
-42
-44
-50
-53
-42
-47
-47
-50
-50
-58
-46
-44
-54
-50
-46
-50
-43
-45
-58
-67
-51
-46
-31
-38
-38
-34
-40
-35
-35
-31
-26
-32
-33
-35
-29
-29
-33
-39
-41
-34
-35
-36
-40
-36
-31
-48
-52
-52
-46
-40
-47
-53
-54
-58
-64
-53
-46
-57
-56
-53
-57
-52
-55
-56
-72
-74
-53
-66
-49
-48
-57
-57
-52
-56
-54
-54
-55
-63
-57
-50
-55
-59
-64
-60
-50
-45
-22
-30
-24
-6
9
22
29
31
38
43
18
26
43
35
15
-4
-16
-31
-63
-97
-116
-122
-109
-102
-96
-89
-70
-62
-50
-56
-46
-51
-48
-47
-43
-45
-46
-53
-49
-45
-48
-51
-54
-54
-44
-35
-42
-43
-39
-47
-51
-36
-41
-45
-48
-44
-36
-39
-35
-48
-44
-37
-44
-35
-29
-30
-33
-27
-25
-29
-34
-38
-39
-39
-32
-22
-32
-22
-27
-23
-24
-33
-32
-29
-22
-15
-20
-14
-19
-31
-22
-2
-10
-10
-13
-13
-8
-6
-7
-1
-1
3
3
-1
6
2
-6
-7
-3
16
-1
12
15
14
13
11
10
14
15
13
18
21
17
19
18
10
6
15
18
5
7
23
14
2
-4
2
-2
-5
-18
-2
-3
-4
-12
-8
-9
-10
-17
-21
-29
-21
-24
-32
-33
-42
-35
-24
-36
-45
-31
-29
-32
-31
-36
-40
-37
-32
-43
-37
-37
-40
-41
-35
-39
-48
-40
-32
-35
-36
-38
-43
-41
-38
-49
-31
-27
-40
-35
-39
-35
-43
-40
-37
-31
-36
-34
-32
-29
-36
-34
-35
-38
-43
-35
-32
-46
-60
-27
-20
-34
-34
-31
-30
-30
-26
-34
-35
-37
-39
-35
-31
-38
-36
-40
-33
-28
-36
-32
-30
-28
-29
-41
-36
-36
-36
-26
-27
-38
-39
-30
-35
-36
-36
-35
-30
-32
-33
-39
-36
-33
-35
-36
-37
-35
-34
-28
-37
-41
-46
-43
-38
-33
-29
-39
-26
-35
-34
-28
-32
-33
-36
-35
-32
-34
-36
-35
-34
-43
-42
-37
-37
-44
-33
-28
-30
-32
-34
-36
-31
-32
-33
-33
-32
-40
-47
-42
-32
-39
-43
-40
-27
-30
-31
-27
-29
-33
-31
-29
-21
-21
-18
-20
-26
-31
-31
-24
-15
-18
-17
-15
-24
-26
-22
-29
-32
-32
-28
-30
-30
-34
-31
-44
-39
-35
-33
-42
-35
-38
-36
-38
-39
-46
-45
-34
-40
-56
-51
-51
-36
-24
-35
-37
-36
-31
-36
-37
-39
-50
-51
-37
-36
-32
-39
-36
-36
-30
-27
-20
-16
-18
-21
0
20
37
54
51
52
77
68
64
56
45
43
28
-4
-18
-41
-81
-104
-97
-89
-83
-78
-69
-64
-48
-31
-40
-42
-29
-39
-39
-38
-28
-23
-29
-25
-32
-30
-27
-28
-36
-32
-26
-21
-22
-24
-22
-29
-37
-19
-19
-26
-24
-16
-28
-19
-22
-15
-19
-19
-11
-15
-18
-21
-17
-5
-13
-19
-6
-4
-3
-4
-9
-10
-9
5
-6
-1
4
-4
-11
-6
0
3
5
3
5
11
14
15
9
8
17
19
6
21
18
18
9
21
30
30
31
29
25
25
35
28
27
24
31
38
37
29
42
33
26
38
32
34
46
48
41
45
46
40
40
40
41
30
21
28
39
17
40
34
29
25
14
18
23
12
-4
8
12
15
10
9
10
7
8
5
-5
-4
-1
-7
-10
-2
8
-4
-7
-7
-5
-2
-7
-1
-13
-13
-5
-3
0
2
-7
-5
-2
-7
-5
-7
-5
-11
-6
-4
-5
-5
-18
-11
9
2
1
7
-4
3
3
-2
-4
-2
-2
13
4
-2
-1
-3
-4
6
10
4
0
3
1
-1
-8
3
5
-1
-7
-1
8
11
5
1
7
5
-2
-4
-5
8
11
0
2
-1
-5
7
1
5
5
4
-5
-9
-3
5
-2
-3
-13
-7
10
5
2
5
-2
-1
8
7
-3
0
-10
-6
-4
-26
6
20
10
6
-3
-3
6
1
6
9
5
0
-3
-8
-8
-9
10
12
11
5
5
9
4
9
-1
4
15
-4
13
14
27
21
12
25
23
11
15
13
18
17
11
11
2
11
8
11
8
8
8
4
-4
-7
-5
-2
6
-1
2
5
2
6
-2
-4
0
4
5
-2
-9
6
12
-6
-7
1
1
0
-5
-4
-6
4
7
7
8
-2
1
12
24
19
15
23
34
53
69
99
98
104
111
105
97
85
81
84
73
41
28
4
-43
-69
-74
-73
-64
-62
-62
-41
-11
-8
-1
-1
-1
-8
6
9
13
11
12
9
5
9
3
0
16
19
12
14
5
7
21
2
14
20
21
16
15
25
25
16
15
13
16
19
19
9
31
32
19
19
31
32
26
25
25
28
24
26
19
34
34
36
29
26
24
35
37
41
31
38
49
37
37
42
42
39
47
46
47
45
53
54
47
59
58
57
53
54
59
56
62
57
56
63
70
67
56
53
67
73
70
61
66
68
67
62
57
79
67
56
63
64
74
69
54
56
64
57
59
49
51
46
45
49
50
43
41
32
36
39
45
39
40
29
28
34
36
27
20
22
25
23
33
31
21
18
16
22
27
18
14
19
15
24
37
27
24
19
28
20
21
26
25
25
19
24
29
17
20
31
28
30
22
25
23
29
26
19
26
26
35
28
25
29
26
29
25
18
6
13
37
35
32
21
39
30
26
38
32
28
24
21
33
29
26
15
34
24
21
33
32
29
27
23
28
29
27
24
16
16
30
31
17
21
33
28
29
25
26
27
23
13
24
37
22
13
21
42
37
36
34
28
37
32
31
38
42
40
34
39
41
33
40
41
42
36
39
36
23
30
41
28
24
31
33
25
21
17
22
27
19
23
21
17
14
15
17
21
23
27
28
18
23
22
24
22
22
19
17
14
14
21
19
19
23
16
10
20
20
9
5
30
39
32
28
44
54
64
74
91
104
104
114
115
105
97
92
96
85
79
66
42
13
-18
-52
-61
-60
-53
-43
-29
-23
-4
3
-1
2
12
10
13
24
30
24
23
16
18
17
16
22
32
32
21
20
21
19
26
33
31
29
27
21
24
26
26
23
26
24
37
36
33
28
29
30
34
37
25
27
19
31
31
45
37
38
42
34
42
44
36
40
44
47
43
42
38
37
37
41
50
50
47
47
45
55
51
49
60
60
56
59
48
67
54
57
52
57
58
81
70
69
67
72
67
64
72
72
70
66
66
64
63
46
52
81
85
71
64
67
64
64
61
60
57
56
52
47
40
39
41
41
38
42
32
39
40
35
36
29
28
18
22
13
14
21
10
15
33
27
19
32
27
23
20
19
12
4
11
25
19
15
22
20
16
22
22
19
18
14
20
16
17
15
12
15
17
17
21
18
8
-1
28
30
21
21
22
19
19
15
20
30
22
19
17
18
15
21
19
23
23
12
20
15
15
27
24
20
20
20
21
20
17
19
21
15
17
15
18
16
26
20
17
19
13
10
24
19
14
17
3
12
13
23
18
9
17
23
24
20
20
20
18
16
18
12
19
16
15
18
15
16
20
15
18
15
16
18
34
29
29
30
26
26
25
18
16
32
24
22
35
23
21
23
21
14
10
20
15
21
16
12
15
9
2
10
7
10
-4
9
12
4
-6
8
12
5
3
17
13
11
9
9
7
11
6
2
5
8
2
5
3
-5
4
23
20
30
31
32
43
58
65
85
94
97
110
115
104
95
93
81
67
43
44
19
-15
-54
-62
-57
-49
-42
-32
-24
-19
-16
-4
0
6
4
2
4
-6
11
11
7
8
20
10
8
6
9
4
-5
0
6
3
16
14
9
17
15
13
15
6
10
16
9
16
20
9
7
21
14
10
21
19
20
18
18
20
19
22
18
29
25
20
20
22
29
23
17
28
27
29
30
36
33
28
35
27
35
33
36
42
36
34
45
42
41
44
45
46
47
48
46
54
46
56
56
51
57
62
60
55
50
49
61
63
58
56
53
58
57
53
53
51
39
45
55
47
49
43
30
33
46
36
27
27
35
37
30
23
24
27
12
14
18
19
19
5
10
16
18
13
7
11
5
8
4
7
7
5
3
0
3
1
-6
-13
5
9
12
11
9
5
-5
2
11
7
8
7
7
5
4
10
4
2
4
-2
3
6
3
8
0
-4
1
4
15
9
8
11
1
-10
0
14
16
8
13
18
5
6
17
10
5
13
6
8
8
6
12
8
1
3
4
9
3
10
17
1
10
4
6
5
3
-6
-2
8
3
2
13
8
5
2
7
0
6
1
-7
2
3
-3
-13
-1
17
4
2
-5
-2
8
4
4
2
1
3
-3
-7
-2
-6
-3
-1
13
12
22
13
8
10
13
8
22
14
7
14
6
10
11
7
8
3
-2
2
10
2
-4
-8
-15
-2
-6
-8
-6
-12
-5
-10
-9
-5
-16
-15
-11
-14
-13
-17
-10
-8
-2
-11
-8
-9
-14
-7
-14
-12
-7
-9
-12
-13
-23
-10
-10
-9
-2
10
6
9
21
30
45
60
74
74
79
85
82
72
74
62
50
33
19
-2
-23
-43
-68
-82
-76
-69
-58
-50
-34
-23
-21
-14
-20
-20
-17
-17
-11
-9
-13
-19
-10
-14
-12
-13
-17
-13
-11
-11
-25
-16
-1
-14
-12
-5
-3
-9
-12
-9
-7
-4
-10
-7
-13
-6
-2
-10
-8
-10
-16
-10
-10
7
5
4
-9
2
-2
-4
4
3
-1
-1
2
6
1
2
-2
7
14
6
3
12
8
3
23
22
18
16
18
11
21
24
20
24
25
31
24
25
28
27
29
26
27
21
33
26
26
43
43
45
47
38
39
39
34
36
34
24
37
44
25
33
32
35
33
32
25
26
24
16
24
20
15
5
6
15
7
0
-2
-8
-7
-3
-3
-5
-1
-1
-5
-12
-11
-14
-30
-15
-3
-15
-23
-6
-19
-16
-13
-5
-13
-18
-16
-14
-13
-18
-18
-19
-9
-21
-24
-16
-14
-10
-19
-20
-18
-13
-14
-21
-25
-22
-16
-14
-18
-20
-21
-10
-18
-8
-19
-19
-25
-23
-5
-17
-19
-16
-14
-17
-30
-20
-6
-15
-23
-19
-13
-10
-15
-12
-16
-18
-13
-14
-23
-21
-4
-16
-21
-14
-15
-15
-19
-15
-15
-14
-21
-12
-17
-18
-14
-15
-13
-16
-26
-18
-15
-22
-23
-20
-20
-20
-31
-17
-13
-10
-15
-18
-19
-17
-19
-18
-22
-31
-18
-11
-19
-34
-32
-22
-10
-11
-14
-21
-20
-17
-17
-13
-21
-23
-22
-18
-9
-11
-6
-16
-18
-4
-10
-17
-3
10
0
-7
-10
-2
-9
-22
-24
-8
-6
-2
-14
-14
-13
-13
-18
-25
-29
-26
-28
-33
-28
-24
-23
-20
-27
-26
-25
-36
-24
-22
-28
-24
-28
-27
-32
-33
-38
-36
-34
-29
-26
-17
-25
-28
-34
-30
-22
-21
-25
-22
-17
-13
-17
-8
-5
6
36
41
49
64
60
62
58
56
56
57
43
29
5
-26
-28
-65
-91
-96
-89
-77
-72
-62
-42
-43
-43
-30
-32
-34
-28
-24
-25
-26
-25
-28
-24
-25
-24
-29
-36
-34
-19
-18
-24
-25
-15
-21
-21
-28
-23
-20
-31
-19
-24
-28
-20
-13
-18
-11
-15
-9
-15
-15
-8
-12
-13
-19
-16
-12
-13
-12
-10
-16
-14
-15
-14
-5
-10
-10
-10
-8
-2
-2
-2
3
2
-1
-7
-9
1
9
9
-4
10
21
8
5
16
16
14
15
16
15
20
14
24
17
18
20
17
32
34
30
28
20
28
35
36
22
14
32
37
29
36
32
30
22
22
21
27
24
21
6
9
23
16
9
6
5
-1
-2
4
-10
-12
2
-2
-14
-19
-21
-12
-8
-21
-20
-16
-19
-17
-18
-17
-22
-24
-28
-21
-19
-19
-28
-21
-22
-27
-30
-24
-36
-20
-19
-22
-15
-32
-37
-27
-23
-17
-18
-24
-24
-25
-24
-24
-25
-19
-20
-30
-33
-25
-19
-15
-23
-19
-20
-28
-30
-23
-27
-17
-25
-13
-30
-26
-17
-18
-20
-23
-25
-14
-12
-18
-18
-19
-25
-23
-18
-19
-24
-27
-12
-17
-21
-17
-21
-22
-21
-19
-20
-30
-20
-19
-25
-27
-29
-21
-14
-13
-16
-20
-20
-18
-21
-21
-28
-29
-22
-24
-21
-18
-16
-24
-24
-24
-23
-23
-20
-15
-30
-30
-34
-29
-17
-11
-15
-20
-24
-17
-18
-23
-19
-25
-24
-29
-29
-16
-16
-23
-23
-25
-26
-17
-27
-24
-21
-22
-17
-14
-20
-22
-14
-18
-18
-14
-5
-10
-16
-13
-8
-6
-17
-21
-18
-15
-6
-4
-2
-5
-13
-6
-11
-14
-24
-24
-19
-26
-17
-20
-19
-21
-26
-28
-25
-28
-28
-25
-23
-25
-25
-28
-35
-35
-34
-30
-20
-25
-24
-21
-30
-26
-26
-27
-23
-30
-31
-33
-34
-18
-25
-35
-38
-20
-4
-4
-7
3
16
34
50
56
63
60
74
69
66
58
55
61
40
12
-2
-25
-53
-91
-105
-84
-79
-65
-50
-53
-40
-38
-29
-29
-27
-19
-23
-34
-30
-16
-30
-22
-29
-24
-12
-13
-20
-22
-16
-19
-15
-16
-16
-18
-18
-20
-16
-19
-32
-17
-1
-15
-11
-15
-17
-19
-16
-19
-7
-6
-6
-3
-12
-18
-11
-10
-1
-10
-3
-8
-12
-1
-4
1
4
1
-2
-4
5
10
-2
-4
14
10
9
2
5
15
17
20
18
16
17
24
25
23
24
23
20
27
25
27
26
35
32
37
41
35
36
36
32
32
39
38
43
34
35
33
37
46
43
36
35
36
44
35
39
33
29
27
26
26
24
21
19
15
12
10
8
10
7
8
7
-1
-20
-10
7
2
-8
-11
0
0
-23
-17
8
-1
-18
1
0
-6
-1
-7
-15
-9
0
-3
-14
-22
-23
-3
-7
-6
-4
1
-3
-7
-19
-16
-6
5
-5
-4
-6
-10
-3
2
-5
-10
-6
-5
-2
5
1
-4
1
-6
5
2
0
-6
-13
4
-9
-6
6
5
5
4
3
4
-3
-4
-8
-4
7
6
1
-5
-4
1
6
2
0
-1
2
-5
8
-11
-14
0
11
5
-3
10
5
-7
-3
-4
6
2
2
-5
-1
3
1
0
0
4
1
-2
-5
-2
-3
-6
-4
-1
5
7
4
-5
-7
-2
-1
-7
-3
-7
-10
3
9
9
7
1
-1
-3
2
1
-4
-2
-15
-5
-1
3
14
7
5
4
5
5
2
-1
-3
-4
21
10
-1
10
18
10
21
19
17
13
14
22
9
12
16
13
14
8
6
6
16
3
4
5
-1
1
0
-12
-9
13
1
-2
-9
2
-4
-3
0
-19
-29
6
17
6
-3
0
3
-2
-7
-11
-1
-2
-1
2
2
3
3
-2
-3
3
8
18
23
21
17
17
45
74
83
78
87
115
114
96
90
91
82
75
64
36
10
-20
-55
-72
-78
-74
-61
-63
-48
-21
-18
-18
-13
-4
14
1
8
4
2
-1
4
-5
12
11
1
12
8
2
-2
-5
17
1
1
9
11
7
11
14
16
8
11
3
9
21
20
19
14
11
8
10
14
9
1
19
26
14
22
26
23
8
5
23
28
34
31
27
23
21
27
33
27
24
29
43
34
28
29
34
37
35
35
24
31
49
42
41
40
45
46
52
51
42
46
54
55
48
42
58
51
32
62
60
65
53
52
59
59
56
51
52
51
51
53
48
39
41
45
44
56
51
53
48
41
43
37
33
33
26
23
31
30
25
24
23
12
6
20
26
23
23
14
14
9
11
13
-2
9
5
9
14
9
13
7
2
19
12
4
11
15
11
10
6
11
9
8
9
6
1
15
15
8
8
9
12
9
12
13
11
4
14
18
13
13
10
14
7
3
11
11
-2
-1
19
16
14
27
13
15
13
13
16
14
9
19
15
12
14
7
10
11
0
10
16
23
13
7
5
11
9
16
5
7
3
7
7
19
14
11
5
11
1
-2
2
9
6
19
17
18
17
13
11
11
14
10
5
3
9
18
20
14
8
20
8
19
20
9
32
35
29
19
18
20
14
16
23
12
23
23
14
9
12
6
2
18
13
10
9
6
7
6
0
-1
0
3
-1
-3
2
5
8
6
-6
-3
11
-3
-2
-11
4
9
1
3
4
-12
-5
0
7
-1
4
-1
6
19
29
24
22
33
49
75
95
93
93
91
91
86
74
70
62
43
26
19
-18
-59
-98
-91
-60
-66
-63
-45
-34
-24
-22
-11
-13
-30
-17
8
9
1
3
1
5
-1
-4
10
1
0
0
-5
5
4
-2
7
3
-5
14
14
10
3
7
2
2
-3
12
7
13
8
5
8
0
4
8
3
8
12
19
16
10
18
18
19
19
15
15
11
20
22
17
22
14
28
31
28
28
30
31
29
31
30
33
27
22
38
41
37
31
30
41
46
36
44
41
38
45
38
42
41
52
58
48
50
48
39
34
42
63
55
44
44
50
48
55
51
41
30
33
45
42
39
37
34
33
33
31
25
14
18
10
18
13
20
13
4
6
8
2
13
1
-1
1
4
2
8
-2
5
4
2
-3
-6
-6
-3
-2
-5
1
-5
0
-4
-2
4
4
2
-8
3
0
-3
-16
-8
-1
3
0
2
4
1
3
-1
2
2
-2
1
0
0
7
5
-1
-5
-13
-3
10
4
7
-1
1
-5
-2
11
6
0
-1
6
2
2
-2
1
1
1
-3
-3
-4
-4
-4
4
0
-4
5
-5
-7
-16
-12
6
-4
-6
3
-3
0
-1
1
-5
-7
-6
-8
-5
-1
3
-5
-6
-4
-12
-4
-7
-15
-2
-3
-8
-7
-2
0
0
-3
-8
-9
-5
-15
-2
9
3
4
5
2
4
-7
1
7
8
0
7
8
2
13
18
8
5
-1
-1
2
6
3
1
-3
0
-2
-5
-8
-7
-2
-22
-11
-7
-13
-19
-11
-6
-13
-8
-4
-7
-9
-9
-8
-11
-14
-13
-13
-12
-11
-9
-17
-5
-14
-16
-15
-7
-7
-7
-5
4
12
3
2
25
41
63
76
71
68
92
101
97
81
81
69
69
55
23
1
-15
-45
-72
-80
-69
-61
-53
