-43
-36
-36
-25
-24
-32
-22
-10
-15
-9
-8
-18
-7
-12
1
-4
1
-3
-4
2
9
21
10
10
17
25
25
34
35
28
8
12
17
18
23
25
25
29
18
19
16
16
21
21
16
13
26
20
15
12
21
26
30
18
13
16
23
13
5
11
7
2
3
9
10
1
12
1
-10
-10
-15
-18
0
3
2
-13
-5
-7
-3
2
-19
-23
-14
-18
-15
-18
-20
-21
-20
-15
-22
-23
-28
-25
-25
-30
-24
-27
-30
-26
-41
-21
-14
-25
-31
-20
-32
-44
-24
-18
-32
-34
-39
-51
-51
-49
-44
-40
-44
-24
-24
-31
-32
-29
-28
-32
-35
-28
-25
-31
-46
-44
-13
-38
-53
-45
-55
-44
-52
-51
-43
-44
-35
-50
-46
-70
-70
-58
-64
-73
-81
-69
-55
-44
-54
-62
-69
-76
-69
-72
-54
-61
-86
-77
-61
-56
-72
-69
-76
-67
-58
-63
-72
-76
-77
-87
-80
-58
-54
-56
-74
-84
-64
-52
-65
-63
-73
-80
-73
-54
-59
-69
-60
-52
-41
-35
-14
12
36
39
66
94
65
71
66
57
37
10
-16
-62
-62
-77
-73
-81
-86
-79
-77
-74
-71
-73
-78
-69
-60
-72
-81
-71
-56
-57
-73
-71
-70
-67
-67
-65
-73
-72
-83
-94
-83
-77
-64
-58
-59
-81
-69
-69
-86
-65
-58
-60
-75
-77
-68
-56
-62
-60
-68
-83
-81
-76
-72
-73
-72
-61
-62
-56
-57
-68
-68
-78
-58
-55
-57
-65
-57
-77
-70
-60
-57
-50
-60
-61
-53
-46
-55
-54
-61
-59
-44
-43
-53
-55
-35
-53
-41
-36
-42
-35
-38
-40
-39
-51
-38
-28
-25
-27
-28
-28
-18
-18
-35
-25
-11
-20
-27
-18
-10
9
7
-8
-14
5
-24
-24
-20
-15
3
5
6
-14
-16
2
-10
-17
-22
-29
-20
-20
-44
-46
-35
-37
-59
-70
-48
-53
-54
-50
-65
-65
-78
-70
-79
-74
-79
-91
-94
-78
-78
-68
-70
-82
-84
-95
-82
-76
-83
-91
-89
-82
-93
-90
-76
-80
-98
-99
-107
-101
-92
-91
-100
-89
-82
-73
-101
-94
-89
-91
-87
-91
-81
-96
-89
-96
-99
-103
-104
-104
-108
-96
-94
-80
-79
-82
-83
-85
-94
-105
-88
-83
-88
-100
-93
-110
-102
-91
-88
-78
-77
-92
-83
-91
-103
-105
-105
-82
-89
-93
-85
-81
-77
-72
-82
-96
-114
-86
-88
-85
-84
-87
-94
-91
-76
-81
-88
-91
-97
-115
-82
-80
-98
-94
-91
-87
-93
-101
-99
-86
-73
-72
-75
-87
-86
-70
-60
-104
-109
-89
-103
-86
-67
-85
-78
-81
-82
-75
-86
-80
-74
-77
-65
-68
-81
-75
-68
-74
-79
-84
-86
-94
-90
-90
-91
-89
-83
-96
-89
-95
-104
-93
-88
-94
-91
-78
-84
-101
-102
-94
-111
-107
-85
-100
-101
-93
-104
-85
-95
-89
-77
-96
-103
-104
-87
-110
-103
-89
-96
-99
-87
-77
-94
-111
-103
-85
-84
-88
-84
-92
-99
-96
-91
-87
-85
-99
-94
-82
-89
-77
-71
-48
-21
17
33
58
59
74
70
31
31
34
10
-30
-80
-91
-95
-95
-83
-86
-103
-108
-83
-81
-89
-76
-79
-80
-76
-89
-100
-93
-97
-70
-51
-56
-79
-75
-72
-91
-93
-95
-73
-77
-68
-71
-76
-70
-68
-81
-70
-61
-103
-98
-88
-74
-62
-62
-79
-90
-91
-77
-69
-74
-73
-66
-71
-72
-58
-69
-66
-76
-73
-63
-68
-64
-78
-53
-64
-77
-65
-72
-52
-67
-57
-50
-56
-60
-51
-61
-68
-58
-48
-33
-47
-59
-73
-68
-55
-28
-21
-32
-37
-29
-31
-31
-38
-39
-36
-33
-20
-17
-28
-37
-23
-22
-24
-3
10
3
-10
-14
6
-4
5
3
-6
-9
2
-6
-7
-4
4
-7
-13
-13
-11
-10
2
-8
-21
-21
-26
-21
-24
-29
-46
-46
-45
-61
-66
-52
-51
-57
-50
-65
-65
-62
-70
-65
-64
-61
-75
-78
-84
-82
-81
-81
-60
-78
-102
-85
-82
-75
-68
-76
-89
-90
-77
-88
-93
-86
-72
-70
-67
-79
-95
-85
-79
-63
-66
-81
-87
-84
-78
-89
-89
-79
-98
-81
-79
-75
-65
-75
-82
-88
-70
-65
-71
-82
-81
-83
-68
-68
-70
-78
-72
-77
-74
-76
-67
-74
-81
-78
-76
-94
-82
-80
-74
-76
-70
-65
-76
-75
-70
-66
-67
-71
-85
-81
-85
-66
-58
-61
-78
-62
-67
-62
-67
-66
-69
-68
-85
-80
-69
-74
-73
-79
-75
-75
-80
-83
-70
-75
-71
-73
-70
-81
-75
-68
-74
-80
-76
-74
-60
-52
-76
-87
-74
-58
-75
-77
-81
-69
-58
-56
-65
-68
-59
-59
-59
-48
-44
-57
-54
-46
-64
-64
-75
-58
-59
-55
-59
-67
-67
-65
-67
-59
-61
-77
-74
-76
-73
-66
-78
-76
-74
-88
-87
-74
-68
-67
-72
-80
-62
-81
-89
-83
-62
-69
-77
-80
-77
-93
-90
-79
-74
-72
-77
-69
-58
-82
-76
-73
-68
-71
-74
-69
-73
-78
-84
-65
-67
-83
-91
-63
-44
-63
-69
-79
-72
-75
-78
-74
-51
-30
-26
17
40
55
66
85
82
73
72
85
64
41
8
-38
-57
-71
-68
-56
-64
-82
-73
-55
-50
-47
-58
-64
-44
-50
-53
-62
-66
-57
-54
-49
-43
-64
-74
-55
-46
-42
-60
-56
-61
-50
-50
-46
-48
-58
-61
-55
-64
-51
-42
-57
-58
-57
-52
-40
-44
-51
-61
-49
-58
-53
-53
-58
-59
-47
-45
-46
-33
-50
-61
-44
-30
-31
-43
-48
-37
-26
-46
-47
-48
-51
-52
-40
-23
-19
-29
-27
-27
-23
-36
-32
-31
-25
-33
-32
-25
-19
-7
-19
-23
-10
-17
-15
-11
-4
-4
-2
-13
-9
5
14
11
8
8
6
4
0
6
20
20
23
28
30
22
21
28
22
19
18
22
19
26
8
17
2
-2
-8
0
4
1
6
5
-9
-4
-25
-19
-21
-26
-27
-36
-54
-46
-37
-37
-42
-43
-41
-46
-45
-40
-28
-44
-48
-42
-42
-53
-42
-52
-37
-59
-53
-54
-50
-46
-47
-54
-48
-39
-50
-39
-43
-43
-44
-50
-44
-49
-46
-53
-64
-51
-35
-37
-60
-48
-38
-31
-44
-56
-52
-44
-47
-44
-46
-44
-40
-50
-51
-39
-46
-43
-32
-41
-50
-54
-55
-45
-35
-46
-29
-31
-45
-40
-37
-38
-47
-48
-40
-44
-37
-37
-35
-35
-37
-45
-47
-54
-33
-36
-29
-45
-38
-41
-43
-43
-44
-43
-31
-33
-46
-47
-44
-37
-31
-31
-47
-39
-47
-46
-38
-31
-28
-40
-42
-39
-44
-42
-39
-34
-34
-50
-38
-40
-32
-39
-39
-34
-30
-37
-49
-50
-46
-38
-40
-33
-25
-37
-34
-36
-51
-49
-48
-37
-40
-42
-32
-26
-36
-35
-32
-44
-41
-43
-38
-44
-53
-35
-33
-32
-42
-17
-35
-37
-32
-41
-40
-29
-36
-30
-39
-43
-36
-18
-26
-31
-19
-25
-23
-32
-43
-16
1
-7
-17
-17
-20
-23
-22
-13
-18
-21
-26
-16
-27
-31
-27
-29
-40
-26
-20
-25
-23
-27
-14
-26
-47
-43
-35
-30
-40
-31
-39
-29
-34
-37
-37
-28
-30
-36
-33
-40
-41
-32
-45
-33
-36
-33
-33
-34
-24
-25
-28
-29
-33
-39
-24
-27
-26
-30
-27
-28
-26
-24
-34
-45
-27
-33
-33
-26
-29
-30
-13
-14
-14
-24
-7
-7
12
31
46
63
75
81
91
101
95
93
96
91
78
58
24
7
-13
1
-17
-18
-17
-9
-16
-13
-13
0
-11
-9
3
-10
-14
-12
-15
-21
-20
-26
-24
-15
0
-12
-12
-2
-2
0
-4
-23
-22
-22
-12
-6
3
-2
0
-4
-3
1
-5
-9
-8
-11
0
1
2
0
-5
3
8
3
3
3
3
-3
-6
2
11
22
11
-2
-3
7
10
13
5
13
21
15
16
23
8
10
19
22
9
13
27
30
19
28
38
28
50
20
26
31
29
39
40
39
38
49
59
54
55
43
52
47
52
58
63
68
69
67
77
56
61
63
75
70
71
72
64
71
75
67
67
86
75
70
69
69
57
55
51
57
63
60
53
40
39
49
45
36
28
32
32
26
23
20
14
18
25
20
23
20
16
16
19
9
2
11
14
7
7
12
14
6
10
8
14
13
5
11
5
2
16
24
18
6
19
20
14
13
14
14
21
22
-3
-9
8
27
20
17
19
22
19
13
3
12
16
15
17
13
15
15
21
18
17
14
16
13
21
13
16
15
14
16
18
28
26
18
15
12
10
17
24
18
18
14
24
16
16
28
12
23
17
24
11
6
22
24
17
11
12
21
18
29
26
11
7
16
17
31
21
15
18
21
17
27
23
25
23
18
23
27
24
19
18
7
13
21
25
30
24
21
18
20
24
25
23
27
28
29
21
14
4
17
32
26
14
11
14
11
21
21
35
34
26
23
26
27
19
24
22
27
21
17
18
17
18
7
15
25
33
39
24
28
25
25
23
16
26
21
23
29
22
18
29
14
3
12
18
21
29
36
33
36
25
20
26
26
31
37
29
20
10
15
26
35
32
32
30
28
28
29
32
30
29
20
28
26
23
28
35
24
23
18
15
27
31
31
30
24
29
33
37
35
28
27
33
32
30
28
24
36
40
37
27
25
32
50
27
21
20
21
24
25
22
36
33
24
34
34
37
37
38
50
47
35
22
24
27
40
33
32
42
30
33
33
38
31
32
28
34
30
39
37
37
33
35
31
32
25
14
23
24
33
48
40
38
34
29
49
43
39
33
32
32
35
41
44
41
39
46
42
39
41
45
50
52
47
46
45
50
56
46
39
48
56
53
54
50
48
53
55
55
46
43
49
47
33
30
56
58
57
57
47
36
44
37
34
37
44
42
38
36
39
37
37
38
32
32
40
44
40
33
40
41
28
34
41
49
43
41
38
40
42
39
37
42
38
34
36
35
45
46
37
27
42
47
41
47
47
53
48
35
35
46
49
56
53
63
88
101
122
142
143
151
163
161
163
150
167
170
147
122
86
69
52
56
56
59
53
58
54
43
42
55
55
60
53
57
43
39
37
44
60
56
55
60
63
68
45
44
51
50
50
49
50
49
57
53
59
61
59
54
52
54
54
55
56
65
60
55
63
72
51
52
44
54
64
74
71
67
59
66
68
67
75
67
65
68
58
68
68
62
61
77
60
70
77
81
73
83
84
70
72
66
73
82
88
89
77
75
71
77
82
91
99
94
87
92
102
102
97
97
110
108
108
107
109
119
121
123
117
114
110
119
119
116
128
121
118
123
118
119
122
119
124
114
115
117
100
99
108
120
119
113
108
102
88
92
95
90
80
76
76
87
91
75
73
74
73
70
65
61
62
73
59
58
55
51
54
57
44
57
55
45
56
58
61
49
53
56
54
66
53
58
53
55
49
52
56
61
57
55
57
55
47
45
50
55
55
63
52
52
47
51
59
56
58
49
55
46
52
57
54
52
69
68
73
59
49
45
60
61
63
58
63
58
60
55
57
56
59
51
52
54
51
48
42
55
66
70
61
58
55
64
66
60
59
59
59
59
56
63
49
45
53
65
60
50
60
64
62
63
52
55
57
68
65
62
58
56
48
53
50
64
68
64
63
60
59
60
65
65
63
59
63
62
56
54
64
65
52
52
58
61
62
57
57
56
39
37
38
47
70
58
59
59
70
64
65
62
53
66
62
60
60
65
60
62
64
73
54
50
57
49
63
57
58
60
59
51
64
51
54
56
65
64
65
52
46
39
59
70
66
67
68
64
59
61
69
56
51
53
59
54
69
67
74
67
68
60
52
45
50
58
69
57
60
58
55
55
65
80
64
63
66
67
65
68
64
69
68
70
68
64
66
71
70
76
79
81
74
65
60
73
75
73
79
70
75
75
75
77
83
78
69
64
75
88
78
65
69
64
64
62
64
68
61
61
59
62
60
62
64
61
65
53
58
55
60
59
58
50
58
63
61
65
64
54
50
62
68
62
67
67
73
72
71
64
46
48
60
51
53
67
85
81
78
61
43
65
70
83
99
129
155
168
187
196
199
185
157
169
186
176
150
99
71
67
71
71
76
72
69
68
66
66
74
72
80
76
72
76
74
85
82
73
70
65
68
67
76
70
76
82
83
74
75
69
70
76
80
78
70
70
60
77
90
73
61
73
71
74
74
82
86
82
77
85
88
83
80
69
65
66
70
82
84
89
73
82
81
82
93
83
89
79
77
85
92
94
88
72
85
91
90
89
99
102
84
102
110
107
108
97
103
97
96
100
103
103
110
124
106
108
117
119
130
129
116
123
126
125
117
127
140
146
140
137
141
134
137
133
145
139
151
147
144
133
141
137
139
134
134
132
130
115
108
111
113
104
112
111
109
103
102
85
83
81
80
88
86
79
82
71
71
71
78
80
73
68
66
62
68
61
64
60
59
64
59
72
80
66
68
72
59
50
59
69
71
54
63
67
67
61
63
55
55
50
50
63
57
72
61
68
74
67
67
53
54
55
74
58
64
59
70
49
57
72
72
67
69
83
79
69
66
68
69
69
59
55
63
63
61
64
69
68
72
78
73
71
74
66
69
65
63
68
69
78
71
73
82
79
73
72
77
75
76
61
64
71
77
77
75
79
74
71
73
69
64
71
70
71
73
59
68
80
74
68
75
76
67
68
68
66
77
84
78
77
74
78
62
68
80
71
72
71
71
59
62
61
64
68
73
71
72
79
71
71
61
79
72
76
68
63
73
62
71
64
69
69
84
81
78
72
68
64
64
83
69
67
69
80
84
76
69
87
92
82
82
81
77
72
78
77
78
82
91
88
80
72
99
106
95
83
88
93
95
98
96
93
91
97
92
84
79
87
90
84
82
77
70
82
86
88
84
79
82
73
70
72
73
63
66
67
69
78
80
87
93
83
75
80
75
63
67
72
76
74
78
74
81
78
77
77
78
69
71
76
73
66
77
77
69
71
79
82
81
83
78
78
74
79
93
106
134
151
173
200
224
235
246
241
229
226
220
185
163
122
83
66
66
68
73
80
99
99
105
93
95
97
88
91
93
97
98
86
83
78
79
91
97
95
93
94
98
96
94
87
93
97
98
87
84
94
110
99
101
109
95
83
82
94
93
104
109
110
113
106
103
93
93
99
106
105
100
96
105
99
106
102
84
91
106
122
124
111
113
122
122
126
112
112
123
108
101
114
120
114
125
122
125
125
127
120
122
121
129
141
139
136
141
143
146
154
145
152
144
143
156
164
158
163
169
168
159
166
165
167
171
176
182
187
172
178
186
186
175
175
175
168
165
165
175
174
175
167
168
150
149
150
141
137
136
126
125
119
133
132
128
119
123
118
115
102
101
106
108
101
94
90
104
102
98
102
89
87
96
101
100
102
95
103
88
98
93
102
93
91
81
88
91
89
95
87
79
90
93
101
93
91
94
92
92
95
103
91
87
76
84
97
97
104
94
92
99
94
90
92
99
89
98
96
99
90
87
89
99
90
86
87
98
97
99
87
85
86
100
97
91
97
99
93
87
83
82
90
97
99
101
94
93
94
100
98
90
101
103
93
93
90
86
83
89
89
91
88
92
94
99
95
92
101
85
85
83
90
100
93
99
92
95
92
89
91
89
93
89
82
82
85
91
103
107
104
97
93
91
91
90
84
93
96
99
114
108
102
103
102
106
110
105
97
99
96
92
100
113
112
100
99
93
95
88
86
96
92
91
95
89
93
79
83
84
88
86
83
78
79
88
92
89
78
81
89
94
92
87
70
68
77
86
93
97
90
87
82
84
82
85
79
89
90
84
89
89
90
84
86
91
98
90
79
81
77
87
105
114
121
131
161
181
204
234
249
248
237
223
221
224
219
191
146
102
87
76
92
110
84
73
91
93
94
96
89
92
99
95
94
101
96
93
84
86
104
97
94
96
95
90
89
86
104
104
94
97
97
94
93
99
100
96
107
99
95
94
104
111
96
88
95
99
111
114
108
104
97
112
107
101
104
107
109
106
116
110
107
103
110
103
108
107
120
124
124
120
123
120
129
115
115
108
116
119
120
128
134
133
134
130
134
133
134
132
135
141
147
139
151
147
147
145
139
152
147
152
167
170
166
157
154
165
163
175
174
175
170
171
178
172
171
168
168
162
158
164
170
174
168
156
149
155
147
139
142
131
124
130
129
139
129
122
121
128
111
97
94
93
89
103
93
110
116
104
110
89
88
84
97
110
109
103
105
99
90
85
81
95
106
113
106
103
92
86
80
81
84
82
94
97
100
98
83
90
81
84
86
102
104
88
86
89
99
88
92
98
99
98
101
93
79
84
86
93
109
97
101
95
87
93
92
91
91
93
91
94
98
92
102
87
85
83
86
99
99
98
96
88
83
87
83
97
100
110
105
98
96
99
96
98
90
93
97
96
105
97
87
93
97
109
118
108
101
109
109
108
112
103
109
116
106
110
116
107
94
99
95
101
101
95
99
94
100
110
89
89
97
92
93
96
98
91
96
85
83
84
89
103
94
85
92
92
92
88
83
86
92
89
88
87
86
91
93
88
96
94
86
87
86
94
88
92
82
82
80
91
98
83
86
86
96
99
102
97
95
93
102
108
124
140
162
172
194
218
230
213
212
196
212
202
178
146
109
90
93
97
82
89
92
98
106
114
103
98
102
96
97
111
105
108
108
99
89
97
98
106
105
100
99
90
98
101
95
97
99
111
94
103
98
107
102
111
106
103
101
111
99
91
110
113
108
105
95
95
109
106
106
115
118
107
109
103
111
103
92
108
114
102
107
119
125
117
120
112
112
116
122
129
124
111
117
123
125
126
122
132
132
123
128
128
128
130
128
128
126
140
151
144
147
141
154
159
152
160
161
164
166
168
161
163
160
162
160
163
168
179
176
168
162
158
156
159
173
164
164
163
162
156
160
144
138
147
142
122
117
105
123
123
120
118
120
124
115
104
109
103
90
105
109
112
101
88
93
92
97
96
87
82
92
95
87
84
88
94
79
83
92
90
93
95
86
86
93
92
94
102
102
88
88
97
97
92
93
83
84
100
89
87
91
86
86
82
83
79
84
87
93
89
83
82
82
100
101
99
93
94
90
92
93
91
90
92
93
87
89
90
91
93
87
91
89
98
96
88
84
84
81
86
95
97
99
95
91
104
95
101
100
97
97
94
96
94
94
91
104
102
102
102
94
100
104
106
110
110
112
105
101
104
109
100
89
100
112
96
102
93
98
104
105
104
89
80
84
91
94
97
89
89
91
97
91
79
78
84
86
85
84
96
96
79
79
78
95
94
86
74
82
81
90
96
93
72
72
84
83
87
84
91
88
84
85
82
86
85
81
84
78
83
89
82
85
94
94
93
100
100
115
128
145
164
180
180
190
202
196
197
196
200
188
178
136
102
88
93
103
110
109
104
98
98
95
93
94
93
99
77
92
96
97
91
80
86
101
98
87
93
103
95
94
90
89
89
94
99
98
96
90
95
97
89
84
92
93
86
86
102
100
96
89
99
104
104
100
102
97
97
107
103
103
104
86
86
100
107
90
100
104
104
108
105
99
105
111
101
97
101
95
88
95
110
116
116
124
119
122
122
122
116
117
115
122
114
111
112
117
124
134
143
140
132
136
134
150
142
148
151
143
137
141
146
136
142
145
147
145
148
144
136
137
161
157
143
144
134
134
128
138
136
137
135
121
120
121
117
109
103
96
102
96
92
96
99
104
105
98
100
94
91
83
83
86
93
98
78
74
75
79
81
84
85
82
78
85
79
80
100
107
91
74
86
86
77
86
85
84
79
77
80
72
88
90
88
85
83
85
83
88
82
80
75
75
68
75
78
86
89
85
88
95
99
93
81
83
88
94
85
81
72
78
82
81
79
92
101
87
82
81
83
75
73
70
80
94
88
89
80
82
82
88
87
75
80
91
93
93
93
92
92
90
91
92
95
83
82
93
93
87
86
96
94
104
93
93
102
95
89
85
81
63
89
99
102
106
91
89
89
87
85
68
67
80
77
69
68
66
80
88
89
79
68
84
81
80
89
72
68
61
69
65
81
89
84
66
69
73
75
71
75
72
74
80
80
78
74
75
70
71
78
68
72
79
75
79
83
86
85
77
68
69
84
93
99
114
134
148
157
168
190
194
184
163
173
179
165
161
132
104
91
95
95
88
91
80
87
77
79
82
81
80
89
94
96
87
86
87
101
77
76
73
72
73
79
76
85
89
83
86
91
83
78
81
80
80
80
81
70
81
91
85
97
86
86
91
88
82
81
89
91
87
89
86
79
80
85
96
97
97
91
101
91
89
84
86
90
92
98
91
99
95
90
90
91
94
97
95
105
111
103
104
100
108
104
96
105
113
120
115
112
117
126
113
126
122
110
112
120
134
126
139
137
136
135
138
133
131
130
140
145
139
135
118
114
128
143
141
141
129
130
132
131
130
118
121
117
112
109
105
102
99
102
104
95
81
97
97
90
67
78
84
82
87
85
85
76
69
69
75
76
75
71
81
74
74
68
73
66
74
68
71
71
66
71
74
73
76
80
67
54
56
64
75
81
87
75
72
73
72
77
75
76
77
71
69
69
71
67
73
58
56
57
75
70
77
73
73
67
67
67
69
74
79
70
72
78
77
68
79
73
67
65
68
68
75
72
63
69
76
77
63
66
73
60
61
74
72
80
67
65
65
63
72
71
73
77
69
60
59
63
65
67
79
74
70
69
65
58
63
71
75
78
73
64
90
69
76
78
72
78
72
70
85
74
75
77
71
79
82
80
78
79
81
85
83
73
76
78
79
77
76
67
74
83
75
77
68
66
72
51
51
67
70
62
65
66
67
74
64
68
60
67
58
60
54
64
69
67
63
54
49
57
69
72
68
55
58
66
65
53
56
58
54
52
66
61
51
61
65
69
63
65
72
65
66
71
67
66
71
69
70
84
99
117
132
142
151
159
162
159
150
153
159
165
158
143
108
76
74
95
77
60
64
63
76
86
72
68
71
69
80
74
69
79
80
74
70
59
67
68
73
66
61
63
75
67
54
65
71
69
73
76
80
81
72
73
70
63
64
59
67
78
74
75
72
75
80
68
58
72
85
78
69
67
71
81
75
85
86
86
88
67
71
82
75
76
76
78
79
76
74
79
80
79
86
90
93
87
85
93
88
95
93
86
96
100
104
91
94
102
119
102
100
91
104
113
106
119
114
113
114
122
132
132
133
126
118
119
125
127
120
116
124
133
128
126
124
116
104
110
113
118
116
110
105
104
105
107
96
90
93
84
69
71
73
84
88
77
74
64
73
79
76
82
72
70
51
55
52
63
64
58
55
50
64
63
52
52
62
61
77
64
65
63
55
57
50
44
36
48
72
67
58
64
72
69
62
58
61
59
58
52
57
64
56
57
63
61
60
62
62
61
59
58
47
60
54
51
58
71
60
60
54
59
55
50
63
71
55
53
51
49
56
59
57
55
52
54
60
55
65
43
45
49
58
57
57
61
53
64
66
50
46
63
47
53
53
48
53
51
50
51
48
59
57
65
63
58
52
49
52
57
55
55
51
49
50
49
39
45
59
61
63
61
65
55
52
55
52
61
53
46
49
53
51
40
49
53
57
40
52
65
54
55
40
49
54
54
47
41
51
56
49
64
53
57
57
56
45
48
56
60
57
47
52
55
65
58
56
59
61
63
72
63
65
65
51
48
60
71
67
68
66
49
42
48
59
62
55
61
57
52
56
60
52
47
55
48
36
53
62
54
55
60
45
40
49
42
42
57
55
44
34
43
47
63
35
40
44
48
41
42
41
44
36
47
37
40
42
48
50
49
38
55
49
52
45
43
49
38
42
56
73
62
60
47
59
72
74
76
100
118
139
153
165
155
154
138
141
149
151
120
96
69
60
66
70
70
57
51
54
52
58
66
58
62
53
48
49
50
55
60
64
53
53
58
52
60
49
45
47
54
58
65
58
53
52
61
67
57
60
47
58
61
68
66
59
57
58
60
57
65
53
50
62
67
63
58
63
71
61
76
61
59
61
57
62
54
53
43
65
80
78
61
65
75
79
81
70
76
72
73
66
72
75
72
76
82
88
82
79
80
83
94
86
86
93
87
97
87
82
95
92
100
109
113
98
104
104
121
109
102
96
94
104
105
110
119
122
118
116
116
115
122
110
112
117
106
110
105
110
101
102
99
90
76
76
76
78
77
80
53
56
67
75
81
70
64
58
62
68
64
56
52
44
50
53
57
55
51
49
47
45
48
55
60
64
70
68
54
43
50
39
36
41
53
57
52
55
59
57
48
46
55
48
56
59
64
57
60
54
44
49
53
57
48
48
55
58
55
47
47
46
56
51
49
59
59
64
72
53
53
59
54
57
46
45
43
54
59
62
65
57
55
59
57
47
45
52
55
50
63
58
51
55
48
51
47
47
43
45
56
50
56
56
44
63
65
55
47
48
56
58
57
57
64
61
48
46
44
46
55
62
60
55
59
57
53
57
56
54
42
36
46
55
68
58
53
51
60
49
47
61
54
46
54
51
48
50
50
57
52
54
60
52
51
48
51
66
52
56
67
62
48
62
55
49
52
55
53
61
59
55
58
63
50
73
68
55
62
68
79
67
68
68
65
60
63
65
67
67
72
60
59
55
62
54
54
50
50
46
50
54
54
49
53
46
50
68
56
54
47
49
57
40
40
61
55
52
48
44
46
38
45
53
57
53
49
45
58
58
53
54
56
45
37
47
29
35
51
56
55
60
51
60
60
55
66
74
77
69
83
109
113
139
153
167
168
163
161
152
155
147
144
123
81
70
66
54
51
54
64
64
63
60
59
63
60
57
59
60
50
49
65
69
60
59
51
57
59
64
67
64
54
53
57
54
52
59
54
60
71
59
57
62
67
72
70
66
64
54
66
67
68
65
63
54
53
61
64
61
71
65
65
78
71
66
77
63
61
65
69
71
75
73
73
78
72
71
69
68
59
65
75
86
81
91
79
94
95
87
87
95
91
90
80
86
93
83
90
115
99
105
109
107
116
110
109
106
109
103
103
104
107
117
112
116
118
118
119
122
123
131
118
114
115
134
116
106
112
111
102
93
84
91
87
81
85
88
93
94
90
79
82
77
67
66
65
63
63
56
48
42
47
57
66
66
68
58
53
53
51
56
61
51
45
54
53
52
48
42
31
54
59
57
61
53
48
57
53
49
50
49
44
62
53
62
49
44
38
38
45
55
56
65
49
41
42
45
57
60
60
47
50
55
55
51
44
51
57
52
59
54
57
53
51
43
54
50
57
54
55
57
47
46
36
41
42
47
66
55
48
41
64
59
61
43
55
52
50
49
55
54
54
47
41
57
41
51
48
49
49
48
54
57
59
54
47
55
51
45
47
41
27
32
46
54
62
52
43
41
52
57
51
56
57
49
45
38
46
37
44
54
57
56
44
54
45
48
59
51
48
44
52
46
49
52
45
39
45
50
37
23
31
49
69
57
56
55
44
53
51
52
53
59
54
54
57
63
64
65
67
64
70
57
62
65
62
59
54
63
58
59
54
62
44
34
47
36
37
49
64
65
59
54
47
44
45
26
39
33
52
52
47
50
52
54
54
50
42
43
44
39
43
44
35
39
34
46
43
42
46
45
45
46
46
47
33
35
34
43
53
71
60
55
57
50
44
53
66
84
112
126
138
164
174
186
175
159
153
146
146
132
103
54
42
41
48
38
28
38
46
62
55
53
54
54
56
61
48
43
53
52
52
53
59
56
55
58
57
52
43
44
54
53
53
48
52
49
46
47
59
68
65
60
48
46
63
67
51
59
56
57
57
66
56
58
62
75
58
59
59
57
66
64
56
64
63
55
69
66
72
70
74
63
63
64
59
69
74
55
57
76
78
88
85
79
79
83
82
82
84
80
75
82
84
84
87
90
97
98
103
99
109
107
108
106
89
102
105
109
115
119
121
117
113
128
126
114
107
111
114
115
125
129
132
109
98
103
119
107
98
99
105
94
90
93
87
86
71
67
68
71
73
67
64
66
58
67
64
47
55
58
51
45
52
52
39
58
42
52
50
47
53
53
45
42
46
37
28
32
32
44
52
55
54
41
41
41
36
55
44
39
45
50
45
47
40
47
47
43
40
40
42
46
49
46
44
50
46
44
43
45
43
46
46
58
53
43
47
40
41
42
44
48
40
35
41
34
49
57
55
45
43
42
40
53
53
45
43
46
45
41
45
46
56
60
52
44
45
44
40
40
44
34
40
45
52
30
37
47
49
40
43
45
49
41
36
35
44
40
40
40
39
42
32
34
40
32
45
53
42
39
40
45
41
41
40
44
48
32
34
37
45
44
40
37
37
41
45
51
43
50
35
43
28
41
50
49
47
47
57
60
66
62
58
55
53
49
49
46
42
62
66
54
48
39
37
44
41
48
47
46
39
45
54
31
34
40
44
30
42
41
38
40
28
15
20
26
38
46
46
43
38
27
24
32
37
36
34
27
39
37
36
35
41
41
36
27
30
35
37
34
27
43
39
44
42
42
29
46
51
51
75
113
137
161
175
179
187
176
155
147
147
127
103
46
29
26
25
25
19
33
38
36
39
52
47
44
55
43
46
47
46
36
39
35
44
60
37
34
46
48
42
50
43
35
41
43
45
53
47
47
52
38
40
55
46
47
49
57
50
53
48
53
38
53
42
44
52
56
53
46
45
55
47
55
52
54
51
50
67
59
61
61
61
54
55
45
60
71
67
63
59
79
75
57
67
79
75
80
66
68
74
64
72
75
77
88
83
94
88
89
88
94
90
92
87
94
102
105
114
105
105
114
116
98
106
98
100
113
121
109
114
117
105
110
106
117
110
98
98
96
101
92
90
93
84
82
80
83
74
80
72
64
61
58
54
55
52
46
58
55
44
30
31
31
45
50
40
46
51
51
47
44
35
32
32
29
34
29
36
34
45
43
39
41
48
40
36
33
36
33
38
33
20
23
50
43
46
39
30
40
30
45
35
43
42
37
34
45
37
39
35
34
39
26
42
50
52
46
34
45
37
38
33
41
40
31
38
45
44
38
47
51
44
36
38
35
41
39
36
35
33
30
31
25
23
37
58
47
43
40
31
29
27
32
45
35
50
48
43
41
42
29
30
38
37
39
33
36
33
32
41
45
28
27
29
36
39
40
26
22
25
27
36
47
42
46
41
46
54
47
42
35
36
38
43
34
37
57
56
47
39
44
50
54
52
56
52
51
38
36
31
20
27
50
49
44
45
45
30
40
35
38
29
22
22
22
34
37
34
28
27
38
21
23
26
36
36
30
36
25
28
37
31
32
30
29
32
27
22
29
32
36
27
30
34
35
24
20
31
30
31
39
36
34
52
61
53
92
124
143
159
164
178
174
143
145
145
120
88
46
28
23
30
26
27
33
35
16
23
26
42
54
46
46
45
44
37
37
35
49
53
32
30
47
36
38
50
40
38
37
33
37
47
52
40
34
43
42
42
47
45
48
43
41
52
46
46
46
42
32
40
44
39
53
56
63
54
53
43
46
50
48
60
50
47
50
53
53
52
54
63
54
56
69
53
56
65
71
56
60
71
55
72
58
57
63
65
84
90
79
65
77
76
85
86
78
92
88
101
81
79
89
98
99
97
104
106
107
116
108
97
97
103
99
104
109
106
113
106
112
98
84
89
96
104
91
85
86
88
77
72
70
58
69
61
59
62
61
46
49
58
58
49
44
33
51
37
39
46
43
38
39
37
32
32
37
26
25
18
24
39
32
32
30
42
31
35
34
29
33
34
31
17
25
25
29
35
42
36
43
38
29
23
17
27
45
47
37
24
30
29
25
37
29
28
23
32
38
39
36
40
29
23
44
30
43
37
28
13
30
39
36
42
45
33
40
32
36
40
42
40
34
27
29
29
15
16
19
43
41
40
39
37
30
36
29
40
43
36
27
37
39
29
31
24
34
31
29
35
32
39
26
32
25
30
35
44
46
48
45
52
49
45
45
43
55
53
46
39
31
21
32
37
37
40
31
35
43
38
33
29
19
23
22
24
31
23
22
22
27
32
16
16
27
37
37
28
16
17
28
27
34
23
23
24
21
34
21
16
18
27
19
15
19
26
26
33
43
26
22
30
27
35
30
32
28
28
33
46
59
85
115
130
133
148
156
145
144
132
126
113
121
87
54
46
44
47
34
26
27
34
40
34
37
35
35
32
40
31
31
40
42
41
34
26
33
33
30
28
30
36
40
45
40
40
27
23
32
36
33
32
38
37
31
34
37
36
25
34
46
34
37
36
36
32
40
46
35
33
38
41
40
48
45
45
45
43
50
59
36
30
41
53
46
52
40
43
36
45
56
61
57
48
54
68
74
63
54
59
48
57
63
67
69
75
66
72
79
73
78
75
74
74
63
73
93
82
77
70
91
109
93
86
84
93
80
86
100
88
81
88
88
88
91
86
74
83
70
63
67
68
67
76
77
70
62
58
57
57
47
39
45
44
41
34
19
29
48
44
39
25
35
34
38
30
36
34
22
25
29
26
24
28
32
39
29
22
28
23
22
28
12
11
19
37
25
36
38
27
33
35
18
24
17
24
39
24
37
30
22
25
36
27
27
20
23
32
48
37
26
27
25
21
21
34
29
30
30
29
29
18
30
29
33
31
24
25
28
38
27
21
31
43
34
24
27
25
20
21
22
23
30
30
29
37
39
35
29
32
26
31
37
39
36
43
40
36
31
46
57
39
43
41
52
42
38
42
44
40
32
35
44
38
39
40
32
26
24
26
32
29
27
26
27
19
13
23
14
13
20
28
17
23
25
27
34
35
26
17
20
16
4
10
16
11
15
16
17
24
27
29
33
22
27
33
16
6
15
21
26
34
27
27
34
33
22
17
36
38
53
74
93
103
132
129
142
148
134
135
135
122
112
97
56
37
54
45
32
32
32
27
34
34
30
34
31
33
24
25
24
20
30
33
30
31
23
23
24
34
32
34
43
36
35
30
36
29
31
20
30
39
31
35
26
39
44
37
34
36
29
25
22
27
29
48
36
39
47
48
44
22
39
43
42
40
39
49
44
53
52
23
27
35
32
36
34
43
49
61
66
56
61
49
57
59
54
51
53
63
70
53
59
55
67
63
56
62
70
72
61
67
79
82
60
71
79
75
80
76
80
79
82
91
87
103
84
92
97
79
86
77
76
89
91
87
83
71
68
75
94
67
71
67
54
52
46
42
49
42
39
55
49
39
42
31
48
36
35
26
14
19
35
55
46
30
22
34
32
29
31
23
20
21
27
31
19
12
16
14
15
28
29
20
16
25
23
30
26
33
27
36
21
17
22
28
28
13
9
25
38
35
29
26
26
24
29
23
15
31
30
16
25
39
22
29
27
24
22
26
35
28
34
28
29
24
40
27
42
30
31
28
25
7
20
31
34
42
44
26
29
18
37
38
40
43
41
46
55
54
45
39
36
38
37
29
24
34
33
30
35
34
31
42
47
31
33
20
31
34
15
21
21
22
24
14
32
21
27
26
23
20
17
9
13
23
14
9
22
17
19
18
22
16
22
18
25
12
16
12
29
33
22
5
12
19
23
19
25
24
28
21
21
27
26
13
21
15
16
21
26
66
101
111
130
134
155
154
140
118
132
132
116
88
43
25
34
33
20
19
25
26
28
42
33
29
25
29
26
32
26
22
23
32
30
28
35
22
22
17
15
29
27
42
31
31
33
38
27
27
27
16
28
28
35
35
7
22
32
40
44
45
41
33
39
28
9
36
42
39
35
35
40
38
34
26
11
28
49
61
54
37
44
41
40
38
40
42
48
54
45
47
43
46
51
57
47
55
53
46
44
62
73
61
62
55
68
68
64
63
63
72
73
76
70
71
78
82
85
78
86
75
72
88
89
85
80
83
82
83
90
88
91
83
77
77
80
79
74
71
57
63
69
55
44
57
50
50
50
46
46
47
38
44
28
12
20
35
36
33
22
19
19
18
11
12
29
29
28
33
34
9
9
22
15
15
30
35
21
26
5
8
23
10
6
8
16
17
10
24
28
28
15
14
15
27
26
24
27
18
17
20
32
17
12
16
20
33
27
32
21
21
14
20
15
17
28
36
18
20
22
24
21
28
29
32
11
5
9
15
17
13
22
21
18
29
26
26
30
28
29
37
31
29
27
32
36
28
28
22
32
47
41
36
41
34
36
32
25
37
30
33
26
31
39
34
18
14
6
2
2
17
36
30
19
13
6
11
19
21
4
10
15
12
14
4
18
10
6
20
17
-1
11
19
16
9
7
19
12
13
18
12
6
7
12
12
5
9
10
13
13
13
10
14
7
22
23
14
13
14
31
42
53
71
111
132
139
145
157
153
160
141
136
99
75
54
5
12
22
11
7
3
17
37
41
24
33
24
29
21
22
21
19
12
17
19
18
26
17
18
19
24
33
22
24
13
15
36
29
20
13
27
25
17
26
34
25
8
28
28
38
30
25
26
38
29
26
16
32
25
21
14
28
25
20
33
37
35
36
33
48
32
22
26
61
47
29
31
38
45
49
46
42
43
34
26
37
55
48
51
58
63
60
58
56
55
54
51
50
47
57
68
72
75
78
64
81
94
92
84
64
73
82
73
68
86
79
75
74
86
100
75
83
78
93
80
74
81
67
81
72
64
70
64
61
49
37
44
49
50
40
32
20
34
45
35
25
30
36
31
20
18
18
23
41
26
16
9
27
17
10
17
7
0
2
9
13
30
33
22
12
17
17
18
16
19
8
9
24
30
15
12
16
16
33
20
5
12
21
24
16
7
12
17
21
23
23
18
19
17
7
0
7
13
17
24
27
25
26
18
18
24
28
23
10
5
8
20
14
24
15
16
15
16
20
27
25
24
20
23
26
21
14
21
20
12
17
21
27
12
7
18
33
47
46
48
27
22
25
33
32
36
27
27
20
26
19
29
36
27
29
28
25
25
5
17
3
4
7
12
18
16
13
25
7
-3
9
8
7
-13
-8
4
4
5
17
18
20
14
13
8
6
8
2
13
17
12
3
8
0
0
9
12
9
10
11
17
14
5
5
7
12
32
14
-2
-7
7
20
31
51
45
64
82
117
155
174
164
152
148
137
132
116
78
30
14
17
25
20
13
13
19
20
29
17
22
30
27
17
14
11
12
15
8
18
11
18
13
11
16
17
18
15
19
27
29
23
27
23
29
17
18
29
23
25
28
22
21
24
27
26
25
14
26
24
24
28
24
19
20
28
29
31
34
31
28
28
35
47
37
39
32
28
25
30
38
38
36
40
54
54
51
40
38
43
37
36
48
59
51
42
44
49
47
60
47
53
73
64
67
70
73
73
64
60
66
76
76
78
74
76
76
80
70
74
82
85
84
81
80
76
77
71
76
80
63
68
83
78
82
68
63
50
56
64
46
45
54
50
46
29
35
28
35
31
27
26
29
28
21
29
17
15
20
20
18
23
17
9
11
25
28
30
24
12
17
10
-3
10
12
16
17
20
16
5
11
22
27
21
26
21
16
10
1
14
16
19
17
26
30
19
16
18
11
12
11
17
15
10
30
18
19
29
23
25
24
25
15
23
19
17
20
15
10
17
24
23
10
15
16
19
21
14
12
10
18
16
18
11
19
26
23
22
28
14
27
32
18
13
14
16
17
18
16
28
27
28
23
29
35
30
23
33
28
15
20
29
26
35
25
33
35
18
33
28
27
36
19
24
27
15
15
14
14
10
14
24
23
10
14
6
8
3
12
7
27
14
10
11
4
8
9
11
-1
-8
4
12
13
9
8
7
9
8
14
22
9
19
18
5
18
12
13
22
8
5
12
10
13
21
20
-1
2
-1
5
10
28
35
48
80
109
133
140
153
151
150
126
132
132
110
73
25
27
16
6
-13
2
17
18
20
30
26
23
27
24
18
6
16
11
20
15
21
9
12
27
23
22
20
28
27
26
22
23
21
24
24
22
13
25
30
24
24
23
23
20
21
22
29
34
39
33
27
22
25
20
24
31
38
35
33
34
23
32
38
37
41
28
29
26
25
32
46
48
46
41
36
40
37
33
41
52
58
51
48
58
58
55
49
49
53
68
50
57
57
63
61
68
51
63
74
64
68
69
65
72
64
73
82
78
77
90
95
84
69
72
74
74
74
77
71
71
82
87
84
78
74
73
72
67
57
53
47
42
45
51
39
38
24
30
36
35
28
33
25
16
18
21
24
5
8
20
28
13
20
18
13
14
20
6
9
14
20
17
1
10
1
18
19
17
12
20
16
14
13
22
17
-1
13
21
26
16
-3
8
18
21
15
14
8
-3
-2
-1
17
29
26
16
3
10
16
21
26
20
15
22
13
21
19
13
13
14
28
18
5
17
25
21
19
19
21
15
14
15
15
19
14
11
27
23
14
25
25
15
14
13
5
15
26
34
40
33
30
28
23
19
12
27
46
40
42
36
29
28
32
25
18
22
34
22
20
9
8
22
22
17
16
15
27
20
11
15
22
18
4
0
8
8
16
22
-8
-14
-3
13
17
17
26
8
11
15
12
12
2
14
14
1
17
10
2
3
7
5
7
8
1
-1
-5
8
19
10
7
24
26
10
13
15
21
21
36
51
75
96
120
122
137
130
110
117
129
134
108
90
43
26
19
34
23
24
19
-3
9
5
22
21
26
18
25
14
15
16
28
4
4
20
11
24
32
14
17
23
18
16
8
17
21
15
20
15
20
17
25
19
22
5
10
11
-8
13
24
16
11
23
26
21
29
32
30
33
31
9
6
20
24
31
30
23
26
32
34
26
24
26
23
33
40
31
38
44
49
33
22
13
26
38
42
30
45
52
41
42
31
36
52
47
47
50
56
69
70
75
70
66
58
61
59
62
62
63
72
74
73
74
70
66
64
69
78
65
58
57
67
74
65
65
59
66
71
64
53
47
41
49
59
47
25
29
34
30
34
29
29
26
16
19
18
15
21
11
12
24
17
16
15
13
17
25
0
-7
5
21
21
13
0
4
-2
-5
2
11
28
20
8
17
17
14
-4
1
10
12
15
15
4
5
19
11
7
13
6
8
3
9
10
12
13
3
10
12
8
5
12
8
-1
13
17
22
12
13
16
11
8
21
15
2
5
13
5
2
14
10
7
17
20
22
14
0
-3
3
5
16
16
2
-4
8
17
9
-1
10
24
20
17
10
1
13
-2
0
12
4
12
22
16
1
6
17
21
9
9
15
19
28
36
23
21
19
25
25
25
18
10
12
10
13
13
25
10
15
15
7
11
13
13
2
1
-12
-12
4
4
6
7
-3
1
8
8
8
6
5
-9
-8
0
12
6
-3
-1
-13
-18
-17
2
15
14
0
-20
-5
-3
-7
-1
1
4
3
3
-12
15
12
9
-1
5
13
2
-2
11
22
25
41
67
86
98
101
126
139
139
136
128
128
119
85
44
24
-2
2
-5
3
0
-1
11
13
8
8
12
8
23
14
5
1
3
-5
3
-2
9
16
9
9
9
-1
7
8
15
8
-2
5
10
13
15
18
9
6
14
15
11
6
5
-7
12
25
26
30
9
10
18
11
8
-2
10
4
21
24
21
16
18
19
20
24
21
16
4
14
29
28
23
23
35
35
34
30
23
34
25
21
36
34
30
30
26
32
31
33
42
49
56
50
45
54
51
60
53
52
41
47
50
48
61
40
53
75
74
64
57
68
71
75
85
68
60
64
65
60
44
41
55
60
60
70
57
42
43
38
37
44
40
30
36
31
23
20
16
14
22
27
18
12
0
6
2
4
8
7
13
6
-4
-1
-5
-7
2
8
4
-4
-13
5
9
9
-2
-4
5
14
13
5
8
4
-2
-8
-4
-5
-7
7
2
-9
-2
7
16
7
3
-8
-5
9
12
17
3
-10
-17
-17
-5
13
21
16
12
-1
-4
0
-6
-8
7
8
-2
6
3
3
1
-1
2
14
7
-4
10
12
-3
-4
3
5
6
4
5
13
-10
-3
-1
1
-2
2
-6
2
4
-3
4
-3
3
4
1
-2
1
3
1
1
-19
-21
-6
6
25
13
-1
-4
8
7
-10
-3
4
3
5
-5
5
16
28
27
27
9
23
16
3
16
17
17
1
8
7
11
6
7
7
12
11
1
1
-13
-9
-4
4
9
-2
-5
-4
-5
-3
-4
-10
2
-2
-17
1
3
-8
-4
0
-1
-8
-16
-10
4
-1
5
-3
-2
5
-7
-7
-6
-8
-1
-15
-11
-11
-6
-14
-18
-23
-5
11
3
-4
8
16
7
0
0
9
25
27
45
76
90
106
112
133
130
129
125
125
127
97
69
38
4
-7
-3
-1
-8
8
14
9
9
7
-3
8
13
13
-2
1
12
19
2
-3
-14
6
3
3
5
1
5
8
14
3
2
7
2
16
11
-6
-4
5
11
-4
9
13
5
13
20
13
16
-4
14
20
11
15
14
10
15
24
27
19
10
17
15
21
26
25
18
12
13
20
31
28
25
26
24
18
22
30
25
23
20
38
36
36
36
32
39
40
37
20
42
53
54
53
42
47
53
54
60
47
40
51
65
64
67
70
68
66
68
60
67
57
74
86
69
60
69
74
67
64
74
74
60
65
62
56
46
44
52
44
55
53
46
36
32
35
32
23
30
22
17
29
26
20
15
-4
8
14
19
21
3
-2
6
8
3
-4
9
26
12
13
9
-4
-2
-8
4
2
13
14
6
5
8
11
17
-9
-17
-3
5
9
10
11
10
16
3
4
2
3
11
9
2
-8
-5
0
15
19
18
13
10
-3
-13
-3
12
20
10
6
12
-2
-6
13
13
12
4
9
9
19
11
1
-11
-2
11
8
-2
1
3
2
5
6
3
6
7
2
2
14
2
4
10
-8
2
23
10
-3
-9
0
7
-1
0
12
5
1
1
2
-9
-5
-1
26
4
-4
10
17
14
11
9
8
14
9
32
19
3
-5
-2
-1
17
22
21
33
33
19
10
7
11
12
15
5
-4
9
2
2
4
-13
8
8
13
10
9
-6
7
1
2
-1
5
-13
-8
0
-4
17
-11
1
0
-12
-11
-3
0
-12
-3
2
-2
1
0
1
0
-3
-4
-8
2
8
2
3
-4
-4
-9
-11
9
26
8
7
-12
-1
2
7
16
24
40
61
90
96
119
143
145
144
114
111
114
86
73
26
5
-11
-6
-5
-14
-6
-17
-8
-1
10
5
13
17
31
14
13
4
-1
12
7
10
14
22
17
9
-4
-2
9
12
1
-1
17
10
21
20
19
10
-1
9
24
22
16
18
17
25
20
19
14
8
14
8
14
18
11
14
20
20
18
24
16
14
16
40
25
21
21
18
18
19
22
22
34
29
27
38
42
33
22
26
25
32
32
39
44
48
44
49
55
35
43
52
49
51
60
65
53
54
59
61
64
64
64
66
64
63
73
67
89
66
79
77
72
62
64
63
56
51
62
84
89
85
59
62
64
47
50
52
59
57
41
40
44
36
33
36
25
6
10
11
21
22
20
18
20
13
3
2
4
5
16
0
7
5
4
-5
6
3
4
0
2
2
8
5
1
10
8
0
-5
2
7
0
0
2
7
