25
24
39
36
30
30
44
52
56
56
45
42
37
27
31
38
37
36
40
52
54
54
53
30
38
45
45
50
48
42
40
39
45
56
40
32
40
47
49
54
57
55
55
39
31
45
36
35
47
47
33
28
43
39
38
38
28
35
31
31
34
40
40
39
32
35
32
37
37
29
32
33
35
31
33
29
29
25
25
28
33
37
32
34
28
29
43
63
88
91
95
102
114
129
146
143
146
140
144
142
137
139
106
60
53
43
22
10
13
22
30
35
34
38
36
21
19
34
36
34
45
34
38
45
54
46
48
44
38
31
39
45
48
42
34
45
52
54
50
50
56
49
50
61
60
44
52
56
60
57
56
66
56
53
66
60
58
56
65
62
57
52
60
58
57
62
77
70
60
68
74
72
70
75
77
82
86
105
110
84
71
77
79
71
74
80
87
95
108
97
80
82
79
77
74
73
60
61
71
68
55
51
55
61
56
53
55
54
49
46
41
43
40
40
46
47
48
37
31
33
37
25
12
26
31
42
50
47
45
34
24
26
31
24
27
25
26
26
31
29
28
23
26
33
39
29
33
48
34
29
29
28
19
28
35
45
47
41
35
25
25
27
23
24
24
32
34
35
42
35
32
39
41
43
42
34
42
45
39
40
30
33
46
43
27
24
18
18
28
40
51
44
45
39
42
42
30
38
39
38
35
44
41
42
41
47
38
43
46
43
41
40
45
34
39
40
36
39
40
36
33
33
31
28
30
36
45
44
42
54
37
37
22
14
18
21
32
22
14
31
29
26
29
35
43
37
29
29
27
27
35
23
21
27
25
16
5
7
20
26
30
46
65
75
82
80
98
108
119
134
137
141
139
133
141
147
136
109
74
48
36
31
17
17
8
11
25
30
27
24
32
27
25
24
26
35
36
34
30
36
37
30
34
39
38
33
29
32
36
37
39
40
56
50
41
38
48
50
43
46
37
28
32
36
37
37
47
56
65
56
46
43
52
52
55
59
50
51
57
55
44
56
61
60
67
69
71
72
77
80
85
72
67
66
67
61
63
72
74
71
79
78
72
82
81
75
79
81
64
65
84
85
68
52
39
38
44
50
45
49
42
31
36
39
31
34
36
41
34
32
24
23
17
17
18
22
28
33
41
26
17
22
18
8
10
26
24
22
22
25
25
24
21
20
25
25
22
23
27
22
9
-1
8
18
15
16
18
13
17
18
26
29
42
39
14
15
19
17
9
18
16
20
22
22
27
33
25
27
32
25
21
27
22
9
5
11
19
23
24
29
31
30
27
22
25
21
22
24
35
37
32
28
21
28
25
32
31
28
28
31
27
32
34
20
9
21
26
29
32
29
29
20
28
21
21
27
24
30
28
27
30
22
20
26
14
22
10
4
10
9
10
13
15
11
18
28
25
15
21
22
19
24
24
11
17
10
7
4
0
-1
3
8
16
22
40
59
77
83
99
106
117
137
146
151
146
139
138
140
131
97
64
48
33
25
20
9
0
-1
1
0
6
16
21
22
16
10
18
22
20
20
27
28
24
29
29
31
17
14
22
29
26
28
36
33
38
25
26
23
11
14
23
27
29
35
32
25
26
28
32
36
34
29
30
40
40
35
27
34
37
37
41
47
51
46
51
57
57
67
66
61
57
62
60
56
61
67
56
55
63
61
55
58
69
68
81
75
83
63
53
63
63
48
41
50
50
47
44
38
40
40
33
36
32
31
30
30
17
15
15
20
15
18
17
14
15
15
10
8
22
31
20
4
-1
8
9
9
-4
8
6
0
6
3
13
18
0
-4
4
4
10
5
0
2
3
2
9
8
9
14
12
9
10
13
-1
-3
11
6
3
10
10
1
6
11
15
15
16
10
9
17
15
10
17
12
4
-9
-5
4
7
-1
3
8
13
16
12
2
10
20
17
5
4
6
12
11
12
23
33
21
20
31
38
21
15
9
12
11
9
7
14
20
10
7
6
15
15
17
17
24
27
16
9
11
8
6
13
19
12
7
13
11
4
6
10
5
2
6
20
26
5
6
11
4
7
13
2
5
8
8
4
3
8
1
1
4
-3
-4
-4
-11
-13
-5
11
33
52
72
86
104
111
135
152
141
143
148
141
138
143
139
108
81
60
40
9
-5
-3
-13
-4
2
9
20
28
30
5
1
7
10
18
18
27
29
24
25
32
23
27
9
-5
2
11
13
12
18
20
27
26
25
30
30
29
32
24
21
29
31
23
18
28
24
23
32
38
39
43
37
46
30
24
39
30
30
32
35
43
42
42
44
56
55
56
59
58
65
66
74
70
63
64
58
45
52
56
61
78
76
67
61
53
60
64
69
63
47
42
46
44
46
51
45
42
39
39
36
37
27
22
19
21
29
24
21
11
8
15
15
8
8
14
19
29
14
6
9
12
13
15
13
11
11
12
18
18
20
16
11
13
15
8
9
11
18
22
27
21
19
13
13
15
16
11
9
17
21
23
20
20
17
22
29
18
20
27
25
14
15
7
10
12
15
21
20
20
31
26
21
20
21
23
24
11
16
27
27
32
28
35
28
14
19
23
7
12
18
21
23
21
21
9
12
13
14
15
18
23
27
25
31
34
27
16
11
19
23
25
24
30
36
44
34
29
34
29
19
11
17
21
21
25
24
30
31
34
33
21
15
17
11
15
16
19
22
21
19
13
16
21
16
22
28
27
35
32
25
21
30
31
28
19
12
12
13
10
6
13
8
9
7
5
14
30
42
61
69
88
108
129
152
160
168
187
185
174
169
160
153
122
95
76
67
61
38
8
6
13
20
22
24
29
22
11
18
22
22
23
27
24
20
30
35
29
27
31
34
31
40
33
29
37
42
46
46
29
26
38
54
30
41
43
39
38
31
30
25
31
32
42
42
45
43
49
53
49
40
45
51
52
52
60
52
57
65
68
61
64
81
80
62
62
73
81
81
87
91
88
81
80
85
83
77
82
82
79
76
79
82
78
74
72
79
85
84
78
77
65
64
68
63
62
75
67
44
39
32
38
32
33
41
44
41
38
39
46
45
39
32
36
37
35
31
27
25
30
34
39
44
44
38
27
25
33
35
40
31
32
42
47
34
31
35
39
41
33
30
33
31
35
46
42
40
37
34
38
33
32
32
35
45
38
41
53
56
41
21
25
34
36
39
38
36
30
30
35
36
29
30
35
39
40
51
45
37
38
32
39
48
51
38
35
32
31
37
36
26
35
43
44
37
37
41
47
41
33
36
37
36
39
36
38
44
43
46
43
39
43
46
42
47
42
50
47
51
50
39
41
48
46
45
48
51
51
48
49
44
47
54
48
46
51
44
50
58
63
59
42
24
21
23
28
37
38
36
41
33
30
39
35
38
50
53
45
26
22
27
40
40
40
42
44
43
43
46
32
18
17
24
23
39
48
55
63
77
96
117
143
159
180
187
198
207
205
207
203
189
144
109
98
91
68
35
27
25
25
35
26
30
45
47
34
41
45
43
32
39
39
47
44
43
44
45
46
45
49
52
49
50
51
52
52
51
55
59
53
42
40
45
46
59
65
71
73
50
61
66
48
54
59
68
64
59
57
56
52
54
64
64
72
74
69
75
75
75
83
83
85
89
85
83
76
83
84
91
97
80
88
91
95
93
95
106
99
89
94
112
111
93
79
80
86
76
81
79
64
71
67
62
59
65
67
64
61
63
56
49
46
56
60
59
53
61
50
36
35
37
37
41
55
42
41
27
33
41
42
46
45
48
48
45
43
36
33
33
40
43
43
46
39
40
43
42
40
40
42
42
46
43
40
37
37
41
48
46
49
44
41
40
43
64
49
42
42
40
45
55
52
48
49
52
55
54
50
51
53
54
45
39
46
50
49
44
41
45
52
46
52
53
35
32
42
42
37
41
50
48
35
36
36
36
39
44
48
52
55
53
50
45
41
44
47
50
45
44
47
53
51
52
53
49
55
62
53
47
44
37
40
43
39
51
58
70
52
41
46
45
45
55
60
55
56
56
59
58
48
44
54
61
57
60
62
57
56
61
59
55
54
51
48
48
39
40
40
43
46
40
41
43
40
41
42
41
51
44
43
47
47
51
55
55
53
51
39
30
38
45
32
33
31
32
46
55
57
73
91
110
121
131
155
181
197
198
192
192
194
189
177
147
104
88
64
48
43
28
22
25
32
35
35
39
46
36
45
51
63
55
48
50
55
56
59
52
43
45
55
62
57
55
56
54
57
54
63
61
47
53
59
63
67
70
70
62
68
64
58
62
72
79
76
66
73
67
56
65
65
66
68
72
76
83
85
97
100
90
81
64
71
76
79
78
78
84
95
99
97
104
104
100
99
111
108
97
114
100
83
90
90
92
92
89
97
96
102
103
90
86
91
83
76
69
72
76
72
58
55
60
58
57
66
79
76
49
40
46
48
46
50
49
51
48
41
39
38
32
36
44
45
45
45
43
49
47
43
48
56
49
39
43
49
52
54
60
58
56
60
46
36
44
52
65
38
30
46
54
54
41
46
54
54
54
50
49
49
49
41
48
43
51
52
48
55
59
56
54
55
62
60
56
73
60
55
44
34
47
47
58
51
47
46
52
51
58
48
47
61
58
43
41
43
42
36
36
44
49
66
72
71
52
49
55
44
44
60
54
46
47
51
59
57
50
51
53
48
50
57
50
55
63
54
49
51
54
61
62
68
67
63
64
62
56
56
47
48
55
64
62
57
53
48
45
38
37
41
43
51
51
44
36
45
49
47
52
53
56
57
51
52
50
50
44
39
34
42
46
40
49
46
40
41
33
39
49
55
69
86
92
98
116
142
162
170
185
191
191
183
177
178
174
156
116
95
84
71
63
47
29
30
47
42
49
50
39
40
47
61
58
53
62
53
55
55
52
59
60
56
67
70
67
63
49
55
55
65
77
74
64
67
70
59
49
54
53
52
54
59
61
62
61
68
70
78
76
72
74
69
65
72
74
83
89
89
95
90
71
81
77
84
83
77
80
88
95
99
100
108
98
86
96
87
86
88
88
93
103
110
99
100
111
100
94
96
84
90
102
91
82
81
82
80
64
74
75
66
70
63
65
68
74
77
63
42
49
54
51
44
37
47
49
53
61
53
58
55
53
56
58
58
59
64
57
42
43
55
58
50
46
52
50
48
49
44
44
54
49
46
63
60
57
52
52
46
51
54
52
54
55
60
52
52
48
53
57
72
58
47
52
44
44
51
50
52
49
56
65
63
66
66
61
55
50
44
47
48
57
48
56
58
63
64
54
50
52
55
57
49
45
52
46
50
50
53
50
51
52
54
52
53
63
73
73
55
57
64
65
62
64
62
58
56
57
58
57
62
57
53
60
59
50
52
62
64
68
69
65
59
53
62
71
66
57
70
56
41
43
51
56
52
55
61
60
51
54
53
52
43
39
56
47
51
59
63
63
56
55
46
49
48
52
55
56
53
51
44
44
41
32
27
39
50
83
92
114
122
138
144
165
181
179
178
183
177
182
184
166
134
109
87
71
54
49
41
44
35
38
47
42
43
55
57
59
66
66
62
62
73
70
62
59
50
59
59
61
69
73
72
73
70
77
68
48
50
60
58
53
62
62
63
70
73
79
78
78
64
54
62
67
69
79
81
79
82
86
71
67
85
86
80
84
92
93
95
100
103
93
86
80
81
86
87
92
98
106
111
106
97
93
102
103
97
97
104
102
105
109
105
102
104
103
98
97
95
95
88
83
86
89
77
68
63
53
62
74
67
59
53
50
51
57
60
53
45
54
59
57
59
47
38
45
52
60
63
56
56
41
40
47
50
56
55
56
58
49
53
48
39
45
48
52
52
62
59
49
54
48
53
54
64
60
60
55
57
54
54
61
48
49
54
59
59
59
54
44
46
47
48
49
49
51
56
64
63
57
45
49
58
60
52
48
54
63
74
51
46
50
48
48
59
55
50
49
59
61
60
62
64
59
41
33
45
46
46
48
61
57
51
50
39
32
44
50
55
53
48
62
66
52
56
59
65
65
55
53
62
65
67
68
61
57
61
60
49
51
62
54
47
50
48
52
58
64
70
78
77
46
52
53
50
51
45
43
53
61
67
59
59
48
50
48
48
42
45
59
58
63
54
58
57
47
42
42
45
42
50
45
45
54
48
46
42
43
38
46
59
79
95
105
112
132
154
168
183
201
216
218
209
208
214
207
195
154
132
118
94
71
56
49
54
49
48
57
67
73
66
77
93
79
59
57
66
62
70
65
71
81
64
52
54
62
73
71
75
79
82
80
83
80
82
72
73
76
66
70
83
78
87
94
89
90
92
81
75
76
78
83
91
82
89
98
92
98
110
99
96
97
100
99
102
106
110
107
118
126
119
133
122
122
124
116
126
114
117
113
112
121
119
130
130
113
112
125
127
120
128
122
120
111
121
120
111
113
86
97
111
93
104
104
93
107
120
107
117
82
79
76
89
95
86
86
96
100
91
85
62
75
80
86
83
88
91
91
87
83
82
81
85
96
92
69
76
84
89
99
86
94
103
96
101
91
87
77
92
91
87
86
89
88
103
103
104
101
86
102
96
96
91
81
94
101
100
106
89
79
83
98
105
77
79
88
97
104
116
101
109
112
101
108
98
60
85
86
73
97
91
102
106
100
103
104
83
89
83
100
100
86
80
82
91
97
95
93
96
87
87
82
71
81
91
97
112
119
93
115
102
107
81
86
82
95
92
92
93
93
82
98
110
99
93
103
92
86
96
91
83
95
88
88
94
102
81
78
82
78
96
107
110
78
85
91
52
60
65
61
73
76
71
82
76
78
72
76
78
82
68
80
69
67
67
66
60
52
65
80
108
135
143
166
200
210
235
243
248
244
232
224
234
206
173
133
112
100
78
61
68
59
49
48
41
71
67
80
86
87
64
60
78
82
94
72
69
81
75
89
98
86
88
73
58
61
62
70
64
63
70
83
86
84
86
82
77
84
86
85
72
79
80
80
78
80
77
81
75
70
87
76
80
77
68
66
55
63
71
63
56
54
57
54
42
30
43
41
43
48
43
48
91
114
135
181
249
299
342
400
443
474
511
559
630
681
743
790
839
875
928
984
998
1016
1037
1086
1134
1197
1253
1297
1343
1389
1430
1477
1530
1573
1621
1666
1709
1754
1790
1822
1848
1875
1899
1904
1922
1935
1959
1969
1983
2001
2021
2023
2023
2023
2023
2023
2022
2023
2023
2023
2023
2021
2022
2023
1986
1927
1891
1855
1800
1764
1732
1706
1678
1640
1615
1596
1557
1515
1507
1489
1467
1451
1413
1392
1368
1358
1343
1325
1303
1276
1271
1263
1239
1213
1185
1165
1166
1151
1123
1099
1097
1082
1074
1054
1038
1031
1011
995
986
968
963
963
950
943
928
915
895
867
861
860
848
846
845
842
841
839
825
808
801
777
780
771
770
758
749
747
738
731
730
728
719
702
694
693
682
682
684
681
671
667
656
643
642
636
633
634
625
622
614
601
597
598
598
581
578
576
575
574
569
567
570
561
564
565
554
550
551
538
533
527
512
500
521
522
492
491
497
483
476
473
475
491
495
501
506
526
539
556
574
579
587
590
597
607
601
593
584
556
517
482
442
422
410
404
401
392
387
386
384
390
399
408
407
396
396
397
391
385
386
387
385
374
383
382
382
380
377
371
380
382
383
369
371
364
361
354
348
348
347
344
350
353
358
360
364
357
352
349
338
317
340
337
329
337
326
325
331
333
321
324
325
332
333
313
310
321
321
325
323
327
326
318
319
323
329
319
319
322
319
319
314
316
313
306
304
299
299
303
298
285
286
288
290
291
288
274
271
268
270
274
269
259
258
245
245
240
240
246
245
242
233
232
234
240
230
210
204
203
201
213
205
200
205
206
205
211
197
205
202
189
193
198
201
193
195
182
184
180
176
182
176
175
177
185
183
188
184
184
178
173
181
173
176
181
179
167
169
166
170
166
169
170
169
164
175
167
155
155
162
166
170
174
165
172
168
155
148
151
158
148
142
142
142
146
143
141
149
134
143
146
147
144
137
144
140
142
143
138
139
150
150
141
149
136
130
126
134
140
145
136
138
141
149
141
142
129
138
135
122
123
130
132
125
123
124
122
115
128
138
136
137
134
122
120
121
129
120
108
111
115
89
98
99
106
106
97
107
114
121
110
111
128
119
115
120
128
121
103
101
103
97
97
95
94
103
112
119
130
154
177
194
192
216
242
261
279
274
271
260
261
253
236
193
158
144
127
102
92
90
83
90
92
97
89
86
89
91
95
111
121
110
105
97
88
92
102
109
109
107
107
95
84
95
99
113
106
103
114
109
116
96
87
96
103
98
100
105
113
119
134
135
99
99
104
106
110
107
118
116
116
113
109
108
121
116
123
122
118
126
131
132
114
122
119
130
131
130
137
139
149
142
132
134
123
128
131
127
132
135
137
141
126
126
132
131
128
126
102
102
118
107
107
102
109
111
103
105
111
95
87
88
89
83
87
80
71
77
75
77
74
71
59
63
64
60
61
63
67
70
67
59
56
62
53
63
66
58
77
75
60
48
57
63
56
61
53
61
59
59
66
60
51
65
69
72
79
66
47
48
59
56
50
51
56
61
56
58
64
73
63
53
52
65
43
41
50
53
57
61
62
63
54
52
55
57
43
44
46
51
60
59
67
56
55
55
49
62
66
66
76
67
61
63
59
56
55
49
53
59
52
50
58
64
55
56
57
55
50
52
62
62
63
59
51
53
49
60
47
45
51
53
57
60
65
63
51
40
38
37
41
37
47
51
55
56
38
35
51
49
40
38
44
38
32
32
44
51
45
24
10
16
28
22
50
54
52
88
108
124
137
171
185
207
197
205
210
211
196
183
153
117
83
71
59
44
25
24
30
19
7
15
26
31
33
25
27
41
31
27
28
38
27
20
29
27
34
22
25
23
22
31
28
44
32
7
20
30
29
31
28
31
31
35
20
17
29
41
52
34
28
32
40
34
23
29
23
22
34
38
41
33
46
43
43
49
53
49
56
61
49
49
59
44
40
43
52
63
68
64
67
61
54
57
67
68
62
61
62
71
71
49
40
42
43
42
43
49
49
48
40
40
36
24
27
30
28
27
22
23
29
30
23
8
18
27
26
20
9
1
0
3
9
23
16
16
20
9
17
17
-3
-6
3
1
-5
11
7
5
6
12
18
11
10
25
17
9
-3
-1
0
7
13
22
14
13
11
5
13
19
15
12
13
6
2
4
7
15
13
17
26
19
26
20
35
7
-4
2
10
6
2
6
12
24
14
6
19
21
26
22
22
27
23
13
19
24
16
11
26
21
16
16
17
24
30
36
26
15
27
18
23
31
35
31
17
25
20
20
14
22
21
27
31
26
21
16
18
10
9
13
22
31
20
-5
9
14
9
10
7
12
16
21
18
24
16
3
6
22
26
27
17
12
16
12
9
-3
-8
1
-2
8
24
46
81
105
105
118
160
178
173
176
186
186
182
190
162
116
88
75
56
33
2
-10
1
9
12
28
30
21
19
16
4
16
24
34
36
20
25
27
30
33
30
38
31
24
18
36
49
45
29
17
19
21
32
48
23
6
47
44
47
39
36
50
28
40
61
60
48
56
52
56
50
44
43
56
63
69
75
48
39
57
63
58
65
65
90
79
67
80
56
66
78
82
78
87
80
83
71
100
120
62
64
82
84
91
85
85
77
56
83
73
67
70
59
59
56
66
75
67
50
61
55
57
40
37
46
43
45
46
36
49
47
8
33
37
25
31
38
36
54
47
43
17
20
41
45
40
37
46
35
27
34
44
40
37
25
34
50
46
45
21
14
21
40
47
42
53
50
27
24
19
36
40
50
70
35
29
38
43
22
20
29
49
42
72
63
46
44
40
46
41
58
45
20
17
43
46
38
46
53
43
33
31
44
66
76
75
40
39
52
53
53
55
55
72
58
54
31
32
51
62
68
66
79
62
56
55
36
43
53
40
38
56
54
70
49
39
32
38
36
41
44
45
44
43
50
42
35
33
52
53
29
45
55
39
49
53
48
56
50
33
30
43
38
50
19
24
26
33
35
64
67
76
97
100
126
163
188
192
217
215
196
199
204
225
168
148
119
104
75
52
42
16
2
23
46
44
47
38
44
50
37
59
58
62
68
79
60
45
70
68
59
62
55
60
58
53
64
73
72
93
95
75
67
46
66
78
60
38
68
72
66
69
69
73
87
83
65
77
83
94
99
103
71
85
87
83
77
71
75
94
100
111
113
97
92
86
102
89
97
96
107
100
108
122
100
108
123
127
109
108
110
104
111
114
120
119
123
134
99
82
98
102
110
103
90
88
94
84
82
95
95
90
91
92
84
76
71
54
53
63
64
70
75
70
53
54
62
72
74
57
59
77
73
71
61
60
56
61
78
62
58
62
59
74
74
70
72
56
57
64
67
53
69
75
75
71
72
72
63
62
65
67
81
84
88
59
70
72
76
77
69
63
77
71
79
93
95
79
85
69
64
72
71
69
68
72
77
78
83
75
61
70
83
88
83
81
80
79
81
79
82
92
93
99
88
79
88
93
99
86
68
79
82
87
89
88
86
93
97
97
89
79
79
82
92
88
87
82
81
83
75
77
78
84
81
74
67
68
71
74
73
74
75
72
79
86
76
76
78
76
80
78
74
76
86
94
81
61
62
62
61
50
64
86
113
117
118
135
165
185
208
234
244
245
241
245
245
246
235
216
167
119
103
87
81
73
51
59
67
75
78
74
79
82
81
82
83
85
84
89
89
87
91
82
76
75
75
78
72
72
69
71
73
72
73
67
66
69
68
61
65
71
66
62
73
76
61
56
56
61
63
66
69
84
86
70
68
68
67
76
75
74
62
57
63
77
81
86
90
85
84
86
93
89
89
94
98
100
101
99
100
97
96
96
99
95
94
100
95
92
93
90
90
93
92
86
81
87
85
74
73
76
65
64
67
66
64
49
54
59
53
59
64
51
50
49
54
59
61
59
56
43
43
38
34
40
36
43
55
55
57
64
63
51
50
44
45
52
60
63
64
67
60
65
57
50
47
50
59
63
71
69
66
69
65
66
68
62
59
60
70
77
72
76
77
61
61
67
63
70
77
79
70
69
71
76
79
68
73
80
83
83
79
74
72
78
78
75
70
78
82
85
84
82
81
80
78
79
82
82
96
100
96
89
87
85
84
88
93
83
90
95
98
94
93
97
98
89
86
92
94
92
91
91
96
90
89
91
96
91
88
91
86
87
88
95
94
101
88
91
88
94
85
86
89
92
89
97
98
90
98
84
84
91
88
89
82
77
74
77
75
77
89
90
111
130
147
158
176
201
212
223
239
242
254
267
257
256
238
218
185
162
144
126
115
108
106
95
87
88
82
82
98
111
115
120
123
115
104
119
121
114
88
85
93
104
111
118
118
119
120
118
120
120
126
129
134
130
130
137
122
114
114
112
119
120
126
129
128
133
136
146
150
144
134
130
139
143
135
145
139
144
146
149
157
162
159
147
144
150
153
158
163
168
170
180
179
175
173
171
166
170
173
175
160
154
156
168
169
169
171
173
179
179
156
159
166
167
168
169
154
152
136
129
128
125
128
133
132
134
135
136
139
141
135
133
125
120
124
126
123
122
126
126
119
113
111
117
114
117
123
135
129
122
130
137
140
135
116
116
111
116
123
126
122
125
128
120
127
130
117
118
128
142
150
146
128
126
127
125
122
121
121
129
123
122
137
144
133
136
135
144
146
135
131
132
134
142
131
126
130
124
128
137
139
133
139
145
141
143
138
141
137
140
146
138
135
142
151
149
143
154
151
151
152
150
140
149
150
146
147
146
148
153
133
141
154
157
153
152
151
154
151
157
167
147
135
141
141
139
146
153
151
154
153
145
140
145
142
143
147
145
150
147
151
151
155
163
156
142
138
142
150
151
141
138
141
148
139
136
142
147
159
159
173
186
211
227
247
259
267
278
281
284
290
281
278
277
268
232
214
195
178
168
152
141
124
128
139
148
144
141
149
154
158
159
167
179
166
151
158
166
170
171
171
170
166
171
172
169
167
175
170
176
179
178
176
171
170
173
174
182
193
181
184
185
178
182
184
182
177
169
180
180
177
182
188
189
190
187
192
198
207
201
194
201
208
215
222
220
218
222
208
201
203
218
229
214
216
232
222
211
212
209
209
212
222
224
227
227
220
225
212
200
209
200
202
200
199
193
194
192
189
190
191
197
200
203
192
178
170
179
180
180
189
182
178
171
174
179
180
183
184
167
166
173
175
169
172
171
178
174
176
167
176
186
185
185
186
176
167
170
175
174
177
174
178
174
178
185
183
183
189
199
185
183
192
182
183
189
195
190
182
173
180
183
186
182
190
191
191
189
188
186
186
184
189
189
190
192
187
194
195
191
186
190
198
205
197
197
198
192
186
192
201
209
204
207
218
209
203
206
205
203
201
198
202
211
213
194
198
199
199
194
202
209
212
218
209
206
196
202
208
189
189
189
190
192
197
200
199
198
197
196
196
187
192
191
194
199
199
199
199
192
193
196
198
203
206
199
203
206
185
190
197
191
195
203
205
202
215
222
240
252
274
285
306
321
326
330
323
317
294
289
282
257
234
212
200
191
173
168
171
175
181
184
194
195
203
211
201
208
204
194
189
195
198
199
195
201
214
211
209
211
211
204
199
206
209
207
204
203
201
200
208
216
211
217
207
206
217
218
215
216
221
210
204
204
202
204
213
224
225
226
227
219
227
230
224
224
226
229
230
227
229
238
238
238
248
258
258
246
239
242
247
243
249
250
237
246
241
232
243
239
237
232
228
229
230
232
240
239
236
228
216
209
197
196
196
198
196
203
205
204
195
193
190
191
199
200
203
193
189
187
186
195
187
197
186
176
180
179
168
177
174
183
190
190
189
175
156
167
170
172
174
179
182
174
170
176
178
176
170
182
188
192
192
188
175
166
170
182
178
168
177
181
181
179
173
176
177
176
180
184
176
181
180
177
175
172
174
178
181
170
173
177
177
182
181
176
177
174
174
178
183
184
190
186
186
194
200
189
181
176
178
180
168
171
175
176
173
180
174
171
178
180
174
175
179
175
183
177
185
181
182
176
176
180
184
183
180
178
170
165
163
166
155
156
161
170
172
164
165
168
171
178
173
157
166
173
163
167
179
180
172
168
167
152
154
152
152
154
151
159
176
187
206
220
234
254
260
270
281
300
295
287
283
285
290
278
245
213
203
192
175
163
154
149
155
159
161
166
167
173
178
170
161
164
163
166
166
173
179
180
181
181
179
159
157
169
173
170
176
176
171
168
176
189
198
173
167
170
170
183
176
172
178
173
170
180
188
196
196
180
174
177
185
185
181
185
189
195
199
200
200
199
191
192
195
195
194
197
203
203
203
205
205
210
210
211
215
206
209
209
209
210
222
207
206
211
215
203
200
188
187
191
196
189
183
181
175
179
188
183
177
177
177
170
172
175
172
170
168
165
162
172
170
154
156
153
153
153
162
154
151
155
156
161
160
155
148
145
151
154
156
150
149
156
162
157
157
158
161
169
161
174
171
149
142
142
147
146
145
154
154
166
159
164
169
159
160
156
154
148
139
149
157
149
157
170
170
153
161
173
164
162
158
152
150
142
148
158
155
160
166
160
150
145
168
159
172
162
151
156
160
177
155
157
150
155
165
170
178
176
159
165
160
172
169
154
173
191
162
181
168
153
172
167
191
168
168
141
147
167
162
170
171
179
164
151
154
161
168
157
128
144
154
175
180
149
158
153
170
168
155
153
150
154
170
159
167
170
172
176
170
154
155
151
113
129
171
167
173
203
212
233
244
279
300
330
316
330
329
312
319
321
306
290
254
224
221
189
195
182
166
166
159
159
165
183
192
193
198
153
195
190
185
175
178
150
164
164
161
183
181
184
180
196
174
171
181
179
172
182
192
183
185
193
187
176
192
199
172
188
173
187
187
201
198
191
191
200
205
209
217
182
209
204
202
211
205
211
212
207
206
238
244
198
212
208
201
240
215
203
207
212
213
203
232
220
226
240
211
218
224
216
225
227
199
210
225
215
225
225
217
222
193
181
171
187
185
191
194
185
165
179
173
176
179
165
165
175
186
168
178
175
172
169
145
171
165
161
171
174
179
166
167
167
149
180
176
154
166
171
173
173
171
175
186
166
180
172
165
169
190
174
150
144
170
164
164
164
160
163
160
174
167
167
176
162
149
164
159
168
175
175
168
174
184
166
163
179
162
175
180
179
160
179
161
162
160
165
167
168
177
173
159
164
173
169
180
184
186
169
148
160
167
177
182
187
180
182
168
172
169
180
165
179
191
202
193
158
181
177
172
152
189
156
167
160
169
170
171
154
144
150
154
159
159
154
155
168
163
175
171
175
168
149
159
171
158
157
162
155
161
156
152
149
162
144
136
137
140
148
160
192
219
245
240
246
274
307
317
324
319
321
319
332
311
278
255
219
198
182
156
148
165
154
142
146
151
150
167
165
170
149
165
161
168
176
185
187
177
167
174
167
172
169
167
199
169
149
167
177
171
172
179
168
176
189
198
207
171
178
151
162
164
196
179
179
186
183
195
193
186
196
181
188
187
180
196
198
198
192
185
212
203
207
209
203
195
206
220
221
206
187
199
221
214
240
207
195
209
210
230
215
213
218
220
207
198
218
206
211
206
203
202
211
193
173
181
208
183
185
173
176
182
194
188
148
159
163
160
161
161
159
186
169
176
182
175
165
157
145
143
145
152
154
164
161
153
177
138
158
164
160
171
166
167
162
166
163
162
178
163
170
152
154
146
153
161
155
160
159
155
161
169
193
185
146
153
161
176
162
168
174
171
156
158
158
175
165
163
161
165
156
177
189
167
179
171
167
157
157
169
175
156
156
174
164
156
169
161
161
168
175
173
181
173
163
168
185
181
181
170
171
175
164
185
179
159
159
172
174
180
187
178
177
178
176
173
160
166
164
164
192
177
155
165
157
159
163
166
161
155
158
165
167
167
161
167
167
170
158
163
158
144
162
159
165
171
164
145
152
161
155
143
167
170
167
152
150
143
136
154
170
194
202
224
240
270
280
309
320
320
323
327
331
329
294
247
225
214
183
169
142
153
142
156
140
146
151
161
160
153
161
164
171
176
167
167
156
157
161
164
171
163
168
161
164
161
169
159
161
170
173
167
175
180
182
180
170
172
180
172
174
169
177
184
178
183
182
177
171
178
181
185
184
185
193
196
176
188
198
202
202
202
185
187
188
187
179
189
196
203
209
207
213
213
217
215
208
199
200
201
204
196
195
197
207
208
214
209
199
206
200
196
207
197
180
194
197
171
169
177
181
156
158
160
149
159
157
173
180
168
164
153
153
147
144
148
147
147
142
158
170
175
170
155
158
167
157
152
142
153
164
159
165
169
160
152
151
153
145
155
165
152
158
152
145
146
163
170
155
155
153
155
150
154
155
153
152
163
162
154
160
169
160
159
152
156
162
156
159
161
160
158
155
162
159
155
153
162
158
163
165
163
158
161
154
166
167
162
154
150
165
164
169
164
164
169
159
155
158
159
164
172
170
171
170
170
157
162
153
152
163
166
172
175
177
172
165
162
165
168
170
170
159
155
154
156
164
167
149
152
159
159
150
153
154
154
154
143
150
147
149
152
152
154
161
158
153
150
156
157
159
166
163
155
144
144
146
137
119
127
133
139
153
176
207
236
225
234
249
273
304
304
308
309
308
310
303
286
247
217
197
186
172
159
142
138
134
131
140
148
150
150
151
146
154
161
152
158
161
165
169
153
153
162
170
150
144
151
158
160
165
171
169
164
161
163
165
172
161
160
168
168
166
167
170
168
168
164
162
171
167
173
181
193
181
165
180
175
171
179
175
176
179
186
180
191
191
187
193
189
195
203
201
196
198
197
197
198
210
205
210
208
208
201
196
193
197
200
201
200
199
206
188
189
195
187
178
177
169
174
180
174
169
168
170
165
158
161
164
155
146
154
158
158
154
146
142
144
148
154
156
140
134
140
142
143
145
150
154
153
156
150
149
143
142
149
147
139
141
146
150
144
138
141
144
152
150
137
139
140
138
136
146
143
148
152
150
138
144
152
158
150
151
155
158
149
145
142
135
135
140
141
141
146
151
146
142
147
142
134
143
142
147
150
143
138
142
140
142
148
150
154
150
156
156
144
138
141
149
155
153
157
154
153
157
145
148
145
148
152
156
162
168
176
173
158
152
151
146
145
145
146
153
157
149
141
140
145
152
148
138
135
145
150
145
148
140
134
140
140
147
152
158
160
148
142
136
126
128
135
143
135
138
137
138
137
134
132
135
124
121
122
124
143
165
181
194
215
231
246
267
288
294
297
311
314
321
332
296
240
216
191
183
174
152
132
130
129
131
128
122
129
135
144
144
145
145
147
150
141
147
152
163
160
152
146
145
149
151
157
158
152
141
142
140
156
156
151
158
157
159
157
155
153
157
159
164
156
154
157
165
167
167
167
165
170
169
173
168
168
172
187
180
163
168
181
177
173
168
171
178
184
184
188
190
188
190
192
204
195
189
192
198
192
192
198
196
190
194
201
202
192
189
187
182
188
189
184
171
156
158
161
160
156
153
150
144
152
158
148
146
142
144
142
149
147
139
149
146
142
145
136
127
137
141
133
139
133
126
134
136
131
127
125
135
132
134
137
143
143
134
120
133
133
124
131
131
134
133
144
140
146
150
144
150
139
122
130
137
143
139
144
145
146
136
128
131
131
133
133
132
129
132
132
136
141
143
131
123
134
135
131
139
146
152
146
140
146
141
137
138
136
130
132
132
130
138
141
144
151
153
155
158
161
150
145
137
143
144
145
141
143
142
140
144
145
153
154
159
159
147
143
124
121
125
124
130
135
131
136
139
139
137
136
141
150
143
140
134
142
142
135
130
132
139
131
136
140
145
147
148
143
137
134
120
111
107
111
109
124
143
162
163
177
199
210
235
250
266
280
289
303
306
298
292
277
253
220
196
184
163
151
139
126
132
133
128
124
131
134
132
145
136
129
134
148
145
142
142
148
151
140
138
147
152
169
154
146
153
159
146
143
135
144
145
150
150
158
162
145
163
166
165
166
150
151
145
145
143
153
154
161
165
169
165
164
170
170
164
162
169
168
173
171
178
180
184
181
189
184
181
186
184
176
177
193
196
204
196
182
192
187
177
174
184
191
196
202
191
176
178
174
164
164
166
170
170
164
169
169
166
159
152
137
135
134
139
139
133
144
138
138
146
144
132
129
132
129
131
129
129
137
152
144
139
139
139
119
117
121
129
139
145
143
145
151
137
136
127
122
123
127
130
131
139
143
152
146
126
129
141
138
130
124
129
132
139
132
130
136
138
136
135
137
134
138
138
142
128
142
139
139
135
143
145
144
133
129
130
139
143
137
144
143
142
150
150
166
158
137
136
132
139
146
153
144
154
160
157
138
132
139
142
145
151
152
154
157
163
155
146
149
139
138
137
135
139
143
143
149
150
135
122
139
134
133
131
129
129
132
139
140
133
133
134
135
140
141
142
139
142
144
143
145
137
138
126
124
132
138
126
122
129
134
147
166
177
189
208
220
244
255
265
265
269
269
258
266
272
253
214
169
161
153
132
118
120
124
127
127
130
140
142
137
142
142
144
143
146
143
144
126
143
143
139
141
146
145
149
153
155
147
145
144
147
152
157
154
154
144
149
153
153
158
167
175
171
168
162
161
161
147
140
150
158
152
166
173
180
181
171
164
163
160
162
171
169
174
177
179
173
179
189
192
183
183
182
171
179
192
204
197
183
188
191
185
172
174
185
191
184
188
187
183
180
169
159
164
161
153
163
165
156
161
155
153
146
143
140
140
141
141
129
127
133
128
133
134
137
140
147
134
133
130
136
132
119
107
125
133
132
127
123
123
129
129
130
126
125
125
131
136
126
122
126
120
118
120
131
136
131
132
124
133
132
130
124
130
125
125
127
126
118
120
124
132
136
132
126
135
129
126
124
125
135
135
128
126
123
124
131
128
132
123
132
132
140
139
139
145
139
140
133
134
130
129
129
128
131
127
145
154
153
144
121
122
130
130
120
121
127
134
136
139
141
138
131
128
130
132
130
122
129
127
129
127
124
122
125
119
122
123
125
124
122
120
126
124
129
128
128
137
140
129
114
115
120
125
119
120
123
121
113
116
126
126
151
173
178
183
214
220
237
233
248
260
266
266
268
261
243
214
181
166
166
149
114
115
115
114
117
126
136
129
129
127
132
126
131
131
136
147
141
139
147
143
124
125
125
123
128
133
135
142
144
140
139
141
138
140
141
138
146
146
146
142
131
132
136
138
141
148
158
167
158
150
144
144
145
146
145
150
149
155
165
171
170
172
164
157
164
168
169
169
168
173
155
165
177
177
182
193
193
187
189
180
162
172
172
167
165
156
164
168
175
177
156
157
150
143
146
156
140
129
134
140
137
140
143
143
129
125
126
125
118
117
120
117
123
122
114
125
128
125
126
129
123
113
117
118
122
117
122
130
128
117
109
110
110
116
121
121
126
128
135
132
116
113
115
109
105
115
120
120
124
126
114
110
117
105
109
113
114
118
118
123
127
122
130
133
133
120
110
117
108
108
112
118
115
124
129
134
132
124
125
122
120
118
122
130
130
127
126
130
131
123
131
136
139
142
133
136
124
119
126
124
123
120
126
132
134
136
141
141
138
130
122
125
127
123
120
122
119
120
122
120
125
119
121
125
123
124
120
125
125
129
120
119
124
128
137
140
136
124
114
107
116
121
113
108
108
114
112
122
119
126
141
160
169
185
202
224
246
260
266
266
272
275
275
275
265
230
199
177
158
142
128
121
120
124
116
114
115
120
117
126
130
128
130
139
128
131
142
139
142
137
126
138
135
145
130
136
135
139
146
143
152
159
166
158
136
137
127
134
144
141
148
151
134
135
157
156
141
140
141
148
169
154
173
174
163
156
173
155
152
161
169
175
185
193
196
208
214
211
192
206
194
212
208
229
240
226
226
211
216
218
210
217
227
230
240
229
238
222
226
229
242
216
206
206
206
225
241
219
228
230
223
177
199
177
187
186
187
211
199
201
223
227
208
215
204
200
209
234
227
219
222
217
224
228
238
235
236
246
249
253
267
260
271
272
263
285
279
273
287
299
289
283
293
302
292
303
326
331
336
343
347
347
351
373
374
393
394
400
412
420
415
415
423
432
442
442
453
468
460
467
492
487
501
498
501
492
489
479
497
515
518
509
514
527
513
513
509
527
518
523
498
520
513
523
545
521
527
507
505
500
529
502
516
510
512
491
530
506
495
501
514
495
489
473
481
468
461
465
469
466
475
463
457
460
477
453
452
449
460
448
454
453
466
458
463
464
455
461
465
463
482
476
424
427
442
443
438
435
416
431
440
461
491
515
538
556
598
624
640
656
662
673
679
677
675
669
651
588
562
528
503
487
468
467
472
475
471
466
496
488
496
510
517
519
508
503
509
506
515
515
514
518
531
535
543
540
557
556
555
557
561
564
563
552
567
556
570
566
576
580
561
573
565
546
540
572
580
574
570
568
567
555
566
569
588
589
587
595
593
591
585
592
574
581
600
611
616
623
625
634
633
646
657
650
647
655
647
667
671
671
685
671
640
643
652
658
653
653
649
659
652
654
658
654
646
646
651
644
645
643
650
633
642
647
641
638
636
642
637
638
650
647
647
644
648
650
641
637
646
642
637
645
656
648
655
659
658
661
666
683
683
681
686
692
691
712
710
720
711
709
718
721
726
741
746
744
742
741
742
745
746
749
753
751
745
757
760
761
776
774
758
758
758
755
760
761
763
760
763
765
771
776
786
779
763
760
764
762
764
764
767
760
764
762
752
745
747
756
763
774
787
777
775
757
747
740
746
752
758
752
747
752
763
775
772
757
754
742
741
747
730
742
745
739
740
733
743
753
718
723
735
739
746
735
746
732
741
731
725
718
708
708
714
714
708
716
725
720
699
701
694
703
701
701
705
704
709
715
697
699
698
687
683
684
679
665
665
651
656
673
680
695
704
722
743
762
795
816
843
858
852
846
854
865
827
810
764
737
712
700
688
669
647
635
632
637
660
672
674
649
652
646
650
652
666
674
663
678
678
672
655
663
666
670
674
672
690
695
700
707
707
717
709
718
728
736
732
730
726
739
750
746
771
769
772
778
783
795
803
806
811
815
818
830
840
860
868
886
863
860
881
897
900
909
906
898
901
908
913
919
918
919
923
926
923
931
936
941
948
954
950
954
960
959
969
975
953
936
944
949
965
973
968
946
946
958
945
950
963
948
909
897
908
918
917
925
924
900
898
905
899
903
907
911
893
897
887
888
893
897
893
898
917
929
913
892
898
916
924
918
914
914
924
929
925
918
919
931
938
934
936
928
934
943
950
948
953
946
936
950
956
963
961
966
967
976
990
990
994
987
988
971
981
979
977
973
970
967
971
981
981
990
987
988
990
987
991
989
988
996
987
979
974
975
978
984
985
990
995
983
977
984
981
994
999
995
995
983
975
982
973
971
976
983
985
1003
1015
980
964
972
970
977
969
965
967
965
960
962
963
967
970
959
947
949
949
945
943
933
932
928
937
938
947
964
929
908
913
917
915
913
917
922
929
917
909
906
898
896
901
898
898
891
892
888
883
876
874
892
910
936
946
966
977
999
1030
1045
1040
1054
1074
1052
1031
1026
999
945
908
888
865
849
838
837
813
806
804
797
805
808
810
812
804
804
807
811
798
792
794
791
782
778
780
784
788
789
782
777
772
767
767
763
765
763
756
750
748
758
754
743
728
724
722
727
730
705
701
710
714
702
699
705
709
712
715
699
694
704
702
697
693
684
679
674
669
680
677
670
665
660
660
663
660
658
656
649
647
648
636
631
634
626
621
614
586
587
593
600
597
588
585
586
584
572
569
555
550
538
527
526
517
508
518
511
519
517
499
493
481
475
470
470
461
448
451
455
459
453
445
447
441
432
426
436
437
446
416
421
412
411
405
397
414
405
403
405
403
390
376
383
383
379
386
387
388
391
391
375
373
386
390
381
381
366
355
359
357
346
347
352
348
352
360
361
345
325
326
329
328
339
336
330
326
331
332
331
338
329
305
308
310
303
302
311
308
312
306
320
325
316
305
306
299
294
296
295
291
291
302
296
306
309
305
300
279
274
271
269
277
278
274
276
281
274
269
263
260
261
264
268
276
272
250
251
266
252
245
253
246
241
243
247
251
246
245
232
232
234
237
237
247
244
247
231
237
227
219
210
203
213
233
243
241
248
253
271
292
316
328
351
378
391
384
386
385
382
389
360
314
275
268
243
223
214
206
202
205
208
208
211
200
197
204
209
197
193
181
193
205
193
190
194
197
196
187
189
186
184
183
187
180
177
178
174
163
170
173
159
160
164
171
171
181
163
161
165
148
144
152
153
145
146
144
143
144
149
141
139
144
145
149
147
148
151
148
130
140
143
142
142
140
149
156
147
147
155
148
143
137
137
144
132
114
120
120
115
111
114
118
113
109
102
103
107
104
91
78
67
60
55
61
60
62
48
36
34
40
39
37
26
24
30
19
11
20
16
17
10
8
15
5
0
-16
-17
-7
-3
0
-7
-25
-23
-10
-6
-3
-14
-27
-29
-36
-35
-30
-25
-24
-23
-21
-19
-12
-19
-49
-46
-53
-35
-35
-41
-36
-49
-50
-48
-46
-49
-56
-49
-37
-53
-57
-60
-62
-54
-62
-59
-62
-66
-59
-58
-56
-72
-82
-80
-77
-67
-66
-68
-70
-72
-62
-64
-70
-77
-80
-73
-52
-58
-77
-65
-80
-78
-84
-88
-94
-91
-89
-77
-76
-80
-87
-89
-87
-90
-91
-87
-88
-91
-88
-84
-101
-108
-110
-109
-102
-103
-105
-114
-114
-106
-104
-106
-107
-99
-89
-91
-105
-117
-119
-126
-121
-122
-122
-116
-115
-108
-107
-117
-126
-138
-141
-144
-142
-145
-145
-140
-127
-135
-129
-113
-90
-80
-65
-46
-25
-12
0
-1
-1
6
5
0
-6
-23
-60
-79
-94
-103
-129
-155
-167
-164
-169
-159
-151
-156
-154
-153
-152
-152
-151
-149
-147
-141
-137
-130
-135
-139
-139
-152
-156
-158
-159
-153
-151
-148
-146
-143
-139
-158
-153
-153
-153
-154
-143
-139
-148
-141
-146
-141
-144
-154
-156
-155
-153
-143
-150
-139
-126
-142
-158
-152
-140
-140
-144
-138
-130
-133
-136
-138
-131
-145
-148
-141
-142
-136
-131
-128
-130
-124
-117
-128
-130
-136
-144
-129
-128
-133
-139
-138
-146
-153
-147
-148
-143
-150
-147
-155
-155
-156
-153
-155
-170
-179
-179
-172
-174
-172
-167
-175
-181
-182
-181
-187
-192
-187
-196
-196
-198
-202
-207
-204
-196
-192
-199
-198
-206
-203
-209
-202
-212
-222
-216
-213
-213
-214
-211
-214
-212
-208
-208
-208
-210
-220
-213
-215
-213
-205
-204
-209
-208
-211
-217
-223
-221
-218
-215
-213
-206
-211
-218
-213
-221
-222
-220
-218
-213
-212
-201
-208
-217
-223
-221
-225
-238
-232
-229
-224
-220
-213
-221
-227
-219
-207
-216
-211
-210
-220
-229
-239
-234
-232
-233
-232
-230
-224
-210
-223
-231
-226
-229
-234
-232
-226
-212
-212
-225
-234
-236
-237
-232
-233
-236
-233
-244
-244
-240
-241
-238
-249
-252
-251
-248
-243
-239
-242
-246
-266
-265
-265
-267
-270
-262
-262
-262
-255
-237
-251
-267
-265
-267
-265
-263
-263
-263
-259
-265
-280
-277
-281
-280
-282
-284
-265
-256
-269
-262
-242
-220
-204
-186
-175
-160
-149
-138
-134
-129
-138
-145
-154
-168
-198
-224
-240
-249
-253
-271
-296
-296
-289
-297
-292
-286
-288
-288
-294
-293
-287
-277
-264
-259
-252
-258
-278
-286
-280
-285
-289
-293
-292
-290
-282
-282
-286
-284
-283
-278
-270
-268
-265
-273
-285
-282
-284
-283
-282
-283
-287
-282
-279
-282
-288
-291
-289
-286
-280
-275
-277
-273
-264
-253
-260
-278
-284
-282
-281
-277
-272
-273
-278
-272
-266
-262
-259
-250
-246
-259
-259
-256
-265
-276
-267
-264
-266
-267
-278
-280
-281
