-164
-170
-159
-158
-175
-169
-166
-170
-179
-182
-158
-169
-165
-149
-126
-162
-158
-181
-161
-159
-178
-175
-168
-197
-162
-153
-158
-170
-149
-159
-192
-154
-129
-153
-171
-164
-157
-168
-158
-154
-134
-168
-165
-162
-183
-162
-153
-160
-176
-177
-158
-177
-189
-149
-157
-164
-166
-166
-162
-156
-153
-188
-170
-126
-157
-186
-172
-158
-159
-149
-158
-160
-143
-145
-163
-170
-134
-142
-161
-186
-158
-147
-173
-165
-159
-164
-186
-187
-165
-161
-170
-168
-162
-160
-169
-169
-173
-161
-165
-172
-148
-139
-154
-165
-161
-175
-176
-184
-182
-163
-163
-176
-176
-186
-149
-162
-164
-156
-155
-132
-155
-152
-156
-157
-159
-168
-168
-167
-164
-173
-178
-181
-179
-187
-179
-175
-181
-153
-139
-168
-165
-168
-170
-168
-174
-156
-162
-178
-171
-158
-169
-180
-186
-192
-188
-155
-156
-148
-163
-171
-160
-155
-170
-165
-169
-171
-163
-159
-148
-167
-163
-167
-170
-164
-178
-174
-157
-168
-173
-167
-176
-188
-167
-168
-177
-194
-186
-192
-191
-168
-145
-144
-142
-163
-165
-188
-164
-155
-141
-169
-156
-159
-175
-173
-177
-172
-157
-173
-172
-191
-158
-163
-164
-167
-131
-154
-188
-178
-186
-165
-172
-187
-191
-171
-156
-162
-191
-184
-191
-192
-142
-155
-152
-182
-187
-204
-159
-161
-151
-143
-159
-162
-163
-168
-183
-161
-159
-175
-160
-143
-155
-175
-189
-174
-160
-148
-150
-170
-171
-175
-191
-172
-162
-159
-173
-175
-173
-187
-197
-179
-170
-179
-170
-149
-179
-189
-190
-162
-165
-182
-153
-192
-176
-161
-158
-165
-171
-157
-154
-163
-162
-180
-165
-170
-171
-153
-157
-170
-176
-162
-161
-154
-166
-169
-164
-174
-142
-132
-153
-178
-175
-168
-168
-166
-160
-151
-147
-135
-171
-166
-173
-186
-172
-193
-178
-175
-182
-166
-165
-171
-179
-166
-185
-170
-145
-154
-149
-134
-157
-174
-171
-177
-162
-155
-166
-166
-175
-185
-184
-177
-199
-204
-201
-175
-182
-179
-153
-143
-148
-142
-139
-148
-180
-200
-200
-169
-153
-157
-172
-142
-98
-80
-79
-40
0
-21
-26
-34
-26
-36
-42
-80
-123
-135
-157
-174
-187
-179
-178
-187
-188
-175
-184
-181
-188
-201
-189
-185
-170
-183
-210
-187
-173
-188
-201
-182
-145
-159
-193
-183
-178
-156
-137
-141
-147
-156
-161
-181
-183
-170
-173
-186
-156
-149
-157
-175
-182
-159
-159
-156
-163
-156
-171
-173
-157
-165
-169
-173
-179
-187
-176
-178
-181
-176
-182
-148
-127
-120
-139
-147
-164
-184
-187
-173
-162
-178
-150
-165
-175
-155
-163
-175
-182
-153
-134
-153
-137
-146
-134
-147
-136
-153
-169
-174
-159
-155
-160
-145
-160
-157
-146
-155
-159
-147
-140
-135
-129
-115
-129
-156
-155
-145
-140
-134
-130
-116
-133
-128
-121
-128
-133
-126
-135
-116
-114
-109
-105
-89
-104
-129
-129
-97
-97
-93
-124
-113
-114
-115
-117
-107
-108
-105
-120
-111
-114
-147
-138
-127
-115
-127
-137
-134
-138
-135
-143
-145
-153
-153
-150
-146
-152
-149
-151
-139
-159
-159
-166
-172
-146
-179
-167
-125
-147
-182
-172
-164
-164
-160
-172
-173
-173
-171
-179
-163
-154
-166
-204
-167
-155
-165
-160
-148
-163
-171
-187
-191
-158
-162
-189
-181
-184
-178
-135
-149
-175
-185
-178
-176
-163
-176
-171
-156
-166
-184
-180
-174
-196
-171
-169
-172
-169
-171
-170
-171
-143
-181
-173
-168
-161
-159
-173
-170
-157
-179
-169
-171
-164
-153
-156
-160
-166
-183
-170
-164
-167
-190
-178
-167
-158
-143
-172
-168
-172
-167
-155
-170
-200
-159
-129
-148
-170
-180
-179
-186
-184
-169
-158
-163
-166
-173
-168
-167
-170
-176
-164
-170
-166
-164
-143
-173
-177
-167
-169
-168
-185
-174
-174
-155
-174
-184
-148
-152
-162
-177
-171
-180
-164
-163
-185
-184
-185
-182
-183
-187
-172
-146
-155
-175
-181
-174
-161
-146
-159
-179
-184
-200
-196
-166
-187
-191
-177
-163
-167
-176
-172
-162
-167
-156
-172
-182
-179
-160
-178
-186
-171
-168
-172
-177
-171
-170
-186
-189
-171
-165
-178
-151
-146
-192
-189
-187
-185
-177
-184
-176
-169
-185
-168
-168
-219
-198
-153
-162
-180
-176
-176
-194
-160
-157
-186
-176
-180
-196
-176
-161
-162
-171
-181
-173
-162
-168
-170
-164
-202
-183
-169
-173
-180
-190
-151
-147
-176
-195
-174
-168
-166
-178
-180
-202
-211
-167
-176
-184
-179
-177
-179
-180
-183
-191
-171
-169
-169
-170
-161
-164
-187
-169
-155
-147
-151
-163
-178
-185
-185
-174
-160
-189
-188
-182
-199
-176
-182
-184
-184
-190
-162
-156
-184
-176
-175
-182
-174
-167
-184
-166
-160
-178
-187
-221
-187
-182
-181
-185
-176
-167
-162
-156
-179
-169
-169
-171
-160
-152
-179
-190
-182
-179
-148
-144
-153
-157
-149
-146
-153
-167
-166
-177
-179
-164
-167
-181
-178
-167
-172
-186
-186
-173
-163
-170
-182
-172
-169
-172
-185
-178
-191
-176
-170
-189
-168
-165
-168
-177
-186
-188
-200
-188
-150
-185
-219
-185
-155
-142
-139
-156
-186
-168
-170
-179
-176
-168
-172
-169
-176
-173
-186
-193
-160
-178
-184
-207
-193
-163
-157
-150
-139
-145
-110
-81
-63
-48
-64
-59
-72
-62
-52
-67
-94
-130
-156
-194
-208
-207
-227
-192
-186
-188
-181
-213
-212
-184
-182
-185
-192
-186
-193
-195
-200
-174
-173
-180
-190
-190
-171
-181
-178
-193
-193
-170
-138
-158
-198
-170
-174
-181
-201
-191
-165
-188
-168
-154
-166
-168
-154
-151
-145
-154
-163
-157
-109
-176
-212
-189
-166
-157
-148
-153
-179
-161
-160
-189
-182
-179
-170
-170
-197
-173
-183
-175
-162
-159
-169
-174
-162
-170
-167
-159
-157
-150
-161
-155
-157
-164
-153
-151
-180
-171
-170
-134
-131
-151
-142
-148
-105
-118
-144
-165
-154
-145
-125
-147
-146
-133
-141
-142
-144
-135
-130
-121
-128
-123
-116
-114
-137
-133
-107
-100
-113
-141
-138
-106
-102
-89
-66
-69
-64
-80
-89
-76
-72
-82
-104
-112
-112
-81
-92
-78
-88
-72
-107
-115
-115
-93
-109
-102
-92
-100
-97
-125
-111
-126
-119
-125
-106
-129
-113
-135
-131
-121
-141
-137
-131
-127
-108
-103
-122
-141
-151
-137
-119
-151
-150
-130
-131
-107
-123
-145
-158
-127
-150
-160
-150
-132
-145
-151
-144
-125
-127
-146
-143
-143
-137
-156
-139
-141
-149
-136
-149
-143
-126
-132
-147
-149
-131
-127
-128
-117
-136
-133
-128
-130
-139
-119
-132
-151
-138
-124
-144
-144
-143
-133
-129
-135
-145
-122
-124
-123
-140
-149
-170
-148
-100
-112
-119
-143
-132
-124
-113
-146
-133
-119
-132
-119
-107
-130
-107
-121
-109
-107
-127
-129
-135
-138
-128
-121
-118
-115
-130
-133
-121
-131
-132
-131
-145
-131
-126
-128
-129
-143
-142
-103
-115
-116
-130
-132
-100
-101
-119
-123
-136
-130
-130
-118
-121
-130
-126
-128
-126
-112
-140
-144
-125
-137
-119
-119
-124
-127
-129
-137
-142
-121
-129
-125
-136
-140
-147
-151
-144
-130
-102
-122
-127
-114
-113
-122
-122
-117
-119
-121
-136
-145
-142
-124
-141
-130
-103
-106
-123
-132
-122
-125
-129
-121
-116
-139
-133
-120
-132
-132
-138
-130
-138
-129
-110
-122
-132
-137
-121
-120
-145
-126
-140
-135
-144
-142
-130
-106
-108
-114
-122
-109
-114
-114
-115
-121
-115
-116
-128
-127
-116
-130
-118
-143
-131
-123
-131
-124
-139
-112
-125
-112
-117
-117
-129
-133
-118
-112
-129
-150
-154
-165
-150
-123
-110
-97
-102
-109
-132
-116
-130
-125
-119
-128
-135
-122
-116
-130
-132
-138
-131
-130
-105
-104
-106
-106
-130
-117
-137
-149
-121
-101
-119
-142
-105
-109
-119
-122
-126
-117
-128
-131
-119
-134
-152
-121
-138
-142
-123
-114
-110
-124
-143
-147
-131
-108
-117
-96
-98
-111
-119
-130
-137
-123
-138
-141
-116
-116
-129
-101
-110
-121
-117
-112
-106
-110
-132
-137
-156
-129
-106
-123
-135
-125
-102
-104
-113
-150
-122
-125
-117
-94
-86
-94
-111
-102
-105
-102
-115
-124
-120
-118
-92
-91
-110
-118
-140
-143
-149
-147
-133
-119
-123
-109
-118
-150
-159
-123
-113
-106
-128
-116
-122
-128
-133
-127
-111
-109
-107
-120
-124
-124
-128
-132
-130
-136
-117
-103
-122
-113
-125
-150
-123
-100
-92
-107
-129
-117
-131
-117
-117
-115
-94
-92
-92
-78
-48
-17
1
16
34
33
14
-13
-18
-62
-86
-59
-64
-107
-120
-143
-123
-119
-119
-118
-125
-126
-130
-145
-128
-123
-124
-105
-114
-108
-111
-133
-140
-148
-121
-94
-108
-134
-140
-116
-106
-105
-115
-132
-113
-101
-125
-129
-113
-126
-108
-104
-113
-74
-94
-112
-85
-99
-123
-129
-117
-114
-110
-101
-89
-107
-112
-113
-112
-107
-115
-99
-100
-113
-127
-109
-94
-85
-105
-126
-103
-120
-116
-95
-94
-98
-96
-97
-79
-110
-126
-117
-111
-94
-91
-85
-90
-92
-90
-116
-107
-108
-109
-87
-79
-91
-106
-113
-103
-89
-96
-85
-68
-90
-95
-85
-77
-77
-54
-76
-74
-81
-112
-80
-80
-46
-38
-61
-83
-61
-57
-68
-69
-57
-41
-44
-52
-42
-60
-56
-25
-35
-64
-41
-55
-46
-47
-62
-54
-50
-60
-62
-53
-52
-75
-79
-66
-57
-57
-73
-78
-51
-41
-75
-93
-70
-103
-84
-105
-99
-100
-100
-90
-93
-86
-97
-86
-78
-110
-114
-98
-105
-107
-111
-86
-104
-102
-103
-110
-113
-126
-131
-107
-106
-103
-97
-110
-103
-95
-106
-133
-128
-153
-139
-126
-109
-92
-92
-103
-75
-105
-129
-141
-105
-80
-120
-136
-99
-109
-99
-109
-114
-123
-116
-99
-125
-106
-94
-107
-108
-94
-132
-124
-125
-120
-102
-113
-98
-99
-108
-114
-113
-123
-132
-132
-132
-108
-97
-111
-93
-102
-118
-82
-95
-133
-121
-112
-111
-109
-106
-98
-91
-124
-113
-104
-103
-107
-105
-102
-109
-104
-94
-98
-108
-119
-123
-128
-116
-106
-116
-94
-93
-122
-126
-121
-98
-106
-100
-100
-136
-143
-127
-127
-117
-122
-130
-92
-111
-111
-96
-100
-101
-102
-91
-108
-101
-107
-122
-109
-98
-124
-130
-125
-130
-118
-107
-105
-102
-107
-98
-109
-121
-126
-125
-128
-88
-86
-107
-115
-127
-130
-131
-106
-114
-129
-135
-120
-122
-133
-114
-131
-129
-138
-132
-113
-112
-103
-94
-83
-123
-133
-109
-103
-115
-110
-117
-121
-123
-123
-134
-133
-121
-119
-135
-95
-97
-89
-94
-106
-102
-113
-128
-121
-117
-131
-129
-104
-127
-153
-131
-111
-76
-100
-148
-142
-132
-123
-116
-103
-115
-123
-142
-125
-157
-149
-132
-119
-112
-106
-118
-123
-112
-125
-107
-104
-117
-117
-125
-123
-126
-121
-66
-92
-141
-131
-128
-123
-107
-111
-127
-139
-123
-120
-130
-135
-127
-143
-142
-106
-150
-154
-126
-109
-130
-116
-107
-95
-129
-125
-113
-115
-121
-146
-126
-121
-139
-134
-132
-127
-137
-148
-91
-75
-155
-146
-131
-121
-120
-112
-110
-126
-115
-130
-117
-116
-132
-140
-137
-139
-129
-104
-118
-131
-126
-116
-114
-117
-116
-107
-132
-144
-149
-122
-125
-127
-123
-134
-140
-141
-136
-131
-113
-125
-118
-118
-127
-119
-124
-116
-117
-131
-113
-127
-135
-96
-110
-154
-147
-138
-152
-142
-123
-123
-126
-133
-127
-148
-120
-119
-120
-127
-117
-110
-113
-137
-142
-127
-97
-87
-122
-121
-114
-107
-108
-99
-125
-138
-128
-130
-134
-116
-131
-141
-112
-135
-130
-132
-125
-145
-127
-145
-148
-125
-117
-118
-128
-147
-132
-134
-144
-159
-153
-139
-150
-141
-133
-109
-114
-131
-135
-135
-119
-86
-89
-120
-129
-128
-103
-98
-124
-134
-140
-127
-126
-94
-56
-57
-50
-45
14
18
25
38
26
13
-17
-49
-87
-87
-111
-130
-150
-133
-143
-156
-159
-152
-129
-155
-156
-141
-132
-108
-116
-123
-111
-96
-105
-125
-146
-132
-120
-118
-124
-130
-130
-127
-113
-126
-134
-128
-127
-121
-109
-111
-129
-137
-128
-132
-131
-147
-161
-147
-138
-126
-131
-124
-116
-115
-113
-132
-119
-106
-125
-112
-127
-117
-104
-105
-97
-101
-123
-119
-111
-127
-129
-111
-102
-135
-126
-126
-125
-90
-92
-100
-115
-115
-135
-146
-136
-128
-109
-126
-119
-110
-131
-132
-129
-121
-94
-91
-99
-100
-98
-104
-111
-104
-105
-116
-91
-102
-111
-101
-98
-97
-97
-92
-70
-78
-92
-91
-92
-101
-94
-65
-79
-105
-70
-61
-76
-98
-75
-86
-60
-74
-81
-92
-75
-69
-87
-82
-50
-63
-71
-89
-45
-51
-81
-83
-66
-89
-82
-76
-78
-80
-84
-89
-80
-96
-105
-104
-98
-83
-97
-117
-94
-105
-121
-118
-138
-128
-124
-141
-136
-136
-137
-134
-127
-137
-105
-142
-115
-105
-128
-112
-125
-139
-157
-142
-133
-147
-121
-140
-137
-124
-129
-139
-132
-128
-129
-128
-139
-139
-127
-110
-140
-142
-150
-157
-124
-117
-119
-114
-159
-154
-161
-163
-167
-152
-136
-126
-132
-131
-126
-137
-122
-130
-144
-165
-172
-136
-149
-112
-127
-146
-137
-122
-133
-145
-142
-133
-130
-138
-147
-136
-149
-147
-127
-131
-129
-147
-153
-125
-152
-132
-123
-125
-150
-128
-123
-143
-140
-131
-137
-124
-143
-135
-145
-167
-120
-133
-163
-156
-112
-117
-128
-153
-158
-136
-151
-136
-129
-116
-128
-140
-166
-140
-104
-144
-152
-152
-138
-135
-136
-140
-129
-116
-129
-118
-111
-136
-146
-151
-142
-140
-147
-159
-162
-151
-160
-165
-160
-164
-148
-121
-131
-102
-108
-139
-145
-140
-130
-141
-136
-141
-130
-156
-198
-169
-109
-130
-125
-125
-130
-135
-146
-142
-153
-152
-164
-147
-147
-155
-131
-130
-149
-143
-126
-117
-118
-144
-146
-138
-136
-137
-133
-150
-160
-149
-150
-160
-126
-127
-126
-140
-135
-138
-140
-158
-130
-133
-151
-129
-139
-141
-130
-142
-140
-134
-133
-148
-159
-142
-124
-131
-132
-124
-143
-135
-150
-153
-158
-153
-157
-144
-146
-129
-127
-160
-169
-148
-140
-129
-137
-147
-159
-119
-123
-115
-146
-129
-135
-163
-148
-125
-132
-130
-140
-156
-133
-129
-154
-128
-141
-158
-152
-150
-144
-143
-134
-119
-123
-138
-123
-134
-138
-143
-149
-151
-140
-121
-125
-147
-156
-161
-146
-150
-163
-128
-137
-149
-149
-152
-152
-135
-122
-125
-131
-128
-119
-107
-128
-142
-131
-126
-138
-166
-154
-148
-146
-153
-162
-164
-146
-140
-129
-121
-119
-129
-108
-114
-123
-137
-144
-158
-131
-136
-146
-120
-135
-139
-135
-154
-159
-144
-139
-136
-144
-144
-141
-145
-126
-134
-132
-117
-119
-116
-141
-127
-104
-98
-131
-158
-149
-142
-138
-139
-133
-133
-135
-120
-129
-139
-128
-139
-147
-157
-134
-125
-140
-142
-133
-149
-153
-127
-134
-132
-143
-146
-140
-122
-140
-142
-145
-147
-149
-152
-129
-133
-124
-164
-179
-144
-101
-134
-138
-141
-145
-132
-114
-127
-137
-133
-135
-131
-130
-119
-116
-115
-109
-84
-71
-57
-33
-2
-4
-7
1
-1
-22
-71
-86
-112
-108
-131
-147
-167
-174
-168
-150
-130
-134
-128
-139
-144
-139
-153
-162
-161
-164
-153
-140
-128
-133
-148
-161
-128
-140
-115
-145
-130
-125
-141
-137
-122
-133
-149
-144
-146
-143
-128
-129
-153
-176
-138
-133
-134
-137
-127
-151
-127
-118
-109
-138
-131
-124
-122
-118
-139
-147
-143
-122
-137
-146
-137
-140
-121
-122
-129
-118
-109
-103
-131
-138
-133
-138
-117
-120
-136
-119
-124
-126
-126
-110
-125
-131
-132
-141
-138
-132
-109
-132
-130
-108
-119
-116
-113
-100
-113
-117
-123
-119
-99
-125
-125
-130
-112
-119
-107
-96
-114
-105
-107
-96
-100
-120
-99
-76
-97
-104
-96
-99
-93
-76
-92
-92
-84
-85
-71
-75
-80
-87
-73
-59
-61
-79
-80
-90
-89
-98
-97
-70
-78
-67
-69
-79
-87
-84
-81
-70
-72
-83
-119
-127
-100
-102
-129
-125
-129
-125
-115
-114
-127
-109
-125
-134
-101
-109
-155
-138
-120
-121
-119
-138
-139
-142
-136
-146
-136
-109
-116
-141
-137
-150
-140
-137
-112
-118
-112
-132
-118
-125
-153
-139
-114
-146
-154
-121
-121
-150
-124
-150
-133
-130
-135
-151
-152
-141
-139
-134
-145
-134
-129
-136
-152
-137
-135
-144
-154
-138
-90
-121
-144
-133
-131
-130
-148
-156
-126
-120
-121
-122
-129
-126
-136
-132
-133
-137
-135
-132
-127
-116
-126
-137
-150
-139
-127
-120
-115
-106
-114
-131
-144
-164
-138
-134
-129
-136
-142
-128
-128
-116
-139
-140
-136
-133
-150
-150
-137
-126
-116
-127
-118
-112
-128
-125
-123
-131
-140
-144
-153
-147
-129
-141
-175
-141
-112
-116
-111
-117
-138
-146
-168
-116
-137
-128
-143
-146
-142
-131
-130
-119
-116
-123
-133
-130
-132
-128
-141
-148
-139
-142
-120
-124
-153
-143
-130
-135
-138
-154
-135
-129
-122
-125
-143
-132
-134
-143
-134
-132
-141
-149
-168
-155
-144
-153
-126
-105
-126
-140
-119
-136
-123
-117
-118
-147
-130
-147
-160
-119
-103
-128
-155
-163
-131
-130
-122
-127
-130
-143
-155
-140
-132
-148
-141
-129
-131
-135
-136
-139
-141
-129
-138
-132
-123
-143
-138
-129
-143
-154
-153
-124
-111
-135
-129
-123
-147
-149
-128
-108
-142
-166
-145
-136
-116
-129
-155
-151
-138
-132
-126
-138
-135
-145
-133
-124
-125
-125
-149
-136
-120
-150
-154
-131
-109
-127
-136
-110
-142
-151
-132
-153
-153
-114
-131
-132
-133
-142
-131
-133
-130
-140
-159
-155
-126
-148
-153
-131
-127
-164
-126
-111
-131
-144
-132
-143
-168
-150
-133
-125
-114
-112
-126
-138
-121
-124
-156
-145
-143
-127
-137
-139
-127
-113
-104
-133
-157
-123
-125
-130
-175
-175
-130
-120
-127
-145
-134
-127
-132
-130
-141
-148
-132
-122
-130
-121
-132
-132
-136
-136
-140
-143
-120
-116
-117
-126
-129
-140
-111
-111
-113
-121
-132
-136
-126
-120
-118
-123
-130
-120
-116
-138
-133
-130
-132
-131
-134
-116
-130
-158
-153
-137
-153
-135
-137
-120
-130
-169
-166
-122
-112
-154
-145
-150
-132
-117
-142
-140
-160
-153
-165
-133
-119
-139
-135
-135
-118
-118
-127
-128
-139
-142
-129
-144
-155
-142
-130
-126
-111
-134
-144
-134
-109
-86
-85
-85
-38
3
23
33
15
15
10
-11
-38
-49
-62
-85
-115
-137
-138
-150
-195
-191
-160
-138
-144
-152
-157
-138
-162
-134
-142
-151
-124
-127
-120
-126
-130
-120
-137
-121
-141
-142
-133
-127
-136
-146
-108
-110
-149
-152
-136
-112
-113
-140
-135
-141
-141
-141
-131
-137
-125
-128
-132
-130
-131
-131
-138
-139
-136
-144
-138
-146
-139
-119
-128
-124
-113
-114
-119
-126
-113
-121
-133
-154
-155
-137
-128
-114
-111
-127
-112
-123
-125
-125
-111
-96
-95
-127
-157
-153
-124
-134
-143
-149
-127
-102
-96
-104
-113
-108
-127
-110
-101
-110
-95
-109
-113
-118
-135
-122
-133
-102
-107
-107
-115
-104
-104
-95
-84
-70
-92
-91
-73
-89
-94
-65
-87
-89
-81
-73
-98
-80
-71
-96
-102
-97
-69
-65
-59
-72
-79
-64
-58
-71
-80
-73
-77
-86
-98
-95
-91
-88
-94
-88
-87
-90
-88
-107
-111
-115
-115
-119
-102
-115
-126
-133
-121
-118
-131
-140
-120
-86
-133
-141
-133
-122
-127
-131
-124
-129
-148
-143
-130
-126
-134
-138
-143
-139
-132
-133
-125
-132
-145
-138
-137
-127
-129
-141
-137
-128
-131
-158
-134
-120
-149
-162
-157
-153
-154
-135
-120
-121
-122
-131
-143
-140
-120
-148
-157
-121
-119
-130
-133
-113
-128
-121
-140
-150
-151
-145
-104
-119
-133
-158
-171
-136
-112
-103
-129
-120
-130
-135
-130
-140
-140
-159
-154
-158
-140
-122
-107
-120
-141
-114
-112
-119
-134
-126
-151
-145
-141
-135
-126
-112
-129
-135
-136
-123
-139
-142
-130
-137
-140
-131
-150
-143
-119
-117
-106
-116
-150
-131
-143
-142
-152
-129
-140
-138
-127
-143
-153
-138
-144
-150
-155
-147
-105
-101
-110
-126
-127
-151
-137
-131
-132
-157
-131
-112
-124
-139
-138
-144
-146
-156
-140
-126
-118
-135
-130
-121
-134
-151
-150
-165
-156
-159
-161
-150
-124
-140
-150
-137
-120
-127
-128
-140
-132
-110
-124
-136
-146
-128
-114
-110
-135
-151
-138
-142
-160
-120
-137
-144
-145
-141
-146
-153
-142
-129
-138
-157
-134
-147
-143
-131
-110
-117
-129
-163
-157
-161
-163
-143
-135
-147
-150
-133
-149
-150
-139
-140
-132
-115
-107
-121
-144
-154
-149
-143
-139
-127
-124
-133
-117
-139
-154
-149
-160
-154
-152
-155
-142
-130
-141
-152
-139
-139
-139
-120
-126
-127
-135
-130
-143
-150
-152
-150
-134
-194
-153
-123
-120
-141
-146
-137
-122
-141
-144
-150
-134
-136
-128
-125
-144
-144
-138
-143
-133
-133
-143
-143
-136
-131
-131
-141
-132
-141
-134
-149
-153
-140
-150
-147
-143
-147
-137
-124
-136
-129
-141
-123
-121
-151
-156
-148
-157
-170
-156
-136
-133
-127
-132
-136
-143
-125
-137
-115
-131
-150
-134
-137
-135
-134
-128
-116
-148
-147
-111
-127
-130
-131
-134
-133
-141
-155
-138
-135
-123
-112
-134
-106
-138
-150
-127
-142
-139
-149
-135
-122
-127
-143
-135
-134
-147
-138
-131
-149
-152
-123
-130
-125
-117
-143
-174
-142
-135
-137
-142
-141
-135
-129
-145
-139
-148
-161
-138
-122
-140
-152
-142
-149
-114
-118
-116
-140
-139
-127
-119
-134
-132
-128
-136
-135
-137
-133
-98
-70
-38
-51
-30
-19
-3
0
-17
-23
-47
-81
-97
-110
-124
-130
-142
-162
-171
-172
-158
-156
-181
-176
-177
-157
-154
-143
-158
-159
-126
-129
-134
-129
-119
-140
-148
-138
-143
-167
-154
-143
-136
-139
-142
-143
-143
-135
-125
-139
-128
-111
-100
-129
-155
-137
-129
-137
-139
-142
-162
-141
-102
-88
-132
-155
-134
-141
-144
-124
-121
-135
-132
-132
-117
-113
-107
-105
-144
-127
-111
-142
-125
-118
-105
-122
-121
-125
-127
-126
-129
-134
-129
-122
-145
-131
-108
-104
-115
-122
-105
-117
-122
-112
-124
-131
-127
-128
-105
-105
-110
-117
-106
-93
-109
-80
-79
-117
-111
-107
-85
-91
-116
-94
-83
-101
-78
-84
-102
-107
-95
-70
-85
-94
-96
-83
-74
-83
-72
-65
-65
-69
-68
-76
-64
-72
-97
-83
-83
-78
-72
-82
-56
-62
-79
-87
-95
-62
-78
-60
-70
-89
-95
-88
-63
-96
-111
-129
-126
-119
-101
-87
-104
-122
-117
-129
-121
-126
-147
-159
-138
-137
-131
-113
-129
-120
-123
-129
-115
-119
-135
-126
-128
-114
-125
-148
-145
-125
-131
-145
-133
-132
-121
-115
-135
-136
-149
-161
-155
-131
-99
-114
-138
-136
-123
-135
-136
-134
-132
-144
-135
-149
-151
-109
-127
-150
-155
-153
-143
-132
-113
-109
-134
-135
-150
-129
-137
-127
-140
-125
-112
-129
-129
-113
-123
-107
-104
-118
-136
-142
-130
-145
-133
-135
-118
-121
-120
-136
-132
-123
-144
-125
-108
-134
-121
-117
-136
-133
-125
-123
-122
-129
-149
-144
-137
-151
-184
-189
-130
-114
-102
-97
-113
-130
-120
-112
-127
-110
-131
-124
-120
-116
-141
-130
-145
-135
-143
-147
-136
-127
-127
-127
-154
-127
-113
-123
-138
-135
-121
-133
-141
-139
-139
-125
-134
-151
-136
-140
-136
-135
-112
-118
-108
-105
-134
-142
-117
-135
-136
-122
-119
-123
-136
-135
-150
-149
-127
-90
-101
-112
-102
-123
-129
-124
-119
-129
-122
-126
-132
-128
-123
-124
-122
-134
-120
-108
-100
-131
-133
-123
-134
-111
-120
-139
-134
-122
-119
-119
-113
-133
-114
-99
-134
-150
-136
-98
-107
-135
-125
-118
-121
-129
-125
-133
-109
-92
-80
-97
-130
-127
-127
-116
-123
-120
-98
-108
-113
-130
-131
-126
-132
-111
-105
-130
-145
-136
-110
-112
-107
-109
-118
-121
-123
-113
-133
-144
-132
-122
-113
-105
-108
-142
-124
-104
-95
-98
-108
-119
-112
-115
-134
-108
-116
-112
-112
-121
-90
-96
-108
-123
-109
-124
-120
-114
-119
-117
-118
-111
-124
-125
-113
-100
-121
-115
-112
-118
-121
-116
-108
-124
-127
-119
-122
-108
-119
-106
-109
-115
-112
-116
-88
-107
-105
-119
-135
-98
-114
-110
-99
-110
-123
-89
-96
-116
-113
-110
-117
-106
-94
-107
-106
-102
-99
-102
-110
-120
-110
-107
-123
-134
-115
-120
-127
-119
-110
-114
-114
-96
-108
-99
-92
-87
-91
-132
-111
-82
-73
-104
-101
-99
-102
-106
-101
-78
-90
-85
-106
-84
-98
-103
-114
-114
-85
-102
-100
-110
-106
-90
-90
-117
-118
-125
-116
-98
-96
-141
-93
-88
-86
-107
-108
-97
-89
-80
-115
-111
-132
-140
-118
-112
-116
-109
-98
-81
-96
-107
-109
-106
-92
-103
-102
-97
-111
-93
-109
-94
-98
-83
-63
-62
-40
-43
-8
20
21
43
30
33
39
21
3
-15
-42
-70
-93
-113
-122
-136
-121
-115
-111
-110
-122
-108
-97
-120
-115
-109
-97
-88
-107
-90
-77
-143
-126
-110
-119
-98
-79
-80
-69
-96
-100
-92
-102
-115
-104
-128
-122
-103
-83
-75
-83
-78
-110
-103
-108
-91
-93
-107
-105
-90
-90
-105
-111
-96
-102
-105
-84
-73
-62
-65
-91
-95
-101
-80
-86
-101
-128
-116
-100
-91
-74
-110
-125
-112
-80
-77
-98
-86
-72
-80
-89
-97
-95
-72
-75
-65
-93
-75
-68
-61
-62
-91
-75
-68
-92
-91
-90
-85
-70
-96
-85
-70
-74
-60
-63
-58
-58
-84
-89
-74
-61
-46
-45
-55
-44
-39
-56
-90
-74
-61
-83
-53
-43
-46
-38
-31
-37
-34
-28
-46
-38
-39
-59
-27
-42
-42
-37
-27
-34
-56
-42
-42
-52
-37
-30
-42
-65
-58
-52
-54
-68
-52
-66
-78
-75
-51
-22
-50
-93
-86
-72
-97
-108
-102
-98
-85
-79
-90
-106
-84
-89
-94
-103
-78
-88
-89
-93
-97
-68
-78
-89
-100
-107
-91
-76
-68
-108
-104
-81
-82
-95
-124
-105
-82
-95
-107
-102
-120
-113
-83
-102
-117
-104
-60
-74
-89
-97
-105
-97
-94
-108
-105
-102
-86
-93
-112
-130
-103
-94
-87
-75
-101
-89
-88
-85
-87
-86
-78
-85
-92
-106
-77
-83
-72
-96
-100
-107
-97
-92
-76
-93
-76
-95
-105
-86
-81
-79
-77
-77
-89
-104
-105
-105
-104
-98
-106
-115
-84
-75
-91
-116
-93
-127
-95
-80
-78
-62
-63
-78
-84
-78
-86
-93
-76
-81
-89
-92
-95
-100
-111
-110
-109
-107
-101
-94
-83
-71
-95
-77
-89
-95
-91
-95
-88
-94
-87
-121
-104
-137
-101
-79
-106
-91
-92
-104
-105
-83
-65
-80
-107
-93
-84
-87
-96
-106
-115
-108
-74
-68
-92
-95
-90
-81
-91
-113
-87
-95
-91
-97
-106
-106
-100
-108
-112
-119
-109
-116
-101
-89
-68
-87
-111
-111
-93
-100
-93
-106
-112
-78
-77
-104
-111
-95
-83
-103
-89
-85
-82
-120
-102
-98
-83
-86
-74
-89
-76
-94
-117
-92
-96
-102
-99
-86
-96
-101
-98
-89
-112
-118
-107
-87
-101
-112
-107
-101
-90
-79
-83
-94
-106
-103
-79
-76
-95
-93
-74
-88
-102
-93
-79
-92
-107
-106
-95
-92
-90
-80
-77
-90
-93
-96
-92
-70
-95
-95
-76
-77
-81
-94
-96
-110
-120
-117
-74
-78
-100
-85
-101
-89
-91
-96
-95
-105
-95
-65
-74
-87
-98
-93
-81
-84
-113
-97
-92
-92
-73
-67
-90
-91
-100
-113
-89
-96
-87
-79
-71
-67
-81
-80
-84
-86
-94
-86
-99
-102
-95
-84
-80
-110
-127
-104
-89
-70
-71
-85
-80
-109
-92
-83
-92
-75
-67
-74
-80
-97
-88
-74
-89
-72
-58
-54
-80
-96
-86
-81
-79
-81
-78
-88
-86
-92
-95
-70
-66
-68
-80
-82
-75
-75
-95
-80
-100
-84
-78
-94
-64
-52
-80
-79
-93
-106
-79
-86
-79
-44
-82
-74
-58
-62
-73
-85
-77
-85
-72
-61
-53
-76
-88
-97
-103
-72
-85
-103
-96
-85
-86
-83
-72
-69
-79
-79
-63
-88
-71
-93
-92
-80
-83
-89
-102
-100
-79
-82
-81
-99
-77
-68
-62
-95
-76
-59
-60
-77
-85
-55
-55
-54
-35
0
26
33
42
67
45
53
57
50
41
13
-10
-4
-39
-91
-115
-123
-89
-102
-101
-123
-108
-86
-82
-80
-99
-89
-84
-85
-99
-79
-84
-85
-83
-91
-94
-74
-59
-72
-74
-78
-81
-73
-76
-74
-45
-43
-75
-80
-84
-78
-66
-75
-86
-92
-89
-81
-84
-97
-101
-83
-61
-99
-84
-57
-64
-83
-68
-80
-73
-73
-76
-92
-72
-40
-55
-78
-73
-66
-86
-81
-90
-66
-72
-91
-65
-65
-67
-41
-55
-77
-65
-69
-63
-72
-71
-80
-76
-80
-85
-69
-80
-72
-74
-76
-57
-62
-78
-55
-47
-60
-60
-33
-48
-82
-51
-33
-37
-70
-75
-77
-80
-37
-45
-36
-19
-39
-28
-21
-25
-35
-21
-30
-47
-15
-28
-19
-13
-22
-26
-36
-37
-31
-7
-31
-51
-33
-18
-47
-25
-22
-2
5
-36
-46
-35
-35
-35
-46
-50
-53
-35
-35
-34
-51
-71
-53
-49
-46
-42
-52
-42
-66
-59
-56
-69
-60
-48
-82
-81
-74
-82
-76
-78
-58
-52
-84
-91
-105
-115
-104
-75
-77
-92
-72
-81
-73
-68
-72
-82
-85
-90
-82
-78
-81
-81
-77
-91
-95
-78
-69
-63
-51
-69
-92
-96
-88
-91
-78
-86
-69
-74
-88
-89
-94
-83
-73
-75
-91
-105
-76
-89
-90
-70
-70
-84
-80
-77
-76
-83
-79
-58
-66
-82
-88
-97
-92
-76
-82
-75
-71
-79
-63
-79
-77
-80
-78
-92
-79
-68
-67
-82
-95
-81
-91
-84
-69
-84
-92
-72
-63
-75
-70
-90
-89
-89
-69
-99
-93
-88
-65
-55
-84
-79
-62
-57
-54
-96
-90
-117
-97
-72
-70
-71
-96
-96
-89
-76
-81
-98
-95
-79
-70
-85
-88
-96
-98
-87
-74
-103
-104
-94
-78
-83
-90
-73
-102
-94
-61
-69
-91
-95
-88
-81
-60
-83
-99
-69
-71
-78
-71
-72
-73
-96
-83
-91
-106
-82
-85
-82
-86
-106
-106
-78
-87
-104
-87
-88
-105
-102
-104
-99
-72
-82
-91
-98
-89
-95
-87
-92
-84
-77
-81
-89
-85
-89
-98
-97
-60
-79
-86
-86
-73
-68
-86
-87
-101
-96
-106
-102
-96
-97
-90
-53
-75
-102
-99
-89
-88
-90
-99
-98
-85
-80
-94
-96
-103
-102
-99
-75
-52
-72
-107
-98
-89
-84
-62
-77
-96
-90
-103
-94
-114
-104
-78
-86
-82
-81
-88
-78
-76
-87
-98
-97
-71
-84
-83
-105
-119
-129
-110
-94
-82
-82
-78
-91
-79
-83
-98
-88
-93
-95
-113
-85
-85
-78
-90
-84
-95
-93
-90
-84
-91
-94
-85
-82
-91
-105
-110
-75
-83
-90
-76
-64
-71
-106
-99
-107
-97
-92
-102
-97
-76
-82
-87
-90
-93
-98
-94
-98
-108
-117
-102
-120
-91
-89
-100
-88
-78
-82
-95
-74
-86
-108
-106
-92
-92
-108
-86
-94
-98
-77
-76
-72
-85
-88
-78
-94
-97
-72
-58
-85
-97
-110
-85
-104
-106
-80
-92
-90
-92
-89
-83
-74
-90
-105
-104
-88
-92
-87
-93
-84
-69
-78
-71
-74
-82
-98
-82
-82
-89
-91
-91
-89
-90
-84
-86
-98
-83
-69
-82
-107
-112
-116
-109
-93
-86
-97
-89
-111
-94
-106
-114
-94
-100
-96
-106
-86
-83
-102
-106
-97
-74
-77
-111
-107
-87
-68
-93
-97
-81
-67
-107
-103
-100
-81
-77
-65
-31
-7
12
41
60
42
50
97
73
44
23
9
-22
-62
-75
-92
-106
-101
-97
-104
-117
-103
-108
-108
-90
-95
-134
-83
-87
-104
-107
-98
-115
-100
-108
-122
-99
-77
-112
-130
-89
-85
-84
-87
-118
-104
-83
-78
-64
-85
-117
-115
-91
-88
-87
-88
-83
-90
-108
-94
-71
-90
-78
-111
-101
-109
-114
-90
-87
-73
-75
-79
-83
-92
-72
-79
-72
-73
-63
-82
-120
-102
-109
-92
-89
-95
-90
-69
-85
-85
-72
-100
-107
-86
-78
-88
-77
-64
-78
-93
-69
-67
-88
-95
-76
-84
-91
-81
-86
-92
-79
-83
-57
-68
-92
-79
-81
-76
-63
-57
-68
-68
-76
-68
-78
-75
-56
-46
-41
-72
-55
-42
-39
-27
-36
-42
-36
-44
-48
-38
-33
-25
-34
-37
-4
-31
-41
-57
-34
-46
-52
-51
-60
-40
-52
-53
-27
-30
-41
-38
-48
-66
-85
-79
-85
-34
-34
-55
-58
-63
-66
-71
-81
-76
-76
-84
-97
-64
-83
-106
-118
-105
-93
-89
-95
-96
-104
-114
-88
-70
-77
-95
-93
-126
-103
-86
-103
-111
-106
-93
-94
-91
-86
-99
-83
-78
-94
-109
-104
-96
-79
-75
-98
-94
-107
-96
-72
-90
-98
-106
-103
-104
-95
-99
-97
-110
-104
-104
-95
-117
-108
-94
-98
-84
-105
-99
-86
-88
-82
-89
-89
-95
-95
-85
-96
-99
-106
-97
-104
-106
-64
-80
-86
-76
-94
-86
-95
-80
-100
-87
-93
-104
-90
-90
-95
-97
-91
-120
-104
-106
-103
-83
-89
-90
-99
-86
-106
-98
-99
-101
-104
-115
-100
-92
-96
-91
-98
-103
-117
-111
-92
-73
-81
-77
-84
-94
-99
-99
-98
-100
-81
-87
-94
-82
-91
-88
-98
-114
-113
-123
-109
-102
-92
-107
-117
-115
-114
-81
-93
-107
-102
-106
-85
-90
-86
-93
-105
-119
-118
-137
-106
-113
-99
-90
-98
-98
-84
-100
-89
-80
-77
-94
-111
-88
-79
-103
-105
-93
-77
-108
-116
-105
-96
-90
-112
-111
-116
-117
-110
-96
-101
-88
-83
-96
-74
-96
-113
-109
-107
-110
-121
-136
-131
-125
-117
-108
-74
-75
-93
-92
-98
-94
-97
-69
-78
-110
-106
-115
-87
-99
-118
-97
-104
-95
-89
-105
-96
-89
-108
-91
-99
-117
-118
-108
-91
-97
-100
-117
-104
-88
-100
-106
-100
-121
-128
-85
-89
-107
-114
-102
-98
-81
-90
-103
-94
-115
-107
-125
-102
-101
-100
-90
-93
-102
-94
-91
-102
-117
-104
-110
-108
-110
-117
-85
-82
-85
-122
-110
-113
-124
-117
-115
-110
-98
-120
-103
-119
-103
-81
-86
-98
-96
-96
-89
-90
-106
-101
-98
-93
-100
-82
-86
-118
-92
-127
-127
-109
-115
-114
-102
-112
-118
-109
-109
-104
-99
-97
-90
-78
-112
-89
-86
-108
-133
-127
-118
-103
-102
-117
-89
-91
-99
-107
-104
-101
-90
-61
-96
-124
-107
-90
-103
-115
-108
-73
-82
-90
-104
-95
-94
-91
-95
-100
-106
-105
-91
-77
-102
-91
-93
-108
-112
-115
-120
-130
-123
-96
-118
-119
-130
-103
-92
-105
-104
-94
-101
-99
-101
-128
-111
-100
-97
-100
-106
-119
-124
-113
-118
-114
-98
-105
-104
-96
-101
-106
-115
-101
-109
-109
-100
-85
-83
-78
-90
-69
-73
-59
-52
-43
-12
19
19
27
39
12
-27
-41
-45
-43
-83
-121
-137
-143
-133
-151
-152
-137
-132
-150
-132
-123
-115
-113
-106
-122
-125
-87
-115
-81
-89
-99
-117
-125
-127
-133
-112
-103
-112
-102
-86
-87
-96
-111
-108
-116
-130
-114
-144
-136
-98
-65
-64
-81
-81
-95
-95
-100
-107
-107
-89
-99
-103
-109
-97
-109
-110
-98
-84
-89
-110
-102
-100
-101
-68
-78
-74
-112
-105
-116
-78
-78
-117
-118
-104
-84
-85
-105
-110
-100
-84
-89
-82
-71
-96
-99
-107
-93
-92
-89
-71
-79
-77
-73
-78
-88
-78
-85
-83
-63
-84
-89
-63
-51
-73
-57
-64
-98
-68
-93
-84
-74
-65
-41
-24
-53
-51
-55
-69
-69
-57
-56
-66
-78
-47
-39
-41
-40
-23
-50
-63
-58
-48
-24
-31
-35
-45
-42
-35
-38
-25
-14
-32
-71
-79
-71
-64
-66
-59
-42
-56
-65
-74
-72
-86
-84
-88
-108
-93
-105
-96
-104
-87
-76
-96
-90
-87
-109
-90
-112
-126
-110
-85
-91
-109
-89
-82
-73
-104
-97
-96
-90
-115
-106
-116
-106
-110
-119
-102
-98
-104
-109
-109
-104
-109
-96
-106
-107
-114
-125
-104
-112
-112
-132
-96
-87
-100
-110
-136
-123
-91
-105
-156
-130
-93
-78
-63
-72
-107
-106
-120
-109
-105
-97
-76
-105
-109
-81
-98
-112
-114
-114
-115
-105
-100
-107
-98
-113
-110
-129
-126
-108
-115
-99
-79
-100
-114
-114
-116
-115
-106
-88
-113
-96
-106
-100
-111
-133
-113
-94
-101
-101
-74
-93
-95
-76
-88
-111
-84
-102
-129
-128
-115
-107
-105
-120
-129
-104
-69
-103
-104
-112
-105
-103
-107
-120
-126
-128
-113
-102
-110
-92
-105
-109
-113
-139
-130
-104
-96
-121
-116
-98
-105
-109
-97
-119
-108
-99
-106
-99
-87
-95
-113
-146
-145
-113
-118
-114
-104
-106
-110
-127
-124
-105
-110
-118
-110
-112
-115
-111
-105
-121
-110
-99
-107
-112
-118
-142
-125
-108
-110
-106
-91
-109
-117
-99
-87
-120
-101
-91
-113
-142
-138
-128
-104
-117
-112
-104
-111
-119
-103
-103
-99
-113
-119
-114
-112
-130
-128
-100
-112
-105
-102
-112
-118
-126
-109
-118
-115
-109
-91
-106
-127
-126
-141
-112
-123
-105
-96
-110
-115
-105
-119
-113
-106
-107
-101
-93
-107
-113
-143
-153
-131
-95
-105
-131
-94
-96
-111
-117
-109
-118
-125
-109
-106
-109
-120
-121
-123
-111
-93
-111
-113
-115
-114
-109
-114
-94
-96
-106
-107
-110
-126
-126
-149
-134
-120
-144
-145
-115
-97
-97
-104
-132
-113
-103
-112
-103
-94
-93
-115
-125
-141
-119
-113
-102
-119
-118
-108
-106
-119
-126
-117
-113
-105
-128
-130
-92
-107
-109
-127
-125
-107
-104
-113
-127
-123
-107
-96
-107
-101
-143
-126
-109
-117
-114
-118
-123
-117
-107
-96
-94
-111
-121
-119
-97
-91
-101
-94
-80
-109
-117
-102
-92
-118
-100
-120
-120
-113
-122
-135
-126
-120
-125
-140
-114
-95
-103
-120
-134
-117
-125
-126
-111
-105
-105
-87
-115
-105
-110
-129
-123
-142
-132
-121
-107
-107
-106
-101
-98
-109
-147
-120
-121
-113
-95
-112
-104
-117
-114
-111
-120
-104
-97
-103
-98
-91
-79
-62
-44
-37
-1
-7
2
23
31
31
24
4
-17
-55
-82
-105
-126
-144
-152
-130
-118
-124
-122
-127
-130
-122
-102
-96
-130
-151
-116
-142
-138
-122
-120
-114
-108
-120
-117
-123
-108
-105
-113
-107
-97
-92
-105
-117
-107
-90
-99
-102
-98
-100
-103
-112
-108
-96
-75
-80
-95
-93
-124
-130
-126
-122
-99
-92
-99
-102
-108
-111
-103
-104
-123
-106
-121
-95
-99
-88
-94
-94
-86
-69
-101
-105
-125
-133
-104
-95
-84
-82
-90
-110
-100
-90
-90
-90
-96
-93
-88
-77
-77
-90
-89
-83
-67
-72
-88
-86
-104
-113
-79
-90
-96
-86
-100
-96
-83
-93
-94
-86
-55
-68
-73
-65
-61
-66
-71
-68
-57
-66
-64
-65
-57
-51
-53
-68
-44
-64
-64
-36
-35
-45
-24
-18
-48
-39
-51
-50
-40
-57
-53
-58
-70
-47
-59
-39
-49
-61
-76
-62
-72
-78
-90
-77
-75
-76
-81
-80
-57
-80
-92
-67
-75
-99
-90
-97
-99
-112
-93
-86
-95
-115
-124
-123
-101
-88
-80
-83
-87
-102
-96
-92
-104
-98
-109
-126
-112
-102
-99
-93
-100
-104
-108
-109
-107
-89
-95
-101
-95
-99
-97
-112
-120
-119
-110
-109
-96
-105
-94
-101
-126
-98
-100
-100
-94
-112
-108
-130
-109
-98
-101
-101
-108
-113
-107
-97
-110
-138
-126
-86
-98
-112
-95
-97
-96
-98
-84
-89
-95
-105
-91
-107
-128
-96
-87
-90
-81
-105
-94
-116
-133
-104
-97
-111
-122
-108
-87
-97
-93
-91
-100
-95
-98
-106
-115
-110
-111
-131
-109
-104
-95
-111
-91
-98
-116
-118
-124
-107
-96
-77
-87
-85
-91
-119
-107
-124
-103
-101
-90
-106
-112
-97
-109
-127
-108
-113
-100
-89
-96
-105
-107
-106
-97
-101
-104
-103
-109
-122
-121
-112
-124
-147
-124
-109
-108
-127
-103
-95
-100
-106
-97
-105
-89
-104
-108
-104
-111
-115
-92
-95
-101
-116
-127
-120
-124
-123
-114
-129
-127
-114
-83
-133
-88
-74
-97
-105
-112
-104
-118
-137
-104
-108
-132
-137
-102
-89
-113
-124
-105
-96
-100
-103
-108
-119
-120
-98
-113
-127
-129
-117
-124
-110
-122
-129
-117
-111
-95
-108
-95
-96
-120
-107
-85
-84
-124
-142
-107
-100
-104
-112
-103
-124
-111
-116
-119
-114
-112
-107
-131
-122
-118
-86
-96
-139
-147
-132
-108
-132
-128
-118
-111
-114
-108
-88
-92
-109
-106
-112
-117
-110
-115
-115
-94
-128
-120
-101
-85
-103
-135
-129
-104
-123
-130
-135
-128
-133
-122
-132
-121
-118
-113
-114
-101
-94
-92
-94
-90
-113
-116
-114
-127
-124
-112
-123
-108
-119
-119
-154
-103
-92
-117
-105
-99
-124
-121
-105
-114
-130
-142
-93
-95
-120
-112
-119
-100
-114
-134
-109
-105
-98
-111
-104
-117
-115
-93
-105
-106
-122
-123
-147
-150
-136
-130
-101
-106
-100
-106
-110
-105
-101
-95
-121
-102
-124
-121
-133
-131
-112
-108
-84
-100
-88
-97
-97
-84
-101
-110
-105
-96
-91
-103
-123
-117
-98
-99
-110
-112
-102
-113
-110
-124
-114
-126
-120
-135
-112
-112
-110
-111
-124
-117
-118
-132
-117
-113
-114
-144
-115
-120
-116
-104
-109
-121
-106
-110
-110
-124
-106
-111
-115
-102
-124
-112
-90
-81
-71
-122
-136
-124
-118
-99
-79
-60
-53
-21
13
5
6
9
37
9
10
-3
-41
-25
-58
-94
-96
-116
-149
-145
-138
-146
-111
-128
-123
-122
-114
-99
-111
-133
-146
-128
-107
-119
-108
-94
-121
-133
-119
-147
-136
-98
-93
-89
-107
-104
-122
-114
-104
-120
-114
-115
-119
-140
-112
-107
-116
-122
-127
-108
-103
-126
-118
-103
-103
-94
-82
-108
-118
-95
-99
-116
-115
-122
-124
-111
-113
-98
-97
-113
-113
-94
-87
-92
-115
-116
-113
-104
-136
-125
-115
-101
-104
-100
-120
-104
-99
-89
-104
-108
-98
-95
-100
-117
-117
-121
-109
-111
-103
-107
-95
-95
-89
-97
-95
-93
-83
-93
-106
-91
-83
-68
-82
-105
-87
-78
-97
-88
-71
-51
-70
-78
-94
-67
-23
-52
-95
-98
-83
-72
-79
-66
-70
-38
-68
-100
-66
-47
-68
-66
-69
-61
-52
-42
-53
-63
-66
-75
-76
-69
-70
-66
-71
-64
-89
-85
-80
-92
-71
-101
-114
-100
-89
-67
-86
-85
-110
-132
-120
-95
-102
-125
-139
-105
-97
-102
-117
-133
-143
-139
-130
-103
-104
-108
-104
-89
-121
-110
-106
-126
-130
-106
-132
-118
-119
-131
-111
-100
-111
-112
-114
-122
-104
-96
-101
-110
-124
-140
-132
-126
-115
-104
-115
-116
-101
-122
-116
-119
-140
-140
-118
-115
-108
-110
-136
-130
-100
-96
-106
-106
-107
-117
-134
-115
-116
-101
-118
-112
-121
-110
-114
-124
-114
-103
-104
-107
-108
-104
-112
-139
-105
-88
-103
-134
-144
-134
-102
-98
-126
-110
-126
-116
-97
-99
-99
-103
-117
-111
-126
-128
-118
-118
-124
-117
-105
-106
-110
-109
-107
-114
-120
-103
-103
-134
-124
-106
-112
-119
-117
-110
-95
-113
-107
-103
-106
-114
-107
-114
-117
-119
-123
-112
-119
-129
-119
-129
-118
-127
-110
-96
-101
-106
-113
-145
-133
-115
-102
-128
-127
-126
-115
-97
-102
-135
-134
-108
-90
-100
-136
-122
-107
-103
-110
-113
-120
-115
-109
-121
-146
-133
-132
-135
-117
-114
-115
-118
-119
-98
-121
-123
-108
-93
-120
-125
-121
-96
-115
-122
-131
-121
-125
-120
-112
-110
-120
-119
-120
-115
-112
-114
-113
-132
-118
-95
-111
-132
-119
-105
-108
-126
-122
-104
-105
-130
-127
-129
-121
-126
-120
-114
-119
-110
-116
-112
-113
-115
-119
-124
-125
-156
-111
-95
-100
-114
-132
-105
-115
-138
-125
-121
-111
-108
-105
-91
-86
-101
-125
-109
-127
-119
-101
-120
-133
-125
-117
-119
-143
-128
-119
-106
-132
-137
-134
-116
-106
-122
-122
-105
-109
-104
-91
-103
-128
-131
-132
-142
-128
-138
-106
-93
-98
-99
-105
-127
-137
-111
-109
-108
-99
-106
-123
-128
-111
-104
-91
-80
-95
-110
-125
-124
-110
-115
-116
-113
-108
-117
-109
-110
-119
-116
-114
-132
-137
-120
-126
-163
-146
-108
-100
-107
-102
-87
-99
-113
-120
-117
-105
-108
-101
-119
-98
-127
-121
-108
-98
-85
-96
-94
-97
-87
-91
-97
-87
-115
-117
-108
-104
-84
-105
-114
-114
-118
-113
-83
-101
-93
-105
-124
-132
-134
-118
-134
-126
-124
-120
-114
-110
-115
-112
-102
-101
-94
-114
-118
-93
-114
-123
-105
-97
-99
-109
-128
-124
-105
-92
-120
-117
-136
-97
-102
-113
-120
-120
-109
-110
-99
-116
-127
-105
-98
-90
-107
-108
-81
-74
-49
1
24
29
28
47
47
30
22
8
-18
-19
-48
-62
-84
-110
-122
-127
-136
-111
-112
-134
-137
-137
-119
-126
-138
-129
-118
-118
-122
-125
-123
-113
-90
-107
-104
-103
-116
-109
-115
-145
-123
-116
-144
-127
-108
-92
-78
-67
-102
-115
-102
-103
-110
-94
-105
-112
-118
-133
-116
-112
-81
-85
-120
-107
-99
-101
-107
-100
-100
-138
-123
-136
-93
-102
-89
-106
-108
-106
-101
-97
-102
-106
-122
-98
-85
-93
-106
-109
-111
-97
-92
-70
-80
-104
-83
-89
-117
-102
-102
-99
-106
-100
-95
-95
-102
-108
-132
-71
-67
-93
-93
-97
-84
-48
-57
-73
-71
-70
-58
-80
-81
-78
-83
-81
-75
-58
-50
-63
-67
-72
-72
-48
-45
-60
-53
-54
-68
-71
-67
-57
-49
-49
-51
-61
-49
-51
-46
-58
-69
-55
-47
-39
-34
-27
-34
-35
-39
-72
-88
-76
-73
-70
-79
-96
-94
-83
-102
-113
-82
-61
-66
-96
-108
-111
-102
-115
-120
-92
-87
-95
-85
-92
-98
-109
-109
-108
-116
-122
-129
-107
-114
-109
-103
-116
-116
-110
-106
-95
-83
-114
-135
-106
-111
-103
-109
-132
-106
-99
-94
-110
-134
-113
-122
-77
-77
-94
-114
-135
-123
-126
-127
-123
-110
-102
-108
-116
-91
-91
-106
-130
-117
-110
-128
-123
-115
-108
-103
-92
-76
-119
-122
-119
-110
-118
-102
-87
-90
-112
-114
-117
-114
-116
-97
-107
-95
-85
-89
-102
-104
-106
-116
-121
-106
-108
-106
-90
-119
-113
-101
-112
-134
-136
-109
-109
-119
-118
-92
-90
-100
-95
-122
-117
-115
-128
-124
-108
-103
-95
-93
-110
-83
-88
-120
-119
-125
-151
-153
-123
-94
-94
-104
-100
-99
-114
-94
-76
-95
-130
-139
-132
-139
-139
-131
-112
-114
-123
-93
-105
-108
-107
-98
-110
-124
-133
-138
-121
-96
-96
-107
-113
-125
-100
-134
-111
-105
-116
-101
-123
-111
-119
-133
-137
-124
-121
-117
-131
-113
-143
-128
-124
-109
-96
-123
-99
-121
-112
-116
-117
-141
-117
-100
-118
-120
-117
-113
-118
-118
-134
-111
-118
-123
-128
-99
-100
-103
-109
-122
-114
-118
-136
-125
-98
-95
-105
-113
-111
-118
-120
-125
-121
-122
-128
-127
-129
-123
-101
-109
-126
-147
-129
-126
-106
-116
-114
-129
-119
-137
-128
-116
-99
-98
-117
-112
-109
-116
-95
-117
-106
-112
-114
-113
-115
-130
-119
-120
-127
-115
-117
-85
-94
-102
-89
-125
-141
-149
-141
-134
-135
-141
-130
-116
-91
-101
-120
-108
-114
-104
-125
-117
-122
-114
-120
-123
-118
-116
-129
-119
-121
-129
-109
-110
-136
-112
-115
-108
-94
-106
-119
-106
-99
-108
-110
-89
-88
-126
-122
-118
-124
-127
-103
-119
-120
-121
-123
-108
-117
-139
-122
-142
-140
-121
-107
-120
-128
-141
-112
-129
-133
-128
-108
-99
-107
-92
-93
-111
-114
-102
-104
-98
-101
-98
-113
-111
-107
-107
-101
-113
-128
-117
-108
-111
-113
-107
-100
-113
-110
-121
-110
-115
-122
-134
-148
-132
-115
-124
-90
-111
-100
-100
-100
-118
-142
-127
-85
-100
-108
-109
-119
-118
-130
-129
-127
-105
-116
-129
-109
-113
-125
-117
-109
-95
-102
-121
-136
-118
-101
-113
-123
-137
-127
-126
-124
-111
-126
-128
-135
-122
-101
-94
-115
-67
-58
-50
-25
-5
18
2
-4
3
30
12
-16
-20
-49
-79
-91
-108
-140
-168
-154
-137
-132
-138
-136
-151
-146
-129
-104
-120
-150
-132
-122
-127
-154
-135
-136
-141
-137
-140
-125
-88
-93
-126
-125
-119
-97
-121
-112
-115
-104
-96
-101
-94
-120
-131
-118
-122
-117
-114
-120
-126
-128
-102
-93
-116
-109
-112
-107
-72
-73
-114
-133
-122
-116
-125
-126
-137
-117
-108
-110
-115
-117
-90
-95
-103
-94
-103
-89
-91
-107
-100
-113
-111
-110
-101
-108
-93
-97
-114
-85
-71
-90
-93
-101
-116
-115
-107
-82
-68
-91
-107
-96
-73
-75
-88
-91
-97
-115
-110
-108
-103
-80
-76
-60
-52
-83
-98
-93
-79
-59
-50
-66
-68
-65
-78
-59
-52
-45
-59
-60
-58
-38
-39
-58
-66
-56
-51
-70
-85
-73
-58
-49
-46
-54
-51
-63
-57
-53
-68
-75
-73
-74
-68
-92
-108
-80
-83
-110
-106
-88
-61
-84
-124
-107
-92
-89
-104
-111
-97
-95
-107
-129
-110
-89
-94
-116
-117
-108
-120
-111
-118
-126
-123
-127
-117
-107
-108
-105
-126
-112
-110
-146
-143
-155
-122
-103
-126
-129
-125
-118
-107
-110
-111
-145
-115
-108
-146
-147
-116
-117
-107
-102
-131
-131
-118
-114
-115
-133
-116
-110
-102
-131
-126
-124
-112
-97
-111
-114
-108
-121
-105
-125
-104
-98
-126
-138
-139
-127
-107
-94
-111
-132
-138
-119
-116
-110
-103
-116
-131
-101
-121
-128
-127
-136
-122
-107
-103
-121
-128
-130
-112
-102
-102
-116
-139
-108
-102
-115
-106
-117
-129
-95
-95
-144
-122
-96
-115
-122
-117
-109
-98
-123
-151
-138
-125
-108
-105
-108
-124
-120
-126
-121
-102
-94
-134
-130
-132
-115
-122
-107
-108
-104
-120
-148
-134
-113
-140
-123
-106
-118
-127
-107
-134
-133
-113
-118
-116
-114
-127
-106
-89
-111
-112
-119
-151
-137
-144
-127
-111
-107
-114
-77
-95
-121
-126
-131
-119
-108
-116
-96
-91
-98
-112
-125
-106
-110
-130
-148
-156
-112
-102
-139
-157
-138
-124
-129
-126
-113
-113
-133
-127
-92
-97
-111
-114
-112
-148
-135
-112
-84
-89
-124
-124
-133
-96
-99
-114
-110
-108
-123
-139
-112
-113
-95
-102
-134
-134
-126
-110
-116
-136
-150
-123
-91
-84
-118
-136
-128
-132
-124
-121
-113
-114
-119
-115
-113
-127
-110
-99
-91
-108
-119
-89
-100
-111
-127
-133
-132
-121
-122
-146
-146
-115
-81
-82
-104
-131
-108
-124
-129
-141
-142
-132
-115
-103
-117
-99
-116
-110
-131
-107
-114
-114
-109
-108
-120
-113
-102
-105
-113
-104
-99
-108
-118
-115
-127
-117
-105
-123
-148
-131
-133
-118
-111
-104
-122
-112
-112
-128
-143
-129
-109
-136
-115
-100
-104
-102
-115
-113
-102
-115
-121
-114
-113
-128
-116
-94
-104
-114
-106
-107
-111
-126
-107
-116
-131
-118
-109
-132
-120
-101
-95
-89
-91
-117
-113
-96
-106
-103
-101
-101
-103
-98
-97
-98
-100
-125
-122
-102
-125
-141
-152
-155
-118
-115
-90
-86
-102
-116
-118
-113
-119
-112
-114
-131
-132
-132
-131
-117
-102
-109
-89
-117
-140
-126
-132
-124
-86
-111
-121
-131
-122
-128
-116
-97
-118
-120
-112
-124
-112
-89
-91
-100
-116
-127
-111
-102
-86
-43
-33
-28
-11
30
24
25
31
30
26
-3
-41
-55
-67
-102
-103
-108
-161
-164
-132
-141
-168
-131
-122
-95
-130
-142
-142
-132
-118
-91
-115
-105
-110
-119
-119
-110
-93
-120
-120
-106
-126
-126
-122
-132
-121
-105
-103
-107
-93
-115
-90
-118
-116
-79
-78
-92
-114
-122
-117
-113
-107
-84
-85
-113
-169
-134
-117
-108
-114
-126
-128
-109
-89
-79
-93
-106
-101
-122
-121
-90
-91
-79
-105
-112
-116
-114
-99
-106
-107
-95
-99
-98
-93
-100
-77
-103
-109
-113
-130
-120
-101
-91
-93
-92
-83
-101
-98
-79
-101
-79
-107
-109
-106
-110
-83
-62
-66
-89
-96
-87
-81
-93
-74
-80
-74
-63
-73
-41
-51
-62
-64
-72
-66
-79
-85
-67
-68
-78
-53
-65
-69
-63
-50
-39
-40
-37
-47
-48
-57
-54
-63
-55
-67
-75
-73
-61
-56
-87
-78
-67
-79
-69
-70
-76
-78
-73
-98
-93
-101
-92
-74
-104
-83
-70
-87
-83
-106
-120
-125
-118
-100
-103
-102
-117
-121
-118
-97
-98
-99
-106
-106
-115
-131
-136
-100
-103
-114
-113
-125
-119
-119
-94
-137
-122
-119
-109
-121
-121
-108
-98
-112
-108
-127
-132
-112
-116
-87
-87
-96
-112
-119
-126
-111
-106
-118
-107
-131
-141
-106
-91
-89
-112
-131
-113
-98
-94
-123
-123
-112
-117
-144
-143
-127
-132
-123
-106
-90
-73
-82
-82
-133
-134
-122
-119
-115
-98
-95
-99
-116
-126
-110
-101
-101
-106
-83
-112
-98
-114
-99
-106
-88
-118
-138
-121
-105
-118
-109
-114
-121
-137
-118
-90
-140
-95
-98
-101
-105
-124
-113
-125
-115
-120
-109
-104
-121
-150
-115
-99
-108
-118
-120
-99
-92
-99
-102
-115
-108
-105
-109
-113
-119
-113
-119
-136
-122
-111
-106
-114
-117
-120
-103
-127
-114
-103
-105
-113
-113
-113
-116
-120
-129
-115
-136
-115
-119
-124
-122
-112
-107
-122
-122
-112
-114
-116
-146
-125
-125
-104
-113
-123
-104
-112
-108
-120
-106
-122
-112
-117
-111
-104
-127
-122
-122
-140
-121
-126
-116
-109
-103
-122
-114
-121
-119
-121
-122
-117
-116
-124
-112
-103
-109
-114
-117
-123
-147
-119
-81
-108
-114
-117
-139
-142
-142
-118
-92
-97
-129
-129
-121
-140
-144
-114
-100
-92
-119
-128
-106
-108
-123
-100
-104
-130
-140
-143
-140
-128
-136
-149
-101
-94
-86
-111
-133
-135
-99
-105
-118
-88
-93
-138
-119
-107
-122
-112
-105
-108
-119
-135
-138
-121
-127
-128
-117
-110
-124
-114
-135
-127
-130
-98
-130
-128
-124
-128
-126
-133
-108
-103
-88
-98
-130
-105
-105
-109
-126
-137
-131
-119
-105
-115
-107
-104
-99
-117
-116
-125
-132
-132
-124
-120
-119
-117
-109
-122
-146
-121
-104
-137
-126
-101
-105
-111
-93
-119
-131
-117
-120
-120
-103
-141
-128
-100
-92
-117
-107
-115
-132
-139
-121
-120
-117
-103
-107
-122
-117
-122
-118
-97
-122
-125
-140
-133
-97
-100
-127
-123
-94
-121
-114
-112
-108
-100
-125
-116
-104
-101
-109
-124
-123
-118
-116
-127
-96
-107
-107
-108
-124
-135
-97
-125
-122
-124
-106
-110
-111
-118
-114
-98
-100
-126
-109
-99
-105
-131
-120
-126
-123
-139
-120
-108
-115
-113
-118
-126
-131
-135
-130
-133
-132
-122
-142
-114
-130
-115
-111
-133
-129
-123
-115
-112
-116
-115
-120
-129
-114
-109
-117
-129
-123
-101
-95
-51
-26
-22
1
30
62
34
31
15
24
19
-30
-64
-84
-79
-97
-154
-155
-141
-116
-130
-128
-145
-149
-157
-140
-118
-130
-125
-124
-120
-128
-125
-107
-124
-132
-132
-123
-110
-119
-121
-129
-117
-111
-127
-130
-109
-97
-86
-105
-108
-118
-118
-118
-116
-108
-113
-120
-137
-127
-111
-136
-115
-97
-113
-138
-119
-99
-96
-118
-140
-124
-119
-113
-118
-107
-111
-93
-112
-115
-134
-103
-102
-105
-104
-98
-99
-96
-112
-124
-117
-109
-119
-121
-121
-91
-82
-98
-114
-119
-109
-127
-123
-101
-105
-115
-109
-105
-107
-96
-81
-80
-88
-105
-109
-106
-110
-103
-83
-78
-83
-84
-83
-85
-88
-70
-75
-72
-66
-68
-41
-69
-82
-77
-69
-56
-57
-64
-76
-79
-87
-89
-87
-83
-54
-62
-70
-54
-49
-43
-45
-67
-77
-71
-52
-60
-77
-74
-75
-62
-50
-72
-85
-81
-83
-89
-93
-94
-92
-95
-99
-90
-76
-95
-105
-80
-67
-97
-131
-112
-101
-107
-119
-120
-120
-133
-136
-120
-117
-128
-131
-109
-116
-110
-121
-123
-114
-120
-145
-135
-128
-112
-88
-120
-112
-99
-115
-120
-124
-126
-125
-122
-116
-111
-116
-116
-104
-93
-119
-140
-123
-128
-132
-123
-122
-122
-119
-111
-128
-143
-145
-125
-109
-120
-129
-128
-113
-122
-113
-107
-96
-115
-102
-110
-118
-141
-121
-93
-124
-141
-120
-135
-131
-126
-113
-106
-117
-93
-108
-120
-125
-107
-100
-114
-131
-99
-97
-101
-107
-115
-120
-123
-116
-128
-125
-116
-148
-123
-132
-108
-122
-96
-84
-121
-115
-112
-114
-102
-127
-114
-94
-131
-113
-114
-123
-131
-127
-114
-102
-121
-106
-119
-129
-100
-109
-104
-109
-99
-101
-109
-124
-119
-94
-128
-135
-128
-118
-125
-124
-128
-143
-137
-144
-119
-101
-91
-105
-132
-112
-136
-130
-110
-134
-118
-126
-129
-121
-105
-95
-104
-106
-110
-103
-96
-125
-132
-107
-124
-122
-122
-124
-120
-87
-118
-135
-116
-107
-111
-113
-120
-108
-116
-136
-117
-129
-123
-124
-135
-133
-126
-113
-113
-111
-129
-152
-137
-121
-121
-132
-131
-114
-108
-102
-104
-104
-122
-112
-95
-111
-123
-115
-108
-103
-100
-125
-128
