-173
-156
-86
-85
-17
-17
-13
85
21
-83
-179
-147
-78
-85
-22
-18
-3
75
7
-94
-191
-146
-91
-83
-25
-23
5
74
-10
-102
-185
-136
-90
-72
-21
-20
22
70
-8
-106
-194
-132
-88
-82
-36
-32
29
66
-12
-115
-192
-120
-95
-69
-35
-28
51
66
-25
-112
-194
-121
-82
-70
-36
-27
56
52
-28
-114
-184
-96
-46
-10
44
86
193
205
150
84
27
127
171
181
198
171
210
148
14
-119
-227
-135
-108
-93
-69
-58
37
12
-71
-155
-232
-139
-116
-84
-54
-40
70
31
-53
-126
-201
-100
-91
-51
-29
-21
79
45
-45
-136
-194
-94
-95
-45
-22
-16
86
49
-51
-154
-178
-81
-84
-25
-15
-16
99
50
-52
-161
-168
-79
-78
-13
-6
-2
105
45
-56
-153
-136
-70
-64
3
6
15
118
46
-53
-150
-119
-51
-38
13
16
41
124
55
-43
-134
-83
-38
-17
35
42
77
143
65
-22
-114
-62
-7
8
56
60
119
164
72
-14
-98
-39
7
25
59
71
135
163
78
-13
-105
-29
9
19
62
64
133
144
57
-30
-119
-45
-18
-7
24
32
116
103
16
-71
-151
-75
-56
-35
-9
3
90
64
-18
-110
-188
-96
-66
-46
-24
-15
79
50
-33
-119
-197
-105
-72
-50
-31
-30
82
43
-39
-120
-192
-102
-77
-54
-32
-29
80
50
-38
-121
-204
-99
-83
-48
-36
-21
85
41
-49
-141
-184
-93
-92
-45
-23
-20
88
35
-62
-154
-184
-94
-91
-35
-18
-16
88
31
-68
-163
-168
-90
-86
-23
-24
-18
90
30
-75
-174
-158
-87
-84
-20
-18
-7
86
10
-84
-181
-146
-86
-70
-24
-19
-2
77
-1
-97
-185
-138
-84
-78
-26
-18
17
85
3
-97
-191
-139
-88
-74
-29
-22
31
72
-8
-99
-193
-122
-81
-70
-29
-26
41
65
-10
-109
-196
-122
-85
-64
-32
-24
54
59
-20
-107
-191
-115
-88
-64
-34
-21
66
56
-24
-114
-198
-108
-78
-61
-29
-25
55
48
-34
-120
-197
-107
-82
-62
-34
-24
73
53
-37
-120
-196
-98
-76
-56
-36
-27
73
44
-30
-120
-196
-106
-81
-49
-36
-20
90
50
-38
-115
-189
-94
-83
-46
-22
-22
83
40
-48
-145
-189
-97
-96
-44
-25
-24
79
28
-60
-164
-187
-103
-98
-40
-26
-27
82
26
-77
-179
-177
-99
-100
-34
-28
-23
82
14
-87
-185
-170
-102
-99
-31
-25
-21
77
6
-91
-186
-155
-91
-83
-35
-30
-4
70
-4
-101
-191
-144
-94
-82
-34
-23
12
72
3
-74
-149
-75
0
37
108
137
217
279
214
129
47
121
136
110
104
67
78
54
-45
-146
-232
-151
-122
-105
-73
-66
14
20
-61
-144
-218
-131
-96
-77
-49
-36
50
46
-35
-122
-191
-109
-84
-64
-31
-30
65
48
-32
-117
-194
-104
-75
-55
-28
-17
76
57
-34
-113
-184
-94
-72
-48
-18
-11
83
52
-31
-109
-182
-83
-68
-39
-18
-12
103
59
-25
-104
-173
-74
-71
-29
-3
8
115
77
-13
-125
-166
-64
-58
-4
15
27
130
82
-15
-115
-129
-35
-40
32
43
42
147
98
-6
-102
-92
-15
-14
54
57
68
171
96
-2
-100
-71
-3
1
64
66
78
168
97
-5
-99
-64
-11
-2
46
47
74
138
64
-37
-133
-83
-41
-32
10
13
54
106
24
-75
-171
-111
-67
-59
-15
-20
39
78
-7
-100
-191
-123
-85
-74
-31
-26
48
57
-17
-109
-202
-124
-81
-71
-39
-23
54
52
-30
-126
-201
-117
-83
-70
-38
-31
54
46
-35
-124
-205
-115
-83
-66
-39
-28
62
45
-37
-123
-200
-110
-81
-63
-34
-26
67
43
-41
-117
-196
-109
-83
-59
-40
-21
73
50
-45
-132
-201
-108
-91
-60
-37
-26
77
39
-47
-136
-200
-102
-92
-49
-30
-29
73
33
-55
-164
-197
-99
-97
-42
-25
-24
81
31
-72
-177
-192
-100
-102
-37
-30
-27
79
17
-80
-182
-169
-97
-99
-32
-35
-26
75
13
-93
-187
-161
-90
-88
-30
-33
-15
77
0
-97
-188
-150
-88
-85
-32
-28
3
70
-3
-100
-191
-143
-91
-75
-33
-24
22
68
-13
-104
-192
-131
-86
-78
-44
-30
39
59
-22
-112
-194
-125
-84
-69
-38
-30
45
57
-19
-117
-194
-119
-89
-70
-42
-25
57
54
-29
-118
-198
-118
-80
-64
-37
-26
63
52
-30
-120
-196
-107
-80
-61
-29
-19
73
51
-33
-112
-188
-100
-67
-53
-37
-25
72
43
-44
-120
-197
-103
-85
-58
-33
-26
73
37
-50
-125
-194
-105
-99
-63
-33
-22
73
38
-54
-152
-200
-105
-106
-48
-33
-28
76
23
-71
-173
-192
-102
-104
-40
-36
-31
73
18
-84
-182
-174
-101
-99
-35
-32
-34
76
14
-86
-188
-177
-104
-95
-38
-29
-15
92
42
-38
-121
-63
30
64
142
163
207
296
241
159
68
98
113
71
56
4
-3
35
-52
-135
-227
-182
-126
-110
-66
-57
2
48
-32
-119
-204
-140
-101
-75
-41
-24
44
61
-21
-114
-198
-122
-90
-69
-35
-28
50
61
-19
-115
-187
-107
-77
-63
-33
-19
63
57
-21
-109
-185
-105
-70
-56
-28
-17
74
67
-20
-107
-179
-92
-54
-44
-18
-1
94
73
-11
-98
-174
-82
-54
-27
-4
12
102
74
-11
-84
-158
-62
-40
-11
16
28
132
91
8
-70
-136
-40
-37
12
41
48
154
116
24
-72
-117
-19
-14
37
57
61
170
117
26
-74
-97
-5
-1
57
66
66
166
110
14
-87
-87
-7
-12
53
53
56
151
83
-23
-125
-105
-41
-46
13
15
21
114
39
-61
-157
-123
-76
-69
-9
-11
12
87
10
-86
-182
-140
-82
-65
-21
-18
20
84
2
-93
-195
-128
-90
-70
-29
-24
29
69
-10
-109
-189
-123
-89
-71
-28
-22
40
72
-11
-106
-190
-120
-77
-65
-37
-28
57
55
-25
-116
-195
-118
-80
-61
-38
-22
62
52
-28
-117
-195
-105
-81
-59
-31
-23
64
51
-30
-116
-195
-104
-76
-64
-40
-26
72
43
-40
-125
-195
-104
-79
-56
-36
-19
79
41
-43
-119
-198
-96
-84
-60
-31
-20
77
43
-46
-129
-195
-100
-94
-51
-34
-28
76
35
-61
-157
-196
-103
-98
-41
-25
-26
78
24
-70
-173
-192
-96
-97
-33
-27
-29
80
23
-75
-176
-174
-94
-96
-31
-28
-29
79
12
-86
-180
-157
-95
-88
-28
-30
-15
76
10
-95
-188
-150
-90
-84
-28
-24
6
78
-14
-99
-193
-143
-94
-81
-27
-22
23
73
-10
-107
-194
-120
-83
-74
-30
-28
25
67
-15
-106
-193
-118
-85
-70
-32
-23
44
60
-25
-113
-194
-122
-76
-60
-32
-19
62
70
-11
-108
-184
-104
-80
-59
-27
-11
76
57
-30
-113
-193
-109
-75
-58
-42
-37
59
49
-34
-120
-194
-104
-79
-67
-35
-24
66
40
-47
-117
-201
-109
-80
-60
-41
-25
73
37
-45
-125
-203
-102
-94
-66
-42
-30
76
38
-51
-140
-201
-104
-103
-57
-33
-34
72
29
-60
-159
-198
-102
-100
-44
-30
-33
78
38
-50
-134
-119
-8
14
109
141
165
277
242
158
80
93
146
127
148
84
32
89
-14
-124
-219
-188
-129
-126
-65
-65
-39
48
-23
-114
-201
-158
-102
-88
-36
-30
8
74
-4
-103
-193
-134
-88
-85
-31
-22
29
78
-7
-99
-188
-122
-82
-70
-32
-15
43
79
-7
-96
-185
-116
-69
-58
-23
-18
61
83
-3
-91
-173
-98
-69
-52
-13
-2
80
76
-5
-97
-167
-89
-50
-32
-1
12
95
85
8
-81
-161
-68
-33
-17
13
26
120
98
21
-66
-145
-50
-13
9
37
52
148
117
34
-46
-123
-18
3
25
52
64
166
129
50
-34
-102
0
9
45
63
76
175
136
47
-51
-102
-11
-12
24
47
64
158
103
6
-92
-122
-35
-37
13
22
18
121
63
-37
-141
-144
-72
-73
-12
-13
-10
100
31
-71
-163
-159
-87
-85
-18
-21
-13
87
9
-80
-181
-148
-82
-78
-24
-17
2
83
7
-97
-184
-144
-87
-76
-23
-18
21
74
-3
-98
-190
-128
-81
-77
-32
-20
37
75
-13
-104
-191
-125
-81
-74
-34
-24
45
68
-9
-108
-193
-119
-81
-63
-30
-18
58
66
-18
-111
-193
-112
-76
-59
-27
-17
67
50
-26
-121
-193
-107
-75
-61
-33
-18
71
57
-29
-117
-196
-107
-72
-56
-31
-22
64
39
-40
-121
-196
-104
-74
-55
-31
-25
73
50
-36
-122
-198
-104
-84
-56
-29
-20
88
46
-51
-126
-203
-102
-93
-55
-32
-23
77
36
-54
-151
-193
-98
-95
-43
-32
-26
81
29
-69
-170
-191
-98
-98
-37
-30
-28
85
25
-79
-176
-170
-89
-99
-30
-31
-30
75
21
-83
-174
-155
-91
-91
-26
-27
-18
78
6
-93
-184
-147
-84
-81
-30
-29
3
73
-3
-97
-192
-145
-91
-84
-32
-23
21
77
-6
-99
-192
-132
-85
-76
-39
-33
37
71
-14
-107
-195
-125
-78
-66
-25
-23
53
72
-13
-107
-187
-107
-78
-64
-31
-26
56
59
-23
-120
-199
-114
-70
-59
-33
-30
56
46
-31
-122
-205
-118
-84
-70
-43
-29
64
48
-31
-119
-205
-109
-83
-69
-40
-28
63
35
-46
-129
-205
-111
-86
-63
-40
-31
68
37
-46
-128
-203
-109
-97
-61
-43
-33
78
31
-51
-136
-206
-106
-99
-52
-38
-31
76
44
-36
-112
-125
2
26
115
146
170
289
257
171
82
71
135
93
101
43
-4
56
-20
-121
-212
-201
-138
-129
-61
-60
-56
50
-16
-109
-201
-158
-106
-98
-38
-30
-13
73
3
-99
-192
-151
-93
-84
-26
-25
11
81
2
-99
-183
-130
-81
-68
-18
-21
29
85
-4
-95
-180
-118
-74
-59
-25
-18
54
77
-1
-96
-182
-105
-66
-52
-11
-8
77
84
3
-91
-171
-91
-54
-35
3
5
82
83
8
-68
-151
-73
-39
-15
14
30
116
97
23
-63
-138
-44
-18
0
28
46
140
115
50
-39
-114
-23
3
25
54
64
161
135
50
-25
-105
-11
13
40
62
77
174
136
49
-28
-107
-9
1
30
46
59
163
111
21
-74
-132
-35
-40
10
21
15
118
69
-29
-138
-159
-69
-76
-11
0
-11
94
40
-57
-158
-165
-84
-87
-19
-16
-11
91
20
-77
-177
-159
-86
-86
-22
-20
-8
81
11
-87
-182
-143
-84
-77
-27
-26
8
91
1
-94
-179
-125
-87
-79
-26
-18
23
79
-2
-94
-186
-130
-85
-73
-31
-15
45
80
-5
-95
-184
-119
-78
-68
-31
-22
54
72
-11
-109
-189
-115
-84
-58
-26
-14
64
64
-20
-110
-192
-107
-71
-64
-32
-20
63
62
-21
-112
-193
-108
-80
-63
-28
-17
68
53
-31
-121
-198
-102
-80
-54
-36
-19
75
49
-29
-120
-194
-102
-73
-52
-33
-26
81
51
-39
-120
-197
-99
-83
-49
-37
-24
81
42
-43
-123
-196
-97
-94
-46
-35
-28
80
44
-54
-155
-194
-91
-91
-38
-29
-29
83
30
-65
-169
-178
-93
-98
-33
-24
-25
77
27
-78
-176
-167
-93
-93
-24
-23
-22
86
20
-83
-178
-150
-92
-87
-24
-24
-5
84
5
-91
-183
-138
-82
-83
-33
-18
20
84
6
-86
-178
-126
-73
-64
-22
-10
38
84
-2
-91
-184
-120
-77
-65
-29
-20
41
79
-18
-111
-190
-114
-79
-68
-29
-20
50
65
-19
-108
-195
-117
-78
-64
-31
-28
64
60
-18
-114
-193
-109
-83
-65
-26
-25
54
47
-33
-117
-197
-110
-83
-63
-32
-22
66
43
-37
-116
-193
-107
-77
-54
-33
-26
77
47
-39
-116
-191
-84
-49
4
50
92
210
206
142
84
29
133
151
180
183
155
202
120
-13
-151
-224
-126
-128
-80
-57
-52
46
-2
-94
-198
-215
-124
-116
-60
-41
-37
75
22
-76
-168
-171
-93
-90
-25
-20
-19
82
30
-69
-175
-151
-88
-82
-16
-22
-5
92
22
-81
-170
-131
-81
-76
-15
-2
16
104
20
-76
-167
-124
-72
-58
-3
2
45
105
18
-74
-167
-107
-60
-44
3
10
63
108
20
-64
-146
-88
-47
-25
12
28
95
122
39
-51
-136
-56
-21
-1
32
47
129
136
55
-36
-115
-32
-2
27
57
64
147
145
61
-18
-92
-16
19
37
63
72
161
150
66
-18
-104
-12
20
37
55
70
161
130
40
-44
-124
-35
-18
11
26
27
117
91
11
-82
-163
-65
-56
-31
-10
1
95
59
-23
-113
-187
-86
-83
-43
-21
-17
88
48
-46
-150
-194
-85
-87
-40
-20
-27
75
34
-57
-161
-190
-94
-93
-34
-25
-18
88
36
-62
-164
-178
-94
-92
-28
-21
-16
83
25
-79
-174
-153
-88
-87
-24
-24
-7
91
20
-80
-188
-144
-79
-77
-20
-18
14
90
9
-92
-187
-134
-83
-72
-27
-18
28
87
0
-98
-192
-127
-77
-71
-28
-17
42
84
-5
-100
-190
-126
-86
-70
-26
-21
46
84
-6
-102
-198
-119
-80
-60
-28
-20
63
64
-24
-113
-190
-111
-79
-68
-33
-22
63
58
-23
-108
-196
-113
-90
-61
-32
-16
71
54
-27
-113
-200
-107
-76
-56
-31
-18
73
52
-34
-119
-196
-103
-80
-53
-34
-22
81
45
-42
-125
-204
-98
-89
-56
-32
-19
92
44
-43
-138
-201
-98
-97
-49
-25
-18
88
41
-54
-159
-189
-94
-97
-46
-21
-23
87
32
-67
-163
-174
-91
-91
-25
-13
-6
103
39
-65
-167
-161
-78
-78
-12
-10
-3
97
22
-75
-178
-154
-86
-88
-22
-25
-10
82
12
-88
-187
-143
-87
-75
-25
-14
16
84
1
-94
-190
-137
-88
-74
-27
-23
30
84
-9
-98
-193
-120
-85
-75
-35
-18
42
66
-18
-108
-193
-125
-88
-67
-34
-23
53
67
-15
-111
-200
-116
-86
-64
-39
-24
63
72
4
-62
-115
-5
52
94
145
174
282
288
212
134
51
103
97
68
34
-13
45
15
-75
-152
-224
-129
-113
-99
-71
-50
48
22
-67
-139
-206
-114
-98
-59
-37
-23
71
43
-37
-116
-192
-95
-92
-52
-27
-18
82
46
-48
-140
-182
-85
-92
-41
-14
-8
98
48
-46
-147
-164
-86
-86
-26
-14
-9
103
41
-46
-149
-154
-71
-74
-10
-1
2
112
54
-54
-153
-131
-59
-55
3
11
26
126
47
-46
-131
-103
-43
-29
21
33
54
137
67
-26
-122
-80
-26
-6
47
52
92
162
75
-11
-104
-51
-5
24
59
68
124
168
82
-6
-97
-30
6
19
67
73
132
165
73
-19
-101
-28
2
8
50
61
121
135
43
-52
-139
-61
-27
-18
14
16
96
92
7
-86
-171
-84
-51
-38
-16
-8
78
62
-21
-98
-179
-90
-69
-49
-24
-10
80
56
-27
-108
-191
-100
-77
-52
-22
-14
80
58
-33
-114
-190
-92
-75
-45
-26
-21
87
57
-34
-110
-189
-87
-85
-45
-20
-12
92
45
-42
-142
-185
-87
-85
-34
-9
-12
91
41
-55
-152
-172
-89
-88
-31
-16
-16
91
40
-63
-163
-157
-84
-84
-22
-18
-9
91
30
-73
-178
-150
-84
-81
-20
-13
0
93
17
-79
-177
-130
-81
-73
-18
-22
12
89
13
-91
-182
-130
-81
-67
-26
-15
36
86
1
-90
-183
-124
-80
-67
-30
-23
42
83
-11
-98
-183
-113
-80
-59
-27
-19
50
69
-16
-103
-188
-108
-74
-63
-31
-15
59
56
-22
-106
-187
-109
-70
-50
-27
-24
63
59
-21
-109
-191
-100
-72
-54
-28
-15
73
50
-30
-117
-191
-100
-75
-53
-25
-15
76
52
-35
-116
-194
-103
-74
-48
-29
-14
80
51
-32
-110
-188
-94
-85
-48
-20
-15
92
62
-22
-119
-181
-83
-83
-30
-15
-15
91
58
-43
-149
-187
-87
-80
-32
-15
-14
90
38
-61
-163
-177
-90
-91
-27
-18
-17
88
27
-71
-173
-157
-90
-83
-25
-17
-11
88
20
-76
-180
-147
-81
-76
-23
-20
2
84
7
-90
-182
-139
-85
-77
-17
-14
19
91
2
-88
-185
-133
-79
-71
-23
-15
35
81
1
-88
-159
-84
-25
14
78
108
193
248
182
114
43
127
179
198
216
189
208
152
15
-115
-215
-136
-103
-80
-54
-48
33
39
-44
-130
-203
-112
-76
-56
-20
-12
66
68
-20
-113
-190
-97
-66
-40
-19
-10
80
59
-26
-108
-176
-87
-62
-42
-16
6
95
66
-24
-100
-175
-74
-66
-31
-10
7
108
74
-20
-95
-162
-59
-58
-18
0
10
111
84
-9
-108
-159
-51
-52
2
15
20
128
89
-12
-119
-134
-37
-35
17
32
34
140
92
-12
-102
-104
-25
-26
47
58
60
166
102
2
-89
-66
-3
4
70
73
81
184
114
16
-78
-46
16
23
75
80
108
180
106
14
-84
-34
14
25
71
73
115
176
89
-13
-105
-49
-10
2
43
36
90
133
45
-48
-135
-73
-40
-30
8
8
78
99
13
-75
-166
-91
-55
-39
-8
-5
81
91
4
-88
-172
-89
-56
-31
-12
0
84
84
1
-94
-171
-85
-66
-44
-15
-3
86
77
-6
-90
-173
-86
-64
-43
-14
-4
93
71
-17
-99
-175
-82
-58
-44
-24
2
93
63
-22
-95
-172
-80
-59
-37
-15
-5
96
56
-28
-105
-175
-83
-72
-26
-10
0
103
58
-30
-135
-173
-70
-75
-17
-3
3
104
60
-41
-139
-164
-70
-74
-12
5
5
105
48
-58
-160
-148
-68
-67
-4
-4
3
107
37
-57
-155
-129
-63
-58
-5
-4
11
102
32
-72
-159
-120
-72
-59
-5
5
29
99
19
-68
-166
-115
-68
-54
-10
-2
41
102
19
-83
-170
-117
-76
-55
-8
1
60
98
13
-80
-170
-103
-67
-53
-9
-6
68
96
0
-91
-175
-99
-62
-40
-10
-2
79
78
-6
-91
-171
-93
-60
-42
-11
-1
80
75
-2
-95
-170
-86
-56
-34
-10
0
89
71
-10
-97
-175
-83
-50
-34
-11
6
100
75
-2
-86
-164
-74
-49
-18
-7
8
104
71
-15
-91
-175
-67
-61
-28
-7
4
106
61
-21
-110
-179
-75
-73
-29
-4
-7
101
57
-34
-142
-177
-77
-72
-16
-3
-5
103
44
-40
-141
-167
-76
-77
-12
-9
3
107
45
-58
-157
-144
-71
-71
-8
-2
4
106
36
-62
-164
-131
-64
-66
-12
-7
18
104
26
-67
-156
-94
-23
9
80
107
173
256
193
117
46
125
181
206
241
222
224
218
74
-76
-199
-143
-100
-86
-46
-43
29
57
-22
-111
-186
-108
-68
-52
-15
1
74
80
1
-81
-177
-90
-55
-40
-6
6
82
84
4
-83
-165
-78
-42
-32
-2
10
93
85
0
-76
-154
-73
-33
-24
0
12
112
93
13
-76
-155
-65
-31
-8
14
35
128
95
14
-71
-147
-50
-25
0
17
33
138
104
19
-64
-140
-38
-29
15
37
55
159
118
37
-68
-114
-13
-16
46
67
70
185
137
42
-57
-90
2
6
71
84
92
199
147
44
-58
-58
27
25
97
100
99
216
149
47
-53
-44
27
27
93
96
98
195
119
18
-81
-46
6
4
62
58
80
161
82
-21
-128
-83
-31
-22
22
28
64
129
41
-49
-147
-90
-43
-44
6
16
74
116
24
-66
-163
-101
-54
-38
-4
9
77
100
15
-80
-167
-98
-53
-37
-1
10
91
97
12
-85
-166
-88
-52
-42
0
7
91
91
10
-80
-166
-81
-59
-27
-4
9
98
84
4
-80
-163
-70
-52
-35
-3
16
103
81
2
-87
-169
-67
-48
-28
-1
9
112
76
-11
-86
-159
-75
-49
-22
0
11
110
77
-8
-93
-170
-72
-68
-20
5
6
116
75
-18
-127
-171
-61
-61
-9
7
3
121
60
-35
-136
-153
-63
-63
-17
1
8
113
61
-40
-149
-142
-72
-65
-4
2
9
126
58
-49
-158
-131
-63
-66
-4
10
19
113
41
-57
-158
-122
-68
-57
-4
0
36
117
36
-57
-158
-114
-64
-44
-2
-1
55
113
25
-67
-163
-105
-58
-49
2
17
66
102
23
-73
-176
-103
-64
-47
-5
6
89
99
20
-80
-168
-93
-58
-46
0
6
89
95
11
-81
-164
-81
-52
-41
-2
7
92
95
6
-88
-171
-88
-50
-33
-6
8
113
81
-4
-94
-174
-82
-50
-20
7
15
116
93
14
-76
-159
-63
-41
-19
7
16
115
79
-2
-89
-161
-73
-55
-21
3
6
114
76
-14
-104
-174
-74
-72
-20
6
8
119
64
-23
-129
-163
-73
-59
-8
6
4
115
64
-38
-142
-152
-68
-74
-1
4
4
114
58
-46
-151
-136
-64
-64
0
8
7
111
44
-55
-158
-133
-66
-58
6
5
23
125
69
-24
-99
-40
45
85
168
192
243
342
266
187
95
152
163
125
115
64
67
85
-10
-109
-201
-134
-95
-73
-21
-12
46
82
-9
-79
-175
-101
-52
-27
-5
3
80
96
8
-83
-167
-87
-51
-35
2
18
100
98
20
-76
-164
-76
-32
-19
12
24
105
92
13
-72
-151
-61
-26
-14
5
25
124
102
19
-67
-146
-52
-27
-13
26
33
141
116
23
-60
-142
-44
-29
9
30
44
154
118
42
-42
-127
-27
-11
24
49
64
170
133
45
-54
-106
-2
0
61
85
91
194
139
53
-50
-79
22
20
84
103
110
212
153
58
-53
-49
33
36
99
108
113
216
155
60
-44
-34
27
28
94
91
99
190
122
18
-85
-58
4
8
59
59
85
162
77
-24
-126
-76
-25
-27
22
29
69
139
50
-48
-142
-95
-45
-26
10
23
78
125
41
-54
-156
-92
-51
-37
3
13
83
113
26
-64
-151
-79
-54
-35
10
23
97
107
24
-73
-158
-88
-45
-29
5
18
100
103
21
-77
-152
-68
-47
-27
5
18
105
96
17
-79
-162
-72
-42
-22
12
25
114
93
3
-84
-162
-70
-38
-16
0
15
118
91
7
-76
-160
-64
-43
-18
7
22
120
85
-7
-88
-161
-58
-61
-23
5
18
135
83
-11
-110
-162
-60
-58
-17
15
15
120
82
-23
-129
-152
-62
-64
0
15
14
126
72
-35
-142
-141
-61
-60
5
13
14
123
56
-38
-142
-125
-56
-51
15
14
19
124
49
-56
-154
-111
-55
-50
5
15
42
121
44
-51
-151
-110
-60
-50
2
13
58
115
30
-61
-157
-96
-49
-36
2
10
73
112
35
-61
-166
-95
-55
-39
0
1
85
111
29
-76
-162
-88
-52
-30
9
11
92
98
9
-84
-159
-77
-36
-24
2
14
91
93
8
-84
-165
-78
-46
-33
8
15
108
92
16
-77
-158
-61
-36
-12
9
14
120
89
4
-72
-158
-72
-46
-26
3
10
113
87
-2
-96
-170
-67
-52
-22
-1
9
116
79
-10
-109
-174
-78
-69
-20
6
7
117
71
-14
-127
-172
-68
-69
-17
3
5
116
64
-34
-145
-158
-61
-67
-10
-1
8
126
59
-44
-152
-141
-66
-64
3
-3
7
110
39
-43
-122
-87
0
28
118
148
191
302
255
170
88
134
200
203
227
176
142
164
38
-96
-194
-152
-97
-83
-36
-26
29
76
1
-90
-185
-120
-67
-49
-6
5
67
106
23
-68
-169
-108
-57
-45
1
10
88
101
15
-76
-161
-82
-48
-26
2
16
97
100
26
-72
-150
-74
-42
-32
8
14
111
97
13
-65
-150
-64
-30
-15
18
31
116
100
24
-60
-146
-51
-18
-2
22
41
142
117
24
-47
-137
-34
-12
12
42
54
165
125
37
-43
-119
-16
0
32
63
72
184
147
58
-43
-99
4
18
59
86
93
198
152
62
-42
-79
21
23
84
97
101
205
159
51
-56
-63
23
21
88
87
84
193
130
31
-78
-72
-9
-11
56
52
57
159
84
-20
-119
-93
-37
-35
23
21
46
129
46
-49
-146
-107
-52
-43
4
24
50
110
28
-68
-166
-100
-57
-50
-1
10
58
112
23
-75
-159
-105
-59
-43
0
4
76
103
19
-82
-162
-90
-51
-42
-5
6
88
94
9
-89
-163
-84
-53
-34
-2
9
86
89
7
-85
-160
-86
-52
-33
4
11
95
85
8
-84
-167
-83
-56
-35
-1
11
107
87
3
-92
-166
-73
-47
-26
0
9
115
87
-11
-94
-170
-74
-55
-23
2
5
119
77
-12
-86
-161
-71
-69
-29
-3
19
123
74
-20
-129
-174
-65
-71
-19
4
7
114
61
-36
-133
-153
-66
-67
-11
2
6
113
62
-46
-139
-150
-75
-68
0
4
8
109
51
-58
-166
-132
-68
-67
-3
-2
9
110
49
-49
-164
-123
-63
-50
-6
8
37
118
28
-68
-163
-116
-66
-53
-9
14
54
105
16
-74
-165
-105
-63
-51
3
6
62
103
13
-83
-170
-102
-57
-45
-15
3
80
101
16
-88
-170
-99
-66
-40
-5
9
82
97
4
-87
-173
-91
-57
-42
-1
-4
91
82
-3
-93
-171
-84
-52
-30
-2
7
102
91
18
-85
-165
-73
-47
-23
4
15
107
83
-5
-93
-170
-75
-46
-30
-8
0
102
75
-9
-93
-173
-69
-62
-32
-14
4
111
72
-19
-108
-166
-75
-70
-29
0
8
108
62
-36
-134
-175
-77
-77
-24
-5
0
112
62
-45
-151
-165
-71
-69
-5
-9
3
112
49
-52
-154
-148
-75
-66
-9
-9
-3
111
47
-42
-125
-69
22
53
139
164
211
315
269
184
98
148
192
176
187
123
96
131
6
-107
-205
-148
-95
-88
-45
-26
26
78
-11
-98
-186
-122
-70
-52
-12
1
65
100
11
-87
-163
-99
-64
-48
-10
3
80
94
20
-86
-171
-90
-50
-39
-4
8
98
94
16
-76
-159
-78
-43
-22
-6
11
109
101
17
-75
-161
-71
-42
-18
13
22
119
102
18
-77
-146
-56
-28
-3
19
32
141
105
32
-69
-138
-45
-9
22
34
43
163
126
36
-53
-122
-18
-10
37
59
74
185
144
66
-44
-99
2
10
65
86
91
200
155
58
-55
-73
13
21
76
97
98
199
153
47
-56
-57
21
21
88
91
90
198
131
14
-86
-78
-12
-13
57
48
58
155
78
-33
-137
-98
-40
-30
16
22
47
125
43
-63
-163
-111
-58
-51
1
6
56
114
23
-77
-168
-114
-64
-48
-6
0
57
102
18
-87
-182
-101
-62
-41
-7
1
70
92
7
-86
-176
-96
-62
-47
-12
-3
81
82
-3
-91
-172
-93
-59
-39
-5
-4
80
84
0
-95
-180
-94
-62
-40
-14
-7
93
83
-9
-98
-176
-81
-60
-42
-16
-2
99
75
-15
-97
-178
-88
-57
-43
-21
-6
102
65
-22
-104
-182
-79
-69
-39
-17
-8
97
68
-21
-117
-187
-81
-79
-32
-14
-7
111
59
-41
-143
-182
-85
-88
-22
-16
-5
108
53
-50
-156
-165
-76
-83
-14
-4
-9
105
44
-65
-158
-160
-82
-78
-17
-14
-9
101
38
-73
-165
-141
-81
-76
-15
-10
12
100
20
-73
-171
-134
-77
-68
-15
-6
25
96
17
-77
-176
-125
-67
-63
-13
-8
40
92
5
-91
-182
-124
-75
-65
-20
-7
56
91
5
-92
-183
-108
-66
-57
-17
-1
67
84
-1
-89
-175
-104
-63
-50
-22
0
76
79
-3
-99
-180
-101
-64
-45
-3
12
92
83
-3
-85
-157
-87
-53
-32
-9
1
96
68
-2
-96
-176
-84
-62
-40
-13
-2
102
73
-15
-100
-184
-87
-68
-50
-18
-7
100
60
-16
-105
-183
-82
-74
-35
-22
-11
101
60
-31
-136
-184
-86
-86
-34
-18
-8
101
60
-34
-146
-172
-78
-79
-29
-13
-9
109
47
-51
-157
-163
-86
-84
-17
-7
1
118
86
5
-75
-32
74
109
195
231
250
363
300
210
86
69
98
35
39
-2
-6
60
-11
-111
-210
-165
-110
-97
-45
-33
9
76
-9
-93
-181
-126
-78
-60
-10
-6
58
104
18
-76
-174
-110
-61
-50
-4
-6
63
96
14
-85
-169
-99
-63
-48
6
7
94
106
17
-80
-160
-80
-51
-33
-1
20
106
98
9
-78
-157
-69
-35
-28
6
29
112
105
18
-71
-144
-56
-19
-7
17
33
139
118
29
-62
-133
-40
-15
11
31
56
153
130
41
-49
-116
-26
-4
27
60
74
181
150
56
-26
-97
1
3
50
73
87
198
155
57
-42
-91
2
11
72
91
90
188
146
49
-51
-84
4
3
69
60
63
185
119
9
-95
-93
-20
-22
36
35
35
150
82
-37
-143
-126
-55
-49
9
16
28
118
43
-63
-159
-124
-67
-57
-3
8
38
102
18
-72
-172
-117
-58
-59
-14
-7
43
98
21
-80
-174
-107
-68
-56
-12
-6
58
100
13
-80
-173
-96
-61
-49
-3
-1
73
87
5
-88
-174
-97
-56
-52
-12
0
86
81
6
-94
-172
-92
-51
-41
-6
-3
84
79
4
-95
-174
-87
-59
-35
-10
0
95
74
-11
-101
-167
-80
-54
-36
-17
0
99
76
-11
-101
-182
-88
-62
-32
-12
1
111
72
-15
-101
-180
-84
-72
-40
-6
-2
103
71
-14
-119
-182
-80
-72
-27
-8
0
106
48
-33
-143
-172
-77
-77
-17
-4
0
110
51
-51
-157
-170
-79
-73
-11
-6
1
106
47
-60
-155
-154
-73
-67
-8
0
7
108
39
-60
-160
-138
-70
-69
-5
0
33
110
29
-75
-168
-129
-69
-61
-11
1
36
105
25
-73
-166
-107
-64
-52
-12
0
48
102
25
-78
-167
-111
-55
-41
-4
-2
69
90
12
-82
-171
-105
-55
-39
1
0
86
95
16
-74
-162
-80
-47
-28
-2
21
96
88
5
-80
-172
-89
-56
-38
-3
4
91
73
-7
-100
-187
-95
-57
-38
-13
-4
92
79
-6
-102
-182
-94
-61
-44
-17
-6
100
67
-16
-104
-183
-88
-65
-43
-20
-7
97
58
-27
-109
-181
-83
-73
-37
-11
-8
101
60
-44
-133
-175
-83
-76
-26
-17
-7
103
63
-18
-109
-105
22
50
138
172
203
332
297
207
110
115
178
133
151
92
44
89
2
-104
-199
-172
-107
-107
-46
-42
-31
63
5
-98
-187
-145
-81
-73
-13
-6
22
93
20
-80
-170
-115
-65
-60
-13
-4
45
98
22
-81
-166
-106
-62
-50
-5
8
63
102
20
-72
-168
-93
-55
-38
-4
9
77
105
21
-67
-154
-81
-45
-31
8
17
102
108
23
-62
-146
-63
-30
-7
26
27
115
107
30
-58
-139
-44
-9
13
35
47
140
115
44
-42
-118
-29
9
24
52
68
169
138
61
-18
-96
1
26
50
69
80
185
156
69
-8
-82
10
26
65
86
92
196
158
67
-20
-87
15
19
64
76
80
181
132
36
-70
-104
-16
-10
35
46
59
155
84
-13
-113
-131
-41
-46
13
12
14
124
51
-44
-151
-146
-47
-59
1
2
5
106
42
-61
-154
-126
-72
-54
-5
0
25
103
27
-79
-170
-109
-61
-62
-8
6
38
102
18
-75
-169
-111
-66
-45
3
9
55
100
12
-79
-171
-98
-62
-40
-7
0
67
89
8
-85
-163
-96
-57
-46
-10
2
77
84
1
-92
-164
-94
-57
-33
-5
3
80
76
-3
-89
-164
-88
-60
-43
-6
-2
85
77
-1
-91
-173
-85
-62
-39
-14
0
99
75
-8
-90
-166
-83
-52
-30
-19
-1
102
65
-17
-101
-169
-72
-56
-34
-9
4
101
66
-16
-97
-173
-76
-65
-35
-10
1
104
63
-31
-123
-171
-72
-64
-19
-1
-5
103
58
-37
-149
-165
-74
-68
-11
-1
0
108
49
-54
-150
-146
-71
-67
3
-7
-1
106
36
-56
-152
-138
-62
-67
-4
-4
8
98
29
-69
-162
-122
-68
-54
-1
4
29
112
31
-58
-147
-104
-58
-39
-2
8
51
111
20
-74
-165
-105
-55
-53
-5
3
60
94
10
-81
-164
-112
-68
-49
-10
-3
72
81
-5
-90
-165
-99
-62
-50
-13
-10
74
78
-4
-92
-173
-98
-65
-45
-12
-5
76
67
-8
-95
-178
-96
-65
-48
-15
-5
90
68
-8
-100
-173
-87
-63
-47
-25
-12
96
81
6
-64
-106
17
70
118
170
208
333
321
244
163
99
175
143
127
79
36
91
28
-66
-143
-207
-117
-125
-67
-43
-43
69
26
-65
-145
-192
-92
-76
-23
-13
-5
101
48
-51
-145
-162
-74
-73
-9
-8
2
106
48
-52
-151
-144
-63
-67
2
5
7
112
53
-50
-145
-129
-62
-49
10
16
32
122
47
-59
-145
-102
-46
-44
9
18
65
140
56
-57
-150
-87
-42
-21
22
33
83
139
59
-37
-125
-60
-25
-11
38
48
121
154
71
-28
-118
-41
1
17
60
73
154
165
85
-5
-92
-14
23
44
72
92
179
173
101
2
-80
0
40
57
88
94
185
173
92
6
-71
16
30
45
74
86
179
153
65
-26
-113
-21
0
22
37
48
143
111
26
-63
-145
-60
-36
-1
14
19
123
85
-3
-88
-167
-71
-60
-19
2
10
123
81
-19
-109
-167
-69
-70
-15
3
8
116
69
-35
-136
-166
-69
-69
-6
7
14
116
62
-45
-145
-147
-69
-69
1
6
6
110
47
-57
-146
-131
-62
-63
0
3
19
115
41
-60
-162
-119
-70
-55
0
10
44
114
45
-66
-159
-112
-64
-51
-1
7
52
117
28
-73
-162
-106
-64
-48
2
8
64
108
27
-75
-168
-102
-61
-45
-8
5
80
101
13
-82
-173
-94
-56
-46
-7
6
85
92
10
-84
-172
-95
-61
-38
-5
5
91
84
0
-90
-169
-87
-52
-31
-4
2
95
76
-4
-90
-169
-85
-59
-34
-7
4
100
76
-4
-96
-173
-80
-52
-37
-10
4
105
70
-16
-93
-173
-67
-56
-22
5
21
124
82
-9
-89
-162
-66
-65
-19
10
13
117
79
-22
-122
-171
-73
-68
-14
6
4
112
62
-42
-144
-162
-67
-76
-5
1
5
114
59
-50
-158
-154
-69
-71
-3
1
3
100
50
-58
-162
-142
-75
-66
-4
-3
22
107
29
-67
-169
-125
-66
-62
-9
0
33
105
26
-74
-169
-119
-73
-52
-7
3
61
131
75
10
-61
32
102
148
215
242
322
367
286
178
55
86
68
18
5
-21
42
53
-24
-115
-208
-138
-96
-76
-37
-24
65
56
-19
-102
-183
-100
-60
-41
-9
1
93
79
-2
-88
-174
-91
-60
-31
-4
6
98
80
2
-81
-166
-74
-48
-24
2
14
113
86
-1
-92
-166
-69
-46
-16
2
23
126
93
9
-76
-157
-50
-43
-8
13
22
136
101
12
-87
-145
-40
-40
11
37
43
147
103
8
-96
-127
-18
-26
37
49
62
174
123
27
-85
-89
-3
3
74
70
76
192
136
24
-72
-53
13
26
91
95
108
201
132
30
-64
-35
33
35
89
93
119
202
126
23
-76
-31
16
26
75
77
117
178
89
-11
-116
-61
-18
-9
35
41
97
137
45
-53
-142
-82
-43
-30
6
14
85
108
19
-66
-155
-88
-53
-42
-5
9
87
90
4
-75
-162
-80
-51
-39
-8
8
98
97
6
-90
-171
-86
-53
-29
-6
4
92
87
5
-84
-165
-72
-46
-28
-8
16
107
76
-6
-90
-168
-73
-48
-28
-1
13
114
83
-15
-92
-169
-72
-57
-20
-1
11
114
82
-11
-102
-169
-63
-59
-16
0
0
118
71
-24
-128
-163
-66
-62
-8
0
-2
115
64
-25
-133
-155
-69
-69
-1
1
6
112
65
-42
-155
-144
-62
-60
2
7
8
110
46
-56
-151
-135
-63
-56
4
12
26
107
35
-60
-157
-121
-67
-53
5
1
46
119
27
-65
-157
-113
-64
-50
3
10
66
115
32
-55
-153
-89
-41
-36
1
12
83
112
25
-75
-160
-93
-52
-41
-5
10
80
89
17
-79
-172
-96
-57
-39
-3
8
95
91
11
-83
-170
-88
-55
-44
-14
-3
90
84
1
-87
-175
-92
-59
-36
-10
2
101
73
-4
-91
-167
-82
-55
-34
-8
7
106
82
-7
-98
-176
-84
-62
-30
-11
0
108
67
-19
-94
-153
-46
-15
60
110
154
288
276
200
129
89
198
202
244
226
185
232
119
-29
-169
-206
-109
-105
-42
-35
-33
76
24
-79
-174
-175
-96
-96
-13
-6
-4
104
46
-57
-155
-145
-66
-65
5
4
20
123
44
-58
-155
-123
-60
-53
5
15
45
121
51
-64
-158
-114
-53
-40
9
17
64
128
36
-55
-148
-92
-48
-25
22
28
87
126
41
-55
-145
-75
-35
-17
20
34
116
136
51
-47
-127
-48
-13
0
37
51
136
141
60
-32
-107
-23
10
22
53
73
158
150
71
-18
-91
6
37
49
76
90
177
163
84
1
-83
11
42
61
94
99
187
157
77
-7
-81
15
38
59
87
86
185
156
63
-29
-110
-13
-6
20
40
50
152
117
27
-67
-145
-45
-49
-5
15
20
133
83
-23
-125
-159
-63
-66
-8
7
13
123
70
-35
-138
-159
-69
-72
-6
4
9
114
55
-46
-152
-149
-77
-69
4
6
4
114
41
-68
-153
-131
-67
-58
-1
2
25
113
32
-67
-150
-116
-63
-47
-5
1
42
118
40
-69
-159
-107
-63
-46
-5
4
55
106
18
-71
-167
-105
-56
-45
-5
6
66
101
21
-81
-172
-95
-60
-41
-3
3
84
91
7
-80
-171
-94
-55
-39
-9
1
81
87
2
-85
-165
-91
-53
-41
-17
-1
85
81
0
-84
-174
-87
-57
-36
-12
0
99
79
-8
-97
-166
-85
-49
-34
-10
3
103
77
-9
-96
-172
-77
-48
-24
-3
2
119
82
-6
-87
-167
-74
-59
-20
-2
8
106
69
-20
-119
-175
-75
-74
-23
-2
3
109
57
-43
-144
-166
-71
-72
-7
0
2
103
43
-61
-151
-155
-69
-65
-13
-3
0
101
44
-60
-153
-144
-75
-67
-12
-4
8
102
34
-68
-159
-131
-63
-57
-13
0
19
92
17
-76
-167
-113
-69
-63
-10
-5
54
130
62
-11
-79
18
92
128
199
233
306
362
284
195
76
98
101
42
25
-14
38
56
-25
-109
-201
-134
-99
-87
-40
-33
53
54
-22
-108
-188
-105
-66
-46
-11
-3
82
73
7
-92
-178
-92
-59
-37
-10
-3
94
84
0
-88
-166
-75
-51
-30
1
11
105
72
-6
-81
-161
-69
-35
-16
5
19
123
88
7
-85
-160
-62
-50
-8
10
18
135
94
7
-67
-150
-48
-37
7
31
33
148
103
7
-95
-127
-24
-26
37
54
54
175
111
16
-85
-92
-3
-3
60
72
73
186
131
29
-73
-60
18
18
83
90
89
196
133
28
-66
-45
21
28
92
98
111
193
124
13
-88
-45
9
17
70
72
108
165
79
-18
-118
-66
-20
-8
32
34
77
125
40
-60
-150
-95
-54
-32
5
11
74
106
24
-80
-161
-87
-62
-46
-4
6
81
95
8
-82
-166
-94
-58
-46
-11
4
84
87
5
-88
-178
-91
-53
-43
-13
-1
93
86
5
-90
-174
-85
-51
-42
-11
0
105
81
-4
-94
-173
-74
-54
-32
-13
6
112
82
-6
-87
-169
-78
-59
-34
-7
6
107
75
-17
-93
-173
-76
-64
-31
-2
5
114
73
-25
-119
-168
-74
-74
-15
-5
3
109
59
-35
-140
-168
-72
-73
-11
1
-1
109
50
-49
-144
-143
-67
-68
-4
4
7
110
51
-54
-148
-128
-68
-75
-1
3
17
118
41
-57
-148
-123
-63
-54
4
8
43
115
40
-62
-157
-107
-53
-44
-1
8
48
109
24
-79
-161
-105
-64
-52
-7
0
59
95
9
-83
-168
-99
-61
-52
-8
-3
68
91
2
-85
-172
-97
-63
-46
-12
-5
76
82
-2
-95
-170
-88
-65
-42
-12
1
76
80
-2
-101
-175
-89
-62
-39
-13
-5
89
70
-8
-95
-174
-86
-61
-43
-7
15
129
119
56
1
-46
79
128
172
221
239
350
317
223
109
-14
35
1
-24
-34
-36
69
28
-60
-143
-216
-108
-107
-52
-33
-32
80
41
-54
-150
-182
-84
-82
-28
-11
-3
98
56
-39
-146
-151
-64
-70
2
8
7
104
51
-46
-150
-138
-63
-60
2
9
14
123
56
-52
-153
-122
-58
-48
14
18
40
125
53
-42
-146
-103
-52
-36
20
35
76
128
51
-41
-131
-84
-43
-20
32
41
91
150
58
-34
-126
-59
-15
3
52
59
123
158
74
-14
-101
-23
17
28
55
78
152
165
85
-5
-87
-15
24
45
80
93
184
172
94
-1
-83
3
35
51
77
87
174
165
82
-15
-98
-9
19
34
50
59
147
130
38
-51
-129
-49
-23
-8
15
27
125
97
7
-84
-166
-71
-52
-29
-10
10
113
75
-13
-103
-171
-79
-63
-30
-8
6
107
64
-34
-128
-179
-81
-75
-18
-11
6
111
55
-46
-143
-164
-74
-72
-13
-4
1
102
58
-52
-160
-156
-71
-70
-6
3
8
105
40
-57
-159
-139
-73
-57
-4
0
18
110
36
-65
-164
-133
-70
-61
-8
1
32
106
18
-75
-159
-117
-63
-49
-7
1
42
100
16
-84
-166
-107
-64
-52
-8
4
61
90
15
-79
-176
-100
-62
-53
-6
2
64
85
7
-97
-173
-105
-62
-46
-12
6
87
81
5
-87
-169
-98
-60
-46
-14
-2
84
75
-5
-92
-172
-81
-54
-43
-12
2
98
80
-7
-89
-171
-82
-59
-37
-14
3
101
76
-14
-101
-178
-88
-64
-32
-13
-6
98
63
-21
-104
-186
-87
-66
-38
-19
-5
114
74
-26
-125
-188
-83
-82
-38
-12
-2
108
60
-45
-149
-174
-79
-83
-20
-7
-3
103
47
-57
-160
-165
-81
-82
-12
-16
0
109
46
-62
-174
-154
-77
-75
-10
-12
6
121
61
-12
-75
-25
70
102
180
202
252
354
281
194
85
93
105
60
40
-5
6
69
-21
-103
-202
-149
-111
-99
-45
-40
18
62
-14
-106
-195
-118
-82
-68
-17
-3
64
83
3
-94
-188
-102
-62
-51
-13
-1
78
90
12
-91
-171
-91
-60
-39
-8
2
86
80
-4
-89
-164
-77
-42
-29
1
7
107
91
1
-81
-162
-75
-41
-23
2
19
119
89
9
-79
-149
-60
-34
-12
22
34
133
102
19
-59
-137
-33
-22
9
34
46
154
120
37
-50
-120
-15
0
38
57
67
175
134
46
-62
-95
2
5
55
79
76
188
134
40
-66
-75
7
8
78
88
94
192
130
25
-73
-81
-6
-4
54
67
62
164
86
-22
-118
-99
-30
-33
25
29
40
127
42
-56
-154
-110
-62
-60
-4
1
41
102
20
-77
-172
-119
-74
-56
-13
1
47
90
7
-87
-171
-114
-71
-59
-21
-1
53
87
0
-95
-179
-107
-68
-52
-23
-6
67
77
-3
-93
-179
-99
-64
-53
-15
-6
71
76
-6
-99
-177
-97
-61
-48
-21
0
77
71
-12
-96
-181
-96
-66
-43
-17
0
93
66
-24
-108
-182
-86
-53
-37
-14
-3
93
63
-22
-102
-183
-80
-58
-37
-15
-4
96
59
-28
-107
-179
-77
-85
-34
-17
-9
97
61
-33
-137
-182
-82
-71
-26
-8
-4
88
46
-50
-150
-171
-82
-78
-19
-6
-5
103
45
-58
-157
-156
-74
-72
-7
-9
-6
101
35
-65
-169
-148
-80
-70
-6
-6
9
102
34
-71
-166
-119
-60
-55
5
3
30
100
27
-63
-160
-117
-65
-54
-12
-2
46
96
9
-83
-168
-116
-75
-60
-18
-9
55
82
0
-87
-174
-106
-68
-54
-18
-7
58
85
-6
-95
-179
-99
-60
-56
-24
-14
72
69
-13
-100
-176
-94
-60
-57
-20
-13
76
67
-18
-108
-175
-89
-60
-46
-22
-12
86
63
-23
-108
-181
-96
-65
-44
-15
26
137
130
70
16
-30
86
133
179
224
254
360
339
236
124
-6
31
-16
-41
-54
-38
64
26
-65
-160
-211
-106
-104
-64
-38
-31
80
42
-56
-153
-182
-78
-70
-15
-14
-13
98
45
-59
-155
-158
-77
-76
-10
-3
0
107
42
-56
-157
-147
-67
-63
-3
5
17
117
44
-57
-146
-124
-52
-60
7
12
36
116
41
-59
-151
-101
-54
-46
8
27
57
119
44
-57
-140
-83
-41
-19
24
29
86
132
48
-49
-126
-57
-18
-9
43
54
120
145
63
-24
-112
-33
5
24
59
72
153
156
72
0
-92
-7
21
40
74
89
169
163
82
0
-83
-6
24
45
77
82
168
156
72
-18
-99
-13
11
24
57
54
148
114
31
-57
-135
-48
-26
-9
14
25
122
88
-3
-93
-166
-70
-57
-29
-6
3
109
69
-18
-105
-179
-79
-69
-30
-7
-7
100
51
-31
-136
-174
-80
-74
-13
-3
1
105
50
-43
-158
-173
-79
-74
-13
0
0
97
53
-55
-157
-152
-78
-73
-7
-3
1
105
38
-62
-158
-136
-69
-59
-7
-3
21
103
24
-69
-160
-120
-69
-62
-7
-3
34
102
20
-73
-163
-109
-69
-52
-6
2
53
102
10
-81
-171
-106
-65
-54
-7
1
64
91
8
-86
-167
-106
-62
-45
-14
-4
71
79
-3
-85
-172
-90
-59
-46
-15
-7
81
78
-9
-96
-170
-89
-60
-42
-20
-9
79
69
-5
-98
-175
-87
-58
-45
-17
-6
83
64
-23
-101
-174
-81
-60
-40
-13
0
94
55
-19
-103
-178
-83
-62
-33
-20
-13
104
63
-23
-107
-170
-81
-69
-38
-14
-5
96
59
-37
-137
-178
-75
-77
-21
-9
1
104
47
-45
-143
-164
-73
-75
-16
-3
0
108
51
-48
-140
-145
-64
-60
0
-1
8
116
44
-55
-154
-131
-75
-66
-2
0
14
107
32
-67
-163
-127
-66
-59
-1
-5
27
96
15
-79
-165
-117
-68
-57
-11
-4
45
105
15
-90
-180
-110
-66
-56
-15
-9
54
85
9
-85
-175
-103
-63
-50
-19
-4
70
84
2
-91
-177
-101
-59
-44
-12
-4
81
77
-5
-96
-177
-87
-54
-39
5
22
131
142
81
27
-15
94
145
181
231
252
352
345
250
123
-8
27
-10
-42
-49
-37
63
35
-58
-140
-196
-119
-92
-62
-39
-19
93
59
-31
-110
-172
-74
-70
-35
-10
-5
102
69
-22
-121
-170
-74
-73
-21
4
-1
108
64
-31
-133
-157
-61
-70
-6
13
14
118
65
-39
-135
-133
-52
-58
10
17
22
121
52
-41
-130
-124
-48
-43
21
29
36
134
68
-34
-129
-98
-35
-23
34
39
64
140
68
-29
-111
-69
-15
3
49
58
99
163
78
-12
-98
-35
5
26
72
79
136
176
87
4
-80
-16
27
43
84
88
157
183
95
9
-75
-3
37
53
87
98
168
173
90
-1
-85
-8
24
32
61
68
149
139
58
-46
-121
-37
-16
-1
26
32
119
100
13
-82
-155
-68
-40
-23
3
13
109
71
-10
-93
-169
-75
-47
-27
-7
-1
102
68
-13
-100
-172
-71
-54
-27
-14
-2
104
67
-21
-105
-168
-76
-77
-26
-3
-2
107
69
-27
-136
-165
-71
-71
-18
-5
-3
113
57
-47
-148
-155
-69
-66
-5
-4
3
105
46
-57
-155
-144
-63
-66
1
5
6
107
45
-60
-163
-135
-67
-60
-1
5
15
109
29
-73
-168
-124
-65
-53
0
0
35
103
20
-72
-163
-111
-71
-57
-11
-9
49
99
16
-77
-167
-115
-65
-50
-2
-3
61
91
9
-84
-174
-101
-60
-45
-6
-4
72
83
-6
-90
-172
-101
-58
-46
-14
-5
75
78
-1
-93
-172
-97
-57
-47
-17
-3
83
75
-7
-103
-180
-87
-66
-43
-16
-1
93
72
-21
-101
-177
-84
-53
-45
-19
-5
97
64
-19
-98
-183
-88
-62
-37
-13
-6
94
67
-19
-106
-182
-81
-69
-32
-10
-9
100
63
-32
-133
-184
-81
-81
-30
-10
-1
95
52
-49
-156
-162
-78
-75
-20
-10
-1
102
50
-58
-154
-153
-76
-78
-10
-9
-3
102
39
-69
-168
-141
-73
-71
-10
-2
1
102
26
-75
-167
-129
-66
-56
-13
-5
26
97
17
-77
-173
-118
-70
-60
-12
-6
48
95
14
-85
-173
-105
-65
-50
-7
4
62
105
24
-81
-163
-104
-59
-41
-4
-2
76
83
0
-86
-175
-94
-69
-50
-14
-11
71
77
-1
-98
-179
-91
-66
-51
-19
-2
76
66
-12
-102
-172
-91
-68
-43
-20
-12
82
63
-19
-101
-183
-98
-67
-39
-16
-5
91
59
-22
-111
-183
-83
-67
-48
-19
-3
95
57
-26
-101
-185
-86
-78
-44
-21
-16
92
54
-27
-94
-142
-15
12
83
137
165
295
272
191
103
80
193
185
215
178
113
154
49
-88
-185
-194
-118
-114
-50
-41
-37
68
11
-89
-185
-171
-90
-83
-15
-14
-6
101
30
-72
-167
-141
-80
-65
-13
-5
20
99
20
-72
-170
-117
-64
-58
-5
-7
39
105
19
-76
-161
-106
-62
-47
2
10
62
105
21
-72
-160
-90
-50
-38
1
11
84
110
25
-70
-150
-81
-43
-26
13
27
103
111
27
-65
-137
-54
-26
-16
27
43
125
119
40
-49
-127
-32
5
22
42
55
152
136
58
-26
-106
-5
20
35
67
78
181
154
67
-16
-86
7
34
54
73
89
188
151
71
-14
-86
12
29
52
67
76
175
140
53
-33
-111
-16
-11
28
43
47
156
100
5
-102
-144
-48
-54
3
16
13
122
63
-29
-141
-154
-66
-66
-8
-6
2
108
51
-53
-150
-147
-72
-71
-5
-4
-11
101
26
-70
-163
-136
-74
-67
-5
-7
9
99
23
-75
-169
-126
-70
-64
-7
-6
29
102
22
-75
-171
-117
-68
-57
-8
-1
46
98
14
-84
-171
-109
-62
-46
-14
-8
56
88
11
-85
-175
-112
-71
-47
-12
-1
68
78
-4
-88
-173
-102
-61
-46
-8
2
74
72
-8
-97
-175
-96
-59
-51
-23
-10
80
70
-8
-101
-182
-89
-61
-45
-14
-6
87
60
-19
-105
-182
-94
-61
-40
-24
-14
91
59
-26
-107
-182
-89
-63
-39
-15
-8
90
61
-31
-106
-187
-91
-77
-41
-19
-11
96
53
-30
-130
-179
-85
-88
-46
-11
0
98
45
-54
-146
-173
-81
-83
-25
-13
-13
92
42
-55
-153
-161
-80
-77
-16
-12
-12
95
38
-68
-172
-149
-81
-79
-14
-5
7
96
23
-79
-172
-139
-72
-68
-14
-11
13
91
9
-74
-169
-128
-72
-64
-13
-12
26
86
-2
-91
-175
-116
-73
-61
-16
-8
44
91
2
-89
-177
-115
-77
-58
-18
-17
59
85
-7
-90
-173
-101
-74
-63
-19
-7
74
74
-10
-105
-181
-99
-64
-51
-16
-6
73
67
-7
-96
-180
-94
-75
-46
-13
-2
92
78
-9
-93
-170
-80
-55
-44
-13
-2
87
70
-14
-104
-179
-89
-62
-41
-17
-6
90
56
-35
-115
-180
-88
-72
-44
-35
-11
101
60
-31
-113
-184
-86
-85
-37
-8
-7
97
52
-46
-148
-193
-96
-87
-31
-15
-14
96
42
-59
-158
-171
-89
-75
-17
-16
-22
92
36
-71
-162
-160
-88
-84
-16
-18
-11
88
20
-80
-174
-147
-69
-57
35
56
104
214
167
96
25
81
155
177
238
240
249
277
135
-7
-143
-138
-116
-103
-53
-43
7
57
-35
-128
-215
-146
-103
-85
-49
-39
26
73
-16
-101
-182
-118
-82
-64
-21
-12
60
76
-7
-97
-185
-105
-69
-49
-15
-5
74
71
-10
-98
-175
-93
-60
-42
-9
-1
81
74
-3
-93
-170
-78
-52
-35
-10
5
102
83
-1
-89
-166
-73
-42
-24
-3
11
112
83
2
-74
-156
-46
-27
-3
16
22
129
105
16
-64
-134
-41
-27
18
33
50
153
113
26
-62
-120
-13
-13
42
64
68
176
124
38
-67
-88
13
-2
60
68
71
183
131
29
-69
-75
9
13
81
88
78
173
121
18
-88
-72
-8
-9
54
52
56
154
80
-21
-128
-91
-31
-39
18
23
36
117
39
-65
-157
-111
-62
-53
-8
-5
42
94
16
-82
-172
-117
-74
-57
-8
-8
47
82
-3
-90
-178
-116
-74
-59
-22
-6
58
84
-1
-97
-180
-109
-72
-52
-15
-20
64
76
-10
-99
-175
-100
-65
-54
-19
-17
74
68
-13
-101
-178
-98
-64
-40
-19
-8
84
68
-15
-110
-181
-90
-63
-42
-13
-4
92
59
-23
-104
-177
-95
-66
-43
-22
-6
90
60
-22
-102
-181
-83
-66
-35
-22
-6
97
55
-33
-104
-182
-83
-87
-34
-18
-12
91
53
-48
-141
-191
-81
-82
-33
-18
-11
96
47
-52
-161
-178
-84
-85
-20
-13
-6
98
40
-69
-158
-158
-88
-85
-17
-17
-12
93
33
-73
-172
-147
-72
-63
-5
-13
2
97
18
-83
-175
-131
-78
-71
-19
-9
18
90
14
-83
-185
-125
-71
-67
-18
-10
37
87
5
-88
-182
-118
-69
-58
-19
-13
53
93
5
-98
-179
-109
-76
-58
-17
-10
59
79
-1
-100
-187
-105
-65
-50
-14
-5
80
75
-8
-100
-182
-104
-63
-41
-11
-4
85
79
-7
-92
-171
-88
-55
-40
-8
-2
89
74
-21
-100
-172
-90
-59
-46
-21
-13
88
60
-23
-107
-171
-84
-67
-45
-21
-8
93
60
-26
-108
-183
-94
-76
-39
-27
-14
89
52
-39
-115
-185
-85
-83
-33
-17
-12
96
52
-45
-151
-177
-82
-86
-31
-15
-6
100
41
-61
-152
-168
-83
-84
-16
-14
-13
97
47
-47
-132
-100
8
33
125
151
184
298
257
170
76
109
163
129
143
98
61
94
-10
-113
-205
-158
-100
-106
-57
-46
-6
62
-18
-109
-201
-146
-94
-75
-24
-25
32
90
10
-88
-174
-114
-73
-60
-16
-8
58
97
4
-82
-177
-104
-62
-47
-10
2
76
82
8
-86
-167
-87
-53
-33
-2
2
88
88
2
-84
-164
-74
-44
-32
4
11
101
80
4
-73
-162
-66
-30
-8
1
25
120
99
14
-72
-143
-50
-23
2
27
41
141
106
26
-50
-120
-32
-11
18
45
56
159
134
45
-29
-102
-8
20
46
66
79
181
140
45
-46
-98
6
7
58
77
88
193
140
35
-65
-85
8
-2
58
73
65
171
109
9
-97
-100
-24
-32
30
33
28
132
67
-37
-138
-121
-56
-57
5
7
13
102
37
