-35
-37
-37
-26
-37
-30
-33
-37
-37
-27
-34
-42
-34
-31
-27
-38
-34
-39
-42
-42
-31
-26
-16
-28
-43
-29
-17
-37
-35
-30
-38
-21
-35
-41
-31
-37
-34
-20
-17
-26
-26
-31
-39
-34
-23
-27
-38
-36
-31
-33
-33
-29
-33
-33
-25
-20
-32
-24
-33
-37
-37
-31
-31
-32
-27
-28
-26
-24
-35
-25
-31
-32
-35
-29
-31
-34
-31
-34
-42
-28
-23
-26
-25
-27
-23
-27
-41
-32
-25
-18
-14
-24
-18
-25
-21
-22
-18
-24
-33
-29
-25
-21
-3
2
-6
-8
-18
-24
-8
-3
-2
0
-4
-18
-20
-21
-21
-25
-28
-20
-19
-32
-26
-30
-35
-31
-33
-30
-32
-21
-26
-31
-39
-21
-24
-25
-30
-28
-29
-36
-34
-30
-29
-39
-39
-38
-42
-37
-37
-33
-35
-34
-31
-28
-23
-37
-50
-38
-25
-25
-30
-29
-33
-25
-44
-36
-33
-33
-30
-31
-37
-33
-35
-23
-31
-39
-31
-36
-44
-39
-33
-27
-32
-21
-18
-29
-22
-11
-1
16
26
58
59
69
79
68
57
55
34
28
-2
-17
-6
1
-5
-25
-44
-58
-59
-46
-47
-42
-42
-31
-31
-30
-33
-30
-31
-33
-29
-28
-23
-17
-30
-23
-20
-20
-25
-20
-25
-27
-15
-24
-39
-38
-31
-18
-20
-24
-18
-16
-23
-17
-21
-14
-11
-11
-31
-37
-12
-16
-19
-10
-19
-16
-17
-16
-21
-14
-11
-12
-8
-12
-18
-18
-17
-17
-6
-15
-22
0
0
2
-1
-1
2
3
-5
-7
-7
-1
-3
-8
-1
11
9
8
7
11
24
21
20
14
15
23
24
30
24
13
32
48
42
45
50
48
45
49
63
65
52
67
77
76
67
69
72
87
79
81
72
81
71
68
65
66
68
67
58
59
57
48
53
41
29
24
25
18
17
2
-4
-7
4
7
1
-6
-12
-8
-11
-15
-7
-21
-22
-23
-27
-23
-28
-33
-36
-39
-26
-30
-38
-32
-25
-26
-30
-34
-29
-20
-27
-22
-24
-27
-20
-26
-30
-38
-39
-25
-25
-27
-26
-24
-33
-35
-38
-28
-32
-31
-24
-33
-16
-18
-18
-28
-27
-22
-24
-21
-36
-15
-26
-35
-25
-26
-30
-32
-42
-34
-25
-15
-21
-23
-24
-29
-26
-36
-34
-33
-19
-21
-36
-29
-26
-25
-13
-24
-26
-20
-23
-23
-25
-16
-13
-22
-31
-24
-27
-19
-22
-31
-26
-24
-23
-28
-33
-29
-14
-13
-15
-5
-8
-20
-21
-8
-9
-12
-10
-15
-25
-19
-16
-13
-9
2
-7
-3
1
-6
-17
-18
-5
-3
-11
-25
-16
-17
-26
-34
-35
-28
-29
-33
-32
-16
-14
-24
-26
-25
-24
-20
-27
-32
-34
-35
-21
-16
-24
-33
-30
-27
-33
-28
-20
-34
-35
-28
-29
-42
-32
-40
-39
-38
-34
-28
-24
-29
-26
-35
-36
-34
-26
-28
-35
-34
-29
-36
-26
-26
-22
-23
-29
-23
-42
-35
-21
-15
-25
-25
-19
-22
-26
-14
-1
13
31
64
67
70
65
60
49
43
33
22
10
-2
1
19
16
-22
-43
-47
-44
-35
-38
-42
-34
-21
-28
-32
-34
-31
-14
-19
-30
-27
-12
-18
-15
-20
-16
-24
-12
-19
-24
-26
-30
-25
-14
-21
-20
-26
-26
-22
-13
-10
-11
-11
-9
-19
-24
-18
-10
-19
-13
-17
-10
0
-12
-7
-21
-18
-21
-8
-11
-18
-11
-14
-3
-4
-14
-12
-7
-7
-4
-5
0
10
-2
9
7
-3
5
17
3
-8
10
17
17
16
5
12
17
9
6
14
25
27
31
33
31
37
33
42
38
41
43
47
51
49
55
59
57
70
63
69
82
78
71
78
86
78
78
101
91
86
71
72
80
63
63
54
46
50
50
49
47
41
38
30
21
18
18
14
0
-5
0
-21
-21
1
-4
-22
-18
-10
-11
-9
-14
-19
-2
-10
-14
-11
-15
-14
-18
-17
-22
-24
-25
-29
-30
-32
-30
-18
-15
-12
-21
-30
-33
-22
-20
-28
-30
-26
-15
-19
-21
-18
-28
-31
-22
-25
-20
-8
-15
-20
-23
-17
-30
-27
-16
-22
-22
-19
-14
-21
-34
-24
-23
-12
-21
-22
-13
-7
-8
-15
-23
-18
-15
-15
-25
-27
-24
-25
-26
-19
-9
-10
-13
-19
-14
-11
-22
-8
-15
-20
-16
-9
-14
-25
-13
-16
-11
-14
-11
-2
-2
-10
-4
-6
-10
-10
-10
-7
-6
-9
-2
7
1
-5
-11
-7
1
1
-2
1
0
-13
-10
-13
-9
-16
-17
-24
-15
-32
-37
-27
-16
-30
-30
-32
-26
-24
-24
-20
-13
-16
-21
-21
-17
-14
-11
-26
-23
-20
-10
-12
-33
-38
-32
-25
-24
-14
-14
-19
-27
-14
-15
-24
-29
-20
-20
-22
-25
-25
-21
-26
-30
-28
-28
-25
-18
-20
-13
-18
-20
-21
-19
-28
-17
-20
-20
-11
0
-4
-14
-13
0
19
42
61
73
77
72
67
61
48
30
19
12
4
-6
-3
-7
-20
-36
-40
-28
-25
-31
-43
-31
-22
-26
-12
-9
-16
-20
-13
-22
-26
-19
-22
-4
-12
-17
-6
-3
-17
-18
-18
-20
-4
-6
-29
-17
-11
-13
-12
-10
-17
-17
-11
-14
-6
-12
-12
-6
8
-8
-14
-17
-19
-2
0
-1
-6
-2
-9
-14
-8
-5
-7
-14
-8
2
1
-2
-1
5
4
9
7
7
17
14
11
4
2
4
3
1
12
21
19
25
19
21
18
21
18
28
31
29
31
42
47
52
33
35
53
70
65
63
63
73
72
69
61
67
76
85
86
93
90
91
89
90
97
102
98
90
80
63
60
59
58
50
57
52
53
42
33
34
25
15
24
12
10
12
3
-14
-2
5
3
-1
-4
-8
-15
-22
-21
0
8
-7
-8
-9
-20
-17
-12
-17
-18
-4
-17
-20
-11
-10
-6
-14
-17
-25
-23
-21
-16
-17
-21
-18
-29
-21
-20
-26
-22
-22
-18
-16
-14
-18
-16
-24
-19
-19
-14
-3
-15
-22
-20
-15
-8
-1
-12
-16
-16
-7
-5
-7
-10
-11
-9
-11
-12
-15
-14
-20
-24
-17
-14
-18
-24
-14
-12
-12
1
3
-8
-5
-4
4
-18
-19
-12
0
-11
-14
0
-4
-6
-7
-12
-8
-8
7
3
-3
3
13
16
2
6
10
8
2
-2
0
3
1
4
-7
-16
-14
-10
-12
-18
-11
-7
-4
-4
-2
-5
-2
-14
-19
-13
-16
-18
-21
-31
-26
-17
-14
-15
-13
-5
-16
-18
-21
-12
-10
-18
-13
-10
-11
-19
-17
-13
-19
-34
-28
-20
-19
-27
-25
-20
-19
-20
-1
-3
-6
-15
-15
-32
-29
-21
-19
-20
-16
-19
-13
-16
-23
-15
-20
-26
-20
-33
-19
-6
-9
-7
-8
4
13
27
35
54
75
75
76
75
64
62
53
33
20
0
12
23
31
6
-21
-39
-32
-23
-29
-19
-22
-22
-12
-8
-13
-13
-17
-15
-20
-25
-6
-2
-18
-18
-19
-25
-25
-21
-9
-11
-15
-11
-17
-19
-14
-9
-6
0
0
-11
-14
-15
-13
-16
2
3
3
-13
-26
-16
-15
-12
-9
-11
-6
-11
-24
-17
-14
-10
-4
-3
0
8
6
6
-3
3
2
-1
11
11
0
-1
-1
3
-2
-4
5
14
15
21
22
19
17
14
15
13
18
32
21
26
23
30
33
31
40
45
42
44
52
50
61
61
59
60
61
76
88
90
85
89
78
85
77
75
75
88
89
86
85
82
80
73
65
69
66
45
42
37
35
21
13
27
29
24
28
15
10
9
1
-2
-12
-6
-6
-7
-7
-17
-9
-6
-11
-19
-14
-14
-18
-14
-16
-24
-8
-12
-19
-8
-11
-29
-25
-20
-24
-24
-16
-17
-20
-28
-24
-21
-26
-24
-24
-18
-14
-9
-11
-12
-22
-23
-26
-22
-22
-21
-32
-39
-34
-20
-20
-15
-12
-25
-19
-16
-13
-15
-15
-13
-11
-24
-17
-15
-15
-12
-23
-23
-14
-17
-23
-18
-11
-21
-27
-14
-8
-24
-20
-32
-25
-19
-9
-12
-12
-21
-22
-18
-17
-16
-13
-15
-24
-9
-14
-16
-18
-14
-9
-10
-17
-14
-10
-15
-5
-6
-18
-7
-1
-6
-8
-13
-7
-7
-17
-14
-12
-10
-4
-4
0
0
-7
-3
-7
1
-16
-27
-9
4
-10
-16
-11
-9
-21
-22
-25
-15
-21
-21
-23
-21
-22
-22
-23
-20
-14
-6
-28
-22
-15
-20
-34
-29
-29
-24
-26
-19
-23
-20
-29
-29
-31
-27
-27
-31
-33
-37
-21
-7
-11
-21
-32
-24
-14
-22
-25
-27
-19
-19
-22
-28
-33
-27
-16
-23
-24
-21
-27
-32
-27
-22
-19
-22
-20
-16
-18
-15
-8
11
8
21
36
60
66
70
61
62
53
50
45
39
25
20
27
31
5
-28
-30
-29
-34
-38
-39
-30
-13
-19
-16
-16
-30
-28
-6
-9
-27
-27
-29
-30
-26
-14
-11
-8
-24
-22
-20
-10
-16
-24
-27
-23
-19
-12
-9
-4
-19
-21
-5
-13
-16
-7
-2
-15
-15
-10
-10
-24
-30
-15
-13
-18
-14
-8
-12
-16
-8
-9
-7
-19
-21
-3
3
-6
-5
-2
-4
5
13
17
10
-1
7
11
2
-4
-5
1
11
19
27
8
11
12
9
14
21
28
15
17
20
24
33
39
42
41
41
50
49
54
56
63
65
64
68
74
64
69
77
79
83
84
87
93
90
85
74
74
76
87
80
65
60
65
51
54
47
40
31
25
28
18
14
17
15
-4
-7
2
11
10
-3
-9
-5
-11
-6
-12
-7
-14
-21
-15
-13
-19
-30
-32
-24
-19
-17
-5
-10
-25
-25
-16
-28
-34
-38
-26
-21
-28
-32
-26
-19
-15
-19
-17
-19
-23
-22
-25
-21
-25
-27
-28
-42
-27
-17
-13
-19
-15
-24
-23
-18
-25
-28
-24
-21
-22
-19
-20
-21
-15
-24
-14
-14
-26
-38
-22
-15
-17
-26
-22
-12
-10
-16
-34
-18
-15
-24
-33
-21
-20
-35
-41
-35
-22
-23
-24
-19
-16
-14
-12
-23
-21
-25
-20
-14
-21
-28
-27
-23
-28
-26
-24
-14
-27
-27
-22
-21
-16
-24
-26
-28
-34
-32
-17
-19
-27
-23
-23
-18
-11
-43
-43
-34
-25
-23
-26
-24
-31
-21
-22
-25
-28
-23
-23
-22
-21
-33
-27
-23
-20
-27
-22
-22
-15
-24
-18
-20
-27
-29
-32
-9
-12
-21
-24
-27
-31
-27
-22
-21
-10
-20
-14
-19
-21
-16
-9
-15
-4
-7
-5
-14
-16
-14
-2
-7
-8
-6
-7
-7
-10
-13
-12
-24
-22
-12
-12
-33
-23
-35
-36
-25
-13
-13
-23
-26
-39
-25
-32
-37
-27
-26
-16
-24
-31
-27
-22
-28
-47
-48
-14
2
-14
-28
-34
-25
-33
-40
-29
-25
-21
-35
-30
-23
-31
-27
-18
-30
-35
-31
-35
-30
-28
-30
-24
-30
-26
-22
-32
-34
-30
-30
-36
-32
-33
-34
-20
-22
-32
-33
-18
-19
-14
-18
-18
-12
-1
0
10
26
44
57
61
67
60
61
60
38
27
23
8
2
12
7
-24
-50
-47
-27
-34
-38
-45
-24
-30
-25
-20
-25
-32
-23
-32
-35
-12
-14
-24
-16
-21
-26
-33
-23
-18
-20
-15
-19
-17
-12
-20
-28
-22
-11
-9
-6
-7
-18
-23
-17
-24
-26
-17
-11
-23
-13
-16
-29
-31
-27
-15
-11
-6
1
-15
-15
-15
-19
-16
-13
-9
-12
-13
-10
-7
-10
-9
-12
-10
-8
5
17
8
12
8
18
7
3
9
12
11
2
7
2
5
16
21
16
21
18
27
28
20
35
26
40
48
49
55
54
50
55
58
70
65
63
73
76
79
73
70
73
67
83
79
70
79
80
95
79
70
77
78
62
62
47
45
57
46
41
35
16
16
22
26
2
2
6
1
-3
-5
-8
-21
-17
-4
-11
-23
-27
-16
-15
-24
-21
-13
-18
-20
-18
-23
-30
-32
-35
-15
-14
-13
-12
-27
-24
-30
-30
-28
-19
-21
-20
-25
-23
-23
-29
-35
-24
-27
-37
-27
-27
-25
-18
-22
-26
-27
-11
-22
-22
-28
-30
-12
-20
-28
-26
-13
-27
-28
-21
-35
-26
-31
-14
-14
-27
-29
-30
-23
-37
-25
-5
-13
-17
-33
-30
-17
-23
-13
-25
-32
-25
-20
-20
-26
-27
-25
-25
-16
-18
-17
-15
-16
-27
-38
-32
-21
-23
-32
-34
-26
-19
-33
-26
-20
-19
-17
-27
-30
-31
-24
-30
-23
-21
-12
-6
-19
-20
-22
-29
-22
-25
-38
-32
-37
-29
-22
-19
-27
-22
-12
-19
-23
-24
-27
-15
-23
-22
-26
-34
-35
-28
-22
-29
-33
-33
-24
-30
-31
-29
-20
-13
-11
-37
-27
-21
-33
-28
-29
-32
-22
-22
-26
-29
-26
-25
-26
-18
-23
-18
-30
-31
-26
-19
-29
-15
-6
-12
-46
-29
-31
-35
-28
-27
-35
-35
-17
-17
-13
-13
-27
-32
-29
-37
-29
-22
-23
-33
-26
-26
-24
-42
-31
-24
-16
-9
-27
-49
-27
-24
-31
-26
-26
-29
-17
-13
-20
-20
-20
-29
-31
-18
-30
-35
-32
-25
-26
-25
-14
-24
-23
-28
-39
-25
-26
-25
-24
-17
-19
-34
-25
-25
-34
-32
-20
-33
-46
-40
-22
-28
-10
-18
-26
-27
-22
-22
-24
-21
-32
-23
-29
-40
-28
-13
-20
-29
-28
-24
-14
-13
-19
-41
-38
-19
-22
-22
-17
-18
-33
-26
-18
-26
-42
-30
-33
-23
-23
-22
-28
-25
-22
-20
-32
-37
-25
-23
-19
-26
-23
-12
-31
-28
-17
-19
-23
-23
-21
-20
-41
-25
-21
-24
-26
-33
-34
-33
-24
-14
-22
-20
-8
-14
-21
-24
-31
-26
-26
-29
-22
-24
-24
-23
-27
-26
-29
-24
-23
-26
-25
-30
-22
-34
-37
-25
-19
-24
-30
-8
-13
-32
-34
-18
-14
-21
-25
-18
-24
-17
-25
-26
-24
-30
-20
-24
-24
-32
-18
-25
-22
-18
-21
-20
-17
-24
-24
-25
-23
-23
-26
-34
-37
-30
-29
-23
-26
-25
-10
-12
-22
-30
-18
-19
-30
-17
-11
-18
-17
-25
-22
-30
-20
-22
-31
-23
-17
-20
-8
-4
-10
-11
-8
-12
-24
-14
-16
3
-6
-16
0
-11
-19
-6
-1
-11
-9
0
-7
-2
-1
-10
-15
-29
-33
-17
-7
-18
-11
-13
-17
-19
-18
-13
-26
-33
-38
-18
-20
-16
-13
-13
-27
-39
-41
-29
-27
-10
-16
-13
-12
-15
-12
-17
-16
-19
-31
-36
-37
-24
-16
-20
-23
-19
-26
-24
-17
-27
-23
-26
-29
-20
-28
-20
-17
-22
-22
-6
-14
-24
-24
-23
-35
-38
-20
-6
-11
-18
-17
-15
-11
3
6
19
31
54
59
63
60
54
50
55
36
23
12
4
-1
15
21
-5
-38
-56
-43
-34
-33
-26
-18
-37
-26
-19
-23
-18
-17
-5
-10
-17
-25
-26
-16
-14
-11
-21
-18
-24
-22
-17
-19
-21
-24
-25
-15
-2
-9
-24
-33
-16
-11
-22
-19
-18
-18
-6
-12
-10
-6
-19
-20
-17
-23
-18
-8
-3
-9
-3
-3
0
-11
-11
-32
-7
8
3
-19
-6
4
0
-4
-5
-3
-2
3
6
-6
3
1
5
5
5
7
15
7
4
12
16
5
14
28
22
24
24
25
25
27
25
37
46
43
40
39
48
50
44
51
49
64
58
72
75
74
64
60
73
94
95
89
82
83
85
103
91
77
77
62
75
76
79
63
66
68
60
63
57
54
33
32
33
29
26
13
26
2
0
8
-11
-16
-18
-7
-12
-9
-14
-16
-2
-8
-14
-15
-27
-14
-7
-13
-11
-18
-18
-26
-7
-8
-16
-18
-18
-16
-14
-10
-20
-23
-18
-23
-28
-12
-24
-27
-22
-22
-20
-23
-29
-31
-24
-22
-20
-19
-26
-24
-15
-5
-21
-21
-9
-14
-13
-9
-22
-25
-12
-11
-22
-27
-28
-20
-13
-7
-13
-30
-26
-8
-9
-8
-15
-9
-7
-22
-27
-20
-21
-29
-29
-24
-19
-22
-27
-23
-22
-16
-13
-16
-21
-26
-19
-23
-9
-17
-34
-16
-14
-8
-29
-17
3
-12
-13
-20
-21
-20
-25
-28
-19
-22
-15
-16
-14
-20
-19
-20
-16
-26
-36
-28
-29
-19
-23
-17
-11
-17
-19
-7
-12
-20
-10
-26
-17
-14
-17
-13
-18
-21
-19
-21
-17
-18
-20
-18
-13
-15
-22
-31
-24
-16
-30
-20
-26
-39
-32
-18
-12
-9
-15
-23
-41
-40
-30
-14
-21
-33
-26
-25
-14
-5
-14
-11
-19
-14
-18
-18
-18
-5
2
-23
-29
-28
-30
-24
-18
-18
-13
-13
-19
-36
-27
-21
-11
-17
-29
-33
-19
-23
-26
-29
-16
-23
-24
-26
-20
-20
-23
-32
-20
-5
-17
-18
-19
-16
-32
-21
-21
-17
-13
-11
-16
-17
-17
-21
-24
-12
-21
-28
-21
-10
-25
-23
-35
-30
-28
-31
-25
-19
-16
-18
-24
-16
-20
-27
-23
-14
-16
-23
-23
-15
-5
-19
-24
-17
-19
-23
-34
-24
-20
-19
-20
-12
7
-14
-34
-23
-16
-22
-15
-18
-15
-23
-32
-24
-23
-21
-27
-11
-14
-41
-31
-18
-6
-10
-2
-11
-27
-18
-7
-17
-23
-15
-17
-14
-8
-5
2
-12
-8
-10
-8
-3
-6
1
-5
-17
-7
8
-3
-8
11
-3
-2
-10
-18
-12
-3
-9
-18
-21
-11
-6
-6
-7
-8
-19
-26
-24
-28
-28
-17
-34
-27
-18
-11
-22
-18
-16
-15
-36
-18
-13
-5
-24
-20
-16
-16
-26
-29
-34
-31
-26
-22
-5
-20
-22
-20
-18
-8
-8
-9
-9
-21
-19
-27
-3
-4
-18
-25
-29
-36
-36
-23
-20
-22
-12
1
9
0
-1
-7
-12
-3
26
51
66
69
78
74
60
44
55
48
35
0
-5
0
5
-6
-39
-27
-38
-42
-30
-21
-21
-10
-16
-32
-13
-5
-21
-22
-10
-5
-20
-16
-8
1
-17
-13
-10
-12
-10
-18
-14
-18
-6
3
-6
2
3
-12
-18
-21
1
-2
2
-4
0
-11
-7
-1
-14
-10
-16
0
-5
-15
-8
2
10
8
5
3
10
16
7
-8
-7
1
1
1
5
1
15
6
9
15
3
9
-1
11
17
7
18
24
30
23
25
27
24
26
22
14
16
24
29
41
36
19
28
40
44
50
55
55
49
65
70
69
71
66
75
64
66
71
86
86
84
84
77
90
97
99
94
95
98
97
98
92
81
76
89
86
81
67
75
70
56
52
47
43
43
52
38
33
27
24
14
14
12
16
9
9
7
3
1
-1
-4
-10
-8
-12
-14
-10
-3
-1
-5
-6
-8
-18
-10
-17
-19
-9
-5
-10
-7
-5
-13
-7
-17
-19
-13
-13
-23
-18
-16
-27
-36
-20
1
-7
-17
-15
-8
-9
-27
-8
-9
-9
-13
-9
-20
-10
-8
-8
-3
-12
-20
-13
-15
-6
-9
-8
1
-17
-19
-25
-18
-10
-10
-4
-17
-13
-1
-5
-6
-13
-17
-4
-6
-7
-9
-13
-10
-12
1
-12
-18
-1
-14
-6
-8
-6
-5
-12
-23
-12
0
-11
-16
-16
-23
-18
-15
-31
-17
-9
-13
-12
-17
-17
-21
-10
0
1
-6
-9
-12
-19
-20
-21
-25
-3
-3
-3
3
-7
-11
-13
-11
-18
-17
-14
-13
-10
-15
-13
-17
-11
-13
-22
-31
-15
-22
-11
-5
-6
-16
-19
-17
-11
-19
-16
-9
-13
-19
-18
-8
-12
-14
-4
-5
-1
-2
-11
2
9
-2
-14
-12
-1
-2
-11
0
2
-2
5
15
7
2
4
6
-10
-3
0
-3
2
-13
-19
-6
-2
-12
-20
-10
-3
-10
-12
-25
-8
-17
-12
-13
-16
-8
-14
-16
-4
-5
-20
-28
-29
-26
-24
-18
-10
-10
-22
-24
-17
-14
-12
-11
-12
-17
-20
-13
-21
-19
-11
-10
-18
-9
-14
-24
-22
-29
-24
-22
2
-3
-19
-24
-18
-14
-14
-10
-19
-12
-1
-9
-7
-3
-1
-1
11
32
35
48
48
77
79
62
59
61
42
22
4
3
-8
-3
-7
-30
-34
-47
-36
-31
-32
-29
-16
-11
-1
3
-14
-16
-17
-7
-12
-13
1
7
-8
-21
-24
-17
-13
-17
-19
-15
-18
-10
-9
-2
-10
0
1
-6
-6
-1
-2
7
-13
-12
-4
-10
-2
2
-7
-4
-5
-6
-7
-2
-1
0
2
-2
-5
-8
-2
8
9
9
4
2
3
3
3
1
2
-4
15
28
14
5
6
5
6
11
15
16
23
20
18
32
44
45
21
16
35
43
31
41
49
43
37
47
43
45
55
60
62
58
62
67
74
70
77
86
83
92
94
100
93
90
89
93
96
87
95
89
89
97
93
84
92
91
79
69
71
69
66
54
52
45
37
38
34
32
21
11
8
-2
-4
6
7
4
-3
-1
0
7
8
2
-6
-12
-2
-12
-19
-27
-17
-19
-19
-26
-24
1
-5
-13
-25
-16
-15
-10
-4
-14
-24
-17
-15
-17
-14
-22
-26
-21
-9
-2
-6
1
-5
-10
-15
-19
-19
-23
-19
-12
-19
-7
-15
-27
-16
-13
-23
-25
-13
-14
-16
-19
-19
-11
-12
-2
-9
-9
-6
4
-2
-15
-11
-19
-15
-17
-19
-7
-12
-12
-11
-4
-6
-10
-8
-4
-9
-14
-15
-9
-14
-19
-6
-10
-13
-16
-8
-14
-16
-7
-15
-6
-5
-1
-13
-17
-15
-20
-11
-19
-15
-13
-13
-8
-1
1
-12
-14
-15
-22
-26
-8
-7
-21
-14
-17
-21
-12
-17
-12
-10
-22
-25
-15
-23
-13
-3
-7
-8
-23
-20
-13
-12
-19
-8
-4
1
-9
-13
-11
-11
-6
-4
-7
-13
-18
-17
-13
-3
13
12
-11
-5
9
3
0
2
-5
3
4
-1
-4
0
-9
-7
1
-1
2
-6
-8
-6
-14
-12
-13
-14
-32
-31
-8
-16
-14
-12
-15
-14
-15
-22
-10
-11
-12
-15
-28
-18
-13
-13
-17
-30
-12
-3
-9
-18
-16
-16
-22
-22
-22
-16
-17
-25
-24
-20
-24
-15
-6
-13
-11
-18
-21
-30
-25
-14
3
-1
-20
-27
-24
-14
-4
-16
-7
-15
-21
-11
-5
-4
-4
-5
1
12
38
69
81
74
77
74
55
54
45
34
19
7
7
19
25
0
-28
-29
-35
-40
-20
-16
-22
-13
2
-9
-23
-17
-6
2
-10
-11
-21
-12
-24
-12
-6
-10
-22
-7
-6
-14
-11
-10
-2
-10
-30
-16
1
-8
-3
-7
-4
-7
-8
-23
-21
-18
4
5
-8
-5
0
-6
2
3
1
1
8
-1
-1
6
9
-1
-10
-7
-5
-1
-6
-5
2
4
5
16
22
14
1
5
5
7
10
6
10
11
15
13
14
15
25
24
36
28
28
29
41
37
31
32
33
39
47
51
49
52
71
81
75
63
50
58
75
85
76
91
91
88
85
95
79
85
88
93
92
103
82
93
94
87
86
77
71
67
61
49
57
68
46
43
37
32
25
7
19
9
5
10
15
15
13
9
-5
4
5
-4
-12
-9
-13
-8
-14
-20
-11
-7
-26
-26
-25
-20
-26
-23
-18
-15
-4
-3
-6
-6
-13
-18
-21
-24
-12
-8
-12
-16
-12
-14
-29
-13
-6
-12
-12
-11
-9
-3
-5
-14
-21
-23
-23
-17
-21
-31
-8
-9
-4
-19
-25
-22
-11
-18
-12
-17
-13
-18
-16
-21
-33
-26
-12
-7
-9
-16
-17
-12
-14
-19
-26
-11
-14
-13
-5
-10
-14
-10
-2
-3
-11
-7
-3
-23
-15
-13
0
-2
-4
-2
-7
-20
-9
-3
-5
-3
-10
-11
0
-8
-3
8
4
5
14
9
0
4
3
1
-3
-4
2
-3
2
-7
-5
-16
-18
0
-11
-19
-19
-11
-7
-15
-7
-13
-17
-25
-24
-9
-7
-13
-22
-12
-17
-19
-16
-25
-29
-19
-28
-33
-26
-4
-6
-9
-4
-7
-16
-24
-11
-16
-13
-17
-23
-12
-20
-27
-30
-29
-23
-26
-18
-20
-20
-16
-24
-11
-19
-34
-18
-13
-13
-11
-13
-14
-20
-15
-19
-23
-18
-14
-13
-8
11
19
37
53
72
79
80
74
63
67
62
48
32
14
20
18
17
1
-14
-13
-31
-31
-27
-26
-21
-22
-19
-9
-9
-18
-17
-12
-15
-7
-16
-21
-22
-28
-9
0
-8
-22
-20
-5
-9
-13
-14
-9
-12
-6
-7
-15
-15
-9
-16
-14
-12
-2
-4
-13
-12
-3
-4
-5
-10
-12
-5
-7
-5
-2
-11
-5
-1
6
8
-2
-1
0
-3
-6
-2
-3
5
1
0
-6
1
12
12
-2
-7
8
16
8
10
10
17
25
15
9
20
22
34
34
34
36
32
32
52
44
51
42
48
47
49
52
55
65
64
68
80
76
69
75
86
89
97
86
83
85
87
89
88
101
93
90
86
84
78
68
79
64
68
67
59
57
53
41
30
18
11
29
24
26
15
18
13
16
2
-9
-1
-1
-7
-16
-11
-2
-15
-24
-12
-20
-15
-14
-20
-21
-19
-13
-17
-15
-14
-13
-20
-25
-21
-25
-20
-10
-17
-14
-32
-23
-19
-26
-26
-15
-11
-14
-13
-9
-17
-21
-14
-10
-20
-32
-30
-28
-21
-12
-21
-12
0
0
-12
-24
-31
-29
-10
-9
-13
-14
-6
-5
-15
-24
-20
-12
-4
-14
-9
-8
-9
-16
-22
-18
-24
-23
-8
-9
-15
-14
-14
-21
-22
-2
-20
-30
-21
-20
-7
-18
-18
-20
-28
-23
-6
-7
-9
-17
-18
-14
-13
-14
-16
-15
-14
-9
-15
-28
-22
-9
-4
-13
-16
-15
2
-6
-15
-22
-5
-5
-8
-5
-10
-11
0
-18
-26
-15
-9
-7
-24
-11
-8
2
-4
-10
-4
13
8
3
-4
-2
-3
-1
8
-17
-6
-1
6
9
-14
-24
-22
-24
0
-8
-12
-22
-20
-22
-13
-19
-19
-22
-26
-28
-21
-11
-10
-18
-26
-12
-23
-19
-24
-23
-12
-21
-35
-18
-9
-11
-26
-16
-15
-23
-29
-25
-19
-14
-18
-20
-14
-24
-36
-15
-21
-24
-19
-5
-12
-20
-10
-24
-26
-18
-26
-27
-24
-19
-6
-23
-31
-16
-17
-14
-19
-16
-3
-1
9
8
30
53
77
71
81
74
73
58
46
36
30
20
20
21
29
16
-24
-30
-39
-32
-19
-29
-23
-12
-3
-15
-1
-11
-14
-6
-7
-16
-17
-14
-26
-24
-14
-10
-15
-26
-21
-10
-12
-12
-11
-14
-26
-18
-6
7
-1
-14
-18
-10
-15
-7
-8
-6
0
-15
-14
-11
-6
-1
-1
10
15
13
-19
-15
-2
-7
-8
-11
-2
-1
1
-2
-15
-9
-5
5
10
8
10
10
-11
-2
8
23
12
13
10
8
17
0
4
14
26
30
25
22
19
24
30
34
40
41
39
50
56
53
51
58
48
50
55
61
62
82
83
74
78
80
87
96
94
93
89
93
89
90
89
96
96
91
81
79
79
69
61
53
59
49
46
47
36
36
34
24
18
17
14
12
7
17
13
10
-7
-8
0
3
-7
-13
-4
-3
-14
-3
-8
-5
-14
-13
-9
-16
-22
-20
-12
-6
-10
-2
-13
-19
-3
-6
-13
-13
-16
-36
-16
-12
-15
-9
-15
-11
-10
-4
-7
-18
-14
-7
-14
-4
-14
-20
-9
-15
-7
-7
-21
-24
-15
-14
-17
-28
-15
-12
-13
-8
-3
-10
-7
-8
-7
-17
-10
-10
-22
-25
-23
-3
5
-8
-8
-1
-4
-7
-26
-20
-2
1
-11
-15
-8
-8
-11
-5
-5
-13
-11
-5
-17
-8
-15
-24
-18
-10
-7
-12
-14
-10
-14
-16
-14
-14
0
-9
-6
-9
-23
-29
-6
-3
-4
1
0
-16
-10
-13
-13
-14
-10
-10
-11
-17
-12
-13
-21
-6
-11
-7
-2
-4
-11
-23
-15
-17
-12
-16
-18
-18
-11
-13
-16
-15
-12
-14
-3
-5
-12
-2
-9
-7
-12
6
-17
-29
-23
-20
-23
-10
-6
-5
1
-10
-13
-12
-15
-11
-13
-5
-11
-8
-12
-25
-16
-9
-8
-10
-10
1
-9
-10
-19
-18
-8
1
-8
-22
-23
-3
-4
-12
-13
-4
-15
-18
-19
-10
-11
-5
-13
-10
-9
-8
-8
-14
-14
-6
-4
-27
-28
-15
-15
-11
-10
-11
-14
-8
-12
-3
-20
-16
3
0
-10
-17
-17
-13
-8
-18
-4
-15
-8
-12
-8
-3
-4
-23
-9
-4
-1
-5
-15
-14
-17
-22
-10
-21
-15
-6
-18
-7
-2
-15
-10
-12
-18
-20
-8
-11
-22
-17
-26
-19
-8
-9
-15
-10
-1
-2
-18
-14
-10
-7
-1
-10
-1
-4
-1
-7
-9
-16
-6
-15
-11
-16
-15
-14
-23
-26
-11
-8
-10
-7
-8
-6
-8
-20
-23
-5
-8
-6
-12
-10
-14
-14
-19
-17
-14
-19
-15
-25
-21
-11
-20
-4
2
-3
-3
-17
-13
-9
-6
-7
-10
-23
-10
1
-8
-13
-18
-10
-15
-22
-15
-26
-18
-18
-5
0
-12
-2
-12
-13
-14
-8
-12
-10
-8
-10
-9
-12
-11
-5
-9
0
-18
-11
5
3
-5
-4
0
3
2
-5
-10
-14
5
14
-5
7
5
7
12
8
13
4
-11
-1
-9
-3
1
-10
-4
0
-3
-5
-5
-16
-21
-14
-18
-16
-7
-7
-18
-20
-19
-4
-5
-15
-8
-13
-19
-17
-17
-24
-19
-4
1
-18
-24
-24
-13
-8
-11
-16
-9
-9
-21
-21
-14
-2
-1
-22
-20
1
-12
-13
-14
-14
-4
-13
-12
-10
-18
-19
-11
-7
-14
-14
-17
-15
-25
-23
-12
-9
-4
3
2
-8
2
7
17
33
67
72
86
78
65
54
53
44
28
3
-5
4
14
-2
-25
-36
-40
-29
-29
-28
-22
-12
-17
-5
3
-8
-10
-24
-8
-4
-5
-8
-16
-19
-15
-12
-11
-9
-11
-8
-11
-6
-9
-4
3
-8
-8
-14
-12
-16
-4
-1
-2
1
-3
-14
2
-1
-5
-13
0
-2
-13
-7
0
0
0
2
5
12
-1
-1
-10
-1
5
-1
-5
-2
-2
8
11
9
2
22
11
11
25
23
8
6
4
10
17
11
11
15
26
13
31
18
17
29
43
44
38
37
42
47
49
47
47
38
49
48
54
47
57
58
59
74
73
71
80
83
88
98
101
84
84
92
98
94
89
96
89
84
83
95
86
96
89
84
77
69
64
66
56
49
42
49
42
36
26
19
26
14
11
7
8
4
15
14
7
2
6
4
-9
-5
-10
-3
2
-12
-12
-14
-2
-21
-10
1
7
-2
-10
-14
-15
-16
-15
-19
-17
-11
-17
-14
-17
-18
-5
-11
-8
-7
-15
-13
-12
-16
-14
-9
-9
-9
-17
-22
-19
-1
5
-4
-5
-13
-2
-7
-14
-8
-4
-10
-6
-14
-22
-12
-15
-8
-2
2
3
0
-8
-23
-26
-26
-23
-1
0
4
-3
-15
5
12
-4
-15
-12
-15
-10
-12
-11
-10
-11
-6
-12
-16
-5
-5
-3
-1
-6
-9
-15
-7
-4
-1
-3
-9
-6
-6
1
-10
-19
-28
-22
-24
-15
-2
-20
-13
-18
-25
-10
-18
-7
2
-6
-1
-6
-9
-9
-23
-21
-14
-2
-9
-10
-8
-6
-2
-3
-11
-21
-22
-16
-24
-15
-8
-16
-19
-23
-16
-23
-6
3
-18
-20
-13
-3
-12
-21
-26
-16
-7
-5
-8
-1
-3
-11
-10
-21
-26
-18
-20
-25
-12
-7
-6
-5
1
-18
-22
-15
-8
-7
-7
-3
-19
-22
-20
-25
-18
-14
-21
-16
-11
-12
-11
-14
-17
-8
-25
-22
-5
-25
-11
0
-4
-10
-4
-19
-26
-17
-5
-15
-16
-16
-14
4
-12
-10
-12
-24
-19
-8
-18
-22
-18
-11
-15
-13
-17
-18
-17
-12
-14
-8
-8
-16
-17
-15
-13
-21
-21
-9
-9
-7
-13
-20
-21
-9
-5
-13
-9
-6
-14
-21
-26
-21
-21
-18
-11
-12
-11
-3
-14
-13
-19
-10
-14
-15
-14
-7
-8
-17
-21
-13
-7
-6
-24
-16
-19
-23
-12
-14
-14
-9
-1
-11
-12
-18
-21
-6
-9
-13
-12
-7
-9
-20
-14
-14
-11
-15
-14
-19
-31
-27
-13
-10
-10
-14
-17
-14
-6
-7
-3
-14
-6
-3
-16
-5
-9
-26
-19
-13
-11
-2
2
0
2
11
7
1
-3
3
1
3
2
0
0
0
-1
-19
5
17
11
-13
-12
-13
-2
-3
-4
-6
-8
-5
-9
-16
-3
-2
-18
-29
-15
-12
-24
-18
-12
-17
-13
-17
-21
-19
-8
2
-1
-10
-12
-26
-18
-17
-9
-9
-10
-12
-14
-10
-1
-14
-24
-24
-19
-13
-23
-8
-3
-8
-17
-19
-10
-3
-14
-13
-19
-19
-13
-19
-6
-9
-16
-18
-24
-11
-9
-5
-2
3
10
20
30
44
61
71
83
77
64
61
49
40
30
5
2
3
11
24
0
-26
-27
-23
-24
-24
-15
-17
-21
-15
-3
-4
-24
-16
-15
-12
-8
-7
-6
-12
-11
-12
-6
1
-15
-22
-2
7
-13
-10
-8
1
-11
-11
7
-4
-10
-9
-2
0
-7
1
-5
-7
-7
-14
-12
-6
-2
-9
-7
21
11
-4
-2
5
-5
0
-6
1
-1
2
-2
-7
-1
-1
5
19
6
10
11
14
22
21
12
-1
15
20
25
21
23
16
12
6
16
19
15
14
20
37
37
45
55
37
42
39
47
54
51
61
60
63
58
72
72
65
64
65
78
78
86
71
81
90
96
105
98
78
90
104
93
95
91
83
83
83
77
82
79
66
61
59
59
53
51
56
44
27
31
30
31
21
4
20
22
8
-2
-5
-1
4
1
3
1
-2
-11
-10
-5
-4
-14
-29
-13
2
-5
-25
-19
-17
-16
3
-6
-11
-2
-3
-11
-15
-26
-16
-17
-20
-9
-1
2
-13
-14
-17
-9
-3
-11
-22
-20
-18
-18
-7
-7
-8
-14
-25
-13
-23
-15
-6
-13
-20
-27
-18
-20
-3
-6
-7
-17
-9
-8
-15
-15
-7
-8
-15
-14
-14
-16
-12
-9
-15
-5
-15
-10
-5
-9
5
-19
-16
6
1
-9
-22
-16
-3
-10
-7
-5
-10
-3
-10
-12
-11
-10
-20
-11
-12
-12
-15
-18
-10
-17
-12
-10
-11
-19
-19
-20
-8
-7
-3
-15
-8
-23
-25
-21
-5
-7
-6
-11
-9
-11
-30
-20
-7
-5
-6
-10
-15
-13
-17
-1
-20
-23
-9
-8
-21
-12
-12
-17
-27
-18
-15
-29
-23
-16
-19
-10
-20
-6
-11
-9
-11
-28
-16
-16
-26
-23
-11
-25
-12
-6
-15
-14
-5
-9
-7
-10
-19
-24
-12
-13
-12
-6
-16
-32
-30
-3
-11
-23
-13
-18
-24
-19
-5
-13
-22
-18
-17
-18
-18
-16
-24
-6
-11
-16
-24
-17
-10
-8
-7
-27
-24
-25
-19
-11
-18
-16
-17
-4
-1
-30
-23
-13
-8
-20
-14
-20
-27
-22
-1
4
-7
-12
-10
-7
-8
-5
-16
2
-2
4
-7
-9
-14
0
-6
7
1
-12
-2
-2
3
11
-5
-14
-8
2
-6
-4
-15
-12
-15
-19
-11
-8
3
-15
-17
-15
-19
-10
-6
-17
-13
-21
-21
-2
-2
-23
-23
-27
-29
-30
-8
-16
-29
-15
-26
-18
-19
-9
-13
-15
-23
-20
-26
-27
-6
-16
-25
-25
-21
-13
-26
-32
-3
-7
-15
-28
-27
-21
-19
-12
-13
-13
-18
-21
-7
-12
-25
-19
-2
-4
-10
-8
0
-11
-7
2
17
48
58
66
69
73
58
57
60
43
22
19
15
15
17
14
-8
-25
-34
-31
-26
-22
-25
-29
-18
-13
-19
-15
-16
-13
-12
-15
-9
-6
-10
-9
-18
-20
-34
-10
-13
-26
-24
-12
-4
-8
-6
4
0
-3
-1
-10
-12
-14
-6
-3
-6
-3
-16
-14
-10
-8
-14
-5
-11
-1
3
-7
-7
-11
-6
-8
-2
-4
-5
-4
0
-1
-7
2
5
21
22
4
-5
11
4
8
4
9
8
11
13
3
9
12
7
23
21
20
23
15
16
25
27
48
48
39
12
26
47
33
49
43
33
46
75
72
70
71
68
64
66
70
66
75
90
93
86
72
90
93
89
84
92
91
96
102
105
91
89
79
75
68
69
78
59
51
55
49
48
35
28
12
19
24
24
22
19
8
6
1
0
-4
6
-5
-3
-9
-8
-4
-11
-22
-23
-18
-7
-2
-14
-16
-17
-10
-18
-24
-3
3
-11
-21
-7
-12
-9
-5
-7
-16
-14
-15
-21
-29
-16
-26
-19
-19
-9
-13
-12
-20
-7
-5
-9
-16
-11
-6
-13
-17
-23
-27
-27
-24
-21
-19
-5
-8
-12
-16
-8
-11
-11
-13
-10
-7
-10
-33
-27
-19
-16
-20
0
-4
-12
-12
-11
-10
-5
-5
-14
-15
-8
-22
-13
-14
-19
-7
-15
-28
-11
-9
-3
2
-7
-14
-2
-22
-20
-18
-18
-13
-19
-15
-9
-5
-9
-25
-25
-12
-16
-14
-10
2
-2
-21
-23
-27
-18
-6
-18
-19
-15
-19
-21
-14
-20
-24
-9
-9
-14
-10
-7
-4
-6
-10
-24
-17
-18
-24
-29
-17
-15
-20
-7
-18
-29
-23
-5
-13
-14
-13
-17
-14
-21
-10
-26
-20
-7
-11
-18
-14
-17
-6
-14
-22
-19
-20
-17
-22
-25
-18
-13
-3
-9
-3
-4
-16
-16
-16
-17
-22
-16
-13
-1
-17
-9
-18
-18
-15
-7
-8
-5
4
-1
-17
-6
3
7
2
-2
-2
-2
-13
-5
1
-8
5
14
7
-1
4
8
3
-5
-9
-14
-10
-9
-7
-20
-21
-23
-12
-14
-19
-20
-32
-20
-12
-1
-3
-6
-8
-15
-17
-22
-31
-17
-3
-14
-21
-24
-22
-20
-19
-26
-27
-29
-17
-9
-16
-24
-24
-20
-10
-9
-13
-18
-24
-17
-13
-14
-19
-26
-21
-26
-1
-29
-18
-17
-11
-15
-8
-10
-11
-17
-13
-4
-4
-15
1
-6
-2
22
35
48
79
94
84
66
58
50
45
38
19
-3
5
15
23
-1
-27
-35
-28
-28
-28
-16
-16
-15
-9
-9
-18
-2
-17
-24
-19
-17
-18
-10
-21
-23
-14
-6
-11
-23
-12
-4
-5
-17
-13
0
-12
-9
-6
-8
-3
-5
-1
-16
-13
-7
6
11
6
-2
-10
-10
-8
-14
-20
-10
-15
-11
10
5
-15
-3
-3
-4
-2
-9
-9
2
-4
-1
3
10
11
9
12
27
14
12
23
23
2
0
5
6
21
27
25
19
21
26
14
20
14
28
23
21
31
42
47
40
48
49
51
50
49
63
60
66
81
61
60
65
76
88
86
85
83
101
92
89
101
98
96
96
108
111
99
97
96
88
76
70
70
68
64
60
52
42
41
42
48
37
28
23
22
14
6
-3
0
2
6
3
5
2
6
-3
-2
-16
-12
-13
-26
-15
-9
-13
5
-4
-4
-2
-1
0
-16
-5
-24
-41
-26
-10
-22
-29
-14
-12
-11
-15
-12
-18
-14
-13
-18
-21
-24
-6
-15
-15
-16
-4
-17
-19
-18
-21
-13
-12
-17
-7
-9
-12
-21
-14
-11
-21
-27
-27
-2
7
-11
-10
-16
-8
-15
-25
-20
-18
-12
-18
-16
-13
-21
-21
-19
-16
-14
-7
-15
-6
-12
1
-19
-11
-13
-18
-17
-16
-18
-17
-4
-3
-16
-19
-3
-17
-17
-12
-23
-14
-7
-18
-14
-8
-19
-18
-12
-7
-7
-3
-13
-16
-14
-11
-24
-27
-27
-15
-8
-12
-15
-31
-28
-12
-23
-16
-18
-22
-17
-11
-12
-29
-20
-15
-19
-23
-19
-13
-14
-22
-19
-23
-11
-2
-15
-14
-7
-15
-19
-26
-26
-13
-27
-36
-21
-21
-17
-11
-3
-10
-5
-10
-23
-18
-15
-8
-11
-20
-23
-21
-24
-17
-18
-17
-12
-12
-13
-15
-20
-18
-6
-12
-10
-17
-14
0
-2
-2
-6
-12
-10
-10
8
9
2
0
5
0
-12
-7
-3
4
6
12
-3
-8
5
12
1
-7
-26
-22
-17
-14
-10
-18
-11
-10
-10
-10
-28
-27
-28
-18
-4
-15
-26
-33
-23
-19
-23
-19
-14
-13
-11
-7
-10
-22
-24
-14
-12
-5
-13
-14
-17
-25
-29
-29
-17
-22
-27
-18
-12
-21
-27
-19
-21
-25
-18
-23
-27
-12
-13
-23
-18
-21
-17
-21
-17
-22
-27
-31
-8
1
4
-14
5
10
15
7
30
61
75
80
78
69
59
52
47
37
29
23
-3
14
28
5
-23
-49
-53
-44
-34
-32
-22
-20
-24
-19
-3
-13
-22
-3
-11
-22
-21
-14
-13
-20
-27
-22
-16
-6
0
4
-7
-11
-9
-18
-8
-10
-11
-16
-9
1
-4
-2
-5
2
-1
-8
-14
-17
-17
-26
-22
-14
-1
-6
0
-4
-4
-16
-3
8
-1
-4
4
4
0
-18
-6
6
5
-3
2
1
11
13
13
3
8
12
13
13
9
13
-2
1
9
13
22
26
23
14
19
19
31
26
29
24
43
50
45
45
46
47
47
42
51
70
83
79
78
77
69
65
85
83
89
84
81
75
91
93
90
96
94
90
91
90
83
83
76
73
75
72
69
69
57
51
44
40
35
17
30
24
18
22
6
1
0
6
7
0
0
10
2
2
-2
-14
-20
-24
-23
-16
-7
-17
-21
-30
-17
-9
-14
-15
-15
-14
-14
-12
-18
-29
-24
-17
-18
-9
-1
-19
-29
-6
-18
-23
-12
-7
-6
-14
-17
-24
-24
-19
-13
-21
-29
-19
-18
-17
-18
-13
-11
-27
-27
-25
-19
-10
-4
-15
-17
-3
-11
-17
-28
-39
-12
-11
-10
-15
-15
-16
-11
-5
-3
-15
-21
-19
-16
-6
-6
-20
-22
-24
-12
-19
-23
-17
-16
-15
-18
-17
-16
-18
-35
-29
-5
2
2
-3
-12
-18
-18
-12
-20
-19
-16
-9
-15
-18
-15
-17
-29
-26
-15
-18
-21
-25
-21
-5
-5
-13
-7
-10
-10
-22
-26
-25
-18
-13
-16
-21
-25
-23
-7
-10
-16
-17
-11
-14
-16
-6
-12
-21
-16
-30
-26
-10
-3
-20
-13
-10
-18
-23
-22
-12
-12
-17
-16
-15
-10
-21
-9
-12
-2
-4
-23
-22
-19
-2
-6
2
2
-21
-16
-8
-7
-7
-17
-23
-1
10
9
9
-1
-2
4
6
4
7
2
7
7
8
0
-4
-19
-22
-4
-8
-4
-7
-6
-11
-22
-14
-3
-9
-16
-13
-30
-24
-16
-21
-27
-29
-20
-9
-16
-17
-11
-20
-12
-7
-2
-10
-13
-15
-17
-23
-20
-20
-28
-36
-18
-12
-19
-17
-16
-20
-23
-20
-18
-23
-15
-15
-17
-8
-20
-15
-15
-21
-17
-18
-14
-16
-17
-21
-14
-17
-23
-13
1
-4
-2
9
1
17
39
64
78
79
74
64
50
42
20
20
18
0
-6
3
4
-18
-34
-50
-51
-39
-35
-26
-18
-21
-20
-22
-27
-15
-9
0
0
-14
-5
2
-1
-5
-18
-29
-26
-3
9
-13
-13
-5
-12
-14
-21
-7
-2
1
0
-8
-9
-9
-21
-21
-9
-6
0
5
6
7
8
-5
-7
-11
-7
-12
-3
6
10
2
-1
1
-5
2
16
9
12
2
12
1
-7
1
2
5
0
3
3
14
8
8
20
29
18
24
13
21
26
20
27
32
34
35
34
34
30
41
37
25
28
47
50
53
53
64
59
71
70
80
69
62
72
85
92
87
88
84
96
96
104
98
95
96
79
85
95
88
98
94
82
83
68
58
69
51
48
59
58
38
31
31
29
32
21
9
14
17
10
0
-8
-10
1
4
1
-6
-6
-3
-2
-2
-7
-7
-5
-3
-1
-4
-24
-10
-17
-24
-13
-14
-15
-14
-18
-21
-9
2
-7
-13
-8
-16
-21
-15
-1
-3
-4
-2
-10
-13
-21
-21
-24
-23
-18
-2
5
-12
-14
-13
-7
-9
-19
-17
-32
-25
-10
-8
-15
-10
-2
-6
-5
-11
-2
-7
-14
-13
-16
-15
-22
-15
5
7
1
-5
0
1
-11
-12
0
-10
-16
-4
-8
-19
-16
-10
-14
-19
2
2
3
-5
-6
-2
-10
-13
-6
3
-6
-15
-2
-3
-13
-24
-11
-2
-2
-7
-20
-13
-16
-16
0
-11
-17
-18
-12
0
2
-7
-19
-20
-30
-22
4
-10
-27
-14
-11
8
17
-3
-4
-12
-18
-12
-15
-14
-5
-12
-9
-10
-17
-7
-5
-2
3
-14
-13
-25
-5
-3
1
-12
1
-4
3
-9
-13
-8
6
4
-1
-10
-3
11
2
-4
25
13
8
1
7
8
5
-9
-7
7
-5
-7
-13
-7
-6
-12
-5
0
-25
-33
-18
-12
-13
-20
-23
-16
-14
-6
-19
-12
-9
-8
-14
-18
-18
-17
-17
-5
-11
-15
-20
-23
-18
-12
-11
-22
-26
-17
-11
-4
-10
-17
-10
-19
-19
-16
-13
-15
-15
-22
-8
-6
-14
-8
-14
-9
-5
-21
-14
-23
-10
-14
-24
-13
3
10
16
33
54
69
69
75
66
61
51
45
27
21
6
-1
-11
-11
-20
-30
-35
-42
-35
-39
-23
-21
-16
-18
-17
-9
-14
-11
-8
-6
-4
4
-11
-17
-18
-10
-4
-4
-17
-10
0
5
-11
-14
-6
-7
-15
-4
-5
-4
-5
-9
4
-6
-20
-10
-4
-16
-7
1
0
4
-5
-6
2
-6
-9
-4
-3
6
1
-2
-4
-21
-13
-7
18
15
12
14
5
14
10
5
4
8
9
5
6
9
2
10
14
21
18
15
19
18
26
29
39
35
24
18
19
32
43
48
39
48
51
52
51
50
53
59
54
69
75
63
61
67
75
71
82
84
84
97
92
102
110
100
84
83
92
103
94
90
92
77
74
64
62
61
60
53
42
36
40
34
31
26
25
12
9
7
6
9
1
-4
0
3
-7
-6
-2
8
-19
-24
-13
-14
-13
-13
-15
-23
-28
-17
-8
1
2
-1
-12
-9
-16
-19
-22
-24
-14
-16
-24
-21
-15
-15
-20
-21
-18
-24
-4
-13
-9
-6
-15
-9
-17
-17
-24
-25
-24
-7
-10
-24
-18
-10
-23
-23
-12
-19
-21
-19
0
-2
-8
-13
-11
-22
-13
-9
-11
-14
-13
-18
-22
-9
1
-12
-20
-26
-26
-12
-19
-3
-14
-23
-11
-12
-13
-19
-10
-2
-9
-21
-8
-2
-8
2
-8
-17
-15
-15
-22
-16
-27
-29
-16
-14
-8
-25
-26
-19
-19
-10
-16
-11
-13
2
-16
-21
-18
-15
-15
-16
-17
-10
-7
-22
-26
-11
-9
-19
-19
-24
-24
-18
3
-4
-18
-22
-19
-23
-5
-17
-20
-14
-8
-13
-18
-2
5
-6
-24
-23
-9
-10
-10
-6
-13
-8
-1
1
14
0
-3
0
-11
-7
-14
2
1
-2
7
3
-4
-11
1
-1
-11
-1
-10
-20
-17
-12
-19
-26
-25
-21
-20
-12
-9
-5
-13
-14
-18
-30
-31
-25
-11
-1
-20
-27
-11
-14
-22
-25
-11
-13
-18
-24
-18
-10
-14
-20
-28
-28
-15
-20
-15
-25
-31
-17
-7
-25
-26
-23
-23
-17
-18
-13
-25
-36
-21
-14
-9
-12
-17
-17
-15
-15
-4
-1
-5
-8
-2
-6
4
29
48
54
60
57
63
66
58
50
37
24
11
11
9
17
0
-16
-31
-34
-29
-32
-28
-18
-31
-17
-5
-8
-24
-23
-25
-23
-6
0
-10
-10
-12
-19
-11
-13
-20
-24
-13
-18
-16
-6
-11
-13
-6
-10
-26
-20
-28
-19
-17
-17
-13
-22
-13
0
0
1
10
-1
-13
-8
-2
-21
-17
-8
-15
-8
-6
3
7
4
4
0
-3
-8
-10
-4
4
0
-3
-8
-9
3
8
0
1
7
9
1
-3
15
19
15
15
8
22
14
18
28
34
38
25
32
20
35
39
22
24
34
53
53
42
55
56
59
74
68
67
62
77
68
74
89
78
78
84
73
77
91
89
84
87
88
85
73
72
70
59
56
58
60
46
54
52
34
26
20
26
27
6
-1
1
5
5
0
-17
-3
1
-8
-7
5
2
4
-18
-17
-23
-19
-20
-32
-31
-21
-13
-19
-15
-15
-18
-20
-22
-16
-21
-20
-16
-23
-23
-25
-25
-16
-26
-21
-12
-8
-17
-12
-28
-22
-17
-13
-22
-17
-20
-17
-9
-17
-31
-19
-20
-16
-15
-14
-15
-9
-9
-29
-30
-24
-21
-16
-27
-22
-22
-18
-11
-19
-16
-26
-23
-13
-9
-8
-19
-15
-9
-15
-33
-37
-35
-39
-13
-4
0
-14
-5
-20
-12
-4
-5
-20
-22
-18
-11
-20
-21
-21
-32
-23
-20
-22
-16
-17
-13
-13
-10
-1
-9
-21
-17
-9
-15
-27
-38
-35
-20
-12
-22
-11
-11
-19
-23
-23
-26
-19
-16
-13
-8
-26
-23
-13
-25
-28
-18
-23
-30
-21
-16
-12
-14
-28
-30
-20
-18
-10
-16
-19
-26
-32
-24
-6
-8
-13
-13
-9
-12
-19
-20
-24
-12
-16
-19
-3
-10
-13
-14
-13
0
-2
-9
-13
-8
-3
-1
-6
-19
-8
-7
-11
-8
-4
-12
2
-2
-12
-10
-21
-34
-8
0
13
-7
-25
-22
-15
-16
-22
-24
-33
-28
-13
-16
-32
-27
-19
-25
-21
-24
-21
-23
-22
-16
-12
-19
-22
-27
-26
-19
-17
-28
-25
-19
-18
-15
-21
-27
-29
-18
-20
-27
-25
-26
-23
-24
-25
-32
-31
-21
-21
-31
-31
-11
-17
-24
-27
-25
-16
-5
-7
-12
0
-3
15
23
27
34
61
66
67
62
55
45
50
48
29
5
11
17
39
18
-7
-35
-30
-27
-26
-27
-26
-21
-12
-21
-22
-20
-13
-23
-18
-17
-16
-29
-27
-18
-29
-26
-8
-17
-26
-28
-24
-15
-20
-19
-22
-1
-1
-14
-14
-17
-15
-14
-20
-18
-16
-11
-6
-9
-8
-25
-17
-11
-6
-2
-12
-7
-9
-12
-15
-17
-13
-14
-13
-7
-5
-1
-8
-6
-8
-13
-15
6
2
-5
4
1
-9
4
-8
6
9
13
-3
13
10
11
8
11
5
15
31
16
15
27
32
29
30
27
29
43
40
36
40
56
57
64
61
51
55
54
55
63
68
79
75
68
84
94
94
86
84
84
85
90
91
84
76
65
76
63
59
53
53
55
34
34
42
37
32
21
22
19
9
10
-2
-3
-3
-4
-19
-28
-14
-2
-11
-25
-21
-17
-12
-18
-18
-25
-20
-12
-14
-10
-16
-16
-14
-18
-29
-37
-18
-16
-13
-21
-18
-26
-21
-23
-21
-22
-27
-25
-24
-17
-1
-14
-23
-35
-37
-39
-26
-18
-19
-25
-21
-11
-19
-19
-19
-24
-20
-17
-23
-28
-22
-24
-20
-21
-15
-28
-28
-32
-17
-21
-18
-12
-10
-12
-12
-16
-21
-18
-13
-14
-25
-15
-20
-32
-28
-12
-19
-22
-27
-15
-31
-39
-22
-3
-9
-26
-24
-20
-20
-25
-28
-28
-27
-14
-16
-10
-13
-23
-22
-13
-19
-22
-21
-25
-26
-23
-23
-14
-20
-29
-36
-33
-31
-24
-23
-21
-21
-21
-16
-12
-14
-18
-14
-31
-31
-32
-31
-7
-18
-25
-21
-29
-25
-23
-29
-21
-33
-23
-13
-17
-20
-19
-31
-23
-25
-19
-21
-15
-24
-25
-28
-26
-27
-33
-24
-16
-19
-25
-27
-28
-28
-18
-18
-20
-28
-21
-20
-26
-34
-25
-31
-26
-31
-36
-29
-19
-17
-13
-16
-18
-29
-24
-31
-30
-24
-24
-19
-14
-10
-12
-20
-29
-12
-12
-19
-31
-21
1
-5
-8
6
2
-3
-14
-13
-10
-19
-22
-12
-11
-9
-17
-11
-4
-15
-17
-10
-9
2
-17
-33
-18
-11
-25
-36
-28
-20
-37
-24
-22
-21
-30
-33
-26
-23
-15
-20
-28
-25
-23
-23
-22
-32
-29
-31
-14
-9
-13
-20
-32
-21
-27
-25
-35
-46
-41
-39
-43
-38
-49
-32
3
-10
-27
-15
-5
-21
-28
-33
-22
-28
-41
-34
-16
-23
-19
-14
-34
-29
-19
-23
-15
-14
5
-2
0
6
20
37
46
49
48
57
70
49
48
43
20
10
3
15
19
7
-14
-37
-36
-41
-32
-30
-32
-43
-39
-18
-12
-24
-20
-27
-20
-19
-12
-15
-23
-21
-29
-34
-21
-21
-15
-10
-19
-16
-14
-18
-19
-24
-19
-9
-19
-14
-20
-22
-26
-19
-26
-28
-24
-24
-22
-29
-20
-22
-24
-20
-9
-11
-16
-1
-1
-16
-26
-3
0
-7
-19
-8
-2
-2
0
7
-8
-18
-12
1
2
-9
-4
-11
8
3
2
-4
7
9
7
6
7
4
7
20
17
15
9
8
9
41
22
28
29
46
38
47
36
43
45
48
60
61
46
56
69
62
75
75
64
70
78
89
92
100
98
96
95
110
90
66
70
75
55
62
56
52
52
56
66
46
49
46
34
24
24
19
27
18
11
5
2
-3
-7
-3
6
3
-4
-11
-21
-12
-18
-15
-13
-14
-27
-17
-14
-19
-22
-34
-45
-22
-21
-24
-20
-30
-20
-15
-15
-16
-25
-18
-16
-32
-32
-30
-33
-39
-27
-18
-14
-11
-22
-15
-16
-20
-22
-20
-21
-12
-31
-40
-40
-29
-18
-18
-8
-16
-12
-26
-33
-27
-33
-34
-44
-46
-34
-17
-21
-5
-17
-29
-20
-20
-10
-27
-28
-33
-26
-16
-27
-24
-30
-28
-25
-14
-13
-8
-16
-25
-23
-34
-29
-22
-32
-42
-33
-24
-21
-21
-26
-26
-23
-30
-26
-38
-22
-22
-24
-19
-19
-16
-19
-22
-21
-23
-33
-45
-53
-31
-15
-23
-39
-23
-26
-31
-26
-27
-28
-24
-23
-32
-23
-36
-37
-32
-25
-31
-29
-36
-28
-25
-24
-28
-24
-30
-34
-35
-42
-29
-15
-17
-23
-22
-25
-29
-22
-30
-40
-22
-21
-21
-31
-38
-23
-26
-42
-42
-27
-22
-22
-27
-21
-23
-14
-3
-19
-34
-43
-33
-23
-24
-25
-27
-34
-30
-26
-25
-31
-39
-18
-21
-27
-23
-21
-25
-25
-26
-24
-28
-30
-27
-30
-36
-37
-47
-24
-17
-12
-17
-25
-27
-19
-19
-24
-29
-44
-43
-25
-29
-33
-36
-10
-10
-6
-4
-23
-15
-9
-13
-26
-32
-16
-12
8
1
-1
-14
-13
-5
-9
6
-2
-13
-11
-10
-5
-13
-10
1
-23
-6
10
-11
-12
-10
-19
-18
-25
-25
-32
-11
-21
-14
-19
-24
-15
-12
-15
-17
-25
-22
-11
-19
-26
-31
-33
-28
-38
-37
-23
-30
-23
-16
-20
-27
-23
-18
-19
-26
-26
-18
-27
-31
-36
-35
-36
-34
-24
-20
-19
-23
-21
-16
-3
-10
-23
-30
-35
-24
-24
-28
-22
-21
-27
-29
-11
-17
-16
-31
-36
-21
-18
-20
-15
-15
1
-5
18
23
34
47
74
83
69
58
69
77
46
34
12
-3
11
24
13
-27
-41
-62
-57
-36
-31
-38
-34
-29
-24
-27
-20
-12
-4
-7
-17
-15
-26
-31
-10
-17
-16
-18
-19
-12
-7
-15
-29
-21
-13
-12
-21
-8
-12
-16
-12
-4
-5
-18
-14
-11
-11
-3
-7
-18
-16
-4
-6
-18
-17
-8
-5
-8
-11
-2
0
-17
-12
-4
-11
-18
-17
-10
-9
-4
-10
11
12
3
3
8
12
-2
