-16
-32
-8
-16
-12
-21
-15
-41
-32
-18
-17
-36
-35
-23
-3
-10
-7
-32
-14
-12
-40
-26
-17
2
-8
-10
-21
-9
-23
-21
-23
-10
-12
-12
-4
-28
-15
-22
-28
-18
-13
-25
-22
-8
3
-8
-16
-21
-20
-15
-18
-9
-32
-20
-14
26
-22
-42
-46
-24
-12
-22
-24
-2
-25
-15
-33
-31
-27
5
21
-11
-21
-23
-36
-16
-20
-16
-16
-17
-21
-37
-13
-7
-7
-7
-18
-17
-16
-17
-24
-27
-23
-17
-16
-24
-12
-15
-22
-17
-29
-40
-18
-25
-30
-21
-31
-4
-6
-37
-9
-17
-16
-15
-26
-21
-16
-41
-35
-3
10
-42
-27
-12
-21
-21
-8
-17
-12
-15
-7
-26
-35
-26
-8
-18
-30
-9
-20
-22
-13
-26
-21
-18
-26
-23
-19
-27
-17
-4
-24
-6
-15
-11
-24
-23
5
-4
11
-9
-27
-25
-35
-24
25
5
10
-11
-19
-12
3
-19
-4
12
-10
-31
-17
-27
-31
-19
-3
-24
-22
-24
-25
-2
-32
-24
-7
-21
-17
-5
-16
-30
-17
-20
-29
-11
-20
-39
-14
13
-17
-7
-2
17
3
13
59
38
22
12
3
50
56
20
35
17
12
14
-1
-13
-8
-12
-13
-43
-56
-43
-28
-23
-10
-17
-12
-11
-23
0
-3
-14
10
-5
-19
-23
-2
5
-9
-5
7
-13
-1
-12
20
15
5
-25
-5
-8
-32
-19
7
-3
13
2
-6
-6
3
-12
-1
-2
6
15
5
16
26
9
-16
15
7
2
0
1
25
2
5
5
-1
8
26
6
8
-9
14
25
8
18
36
21
12
12
7
12
20
17
4
9
46
25
34
43
43
33
29
17
39
49
21
43
45
36
55
57
40
53
56
45
45
50
40
49
48
50
72
39
50
81
64
50
40
49
50
55
43
21
60
35
28
45
42
35
43
24
16
39
32
-4
21
33
21
10
2
-1
59
4
10
-22
-21
-1
11
-12
5
4
2
-15
-9
-23
-13
1
3
-28
3
2
-19
-3
-11
-17
4
-6
-9
-22
-11
1
-7
-8
16
-3
-15
1
-6
-6
-9
-23
-11
6
6
4
-4
0
-2
2
-17
-14
4
-17
-8
8
-10
-24
2
-1
2
1
-8
8
14
-7
-12
-10
2
9
-23
-8
10
-3
-9
-6
9
0
-20
-8
3
0
-1
9
21
-5
3
-6
1
-2
15
1
-12
3
8
2
-12
6
0
-10
-7
-7
8
18
-13
-3
-13
16
11
17
5
18
-2
22
-4
-23
16
5
0
5
12
5
-23
-17
5
14
8
-11
7
-9
-3
21
6
7
-3
-2
-1
12
-6
6
-13
-8
-2
1
2
15
18
2
6
12
19
-5
-6
-14
-24
7
7
9
9
5
-6
-2
14
10
16
20
5
-3
21
-4
-4
26
-13
-25
-4
8
0
10
-7
0
27
32
7
-6
-10
19
17
-3
-15
-3
5
-2
-14
-4
5
23
8
8
15
4
10
-4
-12
3
12
43
12
2
14
35
5
-10
3
22
-1
29
22
0
10
23
30
34
9
25
20
21
47
-25
11
12
-5
22
17
9
7
-3
-7
8
9
7
2
-11
13
22
-10
5
18
2
-14
-7
20
19
22
2
-22
-13
34
12
17
10
27
52
54
47
38
41
42
55
58
48
27
47
75
69
33
30
13
14
18
-4
1
-12
-13
-3
-17
-15
8
0
-11
28
12
3
19
13
8
27
29
17
4
23
16
44
13
8
12
16
22
20
38
17
12
33
29
8
6
22
25
24
14
27
7
5
14
16
21
24
19
34
40
47
46
42
32
5
29
22
33
22
29
23
31
47
21
28
25
18
20
56
50
47
47
38
39
56
28
43
38
1
40
38
59
54
51
47
38
52
46
51
51
49
50
56
65
54
80
88
71
88
75
66
70
77
61
64
66
77
80
79
87
68
60
71
70
87
71
73
68
74
56
81
63
52
41
61
57
58
57
49
42
42
39
21
39
33
17
31
34
27
31
44
16
17
11
11
24
12
21
25
28
-8
19
28
27
9
1
33
16
24
27
-2
8
39
-4
-3
-2
-14
-9
-10
19
27
31
35
10
9
-1
9
5
7
23
22
-2
-7
3
15
4
5
21
2
9
1
32
27
19
8
16
22
21
9
-3
29
-8
27
8
16
15
7
8
4
18
61
-16
18
34
13
9
11
4
20
10
16
18
14
8
18
33
-12
7
49
12
14
29
6
13
20
11
10
18
35
7
16
15
10
5
5
27
37
17
7
12
12
25
17
14
38
15
10
6
-10
-14
32
17
11
14
23
24
0
15
7
23
29
20
15
-1
13
-5
5
15
17
27
11
21
34
17
12
2
15
5
-3
7
14
16
41
13
12
-3
9
14
6
0
31
18
26
28
18
9
16
17
6
-8
7
20
27
34
8
19
15
20
32
3
12
7
10
15
-8
3
-4
12
5
10
27
6
7
18
33
16
14
29
0
9
14
10
5
3
2
16
45
27
3
24
29
37
3
11
32
28
21
14
24
31
26
34
17
30
25
11
8
13
37
29
22
11
44
-18
-27
19
13
25
9
3
7
2
7
28
4
31
6
8
26
35
-4
-1
-5
-1
10
4
21
13
14
17
22
52
60
46
70
71
47
47
61
48
39
58
59
38
24
16
17
3
-4
-5
5
-23
-3
-11
-14
-7
-6
18
39
4
22
34
15
44
-3
4
22
15
-3
-10
11
32
23
37
19
21
11
33
11
5
11
16
40
33
22
36
7
11
12
12
20
29
22
32
37
29
24
13
51
27
20
25
30
32
45
34
-3
23
40
36
39
38
26
23
39
35
32
16
49
53
37
31
14
45
43
38
65
59
38
38
46
46
53
42
56
60
70
49
56
45
43
49
62
61
62
61
64
56
85
81
98
78
55
62
48
61
83
74
76
91
65
74
60
59
50
56
62
66
60
59
64
58
70
49
55
61
65
36
49
37
27
44
34
27
19
22
39
37
17
16
6
19
24
15
8
28
6
23
5
1
1
13
5
20
24
11
12
-5
1
19
45
6
-17
-1
14
16
5
-2
10
20
16
-7
19
11
-3
17
1
-6
36
19
14
5
12
3
4
27
-15
-6
31
16
11
18
19
25
6
-10
8
4
14
26
-9
23
0
6
14
21
-3
13
25
11
2
-1
5
6
19
14
17
20
8
15
10
10
22
18
6
9
-4
21
33
32
14
-7
19
26
5
14
7
6
6
2
11
-9
21
13
3
9
3
14
21
10
10
6
3
-8
16
5
17
17
15
0
6
12
26
23
3
20
6
14
2
7
25
16
8
6
21
0
0
8
-6
7
27
0
-12
10
1
2
-6
-9
5
15
19
13
-10
9
6
21
-6
0
-3
6
17
3
14
-1
26
32
24
7
12
7
29
5
11
1
10
13
24
14
31
9
9
14
25
15
22
15
0
3
12
21
13
15
18
16
-9
12
18
13
-3
12
-9
-31
9
19
2
-4
7
16
-6
9
-2
0
-3
13
21
13
24
-9
-3
-2
-3
28
27
21
34
33
36
43
43
49
33
46
40
51
52
68
54
12
25
4
7
15
-34
-18
-35
-2
4
-9
-21
-8
-14
-1
8
15
28
2
5
29
9
6
11
7
22
20
6
19
4
19
7
15
25
23
23
12
28
14
20
9
0
22
13
29
32
21
-9
14
11
19
21
15
7
28
16
29
26
35
22
23
19
38
13
1
21
22
19
29
32
41
38
29
29
23
34
41
30
35
42
49
37
20
19
21
52
41
48
42
39
51
34
47
40
60
45
39
44
50
60
40
37
58
68
67
65
74
80
78
53
62
64
67
67
61
76
64
49
67
72
53
65
55
61
60
53
54
55
47
39
63
42
42
37
52
75
28
29
34
-1
20
24
7
7
23
20
29
11
7
12
17
21
15
23
17
5
7
4
-10
1
-13
-14
10
15
12
1
11
7
3
4
5
3
-8
-4
14
-32
5
-4
15
8
4
14
8
30
11
-26
-8
16
7
-6
4
-1
-1
26
23
12
25
18
-1
10
5
-4
1
1
1
23
18
7
6
5
5
5
1
3
3
-3
17
36
26
-19
18
17
3
-2
-8
8
17
-2
33
9
10
5
4
6
25
13
2
18
24
18
18
-9
-4
18
23
-13
1
39
9
1
16
20
0
3
8
3
2
-18
-3
7
9
11
9
14
15
14
10
10
10
2
20
19
-12
9
-23
40
12
4
2
-3
11
9
3
14
9
2
1
23
11
19
20
15
-4
10
6
4
5
18
6
-9
18
12
5
13
8
-7
0
20
5
-13
11
8
9
3
14
13
20
5
18
23
17
19
22
-21
-12
15
11
-10
-6
17
27
22
23
28
26
37
8
23
15
16
6
18
11
20
15
33
23
5
21
22
12
11
4
3
21
18
-9
7
34
6
18
8
4
10
4
-16
-1
17
19
5
19
13
2
-2
14
11
8
1
-15
15
6
10
33
39
45
53
48
42
71
49
44
56
53
50
45
78
45
51
26
3
17
33
9
-9
-19
-9
-1
-6
-13
3
17
6
15
22
42
16
11
13
10
14
10
4
36
10
22
42
5
-3
11
18
26
18
29
-3
19
25
38
25
32
39
31
23
31
15
40
14
31
20
15
34
15
18
21
12
53
37
32
35
38
30
26
40
35
24
25
48
20
35
34
39
36
44
38
17
16
34
46
53
42
58
35
42
42
45
60
46
57
75
58
49
56
67
57
61
53
73
66
65
65
67
57
63
57
73
69
73
100
31
80
66
82
92
79
76
67
87
54
38
68
81
93
78
63
85
65
73
71
48
42
37
41
45
43
54
31
28
29
33
33
31
25
29
22
28
18
35
14
8
33
13
10
5
2
21
14
29
16
-2
15
7
12
24
11
5
23
21
37
20
-15
23
-3
-15
9
9
17
19
18
25
13
18
10
8
13
8
9
5
23
14
19
26
19
14
14
7
4
0
9
33
39
23
-11
14
20
11
1
23
12
7
7
8
44
33
22
2
22
3
14
13
-4
12
2
10
28
20
20
23
22
20
20
10
21
7
22
23
6
16
26
22
8
9
8
12
47
12
8
31
17
-3
6
16
23
5
42
7
23
13
23
29
5
-8
29
33
19
10
21
13
3
12
11
7
13
29
15
9
10
10
12
33
23
10
12
0
9
10
6
15
20
35
7
2
10
9
7
16
10
22
7
15
9
43
9
34
21
16
2
0
16
10
11
18
35
17
28
15
-2
-4
1
9
12
16
11
0
18
16
22
24
22
5
18
11
11
13
23
21
9
23
19
21
25
8
35
11
11
39
30
2
26
27
25
18
7
23
42
24
7
23
9
-6
13
7
13
24
25
-1
18
19
19
1
2
2
-9
5
22
-4
18
0
28
16
6
2
20
29
33
69
63
58
67
54
51
45
50
54
56
58
54
53
31
8
19
24
-2
-1
-20
-11
-16
3
7
11
20
22
28
23
37
17
7
19
20
13
14
7
22
24
19
22
33
17
29
12
-3
20
32
45
34
15
17
38
27
8
21
29
20
14
18
26
19
55
41
18
11
6
23
31
46
35
19
41
30
21
22
40
39
29
9
66
32
43
34
47
28
30
29
34
57
34
27
56
57
61
64
61
48
41
40
47
61
56
56
64
48
73
73
79
56
58
50
65
85
81
81
87
71
76
75
60
70
110
90
72
81
62
54
53
49
58
81
95
44
51
46
63
49
39
49
63
31
32
43
36
21
24
25
34
29
17
15
29
26
24
4
7
10
-8
28
24
16
9
29
12
-6
26
14
0
8
11
4
18
15
10
-3
19
4
12
8
9
33
20
38
10
2
13
3
0
-4
-6
10
7
15
27
17
19
-8
-1
-9
11
2
-3
18
6
-8
24
41
-2
-4
6
-2
16
17
7
15
29
17
29
19
14
10
6
2
-5
38
19
8
4
9
2
18
23
3
9
8
18
12
10
12
10
3
15
30
15
17
21
-1
9
13
10
20
12
0
-3
4
-1
18
18
-5
26
17
24
9
-11
33
10
-9
10
19
-2
8
4
10
12
22
15
7
21
-1
11
20
4
14
1
-3
-2
9
15
8
19
11
-9
0
-4
2
6
22
21
-14
14
8
-5
5
8
-3
4
25
3
21
17
4
27
10
2
9
18
16
4
8
21
9
36
22
25
23
5
12
46
24
11
5
17
6
6
4
10
7
8
22
3
13
8
-7
-11
3
8
-11
-6
10
-23
-7
10
13
9
2
0
7
14
2
30
14
-4
1
11
26
58
43
46
44
40
34
49
38
44
75
72
62
39
39
8
2
-16
2
-7
-8
-27
-16
-19
-15
-11
-1
-8
-19
11
18
0
7
19
-8
10
15
19
27
18
11
4
27
18
11
19
17
10
-9
-12
7
37
12
40
43
7
26
7
17
7
2
10
-2
19
57
32
28
39
37
14
18
24
14
14
14
11
9
17
25
9
25
26
34
22
31
28
44
21
34
34
39
36
29
28
33
29
42
60
34
46
45
39
43
41
49
50
38
28
59
25
55
31
52
61
58
50
85
66
57
58
65
74
60
60
67
64
54
44
64
63
67
65
61
61
63
63
55
57
64
57
54
48
51
68
52
33
19
26
26
35
5
2
21
35
19
28
-11
-7
33
17
7
12
14
9
13
-16
-2
12
11
21
20
-6
-4
-11
-1
-1
4
-5
10
11
0
-7
6
-1
1
-11
-14
8
-5
26
-2
-32
-4
-13
-18
-2
13
9
-1
-41
-9
12
3
-1
-5
10
7
7
5
-3
7
21
-2
-11
0
1
-1
38
-13
-6
-4
-8
-4
0
-8
5
-1
-9
1
22
13
-6
-8
-3
-4
10
-3
8
1
-1
7
-7
7
-6
9
-1
7
7
1
2
13
-7
-8
5
-9
11
12
-8
-12
7
-10
-9
7
-2
-8
0
16
-1
19
-6
-8
-8
-3
-6
-1
-25
-6
10
6
-3
-8
-8
1
2
2
6
5
-19
-5
11
-1
3
8
-10
-6
-5
-7
-5
-9
0
-2
0
-13
15
3
-4
-3
-6
-12
5
-18
-20
-14
-3
-6
0
23
-16
1
-3
-7
-14
-13
-7
-12
-15
-13
-6
-12
9
-4
8
14
-1
8
-1
0
-4
-20
-23
-1
0
-4
0
-5
-14
-8
9
5
-9
12
12
-7
-9
11
15
-6
-9
-5
-4
12
-6
-5
12
6
17
-11
-3
25
-14
-13
7
10
7
7
-18
-20
-23
-7
-17
-5
-7
-1
-8
-2
-1
-7
-4
18
-5
-7
-10
-13
-8
-26
-11
-11
-4
-10
-10
-8
-5
-2
7
17
35
29
43
44
29
38
29
41
44
41
32
51
56
21
-6
9
-23
-13
0
-6
-21
-40
-14
-2
-18
-30
-7
0
-6
-29
-4
1
-10
-9
2
5
23
-6
-17
0
11
-14
5
2
8
3
2
-2
4
-10
2
3
2
17
25
3
-7
1
0
-24
0
28
23
18
-2
3
8
17
7
3
8
11
18
6
5
14
6
10
9
1
12
16
18
18
16
16
16
-6
-13
8
27
25
5
51
40
9
24
20
16
24
16
32
20
28
41
26
63
49
42
39
31
57
53
53
36
55
55
61
37
47
44
52
44
56
39
49
45
43
51
52
48
50
70
51
45
60
57
50
55
27
26
34
26
27
28
18
26
20
22
30
42
7
10
10
-11
6
26
-15
-25
-9
-1
-15
0
-13
-5
-7
1
0
-1
-20
-26
-43
-9
-23
-3
2
-8
1
-2
4
-12
-9
-7
2
-8
-15
-18
-28
6
-8
-14
-23
-26
-26
-13
-10
-22
-10
-11
1
11
-7
-16
-5
-13
-11
-25
-41
4
-23
-4
-13
-26
-16
-8
-7
-22
-26
-4
6
-37
2
-28
28
-21
-21
-11
5
-9
-15
-3
-5
0
-22
-18
-5
0
-5
-24
-7
-25
-6
-3
-15
-6
-5
-5
-31
-24
3
2
-24
-10
-1
0
-4
-14
6
21
-3
-19
-16
-2
-9
-15
-15
-26
-23
-13
-22
-16
6
20
-6
-18
-11
-2
-17
-30
-18
-11
-3
-2
-24
-25
5
1
-12
2
-6
-13
-18
-16
-17
-12
-20
-25
-21
21
-30
1
-14
2
-30
-5
-12
-13
-27
2
19
-20
-12
2
-24
-16
-14
-42
-31
-5
-1
-20
-6
2
-10
-26
-26
-25
-25
-18
-26
-12
-1
-14
-12
2
5
-18
-39
-6
-1
-9
6
-11
13
-14
16
-18
1
-24
-27
-6
4
5
-10
-27
5
-6
-7
-15
13
-10
-13
-10
2
8
0
-12
-25
-12
2
10
-10
-10
-16
-23
-16
0
-6
-12
-19
-15
-27
-20
-7
-9
-22
-34
-7
-4
-15
-7
7
13
-24
-14
-16
-21
-16
-41
-22
15
4
-11
32
30
32
42
53
36
18
32
33
26
33
8
-1
9
8
-29
-28
-8
-18
-23
-36
-20
-36
-17
-28
-6
2
-9
-12
3
0
4
-3
-3
-1
-16
-7
-15
0
-8
-25
-11
1
-2
-5
-11
9
-5
-5
4
-7
-7
-8
2
6
-11
-20
-20
7
-7
-15
-7
1
5
8
12
22
7
6
-2
-7
-2
-14
-1
3
3
21
25
-8
-6
5
6
9
5
36
14
9
-5
5
8
43
9
10
15
-2
20
26
26
21
17
29
30
33
11
36
39
32
32
50
50
31
43
60
34
14
31
26
43
44
51
32
48
61
63
41
67
64
25
40
36
29
58
48
44
55
46
32
47
39
35
40
36
46
27
25
40
43
-13
-6
-3
-4
7
6
6
-1
-6
11
-9
-15
-9
-12
-4
-21
-20
-16
-4
-16
-22
-13
-8
-9
-9
-8
-16
-15
-6
-21
-25
-22
-14
-15
-14
-5
-12
-30
4
-23
-29
-23
-11
-23
-30
-8
-9
-22
-21
-30
-17
2
-42
-21
-8
-9
-9
-15
-27
-37
-27
-20
-15
-2
-15
-6
-14
-11
-6
5
-10
-24
-15
-28
-1
0
-8
-11
-21
-22
-16
-15
-13
-1
-16
-14
-15
-3
-11
4
-8
-24
-24
-8
-18
-25
-8
-19
-14
-12
-13
-8
-5
-4
-25
-7
-9
-22
8
-18
-10
-11
20
-22
-38
-11
-6
-16
-25
-19
-23
-1
11
-9
-10
-16
-11
-14
-17
-10
-28
-10
8
-1
-18
-24
-15
-13
-19
-16
-8
-14
-4
-14
-9
-24
-19
-7
-21
-14
-15
-15
-17
-9
-29
-35
-16
-12
-11
-24
17
-33
-27
-7
-20
7
1
-2
-31
-20
6
-5
-18
-20
2
9
-12
-5
1
-1
1
-7
-10
-6
3
-2
4
-5
12
11
19
-7
-14
-8
-13
-18
-15
-30
-19
-7
-12
-20
-20
-13
-2
1
-15
-14
-25
-21
9
-3
-40
-25
-33
-16
-20
-14
-10
-2
-7
0
-21
-7
-1
-5
2
34
13
38
37
20
7
23
30
27
30
27
19
15
32
-1
-18
-19
-29
-41
-42
-38
-34
-23
-31
-37
-32
-21
-6
5
8
-7
-6
0
-1
-12
-21
-10
-1
0
2
-4
-10
8
15
-7
-18
8
-2
9
0
3
19
12
-4
-9
-12
-20
19
3
4
0
21
10
12
-8
-22
-3
29
-15
-2
26
9
3
22
16
19
20
9
23
9
2
22
21
19
3
11
0
16
14
40
20
33
28
38
36
51
26
3
12
34
25
29
29
33
27
36
58
26
21
37
32
38
48
63
45
43
40
36
51
56
41
63
70
62
76
61
43
64
50
42
62
66
61
68
42
43
40
71
51
39
44
67
40
22
21
40
43
31
18
20
24
11
3
2
19
23
9
10
6
12
13
-9
6
5
-13
-29
14
17
-4
10
8
-13
-4
5
13
13
12
10
-13
-8
15
-2
6
-12
-1
0
-4
2
-4
-16
15
-3
-2
3
6
-8
-37
-26
16
21
-9
-14
7
5
2
8
0
16
4
12
15
-20
-13
4
4
8
-1
0
17
-16
13
18
4
-16
17
20
12
-6
-24
14
10
-9
10
20
12
-1
11
-12
-34
29
2
11
13
12
-4
13
17
20
-8
5
11
20
-4
-18
-7
-9
7
8
21
6
20
18
10
7
0
-5
8
22
11
-14
-32
-3
16
25
19
13
8
-2
-23
-12
12
5
16
-12
-33
28
19
8
5
36
-15
14
-22
5
7
11
-5
0
-8
-8
-3
20
7
12
16
-6
6
-1
19
12
15
16
23
4
9
11
0
9
14
10
17
12
40
17
16
34
-2
-7
25
11
20
-3
5
31
12
12
1
3
6
-15
4
-4
8
-1
13
-2
10
11
-6
11
3
11
18
-3
6
1
1
-2
-11
-13
9
-4
2
-4
31
48
29
46
38
42
51
47
45
44
46
49
49
70
52
41
18
12
20
-1
10
11
-22
-44
-1
-10
1
-2
7
25
14
12
23
14
10
27
23
1
-9
9
7
15
12
7
5
4
13
10
26
19
2
-6
-3
13
12
33
-2
23
19
11
6
24
3
16
12
26
18
22
26
18
26
33
27
20
19
18
-1
-5
36
47
36
10
29
30
15
26
28
18
24
21
29
32
35
31
26
7
27
40
-2
14
56
40
13
21
58
36
57
79
49
48
51
39
44
38
54
60
59
43
74
79
71
63
50
55
57
56
57
60
57
58
71
83
52
62
72
68
48
55
35
71
50
35
49
14
40
14
30
51
24
51
46
25
26
24
22
24
4
1
19
14
10
9
-3
20
28
-1
18
-10
-11
4
-21
-6
-6
8
-6
-5
7
-8
-7
-3
0
2
5
-8
-8
-13
-21
-9
1
13
-1
-16
-17
-19
12
5
-15
-11
-9
-10
7
-1
0
12
9
-13
-23
6
-20
-9
6
2
7
-6
5
-3
10
7
-28
1
17
-11
7
-14
-8
-8
-8
-1
-6
-3
5
0
-18
7
-8
-11
7
-6
-7
1
-7
-9
9
-2
0
-3
-7
-8
28
5
-19
-3
8
8
7
-1
11
-2
-5
-15
-10
-4
-22
7
10
10
0
-5
-4
0
-13
-21
37
-33
27
-12
-12
5
-8
-1
11
-6
-4
-13
-13
-1
5
-39
-2
22
-8
9
1
-9
-14
-5
-3
-24
-2
13
-9
-8
8
-1
5
5
-1
1
-5
-2
-18
4
-12
1
6
-11
12
-5
-2
-4
-11
7
17
25
8
2
-6
-1
-17
-27
-20
3
-12
-4
12
-3
-5
14
5
5
-2
-4
13
0
-14
8
20
19
34
3
9
-7
9
18
-8
4
-1
2
-6
4
-14
-1
6
-1
-4
-4
-1
-13
1
5
-23
-5
-6
4
-1
-3
3
8
-13
-10
14
-12
-9
-11
-9
1
3
10
-11
-3
55
52
52
57
52
49
30
41
36
50
55
35
41
26
0
7
-20
-13
-9
-18
-22
-29
-21
-7
-23
-2
1
-2
-7
3
15
5
10
7
-5
7
5
16
8
4
5
-1
11
-8
3
7
7
12
-4
18
24
8
18
4
3
-2
0
-6
-8
31
19
8
11
22
25
8
15
15
23
0
1
26
18
-2
6
4
13
8
23
13
6
42
38
9
9
43
28
24
23
28
28
36
28
50
24
43
45
29
25
46
24
29
31
25
58
42
34
33
41
51
58
64
37
71
71
39
40
51
56
47
54
60
62
57
54
57
65
52
70
62
60
52
54
56
66
47
65
71
44
47
47
49
53
50
33
14
14
26
20
19
5
0
11
33
8
0
13
7
15
-10
-7
20
4
0
-13
-3
6
5
0
-24
-19
11
11
-4
11
-13
17
-7
-7
-7
-3
5
-7
-14
-4
-11
6
14
-16
-1
-12
5
12
-18
-26
10
6
23
5
10
-8
-12
-20
-10
2
6
-6
-14
-17
-1
17
-6
-11
10
24
1
-2
14
12
-24
-41
1
15
-18
6
1
9
4
-11
3
9
6
12
-6
3
9
-13
16
14
2
9
11
19
-19
18
4
10
11
-3
-3
12
-15
12
8
10
-1
1
-8
-9
1
-8
29
16
-25
6
0
-7
7
-6
1
-8
-21
-17
-5
11
2
-13
-12
9
32
3
19
22
-14
0
22
13
35
5
15
9
9
17
17
-14
4
14
10
5
17
24
10
-7
7
1
-21
12
17
19
12
3
21
0
-13
11
20
10
24
11
23
23
16
-4
-14
-13
6
41
24
-4
3
5
15
12
13
-1
39
34
1
19
25
11
16
12
6
10
7
23
18
13
24
35
16
22
18
23
29
27
2
28
29
23
26
30
46
28
20
21
28
3
31
17
10
28
16
7
20
1
-1
-3
26
48
-6
5
26
23
30
18
13
-4
7
17
13
14
11
23
4
4
9
16
19
2
8
32
40
47
55
85
87
45
63
60
65
56
54
84
85
96
54
24
19
38
-7
26
18
-12
-1
-19
3
15
3
33
13
22
-4
27
34
18
19
28
38
19
15
15
39
37
23
33
24
22
24
17
24
37
28
23
36
21
37
44
35
34
37
47
45
38
36
37
48
46
36
16
33
28
33
73
26
49
46
39
52
33
48
49
50
55
65
27
53
45
31
52
47
54
48
43
50
56
61
59
60
49
51
69
59
58
70
52
72
64
65
73
72
102
60
85
89
82
70
78
103
96
80
84
97
91
80
69
78
76
91
89
107
88
107
67
96
96
86
95
79
79
86
94
81
70
62
65
73
76
67
62
67
62
65
68
42
41
44
43
37
36
43
25
29
33
55
27
26
53
7
11
9
48
29
29
27
20
16
26
22
21
24
9
11
48
33
-5
28
36
2
28
15
10
10
22
8
32
20
18
32
9
13
17
11
17
13
12
9
25
20
24
8
25
27
29
12
25
6
8
34
25
24
19
12
31
40
11
20
19
14
-1
20
25
15
17
19
25
30
14
27
29
22
10
8
12
22
31
15
15
22
20
20
36
48
6
15
26
10
-5
15
20
23
31
10
5
36
23
3
27
12
6
31
30
-4
-1
16
26
16
23
11
-6
11
35
23
24
17
19
24
3
4
18
18
10
10
6
10
30
-5
3
3
17
1
9
10
3
37
30
12
-1
15
2
30
31
-7
10
21
-4
9
4
12
12
31
31
20
22
29
21
18
17
14
17
14
8
35
32
8
36
21
20
13
-1
-36
40
10
5
-14
20
6
9
3
18
15
14
-9
-1
-2
13
-17
-5
7
14
30
23
9
1
8
24
10
14
13
26
52
32
62
52
60
37
52
51
52
59
65
54
44
20
6
4
21
-21
3
-3
-27
-37
-19
1
5
7
-7
5
4
30
18
20
6
21
13
-5
19
16
22
36
20
5
10
19
33
6
20
21
14
31
5
29
42
37
28
-2
4
25
20
23
7
0
22
29
47
47
1
9
4
25
37
13
30
24
22
16
26
36
14
35
17
33
25
40
28
32
19
41
49
32
40
42
22
37
36
29
42
38
63
50
21
51
47
52
50
47
48
49
47
38
43
73
61
70
59
62
62
62
68
66
52
68
74
76
50
60
54
67
58
78
74
75
56
55
44
59
63
92
59
57
63
48
49
44
44
35
45
39
20
36
1
47
16
21
21
27
43
11
-3
1
7
2
21
9
24
8
18
11
9
-8
-18
-10
0
15
34
-18
18
22
6
1
18
6
7
1
5
1
8
-9
-3
8
21
-10
-20
5
4
-3
6
3
2
0
3
3
1
4
10
-1
6
5
19
7
-3
-3
2
8
-4
23
1
-4
8
11
10
11
9
2
6
8
4
27
1
-5
18
4
4
13
5
12
-3
-8
18
17
2
5
-9
18
22
9
4
-4
6
2
14
15
1
28
-11
-9
-9
14
20
6
13
2
2
7
2
0
22
25
22
-16
5
24
10
-12
-2
4
7
3
8
-4
-13
-1
-18
-11
11
11
37
24
8
16
15
-3
24
18
-6
9
8
18
13
17
-6
29
16
28
23
10
14
14
4
1
-2
11
0
9
7
-11
-8
-6
4
2
34
9
6
2
3
1
-12
-3
-1
-14
13
1
-15
-3
3
11
-30
8
10
20
20
50
29
36
35
45
38
57
67
38
33
41
55
70
54
23
22
15
5
20
13
-6
-7
-33
-32
-22
-23
-12
-4
15
27
9
15
6
11
39
1
18
11
-17
-11
19
-3
25
31
4
17
15
10
7
21
14
13
13
15
7
8
12
28
-2
8
9
-6
11
15
-2
17
60
0
17
12
33
14
20
45
37
20
9
39
22
24
32
26
9
24
33
29
17
25
30
23
21
46
15
31
24
42
45
15
36
53
34
44
43
25
50
25
59
42
54
41
26
30
41
45
41
41
56
85
85
68
51
67
63
65
68
63
82
49
61
25
62
61
58
84
71
50
57
62
56
41
55
65
52
67
25
32
34
23
12
-2
6
26
15
25
33
22
24
7
6
2
5
1
10
7
2
-13
-13
-3
-1
-9
5
17
26
-13
-2
-5
7
-10
-2
5
-2
-1
3
-4
-10
-3
4
-23
-8
19
3
-9
-5
-2
-3
18
-13
-9
16
12
-20
-18
-10
-10
17
-16
5
4
-9
6
1
4
11
-17
-1
3
-9
-15
4
-17
-12
9
13
12
4
12
-10
-4
1
0
8
0
-23
4
-1
5
-6
1
-2
-5
9
24
-9
-6
-15
4
10
-11
19
-17
-7
-29
3
34
-14
-7
4
17
7
11
9
-15
-11
-11
9
-9
-15
-19
-1
0
-3
-4
2
-10
-32
-2
15
-21
7
7
3
8
-5
17
-6
-2
-5
-5
-7
-5
0
-13
-3
-7
-2
0
-12
10
2
-39
-9
17
-6
-9
6
-3
-20
0
9
6
-9
0
4
-1
7
20
-1
13
14
-13
-4
3
4
-9
-16
5
13
-11
-8
-7
-4
6
-5
4
-8
-15
-9
-2
-5
-12
-27
-16
6
-21
-1
-14
-29
-24
-5
-5
14
6
-9
4
12
-6
5
23
33
37
37
51
41
35
35
28
36
41
42
22
12
-18
-21
-2
23
9
-21
-14
-26
-30
-24
-22
-21
-10
-7
-7
-21
-11
-21
-6
-3
0
-16
-4
29
15
-11
-9
5
0
16
8
11
0
7
0
-5
2
-13
-27
-5
41
26
13
-12
-4
1
-7
-20
-6
13
-15
10
-15
2
11
18
12
-15
3
1
38
-15
-2
14
15
7
3
-2
19
2
25
18
14
21
18
16
16
20
12
17
22
15
25
37
24
16
16
31
28
20
37
28
33
33
35
39
34
19
42
44
23
37
41
51
56
64
26
26
53
60
39
45
70
32
33
42
64
38
27
64
32
25
39
40
39
44
24
17
22
24
41
31
15
11
13
20
6
-2
12
14
6
-33
-21
-5
-2
-7
-9
-15
-23
-4
-26
-26
-26
-7
-12
-13
-8
-19
-22
-22
2
3
8
-25
-25
-18
-44
-10
-24
-15
-18
-24
-19
-14
-5
-17
-27
-27
-25
-12
-19
-10
-18
-30
-12
-16
-20
-10
-19
-28
-28
-17
4
-20
-16
-23
-27
-19
-15
-12
-14
-6
-14
-31
8
-1
-37
-21
-38
-18
-18
0
-14
-14
-1
-10
2
6
-24
-21
-33
-42
-13
-19
2
-12
-13
-25
-8
-19
-34
-12
-15
-7
-18
-20
-30
-13
-12
-23
-26
-30
10
-27
-31
-23
-21
-14
-20
-15
-4
-3
-26
-38
-21
1
-24
-16
-11
-17
-12
-13
-19
-14
-26
-27
-14
-25
-25
-18
-22
-29
-24
-20
-14
-28
-19
-26
-31
-23
-17
-20
-31
-19
-17
-14
-31
-17
-29
-6
-15
-20
-32
-19
-21
-41
-18
-24
-21
-6
-20
-31
-33
-35
-30
-12
-24
9
-12
-8
2
-15
-7
-4
2
5
-20
-39
-35
-6
-1
-11
-16
-1
-37
-30
-8
-45
-33
-28
-43
-11
-17
-36
-32
-17
-25
-22
-12
-48
-23
-32
-14
-18
-29
-20
-25
-40
-22
-21
-11
-18
-38
-29
-23
-4
9
18
30
39
18
29
36
37
13
17
33
8
4
-20
-37
2
-4
-9
-26
-46
-43
-39
-44
-51
-34
-17
-21
-55
-3
-12
-30
-44
-11
-25
-18
5
-3
-17
-39
-12
-16
-24
-28
-22
-19
-11
-8
-21
-12
-15
-19
-1
-13
-21
-21
-26
-20
-9
-10
-2
-3
-10
-5
-11
1
-2
-27
-2
31
-26
-10
-18
9
-12
-11
-7
-31
-4
-3
18
2
-8
-15
-3
-4
-5
0
10
2
13
-8
-8
4
-3
0
15
17
23
-2
-11
14
14
13
21
20
23
23
31
37
22
11
12
21
14
35
26
12
10
36
36
56
45
46
59
10
30
43
18
32
28
26
34
32
24
34
24
11
11
22
40
33
14
13
12
11
6
2
8
15
6
-14
-23
6
-23
-17
-11
-14
-18
-30
-32
-26
-6
-20
-17
-10
-32
-36
-25
-19
-29
-35
-27
-47
-10
-24
-31
-8
-4
-57
-28
-27
-21
-35
-30
-28
-38
-45
-28
-39
-35
-30
-27
-24
-40
-17
-14
-36
-33
-31
-29
-29
-17
-21
-43
-33
-28
-22
-27
-12
-20
-29
-47
-52
-38
-11
-41
-21
-13
-15
-30
-35
-38
-25
-42
-18
-35
-31
-32
-9
-27
-40
-11
-31
-17
-11
-21
-33
-25
-19
-44
-36
-22
-24
-26
-24
-25
-28
-33
-29
-27
-35
-22
-15
-19
-43
-28
-25
-31
-36
-36
-38
-27
-16
-6
-23
-46
-31
-37
-33
-44
-51
-35
-9
-26
-23
-34
-30
-25
-18
-30
-33
-31
-32
-27
-39
-41
-18
-18
-15
-7
-28
-45
-40
-32
-44
-36
-27
-22
-47
-56
-49
-15
-24
-18
-23
-25
-38
-20
-39
-39
-38
-30
-25
-26
-22
-14
-14
-18
-14
-23
-20
-22
-32
-13
-19
-40
-24
-27
-30
-37
-51
-18
-30
-27
-28
-26
-38
-36
-35
-49
-40
-44
-47
-45
-30
-28
-36
-50
-48
-33
-31
-52
-37
-29
-22
-25
-31
-38
-38
-20
-39
-17
5
7
43
11
-16
-7
-7
-14
1
11
31
12
-6
-34
-26
-39
-58
-66
-49
-76
-61
-42
-40
-54
-46
-55
-33
-39
-43
-35
-10
-26
-42
-52
-35
-25
-41
-16
-35
-7
-29
-22
-27
-24
-24
-39
-19
-21
-38
-39
-42
-17
-23
-49
-24
-17
-17
-41
-27
-22
-20
-29
-6
-35
-27
-5
-24
-36
-41
-9
-24
-27
-6
-8
-22
-20
-13
-25
-28
-18
-30
-31
-5
-22
-7
-7
-15
-28
-8
-15
-9
-4
-9
-6
-9
-5
-4
13
1
-15
-16
-9
-3
-9
-16
-3
2
10
36
33
7
-5
10
22
5
19
26
32
45
2
11
13
21
12
5
35
24
18
11
18
27
36
32
9
23
13
9
1
20
-2
-1
-10
-2
-3
-11
-25
-28
15
-7
-7
2
-48
-42
2
-4
-25
-39
-33
-29
-34
-28
4
-35
-43
-53
-51
-44
-29
-34
-26
-28
-36
-39
-45
-44
-39
-43
-56
-41
-48
-30
-27
-29
-31
-30
-40
-49
-53
-71
-42
-34
-42
-50
-25
-55
-62
-10
-13
-25
-45
-26
-13
-84
-46
-49
-39
-44
-30
-40
-50
-10
-36
-45
-39
-50
-47
-44
-31
-16
-45
-24
-50
-54
-29
-39
-29
-28
-38
-35
-30
-22
-20
-37
-31
-26
-54
-41
-48
-46
-46
-35
-18
-55
-33
-21
-50
-36
-55
-49
-16
-27
-62
-52
-43
-48
-54
-50
-28
-26
-24
-33
-39
-34
-39
-23
-27
-56
-37
-46
-32
-28
-33
-48
-39
-38
-60
-41
-39
-45
-62
-38
-32
-42
-57
-50
-24
-44
-33
-27
-54
-33
-37
-45
-43
-38
-42
-39
-36
-45
-54
-33
-39
-60
-52
-29
-27
-32
-21
-58
-47
-43
-43
-45
-42
-37
-58
-47
-29
-32
-30
-55
-26
-21
-42
-20
-45
-26
-24
-35
-24
-38
-39
-49
-42
-29
-14
-47
-23
-22
-53
-49
-67
-49
-35
-33
-26
-32
-28
-46
-59
-41
-46
-63
-56
-35
-36
-47
-61
-57
-37
-28
-52
-45
-43
-46
-39
-48
-31
-32
-14
25
-6
14
0
-9
1
1
5
6
3
2
-1
-22
-29
-28
-33
-66
-35
-40
-50
-66
-58
-68
-57
-48
-41
-43
-44
-30
-35
-47
-34
-34
-42
-43
-26
-28
-44
-41
-34
-41
-30
-42
-31
-24
-51
-27
-30
-34
-30
-34
-13
-32
-37
-28
-28
-14
-26
-33
-48
-19
-16
-32
-28
-27
-27
-32
-61
-27
-28
-22
-39
-41
-29
-23
-34
-31
-19
-24
-31
-28
-21
-30
-31
-21
-4
-24
-11
-21
-12
-12
-21
-9
8
-26
-16
-7
-13
-10
-1
1
-4
-9
-2
0
-2
17
-8
3
16
11
9
-3
5
9
-2
-1
9
7
3
11
27
16
24
6
16
18
22
20
7
17
13
21
2
25
7
4
0
9
5
23
6
-14
-13
2
-2
-11
-16
-15
-15
-15
-38
6
-9
-46
-30
-35
-58
-36
-49
-52
-32
-7
-41
-46
-34
-35
-46
-36
-32
-58
-59
-33
-39
-51
-42
-32
-60
-60
-28
-15
-19
-52
-43
-42
-44
-52
-43
-48
-38
-37
-32
-36
-43
-31
-43
-35
-29
-40
-39
-38
-37
-38
-53
-49
-58
-62
-41
-26
-28
-28
-28
-25
-25
-41
-15
-6
-53
-53
-59
-37
-21
-17
-22
-25
-47
-46
-37
-27
-24
-27
-30
-32
-28
-18
-37
-34
-28
-38
-33
-36
-31
-31
-38
-51
-44
-23
-41
-42
-31
-27
-33
-38
-40
-23
-31
-35
-39
-33
-34
-29
-29
-36
-32
-26
-48
-45
-41
-14
-40
-36
-29
2
-30
-43
-38
-43
-39
-26
-39
-52
-45
-23
-44
-42
-28
-32
-43
-34
-29
-27
-17
-42
-38
-34
-42
-34
-34
-22
-24
-25
-29
-36
-34
-32
-39
-32
-57
-48
-45
-31
-20
-21
-32
-36
-10
-17
-14
-17
-33
-13
-14
-17
-21
-17
-32
-24
-21
-25
-25
-25
-37
-24
-17
-28
-24
-30
-39
-19
-20
-42
-50
-38
-23
-33
-21
-24
-27
-39
-27
-24
-27
-40
-61
-30
-33
-40
-31
-26
-41
-49
-19
-7
-35
-55
-22
-25
7
21
12
1
1
18
24
19
18
-1
8
13
19
2
16
-10
-8
-10
-25
-35
-35
-51
-46
-52
-62
-39
-38
-31
-28
-35
-25
-22
-24
-16
-26
-24
-15
-12
-21
-23
-41
-36
-14
-33
3
6
0
-28
-26
-11
-33
-5
-15
-20
-33
3
10
-3
-21
-21
-10
-14
-14
-8
-8
-5
-20
-13
0
10
-3
-12
-28
-11
-15
-18
2
0
-2
2
-5
-5
-1
-18
1
27
-3
-19
-6
6
3
3
23
14
3
-13
13
15
3
22
15
9
47
8
21
38
25
24
20
25
25
21
23
21
23
34
14
16
9
73
54
26
50
50
44
48
28
28
10
39
38
39
49
76
69
39
14
32
39
33
46
13
20
26
19
25
26
6
19
3
33
12
4
-2
-3
-12
-8
8
-7
-4
-26
-17
2
-5
-7
-15
-18
-9
-17
-16
-35
-37
-31
10
-17
-14
-19
-25
2
-11
-29
-12
-14
-22
-31
-22
-20
-34
-28
-12
-18
-14
-4
4
-41
-24
-12
-29
-21
-20
-31
-18
-15
-12
-14
-28
-25
-20
-35
-20
-15
7
-8
-3
-13
-20
-14
-23
-6
-20
-19
27
-17
-6
-10
-14
-21
-18
-16
-12
-20
2
5
-24
-24
-15
-29
-20
-6
-13
-8
-4
-12
-14
1
-15
-19
-24
15
-10
-28
-13
-29
-26
-23
-16
4
-14
-8
9
-3
-24
-21
-25
0
-18
-4
-9
-5
-23
-3
2
-16
-12
-15
9
-3
-2
-20
-18
-4
-6
-31
-16
-19
-22
-1
12
-17
-14
-3
-14
-30
-13
-10
-6
-5
-7
2
1
8
-1
-39
-23
-23
-20
-17
-28
-10
7
1
4
-20
-17
-4
0
-20
-5
-29
-19
-5
3
-2
11
10
-11
-6
9
-6
-10
-4
-6
0
4
18
6
8
-8
7
36
-25
-10
-10
-15
-29
-8
-1
4
-11
0
-15
-9
-11
-1
-4
11
9
-47
-21
-7
-20
-24
-14
-13
-19
-2
-12
-18
3
-1
-14
-20
-18
16
4
37
47
45
40
49
60
-3
8
17
32
44
32
21
21
7
3
-23
-23
-34
-14
-36
-50
-55
-26
-15
-18
-6
-5
-14
-6
4
12
-8
-17
-4
1
-7
-10
13
-17
0
22
5
5
3
7
-3
1
-8
-4
1
3
3
1
14
-6
1
0
34
19
12
29
11
2
5
-3
-1
2
20
27
16
23
10
22
17
30
17
-22
-8
8
14
11
7
22
24
26
19
10
25
22
23
19
18
23
28
28
18
25
25
22
41
33
50
33
40
46
28
41
43
27
35
50
51
63
16
40
48
60
60
65
49
55
55
50
34
57
85
74
27
33
52
25
38
32
48
41
48
51
37
36
30
29
43
26
31
23
20
22
25
21
30
12
11
34
0
14
6
13
-6
6
4
-7
10
-6
-6
4
-5
2
-6
11
-1
-15
-14
2
-13
-8
8
-15
-7
-22
-12
4
0
2
-23
-18
-16
-2
-4
-10
-9
-4
-20
-20
-14
18
-1
8
-13
-6
-18
-8
0
1
-4
-1
-6
-18
6
19
10
10
-20
-13
-18
8
-29
-14
1
7
1
5
14
8
-4
-3
-14
-17
6
4
5
-14
16
8
-20
-8
-7
-8
-10
16
-7
-27
-4
13
8
10
-14
2
-13
-11
-11
-21
3
-4
-24
-1
2
-7
-17
-22
6
1
2
-10
-10
8
12
13
21
-13
5
-2
-2
3
-2
-12
-2
-7
-6
-4
10
-33
-11
0
-19
-20
-9
4
1
-8
-35
-4
-19
-7
-16
-24
-11
2
-5
-6
3
-1
7
6
-4
-3
-12
13
10
6
5
-16
24
36
41
21
16
3
-2
3
-10
1
-3
-5
-23
1
-2
0
-14
-13
-11
-13
-10
0
-10
-23
-4
31
-33
-41
-20
-16
-19
-10
-1
13
5
-13
-13
32
-17
-23
6
5
-9
10
12
34
31
37
27
39
32
38
36
38
46
47
29
2
-27
-14
-7
-17
-21
-24
-40
-37
-1
5
-14
7
-14
-24
-11
-10
-20
-11
-1
-3
16
16
12
-2
25
4
3
10
-10
11
36
23
20
1
19
-7
6
14
19
4
-9
15
-10
-1
-11
7
12
4
9
3
6
8
9
15
13
-8
-6
18
18
6
14
19
34
36
19
12
23
20
21
16
19
46
39
13
2
20
21
31
13
38
51
47
29
23
28
24
39
13
26
54
39
28
26
24
46
54
61
62
26
35
45
52
78
44
38
52
73
75
58
68
64
69
44
57
59
60
42
64
65
64
42
49
55
66
49
26
39
68
41
34
36
10
17
14
9
26
24
37
40
-1
11
2
32
0
21
11
-4
10
-2
11
55
14
-1
3
10
12
12
5
-2
-9
-11
14
-6
-1
3
5
-1
-4
7
15
12
-11
4
17
-5
-4
-2
5
6
8
1
-9
-4
6
-10
5
5
5
3
0
-20
11
-2
-7
-2
-10
-1
3
4
16
16
4
-1
21
22
-4
-8
8
11
10
-4
-9
-20
3
3
3
14
28
15
17
-22
0
-12
11
-18
-7
13
-2
6
-4
12
-4
-10
-7
17
4
-11
22
-4
3
-6
0
4
2
-1
8
-3
3
3
6
8
-2
-3
41
8
-2
14
1
-8
-20
0
-7
-7
-12
4
13
17
30
3
-23
-2
-21
-31
-22
8
-1
18
12
11
-7
3
5
-4
-16
2
6
0
7
-5
-17
-17
23
23
22
14
-15
-2
1
6
16
8
7
8
-2
-1
-10
-3
5
9
9
-5
10
12
6
4
15
24
16
23
4
3
16
-6
20
26
24
-22
-8
14
10
6
15
25
-3
12
1
2
8
6
7
4
3
-20
-1
30
10
13
6
3
-10
-2
41
47
27
32
37
47
22
72
62
47
59
59
30
58
40
45
24
26
41
19
-21
-9
12
-12
-2
-17
-12
6
13
6
16
12
-1
20
16
21
0
9
5
0
16
14
12
28
33
41
37
14
19
-3
3
11
7
-1
-7
2
21
33
33
0
27
27
24
21
20
15
36
19
-1
15
13
25
1
38
34
28
35
26
20
32
25
14
9
20
29
35
24
19
43
5
35
31
23
28
55
40
33
36
23
43
49
57
20
28
35
41
54
85
63
28
56
58
68
56
58
55
62
37
59
58
71
62
78
69
61
57
54
68
56
50
68
73
68
75
61
80
82
75
59
60
58
51
51
48
36
55
25
62
51
31
33
70
49
32
30
6
29
27
-3
1
26
21
29
-15
1
7
12
13
6
17
8
-18
-20
-1
-10
8
11
-2
9
-10
10
2
10
0
6
-8
-14
10
-21
1
23
7
10
-9
-4
31
-17
7
28
-11
-7
-8
-4
8
15
-7
-6
2
12
-4
2
4
5
9
17
8
16
7
4
10
11
-19
-22
-14
1
-20
6
19
43
25
23
11
18
22
11
1
1
-27
-22
7
34
23
4
10
21
15
29
5
6
11
2
-12
13
7
6
6
7
18
7
2
4
2
-6
3
2
-2
25
14
1
1
6
7
5
5
1
8
0
3
-9
-15
12
5
7
3
4
1
19
30
16
11
-8
-7
-8
2
15
27
11
-7
10
18
15
7
2
25
-6
4
0
5
7
5
0
9
8
16
-9
-20
3
2
4
17
11
27
16
10
4
30
26
17
26
34
-1
18
-13
5
-22
-11
-3
8
6
7
4
2
-9
20
-5
8
6
9
5
-1
-1
5
-13
8
-3
1
8
-1
5
0
7
-4
-9
3
2
-2
24
35
23
30
51
44
39
41
43
0
16
34
38
46
43
24
17
4
4
7
-4
-13
0
-11
-40
-4
-15
-2
34
35
-4
-9
12
10
-6
10
-1
-7
-15
27
23
3
-1
15
11
10
28
13
11
10
21
8
-38
-2
11
0
5
10
20
33
7
6
7
2
16
33
5
14
27
22
21
34
14
27
30
5
40
31
19
28
6
27
34
9
30
22
0
8
39
32
2
25
39
33
37
35
35
34
12
34
43
40
20
39
30
36
28
52
62
49
64
65
59
49
48
51
55
67
63
79
59
54
56
55
63
55
76
63
56
79
73
47
52
69
73
65
55
51
52
44
46
42
45
42
68
84
48
27
35
36
28
32
23
21
8
8
40
42
2
0
5
-12
2
7
34
17
6
6
14
-10
7
-14
-14
12
10
-2
-1
20
22
4
-12
6
1
-8
-15
5
-1
0
6
7
-6
-4
3
8
-10
11
-3
-1
-6
14
-12
-11
-28
11
35
-14
1
0
9
21
-7
0
-8
-32
13
-5
9
3
-9
-3
7
31
9
-3
-12
0
9
1
19
13
21
6
16
3
0
3
10
-6
-8
-3
2
22
16
9
-5
9
2
-2
-13
-13
-1
0
22
20
-3
10
-9
-5
-8
7
-2
-11
6
15
-7
-6
3
17
11
2
2
-4
-2
-27
30
8
-19
14
18
26
15
4
-2
-15
30
0
-18
-4
-12
-5
-8
-2
0
4
4
-3
7
-6
8
12
6
29
-3
-7
-9
-4
-20
-1
5
7
-1
-12
-10
6
24
1
-13
8
29
17
16
1
18
24
-3
-8
20
-1
-3
17
23
13
35
5
12
11
19
5
8
6
1
-16
20
4
-10
-11
-19
-2
-4
-14
25
3
4
19
-12
-13
-11
2
5
5
1
6
4
-13
-13
-6
26
12
-14
-14
-3
3
-1
6
21
40
48
49
48
59
23
37
14
24
37
68
48
42
42
14
2
5
-11
-3
-27
-41
-25
-18
-19
-18
-5
4
-13
-1
18
17
6
-9
32
1
-8
15
29
3
25
-1
-4
2
2
-6
19
16
7
8
17
6
11
-3
13
-2
1
16
25
-1
21
14
-17
-1
38
19
22
-4
-3
29
21
22
16
38
7
-5
1
32
31
26
30
30
26
30
32
20
17
20
22
40
21
7
29
37
29
34
34
24
37
38
12
27
11
42
38
45
42
41
39
48
49
23
46
71
68
70
61
50
68
77
75
82
69
53
59
80
53
59
49
64
63
50
48
49
51
66
57
57
48
44
40
49
47
27
48
55
43
36
31
28
42
5
8
6
27
7
19
5
-5
11
30
33
3
-18
-17
2
6
1
-3
7
-10
-11
-14
2
2
-23
-15
-1
-4
-11
20
18
-25
12
2
-9
-22
-6
-3
17
-18
-16
-19
-14
-5
-12
7
6
3
8
6
12
-4
7
-7
-7
0
12
18
8
-4
-5
5
-7
-22
3
-23
6
13
5
4
-12
-8
7
-7
-6
-20
4
-12
12
11
1
8
-30
18
-5
-18
1
30
4
4
10
5
0
1
11
-9
-3
-15
-4
1
-12
-1
-8
10
7
4
0
-7
2
13
-4
-12
17
-23
-20
-4
-2
-5
-25
4
-2
-18
-23
-6
-3
13
-5
7
17
6
-6
3
-6
2
18
22
7
-19
-13
-5
11
0
-6
3
14
12
-11
-11
-10
-4
27
0
15
6
-11
4
-7
5
-4
-14
8
22
11
0
19
17
11
-16
12
-16
-9
-10
-3
-10
12
-40
-28
-8
-2
5
6
6
-5
0
7
9
-6
11
-3
-12
-9
-15
-18
-6
-16
-3
-6
-4
4
11
18
24
34
32
35
44
38
44
16
6
35
62
46
10
13
-7
-14
10
-19
-41
-50
-59
-38
-3
0
-20
6
-17
4
13
-7
17
-5
20
9
-5
-8
-1
1
-5
9
-5
1
3
14
8
8
4
9
12
-1
17
9
5
8
7
-4
0
-10
-3
14
3
26
11
11
6
18
19
9
8
-2
-6
-1
-17
23
22
37
14
18
42
26
1
6
12
21
31
33
46
2
14
16
24
36
39
27
23
26
28
17
22
23
34
44
15
27
36
37
38
41
46
54
40
29
40
51
31
43
57
33
68
49
51
42
42
45
64
73
49
58
46
63
52
55
49
37
41
63
68
39
60
54
34
35
31
25
29
36
5
10
6
15
44
36
6
2
11
8
9
0
-4
-13
-9
-6
-1
9
-3
-9
-9
0
-21
4
-4
7
10
-2
-7
4
2
-14
-10
-10
-26
-18
-12
-6
-3
0
9
-17
-9
-5
-3
-13
-11
-17
5
2
-13
-1
-11
-14
-2
-6
-26
3
-16
-2
-18
-6
17
-16
7
-10
-10
6
1
-12
-5
-7
-9
8
-28
-13
5
8
0
3
11
12
4
-11
0
2
-15
-3
-8
-22
-12
-10
-8
-7
-6
7
-11
-1
8
-12
-9
-27
-7
0
-2
-17
-24
0
-9
-15
25
16
-7
4
-10
-12
-1
-14
-17
-7
8
-13
-16
-3
-5
-5
6
-4
-11
-8
-14
-17
1
-19
-6
-17
-1
5
10
2
7
-15
-19
-1
-3
-12
-20
-2
-9
-24
-8
-8
-1
2
7
17
-5
-14
3
3
11
-3
11
-19
5
4
-1
-3
5
1
-1
9
-1
1
-8
2
-7
-22
-13
-19
-7
-29
-20
-3
-13
-6
-8
-4
9
-18
-19
-17
-17
-21
-30
-11
-21
-16
-18
1
-4
6
11
31
-5
5
37
36
49
33
