-26
-36
-21
-29
-22
-28
-24
-20
-21
-22
-26
-21
-19
-33
-29
-25
-27
-29
-19
-19
-25
-14
-22
-23
-24
-27
-24
-25
-30
-25
-24
-32
-22
-16
-21
-26
-20
-21
-25
-31
-31
-29
-25
-25
-17
-22
-30
-23
-26
-28
-29
-21
-23
-35
-17
-17
-20
-27
-30
-20
-31
-34
-26
-18
-18
-24
-30
-29
-37
-24
-22
-22
-33
-30
-33
-26
-25
-34
-41
-28
-30
-34
-25
-17
-14
-13
-22
-37
-33
-29
-41
-37
-38
-21
-17
-24
-30
-30
-29
-26
-27
-26
-31
-26
-23
-25
-28
-26
-26
-30
-22
-33
-30
-27
-32
-29
-29
-35
-25
-35
-37
-27
-28
-31
-29
-33
-40
-32
-19
-22
-36
-43
-36
-19
-18
-15
-18
-18
-34
-36
-42
-29
-30
-33
-31
-25
-29
-21
-14
-13
-21
-31
-35
-23
-22
-21
-38
-39
-30
-25
-15
-9
-12
-18
-11
-13
-7
-5
-9
-19
-34
-22
-18
-27
-16
-14
-12
-16
-10
-13
-18
-21
-24
-8
-17
-27
-29
-26
-37
-37
-36
-42
-34
-28
-28
-26
-29
-41
-49
-39
-40
-39
-46
-38
-25
-18
-31
-42
-39
-37
-50
-38
-32
-32
-33
-32
-34
-36
-35
-38
-42
-27
-42
-34
-21
-29
-27
-32
-45
-39
-40
-38
-44
-51
-53
-33
-18
-20
-29
-27
-27
-15
-21
-19
1
18
25
39
61
72
84
96
97
92
84
67
29
10
-16
-46
-64
-71
-69
-71
-64
-65
-64
-57
-57
-52
-35
-35
-29
-34
-27
-42
-44
-43
-59
-35
-34
-28
-15
-15
-28
-34
-38
-38
-32
-34
-29
-27
-22
-35
-17
-31
-42
-37
-23
-30
-36
-40
-28
-25
-26
-23
-22
-23
-30
-17
-24
-25
-22
-30
-29
-23
-18
-21
-26
-32
-22
-20
-17
-14
-43
-21
-23
-28
-27
-18
-13
-11
-16
-6
-5
-8
-6
-9
-4
-13
-13
-5
-3
-4
13
20
14
25
18
6
3
8
14
8
14
22
22
13
26
14
18
21
34
25
20
19
22
18
12
14
16
14
4
4
8
14
5
6
-11
3
-6
-11
-7
-8
-16
-7
-3
-12
-22
-30
-34
-28
-19
-17
-25
-22
-27
-46
-46
-23
-19
-18
-29
-28
-29
-27
-32
-23
-24
-28
-20
-26
-29
-26
-35
-51
-44
-29
-21
-38
-33
-30
-23
-29
-29
-28
-23
-23
-30
-31
-14
-18
-30
-37
-32
-27
-32
-33
-27
-34
-29
-34
-13
-27
-41
-41
-35
-33
-36
-36
-17
-1
-28
-36
-20
-24
-30
-30
-34
-32
-40
-34
-29
-21
-20
-15
-20
-30
-24
-32
-32
-28
-21
-29
-35
-22
-22
-25
-23
-16
-35
-45
-28
-37
-36
-40
-28
-33
-33
-34
-37
-22
-33
-34
-18
-19
-27
-28
-33
-36
-36
-30
-22
-29
-35
-30
-29
-33
-33
-25
-25
-30
-24
-26
-26
-27
-34
-32
-30
-38
-34
-35
-25
-18
-31
-27
-23
-25
-37
-41
-36
-16
-18
-13
-19
-19
-21
-16
-11
-16
-11
-26
-21
-14
-13
-23
-19
-23
-26
-21
-24
-16
-14
-8
-5
-31
-24
-25
-24
-26
-38
-36
-36
-37
-35
-31
-39
-36
-38
-34
-30
-31
-38
-41
-48
-39
-21
-37
-40
-42
-39
-36
-33
-29
-31
-38
-39
-43
-36
-31
-20
-28
-55
-37
-43
-43
-37
-27
-40
-37
-42
-43
-39
-34
-38
-37
-37
-39
-39
-35
-38
-33
-38
-32
-42
-40
-30
-20
-17
-7
-2
1
12
46
56
57
71
100
106
98
84
68
38
22
-16
-40
-64
-77
-76
-72
-66
-73
-66
-64
-55
-50
-44
-40
-42
-35
-28
-32
-25
-40
-40
-36
-44
-34
-34
-33
-31
-26
-34
-36
-28
-30
-30
-22
-23
-30
-36
-21
-22
-36
-40
-35
-29
-24
-19
-29
-38
-29
-17
-23
-31
-7
-32
-37
-20
-35
-23
-8
-12
-12
-25
-30
-33
-22
-25
-18
-20
-28
-34
-18
-11
-18
-21
-6
-9
-11
-5
-1
-5
-12
-5
-6
-2
-5
2
1
13
16
-4
12
17
15
21
22
15
16
20
24
21
25
29
25
13
13
24
26
21
16
21
30
31
23
16
20
22
12
6
6
3
4
0
2
-16
-2
2
-2
-9
-18
-22
-12
-22
-28
-27
-22
-20
-23
-24
-32
-27
-23
-22
-21
-33
-28
-40
-23
-21
-12
-27
-32
-39
-27
-23
-17
-19
-41
-39
-33
-32
-34
-20
-26
-27
-32
-31
-24
-37
-30
-24
-26
-29
-31
-20
-28
-35
-31
-31
-35
-27
-31
-23
-31
-29
-23
-28
-29
-21
-29
-19
-18
-26
-37
-29
-42
-41
-25
-15
-27
-32
-31
-36
-38
-20
-16
-28
-25
-21
-28
-27
-20
-26
-29
-29
-22
-26
-31
-32
-23
-26
-34
-19
-15
-30
-35
-34
-35
-39
-29
-27
-23
-33
-38
-40
-29
-38
-29
-20
-27
-27
-25
-29
-30
-27
-19
-28
-16
-11
-19
-16
-19
-18
-4
-8
-8
-5
-12
-34
-25
-28
-15
-17
-21
-21
-20
-12
-17
-14
-28
-24
-23
-26
-31
-19
-14
-34
-30
-41
-47
-43
-26
-32
-22
-27
-14
-39
-34
-28
-44
-33
-30
-42
-43
-34
-49
-43
-32
-34
-33
-28
-32
-38
-57
-44
-37
-36
-28
-31
-41
-53
-44
-25
-40
-46
-34
-27
-36
-38
-37
-30
-33
-38
-39
-40
-28
-30
-35
-30
-25
-20
-15
-4
-1
12
17
30
53
70
67
88
103
99
92
80
35
14
-8
-54
-76
-85
-85
-77
-70
-67
-65
-70
-51
-51
-50
-42
-40
-31
-41
-40
-40
-43
-29
-19
-18
-28
-32
-27
-36
-32
-34
-20
-25
-34
-30
-32
-35
-33
-26
-27
-33
-30
-27
-22
-32
-33
-34
-34
-20
-25
-15
-29
-43
-34
-38
-35
-12
-26
-24
-11
-11
-22
-35
-22
-29
-19
-17
-18
-20
-26
-27
-19
-16
-14
-21
-2
-5
-10
-11
-15
-9
-3
-7
-7
1
9
15
8
14
15
7
13
9
17
17
24
19
26
22
25
27
18
29
30
37
34
33
31
23
31
24
34
26
33
21
22
12
14
9
11
10
1
1
-2
-13
-20
-25
-11
-4
7
-14
-16
-23
-18
-20
-16
-36
-29
-30
-28
-17
-13
-29
-37
-23
-33
-23
-23
-24
-20
-31
-32
-24
-24
-24
-23
-31
-30
-14
-40
-31
-26
-32
-28
-32
-32
-31
-31
-31
-19
-23
-16
-16
-13
-25
-46
-41
-32
-31
-22
-23
-37
-18
-16
-21
-25
-30
-24
-24
-24
-21
-31
-26
-36
-34
-32
-23
-20
-16
-17
-17
-16
-16
-24
-22
-27
-34
-34
-19
-14
-26
-25
-33
-36
-28
-22
-16
-18
-10
-6
-25
-11
-11
-23
-22
-10
-23
-22
-7
-6
-6
-11
-4
-7
-13
-7
-12
-28
-21
-18
-3
-16
-2
-16
-18
-21
-25
-37
-35
-37
-41
-32
-33
-36
-34
-33
-33
-45
-47
-43
-27
-39
-50
-49
-41
-36
-30
-37
-51
-46
-40
-29
-35
-49
-41
-40
-41
-39
-43
-43
-42
-48
-47
-44
-50
-43
-46
-42
-39
-44
-40
-41
-45
-57
-45
-34
-43
-51
-39
-42
-47
-38
-31
-27
-18
17
18
28
56
71
83
101
110
104
101
58
26
-6
-42
-70
-93
-97
-91
-88
-90
-82
-67
-68
-66
-63
-59
-52
-54
-35
-41
-40
-48
-48
-43
-45
-39
-30
-45
-41
-41
-40
-37
-34
-43
-36
-38
-41
-42
-38
-38
-35
-36
-33
-21
-40
-40
-28
-36
-30
-23
-23
-26
-35
-33
-35
-40
-41
-26
-25
-27
-26
-28
-23
-23
-28
-24
-18
-21
-25
-21
-20
-15
-17
-15
-13
-9
-5
-18
-7
-14
-12
-15
-9
-11
-4
5
2
8
13
12
3
3
3
16
19
25
26
16
21
20
30
26
31
22
28
29
26
28
23
20
32
36
32
24
14
11
15
18
9
11
9
3
4
0
-11
-4
-7
-14
-25
-14
-11
-9
-13
-12
-12
-34
-29
-30
-38
-28
-32
-23
-17
-19
-24
-22
-21
-25
-24
-34
-30
-24
-33
-30
-32
-38
-32
-28
-32
-29
-33
-33
-36
-23
-28
-26
-13
-26
-27
-24
-22
-29
-32
-26
-25
-31
-26
-14
-24
-30
-44
-32
-28
-24
-21
-22
-32
-28
-28
-32
-23
-20
-16
-17
-24
-23
-27
-15
-20
-20
-19
-20
-17
-10
-5
-15
-27
-26
-12
-9
-14
-8
3
-12
-21
-21
-16
-11
-12
-9
-8
-16
-17
-18
-7
-6
-11
-25
-30
-35
-32
-38
-36
-36
-29
-19
-19
-31
-31
-36
-36
-36
-36
-42
-34
-36
-29
-24
-42
-44
-36
-38
-35
-30
-25
-40
-43
-46
-40
-35
-45
-40
-31
-29
-25
-33
-40
-43
-45
-35
-34
-32
-31
-31
-30
-31
-38
-39
-42
-42
-35
-29
-23
-16
-19
-13
-5
-4
21
28
42
70
82
90
113
107
85
59
29
-2
-32
-63
-82
-77
-67
-62
-64
-61
-59
-52
-45
-47
-42
-44
-34
-33
-37
-44
-41
-37
-33
-32
-34
-40
-36
-25
-23
-30
-35
-44
-27
-33
-23
-33
-33
-32
-36
-35
-36
-23
-24
-32
-33
-30
-29
-23
-26
-38
-19
-31
-36
-26
-24
-27
-22
-20
-26
-29
-25
-26
-25
-22
-24
-14
-20
-28
-30
-11
-20
-6
-11
-20
-9
-22
-3
-14
-14
-8
-11
-9
-7
3
1
4
14
6
5
8
11
3
5
15
36
19
12
19
25
22
23
26
37
32
25
17
16
14
24
30
26
21
22
27
25
7
-3
6
7
-3
-9
-6
-8
-4
-7
-4
-7
-6
-12
-16
-20
-26
-29
-23
-23
-35
-18
-16
-38
-33
-30
-26
-17
-27
-29
-27
-29
-34
-33
-26
-30
-26
-24
-26
-38
-41
-20
-24
-27
-38
-33
-29
-29
-29
-21
-26
-29
-26
-32
-34
-28
-33
-32
-28
-24
-27
-27
-35
-33
-46
-31
-26
-15
-30
-19
-22
-23
-29
-23
-21
-20
-11
-13
-16
-12
-22
-31
-45
-27
-11
-14
-11
-15
-9
-17
-23
-7
-1
-18
-11
-5
-8
-21
-17
-25
-25
-24
-26
-34
-25
-25
-30
-37
-29
-31
-30
-47
-32
-35
-38
-44
-31
-23
-31
-39
-42
-46
-35
-20
-33
-30
-28
-33
-44
-39
-37
-37
-46
-38
-52
-48
-45
-37
-36
-32
-22
-32
-43
-45
-36
-35
-38
-28
-28
-37
-40
-44
-50
-46
-43
-47
-49
-37
-20
-5
-5
2
5
26
30
64
55
73
90
99
103
89
73
44
6
-17
-44
-65
-72
-80
-79
-71
-71
-67
-63
-47
-51
-41
-40
-40
-31
-40
-45
-46
-37
-29
-29
-37
-25
-19
-31
-31
-36
-33
-34
-30
-35
-34
-31
-37
-38
-32
-23
-20
-34
-32
-31
-32
-34
-32
-25
-29
-32
-30
-27
-26
-27
-32
-29
-26
-18
-18
-22
-22
-40
-29
-16
-22
-30
-15
-14
-13
-10
-15
-19
-21
-26
-22
-27
-25
-9
-2
-6
-10
-3
0
-1
-1
9
4
15
4
1
10
4
5
26
19
19
22
18
12
15
32
39
32
19
30
34
37
30
11
13
12
23
15
13
15
15
4
3
14
8
-5
-12
-17
-13
-10
-6
-6
-17
-17
-14
-12
-27
-24
-36
-20
-32
-29
-19
-30
-30
-27
-27
-15
-13
-28
-25
-21
-24
-29
-32
-23
-22
-25
-29
-28
-31
-35
-40
-20
-25
-34
-36
-30
-23
-20
-17
-20
-18
-36
-40
-37
-47
-37
-33
-22
-25
-28
-23
-34
-28
-23
-16
-16
-18
-18
-18
-18
-24
-31
-15
-10
-16
-15
-13
-16
-14
-22
-16
-22
-22
-1
-2
13
-12
-17
-13
-21
-25
1
-7
-12
-15
-11
-11
-18
-23
-33
-35
-37
-33
-31
-37
-34
-26
-28
-28
-35
-34
-34
-32
-34
-36
-30
-38
-43
-30
-30
-36
-32
-29
-36
-33
-37
-32
-29
-28
-28
-52
-35
-30
-36
-37
-34
-38
-35
-43
-40
-45
-32
-32
-32
-27
-36
-33
-31
-27
-33
-35
-43
-37
-34
-29
-25
-17
-5
0
14
26
42
56
78
71
87
102
98
91
70
44
0
-30
-53
-83
-80
-77
-77
-67
-65
-67
-45
-46
-50
-44
-37
-40
-34
-29
-33
-36
-30
-27
-31
-30
-27
-38
-21
-24
-32
-37
-31
-23
-21
-29
-27
-33
-32
-31
-35
-37
-30
-29
-32
-21
-13
-20
-30
-27
-17
-33
-31
-31
-34
-25
-18
-28
-13
-22
-25
-20
-25
-29
-23
-22
-16
-16
-17
-15
-12
-25
-11
-20
-17
-19
-11
-11
-8
2
8
5
-10
2
7
2
5
15
13
-6
8
17
12
16
14
24
30
29
29
30
23
23
31
22
30
28
28
26
24
21
26
24
15
21
13
7
1
-2
5
10
12
7
8
3
-8
-2
-8
-10
-9
1
-2
-21
-27
-20
-31
-26
-25
-18
-22
-31
-29
-23
-28
-23
-8
-11
-17
-29
-25
-33
-37
-18
-9
-15
-29
-22
-22
-27
-23
-30
-30
-28
-26
-20
-23
-23
-28
-20
-25
-27
-27
-21
-24
-26
-35
-26
-25
-26
-20
-17
-31
-32
-18
-17
-26
-14
-6
-21
-24
-22
-24
-14
-17
-17
-17
-20
-18
-6
-10
-9
-8
-21
-17
-8
-8
-15
-1
-11
-7
-7
-6
-9
-1
-11
-8
-15
-9
-10
-23
-22
-18
-14
-23
-30
-22
-25
-14
-22
-29
-25
-28
-32
-36
-31
-44
-38
-28
-34
-31
-28
-30
-31
-36
-44
-24
-27
-27
-26
-33
-27
-34
-31
-42
-34
-32
-28
-24
-26
-33
-29
-32
-31
-44
-40
-29
-27
-28
-33
-31
-22
-35
-34
-34
-23
-25
-22
-33
-38
-45
-26
-7
-3
16
28
43
55
66
79
98
103
107
91
83
56
25
-7
-43
-72
-81
-71
-73
-76
-62
-52
-50
-54
-40
-40
-42
-36
-29
-19
-25
-43
-32
-32
-33
-34
-28
-25
-37
-35
-31
-35
-26
-22
-28
-22
-23
-30
-29
-26
-25
-23
-18
-16
-23
-30
-22
-26
-24
-21
-27
-29
-19
-16
-6
-13
-31
-23
-26
-29
-26
-18
-27
-26
-21
-14
-16
-16
-14
-13
-11
-4
-3
-5
-19
-13
-4
-9
-9
-8
-4
-1
8
7
10
10
17
11
14
8
7
9
12
21
19
12
12
9
21
32
29
31
32
31
41
34
25
21
15
19
30
32
29
34
32
16
2
3
12
14
6
9
8
-1
0
5
-1
-16
-13
-18
-19
-17
-24
-23
-24
-22
-17
-22
-27
-21
-16
-17
-23
-24
-16
-9
-20
-46
-41
-28
-15
-18
-22
-26
-20
-10
-16
-27
-30
-20
-24
-21
-26
-23
-25
-21
-23
-25
-27
-33
-28
-15
-15
-10
-19
-20
-16
-19
-35
-44
-26
-26
-28
-27
-14
-18
-22
-17
-34
-25
-22
-21
-19
-12
-16
-18
-26
-14
-13
-16
-5
-11
-8
-13
-15
-8
-3
-23
-24
-30
-8
-1
-10
-7
-13
-7
-14
-10
-9
-17
1
-8
-4
-2
-18
-21
-28
-24
-25
-21
-19
-14
-27
-28
-23
-31
-41
-43
-16
-17
-20
-30
-31
-25
-34
-42
-33
-32
-36
-31
-25
-32
-33
-41
-32
-39
-23
-29
-30
-33
-28
-34
-36
-26
-28
-29
-34
-38
-38
-39
-35
-26
-34
-36
-35
-37
-44
-35
-28
-36
-23
-38
-33
-29
-42
-29
-22
-14
-8
1
11
29
49
56
67
91
108
116
104
76
65
36
4
-29
-49
-70
-77
-75
-69
-66
-55
-59
-64
-47
-37
-38
-44
-36
-31
-32
-24
-23
-34
-28
-35
-34
-38
-35
-28
-23
-15
-24
-31
-36
-32
-28
-28
-35
-31
-22
-18
-25
-18
-20
-32
-26
-24
-29
-38
-22
-18
-15
-22
-18
-17
-31
-31
-33
-17
-11
-18
-23
-23
-19
-30
-14
-14
-14
-18
-14
-15
-13
-10
-16
-13
-6
-7
-16
1
-3
-13
-3
8
9
14
18
12
9
6
8
13
14
10
13
13
18
18
22
33
36
31
22
29
38
28
31
18
24
21
22
24
24
22
26
23
17
17
14
13
8
-3
-5
-1
-3
-6
-17
-7
-6
-16
-6
-6
-14
-8
-19
-28
-24
-24
-27
-26
-25
-13
-13
-20
-21
-19
-3
-31
-30
-33
-19
-16
-19
-29
-24
-28
-31
-14
-23
-23
-25
-24
-23
-38
-21
-18
-26
-25
-25
-25
-36
-15
-27
-21
-27
-27
-31
-24
-18
-27
-24
-26
-31
-29
-34
-20
-29
-20
-11
-16
-21
-18
-11
-16
-32
-28
-18
-24
-16
-20
-19
-21
-19
-9
-21
-28
-21
-28
-25
-24
-27
-19
-15
-18
-18
-8
-14
-14
-20
-19
-25
-23
-29
-14
-4
-6
-5
-14
-2
6
-2
-22
-13
-8
-9
-13
-10
-10
-19
-14
-26
-16
-17
-34
-28
-26
-25
-30
-29
-22
-26
-29
-32
-40
-28
-25
-37
-41
-34
-22
-24
-27
-43
-28
-14
-17
-40
-39
-30
-36
-37
-47
-28
-30
-27
-28
-27
-29
-28
-37
-33
-36
-29
-17
-29
-36
-36
-37
-34
-42
-47
-39
-31
-30
-23
-33
-35
-43
-33
-32
-26
-15
-25
-20
-9
-7
4
21
35
52
76
81
80
101
107
82
76
45
9
2
-19
-39
-81
-83
-74
-63
-54
-58
-56
-54
-40
-49
-39
-45
-46
-16
-22
-28
-32
-24
-23
-23
-22
-13
-43
-39
-35
-31
-33
-33
-21
-19
-18
-11
-13
-39
-41
-25
-24
-23
-14
-31
-27
-25
-27
-14
-18
-25
-27
-28
-26
-22
-19
-5
-7
-11
-32
-31
-22
-13
-4
-17
-14
-16
-20
-8
-7
-15
0
5
-5
-1
-3
-7
-13
-8
-4
-5
-1
1
9
16
15
19
17
20
16
19
14
17
30
27
30
33
19
22
26
21
30
44
30
30
21
33
30
30
36
36
26
31
33
23
23
16
15
13
11
7
4
6
5
5
-10
-11
-8
-9
-15
-14
-16
-16
-16
-23
-27
-12
-12
-16
-23
-19
-24
-20
-8
-20
-25
-24
-24
-14
-24
-22
-28
-30
-23
-14
-23
-24
-23
-18
-20
-18
-31
-21
-20
-17
-19
-20
-25
-30
-31
-20
-19
-13
-20
-22
-26
-32
-26
-18
-18
-13
-20
-21
-18
-24
-23
-25
-14
-18
-15
-14
-15
-29
-18
-25
-24
-20
-24
-21
-17
-19
-17
-9
-18
-35
-28
-29
-15
-25
-21
-10
-20
-11
-20
-27
-29
-30
-12
-26
-19
-18
-11
-17
-18
-15
-19
-17
-15
-7
-20
-16
-15
-17
-13
-11
-12
-21
-8
-3
-8
-17
-2
5
-1
5
-8
-15
-5
-11
-10
-9
-7
-7
-12
-16
-17
-10
-35
-31
-25
-28
-24
-27
-31
-19
-18
-27
-27
-26
-30
-36
-32
-29
-28
-20
-34
-29
-32
-29
-38
-32
-36
-35
-30
-24
-20
-23
-12
-25
-32
-31
-28
-27
-31
-24
-27
-36
-36
-36
-25
-30
-22
-31
-31
-28
-22
-21
-23
-30
-36
-38
-29
-32
-28
-26
-37
-21
-21
-30
-22
-9
-8
7
24
38
52
74
86
93
101
106
103
94
76
41
11
-16
-45
-72
-72
-65
-55
-59
-56
-50
-50
-50
-38
-35
-39
-30
-32
-23
-31
-30
-25
-33
-19
-20
-11
-20
-19
-37
-38
-31
-29
-22
-18
-15
-13
-18
-13
-22
-33
-24
-16
-20
-19
-25
-22
-12
-23
-24
-23
-13
-5
-22
-23
-20
-16
-8
-8
-13
-15
-5
-6
-14
-27
-19
-11
-10
-11
-22
-6
-9
-9
-3
-5
3
3
6
4
2
7
11
5
8
11
11
9
10
17
12
13
11
18
27
32
25
32
28
24
23
38
43
40
36
37
39
33
35
31
31
26
18
25
44
31
27
23
19
10
17
21
17
10
10
-8
-8
-7
-3
-9
-10
-4
-12
-8
-11
-23
-12
-27
-12
-10
-13
-8
-8
-15
-18
-14
-19
-20
-15
-14
-14
-33
-25
-14
-27
-20
-23
-25
-22
-27
-17
-15
-15
-25
-22
-21
-19
-18
-16
-7
-17
-21
-23
-18
-19
-12
-5
-2
-25
-19
-25
-20
-13
-23
-24
-28
-19
-24
-26
-23
-18
-16
-11
-14
-14
-14
-19
-23
-23
-21
-29
-20
-14
-23
-18
-14
-7
-10
-4
-17
-29
-17
-10
-16
-14
-21
-28
-24
-21
-19
-22
-21
-17
-20
-32
-22
-17
-23
-18
-21
-26
-20
-22
-21
-23
-27
-25
-32
-17
-16
-24
-20
-25
-24
-19
-2
-12
-20
-25
-12
-23
-21
-19
-23
-19
-26
-25
-24
-11
-10
-19
-8
-5
-3
-18
-14
-4
-3
-5
-6
-11
-9
-18
-12
-7
-11
-8
-11
0
2
5
-16
-27
-32
-19
-12
-6
-19
-25
-16
-22
-33
-25
-33
-29
-27
-31
-28
-19
-33
-33
-28
-31
-30
-30
-22
-15
-28
-38
-43
-28
-31
-22
-19
-22
-23
-26
-30
-30
-20
-24
-30
-38
-33
-33
-30
-19
-17
-26
-29
-28
-31
-23
-23
-25
-35
-39
-22
-32
-43
-29
-24
-20
-34
-31
-22
-10
-11
-12
-3
-1
12
30
41
55
72
85
88
115
123
96
83
61
28
7
-20
-51
-73
-70
-66
-65
-63
-60
-50
-44
-34
-39
-30
-30
-12
-25
-35
-33
-34
-21
-26
-14
-7
-34
-22
-16
-14
-17
-16
-31
-27
-36
-22
-16
-20
-25
-26
-21
-17
-23
-21
-13
-26
-15
-10
-5
-8
-13
-12
-19
-20
-15
-17
-16
-19
-29
-13
-11
-5
-9
-9
-6
-18
-14
-10
-28
-19
-8
-17
1
8
7
-4
-5
-1
-15
4
11
2
-2
16
29
21
13
12
16
14
34
19
31
24
27
25
26
29
32
32
39
30
24
23
31
44
31
36
37
36
28
29
28
41
38
34
24
25
23
16
23
13
10
5
9
3
-9
-4
0
-4
-3
-11
-1
-10
-13
-16
-22
-12
-10
-10
-16
-21
-17
-18
-23
-17
-15
-19
-26
-15
-7
-18
-2
-10
-12
-25
-24
-20
-23
-16
-16
-12
-20
-29
-23
-22
-18
-18
-14
-15
-16
-5
-21
-28
-26
-31
-25
-18
-11
-9
-11
-12
-14
-19
-16
-4
-21
-23
-14
-8
-6
-15
-16
-18
-15
-14
-19
-20
-16
-20
-25
-21
-7
-21
-11
-11
-18
-15
-21
-20
-15
-23
-23
-19
-18
-8
-14
-28
-26
-26
-16
-18
-15
-17
-25
-19
-20
-15
-18
-19
-20
-32
-26
-27
-23
-32
-25
-45
-28
-20
-12
-8
1
-2
-20
-17
-20
-23
-29
-20
-17
-4
-8
-14
-16
-15
-13
-25
-35
-32
-8
1
-7
-23
-15
-7
-27
-14
-2
-11
-17
1
-2
-3
0
-2
-9
-16
-10
4
-2
-3
-11
-6
-13
-27
-18
-6
-15
-23
-27
-18
-22
-15
-6
-22
-30
-34
-35
-20
-11
-20
-32
-26
-28
-33
-30
-27
-27
-19
-21
-15
-25
-34
-44
-44
-17
-12
-24
-19
-22
-23
-28
-33
-30
-32
-15
-19
-25
-20
-30
-35
-38
-20
-31
-37
-30
-33
-24
-16
-25
-23
-22
-27
-34
-41
-49
-42
-16
-7
-6
-8
-4
13
11
22
42
66
90
92
105
102
115
98
77
44
24
0
-33
-61
-75
-69
-68
-56
-54
-47
-44
-41
-51
-44
-33
-37
-28
-13
-5
-24
-34
-23
-23
-22
-23
-27
-28
-21
-17
-28
-22
-16
-16
-21
-8
-14
-19
-25
-25
-30
-23
-13
-19
-23
-20
-16
-7
-9
-22
-17
-20
-11
-21
-17
-16
-16
-6
-17
-15
-6
-5
-22
-14
-14
-12
-4
-2
-3
0
-4
-9
-12
-5
-4
13
12
2
5
-1
2
13
11
8
8
8
7
22
37
32
8
15
10
9
19
27
29
23
38
30
39
39
31
44
45
37
50
36
38
27
43
42
34
35
29
42
24
28
22
20
25
12
14
19
4
0
4
0
-11
0
13
-10
-15
-10
-11
-7
-11
-16
-12
-10
-9
-7
-14
-22
-17
-8
-13
-4
-6
-6
-8
-32
-10
-30
-23
-35
-25
-23
-25
-11
-23
-23
-24
-22
-26
-16
-25
-18
-29
-30
-27
-17
-10
-7
-14
-18
-12
1
-11
-22
-18
-21
-6
-18
-21
-13
-11
-6
-25
-26
-17
-22
-15
-12
-17
-23
-15
-14
-12
-12
-15
-20
-10
-21
-29
-26
-11
-14
-19
-22
-26
-23
-25
-18
-10
-10
1
-18
-28
-28
-29
-34
-23
-19
-14
-19
-20
-28
-29
-14
-20
-16
-9
-14
-32
-27
-32
-20
-14
-26
-24
-24
-10
0
-2
-6
-2
-11
-9
-4
-11
-10
-22
-16
-17
7
5
3
-3
4
-3
-5
-9
-8
2
-3
-1
1
-10
-25
-10
-27
-24
-13
-26
-29
-20
-30
-24
-27
-23
-24
-47
-37
-38
-17
-24
-32
-30
-31
-28
-34
-26
-26
-12
-27
-42
-44
-31
-41
-34
-31
-30
-31
-33
-32
-34
-37
-25
-33
-34
-34
-22
-21
-34
-43
-36
-26
-29
-35
-43
-28
-24
-37
-35
-40
-33
-28
-23
-14
-17
0
-2
25
59
65
75
90
103
115
113
115
105
63
11
-19
-35
-61
-104
-95
-88
-80
-78
-62
-58
-57
-55
-53
-46
-47
-46
-28
-34
-39
-32
-23
-28
-39
-29
-15
-26
-18
-11
-22
-37
-28
-24
-39
-31
-26
-26
-29
-34
-21
-15
-23
-22
-19
-27
-21
-17
-21
-27
-20
-17
-18
-30
-17
-24
-33
-23
-30
-11
-14
-16
-7
-4
-14
-11
-3
-13
-23
-11
4
-1
-9
-7
-10
-2
-10
-9
-4
3
4
7
15
14
11
14
23
28
7
16
12
24
24
26
25
29
36
24
25
33
24
29
47
39
25
35
46
45
47
48
37
42
30
23
22
15
34
28
22
18
18
18
13
9
3
5
-2
4
6
-2
-17
-13
-17
-31
-31
-21
-19
-29
-25
-24
-27
-27
-27
-19
-28
-27
-29
-30
-11
-15
-24
-28
-32
-34
-32
-20
-22
-20
-23
-30
-27
-27
-25
-31
-24
-28
-23
-29
-35
-36
-32
-36
-27
-34
-37
-28
-34
-25
-38
-43
-41
-25
-30
-19
-36
-13
-23
-22
-20
-28
-36
-35
-16
-27
-32
-32
-26
-26
-32
-23
-34
-29
-25
-27
-19
-24
-28
-33
-40
-33
-26
-20
-23
-24
-31
-28
-25
-29
-36
-34
-27
-23
-20
-23
-25
-28
-26
-33
-22
-18
-33
-16
-3
-11
-19
-30
-11
-6
-11
-13
-3
2
-1
-25
-20
-8
-2
-6
-1
0
-9
-8
-16
-17
-23
-20
-32
-19
-19
-26
-29
-37
-30
-38
-31
-39
-29
-36
-37
-45
-43
-42
-38
-32
-36
-41
-38
-44
-43
-37
-36
-40
-26
-25
-39
-42
-45
-45
-41
-34
-37
-31
-29
-27
-48
-45
-45
-51
-41
-28
-34
-37
-37
-38
-46
-38
-38
-42
-35
-35
-36
-32
-13
-8
4
18
40
60
75
89
103
109
97
77
34
5
-25
-49
-76
-100
-100
-96
-99
-95
-86
-91
-88
-70
-50
-61
-52
-45
-33
-34
-39
-39
-40
-36
-30
-40
-34
-23
-34
-29
-32
-30
-25
-30
-20
-24
-21
-27
-42
-25
-28
-29
-27
-34
-40
-30
-22
-8
-20
-18
-29
-31
-21
-30
-12
-24
-10
-11
-12
-38
-41
-36
-19
-25
-21
-35
-25
-23
0
-14
-44
-27
-16
-17
-15
-16
-13
-21
-17
-23
7
1
0
5
10
12
11
2
9
17
26
27
27
24
28
19
27
19
23
28
33
14
29
24
36
35
36
40
39
32
45
21
22
25
31
27
24
18
15
10
17
11
17
9
1
8
-3
2
-9
-8
-35
-18
-19
-23
-11
-21
-17
-23
-21
-24
-30
-24
-30
-27
-19
-25
-21
-24
-30
-31
-30
-20
-26
-22
-9
-24
-24
-24
-16
-12
-24
-31
-22
-31
-38
-27
-20
-16
-23
-24
-22
-29
-25
-20
-21
-20
-25
-25
-26
-30
-18
-12
-23
-26
-16
-28
-31
-31
-30
-25
-21
-23
-18
-28
-26
-24
-14
-23
-20
-32
-35
-31
-9
-8
-17
-17
-17
-3
-2
-17
-14
-12
0
2
0
-22
-29
-20
-14
3
-13
-2
14
18
27
2
-16
-20
-21
-11
-17
-18
9
3
-29
-23
-21
-19
-11
-21
-61
-47
-41
-42
-36
-40
-40
-41
-35
-41
-51
-53
-41
-29
-31
-41
-28
-40
-37
-35
-39
-34
-30
-42
-49
-41
-42
-39
-41
-47
-46
-38
-44
-32
-35
-38
-36
-41
-37
-37
-34
-32
-37
-40
-33
-41
-29
-64
-54
-24
-19
-15
-4
15
30
48
70
66
81
109
99
96
94
67
39
-14
-44
-83
-104
-105
-66
-75
-99
-85
-74
-71
-65
-64
-58
-46
-38
-40
-32
-36
-28
-27
-34
-39
-42
-44
-44
-34
-35
-35
-31
-20
-26
-45
-37
-30
-31
-32
-35
-29
-28
-25
-32
-38
-34
-23
-36
-25
-16
-28
-29
-22
-27
-21
-29
-24
-27
-19
-12
-36
-26
-24
-27
-20
-26
-22
-18
-17
-5
-15
-17
-11
-15
-21
-17
-14
-9
-2
-3
-2
-5
-3
-6
0
8
9
8
7
11
15
10
11
16
17
19
25
25
28
24
19
17
10
31
29
29
31
30
33
47
27
17
21
20
14
4
-10
2
16
10
6
6
11
6
-4
-3
-9
-12
-12
-17
-12
-14
-22
-24
-10
-14
-17
-18
-18
-19
-24
-17
-23
-29
-14
-16
-21
-27
-33
-31
-26
-18
-15
-25
-18
-23
-23
-15
-30
-21
-28
-19
-20
-21
-27
-27
-36
-30
-25
-26
-23
-26
-32
-28
-28
-27
-26
-29
-17
-13
-15
-10
-10
-16
-28
-30
-32
-13
-17
-18
-13
-8
-5
2
-6
-13
-9
-7
-10
-17
-17
-16
-12
-8
-13
-14
-18
-17
-4
-3
-7
-3
-13
-13
-7
-16
-15
-20
-20
-17
-17
-15
-26
-29
-19
-24
-27
-25
-23
-28
-24
-33
-28
-30
-22
-26
-26
-24
-23
-33
-28
-33
-37
-39
-43
-27
-27
-30
-33
-32
-32
-25
-17
-28
-44
-44
-33
-30
-29
-32
-27
-30
-34
-44
-41
-33
-27
-31
-31
-39
-45
-43
-30
-31
-19
-18
-19
-11
-1
6
26
33
51
66
89
78
100
116
87
83
50
12
-7
-38
-59
-71
-68
-66
-66
-63
-55
-58
-53
-47
-42
-36
-30
-27
-34
-28
-31
-31
-34
-33
-31
-29
-27
-30
-25
-29
-24
-23
-22
-24
-32
-31
-29
-26
-19
-16
-27
-31
-24
-37
-31
-24
-26
-20
-21
-21
-24
-24
-29
-29
-32
-21
-14
-17
-22
-21
-19
-20
-20
-21
-19
-11
-15
-17
-17
-21
-13
-18
-1
-4
-14
-15
-4
-1
-11
1
6
4
4
16
19
20
26
22
-20
6
11
8
15
18
21
18
15
13
13
24
29
27
24
34
28
15
32
32
18
26
21
13
29
23
18
12
12
13
15
7
-13
-7
-6
-8
1
-11
-13
-13
-10
-15
-23
-29
-31
-18
-24
-22
-26
-26
-27
-26
-29
-24
-29
-26
-28
-21
-25
-30
-32
-40
-33
-28
-36
-32
-22
-27
-32
-20
-8
-11
-23
-27
-23
-22
-20
-23
-20
-35
-32
-34
-30
-30
-33
-26
-26
-23
-23
-23
-18
-25
-32
-26
-23
-17
0
-9
-19
-11
-21
-28
-28
-23
-15
-19
-21
-25
-6
6
-1
-10
-9
-9
-15
-16
-5
-3
-13
-10
-17
-24
-20
-22
-27
-27
-27
-28
-27
-34
-28
-30
-31
-32
-34
-24
-27
-26
-30
-26
-25
-31
-37
-27
-36
-36
-38
-35
-33
-28
-30
-33
-41
-33
-36
-34
-39
-31
-36
-27
-34
-42
-35
-37
-39
-34
-35
-31
-26
-21
-26
-31
-32
-33
-42
-54
-50
-32
-27
-26
-18
-15
2
22
31
52
47
66
81
95
100
96
94
65
30
12
-14
-42
-72
-82
-80
-76
-59
-50
-57
-51
-55
-37
-28
-31
-36
-47
-36
-46
-36
-34
-27
-34
-40
-37
-39
-38
-35
-35
-20
-19
-34
-29
-35
-39
-35
-23
-21
-37
-29
-31
-28
-32
-30
-24
-22
-34
-28
-27
-41
-29
-20
-17
-18
-33
-27
-29
-31
-36
-34
-22
-11
-12
-32
-19
-23
-17
-13
-19
-26
-27
-24
-13
-12
-10
-6
-12
-10
-4
-4
1
-3
-4
6
8
-3
3
4
17
12
14
18
21
21
13
10
9
-6
21
28
30
35
29
14
23
7
19
24
21
8
10
24
17
13
21
8
3
9
-2
-8
-11
-6
-12
-10
-13
-5
-17
-21
-16
-13
-34
-29
-24
-26
-24
-23
-32
-31
-27
-25
-23
-27
-19
-26
-27
-30
-23
-28
-38
-26
-15
-11
-20
-33
-26
-25
-18
-28
-28
-25
-25
-19
-26
-25
-30
-29
-23
-19
-1
-30
-15
-12
-12
-11
-15
-12
-11
-11
-17
-14
-11
-8
-13
-10
-11
-20
-19
-7
-5
-11
-6
-6
-4
-6
-5
-10
-1
-4
-10
-20
-16
-21
-20
-10
-14
-18
-20
-21
-33
-31
-24
-19
-27
-22
-27
-32
-24
-32
-24
-26
-24
-26
-19
-24
-24
-25
-29
-24
-21
-27
-21
-29
-23
-27
-30
-30
-26
-27
-24
-33
-29
-26
-32
-29
-30
-31
-37
-26
-20
-33
-29
-20
-19
-26
-30
-23
-5
4
-16
-8
0
20
27
54
68
60
77
92
106
102
94
83
42
10
-8
-40
-57
-55
-56
-62
-67
-61
-47
-47
-32
-45
-37
-27
-25
-12
-9
-15
-18
-32
-21
-29
-30
-28
-32
-26
-26
-10
-16
-24
-24
-14
-7
0
-17
-19
-18
-23
-23
-33
-29
-10
-6
-5
0
-15
-11
1
-9
-17
-4
-16
-22
-16
-14
-10
-1
-4
0
-17
-8
-9
-9
1
2
-5
-12
-13
6
2
8
-2
7
4
4
-1
2
5
4
12
11
21
17
19
20
29
14
11
29
27
28
26
29
21
30
31
18
19
28
33
23
48
36
49
38
44
13
22
31
37
15
22
8
5
9
23
0
15
-3
-11
9
5
6
14
16
13
16
2
-12
-13
-13
-30
-27
-27
-12
-7
-14
-9
-31
-8
-14
-16
-14
-13
-35
-13
-19
-16
-27
-25
-14
-9
1
-9
2
-17
-32
-24
-28
-6
-5
-15
-23
-21
-21
-27
-29
-30
-15
13
1
-6
-24
-7
4
-7
-9
2
-5
1
-1
6
2
7
9
10
-5
8
12
7
4
3
-20
-7
7
8
-17
-7
-23
-25
-9
-23
-32
-23
-14
-14
-11
-25
-34
-23
-24
-20
-22
-19
-15
-22
-28
-32
-35
-21
-25
-21
-32
-25
-24
-10
-23
-41
-16
-30
-17
-18
-25
-18
-31
-30
-25
-25
-28
-33
-30
-27
-28
-35
-36
-41
-18
-19
-24
-22
-39
-32
-23
-19
-10
-5
4
33
53
61
67
102
127
129
132
116
93
64
38
1
-21
-62
-90
-97
-108
-82
-99
-80
-72
-61
-50
-59
-35
-28
-36
-36
-36
-31
-14
-27
-46
-36
-6
-17
-2
4
-2
-31
-27
-13
-24
-16
-25
-32
-18
0
-24
-42
-28
-34
-23
-24
-17
-25
-7
-2
-26
-27
-23
-12
-15
-7
-8
-14
-13
-6
-13
-18
-2
-3
-14
-1
-9
-21
-7
-3
-25
7
-19
-18
-5
-14
6
2
8
9
2
17
6
20
13
9
12
15
13
8
27
26
37
31
23
13
23
27
48
46
31
38
32
24
40
44
45
44
36
40
57
45
41
28
20
32
40
31
19
10
13
14
-3
1
-15
-14
-9
-16
0
2
-33
-30
-18
-24
-30
-12
-7
-8
-21
-37
-40
-33
-19
-7
-6
-16
-32
-26
-14
-21
-26
-27
-27
-20
-30
-36
-29
-24
-24
-27
-24
-25
-21
-23
-20
-10
-13
-24
-20
-15
-4
-8
-16
-10
-16
-13
7
-18
-28
-31
-26
-17
-15
-20
-3
9
16
-15
-25
-13
5
-5
2
-7
-3
-19
-2
-3
-10
-27
-7
-5
-21
-36
-49
-44
-31
-31
-33
-40
-43
-41
-32
-26
-21
-25
-30
-32
-45
-30
-35
-32
-22
-43
-55
-52
-48
-38
-40
-28
-26
-28
-53
-39
-32
-34
-42
-27
-44
-43
-38
-41
-44
-48
-45
-34
-33
-40
-40
-39
-61
-31
-25
-37
-35
-44
-21
-39
-41
-18
3
23
13
55
60
71
89
127
118
104
74
31
-3
-34
-63
-93
-118
-111
-102
-99
-95
-75
-89
-80
-66
-60
-59
-56
-50
-33
-42
-45
-29
-30
-33
-37
-43
-48
-42
-29
-29
-39
-45
-35
-42
-57
-24
-20
-25
-23
-22
-48
-47
-40
-36
-34
-38
-25
-32
-17
-24
-15
-25
-23
-29
-32
-30
-16
-20
-17
-21
-11
-6
0
-40
-30
-19
0
-14
-13
-10
-21
-25
-6
5
0
-9
-23
-17
-3
21
14
18
13
8
23
7
28
38
30
36
48
49
46
50
35
41
59
59
56
45
49
47
45
7
-26
-5
17
26
25
28
36
16
7
9
18
16
17
14
22
11
-3
-12
-2
3
7
4
-19
-18
-12
-11
-20
-21
2
-30
-30
-23
-23
-31
-38
-35
-27
-15
-10
-20
-35
-37
-31
-29
-17
-14
-24
-36
-25
-8
-27
-14
-42
-40
-26
-32
-26
-21
-26
-19
-13
-14
-5
-9
-21
-21
-30
-27
-31
-15
-12
-1
-1
-14
-20
-19
-18
-13
-12
-7
4
2
-4
-11
-3
-7
-24
-15
-6
-1
-4
-12
-23
-21
-21
-16
-19
-23
-17
-25
-28
-21
-15
-27
-32
-23
-25
-33
-35
-10
-10
-26
-28
-21
-27
-37
-36
-25
-23
-5
-22
-43
-43
-47
-33
-21
-27
-26
-32
-21
-28
-26
-23
-29
-35
-32
-24
-18
-23
-36
-36
-34
-40
-44
-27
-28
-10
-9
-28
-22
-21
-18
-19
-2
8
13
24
37
59
62
70
80
82
88
80
70
42
17
-13
-23
-50
-76
-72
-79
-79
-65
-64
-61
-49
-46
-48
-47
-30
-21
-28
-28
-31
-27
-21
-17
-20
-29
-23
-22
-17
-22
-22
-18
-28
-18
-24
-29
-22
-15
-18
-16
-24
-20
-14
-13
-22
-17
-19
-21
-22
2
-5
-12
-14
-13
-26
-20
-19
-8
-10
-16
-2
-19
-6
-16
-8
-7
-14
-1
-6
-8
0
2
2
9
4
0
1
9
5
-3
7
8
18
30
18
27
29
22
25
21
30
15
30
33
28
33
33
36
37
40
35
35
29
36
45
40
32
34
40
36
31
29
21
25
12
6
21
20
18
11
6
24
-4
-10
-7
2
-14
-9
-15
-22
-8
-8
-18
-13
-16
-6
-3
-15
-23
-38
-21
-26
-14
-13
-17
-25
-32
-28
-14
-18
-20
-34
-37
-9
-14
-7
0
-17
-33
-16
-16
-26
-22
-19
-15
-17
-25
12
5
-5
5
7
-14
-20
-18
-13
-3
-8
-7
-10
-4
10
-9
-13
-18
-18
-9
5
4
15
14
-15
-19
-6
14
1
-6
-16
-13
-8
-3
-11
-15
-9
-22
-42
-34
-39
-30
-43
-37
-25
-25
-27
-24
-23
-30
-26
-5
-8
-23
-36
-13
-29
-33
-10
-16
-25
-25
-41
-39
-29
-24
-41
-28
-39
-4
-16
-29
-32
-36
-31
-22
-20
-25
-33
-44
-28
-33
-21
-28
-26
-6
-3
13
25
38
49
72
95
89
112
121
115
101
84
70
50
15
-30
-55
-80
-79
-73
-75
-54
-59
-59
-59
-49
-35
-27
-23
-17
-30
-28
-44
-23
-31
-20
-16
-31
-40
-42
-40
-29
-12
-19
-21
-22
-34
-17
-18
-18
-35
-22
-25
1
-31
-34
-29
-15
-19
-9
-9
-15
-12
-18
-9
-15
-21
-14
-33
-22
-7
1
8
4
6
-25
-13
-7
-8
-16
-13
-20
-30
-9
-9
4
7
1
7
9
-4
1
7
10
-1
7
15
13
29
35
27
34
31
24
27
23
32
32
33
43
29
27
32
41
29
38
32
41
38
31
39
35
34
32
19
18
32
30
35
31
15
19
8
8
9
-2
2
8
5
4
-21
-23
-31
-12
-18
-13
-17
-14
-7
-12
-10
-29
-29
-16
-4
-14
-14
-18
-26
-18
-12
-20
-8
-17
-18
-20
-13
-9
-11
-10
-5
-14
-27
-29
-20
-12
-4
-3
-14
-8
0
-3
-9
-4
-13
1
-1
9
4
-16
-11
-9
-9
-6
-20
-13
-6
-5
-1
1
0
4
5
4
-3
-13
-19
4
6
-10
-2
-10
-14
-21
-23
-27
-28
-22
-5
-5
-39
-23
-34
-23
-27
-24
-34
-22
-21
-35
-40
-44
-36
-32
-18
-22
-23
-41
-34
-27
-29
-36
-30
-20
-11
-12
-12
-28
-30
-36
-33
-29
-27
-38
-38
-28
-18
-20
-39
-37
-28
-33
-26
-14
5
1
10
27
47
69
94
98
101
117
128
128
102
76
29
-3
-42
-78
-105
-106
-101
-81
-73
-68
-65
-58
-63
-51
-28
-21
-20
-23
-19
-16
-26
-25
-22
-26
-33
-33
-31
-28
-22
-19
-21
-32
-22
-34
-33
-31
-34
-32
-26
-37
-32
-21
-21
-11
-6
-8
-33
-35
-23
-20
-18
-21
-24
-23
-7
-1
-18
-14
-14
-16
-22
-4
-8
-6
-8
-7
-2
-4
-25
-20
-18
-16
-2
-1
-4
5
10
14
3
-1
4
9
13
14
8
22
28
27
33
23
34
30
8
28
30
31
32
23
37
43
36
30
51
64
34
29
28
57
54
40
24
17
29
33
24
9
12
20
23
19
9
0
-8
0
-4
-5
-10
-3
-3
-13
-14
-16
-12
-7
-22
-25
-10
-10
-15
-23
-25
-33
-17
-19
-23
-18
-12
-17
-10
3
-11
-22
-18
-16
-12
-14
-16
-19
-18
-19
-7
-22
-27
-8
-7
-21
-27
-21
-12
-21
-13
-14
-6
-13
-14
-11
-14
-6
-13
-13
-6
-2
-19
-32
-15
-14
-8
5
-2
-12
-1
-2
-2
-3
-8
-12
-5
2
-5
5
-1
1
0
5
11
11
10
8
-13
2
-6
-8
-5
-7
-19
-13
-12
-16
-19
-27
-21
-12
-19
-27
-27
-37
-22
-20
-13
-21
-25
-30
-31
-29
-28
-27
-17
-31
-23
-31
-39
-27
-18
-21
-26
-30
-21
-25
-25
-34
-26
-26
-25
-20
-33
-34
-35
-39
-31
-35
-24
-21
-40
-39
-44
-25
-28
-18
-12
-4
-13
0
11
30
42
77
92
106
106
99
112
88
73
40
5
-23
-45
-71
-87
-82
-87
-73
-76
-65
-49
-52
-50
-25
-29
-29
-40
-39
-30
-27
-18
-13
-24
-23
-29
-31
-24
-28
-36
-32
-23
-31
-33
-29
-25
-13
-17
-29
-29
-27
-27
-20
-23
-21
-20
-18
-32
-13
-2
-12
-31
-29
-14
-28
-19
-6
-10
-15
-10
-18
-10
-11
-11
-9
-2
0
-20
-8
-14
-21
-21
-2
1
-8
-2
2
1
-8
18
-1
16
34
22
7
7
14
17
11
21
29
26
24
26
33
39
36
28
20
35
40
43
42
36
40
47
38
40
25
40
36
28
31
35
17
20
25
22
16
13
21
9
2
-14
-15
-3
-5
-8
-5
0
-2
-6
-11
-20
-16
-13
-31
-25
-10
-10
-35
-20
-6
-13
-14
-14
-22
-14
-12
-10
-15
-15
-23
-21
-20
-18
-14
-5
-12
-17
-14
-22
-18
-8
-7
-19
-15
-17
-18
-22
-21
-43
-32
-9
-13
-17
-22
-16
-18
-28
-24
-3
-13
0
-15
-17
-24
-12
-21
-23
-11
3
-8
-22
-16
-14
-7
-3
-3
-12
-21
-19
-19
-35
-13
2
-4
11
12
6
-18
-11
7
2
-7
-17
3
6
2
-10
-4
6
-3
-12
-18
-15
-25
-15
-15
-30
-29
-30
-36
-27
-27
-26
-18
-13
-22
-27
-37
-18
-21
-30
-26
-18
-22
-30
-29
-31
-33
-30
-36
-17
-22
-34
-34
-35
-37
-42
-40
-38
-43
-31
-13
-30
-24
-31
-18
-35
-27
-34
-33
-38
-30
-25
-30
-24
-20
-7
-1
4
16
34
43
55
79
95
104
131
129
105
98
66
20
-19
-34
-62
-92
-100
-81
-78
-65
-49
-69
-63
-56
-50
-46
-48
-36
-21
-23
-26
-22
-29
-31
-35
-33
-20
-23
-26
-30
-27
-14
-25
-38
-26
-27
-23
-32
-32
-24
-18
-27
-29
-30
-20
-18
-13
-16
-28
-18
-22
-25
-18
-26
-20
-17
-17
-13
-14
-24
-35
-28
-27
-20
-5
-3
-12
-17
-1
-6
-4
-3
-10
0
0
-11
-14
-9
0
-10
-9
12
1
6
17
8
19
16
27
21
20
19
28
21
32
34
22
26
41
44
37
43
42
36
40
46
47
39
37
43
40
35
29
28
34
29
18
13
8
6
0
-1
8
2
-13
-30
-27
-20
-14
9
5
-12
-45
-32
-24
-20
-25
-27
-24
-30
-29
-35
-29
-12
-11
-22
-16
-29
-23
-25
-15
-21
-22
-25
-19
-20
-33
-22
-11
-16
-32
-30
-22
-22
-13
-22
-17
-21
-14
-32
-39
-34
-20
-27
-26
-21
-28
-20
-22
-5
-22
-26
-25
-28
-16
-20
-23
-23
-22
-21
-21
-17
-23
-3
-1
-12
-17
-20
1
-19
-22
-17
-20
-8
1
-13
-14
-13
0
4
-9
-9
-7
-5
-1
-8
-14
-12
-5
-7
-13
-9
-25
-23
-29
-31
-34
-33
-20
-25
-31
-40
-43
-41
-37
-27
-31
-36
-46
-37
-39
-42
-36
-38
-49
-49
-54
-45
-36
-52
-45
-36
-40
-26
-32
-38
-43
-42
-34
-35
-37
-31
-35
-41
-33
-39
-42
-30
-39
-34
-46
-53
-41
-36
-17
-17
-6
-3
9
20
41
54
83
88
89
105
106
99
86
42
9
-14
-56
-77
-104
-104
-98
-87
-77
-68
-61
-55
-46
-55
-58
-43
-46
-44
-35
-30
-43
-43
-40
-34
-26
-26
-33
-35
-33
-52
-41
-46
-30
-35
-23
-24
-23
-26
-28
-28
-25
-28
-25
-22
-31
-27
-18
-33
-41
-34
-27
-24
-49
-38
-32
-17
-24
-21
-35
-29
-29
-40
-23
-14
-18
-19
-25
-30
-20
-8
-21
-22
-14
-5
-16
-12
4
2
-2
-10
-1
-6
5
12
22
11
6
19
12
8
23
20
14
5
12
31
26
25
35
21
16
28
27
35
32
34
34
41
35
37
29
20
25
8
5
16
3
10
1
14
11
-13
-10
-10
-14
-16
-10
-19
-18
-18
-11
-2
-23
-32
-34
-27
-29
-29
-22
-28
-21
-25
-23
-35
-37
-28
-17
-29
-27
-26
-29
-14
-18
-31
-30
-37
-29
-25
-27
-33
-21
-20
-19
-29
-27
-28
-28
-21
-22
-27
-25
-27
-23
-22
-25
-25
-22
-22
-18
-23
-24
-25
-22
-20
-16
-25
-21
-18
-20
-7
-14
-18
-17
-6
-14
-16
-17
-19
-18
-15
2
0
-7
-4
-1
-1
-8
-12
-15
-11
0
-13
-17
-12
-6
-12
-15
-26
-34
-22
-30
-22
-15
-20
-30
-29
-35
-32
-40
-40
-30
-34
-29
-28
-32
-34
-37
-34
-32
-32
-31
-33
-24
-28
-30
-39
-43
-37
-30
-37
-36
-36
-30
-26
-44
-38
-39
-40
-34
-33
-33
-41
-29
-33
-33
-29
-29
-40
-24
-39
-26
-10
-6
-2
24
42
57
81
92
98
106
108
104
89
59
18
-14
-38
-75
-91
-92
-88
-98
-85
-72
-61
-43
-48
-61
-36
-29
-42
-43
-36
-31
-26
-34
-41
-34
-32
-28
-29
-27
-22
-25
-27
-35
-32
-25
-30
-20
-18
-15
-16
-24
-23
-30
-35
-25
-22
-22
-20
-16
-22
-20
-22
-24
-25
-22
-32
-38
-23
-19
-15
-15
-20
-10
-19
-19
-7
-12
-17
-6
-4
-5
-10
-7
-9
6
11
16
-19
-15
2
10
11
9
14
23
28
13
8
7
16
39
36
38
18
10
25
24
19
22
33
32
42
39
42
48
35
36
37
28
35
30
23
20
23
31
31
27
23
29
25
4
6
5
4
-2
-10
0
-10
-11
-4
-12
-14
-13
-17
-17
-17
-32
-18
-8
-17
-18
-17
-22
-18
-22
-24
-19
-26
-9
-14
-16
-21
-18
-13
0
-24
-22
-16
-16
-13
-17
-20
-24
-28
-23
-22
-12
-12
-17
-24
-15
0
-13
-17
-23
-25
-22
-14
-13
-12
-10
-3
-5
-12
-4
-6
-11
-5
-4
1
-4
1
-4
-3
-3
-6
1
6
6
-1
-3
-3
11
17
8
-2
-2
1
4
-7
-3
-4
-10
-10
-19
-26
-20
-17
-23
-18
-22
-28
-24
-19
-22
-24
-14
-15
-19
-27
-26
-22
-23
-30
-25
-31
-18
-15
-31
-28
-26
-28
-31
-35
-21
-19
-29
-21
-23
-21
-24
-14
-21
-28
-17
-23
-35
-36
-30
-20
-20
-21
-14
-8
-7
-8
1
11
23
42
63
91
86
101
126
145
121
95
78
30
0
-32
-64
-83
-85
-79
-73
-65
-64
-57
-47
-48
-35
-34
-39
-33
-14
-22
-28
-28
-28
-20
-16
-20
-12
-33
-29
-19
-18
-11
-21
-21
-23
-21
-34
-12
-16
-15
-17
-14
-9
-22
-25
-24
-15
-19
-13
-1
-9
-13
-13
-14
-2
4
-2
-3
-5
-10
-5
-11
-5
-1
-15
-10
-7
1
5
5
2
-8
0
5
-3
5
0
0
18
16
15
16
17
12
10
14
23
22
23
22
35
39
36
38
42
41
32
39
41
38
44
42
48
40
40
43
47
48
40
42
43
38
43
43
31
26
31
26
20
17
25
50
22
7
4
-6
-22
-13
-9
-15
-15
-10
-3
1
-1
-5
-11
-4
-6
-5
-9
-10
-12
-12
-11
-5
-9
-12
-14
-16
-18
-9
-7
-8
-3
-9
-17
-19
-28
0
2
-13
-20
-23
-12
-15
-21
-11
-11
-11
-8
-6
-13
-15
-7
-4
-5
-5
-5
-2
0
-5
0
-2
-2
3
9
12
7
-3
4
-2
9
11
3
0
6
-4
13
9
5
12
6
1
-6
2
6
2
-3
-3
-9
-8
-12
-22
-22
-19
-15
-4
-2
-3
-29
-23
-18
-19
-31
-18
-14
-12
-21
-32
-21
-32
-20
-18
-22
-23
-27
-19
-17
-19
-20
-22
-24
-24
-26
-28
-31
-41
-18
-23
-19
-20
-23
-24
-20
-17
-21
-22
-21
-40
-13
-28
-24
-6
-7
6
12
-3
14
38
55
86
102
101
113
129
122
119
100
55
11
-18
-45
-78
-86
-95
-80
-76
-67
-57
-55
-62
-43
-39
-18
-11
-20
-25
-29
-16
-17
-19
-23
-15
-14
-8
-11
-20
-17
-16
-21
-18
-16
-13
-16
-21
-20
-23
-17
-25
-16
-15
-8
-19
-24
-13
-5
-10
-9
-5
-4
-3
-6
-6
-7
-11
-9
-9
2
-12
-26
0
2
6
4
-3
-2
5
5
9
6
10
13
10
14
12
16
15
15
23
23
25
23
21
26
32
36
36
39
37
38
41
38
41
46
52
46
45
50
48
49
52
41
41
36
40
34
46
47
47
47
35
27
32
32
30
31
34
27
17
12
9
10
5
-4
8
10
7
10
-12
-1
-6
-9
-11
-1
-2
-13
-27
6
10
5
4
4
-11
-10
-11
-8
-9
-4
-3
-2
0
-7
-4
-2
-4
-13
0
8
-7
2
6
-11
-23
-3
5
15
-16
-15
-19
-9
4
0
-4
0
4
-3
3
-5
-3
-5
5
0
9
4
15
16
13
-2
-9
5
4
4
-6
5
12
19
24
26
30
20
17
16
27
9
-2
-3
9
14
1
-2
-7
10
1
-6
-5
-4
-2
-5
1
-3
-24
-22
-26
-1
-21
-12
-8
-6
-6
-11
-15
-12
-14
-13
-9
-1
-12
-13
-21
-12
0
-14
-14
-8
-7
-4
-22
-20
-20
-18
-4
1
-8
-8
-9
-8
-11
-17
-20
-6
3
-17
-39
-11
-10
2
7
-2
4
12
25
40
63
78
83
92
115
125
126
118
112
57
30
13
-25
-36
-58
-58
-54
-48
-47
-42
-32
-37
-30
-11
-11
-5
-16
-1
-1
-15
-14
-13
-2
6
-4
-9
-12
-12
-15
-15
-11
-10
-8
0
-6
-4
-7
-8
-8
-7
-6
1
5
6
-9
-15
-3
-3
1
-1
-4
-13
-4
1
-1
0
-1
6
-6
-2
-3
-5
-3
13
12
10
17
7
2
5
12
14
13
14
13
16
18
17
17
17
34
26
26
31
28
34
36
35
35
42
49
60
26
27
39
40
33
37
50
43
37
35
36
45
49
53
50
46
43
46
48
31
37
33
34
30
31
20
23
19
7
3
5
4
12
9
1
-6
-6
0
2
21
-2
-17
-7
-1
4
-8
-20
-1
-19
-6
-1
0
-3
-11
-5
-6
-3
-3
-4
2
-4
-1
-5
-7
-10
-13
-10
-10
-11
-4
1
-3
-9
-12
-19
-4
0
-2
3
4
-3
5
4
7
-2
-28
-20
-17
2
13
2
-3
4
4
4
-3
5
-4
-10
-15
-4
12
19
12
10
19
7
4
22
26
20
7
6
6
14
14
15
-2
0
0
2
-2
-2
-5
-5
-11
-18
-20
-21
-4
-5
-14
-13
-17
-20
-14
-21
-19
-22
-21
-17
-7
-15
-14
-13
1
-6
-9
-19
-16
-18
-19
-22
-4
-10
-21
-15
-10
-13
-4
-15
-12
-19
-14
-20
-20
-20
-15
-12
-14
-13
-12
-11
-17
-17
-15
-8
1
5
9
14
15
25
38
62
96
94
101
112
117
115
93
67
31
7
-9
-31
-48
-54
-52
-38
-37
-40
-38
-38
-39
-28
-20
-12
-11
-2
-8
-19
-21
-16
-12
-13
-17
-14
-13
-12
-8
-7
-1
-11
-2
-6
-10
-13
-21
-14
-10
-11
-11
-12
-10
-5
-4
-3
0
-3
-12
-16
-16
-15
-21
-8
-7
-9
-3
-4
-4
-7
-8
-1
-1
-5
-12
-1
-5
4
5
7
9
2
-1
1
6
20
17
14
10
16
26
30
18
15
13
21
22
28
27
33
33
27
22
26
31
34
34
26
26
32
32
29
42
45
40
35
37
35
32
22
34
39
32
30
23
32
26
26
13
6
5
4
5
8
4
-16
-11
-1
-1
5
-10
-9
-14
-15
-14
-12
-11
0
-6
-18
-12
-12
-18
-9
-6
-12
-16
-14
-13
-11
-2
2
-8
-8
-18
-13
-10
-14
-23
-14
-7
-19
-10
7
-15
-22
-19
-14
-20
-5
-13
-14
-9
-9
-6
-3
-18
-8
-12
-12
-17
-15
-12
-17
-14
-30
-18
-7
-4
-9
-11
-12
-10
-3
5
-11
-16
-14
-23
-28
-21
0
-6
-12
-16
-2
-12
-15
-5
-1
-19
-20
-10
-9
3
-5
-7
-10
-2
-6
-1
-2
2
5
3
0
1
0
-2
4
3
7
-1
-1
-15
-7
0
-12
-7
-10
-19
-27
-22
-21
-10
-1
-26
-22
-11
-24
-16
-24
-23
-32
-22
-21
-16
-27
-32
-24
-29
-25
-24
-19
-19
-24
-30
-19
-23
-18
-22
-23
-27
-16
-15
-16
-18
-21
-24
-23
-31
-23
-24
-30
-31
-20
-22
-18
-24
-20
-19
-24
-29
-24
-19
-12
-6
0
7
3
11
34
48
63
78
84
98
102
108
93
77
53
25
1
-19
-43
-63
-72
-77
-59
-44
-41
-42
-38
-34
-32
-26
-17
-26
-25
-31
-28
-30
-24
-21
-12
-18
-23
-20
-11
-11
-13
-26
-24
-27
-21
-11
-16
-19
-16
-22
-18
-14
-12
-8
-15
-14
-11
-23
-19
-18
-22
-21
-22
-37
-2
-3
-4
-9
-8
-3
-10
-5
-3
-3
-6
-6
-9
-12
-13
-6
-7
-9
-5
1
0
-1
-2
-3
-5
-6
3
19
11
13
14
20
20
20
20
23
26
25
26
32
30
31
26
26
25
25
46
48
38
37
34
34
33
27
27
28
17
19
25
20
20
19
21
17
17
10
14
3
0
-4
10
8
