-31
-26
-20
-27
-35
-32
-32
-41
-34
-30
-24
-28
-23
-30
-23
-21
-26
-30
-28
-23
-17
-20
-28
-24
-28
-26
-26
-27
-21
-28
-30
-22
-22
-25
-27
-27
-32
-34
-26
-27
-27
-26
-19
-22
-26
-23
-22
-22
-28
-35
-34
-25
-18
-31
-35
-32
-20
-15
-24
-28
-29
-29
-32
-28
-23
-25
-33
-37
-34
-34
-34
-33
-27
-18
-11
-14
-18
-24
-29
-29
-31
-33
-41
-41
-32
-27
-29
-29
-26
-24
-32
-19
-17
-22
-29
-25
-26
-32
-31
-30
-32
-32
-38
-40
-40
-37
-14
-20
-36
-32
-28
-31
-29
-29
-25
-16
-28
-31
-32
-37
-31
-26
-29
-26
-34
-33
-23
-32
-32
-34
-25
-28
-33
-30
-32
-31
-32
-27
-31
-37
-33
-32
-33
-35
-25
-25
-35
-24
-28
-32
-29
-32
-37
-36
-37
-41
-40
-32
-29
-27
-23
-22
-27
-32
-27
-31
-23
-30
-26
-27
-35
-36
-25
-17
-23
-29
-33
-28
-15
-28
-25
-25
-20
-15
-17
-32
-27
-29
-27
-23
-28
-23
-28
-31
-27
-29
-27
-27
-18
-14
-19
-23
-27
-34
-27
-36
-43
-38
-28
-27
-32
-35
-30
-42
-43
-29
-24
-23
-39
-38
-39
-40
-42
-44
-34
-33
-37
-34
-40
-46
-46
-47
-37
-23
-25
-37
-27
-28
-31
-37
-40
-26
-19
-19
-7
12
7
8
1
-9
-9
-30
-41
-43
-47
-41
-41
-56
-64
-67
-67
-60
-50
-50
-42
-31
-38
-34
-39
-37
-31
-29
-33
-28
-29
-31
-33
-34
-30
-33
-33
-31
-30
-24
-24
-28
-32
-34
-46
-45
-39
-40
-31
-26
-30
-26
-23
-27
-28
-18
-25
-30
-28
-21
-22
-25
-26
-31
-27
-20
-23
-22
-23
-16
-17
-26
-23
-25
-30
-23
-22
-24
-14
-14
-18
-20
-19
-21
-25
-28
-24
-16
-13
-10
-20
-23
-25
-26
-7
2
-8
-8
-5
-7
-1
4
-2
0
-12
-11
-9
-4
11
10
9
5
9
13
14
9
15
10
22
21
20
20
18
17
16
18
21
21
19
22
20
15
19
29
28
28
24
17
13
19
15
18
16
5
4
-1
-8
-13
4
3
-10
-12
-11
-15
-15
-13
-16
-22
-26
-33
-34
-37
-27
-27
-33
-28
-26
-26
-26
-35
-38
-26
-36
-30
-30
-36
-30
-32
-32
-29
-29
-31
-32
-40
-38
-33
-39
-36
-40
-34
-28
-33
-44
-44
-33
-29
-33
-33
-45
-48
-41
-31
-31
-28
-29
-25
-27
-29
-34
-34
-34
-33
-35
-33
-34
-27
-31
-31
-31
-35
-40
-27
-30
-33
-27
-28
-37
-33
-25
-34
-39
-34
-31
-23
-30
-25
-33
-38
-37
-38
-37
-29
-31
-36
-35
-28
-36
-40
-41
-25
-31
-34
-48
-46
-23
-28
-27
-28
-24
-28
-30
-31
-35
-35
-29
-33
-35
-29
-27
-37
-34
-34
-36
-50
-50
-36
-25
-30
-35
-42
-37
-24
-32
-39
-31
-35
-35
-38
-32
-37
-52
-41
-27
-27
-29
-30
-35
-31
-36
-36
-32
-28
-39
-34
-31
-34
-30
-27
-32
-44
-58
-46
-30
-28
-26
-26
-32
-30
-40
-35
-33
-32
-38
-33
-29
-44
-44
-28
-21
-30
-31
-28
-32
-39
-34
-34
-36
-34
-39
-36
-22
-27
-30
-31
-32
-34
-32
-28
-36
-38
-28
-31
-35
-28
-33
-35
-43
-36
-36
-32
-28
-33
-42
-33
-24
-20
-28
-30
-19
-21
-20
-24
-24
-26
-22
-26
-26
-24
-29
-27
-28
-21
-22
-19
-22
-27
-30
-34
-33
-29
-39
-40
-29
-22
-22
-28
-18
-19
-27
-26
-26
-30
-35
-31
-37
-35
-32
-43
-43
-42
-38
-47
-34
-35
-37
-26
-26
-32
-37
-35
-37
-40
-37
-31
-37
-39
-32
-36
-41
-51
-49
-29
-36
-35
-27
-31
-41
-39
-30
-15
2
8
12
22
20
5
4
-20
-22
-30
-36
-47
-55
-54
-67
-61
-56
-53
-44
-46
-47
-35
-32
-37
-42
-51
-27
-21
-19
-28
-30
-40
-35
-31
-31
-26
-33
-29
-37
-27
-28
-24
-28
-25
-27
-22
-30
-37
-35
-34
-25
-20
-31
-27
-29
-21
-22
-20
-24
-26
-23
-24
-24
-27
-30
-33
-36
-26
-25
-20
-24
-13
-12
-19
-19
-22
-23
-23
-19
-32
-26
-14
-10
-12
-16
-20
-15
-8
-23
-12
-14
-17
-14
-12
-12
-15
-17
-6
-11
-7
-5
0
-4
-8
-3
0
8
15
9
7
2
8
12
14
24
19
14
15
13
19
14
25
24
27
23
33
23
19
16
30
31
21
16
18
17
26
31
20
17
24
15
3
6
4
-3
-7
-1
7
5
6
-5
-11
-11
-17
-12
-10
-12
-21
-25
-21
-26
-25
-27
-28
-29
-25
-26
-26
-31
-37
-38
-36
-33
-41
-41
-37
-32
-33
-32
-34
-40
-32
-36
-39
-41
-35
-25
-31
-29
-30
-35
-34
-28
-37
-33
-33
-41
-44
-36
-37
-33
-40
-32
-29
-34
-31
-33
-29
-33
-33
-37
-36
-35
-40
-34
-26
-34
-37
-36
-28
-35
-36
-33
-40
-32
-25
-37
-46
-31
-25
-34
-27
-23
-36
-48
-39
-32
-30
-31
-28
-36
-32
-26
-29
-30
-37
-40
-31
-22
-35
-36
-32
-30
-26
-29
-24
-39
-48
-53
-44
-37
-24
-30
-36
-28
-29
-35
-36
-30
-30
-34
-30
-35
-37
-39
-37
-37
-40
-38
-44
-40
-22
-24
-33
-36
-38
-45
-38
-31
-43
-42
-36
-35
-32
-30
-25
-32
-35
-39
-37
-43
-43
-54
-43
-28
-38
-37
-35
-31
-33
-26
-27
-26
-33
-38
-37
-37
-38
-40
-38
-32
-30
-32
-37
-38
-38
-43
-43
-43
-39
-32
-36
-43
-37
-35
-32
-35
-29
-37
-37
-38
-44
-57
-49
-28
-31
-39
-33
-41
-31
-22
-31
-35
-37
-33
-31
-34
-40
-39
-40
-42
-41
-36
-34
-30
-36
-39
-35
-43
-50
-37
-32
-36
-39
-33
-26
-41
-24
-22
-32
-29
-23
-25
-31
-28
-27
-26
-26
-26
-39
-48
-29
-24
-15
-32
-31
-33
-36
-32
-33
-27
-29
-23
-29
-27
-29
-33
-32
-36
-33
-23
-29
-34
-35
-40
-38
-45
-43
-43
-46
-41
-40
-44
-38
-40
-43
-45
-38
-34
-37
-46
-40
-44
-44
-43
-35
-37
-36
-45
-53
-32
-34
-33
-34
-35
-41
-37
-35
-38
-37
-26
-17
-14
-1
6
6
5
-8
-11
-25
-30
-39
-43
-35
-35
-50
-65
-65
-60
-52
-53
-46
-57
-46
-40
-38
-35
-32
-38
-38
-41
-36
-33
-35
-38
-36
-35
-38
-36
-34
-31
-28
-34
-33
-33
-30
-34
-30
-30
-34
-33
-32
-30
-35
-39
-38
-26
-29
-28
-29
-25
-32
-34
-33
-40
-47
-42
-23
-20
-26
-20
-22
-22
-34
-43
-39
-27
-19
-28
-36
-30
-27
-17
-20
-12
-16
-16
-20
-17
-20
-15
-18
-16
-18
-19
-22
-16
-12
-16
-16
-14
-2
-3
-12
-11
-14
-11
-7
-7
-15
-20
-10
12
15
6
0
-2
13
9
18
19
15
22
17
16
19
18
16
23
13
20
24
24
19
27
29
18
11
13
14
9
12
9
8
1
-8
-9
-12
-1
-5
2
-11
-14
-19
-15
-5
-12
-20
-23
-15
-26
-31
-30
-26
-33
-36
-29
-26
-37
-44
-40
-39
-42
-31
-34
-37
-44
-40
-43
-31
-29
-42
-45
-43
-51
-41
-36
-41
-49
-44
-36
-41
-22
-28
-41
-39
-46
-41
-34
-35
-39
-38
-40
-42
-40
-45
-52
-48
-37
-35
-35
-41
-38
-37
-39
-41
-37
-40
-35
-38
-45
-56
-56
-48
-41
-41
-27
-24
-30
-32
-33
-34
-35
-42
-42
-46
-46
-40
-39
-33
-37
-32
-36
-35
-43
-44
-40
-38
-40
-47
-42
-34
-41
-40
-45
-53
-35
-32
-41
-49
-42
-33
-37
-38
-37
-29
-38
-40
-32
-38
-44
-43
-48
-40
-36
-32
-30
-40
-44
-44
-46
-47
-52
-61
-60
-46
-38
-32
-41
-35
-35
-34
-32
-38
-39
-46
-59
-49
-41
-43
-39
-37
-36
-37
-37
-46
-43
-48
-42
-49
-51
-52
-40
-44
-46
-36
-38
-43
-40
-44
-51
-37
-33
-43
-41
-48
-49
-38
-45
-56
-53
-42
-36
-38
-40
-38
-39
-43
-41
-39
-48
-57
-48
-43
-42
-47
-50
-53
-54
-38
-26
-36
-32
-40
-37
-43
-50
-48
-41
-40
-41
-41
-36
-34
-47
-46
-52
-53
-43
-43
-39
-48
-44
-33
-30
-36
-33
-41
-40
-39
-47
-47
-53
-33
-27
-25
-26
-35
-39
-35
-26
-25
-32
-44
-49
-42
-36
-32
-24
-34
-29
-29
-46
-47
-42
-40
-40
-38
-46
-44
-41
-44
-47
-53
-49
-46
-48
-58
-51
-47
-39
-44
-53
-50
-43
-44
-44
-45
-44
-43
-42
-44
-52
-48
-43
-43
-48
-48
-41
-46
-47
-48
-42
-47
-42
-41
-33
-19
0
1
6
12
9
-6
-24
-39
-53
-43
-46
-53
-70
-76
-78
-86
-77
-71
-72
-62
-60
-45
-35
-38
-45
-42
-42
-40
-44
-39
-45
-39
-47
-39
-50
-42
-37
-38
-40
-46
-48
-44
-38
-40
-37
-41
-40
-35
-31
-35
-37
-35
-48
-39
-32
-30
-27
-24
-35
-38
-39
-38
-36
-34
-34
-31
-31
-35
-41
-35
-35
-29
-29
-33
-25
-33
-37
-30
-29
-34
-29
-27
-19
-20
-23
-13
-23
-21
-22
-29
-25
-27
-30
-32
-28
-18
-21
-25
-15
5
-1
-9
-9
-13
-14
-12
-15
-7
-7
-12
-1
8
13
13
9
7
14
13
10
15
16
15
12
12
12
17
14
6
8
21
30
19
12
10
4
14
24
13
10
11
4
5
3
6
0
3
-2
-11
-11
-14
-9
-17
-20
-20
-25
-26
-32
-34
-40
-35
-33
-36
-36
-41
-52
-64
-56
-45
-23
-31
-34
-27
-31
-36
-35
-46
-47
-50
-36
-42
-43
-42
-46
-47
-45
-51
-51
-40
-42
-42
-47
-39
-39
-39
-42
-38
-42
-42
-44
-46
-45
-45
-42
-41
-40
-44
-49
-44
-43
-45
-44
-50
-49
-37
-35
-43
-43
-48
-50
-44
-45
-41
-42
-46
-50
-37
-53
-66
-61
-35
-23
-29
-38
-36
-34
-40
-43
-41
-42
-38
-40
-42
-40
-43
-44
-46
-48
-39
-36
-41
-40
-34
-36
-41
-46
-47
-43
-43
-43
-43
-42
-43
-53
-50
-44
-57
-48
-31
-26
-38
-42
-43
-42
-42
-41
-47
-37
-52
-45
-44
-46
-42
-50
-53
-42
-39
-35
-42
-45
-47
-44
-52
-49
-50
-43
-48
-44
-43
-46
-44
-48
-50
-51
-47
-34
-44
-43
-41
-35
-40
-47
-39
-38
-42
-44
-45
-47
-44
-48
-49
-42
-45
-48
-44
-46
-44
-46
-51
-50
-40
-42
-48
-54
-51
-48
-43
-45
-37
-43
-49
-47
-40
-54
-54
-54
-42
-34
-39
-41
-37
-45
-46
-43
-41
-47
-48
-44
-40
-40
-34
-39
-44
-41
-35
-35
-34
-38
-39
-40
-41
-41
-39
-39
-44
-37
-34
-37
-38
-38
-40
-52
-51
-50
-51
-51
-41
-20
-11
-23
-30
-33
-35
-38
-38
-47
-43
-37
-42
-48
-47
-50
-51
-53
-54
-53
-48
-41
-50
-48
-47
-47
-42
-38
-37
-50
-52
-47
-42
-51
-47
-52
-50
-43
-51
-53
-53
-51
-54
-42
-36
-32
-38
-32
-21
-24
-14
-8
0
-1
-12
-18
-31
-38
-32
-42
-44
-47
-52
-65
-66
-68
-72
-68
-63
-55
-41
-43
-48
-48
-45
-42
-42
-41
-38
-43
-43
-45
-49
-42
-32
-33
-35
-48
-52
-54
-49
-39
-37
-40
-30
-40
-41
-45
-32
-32
-29
-30
-41
-41
-33
-38
-34
-39
-35
-33
-39
-35
-38
-34
-26
-31
-29
-35
-38
-34
-32
-36
-46
-33
-28
-38
-35
-25
-24
-27
-29
-30
-22
-33
-31
-39
-35
-26
-32
-30
-20
-19
-15
-16
-20
-21
-27
-35
-36
-33
-15
-12
-12
-1
-10
-17
-11
-10
-6
4
7
7
9
3
5
3
4
9
8
3
12
14
3
-3
12
15
10
12
13
13
22
21
4
-6
4
8
9
10
10
10
8
4
2
3
-12
-10
-12
-14
-13
-14
-20
-19
-17
-21
-16
-24
-32
-36
-35
-31
-35
-32
-33
-38
-38
-42
-38
-44
-48
-44
-48
-35
-38
-36
-35
-39
-41
-40
-39
-42
-43
-41
-44
-45
-52
-62
-48
-44
-48
-38
-39
-50
-44
-40
-46
-40
-30
-36
-43
-41
-42
-41
-39
-40
-41
-42
-37
-40
-46
-40
-37
-42
-43
-47
-44
-47
-33
-43
-43
-37
-46
-51
-61
-51
-47
-36
-34
-36
-37
-41
-42
-39
-33
-39
-41
-38
-41
-40
-36
-31
-38
-42
-35
-44
-48
-40
-35
-46
-50
-47
-37
-29
-32
-44
-36
-40
-51
-40
-33
-41
-45
-43
-39
-43
-46
-50
-46
-39
-43
-43
-36
-38
-42
-40
-36
-44
-45
-53
-54
-45
-47
-34
-37
-41
-39
-46
-47
-44
-39
-51
-47
-41
-51
-44
-38
-38
-47
-46
-37
-34
-45
-44
-45
-45
-40
-40
-47
-47
-34
-33
-42
-44
-43
-45
-44
-41
-37
-38
-40
-41
-41
-47
-45
-44
-45
-52
-43
-41
-44
-47
-47
-40
-42
-43
-39
-40
-36
-39
-39
-43
-38
-32
-46
-46
-45
-44
-45
-58
-46
-50
-44
-46
-34
-29
-38
-35
-38
-44
-51
-34
-31
-34
-32
-39
-39
-31
-36
-41
-42
-37
-38
-44
-38
-45
-36
-29
-27
-32
-36
-35
-37
-42
-44
-48
-37
-30
-29
-34
-34
-37
-35
-39
-40
-34
-35
-31
-33
-36
-38
-52
-60
-60
-57
-39
-44
-42
-52
-54
-47
-30
-41
-38
-42
-42
-48
-44
-49
-47
-44
-41
-44
-47
-43
-53
-49
-50
-49
-55
-53
-52
-43
-43
-37
-48
-37
-23
-11
-12
-7
-7
-5
-13
-22
-32
-45
-38
-42
-38
-39
-56
-55
-58
-64
-66
-68
-47
-50
-48
-54
-54
-46
-47
-30
-27
-34
-41
-42
-34
-29
-33
-34
-41
-46
-44
-50
-40
-35
-40
-35
-36
-40
-41
-41
-43
-42
-36
-48
-41
-36
-17
-29
-31
-38
-38
-42
-34
-34
-37
-28
-24
-30
-34
-36
-40
-40
-31
-27
-30
-31
-25
-30
-26
-28
-27
-26
-37
-32
-36
-34
-28
-29
-33
-37
-37
-25
-13
-14
-17
-19
-21
-20
-14
-21
-16
-22
-21
-21
-25
-23
-19
-14
-14
-9
-8
-5
-6
-17
-4
-5
2
-6
7
7
6
-3
0
-1
10
5
8
5
13
20
11
12
14
13
15
17
8
10
2
8
8
4
8
10
3
-3
-6
-11
-9
-8
-6
5
-2
-12
-17
-19
-24
-22
-30
-39
-27
-25
-28
-38
-42
-36
-35
-36
-40
-42
-35
-36
-40
-36
-36
-40
-50
-43
-35
-46
-51
-44
-41
-45
-42
-38
-42
-47
-40
-47
-39
-54
-58
-50
-47
-29
-25
-44
-38
-37
-46
-43
-38
-45
-42
-39
-50
-43
-35
-41
-52
-47
-36
-47
-39
-41
-48
-45
-40
-40
-32
-38
-37
-44
-43
-39
-39
-41
-36
-28
-35
-41
-44
-41
-46
-45
-52
-44
-35
-42
-36
-35
-36
-42
-51
-33
-40
-41
-47
-58
-54
-48
-46
-44
-52
-52
-44
-46
-26
-31
-33
-36
-42
-35
-42
-50
-44
-42
-39
-38
-44
-50
-47
-42
-51
-47
-38
-44
-43
-38
-40
-41
-46
-43
-44
-40
-48
-52
-50
-51
-37
-46
-46
-51
-35
-40
-43
-44
-42
-45
-46
-48
-52
-43
-40
-43
-43
-41
-48
-45
-43
-48
-40
-40
-40
-49
-43
-43
-47
-43
-35
-46
-49
-51
-46
-45
-49
-37
-35
-42
-51
-40
-49
-52
-40
-38
-42
-35
-44
-43
-42
-47
-45
-47
-49
-48
-43
-38
-48
-44
-43
-42
-45
-40
-42
-43
-51
-49
-35
-37
-43
-42
-44
-47
-48
-43
-37
-41
-44
-42
-49
-47
-44
-44
-45
-45
-53
-50
-44
-48
-48
-39
-28
-37
-36
-38
-36
-37
-40
-36
-39
-46
-37
-32
-42
-41
-38
-33
-28
-32
-30
-31
-26
-36
-44
-44
-32
-34
-48
-48
-48
-34
-34
-36
-40
-35
-34
-40
-38
-37
-48
-41
-42
-45
-45
-45
-36
-43
-51
-44
-49
-43
-45
-45
-53
-42
-34
-40
-42
-45
-40
-50
-48
-45
-45
-45
-43
-47
-48
-46
-38
-45
-51
-53
-54
-48
-41
-39
-38
-41
-38
-26
-17
-17
-15
-7
-8
-14
-21
-29
-50
-46
-41
-50
-43
-49
-69
-83
-74
-60
-56
-51
-48
-45
-40
-41
-35
-40
-42
-42
-40
-42
-41
-45
-43
-42
-35
-40
-31
-24
-40
-43
-34
-37
-43
-49
-46
-36
-25
-31
-37
-32
-31
-35
-34
-33
-32
-48
-43
-39
-36
-43
-32
-27
-31
-24
-24
-30
-31
-36
-38
-36
-29
-37
-41
-33
-31
-40
-32
-15
-19
-28
-22
-25
-24
-27
-25
-31
-24
-30
-32
-22
-20
-21
-15
-23
-16
-19
-15
-21
-18
-15
-17
-14
-9
-17
-7
-12
-10
-8
-3
-6
0
5
-1
-4
-6
0
16
13
10
10
5
-5
7
15
11
16
20
24
20
17
17
5
12
21
18
16
13
17
14
15
5
0
-8
1
4
-1
-1
-14
-6
3
-4
-11
-13
-12
-16
-25
-25
-25
-24
-32
-44
-53
-30
-12
-24
-34
-36
-27
-38
-42
-38
-37
-39
-44
-42
-45
-35
-32
-36
-35
-34
-33
-35
-37
-42
-48
-52
-51
-41
-37
-40
-40
-34
-36
-40
-39
-46
-44
-31
-32
-38
-35
-40
-41
-36
-36
-51
-44
-35
-34
-40
-42
-42
-29
-35
-41
-36
-36
-41
-42
-44
-41
-33
-30
-33
-34
-29
-31
-42
-42
-45
-35
-40
-43
-31
-35
-41
-35
-37
-45
-41
-40
-35
-37
-41
-46
-47
-32
-35
-29
-34
-35
-44
-42
-37
-29
-32
-36
-39
-40
-41
-42
-42
-37
-33
-37
-28
-34
-41
-42
-43
-40
-42
-38
-41
-39
-37
-33
-34
-42
-42
-39
-39
-39
-36
-40
-35
-39
-48
-53
-42
-42
-39
-35
-40
-44
-40
-44
-35
-36
-40
-42
-47
-38
-35
-33
-42
-41
-42
-37
-38
-42
-35
-44
-42
-44
-31
-34
-40
-40
-38
-41
-39
-44
-42
-49
-34
-38
-40
-37
-37
-41
-35
-35
-37
-40
-43
-43
-39
-42
-49
-46
-41
-41
-32
-26
-36
-39
-40
-37
-38
-38
-37
-43
-45
-41
-39
-37
-38
-41
-44
-43
-40
-43
-46
-46
-43
-34
-34
-33
-33
-36
-43
-38
-35
-38
-46
-42
-41
-39
-46
-38
-37
-39
-24
-34
-38
-36
-29
-30
-33
-36
-36
-42
-31
-26
-27
-24
-26
-29
-30
-27
-35
-44
-48
-45
-37
-36
-41
-35
-28
-21
-31
-30
-34
-35
-34
-32
-30
-40
-31
-41
-39
-40
-32
-40
-47
-43
-44
-45
-48
-48
-38
-37
-33
-38
-40
-42
-45
-50
-46
-42
-41
-42
-43
-43
-46
-45
-38
-38
-45
-37
-37
-38
-34
-36
-50
-41
-38
-31
-19
-2
0
3
7
-4
-27
-32
-31
-43
-47
-44
-59
-64
-69
-70
-66
-56
-62
-53
-54
-45
-41
-35
-30
-28
-35
-40
-41
-38
-31
-26
-34
-33
-25
-38
-39
-29
-28
-33
-31
-30
-36
-32
-34
-38
-39
-38
-35
-34
-31
-31
-33
-33
-29
-33
-23
-18
-29
-36
-32
-30
-22
-25
-30
-33
-29
-30
-25
-24
-24
-19
-17
-22
-23
-24
-28
-21
-25
-23
-27
-24
-20
-23
-14
-23
-21
-21
-21
-11
-10
-12
-15
-17
-10
-12
-25
-20
-15
-3
8
3
-9
-6
-4
0
1
2
1
7
17
10
9
10
10
12
14
17
13
13
19
20
20
23
23
24
25
19
27
26
26
27
23
29
20
15
14
8
12
13
22
24
16
26
15
6
6
-2
-6
-8
0
-11
-14
-15
-25
-13
-13
-11
-19
-16
-16
-16
-18
-29
-27
-36
-27
-31
-29
-27
-30
-28
-28
-36
-32
-32
-38
-33
-26
-36
-32
-33
-25
-25
-40
-43
-32
-24
-28
-25
-35
-40
-32
-24
-27
-30
-37
-28
-33
-24
-26
-30
-23
-30
-34
-36
-30
-26
-30
-27
-23
-26
-25
-29
-36
-25
-34
-38
-33
-30
-26
-25
-28
-36
-31
-37
-26
-31
-36
-18
-23
-26
-28
-22
-21
-29
-26
-26
-34
-29
-27
-22
-35
-31
-32
-30
-33
-29
-38
-36
-31
-22
-14
-21
-30
-31
-30
-24
-22
-28
-36
-31
-31
-34
-33
-33
-33
-34
-31
-28
-30
-34
-32
-25
-31
-33
-25
-30
-32
-34
-29
-28
-36
-40
-43
-33
-26
-20
-33
-31
-33
-32
-33
-38
-25
-26
-26
-42
-49
-37
-38
-37
-31
-25
-31
-31
-26
-27
-33
-36
-35
-35
-33
-30
-31
-29
-30
-32
-35
-34
-32
-35
-32
-35
-21
-30
-35
-37
-35
-26
-35
-40
-39
-27
-28
-28
-38
-46
-41
-31
-23
-30
-28
-31
-33
-38
-31
-38
-30
-32
-33
-38
-34
-32
-29
-30
-43
-45
-40
-26
-31
-25
-30
-27
-26
-35
-31
-39
-32
-32
-29
-33
-31
-33
-40
-36
-29
-31
-38
-33
-22
-21
-24
-21
-29
-29
-29
-27
-22
-29
-34
-29
-24
-32
-26
-22
-27
-28
-30
-22
-25
-29
-26
-29
-30
-34
-29
-37
-31
-18
-11
-20
-21
-17
-28
-25
-31
-26
-29
-29
-28
-32
-33
-33
-44
-40
-41
-37
-34
-35
-31
-32
-31
-43
-37
-39
-42
-38
-34
-37
-40
-39
-36
-39
-44
-36
-32
-33
-27
-35
-36
-25
-23
-30
-26
-22
-23
-12
-17
-2
4
4
10
9
-5
-30
-39
-49
-51
-40
-48
-60
-71
-65
-54
-54
-53
-50
-40
-37
-32
-35
-39
-42
-30
-25
-29
-28
-22
-32
-37
-20
-26
-44
-35
-30
-26
-29
-24
-26
-28
-25
-29
-24
-29
-31
-31
-25
-18
-32
-32
-31
-36
-23
-22
-19
-17
-15
-26
-32
-27
-24
-16
-20
-25
-20
-20
-23
-22
-29
-16
-20
-14
-25
-27
-20
-23
-12
-11
-18
-14
-20
-14
-9
-8
-15
-26
-23
-20
-22
-8
-2
-5
-1
12
-1
-3
-6
-3
-5
3
-3
-2
0
-5
-3
-1
6
14
16
20
17
17
21
13
11
7
24
31
28
22
22
22
28
31
21
23
21
30
38
23
24
21
22
28
23
29
30
23
19
16
12
10
12
1
-4
-2
6
4
-5
-6
-5
-9
-15
-17
-16
-19
-15
-27
-30
-28
-21
-23
-16
-29
-26
-25
-30
-36
-33
-27
-29
-24
-25
-34
-38
-28
-25
-31
-39
-33
-34
-31
-27
-32
-37
-25
-18
-21
-30
-32
-35
-34
-40
-33
-33
-26
-29
-29
-30
-30
-39
-48
-41
-24
-20
-28
-20
-33
-25
-27
-26
-35
-22
-21
-34
-36
-35
-28
-23
-26
-31
-24
-27
-31
-25
-28
-26
-27
-27
-33
-30
-38
-36
-38
-33
-26
-33
-22
-17
-22
-24
-22
-25
-40
-33
-30
-30
-35
-33
-32
-34
-25
-27
-37
-42
-21
-22
-24
-22
-26
-29
-28
-27
-26
-26
-37
-35
-32
-28
-26
-26
-29
-34
-37
-38
-29
-29
-28
-21
-31
-29
-31
-40
-38
-33
-27
-35
-34
-32
-32
-35
-28
-21
-28
-28
-34
-37
-31
-32
-30
-34
-24
-27
-30
-24
-29
-33
-28
-27
-25
-26
-32
-30
-36
-40
-42
-29
-20
-27
-28
-36
-35
-28
-29
-30
-36
-37
-42
-28
-27
-34
-29
-30
-29
-32
-30
-33
-40
-43
-34
-20
-25
-28
-25
-19
-33
-40
-34
-33
-31
-27
-28
-31
-31
-29
-34
-33
-32
-31
-28
-39
-43
-35
-28
-25
-23
-17
-20
-28
-36
-32
-24
-27
-31
-34
-30
-24
-24
-18
-14
-16
-13
-11
-28
-22
-18
-25
-27
-26
-31
-24
-25
-25
-23
-24
-17
-18
-21
-26
-27
-27
-21
-36
-32
-26
-30
-29
-34
-41
-42
-38
-30
-28
-40
-37
-50
-34
-19
-25
-38
-37
-34
-42
-32
-32
-35
-30
-37
-33
-32
-30
-41
-47
-32
-22
-30
-32
-20
-26
-32
-31
-14
-19
-4
10
19
16
21
14
-7
-26
-35
-27
-23
-30
-46
-52
-62
-64
-64
-71
-49
-42
-31
-39
-30
-27
-30
-27
-27
-31
-33
-29
-24
-28
-28
-37
-29
-24
-24
-26
-26
-32
-21
-25
-20
-23
-23
-28
-25
-24
-17
-29
-34
-24
-25
-25
-22
-27
-22
-20
-24
-21
-6
-14
-21
-19
-16
-21
-18
-21
-20
-21
-20
-18
-25
-21
-23
-19
-18
-12
-19
-15
-7
-7
-7
-11
-8
-13
-14
-8
-11
-8
-6
-2
3
-5
-6
-4
-6
-5
-5
-2
-4
-2
2
9
13
12
8
14
11
13
13
12
21
23
20
21
24
27
24
27
30
29
27
34
36
29
32
34
30
33
41
30
38
31
29
31
36
32
33
28
28
19
21
16
13
9
13
4
-1
11
11
3
-5
-4
-5
-3
-9
-15
-14
-16
-15
-14
-23
-24
-18
-19
-22
-33
-20
-22
-27
-25
-24
-24
-33
-29
-27
-24
-25
-19
-23
-24
-28
-27
-23
-27
-33
-38
-29
-22
-25
-34
-38
-35
-27
-15
-21
-37
-31
-36
-29
-28
-30
-30
-27
-19
-21
-34
-30
-23
-27
-33
-31
-30
-24
-25
-25
-17
-17
-19
-31
-27
-28
-12
-15
-25
-27
-29
-23
-25
-24
-18
-33
-33
-25
-31
-44
-28
-18
-6
-19
-20
-17
-15
-20
-28
-24
-33
-33
-30
-28
-21
-27
-27
-20
-29
-34
-29
-20
-21
-26
-25
-29
-28
-24
-29
-38
-40
-34
-14
-21
-25
-27
-21
-27
-37
-46
-42
-25
-18
-21
-23
-21
-17
-24
-19
-19
-25
-37
-33
-33
-29
-31
-32
-37
-33
-36
-25
-14
-26
-27
-25
-28
-23
-26
-28
-39
-45
-40
-38
-26
-19
-14
-19
-23
-22
-31
-37
-33
-29
-28
-33
-32
-28
-22
-26
-28
-26
-25
-28
-33
-39
-39
-39
-35
-34
-25
-16
-24
-27
-30
-25
-26
-30
-33
-26
-29
-29
-23
-23
-32
-23
-20
-26
-26
-26
-37
-34
-27
-27
-24
-22
-19
-25
-26
-21
-20
-19
-17
-14
-15
-18
-20
-24
-18
-20
-21
-15
-14
-25
-28
-20
-21
-26
-32
-45
-39
-30
-25
-9
-13
-11
-14
-19
-11
-16
-24
-21
-26
-23
-33
-37
-30
-37
-31
-33
-34
-36
-33
-27
-25
-24
-33
-38
-29
-30
-28
-26
-27
-30
-33
-27
-28
-29
-30
-34
-35
-42
-37
-49
-37
-18
-17
-26
-13
-13
-9
3
20
30
30
26
17
-1
-15
-33
-31
-33
-27
-54
-67
-65
-63
-52
-44
-46
-42
-34
-33
-33
-27
-27
-33
-26
-24
-31
-28
-20
-26
-35
-43
-37
-19
-14
-20
-22
-25
-20
-19
-23
-22
-18
-23
-26
-13
-22
-22
-17
-14
-19
-14
-23
-21
-26
-25
-23
-25
-14
-12
-18
-15
-15
-15
-17
-24
-19
-19
-12
-19
-19
-23
-14
-13
5
-5
-16
-19
-25
-14
-5
0
-1
-5
-6
-2
-7
-5
-4
-8
-3
-4
-8
-12
-3
2
6
11
7
8
7
8
8
11
15
11
15
13
15
24
28
24
20
25
32
35
32
25
29
26
33
42
34
38
44
38
29
28
32
32
28
21
28
21
17
32
38
37
37
23
20
19
13
14
12
7
10
14
9
4
3
4
-1
-4
-9
-17
-17
-8
-16
-24
-19
-19
-16
-26
-25
-21
-19
-21
-23
-19
-26
-27
-30
-33
-29
-32
-40
-40
-37
-27
-6
-11
-21
-21
-17
-22
-26
-23
-26
-24
-27
-24
-28
-35
-39
-34
-17
-12
-16
-25
-28
-25
-24
-32
-34
-27
-23
-18
-19
-27
-22
-37
-35
-19
-28
-19
-16
-17
-17
-20
-18
-21
-30
-32
-28
-27
-29
-21
-30
-23
-17
-20
-26
-20
-15
-23
-18
-20
-26
-34
-18
-24
-32
-21
-20
-22
-28
-25
-18
-12
-18
-28
-31
-20
-17
-22
-37
-34
-31
-22
-12
-17
-22
-22
-23
-27
-32
-36
-35
-31
-24
-24
-33
-23
-19
-23
-28
-30
-25
-27
-18
-27
-22
-22
-22
-23
-26
-31
-39
-33
-24
-17
-26
-29
-29
-23
-15
-20
-21
-26
-29
-32
-29
-20
-21
-30
-32
-31
-32
-22
-28
-25
-23
-21
-25
-28
-20
-21
-21
-21
-28
-36
-36
-39
-33
-26
-21
-17
-21
-20
-32
-30
-32
-31
-35
-17
-2
-16
-23
-22
-19
-29
-29
-19
-22
-13
-19
-16
-24
-7
-14
-17
-18
-16
-20
-20
-20
-28
-23
-25
-21
-22
-19
-14
-13
-17
-13
-18
-22
-19
-20
-22
-31
-45
-42
-26
-26
-26
-30
-32
-18
-29
-28
-24
-29
-37
-43
-31
-31
-34
-24
-28
-26
-27
-34
-35
-25
-32
-35
-37
-36
-17
-23
-27
-28
-35
-34
-29
-29
-25
-18
-11
-3
3
13
20
35
31
13
-3
-15
-23
-24
-20
-35
-53
-60
-62
-63
-62
-58
-61
-54
-42
-41
-34
-26
-27
-24
-23
-29
-28
-26
-29
-29
-29
-24
-20
-22
-25
-22
-25
-22
-19
-24
-16
-26
-26
-20
-23
-32
-35
-26
-26
-30
-21
-26
-26
-10
-4
-18
-17
-14
-17
-19
-16
-18
-23
-19
-11
-10
-17
-17
-14
-13
-10
-12
-15
-14
-19
-22
-17
-12
-24
-29
-20
-12
0
0
0
-8
-15
-14
-16
3
0
11
1
4
9
-2
-1
7
1
10
10
11
5
7
7
11
10
17
13
18
18
16
18
24
26
28
31
31
29
24
32
38
39
35
32
38
40
36
37
36
31
37
36
37
39
31
31
26
21
22
22
19
14
7
3
-5
-1
-6
-5
0
6
1
2
-2
-9
-11
-11
-10
-19
-21
-35
-31
-26
-26
-34
-30
-12
-16
-16
-20
-21
-23
-19
-18
-28
-36
-30
-28
-28
-26
-29
-24
-15
-19
-24
-26
-16
-26
-31
-34
-29
-35
-34
-37
-38
-25
-16
-25
-41
-44
-16
-31
-29
-23
-18
-22
-19
-22
-19
-29
-28
-25
-23
-19
-29
-31
-27
-30
-27
-22
-31
-27
-18
-21
-37
-29
-14
-23
-26
-23
-22
-18
-17
-19
-23
-29
-30
-30
-27
-26
-22
-21
-27
-25
-28
-29
-25
-29
-21
-19
-22
-25
-23
-22
-26
-27
-29
-25
-32
-28
-23
-20
-12
-25
-20
-38
-25
-31
-24
-26
-31
-23
-21
-27
-29
-23
-21
-26
-22
-35
-35
-36
-38
-38
-30
-17
-17
-24
-27
-27
-27
-22
-23
-24
-28
-28
-30
-29
-22
-22
-31
-30
-32
-31
-26
-27
-22
-23
-28
-20
-29
-26
-29
-28
-36
-31
-24
-15
-13
-18
-24
-18
-14
-22
-18
-15
-16
-18
-16
-14
-24
-20
-19
-22
-28
-11
-7
-13
-15
-19
-21
-23
-25
-22
-20
-22
-19
-22
-8
-9
-12
-15
-21
-25
-19
-21
-28
-39
-29
-21
-26
-26
-30
-28
-25
-26
-28
-31
-26
-33
-33
-29
-37
-47
-38
-27
-25
-30
-22
-25
-24
-28
-24
-29
-28
-29
-30
-28
-15
-19
-23
-20
-16
-13
-9
2
9
25
40
33
19
10
-8
-27
-29
-33
-36
-54
-61
-62
-63
-51
-43
-42
-36
-32
-39
-36
-38
-23
-16
-20
-21
-25
-25
-18
-17
-21
-17
-25
-24
-20
-25
-30
-39
-37
-27
-14
-5
-12
-13
-14
-6
-8
-14
-16
-21
-17
-22
-15
-13
-16
-15
-16
-24
-14
-8
-8
-15
-14
-9
-14
-18
-12
-10
-11
-11
-9
-2
-13
-10
-4
-7
-9
-9
-11
-8
-6
-4
-5
-4
-5
-5
0
-2
-4
-1
7
7
6
5
6
10
-1
-11
-2
14
13
15
8
20
24
19
14
21
25
25
27
35
31
37
39
36
37
29
37
32
44
37
43
40
36
37
37
46
43
47
50
48
38
39
42
35
21
26
26
33
35
29
23
28
17
11
10
5
6
4
3
2
0
0
1
-6
-6
-8
-13
-14
-18
-14
-15
-9
-10
-17
-25
-24
-20
-21
-20
-18
-14
-15
-19
-17
-15
-23
-19
-17
-19
-20
-19
-17
-19
-24
-23
-18
-26
-26
-14
-14
-16
-17
-22
-18
-13
-22
-22
-18
-18
-24
-25
-19
-20
-20
-19
-19
-27
-24
-20
-12
-17
-27
-12
-18
-17
-16
-17
-22
-24
-28
-20
-13
-19
-25
-15
-11
-18
-10
-9
-8
-15
-15
-18
-22
-20
-18
-18
-20
-13
-7
-10
-13
-22
-20
-16
-11
-23
-26
-29
-11
-9
-9
-14
-13
-13
-16
-23
-22
-21
-12
-20
-16
-15
-18
-25
-20
-27
-22
-20
-13
-14
-23
-21
-22
-20
-20
-18
-14
-18
-17
-25
-35
-25
-16
-17
-26
-18
-13
-15
-22
-15
-18
-22
-16
-18
-20
-28
-20
-18
-18
-17
-17
-11
-12
-13
-21
-27
-24
-27
-27
-22
-16
-23
-20
-18
-16
-18
-22
-20
-21
-15
-24
-25
-26
-21
-24
-25
-20
-29
-23
-25
-20
-17
-23
-22
-22
-18
-18
-25
-26
-16
-17
-11
-13
-10
-16
-14
-6
-9
-11
-16
-11
-18
-17
-18
-8
-4
-6
-15
-13
-15
-17
-24
-23
-27
-19
-10
-12
-20
-17
-12
-8
-6
-13
-15
-21
-25
-16
-13
-18
-21
-26
-29
-26
-23
-27
-21
-29
-31
-27
-26
-31
-34
-29
-19
-19
-17
-14
-14
-24
-18
-27
-29
-31
-25
-34
-28
-16
-15
-24
-23
-17
-20
-26
-19
-6
12
16
15
21
20
20
13
-4
-18
-12
-23
-31
-33
-38
-34
-41
-34
-36
-34
-25
-18
-20
-15
-14
-19
-23
-26
-31
-30
-17
-19
-17
-23
-15
-14
-19
-22
-22
-20
-17
-20
-21
-17
-15
-18
-22
-19
-20
-19
-11
-8
-12
-16
-10
-11
-9
-22
-21
-19
-8
-11
-8
-8
-11
-15
-12
-7
-10
-18
-13
-7
-11
-9
-11
-8
-7
-8
-6
-17
-13
-4
-2
-9
-12
-1
5
1
-13
-9
-4
-4
6
5
-3
-5
2
0
1
4
6
10
10
10
7
3
11
10
16
11
22
27
26
24
23
16
8
23
33
33
31
30
35
34
38
36
32
35
35
33
33
35
31
42
33
34
35
40
30
37
32
34
28
31
28
17
15
6
6
2
11
18
12
7
4
0
-7
-12
-9
-11
-7
-8
-7
-5
-8
-12
-20
-7
-26
-23
-18
-14
-13
-12
-17
-8
-17
-22
-25
-19
-16
-19
-27
-26
-20
-19
-12
-23
-24
-16
-16
-16
-20
-10
-14
-23
-26
-28
-22
-14
-12
-8
-18
-20
-8
-16
-17
-15
-13
-12
-11
-18
-21
-14
-25
-31
-28
-23
-17
-7
-10
-13
-15
-12
-19
-22
-17
-18
-19
-23
-19
-25
-19
-5
-8
-20
-17
-12
-14
-20
-14
-19
-11
-9
-11
-21
-17
-19
-18
-22
-23
-24
-15
-18
-13
-12
-18
-17
-12
-15
-16
-17
-23
-15
-23
-22
-13
-18
-19
-14
-10
-8
-12
-16
-22
-17
-24
-27
-34
-20
-27
-6
-6
-12
-22
-17
-16
-16
-21
-14
-16
-17
-15
-12
-16
-25
-24
-30
-15
-11
-22
-22
-15
-11
-11
-15
-23
-23
-19
-22
-27
-22
-17
-11
-9
-17
-20
-25
-22
-22
-21
-16
-18
-19
-17
-19
-24
-26
-17
-13
-13
-20
-15
-16
-18
-10
-20
-25
-28
-37
-30
-21
-3
-14
-17
-16
-18
-16
-22
-15
-18
-19
-24
-17
-19
-14
-21
-23
-25
-26
-32
-19
-13
-10
-16
-16
-17
-23
-23
-16
-16
-8
-15
-17
-18
-16
-20
-15
-14
-9
-22
-23
-19
4
-9
-7
-10
-16
-13
-5
-11
-11
-9
-17
-13
-14
-10
-17
-13
-20
-10
-7
-2
-8
-11
-13
-11
-15
-10
-13
-26
-25
-24
-24
-23
-23
-26
-26
-27
-23
-19
-16
-16
-16
-21
-26
-24
-23
-23
-20
-18
-20
-28
-33
-32
-26
-24
-22
-21
-11
-23
-15
-22
-19
-28
-17
-16
-16
-15
-7
2
9
10
8
32
30
22
11
-6
-7
-14
-20
-20
-34
-46
-42
-46
-39
-32
-24
-23
-13
-18
-28
-21
-16
-16
-15
-24
-23
-21
-21
-12
-8
-7
-8
-10
-14
-21
-15
-13
-7
-14
-15
-14
-13
-17
-16
-13
-11
-16
-14
-11
-10
-9
-11
-5
-11
-13
-12
-11
-15
-24
-25
0
-11
-18
-4
1
0
1
-2
-5
-8
-6
-2
-7
-5
-1
-8
-7
-6
-13
-17
-10
-4
7
7
9
5
10
4
1
4
-4
-6
-3
-2
-4
-7
5
24
17
16
15
14
19
23
20
21
22
21
12
9
16
27
26
39
37
35
40
40
40
41
36
34
29
38
42
47
43
41
34
31
34
39
42
42
44
40
29
27
22
25
29
22
21
28
25
21
17
9
-4
-7
-12
-6
6
-2
-6
7
-4
-6
-4
-2
-7
-18
-12
-8
-17
-14
-18
-21
-18
-13
-13
-21
-20
-12
-17
-25
-16
-14
-9
-12
-24
-20
-21
-19
-10
-8
-7
-7
-4
-13
-15
-21
-17
-13
-11
-13
-10
-11
-13
-8
-14
-18
-22
-16
-10
-5
-12
-14
-16
-16
-15
-26
-21
-10
-10
-8
-10
-14
-21
-14
-16
-16
-18
-7
-4
-9
-15
-16
-15
-6
-10
-13
-15
-13
-18
-17
-16
-19
-7
-12
-18
-16
-4
-5
-5
-15
-13
-9
-13
-16
-18
-15
-18
-17
-9
-20
-19
-21
-14
-8
-8
-14
-18
-22
-16
-16
-9
-1
-13
-18
-15
-9
-10
-8
-6
-12
-9
-14
-22
-25
-17
-15
-9
-6
-15
-17
-11
-10
-7
-16
-13
-9
-13
-14
-18
-16
-15
-27
-10
-6
-11
-5
-13
-15
-14
-11
-20
-19
-12
-14
-10
-19
-18
-12
-17
-12
-7
-8
-3
-8
-10
-13
-15
-16
-16
-11
-9
-11
-9
-12
-12
-15
-13
-11
-10
2
-12
-21
-21
-20
-15
-16
-17
-16
-8
-12
-14
-17
-8
-5
-17
-14
-11
-20
-13
-9
-12
-18
-19
-5
2
-7
-8
-13
-12
-8
-12
-9
-8
-19
-10
-11
-6
-9
-10
-12
-8
-13
-14
-13
-3
-8
-8
-11
-15
-20
-23
-9
-2
-11
-19
-17
2
-1
-10
-11
-9
-5
-5
-8
-11
-10
-15
-14
-10
-8
-4
-2
-9
-15
-12
-7
0
-1
0
4
0
-3
-5
-4
-6
-3
-7
-1
6
10
-1
-3
-4
-8
-1
-8
-7
-14
3
-4
-6
-6
4
-1
-9
-3
11
0
0
-8
-10
-13
-14
-16
-16
-18
-13
-9
-15
-18
-18
-9
-13
-8
-14
-8
-12
-10
-15
-20
-12
-11
-13
-4
-5
-18
-20
-13
-3
-14
-15
-10
-9
-18
-17
-7
-8
-8
3
6
14
18
30
30
39
34
31
13
14
12
-1
-10
-12
-20
-33
-43
-43
-34
-22
-22
-16
-17
-17
-20
-13
-9
-4
5
2
-3
-12
-9
-9
-7
-4
-3
-12
-11
-6
-6
-9
-12
-6
-1
8
2
-7
-11
-19
-13
-1
6
9
2
-4
-5
-7
-11
-3
-5
-1
1
-4
-9
2
3
7
2
-3
0
-2
-3
-3
-3
10
6
4
1
7
3
-1
3
2
-2
7
3
2
7
9
5
11
12
11
7
12
15
24
18
10
10
7
14
10
15
20
20
20
22
26
36
29
31
34
35
40
40
40
33
38
43
44
39
39
44
52
45
43
59
56
49
49
50
53
53
50
50
48
45
53
48
42
33
44
42
41
32
29
33
28
25
17
21
14
21
19
9
0
4
-5
-10
-5
3
-4
6
6
2
-8
4
-11
-8
-4
-8
-4
-7
-9
-14
-13
-10
-10
-4
-8
-10
-18
-16
-17
-19
-10
-9
-7
-10
-5
-4
-10
-11
-13
-11
-14
-16
-13
-11
-3
-10
-13
-17
-7
-6
-7
-11
-17
-2
-2
-12
-18
-9
-11
-4
-8
-10
-16
-11
-13
-7
-17
-16
-14
-6
-8
-7
-11
-14
-12
-8
-18
-9
-10
-13
-13
-9
-11
-6
-7
-16
-10
-11
-6
-7
-16
-13
-8
-10
-10
-7
-16
-13
-12
-13
-9
-11
-9
-13
-7
-9
-10
-8
-6
-8
-10
-11
-12
-15
-12
-8
-7
-10
-10
-10
-7
-11
-21
-28
-15
-11
-18
-27
-12
-12
-10
-8
4
-1
-9
-15
-13
-8
-12
-11
-7
-9
-12
-13
-10
-11
-12
-13
-17
-13
-14
-9
-9
-10
-14
-17
-19
-18
-19
-14
-11
-4
-12
-9
-9
-13
1
-14
-14
-20
-18
-12
-20
-22
-14
-14
-2
-4
-18
-17
-19
-11
-14
-19
-16
-8
-5
-8
-18
-22
-21
-22
-16
-12
-10
0
-7
-8
-14
-17
-19
-10
-11
-16
-14
-4
-3
-10
-17
-13
-9
-12
-13
-17
-11
-13
-15
-12
-15
-15
-20
-14
-10
-19
-18
-9
-14
-18
-11
-9
-9
-12
-9
-12
-12
-18
-21
-18
-20
-10
-17
-12
-6
-15
-15
-11
5
-4
-18
-16
-11
-8
-6
-12
-13
-15
-9
-19
-19
-11
-19
-18
-8
-13
-10
-4
-4
-10
-22
-10
-1
-5
-5
0
-2
-5
-2
-10
-18
-14
-1
1
5
2
-6
-11
-11
-10
-8
-2
-6
-7
-8
-9
-8
-4
-9
-3
-4
-11
-11
-21
-20
-5
-16
-17
-13
-17
-18
-18
-12
-10
-10
-16
-15
-16
-17
-22
-22
-21
-17
-13
-15
-19
-14
-13
-15
-15
-16
-16
-18
-25
-18
-21
-16
-13
-12
-13
-11
-20
-20
-3
7
10
19
34
36
35
35
30
5
-4
-9
-13
-11
-17
-35
-36
-35
-38
-39
-27
-24
-20
-19
-16
-20
-28
-20
-3
-8
-11
-8
-10
-13
-22
-30
-24
-14
-4
0
-3
-7
-14
-16
-13
-11
-8
-9
-10
-16
-15
-8
-10
1
-5
-5
-12
-10
-5
-1
-5
-15
-12
-4
-8
-4
-17
-10
-9
-11
-19
-11
-16
-11
-3
-16
-14
-6
1
-4
4
-4
-6
-10
-6
-4
-2
1
-1
2
2
-3
-1
-3
-2
-5
-5
-1
-5
-9
-12
-4
3
16
10
16
14
15
10
13
15
7
10
23
22
12
21
23
24
24
39
45
35
33
35
31
36
35
32
36
37
35
38
36
36
36
38
41
31
30
25
33
34
31
29
21
18
18
10
-2
3
16
17
6
8
5
4
-4
-11
-14
-11
-12
-20
-18
-20
-24
-21
-12
-14
-16
-22
-26
-30
-17
-22
-15
-26
-31
-29
-17
-19
-22
-27
-29
-36
-43
-44
-31
-16
-22
-25
-22
-31
-37
-41
-38
-25
-26
-25
-22
-23
-30
-30
-31
-31
-24
-27
-34
-27
-22
-19
-28
-32
-32
-27
-32
-40
-35
-25
-25
-29
-29
-21
-23
-25
-23
-26
-21
-30
-35
-32
-36
-35
-31
-34
-22
-17
-30
-25
-27
-30
-36
-37
-30
-30
-31
-33
-18
-24
-21
-24
-26
-32
-34
-30
-26
-27
-25
-31
-40
-40
-35
-24
-25
-28
-27
-23
-20
-28
-29
-35
-31
-33
-37
-43
-41
-35
-37
-29
-24
-20
-22
-26
-26
-26
-26
-30
-27
-30
-32
-34
-42
-41
-41
-38
-23
-18
-24
-30
-32
-31
-30
-30
-35
-31
-37
-34
-39
-35
-37
-35
-35
-33
-29
-36
-28
-36
-29
-27
-31
-32
-32
-37
-35
-36
-40
-34
-21
-29
-32
-34
-35
-34
-34
-36
-22
-22
-30
-30
-32
-41
-39
-35
-31
-33
-31
-31
-37
-35
-30
-36
-31
-30
-38
-31
-34
-31
-39
-34
-34
-27
-34
-33
-31
-37
-35
-31
-31
-35
-35
-36
-18
-31
-34
-36
-43
-42
-36
-29
-36
-30
-27
-31
-33
-40
-31
-31
-31
-32
-30
-41
-37
-35
-41
-26
-22
-25
-27
-40
-43
-35
-40
-40
-25
-27
-22
-21
-27
-31
-39
-38
-27
-21
-28
-27
-20
-18
-24
-26
-22
-23
-30
-20
-21
-21
-23
-32
-33
-32
-31
-27
-30
-23
-23
-20
-20
-35
-27
-34
-32
-34
-43
-42
-37
-28
-44
-43
-43
-32
-35
-39
-36
-34
-29
-35
-32
-37
-38
-39
-37
-37
-35
-36
-40
-40
-38
-42
-40
-36
-44
-43
-33
-31
-44
-35
-28
-30
-30
-36
-12
-8
2
12
19
19
17
4
-3
-24
-34
-33
-31
-43
-67
-70
-71
-54
-54
-58
-54
-55
-53
-45
-32
-41
-44
-48
-55
-50
-48
-42
-33
-21
-19
-20
-25
-36
-35
-37
-32
-29
-45
-56
-42
-21
-13
-20
-12
-20
-24
-21
-30
-31
-30
-41
-50
-43
-21
-18
-15
-22
-15
-20
-18
-20
-23
-27
-26
-24
-22
-25
-25
-30
-28
-25
-13
-26
-27
-26
-24
-15
-13
-12
-16
-11
-14
-18
-13
-14
-14
-17
-17
-14
-7
-15
-16
-9
-11
-12
-11
-18
-15
-4
-8
-12
-9
-16
-14
2
3
8
23
21
17
12
13
18
20
17
6
1
18
28
30
30
32
28
23
15
20
26
26
27
30
30
27
34
34
26
35
29
26
26
12
14
12
11
6
-8
-18
-14
-11
-5
-2
4
-9
-12
-18
-19
-20
-30
-27
-33
-25
-20
-24
-26
-26
-27
-37
-40
-34
-33
-27
-25
-37
-49
-47
-44
-30
-25
-31
-34
-31
-44
-46
-50
-43
-34
-26
-29
-26
-27
-35
-45
-35
-35
-39
-39
-44
-39
-53
-72
-36
-23
-22
-22
-22
-31
-33
-35
-38
-41
-47
-48
-47
-21
-14
-28
-32
-33
-35
-29
-33
-37
-34
-25
-30
-37
-48
-40
-50
-43
-29
-38
-41
-35
-41
-28
-19
-26
-37
-32
-28
-30
-39
-47
-46
-41
-37
-34
-36
-20
-26
-35
-34
-33
-37
-36
-31
-29
-28
-29
-41
-42
-38
-42
-43
-39
-21
-32
-34
-30
-36
-39
-41
-38
-36
-23
-23
-30
-44
-41
-39
-45
-49
-55
-31
-18
-25
-27
-33
-31
-37
-36
-42
-40
-39
-37
-29
-37
-40
-37
-36
-37
-29
-30
-43
-34
-33
-31
-38
-45
-45
-44
-43
-35
-31
-23
-24
-25
-42
-41
-34
-40
-39
-37
-46
-49
-33
-29
-30
-35
-47
-35
-29
-32
-35
-33
-32
-28
-30
-33
-36
-38
-38
-45
-42
-35
-26
-37
-32
-26
-31
-31
-33
-33
-33
-38
-36
-38
-41
-43
-50
-47
-31
-31
-30
-27
-24
-14
-22
-33
-28
-29
-34
-39
-47
-43
-29
-9
-20
-25
-21
-14
-14
-20
-26
-23
-28
-25
-25
-35
-39
-40
-30
-36
-41
-37
-30
-20
-20
-13
-10
-28
-32
-28
-37
-36
-38
-39
-41
-36
-43
-40
-43
-39
-45
-55
-45
-23
-21
-33
-33
-32
-28
-35
-36
-34
-37
-39
-40
-36
-41
-44
-54
-39
-42
-28
-27
-27
-34
-29
-28
-24
-11
3
13
18
19
14
10
-5
-20
-41
-41
-47
-49
-53
-67
-65
-66
-60
-69
-58
-57
-46
-40
-32
-32
-27
-30
-34
-37
-41
-40
-36
-32
-32
-37
-22
-22
-29
-31
-30
-32
-38
-26
-25
-25
-28
-25
-22
-29
-27
-29
-24
-26
-23
-31
-28
-23
-31
-37
-35
-36
-24
-24
-18
-27
-20
-17
-22
-24
-23
-22
-22
-21
-22
-20
-19
-18
-23
-24
-18
-23
-30
-22
-11
-11
-20
-10
-16
-14
-13
-14
-9
-12
-14
-13
-9
-12
-17
-22
-25
-14
14
15
1
1
8
10
4
-1
7
5
7
7
5
18
19
12
14
19
23
25
19
24
35
30
32
36
31
27
26
34
36
31
36
31
26
34
29
31
33
29
25
31
27
17
13
3
-4
-13
-7
6
14
3
0
-2
-3
-6
-12
-13
-20
-22
-25
-26
-18
-18
-28
-30
-19
-30
-24
-26
-30
-23
-25
-26
-28
-24
-27
-27
-32
-30
-32
-33
-37
-30
-34
-35
-27
-20
-31
-31
-37
-36
-42
-44
-34
-38
-38
-25
-16
-19
-14
-23
-29
-34
-31
-33
-32
-28
-37
-32
-27
-28
-30
-19
-33
-37
-38
-30
-27
-31
-28
-22
-28
-27
-29
-31
-27
-23
-30
-30
-32
-30
-34
-31
-27
-23
-24
-22
-22
-25
-27
-25
-26
-27
-26
-31
-32
-17
-26
-26
-26
-20
-26
-29
-32
-35
-22
-23
-25
-35
-28
-24
-29
-25
-20
-31
-34
-42
-31
-21
-15
-23
-28
-36
-31
-39
-34
-33
-38
-40
-32
-24
-24
-23
-20
-23
-24
-22
-29
-23
-24
-30
-38
-27
-30
-31
-32
-31
-30
-30
-30
-31
-33
-21
-23
-29
-33
-32
-40
-32
-25
-16
-29
-28
-28
-29
-35
-31
-31
-31
-30
-34
-32
-33
-28
-32
-32
-40
-42
-32
-25
-39
-29
-19
-16
-22
-26
-33
-35
-29
-25
-33
-32
-26
-30
-28
-26
-29
-33
-37
-39
-42
-32
-20
-20
-28
-29
-25
-23
-27
-27
-28
-24
-28
-29
-33
-36
-43
-43
-34
-29
-23
-23
-26
-30
-36
-27
-23
-22
-29
-27
-25
-24
-27
-32
-32
-19
-18
-23
-24
-19
-23
-25
-20
-24
-25
-20
-14
-17
-14
-17
-17
-16
-25
-26
-28
-20
-24
-22
-22
-27
-27
-27
-37
-44
-29
-10
-18
-23
-19
-20
-26
-31
-30
-32
-37
-34
-36
-37
-38
-32
-27
-25
-25
-34
-36
-27
-25
-29
-35
-29
-39
-38
-28
-31
-32
-32
-34
-29
-30
-26
-26
-35
-46
-47
-32
-40
-12
1
11
12
17
37
23
17
10
-9
-18
-23
-36
-32
-39
-55
-56
-49
-46
-51
-45
-42
-35
-27
-38
-31
-22
-19
-28
-23
-20
-19
-28
-23
-25
-31
-27
-25
-18
-25
-25
-16
-15
-15
-22
-27
-32
-21
-17
-18
-24
-15
-16
-30
-20
-17
-11
-14
-18
-10
-11
-20
-12
-9
-15
-11
-11
-15
-14
-12
-19
-14
-11
-13
-13
-11
-14
-23
-25
-18
-20
-6
3
0
-2
-4
-5
-9
-13
-7
-9
-4
-4
-8
-13
-7
-3
6
10
6
-3
-2
-1
2
13
11
10
16
15
8
5
10
10
13
1
11
13
17
34
34
42
38
38
28
34
34
35
35
37
37
36
33
39
41
46
46
42
42
39
34
29
21
31
31
29
30
25
25
24
21
16
15
3
10
15
7
3
-4
-9
-7
-5
-15
-7
-10
-7
-10
-7
-18
-13
-20
-18
-11
-16
-15
-18
-17
-17
-22
-24
-31
-23
-11
-16
-14
-15
-20
-30
-17
-21
-27
-24
-25
-30
-25
-22
-29
-21
-15
-15
-21
-24
-14
-16
-18
-23
-21
-25
-27
-23
-19
-22
-20
-24
-24
-22
-17
-29
-17
-19
-17
-11
-13
-28
-16
-19
-17
-18
-17
-23
-24
-30
-25
-16
-17
-20
-25
-19
-17
-16
-25
-19
-23
-27
-21
-19
-19
-15
-17
-18
-18
-16
-20
-28
-24
-16
-24
-21
-25
-25
-18
-9
-15
-19
-25
-23
-25
-24
-18
-17
-22
-28
-18
-14
-17
-15
-23
-26
-21
-21
-26
-19
-21
-17
-19
-25
-25
-24
-25
-29
-23
-11
-19
-20
-20
-21
-23
-25
-24
-22
-23
-23
-21
-24
-25
-24
-21
-22
-27
-25
-21
-21
-24
-25
-23
-19
-16
-24
-18
-17
-18
-15
-26
-24
-17
-19
-21
-31
-33
-29
-24
-8
-18
-17
-23
-18
-15
-25
-32
-26
-23
-26
-27
-27
-25
-24
-34
-28
-23
-26
-25
-18
-25
-23
-13
-14
-16
-17
-19
-18
-25
-25
-30
-19
-21
-23
-28
-34
-27
-22
-21
-15
-16
-16
-23
-22
-24
-29
-31
-28
-26
-24
-18
-30
-10
-16
-15
-20
-22
-22
-24
-23
-21
-27
-18
-21
-27
-25
-28
-27
-31
-18
-19
-15
-7
-11
-15
-15
-22
-23
-18
-12
-14
-10
-12
-16
-5
-17
-19
-18
-20
-20
-15
-10
-11
-11
-14
-16
-17
-17
-13
-16
-15
-18
-17
-9
-13
-22
-40
-43
-11
5
1
-9
-16
-24
-22
-26
-32
-26
-24
-19
-18
-19
-25
-22
-26
-22
-22
-23
-29
-27
-30
-22
-23
-28
-24
-17
-23
-22
-25
-22
-26
-18
-24
-22
-22
-14
-30
-26
-9
-11
1
14
15
0
18
28
37
18
2
-8
-11
-9
-20
-31
-41
-48
-49
-47
-36
-33
-30
-28
-29
-26
-11
-12
-17
-18
-17
-15
-17
-12
-14
-22
-24
-25
-21
-20
-21
-14
-11
-7
-13
-14
-18
-22
-22
-22
-19
-19
-10
-2
-8
-12
-18
-24
-20
-16
-8
-12
-10
-9
-17
-17
-10
2
-3
-8
-12
-15
-11
-3
-12
-12
-5
-2
-8
-6
-1
-5
-5
-5
-12
-6
-10
-10
-3
-2
0
-3
-6
3
1
0
5
-1
-6
-10
4
12
18
11
14
17
17
12
7
8
15
14
15
21
28
25
25
23
25
25
35
31
32
36
40
34
30
40
43
41
46
48
47
32
41
41
39
28
39
42
43
47
42
34
40
37
30
29
30
22
19
12
7
14
20
19
12
8
4
10
0
-8
-5
-8
-8
-9
-5
-5
-17
-22
-18
-10
-9
-17
-14
-23
-22
-21
-11
-10
-15
-15
-22
-20
-19
-16
-13
-17
-15
-12
-17
-24
-17
-18
-19
-14
-7
-12
-18
-15
-22
-18
-13
-22
-22
-22
-20
-18
-13
-13
-15
-16
-21
-25
-33
-23
-21
-19
-14
-10
-26
-25
-11
-3
-9
-15
-17
-18
-10
-20
-26
-28
-22
-8
-8
-14
-21
-11
-8
-9
-15
-16
-16
-17
-19
-18
-11
-13
-12
-12
-18
-19
-23
-24
-27
-26
-24
-23
-12
0
-6
-4
-16
-18
-23
-25
-21
-14
-19
-8
-12
-13
-20
-10
-6
-13
-22
-23
-17
-18
-19
-10
-10
-13
-15
-15
-27
-27
-28
-32
-22
-11
-16
-13
-13
-11
-10
-20
-19
-34
-33
-21
-6
-12
-5
-9
-16
-11
-11
-16
-17
-23
-26
-23
-19
-18
-19
-19
-14
-15
-19
-16
-20
-24
-12
-20
-24
-17
-21
-23
-18
-19
-29
-34
-27
-15
0
-11
-15
-11
-10
-20
-21
-24
-21
-24
-20
-12
-15
-16
-21
-15
-17
-15
-24
-23
-19
-13
-21
-19
-19
-16
-21
-23
-20
-21
-27
-26
-20
-17
-15
-13
-13
-20
-22
-27
-31
-20
-9
-11
-2
-13
-20
-23
-27
-28
-24
-20
-14
-17
-19
-19
-18
-15
-21
-16
-15
-17
-18
-25
-26
-28
-20
-23
-25
-18
-21
-16
-22
-20
-17
-16
-8
-5
-10
-13
-18
-16
-20
-20
-11
-8
-16
-10
-7
-15
-10
-10
-5
-9
-4
-2
-7
-12
-11
-8
-16
-11
-18
-17
-16
-15
-3
-1
-8
-1
-15
-17
-21
-10
-15
-8
-14
-15
-15
-25
-29
-26
-16
-15
-17
-23
-22
-27
-21
-18
-26
-27
-26
-21
-18
-15
-18
-21
-21
-13
-16
-22
-24
-23
-19
-23
-21
-29
-29
-29
-17
-2
-8
-10
-15
-10
-9
-3
2
19
21
29
36
27
19
-5
-6
-6
-15
-20
-23
-36
-44
-38
-41
-42
-41
-36
-30
-23
-24
-10
-10
-14
-12
-18
-22
-26
-28
-15
-6
-9
-17
-17
-12
-12
-2
-9
-15
-16
-15
-17
-14
-13
-11
-13
-11
-12
-9
-11
-8
-7
-13
-14
-7
-13
-14
-10
-13
-12
-8
-7
-2
-6
-6
-6
-9
-11
-8
-10
-5
-7
-5
2
-7
-10
-13
-22
-18
-13
1
9
11
-5
-12
-14
5
2
5
9
11
5
4
7
11
16
15
5
8
10
12
10
9
13
18
14
19
17
9
18
24
32
25
25
32
32
35
28
47
46
39
45
36
44
40
43
48
44
45
47
48
46
52
49
47
40
41
43
38
36
37
29
28
24
22
15
14
6
13
19
12
-3
18
16
6
2
0
-6
-2
-3
1
-9
-6
-3
-16
-13
-9
-6
-14
-18
-6
-11
-13
-13
-15
-23
-25
-30
-38
-26
-14
-1
-7
-17
-20
-19
-14
-14
-13
-12
-10
-14
-12
-14
-20
-27
-25
-19
-8
-8
-16
-19
-18
-17
-17
-13
-10
-12
-14
-18
-19
-27
-14
-17
-15
-18
-18
-21
-20
-19
-18
-23
-23
-18
-18
-8
-18
-16
-8
-15
-11
-17
-16
-11
-15
-9
-14
-15
-17
-19
-22
-8
-14
-14
-20
-18
-16
-19
-17
-16
-16
-18
-11
-8
-19
-17
-10
-11
-18
-20
-16
