98
92
89
92
89
90
94
98
91
89
93
88
91
93
94
95
100
84
88
97
87
96
97
94
96
92
89
91
88
84
86
87
86
90
90
84
86
89
81
80
81
80
82
84
86
90
89
94
95
92
85
81
81
84
77
78
77
75
74
68
59
61
58
65
76
90
112
130
146
151
167
186
210
226
230
234
243
232
230
222
202
169
144
134
115
95
79
77
73
74
74
84
86
88
88
90
95
86
91
92
92
93
94
95
95
98
94
99
101
95
93
95
99
107
100
92
97
99
104
107
105
101
104
108
103
98
106
111
114
106
112
117
115
103
100
108
119
116
114
125
125
118
115
121
124
121
119
122
130
137
133
134
131
132
139
132
133
136
138
136
129
136
135
134
141
141
142
145
142
142
140
144
135
132
131
125
132
133
125
121
120
119
119
116
111
108
108
106
106
104
108
101
97
101
96
92
98
99
96
100
98
96
97
93
92
88
87
92
96
108
97
95
93
91
89
94
99
94
86
91
91
95
88
93
97
99
100
106
104
106
104
94
90
94
96
89
97
100
91
91
97
99
96
97
102
99
98
102
96
99
100
96
105
102
109
112
103
104
105
107
105
96
102
113
103
113
112
108
107
104
105
113
105
109
111
103
111
111
109
110
113
114
114
121
123
118
108
106
109
107
112
99
103
104
103
104
103
101
105
95
99
104
109
102
97
96
102
96
95
103
97
97
103
108
106
108
101
106
101
95
95
89
76
77
76
80
94
109
119
144
156
165
189
204
233
253
255
262
252
246
250
244
211
182
157
144
131
115
95
82
92
95
99
108
103
93
97
110
108
110
107
112
115
114
120
120
110
111
112
102
106
117
111
108
115
119
113
123
121
119
121
115
121
123
114
116
117
120
123
124
123
122
118
124
128
125
128
132
129
136
139
139
146
141
132
133
131
135
141
136
142
145
140
150
148
146
151
154
153
154
158
152
158
155
159
164
161
156
152
156
160
157
151
156
153
154
146
151
152
148
142
129
133
133
142
131
119
120
125
124
120
113
119
116
110
110
110
114
112
111
118
107
106
108
110
108
108
105
107
103
108
107
106
102
109
106
106
106
111
113
115
114
118
112
105
109
107
106
108
110
113
115
111
112
104
113
116
115
126
124
110
98
100
99
97
106
114
110
111
113
109
109
119
119
114
118
117
109
117
120
119
113
112
118
118
122
117
122
117
117
123
118
115
124
126
121
121
124
124
125
125
126
124
126
123
130
129
120
121
121
127
123
120
123
125
119
122
124
114
117
115
107
110
117
118
116
111
115
121
116
117
111
116
118
116
110
113
120
122
112
113
114
115
108
111
115
112
107
109
107
103
103
102
93
95
109
116
133
152
160
183
203
210
234
252
254
271
272
269
252
252
226
194
173
161
136
112
98
91
96
95
99
104
106
115
115
117
126
122
117
115
112
117
123
121
118
125
122
118
119
120
123
125
118
119
127
138
124
120
124
122
127
123
122
122
132
132
123
126
125
126
134
133
139
138
140
131
132
142
140
129
130
138
139
142
147
151
141
139
146
149
150
146
151
148
154
149
152
163
163
158
159
161
164
169
168
170
165
162
158
149
152
157
156
157
158
160
153
143
148
132
137
138
138
141
138
131
126
123
123
126
128
125
123
113
108
111
124
132
118
105
109
110
107
111
109
110
117
120
113
113
117
112
109
105
112
113
114
110
112
114
113
107
110
118
122
120
116
109
107
112
110
112
115
113
109
121
131
133
117
110
112
112
112
122
124
117
115
123
123
120
114
122
124
112
112
119
118
117
129
128
117
109
112
111
125
127
121
117
111
112
118
118
120
119
122
130
126
118
118
126
132
127
128
129
129
128
115
111
124
121
120
122
128
129
132
134
133
131
123
125
121
118
116
117
119
116
110
110
114
117
115
116
115
119
128
120
109
111
109
116
120
111
108
113
114
114
113
118
117
117
121
122
105
103
113
116
116
102
87
89
98
107
126
135
157
170
187
201
211
235
247
252
250
254
252
240
227
198
170
153
137
122
112
99
90
92
97
102
111
118
127
110
110
112
113
113
117
122
121
119
114
110
114
116
115
123
122
120
124
125
126
134
132
121
122
121
126
142
133
128
122
118
121
131
128
132
133
131
131
136
140
138
144
154
143
132
139
139
132
138
137
146
146
146
150
148
147
146
151
153
155
157
166
182
182
159
143
139
150
155
154
157
155
158
162
164
155
158
157
156
155
158
158
158
156
150
142
140
138
135
134
128
122
120
125
125
126
125
124
121
118
115
111
118
122
130
124
106
108
107
104
108
115
112
113
114
115
112
111
114
116
115
123
122
120
118
116
114
114
116
111
108
109
109
107
110
113
116
119
118
124
122
122
113
110
111
108
116
113
110
113
117
112
110
112
110
113
116
119
116
119
127
138
141
110
109
117
119
121
119
119
119
121
117
117
122
117
115
117
119
119
125
126
131
124
127
124
120
127
130
124
127
127
127
126
127
129
124
122
124
126
133
136
125
129
130
129
129
124
121
117
124
122
121
119
118
114
120
124
124
118
116
117
119
114
116
116
117
118
116
116
121
128
125
123
115
117
116
111
119
127
129
117
111
110
109
111
106
106
101
100
106
119
135
156
169
183
202
214
227
248
254
264
268
264
252
251
242
205
181
152
145
130
114
108
109
99
105
103
108
113
120
117
119
124
132
135
138
125
116
115
110
110
118
119
121
119
123
128
124
127
125
123
128
134
139
132
117
122
130
127
123
125
132
141
145
131
136
133
132
136
133
134
142
138
135
139
140
135
143
151
146
142
144
143
146
150
156
156
149
146
148
157
161
159
162
168
152
157
156
158
159
159
157
164
165
163
162
160
161
169
164
153
142
148
143
145
146
143
141
131
136
129
130
129
136
132
127
127
125
123
123
121
114
102
110
111
106
106
110
107
118
112
108
117
118
105
105
107
108
109
109
111
110
113
107
108
109
113
111
114
115
108
110
114
113
118
119
127
129
103
101
109
108
104
110
115
113
115
118
124
121
126
111
102
107
118
119
112
103
114
106
111
114
119
120
110
109
107
111
106
107
113
118
116
122
121
109
114
121
117
122
121
122
116
121
120
115
105
108
111
121
117
119
119
125
127
128
135
120
109
111
116
115
114
109
116
117
120
123
128
126
123
116
117
120
116
118
121
115
99
106
108
107
112
111
106
106
105
103
107
109
107
110
104
106
109
107
105
106
110
111
112
115
111
114
112
102
105
101
100
101
97
94
93
94
102
114
132
143
160
179
200
213
222
241
257
261
253
252
255
247
234
203
184
167
131
117
107
96
103
104
105
112
113
122
111
101
104
106
108
114
112
113
117
117
118
113
113
119
122
127
120
114
114
114
115
116
123
119
118
121
132
142
137
123
120
120
118
123
125
130
136
123
126
134
140
140
125
125
124
133
136
133
144
138
139
138
142
142
149
152
154
149
148
153
151
151
155
160
151
146
163
158
148
154
151
159
163
172
158
154
158
159
155
143
146
147
142
142
140
142
142
143
138
139
139
153
138
113
121
116
110
119
119
112
113
112
123
122
110
107
109
107
110
107
109
106
109
106
104
103
111
109
108
114
116
114
108
108
115
102
92
96
104
105
110
108
109
113
113
114
112
102
102
101
106
99
107
110
107
105
111
121
105
101
107
117
132
108
85
106
111
111
112
106
106
113
115
111
115
111
114
123
117
112
110
113
114
101
112
113
106
112
118
115
103
108
114
110
113
111
113
116
116
116
113
112
115
116
118
113
118
112
109
110
110
116
121
126
120
117
126
126
111
113
113
116
114
113
114
112
107
109
113
109
113
115
112
101
104
110
102
105
105
108
108
104
108
109
105
110
116
117
103
96
93
101
101
102
106
104
104
105
96
91
92
90
89
100
107
114
129
143
153
166
179
201
222
238
218
222
227
229
232
219
203
170
140
131
123
106
97
84
83
86
99
97
95
99
98
106
110
115
115
112
110
114
113
118
100
106
119
114
106
112
112
108
113
116
115
126
127
118
123
118
116
119
111
116
115
120
115
114
118
116
124
121
123
126
125
130
128
128
127
124
129
136
140
138
137
136
137
139
139
141
137
143
151
149
146
146
150
148
152
153
152
158
158
165
166
148
147
151
159
156
154
152
140
146
144
126
132
138
135
126
124
130
128
132
128
117
123
114
119
119
113
102
92
104
105
103
105
106
100
99
101
102
102
110
105
101
105
107
105
99
104
99
96
99
99
97
96
100
94
91
96
100
102
102
98
96
105
107
101
100
102
100
98
91
94
96
98
101
105
97
97
96
97
103
108
111
118
110
100
103
94
93
97
102
102
104
102
104
105
100
98
99
105
112
117
111
97
95
101
101
108
103
99
99
106
106
100
99
103
105
107
109
115
125
104
90
109
99
99
102
105
106
103
107
105
102
107
104
102
110
113
111
110
111
107
106
108
110
109
105
107
106
108
106
94
95
99
98
94
96
99
99
106
106
97
93
93
96
101
93
94
98
93
101
96
95
96
97
96
92
102
106
99
85
84
86
85
85
88
83
80
86
91
101
117
134
146
162
185
193
213
229
229
238
235
231
231
220
200
172
152
139
121
106
95
90
83
84
91
89
88
92
95
99
102
105
108
116
110
96
100
99
98
92
105
113
105
102
108
110
108
100
107
107
115
111
109
111
108
110
105
106
105
110
107
110
112
114
113
111
108
122
125
121
115
118
123
121
123
118
120
122
123
123
125
122
127
131
133
139
152
141
140
135
130
143
141
139
141
142
144
146
145
147
146
143
142
142
145
144
140
137
145
144
131
132
134
127
127
113
110
109
109
106
105
108
111
109
106
110
109
121
115
82
89
94
86
90
95
95
92
85
91
90
93
96
96
93
94
96
99
102
101
91
88
91
93
98
95
91
90
93
97
97
96
98
99
105
119
118
105
82
88
91
94
94
97
98
95
97
101
93
83
82
92
95
100
105
97
88
83
97
103
99
91
92
96
104
98
104
106
109
107
94
90
95
96
92
102
96
93
97
103
105
98
99
106
104
112
110
89
93
93
96
96
101
104
108
107
101
102
105
104
105
107
108
105
106
111
99
98
105
121
114
112
98
96
100
103
109
110
103
102
98
104
102
101
101
92
87
91
93
98
102
98
95
94
95
92
97
103
107
108
96
91
85
89
100
91
93
97
96
96
94
95
87
91
89
83
78
78
89
100
168
188
196
215
226
235
241
241
234
236
217
195
166
147
126
118
109
94
88
87
85
81
84
90
95
102
93
97
105
103
103
102
97
102
105
108
110
105
110
112
109
107
111
108
116
104
108
113
106
103
95
98
110
108
99
109
118
119
114
110
111
124
108
111
117
116
114
113
112
113
124
124
124
129
131
129
131
130
129
132
133
133
140
146
134
143
148
143
148
152
139
141
145
149
146
149
152
143
148
142
151
149
148
146
145
141
133
136
134
133
137
129
126
114
107
121
120
123
114
103
102
101
101
107
111
95
96
100
95
98
100
91
95
99
104
106
93
95
89
90
93
90
97
105
107
93
93
96
89
90
96
103
106
99
92
95
99
96
93
93
90
94
103
103
100
93
94
96
94
99
98
101
97
98
94
102
103
100
102
107
96
96
97
105
102
105
100
98
96
98
106
103
103
102
101
105
103
100
92
98
107
106
105
112
109
103
108
106
102
105
104
109
107
107
108
104
108
102
109
113
112
114
107
108
110
120
117
116
118
127
117
125
111
116
115
108
103
114
117
114
116
114
122
125
122
121
117
108
114
113
114
110
104
107
111
99
97
109
113
119
128
98
95
106
109
100
101
104
108
110
106
106
108
111
100
99
104
105
105
103
103
96
92
93
92
86
87
101
113
136
157
159
183
202
216
239
264
273
282
289
276
274
269
246
201
173
170
149
130
110
101
84
83
94
100
114
111
100
106
108
116
115
105
109
118
120
113
107
108
117
111
111
116
116
115
115
120
118
113
115
112
120
120
124
117
119
122
123
126
118
118
124
127
129
124
135
136
136
128
143
144
132
135
135
132
147
138
128
134
140
146
148
151
153
156
145
144
151
162
159
160
160
157
158
154
159
170
171
174
173
164
161
157
163
156
158
158
160
153
158
147
148
148
143
137
140
139
136
134
141
139
130
120
112
117
114
119
122
116
109
114
96
109
100
98
108
98
98
100
106
104
106
113
103
105
117
112
97
107
100
103
102
110
105
111
103
99
97
108
109
105
105
108
107
115
112
111
107
108
109
104
118
112
105
110
102
106
110
110
107
113
106
113
125
118
110
113
114
105
105
116
108
103
113
117
112
110
116
119
127
129
116
119
104
103
112
112
110
124
124
116
123
127
111
111
110
112
118
123
123
121
119
126
126
125
130
121
112
110
117
119
124
133
121
122
128
117
122
123
124
124
122
115
119
111
112
111
111
114
116
116
115
117
111
100
104
106
104
111
106
112
114
118
103
103
116
117
113
103
95
99
102
106
111
101
90
87
84
82
76
95
89
115
140
156
184
205
225
238
266
278
293
297
294
290
298
273
243
220
176
158
138
123
95
80
84
84
92
97
109
110
117
117
109
115
123
105
113
125
126
113
115
118
115
108
122
123
117
121
121
130
131
118
116
127
117
115
120
125
131
128
129
131
128
128
129
133
135
138
133
134
136
139
139
138
138
143
144
143
146
144
144
149
153
156
162
151
157
159
151
152
156
164
166
158
161
161
167
160
154
163
162
154
165
161
164
159
149
160
157
155
160
159
158
150
138
148
152
144
145
133
125
133
143
132
123
117
119
117
122
120
106
106
116
119
109
110
111
109
112
113
112
121
118
108
107
110
117
114
101
102
107
113
106
112
114
114
115
123
124
104
104
109
106
114
118
111
100
109
110
116
118
111
116
108
111
109
117
121
106
112
114
114
112
104
112
114
117
122
124
124
114
101
108
111
114
118
112
109
112
113
111
114
112
111
113
122
121
117
104
112
121
121
118
113
116
125
123
123
121
131
123
122
128
127
125
130
110
113
115
125
117
124
126
120
128
127
123
120
117
116
120
127
123
113
108
107
101
104
104
107
105
107
108
105
116
125
115
120
119
96
102
103
102
102
100
106
110
111
103
107
104
106
101
104
106
102
85
87
92
99
120
141
160
170
192
217
241
278
295
294
305
307
294
283
284
232
192
180
159
137
112
89
81
83
83
95
99
93
101
107
107
107
107
109
116
116
118
116
118
121
118
109
110
118
118
119
121
122
122
125
118
120
121
117
124
130
134
134
128
120
115
123
121
127
136
144
131
133
120
127
136
136
141
140
126
128
137
140
144
137
141
138
138
144
146
133
143
158
155
164
165
158
164
155
147
154
163
165
153
148
156
160
160
153
153
153
152
160
155
146
145
150
143
144
137
138
136
135
139
139
127
126
118
119
117
114
117
123
124
123
107
115
106
107
97
98
104
100
100
109
103
102
102
111
116
97
99
102
101
104
107
104
108
98
102
100
102
108
112
109
99
105
104
105
110
105
95
105
105
110
107
106
107
101
99
112
110
110
102
106
111
111
110
105
103
104
113
110
106
114
113
110
111
108
107
119
117
105
105
115
115
113
108
109
111
120
115
123
118
111
112
114
118
112
122
128
123
110
121
117
115
110
119
117
117
125
124
126
118
108
107
111
108
116
109
114
117
104
95
104
102
106
106
101
105
95
94
99
95
97
96
97
96
103
96
96
94
95
93
93
96
99
105
101
98
98
92
76
76
76
64
85
98
118
141
169
191
198
218
255
274
277
290
299
297
289
281
255
212
185
167
139
103
83
77
79
75
80
84
89
92
98
101
103
97
110
112
106
104
105
94
98
104
110
113
110
109
124
120
110
114
115
119
99
98
107
114
116
119
124
121
121
126
111
117
119
112
112
112
121
118
121
126
116
119
130
127
120
130
133
131
140
138
123
131
135
138
144
141
140
145
151
156
147
148
156
154
144
146
152
148
151
151
153
150
153
150
153
154
156
142
142
136
136
140
140
142
138
121
121
124
120
115
113
116
122
120
110
107
119
106
113
107
106
96
99
109
103
93
98
101
98
93
96
96
98
98
98
93
98
99
102
108
114
104
104
93
89
93
94
101
103
100
101
100
96
99
100
99
101
102
104
111
122
123
94
90
97
95
96
100
97
92
95
99
100
101
97
100
107
104
111
124
108
103
100
99
100
104
109
110
109
109
103
106
113
118
116
106
114
124
112
115
109
104
100
108
111
114
117
115
115
107
101
104
108
118
114
98
97
98
101
99
95
99
101
101
105
95
99
102
98
108
112
96
92
87
90
91
92
95
96
101
105
108
95
90
92
92
97
97
98
89
89
82
69
66
75
89
98
112
137
157
168
183
199
226
245
271
273
272
272
273
269
251
206
177
157
137
115
92
76
74
80
83
89
88
85
90
94
96
91
93
89
92
89
96
93
96
106
100
104
113
105
107
93
95
96
95
98
97
100
106
108
106
103
103
106
108
114
120
106
107
105
106
111
112
118
111
113
117
118
120
114
111
113
115
119
124
131
130
127
124
132
135
118
123
136
138
138
141
139
135
136
140
139
140
138
141
142
142
140
141
144
135
140
143
134
134
129
125
129
131
135
128
117
111
107
107
109
103
107
105
102
110
122
112
93
86
101
101
95
91
98
101
93
83
87
90
92
91
103
109
104
96
93
84
82
83
89
85
84
89
88
92
96
96
94
94
98
96
95
95
93
99
94
97
100
96
93
95
89
92
91
97
96
96
97
99
103
110
111
110
102
97
96
95
100
97
100
101
101
101
104
106
109
107
107
114
119
113
109
115
99
98
98
104
105
111
109
103
104
103
101
106
111
110
110
114
112
103
104
102
97
103
100
105
99
97
89
93
94
94
98
101
102
99
102
95
89
97
100
102
94
97
102
96
92
93
88
89
94
94
89
87
87
82
83
73
79
83
99
103
122
149
164
188
206
222
240
254
264
265
273
275
270
251
217
181
156
130
115
97
86
83
78
83
82
93
90
92
95
92
104
117
113
117
111
111
111
94
100
98
100
102
104
104
105
107
106
109
114
115
118
119
128
121
103
99
111
115
113
111
114
120
121
115
113
118
122
123
122
124
132
132
135
128
125
125
133
134
130
132
132
138
141
139
139
150
148
139
144
145
142
146
148
144
147
153
151
141
148
151
155
154
148
147
149
148
145
146
146
137
146
140
140
130
129
136
138
118
118
118
113
107
111
115
113
107
107
116
114
97
96
97
95
94
98
101
104
103
100
103
102
105
107
108
104
99
91
102
97
101
99
100
97
103
104
96
102
108
108
105
101
102
102
102
103
105
100
99
105
111
112
106
104
102
108
106
104
108
104
99
105
106
102
97
109
111
111
112
114
115
114
119
112
115
116
118
112
118
116
118
117
111
110
110
111
114
118
111
124
121
115
111
110
121
123
112
110
105
103
105
115
117
103
96
100
110
102
108
108
100
102
100
100
101
109
114
107
101
101
103
102
102
105
105
106
111
106
96
100
108
97
83
81
84
82
86
76
82
112
138
150
165
192
211
233
251
262
274
284
284
279
280
271
230
193
170
149
128
106
95
88
86
92
99
96
102
107
103
107
110
117
113
116
122
111
103
114
117
114
115
124
114
98
107
115
118
110
115
118
117
121
118
124
118
114
113
119
120
123
121
123
127
135
131
123
125
131
129
135
130
131
134
133
137
140
136
141
142
141
139
140
144
151
149
143
149
149
157
156
159
159
151
150
151
157
154
150
152
153
157
159
158
155
157
157
158
151
150
151
145
143
143
137
139
134
134
133
137
145
124
115
114
114
110
115
112
112
117
110
113
111
117
117
114
102
99
104
106
113
108
110
112
114
113
107
108
109
107
105
109
115
120
113
113
109
107
105
110
114
106
107
108
113
109
116
105
112
112
109
113
115
114
114
111
119
119
115
110
110
110
118
117
121
120
111
118
124
115
111
119
122
121
123
123
119
117
120
128
124
127
131
116
112
116
119
119
120
120
120
123
128
124
121
121
118
111
115
125
123
111
114
109
110
115
117
117
107
98
105
110
112
109
98
109
113
113
111
103
108
112
115
118
121
108
100
106
97
98
99
94
85
77
79
79
92
110
125
144
162
177
205
225
250
264
271
274
285
281
281
271
236
204
178
156
141
120
104
95
94
100
108
114
118
120
114
104
118
125
116
107
118
105
107
113
107
109
114
113
119
121
114
118
124
119
115
119
124
122
123
121
120
123
125
129
139
124
113
122
122
121
124
122
120
122
128
135
138
141
135
143
151
133
128
128
134
141
145
144
140
137
140
146
147
153
138
150
159
160
164
168
154
152
155
158
161
155
147
151
149
157
154
156
156
158
158
145
138
134
139
138
133
137
138
133
123
114
117
123
117
120
111
114
120
103
106
108
111
114
113
103
107
111
110
99
100
108
117
109
98
106
99
98
101
106
107
113
113
101
105
107
108
117
112
107
106
111
103
103
105
104
107
103
107
110
110
107
113
116
107
101
104
105
112
111
117
112
111
99
107
109
107
103
113
120
125
113
113
114
112
116
113
113
111
111
109
112
115
113
114
128
126
111
115
114
109
106
109
118
121
117
116
106
103
109
105
102
107
100
102
98
101
103
109
110
100
101
99
99
104
97
96
95
103
94
90
98
102
99
100
102
100
100
97
98
93
79
74
76
73
77
78
92
109
139
154
168
188
209
231
247
252
263
264
260
256
254
231
193
164
134
119
107
90
76
82
83
92
92
95
98
99
104
113
114
102
96
102
109
112
103
111
112
99
98
106
111
106
106
105
98
107
110
113
117
108
110
118
114
111
107
113
116
121
123
118
113
120
118
124
115
105
109
118
121
125
117
120
116
114
119
126
133
132
128
126
134
132
131
133
141
141
143
143
149
141
137
141
142
139
146
144
137
139
141
138
147
149
144
140
145
136
128
127
121
123
119
120
122
115
116
127
122
112
101
107
102
97
98
102
104
104
110
110
92
88
91
97
96
98
96
100
92
105
99
91
89
90
96
96
96
98
88
89
96
97
93
95
93
90
92
99
94
95
94
100
99
93
92
98
96
96
95
87
96
101
98
101
102
91
90
93
99
101
104
98
102
101
98
98
101
102
104
105
111
103
101
103
106
107
107
106
118
117
101
97
96
101
110
111
106
101
103
108
113
107
107
105
100
101
96
105
99
92
96
97
95
95
95
90
88
85
88
92
95
98
97
96
98
95
81
82
88
89
90
92
95
100
91
79
87
86
83
83
76
73
65
64
80
77
88
117
146
143
156
182
196
216
233
238
244
245
244
245
234
201
171
130
123
114
99
79
74
77
74
76
85
89
98
99
93
100
107
93
89
90
93
98
95
96
99
97
101
94
95
96
107
101
105
109
111
107
101
102
108
112
105
98
99
105
111
110
111
110
108
106
110
111
111
113
120
116
116
117
116
117
112
112
117
130
137
134
125
121
123
127
135
142
128
131
129
129
129
134
144
133
135
137
140
135
142
136
134
135
129
135
128
128
129
129
128
123
122
122
120
119
108
105
110
99
100
106
101
98
101
100
96
92
90
97
104
93
89
89
89
84
81
82
88
88
90
89
90
95
88
83
86
92
97
92
92
93
98
91
85
90
91
88
88
83
79
82
86
90
86
84
79
91
92
100
97
93
91
85
90
92
93
98
96
95
87
87
89
94
90
93
94
98
98
107
99
83
94
92
94
101
98
103
101
98
102
97
94
102
104
107
91
93
98
101
98
99
101
101
102
106
105
101
97
94
91
90
91
89
86
86
92
92
88
90
91
86
89
92
93
89
88
81
84
90
88
87
89
85
92
89
90
85
80
78
79
83
78
74
64
54
67
74
72
80
101
123
141
157
176
194
210
224
237
248
241
242
236
230
203
171
138
124
113
89
77
76
76
77
79
80
76
86
91
85
90
89
94
89
89
90
91
92
90
97
93
98
102
100
90
85
94
94
91
101
102
102
95
93
94
93
101
98
100
95
98
102
103
100
104
104
113
109
99
110
108
105
108
115
111
112
113
114
117
129
127
130
115
117
124
124
124
124
129
132
131
133
121
124
140
134
126
129
139
137
138
134
130
129
129
134
130
124
123
120
119
113
107
110
110
108
106
107
102
107
103
103
100
93
88
89
95
96
82
84
81
85
87
88
89
90
85
81
89
82
78
80
83
84
85
82
82
81
88
83
86
84
92
82
84
91
83
82
84
83
85
91
89
86
89
79
79
85
84
88
89
88
88
86
93
90
86
82
81
84
89
86
84
87
86
88
90
91
94
87
89
93
101
95
91
98
94
94
96
96
108
92
95
92
91
94
91
98
99
98
101
97
101
103
103
106
92
89
89
81
90
89
89
84
84
86
85
89
89
86
85
78
81
83
86
90
84
80
86
82
91
94
90
71
73
78
81
81
91
87
75
72
68
64
61
60
60
63
72
90
106
125
145
166
182
200
224
230
242
253
242
239
236
216
176
149
135
122
101
83
80
66
72
75
77
70
71
76
82
86
87
89
94
89
94
92
87
86
81
83
85
89
88
93
97
96
97
98
98
90
100
94
88
93
95
96
94
98
96
103
102
98
101
105
102
100
108
105
103
103
110
110
112
110
112
110
110
109
107
117
125
116
118
118
120
120
118
125
126
130
129
126
125
129
130
132
132
123
126
129
129
135
131
131
128
127
126
130
117
117
125
118
118
118
111
109
98
97
95
102
105
90
91
94
89
88
90
84
86
82
85
88
89
81
84
89
86
83
81
84
82
84
73
74
75
71
79
83
84
84
84
87
87
82
74
82
83
81
82
78
82
86
89
96
80
78
87
90
91
84
90
86
86
78
84
84
86
86
83
89
88
92
83
79
83
84
81
90
91
90
92
92
88
89
89
94
91
87
94
103
109
99
94
84
83
87
90
89
93
92
94
93
92
95
96
97
99
100
89
98
97
104
97
91
91
90
86
87
84
85
85
84
87
87
88
90
85
87
87
79
80
92
87
83
83
80
81
81
88
90
85
85
87
89
81
82
78
76
65
61
61
61
71
81
96
115
132
143
163
185
201
218
217
225
235
233
236
240
222
177
151
132
119
103
73
70
66
79
76
71
75
78
87
91
84
83
89
97
93
92
97
100
97
89
89
91
94
91
100
97
94
96
97
97
101
99
99
103
97
99
102
100
107
103
105
103
97
97
107
111
112
104
101
103
106
105
105
109
117
118
113
121
118
112
114
111
121
128
132
136
126
128
127
125
133
133
131
134
138
138
137
141
130
140
142
130
120
120
133
127
121
123
116
124
122
121
119
120
119
114
109
106
108
108
110
104
98
105
99
91
96
97
98
90
87
105
100
96
91
83
84
82
88
92
88
86
82
84
95
92
78
83
86
96
95
85
86
80
70
81
90
96
94
92
89
94
96
97
85
75
81
87
80
85
93
83
88
92
92
91
85
83
84
88
93
93
94
101
92
86
90
88
91
92
96
95
96
98
106
105
90
84
92
92
97
104
94
93
95
97
99
99
98
103
102
95
97
96
94
93
93
98
99
99
101
101
106
100
94
97
97
98
94
96
92
93
96
92
95
82
79
89
92
82
85
83
88
93
90
89
95
86
84
91
85
87
87
90
90
88
88
84
85
90
87
81
82
73
73
72
70
84
86
97
113
135
147
160
184
194
204
226
232
237
221
219
213
203
181
147
127
118
100
80
64
63
64
71
80
92
88
81
84
91
92
85
93
100
92
93
99
97
92
94
98
100
99
99
102
98
101
104
101
106
124
111
99
99
97
100
106
108
109
106
114
106
104
111
111
113
110
113
114
120
121
115
112
112
113
117
125
128
125
117
118
117
122
131
131
135
137
134
125
136
150
132
126
136
142
126
131
140
132
137
138
133
136
131
134
133
135
137
136
126
127
119
114
116
123
121
117
104
101
105
107
109
105
96
98
101
100
93
97
97
94
93
93
94
91
88
85
87
90
93
97
89
91
93
87
80
88
89
92
91
92
92
95
88
90
83
82
85
86
86
86
86
93
98
94
90
92
96
97
92
95
94
92
93
92
84
92
98
92
94
99
97
98
100
99
101
90
87
94
93
91
92
97
95
101
99
97
98
99
95
90
98
106
97
95
98
98
99
101
103
97
97
99
106
113
114
110
113
91
84
91
89
96
102
104
105
104
97
99
100
94
97
94
95
93
96
100
97
92
94
92
97
98
90
86
90
96
91
89
90
83
93
104
99
87
93
88
87
92
90
84
90
85
90
87
88
85
86
86
79
72
69
84
98
94
120
134
151
159
174
195
209
225
229
237
236
236
226
220
192
157
138
128
116
96
81
80
72
77
89
89
93
86
84
88
93
94
98
99
99
102
111
105
101
98
104
99
95
93
97
94
100
104
98
106
103
100
106
104
109
103
104
109
107
109
107
107
112
115
121
118
107
99
103
103
107
107
113
114
116
119
118
115
120
124
122
122
125
125
134
128
119
122
129
139
137
146
145
136
139
134
135
135
139
136
136
135
135
136
134
142
138
132
130
125
127
127
126
103
119
118
116
115
103
103
95
97
99
95
97
100
96
91
97
98
87
93
85
85
87
89
88
88
89
86
85
87
90
98
96
94
86
81
85
89
85
83
88
92
92
95
90
85
85
83
86
91
94
96
98
89
89
96
98
87
84
85
90
91
92
89
88
96
96
95
92
97
106
83
84
88
93
95
95
89
87
88
94
92
90
89
92
90
91
88
95
96
93
92
95
94
91
92
102
98
104
102
94
86
93
106
108
104
94
94
91
97
96
91
91
93
95
101
105
95
97
107
107
97
97
93
99
102
105
98
87
98
92
92
98
93
87
85
88
90
87
88
85
89
88
92
93
90
84
89
89
86
83
78
83
88
91
98
87
86
84
84
85
77
78
76
76
81
92
102
119
129
143
162
169
180
200
216
228
231
241
226
212
214
196
167
142
127
116
95
89
77
66
74
81
84
83
82
85
95
95
96
104
106
98
86
95
97
98
101
100
109
96
91
99
102
99
97
102
101
108
106
100
98
101
99
100
103
102
99
106
111
108
113
107
111
105
111
114
116
112
124
121
116
118
126
121
106
109
114
122
129
127
128
136
144
132
124
123
127
134
134
138
140
141
133
138
143
133
140
137
137
137
138
140
142
136
127
132
140
137
122
125
127
119
112
112
106
109
113
106
105
107
101
101
100
104
98
96
95
86
95
98
92
95
93
96
95
90
90
88
83
88
88
87
94
92
94
96
100
106
90
94
96
85
92
94
86
89
95
98
94
98
98
97
95
103
101
90
86
94
93
91
97
94
96
98
97
97
95
99
97
103
101
96
102
99
99
98
98
98
91
91
105
94
95
95
93
97
97
101
100
104
107
101
95
94
99
102
89
89
95
100
100
98
97
102
99
96
103
106
109
116
100
103
110
99
99
101
107
92
97
103
97
104
103
100
103
110
109
105
105
107
102
97
105
106
101
102
97
96
97
100
105
108
101
80
84
93
98
95
94
104
98
95
100
101
90
87
91
93
93
97
99
84
83
85
86
90
86
88
83
84
81
83
89
102
120
124
136
151
165
180
192
215
232
228
231
240
232
225
219
198
181
162
134
102
91
83
84
84
88
91
89
87
88
96
101
99
105
105
111
108
99
100
93
95
96
106
103
101
103
106
102
105
105
103
106
112
111
106
110
112
111
110
103
112
113
112
112
111
117
118
121
116
115
120
116
119
116
120
118
123
117
121
126
123
129
132
130
137
131
138
129
131
135
128
138
142
141
142
142
145
138
133
134
143
141
148
150
162
155
140
123
130
134
130
135
136
137
124
120
125
120
122
132
113
101
113
110
104
101
101
93
95
97
100
96
96
100
99
96
93
95
98
102
102
93
92
88
90
85
93
96
96
93
91
94
100
98
101
98
87
92
89
96
94
90
98
99
98
98
94
97
102
102
90
98
109
99
95
104
114
101
89
92
91
102
101
92
94
107
111
108
109
103
94
98
109
102
97
95
102
100
97
102
106
111
110
111
106
109
107
103
101
104
107
105
115
118
103
95
102
106
98
100
118
99
92
104
111
106
107
112
111
114
111
108
112
114
112
106
108
115
117
114
115
114
114
114
116
118
123
124
118
112
112
114
114
106
107
107
102
107
106
104
109
105
104
113
98
95
99
110
103
109
118
106
97
101
106
104
102
102
99
100
103
101
102
99
103
96
98
101
90
91
112
133
138
151
171
192
209
229
231
241
251
249
247
246
242
208
183
165
150
123
107
102
95
92
93
100
103
101
101
103
112
114
110
111
110
114
121
116
115
106
99
103
113
114
120
114
113
114
116
119
112
120
124
119
123
123
111
119
121
120
116
109
118
127
131
121
124
124
115
124
128
134
131
126
133
128
118
127
132
131
135
141
144
138
138
135
140
146
149
154
157
144
153
148
151
157
152
152
156
156
154
160
157
136
147
143
156
146
146
140
147
145
132
137
138
135
130
132
130
116
123
118
114
114
115
115
107
106
114
117
108
112
106
103
101
99
98
101
104
107
98
103
106
104
107
106
104
104
102
104
106
104
103
107
104
96
100
107
102
110
120
118
115
112
103
104
96
95
98
101
102
112
108
101
103
107
110
111
100
94
97
102
100
105
109
107
106
109
103
103
111
111
112
109
106
106
108
108
111
103
108
107
115
112
113
112
93
101
106
103
98
98
110
110
104
103
98
98
107
103
104
107
108
102
103
106
108
104
104
109
101
102
108
104
107
110
110
109
119
108
108
104
104
105
104
104
109
113
115
108
109
117
114
112
112
111
111
106
105
105
103
100
97
101
104
101
100
106
108
115
108
104
105
105
96
99
88
91
92
99
99
102
103
102
99
104
97
99
95
91
92
81
83
80
87
98
115
131
149
162
181
199
210
221
241
253
255
257
230
230
232
206
164
146
132
113
100
88
81
93
83
88
97
104
103
106
94
92
101
114
105
103
104
99
100
103
104
105
106
106
108
115
111
109
113
116
107
115
120
114
120
125
119
102
111
116
112
113
113
115
118
118
119
119
125
122
117
121
119
122
130
130
127
119
122
132
134
139
137
132
126
137
135
135
142
151
152
145
132
143
138
145
150
148
139
150
146
145
145
141
142
149
150
151
148
139
140
135
134
130
127
122
126
132
120
112
115
120
124
108
109
106
100
100
103
107
106
110
103
111
94
90
101
104
95
96
103
102
99
91
92
93
98
102
103
102
98
100
98
102
93
96
99
92
95
91
98
92
96
102
104
107
111
104
94
103
96
102
108
105
94
84
101
117
113
107
92
93
90
91
99
101
107
105
96
101
102
95
90
95
97
100
105
101
101
97
100
103
102
103
98
98
94
95
100
90
102
101
102
98
99
102
97
90
103
100
99
102
111
109
107
90
95
97
100
99
102
105
104
111
96
104
101
105
115
115
111
97
92
103
106
102
97
98
107
103
102
115
107
97
94
92
93
93
98
87
88
104
102
104
99
96
91
94
86
89
94
102
90
87
89
94
97
93
94
94
87
90
81
75
80
87
92
95
118
132
145
161
182
194
205
225
237
247
242
229
237
238
219
176
151
138
126
106
81
77
81
88
91
87
92
85
89
97
99
106
108
112
103
101
101
97
95
102
101
100
99
103
110
93
95
91
98
107
112
110
110
111
113
102
103
105
113
119
118
124
120
118
122
114
102
111
104
112
109
115
117
123
119
117
118
118
128
134
140
122
120
128
133
126
134
144
145
140
130
133
143
140
144
153
148
155
135
126
127
138
145
138
129
135
144
138
129
127
123
129
125
132
130
120
114
109
111
110
107
107
108
117
119
95
94
103
95
92
94
96
98
99
100
90
91
100
108
83
77
83
86
96
91
84
84
90
92
88
100
106
98
90
83
86
80
80
97
89
99
91
94
87
87
94
92
95
93
90
86
88
93
88
97
94
96
92
92
97
93
96
95
101
98
82
83
93
92
84
89
99
96
99
102
95
98
83
84
87
93
89
93
88
89
83
91
88
93
91
97
101
90
92
87
90
99
100
96
87
100
107
106
97
98
99
102
101
93
86
93
96
97
92
96
94
98
96
100
103
110
104
92
95
97
102
99
92
86
87
92
90
84
87
92
102
99
91
86
78
84
90
88
86
89
94
93
89
86
89
90
92
99
86
82
85
78
81
77
72
74
67
71
89
103
105
102
129
154
177
190
203
218
224
241
243
242
228
229
225
186
153
133
120
104
83
76
72
72
78
82
93
84
70
81
90
96
103
96
101
96
91
92
95
91
92
94
100
97
98
103
96
101
101
93
93
97
100
98
98
107
111
105
104
101
101
104
99
100
103
110
111
107
99
111
118
116
109
114
114
109
116
117
118
124
122
116
123
119
115
123
125
131
130
128
136
137
135
128
135
135
129
140
145
131
125
133
129
132
141
133
131
129
116
127
121
121
124
127
114
107
108
113
106
108
114
101
102
102
95
102
91
96
95
97
86
84
88
92
91
87
84
90
88
83
86
87
84
88
97
84
79
82
85
93
93
89
82
83
81
80
89
87
88
94
107
100
95
89
83
81
86
92
99
97
90
88
78
84
87
86
92
96
96
94
98
96
80
85
87
93
97
94
92
91
97
97
90
80
83
89
90
91
90
92
88
85
84
87
93
94
99
90
91
89
99
100
90
90
84
78
87
90
94
93
94
92
91
92
98
107
94
88
91
98
95
91
96
96
103
101
94
93
93
92
96
99
90
93
94
90
91
89
85
81
90
94
91
84
79
76
79
81
82
86
84
92
93
93
101
90
68
77
90
86
79
74
78
80
73
65
65
61
73
85
96
112
131
157
172
187
202
223
236
243
236
225
222
228
223
179
147
131
120
105
80
74
67
67
62
65
71
85
91
91
84
79
90
85
86
94
88
90
85
83
82
85
87
91
96
91
82
88
96
91
91
94
95
100
102
102
98
97
105
109
93
92
96
97
102
97
95
101
103
95
106
105
104
106
107
112
115
114
115
107
103
105
112
118
126
118
113
117
126
117
123
139
140
128
126
123
120
121
119
118
121
125
128
126
123
123
121
124
120
114
115
120
116
112
104
97
107
115
105
101
82
86
94
93
91
90
86
92
95
87
80
76
78
82
82
80
74
81
82
85
78
74
76
78
85
84
85
90
69
62
70
75
83
80
89
85
78
79
73
77
80
80
78
78
85
80
82
81
82
83
79
77
84
82
77
82
84
84
82
83
85
89
77
92
103
92
69
79
76
77
80
80
74
83
88
80
76
83
78
80
80
83
80
81
85
86
91
99
87
71
84
91
81
87
84
89
90
83
84
92
91
79
78
84
88
85
92
90
91
96
87
78
86
78
74
82
83
82
84
83
77
71
76
75
73
72
77
76
75
79
80
76
77
81
80
83
76
72
77
75
79
79
76
80
81
71
70
75
71
53
50
61
74
86
111
121
124
145
169
183
197
216
222
217
204
201
199
195
157
123
106
95
80
65
59
56
61
62
72
70
75
77
77
87
76
73
84
87
85
81
81
86
87
88
81
91
92
83
83
79
80
82
86
85
88
87
93
92
86
95
88
86
87
93
92
94
105
91
93
95
91
88
91
99
100
99
103
104
104
107
108
110
110
118
120
111
105
110
103
111
118
120
118
120
117
110
112
120
118
118
118
126
125
127
123
115
113
120
121
114
105
112
114
111
108
113
105
97
95
96
101
103
102
106
87
78
86
80
77
85
86
84
88
90
77
69
71
78
80
80
72
75
75
74
70
67
71
73
72
72
70
75
78
81
75
63
70
74
79
78
78
81
87
84
74
73
73
74
74
75
80
80
85
77
70
77
78
78
73
73
72
75
76
79
81
81
79
75
79
79
78
88
75
77
87
85
75
80
77
83
80
82
76
75
83
87
84
89
91
83
89
88
85
85
81
82
83
83
85
83
87
91
89
83
93
98
101
91
77
79
81
86
76
76
76
71
73
79
79
77
76
73
71
73
75
71
77
82
90
73
78
64
70
75
75
78
71
79
76
69
70
70
73
73
72
78
73
61
63
76
84
96
113
127
140
153
166
180
189
195
202
184
188
194
188
170
135
103
83
76
62
53
51
53
55
55
62
67
73
74
68
73
82
76
83
86
86
80
80
80
84
83
85
94
98
90
90
84
91
88
90
85
89
87
85
86
92
86
90
91
93
91
91
99
118
106
93
92
99
103
93
98
99
107
103
109
110
98
104
108
116
108
106
112
107
118
119
117
119
116
121
115
117
125
120
124
126
119
119
117
123
122
124
133
131
118
115
117
113
108
112
115
107
108
111
114
110
99
97
97
94
90
93
97
87
81
83
81
78
76
83
83
89
81
77
76
80
73
70
70
71
70
73
75
74
80
71
75
75
73
77
70
69
73
68
70
72
76
73
76
70
72
77
76
73
71
77
74
68
73
80
83
87
90
79
75
73
77
80
78
79
87
96
93
84
75
68
75
76
79
77
77
77
75
70
76
79
75
80
81
82
82
80
88
90
80
78
87
88
80
80
84
87
86
88
89
91
76
88
87
80
86
87
90
81
74
77
79
83
85
85
89
84
73
72
69
64
66
69
68
69
69
80
76
73
68
65
63
66
69
74
72
74
73
69
75
77
66
61
57
59
58
60
67
79
93
113
125
136
149
158
175
196
196
208
197
198
198
197
185
154
113
94
89
78
65
49
48
47
51
57
68
74
78
73
77
83
81
76
71
77
81
81
80
81
78
84
82
76
80
77
80
73
81
90
93
93
87
85
92
89
90
82
91
94
90
78
90
88
97
102
107
98
94
85
96
100
104
104
104
90
93
102
99
105
106
109
108
115
113
106
105
111
116
114
120
116
119
116
112
111
119
119
125
126
123
115
110
111
109
114
117
118
109
113
106
99
99
95
101
104
105
96
84
91
86
78
84
79
77
80
76
74
80
74
70
75
79
74
81
70
66
76
79
60
59
71
74
71
66
69
61
70
68
69
70
62
66
70
67
65
68
73
74
75
75
73
71
65
67
68
67
73
73
70
72
70
71
73
78
77
77
72
74
67
68
75
68
68
76
84
80
77
71
75
78
77
69
76
82
79
77
83
86
83
90
82
70
74
77
76
73
81
78
81
89
81
69
77
80
80
81
78
72
75
84
84
81
70
67
78
71
72
71
70
72
69
64
61
67
70
68
69
76
72
66
66
68
71
68
69
68
76
69
65
67
70
72
71
66
55
55
60
46
44
65
73
81
107
121
128
150
167
178
199
206
209
218
221
211
190
187
152
125
110
95
86
74
64
50
47
52
57
62
65
70
79
77
73
75
76
76
82
85
76
69
76
80
82
78
82
85
81
74
81
88
85
69
77
84
82
84
87
85
92
97
84
78
80
79
83
92
92
91
85
89
90
91
93
90
94
97
101
100
110
106
100
103
115
115
108
115
119
121
102
90
108
106
107
113
118
115
112
108
114
115
117
118
120
118
120
118
111
106
109
108
110
107
101
99
94
99
95
94
89
87
87
87
84
86
89
80
77
76
80
70
66
73
70
69
70
82
76
63
65
72
67
64
68
67
63
61
67
60
65
69
72
70
64
72
72
68
72
69
64
63
69
72
68
74
81
82
80
65
63
62
65
69
73
75
73
73
69
72
68
67
70
73
70
74
77
75
79
78
71
69
73
82
82
81
94
81
62
64
70
75
81
82
72
71
81
84
76
74
78
77
75
73
78
84
78
73
80
87
85
85
80
82
79
68
74
72
72
74
71
71
81
68
64
67
67
65
70
70
57
60
70
80
76
70
67
60
65
68
64
57
63
63
50
55
56
49
47
42
49
66
73
79
110
123
127
158
172
187
204
208
218
217
218
222
213
177
143
122
107
98
84
61
52
50
54
58
60
63
67
68
70
78
78
64
69
73
71
72
69
75
73
72
68
72
78
83
79
83
82
78
82
77
76
79
87
85
74
77
89
83
80
83
81
86
87
88
91
95
91
88
84
89
94
94
86
91
98
95
93
89
93
97
99
110
114
107
106
99
101
105
103
111
114
111
118
119
123
122
107
110
117
111
117
115
117
116
110
110
104
104
98
104
97
89
94
90
90
94
92
84
77
85
89
80
76
77
73
72
73
72
74
65
64
66
66
59
68
69
66
74
71
63
63
68
66
61
58
58
63
64
60
63
67
69
72
77
67
61
64
59
58
65
69
75
62
70
79
86
66
57
65
68
68
69
67
68
70
63
67
69
74
72
72
67
71
70
73
67
71
68
66
74
77
86
74
73
87
75
73
74
71
76
79
76
82
86
64
66
72
77
79
85
85
78
89
88
76
80
77
79
75
74
70
74
66
66
73
69
72
70
70
66
62
64
68
73
72
61
63
66
64
69
70
72
66
59
65
68
69
78
71
51
51
48
49
43
43
49
52
55
86
108
123
138
159
178
201
213
211
214
221
216
212
210
178
147
123
113
93
74
60
53
60
54
50
59
69
74
67
65
70
75
72
70
77
74
78
73
69
71
73
74
66
73
75
79
83
75
79
77
75
75
81
80
82
84
92
82
73
76
75
84
81
79
83
84
97
96
84
81
80
89
93
89
88
94
91
92
95
101
105
100
103
106
115
103
107
104
102
99
101
104
109
112
119
119
107
