14
17
29
12
25
20
21
27
32
21
33
35
11
13
17
24
21
7
8
21
0
9
17
37
45
20
11
21
32
20
14
21
35
24
13
15
16
19
30
43
39
31
8
12
6
21
15
11
19
29
34
33
33
42
13
17
20
15
17
2
15
9
22
13
25
17
3
24
4
16
32
13
9
24
30
14
2
15
23
26
40
33
14
6
-2
8
0
19
28
27
26
30
24
30
1
15
25
19
15
17
18
21
9
21
18
14
8
3
7
31
35
16
15
22
-3
9
12
32
7
23
15
11
9
25
32
14
12
10
16
37
21
19
6
17
14
7
28
22
18
26
26
21
18
24
11
6
9
1
18
17
32
23
22
24
27
32
19
9
12
26
31
26
21
22
29
25
16
36
46
32
10
5
13
27
42
31
26
21
21
15
4
11
21
21
8
8
27
30
22
10
23
20
15
-1
-7
-9
16
9
14
5
-1
28
44
44
58
83
123
154
176
218
190
165
162
150
140
109
94
82
45
35
30
0
15
32
19
24
11
17
-4
9
20
14
28
13
20
23
14
2
22
19
14
4
11
4
12
23
9
11
13
15
21
30
32
25
-3
15
27
25
35
30
-1
13
19
24
16
34
10
28
34
29
18
13
3
21
18
28
22
26
27
28
31
26
35
29
18
9
13
29
14
21
35
50
44
19
28
29
33
36
23
20
30
44
46
49
48
38
57
73
62
65
60
61
58
54
52
71
68
66
59
42
62
74
68
51
47
72
56
49
71
77
45
40
67
46
36
58
59
50
63
46
39
28
26
31
47
42
56
30
41
18
23
49
38
24
25
30
19
45
37
25
23
23
27
46
20
15
13
8
31
26
0
16
20
19
13
27
39
15
19
42
14
18
27
18
24
25
31
38
4
12
33
41
25
30
22
20
32
26
21
13
12
11
15
19
33
34
30
42
16
25
26
20
19
22
-3
27
25
25
35
30
20
13
26
29
19
19
23
29
34
30
16
16
11
36
31
25
16
23
23
35
30
38
34
16
7
3
20
37
17
24
34
25
12
32
18
15
16
9
22
12
38
17
23
28
19
22
18
23
18
12
29
31
16
23
22
30
23
29
26
29
22
15
21
19
-1
7
14
31
28
27
24
25
16
10
-8
31
34
11
11
24
31
25
10
16
24
17
28
34
28
29
49
36
23
14
22
23
15
16
5
17
43
34
12
28
25
9
25
15
20
27
21
18
36
25
8
36
37
36
33
24
11
13
24
34
34
27
27
34
38
31
18
11
5
21
15
23
16
47
43
25
26
30
20
13
25
14
28
11
28
24
24
20
29
40
26
20
7
28
60
39
15
20
47
50
40
27
41
28
25
53
51
29
19
30
33
43
43
14
23
31
21
27
23
17
21
16
27
29
27
17
35
20
31
18
14
19
20
22
16
-3
-3
17
15
17
34
26
34
49
68
67
75
99
153
177
192
204
194
170
139
147
142
107
95
60
32
26
4
11
7
26
24
5
4
21
20
26
15
26
21
21
-6
21
45
24
28
40
27
25
2
16
37
25
8
21
19
28
35
22
25
32
31
23
25
13
23
21
35
25
6
36
29
26
23
16
13
26
26
29
32
23
5
30
28
26
36
30
31
37
35
32
42
29
17
28
42
52
32
24
37
44
32
40
37
43
51
48
53
42
51
42
36
47
47
60
61
50
68
58
58
67
49
52
62
39
62
84
67
66
56
75
82
49
56
64
64
66
77
72
84
64
58
57
65
69
56
42
31
39
44
39
26
24
30
41
30
20
23
29
35
22
29
22
47
18
10
41
28
30
35
36
12
2
15
32
31
32
32
29
21
35
44
30
15
20
23
46
24
25
33
4
26
26
24
26
16
37
34
-8
18
10
12
33
39
39
19
29
31
18
31
28
32
30
20
33
32
17
9
35
32
37
33
28
32
18
19
17
26
13
39
34
33
14
32
30
23
13
35
17
27
19
9
19
36
30
24
36
52
26
17
20
21
38
40
-1
26
30
33
33
42
42
30
11
38
34
32
33
11
16
31
22
20
20
21
24
28
34
24
17
21
21
40
33
7
20
22
28
22
33
20
27
32
22
25
14
-11
12
56
8
14
23
41
18
29
16
36
31
26
31
45
23
26
28
30
28
27
35
33
15
32
31
22
18
34
30
31
11
20
20
27
31
13
27
29
20
11
12
23
24
7
20
28
35
35
33
8
18
33
43
29
23
30
11
29
30
31
43
30
30
21
16
19
16
32
24
26
35
32
43
26
30
27
22
34
35
34
33
45
50
37
25
26
33
37
24
47
43
41
47
29
19
28
18
21
33
19
30
23
29
31
27
24
8
9
23
16
19
20
8
-5
7
-1
15
33
35
44
48
69
85
105
129
183
218
206
177
180
145
126
140
143
114
65
33
26
20
7
11
16
11
24
15
22
14
9
18
16
1
20
35
48
14
9
30
29
35
24
38
13
9
31
21
5
20
30
28
35
28
25
36
26
30
18
34
48
24
15
40
42
38
18
7
14
16
34
15
14
35
39
17
20
29
25
19
20
49
41
35
24
26
34
33
38
44
45
34
30
37
52
34
29
20
55
66
55
48
65
59
54
38
53
44
41
52
75
72
48
51
46
54
63
58
51
52
81
70
84
65
72
89
76
78
69
60
70
57
61
69
65
71
56
47
62
78
57
36
47
32
50
33
37
39
24
18
35
40
66
40
31
22
10
9
3
24
47
34
35
18
27
31
28
28
44
36
33
32
13
28
23
28
25
21
28
31
28
29
28
26
31
24
7
-9
19
33
19
33
16
20
23
21
16
5
6
17
39
39
41
30
37
22
15
10
20
30
16
27
30
24
26
19
26
29
41
20
14
21
22
21
23
23
30
14
29
25
14
18
28
31
28
9
0
4
21
36
25
30
12
46
13
8
21
20
30
13
21
30
15
17
13
20
8
28
21
21
28
27
20
11
10
31
29
21
17
16
17
19
12
19
31
3
7
14
27
27
23
32
18
28
20
15
15
26
10
15
6
17
29
15
16
12
11
2
11
22
7
12
8
26
25
28
20
4
-3
10
32
19
26
40
13
22
46
27
0
14
16
11
5
14
7
6
4
23
26
24
19
15
30
5
20
31
20
36
3
28
22
15
11
26
31
42
27
18
35
30
34
38
24
33
21
18
32
2
7
-2
15
7
16
9
8
9
23
17
0
19
7
15
10
10
4
3
6
-31
-21
7
18
21
17
27
52
64
76
76
130
161
159
184
184
175
154
134
139
125
76
31
11
5
-11
3
3
-4
9
3
7
18
11
24
1
-22
17
20
13
-3
21
14
23
12
9
-7
12
34
28
24
35
4
0
19
24
18
19
13
15
24
29
12
8
9
17
16
6
-2
12
36
26
29
45
33
17
-1
14
15
14
22
18
14
1
12
44
17
25
22
23
32
18
24
34
21
22
30
30
33
41
32
32
34
33
43
17
35
49
38
45
40
56
45
49
41
49
77
67
57
61
77
76
66
56
56
48
48
55
36
58
61
64
64
62
68
43
40
40
39
50
60
57
44
52
69
34
29
10
46
49
27
26
35
25
24
16
32
23
11
19
37
33
27
24
12
7
0
8
10
0
24
30
41
4
12
15
3
-2
16
23
8
32
28
-3
8
4
5
13
22
11
25
20
20
-5
21
37
26
10
14
8
11
5
4
14
18
22
19
9
29
1
-3
11
13
10
15
3
-4
6
28
28
22
18
26
12
17
17
20
16
17
13
16
20
18
18
12
13
27
11
7
20
20
7
23
-5
-7
12
36
13
26
16
9
10
11
11
-1
6
7
15
26
13
9
30
20
4
14
17
6
12
14
10
23
25
18
10
5
5
11
14
6
16
9
1
0
12
7
5
6
17
34
26
13
0
4
14
10
8
27
21
7
4
10
20
15
14
17
10
15
25
28
14
22
3
-6
10
10
31
8
11
-4
8
28
22
19
31
9
16
-3
8
38
27
21
31
36
36
35
33
8
10
14
21
40
33
37
34
15
22
18
5
27
-6
3
-1
14
15
21
32
18
16
20
18
20
-10
15
13
0
-5
2
11
-11
3
5
4
38
38
43
63
100
154
170
194
195
177
170
152
147
127
123
86
29
-9
12
23
-7
-9
10
15
-1
6
11
-7
17
16
-2
16
21
30
21
-6
-8
6
1
-5
1
26
18
14
-2
9
7
21
47
28
11
6
8
23
42
28
13
36
20
3
31
31
17
6
8
13
18
14
33
33
27
15
22
1
17
12
1
8
38
44
19
12
6
17
20
34
37
18
32
43
39
31
33
54
57
25
27
22
40
39
68
51
59
43
38
48
47
54
78
51
51
50
52
51
63
64
52
73
65
64
67
53
58
95
70
56
76
88
80
72
60
83
55
59
70
61
44
41
32
31
67
46
40
49
21
31
43
36
34
27
26
30
16
23
33
19
-14
11
40
11
13
22
40
35
32
29
17
19
38
10
21
19
18
12
10
-1
4
37
34
14
26
23
23
12
6
15
21
27
17
13
26
23
14
-1
-9
18
20
17
5
-1
26
18
1
14
15
23
16
29
33
31
23
1
6
29
23
-5
27
21
24
29
38
30
31
2
2
5
11
14
29
25
25
18
16
11
12
19
11
21
13
21
-10
12
24
30
31
9
10
18
12
6
25
16
9
8
14
12
16
18
25
33
26
11
4
18
7
-7
27
23
17
19
8
4
11
4
23
23
14
11
8
-1
17
23
14
21
20
12
6
27
5
19
26
16
17
8
18
5
9
10
30
19
12
7
6
6
13
10
42
42
25
23
20
5
0
14
35
33
25
21
31
21
17
7
41
15
36
42
20
3
10
16
1
16
10
12
20
13
13
18
33
5
-11
7
17
10
2
-7
-8
4
6
-11
0
-12
-16
-8
14
26
46
56
76
122
162
176
198
169
182
155
131
134
131
119
60
30
3
-12
-7
8
-6
-9
8
-12
9
7
10
11
0
9
10
4
-7
-11
-14
9
9
11
10
7
1
8
-4
-3
25
9
19
1
15
15
4
5
-3
2
23
32
-2
0
18
14
9
8
12
2
12
16
7
13
24
21
16
7
17
24
10
4
17
6
6
19
22
12
2
8
14
1
14
-9
31
24
24
35
22
39
44
39
22
29
37
37
33
39
38
41
31
40
48
28
56
71
37
29
54
46
57
63
40
29
36
87
62
58
61
62
41
56
45
48
40
36
43
39
40
48
45
58
24
26
28
30
28
31
29
22
11
24
11
21
25
5
-8
5
25
39
7
12
18
2
2
4
2
7
20
19
17
15
1
24
-1
-6
1
4
13
1
6
7
8
3
-15
-23
2
39
11
-1
2
24
12
6
10
3
-1
17
0
-3
4
18
7
-16
-1
14
16
28
8
6
-3
-2
1
8
-1
19
1
-4
16
19
3
-5
4
10
17
2
18
13
1
4
0
3
14
0
-9
-4
11
11
13
10
13
-8
9
9
4
5
-12
3
16
-1
-3
1
-8
-2
15
4
-3
11
9
6
28
4
-9
-2
4
-1
0
-13
15
-5
26
13
1
-10
3
-13
11
1
6
4
0
-5
7
-3
-13
9
4
2
-8
-10
-1
-8
0
-3
3
9
13
5
-4
0
4
-7
-17
-14
0
19
-2
1
2
5
15
19
22
-1
9
22
16
9
16
24
5
16
20
10
-1
11
-11
9
5
2
4
1
14
6
-4
-6
12
-3
-6
-1
-3
-27
7
6
2
-13
-6
12
3
-14
4
3
-13
-13
-7
-2
-15
-2
2
3
-8
16
54
64
108
135
143
162
168
164
149
138
118
115
106
49
19
4
-23
-37
-22
-16
-23
-3
-9
-4
-1
-10
-10
-9
1
-5
-1
-4
3
2
5
-17
-12
-23
-13
9
-3
-3
-3
5
0
-15
-9
18
2
-3
-7
-13
-11
18
11
2
-1
8
4
3
10
-3
5
-1
-15
-11
-9
-11
0
9
14
12
-17
-18
19
28
11
8
7
-2
-4
-8
15
7
14
12
17
20
12
-11
-17
22
34
15
-5
21
36
33
34
16
4
24
37
30
47
29
41
30
41
44
37
47
46
31
46
45
25
33
41
45
52
35
48
43
40
47
45
41
31
42
32
15
12
7
24
21
22
17
24
28
11
20
9
1
3
20
10
14
17
10
12
1
-11
-14
-8
-8
-4
-2
5
8
5
-2
-8
-13
3
12
3
-6
-5
-10
-10
-12
-8
-14
-2
5
-17
-27
-26
18
18
6
-14
10
-4
2
-3
-6
-7
-5
-5
-11
-1
-2
-11
-5
0
5
4
-16
7
4
-10
-7
-21
-13
-11
1
-5
0
2
10
-10
5
-3
-15
-13
-2
1
-9
-2
-11
-16
8
10
4
4
3
-13
-23
2
5
-6
-5
15
1
4
-11
-36
-12
-8
14
-8
-1
-8
-12
14
5
6
-14
0
4
-9
-2
-1
-6
1
-7
-12
-11
-30
2
9
-7
-8
-3
-9
-5
-14
-9
2
-6
9
6
7
-19
-31
-22
-8
-5
-3
17
-6
-6
5
-17
1
16
-21
-14
-39
-3
10
-2
-27
-16
-5
-13
-13
17
6
-27
1
6
5
4
-8
-13
3
-11
-12
-14
-5
-26
-10
6
27
10
-13
-39
-14
-4
-19
-19
-6
-9
-8
11
5
2
-24
-5
-6
4
17
7
6
11
30
9
10
-2
0
-2
-12
-2
-5
9
8
-9
-11
-17
0
-14
-16
1
7
-4
-17
-26
-20
-16
-8
-22
-24
-5
-21
-23
-21
-16
-38
-17
6
-6
17
35
33
53
90
123
132
139
168
146
148
131
123
106
75
38
-1
-12
-16
-38
-24
-40
-35
-12
-13
-12
-6
-6
-2
-10
-8
-17
-21
-24
-11
-17
-20
-28
-16
-5
-8
-8
-14
-7
4
-6
5
-5
-21
-30
-14
2
-6
-8
-26
-34
-25
-1
14
11
-6
-22
-8
-3
-1
12
20
-21
2
3
-12
-23
-21
-3
4
1
-13
-14
-23
7
12
13
2
16
-9
-6
-8
0
10
-11
1
-7
16
-2
-6
23
23
-11
19
16
11
13
14
12
21
11
25
36
41
25
27
23
21
23
17
29
51
54
61
40
38
31
25
33
46
24
38
34
21
29
25
36
15
-1
21
24
19
26
11
15
4
13
3
-25
-22
6
2
-5
-3
-16
-16
5
4
-6
-5
-5
-4
-13
-13
1
1
1
-3
-4
-19
-11
-20
-20
-12
-15
-9
-11
-11
-11
-21
-11
-16
-7
2
-4
-19
-20
-28
-31
-2
-12
-1
-40
-23
-42
-12
-41
-2
-6
-7
-6
-5
-1
-3
-12
-4
-13
-14
-22
-23
-15
-24
-9
-15
-20
-9
-16
-8
-11
-8
-11
-24
-26
-13
-27
-24
5
-12
-27
-26
-14
5
4
-16
-21
-13
-22
-17
-17
8
7
-18
0
-20
-23
-8
-1
-14
-20
-18
-12
-13
-23
-11
-2
-21
-22
-18
-15
-19
-28
-18
-11
-1
-13
-12
-22
-19
-2
0
-35
-25
-7
-7
2
-6
-28
-13
-15
-28
-23
-7
-7
-13
-6
-18
-14
-15
-20
-22
-33
-1
-10
-7
-2
-12
-25
-12
-11
5
-6
-21
-6
-9
-27
-18
-14
-14
-13
-5
7
-13
-5
-19
-7
-14
-8
-13
-17
-31
-25
-5
10
-21
-36
-43
-25
-25
-12
-4
17
-5
1
-3
-21
-5
-5
3
-13
-1
7
-6
-12
-2
-4
-1
-5
-12
11
-1
-6
-10
5
5
9
-7
3
-1
-7
-12
-23
-12
-16
-11
-8
-4
-15
-26
-31
-23
-29
-23
-9
-13
-8
11
-9
-5
-23
-26
-25
-1
-9
-24
-24
-7
-17
-21
-25
-11
9
35
37
38
78
105
137
134
129
143
127
106
88
94
36
-7
-15
-22
-34
-51
-43
-41
-34
-41
-18
-12
-1
1
-17
-17
-31
-19
-6
-23
-24
-18
-32
-7
-6
3
-12
-19
-11
-18
-27
-17
-22
-22
-18
-13
-9
-5
-13
-5
-26
-32
-4
-11
-19
-21
-21
-9
1
-3
-12
-10
-14
-11
-2
-2
-19
-14
-29
-8
7
-6
-6
-4
9
-11
-12
-3
-4
-18
-13
-13
7
-10
-4
4
0
2
7
8
-4
3
12
1
7
24
24
-1
0
17
33
26
25
15
18
20
32
32
34
36
32
42
51
27
31
36
22
29
19
46
31
41
35
34
23
21
18
33
24
19
24
26
24
-18
11
5
11
29
1
-8
1
-5
-7
-20
-12
-2
-2
11
10
5
-12
-6
-16
-11
-28
-26
-26
-14
1
-14
-34
-7
-11
-8
-17
-16
-3
-8
-5
-18
-16
-13
-31
-18
-14
-27
-13
-19
-20
-20
-19
-3
-10
-9
-3
-6
-23
-26
-14
-25
-26
-27
-12
4
-7
-24
-16
-11
-5
-15
-23
-18
-14
-22
-11
-35
-9
15
-6
-11
-2
-11
-21
-18
-1
-1
-22
-27
-12
-5
-12
-19
-19
-15
-12
-9
-16
-17
-19
-26
-21
-11
-21
-12
-2
1
-20
-21
-16
-10
-23
-20
-26
-22
-23
-14
-14
-16
-10
-2
-9
-18
-6
-33
-45
-2
-13
-16
6
-13
-25
-20
-28
-10
-26
-24
-22
-3
-26
-19
-24
-16
-7
-24
-11
-31
-20
-15
-2
-7
-20
-32
-11
-4
-6
-34
-33
-21
-11
0
-11
-10
-11
-6
2
-20
-27
-35
-13
-11
-28
-26
-10
-5
6
1
-5
-10
-21
-16
-7
-12
-21
17
-26
-18
3
-14
-23
-15
-23
-10
-3
13
0
12
-5
-11
-5
8
-6
-17
-13
-9
-6
-25
-20
-10
-11
-22
-26
-36
-22
-20
4
-17
0
-10
-14
-14
-38
-55
-12
-36
-17
-30
-20
-19
-36
-22
-24
14
21
29
64
87
117
154
165
151
144
125
117
100
97
62
10
-23
-31
-31
-43
-35
-38
-26
-47
-17
-30
-41
-24
0
-14
-2
15
-25
-17
-32
-25
-27
2
-25
-22
-22
-15
-13
-18
-16
-21
-12
-9
-17
-26
-13
0
-3
-26
-13
-14
-13
-22
-16
-26
-6
-21
-35
-18
-10
-4
-17
-30
2
-1
-14
-10
-13
-4
-20
-31
-22
-12
-10
6
22
-21
-2
-4
-5
-1
-12
-31
-8
2
-9
-13
22
23
18
8
5
14
8
4
8
11
7
22
16
25
37
39
7
17
24
28
23
13
5
23
26
26
26
36
35
41
12
21
41
32
23
21
18
25
22
23
28
23
18
17
24
21
8
0
11
1
5
9
5
-4
3
11
-19
-30
-3
1
-32
-42
-13
1
-19
-32
-7
-26
-8
0
-20
-2
-26
-23
-30
-3
-11
-24
-16
-8
-11
-4
-16
-16
-15
-12
-19
-5
-15
-14
-12
6
-17
-15
-14
-24
-21
-29
-27
-12
-18
-13
-16
-36
-20
-20
-13
-11
-23
-24
-14
-17
-9
-13
-16
-13
-18
-32
-20
-4
-29
-19
-11
5
-3
-4
-2
-10
-18
-19
-13
-20
-25
-5
8
-17
-15
-18
-10
2
-5
-18
-14
-6
-23
-30
-5
-30
-5
-15
-29
-15
-3
-8
-12
-16
-5
-5
-39
-34
2
-25
-31
-22
-19
-15
-37
-22
-11
-13
-7
-28
-38
5
-3
-24
-22
-16
3
-7
-22
-17
-8
-10
-12
-25
-23
-17
7
-12
-20
-14
-14
0
-7
-18
-39
-16
-12
-20
-32
-25
-26
-35
-26
-7
-11
-10
-14
-18
-15
-10
-25
-38
-16
-8
-36
-12
-23
-30
-22
-26
-9
-18
-15
-17
-10
-12
-11
-11
-7
-15
-10
-3
0
-3
-13
-15
-18
3
-13
-3
-13
-23
-4
-16
5
9
2
10
8
-11
-3
-21
-5
-26
-39
-30
-13
-29
-21
-15
-26
-21
-27
-20
-1
-8
-26
-20
-39
-30
-27
-14
-7
-17
-31
-21
-16
-10
-22
-39
-34
-21
1
26
52
75
119
133
159
168
144
131
113
93
92
70
32
15
-20
-21
-19
-27
-13
-27
-33
-37
-29
-36
-27
-18
-17
-5
-15
-26
-24
-36
-32
5
-11
-27
-22
-20
-16
-23
-27
-22
-19
-28
-7
-13
-29
-17
-31
-24
0
-22
-7
-4
-28
-36
-32
-31
-14
-13
-33
-25
-30
-19
-16
-17
-9
-18
-23
-1
9
-3
-9
-15
-6
-10
8
-19
-23
-12
-10
0
4
-29
-5
-13
-2
-10
-13
-17
-5
3
11
-10
-6
-2
-2
-6
-7
14
9
-4
17
23
22
6
3
2
28
30
31
28
20
19
21
32
33
42
25
20
39
35
33
13
29
32
41
16
21
23
14
13
4
10
-1
5
10
-7
-9
-15
8
5
3
-13
3
-16
-18
-13
-17
-31
-25
-6
-7
-9
2
-22
-15
-11
-12
-8
-6
-4
-21
-9
-14
6
-8
-26
-32
-21
-29
-21
-31
-15
-21
-28
-20
-30
-30
-28
-29
-20
2
-15
-21
-9
-5
-37
-20
-43
-22
-30
-21
-23
-13
-13
-18
-22
-7
-17
-17
-8
-18
-10
-6
-17
-21
-23
-19
-25
-5
-36
-25
-7
12
-24
-26
-27
-26
-22
-23
-17
-10
-29
-13
-14
-19
-24
-43
-38
-24
-6
-14
-29
-19
-13
-1
-20
-23
-10
-32
-29
-12
0
-5
-8
-2
-11
-25
-29
-15
-19
-27
-39
-32
-35
-5
-13
-7
-19
-20
-17
-22
-24
-16
-26
-10
-41
-34
-29
-18
-28
-34
-15
-21
-32
-26
-14
-7
-1
-28
-22
-12
-21
-32
-25
-23
-24
-21
-14
-27
-28
-25
-17
-16
-28
-15
-25
-4
-6
-21
1
-25
-22
-23
-31
-29
-19
-28
-20
-31
-32
-23
-11
-17
-19
-24
-26
-24
-27
-11
-8
-24
-26
-40
-21
-21
-26
-28
-2
6
-11
-27
-20
-17
-34
-29
-24
-21
-19
-13
-18
-16
-21
-31
-31
-24
-29
-35
-26
-33
-8
-17
-18
-12
-21
-18
-11
-6
-28
-42
-32
-33
-20
-32
-22
-8
3
-1
-12
-12
-12
-8
-9
-15
-27
-10
6
-1
-13
-1
-1
-11
-18
-24
-28
-20
-22
-33
-27
-23
-31
-12
-1
-5
-24
-24
-24
-23
-28
-22
-37
-47
-63
-48
-26
-21
-35
-49
-25
-19
-26
-14
-15
-20
16
38
46
80
124
140
157
148
133
108
96
91
82
58
35
4
-6
-26
-31
-30
-28
-39
-50
-37
-15
-27
-16
-26
-38
-31
-29
-31
-18
-26
-26
-38
-37
-27
-14
-31
-29
-42
-39
-47
-18
-22
0
-32
-33
-5
-24
-23
-23
-11
-24
-33
-30
-23
-26
-32
-35
-20
-19
-19
-16
-19
-31
-27
-35
-37
-31
-25
-22
-20
-1
-11
-28
-32
-11
-23
-22
-13
-36
-39
-17
-9
-2
-5
-19
5
-21
-17
-11
-2
-4
-6
4
-3
8
-18
0
5
-1
-16
-10
6
26
22
32
5
18
25
27
3
6
6
15
25
26
12
17
22
23
20
19
21
27
14
7
5
6
5
19
21
9
9
0
8
-6
-2
-7
10
-4
5
-6
-16
-5
3
-15
-13
-33
-39
-29
-11
-13
-21
-21
-23
-31
-21
-28
-15
-12
-17
-24
-25
-13
-12
-19
-32
-13
-31
-21
-19
-16
-26
-25
-18
-33
-23
-42
-31
-45
-36
-27
-19
-19
-24
-22
-15
-6
-16
-11
-37
-29
-28
-11
-28
-27
-26
-23
-26
-32
-25
-31
-45
-15
-22
-29
-25
-23
-25
-25
-23
-27
-39
-17
-23
-26
-14
-16
-16
-20
-36
-29
-48
-34
-27
-5
-10
-21
-30
-21
-23
-25
-30
-19
-18
-19
-18
-21
-22
-26
-27
-14
-27
-31
-24
-33
-18
-12
-29
-38
-29
-29
-18
-19
-10
-15
-34
-38
-30
-28
-30
-43
-32
-30
-26
-15
-22
-31
-36
-39
-19
-24
-14
-14
-28
-20
-36
-27
-18
-31
-21
-28
-31
-35
-33
-47
-31
-28
-26
-25
-31
-21
-23
-24
-17
-41
-47
-37
-12
-14
-21
-36
-10
-16
-29
-35
-41
-29
-11
-11
-42
-45
-34
-24
-7
-32
-28
-38
-29
-17
-34
-39
-16
-8
-25
-61
-23
-30
-9
-38
-44
-45
-33
-11
-15
-16
-44
-17
-20
-19
-11
-7
-23
-36
-43
-21
-38
-18
-41
-29
-16
-24
-17
-17
-24
-33
-22
-20
-29
-30
-34
-56
-27
2
-12
-46
-43
-20
-21
-37
-34
-22
-43
-37
-35
-43
-29
-2
-11
-28
-22
-21
-26
-7
-13
-9
-26
-22
-15
-8
-17
-25
-18
-10
0
-19
-27
-29
-15
-8
-36
-23
-22
-30
-9
-23
-45
-24
-11
-33
-37
-43
-24
-1
-17
-48
-35
-25
-25
-30
-39
-25
-21
-37
-33
-41
-40
-38
-39
-28
-27
-31
1
18
1
15
42
76
112
133
145
136
123
99
94
99
84
27
-18
-30
-24
-14
-29
-30
-43
-34
-34
-36
-20
-32
-41
-24
-24
-20
-45
-35
-47
-27
-36
-44
-32
-23
-46
-31
-37
-31
-38
-30
-39
-34
-40
-43
-28
-33
-11
-12
-25
-29
-28
-21
-21
-13
-27
-33
-42
-32
-39
-41
-22
-11
-26
-30
-20
-31
-34
-18
-31
-33
-42
-28
-40
-36
-26
-26
-10
-16
-18
-24
-30
-11
-16
-13
-25
-34
-26
-7
1
-16
-18
-19
-15
-8
-15
-15
-18
-4
-1
6
12
5
13
2
1
1
11
1
2
12
11
15
19
23
20
-1
11
23
15
16
3
2
11
26
-3
11
-1
5
3
36
43
-24
-18
11
-27
-13
-20
-27
-28
-6
-6
-6
-14
-14
-34
-26
-29
-28
-35
-31
-45
-10
-19
-17
-23
-36
-25
-29
-33
-34
-26
-46
-45
-34
-13
-15
-31
-36
-37
-34
-23
-21
-41
-42
-21
-31
-46
-57
-31
-23
-33
-27
-26
-26
-38
-32
-47
-37
-42
-28
-33
-35
-26
-34
-42
-22
-28
-36
-31
-31
-30
-36
-43
-40
-37
-30
-36
-42
-36
-28
-40
-48
-42
-23
-21
-20
-29
-43
-34
-29
-35
-44
-24
-13
-18
-21
-42
-39
-38
-45
-32
-17
-39
-25
-25
-39
-24
-27
-26
-38
-49
-36
-33
-46
-38
-37
-36
-45
-24
-26
-28
-51
-37
-40
-33
-45
-36
-47
-39
-22
-14
-26
-36
-44
-43
-41
-30
-41
-35
-31
-33
-15
-21
-35
-28
-46
-48
-33
-42
-47
-30
-25
-43
-47
-32
-43
-46
-43
-26
-22
-40
-41
-22
-32
-35
-24
-41
-53
-21
-23
-43
-34
-53
-52
-33
-26
-36
-33
-23
-30
-50
-24
-33
-40
-42
-55
-75
-41
-39
-28
-30
-41
-12
-29
-58
-31
-40
-38
-43
-43
-51
-28
-28
-8
-52
-32
-24
-33
-47
-48
-21
-41
-29
-16
-33
-49
-31
-12
-16
-28
-29
-30
-21
-41
-31
-25
-27
-34
-33
-28
-27
-33
-34
-27
-41
-44
-44
-47
-63
-58
-54
-43
-25
-29
-44
-31
-41
-26
-42
-57
-34
-11
-23
-53
-61
-48
-40
-60
-47
-52
-45
-17
-7
18
16
41
76
79
112
114
91
97
83
65
82
46
-10
-48
-41
-60
-82
-64
-81
-37
-53
-39
-53
-55
-39
-60
-39
-38
-40
-43
-48
-43
-30
-28
-36
-60
-38
-47
-42
-36
-25
-35
-67
-49
-22
-30
-41
-38
-27
-43
-45
-29
-44
-66
-25
-39
-37
-47
-57
-46
-30
-17
-32
-61
-61
-53
-58
-44
-26
-35
-33
-25
-19
-20
-17
-20
-25
-59
-50
-35
-27
-31
-27
-22
-28
-16
-25
-23
-42
-38
-34
-22
-31
-20
-11
-20
-5
-16
-18
-28
-21
-36
7
10
-10
-18
-28
7
12
5
21
30
3
13
20
22
20
-2
-4
13
9
-3
-7
2
4
9
14
-1
-6
-1
-6
-7
-1
-11
-2
-10
-24
-52
-26
-26
-20
-46
-8
-11
-25
-35
-30
-34
-59
-38
-39
-35
-37
-37
-40
-10
3
-40
-41
-32
-42
-33
-54
-38
-26
-30
-52
-60
-53
-39
-53
-53
-40
-38
-25
-42
-45
-42
-41
-51
-46
-37
-47
-42
-24
-42
-36
-44
-50
-42
-60
-50
-46
-52
-52
-40
-45
-37
-37
-26
-34
-48
-34
-35
-37
-38
-31
-46
-45
-46
-68
-44
-35
-38
-41
-26
-34
-38
-43
-49
-43
-45
-38
-30
-31
-46
-46
-40
-53
-42
-26
-23
-35
-62
-51
-24
-36
-32
-32
-26
-34
-41
-31
-48
-47
-55
-24
-40
-54
-54
-25
-31
-45
-55
-34
-41
-41
-54
-48
-39
-50
-53
-44
-36
-47
-41
-54
-44
-34
-24
-40
-45
-26
-31
-29
-29
-50
-48
-38
-28
-42
-53
-41
-52
-40
-47
-43
-48
-42
-62
-25
-29
-39
-33
-30
-29
-43
-45
-52
-51
-45
-60
-48
-31
-34
-55
-36
-36
-42
-44
-37
-41
-36
-40
-40
-36
-26
-39
-46
-40
-29
-40
-24
-26
-24
-24
-13
-29
-46
-34
-30
-28
-38
-51
-20
-9
-35
-47
-24
-42
-68
-40
-52
-44
-36
-33
-46
-32
-37
-36
-40
-43
-46
-48
-60
-56
-46
-60
-39
-60
-66
-44
-47
-37
-23
-18
11
46
86
111
119
122
119
128
105
95
88
56
19
-16
-33
-41
-48
-45
-55
-65
-48
-48
-43
-50
-48
-40
-47
-50
-28
-47
-50
-37
-53
-69
-47
-38
-44
-55
-65
-45
-40
-21
-58
-56
-59
-32
-35
-43
-56
-39
-41
-33
-46
-45
-40
-34
-46
-32
-43
-41
-48
-35
-27
-36
-16
-30
-37
-41
-38
-29
-59
-65
-32
-31
-32
-40
-34
-36
-30
-57
-49
-48
-37
-54
-31
-4
-19
-21
-24
-42
-33
-38
-37
-39
-28
-31
-24
-11
-9
-8
-20
-17
-22
8
-27
-7
-8
2
16
-2
-9
8
-4
3
-20
-14
-1
9
12
9
-16
8
9
13
10
4
4
7
-5
-9
0
-16
-47
-17
-22
-27
-25
-25
-15
-26
-27
-31
-32
-35
-41
-32
-29
-29
-36
-4
-23
-62
-31
-36
-51
-32
-32
-49
-43
-37
-45
-52
-48
-42
-21
-29
-37
-57
-47
-48
-56
-55
-48
-38
-54
-29
-40
-19
-51
-32
-33
-47
-47
-44
-50
-55
-56
-52
-39
-36
-44
-43
-39
-40
-43
-31
-30
-37
-25
-41
-44
-59
-40
-40
-30
-35
-39
-51
-41
-48
-56
-51
-47
-29
-42
-46
-42
-29
-54
-49
-41
-44
-52
-51
-23
-28
-24
-31
-24
-28
-43
-59
-53
-37
-46
-44
-48
-50
-55
-35
-30
-47
-50
-41
-34
-36
-39
-38
-34
-36
-45
-30
-36
-41
-58
-28
-44
-21
-36
-53
-43
-36
-34
-58
-50
-30
-41
-43
-51
-59
-36
-26
-44
-61
-40
-46
-46
-50
-53
-42
-40
-44
-46
-43
-48
-42
-57
-45
-55
-54
-33
-24
-26
-38
-28
-43
-31
-13
-28
-65
-44
-48
-57
-49
-37
-47
-36
-31
-32
-48
-36
-37
-33
-40
-42
-35
-48
-37
-36
-29
-27
-24
-28
-39
-23
-46
-43
-39
-34
-37
-49
-54
-34
-24
-41
-38
-40
-54
-53
-16
-35
-49
-55
-64
-38
-32
-24
-43
-58
-51
-54
-58
-67
-46
-55
-47
-55
-54
-49
-51
-50
-34
-26
-27
4
18
45
113
132
139
117
118
122
97
91
67
44
-7
-23
-52
-69
-52
-58
-53
-53
-52
-36
-40
-51
-42
-41
-48
-55
-50
-53
-47
-52
-32
-31
-46
-30
-50
-55
-45
-43
-76
-56
-46
-49
-59
-49
-58
-46
-50
-39
-36
-46
-69
-46
-57
-62
-56
-51
-16
-23
-36
-39
-44
-35
-45
-55
-50
-33
-32
-42
-44
-45
-35
-20
-17
-31
-33
-41
-47
-53
-45
-48
-33
-24
-33
-41
-42
-18
-41
-32
-26
-26
-33
-29
-43
-42
-14
-16
-13
1
-24
-23
-10
-31
-29
2
3
2
23
21
25
16
-15
-14
-3
9
-6
-5
2
-5
7
11
2
-26
-15
-8
5
-3
1
-20
-12
-1
0
-15
-5
-12
-9
-11
-25
-12
-13
-38
-26
-34
-44
-24
-24
-1
-19
-47
-44
-34
-43
-42
-62
-77
-30
-28
-44
-47
-42
-35
-43
-34
-50
-55
-31
-44
-54
-35
-28
-52
-41
-47
-58
-54
-40
-19
-31
-36
-78
-41
-27
-31
-33
-42
-53
-44
-40
-32
-47
-49
-51
-49
-49
-48
-38
-48
-42
-53
-62
-48
-30
-42
-46
-31
-40
-35
-37
-63
-65
-42
-32
-36
-51
-50
-38
-35
-54
-50
-35
-40
-34
-39
-53
-48
-37
-38
-45
-45
-32
-38
-55
-76
-43
-43
-40
-39
-33
-45
-37
-21
-38
-58
-49
-48
-47
-38
-52
-39
-29
-29
-39
-45
-45
-61
-43
-38
-32
-51
-45
-50
-53
-64
-53
-41
-50
-37
-35
-50
-50
-42
-66
-55
-55
-44
-45
-39
-32
-43
-43
-54
-43
-51
-53
-45
-29
-28
-42
-73
-53
-61
-26
-32
-36
-38
-35
-40
-53
-50
-40
-28
-30
-46
-43
-49
-53
-27
-56
-45
-57
-70
-67
-43
-46
-46
-31
-40
-44
-46
-40
-65
-52
-36
-36
-44
-56
-39
-56
-30
-18
-29
-25
-27
-39
-35
-40
-32
-36
-20
-29
-32
-28
-49
-30
-28
-26
-30
-46
-61
-38
-52
-50
-53
-42
-44
-48
-51
-41
-40
-55
-54
-59
-55
-48
-71
-95
-49
-41
-40
-61
-61
-46
-46
-42
-26
-10
1
-6
36
60
106
121
140
139
116
102
74
85
58
50
20
-15
-46
-57
-56
-74
-51
-60
-58
-36
-62
-43
-68
-67
-65
-53
-41
-44
-61
-57
-71
-57
-44
-52
-50
-56
-43
-27
-31
-42
-49
-38
-42
-47
-40
-35
-36
-40
-49
-52
-39
-56
-59
-48
-52
-42
-45
-44
-37
-51
-47
-41
-34
-40
-52
-54
-63
-52
-51
-57
-57
-13
-36
-35
-25
-30
-26
-40
-48
-27
-44
-43
-16
-33
-48
-38
-18
-43
-45
-35
-32
-24
-22
-25
-23
-27
-30
-23
-25
-24
-5
-18
-16
4
-2
-12
-10
-8
-7
5
-6
-13
-1
12
11
6
0
0
-1
11
9
-8
-10
2
-4
-17
-13
-19
-3
3
-4
-12
-15
-26
-26
-30
-42
-30
-7
-19
-20
-29
-32
-42
-37
-26
-37
-42
-43
-25
-61
-55
-59
-40
-36
-38
-35
-40
-37
-41
-56
-43
-29
-31
-13
-24
-55
-52
-33
-41
-51
-44
-46
-41
-47
-58
-43
-48
-60
-35
-39
-38
-48
-51
-31
-33
-54
-68
-18
-41
-56
-74
-45
-41
-49
-49
-52
-48
-35
-29
-28
-45
-50
-42
-48
-33
-45
-52
-52
-54
-46
-47
-34
-58
-62
-35
-41
-47
-31
-37
-52
-39
-52
-52
-40
-60
-39
-53
-47
-60
-46
-30
-38
-38
-42
-42
-55
-40
-35
-44
-47
-42
-45
-49
-50
-37
-35
-52
-36
-48
-38
-33
-31
-40
-71
-48
-37
-47
-46
-37
-25
-35
-49
-57
-58
-52
-51
-33
-57
-64
-71
-54
-48
-53
-42
-39
-39
-51
-56
-64
-55
-31
-35
-34
-48
-50
-50
-38
-32
-41
-58
-46
-39
-61
-54
-44
-31
-28
-41
-58
-50
-69
-38
-43
-46
-32
-31
-29
-67
-68
-56
-40
-39
-29
-52
-75
-57
-65
-70
-64
-54
-47
-47
-43
-27
-30
-39
-42
-43
-56
-57
-44
-50
-41
-36
-40
-39
-42
-54
-46
-48
-32
-44
-54
-31
-34
-30
-53
-49
-53
-37
-36
-29
-22
-37
-42
-47
-50
-42
-40
-60
-55
-22
-25
-36
-33
-50
-40
-46
-41
-38
-55
-47
-47
-31
-50
-60
-83
-54
-41
-37
-53
-51
-42
-64
-66
-41
-61
-58
-59
-52
-39
-33
-26
-20
0
44
85
77
88
96
110
109
89
69
63
45
-7
-40
-53
-68
-71
-72
-59
-73
-50
-53
-46
-57
-59
-62
-46
-44
-62
-63
-61
-69
-46
-44
-60
-47
-58
-61
-58
-41
-50
-74
-66
-55
-32
-45
-41
-60
-60
-37
-43
-42
-48
-40
-47
-45
-59
-57
-30
-34
-43
-55
-46
-58
-55
-63
-65
-37
-37
-57
-28
-38
-38
-32
-34
-35
-45
-34
-40
-41
-48
-45
-60
-52
-63
-52
-26
-20
-41
-33
-30
-21
-46
-24
-38
-35
-37
-31
-16
-31
-32
-9
-23
-18
-10
-9
-23
-7
-18
1
5
-6
14
9
-10
-14
-6
3
-3
-5
-8
-2
0
-2
4
-3
4
-27
-40
-30
-19
-15
-11
-12
-10
-13
-11
-35
-39
-32
-19
-41
-56
-48
-61
-54
-47
-31
-34
-24
-28
-48
-37
-41
-44
-50
-47
-51
-44
-39
-50
-65
-65
-53
-36
-56
-35
-68
-44
-44
-52
-61
-51
-67
-54
-49
-54
-52
-57
-61
-51
-52
-60
-67
-48
-51
-55
-44
-45
-56
-39
-37
-53
-53
-59
-60
-45
-64
-50
-53
-50
-57
-64
-40
-47
-60
-45
-52
-64
-47
-54
-58
-51
-64
-60
-49
-44
-40
-53
-60
-56
-53
-31
-43
-50
-38
-56
-63
-55
-58
-51
-48
-48
-48
-36
-58
-53
-43
-53
-54
-44
-44
-40
-47
-76
-54
-37
-62
-66
-73
-67
-32
-35
-47
-60
-52
-49
-40
-54
-58
-56
-51
-42
-55
-64
-68
-69
-56
-76
-77
-58
-28
-41
-57
-46
-47
-38
-44
-36
-39
-42
-63
-41
-57
-67
-76
-47
-61
-59
-54
-41
-52
-79
-78
-50
-43
-33
-56
-44
-43
-53
-59
-48
-47
-54
-66
-73
-58
-46
-44
-56
-42
-62
-57
-65
-55
-55
-62
-57
-43
-51
-50
-53
-53
-62
-60
-40
-22
-42
-52
-52
-36
-54
-55
-64
-55
-48
-60
-56
-52
-54
-59
-56
-43
-34
-57
-40
-40
-45
-37
-41
-45
-41
-29
-40
-43
-42
-35
-32
-52
-58
-46
-57
-64
-44
-71
-57
-63
-53
-52
-44
-53
-71
-75
-54
-29
-42
-56
-44
-59
-59
-53
-71
-83
-71
-59
-49
-54
-42
-51
-37
-6
18
45
79
102
121
106
105
96
83
81
62
44
5
-40
-64
-66
-78
-80
-69
-72
-67
-56
-51
-47
-51
-50
-80
-67
-42
-41
-54
-53
-48
-44
-51
-41
-49
-70
-60
-60
-57
-64
-68
-59
-74
-82
-73
-53
-45
-52
-53
-51
-46
-41
-52
-47
-49
-47
-54
-80
-79
-55
-46
-48
-45
-38
-36
-46
-54
-56
-51
-58
-60
-47
-41
-44
-45
-46
-28
-47
-48
-52
-37
-40
-28
-29
-23
-55
-68
-66
-56
-30
-50
-43
-28
-35
-37
-40
-29
-15
-33
-37
-25
-26
-19
-28
-18
-12
-15
-4
-29
7
-6
2
-6
-7
-11
-5
-23
-19
-13
-8
1
-1
-2
-14
-20
-9
-10
-11
-11
-19
-26
-27
-30
-27
-22
-15
-24
-37
-17
-20
-23
-47
-45
-63
-51
-61
-35
-60
-67
-55
-56
-59
-40
-38
-50
-41
-31
-52
-41
-40
-29
-43
-61
-66
-65
-75
-49
-39
-54
-53
-45
-74
-58
-50
-53
-58
-63
-59
-49
-35
-47
-48
-44
-53
-45
-57
-50
-52
-42
-30
-43
-57
-77
-64
-62
-52
-52
-60
-47
-47
-51
-90
-62
-57
-54
-58
-56
-52
-47
-52
-30
-20
-26
-48
-73
-66
-60
-48
-64
-48
-51
-39
-54
-42
-55
-53
-54
-57
-37
-25
-37
-35
-56
-60
-57
-53
-49
-39
-49
-53
-65
-54
-38
-59
-85
-59
-44
-44
-49
-39
-45
-54
-58
-41
-52
-39
-31
-44
-51
-41
-50
-54
-73
-62
-50
-54
-48
-54
-51
-51
-48
-55
-64
-47
-52
-55
-57
-53
-32
-39
-37
-44
-70
-61
-37
-63
-68
-67
-67
-61
-34
-41
-43
-55
-45
-51
-55
-58
-52
-45
-38
-48
-42
-53
-55
-58
-56
-47
-60
-65
-89
-61
-24
-38
-50
-39
-39
-67
-64
-57
-46
-52
-60
-57
-47
-39
-40
-73
-57
-34
-51
-44
-52
-54
-53
-50
-52
-60
-57
-58
-37
-43
-53
-57
-50
-56
-54
-52
-39
-43
-54
-57
-52
-48
-59
-47
-45
-59
-58
-60
-57
-65
-62
-65
-66
-57
-50
-44
-37
-34
-63
-40
-48
-59
-64
-74
-53
-34
-41
-12
-26
-34
-38
-51
-25
-25
-41
-37
-36
-41
-44
-41
-40
-59
-61
-62
-54
-40
-52
-53
-53
-66
-62
-46
-40
-38
-41
-68
-64
-55
-69
-77
-85
-86
-68
-54
-55
-58
-55
-41
-2
9
24
45
81
102
109
125
103
98
92
69
44
62
-8
-22
-24
-49
-63
-51
-47
-53
-37
-51
-87
-70
-61
-56
-51
-65
-61
-55
-63
-58
-62
-44
-54
-50
-52
-59
-60
-54
-51
-56
-44
-52
-56
-58
-62
-57
-51
-43
-53
-60
-55
-53
-75
-47
-41
-42
-57
-41
-53
-40
-41
-37
-47
-46
-54
-60
-58
-42
-50
-60
-61
-57
-59
-52
-38
-52
-44
-37
-58
-35
-49
-48
-28
-27
-45
-50
-47
-56
-53
-39
-42
-38
-50
-41
-31
-40
-40
-17
-26
-28
-17
-19
-19
-2
-8
-36
-29
-12
-24
-16
-3
-23
-7
14
5
8
5
-9
-5
10
-12
-10
-20
-22
-33
7
0
-11
-1
-4
-29
-22
-15
-6
-22
-39
-20
-37
-33
-27
-32
-52
-51
-42
-40
-43
-41
-49
-52
-46
-35
-38
-46
-59
-39
-46
-66
-43
-29
-46
-41
-46
-44
-40
-49
-47
-46
-55
-61
-55
-62
-63
-59
-34
-39
-50
-54
-50
-57
-55
-53
-48
-42
-43
-55
-59
-64
-64
-59
-56
-54
-38
-67
-39
-45
-62
-62
-50
-43
-53
-65
-42
-40
-59
-41
-41
-48
-57
-52
-36
-50
-40
-55
-59
-50
-59
-42
-44
-51
-47
-61
-60
-64
-41
-30
-50
-55
-58
-44
-48
-59
-54
-53
-65
-55
-64
-80
-45
-32
-46
-49
-44
-51
-54
-58
-58
-37
-34
-47
-49
-59
-60
-48
-41
-47
-72
-44
-42
-46
-58
-42
-33
-66
-65
-62
-31
-35
-65
-66
-68
-37
-41
-42
-65
-63
-51
-54
-41
-61
-67
-46
-60
-51
-43
-41
-79
-62
-47
-39
-51
-54
-55
-54
-60
-58
-53
-65
-51
-52
-43
-43
-62
-40
-54
-64
-50
-50
-58
-54
-53
-55
-44
-47
-42
-44
-54
-55
-63
-57
-43
-62
-63
-52
-53
-47
-53
-54
-47
-71
-55
-68
-43
-55
-40
-45
-38
-56
-64
-66
-58
-50
-62
-66
-42
-48
-46
-48
-40
-53
-35
-42
-41
-58
-67
-57
-55
-34
-70
-58
-58
-56
-58
-47
-58
-55
-45
-56
-61
-53
-55
-59
-46
-58
-54
-46
-42
-59
-57
-61
-44
-44
-48
-48
-45
-60
-55
-41
-50
-60
-50
-65
-61
-34
-60
-52
-41
-42
-60
-45
-44
-58
-64
-73
-43
-34
-44
-30
-39
-27
-25
-43
-41
-43
-40
-42
-33
-40
-49
-50
-46
-44
-39
-44
-45
-52
-54
-38
-58
-59
-72
-74
-69
-33
-46
-54
-40
-69
-72
-53
-52
-60
-67
-64
-72
-68
-52
-55
-36
-20
-13
23
39
66
94
131
127
110
99
86
67
61
45
42
-11
-41
-60
-56
-75
-60
-68
-78
-60
-36
-34
-39
-42
-69
-60
-65
-70
-63
-54
-71
-57
-41
-33
-34
-42
-66
-76
-83
-53
-49
-58
-51
-70
-59
-48
-33
-34
-58
-54
-40
-50
-47
-50
-36
-40
-52
-56
-68
-50
-42
-56
-54
-34
-43
-56
-52
-48
-40
-49
-64
-51
-73
-51
-36
-44
-45
-49
-45
-42
-42
-39
-28
-37
-33
-35
-35
-39
-34
-47
-46
-32
-29
-20
-29
-26
-35
-57
-16
-16
-19
-40
-41
-34
-23
-18
-9
-17
-1
-12
-4
-4
-13
-16
-14
16
-2
-10
-14
2
4
-2
26
-14
-5
8
21
-11
-24
-18
-2
-9
-28
-14
-10
-17
-14
-38
-40
-35
-41
-39
-53
-47
-38
-46
-47
-54
-33
-59
-50
-30
-57
-35
-29
-35
-41
-38
-55
-42
-52
-52
-50
-61
-48
-52
-46
-55
-49
-37
-43
-43
-55
-41
-53
-46
-55
-37
-62
-72
-65
-42
-54
-64
-55
-48
-34
-36
-65
-48
-62
-50
-44
-54
-62
-54
-53
-64
-38
-35
-68
-50
-44
-41
-57
-43
-58
-55
-47
-39
-32
-20
-52
-63
-59
-51
-52
-37
-46
-52
-50
-50
-43
-26
-52
-63
-44
-36
-51
-72
-64
-65
-58
-44
-57
-44
-44
-48
-47
-45
-52
-63
-53
-27
-44
-69
-58
-57
-53
-42
-35
-27
-33
-54
-57
-47
-41
-66
-63
-55
-49
-49
-40
-29
-35
-51
-54
-55
-51
-54
-46
-42
-44
-36
-50
-59
-66
-59
-62
-44
-32
-48
-56
-60
-50
-37
-29
-52
-51
-41
-51
-52
-56
-48
-33
-47
-43
-37
-47
-49
-58
-51
-56
-45
-56
-54
-50
-57
-50
-52
-56
-80
-45
-28
-37
-47
-33
-54
-70
-62
-65
-68
-57
-62
-57
-46
-38
-33
-42
-42
-37
-41
-46
-34
-42
-47
-48
-53
-42
-48
-38
-38
-41
-49
-42
-57
-60
-36
-37
-33
-33
-51
-43
-21
-35
-42
-31
-45
-37
-38
-42
-39
-63
-66
-50
-20
-21
-30
-33
-34
-24
-61
-51
-54
-44
-56
-55
-52
-48
-30
-38
-61
-41
-35
-50
-35
-21
-39
-59
-59
-65
-52
-52
-54
-76
-80
-47
-48
-42
-37
-32
-25
-18
-6
14
51
58
76
107
105
105
90
95
73
33
-20
-42
-60
-82
-59
-65
-67
-75
-73
-55
-47
-36
-51
-52
-49
-49
-63
-40
-46
-34
-55
-51
-47
-40
-62
-78
-55
-63
-93
-84
-60
-74
-59
-48
-40
-41
-34
-24
-37
-34
-39
-52
-53
-56
-48
-53
-66
-52
-25
-19
-41
-54
-40
-28
-35
-39
-41
-54
-43
-46
-50
-54
-50
-29
-22
-32
-37
-48
-49
-36
-52
-47
-44
-25
-35
-55
-41
-39
-44
-44
-28
-13
-20
-12
-27
-19
-16
-15
-28
-6
-32
-29
-29
-29
-10
-11
-7
20
10
-4
3
10
6
17
3
-1
-1
-6
11
1
1
1
7
-11
6
-3
-7
-16
-1
-12
-20
1
-3
-10
-26
-17
-21
-9
-27
-24
-48
-34
-39
-34
-42
-44
-68
-57
-32
-33
-39
-30
-20
-42
-41
-50
-46
-45
-57
-53
-41
-34
-42
-45
-49
-51
-48
-43
-45
-46
-58
-56
-31
-40
-47
-38
-54
-39
-51
-54
-54
-48
-47
-57
-57
-39
-51
-56
-52
-50
-57
-62
-62
-44
-51
-63
-54
-41
-41
-49
-50
-32
-34
-53
-33
-29
-38
-54
-45
-45
-52
-52
-46
-46
-61
-56
-53
-38
-36
-36
-48
-51
-46
-31
-39
-66
-51
-50
-67
-35
-45
-53
-53
-34
-38
-44
-59
-52
-59
-46
-57
-40
-29
-48
-42
-34
-36
-50
-43
-51
-41
-63
-51
-41
-44
-56
-36
-20
-62
-54
-46
-51
-52
-57
-54
-36
-50
-42
-46
-42
-45
-52
-53
-65
-64
-67
-75
-49
-45
-39
-39
-37
-60
-41
-46
-38
-45
-61
-82
-43
-34
-35
-53
-31
-39
-62
-55
-57
-58
-36
-29
-33
-52
-50
-61
-33
-44
-43
-42
-34
-35
-39
-39
-52
-49
-45
-55
-47
-38
-42
-43
-16
-36
-42
-33
-52
-39
-46
-55
-34
-28
-35
-49
-46
-39
-55
-43
-46
-67
-81
-36
-55
-36
-47
-52
-58
-44
-39
-60
-46
-36
-37
-62
-57
-59
-44
-59
-57
-57
-49
-31
-25
4
17
50
84
98
128
121
124
107
101
79
67
28
-31
-57
-66
-63
-68
-64
-82
-57
-55
-48
-54
-58
-51
-56
-40
-53
-46
-21
-40
-54
-49
-43
-67
-68
-43
-52
-53
-58
-53
-53
-41
-67
-59
-51
-34
-47
-39
-55
-50
-39
-60
-50
-74
-52
-49
-47
-62
-53
-55
-48
-47
-63
-47
-22
-22
-50
-53
-42
-23
-39
-45
-39
-15
-44
-41
-42
-52
-42
-39
-48
-52
-28
-37
-43
-55
-53
-40
-26
-32
-49
-46
-20
-22
-34
-18
-27
-24
-33
-28
-21
-12
-12
-42
-24
-10
-6
1
-17
-12
-5
-7
-5
0
1
3
-4
8
-7
10
-2
-1
-18
-17
-1
4
4
-13
-11
-5
-12
-17
-17
-8
-44
-31
-23
-30
-23
-48
-35
-34
-25
-37
-44
-43
-56
-43
-32
-48
-35
-40
-45
-57
-40
-32
-57
-63
-56
-24
-37
-59
-50
-46
-52
-44
-39
-33
-45
-53
-59
-64
-40
-34
-48
-35
-50
-50
-27
-38
-68
-54
-54
-44
-44
-28
-40
-50
-57
-63
-48
-55
-53
-47
-49
-39
-56
-64
-51
-49
-44
-38
-49
-47
-56
-38
-29
-45
-40
-50
-54
-54
-52
-47
-33
-43
-36
-40
-58
-35
-43
-47
-43
-60
-59
-44
-48
-35
-71
-64
-41
-32
-38
-47
-54
-56
-41
-45
-50
-55
-42
-51
-67
-42
-37
-28
-50
-38
-36
-43
-46
-45
-40
-38
-43
-53
-65
-63
-48
-33
-56
-44
-47
-41
-46
-51
-67
-45
-38
-46
-52
-48
-42
-38
-34
-53
-54
-60
-62
-54
-60
-51
-58
-56
-43
-35
-24
-57
-46
-45
-52
-42
-45
-49
-53
-32
-22
-44
-59
-37
-40
-65
-65
-38
-49
-44
-47
-64
-57
-44
-38
-50
-58
-53
-23
-48
-51
-61
-44
-50
-47
-22
-28
-38
-47
-39
-41
-38
-44
-58
-41
-34
-26
-21
-22
-35
-41
-36
-44
-44
-46
-48
-45
-56
-54
-41
-44
-43
-45
-43
-62
-37
-45
-62
-33
-48
-58
-43
-43
-48
-63
-79
-74
-49
-52
-63
-62
-52
-41
-36
-23
-16
14
25
84
100
121
139
123
114
100
96
75
57
20
-39
-40
-61
-82
-66
-59
-45
-49
-41
-52
-52
-39
-56
-59
-59
-64
-58
-39
-37
-50
-55
-62
-35
-51
-74
-52
-45
-63
-56
-48
-53
-65
-49
-56
-49
-56
-67
-64
-40
-38
-22
-32
-43
-35
-27
-35
-59
-53
-61
-65
-61
-50
-28
-44
-50
-41
-30
-54
-55
-61
-52
-49
-44
-59
-19
-40
-52
-48
-56
-41
-21
-35
-42
-43
-58
-32
-22
-33
-33
-21
-17
-35
-15
-22
-41
-8
-9
-27
-23
-26
-14
-16
-24
-29
-12
-4
13
-6
-5
-15
-4
-12
-12
0
-17
-21
6
4
-2
-2
5
10
12
-3
-10
-6
-4
-10
-8
-17
-11
-20
-2
-17
-34
-24
-7
-14
-18
-38
-43
-35
-38
-31
-43
-41
-48
-44
-45
-65
-45
-25
-32
-52
-55
-45
-26
-68
-54
-43
-49
-47
-45
-46
-37
-39
-42
-47
-39
-45
-70
-40
-47
-56
-47
-38
-43
-49
-33
-29
-51
-49
-44
-43
-40
-41
-44
-43
-42
-39
-38
-50
-45
-50
-72
-68
-48
-44
-52
-69
-49
-42
-55
-57
-46
-48
-40
-55
-55
-53
-33
-43
-47
-47
-56
-49
-28
-25
-36
-46
-31
-34
-32
-22
-57
-56
-38
-37
-56
-58
-52
-40
-53
-61
-61
-56
-47
-34
-31
-41
-53
-44
-56
-45
-55
-48
-46
-62
-52
-41
-44
-41
-59
-64
-46
-49
-37
-60
-49
-36
-44
-28
-22
-33
-41
-48
-40
-43
-50
-44
-31
-42
-74
-76
-47
-75
-39
-32
-46
-65
-44
-44
-56
-42
-57
-58
-68
-51
-11
-24
-59
-36
-45
-67
-63
-65
-39
-33
-26
-35
-28
-39
-62
-68
-69
-50
-39
-21
-38
-57
-46
-35
-47
-51
-56
-61
-28
-39
-27
-47
-49
-41
-60
-46
-51
-64
-62
-36
-45
-49
-33
-31
-30
-41
-46
-37
-31
-34
-32
-34
-44
-43
-31
-55
-43
-27
-35
-33
-36
-43
-31
-42
-21
-28
-32
-14
-33
-59
-39
-46
-42
-36
-38
-59
-40
-47
-82
-68
-54
-45
-38
-50
-34
-41
-54
-54
-79
-61
-43
-48
-45
-51
-54
-39
-24
-16
-12
26
59
99
120
139
122
97
121
97
82
69
26
2
-21
-29
-62
-61
-64
-57
-44
-41
-56
-63
-54
-44
-39
-39
-50
-58
-65
-44
-54
-52
-44
-52
-44
-54
-43
-31
-34
-38
-58
-52
-45
-44
-36
-54
-54
-37
-30
-41
-33
-51
-46
-56
-44
-31
-47
-56
-45
-68
-47
-42
-49
-37
-35
-29
-47
-46
-41
-39
-32
-27
-30
-43
-34
-49
-41
-37
-19
-16
-4
-47
-62
-34
-38
-31
-31
-29
-30
-28
-30
-23
-28
-20
-18
-43
-33
-25
-13
-4
-12
-24
-21
-36
-16
-11
-7
-20
14
27
12
-4
7
-1
9
-10
-6
13
22
3
-9
-4
-5
4
-5
-7
10
11
-14
-21
-11
-7
-17
-17
-17
-22
-18
-33
-38
-36
-22
-20
-18
-21
-18
-12
-32
-31
-15
-26
-27
-30
-28
-40
-36
-33
-24
-27
-31
-43
-62
-45
-53
-62
-50
-57
-61
-28
-31
-44
-42
-39
-47
-52
-43
-36
-21
-37
-34
-48
-35
-42
-49
-65
-47
-38
-43
-34
-44
-38
-44
-44
-42
-21
-24
-48
-45
-43
-40
-54
-71
-42
-43
-68
-22
-29
-36
-45
-56
-33
-30
-30
-30
-47
-75
-35
-36
-40
-40
-32
-35
-26
-37
-51
-48
-21
-37
-44
-36
-34
-37
-33
-18
-36
-52
-63
-11
-27
-52
-59
-35
-34
-35
-53
-44
-42
-36
-35
-41
-37
-51
-60
-44
-39
-31
-29
-40
-49
-30
-47
-40
-32
-44
-43
-38
-63
-42
-34
-62
-37
-36
-35
-41
-44
-59
-45
-25
-35
-37
-27
-35
-36
-47
-59
-50
-48
-57
-26
-26
-34
-41
-41
-31
-30
-40
-45
-47
-37
-30
-38
-23
-29
-31
-46
-33
-25
-27
-39
-28
-27
-32
-34
-22
-27
-40
-44
-34
-32
-15
-51
-46
-23
-15
-24
-33
-43
-44
-42
-44
-47
-35
-47
-42
-33
-34
-37
-32
-18
-34
-40
-26
-47
-54
-50
-33
-23
-36
-48
-58
-67
-58
-53
-41
-40
-43
-26
-34
-2
42
37
78
97
108
105
99
95
85
59
53
42
-10
-34
-56
-70
-76
-60
-38
-56
-65
-58
-52
-45
-43
-40
-42
-31
-61
-29
-27
-25
-50
-42
-48
-46
-34
-64
-76
-34
-28
-16
-38
-52
-47
-30
-51
-46
-35
-54
-41
-39
-35
-36
-41
-46
-25
-27
-47
-27
-36
-41
-40
-36
-18
-16
-32
-39
-45
-27
-41
-28
-62
-35
-41
-27
-30
-35
-24
-4
-17
-45
-29
-7
-28
-28
-34
-47
