-4
-1
0
8
1
-1
4
2
-4
2
4
-5
-6
1
8
-2
-5
11
10
5
13
6
11
10
-2
-5
-19
-4
17
5
3
7
10
3
1
1
-3
-2
0
3
1
-7
7
5
-6
-15
5
4
-11
-3
22
7
2
4
4
5
-3
9
7
5
6
3
1
4
4
-5
-2
0
7
9
-9
9
-3
6
7
3
0
-1
3
-3
12
17
5
9
7
17
12
11
13
9
6
11
3
16
30
20
14
15
15
5
0
16
15
10
4
1
3
0
-1
-3
2
9
9
-13
-12
4
6
4
-7
8
3
5
0
-9
-9
-5
-5
7
6
-5
-10
0
9
4
2
-5
-2
-13
-2
14
24
25
17
19
36
69
76
84
94
99
107
108
91
102
109
87
84
60
39
12
-23
-56
-80
-80
-69
-54
-37
-35
-22
-5
-7
-1
7
9
5
-4
-5
9
22
6
2
5
-5
1
5
3
8
25
14
10
13
5
12
6
6
0
8
15
20
8
9
6
-8
4
24
27
9
9
23
17
17
13
17
20
26
23
15
21
19
30
25
18
21
18
19
11
38
35
29
26
33
36
30
37
41
39
41
39
30
31
27
34
39
47
33
33
52
57
50
55
47
50
48
52
50
50
61
61
54
52
60
49
56
50
52
52
56
67
68
44
58
64
52
51
60
51
55
59
53
47
42
32
39
27
29
40
40
38
36
46
36
23
25
18
22
26
23
25
10
18
21
16
10
19
8
17
31
13
13
4
4
11
21
19
14
19
20
18
12
27
18
14
16
7
9
19
14
11
26
24
12
29
19
18
11
3
12
32
14
36
27
32
26
16
27
18
20
16
15
14
15
37
31
26
27
26
23
17
26
18
23
34
28
15
12
18
27
19
29
27
19
19
23
24
25
17
30
20
23
18
19
25
20
12
14
25
24
21
15
20
36
13
13
5
13
13
20
27
19
16
24
27
20
25
22
15
20
19
21
23
21
19
23
21
18
34
37
36
20
30
29
38
40
33
25
22
21
26
20
18
20
10
21
22
14
6
10
14
16
15
6
5
23
14
13
13
15
7
9
16
12
11
23
8
7
8
13
19
18
10
9
9
-5
11
11
11
13
8
8
26
33
25
26
45
59
71
90
103
95
107
104
99
118
87
74
79
71
42
11
-4
-48
-67
-57
-60
-59
-42
-25
-21
-18
-2
0
1
15
17
10
11
9
20
23
22
23
23
23
13
20
15
15
18
16
15
14
9
25
30
17
26
25
23
13
21
33
31
24
26
20
22
27
19
8
21
41
40
32
36
31
21
23
36
35
34
35
31
38
36
46
32
26
29
42
31
49
49
45
41
49
51
43
43
50
48
42
43
55
57
52
57
57
54
52
65
74
53
61
58
67
64
57
65
64
70
61
60
53
57
64
68
69
60
55
68
65
68
62
56
62
54
48
43
63
65
49
41
46
38
42
40
44
33
30
33
30
24
26
18
12
14
27
23
16
17
29
26
27
19
28
17
17
16
0
2
5
26
28
19
18
15
17
31
26
14
6
8
21
17
18
13
13
15
17
2
12
20
17
13
6
8
24
23
21
27
21
16
12
10
22
-2
16
20
11
29
24
19
20
18
21
12
19
25
18
22
26
20
11
18
16
14
17
18
13
15
17
14
25
18
19
14
5
-14
-8
16
23
15
18
22
21
21
16
15
11
13
11
11
0
15
9
6
23
25
11
6
14
13
12
17
11
21
14
13
17
15
15
16
14
28
27
27
27
23
24
23
23
20
14
13
27
1
4
9
7
19
12
17
13
17
14
12
11
18
5
-7
-4
3
-3
-5
10
3
5
-1
4
6
3
-2
0
3
0
-5
-7
-14
5
20
6
7
9
3
6
10
8
19
19
19
19
38
54
69
90
90
92
114
98
90
81
83
85
73
61
43
13
-14
-50
-73
-73
-67
-52
-47
-32
-17
-10
-8
-14
-13
-19
-8
5
-10
17
11
14
16
12
5
6
5
11
10
17
17
-1
7
9
10
15
5
15
22
20
19
9
12
10
17
12
12
16
16
12
4
10
8
21
19
8
21
20
21
28
29
29
31
26
25
30
28
25
14
27
38
30
34
36
38
36
25
25
23
43
51
39
34
37
39
43
43
42
50
44
35
48
50
52
44
51
61
58
51
51
60
66
60
58
58
51
53
56
62
57
63
60
60
56
45
48
43
45
51
40
49
51
39
35
24
33
39
30
29
20
19
28
25
11
6
7
15
18
16
9
-6
9
20
11
7
11
16
10
2
6
8
8
6
-1
5
9
5
3
1
1
15
4
-14
-3
16
8
-2
2
-5
9
14
9
0
4
6
3
10
6
-8
-7
-4
-15
4
19
22
16
8
6
7
10
9
2
7
4
-6
-2
2
20
11
5
6
10
6
5
4
3
-4
13
13
10
8
9
9
5
5
10
8
9
8
-3
-1
-1
-15
0
10
15
14
0
8
13
6
-3
-6
11
7
4
1
-4
-9
-14
9
17
6
5
3
1
-6
-3
5
4
2
-5
-13
-7
-3
14
16
11
20
21
15
18
0
6
10
13
21
2
15
12
21
23
13
17
9
13
-5
-5
10
7
-16
-10
24
15
0
-5
1
2
-6
-4
-13
6
4
-4
-12
-11
-17
5
-3
1
-1
-11
-1
3
8
-1
-8
-16
-6
-2
-4
-5
-20
-13
0
5
3
13
14
18
9
37
60
65
81
90
93
96
87
93
79
74
65
43
32
19
-5
-33
-69
-72
-66
-51
-54
-44
-22
-20
-22
-18
-14
0
-1
-4
-8
-11
-10
-2
6
4
1
-8
-6
-1
-1
2
0
3
3
-2
2
-6
-9
-9
-5
6
2
4
1
2
-9
0
-9
4
11
8
2
13
15
5
2
11
12
12
6
-4
7
19
11
11
11
6
11
25
15
12
21
19
18
15
22
13
20
34
31
18
20
31
26
32
20
30
32
30
36
37
40
50
49
37
41
42
46
46
45
50
45
48
50
49
41
28
30
48
61
56
48
44
41
53
43
48
45
32
26
33
34
28
41
37
23
20
20
18
26
19
12
5
3
9
20
11
4
6
3
4
6
-8
-5
-1
-4
2
3
10
-5
-8
-9
-5
-9
-18
-1
-11
-14
-9
11
4
-2
-9
-10
-2
-13
-9
-9
-1
2
-1
-6
-2
-14
-11
-8
-9
-3
-6
-1
-4
-5
-13
-5
4
-7
-6
-4
-9
-2
-3
-8
-5
-11
-9
0
-9
-9
-12
-1
-13
-21
7
7
5
2
4
-5
-8
2
-9
-14
-6
-2
0
-7
-1
-6
-4
-4
-4
0
0
-1
-12
-10
-2
2
-2
-1
-4
-11
-10
-9
2
-9
-7
-8
-13
-10
-6
5
-2
-3
1
-6
-10
-8
-2
-7
-14
-15
-14
-10
5
0
-9
-5
-7
-2
-7
-10
-4
-2
-1
-11
-20
-9
-2
-4
1
-1
-4
-6
-10
-2
-2
-3
-6
-3
-6
0
0
-11
-5
14
16
7
14
-3
5
15
8
2
4
5
-1
0
-6
4
1
-17
-7
-4
-12
-9
-9
-20
-12
-11
-19
-28
-4
-15
-16
-11
-8
-22
-3
-3
-10
-7
-20
-17
-6
-22
-14
-14
-21
-16
-13
-8
-9
-11
-10
-9
-14
-5
-8
6
9
18
35
50
54
74
66
71
80
79
68
57
70
45
44
24
0
-14
-40
-72
-71
-64
-55
-40
-50
-30
-29
-31
-34
-8
-2
-10
-9
-4
-18
-8
2
-3
-18
0
-6
-5
-5
-6
-10
-9
-16
-7
-7
-8
4
2
-3
-8
-7
-8
-10
-2
-5
-11
4
1
-2
3
7
-1
-1
0
6
6
3
-5
1
9
4
4
14
14
13
6
9
8
13
7
12
9
8
6
23
17
17
7
17
29
30
28
28
30
28
27
28
25
29
35
33
32
35
43
41
40
40
40
48
43
47
38
32
36
39
56
56
46
46
51
46
46
49
43
54
49
46
44
42
33
26
21
32
37
34
31
34
29
20
20
25
15
14
10
2
4
11
6
8
9
7
11
-5
-12
0
0
-5
-10
-2
-12
6
-1
0
4
9
-1
-12
-6
-1
-12
-6
-11
-2
1
-8
-1
-1
0
-5
-4
-14
-18
-14
-6
-7
-5
-2
1
-3
-9
-10
-14
-7
7
-6
6
3
1
-3
-4
-5
-4
-3
-4
-3
0
-9
-17
-10
8
-1
-3
-5
-10
-4
-4
-1
-1
-3
-3
0
-1
-3
-7
-5
-9
-6
7
-1
6
-6
-11
-9
3
0
1
-2
1
1
3
-10
-16
10
5
-3
6
2
-2
-10
-15
-12
-5
0
-5
-2
0
-9
-3
0
2
-12
-14
-1
-2
-17
-6
1
0
2
-5
-9
-2
-9
-5
-3
-2
-2
-3
-5
-13
-3
-5
-19
-3
5
-5
1
-9
-30
-8
12
1
-10
-10
-9
-4
-2
-1
-5
-2
-9
-21
-7
5
1
0
5
5
-1
2
0
4
3
3
4
-1
0
5
0
11
2
6
16
-1
-10
1
-8
-10
-5
-5
-20
-5
-1
-3
-13
-9
-6
-4
-12
-24
-9
-13
-5
-6
-13
-4
-8
-15
-16
-8
-14
-13
-9
-25
-35
-5
-12
-20
-10
-11
-5
-9
-9
-3
-2
2
11
15
22
23
31
54
57
65
82
76
82
79
68
62
59
47
21
1
-27
-49
-66
-70
-71
-61
-52
-39
-26
-27
-19
-25
-15
-30
-3
-5
-11
-7
-5
-19
-10
-9
-3
3
-10
-15
-14
-14
-8
-3
-3
-3
-3
5
2
-13
-13
-15
2
-12
2
3
-3
-2
-7
1
3
-1
-2
4
3
-2
0
2
0
-3
5
5
9
7
10
10
15
9
3
14
15
1
3
-2
5
15
17
19
23
28
27
23
27
25
12
25
24
30
27
37
33
27
28
33
41
34
35
42
40
42
47
54
52
46
46
47
48
45
42
40
33
41
53
47
47
48
48
42
40
45
39
45
44
27
26
34
17
29
30
27
28
21
8
16
18
20
11
-1
2
9
8
6
2
-1
-1
6
3
-1
3
-10
1
3
-6
-9
-5
-2
-3
1
-4
-5
-4
-1
-7
-14
-8
-11
-5
-9
-7
-8
6
2
-2
-5
-13
0
2
-8
-15
-2
-11
-5
-3
-7
-3
-5
2
8
8
0
-15
-5
-9
0
1
-6
-3
0
0
-3
-1
4
-4
-5
4
2
-11
-25
-10
9
7
1
-4
4
6
1
11
-2
0
3
-8
-1
-9
-7
5
0
-14
-5
3
-4
7
4
-4
3
2
-4
-6
-3
-12
-1
3
1
-2
-4
-5
-2
-8
-13
-4
-10
-7
8
1
-12
-16
-14
-7
0
5
-7
0
1
-5
-16
-5
4
-2
-1
-3
-5
-10
-9
-8
-4
6
1
-5
-4
-2
-20
-20
-14
7
6
8
1
-4
-2
0
-10
0
-10
-5
-11
-2
-6
-6
-4
4
0
-6
-15
-15
6
-1
-8
-10
6
5
1
1
3
14
14
3
7
13
12
9
12
11
3
5
2
-2
-4
1
-7
-10
-1
-3
-6
-13
-20
-29
2
5
-6
-6
-1
-22
-24
-6
-9
-13
-9
-25
-16
-4
-5
-14
-14
-19
-9
-5
-9
-12
-8
-11
-9
-7
-8
-15
-7
8
11
9
4
21
30
43
48
67
75
91
89
88
78
74
69
59
47
19
5
-20
-49
-83
-84
-64
-54
-44
-30
-40
-16
-14
-13
-15
-16
-14
-8
0
-9
-13
-6
-1
-10
2
-6
-11
-10
-10
-3
6
10
0
-8
-13
-10
-3
3
1
-6
3
7
5
2
3
7
6
18
13
-3
-5
6
13
19
11
15
18
17
20
19
15
11
25
25
13
19
20
20
23
35
32
31
29
14
30
36
34
38
42
43
40
38
35
47
45
33
39
32
28
53
53
59
59
50
46
51
47
41
44
52
52
48
38
40
57
51
37
51
51
42
42
44
40
40
35
29
31
32
31
26
14
16
20
17
5
-6
16
7
2
-6
21
19
12
4
1
1
-3
1
3
-2
3
-1
-8
5
9
-8
-3
9
6
3
-7
-4
-6
-7
1
-9
0
-3
10
4
4
-4
6
-17
1
12
7
0
6
3
1
-3
-2
2
8
-2
-4
5
-1
-3
6
7
-2
1
5
7
-2
-2
3
2
-6
-2
3
-14
5
15
6
15
9
3
9
-8
-14
8
9
3
-2
11
3
2
0
3
-6
-3
5
0
4
0
3
-1
6
3
-7
-2
10
-1
0
-8
0
-12
-4
-5
-1
0
2
0
-13
-10
11
6
-3
1
5
11
4
2
-3
-2
-9
-15
2
0
-12
-12
-7
10
0
5
3
0
0
-2
-13
2
3
-4
-7
-6
-3
-8
-9
5
-10
-16
-3
7
2
-3
5
2
-6
-5
-5
4
7
-7
-8
-1
-6
-12
-1
2
6
11
16
10
4
-1
9
2
17
13
12
7
1
0
18
12
4
-3
6
7
0
9
14
4
0
0
2
-1
-1
-18
0
3
-6
-11
1
2
-4
-3
0
-11
-16
-11
-9
1
0
0
3
-14
-16
-17
-7
2
-1
-14
-2
4
1
-6
-1
8
14
20
16
18
43
59
67
81
83
87
97
92
83
79
71
57
46
21
-2
-12
-47
-80
-79
-81
-42
-31
-31
-37
-27
-14
3
5
2
1
-11
-1
3
4
-1
-1
2
-1
4
2
2
-11
2
5
3
8
2
3
3
-9
4
15
8
12
-10
7
4
-8
12
10
11
10
17
17
16
14
6
16
15
9
7
21
16
13
13
18
4
23
31
25
23
28
26
24
21
24
21
27
24
21
30
18
24
36
34
39
39
36
41
48
40
42
44
47
48
46
47
44
44
49
59
56
48
50
54
63
52
44
52
61
57
57
60
57
52
58
54
47
55
61
61
45
50
56
50
52
56
53
38
38
46
29
25
24
27
37
28
26
16
10
14
24
21
19
14
7
20
20
14
6
-4
2
18
16
27
16
2
9
8
6
10
0
13
3
8
1
-3
3
13
23
14
9
10
9
11
13
16
0
0
15
-11
-10
23
26
23
15
21
16
16
1
0
20
18
16
22
16
12
3
10
12
0
10
0
17
16
9
14
15
11
12
19
8
2
-1
14
18
22
19
19
11
8
9
12
6
9
8
10
19
13
14
10
7
14
7
1
8
3
6
-8
14
8
-18
11
32
13
1
10
10
13
2
8
12
11
8
-3
3
11
11
8
8
4
-7
-9
7
18
11
15
9
1
4
-9
8
16
-4
1
16
21
15
6
-9
4
9
8
-1
8
14
13
17
7
13
24
24
13
20
9
21
22
24
17
21
18
12
14
16
12
13
15
-1
7
1
9
16
6
-1
-1
8
8
4
2
4
-6
-5
-6
-4
-3
2
3
1
1
-1
-8
-8
-17
-20
6
6
-4
-1
3
9
8
-1
-11
-8
8
-4
8
33
42
41
40
67
78
84
86
104
105
93
88
85
82
68
56
20
-14
-39
-65
-74
-72
-67
-52
-44
-42
-20
-18
-14
-9
-4
-11
-14
7
4
-1
5
2
-1
-4
10
1
10
8
13
10
1
-2
1
5
5
7
0
-3
6
4
13
19
8
-1
9
-4
6
16
21
14
11
15
6
5
0
19
17
19
18
19
22
18
22
21
10
14
26
18
28
21
15
19
12
20
34
27
37
41
37
33
37
47
41
25
33
48
42
39
37
41
52
49
44
43
47
60
46
53
54
41
45
33
51
62
61
53
47
63
63
60
50
50
52
59
50
55
53
54
53
52
46
46
43
38
38
34
37
42
30
29
24
16
2
17
19
11
15
18
9
9
12
17
11
9
6
7
13
16
4
6
3
7
6
1
3
3
3
-3
-2
-3
-2
8
1
4
9
6
1
11
4
2
-2
0
4
-1
3
21
9
7
8
7
4
3
10
0
3
9
11
10
10
6
5
4
4
-1
7
0
-5
11
13
11
6
6
-1
-9
5
15
12
2
3
-3
17
21
9
7
7
14
7
-4
-3
-2
7
7
0
1
2
-2
13
12
6
-3
-5
-3
-2
6
4
5
-8
-9
11
4
6
11
11
2
3
3
1
0
4
-11
-10
11
-5
-8
8
-3
-9
-3
21
9
-4
-2
6
-1
7
8
2
-2
-2
-2
1
4
-6
-8
9
6
3
10
10
14
14
10
10
6
-2
15
16
15
9
12
17
26
19
18
15
15
5
7
0
4
8
-3
-8
-3
1
0
-1
-6
4
3
-3
-12
-1
-3
-2
-4
-2
-6
-5
-6
-4
-8
-16
-14
0
-8
-5
0
-4
-9
-13
-6
-1
1
3
16
9
0
-6
5
22
48
63
80
93
88
91
95
79
83
65
59
67
55
15
-7
-32
-60
-70
-84
-62
-53
-47
-38
-37
-16
-7
-11
-8
-9
-30
-15
6
-3
2
3
-10
-1
5
0
-5
-2
9
1
0
7
3
-5
-5
4
2
3
-8
-1
15
8
6
7
12
-2
-11
1
17
8
2
12
12
15
8
5
7
11
13
8
12
10
5
15
13
14
6
8
20
22
20
25
24
24
24
31
27
23
29
18
20
31
28
23
40
36
43
36
14
38
53
45
36
36
42
44
44
50
45
50
46
41
47
57
54
53
53
50
46
49
51
58
52
45
46
48
52
46
48
42
29
23
35
44
34
34
25
13
30
31
24
24
23
13
14
11
10
13
10
10
12
1
-4
8
2
5
2
-10
-7
0
6
4
5
-1
4
5
-1
-20
0
1
-5
-3
-6
3
-2
-9
0
-3
-1
-7
-5
-7
6
3
1
6
13
-5
3
-1
0
-4
-4
-6
-4
8
5
2
5
-4
-7
-4
-2
-2
-1
-2
3
2
8
4
6
-1
1
6
1
-4
1
0
1
5
4
-3
2
-1
-6
-20
-8
-3
6
12
4
-2
-3
-9
-11
-10
3
3
-1
-1
0
5
-1
-17
-7
8
-4
-3
-3
1
-9
-9
-7
-7
2
-2
-12
4
0
-8
-14
-9
2
-5
1
0
-1
3
4
-1
-23
-5
-12
-4
5
5
12
11
8
7
4
9
14
8
11
15
11
12
1
-8
9
20
8
4
5
3
-2
-6
4
-8
-13
-7
-2
-10
-14
-14
-16
-3
0
-3
-6
-7
-14
-19
-7
-10
-16
-13
-26
-4
-4
-9
-12
-12
-11
-13
-14
-24
-17
-5
-10
-7
2
-11
-13
0
12
16
25
39
51
71
76
76
94
87
83
69
70
60
52
34
4
-20
-52
-73
-89
-92
-79
-62
-55
-33
-33
-23
-18
-16
-14
-18
-12
-7
-6
-17
-16
-7
-11
-7
-2
-10
-12
-7
2
-9
-15
-16
-12
5
2
-8
4
-5
-14
-3
6
-1
-12
-3
-2
-2
-9
-1
4
-5
4
5
10
-1
-1
7
1
6
18
14
8
-8
-1
15
2
6
16
17
15
16
17
17
9
11
19
18
25
22
8
20
26
21
29
27
25
19
25
22
21
27
39
36
38
36
34
44
48
43
44
40
38
41
36
35
49
41
38
48
44
36
54
45
48
45
44
41
22
26
60
47
38
28
27
22
20
23
29
20
18
14
18
9
3
9
6
15
17
2
2
4
-1
-1
-13
-8
-7
-6
-7
-10
-2
-3
-8
-15
-14
-18
-2
-1
-15
-5
-12
-5
-2
4
3
-14
-10
3
6
-8
-18
-6
-6
-6
-14
-16
1
2
-10
-17
-4
-4
-4
-12
-13
-2
-17
-8
4
0
-4
-4
-4
-9
-8
-16
-16
-10
3
6
1
-7
-8
-7
-3
-1
1
-6
-16
-1
-6
-14
-1
-16
-18
4
-7
-6
-5
1
-6
-7
1
2
-7
-19
-20
-12
-20
2
5
2
-16
-23
-8
-7
-5
-2
-7
-5
-17
-14
-7
-4
-9
-16
-16
-10
-8
-2
-14
-7
-13
-7
1
3
0
-3
-4
-1
3
8
-10
6
23
14
3
7
12
7
5
11
4
-3
-11
-10
-3
-7
-16
-12
-1
1
-10
-20
-13
-13
-10
-13
-20
-13
-4
-11
-19
-9
-11
-13
-12
-3
-9
-12
-18
-10
-12
-17
-17
-7
-11
-16
-22
-13
-20
-8
1
1
4
-4
15
30
43
66
69
69
79
93
96
80
71
66
61
42
12
-7
-28
-62
-87
-91
-80
-76
-64
-52
-48
-36
-28
-18
-28
-24
-13
-4
-19
-12
-9
-8
-12
-19
-23
-14
-2
-5
-10
-19
-12
2
-2
-8
-12
-9
-9
-4
-10
-4
-6
1
-5
-6
-3
0
-4
-4
-8
-1
-8
-6
1
4
9
3
-3
-13
-12
7
7
-4
9
15
14
13
9
10
13
3
3
6
8
14
8
17
28
22
20
19
26
16
30
25
9
27
14
38
37
36
24
33
42
32
30
40
41
43
29
26
42
34
35
50
59
45
49
39
34
47
46
38
35
44
44
43
30
37
38
32
35
41
29
19
14
27
36
28
8
16
15
7
0
7
16
11
5
6
2
-2
-3
-13
0
-4
2
2
-4
-6
-3
8
-5
-13
-9
-11
-7
-5
0
-15
-23
-3
-14
-4
4
-2
-3
-1
-10
-7
-8
-6
-13
-11
-14
-2
-2
-1
-13
-20
-2
4
-7
-7
-1
2
0
-2
-1
-6
-29
-20
0
-1
-1
2
-4
-9
-6
-1
4
1
9
-8
-8
-21
-10
-8
-3
-6
-8
-7
-10
-2
-9
-9
1
-5
-23
-12
-1
-6
-10
-6
5
1
-3
-1
-2
-3
-8
-5
-4
-10
-16
-3
-7
-3
-8
-11
-3
6
5
4
5
-2
2
7
11
7
2
-11
1
-12
-6
7
3
-2
0
-8
-5
-6
-5
-17
-24
-8
-14
-14
-17
-6
-6
-14
-12
-13
-16
-9
-7
-11
-6
-10
-18
-18
-14
-5
-11
-10
-12
-17
-15
-12
-11
-14
-12
-14
7
2
-5
11
48
45
67
81
82
83
89
85
87
75
63
67
50
4
0
-32
-63
-86
-105
-98
-82
-68
-48
-57
-33
-13
-11
-11
-16
-18
-15
-21
-6
-9
-11
-8
-8
-8
-11
-12
-9
-14
-13
-13
-3
-10
-8
-8
-7
-2
-5
-11
-29
-22
-12
-1
-3
-1
7
1
9
-4
-7
-6
-7
3
0
-4
13
7
3
2
5
8
4
11
2
-2
7
15
12
5
4
-3
12
19
1
-2
8
4
22
29
32
33
26
17
20
26
23
32
30
28
28
32
36
41
40
36
40
38
39
42
40
40
40
39
53
44
34
28
24
34
43
37
45
66
51
38
35
39
38
33
32
35
32
28
17
19
20
19
13
15
21
19
8
2
3
8
7
1
-16
-3
-10
-4
10
8
0
-11
-10
-2
-8
-18
7
1
-11
-11
-5
1
-6
-13
-8
-9
-17
-12
-1
7
-2
-5
0
0
-11
-24
-19
-3
-12
0
4
-16
-3
5
6
-5
-4
-8
-4
-11
-8
5
0
-3
-6
-7
-9
-4
-2
-4
-4
0
-3
-11
-15
-6
1
-4
-1
-5
-20
-5
8
-3
0
-4
-3
-8
-6
-16
-15
-15
-3
-5
-2
4
10
4
-6
-8
-8
0
-6
-6
-8
-10
-13
2
-8
-25
-13
5
2
-8
1
-1
-8
7
6
-6
5
6
-4
8
15
13
10
7
7
2
4
-2
-13
-6
-2
-10
-13
-6
-1
-5
-10
-7
-13
-15
-14
-14
-7
-5
-17
-13
-6
-14
-1
0
-13
-15
-16
-6
-4
-6
5
-7
-8
-14
-9
-15
-8
-8
-10
-6
5
18
16
28
41
49
61
77
80
80
98
99
93
83
71
59
30
9
-9
-36
-62
-87
-96
-80
-70
-51
-55
-52
-12
-8
-10
-16
-8
-5
-10
-10
-13
-15
-5
3
-10
-14
3
-6
-3
1
-7
-5
-1
-7
-16
0
2
-4
-7
-9
1
-3
-1
11
7
2
-5
3
7
-2
4
10
5
-2
-1
-1
8
0
-8
3
26
15
4
13
12
5
13
14
16
8
12
21
26
24
20
18
19
21
18
17
20
27
21
17
34
36
24
26
36
51
43
28
36
38
42
48
44
38
43
35
41
48
47
44
44
34
47
45
53
46
46
48
51
48
46
45
43
31
40
51
39
26
19
17
49
41
34
31
6
20
28
25
23
16
9
6
8
11
8
7
7
9
3
-5
10
1
-1
-4
8
19
2
0
5
1
-13
-1
1
-1
12
11
-6
-6
12
4
5
8
1
0
4
0
-12
8
5
5
10
8
2
14
13
11
0
1
6
1
-7
-4
15
17
1
21
18
12
12
9
6
-2
7
9
5
8
-2
6
18
12
2
2
4
-6
-5
13
22
22
5
-3
-15
2
10
10
10
7
3
4
15
3
-7
12
7
15
7
8
7
2
20
18
1
8
0
13
11
0
14
9
18
20
12
22
21
24
24
19
13
16
17
9
4
0
0
9
1
-3
0
17
7
5
5
2
10
0
3
4
4
-5
-10
-4
9
20
11
0
-5
14
0
4
11
3
-5
-3
15
10
1
8
17
26
30
19
20
45
72
85
98
110
125
117
117
113
103
94
85
83
41
5
-20
-52
-63
-70
-65
-59
-52
-34
-37
-28
-12
3
11
14
10
-4
11
3
-5
22
25
4
11
15
11
5
6
7
4
11
8
9
20
11
18
21
19
24
24
16
4
-11
6
29
31
18
5
19
22
17
26
27
21
26
22
16
17
25
29
29
28
34
33
27
16
33
42
35
31
34
25
29
41
33
35
35
30
39
47
51
44
47
48
48
40
23
61
56
44
60
53
57
60
55
58
72
41
42
48
72
73
61
54
50
54
43
57
70
67
66
50
35
45
68
72
54
53
54
49
51
49
46
45
48
39
40
40
34
35
31
37
27
13
17
21
11
25
37
30
21
18
11
19
22
20
20
15
15
9
16
19
10
14
21
15
9
20
20
17
24
14
11
24
16
16
13
27
19
13
10
10
24
22
19
16
15
21
24
18
18
18
24
27
29
25
31
24
33
21
6
20
25
22
25
19
36
31
27
18
20
28
16
21
19
19
12
13
20
33
26
16
20
25
11
21
43
25
23
30
18
21
37
28
20
19
16
22
26
41
32
13
19
44
37
34
24
29
28
22
15
21
23
19
18
13
-1
18
31
23
19
18
22
17
13
17
11
20
18
18
17
24
21
14
13
6
3
1
14
19
15
20
18
14
20
14
16
23
21
19
40
46
37
42
67
89
122
111
118
122
121
111
105
98
86
66
56
52
12
-32
-67
-59
-64
-57
-41
-35
-28
-21
-8
11
2
-8
19
8
14
17
16
28
15
20
22
19
16
20
25
18
18
20
18
17
14
25
29
18
16
26
20
31
26
14
0
22
34
39
30
12
19
34
24
22
29
35
28
22
30
38
31
32
17
30
40
42
36
42
39
39
41
42
47
45
34
22
48
42
41
54
51
41
44
42
55
50
47
54
59
60
60
58
56
56
47
62
52
66
65
58
61
65
74
71
55
66
63
58
56
63
63
61
57
56
53
62
62
53
53
56
65
47
53
52
54
49
42
32
39
45
34
28
28
29
15
28
28
22
23
30
22
25
20
17
12
-10
0
32
28
22
17
13
22
15
20
18
18
10
20
18
19
0
8
23
22
26
16
9
22
22
19
17
13
15
12
19
18
14
23
23
14
14
32
21
17
17
12
2
10
21
17
6
27
30
13
23
17
20
19
22
20
12
23
21
25
22
20
20
17
19
24
20
26
32
17
14
14
18
13
27
22
13
5
19
22
17
18
14
25
29
24
22
21
23
31
26
13
14
27
15
12
4
12
8
11
14
15
9
12
10
6
8
1
-6
-6
17
16
11
7
11
3
11
5
3
0
9
3
3
11
13
1
1
4
10
2
4
10
29
26
22
32
49
64
82
92
85
97
109
92
95
89
87
98
78
51
27
2
-33
-59
-72
-76
-74
-54
-34
-12
-13
-10
-1
2
2
3
-4
-3
-8
-9
10
-2
-12
2
17
13
8
-1
5
12
15
2
8
4
9
8
-20
7
13
5
11
13
9
15
8
5
11
19
18
9
5
7
14
2
9
17
12
12
11
12
15
3
8
29
19
17
28
26
22
16
25
27
16
13
31
28
30
12
27
49
43
38
31
35
38
38
26
34
34
33
44
51
49
41
53
50
42
39
53
57
46
57
56
42
41
55
62
46
46
52
41
50
52
50
39
40
36
38
39
33
29
39
49
38
29
26
23
19
3
12
19
11
17
15
12
12
21
23
10
0
2
2
3
2
-1
-9
-12
4
16
11
-1
-6
6
2
1
11
9
4
3
4
-1
5
4
-2
4
4
1
4
8
6
-3
-2
-5
-1
9
11
-7
-7
-10
-3
7
-6
-9
24
21
2
2
14
10
7
3
8
9
10
1
-4
6
4
4
-1
1
-1
11
13
8
-3
-5
5
5
13
1
2
0
7
-1
12
16
2
-1
-11
11
8
5
8
4
-4
9
13
11
9
10
16
13
17
22
13
11
16
10
-10
-4
-3
-12
-2
-9
-1
5
6
-3
-3
-11
-9
-10
-14
-14
-4
-8
5
-2
-6
-2
-6
-11
-9
-5
-7
-15
-15
-21
-8
-1
1
-2
-9
-7
-4
-1
-1
-6
7
9
27
42
59
72
84
91
86
97
97
88
83
74
73
65
39
17
-6
-43
-70
-74
-66
-52
-53
-53
-51
-35
-9
-11
-15
-11
-10
-13
-9
-7
-12
-12
-10
-8
-4
-6
-15
-6
-3
-4
-8
2
-4
-11
-4
1
2
-8
-15
-1
5
-6
-7
-12
1
-3
-4
3
0
2
8
5
-3
8
0
-15
-1
0
3
11
13
8
10
4
0
-1
11
16
2
4
1
23
17
18
19
11
16
20
20
19
14
12
29
30
19
26
21
21
31
32
27
14
34
48
41
36
37
29
41
42
42
48
45
29
34
44
43
40
38
39
41
29
41
41
39
36
31
36
22
27
31
27
25
28
17
9
20
17
5
4
4
15
7
2
3
-8
-19
-1
5
-8
-7
-8
-11
-9
2
5
-4
-13
-8
5
-7
-9
-14
-16
-18
-8
-2
-6
-7
-10
0
-13
-25
-13
-4
-4
-10
-5
-8
-1
-5
-5
-10
-15
-10
-9
-10
-5
-4
-16
-10
-1
1
-5
-11
-12
-11
-11
-10
-13
-2
0
-2
-13
-10
-13
0
2
-1
-13
-14
-5
-2
-1
3
-8
-7
0
-5
-5
-1
-8
-13
0
-3
-8
-10
-7
-13
-10
-2
2
0
-2
-10
-9
-10
-12
-15
-13
-17
-8
-2
-11
-6
-15
-7
6
-6
-9
3
-3
-4
-2
-4
-9
-4
-6
-18
-14
15
19
9
10
-4
7
16
5
-9
-22
-10
8
-1
-15
-14
-13
-21
-19
-14
-9
-5
-4
-7
-13
-8
-9
-21
-19
-8
-6
-18
-20
-19
-8
-8
-12
-19
-23
-17
-12
-13
-13
-20
-17
-10
-14
-15
-8
-15
-10
-3
8
14
16
12
41
58
65
62
64
74
84
76
55
61
57
45
19
1
-13
-35
-72
-75
-70
-62
-51
-42
-40
-27
-22
-21
-19
-20
-20
-30
-23
-17
-2
-1
-18
-20
-19
-18
1
0
-5
-21
-22
-10
-9
-23
-22
-12
-13
-2
2
-6
0
-1
-3
-1
-5
-5
-7
-7
-3
-8
-3
-4
-5
-3
-5
-7
-4
-4
-7
3
-1
6
-1
-1
-2
8
-3
-8
9
13
17
9
4
10
18
16
15
18
16
7
20
25
29
22
15
13
20
32
25
20
9
29
35
39
36
36
35
40
22
27
40
37
40
29
38
47
44
43
38
36
42
38
28
24
33
41
40
38
36
35
25
22
22
17
12
19
18
14
3
3
11
11
5
0
-18
-1
-10
-5
7
0
-5
-10
-10
-10
-3
-10
-5
-5
-7
-11
-16
-18
-17
-10
-7
-14
-19
-12
-12
-18
-8
-10
-20
-18
-15
-9
-14
-17
-9
-6
-17
-22
-5
0
-21
-30
-16
-8
-4
-14
-19
-20
-17
-7
-4
-9
-13
-11
-13
-22
-13
-3
-6
-4
-10
-16
-12
-17
-14
-20
-24
-10
-11
-5
-12
-16
-14
-7
-8
-13
-20
-15
-23
-14
-13
-12
-5
-10
-20
-17
-7
-3
-10
-11
-10
-8
-7
-12
-15
-19
-22
-17
-18
-22
-21
-12
-10
-8
-7
-6
-12
-17
-22
-34
-21
-8
-7
-10
-12
-24
-10
-25
-13
-10
-17
-16
-5
-13
-17
-10
-19
-17
-16
-14
-20
-22
-31
-16
-2
-14
-15
-8
-14
-14
-8
-24
-30
-17
-14
-7
-15
-13
-10
-18
-14
-11
-8
-14
-15
-7
-7
-14
-14
-8
-5
-10
-14
-19
-6
-8
-13
-12
-6
-3
-12
3
7
1
-4
-9
-5
-23
-10
-1
-3
-15
-11
-23
-30
-19
-4
-10
-19
-22
-23
-19
-20
-20
-19
-25
-37
-12
-19
-16
-9
-18
-19
-26
-25
-23
-18
-38
-29
-19
-19
-27
-17
-16
-27
-21
-15
-22
-17
-15
0
3
-5
5
14
35
44
59
66
68
74
71
59
62
63
52
40
13
-5
-22
-44
-75
-84
-75
-68
-59
-58
-41
-27
-29
-29
-32
-40
-17
-9
-4
-13
-16
-15
-14
-11
-11
-19
-20
-14
-22
-21
-18
-24
-24
-16
-6
-7
-26
-12
-14
-15
-21
-13
-14
-20
-6
-7
-4
-4
-11
-3
-21
-9
4
-4
-9
-6
-6
-5
-13
-5
1
-2
-1
5
6
-1
-3
2
5
0
8
8
1
14
14
0
1
1
19
22
10
6
-5
9
25
33
12
20
21
19
28
37
30
28
28
29
26
34
25
32
38
33
39
30
38
40
39
40
36
42
40
39
31
37
43
37
34
33
34
33
32
25
24
27
26
24
24
12
-14
0
20
10
11
4
5
15
2
-2
-1
-2
4
-7
-10
-6
-11
-10
-6
-10
-20
-21
-9
-6
-8
-8
-11
-17
-16
-15
-16
-8
-6
-16
-23
-16
-1
-8
-15
-19
-23
-32
-20
3
-5
-9
-12
-4
-7
-14
-10
-8
-16
-19
-19
-16
-5
-3
-9
-10
-6
-3
-16
-19
-11
-5
-10
0
-3
-12
-8
-9
-18
-8
-7
-11
-10
-10
-4
-8
-17
-18
-3
0
-7
-15
-18
1
4
-9
-17
-10
-3
-3
-6
-8
-10
-6
-12
-12
-10
-6
-15
-14
-14
-6
-6
-2
-8
-12
-10
-2
0
-8
-11
-8
-9
-6
2
-3
-7
-12
-8
-30
-34
-2
3
-4
-2
-16
-16
-13
-5
-6
-13
-15
1
-3
-17
0
-6
-16
-9
1
-3
-13
-13
-5
-12
-9
-6
-17
-3
0
-4
-17
-2
-14
-16
-34
-15
6
-7
-11
2
-7
-1
0
-11
-15
-5
1
-9
-11
-5
-7
8
6
7
1
2
-5
0
-16
0
11
19
12
3
6
15
4
3
0
-2
-7
-7
2
-4
-12
-10
-14
-14
-7
-4
-10
-13
-10
-8
-8
-8
-13
-32
-18
-4
-5
1
-4
-7
-7
-6
-3
-11
-25
-20
-19
-9
-3
-16
-9
1
-5
-9
-2
8
17
19
12
25
47
69
77
72
72
90
95
86
75
73
72
58
35
12
-13
-42
-73
-79
-69
-60
-58
-40
-25
-12
-13
-10
-14
-16
12
0
-2
-2
-4
-10
0
2
-16
-9
5
-4
-5
3
8
7
-5
-6
-1
-3
2
0
10
5
-1
-9
3
-5
1
5
3
4
13
23
9
4
7
2
5
14
13
3
17
13
20
27
18
15
19
-3
16
20
16
24
18
21
24
20
26
11
30
30
20
23
32
34
31
34
38
35
22
27
54
41
44
42
44
44
44
50
47
50
54
59
43
28
46
50
41
51
53
47
46
57
57
55
58
54
56
45
41
58
46
48
42
32
50
52
41
34
31
36
34
28
32
31
26
27
21
19
18
15
1
-3
23
23
14
24
21
8
13
10
12
13
5
-14
0
29
12
10
14
7
0
13
7
18
17
17
8
-1
3
9
14
12
15
19
13
2
7
2
-6
9
4
7
21
23
15
11
12
0
11
22
19
11
15
12
11
11
18
18
14
10
8
7
25
17
13
13
4
6
23
25
17
10
2
6
26
29
13
12
11
0
4
15
17
19
7
6
28
27
7
9
7
14
7
4
14
25
14
12
12
12
10
5
7
-2
18
16
1
8
9
16
8
12
19
22
12
8
14
20
14
14
11
14
8
8
5
13
5
6
13
15
2
15
13
15
19
17
16
13
12
11
9
27
21
8
27
24
23
32
30
27
25
12
15
34
29
20
15
22
18
14
15
27
21
21
16
11
17
21
12
13
17
14
17
15
8
-6
-7
16
17
17
15
11
3
14
8
4
7
16
11
14
20
18
12
18
10
7
16
13
20
27
35
33
35
51
66
72
98
104
91
99
105
101
95
88
76
73
59
51
18
-19
-55
-72
-60
-57
-54
-45
-20
-16
-10
2
5
9
11
12
10
4
21
26
17
17
13
8
0
11
15
20
25
23
19
21
10
22
20
18
26
18
18
21
18
21
24
21
19
21
23
13
19
30
29
34
31
20
27
26
22
26
22
13
30
33
26
26
24
33
40
40
41
31
25
40
48
37
46
49
44
44
51
45
43
43
45
42
43
53
55
49
55
57
57
56
56
50
53
63
50
71
64
61
67
67
61
64
59
57
71
63
57
49
58
54
59
69
72
68
65
63
62
60
51
52
47
47
49
45
42
35
23
19
26
30
33
35
18
28
29
32
25
26
24
28
23
11
12
15
14
14
17
8
5
13
2
13
20
14
11
13
14
13
21
17
20
0
-5
10
21
7
1
23
23
22
18
14
12
16
13
15
22
19
8
13
13
10
19
15
7
7
22
14
13
18
18
19
14
4
18
11
13
20
13
10
4
0
23
9
16
15
10
16
19
17
24
15
14
13
9
7
9
3
11
15
11
14
9
9
13
16
12
8
13
-4
2
9
8
11
6
0
14
11
0
5
3
6
9
13
11
2
7
9
2
2
6
10
13
12
13
8
2
9
6
13
7
-3
15
11
11
9
15
18
17
10
11
13
18
17
22
13
20
25
23
16
8
8
19
14
14
18
13
18
15
10
3
4
0
-2
-3
-6
5
-6
-9
8
3
5
-6
1
2
1
-6
-10
-5
-4
-7
4
4
-2
4
-1
3
-1
-15
7
2
-5
-4
15
9
10
13
12
18
43
54
75
84
95
88
102
101
82
84
79
68
47
25
36
21
-24
-62
-69
-64
-64
-48
-42
-35
-23
-19
-8
-7
-7
7
6
6
8
7
2
-2
7
7
2
0
6
-1
-3
1
-4
5
19
6
11
4
5
7
0
12
6
12
8
10
15
11
-2
5
5
12
20
20
18
15
17
14
5
6
25
26
18
18
17
21
14
18
16
18
18
22
26
26
28
24
26
29
28
36
32
31
21
37
35
34
49
36
36
46
52
45
48
42
43
54
35
35
43
55
53
49
53
58
58
53
54
56
58
55
42
46
57
54
48
57
60
59
59
55
54
44
36
38
25
23
39
45
40
28
19
4
22
47
23
21
24
17
17
11
15
11
8
6
3
7
16
5
-5
3
3
4
16
5
-2
-6
-7
12
6
5
0
11
5
1
0
7
4
1
-5
-14
-12
-14
-4
11
-8
-2
3
-5
-4
-4
2
-2
-16
-4
-3
-8
7
7
-4
0
1
8
3
-8
-11
3
-3
-6
-2
-11
-4
6
1
-1
-4
-2
-6
0
-1
-11
-16
6
8
-10
-13
-3
22
9
0
-6
-6
-6
-12
-3
4
3
-8
-1
-2
-10
-10
2
4
0
-8
-15
-6
-10
-17
-9
7
-2
-4
8
2
2
-2
-6
-8
-11
-8
-9
-8
-12
0
-4
-5
-20
-20
0
3
-16
-6
10
-2
-7
-9
0
-3
-3
-9
-7
-11
-10
-3
-1
-3
-7
-6
-4
-5
-5
-4
-6
-7
3
-5
-7
8
8
3
5
6
-1
5
5
4
8
10
7
-1
0
4
3
2
2
-14
-22
-10
13
0
-20
-22
-9
2
-1
-6
-19
-21
-23
-17
-4
-6
-12
-19
-16
-7
-13
-11
-17
-22
-22
-12
0
-2
-22
-26
-16
-18
-22
-13
-21
-13
-12
-12
1
9
11
4
10
32
39
59
73
71
74
67
64
70
64
49
35
28
15
-1
-24
-55
-74
-77
-69
-50
-42
-39
-35
-28
-22
-17
-22
-23
-18
-25
-27
-14
-7
-5
-7
-7
-9
-15
-21
-18
-14
-5
-3
-9
-7
-12
0
0
-9
-10
-10
-9
-4
-13
-8
-2
-4
-9
-11
-4
-7
-12
-1
-9
-22
-6
6
-4
-5
-6
0
10
0
-1
-8
-8
13
6
3
17
9
2
12
10
14
17
10
16
8
10
10
17
18
11
14
25
23
24
30
28
26
25
21
32
35
29
31
37
32
29
43
39
40
43
38
42
35
31
41
44
38
47
47
46
39
42
36
32
26
12
32
35
45
43
34
28
31
27
16
21
12
4
-4
11
19
11
17
8
5
-4
-1
-4
-5
-4
-14
-14
-1
-10
-9
-8
2
0
-4
-18
-9
-21
-19
-12
10
4
-2
-6
-10
-15
-17
-4
-6
-13
-9
-11
-21
-14
-7
-9
-12
-10
-19
-11
-9
-18
-11
-9
-6
-16
-9
-8
-19
-19
-1
-7
-8
-5
-15
-15
-5
-2
-3
-11
-6
-12
-13
-16
-21
-8
-6
-9
-11
-12
-12
-6
-13
-12
-13
-7
-17
-20
-15
-21
-29
-32
-10
-8
-18
-25
-22
-10
-14
-19
-25
-6
-26
-26
-24
-22
-24
-21
-20
-15
-14
-31
-33
-27
-32
-29
-34
-40
-23
-27
-23
-33
-44
-40
-27
-40
-46
-35
-40
-45
-43
-43
-40
-51
-47
-38
-44
-47
-53
-59
-51
-44
-50
-55
-57
-62
-57
-57
-60
-69
-60
-73
-68
-51
-64
-70
-81
-66
-60
-56
-46
-57
-55
-68
-62
-61
-56
-56
-60
-61
-68
-54
-58
-56
-64
-63
-65
-80
-77
-75
-66
-75
-89
-81
-79
-69
-86
-92
-85
-80
-89
-85
-86
-89
-107
-126
-117
-127
-132
-125
-128
-131
-137
-128
-132
-132
-132
-125
-121
-128
-139
-140
-129
-133
-143
-150
-161
-155
-156
-163
-155
-156
-154
-154
-157
-134
-139
-143
-151
-165
-168
-181
-196
-193
-228
-264
-294
-310
-330
-353
-371
-371
-371
-355
-350
-363
-374
-361
-354
-362
-369
-374
-381
-389
-395
-404
-414
-412
-405
-430
-441
-435
-440
-450
-458
-461
-466
-476
-477
-486
-490
-494
-502
-512
-511
-527
-539
-542
-542
-538
-556
-567
-564
-583
-578
-584
-582
-581
-586
-600
-612
-609
-621
-634
-647
-651
-663
-665
-669
-680
-692
-698
-705
-712
-714
-725
-730
-746
-752
-756
-761
-775
-776
-794
-795
-782
-794
-812
-819
-818
-829
-836
-856
-844
-833
-845
-854
-867
-869
-881
-883
-890
-910
-920
-915
-929
-924
-927
-948
-950
-950
-963
-977
-973
-983
-992
-991
-1003
-1007
-1014
-1020
-1031
-1040
-1048
-1057
-1063
-1070
-1082
-1085
-1100
-1102
-1114
-1127
-1136
-1133
-1143
-1168
-1154
-1163
-1186
-1189
-1187
-1201
-1193
-1214
-1230
-1223
-1234
-1244
-1260
-1245
-1249
-1264
-1264
-1271
-1286
-1289
-1291
-1304
-1304
-1307
-1320
-1328
-1339
-1327
-1329
-1336
-1350
-1357
-1360
-1361
-1378
-1372
-1386
-1389
-1395
-1395
-1389
-1405
-1415
-1418
-1420
-1428
-1436
-1437
-1441
-1446
-1448
-1450
-1471
-1481
-1467
-1461
-1475
-1485
-1487
-1493
-1506
-1506
-1506
-1511
-1524
-1523
-1539
-1549
-1533
-1549
-1557
-1554
-1562
-1571
-1576
-1585
-1588
-1593
-1611
-1608
-1604
-1616
-1629
-1633
-1626
-1636
-1654
-1654
-1659
-1661
-1671
-1668
-1674
-1678
-1684
-1699
-1715
-1710
-1707
-1705
-1711
-1727
-1739
-1750
-1757
-1746
-1756
-1761
-1762
-1777
-1783
-1791
-1796
-1803
-1806
-1818
-1819
-1822
-1821
-1825
-1832
-1842
-1849
-1850
-1854
-1857
-1867
-1872
-1871
-1882
-1881
-1879
-1892
-1896
-1901
-1906
-1899
-1905
-1904
-1913
-1920
-1929
-1922
-1917
-1927
-1931
-1944
-1943
-1944
-1960
-1947
-1952
-1951
-1934
-1953
-1958
-1958
-1963
-1970
-1967
-1967
-1974
-1980
-1980
-1983
-1988
-1995
-1993
-1994
-2010
-2020
-2011
-2027
-2039
-2039
-2041
-2034
-2040
-30722
-30736
-30737
-30739
-30742
-30745
-30748
-30754
-30751
-30750
-30752
-30755
-30757
-30754
-30751
-30754
-30757
-30752
-30751
-30762
-30751
-30761
-30775
-30775
-30755
-30737
-30742
-30755
-30748
-30742
-30737
-30733
-30738
-30733
-30732
2031
2045
2063
2085
2090
2085
2097
2094
2097
2087
2090
2083
2069
-2028
-30727
-30748
-30781
-30814
-30824
-30831
-30813
-30789
-30789
-30788
-30770
-30766
-30741
-30743
-30754
-30751
-30745
-30752
-30751
-30744
-30744
-30743
-30740
-30744
-30747
-30748
-30749
-30736
-30744
-30741
-30737
-30740
-30753
-30762
-30739
-30726
-30737
-30740
-30741
-30737
-30739
-30732
-30744
-30744
-30743
-30726
-30734
-30735
-30740
-30738
-30738
-30739
-30734
-30734
-30732
-30740
-30738
-30735
-30726
-30727
-30724
-30732
-30731
-30726
-30735
-2045
-30721
-30723
-30722
2048
2045
2045
-30725
-30726
2049
2053
2049
2044
2051
2049
2043
2044
2047
2053
2050
2043
-30723
2060
2075
2069
2064
2064
2058
2062
2066
2062
2060
2052
2064
2093
2073
2067
2069
2077
2063
2069
2087
2081
2076
2076
2077
2076
2075
2079
2068
2072
2064
2069
2070
2077
2070
2066
2062
2051
2054
2059
2057
2056
2049
2047
2053
-30730
-2047
-30730
2040
2044
2039
-2047
-30724
-30726
-30731
-30728
-30741
-30730
-30736
-30729
-30730
-30727
-30727
-2043
-30727
-30737
-30741
-30740
-30740
-30741
-30745
-30730
-30725
-30722
-30733
-30740
-30733
-30731
-30739
-30745
-30746
-30731
-30731
-30735
-30734
-30741
-30730
-30723
-30725
-30734
-30731
-30726
-30721
-30726
-30728
-30732
-30732
-30730
-30723
-30733
-30741
-30751
-30739
-2045
-30721
-30723
-30725
-30730
-30732
-30731
-30726
-30731
-30734
-30730
-30723
-30726
-30724
-30726
-30725
-30730
-30729
-30727
-30735
-30731
-30727
-30730
-30732
-2048
-30725
-30736
-30730
-30728
-30741
-30742
-30729
-30729
-30729
-30730
-30722
-30725
-30723
-30727
-30747
-30734
-30725
-30725
-30733
-30735
-30734
-30727
-30725
-30731
-30740
-30738
-30736
-30738
-30739
2031
2032
-30733
-30734
-30738
-30727
-30721
-30729
2037
2044
2040
-30730
-30727
-2045
-30721
2044
2048
2048
-30725
-30728
2038
2045
2041
-2039
-30721
2046
2043
2041
2044
-30727
-30727
-2048
-30725
-30743
-30730
-30732
-30732
-2045
-30723
-30734
-30741
-30738
-30734
-2044
-30721
-30731
-30730
-30728
-30740
-30747
-30723
-30729
-30736
-30735
-30732
-30725
-30734
-30736
-30740
-30731
-30734
-30737
-30754
-30731
-30732
-30731
-30735
-30740
-30728
-2047
-30724
2044
2044
2047
2058
2072
2088
2111
2123
2124
2113
2113
2139
2149
2132
2121
2108
2099
2080
2057
-30734
-30771
-30811
-30824
-30810
-30808
-30803
-30777
-30758
-30765
-30751
-30737
-30736
-30742
-30751
-30730
-30725
-30727
-30735
-30725
-2043
-30732
-30726
-30725
-30724
-30725
-30725
-30731
-30725
-30730
-30726
-30725
-30724
-30734
-30726
-30725
-30734
-30723
-30722
-30724
2044
2042
-30725
-30730
-30736
-30737
2034
2040
2037
-2045
-30722
2051
2051
2051
2061
2048
2045
2049
2045
-30723
2049
2054
2056
2058
2074
-2035
-30723
2034
2040
2045
2050
2047
2056
2053
2046
2053
2048
2049
2043
2053
2052
2056
2060
2053
2066
2065
2065
2066
2062
2063
2062
2066
2069
2068
2059
2072
2078
2070
2070
2068
2079
2070
2076
2067
2059
2073
2081
2076
2065
2066
2084
2083
2074
2071
2069
2068
2072
2069
2065
2060
2068
2073
2053
2041
2051
2058
2040
2059
2047
2042
2057
2046
2041
-30721
2041
2050
-30724
-30722
2039
2047
-30733
-2047
-30721
-2046
-30723
-30729
-30726
-30726
-30735
-30722
-2044
-30725
-30726
-2044
-30723
-30729
-30729
-30730
-30731
-30726
-30733
-30729
-30729
-30730
-2048
-30726
-30725
-30729
-30729
-30730
-30736
-30725
-30724
-2045
-30725
-2043
-30723
-30729
-30744
-30722
-2041
-30733
-30724
2043
2038
-30724
-30725
-30724
-30725
-30727
-30737
-30731
-30730
-30727
-30725
-30737
-30732
2047
2039
-30724
-2046
-30724
-30733
-30725
-30729
-30731
-30728
-30725
-30732
-30731
-30722
-30727
-30725
-2047
-30724
-30726
-30724
-30737
-30757
-30729
-2047
-30722
-30722
-30726
-30723
-30722
-30731
-30739
-30735
-30728
-30729
-30727
-30730
-30729
-30728
-30733
-30731
-2047
-30721
-30721
-30729
-30727
2047
2049
-30729
-30725
2041
2036
2050
2044
2042
2043
2041
2038
-30722
-30722
-30726
-30728
-30722
-2044
-30729
-30723
-30737
-30741
-30744
-30743
-30724
-30731
-30733
-30728
-30737
-30741
-30737
-30726
-30729
-30747
-30731
-30726
-30737
-30742
-30737
-30731
-30734
-30742
-30736
-30727
-30738
-30740
-30743
-30741
-30743
-30736
-30735
-30734
-30740
-30739
-30737
-30736
-30736
-30727
2043
2044
-30729
-30728
2052
2073
2089
2106
2106
2114
2115
2109
2089
2078
2106
2112
2090
2070
2053
-30735
-30772
-30803
-30810
-30810
-30801
-30797
-30788
-30770
-30759
-30756
-30753
-30743
-30745
-30743
-30739
-30737
-30739
-30742
-30727
-30733
-30727
-30732
-30735
-30742
-30743
-30739
-30743
-30741
-30732
-30733
-30741
-30742
-30731
-30728
-30726
-30737
-30750
-30727
-2043
-30732
-30729
-30729
-30732
-30730
-30732
-30732
-30729
-30733
-30733
-2043
-30725
-30734
-30728
-30722
-2043
-30727
-30726
-30722
-30727
-30730
-30721
-2046
-30731
-30735
2032
2048
-2038
-30723
-30725
2039
2039
2037
2033
2040
2036
2054
2049
2042
2040
2050
2068
2056
2048
2046
2042
2048
2042
2055
2057
2056
2056
2059
2060
2055
2052
2061
2062
2052
2063
2073
2064
2064
2070
2071
2057
2056
2061
2069
2065
2057
2061
2060
2054
2060
2054
2057
2062
2057
2056
2059
2044
-30726
-30723
2036
2053
2041
2043
2041
-30722
-30724
-30732
-30728
-30729
-30731
-30730
-30721
-30721
-30728
-30736
-30745
-30729
-30727
-30733
-30741
-30741
-30737
-30741
-30737
-30737
-30745
-30740
-30741
-30739
-30741
-30752
-30741
-30722
-30732
-30740
-30731
-30737
-30747
-30750
-30745
-30734
-30745
-30732
-30736
-30741
-30734
-30731
-30733
-30738
-30751
-30741
-30736
-30737
-30739
-30746
-30739
-30741
-30726
-30731
-30735
-30736
-30731
-30734
-30736
-30743
-30742
-30734
-30728
-30741
-30745
-30750
-30751
-30733
-30734
-30745
-30736
-30742
-30747
-30731
-30731
-30733
-30735
-30746
-30738
-30740
-30742
-30747
-30743
-30736
-30732
-30724
-30742
-30751
-30748
-30741
-30748
-30749
-30741
-30747
-30748
-30736
-30733
-30736
-30740
-30740
-30743
-30750
-30745
-30753
-30738
-30744
-30748
-30734
-30733
-30732
-30746
-30740
-30741
-30738
-30743
-30732
-30736
-30740
-30733
-30739
-30736
-30737
-30733
-30730
-30731
-30731
-30722
-30730
-30727
-30732
-30728
-30738
-30741
-30752
-30740
-30728
-30739
-30746
-30743
-30741
-30741
-30744
-30749
-30752
-30749
-30746
-30751
-30762
-30766
-30745
-30736
-30756
-30749
-30743
-30743
-30750
-30741
-30751
-30753
-30751
-30743
-30753
-30760
-30759
-30749
-30752
-30755
-30747
-30755
-30746
-30742
-30748
-30743
-30742
-30737
-30730
-30728
-30727
2039
2052
2070
2079
2085
2101
2102
2106
2110
2102
2096
2089
2082
2053
-2046
-30742
-30776
-30798
-30813
-30815
-30810
-30808
-30788
-30775
-30770
-30764
-30765
-30765
-30755
-30743
-30748
-30754
-30749
-30748
-30748
-30747
-30747
-30753
-30761
-30752
-30751
-30760
-30747
-30745
-30743
-30751
-30755
-30739
-30733
-30744
-30743
-30742
-30743
-30743
-30735
-30740
-30746
-30753
-30747
-30740
-30737
-30744
-30752
-30739
-30736
-30731
-30739
-30732
-30745
-30740
-30748
-30746
-30738
-30744
-30739
-30730
-30745
-30745
-30728
-30729
-30736
-30738
-30726
-30726
-30734
-30736
-30731
-30726
-30732
-30749
-30731
-30731
-30724
2050
2043
2043
2045
2044
2046
2045
-30723
-2046
-30721
2055
2062
2060
2050
2066
2068
2052
2055
2058
2068
2066
2067
2058
2049
2055
2070
2070
2061
2058
2067
2063
2063
2063
2063
2058
2071
2054
2053
2069
2060
-2039
-30722
2047
2044
2045
2040
2037
-30730
-30726
-30724
-30729
-30736
-30733
-30739
-30731
-30742
-30752
-30747
-30734
-30745
-30740
-30733
-30742
-30743
-30766
-30745
-30745
-30749
-30746
-30747
-30743
-30749
-30748
-30748
-30747
-30748
-30749
-30766
2016
-30745
-30751
-30754
-30744
-30746
-30749
-30747
-30753
-30748
-30751
-30744
-30742
-30750
-30759
-30757
-30754
-30758
-30753
-30746
-30762
-30743
-30743
-30751
-30743
-30739
-30739
-30753
-30759
-30753
-30746
-30752
-30757
-30753
-30734
-30742
-30746
-30753
-30748
-30746
-30755
-30757
-30751
-30739
-30748
-30742
-30741
-30746
-30750
-30747
-30759
-30746
-30748
-30751
-30739
-30744
-30742
-30737
-30740
-30746
-30747
-30749
-30750
-30746
-30748
-30751
-30751
-30754
-30754
-30751
-30752
-30745
-30743
-30748
-30752
-30757
-30760
-30764
-30751
-30745
-30746
-30740
-30734
-30740
-30751
-30747
-30745
-30742
-30743
-30752
-30756
-30738
-30732
-30737
-30738
-30742
-30742
-30729
-30732
-30732
-30736
-30745
-30746
-30740
-30741
-30749
-30744
-30742
-30744
-30749
-30758
-30747
-30755
-30754
-30748
-30752
-30759
-30750
-30743
-30763
-30775
-30750
-30737
-30749
-30754
-30749
-30749
-30750
-30762
-30755
-30747
-30750
-30752
-30750
-30748
-30753
-30759
-30758
-30756
-30749
-30748
-30751
-30743
-30728
-30733
-30734
-30730
-30722
2102
2113
2116
2124
2146
2141
2140
2124
2123
2121
2117
-2029
-30722
-30735
-30747
-30774
-30807
-30826
-30817
-30801
-30785
-30779
-30775
-30767
-30758
-30759
-30757
-30752
-30756
-30751
-30749
-30754
-30753
-30752
-30755
-30763
-30753
-30754
-30744
-30743
-30750
-30767
-30768
-30742
-30735
-30748
-30742
-30740
-30740
-30739
-30742
-30742
