189
88
-52
-184
-130
-50
-37
34
35
89
189
79
-64
-198
-134
-59
-39
35
40
111
186
71
-62
-197
-122
-51
-33
21
37
108
172
51
-48
-191
-112
-46
-23
30
55
161
191
74
-52
-174
-70
-19
9
72
89
189
218
118
-11
-116
2
51
75
126
144
255
234
93
-66
-218
-136
-105
-75
-32
3
140
126
23
-94
-210
-105
-70
-22
39
48
173
145
29
-103
-214
-94
-46
-6
27
42
184
142
22
-97
-214
-67
-43
4
30
40
177
122
15
-94
-205
-66
-62
-3
25
47
201
141
7
-148
-203
-67
-58
14
45
57
200
123
-18
-153
-196
-62
-59
17
40
63
209
128
-21
-167
-169
-63
-51
33
59
67
227
126
-16
-159
-138
-48
-44
51
64
89
214
119
-23
-155
-106
-32
-27
65
72
126
236
120
-13
-146
-91
-14
11
88
104
170
241
122
-6
-122
-51
13
37
104
116
188
255
138
8
-119
-44
12
52
111
125
200
233
122
-21
-141
-36
16
35
86
99
200
205
84
-50
-167
-66
-26
3
45
62
180
163
63
-59
-192
-89
-32
-2
43
47
174
150
39
-80
-195
-78
-36
-11
27
41
181
139
31
-78
-198
-79
-42
-9
26
41
179
138
30
-100
-205
-65
-56
-5
29
46
192
140
8
-121
-212
-72
-60
5
43
40
179
136
11
-147
-209
-76
-76
10
40
44
197
126
-11
-164
-199
-61
-52
24
45
47
191
110
-37
-178
-172
-62
-64
26
36
48
199
106
-43
-173
-150
-57
-53
29
38
61
200
83
-62
-186
-129
-49
-37
44
45
86
185
71
-57
-186
-124
-61
-47
21
53
116
186
68
-68
-192
-112
-51
-25
30
41
123
179
67
-72
-192
-103
-48
-32
21
29
135
180
65
-76
-206
-108
-36
-15
33
51
154
169
48
-82
-207
-105
-49
-28
22
42
170
162
43
-93
-203
-83
-44
-18
23
37
170
148
29
-94
-204
-80
-35
-8
30
35
161
148
40
-99
-214
-75
-46
-7
32
51
190
135
11
-90
-204
-71
-46
-4
18
33
186
138
23
-105
-205
-74
-64
-3
38
44
191
127
1
-142
-200
-66
-59
19
44
39
201
127
-9
-158
-189
-63
-65
8
33
47
192
119
-24
-174
-166
-44
-41
55
55
57
202
117
-17
-164
-140
-51
-40
34
44
60
197
89
-47
-178
-128
-59
-54
22
36
91
192
65
-62
-195
-134
-50
-29
32
35
89
181
59
-72
-192
-115
-51
-26
35
49
110
168
52
-78
-215
-115
-51
-31
29
41
150
169
54
-78
-205
-106
-55
-35
31
44
152
158
49
-79
-193
-74
-26
-6
47
67
183
169
58
-65
-174
-67
1
76
117
154
286
268
141
15
-106
8
23
7
14
2
128
93
-18
-153
-252
-117
-71
-34
9
31
167
143
16
-99
-207
-75
-59
-18
6
37
189
132
10
-115
-208
-74
-73
-13
28
35
189
124
-1
-162
-200
-54
-64
10
34
41
182
119
-28
-176
-194
-64
-56
42
42
37
187
118
-20
-162
-152
-64
-67
34
37
48
193
108
-27
-175
-146
-51
-42
49
51
71
206
89
-39
-176
-118
-46
-29
40
55
108
204
92
-42
-175
-96
-37
-19
51
62
133
222
101
-35
-158
-72
-16
19
77
98
184
234
110
-17
-142
-56
2
24
87
101
209
242
110
-13
-124
-11
22
54
104
128
228
235
110
-20
-127
-23
25
29
80
106
233
206
85
-28
-156
-54
-8
12
60
77
201
170
57
-70
-196
-66
-33
-1
52
58
191
160
40
-98
-206
-73
-40
-1
23
49
195
143
20
-86
-200
-71
-56
0
25
38
178
142
16
-131
-206
-67
-56
14
35
36
184
123
-13
-156
-204
-75
-69
17
38
41
189
120
-20
-168
-176
-67
-63
23
40
36
188
96
-34
-171
-163
-68
-56
31
41
48
189
90
-46
-184
-149
-55
-50
29
46
78
187
76
-61
-204
-135
-58
-38
32
46
98
181
67
-66
-193
-129
-62
-44
25
38
116
190
67
-64
-195
-111
-58
-38
22
42
131
173
47
-74
-198
-105
-45
-30
20
44
147
161
49
-79
-202
-98
-50
-24
28
33
147
154
37
-93
-200
-100
-68
-39
22
40
167
160
39
-93
-218
-87
-46
-24
25
43
174
142
25
-108
-219
-89
-48
-20
25
39
176
137
16
-105
-215
-77
-60
-17
13
41
178
131
10
-108
-214
-85
-74
-21
14
36
188
120
2
-141
-209
-85
-75
-6
29
25
173
117
-20
-164
-211
-77
-68
14
32
38
193
106
-44
-190
-188
-69
-66
31
31
31
183
77
-46
-184
-174
-68
-59
34
49
43
187
91
-49
-185
-149
-71
-53
36
32
57
183
76
-36
-186
-134
-56
-46
28
43
100
185
62
-71
-205
-134
-71
-48
24
20
99
173
61
-75
-216
-119
-72
-35
25
23
117
163
44
-93
-225
-124
-59
-43
15
39
149
169
38
-101
-227
-122
-76
-43
15
29
145
131
18
-98
-214
-108
-64
-42
16
29
154
134
17
-115
-222
-92
-53
-33
25
48
180
148
33
-94
-207
-78
-39
-2
33
62
229
203
94
-14
-133
13
32
79
101
107
229
150
-1
-163
-287
-151
-140
-60
-17
-15
155
99
-29
-166
-233
-89
-78
-8
19
23
177
101
-32
-183
-223
-103
-86
17
34
34
183
96
-37
-181
-181
-79
-77
17
27
36
179
79
-59
-211
-167
-63
-52
23
22
53
174
68
-62
-200
-145
-67
-59
20
30
77
186
63
-71
-205
-144
-71
-40
27
39
98
179
65
-66
-196
-124
-60
-56
23
42
130
183
59
-71
-205
-100
-38
-15
35
56
160
184
63
-66
-193
-92
-30
-4
49
67
191
193
70
-56
-175
-60
-7
20
65
82
209
207
93
-38
-160
-41
9
39
72
94
222
210
86
-43
-160
-22
14
36
82
86
217
182
79
-49
-168
-48
-20
19
49
68
208
157
40
-83
-205
-77
-54
-9
33
29
180
125
7
-126
-217
-85
-77
-19
16
25
169
106
-25
-166
-223
-83
-86
2
22
28
164
89
-34
-181
-213
-94
-87
-6
11
26
170
78
-53
-197
-188
-88
-84
9
17
21
168
59
-76
-219
-182
-89
-72
13
8
40
158
49
-79
-219
-170
-92
-77
7
18
57
148
50
-71
-217
-149
-86
-70
-5
10
79
159
36
-107
-232
-147
-96
-76
6
15
105
158
33
-110
-233
-135
-80
-69
-5
16
111
144
21
-110
-233
-139
-85
-52
-4
13
125
130
14
-115
-227
-119
-86
-63
-13
8
123
111
1
-125
-243
-122
-83
-56
-15
6
135
119
0
-124
-245
-122
-84
-51
-8
5
144
110
-15
-133
-248
-117
-82
-56
-14
9
150
104
-17
-136
-257
-118
-98
-54
-25
-4
151
93
-32
-161
-247
-121
-117
-38
-5
3
158
83
-41
-189
-238
-117
-114
-27
-8
0
153
71
-65
-209
-220
-112
-106
-15
0
0
153
59
-79
-216
-198
-101
-102
-14
-10
-11
140
48
-83
-227
-198
-102
-89
-18
-13
28
142
25
-103
-240
-174
-101
-78
-11
-4
44
152
31
-105
-240
-169
-103
-85
-17
-12
73
148
17
-107
-225
-140
-82
-56
2
-10
85
133
14
-117
-240
-151
-89
-68
-9
1
95
119
-4
-122
-247
-147
-106
-83
-25
-6
90
96
-3
-128
-256
-140
-96
-82
-37
-15
119
110
-15
-145
-261
-143
-99
-73
-25
-5
117
87
-33
-154
-264
-126
-94
-61
-23
-8
122
78
-32
-157
-270
-142
-105
-71
-44
-34
131
108
-30
-143
-260
-127
-94
-42
-16
-13
154
111
-17
-146
-232
-96
-67
18
59
82
241
172
43
-111
-159
-34
-40
5
-24
-52
83
19
-130
-277
-287
-149
-147
-50
-49
-29
127
39
-96
-230
-225
-131
-127
-34
-34
-18
128
35
-99
-250
-217
-120
-104
-28
-22
6
127
24
-113
-257
-201
-119
-105
-23
-13
36
129
5
-118
-252
-182
-112
-97
-40
-18
61
126
5
-128
-262
-177
-108
-84
-21
-14
67
117
7
-130
-254
-155
-97
-80
-44
-20
92
111
-13
-127
-250
-150
-91
-77
-29
-3
108
116
-6
-124
-244
-135
-91
-59
-13
10
120
121
11
-123
-238
-112
-59
-44
-4
33
168
141
10
-110
-203
-77
-41
-5
26
44
174
145
20
-100
-201
-67
-46
-6
27
51
201
144
30
-88
-208
-72
-56
-9
25
35
185
121
-8
-144
-226
-92
-80
-16
9
16
160
77
-51
-199
-243
-123
-119
-24
-4
-10
137
59
-71
-211
-238
-121
-124
-38
-20
-20
134
50
-89
-237
-225
-128
-131
-38
-21
-20
116
31
-109
-250
-206
-122
-112
-26
-28
5
126
13
-117
-252
-205
-132
-106
-36
-23
36
117
6
-132
-274
-198
-119
-95
-32
-23
50
122
8
-131
-264
-177
-130
-101
-43
-30
62
115
-4
-147
-278
-164
-116
-91
-39
-23
79
94
-14
-146
-275
-168
-120
-88
-31
-24
93
107
-23
-157
-268
-150
-110
-87
-48
-21
98
93
-25
-156
-271
-150
-114
-77
-43
-26
106
82
-32
-151
-276
-151
-113
-69
-33
-21
104
73
-45
-150
-277
-143
-119
-85
-40
-15
125
79
-37
-165
-284
-144
-119
-67
-28
-23
122
66
-63
-194
-274
-141
-140
-62
-32
-22
116
63
-62
-227
-269
-142
-135
-43
-23
-18
122
60
-83
-233
-246
-128
-121
-33
-25
-24
126
41
-111
-245
-229
-139
-132
-33
-18
-3
134
17
-116
-249
-209
-123
-113
-24
-13
20
134
23
-123
-250
-195
-126
-113
-41
-25
33
128
12
-132
-253
-177
-118
-107
-39
-20
63
122
7
-128
-252
-158
-120
-105
-21
-12
83
120
0
-130
-257
-168
-117
-82
-27
-6
96
105
-16
-140
-255
-147
-101
-70
-21
-10
113
116
-16
-135
-249
-137
-89
-76
-27
1
126
113
-9
-136
-248
-134
-87
-68
-25
-8
126
96
-27
-157
-268
-131
-94
-74
-35
-18
130
99
-22
-148
-258
-125
-97
-61
-18
-10
115
82
-29
-135
-263
-124
-110
-68
-24
-13
132
82
-38
-178
-257
-114
-112
-43
-15
-20
136
84
-60
-207
-244
-118
-111
-24
-8
4
162
86
-48
-190
-202
-87
-78
22
23
33
193
94
-40
-160
-137
-19
1
101
112
119
256
155
12
-151
-155
-95
-123
-62
-57
-14
106
3
-120
-249
-194
-114
-93
-10
1
66
145
35
-98
-231
-154
-91
-63
-4
0
78
160
41
-95
-228
-159
-89
-54
0
16
117
152
42
-89
-221
-132
-68
-48
5
23
126
152
25
-106
-214
-101
-50
-33
16
34
142
155
35
-93
-218
-104
-45
-13
18
29
152
155
43
-86
-194
-83
-46
-1
39
54
193
150
39
-86
-187
-67
-32
2
35
60
207
155
45
-64
-173
-44
-7
24
64
84
224
177
46
-57
-167
-32
-16
43
86
91
233
199
68
-62
-138
-8
-2
83
113
104
259
194
73
-88
-119
14
18
104
123
128
266
186
58
-87
-110
-2
6
99
106
109
248
153
4
-146
-119
-10
-5
82
77
95
226
122
-20
-155
-112
-42
-24
53
50
87
208
101
-33
-167
-110
-53
-26
48
54
112
195
76
-53
-181
-106
-58
-29
43
59
148
198
66
-66
-181
-101
-45
-11
43
50
148
182
66
-69
-188
-83
-40
-27
30
58
176
180
61
-65
-188
-99
-51
-6
48
54
162
163
45
-79
-189
-78
-21
-4
40
63
181
158
43
-80
-193
-68
-30
-1
33
55
186
168
39
-77
-204
-73
-33
0
38
58
197
159
37
-84
-191
-67
-53
14
44
50
207
155
34
-89
-192
-57
-50
2
53
65
199
146
24
-134
-196
-57
-47
31
61
53
211
144
6
-147
-187
-58
-55
40
51
53
206
133
-16
-158
-161
-47
-39
55
47
68
204
107
-26
-163
-149
-61
-55
45
63
81
213
105
-33
-169
-126
-41
-29
54
59
91
209
89
-47
-182
-122
-47
-26
42
43
127
205
92
-53
-186
-101
-29
-14
42
44
131
192
74
-55
-180
-94
-30
-11
36
63
159
180
65
-54
-189
-89
-31
-18
38
63
172
182
70
-71
-189
-79
-33
-6
46
51
162
176
59
-75
-189
-74
-26
1
43
48
180
173
49
-80
-191
-64
-22
-2
38
52
194
165
45
-74
-187
-56
-15
17
40
65
213
166
43
-68
-183
-54
-22
16
39
74
228
175
41
-85
-170
-57
-51
16
70
63
208
144
16
-125
-197
-62
-61
22
69
66
212
145
1
-144
-178
-49
-51
48
52
59
210
127
-10
-151
-157
-58
-52
37
53
65
210
125
-8
-160
-142
-52
-42
45
56
80
211
104
-45
-182
-116
-42
-30
45
56
96
212
93
-40
-153
-78
-9
0
59
66
142
219
107
-18
-143
-60
15
49
127
152
248
302
189
39
-90
-10
48
43
53
39
111
125
9
-111
-223
-113
-61
-37
38
53
160
168
46
-79
-181
-71
-34
9
43
62
177
174
54
-70
-189
-68
-31
-3
49
56
180
168
51
-68
-194
-62
-16
8
51
76
204
165
35
-81
-183
-61
-21
20
35
57
212
168
44
-64
-180
-56
-29
18
46
66
213
148
28
-87
-164
-34
-23
38
66
71
220
168
43
-115
-179
-42
-27
57
75
75
217
150
27
-115
-140
-25
-15
82
86
88
249
166
22
-128
-116
3
14
96
114
119
271
166
42
-99
-72
21
33
112
121
156
285
176
41
-100
-50
36
54
126
138
182
272
164
36
-101
-29
37
50
108
119
187
268
145
11
-123
-44
11
35
88
92
173
226
105
-26
-154
-67
-23
12
66
73
182
203
79
-47
-173
-75
-22
-2
54
80
180
191
71
-57
-172
-77
-16
3
43
65
184
176
61
-71
-188
-63
-20
0
42
64
187
174
50
-81
-182
-57
-16
-4
37
59
202
164
44
-80
-175
-52
-25
18
50
63
208
156
44
-77
-188
-53
-36
12
46
60
209
150
36
-101
-197
-73
-56
29
68
72
219
154
20
-131
-185
-61
-39
52
68
63
202
135
4
-141
-162
-42
-36
54
67
61
208
128
-15
-158
-145
-39
-37
61
58
66
206
122
-16
-153
-121
-39
-22
58
59
94
216
91
-45
-169
-112
-30
-15
55
61
112
215
99
-40
-176
-97
-35
-23
57
69
139
210
85
-46
-182
-92
-38
-25
54
63
154
204
72
-53
-178
-81
-36
-17
50
67
172
195
68
-69
-189
-69
-26
3
52
66
176
176
62
-68
-172
-73
-23
8
44
64
182
174
60
-67
-185
-79
-29
12
34
62
197
165
57
-70
-195
-62
-26
5
50
66
210
172
45
-83
-182
-48
-25
6
42
63
214
168
46
-75
-181
-47
-30
22
47
73
216
169
44
-100
-183
-41
-33
40
67
64
219
148
10
-136
-174
-48
-40
49
60
60
212
140
-10
-156
-159
-40
-39
57
61
60
208
129
-28
-162
-138
-41
-43
46
51
73
209
106
-34
-165
-123
-40
-30
57
70
90
190
104
-26
-166
-112
-39
-22
41
51
105
208
97
-47
-177
-94
-22
-13
59
71
161
229
102
-33
-158
-72
-3
28
90
104
196
268
149
32
-89
3
62
90
138
148
242
224
73
-79
-221
-129
-81
-52
2
27
156
157
42
-80
-201
-76
-32
-8
38
56
182
161
50
-70
-185
-74
-27
9
41
62
194
163
50
-65
-182
-65
-28
2
45
54
192
158
50
-64
-185
-49
-10
12
41
68
212
168
43
-76
-192
-55
-38
18
55
68
218
168
34
-106
-185
-49
-45
27
64
74
231
160
19
-131
-170
-45
-36
43
71
83
241
158
11
-126
-141
-26
-22
70
84
93
235
144
13
-128
-110
-5
3
90
97
108
267
163
20
-120
-77
-4
34
123
124
153
280
163
29
-110
-52
38
43
122
128
184
295
173
29
-104
-28
37
53
125
135
199
265
144
16
-113
-34
27
46
96
103
186
221
117
-21
-148
-53
-4
11
70
82
186
206
82
-42
-174
-72
-14
5
52
66
185
190
62
-75
-176
-66
-30
12
50
58
179
175
64
-58
-177
-66
-25
7
38
56
202
165
49
-78
-181
-55
-28
4
39
59
205
162
35
-73
-186
-56
-38
13
45
61
213
153
32
-75
-186
-42
-43
8
41
63
209
151
19
-130
-188
-56
-41
35
45
60
214
152
3
-142
-177
-41
-48
37
52
69
211
127
-5
-143
-153
-51
-32
52
46
46
223
130
-15
-152
-139
-49
-41
49
60
71
216
123
-22
-162
-119
-39
-20
56
61
101
200
93
-34
-172
-109
-44
-30
40
67
126
201
90
-34
-175
-103
-34
-14
50
57
146
201
91
-46
-184
-96
-35
-17
44
63
150
186
72
-54
-176
-84
-36
-7
49
48
163
194
74
-66
-187
-62
-15
-8
32
48
172
173
58
-69
-188
-70
-23
1
43
55
196
166
56
-67
-186
-71
-25
1
41
64
199
158
18
-94
-189
-53
-23
9
50
65
205
163
41
-78
-184
-70
-37
14
42
62
209
158
31
-83
-187
-65
-52
15
51
59
215
155
25
-133
-190
-50
-43
29
38
55
225
144
5
-137
-162
-46
-54
42
65
65
221
143
2
-137
-146
-44
-36
54
71
69
227
134
-9
-143
-121
-37
-15
69
74
82
209
108
-25
-168
-124
-50
-30
49
56
100
204
90
-51
-177
-106
-36
-30
50
70
120
204
89
-45
-181
-104
-35
-9
41
55
141
194
87
-61
-182
-91
-36
-11
51
61
155
190
70
-60
-190
-84
-31
-14
43
67
171
188
78
-40
-161
-63
-22
16
67
73
205
215
102
-14
-128
-6
59
99
155
172
297
271
144
25
-107
-30
-25
-32
-25
-1
143
115
9
-109
-219
-83
-35
-8
24
53
201
148
42
-75
-199
-69
-45
8
47
64
207
157
35
-97
-199
-61
-43
22
57
57
211
140
23
-135
-202
-60
-44
27
45
69
221
143
1
-135
-168
-57
-47
53
55
68
214
133
-15
-162
-140
-36
-31
56
61
73
207
118
-8
-153
-120
-35
-26
60
64
92
216
114
-25
-153
-111
-36
-15
74
80
121
237
120
-10
-144
-88
-18
-2
76
93
157
236
115
-11
-142
-55
18
35
98
109
192
248
129
2
-117
-23
29
58
102
115
222
271
146
12
-112
-9
50
67
115
122
234
251
140
14
-125
-11
33
53
98
113
237
233
113
-36
-148
-33
-1
36
79
90
205
182
77
-42
-165
-48
-15
9
54
71
208
174
52
-72
-182
-58
-17
21
42
62
213
164
35
-83
-199
-54
-33
9
41
60
198
151
37
-92
-188
-60
-45
18
61
59
209
152
6
-144
-199
-44
-48
34
50
66
216
141
2
-153
-181
-49
-43
42
54
62
209
123
-18
-155
-149
-47
-45
45
49
75
206
104
-29
-174
-128
-39
-33
55
58
74
199
108
-38
-171
-125
-42
-27
54
64
103
201
92
-37
-175
-116
-44
-23
34
58
131
202
88
-32
-175
-97
-43
-15
46
53
147
188
74
-56
-178
-91
-34
-7
57
61
156
192
71
-57
-182
-87
-45
-24
27
56
166
181
77
-64
-190
-77
-28
4
43
60
171
169
46
-79
-199
-67
-24
2
32
49
189
169
53
-78
-206
-68
-9
9
33
46
183
153
49
-80
-196
-66
-25
16
44
61
199
143
30
-92
-203
-63
-41
6
35
53
207
157
19
-111
-193
-52
-45
16
55
51
204
130
10
-130
-188
-58
-53
33
51
62
205
140
0
-144
-170
-56
-54
39
48
54
207
122
-11
-154
-151
-41
-39
55
50
59
210
112
-25
-164
-132
-30
-22
55
67
105
229
112
-34
-171
-123
-53
-30
41
57
97
202
93
-43
-187
-124
-50
-26
55
60
118
201
78
-44
-184
-117
-54
-18
38
50
130
181
74
-50
-189
-96
-46
-24
33
55
154
178
57
-69
-185
-87
-39
-13
31
52
154
174
61
-70
-187
-80
-41
-13
42
60
188
189
70
-45
-167
-68
-19
20
67
81
220
213
118
-6
-101
27
62
96
143
158
279
205
69
-81
-230
-116
-89
-58
-10
17
170
130
3
-103
-212
-74
-48
4
36
61
206
142
18
-107
-203
-61
-62
2
40
51
201
139
16
-143
-197
-56
-56
16
40
51
208
136
-11
-155
-186
-52
-59
33
52
57
211
121
-22
-160
-162
-54
-38
54
62
59
214
117
-26
-160
-138
-44
-29
44
46
81
218
114
-22
-164
-141
-54
-18
56
61
110
216
103
-27
-167
-101
-34
-10
66
80
140
222
98
-26
-153
-71
-14
2
72
84
168
231
113
-13
-129
-48
7
36
89
111
192
233
137
13
-120
-13
41
65
105
116
224
247
134
5
-117
-11
35
63
111
120
231
236
113
-19
-140
-26
22
39
82
109
222
191
92
-37
-160
-51
-1
19
55
71
213
179
54
-73
-192
-67
-22
14
39
53
194
155
41
-77
-194
-57
-44
6
37
65
205
152
28
-95
-208
-71
-39
15
42
55
204
144
12
-130
-194
-56
-62
15
44
56
213
141
-6
-156
-184
-54
-71
31
56
60
203
118
-22
-168
-171
-56
-52
51
46
44
204
114
-31
-169
-145
-51
-52
34
51
69
201
106
-36
-172
-128
-49
-28
42
47
83
200
91
-45
-174
-119
-54
-34
58
59
117
201
73
-55
-183
-98
-44
-22
39
54
138
184
69
-70
-181
-87
-51
-23
43
63
151
187
65
-59
-189
-87
-41
-17
23
46
167
174
50
-81
-198
-86
-33
2
44
60
175
175
59
-81
-199
-75
-25
1
36
55
164
159
52
-83
-210
-83
-29
1
36
47
185
151
42
-96
-204
-65
-23
-6
34
53
188
145
26
-87
-192
-64
-47
-3
29
49
203
144
20
-96
-201
-71
-54
14
46
47
205
142
2
-126
-196
-61
-58
21
45
51
200
133
2
-144
-181
-53
-49
29
39
58
217
124
-6
-160
-167
-50
-34
54
64
68
211
119
-15
-155
-143
-49
-28
44
49
65
209
96
-36
-175
-132
-51
-43
42
53
90
189
78
-57
-180
-112
-49
-43
32
43
105
200
71
-63
-193
-104
-54
-41
34
52
129
183
58
-75
-200
-102
-30
-18
38
52
143
184
74
-68
-198
-100
-48
-21
35
50
158
177
72
-51
-172
-72
-31
-11
47
68
184
197
86
-39
-147
-9
48
77
130
144
273
249
144
14
-115
-28
-13
-21
-18
-20
134
89
-11
-110
-231
-98
-55
-3
22
27
187
138
21
-88
-203
-65
-41
3
33
46
192
139
18
-106
-197
-62
-54
3
37
52
199
140
10
-131
-192
-65
-63
16
38
49
209
142
-8
-149
-186
-69
-54
33
47
49
206
126
-16
-154
-163
-48
-44
46
44
54
211
117
-21
-160
-132
-50
-45
54
66
84
214
108
-17
-155
-128
-33
-22
43
46
103
222
116
-17
-159
-98
-31
-7
72
79
144
229
118
-10
-139
-66
5
23
81
96
175
240
122
-9
-134
-36
27
43
103
116
215
248
133
5
-120
-9
30
34
101
131
236
252
128
-3
-120
-26
29
43
90
107
219
220
95
-39
-154
-48
7
24
62
71
196
175
72
-69
-173
-58
-17
13
47
60
185
164
46
-79
-200
-66
-21
1
28
53
202
156
31
-82
-196
-64
-43
-5
32
59
193
147
27
-96
-199
-63
-62
3
40
58
204
134
6
-130
-196
-48
-41
21
35
55
204
127
-13
-150
-202
-78
-53
40
57
52
204
122
-20
-160
-164
-59
-57
39
52
48
197
113
-29
-174
-158
-60
-37
53
43
61
198
98
-45
-178
-131
-51
-45
37
45
92
204
87
-41
-180
-122
-50
-33
29
57
119
209
84
-52
-183
-116
-51
-34
32
43
121
203
64
-59
-203
-113
-46
-14
45
65
154
182
58
-65
-190
-95
-42
-21
32
53
157
173
62
-70
-188
-94
-39
-14
31
50
160
166
52
-71
-202
-81
-36
-17
27
57
178
143
48
-74
-192
-72
-43
-13
35
55
186
154
32
-96
-206
-73
-31
-3
32
56
192
149
24
-105
-199
-70
-45
5
36
56
176
120
15
-88
-192
-63
-47
-4
35
60
201
134
13
-127
-196
-62
-57
22
44
52
191
128
-4
-154
-180
-67
-62
33
38
51
203
126
-24
-165
-163
-54
-45
51
60
60
209
123
-22
-165
-157
-61
-42
58
57
75
207
104
-28
-164
-128
-36
-22
62
59
93
203
103
-47
-192
-121
-49
-32
42
48
111
200
79
-57
-187
-109
-48
-35
38
52
130
190
60
-77
-197
-94
-37
-29
35
47
137
178
66
-72
-190
-85
-54
-22
27
38
157
162
48
-80
-203
-85
-40
-19
36
49
162
161
52
-80
-202
-82
-34
-5
51
73
192
181
56
-67
-175
-43
4
27
69
98
255
240
139
14
-97
30
66
93
125
124
240
172
22
-147
-265
-128
-97
-47
-2
24
180
134
22
-112
-208
-66
-56
-7
36
47
198
127
-5
-140
-210
-69
-63
12
50
54
196
130
-5
-158
-204
-53
-55
28
56
62
199
119
-22
-167
-170
-65
-57
42
41
47
207
114
-41
-165
-136
-53
-46
31
58
74
201
94
-30
-168
-127
-46
-35
46
47
100
200
95
-40
-174
-112
-34
-29
39
52
127
217
93
-36
-169
-99
-37
-8
47
74
167
227
100
-36
-161
-66
-11
7
58
85
182
225
106
-20
-150
-46
20
37
89
101
219
236
115
-10
-121
-9
32
57
103
126
232
233
116
-9
-121
-9
36
65
101
118
235
212
93
-31
-146
-24
10
53
91
87
217
182
73
-57
-167
-59
-14
18
40
52
196
180
59
-77
-192
-71
-30
7
38
47
209
158
27
-82
-192
-58
-55
-1
40
47
185
133
14
-135
-207
-61
-59
18
46
49
201
128
-5
-146
-176
-63
-55
30
44
58
191
114
-16
-156
-168
-58
-58
42
41
49
197
108
-41
-177
-142
-57
-50
39
47
72
192
77
-54
-187
-140
-38
-33
44
55
93
189
81
-51
-181
-119
-49
-30
29
36
104
194
71
-60
-181
-107
-47
-24
39
57
123
194
67
-68
-189
-97
-42
-23
34
46
139
175
68
-75
-192
-88
-42
-14
35
44
149
169
48
-87
-190
-74
-38
-14
27
52
158
155
36
-83
-187
-74
-41
-15
32
49
173
153
41
-87
-203
-88
-41
-8
33
56
174
144
37
-98
-200
-84
-43
-4
35
44
180
150
28
-83
-206
-79
-43
-10
28
49
190
140
17
-96
-204
-75
-63
-8
39
42
190
133
8
-132
-198
-59
-57
7
35
44
187
131
4
-150
-194
-65
-57
24
30
48
200
118
-26
-160
-167
-54
-56
34
36
42
190
101
-48
-175
-145
-54
-53
43
56
63
188
80
-57
-173
-124
-46
-35
43
51
89
190
80
-44
-175
-112
-39
-30
30
54
114
212
85
-49
-176
-107
-46
-17
40
45
116
180
59
-58
-186
-105
-49
-26
34
48
127
167
45
-80
-195
-98
-49
-29
31
44
145
162
50
-76
-201
-97
-39
-22
17
42
155
161
42
-88
-216
-100
-39
-1
26
45
166
142
27
-92
-194
-82
-36
-17
18
42
173
148
48
-67
-185
-60
-27
-4
38
67
199
168
54
-60
-155
-9
33
70
116
134
284
246
131
6
-118
-10
-30
-3
9
-6
135
73
-35
-165
-230
-90
-82
-15
23
25
181
126
-6
-149
-194
-65
-66
15
24
43
187
112
-26
-165
-181
-61
-51
27
33
41
189
97
-26
-160
-155
-65
-55
28
43
52
187
96
-39
-183
-132
-60
-47
42
52
75
196
85
-44
-180
-121
-60
-33
36
46
103
189
81
-56
-187
-115
-51
-18
46
64
139
182
63
-56
-174
-97
-41
-13
38
55
157
186
68
-37
-168
-78
-19
0
40
63
173
197
94
-45
-154
-56
-1
18
71
87
201
216
100
-29
-139
-32
21
40
84
106
238
217
111
-10
-133
-15
36
65
97
115
241
215
93
-23
-128
-17
19
53
87
103
236
189
66
-45
-162
-42
-10
25
62
78
207
160
43
-73
-193
-66
-38
9
36
60
210
145
23
-120
-202
-66
-53
14
42
42
192
125
0
-143
-192
-67
-57
16
34
54
197
128
-17
-165
-180
-73
-64
46
46
55
198
100
-35
-168
-157
-68
-45
36
40
55
193
94
-42
-193
-139
-54
-48
32
36
72
189
81
-50
-198
-141
-51
-34
38
41
95
194
77
-60
-202
-114
-57
-26
34
51
124
177
65
-68
-198
-107
-53
-36
23
40
127
182
59
-64
-193
-100
-41
-21
32
41
149
165
50
-81
-189
-81
-39
-12
24
40
152
154
50
-87
-201
-86
-42
-22
34
53
167
156
41
-89
-192
-81
-35
-12
25
41
171
140
28
-91
-205
-80
-43
-11
29
45
182
136
26
-90
-207
-77
-33
-2
19
34
185
143
21
-86
-205
-67
-55
1
36
34
178
137
14
-126
-216
-64
-59
5
30
39
189
127
-3
-149
-195
-64
-65
21
32
43
195
113
-27
-158
-161
-61
-62
31
39
37
184
109
-24
-162
-157
-48
-47
35
38
46
186
93
-44
-179
-137
-45
-38
34
49
80
190
89
-40
-178
-117
-41
-37
42
59
105
196
85
-45
-177
-109
-50
-26
37
50
116
173
68
-62
-192
-114
-49
-22
33
34
122
164
54
-82
-201
-92
-52
-39
31
55
145
162
45
-90
-193
-87
-43
-22
19
31
154
157
44
-84
-198
-88
-45
-13
26
40
161
150
34
-83
-203
-90
-47
-18
22
23
163
151
38
-89
-185
-47
-18
7
47
61
201
164
49
-53
-154
-30
11
63
116
142
282
239
116
5
-102
9
-7
2
6
5
127
75
-46
-173
-231
-96
-81
-7
28
36
185
120
-4
-160
-195
-72
-67
13
29
33
190
114
-26
-164
-170
-68
-65
31
42
50
188
102
-34
-198
-158
-49
-53
26
41
52
189
93
-44
-166
-137
-62
-42
36
49
76
190
85
-51
-179
-116
-62
-26
47
42
106
199
76
-57
-177
-105
-45
-41
27
61
128
194
74
-64
-179
-95
-38
-10
51
62
153
189
58
-49
-169
-84
-22
0
59
70
177
194
89
-29
-148
-46
-4
20
70
89
205
199
88
-38
-126
-21
21
51
95
107
222
221
118
-5
-123
-16
26
49
87
113
249
228
106
-11
-134
-10
36
52
86
99
228
192
75
-50
-150
-26
-9
13
64
80
198
157
49
-69
-179
-60
-43
19
43
57
197
141
12
-130
-194
-51
-54
17
43
47
198
136
6
-152
-203
-64
-50
15
43
56
183
112
-14
-158
-167
-66
-62
33
48
40
185
106
-31
-166
-147
-61
-61
28
36
53
189
101
-43
-194
-148
-54
-39
34
48
70
184
77
-54
-183
-123
-46
-45
32
40
86
183
72
-53
-187
-116
-51
-26
32
34
110
186
74
-58
-188
-111
-56
-44
14
38
129
178
59
-70
-188
-87
-37
-22
17
41
146
164
47
-82
-200
-86
-34
-22
33
44
141
166
53
-81
-186
-79
-46
-26
18
43
165
151
41
-86
-198
-81
-35
-13
30
44
177
151
22
-89
-196
-78
-49
-20
30
50
175
143
26
-91
-205
-75
-41
-8
25
41
170
135
26
-94
-192
-65
-55
-16
14
29
196
143
15
-120
-197
-71
-65
6
31
40
190
126
0
-144
-191
-77
-59
18
24
41
190
119
-18
-153
-185
-63
-54
33
46
46
176
105
-29
-175
-158
-65
-58
30
42
50
179
90
-33
-173
-149
-55
-49
36
36
74
185
85
-45
-181
-130
-59
-32
17
35
104
201
69
-59
-175
-120
-53
-34
41
49
114
174
70
-65
-180
-92
-47
-34
29
26
132
196
71
-56
-172
-78
-32
-1
37
42
150
173
59
-71
-188
-88
-39
-23
22
36
146
147
45
-76
-188
-87
-41
-22
21
34
147
149
35
-80
-197
-80
-41
-19
19
36
163
154
34
-97
-204
-89
-36
-19
18
31
173
143
31
-94
-202
-71
-46
-9
23
40
174
134
18
-89
-206
-70
-42
-7
35
67
197
156
41
-88
-184
-46
-36
37
84
80
243
206
98
-40
-91
43
53
123
135
122
239
140
-26
-194
-242
-129
-113
-15
3
22
168
100
-46
-178
-59
-8
-17
-2
-9
1
16
1
15
-33
-33
-25
-23
-11
-14
-4
3
-14
-18
-39
-34
-12
-1
8
-4
2
13
-8
-21
-28
-5
-11
-6
9
-4
11
18
2
-21
-36
-16
-12
-12
-1
13
17
14
10
-6
-19
0
-1
2
4
17
23
18
9
-8
-10
0
-5
3
17
12
31
37
19
12
1
3
13
10
8
24
49
30
31
12
3
21
39
26
41
41
61
51
35
41
26
45
55
48
52
71
82
77
61
46
49
65
67
68
69
78
95
83
74
54
49
64
63
75
75
83
89
73
63
41
40
59
53
43
40
45
73
59
39
20
7
13
20
30
19
19
40
19
11
-5
-10
3
13
14
12
11
20
16
2
-21
-20
6
11
7
8
15
19
-18
-14
-8
-12
-3
-4
9
19
19
13
7
-4
-14
4
13
-2
-2
6
6
5
9
-3
-18
-21
-14
0
6
5
5
10
-1
-15
-15
-6
-1
-4
10
-2
-2
3
2
-4
-20
-9
-2
16
9
9
15
3
-2
-3
-25
-3
0
2
6
10
9
16
-3
1
-11
-17
-8
-3
3
8
20
15
-2
-15
-19
-7
-2
6
8
10
19
14
6
-8
-15
-1
-7
-10
1
5
17
12
4
-5
-15
-6
-1
4
3
1
16
14
8
-4
-12
-12
0
4
-6
-1
21
4
-9
-15
-9
-4
-2
9
12
9
11
9
0
-6
-10
-14
-6
-7
1
6
0
3
3
-9
-4
-3
-12
4
2
-1
6
3
4
-20
-8
-4
9
5
-5
2
15
8
-8
-18
-11
0
-5
0
-9
5
16
-2
-7
-17
-4
-2
3
7
0
7
17
-6
-13
-13
-11
-4
-5
1
10
13
16
1
-16
-31
-9
3
9
-1
3
7
12
2
-10
-22
-7
-4
-6
5
12
14
7
-6
0
-10
0
-5
1
6
-4
12
18
9
4
-4
12
4
0
18
10
19
15
9
10
4
5
-1
3
10
6
8
1
0
1
-16
-14
-6
-1
1
11
5
6
-2
-10
-22
-6
-2
6
1
3
2
3
-4
-23
-23
-1
-1
-2
-20
-1
24
15
-8
-16
-27
-13
-7
-1
9
9
7
-3
1
-8
-11
0
0
3
-4
-6
-3
6
-7
-1
-7
17
18
18
18
15
11
10
31
34
31
45
62
72
90
109
117
97
91
87
82
74
45
14
-9
-40
-53
-62
-68
-60
-46
-29
-22
-24
-22
5
5
-3
-12
-24
-12
-6
-15
-6
-2
-3
8
8
0
-14
-9
0
-12
-24
-2
25
18
-2
-18
-21
-7
-5
-2
3
9
3
7
-3
-7
-15
-5
2
-3
15
6
6
16
-2
-12
-12
9
-2
-3
12
7
14
20
16
-2
-9
4
8
6
4
16
19
16
20
8
-8
2
6
7
7
25
23
22
15
9
7
25
31
27
30
22
32
47
43
25
13
39
45
44
55
48
69
55
51
43
43
51
55
68
74
67
64
69
78
57
49
68
73
75
75
80
93
73
57
55
58
54
55
69
71
61
66
55
48
40
27
33
43
51
48
47
39
28
22
6
-8
10
18
15
20
19
21
16
9
-2
-3
0
-1
12
16
16
1
-7
-12
-16
-12
0
-6
6
-2
15
29
8
-17
-18
-13
-18
-7
3
1
20
26
4
-2
-12
-4
1
-4
-5
5
12
8
-5
-10
-16
-22
0
1
2
6
20
11
8
-8
-17
3
-6
-10
1
-2
-9
-1
0
-5
-7
-9
1
3
11
15
13
4
-9
-18
-25
-11
-8
1
3
20
21
5
-10
-10
-15
-4
0
1
13
10
19
12
-6
-12
-11
-7
-1
-2
5
6
-1
-14
3
3
-16
6
7
-4
6
10
10
6
-4
-7
-8
-3
-1
4
1
5
14
-3
-14
-9
-3
-10
-6
4
3
0
21
0
-5
-10
-17
-4
-1
10
-1
-6
13
6
-6
-12
-6
1
-5
-4
10
7
8
-2
-5
-18
-16
-8
5
1
1
5
10
-1
-17
-15
-12
-9
-2
2
6
7
8
0
-7
-14
-12
-6
6
6
0
15
9
4
-3
-24
-7
-7
-4
-5
2
12
13
-5
-4
-17
-10
-2
-12
2
14
19
21
5
-16
-16
-7
-6
6
8
13
17
20
4
-6
-12
-2
8
0
0
19
35
20
13
4
-3
4
8
4
-16
4
20
29
-3
-21
-15
-2
-2
1
-3
3
9
-4
0
-12
-9
-4
-3
0
4
-3
7
5
-8
-13
-17
-8
-12
-19
6
6
14
9
-2
-18
-20
-2
-1
4
-16
-11
15
13
2
-14
-23
-20
-8
5
5
5
15
8
-2
-7
-10
12
20
13
14
17
35
26
20
15
1
32
59
68
79
104
115
89
85
74
83
80
54
45
11
-30
-47
-55
-63
-70
-45
-35
-35
-17
-17
-9
6
2
-13
-28
-20
-7
-3
0
-11
-9
14
9
-20
-21
-7
1
1
-18
-1
18
5
0
-19
-30
-9
12
-1
2
9
4
1
-6
1
-10
-7
-4
-4
3
11
4
5
11
3
-14
3
-4
5
16
14
26
19
11
-12
-9
-9
-5
14
4
-3
21
28
19
7
-6
-4
7
15
26
17
20
23
20
10
-4
14
26
26
32
27
39
45
45
30
26
36
32
34
48
59
74
66
39
37
40
53
51
63
73
62
80
75
68
56
57
53
67
85
87
78
88
82
69
55
67
56
70
62
64
53
74
68
40
28
30
47
45
45
43
37
50
41
16
10
-1
19
16
14
19
16
17
26
10
-7
-7
2
1
3
7
17
20
12
-2
-21
-13
-3
-8
-1
10
17
16
16
3
-12
-6
-1
-7
-4
-11
-9
6
11
6
-5
1
3
0
-9
7
19
9
0
-8
-9
-12
2
3
-9
-2
7
2
-8
-10
-9
-3
3
-1
7
9
17
7
-9
-3
-15
-2
-4
5
3
10
10
17
3
-8
-11
-9
3
1
10
-2
11
0
4
-11
-25
-7
5
2
3
15
24
18
16
-6
-16
-2
3
0
2
10
11
2
4
-17
-19
1
5
11
11
-2
17
4
-4
-7
-14
-7
-4
10
7
-6
8
11
4
-11
-8
-6
-16
0
7
17
16
10
-14
-14
-1
-6
-11
1
9
4
11
14
-3
-21
-12
-4
0
2
5
13
20
-4
-14
-11
-4
0
-6
-3
0
12
21
-8
-15
-15
-1
7
-2
-6
-6
4
5
0
-3
-7
-2
-1
-5
-2
18
9
6
2
-12
-10
-11
-9
4
1
20
20
13
3
-17
-16
2
-8
4
1
6
15
17
4
-16
-21
-6
3
3
-8
9
24
-1
2
-3
-23
-4
3
2
9
11
14
20
7
-3
-2
-5
3
-2
6
23
20
12
10
0
-6
6
16
9
15
23
34
13
5
12
10
10
8
4
-7
-3
21
12
1
-11
-20
8
-1
-4
9
1
10
7
1
-14
-12
-1
-8
-4
3
20
15
5
-7
-15
-6
-1
0
13
13
-4
5
0
-5
-20
-6
-6
-5
5
-3
1
23
-4
-11
-16
-11
-11
-8
-2
16
18
23
21
15
1
1
0
6
29
36
35
54
48
33
34
41
62
85
103
126
119
119
101
98
74
49
19
2
-26
-50
-52
-43
-48
-43
-49
-26
-14
-16
-4
6
4
-7
-14
-1
-10
-10
-7
-8
13
0
4
6
3
-12
-15
-9
3
4
11
7
14
12
5
-12
-18
-4
1
10
9
6
6
3
2
3
-10
5
10
12
8
6
16
10
-3
-23
-3
23
15
6
3
0
25
22
11
3
-7
4
8
17
17
15
21
12
10
6
6
16
25
27
22
22
30
24
15
17
8
20
27
33
19
32
49
44
36
28
33
52
55
57
59
54
53
60
65
50
46
48
53
73
71
72
81
71
61
53
65
61
72
80
77
87
76
82
70
46
52
65
61
68
73
80
65
49
39
32
32
37
42
38
46
57
46
28
23
0
7
26
16
20
6
14
23
10
10
-1
-2
10
9
14
10
14
16
0
-13
-7
-5
1
1
5
10
19
17
8
-10
-13
5
-7
-10
6
12
15
9
-3
0
-10
3
0
4
10
9
20
15
5
-14
-21
0
-10
-4
3
13
18
2
-1
-15
-14
0
7
8
-4
1
14
19
3
-5
-16
-7
-2
11
6
2
18
2
0
-9
-7
-7
-6
3
8
26
33
16
2
-15
-10
-6
-7
4
5
6
23
15
9
-27
-24
-3
5
19
6
18
24
12
2
-14
-14
-9
1
4
15
11
12
-4
12
-13
-8
1
-1
5
2
7
27
14
-5
-14
-15
3
3
3
9
13
18
2
-4
-7
-3
-3
4
2
1
3
24
14
-8
-24
-1
7
14
3
-7
0
12
1
-11
-8
-1
-13
0
9
10
18
19
0
-4
-7
-4
-10
-11
5
14
17
15
14
-4
-15
-7
-6
-11
2
11
11
10
7
-12
-24
-13
5
-3
0
10
20
13
2
-9
-19
-13
2
3
5
7
21
24
5
-6
-21
-10
2
10
19
14
10
28
9
-6
-5
-4
10
-2
12
17
23
19
9
-7
-15
6
14
20
16
30
33
29
7
-7
-10
-3
-4
-3
-1
5
9
-6
0
-13
-11
-6
-10
-1
3
5
18
11
-2
-17
-23
-14
-8
-5
0
-1
3
2
-17
-25
-17
-5
-3
4
-6
6
28
-5
-5
-22
-11
-9
-9
-5
-2
0
10
-7
-14
-18
-12
-6
1
13
12
23
31
16
7
0
16
20
18
32
50
56
72
71
90
101
103
102
100
99
111
93
57
7
-39
-73
-71
-59
-54
-51
-40
-16
-1
-24
-34
-37
-27
-9
-4
-8
-20
2
6
-3
-17
-15
-15
1
-2
-9
-2
1
-2
-3
-20
-21
-17
3
-2
3
5
15
0
-9
-23
-29
-15
-8
4
0
9
7
12
12
-9
-24
-6
1
7
-1
6
10
4
1
-6
-12
-18
-6
8
16
2
13
13
3
2
-3
0
-10
10
17
25
13
17
22
2
-2
10
14
13
21
30
36
32
17
7
12
19
18
28
41
40
49
43
33
37
29
43
47
56
51
57
70
65
58
43
52
59
58
52
70
74
88
80
75
59
52
49
69
71
63
72
80
65
52
32
35
42
47
43
40
63
51
38
22
18
18
12
18
25
24
20
23
15
5
0
-9
3
-1
13
10
12
14
-2
-5
-16
-11
-2
1
10
9
7
4
-6
-11
-33
-8
-5
-5
-6
-14
11
6
-9
-18
-19
-14
-4
1
1
-5
11
11
-5
2
-10
-10
6
0
-10
0
1
7
-9
-17
-13
-11
-10
-7
-15
-10
11
9
8
-2
-19
-16
-7
2
3
-8
2
1
1
-14
-27
-7
-7
5
5
7
14
2
-15
-4
-18
9
-3
-12
-1
3
16
1
-14
-18
-20
-13
-1
-1
6
-5
2
8
-7
-16
-19
-13
-3
5
-5
2
10
-1
-20
-30
-18
-3
3
17
8
-8
1
-3
-21
-22
-3
-6
-2
2
0
8
9
-5
-21
-25
-15
-2
-5
-4
-6
2
11
-7
-19
-25
-28
-13
3
0
11
5
0
-7
-21
-23
-13
-4
2
-3
-3
8
3
-3
-13
-23
-14
-6
-10
5
-1
9
7
-9
-18
-21
-9
-10
-8
-1
-10
-5
8
4
-13
-18
0
-4
-10
2
4
8
-2
-9
-5
-14
-5
4
4
7
11
28
17
8
-9
-15
3
0
-2
2
6
25
15
-9
-16
-39
-18
-1
2
-2
-10
-3
-9
-1
-12
-31
-15
-12
-5
0
3
12
11
-7
-37
-42
-13
-5
8
-17
-5
12
-2
-13
-12
-23
-18
4
5
-16
-8
5
-5
-14
-20
-22
-10
-10
-11
-16
-4
13
9
-3
-10
3
10
14
12
-5
12
24
14
24
13
27
53
54
72
81
96
102
84
78
77
63
43
25
-13
-46
-67
-54
-48
-55
-58
-44
-32
-33
-24
-15
-7
-7
-10
-9
-28
-27
-14
-7
-14
-3
4
8
-2
-13
-23
-24
-19
-13
-11
12
9
10
1
-8
-24
-17
-12
-6
-1
7
16
8
5
-7
-33
-14
-7
-7
-1
10
8
6
2
-8
-13
-5
-1
-14
5
14
16
8
9
-4
-3
0
10
11
15
4
26
14
8
-3
-2
3
12
7
20
25
27
19
21
15
4
25
31
23
33
35
33
35
24
8
12
47
51
57
59
63
68
61
53
34
37
42
54
74
65
71
87
80
68
56
58
64
70
74
82
76
83
69
56
57
59
66
56
63
64
66
64
44
29
13
26
38
28
31
41
34
38
33
15
-18
-2
10
9
17
16
7
20
14
7
-13
-5
-2
3
7
3
3
19
9
-8
-15
-15
2
8
-8
-7
15
8
-6
-10
-3
9
-15
-8
-5
0
6
7
-6
-15
-18
-2
-4
-2
-4
-8
13
17
1
-20
-32
-6
0
-3
-1
6
18
1
-14
-13
-22
-4
-4
-6
9
14
20
13
1
-23
-17
0
-21
-13
5
6
19
19
0
-15
-10
-10
-3
0
-7
12
17
8
9
-7
-21
-11
-7
-15
1
11
23
17
2
-3
-19
-8
-13
-4
5
-1
12
14
6
-14
-16
-9
-1
6
3
5
9
-5
-6
-18
-15
-4
-7
5
2
1
18
6
-16
-22
-14
-2
-1
3
4
4
11
5
-5
-30
-8
-4
-1
-13
-7
5
14
14
-2
-20
-10
-9
-5
0
12
14
3
-12
-15
-18
-8
2
-7
-6
5
14
20
9
-14
-22
-18
-16
-2
2
7
10
14
-7
-1
-6
-13
-3
2
13
4
-2
6
16
1
-14
5
13
7
6
17
26
24
13
-2
-10
-17
2
19
16
0
13
9
-1
-14
-26
-11
-1
-8
3
6
18
5
-9
-17
-29
-8
-6
0
-1
-13
11
12
-2
-14
-16
-15
-8
5
2
-1
3
3
-21
-14
-25
-12
-16
-6
10
9
6
5
-3
-1
-13
-22
-3
14
13
11
35
28
10
4
0
11
23
39
32
41
67
61
63
69
73
88
85
95
95
109
101
74
24
-33
-67
-53
-51
-42
-43
-35
-21
-24
-26
-26
-23
-9
-7
-6
-4
-2
15
-1
-13
-21
-21
-7
-10
9
2
1
2
-3
-14
-21
-12
-7
4
3
0
-3
-1
4
2
-20
-18
-5
4
5
3
8
13
9
-7
-15
-11
-3
6
-5
14
23
11
1
-4
-19
-7
-7
4
10
12
23
13
11
5
-13
-3
-11
11
26
20
21
31
5
-1
-5
11
11
21
22
23
41
39
23
17
5
17
26
31
43
32
51
53
40
35
31
41
46
45
46
58
61
72
61
58
40
48
68
73
68
70
81
73
57
58
57
59
58
67
77
79
74
72
52
46
29
47
44
51
59
47
49
41
34
20
9
25
15
28
37
11
14
24
7
-10
-1
5
0
9
10
-6
19
19
8
-15
-15
3
9
0
5
-1
17
9
-5
-12
-25
-5
-4
1
13
19
11
3
-7
-19
-11
-5
-5
3
8
8
11
-6
-5
-22
-12
2
-9
-2
11
15
15
3
-10
-34
-11
-4
-3
5
11
0
10
-3
-6
-18
-15
-5
3
6
4
18
16
-9
-22
-10
7
10
0
0
-2
4
3
-1
-3
-16
2
-1
-5
-9
-1
11
15
7
-7
-21
-10
-4
4
-1
2
12
9
12
-7
-15
-9
-12
2
12
12
9
0
-2
-5
-11
-1
-6
-2
3
-4
22
23
2
-16
-29
-9
-10
-4
1
-2
11
9
-3
-8
-9
-6
-3
-7
-4
-1
21
17
-5
-32
-18
-1
5
1
8
6
9
2
-10
-27
-27
0
7
4
16
6
16
16
9
-23
-25
-11
6
10
10
2
15
18
2
-17
-10
6
-2
8
14
11
23
10
1
-2
12
8
7
6
12
15
11
-1
-15
-24
-14
-10
-6
8
10
25
12
2
-16
-16
-15
-6
-7
-1
-2
0
20
6
-9
-20
-16
-5
-11
-5
-3
13
10
0
-7
-19
-13
-4
-4
-4
5
7
4
-5
-14
-27
-2
-4
1
8
6
10
10
5
-4
-8
25
16
25
26
26
34
35
32
35
34
53
68
93
97
114
117
108
96
82
77
68
39
0
-38
-51
-48
-45
-44
-53
-49
-26
-10
-11
-14
-19
-2
7
0
-17
-26
-8
-1
-5
11
-1
6
-1
-16
-18
-12
-4
-3
-9
-1
4
15
2
-6
-7
-1
0
-10
3
3
6
13
8
-9
-17
-13
-6
-2
1
2
7
24
10
-14
-16
-6
5
7
10
1
7
12
14
-10
-11
5
3
1
5
13
22
25
17
14
-3
0
10
8
17
21
23
37
20
12
7
6
20
28
35
33
41
45
32
28
2
20
46
49
62
61
61
67
57
53
42
46
59
56
65
67
69
89
71
63
44
62
66
69
65
78
91
77
67
65
61
64
48
51
57
57
63
63
48
34
6
22
34
36
35
32
43
36
16
-2
-4
6
15
11
5
22
24
16
9
-9
-16
-4
7
-5
5
1
19
6
-3
-3
-7
-1
-4
4
-4
2
-1
4
-1
-7
-18
-3
3
10
2
-4
17
10
-6
-7
-9
-1
-4
1
-2
-1
9
15
-14
-18
-14
-6
-4
-5
7
14
13
4
-5
-7
-7
-11
-12
4
6
11
16
8
-3
-16
-16
-14
2
19
10
13
16
2
-9
-19
-10
-3
9
5
5
11
15
3
-5
-10
-13
-8
-5
7
7
-1
8
16
-1
-29
-17
3
7
5
14
12
15
6
-9
-14
-5
8
8
0
10
18
16
19
-7
-26
-7
1
-14
-6
8
18
17
4
-4
-19
-7
8
3
-3
3
26
2
3
-9
-29
-10
3
6
6
7
12
6
2
-10
-16
4
7
2
9
-1
18
13
-1
-5
-11
-7
-7
7
13
16
19
7
-2
-9
-12
-7
-3
-5
5
16
29
19
-6
-5
-11
-2
7
9
17
6
15
23
20
9
3
15
13
11
13
16
15
15
-1
-20
-22
-7
3
-4
10
17
-1
12
1
-18
-8
-21
-16
1
3
2
15
3
-9
-13
-19
-4
-4
-10
-13
-4
18
6
-19
-36
-19
2
8
-3
-1
4
14
9
-10
-16
-15
-16
-4
0
7
-8
4
5
-11
-11
-9
0
13
18
25
28
30
28
22
8
22
37
39
59
70
80
104
125
101
84
98
113
98
76
40
10
-16
-59
-74
-72
-54
-45
-41
-20
-21
-7
-4
-8
-13
-16
-19
-15
-5
3
-6
-2
-1
-22
-6
-6
-5
-5
-12
-4
0
2
3
-10
-19
-28
-6
4
6
3
4
17
3
-2
-11
-21
-9
-11
5
4
1
21
15
6
-11
-22
-6
3
5
1
15
22
15
8
-8
-13
-3
5
11
5
3
21
18
7
-9
-7
6
14
15
13
9
13
30
18
4
5
14
22
23
28
20
47
42
18
14
21
24
39
48
32
43
71
63
48
30
43
57
55
60
74
76
78
67
53
50
57
65
77
70
72
84
81
72
64
50
65
49
48
61
66
69
68
62
42
24
43
54
39
31
28
53
50
24
9
2
6
12
13
19
24
37
22
14
7
-7
3
-5
-1
-5
-3
20
17
6
0
-15
-19
-16
-5
2
4
16
2
4
-9
-2
5
-18
-17
9
-2
13
19
5
-14
-18
-3
0
-13
1
6
15
7
-10
-22
-21
-8
3
7
7
-4
10
14
-9
-21
-21
-10
-13
-7
7
0
22
11
4
-24
-24
-5
-14
-2
4
2
15
8
-3
-14
-23
-11
-6
1
9
17
30
17
-5
-33
-29
-13
-7
6
3
3
14
-6
-8
-6
-8
-10
-6
-5
2
7
15
9
-8
-20
-4
-2
-14
-7
9
6
8
-10
-12
-13
-13
0
1
11
3
0
19
2
-16
-36
-13
3
-2
2
5
3
5
5
-4
-21
-17
-2
2
1
6
-1
-6
-1
-13
-29
-12
1
-5
-7
6
11
19
-2
-1
-30
-19
-6
4
0
-7
-3
17
-5
-13
-18
-8
-6
4
-1
3
11
0
0
-3
-13
1
-10
2
0
-2
11
6
-6
-6
-27
-4
10
8
6
10
25
8
-1
-18
-10
-14
12
10
15
17
24
23
8
-12
-18
2
-1
4
-1
3
16
7
-8
-13
-28
-18
-14
-4
-3
4
11
3
-1
-16
-21
-7
-4
-8
-10
-9
-2
-1
-4
-14
-21
1
-6
