-2
-4
-1
4
10
17
12
-1
-5
2
10
9
5
1
6
3
5
6
7
12
14
9
10
12
11
10
12
10
1
2
16
14
10
10
18
10
6
3
13
18
9
4
7
11
3
2
2
5
2
-10
-8
-1
2
1
2
-2
-1
-6
-5
1
5
-1
1
3
4
5
3
0
6
-10
-10
-2
2
4
3
7
15
-5
-17
-32
-21
-17
-4
15
36
53
65
73
95
105
114
124
122
121
127
125
111
112
81
48
28
19
12
0
-18
-23
-25
-15
-13
-8
-6
-4
2
5
2
10
8
15
12
2
3
15
12
-1
-1
7
9
10
11
11
9
19
16
7
14
10
12
13
14
15
15
9
16
14
18
18
23
21
24
32
18
19
18
25
28
24
25
20
31
33
31
28
26
26
32
36
38
36
40
44
41
38
43
49
46
51
46
41
41
45
50
47
40
44
48
47
47
49
50
54
56
53
43
42
42
35
35
30
28
23
26
23
20
18
16
15
12
13
10
14
11
9
8
6
10
5
-5
4
6
-1
1
-4
-5
1
2
6
10
11
7
-6
-7
-8
0
4
-2
-4
-3
0
-2
-1
0
2
1
2
11
13
11
8
5
-8
-3
-3
-2
-1
2
-3
-3
5
2
0
-4
2
11
6
1
6
0
0
2
1
0
0
-1
11
10
-2
1
2
1
9
17
11
0
4
2
1
-5
-2
1
-2
0
-3
4
13
12
5
-2
5
9
4
-1
7
10
-3
1
5
6
16
12
0
-1
-12
-4
2
3
8
10
-2
-11
-15
-9
-13
-14
-11
-11
-12
-9
-7
-9
-8
-6
-14
-12
-11
-11
-12
-13
-12
-9
-13
-15
-11
-11
-15
-13
-13
-13
-8
-10
-13
-13
-15
-21
-20
-27
-30
-22
-17
-9
17
32
46
60
78
88
96
113
125
127
120
113
117
115
86
54
38
15
-7
-20
-33
-32
-30
-26
-19
-19
-10
-2
-17
-14
-13
-9
-2
-3
-2
-6
-6
-1
-1
2
8
-7
-12
-9
-5
-2
5
6
0
-4
-4
0
2
7
7
8
13
19
9
-4
-2
6
11
11
8
14
9
6
15
23
27
14
5
15
18
18
21
19
19
23
24
25
29
31
38
38
42
32
27
31
34
39
33
34
40
40
40
38
35
43
42
40
43
41
38
41
36
32
37
34
28
29
26
30
23
23
22
16
17
14
10
5
12
0
-1
1
2
4
3
7
2
-11
-13
-7
-7
-6
0
0
-9
-12
-7
-8
-7
-7
-3
-8
-12
-10
-2
-2
-5
-17
-11
-5
-11
-9
-5
-6
-3
-3
-8
-10
-3
-2
0
-2
-11
-3
-5
-11
-8
-4
-4
4
0
-16
-13
-8
-5
-5
-4
0
-6
-7
-4
-1
-5
-9
-9
-7
-7
-4
-4
-4
-2
-2
-4
0
-3
3
9
5
0
-8
-4
0
1
-11
-9
-3
-3
-2
-1
2
1
5
6
4
7
9
5
-3
-4
-7
-3
6
4
4
4
3
6
6
5
5
8
-4
-2
-4
-1
-3
-7
-12
-12
-16
-8
-6
-8
-7
-6
-9
-7
-1
2
8
0
-11
-15
-9
-10
-5
-5
-5
0
-5
-6
-10
-16
-17
-20
-22
-26
-13
-13
1
24
38
50
66
84
101
115
129
137
147
145
135
126
124
105
68
48
41
13
-18
-32
-32
-25
-21
-18
-9
-3
-4
-3
-6
2
8
3
1
8
5
1
0
6
11
5
-3
9
7
8
11
6
7
12
15
13
10
9
11
10
10
11
13
12
22
23
22
20
17
17
16
22
18
17
17
23
20
23
26
26
28
29
36
34
34
39
35
37
43
38
39
37
47
47
45
49
59
51
53
47
41
41
43
50
52
53
57
59
52
47
58
49
52
52
49
45
34
37
38
34
38
36
29
28
22
21
17
19
16
5
12
12
14
9
1
2
7
-1
1
5
1
3
-1
4
4
1
5
5
-3
-4
1
5
8
11
11
-8
-3
-2
-2
1
6
4
10
3
2
1
8
9
9
7
3
10
9
2
7
0
1
3
6
12
1
1
2
10
7
10
8
10
14
9
7
9
6
8
14
14
6
4
3
9
11
0
-4
0
0
5
9
-5
-6
-5
-5
-1
-1
1
4
0
1
8
-1
-6
-6
-4
-7
1
3
4
11
6
-3
1
8
1
-1
6
12
11
5
-12
-11
-14
-16
-9
-10
-11
-7
-3
-7
-6
-10
-13
-11
-10
-10
-4
-7
-3
1
-4
-11
-8
-11
-8
-7
-9
-3
-2
-9
-9
-12
-15
-14
-17
-17
-26
-25
-17
-7
3
26
49
63
80
98
108
119
130
138
125
129
127
127
113
81
41
18
8
2
-13
-31
-25
-25
-17
-14
-18
-12
-3
4
-5
0
0
0
1
-3
-2
-1
0
2
11
16
11
8
2
1
6
1
4
6
11
10
10
16
18
18
14
15
9
7
11
13
17
21
20
19
24
27
28
27
23
20
27
31
28
40
35
26
36
36
37
40
37
43
40
42
42
41
45
47
44
49
51
52
52
45
44
48
49
50
50
49
52
55
47
44
51
46
44
47
45
47
47
46
40
39
36
28
16
21
31
32
24
19
7
12
12
11
11
13
22
19
13
14
12
8
6
5
6
11
10
3
8
10
17
11
12
11
11
5
10
9
8
12
4
7
13
14
13
12
9
10
20
12
12
11
10
13
12
9
18
22
21
12
11
12
9
11
15
21
20
17
15
12
8
22
21
6
-1
10
15
16
14
14
19
20
18
15
19
23
27
36
23
10
14
17
16
16
16
19
20
22
23
21
20
18
22
23
22
21
24
17
20
21
14
19
20
15
18
23
22
14
20
15
18
13
10
16
21
28
10
1
5
9
9
8
6
10
7
9
12
16
18
21
19
15
9
12
14
7
9
7
5
5
2
-3
-5
-2
-4
8
22
39
61
79
93
101
113
127
129
133
145
137
125
123
120
91
60
36
30
22
6
-6
-10
-8
-6
-7
1
9
9
14
18
26
25
15
14
17
21
19
20
22
26
32
38
41
22
18
26
20
20
24
27
24
24
25
29
29
35
36
43
35
27
28
31
34
37
31
36
43
44
43
32
42
33
41
45
43
47
49
49
34
47
49
56
57
51
55
59
60
58
55
55
60
62
62
63
66
67
58
63
70
69
68
61
55
60
61
61
62
58
61
55
57
55
55
50
53
51
39
38
40
36
38
34
30
28
25
25
28
27
28
28
28
39
31
1
-1
7
15
16
18
18
16
14
11
13
14
17
23
23
16
3
10
17
18
14
9
11
13
15
17
17
20
24
32
31
20
10
11
14
14
16
21
22
19
24
26
19
16
15
14
18
22
23
27
23
15
15
21
19
18
19
21
22
27
24
16
23
27
27
27
26
27
18
25
29
21
20
21
23
27
28
23
24
24
25
27
30
24
22
29
31
40
37
27
28
30
27
22
19
16
15
19
17
14
20
19
7
16
18
17
5
14
15
13
12
16
19
19
16
16
18
12
18
16
21
20
15
15
14
16
8
12
15
4
-8
-2
2
8
19
33
55
73
74
90
109
126
138
144
151
150
146
136
140
132
94
64
48
42
15
2
-1
2
3
-2
6
10
13
12
13
14
18
22
24
26
25
23
24
25
34
18
28
26
22
23
18
23
26
24
21
24
26
30
36
37
38
31
24
23
25
31
32
30
33
32
34
33
38
35
39
43
42
40
51
57
39
37
47
51
54
50
47
49
48
52
51
54
57
62
58
52
57
66
65
57
58
67
61
61
62
57
59
58
59
58
57
59
59
59
60
56
50
48
43
43
40
41
39
38
38
34
33
33
31
35
32
25
16
20
18
13
12
16
14
18
19
10
12
11
21
27
13
7
13
13
14
12
13
15
15
4
9
10
13
11
14
22
18
17
18
17
18
8
17
17
12
17
8
6
7
9
13
13
12
12
11
13
8
7
11
12
12
10
12
10
11
11
13
15
16
23
16
11
21
37
49
26
8
20
6
6
15
18
18
12
14
13
15
20
19
17
10
15
19
18
18
17
20
22
10
19
22
22
23
22
13
12
17
11
1
1
11
13
17
24
15
-6
-3
3
7
12
10
8
10
8
8
0
-1
6
12
13
5
3
10
10
10
6
9
0
-2
1
-1
-6
-4
-9
-7
-1
8
24
45
65
85
110
118
124
132
138
151
143
139
144
139
117
78
53
39
30
15
-1
-3
-6
-5
0
2
7
8
14
20
10
11
17
9
9
11
15
13
15
13
15
19
24
30
25
15
17
21
17
14
19
21
22
27
36
19
15
23
15
16
30
31
32
30
28
29
23
23
23
32
39
38
35
36
40
42
33
39
40
46
51
35
41
44
48
50
54
52
49
53
60
64
54
53
55
61
58
63
61
53
56
56
56
58
62
57
55
53
47
52
51
48
49
38
41
38
28
25
28
33
30
24
22
28
22
10
9
14
14
12
8
10
12
10
3
8
11
18
7
5
12
15
12
1
1
3
10
10
13
11
9
-2
5
9
7
7
10
11
7
14
11
12
8
5
8
14
1
5
21
11
4
9
9
6
10
11
12
14
10
16
13
9
8
14
14
2
8
15
19
15
4
6
14
11
10
17
18
11
12
13
17
19
19
21
24
28
13
9
10
15
17
21
20
17
20
17
18
16
14
18
25
24
19
13
14
15
16
17
16
22
14
17
19
18
6
-5
-1
6
10
10
5
2
12
15
6
0
2
5
5
8
10
12
19
21
1
-1
5
13
15
5
3
0
-4
-9
1
-8
0
5
-2
14
40
58
72
90
106
128
142
145
149
154
149
146
145
134
101
62
44
35
25
12
10
-7
-17
-10
-9
-1
5
7
10
12
10
7
16
23
18
19
17
18
20
8
15
12
13
18
19
20
18
21
25
22
25
23
14
27
22
14
22
29
38
31
16
21
29
37
36
37
33
28
32
29
29
33
36
40
39
37
30
37
40
45
46
45
38
50
48
50
52
58
61
56
55
63
61
48
50
59
62
61
63
66
61
66
64
63
56
63
51
52
56
58
53
49
47
50
53
55
59
41
26
25
21
15
28
30
23
23
20
11
2
3
16
22
20
19
10
6
10
10
12
22
17
11
22
23
11
9
13
22
26
16
3
6
18
20
22
20
16
22
11
13
16
18
23
15
14
17
22
21
21
17
20
20
19
22
20
15
14
23
28
21
20
21
25
17
21
27
19
20
25
22
28
20
17
15
24
28
17
17
18
22
28
27
20
26
28
26
28
32
30
31
32
27
31
31
14
19
32
36
29
24
21
22
23
30
28
29
19
17
19
19
14
20
18
21
19
20
26
16
18
22
26
23
28
9
10
16
12
17
12
12
12
19
20
21
19
15
13
11
13
19
5
3
3
0
9
19
28
47
55
66
90
106
119
118
126
135
141
131
133
133
127
102
71
48
35
25
15
6
1
2
-3
-3
10
20
11
11
20
24
16
17
16
21
28
26
30
37
28
22
24
19
28
28
30
27
26
29
29
25
38
43
32
33
38
40
40
43
45
47
44
49
52
54
58
57
58
55
61
57
64
54
50
49
55
60
62
57
61
68
76
70
68
61
63
57
67
71
60
54
59
61
64
62
63
64
69
51
43
49
45
45
45
53
41
25
30
38
39
31
24
20
22
23
23
21
24
28
26
23
19
19
11
16
14
15
20
16
15
13
14
11
9
14
20
26
30
16
13
10
6
13
12
9
16
15
13
15
15
16
19
23
18
31
15
16
21
21
22
15
5
16
16
12
16
18
14
21
22
24
26
16
11
15
11
19
17
25
26
10
17
18
20
23
31
26
20
28
21
16
19
21
25
29
31
25
22
24
25
27
28
21
21
25
27
19
27
22
25
28
24
26
27
22
30
24
14
13
16
24
21
13
6
13
19
16
18
28
21
11
8
12
13
20
11
10
13
13
13
18
20
19
18
18
17
19
18
14
18
14
4
-6
-6
-4
-4
3
15
32
35
50
72
86
99
107
132
145
146
153
156
152
152
151
141
96
58
54
41
17
4
4
3
2
7
12
9
10
21
26
25
20
23
25
26
19
20
26
24
20
20
30
37
24
21
24
19
21
24
23
22
27
31
36
35
30
22
28
34
34
33
31
25
29
27
33
35
33
36
43
45
43
44
43
41
38
40
41
43
52
58
47
46
53
65
64
65
68
54
45
52
59
63
65
61
64
66
63
56
65
62
60
59
57
58
60
60
57
59
55
54
48
44
48
47
49
46
31
37
37
31
23
23
24
25
25
25
20
16
20
16
15
8
10
16
17
17
11
11
11
15
12
9
13
13
15
16
10
12
16
15
10
3
10
19
21
13
5
7
8
10
12
14
11
4
9
11
17
11
15
14
13
16
9
8
13
17
15
18
23
15
13
22
24
15
3
7
11
11
9
14
15
12
13
16
20
16
22
18
21
16
17
16
11
14
14
18
18
19
21
22
16
17
21
18
18
24
18
25
23
12
11
17
10
16
24
25
19
10
16
18
17
20
8
8
19
18
18
16
14
11
14
10
10
13
14
11
13
12
6
12
16
12
0
6
12
11
14
8
13
17
17
3
9
14
12
5
3
6
6
-4
-5
2
9
19
36
51
66
66
79
102
118
130
137
144
149
145
134
136
124
96
73
59
39
28
11
1
-2
-1
1
5
9
10
15
20
20
24
31
26
19
15
19
21
23
26
24
25
28
27
27
29
39
36
33
35
20
23
29
26
23
28
34
35
49
37
22
21
27
33
29
37
38
36
35
34
38
45
44
36
42
44
44
45
48
53
49
56
67
71
58
44
50
57
67
60
61
57
50
61
71
65
65
64
62
60
60
65
65
66
65
64
57
57
57
55
57
56
63
55
48
43
45
38
34
36
37
41
35
32
35
31
23
24
30
32
23
22
27
34
24
19
27
18
11
14
21
14
18
20
19
23
25
18
24
27
21
7
9
13
15
17
17
17
20
19
25
21
18
22
19
21
21
12
16
20
25
18
20
20
26
26
17
17
23
18
18
25
31
25
17
17
20
20
19
22
25
19
20
21
22
25
25
17
24
24
22
30
23
17
21
22
23
23
21
20
15
15
16
21
28
29
27
17
21
29
26
25
25
24
24
19
20
24
35
48
40
19
15
23
21
21
16
22
27
21
17
14
15
13
15
17
19
14
9
11
11
14
18
20
16
9
6
11
13
15
17
13
17
15
18
19
13
12
9
8
16
13
9
2
2
-2
-1
2
15
32
49
60
70
85
102
107
111
128
139
140
141
138
132
133
115
76
57
42
32
14
4
1
5
9
13
12
0
7
12
12
17
19
26
17
9
15
16
24
26
27
33
33
18
16
27
30
19
14
20
22
24
20
23
30
31
30
30
33
31
33
30
31
33
29
30
35
30
29
36
32
36
35
35
39
39
45
48
45
46
49
52
45
46
46
49
52
54
53
55
56
56
59
56
50
54
58
59
59
55
62
71
68
63
59
60
59
51
57
54
50
55
55
49
41
39
41
36
35
32
30
29
22
22
16
19
19
15
20
23
19
19
17
8
1
1
2
3
5
3
4
8
11
19
7
5
3
3
3
5
5
3
2
5
3
5
6
5
7
6
7
9
9
3
9
1
5
9
4
12
8
10
12
3
4
4
6
8
2
5
6
7
9
8
3
5
5
4
11
7
3
6
9
5
4
7
6
7
10
9
15
3
7
6
7
1
2
15
7
-1
2
4
4
5
10
7
0
3
10
10
3
2
10
8
7
6
0
6
7
12
12
9
8
8
8
7
6
7
15
17
18
22
18
12
13
17
14
13
6
4
2
2
5
4
5
3
0
-3
0
2
4
-2
-2
-3
1
-2
-1
-2
3
5
4
8
2
-6
-1
-1
5
8
0
-2
-1
-4
-5
0
0
-8
-10
-14
-12
-7
0
14
30
47
61
74
87
103
123
139
136
133
126
122
121
116
89
56
41
25
11
3
-2
-13
-20
-11
-11
-11
-3
-9
-5
3
5
10
7
1
8
12
4
16
14
10
10
7
4
5
7
7
11
12
13
14
16
16
14
17
23
20
11
10
16
13
16
22
19
18
21
18
18
27
26
22
20
25
25
29
29
29
33
33
39
47
41
34
28
29
30
33
35
41
50
50
47
40
41
41
48
54
52
41
43
47
46
46
46
46
46
49
56
55
41
32
36
33
30
31
32
28
28
24
18
16
16
18
14
11
10
9
6
0
-4
-2
-6
-5
-3
-5
-3
4
2
-12
-12
-10
-6
-5
-10
-11
-13
-3
-4
-5
-10
-10
-12
-11
-9
-9
-10
-12
-11
-6
-3
-7
-14
-19
-12
-10
-1
-7
-11
-12
-10
-6
-6
-6
-12
-18
-13
-12
-7
-14
-13
-12
-6
-8
-16
-13
-9
-5
-3
-14
-19
-12
-13
-19
-15
-13
-10
-17
-14
-12
-11
-10
-14
-22
-17
-14
-15
-11
-7
-9
-18
-19
-19
-20
-23
-19
-13
-13
-15
-15
-12
-16
-15
-13
-11
-11
-14
-13
-12
-13
-10
-5
-14
-9
-1
-6
-12
-13
-4
-5
-7
-9
-10
-14
-17
-17
-16
-10
-9
-7
-7
-9
-14
-11
-8
-8
-8
-17
-13
-10
-15
-17
-18
-18
-18
-23
-17
-17
-20
-22
-18
-21
-23
-21
-19
-16
-17
-19
-24
-18
-17
-20
-25
-19
-18
-19
-15
-17
-20
-26
-28
-36
-37
-28
-32
-26
-19
-1
14
28
41
56
72
86
105
113
120
122
121
112
105
102
78
42
20
12
0
-20
-27
-36
-35
-29
-21
-29
-28
-20
-17
-16
-11
-16
-13
-18
-15
-19
-19
-14
-10
-11
-12
-8
-5
-5
1
1
1
-11
-12
-14
-18
-12
-8
-4
-10
-9
0
3
1
-1
-4
-6
-12
2
4
0
-2
0
1
5
8
5
3
6
16
18
11
8
10
19
21
15
18
22
23
24
21
20
13
16
20
19
18
22
17
26
31
28
30
27
28
35
31
28
22
30
30
28
25
26
33
18
14
13
6
6
6
6
0
3
8
4
-2
-10
-7
-11
-10
-18
-16
-18
-16
-15
-13
-11
-20
-18
-18
-21
-19
-13
-15
-29
-24
-28
-22
-24
-23
-22
-21
-21
-27
-31
-26
-23
-17
-23
-19
-20
-32
-35
-28
-28
-24
-29
-30
-25
-22
-25
-29
-30
-28
-28
-31
-31
-30
-27
-29
-24
-21
-21
-25
-25
-26
-36
-35
-33
-30
-28
-26
-26
-18
-15
-31
-30
-30
-35
-33
-25
-28
-27
-24
-15
-30
-36
-32
-31
-26
-24
-25
-22
-22
-32
-29
-25
-32
-29
-30
-30
-28
-35
-30
-25
-27
-32
-30
-29
-28
-26
-25
-30
-28
-19
-18
-24
-15
-19
-23
-18
-23
-16
-19
-33
-29
-29
-26
-21
-20
-13
-12
-19
-31
-30
-21
-19
-15
-23
-29
-27
-29
-23
-34
-30
-26
-33
-37
-31
-30
-30
-31
-29
-30
-31
-29
-27
-28
-36
-33
-29
-33
-30
-27
-21
-20
-23
-32
-29
-33
-29
-34
-36
-42
-44
-43
-41
-32
-24
-9
9
25
42
57
76
89
110
125
122
117
108
107
103
97
66
38
19
3
-7
-22
-34
-35
-31
-41
-29
-26
-28
-19
-11
-10
-8
-5
-4
-3
1
4
-2
-11
-7
-2
-6
-7
-6
-8
-7
-3
-1
-2
3
-2
-5
2
7
5
3
4
6
4
10
6
1
10
7
2
5
3
13
18
20
15
18
21
7
15
14
17
20
20
21
30
32
35
22
24
32
33
31
32
32
39
46
38
37
42
36
35
36
40
38
39
37
36
39
43
41
37
38
45
48
41
33
27
30
33
25
16
20
14
12
9
9
12
10
1
1
3
1
3
3
0
-5
-11
-11
-6
-7
-11
-10
-2
2
-4
-4
-6
-5
-8
-5
-9
-11
-7
-8
-9
-14
-9
-11
-10
-11
-12
-10
-11
-11
-8
-7
-5
-2
-1
-7
-7
-11
-9
-5
-2
-7
-13
-1
-6
-16
-9
-3
-2
11
1
-24
-17
-9
-9
-10
-9
-8
-4
-6
-3
-5
-5
-1
-4
-8
-8
-10
-12
-9
-3
-6
-10
-5
-4
-1
-7
-5
-8
-3
-3
-4
-7
-7
-2
-5
-7
-1
3
7
-7
-7
-1
-5
-4
1
5
4
2
-1
3
6
13
3
-1
6
-2
2
6
3
5
3
4
7
6
10
16
16
18
10
8
10
12
13
2
-7
-11
-4
-4
-6
-4
-3
1
3
3
3
6
1
-13
-6
-1
2
-2
-1
0
3
5
1
5
0
-1
5
1
5
-7
-13
-12
-8
-4
8
17
16
35
53
72
90
106
123
141
152
157
151
139
138
138
129
88
57
40
33
14
-4
-10
-11
-9
-3
-1
8
2
12
19
19
12
4
8
14
28
30
22
9
9
11
16
22
20
26
30
22
12
20
24
23
34
40
28
26
21
23
31
21
16
18
24
29
24
20
30
32
31
36
37
39
42
43
40
36
40
44
42
46
47
48
55
48
50
54
63
55
50
57
59
61
64
62
61
69
67
63
62
65
64
59
64
64
62
62
60
62
63
62
63
57
57
60
53
54
50
49
40
36
39
37
42
37
34
34
26
26
24
22
24
24
23
24
24
21
16
16
18
19
23
19
15
18
21
23
27
26
21
21
17
20
22
16
15
15
19
19
25
27
28
26
23
19
23
27
32
25
20
33
34
25
19
22
31
29
24
26
25
26
26
28
30
26
27
29
37
33
24
20
20
24
28
29
29
27
26
26
28
33
36
30
28
27
30
35
38
32
32
31
34
27
28
27
26
28
34
31
34
33
37
44
30
31
34
37
40
37
37
36
34
37
36
37
42
44
46
40
43
49
38
34
37
44
41
21
30
32
33
35
39
31
25
25
27
32
30
28
31
26
27
28
29
33
32
35
39
40
23
27
33
30
24
32
38
32
23
24
24
24
24
22
25
34
39
55
71
81
95
112
124
137
149
160
169
171
166
161
146
138
109
77
57
54
43
31
5
-2
8
12
16
19
27
32
40
37
29
34
33
37
42
42
41
46
60
55
46
35
37
43
46
45
45
52
52
54
59
55
49
46
46
47
46
47
56
56
47
51
56
60
61
55
56
60
61
56
62
63
65
67
67
65
72
72
76
81
71
60
71
81
79
75
76
79
79
82
82
84
88
90
90
85
84
87
92
90
89
88
88
86
84
81
79
78
83
79
79
73
70
73
72
65
63
65
66
64
66
63
47
52
52
47
48
47
48
49
47
48
43
45
42
31
40
37
32
39
42
40
36
38
46
44
34
35
42
43
40
48
55
45
29
26
30
36
40
42
41
41
40
37
34
34
39
37
38
40
35
38
42
41
42
45
49
45
43
36
37
41
44
43
42
47
47
50
52
47
43
44
47
43
37
41
45
43
41
41
45
46
45
47
46
47
55
45
46
49
45
47
45
47
43
45
48
50
54
49
45
46
46
42
45
47
48
54
55
56
47
45
47
48
45
48
44
48
51
48
41
44
49
46
46
35
41
45
44
44
34
37
40
33
32
34
39
41
43
43
41
36
38
39
38
41
38
38
40
39
37
32
31
26
25
33
44
58
75
92
113
127
134
143
158
163
173
177
168
168
164
160
141
101
81
65
51
49
31
15
22
26
27
32
35
43
50
38
39
43
51
59
45
43
47
55
51
66
61
42
51
52
61
58
53
52
60
74
84
53
37
44
47
53
63
62
66
63
63
64
57
52
59
73
61
55
52
59
63
67
65
65
74
74
73
69
79
83
72
69
68
76
78
79
81
87
91
93
84
87
93
93
83
87
89
95
98
101
101
92
70
74
83
82
83
85
85
83
76
74
74
73
79
80
71
60
55
57
58
55
56
56
46
46
43
44
40
46
48
47
48
52
45
39
37
39
40
46
41
39
46
43
35
36
46
53
51
35
22
30
33
34
36
38
38
41
39
40
34
34
41
41
36
39
41
39
41
43
40
39
42
41
41
40
44
45
46
47
45
42
40
37
40
39
39
40
39
41
38
38
44
43
38
40
44
41
43
42
43
45
47
53
61
36
29
41
49
44
38
41
44
47
54
48
40
43
47
50
45
33
38
43
43
42
43
45
45
49
50
45
45
47
46
43
42
36
35
44
44
43
34
32
32
31
34
38
39
40
30
31
35
33
36
33
38
38
39
38
38
36
43
43
34
22
17
28
27
18
18
21
21
28
35
44
52
73
91
109
118
126
148
163
170
174
173
171
170
167
160
122
87
76
54
44
35
33
30
22
17
29
34
35
43
41
35
40
43
42
41
38
37
36
40
42
45
40
37
44
47
45
39
40
46
51
54
46
54
55
41
47
55
47
51
43
42
48
56
55
57
52
45
53
60
64
55
57
61
64
63
60
56
60
65
66
73
73
65
73
73
72
78
76
88
82
75
79
81
81
82
89
93
90
72
79
87
85
83
89
89
89
80
73
68
72
73
71
71
67
64
63
61
58
53
56
54
52
52
57
46
46
41
37
41
39
32
30
29
28
32
26
29
29
28
30
29
31
33
31
34
32
26
31
28
23
27
26
25
35
30
28
27
28
30
29
25
29
30
30
33
31
34
36
41
45
38
32
35
23
27
28
27
31
34
37
31
23
26
28
29
29
32
32
33
37
32
32
38
38
30
33
35
35
32
34
32
23
28
31
35
39
36
29
37
35
39
36
33
38
39
32
40
40
34
37
36
33
37
35
33
32
35
35
40
44
44
45
35
28
29
27
28
29
29
30
31
28
20
21
24
25
29
30
32
43
44
24
10
20
21
22
25
24
26
26
27
21
26
25
15
17
12
7
9
10
11
17
35
50
67
78
98
118
132
145
155
157
167
170
166
167
164
142
88
68
60
49
36
22
8
6
9
15
18
20
20
28
33
28
32
32
36
40
27
25
29
27
27
33
37
36
40
43
28
31
34
39
44
43
36
49
32
29
40
44
40
43
41
40
41
42
44
47
44
45
50
55
54
49
51
56
57
56
53
53
56
59
61
62
63
71
78
79
76
63
68
81
83
81
77
77
75
78
77
77
77
77
78
75
79
79
79
79
77
76
70
73
77
67
63
65
62
60
48
51
54
50
46
42
44
42
41
40
39
39
41
32
32
33
30
25
22
25
24
23
27
26
28
26
22
23
23
25
24
21
21
21
24
25
26
23
23
28
22
29
26
21
25
24
25
28
35
44
36
16
18
26
26
25
22
21
24
26
27
29
24
21
23
28
29
28
26
26
33
32
23
25
26
26
27
28
25
38
37
24
25
26
19
19
20
25
41
39
33
33
25
27
29
35
29
32
35
33
28
26
28
38
44
47
31
19
28
29
37
40
36
33
36
34
34
38
29
18
25
28
25
29
35
28
21
22
25
22
18
23
24
22
23
28
28
27
22
28
39
42
18
20
26
15
11
18
19
18
12
8
7
6
8
17
25
44
60
78
93
110
126
136
158
160
168
170
170
171
171
158
115
82
52
50
40
19
2
5
9
21
25
20
24
30
35
29
32
37
34
35
34
34
39
44
41
40
44
32
30
38
43
43
44
44
44
45
46
44
47
52
55
49
54
50
38
45
50
52
56
63
58
50
50
56
62
62
55
59
64
65
67
68
63
55
62
70
70
68
71
76
81
81
80
85
83
72
73
81
85
85
88
92
88
88
96
92
90
98
88
83
76
81
82
81
81
89
68
70
72
68
67
64
59
59
55
55
55
53
51
52
48
42
51
57
58
48
33
32
39
47
42
43
41
39
31
37
39
34
35
36
39
43
43
49
39
31
37
39
41
40
39
44
45
49
53
47
48
56
64
59
35
37
39
49
43
46
48
40
44
49
46
46
54
51
52
56
49
50
46
50
54
53
55
51
50
46
52
54
62
65
56
50
52
60
60
54
55
60
57
65
66
55
48
59
59
59
58
63
65
63
59
58
62
62
68
67
72
73
62
62
71
57
62
66
57
61
66
50
49
52
51
53
54
55
56
63
63
55
56
65
66
33
39
44
45
46
51
51
49
49
53
46
50
58
55
49
42
36
39
43
42
36
27
39
49
62
81
96
108
123
138
148
170
177
180
176
159
152
156
157
122
96
74
65
43
27
20
23
20
28
36
29
30
41
37
44
47
47
49
53
49
50
45
47
51
50
50
52
59
62
63
59
55
57
58
65
62
52
56
60
64
62
68
60
63
67
64
65
62
52
60
67
67
62
66
69
70
70
74
79
84
88
87
80
85
83
84
80
87
83
85
88
91
96
98
103
106
106
91
91
99
97
99
104
101
102
99
104
99
98
96
98
101
102
102
100
90
85
89
76
81
77
73
72
74
76
69
72
71
57
54
55
53
51
54
54
47
48
55
53
53
50
44
49
52
59
61
45
35
42
46
50
52
50
50
52
54
55
43
48
48
49
50
47
46
57
59
54
54
42
45
49
53
57
50
42
49
48
54
58
56
45
41
50
48
49
49
51
55
48
48
54
56
53
54
56
54
53
64
58
54
46
46
53
61
59
53
52
60
60
57
54
54
56
57
58
56
57
62
65
66
65
51
48
57
63
62
61
55
60
58
52
59
53
49
53
51
54
57
57
61
63
44
41
44
44
47
48
50
41
45
42
45
43
43
49
55
49
42
44
39
38
44
46
50
48
41
39
36
32
32
30
31
35
51
70
95
113
111
123
148
166
176
185
190
191
190
191
191
173
141
114
81
74
51
34
30
34
35
35
37
43
44
46
48
50
50
54
58
65
62
50
49
52
57
61
61
66
61
56
64
62
57
53
60
59
62
70
64
63
66
65
64
62
67
72
69
65
70
66
68
61
66
72
75
75
75
75
82
82
64
69
84
81
81
79
79
83
83
88
90
93
95
94
95
92
96
92
92
96
97
108
100
103
98
98
95
98
108
115
104
93
78
87
89
87
85
82
85
81
75
72
73
69
71
69
59
64
62
56
54
51
56
54
50
55
50
48
50
53
44
50
48
42
40
47
53
50
38
31
37
38
41
40
45
46
49
42
42
44
29
45
48
41
45
42
38
45
48
36
42
42
43
44
44
45
42
50
51
35
40
38
40
39
48
43
35
39
38
40
42
45
41
44
49
51
58
55
50
46
36
41
45
45
49
45
51
53
52
58
60
45
47
46
44
48
49
47
50
46
46
50
47
51
56
55
55
51
47
53
52
46
45
39
43
43
49
55
49
40
32
32
38
38
38
36
33
38
44
38
33
38
38
36
36
35
40
40
38
38
39
39
41
35
40
34
33
38
34
18
14
19
21
32
43
67
92
104
109
132
149
161
180
186
185
183
183
171
157
137
99
73
58
47
32
23
17
22
25
30
35
34
43
47
49
51
37
33
38
40
40
44
50
51
46
45
48
48
48
46
49
51
52
52
52
54
55
56
54
55
55
53
61
61
52
55
59
62
58
63
70
68
66
60
69
80
65
63
66
68
65
69
73
75
74
74
79
78
77
77
79
81
84
84
84
86
92
86
84
89
89
88
92
94
95
91
89
94
92
89
87
88
80
79
78
79
82
79
77
74
71
72
73
62
60
62
53
54
56
47
50
51
49
49
45
45
48
50
42
38
37
42
48
38
39
38
37
43
36
31
36
36
37
38
41
41
40
48
38
42
36
37
41
41
32
38
39
38
49
48
42
48
39
36
41
38
42
40
37
38
45
47
45
45
49
44
40
45
45
38
46
48
50
51
42
39
38
43
47
51
51
46
44
44
48
44
47
50
51
55
52
42
50
52
50
49
49
50
46
47
49
51
50
59
52
53
48
49
56
55
49
49
47
44
47
49
48
42
39
38
34
37
41
43
41
41
37
41
41
39
40
36
38
35
40
39
37
35
34
41
44
53
50
29
35
28
21
17
21
17
21
35
48
68
79
89
105
128
143
161
182
193
193
186
186
185
170
152
113
83
73
64
52
42
26
17
15
21
26
32
42
46
45
46
43
42
39
41
46
46
46
45
48
48
47
43
45
47
49
51
51
51
49
53
58
63
48
50
56
51
54
57
57
53
57
60
50
50
52
58
61
58
64
67
61
65
64
62
63
62
65
68
71
74
76
79
77
77
79
80
86
78
77
85
85
85
87
88
87
84
85
87
87
86
90
92
91
88
83
76
80
77
79
78
72
72
70
68
66
58
58
57
60
54
51
46
46
47
46
41
47
48
34
32
34
29
31
35
37
40
41
27
29
36
35
32
31
31
43
41
27
32
37
41
34
30
26
26
29
29
35
38
45
41
33
29
36
34
29
29
35
33
33
39
43
38
31
23
31
33
33
38
30
35
39
34
27
34
40
30
31
29
30
40
39
32
37
41
30
24
32
40
39
43
42
39
28
38
37
30
36
37
40
34
26
32
37
41
38
38
30
31
35
39
39
38
36
36
30
27
36
28
19
27
38
32
21
27
30
16
17
19
13
18
20
14
21
18
18
24
20
11
10
8
9
12
10
13
17
24
24
10
13
15
8
4
-4
-1
-14
-10
-2
7
25
47
63
79
99
114
137
151
152
160
167
161
159
158
140
99
73
45
35
26
14
2
-10
-13
-2
5
-5
11
11
14
16
9
16
6
12
14
19
17
18
22
24
25
18
11
13
10
13
15
18
20
21
14
19
20
18
20
19
28
26
25
21
18
22
24
24
33
33
34
30
35
29
27
28
34
33
38
40
34
37
37
44
42
44
43
47
47
50
53
55
55
52
52
52
53
55
61
58
53
57
59
55
57
63
63
58
52
55
58
58
61
50
40
40
43
42
36
34
33
39
28
17
18
23
18
14
12
17
19
16
14
13
8
-16
1
4
3
3
10
11
8
2
8
7
-3
-1
3
7
4
6
8
4
2
7
7
3
2
2
10
12
4
3
2
3
-2
1
4
3
6
5
6
7
9
7
9
14
17
8
10
9
10
12
7
-3
4
6
-3
4
3
5
1
7
4
7
8
2
1
6
9
13
3
8
2
7
19
13
15
16
16
21
10
2
4
10
11
10
7
9
11
11
13
14
19
12
14
15
16
13
8
7
8
12
12
4
1
0
5
-10
0
4
-2
-5
-2
2
3
-1
0
0
2
4
-1
-5
-5
-7
-2
-3
-3
-1
-1
0
-3
-4
-2
-5
-8
-10
-12
-19
-17
-12
0
18
34
53
73
91
106
124
141
141
149
154
154
160
156
122
74
55
47
28
11
-12
-17
-20
-18
-17
-9
-4
-5
2
13
6
-1
1
6
4
7
6
7
6
12
16
13
10
14
3
10
17
12
11
11
13
4
3
10
9
10
11
14
18
11
11
21
19
17
13
8
17
18
19
26
28
21
22
22
29
35
37
36
33
32
36
34
34
34
33
38
39
36
36
39
39
46
56
54
46
41
43
44
45
45
47
44
50
47
50
52
42
44
41
43
40
36
36
28
30
23
26
27
23
23
20
4
2
8
5
7
8
0
-2
3
1
-2
-7
-3
-3
-5
0
0
0
-7
-7
-10
-8
-6
-7
-6
-2
-4
-11
-13
-11
-6
-5
-6
-13
-9
-3
-1
-5
-12
-4
-6
-7
-3
0
7
0
-11
-3
0
-8
-13
-13
-4
-2
-3
-2
-10
-5
-4
-7
-4
-3
-6
-4
-9
-8
0
3
-10
-7
-5
-5
-3
-5
-2
2
0
-9
-6
3
-2
-4
-4
4
9
8
3
-5
-5
0
4
1
2
3
4
0
-2
1
-2
-1
0
6
9
4
3
3
0
0
2
5
7
-6
-10
-6
-11
-8
-5
-13
-12
-2
-6
-12
-11
-7
-6
-13
-8
-7
-6
-12
-19
-15
-11
-12
-9
-12
-13
-12
-13
-11
-13
-13
-12
-11
-17
-21
-19
-20
-24
-31
-22
-13
-6
14
37
47
66
88
97
110
133
149
148
141
126
132
128
94
54
30
22
13
-8
-22
-30
-27
-29
-20
-19
-10
-12
-3
0
-6
3
2
-3
-7
-9
-10
-5
3
2
4
-3
-5
-1
-5
-6
-1
0
-1
2
5
8
5
4
0
5
1
5
11
11
5
9
7
15
12
14
14
24
20
5
14
17
15
19
15
15
21
23
26
29
24
17
23
28
26
32
32
39
47
41
40
34
36
42
40
37
40
44
48
48
43
37
39
42
39
40
41
36
34
35
35
41
43
32
18
13
13
14
13
15
14
14
7
6
4
0
2
8
3
1
3
-8
-9
-4
-14
-8
-6
1
6
0
-14
-13
-15
-14
-11
-8
2
-1
-4
-2
-22
-19
-13
-7
-4
-3
-7
-3
2
9
6
-13
-12
-4
-3
-2
0
-1
1
-1
2
9
1
-18
-10
-6
-5
-2
1
6
7
14
4
-2
-9
-10
-5
-9
-5
0
-3
-4
2
0
3
3
6
10
-6
-3
1
-1
-6
5
-3
-6
-4
-3
5
6
4
9
15
19
0
-19
-7
-5
1
2
-1
4
-2
0
1
2
5
5
14
10
10
-5
-7
-2
-12
-7
-3
1
-6
-7
-5
-4
2
-6
-11
-5
-10
-8
-9
-8
-10
-11
-16
-8
-8
-8
-5
-11
-13
-11
-11
-8
-12
-7
-5
-8
-11
-21
-23
-21
-28
-26
-18
0
22
8
36
58
65
84
106
122
133
144
130
133
147
132
96
61
34
17
6
-3
-17
-32
-33
-33
-24
-17
-18
-12
-13
-3
0
-8
-9
-12
-10
-7
-7
-5
-5
-3
-2
-3
0
3
1
3
4
11
13
12
5
2
8
-1
1
9
9
11
16
6
6
7
11
12
14
13
10
25
29
21
9
3
18
26
23
27
25
21
21
27
30
22
27
35
36
41
40
42
39
35
38
38
46
53
49
50
44
47
46
41
37
43
46
46
47
48
49
47
46
43
36
27
23
29
29
29
28
22
9
9
13
13
16
21
13
21
6
-1
-6
-8
-10
-3
-10
-8
-5
0
-7
-9
-4
0
1
1
-1
-7
-3
-11
-13
-7
-8
-10
-9
-6
-4
-3
-6
-6
-7
-4
-4
2
10
-2
-20
-6
5
-14
-20
-11
-9
-7
-10
-10
-6
-1
7
-1
-2
-9
-8
-7
-6
-3
-9
-8
-5
-2
-8
-13
-11
-6
-4
0
-4
-1
4
11
-6
-7
-14
-13
-9
-10
-5
3
3
-8
-2
-1
-7
-5
2
1
0
5
8
-4
-9
-6
-5
2
5
4
-8
-5
-3
1
-1
-2
-3
-9
-10
-5
-1
4
2
-13
-15
-6
-7
-14
-12
-5
-2
-3
-9
-19
-14
-10
-15
-15
-15
-14
-14
-17
-13
-15
-16
-14
-13
-12
-13
-13
-14
-13
-17
-15
-16
-14
-17
-22
-26
-32
-35
-34
-34
-37
-22
-15
0
16
31
56
76
79
98
115
113
123
130
130
123
119
114
83
51
32
18
-3
-17
-28
-26
-26
-27
-25
-21
-13
-17
-17
-11
-12
-4
-6
-11
-5
-2
-9
-9
-14
-12
-5
0
-8
-18
-15
-7
-6
-3
-6
-16
-6
-11
-9
-10
-8
-7
-7
-7
0
5
3
0
-5
-1
6
2
-1
6
8
18
11
5
2
6
3
5
7
12
13
16
21
28
21
20
30
26
17
19
23
23
26
26
31
28
29
29
33
37
31
33
29
31
32
35
27
24
27
23
23
22
20
14
17
16
22
22
9
-3
-2
-1
2
-9
-8
-16
-20
-12
-13
-11
-14
-14
-16
-22
-24
-18
-21
-24
-21
-21
-22
-21
-23
-25
-22
-21
-23
-20
-24
-19
-21
-25
-20
-18
-13
-22
-18
-17
-31
-23
-26
-24
-21
-21
-20
-20
-24
-18
-13
-28
-30
-22
-20
-18
-17
-14
-22
-24
-20
-20
-26
-22
-19
-14
-15
-25
-25
-23
-19
-16
-21
-19
-18
-15
-18
-14
-10
-7
-19
-27
-25
-23
-19
-19
-17
-20
-17
-16
-16
-13
-12
-3
-7
-20
-19
-17
-15
-21
-22
-20
-16
-17
-17
-17
-13
-11
-14
-14
-19
-21
-18
-10
-2
6
-10
-24
-16
-11
-14
-22
-24
-24
-26
-27
-24
-19
-19
-20
-22
-20
-26
-17
-19
-23
-26
-27
-24
-28
-27
-28
-26
-27
-24
-29
-26
-23
-20
-12
-16
-30
-38
-37
-34
-41
-54
-48
-42
-37
-34
-18
3
23
36
54
76
89
110
121
118
118
120
122
120
108
72
38
21
8
-7
-22
-34
-35
-31
-31
-25
-34
-31
-27
-27
-19
-18
-19
-21
-23
-24
-24
-21
-20
-17
-17
-10
-15
-18
-16
-9
-5
-2
-2
-13
-25
-21
-16
-11
-11
-10
-7
-4
-4
-12
-11
-9
-11
-7
1
1
-1
0
1
8
11
-1
-1
-1
-9
-1
3
5
5
8
8
10
21
13
15
20
25
23
21
24
20
14
21
26
30
28
27
27
24
28
35
38
34
29
27
34
28
29
24
29
35
13
10
11
15
12
12
15
12
2
-5
-6
-2
0
-3
-4
-6
-6
-19
-18
-18
-17
-15
-13
-13
-8
-11
-18
-27
-21
-22
-20
-19
-20
-20
-16
-14
-13
-18
-20
-11
-12
-21
-20
-17
-15
-11
-12
-12
-14
-24
-22
-13
-12
-17
-11
-4
2
-9
-17
-9
-12
-11
-10
-12
-12
-14
-13
-10
-10
-9
-8
-14
-13
-10
1
-1
-16
-10
-12
-11
-6
-6
-1
2
4
-1
-8
-11
-11
-8
-4
-1
-10
-6
-5
-9
-10
-3
3
-5
-12
-8
-5
-2
-3
-1
1
3
5
3
2
6
7
-5
-9
-2
-5
-1
1
8
10
10
-1
4
8
6
18
11
-2
-8
-7
4
-10
-7
-6
-2
0
0
-6
-5
-9
-11
-11
-7
-7
-8
-4
-1
-1
-8
-11
-2
3
-3
-3
-10
-2
-9
-14
-2
-5
-7
-10
-18
-18
-17
-26
-25
-16
-6
5
26
39
50
60
84
102
128
149
144
151
154
147
145
140
120
96
71
40
31
-2
-23
-15
-9
-11
-15
-5
-4
-4
-3
-3
-7
-3
3
6
9
1
0
4
10
9
4
12
19
17
21
7
5
13
3
2
11
12
18
17
20
12
9
15
21
27
14
10
9
16
15
14
21
23
24
27
23
24
28
30
32
39
33
32
44
52
47
49
45
38
33
45
46
39
45
48
55
50
51
44
51
54
57
56
48
53
53
55
58
57
53
55
60
60
45
44
45
45
42
41
42
37
35
41
33
38
20
14
19
14
12
10
11
13
6
6
5
6
7
9
11
3
7
3
3
7
-4
-2
-1
0
2
4
2
1
7
2
1
2
3
7
1
9
14
3
0
10
13
-4
-6
-2
-5
1
6
8
12
12
8
3
5
4
6
3
5
12
16
16
-1
0
0
3
2
7
8
11
17
15
9
5
6
3
0
7
12
18
11
4
16
18
9
1
4
12
11
11
17
16
20
10
13
18
12
13
7
11
12
16
11
10
12
18
14
12
22
20
18
18
12
10
14
3
3
9
11
11
10
10
3
10
4
6
12
2
2
1
-2
0
-4
3
-2
0
4
8
10
5
5
2
4
2
-5
0
-2
7
9
5
1
-1
-5
-9
-10
-13
-16
-8
3
13
33
53
65
85
93
111
126
134
139
146
133
136
133
125
93
60
39
38
23
-7
-15
-12
-15
-18
-6
-12
-3
2
5
15
10
5
10
10
8
11
8
7
11
14
16
14
19
19
15
19
16
15
14
13
10
13
13
14
16
17
25
27
26
33
16
3
15
24
22
25
28
25
26
27
25
22
18
27
29
36
39
29
29
34
39
36
39
43
43
43
48
55
44
38
42
42
49
49
50
50
51
61
61
72
64
26
39
45
47
41
44
48
41
43
44
44
44
33
30
27
28
25
22
17
23
18
18
35
18
-5
6
5
10
21
1
1
-2
-9
-8
-9
-5
-6
-2
-1
1
-3
-1
-9
-7
-10
-4
-1
2
2
2
2
1
-11
-6
-3
-1
0
2
2
1
-3
-1
1
0
2
3
5
12
18
23
3
-16
-5
1
-4
2
2
3
9
2
-1
2
4
9
8
2
2
4
-4
-5
-2
-1
1
7
4
4
-1
4
2
-2
-3
3
1
12
10
10
1
1
5
5
1
2
-2
4
6
10
10
5
6
8
11
12
17
16
-2
-3
2
-3
2
7
12
11
15
6
5
7
5
6
4
6
-1
-4
-2
-3
1
1
-2
1
3
4
-7
-1
10
-4
-1
5
1
-8
0
7
5
1
-12
-11
-9
-8
-1
-1
-4
-10
-10
-10
-13
-14
-14
-17
-24
-26
-11
-3
18
34
43
60
80
96
116
137
148
159
148
146
137
137
125
91
62
39
28
21
8
-13
-14
-14
-12
-17
-19
-9
-6
-1
0
-1
-2
-1
5
4
4
5
5
11
8
5
4
9
3
4
0
1
13
12
1
8
5
8
10
14
12
13
12
7
2
9
11
15
11
12
16
15
14
17
19
22
20
20
19
25
27
25
26
21
26
30
27
30
35
39
42
35
36
41
43
41
44
43
44
46
47
52
53
45
42
45
48
43
42
43
45
44
45
42
33
35
34
27
26
25
26
20
19
19
12
10
5
5
2
8
12
10
3
-1
-8
-6
-8
-5
-2
-6
-5
-2
-14
-14
-14
-12
-9
-9
-7
-6
-3
5
12
-3
-19
-17
-7
-13
-9
-9
-9
-6
-9
-9
-8
-3
-16
-10
-5
-4
-5
-6
-2
8
6
-6
-9
-8
-11
-4
-3
-9
-10
-5
-1
-5
-10
-11
-4
-1
-1
0
7
-1
-5
-8
-14
-4
-10
-11
-4
-6
-8
-10
-8
-6
-6
-6
-4
-1
1
-5
-1
4
10
8
-4
-6
8
-4
1
-5
-3
-2
-1
0
-8
-1
1
1
2
9
14
14
-1
13
14
-9
-9
-3
-8
-5
-2
-8
-19
-14
-13
-14
-12
-13
-11
-8
-11
-7
-1
-8
-13
-13
-11
-11
-12
-8
-6
-9
-14
-11
-13
-13
-14
-12
-9
-9
-10
-9
-11
-20
-27
-37
-26
-17
-16
3
16
25
45
61
82
98
118
131
135
143
146
137
137
138
105
55
36
23
11
-7
-16
-22
-24
-18
-7
-11
-27
-16
-6
-9
-9
-8
-6
-8
-10
-8
-6
-12
-7
-5
-4
7
3
-3
-3
-2
-9
-3
3
5
-6
-2
-3
1
5
4
0
0
8
4
9
13
4
1
3
10
9
19
13
-1
6
9
10
11
14
14
14
16
26
23
18
23
27
26
21
28
32
31
28
32
30
38
36
33
39
40
36
42
41
36
46
41
45
34
23
26
27
29
28
28
27
26
28
24
23
21
9
7
1
4
2
-2
-5
-7
-7
-9
-9
-8
-9
-10
-6
-12
-18
-14
-13
-14
-17
-19
-20
-18
-18
-19
-22
-18
-15
-21
-25
-17
-12
-11
-18
-28
-25
-21
-19
-17
-14
-18
-22
-22
-20
-21
-18
-18
-15
-14
-10
-10
-17
-7
-18
-21
-23
-23
-23
-21
-20
-17
-16
-19
-19
-14
-12
-15
-14
-12
-10
-21
-24
-17
-18
-21
-15
-12
-10
-5
-3
-17
-26
-23
-19
-15
-13
-13
-11
-10
-20
-15
-11
-15
-16
-14
-13
-14
-12
-11
-11
-12
-10
-11
-6
-2
-3
-7
-7
-5
-12
-18
-12
-6
-13
-15
-14
-17
-14
-17
-18
-20
-22
-20
-16
-9
-13
-21
-18
-10
-21
-30
-29
-27
-20
-20
-24
-26
-26
-24
-22
-22
-20
-18
-17
-20
-19
-22
-22
-24
-22
-29
-32
-37
-41
-42
-43
-37
-28
-10
9
25
41
54
73
86
98
112
121
128
126
122
124
122
93
65
32
10
3
-11
-14
-16
-32
-39
-34
-26
-30
-25
-20
-21
-20
-19
-16
-15
-15
-14
-13
-10
-6
-6
-9
-19
-12
-15
-20
-18
-17
-11
-7
-6
-8
-18
-14
0
-8
-8
-1
2
-13
-13
-7
-8
-6
-5
-1
6
-7
-6
4
10
8
2
1
4
9
6
12
13
14
14
15
10
12
19
24
30
17
14
21
30
33
24
23
25
28
34
28
28
32
31
32
37
36
23
18
21
24
24
24
24
19
13
12
11
10
8
8
8
5
3
7
-2
-14
-11
-15
-12
-5
-4
-16
-23
-19
-22
-24
-24
-17
-20
-22
-22
-25
-27
-25
-23
-23
-23
-25
-25
-25
-21
-14
-24
-26
-14
-10
-24
-32
-37
-34
-28
-22
-20
-18
-8
-23
-32
-24
-25
-27
-24
-19
-24
-24
-22
-21
-19
-21
-16
-18
-16
-14
-21
-21
-22
-27
-20
-22
-20
-19
-17
-12
-10
-17
-28
-24
-16
-12
-15
-13
-14
-20
-21
-16
-15
-9
-10
-18
-29
-16
-14
-18
-15
-18
-17
-15
-9
-6
-5
-5
-5
-21
-19
-12
-15
-10
-15
-15
-13
-13
-7
-7
-8
-9
-10
-17
-19
-19
-23
-22
-17
-21
-21
-19
-21
-18
-18
-24
-16
-18
-15
-10
-22
-26
-26
-20
-26
-18
-19
-21
-18
-13
-26
-22
-18
-34
