-164
-67
-36
-29
1
17
101
84
7
-84
-168
-78
-49
-27
-3
10
105
85
-6
-110
-181
-87
-57
-17
-3
-2
105
81
-4
-94
-178
-85
-58
-26
-2
3
106
71
-12
-91
-178
-89
-70
-21
-8
6
123
71
-16
-130
-170
-67
-70
-23
0
13
105
55
-39
-132
-155
-72
-73
-9
6
5
120
61
-45
-156
-150
-73
-63
5
8
10
121
50
-55
-147
-135
-62
-61
5
1
21
118
33
-65
-157
-112
-59
-66
-7
12
38
109
35
-70
-169
-115
-64
-49
12
1
47
110
16
-75
-163
-104
-64
-50
1
8
59
101
17
-82
-178
-97
-52
-47
6
14
68
86
7
-89
-168
-86
-59
-37
-6
4
82
77
-1
-85
-165
-87
-57
-42
-3
11
96
82
-1
-91
-177
-94
-52
-30
-7
19
107
71
-2
-92
-175
-78
-52
-38
-1
5
116
75
-4
-92
-164
-79
-50
-29
-5
14
119
77
1
-79
-162
-65
-60
-21
2
15
124
79
-20
-97
-165
-66
-65
-13
5
11
114
68
-29
-135
-172
-70
-65
-5
2
12
129
52
-39
-150
-155
-70
-74
4
-1
3
112
50
-56
-154
-138
-64
-63
12
20
9
102
39
-66
-159
-135
-71
-64
-10
8
26
110
28
-64
-166
-122
-67
-44
5
4
47
106
26
-64
-140
-68
3
46
109
144
234
308
255
160
81
164
203
191
190
151
163
118
8
-117
-205
-124
-85
-70
-42
-41
53
62
-17
-121
-199
-113
-73
-55
-28
-4
84
84
2
-82
-169
-76
-53
-37
0
8
107
91
-3
-83
-164
-68
-40
-25
8
15
124
88
2
-82
-164
-77
-40
-15
16
36
134
105
16
-70
-152
-49
-30
-15
6
21
132
99
11
-58
-138
-35
-29
4
32
48
151
108
5
-93
-113
-16
-23
44
72
63
170
121
23
-85
-96
-8
-2
73
88
83
173
127
37
-64
-56
22
31
87
87
100
202
140
42
-55
-33
35
44
105
107
120
216
144
38
-53
-19
43
43
89
94
117
187
108
9
-92
-39
9
11
63
71
104
158
67
-32
-121
-67
-19
-3
29
31
83
113
48
-50
-141
-76
-45
-36
16
23
97
108
26
-74
-150
-72
-39
-22
5
21
99
91
14
-73
-153
-67
-43
-37
4
20
110
101
11
-81
-162
-69
-36
-26
2
21
118
97
7
-85
-153
-63
-37
-32
-9
22
119
90
7
-80
-164
-57
-49
-32
3
18
124
91
9
-89
-159
-53
-49
-8
6
18
134
94
-3
-110
-159
-55
-60
-2
14
23
133
81
-11
-116
-144
-67
-64
4
4
11
127
81
-31
-141
-146
-57
-53
9
15
26
126
56
-48
-142
-126
-62
-55
4
5
22
114
61
-42
-140
-110
-50
-40
21
20
48
122
37
-57
-151
-104
-47
-31
8
8
55
110
24
-67
-148
-97
-45
-41
12
16
62
115
26
-62
-159
-90
-38
-35
1
12
91
102
17
-70
-149
-81
-44
-22
23
25
103
114
25
-59
-149
-60
-23
-23
7
13
103
97
16
-76
-155
-67
-39
-21
-1
15
110
93
10
-82
-166
-79
-41
-33
-9
5
108
84
5
-86
-173
-62
-49
-24
3
15
116
81
-5
-93
-168
-64
-55
-19
-1
11
129
84
-9
-108
-178
-70
-60
-15
13
12
112
72
-19
-127
-162
-66
-69
-12
7
13
139
101
22
-51
-46
81
118
198
214
250
369
314
219
112
90
120
58
55
13
-18
81
16
-71
-181
-169
-106
-86
-29
-15
9
96
20
-73
-176
-128
-65
-52
-2
10
52
118
22
-72
-149
-97
-54
-37
-2
12
70
118
38
-65
-155
-89
-40
-27
11
21
93
122
34
-56
-142
-70
-41
-22
12
33
108
116
30
-60
-152
-66
-34
-12
24
35
118
122
41
-64
-139
-52
-16
6
30
47
143
129
51
-40
-128
-40
-7
13
56
69
157
143
58
-14
-103
-18
15
43
72
87
188
162
64
-8
-90
7
33
55
86
97
200
163
75
3
-83
24
49
71
95
101
192
159
62
-36
-91
7
6
58
72
76
186
131
27
-95
-104
-2
-26
41
48
39
142
97
-28
-125
-115
-33
-37
21
12
26
131
54
-38
-146
-119
-55
-47
12
-6
16
136
59
-55
-154
-106
-55
-48
11
19
45
121
31
-69
-166
-104
-59
-46
-2
4
62
117
24
-69
-159
-92
-54
-44
-4
18
69
115
16
-77
-169
-87
-45
-31
2
11
87
107
18
-80
-160
-95
-49
-43
-4
11
92
89
8
-83
-163
-84
-51
-30
1
7
98
91
4
-93
-173
-71
-52
-16
4
23
105
75
-5
-84
-170
-76
-51
-34
-18
1
107
77
-14
-85
-171
-74
-53
-28
-4
11
109
73
-18
-91
-170
-76
-63
-39
-13
2
97
74
-23
-126
-176
-67
-63
-19
1
13
100
44
-45
-142
-167
-78
-64
-12
-1
-7
105
50
-38
-148
-158
-73
-72
-2
9
12
111
39
-72
-164
-145
-81
-65
-4
-1
16
110
29
-77
-163
-132
-65
-48
6
6
31
116
36
-68
-162
-109
-57
-51
-19
-8
41
101
9
-90
-176
-113
-70
-64
-14
-13
53
100
13
-84
-182
-114
-68
-49
-20
-6
69
79
2
-87
-175
-105
-61
-52
-16
-5
71
79
-13
-94
-181
-102
-65
-48
-11
0
68
64
-13
-106
-191
-107
-61
-44
-20
-6
84
64
-12
-96
-194
-103
-65
-42
9
38
162
157
95
38
-19
103
146
192
241
256
356
316
196
72
-75
-36
-67
-66
-51
-42
61
33
-60
-152
-220
-122
-107
-61
-26
-20
93
46
-42
-143
-183
-81
-78
-26
-13
-8
101
52
-52
-152
-161
-73
-72
-6
-4
4
116
53
-61
-149
-130
-58
-71
-3
5
6
109
51
-47
-155
-123
-59
-46
4
16
47
127
43
-50
-147
-101
-50
-37
19
27
69
138
55
-49
-141
-86
-31
-6
28
36
95
139
48
-42
-129
-59
-13
-1
40
55
129
166
72
-15
-110
-43
-2
24
63
81
156
167
83
-3
-86
-11
24
37
74
82
172
175
82
2
-85
-2
31
48
77
89
186
170
70
-10
-101
-9
18
38
53
57
149
129
41
-47
-131
-40
-22
-6
15
22
122
90
7
-69
-143
-58
-49
-32
-12
13
108
76
-10
-88
-178
-77
-65
-24
4
-3
111
67
-25
-128
-175
-67
-79
-19
1
5
107
60
-38
-144
-163
-71
-72
-1
6
-1
108
52
-50
-151
-146
-75
-67
7
5
3
116
47
-58
-157
-132
-62
-56
0
9
20
109
33
-68
-161
-122
-60
-48
2
10
40
110
27
-69
-163
-111
-66
-57
-5
8
57
104
26
-68
-154
-99
-60
-45
-3
8
69
106
18
-83
-170
-102
-48
-44
-10
5
79
99
18
-80
-169
-90
-52
-38
-11
-2
91
94
13
-80
-175
-94
-56
-43
-5
3
93
84
0
-86
-162
-74
-60
-36
-10
1
99
69
-12
-94
-175
-77
-60
-31
-13
1
101
79
-8
-95
-174
-80
-59
-34
-13
-1
110
84
-2
-96
-179
-72
-67
-27
-5
3
118
69
-12
-102
-168
-75
-76
-22
1
4
116
60
-25
-132
-163
-64
-66
1
9
14
128
68
-44
-130
-139
-53
-56
7
12
11
122
61
-42
-150
-136
-67
-57
1
12
8
103
39
-59
-156
-133
-60
-57
-4
9
39
112
26
-72
-161
-121
-69
-52
-1
7
57
113
20
-71
-166
-107
-59
-53
-11
5
68
114
25
-85
-165
-100
-61
-48
-5
7
75
102
17
-92
-160
-89
-57
-42
-8
-10
75
104
31
-53
-110
-1
50
100
162
196
306
324
251
162
94
173
175
142
114
54
103
50
-44
-122
-203
-112
-86
-69
-37
-25
83
57
-31
-115
-189
-89
-66
-37
-8
11
109
73
-10
-92
-169
-72
-55
-21
-6
5
119
81
-15
-93
-167
-61
-50
-10
18
11
120
85
-13
-114
-151
-58
-52
10
15
20
133
75
-22
-122
-136
-51
-36
24
28
34
139
73
-19
-122
-118
-36
-32
39
44
47
153
84
-12
-116
-84
-22
-20
52
62
83
165
80
-17
-104
-52
5
18
73
71
110
180
104
14
-71
-13
22
33
84
91
144
200
119
23
-81
-18
32
45
89
103
167
195
114
16
-73
-5
36
54
91
97
152
158
72
-22
-98
-28
5
15
43
54
131
132
48
-53
-133
-53
-19
-6
13
25
111
92
16
-69
-150
-69
-38
-25
7
14
119
97
8
-92
-163
-65
-38
-18
7
2
106
85
4
-91
-168
-73
-45
-12
2
8
115
79
-4
-87
-157
-68
-67
-30
13
22
126
77
-6
-105
-164
-60
-61
-15
6
14
124
73
-23
-130
-145
-66
-53
18
25
19
118
61
-31
-146
-137
-62
-52
7
13
27
129
58
-46
-147
-125
-55
-49
9
21
34
124
43
-49
-148
-109
-59
-42
7
12
48
124
42
-59
-156
-101
-53
-39
17
20
61
124
26
-67
-153
-98
-61
-37
4
6
74
106
28
-69
-154
-94
-53
-46
-2
10
85
109
25
-76
-158
-71
-53
-33
2
5
90
90
9
-73
-157
-71
-49
-28
-4
20
97
83
11
-86
-169
-81
-45
-27
-5
11
112
92
16
-86
-163
-80
-45
-36
4
11
112
79
-2
-91
-165
-65
-41
-15
6
6
111
87
5
-84
-157
-54
-63
-22
-7
5
117
75
-8
-100
-150
-51
-48
0
37
22
125
81
-29
-121
-151
-51
-48
-6
8
27
128
70
-41
-145
-144
-56
-59
9
17
10
120
57
-47
-148
-135
-58
-52
6
14
15
118
49
-51
-142
-115
-60
-49
0
5
34
112
43
-56
-158
-113
-66
-46
0
6
69
114
32
-66
-161
-105
-57
-38
-2
5
68
110
25
-91
-170
-90
-45
-19
45
71
167
224
154
91
29
116
171
204
254
289
342
326
196
41
-100
-72
-80
-78
-42
-22
61
54
-27
-115
-199
-102
-68
-52
-17
3
96
86
-2
-89
-171
-81
-46
-28
-3
20
112
82
2
-90
-159
-70
-44
-14
1
17
121
94
13
-70
-166
-58
-43
-3
9
11
126
102
9
-72
-144
-44
-39
1
31
16
136
85
-4
-107
-140
-43
-44
17
35
42
147
92
-8
-106
-117
-20
-23
51
55
52
163
112
1
-108
-93
-9
-3
53
66
74
181
108
22
-77
-51
15
19
82
79
106
199
126
22
-70
-31
31
38
95
101
134
209
121
22
-65
-12
36
51
97
100
155
195
101
13
-81
-17
30
25
64
65
139
162
70
-30
-122
-51
-15
4
35
43
111
125
34
-63
-151
-70
-35
-28
5
21
106
91
18
-68
-146
-72
-40
-10
6
11
93
95
-1
-75
-162
-76
-47
-24
2
12
114
90
6
-81
-173
-76
-45
-21
0
13
117
88
-2
-85
-175
-64
-60
-25
-7
16
130
85
4
-84
-167
-71
-57
-23
3
20
117
78
-14
-118
-158
-67
-64
-7
10
25
129
65
-20
-127
-143
-65
-74
-7
2
9
115
57
-33
-131
-139
-60
-51
10
16
15
120
57
-52
-152
-128
-55
-46
10
14
24
118
49
-59
-148
-111
-62
-54
-1
12
48
111
31
-67
-156
-101
-50
-43
-2
11
61
109
23
-69
-163
-79
-46
-44
-7
4
62
105
12
-81
-165
-95
-52
-34
-2
10
70
101
22
-75
-162
-86
-49
-34
9
8
82
89
1
-85
-166
-75
-46
-30
1
7
96
88
5
-74
-174
-87
-47
-38
-6
10
102
81
-5
-90
-172
-71
-47
-25
-8
15
106
81
0
-93
-175
-74
-52
-17
-2
19
113
77
-7
-95
-171
-58
-53
-18
-8
4
119
74
-13
-114
-168
-49
-54
0
10
11
126
82
-24
-125
-145
-48
-55
12
6
0
116
65
-41
-148
-153
-66
-62
13
5
8
118
47
-50
-154
-128
-59
-73
0
12
23
113
38
-60
-155
-115
-74
-54
-1
11
36
111
36
-61
-163
-108
-59
-52
-10
5
52
116
30
-78
-166
-106
-59
-44
1
9
68
96
19
-83
-170
-94
-38
-14
42
79
172
209
152
94
24
118
182
204
256
268
334
295
160
12
-122
-82
-86
-77
-37
-19
49
30
-35
-119
-198
-104
-73
-45
-25
-1
89
72
-14
-97
-173
-74
-46
-26
-10
8
108
83
-4
-88
-166
-63
-50
-22
8
16
122
87
-3
-89
-155
-64
-54
-13
7
16
125
92
2
-90
-145
-47
-44
7
24
29
138
88
-13
-111
-140
-39
-42
19
42
46
141
91
-6
-117
-119
-29
-12
50
42
46
154
97
3
-98
-80
-7
-9
69
82
78
178
102
9
-85
-61
5
27
82
86
113
192
123
30
-68
-29
30
44
96
104
155
201
117
21
-65
3
36
54
103
100
167
196
105
5
-81
-16
23
34
57
72
140
152
67
-18
-112
-47
-14
2
33
48
126
138
37
-58
-154
-66
-33
-14
7
30
112
100
26
-65
-146
-62
-37
-21
10
15
116
93
24
-79
-159
-72
-35
-14
19
8
130
88
13
-79
-166
-55
-34
-18
9
36
115
90
6
-83
-171
-62
-52
-16
9
21
128
87
0
-92
-166
-54
-50
-5
21
25
134
89
-11
-115
-150
-50
-45
4
13
22
135
82
-20
-121
-133
-52
-45
17
19
25
138
73
-21
-138
-125
-35
-48
16
14
25
129
56
-29
-148
-126
-54
-40
14
19
42
126
60
-38
-144
-101
-44
-37
16
22
75
123
40
-58
-152
-90
-40
-38
13
19
74
124
40
-58
-156
-105
-54
-40
6
26
90
122
32
-64
-163
-69
-43
-33
11
14
85
97
16
-81
-153
-71
-33
-25
9
24
107
102
19
-70
-156
-76
-52
-28
3
23
104
103
14
-83
-165
-67
-32
-8
11
18
113
88
12
-78
-156
-63
-43
-23
6
18
117
86
-1
-82
-147
-53
-46
-14
2
14
120
94
5
-75
-148
-44
-41
-1
20
18
136
89
-1
-112
-149
-55
-46
11
13
22
125
79
-26
-136
-143
-59
-56
16
8
15
130
75
-29
-151
-138
-53
-50
14
22
27
126
50
-55
-152
-114
-46
-47
14
19
29
123
48
-58
-158
-105
-49
-33
24
11
54
117
38
-52
-148
-92
-55
-43
19
25
73
135
32
-69
-154
-81
-17
14
79
119
204
270
187
123
62
154
213
225
279
264
297
250
109
-40
-187
-114
-68
-56
-14
-8
63
72
-10
-101
-180
-96
-63
-40
-10
2
93
91
12
-76
-155
-67
-41
-27
1
18
117
101
12
-74
-152
-56
-30
-17
25
32
132
107
10
-67
-144
-61
-20
1
19
39
144
101
16
-57
-139
-41
-32
11
31
31
155
102
11
-88
-122
-17
-14
26
43
47
155
110
17
-91
-109
-29
-19
56
55
69
180
123
14
-87
-80
3
6
66
76
88
202
135
31
-76
-44
23
24
89
96
119
206
140
33
-51
-14
46
53
101
111
142
211
132
37
-60
-7
56
60
94
100
155
203
121
20
-78
-14
14
24
67
83
144
164
76
-14
-109
-46
-10
12
28
39
117
131
42
-50
-132
-45
-15
-7
18
24
114
124
31
-58
-141
-56
-46
-20
18
26
121
114
23
-67
-150
-58
-32
-9
19
37
126
94
8
-70
-142
-52
-22
-2
18
29
130
110
17
-78
-151
-43
-26
-11
5
23
131
101
17
-66
-151
-49
-29
3
17
27
134
90
4
-95
-143
-33
-44
10
23
26
134
90
-4
-110
-127
-41
-47
19
28
28
152
97
-19
-125
-128
-36
-38
29
28
28
147
83
-25
-132
-117
-43
-36
33
27
49
142
68
-34
-155
-102
-43
-37
30
26
71
142
61
-49
-142
-91
-38
-33
12
24
78
135
56
-45
-136
-77
-31
-19
18
19
90
140
55
-51
-147
-68
-28
-8
28
32
109
125
40
-47
-130
-50
-16
9
51
40
120
128
48
-49
-145
-45
-17
-4
25
41
137
117
28
-60
-149
-56
-27
-11
15
42
135
116
31
-67
-150
-58
-23
1
24
18
131
114
19
-68
-149
-54
-25
-7
22
27
139
104
14
-67
-151
-46
-31
2
19
41
148
101
1
-92
-153
-49
-43
4
30
36
155
82
-14
-112
-150
-48
-45
20
18
39
154
118
22
-50
-35
80
107
203
225
244
365
308
203
89
82
115
66
84
46
12
109
32
-73
-165
-134
-67
-65
-12
-7
22
107
24
-56
-164
-109
-50
-29
7
24
74
130
54
-40
-136
-78
-29
-20
26
35
84
127
47
-52
-144
-83
-38
-17
34
45
117
135
52
-40
-137
-60
-21
-10
34
44
125
132
50
-47
-133
-54
-11
-1
39
53
142
133
51
-42
-126
-31
-4
-1
39
50
165
152
65
-27
-107
-17
21
37
66
78
175
149
63
-4
-94
7
44
65
89
100
212
183
98
7
-70
26
49
87
105
111
220
183
107
9
-72
39
45
95
120
121
232
183
81
-30
-60
40
38
86
88
96
195
138
42
-58
-68
15
2
76
73
63
179
108
1
-110
-93
-8
-8
41
44
53
149
78
-31
-130
-106
-30
-18
39
45
53
144
77
-40
-132
-87
-32
-25
22
37
76
149
54
-34
-128
-71
-36
-20
22
28
94
141
54
-44
-133
-59
-35
-17
23
28
99
114
60
-38
-133
-61
-17
1
31
34
114
125
41
-45
-141
-45
-15
-7
13
37
121
112
29
-62
-140
-53
-22
1
29
30
130
108
22
-62
-141
-54
-11
4
23
37
134
120
26
-64
-141
-48
-9
6
22
33
138
98
15
-71
-151
-44
-29
3
24
14
130
96
12
-75
-150
-47
-38
-5
26
28
137
96
5
-107
-140
-42
-43
15
25
21
143
93
-7
-112
-129
-33
-41
22
22
27
143
83
-18
-124
-113
-33
-36
30
24
43
151
73
-25
-130
-86
-29
-24
17
23
58
149
79
-26
-142
-97
-41
-30
30
23
68
140
58
-46
-142
-79
-39
-22
27
26
74
130
50
-51
-132
-71
-37
-23
16
27
79
116
34
-64
-146
-70
-42
-29
15
16
112
125
31
-78
-153
-67
-27
-18
16
18
116
107
21
-70
-153
-69
-19
-20
14
24
121
104
29
-60
-127
-10
32
83
124
163
291
294
219
160
87
185
227
236
228
190
221
131
4
-107
-191
-97
-66
-36
-20
-7
99
52
-33
-115
-171
-64
-59
-14
2
12
127
87
-7
-118
-153
-48
-46
15
31
23
127
79
-15
-111
-131
-36
-34
28
37
30
150
89
-26
-125
-122
-33
-44
38
41
42
145
83
-21
-114
-85
-15
-15
22
28
61
152
76
-17
-121
-90
-12
2
54
49
88
171
83
-20
-121
-53
-1
11
63
77
126
181
91
-10
-98
-26
20
34
76
87
156
190
105
17
-73
-6
41
58
95
114
183
176
102
22
-69
18
48
55
99
109
188
194
115
13
-81
14
53
70
81
96
184
174
85
-6
-83
-2
25
43
65
66
156
134
46
-44
-141
-39
6
5
34
43
140
98
14
-67
-144
-50
-22
-3
8
25
124
96
1
-78
-164
-61
-48
-6
17
21
130
94
-3
-96
-149
-42
-44
14
14
14
133
85
-16
-121
-146
-47
-48
22
10
20
136
82
-14
-127
-124
-53
-53
16
15
24
121
57
-39
-135
-112
-45
-41
23
6
25
129
56
-55
-154
-106
-60
-45
2
19
53
126
44
-54
-150
-104
-49
-30
24
20
70
119
47
-45
-143
-90
-54
-34
2
17
72
114
31
-67
-159
-83
-39
-24
5
15
101
98
16
-70
-158
-72
-56
-25
7
9
103
109
20
-92
-163
-75
-33
-29
-1
17
105
105
12
-74
-149
-74
-52
-30
7
18
115
95
13
-72
-150
-41
-22
-20
0
18
127
94
3
-82
-152
-49
-37
-14
8
16
119
71
0
-89
-168
-61
-45
-16
-2
15
113
73
-14
-109
-169
-56
-56
-15
-1
1
112
82
-36
-135
-178
-73
-72
-2
15
15
123
61
-48
-144
-140
-67
-61
-2
9
14
124
56
-50
-152
-137
-64
-56
10
8
15
124
41
-56
-164
-131
-56
-48
23
30
85
201
150
67
0
80
128
170
244
247
318
376
267
127
-22
-25
-25
-62
-37
-14
31
67
-23
-114
-197
-124
-74
-63
-17
-4
68
98
28
-81
-168
-93
-60
-34
-2
13
93
99
12
-79
-160
-82
-46
-30
7
15
99
94
22
-76
-155
-63
-32
-12
14
27
117
104
26
-70
-160
-64
-30
-8
18
29
129
96
22
-65
-148
-52
-23
2
21
42
140
115
21
-66
-132
-23
-22
22
28
56
167
124
39
-65
-135
-21
-3
38
66
68
176
136
34
-73
-102
13
8
72
88
87
196
159
49
-59
-63
21
21
99
102
101
210
149
48
-50
-37
44
20
78
95
103
195
141
26
-79
-48
20
18
65
60
88
173
89
-21
-124
-77
-21
-11
41
44
98
135
50
-50
-153
-92
-46
-31
17
26
82
126
32
-63
-154
-85
-40
-33
5
19
92
110
30
-72
-167
-100
-56
-27
-1
10
93
102
16
-80
-163
-76
-48
-30
1
18
101
96
13
-73
-156
-79
-51
-24
1
1
113
83
8
-90
-168
-73
-40
-24
2
14
119
91
16
-71
-167
-83
-55
-27
5
10
116
92
-1
-86
-162
-68
-46
-33
0
25
133
88
-13
-85
-161
-67
-65
-20
14
5
127
89
-17
-121
-153
-62
-62
-5
9
18
118
70
-26
-137
-146
-61
-59
19
17
18
116
60
-44
-151
-135
-52
-57
15
10
26
132
55
-50
-162
-118
-58
-41
2
1
30
118
56
-60
-149
-108
-52
-41
-2
8
51
115
41
-65
-155
-96
-51
-40
13
10
77
129
35
-55
-141
-76
-35
-22
8
17
92
125
40
-63
-142
-78
-33
-27
-10
0
93
94
22
-82
-177
-80
-42
-28
5
17
93
101
21
-71
-155
-82
-53
-35
-5
17
102
97
4
-88
-171
-68
-45
-26
10
27
121
86
-3
-91
-159
-68
-46
-30
-7
18
117
75
-5
-89
-166
-80
-54
-23
-12
6
122
79
-6
-87
-159
-41
-20
35
80
108
248
235
149
71
62
180
194
262
271
252
321
214
42
-120
-169
-99
-99
-34
-27
-16
100
44
-60
-164
-158
-79
-72
-5
-3
16
123
57
-59
-158
-124
-55
-52
-2
18
40
129
38
-59
-148
-118
-56
-40
19
17
65
134
45
-52
-138
-90
-44
-28
15
30
75
126
45
-59
-141
-75
-24
-9
41
38
106
130
46
-43
-135
-63
-34
-2
30
50
134
136
49
-39
-118
-40
-5
4
44
46
144
137
57
-24
-106
-20
21
32
62
69
168
157
72
-17
-88
1
40
53
81
96
198
171
100
5
-74
25
55
69
88
100
205
180
94
12
-74
25
43
75
90
106
222
159
57
-27
-107
0
-9
41
66
67
176
127
31
-92
-135
-38
-35
20
28
31
147
94
-13
-121
-132
-41
-54
19
20
25
136
72
-38
-125
-128
-47
-51
23
11
24
116
55
-49
-154
-126
-44
-45
12
18
35
134
53
-50
-148
-108
-51
-51
13
19
51
129
49
-54
-156
-100
-48
-30
17
16
70
123
36
-67
-152
-90
-52
-37
7
12
80
118
19
-72
-162
-77
-27
-26
9
20
95
106
31
-64
-158
-71
-34
-27
7
12
99
94
19
-74
-162
-68
-39
-29
2
16
117
100
17
-79
-162
-62
-30
-24
-1
11
121
100
9
-88
-178
-74
-40
-28
-3
12
122
90
3
-71
-155
-63
-42
-40
-12
14
119
77
2
-81
-162
-65
-60
-16
-4
15
133
88
-7
-99
-154
-61
-61
-7
-5
12
112
76
-38
-134
-159
-85
-63
7
13
16
118
67
-36
-136
-128
-55
-68
5
9
23
127
64
-53
-151
-123
-44
-46
9
11
18
121
53
-47
-142
-102
-37
-29
26
27
61
128
62
-49
-152
-93
-54
-32
24
10
59
130
31
-61
-143
-82
-48
-37
14
23
84
122
43
-64
-152
-86
-41
-24
11
19
96
109
26
-61
-148
-72
-28
-19
17
12
97
104
5
-80
-172
-77
-38
-27
2
24
108
99
15
-73
-157
-63
-36
-21
6
8
116
101
7
-80
-155
-65
-35
-19
1
23
136
133
68
11
-50
75
137
172
208
250
377
342
263
167
48
106
63
38
-4
-6
94
50
-39
-130
-196
-97
-82
-33
-12
-9
103
75
-34
-142
-161
-60
-61
10
1
3
119
72
-28
-132
-131
-53
-46
21
5
15
131
63
-34
-142
-122
-44
-41
26
26
34
136
69
-36
-128
-99
-45
-30
30
34
60
147
64
-33
-129
-80
-33
-7
39
44
91
148
61
-33
-129
-64
-14
-5
47
50
116
153
65
-29
-123
-47
-1
16
46
64
147
175
79
-25
-101
-20
21
35
61
75
169
175
97
5
-80
7
48
67
89
94
192
182
101
14
-72
17
50
73
95
110
203
177
87
-9
-91
7
39
58
78
87
187
154
64
-37
-115
-29
5
11
26
44
156
126
28
-58
-143
-51
-42
-5
16
22
140
99
2
-76
-147
-48
-41
-13
6
25
131
101
-18
-127
-148
-63
-65
-3
6
15
124
84
-27
-125
-133
-50
-61
13
13
17
121
67
-48
-150
-119
-46
-52
18
17
35
132
57
-46
-144
-121
-51
-53
9
19
45
115
45
-55
-147
-99
-43
-34
2
12
64
112
31
-69
-153
-98
-44
-32
13
11
73
121
35
-59
-147
-101
-47
-36
13
19
88
109
43
-70
-168
-93
-51
-30
-5
8
97
100
19
-79
-161
-76
-37
-24
3
6
95
89
8
-82
-170
-64
-25
-8
9
1
104
92
0
-86
-174
-69
-51
-25
-8
5
113
88
2
-87
-168
-73
-39
-26
-11
2
110
82
-2
-91
-177
-70
-56
-21
4
1
122
71
-17
-95
-172
-67
-63
-20
9
12
123
77
-31
-143
-156
-63
-68
-8
6
4
114
55
-40
-143
-156
-82
-64
9
-2
14
111
52
-50
-156
-144
-57
-61
5
-3
13
124
51
-55
-164
-132
-70
-78
-12
5
28
113
32
-69
-157
-110
-58
-54
-5
14
43
122
32
-62
-156
-96
-63
-54
-4
0
65
104
17
-77
-167
-94
-65
-53
-17
-5
58
103
13
-76
-179
-101
-54
-49
-13
6
85
80
-5
-97
-174
-102
-58
-37
-4
1
88
77
-3
-95
-179
-89
-61
-46
-15
-3
84
75
-6
-105
-183
-94
-57
-46
-14
2
69
61
-5
-103
-183
-86
-61
-39
-22
-6
104
79
7
-60
-102
9
62
107
152
187
320
301
227
160
89
176
141
128
89
41
96
28
-82
-192
-217
-115
-116
-58
-41
-30
78
32
-70
-169
-187
-85
-80
-31
-17
2
112
40
-62
-175
-163
-86
-80
-9
5
19
120
42
-72
-161
-128
-58
-40
2
6
22
110
36
-59
-157
-112
-60
-47
-3
13
56
120
27
-62
-154
-104
-52
-33
11
25
71
121
34
-67
-149
-74
-33
-26
13
29
102
118
34
-54
-136
-61
-38
-9
30
49
132
141
63
-32
-123
-40
11
19
52
62
151
152
80
-18
-94
-10
17
31
56
82
176
163
73
-17
-87
1
33
48
71
88
188
156
68
-19
-89
9
38
44
63
78
178
138
48
-31
-121
-28
-4
14
28
44
141
108
17
-76
-152
-56
-44
-1
17
18
119
79
-26
-143
-162
-60
-55
-14
9
10
117
67
-42
-155
-161
-71
-66
-4
2
5
117
63
-54
-155
-133
-58
-62
15
-4
-1
112
51
-57
-152
-125
-46
-52
2
3
20
111
28
-63
-161
-119
-65
-49
-5
8
55
118
22
-73
-166
-97
-49
-39
-1
-5
59
108
14
-71
-145
-97
-59
-35
4
13
87
103
26
-77
-157
-85
-53
-47
3
14
91
102
16
-84
-166
-72
-37
-30
5
5
75
84
-1
-84
-170
-80
-62
-36
-6
10
101
87
-2
-81
-177
-80
-43
-28
-2
15
111
75
-12
-94
-160
-74
-42
-21
3
11
124
79
-10
-80
-167
-73
-44
-26
-16
-2
117
89
-12
-94
-161
-64
-46
-26
-10
7
110
69
-26
-133
-160
-58
-68
-14
7
15
127
78
-46
-146
-155
-61
-70
6
5
12
129
62
-47
-148
-143
-65
-59
17
14
22
123
46
-52
-150
-117
-64
-63
-6
3
22
118
44
-44
-151
-109
-62
-50
3
17
61
123
34
-71
-153
-100
-58
-39
0
11
69
123
32
-59
-160
-93
-50
-38
13
14
79
109
22
-72
-153
-75
-33
-25
9
19
101
120
32
-54
-144
-64
-40
-27
9
14
99
102
22
-68
-158
-56
-38
-23
12
9
96
87
16
-74
-153
-69
-32
-18
3
16
111
89
1
-87
-174
-68
-28
-19
-4
19
123
87
11
-75
-171
-78
-51
-7
12
20
116
89
11
-84
-168
-61
-50
-14
1
5
133
82
-9
-104
-146
-42
-67
-15
1
13
131
103
9
-68
-56
65
90
179
209
242
382
326
231
132
109
153
106
114
59
14
92
28
-69
-174
-146
-89
-82
-11
-5
2
96
35
-61
-159
-106
-57
-50
1
3
51
120
51
-40
-149
-111
-41
-28
9
18
70
131
46
-50
-144
-79
-36
-13
32
35
90
122
45
-55
-142
-67
-30
-15
26
28
106
115
35
-50
-129
-46
-16
-7
38
43
122
126
42
-53
-133
-48
-12
21
47
34
137
129
50
-46
-112
-20
-4
24
48
67
166
144
56
-19
-99
1
28
54
62
78
187
162
74
-1
-83
22
36
59
106
99
206
168
87
16
-60
43
47
73
95
99
210
161
76
-27
-65
33
36
89
96
74
195
138
30
-54
-86
5
-7
62
57
52
154
100
-6
-110
-103
-25
-25
40
34
42
135
71
-24
-130
-112
-44
-28
30
45
43
124
38
-43
-128
-99
-40
-34
21
23
55
133
54
-42
-135
-83
-32
-21
26
36
89
146
46
-45
-147
-79
-35
-20
14
36
96
114
37
-54
-136
-62
-37
-9
23
37
121
133
41
-51
-136
-71
-23
-20
17
33
123
121
39
-56
-139
-47
-18
0
22
34
123
101
15
-45
-129
-40
-14
-2
25
37
140
106
18
-60
-132
-46
-13
9
20
44
140
111
23
-63
-139
-41
-10
6
38
51
147
101
12
-56
-130
-26
-22
4
26
38
141
104
9
-89
-154
-27
-26
19
33
36
150
99
-7
-106
-130
-25
-25
23
43
46
159
97
-16
-121
-112
-29
-30
45
51
38
151
80
-18
-121
-102
-33
-27
33
43
66
149
85
-25
-132
-89
-28
-15
50
46
77
145
68
-32
-124
-67
-15
-5
42
46
93
146
58
-28
-125
-57
-14
-11
39
49
114
142
58
-55
-140
-73
-25
-7
43
49
123
139
58
-36
-129
-52
-16
-2
43
51
121
134
54
-49
-137
-44
-4
16
38
57
153
138
58
-34
-124
-31
-4
8
35
56
150
132
39
-52
-136
-30
-13
15
47
56
157
101
28
-51
-136
-46
-11
12
35
37
149
117
28
-54
-122
-19
-9
17
35
46
156
119
18
-79
-137
-29
-26
18
48
45
147
104
15
-92
-124
-39
-36
29
50
39
146
101
6
-99
-108
-28
-31
44
55
46
151
95
17
-66
-19
70
102
183
208
255
379
319
232
145
188
224
194
204
152
129
155
48
-59
-172
-103
-45
-43
0
10
62
133
39
-53
-136
-73
-20
-11
31
40
106
149
60
-41
-136
-47
-5
11
51
56
130
154
52
-34
-117
-41
9
16
43
46
142
150
64
-22
-115
-21
21
34
57
70
157
143
60
-22
-111
-26
6
30
59
72
175
153
72
-15
-116
-8
31
49
64
86
190
169
65
3
-86
7
32
59
81
100
200
172
85
12
-71
33
58
76
99
123
230
191
109
0
-54
56
50
112
127
141
253
193
110
-9
-19
64
61
126
143
140
253
201
85
-18
-10
72
70
118
127
125
226
157
55
-44
-26
37
32
94
88
99
196
118
16
-77
-49
12
12
69
71
98
169
83
-14
-108
-50
-4
-2
53
42
92
157
81
-25
-112
-41
-8
-11
27
44
112
153
66
-23
-104
-54
-32
-11
38
44
126
133
51
-43
-124
-40
-17
0
34
56
129
129
52
-39
-134
-48
-12
16
34
61
145
130
47
-49
-129
-45
-5
11
39
61
160
124
40
-55
-131
-30
-2
16
19
16
141
129
27
-61
-141
-26
7
19
40
46
159
122
29
-51
-139
-35
-22
14
40
53
164
129
31
-90
-142
-31
-38
16
30
40
154
101
15
-96
-117
-38
-23
37
50
53
155
96
-14
-115
-108
-38
-33
50
46
37
154
94
-21
-119
-91
-31
-36
34
40
62
168
84
-26
-128
-83
-29
-28
34
31
52
138
62
-27
-125
-72
-24
-16
38
50
91
153
60
-48
-139
-65
-15
-10
30
38
108
150
69
-47
-128
-65
-17
-1
25
29
117
130
45
-52
-122
-51
-15
0
36
44
129
128
51
-45
-141
-43
-10
-1
27
46
138
129
37
-51
-127
-42
-17
7
37
53
131
123
38
-51
-129
-39
-10
4
32
43
159
122
39
-33
-122
-18
11
17
42
45
158
124
42
-43
-130
-35
-24
8
45
54
167
130
31
-79
-136
-25
-29
13
35
48
153
107
6
-100
-130
-28
-31
33
40
39
153
93
-9
-118
-118
-32
-30
46
41
33
140
79
-26
-127
-105
-33
-27
31
36
51
145
75
-28
-125
-101
-36
-29
32
34
69
141
56
-43
-120
-60
16
47
113
140
209
308
233
161
89
174
225
253
281
253
260
245
98
-45
-173
-104
-56
-53
-16
-5
75
102
16
-79
-175
-91
-36
-28
-7
12
105
108
44
-52
-130
-46
-40
-15
17
28
120
113
30
-56
-138
-40
-9
7
37
41
130
124
27
-53
-131
-42
-11
-1
27
43
151
123
33
-54
-126
-29
-10
20
50
53
156
133
46
-40
-129
-30
-15
32
43
65
176
131
38
-52
-103
-4
3
46
56
70
176
143
38
-49
-73
3
20
84
94
88
206
153
49
-55
-53
47
43
105
111
125
234
174
60
-46
-18
66
55
126
125
141
233
171
65
-42
-9
63
58
112
122
158
250
147
35
-50
-6
47
51
92
95
155
200
115
8
-86
-38
8
33
70
77
127
168
82
-24
-120
-50
-12
8
49
49
117
134
41
-42
-131
-39
-9
5
37
44
134
146
50
-39
-141
-48
-12
5
34
45
128
126
42
-49
-125
-33
-5
9
31
55
139
132
37
-57
-127
-36
-17
14
35
48
135
119
32
-52
-127
-33
-15
12
40
45
159
127
23
-56
-129
-38
-28
15
35
46
154
121
27
-64
-125
-25
-26
29
43
52
144
107
16
-99
-120
-14
-22
36
28
38
147
97
-3
-108
-103
-19
-10
43
46
43
154
86
-20
-118
-102
-16
-9
30
40
48
151
80
-22
-119
-90
-24
-8
44
39
65
152
72
-33
-130
-73
-19
-12
37
51
92
154
70
-35
-137
-72
-26
-5
36
57
110
146
54
-31
-130
-60
-19
-7
36
43
116
133
67
-29
-138
-56
-10
6
34
46
123
130
47
-50
-132
-44
-22
-1
30
40
133
126
41
-44
-131
-45
-13
-4
27
33
122
105
30
-52
-139
-50
-18
14
23
26
147
113
19
-69
-146
-44
-21
10
28
31
135
105
15
-60
-135
-40
-13
9
29
40
148
106
12
-88
-137
-43
-31
9
22
29
130
93
-6
-111
-136
-42
-34
14
26
15
137
87
-22
-122
-132
-44
-40
24
31
33
143
90
-36
-156
-118
-29
-24
26
23
28
143
73
-37
-144
-107
-42
-42
17
25
48
128
58
-33
-131
-104
-50
-39
14
28
67
153
60
-23
-101
-21
68
121
190
190
271
348
268
193
103
168
183
159
146
93
102
95
7
-82
-174
-100
-66
-47
-23
-4
85
84
12
-81
-178
-83
-45
-22
9
22
119
97
20
-61
-141
-54
-35
-14
15
33
126
104
22
-55
-141
-40
-8
12
17
22
122
108
22
-56
-142
-38
-18
3
25
30
145
114
34
-58
-138
-24
-10
19
35
46
152
116
34
-62
-133
-22
-24
33
51
57
175
141
38
-70
-111
-16
-8
51
70
77
192
134
24
-67
-84
15
10
72
81
90
195
151
47
-53
-39
37
45
114
106
115
224
164
46
-55
-21
42
65
114
115
137
222
145
44
-54
-9
50
69
101
112
139
188
108
12
-82
-27
14
30
74
80
121
166
89
-6
-111
-54
-15
-1
37
51
118
142
53
-47
-127
-51
-27
-17
18
26
108
116
31
-55
-137
-58
-26
-9
31
44
117
123
27
-60
-146
-70
-21
-10
8
22
112
104
28
-71
-145
-54
-26
-5
23
23
128
113
26
-65
-143
-50
-20
6
26
22
141
104
2
-64
-143
-62
-32
20
17
34
149
107
15
-71
-146
-44
-28
5
32
17
140
108
4
-93
-126
-39
-40
22
25
27
145
89
-21
-118
-112
-32
-35
14
32
38
149
90
-21
-134
-113
-26
-28
34
27
38
144
69
-36
-127
-91
-27
-30
26
33
59
147
75
-46
-146
-95
-42
-22
29
34
74
137
58
-45
-148
-70
-25
-22
29
40
86
137
55
-56
-143
-72
-38
-13
24
42
95
116
29
-59
-139
-62
-26
-7
27
33
109
122
39
-51
-127
-59
-40
-14
22
28
119
116
21
-58
-136
-52
-14
5
34
46
134
124
36
-50
-136
-43
-13
1
8
38
126
110
18
-67
-148
-61
-10
5
30
30
126
92
12
-71
-145
-62
-35
-2
27
32
135
99
2
-81
-147
-48
-40
2
23
17
131
102
8
-128
-159
-44
-41
21
6
31
139
85
-11
-117
-143
-51
-52
26
23
23
134
77
-28
-124
-117
-39
-22
67
89
117
249
199
132
61
96
181
206
262
265
279
338
221
51
-99
-95
-63
-62
-5
4
29
93
19
-83
-180
-103
-69
-64
-8
6
63
123
43
-60
-150
-74
-28
-22
19
27
107
130
38
-54
-145
-67
-43
-31
19
26
112
129
45
-48
-139
-58
-26
-11
32
32
120
112
36
-47
-131
-41
-15
13
38
49
128
126
41
-52
-132
-45
-9
6
48
56
153
122
40
-46
-126
-30
8
31
42
50
163
137
55
-32
-110
-12
11
46
69
71
191
156
69
-11
-85
27
20
52
77
98
204
169
64
-30
-65
28
25
80
106
99
220
162
61
-47
-62
32
34
102
110
96
201
136
35
-66
-60
10
4
75
75
81
174
108
-1
-108
-82
-18
-17
42
43
58
146
65
-43
-134
-93
-32
-37
13
12
57
143
53
-44
-142
-92
-40
-29
22
21
80
133
45
-59
-152
-89
-38
-25
15
10
82
121
36
-58
-146
-79
-49
-26
14
15
105
103
37
-75
-162
-73
-31
-18
10
12
89
103
24
-69
-154
-76
-38
-15
18
20
102
94
8
-78
-151
-56
-34
-4
21
26
114
91
14
-74
-157
-62
-30
-7
7
23
129
94
-1
-75
-146
-49
-31
-22
5
21
123
89
1
-77
-159
-43
-42
-2
26
19
111
86
-9
-115
-160
-54
-41
4
13
18
133
72
-29
-130
-157
-42
-54
14
23
29
134
72
-21
-126
-138
-43
-38
21
14
16
135
75
-44
-136
-118
-50
-51
14
10
45
151
65
-42
-142
-106
-43
-27
23
20
45
136
53
-44
-139
-85
-55
-31
13
22
66
126
51
-45
-158
-92
-42
-22
19
3
77
112
38
-60
-152
-74
-41
-23
13
12
95
109
21
-75
-164
-78
-44
-34
-6
24
111
107
20
-82
-163
-76
-40
-26
8
15
97
92
13
-78
-163
-65
-39
-25
13
19
113
92
9
-68
-137
-23
28
73
124
145
259
267
199
143
79
173
198
205
196
168
219
128
5
-114
-203
-92
-82
-46
-34
-21
98
53
-43
-146
-185
-82
-88
-26
-3
3
124
86
-19
-130
-157
-60
-60
3
16
21
127
77
-27
-123
-129
-50
-53
20
23
37
132
63
-34
-124
-112
-45
-36
32
38
50
147
70
-27
-130
-114
-39
-36
28
37
65
133
65
-22
-115
-79
-32
-17
22
50
82
146
69
-31
-127
-66
-12
15
53
56
127
160
70
-20
-98
-32
13
16
62
68
154
180
98
12
-85
-8
41
48
85
107
190
180
91
5
-79
10
50
58
89
95
190
176
87
9
-87
9
54
68
83
82
189
158
71
-22
-116
-17
16
23
48
54
146
134
28
-65
-149
-46
-15
-3
21
32
140
94
8
-75
-146
-58
-50
-17
6
25
129
90
-10
-116
-161
-51
-46
-18
7
8
122
79
-30
-131
-152
-59
-60
0
16
18
127
79
-29
-140
-141
-52
-54
5
-4
7
128
75
-34
-134
-114
-57
-55
0
3
28
136
59
-51
-151
-117
-47
-48
14
16
40
124
45
-67
-158
-92
-45
-32
20
20
62
127
28
-62
-156
-91
-45
-24
29
34
88
92
13
-72
-157
-67
-45
-34
16
10
94
116
29
-66
-169
-87
-56
-32
5
11
99
101
13
-79
-154
-55
-45
-24
3
20
99
96
13
-93
-161
-72
-44
-38
12
27
109
90
6
-88
-161
-68
-36
-9
6
21
117
95
-3
-102
-158
-55
-29
-20
14
36
131
87
8
-70
-150
-66
-53
-17
7
16
130
97
-10
-104
-166
-74
-70
-5
2
12
119
54
-34
-134
-153
-70
-64
-2
6
6
132
73
-37
-139
-139
-46
-62
2
8
18
137
66
-32
-146
-115
-49
-40
26
19
28
130
63
-40
-140
-112
-44
-33
12
22
51
123
54
-50
-147
-97
-43
-27
34
58
132
213
154
68
3
103
176
203
238
290
360
380
267
130
-20
-15
-22
-43
-23
-12
67
90
1
-94
-183
-97
-68
-50
-15
-6
93
96
15
-71
-157
-74
-38
-22
6
19
109
97
16
-69
-159
-55
-18
-5
16
18
112
93
23
-61
-131
-46
-32
-6
5
26
138
104
24
-60
-146
-43
-22
1
27
33
145
109
33
-56
-144
-32
-16
18
29
37
155
117
22
-62
-120
-19
-20
36
59
55
176
130
39
-84
-107
-10
-2
71
79
71
172
138
30
-68
-65
19
20
85
100
98
209
154
49
-51
-34
36
42
103
102
117
215
151
52
-53
-13
39
50
104
102
133
213
126
25
-91
-48
18
21
80
81
121
165
83
-29
-119
-53
-2
9
34
26
100
144
53
-36
-144
-70
-31
-21
21
28
102
112
37
-53
-153
-83
-43
-30
-7
7
105
119
32
-54
-142
-75
-54
-34
12
23
105
112
11
-80
-159
-68
-40
-22
15
24
116
90
17
-62
-164
-66
-35
-29
15
19
131
96
-1
-85
-164
-73
-52
-20
-3
12
114
66
-6
-87
-161
-63
-52
-13
3
10
120
92
-6
-110
-157
-66
-53
-7
-2
11
123
81
-20
-126
-163
-69
-69
-5
12
12
128
81
-27
-138
-146
-54
-69
14
15
7
118
73
-38
-141
-121
-53
-57
8
1
15
126
62
-52
-142
-110
-54
-43
15
21
42
117
47
-62
-153
-103
-52
-38
16
11
65
120
35
-66
-147
-83
-34
-33
4
26
77
130
46
-57
-155
-88
-47
-19
29
26
102
118
39
-61
-158
-78
-40
-39
-3
5
77
87
11
-83
-162
-71
-48
-33
-14
9
101
90
14
-80
-169
-93
-57
-41
-7
11
114
81
-2
-85
-174
-87
-56
-44
-10
-4
109
86
-13
-84
-165
-80
-55
-32
-8
14
112
79
1
-94
-185
-81
-78
-43
-13
2
107
63
-16
-112
-169
-60
-43
39
90
118
244
220
161
71
66
187
198
271
268
260
334
223
43
-113
-162
-92
-88
-26
-29
-28
82
36
-84
-177
-166
-79
-76
0
-2
8
104
46
-49
-151
-117
-49
-50
6
5
28
120
43
-65
-156
-103
-58
-39
11
-2
48
118
39
-62
-155
-91
-51
-34
17
17
85
121
38
-61
-154
-74
-39
-29
10
26
105
120
35
-57
-143
-68
-25
-10
26
31
119
108
47
-46
-134
-44
-13
-8
29
41
152
128
64
-36
-123
-33
13
27
60
76
176
152
71
-22
-105
-4
18
43
70
86
191
170
86
2
-82
17
37
57
93
100
216
183
93
12
-66
17
34
64
78
88
189
165
70
-23
-89
9
5
44
68
71
160
111
7
-100
-129
-39
-42
32
28
35
144
84
-22
-126
-134
-56
-48
13
14
17
143
55
-31
-140
-142
-64
-70
-2
6
23
131
53
-46
-146
-112
-50
-50
-2
4
34
114
39
-55
-154
-107
-68
-40
13
22
65
124
25
-71
-162
-109
-52
-43
-8
14
76
112
34
-73
-162
-93
-49
-39
5
17
88
107
24
-77
-171
-78
-37
-24
18
21
87
87
10
-71
-172
-92
-52
-35
-4
25
110
96
13
-77
-169
-69
-41
-22
3
9
106
92
-8
-88
-165
-72
-52
-39
1
6
115
92
3
-86
-170
-64
-48
-37
-11
-3
108
92
0
-92
-169
-63
-45
-22
-36
-9
117
59
-24
-106
-162
-55
-54
-13
-6
-2
115
78
-28
-129
-177
-87
-75
-1
6
7
120
66
-37
-148
-145
-66
-67
1
14
17
137
59
-36
-144
-124
-58
-44
14
10
18
119
47
-55
-153
-117
-49
-44
2
8
34
122
49
-56
-164
-118
-65
-55
-8
-6
59
116
29
-65
-165
-107
-51
-40
-8
2
63
96
9
-85
-159
-97
-70
-42
6
8
81
90
10
-76
-171
-82
-48
-35
-14
-4
92
92
4
-88
-176
-88
-56
-21
-5
-12
96
84
0
-104
-162
-61
-20
22
73
106
242
249
187
129
67
171
205
239
260
248
298
213
70
-74
-194
-120
-93
-68
-32
-43
81
43
-57
-126
-204
-98
-77
-43
-17
6
117
86
-16
-126
-171
-82
-79
-9
19
2
120
65
-31
-134
-169
-66
-55
12
15
18
127
73
-35
-135
-144
-50
-49
16
6
30
134
55
-49
-139
-114
-49
-32
30
31
26
139
61
-47
-147
-87
-38
-34
40
41
67
136
58
-35
-129
-78
-19
-4
42
45
86
150
80
-30
-116
-59
-6
14
64
68
129
171
79
-13
-107
-13
32
39
81
86
168
180
99
13
-88
-5
37
34
77
93
174
175
99
8
-82
3
39
52
72
95
179
169
89
-14
-109
-21
12
26
51
55
164
130
34
-48
-133
-43
-17
-22
-1
21
129
92
10
-81
-167
-66
-43
-19
3
15
112
76
-10
-92
-176
-77
-56
-23
-5
3
109
75
-22
-132
-187
-83
-75
-20
-5
-3
102
69
-37
-147
-168
-73
-77
-22
-19
-2
109
50
-46
-144
-148
-68
-71
3
-1
9
106
32
-63
-172
-138
-65
-67
-5
12
11
116
37
-64
-154
-132
-64
-59
-12
-13
23
109
23
-80
-170
-121
-64
-53
-18
6
62
114
34
-85
-176
-104
-66
-60
-9
-1
69
101
6
-97
-163
-94
-59
-45
-13
-18
76
103
7
-101
-188
-105
-62
-48
-16
-14
88
86
13
-87
-177
-98
-63
-42
-6
-9
87
76
3
-92
-181
-79
-54
-65
-18
5
93
60
-8
-92
-173
-91
-55
-23
-7
-8
105
70
-19
-98
-176
-75
-63
-43
-2
4
104
86
-9
-88
-180
-89
-68
-40
-6
-5
109
74
-22
-136
-162
-47
-59
-12
-3
5
122
64
-33
-146
-156
-60
-73
0
3
3
108
69
-39
-150
-157
-73
-74
4
9
7
109
46
-74
-167
-133
-75
-65
-2
2
9
97
27
-68
-169
-120
-67
-62
-21
-15
35
111
29
-71
-176
-110
-78
-66
-27
-4
40
96
10
-87
-184
-107
-66
-45
-10
-12
59
90
2
-89
-172
-96
-75
-52
-11
5
107
133
86
14
-46
68
127
165
210
250
345
362
276
166
41
83
39
-16
-25
-23
61
46
-40
-137
-222
-125
-84
-73
-36
-24
77
64
-31
-118
-183
-87
-59
-28
-13
-6
96
77
-8
-94
-176
-68
-53
-39
-9
5
110
79
-7
-74
-143
-68
-66
-31
-16
6
126
78
-10
-116
-157
-55
-53
4
15
20
124
77
-21
-122
-138
-44
-51
15
24
42
147
93
-15
-120
-108
-29
-25
44
44
41
140
90
-22
-110
-76
-33
-5
53
63
79
174
102
6
-95
-57
19
27
67
82
122
190
117
25
-77
-17
28
34
86
101
158
205
116
11
-70
-4
39
60
82
106
160
195
100
13
-70
4
36
38
72
74
152
157
82
-13
-115
-54
-11
19
40
36
116
123
46
-50
-146
-58
-24
-13
2
25
113
106
17
-68
-160
-64
-36
-15
1
15
120
94
11
-82
-157
-65
-37
-27
2
6
126
92
8
-89
-168
-63
-35
-14
14
9
125
79
0
-77
-168
-57
-41
-21
9
9
114
77
-10
-129
-160
-59
-66
-6
12
13
127
74
-31
-134
-143
-62
-69
10
15
14
128
74
-35
-138
-127
-49
-57
3
8
15
117
48
-51
-139
-117
-49
-41
12
9
37
131
48
-46
-142
-96
-54
-52
5
6
28
134
45
-56
-144
-95
-51
-40
10
20
65
117
32
-67
-157
-92
-43
-42
-1
17
81
113
30
-68
-150
-88
-52
-25
6
5
82
95
12
-78
-159
-72
-35
-23
7
8
89
99
14
-81
-157
-74
-51
-39
-11
14
107
98
8
-73
-155
-77
-47
-31
2
10
106
84
-9
-84
-158
-65
-51
-22
0
18
119
86
-3
-87
-164
-68
-42
-16
8
16
128
77
-13
-87
-164
-83
-65
-28
-2
15
111
74
-22
-133
-170
-68
-63
-9
7
1
111
65
-36
-147
-167
-78
-74
-22
-9
4
112
39
-52
-149
-137
-49
-63
10
-2
-9
109
49
-55
-154
-126
-52
-56
3
4
27
120
50
-71
-163
-121
-46
-40
3
6
44
115
35
-54
-133
-46
37
70
149
172
260
334
262
168
93
172
226
219
209
174
170
143
8
-101
-180
-123
-86
-73
-40
-34
60
70
-10
-107
-172
-91
-47
-42
-5
26
100
92
6
-77
-164
-74
-37
-23
12
4
123
92
11
-71
-150
-47
-31
-19
18
27
121
103
20
-63
-156
-54
-12
-6
17
24
127
102
14
-67
-146
-46
-21
9
25
28
141
109
20
-62
-135
-25
-17
13
44
53
152
115
26
-69
-134
-18
-1
46
59
64
177
125
26
-78
-89
6
-1
61
69
82
198
152
49
-54
-63
23
29
92
100
97
215
159
53
-55
-35
38
42
106
107
125
222
150
43
-50
-14
42
49
80
93
132
202
120
10
-96
-38
-1
21
60
60
112
168
77
-34
-131
-77
-25
-6
35
32
95
130
40
-64
-156
-63
-38
-30
20
24
97
121
35
-64
-145
-79
-41
-23
3
29
105
104
30
-59
-151
-71
-44
-27
19
20
110
101
18
-84
-168
-75
-39
-19
8
21
119
96
10
-82
-161
-56
-37
-7
5
16
124
99
9
-73
-164
-60
-32
-17
10
21
131
98
2
-78
-167
-62
-45
-8
9
21
138
95
2
-98
-159
-58
-54
3
7
16
131
82
-24
-128
-140
-51
-53
3
21
24
136
67
-33
-131
-126
-46
-50
21
19
27
135
64
-40
-141
-117
-47
-49
17
20
36
136
47
-41
-145
-109
-48
-40
9
7
50
126
45
-47
-156
-106
-57
-52
3
12
57
115
32
-72
-160
-97
-55
-43
-9
6
81
109
22
-78
-170
-98
-51
-40
11
-7
87
105
15
-77
-158
-88
-52
-33
-4
10
100
94
14
-84
-173
-85
-28
-19
4
10
100
93
15
-86
-169
-56
-36
-23
3
26
117
92
11
-76
-167
-63
-34
-12
8
25
115
98
-6
-85
-171
-63
-45
-28
-6
11
130
86
-15
-94
-176
-63
-59
-21
-1
20
126
88
-13
-144
-174
-67
-64
-13
-5
1
121
71
-39
-143
-162
-67
-72
-12
0
16
120
56
-55
-142
-136
-63
-74
5
11
9
113
52
-51
-154
-131
-67
-68
9
15
60
161
103
34
-44
33
118
146
206
231
283
341
259
147
8
9
11
-34
-26
-29
30
80
-2
-107
-209
-137
-94
-73
-31
-12
58
85
5
-86
-174
-93
-53
-48
-6
10
97
101
27
-62
-171
-78
-40
-32
4
23
101
95
19
-73
-159
-71
-34
-21
6
27
123
102
19
-74
-146
-60
-34
-24
14
18
132
113
19
-66
-140
-47
-24
-6
36
42
137
111
37
-71
-142
-43
-20
19
35
49
157
119
33
-53
-126
-22
-1
34
59
64
175
135
41
-69
-98
12
22
78
81
90
182
141
43
-60
-65
19
16
90
103
101
205
155
59
-53
-50
32
30
101
90
101
208
143
31
-65
-50
28
29
78
92
97
184
104
5
-107
-80
-18
-2
48
42
82
141
61
-24
-145
-100
-30
-25
21
31
86
141
48
-61
-170
-89
-39
-21
15
19
81
111
29
-63
-158
-85
-52
-32
11
13
107
106
36
-75
-163
-77
-41
-25
5
21
113
94
11
-80
-162
-68
-38
-24
-2
9
99
100
17
-75
-168
-74
-29
-21
10
16
120
103
12
-80
-151
-60
-39
-22
12
23
118
93
12
-79
-157
