12
23
24
28
34
30
25
28
24
23
26
31
23
33
33
25
24
20
19
27
29
27
31
33
29
30
32
24
21
20
32
37
31
18
22
32
30
24
14
12
25
19
23
28
37
28
24
30
30
30
30
30
19
26
41
34
25
19
20
20
25
50
44
21
16
21
13
15
17
20
19
11
28
34
33
25
23
24
24
34
29
35
35
29
22
32
31
29
26
20
16
20
27
33
23
28
31
30
27
20
28
31
31
27
21
20
20
12
15
17
21
30
35
28
30
25
21
26
27
22
22
28
33
35
33
29
28
29
28
35
32
28
22
18
18
16
11
22
27
21
22
23
22
20
20
24
18
25
29
33
35
34
25
27
26
27
29
25
20
24
32
32
32
20
18
22
35
34
21
14
19
30
32
36
33
30
43
29
8
13
19
15
16
22
33
37
30
27
18
21
27
22
24
32
31
22
21
33
31
30
27
29
47
45
36
27
33
38
33
28
48
41
27
40
44
16
26
31
39
44
43
36
32
31
27
33
36
35
33
26
18
21
23
20
25
37
24
16
18
29
36
27
19
24
25
22
30
34
35
31
26
29
31
30
20
21
16
15
28
35
37
36
31
21
28
21
19
16
30
27
18
11
16
20
33
62
89
109
118
133
144
145
155
158
148
150
152
143
145
134
120
82
46
28
15
-3
-11
5
20
22
29
22
22
22
32
35
27
26
26
22
35
42
36
33
33
31
36
33
29
36
34
41
42
33
23
46
41
30
26
31
35
39
41
50
48
50
51
39
33
28
43
44
34
44
43
55
54
44
49
58
54
49
50
48
41
37
41
46
53
60
55
55
59
60
62
62
59
71
71
68
73
71
77
83
80
74
72
70
73
82
84
92
89
92
96
97
90
95
79
77
84
90
89
89
78
64
71
78
86
71
64
64
57
44
51
52
43
45
45
44
53
58
55
52
35
41
50
40
28
30
28
19
37
31
26
25
26
34
35
28
29
37
33
27
20
17
22
22
22
22
17
-2
7
23
24
18
26
32
42
36
29
28
37
43
31
18
24
22
17
17
26
24
24
28
32
32
37
40
32
25
27
33
33
32
12
17
28
29
24
25
28
23
28
29
24
25
26
35
41
38
30
25
28
39
39
27
31
41
32
22
22
20
22
21
26
30
36
31
27
29
22
17
22
14
17
26
33
29
27
26
39
38
38
24
18
21
28
26
28
31
26
16
15
16
29
31
28
18
22
31
27
32
22
18
19
25
19
20
20
31
31
33
22
22
23
20
21
19
22
45
33
16
17
23
26
25
28
28
30
35
37
30
20
21
8
13
19
22
27
33
34
28
27
35
27
19
13
8
10
19
21
27
28
17
13
18
22
21
19
17
23
23
25
28
20
18
24
20
13
8
25
38
40
21
17
23
30
24
25
19
23
22
18
17
32
38
20
17
17
18
22
23
20
10
9
12
5
13
18
21
26
33
35
26
25
24
25
18
16
16
16
33
27
27
22
20
17
18
19
25
29
25
12
6
0
6
19
19
25
29
30
18
23
27
27
16
16
23
28
23
28
16
5
12
23
30
22
23
35
40
18
13
10
20
22
24
27
22
27
28
21
22
20
20
25
19
11
19
31
31
26
29
23
19
18
28
24
25
26
26
20
24
42
43
40
33
33
30
39
38
38
50
37
23
16
22
24
19
23
21
19
26
18
19
21
23
29
30
26
24
27
8
3
23
18
25
30
24
21
21
26
30
24
25
26
25
24
30
33
33
25
18
20
14
14
20
21
28
29
22
18
14
1
-2
6
22
45
63
77
100
124
121
127
156
172
159
151
151
145
128
131
120
95
76
55
27
14
10
-2
-11
-3
-5
2
9
20
28
32
30
23
27
27
27
22
23
21
26
43
42
31
28
22
30
25
41
40
43
52
47
43
35
38
32
32
36
32
28
29
42
31
25
25
27
34
34
36
36
43
37
44
45
42
44
46
45
40
32
35
59
74
55
45
48
59
54
57
63
72
70
67
61
58
57
57
61
70
76
79
85
84
81
79
75
75
81
86
83
84
98
84
72
85
95
87
75
74
76
86
92
80
81
84
77
61
61
57
59
70
74
59
42
44
50
62
53
34
26
35
39
29
28
32
38
46
39
31
28
22
14
25
29
32
27
8
1
19
36
37
31
38
24
15
18
26
26
32
27
25
25
22
14
27
27
19
27
31
21
21
33
29
20
16
26
41
37
28
27
24
29
31
33
37
26
15
20
24
19
20
26
34
35
32
29
25
15
20
17
19
26
24
33
34
26
28
32
35
14
32
35
25
31
48
33
26
36
27
35
35
29
33
24
26
30
17
19
23
32
23
27
26
29
25
29
31
24
28
32
28
19
15
22
17
15
25
32
39
36
26
23
29
28
21
26
21
17
22
22
23
28
37
45
31
22
18
14
14
29
38
30
26
24
23
21
21
21
29
24
19
19
25
25
26
27
22
30
23
15
13
22
21
20
23
26
24
26
27
13
22
25
27
26
33
26
25
29
32
34
26
33
25
23
15
12
13
15
10
16
27
40
33
28
23
23
24
23
15
18
12
19
24
29
36
24
14
27
36
14
21
31
28
29
29
29
32
29
31
24
17
18
24
22
18
16
23
23
33
36
19
18
22
16
19
14
21
20
25
27
37
33
17
13
17
24
18
21
19
18
33
28
29
33
24
21
15
37
39
33
36
30
20
27
37
27
21
34
36
37
37
30
24
34
45
46
37
30
43
44
40
34
24
8
11
24
18
20
19
16
13
20
12
13
20
30
28
29
30
24
24
29
14
8
13
28
32
27
37
52
30
21
32
22
10
13
22
18
20
7
19
26
22
21
19
18
29
27
21
21
12
7
36
55
67
97
130
141
159
151
140
131
119
124
120
116
113
97
74
55
34
19
-3
0
11
3
-3
-12
-21
0
-1
14
27
14
16
23
28
33
33
43
51
25
12
23
40
23
17
20
25
36
23
14
21
27
25
17
17
26
22
23
36
39
30
34
26
33
40
46
41
31
32
34
28
33
40
52
59
53
31
28
26
31
20
33
41
45
44
55
62
57
55
49
51
58
57
64
76
70
62
72
68
75
82
85
82
70
70
78
70
73
74
77
81
93
85
80
86
87
77
73
78
86
80
67
67
68
66
88
81
60
53
56
66
63
57
52
46
50
38
29
33
31
26
15
17
18
12
25
23
16
26
28
20
14
17
25
29
21
11
9
16
24
15
19
24
19
26
40
31
13
6
14
15
17
17
18
18
14
12
7
6
6
13
28
18
16
19
19
25
23
18
15
16
22
19
16
14
10
22
29
26
17
7
9
23
25
19
18
17
23
29
18
14
16
13
9
16
16
25
29
20
20
20
23
20
27
36
24
19
13
13
21
15
10
18
22
18
10
11
11
15
18
14
12
19
24
30
35
32
32
19
17
14
18
19
20
25
16
7
12
15
26
26
26
28
21
10
11
24
33
18
9
11
-5
-2
15
31
22
12
9
10
14
16
13
4
14
34
35
30
25
19
19
36
25
3
8
18
16
9
16
19
11
19
24
16
14
13
10
10
22
24
21
26
20
8
6
23
25
18
12
7
1
-7
-3
16
27
22
29
30
22
8
5
17
26
38
23
16
15
10
21
21
20
9
6
16
23
19
8
10
28
29
27
21
8
7
9
18
14
10
2
6
10
23
24
27
30
33
28
14
22
20
20
17
27
26
16
15
28
29
36
29
21
21
24
19
21
20
31
39
33
20
18
37
41
28
14
17
25
16
6
-4
-3
8
19
17
11
18
16
16
19
20
26
9
1
18
27
13
16
19
18
22
20
13
16
4
4
17
35
36
18
13
20
28
22
16
15
16
16
-1
-7
9
2
-3
-7
2
23
33
48
70
95
110
130
138
140
144
142
138
129
127
123
119
114
99
81
58
31
14
13
3
-15
-5
-2
4
10
3
16
27
30
27
22
24
22
18
18
10
12
21
24
19
19
22
29
25
24
28
28
23
29
35
40
37
25
35
46
15
6
27
35
32
34
28
23
29
35
40
40
42
30
20
27
47
38
36
41
42
51
47
44
42
43
41
34
40
57
56
52
55
67
64
61
65
63
63
69
67
76
76
76
75
76
73
74
74
76
82
76
73
75
85
81
73
85
95
92
85
71
65
79
83
73
67
69
66
63
59
55
56
46
35
43
57
48
38
44
42
38
34
35
29
21
23
18
26
34
31
24
24
33
36
33
27
11
11
31
35
30
24
13
14
33
34
24
24
28
18
12
30
39
29
21
30
29
27
28
18
14
20
24
26
29
21
21
23
33
29
23
31
30
24
27
28
35
26
26
29
20
22
34
25
27
29
31
29
30
36
26
15
21
31
21
25
27
30
34
28
34
34
30
28
31
32
29
36
35
46
30
10
22
26
28
40
35
23
24
37
22
23
22
25
23
24
31
33
48
41
29
33
30
32
27
26
36
27
21
34
33
16
12
32
34
28
33
12
15
33
31
22
27
22
23
28
38
38
23
29
43
45
35
21
11
22
27
25
30
39
33
28
29
26
39
34
28
28
28
18
30
30
18
25
25
15
20
29
26
26
31
25
24
31
42
42
27
13
18
37
31
23
19
11
17
36
34
38
32
41
36
24
24
27
37
33
25
29
26
21
22
25
29
30
25
13
27
39
28
26
20
27
31
28
35
40
21
23
33
12
16
22
28
25
30
36
31
21
21
31
31
29
40
32
26
27
25
31
34
20
17
27
27
21
15
6
14
28
43
35
30
29
37
28
25
33
32
23
24
30
35
41
43
37
32
28
24
38
50
47
47
45
41
48
46
34
34
43
31
33
37
29
23
28
41
37
34
32
36
38
35
31
31
39
36
36
39
38
30
43
41
44
48
21
10
15
23
30
45
32
14
9
10
16
25
31
33
28
38
39
32
28
22
16
10
13
22
30
29
28
25
31
34
39
41
32
32
32
22
20
19
19
34
56
67
88
107
127
135
145
156
153
143
135
137
143
134
123
104
78
55
19
13
17
10
-5
-2
16
28
28
29
36
38
32
30
32
35
36
30
24
24
30
35
17
18
23
30
37
27
37
41
34
39
39
37
39
37
31
37
44
36
26
23
26
40
40
46
50
56
43
34
39
37
36
34
35
43
47
45
47
42
49
46
44
45
54
48
32
39
55
55
56
60
58
60
68
78
84
78
73
74
87
90
87
73
59
66
75
84
84
63
70
91
87
85
82
86
87
90
91
87
69
71
70
70
71
69
66
54
53
60
53
54
47
46
52
47
33
24
27
32
32
20
22
41
36
27
34
30
36
37
26
30
35
35
35
37
36
31
23
13
24
38
41
31
22
20
13
25
28
20
18
20
28
29
18
15
18
31
36
25
28
40
33
35
43
36
26
31
34
30
28
29
31
35
34
26
27
36
40
29
17
19
22
30
24
23
29
23
21
24
40
34
28
16
16
28
41
38
38
40
39
28
34
41
33
29
25
30
36
41
28
18
26
39
41
25
18
23
29
37
33
22
24
27
34
31
29
39
35
19
21
25
27
24
30
36
36
38
35
34
38
40
27
28
25
33
24
19
21
34
32
35
40
32
31
34
25
21
25
30
28
25
31
26
25
18
27
33
26
20
26
39
46
49
38
25
23
10
20
35
29
28
30
31
36
36
24
30
32
38
41
35
30
24
25
25
18
10
19
34
46
39
27
25
21
27
29
34
23
17
26
37
38
28
28
32
36
28
26
21
21
34
36
37
30
21
29
28
30
28
31
24
21
16
29
43
31
26
27
25
32
36
18
29
32
40
37
36
34
24
18
11
26
31
22
25
23
22
32
37
31
29
22
42
46
38
41
46
37
39
28
15
14
27
35
27
23
29
36
38
29
34
46
48
36
30
26
21
32
39
40
47
46
43
42
34
32
38
52
52
32
31
33
22
29
41
32
36
39
29
18
22
23
26
35
29
33
30
18
24
32
34
31
29
36
31
33
33
33
38
37
22
28
28
27
14
15
25
28
43
55
42
29
24
14
15
23
28
23
23
29
38
47
63
80
103
126
137
130
133
152
156
144
134
131
140
134
122
104
73
41
23
26
16
11
9
12
20
31
28
41
50
41
33
31
37
42
26
28
25
28
41
33
39
33
27
34
42
29
34
34
30
29
44
53
49
45
43
44
42
45
40
26
24
31
47
47
54
64
52
48
51
51
46
44
47
39
51
53
47
45
49
55
55
62
49
48
65
73
75
62
58
59
60
60
67
75
81
81
76
77
75
70
72
82
82
90
94
98
92
93
94
84
82
92
97
92
89
96
99
97
95
89
73
69
72
83
83
83
74
65
59
56
52
55
62
61
56
44
41
47
44
40
37
39
48
42
38
41
47
47
40
27
28
36
39
31
23
30
43
36
32
29
26
21
22
24
30
34
30
32
38
35
28
21
26
33
34
30
38
39
36
37
19
15
41
38
31
39
42
31
25
30
21
25
36
35
48
45
37
25
24
30
30
35
37
22
19
25
24
31
32
45
38
37
40
36
33
25
24
23
36
34
31
39
41
31
38
44
38
25
32
28
38
45
35
22
36
37
26
24
26
43
48
37
24
17
32
37
34
27
26
36
43
32
33
38
24
20
45
45
34
29
38
37
36
42
41
34
34
31
28
36
40
33
16
21
31
21
24
21
30
43
42
35
31
34
25
25
16
20
32
53
46
48
52
30
15
34
40
37
39
30
27
29
28
32
36
38
35
15
15
28
34
44
38
25
38
36
20
13
10
29
44
29
22
29
36
41
37
26
26
40
33
35
33
35
36
43
55
44
21
14
20
15
23
29
36
37
27
37
46
37
21
22
31
32
26
27
29
13
19
30
28
28
26
18
31
47
40
26
27
36
54
35
20
33
37
37
40
32
32
29
25
24
27
30
26
29
34
23
24
30
27
21
23
23
21
31
44
39
25
26
38
34
28
28
32
41
48
48
39
39
32
38
34
25
34
42
43
50
47
42
42
31
36
35
33
25
17
30
38
36
34
38
26
25
13
25
25
28
41
44
42
39
30
21
30
29
22
22
23
22
32
35
24
20
28
33
26
16
15
20
10
24
36
32
15
21
46
33
15
17
23
19
16
37
36
44
58
91
117
140
136
125
137
147
152
158
151
146
136
133
113
98
84
66
32
21
12
3
-1
18
25
17
20
32
33
32
28
25
41
40
36
32
42
37
33
24
23
24
25
28
30
15
11
20
28
41
38
30
32
45
50
37
29
36
43
39
57
46
14
27
46
43
34
28
42
44
47
39
31
34
50
51
51
45
45
52
51
48
58
52
61
65
43
45
47
61
66
65
73
68
66
75
74
79
76
70
75
80
77
61
70
74
88
94
86
83
85
86
79
82
80
91
91
102
102
91
87
86
81
85
86
77
74
71
58
41
37
44
50
49
52
50
40
35
37
34
47
34
40
43
35
39
26
12
28
37
28
23
31
30
24
20
22
40
32
16
20
16
14
12
17
18
20
21
25
28
22
24
19
24
21
15
25
30
20
19
31
25
29
18
29
31
26
27
29
20
16
22
28
20
22
23
15
17
25
19
12
6
16
20
21
33
33
36
26
22
23
27
36
29
8
6
21
27
30
23
29
26
31
27
22
19
29
28
13
10
11
8
8
18
20
26
34
24
33
20
25
21
15
27
34
31
33
24
16
19
10
10
18
26
23
19
22
16
5
7
20
24
27
20
21
18
19
13
11
14
14
17
19
20
25
30
35
32
22
12
16
22
22
18
14
18
22
25
16
10
17
19
17
17
17
14
9
31
32
19
12
10
7
7
15
26
25
13
5
10
17
19
23
29
26
21
14
21
26
21
26
22
9
1
8
18
7
13
16
10
9
13
25
23
10
11
9
15
13
14
26
19
12
10
14
27
19
8
9
20
13
8
-3
5
18
39
38
26
9
11
18
21
9
4
20
19
19
14
16
15
18
22
15
20
32
15
3
2
6
23
30
18
9
17
18
23
23
2
-3
13
27
20
4
5
24
21
18
16
14
12
14
13
18
11
26
36
21
5
18
19
19
21
17
18
12
12
20
4
8
32
29
31
24
28
20
14
21
20
27
18
16
23
41
33
14
17
28
28
28
12
-2
6
15
4
7
15
5
-6
8
22
15
8
11
14
15
1
0
7
22
21
2
7
17
16
17
21
21
19
14
18
1
7
10
3
2
8
15
12
-3
-5
10
21
29
14
-5
1
4
5
-1
7
25
34
66
99
111
125
128
137
139
127
113
132
136
134
126
110
86
67
54
26
-4
-13
-33
-27
2
13
9
5
-2
-4
14
29
17
4
5
4
28
21
14
17
24
22
27
30
29
18
9
0
6
11
20
22
29
32
29
24
17
24
35
25
19
20
35
20
-2
-6
7
44
54
42
33
23
22
23
32
31
18
18
31
31
39
26
25
52
54
44
37
47
50
35
9
36
71
71
70
68
60
52
57
66
64
71
63
64
61
54
69
68
76
84
80
69
77
85
81
70
68
74
69
58
57
78
83
75
73
76
74
55
46
43
44
37
38
48
26
21
22
27
36
42
25
16
23
35
42
15
18
9
3
4
8
17
25
25
25
23
17
10
14
17
16
6
-3
-4
12
12
23
17
4
5
4
3
15
16
19
-10
-15
1
-1
-9
-15
-2
12
16
7
-2
-4
-10
-5
4
9
1
3
2
7
-4
-15
-6
4
-10
-20
-8
2
-7
-2
3
15
5
-6
-1
2
-8
-7
-1
4
0
1
1
-6
-5
-2
2
-2
-12
-18
-10
-17
-8
24
-2
-15
-4
2
15
3
-11
2
-2
-3
-1
-2
1
2
-4
-1
-12
-14
-17
-19
-22
-7
-9
-16
-11
-6
-12
-11
5
-20
-26
-9
8
8
1
3
-5
-3
-8
-8
-11
-13
-11
-9
-14
-16
-11
-8
3
1
-5
-2
-1
-10
-24
-30
-12
-10
5
6
-10
-18
-14
-25
-24
-14
-18
-6
-8
-16
0
7
-15
-16
-1
-9
-16
-1
0
-1
-13
-8
-6
9
1
-19
-27
-26
-23
-23
-25
-30
-26
-7
-12
-29
-14
3
-5
-5
-8
-15
-14
-3
-11
-16
-21
-15
-14
-4
-3
7
-1
-18
-12
-4
-2
-13
-19
-23
-12
-9
-12
-15
-13
-12
-8
-5
-6
-10
-5
-12
-18
2
12
-10
-18
-7
0
-7
5
-3
-22
-19
-2
-3
-22
-34
-23
-13
0
9
-6
-11
-10
-13
-24
-40
-44
-43
-41
-19
-10
-20
-33
-15
-12
-1
9
-5
-19
-15
-17
-15
-16
-19
-21
-14
-12
-11
-10
-6
-17
-24
-29
-30
-30
-37
-34
-38
-36
-15
3
25
38
54
60
73
89
104
98
104
101
91
83
88
90
73
50
24
-5
-12
-31
-33
-47
-59
-48
-38
-33
-33
-21
-9
-1
2
-12
-11
-14
-14
-24
-21
-12
-4
-8
-11
-17
-26
-16
-20
-18
-12
1
8
2
-2
-10
-16
-22
-26
-20
-15
-17
-7
-8
-7
-4
-1
-5
-14
-23
-17
-12
-2
3
13
10
3
2
2
9
15
12
-1
0
6
13
6
4
3
13
18
20
20
13
17
16
14
20
27
21
21
25
17
8
16
30
35
44
48
44
28
32
56
57
42
45
47
32
28
35
38
46
38
34
33
32
34
33
21
13
25
16
12
13
9
-1
7
16
6
-10
-16
-8
-8
-6
-18
-30
-28
-24
-25
-21
-2
-10
-15
-22
-25
-25
-18
-21
-29
-18
-10
-21
-18
-20
-15
-21
-35
-18
-17
-24
-23
-8
-15
-20
-22
-20
-17
-18
-13
-19
-19
-30
-35
-34
-26
-8
-13
-21
-23
-22
-2
-10
-33
-36
-30
-38
-35
-17
-15
-24
-31
-13
-8
-6
-22
-24
-20
-9
-13
-15
-17
-29
-26
-26
-22
-22
-23
-13
-15
-14
-18
-22
-12
-18
-29
-24
-17
-21
-21
-24
-28
-22
-11
-5
-20
-23
-20
-18
-16
-8
-2
-10
-14
-27
-37
-39
-18
-9
-18
-23
-22
-16
-13
-23
-16
-12
-35
-33
-22
-20
-23
-29
-29
-27
-2
-25
-42
-36
-22
-26
-18
-11
-18
-21
-14
-4
-15
-21
-21
-21
-15
-19
-23
-23
-30
-35
-33
-31
-13
-7
-18
-31
-23
-11
-20
-27
-28
-17
-15
-30
-33
-36
-36
-9
-4
-11
-9
-18
-31
-28
-17
-18
-23
-29
-27
-18
-19
-23
-26
-23
-36
-32
-17
-12
-22
-28
-26
-27
-29
-32
-44
-40
-26
-20
-11
-8
-21
-19
-11
-7
-13
-8
-17
-38
-47
-23
-5
-4
-17
-27
-26
-22
-18
-25
-16
-20
-17
-25
-24
-24
-20
-14
-13
-14
-20
-31
-20
-12
-20
-24
-19
-25
-24
-14
-24
-21
-22
-35
-25
-9
-12
-22
-15
-6
-6
-11
6
-5
-8
-9
-11
-7
-15
-8
-8
-31
-32
-24
-29
-29
-23
-31
-30
-20
-17
-24
-20
-20
-16
-16
-34
-41
-31
-14
-14
-32
-35
-28
-9
-6
-7
-13
-22
-20
-14
-28
-20
-6
-11
-33
-34
-25
-31
-28
-18
-25
-32
-40
-32
-33
-28
-14
-2
10
18
47
61
60
59
70
94
115
110
107
93
84
94
90
77
51
21
-10
-24
-32
-44
-52
-45
-26
-28
-26
-25
-24
-19
-23
-21
-29
-24
-25
-22
-18
-24
-33
-43
-23
-9
5
-4
2
2
-10
-8
4
-5
-16
-22
-18
-7
-2
-12
-10
0
-6
-3
7
9
6
-3
-4
-11
-19
-15
-15
-16
-7
-3
-10
-1
8
-7
-11
-2
3
10
30
17
-6
-5
18
26
29
22
15
18
17
24
20
21
27
32
32
25
34
36
18
20
32
27
47
39
35
46
49
43
43
44
49
54
50
38
40
40
39
36
33
28
38
39
20
16
38
29
28
23
28
32
20
9
16
16
8
-5
-24
-27
-39
-11
16
7
-5
-15
-1
-11
-14
-11
-17
-24
-23
-1
-3
-18
-23
-8
-3
-13
-15
-16
-17
-9
-11
-23
-24
-12
-12
-30
-31
-20
-8
-6
-11
11
7
-18
-24
-24
-18
-13
-17
-20
-38
-34
-13
-18
-27
-16
-19
-17
-6
2
-5
-16
-12
-7
-6
-6
-13
-20
-21
-28
-32
-30
-20
-1
-8
-10
-7
-6
3
-4
-15
-13
9
-12
-33
-36
-16
4
4
-8
-11
-16
-12
-14
-18
-19
-26
-13
-16
-14
-11
-30
-34
-16
-22
-21
-5
-14
-13
-7
-6
-15
1
16
-11
-26
-23
-20
-20
-19
-10
-18
-17
-11
-10
-20
-15
-9
-9
-7
-14
-13
-13
-8
-18
-23
-30
-33
-16
3
-5
-16
-23
-30
-18
-7
-4
-3
-8
-7
-12
-15
-14
-9
-8
-4
-16
-14
-15
-9
1
-12
-21
-32
-34
-19
-23
-16
-12
-13
-13
-19
-23
-23
-17
-13
-17
-18
-10
7
4
4
-10
-22
-26
-25
-16
-18
-11
-7
-17
-29
-15
3
-3
-20
-20
-23
-20
-19
-17
-13
-7
-11
-4
-8
-18
-14
-14
-7
-9
-14
-9
-16
-20
-13
-13
-9
-5
-4
-11
-23
-23
-17
-13
-14
-18
-9
-10
-26
-18
-11
-19
-15
-32
-31
-4
4
-4
-18
-23
-25
-11
18
20
4
5
-5
-7
0
-4
-11
-9
-18
-12
-2
-6
-11
-15
-7
3
-3
-21
-23
-13
-16
-16
-16
-12
-11
-12
-10
-9
-9
-11
-17
-21
-24
-18
-5
-3
-6
-8
-21
-30
-25
-24
-23
-20
-18
-21
-16
-12
-15
-19
-17
-18
-23
-10
-5
-9
-19
-22
-21
-23
-27
-29
-26
-32
-34
0
8
15
38
47
56
80
104
101
102
121
125
112
103
94
103
103
83
43
23
-1
-29
-38
-30
-39
-58
-44
-18
-29
-23
0
1
-13
-17
-8
7
-6
-15
-19
-4
0
-2
-7
-6
-9
-8
-11
-18
-26
-8
2
-5
-8
-3
-7
-10
-14
-14
-13
-7
-5
1
-6
-11
0
-11
-5
3
11
4
1
5
11
9
2
-5
4
10
13
12
3
9
14
0
-4
-6
-5
-1
22
32
27
17
13
15
37
50
36
47
37
15
30
42
33
33
34
30
29
41
46
47
54
56
48
54
59
45
42
45
47
47
40
27
28
43
48
62
56
33
25
32
33
29
23
14
6
8
8
9
7
-6
1
10
4
-7
-8
-10
-2
10
4
-8
-26
-28
-12
-4
-16
-32
-30
-20
-10
-16
-11
-15
-20
-19
2
9
-2
-10
-7
-7
-21
-18
-18
-24
-26
-23
-25
-35
-22
-1
6
1
-18
-19
-16
-20
-25
-23
-17
-14
-19
-11
-7
-27
-14
5
-2
-16
-17
-9
-17
-18
-23
-20
-13
-22
-35
-19
-10
-15
-11
-12
-15
-17
-11
-21
-8
-5
-4
-9
-13
-11
-16
-18
-22
-18
-11
-12
-19
-8
0
-17
-20
-2
1
-13
-14
-9
-6
-13
-22
-15
-13
-9
-26
-40
-34
-10
9
-6
-29
-18
-14
-19
-25
-27
-15
-7
-17
-18
-15
-11
-4
-17
-12
-6
-5
-13
-6
-2
-13
-17
-12
-5
-7
-18
-14
-20
-23
-23
-31
-30
-17
-31
-28
-11
1
1
-17
-17
-21
-33
-22
-23
-19
-18
-14
-5
-17
-25
-13
-11
-8
-10
-14
-11
-1
-11
-16
-13
-11
-10
-11
-18
-18
-22
-8
-13
-11
-9
-16
-30
-38
-14
-11
-35
-37
-15
-15
-11
-6
-22
-27
-14
-16
-13
-27
-8
5
-14
-17
-6
-13
-11
-16
-19
-24
-23
-20
-11
-10
-6
-11
-20
-11
-5
-9
-10
-3
-11
-29
-20
-17
-26
-29
-10
-2
-9
-27
-31
-30
-29
-13
3
5
-6
-18
-7
-13
-7
-1
-18
-45
-34
-5
9
-13
-15
-29
-17
3
3
-1
-10
-18
-15
-3
0
3
-5
-8
-7
3
-3
-16
-7
4
-2
-14
-15
-12
-5
-5
-18
-31
-7
3
-8
-15
-20
-23
-15
-14
-30
-27
-14
-24
-19
-5
-6
-16
-19
-3
-13
-19
-10
-13
-21
-31
-27
-8
-9
-24
-33
-16
5
1
-16
-26
-27
-18
-9
-16
-19
-14
-18
-30
-41
-55
-43
-25
-12
13
47
65
77
87
107
116
108
101
104
91
88
84
82
77
48
34
17
-22
-35
-37
-40
-37
-26
-36
-37
-28
-14
-7
-1
-21
-29
-25
-8
1
-17
-29
-18
-5
-11
-21
-14
-9
-5
-16
-15
-23
-26
-20
-1
-11
-26
-12
9
0
-13
-6
-4
-7
1
10
1
-14
-14
-11
-6
10
0
-2
-13
-9
-1
0
3
2
2
6
12
8
2
-2
8
12
19
31
23
14
13
7
-9
2
33
39
23
23
26
38
49
43
21
35
46
35
35
33
39
38
37
37
43
36
32
43
60
62
48
34
37
40
46
48
48
46
47
32
34
26
23
29
22
19
12
10
1
-3
4
12
5
7
6
1
-2
1
-3
-10
-22
-23
-24
-27
-15
1
-6
-16
-21
-16
-2
-7
-13
-12
-7
-12
-22
-5
3
-9
-25
-36
-27
-8
-17
-30
-33
-23
-7
-14
-14
-9
-11
-16
-9
-16
-28
-24
-31
-32
-19
1
2
-10
-21
-17
-10
-6
-4
5
-10
-37
-28
-15
-10
-9
-6
-4
-14
-17
-9
-17
-17
-7
0
-11
-18
-29
-20
-12
-29
-47
-37
-20
-8
-3
-7
-12
-8
-1
-10
2
-8
-18
-14
-20
-16
-16
-25
-31
-1
6
-13
-16
-9
-5
-4
-21
-18
-15
-17
-14
-14
-26
-31
-24
-11
-22
-16
-18
-9
-10
-22
-18
-14
-14
-12
-15
-14
-26
-25
-15
-13
-11
-10
-3
0
-14
-18
-18
-14
-15
-10
0
1
-14
-23
-22
-31
-23
-20
-19
-25
-20
-12
-14
-14
-15
-4
-2
-11
-23
-34
-31
-26
-23
-27
-14
-4
-11
-24
-11
-8
-7
-16
-24
-12
-3
-28
-37
-33
-18
-19
-21
-18
-10
-18
-30
-23
-3
-11
-13
-15
-14
-20
-20
-10
-8
-22
-21
-19
-29
-25
-17
-14
-26
-15
-2
-8
-2
-6
3
-2
-16
-28
-31
-14
-11
-4
0
4
1
-9
-13
-7
-5
-8
0
3
0
-13
-13
-30
-43
-27
-6
-8
-13
-13
-12
-14
-9
-7
-17
-25
-17
-12
-13
-10
-2
-9
-20
-25
-17
-8
-10
-16
-5
-2
-11
-16
-17
-21
-22
-20
-12
-9
-21
-30
-35
-35
-21
3
-5
-9
-10
-12
-25
-38
-16
-3
-19
-49
-35
-7
3
30
39
47
64
83
84
87
107
117
122
110
99
99
85
70
50
42
25
8
-8
-22
-52
-44
-31
-17
-16
-22
-13
6
12
7
-6
-16
-15
-3
-4
-8
3
12
-8
-20
-18
-17
-22
-21
-4
-8
-2
-1
0
-10
-10
-5
-3
-12
-10
6
-4
-13
-11
7
14
8
5
10
-2
-12
-15
-7
8
11
16
13
11
7
2
5
17
16
-1
11
11
8
-7
-11
15
21
14
7
22
33
40
29
30
37
32
32
36
40
45
38
42
53
45
47
44
38
41
42
46
63
43
42
40
44
44
33
37
49
53
50
55
58
55
54
48
37
37
37
35
27
21
22
3
0
9
14
11
13
11
6
-9
-10
4
0
-4
0
-10
-26
-25
-8
-4
-6
-16
-4
-11
-7
-11
-12
-3
-1
2
-7
-9
-10
-17
-14
1
1
-13
-1
-13
-9
-10
-10
-18
-14
-1
-9
-20
-28
-17
-3
-9
-8
-7
-8
-13
-18
2
2
-4
-12
-23
-18
-14
-11
7
2
-10
-10
-5
-9
-6
-3
-8
-11
-11
-15
-22
-13
1
-5
-1
-20
-4
14
8
-9
-15
-13
-5
-8
-16
-11
-14
-11
-11
-9
-9
1
-8
-17
-16
-15
-8
2
-6
-20
-5
0
4
-6
-5
-19
-12
-3
-12
-15
-12
-7
-4
2
-6
-6
-1
0
-9
-9
-8
-9
-12
-19
-17
-12
-11
-20
-5
3
-10
-10
-2
-11
-18
-7
10
-4
-15
-10
4
-7
-10
-23
-17
-3
-4
-9
-3
-7
-6
-8
-5
-7
-11
-8
-12
-25
-20
-3
1
-2
-18
-17
-9
-11
-11
-5
-3
-12
-10
-18
-29
-21
6
-2
-18
-5
-2
-11
-4
-6
-9
-3
-4
-14
-19
-15
-5
-5
-13
-8
1
4
-2
-2
-4
-7
-8
1
1
-2
9
-5
-25
-19
2
10
1
-3
-3
4
10
7
-4
-18
-11
-3
-9
-9
-8
-8
-11
-14
-6
-15
-31
-18
-6
-4
-1
3
-3
3
-8
-1
7
-4
-6
-14
-21
-13
-9
-9
-1
-18
-21
-18
-20
-2
4
-9
-28
-23
-14
-6
-12
-21
-23
-23
-14
2
-2
-10
8
10
-5
-12
3
23
44
61
76
87
95
111
113
112
119
126
97
82
98
104
80
60
40
-1
-11
-23
-39
-40
-37
-28
-24
-24
-19
-11
9
10
5
3
-6
-4
-11
-15
1
5
-3
-10
-8
-12
-10
5
-4
-4
5
-7
-17
-8
10
20
9
4
-1
15
18
-3
2
3
1
6
0
-4
-1
8
15
22
14
5
3
6
19
17
21
23
11
7
12
11
19
27
23
7
24
22
6
19
20
30
42
41
34
34
43
54
48
43
30
30
48
65
62
55
60
63
49
49
52
52
51
55
52
53
52
71
53
53
53
42
43
40
36
56
53
42
41
44
25
13
11
29
35
25
24
18
6
4
13
12
1
-14
-9
6
8
8
-2
2
5
9
0
7
10
-8
-14
-13
-23
-23
-14
-7
-1
6
3
1
2
-1
-8
-1
0
-3
-1
-9
-10
-17
-18
-21
-30
-9
17
15
0
-8
-7
4
0
-13
-6
4
-3
-7
-14
-13
-5
-2
2
0
-10
-21
-10
-15
-8
-4
-1
-3
-10
-2
8
8
7
-4
-2
-5
-13
-14
5
13
8
2
-6
-10
-4
-10
-12
-2
4
-2
-17
-20
-14
-9
4
3
5
10
11
8
16
3
-14
-19
-19
-12
-11
-20
-18
19
10
-27
-20
-8
-1
-8
-18
-20
-16
-16
-9
0
-1
-22
-3
9
5
8
-3
-2
0
-10
-18
-18
-9
0
6
-10
-9
-13
-10
-12
-8
-20
-23
-29
-23
1
7
12
-2
-12
-8
-12
-5
-2
-1
-12
-13
-12
-5
-6
-13
-19
-8
-11
-13
-13
-12
-18
-1
11
-10
-7
-3
-17
-24
-17
-17
-29
-23
15
-2
-2
6
6
-3
-7
-7
-17
-16
3
2
4
14
16
8
-4
9
5
-11
-7
8
0
-3
2
-4
0
-4
-5
-10
-1
3
-15
-28
-5
4
-13
-14
-18
-17
-18
-22
-26
-18
-21
-17
-15
-1
-7
-18
-12
-6
-5
-6
1
1
-7
-7
5
6
-15
-26
-27
-17
-14
-12
-12
-9
-6
-8
4
14
-7
-25
-22
-16
-12
-10
-17
-22
-17
-11
-3
15
42
89
117
100
84
90
94
91
105
104
87
78
85
80
59
31
9
-11
-35
-32
-33
-36
-33
-21
-7
-19
-20
-4
-6
-8
-15
-15
-8
6
-3
-19
-26
-12
-3
-1
-1
5
5
-5
-12
-12
-4
6
13
0
0
10
8
7
9
11
-3
-18
-8
21
11
-13
-17
-21
-8
9
14
2
12
7
6
1
9
29
21
8
6
22
35
32
19
9
11
25
28
24
28
19
11
25
35
36
32
26
27
34
45
50
38
28
30
43
58
51
50
49
47
54
48
48
52
57
64
59
55
57
57
47
48
46
41
33
33
26
18
26
22
30
30
25
11
3
21
31
17
12
21
31
7
-15
-9
-1
-3
-4
1
0
-4
8
-8
-11
2
-10
5
11
2
-4
-17
-30
-26
1
-11
-20
3
5
5
-1
-5
-9
-12
-9
-8
-10
-7
-3
-1
-11
-4
11
15
3
-14
-10
-20
-7
2
3
-11
-10
-23
-13
-1
-16
-11
8
-1
-11
-13
3
0
-6
-4
-1
1
-12
-2
-1
4
-7
-15
-9
-9
-12
-5
-3
-11
-1
17
21
-16
-20
-15
-21
-18
-4
-13
-4
12
1
-8
10
6
-2
2
4
-14
-14
-10
-6
3
-5
-17
-9
17
16
-6
-9
-7
-4
-5
-18
-1
3
-9
-6
-5
-17
-39
-19
-6
-1
-3
1
-3
2
14
3
-3
-9
-14
-10
-10
-8
-9
-1
2
-3
-9
2
6
1
-5
-9
-13
-22
-17
0
3
-5
-1
-2
-14
-16
-17
-7
-12
5
4
-6
-11
-13
-15
-8
-5
5
8
-3
-7
-5
-12
-17
-1
-4
-4
-4
-11
-12
-14
-11
-10
-4
-5
1
-2
6
4
1
-2
6
-3
-18
-10
-13
-17
-18
-7
0
1
-11
-19
-4
10
13
-5
-11
-12
-1
-5
-10
-12
-7
-2
6
-5
-8
-8
2
0
5
1
11
-2
6
6
-3
4
5
0
8
7
6
4
15
1
-10
-8
-16
-4
-4
-5
-13
0
10
5
-3
-1
0
-11
-8
-9
-7
-15
-25
-11
-1
11
4
3
1
20
13
-11
-16
-9
-8
-1
-6
-9
-10
-5
0
-10
-25
-18
-7
5
3
-16
-11
0
-7
-17
-9
-9
-14
-6
14
19
19
48
71
76
101
116
118
111
110
112
122
110
98
103
91
57
32
28
-4
-21
-2
-17
-24
-17
-24
-13
8
-3
-6
10
14
-1
5
16
24
7
5
0
-12
-14
-9
2
-4
10
9
-3
-5
-6
1
9
29
33
9
2
-2
14
21
8
7
4
10
25
21
9
13
11
5
9
17
4
6
9
11
8
25
28
21
13
13
29
35
35
33
42
36
27
35
35
34
36
28
17
27
46
57
52
47
48
55
47
46
44
46
50
56
72
74
69
55
49
53
71
65
63
56
53
61
68
53
46
49
61
49
46
42
49
62
51
53
38
20
17
23
32
47
42
28
1
-5
15
15
9
9
14
17
8
16
14
8
4
-11
0
8
3
4
7
12
4
-11
-8
7
11
5
3
0
-4
-13
1
16
-3
-10
0
14
7
7
8
11
11
16
11
-3
-15
-18
-10
-13
-3
0
2
6
7
1
3
8
27
27
9
4
2
0
-9
-3
-2
-5
4
6
13
4
7
6
5
-2
-10
15
19
10
3
1
10
10
9
5
6
2
0
-4
-4
-2
13
8
5
8
8
1
6
2
-2
-3
0
7
16
12
1
0
4
-1
-4
-3
7
10
22
22
5
3
-2
-15
-13
8
9
-7
-3
6
4
5
4
3
7
2
6
3
14
14
3
1
13
7
1
-12
-19
-6
-19
-13
13
11
14
12
11
11
17
14
-4
-11
-10
-1
0
1
13
20
8
5
1
0
1
-11
-16
-12
-1
23
29
20
13
-3
-2
-4
-9
-1
8
0
-5
6
4
2
6
0
8
20
12
1
6
5
1
9
11
4
3
4
0
13
9
9
6
5
18
29
28
15
11
17
5
6
14
5
-2
-6
-6
5
6
-2
-7
-4
3
6
13
7
1
-8
0
5
4
3
-1
-7
-10
-9
-5
0
2
0
9
22
11
-7
-9
-7
-1
4
0
-1
13
7
10
6
1
-5
-17
-19
-6
-7
14
26
34
58
80
104
113
128
126
122
123
128
127
128
121
113
98
78
61
25
-9
-21
-22
-20
-28
-28
-24
-11
-2
-8
-7
14
10
17
24
19
5
8
13
6
5
9
2
4
2
-13
-13
11
18
32
22
4
-13
-3
1
14
34
27
12
12
8
18
17
12
7
-4
-7
12
17
15
39
29
17
16
17
19
16
16
29
21
19
21
27
34
41
49
42
36
38
36
28
32
31
24
29
40
49
46
44
28
53
69
68
53
54
60
63
67
63
64
61
55
64
67
66
56
51
49
59
67
80
66
63
56
64
65
63
43
25
31
46
48
33
27
36
31
24
29
25
19
8
11
-1
7
19
22
16
13
-1
6
11
7
-4
-11
-10
-3
-4
5
23
11
-2
4
15
-3
-5
-6
-5
4
2
4
2
-7
-8
4
3
-10
-3
4
10
7
-13
-16
-12
2
17
4
-9
-8
-17
-11
6
7
-3
7
16
-1
3
10
1
-13
-8
-3
-1
4
11
1
-2
11
1
6
15
14
-3
3
3
-5
-12
-8
-16
-22
-21
-13
5
16
9
17
16
3
-11
-6
1
3
9
1
12
20
10
4
0
-6
-10
-4
2
7
-8
-5
2
7
4
-7
-13
-10
-4
-6
-9
-15
-11
-4
4
13
2
-10
6
10
18
10
-18
-13
-11
-14
-9
-2
6
1
-2
-6
-8
0
-11
-11
10
14
4
-5
-10
-2
-8
-15
-21
-9
-1
4
1
10
12
3
4
5
8
-3
4
-2
-8
-6
-3
2
-6
-27
-27
-24
-4
6
4
-13
-17
-1
3
1
2
2
-1
-6
5
9
2
-1
7
11
9
8
18
34
13
-14
-22
-33
-11
10
4
-11
-9
-9
-16
-12
-7
-14
-18
1
11
1
-1
0
-4
-1
0
-1
6
8
-10
-25
-20
-11
-8
-4
-7
0
7
-16
-26
-25
-16
-8
-6
-15
-20
-12
0
-1
-9
-14
-5
-4
-7
-11
-8
-13
-16
6
46
60
61
74
91
96
100
111
113
108
115
117
96
84
84
64
39
19
-6
-16
-20
-26
-29
-23
-27
-17
-15
-5
-9
-6
1
0
-7
5
11
11
11
-12
-27
-8
16
3
-7
4
7
1
-11
-6
1
-1
0
-5
-1
3
2
4
5
7
16
12
9
13
15
22
16
0
-1
11
20
22
14
11
3
9
17
32
29
19
12
0
20
25
21
22
25
24
20
12
20
31
37
41
33
37
43
45
41
38
46
58
63
41
35
43
44
50
48
53
60
61
57
52
55
53
57
46
46
44
51
49
56
54
51
46
30
33
40
41
42
25
19
27
26
18
11
22
39
19
6
3
-5
-9
-3
1
-4
-3
0
4
3
7
11
5
-3
-11
-13
-8
-13
-8
-2
-12
-11
2
4
6
-2
-7
7
3
-5
-13
-13
-4
-7
-13
-12
-16
-13
-3
4
3
4
6
-1
-10
-6
-2
-9
-21
-8
-1
-2
-10
-6
3
-4
4
17
11
-6
-2
2
-1
-8
-14
-8
-3
3
1
-2
1
7
-1
-1
9
4
-5
-21
-18
-19
-11
9
-6
0
-2
-13
-10
-7
-3
-14
-12
7
11
8
6
8
7
6
-2
-21
-25
-10
-4
-10
-12
-13
-13
-4
3
1
1
-4
-7
-16
-32
-29
-11
-4
-11
-24
-8
16
13
-1
-3
1
-6
-25
-19
-9
-8
-7
4
8
5
19
20
8
-13
-24
-14
-11
-5
-4
-12
-10
-12
-14
-27
-32
-25
6
16
2
-5
-11
-2
-11
-1
5
-9
-14
-22
-15
-3
-2
7
7
-1
-8
-12
-14
-14
-8
-19
-10
-2
0
-4
-1
-6
-3
-8
6
15
14
3
-19
-11
-4
-5
-10
-12
-13
-8
-14
-16
7
0
-8
-3
-10
-11
6
10
-10
-6
-3
11
-1
-10
-7
-4
-13
-9
1
-10
-5
-10
-13
6
6
4
1
-6
2
3
3
8
7
2
2
15
21
5
-9
6
15
7
1
3
6
3
10
7
-3
-18
-19
-23
-19
-15
-10
-4
2
10
-2
-11
6
-1
-6
-14
-20
-21
-14
-7
5
13
10
-3
-16
-11
-3
-6
-8
-11
-17
-26
-6
10
9
-3
-14
-8
-1
-4
-7
-11
-18
-12
2
9
17
24
41
72
89
94
99
112
130
126
121
116
104
96
94
106
83
49
4
-6
-6
-24
-34
-31
-34
-28
-18
-2
-3
2
9
1
-1
3
5
3
-4
2
6
5
3
6
5
4
9
8
-9
-17
-9
-6
-9
1
14
18
12
9
0
7
7
3
6
12
12
1
-5
2
12
7
5
18
18
15
15
23
19
21
19
16
24
31
45
35
23
25
31
20
18
30
27
26
28
27
29
43
33
31
34
43
53
50
36
33
32
51
70
63
63
56
54
56
65
70
79
73
52
40
59
64
50
49
52
51
46
55
53
44
32
44
39
30
33
36
38
42
40
27
11
8
14
21
21
15
5
11
16
8
4
-3
3
-1
-10
4
7
5
-7
-3
-5
-23
-10
-6
-10
-5
-6
-5
8
8
-2
-3
0
2
18
7
1
4
1
2
-1
-5
-4
2
2
-12
-30
-19
-11
-3
9
-5
-15
1
19
14
5
-7
-14
-10
-11
-1
-2
-1
7
7
7
11
5
-4
7
13
21
20
4
-3
-4
-6
-5
-9
-8
-10
-9
-6
-1
12
1
-11
-5
5
3
-17
-21
-4
8
13
-1
-1
9
5
10
19
13
-6
0
12
1
-1
-4
-6
1
-1
-10
-10
-10
-6
-4
-4
3
3
3
5
7
2
-7
-1
-4
-8
-10
5
13
7
-6
-2
6
-15
-20
-16
-2
-6
-2
13
3
-2
-7
-3
0
-15
-10
1
0
1
4
-1
-15
-10
10
6
-3
-7
-6
-8
-9
2
-5
-5
-1
-2
13
13
11
1
-12
-8
-9
-5
-5
-5
-7
-1
6
3
3
3
5
-1
-2
-8
-18
-22
-7
-2
-7
-3
4
-2
-12
-20
-18
-6
12
1
-7
3
5
-7
-9
-21
-4
10
1
2
-1
-7
-1
8
12
12
7
-13
-10
-13
-15
-15
-6
-5
-20
2
2
-6
0
2
1
-12
-4
4
7
0
7
4
1
8
0
-3
1
-7
-1
-2
-4
-12
3
6
11
14
11
14
4
-4
6
13
6
1
12
11
11
16
23
29
9
-15
-23
2
12
-4
-19
-16
-19
-8
0
4
0
-17
1
11
1
-12
-18
-21
-12
16
7
-8
-10
1
4
4
7
4
-8
-5
3
-17
-17
14
10
-3
1
-1
0
-9
-20
-18
-6
11
-5
-7
-3
-14
-24
-10
3
9
12
17
26
46
79
94
99
119
122
131
131
122
129
114
107
107
113
79
34
3
-5
-14
-28
-34
-25
-16
-8
-17
-11
-3
-20
-10
0
-9
-1
6
-2
-2
-3
3
1
4
13
17
13
10
22
0
-15
-3
10
-4
-3
8
19
7
19
20
18
27
17
10
3
8
11
11
-4
-3
10
8
4
8
23
29
35
35
31
16
18
28
18
16
-6
0
28
23
29
35
48
46
37
38
31
44
60
51
37
28
22
29
38
49
63
66
63
64
68
71
65
62
53
66
74
60
60
68
60
54
50
60
76
68
60
64
59
55
46
46
40
25
42
38
30
37
28
5
20
35
26
21
14
12
2
0
10
12
6
2
-5
7
13
17
5
-2
8
10
2
-16
-9
10
11
3
11
12
-3
-4
13
8
12
9
3
-4
-13
-12
-19
-9
9
3
-10
-17
-3
2
8
-1
10
11
13
5
-7
1
13
-2
0
16
10
5
10
12
0
-6
14
2
-7
-7
6
3
4
5
-3
-5
-19
-14
-3
-4
-4
-2
3
12
6
4
5
4
9
17
9
8
6
-10
-7
7
8
-9
16
12
-2
-3
5
-3
-5
-2
1
-4
10
6
-14
0
23
14
-8
-4
6
14
11
-4
-10
-6
0
-3
-11
9
18
16
15
1
-3
-5
-3
-2
-16
-12
-8
-6
11
7
1
1
-9
-12
0
-1
-2
5
11
5
-1
-3
-9
-5
0
-6
4
3
12
5
-5
7
-7
-19
-21
-9
2
9
6
1
3
9
11
7
-4
-13
-6
0
1
-13
-1
13
3
-11
-9
-15
-8
6
3
-11
-22
-5
-3
-5
17
7
-11
0
5
-5
-2
1
-4
-16
-11
-1
4
7
-5
-2
8
6
8
3
-22
-11
9
13
2
-3
-8
-16
-14
2
-4
-12
-17
-24
4
15
8
-8
-7
0
0
-10
-9
-2
6
10
-4
-21
2
23
9
-5
3
7
3
-3
11
11
9
4
-10
-8
15
26
6
3
-1
11
3
10
-8
-8
1
4
13
5
13
11
6
7
5
7
4
-13
-19
-8
-11
-11
-12
-4
5
5
-1
-8
-3
-1
-11
-9
-1
-14
-18
4
-1
-17
-7
-9
-16
-2
-5
-6
-3
-8
9
12
-4
-7
4
-5
-5
15
7
-13
-20
-20
-16
-7
5
29
45
51
76
102
107
102
98
121
119
105
99
102
93
86
83
81
39
-4
-19
-24
-16
-20
-26
-31
-35
-23
-9
-2
6
5
3
10
15
4
-7
-2
5
-3
-12
-13
-14
-9
-9
2
24
25
13
-6
-10
6
1
4
13
10
10
26
18
2
8
27
20
17
14
9
-4
1
9
12
14
11
15
21
19
13
-3
2
34
36
29
25
16
15
19
21
10
8
25
43
39
43
60
52
45
49
47
42
35
21
34
50
45
43
51
48
65
66
59
59
64
59
64
58
51
44
44
41
50
54
63
67
66
61
60
62
44
42
37
44
36
42
35
-4
13
26
24
29
20
0
4
17
10
1
-2
6
6
3
-7
-6
4
3
-7
-8
-6
3
8
5
12
16
-3
-9
-5
0
9
0
-7
-24
-32
5
12
-8
-8
10
-4
-18
-9
-2
-7
-3
-12
-27
-20
10
14
7
6
-3
0
1
-8
-3
0
-2
3
-2
-16
-7
1
2
-1
-1
4
13
7
-11
-9
-1
0
4
7
3
-7
-9
-10
-10
-16
-19
-14
2
-5
9
15
10
-1
8
2
-7
-8
-6
3
8
18
5
-18
-15
-6
0
11
0
-4
10
7
-21
-26
-4
4
1
-19
-12
-5
-5
7
11
9
-6
-9
-8
-6
-9
-18
0
10
12
16
1
-10
-18
-9
0
-5
-7
-9
2
2
-1
-1
8
0
2
-9
-23
-9
-3
-12
-16
-16
-12
-21
-11
3
12
1
-2
1
-7
2
0
-1
-10
-9
4
6
4
11
6
-8
-18
-12
-2
-6
-7
-19
-9
3
1
9
-1
-8
-6
3
-5
-25
-23
-22
-14
-3
2
13
-4
-10
1
-2
-9
1
-3
2
-1
-18
-8
-6
-7
-1
11
9
15
-5
-7
-8
4
0
2
0
-8
-9
-18
-23
-3
3
6
-10
-22
-7
-6
4
1
2
-1
-12
1
15
11
-7
-7
-10
0
10
-7
-17
-7
4
9
-8
-6
5
10
14
21
20
6
-17
-19
-15
-11
-2
10
5
5
7
6
-1
-7
4
13
14
-2
1
0
12
2
7
8
-4
-4
0
-2
-7
3
9
1
2
-1
-16
-20
-20
-12
-4
-11
-6
-10
-6
1
-1
1
12
4
-11
-11
-8
-8
-12
-5
2
6
3
-12
-9
-21
-24
-10
13
4
-6
-13
-7
-8
13
50
73
82
81
96
121
124
132
131
131
117
105
96
86
88
63
36
1
-13
-22
-26
-12
-7
-5
-20
-24
-3
-9
-9
-3
7
7
6
-1
3
1
-9
-5
-11
-3
-3
-7
-4
10
8
2
6
16
21
4
3
27
13
-8
4
14
1
-15
-13
11
13
3
7
9
7
12
12
10
10
13
6
4
10
34
42
32
10
7
-6
11
41
48
32
31
22
11
28
34
25
27
25
40
49
47
45
46
40
37
47
51
45
58
53
48
53
55
63
59
50
54
64
72
60
55
60
70
55
53
47
54
62
63
60
50
44
40
36
35
33
23
23
27
29
25
27
27
16
17
22
7
0
6
-2
1
6
-3
-4
0
4
-4
1
-2
-1
1
24
3
-20
-2
-8
1
4
-3
-8
5
-16
-11
1
-13
-21
-6
4
-7
-14
-8
0
-5
-2
10
-2
-4
9
15
5
20
24
-10
-16
-14
-11
-8
-16
-17
-16
-10
-10
-11
-11
-12
-6
9
3
4
-13
-6
2
-2
12
9
-7
0
4
8
1
-9
-10
-9
-1
2
-2
1
-4
9
21
11
1
-1
-2
2
-1
-9
-4
-1
3
-9
-9
-14
-20
-6
0
5
5
0
7
9
7
2
-10
1
4
1
1
-4
-3
2
9
14
-3
-16
-16
-4
-1
-9
-4
-3
-5
-16
-17
-4
8
1
-5
-12
3
13
6
0
3
-8
-9
-4
-1
6
7
-6
-11
0
-15
-22
-1
6
-1
-6
-2
-14
-7
10
10
7
-7
-19
-9
6
12
14
2
3
-14
-23
-17
-11
-4
-2
-9
-1
-10
-6
2
9
6
-3
-3
-3
-2
5
-1
-14
-6
-2
-5
3
6
-5
-18
-10
-3
-7
-3
2
-10
5
-4
-12
-6
-2
-1
8
-12
-10
-7
-3
2
-1
-3
-5
-3
-12
-8
-1
4
5
-15
-15
4
26
14
3
-5
-4
-8
7
