-136
-124
-125
-126
-129
-128
-125
-119
-115
-119
-124
-128
-129
-131
-129
-128
-128
-135
-136
-131
-134
-135
-134
-131
-127
-123
-125
-126
-125
-126
-128
-129
-132
-131
-131
-128
-132
-131
-131
-137
-137
-134
-131
-130
-130
-125
-120
-120
-120
-123
-128
-124
-119
-120
-114
-108
-115
-124
-119
-117
-121
-120
-120
-118
-116
-114
-115
-115
-119
-121
-123
-124
-125
-128
-131
-132
-140
-138
-128
-133
-136
-138
-137
-137
-134
-131
-130
-131
-130
-131
-132
-134
-131
-129
-130
-124
-120
-111
-105
-95
-77
-57
-41
-18
3
17
18
18
24
25
18
-12
-54
-90
-134
-173
-210
-238
-246
-244
-242
-218
-203
-194
-192
-191
-191
-187
-178
-175
-164
-159
-155
-159
-153
-149
-144
-141
-137
-134
-135
-128
-127
-129
-129
-131
-129
-127
-127
-127
-128
-128
-128
-126
-127
-121
-124
-125
-123
-125
-126
-126
-123
-122
-124
-122
-124
-123
-122
-117
-117
-115
-116
-117
-115
-114
-111
-108
-110
-113
-108
-106
-108
-104
-99
-104
-102
-102
-100
-103
-103
-96
-95
-94
-86
-87
-89
-85
-87
-90
-87
-89
-89
-84
-85
-87
-88
-88
-93
-94
-92
-96
-97
-97
-87
-91
-90
-86
-91
-96
-95
-96
-100
-100
-101
-105
-105
-103
-105
-105
-104
-107
-113
-112
-111
-117
-122
-122
-117
-115
-116
-115
-115
-114
-115
-121
-123
-119
-126
-128
-122
-123
-123
-120
-125
-125
-125
-130
-133
-131
-123
-117
-121
-120
-120
-122
-124
-127
-127
-126
-124
-129
-129
-124
-121
-121
-117
-120
-120
-126
-123
-123
-123
-122
-125
-125
-126
-124
-132
-123
-114
-121
-124
-119
-120
-122
-123
-126
-126
-123
-117
-121
-119
-121
-122
-124
-124
-119
-121
-122
-122
-122
-127
-127
-128
-127
-128
-128
-129
-126
-126
-124
-119
-120
-121
-124
-126
-126
-131
-128
-123
-125
-125
-126
-128
-128
-131
-136
-134
-137
-134
-133
-122
-116
-117
-119
-117
-117
-117
-117
-123
-124
-115
-114
-112
-112
-115
-119
-121
-116
-116
-115
-109
-108
-108
-112
-114
-120
-121
-119
-118
-122
-127
-132
-127
-131
-135
-133
-134
-133
-132
-134
-124
-123
-126
-127
-129
-128
-127
-126
-127
-129
-125
-123
-126
-120
-118
-113
-96
-75
-62
-51
-24
-3
9
16
19
25
33
29
4
-38
-78
-117
-159
-199
-221
-235
-237
-229
-214
-202
-188
-184
-184
-181
-180
-177
-172
-167
-161
-150
-144
-145
-146
-142
-138
-140
-139
-135
-136
-138
-135
-136
-138
-138
-137
-132
-124
-125
-123
-125
-124
-128
-127
-123
-124
-127
-126
-125
-126
-123
-123
-124
-125
-123
-127
-129
-128
-122
-122
-122
-122
-119
-113
-116
-112
-120
-116
-116
-114
-113
-108
-107
-104
-105
-101
-105
-99
-97
-102
-101
-100
-101
-96
-90
-92
-96
-96
-95
-95
-96
-100
-101
-102
-100
-104
-105
-105
-102
-101
-99
-103
-97
-97
-98
-97
-100
-100
-107
-111
-107
-105
-110
-108
-112
-113
-112
-113
-115
-114
-113
-119
-120
-122
-123
-127
-121
-117
-116
-124
-127
-124
-126
-123
-122
-126
-125
-124
-124
-129
-126
-126
-126
-126
-135
-137
-133
-135
-130
-122
-123
-125
-125
-124
-123
-126
-127
-125
-126
-129
-125
-121
-124
-131
-132
-131
-128
-125
-131
-128
-128
-129
-126
-127
-128
-127
-128
-126
-122
-126
-123
-124
-126
-123
-121
-124
-124
-120
-120
-125
-127
-125
-128
-123
-124
-128
-126
-126
-126
-123
-120
-122
-122
-121
-120
-126
-128
-128
-129
-134
-136
-128
-124
-122
-127
-125
-126
-124
-125
-124
-126
-127
-128
-125
-128
-133
-128
-131
-133
-132
-132
-132
-131
-135
-137
-129
-130
-131
-130
-128
-130
-136
-132
-126
-125
-124
-122
-123
-118
-117
-122
-117
-113
-112
-113
-111
-114
-120
-120
-116
-113
-112
-107
-106
-112
-114
-114
-116
-119
-122
-124
-126
-125
-129
-131
-131
-131
-127
-129
-132
-131
-135
-134
-132
-131
-132
-128
-132
-134
-128
-137
-135
-122
-118
-124
-119
-113
-106
-89
-74
-56
-41
-18
3
11
13
16
30
43
35
1
-43
-81
-116
-159
-196
-220
-228
-227
-217
-200
-188
-184
-181
-180
-178
-173
-166
-157
-150
-153
-149
-146
-147
-147
-140
-136
-142
-135
-126
-127
-131
-133
-134
-128
-126
-127
-127
-128
-127
-129
-128
-127
-127
-126
-125
-121
-128
-125
-116
-117
-117
-115
-116
-118
-114
-118
-118
-118
-118
-116
-118
-117
-119
-119
-116
-111
-112
-112
-103
-104
-106
-99
-99
-104
-102
-103
-104
-101
-96
-97
-95
-93
-88
-87
-87
-88
-88
-93
-86
-84
-87
-82
-83
-83
-85
-89
-89
-86
-84
-83
-84
-89
-96
-97
-89
-94
-93
-93
-92
-95
-98
-99
-101
-101
-104
-107
-110
-109
-107
-106
-106
-102
-108
-109
-109
-112
-112
-112
-112
-113
-114
-115
-118
-116
-117
-121
-122
-119
-116
-121
-117
-114
-120
-122
-117
-118
-122
-121
-122
-123
-116
-117
-122
-120
-119
-122
-120
-118
-120
-122
-124
-125
-130
-123
-122
-127
-120
-111
-111
-115
-117
-116
-119
-118
-119
-120
-119
-118
-120
-122
-117
-118
-122
-120
-116
-120
-121
-121
-122
-122
-117
-118
-117
-116
-115
-119
-117
-114
-120
-121
-117
-118
-116
-117
-120
-122
-122
-123
-122
-127
-128
-128
-123
-122
-116
-120
-120
-118
-117
-113
-115
-113
-117
-123
-124
-121
-119
-121
-124
-120
-121
-118
-120
-118
-119
-121
-120
-117
-120
-121
-122
-124
-122
-123
-122
-129
-132
-125
-130
-133
-125
-124
-118
-117
-113
-110
-110
-112
-115
-114
-113
-111
-110
-103
-103
-107
-110
-105
-105
-108
-106
-106
-103
-103
-108
-113
-117
-118
-122
-116
-120
-124
-123
-121
-120
-125
-128
-128
-127
-124
-121
-129
-128
-120
-121
-127
-127
-122
-123
-125
-122
-129
-122
-116
-108
-97
-78
-59
-43
-22
-6
9
16
22
24
35
43
25
-19
-62
-100
-137
-173
-205
-218
-218
-216
-205
-197
-184
-177
-178
-175
-170
-168
-165
-155
-149
-149
-147
-144
-140
-131
-124
-128
-134
-129
-130
-131
-128
-129
-129
-124
-127
-127
-125
-124
-126
-123
-122
-122
-122
-121
-121
-120
-121
-119
-119
-116
-118
-117
-120
-120
-117
-119
-118
-118
-115
-113
-105
-103
-107
-105
-103
-107
-108
-106
-107
-107
-99
-94
-98
-99
-97
-97
-92
-92
-93
-91
-90
-89
-85
-85
-83
-88
-87
-84
-84
-83
-83
-83
-81
-81
-84
-81
-85
-83
-86
-87
-89
-87
-87
-84
-93
-92
-87
-86
-92
-89
-85
-89
-94
-94
-97
-100
-99
-102
-102
-100
-103
-105
-99
-101
-105
-109
-108
-110
-110
-111
-110
-112
-116
-115
-115
-117
-116
-116
-117
-119
-117
-121
-117
-116
-121
-117
-119
-118
-115
-118
-119
-121
-118
-118
-119
-115
-118
-124
-123
-116
-114
-118
-120
-117
-118
-120
-122
-120
-119
-119
-118
-119
-117
-117
-118
-116
-116
-117
-116
-114
-119
-120
-116
-116
-123
-121
-118
-122
-124
-115
-117
-122
-119
-116
-119
-119
-117
-122
-120
-117
-118
-122
-118
-123
-120
-118
-116
-120
-119
-118
-122
-120
-120
-121
-120
-119
-123
-123
-124
-120
-118
-121
-121
-124
-130
-126
-120
-120
-121
-121
-123
-124
-123
-128
-127
-129
-132
-133
-127
-126
-129
-111
-110
-114
-114
-116
-112
-113
-111
-108
-108
-112
-113
-116
-120
-118
-114
-109
-107
-111
-110
-113
-116
-118
-120
-119
-121
-124
-128
-129
-133
-135
-137
-137
-129
-119
-122
-128
-127
-129
-131
-128
-127
-127
-129
-129
-130
-126
-121
-122
-121
-117
-108
-100
-72
-53
-34
-10
11
21
25
25
31
32
16
-21
-66
-102
-145
-186
-217
-242
-250
-249
-237
-224
-208
-199
-195
-196
-196
-192
-180
-177
-169
-158
-153
-154
-156
-153
-152
-147
-144
-143
-139
-136
-141
-141
-138
-136
-135
-136
-133
-133
-136
-131
-133
-133
-132
-135
-136
-135
-129
-131
-129
-134
-131
-133
-134
-135
-135
-118
-117
-123
-122
-121
-123
-125
-125
-125
-121
-123
-121
-117
-115
-116
-117
-115
-112
-116
-110
-109
-110
-109
-110
-110
-109
-108
-108
-106
-106
-96
-99
-100
-102
-102
-100
-100
-97
-99
-101
-95
-95
-100
-99
-101
-106
-107
-106
-110
-115
-108
-108
-107
-108
-108
-112
-114
-116
-122
-118
-115
-119
-123
-120
-120
-124
-125
-128
-133
-131
-135
-138
-140
-141
-140
-141
-141
-142
-142
-141
-142
-142
-143
-142
-145
-147
-150
-153
-156
-149
-151
-149
-143
-139
-143
-145
-144
-143
-148
-146
-144
-147
-146
-145
-152
-150
-147
-145
-152
-148
-149
-155
-149
-149
-147
-148
-146
-150
-148
-146
-150
-155
-151
-149
-151
-153
-148
-150
-148
-146
-143
-143
-147
-151
-156
-160
-156
-152
-156
-153
-148
-142
-150
-150
-147
-150
-152
-153
-155
-151
-153
-156
-157
-154
-156
-158
-156
-159
-160
-157
-153
-155
-158
-155
-159
-159
-163
-159
-161
-159
-160
-163
-162
-159
-155
-160
-155
-159
-159
-151
-153
-151
-147
-145
-144
-145
-147
-149
-148
-146
-145
-149
-146
-145
-147
-147
-152
-159
-158
-165
-162
-164
-157
-167
-163
-164
-162
-165
-164
-164
-166
-170
-171
-169
-168
-169
-170
-169
-167
-164
-164
-165
-157
-159
-165
-159
-154
-145
-127
-105
-88
-69
-49
-31
-20
-16
-16
-8
-3
-24
-69
-115
-149
-192
-228
-267
-292
-298
-290
-279
-265
-253
-240
-240
-228
-219
-217
-218
-210
-204
-203
-197
-194
-190
-189
-189
-187
-186
-181
-182
-179
-180
-177
-178
-178
-177
-174
-173
-177
-176
-174
-171
-169
-175
-177
-176
-180
-176
-179
-184
-171
-165
-164
-164
-166
-167
-168
-169
-170
-167
-173
-171
-161
-165
-162
-160
-162
-160
-158
-159
-159
-152
-150
-157
-156
-149
-153
-150
-149
-146
-145
-144
-145
-147
-143
-141
-143
-139
-142
-143
-140
-137
-135
-135
-136
-136
-139
-140
-143
-145
-145
-146
-145
-146
-145
-147
-146
-154
-150
-150
-148
-156
-155
-157
-162
-166
-165
-156
-154
-157
-162
-165
-166
-170
-172
-174
-172
-172
-171
-175
-177
-179
-180
-175
-174
-173
-175
-175
-176
-179
-180
-182
-183
-185
-184
-186
-182
-179
-182
-179
-178
-181
-182
-181
-180
-181
-185
-182
-182
-187
-192
-181
-178
-180
-181
-179
-179
-173
-175
-177
-180
-177
-181
-181
-184
-182
-177
-179
-180
-180
-178
-177
-177
-176
-180
-175
-178
-180
-180
-187
-181
-177
-180
-180
-182
-180
-179
-179
-176
-177
-177
-177
-175
-175
-176
-176
-178
-181
-191
-198
-185
-179
-182
-187
-186
-186
-187
-184
-181
-178
-178
-178
-178
-177
-177
-181
-185
-172
-174
-171
-170
-165
-169
-172
-171
-173
-173
-169
-166
-171
-169
-174
-172
-174
-176
-176
-178
-183
-185
-187
-187
-189
-189
-190
-186
-189
-187
-184
-183
-188
-192
-189
-185
-189
-187
-180
-184
-178
-176
-179
-180
-168
-161
-150
-137
-119
-104
-78
-52
-36
-37
-42
-36
-26
-35
-69
-110
-150
-187
-226
-261
-294
-304
-303
-302
-285
-265
-249
-243
-242
-239
-237
-233
-227
-224
-215
-213
-207
-206
-207
-195
-192
-190
-191
-194
-193
-193
-192
-196
-197
-190
-186
-183
-184
-186
-186
-186
-182
-182
-182
-180
-181
-182
-181
-182
-186
-178
-180
-183
-186
-177
-177
-181
-177
-174
-176
-173
-172
-171
-172
-172
-173
-168
-166
-165
-166
-164
-163
-165
-162
-160
-158
-162
-158
-155
-158
-153
-149
-141
-141
-141
-141
-140
-143
-142
-146
-145
-147
-145
-144
-145
-141
-143
-146
-147
-149
-148
-149
-151
-149
-144
-148
-146
-147
-154
-153
-153
-156
-157
-152
-155
-159
-158
-157
-161
-160
-160
-168
-171
-171
-175
-177
-168
-163
-170
-169
-166
-170
-173
-169
-170
-171
-174
-177
-178
-177
-175
-180
-182
-183
-182
-179
-180
-181
-184
-184
-178
-171
-178
-176
-176
-176
-172
-174
-181
-184
-180
-174
-178
-179
-175
-176
-176
-176
-179
-169
-171
-173
-176
-176
-174
-176
-171
-172
-173
-174
-171
-176
-173
-166
-170
-170
-172
-174
-174
-171
-174
-176
-178
-178
-180
-173
-172
-168
-167
-169
-169
-173
-168
-174
-178
-176
-177
-180
-178
-177
-176
-172
-179
-174
-177
-177
-176
-175
-171
-162
-165
-170
-169
-166
-172
-171
-169
-169
-161
-157
-162
-162
-165
-166
-165
-163
-162
-159
-161
-158
-160
-160
-164
-168
-170
-171
-173
-179
-185
-178
-181
-181
-178
-174
-176
-177
-174
-180
-180
-181
-182
-179
-175
-174
-174
-174
-176
-172
-170
-175
-171
-168
-157
-137
-116
-99
-74
-55
-39
-30
-29
-22
-14
-13
-29
-66
-106
-145
-187
-225
-262
-285
-289
-284
-264
-253
-235
-230
-226
-223
-221
-219
-214
-206
-200
-197
-198
-196
-196
-196
-191
-183
-182
-181
-181
-179
-179
-179
-178
-181
-175
-174
-171
-175
-175
-177
-178
-174
-171
-172
-173
-171
-158
-161
-165
-171
-171
-176
-172
-165
-160
-165
-163
-165
-164
-162
-161
-164
-163
-155
-155
-156
-155
-157
-157
-153
-154
-156
-156
-153
-150
-148
-147
-143
-142
-140
-141
-141
-137
-137
-135
-134
-129
-141
-135
-138
-138
-137
-140
-142
-143
-148
-148
-148
-146
-151
-152
-150
-152
-154
-154
-152
-155
-156
-158
-161
-161
-159
-160
-164
-166
-160
-162
-163
-165
-170
-170
-172
-163
-166
-164
-169
-176
-173
-172
-171
-171
-169
-170
-172
-162
-162
-170
-168
-168
-168
-168
-170
-167
-164
-168
-169
-174
-172
-167
-170
-168
-173
-174
-167
-169
-168
-170
-170
-171
-172
-164
-164
-165
-168
-166
-164
-167
-168
-167
-164
-169
-166
-169
-168
-164
-166
-171
-170
-164
-160
-161
-161
-162
-163
-168
-169
-170
-170
-171
-168
-167
-167
-172
-174
-168
-164
-171
-171
-169
-171
-174
-173
-171
-169
-167
-163
-168
-165
-166
-166
-163
-162
-160
-159
-158
-154
-153
-152
-156
-160
-157
-156
-160
-153
-146
-151
-152
-150
-151
-157
-156
-164
-167
-167
-171
-174
-172
-174
-172
-178
-172
-168
-164
-164
-167
-166
-168
-166
-168
-170
-168
-170
-170
-166
-159
-166
-162
-157
-150
-137
-115
-97
-81
-57
-43
-31
-28
-20
-10
-4
-14
-47
-94
-131
-168
-204
-235
-260
-271
-266
-251
-241
-230
-224
-222
-220
-223
-217
-207
-204
-195
-187
-187
-185
-185
-183
-178
-174
-178
-179
-168
-171
-174
-171
-171
-172
-172
-174
-176
-175
-167
-166
-159
-159
-159
-160
-160
-161
-161
-165
-164
-167
-162
-159
-159
-163
-166
-163
-163
-164
-159
-159
-163
-160
-164
-159
-159
-154
-150
-149
-149
-147
-148
-147
-145
-147
-146
-142
-148
-150
-140
-135
-133
-132
-137
-139
-130
-131
-134
-130
-126
-125
-126
-127
-130
-133
-129
-126
-127
-130
-133
-132
-132
-131
-133
-133
-133
-138
-139
-137
-137
-142
-144
-143
-146
-148
-147
-145
-146
-146
-149
-153
-153
-154
-153
-150
-155
-158
-161
-160
-163
-156
-147
-152
-158
-161
-157
-158
-158
-158
-161
-162
-166
-165
-168
-165
-162
-160
-163
-167
-167
-162
-156
-157
-163
-163
-161
-163
-162
-160
-156
-160
-156
-153
-158
-162
-160
-167
-171
-168
-174
-176
-173
-154
-155
-162
-168
-167
-165
-163
-164
-164
-167
-166
-169
-168
-167
-167
-167
-169
-171
-169
-164
-163
-168
-168
-163
-165
-169
-164
-162
-163
-169
-170
-173
-174
-173
-172
-171
-170
-165
-165
-165
-165
-164
-167
-166
-173
-173
-168
-163
-167
-170
-164
-158
-157
-152
-155
-155
-151
-152
-152
-152
-157
-154
-154
-149
-148
-145
-144
-148
-152
-154
-156
-159
-163
-168
-168
-172
-168
-166
-169
-167
-167
-174
-174
-171
-168
-167
-165
-168
-168
-169
-170
-170
-169
-169
-173
-171
-170
-167
-162
-155
-150
-136
-113
-98
-85
-59
-42
-29
-23
-21
-14
-4
-11
-39
-83
-120
-157
-195
-233
-252
-270
-271
-260
-248
-234
-224
-220
-218
-219
-215
-212
-206
-200
-196
-189
-186
-182
-184
-173
-173
-174
-168
-167
-173
-175
-173
-174
-176
-166
-162
-162
-163
-165
-161
-165
-165
-164
-164
-165
-168
-171
-162
-161
-156
-152
-157
-160
-157
-157
-157
-159
-158
-157
-160
-155
-152
-154
-154
-148
-146
-148
-147
-144
-143
-146
-144
-138
-139
-140
-143
-145
-142
-131
-133
-129
-124
-127
-127
-125
-128
-127
-127
-128
-131
-126
-124
-128
-119
-120
-127
-125
-123
-126
-128
-130
-133
-136
-133
-127
-131
-135
-136
-136
-133
-137
-136
-136
-133
-135
-138
-141
-143
-144
-146
-152
-153
-152
-146
-149
-150
-155
-156
-158
-156
-153
-155
-161
-160
-156
-157
-157
-157
-158
-157
-162
-161
-161
-162
-162
-167
-166
-159
-155
-156
-155
-155
-153
-157
-158
-161
-160
-159
-162
-166
-165
-160
-157
-158
-158
-160
-161
-159
-161
-165
-160
-161
-158
-156
-157
-159
-156
-157
-161
-159
-161
-161
-159
-162
-171
-159
-160
-159
-157
-165
-155
-154
-157
-156
-161
-161
-165
-162
-165
-167
-162
-167
-170
-168
-169
-167
-162
-159
-159
-160
-155
-155
-158
-160
-163
-159
-159
-162
-157
-156
-150
-146
-150
-149
-151
-158
-156
-150
-148
-152
-150
-147
-151
-149
-156
-167
-163
-167
-166
-163
-161
-165
-169
-166
-169
-169
-170
-168
-168
-174
-172
-172
-173
-172
-173
-171
-167
-169
-171
-172
-165
-166
-165
-161
-159
-144
-124
-105
-91
-62
-39
-25
-27
-25
-21
-20
-30
-54
-93
-128
-163
-206
-242
-261
-279
-275
-266
-254
-239
-225
-228
-227
-225
-219
-218
-212
-201
-193
-196
-200
-196
-192
-183
-183
-181
-179
-175
-180
-183
-184
-176
-176
-174
-174
-176
-177
-179
-179
-176
-171
-175
-178
-175
-170
-170
-171
-169
-168
-166
-166
-166
-167
-164
-162
-170
-168
-164
-165
-167
-163
-161
-159
-163
-162
-162
-155
-155
-154
-151
-151
-150
-152
-153
-147
-150
-145
-139
-144
-143
-140
-141
-141
-139
-136
-140
-139
-137
-136
-133
-133
-133
-138
-141
-140
-140
-137
-129
-134
-131
-134
-142
-140
-139
-144
-143
-141
-141
-145
-145
-147
-148
-146
-151
-152
-153
-155
-158
-159
-159
-158
-152
-152
-158
-160
-165
-162
-165
-167
-164
-165
-168
-171
-166
-169
-176
-174
-172
-166
-167
-163
-164
-164
-162
-164
-168
-172
-176
-178
-174
-170
-164
-168
-170
-172
-170
-169
-168
-166
-165
-168
-169
-171
-169
-167
-163
-164
-167
-170
-166
-168
-169
-167
-160
-161
-167
-169
-166
-168
-165
-168
-169
-170
-167
-161
-166
-166
-168
-170
-167
-165
-168
-169
-167
-167
-169
-172
-172
-172
-174
-169
-172
-170
-165
-160
-159
-156
-156
-159
-159
-155
-156
-159
-160
-158
-160
-152
-153
-154
-156
-156
-158
-157
-153
-151
-154
-151
-151
-158
-163
-165
-161
-165
-169
-168
-160
-160
-169
-171
-170
-172
-176
-173
-170
-175
-175
-172
-170
-167
-165
-163
-171
-168
-165
-166
-169
-169
-169
-165
-150
-133
-117
-104
-82
-53
-30
-19
-16
-17
-9
-3
-25
-66
-109
-148
-196
-228
-259
-285
-283
-279
-263
-247
-228
-221
-221
-219
-221
-218
-210
-203
-200
-197
-197
-191
-189
-188
-183
-180
-179
-182
-181
-175
-178
-174
-169
-167
-171
-166
-170
-172
-169
-170
-170
-169
-169
-167
-168
-162
-166
-167
-165
-164
-165
-164
-163
-163
-162
-157
-156
-159
-161
-157
-159
-159
-160
-154
-156
-151
-147
-148
-153
-147
-142
-144
-144
-145
-144
-140
-143
-148
-141
-131
-135
-131
-133
-132
-133
-131
-128
-130
-130
-129
-131
-127
-129
-136
-134
-125
-130
-130
-135
-134
-137
-136
-137
-143
-143
-140
-143
-146
-143
-144
-147
-144
-146
-140
-144
-143
-144
-146
-149
-150
-152
-153
-156
-160
-161
-159
-161
-166
-170
-164
-166
-164
-163
-167
-165
-162
-164
-167
-165
-163
-168
-166
-165
-170
-166
-169
-177
-181
-178
-171
-164
-166
-167
-165
-168
-168
-172
-171
-166
-170
-174
-172
-167
-169
-175
-170
-167
-168
-174
-173
-174
-167
-165
-170
-172
-174
-175
-174
-172
-175
-168
-168
-168
-170
-170
-171
-173
-170
-171
-174
-174
-171
-174
-181
-182
-179
-174
-174
-175
-178
-180
-175
-173
-172
-168
-167
-165
-168
-168
-172
-173
-170
-165
-166
-168
-161
-165
-165
-167
-164
-163
-160
-158
-161
-165
-168
-171
-174
-176
-178
-177
-180
-183
-184
-180
-183
-183
-183
-178
-181
-184
-183
-184
-187
-185
-186
-177
-178
-178
-182
-179
-175
-176
-177
-173
-162
-146
-125
-115
-94
-67
-50
-37
-36
-39
-35
-27
-46
-82
-120
-163
-207
-243
-273
-297
-302
-292
-275
-262
-248
-241
-241
-240
-235
-226
-221
-219
-212
-211
-205
-196
-194
-193
-185
-184
-193
-193
-185
-185
-184
-184
-186
-185
-183
-185
-186
-181
-178
-182
-189
-184
-179
-180
-177
-176
-176
-178
-175
-174
-178
-177
-178
-174
-172
-170
-171
-171
-173
-178
-173
-171
-169
-169
-169
-168
-168
-165
-165
-164
-165
-158
-156
-157
-158
-154
-151
-152
-155
-154
-150
-151
-149
-149
-149
-150
-149
-146
-142
-146
-144
-135
-138
-142
-146
-144
-144
-147
-149
-152
-149
-148
-147
-152
-152
-154
-154
-151
-154
-154
-153
-153
-155
-158
-158
-160
-159
-157
-153
-162
-165
-171
-169
-168
-168
-171
-172
-170
-172
-174
-178
-170
-170
-172
-171
-174
-183
-181
-179
-177
-177
-177
-177
-175
-172
-171
-173
-174
-173
-176
-177
-177
-179
-174
-173
-173
-173
-176
-177
-174
-170
-166
-171
-171
-169
-172
-174
-171
-169
-170
-168
-171
-173
-176
-172
-176
-174
-175
-177
-179
-175
-175
-176
-168
-166
-170
-172
-173
-170
-172
-171
-174
-175
-174
-172
-176
-179
-168
-161
-163
-159
-160
-165
-169
-169
-169
-167
-163
-160
-159
-157
-158
-159
-156
-156
-154
-155
-156
-160
-158
-166
-168
-169
-173
-172
-175
-173
-170
-177
-178
-174
-180
-182
-177
-174
-178
-176
-172
-175
-178
-172
-171
-174
-172
-168
-170
-170
-174
-174
-169
-169
-152
-139
-119
-102
-88
-67
-53
-40
-36
-31
-25
-28
-45
-85
-123
-152
-190
-225
-257
-283
-284
-279
-255
-238
-231
-225
-221
-220
-217
-211
-208
-202
-194
-193
-194
-191
-185
-185
-186
-184
-180
-180
-177
-174
-176
-174
-170
-170
-171
-171
-172
-171
-169
-169
-166
-169
-167
-170
-168
-168
-170
-170
-163
-163
-164
-156
-160
-162
-164
-158
-158
-160
-157
-152
-154
-158
-157
-158
-158
-154
-153
-153
-153
-152
-150
-151
-149
-149
-148
-143
-138
-136
-137
-137
-131
-133
-134
-137
-136
-133
-133
-132
-133
-133
-131
-132
-138
-135
-130
-135
-137
-137
-135
-130
-130
-137
-138
-137
-139
-140
-139
-139
-141
-142
-145
-145
-145
-146
-145
-145
-147
-148
-152
-155
-152
-156
-160
-155
-159
-159
-160
-157
-156
-161
-160
-157
-158
-163
-163
-164
-167
-165
-168
-163
-164
-162
-164
-167
-163
-161
-162
-163
-161
-163
-159
-159
-162
-166
-166
-168
-174
-165
-166
-164
-165
-162
-164
-162
-160
-163
-165
-159
-160
-161
-158
-164
-166
-160
-157
-162
-166
-163
-160
-162
-164
-163
-165
-163
-164
-162
-160
-166
-172
-169
-166
-166
-167
-167
-166
-160
-161
-157
-158
-157
-160
-164
-167
-163
-157
-152
-147
-152
-159
-161
-154
-157
-157
-154
-152
-154
-155
-155
-157
-165
-167
-167
-168
-171
-183
-177
-176
-179
-178
-179
-176
-176
-175
-177
-176
-180
-182
-178
-180
-180
-182
-185
-186
-181
-173
-184
-181
-175
-171
-156
-132
-118
-104
-77
-56
-46
-39
-42
-30
-29
-37
-72
-113
-153
-202
-244
-270
-296
-302
-296
-286
-272
-259
-244
-241
-242
-237
-233
-229
-224
-212
-206
-204
-203
-202
-199
-192
-190
-187
-186
-188
-192
-189
-189
-195
-194
-193
-192
-193
-188
-182
-182
-183
-179
-179
-183
-177
-176
-180
-181
-183
-185
-187
-182
-186
-179
-174
-173
-177
-180
-178
-177
-174
-174
-173
-174
-172
-173
-172
-170
-167
-171
-168
-166
-167
-168
-164
-164
-162
-162
-166
-165
-161
-155
-151
-156
-157
-154
-152
-151
-153
-155
-153
-156
-155
-155
-154
-155
-158
-159
-161
-162
-159
-154
-157
-164
-160
-164
-169
-168
-168
-168
-168
-169
-172
-171
-169
-174
-176
-178
-184
-182
-178
-183
-179
-179
-175
-182
-189
-186
-186
-190
-192
-191
-188
-191
-193
-191
-189
-189
-196
-197
-195
-197
-198
-195
-198
-195
-191
-191
-187
-188
-190
-193
-197
-194
-194
-192
-194
-195
-197
-197
-197
-198
-198
-193
-191
-188
-186
-186
-187
-187
-192
-196
-192
-191
-195
-192
-193
-193
-194
-193
-194
-197
-193
-191
-195
-193
-191
-195
-195
-194
-190
-193
-198
-193
-190
-188
-187
-187
-189
-189
-194
-198
-193
-182
-182
-186
-188
-192
-196
-197
-192
-187
-187
-186
-188
-192
-185
-182
-188
-190
-196
-198
-200
-201
-200
-199
-202
-207
-208
-203
-203
-205
-207
-207
-201
-202
-201
-198
-201
-199
-199
-197
-196
-196
-197
-196
-188
-174
-155
-136
-115
-97
-82
-64
-59
-63
-57
-53
-65
-105
-144
-184
-229
-271
-301
-332
-337
-336
-320
-302
-285
-273
-265
-264
-259
-250
-245
-242
-240
-233
-225
-223
-220
-221
-212
-214
-214
-212
-209
-208
-203
-209
-206
-206
-204
-204
-205
-206
-206
-202
-196
-195
-188
-188
-193
-198
-196
-202
-201
-199
-198
-202
-199
-198
-192
-191
-191
-191
-191
-188
-187
-194
-189
-184
-183
-183
-189
-189
-187
-184
-184
-180
-173
-173
-180
-184
-177
-174
-173
-173
-171
-171
-170
-172
-174
-171
-170
-162
-168
-165
-169
-169
-166
-166
-171
-169
-171
-178
-173
-170
-173
-170
-173
-174
-173
-175
-179
-179
-177
-176
-175
-177
-179
-183
-191
-193
-193
-188
-188
-190
-191
-194
-194
-193
-197
-195
-199
-202
-204
-204
-204
-205
-201
-205
-205
-206
-209
-211
-209
-205
-205
-209
-205
-205
-208
-209
-206
-209
-207
-213
-218
-212
-211
-207
-205
-203
-207
-208
-207
-201
-200
-202
-200
-203
-203
-204
-204
-203
-201
-204
-204
-206
-203
-204
-206
-202
-204
-210
-209
-205
-208
-206
-198
-200
-204
-203
-204
-206
-203
-202
-204
-199
-194
-194
-192
-195
-197
-200
-200
-196
-190
-188
-188
-190
-195
-196
-199
-197
-193
-194
-196
-188
-188
-190
-189
-194
-198
-200
-202
-206
-205
-204
-207
-208
-213
-208
-210
-209
-209
-210
-211
-209
-210
-212
-209
-210
-213
-212
-215
-212
-204
-204
-207
-202
-200
-193
-183
-162
-140
-126
-108
-87
-74
-73
-73
-67
-71
-83
-120
-160
-196
-234
-271
-302
-329
-335
-324
-302
-288
-275
-267
-261
-257
-254
-252
-243
-240
-233
-226
-224
-223
-219
-218
-213
-212
-212
-217
-212
-211
-213
-213
-214
-211
-211
-208
-201
-201
-200
-198
-201
-203
-201
-203
-204
-203
-204
-209
-200
-198
-197
-199
-194
-194
-190
-189
-193
-193
-190
-188
-187
-188
-194
-194
-191
-185
-191
-188
-182
-185
-179
-176
-175
-176
-173
-177
-179
-178
-175
-176
-176
-167
-165
-167
-164
-167
-168
-170
-170
-170
-173
-166
-161
-161
-163
-165
-170
-170
-168
-169
-174
-173
-162
-167
-169
-172
-178
-177
-177
-169
-174
-171
-175
-178
-179
-178
-179
-182
-180
-186
-184
-181
-187
-190
-190
-191
-196
-194
-193
-197
-197
-191
-191
-190
-187
-189
-194
-194
-191
-198
-202
-196
-191
-198
-196
-195
-195
-191
-192
-191
-193
-197
-201
-198
-193
-196
-195
-187
-188
-192
-190
-188
-191
-195
-193
-193
-190
-186
-190
-188
-189
-189
-188
-190
-193
-197
-200
-194
-190
-186
-190
-188
-182
-183
-186
-188
-190
-194
-190
-188
-189
-184
-186
-186
-182
-177
-180
-173
-177
-180
-181
-181
-182
-176
-173
-173
-176
-177
-177
-179
-180
-179
-179
-173
-172
-172
-181
-181
-183
-182
-181
-184
-189
-187
-191
-195
-195
-200
-197
-186
-185
-188
-186
-186
-187
-189
-190
-193
-190
-191
-189
-188
-190
-186
-184
-182
-181
-171
-154
-137
-122
-100
-81
-65
-56
-63
-59
-47
-51
-84
-121
-151
-185
-222
-254
-290
-305
-298
-289
-272
-256
-240
-238
-229
-228
-227
-227
-226
-215
-208
-202
-201
-198
-193
-192
-196
-195
-191
-194
-191
-186
-188
-191
-184
-182
-184
-184
-188
-189
-186
-182
-184
-184
-170
-174
-180
-174
-172
-174
-172
-171
-172
-170
-168
-168
-170
-167
-164
-169
-172
-169
-163
-161
-159
-161
-167
-166
-161
-156
-155
-154
-155
-152
-146
-150
-156
-156
-153
-153
-153
-146
-147
-143
-142
-142
-141
-139
-141
-142
-143
-141
-144
-142
-141
-144
-138
-139
-139
-142
-142
-137
-138
-140
-142
-146
-149
-148
-149
-149
-147
-149
-147
-145
-145
-152
-152
-150
-149
-151
-160
-162
-159
-155
-159
-156
-157
-162
-165
-169
-155
-158
-161
-159
-162
-164
-166
-163
-164
-164
-165
-168
-172
-174
-169
-164
-164
-165
-165
-159
-157
-160
-160
-164
-163
-167
-162
-164
-165
-166
-164
-159
-162
-158
-158
-163
-164
-155
-161
-164
-161
-163
-158
-156
-162
-161
-158
-155
-155
-161
-158
-157
-160
-158
-158
-164
-161
-158
-157
-156
-160
-162
-160
-159
-155
-156
-161
-159
-158
-160
-158
-155
-154
-149
-147
-149
-149
-145
-154
-156
-155
-155
-151
-151
-143
-138
-139
-144
-150
-151
-144
-137
-136
-135
-139
-141
-141
-143
-142
-147
-148
-162
-162
-155
-157
-156
-156
-160
-160
-157
-155
-159
-154
-152
-156
-156
-153
-152
-158
-161
-157
-154
-152
-150
-155
-155
-143
-131
-117
-95
-77
-51
-32
-22
-22
-13
-7
-4
-11
-40
-79
-114
-156
-192
-228
-255
-268
-266
-255
-226
-203
-199
-193
-192
-198
-195
-187
-182
-175
-171
-175
-174
-170
-168
-161
-159
-159
-158
-159
-157
-154
-155
-154
-151
-157
-157
-150
-151
-144
-138
-142
-148
-145
-147
-149
-150
-147
-146
-148
-146
-146
-141
-139
-138
-142
-143
-140
-137
-142
-140
-136
-140
-139
-135
-136
-135
-137
-138
-135
-134
-133
-126
-117
-121
-127
-128
-125
-125
-130
-125
-122
-115
-112
-114
-113
-115
-115
-117
-117
-113
-116
-110
-110
-112
-116
-115
-118
-121
-121
-115
-119
-118
-115
-116
-116
-118
-115
-120
-123
-124
-124
-122
-123
-125
-128
-126
-128
-126
-123
-128
-128
-132
-134
-137
-136
-135
-136
-138
-139
-133
-133
-139
-136
-135
-140
-141
-138
-141
-138
-136
-138
-141
-134
-136
-137
-137
-133
-132
-135
-135
-136
-137
-138
-142
-143
-140
-133
-135
-134
-132
-133
-134
-132
-134
-136
-135
-133
-136
-135
-134
-135
-134
-137
-137
-139
-128
-129
-132
-130
-127
-131
-133
-134
-133
-128
-129
-129
-129
-127
-130
-132
-127
-130
-133
-129
-129
-130
-131
-128
-128
-129
-133
-137
-129
-126
-130
-130
-132
-128
-126
-128
-128
-128
-131
-134
-133
-135
-138
-131
-129
-128
-125
-127
-128
-125
-124
-124
-127
-126
-120
-111
-108
-110
-111
-112
-113
-114
-115
-110
-111
-114
-114
-111
-113
-112
-116
-116
-123
-121
-125
-127
-128
-133
-136
-133
-130
-131
-133
-131
-131
-130
-131
-137
-136
-120
-122
-123
-124
-123
-127
-129
-125
-125
-131
-127
-120
-112
-100
-80
-65
-50
-27
-3
4
5
23
26
33
25
-2
-41
-79
-118
-155
-193
-215
-226
-221
-209
-195
-185
-175
-171
-165
-165
-167
-166
-158
-154
-151
-150
-142
-138
-136
-130
-129
-129
-126
-124
-125
-128
-123
-131
-135
-132
-126
-120
-118
-120
-121
-122
-117
-120
-120
-121
-119
-118
-119
-116
-116
-118
-115
-117
-118
-120
-118
-113
-109
-111
-112
-110
-106
-110
-111
-111
-109
-108
-103
-102
-105
-101
-99
-99
-92
-94
-94
-95
-94
-97
-94
-91
-92
-92
-91
-89
-85
-89
-86
-85
-90
-87
-88
-86
-80
-84
-87
-88
-84
-91
-90
-91
-90
-89
-87
-89
-91
-87
-90
-93
-93
-93
-95
-91
-93
-95
-97
-96
-97
-98
-99
-97
-100
-103
-104
-105
-104
-102
-102
-101
-102
-103
-108
-109
-105
-106
-103
-110
-108
-109
-113
-113
-108
-108
-107
-108
-112
-109
-108
-107
-108
-106
-109
-108
-106
-103
-105
-104
-105
-105
-105
-104
-107
-107
-104
-104
-106
-103
-103
-104
-105
-102
-102
-97
-102
-106
-105
-106
-104
-107
-108
-100
-99
-98
-98
-103
-100
-99
-101
-102
-102
-101
-104
-103
-94
-88
-93
-94
-94
-98
-98
-100
-101
-100
-97
-99
-100
-97
-100
-103
-100
-99
-103
-102
-104
-106
-106
-103
-99
-99
-98
-97
-100
-103
-104
-99
-103
-105
-103
-101
-101
-101
-103
-99
-98
-94
-93
-89
-92
-92
-97
-92
-89
-87
-88
-89
-83
-86
-84
-87
-86
-84
-82
-85
-82
-81
-82
-85
-96
-94
-97
-99
-102
-102
-101
-97
-98
-102
-106
-105
-106
-108
-105
-93
-95
-97
-98
-102
-103
-101
-102
-101
-103
-101
-99
-97
-92
-80
-71
-49
-28
-15
7
33
49
50
54
60
67
61
32
-12
-49
-97
-137
-168
-195
-211
-210
-200
-179
-168
-158
-155
-154
-151
-150
-141
-135
-130
-126
-119
-117
-119
-112
-112
-104
-98
-101
-97
-95
-96
-99
-99
-98
-99
-97
-93
-94
-94
-90
-98
-96
-92
-93
-96
-96
-94
-93
-90
-88
-88
-82
-83
-86
-88
-80
-82
-82
-79
-82
-81
-80
-83
-79
-81
-74
-76
-78
-80
-77
-76
-78
-78
-63
-60
-62
-62
-59
-59
-59
-59
-58
-56
-53
-56
-55
-58
-55
-56
-56
-59
-58
-57
-55
-57
-51
-52
-53
-56
-53
-55
-55
-54
-55
-54
-49
-53
-56
-61
-62
-66
-61
-62
-63
-60
-54
-58
-64
-64
-62
-66
-65
-66
-70
-71
-73
-75
-76
-76
-73
-78
-71
-72
-77
-74
-77
-78
-83
-81
-81
-82
-77
-79
-82
-80
-79
-78
-76
-81
-81
-82
-80
-78
-81
-80
-79
-82
-82
-79
-81
-81
-75
-78
-83
-76
-77
-83
-85
-72
-66
-72
-76
-79
-77
-75
-76
-77
-78
-75
-75
-78
-78
-75
-75
-74
-70
-66
-72
-71
-74
-78
-79
-79
-81
-84
-82
-80
-70
-75
-75
-75
-76
-77
-79
-82
-80
-82
-83
-84
-88
-80
-72
-75
-76
-70
-70
-72
-74
-77
-81
-78
-77
-81
-82
-75
-73
-79
-79
-82
-85
-82
-80
-80
-76
-76
-75
-76
-73
-75
-73
-69
-65
-65
-66
-63
-63
-61
-66
-65
-70
-73
-66
-60
-60
-58
-59
-62
-60
-60
-61
-62
-63
-68
-73
-67
-73
-72
-73
-79
-79
-82
-81
-81
-81
-81
-76
-77
-78
-81
-80
-78
-77
-80
-79
-77
-82
-79
-72
-75
-73
-64
-62
-50
-34
-10
2
21
48
70
79
87
83
81
75
56
15
-27
-65
-116
-158
-188
-209
-210
-202
-184
-174
-159
-144
-140
-145
-139
-131
-125
-120
-117
-112
-102
-97
-97
-100
-96
-93
-90
-87
-88
-74
-74
-74
-75
-73
-75
-77
-76
-73
-75
-73
-76
-67
-68
-68
-71
-69
-66
-67
-67
-67
-62
-59
-65
-66
-61
-61
-66
-61
-60
-59
-61
-56
-53
-52
-51
-57
-62
-54
-53
-49
-48
-47
-44
-41
-41
-41
-43
-36
-39
-37
-31
-36
-35
-36
-33
-34
-35
-32
-29
-27
-19
-21
-25
-27
-26
-30
-33
-29
-33
-33
-29
-30
-30
-28
-31
-33
-35
-32
-33
-37
-40
-42
-46
-42
-37
-38
-38
-37
-38
-45
-47
-48
-48
-46
-52
-55
-52
-53
-51
-53
-53
-54
-60
-53
-49
-60
-61
-61
-63
-58
-61
-62
-66
-65
-56
-60
-61
-57
-55
-57
-59
-60
-61
-61
-61
-65
-63
-61
-64
-62
-57
-51
-53
-56
-53
-52
-54
-55
-57
-63
-64
-56
-51
-56
-56
-56
-50
-51
-56
-57
-50
-53
-57
-55
-54
-53
-50
-52
-49
-51
-52
-52
-55
-55
-55
-58
-55
-57
-55
-56
-53
-60
-59
-56
-53
-57
-56
-57
-56
-54
-53
-55
-55
-56
-59
-61
-53
-52
-53
-55
-56
-50
-52
-51
-52
-56
-49
-56
-55
-55
-55
-56
-56
-53
-48
-53
-47
-45
-43
-48
-47
-45
-44
-43
-47
-39
-37
-39
-42
-41
-42
-43
-35
-37
-47
-48
-49
-54
-57
-55
-56
-60
-53
-54
-57
-57
-52
-56
-58
-57
-52
-55
-53
-54
-56
-59
-54
-56
-59
-59
-61
-59
-53
-48
-47
-44
-34
-19
0
17
37
60
79
91
91
88
98
99
83
46
0
-32
-71
-114
-152
-178
-179
-173
-164
-155
-138
-122
-112
-108
-108
-108
-100
-97
-95
-86
-80
-76
-72
-69
-65
-64
-60
-60
-60
-59
-58
-62
-58
-60
-59
-55
-56
-52
-53
-53
-53
-54
-50
-48
-55
-52
-48
-45
-50
-47
-46
-39
-37
-40
-43
-43
-42
-39
-42
-39
-39
-38
-38
-40
-39
-40
-36
-37
-37
-30
-32
-27
-24
-28
-24
-20
-21
-21
-23
-22
-23
-20
-19
-17
-15
-13
-12
-14
-16
-16
-14
-14
-11
-9
-7
-10
-12
-14
-15
-16
-15
-17
-15
-14
-17
-17
-22
-26
-21
-22
-24
-24
-25
-26
-25
-22
-25
-24
-25
-30
-29
-29
-28
-29
-34
-33
-38
-40
-39
-45
-46
-44
-41
-46
-45
-41
-43
-45
-45
-43
-47
-45
-39
-40
-45
-44
-46
-50
-49
-50
-47
-48
-46
-46
-48
-45
-49
-48
-45
-46
-50
-51
-46
-45
-45
-44
-41
-41
-41
-42
-45
-41
-38
-38
-38
-37
-41
-41
-42
-46
-45
-44
-41
-38
-35
-39
-43
-41
-37
-42
-46
-42
-45
-46
-39
-37
-38
-40
-40
-46
-44
-39
-41
-45
-45
-45
-41
-44
-48
-52
-48
-49
-52
-50
-44
-43
-38
-38
-35
-38
-33
-35
-41
-39
-36
-35
-34
-36
-37
-40
-40
-32
-31
-22
-23
-26
-28
-30
-32
-35
-34
-35
-41
-44
-48
-49
-49
-45
-44
-48
-49
-49
-46
-49
-45
-45
-45
-44
-39
-43
-49
-47
-52
-50
-48
-42
-45
-42
-37
-33
-26
-4
15
29
50
71
88
92
97
104
111
109
82
40
0
-38
-80
-114
-147
-170
-165
-154
-135
-120
-102
-101
-97
-93
-94
-93
-89
-81
-75
-72
-68
-69
-68
-65
-63
-61
-58
-56
-55
-56
-49
-48
-52
-54
-55
-54
-51
-55
-59
-55
-46
-46
-42
-44
-48
-48
-47
-44
-41
-43
-46
-50
-49
-43
-43
-42
-43
-44
-43
-41
-40
-41
-41
-38
-35
-41
-38
-37
-36
-34
-32
-28
-29
-29
-31
-31
-31
-31
-27
-19
-20
-23
-20
-14
-16
-16
-17
-18
-17
-16
-17
-21
-18
-14
-10
-12
-12
-18
-17
-17
-20
-24
-26
-30
-31
-32
-25
-20
-27
-22
-20
-24
-23
-27
-33
-33
-32
-33
-40
-38
-36
-37
-35
-37
-33
-40
-45
-44
-46
-42
-42
-46
-50
-48
-48
-48
-49
-52
-54
-51
-50
-53
-47
-52
-48
-49
-51
-53
-49
-47
-52
-54
-54
-51
-55
-57
-54
-62
-60
-51
-47
-49
-53
-49
-49
-48
-51
-48
-51
-50
-54
-52
-49
-48
-50
-47
-52
-55
-56
-51
-51
-51
-48
-50
-50
-51
-49
-51
-49
-50
-55
-52
-50
-54
-57
-57
-56
-62
-47
-46
-49
-50
-50
-49
-52
-52
-56
-55
-55
-56
-58
-62
-61
-62
-60
-58
-57
-47
-40
-45
-44
-46
-48
-50
-48
-50
-47
-45
-44
-44
-47
-51
-48
-44
-44
-45
-39
-37
-38
-40
-47
-45
-46
-50
-51
-54
-54
-61
-61
-60
-61
-60
-59
-62
-64
-62
-61
-62
-63
-55
-54
-55
-53
-55
-55
-52
-52
-54
-49
-50
-43
-25
-9
4
22
44
65
76
81
89
96
104
96
68
26
-15
-49
-87
-114
-142
-157
-151
-142
-130
-119
-113
-108
-107
-105
-103
-99
-91
-86
-85
-80
-79
-78
-78
-69
-70
-62
-61
-65
-66
-64
-64
-57
-58
-53
-59
-60
-58
-60
-62
-58
-57
-62
-59
-54
-58
-56
-55
-55
-52
-54
-54
-57
-52
-52
-51
-51
-52
-49
-51
-46
-48
-48
-43
-42
-45
-46
-43
-41
-42
-44
-39
-38
-37
-39
-40
-36
-33
-33
-37
-35
-39
-36
-34
-34
-31
-26
-20
-20
-26
-21
-22
-24
-26
-25
-29
-27
-31
-31
-27
-28
-32
-33
-31
-32
-34
-36
-37
-39
-38
-35
-33
-34
-37
-39
-46
-45
-40
-41
-47
-49
-50
-50
-51
-51
-53
-48
-48
-50
-48
-49
-52
-53
-53
-55
-55
-57
-57
-60
-57
-57
-62
-61
-55
-57
-59
-58
-56
-59
-61
-58
-59
-61
-62
-56
-54
-54
-54
-54
-58
-57
-58
-63
-55
-56
-57
-54
-50
-54
-58
-61
-58
-56
-55
-57
-58
-57
-60
-57
-54
-53
-57
-55
-52
-51
-51
-53
-55
-55
-57
-54
-54
-52
-52
-56
-56
-59
-64
-63
-58
-55
-53
-54
-56
-55
-50
-54
-59
-59
-60
-61
-62
-60
-61
-63
-64
-62
-57
-56
-47
-47
-48
-49
-49
-54
-54
-49
-49
-44
-43
-46
-46
-45
-44
-44
-43
-42
-43
-42
-43
-47
-50
-53
-56
-56
-56
-56
-65
-64
-69
-66
-67
-55
-50
-56
-61
-59
-58
-57
-59
-62
-67
-65
-63
-64
-64
-63
-64
-63
-62
-45
-43
-34
-12
3
19
41
57
74
86
86
91
99
99
73
32
-6
-47
-88
-123
-151
-171
-174
-164
-152
-133
-127
-126
-125
-121
-103
-102
-100
-96
-88
-86
-87
-85
-82
-77
-73
-77
-75
-76
-75
-68
-67
-68
-69
-65
-66
-65
-57
-63
-69
-61
-62
-67
-60
-59
-66
-65
-60
-59
-60
-59
-60
-62
-58
-55
-58
-60
-61
-62
-59
-58
-58
-57
-57
-51
-50
-49
-43
-49
-48
-48
-46
-49
-48
-41
-43
-46
-42
-35
-30
-34
-38
-33
-27
-31
-30
-29
-30
-33
-30
-27
-28
-28
-26
-27
-28
-29
-29
-28
-29
-30
-33
-32
-32
-34
-35
-37
-40
-39
-39
-39
-37
-44
-40
-42
-39
-40
-44
-47
-48
-46
-51
-51
-49
-50
-47
-46
-46
-51
-54
-53
-57
-56
-56
-62
-60
-55
-53
-58
-63
-63
-63
-62
-63
-59
-58
-59
-56
-57
-58
-59
-63
-59
-57
-63
-63
-66
-63
-63
-67
-64
-63
-57
-59
-65
-63
-56
-55
-59
-58
-58
-66
-63
-59
-61
-56
-56
-54
-53
-53
-53
-61
-61
-62
-62
-66
-63
-63
-59
-56
-55
-59
-59
-58
-61
-63
-59
-65
-61
-62
-61
-57
-58
-59
-61
-60
-56
-65
-67
-67
-61
-61
-61
-64
-63
-63
-61
-66
-63
-59
-61
-59
-57
-51
-58
-58
-56
-54
-48
-52
-51
-52
-50
-48
-44
-44
-42
-46
-46
-50
-50
-47
-52
-55
-58
-58
-59
-61
-61
-62
-65
-64
-64
-66
-67
-64
-63
-66
-63
-64
-66
-65
-66
-72
-65
-63
-59
-59
-54
-57
-53
-51
-43
-22
-2
15
33
60
76
84
86
80
87
94
74
38
-4
-42
-84
-131
-164
-193
-194
-189
-178
-153
-143
-132
-126
-124
-127
-121
-111
-111
-103
-95
-92
-85
-80
-80
-77
-73
-74
-70
-74
-70
-69
-70
-64
-64
-73
-75
-71
-70
-66
-60
-63
-60
-55
-56
-58
-61
-64
-61
-55
-59
-62
-65
-62
-58
-57
-55
-60
-57
-55
-56
-50
-51
-49
-51
-52
-47
-44
-48
-47
-38
-41
-42
-37
-37
-38
-40
-40
-36
-33
-35
-37
-37
-36
-32
-29
-23
-22
-19
-20
-24
-25
-29
-27
-30
-31
-28
-25
-26
-29
-28
-31
-36
-33
-29
-28
-34
-33
-32
-33
-36
-38
-37
-37
-32
-31
-37
-37
-40
-43
-43
-44
-44
-45
-50
-51
-46
-49
-51
-48
-50
-56
-54
-55
-54
-58
-59
-53
-54
-55
-58
-58
-52
-51
-56
-56
-55
-57
-57
-59
-59
-57
-55
-56
-57
-62
-65
-65
-62
-55
-55
-55
-58
-58
-56
-49
-46
-48
-53
-57
-63
-62
-55
-56
-57
-53
-52
-55
-55
-55
-53
-56
-57
-58
-57
-56
-56
-56
-57
-57
-54
-54
-51
-51
-53
-52
-47
-50
-52
-55
-61
-63
-63
-64
-65
-56
-61
-64
-57
-59
-56
-53
-54
-52
-49
-50
-50
-48
-54
-52
-53
-47
-44
-44
-46
-49
-48
-46
-49
-44
-44
-45
-45
-48
-48
-47
-50
-54
-57
-55
-59
-57
-58
-66
-67
-62
-67
-71
-62
-63
-64
-60
-56
-58
-54
-57
-58
-59
-61
-60
-59
-54
-55
-54
-41
-29
-10
4
20
37
58
77
85
91
87
89
83
63
27
-8
-48
-92
-130
-163
-186
-189
-181
-169
-150
-128
-116
-116
-116
-114
-106
-100
-101
-98
-87
-78
-78
-77
-75
-76
-71
-65
-67
-66
-60
-59
-60
-64
-60
-61
-60
-60
-61
-59
-53
-53
-56
-57
-58
-59
-56
-54
-55
-57
-55
-53
-50
-49
-50
-51
-50
-52
-46
-51
-49
-49
-44
-44
-43
-47
-41
-39
-40
-41
-37
-37
-36
-30
-30
-30
-31
-31
-34
-31
-25
-26
-26
-25
-23
-24
-23
-16
-18
-16
-14
-14
-17
-21
-24
-24
-28
-21
-24
-31
-26
-20
-24
-28
-20
-23
-24
-27
-29
-27
-27
-27
-31
-31
-32
-37
-36
-35
-38
-38
-37
-39
-42
-39
-39
-42
-40
-43
-43
-41
-43
-46
-48
-46
-48
-53
-48
-51
-55
-55
-51
-47
-53
-55
-48
-51
-52
-51
-47
-48
-51
-47
-54
-54
-54
-49
-49
-52
-47
-46
-47
-53
-52
-48
-51
-51
-53
-48
-52
-51
-51
-53
-46
-42
-42
-44
-43
-45
-49
-46
-46
-51
-53
-52
-46
-46
-50
-45
-42
-43
-43
-45
-45
-47
-52
-49
-44
-50
-50
-48
-51
-51
-52
-50
-52
-49
-43
-41
-35
-36
-40
-38
-42
-42
-42
-37
-35
-36
-36
-38
-42
-38
-34
-35
-36
-32
-29
-28
-37
-34
-38
-40
-45
-47
-49
-49
-50
-51
-51
-48
-52
-51
-51
-52
-52
-49
-50
-51
-51
-51
-49
-50
-50
-50
-48
-45
-43
-44
-42
-37
-26
-7
9
24
54
77
87
88
91
97
97
94
69
22
-13
-50
-87
-121
-146
-164
-163
-157
-140
-126
-118
-112
-106
-93
-88
-87
-86
-79
-71
-72
-72
-69
-71
-62
-59
-56
-51
-53
-54
-54
-54
-58
-58
-60
-54
-52
-54
-50
-50
-49
-47
-46
-45
-47
-48
-49
-47
-45
-47
-48
-47
-43
-42
-45
-44
-47
-43
-45
-47
-44
-37
-33
-34
-36
-34
-36
-33
-34
-34
-43
-36
-32
-27
-27
-23
-27
-28
-23
-22
-22
-20
-20
-20
-19
-17
-18
-16
-14
-15
-16
-15
-14
-20
-17
-20
-22
-25
-22
-25
-23
-21
-23
-26
-28
-25
-27
-26
-26
-29
-29
-26
-25
-27
-32
-33
-44
-46
-41
-38
-42
-40
-38
-35
-38
-40
-44
-46
-43
-44
-44
-45
-48
-48
-51
-53
-53
-53
-52
-52
-53
-51
-52
-54
-54
-57
-61
-62
-57
-51
-49
-50
-51
-52
-49
-51
-51
-50
-50
-52
-50
-50
-51
-53
-53
-56
-55
-54
-55
-56
-59
-60
-64
-63
-57
-54
-53
-50
-50
-55
-52
-52
-53
-57
-55
-59
-62
-56
-53
-54
-57
-54
-56
-58
-57
-59
-56
-64
-63
-61
-66
-63
-65
-64
-57
-53
-52
-51
-46
-48
-51
-55
-58
-55
-51
-48
-48
-52
-63
-60
-54
-54
-53
-52
-50
-46
-48
-51
-55
-55
-60
-65
-72
-72
-71
-71
-67
-72
-70
-67
-69
-70
-70
-67
-68
-75
-75
-76
-73
-72
-72
-71
-72
-73
-70
-64
-61
-58
-44
-27
-7
5
25
42
56
59
60
63
79
71
49
9
-21
-60
-100
-134
-164
-185
-187
-178
-160
-146
-130
-127
-126
-122
-118
-114
-114
-107
-96
-96
-102
-101
-95
-92
-89
-86
-86
-88
-89
-91
-88
-83
-81
-79
-79
-77
-79
-77
-74
-73
-76
-73
-72
-73
-72
-74
-77
-85
-82
-80
-78
-72
-73
-75
-74
-76
-73
-69
-71
-71
-70
-70
-71
-73
-70
-67
-69
-63
-67
-67
-66
-61
-64
-63
-65
-63
-57
-59
-59
-58
-58
-57
-56
-57
-59
-62
-59
-56
-53
-56
-57
-54
-51
-55
-53
-54
-57
-59
-59
-60
-61
-63
-64
-66
-64
-60
-67
-67
-66
-67
-70
-62
-64
-69
-72
-73
-73
-72
-75
-78
-80
-82
-83
-81
-79
-80
-84
-82
-82
-86
-83
-84
-85
-87
-89
-86
-87
-89
-92
-91
-92
-93
-91
-90
-92
-97
-94
-87
-87
-88
-86
-90
-94
-91
-93
-92
-94
-89
-87
-88
-88
-90
-88
-88
-89
-91
-92
-91
-89
-90
-94
-90
-92
-92
-91
-93
-94
-92
-89
-91
-89
-87
-89
-89
-89
-92
-89
-88
-87
-94
-93
-95
-98
-99
-96
-96
-95
-97
-98
-97
-97
-94
-89
-87
-88
-90
-85
-91
-86
-89
-90
-87
-81
-81
-79
-82
-79
-78
-82
-85
-83
-81
-79
-77
-81
-84
-88
-91
-95
-91
-92
-95
-95
-97
-98
-103
-102
-101
-101
-104
-104
-107
-104
-105
-103
-106
-107
-98
-99
-104
-104
-100
-94
-97
-98
-97
-83
-66
-48
-35
-17
4
21
33
33
36
52
60
43
6
-29
-61
-101
-146
-179
-202
-209
-203
-190
-176
-159
-157
-154
-150
-150
-151
-145
-133
-130
-133
-130
-126
-120
-120
-114
-110
-111
-113
-106
-105
-103
-104
-105
-107
-108
-106
-102
-103
-104
-108
-110
-99
-102
-101
-101
-100
-100
-101
-102
-100
-99
-101
-99
-98
-100
-99
-96
-99
-102
-97
-92
-91
-92
-88
-85
-84
-80
-84
-85
-83
-82
-86
-85
-87
-87
-86
-82
-82
-85
-83
-74
-72
-72
-72
-71
-70
-71
-73
-72
-70
-72
-74
-76
-76
-69
-70
-69
-71
-72
-70
-74
-76
-76
-75
-79
-82
-87
-90
-83
-79
-73
-79
-80
-82
-83
-80
-82
-87
-84
-83
-85
-87
-86
-87
-94
-96
-97
-99
-99
-93
-97
-95
-96
-101
-105
-97
-97
-101
-97
-103
-103
-97
-94
-100
-99
-97
-100
-101
-100
-94
-93
-101
-94
-96
-99
-103
-99
-100
-98
-93
-97
-99
-100
-96
-96
-97
-97
-100
-97
-97
-99
-99
-100
-99
-89
-94
-107
-101
-95
-94
-100
-98
-97
-97
-96
-100
-98
-99
-100
-101
-102
-101
-102
-102
-101
-100
-100
-105
-98
-86
-88
-91
-91
-91
-90
-91
-97
-96
-83
-85
-82
-81
-79
-84
-88
-88
-86
-88
-87
-83
-82
-83
-84
-91
-89
-84
-95
-103
-100
-99
-103
-99
-100
-101
-104
-106
-106
-112
-107
-99
-102
-99
-102
-108
-106
-105
-101
-95
-94
-96
-97
-96
-89
-77
-66
-46
-34
-10
26
43
50
54
55
60
60
37
-5
-42
-89
-142
-174
-206
-226
-224
-218
-202
-186
-172
-160
-160
-164
-157
-151
-146
-133
-125
-122
-122
-118
-116
-120
-115
-108
-105
-103
-100
-98
-101
-100
-100
-101
-97
-93
-103
-103
-97
-97
-97
-94
-94
-95
-92
-89
-93
-93
-90
-88
-94
-90
-89
-90
-83
-86
-90
-89
-87
-90
-96
-83
-78
-70
-73
-72
-80
-78
-75
-75
-71
-65
-66
-63
-64
-68
-73
-70
-67
-62
-65
-64
-59
-56
-56
-57
-58
-55
-59
-57
-55
-56
-57
-56
-55
-55
-56
-56
-55
-53
-55
-56
-60
-60
-61
-66
-66
-64
-64
-65
-63
-65
-66
-64
-68
-62
-68
-68
-69
-75
-74
-77
-76
-67
-73
-78
-78
-76
-81
-84
-82
-75
-78
-81
-83
-86
-89
-87
-84
-84
-87
-84
-83
-87
-85
-86
-87
-85
-87
-85
-86
-84
-83
-84
-82
-84
-86
-83
-81
-85
-86
-81
-83
-85
-85
-86
-83
-80
-85
-86
-85
-88
-90
-74
-80
-86
-82
-78
-82
-79
-79
-80
-82
-79
-82
-89
-89
-83
-80
-85
-87
-84
-86
-86
-84
-88
-83
-78
-77
-79
-79
-79
-73
-73
-72
-76
-73
-71
-71
-71
-70
-70
-74
-72
-77
-77
-79
-74
-69
-74
-77
-85
-86
-82
-86
-88
-84
-79
-86
-90
-87
-87
-88
-87
-85
-86
-86
-85
-88
-88
-85
-86
-85
-84
-86
-85
-84
-81
-82
-69
-55
-39
-13
2
22
45
64
75
70
71
69
59
25
-16
-58
-104
-146
-178
-205
-213
-212
-198
-182
-161
-145
-140
-138
-136
-133
-130
-124
-118
-109
-104
-105
-103
-97
-96
-92
-87
-85
-86
-87
-84
-85
-84
-85
-86
-87
-79
-82
-85
-81
-81
-84
-79
-78
-79
-78
-78
-76
-79
-81
-82
-83
-70
-69
-70
-72
-71
-65
-66
-67
-69
-72
-68
-68
-69
-68
-64
-65
-66
-58
-58
-59
-54
-53
-56
-59
-57
-50
-49
-42
-46
-48
-44
-43
-49
-49
-44
-37
-39
-39
-40
-44
-46
-46
-48
-51
-53
-48
-51
-48
-47
-51
-47
-48
-42
-40
-45
-47
-55
-51
-51
-55
-51
-51
-54
-58
-49
-52
-60
-62
-58
-56
-59
-58
-64
-66
-66
-65
-68
-67
-70
-72
-71
-68
-65
-67
-70
-70
-69
-67
-70
-73
-74
-73
-72
-70
-69
-70
-69
-68
-70
-71
-69
-70
-70
-66
-66
-68
-66
-66
-69
-69
-68
-68
-67
-65
-70
-71
-69
-68
-67
-67
-68
-69
-66
-68
-70
-73
-71
-67
-71
-72
-70
-71
-73
-72
-75
-78
-77
-70
-66
-66
-67
-63
-64
-61
-61
-63
-60
-58
-64
-68
-62
-59
-62
-56
-56
-55
-53
-53
-57
-60
-60
-62
-62
-58
-57
-56
-53
-59
-63
-69
-68
-73
-78
-76
-79
-77
-71
-71
-78
-77
-74
-72
-73
-75
-77
-78
-76
-79
-77
-79
-75
-67
-66
-61
-60
-58
-52
-35
-19
-4
16
41
52
61
62
65
75
73
49
9
-27
-61
-104
-137
-166
-195
-195
-187
-173
-159
-139
-129
-122
-125
-124
-118
-112
-101
-99
-93
-96
-99
-98
-95
-95
-87
-80
-78
-74
-68
-65
-70
-75
-74
-71
-70
-71
-72
-73
-72
-73
-74
-77
-63
-67
-70
-67
-70
-68
-65
-67
-65
-67
-65
-67
-67
-69
-69
-76
-73
-57
-55
-55
-57
-57
-53
-54
-58
-56
-52
-52
-56
-55
-56
-55
-52
-43
-43
-40
-43
-37
-38
-38
-39
-40
-37
-40
-39
-44
-41
-39
-41
-40
-37
-38
-38
-39
-46
-49
-49
-47
-48
-49
-50
-50
-51
-52
-51
-45
-46
-50
-49
-52
-52
-52
-53
-57
-58
-62
-62
-64
-64
-55
-58
-62
-63
-64
-69
-70
-63
-66
-68
-69
-73
-72
-70
-72
-74
-71
-68
-71
-71
-70
-70
-68
-68
-68
-72
-70
-71
-71
-70
-70
-69
-72
-74
-74
-76
-70
-65
-68
-73
-69
-72
-74
-78
-77
-77
-73
-77
-77
-73
-67
-66
-67
-66
-65
-66
-66
-65
-71
-71
-74
-78
-79
-73
-75
-76
-75
-76
-73
-72
-66
-64
-68
-63
-61
-62
-66
-69
-73
-64
-59
-57
-58
-57
-61
-63
-61
-63
-62
-59
-60
-61
-67
-70
-71
-69
-67
-66
-67
-71
-72
-75
-73
-75
-79
-80
-79
-76
-80
-76
-76
-78
-80
-78
-84
-79
-73
-72
-73
-70
-73
-70
-69
-68
-51
-34
-19
-1
23
43
56
59
62
70
73
64
32
-7
-46
-84
-121
-148
-176
-189
-190
-176
-158
-142
-133
-126
-125
-126
-121
-116
-116
-108
-102
-99
-98
-93
-92
-88
-91
-94
-85
-78
-78
-78
-75
-75
-76
-75
-73
-80
-85
-81
-82
-82
-82
-75
-72
-76
-77
-78
-78
-75
-77
-69
-71
-71
-74
-71
-69
-72
-72
-69
-70
-69
-63
-62
-63
-65
-62
-65
-69
-67
-62
-61
-61
-59
-56
-57
-54
-52
-53
-49
-50
-54
-51
-50
-50
-46
-47
-45
-45
-43
-45
-46
-45
-42
-45
-39
-40
-50
-48
-48
-50
-54
-56
-57
-58
-58
-56
-51
-50
-49
-52
-53
-56
-58
-58
-59
-60
-60
-64
-66
-71
-69
-64
-67
-71
-73
-68
-68
-72
-74
-74
-74
-73
-74
-76
-72
-74
-79
-75
-75
-76
-75
-72
-68
-75
-78
-78
-77
-73
-75
-75
-77
-73
-75
-78
-76
-76
-76
-75
-76
-79
-78
-77
-78
-78
-79
-76
-80
-80
-77
-73
-73
-70
-76
-77
-76
-79
-76
-77
-71
-72
-77
-77
-77
-78
-79
-80
-82
-81
-81
-86
-82
-78
-71
-69
-67
-67
-68
-67
-67
-74
-74
-70
-71
-60
-66
-67
-75
-71
-66
-65
-63
-62
-61
-61
-65
-68
-71
-75
-75
-80
-79
-77
-81
-79
-78
-82
-83
-77
-75
-80
-77
-80
-87
-86
-83
-84
-92
-83
-85
-84
-80
-78
-76
-77
-75
-75
-73
-58
-40
-23
-8
16
35
49
56
54
58
62
49
12
-24
-57
-97
-134
-164
-195
-195
-187
-178
-162
-146
-141
-140
-136
-131
-130
-119
-108
-103
-104
-96
-95
-96
-96
-92
-87
-85
-87
-91
-90
-87
-92
-90
-90
-78
-77
-78
-80
-84
-82
-77
-76
-78
-78
-78
-79
-78
-76
-77
-76
-74
-76
-75
-75
-69
-70
-76
-77
-76
-71
-72
-71
-73
-71
-70
-68
-65
-63
-63
-55
-51
-56
-53
-52
-53
-62
-60
-56
-56
-52
-52
-52
-53
-48
-46
-51
-49
-46
-48
-47
-44
-47
-48
-50
-46
