12
8
-7
9
8
5
11
19
0
-5
3
-2
-3
-1
1
2
6
7
3
4
1
-9
2
7
10
16
-1
-6
-6
3
3
10
10
14
5
6
-3
4
10
3
4
8
8
3
5
9
1
-1
-7
-5
-7
12
5
1
4
-3
2
3
8
2
-2
1
-5
-1
7
6
10
10
11
17
9
4
1
10
6
14
14
9
12
14
0
15
22
17
22
24
19
10
10
12
7
17
6
9
0
4
2
5
9
-4
1
-7
-6
-8
-9
-5
2
6
10
-4
-15
-1
-5
-3
0
-11
-4
-9
5
-7
-7
-10
-10
-6
-5
13
-1
-15
-5
-11
-9
-14
-7
5
1
-7
-1
1
-9
-10
-6
-10
-12
-7
-10
0
-10
-2
1
-15
-3
-8
4
-10
-4
-8
6
2
33
20
30
35
48
62
84
96
102
123
132
125
112
91
63
34
8
-16
-38
-41
-43
-42
-37
-31
-53
-9
-10
-13
-1
-3
5
-7
-3
1
-3
-9
-7
0
-4
-6
3
7
-3
-9
3
0
-1
-7
5
-5
-11
9
13
5
-2
-2
-9
3
4
0
10
-3
8
11
10
17
0
3
4
4
-2
-2
0
-9
5
5
12
10
9
17
13
12
2
6
11
13
15
11
15
12
19
12
23
20
20
24
33
30
32
23
28
31
26
22
35
36
13
40
53
53
43
41
45
42
43
45
47
50
55
49
54
66
64
57
42
49
46
43
48
56
40
33
31
46
45
29
28
27
29
29
26
26
12
14
14
18
-1
10
18
12
21
-4
-5
3
4
10
2
5
-2
7
10
10
-5
-6
5
17
-6
-2
9
9
8
4
-11
2
5
0
-1
-2
-1
4
6
1
-8
3
7
-7
-12
-11
4
4
12
9
6
7
21
8
-17
-1
0
4
8
8
5
0
-8
-7
6
2
11
17
-4
-5
-9
-3
9
3
5
3
6
13
3
2
-3
7
11
15
-1
10
15
-7
-15
-2
9
-3
6
6
4
4
-15
-10
0
-8
-3
-2
4
5
7
6
-2
2
0
0
5
10
0
-1
-5
-8
-4
-1
-5
12
8
2
2
-4
0
0
-2
-6
-6
-10
3
-3
3
9
7
17
14
-2
8
11
19
9
2
3
11
9
9
9
14
12
21
11
11
7
8
10
5
-1
-6
-11
-2
-2
-2
6
-1
-18
9
-9
-5
-3
-4
-6
-9
-7
-10
-9
8
-4
-24
-4
-10
-8
-8
-15
-4
2
-13
-14
-15
-14
-6
-6
-2
-13
-11
-17
-13
-21
-13
4
1
-9
-2
-7
-4
-9
-9
-7
-6
-4
-9
-11
-7
-1
-19
-19
-13
-11
-4
11
15
23
34
52
63
69
97
100
111
123
134
110
100
59
33
17
-6
-41
-59
-37
-28
-36
-39
-41
-26
-21
-20
-14
-6
-16
-15
-14
-11
-14
-6
-8
-9
-19
-5
1
-3
5
-5
-10
-4
5
-4
-14
14
5
-12
-8
-8
0
3
5
3
0
-10
-2
2
2
-2
4
-6
2
11
2
-7
-11
-4
5
-8
-3
-4
6
-1
-9
-4
17
21
-3
5
18
12
6
9
13
12
9
10
4
10
23
18
18
22
26
27
24
22
29
28
19
32
29
38
42
32
47
39
47
49
42
42
52
51
39
47
47
42
38
43
50
45
58
51
49
56
46
34
32
27
20
16
29
35
29
22
20
20
16
15
9
9
17
10
7
-2
6
2
2
10
9
6
-9
-7
10
-7
4
4
-3
-10
-11
-3
11
8
1
-3
-2
11
-1
-11
-7
3
-3
1
-3
-2
2
16
-1
0
0
-5
-4
-4
-5
-5
-1
-3
-7
-2
-1
1
-2
-2
4
-5
1
-2
8
1
-2
4
-3
-6
4
2
10
14
6
-11
-7
-2
-1
-19
-11
7
2
2
5
10
13
12
-1
-11
-11
5
3
-7
3
-1
2
5
-5
2
0
-1
-14
-18
15
12
1
-9
-5
-2
-4
-3
-6
0
8
-2
-2
-5
-2
-4
-1
0
-4
9
-8
7
-13
-8
-4
-4
-5
0
-12
-11
1
2
-3
5
-3
3
-6
-2
-11
-8
-6
-10
1
-2
-9
8
8
9
1
2
14
-14
-8
0
5
8
12
3
-13
-10
0
7
6
8
11
11
8
5
20
10
12
9
5
11
9
9
9
-10
-9
-6
4
7
4
13
-14
-8
-8
-10
-18
-15
-13
-2
-1
-2
-5
-7
-8
-6
-19
-15
-12
-8
-1
-8
-3
-20
-13
-15
-5
-17
-5
-2
-10
-17
-5
-4
-18
-13
-21
-22
1
-2
-6
-5
-11
-12
-13
-6
-6
-1
2
-3
-15
-16
-10
-10
-6
9
17
19
35
53
66
83
101
108
119
119
129
96
81
52
22
2
-23
-47
-33
-34
-42
-36
-45
-48
-32
-28
-23
-21
-15
-12
-12
0
-12
-11
-9
-5
-10
-10
-8
-14
-9
11
10
10
5
-18
1
-6
-16
-14
-1
-11
3
1
-2
3
3
0
-4
0
-6
-6
-8
3
7
-4
-5
-5
-7
5
-6
2
7
-1
3
-5
11
18
7
8
-4
1
2
14
9
2
7
10
6
6
21
20
6
21
19
9
17
24
22
26
30
33
34
36
25
30
36
32
24
39
47
38
38
54
45
45
46
42
41
47
43
44
47
58
52
59
55
45
38
42
39
31
31
21
29
29
26
22
18
9
21
17
19
20
15
16
16
6
0
4
-3
-7
-13
5
13
7
6
-2
2
3
2
-3
3
8
6
8
-3
-4
-5
-14
-7
-6
3
-5
0
-3
-1
8
1
-5
-5
4
0
-1
2
-3
-5
-4
-3
-5
-3
1
9
9
6
0
-6
1
-6
-3
-6
-4
5
-13
12
11
1
-3
-3
-8
1
5
3
1
-1
-3
13
12
-7
-1
2
-1
10
1
-3
-1
-3
2
-3
-6
-3
-6
-8
0
-3
-5
8
9
3
-3
-1
6
-3
-7
-2
-9
2
3
0
22
-6
-2
-11
-6
-2
2
-2
11
-1
-15
-4
-5
-5
-3
-5
3
-7
2
1
13
18
1
10
20
4
0
0
8
-1
4
24
27
9
14
21
14
10
7
11
6
0
5
11
15
1
-2
-14
-4
-3
-10
-6
-3
-11
-14
-11
0
-9
-7
-4
-1
0
-19
-15
-5
-8
-12
-11
-6
-10
-1
-2
-9
-9
-13
-19
-14
-25
-6
-9
-29
-3
2
5
2
-8
-18
-10
-9
-10
-15
-5
-8
1
1
-7
-11
-17
-21
-15
-4
-6
-5
6
18
22
32
38
58
66
88
92
106
118
128
117
106
69
53
28
1
-29
-40
-49
-53
-45
-48
-39
-34
-37
-27
-21
-8
10
12
-24
-15
-23
-24
-40
-18
-15
-1
-2
-19
-4
-7
4
6
3
0
1
-4
-1
-1
-3
-5
0
2
-8
-2
-7
-7
-5
9
11
11
1
6
-13
-21
-8
8
1
-1
17
3
3
2
11
-6
-15
5
-8
-10
-22
-6
19
23
22
20
28
23
15
6
4
8
26
15
15
17
24
24
24
28
37
45
30
34
38
23
40
43
48
66
49
38
34
34
43
47
43
41
45
45
50
55
57
55
51
47
43
50
41
39
41
33
15
23
32
27
24
26
11
21
31
24
16
13
6
4
8
5
3
0
2
0
-1
3
4
6
6
-12
-20
-3
13
-1
-5
8
12
-10
-2
0
-9
-12
-10
8
4
2
-2
15
-2
-14
-5
-2
-4
-2
1
-3
-3
5
12
4
3
-11
-3
-7
-13
-9
8
-5
-2
-4
4
7
6
12
11
-5
-14
-5
-3
-5
-1
2
2
6
3
8
9
-1
0
7
16
19
0
1
-14
-10
-16
-13
-2
-2
-15
-3
-3
0
7
5
1
-3
-6
-5
2
11
4
13
17
13
17
10
-7
-2
7
10
1
18
15
8
7
10
11
15
12
12
11
3
0
12
14
19
6
12
-1
-2
-8
-5
4
2
-5
-14
-12
-11
8
10
-18
-13
-13
-18
-3
-11
-10
-3
-2
-8
-19
-19
-18
-15
3
2
4
-10
-16
-10
2
13
-7
-6
-22
-12
-8
-14
-10
-7
-19
-9
3
-2
-18
-7
-7
-13
-5
-9
-3
-13
-20
-13
7
4
11
18
17
21
28
40
59
59
66
94
108
126
123
114
87
56
30
-6
-28
-55
-39
-35
-49
-41
-42
-33
-38
-39
-34
-24
-17
-14
-12
-17
11
-5
-6
-5
-11
-7
4
1
-1
6
-4
17
6
-14
-13
-9
-8
-7
-16
-1
7
-1
-2
-2
-7
-6
6
14
9
2
5
3
-2
-7
-9
6
5
11
14
13
3
-4
10
0
10
2
7
-2
-11
2
-4
5
8
26
20
3
8
11
0
31
26
21
25
23
32
25
23
33
40
36
28
30
32
47
25
42
43
41
48
49
42
38
48
51
52
55
55
50
66
59
51
55
53
58
37
47
38
39
51
40
53
31
12
20
27
18
20
19
18
-4
-5
-1
7
14
10
0
8
22
23
19
-23
-25
-15
-13
-21
5
2
1
18
2
3
-17
-6
0
-3
-3
-1
22
1
-34
-18
-20
-2
1
2
2
-5
-10
-12
0
-19
-16
9
14
2
3
-2
-3
-3
-3
-12
-9
5
24
-7
-12
4
-3
0
-11
-6
-3
0
6
5
3
3
-6
-17
-4
2
7
-1
1
3
18
4
7
2
7
-14
-17
2
3
17
8
11
15
16
0
-1
9
15
13
13
1
5
10
10
-6
-10
5
1
10
-6
-8
1
1
-10
-11
-1
-6
-10
-34
-20
-10
-10
-10
-8
-11
-5
-11
-19
-16
-17
-15
-17
-16
-14
-25
-17
-13
-16
-10
-8
-16
-18
-16
-22
-27
-16
-5
-14
-10
-12
-6
-18
-8
-12
-22
-13
-16
-16
-20
-26
-25
-18
-3
-1
-3
-16
-23
7
9
5
17
10
15
39
45
55
75
98
120
106
94
86
65
42
12
-8
-40
-47
-46
-48
-44
-40
-42
-39
-37
-51
-38
-25
-36
-21
-14
-22
-12
-12
-11
-13
-12
-4
1
-9
-5
-24
-19
-32
-27
-5
-2
-11
-4
-8
2
3
-11
-7
-13
-5
-22
-20
-5
-3
-7
3
-8
-1
2
10
-14
-15
-5
-12
-10
-11
0
-3
5
5
-6
3
3
-6
16
8
14
7
-6
-2
13
11
-7
5
12
9
21
14
17
21
23
22
23
20
14
19
23
41
42
33
39
41
42
28
39
25
47
43
35
52
57
51
50
41
54
41
40
36
32
27
43
33
36
37
36
18
19
10
15
16
2
6
7
23
1
-7
8
14
-16
-9
-6
-4
0
-5
-10
3
5
-9
-19
-18
1
-11
-13
-4
4
-14
-19
-17
-24
-24
-19
-13
-16
-15
-18
-16
-11
-4
-9
0
-3
3
-15
-10
-8
-21
-12
-7
-18
-10
-11
-19
-16
-14
-6
6
-4
-12
-21
-12
-14
-9
-8
-6
-24
-9
-8
1
5
4
4
4
1
1
-7
-8
-4
-16
-14
11
11
2
-5
7
8
3
5
-7
-3
-3
9
14
14
11
-11
-11
-9
-9
-9
-17
-11
-5
-13
-3
-12
-7
-16
-28
-25
-25
-11
-15
-20
-20
-2
-20
-17
-8
-12
-15
-24
-28
-23
-28
-23
-18
-19
-23
-17
-15
-14
-7
-15
-16
-11
-29
-27
-23
-21
-13
-11
-23
-25
-22
-24
-33
-20
-20
-27
-13
-6
-19
-23
-20
-18
-7
-8
-8
-14
-6
4
10
28
30
54
69
78
102
112
119
99
96
73
48
15
-3
-22
-45
-44
-48
-60
-58
-42
-40
-49
-36
-21
-17
-33
-31
-24
-25
-28
-29
-17
-10
-12
-7
-13
-20
-18
-18
-19
-14
-7
-15
-22
-7
-12
-17
-18
-23
-19
-14
-8
-9
-21
-11
-10
-28
-17
-11
-12
-11
-13
-9
-24
-17
-15
-13
-15
-8
6
-3
-4
-5
-15
-7
-3
4
2
0
-2
5
-7
-14
-9
-6
6
3
-1
0
10
9
-1
-1
4
11
20
21
13
15
17
23
23
32
29
33
33
38
34
48
28
24
34
35
38
34
31
25
17
9
3
6
-6
-3
-1
7
1
6
3
-4
-6
-11
-5
-12
-11
-17
-9
-24
-19
-22
-13
-25
-2
-7
-13
-8
-3
-9
-8
-16
-15
-12
-9
-10
-14
-16
-17
-7
-10
-19
-14
-12
-13
-11
-8
-8
-11
-12
-10
-23
-7
-27
-28
-26
-25
-10
-12
-9
-15
-24
-7
-10
-12
-12
-5
-3
-14
-7
-14
-12
-2
-10
-9
1
6
6
-2
-4
0
7
-8
-6
-6
-8
5
-2
-5
-2
8
-5
-14
-3
7
10
7
3
-3
-3
-10
-8
-1
-4
-13
-13
-15
-15
-4
-39
-28
-13
-14
-19
-17
-16
-17
-9
-20
-20
-20
-23
-22
-20
-11
-11
-9
-19
-33
-26
-20
-18
-32
-24
-12
-10
-15
-18
-19
-19
-16
-26
-23
-33
-43
-18
-8
-13
-3
-15
-10
-23
-29
-29
-25
-20
-19
-17
-28
-49
-27
-22
-21
-19
-3
-3
3
6
12
28
40
39
62
76
79
92
111
114
117
108
76
24
18
-17
-55
-50
-56
-47
-42
-40
-39
-34
-32
-26
-16
-17
-22
-15
-24
-19
-12
-18
-19
-25
-25
-22
-19
-9
-9
-16
-10
-17
-19
-29
-20
-12
-11
-13
-24
-15
-11
-14
-16
-20
-19
-20
-11
-12
-9
-6
-5
-10
-12
-8
-16
-7
-12
-14
-11
-15
-16
-20
-19
-9
-5
0
-17
-8
-7
-5
-7
-11
-3
-5
-4
-3
-3
15
13
-7
-8
-5
9
8
7
15
17
8
11
20
11
14
15
19
31
21
24
21
17
26
25
27
37
30
37
43
34
29
24
28
33
27
24
20
43
33
26
26
16
13
14
8
6
12
11
8
13
-4
-10
-2
-3
-1
-13
-9
-14
-12
-14
-18
-17
-13
17
4
-21
-7
-13
-8
-9
-10
-13
-24
-18
-21
-11
-10
-10
-7
-6
-3
-6
-15
-17
-14
-11
-5
-13
-16
-9
-12
-16
-20
-10
-6
-11
-14
-20
-8
-14
-22
-9
-9
-11
-3
-5
-13
-21
-16
-13
-10
1
1
-1
-16
-14
-11
-22
-35
-5
-2
-10
-16
-20
-6
-3
-10
-7
-5
-11
-5
-13
-18
-18
-23
-8
-9
-13
-16
-2
-5
-5
-15
-11
-9
-20
-13
-19
-19
-14
-8
-15
-4
-6
-11
-7
-7
-7
-17
-22
-15
-16
-23
-1
0
-13
-11
-9
-11
-8
-10
-6
-19
-12
-1
-14
-9
-6
-3
-10
-1
-3
-1
5
4
10
6
-4
10
-11
-1
4
-2
-2
0
-14
-8
-7
-17
-11
-12
-17
-21
-5
-17
-12
-20
-23
-19
-19
-16
-26
-20
-8
-33
-33
-22
-23
-7
-11
-25
-26
-13
-18
-21
-24
-27
-20
-15
-16
-17
-20
-22
-22
-19
-21
-28
-19
-16
-7
-32
-26
-17
-22
-19
-19
-12
-15
-23
-20
-22
-32
-27
-26
-20
-3
-4
-16
-28
-28
-21
-14
-11
-8
-9
-2
20
23
35
45
59
76
86
107
102
119
119
100
85
45
21
-9
-32
-50
-48
-40
-48
-48
-41
-41
-40
-36
-18
-9
5
-33
-14
-20
-21
-13
-19
-21
-20
-11
-10
-13
-20
-11
-11
-33
-13
-7
-12
-19
-14
-13
-4
-11
-11
-18
-19
-24
-25
-10
-2
-6
-2
-13
-9
-11
-18
-18
-24
-14
-16
5
-3
-9
-3
-12
1
-5
-5
-12
-8
-11
-2
-9
-5
10
7
-14
-20
-16
-8
-4
0
7
7
10
2
0
0
4
-5
18
17
18
24
23
19
22
21
15
22
27
32
28
34
31
31
29
24
28
34
31
32
36
39
38
33
40
26
21
32
13
32
27
20
16
8
10
13
19
21
17
-1
5
3
-5
-7
-14
-17
2
14
2
-15
-20
-8
-3
1
-7
-7
-1
0
-20
-16
-14
-17
-20
-19
-9
0
-4
-8
-8
-4
-6
-10
-12
-12
-15
-20
-22
9
5
5
-12
-21
-16
-17
-6
-9
-15
-16
-7
-8
-4
-2
-11
-12
-11
-3
-5
-16
-5
0
-4
-5
-13
-13
-9
-5
-9
-17
-15
-7
-5
-2
-7
-17
-15
-7
-10
-8
-10
-9
-9
-9
-9
-12
-2
-4
-12
-11
-12
-9
-11
-18
-12
-15
-14
7
-4
-5
-9
-8
-8
-5
-19
-10
-6
-6
-8
-17
-10
-2
-13
-6
3
-5
-19
-23
-23
-18
-10
-9
-10
-9
-21
-16
-25
-19
-9
-34
-40
-26
1
-9
-8
-13
-11
-2
0
-7
-5
-15
-24
-18
-17
-12
-14
-11
-9
-10
-10
-3
-12
-13
-19
-8
-6
-10
-2
-4
-15
-20
-8
-12
-4
-11
-25
-10
-11
-8
5
-4
-12
-9
-11
-21
-19
-17
-3
-3
7
-19
-11
-3
-6
-9
-22
-13
-3
16
20
-3
-9
-14
-23
-33
-27
-25
-15
-15
-22
-4
-13
-17
4
-3
-15
-13
-8
-5
-8
-10
-13
-10
-11
-14
-15
-14
-3
-8
-8
9
0
0
-12
-5
-8
-5
-15
-5
23
-2
-10
-11
-11
9
-7
-2
4
8
11
10
-4
8
24
7
-20
-7
-5
0
-13
-12
-10
-14
-12
-20
-19
-18
-6
-16
-9
-10
-12
-10
-14
-21
-40
-10
-15
-16
-3
-7
-4
4
4
-17
-26
-14
-26
-25
-27
-16
-19
-15
-15
-22
-20
-16
-21
-13
-16
-27
-9
19
4
-38
-35
-12
-7
-34
-27
-7
-15
-3
4
-18
-23
-25
-19
-24
-15
-9
4
9
2
21
21
41
45
65
82
107
115
121
105
78
76
50
26
0
-14
-45
-48
-42
-40
-44
-57
-34
-30
-26
-3
-41
-41
-27
-28
-21
-13
-12
-4
-5
-15
-26
-21
-23
-20
-14
-5
-13
-12
-7
-12
-8
-10
-9
-13
-17
-6
-8
-10
1
-3
3
-9
-16
-14
-10
-9
5
-3
-21
-17
-12
-12
-8
0
-2
-4
-4
-10
-9
-8
-10
10
-1
-2
-15
-6
4
5
6
14
26
-6
-4
7
8
0
7
9
2
20
16
26
12
11
17
19
17
30
30
31
38
29
17
37
32
27
37
42
37
36
51
38
38
35
42
44
40
37
37
37
38
22
27
25
31
45
37
21
29
17
9
19
15
13
12
22
22
17
-14
1
9
-3
-16
-10
-6
-3
-3
-1
-2
3
0
-11
-15
-7
-14
-14
-5
-11
2
-4
-10
-3
0
-4
10
-16
-21
-18
-9
-1
-13
-5
-5
-7
-5
-12
-9
-2
2
5
0
-21
-13
-17
-17
-12
-5
-8
-9
-11
-5
-4
1
10
-16
-22
-8
-7
-10
0
-14
-10
-11
-6
-5
-2
0
-11
-12
-2
-4
-14
-8
5
10
-18
-12
-6
-3
-3
-8
-7
-6
-14
-9
-5
-4
-1
-5
-8
-9
-9
-6
-14
-15
-4
-7
-13
-13
2
-3
-3
-14
-4
-11
-17
-12
-9
-14
-14
-4
-6
-14
-13
-2
-8
-9
-6
-19
-20
1
-17
-14
-12
-5
-3
-3
-10
-2
-6
-8
-26
-16
-16
-16
-8
-7
-5
-8
-11
-3
6
17
-12
-11
-4
-4
2
2
-4
-13
4
11
15
8
2
3
-2
2
10
4
5
1
1
-8
-14
-18
5
-12
-20
-11
-9
-4
-12
-3
-15
-11
-8
-17
-20
-36
-23
-18
-16
-13
-11
-10
-11
-8
-20
-21
-12
-10
-16
-19
-13
-18
-18
-14
-13
-17
-24
-30
-28
-14
-21
-6
-16
-12
-12
-12
-10
-12
-5
-3
-18
-25
-20
-26
-23
-17
-21
-20
-26
-25
-18
-9
-13
-9
-3
7
1
15
26
40
49
71
90
98
116
116
117
101
74
54
24
-5
-23
-45
-56
-51
-44
-44
-41
-30
-39
-31
-23
-16
-13
-14
-9
-11
-8
-10
-5
-11
-5
-11
-13
-7
-14
-7
11
-4
-5
1
-12
-15
-10
-7
-5
-4
-1
1
-3
-8
-10
-3
2
-16
-6
1
4
-2
7
9
6
0
4
3
2
4
24
26
-10
-9
-6
0
0
6
10
5
10
4
3
11
8
16
12
2
13
21
17
23
25
17
26
27
29
31
30
39
37
57
35
18
32
49
39
42
50
53
50
48
47
45
53
49
51
49
47
51
52
44
55
52
50
46
50
45
53
57
47
18
32
35
30
20
22
21
13
16
15
25
23
8
10
21
-2
11
9
8
-5
2
8
0
8
9
12
-1
10
-5
0
-11
4
3
9
11
7
1
12
6
-2
-2
6
-1
6
13
7
6
7
3
2
0
5
5
6
-6
12
1
2
13
2
-2
-6
12
18
3
4
-2
0
5
7
0
2
0
3
7
5
6
1
1
9
9
10
1
1
6
11
13
19
1
7
6
-2
5
8
6
16
11
15
14
9
4
3
1
-2
5
-4
-3
10
8
14
12
16
13
6
-5
7
0
1
3
-5
11
12
5
6
2
-3
4
1
-8
7
12
13
5
6
0
1
4
5
12
9
8
3
-3
8
-1
-12
-3
8
14
8
7
4
5
1
9
6
2
10
19
16
19
20
11
11
9
19
13
20
11
13
25
24
10
6
23
26
19
20
11
8
3
9
0
17
12
8
3
1
-7
-11
5
5
4
4
-3
-5
-11
2
7
1
2
6
-11
-4
2
-3
2
-6
8
-5
-7
-12
-4
-5
-3
-12
-6
-7
-4
7
-7
-8
-1
-7
-18
-5
-1
-1
-1
5
2
2
-5
-2
-10
-5
-2
-15
-3
5
-7
-6
4
7
15
24
14
30
50
72
64
95
107
107
125
111
129
107
89
68
34
15
-17
-37
-41
-41
-33
-25
-23
-19
-9
-15
-16
-11
-8
-5
1
11
15
11
-14
-10
-10
-17
16
5
-11
-7
4
9
2
-3
-1
-5
-1
3
15
7
1
-7
13
8
2
8
-1
0
11
16
4
-17
-9
6
10
1
-8
3
12
2
12
11
3
16
9
5
-2
7
11
23
16
6
10
14
10
20
12
12
19
9
23
12
20
22
18
17
15
20
24
35
35
42
39
35
31
49
40
27
35
49
45
36
46
42
41
47
52
50
42
44
56
54
40
48
60
46
41
42
45
43
54
44
21
34
7
17
28
33
14
18
12
13
9
13
10
10
17
5
-3
19
11
3
-8
3
12
7
3
12
15
10
15
-5
-7
2
-7
-16
1
18
13
15
9
7
5
7
3
-5
6
1
6
5
2
1
3
4
1
-1
-6
2
0
7
15
3
8
8
6
6
2
1
1
2
4
-5
3
5
1
7
12
7
3
5
10
6
3
5
-12
-1
4
-1
1
13
-6
10
11
3
-6
-5
9
0
-7
-9
16
10
8
5
-5
7
17
10
8
0
-3
-6
-8
-1
-3
-8
12
10
4
5
-2
-7
8
1
8
5
4
0
3
2
-2
2
0
-5
-4
6
7
9
9
0
-2
-5
-11
-12
-4
11
5
5
7
-2
3
9
8
4
5
13
4
11
10
24
3
-2
10
12
14
13
9
18
21
12
11
17
8
8
17
15
15
10
2
-1
4
11
6
-7
2
-1
0
5
14
-26
-12
-5
-3
-8
5
-7
-8
-5
-14
-7
-2
-3
3
10
-22
-29
-16
3
-4
-11
-3
-2
-8
-13
-11
-19
-9
0
-2
-5
-4
-17
-12
-4
-7
-10
-6
-3
2
1
-14
-10
-1
-6
-13
-27
-17
4
-6
-7
-8
-2
8
11
7
18
33
46
72
78
101
99
109
130
128
130
102
88
53
31
8
-20
-45
-30
-32
-44
-47
-33
-24
-20
-14
-21
-6
-5
-13
-5
-11
-6
-4
-8
-1
2
-4
-9
-3
0
-7
0
1
-1
-2
-3
-5
-2
-8
-7
4
-6
8
7
2
-4
-18
-12
-4
-4
-3
0
9
12
2
-1
4
5
8
6
-1
7
-2
-5
0
2
11
8
4
-3
-3
-4
19
16
22
13
-5
0
-4
8
8
9
22
14
13
28
23
20
27
30
32
34
40
17
22
36
36
39
38
40
46
49
34
36
52
64
49
39
41
42
42
44
40
41
37
42
44
37
36
38
29
29
39
24
24
23
28
25
30
21
22
18
14
18
15
-1
3
-14
2
11
6
-1
-5
7
9
5
3
2
-4
-15
-10
-11
-6
9
3
-7
-2
-9
-6
-8
11
3
2
4
-6
3
4
-2
-2
-2
4
1
-10
-9
10
-10
-6
-1
-16
-4
-1
-3
-5
-7
-5
-1
3
-2
-5
-2
2
2
5
-4
-4
-4
6
5
-3
5
4
5
-9
-3
1
-15
-2
-4
3
6
-1
-12
-5
-7
-4
-2
3
10
1
-1
0
1
-1
-14
-6
-8
-3
-7
-11
-5
4
1
-2
-1
6
9
-6
-5
-10
4
-6
-8
5
-2
-6
-8
-1
-12
-10
-2
0
6
-18
-5
-6
-12
-5
4
5
-7
-7
2
-6
-7
3
6
13
19
17
-3
0
2
7
2
-1
6
13
9
10
11
9
6
-3
5
10
5
-2
-2
-3
-14
11
3
-1
-6
-5
0
3
-11
-8
17
-19
-17
-12
-9
-10
-20
-12
-14
-16
-2
-13
-18
-9
-20
-20
-4
-14
-16
-9
-10
-17
-12
-11
-6
-10
-6
-19
-10
-16
-17
-14
-8
-13
-17
0
-9
-13
-13
-12
-9
-10
-6
-25
-11
-14
-15
-9
-11
-11
-3
-8
-11
4
11
9
20
35
48
52
56
79
93
104
112
112
94
75
48
33
16
-14
-47
-52
-48
-49
-50
-48
-46
-37
-27
-30
-38
-16
-11
-1
-8
-7
-8
-7
-19
-11
-9
-12
0
2
-19
-4
-9
-14
-16
-1
0
-3
-10
-14
3
-5
-5
-3
-8
-11
-7
-15
-2
8
2
8
-6
1
2
0
-5
2
-3
-4
-15
-9
-3
8
18
11
3
7
0
-2
-1
-6
-1
13
15
10
7
2
3
11
9
12
10
26
29
28
24
20
9
14
23
37
37
36
36
33
40
30
40
43
48
53
55
55
32
45
52
50
32
33
36
55
53
54
54
53
47
45
35
32
20
28
32
35
32
23
27
15
28
12
9
14
15
4
8
11
4
-1
-5
-1
-1
-6
-7
-1
-3
7
9
-5
-5
-2
-6
-5
-4
-11
-22
1
-2
-4
-2
5
2
-2
-6
-4
-9
-18
-16
7
7
6
-10
-10
-1
-9
-12
-6
0
-4
-9
-12
-8
0
1
-3
-9
-5
-6
-3
1
-12
0
-10
-2
1
3
-3
-9
-7
-4
-2
1
2
1
1
0
7
-2
-5
-4
-13
-11
-16
7
10
-11
-11
-7
3
-1
-5
3
2
-2
-2
-4
-4
4
2
-3
3
4
5
17
11
14
5
8
-6
-4
3
5
18
23
13
14
11
11
8
2
-6
-4
5
7
-11
-11
-9
-9
-15
-4
-13
-7
-6
-6
-17
-12
-13
-24
-25
-14
-15
-11
-19
-9
-11
5
-3
-27
-18
-11
-22
-20
-13
-13
-9
-9
-23
-24
-25
-26
-12
-18
-10
-8
-10
-17
-18
-17
-15
-16
-13
-17
-24
-12
-15
-15
-20
-26
-22
-14
-10
-12
-17
-13
-11
-4
3
3
12
18
32
37
63
72
73
77
121
135
114
85
62
33
7
1
-27
-56
-57
-52
-49
-42
-33
-40
-41
-30
-31
-22
-22
-13
-16
-20
-23
-17
-12
-13
-12
-6
-11
-10
-23
-29
-25
-9
-9
1
-6
-5
-7
-17
-19
-13
-11
-16
-14
-7
-7
0
-2
-11
-13
-15
-18
-12
-12
-9
-1
-8
-10
3
-1
-4
-16
-16
-7
2
-3
-8
0
-6
-7
-2
-3
6
11
-7
-7
-2
-1
-2
4
3
6
12
17
10
12
1
9
20
19
27
28
29
29
28
24
22
27
42
38
32
25
38
51
49
35
36
35
40
32
34
41
45
34
41
39
39
35
32
20
26
19
17
21
17
8
7
9
-2
11
4
-2
3
4
4
6
-4
-3
2
-4
-3
-16
-18
-18
-12
9
-15
-14
-7
-10
-8
-6
-12
-16
-25
-11
-25
-17
-10
-16
-9
-8
2
-13
-13
-10
-9
-13
-19
-9
-14
-2
-2
-11
-27
-13
-7
-13
-15
-14
-9
-19
-18
-10
-14
-18
-8
-10
-5
-14
-8
-9
-4
-19
-11
-15
-17
-16
-5
-4
-9
-13
-11
-14
-5
-8
-18
-11
-6
-16
-8
-6
-10
-19
-9
-10
-9
-14
-8
-8
-7
-8
-6
-17
-4
-5
-6
-11
-4
14
5
-7
-4
-13
8
4
1
1
-7
1
9
12
7
10
7
2
-6
-11
-4
-6
-5
1
2
-3
-7
-18
-21
-17
-17
-27
-24
-9
-16
-15
-31
-13
-8
-24
-20
-13
-21
-18
-18
-14
-25
-22
-13
-14
-20
-21
-21
-22
-31
-23
-27
-24
-21
-28
-12
-8
-25
-27
-29
-33
-23
-20
-21
-21
-8
-23
-20
-17
-19
-19
-25
-30
-39
-22
-18
-19
-14
-9
-16
-12
-14
-3
-10
20
30
54
58
81
90
98
113
118
109
97
68
35
8
-18
-20
-51
-55
-60
-50
-44
-46
-44
-29
-26
-23
-19
-20
-29
-17
-11
-16
-33
-42
-32
-18
-8
-21
-13
-15
-25
-22
-21
-20
-12
-21
-13
-17
-28
-18
-8
-18
-18
-12
-10
-23
-11
-3
-22
-14
-15
-14
-12
-12
-5
-24
-10
-18
-24
-25
-22
-11
-20
-3
2
-1
-16
-10
-8
-13
-11
-12
-14
-3
-7
-6
-16
-14
-11
-2
3
15
-3
-1
5
7
3
5
11
13
7
12
19
13
12
24
18
19
27
20
24
29
19
3
31
38
57
34
28
34
32
39
28
33
31
30
24
22
18
33
23
20
16
17
9
7
3
8
-1
0
0
-6
-6
2
-2
7
-7
-12
-21
-21
-20
-8
-2
-11
-19
-11
-14
-19
-15
-11
-8
-9
-8
-15
-21
-21
-15
-7
-11
-14
-14
-10
-23
-23
-16
-14
-12
-14
-13
-18
-22
-25
-9
-14
-16
-13
-11
-15
-12
-23
-29
-16
-3
-10
-18
-21
-9
-12
-16
-16
-16
-15
-15
-6
-10
-12
-24
-25
-14
-9
-10
-13
-19
-22
-10
-3
-6
-13
-22
-17
-11
-20
-17
-16
7
-9
-17
-9
-24
-26
-19
-16
-9
-6
1
8
-23
-19
-8
-5
-10
-5
0
-7
-7
-5
-7
8
1
5
0
-7
13
2
-7
4
-3
2
-7
-11
-12
-18
-10
-9
3
-1
-38
-36
-27
-22
-29
-17
-19
-19
-22
-24
-27
-26
-14
-21
-22
-32
-21
-24
-21
-20
-20
-34
-29
-29
-24
-22
-26
-17
-22
-25
-30
-15
-27
-17
-24
-35
-39
-30
-28
-32
-35
-34
-25
-16
-22
-18
-25
-33
-21
-24
-20
-26
-32
-26
-25
-22
-15
-9
-11
-12
5
17
22
34
67
88
81
89
100
96
90
78
49
24
3
-27
-46
-63
-60
-74
-58
-55
-53
-50
-46
-39
-30
-20
-32
-38
-33
-35
-31
-24
-29
-20
-19
-32
-33
-21
-31
-31
-33
-20
-14
-27
-25
-20
-21
-23
-22
-23
-27
-16
-7
-24
-36
-21
-21
-28
-18
-17
-7
-22
-41
-14
-15
-21
-15
-20
-16
-15
-24
-18
-22
-21
-20
-29
-29
-2
-3
3
-10
-11
-14
-23
-14
-11
-2
-15
-9
15
3
-13
-3
5
3
1
-1
-5
-3
10
12
16
13
12
21
9
19
25
20
13
17
25
30
32
28
27
19
23
28
22
29
34
27
17
24
27
24
15
13
17
19
18
3
-1
0
3
-6
-3
-1
-12
-10
6
-5
-12
0
-8
-9
-26
-14
-19
-17
-19
-15
-17
-26
-32
-18
-21
-19
-18
-13
-11
-25
-17
-17
-18
-19
-27
-30
-25
-17
-7
-10
-40
-24
-20
-24
-20
-14
-12
-20
-24
-25
-26
-21
-20
-15
-16
-28
-14
-21
-26
-11
-23
-36
-28
-23
-17
-26
-29
-17
-26
-23
-17
-26
-26
-26
-15
-15
-7
-22
-25
-13
-3
-5
-16
-14
-14
-16
-4
-2
-10
-17
-17
-15
-10
-15
-10
-13
0
-1
-8
-10
-10
-11
-10
-10
-9
-5
-1
-12
9
-10
-8
2
-2
0
-1
-1
-7
1
-9
-11
-10
-12
-30
-15
-21
-27
-21
-26
-31
-22
-16
-29
-21
-17
-23
-25
-31
-17
-21
-25
-30
-21
-30
-32
-27
-23
-28
-23
-24
-23
-25
-30
-28
-29
-29
-31
-36
-33
-14
-29
-26
-27
-29
-32
-42
-39
-24
-32
-21
-25
-21
-26
-19
-23
-42
-21
-20
-18
-17
-29
-33
-32
-19
-19
-20
-20
-6
0
13
43
59
44
52
74
83
100
92
74
56
31
12
-15
-46
-61
-67
-63
-59
-60
-63
-66
-62
-43
-40
-44
-36
-29
-24
-22
-22
-31
-18
-25
-25
-30
-30
-14
-25
-18
-30
-30
-7
-13
-9
-25
-25
-24
-21
-20
-20
-19
-25
-18
-25
-21
-20
-20
-22
-21
-19
-2
1
-6
-17
-17
-22
-19
-35
-28
-2
-5
-10
0
-9
-19
-6
-8
-18
-9
-17
-12
-7
-7
-8
-15
-4
-2
4
12
4
-3
-9
2
5
1
13
11
16
12
3
14
11
16
28
21
22
31
33
32
30
34
28
30
21
26
43
47
44
48
26
24
35
26
26
19
25
26
18
18
2
11
17
31
7
5
-5
-6
-6
-6
-6
1
-9
-6
-7
-18
-12
6
-16
-8
-14
-35
-18
-15
-17
-16
-21
-16
-18
-15
-19
-22
-20
-33
-30
-14
-10
-16
-26
-27
-15
-13
-24
-18
-15
-22
-19
-20
-22
-22
-11
-19
-25
-23
-14
-27
-39
-37
-37
-28
-6
-4
-13
-11
-14
-3
-28
-38
-16
-10
-7
-17
-7
-13
-18
-26
-23
-16
-27
-7
5
-7
-6
-8
-20
-3
0
7
2
-5
-5
0
-7
-21
-10
-16
-2
17
4
-2
-9
-4
-5
-5
-12
-9
-20
-16
-22
-18
-13
-22
-25
-19
-20
-33
-28
-26
-22
-10
-8
-32
-35
-37
-28
-16
-29
-30
-23
-17
-20
-24
-22
-28
-29
-31
-23
-8
-27
-21
-33
-22
-24
-20
-24
-25
-32
-14
-5
-17
-36
-34
-27
-25
-32
-31
-28
-27
-29
-31
-33
-39
-33
-30
-35
-35
-27
-15
-14
-3
-4
-7
11
15
37
48
63
67
76
78
99
110
91
62
37
9
-14
-44
-61
-66
-59
-53
-53
-55
-54
-40
-53
-56
-55
-46
-21
-26
-27
-13
-21
-22
-22
-23
-22
-29
-16
-23
-26
-20
-15
-22
-18
-22
-19
-25
-19
-18
-20
-19
-11
-19
-23
-21
-25
-27
-25
-21
-18
-5
-15
-5
-16
-7
-17
-18
-10
-11
-7
-23
-8
-15
-14
-12
-14
-16
-4
-8
-20
-9
-12
-14
-3
-6
-5
-14
5
1
-3
-4
-3
7
3
6
9
2
-8
15
17
18
22
33
31
42
11
25
34
33
21
14
17
35
26
59
48
49
29
43
28
21
36
31
22
28
27
29
18
17
14
1
8
13
13
3
3
-5
-3
-11
-3
-15
7
-3
-7
-8
-13
-21
-31
-26
-33
-3
-11
-8
-16
-9
-14
-20
-16
-11
-21
-21
-18
-14
-23
-34
-35
-11
-6
-18
-8
-18
-32
-36
-21
-18
-16
-20
-16
-15
-18
-18
-20
-23
-22
-20
-18
-16
-14
-6
-13
-19
-24
-24
-14
-21
-19
-18
-22
-8
-19
-12
-14
-18
-6
-9
-14
-14
-6
-9
-17
-15
-12
-7
-4
-8
0
-15
-15
-3
0
4
-4
-6
-3
-4
6
6
-14
-4
-8
-15
-11
-20
-17
-11
-7
-16
-12
-21
-14
-10
-16
-13
-21
-15
-25
-28
-22
-26
-38
-28
-9
-19
-22
-18
-20
-21
-26
-30
-29
-8
-25
-40
-33
-30
-22
-19
-27
-32
-30
-37
-36
-31
-27
-13
-24
-21
-25
-34
-30
-18
-20
-24
-31
-34
-28
-22
-19
-18
-7
-14
-40
-37
-36
-29
-29
-15
-9
-5
-6
-1
-7
18
34
45
67
76
83
101
117
102
97
87
46
22
-1
-27
-50
-56
-56
-49
-35
-41
-44
-42
-36
-39
-27
-36
-44
-43
-12
-20
-31
-17
-22
-19
-15
-34
-22
-34
-23
-20
-23
-19
-16
-14
-15
-29
-25
-29
-34
-32
-13
-18
-24
-28
-24
-18
-21
-18
-32
-34
-18
-13
-11
-4
-8
-29
-21
-29
-12
-20
-21
-10
-21
-18
-11
-12
-14
-11
-12
-16
-20
-16
-18
-20
-14
1
-12
-8
-2
2
0
-7
-5
-5
-1
-3
-1
-1
-1
-4
8
26
20
24
25
20
16
7
15
11
18
20
14
17
23
22
23
26
29
24
22
33
35
23
20
15
21
24
2
13
5
-12
-2
4
-2
-7
-8
-8
-4
-6
-17
-12
-15
-18
-10
-14
-17
-23
-18
-18
-19
-12
-17
-22
-12
-12
-8
-19
-23
-21
-28
-25
-23
-24
-21
-15
-13
-20
-21
-31
-25
-22
-26
-23
-19
-23
-16
-21
-18
-18
-12
-21
-23
-35
-20
6
-18
-18
-19
-20
-19
-26
-24
-30
-16
-15
-34
-18
-21
-22
-21
-22
-19
-16
-14
-20
-26
-18
-21
-19
-14
-18
-13
-17
-17
-15
-26
-35
-14
-4
-13
-13
-12
-10
-8
-18
-19
-14
-1
1
-2
-6
-13
-12
-8
-7
-4
-13
-15
-4
-1
7
-9
-17
-20
-17
-17
-24
-30
-29
-31
-35
-39
-28
-10
-12
-33
-22
-31
-21
-23
-34
-29
-23
-35
-30
-22
-29
-32
-22
-12
-27
-39
-39
-30
-25
-26
-21
-34
-22
-31
-32
-29
-44
-43
-30
-15
-36
-29
-33
-33
-27
-31
-31
-36
-34
-35
-38
-31
-24
-23
-40
-24
-19
-41
-34
-27
-20
-23
-26
-26
-5
5
12
20
33
54
72
71
86
83
110
113
98
66
33
13
-20
-41
-67
-71
-71
-58
-61
-44
-41
-44
-43
-34
-31
-26
-32
-30
-28
-16
-28
-35
-30
-26
-22
-26
-25
-23
-28
-28
-23
-27
-24
-26
-29
-33
-26
-29
-28
-15
-20
-22
-40
-24
-27
-17
-16
-24
-33
-25
-24
-19
-22
-20
-29
-25
-33
-27
-24
-30
-23
-13
-14
-16
-24
-25
-16
-28
-8
-10
-16
-17
-22
-16
-6
-9
-16
-13
-6
-14
-16
-16
7
3
15
-7
-6
-2
-4
-5
9
11
7
15
23
18
13
19
10
9
16
35
22
27
22
21
19
15
15
19
10
35
19
12
19
15
19
20
5
4
12
16
-2
-6
-5
-13
-15
-12
-10
-15
-11
-7
-26
-18
-9
-10
-24
-20
-16
-22
-19
-30
-32
-30
-19
-27
-25
-17
-9
-33
-24
-20
-21
-26
-26
-21
-26
-21
-33
-25
-20
-29
-28
-27
-25
-18
-10
-28
-17
-22
-35
-25
-23
-26
-28
-22
-22
-33
-15
-11
-15
-27
-26
-23
-25
-32
-25
-25
-31
-34
-28
-23
-11
-25
-17
-20
-23
-37
-22
-32
-20
-12
-8
-22
-27
-33
-29
-24
-26
-30
-19
-20
-20
-24
-26
-24
-22
-24
-29
-22
-21
-29
-33
-28
-17
-22
-21
-24
-23
-19
-23
-33
-34
-21
-21
-26
-25
-22
-26
-28
-15
-30
-34
-26
-19
-23
-16
-17
-11
-6
-8
-32
-21
-25
-17
-5
-10
-17
-19
-23
-9
-16
-23
-3
-8
-12
-7
-3
-9
-11
-25
-26
-21
-29
-28
-29
-33
-28
-21
-46
-33
-35
-26
-15
-23
-30
-36
-30
-29
-40
-35
-35
-30
-36
-42
-31
-34
-26
-35
-42
-35
-35
-36
-36
-41
-34
-40
-36
-17
-32
-36
-36
-36
-37
-43
-37
-37
-37
-35
-37
-39
-32
-35
-35
-36
-46
-20
-22
-26
-40
-44
-33
-44
-53
-34
-28
-24
-20
-15
-19
-2
27
2
15
26
55
69
88
95
114
109
94
70
34
9
-28
-51
-59
-67
-67
-58
-61
-51
-45
-46
-40
-41
-49
-42
-39
-31
-38
-28
-42
-34
-31
-28
-32
-33
-33
-38
-37
-24
-16
-20
-32
-25
-30
-30
-36
-29
-22
-18
-16
-16
-19
-39
-37
-29
-25
-24
-25
-34
-27
-36
-41
-27
-32
-33
-26
-17
-13
-23
-27
-18
-19
-15
-30
-29
-11
-22
-29
-27
-8
-11
-19
-19
-12
-18
-20
-23
-20
-14
-5
3
-4
-9
-14
-14
-1
10
9
10
2
2
13
3
9
11
10
14
24
25
13
5
17
18
15
16
18
26
15
19
16
17
16
23
14
10
13
12
18
11
6
6
7
6
-5
6
11
-4
-13
-5
-15
-25
-34
-15
-14
-19
-25
-21
-19
-24
-28
-30
-28
-13
-19
-19
-28
-23
-18
-20
-21
-14
-23
-29
-27
-25
-22
-19
-15
-21
-22
-20
-21
-8
-25
-27
-21
-21
-31
-29
-35
-28
-30
-31
-26
-26
-26
-18
-16
-28
-29
-37
-24
-19
-28
-24
-22
-25
-25
-21
-30
-19
-29
-36
-18
-23
-17
-19
-17
-24
-13
-26
-22
-22
-42
-40
-24
-22
-8
-17
-29
-21
-21
-21
-29
-28
-26
-20
-19
-19
-16
-18
-26
-29
-31
-39
-32
-14
-29
-30
-25
-31
-30
-29
-36
-26
-22
-26
-34
-27
-21
-18
-24
-35
-31
-29
-33
-25
-24
-25
-15
-23
-23
-29
-35
-30
-34
-29
-11
-21
-22
-23
-21
-12
-10
-28
-22
-26
-28
-34
-20
-15
-18
-20
-9
-8
-10
-12
-19
-20
-13
-8
-18
-15
-15
-18
-18
-18
-18
-24
-17
-24
-30
-43
-34
-24
-33
-30
-30
-37
-35
-33
-26
-27
-29
-27
-39
-34
-30
-35
-40
-42
-47
-32
-32
-34
-34
-30
-24
-33
-25
-40
-29
-31
-36
-40
-35
-31
-21
-19
-21
-47
-43
-39
-30
-35
-41
-34
-42
-48
-31
-38
-33
-24
-36
-39
-34
-41
-38
-31
-38
-38
-29
-37
-38
-29
-31
-23
-11
-4
3
6
37
66
46
59
77
93
102
100
81
74
34
9
-21
-44
-68
-65
-66
-58
-63
-69
-62
-67
-55
-50
-53
-45
-22
-19
-23
-28
-35
-48
-42
-27
-26
-30
-37
-28
-30
-29
-37
-33
-31
-35
-35
-26
-29
-25
-20
-23
-18
-28
-38
-27
-27
-27
-25
-29
-30
-25
-22
-15
-2
-23
-13
-12
-48
-38
-32
-27
-17
-25
-18
-16
-14
1
-8
-21
-21
-11
-1
-17
-47
-30
-28
-20
-22
-20
-19
-14
-14
-20
-5
9
-2
0
9
1
-1
-5
8
8
15
11
-2
10
9
10
7
16
14
11
24
29
35
22
27
21
22
20
15
14
17
22
20
22
13
22
12
-12
-5
-2
1
8
11
-6
-12
-10
-14
-25
-21
-7
-29
-27
-19
-17
-19
-14
-25
-25
-32
-28
-18
-20
-21
-31
-28
-34
-30
-16
-22
-32
-41
-24
-28
-25
-26
-15
-24
-29
-37
-34
-19
-31
-23
-36
-36
-43
-34
-40
-38
-36
-24
-11
-7
-30
-28
-20
-17
-40
-41
-44
-37
-26
-9
-22
-26
-29
-32
-24
-25
-18
-21
-15
-23
-33
-27
-30
-27
-27
-22
-29
-29
-29
-30
-28
-34
-25
-22
-26
-31
-22
-24
-19
-26
-24
-24
-32
-23
-21
-31
-19
-22
-29
-21
-17
-10
-11
-23
-36
-29
-26
-21
-14
-24
-19
-27
-28
-15
-11
-12
-16
-22
-31
-8
-19
-16
-18
-15
-11
-8
-14
-17
-15
-30
-28
-35
-26
-23
-17
-39
-26
-36
-40
-36
-29
-25
-26
-30
-33
-33
-37
-38
-42
-37
-32
-33
-32
-30
-43
-56
-50
-37
-26
-31
-28
-37
-27
-31
-34
-33
-42
-40
-41
-26
-23
-32
-28
-35
-36
-29
-45
-33
-24
-32
-58
-45
-26
-25
-33
-37
-33
-45
-44
-43
-35
-33
-29
-29
-26
-37
-25
-17
-12
-8
-1
15
26
39
45
66
69
88
89
83
43
31
1
-23
-26
-53
-70
-66
-66
-66
-68
-63
-56
-68
-78
-55
-46
-52
-37
-41
-33
-22
-29
-22
-24
-27
-35
-33
-34
-31
-30
-27
-23
-29
-31
-26
-23
-40
-27
-35
-22
-23
-25
-28
-29
-29
-30
-26
-15
-29
-16
-10
-16
-23
-22
-18
-26
-28
-28
-22
-14
-26
-24
-26
-24
-15
-18
-16
-15
-15
-18
-14
-12
-9
-15
-23
-20
-19
-5
-8
-14
-7
15
10
-9
4
1
2
1
11
13
16
13
12
13
13
22
16
22
26
28
26
20
18
22
28
34
33
33
31
9
15
24
23
23
25
30
19
15
18
12
7
5
4
4
-4
1
-2
-8
-8
-28
-20
-26
-25
-25
-31
-24
-12
-21
-18
-13
-31
-32
-29
-26
-26
-27
-24
-25
-28
-28
-25
-26
-26
-31
-24
-31
-29
-27
-24
-24
-21
-23
-38
-33
-34
-35
-28
-27
-36
-29
-25
-23
-26
-22
-24
-30
-33
-30
-28
-32
-31
-25
-24
-31
-32
-21
-25
-31
-33
-21
-21
-14
-18
-27
-25
-19
-24
-26
-16
-21
-27
-23
-26
-27
-36
-34
-33
-31
-23
-23
-24
-30
-18
-16
-20
-20
-21
-17
-13
-13
-8
-18
-26
-12
-4
-12
-6
-13
-13
-19
-4
-6
-14
-15
-19
-10
-12
-19
-33
-29
-30
-29
-23
-31
-31
-35
-25
-28
-33
-37
-37
-29
-31
-33
-38
-41
-35
-47
-44
-31
-26
-21
-32
-23
-27
-48
-38
-29
-42
-46
-36
-28
-28
-29
-22
-25
-36
-58
-38
-38
-36
-34
-24
-31
-38
-35
-45
-43
-41
-34
-30
-39
-29
-33
-44
-51
-61
-27
-23
-27
-33
-27
-27
-21
-16
-9
4
8
18
32
43
49
56
85
103
107
96
74
39
17
-2
-24
-45
-61
-64
-73
-71
-68
-71
-76
-65
-40
-43
-34
-32
-33
-36
-31
-35
-40
-40
-36
-30
-29
-23
-14
-27
-32
-29
-32
-31
-33
-35
-29
-23
-32
-37
-32
-28
-21
-32
-26
-41
-31
-29
-21
-25
-29
-29
-31
-27
-31
-27
-21
-20
-15
-29
-31
-23
-21
-23
-22
-25
-21
-15
-19
-24
-21
-18
-20
-8
-17
-34
-28
-20
-14
-11
-20
-10
-2
-3
0
-10
-2
-8
5
-2
-5
9
11
-1
12
18
14
16
17
17
19
20
16
15
11
19
23
11
26
17
23
26
23
17
10
8
9
21
29
13
10
-10
-5
-3
-15
-15
-3
-5
-10
-20
-17
-16
-16
-26
-28
-27
-19
-8
-29
-27
-21
-28
-32
-24
-27
-32
-31
-29
-26
-30
-23
-15
-27
-37
-24
-25
-22
-34
-31
-27
-30
-31
-34
-26
-25
-38
-38
-26
-19
-16
-29
-29
-26
-18
-24
-25
-27
-29
-24
-23
-25
-34
-38
-33
-28
-26
-22
-12
-17
-32
-40
-26
-35
-34
-40
-29
-12
-25
-25
-17
-23
-29
-29
-24
-27
-21
-30
-28
-24
-21
-27
-27
-31
-17
-11
-22
-23
-18
-15
-21
-21
-26
-33
-33
-2
-6
-16
-18
-22
-17
-14
-17
-13
-21
-22
-10
-12
9
1
-17
-16
-26
-16
-15
-18
-16
-19
-19
-27
-28
-31
-23
-33
-41
-44
-32
-29
-17
-27
-24
-24
-33
-34
-43
-41
-39
-54
-33
-26
-31
-37
-29
-16
-28
-31
-32
-34
-28
-31
-31
-32
-38
-43
-49
-28
-36
-34
-40
-36
-29
-30
-28
-22
-24
-34
-31
-42
-45
-37
-40
-39
-37
-31
-31
-29
-21
-25
-26
-22
-29
-29
-22
-18
-7
7
46
46
62
89
94
103
115
109
76
51
19
-3
-24
-49
-61
-71
-62
-59
-55
-62
-37
-42
-33
-41
-34
-38
-44
-32
-17
-25
-37
-34
-24
-38
-31
-25
-25
-26
-27
-27
-39
-32
-29
-31
-34
-30
-27
-30
-22
-29
-26
-23
-17
-21
-26
-39
-35
-29
-29
-33
-30
-22
-28
-24
-28
-19
-19
-16
-17
-24
-29
-25
-27
-20
-27
-29
-17
-25
-29
-17
-15
-18
-27
-13
-8
2
-8
-26
-26
-20
-8
-15
-19
-15
-11
-6
-11
-5
12
10
8
4
9
16
11
7
1
6
13
19
21
15
22
14
15
15
23
12
13
22
25
20
15
12
10
6
-3
1
12
-2
-7
-2
9
2
-1
-9
-10
-14
-25
-18
-16
-20
-18
-25
-21
-21
-15
-28
-36
-27
-22
-13
-22
-27
-34
-29
-36
-31
-28
-22
-20
-24
-21
-35
-24
-25
-21
-23
-26
-28
-27
-22
-31
-34
-29
-17
-12
-32
-44
-37
-25
-23
-29
-32
-28
-29
-27
-28
-25
-31
-42
-13
-24
-21
-26
-29
-27
-17
-20
-27
-26
-22
-26
-27
-33
-25
-27
-44
-33
-12
-20
-14
-20
-37
-30
-29
-29
-30
-38
-27
-21
-28
-18
-22
-26
-33
-33
-24
-25
-32
-22
-18
-27
-24
-32
-29
-19
-22
-24
-40
-35
-22
-37
-27
-20
-35
-34
-35
-34
-28
-13
-16
-22
-28
-24
-16
-18
-29
-21
-23
-22
-24
-26
-26
-13
-13
-8
-7
-18
-35
-21
-4
-21
-19
-5
-20
-25
-11
-7
-13
-21
-25
-21
-26
-28
-34
-28
-33
-39
-38
-27
-31
-32
-31
-33
-30
-33
-20
-32
-30
-31
-32
-38
-41
-39
-45
-39
-55
-21
-16
-29
-41
-38
-35
-40
-37
-34
-35
-38
-28
-40
-41
-55
-33
-41
-40
-33
-28
-29
-32
-36
-30
-23
-41
-50
-44
-36
-35
-38
-18
-30
-40
-41
-39
-36
-27
-18
-27
-12
-18
-6
13
16
40
60
74
89
99
100
109
81
62
39
8
-17
-33
-62
-73
-64
-59
-68
-67
-50
-52
-45
-39
-36
-41
-34
-33
-35
-36
-35
-42
-31
-27
-24
-24
-31
-27
-34
-22
-30
-28
-25
-25
-48
-38
-33
-38
-28
-33
-32
-26
-22
-31
-26
-24
-28
-32
-32
-28
-19
-20
-23
-28
-30
-30
-29
-37
-16
-23
-20
-27
-21
-21
-22
-11
-17
-36
-28
-21
-36
-22
-14
-21
-16
-15
-21
-19
-17
-8
-14
-12
-8
-4
-4
2
-8
-1
2
-2
-14
-3
-10
5
22
12
11
6
10
11
24
18
15
5
14
17
21
14
21
19
18
5
17
21
15
22
10
6
1
0
-4
6
-1
-10
0
-1
-8
-8
-12
-16
-13
-8
-7
-20
-17
-19
-21
-29
-19
-32
-35
-16
-16
-13
-17
-20
-29
-38
-36
-38
-28
-24
-28
-22
-15
-26
-31
-30
-35
-38
-39
-27
-37
-31
-22
-23
-21
-20
-26
-21
-20
-25
-32
-27
-23
-12
-11
-26
-32
-25
-41
-32
-25
-29
-37
-31
-28
-31
-30
-26
-29
-46
-44
-12
-18
-23
-24
-29
-29
-24
-30
-25
-17
-18
-16
-27
-30
-22
-28
-28
-18
-20
-25
-17
-24
-32
-33
-32
-25
-33
-38
-33
-30
-28
-35
-27
-35
-24
-28
-26
-22
-27
-31
-21
-20
-12
-26
-41
-36
-27
-22
-27
-27
-29
-27
-28
-34
-28
-32
-28
-33
-36
-37
-50
-28
-14
-24
-31
-31
-38
-15
-18
-34
-36
-35
-23
-20
-21
-21
-40
-38
-26
-36
-31
-23
-20
-26
-26
-33
-29
-41
-23
-35
-27
-26
-12
-27
-27
-29
-14
-20
-18
-16
-18
-22
-18
-10
-18
-28
-21
-29
-23
-19
-1
-15
-18
-14
-14
-15
-20
-29
-23
-34
-34
-26
-30
-21
-28
-40
-44
-41
-32
-41
-28
-31
-31
-37
-35
-36
-33
-34
-37
-40
-44
-36
-40
-33
-29
-43
-36
-42
-39
-33
-39
-31
-33
-43
-26
-17
-32
-37
-34
-36
-39
-41
-48
-44
-36
-41
-32
-41
-37
-33
-35
-37
-40
-45
-37
-37
-39
-37
-43
-39
-37
-17
-21
-16
-16
2
1
18
33
50
61
70
84
108
112
80
83
53
23
8
-33
-55
-67
-75
-74
-69
-64
-58
-58
-46
-48
-41
-44
-43
-34
-29
-23
-20
-26
-44
-31
-31
-39
-37
-37
-27
-16
-34
-44
-43
-29
-31
-33
-38
-38
-27
-27
-26
-17
-22
-37
-29
-26
-33
-31
-36
-38
-37
-18
-26
-29
-25
-27
-29
-30
-32
-27
-30
-28
-23
-23
-18
-20
-25
-27
-27
-26
-26
-22
-11
-8
-18
-18
-19
-30
-29
-15
-9
-13
-19
-11
-4
-9
-5
3
-8
4
-2
-3
-3
-4
-3
1
10
10
18
16
15
17
17
14
15
15
5
-1
18
22
30
19
15
19
32
8
7
3
10
10
-1
6
3
3
13
0
-3
-11
-10
-14
-19
-12
-4
-12
-10
-13
-25
-30
-29
-24
-24
-35
-25
-30
-30
-31
-26
-25
-27
-31
-18
-19
-23
-34
-38
-28
-27
-30
-26
-38
-36
-26
-14
-33
-31
-28
-27
-42
-30
-23
-25
-16
-22
-35
-26
-40
-31
-26
-30
-24
-29
-25
-26
-26
-31
-29
-34
-36
-33
-25
-25
-32
-19
-20
-26
-38
-34
-27
-32
-27
-24
-27
-29
-22
-18
-15
-31
-24
-31
-40
-39
-26
-39
-16
-25
-28
-24
-18
-28
-42
-34
-29
-31
-31
-31
-36
-32
-28
-27
-26
-31
-28
-35
-27
-42
-37
-32
-28
-34
-31
-17
-25
-21
-29
-39
-32
-29
-34
-28
-26
-22
-19
-32
-32
-33
-36
-29
-16
-10
-13
-15
-9
-21
-18
-5
-15
-23
-22
-20
-12
-20
-31
-16
-12
-13
-16
-16
-20
-20
-22
-20
-29
-33
-34
-35
-36
-38
-27
-46
-41
-44
-48
-32
-26
-34
-38
-48
-30
-35
-35
-37
-37
-31
-34
-61
-47
-36
-44
-39
-42
-39
-43
-42
-36
-42
-36
-35
-32
-44
-39
-40
-40
-42
-42
-40
-39
-37
-41
-37
-41
-41
-35
-31
-36
-48
-42
-39
-47
-35
-49
-43
-40
-36
-32
-29
-23
-10
-12
-3
9
23
42
59
64
80
90
99
91
80
53
14
-14
-31
-65
-79
-77
-73
-73
-65
-68
-55
-49
-50
-53
-39
-43
-30
-44
-49
-42
-26
-33
-37
-41
-40
-41
-21
-21
-40
-40
-33
-40
-42
-36
-32
-40
-38
-27
-39
-25
-26
-45
-34
-23
-31
-33
-25
-34
-36
-32
-35
-38
-28
-33
-26
-23
-21
-26
-34
-26
-30
-32
-31
-32
-35
-39
-32
-23
-19
-15
-15
-23
-24
-26
-30
-22
-21
-11
-20
-15
-10
7
-11
-16
-15
0
-4
-7
-7
-15
0
8
2
1
-1
13
21
14
9
8
12
15
22
17
9
9
9
13
15
21
19
27
19
8
-5
-3
-11
11
15
4
13
-5
-1
-11
-14
-15
-19
-22
-9
-12
-18
-13
-14
-29
-36
-37
-30
-27
-27
-16
-19
-36
-29
-35
-23
-26
-18
-35
-32
-34
-35
-32
-29
-32
-35
-36
-32
-43
-31
-19
-25
-37
-44
-48
-29
-29
-33
-24
-26
-34
-32
-28
-34
-34
-17
-29
-29
-39
-31
-34
