-8
-29
20
39
17
-9
9
8
-7
19
30
1
-5
4
12
1
4
1
32
39
27
24
10
21
24
20
4
11
38
28
10
12
22
18
-3
9
12
9
18
9
24
22
13
6
-25
-16
11
26
25
7
-3
39
6
22
11
19
6
1
15
22
18
9
15
-12
17
11
5
31
33
2
4
20
7
12
25
18
13
2
12
14
17
6
9
2
-17
11
41
20
14
17
15
1
-7
27
14
2
17
24
7
8
5
8
19
1
7
-12
9
31
-10
19
16
15
17
21
19
18
7
10
33
7
4
9
35
40
33
29
48
46
26
26
-2
17
10
-2
-2
11
15
23
14
-2
-5
18
-7
3
11
-6
1
8
20
20
12
17
17
20
4
5
-22
-22
3
29
24
43
46
47
66
41
73
69
50
46
46
62
45
78
48
42
-1
6
8
13
-16
-2
6
-19
2
-15
-10
-1
2
7
13
27
0
7
22
34
36
25
9
19
26
4
-8
-3
36
24
29
27
22
35
30
21
35
24
15
19
19
5
22
15
16
38
38
44
40
41
46
40
28
18
11
15
30
37
33
27
39
33
40
28
28
9
6
50
54
42
29
41
54
17
23
37
43
27
42
47
50
39
70
60
62
33
38
33
61
48
46
51
61
87
65
61
80
49
63
71
73
75
54
52
69
88
59
60
43
95
89
73
59
68
69
68
68
65
71
62
69
56
70
53
49
74
47
53
51
55
48
24
45
29
39
59
28
28
16
21
12
44
43
35
21
21
17
7
15
7
33
-7
4
12
12
24
20
30
4
3
15
11
-12
7
5
-1
2
7
24
2
7
34
24
19
4
10
11
31
35
30
12
-16
17
26
-8
-3
12
13
16
15
4
27
3
30
24
27
11
-5
9
2
26
15
23
32
15
20
0
26
12
-4
-3
38
8
-2
13
0
49
33
8
11
27
18
36
16
18
21
9
13
10
-17
19
12
10
0
12
12
18
9
27
41
22
20
19
13
-2
13
10
-8
19
16
-2
9
-1
21
17
9
10
27
13
22
35
5
15
5
4
7
23
-12
2
3
43
38
32
20
14
25
-2
12
21
12
43
35
36
10
22
26
17
13
8
8
-5
27
5
-3
4
2
36
5
16
7
-7
11
-7
-9
12
16
13
-11
8
3
11
0
-9
13
40
10
-16
27
47
57
56
61
42
47
41
35
43
43
50
66
62
36
43
-21
-14
-18
-27
-23
-27
-31
-19
-15
-16
-18
0
23
10
3
2
-15
4
21
26
35
20
56
14
33
14
24
-1
2
10
12
12
12
2
26
27
16
9
18
15
20
21
15
16
18
21
27
35
12
22
17
12
21
6
19
55
36
49
5
7
16
10
14
13
35
37
53
36
6
45
29
43
30
32
4
28
31
37
44
38
47
40
37
41
42
42
62
19
37
68
38
44
61
53
35
49
49
44
44
66
69
72
45
53
56
56
64
57
66
66
63
64
60
61
51
28
64
74
55
60
30
77
40
76
54
47
41
42
55
44
44
47
10
31
18
24
23
9
18
14
28
-6
8
15
14
-7
10
4
-5
6
-1
-25
8
17
-4
10
4
7
-5
-22
-3
11
15
0
-8
0
-7
4
20
1
4
-8
10
-16
35
3
5
3
8
-12
9
-5
10
-1
-8
-4
-1
13
-4
2
-14
7
-11
-8
-22
-1
-10
-5
11
21
-1
4
19
27
9
3
-3
13
0
2
3
-5
-3
3
18
14
12
0
3
-5
-5
-5
-5
-13
6
10
22
2
-24
-19
3
-20
10
8
-9
-5
9
5
7
-3
-6
12
9
8
-2
13
13
-24
-9
-6
-2
6
4
-19
-11
12
16
-15
1
-3
1
5
-13
7
-3
-9
-3
17
17
4
5
17
-3
11
22
-3
8
6
13
22
19
17
13
-4
1
1
-14
-23
-10
24
11
-19
2
-4
-4
11
13
-23
-1
-6
-18
-18
-41
9
9
4
4
0
-7
-12
0
5
2
-22
1
-10
-14
5
18
32
50
38
35
42
34
29
36
50
54
33
48
19
11
4
-3
19
-5
-4
-10
-23
-15
-21
-21
-5
-2
-16
-20
-14
22
19
1
-5
-3
-2
2
6
-1
-9
15
-21
-3
6
5
15
5
8
0
1
-14
3
19
2
2
6
3
16
16
-6
2
27
23
17
9
-4
25
9
-1
7
2
25
29
8
24
19
18
-6
-1
27
19
5
-8
-2
10
1
23
32
28
21
31
17
20
19
27
15
9
23
12
38
29
40
36
37
45
35
62
37
39
27
47
58
41
31
43
41
45
31
49
27
48
52
45
49
62
63
40
39
33
47
53
53
55
58
43
26
41
20
27
29
43
21
36
27
45
35
37
30
-3
18
-3
2
5
0
-3
1
7
12
-7
-15
1
5
3
-17
-22
-22
-5
-25
-6
-5
7
-9
-18
-7
-9
-13
-7
-7
-7
-24
-16
-2
-1
-14
-11
-6
-18
-10
-15
-17
-12
-35
-19
-25
-17
-8
16
-3
11
4
-27
-20
-13
-23
-22
-15
-18
-13
-33
3
-10
-21
-20
22
-3
-15
2
-27
-22
14
-20
-6
-19
1
-12
-27
-24
7
-4
-3
-7
-3
-7
-10
4
-8
-43
-16
11
10
-14
-28
-23
11
-1
-23
-12
-13
1
-1
-16
-15
-24
-22
-16
-9
-22
-20
1
-22
-12
-16
-16
-32
-6
0
-10
-12
-10
-15
-24
-15
5
-8
-12
-4
-6
-38
13
-3
-13
-11
-14
-21
-10
2
3
-1
-24
-27
-20
-9
-30
6
12
-4
-22
2
6
-11
-17
-21
-31
-6
-7
-5
-17
6
13
-10
-15
-11
-13
-33
-23
-19
-16
-30
-33
-28
28
-10
0
-29
-38
-2
-20
-14
-19
0
-6
-16
-46
-15
-11
-15
-28
-28
9
-1
-4
37
53
31
39
19
28
31
-4
16
26
56
12
-10
-21
-25
-13
-10
-17
0
-44
-44
-57
-25
-31
-18
-23
-37
-12
-17
-23
20
-19
-6
-20
-3
3
-20
-26
-1
22
-8
-6
-15
-8
-9
-14
1
-10
0
2
-21
-12
-22
-32
-4
4
5
-2
-14
-1
6
-2
-9
1
7
-11
1
5
-13
8
-2
22
22
-18
0
-15
-1
7
7
-2
3
2
-2
0
-8
10
-3
11
9
14
15
11
6
10
28
8
13
35
39
-6
18
6
26
20
2
18
23
39
25
50
30
42
51
24
32
44
14
41
29
35
20
46
25
21
80
35
34
50
35
34
54
45
36
36
31
18
27
35
26
-1
6
11
-5
-10
15
9
7
-5
14
-1
2
-8
-32
-5
20
-24
-24
-27
-4
0
-37
-20
-37
-32
-11
-28
-18
-28
-39
-28
-22
-24
-37
-24
-20
-17
-27
-17
-30
-20
-23
-19
-23
-19
-24
-33
-26
-35
-51
-47
-46
-37
-34
-22
-11
-21
-32
-2
-42
-34
-25
-52
-29
-23
-41
-34
-8
-8
-38
-29
-21
-14
-9
-33
-56
-22
-23
-9
-23
-20
-28
-22
-22
-35
-27
-23
-39
-26
-19
-16
-33
-2
-16
-35
-17
-27
-43
-16
-20
-24
-25
-17
-36
-30
-18
-2
-33
-42
-13
-39
-4
-30
-34
-35
-42
5
-1
-58
-34
-30
-35
-31
-31
-43
-42
-49
-24
-24
-30
-18
-28
-37
-9
-39
-36
-23
-32
-37
-36
-56
-45
-28
-29
-3
-10
-9
-22
-11
-17
-36
-28
-37
-26
-46
-41
-36
-21
-30
-54
-55
0
-24
-34
-39
-5
-34
-34
-36
-17
-25
-7
-7
5
-22
-9
-21
-18
-11
-22
-23
-31
-34
-47
10
-25
-34
-29
-48
-20
-33
-38
-35
-37
-34
-40
-9
-50
-35
-58
-26
-30
-32
-18
-31
-52
-24
-30
-43
-47
-29
-20
-32
-27
-17
11
8
-1
-4
19
10
8
5
22
-2
-7
28
18
-4
-35
-28
-25
-39
-58
-61
-26
-27
-44
-64
-49
-33
-31
-59
-36
-14
-29
-38
-37
-45
-53
-29
-8
-18
-18
3
-20
-44
-16
-34
-23
-16
-45
-35
5
-2
-39
-36
-49
-37
-35
0
-2
22
-41
-31
-14
-26
-45
-7
-10
-13
-18
-12
-12
-11
-15
-4
-34
-39
-19
-23
-18
7
-8
-30
-15
-17
-8
-17
-22
-33
-18
0
-7
-26
-9
6
-10
5
1
2
6
-11
0
7
16
-8
-11
45
0
6
17
16
14
0
25
0
8
22
19
12
28
24
34
15
17
19
2
30
10
25
44
29
30
16
25
22
13
26
21
25
16
37
33
13
4
12
-9
-7
-11
-14
-3
24
-9
-6
-23
-3
-9
4
-11
-32
-28
-46
-25
-24
-42
-42
-15
-22
-21
-15
-58
-21
-35
-52
-38
-36
-19
-7
-27
-34
-31
-39
-20
-43
-55
-39
-16
-37
-42
-58
-49
-37
-24
-42
-45
-19
-42
-42
-17
-44
-34
-20
-51
-33
-37
-38
-43
-29
-22
-32
-55
-22
-17
-33
-4
-43
-35
-27
-71
-27
-51
-39
-4
-30
-37
-33
-41
-36
-25
-52
-47
-38
-30
-30
-29
-33
-35
-29
-20
-34
-30
-30
-8
-21
-45
-39
-8
-40
-20
-39
-34
-22
-38
-46
-42
-61
-27
-10
-20
-18
-29
-43
-41
5
-42
-52
-32
-43
-19
-32
-40
-56
-56
-29
-28
-40
-24
-39
-23
-41
-47
-53
-28
-25
-15
-31
-34
-33
-31
-37
-25
-51
-17
-50
-38
-11
-18
-27
-10
-28
-41
-46
-43
-37
-20
-50
-31
4
-12
-29
-35
-27
-27
-8
-15
-32
-68
-52
-39
-48
-7
-20
-21
-19
-39
-33
-32
-38
-34
-23
-24
-25
-48
-47
-47
-43
-49
-38
-33
-17
-32
-41
-35
-50
-32
-64
-31
-11
5
-18
-3
-2
-17
3
13
-12
8
12
10
13
3
-1
-19
-54
-31
-43
-50
-43
-59
-58
-64
-65
-60
-63
-39
-27
-40
-31
-39
-28
-26
-24
-31
-49
-39
-11
-34
-29
-12
-11
-35
-29
-31
-32
-74
-29
-14
3
-30
-17
-20
-45
-38
-22
-9
-13
-6
-21
-23
-14
-9
-15
-33
-46
-34
-18
-14
-16
-22
-6
-12
-25
-23
-20
-29
-9
-28
-34
-21
-23
-20
-18
-31
-31
4
-5
-28
-5
4
-12
0
-33
-12
-14
-27
4
15
12
2
2
3
-2
-2
-4
-9
11
27
25
8
20
11
18
7
11
7
6
7
21
29
11
21
13
6
11
20
8
14
21
11
34
25
-28
35
12
10
19
16
3
-8
-2
-8
-9
21
-5
-9
-6
-23
-5
-9
-24
-33
-30
-36
-33
-21
-33
-43
-25
-28
-34
-43
-55
-31
-36
-39
-35
-35
-52
-41
-41
-39
-33
-54
-54
-39
-16
-46
-33
-53
-44
-53
-68
-47
-24
-31
-54
-62
-30
-31
-37
-34
-38
-48
-34
-49
-30
-32
-47
-51
-34
-45
-38
-46
-32
-41
-50
-47
-36
-23
-35
-55
-42
-48
-50
-31
-35
-24
-39
-32
-49
-54
-40
-34
-65
-50
-9
-60
-55
-35
-27
-27
-15
-30
-51
-45
-52
-57
-44
7
-31
-38
-27
-36
-44
-47
-46
-33
-39
-27
-54
-42
-37
-46
-51
-22
-20
-47
-36
-32
-46
-56
-50
-65
-62
-57
-25
-24
-56
-32
-40
-47
-35
-46
-60
-34
8
-49
-58
-73
-53
-40
-48
-27
-25
-58
-52
-53
-29
-41
-44
-40
-54
-29
-33
-41
-27
-39
-50
-37
-49
-42
-50
-50
-53
-41
-45
-44
-51
-49
-28
-43
-20
-9
-78
-41
-56
-11
-27
-33
-32
-28
-52
-32
-27
-30
-37
-39
-37
-9
-41
-49
-56
-51
-64
-43
-46
-43
-32
-35
-37
-45
-42
-31
-52
-50
-39
-44
-49
-39
-53
-55
-55
-73
-67
-51
-48
-30
-36
-42
-13
17
14
15
-7
-14
-1
-27
22
1
-15
-13
-14
-21
-39
-48
-36
-41
-42
-54
-59
-57
-50
-45
-49
-33
-42
-44
-44
-17
-43
-47
-47
-23
-43
-39
-48
-39
-49
-43
-59
-35
-29
-33
-57
-43
-33
-41
-14
-13
-40
-58
-41
-28
-45
-39
-54
-37
-6
-31
-25
-34
-27
-40
-25
-24
-15
-11
-38
-41
-11
-25
-48
-35
-22
-34
-26
-23
-14
-21
-25
-15
-27
-42
-32
-29
-38
-11
-22
-1
-25
-16
-6
-11
-21
-10
2
-13
-10
-16
-17
-3
6
-3
10
0
2
-6
1
3
14
26
14
8
11
-9
8
4
9
24
38
24
15
3
10
1
24
37
-6
4
6
3
8
3
23
-8
3
16
1
20
1
-27
-6
-19
-16
-30
-28
-25
-8
-31
-34
-44
-35
-21
-17
-32
-41
-35
-41
-48
-39
-44
-54
-70
-41
-26
-34
-57
-47
-46
-58
-51
-37
-39
-42
-52
-47
-4
-54
-81
-68
-44
-64
-62
-44
-25
-46
-34
-42
-47
-46
-75
-57
-57
-48
-32
-59
-34
-42
-44
-56
-44
-49
-65
-45
-60
-48
-43
-29
-56
-50
-46
-46
-26
-19
-66
-66
-49
-45
-50
-57
-48
-63
-41
-42
-42
-41
-39
-50
-35
-34
-35
-54
-37
-57
-61
-51
-43
-43
-37
-33
-49
-61
-51
-29
-33
-29
-49
-39
-57
-49
-56
-58
-66
-34
-49
-42
-54
-60
-35
-33
-64
-54
-42
-35
-44
-49
-66
-49
-45
-47
-49
-68
-39
-50
-45
-50
-37
-42
-59
-46
-33
-62
-51
-37
-45
-51
-39
-43
-46
-59
-58
-53
-66
-54
-32
-36
-56
-57
-50
-31
-45
-54
-58
-38
-68
-32
-25
-47
-50
-34
-51
-56
-44
-54
-49
-47
-41
-39
-38
-41
-12
-19
-57
-52
-43
-46
-54
-61
-4
-44
-58
-26
-21
-34
-44
-48
-42
-35
-46
-34
-47
-54
-50
-34
-63
-59
-67
-51
-54
-46
-39
-32
-49
-48
-58
-46
-48
-49
-48
-53
-51
-56
-26
-44
-51
-51
-36
-32
5
-8
-7
1
18
-2
4
-17
-2
-9
6
-11
-33
-27
-46
-51
-40
-31
-34
-62
-76
-82
-75
-56
-63
-56
-4
-21
-52
-42
-42
-68
-15
-38
-50
-51
-55
-51
-37
-60
-10
-16
-34
-36
-27
-32
-11
-51
-54
-34
-28
-41
-35
-19
-53
-20
-54
-39
-31
-38
-38
-21
-57
-63
-10
-26
1
-22
-21
-30
-69
-53
-20
-27
-32
-9
-13
-25
-38
-21
-15
-39
-27
5
-39
-33
-13
-7
-15
-11
-32
-16
-10
-20
-2
-18
-10
3
5
10
15
-29
-19
-17
-31
0
22
2
-9
-2
8
24
-1
6
3
20
9
13
23
7
22
19
18
21
18
21
45
8
-14
28
31
23
16
12
23
2
20
5
1
-1
26
-11
-10
-1
-3
-6
-5
-39
-40
-29
-7
-19
-25
-40
-43
-32
-24
-52
-67
-42
-41
-19
-42
-37
-47
-52
-52
-20
-41
-51
-29
-28
-33
-60
-51
-41
-41
-55
-41
-40
-27
-38
-30
-37
-49
-61
-50
-32
-66
-25
-33
-62
-33
-57
-51
-44
-41
-36
-39
-32
-54
-79
-44
-33
-41
-40
-35
-36
-32
-41
-54
-51
-34
-46
-37
-31
-24
-29
-60
-53
-41
-18
-28
-39
-39
-21
-23
-46
-38
-34
-43
-56
-18
-32
-35
-25
-35
-36
-45
-31
-84
-46
-48
-37
-15
-19
-19
-41
-48
-48
-26
-29
-44
-44
-18
-49
-47
-57
-48
-27
-30
-31
-35
-36
-24
-28
-40
-31
-37
-56
-28
-27
-30
-47
-84
-16
-11
-19
-39
-53
-30
-14
-40
-42
-40
-25
-29
-58
-43
-51
-38
-34
-50
-35
-38
-29
-33
-53
-43
-53
-51
-23
-20
-19
-31
-47
-25
-11
-35
-32
-8
-43
-29
-23
-27
-20
-28
-33
-38
-17
-33
-8
-13
-37
-28
-21
-15
-9
-43
-17
-24
-55
-25
-38
-40
-24
-37
-37
-47
-49
-32
-29
-30
-37
-48
-19
-21
-42
-32
-30
-26
-45
-36
-34
-59
-43
-38
-49
-35
-32
-15
1
-2
-23
-5
-1
1
-2
21
23
10
-8
14
2
26
19
-2
-6
-36
-56
-53
-69
-61
-66
-52
-49
-59
-57
-63
-31
-19
-39
-60
-27
-36
-20
-14
-24
-45
-17
-39
-9
-33
-24
-37
-9
-16
-22
-20
17
-27
-45
-37
-30
-25
-22
-21
-31
4
-10
-15
-11
-2
-16
-16
-5
-46
-30
-18
-20
-24
-17
-37
-11
-8
-21
-18
-8
-20
-31
-34
-9
-8
0
-15
14
-17
-23
-8
-17
-32
-17
5
-11
-12
-6
6
-5
-13
1
6
-2
6
3
5
-3
-3
1
4
11
21
14
11
5
22
14
49
-20
25
30
8
33
63
19
23
19
11
16
36
23
20
31
43
41
22
12
18
29
14
13
39
5
19
6
-2
15
39
17
-9
-6
-5
-2
-3
-18
-35
-23
3
8
-4
-22
-1
-19
-36
-15
-48
-23
-42
-26
-27
-31
-29
-23
-39
-31
-25
-16
-32
-33
-47
-36
-25
-21
-24
-33
-32
-20
-19
-19
-39
-52
-45
-40
-15
-53
-46
-48
-22
-17
-15
-5
-44
-29
-45
-49
-8
-26
-23
-38
-46
-38
-46
-35
-34
-17
-26
-34
-25
-39
-28
-15
-34
-26
-21
-6
-13
-16
-31
-27
-17
-41
-29
-8
-33
-8
-50
-33
-43
-19
-17
-21
-25
-29
-31
-36
-10
-21
-26
-26
-26
-36
-26
-35
-20
-38
-29
-16
-48
-27
-24
-23
-36
-36
-43
-29
-23
-42
-33
-27
-14
-9
-29
-35
-21
-27
-4
-23
-60
-30
-32
-10
-22
-40
-37
-11
-26
-20
-25
-25
-32
-39
-26
-19
-30
-27
-30
-28
-31
-39
-22
-38
-37
-53
-44
-18
-37
4
-13
-25
-46
-20
-8
-48
-35
14
-32
-26
-11
-16
-34
-16
-27
-18
-11
2
-11
-8
-4
-7
-13
-28
-25
-12
-22
-37
-13
-23
-12
0
-28
-29
-19
-7
-34
-1
-36
-36
-32
-33
-25
-28
-27
-25
-23
-18
-15
-39
-24
-19
-24
-25
-28
-24
-17
-25
-36
-16
3
-20
-32
3
19
-25
11
16
22
48
33
47
16
36
20
15
11
-13
-22
-23
-17
-45
-59
-30
-25
-38
-28
-22
-44
-50
-39
-48
-24
-24
-35
19
-20
-16
-8
-22
-20
-32
-23
-1
-19
-10
5
3
-8
-34
-8
-16
-20
-7
-12
-2
-20
-10
-25
3
4
-5
-13
-13
-1
-26
-19
-7
-17
-16
-21
-21
12
-25
-18
-6
-35
9
-23
11
-4
-1
5
-8
-4
-1
11
-4
-1
-16
17
-3
10
6
9
41
-4
11
3
-1
2
23
-24
10
3
48
28
20
25
37
-2
-1
6
17
37
17
31
34
16
16
28
35
27
25
14
24
42
18
21
31
12
14
63
56
39
39
44
21
30
32
48
23
25
55
-1
19
8
-4
0
5
3
29
50
10
5
-14
-33
-18
2
-3
-22
-38
-8
-20
-9
-33
-6
-20
-25
-27
-20
1
-20
-40
-25
-40
-49
-22
-11
-57
-27
0
-7
-12
-11
0
-18
-29
-37
-26
-44
-43
-15
7
-19
-14
-29
-26
-1
3
-35
-32
-5
-2
-4
-55
-26
3
-2
15
-10
0
-24
-35
-7
14
9
-28
-9
-11
-21
-21
-33
-15
-20
8
5
-33
10
2
-23
-18
-27
-12
32
-28
-11
-4
-47
-20
0
-5
-17
4
-25
-45
-52
-35
-11
-1
5
-23
-1
-23
-8
-13
-13
-16
-16
-17
-45
-14
4
-4
5
-13
-3
-27
-34
-30
-31
12
0
-2
-16
-17
-12
-18
-42
-41
-6
-5
-5
14
-13
-25
8
-1
-18
-1
-5
-25
-31
-30
-27
-26
-11
-22
-30
-9
-18
-2
5
-16
11
16
7
2
-2
17
-24
-11
-12
30
18
-37
-18
-20
-9
-21
-23
-26
-35
-30
-25
-23
-25
4
-7
-32
-36
-8
-15
-35
-25
-21
-22
-23
-29
-27
-47
-33
-29
-32
-28
-21
-12
-2
-19
-4
11
16
10
24
21
46
78
28
44
40
57
86
44
6
-30
-17
-37
-61
-42
-70
-71
-72
-65
-44
-36
-39
-36
-9
-22
-14
-13
-19
-20
-30
-11
-24
-53
-6
22
4
-8
-22
-20
-1
-4
-6
-20
-32
-21
-13
-6
-2
-16
-6
13
-6
1
-19
6
-3
-15
-1
-16
-5
-5
-20
-31
0
-3
8
14
-37
-47
13
-19
-11
17
14
-3
-6
13
11
18
0
-17
-5
13
9
0
-9
17
6
18
12
-6
11
32
-2
10
-15
21
6
8
5
32
40
27
24
38
45
45
35
21
25
23
23
63
35
33
42
14
38
37
47
53
72
44
40
44
39
37
14
48
39
40
45
55
20
6
12
27
19
20
11
1
8
2
-12
-18
-4
-14
-36
-2
9
-47
8
-20
-28
-23
-32
-11
-29
-12
-13
-29
-3
-31
-25
-22
-42
-38
-32
-27
-25
-24
-35
-29
-40
-42
-32
-38
-41
-20
-29
-55
-42
-5
-36
-26
-24
-26
-40
-43
-35
-30
-47
-51
-21
-7
-15
-44
-21
-11
-40
-5
-31
-35
-49
6
-36
-49
-25
0
-25
-15
-26
-29
-25
-46
-22
-12
-5
-20
-4
-16
-30
-47
-19
-25
-33
-12
-24
-30
-16
-21
-27
-32
-40
-28
-28
-47
-56
-10
-21
-21
-18
-14
-26
-50
-57
-41
-28
-7
-21
-23
-31
-4
5
-48
-53
-23
-18
-40
-25
5
-20
-36
-38
-27
-26
-23
-8
-9
-16
-15
-21
-33
-23
-26
-15
-17
-2
-12
-6
-24
-25
-4
-5
8
-22
-19
-19
-19
3
-40
-11
-14
-1
6
-35
-25
-13
-16
-29
-29
-17
-26
-22
-30
-37
-27
-49
-27
-17
-54
-36
-20
-38
-39
-37
-28
-37
-6
-54
-24
-7
-18
-12
13
8
31
34
36
26
19
21
19
38
46
61
68
41
1
-18
-42
-36
-59
-64
-72
-62
-48
-49
-42
-50
-39
-43
-3
-26
-4
0
-39
-25
-19
-28
5
2
10
-30
-17
-15
-15
1
7
-6
1
0
-3
-9
-18
10
-14
-18
-25
-12
-10
-9
11
3
3
17
10
4
-4
9
-4
-17
4
1
2
-5
18
22
6
-25
1
15
8
-24
10
11
1
-3
1
-7
-14
5
43
16
27
48
28
15
33
15
37
21
-1
26
58
36
31
11
40
35
26
49
37
33
48
60
45
53
47
47
61
28
6
66
61
41
55
44
57
62
41
61
61
80
20
67
52
45
53
35
27
54
58
30
42
46
34
38
22
9
14
19
-1
0
6
35
18
18
17
4
18
1
1
12
-8
10
10
8
6
-3
-8
-7
6
-10
-6
0
-3
0
-4
0
-15
-41
-19
6
-11
-16
-4
5
-2
-5
-16
-20
-15
1
29
-28
-10
-2
0
-7
10
28
0
-7
-15
10
-6
38
-6
21
13
-5
-3
9
-1
11
6
5
8
7
21
7
1
22
-17
-11
0
1
7
5
8
-5
-2
4
8
36
29
1
-17
13
14
14
21
9
11
-8
7
16
-3
3
22
-4
6
12
18
12
-5
0
-6
-11
17
3
24
23
21
34
10
8
23
8
15
18
4
1
-7
10
-9
16
15
26
46
20
32
40
26
32
13
19
24
6
3
5
9
8
1
5
-3
26
3
8
6
12
22
17
18
7
15
11
4
10
17
5
11
18
33
-5
6
-9
-5
20
45
36
50
63
55
57
79
61
59
71
65
81
65
57
51
48
13
15
23
8
-1
-13
-12
-7
-4
22
-4
25
1
9
13
17
53
23
33
24
29
29
-17
39
42
16
32
30
30
33
22
37
31
28
48
39
34
30
28
38
43
24
41
51
37
34
38
49
32
44
50
35
29
40
21
46
40
64
47
47
43
47
53
51
31
47
55
61
54
52
60
70
59
63
66
69
57
57
43
59
55
58
41
67
71
59
63
85
81
83
80
72
99
86
69
46
59
89
92
95
97
95
99
70
75
94
77
86
93
130
93
90
96
115
88
90
71
77
102
97
83
92
88
84
84
72
79
75
62
65
58
67
66
61
58
46
47
46
53
45
47
57
37
48
53
54
57
28
24
52
63
62
57
47
55
49
44
52
59
17
37
65
61
17
24
31
64
47
49
52
58
69
54
43
53
38
28
31
38
35
53
37
50
47
46
62
44
29
58
68
48
48
53
56
50
37
47
48
85
43
55
51
62
69
49
47
75
42
50
51
5
14
47
58
83
60
72
52
57
59
58
52
38
35
67
44
39
28
45
56
62
59
45
37
71
50
57
52
43
50
53
47
45
59
29
57
41
57
83
45
53
60
63
41
56
45
48
30
29
46
54
41
43
41
58
55
33
38
39
20
24
39
20
18
30
39
34
39
17
30
32
10
21
16
36
23
19
32
19
35
2
29
44
62
39
15
13
33
35
65
57
68
83
60
39
74
60
64
71
76
64
61
49
47
8
35
21
24
9
-1
-2
-13
-17
-21
7
25
37
24
20
-12
34
20
10
19
23
46
20
8
16
8
3
7
22
12
18
14
11
41
25
25
13
14
7
-2
12
23
1
-1
36
7
-1
7
18
3
-15
13
14
9
42
19
21
8
-6
29
21
38
20
2
40
45
19
12
6
21
19
11
3
10
32
9
10
20
12
28
27
27
26
13
39
31
18
39
19
15
17
25
39
32
23
39
46
32
47
25
38
45
39
47
41
57
63
45
54
42
35
26
20
51
48
65
29
37
19
37
18
27
22
21
8
-13
31
46
-32
-2
12
9
6
-18
-17
-11
-18
-20
-28
-51
-16
-20
-26
-8
-25
-44
-5
-35
-32
-43
-37
-30
-48
-47
-53
-58
-30
-44
-11
-48
-59
-51
-36
-27
-35
-47
-37
-36
-47
-69
-56
-50
-27
-40
-47
-55
-53
-42
-83
-48
-23
-36
-47
-57
-39
-35
-48
-55
-50
-53
-64
-56
-51
-49
-45
-52
-45
-41
-51
-41
-43
-63
-41
-40
-66
-86
-38
-61
-54
-48
-49
-43
-44
-62
-50
-37
-40
-58
-62
-92
-47
-60
-34
-64
-56
-52
-49
-53
-77
-66
-47
-55
-52
-57
-60
-63
-57
-52
-60
-53
-53
-43
-38
-46
-69
-81
-61
-67
-68
-59
-52
-69
-55
-31
-35
-60
-53
-29
-61
-67
-33
-67
-58
-45
-60
-63
-38
-64
-56
-63
-66
-51
-62
-60
-62
-85
-54
-74
-67
-75
-61
-78
-70
-66
-65
-73
-80
-59
-56
-58
-65
-63
-89
-84
-88
-85
-71
-68
-67
-63
-46
-53
-45
-31
-65
-24
-35
-39
-9
-33
-41
-22
11
-28
-39
-54
-78
-74
-73
-76
-83
-92
-95
-98
-115
-111
-68
-67
-75
-78
-72
-70
-81
-70
-52
-63
-71
-86
-76
-63
-62
-87
-79
-57
-75
-62
-74
-90
-81
-70
-67
-75
-88
-69
-71
-78
-71
-60
-73
-74
-53
-74
-73
-79
-83
-78
-70
-80
-64
-58
-71
-66
-56
-45
-84
-74
-59
-74
-78
-80
-61
-36
-75
-69
-60
-69
-53
-84
-42
-60
-61
-73
-72
-58
-55
-54
-56
-55
-30
-60
-58
-63
-53
-31
-43
-42
-54
-46
-45
-24
-29
-31
-29
-39
-22
-27
-50
-22
-25
-33
-13
-17
-15
-44
-51
-19
-8
-12
-41
-26
-29
-34
-15
-30
-28
-1
-19
-35
-40
-29
-51
-61
-60
-59
-43
-48
-32
-52
-63
-62
-58
-72
-74
-53
-74
-71
-88
-94
-73
-67
-85
-84
-63
-94
-65
-58
-79
-74
-67
-66
-89
-75
-78
-73
-91
-81
-77
-102
-65
-77
-78
-66
-78
-98
-84
-72
-94
-66
-80
-86
-64
-56
-71
-70
-88
-61
-76
-88
-92
-85
-77
-81
-61
-52
-73
-81
-75
-67
-77
-77
-78
-67
-75
-55
-48
-73
-93
-75
-75
-44
-34
-72
-79
-85
-73
-54
-74
-83
-64
-66
-58
-59
-47
-68
-101
-73
-65
-64
-46
-58
-79
-70
-68
-59
-76
-68
-57
-56
-61
-54
-57
-64
-83
-75
-54
-48
-50
-51
-30
-45
-61
-66
-60
-44
-57
-78
-60
-66
-47
-52
-62
-51
-49
-31
-43
-69
-16
-47
-63
-68
-48
-64
-58
-47
-38
-42
-49
-35
-37
-55
-27
-58
-48
-41
-48
-64
-60
-56
-61
-41
-54
-61
-61
-61
-59
-58
-49
-55
-51
-46
-60
-58
-62
-64
-62
-64
-61
-71
-59
-51
-71
-60
-36
-40
-54
-65
-77
-57
-41
-40
-29
-7
11
3
-31
-20
-28
-14
-18
-8
-10
-20
-27
-45
-57
-48
-60
-54
-73
-76
-85
-88
-70
-76
-45
-72
-61
-51
-40
-57
-52
-66
-39
-38
-48
-56
-48
-40
-45
-48
-37
-45
-48
-80
-36
-23
-27
-42
-48
-52
-59
-60
-47
-36
-40
-38
-36
-47
-45
-41
-43
-35
-36
-37
-37
-51
-37
-57
-45
-41
-43
-30
-57
-35
-13
-9
-38
-13
-43
-26
-19
-42
-27
-30
-61
-58
-5
-29
-23
-24
-16
-18
-15
-39
3
6
-26
-32
-11
-6
-17
-16
16
-1
-9
-16
2
4
-8
-17
-12
-3
-10
-8
1
-14
3
14
-8
2
10
7
14
-4
-13
3
36
12
3
10
-3
-10
16
2
-22
-15
-11
12
-25
3
-19
-26
-21
-9
-1
-21
-22
-16
-44
-33
-26
-45
-45
-41
-43
-38
-36
-46
-61
-44
-44
-36
-44
-44
-54
-54
-60
-44
-51
-58
-41
-33
-38
-54
-45
-48
-61
-74
-41
-33
-52
-71
-64
-35
-49
-45
-60
-65
-38
-44
-41
-26
-40
-47
-39
-50
-59
-64
-48
-62
-46
-29
-51
-39
-34
-50
-49
-31
-45
-46
-47
-42
-45
-79
-79
-52
-27
-16
-37
-40
-19
-36
-34
-15
-44
-53
-38
-50
-44
-45
-64
-22
-41
-58
-40
-13
-29
-50
-34
-45
-49
-53
-21
-30
-37
-52
-23
-32
-36
-30
-47
-47
-43
-25
-42
-29
-34
-40
-46
-41
-44
-46
-37
-42
-16
-14
-26
-30
-34
-21
-32
-49
-54
-30
-43
-28
-19
-34
-20
0
-31
-15
-38
-33
-24
-8
-24
-49
-51
-64
-53
-27
-47
-32
-25
-36
-22
-38
-41
-41
-51
-37
-35
-23
-52
-56
-31
-37
-26
-32
-40
-40
-56
-62
-31
-15
-42
-42
-22
-27
-9
-19
6
26
13
3
19
-6
9
26
5
22
11
-25
-39
-33
-51
-46
-65
-42
-45
-51
-50
-69
-74
-19
-36
-31
-40
-8
-37
-35
-17
-15
-23
-23
-14
-19
-55
-37
-12
-19
-39
-34
-15
-25
-7
-15
-25
-48
-29
-4
-29
-29
-23
-29
-13
-14
-16
-13
-12
-25
-36
-32
1
14
-8
-22
-20
-19
0
-8
2
-27
-8
-3
-8
-5
9
-2
-8
6
-21
8
-5
-17
-9
-1
-13
-12
0
10
7
6
14
5
-5
17
9
6
17
10
20
2
-11
7
28
39
35
33
41
47
32
30
33
33
35
48
30
21
43
56
54
42
46
46
47
53
24
17
-1
39
34
34
50
42
26
50
19
18
21
12
31
19
9
11
17
6
8
-21
-6
4
13
0
-13
-31
-31
24
25
2
4
8
-9
12
-13
-27
8
-2
2
0
-25
-1
-6
-12
-19
-20
-22
-10
-22
-1
-8
-16
-6
-12
-36
-14
-7
-8
-11
-17
-21
6
-7
-1
-14
-25
-35
-11
23
0
12
10
22
-41
4
-1
-15
9
-10
-7
-12
-25
6
-32
-2
24
-2
-4
-2
7
-8
0
-7
-14
-5
-1
2
-6
-26
-12
10
-5
-4
-11
9
3
0
-13
2
17
1
23
-8
-16
6
-6
15
-1
-15
-13
-36
-30
25
-4
-13
1
-4
4
-2
-9
-9
12
-18
-9
-1
1
-1
-7
-15
-10
0
-15
-6
2
-10
-12
-16
9
16
-9
-7
-3
2
1
-5
0
-2
14
2
-9
23
-4
-7
-9
15
-3
0
-16
-7
11
21
16
3
13
22
0
11
-1
-3
-8
-3
-17
-15
1
-13
-13
-20
-1
-4
-6
-6
-12
-14
-14
8
-4
-1
-6
2
-6
-1
0
-19
-14
-13
6
-8
-22
-31
24
20
30
34
18
42
58
31
50
35
34
43
43
40
27
37
32
8
4
14
9
-12
-25
-37
-22
-18
-6
-12
-17
-11
-17
1
-9
0
25
12
-1
3
-11
10
1
1
-3
9
16
5
2
20
17
-1
4
17
3
5
17
18
10
3
5
13
8
13
16
0
11
14
10
16
21
24
10
11
31
23
14
14
1
6
0
19
17
15
43
53
19
13
20
28
17
23
24
26
15
5
25
42
23
37
37
34
45
29
31
37
46
53
38
58
46
41
58
59
63
44
57
65
55
50
52
48
50
53
56
80
36
51
59
92
67
67
67
58
62
64
78
61
38
56
56
53
70
36
56
52
44
33
39
39
18
11
35
24
21
17
37
27
23
19
40
29
6
5
-8
-36
4
29
13
9
13
3
10
8
5
27
-2
-5
5
20
8
1
8
0
9
0
8
20
3
0
20
14
19
-5
10
20
2
20
22
3
-1
16
19
14
2
12
4
7
7
26
24
4
10
1
10
27
18
10
3
-25
25
42
-4
20
28
20
15
18
30
19
11
27
18
4
-4
20
17
3
54
22
15
1
19
18
15
14
10
10
38
43
31
27
22
28
6
18
24
13
31
36
28
46
6
27
22
12
23
20
30
17
18
36
24
6
26
18
23
25
15
18
11
1
1
45
31
41
15
12
17
22
12
32
35
18
6
18
28
25
28
21
32
31
27
8
29
38
27
13
50
34
23
51
17
31
25
35
41
17
42
51
19
25
29
43
40
33
23
38
42
25
30
39
25
31
49
35
26
17
24
31
14
39
46
29
31
30
34
59
29
27
23
20
13
34
53
12
21
19
34
19
26
59
43
53
67
88
83
97
92
71
57
63
82
98
85
79
68
40
50
38
34
30
17
14
25
4
13
46
36
26
28
44
28
28
46
33
42
53
45
40
54
40
24
37
36
44
49
54
60
54
55
49
56
50
48
29
43
73
38
82
55
51
43
56
55
56
33
47
67
60
48
59
68
32
120
73
43
43
49
42
51
55
56
60
60
75
73
84
83
56
67
51
56
83
88
79
74
65
66
70
79
89
96
80
89
75
84
90
84
97
80
91
108
69
94
109
110
109
111
123
101
103
109
106
109
94
89
120
119
112
111
111
109
98
106
80
89
111
102
89
103
109
94
101
80
82
83
85
61
71
76
92
77
59
61
56
58
51
65
69
32
23
40
50
58
63
77
47
56
71
55
55
54
46
41
59
64
49
52
53
50
38
28
43
61
59
41
43
38
46
44
43
49
62
62
61
60
50
47
30
42
61
66
57
41
72
75
23
12
49
53
53
65
68
32
55
53
57
59
56
65
67
63
57
27
53
61
73
55
56
55
54
47
26
66
43
38
71
57
55
63
68
60
46
53
46
41
26
90
60
58
42
48
57
68
43
64
82
69
61
44
73
45
66
65
54
43
58
48
45
46
49
68
51
26
59
67
56
57
60
53
69
43
45
63
49
32
54
66
42
48
52
67
55
56
66
70
42
73
47
66
68
57
67
64
68
53
65
58
61
77
76
69
66
57
65
62
63
71
46
57
30
52
46
64
66
46
54
63
50
50
41
57
56
59
71
61
20
56
63
41
61
57
50
57
69
44
49
64
51
75
94
86
91
90
80
64
97
97
85
103
111
109
102
85
78
57
41
46
32
24
16
30
36
33
31
53
37
49
36
26
64
77
72
66
60
64
82
76
64
40
59
46
59
57
66
83
71
49
79
61
65
79
61
30
35
81
58
54
55
73
75
76
58
61
74
58
60
95
57
76
75
90
73
64
72
71
65
67
63
92
82
70
78
85
82
66
71
59
74
68
81
92
94
74
76
80
82
86
69
75
93
86
74
77
107
115
86
88
105
137
113
99
95
107
115
113
101
115
111
84
125
110
106
121
125
109
89
128
124
104
121
121
106
100
105
97
87
100
106
111
99
86
78
73
90
61
79
84
79
78
82
75
51
65
70
64
60
56
77
50
68
50
55
63
86
59
48
44
51
58
69
44
64
52
37
45
55
51
44
60
50
34
41
47
51
61
47
46
49
15
41
44
64
28
35
73
45
55
51
62
47
41
61
66
52
40
55
61
48
54
61
43
58
56
38
64
76
56
51
53
44
56
55
36
48
56
69
63
45
48
51
44
35
54
54
36
47
44
66
61
47
38
35
32
63
79
44
64
60
63
75
100
60
46
45
62
47
46
33
46
76
53
45
45
52
58
38
43
57
50
55
48
48
59
57
51
40
50
59
54
54
68
55
50
50
40
47
28
49
70
51
68
65
49
61
63
59
71
66
50
65
41
50
64
53
41
59
56
42
59
47
42
69
77
81
58
54
78
85
56
43
46
45
46
39
60
47
43
71
66
50
59
55
46
72
46
49
40
38
22
43
55
57
67
51
27
75
61
45
57
62
45
52
87
74
102
99
69
100
105
81
91
96
107
110
94
91
87
74
70
19
41
51
36
34
29
57
20
24
40
40
61
75
48
53
60
70
69
68
45
45
54
70
59
61
55
62
49
74
44
45
72
70
68
41
66
80
99
67
58
49
70
61
80
49
64
73
58
70
86
80
61
66
74
69
75
65
52
79
94
72
73
64
62
67
90
80
77
87
75
102
108
84
64
73
57
82
88
85
84
116
113
102
93
89
100
112
100
92
100
84
97
102
86
105
124
110
107
97
107
108
121
130
122
123
123
121
118
114
108
130
122
101
106
103
101
107
122
134
116
121
105
101
101
68
56
88
92
144
89
61
57
69
76
76
69
88
78
80
91
88
70
78
63
67
63
64
73
69
48
53
63
73
43
54
40
64
41
49
50
104
76
60
58
59
32
45
46
31
49
39
59
94
66
51
29
78
73
59
61
51
75
70
57
59
45
66
46
56
75
68
40
65
59
52
68
76
64
49
31
57
74
80
81
57
56
61
75
82
76
43
45
27
48
58
48
74
64
44
42
36
38
50
55
61
42
51
72
75
38
46
43
74
38
60
59
41
30
44
56
77
52
46
39
67
49
49
70
35
47
43
40
70
57
42
39
45
42
44
49
47
31
40
43
51
38
63
55
36
49
33
31
38
31
41
58
61
71
54
35
6
47
62
36
51
58
64
68
77
45
52
38
53
66
61
54
75
53
46
62
64
76
60
49
64
62
51
46
55
44
49
52
60
48
57
44
44
35
30
25
17
42
22
24
70
53
57
54
56
51
43
55
33
42
26
37
46
80
45
45
37
38
47
46
46
60
91
80
85
131
94
102
95
96
85
116
122
89
42
35
46
48
35
16
32
32
-2
4
15
23
48
31
42
25
33
47
63
68
59
45
46
51
65
39
37
48
50
50
48
74
60
61
50
45
54
49
52
54
50
69
45
49
41
59
38
47
54
47
53
64
75
37
43
54
45
35
55
65
73
65
54
71
74
69
67
49
70
62
67
47
114
80
64
54
65
60
58
79
84
70
78
83
100
78
90
100
79
69
93
113
96
77
83
111
83
94
115
96
105
114
84
112
96
124
118
116
107
114
99
100
106
116
106
96
107
118
107
92
104
116
95
107
109
95
85
103
102
77
59
93
51
80
57
50
61
53
35
64
91
88
38
42
57
43
48
56
39
37
23
53
38
38
44
50
67
33
59
31
36
52
21
48
32
43
41
29
49
59
37
55
28
36
38
31
42
56
32
31
40
35
38
30
29
38
33
32
50
58
40
54
52
27
38
49
9
26
11
59
35
39
42
48
38
55
47
45
29
32
39
45
66
54
40
41
22
37
36
55
57
52
26
41
44
23
39
46
44
31
29
41
42
32
49
55
28
30
48
37
66
54
8
10
14
28
30
35
27
54
33
30
36
60
37
28
45
34
34
51
32
43
29
37
37
34
30
61
38
51
61
53
60
62
45
24
43
15
33
40
35
49
57
44
31
78
43
50
65
45
39
29
34
2
46
46
19
48
30
34
49
43
22
44
33
12
33
30
24
50
37
36
39
21
15
24
48
50
38
32
21
34
56
66
15
50
88
92
88
71
89
97
92
93
103
94
88
71
65
36
22
44
30
26
10
-6
-26
-5
33
25
24
34
42
36
22
47
71
34
38
70
50
42
35
46
30
48
28
45
61
62
48
62
53
33
38
43
41
22
37
53
64
47
61
49
43
17
54
60
48
29
64
47
43
52
50
58
53
54
59
57
70
47
50
52
56
73
79
61
62
61
66
70
75
73
67
72
65
63
78
51
50
80
86
71
69
87
78
88
107
81
61
100
80
75
113
71
90
106
126
95
113
89
90
73
87
116
120
107
101
109
132
100
102
116
121
122
126
95
86
87
100
75
88
87
88
86
85
112
79
69
77
70
65
70
50
36
37
66
76
54
36
33
61
47
47
73
52
41
16
48
62
50
26
29
38
36
48
31
38
36
37
48
49
64
44
54
67
55
48
46
41
46
40
58
25
36
19
27
71
73
44
50
59
42
37
55
22
41
44
50
63
47
68
48
40
51
55
66
50
22
49
67
54
63
70
48
39
35
75
62
44
40
56
55
65
56
47
78
100
56
37
61
50
81
69
55
42
60
65
29
33
47
36
28
51
57
41
56
62
60
64
49
59
66
48
35
64
44
82
74
62
59
56
43
60
75
57
68
70
54
70
104
91
59
43
60
55
66
69
67
63
69
81
74
86
50
45
95
61
84
72
62
61
37
47
58
78
11
30
38
46
78
78
64
44
64
81
54
53
46
52
58
51
62
73
50
50
48
54
46
50
55
43
71
82
84
77
93
103
120
91
88
97
101
126
117
109
104
89
74
65
56
49
45
30
9
7
13
19
38
60
47
69
71
51
62
69
55
51
62
40
33
55
42
73
65
62
56
43
55
56
62
34
60
48
57
64
68
63
43
36
49
62
40
50
48
58
68
70
75
70
58
50
43
52
70
46
39
69
66
66
63
68
49
32
77
46
66
60
53
38
38
60
79
46
53
78
77
57
53
74
59
61
63
56
43
63
70
64
88
83
69
41
77
83
66
88
94
89
67
88
84
86
98
89
84
94
67
77
71
63
68
84
63
61
53
66
91
48
45
42
77
49
56
51
47
25
30
44
49
27
23
34
29
15
41
30
1
12
7
-3
-22
-8
10
-4
6
-21
-2
-12
-10
-18
-35
-14
-11
-24
-9
-4
-18
-23
-22
-37
-35
-27
-30
-30
-44
-22
-39
-39
-39
-35
-34
-27
-34
-35
-55
-41
-41
-40
-36
-36
-49
-59
-53
-43
-29
-49
-32
-35
-50
-32
-54
-45
-57
-48
-35
-62
-59
-64
-63
-68
-54
-53
-47
-65
-69
-74
-51
-74
-51
-73
-48
-70
-62
-66
-55
-88
-78
-88
-67
-66
-58
-77
-59
-52
-72
-72
-72
-101
-103
-90
-84
-80
-82
-100
-88
-92
-80
-103
-101
-79
-95
-81
-79
-81
-70
-81
-61
-106
-93
-79
-81
-120
-77
-63
-117
-107
-81
-80
-84
-72
-76
-80
-81
-82
-81
-116
-112
-96
-84
-104
-110
-127
-108
-109
-107
-119
-134
-128
-120
-109
-128
-136
-137
-123
-112
-148
-99
-110
-101
-143
-134
-154
-111
-136
-121
-120
-139
-134
-129
-126
-111
-112
-114
-99
-97
-88
-82
-94
-64
-75
-89
-82
-66
-87
-59
-74
-119
-136
-125
-159
-154
-154
-164
-180
-186
-189
-156
-149
-140
-143
-139
-134
-138
-141
-132
-136
-148
-131
-134
-138
-150
-150
-153
-163
-137
-152
-147
-119
-124
-147
-139
-143
-142
-151
-142
-130
-135
-117
-111
-163
-157
-126
-129
-111
-118
-121
-146
-152
-124
-124
-111
-128
-153
-129
-114
-122
-141
-142
-133
-158
-111
-172
-160
-125
-124
-119
-131
-122
-124
-125
-112
-139
-124
-116
-106
-116
-131
-130
-127
-108
-127
-127
-117
-119
-67
-105
-100
-132
-102
-65
-99
-107
-106
-112
-110
-103
-99
-106
-96
-90
-100
-101
-77
-102
-115
-90
-81
-84
-76
-75
-88
-79
-92
-96
-99
-83
-71
-94
-116
-97
-101
-104
-124
-120
-128
-109
-118
-99
-126
-153
-131
-118
-147
-152
-171
-139
-131
-155
-129
-151
-143
-183
-155
-140
-140
-149
-167
-156
-140
-145
-165
-145
-150
-150
-139
-141
-139
-153
-163
-166
-163
-138
-164
-155
-153
-164
-153
-160
-161
-140
-151
-169
-134
-140
-137
-155
-147
-133
-138
-147
-152
-157
-127
-152
-151
-124
-147
-156
-149
-152
-160
-138
-150
-143
-105
-104
-142
-134
-139
-137
-147
-153
-122
-135
-143
-157
-133
-118
-119
-124
-130
-123
-138
-124
-125
-139
-121
-116
-142
-116
-134
-127
-118
-132
-119
-123
-139
-145
-123
-120
-123
-116
-109
-108
-107
-127
-123
-118
-127
-136
-112
-95
-112
-102
-115
-109
-122
-129
-114
-102
-107
-82
-79
-75
-89
-97
-89
-86
-109
-110
-115
-119
-98
-94
-116
-104
-72
-123
-110
-126
-106
-90
-117
-111
-108
-92
-93
-122
-122
-112
-91
-114
-134
-134
-107
-106
-113
-99
-102
-125
-119
-99
-117
-115
-130
-121
-78
-84
-74
-58
-59
-62
-45
-51
-55
-81
-52
-34
-62
-77
-70
-89
-91
-105
-99
-112
-125
-138
-144
-125
-110
-109
-134
-114
-113
-112
-112
-90
-103
-92
-96
-101
-84
-89
-82
-99
-77
-100
-95
-103
-92
-97
-111
-85
-86
-90
-97
-80
-82
-79
-66
-67
-104
-70
-94
-87
-95
-89
-80
-92
-101
-63
-85
-90
-71
-70
-67
-93
-65
-67
-97
-74
-74
-78
-74
-82
-81
-75
-92
-78
-43
-64
-56
-51
-68
-58
-79
-74
-52
-58
-37
-69
-51
-41
-75
-65
-44
-52
-57
-73
-60
-31
-12
-27
-21
-35
-29
-28
-17
-48
-33
-15
-6
-7
-18
-3
-7
-7
-12
-18
-18
-18
-14
-29
-19
-32
-3
-22
-14
-7
-3
-23
-17
-40
-37
-44
-38
-29
-35
-42
-36
-33
-33
-37
-40
-73
-32
-26
-28
-58
-62
-54
-50
-57
-54
-54
-55
-63
-48
-78
-55
-36
-67
-65
-84
-71
-56
-74
-50
-61
-52
-61
-87
-73
-71
-59
-59
-70
-65
-62
-57
-58
-71
-55
-59
-44
-62
-58
-50
-64
-64
-65
-61
-38
-28
-32
-69
-61
-47
-53
-53
-38
-34
-57
-55
-68
-23
-49
-40
-50
-51
-59
-56
-46
-60
-44
-56
-64
-54
-49
-46
-41
-38
-34
-62
-46
-64
-56
-62
-47
-44
-43
-45
-36
-50
-55
-51
-62
-48
-53
-64
-49
-18
-38
-54
-46
-39
-31
-49
-63
-59
-51
-54
-54
-29
-47
-44
-36
-32
-41
-29
-46
-35
-35
-41
-33
-42
-28
-28
-37
-53
-52
-29
-51
-48
-53
-55
-45
-49
-67
-52
-53
-45
-41
-52
-52
-56
-41
-61
-62
-26
-54
-76
-48
-55
-66
-64
-59
-47
-54
-67
-31
-39
-32
-13
-13
0
-2
-19
-17
-18
-14
-16
-25
-25
-29
-1
-27
-38
-65
-59
-59
-70
-64
-101
-101
-86
-90
-83
-66
-59
-67
-57
-35
-52
-72
-86
-51
-41
-68
-57
-48
-41
-57
-55
-14
-72
-53
-45
-52
-55
-33
-34
-38
-96
-52
-74
-48
-35
-44
-50
-54
-54
-53
-47
-50
-59
-62
-62
-59
-62
-71
-53
-31
-37
-46
-51
-60
-41
-49
-37
-32
-55
-69
-26
-23
-50
-30
-57
-18
-29
-29
-46
-53
-48
-49
-33
-30
-32
-42
-13
-17
-22
-41
-14
-11
-45
5
-20
-15
-32
-6
-24
-11
-9
-15
-16
4
-2
0
-11
-13
-7
-3
-19
-5
-2
-10
4
9
7
4
5
7
3
-6
4
-9
-9
-21
-13
-8
-21
4
-9
-20
-12
-18
-18
-28
-49
-22
-22
-38
-38
-45
-70
-44
-43
-33
-43
-45
-12
-48
-65
-49
-20
-38
-60
-53
-48
-53
-53
-42
-67
-60
-72
-67
-13
-42
-30
-46
-49
-63
-61
-61
-63
-74
-33
-36
-40
-48
-41
-50
-40
-44
-50
-43
-35
-33
-57
-48
-55
-39
-36
-59
-50
-44
-45
-35
-53
-52
-48
-67
-53
-38
-35
-67
-33
-51
-66
-59
-47
-45
-56
-64
-50
-2
-46
-54
-17
-57
-53
-52
-34
-33
-53
-28
-44
-38
-49
-60
-49
-48
-62
-41
-35
-69
-38
-39
-49
-39
-36
-33
-60
-62
-58
-63
-46
-48
-43
-38
-47
-19
-42
-48
-53
-46
-31
-32
-31
-50
-60
-32
-25
-48
-39
-45
-54
-59
-55
-55
-69
-55
-53
-72
-58
-59
-73
-58
-52
-52
-51
-46
-61
-44
-61
-60
-51
-51
-60
-68
-86
-59
-58
-65
-63
-56
-49
-29
-22
-9
-8
-26
-9
-9
-16
-28
-28
-7
-31
-23
-32
-31
-53
-59
-60
-55
-91
-117
-101
-101
-87
-53
-63
-67
-57
-67
-72
-46
-54
-46
-57
-52
-59
-67
-56
-48
-65
-58
-67
-65
-86
-85
-58
-82
-72
-62
-64
-37
-36
-48
-74
-62
-58
-70
-68
-57
-45
-63
-50
-63
-71
-48
-41
-65
-51
-43
-47
-65
-46
-48
-59
-57
-35
-52
-62
-31
-55
-56
-41
-41
-47
-45
-56
-42
-46
-53
-43
-44
-50
-32
-17
-37
-23
-13
-24
-26
-44
-22
-12
-33
-8
-24
-36
-38
-15
-3
-19
-15
-24
-6
-41
-24
-17
4
-18
-41
-26
-23
-8
-11
4
-8
-16
-14
-7
2
-15
-19
-27
-23
-9
-12
-42
-19
-22
-35
-17
-45
-38
-22
-40
-39
-70
-46
-29
-85
-66
-35
-64
-51
-60
-76
-63
-61
-64
-81
-89
-81
-101
-65
-56
-55
-60
-70
-69
-65
-73
-63
-57
-95
-72
-70
-58
-47
-50
-86
-92
-72
-83
-73
-59
-74
-69
-72
-76
-70
-69
-80
-79
-54
-46
-77
-72
-73
-59
-75
-78
-49
-80
-83
-56
-68
-96
-44
-43
-87
-67
-48
-50
-51
-56
-83
-63
-67
-76
-59
-61
-51
-82
-72
-56
-83
-67
-51
-64
-46
-42
-59
-68
-75
-76
-55
-68
-72
-39
-31
-68
-54
-49
-50
-62
-48
-44
-58
-91
-78
-64
-82
-83
-68
-37
-53
-60
-63
-62
-33
-47
-47
-53
-58
-39
-55
-63
-63
-47
-63
-78
-65
-38
-55
-55
-54
-49
-42
-55
-56
-62
-59
-70
-57
-52
-84
-66
-53
-64
-71
-60
-54
-83
-68
-77
-64
-66
-70
-73
-52
-52
-39
-54
-55
-57
-44
-20
-14
-17
-31
-8
-5
-15
-16
2
1
6
4
-20
-41
-52
-46
-68
-75
-72
-86
-75
-75
-80
-103
-58
-36
-38
-51
-55
-53
-56
-54
-49
-28
-40
-55
-64
-52
-33
-36
-34
-50
-61
-14
-42
-56
-54
-35
-41
-56
-39
-55
-52
-49
-16
-21
-36
-47
-28
-24
-22
-25
-35
-41
-50
-54
-48
-42
-51
-38
-36
-22
-27
-28
-32
-14
-15
-55
-37
-19
-32
-31
-36
-30
-39
-12
-3
-9
-24
-39
-15
-2
-16
-13
-27
-18
-9
-24
0
7
10
-1
-12
5
7
4
0
-17
-4
14
-3
-32
11
20
12
-23
10
5
11
5
17
16
5
14
-13
20
-1
-7
18
8
4
3
20
-4
-25
-20
22
-5
-10
-3
6
-18
-9
-17
-25
-35
-31
-47
-43
-30
-27
-28
-35
-68
-48
-13
-26
-26
-47
-38
-52
-27
-45
-44
-28
-34
-36
-36
-38
-49
-43
-33
-44
-36
-28
-48
-48
-44
-40
-48
-18
-25
-53
-39
-56
-46
-51
-61
-54
-50
-45
-37
-71
-60
-8
-16
-21
-41
-23
-37
-41
-53
-19
-36
-50
-56
-37
-22
-44
-34
-37
-25
-23
-35
-26
-12
-13
-30
-17
-34
-30
-25
-29
-36
-49
-28
-22
-31
-29
-29
-43
-14
-24
-29
-42
-13
-8
-40
-14
-22
-43
-13
1
-8
-43
-37
-16
-34
0
-42
-13
-45
-28
-26
3
-7
-17
-11
-9
-18
-23
-6
-19
-29
-18
-5
-14
-31
-5
6
-29
-13
-24
-26
-35
-28
-18
-43
-32
-14
-29
-44
-15
-7
-25
-8
-25
-25
-10
-17
-32
-23
-27
-30
-35
-18
-44
-39
-15
5
-3
-18
-12
6
18
20
27
8
22
38
9
35
37
34
23
32
8
-2
-4
-33
-40
-64
-52
-49
-51
-69
-62
-28
-14
-14
-29
-13
-15
-33
-29
-12
-3
0
-2
-18
-7
28
-3
-23
13
-11
-10
-6
-6
11
-8
-1
-14
13
1
-37
12
9
13
-7
-7
-8
2
9
7
-3
13
10
10
-1
6
-13
-16
25
8
12
22
24
14
-5
8
26
-5
4
17
30
16
7
18
14
-2
24
46
-1
20
18
28
15
15
12
35
11
21
37
66
15
45
38
45
37
42
40
46
54
42
11
33
64
54
48
64
44
54
