0
-1
-3
-7
-3
-5
-5
-3
-3
-5
-6
-8
-5
-2
0
4
2
3
9
17
11
5
3
6
10
16
15
13
9
4
6
6
9
9
11
10
9
9
7
6
8
7
2
-2
-5
-7
-12
-10
-9
-9
-12
-12
-9
-5
-6
-3
-4
-9
-11
-9
-8
-5
-2
-2
-5
-5
-2
3
14
29
49
64
84
105
119
131
129
133
142
143
117
78
44
11
-28
-64
-94
-118
-119
-109
-95
-78
-67
-63
-58
-54
-50
-44
-42
-34
-27
-25
-22
-23
-21
-18
-18
-19
-17
-17
-7
-6
-9
-13
-13
-12
-12
-10
-6
-6
-3
-2
-4
-5
-5
-4
-4
2
5
1
-4
-1
0
-3
-5
-5
-2
6
4
2
3
10
6
5
7
3
2
8
10
4
5
8
8
12
12
9
15
17
21
17
17
23
24
23
22
22
19
21
22
21
20
25
26
26
30
30
27
30
29
28
32
30
25
25
20
24
24
21
20
17
18
21
15
16
19
20
16
16
11
12
16
12
12
8
5
3
5
8
10
6
5
4
1
5
6
-1
0
0
-3
-3
0
1
-2
-4
-6
-7
-1
2
2
1
0
0
0
-2
-3
-3
5
2
1
-1
-1
2
2
-1
-4
-7
-6
1
-1
-4
-2
-1
0
4
4
-1
-2
-2
1
2
3
1
0
1
-2
-1
0
0
-4
-4
-1
-2
-4
-3
-3
-6
-8
-3
-3
-4
-3
-4
-4
1
3
3
1
6
5
7
4
-4
3
11
12
14
13
12
11
10
11
11
12
12
14
8
10
9
2
-2
1
-1
-2
-1
-3
-2
-4
-6
-10
-12
-10
-12
-14
-6
4
-6
-5
-1
-5
-5
-3
-7
-4
4
-3
-2
5
9
24
42
61
72
102
122
128
129
131
137
142
132
94
60
34
-7
-48
-79
-102
-109
-106
-88
-75
-63
-59
-52
-52
-56
-50
-47
-41
-34
-27
-23
-19
-20
-17
-13
-11
-11
-10
-9
-6
-9
-11
-10
-11
-7
-2
2
-4
-5
-4
0
3
5
1
3
1
-2
-2
0
-1
-5
3
1
-2
1
5
6
11
8
9
9
9
10
6
9
11
11
10
12
13
11
14
16
15
18
19
16
21
24
26
28
28
27
24
30
34
34
28
33
30
25
31
31
29
31
32
34
31
30
26
27
31
27
20
22
20
20
17
20
18
24
25
21
19
19
20
18
18
19
17
15
12
13
10
9
11
5
2
1
2
2
6
5
4
5
6
4
7
8
4
5
8
3
2
2
-1
-3
-4
-4
-2
-4
3
2
5
5
4
3
2
1
1
2
-1
-3
-10
-5
-4
5
5
0
-1
2
3
1
2
0
4
-1
2
3
1
1
-1
-3
-2
-2
-2
0
1
5
-1
0
1
-1
-1
0
-2
1
2
-2
-2
-4
0
3
3
4
4
6
7
12
6
15
19
15
10
6
6
5
3
9
10
12
15
14
11
12
11
6
6
3
-3
-4
-5
-8
-8
-7
-11
-9
-8
-13
-16
-12
-2
0
-3
-4
-6
-8
-8
-10
-9
-4
-2
-1
-2
1
10
29
46
61
78
102
118
135
147
137
140
144
130
93
53
17
-28
-63
-91
-120
-125
-120
-107
-90
-71
-61
-62
-59
-55
-50
-47
-48
-36
-30
-24
-20
-26
-28
-21
-16
-12
-12
-5
-8
-10
-7
-8
-7
-5
-5
-1
-1
0
-4
-6
-4
-5
-4
-6
-4
9
4
4
4
5
5
5
3
5
7
6
10
9
5
4
8
10
13
11
11
14
17
11
12
16
17
15
17
19
15
20
26
27
28
28
30
31
27
29
27
29
35
31
32
32
32
27
29
32
33
30
26
27
29
25
29
28
30
29
28
23
24
25
25
26
28
23
23
25
22
19
23
20
19
16
15
11
10
11
6
6
8
8
7
10
11
3
1
3
-1
-2
-2
-1
-1
0
2
2
6
2
1
0
4
-1
-4
-1
2
1
-1
0
1
-1
4
2
-1
1
0
-6
-6
-2
-2
0
3
1
-1
3
3
3
4
4
2
1
2
0
1
1
2
-1
0
0
0
1
0
-2
-2
2
0
-4
-6
-3
-3
-6
-6
-1
-4
1
2
5
10
10
12
11
4
1
3
7
10
13
11
9
6
5
5
9
10
11
9
10
6
6
4
3
1
2
0
-6
-6
-6
-5
-9
-7
-1
-4
-5
-3
-6
-7
-6
-6
-9
-8
-8
-8
-5
-1
0
-1
4
8
19
34
53
68
91
121
137
143
146
146
147
141
118
76
37
1
-44
-81
-110
-130
-130
-124
-107
-91
-74
-65
-61
-57
-54
-49
-46
-42
-33
-31
-26
-25
-22
-24
-21
-16
-11
-6
-5
-4
-4
-7
-9
-11
-7
-7
-11
-5
-3
-2
-5
-2
4
-3
0
-5
-5
-1
0
-3
-1
3
0
1
0
2
5
6
8
5
8
7
9
10
13
11
10
6
12
11
9
15
12
14
18
18
19
20
22
20
21
21
23
31
34
32
28
28
26
25
26
31
26
24
26
27
24
24
22
25
26
25
22
21
20
19
19
20
21
21
18
17
16
14
13
14
13
19
15
12
10
9
4
6
7
3
0
1
0
-5
-5
-2
-4
1
1
-1
-5
-6
-12
-17
-11
-10
-9
-3
0
-4
-9
-8
1
-3
-4
1
-5
-5
-6
-10
-9
-4
-6
-6
-2
-5
-7
-5
-4
-8
-7
-4
-1
-3
-5
-2
1
0
1
-4
-12
-8
-9
-6
-6
-1
-1
-1
-4
-8
-7
-11
-13
-9
-11
-12
-10
-7
-7
-7
-8
-7
-7
-2
1
2
-1
8
4
-2
-6
-7
2
-3
-1
-3
-3
0
0
2
3
3
3
1
4
-1
-1
3
0
-6
-7
-10
-10
-13
-12
-18
-20
-16
-15
-12
-12
-12
-13
-15
-20
-20
-9
-8
-10
-13
-12
-4
-3
-7
-5
-1
5
20
39
53
72
99
116
126
133
125
129
132
117
78
41
9
-33
-60
-98
-131
-134
-125
-119
-106
-86
-71
-61
-61
-59
-60
-52
-46
-41
-39
-34
-32
-33
-28
-24
-28
-22
-17
-18
-23
-18
-18
-19
-16
-16
-17
-12
-16
-15
-15
-14
-7
-9
-8
-8
-4
-6
-10
-8
-10
-8
-5
-6
-8
-5
-5
-2
-2
0
-5
-7
-4
0
-2
0
3
5
5
4
2
2
4
4
6
8
10
10
12
10
12
16
17
17
18
17
17
19
17
21
22
24
19
18
11
14
14
12
14
14
17
17
12
16
16
14
12
11
7
8
9
10
7
5
2
7
6
4
1
0
5
1
3
4
4
-1
-5
-7
-11
-14
-15
-20
-12
-11
-13
-11
-10
-9
-8
-15
-12
-17
-17
-16
-14
-14
-18
-20
-11
-12
-13
-11
-16
-18
-10
-11
-11
-10
-13
-13
-10
-8
-12
-13
-12
-10
-12
-10
-9
-10
-12
-8
-8
-11
-14
-15
-11
-9
-10
-10
-6
-12
-14
-14
-15
-14
-9
-10
-11
-13
-14
-13
-7
-8
-10
-16
-12
-7
-5
-7
-5
-3
-2
-6
-12
-15
-12
-11
-13
-4
3
4
2
-1
2
1
-2
3
0
-2
-2
-3
-8
-9
-14
-16
-14
-12
-17
-26
-24
-23
-25
-21
-21
-16
-16
-15
-15
-18
-13
-11
-17
-16
-19
-14
-6
-6
-10
-7
5
22
40
52
66
86
105
114
113
119
128
128
106
63
20
-13
-49
-83
-117
-138
-135
-125
-110
-89
-77
-68
-59
-60
-56
-53
-52
-50
-41
-37
-39
-38
-28
-27
-28
-22
-18
-19
-17
-18
-20
-20
-19
-12
-16
-14
-15
-16
-14
-12
-10
-14
-15
-15
-18
-13
-12
-12
-11
-8
-15
-14
-10
-7
-10
-8
-5
-9
-5
-2
-8
-7
-7
-9
-4
2
2
-2
0
6
6
11
14
10
8
9
11
7
7
9
13
15
17
15
16
17
20
18
21
18
17
19
13
18
16
15
12
8
14
17
17
17
13
6
8
9
5
12
14
9
2
3
3
0
4
9
6
2
1
-1
-5
-2
-1
-6
-1
-6
-8
-10
-7
-9
-11
-10
-13
-17
-19
-18
-18
-12
-14
-18
-17
-12
-16
-12
-8
-13
-17
-13
-14
-14
-12
-13
-18
-26
-18
-17
-15
-10
-11
-12
-16
-14
-12
-14
-9
-10
-14
-16
-13
-16
-14
-10
-14
-11
-7
-10
-16
-13
-11
-14
-17
-17
-17
-17
-13
-13
-20
-15
-15
-17
-17
-18
-18
-17
-12
-10
-5
3
0
-5
-7
-15
-13
-9
-6
-5
-4
-3
-2
-3
-7
-2
-4
-4
1
-1
-3
-4
-8
-16
-16
-15
-12
-12
-12
-15
-17
-18
-21
-25
-24
-23
-26
-27
-26
-18
-17
-17
-18
-24
-21
-27
-19
-8
-10
-10
-9
-4
6
19
39
49
72
93
107
113
116
121
123
114
88
48
11
-27
-67
-96
-127
-141
-136
-125
-104
-87
-76
-71
-71
-70
-66
-56
-46
-41
-36
-34
-36
-37
-34
-25
-24
-22
-24
-25
-25
-24
-25
-20
-20
-22
-22
-16
-18
-17
-14
-12
-8
-9
-11
-13
-9
-12
-12
-14
-12
-15
-16
-7
-8
-9
-12
-13
-8
-9
-11
-5
-2
-6
-3
-4
-3
0
0
-3
1
2
2
5
2
2
2
4
6
10
15
11
11
13
10
11
16
19
16
14
16
15
14
21
22
20
16
17
13
12
10
6
10
12
11
11
10
9
9
11
8
4
5
7
5
1
6
1
0
1
0
-5
-4
0
-3
-6
-5
-8
-11
-6
-4
-5
-8
-10
-11
-14
-16
-15
-14
-20
-20
-14
-14
-5
-15
-16
-15
-15
-15
-10
-13
-17
-18
-11
-11
-15
-15
-16
-14
-15
-14
-13
-15
-13
-16
-14
-15
-16
-17
-7
-7
-13
-13
-13
-15
-12
-11
-11
-14
-13
-15
-13
-12
-11
-13
-12
-11
-13
-17
-20
-14
-19
-15
-13
-16
-16
-9
-10
-8
-4
-3
-4
-6
-7
-9
-11
-9
-3
-1
1
2
-2
-4
-2
-5
-5
-4
-5
0
-5
-5
-7
-8
-6
-7
-11
-12
-13
-18
-15
-14
-17
-20
-21
-20
-21
-23
-21
-17
-19
-22
-24
-24
-18
-16
-17
-15
-13
-14
-15
-15
-12
4
22
43
57
76
98
115
122
118
115
120
111
80
41
3
-38
-73
-101
-131
-146
-142
-128
-107
-90
-75
-71
-68
-68
-66
-61
-54
-52
-48
-45
-47
-42
-32
-27
-21
-20
-18
-19
-19
-23
-23
-25
-24
-20
-22
-24
-23
-23
-24
-23
-21
-24
-16
-8
-16
-19
-9
-10
-14
-11
-10
-13
-10
-10
-11
-12
-11
-10
-11
-9
-6
-9
-4
-5
-4
-7
-1
3
3
4
1
1
1
3
0
5
9
4
0
2
3
14
17
18
21
22
19
17
15
11
14
12
10
10
8
8
7
16
14
23
16
15
15
14
8
11
13
10
9
7
4
6
6
5
0
1
0
-1
-5
2
0
-2
-1
-5
-5
-4
-6
-10
-12
-5
-10
-13
-9
-13
-12
-12
-7
-9
-12
-15
-16
-16
-18
-15
-16
-14
-13
-17
-18
-16
-20
-20
-16
-17
-13
-6
-9
-14
-11
-10
-12
-14
-14
-17
-15
-14
-11
-14
-9
-8
-13
-12
-9
-9
-12
-14
-13
-14
-13
-14
-17
-15
-17
-21
-20
-17
-17
-16
-22
-20
-21
-16
-17
-20
-22
-20
-19
-16
-13
-12
-14
-14
-13
-11
-15
-17
-15
-4
-7
-6
-4
-6
-9
-7
-5
-5
-4
2
4
2
-5
-4
-5
-10
-11
-13
-23
-22
-21
-24
-22
-18
-19
-24
-21
-22
-26
-31
-28
-27
-21
-19
-24
-25
-21
-19
-19
-19
-17
-17
-13
-13
-2
12
31
52
72
91
108
113
118
119
126
122
94
58
22
-18
-56
-90
-114
-128
-127
-117
-95
-83
-74
-72
-71
-66
-63
-59
-61
-47
-38
-45
-49
-45
-39
-36
-34
-30
-27
-26
-23
-26
-23
-24
-22
-25
-22
-21
-22
-26
-22
-21
-18
-18
-20
-23
-24
-20
-17
-18
-20
-18
-12
-13
-13
-14
-7
-5
-8
-10
-9
-9
-4
-4
-7
-6
-6
-7
-6
-3
0
-2
-2
3
4
1
1
3
6
10
10
4
5
10
10
10
9
6
6
10
13
13
13
10
8
8
9
4
6
8
8
8
4
1
7
11
12
6
6
7
3
-1
3
-4
2
10
4
4
1
-2
-5
-4
-3
-4
-6
-8
-10
-11
-12
-15
-15
-16
-13
-16
-16
-15
-12
-16
-16
-8
-14
-16
-11
-12
-14
-14
-15
-18
-19
-18
-16
-14
-15
-14
-14
-8
-12
-13
-14
-13
-12
-12
-12
-13
-13
-14
-14
-17
-16
-17
-14
-14
-6
-9
-12
-12
-12
-14
-12
-12
-14
-13
-13
-15
-12
-15
-18
-13
-16
-15
-16
-14
-14
-17
-16
-16
-19
-18
-14
-17
-16
-9
-3
-5
-6
-9
-9
-6
-2
-1
-1
2
2
-1
-7
-1
1
-2
-3
-3
-7
-4
-3
-9
-12
-7
-7
-11
-15
-21
-20
-18
-20
-23
-21
-16
-17
-21
-18
-18
-21
-17
-20
-21
-22
-23
-22
-20
-16
-14
-16
-15
-11
0
16
31
46
67
92
111
119
128
131
133
135
112
76
40
7
-37
-71
-103
-125
-127
-119
-99
-88
-77
-73
-73
-70
-63
-59
-57
-50
-41
-38
-36
-38
-36
-35
-31
-27
-25
-27
-26
-20
-20
-22
-20
-18
-20
-23
-27
-21
-23
-19
-16
-17
-20
-14
-9
-10
-14
-13
-13
-15
-12
-14
-15
-14
-7
-7
-4
-8
-8
-7
-7
-6
-8
-4
-2
-3
-7
-3
-1
3
4
4
2
4
1
6
5
7
6
8
11
9
7
7
7
9
9
9
14
13
14
15
12
14
15
14
15
13
14
9
8
6
3
8
8
9
10
10
10
9
9
5
4
10
8
6
6
5
2
-2
-4
-6
-5
-5
-6
-6
-5
-5
-7
-8
-7
-11
-13
-16
-17
-15
-15
-16
-15
-14
-14
-15
-15
-14
-17
-20
-18
-15
-13
-12
-10
-12
-13
-13
-14
-12
-11
-13
-16
-18
-12
-13
-14
-17
-17
-18
-15
-14
-16
-12
-8
-11
-13
-15
-15
-18
-16
-14
-17
-15
-15
-15
-14
-11
-12
-15
-14
-14
-15
-14
-17
-22
-21
-18
-19
-22
-23
-20
-15
-8
-7
-8
-7
-4
-6
-9
-9
-12
-11
-4
-6
-5
-7
0
-4
-8
-5
0
-4
2
0
-4
-3
-2
-8
-12
-13
-16
-16
-17
-14
-21
-23
-24
-21
-22
-20
-20
-23
-19
-17
-24
-17
-17
-23
-24
-19
-16
-16
-14
-11
-12
-8
7
22
38
51
72
93
110
119
125
129
132
130
110
77
37
-3
-48
-90
-118
-143
-143
-135
-118
-102
-86
-75
-68
-68
-70
-68
-66
-64
-50
-43
-39
-35
-34
-33
-30
-29
-25
-23
-20
-18
-18
-24
-23
-24
-21
-23
-23
-23
-17
-19
-20
-16
-21
-15
-11
-13
-12
-13
-13
-13
-14
-11
-12
-13
-13
-14
-12
-11
-4
-1
-5
-1
0
-1
-2
1
3
4
5
5
9
13
13
8
10
12
8
7
11
14
17
16
15
16
21
22
19
19
22
18
20
18
18
22
20
18
18
24
20
15
14
14
11
12
16
17
17
16
16
11
11
11
12
13
12
14
13
7
12
11
7
6
5
4
4
4
5
-1
-4
-6
-9
-10
-8
-13
-11
-1
-4
-8
-7
-6
-7
-7
-6
-8
-6
-5
-6
-7
-7
-5
-10
-13
-15
-13
-7
-8
-11
-9
-14
-6
-8
-3
-6
-11
-7
-8
-7
0
2
-4
-5
-8
-4
-5
-8
-4
-6
-9
-8
-5
-17
-16
-16
-14
-9
-14
-12
-3
-8
-10
-11
-12
-13
-16
-15
-13
-12
-9
-9
-10
-11
-9
-6
-6
-1
-2
-4
-8
-9
-8
-3
1
4
1
-2
-1
-3
-1
2
1
3
2
-4
-6
-5
-10
-6
-9
-13
-15
-14
-14
-18
-16
-13
-20
-16
-14
-15
-17
-17
-17
-18
-18
-15
-19
-19
-12
-10
-11
-12
-8
-4
9
30
50
65
89
107
119
135
135
133
141
134
107
63
26
-23
-66
-98
-124
-143
-135
-120
-107
-90
-72
-67
-70
-64
-61
-54
-47
-44
-39
-36
-35
-34
-35
-32
-28
-27
-24
-19
-19
-17
-20
-20
-19
-16
-15
-12
-12
-12
-15
-15
-15
-14
-13
-11
-9
-13
-11
-16
-20
-16
-15
-12
-6
-12
-13
-13
-11
-8
-5
-2
-1
3
2
2
5
4
4
3
2
0
0
3
9
9
9
6
7
7
6
7
13
16
16
18
14
14
15
14
14
15
18
16
14
10
9
10
11
11
10
5
8
7
8
7
5
9
8
4
4
8
8
10
6
5
3
-2
-1
-6
-2
2
5
4
0
-3
-5
-5
-5
-8
-12
-8
-9
-11
-14
-17
-19
-19
-19
-21
-18
-15
-16
-14
-10
-14
-19
-16
-19
-16
-16
-15
-16
-16
-18
-16
-16
-20
-22
-18
-19
-19
-16
-11
-8
-12
-15
-19
-15
-19
-20
-11
-12
-16
-16
-14
-16
-14
-11
-12
-12
-11
-10
-14
-15
-17
-19
-18
-22
-18
-17
-14
-16
-20
-16
-17
-19
-17
-20
-14
-9
-10
-15
-13
-16
-18
-13
-5
-1
-4
-7
-1
-1
-3
-5
-7
-6
-1
-1
-2
-2
-4
-5
-11
-5
-9
-12
-16
-18
-20
-23
-19
-16
-20
-21
-20
-18
-18
-21
-19
-14
-18
-22
-22
-22
-29
-18
-12
-9
-11
-7
1
11
27
42
54
77
97
111
116
119
120
124
125
100
55
19
-17
-60
-93
-119
-137
-137
-127
-109
-94
-78
-69
-68
-68
-63
-57
-55
-53
-48
-41
-38
-40
-37
-31
-28
-29
-28
-28
-25
-27
-19
-20
-20
-19
-19
-22
-20
-19
-21
-19
-16
-15
-15
-20
-15
-12
-12
-13
-14
-16
-14
-14
-14
-14
-10
-9
-7
-12
-16
-15
-13
-15
-15
-12
-7
-3
1
2
1
2
0
1
0
2
2
1
-3
5
4
2
6
6
4
6
8
12
14
16
13
15
14
10
11
11
6
11
10
7
3
3
4
3
0
2
6
4
4
4
4
1
1
0
3
3
-5
-6
-4
-5
-4
-4
-6
-4
-4
-5
-8
-11
-12
-13
-14
-17
-15
-15
-18
-17
-21
-23
-22
-18
-20
-22
-17
-14
-19
-19
-18
-20
-21
-15
-16
-16
-18
-21
-24
-27
-24
-16
-16
-16
-17
-15
-15
-16
-15
-14
-13
-14
-15
-16
-16
-17
-14
-18
-19
-15
-14
-17
-16
-12
-12
-18
-16
-15
-19
-18
-19
-20
-20
-19
-20
-15
-18
-16
-16
-12
-21
-22
-19
-21
-13
-13
-11
-9
-12
-12
-12
-9
-8
-8
-5
-7
-8
-7
-11
-9
-11
-9
-12
-11
-12
-9
-12
-16
-16
-18
-19
-22
-23
-21
-26
-23
-20
-29
-28
-16
-20
-29
-26
-27
-28
-26
-25
-25
-25
-29
-23
-19
-21
-21
-17
-5
11
28
43
67
92
105
111
112
119
121
120
102
60
17
-17
-54
-86
-120
-144
-143
-136
-123
-103
-83
-75
-73
-71
-63
-62
-58
-58
-52
-49
-44
-40
-39
-36
-34
-32
-32
-31
-35
-38
-33
-28
-25
-22
-24
-25
-22
-25
-22
-20
-22
-24
-24
-25
-25
-16
-16
-16
-22
-21
-14
-15
-16
-18
-18
-18
-15
-15
-19
-19
-20
-16
-10
-10
-14
-13
-8
-7
-3
-5
-7
-8
-7
-4
1
0
-3
-3
-2
2
-1
3
4
8
8
10
10
8
5
5
6
6
8
4
2
4
7
5
7
9
10
6
6
6
-3
-4
2
4
-1
-1
-3
-5
-5
-8
-7
-9
-12
-16
-19
-12
-6
-8
-9
-10
-14
-13
-11
-13
-16
-18
-22
-19
-19
-21
-19
-17
-17
-17
-19
-24
-23
-22
-23
-21
-17
-18
-21
-25
-22
-22
-21
-20
-22
-20
-22
-18
-17
-20
-21
-17
-21
-20
-22
-23
-21
-17
-21
-18
-18
-17
-24
-25
-21
-20
-23
-23
-23
-22
-21
-25
-29
-24
-16
-17
-14
-15
-17
-22
-21
-22
-23
-18
-19
-23
-22
-20
-22
-22
-20
-15
-10
-10
-11
-12
-17
-17
-15
-13
-14
-18
-11
-7
-9
-15
-14
-10
-9
-13
-7
-8
-9
-13
-18
-16
-17
-21
-22
-22
-22
-23
-26
-27
-29
-36
-37
-32
-29
-27
-28
-31
-30
-25
-23
-23
-22
-23
-28
-26
-22
-25
-22
-18
-8
6
24
41
63
83
96
104
106
111
114
110
90
52
12
-17
-59
-90
-123
-148
-148
-138
-123
-104
-92
-86
-81
-77
-74
-69
-59
-55
-50
-49
-45
-44
-40
-39
-32
-35
-33
-33
-33
-27
-30
-28
-26
-30
-28
-26
-27
-23
-24
-27
-26
-23
-21
-22
-25
-22
-21
-24
-26
-26
-25
-27
-23
-19
-21
-18
-20
-20
-22
-16
-20
-21
-19
-18
-21
-20
-14
-11
-9
-7
-6
-5
-5
-6
-4
-5
-5
-2
1
-4
-7
0
-5
-5
5
7
3
2
3
0
-3
2
1
2
5
4
-1
3
5
3
0
2
-1
-4
-2
-1
-3
-4
-1
-9
-8
-6
-3
-6
-7
-6
-10
-7
-5
-10
-14
-12
-15
-17
-19
-19
-18
-25
-21
-20
-20
-19
-22
-24
-20
-24
-27
-22
-19
-21
-25
-24
-25
-26
-31
-26
-29
-30
-26
-25
-27
-23
-24
-21
-23
-22
-22
-22
-23
-27
-25
-25
-23
-23
-22
-29
-26
-23
-18
-21
-19
-18
-20
-22
-22
-29
-33
-28
-27
-21
-21
-19
-22
-20
-19
-22
-20
-22
-21
-30
-28
-27
-26
-25
-24
-28
-25
-25
-26
-25
-21
-19
-21
-20
-22
-18
-22
-22
-17
-15
-12
-9
-8
-9
-8
-13
-14
-12
-14
-12
-11
-9
-8
-12
-16
-25
-24
-22
-26
-28
-26
-27
-30
-27
-31
-31
-28
-28
-35
-29
-22
-28
-29
-30
-27
-27
-28
-30
-31
-26
-27
-24
-23
-17
-10
4
23
37
59
80
92
110
117
116
117
115
95
57
17
-16
-53
-89
-120
-143
-139
-131
-116
-95
-85
-81
-71
-74
-76
-71
-67
-61
-56
-48
-52
-48
-46
-43
-39
-35
-41
-35
-31
-32
-36
-31
-29
-30
-29
-29
-28
-27
-27
-27
-25
-23
-20
-21
-21
-23
-22
-23
-21
-21
-23
-25
-23
-25
-24
-18
-17
-14
-16
-15
-16
-19
-10
-13
-15
-13
-8
-13
-15
-14
-11
-7
-7
-6
-4
-6
-6
-4
2
2
-2
1
1
-3
0
3
0
-3
-1
-2
-1
-3
3
3
5
4
2
4
3
0
-1
0
-3
-5
-4
-3
0
-2
-3
-3
-4
-4
-6
-8
-9
-10
-10
-14
-8
-8
-11
-11
-12
-10
-11
-12
-16
-20
-23
-25
-24
-21
-20
-20
-20
-21
-26
-29
-26
-30
-31
-28
-29
-29
-29
-20
-21
-23
-26
-28
-27
-27
-23
-23
-24
-20
-23
-24
-22
-22
-20
-19
-21
-24
-24
-24
-24
-21
-22
-25
-24
-25
-25
-25
-25
-23
-23
-24
-26
-26
-23
-23
-24
-27
-29
-25
-26
-26
-27
-27
-29
-24
-24
-25
-26
-26
-30
-30
-29
-28
-29
-31
-30
-30
-28
-33
-35
-28
-28
-28
-26
-20
-15
-17
-19
-23
-20
-18
-17
-13
-8
-11
-18
-17
-20
-20
-14
-10
-10
-13
-13
-17
-20
-23
-23
-27
-30
-29
-32
-34
-31
-32
-33
-33
-30
-34
-34
-33
-33
-34
-32
-30
-29
-30
-37
-37
-33
-25
-28
-28
-21
-12
3
21
40
49
73
92
98
99
106
114
123
115
82
41
5
-34
-75
-108
-130
-136
-131
-116
-98
-92
-85
-80
-79
-81
-76
-68
-63
-60
-50
-49
-49
-44
-42
-37
-36
-34
-34
-36
-43
-45
-40
-35
-34
-33
-32
-32
-30
-27
-20
-28
-29
-33
-35
-35
-32
-33
-27
-26
-25
-31
-26
-24
-27
-27
-26
-23
-24
-25
-26
-23
-21
-13
-13
-15
-15
-15
-15
-13
-10
-12
-12
-10
-11
-12
-9
-5
-7
-12
-8
-7
-2
1
0
-7
-5
-6
-6
-2
2
1
3
4
-2
-1
3
1
-2
-2
-7
-11
-8
-10
-12
0
3
0
-5
-5
-3
-4
-1
-7
-9
-10
-10
-13
-12
-11
-14
-13
-13
-16
-14
-13
-15
-15
-17
-20
-19
-20
-22
-25
-27
-25
-26
-27
-28
-26
-29
-31
-27
-25
-27
-26
-25
-24
-24
-22
-24
-28
-27
-24
-26
-21
-19
-24
-25
-25
-25
-23
-24
-26
-26
-24
-29
-28
-26
-25
-24
-23
-24
-24
-23
-23
-25
-24
-24
-26
-26
-24
-26
-29
-25
-20
-21
-21
-25
-27
-28
-30
-27
-25
-24
-24
-26
-28
-30
-30
-33
-31
-29
-32
-26
-28
-27
-22
-25
-16
-15
-12
-13
-19
-21
-22
-23
-22
-15
-11
-12
-10
-11
-13
-14
-15
-10
-10
-10
-13
-13
-14
-18
-25
-25
-25
-26
-32
-29
-32
-32
-26
-28
-29
-31
-31
-35
-31
-30
-33
-38
-29
-27
-28
-30
-32
-25
-27
-28
-21
-16
-8
6
25
41
56
81
103
117
117
117
123
126
112
79
37
2
-45
-85
-115
-145
-154
-151
-139
-122
-105
-91
-86
-85
-78
-74
-69
-70
-64
-57
-54
-49
-48
-46
-42
-40
-38
-40
-38
-39
-38
-38
-38
-35
-39
-25
-18
-17
-26
-25
-25
-26
-26
-25
-24
-21
-23
-24
-26
-20
-21
-23
-23
-21
-22
-22
-21
-20
-20
-16
-17
-18
-17
-19
-16
-16
-12
-12
-15
-8
-5
-5
-7
-7
-8
-5
-2
-2
-1
1
-1
1
3
6
3
4
9
8
3
4
0
-4
1
7
7
10
8
2
2
4
4
4
1
0
-2
2
0
-1
0
3
4
-1
-3
-1
-5
-5
0
-4
-5
-6
-9
-9
-10
-15
-14
-11
-13
-13
-14
-15
-14
-16
-19
-22
-25
-24
-24
-25
-20
-23
-25
-23
-23
-26
-28
-26
-26
-26
-25
-20
-20
-20
-23
-25
-22
-25
-20
-17
-20
-21
-25
-27
-26
-23
-26
-27
-23
-23
-19
-21
-21
-19
-18
-22
-21
-22
-23
-20
-17
-20
-23
-21
-21
-23
-24
-25
-25
-26
-25
-29
-27
-24
-17
-21
-27
-22
-21
-28
-23
-26
-31
-30
-27
-31
-28
-25
-23
-19
-9
-11
-15
-16
-17
-17
-18
-12
-11
-9
-5
-14
-11
-12
-11
-10
-9
-9
-10
-13
-14
-16
-15
-20
-22
-22
-22
-25
-25
-25
-27
-28
-27
-24
-27
-31
-29
-27
-24
-27
-23
-27
-24
-25
-24
-23
-22
-18
-15
-10
1
17
36
57
83
97
114
125
120
122
121
119
99
56
16
-22
-66
-96
-129
-152
-148
-137
-123
-107
-89
-82
-76
-74
-71
-67
-60
-55
-49
-43
-45
-43
-40
-40
-42
-32
-22
-25
-25
-24
-24
-21
-21
-20
-19
-17
-18
-17
-18
-17
-16
-19
-16
-19
-19
-15
-15
-17
-13
-17
-21
-21
-16
-16
-18
-15
-11
-7
-7
-10
-10
-7
-7
-6
-7
1
-1
-3
3
5
5
3
0
-1
-1
4
2
3
4
4
3
7
11
7
5
10
10
6
7
9
12
17
13
9
12
15
16
11
14
11
9
8
7
3
-2
4
11
8
5
6
5
7
6
3
3
5
0
-1
2
1
0
0
-1
-2
-7
-5
-9
-11
-12
-14
-15
-13
-12
-16
-15
-14
-15
-18
-17
-16
-20
-18
-19
-22
-17
-19
-23
-20
-18
-13
-11
-10
-18
-17
-14
-12
-11
-10
-9
-10
-12
-9
-10
-12
-13
-16
-14
-16
-16
-15
-14
-10
-12
-17
-18
-17
-13
-12
-10
-11
-15
-16
-15
-19
-18
-15
-18
-12
-11
-13
-13
-13
-14
-16
-16
-15
-16
-18
-15
-15
-12
-13
-14
-12
-7
-1
-6
-11
-10
-7
-1
-1
-2
-11
-5
-7
-10
-10
-3
-5
-7
-4
-4
-5
-8
-12
-15
-12
-16
-20
-19
-16
-19
-20
-19
-23
-19
-23
-25
-24
-22
-18
-19
-20
-14
-17
-18
-14
-11
-14
-12
-9
3
19
38
53
68
88
102
109
118
120
118
115
106
75
34
-3
-42
-85
-121
-142
-148
-139
-123
-106
-90
-76
-74
-61
-58
-58
-59
-55
-44
-44
-40
-37
-35
-32
-27
-23
-23
-22
-24
-20
-20
-18
-20
-22
-19
-18
-20
-19
-17
-18
-17
-14
-16
-16
-17
-13
-13
-16
-12
-13
-13
-16
-12
-8
-9
-12
-10
-9
-7
-10
-9
-3
-9
-5
-2
3
-3
-2
0
1
0
3
2
2
5
5
10
11
11
11
11
14
13
12
13
10
10
13
15
11
15
13
9
13
17
11
7
13
14
11
13
13
6
3
7
6
5
6
2
5
3
3
1
0
-1
-1
1
7
3
0
2
-4
-5
-5
-8
-9
-8
-8
-5
-6
-5
-6
-11
-13
-12
-14
-17
-12
-12
-17
-15
-17
-16
-20
-19
-14
-16
-16
-16
-18
-17
-18
-23
-22
-11
-11
-14
-9
-9
-8
-10
-9
-12
-14
-12
-15
-16
-13
-15
-11
-14
-17
-13
-13
-10
-8
-8
-10
-11
-12
-12
-15
-14
-13
-11
-12
-11
-11
-10
-10
-11
-15
-17
-14
-15
-20
-20
-12
-13
-10
-8
-10
-8
-1
-9
-12
-12
-8
-4
-7
-10
-13
-10
-5
1
0
-3
1
1
-1
-1
-6
-13
-14
-14
-15
-21
-25
-19
-18
-21
-21
-20
-19
-20
-18
-21
-22
-23
-21
-21
-23
-22
-22
-23
-21
-15
-14
-16
-14
-6
3
19
35
49
66
90
102
110
115
118
118
115
93
49
6
-27
-64
-96
-129
-146
-139
-134
-117
-101
-81
-73
-71
-69
-63
-63
-55
-52
-47
-45
-42
-37
-37
-34
-31
-27
-28
-28
-30
-24
-26
-25
-27
-29
-28
-27
-28
-24
-23
-26
-24
-21
-20
-21
-24
-16
-16
-19
-19
-19
-20
-21
-21
-20
-18
-19
-21
-20
-20
-18
-13
-8
-10
-10
-3
-5
-6
-5
-7
-10
-10
-8
-8
-3
-2
-3
-9
-1
-1
-3
2
3
0
2
6
7
6
4
-1
-3
2
3
0
-1
2
3
2
4
4
0
-1
-3
-1
-3
-2
-6
-8
-4
-4
-9
-8
-7
-8
-5
-5
-7
-10
-12
-14
-16
-17
-11
-11
-11
-14
-15
-16
-16
-23
-24
-23
-23
-27
-27
-27
-29
-29
-27
-27
-29
-28
-24
-24
-27
-28
-32
-33
-26
-25
-28
-26
-26
-24
-27
-25
-27
-30
-29
-30
-30
-26
-30
-30
-28
-32
-31
-28
-23
-24
-24
-22
-28
-30
-28
-30
-31
-27
-29
-29
-28
-25
-29
-32
-33
-30
-31
-33
-30
-27
-29
-31
-31
-32
-33
-33
-31
-26
-26
-26
-22
-19
-23
-24
-26
-28
-28
-23
-19
-19
-21
-20
-20
-20
-22
-20
-17
-18
-22
-26
-31
-30
-35
-34
-28
-34
-40
-39
-45
-41
-39
-35
-37
-37
-38
-39
-36
-37
-35
-36
-36
-33
-39
-44
-43
-42
-40
-38
-38
-28
-20
1
15
27
48
67
82
93
89
93
98
94
77
37
2
-33
-74
-106
-140
-163
-158
-147
-131
-113
-99
-94
-92
-91
-90
-86
-82
-72
-65
-62
-60
-62
-59
-54
-53
-50
-44
-44
-45
-45
-43
-45
-45
-43
-42
-49
-47
-41
-35
-36
-38
-40
-35
-37
-41
-40
-40
-37
-41
-38
-38
-37
-37
-34
-36
-36
-32
-32
-34
-36
-36
-35
-38
-38
-35
-37
-28
-27
-29
-27
-24
-24
-24
-23
-22
-23
-23
-27
-21
-18
-22
-17
-18
-19
-19
-19
-15
-13
-15
-15
-13
-14
-18
-21
-17
-14
-13
-13
-15
-23
-21
-20
-19
-20
-19
-21
-19
-22
-24
-25
-24
-27
-23
-26
-25
-21
-22
-26
-28
-28
-31
-34
-33
-35
-32
-32
-33
-34
-33
-37
-44
-41
-42
-45
-47
-46
-51
-50
-39
-36
-38
-42
-42
-42
-43
-43
-42
-40
-39
-39
-42
-46
-50
-45
-43
-43
-44
-46
-41
-38
-40
-40
-39
-43
-40
-41
-44
-49
-46
-43
-43
-44
-44
-42
-45
-44
-43
-45
-41
-44
-43
-45
-37
-38
-40
-40
-43
-44
-39
-43
-45
-43
-45
-46
-46
-47
-44
-42
-41
-41
-43
-34
-27
-31
-37
-37
-41
-32
-29
-29
-26
-28
-30
-31
-30
-30
-31
-36
-33
-33
-38
-39
-39
-40
-41
-40
-41
-43
-44
-49
-54
-48
-45
-49
-49
-47
-48
-52
-53
-51
-54
-52
-53
-55
-55
-50
-50
-46
-42
-36
-34
-20
0
11
28
55
72
81
87
84
87
84
68
35
-1
-37
-79
-113
-143
-168
-169
-161
-147
-133
-117
-106
-101
-98
-94
-94
-91
-84
-76
-71
-67
-67
-67
-62
-60
-60
-61
-57
-57
-56
-55
-54
-52
-49
-48
-50
-51
-47
-46
-48
-42
-46
-48
-47
-47
-47
-44
-48
-48
-43
-42
-41
-43
-46
-41
-40
-40
-42
-39
-35
-34
-37
-38
-37
-37
-38
-34
-31
-32
-32
-29
-29
-32
-28
-28
-33
-29
-26
-30
-29
-25
-20
-16
-17
-21
-22
-21
-17
-18
-25
-20
-19
-21
-19
-22
-17
-17
-21
-27
-22
-20
-21
-24
-22
-23
-27
-27
-26
-27
-31
-26
-20
-21
-23
-23
-26
-27
-27
-29
-30
-30
-33
-35
-35
-36
-40
-45
-43
-42
-39
-39
-40
-44
-43
-44
-46
-47
-44
-43
-45
-43
-48
-48
-49
-48
-49
-50
-44
-45
-50
-45
-39
-41
-44
-47
-48
-43
-42
-45
-45
-44
-45
-45
-39
-44
-45
-44
-44
-52
-51
-43
-41
-44
-40
-45
-41
-40
-40
-44
-43
-44
-46
-44
-43
-44
-47
-47
-49
-51
-47
-39
-42
-46
-45
-44
-46
-43
-42
-41
-40
-41
-41
-37
-39
-47
-41
-33
-32
-33
-33
-30
-33
-35
-34
-33
-32
-31
-31
-30
-32
-37
-36
-43
-46
-46
-46
-47
-48
-51
-49
-50
-46
-45
-50
-57
-55
-48
-50
-51
-48
-48
-48
-53
-52
-54
-50
-44
-44
-43
-42
-40
-30
-10
8
21
40
61
74
76
78
87
96
93
64
24
-9
-45
-85
-117
-142
-161
-157
-144
-130
-117
-105
-102
-99
-98
-95
-89
-84
-77
-75
-68
-66
-64
-59
-58
-51
-57
-53
-49
-51
-53
-51
-50
-50
-47
-47
-50
-48
-50
-51
-49
-46
-42
-43
-44
-46
-44
-45
-43
-42
-44
-36
-41
-42
-47
-42
-44
-44
-40
-36
-40
-38
-37
-36
-33
-33
-34
-32
-27
-29
-29
-29
-28
-27
-25
-21
-25
-26
-25
-27
-25
-19
-20
-22
-22
-19
-12
-13
-15
-16
-18
-21
-19
-19
-14
-17
-18
-14
-16
-21
-22
-20
-21
-24
-21
-25
-27
-26
-29
-35
-25
-16
-19
-23
-22
-22
-25
-27
-22
-28
-30
-29
-30
-33
-30
-32
-37
-36
-39
-42
-43
-36
-38
-41
-36
-37
-38
-38
-37
-41
-39
-40
-42
-43
-44
-43
-44
-41
-40
-42
-41
-41
-43
-45
-44
-39
-39
-40
-41
-41
-41
-39
-38
-37
-38
-41
-39
-40
-41
-39
-40
-38
-38
-37
-35
-34
-39
-39
-39
-40
-39
-41
-39
-39
-34
-37
-40
-40
-42
-41
-44
-46
-48
-46
-43
-50
-46
-41
-39
-34
-33
-30
-34
-31
-31
-31
-30
-32
-36
-34
-29
-27
-28
-29
-30
-35
-34
-26
-24
-24
-23
-25
-27
-23
-29
-34
-37
-39
-44
-46
-42
-41
-44
-41
-43
-45
-47
-48
-49
-50
-43
-44
-47
-44
-44
-41
-43
-41
-42
-41
-40
-43
-44
-36
-20
-3
20
41
63
80
94
95
96
103
103
96
65
28
-10
-48
-82
-114
-143
-153
-148
-135
-119
-101
-94
-93
-90
-87
-84
-79
-77
-72
-66
-65
-66
-58
-49
-49
-45
-43
-47
-46
-44
-45
-45
-37
-40
-42
-44
-40
-38
-39
-40
-43
-41
-36
-39
-39
-36
-36
-36
-34
-29
-34
-40
-34
-32
-28
-30
-31
-30
-28
-26
-25
-25
-28
-29
-30
-27
-26
-24
-24
-13
-19
-22
-20
-17
-19
-18
-16
-18
-14
-15
-12
-15
-10
-5
-13
-13
-11
-8
-10
-10
-12
-9
-7
-10
-11
-14
-11
-12
-17
-14
-9
-10
-13
-13
-14
-12
-12
-14
-12
-14
-14
-13
-11
-15
-15
-15
-14
-19
-22
-23
-25
-23
-24
-24
-26
-22
-23
-26
-25
-31
-31
-32
-31
-32
-33
-32
-32
-32
-30
-30
-33
-37
-36
-34
-44
-36
-33
-33
-30
-30
-33
-33
-31
-30
-33
-31
-34
-37
-35
-36
-37
-36
-31
-31
-27
-28
-29
-34
-33
-32
-33
-34
-31
-34
-35
-33
-31
-36
-35
-37
-37
-38
-34
-29
-34
-26
-28
-29
-27
-31
-33
-33
-39
-38
-39
-38
-37
-43
-40
-42
-40
-38
-33
-24
-22
-26
-32
-31
-24
-23
-23
-19
-19
-22
-19
-21
-23
-25
-20
-22
-22
-23
-19
-21
-25
-23
-25
-32
-35
-38
-44
-45
-38
-42
-42
-39
-39
-37
-40
-40
-43
-43
-39
-38
-39
-39
-37
-36
-38
-36
-36
-39
-38
-36
-26
-7
12
29
54
76
89
99
107
104
111
114
99
60
21
-14
-66
-102
-133
-166
-162
-156
-142
-126
-108
-99
-100
-98
-92
-86
-72
-72
-73
-69
-63
-63
-62
-55
-52
-47
-42
-45
-40
-45
-45
-46
-45
-37
-35
-36
-35
-40
-37
-34
-35
-39
-39
-36
-33
-39
-35
-33
-34
-25
-27
-31
-28
-28
-31
-31
-27
-24
-28
-24
-26
-30
-26
-23
-24
-24
-23
-18
-16
-13
-16
-15
-14
-15
-18
-18
-12
-12
-10
-9
-9
-8
-10
-11
-10
-8
-10
-8
-8
-1
-4
-7
-3
-3
-9
-11
-9
-13
-15
-16
-8
-9
-8
-6
-6
-9
-8
-10
-6
-8
-10
-13
-13
-14
-17
-12
-13
-15
-14
-17
-22
-18
-16
-20
-25
-23
-22
-26
-23
-21
-26
-26
-26
-28
-31
-29
-26
-30
-30
-31
-29
-25
-29
-33
-37
-35
-35
-37
-38
-32
-39
-34
-30
-34
-36
-26
-24
-25
-27
-26
-27
-32
-36
-32
-33
-31
-27
-30
-26
-26
-31
-34
-33
-36
-31
-32
-24
-23
-27
-28
-26
-29
-27
-25
-30
-29
-30
-33
-35
-35
-38
-33
-30
-32
-35
-35
-27
-26
-22
-21
-22
-18
-17
-19
-23
-22
-27
-27
-24
-22
-25
-21
-22
-27
-18
-15
-22
-18
-16
-16
-18
-21
-27
-27
-33
-32
-37
-38
-37
-30
-31
-32
-32
-33
-37
-36
-36
-37
-32
-38
-39
-37
-36
-38
-42
-41
-33
-28
-33
-34
-28
-18
1
19
34
56
77
91
105
112
107
108
111
98
56
15
-23
-66
-103
-137
-163
-162
-151
-143
-127
-109
-96
-95
-92
-88
-80
-73
-71
-69
-61
-56
-58
-56
-50
-48
-49
-44
-49
-43
-42
-39
-40
-38
-40
-37
-40
-32
-31
-38
-38
-38
-39
-34
-30
-34
-28
-28
-32
-33
-34
-31
-32
-31
-31
-32
-30
-27
-22
-23
-20
-26
-31
-23
-24
-25
-25
-19
-18
-19
-15
-14
-14
-16
-17
-19
-15
-20
-16
-18
-13
-12
-8
-7
-3
-10
-9
-5
-4
-4
-2
-2
-5
-5
-8
-11
-8
-12
-11
-12
-9
-11
-8
-5
-7
-11
-16
-15
-17
-21
-14
-15
-11
-3
-12
-16
-16
-15
-16
-18
-22
-23
-26
-22
-21
-22
-21
-23
-25
-31
-28
-28
-34
-33
-36
-38
-35
-38
-35
-34
-32
-33
-30
-29
-33
-35
-34
-33
-34
-34
-32
-33
-33
-37
-36
-34
-38
-41
-41
-38
-35
-24
-19
-24
-30
-28
-30
-35
-33
-31
-34
-32
-29
-30
-31
-33
-32
-30
-36
-27
-26
-29
-27
-28
-31
-31
-32
-31
-37
-36
-33
-31
-34
-33
-36
-35
-31
-31
-32
-26
-24
-23
-24
-25
-28
-28
-31
-31
-30
-20
-20
-19
-25
-27
-27
-25
-21
-21
-26
-24
-28
-31
-28
-29
-32
-33
-33
-33
-37
-34
-33
-35
-38
-38
-40
-38
-37
-40
-40
-36
-39
-37
-35
-36
-36
-34
-29
-35
-32
-31
-30
-12
8
27
39
63
85
100
107
108
102
106
101
73
26
-6
-42
-82
-116
-144
-165
-164
-147
-131
-112
-93
-90
-87
-86
-80
-78
-75
-69
-63
-65
-60
-55
-50
-49
-44
-46
-43
-41
-38
-43
-40
-41
-42
-42
-38
-39
-35
-29
-32
-37
-34
-38
-37
-33
-36
-37
-31
-32
-35
-31
-29
-32
-31
-31
-29
-29
-28
-31
-28
-23
-22
-24
-23
-21
-22
-22
-24
-23
-22
-20
-16
-15
-16
-16
-15
-18
-18
-18
-14
-10
-11
-9
-2
-2
-7
-6
-4
-5
-6
-4
-5
-4
-3
-6
-9
-7
-8
-4
-8
-14
-14
-15
-15
-16
-9
-10
-9
-7
-11
-14
-16
-16
-20
-25
-19
-21
-19
-20
-23
-17
-16
-18
-25
-26
-27
-29
-33
-31
-34
-32
-27
-26
-31
-28
-30
-33
-33
-31
-37
-36
-38
-39
-36
-37
-37
-37
-31
-32
-34
-29
-32
-31
-36
-30
-31
-31
-29
-33
-33
-29
-32
-33
-32
-32
-34
-34
-32
-29
-30
-32
-33
-29
-29
-27
-25
-24
-22
-27
-36
-32
-36
-32
-33
-29
-29
-33
-31
-33
-39
-32
-35
-33
-34
-32
-34
-35
-30
-25
-18
-13
-18
-27
-26
-25
-32
-23
-24
-25
-23
-19
-19
-18
-17
-15
-18
-20
-19
-19
-21
-20
-29
-30
-27
-29
-36
-37
-37
-38
-39
-33
-37
-33
-32
-33
-40
-33
-35
-36
-38
-35
-35
-38
-39
-33
-31
-27
-24
-25
-21
0
13
29
44
68
83
97
100
101
103
111
96
63
26
-11
-49
-84
-115
-143
-151
-141
-127
-115
-94
-83
-81
-79
-76
-77
-74
-66
-62
-57
-53
-55
-46
-44
-41
-34
-36
-35
-35
-35
-34
-34
-33
-31
-33
-38
-38
-39
-34
-31
-29
-28
-28
-28
-28
-27
-23
-25
-27
-28
-27
-26
-28
-26
-24
-27
-26
-23
-25
-23
-18
-19
-22
-19
-20
-19
-15
-11
-11
-12
-11
-14
-14
-16
-15
-16
-10
-9
-9
-8
-6
-3
-2
-2
-6
-9
-5
2
2
3
-1
-1
-3
-2
-1
-3
-2
-4
-4
-7
-3
-7
-11
-10
-8
-8
-3
-4
-9
-7
-10
-14
-9
-9
-11
-14
-11
-10
-13
-17
-16
-15
-17
-22
-24
-24
-22
-21
-20
-23
-26
-25
-24
-23
-24
-24
-25
-29
-34
-28
-26
-24
-27
-24
-26
-26
-24
-30
-30
-27
-28
-32
-34
-30
-26
-27
-22
-21
-23
-20
-23
-24
-21
-21
-23
-19
-23
-24
-28
-28
-25
-20
-21
-22
-25
-24
-22
-24
-24
-24
-22
-20
-16
-20
-25
-22
-23
-25
-24
-23
-24
-24
-26
-28
-26
-23
-28
-29
-29
-25
-24
-24
-23
-21
-19
-16
-19
-21
-21
-17
-18
-16
-10
-19
-21
-11
-11
-13
-10
-7
-10
-11
-13
-10
-11
-19
-22
-28
-33
-25
-30
-29
-24
-28
-29
-30
-30
-29
-29
-33
-29
-26
-28
-28
-29
-27
-26
-28
-27
-24
-24
-22
-22
-19
-8
3
27
35
56
77
92
105
108
109
111
111
87
50
17
-21
-62
-92
-123
-146
-147
-140
-122
-103
-89
-85
-87
-80
-71
-65
-66
-61
-47
-48
-46
-46
-45
-40
-37
-39
-40
-36
-35
-35
-35
-35
-33
-32
-32
-28
-26
-27
-27
-28
-28
-29
-30
-30
-28
-25
-19
-19
-20
-23
-20
-21
-23
-21
-22
-22
-21
-21
-17
-21
-20
-13
-13
-12
-15
-16
-17
-17
-14
-10
-7
-7
-8
-4
-4
-5
-4
-1
-3
-4
-2
5
2
2
1
-2
-3
2
2
3
2
-2
-5
-2
0
-3
-2
4
-1
1
1
-2
-6
-6
-1
-4
-1
0
-1
-6
-10
-8
-8
-9
-8
-8
-9
-6
-9
-9
-8
-9
-8
-10
-17
-20
-19
-18
-21
-20
-21
-22
-22
-22
-27
-28
-22
-26
-25
-31
-26
-24
-21
-20
-22
-26
-26
-23
-26
-27
-25
-22
-19
-18
-23
-24
-21
-22
-23
-22
-22
-27
-22
-22
-24
-22
-23
-23
-21
-27
-19
-16
-18
-20
-19
-20
-20
-21
-21
-22
-27
-24
-23
-21
-26
-25
-19
-12
-18
-25
-23
-22
-25
-24
-28
-23
-21
-26
-29
-24
-23
-22
-21
-18
-15
-15
-16
-14
-21
-20
-22
-18
-13
-12
-13
-9
-13
-14
-14
-13
-17
-14
-8
-9
-15
-11
-13
-20
-22
-26
-25
-28
-27
-31
-32
-31
-30
-36
-32
-29
-32
-32
-32
-31
-36
-33
-24
-24
-32
-29
-26
-27
-24
-21
-21
-14
-7
9
27
43
67
91
104
108
110
110
114
103
76
33
-2
-39
-73
-104
-135
-146
-140
-128
-113
-96
-84
-84
-85
-84
-79
-68
-68
-61
-50
-46
-48
-45
-43
-45
-46
-40
-36
-39
-32
-27
-26
-27
-27
-28
-30
-27
-30
-29
-24
-25
-27
-26
-23
-24
-28
-28
-28
-23
-19
-20
-21
-18
-19
-26
-23
-21
-19
-22
-18
-17
-18
-16
-14
-17
-13
-9
-10
-15
-10
-14
-11
-8
-9
-8
-3
-6
-9
-9
-2
1
0
0
4
3
1
2
3
4
7
5
2
6
8
4
3
-1
-4
2
2
2
1
1
-1
-1
1
-5
-4
0
1
0
-1
-4
-5
-1
-2
-3
-2
-6
-6
-8
-14
-10
-15
-9
-10
-14
-15
-17
-17
-21
-21
-24
-21
-25
-18
-19
-21
-28
-22
-21
-22
-20
-20
-21
-20
-20
-21
-20
-21
-23
-21
-20
-21
-16
-18
-18
-20
-20
-18
-19
-18
-18
-19
-22
-18
-17
-15
-19
-23
-23
-20
-15
-17
-19
-18
-21
-22
-23
-23
-23
-17
-21
-21
-20
-22
-26
-25
-17
-17
-21
-19
-20
-21
-23
-24
-24
-21
-22
-25
-35
-31
-18
-21
-24
-19
-20
-23
-21
-21
-18
-13
-10
-13
-15
-15
-16
-15
-9
-9
-8
-7
-8
-10
-11
-9
-10
-12
-9
-6
-8
-11
-11
-15
-18
-23
-24
-27
-27
-32
-28
-29
-30
-26
-24
-21
-21
-23
-24
-28
-27
-27
-26
-23
-22
-25
-24
-21
-20
-22
-16
-7
4
18
40
53
71
88
107
112
115
119
124
121
96
57
19
-17
-56
-91
-114
-127
-129
-116
-99
-87
-84
-81
-70
-70
-74
-70
-64
-57
-36
-41
-40
-35
-31
-33
-34
-29
-28
-28
-27
-29
-30
-30
-26
-25
-17
-17
-22
-24
-20
-21
-20
-19
-15
-18
-18
-17
-18
-19
-21
-19
-18
-20
-18
-20
-19
-18
-19
-16
-12
-14
-10
-6
-8
-12
-11
-11
-8
-7
-6
-7
-4
-2
-1
-3
-5
2
4
3
6
6
7
10
5
5
2
1
2
3
7
8
4
8
11
10
9
9
6
3
4
0
1
0
0
-2
1
0
0
0
0
6
4
4
2
0
-1
-2
-7
-1
0
-4
-8
-8
-9
-12
-12
-12
-17
-18
-10
-13
-12
-11
-16
-17
-18
-17
-18
-18
-13
-16
-22
-19
-18
-18
-20
-19
-18
-19
-19
-18
-15
-15
-18
-21
-18
-19
-23
-21
-18
-20
-18
-19
-21
-16
-15
-18
-21
-24
-20
-18
-18
-13
-17
-17
-14
-16
-18
-20
-19
-22
-21
-19
-18
-19
-15
-16
-18
-16
-15
-15
-14
-17
-14
-17
-20
-20
-25
-22
-23
-26
-20
-16
-20
-23
-23
-25
-24
-19
-19
-16
-15
-10
-9
-10
-10
-14
-15
-9
-6
-5
-6
-8
-12
-10
-8
-9
-9
-6
-5
-7
-10
-6
-10
-12
-14
-21
-22
-22
-22
-24
-21
-23
-19
-23
-24
-25
-23
-23
-22
-23
-26
-23
-24
-20
-18
-25
-22
-17
-19
-19
-13
-2
9
27
46
57
86
102
113
115
119
126
133
121
91
48
11
-34
-65
-99
-121
-135
-130
-117
-102
-86
-74
-75
-77
-70
-60
-60
-55
-46
-43
-43
-43
-39
-38
-35
-28
-26
-29
-24
-26
-27
-25
-26
-25
-30
-21
-19
-19
-18
-19
-19
-17
-10
-12
-14
-14
-17
-15
-19
-19
-20
-14
-15
-20
-14
-9
-15
-11
-7
-8
-8
-7
-6
-5
-6
-5
-5
-5
-5
-1
-2
-3
-1
-2
-1
2
6
3
6
8
6
9
7
8
9
14
6
9
9
7
4
11
17
15
12
14
14
11
12
12
10
9
12
11
11
9
3
3
2
3
8
7
5
3
4
4
1
1
2
-1
-1
-1
-2
-6
-7
-8
-7
-7
-9
-13
-12
-13
-17
-17
-16
-14
-15
-13
-15
-15
-19
-16
-14
-16
-15
-17
-16
-14
-15
-20
-18
-18
-19
-19
-16
-17
-18
-16
-16
-21
-15
-17
-19
-17
-15
-15
-16
-17
-16
-17
-15
-16
-15
-21
-17
-17
-20
-17
-18
-22
-20
-22
-23
-23
-23
-19
-18
-21
-20
-20
-15
-16
-19
-20
-22
-22
-17
-20
-18
-23
-18
-15
-23
-24
-21
-26
-28
-26
-24
-25
-23
-17
-19
-18
-14
-16
-16
-20
-19
-13
-10
-8
-8
-9
-10
-17
-16
-14
-15
-11
-9
-6
-10
-18
-14
-19
-18
-18
-22
-21
-26
-26
-26
-27
-29
-30
-26
-21
-25
-29
-29
-29
-30
-29
-27
-30
-31
-29
-34
-27
-25
-22
-16
-11
-2
14
34
48
63
88
106
115
120
120
121
124
106
69
26
-7
-52
-93
-129
-151
-156
-153
-135
-117
-104
-94
-87
-85
-85
-77
-70
-69
-65
-52
-48
-44
-41
-47
-44
-42
-34
-35
-30
-28
-31
-29
-30
-28
-28
-28
-29
-31
-28
-25
-24
-27
-26
-26
-26
-27
-25
-20
-20
-21
-27
-24
-19
-16
-15
-17
-19
-17
-15
-15
-15
-14
-15
-14
-13
-8
-10
-8
-8
-9
-9
-4
-4
-10
-14
-10
-9
-4
-2
-3
1
0
2
-1
2
4
2
4
4
3
0
0
4
6
6
4
2
2
2
-3
-5
-2
-2
-2
1
3
-1
1
1
-1
-2
1
-2
-2
-4
-1
-7
-8
-8
-9
-10
-9
-14
-14
-14
-14
-17
-19
-20
-22
-23
-24
-25
-28
-30
-31
-27
-29
-26
-23
-24
-23
-26
-24
-23
-24
-26
-22
-24
-26
-27
-26
-32
-33
-27
-27
-29
-28
-26
-28
-32
-28
-31
-30
-24
-25
-27
-27
-26
-26
-27
-24
-26
-27
-23
-27
-25
-23
-23
-23
-25
-26
-26
-31
-27
-27
-32
-31
-33
-31
-28
-29
-30
-25
-24
-28
-30
-28
-27
-30
-32
-31
-31
-30
-30
-28
-25
-23
-25
-30
-26
-25
-30
-35
-28
-25
-20
-19
-18
-23
-24
-24
-24
-20
-19
-19
-16
-18
-17
-15
-20
-26
-32
-32
-34
-37
-40
-37
-41
-40
-38
-38
-42
-42
-37
-36
-39
-41
-41
-42
-38
-35
-33
-32
-28
-31
-28
-23
-22
-13
5
21
35
55
72
88
100
104
108
112
119
104
60
20
-16
-61
-98
-133
-160
-165
-154
-140
-124
-103
-91
-88
-84
-84
-85
-78
-71
-68
-64
-57
-54
-55
-52
-49
-45
-41
-41
-42
-49
-43
-44
-43
-36
-35
-37
-36
-35
-37
-37
-38
-35
-33
-36
-36
-33
-33
-33
-34
-35
-32
-32
-33
-30
-31
-36
-32
-34
-35
-32
-25
-21
-23
-27
-27
-29
-23
-22
-18
-21
-16
-15
-16
-19
-18
-14
-10
-9
-14
-13
-8
-8
-7
-5
-6
-11
-7
-7
-8
-7
-5
-7
-8
-8
-8
-12
-11
-11
-17
-14
-9
-13
-16
-16
-16
-18
-14
-18
-22
-13
-15
-15
-19
-20
-17
-21
-22
-21
-22
-21
-25
-28
-25
-27
-34
-32
-33
-33
-31
-33
-32
-30
-30
-33
-34
-31
-32
-34
-34
-38
-38
-39
-37
-36
-38
-40
-36
-36
-42
-42
-41
-39
-40
-40
-38
-37
-36
-35
-39
-39
-33
-36
-40
-39
-38
-35
-33
-33
-36
-36
-38
-40
-40
-42
-42
-34
-29
-28
-32
-36
-34
-36
-35
-36
-38
-35
-34
-36
-39
-37
-35
-37
-37
-39
-38
-36
-37
-39
-43
-36
-37
-40
-36
-36
-40
-41
-35
-32
-30
-27
-32
-38
-37
-30
-28
-26
-28
-32
-33
-25
-28
-27
-27
-29
-26
-29
-29
-30
-33
-38
-40
-42
-43
-45
-45
-39
-43
-42
-41
-40
-44
-43
-42
-42
-46
-42
-40
-38
-39
-40
-41
-42
-40
-37
-38
-35
-27
-17
-8
8
26
42
67
79
91
101
101
102
106
92
51
10
-21
-67
-101
-135
-161
-165
-156
-140
-125
-107
-98
-95
-87
-84
-83
-82
-75
-69
-65
-65
-55
-53
-54
-51
-52
-51
-44
-46
-43
-43
-43
-46
-45
-41
-42
-42
-41
-40
-38
-36
-35
-38
-39
-39
-39
-37
-37
-39
-39
-39
-36
-36
-34
-31
-33
-36
-35
-35
-35
-35
-34
-36
-33
-28
-28
-26
-24
-25
-25
-20
-22
-22
-18
-17
-15
-16
-16
-18
-17
-18
-17
-20
-16
-13
-11
-7
-5
-8
-11
-9
-9
-8
-10
-11
-8
-8
-9
-10
-13
-15
-14
-19
-18
-18
-16
-13
-15
-21
-21
-21
-20
-22
-23
-23
-23
-26
-23
-25
-25
-26
-31
-26
-25
-28
-34
-40
-36
-37
-37
-34
-33
-37
-38
-40
-43
-40
-37
-37
-39
-41
-42
-45
-40
-44
-41
-35
-34
-34
-37
-34
-35
-40
-38
-38
-39
-38
-39
-39
-37
-37
-38
-38
-40
-37
-41
-41
-39
-35
-35
-33
-29
-30
-32
-37
-34
-34
-36
-37
-41
-36
-33
-36
-39
-37
-37
-36
-38
-42
-38
-35
-38
-42
-41
-38
-39
-35
-35
-39
-44
-41
-41
-37
-38
-37
-34
-32
-32
-29
-28
-30
-33
-31
-27
-27
-28
-28
-30
-29
-29
-28
-24
-19
-17
-23
-28
-27
-28
-33
-35
-35
-42
-42
-41
-44
-50
-49
-43
-40
-38
-40
-38
-39
-38
-43
-46
-41
-41
-43
-43
-43
-44
-39
-37
-36
-29
-21
-14
2
15
27
52
68
88
94
94
102
108
100
76
36
-1
-35
-75
-113
-145
-161
-164
-150
-121
-101
-96
-89
-85
-87
-78
-77
-73
-69
-64
-62
-61
-55
-53
-50
-48
-42
-42
-47
-47
-44
-46
-41
-35
-41
-39
-39
-40
-40
-40
-40
-38
-36
-40
-38
-38
-35
-35
-32
-28
-34
-36
-29
-33
-35
-33
-28
-27
-27
-25
-28
-25
-26
-26
-30
-25
-25
-24
-23
-22
-21
-16
-15
-16
-17
-14
-11
-15
-17
-14
-14
-12
-12
-11
-7
-6
-9
-6
-6
-2
-4
-5
-10
-10
-13
-13
-4
-1
-3
-3
-8
-13
-14
-18
-18
-13
-13
-17
-16
-9
-12
-14
-15
-18
-18
-16
-20
-20
-20
-15
-23
-29
-20
-20
-24
-22
-22
-25
-30
-29
-31
-29
-31
-35
-32
-32
-36
-33
-33
-34
-38
-36
-31
-32
-34
-32
-34
-33
-31
-34
-35
-37
-37
-46
-37
-36
-34
-28
-26
-29
-34
-30
-31
-35
-35
-32
-35
-35
-33
-34
-33
-29
-31
-28
-28
-30
-32
-33
-30
-34
-33
-30
-26
-30
-35
-34
-32
-35
-31
-33
-33
-31
-31
-33
-32
-37
-38
-38
-36
-35
-38
-36
-38
-35
-32
-30
-30
-28
-24
-25
-28
-29
-29
-24
-23
-24
-21
-20
-22
-27
-25
-29
-28
-26
-21
-21
-17
-18
-20
-27
-27
-29
-32
-35
-40
-40
-42
-45
-39
-41
-41
-40
-37
-37
-35
-36
-36
-40
-36
-37
-37
-37
-37
-36
-30
-32
-30
-24
-15
0
19
32
49
70
88
96
95
99
105
101
78
38
-2
-36
-78
-109
-134
-152
-154
-148
-128
-112
