34
36
35
36
36
36
35
37
36
35
38
38
36
35
37
35
38
31
34
35
35
34
33
32
31
31
34
33
32
34
35
31
35
33
33
32
33
33
34
31
34
33
34
35
36
35
36
33
32
32
34
32
33
30
31
35
33
33
33
33
32
34
33
32
33
32
32
34
35
33
34
31
29
29
30
28
28
30
31
34
30
28
30
31
30
32
35
34
32
30
32
32
32
32
35
38
35
35
37
37
36
37
38
35
35
34
38
40
37
40
40
43
45
48
47
44
42
44
44
44
43
46
41
38
34
35
33
32
33
31
31
31
30
30
27
29
26
27
28
25
23
24
27
28
25
25
27
27
25
25
23
24
25
23
23
24
25
23
21
22
21
22
19
21
17
15
9
0
-7
-14
-22
-24
-23
-16
-7
13
42
72
100
133
162
190
219
246
241
229
214
204
181
166
143
111
88
74
67
60
51
46
39
33
25
23
20
19
18
16
14
14
14
14
12
11
11
10
12
11
12
10
7
8
5
8
8
7
7
8
12
9
9
10
7
7
6
8
6
7
7
5
10
8
9
9
9
7
8
9
9
6
10
8
7
7
9
12
14
15
12
13
13
11
9
8
10
14
15
16
13
13
15
15
16
16
17
17
17
17
21
21
23
23
24
28
27
29
28
29
31
33
33
35
36
36
38
39
41
41
42
43
41
44
45
47
46
45
46
48
48
48
48
48
46
45
45
44
45
45
41
40
40
39
37
34
33
32
30
30
27
26
25
24
23
23
21
20
22
21
20
16
16
18
16
16
17
18
19
14
15
16
17
14
12
12
14
17
18
18
16
17
19
17
17
14
13
18
16
16
16
15
15
14
13
12
15
15
14
14
17
17
15
16
15
15
15
15
16
15
15
17
15
14
13
14
14
16
18
16
17
19
18
16
14
15
17
16
18
19
19
19
17
16
18
18
18
18
16
17
16
16
16
16
16
16
19
20
19
21
19
20
17
16
16
20
18
18
20
20
18
17
18
16
15
16
15
20
18
18
17
18
18
18
16
16
16
16
18
17
18
19
20
18
20
21
19
19
19
19
21
21
20
20
22
22
22
24
25
24
24
24
24
27
29
30
29
32
32
33
31
32
34
34
32
32
30
29
29
28
24
22
20
19
18
17
17
17
18
19
19
18
20
19
19
19
17
16
18
16
17
17
18
18
17
19
20
17
16
14
15
16
17
15
17
19
17
17
17
15
12
4
-3
-10
-16
-24
-27
-25
-24
-14
6
33
61
98
137
170
199
228
247
261
251
235
223
203
185
166
139
113
95
85
73
65
57
50
44
37
33
28
31
29
26
26
23
23
21
20
20
20
20
22
23
17
16
15
17
16
19
19
19
17
19
19
18
16
16
17
19
18
18
20
23
20
20
19
19
20
18
18
19
19
21
22
22
22
21
22
22
22
21
22
21
19
20
23
24
25
24
26
22
23
24
24
24
26
28
27
27
29
30
29
29
32
32
34
34
35
36
37
37
40
40
43
44
44
48
48
47
49
48
50
49
52
50
53
54
55
58
58
59
57
57
56
55
56
58
61
59
57
57
57
55
53
52
51
49
48
46
46
42
43
40
37
39
38
36
35
31
32
34
29
28
28
26
29
28
26
28
27
25
27
24
25
26
27
26
27
27
28
26
26
24
25
24
25
25
29
29
26
24
27
27
29
28
27
27
28
26
27
26
27
26
26
26
25
25
27
29
28
27
28
26
25
25
26
28
28
25
26
24
22
23
25
24
26
26
25
25
25
28
25
27
25
25
24
28
30
27
26
28
28
25
29
28
27
28
27
28
27
28
27
29
27
26
26
28
25
27
27
26
27
26
28
26
27
27
27
23
25
27
29
32
29
30
32
31
29
28
26
28
29
27
26
26
26
28
28
27
27
28
26
27
25
28
32
33
31
30
31
30
31
31
32
32
31
35
39
39
37
40
39
38
41
41
44
46
47
50
50
52
52
53
52
51
52
52
54
50
49
46
44
42
43
41
43
46
44
42
45
44
43
42
43
44
45
44
45
48
46
46
46
46
45
44
44
44
45
47
47
46
47
49
49
51
51
50
50
50
49
47
41
37
30
24
20
10
7
10
14
27
45
77
110
149
187
218
250
277
297
304
291
276
260
241
225
204
174
148
134
125
113
103
93
85
80
73
72
70
70
69
67
63
63
61
59
61
63
59
62
61
58
58
58
59
58
61
60
62
63
61
59
59
58
59
60
63
65
65
62
62
59
62
63
65
65
64
64
63
64
64
63
64
64
66
66
68
67
68
68
67
68
67
69
69
71
72
72
72
72
72
71
74
74
74
75
80
79
79
79
81
79
80
81
82
83
83
84
86
88
90
92
92
94
96
97
99
100
100
102
105
106
107
106
109
111
113
113
113
116
112
112
112
113
110
114
115
114
113
113
113
112
109
108
108
108
108
106
105
103
101
99
96
95
95
95
95
94
92
89
86
87
87
89
90
87
89
86
87
87
86
83
83
83
83
86
91
90
88
88
91
91
91
89
90
90
86
87
85
88
86
87
87
87
89
88
92
89
90
89
92
89
88
92
92
90
91
89
90
90
91
89
89
87
87
87
87
89
89
88
89
91
91
93
94
94
97
95
94
93
91
92
91
92
95
95
95
93
95
93
96
96
95
96
97
96
95
97
99
96
96
96
96
97
96
97
96
96
97
96
96
94
93
95
97
99
98
98
99
101
100
98
96
96
98
96
96
97
98
96
95
95
94
99
99
96
95
94
94
95
98
98
98
101
99
96
97
99
98
97
97
95
95
96
97
97
98
100
101
98
101
101
100
100
100
103
103
103
105
104
105
104
104
103
108
111
110
111
112
114
114
113
111
111
112
112
115
115
114
111
110
106
103
102
102
100
101
101
103
102
102
100
102
101
102
103
103
102
101
100
98
99
98
100
101
99
97
96
95
94
95
96
96
98
98
97
95
97
96
96
93
92
87
79
77
70
63
54
52
56
63
74
100
134
168
205
239
269
298
324
342
344
332
319
298
275
259
234
204
184
172
163
151
139
131
122
119
113
110
109
112
112
108
106
104
104
101
101
99
99
97
94
95
97
98
97
97
98
99
98
97
97
95
97
96
96
97
98
97
94
95
95
96
98
101
98
99
99
99
101
98
99
98
99
96
98
97
96
98
98
99
98
98
100
101
103
101
104
103
102
102
102
100
104
102
106
104
102
104
103
108
107
107
108
115
113
114
111
115
116
116
117
120
122
123
124
125
128
126
125
126
130
130
132
131
134
133
132
133
134
136
137
137
138
134
135
136
134
133
130
129
130
128
127
126
126
125
125
121
117
115
116
116
113
115
111
111
106
104
103
99
100
101
100
100
99
99
96
96
96
96
97
94
97
96
97
95
96
95
93
95
97
98
97
96
95
97
97
96
100
96
97
97
93
97
96
96
97
94
94
93
93
94
93
93
91
93
94
93
93
94
98
97
95
95
94
96
95
93
93
93
91
90
91
92
96
92
94
96
94
95
96
94
94
93
93
95
93
92
93
91
92
93
94
91
92
91
92
91
94
93
94
94
93
92
93
94
94
94
95
95
92
94
92
93
96
93
94
92
93
93
92
93
93
93
92
92
93
92
91
90
91
91
91
89
91
92
90
88
88
89
91
91
89
89
91
87
88
87
89
88
91
89
90
90
89
91
88
90
87
85
86
89
90
91
89
91
89
90
94
92
92
88
89
91
96
100
97
99
98
101
101
101
97
93
96
97
92
94
90
91
87
84
86
82
81
81
81
77
75
76
76
78
80
79
75
72
72
72
74
75
72
72
72
71
71
69
70
70
72
70
71
69
71
68
68
69
67
69
65
63
61
57
50
44
36
26
20
17
22
33
49
73
105
133
165
203
233
263
289
307
301
283
266
249
228
210
177
154
133
121
112
105
96
93
85
79
75
75
74
71
76
69
65
65
64
61
62
61
61
61
58
58
57
57
57
57
56
53
55
57
55
57
56
55
56
56
55
54
56
55
53
53
56
53
56
53
57
53
55
56
53
52
51
51
53
51
50
47
50
51
54
55
54
51
50
50
49
48
47
53
48
50
50
54
47
50
53
54
51
53
54
53
56
53
57
57
55
59
56
57
58
60
62
65
61
65
66
67
65
66
73
75
71
71
69
70
72
72
71
73
76
75
73
76
74
75
73
70
70
68
66
66
62
59
57
60
56
53
56
56
53
49
48
47
43
42
45
43
45
42
40
36
36
38
37
33
34
35
35
33
32
33
31
32
32
34
34
33
29
31
33
32
31
30
28
27
28
31
31
30
31
32
32
29
28
33
35
28
26
28
30
29
29
30
29
27
26
26
26
27
25
24
26
26
28
28
27
32
30
31
32
33
31
28
27
26
26
29
30
29
29
27
27
25
27
25
27
26
30
29
28
27
26
26
25
24
23
25
24
26
23
22
25
27
24
23
22
22
19
21
23
22
22
22
21
20
19
20
22
20
19
20
22
23
23
21
23
24
27
25
21
18
21
24
23
19
16
20
23
23
19
18
17
18
18
19
16
18
20
20
20
18
18
13
14
15
18
20
20
23
21
21
18
19
20
18
19
20
23
25
26
25
25
27
27
24
23
24
29
26
26
24
22
22
17
14
15
18
17
10
10
9
8
9
8
10
9
6
7
8
7
5
8
6
9
7
5
5
6
3
3
5
5
2
2
4
5
5
5
6
4
3
2
2
2
-3
-6
-12
-16
-24
-33
-38
-44
-41
-38
-26
-6
27
58
91
122
153
183
210
231
231
215
202
190
172
157
133
100
79
65
58
51
44
33
30
25
19
14
15
11
10
7
5
4
5
4
2
2
3
0
-1
-2
2
2
1
1
2
2
3
1
1
-1
2
1
1
1
1
1
1
2
-1
-1
0
2
2
1
2
4
4
1
0
1
3
1
2
4
4
4
2
5
5
8
6
4
4
4
3
3
3
4
5
5
8
8
10
7
8
10
11
13
13
13
12
11
13
15
17
19
20
21
23
25
23
27
27
26
27
30
31
29
32
34
32
33
38
37
39
38
41
42
41
39
43
40
40
44
43
42
39
35
33
35
35
31
29
28
27
27
25
24
24
21
18
14
15
13
11
11
10
10
8
9
8
7
6
5
5
6
4
3
4
3
5
4
7
3
4
2
0
0
1
2
2
2
2
0
0
1
1
1
5
5
4
2
3
4
2
4
2
2
1
3
3
4
2
0
2
0
2
2
3
4
4
3
3
2
2
3
3
4
2
3
3
3
5
3
4
2
1
1
2
4
3
1
3
3
3
3
3
3
2
1
0
1
1
6
5
3
4
3
4
4
4
3
1
-2
0
-1
4
1
1
2
2
0
2
1
2
4
1
0
-1
0
1
1
1
0
1
0
-3
-2
1
0
0
-1
-1
1
-1
0
0
-1
2
0
-1
1
1
0
1
1
1
2
4
4
2
1
2
3
2
3
4
3
3
4
9
10
10
12
13
15
15
17
13
12
13
11
12
13
13
12
11
11
5
3
2
1
1
2
1
1
0
1
1
-1
-2
-5
-1
-2
-2
-1
-2
-5
-5
-6
-8
-7
-6
-9
-8
-7
-5
-6
-5
-5
-6
-6
-4
-2
-4
-3
-5
-9
-12
-18
-24
-31
-38
-45
-50
-48
-43
-34
-13
18
51
89
123
156
186
216
236
240
228
212
197
176
163
138
107
84
69
59
51
40
33
26
18
14
10
7
7
6
4
2
-1
-1
0
-2
-5
-5
-4
-4
-2
-4
-4
-5
-5
-5
-5
-4
-2
-4
-4
-5
-5
-3
0
-2
-4
-5
-4
-2
-2
-2
-4
-5
-4
-2
-1
-3
-3
-5
-4
-5
-7
-2
0
-1
-2
-5
-1
1
-2
-3
-4
-1
-1
-2
-2
-1
3
2
2
3
3
3
4
4
5
7
9
8
7
8
7
8
9
10
14
14
12
16
18
20
21
22
25
27
26
26
29
31
30
33
34
35
35
36
37
38
36
38
39
38
36
37
37
38
37
37
35
33
33
31
29
29
29
28
25
23
22
20
16
15
13
14
13
10
9
8
9
10
6
4
5
4
3
3
2
2
1
2
3
3
1
0
0
1
2
0
1
-2
-2
-2
-2
1
3
3
3
4
6
2
0
2
0
1
0
2
0
-2
-1
1
0
1
0
0
0
-1
1
0
0
0
-1
-2
-2
0
-2
-1
-1
1
0
-1
0
-1
-1
-5
-8
-5
-3
-1
-1
0
1
0
0
1
0
1
1
0
-2
0
3
-1
-1
1
1
2
1
0
-1
-1
0
1
1
0
2
1
-2
-1
1
-1
-2
-1
0
-3
-2
0
2
1
0
1
-2
-2
-1
1
1
0
0
0
-2
-1
-4
-4
-6
-4
-4
-3
-2
-3
-2
-1
0
-1
-2
-2
-3
-2
-3
-1
-2
-2
-1
-3
-1
0
-1
-1
-1
3
1
1
-1
1
0
1
2
2
3
2
4
5
4
3
4
7
11
12
9
10
12
13
15
15
13
12
14
15
14
13
10
8
5
3
2
0
0
-1
-1
-5
-3
-3
0
-1
1
1
-1
-3
-1
-2
-3
-3
-4
-6
-8
-7
-7
-8
-7
-5
-6
-6
-8
-7
-6
-1
-3
-4
-5
-5
-6
-6
-8
-12
-15
-22
-30
-37
-45
-55
-54
-50
-40
-24
5
38
67
109
147
175
208
232
246
240
221
208
185
166
146
117
92
75
64
54
45
36
26
19
15
10
9
6
4
3
2
0
-2
-1
-5
-5
-5
-5
-6
-6
-7
-6
-8
-8
-7
-7
-6
-7
-8
-6
-6
-3
-5
-6
-8
-7
-8
-10
-5
-5
-6
-5
-5
-4
-5
-5
-4
-6
-8
-6
-6
-5
-2
0
-2
-3
-3
-3
-5
-4
-4
-2
-2
-3
-2
-2
-2
-1
0
2
3
1
2
3
4
4
5
4
6
5
7
9
10
11
12
11
13
13
14
15
17
20
21
23
23
23
24
26
26
27
28
30
30
32
33
32
33
33
33
36
35
36
35
35
35
34
34
34
35
34
30
29
28
26
25
23
20
20
16
15
15
14
13
12
8
6
3
5
5
6
5
2
-1
-1
-1
-1
-2
-2
-3
-2
-4
-2
-2
-3
-3
-3
-3
-4
-4
-5
-4
-2
-3
-1
-1
-3
-4
-5
-6
-2
-5
-4
-2
-2
-5
-5
-6
-6
-7
-5
-5
-7
-6
-6
-6
-8
-5
-5
-8
-6
-7
-7
-7
-5
-6
-7
-8
-8
-6
-5
-4
-7
-5
-6
-5
-4
-6
-4
-4
-4
-4
-6
-7
-6
-6
-8
-7
-7
-7
-5
-5
-6
-5
-5
-7
-9
-8
-9
-10
-9
-6
-5
-3
-3
-4
-5
-3
-6
-6
-4
-7
-7
-7
-7
-12
-11
-9
-8
-7
-8
-8
-2
-8
-8
-11
-11
-11
-11
-10
-8
-7
-10
-11
-10
-10
-12
-11
-8
-8
-9
-10
-9
-10
-10
-10
-11
-12
-11
-11
-10
-9
-9
-10
-10
-10
-9
-11
-8
-9
-11
-9
-10
-10
-10
-11
-10
-10
-8
-9
-4
-3
-8
-8
-4
-2
-1
1
5
8
10
9
6
7
4
5
5
6
1
-1
0
-2
-2
-8
-7
-7
-8
-7
-9
-8
-9
-9
-13
-11
-10
-11
-14
-15
-12
-12
-11
-13
-14
-17
-15
-12
-12
-13
-16
-16
-17
-17
-17
-17
-16
-17
-14
-15
-13
-15
-17
-16
-16
-19
-26
-30
-39
-49
-54
-61
-59
-55
-46
-24
10
43
75
110
145
179
210
233
236
223
209
191
167
153
129
95
74
59
48
39
29
24
13
9
6
0
0
-4
-8
-8
-6
-8
-8
-13
-15
-15
-13
-12
-11
-16
-15
-17
-12
-14
-13
-13
-16
-17
-16
-17
-16
-15
-13
-15
-15
-15
-14
-15
-16
-15
-14
-14
-14
-14
-12
-12
-12
-13
-12
-13
-10
-14
-13
-11
-9
-6
-8
-11
-10
-8
-10
-9
-10
-9
-8
-7
-7
-7
-6
-8
-8
-6
-7
-2
-1
-2
-2
-2
0
1
0
1
2
4
5
7
7
9
14
13
12
15
17
18
19
19
21
22
23
24
23
24
24
31
31
32
37
35
38
31
29
29
29
30
32
31
34
30
29
26
28
26
25
23
23
20
18
18
15
13
11
9
7
4
6
3
2
3
1
0
3
3
2
-3
-2
-2
-1
-2
-2
-4
-4
-3
-5
-2
-3
1
-3
-3
-6
-9
-7
-3
-3
-2
2
-1
-4
-2
-2
-5
-4
-3
-3
-3
-1
-1
-3
-1
0
-4
2
-2
-1
-1
-3
0
0
-1
-4
-2
-3
-1
-4
-2
-2
0
1
1
0
3
1
0
-5
-1
1
4
5
2
1
2
0
0
1
2
8
2
3
1
0
-1
4
3
7
5
2
4
2
4
4
3
1
2
6
4
6
5
4
5
4
3
3
3
6
8
5
5
6
6
4
3
1
2
3
4
3
4
7
7
5
5
5
6
6
9
7
5
7
6
7
4
5
5
4
5
6
6
6
4
5
4
7
5
4
8
8
6
7
10
4
5
4
6
6
5
9
11
11
13
13
15
13
12
14
19
18
20
20
20
22
23
20
19
18
21
23
21
22
20
18
16
19
12
9
8
6
12
13
11
9
10
8
9
8
8
11
7
10
8
7
4
8
9
11
6
6
7
8
6
5
3
5
8
6
3
3
6
9
6
5
4
1
-6
-10
-21
-22
-32
-36
-44
-38
-23
-9
19
48
80
116
148
175
213
236
246
237
225
215
195
183
163
128
98
80
69
65
56
47
43
37
31
25
18
18
15
19
19
15
15
14
13
13
11
10
13
13
14
13
16
11
11
17
13
12
14
14
15
15
12
14
15
11
11
14
14
14
15
16
14
16
17
16
17
15
18
18
20
17
20
21
18
23
18
18
20
20
20
22
20
19
21
23
21
23
23
25
24
24
26
26
27
28
28
25
31
31
31
31
34
37
37
39
38
39
41
41
43
44
45
46
50
51
53
53
51
49
53
54
59
59
57
59
60
60
61
58
59
60
60
62
61
60
58
57
58
59
56
55
55
47
47
50
46
45
43
40
38
39
37
38
34
34
34
31
29
31
30
29
29
26
28
27
26
26
27
25
25
26
24
24
26
30
25
24
24
25
26
25
25
25
23
23
26
31
27
27
24
27
26
27
28
28
31
22
23
23
22
25
26
23
24
22
26
23
22
23
22
23
23
25
25
24
27
26
25
27
25
25
26
31
25
21
23
26
30
29
25
24
24
26
26
27
23
22
24
27
27
27
29
25
27
25
26
24
28
32
31
25
26
27
27
25
23
20
22
21
25
25
24
25
25
26
26
28
26
24
23
23
24
23
23
23
23
25
24
24
23
22
21
21
23
24
21
22
23
24
28
24
23
22
22
21
22
25
21
20
21
24
25
25
28
21
23
23
24
25
26
25
25
24
27
25
25
27
28
30
29
31
34
35
37
37
36
38
39
38
37
34
36
32
34
31
29
31
24
25
25
22
22
22
22
26
25
23
25
21
20
21
18
20
19
18
16
17
17
17
19
20
17
20
20
17
16
13
15
18
17
20
19
17
21
21
16
13
10
5
-4
-9
-16
-25
-30
-27
-23
-10
13
43
70
109
146
178
206
233
254
258
246
230
219
200
178
153
122
99
86
77
69
59
54
49
44
35
30
30
28
25
26
22
23
22
20
21
21
21
20
16
14
13
14
12
14
17
17
19
15
16
16
18
16
15
14
16
19
18
17
19
19
19
18
21
17
18
18
17
16
20
19
19
20
19
20
17
18
16
20
20
22
22
19
20
24
19
17
18
21
21
22
21
24
25
22
23
22
24
23
27
30
28
26
29
29
33
33
32
36
36
34
38
40
43
42
46
46
42
43
46
47
52
52
52
52
52
51
53
50
55
56
58
51
50
50
56
56
53
53
52
47
46
46
45
42
44
44
43
34
36
37
34
32
30
30
29
27
27
25
23
20
19
20
18
18
19
19
13
15
16
20
21
16
15
16
14
16
14
16
16
14
16
17
15
18
17
18
19
17
16
13
16
16
16
17
16
16
15
15
17
17
17
17
20
16
14
14
13
13
17
14
12
12
15
14
14
16
16
16
15
17
17
16
14
15
13
9
11
12
15
15
15
18
19
17
15
13
15
17
12
14
14
16
16
16
16
16
17
16
17
18
16
17
17
14
14
16
14
14
14
14
14
14
13
12
14
14
14
15
13
14
15
13
14
13
16
11
12
14
13
15
10
10
10
8
7
9
11
10
10
10
10
9
11
10
9
9
7
8
10
9
9
11
9
6
10
11
11
15
10
12
10
6
9
10
11
14
12
14
14
15
14
15
16
17
18
18
17
18
18
24
24
21
22
20
19
19
20
20
19
19
20
16
15
10
9
7
8
13
14
5
5
10
8
6
4
4
2
6
5
3
6
7
7
3
2
2
2
0
2
3
3
2
-1
-3
-2
0
2
4
4
4
2
-1
-4
-10
-16
-22
-30
-37
-48
-48
-47
-35
-21
4
37
71
112
147
177
209
233
251
247
233
220
198
178
162
135
107
86
69
61
51
42
32
25
23
17
13
12
13
13
6
5
4
4
4
5
1
2
1
-2
-2
-3
-3
1
3
-1
-4
-4
-2
2
2
1
2
5
-1
1
0
-1
-2
-2
-2
-3
0
2
4
1
4
2
0
4
-3
2
3
5
3
1
1
-1
-1
0
-2
-2
-3
2
3
2
2
1
5
1
3
3
9
6
5
5
7
9
10
14
13
12
16
14
17
15
16
17
18
19
19
20
23
26
26
27
26
26
30
30
30
31
35
35
36
37
38
38
38
38
38
37
39
38
38
38
38
38
37
36
34
32
32
29
27
29
23
21
25
17
16
15
14
14
13
11
9
11
9
5
4
4
3
0
2
1
3
3
0
-1
0
-4
0
0
-1
-1
-4
-4
-1
0
-1
-1
0
1
1
0
0
-1
0
-3
0
-2
-5
-2
2
1
-6
-3
-2
-1
-3
-2
-3
-4
-4
-5
-4
-8
-5
-2
-1
-3
-3
-5
-5
-4
1
-3
-4
-4
-2
-3
-4
-4
-4
-2
-4
-1
-1
-4
-4
-4
-5
-4
-4
-6
-6
-4
-4
-5
-6
-4
-5
-3
-5
-7
-4
-3
-2
-4
-8
-7
-5
-4
-5
-6
-7
-5
-5
-5
-5
-4
-5
-5
-7
-3
-4
-9
-9
-7
-8
-6
-5
-8
-7
-7
-11
-11
-9
-10
-8
-7
-7
-8
-7
-8
-7
-10
-12
-12
-12
-12
-9
-8
-10
-9
-6
-6
-12
-13
-10
-8
-8
-7
-12
-9
-7
-8
-7
-11
-11
-11
-11
-10
-9
-8
-8
-6
-4
-3
-5
-3
-3
-3
-3
-2
-2
-2
1
3
5
6
8
7
7
5
6
6
6
1
-2
3
2
-1
-5
-6
-8
-9
-8
-8
-9
-8
-9
-10
-11
-10
-10
-12
-10
-12
-13
-12
-11
-13
-15
-14
-13
-13
-14
-14
-16
-15
-16
-17
-16
-16
-16
-15
-16
-16
-14
-16
-19
-20
-20
-27
-36
-41
-48
-57
-64
-61
-55
-43
-22
11
44
79
119
152
180
210
233
238
225
210
194
175
159
130
101
78
61
53
42
30
22
17
10
4
1
-1
-4
-4
-4
-4
-5
-10
-10
-13
-13
-14
-14
-13
-13
-13
-14
-16
-17
-16
-13
-15
-14
-13
-15
-13
-15
-16
-15
-15
-14
-13
-14
-14
-12
-11
-8
-11
-16
-13
-13
-14
-14
-15
-13
-12
-12
-15
-15
-11
-10
-7
-6
-8
-9
-10
-11
-13
-12
-6
-4
-6
-6
-4
-5
-3
-3
-5
-6
-3
-4
-4
-2
-1
2
5
3
4
4
5
5
7
11
10
12
13
16
16
16
21
20
20
21
23
25
24
26
27
29
31
29
28
28
28
32
31
31
31
29
30
31
28
31
23
28
24
21
22
19
19
19
19
14
14
14
11
9
7
5
2
4
2
4
0
0
0
-1
-3
-2
-4
-3
-1
0
-2
-3
-6
-3
-3
-6
-5
-2
-5
-5
-4
-5
-3
-3
-5
-4
-7
-2
-8
-3
-2
-1
-4
-1
-3
-8
-8
-6
-6
-4
-4
-7
-9
-8
-6
-1
-7
-2
-4
-4
-5
-2
-4
-2
-4
-3
-1
1
1
0
-3
-4
-3
-5
-3
-4
-4
0
0
1
0
0
-4
-3
-1
-3
-4
-3
-2
1
0
3
1
1
1
-3
-3
-1
-3
-1
-4
-2
-2
-2
-1
-1
0
-1
-1
-2
-3
-1
0
0
1
-1
1
1
1
1
0
1
-1
0
2
0
3
-1
0
2
-2
1
-1
-1
-1
0
-2
-4
-3
1
-3
-3
-2
-1
-1
-1
0
-1
-2
0
-2
-1
0
-1
0
-2
0
2
2
1
-1
-1
0
-1
-1
1
2
5
4
4
3
5
4
4
6
7
8
10
14
13
13
16
18
16
16
16
15
15
15
15
11
11
9
13
14
5
5
5
8
1
1
3
1
-1
1
3
1
2
4
3
0
1
-2
-1
1
1
-1
-1
-3
-3
0
1
1
1
1
-1
1
0
0
0
1
-1
1
0
0
-4
-12
-19
-29
-34
-43
-45
-42
-43
-32
-12
21
53
88
121
153
185
219
238
246
235
221
207
183
166
143
112
88
73
63
55
46
36
31
26
21
18
15
12
10
7
11
8
4
2
4
5
4
3
2
0
1
1
0
1
1
4
1
0
3
2
1
4
3
1
0
-1
-1
2
0
1
1
-1
1
2
1
4
2
3
2
5
6
3
1
1
2
2
0
4
7
6
6
4
4
7
8
4
5
5
3
6
6
8
9
11
9
9
12
11
12
10
13
13
14
12
15
18
18
18
20
22
21
22
23
24
27
27
28
29
31
33
35
36
36
34
37
39
38
35
35
36
35
36
37
39
38
37
35
34
35
37
34
30
31
26
27
23
24
26
23
20
19
16
15
16
12
12
9
10
11
10
7
9
11
11
8
8
6
7
7
5
5
7
9
6
8
7
5
7
7
6
7
6
5
5
5
3
6
6
8
6
6
8
7
6
7
3
6
5
5
6
7
6
6
6
9
5
3
4
4
6
6
6
3
1
3
3
2
5
4
6
4
7
7
6
6
6
5
6
5
6
7
6
5
4
4
3
4
5
5
5
4
3
3
3
4
4
4
5
4
3
4
3
3
3
6
5
5
5
5
7
7
5
7
6
6
7
5
6
5
5
5
5
4
4
4
4
3
5
6
7
5
3
1
3
1
2
2
3
4
4
3
5
6
5
5
4
3
3
3
2
1
2
2
2
1
4
4
3
4
3
4
4
4
4
4
4
5
3
4
8
8
8
9
7
10
10
13
15
14
15
18
17
17
18
16
18
19
19
18
18
17
15
12
9
6
4
3
5
5
5
3
3
4
2
2
2
1
2
1
2
3
3
1
1
-1
0
0
1
3
1
-2
-2
0
1
-1
-1
-2
-1
0
-2
-3
-5
-6
-7
-11
-20
-27
-30
-38
-47
-50
-46
-38
-27
-6
27
60
96
132
164
196
223
241
240
227
214
199
179
163
138
108
85
73
62
54
45
37
30
25
19
16
14
10
8
4
5
4
3
4
2
-3
0
3
1
0
0
0
0
1
-1
1
1
-1
-1
-1
0
1
0
2
3
5
7
3
2
-1
1
4
2
3
4
4
4
4
2
4
3
2
3
5
5
4
4
4
6
6
6
7
7
7
7
7
7
6
6
6
5
7
12
14
12
12
13
13
12
14
17
17
17
18
19
19
20
21
21
22
25
26
28
30
32
34
33
35
34
36
37
36
38
39
41
42
44
43
42
42
41
43
43
44
44
43
42
40
39
39
38
36
33
29
32
30
27
27
26
24
24
24
22
19
16
15
13
11
11
10
10
10
11
8
7
9
8
10
7
9
8
7
7
7
6
6
4
4
4
5
6
5
5
6
7
5
7
6
5
6
9
7
7
7
6
7
8
7
8
5
5
2
4
5
7
6
6
4
5
5
5
6
5
4
2
5
2
4
6
6
5
6
5
6
6
6
6
5
4
5
4
4
4
5
8
8
7
8
6
5
5
8
8
7
6
8
5
6
6
5
5
4
5
4
4
5
5
4
4
5
5
5
4
5
5
4
4
3
2
3
6
8
7
7
7
6
4
4
4
7
6
5
5
5
4
3
3
4
3
4
3
4
3
2
3
3
4
1
2
4
5
5
2
4
2
2
3
3
3
3
5
4
4
5
5
4
4
4
5
5
7
8
6
5
8
11
12
14
15
16
18
19
19
17
16
18
18
20
19
19
17
16
11
8
7
5
5
5
4
4
6
4
3
2
2
1
0
1
2
-1
1
0
0
-3
-2
-3
-2
-2
0
1
2
0
-1
-1
-1
-2
-1
-2
-4
-3
-2
-2
-5
-5
-10
-20
-28
-34
-45
-52
-50
-45
-36
-21
8
39
72
110
146
176
212
238
249
241
223
207
186
167
148
119
93
76
64
53
43
34
28
23
15
10
8
8
3
2
2
-1
-2
-5
-5
-5
-3
-4
-5
-6
-6
-7
-8
-8
-7
-8
-8
-8
-8
-9
-7
-7
-7
-9
-9
-9
-8
-9
-7
-7
-7
-6
-7
-7
-9
-9
-5
-6
-6
-6
-8
-9
-8
-7
-5
-3
-6
-6
-5
-6
-7
-7
-6
-6
-4
-5
-4
-5
-4
-3
-3
-2
0
2
1
0
0
2
3
4
4
3
4
5
6
7
8
9
10
13
15
15
17
19
18
21
23
23
23
27
27
27
28
29
29
28
29
29
31
31
31
32
30
30
31
31
28
26
25
23
23
23
24
22
21
19
18
20
15
14
11
7
6
4
5
4
2
2
1
-1
-2
-3
-3
-3
-6
-8
-6
-7
-7
-6
-6
-6
-6
-6
-6
-6
-6
-7
-9
-8
-6
-8
-8
-7
-6
-5
-9
-7
-6
-6
-7
-5
-4
-5
-5
-8
-8
-7
-6
-6
-8
-8
-7
-6
-5
-7
-7
-8
-7
-9
-9
-7
-6
-4
-5
-5
-5
-5
-6
-4
-8
-9
-10
-7
-8
-7
-7
-5
-5
-6
-6
-3
-4
-5
-2
-2
0
-1
-5
-3
-4
-5
-4
-2
-2
-3
-2
-3
-5
-4
-5
-7
-6
-4
-4
-4
-3
-3
-4
-3
-5
-4
-5
-3
-2
-3
-6
-5
-5
-4
-4
-5
-4
-4
-3
-1
-5
-6
-5
-1
-4
-7
-7
-7
-3
-3
-2
-5
-5
-5
-3
-6
-6
-2
-5
-5
-5
-4
-5
-5
-4
-1
-5
-4
-4
-2
-1
-4
-4
-3
-1
-3
0
0
0
2
0
-1
-1
2
3
3
3
4
7
12
10
12
12
13
15
14
14
14
15
12
13
13
7
10
7
4
0
4
3
-1
0
-1
0
-1
-1
-1
-3
-3
-3
-1
-2
-2
-2
-3
-3
-5
-7
-4
-4
-5
-2
-3
-3
-2
-5
-4
-3
-3
0
-2
-2
-3
-5
-10
-10
-12
-18
-21
-29
-38
-44
-53
-48
-43
-36
-18
13
44
75
109
143
175
207
234
238
230
212
204
180
163
141
109
85
67
60
48
42
35
24
18
10
9
9
2
3
2
2
-2
0
-2
-3
-1
-1
-1
-5
-6
-5
-3
-5
-5
-6
-5
-9
-7
-9
-6
-3
-5
-6
-4
-5
-6
-7
-7
-6
-6
-5
-5
-5
-7
-7
-5
-8
-7
-3
-3
-7
-6
-2
-1
-1
-2
-4
-3
-3
-3
0
-3
-1
0
-2
1
0
2
1
3
3
1
3
8
6
5
6
6
5
6
8
12
11
11
12
14
13
12
14
19
20
21
24
24
24
29
30
30
29
31
34
33
33
34
36
38
39
36
37
38
40
39
40
40
37
34
31
34
32
34
32
30
28
29
31
26
24
24
22
19
18
15
15
17
15
7
7
8
8
7
10
6
6
5
5
2
2
2
1
2
5
5
1
3
5
6
6
2
-2
4
2
2
1
3
4
0
5
2
1
3
3
6
3
4
7
3
1
1
1
5
4
3
2
1
1
0
2
4
1
2
2
5
4
4
3
2
3
2
2
0
5
3
3
2
3
3
3
4
7
5
4
4
5
2
4
2
1
4
4
4
3
6
4
3
4
2
4
6
8
7
7
5
4
5
2
4
6
3
3
2
-1
5
2
3
1
3
2
0
2
4
1
6
4
6
6
2
2
2
2
1
4
4
2
3
2
4
2
3
1
3
3
5
3
7
6
5
4
4
6
4
6
5
7
8
7
7
8
7
9
8
9
7
8
12
9
11
16
17
17
21
23
22
24
22
21
25
25
20
16
17
15
13
8
8
6
9
5
6
8
7
8
8
7
5
4
3
3
5
5
3
4
5
6
4
4
7
8
7
1
4
5
5
3
6
6
4
4
1
5
4
3
0
-2
-8
-12
-22
-28
-34
-40
-40
-34
-23
-4
26
56
86
119
150
182
215
237
240
230
216
206
181
165
141
113
86
71
64
58
49
43
36
31
25
24
20
18
16
16
16
14
14
12
10
10
11
9
9
9
9
7
10
9
7
10
9
9
10
13
9
6
6
7
10
9
10
9
9
10
9
11
11
11
12
14
15
10
10
12
10
9
10
11
9
8
14
16
14
14
14
15
15
14
17
17
14
14
15
15
16
17
18
17
20
20
22
21
21
23
24
24
23
25
27
29
29
30
30
30
32
34
39
41
42
40
41
43
44
45
45
45
46
48
51
50
48
47
51
52
51
50
49
52
51
52
50
47
46
45
45
43
41
39
41
40
39
36
36
36
35
30
31
27
26
24
23
22
22
23
21
21
21
18
18
19
19
18
17
17
17
15
17
16
18
18
18
18
17
15
18
18
18
16
18
18
16
15
17
16
16
17
14
14
15
16
16
18
20
18
13
14
14
15
15
18
17
18
18
17
16
14
13
17
16
15
14
14
17
17
16
15
15
16
17
16
14
15
15
16
14
15
14
14
14
15
16
15
18
18
16
19
19
18
18
18
19
17
17
17
16
16
18
17
17
15
15
18
16
15
16
15
13
13
15
15
12
13
16
13
13
15
12
12
12
14
15
14
14
16
15
14
12
12
12
12
14
13
12
11
12
10
11
13
17
16
16
17
15
12
16
13
10
15
16
15
16
15
14
17
17
17
22
20
19
17
19
19
20
23
25
25
29
29
29
28
28
30
29
30
27
21
21
23
21
18
16
17
16
14
14
13
12
12
9
10
8
11
12
11
12
11
12
10
10
11
10
9
7
6
6
6
7
7
8
8
8
9
6
6
7
10
8
5
6
5
1
-7
-15
-24
-30
-37
-37
-34
-27
-10
16
43
74
113
150
176
208
232
248
244
229
217
199
181
163
134
106
87
76
65
55
46
40
34
29
26
23
21
19
17
16
13
13
15
11
11
11
13
10
10
10
8
10
9
10
9
9
7
10
10
10
10
9
8
10
10
8
11
12
11
10
10
9
10
11
11
11
13
13
12
12
12
11
10
12
13
12
13
14
14
13
14
14
13
14
16
16
16
16
15
15
14
15
17
20
20
22
23
25
24
26
26
27
26
28
27
31
31
33
31
30
30
33
34
38
38
41
44
44
44
46
50
50
49
50
50
52
53
52
55
54
51
51
49
52
51
49
51
47
48
48
46
40
40
39
40
41
42
36
35
33
31
29
29
29
25
28
24
25
24
24
19
19
16
16
16
19
21
21
16
17
17
12
12
14
14
14
17
17
17
20
17
16
16
16
15
16
16
16
18
18
17
18
17
16
17
16
17
15
15
15
14
14
13
16
12
11
10
8
12
12
11
10
11
11
10
10
10
10
12
11
11
9
7
9
8
7
7
9
9
8
7
9
10
8
7
7
6
6
8
7
7
8
7
8
9
9
10
10
8
8
7
6
7
9
8
9
8
7
6
9
11
9
9
8
10
9
11
11
9
7
9
7
7
7
9
8
10
12
15
12
13
12
12
13
14
14
14
14
16
15
15
17
15
16
17
16
17
16
18
18
16
16
18
19
18
18
23
23
21
21
24
25
25
26
26
28
28
29
29
28
27
27
29
31
32
34
37
39
40
42
40
38
38
39
39
39
36
36
36
36
32
30
29
30
31
29
28
28
28
28
27
27
27
28
29
27
27
24
23
25
26
27
27
28
28
26
25
26
25
24
25
25
25
26
26
26
25
27
29
26
23
20
13
5
0
-10
-17
-21
-17
-13
0
21
53
88
125
162
196
230
257
276
281
268
254
238
218
200
175
143
118
103
93
81
74
69
61
54
49
45
43
41
38
38
36
37
37
35
32
33
32
30
30
29
31
32
31
29
31
30
28
29
30
30
28
28
30
29
30
29
30
30
32
31
30
35
34
35
34
32
31
33
32
33
33
32
35
34
32
33
34
34
34
35
36
39
37
39
39
39
40
38
37
38
39
38
39
41
42
42
42
41
42
44
45
47
48
49
49
51
52
51
50
53
55
60
60
58
59
63
64
63
63
64
66
67
70
71
71
70
69
69
72
72
73
74
74
74
74
73
71
69
68
70
66
64
64
62
62
62
59
56
55
55
53
52
50
49
48
45
45
44
42
39
40
39
39
40
42
43
43
42
41
39
40
40
38
39
38
38
38
36
37
37
40
39
39
38
39
38
38
37
38
39
39
39
38
40
40
39
38
38
38
39
36
38
38
38
39
39
37
40
38
38
38
38
38
39
39
41
38
37
39
42
43
43
40
41
42
42
41
42
41
41
41
42
39
41
40
41
39
41
39
40
42
42
44
41
42
43
40
39
41
42
43
43
42
43
42
42
42
40
40
39
40
42
41
43
43
43
46
45
42
41
40
41
41
41
42
40
40
39
38
39
41
39
41
41
40
41
40
41
40
40
41
41
42
43
42
42
42
40
40
41
42
40
41
42
39
40
39
40
42
42
44
44
44
45
43
44
42
44
44
44
46
48
48
50
50
46
45
49
50
54
54
57
58
59
58
59
60
59
61
60
60
58
59
58
54
51
48
46
46
48
48
46
45
46
45
44
43
45
45
42
42
41
40
45
45
43
43
44
44
42
43
42
41
40
41
38
40
41
40
40
42
43
44
43
42
38
35
29
24
18
8
2
-10
-11
-6
5
22
49
81
118
155
194
223
256
283
297
291
273
261
235
215
195
167
140
121
110
99
90
83
74
69
63
57
54
53
49
49
48
48
43
44
43
43
42
42
43
41
44
43
42
40
39
38
37
39
40
42
44
44
46
43
41
41
41
39
39
40
43
45
46
45
44
44
45
43
42
42
43
45
45
44
44
42
43
44
46
44
44
45
43
44
46
47
47
48
48
50
51
49
48
51
51
54
52
53
52
53
53
57
57
57
57
56
60
62
63
63
65
66
66
70
70
72
73
74
74
78
78
78
81
83
82
81
80
82
84
85
83
82
84
84
82
82
82
81
78
80
79
77
77
77
73
74
70
66
63
64
63
61
59
57
56
56
56
55
53
54
52
54
54
52
53
51
48
51
47
50
49
48
48
49
49
50
46
49
49
48
47
49
47
48
48
47
48
50
49
50
50
48
48
48
48
48
49
48
47
46
49
51
48
46
45
45
48
48
51
47
50
50
48
47
46
48
46
48
47
47
49
50
51
49
49
49
50
48
47
47
50
50
50
49
49
50
50
48
48
49
50
50
47
47
48
48
47
48
51
48
49
50
50
48
48
49
48
45
46
48
47
47
48
49
47
46
48
51
49
47
47
50
48
47
50
45
48
48
50
49
50
47
49
49
45
45
47
46
47
47
45
46
46
45
47
47
44
43
46
46
47
45
45
46
46
48
48
47
47
48
47
44
44
45
46
45
46
47
46
46
47
47
46
46
47
46
45
49
50
49
50
50
50
51
51
55
56
56
58
61
60
60
61
59
57
56
55
60
59
58
56
53
51
49
46
44
43
43
44
43
43
40
41
40
38
39
39
40
40
38
38
37
37
35
35
37
36
38
38
38
39
38
38
38
37
37
35
36
35
35
34
34
31
26
20
16
9
0
-9
-12
-9
-1
11
33
63
94
132
167
198
231
261
279
277
261
242
227
204
192
167
136
110
99
92
83
76
70
63
55
51
48
46
45
42
41
40
39
36
36
37
37
34
35
38
33
35
34
32
32
31
30
32
33
32
32
33
31
33
32
31
31
30
29
30
33
34
33
36
39
38
36
37
35
36
37
31
34
31
36
32
31
31
31
33
35
32
30
33
36
37
35
40
33
34
35
33
32
36
37
34
39
42
43
41
41
40
43
43
43
45
45
49
50
52
54
55
55
58
57
59
60
60
62
64
68
67
65
66
64
68
67
67
66
73
75
75
73
70
73
73
72
70
72
70
69
67
64
61
60
58
60
62
58
58
56
53
53
52
51
51
48
46
45
44
43
43
43
45
43
43
44
44
44
40
42
41
38
42
44
43
42
43
42
39
40
39
39
41
41
44
42
41
43
43
41
40
40
41
42
41
45
43
45
42
43
42
39
40
43
41
40
39
41
41
44
43
45
45
46
46
44
43
44
42
42
42
41
42
42
43
47
48
47
47
43
44
43
45
43
43
45
44
45
45
43
44
45
43
43
44
44
47
46
44
44
43
42
44
45
43
44
44
44
46
47
46
45
44
45
43
43
44
41
41
40
42
45
44
43
41
41
41
38
40
40
41
40
39
40
43
41
42
43
43
44
43
40
44
42
42
40
40
41
43
43
39
40
39
40
41
40
41
41
39
39
40
41
41
43
39
39
43
44
39
42
44
40
41
42
41
39
42
41
44
42
45
45
46
46
47
44
45
45
44
46
51
52
53
53
53
56
60
58
57
55
58
53
52
50
52
51
52
47
46
45
41
43
42
45
45
43
40
45
43
43
39
39
40
39
40
39
38
36
39
41
44
42
40
41
40
39
39
37
37
38
39
38
38
43
41
38
37
34
32
26
19
16
9
-1
-4
-4
-1
13
28
54
84
120
165
198
226
258
281
290
283
266
253
228
215
194
166
139
121
114
103
92
84
74
67
60
56
55
53
52
51
49
44
44
41
44
42
42
44
45
41
40
45
46
43
38
38
45
45
43
40
43
46
43
42
40
48
48
43
38
45
37
37
41
48
48
48
38
38
38
37
40
50
41
45
49
38
31
44
46
41
51
57
45
45
41
41
41
35
44
40
48
44
43
47
52
45
42
42
44
55
53
50
52
60
51
51
51
59
60
54
54
69
68
60
71
70
80
66
50
61
69
80
74
69
72
65
80
78
68
62
64
78
60
46
69
56
50
63
64
43
32
33
43
39
36
39
51
24
-8
26
31
-9
4
-4
10
-19
-25
-8
-22
-30
-31
-43
-48
-40
-48
-56
-56
-57
-64
-82
-96
-96
-81
-72
-67
-92
-102
-109
-111
-119
-125
-128
-102
-133
-132
-127
-134
-129
-132
-139
-137
-144
-134
-143
-166
-162
-152
-146
-149
-158
-158
-160
-153
-153
-161
-166
-174
-163
-180
-175
-184
-183
-173
-190
-173
-176
-179
-181
-170
-168
-186
-193
-176
-173
-169
-154
-163
-170
-165
-168
-156
-152
-159
-156
-145
-142
-150
-147
-144
-139
-137
-136
-134
-126
-129
-138
-141
-130
-112
-124
-115
-122
-118
-118
-112
-109
-119
-126
-114
-111
-111
-110
-120
-111
-117
-111
-106
-106
-110
-104
-114
-109
-107
-102
-104
-107
-111
-108
-112
-111
-108
-105
-104
-105
-104
-102
-105
-104
-100
-104
-93
-101
-108
-106
-114
-102
-97
-108
-102
-109
-107
-111
-104
-103
-110
-115
-114
-109
-105
-102
-102
-110
-112
-109
-110
-113
-112
-114
-116
-102
-98
-119
-113
-111
-107
-107
-107
-110
-108
-98
-109
-107
-112
-107
-107
-108
-105
-102
-106
-104
-96
-97
-104
-104
-103
-104
-96
-102
-93
-95
-105
-101
-99
-98
-103
-110
-106
-115
-117
-125
-113
-115
-109
-109
-112
-112
-119
-120
-117
-110
-117
-116
-114
-113
-113
-108
-116
-114
-111
-103
-109
-112
-115
-117
-117
-116
-114
-117
-118
-106
-118
-119
-119
-124
-122
-126
-129
-138
-149
-164
-153
-156
-148
-140
-119
-91
-53
-30
17
52
78
108
135
148
131
117
93
76
60
39
8
-17
-31
-47
-59
-67
-76
-85
-87
-94
-94
-99
-105
-107
-104
-100
-96
-91
-107
-107
-108
-111
-113
-112
-106
-112
-110
-108
-112
-107
-107
-109
-104
-102
-106
-111
-110
-114
-108
-107
-109
-110
-105
-106
-92
-103
-105
-113
-98
-113
-104
-95
-100
-97
-95
-99
-110
-111
-104
-108
-108
-104
-102
-101
-96
-95
-88
-96
-99
-101
-100
-100
-100
-104
-99
-101
-96
-95
-95
-95
-92
-90
-99
-90
-83
-81
-91
-75
-86
-82
-88
-87
-80
-77
-80
-78
-79
-70
-70
-76
-67
-64
-70
-67
-72
-69
-63
-68
-67
-63
-52
-51
-55
-62
-58
-61
-54
-50
-52
-60
-53
-53
-58
-59
-57
-54
-57
-65
-65
-66
-71
-69
-67
-74
-73
-71
-72
-69
-75
-89
-83
-76
-82
-80
-84
-88
-80
-90
-86
-87
-89
-92
-89
-87
-93
-95
-84
-85
-86
-94
-90
-87
-85
-83
-92
-89
-84
-89
-87
-86
-86
-85
-87
-86
-90
-84
-83
-87
-88
-87
-92
-86
-85
-84
-84
-87
-87
-86
-83
-81
-87
-93
-87
-86
-85
-86
-89
-85
-87
-89
-87
-82
-84
-89
-84
-88
-85
-86
-87
-87
-78
-77
-91
-90
-79
-86
-90
-82
-83
-80
-81
-83
-83
-77
-80
-83
-82
-82
-80
-82
-82
-78
-78
-78
-78
-79
-74
-70
-75
-70
-71
-81
-72
-70
-79
-78
-78
-78
-74
-74
-70
-75
-73
-74
-73
-73
-72
-72
-73
-75
-73
-70
-72
-69
-65
-65
-68
-70
-65
-73
-72
-68
-63
-63
-65
-63
-60
-64
-63
-58
-57
-57
-56
-56
-54
-58
-55
-54
-53
-49
-50
-50
-51
-48
-44
-42
-42
-38
-37
-38
-38
-35
-38
-31
-28
-29
-29
-28
-26
-29
-33
-30
-27
-27
-26
-24
-22
-20
-17
-16
-15
-13
-13
-12
-14
-20
-19
-7
-11
-15
-22
-15
-14
-18
-21
-21
-23
-23
-26
-25
-27
-31
-22
-21
-20
-23
-21
-25
-18
-19
-21
-21
-24
-15
-20
-20
-14
-14
-15
-14
-15
-12
-12
-8
-14
-12
-17
-12
-13
-7
-4
-8
-13
-9
-18
-26
-35
-36
-40
-47
-44
-38
-26
-4
28
59
98
133
171
203
233
255
261
249
233
218
196
180
159
129
106
91
83
72
63
57
52
45
38
35
30
30
32
31
32
30
27
27
27
26
26
29
28
29
25
23
22
24
25
25
23
22
21
25
22
22
24
22
22
21
21
20
21
20
20
20
21
21
19
20
20
21
19
18
20
19
21
21
22
21
21
19
18
20
20
20
20
20
22
23
24
22
23
23
24
25
26
26
27
28
28
26
25
24
27
30
29
31
32
35
33
33
34
34
35
37
39
38
41
41
44
47
44
48
48
49
48
51
51
52
53
54
54
54
54
54
55
56
55
54
54
54
52
53
48
47
47
46
42
38
38
36
36
34
30
31
30
26
25
23
24
23
19
22
20
16
15
18
13
15
14
11
11
13
10
14
13
13
12
9
9
12
14
9
10
12
15
11
13
12
14
10
10
10
9
10
11
13
10
10
11
11
12
10
12
12
10
11
10
12
10
10
10
11
10
11
11
13
11
13
12
12
14
13
12
10
12
11
11
11
12
11
8
12
12
14
13
13
11
10
12
9
11
12
14
14
13
10
10
9
9
12
12
10
11
11
11
15
11
12
12
14
13
12
12
10
11
11
8
13
11
11
9
9
10
12
12
13
12
9
9
8
10
9
9
11
9
13
9
10
9
9
8
9
7
11
8
9
10
11
9
8
8
8
7
9
8
6
8
8
6
8
8
7
11
10
10
9
8
9
7
10
8
7
10
11
11
13
17
13
14
17
15
15
15
17
21
18
20
24
21
23
20
18
19
22
23
22
20
23
21
17
14
11
9
10
9
11
8
10
8
5
7
4
6
7
7
6
5
3
4
6
8
5
2
7
8
3
3
3
3
1
1
3
3
3
2
2
2
4
5
0
-4
-5
-14
-22
-24
-34
-42
-41
-38
-31
-16
11
45
78
120
156
185
218
244
257
252
236
220
199
180
164
135
103
83
75
65
51
42
35
31
23
19
18
