-36
-39
-38
-46
-46
-53
-40
-27
-24
-31
-29
-31
-39
-45
-38
-38
-42
-38
-36
-30
-46
-49
-48
-32
-37
-31
-28
-18
-28
-30
-36
-47
-47
-36
-37
-28
-32
-29
-34
-42
-57
-49
-44
-42
-11
-17
-29
-33
-29
-28
-29
-39
-40
-30
-42
-37
-31
-29
-35
-43
-45
-42
-39
-38
-38
-31
-33
-22
-22
-21
-25
-34
-55
-51
-40
-33
-38
-27
-22
-20
-34
-43
-27
-34
-51
-36
-47
-51
-47
-42
-34
-40
-43
-36
-19
-25
-29
-27
-44
-45
-44
-45
-42
-36
-40
-37
-16
-18
-23
-30
-39
-49
-43
-51
-42
-42
-42
-36
-32
-36
-40
-24
-27
-41
-41
-31
-34
-36
-34
-34
-43
-38
-43
-33
-30
-37
-50
-49
-45
-40
-27
-33
-37
-33
-35
-35
-45
-40
-40
-31
-28
-27
-27
-42
-25
-30
-25
-26
-22
-44
-45
-30
-31
-36
-30
-18
-21
-25
-28
-31
-31
-28
-30
-39
-38
-34
-25
-22
-27
-30
-25
-26
-39
-16
-34
-29
-19
-29
-25
-26
-31
-32
-40
-44
-39
-47
-42
-35
-33
-37
-44
-52
-47
-32
-47
-51
-42
-29
-29
-29
-36
-38
-46
-41
-40
-50
-27
-20
-40
-40
-35
-36
-20
-42
-42
-39
-25
-38
-41
-34
-36
-33
-21
2
-4
-7
1
5
-11
-24
-32
-29
-44
-56
-46
-49
-47
-61
-65
-56
-48
-50
-35
-40
-23
-40
-36
-16
-37
-35
-38
-47
-40
-27
-33
-39
-50
-49
-46
-33
-28
-31
-27
-16
-34
-28
-36
-40
-27
-29
-32
-33
-32
-44
-28
-19
-15
-26
-34
-41
-33
-26
-19
-16
-22
-19
-13
-25
-25
-24
-28
-32
-29
-34
-33
-29
-22
-33
-36
-31
-34
-35
-33
-20
-18
-15
-19
-12
-13
-27
-22
-19
-10
-14
-18
-4
-4
-5
-9
-18
-20
-19
-20
-10
-4
-7
-6
-2
-5
-7
-5
7
11
4
9
5
-1
5
6
14
1
15
7
20
20
27
24
14
27
27
16
17
14
15
32
32
20
11
15
20
16
11
11
8
4
17
10
2
13
5
-6
-13
-5
-10
-14
-19
-6
-20
-28
-28
-18
-22
-32
-20
-30
-23
-11
-34
-46
-30
-21
-34
-36
-31
-34
-32
-29
-32
-32
-44
-35
-24
-22
-23
-37
-29
-32
-36
-38
-40
-32
-29
-32
-37
-43
-43
-53
-42
-30
-47
-27
-30
-27
-23
-19
-13
-26
-28
-21
-41
-42
-42
-45
-55
-42
-28
-28
-34
-31
-31
-25
-20
-10
-23
-34
-35
-43
-36
-37
-35
-33
-44
-37
-29
-21
-36
-36
-22
-38
-31
-28
-24
-22
-32
-27
-39
-39
-38
-33
-33
-27
-23
-36
-22
-27
-46
-38
-42
-40
-34
-35
-28
-24
-35
-40
-34
-30
-48
-39
-24
-18
-32
-38
-27
-27
-30
-27
-33
-24
-14
-31
-35
-35
-26
-17
-37
-50
-45
-54
-43
-28
-21
-27
-35
-29
-39
-16
-28
-40
-40
-38
-32
-35
-40
-42
-40
-30
-42
-44
-26
-26
-34
-45
-41
-29
-33
-33
-25
-45
-32
-33
-33
-34
-34
-36
-33
-30
-31
-36
-40
-41
-36
-10
-11
-27
-36
-44
-46
-46
-37
-26
-31
-38
-38
-35
-28
-39
-40
-29
-31
-38
-45
-36
-26
-27
-32
-31
-37
-40
-21
-29
-42
-39
-39
-32
-29
-42
-38
-54
-30
-30
-31
-45
-35
-24
-7
-23
-31
-35
-27
-27
-31
-37
-34
-28
-27
-12
-34
-30
-31
-14
-13
-6
-16
-21
-24
-41
-38
-33
-29
-29
-26
-19
-13
-18
-14
-26
-33
-25
-30
-33
-28
-26
-14
-24
-33
-29
-29
-31
-22
-21
-18
-29
-28
-26
-42
-48
-45
-33
-27
-30
-39
-46
-31
-21
-17
-32
-38
-42
-41
-49
-40
-24
-25
-25
-25
-23
-36
-51
-30
-35
-35
-38
-45
-34
-34
-49
-32
-17
-8
-4
-7
4
17
11
14
24
11
-21
-31
-35
-36
-41
-42
-54
-67
-67
-76
-69
-37
-31
-36
-33
-28
-21
-31
-34
-25
-33
-35
-39
-40
-33
-29
-39
-28
-17
-19
-23
-9
-15
-28
-36
-27
-13
-23
-24
-37
-37
-29
-20
-21
-30
-41
-34
-25
-16
-21
-25
-26
-14
-14
-28
-36
-27
-22
-18
-17
-19
-16
-9
-11
-22
-24
-31
-40
-19
-26
-8
-13
-14
-12
-10
-6
-21
-11
-15
-8
-13
-10
-19
-16
-5
-10
-6
-11
-9
-13
-10
5
7
-13
-25
-2
14
6
-2
3
18
12
12
19
27
13
17
19
13
0
11
28
25
24
29
25
18
19
26
25
19
26
24
33
41
45
32
37
27
28
17
-5
10
33
15
10
14
15
3
1
0
3
0
-5
6
-2
-4
14
18
4
-11
-9
-9
-8
-8
-13
1
-9
-12
-26
-25
-39
-33
-21
-24
-19
-14
-24
-20
-28
-30
-24
-18
-41
-29
-31
-20
-14
-25
-19
-9
-15
-27
-21
-23
-28
-26
-12
-24
-24
-44
-32
-24
-28
-40
-26
-28
-22
-21
-24
-18
-17
-27
-31
-26
-13
-25
-37
-34
-18
-6
-7
-16
-23
-28
-24
-9
-14
-42
-26
-22
-19
-19
-22
-22
-15
-20
-19
-24
-16
-31
-31
-35
-33
-19
-21
-13
-28
-32
-17
-16
-18
-21
-23
-22
-23
-20
-27
-43
-37
-15
-17
-24
-27
-4
-16
-15
-14
-19
-23
-34
-38
-36
-16
-15
2
-21
-20
-20
-22
-35
-34
-28
-19
-14
-21
-24
-18
-25
-28
-32
-36
-34
-26
-9
-20
-12
-28
-24
-16
-24
-30
-23
-26
-28
-34
-22
-15
-22
-36
-30
-19
-23
-17
-40
-24
-22
-26
-32
-38
-31
-17
-16
-12
-16
-31
-25
-16
-23
-20
-18
-24
-39
-29
-13
-17
-27
-33
-29
-17
-25
-13
-7
-14
-31
-28
-27
-32
-43
-37
-21
-6
-23
-22
-24
-28
-26
-8
-17
-18
-3
-4
-3
-18
-43
-32
-19
-9
-17
-19
-16
-15
-6
-12
-24
-30
-33
-23
-24
-20
-13
-24
-17
-20
-17
-3
-16
-23
-35
-35
-20
-19
-15
-12
-14
-31
-30
-35
-36
-28
-19
-25
-34
-35
-25
-26
-31
-40
-28
-27
-30
-30
-25
-28
-32
-30
-34
-34
-38
-25
-10
-13
-25
-27
-25
-18
-13
0
25
17
17
19
20
19
-12
-42
-41
-32
-37
-49
-55
-67
-77
-61
-43
-44
-53
-49
-46
-36
-32
-20
-22
-25
-25
-25
-38
-24
-26
-18
-24
-27
-26
-26
-33
-18
-11
-23
-16
-16
-19
-9
-15
-29
-33
-32
-22
-26
-31
-35
-35
-27
-13
-19
-13
-15
-29
-23
-14
-28
-24
-19
-23
-21
-20
3
-8
-12
-17
-14
-8
-17
-7
-10
-15
-32
-23
-15
-11
-8
-10
-14
-13
-24
-24
-18
-8
2
6
-17
5
14
4
2
-14
-14
-13
-4
2
9
5
-7
8
9
16
2
-12
12
4
13
17
19
31
25
20
27
33
33
25
21
14
36
27
34
40
38
48
37
18
34
32
24
30
26
29
22
12
14
26
15
19
13
25
23
3
-6
-9
10
4
-1
-13
-11
-9
-6
-28
-23
-32
-12
-17
-20
-20
-33
-33
-30
-22
-16
-16
-20
-30
-21
-26
-30
-33
-26
-23
-21
-20
-31
-24
-19
-20
-19
-24
-14
-12
-28
-30
-26
-25
-42
-31
-32
-35
-41
-42
-42
-30
-28
-42
-38
-21
-17
-17
-22
-21
-25
-35
-28
-27
-34
-25
-22
-31
-32
-31
-33
-23
-18
-23
-30
-29
-25
-10
-8
-19
-29
-33
-35
-24
-39
-38
-35
-27
-32
-14
-21
-22
-29
-27
-16
-13
-19
-35
-36
-19
-30
-28
-22
-28
-31
-34
-29
-25
-28
-27
-27
-22
-28
-23
-18
-20
-37
-27
-19
-17
-21
-38
-38
-35
-39
-31
-15
-9
-23
-25
-29
-38
-37
-43
-28
-24
-30
-26
-26
-29
-34
-17
-29
-25
-40
-28
-20
-18
-22
-27
-30
-33
-30
-30
-26
-36
-18
-16
-24
-37
-54
-39
-23
-32
-24
-21
-22
-22
-34
-37
-30
-43
-24
-18
-24
-34
-9
-24
-34
-32
-52
-34
-20
-21
-30
-14
-12
-11
-16
-21
-16
-19
-22
-10
-11
-24
-42
-25
-27
-27
-35
-37
-28
-13
-25
-31
-34
-36
-18
-23
-11
-14
-20
-26
-25
-30
-24
-27
-29
-43
-46
-28
-39
-42
-38
-37
-42
-25
-27
-34
-44
-49
-44
-40
-30
-33
-31
-20
-34
-39
-47
-29
-28
-25
-36
-43
-31
-19
-39
-25
-17
-7
-8
3
2
21
5
4
-15
-25
-37
-24
-26
-38
-46
-55
-62
-73
-68
-70
-56
-47
-50
-36
-35
-33
-43
-38
-50
-46
-34
-21
-24
-21
-15
-30
-43
-43
-44
-36
-22
-25
-28
-22
-22
-38
-32
-35
-30
-24
-34
-23
-34
-26
-43
-32
-34
-23
-10
-18
-25
-30
-23
-32
-30
-40
-31
-21
-27
-28
-25
-18
-20
-23
-24
-26
-24
-27
-20
-28
-29
-13
-7
-18
-21
-36
-36
-15
-13
-17
-5
-10
-17
-19
-10
-3
-16
-20
-24
-17
-16
-16
-14
-5
-11
-9
-2
-8
-11
-20
-8
19
14
0
7
10
12
15
3
9
7
18
23
32
27
10
14
24
30
20
16
19
23
31
36
23
8
-8
7
21
18
4
20
32
20
6
5
10
-3
3
-9
-2
-3
-11
-17
-25
-41
-28
-17
-31
-21
-23
-31
-24
-23
-17
-15
-20
-20
-34
-37
-48
-49
-47
-39
-22
-28
-36
-41
-29
-25
-21
-32
-31
-43
-35
-31
-32
-34
-45
-50
-35
-26
-13
-31
-40
-37
-43
-48
-32
-35
-32
-44
-35
-24
-29
-25
-29
-42
-39
-38
-36
-32
-37
-35
-39
-44
-31
-31
-50
-32
-32
-24
-29
-44
-41
-32
-37
-38
-35
-43
-29
-20
-23
-26
-33
-47
-48
-41
-33
-35
-32
-13
-30
-33
-31
-29
-36
-34
-32
-33
-36
-52
-28
-30
-37
-41
-38
-32
-27
-24
-35
-27
-25
-40
-30
-30
-41
-30
-35
-39
-41
-37
-39
-38
-43
-36
-35
-24
-32
-40
-42
-26
-29
-32
-32
-32
-30
-34
-33
-34
-28
-30
-26
-46
-45
-46
-50
-38
-42
-30
-24
-26
-39
-44
-52
-44
-31
-34
-32
-34
-27
-31
-33
-33
-34
-25
-28
-36
-37
-36
-38
-36
-33
-35
-41
-37
-38
-32
-31
-37
-36
-26
-41
-40
-44
-41
-40
-33
-28
-30
-32
-37
-35
-37
-32
-28
-34
-41
-37
-41
-37
-24
-25
-27
-27
-23
-29
-16
-33
-35
-23
-27
-21
-24
-20
-26
-33
-32
-31
-33
-35
-33
-41
-33
-32
-28
-30
-25
-15
-17
-16
-27
-31
-33
-27
-29
-39
-51
-47
-32
-41
-54
-39
-35
-42
-37
-30
-25
-33
-42
-49
-34
-37
-32
-40
-35
-33
-43
-47
-42
-47
-47
-34
-27
-29
-32
-43
-31
-32
-37
-31
-33
-23
-19
-20
-9
8
17
2
4
-22
-28
-30
-31
-38
-45
-49
-49
-61
-57
-55
-58
-47
-39
-30
-42
-40
-48
-49
-28
-36
-43
-44
-36
-31
-37
-31
-31
-37
-41
-47
-41
-12
-21
-26
-44
-34
-29
-24
-23
-22
-24
-32
-29
-34
-41
-32
-35
-31
-41
-43
-33
-26
-28
-39
-29
-11
1
-23
-37
-40
-42
-39
-42
-36
-17
-2
-16
-22
-28
-27
-24
-32
-33
-42
-28
-25
-27
-33
-26
-11
-20
-21
-14
-14
-13
-8
-13
-4
-13
-20
-19
-22
7
-10
-16
-23
-17
-17
-14
-23
-24
-18
1
6
21
11
11
5
15
12
4
2
-7
8
6
5
9
4
14
20
30
26
14
18
10
25
18
12
18
19
12
15
12
5
10
0
3
16
11
6
-6
-15
-23
-15
-7
-3
7
-10
-24
-28
-24
-27
-35
-32
-24
-29
-24
-28
-30
-25
-35
-32
-30
-26
-33
-38
-42
-46
-40
-33
-38
-31
-34
-26
-33
-34
-31
-39
-31
-36
-34
-32
-29
-35
-33
-22
-24
-20
-35
-42
-33
-19
-31
-32
-46
-43
-41
-46
-40
-34
-40
-31
-23
-25
-25
-31
-47
-46
-50
-30
-38
-35
-29
-26
-35
-34
-44
-33
-38
-47
-38
-34
-29
-34
-39
-32
-30
-32
-28
-19
-22
-28
-21
-27
-31
-35
-35
-34
-39
-38
-44
-40
-30
-27
-29
-30
-31
-33
-42
-28
-44
-50
-43
-32
-38
-31
-29
-34
-26
-22
-31
-30
-35
-38
-36
-29
-32
-31
-15
-22
-22
-35
-40
-41
-39
-35
-29
-39
-39
-48
-34
-29
-28
-33
-30
-35
-41
-36
-29
-33
-28
-23
-33
-42
-43
-39
-38
-33
-28
-29
-30
-26
-22
-36
-46
-55
-48
-28
-21
-36
-47
-39
-40
-30
-34
-29
-26
-30
-38
-31
-36
-41
-43
-42
-35
-33
-34
-25
-22
-28
-36
-27
-38
-38
-40
-41
-38
-34
-21
-27
-39
-36
-49
-44
-33
-23
-24
-27
-32
-30
-36
-42
-35
-42
-41
-44
-38
-31
-27
-29
-25
-22
-20
-38
-40
-35
-32
-35
-28
-40
-39
-47
-48
-43
-35
-27
-20
-21
-21
-34
-26
-26
-47
-43
-31
-29
-25
-41
-39
-27
-24
-31
-36
-25
-28
-25
-16
-19
-22
-29
-25
-39
-29
-33
-32
-33
-36
-29
-15
-25
-14
-16
-25
-34
-21
-21
-30
-34
-47
-54
-59
-43
-28
-29
-25
-26
-29
-25
-26
-33
-37
-44
-43
-43
-42
-35
-37
-41
-32
-33
-39
-40
-37
-39
-40
-44
-49
-52
-39
-39
-40
-34
-16
-26
-29
-31
-19
-16
-16
-5
7
17
2
5
-25
-31
-32
-35
-43
-31
-41
-63
-79
-70
-49
-40
-42
-38
-34
-27
-27
-21
-35
-40
-29
-37
-32
-32
-40
-33
-36
-39
-35
-34
-40
-45
-31
-29
-32
-43
-19
-35
-43
-30
-31
-22
-42
-29
-20
-27
-14
-29
-44
-32
-36
-27
-20
-29
-29
-35
-35
-30
-29
-27
-27
-23
-24
-23
-18
-23
-23
-22
-28
-26
-24
-29
-29
-18
-25
-26
-33
-31
-23
-26
-23
-20
-19
-15
-3
-21
-13
-13
-24
-34
-23
-2
-15
-11
-22
-16
-15
3
0
1
-7
-16
-15
-20
-2
-2
6
23
17
13
14
-1
5
21
21
20
4
10
24
13
20
11
3
5
17
30
32
38
33
19
17
18
11
9
13
12
2
9
8
-6
9
7
2
-1
-2
-4
-18
-11
-9
-9
-28
-25
-32
-27
-28
-29
-27
-35
-23
-22
-12
-23
-26
-37
-24
-24
-16
-20
-43
-40
-45
-36
-40
-41
-28
-39
-22
-25
-21
-28
-31
-40
-35
-33
-35
-35
-31
-37
-37
-24
-28
-42
-43
-46
-42
-28
-24
-28
-27
-26
-20
-28
-29
-31
-28
-32
-41
-48
-42
-24
-21
-23
-35
-38
-18
-19
-23
-34
-36
-34
-27
-40
-38
-38
-33
-34
-32
-44
-43
-38
-39
-29
-30
-33
-31
-30
-27
-20
-25
-24
-23
-22
-19
-27
-50
-48
-31
-28
-47
-46
-38
-39
-28
-27
-25
-28
-20
-34
-32
-30
-33
-37
-43
-43
-31
-24
-38
-37
-27
-29
-26
-32
-30
-36
-39
-35
-37
-37
-33
-33
-24
-22
-40
-48
-30
-23
-23
-43
-45
-43
-26
-11
-24
-23
-18
-23
-34
-44
-43
-35
-40
-29
-30
-36
-28
-33
-35
-35
-34
-45
-40
-33
-28
-27
-24
-25
-22
-35
-37
-42
-45
-26
-27
-36
-33
-36
-35
-24
-29
-37
-43
-38
-35
-37
-46
-45
-43
-26
-36
-34
-44
-40
-26
-17
-28
-20
-27
-29
-32
-38
-32
-33
-20
-25
-25
-30
-41
-53
-39
-29
-22
-27
-33
-30
-39
-40
-45
-28
-27
-32
-26
-39
-44
-40
-28
-34
-31
-6
-31
-35
-36
-28
-32
-26
-23
-27
-35
-32
-35
-26
-34
-20
-9
-18
-22
-19
-17
-22
-20
-20
-19
-27
-24
-20
-19
-29
-30
-16
-20
-34
-43
-35
-30
-35
-40
-36
-35
-15
-21
-32
-51
-41
-10
-19
-19
-15
-22
-16
-41
-50
-43
-27
-25
-27
-38
-34
-48
-46
-42
-24
-27
-33
-35
-38
-37
-29
-33
-47
-56
-57
-44
-31
-34
-20
-22
-26
-30
-30
-32
-21
-18
-12
-4
-15
6
16
11
-2
-29
-29
-19
-36
-46
-28
-38
-48
-61
-53
-54
-48
-47
-46
-35
-43
-39
-28
-34
-31
-24
-28
-25
-25
-27
-34
-29
-30
-40
-31
-20
-8
-4
-11
-32
-42
-47
-51
-31
-18
-24
-35
-40
-35
-27
-36
-36
-40
-29
-22
-17
-27
-20
-16
-22
-13
-5
-15
-18
-16
-16
-13
-20
-26
-35
-32
-36
-33
-25
-29
-21
-17
-3
-6
-7
-15
-27
-17
-7
-23
-16
-23
-12
-4
-15
-22
-26
-7
-8
-7
-15
-17
-7
-1
-11
-8
0
-2
12
24
5
-16
1
-8
-3
2
4
20
14
8
3
7
6
8
13
9
30
25
25
31
18
29
35
38
41
25
21
20
25
24
26
32
35
38
23
12
9
1
5
17
19
10
-8
1
7
-4
-19
-16
2
-4
2
-9
-4
-21
-17
-27
-19
-21
-12
-18
-29
-26
-26
-30
-42
-46
-40
-26
-13
-18
-25
-30
-27
-32
-19
-24
-31
-23
-28
-36
-44
-41
-40
-36
-25
-16
-30
-24
-18
-24
-28
-33
-30
-34
-36
-42
-26
-25
-22
-21
-24
-10
-41
-48
-41
-29
-23
-23
-32
-30
-31
-37
-35
-39
-24
-37
-30
-22
-19
-30
-41
-27
-32
-27
-28
-23
-25
-11
-11
-26
-33
-28
-36
-27
-38
-42
-43
-29
-37
-26
-23
-27
-36
-34
-23
-30
-20
-17
-16
-30
-30
-34
-34
-43
-29
-32
-32
-33
-34
-29
-18
-16
-28
-37
-38
-33
-28
-20
-26
-27
-35
-50
-53
-53
-26
-24
-15
-21
-14
-9
-12
-17
-32
-35
-38
-45
-49
-37
-23
-22
-17
-25
-14
-23
-19
-23
-31
-36
-51
-56
-46
-23
-11
-26
-31
-25
-24
-16
-28
-38
-33
-39
-37
-30
-34
-35
-26
-32
-34
-34
-21
-23
-22
-22
-18
-30
-21
-19
-23
-18
-28
-39
-36
-33
-51
-51
-67
-56
-33
-12
-2
-10
-22
-27
-38
-28
-24
-26
-25
-29
-27
-31
-38
-27
-17
-2
-18
-15
-15
-15
-15
-26
-33
-35
-40
-21
-9
-10
-21
-6
3
-10
-17
-33
-18
-22
-35
-40
-32
-14
-27
-31
-31
-17
-12
-29
-23
-29
-34
-28
-31
-29
-29
-33
-35
-28
-33
-28
-38
-42
-35
-32
-27
-27
-32
-24
-22
-23
-38
-38
-30
-39
-31
-25
-26
-28
-38
-30
-33
-36
-27
-26
-27
-4
22
24
19
21
13
24
16
-17
-35
-35
-47
-56
-60
-51
-66
-65
-66
-65
-48
-50
-39
-31
-33
-42
-40
-34
-36
-31
-31
-34
-40
-13
-30
-34
-31
-42
-29
-22
-21
-24
-22
-19
-35
-36
-14
-9
-3
-18
-29
-26
-32
-28
-21
-23
-23
-18
-17
-21
-16
-18
-24
-25
-24
-21
-33
-24
-19
-32
-20
-22
-18
-38
-31
-11
-12
-17
-18
-9
-14
-27
-25
-12
-4
6
-7
-16
-3
-5
2
-8
-5
-21
-20
-12
-1
-6
-8
-8
-13
-11
-7
-6
-1
-7
2
3
10
-2
11
32
27
19
11
11
13
4
11
10
26
34
23
37
32
39
39
35
24
18
8
20
25
43
45
30
34
38
33
28
25
28
32
43
40
33
27
14
2
13
7
14
12
7
-2
-13
-16
-16
-14
-7
-9
-14
-10
-5
-14
-22
-17
-11
-38
-36
-31
-21
-23
-23
-30
-33
-30
-21
-23
-25
-24
-26
-39
-40
-34
-34
-23
-28
-25
-17
-19
-29
-23
-17
-28
-25
-16
-30
-38
-42
-36
-31
-25
-26
-35
-17
-24
-36
-28
-21
-19
-24
-35
-35
-27
-33
-33
-25
-29
-29
-40
-37
-38
-37
-25
-27
-24
-30
-21
-20
-7
-16
-26
-26
-33
-26
-26
-35
-30
-28
-27
-24
-26
-21
-21
-31
-32
-30
-24
-25
-34
-22
-23
-23
-28
-31
-34
-27
-28
-41
-24
-25
-32
-25
-36
-41
-24
-24
-27
-32
-20
-26
-35
-23
-22
-29
-35
-40
-27
-33
-32
-27
-23
-24
-28
-26
-34
-32
-24
-31
-36
-39
-40
-58
-34
-23
-25
-17
-35
-23
-15
-23
-37
-28
-25
-27
-27
-28
-30
-40
-40
-33
-30
-47
-42
-20
-22
-25
-42
-25
-24
-18
-28
-32
-37
-46
-44
-44
-25
-13
-35
-36
-28
-38
-36
-25
-18
-27
-21
-21
-19
-17
-19
-18
-29
-26
-27
-27
-18
-19
-28
-30
-26
-22
-17
-10
-27
-21
-18
-27
-30
-25
-15
-13
-24
-31
-27
-17
-26
-21
-29
-43
-51
-49
-49
-25
-27
-32
-31
-33
-14
-34
-32
-39
-40
-30
-31
-41
-43
-30
-38
-31
-34
-35
-40
-46
-44
-48
-35
-23
-23
-41
-34
-41
-38
-22
-29
-41
-32
-19
-10
0
13
7
6
9
-2
-12
-28
-27
-30
-43
-54
-63
-61
-66
-81
-72
-63
-67
-50
-36
-33
-34
-33
-42
-34
-39
-45
-36
-29
-28
-32
-47
-47
-42
-39
-31
-33
-30
-33
-25
-17
-15
-29
-33
-24
-27
-35
-34
-30
-25
-18
-28
-34
-37
-32
-33
-10
-11
-13
-29
-28
-33
-31
-36
-49
-41
-27
-21
-22
-25
-29
-26
-16
-6
-13
-24
-22
-6
-21
-17
-14
-27
-33
-32
-20
-14
-3
-19
-21
-21
-19
-14
-13
-28
-12
-10
-8
-5
-1
-4
-4
6
7
-3
-14
-8
-4
1
6
10
0
-7
14
17
14
25
27
12
14
17
10
22
26
29
36
27
26
19
13
30
25
24
33
24
19
27
24
22
22
33
16
15
15
17
3
5
8
-1
2
7
2
-4
-23
-29
-10
-12
-11
-1
-5
-17
-17
-15
-32
-34
-29
-24
-30
-44
-31
-18
-19
-23
-34
-39
-24
-27
-30
-34
-27
-24
-27
-40
-34
-41
-46
-28
-14
-27
-32
-35
-27
-26
-37
-31
-39
-34
-30
-32
-26
-28
-36
-29
-27
-34
-41
-47
-38
-42
-41
-32
-39
-31
-19
-40
-48
-28
-24
-23
-20
-23
-27
-32
-40
-42
-34
-36
-27
-24
-20
-9
-19
-40
-35
-21
-29
-39
-35
-27
-25
-23
-18
-11
-27
-38
-28
-27
-25
-18
-24
-32
-25
-47
-34
-43
-40
-43
-34
-22
-20
-23
-25
-19
-32
-36
-33
-24
-30
-49
-41
-20
-23
-24
-34
-32
-30
-32
-24
-26
-33
-45
-45
-24
-20
-19
-31
-16
-3
-21
-31
-46
-55
-44
-32
-29
-24
-15
-25
-34
-39
-38
-27
-12
-26
-41
-44
-46
-31
-33
-26
-29
-25
-23
-18
-5
-20
-27
-51
-30
-21
-15
-10
-15
-34
-46
-45
-35
-42
-25
-30
-34
-28
-29
-41
-35
-27
-32
-24
-24
-31
-32
-31
-24
-25
-41
-31
-21
-24
-27
-21
-17
-6
-14
-37
-35
-37
-30
-26
-21
-19
-21
-25
-27
-27
-22
-16
-16
-22
-36
-22
-16
-26
-24
-20
-11
-15
-15
-24
-26
-23
-18
-12
-17
-30
-29
-28
-39
-33
-33
-28
-31
-45
-38
-36
-41
-42
-25
-16
-22
-23
-27
-25
-20
-27
-28
-53
-53
-40
-31
-12
-14
-28
-38
-41
-39
-57
-55
-33
-20
-12
-28
-27
-30
-25
-25
-25
-11
10
37
39
40
11
-20
-51
-77
-46
-21
-3
-6
-32
-57
-66
-61
-50
-43
-45
-49
-44
-31
-33
-24
-24
-32
-29
-43
-33
-33
-25
-29
-35
-40
-43
-42
-32
-35
-33
-18
-12
-23
-30
-35
-20
-26
-26
-26
-24
-23
-27
-20
-23
-16
-5
-24
-32
-25
-21
-26
-27
-34
-24
-17
-23
-30
-30
-21
-19
-18
-29
-33
2
-2
-15
-23
-30
-10
-12
-17
-13
-26
-24
-13
-15
-14
-30
-23
-4
-6
-12
-17
-2
2
-15
-21
-14
-13
-20
-9
-8
7
-3
-3
3
6
-1
5
15
4
11
-2
10
20
28
23
12
16
12
14
22
13
15
32
34
33
28
30
24
42
40
27
20
17
18
14
19
22
23
33
30
14
1
21
28
20
14
5
-13
-15
-2
-7
-11
-10
-4
3
0
-5
-5
-1
-3
-19
-18
-32
-27
-31
-28
-24
-24
-21
-31
-31
-27
-31
-32
-19
-29
-36
-38
-29
-32
-31
-40
-46
-31
-25
-32
-19
-20
-22
-25
-19
-28
-18
-13
-25
-50
-31
-37
-23
-21
-39
-25
-34
-37
-34
-31
-22
-15
-17
-31
-29
-27
-39
-34
-40
-29
-24
-29
-29
-17
-19
-20
-29
-30
-31
-34
-34
-40
-33
-22
-22
-15
-10
-15
-26
-26
-29
-24
-25
-29
-37
-28
-21
-13
-23
-28
-30
-24
-15
-13
-28
-32
-34
-37
-25
-32
-29
-13
-27
-20
-15
-9
-24
-27
-38
-26
-29
-27
-23
-12
-26
-30
-24
-20
-21
-28
-29
-53
-42
-25
-27
-20
0
3
-7
-26
-30
-28
-25
-25
-28
-29
-28
-26
-23
-31
-29
-26
-42
-41
-43
-31
-14
-20
-15
-7
-42
-47
-43
-25
-12
-18
-12
-22
-21
-33
-24
-20
-24
-27
-30
-31
-40
-45
-15
-10
1
-25
-27
-32
-24
-14
-3
-12
-19
-35
-28
-16
-23
-30
-28
-31
-38
-25
-28
-28
-35
-17
-17
-7
-10
-1
-3
-21
-21
-13
-26
-15
-20
-19
-12
-20
-22
-25
-20
-23
-29
-18
-31
-37
-16
-13
-1
-20
-17
-15
-31
-30
-25
-24
-24
-20
-22
-18
-20
-33
-23
-19
-21
-23
-30
-42
-31
-27
-35
-42
-24
-28
-34
-20
-35
-36
-36
-41
-48
-49
-41
-16
-3
-27
-19
-25
-14
6
10
8
9
6
12
5
-8
-14
-30
-42
-52
-38
-39
-43
-41
-48
-73
-55
-58
-35
-34
-32
-27
-17
-25
-23
-22
-10
-26
-18
-35
-52
-40
-14
-18
-22
-41
-32
-35
-26
-29
-23
-16
-18
-35
-27
-24
-42
-27
-32
-24
-19
-21
-38
-42
-32
-34
-37
-12
-4
-2
7
3
-16
-21
-22
-11
-9
-14
-24
-37
-21
-22
-23
-21
-24
-33
-36
-19
-23
-24
-20
-2
2
-13
-20
-16
-18
-16
-24
-34
-21
1
-5
-4
-6
14
-8
-6
-9
-7
-5
14
9
-7
7
8
5
8
9
2
-6
-12
-4
-6
12
38
25
23
9
2
30
40
19
13
23
30
21
22
27
27
32
30
29
17
28
23
35
25
19
22
25
30
25
28
13
8
21
11
2
-18
-1
4
-7
-18
-23
-9
-12
-27
-33
-19
-19
-21
-48
-56
-32
-28
-16
5
-18
-13
-3
-9
-28
-31
-52
-36
-17
-17
-17
-17
-26
-25
-42
-28
-22
-24
-27
-31
-25
-20
-32
-20
-26
-31
-27
-18
-22
-16
-18
-18
-19
-24
-19
-20
-34
-38
-34
-30
-28
-27
-29
-47
-57
-47
-15
-10
-8
-20
-22
-29
-23
-28
-28
-28
-31
-24
-27
-21
-24
-34
-15
-6
-1
2
-16
-27
-34
-31
-29
-19
-23
-22
-23
-22
-42
-28
-19
-24
-27
-25
-32
-37
-33
-20
-9
-16
-17
-26
-18
-17
-26
-26
-19
-13
-15
-19
-21
-20
-26
-27
-25
-26
-20
-24
-19
-30
-34
-44
-48
-41
-40
-29
-20
-12
7
-2
-8
-18
-19
-31
-12
-29
-28
-23
-26
-25
-22
-21
-25
-29
-21
-19
-3
-18
-28
-22
-19
-20
-38
-32
-29
-34
-39
-34
-35
-23
-39
-18
-16
-8
2
-3
-8
-21
-19
-26
-36
-32
-23
-18
-7
-15
-6
-17
-31
-13
-4
-7
-18
-14
-13
-16
-17
-19
-20
-37
-25
-16
-16
-16
-12
-8
-13
-9
-29
-17
-1
-7
-10
-16
-26
-18
-20
-34
-24
-29
-41
-52
-43
-27
-19
-28
-33
-25
-28
-41
-43
-30
-24
-30
-32
-10
-7
-7
-14
-22
-33
-31
-33
-23
-22
-12
5
-6
-32
-35
-23
-29
-15
-21
0
19
19
10
-6
3
7
-14
-18
-21
-32
-34
-43
-61
-69
-62
-56
-40
-22
-19
-37
-24
-16
-16
-31
-23
-30
-31
-18
-18
-7
-24
-27
-39
-34
-48
-41
-27
-8
-17
-11
-12
-13
-28
-25
1
-4
-6
-9
-14
-15
-19
-14
-22
-31
-25
-14
-6
-18
-31
-25
-22
-11
-18
-25
-5
-10
-7
-9
-14
-26
-14
-23
-38
-39
-24
-12
-6
-1
-7
0
3
11
4
-11
-17
-9
-1
-3
-3
-7
-11
-20
-25
-19
-9
-6
-4
7
14
2
11
14
-2
-3
5
32
13
4
9
5
11
20
15
25
29
35
35
45
34
14
14
23
22
17
18
42
27
25
33
39
45
44
32
31
15
21
15
25
28
26
26
27
20
5
27
37
42
24
9
5
-7
-9
-9
-4
-11
-7
-8
-2
-15
-16
-6
-25
-20
-12
-16
-16
-31
-37
-34
-32
-27
-24
-12
-8
-17
-16
-30
-33
-34
-31
-20
-33
-24
-9
1
-7
-11
-12
-17
-18
-32
-28
-25
-20
-34
-31
-18
-29
-34
-29
-44
-30
-26
-17
-6
-6
4
-13
-29
-17
-23
-9
-26
-24
-14
-8
-34
-32
-25
-28
-26
1
-3
-21
-48
-34
-33
-11
-22
-24
-30
-25
-16
-26
-29
-26
-27
-11
-7
-29
-26
-34
-14
-10
-17
-19
-33
-33
-29
-6
-16
-20
-24
-34
-11
-24
-20
-21
-17
-16
-13
-15
-23
-19
-28
-24
-25
-29
-30
-31
-29
-25
-17
-29
-30
-45
-34
-26
-20
1
-6
-8
-6
-10
-20
-26
-20
-31
-28
-24
-29
-9
-12
-12
-12
-15
-8
-23
-31
-34
-35
-34
-33
-28
-29
-35
-38
-32
-24
-13
-14
-15
-14
-19
-13
-11
-5
-9
-18
-16
-10
-8
-20
-4
-11
-19
-18
-10
-8
-9
-6
-9
-9
-11
-15
-5
-9
-20
-9
-5
-10
-2
0
-11
-18
-24
-25
-11
-19
-14
-23
-31
-27
-21
-15
-4
-15
-24
-29
-27
-24
-20
-14
-8
-21
-33
-23
-19
-29
-36
-34
-20
-17
-27
-26
-17
-35
-31
-29
-29
-30
-19
-17
-13
-3
2
12
14
11
14
16
16
20
16
13
-2
0
-13
-23
-34
-39
-56
-55
-54
-44
-41
-41
-20
-23
-27
-37
-34
-25
-23
-20
-20
-26
-11
-16
-23
-24
-6
-3
-8
-5
-1
-1
-2
-14
-26
-23
-19
-18
-24
-20
-26
-30
-33
-16
-5
5
-5
-1
-6
-16
-10
-7
11
12
0
-13
-12
-8
-22
-25
-23
-13
2
-8
-5
-12
-2
9
0
-8
-12
-1
-10
-5
5
0
-5
-4
-2
-11
-14
-7
-20
-9
29
11
16
4
12
25
8
9
9
2
0
-4
3
21
23
26
23
23
28
34
20
24
26
31
40
39
23
31
38
40
48
38
28
14
21
32
63
57
51
52
56
42
40
49
34
36
36
50
51
52
42
15
12
13
19
21
27
31
20
13
15
2
2
26
22
15
14
1
-2
-18
-32
-5
6
-5
-13
-17
-12
-3
-9
-25
-18
-16
-7
-13
-11
-7
-5
-13
-19
-20
-30
-14
-3
0
-7
-14
-17
-16
-8
-4
-5
-8
-10
-16
-13
-8
-10
-17
-31
-40
-40
-15
-6
-6
0
-6
-20
-14
-9
-13
-9
-8
-4
-6
-1
-4
-7
-23
-24
-18
-22
-9
2
-6
-6
-15
-22
-22
-16
-11
-2
8
10
5
17
0
-26
-44
-34
-39
-31
-12
8
-4
-19
-15
-24
-34
-21
-8
-10
-6
-8
-6
-2
-7
-16
-16
-14
-14
-14
-11
-10
-3
12
2
-3
-19
-22
-16
-19
-17
-16
-15
-8
-10
-26
-27
-13
0
-4
-20
-12
0
-6
-22
-16
-22
-14
-9
-11
-23
-18
-4
-2
-6
-2
-6
9
4
-15
-19
-10
-11
19
15
-1
-9
-12
-14
-5
0
-9
-12
-18
-32
-40
-14
6
5
-3
-1
-3
-6
-5
1
8
2
-7
-7
1
2
-25
-37
-31
-27
-26
-32
-22
-25
-31
-19
-19
-8
10
0
-30
-37
-32
-19
-13
-18
-24
-23
-22
-23
-24
-22
-12
-14
4
-16
-17
-17
-20
-12
12
32
39
43
41
27
28
20
5
-28
-52
-39
-35
-28
-23
-36
-39
-48
-46
-56
-48
-18
-21
-11
-22
-12
-6
-19
-15
-21
-16
-10
-7
-14
-13
-19
-6
-10
-27
-25
-15
-5
-23
-11
-4
5
1
-12
-25
-29
-3
0
-2
-5
4
-4
-7
-6
-3
-6
4
3
-3
-3
-7
-4
-11
-20
-3
1
-19
-22
-7
-2
10
14
-6
-8
1
3
9
-8
-10
-5
-6
1
7
18
14
-3
6
14
5
5
2
-2
1
13
13
9
8
35
35
7
11
15
19
18
21
32
31
26
29
29
32
38
36
42
30
34
29
43
44
37
50
37
27
33
41
53
58
53
47
49
53
53
46
47
45
40
37
30
39
29
27
36
30
2
10
5
17
16
27
24
23
3
-8
-4
-16
8
6
10
-10
-9
-2
-16
-8
9
-5
-5
2
6
0
-21
-32
-14
-12
-10
4
9
2
-21
-16
-16
-18
-24
-28
-18
-27
-26
-19
-23
-22
16
18
1
-17
-17
-19
-9
-1
-9
-20
-8
-3
-2
-11
-21
-8
-24
-15
-17
-3
3
-4
-9
-14
-15
-16
-13
-29
-40
-17
-1
-9
2
13
-2
-13
-7
-8
-19
-25
-12
2
4
1
-4
-18
-18
-15
-13
-19
-13
-9
1
13
13
-7
-5
-12
-22
-9
-12
-15
-28
-27
-15
-9
-17
-15
-16
-4
5
1
8
2
-10
-6
-3
-9
-17
-12
-12
-10
-5
-6
-9
-7
-9
0
-2
-9
-11
-12
0
-10
-17
-24
-22
-7
-9
-16
-16
-13
6
1
-1
-3
7
-7
1
-7
-13
0
4
-1
7
4
4
8
5
8
0
13
1
11
-5
-15
5
11
4
-3
-4
-10
5
14
-1
-1
0
-6
-11
-16
-9
-4
-11
-12
-10
-30
-23
-12
-21
-5
-6
-8
-18
-12
-2
-12
-21
-15
-13
-2
5
-12
2
4
7
-2
-10
-13
-5
-5
-13
-14
2
3
2
-14
-1
11
17
42
52
52
41
37
34
2
-9
-15
-16
-14
-38
-55
-43
-48
-24
-22
-28
-29
-22
-20
-13
5
0
-4
-23
3
13
-4
-12
-16
-7
1
-3
-15
-10
19
10
-4
-20
-20
-4
-3
8
-7
-8
-25
-19
8
6
13
5
-6
5
0
0
11
13
6
-12
-4
-11
0
5
10
10
-1
15
10
10
14
-1
-1
2
10
11
-1
-7
2
6
16
14
0
11
8
16
15
25
18
11
5
2
5
1
8
8
18
25
29
13
28
22
28
27
23
28
25
26
28
24
23
21
26
39
40
73
70
48
41
41
45
48
59
65
53
36
31
44
49
49
42
51
54
48
52
57
39
43
41
38
37
34
35
30
38
46
30
12
7
7
12
6
6
13
9
13
9
6
11
7
6
15
-6
-9
-13
-15
-3
-2
-1
2
-7
-11
-28
-21
-11
9
18
4
-15
-10
-7
-17
2
-3
3
-4
7
-5
-14
-16
-16
-5
-3
-5
-12
-10
-3
-14
-21
-11
-4
-6
-12
-13
-17
-18
-19
-22
-9
-14
-1
-10
-4
-6
-9
1
20
3
-10
-6
5
10
-4
-14
-18
-20
-25
-10
-6
-4
-6
1
-3
-11
-10
-10
-10
-16
-11
-16
-11
-13
-4
-6
-28
-12
-9
-13
-10
-14
9
26
9
0
-9
-8
-14
-17
-8
-15
-1
3
1
-10
-11
-11
-7
-8
-16
-8
-4
1
-13
-32
-32
-22
-24
-13
-1
-3
1
-3
-13
-17
-18
-7
3
-1
-1
-2
-6
-14
-3
-2
6
-5
-12
-8
-11
-11
-4
3
-4
-8
6
6
13
-10
-8
-2
-7
9
1
-12
-33
-35
-8
7
-5
-18
-2
14
9
18
-4
-1
-2
-4
-9
-21
-11
-14
-28
-12
-7
-6
-28
-28
-21
-12
-27
-11
-14
-10
-17
-23
-23
-33
-14
-5
0
0
-15
-16
-20
-10
-10
-3
-16
-18
-14
-7
-13
-20
-15
2
15
16
7
18
20
33
22
7
6
9
-10
-19
-30
-24
-30
-38
-44
-45
-53
-51
-56
-38
-31
-8
-4
-8
-15
-21
-12
-14
-1
4
4
-16
-29
-15
-15
-19
-21
-15
-27
-25
-9
-7
-2
0
-10
-9
-6
-29
-20
-16
-13
-7
-8
-15
-7
-3
-4
-14
-8
0
-5
6
16
15
-9
-16
-11
-2
-1
-12
-10
-8
-27
-21
5
6
2
-2
-3
-13
-11
-14
-6
-1
9
7
-4
-1
0
-6
-12
-7
-4
2
11
12
13
14
7
5
6
13
26
20
15
19
14
17
15
15
28
25
28
21
24
31
29
34
21
39
35
20
25
39
23
29
42
41
40
41
34
45
51
35
31
34
45
35
25
29
22
14
11
8
16
21
22
17
14
14
4
9
4
-1
-4
-2
-7
-3
-14
-14
-15
-14
-6
-8
-12
-5
-15
-1
-12
-24
-20
-31
-18
-19
-19
-20
-10
-11
-15
-19
-25
-37
-17
12
14
-10
-17
-9
-21
-22
-19
-22
-15
-21
-26
-24
-27
-22
-16
-19
-23
-19
-13
-20
-19
-17
-12
-17
-23
-20
-29
-20
-12
-13
-9
-8
-13
-21
-20
-22
-33
-24
-16
-19
-9
-3
-5
-15
-9
-5
-12
-11
-12
-29
-27
-28
-17
-15
-22
-23
-23
-12
-12
-8
-13
-23
-23
-27
-20
-17
-11
-7
-8
-25
-30
-26
-9
-14
-19
-17
-18
-19
-23
-27
-27
-19
-17
-13
-14
-13
-3
-2
-22
-20
-32
-30
-28
-6
-8
-18
-22
-27
-33
-21
-16
-32
-24
-19
-18
-22
-26
-19
-16
-25
-28
-20
-1
-22
-34
-28
-37
-27
-14
-9
-3
-10
-6
-9
-10
-8
-11
-6
-16
-28
-23
-23
-31
-24
-19
-24
-7
-7
-24
-28
-9
-13
-9
-12
-24
-23
-20
-6
-13
-8
-7
0
-5
-10
-30
-35
-29
-28
-41
-47
-39
-10
-16
-2
-9
-15
-27
-21
-36
-56
-33
-33
-31
-11
-4
-25
-22
-28
-33
-28
-26
-33
-22
-35
-36
-28
-29
-29
-28
-28
-32
-22
-24
-22
-21
3
0
2
1
3
10
14
5
-8
-11
-13
-21
-20
-26
-19
-37
-49
-53
-52
-40
-54
-47
-48
-45
-34
-36
-31
-36
-32
-27
-23
-10
-22
-25
-20
-37
-42
-28
-26
-24
-14
-10
-12
-22
-26
-20
-19
-20
-19
-21
-21
-18
-23
-33
-25
-10
-7
-18
-20
-22
-33
-25
-11
-15
-25
-30
-30
-25
-30
-17
-21
-24
-18
-25
-27
-32
-20
1
-6
-22
-21
-12
-10
-14
-9
-1
-4
-8
-12
-18
-24
-16
-12
-22
-14
0
4
1
-10
-18
-9
-5
-14
-8
-11
7
13
7
-2
-12
-4
0
0
3
14
12
14
12
14
8
31
14
16
11
12
27
30
18
8
10
3
25
36
37
17
11
21
13
18
31
33
22
23
27
11
8
7
5
3
3
1
9
5
-14
-24
-13
-1
6
11
-7
-26
-23
-14
-32
-34
-34
-23
-27
-32
-32
-26
-35
-21
-19
-31
-32
-17
-14
-26
-32
-32
-26
-41
-39
-33
-23
-15
-32
-31
-28
-16
-29
-28
-27
-27
-29
-24
-24
-26
-31
-31
-40
-32
-23
-18
-21
-20
-24
-40
-25
-27
-42
-25
-20
-32
-37
-49
-45
-42
-35
-31
-34
-22
-21
-29
-26
-23
-35
-35
-29
-34
-29
-24
-28
-23
-35
-22
-21
-15
-14
-27
-41
-38
-37
-28
-31
-33
-22
-16
-23
-31
-19
-35
-36
-46
-32
-45
-31
-26
-26
-23
-30
-20
-25
-38
-27
-34
-43
-25
-23
-25
-31
-44
-52
-37
-31
-30
-30
-30
-26
-28
-27
-28
-24
-26
-24
-30
-37
-30
-30
-29
-33
-39
-39
-41
-31
-29
-29
-23
-24
-30
-40
-46
-37
-42
-26
-16
-29
-21
-30
-39
-46
-37
-36
-42
-22
-38
-30
-34
-32
-23
-25
-31
-19
-20
-36
-60
-51
-41
-38
-35
-23
-30
-35
-31
-28
-38
-33
-31
-27
-32
-38
-38
-39
-40
-34
-39
-28
-12
-9
-21
-27
-36
-31
-30
-28
-24
-27
-26
-19
-24
-29
-35
-32
-26
-32
-26
-26
-39
-22
-23
-24
-27
-33
-24
-26
-28
-31
-23
-32
-39
-25
-28
-23
-26
-34
-37
-39
-28
-30
-35
-30
-37
-27
-28
-39
-37
-45
-37
-34
-44
-44
-46
-44
-40
-19
-31
-30
-42
-53
-37
-35
-37
-41
-36
-37
-32
-27
-32
-43
-41
-43
-31
-39
-33
-25
-32
-15
8
-5
1
-5
-14
-8
-23
-32
-42
-46
-47
-35
-37
-50
-51
-47
-56
-48
-50
-42
-45
-47
-50
-35
-6
-25
-30
-34
-43
-39
-29
-23
-27
-50
-35
-39
-45
-31
-36
-29
-28
-24
-27
-33
-39
-42
-37
-38
-46
-43
-20
-21
-25
-17
-31
-24
-27
-31
-41
-32
-12
-28
-16
-5
-19
-34
-37
-31
-24
-25
-42
-44
-35
-27
-26
-22
-25
-27
-36
-41
-22
-23
-26
-18
-17
-15
-15
-24
-27
-30
-28
-34
-38
-25
-14
-7
-10
-15
-16
-4
1
-3
-18
-20
-13
-10
-10
-8
1
-8
-12
-10
-1
-5
-8
7
5
7
5
7
11
14
-7
-5
8
10
10
14
5
6
7
6
8
4
3
7
10
12
11
8
8
0
2
8
0
-21
-25
-19
-21
-5
-4
-11
-11
-8
-19
-18
-32
-28
-47
-43
-10
-13
-26
-27
-31
-30
-32
-45
-36
-31
-32
-32
-41
-37
-47
-56
-49
-26
-27
-22
-31
-44
-37
-44
-44
-35
-45
-37
-31
-31
-42
-50
-39
-33
-28
-43
-28
-32
-19
-29
-21
-32
-37
-48
-43
-37
-26
-22
-28
-46
-44
-40
-38
-49
-52
-50
-45
-36
-31
-35
-40
-43
-40
-34
-40
-33
-33
-41
-44
-34
-36
-26
-26
-34
-36
-35
-30
-38
-32
-41
-43
-46
-47
-34
-39
-49
-39
-37
-39
-47
-48
-44
-27
-29
-21
-29
-43
-36
-22
-24
-38
-54
-53
-46
-34
-35
-37
-37
-38
-45
-35
-39
-35
-33
-37
-37
-48
-39
-43
-45
-40
-30
-26
-14
-36
-35
-39
-45
-25
-32
-53
-48
-46
-32
-33
-38
-42
-39
-48
-51
-54
-43
-38
-33
-26
-34
-41
-44
-39
-32
-41
-52
-44
-21
-34
-39
-38
-46
-41
-42
-30
-29
-35
-23
-35
-36
-43
-40
-26
-45
-46
-43
-42
-38
-45
-47
-48
-32
-43
-52
-59
-57
-50
-38
-29
-33
-41
-44
-46
-26
-29
-25
-33
-41
-31
-23
-47
-31
-26
-37
-45
-31
-43
-44
-45
-35
-45
-46
-52
-44
-47
-46
-45
-46
-37
-24
-36
-33
-31
-33
-38
-27
-40
-28
-31
-34
-46
-38
-34
-46
-44
-34
-34
-32
-38
-39
-24
-27
-25
-28
-46
-50
-43
-30
-15
-20
-28
-48
-37
-33
-33
-37
-38
-42
-26
-28
-47
-55
-51
-46
-30
-36
-56
-55
-43
-35
-34
-27
-46
-50
-54
-48
-55
-44
-30
-34
-42
-46
-42
-28
-29
-45
-53
-53
-51
-52
-50
-30
-32
-39
-31
-36
-44
-43
-43
-19
-24
-27
-23
-34
-30
-21
-20
-41
-35
-33
-30
-47
-53
-61
-48
-58
-67
-50
-39
-32
-40
-45
-43
-53
-35
-33
-40
-46
-47
-37
-40
-30
-24
-40
-33
-38
-45
-39
-39
-29
-41
-50
-64
-47
-33
-22
-35
-37
-35
-19
-30
-33
-44
-46
-42
-44
-43
-33
-40
-31
-27
-23
-27
-31
-33
-45
-48
-44
-33
-18
-23
-32
-33
-34
-38
-34
-36
-34
-37
-45
-53
-43
-18
-20
-22
-25
-25
-16
-21
-23
-25
-34
-34
-35
-29
-12
-31
-36
-34
-34
-27
-23
-20
-12
-17
-20
-26
-21
-3
-28
-24
-10
-5
6
-6
-2
1
16
9
-1
-8
-6
-10
4
13
11
-4
-7
3
3
7
5
8
1
2
-5
-17
-11
-1
0
5
-5
-17
-6
-2
-7
-11
-16
-19
-20
-19
-21
-16
-31
-23
-31
-28
-24
-18
-25
-24
-35
-38
-51
-43
-37
-21
-19
-12
-35
-55
-52
-53
-54
-50
-50
-46
-42
-35
-24
-24
-27
-31
-48
-49
-48
-47
-52
-60
-43
-52
-47
-43
-32
-37
-41
-40
-41
-48
-30
-26
-40
-35
-37
-41
-44
-44
-41
-47
-35
-27
-40
-59
-50
-58
-47
-41
-33
-36
-37
-55
-42
-33
-22
-27
-47
-51
-59
-58
-61
-29
-35
-38
-34
-37
-45
-41
-37
-38
-47
-44
-51
-52
-51
-45
-46
-46
-34
-33
-15
-33
-57
-50
-50
-49
-48
-50
-64
-52
-27
-32
-40
-34
-37
-45
-38
-43
-42
-49
-44
-48
-44
-36
-53
-58
-40
-31
-36
-36
-27
-33
-44
-38
-37
-42
-52
-51
-53
-38
-30
-48
-65
-48
-55
-53
-58
-45
-29
-45
-50
-44
-44
-40
-39
-33
-42
-48
-49
-44
-50
-46
-49
-46
-40
-43
-38
-45
-40
-33
-37
-34
-33
-33
-42
-53
-39
-38
-49
-47
-39
-37
-44
-51
-58
-61
-58
-44
-41
-40
-35
-50
-51
-54
-47
-52
-54
-49
-26
-29
-35
-37
-43
-53
-41
-40
-52
-52
-42
-32
-40
-31
-33
-43
-51
-45
-49
-50
-48
-40
-36
-39
-51
-51
-38
-39
-44
-44
-57
-70
-42
-26
-41
-46
-54
-45
-43
-48
-41
-35
-49
-50
-48
-30
-39
-40
-24
-29
-42
-35
-39
-39
-45
-39
-33
-32
-32
-46
-65
-47
-21
-36
-39
-45
-45
-39
-31
-26
-23
-37
-34
-38
-39
-35
-39
-39
-57
-68
-55
-60
-49
-48
-46
-45
-52
-46
-45
-53
-59
-50
-45
-49
-48
-51
-62
-55
-44
-41
-50
-48
-50
-42
-54
-47
-50
-40
-36
-43
-50
-53
-50
-40
-27
-20
-10
-8
-16
-31
-32
-22
-41
-43
-44
-38
-37
-62
-84
-97
-72
-62
-68
-47
-52
-51
-44
-58
-61
-47
-31
-31
-37
-45
-53
-43
-42
-41
-39
-56
-49
-46
-36
-45
-42
-45
-33
-54
-55
-55
-42
-46
-50
-47
-38
-44
-42
-34
-37
-43
-42
-38
-40
-37
-37
-36
-36
-42
-43
-45
-36
-35
-35
-30
-29
-29
-33
-27
-28
-49
-48
-31
-37
-50
-48
-46
-29
-28
-20
-30
-34
-46
-59
-56
-31
-22
-34
-26
-24
-21
-30
-21
-18
-27
-19
-22
-29
-30
-24
-25
-16
-5
5
3
-11
-14
-24
-20
-17
-9
-10
-11
-6
-7
-11
-2
9
-2
4
-4
1
-6
-5
-1
6
7
12
8
15
2
8
16
0
6
13
-3
-15
-19
-1
-2
0
3
-8
3
-2
-21
-26
-28
-22
-29
-41
-41
-45
-42
-47
-44
-40
-38
-33
-39
-26
-48
-33
-41
-45
-38
-39
-37
-36
-41
-46
-37
-43
-35
-32
-55
-63
-49
-38
-42
-46
-50
-53
-52
-50
-46
-51
-46
-55
-50
-43
-47
-29
-31
-39
-37
-46
-43
-37
-39
-37
-53
-61
-53
-36
-46
-57
-49
-39
-41
-43
-51
-44
-42
-48
-48
-37
-42
-56
-37
-35
-37
-42
-53
-49
-45
-45
-54
-52
-58
-53
-35
-42
-40
-48
-45
-45
-38
-35
-48
-51
-49
-53
-45
-34
-48
-43
-46
-44
-44
-43
-34
-30
-44
-49
-46
-32
-44
-51
-47
-41
-41
-37
-36
-42
-32
-28
-50
-60
-48
-42
-48
-55
-45
-50
-51
-47
-58
-55
-47
-46
-43
-35
-54
-54
-53
-54
-40
-34
-39
-46
-44
-25
-43
-51
-55
-63
-58
-36
-32
-34
-28
-28
-40
-43
-40
-46
-50
-53
-47
-41
-47
-45
-53
-54
-32
-29
-36
-45
-50
-52
-42
-43
-43
-57
-57
-54
-45
-52
-37
-41
-35
-43
-46
-46
-46
-40
-51
-45
-37
-25
-37
-59
-52
-44
-47
-37
-48
-45
-37
-39
-46
-56
-50
-36
-42
-36
-23
-32
-45
-52
-54
-48
-45
-47
-40
-41
-42
-39
-23
-21
-24
-41
-38
-24
-22
-31
-34
-29
-27
-49
-46
-40
-37
-40
-34
-35
-60
-58
-43
-34
-31
-28
-20
-24
-26
-21
-29
-27
-43
-55
-49
-43
-46
-49
-51
-41
-46
-42
-48
-34
-37
-42
-49
-53
-58
-56
-46
-22
-39
-45
-32
-37
-53
-48
-45
-50
-63
-47
-42
-35
-45
-39
-49
-46
-32
-26
-18
-12
-5
7
-3
-2
-22
-24
-36
-44
-38
-52
-51
-56
-73
-79
-74
-84
-81
-57
-47
-44
-41
-50
-51
-40
-28
-34
-40
-49
-39
-42
-38
-46
-42
-39
-43
-46
-47
-45
-32
-43
-51
-44
-41
-37
-51
-43
-35
-20
-30
-30
-31
-40
-37
-39
-47
-45
-40
-40
-33
-30
-40
-32
-13
-34
-53
-34
-29
-27
-33
-20
-30
-30
-30
-37
-44
-41
-29
-27
-32
-28
-19
-16
-21
-37
-45
-29
-23
-17
-15
-12
-19
-25
-31
-28
-30
-27
-16
-8
-24
-20
-18
-29
-28
-21
-10
-8
4
-4
-4
-6
-14
1
0
-6
-3
-7
-6
-2
9
12
9
19
29
20
9
8
13
11
13
7
21
21
12
16
1
10
15
20
22
4
-7
2
-1
2
3
0
-7
-5
-17
-17
-7
-15
-20
-32
-30
-17
-27
-14
-21
-34
-40
-48
-30
-35
-36
-36
-44
-36
-38
-40
-41
-40
-36
-46
-37
-30
-47
-46
-32
-32
-30
-25
-43
-54
-36
-28
-40
-38
-33
-47
-49
-45
-47
-37
-40
-46
-40
-38
-47
-34
-56
-53
-36
-21
-35
-44
-44
-38
-27
-40
-40
-47
-44
-32
-38
-37
-49
-47
-38
-32
-28
-47
-43
-48
-61
-49
-37
-32
-35
-35
-42
-38
-36
-31
-35
-43
-42
-41
-39
-36
-30
-14
-17
-35
-37
-39
-47
-55
-49
-47
-40
-43
-41
-41
-39
-53
-42
-34
-43
-29
-43
-33
-36
-45
-46
-48
-40
-34
-34
-6
-20
-40
-65
-62
-38
-36
-55
-42
-41
-36
-29
-33
-44
-39
-34
-37
-30
-29
-44
-54
-46
-39
-42
-52
-50
-47
-29
-31
-31
-35
-43
-45
-47
-38
-37
-48
-32
-35
-45
-45
-46
-40
-49
-46
-33
-39
-42
-43
-23
-33
-38
-36
-34
-35
-35
-38
-57
-55
-61
-33
-31
-49
-34
-39
-43
-40
-27
-19
-33
-41
-32
-34
-47
-38
-32
-42
-30
-28
-35
-41
-61
-46
-30
-16
-21
-28
-22
-30
-38
-36
-17
-32
-44
-25
-35
-45
-38
-32
-32
-35
-38
-36
-36
-34
-32
-26
-24
-29
-27
-33
-43
-52
-57
-43
-33
-48
-43
-39
-38
-29
-37
-49
-48
-40
-48
-42
-35
-41
-35
-47
-54
-59
-48
-38
-36
-43
-43
-27
-43
-44
-38
-32
-56
-58
-41
-46
-34
-12
-12
-6
9
6
1
-10
-27
-39
-39
-53
-65
-60
-64
-84
-82
-71
-67
-50
-45
-56
-55
-39
-42
-38
-45
-53
-58
-44
-38
-39
-33
-41
-52
-52
-38
-18
-23
-53
-57
-37
-30
-40
-41
-38
-36
-17
-39
-30
-41
-47
-49
-50
-42
-29
-17
-12
-13
-28
-29
-36
-39
-41
-41
-44
-24
-22
-30
-29
-24
-39
-47
-30
-25
-35
-28
-15
-32
-41
-32
-26
-16
-15
-37
-36
-26
-34
-39
-22
-25
-18
-22
-26
-26
-25
-18
-16
-28
-25
-20
-22
-22
-19
-8
-17
-15
-2
-13
-17
-21
-9
-2
2
5
-1
-6
-7
-3
-7
2
15
9
9
9
6
4
19
7
14
25
22
19
9
0
3
13
0
1
8
22
21
39
27
5
9
9
13
-11
8
-2
-7
-13
-22
-20
-9
-21
-14
-17
-17
-26
-27
-38
-30
-39
-35
-42
-44
-46
-50
-60
-40
-40
-39
-37
-41
-36
-23
-28
-35
-31
-21
-21
-22
-35
-48
-49
-49
-51
-44
-30
-30
-12
-24
-38
-53
-52
-44
-50
-58
-37
-53
-49
-35
-38
-44
-24
-24
-27
-32
-44
-42
-40
-48
-44
-37
-35
-39
-37
-51
-49
-40
-42
-40
-43
-38
-30
-23
-22
-29
-37
-31
-28
-33
-44
-47
-38
-34
-38
-32
-40
-35
-33
-40
-52
-52
-35
-49
-40
-41
-37
-31
-36
-26
-30
-13
-24
-34
-39
-40
-43
-47
-34
-32
-32
-37
-33
-32
-41
-40
-53
-58
-42
-33
-20
-46
-49
-44
-51
-39
-39
-38
-31
-37
-43
-37
-44
-28
-28
-34
-46
-47
-35
-30
-24
-41
-35
-44
-47
-48
-49
-44
-44
-44
-34
-30
-46
-49
-51
-55
-51
-36
-36
-46
-37
-29
-21
-33
-37
-36
-40
-41
-40
-35
-41
-36
-37
-34
-34
-18
-30
-30
-49
-47
-48
-40
-41
-27
-30
-32
-36
-28
-31
-38
-33
-40
-39
-28
-34
-30
-36
-34
-39
-39
-39
-40
-39
-37
-36
-40
-47
-41
-29
-14
-24
-41
-44
-39
-50
-45
-51
-44
-30
-41
-49
-57
-60
-40
-51
-50
-56
-43
-30
-37
-44
-37
-31
-48
-59
-54
-47
-49
-59
-53
-59
-47
-37
-28
-31
-27
-19
-19
-16
3
-1
-4
-14
-23
-42
-49
-60
-52
-64
-63
-67
-74
-73
-68
-66
-61
-59
-45
-59
-50
-43
-55
-49
-42
-45
-44
-35
-40
-48
-26
-40
-43
-39
-25
-29
-42
-45
-42
-39
-33
-37
-40
-49
-33
-47
-44
-42
-25
-37
-41
-30
-27
-45
-49
-46
-45
-42
-44
-40
-36
-43
-41
-45
-43
-35
-28
-37
-40
-37
-32
-17
-11
-25
-37
-49
-52
-34
-27
-31
-34
-25
-29
-24
-28
-33
-43
-38
-29
-19
-25
-18
-12
-25
-26
-28
-33
-30
-37
-19
-20
-13
-15
-7
-18
-27
-27
-12
-18
-16
-14
-7
-5
3
-2
-5
-2
5
2
-8
-4
3
1
-1
7
25
6
5
14
5
9
9
7
20
17
8
8
2
-2
-9
-1
-3
-11
-9
-2
-12
-17
-14
-22
-19
-20
-23
-31
-35
-34
-34
-31
-40
-42
-39
-26
-23
-15
-22
-34
-40
-53
-49
-48
-38
-31
-41
-49
-36
-41
-42
-43
-55
-50
-39
-43
-28
-38
-32
-42
-54
-54
-48
-56
-42
-36
-39
-41
-47
-37
-46
-52
-49
-49
-51
-41
-43
-40
-29
-31
-38
-31
-43
-50
-53
-48
-54
-42
-37
-37
-41
-38
-35
-30
-28
-39
-58
-47
-41
-46
-44
-40
-38
-43
-40
-27
-44
-49
-46
-50
-46
-46
-33
-29
-31
-33
-48
-38
-35
-44
-54
-51
-51
-43
-37
-30
-34
-36
-24
-33
-38
-37
-37
-48
-43
-36
-41
-42
-43
-42
-37
-40
-49
-51
-39
-32
-38
-34
-47
-50
-45
-29
-41
-46
-51
-55
-41
-53
-39
-37
-46
-48
-47
-38
-38
-40
-37
-41
-28
-33
-41
-42
-39
-53
-43
-46
-35
-33
-43
-51
-42
-54
-49
-50
-59
-51
-36
-30
-19
-30
-33
-38
-37
-45
-51
-37
-48
-37
-41
-52
-42
-43
-47
-40
-45
-57
-45
-48
-49
-42
-41
-37
-46
-56
-53
-49
-36
-36
-28
-32
-39
-29
-35
-29
-14
-29
-31
-33
-33
-39
-38
-32
-38
-40
-40
-39
-28
-35
-43
-38
-33
-41
-39
-37
-40
-37
-27
-34
-47
-37
-40
-41
-41
-22
-30
-27
-41
-40
-43
-40
-48
-53
-46
-45
-44
-48
-41
-55
-46
-44
-40
-48
-52
-41
-41
-50
-48
-54
-36
-39
-43
-44
-47
-59
-45
-35
-40
-44
-30
-41
-49
-47
-36
-39
-27
-3
5
-5
-8
-15
-16
-20
-31
-36
-55
-54
-50
-52
-66
-56
-59
-72
-65
-51
-53
-49
-45
-43
-51
-51
-43
-45
-51
-50
-51
-42
-39
-47
-43
-34
-30
-39
-32
-32
-35
-39
-32
-27
-38
-34
-48
-50
-47
-41
-37
-42
-41
-35
-35
-41
-37
-45
-36
-38
-39
-37
-25
-23
-25
-32
-55
-46
-37
-40
-43
-44
-39
-24
-33
-23
-24
-31
-25
-27
-32
-44
-38
-42
-38
-34
-34
-35
-38
-16
-18
-16
-20
-20
-21
-23
-29
-16
-14
-14
-22
-20
-9
-19
-28
-23
-20
-19
-14
-5
-8
-13
-8
-3
-13
-15
6
11
8
-5
-11
-2
8
10
-6
3
12
10
9
10
5
14
20
30
21
14
8
2
4
6
7
-1
6
7
