5
6
0
1
-6
-1
-24
-32
-21
-22
-12
20
25
-19
-25
-8
-6
-4
-12
19
15
-9
4
6
-11
20
27
16
-20
8
0
-28
-25
-22
-3
-14
-27
-2
-19
-57
-20
26
21
-2
-13
-7
-10
3
23
11
-9
-18
1
-4
-24
-29
12
-1
-11
2
5
5
-25
-59
-30
18
7
9
1
-12
-21
-37
3
8
-21
9
5
2
1
-3
-14
-5
9
-1
-8
25
6
-27
12
22
-5
0
26
50
28
22
18
6
9
15
7
3
-7
9
8
9
6
-15
-18
-6
20
14
-32
-36
-16
3
-3
-2
-37
-45
-27
-29
-29
-3
7
7
9
-15
-25
-9
-4
-20
-21
3
-4
-7
-23
-17
2
-22
-52
-33
11
19
24
57
81
106
127
108
111
115
109
89
68
74
58
45
28
-12
-8
-29
-46
-50
-43
-29
-11
5
25
11
21
18
-8
-7
-15
-21
-1
-2
-46
-81
-53
-6
18
10
0
-18
-18
-14
-21
-3
-8
-34
-27
33
32
19
-22
-31
-36
-20
-14
-6
-8
3
23
18
7
-11
-22
-14
8
22
3
-6
-13
-2
2
1
33
1
-7
-11
-2
14
-32
-27
-25
-11
15
26
55
44
46
70
58
61
6
-21
-27
-10
13
38
62
59
52
84
77
46
38
69
72
63
35
73
86
89
104
88
104
97
117
113
94
68
63
44
40
56
76
68
84
63
29
6
-11
-46
-53
3
4
18
8
0
17
16
6
2
-24
-29
5
14
15
28
19
-4
-4
-32
-44
-24
8
17
25
13
-17
21
-2
-13
-14
21
13
53
54
24
11
-5
3
-7
-15
-4
0
37
52
51
48
39
-10
-33
-23
-7
10
15
14
3
-19
-44
-28
11
18
38
51
35
8
16
6
-26
-38
-30
-8
26
53
52
61
57
-19
-32
-30
-35
-11
6
18
-1
26
32
17
15
9
-7
-20
-8
7
18
21
10
8
-19
-32
-8
-10
-21
-4
43
54
43
54
8
1
-35
-55
-53
-33
-20
16
60
107
123
112
96
85
77
180
237
212
176
127
92
195
217
209
202
202
202
233
239
276
295
299
311
396
364
318
327
348
339
346
368
356
321
308
334
335
325
311
308
290
262
283
302
317
311
315
321
336
346
336
328
317
338
351
366
353
381
382
335
343
327
352
371
362
366
379
384
364
360
349
329
338
388
410
438
444
454
451
437
416
411
364
323
350
347
320
302
324
298
317
302
256
261
287
307
287
281
266
273
248
249
241
214
197
197
216
225
219
192
181
185
179
157
167
188
174
199
169
154
158
153
150
145
130
133
142
127
131
146
133
130
123
107
114
136
123
122
110
110
117
113
111
78
77
109
115
118
119
127
140
139
78
39
75
95
101
101
86
87
112
114
120
106
86
100
108
115
132
105
87
99
99
111
104
96
110
144
113
140
144
130
99
142
140
130
119
151
141
118
121
113
128
129
127
129
119
101
96
80
74
86
79
55
41
43
55
30
29
47
70
69
36
22
35
14
26
33
33
45
34
62
60
31
-5
-17
-23
-37
-6
23
50
63
36
10
33
47
32
16
0
-21
0
34
48
41
31
13
27
8
12
-3
-10
2
-10
1
21
30
19
-10
-1
3
15
33
45
23
40
25
7
5
-13
-5
9
10
10
28
37
6
16
32
27
23
9
15
12
15
7
1
-1
-6
-13
-9
51
34
33
15
11
-8
-35
-23
14
14
33
27
20
9
2
-4
12
13
12
-3
-6
18
4
-12
0
12
30
25
22
18
3
-18
-15
1
49
62
58
43
18
-15
-26
-9
30
40
72
41
37
20
19
17
-24
-37
15
32
49
46
29
2
3
-3
-47
-54
-35
-19
-9
10
-1
14
19
17
7
-3
-25
-21
-4
-21
-36
-47
-30
7
-8
-4
-3
-27
-3
-8
-13
-17
-9
26
67
84
78
88
98
120
129
137
161
145
121
101
84
58
32
41
40
35
29
-2
-14
-11
-18
-27
-14
-25
-29
-18
-18
-5
-1
-14
-17
-26
-26
1
6
3
37
47
13
-1
-23
-57
-50
-54
-15
-12
0
0
1
-8
-1
-23
-28
-8
-15
-13
0
4
12
56
49
18
-1
-24
-22
-22
-10
-7
4
-13
5
2
7
7
-5
-6
4
11
47
78
85
65
10
-5
-5
-10
-14
1
12
6
7
44
60
68
54
61
59
61
74
72
67
76
45
45
40
65
63
59
52
71
66
49
70
71
90
103
103
106
97
85
86
61
68
61
50
46
41
46
50
41
29
9
8
11
30
16
14
13
10
-2
-1
-10
-21
-21
14
8
4
-1
8
-18
-38
-34
-22
-22
-28
-3
-3
-7
-4
-10
-3
13
5
19
11
-4
-10
7
-11
-20
-5
14
-1
-8
-17
-2
11
4
-3
-2
-11
-29
-22
-9
17
29
9
-26
-30
-49
-35
-55
27
47
39
43
-4
-10
-4
-20
-25
-28
-11
-6
-15
-22
-18
-7
-1
5
-11
-24
-16
-26
-10
15
3
13
7
8
0
-11
-9
7
-1
1
1
3
1
-5
-5
-4
-1
21
16
-6
-39
-23
-11
-14
-9
9
4
15
19
-5
-8
-1
6
16
24
24
24
9
7
-23
2
30
17
21
20
11
-10
18
20
30
10
0
-12
12
-10
-16
-9
-11
-31
-22
-3
-3
4
7
17
33
14
-17
-47
-50
-36
5
20
13
-18
-21
-16
-28
-34
-15
-6
-6
-9
-17
-20
-32
-34
-39
-19
-16
-2
9
12
35
63
75
91
133
168
190
163
127
108
103
78
28
18
22
0
9
-43
-79
-34
11
-13
-6
-9
-4
-4
-18
-35
-30
13
20
10
-4
-15
-12
-8
-23
-27
-17
-3
-1
-39
-31
-53
-41
1
-4
-2
-8
1
-6
-9
-2
-10
-11
-5
12
17
6
0
-14
-16
-30
-15
-12
14
8
1
3
10
-9
7
-10
-22
-19
-7
-2
2
1
1
5
0
1
-1
29
60
81
75
38
-12
-23
9
3
37
53
17
21
39
20
33
32
49
56
60
82
109
89
68
69
41
39
57
92
74
71
50
74
95
90
92
84
71
72
77
77
56
52
55
24
25
28
21
13
9
15
2
6
-2
5
-3
-2
12
19
6
-2
-1
-31
-46
-50
-26
9
10
38
18
10
-5
-9
-13
-19
-19
5
7
18
7
-34
-50
-41
-51
-31
-2
31
16
-4
-10
-16
-13
7
10
19
-1
2
0
-13
-44
-64
-37
-16
17
25
9
4
-21
-4
-16
-27
-12
-10
1
13
17
9
-12
-13
-13
-29
-28
13
24
12
-21
-24
-31
-57
-25
-7
-18
-3
2
10
-14
-4
1
-1
-35
3
50
18
-4
-18
-44
-48
-38
9
5
-8
9
5
7
3
-7
-12
-2
1
-23
-19
9
3
16
30
6
0
3
24
16
25
37
27
22
-3
-4
13
13
14
9
6
-4
-16
-4
6
6
-2
15
28
0
-26
-36
-44
-56
-45
-31
-27
-2
12
10
-20
-18
-10
-4
4
-7
-23
-45
-40
1
-2
2
-21
-18
-19
-2
-10
-13
-12
-45
-48
-23
-1
10
38
64
91
118
111
108
143
155
147
128
112
81
39
3
9
-9
7
29
10
-10
-32
-28
-26
-27
-17
-20
-18
-35
-41
-33
11
5
-17
-53
-44
-16
-18
-25
-1
14
12
-16
-5
5
-1
-6
-23
-30
-22
-24
-9
26
10
-16
3
11
-10
-43
-30
-9
11
-8
1
-3
0
5
-15
-18
-33
-38
-20
-18
-30
-6
12
-7
19
36
37
13
3
-1
6
12
28
32
44
50
9
-26
-47
2
21
24
30
44
50
32
22
16
36
63
71
69
82
63
47
45
46
61
66
70
55
52
48
63
91
100
83
94
64
100
98
89
76
66
53
17
13
20
30
12
4
14
15
24
3
2
6
16
13
3
14
-17
-33
-24
-26
-26
-30
-44
-45
-3
11
-9
-6
2
28
54
-3
-33
-29
-25
1
30
28
11
-22
-31
-21
3
-16
-46
-30
-18
-9
-20
-20
-34
-27
-35
-27
-37
-6
2
37
21
-7
-23
-30
-16
-2
0
13
-14
-21
-19
-2
17
16
5
13
20
18
-10
-35
-55
-45
-18
-1
3
11
-4
-37
-47
-7
7
13
34
22
27
11
-16
-23
-14
-7
-2
-17
6
21
0
-13
-23
-23
10
12
-5
5
27
20
-36
-58
-30
4
4
6
17
25
48
56
23
21
2
3
-2
3
4
-6
-3
-23
-1
0
-2
-13
-20
-16
17
22
24
1
-24
-5
4
-5
-2
-29
-47
-24
-32
-31
-27
-15
7
9
41
21
-25
-51
-54
-23
-25
-16
10
2
-25
-28
-28
-42
-21
-10
5
45
73
104
126
129
106
122
125
125
148
118
104
67
51
32
8
7
-1
-15
-43
-30
-22
4
31
9
5
-12
-10
-2
-11
-27
-26
-47
-30
-37
-38
-34
-7
-13
-25
11
-14
-46
-47
-31
-10
-6
-9
-8
8
13
8
-14
-3
21
11
-15
-19
-15
-19
-22
-18
-28
-28
-25
-7
12
25
13
14
9
5
-7
-32
-32
-23
-11
-6
15
23
25
21
-5
9
20
23
40
23
2
0
11
7
-5
0
32
50
63
44
37
31
30
23
33
39
42
51
99
89
89
87
74
76
72
73
65
56
54
84
72
81
75
90
81
78
46
29
24
30
26
23
2
8
14
14
41
41
16
-5
-1
-6
-15
-19
-10
-27
-20
-21
-34
-35
-61
-37
18
11
14
5
-1
10
-16
-19
-11
-8
-2
-3
-19
-12
-7
-14
-29
-43
-10
-12
-15
-4
-3
-6
-27
-34
-7
5
-9
-11
-13
-3
-3
-41
-12
-4
-27
-10
15
33
-8
-6
-14
-23
-23
-22
-19
-27
-51
-6
-11
-35
-42
-30
-19
-1
16
17
19
19
14
-17
-7
-29
-41
-38
-7
0
22
31
-2
-15
-2
-11
-21
-14
-15
-25
-22
-16
-19
-16
-3
33
16
6
8
-2
-15
-27
-8
5
9
21
20
9
18
26
8
14
13
9
15
18
14
4
-3
-20
-23
-17
-27
-7
3
2
-4
6
-10
-14
-26
-15
-1
8
2
-16
-13
-8
-21
-39
-22
-4
-7
1
6
-4
-21
-24
-36
-51
-23
-23
-24
-24
-27
-35
-43
-45
-16
-40
-20
-5
-3
19
34
42
77
104
133
123
136
158
157
128
90
112
65
71
42
8
11
12
-21
-46
-17
-6
21
-11
-36
-21
-4
-26
-10
-12
-15
-32
-31
-21
-13
-37
-6
-3
-9
-13
-16
-18
-12
-16
-20
-17
-14
-7
-10
-4
-12
-16
-31
-21
-16
-30
-31
1
10
-15
-21
-10
-17
-11
-6
-12
-28
-26
-8
16
13
9
-14
-9
-18
-32
13
12
16
17
-1
18
26
24
28
21
5
-13
-29
-29
3
7
32
56
59
50
7
-3
11
23
46
67
83
87
62
50
44
41
44
85
85
82
72
67
50
34
65
76
70
43
54
55
49
45
53
65
60
35
39
37
19
22
8
5
26
4
-6
2
-18
-35
-29
-11
-17
5
16
-7
-14
-12
-5
18
-5
-10
-7
-7
-2
-8
-18
-25
-26
-45
-23
-18
-24
-32
-34
-32
-3
-15
-13
-18
-30
-27
-16
-6
4
3
4
3
-12
-19
-38
4
12
5
-20
-27
-19
-11
1
-10
-22
-14
-2
-23
-37
-40
23
2
-1
1
-11
-3
-6
-10
-3
-1
-18
-27
2
4
8
2
-15
-23
-28
-5
22
0
-28
-14
-28
-29
-29
-17
-17
-1
-3
5
13
1
5
16
4
-9
-27
-40
-23
-7
0
-18
-14
17
15
15
-2
16
1
8
16
23
25
-19
-2
15
12
23
2
-16
-13
15
-9
-18
-32
-6
-10
25
-6
-11
-11
-5
3
-42
-58
-17
-1
-22
-4
-11
-12
-20
-13
5
11
-18
-18
-6
-3
9
-2
-16
-10
7
2
18
3
-4
-24
-25
-40
-42
-69
-46
-34
-33
-8
11
27
120
110
123
143
144
106
89
49
64
36
-8
-25
-49
-45
-48
-20
-41
-1
33
-4
-2
7
-2
-9
-24
-52
-27
-16
-10
-5
-10
-17
2
19
-5
-8
8
11
-17
-18
-17
-18
-22
-24
-40
-18
4
6
0
-21
-30
-43
18
-5
-27
1
-9
-13
-5
-6
-23
-23
-26
-33
-19
-8
-5
-5
13
26
16
14
10
23
14
-10
-14
-31
-34
-62
3
52
88
56
12
13
14
26
18
19
14
39
60
65
70
71
59
46
5
50
57
68
47
64
85
61
49
83
111
87
81
65
78
98
87
76
85
85
74
31
78
94
54
52
40
-3
-16
-2
6
8
23
56
18
6
11
10
2
-20
-19
-3
-14
-45
-41
-20
24
12
13
2
15
-10
-9
9
-6
-5
-8
10
8
7
3
20
19
-7
-13
-13
-31
-19
-3
12
47
69
35
-31
-36
3
-14
-23
-23
-20
-20
-24
-68
-60
-40
-32
-14
-17
9
7
-6
-28
-53
-34
-4
-25
-44
4
-1
-11
-5
-13
-8
-16
-31
4
-22
-23
-28
-49
-31
-19
4
30
35
-7
25
7
23
-33
-27
-6
-6
-42
-35
-10
-46
-60
-25
-10
-5
-14
-3
-12
17
-1
-9
-10
0
-15
-16
-34
2
6
26
49
61
21
-3
-28
-39
-36
-46
22
71
22
-35
-3
13
41
10
-82
-39
-35
-31
1
35
-32
-70
-47
-31
-24
-26
-31
-71
-76
-39
-34
-32
-15
-13
11
-20
-15
-44
-9
-25
-27
-28
-23
-46
-75
-26
13
-14
-75
-65
-58
-65
-45
-23
0
30
49
45
66
91
58
71
112
49
92
109
98
86
66
78
37
5
-14
-38
-35
-38
-34
-18
-14
-22
-61
-39
1
-13
-14
-40
-59
-46
-38
-44
-57
-54
-34
4
-3
-30
-21
5
-18
-64
-66
1
1
5
-16
-28
-19
-29
-2
-12
-49
-19
26
1
-79
-24
-7
-19
-40
-25
-22
-22
-10
-18
-12
14
-17
10
-11
-23
-19
-8
-24
-22
-17
-23
-18
-32
-39
0
18
10
-38
-9
-21
10
46
45
60
39
35
7
27
19
11
-39
15
73
93
27
44
21
19
26
14
39
9
43
64
30
43
44
53
63
64
59
84
74
76
51
27
24
48
30
27
43
33
36
30
-12
-42
-17
11
-6
1
-36
-60
-18
22
-46
-48
5
34
43
-36
-48
-35
-29
-54
-78
-94
-43
-44
-34
-22
-25
-41
-13
-27
-34
10
37
21
-36
-61
-66
-9
6
-26
-19
-15
-15
-34
-26
11
0
-45
-37
-28
-17
-31
-62
-31
-1
5
3
20
-38
-92
-102
-71
-29
21
3
0
-17
-47
-49
26
29
-11
-7
-60
-50
-7
-30
-21
-32
-13
25
14
-31
-66
-86
-70
-68
-29
9
-18
-9
7
-10
-14
-18
-27
2
19
34
23
-2
-4
-79
-95
-56
-6
16
-5
-4
-30
-29
-16
-5
6
44
27
3
-5
-16
-2
-4
4
-4
-15
-20
-16
-37
-38
1
10
12
1
9
50
-7
-52
-76
-55
-41
-53
-48
10
10
3
4
-18
-18
-10
7
-18
-25
-33
5
-33
-44
-57
-76
-100
-55
-10
-3
-32
-56
-45
3
-1
13
19
59
45
70
90
77
115
122
80
79
104
72
34
43
21
-18
-30
-27
-1
-17
-26
-31
3
9
-18
-22
-5
6
-18
-21
-40
-14
-5
-4
-1
-44
-44
-89
-42
-65
-31
-27
-14
-31
-4
-19
-13
-1
-22
-25
-13
26
8
-13
-35
-18
-4
-21
-29
-11
-14
-21
1
-7
-37
-41
-3
34
18
-24
-1
-4
-12
-10
-42
-75
17
-3
-23
-13
22
21
-4
-59
-25
-11
31
31
-2
-9
-23
9
20
61
56
21
19
14
9
14
32
22
23
75
86
96
69
75
62
46
40
36
29
46
63
89
71
39
66
80
94
44
35
76
60
9
-5
33
70
36
-10
13
17
12
52
56
3
8
10
0
5
-1
-4
-10
-55
-66
-39
-43
-14
-4
28
31
37
19
-2
15
-9
-17
5
-5
-27
-29
-9
-34
-26
-25
-12
-11
-15
-28
-67
-60
-38
-20
-37
11
-1
-8
-18
-3
4
-9
16
2
-26
-19
-42
7
-5
-10
14
-17
-61
-35
-35
-45
0
-3
-53
-15
5
-25
-33
-2
21
17
27
-32
-32
22
-8
-7
-37
-70
-66
-31
-10
25
18
9
1
2
-11
-31
-8
6
-14
-11
-16
22
45
38
28
40
-8
-30
-54
-33
9
34
8
6
-26
-7
-36
-51
-10
26
44
21
-2
10
6
23
27
4
-13
-22
7
-23
-29
-32
-9
12
11
-17
-9
-16
-41
-55
-49
-6
-16
-12
-15
-34
-13
-34
-65
-9
-5
-18
-3
-1
-3
-7
-7
-11
-53
-48
-18
-39
-53
-52
-24
-35
-26
-19
6
-12
27
66
85
166
114
122
116
112
116
90
56
53
13
22
27
23
28
21
23
4
-27
-50
-32
-29
-52
-54
-91
-75
-47
-57
-50
-3
-4
26
30
26
-13
6
-1
21
8
-17
-31
-44
-28
0
-10
25
-13
-13
-36
-37
-22
17
34
-25
-79
-58
-73
-68
-37
-6
-6
-7
-3
-7
-21
10
44
20
-30
-51
-99
-24
-29
5
-42
0
-46
-42
73
65
32
48
50
18
-28
-51
-18
-12
13
41
36
56
35
23
24
47
44
59
40
12
3
-4
35
52
40
62
57
82
62
60
56
94
105
91
62
60
75
56
35
-5
-5
49
64
49
53
17
-19
16
36
53
52
25
6
-43
-17
-27
-39
-21
2
15
-6
-14
35
-9
-51
-89
-26
-21
-15
-9
1
5
-31
-48
-31
-32
-24
4
14
-20
5
-2
-12
-26
-23
-21
-11
11
18
15
17
-16
-6
-9
-23
1
-68
-66
-60
-30
10
12
-21
-57
-43
-36
-7
-17
-27
-37
-39
-12
17
-8
8
26
-6
-18
-2
-34
-45
9
-11
-59
-46
-31
-7
-6
18
-19
-30
-57
10
-12
-57
-39
30
2
-11
32
35
18
20
8
-23
-38
-3
-3
-25
-52
-30
-23
-64
-13
42
36
26
28
12
-3
-21
-11
20
25
44
54
3
-40
-44
-24
-12
-10
-16
-10
8
-7
-38
-52
-42
-44
-36
14
19
26
21
5
-53
-51
-48
-10
-12
-14
-29
9
18
16
-30
-54
-32
-39
-48
-59
-14
-11
-28
-38
-36
-15
-30
-46
-18
-10
-3
20
16
2
16
30
56
86
74
115
114
127
128
102
67
17
-14
17
37
11
-20
15
21
-17
-31
-28
-23
-19
-2
5
-11
-10
-44
-58
-39
-32
-13
-35
-42
-23
-21
-44
-74
-22
-35
-30
-5
-19
-8
-7
-14
-25
-12
-7
0
-8
-6
3
-10
1
-12
-20
-76
-71
2
17
15
-32
-60
-48
-28
-18
-23
-33
-17
7
21
39
25
7
-25
-5
6
2
-8
-12
8
2
-12
-58
-32
-6
-4
8
22
27
21
19
18
11
30
36
35
53
2
9
49
37
51
73
79
90
101
94
95
70
12
-18
-49
48
92
79
71
58
44
59
53
42
64
44
35
35
45
19
13
-6
-28
-1
16
-9
2
52
30
12
28
12
-17
-21
-44
-42
-40
-35
-33
-42
-26
-25
-10
-22
-10
4
8
1
14
-1
-3
-31
-56
-78
-103
-68
10
22
24
33
12
-3
-21
-38
-3
-41
-68
-57
-20
-19
-14
-16
-9
-12
-34
-43
-31
-13
-14
-6
-24
-49
-36
-33
-30
-9
-16
-53
-39
-6
-15
-6
6
13
-6
-11
-5
-5
-11
-22
-15
-19
-31
-44
-30
-40
-37
-17
-16
-12
-8
11
12
-14
-7
-3
-16
-49
-45
-46
-56
-24
9
-8
-15
-18
-32
9
3
9
30
-9
-21
-6
-5
-13
-14
-2
-3
-25
-31
-16
12
-3
-10
-2
-19
-12
12
31
62
60
36
22
-20
-55
-10
-11
-3
-26
-19
-26
-72
-112
-85
-61
-7
-28
-51
-40
-6
40
41
-3
-19
-37
-34
-12
3
-18
-39
-47
-40
-37
-43
-43
-15
-24
-39
-82
-127
-28
15
-5
15
67
83
59
62
108
105
93
108
142
138
101
66
52
21
-34
-101
-77
-29
-42
-45
-24
-18
-4
16
6
-9
-13
-7
-10
-39
-82
-52
4
-19
-21
-22
-6
-2
8
-40
-55
-23
9
-43
10
28
-3
-36
-6
-20
-38
-37
-21
-22
-36
-51
-97
-31
11
39
52
-8
0
-14
-33
-47
-52
-59
12
3
15
12
-5
-8
-28
-30
-24
-29
-4
14
8
-1
-1
-8
10
8
-2
-21
11
-13
44
33
-3
-11
0
26
28
20
19
46
10
-12
32
46
37
42
46
109
84
54
55
86
58
35
24
82
64
58
60
47
31
10
9
30
113
100
79
57
66
43
24
28
12
-18
-19
-15
-7
13
25
-13
-23
-34
-30
-24
-56
-30
19
12
15
-18
-30
19
23
-16
-64
-28
-2
13
-30
-36
3
-20
-22
-42
-19
-19
-31
-18
-36
-61
-58
6
-8
-21
-8
-28
-24
-12
10
-21
-62
-44
6
3
-7
-22
-23
-35
-61
-34
-6
-14
-24
-13
-32
-22
-2
-14
-23
-26
-27
-56
-59
-3
-38
-36
-37
-24
-22
-9
14
25
26
5
-37
-74
-84
-28
-25
-5
19
-5
-10
-8
-32
-43
-22
-6
-13
-28
-23
-27
-7
-23
-19
0
-3
-13
-20
-30
-60
-55
-12
13
2
35
11
16
-10
-15
-24
-35
-37
24
46
12
-9
15
-30
-23
-45
-36
5
-7
4
-25
-21
-14
-12
-15
-36
-29
-31
-23
19
-37
-27
-1
-19
-60
-52
-56
-31
-55
-29
-34
-21
-16
-44
-17
-19
-29
-44
-38
-31
-39
-32
-37
-29
-20
-66
-69
-79
-30
-11
52
65
77
84
100
87
64
54
96
100
95
102
50
45
15
3
-15
-91
-128
-93
-29
-12
8
-25
-57
-50
1
6
-43
-67
-64
-35
-19
15
7
-21
-35
-51
-57
-54
-96
-102
-21
-30
-20
-41
-51
-21
-40
-8
12
-43
-82
-81
-47
-29
-33
-8
-21
-28
-69
-67
1
-5
5
-31
-30
-17
5
37
21
6
-8
-26
-26
-1
20
-29
-12
-33
-49
-33
-16
-6
-5
20
6
-18
-12
-33
6
-4
8
5
-11
21
45
34
49
55
59
24
-23
31
65
18
21
67
66
72
45
36
16
15
31
67
43
51
62
46
80
76
71
91
80
94
70
58
37
-1
-14
6
24
27
34
24
-38
-59
-59
-29
0
-12
-15
7
-1
-9
-25
-1
-3
-43
-66
-48
-16
-58
-62
-58
-40
-39
-36
-28
0
-24
-23
-22
-37
-29
-17
-5
-29
-23
-40
-37
-39
-5
-19
-12
-13
-62
-58
-58
-63
-93
-26
7
-8
11
-6
-8
-21
-13
-27
-29
-49
-23
-35
-13
-8
9
-30
-44
-22
-37
-30
-54
-86
-68
-67
-23
-23
-49
-32
-18
-16
-28
-62
-65
-7
-2
-16
-19
-29
-32
-36
-23
-32
-45
-29
-17
-15
-12
-40
-52
-29
-43
-26
-4
-31
-21
-29
-38
-30
-29
-60
-91
-78
13
3
-8
-30
-21
-9
4
12
-16
-32
-17
-55
-11
-47
-16
-15
-17
-25
-26
-32
-14
-11
25
10
-26
-26
-30
-22
-1
11
16
29
30
25
2
13
19
6
-26
-48
-49
-55
-62
-68
-57
-23
-18
-17
-20
2
-26
-49
-34
-44
-40
-69
-76
-66
-74
-99
-22
-33
-52
-43
-58
-22
-24
-38
-45
-33
-11
-1
-33
-52
-50
-25
-14
15
38
63
69
120
151
136
125
118
145
111
57
8
-20
-26
-39
-67
-111
-121
-126
-105
-125
-91
-75
-56
-39
-34
-23
2
-3
-37
-81
-71
-37
-39
-50
-55
-38
-7
-27
-72
-35
-16
-37
-28
-34
-44
-2
-47
-48
-38
-50
-32
-29
-29
-42
-42
-59
-51
-15
-17
-13
-1
-11
-31
-44
-38
-12
-31
-18
-9
-17
-14
-25
-25
-29
-24
-43
-21
-31
-28
-25
-5
-9
25
34
15
-14
1
3
8
2
13
18
10
12
12
9
37
36
29
16
-8
16
57
57
45
29
35
48
32
23
52
32
85
87
90
70
47
63
69
75
57
80
76
65
74
76
72
59
50
23
36
33
-15
-25
-2
3
18
15
32
28
-5
-11
-9
-26
-48
-61
-60
-27
-21
-38
-34
-15
-24
-9
-1
-4
-25
-38
-21
-23
-24
-39
-40
-40
-45
-31
-42
-35
-27
-40
-38
-26
-11
-6
-26
-40
-37
-24
-12
-23
-28
-50
-73
-54
-36
-18
-13
-2
-37
-52
-45
-45
-22
-27
-37
-26
-11
-34
5
-12
-3
-4
-80
-81
-54
-47
-83
-59
-40
-50
-11
0
1
10
-12
-53
-38
-13
-18
-6
-13
-34
-42
-47
-33
-45
-19
-37
-18
-3
-39
-52
-64
-68
-67
-66
-43
-35
-12
-6
-22
10
-10
-19
-17
-29
-30
-48
-84
-84
-70
-57
-53
-32
-38
-34
-20
-33
-28
-16
-24
-34
-3
-1
-27
-22
-44
-57
-30
-31
-60
-54
-37
-43
-9
20
25
13
18
-4
-24
-49
-34
-27
-32
-21
-15
4
12
-10
-2
17
-9
-38
-60
-7
14
-14
-24
-44
-60
-77
-46
-46
-34
-29
-35
-56
-51
-60
-32
-40
-9
-16
-27
-46
-55
-14
-20
-21
-34
-44
-44
-6
-16
-25
-44
-25
-34
-86
-77
-61
-28
14
28
44
92
120
163
166
167
151
91
62
48
10
-2
-32
-53
-56
-88
-72
-62
-81
-70
-52
-53
-63
-87
-36
-22
-20
-30
-52
-60
-49
-52
-67
-46
-39
-42
-24
-48
-40
-25
-56
-59
-55
-76
-67
-10
-15
-35
-14
-16
-46
-53
-38
-38
-64
-32
-18
-18
-25
-18
-21
-21
-44
-45
-46
-34
-9
-18
-28
-35
-44
-32
-15
11
-9
-23
-16
-28
-22
-15
-25
-4
-9
0
-1
8
15
24
1
-19
15
21
10
0
4
3
-20
-13
0
12
36
34
78
89
88
76
55
37
22
-1
34
74
69
52
59
62
48
69
89
82
68
73
58
51
44
12
16
48
42
22
31
31
31
3
3
2
-19
-7
4
-8
-17
-43
-5
12
-13
14
-6
-6
-23
-49
-50
-23
-21
-16
-14
-17
3
3
-21
-39
-53
-59
-68
-80
-98
-78
-37
-5
-3
11
-8
-38
-39
-36
-54
-34
-24
0
-18
-52
-76
-44
-23
-23
-23
9
-5
-18
-27
-12
1
-28
-31
6
3
-28
-39
-57
-59
-46
-58
-37
-34
-32
-34
-25
-14
-31
-47
-33
-43
-39
-39
-29
-28
-37
-42
-32
-34
-28
-31
-38
-55
-49
-23
-44
-28
-21
-27
-35
-9
-15
-8
1
-20
-21
-41
-57
-55
-57
-63
-42
-44
-32
-24
-43
-71
-80
-36
-21
-20
-17
-20
-26
-56
-69
-67
-40
-41
-26
-23
-28
-28
-43
2
-2
1
2
-5
-45
-39
-45
-68
-63
-45
-27
16
19
-10
-22
-15
-5
-29
-28
-24
-26
-30
-25
-12
-24
-29
-28
-34
-30
-23
-36
-30
-34
-20
-48
-70
-48
-13
-32
-52
-42
-33
-37
-55
-58
-64
-76
-87
-56
-39
-29
-31
-32
-47
-26
-26
-24
-31
-45
-58
-59
-29
-11
-7
-12
19
59
77
108
114
99
83
75
61
46
32
20
-24
-46
-73
-46
-43
-48
-53
-52
-27
-13
-20
-27
-38
-41
-53
-81
-93
-81
-49
-26
-10
-13
-33
-32
-19
-37
-24
-33
-50
-49
-69
-54
-32
-66
-42
-26
-36
-42
-49
-42
-45
-46
-19
11
-7
-21
-26
-30
-30
-51
-59
-50
-40
-34
-37
-40
-26
-14
-7
9
-2
-8
21
1
-16
-38
-13
-32
-47
-30
6
-2
-15
10
6
5
16
8
8
5
15
20
4
3
1
7
6
46
53
34
14
12
34
30
49
55
53
44
40
61
71
84
68
72
58
57
60
42
40
46
69
56
54
60
29
35
20
3
-4
-16
1
-20
-9
-19
1
-21
-8
15
3
19
10
-4
-19
-40
-77
-74
-26
-18
-11
-10
-20
-34
-28
-49
-39
-7
2
-13
-23
-23
-13
-22
-30
-29
-5
3
-8
-8
-19
-33
-40
-56
-55
-37
-16
-37
-24
-16
-36
-44
-48
-38
-10
-8
-8
-3
-21
-32
-52
-35
-27
-39
-34
-37
-42
-47
-55
-44
-44
-22
-3
-2
-7
-8
-35
-30
-30
-23
-4
-30
-21
-23
-47
-51
-17
-7
-38
-57
-36
-14
-14
-8
13
-23
-58
-99
-55
-13
28
-11
-33
-48
-40
-36
-29
-16
-36
0
1
-23
-6
15
-23
-17
-4
-17
-32
-28
-28
-34
6
25
1
3
12
1
-8
3
35
21
-4
-3
-19
-27
-51
-46
-9
16
6
-13
-27
-50
-42
-21
-11
-1
-18
-42
-43
-32
-37
-51
-50
-23
-33
-33
-19
-30
-50
-39
-61
-69
-32
-34
-44
-38
-28
-24
-38
-49
-44
-50
-61
-49
-31
-49
6
-3
6
9
55
111
110
139
100
106
128
117
85
57
31
10
-31
-64
-38
-63
-59
-81
-99
-87
-66
-52
-35
-17
-2
-11
-19
-51
-64
-54
-61
-54
-30
-15
-29
-24
-29
-36
-37
-23
-51
-51
-30
-6
-34
-48
-47
-48
-44
-31
-31
-27
-36
-38
-35
-29
-9
-16
-27
-41
-52
-60
-25
-9
-13
-14
-24
-33
-37
-34
-6
14
24
-17
-17
-8
-7
-9
-26
-1
-2
3
10
30
28
0
-33
-23
8
1
12
1
-27
49
52
49
41
21
16
18
8
19
54
90
103
100
19
32
58
78
67
39
69
59
101
87
89
100
131
97
100
65
70
78
80
69
65
20
27
35
35
46
34
21
2
-12
7
22
-4
-18
-28
-22
-6
-22
-14
-33
-45
-30
8
7
-13
-8
3
-17
-59
-45
-36
-40
-64
-54
-37
-7
-18
18
-5
2
-18
-10
6
-23
-54
-33
-15
-37
-34
-19
-26
-33
-37
9
-19
-38
-13
-39
26
-5
-46
-37
-26
-38
-26
-34
-29
-31
-27
-26
-7
-4
14
16
-4
-4
-15
-49
-62
-43
-27
-36
-20
-38
-42
-38
-31
-31
-14
-16
-34
-19
-16
-14
-43
-29
-21
-9
-32
-35
-17
-7
-19
-25
-47
-53
-42
-16
-2
-14
-25
-13
-29
-28
12
16
-8
7
-2
-10
4
19
8
-6
-6
8
4
-11
-19
-8
22
28
-5
-9
7
2
-16
-17
-4
-8
9
-1
-4
-30
-32
-24
-21
-19
-27
-14
-12
-22
-25
-29
-48
-51
-48
-62
-61
-68
-55
-25
-22
-44
-22
-2
-4
-18
-15
-22
-52
-57
-65
-82
-75
-27
5
22
71
79
85
94
121
147
126
118
116
121
99
81
71
50
3
-30
-49
-75
-122
-80
-58
-58
-56
-51
-29
-23
-37
-41
-33
-34
-23
-28
-41
-47
-39
-46
-37
-40
-13
1
-2
-16
-68
-49
-49
-57
-21
-24
-43
-27
8
-14
-32
-21
-13
-22
-26
-23
-28
-30
-15
-11
-12
-26
-30
-16
8
-19
-32
-18
-22
-33
-38
-26
-11
-6
12
-13
-16
18
39
16
24
23
-2
4
-9
-10
-24
-12
18
21
57
43
45
27
28
38
32
46
40
29
30
36
44
73
90
75
74
65
59
56
57
78
86
73
100
88
78
68
54
73
63
52
63
60
47
54
67
55
39
42
31
11
-3
-4
22
9
-17
-1
17
0
39
37
18
-42
-36
-50
-47
-26
-18
-12
-8
-22
-30
-29
-21
-25
-21
-27
-17
-25
-19
-28
-7
-16
-25
-32
-16
-25
-18
-33
-39
-7
2
14
-3
-10
-4
-2
9
-18
-10
-34
-34
-31
-45
-37
-17
12
11
6
-19
-28
-18
-17
-24
-24
-18
-17
-13
-4
1
-38
-61
-46
-43
-42
-23
1
0
-19
-12
0
2
16
-7
-12
-10
-7
-13
-11
21
13
-4
-4
-26
-59
-77
-82
-68
-30
-17
-1
-2
26
22
25
25
32
19
24
29
24
11
1
-25
-26
-19
-11
-35
-20
12
2
4
11
10
-4
6
8
12
2
-25
-23
-37
-32
-26
-20
-14
-1
-20
-55
-29
-2
-19
-12
-18
8
7
-7
-33
-45
-38
-45
-36
-1
-7
6
6
-35
-65
-81
-75
-42
-28
-1
32
64
99
124
132
110
83
80
78
93
104
100
74
35
1
-13
-9
-39
-26
-44
-69
-67
-34
-16
-2
-9
-8
-7
1
1
-16
-21
-18
-19
-19
-20
-12
-13
7
-2
-7
-37
-61
-53
-56
-39
-14
13
24
-2
-1
4
20
3
-17
-23
-52
-29
-16
-18
-40
-35
-5
11
-2
-17
-14
-2
-18
-30
-14
11
9
-11
-16
-31
-15
1
14
18
14
-11
-17
-20
-30
1
14
15
28
51
53
54
52
44
16
13
-20
-3
25
46
46
29
29
42
40
59
59
57
51
72
53
74
66
61
74
84
77
80
65
66
57
93
83
62
71
66
56
49
52
42
-6
8
13
14
-4
-15
0
12
-8
-7
-11
8
11
31
-1
-12
-28
-22
-17
-31
-39
-23
17
-1
-7
-24
-34
-42
-16
-31
-19
-7
17
-9
-25
-17
-23
-37
-41
-10
28
18
7
-13
-30
-37
-38
-3
-8
-26
-33
-32
-24
-23
-30
-28
-17
-9
-12
-9
-14
-40
-38
-44
-21
-9
-14
-14
-26
-16
13
8
-5
-2
-1
-18
-29
-29
-19
-3
-9
-12
-13
-11
9
0
-27
-47
-52
-54
-43
-15
-19
-25
-2
29
0
-14
-34
-41
-23
7
10
19
13
12
-12
-10
9
10
10
33
30
23
-7
-31
-38
-45
-53
-59
-10
12
5
-18
-26
-30
-45
-53
-21
-2
-26
-33
-49
-47
-40
-1
-8
-12
-15
-30
-59
-57
-50
-74
-67
-50
-30
-34
-34
-45
-53
-44
-42
-47
-49
-44
-44
-32
-3
3
27
55
87
119
111
115
115
97
51
39
43
24
-6
-18
-34
-41
-38
-61
-91
-60
-66
-62
-38
-20
-27
-24
-28
-35
-32
-25
-14
-15
-43
-39
-18
-36
-28
-28
-36
-37
-38
-40
-42
-9
-36
-40
-40
-33
-38
-36
-34
-26
-31
-54
-52
-46
-34
-29
-28
-22
-24
-21
-15
1
-37
-68
-66
-34
-30
-39
-39
-38
-34
-18
-10
-4
-29
-47
-3
32
18
15
2
-12
-25
-8
-8
-1
-1
-36
-21
4
17
28
22
5
29
40
1
-22
-6
21
50
73
64
68
58
45
22
40
41
73
81
96
90
82
83
88
93
86
85
58
40
57
71
62
27
18
6
36
42
37
13
22
7
-17
-39
-4
-5
-26
-3
-6
-11
-21
-31
-39
-44
-47
-16
-12
1
-21
-7
-9
-15
-10
-2
-9
-47
-47
-21
-9
-15
-7
-15
-14
-38
-34
-13
21
24
7
-5
-15
-34
-38
-23
-29
-8
-3
-9
-26
-43
-13
-37
-12
-24
-30
-34
-14
-6
3
-3
4
5
12
-6
-10
-55
-47
-16
-34
-33
-19
-1
8
11
13
4
-5
3
34
41
7
-10
-18
-9
1
-6
5
2
3
9
18
35
28
14
1
10
10
17
6
-29
-43
-39
2
31
31
32
21
-12
-22
-24
-28
-23
-24
-30
4
19
-24
-41
-48
-46
-26
-18
-21
-11
-19
-28
-30
-16
-27
-34
-3
17
6
4
-17
-32
-22
-31
-14
-6
-20
-37
-32
-15
2
23
47
94
135
136
114
122
131
105
77
69
51
33
27
3
-14
-25
-9
-3
-24
-39
-26
-29
-34
-15
-25
-34
-43
-25
-6
-6
-17
-10
-8
-9
10
-4
-42
-37
-29
-23
-38
-17
-11
-4
13
14
-6
-10
-22
-19
2
-2
-19
-44
-34
-10
-5
-11
-18
-14
-9
-2
-13
-45
-47
-5
0
7
21
14
3
-1
-10
-5
12
20
7
-10
-3
23
19
25
18
8
17
29
18
5
47
53
27
7
6
18
35
38
19
43
68
70
54
36
43
43
71
71
69
45
66
100
121
115
108
74
73
75
78
71
110
99
96
70
23
30
51
53
14
12
11
19
42
38
40
50
4
-1
26
38
30
7
-1
1
0
17
11
26
21
0
3
-12
-18
-24
-27
-22
11
6
3
28
16
-1
-32
-28
-11
-11
-8
-2
3
1
-6
-24
-22
10
16
3
-11
-22
-11
-6
1
5
5
17
2
-13
-3
-5
-11
-15
-9
-17
-21
1
8
26
39
39
5
4
-25
-27
-41
-41
-11
-10
-16
11
4
-5
-10
24
21
-14
0
20
-11
-16
44
11
-26
-7
-3
6
36
46
46
45
46
42
29
29
18
14
-1
-4
17
43
26
13
19
-24
-26
-52
-36
-30
10
-16
-9
-3
-19
-15
-1
12
-4
-17
-19
-7
-4
-6
-19
-15
-4
-12
-20
-22
-40
-22
-25
-37
-45
-41
-16
-20
-1
29
62
80
102
133
132
130
160
149
121
105
97
62
43
12
2
-15
-14
-21
-21
-22
-32
-37
-23
-15
-19
-19
12
-2
8
8
-25
-17
-32
-37
-15
-15
-15
-13
-1
-24
-22
-42
-36
-21
-24
-16
-11
-3
-15
-12
-11
-10
-4
-9
-3
-1
-15
-41
-20
19
19
4
9
8
-14
-22
-5
-4
-19
-18
-9
-11
-27
-36
-38
24
43
25
7
12
-5
-25
5
30
31
46
39
23
23
23
26
46
52
43
29
25
27
16
32
34
50
88
74
58
67
60
63
95
116
84
71
92
89
94
88
95
54
53
58
67
64
68
82
79
68
60
43
35
41
50
51
36
38
20
17
2
6
18
1
-9
-9
-7
-1
-10
-15
2
18
-14
-18
-12
6
-8
-19
-1
24
14
1
-1
-8
-16
-4
-14
-18
-37
-24
1
16
-4
-17
-6
-20
-16
-8
-5
-23
-20
-8
-19
-17
-13
-15
-13
-7
-12
-10
-10
-7
-2
-9
1
1
-2
3
-1
-5
10
-13
16
9
5
-8
22
34
35
23
31
12
0
11
-3
-13
-3
1
18
46
33
24
9
14
-4
-6
8
26
28
31
34
35
8
-26
-33
43
33
24
9
18
25
13
17
11
-39
-38
0
8
-14
-14
-21
-19
-32
-16
-11
-18
-31
-13
-22
-1
-19
-23
-33
-30
-8
-4
-7
-9
10
-10
-24
-26
-10
4
34
49
73
75
90
95
164
146
142
149
124
104
113
97
61
8
-19
-25
-52
-66
-70
-61
-55
-8
-1
14
7
4
-17
-31
-27
-32
-6
9
10
1
4
12
-5
-8
-19
-37
-43
-51
-5
12
17
27
21
3
-15
-10
-1
-41
-58
-48
-21
6
11
5
-4
-8
-12
-13
-2
-1
5
-12
-14
-16
43
37
10
20
16
10
-10
0
12
7
19
6
38
26
10
6
8
23
31
17
29
42
25
5
19
49
49
54
52
56
62
54
54
42
40
44
74
72
67
84
101
83
65
76
75
69
66
58
56
74
98
134
113
69
86
89
64
42
20
31
29
23
39
20
9
31
66
81
58
-17
-27
-31
-40
-36
-16
-14
10
12
3
9
2
23
2
-24
-10
19
0
-17
-1
-8
-12
-9
-8
-15
-19
-30
-33
3
24
8
32
22
-44
-51
-20
-18
-13
9
37
18
-1
-8
19
25
1
-15
-30
-34
-8
9
10
2
10
12
19
18
5
-3
-10
-4
21
48
15
-25
-15
11
20
7
30
38
40
37
41
27
20
61
21
4
21
36
69
40
10
-4
2
6
-4
1
15
37
47
34
13
2
-22
-18
-1
-5
-10
-23
34
23
4
-1
-7
7
4
23
28
-16
-19
-7
-17
-8
5
15
26
28
29
10
-35
-22
-21
-20
-15
-26
-46
-40
-43
62
50
65
87
106
123
132
143
167
165
139
113
103
80
67
46
7
8
2
-10
-2
-11
-3
-10
-12
1
12
27
31
12
-1
-9
-21
-42
-59
-35
6
-19
-24
9
-10
-9
0
16
15
34
20
9
29
29
20
16
8
3
4
10
-15
-48
-77
-84
-42
13
18
40
67
39
22
6
8
12
1
-1
19
27
23
27
31
18
29
15
9
4
-3
-29
-35
8
39
50
48
54
57
61
81
77
96
74
26
27
47
38
34
45
50
42
34
17
30
53
54
51
90
112
128
132
113
98
108
95
96
98
99
92
80
54
56
52
51
73
74
68
52
41
35
50
51
46
23
18
18
10
13
12
4
15
18
-7
-12
1
20
11
-1
-15
-30
-29
-28
1
28
28
42
46
25
22
2
0
-2
-9
-32
-16
-6
-38
-46
-45
14
10
7
17
12
10
6
0
-28
-9
4
0
14
34
28
23
20
4
11
19
10
26
23
15
10
15
10
-12
-33
-43
23
30
14
-21
-32
68
84
64
47
39
44
37
53
41
41
35
31
25
18
5
7
-11
-41
-74
2
51
66
66
51
43
21
21
5
17
18
15
6
1
-1
-13
-20
-12
-27
-40
-45
-35
24
60
37
-17
-27
-32
16
39
26
17
-4
-15
-9
-6
-18
-28
-33
-24
-5
12
33
54
43
73
103
124
135
135
151
169
175
137
113
91
76
51
26
10
-7
-17
-40
-14
-4
31
39
31
-18
-16
-14
-16
-19
-17
4
5
-3
-32
-6
-17
-24
-42
-21
-19
2
-1
-7
13
11
-3
4
-20
-8
34
25
-16
-8
-27
-39
8
9
-3
1
6
22
39
48
23
15
-26
-26
-24
-1
1
15
37
41
45
37
16
21
7
9
3
12
19
22
13
13
0
-22
29
43
25
19
22
28
46
56
65
62
61
28
11
34
58
46
65
70
95
103
102
94
99
88
81
65
52
48
66
81
96
86
91
96
87
71
49
44
51
57
63
62
59
54
49
46
45
24
3
2
2
-1
12
19
28
10
-20
-3
-18
-31
-32
-17
-8
15
4
-14
5
-2
-2
10
36
23
9
1
11
-5
-8
-16
-9
2
-9
0
-1
-3
-3
15
-3
3
-11
-17
-10
38
7
-18
-17
11
11
0
7
21
18
-7
-47
-38
-25
-10
-15
-15
34
47
37
28
25
14
11
14
5
10
26
29
6
-25
-25
35
47
41
40
24
23
24
23
14
14
12
14
12
25
40
59
73
52
26
15
-23
-35
-26
-20
-21
-10
4
-7
-9
4
16
22
10
10
10
-4
-2
-9
4
6
-23
-34
-18
-2
-10
-16
-18
-34
-46
-37
-13
-5
-3
3
3
12
61
26
-18
-16
19
36
48
77
98
105
111
119
131
134
140
101
104
98
79
63
28
-19
-15
-24
-27
-38
-22
-1
13
2
-21
-41
-38
-14
1
-3
7
19
38
51
22
-14
-36
-50
-37
-11
-12
-15
-8
-25
-21
-20
-20
-5
-16
-2
-18
-10
7
26
15
3
-17
-36
-36
-18
14
29
12
18
-14
-4
12
9
8
7
-3
-22
-7
48
54
61
22
-11
-51
-44
-31
3
30
37
34
41
44
29
34
29
29
37
35
48
42
19
-8
-29
6
52
60
44
42
61
92
101
91
85
91
89
92
100
100
106
113
106
99
76
70
64
54
49
15
-18
27
70
76
64
60
51
45
38
30
29
-1
5
-2
6
7
-1
9
8
14
26
35
33
9
-15
-25
-19
-23
-28
-17
0
9
-1
-17
-18
-5
-2
-3
-13
-18
-25
-21
-36
-13
-26
-28
-30
-10
4
10
30
41
28
13
-7
-23
-46
-68
-11
15
18
11
14
-7
-11
-14
-12
-12
-5
5
-5
14
40
8
-9
5
-11
-19
1
2
12
6
12
0
0
8
25
30
38
19
10
-9
5
-3
0
19
24
27
35
4
14
15
11
19
28
29
9
3
6
17
8
11
20
-2
-15
-9
6
-11
-18
-17
-23
4
-7
-4
-1
14
-3
-19
-11
-25
-14
-27
-13
19
-3
-14
-14
-8
1
-5
-11
-11
-13
-12
-32
4
11
-32
-41
-48
-24
7
25
63
95
133
154
141
140
130
135
115
93
82
76
20
-34
-40
-18
-18
-41
-23
10
-8
-9
6
-9
-20
-26
-21
-17
-8
16
20
3
-17
-30
-62
-43
-38
-26
-10
0
-14
-27
-5
-4
-16
5
32
38
11
-24
-18
-15
-36
-50
-42
-24
-23
-19
-9
1
7
-4
8
8
8
5
7
17
19
19
26
20
22
12
-21
-34
-3
-5
-5
13
-2
-17
-18
8
5
22
46
56
52
35
10
-6
16
18
21
25
34
45
63
67
62
48
46
54
75
49
62
67
89
89
96
92
84
74
85
75
62
38
12
50
85
69
78
60
46
46
40
49
50
46
49
26
22
6
-4
-13
-15
-10
-10
-25
4
41
51
21
12
-23
-39
-25
-22
-28
-11
-11
-15
-19
-9
-8
2
-7
-32
-20
-10
-11
6
-9
-24
-45
-12
10
5
-7
-1
3
0
-11
-4
-14
-8
-5
-3
-12
-14
-20
-10
-28
-50
-23
3
-2
-7
7
7
-7
-6
-11
-10
-32
-35
-16
-5
25
32
14
12
5
-21
-29
-21
-11
-25
-6
-5
5
6
11
5
-4
-43
-1
4
3
-3
-4
-3
3
2
23
19
34
33
5
-10
-24
-5
19
32
18
4
-3
-22
-27
7
6
-6
1
-4
-10
1
-16
-4
20
24
6
-13
-23
-34
-27
-2
-21
-15
-9
-10
-8
-5
-10
-18
4
20
0
-28
-23
-21
-21
-22
-39
-3
-13
-13
-17
-29
-44
-46
-73
-76
-43
16
39
61
72
100
123
127
130
119
122
110
84
85
68
39
10
2
-6
-9
-29
-27
-4
7
-12
-10
11
15
-5
-15
-11
-6
-1
-19
-54
-42
-35
-44
-47
-43
-14
-16
-15
-17
-8
-18
-34
-21
-11
-25
-26
-26
-13
-8
-7
-8
-7
-7
-4
-7
-5
-11
-17
-8
0
-1
-3
-15
0
8
0
-21
-27
-20
-15
-11
10
11
3
-15
-23
-29
2
16
34
26
42
44
9
16
20
16
7
-2
5
10
31
52
50
29
21
37
11
17
4
25
74
112
95
91
105
90
73
48
53
59
78
100
98
95
96
79
74
72
68
71
68
44
25
17
29
29
31
30
17
3
5
18
13
18
9
11
10
6
5
18
0
-17
-24
-27
-26
-1
-4
-9
-2
-12
-11
-4
-9
-22
-23
-11
-10
-9
6
0
-24
-29
-46
-85
-32
-13
-13
-2
9
16
3
-6
-14
-18
1
28
19
-26
-45
-46
0
-6
-13
-10
-13
-15
-22
-47
-43
-7
-4
-10
-17
-23
-7
-18
-20
-18
-6
-2
13
5
17
12
17
13
2
-31
-25
-39
-30
-41
-2
17
17
27
4
-2
-31
-22
-14
7
10
8
-6
-25
-30
-10
-9
-13
-9
-9
11
20
3
4
16
10
5
1
23
23
9
16
24
0
-24
-16
-13
2
13
10
16
4
-14
-13
-20
-9
11
19
17
24
-29
-45
-56
-35
-28
-22
-36
-41
-16
0
-16
-16
-3
8
5
11
-8
-29
-35
-44
-51
-45
-50
-9
15
-18
-38
-44
-46
-18
-7
6
23
24
41
69
108
115
127
176
171
153
122
92
75
54
42
22
19
-18
-28
-58
-57
-34
-25
-20
-9
-15
-11
-14
-27
-35
-55
-30
-13
-9
-3
-4
-17
-26
-9
-13
-25
-4
-1
-4
-14
-32
-23
-18
13
-9
-43
-45
-9
-29
-59
9
9
9
0
-14
-37
-26
-25
-16
-11
-2
-2
-39
-49
-51
-5
18
26
30
20
-13
-5
10
9
4
14
20
-9
-22
-16
-15
-5
21
25
18
19
27
32
14
38
37
19
18
15
16
32
34
12
35
50
38
49
59
50
58
71
82
81
81
84
81
70
74
94
86
93
79
81
51
45
47
43
40
37
29
29
17
12
23
-3
5
25
38
9
-16
-11
-24
-28
-7
-15
-21
-17
-1
-13
-21
-21
-19
-18
-19
-25
-6
24
4
-7
-8
-24
-18
-15
-27
-16
-12
-14
-10
2
10
-20
-12
-25
-27
-34
-19
-11
-5
-7
3
-11
-35
-52
-49
-5
10
-13
-10
-3
-6
-4
-16
-11
-8
-10
-14
-8
-8
-6
-16
-24
5
-6
-26
-25
-39
-1
11
-28
-48
-28
-26
2
23
20
7
-2
-21
-40
-21
-24
-23
-20
-4
-8
-17
-31
-32
-6
13
10
-7
-9
-15
-6
-5
-8
-1
-7
-10
-22
-17
-33
-5
41
78
65
12
3
2
-11
-8
-10
1
-11
-4
11
-1
-12
-27
-8
18
14
0
-4
-9
-16
-20
-10
-6
-22
-30
-29
-27
-23
-24
-14
-8
7
-15
-11
-21
-6
-37
-40
-34
-45
-54
-38
-37
-26
-27
-29
-3
-13
-15
-12
-15
-30
-31
-3
8
40
43
55
104
138
130
131
142
155
130
114
113
88
47
25
-10
-34
-36
-37
-5
-13
-5
9
2
-21
-14
-22
-31
-18
-33
-31
-41
-39
-33
-14
-11
-2
-5
-11
-20
-33
-42
-30
-28
-25
-18
-21
-9
-1
-18
-37
-25
-29
-31
-15
-7
-33
-32
-28
-9
-1
-12
-15
-16
-19
-19
11
34
11
6
11
10
-17
-24
-17
-3
-5
-9
3
-11
-6
2
19
14
-2
-10
3
32
26
-2
-1
5
14
22
30
37
37
40
43
36
30
47
46
25
89
95
70
64
64
44
35
47
60
82
95
102
99
90
66
54
35
43
70
71
74
89
82
66
44
5
8
15
-5
-5
5
-10
7
40
31
17
11
0
3
5
-6
-30
-31
-29
-51
-40
-30
-15
15
20
3
-7
-13
-15
-23
-32
-31
-31
-32
-17
-19
1
12
-3
10
-10
-15
-9
-2
-19
-46
-58
-54
-47
0
6
-5
-9
-29
-13
-14
-21
-25
-1
8
-13
-31
-29
-13
14
-2
0
0
-2
-3
-7
-16
-3
-11
-10
-16
-24
-34
-30
-11
-19
-31
-13
23
-11
-11
-19
-23
-15
-11
1
-21
-19
-28
-44
-35
-1
18
13
9
4
4
-3
-12
-19
-8
17
10
14
-35
-3
-15
-30
-12
-12
-23
5
9
8
7
-12
-9
17
15
-3
1
10
11
35
16
-5
24
27
25
21
2
-15
-23
-23
-25
-29
-20
-14
-3
-15
-6
-11
-23
-22
-13
-7
6
-19
-17
-5
-12
-16
-31
-35
-12
-12
-10
-21
1
-14
-20
-14
-15
-51
-47
-34
-49
-52
-21
-2
12
19
-1
-1
27
59
79
112
104
113
116
122
93
75
76
70
57
29
8
-4
12
3
-11
-38
-23
-18
-33
-32
-26
-13
-11
-22
-13
-3
-15
-13
-20
-19
-35
-24
-27
-24
-23
-44
-53
-23
8
-8
-6
-12
-6
-1
-29
-42
-39
-26
-8
10
4
-14
-24
-18
-23
-24
-24
-15
-22
-25
-25
-22
-8
0
-2
-12
-8
-2
-13
-7
0
-12
-12
-25
-4
6
-6
-7
-12
9
4
-7
31
41
39
23
3
6
19
16
31
11
-9
-5
-3
29
58
51
57
57
67
49
50
52
55
66
76
66
61
47
50
56
55
59
41
54
52
78
86
61
43
32
42
25
20
11
-9
-6
-1
31
28
29
3
-10
-17
-27
-45
-18
-8
-21
-19
-9
-6
7
2
-4
-22
-39
-29
-35
-7
-1
-1
-12
-23
-29
-34
-33
-45
-31
4
15
-6
-18
-8
-23
-46
-64
-40
-11
7
-6
-18
-9
-9
-7
-20
-11
-12
4
2
-11
-22
-39
-38
-31
-26
-22
-16
-16
-13
-10
3
-12
-11
-19
-21
-21
-34
-14
-20
-20
1
-14
-14
-22
-32
-35
-29
-6
-8
-11
-35
-33
-19
-21
-34
-35
-33
-28
-2
9
10
9
-16
-41
-14
-23
-24
-19
-10
2
-32
-35
-33
-38
-21
-1
-4
-3
-2
-18
-39
-29
-18
-23
8
37
44
14
5
13
-8
-9
-10
-2
19
13
11
21
-6
1
7
-10
-33
-21
-10
-38
-45
-53
-30
-3
14
-5
-9
-14
-19
-22
-23
-13
-32
-35
-23
-12
-19
-51
-41
-48
-6
-7
2
-12
-37
-28
-14
-46
-32
-31
-33
-31
-35
-30
-22
-13
-5
6
58
82
91
119
114
122
125
115
91
74
74
50
33
3
-5
-26
-16
-36
-72
-69
-31
-26
-14
-12
4
-10
0
-5
-4
-12
-30
-20
-19
-28
-27
-19
-35
-52
-67
-31
-5
8
4
-14
-12
-10
-17
-16
-15
-32
-2
-13
-49
-68
-43
-30
-19
-21
-23
-11
-13
20
18
8
17
3
3
-17
-45
-42
-36
-30
-19
-10
-28
-7
5
12
6
2
2
10
5
-8
-2
10
16
2
13
18
24
15
20
27
32
43
48
45
29
32
41
52
57
66
67
58
56
62
69
69
86
76
54
53
50
67
68
50
47
66
56
61
60
64
72
70
49
36
43
63
36
-7
-12
-5
16
8
-23
4
11
13
-21
-14
0
4
3
7
-14
-14
-15
-31
-46
-18
-21
-47
-44
-17
6
20
18
-5
-25
-31
-26
-19
-28
-5
22
16
8
11
-8
-16
-17
-28
-25
-28
-27
-22
-11
21
-6
-23
-30
-40
-23
-11
-1
8
-2
-8
-10
11
-13
-13
-5
-9
-20
-16
4
15
13
-7
-13
-13
-43
-30
-31
-38
-32
-10
-3
-14
-11
3
-12
-4
16
1
10
-13
-17
3
10
-3
-39
-39
-9
-7
4
-3
12
24
12
-8
-29
-17
-27
-41
-26
-6
-18
-6
15
14
-5
-4
-20
-16
6
3
15
5
3
15
6
13
13
12
19
18
10
17
7
12
22
19
11
12
-2
-24
-24
-30
-23
-19
-35
-13
-17
-12
-10
-20
-25
-23
-31
-21
3
13
13
-12
