-71
-70
-69
-69
-70
-71
-72
-70
-71
-71
-69
-70
-72
-71
-74
-73
-74
-73
-76
-75
-73
-72
-72
-70
-71
-69
-68
-67
-69
-67
-66
-67
-69
-67
-64
-61
-60
-61
-66
-65
-64
-63
-65
-61
-62
-62
-63
-64
-68
-69
-69
-74
-74
-75
-80
-79
-80
-81
-81
-80
-79
-79
-79
-79
-80
-80
-77
-78
-82
-78
-77
-79
-78
-73
-74
-74
-68
-65
-54
-34
-16
-2
19
42
53
61
66
69
73
70
46
3
-33
-68
-109
-142
-167
-183
-180
-167
-150
-135
-124
-119
-119
-120
-117
-113
-112
-103
-97
-94
-92
-93
-92
-85
-84
-86
-83
-82
-79
-81
-81
-80
-82
-79
-77
-78
-80
-76
-76
-77
-75
-76
-77
-76
-76
-78
-77
-72
-72
-73
-71
-72
-75
-74
-71
-71
-71
-69
-69
-70
-68
-68
-69
-67
-65
-65
-66
-62
-63
-61
-59
-61
-61
-58
-57
-59
-59
-55
-52
-51
-53
-54
-53
-52
-52
-51
-49
-51
-50
-50
-49
-49
-52
-51
-52
-52
-51
-50
-52
-53
-53
-58
-60
-55
-56
-57
-55
-55
-56
-59
-59
-61
-62
-60
-62
-64
-65
-64
-64
-64
-64
-69
-70
-69
-69
-72
-70
-71
-76
-75
-76
-78
-78
-77
-79
-80
-78
-77
-80
-80
-81
-81
-83
-80
-81
-81
-79
-78
-81
-78
-77
-78
-79
-78
-79
-80
-78
-78
-78
-79
-81
-80
-79
-79
-80
-78
-75
-77
-78
-79
-79
-82
-80
-77
-77
-78
-76
-76
-78
-78
-78
-78
-78
-79
-79
-79
-76
-77
-79
-77
-80
-81
-82
-81
-80
-80
-76
-78
-80
-78
-78
-81
-79
-79
-81
-80
-77
-79
-80
-79
-81
-84
-85
-84
-84
-85
-84
-83
-84
-82
-83
-83
-80
-78
-77
-77
-74
-77
-78
-75
-73
-70
-68
-71
-73
-72
-72
-71
-68
-66
-66
-67
-68
-69
-72
-75
-77
-80
-81
-84
-88
-91
-88
-86
-88
-87
-87
-88
-87
-85
-86
-88
-87
-85
-87
-84
-85
-85
-86
-81
-81
-83
-79
-74
-69
-53
-34
-15
2
25
41
50
56
59
65
71
62
29
-11
-49
-89
-123
-153
-176
-187
-180
-165
-151
-137
-128
-128
-124
-122
-121
-118
-111
-106
-104
-104
-102
-98
-96
-93
-93
-94
-92
-88
-91
-87
-87
-89
-87
-86
-86
-86
-84
-84
-85
-83
-84
-84
-83
-83
-83
-84
-83
-83
-83
-79
-80
-81
-81
-78
-79
-80
-78
-76
-77
-75
-76
-76
-74
-74
-74
-74
-71
-70
-68
-68
-68
-68
-65
-66
-66
-66
-67
-62
-61
-60
-61
-60
-59
-58
-58
-56
-55
-56
-56
-53
-55
-56
-53
-55
-57
-56
-56
-55
-57
-54
-58
-59
-58
-58
-60
-61
-59
-60
-61
-60
-62
-65
-64
-65
-68
-65
-66
-66
-67
-69
-71
-73
-73
-75
-77
-77
-76
-77
-77
-78
-80
-82
-81
-84
-87
-85
-84
-86
-84
-85
-87
-88
-86
-87
-89
-87
-87
-86
-86
-88
-89
-89
-87
-89
-91
-85
-86
-87
-86
-87
-90
-90
-88
-89
-89
-87
-86
-89
-88
-88
-90
-88
-87
-90
-90
-87
-88
-88
-88
-89
-91
-88
-88
-89
-91
-89
-90
-91
-89
-90
-92
-91
-90
-90
-90
-90
-90
-89
-91
-89
-93
-93
-91
-94
-94
-91
-91
-92
-90
-92
-94
-93
-92
-93
-92
-92
-91
-92
-91
-95
-95
-94
-93
-95
-94
-95
-97
-96
-90
-92
-95
-94
-92
-93
-94
-94
-95
-97
-95
-97
-99
-99
-97
-99
-99
-94
-94
-94
-91
-90
-92
-88
-89
-90
-88
-86
-84
-82
-82
-85
-84
-83
-84
-86
-82
-80
-80
-81
-81
-85
-87
-87
-91
-93
-93
-96
-101
-102
-99
-103
-103
-102
-102
-102
-99
-98
-101
-97
-98
-102
-101
-99
-101
-103
-101
-98
-97
-93
-94
-94
-87
-73
-59
-41
-24
-3
14
31
37
42
51
60
59
39
4
-36
-74
-109
-146
-171
-188
-189
-184
-168
-154
-147
-143
-139
-139
-138
-135
-132
-127
-125
-120
-121
-117
-116
-113
-110
-109
-106
-107
-107
-106
-106
-108
-106
-104
-105
-105
-103
-103
-103
-104
-103
-102
-104
-104
-106
-101
-97
-100
-100
-98
-98
-97
-95
-96
-99
-99
-96
-96
-95
-92
-92
-94
-93
-93
-94
-90
-91
-92
-90
-87
-86
-85
-85
-86
-84
-83
-81
-82
-82
-79
-78
-77
-75
-77
-77
-77
-77
-81
-75
-72
-73
-73
-74
-75
-74
-74
-72
-73
-71
-71
-73
-74
-75
-76
-76
-76
-78
-81
-79
-77
-82
-80
-79
-82
-83
-82
-82
-85
-85
-83
-87
-87
-85
-90
-90
-90
-92
-95
-93
-92
-92
-95
-95
-97
-98
-97
-97
-100
-98
-99
-99
-100
-101
-103
-103
-103
-102
-103
-101
-99
-100
-101
-101
-102
-102
-100
-101
-103
-102
-101
-103
-101
-104
-103
-104
-102
-106
-104
-103
-103
-103
-103
-105
-105
-102
-102
-104
-105
-104
-102
-103
-101
-103
-105
-104
-103
-106
-105
-102
-103
-103
-102
-103
-105
-104
-104
-104
-104
-102
-103
-104
-104
-105
-106
-106
-105
-106
-107
-104
-104
-105
-106
-106
-108
-105
-106
-107
-107
-105
-107
-106
-106
-109
-107
-108
-106
-107
-109
-109
-106
-107
-105
-108
-110
-108
-105
-108
-108
-106
-107
-108
-107
-110
-111
-109
-109
-111
-108
-106
-106
-109
-109
-110
-111
-111
-111
-112
-110
-110
-110
-108
-107
-108
-105
-104
-102
-101
-99
-98
-99
-96
-92
-93
-94
-94
-97
-99
-98
-95
-94
-93
-91
-93
-92
-93
-96
-99
-98
-104
-108
-108
-109
-114
-113
-111
-112
-115
-111
-111
-113
-111
-113
-116
-115
-113
-112
-114
-110
-111
-113
-110
-107
-109
-106
-103
-97
-87
-66
-48
-37
-11
8
21
25
31
39
45
45
20
-21
-59
-99
-133
-165
-188
-203
-204
-192
-177
-164
-158
-155
-154
-152
-151
-149
-143
-136
-134
-130
-129
-128
-124
-121
-119
-120
-119
-117
-116
-117
-115
-116
-116
-115
-115
-114
-112
-113
-112
-110
-111
-111
-111
-109
-108
-110
-109
-107
-107
-107
-106
-107
-108
-108
-107
-107
-105
-103
-104
-102
-100
-103
-103
-100
-102
-101
-97
-97
-98
-96
-93
-95
-95
-93
-93
-94
-91
-88
-89
-90
-87
-88
-87
-84
-85
-86
-83
-81
-81
-80
-81
-81
-82
-82
-81
-83
-81
-81
-84
-85
-84
-86
-85
-85
-87
-88
-86
-87
-89
-89
-87
-89
-91
-92
-92
-96
-92
-94
-96
-96
-95
-98
-98
-98
-100
-101
-101
-100
-102
-102
-104
-106
-106
-106
-109
-109
-107
-109
-111
-109
-110
-113
-111
-111
-112
-113
-110
-112
-112
-109
-110
-111
-111
-111
-112
-112
-111
-111
-111
-110
-112
-113
-111
-108
-111
-113
-112
-111
-113
-113
-113
-113
-110
-110
-110
-110
-109
-110
-112
-110
-112
-114
-111
-111
-111
-110
-111
-110
-111
-110
-115
-114
-114
-114
-113
-113
-111
-111
-113
-112
-112
-113
-113
-112
-115
-114
-113
-113
-113
-113
-116
-116
-115
-114
-117
-115
-115
-113
-114
-113
-116
-116
-113
-112
-114
-113
-115
-114
-115
-114
-115
-116
-115
-116
-114
-113
-114
-115
-113
-115
-117
-115
-113
-114
-118
-117
-113
-114
-112
-113
-116
-116
-114
-115
-116
-115
-116
-116
-116
-115
-118
-117
-117
-119
-120
-117
-116
-117
-114
-114
-115
-112
-108
-109
-112
-107
-107
-108
-106
-102
-104
-102
-100
-101
-103
-101
-101
-100
-100
-99
-101
-99
-101
-102
-106
-104
-108
-112
-116
-118
-119
-118
-118
-119
-119
-117
-118
-118
-117
-119
-117
-117
-117
-119
-119
-119
-116
-117
-115
-113
-114
-114
-110
-106
-95
-76
-55
-42
-18
4
19
30
33
33
42
43
23
-16
-54
-95
-139
-171
-199
-220
-219
-212
-199
-183
-168
-165
-164
-164
-163
-157
-152
-149
-142
-138
-135
-136
-135
-132
-130
-128
-124
-120
-119
-120
-119
-120
-119
-117
-117
-117
-116
-116
-114
-113
-114
-114
-115
-114
-115
-114
-113
-112
-113
-111
-109
-108
-110
-110
-108
-108
-106
-104
-105
-105
-103
-104
-103
-102
-101
-103
-100
-99
-97
-99
-98
-98
-96
-94
-94
-95
-92
-91
-92
-87
-88
-86
-84
-85
-84
-87
-84
-83
-83
-79
-77
-79
-79
-77
-80
-83
-81
-80
-80
-80
-80
-84
-84
-84
-86
-90
-88
-88
-87
-87
-88
-90
-92
-87
-91
-92
-93
-92
-93
-93
-91
-96
-98
-97
-99
-103
-100
-102
-103
-105
-110
-107
-105
-106
-107
-110
-109
-110
-112
-109
-113
-114
-113
-110
-113
-113
-113
-113
-114
-113
-115
-114
-112
-111
-113
-112
-112
-111
-113
-112
-113
-113
-112
-113
-113
-113
-111
-111
-112
-113
-116
-115
-112
-111
-111
-109
-111
-111
-112
-110
-111
-113
-112
-109
-112
-111
-112
-112
-111
-109
-113
-113
-112
-112
-114
-114
-112
-109
-110
-112
-114
-114
-115
-114
-117
-114
-115
-116
-117
-112
-115
-115
-112
-114
-117
-114
-112
-114
-115
-115
-116
-115
-115
-114
-115
-113
-113
-115
-114
-114
-116
-116
-116
-121
-121
-118
-117
-117
-117
-115
-114
-115
-116
-116
-119
-115
-116
-117
-118
-118
-120
-118
-119
-121
-123
-122
-122
-121
-123
-121
-118
-119
-116
-119
-118
-114
-112
-111
-110
-107
-109
-109
-106
-105
-107
-104
-103
-104
-104
-104
-105
-104
-102
-102
-101
-98
-101
-104
-105
-110
-112
-113
-116
-121
-123
-119
-118
-121
-119
-120
-119
-117
-119
-118
-119
-118
-118
-119
-118
-121
-123
-120
-114
-114
-114
-110
-104
-93
-78
-60
-44
-20
4
19
31
37
35
39
41
20
-19
-54
-95
-136
-172
-202
-229
-231
-219
-210
-195
-178
-167
-167
-164
-161
-158
-153
-150
-149
-143
-138
-134
-135
-131
-128
-128
-122
-120
-123
-122
-119
-120
-118
-118
-117
-117
-115
-116
-119
-116
-113
-115
-119
-109
-110
-108
-109
-109
-111
-112
-108
-109
-110
-108
-109
-107
-105
-105
-108
-106
-103
-104
-105
-101
-102
-101
-98
-99
-98
-98
-95
-97
-99
-93
-92
-93
-89
-90
-93
-90
-88
-90
-90
-85
-86
-84
-85
-86
-83
-81
-80
-81
-83
-80
-82
-82
-79
-80
-82
-83
-83
-84
-84
-85
-85
-86
-87
-88
-90
-90
-94
-92
-92
-92
-92
-93
-94
-95
-95
-98
-97
-100
-102
-100
-99
-103
-103
-102
-106
-104
-106
-110
-108
-108
-110
-109
-111
-115
-116
-117
-118
-119
-115
-114
-115
-117
-117
-119
-117
-115
-116
-118
-115
-114
-114
-114
-112
-116
-116
-117
-117
-118
-116
-111
-112
-116
-114
-116
-117
-113
-115
-117
-115
-113
-113
-115
-111
-114
-112
-114
-116
-117
-114
-112
-112
-113
-114
-118
-118
-114
-113
-117
-112
-115
-116
-113
-111
-117
-117
-117
-119
-119
-116
-115
-117
-116
-116
-118
-117
-116
-118
-119
-118
-118
-119
-119
-118
-120
-118
-117
-119
-118
-119
-117
-119
-119
-121
-122
-120
-118
-119
-118
-117
-118
-119
-119
-120
-121
-121
-119
-121
-125
-123
-120
-121
-121
-119
-119
-118
-117
-117
-116
-116
-113
-111
-108
-109
-110
-109
-110
-108
-105
-103
-102
-102
-104
-104
-104
-107
-105
-107
-107
-107
-108
-108
-107
-113
-116
-116
-119
-123
-122
-120
-123
-123
-121
-123
-123
-122
-123
-123
-121
-120
-122
-124
-123
-125
-124
-125
-121
-120
-118
-115
-111
-104
-89
-76
-57
-42
-17
-1
17
26
25
28
32
22
0
-42
-79
-121
-155
-187
-216
-231
-227
-222
-204
-189
-176
-174
-168
-167
-164
-158
-154
-152
-150
-142
-139
-140
-137
-130
-127
-127
-125
-124
-124
-124
-123
-123
-120
-119
-121
-119
-120
-120
-119
-117
-118
-119
-114
-115
-116
-116
-118
-118
-117
-115
-113
-111
-108
-114
-115
-112
-108
-109
-106
-105
-106
-107
-103
-104
-104
-103
-104
-104
-103
-102
-99
-99
-96
-95
-94
-92
-94
-94
-91
-89
-90
-89
-84
-86
-87
-85
-84
-84
-83
-81
-82
-81
-81
-80
-80
-81
-82
-85
-83
-82
-85
-85
-82
-84
-87
-85
-89
-90
-90
-90
-93
-92
-95
-94
-93
-94
-98
-100
-101
-101
-100
-101
-99
-102
-104
-103
-105
-106
-106
-106
-108
-109
-108
-113
-112
-110
-113
-112
-112
-111
-114
-113
-112
-114
-116
-114
-115
-116
-115
-116
-116
-114
-113
-114
-115
-115
-116
-116
-114
-114
-115
-111
-111
-112
-112
-112
-117
-115
-111
-115
-115
-110
-112
-112
-110
-111
-114
-111
-111
-116
-115
-115
-113
-115
-111
-111
-110
-111
-108
-111
-112
-110
-112
-111
-111
-110
-113
-111
-112
-112
-113
-111
-111
-116
-110
-112
-115
-117
-113
-116
-115
-114
-113
-111
-113
-116
-116
-115
-112
-116
-116
-112
-115
-116
-116
-117
-121
-120
-118
-120
-119
-119
-118
-117
-118
-118
-116
-111
-109
-106
-107
-107
-109
-110
-105
-104
-104
-102
-102
-105
-105
-103
-102
-100
-99
-101
-103
-102
-102
-107
-107
-108
-113
-115
-116
-120
-119
-117
-119
-120
-121
-119
-122
-122
-119
-120
-118
-116
-117
-119
-119
-118
-117
-116
-110
-113
-36
-14
6
15
25
26
32
37
35
11
-30
-69
-105
-144
-177
-204
-221
-221
-213
-194
-179
-169
-164
-162
-161
-156
-154
-153
-146
-140
-137
-132
-132
-132
-131
-127
-125
-126
-123
-123
-121
-120
-120
-120
-119
-119
-120
-119
-117
-117
-116
-116
-113
-116
-117
-116
-116
-114
-109
-112
-111
-110
-111
-113
-110
-110
-108
-109
-106
-107
-108
-106
-105
-108
-108
-105
-104
-104
-99
-103
-100
-98
-99
-98
-97
-96
-97
-95
-92
-91
-91
-89
-91
-90
-90
-89
-87
-84
-83
-84
-85
-83
-84
-86
-84
-85
-86
-84
-83
-84
-85
-84
-87
-88
-87
-90
-91
-90
-91
-93
-95
-93
-95
-98
-98
-98
-100
-100
-98
-100
-102
-101
-104
-107
-107
-108
-111
-110
-110
-112
-110
-110
-111
-112
-113
-114
-115
-114
-112
-115
-116
-117
-119
-118
-117
-118
-122
-118
-116
-116
-116
-118
-121
-118
-118
-120
-121
-118
-116
-119
-118
-119
-116
-116
-117
-119
-118
-114
-118
-117
-117
-115
-117
-116
-116
-118
-119
-116
-116
-116
-116
-116
-118
-118
-116
-118
-119
-116
-115
-116
-116
-117
-119
-118
-116
-117
-117
-115
-116
-117
-119
-118
-118
-121
-118
-118
-120
-118
-119
-123
-120
-122
-122
-122
-120
-122
-123
-122
-122
-121
-119
-118
-117
-114
-113
-113
-110
-110
-114
-115
-112
-109
-110
-106
-108
-111
-111
-112
-108
-109
-107
-106
-109
-104
-104
-110
-113
-114
-117
-120
-120
-125
-127
-126
-126
-128
-125
-124
-126
-126
-126
-127
-127
-126
-126
-129
-127
-125
-128
-129
-121
-119
-120
-115
-111
-103
-89
-68
-54
-38
-17
2
12
20
22
29
34
20
-14
-55
-90
-129
-163
-191
-213
-221
-215
-200
-186
-175
-169
-166
-165
-163
-161
-158
-152
-146
-144
-142
-138
-138
-137
-133
-133
-133
-129
-129
-129
-127
-126
-128
-128
-125
-125
-124
-123
-125
-126
-124
-123
-125
-124
-122
-123
-123
-120
-120
-119
-120
-118
-119
-119
-118
-118
-119
-115
-114
-113
-112
-110
-111
-111
-110
-111
-110
-107
-105
-106
-103
-107
-105
-101
-100
-102
-100
-97
-98
-98
-97
-96
-98
-95
-93
-95
-92
-90
-89
-90
-90
-91
-91
-91
-91
-92
-91
-90
-93
-93
-91
-93
-95
-96
-94
-97
-96
-95
-98
-96
-97
-100
-101
-100
-101
-103
-105
-105
-105
-106
-107
-107
-110
-108
-107
-111
-111
-110
-112
-112
-111
-114
-118
-116
-117
-116
-116
-115
-118
-118
-118
-122
-121
-120
-121
-122
-121
-119
-120
-120
-119
-120
-120
-119
-122
-122
-121
-120
-120
-119
-118
-122
-121
-118
-120
-122
-119
-119
-119
-118
-119
-121
-120
-120
-120
-121
-119
-121
-122
-121
-120
-121
-120
-121
-120
-120
-119
-119
-121
-121
-120
-121
-120
-121
-122
-122
-121
-121
-121
-122
-122
-126
-124
-124
-124
-126
-122
-122
-124
-124
-124
-126
-126
-123
-124
-124
-120
-118
-113
-112
-113
-117
-119
-118
-114
-112
-107
-107
-109
-112
-113
-113
-110
-107
-107
-107
-106
-108
-112
-114
-116
-120
-121
-122
-127
-127
-125
-126
-127
-128
-130
-131
-127
-128
-127
-126
-126
-128
-128
-124
-126
-128
-127
-125
-123
-123
-119
-118
-111
-95
-78
-61
-45
-23
-1
10
15
20
26
36
24
-10
-48
-83
-122
-154
-185
-207
-216
-211
-201
-186
-175
-169
-170
-166
-164
-162
-158
-152
-150
-145
-144
-143
-142
-138
-134
-134
-134
-134
-134
-133
-129
-133
-133
-128
-126
-128
-127
-128
-128
-129
-127
-127
-126
-124
-125
-123
-122
-122
-125
-123
-122
-122
-123
-119
-118
-120
-118
-119
-119
-118
-117
-115
-115
-113
-114
-114
-112
-113
-112
-110
-110
-109
-109
-107
-107
-105
-103
-101
-102
-101
-100
-101
-100
-98
-95
-96
-95
-97
-96
-95
-96
-96
-94
-90
-92
-93
-93
-93
-95
-95
-96
-99
-99
-98
-98
-100
-98
-99
-102
-104
-104
-105
-105
-104
-104
-106
-108
-110
-111
-111
-110
-111
-110
-110
-113
-116
-115
-118
-116
-118
-121
-121
-119
-119
-119
-119
-120
-124
-125
-123
-123
-122
-123
-123
-124
-125
-125
-125
-127
-126
-127
-126
-124
-124
-124
-124
-123
-126
-126
-124
-126
-126
-124
-125
-125
-125
-125
-126
-126
-124
-127
-127
-123
-125
-123
-123
-126
-128
-128
-127
-127
-128
-125
-126
-127
-127
-128
-129
-129
-128
-129
-130
-128
-126
-129
-128
-125
-128
-129
-130
-131
-133
-130
-132
-133
-132
-133
-136
-132
-130
-130
-128
-124
-123
-123
-122
-122
-123
-127
-127
-125
-122
-117
-117
-119
-121
-124
-123
-121
-119
-120
-120
-115
-120
-123
-123
-129
-132
-133
-135
-137
-139
-135
-137
-140
-141
-142
-142
-142
-142
-142
-141
-140
-141
-141
-138
-140
-143
-142
-141
-138
-138
-137
-133
-130
-119
-104
-85
-70
-50
-26
-6
3
6
11
17
16
-5
-44
-81
-118
-159
-188
-219
-240
-239
-233
-219
-203
-192
-189
-187
-186
-186
-183
-179
-176
-171
-164
-165
-163
-159
-156
-153
-152
-150
-152
-154
-150
-152
-153
-150
-148
-149
-148
-146
-149
-149
-148
-148
-149
-145
-144
-147
-146
-144
-143
-145
-142
-144
-146
-143
-143
-141
-140
-141
-142
-141
-138
-142
-141
-138
-135
-137
-132
-133
-134
-135
-133
-136
-133
-129
-129
-127
-126
-127
-128
-127
-126
-127
-125
-121
-121
-121
-121
-120
-121
-121
-119
-120
-122
-120
-120
-119
-120
-120
-121
-121
-121
-124
-124
-122
-124
-126
-126
-127
-131
-131
-130
-131
-132
-128
-130
-134
-131
-133
-135
-134
-137
-140
-139
-138
-142
-143
-143
-145
-148
-147
-149
-152
-148
-148
-148
-153
-153
-155
-155
-155
-158
-156
-154
-154
-154
-155
-155
-157
-159
-159
-158
-158
-156
-155
-155
-155
-155
-155
-158
-159
-159
-160
-158
-156
-156
-156
-155
-157
-158
-157
-158
-158
-156
-156
-156
-155
-153
-160
-161
-159
-159
-158
-158
-157
-156
-157
-155
-158
-159
-157
-160
-160
-155
-155
-158
-159
-160
-162
-161
-163
-164
-162
-160
-162
-163
-163
-161
-163
-163
-155
-155
-155
-152
-153
-154
-156
-156
-156
-151
-149
-150
-152
-152
-152
-151
-149
-151
-151
-150
-148
-149
-152
-151
-156
-160
-161
-165
-168
-167
-166
-169
-169
-168
-166
-168
-168
-170
-171
-170
-167
-169
-170
-166
-169
-172
-170
-168
-166
-166
-164
-163
-156
-140
-123
-106
-89
-65
-44
-28
-20
-21
-16
-10
-17
-43
-82
-119
-163
-203
-235
-264
-279
-277
-265
-250
-235
-222
-219
-218
-214
-213
-204
-199
-194
-187
-184
-184
-184
-181
-180
-178
-174
-172
-171
-172
-171
-174
-172
-172
-170
-170
-170
-168
-164
-166
-164
-166
-168
-166
-166
-165
-165
-163
-164
-164
-164
-163
-163
-163
-164
-162
-159
-158
-159
-159
-157
-159
-159
-157
-157
-157
-153
-151
-151
-150
-151
-150
-150
-150
-150
-149
-143
-144
-140
-138
-139
-141
-142
-136
-137
-137
-136
-137
-138
-135
-136
-138
-136
-135
-137
-140
-135
-137
-136
-137
-140
-140
-139
-141
-142
-141
-140
-141
-144
-144
-145
-146
-147
-146
-148
-149
-149
-149
-149
-150
-151
-157
-156
-154
-159
-159
-156
-159
-162
-163
-163
-165
-168
-166
-165
-167
-166
-166
-169
-168
-169
-171
-170
-168
-170
-170
-170
-169
-167
-168
-170
-171
-171
-168
-170
-170
-168
-170
-170
-168
-168
-170
-167
-168
-172
-170
-166
-168
-167
-167
-170
-169
-168
-168
-170
-170
-167
-169
-170
-170
-171
-170
-168
-170
-170
-169
-166
-168
-170
-170
-170
-172
-170
-169
-171
-168
-168
-172
-172
-171
-172
-174
-170
-170
-173
-171
-170
-168
-167
-164
-165
-164
-162
-161
-164
-168
-167
-162
-159
-160
-161
-161
-160
-161
-162
-160
-159
-159
-158
-158
-160
-162
-163
-167
-170
-171
-172
-176
-175
-176
-176
-175
-175
-176
-176
-175
-173
-176
-176
-175
-177
-177
-174
-176
-178
-173
-170
-170
-169
-166
-166
-156
-137
-120
-105
-86
-62
-48
-35
-32
-34
-27
-27
-41
-76
-113
-144
-186
-224
-256
-284
-288
-280
-269
-250
-231
-223
-219
-217
-217
-211
-206
-204
-200
-194
-191
-188
-187
-184
-185
-182
-179
-179
-182
-179
-173
-173
-174
-174
-174
-175
-172
-173
-173
-170
-170
-170
-169
-170
-171
-171
-169
-171
-169
-167
-166
-166
-166
-164
-166
-165
-163
-163
-164
-162
-158
-161
-163
-159
-160
-161
-157
-155
-155
-154
-153
-153
-152
-151
-150
-151
-149
-147
-146
-146
-142
-140
-141
-140
-144
-141
-139
-140
-139
-138
-136
-137
-138
-140
-140
-138
-137
-138
-140
-138
-138
-141
-140
-140
-143
-142
-143
-146
-148
-146
-148
-146
-146
-148
-148
-147
-148
-151
-153
-151
-152
-154
-154
-155
-157
-158
-157
-158
-160
-158
-159
-160
-162
-162
-165
-166
-165
-169
-167
-164
-165
-167
-167
-167
-167
-167
-168
-168
-167
-166
-167
-167
-167
-167
-168
-167
-164
-165
-166
-164
-163
-165
-166
-166
-167
-164
-165
-168
-165
-162
-163
-163
-161
-164
-165
-162
-164
-167
-164
-163
-164
-165
-163
-165
-164
-164
-163
-165
-164
-164
-167
-165
-165
-165
-166
-166
-165
-167
-167
-164
-167
-167
-166
-167
-166
-166
-165
-162
-158
-156
-157
-158
-158
-161
-164
-160
-158
-156
-153
-154
-153
-155
-154
-156
-156
-152
-151
-153
-150
-151
-156
-159
-160
-164
-165
-165
-169
-169
-166
-168
-169
-168
-168
-170
-170
-169
-169
-170
-166
-166
-170
-167
-168
-170
-169
-164
-164
-164
-161
-156
-149
-130
-112
-100
-81
-55
-39
-29
-21
-19
-15
-11
-27
-65
-103
-136
-177
-212
-241
-265
-269
-263
-246
-231
-217
-210
-208
-208
-202
-201
-197
-192
-188
-185
-182
-182
-179
-177
-174
-171
-169
-167
-168
-171
-168
-166
-166
-166
-164
-164
-165
-164
-164
-165
-162
-161
-162
-161
-161
-160
-161
-161
-161
-159
-158
-158
-158
-159
-156
-156
-157
-154
-155
-155
-149
-150
-150
-148
-149
-149
-148
-149
-148
-147
-147
-144
-146
-143
-140
-139
-140
-135
-136
-138
-133
-133
-134
-132
-131
-130
-128
-130
-129
-128
-130
-130
-131
-129
-129
-127
-127
-128
-130
-132
-131
-135
-132
-131
-130
-134
-134
-133
-136
-136
-135
-138
-138
-134
-135
-137
-139
-138
-144
-143
-143
-143
-145
-144
-144
-147
-147
-148
-150
-148
-150
-154
-154
-152
-150
-153
-152
-151
-155
-156
-153
-156
-156
-154
-157
-155
-154
-154
-155
-154
-153
-154
-155
-154
-152
-152
-152
-154
-155
-152
-152
-154
-154
-153
-153
-154
-150
-152
-153
-153
-151
-151
-150
-149
-151
-151
-151
-152
-153
-153
-151
-151
-150
-149
-151
-151
-150
-152
-155
-152
-151
-152
-150
-149
-152
-153
-152
-154
-153
-151
-151
-153
-152
-152
-153
-155
-153
-155
-154
-154
-154
-155
-153
-149
-149
-147
-145
-147
-146
-146
-148
-147
-144
-137
-137
-137
-137
-141
-144
-140
-138
-138
-135
-133
-135
-136
-139
-143
-147
-149
-153
-155
-151
-151
-153
-156
-153
-155
-156
-156
-153
-155
-154
-154
-153
-153
-152
-154
-155
-153
-153
-154
-149
-147
-149
-145
-140
-130
-114
-94
-80
-62
-41
-20
-12
-4
0
10
13
-6
-44
-87
-119
-157
-191
-217
-236
-242
-235
-220
-208
-197
-191
-188
-186
-189
-187
-180
-172
-167
-165
-166
-164
-159
-158
-155
-152
-153
-152
-152
-154
-152
-143
-147
-150
-146
-148
-147
-145
-146
-146
-145
-142
-143
-143
-143
-144
-144
-143
-142
-141
-141
-139
-138
-139
-137
-137
-139
-138
-136
-135
-136
-132
-133
-132
-132
-132
-131
-131
-129
-129
-126
-126
-124
-125
-123
-126
-123
-120
-118
-118
-117
-117
-115
-114
-110
-113
-113
-112
-112
-112
-109
-108
-107
-108
-109
-110
-110
-110
-110
-112
-111
-111
-111
-114
-114
-116
-116
-114
-116
-119
-117
-115
-117
-117
-118
-121
-121
-122
-123
-124
-122
-122
-126
-124
-123
-130
-130
-126
-129
-132
-131
-130
-131
-133
-135
-136
-137
-134
-136
-137
-134
-134
-132
-132
-135
-138
-135
-136
-137
-136
-132
-132
-134
-134
-133
-135
-134
-133
-134
-136
-132
-133
-132
-133
-133
-133
-134
-132
-133
-134
-133
-130
-133
-133
-131
-134
-134
-133
-135
-132
-130
-132
-131
-129
-132
-133
-132
-130
-132
-132
-131
-131
-132
-131
-133
-135
-131
-129
-132
-131
-129
-131
-133
-133
-133
-135
-131
-132
-133
-131
-131
-133
-133
-131
-134
-134
-133
-136
-135
-134
-133
-134
-130
-128
-129
-128
-124
-123
-127
-128
-126
-122
-118
-119
-120
-122
-121
-122
-122
-118
-115
-116
-118
-113
-115
-119
-125
-126
-130
-131
-130
-134
-134
-135
-137
-137
-136
-135
-136
-134
-133
-132
-133
-133
-136
-136
-135
-136
-138
-134
-133
-133
-131
-126
-124
-117
-105
-87
-69
-51
-30
-11
5
10
13
21
31
27
4
-29
-70
-106
-142
-178
-201
-217
-217
-209
-195
-182
-174
-172
-167
-169
-169
-164
-158
-153
-150
-146
-147
-144
-141
-139
-139
-135
-134
-134
-135
-131
-130
-130
-128
-129
-132
-130
-128
-128
-128
-127
-127
-127
-126
-126
-123
-124
-123
-122
-124
-121
-120
-122
-118
-119
-122
-120
-118
-119
-117
-116
-113
-116
-112
-113
-114
-113
-110
-112
-108
-107
-107
-107
-104
-106
-103
-103
-102
-101
-99
-98
-97
-98
-96
-98
-98
-94
-93
-93
-91
-92
-91
-92
-93
-94
-94
-93
-96
-95
-92
-92
-94
-95
-91
-94
-96
-98
-98
-101
-98
-99
-100
-100
-100
-102
-103
-100
-103
-105
-102
-103
-104
-104
-106
-108
-109
-109
-107
-111
-110
-107
-110
-111
-114
-116
-114
-116
-116
-117
-114
-114
-115
-116
-115
-117
-117
-118
-116
-117
-114
-113
-115
-115
-115
-117
-114
-114
-116
-117
-112
-112
-113
-112
-114
-114
-115
-115
-115
-114
-111
-111
-113
-111
-112
-115
-114
-114
-115
-114
-112
-113
-112
-108
-111
-113
-112
-112
-114
-113
-111
-112
-112
-111
-112
-114
-112
-111
-114
-114
-112
-111
-113
-113
-117
-116
-113
-113
-114
-112
-110
-112
-113
-111
-114
-114
-112
-115
-116
-114
-113
-115
-115
-115
-117
-117
-117
-117
-116
-108
-105
-105
-105
-102
-103
-106
-105
-105
-101
-96
-94
-96
-97
-97
-102
-100
-98
-95
-95
-93
-91
-96
-99
-100
-105
-107
-110
-112
-116
-114
-114
-114
-115
-114
-115
-114
-113
-114
-117
-113
-110
-112
-111
-112
-117
-117
-114
-113
-112
-108
-106
-100
-95
-82
-66
-48
-32
-11
11
28
31
36
44
52
49
25
-14
-58
-94
-130
-163
-184
-199
-200
-192
-174
-161
-158
-155
-149
-148
-148
-142
-138
-136
-130
-127
-128
-126
-123
-120
-119
-116
-116
-116
-112
-113
-113
-113
-110
-110
-110
-111
-111
-113
-108
-107
-108
-109
-104
-106
-106
-104
-106
-106
-106
-105
-106
-104
-101
-101
-100
-99
-102
-103
-100
-96
-97
-97
-95
-96
-94
-94
-95
-96
-92
-89
-88
-88
-84
-86
-86
-84
-85
-85
-84
-83
-82
-81
-78
-78
-77
-74
-77
-76
-74
-75
-75
-73
-73
-75
-74
-73
-76
-77
-76
-76
-79
-77
-75
-78
-78
-78
-80
-82
-82
-82
-83
-79
-81
-84
-80
-82
-84
-86
-85
-86
-88
-88
-88
-88
-90
-91
-96
-94
-97
-95
-98
-97
-97
-96
-99
-100
-102
-102
-101
-102
-105
-103
-102
-101
-102
-103
-105
-102
-102
-101
-103
-100
-100
-101
-100
-101
-100
-100
-99
-101
-102
-101
-102
-103
-101
-102
-101
-98
-100
-101
-103
-99
-98
-99
-99
-100
-100
-98
-101
-103
-101
-98
-98
-100
-99
-100
-101
-99
-100
-100
-99
-99
-100
-98
-100
-100
-103
-103
-102
-104
-102
-99
-98
-99
-99
-99
-100
-101
-99
-102
-102
-102
-101
-101
-98
-101
-102
-102
-102
-103
-102
-99
-100
-100
-101
-102
-102
-100
-103
-105
-105
-102
-103
-107
-105
-105
-104
-102
-102
-101
-97
-97
-94
-93
-94
-96
-96
-90
-89
-85
-85
-87
-90
-89
-88
-88
-89
-87
-84
-87
-87
-88
-91
-95
-92
-96
-100
-100
-104
-105
-103
-102
-103
-103
-103
-103
-102
-101
-102
-102
-99
-98
-100
-101
-102
-104
-101
-98
-100
-98
-91
-86
-71
-55
-37
-25
-2
20
35
45
51
56
61
64
43
1
-37
-72
-116
-150
-176
-199
-201
-194
-180
-168
-154
-147
-145
-145
-141
-137
-134
-130
-125
-123
-119
-116
-116
-115
-107
-102
-103
-102
-102
-103
-102
-98
-99
-101
-97
-97
-97
-95
-97
-99
-94
-92
-95
-94
-92
-94
-93
-94
-95
-93
-90
-91
-90
-91
-88
-90
-91
-90
-89
-87
-84
-84
-83
-84
-83
-82
-79
-77
-78
-79
-76
-77
-78
-74
-72
-70
-70
-69
-69
-73
-68
-66
-68
-64
-63
-63
-61
-57
-60
-62
-59
-60
-60
-60
-57
-58
-58
-59
-61
-62
-61
-62
-63
-60
-62
-63
-65
-64
-67
-67
-68
-68
-66
-65
-66
-66
-69
-69
-71
-72
-73
-74
-77
-76
-74
-77
-78
-81
-81
-82
-83
-85
-87
-84
-88
-88
-84
-86
-90
-91
-89
-91
-92
-88
-89
-90
-93
-91
-89
-87
-87
-91
-90
-88
-89
-89
-88
-89
-94
-90
-89
-91
-91
-91
-89
-88
-88
-90
-91
-90
-89
-90
-90
-88
-89
-90
-87
-87
-90
-89
-88
-88
-89
-86
-87
-87
-86
-89
-89
-89
-88
-91
-89
-86
-87
-89
-88
-90
-91
-91
-90
-91
-91
-91
-92
-88
-88
-89
-91
-91
-92
-92
-93
-92
-92
-91
-91
-94
-94
-90
-92
-90
-88
-88
-91
-92
-92
-91
-93
-92
-93
-97
-95
-93
-90
-90
-88
-89
-85
-82
-83
-88
-85
-82
-80
-80
-79
-81
-82
-83
-81
-83
-79
-76
-77
-77
-75
-83
-88
-87
-91
-93
-92
-94
-94
-94
-93
-96
-97
-95
-98
-98
-92
-92
-92
-93
-93
-95
-92
-95
-97
-94
-90
-88
-86
-83
-80
-74
-58
-40
-21
-4
19
38
53
58
59
61
62
56
25
-17
-50
-88
-129
-159
-191
-204
-198
-191
-173
-159
-145
-140
-141
-137
-134
-131
-127
-123
-118
-114
-109
-110
-108
-104
-103
-101
-96
-93
-95
-94
-92
-93
-91
-91
-90
-92
-91
-91
-92
-91
-87
-87
-91
-87
-86
-87
-86
-85
-89
-83
-81
-81
-82
-80
-83
-82
-80
-80
-80
-77
-76
-75
-76
-75
-76
-77
-75
-75
-74
-73
-70
-70
-70
-66
-67
-66
-63
-63
-63
-59
-58
-60
-59
-58
-55
-57
-56
-57
-58
-56
-53
-54
-54
-55
-56
-54
-54
-55
-59
-55
-57
-59
-59
-59
-58
-60
-61
-63
-65
-61
-60
-63
-61
-61
-65
-66
-65
-67
-70
-70
-69
-71
-74
-72
-78
-77
-77
-77
-76
-74
-76
-79
-80
-80
-85
-85
-83
-84
-87
-86
-83
-84
-86
-84
-86
-87
-85
-85
-86
-84
-84
-86
-85
-86
-87
-85
-84
-84
-85
-85
-83
-86
-86
-85
-87
-84
-84
-86
-85
-82
-82
-84
-85
-84
-86
-84
-85
-86
-85
-81
-80
-82
-83
-86
-86
-84
-83
-84
-82
-81
-82
-84
-85
-87
-88
-86
-85
-86
-86
-83
-84
-86
-83
-86
-86
-86
-89
-88
-83
-83
-84
-85
-82
-86
-88
-87
-87
-90
-89
-88
-89
-88
-87
-88
-91
-87
-85
-85
-80
-79
-79
-79
-78
-83
-87
-80
-76
-77
-75
-74
-77
-78
-76
-74
-74
-73
-72
-75
-72
-76
-79
-80
-81
-85
-86
-88
-88
-92
-89
-87
-89
-90
-91
-91
-91
-87
-86
-87
-86
-86
-88
-85
-86
-87
-86
-80
-81
-79
-72
-67
-54
-33
-16
0
26
43
53
58
62
65
71
65
34
-7
-45
-83
-121
-153
-178
-190
-185
-176
-160
-147
-135
-129
-127
-126
-122
-117
-115
-111
-108
-105
-101
-99
-98
-98
-92
-91
-92
-90
-88
-91
-90
-89
-87
-87
-84
-85
-83
-81
-85
-87
-83
-80
-81
-82
-81
-80
-81
-80
-83
-85
-81
-77
-77
-76
-74
-74
-75
-74
-75
-74
-72
-74
-74
-73
-73
-70
-67
-67
-68
-66
-65
-65
-65
-64
-59
-58
-60
-59
-58
-56
-56
-56
-56
-55
-53
-54
-51
-49
-53
-53
-52
-51
-53
-52
-54
-52
-53
-51
-53
-54
-52
-52
-57
-56
-55
-56
-56
-58
-60
-61
-60
-60
-63
-62
-63
-65
-64
-64
-67
-67
-67
-69
-73
-69
-69
-71
-71
-73
-75
-77
-77
-76
-77
-77
-77
-77
-79
-80
-80
-80
-81
-82
-83
-80
-81
-81
-78
-80
-82
-82
-82
-83
-83
-81
-81
-81
-81
-81
-80
-82
-78
-80
-82
-77
-76
-78
-76
-78
-79
-80
-79
-80
-79
-77
-76
-77
-75
-77
-79
-77
-77
-79
-79
-76
-77
-75
-76
-76
-79
-78
-79
-80
-79
-77
-78
-80
-79
-80
-80
-79
-78
-78
-77
-77
-78
-79
-78
-81
-82
-80
-79
-81
-81
-82
-82
-84
-83
-86
-86
-86
-84
-85
-84
-82
-82
-82
-81
-83
-79
-76
-76
-78
-76
-77
-77
-73
-68
-69
-69
-68
-69
-72
-70
-67
-66
-64
-62
-66
-67
-68
-74
-75
-76
-78
-81
-82
-86
-84
-84
-84
-84
-85
-83
-83
-83
-83
-84
-85
-84
-83
-85
-84
-81
-82
-83
-79
-76
-78
-74
-68
-61
-47
-28
-8
8
29
48
55
60
68
76
77
63
29
-11
-46
-88
-121
-152
-172
-179
-176
-161
-146
-134
-127
-122
-121
-120
-119
-114
-108
-103
-99
-98
-97
-95
-95
-91
-88
-87
-86
-83
-83
-84
-83
-84
-83
-82
-81
-82
-82
-79
-79
-80
-77
-79
-80
-78
-76
-78
-78
-76
-77
-76
-73
-75
-78
-76
-76
-76
-70
-68
-70
-69
-68
-68
-69
-67
-67
-66
-66
-63
-63
-63
-61
-60
-61
-57
-57
-58
-55
-51
-51
-51
-51
-54
-52
-50
-51
-51
-44
-43
-45
-45
-44
-47
-47
-46
-48
-48
-47
-46
-48
-48
-48
-50
-51
-51
-53
-55
-53
-52
-56
-57
-56
-59
-57
-58
-63
-62
-58
-60
-61
-61
-60
-62
-63
-63
-66
-69
-66
-65
-68
-70
-71
-74
-74
-73
-75
-76
-71
-73
-75
-75
-75
-78
-78
-74
-76
-78
-77
-75
-75
-75
-75
-77
-76
-74
-76
-78
-75
-74
-75
-75
-75
-78
-77
-75
-78
-76
-74
-72
-73
-74
-77
-77
-76
-72
-72
-74
-73
-72
-70
-71
-73
-77
-74
-74
-73
-73
-73
-72
-73
-72
-73
-74
-74
-75
-75
-75
-73
-72
-73
-73
-75
-77
-74
-74
-77
-76
-74
-76
-77
-77
-77
-75
-78
-77
-77
-80
-79
-78
-81
-79
-79
-82
-78
-77
-80
-76
-73
-70
-70
-65
-68
-71
-71
-70
-68
-63
-60
-63
-64
-62
-63
-63
-61
-58
-57
-56
-56
-58
-61
-66
-71
-72
-73
-75
-78
-77
-77
-80
-79
-79
-78
-79
-79
-79
-80
-78
-78
-78
-77
-75
-76
-79
-78
-77
-75
-71
-69
-66
-59
-49
-35
-15
-2
20
40
59
65
67
76
83
82
59
23
-17
-57
-90
-123
-150
-165
-166
-163
-145
-131
-124
-121
-113
-113
-113
-112
-105
-101
-95
-94
-93
-93
-88
-86
-84
-81
-82
-80
-78
-77
-80
-79
-76
-78
-76
-74
-74
-75
-75
-73
-74
-75
-73
-72
-72
-72
-71
-73
-72
-70
-70
-70
-68
-66
-67
-65
-67
-67
-66
-63
-65
-65
-63
-59
-59
-58
-59
-59
-56
-55
-56
-54
-52
-51
-51
-50
-52
-53
-49
-48
-46
-43
-42
-42
-43
-43
-43
-42
-40
-40
-40
-39
-40
-40
-40
-39
-42
-42
-43
-43
-46
-44
-42
-45
-47
-45
-48
-49
-48
-49
-53
-48
-46
-49
-51
-52
-53
-53
-52
-54
-57
-54
-57
-58
-60
-61
-62
-61
-62
-64
-66
-62
-62
-63
-66
-66
-68
-68
-69
-68
-69
-67
-68
-70
-68
-68
-70
-70
-68
-70
-72
-67
-72
-72
-68
-69
-69
-68
-67
-69
-70
-69
-69
-67
-68
-68
-69
-67
-66
-68
-68
-66
-66
-67
-67
-69
-67
-67
-66
-68
-68
-66
-65
-66
-66
-68
-68
-67
-68
-68
-68
-67
-67
-69
-68
-69
-70
-70
-70
-70
-70
-68
-69
-67
-68
-69
-70
-70
-69
-69
-69
-68
-71
-70
-66
-74
-75
-72
-73
-74
-71
-71
-71
-70
-66
-68
-66
-63
-63
-63
-63
-63
-61
-57
-53
-55
-58
-58
-58
-59
-54
-53
-53
-51
-51
-55
-58
-61
-64
-69
-68
-68
-70
-72
-73
-75
-75
-75
-75
-76
-74
-73
-74
-74
-72
-73
-74
-71
-73
-74
-73
-71
-70
-69
-69
-67
-64
-52
-37
-20
1
18
41
61
70
73
78
88
91
75
44
-1
-38
-73
-107
-138
-156
-163
-158
-146
-128
-118
-114
-110
-109
-111
-105
-101
-98
-94
-87
-86
-86
-83
-81
-81
-77
-76
-78
-76
-72
-72
-73
-72
-73
-76
-71
-69
-70
-69
-66
-66
-69
-66
-68
-71
-69
-67
-68
-64
-63
-63
-63
-63
-63
-64
-63
-60
-60
-60
-58
-58
-59
-58
-56
-56
-54
-54
-53
-53
-51
-49
-49
-47
-49
-48
-48
-47
-47
-43
-41
-42
-40
-37
-39
-40
-37
-38
-37
-37
-34
-35
-36
-35
-36
-38
-38
-34
-35
-35
-36
-38
-37
-37
-41
-41
-40
-42
-43
-43
-41
-45
-43
-45
-44
-45
-46
-46
-50
-46
-47
-50
-50
-48
-50
-52
-52
-52
-59
-56
-55
-56
-57
-57
-61
-61
-61
-63
-64
-64
-63
-63
-64
-65
-65
-65
-65
-66
-67
-64
-65
-61
-60
-63
-65
-64
-63
-63
-67
-63
-63
-66
-64
-63
-67
-65
-63
-65
-64
-63
-63
-64
-63
-61
-63
-65
-64
-62
-63
-62
-61
-63
-61
-63
-65
-64
-64
-66
-66
-64
-65
-64
-63
-65
-65
-64
-64
-67
-66
-64
-64
-67
-65
-64
-68
-65
-64
-66
-64
-63
-66
-68
-67
-70
-70
-72
-70
-73
-72
-69
-67
-66
-65
-64
-64
-61
-60
-61
-61
-61
-63
-61
-55
-53
-51
-55
-54
-56
-54
-52
-50
-50
-49
-51
-54
-51
-56
-62
-63
-63
-63
-63
-67
-70
-71
-69
-70
-73
-73
-71
-71
-71
-69
-70
-70
-69
-70
-71
-70
-69
-70
-68
-67
-67
-64
-60
-50
-36
-16
3
19
45
66
77
82
85
89
95
85
54
10
-29
-70
-109
-137
-163
-173
-168
-157
-143
-130
-119
-116
-119
-115
-110
-107
-104
-96
-91
-86
-84
-84
-84
-81
-78
-77
-77
-73
-73
-72
-70
-71
-71
-71
-69
-70
-70
-69
-66
-67
-67
-68
-68
-65
-65
-67
-65
-63
-65
-64
-63
-63
-63
-62
-62
-63
-61
-59
-60
-59
-58
-58
-58
-56
-54
-53
-53
-52
-49
-50
-46
-48
-49
-46
-48
-47
-45
-45
-39
-42
-40
-35
-35
-36
-36
-37
-37
-35
-36
-34
-32
-35
-33
-33
-36
-35
-36
-35
-36
-37
-38
-38
-39
-39
-40
-42
-40
-39
-42
-42
-42
-46
-46
-44
-46
-48
-45
-46
-48
-45
-46
-53
-53
-53
-55
-57
-58
-59
-59
-60
-61
-65
-65
-63
-64
-67
-65
-63
-64
-66
-69
-68
-67
-68
-68
-70
-67
-66
-68
-65
-66
-70
-69
-67
-66
-70
-69
-66
-68
-66
-68
-68
-69
-67
-67
-68
-66
-65
-66
-65
-66
-68
-68
-67
-69
-70
-66
-67
-69
-69
-70
-68
-67
-66
-67
-69
-68
-69
-70
-69
-68
-70
-71
-71
-72
-72
-72
-71
-69
-67
-69
-70
-69
-70
-72
-73
-72
-71
-70
-69
-70
-74
-75
-72
-73
-73
-67
-66
-66
-62
-65
-67
-63
-65
-68
-68
-63
-60
-58
-58
-60
-61
-62
-60
-60
-58
-55
-57
-57
-57
-62
-67
-67
-70
-73
-72
-71
-73
-76
-76
-76
-77
-76
-75
-78
-74
-73
-72
-75
-74
-75
-76
-76
-75
-76
-72
-67
-67
-64
-59
-54
-38
-18
-4
12
38
58
69
75
75
79
82
71
38
-3
-35
-78
-116
-146
-175
-186
-183
-168
-155
-140
-125
-122
-123
-121
-116
-112
-105
-102
-99
-96
-91
-89
-88
-87
-84
-84
-82
-78
-78
-76
-76
-78
-77
-75
-73
-74
-73
-74
-72
-73
-70
-73
-73
-68
-69
-71
-70
-67
-70
-69
-66
-66
-68
-66
-64
-64
-63
-65
-66
-65
-65
-60
-60
-61
-61
-60
-57
-58
-54
-55
-53
-51
-53
-51
-50
-52
-50
-47
-50
-49
-44
-43
-42
-43
-44
-41
-40
-42
-45
-41
-38
-36
-40
-40
-40
-42
-41
-40
-42
-43
-42
-41
-42
-45
-46
-47
-46
-47
-48
-47
-46
-51
-49
-51
-54
-55
-55
-54
-55
-57
-60
-57
-57
-59
-61
-63
-64
-64
-67
-65
-67
-69
-68
-68
-71
-71
-69
-72
-72
-72
-70
-69
-71
-72
-72
-74
-73
-72
-73
-72
-71
-74
-71
-70
-72
-73
-69
-72
-72
-69
-69
-72
-71
-70
-71
-72
-71
-72
-72
-70
-68
-68
-69
-70
-72
-71
-70
-70
-71
-69
-70
-72
-70
-71
-72
-68
-68
-70
-70
-68
-69
-71
-69
-72
-73
-72
-72
-72
-73
-70
-71
-71
-70
-70
-72
-72
-70
-72
-74
-73
-72
-70
-68
-71
-67
-65
-64
-65
-68
-64
-67
-67
-63
-61
-60
-59
-60
-63
-63
-61
-62
-60
-58
-60
-63
-64
-63
-66
-68
-68
-73
-74
-72
-77
-76
-75
-77
-78
-77
-76
-76
-77
-74
-78
-79
-76
-77
-77
-78
-77
-76
-72
-67
-69
-68
-62
-55
-40
-23
-6
10
34
51
60
67
69
72
73
65
36
-7
-40
-79
-116
-149
-176
-185
-176
-166
-149
-133
-122
-117
-114
-113
-108
-104
-104
-97
-91
-89
-87
-85
-85
-84
-78
-77
-78
-76
-75
-73
-72
-72
-73
-72
-70
-70
-71
-67
-69
-68
-69
-70
-70
-68
-68
-68
-68
-64
-64
-67
-66
-65
-65
-64
-62
-63
-64
-60
-60
-61
-61
-60
-61
-60
-57
-58
-58
-54
-53
-54
-51
-50
-51
-52
-48
-50
-49
-45
-43
-44
-43
-44
-43
-41
-42
-41
-41
-40
-38
-39
-37
-38
-38
-39
-39
-40
-39
-39
-42
-42
-44
-45
-45
-44
-43
-46
-45
-45
-48
-47
-49
-52
-55
-51
-50
-52
-53
-53
-54
-57
-58
-58
-59
-58
-58
-60
-63
-64
-64
-63
-63
-64
-69
-66
-67
-71
-68
-64
-68
-70
-69
-71
-70
-68
-69
-70
-70
-68
-69
-70
-68
-71
-69
-69
-70
-71
-69
-72
-72
-67
-66
-68
-70
-69
-67
-70
-67
-67
-67
-67
-65
-66
-68
-66
-70
-70
-66
-68
-67
-67
-68
-69
-70
-68
-68
-71
-68
-65
-67
-67
-67
-69
-69
-67
-68
-70
-67
-69
-70
-69
-69
-72
-72
-70
-71
-73
-72
-70
-70
-70
-69
-70
-66
-62
-63
-62
-63
-63
-67
-65
-61
-58
-56
-59
-62
-63
-58
-57
-56
-57
-56
-57
-56
-58
-61
-64
-65
-68
-70
-72
-72
-73
-74
-73
-74
-76
-74
-73
-75
-73
-76
-77
-75
-74
-73
-71
-71
-71
-72
-70
-68
-69
-67
-61
-55
-40
-22
-4
10
34
51
62
69
70
76
81
72
41
6
-30
-70
-106
-137
-164
-172
-168
-154
-140
-125
-115
-115
-113
-110
-107
-107
-102
-95
-89
-88
-86
-86
-82
-78
-78
-78
-76
-76
-76
-75
-77
-76
-77
-74
-71
-73
-73
-71
-69
-67
-68
-70
-70
-67
-67
-68
-65
-66
-65
-63
-64
-67
-67
-65
-65
-67
-64
-65
-61
-60
-60
-60
-57
-57
-57
-58
-56
-52
-52
-53
-53
-55
-50
-49
-50
-51
-46
-43
-45
-42
-44
-44
-44
-42
-41
-41
-38
-38
-40
-38
-38
-40
-40
-38
-40
-41
-39
-39
-40
-42
-43
-46
-43
-43
-46
-45
-44
-47
-49
-47
-52
-54
-53
-50
-51
-53
-51
-51
-53
-53
-57
-59
-58
-59
-59
-61
-59
-58
-59
-60
-61
-62
-61
-64
-66
-68
-64
-65
-64
-63
-67
-67
-68
-69
-67
-64
-66
-68
-70
-68
-66
-68
-68
-68
-68
-68
-67
-67
-68
-67
-67
-66
-65
-67
-69
-65
-65
-67
-66
-64
-68
-67
-65
-65
-66
-64
-62
-63
-63
-63
-65
-64
-65
-65
-67
-63
-65
-67
-65
-66
-68
-68
-67
-67
-64
-64
-65
-66
-64
-66
-68
-70
-68
-69
-69
-69
-67
-69
-68
-69
-70
-68
-62
-60
-62
-58
-56
-60
-61
-61
-61
-58
-55
-57
-57
-56
-53
-54
-55
-54
-53
-53
-52
-51
-58
-59
-60
-62
-63
-65
-68
-71
-69
-70
-71
-70
-72
-73
-70
-72
-75
-72
-67
-68
-71
-67
-67
-70
-70
-69
-68
-64
-66
-65
-60
-47
-32
-16
2
20
42
60
69
72
79
86
89
71
37
-5
-40
-76
-107
-138
-158
-163
-157
-141
-126
-115
-112
-109
-106
-107
-103
-97
-93
-88
-82
-84
-86
-82
-79
-77
-74
-71
-69
-69
-70
-70
-70
-68
-69
-69
-65
-67
-69
-67
-64
-65
-65
-64
-65
-65
-61
-61
-62
-60
-60
-61
-63
-59
-60
-61
-59
-59
-60
-60
-60
-58
-58
-56
-56
-54
-52
-53
-51
-51
-51
-51
-51
-49
-48
-48
-45
-43
-43
-40
-40
-41
-39
-38
-39
-39
-35
-35
-35
-35
-35
-37
-35
-35
-36
-37
-36
-33
-36
-33
-33
-37
-37
-37
-39
-40
-40
-40
-42
-42
-43
-43
-42
-41
-46
-46
-45
-46
-48
-49
-52
-53
-51
-53
-55
-55
-54
-53
-56
-55
-57
-60
-59
-58
-62
-63
-59
-62
-62
-61
-62
-63
-63
-64
-63
-63
-61
-62
-63
-62
-65
-65
-65
-62
-66
-62
-59
-59
-61
-60
-63
-63
-63
-62
-63
-61
-60
-61
-61
-60
-64
-64
-62
-59
-61
-59
-59
-58
-60
-58
-62
-63
-61
-60
-62
-60
-59
-60
-60
-60
-63
-59
-57
-58
-61
-57
-57
-58
-59
-60
-62
-60
-59
-62
-64
-61
-59
-61
-61
-62
-64
-65
-64
-67
-65
-60
-59
-58
-57
-54
-55
-53
-52
-55
-57
-53
-51
-51
-48
-47
-47
-49
-50
-48
-50
-47
-43
-44
-43
-42
-47
-51
-54
-56
-58
-56
-61
-63
-63
-64
-64
-65
-64
-65
-64
-61
-62
-62
-61
-61
-65
-64
-62
-63
-65
-63
-61
-58
-55
-56
-56
-46
-31
-14
6
22
46
63
77
80
83
93
101
88
61
21
-19
-54
-86
-119
-143
-153
-147
-137
-120
-109
-103
-101
-99
-100
-99
-96
-88
-81
-80
-79
-79
-73
-66
-68
-68
-66
-66
-65
-64
-63
-64
-63
-61
-62
-62
-60
-60
-62
-61
-58
-58
-58
-57
-57
-59
-57
-56
-57
-55
-55
-54
-54
-53
-54
-54
-52
-53
-53
-49
-49
-49
-49
-48
-49
-49
-47
-46
-47
-45
-43
-37
-38
-37
-40
-37
-37
-35
-33
-32
-31
-31
-31
-32
-31
-30
-28
-28
-29
-26
-25
-27
-27
-25
-25
-26
-25
-27
-28
-27
-28
-28
-30
-29
-30
-32
-32
-34
-35
-32
-32
-33
-34
-33
-36
-37
-37
-40
-41
-39
-42
-44
-39
-41
-44
-45
-45
-47
-46
-45
-47
-48
-50
-51
-51
-50
-49
-52
-52
-52
-54
-55
-54
-56
-56
-55
-54
-52
-52
-51
-52
-52
-52
-53
-54
-53
-52
-53
-54
-54
-51
-53
-53
-53
-56
-54
-51
-52
-52
-51
-51
-54
-53
-52
-52
-53
-52
-54
-53
-51
-51
-51
-51
-54
-52
-52
-54
-56
-53
-52
-50
-51
-51
-53
-54
-52
-52
-53
-52
-52
-52
-52
-51
-54
-56
-56
-56
-55
-54
-54
-57
-54
-53
-56
-57
-55
-58
-59
-57
-57
-57
-57
-55
-53
-48
-48
-48
-46
-44
-47
-48
-45
-41
-40
-39
-40
-42
-45
-41
-41
-41
-39
-40
-41
-38
-40
-46
-50
-49
-51
-52
-54
-55
-58
-58
-57
-59
-57
-56
-56
-56
-56
-56
-60
-60
-57
-56
-59
-59
-60
-58
-55
-52
-54
-51
-45
-40
-25
-6
13
30
55
75
84
93
99
102
106
101
75
31
-6
-47
-84
-116
-139
-151
-146
-135
-119
-109
-100
-100
-101
-96
-92
-89
-85
-79
-71
-70
-71
-68
-67
-63
-59
-63
-61
-56
-58
-58
-57
-58
-58
-57
-55
-55
-55
-52
-51
-52
-51
-52
-52
-52
-52
-52
-49
-49
-47
-46
-46
-48
-49
-47
-46
-46
-44
-41
-41
-42
-40
-42
-42
-40
-39
-39
-36
-34
-35
-34
-34
-35
-34
-32
-30
-31
-29
-25
-24
-25
-22
-25
-23
-22
-21
-22
-20
-17
-17
-18
-17
-17
-19
-16
-17
-21
-16
-17
-20
-19
-20
-21
-21
-22
-25
-23
-20
-22
-25
-23
-26
-30
-29
-26
-27
-28
-28
-28
-30
-33
-33
-36
-36
-36
-38
-39
-39
-39
-40
-40
-42
-45
-41
-41
-43
-46
-44
-46
-47
-46
-47
-47
-47
-47
-48
-49
-43
-46
-45
-46
-46
-49
-48
-47
-47
-48
-45
-48
-48
-46
-49
-46
-45
-45
-48
-47
-45
-45
-46
-45
-45
-48
-46
-45
-47
-48
-47
-47
-47
-44
-46
-47
-46
-45
-47
-46
-45
-48
-46
-45
-48
-48
-48
-46
-46
-45
-46
-47
-46
-47
-50
-47
-46
-46
-45
-46
-48
-49
-46
-47
-49
-48
-45
-49
-49
-50
-50
-50
-49
-50
-52
-53
-50
-51
-51
-49
-45
-45
-43
-41
-40
-40
-39
-43
-43
-39
-35
-34
-34
-36
-38
-38
-37
-38
-39
-34
-34
-32
-32
-36
-44
-44
-46
-48
-49
-46
-50
-50
-52
-51
-54
-54
-52
-53
-55
-51
-49
-51
-53
-50
-49
-50
-51
-52
-50
-45
-44
-47
-41
-36
-22
-4
19
32
55
78
95
104
106
107
112
110
89
47
6
-31
-74
-109
-137
-157
-157
-149
-133
-118
-102
-94
-97
-97
-94
-90
-85
-80
-74
-70
-69
-64
-63
-60
-59
-56
-55
-50
-50
-51
-50
-48
-48
-51
-50
-47
-47
-47
-47
-48
-46
-44
-43
-43
-44
-44
-46
-42
-41
-42
-41
-40
-41
-38
-36
-40
-39
-36
-37
-38
-35
-32
-32
-32
-30
-33
-32
-30
-30
-29
-26
-25
-26
-23
-22
-24
-23
-21
-22
-20
-17
-15
-17
-16
-15
-16
-14
-12
-14
-14
-12
-11
-13
-10
-8
-10
-9
-11
-12
-16
-14
-14
-14
-15
-16
-16
-18
-20
-20
-21
-16
-19
-20
-20
-22
-23
-23
-23
-25
-25
-25
-26
-29
-30
-31
-34
-35
-33
-35
-37
-36
-37
-40
-40
-41
-42
-41
-42
-43
-43
-44
-44
-46
-43
-41
-43
-43
-42
-44
-44
-40
-42
-45
-44
-44
-46
-44
-43
-45
-46
-42
-42
-42
-40
-40
-43
-42
-42
-42
-43
-40
-41
-42
-38
-43
-44
-42
-43
-44
-42
-41
-44
-42
-40
-42
-42
-41
-41
-43
-44
-44
-43
-43
-42
-44
-44
-44
-46
-45
-44
-43
-43
-42
-43
-45
-46
-43
-45
-46
-43
-43
-45
-44
-45
-47
-45
-47
-48
-49
-46
-45
-48
-49
-45
-51
-48
-44
-44
-43
-38
-35
-37
-39
-41
-42
-39
-37
-36
-38
-34
-35
-33
-33
-31
-34
-34
-31
-34
-37
-35
-38
-42
-41
-47
-49
-50
-49
-52
-51
-48
-49
-50
-47
-49
-51
-52
-48
-51
-54
-48
-48
-49
-50
-52
-47
-45
-42
-41
-36
-29
-17
2
21
35
57
78
91
98
97
101
106
101
80
36
-3
-43
-80
-114
-144
-158
-155
-146
-130
-115
-103
-96
-96
-92
-91
-83
-81
-77
-71
-68
-66
-64
-61
-61
-59
-53
-53
-53
-51
-52
-51
-49
-48
-51
-50
-47
-45
-45
-43
-47
-48
-45
-43
-44
-43
-41
-41
-43
-39
-41
-42
-40
-39
-39
-40
-37
-38
-39
-37
-41
-37
-35
-33
-35
-32
-30
-29
-29
-28
-29
-31
-29
-29
-29
-26
-23
-18
-18
-17
-20
-19
-17
-16
-18
-15
-15
-13
-14
-12
-15
-14
-13
-12
-15
-13
-12
-15
-14
-15
-16
-19
-16
-15
-17
-14
-16
-19
-18
-19
-25
-25
-24
-24
-26
-27
-24
-24
-25
-27
-30
-31
-31
-33
-33
-33
-33
-34
-35
-37
-39
-38
-37
-39
-40
-39
-40
-43
-40
-40
-45
-42
-43
-46
-45
-43
-44
-46
-45
-42
-44
-44
-42
-44
-46
-44
-43
-43
-41
-41
-45
-45
-42
-44
-45
-41
-41
-42
-42
-43
-45
-42
-41
-44
-44
-40
-40
-42
-40
-42
-43
-41
-40
-42
-42
-41
-41
-42
-42
-43
-44
-45
-42
-44
-42
-42
-41
-40
-40
-42
-43
-41
-42
-44
-42
-41
-43
-41
-43
-44
-46
-46
-47
-48
-47
-47
-45
-47
-47
-47
-46
-44
-43
-40
-38
-33
-35
-35
-35
-40
-39
-36
-34
-33
-33
-33
-34
-34
-33
-35
-34
-32
-31
-33
-31
-31
-38
-38
-41
-45
-48
-48
-47
-51
-48
-46
-48
-49
-48
-50
-47
-46
-48
-50
-48
-47
-48
-47
-48
-52
-46
-42
-43
-40
-34
-27
-17
2
22
37
62
79
92
96
100
103
109
102
75
30
-7
-42
-80
-114
-139
-152
-150
-140
-122
-110
-100
-93
-91
-90
-87
-79
-79
-74
-67
-66
-64
-61
-60
-60
-56
-54
-52
-53
-52
-54
-51
-49
-51
-48
-46
-48
-49
-47
-48
-50
-47
-45
-46
-45
-43
-45
-43
-42
-44
-44
-40
-40
-40
-38
-37
-40
-40
-36
-36
-38
-37
-36
-37
-33
-32
-33
-32
-31
-32
-32
-31
-28
-27
-26
-23
-23
-22
-19
-22
-21
-21
-16
-17
-16
-14
-15
-14
-12
-14
-18
-16
-15
-16
-14
-11
-14
-13
-14
-17
-18
-15
-16
-21
-20
-19
-20
-22
-23
-27
-28
-25
-26
-27
-26
-26
-27
-26
-27
-31
-31
-33
-36
-37
-32
-36
-35
-35
-37
-40
-41
-39
-40
-44
-42
-43
-42
-42
-44
-45
-44
-43
-44
-45
-43
-44
-45
-46
-49
-49
-43
-44
-44
-45
-44
-45
-45
-43
-42
-47
-46
-44
-42
-45
-43
-42
-44
-41
-44
-43
-45
-44
-44
-44
-41
-42
-43
-43
-42
-44
-44
-43
-45
-42
-42
-44
-47
-42
-43
-44
-45
-43
-44
-44
-44
-44
-43
-42
-44
-45
-44
-42
-46
-44
-44
-44
-44
-45
-47
-47
-48
-48
-49
-46
-44
-44
-46
-46
-48
-50
-50
-49
-49
-44
-42
-42
-41
-39
-39
-39
-39
-41
-42
-38
-33
-31
-32
-32
-35
-35
-34
-35
-32
-28
-28
-29
-33
-32
-38
-43
-43
-45
-50
-51
-48
-50
-50
-46
-50
-48
-49
-48
-51
-50
-48
-51
-48
-46
-50
-48
-47
-48
-49
-42
-40
-41
-36
-32
-24
-9
10
26
42
68
86
95
100
104
108
112
96
58
15
-19
-59
-94
-120
-143
-147
-141
-124
-110
-99
-92
-89
-86
-84
-82
-80
-77
-70
-66
-66
-63
-61
-59
-53
-49
-53
-51
-51
-50
-52
-48
-49
-49
-46
-47
-47
-46
-46
-46
-45
-43
-42
-43
-42
-42
-45
-42
-40
-43
-41
-39
-40
-40
-38
-38
-41
-37
-37
-37
-36
-35
-35
-35
-34
-36
-34
-32
-31
-32
-29
-26
-28
-27
-24
-26
-24
-23
-19
-19
-17
-17
-15
-14
-14
-16
-15
-14
-12
-15
-13
-13
-13
-14
-11
-12
-13
-13
-14
-17
-15
-14
-15
-16
-17
-20
-19
-18
-21
-23
-22
-23
-22
-23
-26
-29
-31
-29
-30
-33
-32
-30
-34
-35
-36
-38
-39
-37
-38
-40
-37
-36
-41
-40
-41
-45
-44
-42
-43
-45
-43
-43
-44
-45
-45
-47
-47
-44
-45
-49
-44
-45
-45
-46
-46
-46
-45
-45
-44
-45
-43
-43
-45
-45
-43
-45
-44
-45
-44
-47
-44
-44
-47
-44
-46
-45
-44
-41
-43
-43
-40
-43
-44
-43
-43
-46
-43
-43
-46
-45
-40
-43
-44
-42
-43
-46
-44
-44
-46
-45
-43
-43
-44
-42
-46
-47
-46
-44
-45
-44
-44
-44
-46
