40
59
77
100
128
100
109
78
68
49
66
57
89
83
123
93
77
125
72
54
64
85
103
113
141
140
118
93
58
59
85
110
120
144
162
130
120
107
72
79
79
107
123
158
167
120
106
83
40
55
67
82
116
136
106
103
84
53
10
35
59
83
77
103
104
90
88
75
28
37
55
97
81
72
64
96
65
85
54
40
63
63
78
82
44
67
87
58
34
34
44
75
59
98
112
100
64
90
51
5
44
73
92
107
130
90
66
41
35
56
62
77
71
105
99
87
54
50
10
49
52
87
77
92
106
92
64
55
43
66
71
62
79
111
108
90
77
69
64
49
48
63
78
110
121
70
61
44
24
14
63
77
113
92
93
61
53
55
25
8
35
68
106
103
96
98
67
36
40
30
42
75
91
86
86
95
74
71
110
108
126
141
148
144
110
101
74
15
-3
-4
12
30
75
79
62
31
21
52
3
41
47
68
116
100
49
61
45
21
33
44
56
81
87
99
79
57
60
25
39
49
61
85
108
109
91
57
49
15
43
49
55
81
114
97
93
80
55
20
42
61
90
99
87
84
72
90
56
51
48
43
52
110
128
120
98
100
87
56
54
87
100
94
117
124
123
117
96
89
75
89
115
142
160
119
120
114
87
71
95
108
111
120
133
121
132
122
66
65
75
86
91
94
101
117
102
80
75
48
39
62
90
91
103
92
82
68
56
28
30
54
64
92
97
90
87
90
36
40
39
69
86
95
103
110
88
85
28
67
60
61
52
101
99
117
91
74
33
44
62
64
80
91
73
93
104
87
53
41
52
91
83
112
104
104
81
78
45
53
27
65
81
119
97
108
85
81
63
67
68
74
93
108
115
105
57
63
40
63
58
76
74
111
101
79
90
64
29
33
53
78
66
101
112
91
66
73
29
29
41
81
90
102
111
92
69
64
44
36
87
123
156
195
182
182
126
94
78
75
70
69
64
60
40
46
28
66
30
16
37
65
71
100
92
76
55
56
32
18
46
82
68
118
122
95
70
39
53
43
47
76
102
105
101
91
62
59
46
30
58
75
82
112
120
106
69
72
33
55
68
74
94
122
99
89
73
55
64
55
82
115
83
91
104
102
97
81
50
80
115
100
121
125
122
107
112
67
87
86
111
126
158
156
157
123
90
91
108
110
103
142
190
141
120
121
102
81
76
82
98
126
146
142
145
88
83
37
40
93
86
101
130
102
109
96
72
37
36
29
43
105
112
101
88
52
75
56
57
61
62
99
104
113
78
100
59
53
49
56
78
69
117
93
91
72
77
51
63
43
88
78
113
102
95
66
83
52
49
48
83
91
118
122
119
70
52
40
34
70
95
85
124
124
104
90
78
42
36
76
96
114
113
116
98
86
62
25
37
55
88
111
119
107
104
65
37
27
46
57
79
108
110
105
59
66
59
45
66
74
74
96
111
99
80
73
21
42
65
86
90
133
155
174
183
162
100
84
90
99
102
126
94
52
32
37
5
30
38
53
83
88
103
107
77
68
36
34
57
87
66
109
118
100
66
52
45
31
65
85
82
106
102
105
80
81
34
40
52
66
83
126
99
123
86
76
62
71
57
76
90
131
121
106
97
69
51
55
59
91
95
99
107
93
99
71
69
84
86
107
114
128
150
133
115
105
72
71
95
91
158
140
137
158
150
133
83
91
98
147
148
167
159
141
104
124
72
102
90
133
132
118
132
104
98
84
63
69
66
107
106
105
112
115
79
57
42
40
73
98
89
140
96
78
79
51
36
48
72
87
128
112
110
77
69
70
66
60
72
80
101
95
84
73
99
62
42
66
77
100
103
111
114
91
74
46
40
49
87
88
110
113
127
95
70
47
46
43
82
105
113
100
96
80
67
69
80
99
68
78
134
114
121
80
86
14
86
63
102
88
116
124
77
73
73
47
37
51
81
86
119
107
113
92
53
48
53
59
84
85
87
110
89
76
87
55
43
35
47
124
135
161
174
152
151
147
143
105
123
114
125
111
77
39
22
-10
12
31
59
92
110
103
74
102
87
41
47
45
49
119
108
112
86
100
67
59
67
72
81
87
133
101
104
87
56
47
69
84
92
103
101
128
114
77
81
56
49
82
101
117
137
132
104
112
71
66
86
76
80
135
112
123
107
91
87
84
81
100
128
154
142
133
122
115
88
104
113
117
145
179
165
169
159
129
117
112
120
109
143
180
191
131
154
151
132
119
110
105
125
163
158
146
100
96
87
80
80
108
112
131
132
128
119
98
70
74
83
100
93
147
134
120
102
94
67
62
71
63
123
138
123
97
116
97
55
33
92
110
120
110
122
122
106
113
89
57
73
106
130
134
127
130
115
99
62
60
85
115
136
155
117
104
123
90
76
85
83
115
117
145
141
132
117
102
77
81
85
81
146
153
162
133
109
110
63
58
73
122
148
143
127
114
107
78
60
90
105
107
126
140
143
100
88
80
83
96
105
106
116
123
128
118
108
56
70
93
115
147
170
215
218
206
204
143
129
146
115
116
137
116
58
64
53
35
50
65
78
110
108
104
115
117
85
72
95
104
86
136
142
118
124
109
101
66
62
90
106
101
129
132
118
125
138
85
61
88
120
124
131
138
128
113
99
77
73
103
101
101
131
151
122
113
122
67
97
111
108
122
133
143
134
131
96
102
98
120
112
133
173
161
153
149
134
125
134
147
136
141
170
185
185
156
146
122
132
141
146
179
208
203
166
170
147
115
126
132
121
161
172
190
158
119
115
58
81
106
118
139
156
144
127
102
104
78
77
102
96
117
139
153
128
121
94
68
63
93
102
127
136
151
134
106
75
62
89
80
125
172
149
139
111
107
92
65
69
86
94
138
140
119
119
130
81
98
99
103
106
125
115
150
114
95
102
118
101
103
125
173
150
140
131
111
82
84
107
144
122
139
139
133
119
114
88
67
65
118
120
126
112
122
100
107
91
58
98
121
113
137
165
120
105
94
76
66
98
91
143
127
154
136
109
106
89
82
160
172
201
229
214
182
152
119
104
96
91
71
67
110
95
111
95
97
59
74
85
117
137
116
125
120
100
65
72
89
94
100
123
150
127
127
110
79
103
94
80
113
127
152
140
138
110
86
77
81
100
102
117
139
138
134
108
86
87
91
103
133
143
162
143
134
111
92
97
88
111
114
146
163
144
127
117
104
103
137
123
144
165
169
166
139
135
108
136
118
160
160
163
182
183
159
139
124
134
136
122
172
192
207
176
155
157
123
124
105
135
140
164
161
142
129
105
84
93
102
104
111
146
136
136
110
88
84
67
57
122
118
142
139
140
108
92
70
87
104
79
95
131
147
143
114
106
79
70
75
83
99
134
135
136
111
102
83
94
77
121
96
160
134
133
134
102
68
84
83
102
107
131
146
131
113
113
84
83
113
110
126
152
147
125
114
94
95
101
91
116
138
140
99
104
97
97
68
92
92
103
135
114
114
128
100
89
82
79
96
108
117
124
113
123
112
94
81
81
112
101
137
125
117
119
140
117
137
158
150
144
139
155
144
104
119
69
45
28
53
79
100
107
122
112
100
58
71
67
87
95
118
126
134
122
107
62
58
68
90
109
141
139
120
100
90
106
93
73
83
102
135
151
141
111
97
71
71
82
90
115
143
142
125
110
101
39
62
111
121
123
160
151
128
105
113
83
100
96
113
111
156
164
131
113
126
93
87
110
144
169
172
159
153
175
134
89
86
115
135
173
181
178
172
141
128
98
112
135
139
152
182
159
131
130
111
73
84
111
109
129
162
153
114
86
105
68
84
88
107
117
122
124
123
95
86
78
84
103
103
118
128
123
106
88
64
65
77
72
97
118
121
104
104
88
64
75
85
99
115
107
124
125
116
96
85
65
77
69
88
131
146
128
114
97
69
68
95
95
90
140
132
133
78
77
83
88
73
103
115
132
129
118
113
100
79
65
73
85
101
137
133
121
85
90
67
52
61
101
99
120
119
126
95
87
44
62
70
89
121
106
155
130
99
86
55
57
83
101
93
146
162
159
133
121
66
74
78
123
90
110
94
78
84
58
44
43
65
79
100
125
107
84
89
82
63
61
65
92
107
138
119
121
109
67
47
47
79
107
113
139
122
98
83
74
38
73
93
106
104
135
123
87
94
92
68
81
89
98
129
128
130
111
86
76
63
70
100
99
109
130
83
129
104
91
83
86
83
105
145
150
151
126
121
93
96
85
110
140
133
150
151
148
133
100
111
109
118
147
169
157
152
131
89
86
103
108
135
130
153
137
140
114
92
66
74
75
97
112
113
131
119
95
96
39
86
85
67
84
119
116
126
90
84
69
58
68
94
86
122
101
101
103
63
58
41
68
93
111
138
122
110
99
97
56
45
65
89
107
136
122
111
99
82
57
61
67
96
101
112
125
87
112
83
34
40
95
85
100
132
142
113
98
84
77
63
78
96
112
128
117
98
98
68
47
34
71
103
99
130
102
96
95
66
49
43
76
84
91
95
122
113
76
69
62
51
83
88
111
143
119
76
85
67
69
121
131
140
145
138
111
100
78
48
37
26
32
41
75
90
100
75
45
33
35
61
91
75
110
117
121
76
78
42
35
63
84
79
110
131
101
95
81
45
57
42
90
106
112
104
111
93
68
29
56
65
58
71
130
115
123
100
84
49
74
60
73
72
96
125
111
91
89
59
70
76
92
101
131
142
106
87
94
53
65
79
102
122
154
153
115
101
90
83
82
111
123
124
146
144
143
122
100
75
81
100
117
120
132
149
117
88
73
51
76
70
85
100
129
121
107
99
60
43
33
33
80
93
118
109
91
78
53
30
65
70
71
102
103
79
86
71
72
62
47
59
56
70
107
101
82
59
29
59
57
64
86
83
96
112
75
39
49
69
57
60
73
91
125
132
85
54
35
33
55
66
95
116
111
80
86
94
51
54
43
73
90
120
114
98
53
70
65
60
58
81
76
109
104
114
68
60
33
52
38
64
68
109
110
110
80
87
32
18
29
80
72
109
98
96
89
67
51
42
35
80
82
117
109
157
140
84
54
71
64
82
83
100
91
58
21
16
0
28
55
56
65
92
102
92
57
56
40
43
60
69
74
114
98
87
68
58
27
43
31
72
93
118
101
89
106
68
34
56
75
77
88
102
96
98
93
63
50
55
52
77
110
116
110
93
75
55
38
48
47
95
108
124
117
103
88
76
22
70
101
96
128
132
130
121
83
80
70
79
99
95
146
169
155
134
94
90
89
110
92
115
147
156
147
109
119
83
98
81
80
109
132
139
140
102
100
39
62
71
63
88
104
100
100
101
69
34
46
62
74
85
136
125
94
66
61
44
48
73
65
69
105
103
87
75
77
54
41
55
90
80
122
103
102
88
62
52
36
29
60
90
116
116
120
89
74
49
45
59
86
92
113
126
68
72
58
40
39
57
72
87
140
117
96
94
81
74
61
69
78
98
114
124
111
86
65
54
41
54
82
106
111
98
85
68
61
18
46
66
80
94
89
104
86
81
41
44
28
53
87
118
124
99
97
89
74
51
70
89
122
145
139
118
94
76
57
16
38
51
36
58
64
62
68
36
27
55
42
75
74
89
128
83
55
71
69
31
47
55
62
113
102
89
93
73
43
53
54
53
72
122
130
113
77
82
40
47
56
70
96
106
90
93
91
81
35
48
50
70
77
90
93
105
78
77
67
42
76
74
94
128
138
117
100
83
57
59
77
94
97
142
139
124
119
100
52
61
92
106
136
150
163
128
111
102
106
91
86
107
123
150
147
125
113
77
52
56
89
100
103
106
131
99
74
53
42
46
63
45
74
92
106
82
101
68
20
26
64
72
109
128
101
73
82
55
42
45
68
72
83
110
91
70
80
41
30
17
51
61
94
94
101
80
67
31
1
26
92
90
107
106
109
82
71
51
45
22
71
89
117
111
114
102
73
34
32
21
52
87
88
97
99
114
70
58
56
43
80
76
95
97
100
90
74
32
39
41
64
76
109
112
84
79
61
-3
55
44
47
74
111
88
85
82
58
19
5
44
44
82
110
117
83
75
67
35
47
74
89
112
145
121
98
70
57
20
22
51
60
61
64
54
47
55
44
20
20
39
34
83
116
112
66
59
58
47
8
35
71
87
105
86
76
63
65
38
36
68
68
44
95
103
94
59
53
29
42
43
66
79
102
106
75
66
62
42
17
57
88
117
110
115
102
70
47
47
66
75
76
92
103
120
89
81
60
38
63
60
95
122
128
115
83
86
95
60
69
103
129
139
143
132
113
96
75
90
97
84
105
143
148
137
110
101
79
58
53
74
91
106
116
84
95
89
58
44
52
79
53
110
134
102
72
60
32
42
50
48
66
91
105
111
86
66
30
15
38
48
78
103
105
97
60
33
12
40
52
58
64
103
96
103
68
76
43
41
45
77
76
92
107
103
64
51
50
24
53
61
79
98
60
98
91
71
43
39
66
87
53
99
105
99
78
86
37
39
57
81
94
88
104
93
82
55
20
61
70
84
105
109
98
71
69
44
42
42
44
80
100
116
69
70
63
40
52
42
43
67
85
102
97
82
39
59
25
31
64
83
90
80
80
106
84
62
72
87
87
50
97
93
97
75
64
34
3
12
25
46
78
87
86
80
65
30
31
34
41
53
112
91
88
60
60
32
21
59
43
60
98
115
95
78
31
17
52
54
67
93
108
86
90
87
41
37
44
54
64
75
105
97
95
76
68
54
5
56
69
103
105
110
85
86
71
48
59
29
60
113
119
102
89
101
92
62
60
91
97
103
131
107
108
92
93
70
75
77
110
127
145
143
127
97
85
82
70
101
113
117
147
122
77
86
80
54
66
72
78
93
113
91
95
63
56
29
60
54
74
89
106
98
81
63
39
47
23
63
72
93
103
96
84
54
34
36
38
27
57
82
109
100
84
58
43
41
31
52
70
105
82
82
82
67
35
44
39
69
32
87
120
95
96
65
34
52
32
44
72
86
85
89
87
69
27
41
34
43
68
103
115
98
87
74
41
39
52
46
79
88
90
95
89
74
47
40
52
58
76
118
93
103
56
51
27
46
45
56
76
104
77
91
66
52
28
28
32
62
79
113
97
68
48
47
21
11
35
77
66
127
118
106
91
50
33
43
52
99
138
137
121
79
71
59
25
20
39
37
35
69
65
62
38
32
22
13
40
65
83
104
103
75
57
49
34
28
28
46
87
88
89
77
64
38
24
33
63
66
62
141
114
88
47
29
37
33
35
74
88
104
97
93
68
54
39
38
81
84
95
91
88
101
73
45
48
49
73
92
100
97
86
78
86
69
61
70
89
110
120
120
125
103
101
70
58
85
126
94
114
110
147
116
84
80
88
90
100
120
143
148
124
75
71
65
70
80
92
81
111
121
105
76
88
49
42
54
73
77
95
100
89
67
56
48
9
65
67
63
91
98
88
68
33
17
35
64
69
59
94
92
68
51
64
44
39
30
56
84
105
91
78
54
41
24
35
51
77
66
109
92
82
78
49
36
5
36
46
96
113
101
97
50
48
17
33
60
57
83
88
81
83
45
38
35
17
33
85
81
94
99
80
54
48
47
42
42
74
97
106
94
59
40
62
26
44
54
63
68
91
83
74
42
13
-4
19
53
70
85
78
72
51
51
28
26
38
41
58
69
85
90
60
71
25
29
42
63
73
113
112
110
111
93
42
39
22
59
56
83
37
42
15
1
-4
-6
5
32
51
37
49
93
45
48
19
35
28
45
51
71
75
68
63
57
15
5
19
61
62
90
89
73
57
57
27
14
36
54
73
85
68
72
57
47
16
8
30
47
85
97
79
63
42
48
8
25
31
46
46
86
93
60
56
74
31
40
51
85
77
85
112
97
86
57
40
44
81
90
95
127
112
108
115
63
60
61
60
85
104
107
112
85
65
73
25
44
73
96
95
95
81
71
71
44
28
24
43
59
60
86
64
58
54
40
-1
13
35
54
67
67
47
39
58
13
16
-4
21
58
66
59
63
43
42
19
11
17
32
46
74
73
56
35
36
9
20
36
31
51
59
63
85
43
26
-4
-2
25
38
61
83
74
59
37
29
-23
30
29
20
29
62
72
72
68
34
-2
8
16
24
40
68
57
89
53
28
31
15
33
34
44
82
69
56
42
44
2
25
39
11
32
57
67
90
42
27
-7
1
-7
24
51
77
49
52
33
38
2
-7
1
30
41
59
46
38
41
40
7
17
26
23
38
75
63
74
69
67
30
44
44
49
50
58
48
37
12
-12
-41
-38
-19
17
46
61
60
34
23
8
-32
-7
21
26
57
66
61
45
33
-8
-5
32
20
37
62
43
55
30
11
12
-4
16
35
21
30
89
67
43
21
24
-4
32
-3
34
74
71
54
39
41
4
1
11
39
50
67
77
74
55
41
14
16
24
29
66
78
86
70
39
54
24
23
29
74
63
95
93
85
67
62
36
48
66
81
88
101
96
90
98
76
54
42
64
59
76
97
96
93
49
28
7
35
42
50
55
70
83
69
44
11
20
3
12
29
33
51
68
56
15
11
26
-1
17
22
52
66
51
38
59
16
-13
6
30
45
52
70
60
61
26
27
-11
14
6
36
45
58
76
67
16
5
10
-5
23
35
52
70
67
49
25
-8
3
12
49
21
53
52
93
57
36
8
27
5
34
54
53
58
82
48
25
-9
6
11
35
43
66
86
67
58
53
-1
-4
5
35
43
61
58
82
58
57
19
25
15
18
38
91
53
67
28
32
-11
7
14
31
37
70
81
66
19
27
-1
28
7
15
48
64
61
57
13
53
5
3
11
49
20
106
90
102
67
77
48
37
23
29
45
48
58
50
34
11
-35
-26
-9
-3
38
47
60
38
27
41
2
0
27
36
42
58
50
61
63
28
-6
10
10
39
60
75
85
62
36
35
-1
1
18
66
48
70
68
46
43
32
34
14
25
47
57
78
77
51
38
7
15
14
39
34
71
65
61
82
73
38
13
24
39
58
100
92
101
59
62
38
31
41
50
60
89
111
111
101
89
54
27
52
65
84
102
128
93
95
69
54
58
47
81
67
77
120
118
70
70
38
26
22
58
52
68
111
86
54
32
16
15
15
20
33
86
89
68
55
40
6
5
18
33
16
77
78
78
51
20
21
7
3
27
47
73
79
68
50
38
1
25
24
16
48
54
80
79
56
43
10
19
36
39
38
63
64
51
30
48
25
15
49
40
43
54
43
60
54
45
23
10
19
34
36
63
54
48
72
38
15
7
14
62
67
77
63
49
35
35
25
20
24
49
63
80
82
70
60
40
17
19
38
36
47
84
57
30
35
16
-11
0
56
60
48
75
73
45
36
8
0
16
10
19
62
74
58
51
42
16
5
28
41
40
76
68
67
58
58
31
40
56
28
49
86
63
71
36
28
-11
-21
-19
3
3
44
62
46
41
33
-9
6
11
13
35
58
80
80
69
27
-10
-7
14
13
45
66
75
83
46
31
10
4
7
36
32
87
64
72
48
33
4
13
17
39
48
76
70
74
39
38
16
22
13
38
71
70
74
82
31
27
18
22
36
45
64
76
87
77
59
62
26
28
47
63
50
111
116
71
77
66
40
27
66
75
96
121
114
92
82
76
47
37
70
64
88
100
96
79
68
41
25
-1
45
70
64
80
81
65
45
25
-12
-11
11
52
43
88
60
41
4
-18
40
38
37
53
68
81
74
39
17
-11
8
19
24
41
67
62
78
49
34
15
2
4
29
35
71
45
74
64
48
1
-14
49
33
21
67
51
57
37
36
22
37
31
16
50
39
66
54
52
25
18
0
6
15
43
85
70
68
38
22
4
23
21
48
35
56
75
59
40
40
-8
-4
27
31
37
99
80
56
68
36
-20
8
28
29
59
65
64
29
47
40
-14
17
13
16
31
65
76
66
40
26
-7
13
21
14
19
66
59
53
33
27
-7
11
1
24
35
68
74
58
32
23
1
15
30
66
79
123
102
72
36
12
-4
1
28
32
7
50
33
4
19
-38
-29
-16
14
17
48
85
74
51
40
15
-8
5
14
34
47
65
71
55
21
11
1
2
6
28
53
72
56
36
46
10
-16
22
15
41
48
99
77
60
30
-3
11
7
22
36
56
65
53
50
45
13
7
5
24
43
81
71
58
72
66
35
22
16
40
45
73
72
46
79
45
43
43
54
68
61
105
108
106
94
80
41
26
47
73
86
96
110
99
61
75
26
43
7
68
67
94
88
58
47
21
-22
19
50
51
53
61
70
59
29
30
1
2
-1
3
34
39
66
56
32
31
-9
-23
22
34
41
67
58
44
48
30
-10
4
-2
41
45
56
44
57
59
31
-2
-40
6
29
51
72
69
54
28
17
13
-9
28
24
36
55
58
42
26
17
-3
-14
-22
24
41
89
54
32
60
10
-14
17
16
17
52
77
55
42
31
2
19
3
14
54
82
64
54
42
21
4
12
20
26
40
43
74
37
32
46
5
-2
9
29
29
70
71
68
43
1
-6
-6
16
27
29
60
64
59
26
13
-10
-5
-4
25
20
46
54
37
36
5
19
10
33
45
20
87
94
93
67
59
50
25
15
11
36
95
74
52
14
-22
-45
-47
-27
13
-8
40
36
43
34
29
-6
-4
7
0
45
55
49
41
34
32
3
15
13
30
29
72
64
52
31
29
13
0
8
31
40
68
75
57
39
20
7
6
21
46
65
53
38
67
27
53
12
-3
34
52
60
78
74
56
41
40
26
16
39
40
58
89
98
73
57
34
37
36
35
68
96
127
111
83
67
70
50
52
51
98
104
91
112
84
78
47
46
62
74
85
64
107
60
80
51
34
28
34
55
58
74
56
69
46
52
27
18
15
29
43
69
70
73
55
37
8
10
3
23
35
61
66
61
54
33
4
13
15
23
47
67
85
35
51
9
12
31
10
31
43
71
75
48
34
35
9
10
9
32
50
65
52
62
56
50
19
1
8
39
48
69
79
49
43
34
-9
6
35
70
85
64
62
87
70
31
9
4
19
34
48
63
78
57
53
37
3
21
42
43
32
75
65
42
48
36
16
11
16
49
33
74
90
61
48
39
1
-28
11
41
41
71
80
56
34
31
-10
3
14
50
69
67
85
60
39
10
-2
16
34
71
130
121
113
94
59
30
-12
12
40
32
43
66
20
-8
-8
-18
-17
-11
3
9
58
83
70
58
46
11
6
1
30
29
43
85
77
46
23
24
14
24
25
61
74
71
31
38
60
30
7
7
24
51
58
57
61
78
49
19
0
25
45
45
69
56
63
41
45
42
27
28
52
52
74
69
81
53
70
41
25
32
50
50
85
96
75
74
60
19
36
55
84
106
119
115
103
86
65
40
51
68
70
59
106
122
91
96
72
41
33
18
66
68
100
110
88
53
50
24
30
35
31
53
49
69
58
47
27
5
18
26
25
54
71
73
40
31
22
-3
10
22
22
46
74
72
30
12
21
-5
4
28
37
54
76
56
38
11
6
5
-11
22
44
71
79
56
38
16
28
2
2
32
55
72
75
48
35
20
-5
-3
18
35
22
53
65
83
45
38
3
1
12
11
23
60
63
58
39
21
-6
-4
6
28
42
73
63
51
32
25
4
15
27
28
49
85
59
28
23
29
1
-4
9
33
38
44
64
42
31
30
-8
-3
6
6
15
37
54
18
8
-8
-13
-3
-1
39
30
63
69
60
41
27
-29
-17
13
50
72
118
109
60
37
30
1
6
10
-9
3
4
-1
13
-12
-22
-52
-30
7
20
26
38
41
74
9
-2
-13
-22
-12
13
32
62
57
27
19
3
-21
-5
12
15
31
47
42
27
39
8
-12
-3
6
30
66
65
46
43
13
-23
-8
4
6
26
52
54
44
38
16
-4
-10
-6
-7
31
62
70
50
57
32
12
5
12
40
32
56
53
92
55
47
41
31
21
38
65
89
76
82
71
55
13
35
34
43
60
68
95
77
59
12
14
42
21
30
49
66
50
69
33
28
2
-3
7
15
25
46
49
49
43
22
-14
6
-9
12
23
18
60
16
20
13
-19
-5
1
-8
10
50
56
34
13
22
-23
-18
-12
-9
36
42
42
32
8
2
-41
-26
4
10
29
65
53
28
13
13
-18
-16
-2
23
24
48
43
24
6
32
-1
-36
-15
28
27
31
16
17
36
1
6
-21
6
22
52
60
40
39
7
-5
-35
-30
10
33
34
64
51
35
39
3
-9
-35
3
16
43
61
41
28
35
-6
-26
-28
-16
19
20
41
60
10
-5
-8
-5
-9
-2
10
29
48
42
27
7
-31
-35
-21
15
26
38
58
42
44
17
14
-14
11
41
43
104
84
36
27
23
-18
-11
-32
-16
-8
20
25
23
4
-19
-25
-16
-21
-2
12
40
34
22
18
4
-35
-22
4
16
27
40
33
9
38
33
-24
-8
11
-2
-4
73
58
42
20
9
-25
0
6
24
37
34
50
45
18
19
-6
-16
0
34
33
72
55
29
31
34
-8
-8
7
20
21
69
69
54
23
-17
-5
-1
24
37
62
99
84
58
63
44
18
4
40
48
68
102
96
87
71
45
24
36
28
69
81
104
92
80
61
35
13
21
31
59
77
58
42
57
46
0
11
12
12
31
58
60
57
42
24
8
-24
3
2
48
50
66
65
49
20
-3
-10
-11
6
36
32
44
36
49
39
17
12
6
13
24
58
66
18
22
34
-8
-3
-8
12
42
43
65
63
36
29
-11
22
-9
1
7
42
75
57
48
32
8
-4
9
39
38
53
44
37
58
34
18
3
16
31
23
52
63
39
49
19
2
-20
12
34
31
59
79
58
37
27
13
19
27
33
49
79
69
58
40
13
-12
-28
14
42
52
81
58
47
16
-2
7
8
17
30
34
53
55
41
38
15
-1
-2
0
22
41
54
54
58
62
27
19
14
28
58
75
109
108
81
32
12
-2
12
20
38
33
24
35
26
-4
-23
-10
-19
3
24
42
61
64
43
43
0
11
13
29
8
54
67
65
43
22
20
2
0
9
48
61
70
77
46
38
11
14
19
11
38
68
60
54
40
51
26
3
23
33
28
68
89
40
49
43
22
23
34
48
44
79
85
84
67
47
15
22
29
35
60
88
115
77
72
62
23
42
35
78
85
120
111
75
72
64
34
57
59
85
69
108
125
111
91
67
48
57
58
62
60
99
112
86
87
74
20
5
27
46
63
83
73
54
52
52
26
14
30
36
44
78
54
39
23
37
28
10
16
32
54
105
65
61
37
20
11
11
20
22
44
92
92
61
42
31
11
6
29
45
58
73
74
59
42
35
20
6
24
27
41
64
73
71
58
36
-1
17
15
41
51
65
99
79
49
24
9
4
32
40
54
73
70
35
30
33
-5
17
47
50
69
81
65
77
59
45
13
21
32
72
73
76
75
83
69
23
20
22
42
45
63
66
58
52
26
18
14
23
40
61
56
64
64
38
44
17
-10
-5
46
26
82
95
70
54
60
20
45
60
26
51
87
82
105
103
80
36
15
13
52
36
55
83
64
21
7
-33
-24
-32
24
30
54
63
54
42
17
-11
38
4
36
43
89
78
90
45
45
-1
21
21
59
42
79
57
64
66
39
14
19
20
54
49
84
67
56
52
52
6
5
14
61
65
82
90
63
55
39
19
17
33
59
41
103
96
79
37
37
24
31
41
67
73
95
93
76
93
70
19
48
60
73
103
88
108
111
95
60
48
35
60
100
105
119
116
101
88
52
66
61
78
62
105
111
93
91
52
35
17
-5
43
72
93
104
101
59
56
14
23
-6
20
62
101
90
73
55
40
9
20
31
40
31
76
73
73
52
47
11
16
17
5
44
94
72
70
85
50
13
25
29
33
32
66
77
62
42
55
-1
35
15
40
60
79
66
75
52
43
20
-39
25
58
67
81
86
62
55
49
5
16
25
41
57
72
96
67
63
36
-11
-1
27
21
47
91
91
66
38
47
28
27
41
31
51
104
66
99
60
46
10
0
24
60
57
82
69
42
59
19
-4
2
38
55
60
90
61
70
45
24
-8
2
18
47
44
75
86
60
66
29
19
-3
26
57
80
97
102
93
58
63
36
34
30
31
65
61
78
33
-13
-15
-39
-6
7
28
54
80
64
63
28
7
5
18
49
17
87
102
83
34
29
14
18
15
31
36
47
73
59
59
44
26
9
32
50
35
68
80
69
69
55
16
23
28
48
59
89
85
58
56
35
3
31
26
35
75
62
118
90
50
43
30
21
30
58
80
97
89
70
73
60
29
9
49
76
98
113
117
109
82
70
35
46
50
91
106
133
132
116
97
83
57
53
58
60
92
92
119
96
61
53
28
31
38
54
69
83
80
71
47
32
17
22
27
73
44
60
66
45
62
34
13
17
28
39
64
82
70
66
43
37
24
18
37
45
39
80
76
58
59
10
-7
11
28
47
62
95
84
64
39
16
26
40
12
34
66
85
84
52
50
23
25
20
42
53
68
72
59
51
43
-2
24
21
48
54
60
72
65
57
42
10
23
34
29
34
31
79
106
61
66
24
20
32
50
55
89
89
76
65
29
6
4
33
30
64
94
92
69
34
25
0
-4
37
15
20
79
77
75
45
57
5
-9
18
38
43
72
69
55
60
49
9
-8
30
67
65
82
88
104
81
65
55
9
32
43
47
81
70
32
11
5
-25
-21
-6
24
34
45
78
48
59
48
6
-4
39
32
38
74
66
58
19
25
22
19
36
57
64
76
73
62
64
24
-4
20
37
68
52
82
71
58
47
43
27
7
20
43
57
86
77
72
31
46
13
7
56
77
87
87
100
72
52
17
12
33
46
73
65
110
105
73
69
44
16
57
93
102
111
119
108
72
90
60
54
67
93
87
96
121
118
106
70
53
57
59
83
86
112
98
94
73
56
36
38
49
62
86
116
75
81
71
39
-4
14
29
49
54
89
81
83
67
25
5
-12
31
58
62
76
90
70
48
51
16
21
36
49
43
73
78
58
53
31
49
21
20
50
45
79
82
91
48
49
10
12
34
50
64
87
85
62
43
58
19
18
40
53
72
84
70
88
60
25
17
42
23
40
80
76
94
68
42
33
25
11
46
58
36
94
102
80
65
48
21
15
37
61
90
86
98
76
52
20
10
10
37
63
67
84
66
58
55
44
20
21
31
55
67
78
69
35
46
56
21
1
17
59
88
86
72
58
57
32
36
39
63
75
118
111
124
97
33
15
8
31
15
49
71
50
21
1
5
3
11
0
23
43
79
74
32
60
42
9
38
37
50
72
69
71
32
58
51
22
35
40
35
47
87
87
79
58
64
20
16
32
56
69
95
82
65
55
59
16
14
28
52
54
80
78
75
73
47
18
37
49
51
70
100
93
69
58
47
21
22
64
62
118
106
89
81
79
72
60
54
50
94
109
121
125
110
105
84
60
57
71
91
91
127
117
102
90
74
53
50
86
97
87
98
93
87
68
42
38
27
37
50
78
97
83
65
64
34
9
26
46
42
69
80
69
59
48
34
-3
24
33
62
64
80
58
44
47
8
25
25
40
58
85
76
69
59
27
14
13
14
34
54
67
73
89
61
44
19
20
23
32
41
74
66
63
47
43
31
12
34
34
49
75
78
73
57
46
9
12
23
43
53
75
82
66
45
38
0
36
25
41
50
78
73
72
61
55
10
23
18
33
56
72
65
27
41
38
33
-5
17
51
40
107
62
35
27
38
-11
-10
5
23
63
92
70
55
63
33
17
-4
19
57
61
44
88
75
89
80
51
18
32
56
58
76
69
48
12
-20
-52
-38
-28
3
25
59
43
45
21
11
-4
-30
2
59
65
79
49
59
36
25
2
-11
0
69
66
65
52
38
22
-3
-3
13
19
45
71
60
50
59
32
6
22
9
33
33
66
85
53
26
44
15
39
21
55
48
78
65
78
63
54
28
15
35
43
52
87
83
82
49
47
31
40
42
44
80
96
99
90
98
55
7
39
65
72
91
56
123
137
100
70
48
64
23
48
86
112
113
96
79
39
44
18
32
60
63
89
70
66
50
42
22
9
13
33
34
69
78
63
32
10
-8
-6
5
45
18
25
55
71
26
41
6
7
25
42
57
78
59
75
38
26
-6
-7
25
39
56
84
76
38
19
13
-9
0
5
16
35
66
95
69
23
26
6
10
15
45
56
52
39
45
33
33
10
12
30
34
71
66
56
25
16
24
13
12
23
46
75
84
60
65
48
21
11
-4
18
58
73
66
35
26
25
13
6
15
0
25
45
70
72
45
30
15
-4
2
20
44
42
37
55
35
28
29
24
17
28
48
87
87
78
57
71
31
38
34
32
32
84
51
60
11
-4
-56
-32
-16
6
18
47
38
52
27
24
10
-6
-1
15
44
64
51
63
37
41
-10
-13
7
29
28
75
69
52
48
26
3
15
28
38
36
62
91
67
39
34
-22
-2
41
44
42
75
77
71
53
27
18
7
41
47
37
68
82
80
53
39
19
14
30
51
48
76
96
73
67
27
44
44
69
81
75
124
80
85
74
77
48
47
76
75
87
122
114
86
81
44
38
59
77
87
94
108
93
77
69
41
31
12
55
42
75
71
79
64
36
5
6
35
21
45
76
79
69
53
20
10
14
7
41
47
51
62
78
46
51
-12
7
22
32
42
64
67
72
58
17
11
13
24
35
35
70
81
42
45
12
6
17
19
52
53
85
96
69
40
38
6
5
31
37
30
78
66
67
40
42
15
18
38
44
47
76
76
70
34
50
-9
15
43
67
64
78
89
61
55
47
9
25
40
30
32
73
69
78
57
30
-5
6
27
35
42
63
83
63
44
21
11
14
25
35
46
62
45
99
61
42
8
0
27
39
61
122
98
95
103
51
16
19
28
28
56
69
58
29
-4
-9
-25
-1
11
39
58
63
61
63
0
11
13
-27
19
64
74
116
80
58
42
33
16
10
18
57
58
69
66
64
48
30
15
34
29
81
76
72
64
48
54
31
5
22
53
58
79
82
93
67
28
18
35
46
46
43
92
107
96
73
40
22
45
32
57
77
102
105
98
76
73
45
46
45
65
81
117
124
120
110
97
61
64
61
86
113
140
124
93
86
93
52
27
47
68
70
128
116
111
76
77
25
19
47
73
47
102
92
71
53
33
22
23
36
39
57
78
52
64
80
45
16
25
35
44
64
94
89
68
70
42
19
24
29
56
60
67
74
79
68
37
16
19
27
26
58
66
71
88
68
41
18
32
28
37
80
90
84
64
56
34
19
26
35
38
56
78
70
58
57
58
27
25
47
50
81
98
102
76
58
15
15
50
41
68
70
99
91
56
25
15
14
27
34
65
80
101
66
51
51
21
31
20
45
28
59
51
61
33
92
32
19
21
53
66
61
76
87
58
42
33
66
79
67
80
103
85
71
66
55
13
22
-10
23
23
54
46
35
36
22
-1
15
23
32
46
77
88
73
36
44
21
24
40
35
62
95
86
70
26
49
35
18
33
51
74
91
76
79
35
47
30
14
31
28
43
90
103
63
76
42
31
36
36
67
72
92
93
60
63
39
18
23
40
68
89
103
85
95
79
51
22
33
22
88
103
110
113
98
67
42
44
80
77
97
128
120
134
119
82
73
66
56
59
121
117
115
110
97
96
65
56
41
46
61
87
105
97
84
70
12
22
34
38
76
88
76
61
56
86
10
10
32
48
40
83
92
84
62
20
22
24
18
39
59
84
81
87
44
67
21
22
24
51
62
70
79
80
50
57
15
29
17
43
51
93
93
83
38
34
23
24
1
29
55
82
62
87
58
52
16
19
50
71
71
93
81
89
57
51
30
29
32
52
79
83
85
77
50
52
41
37
34
39
50
74
82
68
50
36
-21
12
24
39
42
89
88
90
59
41
-3
22
36
33
38
63
84
79
67
32
5
29
38
40
69
113
104
124
101
70
28
18
48
55
44
46
65
69
39
11
-20
-23
7
38
54
68
80
40
35
35
-1
17
27
47
46
97
78
70
43
21
10
20
17
31
75
77
82
77
57
5
9
47
50
70
85
81
76
66
45
22
18
23
23
70
83
83
63
71
44
25
13
46
68
67
82
103
74
53
40
22
35
47
57
58
104
93
92
79
84
44
60
67
87
91
125
121
122
96
70
41
60
82
85
73
119
117
124
85
97
69
62
60
79
88
112
108
92
60
59
55
37
53
52
71
83
89
83
58
45
25
21
38
50
48
84
95
87
72
54
24
31
27
42
53
105
57
77
46
36
18
-43
26
66
71
112
73
55
61
40
18
32
34
67
66
80
79
56
56
37
18
16
40
50
67
79
98
94
64
30
19
29
-1
47
74
80
81
82
61
48
34
36
47
64
59
94
113
84
72
38
40
39
48
71
99
115
83
62
52
37
28
19
39
78
79
80
68
61
47
24
20
19
24
60
78
70
59
50
46
45
31
55
50
84
85
91
83
63
54
26
35
53
68
86
134
111
103
65
40
29
44
5
49
31
50
54
34
16
22
13
15
35
38
42
87
70
70
57
37
17
25
42
58
59
88
90
63
63
44
30
14
37
39
55
106
91
57
74
53
11
18
37
44
68
66
84
69
35
48
18
26
28
70
68
74
93
83
71
55
21
35
51
62
83
90
98
84
59
56
4
51
77
79
102
112
111
113
63
45
44
54
52
114
99
139
115
105
97
69
49
49
75
105
107
134
120
83
79
67
40
36
65
91
118
118
96
90
78
44
40
37
52
76
82
93
82
64
49
41
23
17
37
49
64
87
81
73
56
10
7
11
39
73
80
73
69
55
41
13
29
34
42
44
75
91
73
47
48
32
27
37
64
59
86
92
70
65
42
22
19
42
46
55
97
73
72
68
41
-10
18
11
63
67
83
98
85
62
43
36
14
24
39
50
92
82
60
47
60
36
22
20
59
86
107
86
91
53
8
15
29
24
57
43
91
74
62
31
37
24
14
25
62
74
78
73
62
51
30
8
15
31
46
59
85
74
47
31
21
21
47
32
34
62
87
97
77
71
57
52
33
25
29
54
60
64
41
36
8
-15
-20
14
25
38
58
55
58
51
23
16
37
38
48
80
67
68
46
40
15
11
17
46
57
84
84
67
36
33
16
15
29
41
58
84
83
70
25
37
35
29
50
39
66
86
78
85
56
42
27
26
34
52
51
91
81
52
65
48
17
28
31
56
89
95
86
93
70
60
32
39
29
55
72
93
112
127
79
67
57
56
82
87
90
118
116
121
83
94
51
58
65
66
80
121
109
76
75
57
54
36
34
44
61
101
62
73
61
27
5
31
32
12
77
99
66
57
29
25
26
23
49
41
61
77
86
62
35
14
11
30
31
45
50
76
66
50
52
30
8
5
17
33
55
75
53
61
46
31
9
15
28
59
38
60
85
68
43
8
18
12
27
-4
47
83
85
58
49
22
7
18
25
35
73
96
82
44
33
5
-10
4
43
44
64
67
84
46
30
0
6
14
52
33
85
85
71
23
40
12
-4
29
40
44
86
78
83
54
38
1
26
18
36
32
55
75
56
38
35
6
-9
7
27
36
92
63
48
22
32
-9
-13
-5
58
42
66
73
53
38
29
29
15
32
32
47
72
96
80
66
61
35
22
31
28
44
80
80
54
25
-10
-27
-36
-7
0
4
30
48
22
40
16
-8
23
28
40
54
74
70
71
29
9
3
7
6
23
43
80
60
47
22
10
-3
-9
18
29
56
77
54
61
42
19
-12
24
-7
59
67
64
57
41
29
-2
7
31
19
34
80
78
68
53
34
26
-7
29
48
59
54
70
87
56
44
20
22
1
57
64
72
93
107
100
80
46
42
36
54
67
101
97
90
56
57
60
34
42
65
83
94
77
91
77
45
2
10
25
32
42
83
64
76
37
35
0
-7
14
28
32
47
33
36
33
29
-8
-7
20
9
33
58
48
39
17
25
-20
-33
3
30
31
64
44
39
18
15
-8
-32
-4
24
28
52
57
36
17
3
-5
-31
11
24
16
25
61
33
27
30
-18
-11
-10
3
36
49
39
50
32
10
3
-11
-3
25
37
47
50
25
31
14
-9
-23
-5
12
25
51
34
24
16
2
-27
-13
7
32
38
53
47
23
10
-2
-14
-8
19
28
48
56
41
22
12
-7
-8
-4
9
43
43
54
38
44
10
-34
-32
-25
3
18
33
31
32
18
20
-7
-19
-35
-20
-5
24
50
19
20
31
-29
-19
-7
8
22
64
55
34
18
-1
11
2
33
51
57
91
71
60
21
15
-18
-23
-52
-51
-38
1
20
18
-13
-25
-51
-61
-30
20
17
48
31
13
13
26
-29
-29
1
9
9
39
46
41
15
-12
-38
-23
-2
21
4
49
33
26
11
14
-39
-43
1
23
12
49
53
25
-3
-9
-29
-27
-1
22
17
51
43
34
20
22
-6
-32
-27
24
38
47
44
33
11
10
-4
-7
21
29
43
71
62
51
40
18
-10
13
40
31
64
88
76
82
45
31
-1
8
29
68
74
84
77
54
42
17
3
-3
19
25
37
52
53
33
35
-3
-26
-25
-2
26
30
40
45
14
7
-17
-35
-12
-6
4
4
35
43
27
-13
-29
-32
-24
-7
2
37
41
9
4
5
-42
-40
-30
-20
13
35
23
18
10
-5
-48
-16
-27
8
24
38
38
45
23
-14
-21
-45
-37
-12
11
51
45
17
-4
28
-39
-19
-11
-10
19
31
28
23
20
-4
-38
-36
-29
9
14
39
29
23
0
-9
-31
-47
-27
8
4
32
33
38
7
-13
-48
-32
2
14
3
52
53
21
15
1
-27
-22
-18
-13
24
25
27
20
20
-7
-43
-27
-34
14
4
35
46
16
-2
-23
-59
-43
-24
-9
7
19
-7
40
18
-4
-19
-4
2
17
14
27
13
24
22
19
4
11
36
40
50
50
38
18
4
-23
-51
-61
-70
-60
-3
-5
0
-37
-53
-23
-28
-23
-12
17
27
5
8
-10
-2
-41
-7
-33
-12
23
22
24
25
5
-6
-23
-14
9
-26
11
26
46
30
5
2
-8
-15
-13
-23
3
26
30
14
12
-5
-17
-15
-10
-6
1
38
46
35
-7
0
-30
-5
5
9
18
45
45
53
29
9
-15
-1
4
11
14
63
63
40
51
32
0
12
13
45
62
93
71
51
50
32
34
0
23
40
63
78
65
59
5
27
-4
-1
7
23
21
59
60
37
-7
6
0
-6
-22
-7
35
32
18
21
28
-12
-40
-31
-5
-1
13
44
46
22
-14
-10
-26
-56
-37
-17
6
32
47
21
-6
-46
-25
-37
3
1
13
37
31
19
2
-22
-19
-14
-25
-16
22
45
40
22
-16
-30
-28
-7
-6
-6
24
34
25
16
-14
-24
-36
-13
5
-12
39
26
23
21
-5
-14
-33
-39
-17
18
39
41
41
18
4
-16
-26
-26
6
7
42
52
26
17
15
-48
-3
6
-9
-6
27
28
41
8
6
-18
-23
-19
1
18
41
17
28
-13
-28
-50
-26
-19
11
27
25
21
22
-3
10
-6
-28
-20
4
12
49
34
11
6
2
-3
27
37
41
54
54
45
40
14
6
-43
-55
-65
-50
-40
-4
12
14
4
-34
-42
-49
-24
4
36
39
36
20
-33
-27
-31
-36
-7
15
20
45
41
22
11
-19
-19
-40
-2
6
26
44
40
29
16
-15
-34
-26
-2
2
12
20
43
28
14
37
-12
-20
4
20
15
29
54
9
28
-18
-31
-28
14
22
50
49
43
39
47
4
0
-6
3
36
54
87
53
35
39
10
22
26
47
49
71
92
83
57
46
16
25
35
30
37
56
72
69
47
54
5
12
35
30
31
57
40
29
50
19
-18
-1
-4
15
12
34
36
45
26
16
-11
-14
-10
4
15
34
26
18
33
-15
-17
-44
-31
11
23
56
42
15
18
-35
13
-22
-9
-4
12
60
57
32
13
-10
-26
-19
-4
6
23
55
60
58
-9
-2
-21
-25
-2
-24
15
59
51
30
34
5
-5
-18
-19
-14
33
39
46
30
17
-19
-15
-5
3
12
40
54
56
27
8
-8
1
-10
4
39
28
50
39
65
19
10
-7
-20
0
14
44
42
26
30
15
1
-14
-17
0
5
44
29
30
28
5
-12
-21
-7
-32
6
57
44
31
31
18
4
-20
-18
0
17
47
71
75
65
64
36
21
22
12
19
57
67
45
16
-67
-94
-67
-57
2
6
42
39
22
17
20
-17
-65
-8
-10
-15
53
50
16
43
7
-43
-12
-8
9
10
54
52
31
21
-1
-8
7
-12
-6
19
54
43
47
0
1
12
13
-1
24
16
52
50
42
32
-8
-28
-12
-11
-2
-2
59
52
31
10
-1
-58
-19
0
38
44
57
60
51
21
27
3
3
-22
29
49
94
82
77
43
15
13
19
18
27
59
90
82
62
59
2
20
22
30
48
71
67
75
43
32
10
0
-5
8
15
30
52
40
24
41
34
-19
-28
5
0
-3
33
50
32
5
1
-12
-27
11
21
30
38
42
26
5
-13
-28
-17
1
32
25
37
44
6
4
-20
-20
-28
-14
19
24
44
43
1
-13
-36
-2
-21
9
31
25
15
45
23
3
-10
-24
-15
23
17
47
47
30
27
-1
-19
-18
-20
-2
17
34
32
30
1
30
-6
-10
-16
6
24
35
57
20
17
12
-22
5
11
28
18
50
48
50
24
-3
-34
-37
-15
-1
3
34
56
36
2
-15
-21
-19
-29
18
27
45
46
25
22
-13
-47
-23
-8
11
17
44
49
32
31
3
0
17
37
48
77
82
76
54
23
-39
-44
-20
-21
2
9
1
0
6
-9
-23
-41
-49
-54
36
13
4
31
19
-5
4
-8
-12
-4
11
29
25
18
-3
5
11
-21
-10
6
13
31
43
44
35
26
-25
-35
-8
25
7
33
50
30
8
6
-30
1
1
-6
24
43
38
39
9
2
-25
-36
-7
15
16
62
53
47
27
13
-11
-8
-2
15
25
60
60
54
40
30
0
33
22
44
33
68
61
77
53
56
-6
13
28
42
49
89
95
72
21
16
-10
21
29
29
41
66
41
43
-4
2
-21
-18
18
15
18
45
30
26
21
20
-26
-10
-20
-15
18
52
34
7
-10
-16
-21
-8
6
5
29
50
33
12
20
-13
-40
-31
-24
7
41
44
61
39
2
-7
-11
-47
-11
-3
12
33
43
36
6
0
-6
-20
-12
19
37
39
51
28
10
7
-20
-25
-35
3
41
40
17
47
6
3
-17
0
9
27
39
51
42
29
14
-20
-6
-6
9
5
51
52
