3
15
14
29
19
22
17
4
-7
-1
1
2
-6
17
22
18
2
10
3
15
31
19
14
13
21
7
5
-8
3
14
21
24
9
3
15
11
22
9
-12
-21
12
11
19
37
23
7
8
15
-7
-2
-6
9
-2
-9
7
4
-6
11
27
9
13
10
11
27
9
16
20
21
18
6
1
-23
-10
14
8
1
10
37
22
16
16
27
27
20
13
10
24
25
27
19
22
8
5
13
18
8
13
1
-29
28
15
3
11
9
10
18
8
0
-4
-2
-13
-5
-3
23
19
23
3
-5
18
16
1
2
11
9
2
-16
-19
-13
-27
-31
4
-1
-14
6
22
26
48
76
104
130
143
189
226
226
231
235
222
219
195
147
108
56
16
9
6
12
7
-1
-11
-15
-7
-3
19
1
12
14
10
-3
4
12
27
19
8
2
15
0
19
11
0
-17
-21
3
3
17
8
13
-5
19
18
25
18
31
16
21
27
24
12
-14
9
2
19
25
21
18
-12
16
15
24
25
38
28
17
19
30
19
-4
29
7
27
25
39
55
28
52
78
53
36
40
47
55
58
59
54
40
62
59
73
73
62
62
69
75
82
75
70
74
65
49
58
56
80
91
94
65
47
59
82
67
68
58
42
56
46
48
54
58
42
41
32
23
13
10
37
19
10
29
33
15
19
41
33
24
21
16
12
28
6
3
13
11
-1
-1
4
4
-4
3
11
-13
-1
11
0
-16
-10
12
15
-6
5
4
2
5
-1
-8
6
9
-7
-4
-25
-5
9
-15
-3
40
15
-4
-11
2
-6
0
8
8
8
-2
12
2
-2
7
10
20
15
9
2
0
5
-9
2
3
7
-5
13
13
10
14
-1
7
2
4
6
-3
7
-9
5
8
4
0
-4
-1
-17
-10
6
-2
-13
-1
4
0
-14
0
-8
2
19
-9
-18
-3
0
8
-10
-11
1
-4
-10
-26
-12
-6
-20
-4
2
10
7
5
-14
18
4
0
3
-1
6
0
11
4
4
1
17
15
4
11
4
10
-1
17
19
24
22
3
-11
2
1
-22
-23
8
-7
-7
-9
8
17
14
-13
-9
-13
-6
-7
-4
10
19
-31
-13
2
-1
4
-5
-4
-8
-12
-18
-23
-7
-2
12
9
-9
-5
0
-8
-18
-8
-33
-16
5
3
29
66
89
100
146
177
222
238
231
214
205
214
197
163
104
70
34
0
-17
-22
-9
-17
-15
19
-5
4
6
2
2
8
14
3
6
-16
-9
-4
-4
-14
-23
7
-6
-12
0
2
7
17
8
-22
-23
-1
8
10
9
10
-6
4
-5
4
11
14
17
11
15
2
16
-2
9
3
14
14
15
7
4
17
15
24
15
12
20
20
24
44
27
12
12
9
19
12
20
30
44
48
38
52
62
56
53
56
64
58
35
56
45
19
55
54
56
51
42
55
65
67
63
66
59
71
93
67
46
57
62
65
73
58
49
53
51
49
37
37
37
36
30
19
37
34
14
25
47
32
20
23
18
25
22
4
0
-13
-2
4
9
-1
5
-3
-20
-3
4
-14
2
0
7
2
-21
-19
2
0
14
10
6
-10
1
4
-14
-7
2
-1
5
12
-7
-5
7
10
8
-12
-17
4
0
-4
0
-19
-7
18
24
13
14
-6
-18
-9
1
-11
-10
-1
-5
-10
4
9
35
20
18
10
-3
25
20
-2
-19
10
12
7
1
-5
-11
-15
-6
-11
5
10
10
-9
-36
-3
26
3
23
19
13
9
2
-2
-8
5
-3
-20
14
9
8
7
-11
-17
1
15
8
-5
-11
3
3
-15
2
9
-1
13
9
-13
-15
-6
-2
0
2
4
-38
-5
22
17
-13
9
21
16
-18
-8
16
5
-14
-20
1
-3
5
14
16
10
10
-1
5
-21
-13
-5
-1
-24
-6
9
15
14
-4
-11
18
17
33
33
18
12
13
4
13
-6
-3
0
11
-1
0
-7
-18
-23
4
-6
7
-6
-11
2
-5
-1
5
4
-14
-5
1
-13
13
7
-2
-17
-3
11
4
0
-10
-20
-20
-2
-4
-12
-20
-8
10
-6
18
70
103
115
109
144
202
229
229
210
225
251
194
135
141
126
74
23
0
-12
-1
-5
-11
-6
-6
-8
16
-4
-2
-3
0
16
8
4
-22
-9
17
-7
-19
8
7
-7
14
6
0
6
11
0
9
11
21
2
-2
7
-6
0
2
13
7
18
22
15
-8
8
28
26
-5
-3
1
9
16
19
2
9
24
20
24
23
30
31
30
29
22
22
21
10
25
48
34
37
51
22
28
29
26
24
33
56
74
61
58
53
48
51
53
49
55
56
60
72
46
69
105
102
66
57
54
67
54
61
58
61
55
51
56
44
55
74
67
54
46
46
47
31
24
31
29
49
24
29
26
13
19
13
26
25
22
11
11
8
-3
3
7
-3
4
5
-5
-8
-7
9
-4
12
27
11
-3
0
-3
-13
-20
4
3
4
-4
5
8
6
3
6
6
9
10
3
-5
-8
-21
-5
-2
-22
7
9
26
26
8
-4
-13
10
21
16
20
1
-4
8
7
18
12
16
10
5
8
-5
-15
-2
5
13
4
6
20
21
10
-4
-2
10
25
9
8
16
5
-8
-13
5
1
0
10
6
-3
-1
19
23
6
6
-2
-7
-6
-14
-11
2
-3
6
-2
-8
6
3
-5
-7
-7
-21
-11
4
-3
-1
-32
-23
-4
-8
-36
-14
1
4
18
7
-14
-23
-18
-17
0
1
5
17
5
10
-12
-14
12
-11
-26
4
-28
-26
2
1
-5
19
16
-8
-2
-7
8
-1
5
13
8
9
-8
-8
-8
-6
-11
0
-4
18
9
11
-6
-7
-6
-29
-30
-19
12
5
-2
-3
-7
-13
-18
-15
-25
-36
-26
-9
-3
-5
-5
-16
-21
-7
2
-15
-18
-14
-14
-23
-8
-22
-26
-21
-9
-1
20
55
95
102
110
135
163
192
213
215
211
230
241
207
152
121
41
-31
-18
-35
-37
-23
13
-2
2
-1
8
3
-11
-19
-27
-18
-12
-14
-11
-9
-9
-25
-25
-1
-19
-19
-25
-21
-19
-13
-12
-16
1
-12
-4
-1
20
-5
-32
-14
-6
-12
-32
-15
9
22
12
-2
-16
-2
-9
2
-8
-11
-16
15
8
15
0
-14
3
6
-4
-4
4
1
28
20
2
25
26
16
10
29
21
22
25
23
21
22
21
22
11
35
70
70
40
30
49
35
46
48
39
54
63
53
69
58
56
41
59
50
48
46
45
50
49
29
63
49
48
47
32
25
31
28
13
8
18
3
-6
-2
-21
1
16
10
2
4
9
-12
0
9
-23
-22
-37
-22
-2
-20
-12
8
-12
-22
-16
-30
-24
-25
-26
-14
-16
-29
-48
-47
-29
-38
-25
-6
-1
1
-15
-21
5
-5
-13
-19
-21
-26
-28
-18
-25
-28
-14
-33
-5
-1
-20
-17
-11
-29
-42
-33
13
-28
-20
-25
-2
-11
-15
-8
-6
-10
-25
-29
-14
-24
-20
-31
-21
4
-8
-15
3
3
-12
-18
-16
-19
-4
-6
-16
-27
-32
-35
-29
-12
0
-25
-26
-15
-17
-13
-2
-2
-3
-11
-24
-29
-36
-16
-10
-22
-35
-24
-41
-16
-7
-15
-3
-10
1
-12
-7
-32
-19
-16
-20
-13
-27
-33
-25
-10
-16
-19
-46
-32
-9
-5
-15
2
-22
-54
-18
-12
-11
-7
-20
-25
-16
-10
-20
-26
-35
-18
-10
-3
-22
-36
-15
-12
-20
-26
-14
-21
-32
-22
-15
-30
-18
-23
-13
-18
-13
3
-4
-12
11
0
-18
-5
-18
-29
11
-3
-3
-2
-1
-11
-13
-29
-12
-2
-9
-17
-25
-39
-34
-16
-27
-28
-21
-3
-34
-28
-8
-5
-19
-6
-9
-14
-46
-23
-15
-28
-26
-19
-18
-10
-12
-27
-19
-16
-23
-30
-34
-16
-8
-18
-7
29
53
83
115
157
181
211
225
214
205
221
185
132
115
85
25
9
-5
-1
-10
2
7
5
-19
-19
-25
-17
4
-6
-13
-8
-33
-36
-28
-5
17
8
-3
-4
-17
-37
-32
-8
-3
3
-4
-4
10
-4
-12
-7
-2
-7
1
1
-18
-15
-9
-13
-16
21
6
-5
3
-8
-3
-18
-8
2
-3
2
18
4
19
34
33
19
10
-4
5
16
1
3
-6
22
23
17
20
33
21
39
34
26
33
23
33
39
49
57
42
15
37
45
51
38
46
74
73
69
54
61
56
49
42
57
56
33
48
63
52
46
53
66
47
52
55
56
47
14
22
31
42
39
41
26
20
42
22
19
11
-1
8
13
-1
-7
-5
-4
-9
12
2
3
-12
0
2
-17
-7
-10
-20
-17
-31
-31
-6
-6
-23
1
12
4
4
-3
-15
-4
-17
0
1
-14
-22
-16
-15
-38
-30
-35
-33
-19
-25
2
22
11
-4
15
3
-19
-4
-14
-1
-17
-15
-7
-15
-10
-24
-2
1
-14
-9
12
17
4
11
3
-14
-16
-2
-5
-7
-14
-9
-9
9
-2
-9
-3
-8
-9
-12
-4
-18
-14
-15
-28
2
7
-9
2
-6
-7
-3
2
-7
-5
-3
-10
-10
-24
-17
-8
-25
-14
-32
-9
7
9
2
-14
-20
-25
0
-18
-16
-6
-4
-8
-10
-18
-24
-30
1
7
-1
-40
-17
-24
-22
-12
-31
-26
-11
-14
2
-6
-32
-25
20
26
-4
-1
-12
-20
-12
-21
-8
-28
-21
-18
-12
-21
-24
-22
-18
-10
7
10
-2
-18
-18
-2
-12
-27
-14
-8
-21
-37
-12
-17
-3
-18
-8
-1
-6
-5
-3
8
0
-4
-10
-12
-10
-3
-12
1
0
6
8
-1
-4
18
-5
-9
-8
-3
-17
-35
-8
-11
-8
-21
-23
-11
-23
-22
-10
-27
-27
-23
-1
-6
-10
-3
4
-21
-15
0
-20
-21
-22
-23
-14
-11
-21
-42
-17
13
-2
45
74
100
127
135
183
219
234
230
232
234
208
166
121
85
35
-9
-19
-17
-22
-10
-26
-25
-15
-21
-10
-9
0
-4
1
-13
-2
5
0
-10
-1
-3
-14
-28
-4
1
-12
-1
-2
-10
-9
-2
-12
-18
22
5
-26
-13
-18
-12
-20
0
1
-6
2
1
-1
20
16
-3
9
4
-5
0
4
16
10
17
8
-17
11
16
-25
12
32
8
26
22
20
11
7
18
26
35
22
28
33
24
31
28
32
28
37
35
17
30
55
46
59
50
39
44
65
50
56
58
57
61
62
63
59
48
59
65
56
56
44
55
57
49
33
48
35
22
33
28
33
38
42
16
18
22
20
33
27
15
17
13
10
3
-22
-14
1
-2
-9
0
-8
3
-11
-2
-1
-8
-16
-6
-13
-14
-23
-10
1
18
-1
-6
-8
-24
-23
12
4
-17
-13
-12
-8
-17
0
-12
-8
3
-10
-17
-21
-16
-17
19
6
-25
-1
8
0
-10
-6
-7
-13
2
1
-10
-12
-17
-15
-16
-3
-4
0
8
3
-15
-9
-5
14
1
-9
3
-8
-1
10
8
-2
5
14
18
8
-5
7
-14
-22
0
22
20
21
7
12
12
11
4
11
-6
-17
-14
-1
-16
-8
24
13
21
-6
-7
-8
-15
-24
-21
-25
9
3
-9
8
14
7
3
-1
-4
7
6
-2
-8
-11
-6
8
19
-3
-18
-19
-8
-15
-12
-21
-30
4
36
-4
1
12
18
-1
0
12
-18
-14
-12
-22
-13
-6
7
-4
-13
2
12
-10
-10
0
-16
0
7
16
18
8
9
5
-8
-15
-10
27
36
23
19
13
-3
0
8
14
4
-16
-24
-12
1
-27
-19
-14
-2
-26
4
10
5
2
-12
-5
2
-11
4
-13
-16
-19
-9
-10
-2
-13
8
2
-9
-5
-5
-15
-14
5
-10
-19
2
27
24
51
66
79
96
129
172
180
205
208
214
230
220
171
125
98
49
21
-12
-30
-23
-28
-10
-13
3
-13
-8
-30
-32
-13
13
22
10
11
-11
-15
-21
-1
1
24
16
3
-18
-13
9
23
23
14
4
15
12
-17
-23
-8
-6
4
9
13
19
13
14
-1
-13
18
10
16
-1
7
3
27
33
21
37
20
10
20
19
-2
25
35
28
30
32
27
31
20
31
16
42
44
32
35
50
57
61
47
44
62
50
61
68
33
47
50
74
68
64
82
55
50
48
65
79
92
65
55
59
79
97
79
84
61
54
67
56
45
57
33
37
11
38
52
48
60
44
40
41
13
1
9
25
33
24
8
9
-7
-2
5
2
-4
-17
12
24
18
6
14
12
-10
-24
8
15
-7
-15
13
-5
-16
-2
-10
1
-3
0
-14
-21
-5
-14
-23
8
16
13
15
0
-26
-26
-9
2
15
20
19
21
7
15
3
6
3
-21
-1
13
13
2
-1
-7
-10
14
-24
-19
11
18
8
4
24
10
8
22
17
26
4
14
21
15
5
-27
-12
17
17
-5
-15
13
24
26
2
-1
-4
-22
-3
-6
1
23
25
13
9
-5
-10
-44
1
26
21
7
4
-1
-21
-20
-10
-10
-6
13
23
9
21
17
1
-2
-1
6
-5
10
3
-5
13
6
-1
11
19
6
-7
7
11
-3
-3
9
1
-6
1
27
10
-12
-7
-6
-13
5
16
19
26
27
25
27
10
8
6
-15
8
22
3
-18
7
-17
8
-10
-11
-17
3
11
17
2
9
19
-7
-13
0
1
-38
-10
13
5
3
2
-18
-4
-18
-13
-12
9
-5
4
13
14
17
-12
-32
-18
5
9
25
46
51
57
91
142
149
173
194
195
210
210
176
160
155
116
70
24
-29
-44
-29
-19
-6
12
17
6
1
14
-2
-16
-2
-1
19
17
-5
9
14
4
2
19
-1
-12
-7
-8
-8
6
7
8
24
32
18
5
5
33
12
23
26
21
-11
-2
18
30
25
13
17
25
15
19
15
13
1
36
44
34
41
34
33
27
22
23
25
31
38
35
29
32
37
41
49
51
56
38
9
54
67
58
59
67
57
62
67
52
66
64
71
79
79
66
65
68
70
83
94
91
84
86
78
70
59
48
70
76
75
70
59
70
71
67
61
56
48
68
50
61
54
65
50
46
53
49
27
3
31
29
27
14
17
32
12
-8
8
13
27
11
13
20
18
20
-1
-1
-7
-1
8
11
-2
-12
0
17
15
16
8
12
20
4
7
-11
-10
-5
-16
13
13
-12
8
26
18
8
-13
14
26
21
1
11
9
4
-8
-1
4
-6
9
13
20
18
17
18
12
19
10
6
24
30
15
-25
6
-2
11
14
30
26
-9
19
18
13
24
21
12
8
3
-18
11
10
9
3
9
7
-1
2
-4
7
-8
11
23
24
32
12
6
8
12
13
-6
-9
18
0
0
13
22
10
14
9
-24
16
3
8
15
14
9
14
16
9
5
14
4
12
24
24
19
16
33
24
17
11
10
22
28
14
7
18
10
18
19
14
14
17
11
6
24
24
16
0
-7
-32
-21
-10
5
2
-12
18
22
7
6
13
4
-17
2
-20
-3
-4
14
20
2
16
-1
-9
-9
5
9
4
-3
-10
39
54
61
89
106
109
137
163
213
207
197
208
206
173
148
110
49
11
3
4
-14
10
6
9
16
-8
-8
-4
-4
-6
1
-3
20
13
14
11
3
-17
-9
9
32
-1
22
29
12
18
3
-2
19
16
14
11
18
15
16
16
21
13
15
23
32
27
33
25
12
13
-2
1
18
26
13
-6
28
41
52
34
41
28
10
14
33
43
39
51
49
41
28
27
30
40
57
57
52
51
51
50
41
48
68
50
70
96
81
66
65
59
63
75
70
74
80
78
88
94
101
86
85
80
89
75
85
64
56
75
74
73
82
80
79
68
64
54
56
48
31
46
44
42
36
15
32
28
40
32
24
27
45
24
21
26
23
12
3
2
-14
-11
9
53
36
18
0
5
6
-1
0
6
6
23
42
55
4
-15
-4
8
5
3
4
18
9
16
42
24
10
26
24
4
-5
-7
5
17
13
33
25
8
14
29
34
18
20
11
12
37
12
15
7
-5
-5
15
19
32
23
35
32
26
15
-3
-17
11
7
6
21
19
17
12
16
17
24
14
18
26
32
1
-10
0
11
7
4
-1
15
30
1
4
13
8
11
5
10
19
21
13
-1
6
5
3
1
-7
7
-2
10
26
17
13
-4
-17
21
47
35
9
3
10
16
9
20
37
23
12
7
-9
1
2
11
44
28
23
34
25
16
11
-6
-9
1
-2
18
16
10
6
-8
1
11
17
23
15
-2
-14
4
15
9
-7
1
7
-14
32
5
7
-2
16
0
14
9
2
-15
-11
0
4
-12
-11
-15
10
62
62
86
85
85
139
181
201
216
236
236
234
216
193
170
115
56
19
-1
-20
-12
25
13
26
7
-7
16
4
7
2
-9
5
14
28
31
16
11
22
14
8
3
14
17
0
4
16
14
32
23
9
13
21
10
-3
32
25
30
26
16
44
12
19
42
28
3
13
20
29
22
-5
23
33
33
38
36
40
31
39
30
46
53
56
47
38
30
29
31
56
40
44
46
63
38
63
53
65
80
67
57
51
61
74
53
64
89
89
89
82
95
90
84
93
93
97
88
76
83
55
79
86
86
102
105
104
70
75
91
85
59
61
58
64
68
58
59
60
60
51
44
53
32
23
50
41
23
24
36
19
44
40
29
26
35
42
19
28
11
34
32
31
24
4
6
31
23
29
16
29
25
40
38
27
14
5
-3
31
32
38
25
27
31
34
20
12
25
23
7
9
40
25
30
31
25
28
23
34
37
24
27
15
20
50
11
41
39
14
55
57
34
41
26
6
26
37
41
52
54
40
25
26
19
18
35
15
22
40
39
38
44
25
34
52
23
24
32
31
14
23
71
28
14
15
30
39
35
24
25
29
30
27
27
27
30
19
26
6
30
15
5
14
10
38
34
34
25
30
40
34
17
27
23
19
14
23
33
31
35
44
40
36
26
25
33
30
9
28
19
38
53
46
49
52
40
27
33
30
38
48
41
42
22
27
53
40
33
46
45
55
45
40
15
6
27
28
37
27
27
20
27
23
23
50
15
12
15
29
48
24
35
42
34
28
22
25
32
27
13
28
23
12
46
46
28
9
39
44
43
63
78
116
144
154
179
242
270
267
275
261
277
262
228
168
126
70
38
35
24
22
24
6
50
57
61
48
41
40
51
40
17
35
36
44
38
32
34
35
29
23
29
51
58
52
44
23
1
38
52
40
49
50
46
15
41
49
56
64
55
51
50
56
48
44
48
31
40
55
53
40
35
25
40
55
67
55
49
71
61
55
57
41
60
56
53
61
62
63
61
82
82
82
77
89
76
77
80
59
90
85
83
81
89
85
70
87
97
109
104
101
91
103
107
107
103
110
112
100
92
70
107
82
85
103
90
103
97
89
78
95
75
70
72
56
62
54
59
63
54
47
58
56
24
37
42
59
60
52
46
49
65
24
17
26
53
25
6
43
46
51
60
36
56
43
31
22
14
23
20
48
32
39
36
31
32
29
24
44
26
40
36
21
30
37
41
33
20
39
56
47
52
35
24
29
32
12
42
37
47
43
63
46
28
37
27
26
33
43
28
26
33
48
51
58
46
36
33
45
46
53
33
46
48
63
46
17
31
38
30
-7
27
52
54
29
31
28
34
40
47
46
38
27
26
37
41
22
19
16
38
47
66
47
34
40
6
37
53
38
39
43
50
32
33
28
25
37
21
26
58
55
30
48
31
29
37
22
14
39
52
32
29
29
20
28
35
28
37
32
41
45
32
40
30
14
30
31
30
31
40
37
41
42
48
52
51
43
32
21
48
43
30
32
37
38
49
21
5
40
46
36
41
45
50
43
47
27
24
14
13
49
29
25
33
47
43
36
25
49
55
61
39
28
30
47
53
39
32
38
31
30
0
15
26
51
43
36
58
55
50
45
25
18
24
32
37
25
36
57
42
42
50
35
43
36
18
39
52
19
42
61
46
44
41
32
22
32
42
32
47
41
26
46
43
42
28
42
32
7
29
43
58
61
45
32
39
36
45
39
45
44
41
41
32
28
12
37
55
55
43
43
57
48
36
21
18
29
26
19
39
71
64
70
40
32
44
35
38
36
34
36
35
25
46
67
69
69
55
41
44
44
54
51
50
37
34
42
53
54
45
55
62
43
37
33
45
32
43
47
40
45
42
27
36
27
62
49
41
40
36
22
19
27
38
68
46
63
50
23
31
25
25
20
39
26
13
13
32
62
60
61
95
121
123
143
180
232
266
298
281
288
295
287
258
220
166
123
73
45
24
10
39
55
54
61
68
59
42
37
43
53
38
30
35
59
60
56
52
38
30
44
27
33
41
48
24
-10
46
68
58
51
47
55
59
45
52
42
42
50
37
39
50
56
49
45
54
53
51
24
15
57
84
51
49
62
74
59
56
51
58
63
74
63
73
57
66
63
55
61
70
51
43
66
77
87
81
60
88
100
99
91
101
76
66
91
98
92
100
97
94
86
79
74
112
115
99
102
106
102
95
95
75
97
95
88
96
108
100
104
104
89
85
81
80
73
67
58
73
80
76
85
73
73
73
58
47
48
62
85
85
51
52
68
35
30
49
41
37
25
50
50
19
33
45
45
42
45
54
50
55
45
38
35
28
13
31
44
37
52
55
50
45
42
61
50
43
47
45
50
52
28
28
50
37
40
46
45
49
43
39
40
57
76
56
46
37
41
41
39
35
43
49
41
28
36
52
71
63
47
54
46
45
40
49
42
35
42
24
27
54
34
29
44
49
59
61
58
50
49
49
41
35
41
45
42
53
37
38
34
47
50
41
49
22
28
49
38
26
38
73
68
43
35
38
38
44
56
49
37
56
52
37
37
52
34
22
21
31
42
37
25
42
60
46
52
37
58
51
46
48
37
28
33
35
47
52
46
30
39
34
14
16
58
71
55
31
35
55
53
39
38
20
29
58
52
50
42
33
45
26
29
38
34
54
60
48
45
29
25
43
24
16
41
43
56
62
44
46
51
37
45
40
41
47
39
38
42
39
57
59
39
30
41
50
64
24
10
59
80
78
66
35
50
61
50
57
52
57
54
50
36
49
53
51
48
48
53
57
42
37
55
51
68
67
62
35
30
30
45
28
41
40
35
47
47
49
32
32
20
19
39
44
31
41
36
25
28
43
44
47
35
30
25
32
62
93
112
136
159
206
233
274
278
257
283
270
260
238
209
155
90
69
57
43
44
24
41
40
60
50
55
60
46
54
49
49
45
53
59
37
15
49
32
32
38
29
24
56
58
48
68
70
55
55
38
40
39
50
47
43
42
45
46
42
47
49
52
47
36
57
60
60
52
68
51
54
61
63
68
64
66
50
53
66
58
52
50
51
60
70
69
81
75
66
76
80
83
96
89
77
80
86
91
95
107
106
92
92
97
92
90
92
119
106
102
113
117
106
104
97
105
109
100
116
114
88
81
83
91
96
97
102
97
76
73
108
96
101
118
98
92
67
44
67
82
83
78
67
51
57
59
56
62
55
46
35
55
56
54
53
62
58
36
44
47
41
26
24
28
40
31
37
38
40
44
66
42
33
36
43
76
42
41
42
42
32
28
39
38
37
37
24
35
56
44
19
40
47
38
49
56
57
45
47
29
22
37
47
47
38
39
34
42
49
64
62
46
54
43
26
50
35
40
46
44
52
46
29
41
42
41
36
35
46
45
51
59
50
44
34
34
31
35
43
40
23
38
46
53
50
45
45
32
30
52
42
35
34
42
30
20
46
55
38
35
44
41
29
64
29
30
41
42
47
38
22
19
38
40
36
54
43
30
24
38
51
40
22
43
39
27
16
39
40
41
48
41
36
45
39
49
33
26
35
21
15
30
29
34
35
24
37
54
49
50
33
43
47
48
29
37
24
34
30
30
36
37
43
30
9
25
40
37
59
36
37
34
46
44
36
47
40
47
42
51
64
51
52
49
40
37
43
37
46
58
58
38
35
56
52
47
43
21
60
43
51
28
23
36
20
24
38
24
25
17
16
32
22
33
34
30
36
38
24
26
26
13
26
24
29
47
39
34
19
32
20
23
29
42
35
69
101
128
133
156
197
245
257
250
246
253
259
235
215
155
120
69
41
36
20
35
28
38
41
39
37
28
6
30
34
50
51
27
20
40
49
58
37
34
38
-1
34
37
13
35
23
21
33
44
43
42
47
16
34
41
27
36
28
34
36
48
38
46
35
39
46
21
43
60
50
39
49
44
42
30
26
45
56
46
48
52
40
33
51
57
56
36
62
73
63
52
54
58
78
62
75
84
57
70
104
93
93
91
92
87
80
82
93
89
91
84
100
90
88
98
112
115
94
102
106
95
74
91
97
105
88
90
90
68
76
72
81
72
83
77
83
66
66
49
51
55
48
50
43
63
49
46
42
50
44
39
35
49
40
25
36
20
25
38
30
27
31
28
32
32
4
26
38
36
29
14
24
22
27
22
12
43
32
32
19
36
39
45
29
23
42
40
32
27
26
26
27
34
24
33
37
35
40
19
1
44
40
44
47
38
32
31
36
37
30
22
25
24
30
49
41
38
41
28
15
20
57
46
55
40
32
15
22
36
50
53
33
30
40
18
28
36
32
27
25
38
34
31
39
41
11
28
41
27
22
24
27
42
34
38
38
33
32
27
23
27
31
42
44
34
32
39
24
30
21
34
32
58
54
37
23
8
8
17
24
10
8
31
31
20
35
49
46
41
34
37
29
23
29
22
30
12
34
53
35
31
20
34
47
46
29
40
41
40
37
46
30
40
28
35
33
41
49
60
61
46
33
50
46
48
37
40
62
59
51
39
30
26
51
48
30
39
37
51
35
43
29
32
40
48
24
33
20
4
19
39
51
70
62
68
47
23
11
13
40
44
50
37
27
26
25
23
27
20
23
19
32
58
89
110
121
129
139
200
235
282
295
310
277
270
258
202
157
125
83
37
25
41
45
39
30
37
47
42
32
28
44
46
49
35
33
57
41
41
32
27
42
42
39
42
48
40
33
34
35
35
56
55
52
42
31
33
41
32
32
44
66
54
47
39
42
50
56
55
30
52
75
50
50
56
54
43
54
44
43
50
63
63
68
73
75
72
62
60
67
61
63
65
69
75
76
87
80
67
116
106
83
78
87
90
86
86
103
99
100
97
100
83
112
123
120
93
104
105
91
109
130
142
139
135
111
92
91
90
88
101
121
105
91
85
91
77
76
89
83
79
75
71
61
73
88
60
53
54
65
57
56
60
36
35
49
59
52
65
61
42
39
34
44
54
35
31
39
37
38
56
36
36
51
49
51
32
45
39
31
31
55
54
56
54
47
44
39
41
49
40
48
52
57
41
36
43
50
42
41
38
43
51
47
27
40
47
34
46
53
71
74
67
53
38
37
22
36
61
55
50
54
59
62
57
42
58
52
27
25
49
57
48
44
63
65
44
33
33
34
42
48
44
52
43
49
49
64
57
31
32
48
57
43
45
49
38
34
44
35
49
27
42
47
42
49
50
45
38
41
34
54
44
38
45
50
46
47
48
23
30
50
50
43
41
44
42
45
46
51
47
43
43
27
24
42
49
36
49
48
53
71
71
50
44
74
40
29
30
52
42
36
55
61
53
63
47
64
54
60
57
57
41
42
52
43
42
51
51
50
61
36
42
37
60
43
26
37
39
25
59
44
41
21
38
30
34
42
35
48
47
36
36
38
48
32
28
40
38
23
18
45
56
66
102
143
167
171
182
210
237
248
256
245
234
241
220
170
119
83
51
4
8
20
27
43
45
51
32
32
41
44
50
38
40
57
36
37
28
29
49
42
49
57
41
29
62
52
44
57
46
31
34
33
37
48
57
47
48
58
46
34
42
57
54
61
47
51
44
63
62
54
47
61
65
58
42
46
71
69
55
60
66
61
43
41
76
82
73
66
79
79
69
59
72
84
86
94
92
80
85
108
113
108
93
86
81
105
119
121
97
97
114
130
102
103
108
95
108
113
131
127
118
118
87
91
103
107
115
99
112
101
103
90
100
101
96
90
87
83
80
77
68
62
38
40
54
58
59
71
58
58
51
44
59
54
45
37
31
36
31
35
-20
34
57
72
49
49
48
28
33
31
33
34
32
42
47
45
34
19
16
33
54
56
59
35
27
15
21
23
35
53
36
40
38
37
38
42
47
57
26
17
29
53
49
41
58
41
36
36
25
16
53
52
39
44
57
44
30
38
33
45
55
48
45
39
40
29
44
53
42
46
33
30
27
38
46
44
28
14
30
33
54
11
23
42
42
25
28
38
48
47
43
35
34
39
27
24
19
41
39
43
22
43
55
36
19
37
57
51
39
33
14
17
21
28
35
44
44
35
40
39
57
41
25
26
39
43
48
21
21
32
29
56
49
54
63
47
6
39
44
53
60
50
50
51
66
59
54
40
33
27
27
29
20
39
36
31
32
27
26
22
16
12
21
49
55
47
33
29
25
34
21
29
31
28
26
30
33
33
29
30
49
42
34
30
21
44
84
104
119
117
151
191
189
214
225
219
218
187
177
163
118
75
15
1
16
-3
-4
14
16
30
46
33
2
13
32
40
46
42
25
28
22
26
31
14
37
49
56
54
30
33
35
41
48
54
46
24
16
29
40
43
29
14
48
41
35
33
50
38
40
49
49
39
55
44
57
50
49
25
46
45
54
76
50
35
49
56
54
51
50
56
75
77
60
72
66
63
54
44
74
81
71
79
93
87
80
94
68
81
96
61
94
107
106
107
79
96
115
117
105
98
97
98
98
103
120
112
110
110
97
89
93
92
91
83
89
100
71
50
68
88
65
63
68
56
53
70
55
60
65
52
32
33
47
42
44
41
46
41
28
32
44
24
10
17
25
30
28
16
35
30
43
34
31
28
27
32
30
20
29
16
15
6
18
42
38
23
15
28
54
40
20
15
15
34
32
31
33
15
16
28
21
6
29
39
38
46
41
33
23
30
24
16
21
38
35
40
28
44
7
18
51
58
45
10
18
19
24
27
33
26
27
42
42
46
32
9
18
35
26
3
18
33
23
11
24
10
28
38
37
5
21
33
11
12
5
23
35
32
44
35
24
40
29
10
28
30
23
30
17
30
41
31
38
38
31
19
9
28
44
29
26
45
32
23
35
12
9
24
37
30
31
26
13
10
10
8
15
23
31
4
20
29
16
24
25
12
25
26
12
9
5
13
24
28
19
5
11
-1
21
33
9
-5
12
18
6
41
77
104
117
138
165
200
206
227
218
227
208
184
180
151
97
41
33
3
-2
-13
-5
21
28
20
0
-4
2
25
24
16
11
16
18
26
0
31
28
35
41
31
31
33
33
28
22
7
22
17
21
18
16
24
29
22
31
36
21
25
31
27
36
32
21
18
32
24
31
34
18
44
35
35
36
28
38
53
34
41
56
65
62
51
43
37
38
58
48
36
41
29
68
79
76
63
72
58
68
63
62
71
83
73
63
83
85
99
93
79
88
93
92
72
83
76
76
102
92
93
111
99
90
97
83
102
91
60
74
65
36
56
69
79
67
55
56
63
66
56
50
53
43
37
30
1
20
19
35
21
42
42
35
15
28
29
15
17
23
5
14
21
12
12
19
17
24
31
21
19
24
32
29
22
-8
2
12
1
8
17
13
9
17
18
41
35
25
27
18
16
12
17
21
21
16
12
33
6
12
21
22
22
24
23
-3
0
27
43
27
41
18
25
6
8
21
32
24
26
26
22
28
34
21
18
19
25
8
31
4
-14
6
13
49
27
29
22
26
37
36
21
14
13
25
25
2
23
31
15
23
19
8
12
25
37
31
19
16
20
9
16
25
23
13
16
36
34
26
41
43
30
31
38
29
26
36
39
31
42
29
32
15
14
20
22
10
11
26
23
19
-2
7
2
21
-15
-1
26
22
38
34
8
11
16
23
16
11
22
18
12
-6
-18
14
25
9
19
18
-5
-1
24
15
17
18
43
63
93
114
125
162
205
222
239
233
230
216
202
178
165
132
81
23
4
14
10
9
9
15
17
16
15
-15
0
23
20
22
29
27
11
23
23
9
21
32
21
27
32
12
17
24
15
10
8
20
7
14
10
22
16
3
22
30
20
24
19
5
26
33
28
27
22
33
28
26
21
26
24
46
42
28
22
39
43
38
37
35
37
40
35
43
40
46
54
49
42
38
27
44
72
55
54
66
72
80
66
81
83
78
73
78
72
78
78
78
69
80
83
66
56
69
85
82
85
82
78
73
73
67
57
59
77
73
61
78
58
47
54
79
66
55
43
48
47
52
33
14
6
18
37
37
28
25
20
12
6
20
35
34
17
15
11
12
11
9
-1
24
24
21
12
13
19
7
21
17
-6
-7
9
17
23
11
9
-4
6
21
28
22
23
21
10
6
-9
1
13
10
-6
8
2
12
18
18
-2
19
48
4
7
28
33
18
12
16
10
6
-1
12
16
13
28
38
28
23
18
30
21
14
21
10
1
18
34
13
4
15
16
15
13
13
6
4
19
38
19
5
13
6
20
11
26
6
11
26
23
28
18
12
6
17
21
3
28
15
17
23
11
0
-2
13
23
24
13
19
6
0
14
13
12
22
17
11
23
26
16
16
9
4
17
23
35
23
2
21
18
17
4
33
52
30
20
25
41
36
21
24
22
14
2
4
4
-4
-8
23
37
22
9
13
6
1
5
10
10
2
8
8
11
-3
5
13
27
28
17
12
15
12
10
12
1
-16
-13
-11
-19
-2
12
34
38
37
62
88
100
116
141
166
200
232
243
217
251
244
225
180
144
97
58
12
20
8
13
29
15
22
14
15
8
4
15
22
15
11
14
8
26
26
29
13
1
0
3
23
3
23
20
11
17
24
34
43
41
5
18
4
6
25
16
25
29
18
10
24
29
27
31
30
18
8
22
35
29
33
38
40
28
17
26
23
34
31
40
33
42
35
38
35
40
51
47
38
52
53
59
61
53
24
43
73
61
66
63
66
65
81
80
68
81
83
59
52
72
64
74
105
93
81
89
92
86
82
77
86
79
66
71
42
61
57
70
58
71
85
70
50
53
47
49
37
33
33
38
47
35
37
39
29
29
41
37
17
14
22
25
11
3
6
7
4
0
35
43
28
24
17
14
11
20
8
0
12
21
14
20
16
24
28
11
9
19
17
10
28
-7
-8
10
15
18
22
35
23
0
33
30
31
11
19
-1
1
15
2
20
10
26
26
15
25
37
13
31
27
16
5
13
14
27
22
31
29
28
24
28
16
21
8
14
9
4
16
27
34
27
41
33
22
15
15
-1
5
15
30
15
17
26
7
13
23
28
27
29
30
17
8
13
11
19
7
9
22
16
24
-4
1
3
21
22
8
14
34
32
26
35
30
16
8
16
16
4
14
15
22
11
16
19
7
17
14
11
14
21
35
13
14
7
31
18
11
17
0
-2
20
30
14
8
8
5
1
15
27
24
21
12
10
1
8
13
11
3
1
33
26
26
3
14
30
-1
15
24
23
15
19
13
9
2
33
31
11
8
2
-4
18
43
29
32
8
6
13
31
22
15
21
14
33
39
46
32
20
13
21
18
16
31
23
19
16
18
13
14
19
28
17
9
13
28
30
1
-14
26
20
10
8
17
-6
-4
12
9
10
25
21
22
28
34
20
10
20
0
-9
8
10
-1
-2
14
39
79
107
124
137
168
221
248
255
252
241
258
249
218
181
116
81
40
35
28
33
35
27
24
6
16
35
29
18
26
10
5
15
25
18
26
25
14
10
22
16
11
19
34
24
25
16
20
15
14
18
11
21
21
4
30
40
26
25
21
31
23
21
15
14
19
18
18
14
22
30
19
34
32
34
44
45
39
41
39
42
34
38
33
24
48
45
52
54
65
25
43
65
58
61
57
41
48
54
69
65
60
67
66
52
83
96
83
73
82
81
59
69
77
70
81
76
84
89
74
82
84
83
80
74
75
69
77
76
71
73
67
63
56
63
64
66
47
29
22
23
34
58
61
44
54
57
49
38
47
39
16
20
-1
16
29
25
28
24
20
28
16
27
15
14
29
28
12
10
18
20
31
30
21
-3
18
8
7
10
26
30
37
25
19
35
22
19
20
19
20
12
32
26
24
15
16
11
26
34
13
17
23
28
41
33
39
7
9
16
31
13
19
21
12
25
28
37
19
19
21
30
32
36
32
22
21
20
23
25
25
20
21
19
16
20
29
27
23
32
32
16
24
22
7
3
17
-3
23
27
37
39
19
21
15
27
41
45
31
24
19
19
14
14
6
9
22
16
-4
12
24
23
8
33
25
14
33
24
15
13
13
26
5
19
23
33
26
14
22
11
10
3
21
4
36
26
30
19
12
15
29
25
17
2
15
21
16
26
13
19
16
16
18
26
23
7
10
3
15
8
6
9
18
38
32
34
25
19
31
15
12
20
7
-5
8
32
31
29
23
29
25
20
-2
13
24
21
15
1
-3
15
29
29
36
23
23
21
13
15
15
4
17
28
32
38
38
13
20
27
37
26
33
18
19
40
38
36
43
34
36
12
18
12
25
34
4
4
25
33
21
17
10
25
27
32
18
9
13
10
19
19
20
22
12
13
18
11
13
10
20
27
17
26
29
10
10
2
-1
-4
-20
6
33
54
77
107
125
161
176
220
256
267
267
277
272
243
210
176
132
94
45
27
39
30
15
27
51
47
48
45
33
27
9
30
30
30
38
35
29
30
17
12
24
21
27
18
-3
10
34
37
30
23
19
28
8
18
22
30
33
42
51
37
25
8
13
20
46
48
28
25
23
31
31
33
38
48
50
46
46
49
46
32
36
38
38
40
38
46
35
39
49
60
40
55
63
62
58
64
65
67
45
53
72
66
68
75
86
77
65
56
68
77
89
91
83
75
82
83
86
106
96
76
77
89
84
78
78
71
90
75
64
62
58
87
101
87
64
47
53
51
73
64
60
52
42
51
40
47
47
36
28
32
8
8
15
13
30
30
41
20
30
36
31
27
28
25
22
14
7
11
26
12
12
25
11
19
39
37
25
16
16
7
21
17
17
16
26
14
15
18
30
28
18
16
23
27
20
29
28
30
18
-8
9
25
30
32
26
13
19
23
17
21
34
34
23
29
25
16
26
22
21
24
24
23
16
23
32
41
40
14
-2
19
18
28
16
30
13
16
12
-1
35
28
15
12
16
31
33
29
38
16
11
21
31
26
16
2
8
15
22
28
15
25
26
29
19
13
21
19
15
16
28
32
17
0
18
22
22
29
21
15
17
24
23
11
9
5
10
4
14
19
25
-2
17
16
22
32
26
31
10
30
26
23
23
17
4
18
25
11
18
13
5
17
14
17
21
21
25
16
26
7
19
12
4
5
21
31
27
22
1
21
12
18
22
1
16
30
30
29
16
6
26
22
24
22
15
22
10
0
12
-2
9
23
24
17
23
22
25
31
14
12
6
4
16
20
2
1
44
56
28
13
12
19
28
5
10
28
8
12
11
5
16
18
-2
13
27
26
16
9
40
44
31
39
28
20
34
23
19
24
16
28
31
36
42
24
13
24
21
14
18
20
18
24
11
21
23
20
8
10
11
9
5
6
20
4
5
14
14
14
18
3
13
3
22
6
0
23
32
19
5
3
-2
4
31
39
78
105
123
131
176
209
241
252
251
266
257
227
193
170
131
91
57
51
41
29
15
30
24
26
25
14
5
6
33
29
15
14
16
18
15
28
-1
-1
4
8
32
35
30
17
28
36
9
18
2
13
23
22
24
29
21
24
31
28
3
8
23
30
32
21
32
48
24
27
32
36
40
20
20
25
24
26
30
33
38
37
43
36
51
42
32
32
30
44
47
15
34
70
66
52
58
60
53
56
46
25
54
63
71
82
80
77
74
69
77
70
89
87
93
80
83
82
76
87
84
73
67
79
76
64
71
79
81
70
64
68
57
58
65
61
62
60
63
51
20
40
47
46
15
22
33
35
26
28
38
29
4
18
29
21
22
18
3
-2
17
29
-2
10
19
13
22
23
13
6
-2
-5
1
13
16
8
-1
3
1
2
9
-9
-3
19
17
4
3
6
1
6
10
14
15
28
12
4
3
11
16
27
12
23
11
24
29
12
8
10
9
8
8
10
17
21
24
15
-3
2
25
2
-1
21
18
30
14
19
25
27
9
9
17
11
8
9
1
6
14
-5
12
22
32
29
30
14
5
-3
-1
5
4
5
11
-14
-14
32
33
31
29
19
9
0
-11
4
1
15
16
22
31
7
1
6
4
-1
1
16
4
8
14
10
6
-14
16
9
15
13
7
-8
14
10
3
1
13
25
12
16
8
2
7
10
-9
-5
4
3
-3
3
-1
0
10
13
11
13
18
0
6
18
10
13
11
-3
-8
16
9
-6
-4
-5
10
16
0
10
10
15
15
13
7
-8
-3
-7
0
14
21
32
8
15
12
20
18
18
19
-9
15
27
18
-10
27
28
23
20
2
12
21
8
19
-2
3
23
11
12
2
9
19
6
-18
-14
8
2
-1
-3
-9
4
10
7
12
11
18
8
0
9
8
-4
-5
-23
-20
28
15
-11
-14
-6
13
5
24
56
93
127
138
171
206
239
245
235
245
250
216
186
155
109
44
8
-4
-2
5
8
14
16
9
13
7
4
13
6
-14
4
11
4
4
-5
11
14
16
8
14
11
1
4
13
20
8
12
17
19
6
4
0
15
13
17
13
-20
-18
16
9
22
11
20
25
10
18
13
12
13
14
38
37
19
17
23
31
24
16
1
27
36
26
23
34
45
57
27
27
31
34
33
43
24
22
19
50
64
77
56
62
85
50
39
63
73
71
68
67
72
74
76
69
68
71
73
60
70
96
95
77
74
68
63
67
68
50
53
68
69
70
64
70
63
48
53
45
36
44
40
32
33
42
31
25
22
27
21
14
17
11
6
11
23
18
15
-10
-1
4
7
5
-3
-2
0
8
0
-1
9
16
-10
7
15
15
-3
0
0
8
26
-4
13
3
-12
-1
-3
5
1
9
-4
-2
-5
7
2
-3
-10
34
35
-10
-18
10
15
5
12
17
4
8
3
13
17
18
24
14
6
-10
-4
2
13
8
-8
-27
10
24
26
21
15
12
0
6
-2
-5
23
14
6
17
17
10
7
0
18
11
1
0
8
15
13
-17
-11
13
12
3
-3
1
3
7
0
-21
-5
-9
-4
26
7
-2
-15
-22
-4
2
7
18
12
-1
-12
-9
-1
11
-7
1
29
19
-6
3
6
7
-6
-3
9
-12
-1
-8
-18
1
14
-7
-3
28
16
18
9
1
11
-3
-1
-2
4
3
-5
9
9
12
2
-12
16
21
-3
-6
14
19
48
18
14
23
6
-6
-23
-16
-17
13
12
14
-3
9
7
13
5
6
0
-14
-5
9
2
-6
-5
-21
6
-6
0
-6
0
-9
-24
-15
14
-6
19
9
-9
-16
-16
-34
-15
-19
-5
11
32
40
54
66
112
125
154
190
225
239
232
243
264
219
181
145
107
57
3
-7
-22
-24
4
15
6
-9
1
1
1
-5
1
11
13
8
-10
9
10
11
-16
-14
0
4
-6
6
19
-2
-17
13
-8
-4
8
0
15
21
15
22
11
5
-8
3
8
20
15
4
2
-21
-13
-15
-1
13
29
18
8
13
16
23
37
32
8
26
32
22
14
2
17
27
27
25
26
38
44
36
26
30
30
28
22
56
51
53
47
68
54
55
51
54
60
49
50
46
63
61
58
73
74
87
60
66
59
57
64
59
55
56
67
80
73
84
50
37
68
62
54
50
36
42
40
42
28
32
15
23
32
23
14
16
5
3
3
22
17
-13
-7
-3
18
-5
-8
17
4
17
0
-5
5
0
-18
-21
-11
23
-5
-4
10
-11
-13
-11
-2
-2
8
-16
-10
-9
-14
-3
6
-6
-15
1
6
-7
-4
3
0
-1
11
6
-28
-12
-18
-12
-8
5
14
4
-13
-5
4
13
3
0
-10
1
-7
-22
5
29
-8
-9
-9
-13
8
18
13
19
10
5
-14
-13
6
-6
-4
6
-3
8
8
3
0
-9
1
-4
-4
-2
-20
-3
7
8
9
3
-17
-25
-2
-6
-17
1
12
2
5
5
9
-2
1
6
-9
-12
-36
-14
1
3
-7
-3
17
15
-4
-15
-9
-6
2
-14
-24
9
-4
3
18
13
1
-2
-25
-5
1
-6
13
14
10
5
-5
21
15
18
12
13
-7
-4
-4
-6
4
-1
-9
-6
-25
-16
-10
-3
-5
-7
-15
-11
-10
-15
-15
-2
-5
0
4
-14
-25
6
-9
-13
-12
-11
-12
3
-6
-2
-11
-11
-10
-7
-24
-23
-20
-7
0
14
38
68
96
127
125
184
225
222
225
232
224
202
175
152
101
59
10
-8
5
5
1
-15
-17
2
-2
-3
-15
-11
2
13
12
1
-3
13
-5
-11
-5
5
-3
-6
-20
-18
-1
7
14
17
12
7
-13
-10
-3
2
-1
-18
-11
27
36
10
12
17
12
-6
-15
-5
12
7
8
12
18
20
7
1
11
20
18
28
33
16
6
5
12
13
22
13
36
23
20
6
38
53
38
37
30
41
43
46
35
22
47
54
52
63
57
57
50
53
61
65
61
50
61
61
75
55
78
64
69
61
67
88
75
55
59
56
62
61
60
59
57
21
40
51
51
52
26
30
44
35
27
26
14
11
13
12
9
13
8
9
9
11
10
13
-6
-6
10
-1
-11
4
4
2
-5
-5
2
10
-2
-4
-4
-11
-5
-6
-9
-6
-12
-8
-14
-2
-10
-15
-27
-8
5
9
16
28
-4
-6
-7
-5
-8
-7
-9
-13
-15
-6
-3
3
-6
0
-1
-12
-17
-18
-3
-6
-8
-4
10
15
6
6
14
8
4
6
-12
-12
-2
-4
3
-6
-18
-6
-6
3
7
4
13
0
1
-30
-29
11
3
-14
9
7
-3
7
13
-3
-9
1
-11
3
0
-2
0
9
-18
-19
-2
-2
0
-7
-14
-11
-10
-11
3
11
12
11
-8
0
8
2
-6
-6
0
6
8
5
6
-3
10
25
21
1
2
2
5
-1
-13
-20
-32
-8
12
19
5
-3
-5
7
-4
6
1
-1
0
-11
-15
-12
-2
0
-17
-24
-13
-6
-11
1
5
-13
-21
-22
-20
0
-14
-9
-5
-2
-4
-2
-14
-10
-17
-10
-13
-5
16
35
61
72
97
142
188
235
240
242
230
228
198
179
148
96
76
32
2
-21
-15
-16
-18
-6
2
-6
-16
6
-14
12
11
12
-5
-3
-11
0
-5
-23
-27
5
-1
9
4
-3
8
1
-3
10
17
4
7
11
-4
12
9
-4
-6
8
11
5
-20
-20
3
10
23
13
8
2
12
34
25
3
5
17
3
9
1
5
5
12
29
31
32
19
11
50
26
28
21
10
24
19
34
50
27
41
45
54
59
56
40
40
64
48
44
54
66
41
55
63
59
59
52
64
75
56
54
74
93
88
61
51
35
60
65
67
61
58
69
35
34
51
42
37
34
43
53
32
32
15
15
43
32
2
2
-11
19
19
4
22
17
14
10
13
-9
-19
-3
-6
-15
-3
11
3
-4
3
-10
-9
1
9
22
15
-12
-12
-3
-16
3
12
0
-2
0
-3
-7
-13
-1
-8
-6
-2
-2
-12
0
-2
-26
-17
4
-3
-4
5
3
5
12
18
2
-4
-8
-1
-14
-11
11
-8
-3
19
22
16
-10
-39
-19
29
33
-1
-3
-2
16
5
-3
10
3
20
1
-2
2
9
-3
-19
-6
29
23
6
5
5
-5
-2
-6
-23
-5
-7
1
2
2
-10
-1
4
9
4
1
14
-4
2
-5
-9
-18
-16
-3
-1
-8
16
-2
8
11
25
19
24
9
7
5
2
6
4
7
-4
1
17
20
23
19
13
4
-13
5
14
-2
0
2
-10
-22
-9
-12
-7
-11
-18
8
-4
-12
-21
-11
-3
3
8
-6
-11
-13
6
-7
-39
11
11
7
-19
-20
-1
8
6
-13
-24
-2
-9
-27
-33
7
39
69
82
99
122
166
216
240
219
211
240
206
189
