58
60
63
65
76
71
61
53
60
72
81
60
67
74
62
62
73
62
82
74
57
59
83
68
69
62
58
56
48
72
74
81
84
78
69
67
56
70
72
77
72
69
75
81
73
66
77
70
58
74
71
77
72
75
81
52
42
70
82
79
82
77
85
82
80
69
64
63
59
73
78
88
68
61
60
60
70
76
72
65
63
65
82
56
65
70
78
70
82
77
65
62
69
62
58
79
76
57
51
55
70
78
80
65
59
72
69
68
68
69
70
62
64
86
78
62
72
84
87
61
64
79
78
74
66
67
43
52
69
77
63
71
78
76
70
76
65
64
78
72
54
81
79
78
76
67
70
68
56
75
72
71
70
79
79
83
78
70
92
89
69
83
92
86
90
79
85
95
94
84
87
94
95
89
92
86
90
93
98
91
89
85
83
81
83
71
64
75
78
75
66
76
71
70
76
83
87
79
80
73
74
68
47
52
62
68
55
56
53
70
78
78
61
61
74
69
58
47
68
44
56
55
49
63
85
75
91
133
148
174
201
248
260
257
260
258
252
219
170
99
71
51
15
14
22
4
-4
20
18
29
46
45
48
55
65
65
63
55
47
48
69
70
50
59
77
65
57
69
68
74
71
77
79
60
43
55
62
57
65
66
67
61
62
69
70
81
66
62
71
72
76
64
48
63
61
74
67
74
56
66
98
82
74
73
75
66
84
81
74
81
78
76
73
71
68
70
79
78
89
83
86
98
92
73
92
82
86
88
89
93
86
87
92
98
82
93
98
98
104
98
101
108
114
109
99
112
117
104
101
114
122
106
112
121
123
101
100
94
101
105
118
120
123
127
123
107
117
102
109
102
107
118
116
96
108
99
87
84
79
79
92
71
70
81
83
77
77
84
90
90
76
67
68
70
58
65
62
63
47
54
72
66
70
73
69
60
57
69
63
69
77
71
64
71
66
61
69
82
68
66
73
59
46
76
67
55
54
69
68
63
62
72
67
72
68
64
58
55
56
66
62
59
71
69
55
67
62
69
68
77
72
57
64
54
46
64
77
70
68
63
58
64
75
80
76
61
65
60
63
76
73
60
53
61
58
71
67
72
76
75
74
78
73
56
64
61
59
49
54
69
79
53
64
63
66
82
69
72
63
63
57
61
61
59
51
52
70
58
70
68
80
63
56
67
57
64
61
52
71
75
63
56
55
55
61
57
57
67
64
76
65
69
75
66
76
75
67
66
70
76
61
74
74
73
92
105
89
71
90
96
93
71
87
83
76
87
86
89
93
84
94
85
69
76
84
62
67
83
89
82
71
76
65
60
64
75
59
64
56
57
57
51
76
65
68
62
58
68
65
59
49
48
46
54
56
65
63
59
60
46
59
63
53
61
58
62
43
52
57
45
45
48
66
79
101
124
139
186
219
236
245
234
250
240
206
138
86
36
9
-16
-10
-9
-15
-5
-24
-16
-4
15
32
28
46
49
46
49
51
32
53
72
61
53
60
49
62
72
62
57
59
68
66
52
71
66
55
50
67
65
54
76
73
68
80
74
72
75
67
56
46
61
64
66
84
86
63
80
71
77
70
74
62
88
77
85
76
71
66
64
77
89
83
103
90
90
74
79
85
80
78
73
92
86
81
92
94
99
96
93
87
95
102
104
109
101
97
99
103
116
105
113
124
119
110
115
107
112
106
123
133
124
126
115
107
106
125
123
126
129
128
133
128
121
126
122
120
123
111
107
116
131
126
82
90
104
89
95
111
93
92
82
104
99
81
81
93
80
84
81
83
69
68
82
84
77
70
91
88
63
80
85
59
70
82
67
70
80
78
78
72
71
69
86
78
52
61
62
50
68
83
82
77
73
74
71
85
65
66
65
63
66
72
78
74
72
82
79
55
59
86
85
77
75
82
73
81
69
65
77
71
61
74
73
73
76
80
82
70
80
69
48
68
65
84
56
66
68
72
72
76
77
67
58
76
77
64
81
60
62
67
79
83
81
71
74
74
61
63
73
84
69
75
76
67
52
49
59
69
79
67
67
72
70
64
51
62
71
65
74
74
65
69
62
70
75
55
69
50
44
67
73
64
57
59
76
76
70
62
66
82
66
59
68
67
54
56
65
59
67
65
66
76
70
70
66
69
73
59
71
92
74
80
85
89
94
79
92
83
86
84
85
83
76
90
99
93
83
79
82
94
91
80
82
71
80
85
75
60
81
83
67
68
52
55
68
52
47
53
68
53
74
59
60
72
66
59
80
60
68
53
44
49
66
48
51
52
58
55
66
53
59
65
58
62
56
52
43
34
30
47
48
62
71
108
157
177
214
236
246
254
254
253
232
179
132
81
18
15
-8
-13
-8
-10
-11
-9
-11
22
42
30
29
46
54
48
40
45
60
47
43
63
70
65
61
50
56
61
50
40
56
59
62
47
70
70
58
62
60
65
64
67
67
58
61
61
50
60
74
65
60
61
75
73
62
69
58
66
72
70
59
59
63
77
63
62
62
73
73
73
74
68
67
75
62
72
75
65
81
74
89
108
84
69
74
72
85
85
73
90
97
100
94
91
92
110
98
87
99
99
97
93
105
107
111
109
103
103
107
112
102
109
120
120
117
116
117
102
105
105
119
120
117
111
108
115
102
102
97
99
102
109
82
87
84
90
100
73
75
77
73
70
80
81
66
72
69
76
74
72
73
67
54
74
58
68
60
61
44
50
61
71
58
42
48
62
59
60
55
59
69
57
57
57
65
65
70
55
56
63
59
60
62
40
52
58
67
67
65
59
60
56
55
54
50
53
47
65
53
42
53
50
53
45
51
60
64
63
52
60
85
65
41
52
57
45
61
71
78
71
55
52
70
62
42
60
56
67
60
64
77
70
56
28
44
75
54
52
58
65
64
78
69
56
43
62
62
53
52
45
52
59
49
41
64
58
55
57
65
67
53
40
52
55
60
48
45
42
53
52
54
52
65
65
57
51
60
56
52
55
55
48
56
66
61
57
59
53
62
56
49
48
48
49
61
61
39
41
50
56
45
50
55
43
51
39
52
52
51
53
48
55
57
58
54
54
51
52
48
57
73
60
61
59
54
43
46
51
47
64
66
68
56
27
58
84
78
63
64
58
64
73
63
66
65
70
65
62
68
63
74
66
67
74
69
67
75
62
62
84
67
51
51
39
26
51
46
59
37
42
56
33
31
33
38
50
49
52
54
48
44
46
46
43
52
38
49
39
36
37
47
33
36
43
29
25
33
32
43
72
71
89
103
142
172
213
244
235
243
255
235
209
151
88
29
10
-6
-8
-19
-14
-21
-10
13
-5
8
29
31
31
32
42
34
23
14
33
55
48
41
48
48
35
36
32
43
50
33
41
37
36
39
56
55
44
42
32
46
39
30
36
45
50
48
46
43
44
58
52
44
43
44
55
44
41
47
38
45
58
59
47
59
50
45
58
47
48
63
65
46
44
54
54
58
54
50
43
50
57
63
54
49
61
64
50
66
68
78
77
72
68
74
54
66
72
78
80
79
74
69
85
77
77
92
81
82
86
82
83
84
87
104
87
87
84
90
83
86
94
95
92
79
81
96
88
93
75
71
91
74
68
67
75
69
60
63
61
64
45
26
42
66
60
56
59
49
37
42
44
39
41
51
38
43
41
37
47
56
42
38
36
40
33
30
40
44
39
37
24
24
37
40
34
23
30
22
29
42
32
30
32
44
32
25
43
43
44
50
30
37
39
31
37
44
32
27
34
23
22
24
38
35
24
36
32
26
32
34
28
36
36
42
41
39
27
35
25
26
17
19
39
33
30
32
20
8
25
42
28
31
19
29
50
34
41
23
26
31
30
32
30
17
23
34
30
24
30
25
22
21
26
29
26
22
17
14
28
35
27
24
29
17
20
24
17
22
36
14
32
23
14
8
28
17
25
19
5
11
18
11
26
17
38
18
10
14
11
9
22
18
11
8
17
14
12
13
16
4
11
14
7
11
11
10
10
11
3
24
15
8
21
6
-1
8
7
15
23
28
2
12
23
22
12
28
28
26
35
32
20
20
26
10
23
39
29
29
37
39
33
34
17
25
25
29
31
17
13
35
20
18
16
17
5
2
-3
4
-2
4
-1
11
5
-7
1
10
5
4
-3
2
11
-1
5
8
7
13
-10
-6
0
-13
-1
7
-2
-2
-6
-4
-13
-16
-14
-10
1
5
1
12
42
66
89
116
142
167
173
186
190
187
150
108
49
-25
-41
-74
-67
-65
-70
-80
-82
-72
-65
-41
-42
-27
-7
-8
-21
-2
7
-13
-14
-7
0
6
-3
-11
8
19
-15
-9
-15
-11
-3
4
3
7
5
15
21
6
-14
4
3
-3
8
8
7
12
2
9
3
4
10
15
21
22
-3
-9
11
14
-4
-2
-11
7
13
18
10
-3
10
6
15
23
14
11
17
18
10
20
8
1
24
24
32
30
33
26
30
28
25
20
35
43
33
33
32
47
44
41
38
31
20
38
43
49
40
48
51
65
63
61
43
44
52
41
30
63
48
54
56
47
61
64
54
53
58
62
50
40
61
49
47
44
41
32
33
44
35
34
37
25
27
19
5
15
32
12
15
23
17
17
15
15
16
4
22
8
-8
12
16
-2
3
10
13
7
1
7
17
12
3
3
5
3
-2
-4
5
0
3
5
8
12
2
-5
2
9
8
9
-1
0
0
1
3
-3
-2
5
4
10
19
8
10
13
4
8
2
12
-5
12
8
-5
-13
2
14
14
6
17
15
16
13
11
10
14
9
-7
-2
11
14
20
3
-18
-5
19
27
22
18
16
18
17
2
12
15
12
10
-2
2
9
15
0
-4
15
11
7
10
5
5
14
-5
13
-3
4
2
13
22
7
17
21
11
2
-8
12
8
16
7
-9
4
10
-2
-9
-2
0
10
5
-1
14
11
18
27
2
6
13
7
9
3
8
9
5
-7
0
7
14
2
25
2
2
8
8
6
10
20
14
-3
1
0
9
22
8
-2
1
13
12
5
7
4
8
23
20
17
17
21
11
19
26
23
17
28
37
20
12
21
23
24
23
21
33
19
35
30
34
45
28
37
29
21
13
16
16
15
13
9
8
3
8
12
6
7
-1
9
17
33
11
-2
3
10
13
15
16
11
-8
-7
-14
6
13
-2
5
5
14
12
3
12
-1
-14
-3
-15
-23
0
-3
-4
18
42
54
85
112
150
185
197
205
208
203
190
151
100
45
-23
-43
-51
-50
-36
-39
-38
-42
-36
-35
-26
-16
-13
-24
-5
9
12
5
6
11
1
1
5
4
-6
-10
11
11
2
3
10
12
6
25
27
14
28
10
11
19
-3
10
6
15
9
13
30
10
11
27
21
29
7
8
30
14
19
26
20
16
11
22
30
31
30
29
32
29
10
19
27
39
33
36
33
26
24
41
35
29
33
41
41
33
40
58
47
45
43
59
59
52
45
54
55
51
42
45
37
45
58
43
66
67
62
69
63
73
68
58
67
69
71
69
56
59
76
78
63
48
50
55
56
50
44
37
41
51
58
49
40
25
38
41
40
26
25
27
17
17
24
12
24
25
25
14
17
33
26
14
7
18
26
24
17
10
33
18
23
29
17
21
11
5
19
25
21
10
18
20
23
23
25
27
13
7
10
14
20
31
18
16
24
15
11
4
15
14
10
10
11
6
27
34
16
13
29
27
28
22
10
11
22
26
16
10
16
19
24
26
19
30
15
11
0
8
23
21
30
31
16
17
12
20
16
9
18
34
22
15
15
18
33
24
15
15
19
17
21
16
10
6
23
40
32
17
12
20
11
32
28
3
11
15
15
16
9
12
10
25
17
21
16
19
21
25
20
17
18
10
2
22
42
24
12
16
9
13
22
3
17
22
31
17
10
13
17
20
-8
-4
13
9
30
37
14
12
11
-3
0
18
19
24
21
6
12
23
17
18
22
14
23
22
23
24
25
21
34
36
37
32
33
44
35
47
46
26
37
32
29
35
46
46
27
42
37
33
23
28
42
36
21
18
18
18
21
27
9
15
14
13
11
23
17
18
21
10
-7
11
5
1
1
16
25
17
1
15
12
21
29
16
-3
6
11
12
16
10
-9
-8
-4
-2
10
7
23
60
77
109
152
192
215
202
202
210
192
148
112
58
-10
-32
-41
-46
-33
-38
-54
-53
-46
-29
-12
3
11
8
16
16
19
3
7
13
16
8
14
0
-3
23
14
22
17
21
5
3
14
12
0
26
32
22
32
8
14
13
3
16
25
30
15
33
25
11
26
32
23
12
15
14
18
21
20
25
30
27
26
23
27
36
24
33
26
24
26
13
15
10
28
41
41
47
36
33
29
33
44
39
54
47
35
29
38
41
39
48
50
65
62
42
34
40
49
44
45
63
61
62
65
71
62
56
56
51
57
63
64
59
66
73
83
63
55
66
73
80
67
63
69
55
58
77
76
53
45
43
45
56
51
39
38
45
37
41
48
38
27
26
44
41
36
33
25
14
21
25
33
27
34
36
34
16
7
11
16
26
35
39
27
36
48
36
29
14
1
16
16
12
12
34
29
24
27
10
12
13
11
4
17
13
24
13
24
24
23
24
28
34
29
12
17
18
19
23
24
22
18
29
23
12
22
23
27
18
19
12
16
21
29
34
20
18
10
28
26
22
23
25
15
27
26
35
37
29
15
29
17
11
28
25
17
20
14
27
18
25
20
25
34
29
25
20
7
6
21
19
19
22
31
19
21
23
21
27
41
7
24
24
17
19
24
37
20
14
19
20
16
20
18
15
17
28
18
16
12
9
15
14
29
17
11
11
18
33
22
18
27
35
24
13
19
3
15
21
13
19
20
23
32
23
14
21
24
23
23
21
28
24
18
25
15
18
21
41
43
33
46
59
27
33
46
51
42
33
37
29
37
42
45
52
48
52
44
39
37
44
31
29
33
35
24
27
20
22
32
27
25
29
23
13
21
24
14
9
11
14
27
8
17
8
11
9
20
21
17
17
19
23
22
10
2
10
1
0
7
13
14
18
2
-4
3
19
30
37
59
92
121
158
188
202
198
195
185
168
153
98
43
-13
-23
-40
-43
-66
-51
-50
-55
-48
-22
2
-1
3
11
13
11
-6
0
-2
4
10
29
18
5
10
11
13
15
12
10
12
22
23
14
14
12
14
13
11
15
4
23
40
25
23
28
22
4
7
25
19
25
22
22
21
29
11
14
22
27
24
18
27
28
20
20
16
16
26
34
33
38
34
26
29
24
26
30
27
23
24
32
44
38
31
43
39
39
63
58
37
37
45
45
42
37
43
51
57
62
58
49
42
52
67
55
38
66
69
60
56
65
66
48
53
63
63
65
67
58
50
55
69
60
58
58
67
62
53
56
44
48
64
54
59
62
48
30
49
51
39
33
35
24
31
34
30
32
28
19
18
49
35
25
33
18
25
24
39
24
20
31
16
7
17
22
18
24
21
27
26
26
22
11
11
14
15
13
37
24
12
25
18
2
15
19
4
8
32
28
20
30
18
3
6
17
12
29
25
23
22
7
8
23
20
21
21
22
26
24
13
8
18
28
13
17
9
15
21
26
9
7
23
27
9
15
23
22
11
11
16
16
21
26
11
11
16
17
26
39
24
10
10
9
-16
4
18
22
19
16
15
22
15
-4
10
17
2
13
29
25
11
19
23
4
16
17
4
6
18
9
3
17
3
1
22
14
12
14
17
16
2
-2
4
13
1
14
21
28
20
25
9
16
12
11
8
13
27
9
19
18
13
18
15
25
19
28
33
34
26
23
21
31
32
30
30
25
44
26
39
34
21
27
35
27
22
16
19
27
27
19
17
15
13
3
8
5
-6
2
15
8
-10
-14
2
8
-8
-3
0
-2
-1
4
13
-5
-14
-3
4
-11
-8
8
8
2
2
5
4
5
-5
-16
-9
-2
-18
-22
-14
-5
11
23
40
64
108
129
154
169
180
171
157
150
99
73
11
-43
-69
-74
-79
-93
-93
-86
-84
-87
-68
-44
-27
-17
-22
-18
-14
-14
4
3
-6
-12
6
3
-4
5
-14
-11
-13
2
10
12
8
-2
3
15
2
9
5
-7
-6
-2
1
0
-2
-2
5
-10
-10
5
25
14
12
8
23
-2
4
16
13
2
7
8
2
14
11
11
15
20
4
15
17
27
8
9
23
18
21
20
2
12
32
31
35
32
18
20
33
22
28
33
31
31
28
25
27
28
45
56
52
46
62
52
51
50
53
58
67
41
28
36
49
40
54
69
60
62
64
47
31
48
60
70
50
50
39
38
41
57
51
53
46
46
52
33
32
33
39
48
42
32
24
28
17
7
9
23
8
23
30
9
14
18
19
11
17
18
6
6
6
16
-4
7
8
12
13
5
3
11
10
-1
-6
3
7
4
7
-9
-12
-4
12
1
-9
7
20
8
11
16
25
1
-10
-1
14
14
0
4
11
10
14
7
-1
24
10
8
16
10
8
15
1
16
10
1
0
9
9
-4
7
7
10
13
16
8
8
7
11
5
9
15
11
16
27
19
9
10
6
-4
-18
10
21
37
38
19
-7
-9
-1
5
1
1
0
7
20
13
3
0
10
6
-4
6
9
2
-5
-5
18
1
1
-6
0
18
7
6
26
33
9
6
-12
1
-3
7
15
11
11
17
11
16
7
4
11
7
12
11
2
10
16
10
11
22
3
6
10
20
35
31
31
36
24
39
45
30
28
41
33
42
36
41
49
49
47
22
31
48
43
35
16
29
39
17
19
12
16
11
10
13
3
8
12
10
5
11
9
13
7
7
7
10
0
14
6
18
6
8
7
-1
3
-1
0
6
12
12
-5
-11
-5
15
2
11
7
-3
10
7
18
33
31
68
98
125
153
173
186
187
179
175
153
106
56
-14
-49
-74
-66
-59
-83
-70
-60
-50
-57
-42
-21
-17
-22
-12
-2
8
6
3
1
7
5
1
2
17
16
6
15
6
14
2
-4
0
13
6
4
19
20
26
10
13
14
10
17
30
31
34
28
28
0
13
15
4
16
23
21
32
22
21
24
18
18
18
25
24
30
35
35
23
41
42
32
35
32
27
22
30
39
28
32
47
26
37
33
38
52
64
46
49
61
42
42
26
36
41
48
62
60
53
48
57
56
58
54
63
70
64
56
67
73
56
52
56
62
72
66
59
55
60
71
58
59
56
71
68
62
57
62
66
58
56
49
56
52
55
48
41
46
44
45
40
36
47
46
26
32
33
31
29
30
23
22
33
25
18
24
32
22
32
22
28
13
11
13
15
21
13
18
7
18
25
28
36
26
29
31
21
17
13
11
14
16
21
15
24
39
35
41
18
28
19
22
22
16
17
15
14
-1
21
26
16
28
24
21
24
27
37
34
22
9
18
11
33
20
25
27
19
25
35
31
30
31
30
23
19
22
27
18
22
3
21
19
22
17
27
26
39
30
20
23
32
21
19
29
15
23
25
32
29
28
17
15
25
29
25
31
17
15
29
19
5
6
24
22
19
22
20
4
14
25
17
24
21
20
19
14
15
32
39
31
26
23
25
32
26
15
20
31
31
37
28
31
46
36
38
39
40
46
30
34
44
41
36
42
53
64
44
47
48
39
49
40
41
34
46
38
37
44
31
11
31
34
33
32
27
18
25
22
19
2
14
7
-7
13
16
1
3
10
22
22
17
23
15
10
10
11
13
11
19
18
11
4
3
13
13
-5
2
2
2
-2
-7
31
43
63
90
118
155
186
212
196
205
211
189
157
109
45
-12
-31
-41
-37
-56
-62
-56
-42
-16
0
6
4
8
-1
-14
2
-1
3
7
-5
7
12
9
15
33
39
11
11
10
8
12
19
20
22
16
13
10
7
13
25
21
26
20
22
21
23
23
26
23
16
18
18
16
19
34
15
14
35
44
30
33
31
12
20
29
40
19
39
29
14
-4
18
34
46
45
31
26
43
49
37
31
37
38
40
42
39
49
40
35
49
58
54
40
53
58
48
47
48
60
55
47
60
55
64
84
62
48
62
56
55
45
58
67
60
53
66
67
83
72
73
73
63
72
74
75
57
45
56
62
73
67
43
40
50
49
47
44
53
55
38
33
39
37
31
36
24
23
39
27
31
19
18
16
31
7
16
26
26
17
18
29
33
9
14
18
22
22
17
13
25
16
10
21
25
-1
24
25
18
22
26
32
13
12
19
13
22
12
36
17
16
25
9
-5
12
16
16
3
20
28
22
25
20
8
20
28
13
11
12
25
20
23
21
24
20
24
13
11
11
0
13
19
27
30
14
0
9
29
24
19
18
14
20
12
19
14
14
17
9
9
23
25
15
20
21
15
1
22
28
26
23
12
6
8
-3
8
0
26
9
7
11
11
11
30
11
10
16
21
11
11
8
15
12
5
15
13
17
17
10
16
12
14
18
30
17
15
32
28
26
32
35
36
28
10
21
31
45
38
32
25
32
40
34
37
30
36
33
32
30
33
31
23
17
10
11
20
16
21
11
14
21
16
7
4
6
3
1
18
22
-9
-18
-8
-17
-5
11
10
5
-7
5
3
2
14
8
-5
1
-6
14
20
5
-23
-4
-22
-22
-1
-11
-18
0
7
31
50
70
93
130
169
177
175
185
185
155
127
89
6
-38
-58
-82
-81
-86
-84
-82
-88
-58
-53
-41
-21
-26
-22
-11
-6
-9
-4
5
0
3
-11
2
-4
9
10
13
10
-4
-16
-12
7
1
-10
3
11
-1
-6
0
11
-1
4
0
-3
8
18
12
8
5
14
8
15
7
13
0
8
0
-5
10
12
9
9
7
15
16
18
-3
0
-6
20
15
12
18
22
15
8
22
20
17
11
20
28
24
22
23
36
38
20
26
24
38
37
24
42
48
45
42
55
48
56
57
53
39
50
55
46
39
35
32
45
59
56
47
44
68
61
55
53
40
49
60
42
53
56
61
57
49
50
37
35
55
51
31
40
34
35
41
34
32
22
8
1
5
29
29
13
10
32
21
23
13
4
9
10
26
21
17
6
8
4
8
8
14
22
13
-7
6
1
8
29
7
-30
-17
6
28
18
16
2
4
11
7
7
4
-11
-2
11
6
16
2
2
-2
5
1
4
-1
12
24
5
-1
-1
6
-1
-2
13
7
11
12
1
-12
3
15
2
13
12
24
21
1
-5
-5
11
10
9
17
8
5
14
13
25
21
-4
13
0
10
12
17
-4
8
19
15
-1
1
2
17
12
11
14
25
14
4
15
14
-3
-5
8
14
7
18
3
2
5
-2
14
22
16
0
-4
1
9
19
14
8
-1
4
-5
10
11
11
22
15
23
33
19
19
26
32
35
25
24
30
21
29
22
33
27
28
40
38
27
19
33
26
22
10
15
19
24
14
12
26
17
18
-5
14
27
20
-1
-3
-5
2
3
0
5
0
-17
-3
6
3
-8
2
2
10
2
12
9
9
1
-1
-4
-2
1
-1
-11
-7
-3
1
-7
-11
-4
15
32
61
90
109
122
143
163
175
173
177
149
122
92
32
-28
-54
-64
-70
-61
-63
-65
-71
-65
-37
-30
-31
-23
-7
-16
-14
4
-3
-6
-4
-8
-11
3
0
7
6
5
-2
17
15
9
0
5
27
2
2
12
10
18
6
9
9
-6
3
17
6
11
12
21
17
14
17
13
11
26
20
-4
-2
1
10
18
19
13
21
14
27
24
17
23
31
31
22
20
20
23
21
34
32
29
29
26
27
23
40
45
34
37
42
39
38
38
36
30
45
39
44
46
41
49
50
47
57
56
65
59
56
58
64
69
56
60
51
63
65
68
70
71
68
62
66
84
69
50
46
55
65
53
52
66
60
43
50
58
49
35
44
45
40
44
33
30
30
23
18
12
4
16
36
13
25
19
19
20
25
29
27
12
2
18
17
11
18
12
24
24
7
5
15
19
16
20
10
5
14
13
8
1
10
7
14
16
14
6
16
9
4
1
20
9
4
22
23
13
13
7
2
1
17
20
21
13
16
21
11
10
12
6
34
11
14
32
38
16
10
6
18
15
3
12
24
5
10
17
29
13
6
11
10
21
14
20
12
11
5
17
15
19
25
11
16
21
25
14
14
31
18
7
9
7
13
24
9
16
20
1
9
12
16
21
13
2
19
18
15
27
30
22
4
8
9
17
25
18
26
32
17
39
42
36
27
34
44
32
42
56
56
40
46
54
44
45
38
39
47
39
48
55
63
49
39
36
42
31
29
23
24
22
11
21
5
9
14
13
11
10
12
15
21
11
26
29
11
4
9
7
1
2
17
10
13
25
18
5
15
15
4
0
3
2
3
4
0
-2
-2
9
32
60
75
108
136
166
195
210
216
214
207
175
132
74
9
-27
-26
-33
-49
-46
-34
-37
-32
-27
-16
-12
5
10
-1
-10
7
3
5
-5
-5
1
-1
0
11
19
8
17
17
12
13
7
-4
16
12
9
12
3
11
15
25
24
10
20
11
15
10
7
10
11
17
12
9
5
23
18
12
21
15
15
6
6
7
8
18
19
6
9
34
31
29
21
20
22
27
24
26
21
21
23
21
4
19
26
29
29
30
37
44
33
46
42
37
42
46
44
44
52
43
44
43
47
40
56
58
61
70
56
54
59
57
54
61
66
62
56
65
54
49
58
71
69
51
55
47
58
61
58
51
48
46
34
46
48
29
23
28
44
34
30
31
26
14
10
17
20
13
12
20
25
17
22
28
17
9
6
20
10
7
18
8
-1
12
8
9
8
13
8
17
2
12
8
-2
-5
-1
14
14
12
6
15
10
-4
10
8
2
23
7
-15
11
10
-7
5
1
13
15
14
19
6
11
9
-6
4
4
15
9
13
4
-1
-10
-4
5
-4
4
4
8
19
26
24
9
16
0
5
9
0
-8
12
21
7
5
-1
9
10
0
12
3
4
6
23
2
12
13
4
-1
15
11
18
8
-5
-7
1
-8
0
8
9
-4
-1
6
-5
2
8
-2
15
12
-2
-2
2
0
0
6
-1
-8
4
7
3
1
5
7
-8
8
20
12
18
18
10
20
20
20
14
14
19
19
22
22
7
21
21
22
29
26
18
31
20
23
20
24
19
11
15
18
-6
6
14
6
-3
-5
-7
-9
0
4
3
-3
0
3
-6
-9
8
-4
4
-14
-12
-17
-2
-12
-12
-10
-13
-13
-7
5
1
-6
-7
-8
-8
-10
-13
-27
-33
-34
-21
-33
2
18
35
39
79
121
135
167
171
179
192
188
150
109
65
-6
-52
-69
-73
-66
-68
-75
-71
-70
-50
-46
-31
-26
-19
-21
-15
-16
-18
-16
-12
3
-25
-34
-20
7
-10
-5
-1
-7
-36
-10
2
-24
-24
-17
-6
-14
-4
6
-15
5
1
-1
-11
-13
16
7
0
-14
-1
-7
0
-4
-12
2
-9
-20
2
18
-1
-7
-4
5
-5
-4
-9
-7
10
-2
-4
22
19
21
-9
2
10
9
13
7
6
0
5
11
6
14
12
-9
18
33
24
24
28
27
23
27
20
25
28
32
38
43
31
41
28
29
30
24
45
57
55
54
60
50
43
49
41
43
45
45
49
68
52
54
36
41
42
50
49
32
42
39
29
24
19
18
25
30
25
26
9
12
10
4
7
6
-6
3
-3
-5
4
6
5
-2
-14
-12
-16
-1
-5
-7
1
-11
-1
-2
-11
-11
-22
-4
-1
-18
3
-13
-36
-12
-4
-7
-7
-8
4
-10
-8
9
4
-22
-26
-13
-5
-11
-20
-6
-4
-2
-8
1
-12
-14
-15
-10
-12
-12
-15
-14
-6
1
-7
-10
-8
-10
-10
-21
-14
-18
-19
-7
-1
-17
-10
-1
7
9
8
-5
-12
-21
-7
-18
-17
-8
2
2
0
4
-4
-1
-6
-5
-14
-13
-5
-8
3
0
-10
-4
-8
-14
-8
-2
0
-12
-7
-6
-15
-8
-4
-7
-4
-5
-8
-4
-3
0
3
-3
-13
-10
-4
5
-7
0
-3
-4
-12
7
-1
-13
-12
4
7
1
18
8
-10
-8
2
7
6
23
-1
4
4
3
3
19
21
13
11
9
11
20
19
2
19
24
15
23
11
17
13
12
15
2
6
-11
3
-9
-12
8
3
2
1
-2
-22
-26
-23
-7
-10
-10
-6
3
-10
-13
-4
-5
-4
-16
-5
3
5
-14
-23
-21
-12
-18
-14
-1
-7
-16
-14
-13
-11
-30
-28
-10
12
31
65
84
98
136
156
165
167
164
151
126
90
30
-29
-49
-77
-76
-91
-78
-92
-83
-71
-57
-50
-47
-31
-22
-15
-6
-7
-19
-1
0
-2
-17
-24
-21
-16
-2
-4
-19
-6
-7
3
-6
-5
-4
-8
-2
14
10
0
8
-5
-13
-15
-1
-7
-3
-16
-15
-2
14
16
3
8
6
10
9
7
-4
-2
11
6
0
9
-11
3
0
11
35
12
17
6
17
11
9
8
3
6
10
18
21
16
18
35
11
13
4
2
16
33
36
48
38
29
21
30
34
36
32
36
30
48
32
41
37
46
47
38
39
22
14
60
60
53
42
63
79
63
64
58
57
54
52
49
45
37
55
52
57
47
34
33
41
35
37
39
37
21
31
20
12
10
5
14
14
13
-7
-3
2
17
10
-8
-9
-7
-6
-3
-6
-3
16
4
7
-6
-5
-3
-7
-19
0
7
0
-3
-10
-9
2
-8
-12
-7
-7
-11
12
5
-6
-5
-11
-3
-6
-3
-4
0
2
-11
-8
5
-3
-23
-15
-24
-16
-9
3
6
0
-9
0
0
3
-8
-16
-9
-3
1
-10
-13
-5
-2
-17
-8
-9
-17
-18
-17
10
5
-3
-9
-7
0
-5
-2
-7
-11
-5
2
1
-5
-2
-12
-9
2
-12
-4
-3
-23
-20
-13
-18
-14
-3
0
-1
-6
-12
-6
-17
-18
-4
-11
-28
-11
-13
-15
-19
-20
-5
5
-4
3
9
-7
-16
-14
-9
-16
-23
-27
-22
-28
-31
-28
-14
-28
-33
-18
-11
-8
-9
-15
-23
5
-13
-16
-10
-20
-21
-21
-17
-16
-38
-30
-22
-26
-15
-11
-10
-9
-9
-5
-12
-15
-5
-9
-2
-2
-1
-14
-18
-10
0
-9
-9
-9
-1
3
10
1
8
3
1
-8
9
4
-9
-12
-18
-20
-29
-22
-14
-24
-39
-29
-34
-33
-29
-32
-40
-41
-30
-21
-30
-34
-46
-34
-36
-32
-39
-40
-30
-22
-31
-24
-28
-30
-45
-31
-32
-40
-42
-50
-53
-57
-42
-25
-47
-39
-25
-16
6
41
74
84
114
138
152
149
145
136
128
103
26
-48
-71
-95
-98
-84
-67
-99
-92
-89
-92
-67
-63
-67
-42
-42
-48
-61
-44
-38
-52
-39
-32
-44
-44
-50
-36
-57
-42
-49
-36
-36
-29
-44
-41
-48
-38
-51
-32
-39
-51
-40
-43
-37
-31
-38
-44
-34
-45
-42
-47
-29
-38
-38
-37
-47
-40
-41
-42
-47
-45
-40
-29
-37
-40
-50
-50
-50
-18
-24
-35
-37
-38
-41
-29
-20
-35
-43
-29
-24
-47
-36
-25
-35
-37
-31
-31
-37
-31
-24
-18
-22
-39
-26
-12
-10
-12
-32
-13
-4
-12
-17
-18
-18
-13
-13
-15
-12
1
9
5
-7
-6
-15
-4
-1
-4
-18
-6
-5
-2
-3
-19
-9
-9
-9
-16
-17
-4
-12
-25
-30
-24
-26
-20
-31
-39
-40
-40
-33
-39
-30
-43
-51
-51
-40
-67
-59
-44
-56
-50
-51
-53
-53
-55
-66
-63
-48
-49
-68
-58
-59
-73
-79
-63
-61
-73
-68
-72
-56
-53
-67
-72
-80
-78
-64
-64
-62
-61
-66
-69
-59
-65
-74
-78
-68
-74
-69
-62
-62
-68
-57
-70
-81
-89
-81
-72
-65
-76
-90
-72
-74
-77
-80
-63
-59
-71
-69
-71
-80
-75
-66
-76
-68
-73
-83
-74
-71
-77
-79
-64
-64
-78
-70
-59
-65
-76
-79
-77
-90
-97
-73
-74
-75
-71
-68
-75
-68
-73
-81
-88
-71
-98
-83
-69
-77
-85
-72
-72
-78
-73
-74
-89
-81
-76
-74
-69
-74
-80
-88
-73
-73
-95
-95
-90
-81
-82
-84
-88
-91
-87
-73
-77
-74
-86
-82
-80
-84
-102
-81
-90
-81
-89
-98
-94
-95
-92
-93
-83
-94
-101
-92
-92
-94
-95
-91
-87
-92
-94
-82
-80
-90
-97
-92
-95
-100
-95
-83
-80
-86
-85
-87
-87
-76
-84
-92
-88
-74
-72
-78
-75
-74
-69
-78
-72
-73
-73
-64
-73
-71
-75
-88
-86
-79
-77
-84
-95
-93
-111
-98
-83
-106
-108
-87
-95
-105
-112
-120
-97
-91
-106
-112
-98
-101
-111
-116
-97
-96
-103
-114
-90
-102
-108
-108
-126
-115
-115
-108
-104
-115
-107
-120
-115
-113
-120
-128
-127
-118
-111
-95
-84
-75
-41
-22
22
53
87
99
89
85
81
66
9
-46
-108
-135
-163
-165
-158
-172
-183
-177
-175
-156
-139
-132
-129
-114
-125
-108
-114
-114
-122
-125
-129
-118
-121
-111
-108
-106
-95
-114
-114
-128
-118
-120
-113
-129
-107
-107
-115
-105
-104
-117
-123
-122
-108
-111
-120
-98
-104
-124
-112
-119
-113
-102
-110
-110
-109
-108
-111
-122
-110
-115
-117
-106
-111
-105
-111
-108
-110
-113
-113
-113
-91
-100
-104
-102
-103
-104
-121
-111
-105
-92
-103
-96
-101
-94
-93
-96
-97
-96
-105
-90
-87
-97
-89
-92
-95
-85
-77
-90
-82
-70
-76
-73
-73
-70
-78
-84
-81
-70
-65
-73
-74
-59
-69
-75
-74
-65
-71
-74
-67
-67
-56
-57
-66
-62
-56
-65
-67
-74
-80
-70
-77
-85
-84
-75
-84
-85
-97
-90
-105
-110
-102
-93
-92
-106
-99
-95
-102
-95
-101
-112
-130
-120
-113
-107
-114
-118
-123
-120
-117
-109
-108
-110
-123
-118
-116
-134
-131
-124
-127
-124
-117
-107
-124
-127
-120
-126
-114
-113
-121
-118
-116
-107
-123
-113
-113
-125
-135
-114
-112
-119
-118
-118
-109
-106
-127
-130
-131
-119
-122
-134
-118
-135
-123
-121
-114
-112
-110
-112
-113
-115
-124
-129
-138
-117
-117
-130
-122
-113
-111
-118
-124
-108
-118
-118
-116
-119
-118
-124
-110
-124
-114
-113
-113
-108
-121
-115
-111
-98
-117
-131
-122
-113
-113
-119
-121
-118
-113
-124
-134
-120
-108
-102
-117
-126
-110
-129
-141
-125
-109
-116
-107
-121
-125
-117
-113
-110
-105
-117
-120
-120
-115
-113
-120
-133
-118
-117
-121
-123
-120
-130
-108
-106
-116
-120
-124
-128
-122
-114
-112
-121
-119
-118
-118
-127
-117
-99
-114
-104
-104
-116
-122
-122
-123
-133
-120
-125
-125
-121
-115
-113
-113
-106
-101
-114
-113
-132
-126
-109
-112
-103
-98
-100
-96
-89
-100
-100
-107
-108
-95
-102
-105
-110
-96
-94
-89
-83
-95
-91
-105
-108
-103
-101
-88
-98
-106
-114
-117
-100
-114
-119
-126
-109
-109
-118
-119
-122
-122
-121
-118
-103
-117
-107
-106
-105
-122
-109
-115
-129
-128
-124
-114
-125
-127
-120
-135
-115
-110
-109
-118
-128
-128
-119
-119
-133
-133
-136
-115
-116
-116
-55
-45
-10
14
27
49
55
62
48
25
0
-24
-83
-136
-164
-197
-187
-195
-198
-202
-197
-181
-173
-163
-150
-134
-137
-113
-111
-125
-122
-117
-113
-124
-124
-112
-114
-114
-108
-111
-126
-121
-124
-114
-96
-111
-119
-103
-126
-114
-119
-124
-117
-94
-108
-119
-111
-94
-101
-104
-98
-88
-101
-112
-95
-101
-108
-109
-104
-105
-107
-104
-114
-91
-96
-97
-95
-84
-100
-101
-93
-101
-104
-98
-91
-99
-98
-90
-101
-103
-92
-91
-85
-88
-88
-85
-69
-82
-80
-71
-81
-85
-95
-78
-71
-69
-70
-67
-54
-53
-75
-75
-75
-62
-78
-59
-59
-61
-64
-51
-66
-67
-46
-36
-47
-53
-42
-47
-49
-45
-60
-42
-35
-41
-28
-51
-56
-56
-47
-34
-40
-57
-65
-66
-63
-49
-54
-66
-73
-56
-59
-72
-74
-70
-84
-93
-85
-77
-88
-72
-72
-79
-88
-69
-83
-87
-101
-117
-101
-88
-76
-79
-91
-96
-100
-85
-79
-73
-78
-83
-97
-92
-89
-83
-88
-91
-96
-103
-83
-83
-86
-77
-93
-94
-102
-91
-91
-103
-90
-80
-98
-83
-69
-73
-81
-84
-77
-92
-84
-73
-77
-96
-93
-87
-96
-82
-85
-87
-75
-69
-86
-88
-82
-85
-82
-67
-72
-90
-76
-69
-72
-83
-91
-83
-73
-60
-81
-81
-78
-67
-61
-90
-101
-82
-70
-70
-80
-83
-87
-64
-71
-77
-76
-83
-87
-77
-68
-89
-82
-70
-80
-74
-70
-84
-81
-77
-78
-86
-71
-76
-80
-73
-66
-80
-77
-78
-81
-93
-66
-67
-76
-77
-74
-86
-94
-87
-79
-63
-54
-82
-89
-81
-71
-76
-67
-84
-80
-77
-72
-76
-88
-93
-90
-74
-67
-75
-76
-77
-77
-76
-57
-68
-72
-78
-63
-56
-72
-63
-63
-86
-72
-69
-76
-71
-76
-77
-69
-77
-75
-66
-74
-64
-53
-64
-61
-66
-62
-68
-58
-58
-62
-49
-49
-56
-53
-56
-50
-47
-42
-50
-50
-48
-46
-51
-41
-47
-50
-52
-33
-48
-60
-51
-66
-59
-60
-70
-73
-66
-61
-59
-74
-82
-53
-71
-84
-75
-69
-65
-54
-61
-70
-62
-59
-73
-70
-71
-75
-77
-70
-71
-71
-72
-67
-69
-63
-64
-72
-61
-76
-83
-80
-80
-58
-48
-23
0
13
59
98
116
133
128
119
94
77
56
6
-54
-108
-127
-125
-121
-140
-140
-136
-133
-109
-86
-76
-80
-84
-78
-73
-64
-55
-76
-79
-67
-62
-57
-68
-58
-54
-70
-45
-43
-55
-60
-58
-59
-56
-53
-64
-59
-54
-48
-49
-51
-53
-46
-45
-50
-48
-41
-49
-44
-43
-51
-57
-49
-58
-58
-43
-40
-51
-53
-51
-28
-33
-46
-44
-52
-43
-37
-54
-43
-34
-33
-27
-39
-35
-35
-50
-42
-39
-34
-23
-23
-28
-34
-38
-32
-35
-26
-25
-36
-23
3
-3
-8
-14
-31
-25
-11
8
0
-11
-26
-11
-2
-1
6
-5
-10
-3
0
4
18
-9
5
1
17
6
7
-5
10
8
12
24
11
-3
2
4
-1
4
16
6
2
-6
-5
-5
-21
-2
-3
-33
-25
-3
-10
-35
-23
-22
-21
-10
-33
-27
-18
-38
-28
-35
-34
-19
-37
-34
-38
-49
-39
-29
-35
-40
-32
-45
-41
-38
-34
-26
-34
-26
-26
-39
-44
-30
-33
-34
-39
-44
-34
-34
-40
-40
-45
-32
-39
-30
-31
-44
-40
-45
-36
-43
-33
-18
-28
-45
-38
-44
-42
-26
-8
-25
-34
-30
-24
-30
-39
-50
-28
-28
-28
-24
-23
-28
-25
-31
-36
-26
-20
-22
-31
-23
-26
-28
-38
-32
-11
-25
-24
-14
-21
-27
-35
-37
-24
-33
-28
-25
-29
-39
-19
-17
-8
-36
-34
-30
-32
-31
-33
-19
-15
-21
-15
-26
-17
-31
-25
-38
-24
-28
-29
-31
-20
-8
-28
-17
-25
-32
-19
-14
-24
-27
-18
-20
-17
-16
-18
-33
-17
-15
-24
-26
-31
-36
-33
-30
-33
-15
-11
-17
-13
-17
-20
-18
-10
-24
-30
-17
-20
-30
-28
-29
-21
-24
-23
-12
-19
-22
-22
-23
-11
-16
-29
-31
-27
-20
-9
-18
-14
-5
-17
-25
-27
-21
-7
-8
-20
-28
-4
9
3
8
-19
-19
2
-2
0
10
28
-6
-2
9
6
-6
12
6
8
16
13
-1
14
-1
-6
3
2
0
-2
-5
-11
-11
-7
0
-5
3
-5
-11
-17
-19
-20
-15
-14
-19
-19
-21
-20
-20
-19
-18
-8
-5
-18
-19
-22
-21
-8
-6
-13
-15
4
-16
-13
-33
-37
-22
-18
-16
-27
-27
-31
0
26
29
68
84
115
147
152
193
202
187
182
137
104
54
-24
-58
-65
-71
-72
-60
-90
-78
-61
-59
-43
-44
-20
-14
-9
-4
-15
-16
-22
-18
-17
-23
-15
-7
-5
-10
-28
-21
2
9
-6
-6
-17
-4
2
-14
-6
5
-13
-21
-11
-1
-1
5
0
3
5
10
3
-14
-12
-21
-15
7
12
1
5
10
-5
-1
-5
10
3
1
5
11
5
8
12
22
17
10
2
8
6
8
23
17
9
8
5
5
31
27
14
37
23
7
19
34
35
17
33
38
24
18
31
41
22
39
47
43
31
43
34
43
42
52
58
41
48
46
59
58
50
51
48
45
44
49
52
54
57
55
53
58
56
54
45
52
43
40
36
29
29
41
37
38
39
41
23
27
35
28
16
8
26
17
15
27
11
4
20
16
6
15
12
19
13
15
15
15
14
13
18
17
1
0
8
10
5
12
11
21
23
13
6
15
11
0
-4
6
17
25
22
13
19
5
13
18
-1
8
20
15
25
22
23
-1
-4
20
12
7
23
20
24
11
11
19
24
19
4
15
32
26
10
14
17
11
18
19
17
10
5
18
36
26
12
18
18
25
19
8
19
23
19
22
17
18
26
15
26
14
18
16
15
18
16
18
19
25
25
32
24
7
16
9
14
23
13
11
27
24
31
28
24
21
8
10
19
6
18
21
15
15
19
16
14
25
17
15
22
31
13
9
21
34
8
15
16
16
19
22
15
17
24
19
15
21
10
16
13
12
19
6
0
20
13
20
30
33
31
22
14
17
17
20
17
22
21
29
22
34
28
19
27
24
29
32
27
16
21
30
29
34
30
28
36
35
40
39
40
45
57
43
51
47
36
39
42
45
53
41
50
33
37
28
22
8
24
29
34
43
19
33
27
32
26
24
26
13
14
14
11
18
18
29
33
12
21
10
20
28
18
24
16
11
13
13
17
11
12
15
11
15
16
-1
-1
9
24
28
52
73
109
130
162
183
197
212
212
205
198
165
104
34
-7
-46
-52
-47
-48
-63
-38
-30
-40
-13
9
1
-18
-3
12
21
13
3
10
8
16
12
23
15
21
24
24
25
28
26
27
21
14
29
19
22
38
33
26
16
24
16
12
23
20
20
22
31
37
42
19
33
19
24
31
39
28
30
26
37
27
22
22
35
37
35
43
26
30
36
40
29
46
48
18
38
36
46
47
31
26
28
40
63
41
42
60
60
57
60
52
60
45
45
49
64
66
50
54
67
62
71
58
60
76
74
64
83
71
65
74
63
62
68
75
86
82
66
67
62
81
75
76
78
72
69
77
68
83
68
65
73
77
85
63
66
67
51
56
54
48
52
40
44
55
44
50
47
30
35
41
19
27
24
5
28
43
35
33
21
21
28
49
36
25
32
27
42
28
26
23
39
22
30
39
34
30
26
36
48
50
3
25
36
36
49
28
28
35
32
29
21
25
30
58
35
27
25
30
32
24
25
29
37
33
27
30
39
29
37
21
36
49
38
42
39
23
33
22
30
35
41
37
49
37
41
30
46
49
45
35
30
33
19
28
37
40
37
33
43
38
35
34
44
24
25
28
42
53
40
37
42
23
20
24
29
27
36
36
32
40
49
43
41
31
34
38
34
30
35
26
30
27
38
46
41
33
42
40
31
34
29
31
29
34
37
34
25
30
30
30
35
33
32
49
44
46
42
40
35
41
46
54
40
35
51
46
50
54
48
57
58
60
58
44
49
56
63
55
75
59
39
48
58
58
56
45
47
42
44
49
58
53
34
28
40
41
26
44
39
29
27
28
48
45
27
19
38
41
37
38
33
26
42
49
45
45
42
17
18
26
18
21
22
35
26
35
20
16
26
17
18
14
25
54
58
71
101
126
150
185
197
200
214
213
189
164
121
72
8
-15
-34
-36
-32
-31
-53
-38
-20
-29
-18
-9
-1
-7
22
22
25
29
18
41
33
21
23
36
45
31
41
42
37
23
28
28
46
39
43
39
53
49
34
44
43
39
30
31
42
41
39
48
57
63
46
43
44
38
48
62
56
44
48
43
18
34
46
43
41
58
59
62
52
51
69
51
67
49
52
51
57
61
62
57
59
66
62
59
76
72
62
63
73
60
70
82
80
83
80
78
82
81
84
74
65
71
62
82
86
88
99
97
96
98
93
83
97
93
95
95
103
95
87
88
102
96
103
98
101
84
89
81
96
81
86
86
80
97
79
66
64
83
76
82
71
60
66
66
73
69
51
51
46
47
58
66
47
55
60
57
69
50
41
53
39
46
51
64
66
54
42
47
45
54
56
54
52
51
48
50
45
41
43
43
54
51
47
47
44
54
49
60
54
66
66
53
51
48
45
32
44
50
44
57
55
44
42
61
59
62
64
57
63
59
52
55
47
60
50
64
53
49
48
48
52
69
59
61
66
58
67
57
43
40
56
45
48
68
70
62
61
58
62
67
56
55
58
67
58
46
46
59
50
53
51
46
57
61
58
62
57
62
57
55
57
45
52
67
56
52
48
43
50
56
53
50
50
40
41
70
82
59
47
57
54
42
57
55
56
60
62
55
52
59
50
55
60
59
59
64
62
51
61
61
63
49
53
63
72
70
62
61
66
78
75
81
72
77
77
74
73
71
101
80
79
72
74
75
88
82
75
82
81
67
72
74
77
68
69
70
74
55
63
70
57
61
65
57
57
61
63
44
53
63
59
49
57
59
50
48
47
42
34
52
62
70
65
48
70
60
44
46
48
47
44
45
43
43
48
47
53
67
71
105
139
165
195
229
245
254
247
239
222
194
137
65
28
20
-11
-5
-7
-22
-16
5
3
20
34
39
51
59
48
46
48
56
53
66
55
46
51
56
58
44
52
53
49
63
46
62
58
65
64
60
48
50
64
55
49
49
45
57
56
69
73
62
64
62
65
78
73
71
50
68
76
72
66
71
67
53
66
72
75
70
65
76
73
84
84
74
61
54
69
83
80
78
76
86
79
77
83
78
70
77
71
78
94
83
90
97
101
103
102
89
90
93
114
104
91
97
88
99
101
110
105
120
100
99
104
110
114
100
107
112
113
105
106
111
110
114
105
106
101
105
106
105
111
116
110
107
101
119
88
99
92
79
83
87
84
72
79
83
81
77
73
72
82
93
70
55
81
78
56
66
65
58
82
79
63
66
70
57
63
81
57
63
81
80
67
67
63
59
68
66
62
54
62
61
37
67
84
56
63
85
82
68
73
69
67
56
66
66
68
74
72
67
66
63
72
74
61
61
69
56
63
72
71
77
66
68
72
84
61
57
62
75
83
68
67
72
77
76
71
74
71
74
76
76
69
62
57
82
63
66
71
70
72
81
79
75
80
72
75
71
65
72
80
88
60
58
72
72
76
61
60
69
75
63
79
88
75
67
69
66
64
71
78
75
64
58
65
60
64
64
64
77
83
68
67
65
73
77
79
80
73
68
82
74
81
80
64
78
82
87
62
77
86
83
84
81
76
82
96
79
81
83
80
88
82
88
95
105
99
97
93
100
89
93
104
102
88
87
78
86
81
81
97
88
91
93
76
77
89
79
67
65
75
74
64
68
71
64
60
62
58
56
67
62
65
66
69
68
72
73
64
71
58
68
64
57
73
78
75
69
53
66
65
55
64
64
82
100
122
150
206
233
257
276
265
269
252
245
198
148
84
43
21
7
3
10
-2
10
21
25
34
56
50
56
54
52
58
64
75
69
66
67
76
76
73
74
83
73
70
81
79
78
69
70
74
72
72
68
60
62
90
93
86
76
69
83
66
61
75
81
81
81
69
68
82
76
74
81
71
79
79
97
83
88
87
78
62
70
82
76
87
102
87
94
99
81
98
99
87
98
94
79
90
86
97
83
101
116
112
101
113
99
97
103
102
98
107
106
105
116
123
128
119
115
116
111
121
116
121
126
117
106
130
134
131
124
125
116
120
120
120
123
128
122
126
139
136
112
125
123
125
110
108
119
122
109
107
108
104
100
94
93
87
88
90
98
84
92
88
86
94
76
72
85
77
76
95
80
71
70
88
70
74
81
72
70
77
79
78
74
78
91
81
88
83
71
59
72
78
70
67
68
81
80
74
73
80
91
70
66
68
75
82
76
76
67
73
76
79
70
75
72
65
72
82
84
75
73
76
65
81
88
76
72
71
76
79
80
69
62
74
79
93
77
71
72
73
59
64
66
73
83
80
63
62
77
89
86
60
66
74
69
78
92
69
68
58
68
76
88
77
70
73
77
77
76
81
68
59
73
62
69
68
69
82
67
63
60
72
98
81
68
58
59
59
75
61
62
70
73
79
62
78
81
72
69
63
73
76
81
62
72
77
82
67
82
96
76
79
85
81
87
78
80
84
92
90
83
93
107
97
82
102
90
74
101
99
82
81
83
60
89
91
81
88
86
68
71
74
77
71
75
76
70
59
62
57
54
65
65
59
62
68
69
60
64
64
44
46
53
69
60
55
56
63
48
51
49
72
67
62
47
54
51
46
46
46
72
88
101
116
154
196
210
230
246
246
238
242
206
145
104
45
13
-12
-10
-18
-22
-26
-13
4
3
23
28
36
46
