-3
-11
-8
8
9
15
28
18
6
-9
-15
-28
-7
4
20
14
30
21
0
-14
-2
-17
-10
1
18
21
28
16
5
-3
-6
-8
-5
-3
11
12
30
21
8
0
9
1
-1
3
13
15
36
10
1
-9
-6
-8
-7
9
4
7
23
15
-1
-8
2
-6
-3
9
12
24
27
14
-7
-1
-10
-15
-10
1
11
15
13
-2
-6
1
-10
-8
-2
9
17
16
19
11
-1
-7
-2
-13
-12
15
21
27
28
16
-5
-2
2
-15
8
15
29
41
16
16
13
0
-13
-6
6
19
21
24
20
3
2
-4
-13
-2
1
11
12
17
14
-3
-11
-16
-27
-8
-9
3
9
16
9
-3
0
-8
-19
-16
2
17
18
18
12
-12
-17
-13
-28
-10
-14
4
3
3
-5
-9
-13
-8
-14
19
50
66
74
95
98
88
69
47
20
19
22
-6
-9
-27
-34
-46
-47
-59
-59
-44
-33
-20
-20
-5
-7
-16
-22
-28
-21
-8
-5
-2
1
3
7
2
-12
-15
-20
2
1
8
7
8
5
-9
-19
-11
-9
-9
2
9
12
19
9
0
-3
-12
-7
-5
1
6
9
6
7
-3
-7
-18
-7
6
5
16
26
19
13
4
-5
-10
-7
-5
2
12
28
28
26
5
-9
-10
-15
2
19
27
25
28
11
6
-7
-5
5
18
21
18
27
40
30
17
19
5
11
28
41
44
60
43
33
23
18
21
37
43
53
43
60
48
41
38
29
26
34
40
51
43
57
48
36
26
23
18
21
15
29
48
43
34
17
9
5
-9
-4
7
20
11
26
9
-5
-16
-25
-21
-9
10
13
3
0
-1
-6
-18
-24
-31
-26
-9
6
-1
4
2
-8
-18
-13
-24
-20
-12
-7
-4
6
-2
-6
-8
-19
-24
-18
-9
10
5
6
-9
-9
-13
-18
-22
-7
-4
-4
7
11
-5
-13
-13
-16
-28
-24
-8
0
-3
4
-5
-7
-15
-15
-21
-10
-4
4
10
2
2
-5
-11
-31
-16
-7
-3
10
10
-1
-3
-6
-22
-20
-14
-10
-3
5
10
10
-2
-9
-12
-26
-27
-14
3
3
14
-6
-10
-3
-11
-22
-20
-19
-3
3
12
6
-9
-19
-21
-13
-14
-7
6
9
9
2
-1
-13
-24
-27
-24
-10
-7
-10
2
10
0
-9
-11
-24
-24
-18
-2
-3
1
-6
-6
-21
-20
-23
-24
-4
5
10
12
0
-5
-18
-19
-18
-18
-12
13
8
4
10
-8
-9
-22
-18
-7
-6
7
8
8
5
1
-17
-12
-19
-9
-8
1
10
18
-3
-16
-17
-15
-20
-9
-3
-2
5
4
-5
-13
-24
-18
-26
-27
-11
-4
-4
4
-6
-17
-25
-17
-28
-24
-6
1
-10
-4
-7
-14
-13
-41
-45
-29
-10
1
-7
-13
-17
-25
-29
-30
-26
-13
2
21
52
62
69
80
76
76
66
52
30
12
12
8
-30
-51
-84
-101
-83
-65
-44
-38
-41
-41
-39
-51
-51
-40
-30
-18
-15
-4
4
-8
-27
-30
-23
-28
-25
-6
-3
-12
6
-1
-19
-22
-32
-31
-23
-6
-5
1
15
-1
-12
-15
-22
-33
-24
-17
2
5
7
2
-16
-28
-14
-34
-14
-9
-3
4
7
-2
-17
-14
-10
-18
-7
-5
-3
-4
6
3
-4
-7
-22
-27
1
5
-3
-4
4
4
-7
-18
-8
-18
-17
5
14
8
14
7
1
-1
-8
-3
3
13
16
24
26
14
6
1
8
2
17
21
32
33
38
31
7
4
15
18
19
36
47
44
43
19
9
13
17
12
21
15
29
28
27
5
-5
-23
-7
-23
-15
-8
4
6
5
-13
-23
-26
-32
-39
-28
-17
-12
7
-3
-17
-27
-36
-41
-50
-34
-16
-13
-13
-19
-32
-37
-40
-52
-35
-22
-19
-16
-8
-16
-28
-33
-49
-50
-45
-35
-27
-23
-18
-23
-36
-31
-30
-43
-39
-23
-14
-20
-19
-21
-31
-44
-42
-55
-48
-26
-19
-22
-19
-31
-34
-42
-40
-45
-40
-23
-22
-22
-19
-28
-28
-37
-43
-50
-46
-26
-17
-12
-22
-23
-25
-30
-33
-41
-47
-28
-14
-23
-9
-8
-21
-41
-38
-54
-31
-38
-28
-24
-10
-18
-42
-47
-35
-46
-40
-21
-9
-15
-11
-19
-35
-42
-46
-40
-31
-15
-9
-21
-9
-23
-39
-44
-50
-48
-31
-17
-15
-9
-19
-36
-39
-47
-41
-44
-35
-26
-20
-20
-12
-30
-39
-36
-36
-43
-38
-27
-18
-14
-9
-18
-29
-41
-31
-26
-32
-38
-25
-24
-19
-24
-37
-33
-40
-39
-27
-22
-8
-11
-14
-23
-34
-32
-49
-36
-23
-8
-18
-8
-8
-17
-29
-31
-27
-19
-19
-14
4
8
-1
-9
-22
-24
-24
-13
-6
-9
-6
-1
-14
-8
-11
-14
-36
-22
-10
0
0
7
-12
-15
-31
-34
-29
-28
-16
-10
-8
-2
-9
-27
-45
-42
-38
-45
-16
-3
-13
-5
-18
-19
-29
-33
-40
-34
-19
-22
-20
-16
-28
-21
-33
-43
-45
-28
-27
-9
-22
-14
-25
-36
-40
-51
-61
-37
-8
6
15
34
37
42
46
55
55
65
61
35
0
-4
-4
-37
-61
-90
-102
-88
-74
-59
-49
-48
-44
-59
-56
-64
-59
-45
-35
-29
-29
-17
-28
-43
-43
-48
-44
-37
-30
-19
-25
-23
-29
-48
-47
-48
-41
-38
-32
-26
-22
-22
-27
-49
-51
-56
-55
-34
-28
-28
-17
-17
-25
-43
-41
-48
-53
-36
-23
-32
-21
-28
-42
-46
-43
-56
-46
-37
-29
-21
-21
-19
-33
-39
-40
-46
-45
-35
-21
-16
-11
-22
-27
-40
-34
-47
-38
-26
-14
-10
-19
-18
-24
-39
-30
-44
-25
-23
-15
-10
-2
-8
-29
-26
-20
-35
-17
-6
0
-6
2
-4
-10
-18
-13
-14
-13
-6
-4
-2
0
-6
-13
-17
-27
-36
-19
-6
-10
-17
-2
-7
-17
-40
-39
-40
-46
-38
-23
-17
-18
-31
-46
-54
-60
-62
-53
-47
-50
-40
-40
-45
-58
-65
-68
-69
-58
-54
-47
-43
-35
-60
-51
-59
-76
-64
-51
-43
-48
-43
-37
-48
-54
-64
-68
-58
-61
-61
-41
-30
-45
-49
-55
-65
-70
-75
-56
-46
-39
-36
-39
-54
-56
-66
-73
-66
-58
-45
-46
-47
-41
-44
-59
-63
-75
-69
-59
-46
-43
-38
-42
-48
-58
-57
-69
-61
-56
-52
-40
-37
-47
-57
-59
-67
-72
-70
-58
-41
-52
-43
-39
-66
-57
-62
-67
-54
-38
-34
-49
-43
-39
-45
-61
-61
-66
-57
-49
-44
-38
-28
-41
-47
-61
-58
-69
-59
-47
-37
-35
-38
-42
-46
-63
-69
-68
-55
-47
-39
-34
-35
-40
-47
-72
-60
-65
-57
-47
-42
-43
-35
-43
-48
-62
-63
-64
-58
-54
-48
-31
-28
-39
-57
-64
-69
-70
-52
-38
-35
-44
-39
-44
-56
-65
-71
-67
-63
-52
-39
-43
-38
-47
-63
-62
-69
-78
-59
-52
-38
-39
-44
-61
-61
-56
-67
-63
-43
-46
-52
-54
-35
-50
-57
-63
-70
-56
-54
-47
-43
-41
-36
-42
-60
-60
-70
-75
-62
-48
-49
-36
-38
-52
-64
-71
-66
-71
-58
-42
-42
-40
-43
-54
-57
-63
-62
-56
-52
-45
-44
-35
-44
-56
-65
-59
-60
-58
-53
-43
-42
-34
-41
-54
-71
-68
-72
-63
-51
-37
-29
-13
-12
-14
-5
6
12
29
35
45
35
16
4
-7
-34
-51
-76
-89
-83
-65
-58
-60
-69
-76
-79
-70
-71
-57
-46
-35
-39
-32
-30
-35
-37
-51
-39
-29
-26
-19
-19
-15
-24
-26
-27
-37
-38
-27
-20
-7
-3
-2
-5
-20
-33
-34
-32
-18
-16
-5
-9
-6
-5
-8
-23
-30
-17
-12
1
8
1
2
-9
-10
-17
-25
-18
-6
-2
8
11
6
-1
-8
-6
-13
-5
0
-1
12
16
7
4
-2
-7
-15
-9
-1
16
27
27
15
15
5
4
-3
8
14
18
24
36
30
17
11
15
7
20
36
37
37
38
49
43
28
22
21
32
40
57
43
53
53
47
29
30
22
30
34
44
46
61
46
32
11
11
17
14
21
27
25
43
26
9
-2
4
-5
2
8
19
11
13
8
1
-12
-7
-11
-2
11
13
12
22
10
1
1
-3
-9
-2
1
12
11
19
8
0
-15
-7
-16
0
1
15
8
12
7
13
-2
-9
-10
2
13
16
16
18
9
4
-4
-12
-2
3
9
26
24
15
3
2
1
0
-2
7
13
17
21
26
17
2
-4
-4
2
15
22
28
29
28
21
6
6
0
8
11
18
18
37
23
3
16
3
-3
3
19
25
25
33
29
18
12
3
-6
5
17
17
28
40
30
19
11
7
-7
6
22
23
27
20
23
26
19
-1
-4
4
6
26
20
35
26
21
14
9
0
10
7
29
38
39
31
20
11
8
-1
15
29
22
29
49
34
24
13
12
9
15
16
34
35
31
27
12
8
10
-9
-7
11
21
27
35
24
6
9
7
5
7
20
16
17
31
21
6
5
9
-5
13
19
32
34
32
24
13
14
-1
-5
5
10
24
25
35
35
35
39
53
60
72
100
114
119
115
77
46
43
27
12
5
-7
-13
-5
-3
-5
-16
-20
-18
-11
1
13
25
30
38
16
11
8
6
19
24
28
41
44
32
29
22
19
13
22
32
36
39
58
47
36
23
30
22
11
27
42
44
49
36
34
33
27
10
15
37
52
49
46
40
43
33
27
7
27
38
52
42
51
53
42
16
16
28
31
45
54
59
54
45
36
38
26
22
33
43
52
55
63
60
42
49
37
31
56
50
56
57
73
62
57
51
48
33
56
68
76
76
65
71
76
64
59
55
60
65
77
87
88
74
66
60
50
54
52
68
75
70
80
70
56
49
46
43
53
51
51
49
65
48
20
21
16
16
17
38
35
43
38
33
21
15
12
8
15
23
39
37
35
21
12
9
12
9
20
30
39
33
34
24
14
4
8
9
27
21
24
35
29
21
2
5
7
6
6
25
21
25
30
20
11
3
-6
6
12
22
31
32
30
22
11
12
-5
12
22
34
30
47
33
24
-5
-1
5
13
16
42
33
34
33
14
14
13
8
10
18
32
29
35
36
29
9
9
8
14
24
26
24
43
38
30
13
17
-11
9
26
37
30
33
23
20
10
8
3
19
17
28
26
36
28
19
14
4
4
14
31
32
33
30
36
19
19
3
3
23
27
33
38
40
34
23
6
7
7
27
20
23
36
31
25
25
23
9
10
10
24
37
45
49
36
34
14
18
14
28
23
42
44
36
38
28
30
15
17
31
34
42
49
56
34
24
18
21
15
31
36
32
41
38
35
15
3
21
22
27
33
31
41
31
23
10
14
9
14
23
34
35
44
27
20
21
18
10
18
23
23
46
43
41
29
10
14
11
16
34
34
35
31
29
34
25
18
26
38
55
82
105
122
124
124
117
101
89
61
47
48
33
34
6
-23
-39
-42
-35
-25
-1
7
17
31
20
15
14
15
10
21
32
36
49
46
40
41
26
21
26
26
39
47
52
58
56
33
22
17
31
43
44
43
52
63
45
39
30
30
21
26
47
49
48
56
46
45
35
22
25
37
46
55
56
62
54
42
32
24
27
47
51
54
55
57
48
40
36
38
40
50
55
64
59
62
54
48
40
26
29
33
52
66
76
64
54
51
48
50
44
57
68
75
78
79
70
61
54
54
58
75
75
76
89
83
67
64
63
47
63
81
82
81
93
82
71
54
61
55
60
61
65
62
78
65
56
37
35
28
25
32
43
56
60
38
36
23
17
14
23
25
34
34
44
33
12
16
10
7
8
28
28
28
34
32
19
9
10
4
17
25
32
17
33
43
27
7
7
11
23
25
25
28
38
33
12
12
7
8
26
17
18
34
33
27
24
6
-3
-2
13
26
25
31
39
29
11
-10
-2
13
24
26
34
3
5
14
19
29
34
35
26
23
11
6
6
3
17
22
26
30
24
17
12
6
-11
13
21
31
27
37
27
17
8
6
-2
-3
16
23
26
35
22
7
6
2
-2
9
17
25
23
25
41
25
7
2
-8
-5
14
26
28
31
23
14
4
-9
-11
10
12
28
30
39
20
12
3
4
-3
-7
17
26
31
43
22
13
13
9
3
9
14
23
22
27
21
19
-3
6
2
13
25
25
27
35
26
22
11
2
6
13
28
36
28
29
17
19
13
12
3
5
24
34
31
33
23
13
3
2
1
13
19
26
25
31
20
6
-7
-11
-3
2
5
15
10
21
8
5
-3
-10
-20
-9
8
11
7
20
15
5
-10
-11
-11
-6
2
9
13
18
-6
-14
-9
-13
-8
-2
10
26
46
54
52
61
66
74
85
103
96
79
47
28
4
-16
-39
-72
-72
-63
-44
-32
-30
-44
-46
-37
-42
-34
-21
-16
-1
12
15
10
2
-5
-7
-9
-10
-6
8
8
15
14
2
-3
-4
-19
-8
-9
10
21
28
19
-4
-9
4
-13
-2
-1
17
18
23
6
6
0
1
-3
7
12
14
15
19
15
16
5
2
-9
4
25
21
20
30
19
13
9
14
-6
17
26
28
29
42
36
16
-1
22
15
18
35
34
47
40
25
16
13
17
13
31
33
45
46
51
49
43
39
19
33
44
56
63
68
72
61
46
40
42
43
56
59
64
73
73
59
55
46
45
47
57
48
53
65
61
59
45
40
21
26
28
40
52
52
43
38
31
13
8
9
20
22
21
36
37
30
22
8
1
6
26
31
29
31
20
18
11
-9
4
13
19
28
28
29
26
13
6
0
-4
8
16
27
29
44
29
16
12
14
3
15
28
33
33
34
29
20
4
6
-1
7
25
34
32
36
35
26
9
8
5
12
16
24
33
30
33
29
10
12
9
25
26
36
34
41
38
35
8
11
10
18
19
27
37
40
27
15
13
9
13
17
9
31
30
33
28
21
13
19
10
24
32
35
31
36
30
15
12
12
9
15
32
33
33
35
27
21
6
4
8
17
21
31
39
33
13
20
29
11
11
20
25
40
44
34
18
4
12
4
6
15
27
27
28
37
32
16
8
5
18
19
22
29
36
28
30
17
13
14
15
22
25
26
45
39
30
18
12
19
24
26
31
31
48
43
40
20
11
11
9
29
38
45
33
34
25
17
9
4
12
18
26
34
41
31
21
15
9
-5
17
20
29
20
35
28
19
6
11
-2
12
26
26
29
33
32
24
10
5
2
8
15
22
26
25
17
15
5
16
20
38
59
68
106
114
103
90
77
55
32
34
33
27
6
-13
-34
-32
-41
-32
-36
-27
-22
-7
-2
7
15
5
-9
0
2
12
19
26
33
33
25
21
27
15
12
25
35
42
50
40
33
29
24
23
14
22
32
45
42
41
35
27
22
17
19
21
37
40
46
45
43
26
21
12
23
38
49
46
46
52
43
33
25
29
38
32
47
48
64
61
49
34
36
26
30
46
53
66
61
58
44
38
35
34
39
53
63
69
73
70
62
49
48
43
51
62
71
75
79
70
57
53
67
58
69
72
85
87
95
93
68
62
66
65
69
68
74
84
92
82
76
56
63
49
63
75
71
67
72
63
43
37
33
33
41
42
47
46
57
48
39
43
26
23
31
31
45
46
47
42
39
29
21
18
30
35
37
37
43
39
35
14
19
11
24
39
39
42
43
25
27
25
20
20
38
43
40
44
50
30
17
19
22
22
27
40
45
48
42
34
25
20
13
21
36
33
43
49
48
44
28
27
25
30
25
43
44
44
49
33
26
24
29
32
33
45
48
56
48
33
33
28
5
33
45
44
43
52
37
41
35
29
35
24
33
48
42
53
40
38
36
28
24
36
34
42
52
61
61
48
38
31
27
36
51
51
46
60
63
39
29
23
27
35
47
62
53
62
51
48
30
30
16
21
28
38
49
45
43
44
31
25
21
27
46
56
54
48
43
32
23
33
32
36
32
52
39
48
46
40
20
22
19
28
29
47
45
65
72
70
61
76
93
98
112
107
92
92
71
53
29
10
-11
-5
6
18
30
18
13
5
-4
-7
-2
15
27
37
43
37
35
32
28
24
25
40
47
53
53
54
48
42
30
28
32
41
50
56
61
55
45
41
38
38
38
40
50
58
58
52
48
41
33
37
41
47
55
56
65
63
52
40
42
35
39
38
58
54
67
57
52
48
37
35
39
49
61
65
67
64
56
43
38
47
55
59
70
77
79
70
58
51
52
51
45
71
74
87
95
90
75
69
59
52
65
72
77
89
102
81
69
69
90
83
74
78
86
95
102
97
85
71
70
53
75
77
84
90
90
81
73
56
52
54
47
57
66
68
68
54
47
43
32
27
41
44
38
53
60
56
43
34
18
27
36
48
56
51
49
41
43
30
31
23
35
42
51
48
58
49
35
31
27
35
34
42
51
65
60
41
39
38
23
36
41
47
54
60
60
46
40
32
23
34
45
50
61
64
52
49
41
28
21
33
42
53
62
74
57
48
34
32
28
25
38
58
53
61
59
39
33
33
26
38
46
50
47
66
51
50
38
39
29
34
43
52
51
68
62
40
34
39
33
43
46
56
51
60
53
48
36
41
32
38
42
50
53
64
51
44
31
39
28
35
55
63
75
78
46
46
48
45
37
51
50
62
65
71
62
50
41
38
38
48
59
61
54
62
51
43
34
32
32
38
45
51
49
64
55
46
32
29
28
41
38
45
57
61
48
37
24
33
33
45
47
53
56
47
42
36
21
19
21
42
53
62
90
102
102
101
107
109
107
101
86
88
92
88
63
30
6
-17
-2
7
11
18
23
17
21
15
18
0
11
33
50
52
62
54
41
31
36
34
44
50
60
60
62
58
47
35
34
36
52
48
57
64
58
66
56
38
43
34
44
53
62
61
69
63
52
45
39
42
45
41
60
71
76
70
55
37
38
44
50
60
69
69
78
61
64
49
51
45
54
51
66
76
87
79
63
50
42
47
64
59
83
80
82
79
74
66
54
54
65
76
93
108
93
89
86
75
71
63
79
92
102
109
102
93
84
86
67
70
79
85
90
101
106
98
91
77
88
76
92
83
79
91
88
72
62
55
59
53
62
72
79
78
73
52
53
41
44
41
57
59
58
63
51
46
47
35
20
33
38
51
45
70
58
57
39
51
31
40
51
56
62
64
50
53
40
25
36
41
32
55
60
59
60
51
40
47
33
43
63
68
61
63
54
48
43
39
26
38
53
60
66
65
63
46
46
48
36
46
53
47
57
75
64
53
44
47
41
41
52
64
70
75
67
57
48
30
39
53
59
60
69
67
67
62
47
40
40
52
61
61
74
72
61
57
41
38
46
51
68
59
62
72
64
57
52
45
42
59
60
73
72
77
71
58
42
40
48
51
64
68
68
70
69
70
51
46
45
46
65
75
73
70
55
46
38
42
35
32
46
59
62
58
50
42
48
37
41
47
52
54
56
59
48
42
45
32
38
44
48
52
65
52
41
26
28
23
41
58
75
91
110
121
122
126
126
117
114
95
80
80
88
60
26
2
-14
-23
0
3
15
26
35
21
17
16
20
24
28
38
48
52
64
56
46
33
41
30
34
43
60
61
66
57
49
45
41
29
50
50
60
66
71
62
51
46
42
37
50
54
67
62
69
62
61
45
41
47
56
59
68
63
75
69
53
41
55
55
55
63
73
62
60
70
56
49
50
50
59
71
80
79
80
84
62
59
55
54
64
77
80
89
85
84
68
67
66
62
76
95
88
95
97
86
78
72
70
69
78
96
104
109
107
101
95
94
75
84
93
92
99
106
98
90
84
87
70
74
81
86
90
99
86
75
54
57
51
56
64
68
74
77
63
59
47
46
30
45
51
64
58
61
61
56
44
39
32
49
47
56
57
65
56
55
37
50
38
42
49
61
52
56
56
55
38
37
34
37
45
63
62
71
62
59
51
43
40
42
56
57
63
65
60
41
33
46
43
50
55
68
60
71
65
51
44
40
38
52
54
61
72
63
51
57
49
45
43
55
59
71
59
69
63
44
47
47
42
44
61
60
69
66
59
49
49
40
43
45
57
60
59
59
65
46
33
34
38
50
64
68
66
66
48
52
49
39
42
44
47
63
64
68
49
56
41
35
38
49
60
60
66
72
62
56
50
38
45
48
57
72
78
72
56
49
54
41
47
51
65
66
68
60
57
47
39
36
45
47
55
70
64
60
54
39
34
30
36
45
46
57
49
60
57
41
41
36
46
49
58
58
65
57
44
45
45
33
43
48
50
45
56
47
43
33
29
28
55
69
93
106
129
123
125
113
104
80
84
89
88
72
65
32
10
7
9
9
22
18
25
31
45
37
42
29
35
38
41
48
57
65
71
54
44
40
38
37
44
51
59
62
65
49
46
45
43
43
52
60
70
74
75
65
57
41
44
50
47
55
68
76
81
68
52
51
46
55
65
62
66
75
71
63
52
54
46
53
61
71
74
74
72
63
63
61
50
58
65
70
79
87
78
72
64
62
60
73
76
83
90
99
93
88
75
66
66
76
82
89
98
97
98
94
83
80
78
86
86
99
107
106
102
98
88
79
79
89
89
94
98
106
100
95
75
76
71
71
80
90
91
88
77
64
61
58
50
51
63
70
64
70
64
59
45
51
39
46
47
64
70
67
66
47
44
42
49
51
55
53
58
66
60
50
39
42
38
45
55
67
61
63
56
47
38
41
39
44
53
63
63
65
58
46
46
46
37
41
50
64
61
59
51
42
35
35
38
47
59
62
57
63
58
44
36
37
43
43
57
60
68
65
58
49
47
42
36
49
59
61
58
47
58
49
36
30
31
53
59
70
72
63
50
49
48
34
47
53
64
62
68
59
49
39
43
37
47
52
53
56
75
63
58
43
40
40
45
55
65
71
71
55
55
48
49
40
43
54
59
79
82
55
50
41
43
34
35
47
54
52
55
61
47
39
39
35
40
44
55
60
63
48
52
33
30
26
35
50
55
58
60
55
45
36
29
26
34
39
53
58
57
51
45
49
49
65
87
109
134
139
136
123
89
71
72
57
43
38
25
20
27
20
5
3
1
3
17
33
40
50
53
44
32
33
30
33
48
55
56
62
58
50
50
44
42
36
41
55
57
67
61
52
42
42
32
34
54
60
61
68
71
66
54
41
37
36
51
62
68
76
63
51
47
42
28
38
47
55
65
67
72
61
46
39
39
43
61
69
74
79
67
64
58
54
50
57
67
82
77
84
84
74
54
46
48
70
73
82
89
97
95
83
64
61
65
81
86
94
101
112
98
84
78
87
81
86
101
99
101
108
109
99
85
80
87
91
92
99
99
107
87
73
58
64
60
63
67
71
76
84
68
58
45
42
39
43
58
60
60
61
60
45
34
33
32
43
44
46
51
61
49
40
42
35
29
40
44
56
60
56
31
25
29
33
32
44
46
52
57
62
51
42
44
27
28
45
36
44
55
52
35
34
28
23
31
39
47
58
66
59
50
32
24
36
45
37
42
59
68
79
59
45
43
28
37
37
50
50
62
54
53
38
40
23
33
50
58
55
61
61
42
30
27
24
45
48
44
56
66
53
55
38
37
26
40
41
59
59
67
55
45
26
28
24
32
40
52
46
61
54
43
43
45
39
23
27
49
54
54
44
39
29
27
47
45
41
50
53
62
51
48
33
19
24
28
43
52
45
53
51
42
34
28
40
44
45
57
58
52
52
39
38
28
23
33
50
62
66
68
57
41
39
37
36
39
52
59
69
64
53
46
36
32
39
53
53
56
58
55
39
34
34
32
29
41
51
56
59
51
42
30
18
16
26
36
44
52
60
47
44
32
22
9
24
32
46
35
51
52
42
28
28
21
25
34
40
40
41
30
22
13
16
5
14
43
62
91
111
112
110
120
128
121
121
97
83
70
75
52
22
-19
-40
-39
-23
-12
-4
-2
4
7
6
8
11
3
12
28
43
46
51
41
28
26
24
22
28
34
47
48
50
47
37
32
32
25
34
42
48
48
55
48
36
32
28
25
38
47
49
54
60
53
39
34
24
26
34
44
55
51
54
53
42
30
30
30
41
47
54
59
55
50
39
35
37
32
42
54
64
66
64
53
44
44
37
43
60
67
68
65
66
66
54
51
47
53
58
77
82
96
91
66
56
59
58
65
72
77
79
88
91
84
72
74
65
72
74
84
84
96
89
84
72
63
57
75
74
84
92
100
70
54
41
47
37
45
53
61
63
62
52
51
33
28
26
26
45
47
51
55
40
35
21
28
16
16
23
40
40
50
39
33
22
20
18
25
25
41
47
51
48
34
26
18
13
16
30
46
44
45
43
30
21
22
17
30
30
40
37
45
39
25
27
23
11
26
33
41
44
56
48
27
18
23
23
27
43
50
52
46
42
38
23
8
16
28
36
42
44
50
34
34
30
14
12
31
35
45
48
51
37
34
24
13
21
35
34
49
48
41
40
26
33
23
26
32
35
47
48
44
35
26
19
15
19
20
38
52
53
45
38
16
18
7
21
26
31
45
56
51
37
29
28
13
35
32
31
48
51
44
37
26
17
13
22
38
47
41
47
43
29
14
19
17
22
30
45
46
54
40
27
21
20
18
29
35
40
51
50
40
27
24
29
12
14
34
54
51
53
44
37
26
27
21
31
32
50
56
54
46
37
29
33
30
31
43
54
51
46
51
41
30
18
18
26
28
35
45
51
39
23
17
24
16
25
25
34
40
42
41
28
18
20
17
27
33
41
43
44
33
28
24
20
27
25
33
36
33
50
25
20
6
4
7
20
35
51
50
61
85
69
77
90
90
102
100
84
84
76
54
30
11
-11
-12
-4
-4
3
13
3
0
-14
-5
-6
3
13
22
32
37
30
36
22
21
11
19
25
34
39
46
47
32
25
22
10
22
29
45
38
58
50
28
36
18
14
24
30
37
46
56
44
35
28
26
19
19
32
45
48
51
41
36
27
24
16
25
34
48
53
61
54
36
37
33
18
32
37
49
52
55
52
41
30
29
32
38
49
55
55
60
50
45
44
43
33
44
57
60
63
70
70
56
49
49
47
60
70
74
83
79
71
60
57
59
50
60
67
74
76
69
67
62
58
55
48
54
70
62
70
69
60
44
34
26
30
42
46
49
52
43
38
30
26
12
18
30
33
35
42
36
25
18
11
7
12
20
26
35
42
36
24
15
6
-1
9
16
29
44
45
39
24
14
12
1
0
13
28
26
31
27
24
12
10
1
7
13
23
23
38
32
18
17
13
5
16
21
28
27
34
29
15
5
5
4
16
27
31
30
36
35
22
15
16
3
12
19
30
35
39
35
22
16
15
12
12
23
32
31
31
25
16
12
12
10
16
23
29
28
38
31
19
12
4
5
17
21
30
37
38
33
19
13
10
9
13
32
24
26
26
26
18
11
-1
-1
15
23
29
37
34
28
6
4
8
0
16
24
27
28
27
18
13
5
2
7
24
32
34
33
26
29
20
12
-2
7
20
33
33
34
39
27
15
15
5
14
23
34
36
35
33
23
17
10
-2
3
18
24
34
44
36
8
10
2
-10
0
11
25
25
33
26
16
14
2
-3
8
15
21
20
30
24
20
11
2
-5
7
17
26
27
24
20
16
0
-4
-15
-7
8
17
23
30
39
30
31
47
57
88
96
107
98
86
53
39
30
9
-11
-21
-22
-17
-16
-1
-11
-13
-15
-18
-15
-4
0
12
19
19
20
17
2
-3
-1
2
17
28
31
28
13
8
8
9
-1
11
22
23
22
33
21
9
-1
5
-2
11
18
29
34
29
24
14
8
4
8
12
13
22
34
27
20
6
11
6
9
16
25
29
38
33
24
18
8
10
6
6
20
28
34
33
15
13
18
6
17
16
25
35
42
41
31
18
13
15
25
33
41
41
52
52
40
32
14
18
32
33
42
53
58
53
41
31
38
32
35
41
45
47
55
61
54
38
40
35
35
44
53
50
53
48
36
21
20
12
22
24
26
31
38
26
12
4
17
10
11
14
23
27
31
23
11
-6
-1
-4
4
15
24
31
22
21
5
-5
-1
0
4
8
15
20
26
14
5
-3
-3
-8
4
7
13
16
17
5
-2
-3
-1
9
8
18
30
28
27
18
11
-4
-9
-9
8
19
18
31
26
9
-3
3
-1
2
5
18
14
14
20
10
10
9
-13
13
8
23
26
25
21
10
-1
3
1
2
6
25
31
33
19
12
5
5
-4
-3
11
18
21
34
22
13
13
-2
-13
3
12
16
26
31
21
6
-3
2
-8
-13
-3
10
10
21
10
12
1
-5
-10
-2
3
14
15
21
18
23
7
3
-3
-5
9
13
19
11
18
9
-1
-10
-12
-7
5
17
17
21
13
5
-2
-1
-3
7
8
17
23
25
9
7
2
1
1
9
8
21
15
19
10
1
-4
-1
-2
9
15
21
27
38
34
23
8
5
1
2
13
25
30
17
8
2
-3
-7
-1
2
4
11
25
25
7
6
-8
-16
-13
-10
-7
8
19
16
4
-3
-16
-18
-11
-7
9
10
20
11
7
-10
-6
-16
-7
-4
0
5
0
-3
-31
-28
-19
-21
-12
21
50
77
95
106
130
126
115
121
122
104
92
87
76
31
-1
-34
-57
-69
-52
-40
-13
-5
2
0
-17
-28
-24
-30
-4
2
11
3
23
14
0
-20
-8
-15
-15
-4
7
19
21
7
-2
-9
-5
-11
-2
0
29
12
14
11
2
2
-8
-8
6
3
21
13
26
19
5
-4
-6
-4
2
8
13
11
30
24
8
6
1
4
15
14
24
30
31
24
16
11
3
5
-2
26
47
39
40
29
23
12
7
21
28
23
32
41
48
41
28
34
22
36
38
51
65
61
67
53
43
30
35
45
56
66
70
75
80
71
66
57
45
53
57
63
70
85
85
82
68
53
42
49
50
58
64
73
65
54
37
35
18
27
31
36
35
41
34
16
12
8
-5
8
6
18
24
30
22
4
-3
-1
-17
-1
1
6
19
21
22
14
0
-1
-10
-5
3
14
24
36
16
7
4
-10
-8
12
12
28
16
21
17
0
-6
-7
-6
-1
9
22
16
22
19
11
7
5
-1
1
11
26
28
23
24
15
-2
-3
-9
-8
13
18
14
10
12
8
1
-5
2
7
11
26
32
28
22
9
11
15
3
3
9
25
17
23
18
22
1
1
-1
7
24
24
27
25
21
11
3
-4
-2
-1
14
18
24
23
14
2
0
-9
-3
5
13
20
23
23
14
4
-7
-4
-17
-7
6
29
25
20
13
7
4
1
9
6
13
14
22
21
6
-2
5
-6
8
15
25
23
39
35
20
10
9
-7
10
26
28
37
32
33
18
4
4
1
8
15
28
34
35
26
9
-4
-7
-17
-10
7
11
12
21
13
2
-3
-11
-14
-5
2
11
12
21
10
4
2
-10
-17
-6
0
10
13
17
-1
-13
-19
-20
-25
-19
-4
1
22
54
63
71
76
108
119
129
139
134
110
89
72
42
-7
-32
-64
-71
-55
-42
-34
-29
-35
-34
-44
-33
-29
-20
-5
4
11
15
9
-4
-11
-13
-13
0
3
8
21
18
6
3
-2
-12
-14
2
6
17
12
16
10
0
-7
-7
-5
-1
6
8
19
20
9
2
0
-9
-6
5
20
22
29
14
10
-2
-5
-3
3
6
12
24
35
26
16
10
-3
-7
5
8
21
22
29
30
19
8
7
9
4
19
32
30
45
39
27
23
16
16
14
29
41
55
57
57
43
31
33
26
37
48
55
61
68
61
57
42
37
26
37
53
53
64
62
58
49
43
39
33
46
49
59
56
56
40
30
27
12
15
17
19
24
24
40
26
16
3
-3
-5
-3
10
19
14
19
10
6
-1
-6
-16
-8
1
13
12
14
11
-7
-16
-7
-16
-8
1
10
10
17
14
-4
-8
-5
-21
-18
-6
-1
3
13
8
0
-12
-18
-16
-7
6
7
6
5
5
-2
-10
-12
-18
-11
5
-5
3
9
4
-6
-18
-11
-12
-3
1
3
10
9
1
-7
-12
-10
-17
-12
3
10
13
8
-3
-12
-18
-23
-17
-9
-1
5
10
5
-10
-21
-19
-27
-16
-13
0
4
7
2
-8
-18
-26
-31
-22
-11
1
5
11
2
-9
-20
-20
-28
-23
-13
-9
-4
8
-3
-12
-24
-24
-24
-17
-10
3
-5
-5
-3
-11
-20
-20
-25
-17
-8
-2
0
3
-4
-9
-17
-16
-23
-21
-10
-6
2
9
2
-8
-22
-24
-29
-28
-21
-14
-11
-3
-11
-18
-27
-30
-34
-31
-22
-12
-12
-2
-17
-26
-27
-33
-34
-28
-24
-15
-13
-9
-18
-20
-36
-41
-47
-34
-23
-20
-24
-14
-9
-20
-8
0
11
30
58
71
71
65
42
14
0
-16
-24
-29
-44
-56
-50
-52
-60
-69
-79
-77
-77
-63
-48
-37
-24
-30
-32
-40
-39
-47
-34
-27
-21
-16
-8
-3
-21
-35
-38
-40
-33
-19
-18
-19
-10
-3
-22
-31
-23
-37
-33
-28
-21
-8
3
-5
-23
-32
-31
-34
-34
-32
-19
-16
0
-2
-15
-24
-29
-36
-27
-18
-6
-5
-2
-9
-17
-23
-28
-35
-19
-4
-4
-8
11
3
-10
-13
-19
-32
-22
-8
3
6
11
-2
-8
-11
-7
-16
-6
-1
15
15
19
10
4
7
10
2
8
14
26
18
33
25
10
11
13
8
12
30
40
37
39
30
20
10
8
3
24
25
28
36
36
30
7
-3
-8
-7
-9
0
0
9
-4
-2
-14
-30
-32
-36
-31
-24
-5
0
-1
-21
-30
-35
-38
-39
-35
-22
-18
-8
-1
-15
-32
-36
-41
-35
-26
-23
-19
1
-14
-27
-29
-39
-47
-39
-31
-22
-12
-19
-18
-27
-36
-46
-47
-49
-24
-15
-14
-9
-14
-27
-26
-25
-30
-34
-19
-27
-15
-11
-12
-20
-26
-28
-28
-33
-19
-9
-25
-16
-17
-18
-33
-48
-44
-25
-21
-9
0
-7
-15
-24
-28
-32
-41
-31
-23
-10
-11
-17
-15
-14
-26
-32
-36
-37
-26
-17
-6
6
-11
-17
-32
-40
-42
-40
-22
-11
-17
-5
-12
-23
-32
-36
-40
-33
-29
-15
-12
-11
-21
-33
-35
-31
-39
-31
-20
-9
-6
-8
-15
-18
-32
-33
-35
-26
-12
-6
-11
-3
-15
-27
-31
-36
-28
-25
-19
-20
-14
-16
-20
-23
-35
-42
-34
-34
-29
-17
-21
-23
-27
-34
-40
-44
-49
-36
-31
-27
-14
-18
-33
-38
-46
-50
-47
-34
-35
-25
-17
-26
-27
-38
-47
-55
-50
-51
-37
-33
-35
-17
-9
-7
14
7
32
55
77
90
88
72
34
-4
-24
-44
-56
-59
-90
-88
-71
-74
-84
-90
-71
-83
-62
-57
-40
-42
-22
-33
-34
-45
-41
-52
-41
-30
-20
-18
-16
-23
-32
-45
-40
-50
-35
-26
-24
-14
-13
-20
-24
-36
-38
-39
-37
-16
-27
-25
-21
-24
-19
-28
-35
-39
-36
-26
-12
-5
-7
-20
-29
-32
-37
-40
-31
-18
-14
-16
-11
-11
-21
-26
-30
-35
-34
-18
-2
-5
-3
-14
-8
-17
-34
-19
-18
-8
0
7
4
-6
-8
-14
-16
-20
-4
-2
19
19
18
16
5
-1
-6
-10
6
21
25
33
29
23
8
8
9
11
20
32
39
40
26
16
10
9
16
11
17
21
22
25
31
24
10
2
-11
-7
-6
2
9
13
2
-15
-24
-22
-31
-39
-28
-19
-9
-5
-12
-33
-37
-38
-44
-42
-32
-34
-19
-10
-9
-27
-39
-41
-46
-44
-34
-25
-18
-9
-15
-32
-36
-44
-40
-39
-27
-16
-24
-14
-21
-27
-38
-40
-47
-44
-38
-23
-17
-16
-19
-32
-37
-48
-52
-37
-27
-16
-14
-13
-19
-25
-32
-39
-56
-45
-35
-27
-26
-21
-21
-30
-41
-46
-48
-39
-29
-24
-22
-13
-28
-33
-48
-41
-45
-36
-36
-24
-23
-15
-28
-38
-37
-39
-43
-41
-38
-23
-22
-18
-27
-42
-45
-49
-47
-42
-36
-27
-27
-26
-33
-39
-46
-50
-57
-46
-35
-27
-19
-21
-30
-41
-49
-51
-49
-41
-30
-21
-19
-24
-33
-39
-44
-52
-45
-38
-26
-22
-16
-24
-30
-39
-35
-45
-37
-26
-20
-20
-5
-17
-21
-26
-38
-46
-35
-32
-14
-27
-17
-22
-32
-45
-39
-53
-47
-37
-27
-17
-14
-31
-31
-42
-47
-55
-53
-44
-27
-23
-19
-31
-33
-44
-48
-53
-45
-41
-28
-28
-22
-27
-29
-43
-50
-54
-51
-41
-34
-26
-19
-30
-44
-52
-50
-55
-48
-28
-13
-2
19
31
37
38
54
52
48
43
23
4
11
-16
-42
-72
-96
-99
-106
-93
-73
-68
-57
-64
-66
-65
-55
-57
-51
-41
-35
-30
-25
-30
-33
-44
-51
-42
-36
-31
-15
-14
-24
-29
-31
-40
-47
-47
-38
-32
-15
-15
-17
-25
-37
-43
-42
-36
-31
-30
-22
-23
-14
-15
-30
-36
-44
-42
-35
-27
-19
-14
-7
-18
-30
-36
-36
-40
-29
-20
-17
-10
-9
-26
-31
-34
-35
-33
-24
-17
-9
-6
-4
-14
-26
-24
-36
-34
-18
2
-5
6
2
-11
-18
-25
-30
-25
-3
2
8
15
3
-2
-10
-8
-15
-10
3
19
30
30
7
11
-1
-9
-16
-3
7
17
15
21
15
14
-8
-12
-21
-15
-6
2
11
11
4
-7
-21
-23
-35
-32
-20
-11
-11
-7
-15
-26
-38
-43
-51
-47
-33
-22
-28
-28
-34
-38
-46
-46
-49
-46
-34
-28
-31
-19
-33
-40
-48
-58
-59
-45
-44
-34
-24
-24
-40
-46
-51
-47
-52
-47
-38
-30
-31
-30
-30
-35
-51
-53
-55
-49
-35
-30
-29
-28
-31
-41
-51
-54
-53
-45
-38
-32
-26
-27
-34
-40
-48
-50
-51
-42
-41
-28
-23
-25
-33
-44
-50
-61
-59
-44
-36
-30
-25
-27
-36
-46
-51
-61
-56
-44
-41
-35
-29
-34
-34
-47
-59
-63
-67
-44
-32
-27
-20
-31
-33
-45
-46
-61
-58
-50
-47
-39
-26
-28
-39
-56
-39
-64
-44
-45
-30
-41
-25
-37
-36
-42
-49
-54
-41
-30
-35
-25
-24
-21
-37
-44
-43
-46
-46
-39
-35
-33
-36
-47
-39
-57
-42
-63
-54
-47
-40
-45
-31
-34
-53
-60
-61
-61
-55
-47
-45
-42
-34
-34
-54
-64
-65
-70
-59
-49
-42
-41
-36
-42
-54
-61
-64
-70
-62
-46
-39
-35
-27
-26
-34
-23
-9
3
15
32
42
37
17
-11
-26
-42
-55
-76
-88
-94
-92
-90
-84
-88
-96
-103
-103
-91
-74
-58
-51
-45
-40
-49
-60
-66
-63
-59
-56
-49
-46
-40
-35
-43
-48
-54
-56
-56
-47
-40
-40
-32
-38
-47
-52
-59
-64
-59
-48
-49
-33
-32
-33
-40
-49
-55
-57
-54
-46
-35
-31
-27
-34
-40
-44
-52
-59
-53
-44
-39
-36
-18
-27
-40
-32
-45
-49
-39
-38
-29
-25
-11
-16
-43
-50
-44
-42
-43
-33
-18
-25
-15
-18
-21
-35
-42
-56
-36
-22
-11
-21
-1
-2
-13
-26
-21
-35
-20
-23
-1
-4
18
6
1
-13
-15
-21
-12
-1
19
0
18
4
-7
-19
-6
-13
-19
-11
-1
-1
11
0
-14
-25
-26
-48
-44
-29
-21
-17
-13
-34
-38
-36
-46
-62
-49
-31
-37
-29
-28
-33
-39
-48
-54
-69
-49
-41
-34
-32
-28
-40
-58
-55
-62
-70
-54
-44
-39
-33
-33
-44
-49
-62
-61
-60
-49
-45
-39
-28
-30
-39
-53
-56
-58
-60
-49
-41
-33
-30
-35
-42
-47
-53
-60
-60
-43
-37
-31
-28
-32
-42
-48
-55
-64
-57
-45
-35
-31
-30
-38
-40
-50
-54
-58
-56
-50
-39
-35
-25
-36
-43
-54
-54
-56
-49
-40
-29
-24
-24
-33
-44
-50
-49
-56
-51
-42
-27
-29
-20
-27
-47
-54
-57
-58
-49
-37
-28
-22
-20
-25
-30
-50
-49
-56
-47
-29
-20
-23
-18
-28
-39
-48
-48
-54
-41
-38
-25
-25
-24
-38
-49
-57
-62
-63
-46
-39
-26
-23
-36
-45
-51
-65
-57
-60
-63
-55
-35
-37
-43
-49
-55
-60
-63
-68
-47
-41
-35
-36
-33
-42
-55
-58
-66
-71
-43
-30
-2
15
19
24
37
45
39
30
14
-3
-18
-8
-24
-57
-88
-114
-111
-105
-80
-77
-73
-66
-70
-79
-78
-77
-79
-73
-49
-51
-46
-30
-37
-48
-64
-58
-62
-64
-51
-39
-34
-23
-29
-41
-40
-53
-56
-51
-42
-24
-15
-15
-18
-31
-72
-64
-66
-66
-46
-17
-21
-14
-19
-34
-40
-41
-54
-40
-29
-36
-28
-14
-27
-25
-35
-42
-53
-49
-32
-14
-18
-7
-15
-27
-32
-35
-39
-35
-23
-18
-14
-8
-15
-20
-31
-21
-33
-31
-18
-6
-6
-4
-10
-14
-21
-23
-24
-9
1
10
9
19
13
5
-1
-5
-8
-3
6
17
18
21
12
2
0
-3
-6
7
15
21
27
23
13
6
0
-10
-14
-7
-2
-5
-2
-5
-17
-30
-49
-44
-40
-36
-30
-21
-22
-20
-28
-34
-45
-42
-57
-44
-42
-40
-27
-38
-38
-45
-51
-61
-63
-62
-44
-37
-27
-25
-44
-53
-51
-59
-55
-45
-39
-44
-31
-26
-45
-58
-50
-68
-51
-48
-38
-36
-28
-37
-38
-50
-53
-67
-58
-59
-43
-35
-24
-38
-48
-59
-49
-58
-50
-36
-32
-21
-16
-23
-36
-47
-50
-61
-51
-41
-25
-24
-17
-23
-32
-42
-46
-57
-50
-41
-30
-29
-21
-27
-41
-49
-54
-59
-50
-41
-30
-34
-24
-34
-44
-51
-50
-58
-52
-42
-31
-29
-28
-31
-38
-46
-51
-54
-51
-41
-32
-31
-24
-27
-32
-45
-42
-49
-40
-33
-25
-23
-20
-34
-41
-47
-45
-51
-39
-32
-27
-23
-21
-27
-34
-44
-48
-51
-45
-33
-26
-29
-26
-41
-50
-55
-55
-62
-47
-36
-31
-24
-27
-35
-46
-50
-57
-62
-53
-46
-41
-29
-31
-38
-49
-54
-60
-62
-53
-46
-40
-37
-38
-52
-59
-67
-66
-62
-42
-20
-6
15
26
41
50
57
47
33
14
3
10
-2
-24
-60
-91
-110
-116
-111
-96
-85
-75
-68
-77
-82
-85
-78
-76
-72
-56
-42
-36
-32
-38
-42
-52
-53
-59
-52
-42
-34
-31
-22
-29
-35
-46
-49
-56
-43
-34
-27
-27
-20
-28
-31
-41
-44
-48
-43
-36
-25
-24
-18
-27
-35
-44
-42
-49
-44
-33
-25
-24
-15
-20
-30
-38
-40
-48
-37
-25
-17
-14
-11
-16
-23
-34
-33
-39
-28
-21
-12
-10
-9
-20
-25
-32
-32
-36
-23
-15
-1
-5
-2
-3
-14
-18
-17
-21
-11
4
10
11
12
4
-7
-10
-6
-2
2
7
15
18
19
15
3
-9
-14
-14
-1
8
16
21
11
12
-2
-10
-10
-17
-7
-1
-6
6
4
-12
-27
-37
-45
-38
-32
-19
-19
-16
-24
-31
-46
-45
-51
-52
-39
-36
-29
-21
-26
-33
-46
-53
-66
-56
-48
-38
-34
-24
-36
-47
-54
-62
-62
-52
-44
-38
-39
-30
-38
-42
-48
-55
-55
-53
-40
-33
-29
-19
-36
-43
-50
-51
-62
-55
-44
-31
-25
-22
-30
-34
-47
-45
-58
-55
-43
-30
-27
-22
-39
-43
-49
-41
-56
-56
-48
-29
-27
-18
-29
-37
-54
-44
-60
-53
-41
-29
-26
-21
-30
-36
-46
-52
-49
-41
-33
-30
-30
-25
-35
-43
-48
-48
-56
-46
-31
-27
-28
-29
-25
-46
-45
-47
-51
-42
-36
-32
-23
-24
-29
-42
-50
-46
-42
-41
-32
-29
-33
-29
-30
-32
-41
-42
-43
-37
-28
-20
-17
-17
-38
-40
-39
-44
-41
-32
-25
-24
-19
-23
-30
-38
-47
-51
-46
-40
-26
-34
-23
-30
-44
-53
-52
-53
-48
-42
-33
-33
-26
-30
-45
-46
-50
-55
-48
-34
-37
-31
-20
-34
-32
-44
-46
-51
-50
-45
-34
-33
-23
-30
-43
-59
-55
-62
-62
-55
-34
-38
-29
-28
-19
-16
-8
-8
12
37
48
53
55
28
9
-13
-18
-43
-57
-72
-77
-61
-51
-74
-81
-82
-79
-79
-63
-53
-41
-31
-27
-35
-50
-46
-54
-56
-43
-38
-21
-23
-18
-24
-34
-42
-48
-49
-36
-31
-17
-9
-11
-18
-30
-48
-43
-43
-40
-29
-19
-20
-15
-15
-32
-45
-43
-48
-38
-29
-16
-13
-5
-11
-24
-42
-40
-43
-36
-25
-11
-13
-12
-22
-23
-31
-42
-35
-32
-28
-24
-6
-2
-11
-23
-27
-31
-29
-17
-11
-3
-5
-5
-11
-21
-22
-23
-21
-16
-3
6
7
9
-5
-6
-12
-16
-9
3
3
6
16
11
10
4
1
-17
-5
5
14
18
18
20
8
1
-6
-17
-6
-2
9
12
14
20
2
-12
-19
-32
-24
-19
-7
-8
-1
-11
-21
-31
-18
-34
-33
-37
-19
-24
-12
-19
-21
-34
-34
-43
-43
-24
-15
-12
-12
-29
-22
-32
-46
-46
-45
-22
-20
-19
-10
-19
-30
-41
-34
-32
-35
-30
-16
-19
-13
-10
-28
-38
-40
-43
-33
-30
-19
-15
4
-9
-17
-30
-34
-37
-30
-23
-20
-17
-14
-14
-26
-30
-25
-34
-23
-14
-20
-13
-2
-18
-20
-21
-32
-22
-27
-15
-7
-2
-2
-13
-14
-26
-25
-29
-22
-9
0
6
-2
-9
-18
-20
-27
-36
-19
-11
-9
-4
-3
-7
-14
-20
-24
-23
-14
-11
-2
4
3
-7
-15
-18
-26
-22
-12
-7
0
2
4
-16
-24
-29
-41
-30
-16
-16
-16
-15
-11
-21
-25
-31
-37
-32
-19
-13
-10
-2
-7
-21
-31
-31
-42
-28
-25
-18
-15
-8
-14
-24
-35
-37
-45
-39
-30
-23
-22
-8
-13
-13
-4
2
9
29
47
64
56
51
25
11
-1
-14
-34
-49
-55
-50
-48
-39
-48
-54
-63
-66
-73
-62
-48
-38
-29
-17
-21
-30
-41
-44
-51
-36
-25
-14
-11
-9
-14
-21
-32
-33
-40
-35
-23
-8
-4
-1
-9
-24
-27
-30
-35
-25
-20
-11
-7
-3
-11
-22
-30
-33
-38
-27
-17
-11
-3
-3
-13
-22
-24
-34
-35
-26
-16
-11
-10
-10
-17
-19
-29
-37
-34
-23
-13
-3
0
-2
-11
-24
-25
-28
-25
-18
-10
-2
7
8
-5
-11
-13
-20
-16
-9
1
16
19
14
3
-3
-5
-13
-9
3
10
18
20
10
7
3
3
-12
-2
10
19
23
27
20
11
1
-2
-12
-4
-2
11
15
10
1
-14
-19
-24
-36
-33
-27
-18
-18
-16
-11
-23
-33
-38
-43
-40
-33
-26
-26
-16
-20
-34
-41
-48
-49
-42
-34
-28
-23
-17
-24
-33
-48
-48
-52
-41
-32
-21
-19
-14
-27
-30
-50
-48
-54
-43
-32
-28
-26
-16
-26
-33
-40
-42
-46
-39
-33
-25
-25
-15
-25
-33
-39
-40
-48
-35
-28
-20
-21
-17
-26
-27
-36
-43
-44
-36
-25
-17
-16
-13
-27
-31
-38
-34
-40
-33
-26
-14
-11
-10
-23
-33
-34
-43
-43
-32
-23
-19
-17
-12
-22
-34
-36
-40
-39
-29
-14
-14
-13
-14
-22
-33
-34
-39
-38
-33
-21
-12
-8
-12
-19
-28
-38
-40
-31
-19
-13
-7
-4
-12
-21
-27
-28
-40
-36
-22
-15
-11
-4
-13
-21
-34
-35
-36
-30
-27
-23
-22
-17
-29
-35
-42
-47
-52
-38
-31
-17
-23
-16
-25
-30
-32
-43
-51
-40
-29
-22
-22
-11
-16
-32
-44
-42
-50
-39
-33
-18
-30
-25
-26
-19
-12
2
11
36
53
73
77
69
43
10
-11
-18
-36
-48
-62
-69
-67
-63
-68
-71
-75
-74
-74
-63
-44
-30
-29
-25
-27
-31
-42
-44
-47
-36
-30
-23
-15
-14
-20
-31
-42
-39
-48
-32
-24
-14
-12
-8
-19
-32
-40
-39
-39
-39
-30
-19
-12
-10
-14
-24
-38
-43
-33
-28
-21
-13
-10
-10
-21
-27
-35
-36
-38
-26
-16
-9
-3
-8
-10
-22
-33
-37
-26
-20
-10
-7
0
-6
-12
-18
-18
-31
-25
-18
-7
5
12
5
-1
-20
-18
-22
-12
-4
9
13
19
10
11
-1
-1
-3
4
12
20
22
29
24
10
4
8
-4
6
15
18
21
29
30
17
4
5
-2
-2
12
20
13
15
17
1
-13
-15
-20
-15
-9
-1
-1
5
-4
-19
-34
-36
-44
-34
-28
-21
-15
-12
-21
-25
-39
-40
-50
-49
-35
-24
-23
-21
-20
-32
-43
-44
-50
-38
-27
-24
-22
-20
-27
-36
-42
-48
-51
-37
-32
-28
-23
-17
-24
-29
-39
-46
-47
-39
-29
-23
-20
-18
-27
-34
-44
-52
-47
-36
-30
-23
-20
-22
-32
-41
-45
-47
-44
-36
-30
-25
-20
-18
-28
-36
-46
-49
-43
-34
-26
-24
-17
-18
-33
-42
-43
-52
-46
-37
-28
-21
-15
-20
-30
-35
-44
-59
-46
-31
-24
-26
-21
-24
-37
-39
-42
-55
-45
-36
-25
-27
-22
-29
-31
-42
-45
-57
-45
-31
-22
-25
-23
-24
-25
-42
-47
-50
-40
-42
-31
-27
-19
-26
-34
-41
-43
-55
-47
-33
-23
-24
-12
-13
-22
-36
-39
-53
-50
-30
-20
-19
-10
-15
-26
-32
-34
-42
-32
-28
-23
-22
-17
-27
-37
-42
-45
-51
-45
-34
-26
-28
-24
-29
-36
-53
-56
-59
-48
-37
-28
-31
-29
-32
-46
-53
-59
-60
-54
-35
-26
-34
-33
-32
-36
-49
-62
-59
-51
-44
-36
-36
-40
-46
-56
-62
-64
-53
-33
-11
12
39
43
59
59
57
32
26
-10
-2
-4
-22
-39
-77
-97
-98
-111
-102
-85
-68
-61
-47
-53
-62
-63
-63
-65
-70
-56
-45
-33
-20
-29
-37
-43
-55
-58
-44
-48
-38
-40
-27
-19
-32
-42
-44
-51
-47
-35
-30
-22
-13
-28
-34
-40
-47
-49
-39
-33
-28
-27
-21
-30
-34
-40
-43
-53
-41
-33
-21
-18
-14
-21
-31
-38
-34
-43
-38
-32
-17
-12
-10
-16
-21
-37
-32
-40
-34
-22
-10
-1
-2
-11
-18
-29
-35
-34
-27
-13
-6
-2
9
10
-9
-18
-15
-15
-7
-1
5
10
19
17
4
-8
-6
0
7
7
20
24
28
15
14
4
-6
-2
3
19
20
22
24
13
2
-1
-4
-13
-9
-4
-2
-3
12
-11
-29
-31
-43
-32
-33
-24
-19
-17
-5
-29
-37
-38
-53
-49
-45
-34
-32
-27
-25
-34
-50
-50
-62
-57
-42
-50
-32
-24
-32
-41
-39
-55
-64
-54
-50
-29
-24
-18
-33
-40
-47
-48
-52
-47
-39
-40
-41
-28
-25
-30
-44
-53
-53
-43
-36
-37
-29
-22
-33
-35
-45
-52
-59
-50
-41
-29
-32
-24
-32
-34
-43
-52
-60
-51
-49
-35
-32
-30
-27
-34
-48
-56
-55
-41
-38
-34
-36
-27
-31
-41
-48
-55
-64
-50
-42
-37
-39
-28
-25
-50
-52
-52
-61
-56
-43
-39
-38
-31
-42
-46
-51
-53
-65
-59
-36
-29
-32
-44
-44
-49
-51
-67
-57
-52
-38
-26
-35
-38
-33
-39
-57
-60
