-23
-24
-25
-21
-25
-28
-24
-27
-33
-29
-26
-28
-26
-26
-29
-34
-36
-37
-30
-16
-28
-22
-30
-33
-41
-33
-24
-28
-32
-31
-37
-28
-33
-22
-25
-24
-25
-28
-27
-24
-24
-27
-30
-27
-23
-25
-21
-27
-33
-31
-31
-27
-22
-23
-26
-26
-27
-28
-25
-27
-31
-26
-25
-26
-21
-16
-27
-23
-20
-24
-31
-34
-31
-26
-21
-23
-14
-23
-30
-29
-23
-21
-37
-28
-29
-24
-25
-25
-25
-27
-21
-27
-25
-28
-23
-15
-19
-21
-27
-31
-34
-35
-26
-34
-33
-23
-21
-25
-22
-28
-27
-27
-32
-33
-33
-29
-23
-17
-22
-25
-31
-23
-22
-22
-20
-13
-15
-12
-30
-38
-35
-31
-19
-21
-19
-22
-25
-30
-23
-12
-21
-21
-27
-29
-29
-25
-33
-24
-15
-20
-25
-22
-27
-31
-11
-9
-17
-19
-21
-14
-9
-12
-13
-4
0
-1
-7
-9
-13
-3
-6
0
7
6
4
-5
-16
-11
-6
-11
-6
-4
-15
-11
-12
-14
-20
-31
-26
-24
-25
-13
-24
-22
-21
-22
-25
-21
-22
-23
-24
-25
-25
-31
-30
-23
-30
-35
-24
-26
-29
-31
-24
-28
-30
-30
-33
-26
-25
-32
-34
-41
-42
-43
-32
-28
-14
-11
-1
14
39
69
91
114
156
183
199
222
205
169
127
82
4
-32
-25
-44
-50
-49
-41
-36
-25
-25
-28
-24
-28
-23
-17
-15
-34
-34
-26
-21
-27
-28
-22
-22
-30
-34
-26
-15
-20
-19
-15
-10
-14
-20
-28
-25
-26
-30
-34
-21
-22
-16
-17
-21
-25
-33
-36
-26
-22
-14
-16
-11
-16
-21
-20
-24
-27
-25
-17
-13
-15
-19
-11
-16
-19
-11
-18
-24
-23
-20
-13
-14
-13
-25
-14
-11
-13
-14
-10
-13
-7
-1
-10
-18
-13
-11
-11
6
1
11
0
-3
-3
2
1
-6
1
3
4
13
11
15
16
24
22
17
13
21
25
19
31
34
32
32
39
37
37
36
38
45
33
38
47
41
40
36
36
35
38
33
38
31
31
21
18
17
25
21
20
22
1
-6
-3
4
0
-15
-10
-7
-4
-7
-12
-10
-11
-19
-21
-15
-8
-15
-23
-21
-25
-18
-27
-18
-9
-14
-19
-17
-20
-20
-21
-22
-27
-26
-21
-10
-17
-19
-24
-31
-25
-15
-27
-22
-20
-17
-17
-22
-16
-19
-20
-41
-29
-22
-19
-27
-25
-26
-22
-22
-25
-20
-19
-19
-24
-25
-29
-25
-26
-37
-27
-29
-25
-23
-8
-18
-19
-23
-16
-17
-14
-17
-20
-24
-23
-22
-22
-18
-19
-25
-30
-15
-15
-14
-41
-32
-24
-12
-13
-20
-15
-14
-19
-20
-20
-18
-20
-18
-19
-26
-22
-15
-21
-25
-25
-19
-14
-11
-23
-32
-24
-11
-24
-23
-21
-22
-28
-28
-19
-18
-20
-21
-15
-20
-23
-29
-27
-23
-16
-18
-25
-24
-15
-10
-19
-22
-27
-22
-20
-14
-11
-23
-27
-25
-32
-30
-32
-26
-25
-22
-16
-17
-20
-22
-22
-23
-21
-21
-22
-22
-17
-20
-23
-27
-33
-33
-24
-22
-13
-12
-18
-23
-27
-25
-18
-13
-13
-12
-20
-26
-19
-13
-16
-15
-11
-11
-8
-3
-2
-2
-6
-10
-3
5
4
9
17
17
-4
-5
6
10
6
1
-10
-19
-18
-11
-5
-7
-17
-12
-18
-22
-28
-16
-21
-20
-19
-17
-21
-24
-25
-31
-28
-25
-8
-9
-25
-18
-14
-24
-25
-21
-26
-27
-24
-25
-22
-26
-20
-26
-21
-16
-11
-29
-39
-38
-34
-24
-17
-12
-3
13
41
64
88
114
140
180
206
227
232
208
162
115
45
-10
-23
-33
-42
-38
-41
-32
-21
-21
-21
-16
-17
-15
-15
-18
-20
-19
-25
-24
-21
-9
-20
-25
-25
-18
-21
-18
-21
-7
-16
-26
-21
-28
-28
-9
-14
-16
-16
-19
-21
-27
-34
-16
-3
-1
-10
-14
-14
-15
-11
-13
-17
-19
-21
-24
-19
-8
-11
-10
-18
-18
-18
-17
-20
-12
-5
-8
-9
-10
-10
-11
-11
-8
-12
-16
-18
-23
-18
-4
-1
14
4
-8
-9
0
-1
4
3
8
10
6
4
11
11
10
13
15
17
14
15
15
18
17
20
22
25
33
35
37
38
33
39
43
42
42
42
43
42
39
42
49
49
37
40
47
47
45
46
59
45
30
38
32
29
26
25
26
20
16
14
17
12
13
3
2
11
11
-5
-1
0
1
-2
-2
-2
-5
-7
-16
-7
-2
-9
-7
-5
-8
-11
-12
-18
-23
-23
-17
-14
-8
-1
-3
-8
-9
-32
-30
-20
-2
-3
-2
-4
-8
-15
-17
-11
-6
-13
-20
-18
-11
-6
-11
-12
-12
-17
-18
-21
-21
-16
-16
-17
-17
-23
-6
-11
-18
-17
-12
-11
-14
-17
-20
-17
-21
-16
-16
-9
-8
-9
-7
-10
-10
-18
-20
-24
-17
-8
-3
-5
-12
-9
-12
-10
-16
-15
-12
-8
-8
-7
-12
-5
-2
0
-5
-16
-19
-10
-9
-11
-7
-14
-9
-18
-17
-14
-16
-17
-11
-18
-10
-13
-21
-21
-7
-4
-9
-10
-10
-14
-8
-18
-18
-6
-5
-6
-22
-9
-9
-23
-19
-8
-10
-7
-4
-15
-11
-9
-12
-10
-10
-9
-11
-17
-13
-17
-11
-6
-12
-8
-7
-7
-11
-8
-15
-23
-21
-18
-9
-2
-3
-6
-7
-7
-14
-11
-8
-7
-9
-11
-9
-9
-17
-4
-1
-16
-11
-12
-6
-4
-6
-7
-7
-2
-5
-11
-12
-6
-5
-8
-4
1
-9
-13
-2
-2
-7
-9
-6
-3
13
8
3
2
9
13
13
24
13
8
7
17
13
21
25
15
15
15
12
18
18
17
19
15
0
-9
-16
-13
-3
3
-5
-7
-15
-10
-6
-11
-11
-9
-10
-6
-3
-11
-14
-13
-8
-8
-10
-13
-15
-9
-15
-11
-19
-18
-7
-3
-5
-9
-7
-5
-7
-18
-19
-21
-30
-23
-19
-9
0
15
37
56
94
116
150
170
193
211
237
233
198
144
98
29
-12
-21
-31
-40
-40
-27
-17
-7
-7
-16
-10
-10
-7
-3
-5
-4
-7
-6
-5
-7
-20
-9
-10
2
-3
-3
-3
-3
-2
7
7
-1
-10
-13
-11
-6
-5
-12
-12
-8
4
5
2
0
0
7
1
-13
-10
-8
-12
-5
-5
-2
-2
-2
-2
-4
-3
-3
-10
-15
-4
3
10
8
7
5
1
0
2
1
-2
5
8
6
10
11
11
9
9
11
18
17
18
15
12
16
21
24
17
31
25
30
31
34
27
29
26
29
34
35
37
31
39
46
44
51
46
42
47
54
54
58
57
56
57
57
58
57
61
66
61
60
62
64
64
59
61
59
48
53
49
43
41
41
27
31
28
27
23
42
31
28
23
16
6
8
7
8
12
11
12
14
17
12
-4
-8
5
6
0
13
6
4
7
0
0
4
7
8
7
9
8
5
2
1
-11
-4
2
1
2
4
7
0
4
4
7
6
0
-4
-8
14
4
-6
4
-1
-14
7
17
6
2
4
2
6
7
2
7
9
5
5
8
2
-4
-4
6
10
0
-6
3
13
15
8
2
2
0
6
14
12
18
-6
-15
-1
5
15
14
10
10
13
12
10
5
13
8
16
12
9
3
-2
13
6
5
5
6
9
9
6
2
4
5
7
4
11
8
3
4
6
9
10
11
8
3
0
-1
-4
8
4
17
14
7
11
5
-2
-6
7
4
-1
11
9
9
10
15
16
7
-2
9
6
3
3
6
6
14
14
5
9
7
6
1
5
7
5
8
8
5
14
11
2
0
3
2
3
9
4
17
22
16
10
10
11
3
2
2
3
4
14
11
10
16
17
14
5
5
2
19
25
17
9
12
13
16
21
19
17
21
27
37
20
22
19
21
34
28
33
32
39
33
29
25
38
40
32
22
26
28
22
23
20
18
12
8
10
16
18
21
14
15
8
9
-1
4
18
16
19
17
13
11
9
13
8
8
7
10
5
3
12
13
15
17
12
2
9
11
-2
2
0
-4
1
8
29
27
40
45
45
78
107
133
158
185
207
221
214
195
164
123
87
19
-11
-6
-16
-20
-21
-12
-11
-4
1
9
15
13
17
18
11
17
15
22
18
16
17
16
12
10
19
23
13
17
19
9
20
19
22
14
18
22
22
22
18
14
14
17
19
20
14
27
16
12
13
19
24
17
10
18
27
29
24
24
25
22
19
22
17
24
25
31
29
29
17
25
27
33
25
31
37
35
30
28
31
30
33
33
33
37
37
36
39
41
42
41
41
37
44
46
47
47
51
53
43
45
54
59
66
71
67
70
71
60
67
69
77
73
72
69
73
88
75
77
81
90
86
79
79
80
80
73
69
76
75
73
77
68
63
62
56
57
55
56
52
50
47
39
31
26
25
30
36
30
28
29
29
26
31
28
29
19
22
19
14
21
23
19
15
17
21
21
18
16
22
29
18
4
10
22
35
25
14
14
13
17
18
12
20
22
17
19
19
21
18
16
11
2
20
29
17
22
21
17
16
8
10
22
23
14
13
18
19
14
10
16
19
25
20
18
22
24
17
18
20
13
4
17
26
27
28
21
19
15
12
24
32
36
19
22
25
9
19
20
21
19
16
14
24
23
17
14
13
18
15
10
9
13
14
18
9
15
18
17
5
6
6
9
8
7
10
20
12
10
15
22
8
3
7
16
10
5
5
5
9
12
9
5
2
5
19
23
26
20
9
16
10
9
7
11
13
25
6
5
11
11
7
9
7
14
12
11
12
17
8
12
7
3
1
11
28
21
12
7
11
10
12
14
16
8
4
8
6
10
9
9
9
2
16
23
28
24
16
5
6
8
4
0
4
13
8
10
12
14
16
25
27
25
30
18
23
32
26
27
34
36
31
33
39
34
27
28
31
29
27
22
22
16
21
18
14
18
24
22
13
17
15
10
-1
-7
7
14
22
16
12
11
8
1
3
1
10
18
9
8
9
9
4
14
8
1
10
7
2
1
12
12
6
2
4
1
3
12
22
21
32
46
68
99
122
140
172
195
208
218
220
196
146
120
56
16
3
-8
-25
-28
-13
-7
-6
0
19
15
15
16
12
10
7
11
16
14
13
9
14
16
13
9
21
22
17
15
9
10
10
11
10
11
14
13
12
12
7
10
16
21
12
9
15
12
19
23
22
16
16
14
8
20
25
25
21
11
11
13
14
15
16
16
20
25
27
23
13
16
19
24
26
19
23
18
19
35
32
26
38
34
37
28
23
35
46
31
38
38
38
38
37
39
34
35
41
48
53
50
53
56
55
53
60
56
60
59
63
68
65
61
64
74
73
75
65
81
83
82
73
70
68
65
65
56
73
80
63
69
64
55
62
57
49
51
41
52
58
42
33
32
29
32
28
28
28
30
22
16
21
17
19
21
13
16
20
24
15
14
14
16
16
18
17
13
17
15
10
14
9
12
11
15
13
7
5
12
13
17
9
11
15
18
12
11
8
11
3
6
13
9
8
9
4
21
15
16
12
29
8
1
12
13
12
17
15
10
16
13
15
11
13
15
10
9
10
6
0
7
26
20
15
18
4
15
19
17
15
13
13
11
15
17
-2
2
8
10
23
24
20
20
17
16
12
13
11
2
5
14
21
7
8
12
15
14
11
13
13
17
12
8
5
20
14
11
9
10
15
16
14
9
10
7
12
4
10
2
5
11
13
10
0
-4
3
23
17
11
10
9
14
20
12
2
-5
14
18
7
10
8
9
12
4
6
10
9
13
7
4
8
11
7
8
4
10
17
-4
-6
-1
8
10
11
12
12
5
-2
2
2
9
7
3
9
9
10
15
12
8
6
-1
2
9
12
15
10
2
7
8
3
10
13
6
5
10
10
10
11
18
10
-5
9
12
19
26
23
26
28
26
23
17
17
20
25
23
25
26
29
28
28
18
23
22
23
16
19
26
13
4
-2
-1
13
17
10
0
4
6
5
3
10
2
4
8
10
8
1
-6
1
9
6
2
3
8
3
-6
-6
-1
5
2
7
5
-5
-3
1
-8
-3
-16
-20
-9
-9
6
32
38
55
80
104
127
151
181
211
227
248
239
203
155
110
49
8
-4
-19
-30
-20
-13
-1
2
-3
0
3
8
12
8
7
0
0
1
4
9
1
-6
-1
-1
-7
-2
2
3
8
-2
0
6
10
7
-3
0
0
-1
0
-1
-2
-1
-7
2
-4
4
8
7
7
4
1
2
-4
0
2
2
3
6
5
5
6
9
9
-1
10
9
8
2
6
4
4
7
4
8
5
13
8
7
14
18
21
14
4
5
10
16
16
12
15
29
23
22
32
32
19
20
27
32
33
30
32
34
32
27
37
39
39
47
51
51
49
43
50
57
57
58
62
64
60
56
60
56
50
57
60
54
61
68
61
56
44
40
49
55
47
31
33
28
28
25
19
23
14
20
25
18
16
14
13
4
8
13
9
4
4
6
3
1
6
-3
0
3
3
5
4
0
-6
-14
-1
-4
-2
6
4
-5
7
6
-6
-1
-3
-10
-1
0
-2
-2
1
1
-7
-9
-6
-4
-2
0
-6
-8
0
3
-4
-3
-7
-11
-16
-7
-3
3
5
3
-3
-3
-5
-6
-8
-7
-9
-8
-10
-9
-7
-1
3
-10
-12
-1
-5
-10
-4
0
-1
3
2
-4
-1
-2
-6
-9
-11
-6
0
-2
-10
-4
1
-3
-5
-3
3
-16
-21
-10
-2
1
1
0
-4
-8
-10
-10
-6
-9
-6
-8
-3
-4
-3
-3
1
-5
-24
-18
-3
-2
-7
0
0
-2
-1
-13
-17
-9
-9
-7
-1
-1
-8
-8
-7
-9
-9
-9
-12
-12
-5
-3
-17
-19
-17
-25
-11
-6
-16
-7
-13
-12
-6
-14
-18
-18
-6
-5
-5
-6
-9
-17
-7
-10
-12
-11
-4
-10
-21
-25
-18
-14
-8
-6
-14
-12
-12
-9
-6
-5
-3
-12
-16
-18
-12
-10
-10
-10
-14
-17
-18
-9
-9
-19
-17
-5
-21
-18
-14
-10
-9
-13
-18
-14
-11
-9
-12
-11
-10
-12
-8
-13
-18
-15
-18
-8
1
-12
-16
-9
-11
-13
-12
-11
-12
-7
-7
-14
-22
-19
-13
-16
-1
3
-3
-4
1
6
6
0
12
9
3
4
7
8
9
15
12
12
5
10
11
2
1
9
4
3
0
-5
-6
-5
-8
-12
-10
-11
-9
-8
-17
-16
-14
-25
-19
-12
-13
-14
-13
-12
-16
-20
-9
-6
-7
-8
-14
-13
-13
-19
-11
-17
-17
-10
-9
-18
-21
-31
-30
-23
-27
-29
-33
-24
-12
5
17
16
31
68
87
120
160
185
207
232
246
221
177
129
75
15
-14
-17
-36
-41
-43
-33
-24
-19
-20
-16
-20
-9
-12
-8
-13
-20
-12
-12
-13
-6
-14
-12
-21
-22
-28
-28
-7
-11
-12
-10
-7
-9
-6
-11
-10
-10
-10
-8
-10
-9
-8
-18
-18
-17
-26
-29
-19
-5
-5
-11
-10
-9
-11
-15
-6
0
-10
-11
-12
-8
-13
-20
-25
-23
-10
-4
5
1
0
-8
-13
-6
-7
-10
-10
-4
4
-1
-5
-4
-4
-1
1
-2
-4
-2
2
6
7
8
3
5
9
3
13
24
20
17
19
22
22
26
31
26
21
22
26
24
36
44
46
41
35
33
38
46
43
52
54
41
39
42
47
46
49
50
44
36
36
39
43
44
38
26
30
36
28
21
17
13
13
15
10
8
3
8
5
0
-3
3
-7
-11
2
-2
-1
-2
-8
-10
-16
-8
-4
-3
-13
-21
-24
-13
-9
-6
-12
-13
-11
-5
-3
-9
-16
-18
-18
-10
-12
-17
-25
-8
-8
-20
-5
-7
-8
-13
-22
-17
-17
-11
-8
-14
-14
-10
-9
-14
-25
-32
-23
-14
1
-9
-17
-16
-5
-4
-17
-23
-27
-25
-27
-24
-11
-1
-3
-9
-13
-19
-22
-19
-18
-14
-18
-19
-19
-14
-20
-11
-1
0
-5
-12
-14
-20
-14
-13
-9
-11
-18
-18
-15
-16
-10
-13
-20
-13
-7
-15
-11
-12
-13
-10
-15
-18
-21
-19
-13
-17
-16
-19
-22
-12
-3
-2
-16
-27
-13
-8
-8
-7
-10
-12
-18
-18
-13
-14
-16
-21
-22
-15
-23
-25
-25
-21
-7
-4
-13
-18
-14
-13
-15
-11
-17
-25
-24
-15
-19
-15
-15
-13
-25
-12
-14
-19
-24
-9
-14
-23
-11
-21
-18
-8
-11
-19
-18
-9
-9
-12
-7
-24
-16
-17
-19
-26
-22
-32
-12
-12
-10
-13
-13
-15
-20
-24
-26
-16
-12
-10
-10
-15
-20
-16
-12
-13
-17
-20
-21
-22
-12
-13
-10
-4
-14
-18
-13
-14
-19
-26
-12
-14
-15
-13
-17
-22
-18
-10
-14
-7
-21
-22
-23
-17
-20
-23
-8
-13
-21
-12
-11
-8
-11
-14
-17
-10
-12
-15
-26
-16
-9
-7
0
-4
-3
-3
-2
4
2
2
2
2
-1
-4
1
10
10
14
5
5
2
6
14
16
9
5
2
-8
-9
-4
-6
-9
-16
-15
-17
-18
-7
-9
-19
-16
-11
-11
-3
-17
-19
-20
-17
-18
-18
-18
-21
-20
-20
-15
-15
-11
-13
-19
-24
-20
-11
-11
-18
-25
-24
-22
-33
-35
-40
-31
-26
-17
3
15
30
62
86
108
142
180
194
221
248
233
192
140
73
11
-15
-25
-38
-46
-35
-31
-28
-19
-9
-6
-10
-19
-21
-22
-14
-16
-13
-13
-16
-16
-19
-23
-24
-18
-15
-1
-11
-23
-21
-26
-25
-19
-12
-13
-11
-5
-8
-10
-10
-16
-14
-7
-15
-7
-8
-9
-16
-17
-11
-9
-14
-16
-15
-6
-9
-8
-11
-7
-7
-9
-16
-11
-12
-5
-6
-5
-15
-4
8
-4
-12
-9
-15
-10
-4
3
-2
0
2
-1
-2
3
-1
0
1
2
8
7
3
1
9
3
7
17
22
17
20
16
18
19
28
17
18
35
41
33
39
40
34
35
37
45
32
47
52
46
47
38
41
42
53
57
55
56
55
49
44
46
41
42
41
42
37
29
28
28
34
30
20
9
6
23
19
19
16
16
7
3
0
-8
0
-2
10
3
-1
-5
-3
-4
-5
-7
-10
-2
-9
-10
-9
-14
-16
-8
-15
-9
-7
-16
-15
-3
-6
-7
-12
-9
-8
-5
-7
-10
-16
-25
-21
1
-3
-8
-13
-15
-12
-12
-15
-17
-16
-5
-12
-15
-6
-5
-15
-18
-14
-7
-4
-5
-9
-11
-13
-12
-9
-16
-20
-12
-10
-11
-10
-6
-7
-14
-2
7
-8
-2
-5
-9
-10
-15
-11
-5
-6
-9
-6
-4
-10
-18
-10
-8
-15
-16
-8
-7
-8
-11
0
-1
-5
-13
-13
-9
0
-14
-7
-2
-3
-6
-10
-12
-21
0
-3
-6
-4
-2
-5
-3
-4
-10
-4
-2
-10
-12
-5
-9
-9
-13
-8
-6
-3
-15
-12
-11
-6
-11
-4
-11
-8
-6
-3
-5
-5
-4
-6
-14
-12
-15
3
-9
-15
-1
-1
-3
-10
-9
-8
-4
-3
-8
-8
-6
-5
-8
-8
-11
-13
-8
-13
-9
-9
-10
-6
-9
-5
-10
-8
-9
-9
0
-8
-8
-5
-1
7
2
-10
-8
-6
-18
-10
-8
-12
-6
-2
2
-7
-10
-11
-8
-4
2
-6
-5
-10
-11
-11
-6
-3
-13
-4
-3
-6
-2
-2
1
-2
-1
-5
-4
-8
-1
-1
-2
5
-1
-10
-2
5
4
6
6
12
9
16
18
8
6
7
11
17
16
20
26
27
32
14
11
8
10
8
11
3
8
0
8
6
5
-3
4
0
-4
-6
-9
-7
-7
0
-6
-3
1
4
1
-12
-4
4
1
-7
-6
-12
-9
-10
0
-3
-5
4
0
-1
-3
-8
-11
-7
-7
-8
-5
-12
-11
-8
-4
4
10
19
41
67
96
101
130
159
186
204
211
195
157
116
72
3
-18
-26
-33
-37
-38
-37
-22
-14
-3
0
-4
-2
5
5
-4
-6
-5
-1
-5
-5
-2
-4
-5
-4
-6
-4
-3
-6
8
1
-4
-5
-1
-16
-11
5
0
7
15
12
5
3
2
-10
-4
-1
1
20
13
2
-1
4
2
3
3
-3
-1
2
10
10
6
6
9
7
12
9
7
13
10
9
12
7
9
6
8
17
13
13
13
14
8
7
22
18
24
27
22
21
20
26
33
38
31
27
30
28
30
33
38
38
32
34
45
55
48
45
41
55
59
50
55
55
57
56
59
66
61
55
58
70
72
73
69
67
68
67
62
54
58
55
52
50
44
43
41
47
52
42
35
42
32
22
20
22
26
29
23
19
12
10
10
13
8
0
5
0
9
10
10
0
-1
5
9
11
6
0
6
10
3
1
-1
-5
-3
3
7
5
5
5
2
2
1
5
1
-1
-1
-6
-4
2
1
9
-3
-7
1
6
7
3
0
8
6
-3
-3
3
3
10
4
3
-1
1
1
2
3
5
8
10
9
5
0
13
12
10
12
-4
-5
0
0
9
14
12
-5
-9
-2
1
12
5
7
1
-5
4
7
9
3
8
9
-1
6
2
11
13
9
4
5
2
-2
1
8
-1
7
7
2
1
-2
0
7
1
-2
-1
3
4
-1
-3
1
-4
-2
6
8
6
12
5
-4
-8
-3
-5
-6
4
0
3
6
5
-3
-5
-2
2
1
-3
0
8
8
-1
-5
0
1
-2
7
4
-7
2
4
5
8
6
7
3
-1
9
6
1
2
4
-5
-1
0
3
5
-5
-12
-5
0
4
2
-2
-4
0
-1
-3
-3
2
9
2
3
10
8
-6
-4
0
-2
3
8
5
1
2
4
-1
-2
-4
-5
-3
7
6
2
3
5
8
5
2
2
0
1
3
8
7
-5
-3
-3
1
14
16
19
19
-1
-12
8
17
16
22
17
15
17
21
16
14
21
26
33
23
18
20
18
20
12
13
20
17
10
5
9
3
-1
3
11
13
6
0
-10
-12
0
-2
2
5
2
3
-2
1
2
3
-4
-15
-10
-4
1
6
-4
7
3
-2
3
0
7
-7
-10
-4
-19
-17
-3
-8
-6
-2
0
13
23
36
64
97
122
138
156
180
193
206
191
168
128
88
22
-13
-24
-31
-31
-41
-35
-22
-12
-11
-6
-4
6
4
1
-8
-14
2
6
2
0
-4
-5
3
1
-15
-4
6
-7
-3
2
1
2
2
0
-5
-6
3
-1
-6
0
-4
1
0
-3
-4
-5
0
-7
4
7
7
3
1
1
-4
-2
2
3
1
4
2
-7
7
12
7
12
7
3
4
3
4
4
9
3
10
18
11
6
8
9
3
7
13
7
10
17
13
11
14
19
16
17
23
24
25
21
28
28
27
29
25
29
61
39
28
43
44
39
49
53
49
52
52
55
59
60
52
52
55
63
60
49
47
46
48
51
57
59
64
46
48
40
36
46
40
40
30
25
33
26
18
18
15
11
13
9
7
0
12
9
10
6
6
-2
-3
-5
-8
-9
-4
1
-2
-10
-7
-13
-6
-1
-1
-7
-12
-5
-6
-8
-2
-6
-5
-5
-6
-16
-8
-14
-15
-11
-13
-15
-21
-17
-13
-16
-4
-13
-16
-6
-7
-3
-4
-10
-16
-17
-17
-16
-19
-3
-1
-3
-3
-7
-12
-18
-8
-8
-6
-6
-3
-5
-9
-7
-13
-11
-8
-6
-17
-14
-4
2
0
-8
-13
-2
-2
3
-2
-4
-7
-8
-10
-6
-17
-7
1
3
-13
-13
-7
-5
-6
-8
-9
-9
-7
-11
-4
-5
-5
-11
-14
-21
-15
-6
5
-4
-8
-3
-15
-21
-23
-16
-6
-4
4
-3
-7
-6
-7
-11
-16
-17
-9
-2
-10
-5
-9
-6
-8
-6
-6
-8
-11
-9
-13
-16
-7
-3
-7
-9
-17
-11
-9
-14
-7
-11
-14
-12
-7
-10
-7
-9
-13
-9
-2
-12
-18
-11
-7
-1
-17
-9
-3
-9
-8
-8
-5
-10
-14
-5
-7
-17
-12
-12
-9
-2
-8
-16
-12
-16
-13
-15
-15
-13
-7
-8
-17
-16
-19
-15
0
-7
-4
3
-5
-7
-5
-14
-15
-11
-13
-2
-1
-4
-6
-9
-7
-11
-11
-5
-3
-3
-6
-4
2
-8
0
4
9
7
7
4
0
4
3
5
5
13
20
18
11
10
11
12
15
9
4
0
-8
-8
-7
-2
4
1
1
-10
-14
-8
0
2
-12
-20
-16
-8
-10
-14
-18
-17
-12
-12
-17
-22
-18
-9
-5
-8
-5
-8
-14
-13
-14
-13
-9
-14
-14
-13
-17
-21
-32
-28
-27
-21
-13
-1
10
19
40
71
102
110
134
161
196
222
238
224
186
126
85
24
-15
-15
-27
-33
-37
-34
-17
-6
-19
-21
-15
-14
-18
-18
-20
-14
-12
-12
-5
-6
-4
-11
-12
-14
-8
-11
-18
-17
-12
-16
-23
-15
-16
-19
-13
-8
-8
-12
-6
-14
-18
-12
-10
-11
-11
-5
-4
-17
-22
-22
-12
-12
-8
-2
-4
-3
-10
-9
-20
-18
-11
-14
-9
-6
-12
-12
-17
-19
-14
-11
-3
-9
-11
-6
-4
0
-4
-7
-4
-8
4
-1
-3
-7
2
2
4
2
1
-7
3
9
6
7
10
8
-1
11
14
20
23
25
23
22
22
29
29
31
27
29
25
39
44
31
38
41
36
36
47
45
42
44
43
43
39
35
44
44
47
36
29
37
38
31
29
19
22
20
22
15
10
9
6
-2
4
5
0
-9
-2
-3
-6
-13
-18
-9
-16
-14
-13
-7
-11
-8
-16
-9
-13
-18
-18
0
-24
-30
-23
-12
-21
-7
-8
-8
-8
-12
-29
-31
-21
-14
-16
-21
-24
-17
-18
-19
-16
-14
-11
-21
-20
-25
-16
-14
-13
-18
-26
-29
-32
-27
-22
-17
-24
-18
-16
-11
-17
-16
-19
-24
-28
-23
-18
-18
-19
-18
-18
-18
-21
-27
-26
-24
-22
-26
-10
-14
-23
-16
-24
-19
-13
-19
-21
-18
-13
-16
-20
-18
-19
-17
-14
-21
-24
-26
-27
-28
-19
-21
-9
-12
-14
-14
-15
-16
-15
-16
-14
-17
-21
-26
-23
-20
-24
-21
-17
-19
-27
-24
-17
-19
-22
-17
-21
-24
-20
-21
-28
-10
-35
-33
-24
-20
-21
-23
-11
-12
-23
-23
-26
-26
-19
-12
-15
-22
-20
-28
-34
-34
-20
-14
-15
-14
-19
-21
-23
-28
-21
-23
-13
-20
-19
-15
-25
-29
-20
-30
-27
-25
-23
-28
-27
-19
-19
-20
-20
-10
-21
-28
-26
-23
-23
-21
-22
-20
-21
-25
-24
-21
-28
-30
-32
-27
-27
-12
-13
-20
-23
-35
-37
-25
-20
-11
-14
-10
-15
-21
-27
-23
-20
-24
-28
-23
-22
-25
-24
-29
-22
-24
-13
-17
-18
-17
-19
-18
-20
-20
-18
-16
-31
-26
-16
-20
-17
-4
-9
-16
-6
-9
-3
2
-6
-12
-10
6
15
10
-2
-2
-4
-4
-5
-9
-10
-2
-10
-21
-23
-13
-15
-20
-19
-16
-17
-25
-29
-24
-22
-25
-23
-26
-30
-28
-21
-23
-26
-37
-33
-17
-34
-27
-18
-20
-12
-27
-38
-36
-29
-30
-32
-27
-26
-26
-23
-35
-44
-44
-42
-34
-27
-19
-10
5
29
58
81
102
135
165
181
209
230
213
172
118
53
-7
-22
-31
-41
-47
-48
-36
-27
-24
-25
-25
-25
-29
-28
-18
-28
-32
-27
-28
-25
-18
-20
-25
-27
-20
-26
-31
-25
-25
-33
-34
-31
-34
-42
-25
-32
-20
-20
-25
-25
-18
-11
-23
-25
-30
-25
-27
-30
-29
-24
-15
-24
-27
-21
-21
-20
-16
-21
-22
-22
-17
-26
-27
-23
-20
-18
-14
-16
-23
-25
-12
-10
-12
-28
-19
-19
-12
-19
-22
-18
-13
-10
-13
-8
-13
-10
-4
-9
-9
-7
-4
-9
-15
-10
-2
-2
2
0
3
11
14
6
10
14
20
18
18
9
11
23
29
25
33
33
28
28
28
31
32
35
37
38
34
31
33
29
30
33
31
32
42
35
33
30
21
6
6
15
7
3
-1
0
-1
3
-8
-13
-7
-3
-4
-8
-10
-25
-26
-14
-9
-15
-16
-19
-29
-25
-27
-26
-19
-16
-18
-25
-19
-22
-29
-35
-30
-25
-24
-22
-29
-21
-26
-31
-36
-31
-25
-29
-23
-19
-21
-28
-24
-31
-32
-27
-23
-22
-35
-28
-18
-24
-28
-33
-31
-35
-27
-30
-32
-32
-28
-30
-25
-28
-32
-23
-14
-24
-34
-35
-33
-44
-34
-28
-24
-19
-22
-26
-29
-28
-31
-27
-27
-22
-23
-32
-30
-25
-25
-22
-25
-32
-26
-19
-29
-31
-31
-31
-21
-20
-28
-34
-27
-27
-28
-28
-36
-24
-22
-32
-37
-30
-10
-17
-25
-26
-36
-27
-28
-28
-25
-25
-17
-22
-31
-27
-31
-30
-29
-29
-32
-32
-32
-29
-30
-26
-29
-34
-31
-26
-31
-31
-30
-30
-25
-20
-24
-21
-24
-37
-36
-35
-29
-20
-47
-41
-27
-17
-15
-21
-28
-23
-26
-28
-29
-24
-17
-24
-27
-23
-27
-29
-31
-28
-25
-23
-26
-28
-21
-23
-30
-28
-23
-30
-28
-15
-21
-31
-32
-24
-15
-11
-22
-25
-29
-15
-24
-30
-24
-14
-32
-30
-34
-39
-24
-20
-23
-23
-10
-28
-34
-25
-29
-23
-20
-24
-26
-23
-18
-25
-24
-24
-15
-19
-23
-17
-10
-8
-3
-14
-16
-12
-14
-4
-6
-15
-14
-12
-9
-7
7
7
6
1
-2
-14
-11
-1
4
-1
-3
-14
-23
-34
-27
-22
-22
-14
-16
-26
-14
-11
-14
-18
-27
-28
-28
-28
-29
-29
-20
-24
-30
-33
-29
-30
-28
-25
-30
-27
-25
-25
-30
-36
-44
-48
-26
-24
-27
-37
-45
-48
-41
-31
-29
-20
-5
7
18
41
67
91
123
163
179
196
221
221
178
124
83
19
-20
-31
-42
-50
-55
-42
-31
-25
-36
-26
-27
-29
-18
-23
-26
-31
-31
-23
-21
-23
-21
-27
-30
-31
-26
-25
-28
-28
-25
-21
-27
-22
-19
-21
-26
-16
-19
-21
-19
-25
-25
-27
-31
-33
-24
-20
-14
-11
-13
-12
-23
-21
-22
-24
-28
-22
-20
-16
-15
-21
-32
-12
-2
-16
-17
-10
-16
-15
-12
-16
-16
-11
-15
-20
-19
-20
-10
-2
2
-4
-4
-4
-3
-5
-5
1
-4
-5
-4
1
-1
5
4
5
10
9
8
12
21
12
9
16
21
24
28
32
29
28
26
33
38
43
36
34
28
31
28
37
42
41
46
40
38
42
48
49
44
40
43
43
37
25
27
28
26
27
21
17
18
12
7
10
5
-1
-5
-9
-4
3
2
-3
-3
-5
-4
-10
-12
-18
-14
-8
-12
-18
-16
-19
-17
-28
-9
-10
-9
-9
-8
-13
-23
-28
-15
-12
-13
-13
-18
-19
-16
-20
-20
-20
-24
-26
-15
-15
-14
-12
-12
-15
-18
-22
-17
-18
-16
-20
-20
-21
-23
-17
-21
-18
-14
-17
-19
-26
-22
-11
-15
-18
-17
-20
-28
-21
-23
-21
-15
-14
-3
-4
-12
-20
-11
-13
-11
-16
-19
-19
-19
-18
-17
-12
-21
-20
-16
-14
-13
-13
-22
-18
-12
-13
-20
-21
-21
-18
-12
3
-6
-14
-12
-13
-14
-13
-14
-20
-16
-27
-15
-13
-11
-12
-13
-18
-22
-27
-26
-24
-14
-8
-19
-15
-21
-14
-18
-21
-14
-12
-15
-21
-22
-20
-14
-15
-12
-14
-16
-16
-23
-20
-14
-22
-18
-25
-18
-18
-1
-8
-13
-15
-19
-16
-23
-16
-11
-12
-14
-17
-20
-20
-19
-25
-20
-12
-17
-13
-17
-17
-19
-22
-16
-25
-24
-10
-6
-11
-35
-15
-12
-16
-23
-21
-21
-21
-9
-9
-6
-5
-20
-26
-7
-18
-15
-13
-16
-18
-11
-8
-5
-10
-10
-23
-16
-4
-6
-16
-10
-6
-4
-2
4
-7
-7
2
14
3
1
12
12
13
12
7
5
10
2
3
0
-5
-6
-15
-3
-4
-3
-4
-22
-16
-12
-14
-15
-11
-9
-11
-16
-19
-25
-22
-19
-13
-12
-11
-16
-18
-29
-24
-17
-13
-14
-16
-19
-13
-15
-19
-19
-16
-9
-17
-23
-27
-29
-25
-23
-25
-14
-10
4
23
50
69
94
120
148
168
182
202
200
178
130
86
20
-26
-34
-42
-41
-39
-33
-40
-27
-20
-16
-12
-14
-18
-19
-14
-16
-17
-15
-13
-11
-8
-13
-18
-18
-18
-17
-4
-8
-12
-10
-9
-15
-17
-11
-18
-20
-9
-6
-5
-4
-3
-6
-1
-3
-3
-4
-1
0
-5
-5
-8
-14
-14
-11
-11
-5
-1
-3
-5
-4
-2
-2
-4
-3
3
6
1
-4
-3
-3
1
-2
-10
-6
-10
6
17
13
4
5
6
0
2
10
7
10
12
14
17
17
15
8
15
19
18
24
31
29
19
28
32
28
31
32
31
36
47
54
41
43
50
46
51
53
49
56
64
57
51
54
59
63
59
61
57
54
71
41
49
59
53
45
41
37
37
41
38
25
17
22
26
18
11
17
25
20
8
-2
-1
14
9
6
6
1
2
-4
-9
-2
-1
4
-1
-1
-1
-3
-3
0
-2
-6
-7
-3
-7
-9
-8
-5
-2
-3
-6
-10
-4
-9
-7
-16
-16
-7
-3
-5
0
-5
-9
-1
-2
-7
-9
-11
-18
-13
-10
-10
-10
-6
6
-1
-10
-7
-2
5
1
-9
-9
-8
-3
-4
-11
-5
-3
-5
1
-3
-5
-4
-1
0
-8
-13
-7
6
5
-2
-4
-3
-2
-4
-7
5
-6
-10
-9
-8
-2
2
4
0
-4
-1
-3
0
-5
-8
-5
-3
-6
-6
-13
-11
-1
5
-2
-19
1
-4
-8
3
2
-3
3
5
1
-2
-5
-11
-12
-14
3
-1
-6
-6
-7
-7
-6
-8
-7
-4
1
0
-9
-4
-6
-1
-6
-4
-7
0
-4
-7
2
-1
6
2
-7
-9
-4
-9
-7
-5
-4
4
-7
-5
-1
-4
-8
-6
5
2
-5
-10
-7
-7
-20
-12
-5
-3
7
-1
-2
-2
-8
0
0
-5
-10
-15
-19
-11
5
0
-9
-8
-4
-2
0
1
-9
-13
-6
-5
-9
-5
0
-6
-3
-4
-9
-15
-7
-5
8
12
6
2
5
6
3
11
14
13
8
9
9
14
8
10
19
22
24
18
18
23
20
10
4
0
17
6
-4
-6
-1
1
4
5
-2
-4
1
-5
-8
-13
-18
-10
2
-5
-8
-4
-6
-2
-4
-3
-5
-9
-10
-9
-7
0
-6
-6
-1
-2
0
1
-3
-10
-12
-13
-14
-13
-13
-8
-2
10
18
26
48
78
99
123
145
161
179
192
196
174
132
111
50
-5
-19
-31
-32
-38
-39
-33
-24
-14
-4
-5
1
5
2
0
-4
0
-2
1
3
-1
-1
-4
-4
-1
1
-2
8
1
8
-2
0
-10
-5
0
0
8
9
10
3
4
-5
-8
3
3
9
11
9
5
4
4
8
5
5
-16
-14
-5
22
9
16
20
12
3
5
13
9
8
6
5
7
12
17
16
5
10
3
0
12
16
13
15
18
20
23
25
21
27
28
22
25
25
24
26
30
28
29
30
32
33
36
43
42
44
53
51
44
44
50
40
43
65
55
58
64
59
56
62
66
67
67
70
67
67
65
67
63
63
61
53
53
58
63
57
53
53
50
43
39
37
32
27
14
17
16
25
26
24
21
13
4
7
13
15
19
11
8
7
11
13
7
2
5
-10
-6
7
12
10
6
1
1
1
8
7
0
-1
6
-1
-2
4
11
5
-5
-11
-10
-1
3
9
9
4
5
5
4
-7
3
6
-5
-4
1
0
2
2
0
-7
-6
-2
-3
-5
-2
2
4
2
10
6
-3
-2
-2
-7
-9
-2
3
5
4
4
1
-1
2
1
5
4
7
7
5
1
-1
-4
7
6
-2
-6
-3
-2
3
3
-2
0
0
9
3
-1
0
12
4
3
-1
2
5
3
-4
-5
-1
-4
-1
-3
2
8
14
-3
-6
2
-2
-2
-3
-10
-10
-12
-2
10
1
1
2
-9
-6
-9
-13
-3
5
8
1
2
1
-1
-8
-6
-1
2
5
0
-9
-5
1
-1
-10
-8
-4
-5
-1
3
-6
4
2
-3
-2
-6
-4
-3
2
2
-2
-6
-8
-10
-16
-8
-3
-3
-3
2
2
0
-5
-7
-6
-1
-5
-7
-3
-2
3
-3
-3
-3
-14
-6
2
-5
2
5
4
4
2
-5
-1
1
-1
-9
0
5
10
4
21
24
15
9
1
7
14
13
11
12
14
21
21
17
15
15
17
17
15
10
8
5
1
-7
-8
-12
-17
-16
-4
10
6
3
-2
-6
1
0
-7
-12
-3
-2
-5
-4
-6
-14
-14
-3
-2
-11
-4
-2
-12
-15
-13
-6
-4
2
-12
-20
-19
-22
-22
-25
-26
-14
-6
13
28
38
66
93
114
141
159
188
212
226
210
172
132
105
35
-6
-22
-37
-36
-29
-26
-18
-13
-6
-4
0
0
-14
-20
-1
-1
2
0
-3
-9
-4
-8
0
-6
-6
0
-2
-5
-5
-16
-15
-5
-13
-5
7
0
-3
-1
-1
-4
-7
-4
-1
-2
-3
9
-1
-17
-6
-8
-5
3
7
-4
-3
-3
4
1
2
3
-2
-2
-1
5
8
6
1
0
-1
3
-2
-1
-1
7
13
7
2
17
16
5
10
12
11
10
12
10
13
12
14
17
19
19
17
25
24
21
25
25
26
29
39
34
36
35
35
38
48
48
48
49
48
49
44
46
62
62
62
70
53
60
63
58
58
56
50
45
52
57
56
51
54
47
45
45
49
42
35
30
25
21
19
23
16
16
19
16
13
7
0
7
6
-4
-3
-3
-2
11
14
2
-4
-1
0
1
-3
-5
-4
-1
-3
-4
-3
-4
-8
-8
-1
-1
-8
-7
-10
-8
-17
-19
-9
-1
-8
-6
4
2
1
-3
-5
2
-4
-7
-10
-13
-15
-12
-4
-3
2
-3
-12
-14
-12
-7
-8
-7
-5
-5
-6
2
2
-9
-12
-8
-7
-6
-16
-9
-8
-7
-14
-8
-8
-6
-10
-12
-14
-7
-2
0
-8
-4
-9
-6
-4
-5
-2
-6
-16
-14
-7
-7
-16
-13
-6
5
-2
-4
-5
-2
-10
-15
-13
-9
-9
-13
-12
-13
-6
1
-6
-13
-14
-13
-8
-2
-1
-6
-13
-8
-7
-10
-2
-7
-17
-19
-20
-7
-3
-9
-10
-19
-13
-11
-8
-8
-4
-9
-14
6
-16
-17
-13
-14
-15
-13
-14
-21
-10
-8
-10
-14
-11
-8
-14
-13
-9
-10
-11
-15
-19
-19
-13
-11
-16
-8
-9
-8
-6
-10
-21
-18
-13
-9
-8
-10
-2
-10
-9
-19
-17
-12
-17
-16
-21
-3
-4
-15
-17
-14
-9
-1
-13
-18
-9
-7
-11
-13
-11
-19
-12
-14
-18
-15
-9
1
-8
-5
-4
-6
0
0
4
2
1
4
-5
0
3
8
11
11
14
6
5
2
3
7
7
13
8
6
-11
-21
-8
-12
-15
-12
-10
-11
-26
-16
-18
-20
-14
-6
-8
-5
-23
-21
-20
-21
-24
-32
-26
-22
-17
-19
-25
-14
-16
-18
-19
-20
-24
-19
-19
-18
-25
-36
-36
-30
-33
-32
-30
-18
-10
-12
8
31
59
81
104
129
170
190
211
228
221
192
152
98
33
-11
-29
-39
-49
-43
-35
-29
-28
-22
-24
-32
-18
-3
-7
-20
-24
-20
-24
-16
-21
-24
-15
-14
-16
-21
-25
-24
-20
-16
-19
-23
-27
-23
-22
-11
-18
-17
-16
-16
-15
-24
-21
-25
-16
-19
-17
-20
-26
-22
-20
-23
-21
-15
-10
-10
0
-5
-18
-29
-25
-16
-18
-19
-19
-12
-17
-21
-20
-8
-8
-14
-6
-12
-11
-19
-3
-7
-7
-5
-2
6
-4
-10
-11
-12
-10
-5
-2
-2
-4
4
4
4
10
10
1
12
12
18
16
15
13
16
8
24
28
31
33
35
35
37
35
34
37
37
35
40
38
43
41
42
48
47
48
51
37
42
44
37
29
30
44
28
20
15
15
17
18
18
13
12
6
1
1
-2
-5
2
-1
0
-5
-3
-5
-12
-12
-9
-8
-15
-18
-18
-20
-15
-24
-18
-11
-12
-19
-30
-19
-12
-18
-19
-14
-12
-17
-16
-24
-22
-20
-20
-17
-17
-10
-18
-21
-31
-25
-18
-13
-12
-25
-22
-18
-19
-18
-13
-18
-18
-15
-26
-23
-23
-26
-25
-22
-23
-26
-21
-19
-25
-16
-16
-19
-21
-18
-20
-20
-26
-27
-24
-19
-24
-20
-16
-21
-26
-32
-30
-20
-17
-16
-17
-16
-16
-33
-26
-19
-17
-19
-17
-21
-23
-24
-22
-17
-17
-21
-23
-17
-12
-32
-31
-28
-26
-21
-24
-21
-10
-15
-18
-19
-17
-13
-13
-25
-26
-13
-23
-23
-23
-24
-12
-24
-24
-22
-20
-28
-27
-25
-23
-20
-17
-23
-24
-22
-21
-20
-27
-26
-29
-22
-22
-24
-21
-19
-22
-30
-26
-26
-20
-24
-17
-17
-11
-41
-35
-23
-12
-17
-25
-19
-21
-27
-29
-20
-20
-24
-17
-21
-25
-23
-18
-19
-17
-23
-28
-25
-26
-16
-23
-28
-24
-27
-24
-12
-20
-26
-18
-17
-17
-18
-22
-24
-27
-23
-25
-24
-21
-20
-19
-23
-23
-26
-25
-23
-21
-17
-16
-23
-13
-24
-25
-22
-23
-23
-26
-29
-23
-26
-21
-9
-5
-10
-15
-11
-19
-11
-6
-8
-9
-1
-2
-2
-3
-3
-4
-2
4
7
-1
4
1
6
3
-4
-20
-12
-15
-11
-14
-17
-11
-17
-24
-21
-23
-13
-19
-24
-28
-21
-25
-26
-8
-25
-32
-27
-26
-26
-22
-28
-30
-15
-18
-25
-28
-30
-13
-22
-24
-26
-27
-19
-13
-22
-28
-29
-29
-41
-42
-45
-41
-37
-12
6
17
42
68
88
119
151
176
201
226
238
214
169
122
67
2
-35
-44
-51
-42
-45
-40
-20
-13
-20
-23
-17
-22
-27
-29
-20
-27
-27
-30
-26
-24
-25
-28
-35
-26
-23
-24
-22
-23
-22
-26
-23
-27
-13
-17
-20
-20
-21
-26
-28
-23
-20
-17
-20
-23
-29
-23
-20
-22
-30
-25
-17
-26
-9
-14
-18
-15
-16
-19
-24
-21
-20
-15
-1
-16
-22
-20
-17
-18
-17
-19
-21
-16
-16
-17
-15
-13
-10
-9
-7
-10
-14
-13
-10
-1
0
-6
-6
-5
0
3
2
3
2
3
-3
2
2
5
22
27
22
21
17
20
20
20
23
21
26
28
33
34
36
36
42
48
34
39
39
39
41
46
45
41
43
39
31
22
33
36
35
31
30
25
25
29
26
17
9
10
5
0
-1
-2
-4
-3
0
-7
-11
-12
-23
-8
-4
-6
-14
-12
-13
-19
-18
-20
-18
-18
-19
-21
-14
-12
-19
-20
-34
-23
-17
-16
-21
-25
-24
-22
-22
-21
-21
-14
-18
-18
-17
-27
-23
-21
-22
-21
-15
-20
-20
-19
-20
-21
-28
-26
-29
-27
-23
-21
-24
-28
-16
-18
-25
-24
-22
-23
-32
-25
-18
-19
-20
-19
-29
-33
-31
-35
-24
-8
-10
-10
-22
-25
-23
-25
-23
-26
-25
-24
-19
-22
-20
-19
-16
-22
-21
-19
-19
-19
-29
-28
-20
-30
-23
-16
-16
-18
-13
-16
-19
-15
-19
-24
-24
-22
-25
-21
-20
-22
-18
-23
-26
-22
-24
-20
-20
-13
-14
-13
-10
-21
-21
-24
-19
-20
-19
-24
-16
-21
-25
-21
-24
-26
-22
-24
-23
-12
-16
-24
-24
-24
-19
-20
-13
-16
-23
-26
-26
-26
-20
-19
-21
-15
-16
-14
-18
-21
-23
-23
-23
-25
-21
-14
-19
-30
-34
-26
-8
-16
-15
-16
-24
-21
-17
-18
-14
-15
-18
-20
-21
-24
-24
-20
-23
-24
-31
-25
-15
-22
-16
-15
-24
-26
-24
-18
-24
-25
-26
-21
-16
-25
-23
-23
-15
-13
-17
-19
-15
-22
-19
-17
-23
-20
-17
-13
-12
-12
-15
-11
-2
-3
-6
-4
1
-7
-8
-9
-1
1
0
12
9
5
0
-2
2
0
-3
-2
-7
-8
-6
-13
-13
-12
-15
-16
-22
-17
-25
-29
-24
-19
-21
-25
-28
-22
-19
-14
-23
-22
-21
-25
-19
-25
-27
-21
-22
-28
-25
-28
-28
-17
-15
-17
-23
-23
-22
-23
-26
-36
-40
-33
-19
-33
-32
-14
-4
5
25
55
87
103
138
170
192
225
234
216
171
115
60
3
-24
-30
-44
-45
-44
-41
-31
-43
-36
-22
-10
-11
-11
-12
-16
-16
-25
-31
-26
-24
-23
-20
-21
-21
-21
-20
-22
-24
-20
-16
-16
-20
-15
-26
-23
-28
-17
-22
-20
-22
-23
-10
-9
-20
-15
-21
-21
-21
-19
-21
-17
-15
-17
-14
-10
-18
-21
-22
-10
-8
-9
-16
-14
-16
-10
-6
-8
-12
-14
-20
-12
-8
0
-7
-9
-10
-8
-9
-3
-2
2
-3
10
-6
-15
-4
1
4
5
9
3
6
7
7
10
12
13
15
17
20
17
9
19
26
31
38
29
31
33
43
44
43
47
45
42
44
43
44
52
50
46
52
51
50
48
52
50
44
42
49
40
34
30
22
24
22
22
21
18
20
3
7
11
3
5
4
-1
-2
0
4
2
-5
-12
-5
-4
-1
-9
-8
-7
-8
-11
-12
-15
-19
-13
-6
-9
-10
-13
-11
-8
-13
-7
-10
-23
-16
-20
-21
-12
-11
-8
-9
-10
-14
-20
-18
-15
-22
-18
-14
-7
-9
-8
-29
-25
-14
-14
-11
-21
-19
-16
-12
-15
-13
-11
-13
-19
-15
-15
-26
-23
-6
-1
-8
-14
-14
-18
-13
-12
-12
-6
-11
-16
-13
-14
-10
-19
-14
-10
-11
-14
-9
-10
-20
-15
-8
-6
-5
-4
-15
-16
-11
-9
-13
-11
-16
-9
-15
-32
-24
-13
-3
-5
-8
-13
-14
-21
-17
-12
-21
-6
-8
-16
-11
-8
-4
-9
-7
-8
-12
-10
-11
-10
-12
-11
-18
-21
-16
-10
-11
-16
-11
-10
-8
-8
-9
-11
-10
-11
-19
-11
-8
-9
-12
-14
-23
-19
-6
-2
-6
-10
-25
-25
-21
-4
-7
-8
-14
-17
-13
-13
-8
-22
-20
-12
-9
-16
-1
2
-9
-16
-5
-9
-12
-17
-22
-16
-13
-5
2
-9
-10
-7
-12
-9
-13
-11
-13
-5
-9
1
-10
-18
-11
-6
-12
-18
-13
-17
-13
-10
-10
-14
-20
-15
-9
-7
-5
-3
-6
-8
-7
-6
3
7
7
3
1
-7
0
5
4
5
14
15
2
2
15
14
18
19
21
18
23
21
8
6
6
4
0
0
-6
-9
-5
-2
-9
-5
-6
-3
5
-7
-4
-9
-19
-8
-12
-1
-2
-8
-13
-16
-17
-18
-5
-7
-4
-11
-5
-5
-4
-10
-11
-5
-6
-9
-13
-11
-6
-11
-13
-8
-16
-18
-11
1
3
20
37
61
89
111
136
164
186
204
211
200
160
117
66
10
-15
-31
-33
-38
-45
-39
-29
-12
-7
-4
-4
3
-2
-6
-11
-17
-14
-2
1
-2
-4
1
3
3
-4
6
2
-3
-5
-8
0
-7
-1
-6
-9
-7
-7
-5
-5
-1
-3
5
3
-2
-4
2
2
-1
-2
2
5
7
1
-1
-3
-4
-6
-4
3
3
3
3
-5
5
10
12
11
7
8
11
8
8
11
6
-1
0
2
11
19
23
22
20
16
11
9
23
25
20
25
28
25
19
11
20
36
37
25
29
35
43
47
42
43
44
40
47
49
55
52
54
60
60
64
63
64
61
63
63
67
72
73
68
75
73
85
68
53
53
51
54
58
61
50
44
47
46
38
36
34
38
29
25
23
15
23
20
18
11
14
17
19
19
17
12
12
2
7
12
11
0
4
5
9
11
17
9
6
8
7
-1
3
5
-1
0
6
-2
-8
6
7
9
5
-2
-4
-4
2
2
-1
1
4
-10
-6
-4
9
3
-5
-7
6
18
8
2
5
3
6
0
6
3
7
9
7
7
4
6
-5
2
12
7
6
12
14
8
0
2
3
4
-5
4
13
9
5
9
2
9
16
9
4
2
3
15
11
5
4
1
3
1
1
1
9
11
10
1
4
1
5
19
21
7
-3
1
2
6
4
5
1
6
5
4
5
1
5
-2
3
4
14
11
6
-2
3
10
3
5
1
4
7
10
4
-8
0
-6
4
8
-1
1
3
3
3
-4
4
9
7
11
11
1
-2
8
1
-3
0
-1
0
9
6
0
2
2
4
4
6
5
4
0
1
-4
1
7
-3
3
-1
3
-4
6
9
4
5
5
4
6
7
6
-1
-5
-7
-5
1
7
2
9
6
4
1
1
1
-2
-1
-1
-4
-2
13
10
-3
-4
9
1
-7
6
10
11
15
9
4
9
12
16
18
15
12
17
15
17
12
11
12
12
15
10
8
18
31
24
28
30
27
21
17
21
20
3
8
13
14
12
1
-2
0
-6
5
6
0
1
-4
7
10
4
-3
-4
0
4
-8
-8
-1
2
1
-3
-6
-3
3
4
0
-10
-7
-4
-5
0
4
-4
-11
-20
-22
-8
4
12
19
28
43
75
94
120
151
168
188
209
221
196
160
120
75
19
-9
-14
-38
-33
-33
-36
-33
-19
-13
-3
1
1
2
-3
0
0
-10
-8
-4
0
1
-5
-9
0
-2
-11
-16
-12
-3
2
9
1
-8
4
-1
-5
-1
2
-3
-1
4
-2
-3
5
0
-3
-1
8
5
-3
-9
-7
3
-4
-5
-4
5
12
-2
4
3
1
1
4
-2
-7
-10
1
1
11
10
10
11
3
-3
8
17
13
10
12
6
5
7
9
11
7
14
14
9
26
26
21
22
26
27
28
32
31
32
35
32
29
22
33
37
35
43
42
48
48
43
50
63
50
51
50
53
63
60
60
53
43
54
58
64
66
59
58
54
50
46
41
42
39
34
27
29
29
35
29
19
10
10
17
16
13
18
6
1
7
-2
1
1
1
4
1
-6
-2
4
1
-7
-4
-6
-5
-15
-11
1
-10
-10
-6
-5
-5
-8
-9
-13
-11
-8
-10
-5
-9
-6
-7
-14
-16
-21
-8
-11
-15
-3
-11
-11
-15
-10
-9
-6
-15
-20
-16
-15
-14
-17
-14
-1
1
-5
4
-6
-8
-5
-12
-9
-5
-6
-9
-7
-7
2
-2
-14
-7
-6
-4
-5
-12
-8
-15
-18
-17
-2
-4
-9
-4
-3
-2
-3
-5
-8
-2
1
-3
-11
-12
-11
-10
-3
-2
-6
-4
-6
-11
-9
-9
-3
-6
-7
-7
-14
-13
-4
-10
-14
-10
-10
-14
-21
-7
-1
2
-4
-8
-11
-8
-11
-16
-13
-4
-10
-5
6
-7
-21
-14
-10
-6
-8
-6
-7
-9
-14
-14
-10
2
5
-6
-6
-7
0
3
4
-7
-13
-11
-13
-11
-10
-8
-11
3
-3
-3
-1
-2
-3
-9
-1
0
-4
-15
-7
-13
-9
-6
-2
-4
-5
-4
-5
-2
-1
-6
-3
-13
-9
-11
-2
6
-5
0
-5
-3
-8
-14
-6
-6
-6
-5
-9
-6
-3
-11
-10
-9
-6
-9
2
9
1
3
0
-3
-9
-2
4
-1
-1
-1
3
11
4
9
18
18
10
8
7
7
13
22
10
9
21
25
19
20
11
9
19
23
11
7
6
-1
-8
-8
2
-4
-15
-17
-14
-3
-4
2
2
5
-1
-9
-3
-2
-11
-18
-7
-9
-8
-9
-8
-12
-9
-2
-1
-9
-11
-12
1
1
-8
-14
-16
-14
-22
-26
-19
-11
-10
-14
-5
6
23
48
65
98
125
150
176
198
223
248
232
192
141
101
36
-3
-14
-29
-29
-24
-14
-18
-20
-12
-3
2
-5
-10
-6
0
-6
-8
-19
-10
-5
-11
-20
-14
-10
-2
-6
-6
-1
1
-2
-17
-16
-11
2
-4
-6
-2
-10
-18
-16
-12
-4
5
3
-4
3
-3
-3
-4
-11
-13
-19
-12
0
3
3
-1
-6
-2
-3
-4
3
-1
1
-6
-1
6
1
2
4
-3
-11
-11
-6
0
6
1
0
0
-9
-9
5
11
11
17
17
5
7
20
18
24
13
13
14
11
17
20
26
20
23
22
27
35
33
36
36
35
42
43
49
48
46
44
45
44
47
58
54
54
53
54
55
52
49
52
52
51
57
46
40
40
39
49
47
40
39
33
25
21
11
18
16
14
11
17
12
9
7
8
7
9
4
1
-4
-7
-5
5
-1
-11
-5
-7
-9
-9
-6
-10
-13
-12
3
-1
-3
-5
-9
-6
-7
-12
-11
-11
-3
-10
-6
1
-4
-5
-11
-7
4
-13
-16
-10
-21
-19
-13
-7
-6
0
5
-16
-15
-11
-19
-13
-7
-16
-18
-5
-3
-7
-11
-9
-7
-11
-15
-14
-16
-12
-7
-4
-8
-15
-26
-15
-10
-4
-1
-3
-5
-6
-8
-7
-13
-9
-7
-7
-8
-13
-17
-15
-11
-7
-7
-6
-5
-7
-11
-6
3
-11
-12
-4
-7
-14
-7
-4
-15
-12
-13
-15
-15
-13
-18
-7
-1
-8
-7
-4
-4
-10
-14
-14
-9
-8
-4
-14
-16
-13
-9
-12
-6
-11
-15
-12
-12
-13
-7
-1
-10
-11
-16
-12
-9
-16
-7
-5
-8
-10
-17
-15
-16
-8
-2
-5
1
-1
-21
-15
-21
-12
-5
