140
142
138
143
145
138
144
142
139
143
143
141
142
140
138
139
146
142
143
141
142
145
138
143
145
138
141
142
137
143
150
150
142
138
141
135
144
155
145
151
145
139
143
143
142
143
142
148
142
146
149
141
146
138
143
146
146
147
146
142
146
146
145
146
142
138
143
146
144
146
144
141
141
148
141
143
141
142
146
145
144
142
135
141
139
139
146
143
138
141
141
141
147
143
143
146
144
148
147
148
144
146
136
130
136
141
150
138
138
145
150
152
147
145
147
146
143
149
150
151
150
146
147
147
143
147
152
146
150
161
160
158
155
154
156
154
151
158
154
156
154
144
141
144
136
142
145
144
137
142
146
143
142
139
137
141
134
139
135
139
144
145
145
144
137
141
144
136
140
140
140
140
139
140
146
138
140
144
137
132
137
140
139
137
130
123
114
140
146
158
171
192
223
255
272
290
290
267
246
228
221
198
173
134
94
82
93
108
118
131
127
135
146
142
139
140
139
138
138
139
138
134
137
132
129
142
137
139
137
134
136
136
133
135
138
140
141
142
132
140
142
132
132
142
137
144
141
144
138
141
134
140
141
140
138
139
133
134
143
144
148
142
144
144
140
140
143
139
148
144
144
144
143
141
139
139
135
142
141
153
157
148
152
140
156
152
146
149
159
160
157
159
158
154
158
162
162
159
165
168
168
168
168
173
177
166
177
183
182
181
180
181
184
182
179
183
181
184
185
182
178
178
175
182
185
182
174
185
175
172
165
172
169
164
158
155
153
159
158
158
154
153
152
148
146
149
151
145
148
149
148
145
148
145
149
147
145
143
142
146
146
144
146
143
144
143
145
142
143
143
142
141
139
145
146
143
144
144
147
143
146
140
145
147
149
143
144
144
142
149
144
141
141
149
149
146
146
149
151
146
137
142
145
141
141
146
146
151
149
145
150
145
147
140
146
149
146
138
143
139
144
148
147
141
149
147
147
149
142
144
148
148
135
153
147
147
146
145
148
149
151
153
145
145
147
146
148
146
145
148
145
148
144
141
144
147
143
146
146
142
145
146
147
149
149
148
142
148
145
144
146
138
139
146
143
147
143
149
149
145
148
147
147
149
147
145
145
140
142
129
147
159
146
145
146
147
146
146
152
144
145
146
142
147
148
141
141
151
149
143
147
144
147
153
153
148
148
144
150
150
148
155
158
152
161
157
156
151
154
156
152
153
162
149
162
159
155
151
153
144
144
143
145
140
143
136
134
144
154
146
141
149
149
143
147
143
144
143
140
140
142
135
137
143
141
143
145
153
149
141
145
141
142
140
137
145
142
141
132
132
126
127
133
140
155
176
208
239
264
281
291
294
270
249
238
226
205
181
144
106
95
100
122
134
137
142
143
139
143
143
131
136
146
137
137
140
138
139
137
133
134
139
141
141
142
135
138
140
139
143
139
141
139
136
142
139
137
138
133
141
141
145
141
140
142
143
145
140
139
136
135
131
133
148
142
140
149
143
141
137
147
131
130
141
134
144
157
156
150
151
146
145
150
153
149
155
152
150
151
150
149
153
150
156
153
158
159
160
162
161
161
163
164
170
170
172
171
168
173
175
172
182
180
177
186
180
183
184
184
177
183
180
188
190
190
183
190
191
191
191
181
181
183
177
177
175
177
168
169
165
162
162
161
152
154
155
153
156
152
149
151
153
145
149
148
146
151
146
151
146
144
142
144
146
147
144
144
145
141
139
146
143
144
141
145
149
152
142
148
144
149
142
146
147
143
145
143
145
144
145
140
141
147
146
150
149
142
144
143
143
140
148
145
142
145
146
146
147
140
140
149
144
146
146
144
152
148
139
136
135
142
148
151
146
140
143
151
145
150
144
143
145
140
147
144
144
147
149
144
143
146
146
149
144
144
147
148
142
145
140
144
147
152
148
142
145
151
142
148
140
145
139
146
146
145
142
142
145
145
137
145
145
145
150
142
143
146
143
144
145
137
143
149
142
144
139
138
140
148
137
143
144
149
147
143
144
143
148
144
144
144
147
140
145
139
149
144
147
142
142
141
142
146
147
147
143
144
141
138
145
143
148
144
147
146
142
141
143
144
152
148
148
148
151
147
147
147
151
150
148
151
157
158
148
156
157
157
157
151
151
159
161
148
152
146
144
142
140
147
143
142
137
145
146
141
140
142
134
135
147
144
144
140
143
136
141
138
140
142
138
144
137
137
136
138
144
139
142
139
138
138
134
132
136
141
139
133
129
121
124
138
143
157
167
203
239
269
284
295
304
286
251
235
228
202
174
138
94
77
99
119
124
134
141
135
140
135
144
137
136
137
138
135
130
136
132
133
134
131
135
138
137
137
137
135
133
131
132
131
129
147
141
134
138
131
132
135
138
136
137
142
141
140
140
136
141
136
137
138
137
142
142
146
141
141
137
136
139
139
141
145
145
142
141
139
142
145
144
142
146
145
144
147
147
147
147
143
143
146
145
158
157
154
154
151
152
158
153
159
155
162
168
168
163
169
169
170
171
174
171
169
176
181
187
183
185
186
180
186
185
188
192
187
186
174
184
183
182
174
168
172
172
167
178
173
172
167
163
160
158
161
153
158
152
150
150
151
148
148
149
148
146
143
144
134
144
141
147
136
150
142
144
144
139
148
147
144
142
147
146
142
138
144
141
142
140
141
144
145
134
137
137
147
144
141
137
138
145
143
141
139
142
145
137
133
138
146
142
140
140
138
141
144
140
143
144
140
142
139
141
144
135
138
146
141
140
141
145
143
151
145
144
147
143
142
138
141
142
138
137
141
149
142
146
134
141
143
150
148
144
137
141
145
138
136
144
144
145
142
139
148
143
139
142
143
139
132
143
142
138
145
140
142
139
136
140
145
143
139
138
141
144
146
138
139
139
134
134
140
139
149
148
146
138
127
138
141
142
140
147
143
141
149
144
146
139
136
141
141
143
140
140
139
134
137
139
141
141
143
143
138
142
143
140
139
129
136
142
143
134
135
142
143
134
134
137
138
141
144
139
135
138
135
144
135
139
143
137
143
144
141
140
136
141
144
138
146
145
141
136
146
149
143
144
147
143
142
151
149
150
151
153
149
145
143
148
154
154
155
152
147
146
142
138
133
130
122
143
141
142
143
141
138
137
138
135
136
128
140
132
141
132
129
136
141
132
136
132
135
134
138
135
133
134
135
136
134
138
133
136
135
135
134
133
125
128
118
117
110
132
143
146
162
176
210
241
281
294
300
286
263
233
229
214
185
155
108
72
77
100
114
122
136
129
134
136
132
133
133
133
130
128
130
130
129
128
127
128
122
118
128
130
140
134
129
133
131
140
128
133
131
135
129
128
133
135
133
130
133
127
126
134
136
132
124
134
131
137
137
138
136
134
136
135
133
134
134
133
129
129
133
125
130
139
138
134
138
137
139
131
133
137
138
138
132
139
140
141
137
131
131
148
154
144
150
150
145
154
155
149
157
156
159
156
162
158
161
162
158
158
158
166
174
172
173
170
168
180
175
176
179
178
172
176
175
172
176
172
167
168
167
161
164
158
160
162
158
154
155
157
148
144
148
143
140
140
139
136
139
141
132
142
141
136
131
125
133
132
141
136
134
129
124
131
135
128
143
132
133
131
126
135
137
135
133
130
132
130
136
135
133
130
127
126
136
136
134
131
133
133
125
133
130
129
128
134
130
136
134
129
130
135
135
130
133
139
140
126
132
135
134
134
135
134
129
133
137
133
136
134
135
124
135
135
136
136
136
133
136
137
134
130
130
131
131
134
132
132
137
134
134
132
136
132
130
138
133
138
131
127
137
133
133
124
119
136
140
135
132
134
130
135
132
133
135
140
131
129
132
126
136
132
135
131
133
130
128
140
138
130
128
138
132
131
131
134
134
132
134
131
128
131
129
133
125
130
134
125
139
128
126
123
122
132
136
140
138
138
130
128
132
131
132
129
133
131
134
132
132
123
128
135
132
128
138
132
135
133
134
132
132
129
123
129
132
134
128
129
134
131
122
135
134
134
130
133
138
137
130
143
135
134
133
126
134
143
140
139
141
148
145
145
148
143
146
141
141
146
144
141
136
134
137
130
124
129
129
128
130
129
133
130
131
131
127
131
131
124
128
126
123
124
131
131
130
124
128
130
127
129
128
130
124
126
124
127
128
130
126
124
126
124
127
128
128
125
121
114
113
111
115
121
128
144
168
192
227
254
272
284
268
249
217
208
194
177
141
103
68
59
80
97
109
107
116
128
126
121
119
109
117
123
124
124
122
116
117
119
120
113
117
119
123
122
126
122
127
121
119
119
121
121
122
124
123
120
127
124
120
119
121
121
118
118
122
125
127
128
128
126
126
125
124
121
128
115
128
126
130
127
127
116
128
126
123
127
119
122
131
130
138
122
119
135
133
137
135
133
132
131
134
139
137
137
140
137
141
147
143
144
146
144
148
151
150
150
155
153
154
159
159
158
165
161
162
163
166
165
163
164
165
168
167
169
166
167
164
159
159
164
156
154
155
157
150
149
154
147
149
142
145
138
140
140
134
131
136
131
128
125
127
122
128
128
126
129
131
128
119
126
123
122
121
121
127
125
123
126
123
123
120
121
120
117
116
121
126
121
119
124
128
119
119
127
120
115
115
124
125
122
116
119
124
126
125
126
123
126
121
121
121
118
120
120
124
124
124
125
123
122
124
123
125
126
120
117
122
123
126
125
124
124
125
124
121
122
130
121
127
126
117
119
114
126
123
123
125
128
129
124
116
113
133
126
122
124
122
120
121
125
124
122
124
121
124
123
117
123
121
121
125
124
119
120
118
115
120
121
109
118
126
126
121
124
118
119
127
126
118
122
117
115
122
126
123
112
123
118
118
121
122
124
117
122
120
121
121
113
113
121
125
120
122
137
129
128
120
129
128
126
126
123
129
132
132
132
137
136
135
133
132
131
134
130
124
125
125
119
122
110
115
121
119
116
118
117
120
125
115
112
121
117
113
121
114
123
122
114
104
120
124
120
117
119
117
119
109
110
119
120
116
118
125
120
116
113
122
124
116
107
111
109
104
103
102
111
120
126
141
163
196
230
244
263
268
242
226
202
197
175
150
123
80
55
58
76
85
95
106
115
114
117
117
109
113
106
113
112
107
108
110
113
110
115
110
108
106
115
113
101
109
112
102
114
112
111
112
111
111
113
110
112
115
118
105
108
114
111
107
111
117
118
110
119
113
110
119
122
124
121
120
110
113
119
113
122
122
122
127
129
122
127
130
124
129
126
135
137
139
128
136
136
136
136
141
136
148
150
149
142
147
158
155
152
157
157
155
151
155
147
155
157
155
145
154
163
162
152
152
142
139
144
137
128
132
129
129
137
125
130
130
123
126
121
118
111
118
113
109
114
120
120
112
112
110
101
107
113
122
114
108
111
113
113
115
113
109
111
104
108
100
104
108
108
117
113
114
110
110
110
109
104
106
110
105
114
110
112
109
110
111
116
112
119
106
106
106
111
108
116
114
108
108
106
106
101
113
112
107
111
116
113
115
109
111
113
116
108
108
114
112
111
108
114
113
113
111
110
111
109
110
109
109
109
116
112
117
108
113
116
105
105
104
115
116
120
113
110
104
106
103
115
112
109
106
107
115
115
114
110
115
110
106
107
109
116
113
112
107
107
107
106
113
115
112
107
113
112
108
107
104
106
116
114
107
112
112
111
108
112
111
108
106
110
112
108
113
109
107
110
108
111
113
109
109
109
114
112
109
102
97
90
103
110
114
114
106
104
104
111
114
114
114
110
106
111
106
110
111
108
108
112
108
105
111
120
118
116
114
114
110
117
116
119
119
114
123
125
121
119
117
119
120
119
120
118
117
122
118
111
112
112
98
106
115
110
107
110
108
112
108
111
107
96
102
108
109
102
111
109
106
105
108
110
106
105
111
107
108
107
108
105
94
100
112
109
113
105
102
103
101
93
82
85
91
93
114
131
151
171
197
231
255
270
271
234
203
198
196
167
134
101
66
61
67
81
95
100
101
104
100
102
107
103
104
98
102
99
98
102
102
97
100
102
104
104
106
99
103
102
92
99
103
98
103
103
100
104
105
100
97
102
106
101
99
106
107
105
106
104
99
109
101
101
104
101
105
98
104
106
111
109
104
106
109
111
106
99
100
112
107
104
108
108
115
116
111
109
115
110
107
109
113
123
115
119
117
115
120
110
117
114
116
122
128
127
129
129
125
126
136
135
139
137
142
137
138
137
145
143
144
147
147
146
141
145
150
148
154
153
155
147
150
149
141
137
133
135
142
135
133
128
132
131
129
124
118
116
126
118
119
116
113
117
111
113
110
112
105
107
106
103
104
112
107
103
108
105
106
104
102
105
104
108
107
105
94
102
109
103
107
103
108
109
107
102
104
106
106
109
108
104
100
100
108
104
103
102
110
104
109
109
104
107
105
102
103
107
105
99
107
102
98
106
108
110
105
107
104
103
101
105
112
102
105
103
94
98
107
103
109
111
108
104
106
108
107
101
101
105
102
102
107
102
115
109
107
107
106
101
106
102
105
105
106
107
105
103
105
106
103
104
103
102
108
102
102
103
103
105
103
101
103
105
101
105
103
100
103
97
107
102
105
99
104
99
105
106
100
106
107
106
102
105
100
94
94
99
95
104
109
104
101
105
103
101
96
96
96
94
101
101
106
105
102
100
105
102
102
99
100
100
105
99
100
94
87
93
114
104
103
95
100
101
102
103
103
104
96
106
108
105
103
106
105
102
103
104
109
105
110
108
114
111
102
118
118
112
106
104
109
115
113
106
110
107
99
98
99
97
98
102
96
89
93
96
99
97
102
100
99
100
91
100
100
96
96
99
100
96
94
98
91
88
89
91
99
102
98
99
99
96
93
95
103
91
87
87
81
88
80
89
93
101
125
159
183
212
237
258
264
237
216
194
178
165
135
99
57
36
44
72
81
84
90
91
96
91
92
92
88
94
94
87
88
93
84
88
91
91
91
91
88
87
87
93
92
92
88
98
92
95
93
90
89
94
91
91
91
91
92
86
91
89
94
92
93
89
91
90
96
93
92
93
98
97
93
92
96
98
89
94
100
98
88
95
96
97
96
96
95
99
101
96
91
99
102
106
102
100
95
106
102
106
96
112
114
119
117
117
115
113
121
120
113
118
115
116
121
131
131
129
135
128
133
135
131
133
130
141
142
139
137
136
135
137
141
133
134
136
136
132
130
124
119
122
118
114
112
113
111
109
108
108
106
92
99
104
103
100
89
102
98
82
94
103
98
97
98
94
95
100
96
91
91
88
91
92
94
92
93
92
90
89
96
92
95
90
88
94
96
90
91
91
88
90
96
88
88
92
80
86
83
93
88
79
93
92
93
86
92
95
94
94
90
91
91
97
90
97
91
83
88
97
96
92
90
94
93
96
96
89
89
87
92
95
93
88
89
89
90
87
87
95
90
74
87
99
94
95
95
96
93
94
88
83
87
85
84
87
92
101
94
95
93
89
88
93
90
88
90
88
91
89
86
87
85
95
85
97
91
92
90
90
90
89
88
84
91
80
93
94
92
89
80
87
91
92
91
92
92
91
81
87
87
87
90
91
82
86
94
90
83
84
90
94
89
93
91
87
94
87
86
87
89
84
90
94
91
88
84
84
89
93
86
89
84
95
88
88
87
89
87
90
85
88
87
84
83
95
87
85
91
88
88
85
90
94
94
92
91
90
91
90
89
93
101
105
102
101
102
101
97
95
99
103
99
97
92
95
100
84
87
78
80
84
83
84
94
89
87
86
85
83
81
88
82
81
84
83
93
84
86
83
78
83
90
85
83
83
85
78
83
77
81
81
85
82
87
84
79
80
78
70
65
56
64
80
91
114
142
165
191
221
238
249
223
208
171
171
151
127
90
41
27
29
49
58
72
78
82
82
81
74
71
76
76
81
86
79
71
76
82
80
78
76
78
75
75
78
68
74
85
79
77
78
74
80
83
84
81
77
73
77
77
78
78
82
86
80
78
78
78
75
80
82
83
81
81
79
79
83
82
84
79
86
83
81
86
84
83
87
86
89
81
85
85
85
90
94
87
87
88
95
93
93
92
98
92
94
96
101
96
96
94
104
110
107
108
105
106
111
103
107
117
111
109
121
124
123
117
115
120
130
125
125
125
127
131
129
124
122
127
121
130
124
121
119
123
117
115
109
109
104
103
102
103
97
93
102
98
97
94
95
91
88
96
86
89
85
82
87
87
86
79
83
91
86
84
77
86
81
83
78
86
85
86
88
88
85
83
82
87
83
75
80
75
75
94
87
84
77
83
90
85
87
83
87
80
82
85
85
77
81
86
93
84
83
82
85
81
86
84
87
81
86
82
80
81
77
80
78
80
83
87
89
86
86
91
85
83
80
77
88
85
83
86
82
83
81
83
87
86
86
85
83
85
85
86
81
85
83
83
83
81
82
79
84
80
73
77
79
76
82
76
83
91
87
85
81
85
82
79
79
83
84
76
78
84
86
88
84
85
80
78
80
83
85
80
79
86
77
76
84
81
82
80
84
84
78
74
79
76
80
69
75
80
91
84
81
82
73
82
85
84
85
82
87
96
81
86
85
89
87
83
87
86
88
92
95
92
95
93
88
90
94
96
94
92
93
94
82
79
80
79
78
82
84
76
83
83
82
83
78
77
79
81
75
74
69
72
77
91
85
78
78
79
79
75
76
74
80
78
76
72
72
76
83
81
80
82
72
79
76
81
76
70
68
61
68
75
89
102
125
151
183
208
223
232
201
188
171
158
144
117
85
41
17
17
27
49
63
69
73
77
74
74
77
74
78
74
71
72
70
75
72
72
72
72
72
73
76
76
77
75
73
72
72
73
78
76
80
75
77
79
73
68
81
76
73
74
84
85
81
76
79
80
78
77
73
79
74
79
82
83
83
78
75
86
83
80
79
80
82
82
82
85
81
77
89
83
81
86
84
87
90
85
82
86
88
93
96
91
92
104
98
101
90
93
100
105
106
102
108
112
108
110
109
108
109
116
115
121
118
121
123
120
118
119
124
119
118
127
122
121
122
117
118
109
113
113
106
111
106
105
110
100
99
94
93
89
81
90
90
90
83
78
82
77
76
82
79
71
91
89
85
87
82
79
85
78
84
83
80
87
78
78
74
76
81
81
80
78
78
78
80
81
73
76
80
79
77
76
71
76
82
78
77
76
78
73
76
77
80
80
78
77
76
75
76
73
68
66
79
78
80
77
77
80
81
79
70
75
90
82
82
80
81
83
76
79
77
76
77
78
80
77
81
80
84
81
80
79
81
79
77
71
77
76
79
82
83
76
76
77
82
80
73
68
75
81
79
63
75
82
74
72
79
77
71
76
83
73
76
76
76
83
80
74
80
82
79
76
78
75
75
75
76
75
77
79
72
74
78
82
80
81
78
83
72
76
79
80
84
85
81
79
77
75
85
88
88
88
87
80
90
89
89
89
86
89
87
86
94
87
82
73
71
75
80
75
76
75
77
79
76
56
83
69
73
71
77
62
71
76
75
73
77
80
79
76
72
75
80
76
72
69
70
70
69
68
80
75
76
74
68
74
71
72
72
66
59
56
59
68
68
94
105
129
162
188
210
216
202
178
155
159
137
106
69
42
8
9
24
56
65
66
68
66
70
69
64
63
60
68
71
70
68
65
64
70
67
68
70
67
68
66
66
66
66
64
68
65
68
70
68
68
65
71
69
66
65
64
71
70
65
63
64
66
70
68
70
70
71
76
73
69
65
61
77
76
67
73
76
80
79
69
72
77
77
78
79
77
72
76
76
76
76
75
78
77
75
83
83
78
82
85
83
86
88
87
87
91
93
88
91
88
96
104
99
97
105
103
105
108
107
108
107
111
110
109
112
113
112
110
112
112
111
110
96
105
112
110
105
105
99
99
95
95
90
87
87
93
90
84
84
79
75
80
77
75
74
71
73
70
72
68
76
79
74
66
66
64
81
75
68
65
78
74
69
57
72
76
68
65
76
72
75
71
70
72
72
61
61
70
73
66
67
73
74
71
71
72
73
67
69
66
70
68
67
64
71
72
67
71
67
66
66
65
59
76
72
70
69
74
68
69
69
68
72
74
71
67
63
67
74
60
69
74
70
76
77
72
73
71
69
68
73
77
74
70
68
62
64
69
72
70
67
58
78
69
71
73
72
71
68
67
69
59
63
70
68
68
61
61
75
70
69
71
73
74
73
74
72
72
65
67
68
66
64
61
62
77
70
61
63
75
66
73
71
75
72
75
78
73
77
74
78
77
77
78
74
92
85
79
76
78
81
75
79
78
76
71
66
68
69
72
66
65
64
62
65
64
63
65
60
57
64
77
72
61
68
66
65
62
57
63
67
65
65
57
61
64
58
54
68
65
72
71
65
70
73
66
65
68
58
59
58
53
48
46
57
63
76
96
122
152
182
194
213
211
183
156
151
139
107
83
49
13
-3
17
45
48
57
61
64
63
62
51
48
63
67
64
57
60
60
58
60
55
58
54
60
70
65
61
60
60
49
55
67
58
58
62
67
61
61
64
61
60
65
63
60
59
62
61
60
63
65
65
65
61
60
65
60
55
56
61
67
57
67
65
62
62
61
70
70
68
68
62
61
75
77
68
68
72
71
70
72
73
79
81
74
73
71
77
76
76
82
82
83
85
85
80
86
92
93
87
100
97
95
94
97
96
96
95
99
102
100
102
102
101
92
99
104
108
109
109
106
101
95
88
93
95
92
83
90
90
85
78
82
79
74
80
76
70
73
68
71
67
69
66
72
67
68
66
64
67
67
65
69
63
65
63
60
61
62
61
53
55
58
52
55
75
72
68
65
66
64
64
60
61
64
65
63
60
59
58
57
58
65
57
59
63
61
61
61
57
67
64
65
65
62
63
66
63
62
66
61
59
61
54
56
73
67
65
65
65
64
61
65
64
64
61
55
40
54
60
75
72
69
66
59
57
64
65
65
60
64
62
59
57
61
63
54
57
63
65
61
59
60
63
61
56
52
45
56
68
81
69
68
63
61
58
59
64
63
61
62
47
55
71
61
57
65
61
60
58
66
61
58
58
59
60
60
59
61
61
62
61
56
57
59
62
57
55
56
64
55
64
54
63
70
69
61
63
65
66
70
68
68
65
64
69
68
72
74
76
77
70
66
71
72
75
68
68
65
66
59
57
59
59
58
60
59
55
52
62
62
58
59
55
62
55
54
47
43
52
65
62
67
60
58
60
59
56
58
57
57
56
52
47
57
61
57
57
55
54
59
61
47
46
40
38
38
48
63
78
91
121
151
183
201
211
204
188
157
142
132
111
83
44
11
-2
14
31
50
50
53
61
60
55
42
43
38
56
58
56
52
54
54
48
51
42
46
47
46
55
60
56
53
49
57
52
55
50
45
51
53
59
52
59
56
50
54
54
51
57
53
44
48
59
59
52
55
57
55
54
62
59
58
56
54
54
58
57
52
51
53
58
62
55
57
56
55
58
57
57
61
64
64
64
58
52
63
74
70
70
72
68
66
63
68
71
76
82
78
82
87
85
86
87
81
82
87
85
88
90
98
91
94
94
94
94
111
102
97
99
93
94
92
90
93
97
94
91
87
85
80
72
72
79
81
83
70
71
74
62
58
72
67
66
60
61
60
60
56
59
63
60
59
58
60
57
59
58
55
57
61
56
57
58
57
58
51
50
56
57
52
42
54
61
54
60
60
57
52
61
50
45
52
55
58
54
53
57
58
52
51
52
67
63
56
50
57
54
53
56
57
54
54
51
54
58
56
49
58
56
50
57
54
60
55
56
59
54
61
51
50
54
51
55
51
50
64
60
55
58
56
57
52
44
46
34
52
64
64
61
56
55
56
54
55
54
59
59
56
55
54
47
48
47
56
67
61
59
62
51
55
50
53
54
53
55
59
55
56
54
49
50
55
53
54
55
47
40
45
44
52
54
62
57
54
52
57
62
61
50
50
54
48
44
47
51
57
54
53
57
57
58
50
42
49
61
55
49
51
53
49
56
52
49
41
53
65
52
60
49
56
53
50
43
52
54
61
56
51
49
46
49
58
50
53
47
54
54
54
57
60
54
47
52
49
51
49
47
54
52
50
52
48
47
54
52
53
50
51
57
53
47
56
55
50
52
55
52
44
62
51
43
64
66
62
61
63
62
65
64
63
61
60
61
66
60
63
68
66
65
59
56
51
49
50
51
46
45
46
36
41
51
55
56
52
42
50
49
40
30
46
55
52
51
53
53
49
50
49
50
50
45
51
47
47
46
42
40
41
44
51
45
48
55
55
50
47
34
31
28
41
44
56
75
102
130
154
185
200
213
211
176
140
137
125
104
64
23
3
14
30
35
41
46
48
43
41
38
33
26
39
42
54
45
46
40
45
47
43
41
43
42
42
44
42
44
44
46
43
42
41
41
38
41
25
30
58
48
48
46
49
44
40
44
44
47
43
42
43
40
49
47
44
42
39
43
34
41
43
40
57
49
48
49
43
56
57
52
46
45
45
45
43
41
39
31
65
57
60
61
60
61
56
58
65
62
61
59
61
64
60
68
63
65
66
67
63
75
83
78
79
80
81
89
83
85
86
86
87
90
88
90
90
87
88
72
53
87
87
94
92
82
81
77
81
82
79
77
77
65
68
62
62
56
58
49
52
56
52
62
58
53
53
52
53
51
52
49
48
49
45
50
48
50
51
50
48
51
46
44
41
30
9
39
64
62
54
53
53
49
48
47
51
44
48
46
45
46
43
39
36
30
48
56
52
50
45
50
49
49
45
47
45
49
45
48
47
44
46
43
41
34
28
26
41
54
53
49
50
45
49
43
51
50
49
47
48
42
43
38
38
37
50
45
52
47
42
50
47
48
44
49
46
41
43
48
47
45
47
37
39
40
34
37
46
54
49
50
46
45
46
49
41
37
49
45
43
36
45
49
45
45
45
45
45
46
48
45
48
44
43
38
35
37
46
40
35
49
36
46
44
45
46
40
48
46
45
41
39
41
40
34
36
45
40
43
50
39
43
40
48
41
45
48
44
39
41
35
43
44
45
46
45
37
40
48
43
39
41
41
45
40
36
40
43
42
48
49
43
40
39
45
48
44
37
40
41
37
31
35
36
41
53
44
32
42
40
47
44
42
39
43
43
33
44
40
32
36
26
27
47
47
49
45
44
45
49
43
42
38
47
42
43
41
40
39
40
38
33
22
37
39
49
40
38
49
46
42
40
42
40
36
40
44
43
50
45
47
44
39
41
38
42
43
41
38
54
48
54
57
51
56
57
57
57
56
51
53
42
43
38
37
36
32
32
28
30
43
35
43
35
40
41
40
36
37
37
39
41
40
34
39
33
33
31
30
25
24
37
38
38
39
41
40
38
37
33
37
35
37
36
35
34
29
13
5
15
10
29
37
52
71
91
121
152
178
197
203
191
168
142
132
109
94
59
17
-11
-6
5
11
16
16
18
37
29
33
41
40
32
35
36
34
29
32
30
27
28
30
27
27
27
34
31
33
33
32
31
31
34
33
37
29
26
27
26
27
23
25
26
29
28
34
34
29
28
27
22
20
29
43
38
34
41
37
35
24
34
33
32
29
26
21
26
30
39
45
38
36
39
40
37
33
39
36
37
40
40
36
39
40
41
40
42
41
44
50
53
49
48
47
53
56
58
59
61
59
58
52
65
52
59
72
75
72
79
68
61
83
79
74
73
72
84
79
79
76
75
70
72
71
70
76
71
65
62
58
56
54
50
47
54
52
45
46
46
43
40
39
37
25
36
50
45
37
34
34
31
33
36
37
38
34
39
38
29
22
33
40
31
41
42
33
34
33
30
31
38
34
30
29
34
34
34
32
26
29
42
38
33
30
31
29
32
32
27
27
35
34
33
32
30
39
41
29
23
32
32
34
32
34
34
28
25
32
36
33
28
21
28
44
36
31
36
34
32
31
30
25
32
17
29
37
37
40
32
37
36
31
30
42
38
35
33
28
33
22
38
33
36
31
34
30
34
32
32
31
33
32
28
35
28
35
33
29
32
29
32
26
28
25
30
33
35
34
34
32
34
31
34
33
33
34
25
19
26
32
36
36
33
31
36
41
30
25
32
32
38
33
29
32
39
34
28
32
30
33
30
28
30
32
28
31
31
33
20
23
39
35
32
31
32
38
33
33
32
30
30
24
28
30
26
32
34
28
26
30
29
38
37
35
33
29
30
31
24
35
36
29
28
37
29
33
30
35
29
30
25
25
35
34
29
37
36
28
22
25
36
34
32
34
30
33
33
36
30
29
16
19
37
38
38
33
32
26
32
28
22
36
33
33
33
39
34
32
32
32
18
28
31
29
36
28
37
30
32
29
25
30
33
30
34
26
18
31
34
33
38
34
32
34
32
30
25
35
39
35
34
34
42
35
37
38
33
48
46
44
41
40
47
32
44
46
48
40
39
36
29
28
36
24
32
35
29
31
23
31
30
27
31
28
28
31
29
20
31
28
29
27
34
34
31
32
22
25
26
26
17
19
36
37
29
24
22
23
31
31
25
26
27
25
28
18
13
5
16
23
38
52
63
105
134
164
181
186
191
166
135
121
108
83
60
13
-21
-22
-2
4
13
21
27
21
27
22
27
17
22
29
25
22
24
26
24
19
16
14
14
20
25
21
24
28
24
22
23
21
20
18
22
26
21
19
26
17
22
27
21
21
22
27
30
26
24
25
23
21
21
21
13
1
23
45
25
32
29
27
31
27
27
31
33
30
21
20
25
29
34
34
27
33
31
36
35
32
32
35
34
35
36
39
40
40
41
37
39
46
27
28
50
57
53
50
53
56
57
61
55
55
66
62
59
58
54
61
69
64
67
74
74
71
71
75
75
75
68
69
68
70
65
66
62
59
53
54
56
54
45
48
52
54
41
39
37
41
33
38
37
34
35
33
33
31
23
26
32
29
25
26
31
31
27
34
27
33
32
31
33
30
30
29
28
26
22
25
29
25
30
32
28
27
28
33
33
31
26
28
29
29
29
30
29
30
24
24
23
17
26
22
33
35
31
30
25
26
32
27
29
28
34
33
30
28
26
18
22
29
20
25
39
37
35
32
28
29
28
31
32
24
24
31
32
34
27
31
32
28
35
31
30
24
25
28
32
32
33
24
27
31
25
26
27
35
27
29
30
28
32
36
30
26
25
16
24
35
28
31
33
29
23
26
24
29
31
23
25
29
29
35
30
30
31
32
29
26
31
28
23
26
30
36
27
25
29
30
21
23
33
25
30
38
29
29
29
27
30
27
34
31
27
25
36
26
32
28
23
29
28
28
29
31
23
27
28
27
27
23
33
36
33
31
27
27
26
29
31
27
32
32
35
34
28
29
24
29
28
33
31
31
27
29
26
24
18
15
14
30
33
30
31
34
29
27
26
26
32
31
34
25
29
27
30
28
28
24
25
27
30
28
27
31
37
31
28
31
33
31
33
30
30
29
32
26
32
36
32
41
43
38
36
47
45
41
41
34
38
45
34
30
29
36
32
31
30
29
28
28
23
26
32
28
24
20
27
25
20
35
32
23
24
26
28
28
26
23
23
28
27
27
26
30
27
20
23
24
28
31
24
27
30
29
33
27
24
19
13
11
10
19
25
37
52
74
101
130
157
175
183
165
137
115
104
92
65
30
-16
-33
-29
-11
6
10
18
14
17
23
13
16
30
27
19
21
24
24
26
18
21
22
28
23
19
17
26
24
24
20
21
25
23
24
26
23
22
26
27
25
20
25
23
27
23
22
22
18
26
18
31
30
28
32
34
24
14
26
24
33
33
29
29
31
24
22
27
38
31
27
30
37
38
34
32
30
27
31
30
33
33
40
38
37
40
42
39
40
38
41
42
44
43
48
48
52
54
53
52
55
56
58
61
62
65
63
61
62
59
56
59
74
72
76
76
73
65
67
74
75
71
69
65
62
63
71
65
60
59
54
59
59
54
55
51
49
46
43
40
39
38
36
37
35
41
32
35
32
31
30
31
37
32
34
30
27
25
30
28
28
34
34
30
32
26
28
27
27
27
22
17
35
30
38
37
30
27
32
33
28
31
30
26
29
28
23
31
30
34
30
31
26
31
33
31
26
28
29
34
26
32
33
34
38
31
25
27
23
28
29
31
33
31
31
35
31
26
18
7
24
36
28
50
39
34
33
32
26
32
29
31
35
29
30
25
32
32
32
30
33
36
30
34
34
31
28
34
31
28
30
29
31
34
33
35
30
27
31
27
32
33
33
29
36
32
29
27
31
25
25
30
25
26
14
24
42
32
34
29
32
32
28
29
33
29
27
30
33
31
28
30
33
27
28
33
29
25
28
32
30
29
30
31
36
32
31
29
25
28
32
34
31
30
32
32
35
34
30
32
36
43
37
40
32
30
38
40
38
41
45
39
35
47
42
35
31
32
30
24
28
33
35
28
24
22
25
30
28
27
28
26
28
27
26
25
27
25
25
26
28
26
28
28
23
23
24
24
25
29
26
14
26
31
27
28
25
18
15
14
19
21
12
16
25
30
45
67
88
124
145
170
182
145
125
109
107
86
65
28
-17
-38
-30
-19
-5
3
18
24
25
31
25
22
27
20
18
20
15
12
22
21
18
24
19
16
16
27
20
18
22
20
19
21
23
27
29
20
24
25
22
22
23
23
25
29
18
28
23
27
20
23
29
29
29
21
22
33
27
24
26
31
24
21
32
32
31
31
26
28
22
31
32
30
30
24
22
20
26
33
40
38
41
39
37
41
38
39
36
36
39
43
46
45
42
43
45
52
55
53
51
56
54
58
64
63
56
61
65
67
64
59
67
73
74
67
66
60
71
70
72
68
65
72
64
59
60
60
57
59
58
57
53
53
53
47
45
45
41
37
35
31
39
39
31
19
25
39
35
32
37
33
31
33
30
30
33
30
30
32
25
27
30
31
32
27
27
25
27
26
26
27
23
24
25
7
25
31
24
33
39
30
32
31
29
28
24
23
26
27
26
27
28
31
31
23
29
30
29
29
24
25
31
29
29
24
26
27
25
32
36
29
30
31
30
25
34
30
25
28
23
35
24
27
34
34
35
26
17
22
34
34
31
28
36
35
31
32
31
27
30
27
33
32
34
28
24
22
27
31
27
31
29
30
27
28
26
29
27
30
30
29
30
25
28
25
31
29
28
27
31
34
30
25
32
22
13
10
41
43
31
21
24
37
30
18
30
39
36
33
35
32
35
44
35
36
44
39
42
42
40
42
39
42
39
39
37
36
31
26
22
26
25
27
22
29
25
27
24
27
29
29
26
23
22
27
26
27
26
29
21
21
28
29
25
22
21
24
22
26
22
27
26
21
24
23
28
24
23
21
19
12
7
7
17
18
33
50
66
91
129
159
172
180
163
144
115
112
87
65
36
-11
-29
-29
-15
-2
4
7
19
28
29
28
24
22
19
18
18
19
21
22
18
20
20
18
19
22
23
19
24
21
18
24
23
19
20
25
19
21
24
19
21
22
22
27
20
23
24
24
24
19
20
13
19
22
28
28
25
24
30
27
31
32
28
25
28
31
24
22
26
29
29
23
35
31
28
29
29
27
28
28
34
33
28
33
36
44
37
37
37
40
42
43
38
50
44
39
41
48
59
53
59
57
60
51
54
66
61
59
71
67
65
67
65
67
67
65
71
75
70
70
69
67
68
65
64
64
64
58
57
52
51
47
49
45
42
32
41
35
42
35
38
35
32
32
26
26
28
31
38
31
34
29
26
23
29
32
31
27
24
25
27
29
24
25
30
25
28
31
26
28
24
28
25
22
30
28
27
26
30
30
31
27
25
25
28
15
26
28
26
23
25
27
23
28
26
12
18
39
32
26
28
30
27
24
28
28
28
28
30
26
20
7
27
38
30
30
27
27
31
30
27
31
29
24
24
24
19
15
29
34
31
34
35
28
29
27
28
29
25
28
28
19
23
35
33
20
28
31
19
25
37
31
27
31
26
23
24
22
21
23
27
27
24
21
28
29
29
25
29
29
26
23
24
27
27
12
19
18
34
34
23
21
28
31
30
27
26
24
32
32
30
26
21
21
30
25
31
27
30
28
27
18
18
10
25
27
29
35
31
31
29
28
28
31
31
29
30
30
28
28
28
34
34
44
36
36
43
36
35
43
42
40
34
37
41
37
30
22
16
28
31
29
23
31
27
25
23
28
28
28
28
22
23
18
17
21
20
28
26
29
27
24
17
22
23
24
21
17
26
27
23
23
25
27
22
22
21
22
23
21
14
6
6
11
20
33
49
75
104
137
169
186
181
162
146
119
116
90
73
35
-11
-32
-18
-4
10
12
11
17
22
28
19
24
25
19
18
16
21
19
18
18
19
16
15
18
11
19
28
21
20
17
13
16
19
22
23
25
22
18
21
22
19
16
9
20
23
23
25
25
24
23
24
18
16
25
22
19
24
24
28
19
11
24
28
25
21
28
29
22
27
25
27
19
14
25
26
35
36
32
32
30
37
32
36
30
32
34
35
35
36
40
42
41
41
41
46
42
45
32
48
61
52
51
60
56
58
67
63
64
65
66
64
61
58
67
70
63
59
64
65
69
73
72
72
63
63
60
56
58
55
52
50
52
50
47
43
33
40
36
37
37
36
26
26
27
32
33
28
31
34
31
27
30
24
24
23
22
24
29
26
28
26
22
27
31
21
17
23
25
35
22
23
27
31
25
24
23
30
26
22
22
24
27
29
23
26
26
28
28
24
23
27
28
25
22
27
31
29
28
24
27
22
28
26
31
21
25
26
18
27
22
25
25
26
15
24
16
15
33
30
32
23
34
30
27
28
26
25
30
25
27
27
23
24
24
28
23
31
32
29
28
28
30
27
28
26
19
26
28
27
25
22
25
25
27
25
21
31
29
28
20
9
28
26
28
29
27
28
24
25
25
27
18
23
16
28
30
34
28
18
17
31
25
23
29
28
24
25
26
29
26
27
26
27
24
26
30
24
30
23
24
27
17
17
16
28
36
30
25
28
25
30
29
21
23
26
24
19
27
26
22
19
22
23
21
28
29
26
34
23
22
26
22
26
24
33
26
25
26
24
25
26
23
27
27
22
22
28
25
28
22
25
27
43
39
40
42
37
36
37
31
30
35
39
31
42
41
37
32
24
25
24
18
18
17
19
22
27
28
21
26
24
21
27
26
20
16
26
22
9
24
29
26
21
19
23
24
23
15
14
25
21
19
18
26
27
20
27
28
17
20
23
16
19
18
12
0
3
20
25
43
70
88
120
155
170
187
184
153
122
120
107
77
43
2
-22
-24
-9
-3
3
20
18
24
22
22
22
18
17
15
7
16
22
16
17
19
16
16
22
15
11
10
12
18
17
20
21
12
20
23
17
14
11
18
20
22
22
19
15
15
14
19
17
14
20
20
21
22
20
13
19
21
18
18
22
27
22
17
7
10
22
24
20
24
23
19
28
22
27
32
31
25
20
24
26
28
31
26
26
36
34
32
32
31
31
29
36
43
37
38
43
45
46
40
45
51
49
51
50
53
54
51
49
54
60
65
65
65
64
66
66
63
65
71
70
66
55
48
59
57
56
62
60
53
52
46
44
43
41
45
43
35
36
37
32
36
36
33
27
25
26
23
26
19
18
25
25
19
24
17
25
26
20
18
20
20
30
22
15
21
21
23
16
28
30
23
20
14
21
17
13
16
13
20
24
22
25
24
23
21
19
19
21
21
22
22
19
19
18
20
19
14
17
20
20
18
23
20
23
23
19
15
12
16
17
23
23
16
14
23
21
20
18
10
22
27
25
20
20
24
18
17
15
13
12
17
29
25
23
15
22
23
23
19
21
17
19
17
19
20
19
20
20
14
14
21
21
23
21
17
16
8
20
19
19
18
22
19
21
21
17
19
20
19
22
17
17
23
15
17
10
16
18
17
16
22
21
15
7
14
20
22
21
21
16
13
16
19
21
17
20
25
19
17
17
17
16
19
17
8
16
15
23
16
17
20
22
13
18
20
14
19
15
19
19
19
14
15
16
14
15
10
14
16
10
16
14
13
12
9
13
13
12
17
12
12
10
15
10
5
-1
13
16
23
21
23
17
9
16
5
18
23
16
16
15
24
24
19
13
19
12
13
18
20
18
21
18
15
14
19
22
27
25
24
27
25
28
31
23
24
20
21
18
7
21
21
19
12
12
12
11
3
12
22
15
13
14
10
10
16
18
13
10
14
13
15
14
9
9
11
16
16
6
9
10
19
14
9
10
10
10
13
14
13
14
11
7
10
10
6
8
9
8
4
-1
-4
-1
11
19
29
62
100
130
152
162
177
140
114
113
108
79
57
23
-21
-44
-38
-24
-5
-4
4
10
12
15
11
14
-3
10
14
6
5
2
0
6
11
13
9
5
5
5
8
7
6
3
8
16
12
5
7
7
4
11
15
15
3
12
13
12
9
9
5
12
13
11
5
21
13
11
11
10
2
11
17
14
11
14
11
9
9
10
13
22
18
18
16
20
15
20
16
12
23
15
25
23
19
20
14
16
21
28
19
29
27
30
27
30
31
32
35
28
31
34
28
38
49
40
42
49
40
46
47
47
56
54
62
55
52
56
54
50
48
53
59
59
60
53
53
58
51
52
46
43
44
49
46
42
38
31
28
28
21
27
34
34
26
29
16
19
19
16
11
17
18
17
17
7
19
14
12
12
20
13
10
11
20
17
11
11
18
16
13
17
12
15
16
15
15
15
15
9
15
12
14
9
13
14
9
18
8
8
20
16
21
15
13
17
13
12
12
13
10
8
12
11
14
9
12
18
19
8
11
10
8
12
13
11
19
20
15
12
9
11
17
19
19
12
18
17
8
16
19
15
12
11
12
20
9
16
13
14
12
11
16
14
17
16
14
13
18
14
11
13
12
14
17
17
5
1
17
19
15
17
14
11
11
16
4
-3
12
11
19
17
15
13
12
10
7
10
6
3
-1
13
15
19
15
12
5
12
13
17
20
9
5
12
11
8
7
5
10
7
14
8
5
7
0
9
9
7
6
10
15
11
14
15
9
6
7
17
13
10
10
10
10
10
11
20
15
15
5
6
7
14
12
18
21
12
17
24
19
15
23
21
22
20
18
18
10
11
19
12
4
6
13
15
10
11
8
7
1
8
11
8
9
4
2
6
16
8
6
7
9
6
4
3
-4
3
11
5
5
3
9
6
7
2
-2
4
8
0
8
7
2
6
6
11
8
4
-4
0
-8
-5
-7
-2
7
16
47
69
93
128
147
165
145
131
108
101
79
53
21
-19
-48
-52
-36
-20
-10
1
8
-1
-4
-1
1
1
3
5
3
1
1
4
-1
-1
4
1
0
3
1
-2
4
1
-5
-1
4
-3
5
11
7
10
6
2
1
1
0
-3
-4
7
4
1
1
6
13
5
5
6
-2
2
7
7
9
8
9
10
4
2
3
3
8
0
-1
7
10
6
11
18
13
10
5
18
15
21
20
14
12
12
7
15
21
15
11
21
23
19
19
23
24
35
33
31
28
25
21
23
49
49
40
37
47
46
39
35
46
49
52
48
44
47
46
46
43
52
53
45
55
48
45
39
38
41
40
33
38
28
28
23
25
26
25
24
20
14
11
7
20
28
17
15
9
12
13
6
12
12
13
11
11
8
8
7
7
15
4
7
6
10
8
12
11
12
6
6
3
8
9
6
8
11
16
3
1
3
3
6
4
14
8
8
4
7
5
9
4
5
10
8
12
12
5
13
4
2
4
5
4
6
6
8
11
15
6
5
7
11
11
6
11
10
7
0
8
8
10
10
15
10
12
8
7
7
9
2
5
11
5
8
10
11
11
6
5
6
9
10
18
7
7
10
9
14
8
11
7
12
14
16
6
11
5
11
6
8
7
12
14
10
12
9
8
5
10
14
15
10
11
12
9
8
9
4
5
6
5
9
13
10
14
12
8
12
3
-5
9
21
16
9
12
14
10
10
3
1
10
9
12
14
11
8
9
12
10
13
5
10
11
10
16
13
6
10
8
1
6
6
9
11
14
15
10
11
12
10
9
9
9
12
6
10
8
8
9
12
12
13
6
5
9
12
7
12
8
12
19
11
11
10
5
10
7
11
16
12
9
12
7
16
11
14
19
19
17
17
16
1
5
15
18
18
26
22
18
15
15
14
9
13
12
9
4
5
-1
-2
11
5
13
13
9
10
8
6
5
4
6
7
5
10
3
1
6
2
5
4
10
1
5
8
11
6
7
-2
-2
-3
-2
4
17
11
4
0
2
5
0
-10
-10
0
9
23
38
63
95
125
150
161
170
154
122
93
86
80
54
20
-31
-49
-31
-17
-7
-1
-7
-7
-3
-4
14
10
2
-3
1
4
5
0
2
-5
-4
-8
1
2
2
-1
-1
10
1
-6
4
-3
3
6
9
1
4
0
1
2
4
1
2
2
-2
9
3
6
1
-1
3
6
3
0
4
10
3
6
2
0
7
16
9
2
4
5
7
1
0
2
11
13
11
10
9
15
10
15
6
5
15
17
16
15
14
20
17
19
22
23
20
20
23
29
24
28
28
31
36
32
28
40
38
40
40
45
46
45
45
42
44
46
49
52
51
52
52
45
54
48
47
48
53
52
48
44
42
37
36
24
33
37
38
39
33
29
20
24
23
19
21
13
13
19
16
9
3
9
15
15
4
15
7
