-6
-3
-4
-3
9
-3
-7
-4
-3
-5
0
1
-6
-3
-9
-3
1
-9
-10
-2
-7
-9
-7
-3
-4
4
5
-4
-2
-16
0
-7
-15
1
-4
-4
-8
-8
-21
-10
3
2
-6
-6
2
-6
-5
-3
-6
-1
-1
-8
0
2
0
-8
-4
-3
-11
-1
-17
-14
-16
-13
-1
-9
-6
0
-18
-12
-4
-1
-9
-10
-6
-9
-2
2
2
-10
1
7
-1
3
6
5
3
2
1
-5
3
8
17
15
10
8
-6
10
18
17
16
9
0
10
11
-5
-2
-1
-17
-16
-12
-13
-15
-16
-10
-4
-13
-5
-11
-12
-9
-14
-7
-7
-12
-15
-11
-11
-6
-31
-19
-18
-14
-7
-9
-13
-4
-11
-13
-4
-17
-19
-16
-11
-23
-25
-10
-16
-19
-12
-4
8
26
60
83
118
150
196
209
230
229
207
194
156
123
72
13
-22
-65
-65
-72
-63
-65
-54
-72
-66
-55
-58
-54
-41
-29
-43
-34
-23
-16
-11
-18
-13
-16
-20
-16
-14
-18
-18
-11
-17
-13
-16
-10
-12
-12
-16
-8
-5
-13
-10
-14
-13
-14
-3
-2
-18
5
-7
-12
-3
1
-4
-7
-16
4
-8
-6
-6
-10
-10
-6
12
13
6
4
0
3
5
10
5
11
8
0
10
22
3
20
19
16
24
23
13
18
25
26
21
28
41
27
37
32
28
33
37
35
34
30
38
31
35
40
27
33
40
24
36
46
39
39
43
37
38
23
38
27
28
24
22
25
17
28
22
14
17
2
5
7
-1
5
-3
5
7
-6
6
-6
-7
-7
-15
-5
-7
-8
-12
-14
-16
-21
-11
5
-6
-17
-10
-11
-13
-8
-3
-9
-6
-9
-21
-17
1
-12
-14
-12
-9
-14
-15
-2
-16
-16
-13
-15
-14
-20
-11
-12
-10
-9
-8
0
-4
-19
-13
-5
-20
-13
-12
-3
-11
-16
-15
-14
-11
-12
-12
-8
-7
-5
-12
-12
-10
-13
-17
-13
-7
-13
-13
-20
-15
-6
-11
-14
-11
-3
-6
-22
-8
-5
-15
-20
-18
-14
-13
-13
-12
-7
-18
-11
-13
-12
-16
-11
-15
-19
-13
-19
-8
-23
-14
-14
-13
-18
-14
-20
-22
-21
-12
-10
-20
-7
-7
-18
-5
-13
-14
1
-10
-16
-17
-9
-13
-14
7
1
-12
-9
-2
1
14
7
0
-7
10
4
9
-5
2
-3
10
2
-3
2
-23
-12
-11
-12
-17
-16
-27
-11
-9
-18
-19
-24
-18
-15
-16
-29
-18
-10
-10
-15
-23
-18
-26
-19
-16
-32
-7
-12
-19
-15
-7
-24
-27
-26
-10
-17
-16
-26
-20
-32
-26
-24
-38
-18
-19
-5
16
52
81
108
151
194
208
241
253
225
202
147
112
78
29
-13
-59
-77
-78
-63
-62
-64
-66
-68
-57
-60
-52
-53
-37
-41
-23
-23
-25
-16
-12
-19
-21
-22
-19
-18
-13
-21
-20
-13
-16
-23
-22
-13
-7
-13
-18
-10
-21
-16
-12
-8
-15
-13
-6
7
-1
-3
6
-8
-4
-21
-6
-1
1
-12
-8
-9
1
4
-5
3
-1
6
12
7
-1
3
6
12
6
7
2
16
22
15
20
24
18
19
22
21
20
30
25
33
35
41
27
36
40
31
21
37
49
41
31
32
31
35
34
43
35
35
47
46
28
37
31
31
39
33
33
32
26
24
27
29
20
19
11
9
12
3
11
8
5
7
6
13
-2
-9
-9
-9
-7
-6
1
-2
0
-8
-10
-7
17
-28
-19
-3
0
-17
-27
-14
-4
-4
-11
-15
-8
-18
-17
-20
-14
-12
-17
-21
-12
-15
-7
-22
-16
-23
-13
-13
-15
-23
-13
-7
-2
-12
-1
-14
-4
-12
-20
-16
-8
-7
-2
-10
-2
-12
-24
-15
-12
-18
-17
-13
-15
-9
-11
-23
-8
-14
-18
-11
-8
-13
-5
-13
-14
-15
-8
-20
-11
-11
-12
-19
-10
-17
-9
-13
-11
-12
-16
-14
-4
-6
-23
-29
-26
-9
-14
-3
-16
-10
-11
-9
-12
-2
-17
-22
-16
-11
-22
-12
-8
-17
-9
-8
-6
-18
-10
-16
-12
-7
-7
-2
-4
7
-6
-10
-9
-19
-9
5
8
14
6
13
9
-3
3
1
-8
-6
5
-7
-11
-13
-8
-12
-16
-15
-8
-21
-9
-14
-16
-15
-18
-20
-19
-29
-37
-33
-12
-9
-23
-22
-17
-29
-17
-14
-18
-28
-21
-30
-25
-20
-23
-37
-22
-21
-23
-36
-11
-25
-32
-24
-28
-27
-23
-22
-17
11
3
29
60
92
129
164
206
240
229
230
215
166
138
89
39
0
-44
-79
-82
-73
-74
-78
-65
-75
-69
-71
-53
-49
-39
-39
-33
-38
-37
-21
-30
-27
-25
-29
-20
-16
-24
-27
-40
-11
-14
-17
-21
-20
-26
-23
-32
-13
-25
-17
-28
-18
-14
-21
-20
-12
-18
-23
-17
-14
-4
-13
-13
-24
-17
-11
-13
-7
-4
0
-4
-2
-10
-11
5
0
-13
-3
1
1
-1
-4
-1
11
6
5
0
8
16
2
7
22
11
18
23
36
17
21
9
25
22
20
29
30
22
34
32
32
27
34
35
30
33
29
28
23
24
20
32
28
28
20
30
16
26
23
12
1
-2
1
0
7
8
-15
-7
3
0
9
-1
-10
-1
1
-12
-22
-22
-18
-26
-23
-27
-20
-3
-3
-10
-14
-23
-24
-15
-18
-26
-31
-21
-17
-24
-18
-24
-16
-14
-25
-27
-13
-19
-11
-25
-20
-24
-28
-11
-20
-17
-21
-17
-21
-6
-35
-30
-21
-21
-12
-10
-18
-42
-5
-15
-12
-6
-23
-31
-25
-21
-22
-20
-13
-19
-21
-19
-17
-15
-39
-21
-21
-15
-4
-15
-16
-16
-16
-14
-11
-11
-23
-19
-27
-16
-27
-12
-16
-24
-18
-33
-24
-21
-4
-12
-10
-23
-12
-3
-8
-9
-21
-24
-18
-12
-16
-21
-24
-20
-21
-18
-15
-17
-19
-14
-21
-14
-5
-14
-13
-8
-9
-2
10
-12
-16
2
3
-10
-1
2
5
7
10
5
10
5
8
-8
-5
-3
5
9
3
-7
-11
2
-10
-11
-8
-16
-24
-14
-11
-22
-11
-17
-16
-13
-9
-11
-17
-18
-10
-10
-19
-8
-8
-20
-7
-13
-12
-27
-11
-11
-7
-2
-10
-25
-15
-16
-8
-17
-23
-31
-20
-20
-14
-19
2
4
13
45
66
102
144
180
202
226
234
224
190
179
118
83
47
10
-39
-52
-45
-45
-60
-66
-60
-49
-40
-35
-33
-30
-34
-15
-14
-17
-5
-15
-9
-3
-15
-6
-8
-9
4
2
-4
0
-18
-1
5
-5
0
-4
2
1
-15
-20
-5
1
4
-10
4
-13
15
-2
1
4
4
4
-4
5
9
7
-8
9
11
11
7
5
16
13
10
4
9
9
20
10
25
22
30
36
27
21
24
16
19
22
32
19
43
40
29
30
42
41
35
42
41
57
41
39
47
42
45
46
40
43
46
48
49
50
41
44
44
45
34
39
47
38
45
27
30
34
38
34
22
34
21
16
23
26
14
12
8
13
16
9
13
2
-6
0
1
5
5
-5
-5
7
8
-1
-8
-8
3
7
-14
-1
4
-8
5
-2
7
-2
-3
-1
-3
-8
-2
2
-7
-6
-4
2
-8
-5
-12
-3
-5
7
-12
-11
5
5
-22
-7
1
-4
-4
10
7
0
10
-1
3
-10
1
8
-11
-13
-5
-1
-3
-5
-11
2
-4
-8
-10
-5
-3
11
6
-8
-3
0
-11
1
0
-11
5
-6
-3
1
-9
-4
-3
-1
10
-4
-7
0
0
-2
-6
-10
5
-8
3
-7
-10
-4
-9
-8
-1
-13
0
-14
-16
-6
0
-2
3
-7
1
-1
-7
-4
2
-7
2
-11
-8
0
-3
-9
-5
7
19
15
11
14
16
-10
13
14
10
7
22
8
2
8
2
-3
7
-1
-26
-15
-11
-11
-10
-11
-3
-17
-12
-14
-16
-14
-14
-6
-16
-5
-9
-16
-14
-16
-24
-11
-13
-15
-10
-16
-14
-24
-9
-13
-18
-22
-14
-14
-14
-11
-29
-27
-32
-24
-29
-22
-7
-10
0
30
55
88
119
176
207
237
247
234
217
191
140
106
55
10
-39
-56
-54
-53
-60
-56
-46
-45
-49
-51
-40
-33
-31
-25
-23
-9
-28
-15
-19
-11
-5
-9
-15
-9
-13
-11
-8
-14
-18
-16
-13
-29
-12
-18
-12
2
-3
-10
-13
-4
0
-13
0
-7
-10
-13
-7
-1
-5
10
-4
1
10
7
4
5
-8
-7
7
2
-1
10
16
-5
11
3
-3
7
20
26
24
17
20
6
28
30
21
21
26
37
33
29
30
38
36
42
37
47
39
42
36
46
47
44
45
48
43
40
53
41
49
49
45
57
45
45
42
44
45
43
23
46
36
31
29
42
37
21
30
19
13
19
10
20
2
19
13
15
8
0
-6
1
5
9
9
5
8
0
5
-11
-3
-2
-14
0
3
2
-6
-7
-4
3
-4
8
-5
-1
-3
-2
-7
-2
1
3
-6
-6
2
1
-19
-10
-10
-17
-8
3
1
0
-3
-1
3
4
-3
-3
-5
-6
1
1
8
-2
-4
-8
-3
-7
-9
2
7
-3
-8
-6
-2
-7
-14
-10
-1
-10
10
-3
11
-1
-7
-6
-11
-8
-7
-2
-1
2
-5
3
5
2
-1
0
0
-1
2
9
-3
-6
-5
-5
-4
-4
-10
-10
0
-3
-6
-7
-2
3
-5
-8
5
3
-7
-6
-5
-3
3
4
3
0
8
-4
8
6
16
21
18
15
4
2
8
6
9
29
19
16
19
15
20
12
11
1
10
6
9
2
16
1
2
3
-5
-3
0
0
-1
-1
1
-5
5
-5
-7
-5
-2
-2
4
-3
9
-11
-15
2
-5
-7
-3
-5
-12
-19
-15
3
5
-7
3
-10
0
-6
-5
-9
-20
-7
-9
-11
-8
7
31
61
87
124
170
208
243
253
249
243
224
185
135
93
57
9
-37
-53
-46
-42
-36
-47
-41
-54
-48
-44
-34
-23
-14
-30
3
-14
-6
-6
1
1
-2
2
-5
8
-4
-3
-7
0
-3
-1
-5
-2
-3
11
5
2
2
-3
1
2
-4
-8
2
19
13
13
3
11
3
5
12
0
4
12
17
20
16
14
10
11
14
14
11
16
29
32
11
18
23
25
24
27
22
31
30
24
36
39
36
44
29
38
28
47
52
50
45
47
50
44
40
62
53
53
50
44
59
54
52
54
62
55
58
51
53
55
53
58
55
63
54
32
39
50
43
36
37
38
33
34
22
22
28
46
14
12
14
16
25
15
7
11
11
6
4
12
15
15
8
-5
1
14
18
17
8
13
8
11
8
1
9
8
3
20
4
1
12
14
11
7
11
4
10
15
17
24
24
12
4
2
3
2
19
32
12
4
14
12
16
15
15
12
16
20
20
15
21
9
-2
25
17
20
33
25
30
12
17
18
19
17
24
18
16
16
19
11
17
20
14
15
15
22
14
12
28
15
15
22
18
14
25
-3
18
18
28
15
12
12
23
25
20
17
20
24
20
7
17
21
22
32
36
15
18
19
11
13
18
16
26
25
19
20
38
30
19
25
39
22
35
36
36
46
46
45
44
52
62
57
47
48
37
37
41
42
41
36
41
30
30
40
22
21
21
26
8
22
26
16
36
26
15
23
32
23
14
20
27
26
28
24
16
12
36
21
20
26
14
26
21
22
27
32
28
28
29
28
11
11
31
20
17
23
30
35
41
60
90
135
174
206
240
275
290
292
280
246
204
157
111
73
20
-21
-17
-24
-16
-20
-13
-17
-13
-15
-4
3
13
18
19
20
36
25
42
38
31
21
30
37
37
24
26
29
34
29
31
26
19
33
31
33
33
24
43
30
31
33
38
25
27
43
39
33
25
39
39
42
39
31
41
50
42
43
42
40
43
50
48
51
41
45
44
47
42
55
58
52
61
58
54
58
50
60
61
78
62
70
74
67
64
75
70
76
73
77
74
79
80
82
76
82
84
79
85
79
81
80
84
80
81
87
75
79
85
82
68
74
65
61
57
62
68
54
58
56
52
31
41
49
42
42
35
38
45
43
39
33
32
37
53
26
16
35
32
24
33
27
19
27
36
25
23
30
29
27
33
33
31
29
27
22
20
26
28
23
29
37
37
24
22
26
38
40
31
27
32
26
21
37
32
20
34
28
32
23
13
34
26
46
29
22
23
31
26
20
14
23
41
36
32
38
26
29
36
36
32
23
22
19
24
21
23
29
42
27
34
34
25
29
19
17
29
34
29
25
30
22
19
18
33
22
31
31
33
31
26
23
12
19
19
23
22
25
25
30
28
21
32
20
16
14
28
27
30
25
33
27
37
37
29
30
44
37
26
28
38
36
60
41
42
44
53
54
54
47
38
27
31
38
34
40
41
40
31
36
35
9
26
14
16
20
10
14
14
20
18
11
23
17
15
23
18
17
15
19
14
0
2
18
21
9
19
18
21
11
14
19
4
22
19
12
8
5
12
18
12
12
26
27
28
78
109
129
170
215
247
270
275
262
247
214
170
128
73
33
-18
-43
-44
-40
-36
-49
-28
-37
-25
-35
-23
-17
-2
3
-3
3
12
17
20
5
19
15
16
18
6
29
24
21
13
26
13
22
21
15
21
21
27
15
16
22
27
26
20
22
24
27
30
22
23
29
19
31
37
16
40
34
31
32
32
35
37
31
36
39
40
50
38
40
38
42
45
44
44
48
53
58
63
61
61
59
56
55
51
55
71
60
67
66
69
69
65
66
76
78
73
77
78
71
73
84
72
81
74
76
79
77
78
79
72
56
72
67
66
70
64
84
65
60
60
51
48
47
43
48
49
44
34
37
37
44
29
25
32
31
24
31
29
24
27
26
27
29
28
15
15
23
23
22
22
20
23
26
24
22
28
24
15
31
33
18
17
19
15
19
31
33
27
16
22
21
0
21
27
18
25
24
18
10
20
21
23
31
24
19
27
27
21
32
18
16
21
19
28
16
25
32
18
19
15
23
23
32
21
35
31
26
23
26
17
25
18
27
17
20
24
28
31
31
25
18
23
21
22
22
22
26
28
20
25
21
20
26
14
24
32
28
27
18
47
36
27
12
20
26
27
23
26
25
26
24
30
31
38
34
38
40
24
38
45
34
28
41
39
46
47
42
51
45
47
45
71
56
45
50
55
47
44
55
47
42
34
38
28
26
28
25
27
31
31
27
25
18
13
29
29
11
17
19
28
21
23
25
5
14
22
25
27
18
19
17
20
6
24
17
18
27
11
12
20
17
9
-6
4
15
13
22
29
52
53
89
118
162
186
242
267
276
277
249
223
181
145
95
57
12
-45
-59
-38
-42
-40
-27
-37
-36
-33
-24
-24
-13
-5
-3
-2
16
21
15
21
20
18
19
22
16
9
22
22
23
13
19
13
22
34
36
22
16
15
26
14
33
40
38
28
31
23
29
35
19
30
36
35
35
38
41
36
41
32
38
34
39
34
43
49
45
38
57
49
50
46
47
52
44
59
56
57
54
66
61
52
70
66
74
66
68
78
76
78
73
72
68
64
81
88
68
73
83
81
67
78
74
74
74
81
77
65
76
84
70
69
77
72
69
68
72
64
55
67
64
49
42
56
50
53
35
32
52
47
32
31
28
28
35
46
39
24
31
32
22
26
25
26
22
23
22
13
25
22
22
26
19
26
22
21
21
25
18
6
27
26
24
29
19
16
21
17
29
32
29
30
27
13
22
19
23
22
26
26
20
29
26
33
23
39
30
30
34
23
27
29
31
13
23
29
32
39
29
27
30
40
32
39
28
35
24
37
32
31
33
28
25
39
34
29
31
33
36
37
33
35
24
32
36
29
34
35
36
28
40
36
29
28
34
44
42
29
38
31
30
42
33
35
34
42
41
43
38
25
34
37
40
40
45
39
44
43
42
40
45
41
62
57
55
61
58
55
64
65
57
59
62
46
42
47
50
52
31
39
33
47
35
28
40
28
25
28
16
17
24
27
25
27
29
26
18
30
34
16
28
16
27
26
23
3
17
30
23
30
31
24
23
23
23
7
19
22
17
10
10
16
19
26
16
47
67
90
128
170
218
255
280
300
279
266
241
206
144
102
57
15
-39
-38
-29
-33
-33
-22
-28
-27
-19
-22
-16
-7
5
5
17
15
11
25
38
37
32
32
31
26
25
40
20
24
35
25
52
34
27
33
46
40
25
49
37
35
40
43
40
32
41
39
44
43
56
54
58
45
59
46
53
52
56
59
63
66
63
61
70
71
70
70
70
74
59
69
77
89
85
67
69
89
97
85
79
93
92
97
99
105
103
104
95
100
110
113
100
112
102
101
103
108
103
120
108
118
117
114
104
112
113
114
107
107
104
106
101
107
96
96
98
93
82
87
86
79
88
73
66
68
75
70
63
64
64
67
64
57
53
67
65
58
46
55
47
48
51
53
60
45
38
47
58
52
53
46
50
32
44
56
47
45
51
46
52
48
49
41
47
42
48
48
58
63
49
40
42
36
53
53
36
48
41
46
40
46
40
35
49
49
47
47
43
46
36
44
46
52
41
41
49
41
43
51
55
53
47
51
46
53
44
42
40
45
48
41
45
50
55
64
54
39
35
51
38
41
42
50
42
46
34
49
41
50
47
45
42
36
45
43
39
35
41
49
52
53
47
48
52
51
54
44
60
49
66
60
53
52
73
55
65
64
69
65
67
71
79
83
74
81
75
60
79
72
58
56
68
58
64
61
56
50
49
48
38
45
38
44
46
41
50
46
39
39
45
47
48
40
44
42
52
38
50
45
43
40
33
40
41
46
49
39
51
42
42
43
42
37
31
47
31
21
38
46
54
77
94
146
180
217
256
298
331
322
301
299
267
208
165
107
52
2
-15
-17
-21
-9
-2
-9
-9
-8
3
3
20
31
37
31
41
37
41
40
27
40
46
28
38
47
50
44
45
46
39
51
59
46
46
51
45
47
46
55
51
46
50
50
48
51
48
51
51
60
48
49
65
54
56
71
61
64
62
57
57
54
68
58
65
59
72
62
71
75
71
77
72
78
82
83
78
76
87
88
79
98
102
91
95
97
99
97
101
109
102
100
109
101
109
100
105
104
109
89
103
104
112
119
97
102
102
100
105
105
106
99
103
101
89
81
84
90
90
84
84
82
76
71
67
70
71
62
65
63
58
68
57
57
52
48
34
54
53
38
36
63
59
54
58
52
41
36
50
39
44
48
37
42
50
50
43
47
42
43
49
50
39
40
53
59
44
50
51
42
45
48
43
45
38
49
42
47
45
45
57
52
41
40
57
55
50
49
41
47
54
56
42
48
51
48
47
42
48
46
38
47
41
53
50
45
44
49
48
46
46
37
49
54
47
40
46
47
46
52
41
40
53
43
47
41
43
46
48
41
37
61
52
33
46
42
40
42
37
38
50
56
49
44
47
47
44
42
49
55
74
60
50
62
70
56
58
55
58
59
71
71
71
68
78
79
73
64
45
61
70
57
48
47
60
67
47
51
44
40
51
48
35
43
47
54
44
40
38
42
47
39
38
38
46
38
40
42
27
40
42
31
31
40
41
45
28
46
43
35
40
31
30
21
30
21
22
19
28
39
64
77
106
150
201
233
271
303
311
313
293
268
215
166
124
89
26
-22
-31
-22
-23
-24
-19
-21
-18
-17
-4
5
-1
18
25
28
33
30
37
34
36
37
32
37
44
38
31
37
34
37
38
35
40
42
41
42
39
44
41
40
48
48
43
49
45
40
45
50
55
56
55
52
62
57
53
54
50
50
50
57
57
58
60
62
64
68
69
73
60
57
70
66
69
71
85
69
76
83
78
84
93
87
76
79
85
91
96
76
100
99
88
96
96
102
103
101
105
104
99
107
110
99
94
102
109
98
100
94
90
93
97
89
94
98
83
82
83
83
73
77
76
69
75
73
64
58
66
69
65
64
60
43
55
49
54
59
48
56
53
43
49
42
38
48
53
49
35
49
39
33
42
37
38
49
52
57
42
29
28
43
38
51
45
51
38
42
36
45
48
44
47
42
49
46
54
46
50
42
46
41
44
36
35
44
53
45
48
55
41
45
57
39
37
40
39
49
46
44
45
48
38
44
51
48
50
36
42
37
45
36
50
44
52
46
50
42
41
38
42
44
48
47
64
46
47
47
48
41
40
39
51
49
39
49
47
49
51
51
47
49
45
52
52
48
48
54
58
43
46
53
55
47
53
46
64
64
63
55
58
88
61
61
60
60
61
55
53
47
33
46
41
41
43
44
44
38
32
35
36
42
28
39
45
44
39
39
36
41
32
42
37
39
34
46
31
38
46
33
30
34
35
29
36
42
43
51
37
33
27
40
41
45
65
89
114
150
174
223
271
297
306
295
278
247
209
160
121
83
39
-22
-37
-17
-6
-13
-26
-19
-19
-23
-16
1
13
11
22
28
38
38
28
37
30
40
38
26
43
42
46
37
41
43
34
33
43
40
28
34
50
51
41
42
41
49
44
50
39
35
46
44
48
46
50
52
57
60
51
47
37
57
56
51
52
61
55
60
60
46
57
64
60
75
61
67
79
73
66
66
66
73
76
79
74
82
75
84
86
87
81
86
89
81
96
92
80
95
92
103
97
94
95
100
102
101
82
94
86
101
100
102
97
98
101
90
90
97
91
89
82
74
73
72
75
70
68
65
67
60
65
51
55
55
66
50
64
53
44
50
53
49
41
49
48
44
46
46
46
34
48
50
45
37
45
45
48
42
50
40
44
41
43
38
44
39
37
40
47
47
58
43
39
53
44
43
48
36
38
40
45
42
33
44
46
27
43
47
41
46
51
47
46
41
43
39
38
39
37
48
44
34
42
45
40
43
44
46
38
46
47
41
43
41
45
41
48
36
24
34
37
45
48
53
38
35
31
54
48
49
49
34
39
42
38
56
45
34
47
47
40
36
48
49
53
55
70
44
46
53
58
60
54
65
60
64
60
58
57
46
47
47
52
51
41
37
41
43
40
44
42
34
36
43
25
25
39
41
40
32
32
35
31
36
34
37
42
39
28
27
36
38
41
42
39
25
31
34
34
34
34
26
26
30
25
26
23
24
40
40
78
94
130
175
212
258
293
307
296
279
257
215
171
117
65
28
-7
-20
-16
-18
-18
-30
-20
-19
-11
-8
-2
7
13
17
19
22
30
34
40
47
39
35
31
35
24
34
33
43
39
35
37
41
25
39
49
46
42
37
40
41
47
44
47
43
39
47
51
49
39
43
49
54
48
44
44
49
61
50
49
59
59
62
49
54
57
66
60
59
62
61
71
66
54
73
63
68
76
69
82
82
76
80
78
86
85
90
88
81
87
87
100
104
89
91
91
90
94
97
87
101
96
91
96
101
98
93
101
96
88
90
86
72
90
79
83
74
71
77
71
70
70
60
58
61
53
49
54
45
62
53
51
52
51
46
43
47
45
40
47
46
39
32
40
41
35
37
36
37
40
44
36
45
38
41
32
37
37
37
41
36
33
34
41
35
35
42
40
22
48
44
36
41
39
33
35
35
39
40
40
35
38
39
46
34
31
37
39
38
34
40
35
28
36
39
39
40
40
41
47
38
37
44
34
34
30
34
33
33
47
49
44
41
34
29
33
41
36
34
35
19
44
34
38
29
34
35
30
37
50
39
39
43
46
41
50
47
42
45
45
53
55
57
58
46
51
50
49
55
50
60
47
41
48
49
46
42
44
26
34
40
34
33
30
25
30
26
27
24
24
24
21
44
37
21
21
24
14
34
26
29
28
29
26
22
19
34
23
32
29
32
28
22
20
22
16
15
12
7
14
15
22
41
62
77
112
167
213
250
281
306
302
290
274
229
183
139
80
34
-17
-25
-26
-23
-19
-26
-18
-13
-20
-22
-10
6
13
17
22
25
23
23
30
26
29
33
40
29
32
33
28
22
25
44
32
32
32
28
36
29
34
33
35
38
29
27
42
40
33
45
43
41
50
49
41
46
42
38
36
45
55
47
39
40
49
44
37
59
50
65
63
46
55
58
53
58
71
72
63
62
67
65
59
72
78
83
74
73
66
85
92
82
72
87
90
87
88
94
87
97
97
90
92
90
88
85
85
92
86
96
85
80
89
91
94
81
78
64
76
68
72
68
63
66
62
45
51
54
49
54
48
52
48
34
45
42
50
47
43
30
36
31
28
34
39
31
40
33
30
25
33
28
33
34
34
34
35
15
18
31
23
33
38
42
36
37
31
32
31
32
26
32
30
34
26
31
32
29
25
25
28
30
31
39
30
31
37
13
31
37
51
23
25
26
29
27
31
30
31
31
35
32
22
29
26
32
35
25
30
38
41
29
36
34
25
22
25
26
26
28
30
22
30
25
29
46
31
24
25
34
29
17
31
44
44
45
44
45
34
40
33
30
47
44
40
38
55
52
45
44
48
40
54
52
51
43
50
46
35
33
19
31
34
24
24
33
29
23
28
25
24
26
34
29
22
18
19
26
27
20
22
23
31
25
25
29
22
17
15
13
27
18
23
27
28
23
22
20
11
12
9
11
13
14
25
30
51
83
115
149
186
237
284
308
309
298
277
232
191
134
88
47
-5
-25
-40
-29
-29
-32
-25
-27
-27
-26
-12
2
2
15
18
16
17
22
20
20
35
30
24
19
18
33
29
26
28
23
23
22
19
23
29
24
29
21
35
43
35
16
16
38
36
30
32
35
29
26
28
38
41
36
34
38
38
32
27
45
43
61
46
41
36
44
58
50
48
52
46
53
54
55
58
60
66
60
55
67
70
81
78
69
61
73
75
73
71
73
75
83
86
82
75
81
81
77
82
86
88
76
88
89
79
78
80
92
87
73
80
80
70
73
72
74
64
60
50
61
59
47
41
45
45
44
44
38
41
37
36
28
31
31
22
33
32
40
28
23
29
20
19
32
35
26
30
17
26
28
13
19
27
18
22
23
21
13
28
38
21
33
11
11
20
26
30
22
22
15
26
29
19
22
26
19
19
15
28
30
25
26
23
19
19
20
23
22
19
18
11
16
24
20
23
22
22
12
23
28
23
17
15
24
27
23
32
16
13
18
27
15
24
24
24
12
13
22
17
17
18
10
25
11
22
30
13
11
27
26
19
24
36
26
23
28
22
18
26
31
22
31
39
40
42
38
30
44
44
42
40
37
32
26
27
34
33
36
20
21
19
20
3
7
4
27
20
19
16
18
15
8
15
7
17
14
9
6
8
11
5
15
13
9
18
15
16
-10
17
15
18
26
7
7
17
5
-11
-13
0
4
1
9
10
32
50
88
123
174
210
240
273
283
271
244
224
171
117
76
36
-24
-48
-46
-37
-41
-52
-47
-53
-34
-31
-31
-36
-29
-7
12
4
5
5
6
10
5
6
15
7
6
8
5
8
8
8
11
13
23
16
7
6
11
-1
13
18
10
-2
10
15
11
9
12
26
14
15
23
14
13
19
28
23
25
28
19
17
17
27
29
23
23
35
26
29
37
31
38
33
38
41
40
40
37
29
49
52
44
52
50
50
50
54
56
54
53
58
55
57
68
60
67
70
70
56
67
66
70
71
72
53
65
67
61
53
56
60
57
58
50
42
64
61
47
41
48
50
38
40
28
28
33
33
21
24
27
22
19
5
11
17
7
6
12
17
19
9
10
10
6
14
7
11
9
13
-10
10
9
16
0
13
18
7
11
14
3
20
31
5
0
5
3
13
2
4
11
9
5
11
3
8
17
4
9
14
10
13
12
6
1
-1
17
16
5
10
10
12
10
10
-5
7
6
3
15
25
13
14
6
12
10
5
21
12
13
1
8
8
-3
7
14
17
14
5
12
14
5
4
1
14
11
9
12
5
4
5
2
0
2
11
12
12
12
8
13
8
21
20
20
29
23
22
22
17
19
27
34
33
21
20
15
27
41
33
30
31
25
28
25
25
23
13
9
8
0
4
19
10
7
4
-1
2
2
-4
16
4
1
5
9
1
0
8
13
3
-2
1
5
3
10
-1
7
-4
9
7
8
5
10
4
2
-4
-9
-7
-19
-19
-21
3
13
18
47
92
110
161
196
241
278
291
280
261
231
179
134
104
57
-12
-58
-65
-60
-51
-54
-54
-45
-49
-39
-39
-26
-22
-13
-11
4
2
1
11
5
6
4
-7
-8
-2
14
7
7
-9
0
3
13
19
5
12
11
6
9
9
10
7
7
12
11
6
25
22
25
6
11
8
15
19
17
12
16
18
21
28
10
9
27
37
19
23
35
26
34
31
29
36
40
34
39
46
38
43
58
37
43
35
51
47
47
47
53
67
58
58
52
60
74
66
55
65
68
57
68
70
66
66
67
69
63
69
73
73
61
72
62
55
61
73
53
49
52
51
46
48
38
37
48
25
27
39
18
27
28
22
13
26
29
27
29
23
0
12
9
6
8
23
13
21
16
6
2
10
13
16
7
9
11
10
3
19
11
10
12
-4
9
7
12
12
3
11
6
6
2
0
8
21
23
15
12
6
6
5
5
11
3
3
11
11
5
14
8
4
15
14
11
6
-3
8
9
13
16
15
8
5
8
7
16
9
9
12
9
11
10
10
11
9
7
0
4
-7
3
15
10
13
1
8
11
8
3
9
14
9
9
2
6
10
1
7
5
4
2
1
9
6
9
4
11
19
21
1
2
14
13
16
19
20
25
27
15
25
20
34
34
24
19
31
24
29
23
20
17
22
23
15
20
17
13
9
8
14
-1
4
0
-3
5
-10
-1
4
0
-2
2
-9
1
3
1
3
1
-9
1
-15
-2
1
-6
-2
7
3
-5
-4
2
6
-11
-9
8
-6
-6
-9
-17
-13
-4
-9
2
9
8
37
80
124
162
220
254
269
274
272
256
218
161
118
70
21
-39
-64
-61
-61
-59
-56
-48
-47
-59
-40
-34
-31
-27
-15
-14
-14
6
4
2
-5
-4
-4
3
7
6
3
-2
-6
-6
-5
0
2
8
8
3
3
8
1
10
16
14
8
7
14
16
5
16
19
14
10
0
5
22
26
18
20
25
21
20
14
37
27
26
25
25
35
28
32
36
37
30
23
33
36
43
41
43
41
54
54
49
54
62
54
53
60
67
57
67
77
69
65
66
71
68
67
73
74
71
61
70
72
62
75
72
79
74
69
72
82
56
67
67
57
42
40
55
46
49
48
46
41
48
46
35
33
33
31
32
27
29
19
19
19
20
24
26
22
11
16
11
21
22
-2
7
13
26
11
5
5
5
7
5
-6
2
15
8
11
14
14
7
8
8
3
2
8
13
16
3
10
2
7
5
6
10
6
1
-2
-2
7
6
1
4
2
5
3
1
6
9
-12
-3
1
6
3
5
0
1
0
2
4
1
2
-3
-5
7
15
1
-3
21
2
-6
4
-1
-3
3
12
1
-5
-1
0
8
2
-13
0
14
-2
0
0
-5
-4
-3
1
7
-1
-3
-2
-4
1
-5
-3
-5
0
-2
-1
-8
5
6
17
14
11
17
6
12
4
21
15
9
6
8
26
23
29
30
20
31
39
30
24
28
14
21
25
23
8
15
14
9
7
6
-1
7
10
9
1
5
-3
-8
2
5
0
1
6
5
-10
-7
-11
6
-2
5
-11
2
5
16
-3
0
5
-6
-7
7
4
-6
1
-8
6
-1
-9
-7
-10
-9
-7
-4
3
34
71
93
136
175
218
253
273
264
250
227
195
146
96
41
-6
-51
-68
-60
-70
-56
-59
-47
-50
-59
-34
-35
-37
-19
-8
-15
-10
4
4
-5
-4
9
11
4
-3
-2
-6
-7
7
8
-8
-5
0
0
-4
0
4
2
5
1
7
10
0
8
2
-2
15
17
8
7
6
14
4
18
11
13
13
12
11
17
18
24
26
21
26
28
28
32
21
29
21
20
24
30
23
30
25
43
33
48
43
42
35
40
49
52
50
49
45
42
42
45
54
61
60
50
62
74
53
56
58
58
54
65
62
59
56
62
61
59
53
45
58
51
56
44
54
46
45
38
25
36
38
28
20
25
33
30
28
18
17
10
10
23
17
1
11
14
18
9
16
11
11
10
9
0
4
1
14
25
18
17
10
6
11
17
16
8
15
10
12
1
6
8
5
18
13
16
7
14
12
0
15
8
14
14
12
11
12
17
14
10
-1
15
18
9
17
17
16
16
13
13
8
23
12
10
19
20
7
5
8
13
16
17
5
4
28
19
12
5
14
9
7
11
7
12
17
10
4
6
17
17
16
15
13
7
14
16
20
7
8
8
10
17
21
17
18
12
9
17
17
8
15
28
22
25
20
31
21
20
19
27
44
35
33
31
14
17
37
34
26
27
29
30
33
23
9
16
4
8
14
8
10
6
0
3
2
6
13
8
8
10
1
10
11
11
6
6
4
7
4
-7
18
8
3
-4
4
6
-1
10
5
8
2
0
-3
-6
1
-3
-7
-9
1
13
31
56
83
132
171
200
235
257
254
248
238
212
150
112
67
14
-30
-56
-54
-51
-44
-52
-48
-50
-41
-36
-26
-25
-22
-14
-13
-8
-11
10
14
14
6
6
5
9
16
3
1
11
10
21
5
13
0
12
19
9
6
12
13
15
14
17
18
12
8
12
20
2
11
34
30
21
21
25
15
23
26
15
11
15
15
28
36
35
33
26
27
36
26
31
36
34
36
38
50
43
36
62
50
50
56
50
50
48
49
49
55
69
49
52
65
65
59
72
59
54
67
69
61
61
81
61
63
64
69
67
60
60
65
58
55
50
46
54
54
42
53
42
37
45
44
31
32
29
20
19
25
27
32
33
26
31
18
18
31
2
12
15
15
10
20
9
10
7
9
12
6
9
13
13
19
11
3
5
6
12
17
11
8
10
17
7
7
16
18
8
0
10
17
5
11
17
13
18
12
6
7
16
9
10
14
18
18
14
7
7
3
16
9
10
5
15
16
8
10
6
8
8
6
12
9
8
12
19
6
12
15
9
8
19
10
12
9
6
9
8
4
1
6
6
10
8
4
12
6
7
14
15
1
4
11
7
7
13
0
8
4
5
5
-2
8
18
11
13
19
14
18
5
5
14
18
19
17
18
19
35
23
21
19
18
29
30
33
30
17
16
11
25
11
12
3
6
2
3
-1
-2
3
19
-1
7
-6
-3
-3
8
-4
-8
-6
8
2
4
-2
15
4
-4
-3
-2
-10
-2
4
1
-6
-1
0
1
3
3
3
-6
-4
-9
-19
-7
-11
-5
-1
15
34
51
97
124
168
218
256
269
273
261
240
195
151
109
49
4
-44
-55
-56
-47
-52
-52
-44
-44
-46
-38
-34
-27
-18
-10
-7
5
3
5
-6
-6
-4
-13
4
10
9
-11
4
10
7
-9
4
4
4
4
6
8
2
4
4
0
5
-4
13
11
12
15
14
6
10
13
2
3
5
24
23
16
19
17
19
15
7
24
29
29
22
25
23
24
37
28
33
39
34
47
24
21
36
40
47
28
40
38
48
53
52
53
44
39
46
59
55
53
59
64
55
58
60
56
52
57
64
65
58
56
64
57
50
57
53
54
54
41
51
52
40
45
43
30
37
34
32
24
36
22
14
18
23
10
16
17
3
14
23
6
-2
4
3
6
1
9
0
7
12
-16
4
3
5
13
8
-10
-4
5
9
-9
-3
-8
0
0
-1
2
-1
-10
-1
4
0
-4
-2
-1
-3
6
7
-2
4
6
1
1
1
4
-1
2
-8
-6
8
4
8
-13
14
12
-2
1
2
-3
7
-1
-2
-2
-3
4
-2
-2
-1
0
4
-1
-5
-4
-7
3
-5
4
5
5
0
3
-6
-5
-5
12
0
4
-7
3
2
5
-4
-9
-7
-5
0
1
-1
4
-1
2
-15
9
8
0
10
1
9
10
7
1
14
5
10
9
15
23
19
17
24
26
12
25
11
20
13
9
9
18
33
13
3
3
-1
-1
4
-5
-4
-4
-7
-3
-5
-11
-8
-13
-13
2
3
-2
-8
-4
-11
-12
-12
-16
3
-12
0
5
-4
-8
-9
-4
-7
-6
-7
-14
-12
-2
-5
-16
-23
-13
-14
-4
-19
-25
4
25
55
80
117
159
196
232
266
265
274
260
227
168
119
68
15
-43
-62
-69
-59
-51
-57
-60
-49
-56
-52
-44
-33
-32
-19
-9
-5
-4
3
-7
1
-4
1
-3
-7
8
-12
-1
-10
-4
-3
0
-1
2
-4
5
1
1
6
-5
5
9
15
0
-3
8
-1
-1
17
14
11
10
10
23
14
16
6
17
14
6
13
14
16
17
17
23
18
33
20
26
29
24
26
23
27
35
29
35
43
50
45
40
34
40
43
46
49
44
38
53
54
55
51
53
66
57
58
60
54
53
55
54
49
65
65
58
58
42
60
60
62
62
50
41
47
42
37
40
38
25
31
38
29
28
32
12
30
18
10
16
14
18
10
16
12
2
10
10
9
6
4
6
-4
7
1
2
8
2
-1
6
-1
-7
-10
7
-5
-8
6
7
0
-4
-4
-9
8
-4
12
10
0
8
0
-5
1
-1
-3
-4
-1
5
6
3
-6
-6
-4
7
-2
-8
3
-7
-10
10
4
-2
5
2
5
3
-1
-2
8
1
0
2
3
-3
2
-2
2
6
-4
-1
-2
-1
2
-13
-14
-1
1
7
-11
-1
-9
-3
7
-9
0
-12
-4
3
-16
-7
-10
0
-18
-1
2
-5
-5
2
-3
0
-6
1
3
-4
-10
10
2
6
-1
1
0
7
12
11
22
21
4
5
17
15
5
25
12
18
9
0
-1
4
-22
-5
-4
1
1
-5
-19
-11
-10
-10
-9
-2
-11
-9
-11
-13
-13
-14
-14
-2
-1
-12
-23
-8
-9
-15
-9
-13
-23
-1
-14
-15
-13
-14
-9
-11
-6
-5
-21
-25
-18
-9
-8
-9
-2
15
30
68
97
149
190
222
248
263
253
237
216
181
122
69
23
-32
-73
-72
-58
-62
-50
-44
-56
-57
-57
-58
-46
-45
-41
-34
-24
-14
-11
-4
-1
-4
-6
0
-1
1
-1
-4
-12
-7
-4
-12
-3
-2
-3
-9
-4
0
-5
-4
7
-1
-4
5
11
6
6
1
1
2
30
4
2
11
16
7
0
4
12
16
15
13
14
17
13
11
16
17
19
23
30
30
10
25
31
25
36
28
20
23
31
38
36
39
39
42
43
46
47
54
54
46
46
42
49
55
60
56
55
43
44
53
48
57
50
51
53
57
56
59
59
45
48
46
44
39
45
44
29
31
36
31
27
32
17
14
15
9
26
19
19
8
8
10
13
8
3
-5
4
2
6
0
8
-4
-9
-5
9
3
0
0
-3
-10
1
-7
-6
-3
6
-4
-2
1
-2
-1
-4
1
-7
-9
4
1
3
-1
-7
4
-1
-5
-11
3
7
8
-1
0
6
0
-4
5
-4
-4
1
-10
-5
3
-5
5
15
0
-16
9
-4
-6
4
-5
-21
-2
4
1
12
-5
3
-1
1
-8
-7
-12
-3
-5
-8
1
3
1
-5
-1
-10
-5
-12
-14
7
3
11
1
-3
0
-4
-4
0
-1
1
5
10
1
12
5
-1
12
15
20
26
18
15
17
6
19
13
23
17
10
4
13
6
3
-12
-8
-1
-2
1
-3
-6
1
-12
-13
-10
-7
-10
-11
7
-6
-7
-2
-15
-10
-6
-4
-10
-14
-7
-12
-4
-15
-17
-10
-2
2
0
-18
-19
2
-16
-10
-3
-22
-21
-21
-21
-19
-11
2
22
70
88
131
168
217
254
272
269
249
234
196
144
82
37
-16
-68
-71
-62
-60
-58
-62
-58
-66
-60
-54
-37
-34
-23
-21
-13
-12
-20
-14
-14
0
-1
0
1
3
4
-3
1
-7
-6
-8
-7
4
7
-12
6
2
4
-4
-3
-6
3
18
2
3
1
10
-4
6
6
-4
15
14
10
6
7
13
6
14
16
8
11
24
22
3
19
32
31
29
32
35
23
26
34
29
32
32
30
35
41
32
33
33
35
34
47
46
50
44
51
53
54
43
53
48
53
59
67
55
54
57
68
59
52
59
61
59
57
46
48
44
49
47
40
38
38
42
31
28
30
31
28
21
18
9
13
19
17
15
0
2
8
7
10
8
10
13
2
-7
-5
-13
8
1
-9
-5
6
1
-6
-1
1
-4
-5
-2
3
4
-7
-5
-7
-12
-17
8
-5
-6
-13
-2
2
0
4
3
-13
-9
-13
-4
-5
4
3
2
-2
1
-17
-3
0
-5
3
8
4
-13
-3
16
-9
-11
-2
-1
-4
2
-6
-4
-6
-1
0
-2
9
6
-2
4
-4
-9
1
-4
-8
-3
-4
0
-10
-7
-7
-12
-16
7
3
5
2
0
-3
4
-7
2
0
0
-1
6
13
4
1
7
13
13
19
16
14
14
16
14
26
26
17
26
18
6
-2
5
22
3
2
13
6
-7
-11
4
-2
-5
-2
-15
-10
-3
3
-12
4
-14
-11
-5
-8
-12
-4
-6
-7
-16
-7
3
-3
-6
-7
-4
-14
-16
-10
-16
-7
-5
-12
-12
-17
-6
-15
-14
-21
-21
-9
-8
-2
19
47
90
128
178
217
258
276
263
250
241
198
138
95
34
-9
-63
-71
-68
-62
-60
-70
-68
-60
-49
-43
-35
-29
-28
-23
-21
-10
-22
-7
-10
-16
-8
-6
-11
-6
-12
0
1
4
-1
-14
-8
-3
-2
-9
-3
-1
-13
-3
0
6
-7
1
-2
-1
-11
-2
3
10
13
9
12
14
2
11
6
10
3
6
15
8
17
26
7
13
18
17
24
12
19
17
17
23
27
30
29
26
30
42
27
27
44
45
33
40
42
47
51
59
43
53
50
54
51
52
51
47
52
60
55
51
55
57
55
61
59
49
35
55
56
38
42
56
36
46
36
30
30
40
39
27
26
21
17
20
14
13
11
16
11
7
11
4
9
-5
1
3
-3
-3
-1
-12
3
-10
8
-4
-8
-4
-2
6
3
-4
-5
-1
-7
-9
3
-1
0
-5
-7
-3
-3
-5
-1
4
-2
2
7
-2
-7
0
5
-10
-10
7
-3
-4
-3
-3
-6
0
-5
5
4
-4
-9
-16
-5
-2
4
-6
1
-4
-5
-1
4
-5
0
8
-4
-6
3
-6
-7
8
-13
-10
-7
-12
-13
-1
9
0
-7
5
-11
-1
-1
-9
-7
-7
-11
6
3
2
0
-3
-2
4
15
4
8
6
10
10
2
2
8
15
21
22
14
15
11
7
-1
9
21
11
15
9
6
0
1
4
-2
-13
-11
-10
-12
3
-4
-18
-5
-10
-11
-17
-10
-2
-11
-10
-6
-17
-10
-18
-7
8
-15
-16
-11
-13
-7
-10
8
-9
-24
-18
-5
-10
-11
-2
-14
-19
-16
-13
-11
-2
5
21
44
74
118
159
201
218
243
262
245
229
165
133
96
48
-5
-54
-73
-64
-70
-66
-58
-63
-57
-59
-52
-48
-40
-30
-28
-19
-15
-19
-8
-10
4
-5
-16
-2
0
-9
-9
1
1
-4
-1
2
-1
0
10
-1
-2
4
2
-10
4
10
0
1
0
10
8
4
5
1
8
10
-3
15
9
8
14
12
4
16
17
9
12
22
31
24
14
16
22
25
20
22
20
35
24
26
32
27
26
43
50
41
38
53
40
38
40
44
38
41
45
50
47
55
53
65
53
52
37
51
49
55
54
51
63
61
61
56
44
51
49
48
48
54
59
50
33
13
30
35
35
33
24
29
25
17
13
12
13
20
19
23
1
5
0
-5
16
0
9
2
5
-1
4
6
14
2
-1
0
7
15
3
-3
3
3
-5
-6
4
8
5
6
4
-1
-2
-7
0
-2
0
-3
-11
9
4
0
2
19
2
-8
4
2
5
6
0
5
3
1
-4
2
3
-7
-6
2
1
1
0
6
-5
8
9
3
3
-1
2
-2
9
2
2
-12
1
4
11
4
-5
-1
0
3
3
0
4
-4
-2
0
7
7
-4
3
1
5
-2
4
9
8
3
5
11
13
7
4
19
10
10
10
5
10
29
19
15
26
26
18
19
19
17
1
6
14
7
-4
-8
-3
-2
1
-3
-6
-4
-10
-11
-3
1
-9
-5
0
-14
-8
-8
-8
-11
-14
-7
-25
-16
-1
-5
1
1
-2
-2
-2
0
-7
-4
-14
-16
-7
-7
-9
-19
-10
-9
-7
6
22
56
86
124
161
201
240
259
260
251
216
183
139
89
24
2
-55
-70
-70
-63
-64
-67
-48
-45
-45
-46
-41
-37
-32
-26
-15
-24
-9
-3
-4
-3
7
-2
-5
1
-6
-12
-3
0
-6
-12
3
-1
2
0
2
-1
2
4
-1
0
-11
-1
1
-3
-1
4
5
14
11
2
15
10
9
12
13
4
9
14
21
0
15
21
8
12
19
17
23
23
21
25
26
34
39
22
25
33
37
39
37
23
47
41
32
34
34
36
44
49
47
47
45
53
64
49
50
66
49
52
58
47
64
59
51
55
61
55
57
53
54
51
43
34
46
47
40
35
36
41
39
31
27
27
18
25
11
17
23
18
22
12
1
-3
3
8
8
2
16
7
0
8
9
3
-6
4
2
-4
-5
3
-7
5
1
-4
1
0
4
3
8
2
-1
-5
-5
-5
1
6
-1
-4
4
1
-1
3
-4
1
-2
-5
-8
-3
2
2
7
5
2
-1
5
0
2
7
0
-1
0
4
-10
-4
-3
-1
-3
2
10
6
10
-5
0
-3
5
-2
-4
9
-7
-9
-6
-2
5
18
2
-3
-5
9
0
-12
-7
7
-2
2
7
6
10
11
9
3
10
15
-3
11
12
9
14
22
20
25
24
19
19
22
14
8
17
15
3
8
5
-8
2
-3
-4
-6
-13
-6
3
-2
-11
-9
-7
-11
0
-4
-2
-5
-9
-20
-16
-16
-17
-11
0
-8
-9
-5
0
-2
-4
4
-16
-9
-10
-18
-4
-12
-14
-22
-18
-26
-30
-19
-11
-2
18
45
75
116
168
202
229
259
268
269
249
217
158
107
51
5
-46
-72
-61
-72
-54
-40
-50
-49
-44
-41
-35
-31
-31
-26
-15
-7
-12
-8
-1
0
-10
-8
-5
-8
-1
3
-2
-13
-8
-9
-7
1
14
2
-9
-3
-7
0
-2
0
-2
-3
-5
8
13
13
6
5
3
-8
9
6
8
10
-7
14
21
15
24
18
15
21
13
20
18
14
16
17
27
19
24
31
35
31
31
31
28
38
34
36
38
39
35
51
52
47
47
37
56
50
47
40
58
67
43
64
52
50
55
55
58
62
57
57
53
52
63
53
52
49
53
45
36
44
49
39
36
37
26
27
29
28
30
20
11
7
17
24
23
8
9
9
-6
5
10
12
-1
10
-6
-6
3
1
1
0
10
-3
-1
-2
-10
-1
-3
5
3
-1
5
-4
-1
3
8
-6
-9
-12
-1
21
9
0
-6
1
1
-3
4
9
-4
-3
-5
-13
-4
-4
-4
5
10
-1
-1
0
0
-11
-7
11
5
-5
1
5
-4
8
-2
0
-3
-1
6
-4
-6
-11
3
7
11
9
-3
-1
6
0
-1
-9
-6
-4
-1
16
9
-10
4
8
15
3
1
13
10
11
7
4
5
11
12
3
8
17
14
13
14
29
21
19
21
15
16
27
18
22
19
21
12
6
8
15
1
1
-4
8
10
2
-3
-5
-4
-8
-6
-2
-5
-8
-5
-2
-7
-2
-5
-15
-6
-8
-3
0
1
0
-12
-8
-3
-6
-13
-3
-2
1
-2
-2
-11
-17
-23
-22
-20
-14
-16
-11
2
10
37
71
109
152
193
240
272
283
272
245
225
177
135
79
23
-26
-65
-67
-54
-53
-67
-60
-56
-57
-49
-40
-24
-18
-14
-22
-15
-4
-11
-6
-2
-1
-3
-4
-8
-7
-7
-3
-6
1
-8
-6
-9
0
19
-2
-3
-4
-2
-8
2
0
-4
-1
10
1
4
12
-1
-4
2
6
10
-6
6
11
15
16
10
15
24
22
21
14
15
15
19
18
30
19
27
30
24
16
25
29
31
35
44
39
40
28
15
42
50
34
50
47
51
58
52
57
50
53
41
50
61
61
57
54
59
57
56
55
66
56
46
48
50
50
57
44
36
40
44
54
38
40
33
32
25
31
31
28
8
15
22
15
12
4
5
3
14
12
2
-3
5
2
-7
5
4
0
5
5
-9
-18
-17
0
-6
-4
-2
-8
0
-3
-11
-9
-8
0
-7
-11
-1
-1
-1
-2
-6
-15
2
-2
-2
-8
-1
-5
0
-11
-6
-10
-6
-15
-22
5
2
-1
1
-8
-12
-10
-2
-3
-17
-2
-8
-14
-4
-12
-6
-7
-7
-4
-10
-9
-16
-8
-13
-4
-11
3
-11
4
-13
-5
-7
-6
-1
-13
-12
0
-5
-14
-1
-6
-13
-3
-9
-3
-3
-6
0
5
-2
6
-3
-15
-9
-5
3
5
5
16
9
2
11
12
14
9
12
12
18
12
1
1
9
4
1
21
5
6
-6
-9
-7
-9
-12
-20
-6
3
-9
-20
-13
-20
-2
-6
-6
-7
-12
-16
-25
-19
-11
-2
-7
-15
0
-2
-14
-8
-11
-16
-20
-14
-22
-12
-13
-16
0
-8
-21
-14
-9
-16
-10
3
18
56
82
120
150
185
236
250
251
247
220
192
133
83
34
-8
-57
-75
-63
-58
-58
-60
-52
