0
11
52
87
103
101
95
56
10
-14
13
23
58
82
100
96
89
50
9
9
16
31
79
108
102
96
83
50
21
8
22
31
66
105
115
107
93
49
23
8
21
42
77
112
106
76
73
30
4
2
12
25
63
93
104
95
76
30
-5
4
6
18
50
89
91
83
71
32
3
-13
11
31
62
90
94
79
71
34
11
4
0
29
70
91
95
101
78
29
-11
-17
-2
23
52
71
74
69
55
55
47
64
104
172
244
279
294
289
265
223
203
180
110
103
114
127
124
98
63
22
8
6
13
53
95
115
104
98
61
16
-8
7
12
59
84
98
88
78
50
20
3
5
11
46
80
106
102
86
47
15
0
1
21
59
88
103
96
91
45
6
5
5
14
54
99
106
96
88
56
14
4
12
23
65
96
103
92
94
45
2
-1
15
35
71
101
118
107
90
57
21
9
16
27
73
102
115
97
81
59
23
16
26
44
81
111
112
105
98
58
29
24
39
55
96
115
124
112
99
55
29
37
36
66
108
135
143
134
103
66
32
36
44
71
107
136
151
135
114
79
53
49
59
86
126
148
146
138
103
69
42
39
52
75
111
146
144
124
88
51
34
37
38
61
101
116
97
89
59
25
10
16
19
49
93
113
108
91
48
18
-2
5
18
57
81
92
90
85
53
14
-2
-12
14
67
94
105
102
79
43
-7
-23
-9
4
42
83
102
104
85
50
12
-4
13
18
66
94
98
96
78
34
9
2
4
26
63
92
92
84
84
41
11
-1
-3
10
60
92
94
96
75
42
6
-10
6
20
60
92
103
110
91
42
7
-2
2
24
60
96
102
87
70
28
7
5
11
29
64
96
111
91
70
29
-4
5
2
18
71
98
98
88
70
29
2
-2
13
30
72
98
93
87
63
24
-1
0
9
31
73
97
99
87
62
20
-7
-5
11
39
75
95
98
90
61
18
2
8
18
54
89
105
101
90
53
19
5
8
21
52
80
103
111
97
70
28
-1
2
13
55
100
115
112
106
69
23
5
8
21
65
97
120
102
81
48
9
-7
-2
7
41
86
99
95
96
57
13
-3
1
0
36
73
99
103
89
44
1
-2
7
16
52
88
92
92
85
38
1
-4
-1
13
48
84
99
89
75
39
-2
-13
-3
7
38
72
86
83
77
41
17
40
68
108
177
246
269
272
250
213
182
172
139
106
105
108
117
107
81
38
4
-3
10
35
74
95
97
95
78
33
-1
-3
8
33
79
95
96
82
69
29
-9
-6
1
37
80
104
102
89
58
24
-4
1
12
26
53
101
108
94
60
11
7
-1
0
45
78
96
96
84
54
26
0
5
15
47
92
117
105
82
58
19
4
1
16
57
97
108
111
95
60
17
1
7
15
56
100
120
115
96
52
8
6
13
32
67
98
122
125
109
67
27
7
11
19
69
112
134
112
107
75
42
34
37
49
85
120
141
130
110
81
39
30
38
61
102
132
149
155
130
82
44
35
47
57
102
136
145
134
125
81
52
47
48
71
110
134
139
127
115
57
27
24
29
32
84
115
121
105
88
38
10
7
18
29
54
88
91
89
72
28
-6
-12
-1
30
69
95
105
97
72
30
-4
0
2
34
66
99
100
89
73
25
6
12
3
40
86
114
94
79
63
14
-9
-12
3
18
75
110
111
86
53
12
0
2
5
42
72
99
106
90
62
32
2
-3
6
38
75
101
103
97
60
14
-5
-4
4
44
84
98
96
87
55
21
-17
-5
16
51
81
95
90
90
51
13
-2
-1
15
55
83
89
93
94
45
2
-5
11
26
58
82
89
86
72
38
5
-11
1
13
45
78
97
93
76
45
11
1
2
7
60
95
110
96
77
24
-10
-28
0
28
75
94
104
94
70
34
8
3
19
29
67
97
109
101
83
37
8
8
8
29
84
107
103
87
77
39
-1
0
9
29
70
100
101
91
78
17
-14
-16
0
25
66
93
94
85
68
17
-7
-15
-1
27
64
87
101
96
41
18
-12
-8
-4
19
75
92
77
85
51
21
-11
-24
-11
29
76
105
100
94
64
8
-21
-40
-22
8
60
83
101
122
106
86
102
128
155
194
246
263
270
267
221
117
35
26
19
57
99
112
100
85
48
11
-11
-6
9
50
82
94
83
82
55
10
-4
-9
8
49
98
100
89
85
41
2
-6
-10
2
50
91
100
88
78
30
-4
-4
12
18
59
95
107
88
77
42
0
-7
1
17
57
94
105
100
82
28
-3
-15
8
29
58
96
105
97
76
37
5
-1
12
39
60
90
102
86
75
33
2
2
16
29
72
99
106
84
88
40
17
2
6
38
82
110
123
118
81
41
22
6
23
49
80
128
119
106
75
33
9
8
31
60
108
135
135
127
92
39
30
34
48
83
123
142
131
121
98
54
31
37
53
98
112
134
132
125
88
50
25
31
32
69
105
137
104
95
66
23
-1
10
9
61
89
104
104
81
45
1
-20
-12
1
42
92
98
89
84
39
-5
-18
-11
-12
28
75
94
91
79
29
-3
-28
-18
1
39
72
92
92
82
33
-3
-13
-5
9
50
82
102
93
73
31
2
-17
-14
10
43
85
80
74
65
33
-7
-5
6
19
61
85
83
72
64
21
-15
-14
2
22
61
85
96
82
68
20
-16
-14
0
18
62
91
97
93
72
29
-13
-18
-7
15
64
88
79
82
54
17
-9
-19
0
32
67
91
84
80
60
6
-23
-25
-7
31
68
93
95
79
49
12
-9
1
13
25
60
86
86
73
38
6
-15
-15
11
29
80
86
83
69
43
5
-8
-4
7
44
73
96
90
74
45
7
-9
6
11
53
86
98
93
97
54
2
-18
-10
7
55
84
105
113
93
33
4
-10
-11
1
37
82
89
79
74
34
-2
-26
-3
11
51
87
91
81
69
32
1
-11
-12
0
49
87
94
96
91
41
1
-8
-23
-11
37
80
98
92
80
36
-2
-22
-10
4
31
68
75
75
68
35
18
34
67
104
176
241
279
277
247
223
203
193
201
145
131
138
127
107
86
36
9
-7
7
39
78
110
112
102
77
24
-11
-12
13
40
74
102
98
76
74
21
9
-2
-5
36
79
100
104
94
72
28
7
-13
-1
26
66
99
103
84
55
21
1
1
20
56
95
119
94
77
59
25
-16
-11
11
52
79
96
101
92
48
10
-1
4
18
51
85
112
106
87
51
15
-3
6
21
53
89
113
114
115
62
11
-13
6
23
65
100
109
106
102
62
21
9
13
29
74
111
118
103
101
58
25
11
21
39
83
122
141
137
123
78
32
24
40
62
114
139
138
129
121
80
57
45
51
64
107
142
144
144
125
65
44
31
45
62
91
119
141
119
95
56
23
16
26
50
86
112
122
97
85
37
4
6
10
38
71
105
99
85
67
20
-1
1
6
33
80
100
103
87
56
25
-3
-13
4
42
80
108
99
85
59
17
-12
-6
-3
36
75
90
99
95
65
27
2
-10
5
45
83
87
86
86
53
8
-14
-7
1
38
85
107
105
94
59
24
13
4
13
37
72
102
100
85
51
16
-10
-3
10
49
86
102
92
78
39
2
-14
-9
10
47
83
100
92
83
36
4
-13
0
18
58
94
106
98
78
31
-4
-8
6
21
56
82
91
75
77
35
-3
-17
-16
17
50
90
93
84
68
27
-15
-11
3
20
60
90
95
87
67
25
-4
-6
4
12
54
99
93
90
71
26
-21
-31
-2
16
57
85
105
81
65
26
5
-3
-6
21
62
91
106
82
70
30
-1
1
6
35
68
92
104
105
72
37
14
-2
18
40
70
107
109
106
72
18
-7
-7
2
32
72
105
94
84
44
16
3
-3
4
30
72
84
86
90
47
11
-8
-9
3
41
73
90
97
89
55
-5
-6
-9
-12
36
85
93
92
86
48
14
-15
-22
1
37
73
84
83
71
28
-9
-28
-18
-8
38
99
121
144
156
156
160
154
184
205
252
288
304
287
236
119
51
26
19
21
60
100
121
106
90
48
9
-21
-15
-3
47
93
105
91
72
30
-15
-14
-2
11
50
89
96
96
75
29
-7
-10
-3
14
48
84
93
85
75
20
0
-7
10
29
77
100
86
79
73
31
1
-11
12
30
60
80
76
72
63
14
-8
-20
0
22
74
97
99
86
64
16
-8
-10
6
31
72
97
101
94
63
19
-3
-12
10
30
72
118
97
79
52
29
-5
0
-3
40
83
102
109
94
71
35
10
12
16
42
93
115
113
109
72
46
27
29
34
67
94
117
114
104
69
40
31
40
46
78
123
130
132
125
81
33
21
32
46
101
128
146
115
95
65
26
12
23
32
72
111
124
114
93
51
15
-3
7
3
46
82
95
84
70
28
-16
-27
-8
-8
55
89
80
76
67
24
-20
-28
-12
-2
46
82
98
91
76
22
-11
-29
-11
9
34
60
75
78
63
21
-11
-27
-19
4
50
81
83
65
57
17
-16
-24
-23
2
45
78
78
77
48
13
-13
-21
-27
-3
53
71
72
65
47
5
-22
-23
-24
17
61
69
79
67
38
-8
-36
-30
-15
14
55
78
80
77
41
-9
-49
-40
-30
7
60
96
85
59
25
-18
-44
-22
-11
10
51
77
66
63
26
-19
-38
-38
-31
11
48
70
70
74
38
-13
-41
-20
-22
7
42
63
66
64
20
-21
-45
-36
-23
23
64
71
75
60
5
-25
-43
-38
-27
25
58
70
64
49
9
-27
-43
-25
-22
19
62
64
61
49
8
-30
-40
-31
-20
23
67
74
57
49
6
-34
-38
-25
-15
28
58
72
66
43
17
0
-8
7
0
22
61
71
68
49
1
-29
-41
-27
-6
25
70
74
56
36
-5
-26
-35
-30
-8
29
60
57
49
27
-18
-43
-48
-20
-1
35
61
52
68
40
-11
-48
-44
-40
-15
31
57
66
56
28
-7
-32
-27
-25
-14
12
48
60
47
8
-33
-50
-38
-30
-1
36
54
49
30
0
-39
-58
-56
-32
29
88
115
146
173
166
148
145
150
161
210
245
246
186
128
62
9
-23
-21
-18
15
48
66
65
46
18
-16
-39
-31
-32
10
53
70
63
40
-8
-39
-49
-49
-37
22
43
61
56
44
-2
-32
-53
-42
-15
15
48
55
47
41
5
-28
-45
-37
-23
17
56
59
47
36
-4
-38
-45
-26
-12
32
58
59
50
45
5
-35
-47
-37
-30
20
54
77
55
28
-19
-31
-33
-32
-16
29
60
66
56
39
-11
-53
-53
-32
-2
36
62
66
69
46
-4
-34
-27
-16
17
52
85
81
72
44
-6
-29
-26
-11
19
62
91
87
71
47
8
-9
-14
-4
44
83
108
98
75
42
19
-4
-2
8
40
76
100
95
90
58
18
1
-1
3
41
79
100
104
82
49
0
-15
-12
-2
29
76
95
76
45
26
-8
-41
-23
-24
17
42
67
50
47
12
-31
-52
-50
-32
10
47
61
58
45
2
-36
-52
-50
-36
6
46
57
51
45
6
-33
-36
-47
-35
4
49
55
47
34
-11
-36
-41
-39
-20
27
57
64
48
22
-13
-52
-49
-37
-34
15
43
62
53
36
-13
-42
-46
-29
-26
20
55
51
42
29
-11
-44
-50
-48
-37
14
49
59
46
27
-11
-45
-46
-39
-14
23
55
53
44
19
-26
-45
-38
-33
-26
18
56
65
45
17
-12
-43
-55
-39
-16
26
50
52
34
13
-21
-42
-42
-27
0
31
42
49
42
9
-30
-45
-39
-35
-2
30
53
54
42
8
-35
-61
-39
-29
-10
34
60
53
41
12
-30
-47
-38
-33
-12
23
57
54
52
18
-26
-48
-37
-36
3
39
58
53
48
7
-32
-46
-31
-25
22
60
74
65
48
17
-25
-45
-41
-29
5
39
60
46
43
4
-31
-42
-40
-24
12
43
54
45
40
-6
-43
-51
-32
-20
24
60
57
38
21
-21
-53
-60
-49
-31
16
46
52
49
38
-11
-48
-49
-39
-25
21
51
52
42
29
-14
-47
-59
-63
-38
0
39
54
55
56
45
37
54
87
131
182
221
243
235
217
176
78
13
-6
3
41
78
79
64
40
-8
-42
-60
-51
-13
40
60
62
54
25
-19
-44
-41
-29
-6
39
57
61
47
19
-20
-41
-45
-37
-3
28
56
62
60
26
-14
-45
-53
-48
-8
43
73
70
66
29
-16
-55
-54
-39
8
43
71
68
46
10
-21
-35
-29
-19
11
49
74
75
55
7
-28
-48
-39
-24
18
54
60
62
57
9
-27
-42
-32
-27
18
57
68
74
67
8
-24
-35
-25
-8
25
64
78
70
60
25
-5
-18
-15
-10
47
77
88
70
57
26
-7
-15
2
7
50
85
96
88
67
29
-4
-5
-4
20
66
93
101
94
89
40
9
1
12
36
72
105
109
92
74
33
3
2
8
28
74
83
81
71
51
6
-23
-25
-20
-2
38
68
71
57
42
-3
-42
-42
-37
-14
21
60
74
61
25
-11
-49
-45
-43
-17
35
64
68
55
23
-18
-48
-43
-34
3
34
54
53
54
11
-29
-52
-43
-41
7
50
61
50
33
-2
-31
-49
-37
-26
10
46
62
50
35
8
-22
-46
-37
-19
22
48
58
54
48
13
-30
-47
-41
-30
13
49
68
58
55
21
-11
-36
-45
-34
10
48
59
54
45
10
-28
-42
-43
-33
10
49
66
58
50
3
-33
-43
-36
-28
17
50
57
55
45
4
-34
-41
-34
-20
22
58
66
53
42
5
-32
-37
-36
-24
26
59
64
47
26
-24
-41
-51
-28
-4
35
72
69
61
42
-7
-36
-44
-36
-6
37
76
83
64
44
4
-30
-30
-22
-4
25
62
85
77
44
13
-11
-3
1
14
43
65
63
51
13
-24
-50
-49
-27
-1
40
65
68
57
28
-10
-44
-43
-36
1
37
56
64
59
32
-20
-44
-39
-32
3
45
74
69
60
21
-19
-43
-39
-27
7
51
71
81
58
24
-26
-47
-45
-47
-7
28
52
52
41
21
5
15
32
69
141
199
228
228
211
175
146
127
85
39
46
72
81
81
58
10
-13
-35
-28
-18
29
68
73
71
46
21
-27
-39
-34
-13
35
64
71
65
50
8
-26
-42
-33
-14
37
71
77
60
51
3
-29
-35
-29
-23
23
59
72
65
42
1
-33
-43
-32
3
34
73
71
65
43
4
-25
-29
-27
-10
36
71
77
74
53
4
-23
-27
-16
8
47
70
61
56
41
5
-22
-33
-25
0
49
70
79
69
43
-3
-19
-6
1
23
49
71
77
72
40
-9
-23
-15
-12
23
73
96
95
84
57
15
-11
-11
0
32
72
94
93
82
50
23
12
8
14
47
91
109
108
97
63
19
3
-5
16
56
99
106
102
89
61
36
15
12
14
34
77
102
98
87
27
-7
-22
-16
-6
32
67
81
77
82
35
-19
-46
-41
-26
19
61
64
47
47
9
-35
-38
-34
-16
29
63
74
57
54
18
-22
-40
-29
-22
28
52
55
48
37
5
-31
-36
-28
-13
26
64
69
63
45
-6
-36
-45
-13
3
35
67
67
58
44
6
-24
-40
-33
-9
31
66
67
47
32
-20
-34
-40
-34
-2
32
64
62
64
36
-5
-29
-33
-17
17
50
53
63
54
27
-15
-34
-39
-26
-5
41
68
64
52
23
-11
-37
-37
-31
10
42
66
65
57
22
-8
-36
-34
-31
7
44
66
62
55
21
-16
-39
-43
-29
5
49
69
69
61
26
-16
-35
-24
-19
14
54
64
66
54
21
-19
-34
-27
-21
25
57
76
75
60
24
-18
-33
-28
-21
27
68
70
63
51
9
-18
-35
-31
-18
21
61
75
68
42
4
-34
-42
-34
-27
26
61
68
59
48
9
-26
-37
-37
-23
23
52
60
63
35
-11
-23
-41
-33
-20
25
41
52
61
45
-1
-38
-51
-45
-25
10
51
54
39
31
-2
-10
6
32
77
143
211
233
228
198
155
148
148
132
90
71
80
85
63
50
1
-33
-45
-22
-2
33
72
66
58
25
-15
-40
-43
-34
-2
45
73
74
64
27
-15
-45
-44
-25
5
45
68
57
58
27
-14
-37
-34
-23
13
41
66
64
56
27
-12
-36
-46
-32
9
58
73
58
51
20
-19
-42
-32
-22
13
51
61
65
48
7
-27
-44
-29
-17
17
56
71
66
52
16
-19
-27
-18
-17
30
63
77
66
46
13
-31
-36
-25
-12
29
69
83
70
65
15
-20
-29
-24
-1
46
74
81
74
64
28
-2
-11
-10
-1
58
87
93
86
79
34
-3
-12
3
14
57
92
107
103
83
37
1
-5
10
35
72
95
101
96
73
33
2
-7
3
20
60
83
90
83
66
12
-27
-31
-18
5
40
72
79
67
37
-9
-38
-43
-27
2
38
62
62
55
26
-13
-47
-46
-33
-1
38
58
51
55
30
-22
-51
-48
-34
0
32
60
60
42
25
-14
-50
-50
-27
11
52
66
60
42
8
-28
-59
-43
-27
7
39
49
53
39
8
-26
-42
-34
-25
10
53
72
67
42
8
-33
-51
-49
-39
8
49
67
51
47
5
-29
-38
-36
-22
16
40
57
57
50
1
-45
-45
-38
-26
9
49
61
62
33
-4
-36
-44
-25
-22
19
39
56
50
39
-6
-40
-50
-37
-25
17
55
63
52
37
-1
-46
-48
-32
-22
15
62
68
73
54
-2
-46
-57
-45
-10
33
48
70
54
25
-10
-45
-45
-36
-15
31
60
63
48
31
-25
-43
-44
-7
7
37
61
63
50
28
-9
-39
-46
-30
2
42
66
68
60
35
-7
-31
-34
-17
11
40
56
66
64
52
-3
-27
-31
-31
7
36
56
56
45
15
-9
-34
-50
-35
-12
33
58
51
44
22
-28
-50
-45
-36
3
42
58
56
47
8
-36
-55
-39
-30
7
47
56
49
43
3
-33
-49
-48
-38
15
47
65
44
21
-17
-69
-79
-47
-31
42
102
139
154
172
155
120
114
143
163
210
239
242
180
110
53
0
-23
-19
-20
22
57
72
60
48
1
-36
-41
-33
-15
19
54
68
48
38
0
-31
-34
-27
-19
18
52
66
63
45
-1
-40
-52
-29
-9
28
59
69
54
36
-8
-37
-46
-32
-7
32
52
60
64
51
5
-30
-33
-27
-9
36
57
68
60
25
-16
-38
-38
-34
-7
38
68
80
82
43
-13
-41
-48
-28
8
43
70
71
63
36
-1
-26
-33
-31
6
47
69
79
67
42
-1
-18
-25
-19
18
55
77
77
72
38
5
-15
-22
-1
39
70
95
97
93
43
-3
-25
-13
-1
43
93
110
98
88
53
11
7
16
29
71
86
106
110
90
58
18
1
7
16
54
82
101
104
89
43
-2
-19
-21
-6
42
76
90
80
67
28
-23
-44
-21
-20
13
51
60
60
44
-4
-31
-49
-32
-23
30
63
75
59
54
-2
-48
-44
-29
-10
30
58
61
48
31
-12
-39
-44
-30
-12
33
63
68
61
47
-11
-36
-55
-46
-17
26
55
62
51
31
-12
-41
-47
-37
-7
35
52
40
42
26
-7
-41
-41
-27
-6
35
64
62
58
29
-20
-55
-49
-29
-2
36
66
63
47
15
-28
-53
-55
-43
-11
33
58
60
54
22
-24
-47
-54
-34
0
40
71
65
46
17
-24
-47
-39
-30
8
42
65
53
43
12
-18
-43
-50
-38
3
41
64
70
55
17
-36
-45
-37
-22
-1
37
54
55
41
-2
-37
-49
-42
-27
10
56
68
47
22
-6
-37
-44
-43
-41
3
47
60
50
49
11
-38
-50
-34
-21
20
54
60
45
38
9
-34
-45
-45
-21
23
54
72
42
34
-14
-52
-42
-31
-19
25
65
58
51
37
-10
-39
-51
-37
-20
28
62
69
62
50
6
-29
-39
-24
-5
38
65
71
60
40
-8
-42
-51
-41
-12
30
61
60
44
12
-26
-48
-38
-31
-9
24
50
50
34
19
-21
-54
-50
-33
-14
20
56
56
39
9
-31
-59
-60
-42
5
49
63
51
42
15
-24
-49
-46
-33
4
42
56
44
33
-6
-53
-58
-58
-30
20
84
126
146
175
164
141
139
155
168
209
244
243
162
95
40
-5
-28
-32
-19
12
62
80
54
51
10
-34
-50
-49
-30
15
42
57
52
43
6
-30
-42
-36
-25
6
49
57
60
41
1
-48
-62
-43
-22
27
60
55
46
33
-9
-42
-55
-39
-35
13
45
58
50
42
-11
-47
-54
-43
-26
21
58
70
57
31
-11
-30
-38
-30
-13
22
54
63
54
37
-9
-36
-44
-46
-24
28
58
72
59
35
-14
-40
-40
-25
-8
39
54
66
61
35
-6
-34
-40
-19
3
45
72
73
63
42
1
-26
-23
-14
17
60
87
80
69
40
-6
-14
-11
9
35
67
85
79
74
44
8
-16
-5
13
51
77
100
102
93
58
19
-8
-10
7
41
78
99
92
82
45
4
-25
-17
-10
27
58
81
73
50
14
-31
-34
-37
-29
8
41
71
67
48
4
-49
-68
-67
-41
2
25
51
47
31
-4
-38
-56
-55
-40
-2
32
46
52
41
-6
-34
-43
-37
-37
-2
40
51
40
33
-15
-46
-59
-51
-43
14
42
50
50
42
-8
-58
-73
-59
-40
11
40
46
26
16
-18
-44
-46
-44
-45
2
30
43
39
30
-3
-42
-59
-62
-32
20
46
47
35
18
-15
-48
-56
-49
-27
11
43
55
38
9
-29
-51
-63
-52
-28
11
41
48
35
11
-29
-56
-53
-46
-20
19
38
40
36
10
-30
-55
-51
-48
-12
25
38
45
35
5
-51
-64
-42
-35
-16
16
39
38
33
-2
-40
-53
-57
-46
-19
23
41
38
30
-5
-38
-57
-57
-50
-16
21
49
37
30
-6
-39
-55
-54
-50
-11
36
57
51
33
-6
-46
-59
-48
-35
-6
29
53
46
37
-13
-48
-57
-62
-42
-2
24
33
37
27
-12
-47
-63
-52
-41
-5
35
56
43
22
-8
-44
-48
-49
-24
22
40
52
54
34
-4
-33
-41
-39
-32
15
53
55
42
41
6
-35
-38
-47
-50
10
49
56
44
15
-18
-39
-56
-45
-25
11
37
42
25
10
-21
-37
-52
-53
-25
20
39
48
34
14
-14
-53
-52
-41
-26
20
49
56
45
13
-34
-49
-50
-43
-22
16
38
47
36
13
-15
-48
-65
-62
-29
4
28
36
31
21
6
7
41
79
147
205
236
237
226
211
169
145
83
34
30
60
69
53
43
6
-23
-43
-46
-36
2
39
51
54
41
15
-35
-62
-57
-53
-19
24
45
48
35
-5
-45
-56
-42
-32
-1
46
57
48
23
-13
-41
-51
-54
-41
-4
34
53
38
27
-13
-43
-48
-46
-42
-1
35
47
43
29
-10
-40
-42
-43
-37
13
42
57
49
30
-14
-41
-49
-42
-23
19
42
61
48
36
0
-29
-45
-49
-40
10
51
58
46
33
-10
-42
-44
-29
-16
17
44
57
55
36
0
-33
-35
-31
-8
19
58
74
63
46
5
-29
-25
-20
10
42
83
74
68
44
18
-13
-14
-12
18
55
79
84
79
63
30
7
0
-4
20
68
97
99
85
54
4
-18
-14
-18
19
61
79
74
65
38
-11
-30
-30
-22
3
41
61
68
55
14
-33
-55
-56
-45
-1
37
53
54
33
-12
-36
-46
-37
-23
1
19
50
38
25
-9
-46
-56
-54
-40
1
31
41
41
29
-16
-45
-54
-52
-41
1
38
44
38
26
-10
-51
-69
-52
-35
3
37
51
34
37
-10
-48
-61
-56
-43
-1
20
34
33
24
-11
-52
-70
-61
-39
9
34
49
30
13
-18
-56
-59
-50
-30
16
44
43
33
23
-26
-54
-56
-48
-33
5
38
45
28
14
-27
-53
-57
-45
-27
14
51
49
23
17
-19
-44
-46
-39
-26
24
51
45
21
1
-40
-57
-57
-29
-29
11
43
45
32
12
-33
-57
-51
-42
-14
23
42
40
31
10
-34
-61
-59
-49
-13
20
52
56
38
7
-38
-60
-54
-45
-9
30
43
41
22
0
-36
-56
-58
-47
-7
29
44
41
32
0
-36
-58
-51
-39
-4
45
61
44
23
-18
-51
-66
-49
-44
-5
37
51
46
39
-2
-35
-54
-48
-35
3
34
44
42
38
4
-33
-46
-44
-21
18
59
63
43
34
-2
-36
-51
-44
-39
14
48
54
54
52
-4
-47
-61
-49
-36
-3
39
62
60
33
-17
-58
-73
-56
-34
-2
33
39
29
16
-13
-40
-62
-51
-37
0
39
46
30
15
-20
-54
-63
-55
-25
22
52
56
42
26
-18
-53
-61
-53
-29
8
32
32
24
1
-34
-55
-33
-3
29
94
146
195
210
200
154
123
124
141
154
144
110
90
66
34
-16
-56
-62
-50
-24
34
67
62
52
18
-30
-51
-50
-47
-12
32
57
55
44
10
-33
-59
-55
-43
-7
34
55
47
37
5
-34
-54
-47
-35
-8
31
53
56
41
-6
-45
-67
-51
-40
2
47
69
54
49
12
-34
-54
-38
-49
13
50
63
53
43
-7
-51
-58
-50
-35
20
47
46
51
35
3
-33
-37
-38
-30
9
56
63
61
50
6
-34
-39
-42
-29
19
53
66
59
46
-4
-27
-36
-26
-6
37
66
72
61
46
3
-17
-24
-12
4
40
73
76
61
51
10
-19
-16
-3
2
47
82
98
93
74
27
-3
-8
3
26
62
90
100
84
72
35
2
-3
2
26
62
91
96
81
55
9
-20
-22
-19
7
46
69
63
43
22
-21
-38
-41
-26
7
36
52
69
45
28
-11
-44
-51
-41
-11
32
47
49
43
20
-28
-45
-44
-25
3
38
61
58
45
4
-30
-49
-59
-53
-10
32
59
64
51
13
-24
-54
-63
-56
0
32
50
51
42
4
-31
-58
-41
-38
8
42
67
55
46
1
-23
-39
-45
-43
-2
37
59
55
35
-6
-43
-44
-40
-25
21
55
55
52
33
-3
-46
-57
-47
-24
12
48
67
55
35
-18
-41
-53
-44
-32
15
49
56
51
35
-13
-43
-48
-36
-29
-5
41
48
43
27
-8
-45
-54
-39
-16
13
47
59
42
30
-7
-36
-49
-44
-29
23
48
48
32
20
-28
-58
-50
-30
-5
32
50
52
39
15
-24
-43
-49
-47
-17
30
60
59
49
28
-13
-54
-42
-29
5
39
63
59
46
21
-21
-57
-54
-35
-5
36
56
46
45
15
-41
-61
-57
-36
-6
23
41
48
33
-3
-50
-61
-46
-37
0
37
62
64
36
-1
-51
-62
-68
-54
-10
26
54
50
40
-6
-44
-59
-53
-44
-3
35
52
35
23
-20
-47
-61
-50
-34
35
103
132
146
165
145
127
119
119
138
185
213
162
106
65
12
-29
-42
-38
-27
11
52
66
68
40
1
-31
-37
-17
-9
18
54
47
44
31
-7
-39
-42
-26
-22
15
50
60
52
35
-10
-41
-50
-41
-21
27
61
68
48
33
-7
-41
-49
-38
-12
33
58
60
50
34
-8
-33
-50
-38
-15
24
62
57
55
36
-7
-30
-41
-30
-3
32
62
59
38
16
-14
-24
-31
-26
-2
55
73
67
52
30
-6
-32
-37
-24
12
53
72
73
64
37
-5
-26
-28
-18
10
52
79
77
63
36
-1
-17
-21
-5
34
68
81
81
76
44
7
-11
-13
-2
36
84
104
96
81
48
4
-4
0
18
56
95
112
99
92
49
11
-2
3
8
54
91
97
96
86
41
5
-15
-12
3
43
63
67
65
52
10
-25
-38
-25
-7
22
49
64
53
39
-6
-50
-58
-40
-22
17
45
50
58
37
-6
-42
-50
-45
-32
18
59
65
52
46
2
-31
-47
-35
-29
21
60
78
58
49
5
-40
-44
-42
-30
17
52
58
52
26
-9
-42
-41
-27
4
28
58
69
53
38
-20
-56
-45
-36
-10
31
58
66
46
25
-16
-41
-42
-27
9
46
73
65
54
26
-15
-42
-39
-38
-7
32
54
56
57
24
-20
-41
-46
-30
-4
40
65
66
61
21
-15
-42
-48
-37
-4
39
63
57
36
7
-22
-34
-27
-26
4
45
52
40
37
16
-25
-44
-31
-10
27
56
63
61
45
-2
-27
-42
-37
-20
23
54
72
61
60
10
-29
-49
-30
-22
15
55
69
73
50
9
-18
-22
-9
4
29
64
82
69
54
9
-24
-47
-40
-23
33
63
76
66
48
0
-34
-47
-29
-12
26
57
74
48
29
-4
-48
-53
-39
-21
26
59
69
53
31
-8
-31
-41
-39
-15
30
55
67
53
31
-14
-31
-33
-33
-15
28
58
60
46
21
-17
-53
-60
-49
-34
18
51
72
98
97
85
81
109
139
173
207
239
248
247
217
122
35
-10
-5
31
58
73
68
59
39
-10
-32
-25
-26
8
56
72
59
48
21
-16
-39
-39
-28
9
41
55
63
55
22
-24
-41
-40
-22
8
50
75
67
59
23
-21
-46
-31
-25
17
55
66
64
55
14
-15
-31
-26
-16
16
57
76
61
47
17
-19
-45
-46
-28
18
62
83
74
70
29
-16
-36
-41
-24
25
66
81
71
58
13
-20
-32
-28
-6
44
71
81
73
62
18
-13
-21
-11
0
44
74
93
80
67
20
-9
-11
-6
15
51
77
82
77
69
30
-2
-10
2
21
61
99
102
93
73
42
12
-4
6
18
59
106
117
109
84
45
15
-3
7
26
84
117
114
101
69
29
3
0
4
23
49
86
96
75
41
-1
-28
-31
-26
2
40
72
68
58
29
-12
-36
-33
-24
0
36
67
70
57
23
-8
-38
-45
-34
-3
39
61
58
41
15
-20
-37
-40
-23
7
53
77
73
58
2
-32
-50
-45
-34
9
50
67
70
63
17
-28
-47
-39
-30
11
48
62
59
51
16
-18
-31
-37
-22
15
40
66
61
53
15
-28
-47
-34
-21
21
65
71
63
35
-2
-38
-38
-31
-18
13
48
67
56
52
6
-35
-44
-41
-23
21
49
56
45
32
8
-24
-38
-29
-10
26
65
49
35
20
-13
-31
-43
-31
-20
22
56
56
59
39
-9
-50
-54
-30
-6
31
69
64
46
29
-5
-44
-52
-43
-18
24
47
52
52
32
-4
-33
-38
-30
-5
29
51
59
52
21
-20
-36
-47
-33
-3
44
79
75
62
24
-17
-43
-36
-11
13
47
80
73
61
40
-10
-37
-35
-33
7
45
55
65
46
16
-25
-47
-47
-31
1
34
67
66
58
27
-18
-51
-42
-26
12
45
56
52
48
19
-31
-47
-37
-34
-3
39
55
48
42
6
-32
-51
-42
-31
10
55
64
62
45
-2
-39
-57
-68
-36
-5
37
55
36
36
4
-18
2
23
65
134
200
228
240
236
200
171
165
153
120
91
95
99
80
65
16
-27
-35
-28
-12
28
58
68
67
55
8
-19
-34
-26
-5
27
54
65
55
40
6
-25
-40
-30
-9
31
68
71
61
44
-9
-37
-39
-29
-9
23
60
68
54
37
9
-38
-46
-29
-8
31
73
81
78
49
-7
-38
-56
-38
-10
26
65
78
71
43
-5
-30
-31
-16
10
44
66
73
59
24
-11
-37
-32
-16
22
57
74
76
66
40
0
-25
-29
-13
21
66
86
82
76
40
-5
-35
-31
-10
21
65
87
90
86
57
18
-2
2
4
33
79
104
92
73
47
14
-3
10
5
62
101
114
115
99
62
20
10
18
28
67
104
117
113
103
57
23
5
5
16
60
106
106
91
65
29
-5
-15
-8
6
55
92
98
69
57
5
-23
-43
-43
-17
34
64
80
70
49
2
-31
-40
-31
-11
30
53
67
62
46
-2
-34
-41
-31
-16
26
66
70
58
35
-12
-41
-44
-32
-3
26
59
78
69
32
-25
-48
-39
-36
-12
39
58
62
47
28
-11
-30
-35
-26
-6
35
59
63
53
32
-18
-43
-40
-27
-5
33
62
69
57
24
-18
-34
-35
-35
-10
29
54
51
46
17
-19
-43
-38
-24
7
45
58
58
59
25
-24
-39
-33
-29
23
50
56
42
40
14
-24
-45
-54
-40
0
45
72
69
49
14
-35
-57
-38
-26
13
41
65
61
56
11
-18
-53
-57
-37
10
54
69
57
55
4
-36
-54
-41
-21
18
57
68
63
50
0
-28
-46
-35
-22
14
48
70
64
59
14
-35
-56
-52
-26
21
45
70
70
52
15
-22
-33
-30
-21
21
54
66
55
44
1
-21
-26
-16
-5
36
70
74
67
49
1
-29
-33
-21
-4
33
66
76
68
45
-2
-32
-36
-42
-21
34
62
51
42
30
-9
-38
-41
-24
-2
33
57
57
44
27
-21
-57
-45
-42
-10
36
65
67
63
32
-8
-39
-48
-34
-9
30
67
65
56
24
-15
-29
-39
-37
-17
16
43
35
28
11
-11
-9
12
44
113
181
231
235
241
211
175
162
168
161
125
110
99
78
68
29
-19
-33
-22
-13
21
49
66
65
64
28
-12
-35
-31
-20
8
43
67
64
53
13
-17
-27
-32
-23
16
47
57
55
53
13
-34
-41
-35
-29
30
60
80
67
41
5
-31
-36
-19
-14
27
55
69
65
47
5
-34
-35
-23
-13
31
61
68
54
42
-1
-31
-35
-19
-2
30
65
79
72
59
8
-28
-36
-25
-10
31
62
74
69
56
15
-24
-31
-20
9
58
81
83
68
49
16
-12
-19
-13
14
58
96
95
75
59
16
-9
-13
5
38
74
96
99
87
63
26
0
-5
9
45
86
116
115
103
69
27
9
18
25
53
102
117
107
99
73
42
15
13
21
47
79
93
94
90
69
23
-14
-10
-9
20
66
83
82
72
36
-8
-31
-28
-21
12
61
81
77
57
26
-20
-38
-33
-24
14
48
70
68
66
23
-16
-46
-30
-14
7
57
59
58
53
4
-26
-43
-31
-10
26
55
83
71
58
11
-26
-42
-40
-35
15
57
78
60
51
6
-37
-48
-38
-19
19
60
81
59
41
-1
-32
-38
-38
-25
29
67
59
50
47
-7
-41
-47
-40
-9
31
62
71
61
35
-11
-43
-53
-26
1
44
71
67
64
40
-16
-40
-42
-34
-14
30
57
66
68
37
0
-39
-45
-38
0
46
77
71
61
37
-8
-46
-48
-31
5
48
63
71
64
34
-17
-42
-34
-26
8
46
68
61
61
29
-12
-41
-42
-25
2
44
69
68
44
25
-21
-42
-39
-25
3
43
73
69
63
11
-18
-33
-38
-29
9
47
63
70
65
18
-25
-39
-33
-25
18
56
77
72
68
21
-11
-30
-16
-3
31
59
67
73
63
24
-11
-39
-15
-3
34
67
90
79
68
13
-24
-34
-20
-2
37
73
87
81
63
20
-29
-51
-31
-18
28
52
67
64
56
6
-28
-36
-25
-13
36
63
69
63
52
4
-33
-42
-27
-18
30
65
72
58
53
9
-26
-38
-35
-11
32
65
65
60
44
9
-15
-22
-21
-14
26
58
47
21
25
-3
-21
8
39
81
150
204
235
244
232
191
157
170
183
172
137
129
109
95
64
11
-17
-18
-11
18
57
88
88
67
42
-5
-33
-28
-11
13
59
78
75
68
15
-19
-39
-25
-20
28
68
84
77
73
35
-10
-35
-33
-15
32
61
80
83
68
30
-1
-26
-23
-15
30
60
79
78
66
23
-4
-16
-28
-15
28
68
81
74
68
23
-14
-29
-29
-19
37
73
75
68
76
29
1
-14
-3
-5
36
64
84
85
78
34
-6
-23
-4
11
39
77
95
91
79
25
-7
-8
1
15
62
80
91
84
80
38
6
-2
-1
16
63
94
103
98
71
30
-7
-1
26
51
89
105
113
111
98
58
25
20
28
54
95
125
128
109
92
46
28
29
32
26
67
99
104
97
81
42
9
3
7
33
77
96
83
76
51
7
-32
-22
-21
13
47
70
75
64
38
11
-18
-20
-6
22
55
81
71
68
44
1
-22
-22
-14
28
68
91
84
63
24
-6
-17
-19
-8
14
44
72
75
71
36
-6
-33
-12
-11
17
56
88
79
60
18
-22
-25
-17
-12
32
53
74
73
71
39
1
-21
-14
-7
33
66
81
80
72
27
-16
-32
-20
-7
32
68
85
73
65
22
-14
-23
-14
1
39
72
82
75
69
21
-16
-35
-16
-4
41
80
84
73
51
17
-17
-26
-14
-3
44
84
88
77
60
8
-20
-23
-18
-2
52
77
84
63
57
12
-23
-24
-7
9
39
84
85
65
39
4
-29
-28
-11
7
42
78
83
71
59
8
-28
-19
-15
10
48
79
77
71
48
12
-15
-21
-11
12
61
96
95
82
47
-5
-11
-15
4
30
65
80
85
71
54
17
-15
-14
5
33
70
88
83
71
42
-7
-30
-24
-15
17
61
83
84
70
24
-17
-30
-24
-23
17
51
74
72
62
31
-21
-28
-24
-27
20
57
81
76
67
30
-7
-31
-32
-20
34
73
91
80
66
29
-13
-22
-20
-22
12
44
60
62
59
34
21
38
59
77
142
203
239
238
232
191
172
140
89
50
64
88
95
85
76
13
-18
-17
-11
-3
41
83
90
70
63
15
-11
-26
-20
-9
43
67
82
69
49
11
-18
-26
-10
4
45
75
87
74
60
6
-21
-28
-16
0
46
78
82
75
51
2
-29
-39
-30
3
55
83
88
80
59
19
-19
-21
-9
16
54
81
83
75
50
6
-19
-19
-10
22
60
80
88
81
55
11
-10
-16
-19
13
66
96
98
86
55
15
-10
-9
1
30
74
93
91
77
38
-9
-11
0
11
45
80
98
109
92
61
24
11
11
28
63
95
107
104
99
74
32
13
10
28
71
105
118
121
113
72
34
20
9
29
76
112
134
124
114
72
27
3
21
32
64
103
115
104
91
57
16
-7
1
8
34
80
99
90
76
23
-9
-27
-12
1
43
76
84
76
70
17
-13
-25
-14
0
35
69
81
74
55
18
-21
-36
-26
8
50
77
75
69
49
7
-31
-32
-11
-2
54
96
92
80
48
10
-26
-32
-24
0
50
86
79
76
49
7
-21
-26
-15
1
50
84
89
82
54
9
-27
-24
-7
13
41
69
76
61
41
0
-21
-18
-7
13
60
75
74
60
38
-3
-23
-22
-6
22
67
93
95
72
41
-3
-30
-32
-8
22
67
88
81
64
26
2
-9
-22
-10
25
54
74
76
64
27
-7
-32
-41
-17
24
62
67
83
81
25
-8
-26
-22
-7
37
78
94
79
52
20
-10
-17
-11
-4
29
64
82
94
82
39
-9
-18
-21
-3
51
77
86
85
73
40
10
1
5
2
45
67
94
86
85
34
-6
-15
-9
4
44
73
84
71
66
24
-15
-16
-12
2
47
77
89
84
68
22
-9
-17
-18
-5
46
73
79
77
61
28
-6
-21
-8
12
58
98
90
73
41
2
-24
-22
-4
15
53
72
68
55
30
-9
-19
-8
-4
40
106
146
171
193
189
165
160
159
171
188
225
206
150
102
62
18
-10
-11
0
32
65
80
81
74
47
19
-3
-11
-12
19
67
89
81
66
44
-2
-22
-15
-3
26
60
84
78
76
25
-8
-11
-1
7
26
64
80
83
76
37
4
-18
-16
0
40
85
93
80
71
36
-5
-16
-20
6
49
91
97
72
57
20
-4
-9
-6
-3
43
68
83
80
90
45
11
-3
-3
7
41
73
89
89
81
37
-6
-9
4
17
55
80
81
85
80
39
4
-8
5
25
63
101
107
91
77
33
3
9
16
23
71
95
117
106
80
37
14
7
28
54
88
111
118
105
83
47
17
20
33
55
95
120
125
106
91
62
35
10
28
53
94
122
116
99
81
39
7
-8
8
32
59
87
83
83
60
18
-9
-8
-9
12
57
88
87
72
56
1
-23
-22
-16
13
60
83
79
70
31
-6
-25
-22
-13
21
58
73
76
68
19
-14
-30
-20
-16
24
64
75
67
56
33
-4
-17
-22
-8
27
61
75
72
54
21
-14
-27
-18
-2
27
66
89
74
65
41
-6
-26
-32
-25
35
75
81
72
63
34
-22
-35
-33
-4
41
74
67
71
65
18
-20
-32
-26
-11
21
67
87
71
53
9
-25
-31
-25
1
34
80
91
66
49
4
-41
-51
-22
8
45
82
81
65
53
17
-21
-24
-14
-8
35
91
77
68
46
-3
-44
-38
-22
2
43
73
66
60
43
-8
-23
-23
-15
6
38
70
79
72
48
0
-37
-37
-21
16
56
72
75
65
44
2
-30
-22
-2
17
47
79
80
73
49
6
-20
-30
-2
36
74
98
77
58
36
-1
-48
-29
-14
8
57
78
76
66
34
-13
-34
-29
-15
17
45
66
58
53
26
-10
-32
-25
-16
29
64
84
76
56
6
-18
-48
-40
-25
22
64
75
67
50
18
-16
-27
-21
-13
22
57
71
59
44
11
-39
-53
-53
-35
16
63
88
112
112
96
85
114
138
160
217
260
271
264
246
136
33
-2
1
13
45
83
84
68
54
10
-24
-22
-19
-6
34
70
71
56
59
16
-16
-20
-23
-8
32
66
69
63
46
9
-28
-19
-15
-4
32
68
74
53
31
6
-25
-24
-31
2
46
78
73
61
34
1
-28
-31
-15
7
40
63
65
59
38
-9
-29
-25
-6
20
32
73
75
68
51
5
-31
-28
-25
7
53
74
88
67
40
-4
-26
-30
-18
14
54
86
81
75
37
-1
-34
-29
-16
18
62
86
110
89
41
3
-19
-14
1
44
71
86
91
91
62
28
12
5
4
38
80
90
93
93
70
37
17
23
21
65
108
115
112
89
53
25
8
14
25
74
115
114
112
98
51
10
1
-2
2
46
91
92
87
74
32
-5
-13
-3
2
41
71
77
73
61
18
-22
-39
-19
-9
26
73
83
70
45
9
-26
-43
-13
5
37
66
66
61
52
14
-16
-24
-27
-8
37
58
63
61
44
5
-28
-33
-28
-12
31
71
82
71
54
9
-22
-33
-14
-6
46
75
72
58
28
-17
-40
-35
-20
12
46
76
79
79
47
-9
-41
-34
-45
-12
52
81
78
57
31
-13
-36
-31
-21
8
41
65
62
55
26
-13
-36
-30
-25
1
54
80
71
51
17
-16
-32
-24
-11
27
51
71
47
32
13
-26
-40
-43
-17
30
54
66
62
58
18
-16
-29
-33
-24
26
61
75
67
45
5
-22
-35
-30
-19
16
55
72
70
51
10
-21
-38
-37
-12
35
56
56
60
51
7
-23
-42
-18
-11
33
68
74
55
47
12
-29
-32
-17
-7
39
61
67
66
58
9
-14
-39
-29
1
38
65
67
65
48
12
-12
-25
-26
-5
44
73
86
73
50
-6
-30
-25
-16
-11
38
69
65
57
42
9
-24
-33
-25
4
41
61
64
50
37
3
-23
-34
-35
-7
40
70
63
54
27
-4
-37
-33
-19
5
43
61
58
64
21
-24
-42
-32
-15
6
39
63
69
60
22
-23
-60
-66
-40
3
43
60
97
116
87
73
78
112
153
190
242
255
261
260
216
111
34
5
-9
35
66
81
61
60
21
-16
-47
-31
-12
25
67
73
58
51
12
-24
-19
-11
-2
23
58
67
62
48
8
-28
-41
-31
-10
31
61
64
58
44
11
-27
-34
-33
-30
26
66
70
64
58
0
-24
-37
-26
-12
34
62
72
67
53
13
-14
-24
-20
-6
41
62
70
53
49
5
-27
-27
-15
-6
49
65
70
67
52
-8
-28
-22
-18
4
52
83
89
82
60
24
-10
-17
-6
20
55
83
100
84
47
10
-11
-19
-1
30
70
98
82
82
58
20
-1
-8
-3
35
83
100
105
101
68
24
-2
13
29
62
92
106
119
115
85
60
24
8
29
38
83
113
105
105
69
35
4
8
12
53
80
102
102
88
48
-10
-27
-17
-12
25
59
80
73
65
31
-14
-40
-28
-19
32
58
75
82
66
20
-26
-40
-34
-13
25
60
61
69
58
21
-30
-37
-26
-8
30
64
52
48
44
4
-34
-41
-42
-19
22
54
74
57
50
2
-28
-45
-33
-20
19
67
89
71
44
-4
-38
-40
-32
-15
19
54
72
68
55
15
-31
-48
-30
-15
24
57
56
43
50
11
-34
-42
-33
-20
21
61
78
60
32
3
-27
-37
-26
-3
25
52
64
52
27
-15
-39
-39
-38
1
52
74
64
41
12
-23
-37
-35
-34
1
19
57
64
58
28
-6
-28
-42
-29
0
45
68
61
48
16
-20
-41
-38
-31
-11
32
66
59
54
23
-23
-35
-36
-22
15
46
66
56
44
18
-34
-53
-42
-17
10
52
65
57
57
10
-27
-34
-33
-27
13
48
67
61
49
19
-25
-50
-39
-20
13
46
61
57
47
-2
-46
-35
-23
-25
14
40
66
73
57
3
-25
-43
-34
-20
25
61
75
69
64
15
-22
-34
-22
-8
36
72
89
73
55
8
-27
-43
-21
14
50
74
85
70
49
-1
-38
-48
-42
-16
25
54
65
52
50
4
-24
-31
-20
-13
21
59
60
60
40
-7
-37
-49
-32
1
50
83
78
61
42
-2
-48
-37
-32
-15
34
61
71
55
29
-10
-31
-42
-32
-5
40
69
63
44
9
-37
-57
-37
-18
27
83
130
154
180
180
159
151
163
173
210
263
267
213
135
66
8
-16
-24
-14
16
66
96
88
74
34
-12
-43
-53
-32
19
65
80
87
73
22
-13
-20
-29
-16
18
58
78
72
72
31
-15
-41
-45
-27
30
57
88
83
65
14
-19
-36
-26
-19
25
59
67
74
74
35
-1
-20
-17
0
26
48
61
62
58
21
-13
-22
-3
1
35
70
81
75
60
16
-14
-25
-17
1
34
67
84
75
67
18
-16
-24
-3
4
48
91
85
79
63
22
1
-1
4
14
55
82
85
73
59
33
9
-9
0
27
70
99
111
98
84
39
2
5
18
37
83
115
126
115
97
57
21
3
14
56
93
127
127
121
89
46
19
25
24
47
96
115
133
105
77
27
-10
-5
3
43
78
104
106
93
53
14
-16
-18
-5
38
79
94
89
68
37
-3
-31
-24
-19
13
49
65
78
77
29
-16
-33
-24
-8
28
56
71
68
63
23
-16
-41
-36
-17
17
69
81
77
78
26
-21
-40
-39
-12
46
73
66
64
44
5
-34
-27
-13
-11
28
53
68
69
55
12
-31
-31
-19
-8
33
71
74
64
56
8
-30
-34
-25
-2
47
71
69
59
54
14
-34
-41
-37
-14
42
67
67
63
43
3
-16
-29
-37
-6
37
75
76
62
44
11
-27
-43
-23
6
37
63
75
69
42
-1
-27
-32
-25
1
47
84
79
58
33
4
-27
-42
-38
10
49
70
62
54
34
-1
-25
-37
-27
6
42
74
78
68
30
-10
-29
-37
-30
2
45
71
80
70
37
-10
-55
-41
-17
14
50
67
73
52
26
-16
-35
-34
-20
12
65
82
55
56
21
-16
-31
-32
-13
26
61
82
80
66
31
-12
-23
-19
-1
47
98
90
85
60
21
-10
-21
-20
-17
25
76
91
79
75
21
-13
-25
-17
-16
32
62
72
61
56
11
-26
-35
-25
-13
30
78
76
58
42
-8
-40
-41
-29
-9
46
70
82
44
43
1
-29
-43
-31
-11
30
60
74
59
41
7
-26
-36
-24
-4
44
77
70
66
42
-8
-45
-48
-44
-38
6
56
83
89
79
60
57
78
120
163
207
255
265
260
238
189
121
45
15
28
74
93
91
77
48
6
-15
-17
-23
22
61
81
66
67
37
-4
-27
-25
-10
27
66
87
74
51
30
-3
-33
-31
-17
28
63
78
64
59
37
4
-24
-23
-9
19
58
80
74
60
23
-1
-17
-19
-10
31
79
94
90
65
11
-18
-18
-21
-4
30
66
91
91
72
37
-4
-21
-28
-17
37
81
91
98
85
29
-14
-23
-9
4
42
75
93
101
73
31
4
-9
3
15
60
89
100
93
79
35
1
-8
-1
14
61
97
113
105
96
54
16
13
21
29
59
89
113
110
92
54
18
10
23
48
98
130
146
131
106
56
22
12
31
50
94
135
133
113
102
53
6
5
21
47
85
115
112
96
65
29
6
4
11
27
64
90
91
87
57
11
-13
-14
-3
22
63
85
80
73
37
-8
-22
-11
-10
21
52
78
83
55
34
0
-25
-15
-5
24
62
82
72
81
50
-2
-26
-26
-8
21
49
82
77
72
38
-5
-26
-27
-13
14
62
88
91
79
38
-13
-24
-23
-23
18
66
83
86
76
43
5
-28
-20
-14
23
76
98
86
61
33
-12
-15
-17
-15
33
75
77
72
66
24
-14
-29
-14
-3
41
65
80
66
59
31
-15
-24
-13
10
33
76
83
71
58
16
-15
-14
-12
4
44
69
73
60
55
10
-28
-39
-27
8
59
74
75
59
36
7
-10
-23
-12
-3
33
73
81
68
48
8
-22
-25
-21
4
47
77
83
64
39
5
-23
-25
-18
6
46
75
76
65
35
-3
-32
-33
-17
10
59
68
79
77
32
-15
-25
-14
-6
24
56
78
85
79
50
1
-11
1
14
55
72
79
71
61
31
-7
-24
-7
-2
38
73
85
87
62
36
1
-18
-21
-19
25
56
68
75
66
24
-15
-38
-27
-6
38
64
72
78
51
15
-21
-19
-16
0
21
43
71
70
54
17
-30
-33
-43
-24
39
70
72
64
54
16
-11
-35
-34
-19
16
52
62
60
36
-3
-23
-35
-2
43
109
147
187
213
218
187
150
145
155
167
155
130
111
86
60
17
-16
-18
-1
6
39
73
72
64
60
17
-9
-19
-1
11
41
80
73
66
55
10
-18
-16
-4
10
47
83
87
74
55
8
-15
-23
-15
8
51
78
79
67
49
3
-15
-23
-12
15
54
79
71
71
49
13
-16
-23
-16
9
43
77
93
83
60
19
-23
-27
-21
19
50
91
82
73
40
8
-11
-17
-17
26
69
89
81
73
32
-7
-19
-4
-6
24
70
91
95
91
49
13
-13
-2
10
60
94
104
92
91
50
1
-15
2
33
63
95
99
87
80
54
17
1
11
23
73
107
138
111
94
63
25
11
21
37
77
113
119
112
97
50
24
21
24
52
93
117
123
103
92
52
1
-10
-2
20
70
108
106
77
54
16
-20
-28
-13
-2
42
72
85
77
50
11
-21
-32
-36
-12
33
74
68
64
50
6
-19
-18
-15
-3
26
55
72
52
38
-5
-35
-39
-31
-1
48
80
85
70
41
0
-20
-21
-24
-5
25
56
60
53
37
7
-20
-37
-23
15
43
72
78
65
38
-4
-30
-28
-22
9
36
75
70
64
25
-13
-36
-32
-16
20
42
81
70
52
25
-13
-41
-40
-28
-6
29
72
61
50
21
-23
-44
-38
-25
11
52
67
67
56
13
-28
-42
-42
-27
4
50
67
61
51
8
-17
-34
-34
-32
-1
51
72
64
50
11
-22
-36
-23
-11
28
43
55
63
