-3
-3
-4
-4
1
-2
4
4
6
2
3
5
7
0
0
1
-1
2
-1
6
-1
0
4
2
2
-4
-5
-4
-4
-1
-4
-8
6
8
0
-2
-1
1
-1
0
5
1
-1
1
0
2
0
-5
-4
5
1
0
1
2
1
-1
-1
1
0
-2
-4
-4
-1
-6
-2
-1
-1
3
5
4
2
3
3
1
2
-2
-3
0
7
6
5
8
9
5
2
11
11
11
16
8
7
11
11
6
3
2
-9
-10
-8
-3
-7
-1
1
1
-8
-1
-7
-12
-3
-1
-1
-2
-3
-5
-3
-5
-8
-7
-7
-1
-3
-8
-4
-3
-5
-7
-10
-9
-10
-8
-12
-13
-12
-10
-7
8
23
45
70
77
95
105
105
99
96
92
51
16
-32
-59
-59
-55
-56
-62
-63
-53
-51
-51
-47
-41
-38
-31
-30
-26
-15
-14
-18
-20
-17
-18
-15
-12
-13
-12
-5
-9
-9
-5
-7
-8
-7
-5
-4
-5
-5
-2
-7
-12
-7
1
-1
2
-3
1
-1
1
-3
2
-1
-4
-5
-1
-1
-1
-1
-2
-1
3
6
3
5
8
6
2
7
4
9
12
9
9
14
13
15
18
13
11
19
20
24
21
23
30
24
23
28
26
27
34
33
36
34
42
29
39
38
39
35
40
38
43
45
43
42
40
41
44
37
35
34
29
30
30
25
23
23
17
16
16
14
10
11
6
8
4
1
-3
5
-2
-6
-2
1
-2
-4
-3
-1
-6
-9
-4
-11
-3
2
-6
-7
-9
-9
-11
-7
-10
-12
-10
-8
-11
-13
-9
-17
-14
-14
-12
-11
-11
-8
-14
-13
-9
-12
-19
-13
-9
-18
-11
-3
-5
-9
-7
-10
-12
-8
-7
-14
-12
-7
-10
-9
-6
-10
-12
-12
-11
-16
-12
-4
-10
-11
-8
-11
-14
-11
-10
-10
-4
-1
-6
-7
-14
-10
-9
-11
-10
-3
-3
-5
-11
-6
-7
-11
-16
-4
-10
-12
-5
-7
-12
-13
-13
-12
-12
-12
-13
-13
-11
-10
-12
-13
-14
-10
-13
-13
-11
-6
-9
-9
-13
-11
-10
-16
-11
-11
-12
-16
-13
-9
-7
-13
-16
-14
-15
-12
-13
-14
-11
-8
-10
-14
-14
-16
-12
-17
-11
-9
-6
-7
-11
-9
-9
-13
-12
-10
-14
-12
-13
-7
-11
-12
-14
-10
-6
2
-3
-5
-1
-6
-10
-3
-6
-8
-4
-7
-13
-10
-8
-18
-13
-16
-19
-30
-21
-17
-23
-18
-17
-19
-22
-21
-16
-19
-18
-21
-23
-18
-19
-19
-20
-18
-19
-22
-24
-24
-26
-25
-21
-23
-28
-26
-28
-29
-24
-20
-16
-3
25
38
51
74
91
86
89
87
75
65
29
-5
-58
-75
-80
-87
-83
-77
-78
-76
-66
-66
-70
-58
-50
-51
-44
-41
-40
-32
-31
-32
-33
-34
-32
-32
-30
-29
-29
-23
-20
-29
-25
-22
-25
-26
-22
-24
-24
-21
-24
-27
-20
-22
-23
-21
-23
-24
-20
-23
-21
-30
-23
-24
-23
-16
-17
-25
-22
-18
-14
-17
-20
-21
-20
-22
-20
-19
-18
-9
-9
-11
-9
-10
-15
-9
-10
-5
-5
-7
-5
-3
-6
3
-1
4
4
2
6
10
10
7
6
6
5
13
13
16
17
18
20
18
17
20
18
19
20
20
21
21
18
14
20
13
4
3
3
0
0
1
1
-6
-11
-10
-14
-18
-18
-19
-18
-23
-32
-26
-23
-24
-25
-28
-26
-29
-29
-22
-28
-33
-29
-28
-35
-28
-32
-31
-32
-32
-33
-35
-37
-38
-32
-33
-35
-35
-36
-32
-33
-35
-34
-39
-38
-36
-37
-41
-39
-37
-39
-34
-35
-37
-40
-34
-34
-38
-38
-38
-37
-38
-36
-38
-44
-37
-33
-35
-34
-33
-34
-36
-36
-40
-36
-37
-38
-33
-34
-35
-35
-36
-36
-37
-45
-43
-44
-39
-34
-36
-36
-36
-36
-40
-42
-41
-42
-43
-35
-33
-36
-39
-40
-33
-36
-39
-38
-37
-37
-31
-41
-44
-43
-45
-43
-45
-42
-39
-39
-44
-42
-47
-44
-43
-41
-39
-41
-45
-43
-46
-45
-42
-40
-36
-42
-46
-48
-45
-38
-42
-42
-40
-41
-45
-40
-42
-44
-43
-39
-43
-43
-44
-44
-46
-40
-43
-47
-48
-44
-44
-43
-46
-44
-48
-49
-46
-48
-50
-38
-45
-45
-41
-44
-43
-45
-45
-45
-47
-45
-42
-46
-45
-46
-45
-39
-37
-44
-41
-38
-47
-45
-36
-40
-38
-40
-36
-39
-39
-36
-41
-39
-38
-47
-51
-50
-49
-50
-52
-50
-51
-54
-52
-52
-52
-47
-53
-52
-49
-50
-46
-45
-53
-56
-55
-52
-53
-57
-53
-48
-54
-55
-59
-59
-56
-53
-62
-59
-61
-56
-63
-55
-43
-30
-13
7
31
43
67
73
65
55
44
15
-23
-60
-94
-112
-113
-107
-113
-113
-106
-103
-104
-94
-98
-89
-82
-75
-76
-68
-68
-66
-61
-59
-57
-60
-56
-57
-57
-62
-60
-61
-61
-57
-59
-59
-56
-54
-57
-51
-56
-53
-56
-59
-58
-52
-46
-48
-62
-51
-53
-52
-52
-50
-51
-53
-48
-48
-50
-52
-54
-54
-50
-48
-49
-51
-49
-49
-44
-43
-44
-41
-36
-45
-38
-38
-37
-38
-34
-37
-30
-31
-30
-28
-32
-30
-26
-27
-27
-22
-22
-21
-21
-20
-23
-20
-12
-15
-13
-12
-11
-19
-10
-11
-8
-6
-15
-4
-5
-4
-10
-13
-8
-10
-15
-15
-13
-12
-19
-26
-27
-28
-34
-34
-31
-30
-31
-36
-44
-47
-47
-48
-48
-50
-52
-50
-50
-52
-52
-52
-59
-51
-51
-53
-51
-51
-54
-54
-59
-53
-53
-58
-57
-62
-61
-61
-53
-60
-61
-60
-59
-59
-62
-62
-60
-57
-56
-60
-66
-60
-63
-67
-68
-62
-61
-54
-57
-56
-61
-55
-60
-59
-58
-57
-55
-53
-60
-62
-59
-61
-63
-58
-60
-60
-60
-58
-58
-59
-55
-58
-62
-54
-57
-63
-63
-57
-59
-57
-57
-55
-60
-55
-60
-68
-60
-56
-55
-54
-54
-55
-57
-60
-58
-55
-54
-59
-57
-57
-60
-55
-60
-57
-59
-60
-57
-57
-57
-63
-59
-56
-61
-59
-60
-61
-52
-53
-60
-57
-58
-58
-60
-62
-58
-59
-56
-54
-58
-58
-56
-58
-61
-58
-60
-60
-57
-56
-60
-56
-58
-61
-61
-61
-61
-59
-56
-57
-57
-60
-56
-58
-61
-63
-57
-56
-53
-50
-60
-56
-60
-66
-62
-63
-60
-62
-57
-55
-57
-62
-59
-62
-64
-59
-55
-56
-53
-55
-58
-61
-60
-64
-60
-59
-56
-58
-54
-57
-54
-57
-55
-62
-65
-52
-49
-52
-48
-47
-52
-48
-50
-53
-52
-49
-54
-53
-55
-60
-64
-59
-63
-72
-68
-60
-62
-63
-59
-63
-67
-65
-66
-57
-57
-64
-64
-66
-63
-65
-67
-68
-65
-64
-61
-67
-71
-71
-68
-71
-66
-72
-72
-76
-67
-62
-57
-39
-15
-2
17
41
52
46
49
50
36
11
-24
-65
-101
-121
-118
-122
-118
-117
-122
-115
-109
-103
-108
-102
-96
-91
-85
-78
-79
-74
-71
-68
-67
-66
-70
-69
-70
-71
-75
-68
-62
-67
-69
-67
-65
-71
-69
-68
-73
-63
-64
-69
-60
-66
-67
-70
-65
-63
-70
-71
-66
-67
-62
-56
-68
-66
-62
-57
-56
-56
-53
-56
-57
-55
-56
-55
-59
-54
-53
-46
-47
-51
-52
-50
-52
-46
-46
-48
-45
-40
-46
-44
-41
-35
-41
-42
-33
-30
-30
-31
-28
-29
-26
-22
-29
-23
-20
-22
-19
-18
-16
-17
-16
-19
-25
-21
-22
-17
-21
-15
-26
-23
-19
-22
-30
-30
-29
-38
-37
-34
-39
-42
-39
-47
-44
-48
-51
-53
-50
-51
-56
-56
-57
-60
-60
-61
-65
-62
-59
-59
-63
-63
-64
-66
-70
-65
-65
-68
-66
-64
-73
-66
-67
-66
-71
-71
-68
-69
-70
-70
-72
-65
-70
-70
-71
-71
-72
-74
-70
-60
-72
-73
-71
-74
-73
-74
-70
-68
-68
-67
-71
-71
-66
-65
-71
-70
-70
-66
-65
-69
-73
-63
-71
-69
-67
-64
-70
-74
-65
-65
-66
-71
-74
-75
-71
-69
-68
-67
-63
-66
-68
-69
-69
-69
-70
-67
-70
-67
-63
-65
-72
-72
-63
-73
-71
-69
-66
-74
-67
-66
-69
-69
-72
-69
-70
-68
-67
-76
-69
-61
-68
-69
-66
-66
-67
-64
-69
-71
-66
-68
-70
-69
-68
-70
-66
-71
-70
-70
-69
-66
-69
-71
-70
-73
-73
-72
-71
-73
-65
-68
-70
-71
-71
-70
-66
-67
-70
-66
-66
-68
-66
-67
-79
-74
-66
-70
-68
-64
-62
-68
-71
-61
-65
-67
-61
-62
-62
-58
-61
-55
-58
-62
-64
-56
-61
-66
-70
-72
-71
-66
-76
-78
-75
-78
-73
-71
-77
-77
-74
-80
-79
-75
-77
-81
-78
-77
-83
-66
-64
-75
-74
-74
-78
-77
-73
-78
-77
-75
-74
-78
-84
-80
-83
-80
-72
-62
-46
-30
-6
10
21
22
22
20
22
4
-17
-47
-96
-123
-129
-126
-125
-125
-123
-124
-116
-117
-119
-116
-120
-105
-108
-100
-97
-98
-92
-91
-84
-82
-84
-86
-86
-87
-80
-77
-81
-78
-76
-79
-81
-77
-82
-78
-79
-82
-76
-74
-75
-74
-77
-77
-80
-72
-72
-75
-70
-71
-73
-77
-70
-68
-76
-75
-62
-76
-71
-64
-72
-72
-67
-70
-69
-71
-67
-66
-65
-62
-64
-63
-61
-60
-62
-59
-56
-55
-52
-53
-53
-52
-50
-46
-46
-48
-48
-38
-39
-37
-39
-34
-35
-34
-42
-27
-32
-30
-30
-28
-32
-26
-29
-31
-31
-31
-33
-32
-33
-29
-35
-42
-39
-44
-46
-49
-49
-50
-54
-52
-65
-57
-61
-66
-67
-66
-69
-72
-71
-72
-74
-77
-82
-79
-85
-78
-77
-80
-80
-82
-82
-83
-86
-93
-83
-82
-82
-85
-84
-79
-85
-87
-88
-88
-90
-82
-89
-91
-84
-84
-89
-90
-91
-93
-94
-93
-87
-87
-86
-86
-90
-93
-92
-87
-91
-90
-91
-92
-84
-86
-90
-93
-90
-90
-88
-87
-87
-90
-87
-85
-87
-85
-86
-89
-84
-82
-88
-86
-86
-82
-81
-87
-91
-86
-89
-85
-89
-86
-82
-88
-85
-85
-85
-89
-89
-89
-87
-87
-83
-85
-90
-88
-89
-97
-91
-89
-94
-90
-91
-86
-86
-87
-90
-91
-90
-91
-91
-91
-87
-87
-89
-89
-90
-92
-88
-88
-90
-94
-89
-86
-89
-93
-89
-91
-90
-88
-92
-87
-86
-90
-91
-92
-95
-88
-85
-88
-94
-88
-89
-89
-88
-88
-89
-89
-84
-86
-86
-85
-78
-84
-83
-81
-81
-89
-86
-79
-85
-87
-89
-91
-91
-97
-98
-95
-94
-97
-98
-95
-94
-96
-99
-94
-98
-98
-100
-101
-104
-93
-101
-104
-92
-95
-99
-96
-100
-96
-100
-97
-100
-100
-100
-102
-108
-109
-104
-104
-98
-90
-79
-65
-49
-24
-11
4
5
2
-2
-9
-14
-37
-80
-128
-146
-150
-148
-145
-148
-145
-141
-139
-142
-137
-140
-131
-121
-122
-118
-114
-110
-105
-104
-109
-110
-106
-107
-106
-106
-103
-98
-98
-105
-101
-105
-100
-94
-94
-95
-91
-100
-102
-93
-97
-98
-94
-94
-93
-95
-94
-94
-91
-95
-93
-98
-93
-95
-93
-95
-91
-95
-90
-87
-87
-91
-90
-91
-91
-90
-86
-87
-82
-81
-84
-84
-80
-80
-84
-78
-70
-76
-75
-75
-72
-72
-65
-60
-65
-63
-60
-59
-58
-57
-61
-52
-54
-53
-53
-52
-51
-47
-51
-48
-57
-51
-51
-49
-53
-46
-47
-53
-55
-57
-57
-61
-61
-66
-68
-71
-65
-69
-72
-72
-75
-80
-79
-80
-84
-82
-80
-87
-90
-93
-90
-92
-94
-97
-95
-90
-94
-93
-96
-102
-100
-95
-102
-104
-102
-94
-99
-102
-104
-101
-106
-106
-109
-100
-103
-100
-100
-103
-105
-102
-105
-104
-105
-104
-102
-102
-104
-100
-105
-113
-98
-100
-100
-102
-105
-100
-99
-105
-101
-100
-107
-101
-99
-99
-99
-97
-94
-100
-97
-101
-106
-98
-99
-108
-100
-94
-99
-101
-98
-94
-92
-95
-102
-102
-97
-95
-98
-99
-97
-99
-102
-103
-99
-96
-95
-96
-97
-100
-99
-101
-102
-100
-103
-105
-98
-105
-98
-100
-98
-98
-104
-99
-100
-102
-96
-89
-93
-97
-98
-95
-99
-97
-98
-99
-95
-96
-100
-100
-102
-98
-104
-100
-98
-99
-99
-99
-98
-96
-102
-97
-97
-96
-95
-94
-95
-103
-99
-101
-97
-102
-99
-94
-94
-97
-87
-91
-91
-94
-93
-92
-97
-94
-85
-90
-89
-86
-88
-90
-92
-97
-98
-105
-100
-104
-102
-98
-101
-104
-104
-108
-104
-103
-105
-105
-100
-98
-101
-103
-100
-106
-103
-104
-107
-103
-102
-100
-105
-104
-108
-108
-106
-104
-111
-109
-105
-104
-105
-108
-105
-105
-92
-77
-60
-36
-14
0
9
7
5
-1
-11
-27
-65
-114
-144
-160
-165
-109
-107
-110
-114
-109
-106
-109
-109
-108
-107
-107
-97
-98
-105
-102
-107
-103
-103
-100
-101
-98
-99
-102
-105
-101
-100
-101
-101
-101
-99
-92
-97
-99
-101
-98
-101
-101
-98
-98
-99
-99
-96
-95
-90
-98
-97
-97
-90
-91
-93
-89
-84
-86
-83
-87
-85
-83
-80
-84
-82
-74
-77
-76
-75
-74
-71
-69
-67
-67
-64
-59
-60
-61
-58
-54
-59
-61
-53
-58
-58
-56
-55
-56
-48
-53
-60
-59
-60
-59
-60
-64
-61
-63
-70
-66
-70
-72
-70
-72
-79
-75
-82
-85
-84
-86
-92
-94
-89
-92
-93
-92
-91
-96
-96
-99
-100
-102
-100
-100
-102
-98
-100
-101
-100
-104
-111
-104
-104
-105
-105
-100
-106
-106
-108
-109
-104
-108
-106
-108
-106
-104
-103
-110
-107
-109
-105
-105
-107
-108
-106
-100
-106
-109
-105
-107
-109
-107
-110
-108
-106
-97
-105
-107
-110
-105
-111
-108
-107
-108
-109
-107
-102
-104
-107
-106
-111
-107
-104
-108
-103
-101
-106
-106
-108
-98
-105
-106
-101
-104
-102
-99
-103
-103
-100
-102
-108
-105
-106
-97
-98
-100
-109
-110
-111
-110
-105
-104
-105
-106
-107
-104
-98
-102
-104
-109
-111
-103
-109
-103
-102
-103
-104
-104
-105
-103
-104
-105
-102
-108
-106
-101
-104
-102
-107
-103
-109
-108
-106
-104
-113
-97
-98
-103
-103
-104
-104
-97
-103
-104
-105
-101
-102
-94
-101
-108
-102
-101
-100
-103
-100
-99
-99
-99
-99
-104
-101
-94
-95
-97
-88
-94
-98
-98
-92
-98
-97
-99
-107
-102
-109
-112
-102
-103
-105
-110
-108
-110
-111
-108
-108
-109
-111
-109
-107
-113
-112
-106
-109
-107
-108
-106
-107
-111
-109
-108
-106
-120
-110
-108
-106
-107
-112
-114
-114
-108
-99
-89
-77
-51
-26
-13
3
9
7
1
-5
-20
-46
-84
-128
-163
-168
-173
-167
-166
-165
-161
-160
-148
-144
-144
-138
-134
-132
-126
-117
-118
-123
-114
-103
-112
-115
-112
-119
-113
-111
-110
-111
-110
-109
-112
-112
-111
-111
-112
-107
-107
-109
-108
-105
-108
-112
-108
-108
-108
-109
-106
-103
-102
-113
-99
-99
-104
-107
-105
-106
-101
-105
-102
-107
-102
-99
-104
-109
-105
-103
-99
-98
-94
-98
-100
-97
-96
-95
-93
-93
-91
-89
-87
-82
-81
-79
-80
-85
-80
-72
-81
-81
-78
-81
-65
-66
-69
-72
-67
-64
-66
-69
-57
-61
-62
-65
-61
-64
-65
-65
-70
-65
-63
-67
-72
-69
-70
-72
-73
-82
-80
-82
-77
-84
-89
-93
-94
-102
-101
-97
-101
-104
-103
-101
-104
-110
-110
-114
-114
-107
-106
-106
-108
-112
-116
-114
-114
-109
-110
-114
-107
-107
-111
-117
-113
-113
-119
-113
-111
-113
-118
-114
-111
-115
-113
-110
-114
-116
-115
-117
-115
-112
-112
-113
-114
-113
-118
-116
-122
-107
-113
-108
-114
-120
-113
-106
-110
-115
-117
-117
-116
-116
-116
-120
-113
-116
-117
-117
-113
-118
-111
-115
-112
-115
-110
-111
-114
-116
-113
-111
-113
-108
-107
-109
-113
-113
-107
-105
-107
-113
-108
-110
-112
-115
-109
-111
-112
-115
-113
-112
-116
-110
-110
-110
-112
-109
-118
-118
-118
-117
-115
-108
-112
-115
-114
-111
-115
-111
-111
-112
-117
-105
-107
-115
-110
-108
-109
-108
-106
-108
-107
-104
-109
-110
-117
-116
-111
-115
-114
-114
-109
-112
-112
-118
-118
-110
-117
-116
-109
-102
-103
-101
-104
-102
-109
-104
-97
-103
-100
-112
-110
-101
-106
-106
-111
-103
-102
-103
-102
-100
-97
-95
-97
-98
-89
-92
-98
-96
-101
-100
-97
-95
-102
-100
-104
-108
-108
-117
-106
-105
-105
-103
-103
-107
-106
-106
-111
-107
-106
-111
-103
-103
-106
-106
-103
-107
-107
-107
-104
-107
-105
-106
-109
-104
-110
-116
-113
-119
-112
-92
-89
-73
-49
-39
-12
6
3
2
5
-1
-4
-32
-72
-120
-150
-161
-162
-154
-149
-152
-151
-143
-142
-143
-143
-140
-137
-130
-130
-127
-107
-107
-114
-110
-105
-106
-108
-104
-108
-105
-100
-106
-112
-96
-96
-103
-101
-97
-98
-102
-95
-95
-98
-103
-98
-99
-98
-103
-104
-100
-98
-99
-102
-97
-99
-101
-97
-97
-96
-94
-92
-93
-92
-94
-96
-95
-89
-90
-90
-87
-84
-88
-92
-89
-88
-87
-86
-84
-83
-81
-75
-78
-75
-72
-77
-81
-72
-68
-67
-68
-66
-63
-61
-60
-61
-54
-51
-62
-56
-55
-48
-51
-58
-57
-56
-57
-58
-50
-54
-56
-54
-57
-65
-58
-54
-60
-62
-66
-67
-68
-69
-76
-74
-77
-84
-82
-83
-85
-86
-90
-89
-91
-93
-95
-94
-95
-98
-99
-99
-104
-99
-103
-102
-103
-104
-106
-102
-102
-100
-103
-100
-104
-107
-105
-111
-110
-107
-109
-113
-110
-119
-109
-104
-111
-109
-107
-108
-107
-108
-107
-107
-109
-107
-103
-107
-109
-105
-111
-116
-104
-105
-110
-112
-107
-109
-110
-107
-110
-109
-105
-107
-108
-110
-112
-109
-108
-107
-108
-106
-104
-106
-107
-103
-107
-106
-105
-106
-108
-105
-103
-106
-109
-108
-104
-108
-115
-112
-114
-109
-107
-104
-110
-108
-115
-121
-115
-111
-114
-113
-114
-116
-114
-115
-115
-114
-117
-118
-115
-119
-118
-119
-116
-116
-116
-122
-119
-118
-121
-120
-115
-119
-121
-121
-118
-120
-118
-117
-120
-122
-119
-117
-123
-123
-118
-123
-122
-119
-117
-121
-120
-128
-125
-121
-124
-130
-125
-120
-120
-120
-118
-121
-121
-123
-124
-121
-119
-118
-118
-117
-118
-120
-121
-121
-124
-122
-119
-122
-120
-119
-120
-119
-117
-118
-121
-119
-119
-109
-110
-116
-116
-110
-114
-112
-111
-118
-116
-121
-124
-121
-122
-123
-126
-124
-131
-130
-124
-126
-124
-124
-125
-128
-127
-128
-128
-128
-128
-131
-127
-126
-125
-128
-127
-127
-130
-130
-132
-132
-130
-126
-129
-132
-134
-132
-125
-118
-110
-87
-64
-41
-26
-13
-11
-11
-19
-26
-43
-79
-114
-156
-183
-190
-191
-184
-186
-183
-176
-173
-173
-163
-163
-160
-150
-150
-138
-138
-134
-131
-132
-130
-127
-134
-134
-132
-136
-133
-130
-129
-118
-117
-127
-126
-123
-127
-128
-126
-126
-128
-122
-124
-129
-129
-125
-124
-128
-126
-124
-123
-121
-117
-120
-122
-120
-121
-120
-117
-118
-120
-118
-114
-116
-117
-113
-112
-118
-117
-111
-110
-108
-107
-109
-108
-110
-106
-105
-102
-104
-102
-99
-96
-95
-98
-95
-99
-95
-90
-86
-76
-82
-90
-85
-84
-84
-89
-81
-79
-74
-77
-76
-71
-73
-72
-71
-74
-74
-74
-75
-76
-75
-78
-81
-81
-82
-88
-88
-88
-92
-93
-92
-93
-100
-100
-102
-106
-106
-103
-110
-110
-104
-108
-117
-112
-112
-115
-112
-116
-119
-114
-114
-117
-122
-118
-115
-116
-118
-119
-121
-118
-116
-119
-120
-122
-122
-123
-120
-122
-124
-127
-119
-120
-121
-127
-127
-130
-129
-123
-127
-128
-124
-129
-127
-126
-124
-132
-132
-131
-129
-134
-126
-130
-131
-129
-130
-134
-132
-126
-127
-130
-124
-127
-126
-126
-126
-127
-123
-117
-123
-118
-118
-117
-115
-116
-118
-117
-117
-115
-113
-111
-108
-111
-109
-110
-110
-112
-107
-109
-107
-104
-106
-104
-104
-108
-106
-107
-101
-104
-105
-100
-103
-103
-102
-100
-103
-103
-98
-101
-97
-99
-98
-97
-97
-98
-94
-98
-95
-98
-94
-93
-90
-94
-92
-93
-93
-98
-89
-92
-89
-85
-85
-86
-88
-92
-87
-91
-86
-86
-85
-83
-84
-86
-87
-83
-86
-83
-80
-83
-85
-81
-82
-82
-83
-83
-85
-80
-81
-79
-78
-75
-80
-78
-82
-82
-83
-80
-81
-81
-80
-77
-74
-78
-78
-76
-82
-77
-74
-76
-68
-73
-74
-73
-78
-74
-71
-74
-72
-74
-70
-69
-72
-73
-72
-69
-72
-68
-69
-70
-67
-63
-64
-62
-56
-60
-66
-59
-60
-66
-61
-59
-62
-67
-68
-71
-77
-72
-71
-76
-73
-64
-72
-73
-73
-73
-77
-72
-71
-72
-69
-69
-71
-71
-68
-72
-74
-68
-68
-70
-70
-68
-76
-79
-73
-71
-75
-82
-83
-75
-75
-67
-58
-43
-22
-1
18
34
38
38
44
43
31
-5
-45
-96
-121
-131
-131
-131
-127
-128
-130
-122
-122
-122
-117
-113
-108
-102
-97
-94
-90
-92
-90
-92
-91
-90
-89
-88
-86
-85
-86
-88
-85
-87
-88
-84
-85
-89
-85
-83
-84
-81
-87
-89
-85
-83
-85
-82
-79
-81
-85
-85
-87
-87
-84
-83
-83
-81
-77
-79
-84
-80
-79
-82
-76
-82
-86
-77
-73
-79
-78
-76
-76
-77
-73
-71
-70
-67
-67
-69
-68
-67
-65
-63
-61
-60
-60
-58
-53
-52
-53
-52
-50
-51
-46
-46
-47
-45
-42
-40
-45
-44
-43
-44
-45
-40
-45
-41
-43
-44
-50
-45
-44
-52
-51
-50
-57
-55
-55
-61
-61
-63
-65
-71
-72
-70
-78
-76
-76
-81
-82
-86
-87
-89
-86
-89
-91
-90
-89
-94
-94
-95
-99
-94
-96
-98
-99
-97
-98
-99
-103
-99
-102
-106
-102
-101
-100
-98
-103
-106
-100
-104
-105
-101
-102
-104
-103
-100
-101
-103
-109
-101
-105
-123
-107
-100
-104
-99
-103
-103
-105
-106
-109
-105
-107
-108
-107
-102
-102
-104
-107
-105
-107
-105
-107
-105
-104
-102
-102
-103
-102
-103
-106
-105
-104
-106
-102
-99
-102
-101
-98
-103
-106
-101
-101
-107
-103
-102
-111
-103
-99
-105
-105
-104
-105
-107
-101
-99
-104
-118
-99
-100
-108
-106
-104
-104
-104
-102
-105
-103
-105
-106
-107
-104
-106
-104
-105
-103
-104
-105
-105
-107
-110
-109
-107
-110
-110
-101
-105
-105
-104
-106
-105
-105
-103
-107
-107
-100
-103
-103
-100
-105
-105
-103
-103
-104
-102
-96
-103
-99
-99
-103
-104
-103
-104
-102
-99
-100
-99
-103
-101
-104
-104
-103
-102
-103
-100
-102
-104
-102
-102
-106
-105
-105
-104
-102
-100
-99
-100
-103
-96
-95
-97
-94
-92
-92
-88
-90
-94
-96
-95
-101
-102
-100
-102
-100
-98
-98
-99
-97
-97
-96
-97
-100
-101
-102
-96
-95
-94
-95
-95
-97
-96
-93
-92
-90
-92
-94
-95
-97
-97
-98
-96
-100
-102
-97
-89
-87
-83
-64
-47
-28
-5
10
18
21
26
22
17
-6
-44
-88
-121
-138
-138
-137
-132
-133
-133
-130
-126
-127
-123
-119
-114
-108
-99
-97
-96
-92
-89
-85
-82
-77
-81
-76
-76
-79
-77
-72
-75
-75
-72
-70
-71
-69
-64
-68
-69
-68
-68
-67
-65
-64
-67
-56
-59
-59
-59
-57
-59
-62
-61
-56
-56
-60
-53
-55
-52
-54
-56
-54
-48
-49
-53
-48
-44
-46
-45
-47
-48
-45
-45
-44
-37
-36
-34
-36
-34
-31
-40
-33
-21
-22
-23
-24
-15
-13
-16
-13
-15
-11
-7
-7
0
-1
1
1
1
1
2
3
7
10
9
11
12
11
8
10
7
4
5
6
5
6
4
1
-1
0
-7
-8
-9
-11
-9
-10
-13
-14
-18
-18
-22
-20
-21
-22
-20
-18
-23
-22
-22
-25
-29
-27
-23
-26
-22
-19
-20
-22
-22
-22
-23
-22
-24
-24
-22
-18
-22
-25
-22
-24
-24
-27
-23
-24
-24
-20
-22
-22
-24
-22
-25
-19
-20
-17
-20
-19
-18
-20
-21
-17
-19
-21
-20
-20
-17
-8
-14
-15
-15
-15
-17
-15
-14
-14
-13
-7
-10
-9
-9
-12
-16
-13
-11
-13
-10
-4
-7
-10
-8
-10
-11
-6
-11
-12
-3
-5
-7
-8
-9
-10
-8
-7
-7
-7
-6
-3
-4
-5
-5
-8
-8
-7
-8
-5
-3
-2
-6
-5
-6
-7
-5
-5
-6
-1
-4
-3
-5
0
-4
-5
-5
-6
-4
-8
0
2
-3
-5
-4
-5
-6
-3
-2
-2
-1
-5
-7
-4
-1
-2
-4
-3
-2
0
-2
-2
-3
-3
0
-9
-3
-1
-6
-1
4
1
-2
-1
0
-1
6
2
0
6
4
3
5
6
3
3
8
10
9
9
14
12
9
13
15
16
19
19
18
21
24
21
16
17
18
22
17
15
14
16
14
14
11
13
13
7
7
12
10
12
20
12
12
12
15
13
12
16
13
16
18
18
16
15
15
10
14
16
11
15
20
13
14
19
24
34
54
70
92
113
134
140
140
134
126
112
87
52
13
-20
-35
-41
-38
-34
-35
-29
-22
-17
-14
-10
-7
-3
4
11
12
18
19
18
21
21
23
24
22
21
21
24
25
27
25
31
30
27
29
31
26
28
29
31
27
32
34
32
32
28
30
29
35
33
36
38
40
34
33
35
35
36
39
39
37
43
42
39
45
42
39
42
45
45
48
46
49
48
49
54
51
53
56
56
59
65
57
65
64
66
66
73
71
73
75
79
80
82
82
85
81
88
87
86
90
93
88
88
86
91
85
91
90
84
89
93
89
84
83
80
72
76
78
73
77
79
77
72
69
67
65
66
70
62
62
66
63
62
61
58
57
62
60
55
61
63
60
60
59
56
58
61
62
59
62
64
61
61
61
58
57
65
63
62
63
66
66
63
61
60
61
61
64
67
68
69
66
64
67
63
65
67
68
64
69
73
67
61
72
66
61
69
69
68
70
72
69
65
68
68
66
69
73
68
72
74
74
71
73
68
70
72
71
73
77
75
75
73
74
73
74
74
72
71
77
75
73
74
73
70
77
76
72
76
77
75
74
74
75
79
76
75
75
79
78
74
73
74
73
78
80
77
77
78
80
77
73
78
76
76
76
75
75
79
79
78
79
78
75
76
79
82
81
79
81
77
78
78
78
78
77
82
80
79
88
84
79
81
81
78
80
80
80
81
87
82
82
84
83
85
85
89
87
97
96
91
88
93
90
90
85
88
86
88
83
79
76
78
73
74
76
77
80
79
77
81
78
78
74
76
79
77
77
81
82
78
79
78
77
80
77
73
76
74
80
76
71
70
67
66
68
74
80
102
118
129
155
175
184
191
194
192
186
170
134
93
51
26
17
19
23
22
25
31
32
32
33
41
44
48
55
57
65
69
72
71
72
69
68
71
68
73
72
80
74
73
75
74
72
77
78
77
79
81
79
79
77
78
77
80
80
81
83
84
82
83
79
81
81
80
82
84
87
91
87
84
83
84
90
85
89
87
91
87
90
90
93
93
93
93
92
92
100
101
100
102
102
101
102
105
107
108
110
112
112
113
116
115
115
120
121
118
121
127
121
126
120
119
120
122
122
121
123
124
119
117
115
109
110
114
108
105
106
105
103
98
97
94
91
88
89
85
87
86
83
76
77
73
68
75
74
68
77
71
66
70
72
67
68
70
67
67
74
70
66
67
64
62
66
65
64
64
69
66
65
66
62
60
66
67
63
61
68
62
62
65
58
60
61
64
63
67
65
62
63
64
66
59
63
64
62
63
71
62
65
60
60
62
64
61
61
64
67
65
67
65
60
60
61
65
64
64
67
65
67
64
65
62
64
63
64
67
69
64
63
67
64
63
64
63
62
65
63
61
61
61
57
56
56
65
58
60
67
60
59
65
59
56
57
58
62
64
63
58
60
60
56
60
57
59
59
63
64
59
59
62
63
62
63
64
60
63
64
64
59
63
59
65
64
64
67
65
68
67
65
66
66
69
73
68
68
72
73
67
65
63
56
56
61
61
56
60
60
54
53
58
53
53
54
58
53
56
57
54
56
54
51
54
54
55
54
64
56
53
51
49
46
51
52
45
45
48
49
54
57
69
86
107
125
151
163
169
168
169
159
144
110
73
27
4
6
9
12
7
1
8
10
13
16
14
16
25
34
30
35
40
37
43
42
40
43
51
43
45
48
46
44
47
47
43
45
48
47
50
48
50
46
49
47
46
51
54
49
50
50
44
45
51
49
50
52
46
45
54
49
47
42
54
53
48
50
51
52
63
57
53
58
60
62
60
64
65
64
65
69
66
70
71
72
73
78
76
79
77
81
77
81
86
86
87
91
90
87
91
93
88
93
90
93
92
95
95
93
91
96
90
90
91
87
86
87
83
79
75
73
70
71
72
64
63
67
59
57
59
52
48
48
46
50
49
49
46
39
47
43
40
42
41
36
39
45
40
39
39
38
34
40
37
38
42
43
40
41
36
36
33
39
40
38
36
38
34
34
33
31
30
30
32
34
34
34
34
37
32
31
31
34
37
34
37
35
33
36
37
35
33
36
39
36
36
38
39
37
39
42
37
40
39
37
40
42
37
38
42
37
38
38
41
38
41
43
40
38
38
37
36
40
40
39
40
43
39
42
42
36
39
39
39
39
41
44
44
40
41
41
40
40
40
39
48
48
42
37
41
39
42
44
45
44
46
43
42
41
43
39
41
45
47
46
51
47
45
46
51
45
47
49
51
51
58
53
52
50
51
52
51
49
46
44
47
43
44
40
36
32
44
42
40
40
46
38
37
35
39
34
35
37
38
42
39
40
39
41
39
35
36
34
35
38
39
35
33
31
32
36
43
49
62
82
106
123
139
156
155
153
148
141
119
84
42
1
-18
-19
-21
-19
-20
-21
-13
-7
-2
-6
0
7
9
12
23
28
24
31
34
33
32
32
35
33
35
36
31
39
40
34
33
37
35
36
40
38
37
45
41
37
39
38
40
39
40
43
39
41
42
43
39
42
41
42
41
42
41
46
45
44
45
46
43
48
51
51
48
55
54
49
55
53
55
54
58
58
57
62
64
63
64
65
61
69
72
70
71
76
81
75
80
78
76
80
79
78
84
85
87
84
85
84
83
83
82
79
80
84
80
76
79
74
72
74
70
68
64
66
61
61
59
54
51
51
49
47
45
46
44
43
39
38
36
39
38
36
37
38
35
33
32
33
34
29
29
26
36
36
33
31
30
32
30
32
35
31
33
36
32
33
32
31
30
32
34
35
30
32
30
25
28
33
26
30
31
29
29
36
30
30
31
30
29
35
30
29
33
33
29
32
30
31
30
32
34
30
33
35
31
31
33
31
31
35
31
31
36
36
32
32
31
28
28
34
31
30
35
29
33
32
30
27
31
32
35
30
35
35
33
33
32
28
30
32
33
32
38
35
33
33
34
30
32
28
32
34
35
35
34
32
32
31
35
33
30
32
38
35
34
35
34
33
33
39
37
38
38
39
43
38
38
44
43
44
46
47
46
45
43
42
39
36
31
33
31
33
31
26
28
24
28
24
27
29
28
29
33
28
27
28
29
27
30
29
26
28
31
27
26
30
25
23
23
21
25
24
20
26
22
22
32
42
60
82
100
125
142
145
142
142
134
115
86
47
0
-22
-36
-39
-33
-33
-38
-31
-22
-20
-15
-12
-8
0
4
5
7
11
15
15
17
20
20
17
19
21
16
16
17
18
22
22
24
23
19
24
22
21
23
22
26
29
27
23
26
21
20
24
26
25
24
27
28
22
28
24
21
26
28
25
27
35
31
29
31
32
32
32
33
32
34
38
34
35
35
41
37
43
42
42
47
50
47
49
49
52
53
54
55
54
58
59
61
63
61
62
61
64
66
70
68
72
71
70
70
67
66
68
66
61
67
64
59
56
51
46
47
39
42
40
38
38
31
30
32
26
21
19
19
20
19
16
15
14
12
10
10
9
9
8
10
13
6
7
10
5
7
9
0
3
7
7
0
3
1
-1
-3
-1
0
1
3
6
-1
1
0
1
-1
-3
-3
-3
3
1
1
-6
-2
-6
-4
-5
-5
-3
-1
-2
-2
-7
-3
-4
-1
0
-2
-3
-1
-3
-2
-5
-5
-8
-5
-5
-4
-3
-2
-4
-4
-8
-7
-12
-10
-6
-6
-6
-3
-3
-5
-4
-4
-7
-1
1
-6
-5
-3
-3
-5
-6
-6
-8
-6
-6
-4
-6
-3
-12
-5
-8
-10
-12
-13
-12
-11
-9
-6
-11
-6
-6
-8
-14
-10
-11
-7
-6
-7
-8
-6
-10
-10
-15
-9
-10
-7
-10
-6
-10
-13
-11
-9
-15
-15
-11
-12
-12
-6
-15
-13
-14
-13
-13
-13
-17
-15
-11
-7
-13
-14
-10
-10
-11
-11
-8
-13
-9
-3
-7
-6
-2
-8
-7
-2
-1
-3
-4
-5
-6
-6
-10
-17
-18
-20
-21
-23
-17
-17
-22
-21
-22
-26
-16
-21
-21
-23
-19
-17
-16
-19
-22
-21
-23
-22
-19
-19
-16
-18
-23
-22
-29
-29
-24
-27
-28
-30
-28
-29
-27
-20
-11
-3
20
45
62
81
99
95
96
86
77
48
14
-27
-64
-82
-83
-87
-82
-76
-73
-74
-70
-67
-67
-57
-46
-43
-45
-39
-35
-39
-35
-31
-34
-34
-27
-30
-29
-30
-31
-31
-28
-29
-28
-26
-23
-27
-28
-25
-27
-29
-23
-18
-25
-24
-25
-23
-21
-21
-20
-22
-22
-22
-22
-20
-16
-19
-20
-21
-24
-25
-23
-17
-21
-17
-12
-17
-18
-15
-18
-17
-14
-12
-9
-10
-9
-6
-8
-6
-3
-6
-2
-2
-3
3
10
9
8
9
8
9
13
14
15
18
21
20
19
18
18
20
25
26
23
24
23
24
22
22
19
23
26
18
22
25
18
15
16
9
2
6
5
-2
-3
-1
-1
-5
-10
-9
-17
-18
-17
-18
-21
-18
-21
-22
-24
-22
-25
-26
-24
-26
-25
-20
-21
-27
-30
-26
-27
-28
-27
-34
-29
-28
-25
-31
-29
-33
-30
-29
-29
-32
-31
-24
-29
-34
-32
-34
-33
-34
-31
-31
-31
-33
-29
-28
-30
-34
-34
-31
-31
-33
-27
-24
-31
-33
-33
-30
-33
-28
-32
-34
-33
-25
-28
-26
-31
-30
-34
-33
-35
-31
-31
-23
-29
-30
-29
-34
-34
-26
-28
-30
-27
-25
-26
-31
-26
-27
-27
-28
-30
-28
-27
-25
-25
-26
-28
-27
-30
-26
-22
-28
-29
-25
-26
-27
-29
-31
-29
-29
-26
-26
-25
-26
-29
-31
-30
-31
-30
-29
-29
-24
-22
-25
-29
-30
-29
-31
-32
-25
-31
-28
-25
-29
-28
-27
-29
-29
-28
-26
-25
-29
-31
-28
-29
-28
-28
-29
-30
-33
-37
-32
-31
-28
-27
-31
-27
-30
-32
-27
-31
-29
-25
-26
-23
-27
-25
-26
-29
-30
-30
-31
-23
-28
-28
-30
-28
-26
-29
-25
-25
-27
-26
-28
-23
-23
-23
-23
-21
-18
-19
-18
-17
-19
-20
-23
-27
-35
-32
-31
-34
-27
-28
-34
-35
-33
-33
-38
-32
-31
-37
-33
-30
-36
-34
-37
-34
-35
-34
-35
-36
-34
-34
-34
-35
-36
-41
-41
-31
-40
-41
-42
-41
-34
-28
-17
2
21
42
65
75
77
76
70
69
53
20
-28
-67
-84
-90
-82
-82
-87
-85
-84
-82
-80
-69
-72
-75
-67
-56
-52
-52
-46
-44
-40
-40
-41
-39
-37
-36
-40
-38
-41
-36
-36
-38
-36
-35
-29
-30
-34
-35
-33
-39
-36
-32
-32
-33
-37
-27
-29
-32
-30
-33
-32
-32
-28
-29
-27
-25
-27
-26
-26
-28
-27
-25
-25
-27
-22
-21
-24
-23
-22
-19
-21
-16
-17
-21
-13
-11
-16
-14
-13
-12
-8
-9
-5
-6
-2
-4
-1
3
5
0
6
13
11
15
14
13
14
16
15
13
14
16
17
16
22
17
14
18
14
13
15
11
10
11
11
10
2
-2
-4
-3
-6
-8
-10
-13
-12
-17
-15
-16
-21
-21
-20
-25
-27
-26
-27
-24
-25
-29
-30
-31
-30
-30
-34
-33
-30
-31
-34
-34
-34
-37
-34
-31
-35
-36
-36
-35
-37
-33
-39
-43
-34
-35
-40
-37
-32
-36
-38
-37
-36
-40
-39
-36
-38
-35
-30
-36
-38
-37
-37
-37
-35
-35
-36
-34
-32
-33
-37
-38
-38
-40
-31
-33
-32
-30
-35
-35
-38
-33
-33
-33
-29
-33
-36
-31
-30
-34
-30
-31
-35
-27
-31
-32
-30
-26
-29
-30
-34
-32
-29
-33
-32
-30
-30
-26
-29
-33
-33
-32
-36
-34
-33
-33
-35
-28
-31
-35
-31
-30
-33
-31
-30
-32
-31
-29
-30
-33
-34
-37
-38
-33
-28
-34
-28
-27
-31
-32
-30
-32
-35
-33
-33
-33
-32
-27
-35
-32
-33
-32
-35
-32
-28
-34
-32
-29
-31
-32
-34
-36
-35
-33
-34
-30
-30
-31
-29
-33
-37
-34
-35
-33
-29
-32
-33
-31
-35
-36
-34
-32
-37
-35
-34
-31
-31
-25
-30
-28
-29
-31
-30
-32
-34
-30
-31
-28
-28
-27
-28
-34
-29
-28
-27
-29
-20
-20
-25
-22
-19
-23
-25
-22
-25
-27
-22
-23
-27
-32
-32
-35
-37
-35
-34
-37
-35
-34
-33
-37
-40
-38
-35
-33
-35
-32
-36
-34
-36
-36
-41
-42
-36
-36
-38
-37
-36
-38
-44
-43
-40
-42
-42
-40
-41
-30
-25
-11
8
27
47
63
78
83
78
75
72
50
10
-29
-69
-93
-98
-91
-88
-88
-87
-79
-79
-76
-78
-73
-67
-60
-57
-51
-44
-40
-44
-42
-42
-42
-35
-40
-40
-41
-32
-35
-40
-39
-38
-36
-34
-34
-33
-33
-31
-30
-31
-33
-34
-35
-32
-33
-34
-31
-28
-31
-31
-30
-29
-28
-31
-28
-26
-26
-23
-24
-27
-25
-27
-30
-27
-21
-23
-23
-18
-25
-24
-19
-22
-18
-17
-17
-15
-12
-8
-10
-10
-7
-5
-5
-6
-1
-3
-1
4
2
6
3
1
4
9
11
11
11
17
16
12
15
13
10
18
13
15
19
17
14
12
11
11
13
10
9
6
12
5
1
-3
-6
-6
-10
-11
-11
-13
-15
-9
-16
-21
-18
-24
-25
-24
-24
-27
-26
-24
-28
-30
-28
-33
-32
-30
-32
-32
-29
-30
-34
-33
-35
-33
-32
-30
-35
-32
-27
-28
-35
-34
-33
-35
-33
-30
-36
-30
-29
-33
-27
-31
-35
-34
-34
-34
-33
-30
-30
-32
-32
-31
-36
-33
-34
-36
-35
-33
-28
-34
-34
-33
-34
-36
-32
-31
-34
-29
-26
-31
-31
-32
-31
-31
-30
-30
-29
-29
-28
-30
-30
-32
-30
-34
-29
-33
-31
-31
-28
-28
-28
-31
-36
-34
-29
-28
-27
-27
-25
-25
-30
-30
-31
-29
-30
-29
-31
-27
-27
-29
-29
-29
-31
-35
-28
-31
-34
-28
-30
-32
-33
-33
-31
-34
-31
-29
-33
-30
-27
-30
-32
-29
-32
-33
-28
-28
-29
-26
-28
-29
-32
-30
-33
-34
-30
-29
-33
-25
-27
-29
-33
-30
-32
-32
-33
-35
-34
-27
-30
-31
-33
-34
-35
-28
-30
-37
-34
-28
-31
-29
-35
-30
-32
-31
-29
-28
-33
-28
-27
-25
-32
-28
-37
-35
-31
-33
-32
-27
-31
-30
-29
-33
-37
-32
-32
-34
-31
-29
-31
-33
-33
-31
-35
-32
-35
-32
-31
-27
-30
-33
-30
-34
-32
-29
-31
-34
-25
-27
-32
-30
-30
-28
-32
-30
-29
-29
-28
-29
-33
-31
-26
-27
-33
-31
-28
-31
-28
-27
-27
-26
-29
-28
-30
-24
-22
-19
-20
-17
-21
-20
-21
-18
-21
-24
-23
-20
-27
-27
-30
-29
-29
-37
-39
-29
-32
-37
-33
-35
-38
-37
-33
-36
-38
-36
-33
-35
-34
-30
-33
-37
-35
-37
-36
-35
-35
-36
-33
-36
-36
-39
-40
-41
-37
-29
-23
-10
17
37
54
68
84
84
86
81
70
49
18
-15
-64
-88
-92
-96
-85
-88
-88
-81
-75
-72
-73
-66
-59
-53
-53
-47
-44
-43
-36
-34
-39
-39
-40
-41
-37
-36
-38
-36
-33
-35
-35
-34
-35
-35
-35
-39
-33
-30
-28
-34
-33
-31
-29
-32
-32
-32
-29
-33
-27
-28
-28
-31
-28
-37
-24
-26
-30
-27
-27
-30
-27
-30
-26
-25
-27
-22
-23
-23
-17
-19
-21
-20
-20
-22
-14
-13
-16
-12
-9
-11
-9
-9
-7
-5
-5
-3
-3
0
4
4
5
9
7
5
9
9
6
11
18
13
12
14
11
11
13
19
17
19
14
15
14
14
9
7
10
5
5
5
3
-3
-4
-5
-7
-9
-9
-15
-22
-16
-15
-21
-23
-21
-25
-28
-25
-26
-30
-27
-28
-29
-31
-28
-32
-30
-30
-33
-32
-25
-29
-31
-36
-32
-36
-31
-33
-32
-35
-28
-34
-32
-35
-34
-38
-38
-34
-33
-35
-33
-34
-31
-37
-33
-39
-38
-36
-37
-35
-31
-33
-34
-38
-40
-36
-36
-36
-37
-34
-31
-35
-35
-34
-33
-38
-37
-34
-38
-34
-31
-30
-36
-35
-37
-34
-37
-37
-38
-31
-31
-34
-34
-38
-35
-38
-36
-35
-35
-39
-33
-33
-36
-36
-33
-35
-33
-32
-35
-37
-26
-33
-30
-29
-37
-38
-34
-33
-38
-34
-30
-34
-33
-35
-34
-39
-37
-34
-37
-33
-32
-34
-35
-34
-38
-39
-34
-35
-38
-37
-29
-35
-36
-37
-39
-39
-36
-33
-39
-37
-38
-39
-37
-35
-40
-37
-36
-38
-38
-35
-34
-36
-37
-36
-41
-42
-42
-38
-39
-35
-40
-36
-37
-36
-41
-39
-36
-36
-39
-32
-35
-41
-37
-36
-40
-39
-39
-37
-36
-37
-37
-36
-37
-41
-42
-40
-39
-37
-39
-34
-34
-39
-41
-40
-43
-40
-36
-41
-40
-39
-37
-41
-38
-37
-45
-43
-37
-41
-36
-36
-37
-38
-38
-39
-45
-40
-41
-39
-37
-34
-39
-39
-37
-39
-42
-40
-40
-40
-40
-36
-36
-34
-35
-38
-39
-38
-39
-37
-32
-30
-32
-31
-33
-34
-38
-35
-32
-32
-30
-30
-31
-30
-30
-33
-27
-29
-29
-27
-29
-22
-30
-30
-27
-32
-33
-35
-36
-38
-39
-38
-44
-45
-40
-44
-44
-42
-38
-46
-38
-35
-42
-41
-39
-38
-43
-42
-41
-40
-40
-38
-44
-45
-43
-44
-49
-47
-47
-48
-40
-31
-25
-4
13
31
51
74
77
76
77
74
52
24
-7
-56
-86
-88
-90
-92
-92
-89
-89
-88
-84
-81
-76
-68
-70
-65
-56
-53
-50
-52
-48
-50
-50
-45
-45
-47
-46
-40
-44
-46
-41
-42
-44
-38
-43
-45
-36
-38
-38
-41
-42
-41
-43
-38
-41
-41
-34
-32
-38
-38
-37
-42
-40
-33
-34
-36
-32
-34
-36
-31
-35
-33
-34
-31
-29
-27
-26
-27
-27
-29
-30
-29
-26
-23
-27
-25
-22
-21
-19
-21
-24
-15
-8
-15
-15
-10
-4
-4
-1
-3
-3
-2
3
0
5
8
11
11
7
8
11
10
12
11
13
13
13
11
8
12
11
6
7
9
9
2
4
2
-1
-7
-9
-11
-11
-10
-19
-18
-16
-18
-26
-21
-23
-23
-24
-27
-28
-25
-31
-30
-32
-30
-33
-33
-32
-34
-36
-32
-33
-35
-35
-36
-38
-43
-35
-39
-42
-34
-35
-37
-36
-38
-40
-41
-38
-35
-33
-34
-34
-35
-39
-39
-40
-40
-39
-35
-39
-35
-36
-35
-37
-34
-39
-37
-37
-38
-39
-36
-37
-36
-37
-38
-45
-37
-40
-35
-30
-29
-30
-33
-33
-32
-35
-33
-31
-32
-33
-27
-31
-33
-34
-35
-34
-34
-34
-34
-34
-33
-34
-32
-34
-36
-36
-28
-28
-30
-29
-30
-29
-29
-26
-30
-28
-30
-32
-32
-27
-28
-31
-33
-32
-34
-35
-36
-35
-36
-36
-32
-30
-39
-44
-41
-39
-39
-38
-43
-41
-36
-41
-40
-38
-39
-39
-38
-37
-36
-38
-40
-41
-44
-38
-40
-43
-44
-40
-42
-42
-37
-39
-39
-43
-46
-46
-43
-43
-42
-40
-40
-46
-42
-41
-46
-43
-44
-43
-41
-42
-39
-43
-44
-41
-43
-45
-44
-46
-44
-41
-41
-42
-45
-47
-44
-46
-42
-45
-44
-41
-42
-43
-47
-47
-44
-44
-44
-44
-41
-39
-42
-43
-44
-43
-52
-46
-40
-41
-38
-38
-41
-38
-39
-40
-40
-35
-37
-37
-44
-35
-37
-41
-38
-40
-37
-35
-33
-37
-31
-31
-33
-36
-37
-37
-34
-35
-32
-37
-35
-33
-37
-38
-41
-43
-48
-46
-47
-46
-44
-42
-46
-47
-50
-49
-52
-44
-48
-50
-51
-45
-47
-46
-52
-49
-49
-50
-51
-48
-49
-51
-52
-56
-53
-46
-40
-26
-5
13
34
54
65
65
63
62
55
40
7
-36
-78
-92
-96
-95
-94
-100
-101
-93
-86
-91
-84
-81
-84
-80
-70
-70
-64
-57
-59
-58
-52
-49
-50
-54
-53
-54
-54
-51
-51
-47
-48
-44
-45
-49
-46
-47
-45
-42
-48
-45
-41
-42
-45
-42
-43
-45
-46
-43
-44
-44
-42
-39
-44
-45
-43
-40
-41
-41
-44
-41
-41
-35
-37
-39
-36
-37
-35
-36
-32
-31
-31
-30
-30
-30
-31
-32
-28
-25
-22
-25
-21
-22
-19
-18
-16
-17
-13
-10
-12
-11
-4
-4
-6
-6
-7
-4
-1
3
3
4
5
4
2
9
3
-4
6
2
1
4
3
0
-3
1
-10
-8
-13
-13
-16
-17
-11
-19
-25
-27
-27
-34
-33
-34
-36
-38
-36
-41
-45
-41
-46
-51
-47
-46
-48
-45
-41
-46
-46
-49
-50
-53
-51
-48
-45
-53
-51
-51
-53
-53
-53
-56
-54
-53
-54
-54
-53
-57
-59
-61
-58
-59
-58
-60
-58
-53
-51
-54
-60
-57
-58
-59
-62
-53
-54
-57
-52
-55
-56
-53
-58
-56
-55
-55
-57
-52
-54
-53
-59
-54
-59
-60
-58
-53
-54
-52
-53
-50
-51
-54
-55
-56
-52
-57
-52
-52
-49
-52
-48
-51
-55
-50
-51
-51
-49
-52
-47
-53
-52
-50
-53
-51
-50
-52
-47
-46
-46
-53
-49
-50
-50
-48
-48
-51
-49
-44
-47
-48
-51
-49
-56
-50
-49
-50
-47
-48
-53
-48
-48
-47
-48
-51
-50
-52
-48
-46
-48
-49
-48
-51
-50
-49
-49
-44
-47
-45
-46
-47
-46
-45
-51
-50
-40
-48
-49
-46
-48
-48
-49
-49
-52
-51
-46
-48
-45
-46
-48
-47
-51
-49
-43
-45
-43
-45
-45
-44
-46
-47
-49
-50
-50
-50
-46
-51
-41
-44
-45
-48
-47
-47
-50
-47
-45
-46
-42
-43
-41
-46
-45
-45
-42
-44
-41
-47
-41
-35
-39
-38
-39
-46
-46
-40
-42
-45
-39
-35
-38
-33
-33
-36
-34
-34
-33
-35
-31
-33
-33
-37
-36
-39
-36
-37
-41
-40
-39
-43
-48
-46
-50
-54
-49
-50
-52
-48
-47
-45
-46
-51
-50
-48
-51
-49
-45
-48
-48
-48
-50
-54
-49
-57
-50
-50
-54
-49
-48
-48
-43
-33
-14
2
22
43
59
68
69
66
57
48
23
-16
-59
-92
-104
-106
-103
-103
-101
-100
-97
-98
-93
-89
-86
-76
-70
-68
-67
-60
-63
-61
-55
-57
-59
-55
-49
-53
-52
-50
-52
-54
-51
-51
-50
-48
-49
-48
-47
-47
-48
-54
-51
-46
-45
-47
-44
-47
-47
-47
-46
-47
-44
-45
-46
-42
-39
-44
-45
-45
-45
-47
-42
-42
-41
-37
-35
-39
-40
-40
-38
-38
-35
-33
-39
-34
-28
-34
-33
-27
-30
-28
-27
-26
-23
-18
-19
-17
-18
-16
-16
-13
-11
-13
-9
-3
-4
0
-5
-5
-7
-5
-1
2
0
4
1
-1
0
-4
-2
-3
-1
1
-5
0
-5
-13
-11
-16
-18
-20
-22
-20
-24
-21
-21
-28
-30
-35
-38
-40
-41
-43
-42
-38
-43
-45
-46
-46
-51
-47
-50
-48
-46
-47
-51
-52
-51
-48
-54
-52
-53
-49
-51
-48
-50
-46
-54
-52
-57
-53
-55
-57
-54
-51
-53
-55
-54
-56
-57
-56
-56
-56
-50
-50
-58
-57
-54
-54
-57
-53
-52
-59
-52
-51
-56
-55
-56
-57
-56
-55
-53
-57
-55
-50
-50
-54
-54
-52
-60
-57
-54
-58
-53
-52
-53
-54
-52
-55
-56
-53
-53
-54
-50
-51
-51
-58
-53
-56
-59
-52
-53
-50
-50
-52
-57
-55
-56
-57
-57
-53
-55
-51
-51
-51
-52
-54
-57
-57
-58
-59
-59
-59
-55
-56
-57
-57
-57
-58
-56
-57
-61
-61
-53
-59
-61
-60
-60
-66
-60
-62
-61
-55
-55
-58
-58
-62
-59
-63
-62
-62
-58
-65
-60
-56
-59
-63
-60
-61
-61
-60
-63
-61
-57
-55
-59
-63
-63
-66
-63
-63
-61
-61
-58
-59
-62
-63
-65
-63
-64
-61
-63
-60
-56
-59
-62
-63
-65
-63
-63
-62
-63
-63
-57
-62
-62
-62
-61
-66
-63
-62
-62
-59
-58
-62
-62
-58
-62
-62
-58
-57
-62
-57
-53
-57
-56
-57
-60
-60
-64
-59
-58
-55
-54
-57
-60
-54
-50
-54
-51
-52
-57
-52
-48
-51
-53
-55
-55
-57
-53
-61
-65
-60
-61
-64
-66
-66
-70
-70
-70
-65
-67
-64
-68
-72
-67
-69
-71
-68
-65
-66
-68
-64
-66
-71
-73
-68
-70
-71
-70
-70
-73
-71
-58
-56
-43
-22
-4
15
36
47
47
49
42
31
12
-24
-62
-94
-119
-127
-126
-118
-120
-118
-115
-114
-112
-108
-104
-101
-93
-87
-80
-80
-80
-72
-76
-76
-73
-75
-73
-71
-73
-69
-75
-69
-70
-70
-68
-67
-67
-67
-68
-67
-68
-66
-71
-63
-63
-69
-67
-62
-63
-66
-64
-68
-71
-64
-63
-67
-63
-60
-62
-62
-63
-65
-68
-64
-59
-60
-56
-55
-56
-55
-52
-58
-59
-55
-56
-56
-53
-48
-54
-50
-45
-46
-42
-45
-48
-49
-40
-36
-31
-34
-35
-36
-34
-30
-28
-30
-26
-24
-23
-25
-22
-23
-25
-19
-17
-20
-20
-15
-19
-19
-21
-22
-22
-24
-21
-27
-26
-22
-26
-30
-33
-37
-38
-40
-46
-47
-43
-44
-49
-50
-52
-57
-60
-60
-62
-62
-61
-60
-65
-65
-64
-71
-71
-67
-67
-68
-63
-65
-67
-68
-70
-75
-70
-70
-73
-70
-67
-71
-74
-68
-68
-77
-76
-76
-69
-73
-68
-70
-70
-71
-71
-77
-72
-71
-74
-68
-68
-69
-74
-73
-72
-72
-73
-73
-71
-68
-69
-69
-67
-71
-75
-77
-73
-70
-74
-73
-72
-74
-73
-68
-70
-77
-74
-72
-78
-72
-65
-66
-69
-68
-61
-72
-66
-66
-70
-70
-65
-73
-70
-68
-72
-75
-67
-70
-71
-68
-66
-71
-71
-70
-71
-74
-70
-71
-74
-74
-68
-69
-70
-68
-74
-74
-70
-69
-71
-71
-71
-68
-68
-68
-69
-67
-70
-72
-67
-65
-64
-66
-68
-65
-73
-71
-71
-73
-67
-66
-68
-71
-69
-67
-71
-75
-69
-68
-70
-67
-66
-72
-70
-67
-70
-71
-67
-67
-69
-64
-64
-71
-71
-69
-72
-73
-67
-72
-71
-65
-65
-69
-71
-72
-71
-73
-66
-70
-68
-66
-65
-71
-71
-71
-72
-70
-68
-70
-70
-67
-65
-65
-66
-62
-66
-65
-63
-66
-63
-63
-63
-60
-64
-60
-66
-64
-60
-65
-65
-60
-61
-63
-59
-58
-62
-59
-57
-60
-56
-54
-57
-56
-57
-56
-64
-56
-55
-58
-59
-61
-62
-62
-70
-69
-74
-71
-68
-71
-72
-66
-68
-71
-74
-72
-76
-71
-70
-68
-68
-67
-70
-69
-73
-79
-78
-72
-74
-73
-75
-71
-73
-68
-60
-51
-31
-10
10
29
46
51
47
46
36
15
-21
-53
-98
-118
-128
-128
-126
-124
-124
-121
-121
-117
-115
-114
-95
-89
-91
-86
-77
-79
-77
-74
-80
-72
-73
-70
-73
-74
-71
-75
-73
-68
-69
-71
-69
-68
-68
-68
-67
-75
-69
-68
-69
-68
-64
-69
-65
-69
-63
-67
-71
-67
-69
-67
-62
-62
-62
-62
-66
-63
-61
-60
-59
-61
-58
-55
-57
-57
-59
-58
-57
-57
-56
-51
-51
-50
-52
-53
-45
-46
-47
-46
-45
-44
-41
-37
-36
-39
-37
-37
-32
-32
-26
-24
-22
-25
-22
-16
-17
-21
-14
-14
-18
-15
-13
-15
-17
-17
-6
-15
-17
-18
-16
-15
-15
-19
-23
-24
-27
-33
-34
-37
-36
-36
-40
-43
-44
-45
-46
-52
-52
-55
-54
-54
-53
-58
-54
-55
-61
-59
-58
-61
-62
-58
-56
-57
-63
-65
-62
-63
-66
-68
-65
-60
-54
-63
-63
-64
-67
-67
-63
-65
-69
-62
-63
-65
-64
-67
-72
-69
-66
-63
-67
-64
-62
-64
-64
-67
-64
-66
-64
-65
-63
-59
-61
-65
-65
-65
-72
-68
-57
-64
-63
-58
-61
-64
-62
-65
-65
-67
-61
-62
-59
-61
-59
-62
-65
-58
-61
-58
-60
-64
-62
-56
-60
-62
-62
-61
-66
-62
-64
-63
-60
-58
-61
-62
-63
-64
-65
-62
-61
-62
-63
-57
-56
-59
-56
-58
-63
-62
-59
-60
-60
-55
-59
-60
-58
-60
-63
-62
-58
-63
-59
-57
-55
-56
-58
-64
-64
-60
-61
-59
-57
-58
-59
-62
-59
-61
-65
-59
-59
-60
-56
-52
-58
-58
-56
-55
-55
-61
-61
-56
-59
-57
-55
-55
-58
-60
-61
-57
-60
-60
-59
-54
-57
-58
-60
-60
-62
-61
-58
-56
-57
-55
-53
-58
-55
-55
-53
-56
-56
-61
-52
-50
-53
-51
-55
-52
-49
-48
-50
-56
-50
-49
-49
-52
-50
-51
-47
-50
-45
-43
-40
-41
-46
-44
-46
-49
-47
-47
-50
-48
-44
-42
-51
-58
-57
-59
-59
-58
-61
-61
-57
-55
-59
-61
-59
-57
-60
-56
-60
-59
-54
-57
-59
-60
-57
-65
-62
-61
-61
-61
-62
-62
-64
-65
-60
-57
-49
-34
-15
7
29
45
54
57
54
48
44
23
-13
-49
-89
-115
-110
-116
-111
-116
-113
-106
-103
-100
-97
-95
-84
-83
-75
-77
-71
-65
-64
-61
-59
-61
-60
-65
-64
-63
-60
-59
-58
-56
-55
-59
-54
-57
-55
-60
-56
-55
-56
-53
-52
-54
-55
-55
-55
-57
-54
-49
-53
-52
-49
-54
-53
-48
-53
-54
-51
-52
-49
-46
-46
-42
-45
-46
-50
-46
-45
-43
-42
-39
-38
-38
-37
-32
-36
-37
-35
-32
-30
-29
-26
-31
-25
-27
-27
-25
-22
-17
-18
-15
-9
-14
-13
-9
-8
-8
-5
-10
-3
1
3
0
-1
0
-3
-1
-1
-3
-3
0
-1
-6
-6
-6
-13
-19
-16
-19
-20
-16
-21
-28
-30
-33
-35
-30
-35
-38
-40
-36
-37
-42
-44
-47
-49
-46
-45
-49
-49
