-167
-181
-205
-205
-192
-177
-168
-148
-136
-152
-190
-184
-199
-209
-186
-188
-146
-137
-163
-161
-183
-188
-216
-191
-196
-198
-167
-131
-139
-174
-187
-200
-209
-203
-190
-181
-150
-157
-162
-157
-183
-194
-209
-211
-209
-189
-160
-150
-154
-167
-195
-213
-221
-199
-201
-179
-183
-172
-173
-162
-202
-221
-229
-195
-200
-179
-166
-167
-179
-174
-189
-221
-200
-219
-219
-197
-159
-150
-202
-198
-177
-211
-212
-215
-195
-172
-196
-179
-178
-186
-198
-222
-237
-226
-228
-184
-146
-158
-168
-188
-209
-213
-220
-215
-209
-179
-177
-174
-179
-192
-202
-216
-220
-207
-197
-183
-184
-174
-165
-198
-225
-213
-228
-222
-202
-181
-162
-159
-171
-178
-208
-227
-204
-208
-194
-181
-159
-150
-177
-209
-210
-197
-224
-219
-195
-181
-177
-168
-185
-193
-209
-241
-237
-218
-206
-175
-173
-186
-189
-193
-221
-242
-231
-221
-211
-194
-174
-192
-188
-199
-231
-231
-240
-237
-203
-184
-173
-195
-200
-197
-235
-243
-227
-214
-210
-179
-186
-190
-194
-211
-224
-226
-248
-233
-204
-182
-199
-183
-184
-211
-236
-220
-203
-182
-148
-124
-118
-125
-130
-159
-199
-223
-215
-202
-211
-190
-198
-217
-229
-255
-272
-282
-271
-255
-231
-211
-208
-209
-217
-229
-253
-239
-242
-229
-217
-205
-182
-189
-217
-219
-243
-231
-238
-238
-199
-189
-187
-216
-179
-203
-261
-229
-241
-219
-197
-190
-186
-186
-203
-225
-234
-233
-238
-206
-201
-167
-184
-197
-196
-224
-225
-245
-236
-222
-195
-180
-189
-182
-202
-226
-239
-247
-234
-207
-178
-174
-174
-195
-183
-199
-231
-238
-231
-199
-178
-167
-178
-191
-177
-199
-197
-213
-199
-181
-181
-146
-146
-159
-170
-211
-209
-172
-190
-173
-141
-139
-158
-148
-178
-199
-200
-191
-195
-162
-148
-163
-166
-181
-181
-203
-207
-219
-207
-175
-192
-172
-161
-188
-210
-217
-228
-231
-224
-201
-189
-181
-209
-208
-212
-221
-245
-244
-258
-196
-192
-188
-192
-190
-225
-254
-262
-242
-242
-226
-198
-186
-204
-231
-217
-240
-239
-224
-228
-224
-199
-194
-190
-212
-234
-252
-246
-241
-230
-218
-197
-201
-192
-213
-235
-243
-257
-226
-223
-212
-202
-196
-200
-206
-229
-257
-250
-236
-240
-206
-195
-188
-211
-201
-242
-259
-254
-251
-234
-196
-196
-203
-211
-213
-248
-261
-257
-240
-230
-214
-191
-190
-207
-240
-250
-245
-253
-239
-239
-217
-196
-188
-201
-243
-239
-247
-268
-246
-232
-207
-210
-220
-219
-226
-246
-271
-264
-250
-224
-220
-215
-225
-225
-227
-250
-273
-239
-250
-234
-205
-231
-222
-207
-245
-252
-249
-284
-265
-214
-199
-188
-208
-216
-254
-270
-271
-259
-266
-221
-220
-198
-230
-213
-242
-260
-266
-253
-258
-235
-227
-212
-200
-229
-270
-260
-264
-275
-249
-233
-201
-199
-222
-226
-253
-258
-277
-274
-249
-227
-223
-224
-223
-208
-252
-270
-284
-249
-231
-228
-216
-209
-211
-225
-253
-249
-259
-263
-233
-214
-209
-194
-205
-206
-244
-264
-258
-253
-246
-207
-199
-209
-206
-228
-258
-286
-283
-262
-242
-219
-215
-220
-226
-243
-255
-268
-279
-251
-233
-225
-236
-216
-222
-238
-240
-285
-281
-244
-235
-231
-215
-235
-237
-225
-269
-262
-276
-272
-261
-224
-225
-224
-236
-255
-266
-274
-262
-269
-249
-248
-226
-235
-266
-256
-253
-268
-276
-261
-240
-205
-191
-181
-184
-191
-191
-175
-170
-157
-127
-150
-145
-157
-199
-212
-265
-287
-297
-283
-282
-278
-275
-269
-294
-324
-317
-311
-295
-272
-246
-255
-246
-240
-240
-257
-283
-277
-269
-251
-237
-224
-210
-232
-232
-241
-276
-268
-266
-270
-234
-209
-216
-217
-252
-263
-269
-269
-278
-260
-238
-216
-213
-220
-232
-254
-260
-262
-257
-265
-222
-210
-222
-241
-233
-249
-251
-245
-255
-256
-225
-205
-189
-220
-219
-210
-248
-260
-267
-269
-204
-192
-217
-201
-207
-238
-250
-233
-208
-198
-192
-195
-187
-196
-200
-203
-200
-209
-210
-202
-176
-152
-142
-136
-187
-207
-201
-187
-185
-164
-144
-144
-162
-146
-170
-192
-203
-221
-199
-193
-181
-156
-160
-170
-205
-217
-216
-224
-218
-221
-190
-192
-199
-205
-210
-255
-267
-257
-246
-225
-218
-207
-221
-210
-245
-264
-267
-267
-263
-245
-227
-218
-211
-222
-246
-274
-273
-268
-257
-238
-217
-227
-228
-236
-263
-283
-266
-272
-263
-241
-217
-223
-234
-245
-256
-277
-284
-266
-252
-237
-238
-236
-211
-229
-247
-277
-279
-266
-244
-226
-217
-219
-232
-265
-283
-287
-294
-272
-263
-235
-226
-226
-233
-237
-262
-274
-296
-272
-246
-242
-224
-230
-228
-251
-273
-305
-279
-278
-271
-230
-222
-216
-258
-275
-273
-285
-283
-279
-256
-246
-213
-242
-230
-241
-280
-298
-293
-271
-278
-241
-232
-230
-246
-256
-283
-292
-281
-261
-271
-249
-234
-224
-245
-262
-297
-305
-302
-284
-258
-240
-243
-243
-259
-264
-269
-288
-280
-292
-279
-242
-225
-235
-232
-245
-277
-288
-287
-273
-261
-253
-235
-230
-246
-274
-275
-296
-270
-299
-268
-227
-227
-239
-246
-270
-273
-299
-292
-276
-262
-242
-240
-244
-245
-275
-280
-308
-282
-279
-253
-240
-235
-241
-252
-264
-287
-285
-277
-271
-253
-229
-230
-241
-258
-273
-283
-285
-280
-264
-252
-234
-244
-249
-247
-269
-296
-289
-266
-261
-273
-240
-246
-242
-248
-273
-280
-291
-288
-276
-236
-232
-237
-245
-228
-277
-278
-276
-270
-255
-242
-214
-207
-223
-237
-254
-294
-283
-261
-240
-236
-234
-211
-223
-233
-260
-272
-277
-271
-270
-259
-236
-223
-238
-257
-279
-280
-303
-297
-266
-228
-219
-236
-246
-265
-286
-293
-274
-282
-279
-247
-214
-223
-242
-280
-285
-288
-294
-283
-266
-243
-235
-243
-242
-252
-278
-301
-289
-270
-270
-251
-228
-228
-257
-273
-269
-298
-291
-281
-253
-227
-224
-220
-215
-215
-216
-214
-235
-200
-170
-151
-161
-173
-211
-251
-285
-298
-302
-322
-291
-285
-289
-300
-295
-312
-322
-317
-328
-327
-261
-225
-249
-268
-246
-266
-284
-283
-285
-275
-256
-233
-230
-246
-239
-261
-293
-292
-277
-264
-257
-226
-245
-235
-248
-267
-289
-302
-284
-277
-239
-233
-225
-238
-251
-259
-297
-285
-281
-263
-236
-227
-211
-246
-243
-260
-253
-289
-271
-266
-243
-219
-220
-232
-234
-273
-278
-280
-260
-225
-228
-226
-218
-225
-216
-263
-263
-247
-250
-236
-214
-211
-214
-214
-218
-224
-231
-223
-224
-232
-193
-182
-180
-199
-214
-236
-231
-220
-207
-221
-193
-182
-147
-170
-201
-233
-232
-244
-232
-200
-200
-194
-200
-197
-226
-252
-251
-256
-253
-216
-219
-209
-210
-210
-232
-245
-288
-263
-257
-247
-226
-222
-239
-239
-261
-281
-284
-281
-254
-241
-238
-233
-259
-251
-252
-290
-296
-286
-278
-263
-250
-216
-231
-271
-266
-276
-291
-284
-275
-269
-247
-228
-238
-254
-273
-275
-296
-298
-279
-256
-222
-236
-256
-248
-270
-294
-290
-271
-269
-254
-224
-233
-248
-246
-292
-294
-280
-270
-285
-260
-229
-239
-248
-256
-276
-300
-301
-303
-260
-249
-236
-231
-253
-266
-277
-319
-295
-287
-271
-255
-234
-234
-242
-264
-283
-305
-310
-283
-287
-251
-239
-240
-250
-252
-277
-315
-294
-296
-278
-256
-256
-256
-271
-280
-279
-306
-288
-287
-286
-251
-248
-241
-265
-268
-311
-295
-303
-292
-277
-275
-247
-252
-261
-266
-293
-307
-308
-294
-284
-260
-249
-244
-231
-246
-311
-326
-316
-289
-298
-259
-258
-244
-259
-281
-296
-314
-305
-292
-276
-255
-235
-270
-253
-290
-303
-314
-304
-293
-273
-256
-243
-250
-255
-279
-310
-307
-293
-292
-263
-259
-240
-249
-257
-282
-290
-279
-293
-284
-255
-240
-232
-259
-260
-269
-294
-290
-289
-288
-254
-265
-247
-244
-265
-296
-309
-303
-293
-275
-261
-264
-257
-266
-271
-300
-307
-294
-287
-297
-289
-258
-261
-258
-266
-292
-319
-309
-291
-282
-270
-253
-256
-258
-285
-298
-300
-321
-290
-285
-248
-232
-258
-277
-268
-286
-299
-317
-298
-281
-266
-247
-246
-261
-281
-298
-301
-279
-252
-238
-225
-203
-196
-191
-200
-237
-268
-265
-267
-258
-265
-253
-254
-283
-311
-338
-332
-329
-306
-298
-288
-267
-266
-272
-272
-326
-318
-307
-298
-256
-246
-248
-249
-252
-272
-287
-296
-285
-285
-266
-242
-223
-248
-251
-249
-272
-299
-298
-270
-259
-236
-236
-253
-240
-286
-266
-275
-293
-276
-247
-245
-234
-243
-246
-270
-279
-278
-283
-275
-241
-222
-238
-238
-233
-248
-267
-282
-273
-265
-236
-216
-230
-237
-229
-257
-270
-270
-231
-235
-211
-209
-189
-223
-236
-231
-239
-240
-261
-250
-195
-192
-186
-193
-201
-207
-232
-232
-209
-232
-179
-166
-188
-181
-189
-217
-225
-223
-213
-206
-190
-181
-173
-167
-180
-218
-255
-239
-230
-232
-206
-191
-178
-195
-207
-228
-253
-253
-233
-221
-216
-198
-197
-210
-218
-253
-258
-256
-258
-238
-208
-199
-203
-220
-234
-257
-258
-251
-247
-233
-218
-194
-202
-222
-236
-247
-254
-263
-253
-231
-203
-202
-211
-206
-228
-220
-263
-252
-232
-225
-217
-199
-203
-201
-231
-261
-254
-247
-241
-215
-198
-190
-201
-205
-238
-236
-250
-243
-228
-214
-209
-200
-187
-205
-234
-239
-248
-229
-226
-212
-206
-171
-186
-198
-230
-252
-246
-226
-225
-205
-181
-178
-194
-208
-218
-242
-266
-251
-220
-192
-189
-177
-189
-195
-220
-242
-250
-222
-231
-200
-173
-205
-199
-182
-198
-228
-237
-223
-215
-206
-183
-183
-188
-191
-212
-232
-231
-232
-220
-192
-183
-186
-171
-200
-206
-230
-241
-221
-213
-180
-159
-162
-167
-198
-219
-222
-223
-202
-200
-189
-182
-188
-183
-177
-210
-245
-221
-179
-188
-161
-157
-170
-162
-190
-197
-198
-213
-216
-180
-158
-154
-155
-165
-182
-202
-204
-206
-197
-176
-159
-169
-166
-151
-172
-205
-213
-210
-201
-189
-172
-162
-164
-164
-179
-202
-197
-210
-205
-186
-168
-160
-160
-166
-171
-201
-219
-209
-181
-186
-158
-149
-179
-177
-194
-208
-210
-196
-193
-176
-150
-146
-161
-169
-184
-200
-200
-192
-177
-168
-169
-156
-155
-153
-180
-187
-182
-159
-142
-121
-90
-78
-78
-89
-106
-126
-163
-177
-172
-155
-150
-156
-176
-195
-203
-242
-227
-227
-210
-190
-186
-177
-174
-170
-191
-216
-223
-182
-179
-166
-156
-146
-158
-162
-189
-197
-195
-175
-188
-155
-140
-138
-162
-151
-192
-213
-183
-186
-167
-159
-137
-131
-144
-164
-182
-198
-194
-167
-173
-157
-135
-137
-149
-158
-183
-182
-183
-180
-155
-131
-132
-134
-143
-169
-182
-188
-201
-163
-124
-124
-117
-133
-134
-147
-166
-171
-177
-166
-117
-115
-104
-116
-119
-127
-181
-132
-132
-121
-104
-88
-72
-80
-79
-97
-122
-108
-128
-131
-83
-73
-72
-57
-83
-91
-116
-123
-114
-94
-75
-61
-53
-88
-86
-115
-143
-142
-143
-109
-113
-93
-79
-91
-105
-146
-140
-148
-153
-150
-134
-110
-111
-128
-133
-144
-190
-176
-156
-158
-127
-105
-116
-128
-147
-188
-194
-176
-171
-163
-143
-128
-124
-141
-124
-162
-173
-181
-167
-143
-141
-128
-128
-139
-140
-174
-183
-178
-169
-152
-132
-122
-116
-129
-144
-173
-172
-168
-164
-147
-128
-117
-108
-134
-145
-162
-170
-172
-166
-158
-118
-116
-117
-107
-128
-161
-182
-183
-178
-171
-124
-106
-122
-137
-150
-148
-187
-172
-147
-142
-119
-102
-117
-129
-147
-152
-179
-177
-159
-140
-124
-107
-128
-146
-155
-161
-181
-177
-170
-151
-110
-112
-123
-140
-142
-155
-186
-160
-163
-136
-129
-123
-116
-133
-159
-164
-167
-169
-158
-154
-115
-117
-119
-129
-143
-163
-177
-173
-157
-133
-117
-119
-133
-123
-148
-185
-185
-164
-148
-143
-128
-124
-114
-127
-155
-176
-173
-156
-150
-127
-126
-133
-124
-136
-131
-150
-173
-163
-162
-153
-122
-111
-108
-125
-144
-160
-160
-153
-140
-117
-97
-99
-130
-117
-139
-165
-168
-137
-139
-99
-112
-102
-98
-110
-136
-153
-154
-156
-157
-125
-131
-104
-135
-132
-165
-174
-166
-156
-156
-142
-123
-124
-131
-144
-150
-146
-184
-200
-155
-119
-124
-129
-127
-145
-169
-178
-176
-170
-152
-133
-108
-121
-137
-148
-170
-153
-167
-177
-176
-125
-123
-129
-144
-149
-169
-181
-178
-174
-153
-125
-104
-123
-87
-101
-109
-142
-95
-56
-38
-22
-29
-41
-81
-114
-146
-180
-193
-186
-179
-187
-155
-187
-201
-208
-212
-202
-198
-194
-165
-144
-140
-148
-149
-151
-179
-185
-174
-171
-156
-126
-121
-117
-142
-163
-179
-190
-169
-169
-132
-133
-117
-130
-127
-163
-192
-173
-169
-154
-137
-116
-108
-142
-128
-159
-165
-160
-180
-146
-141
-112
-120
-138
-115
-154
-171
-173
-158
-144
-147
-113
-104
-121
-148
-157
-170
-158
-142
-138
-119
-104
-103
-130
-112
-146
-150
-145
-133
-129
-90
-79
-77
-88
-108
-105
-130
-135
-104
-99
-70
-59
-58
-78
-87
-87
-120
-109
-89
-80
-55
-48
-60
-65
-94
-98
-123
-111
-97
-87
-73
-66
-75
-93
-100
-113
-115
-119
-110
-125
-113
-89
-96
-98
-128
-145
-171
-153
-151
-130
-114
-101
-124
-138
-152
-165
-164
-160
-160
-159
-134
-119
-146
-136
-158
-189
-182
-176
-164
-138
-114
-123
-127
-153
-162
-160
-174
-186
-166
-129
-128
-136
-130
-138
-160
-168
-166
-169
-165
-145
-128
-120
-137
-140
-154
-194
-191
-180
-169
-148
-129
-121
-121
-132
-165
-193
-191
-166
-183
-169
-99
-122
-130
-150
-167
-177
-189
-168
-159
-137
-129
-145
-152
-151
-168
-192
-180
-154
-183
-141
-132
-134
-137
-147
-178
-184
-193
-192
-171
-136
-132
-144
-152
-160
-177
-191
-191
-186
-180
-132
-143
-130
-140
-153
-200
-204
-182
-173
-182
-141
-136
-134
-159
-169
-181
-190
-184
-195
-163
-147
-130
-135
-160
-161
-198
-220
-195
-181
-173
-147
-132
-139
-164
-182
-180
-191
-199
-198
-159
-142
-131
-139
-165
-184
-194
-200
-191
-188
-168
-141
-127
-158
-165
-179
-164
-197
-222
-191
-147
-131
-124
-163
-173
-171
-172
-187
-185
-169
-137
-161
-132
-145
-152
-158
-195
-190
-171
-159
-143
-157
-151
-154
-154
-179
-195
-186
-181
-186
-164
-153
-158
-162
-170
-178
-209
-220
-197
-203
-178
-159
-149
-152
-171
-202
-203
-205
-194
-182
-186
-139
-151
-151
-169
-198
-202
-208
-192
-196
-156
-148
-145
-185
-179
-200
-199
-217
-211
-198
-160
-169
-160
-142
-176
-206
-225
-214
-192
-151
-137
-113
-104
-109
-104
-128
-113
-129
-130
-137
-130
-145
-164
-187
-199
-255
-257
-252
-234
-245
-202
-213
-209
-207
-215
-232
-226
-218
-223
-203
-165
-153
-171
-180
-200
-201
-231
-217
-192
-189
-157
-162
-162
-170
-179
-197
-214
-216
-201
-183
-168
-162
-163
-175
-193
-197
-205
-212
-197
-184
-159
-155
-176
-185
-187
-193
-226
-193
-216
-188
-140
-149
-167
-183
-201
-194
-205
-207
-197
-181
-146
-145
-152
-159
-176
-196
-214
-203
-195
-150
-156
-139
-151
-149
-166
-186
-187
-178
-166
-139
-125
-122
-147
-117
-140
-174
-169
-147
-155
-127
-126
-98
-111
-115
-129
-166
-148
-150
-134
-125
-106
-88
-97
-145
-166
-177
-177
-135
-155
-141
-122
-114
-130
-151
-183
-201
-191
-179
-177
-159
-151
-135
-157
-189
-205
-214
-197
-202
-186
-167
-151
-179
-172
-186
-195
-213
-223
-197
-172
-173
-170
-163
-166
-204
-226
-239
-220
-212
-210
-174
-155
-158
-176
-183
-216
-239
-207
-196
-194
-165
-172
-177
-163
-197
-219
-213
-213
-201
-189
-170
-161
-168
-174
-184
-180
-219
-215
-216
-188
-179
-167
-174
-192
-192
-210
-214
-212
-203
-180
-165
-166
-172
-161
-211
-216
-244
-215
-191
-181
-170
-160
-177
-187
-202
-218
-226
-200
-201
-193
-169
-163
-179
-191
-198
-230
-229
-207
-197
-170
-171
-179
-195
-185
-199
-212
-228
-212
-229
-183
-175
-161
-158
-182
-200
-203
-229
-240
-211
-183
-176
-170
-178
-185
-214
-215
-218
-231
-216
-167
-167
-169
-174
-188
-209
-216
-236
-209
-203
-184
-165
-165
-171
-192
-207
-226
-240
-212
-196
-170
-176
-164
-173
-183
-217
-222
-219
-221
-192
-180
-169
-159
-174
-191
-201
-207
-207
-206
-191
-161
-170
-152
-157
-185
-194
-214
-217
-206
-192
-160
-153
-151
-158
-200
-210
-227
-205
-218
-205
-171
-158
-176
-182
-191
-212
-237
-231
-191
-191
-180
-172
-182
-177
-202
-221
-218
-212
-210
-194
-195
-151
-170
-196
-188
-232
-234
-208
-209
-172
-173
-175
-173
-190
-205
-216
-229
-225
-227
-191
-153
-152
-174
-191
-197
-211
-229
-212
-202
-188
-175
-138
-137
-141
-182
-167
-157
-157
-154
-112
-99
-114
-135
-143
-180
-215
-226
-240
-242
-234
-205
-211
-199
-220
-249
-248
-248
-241
-220
-187
-183
-173
-192
-195
-196
-212
-218
-218
-183
-180
-177
-153
-189
-196
-195
-202
-215
-214
-192
-164
-179
-194
-177
-171
-188
-222
-234
-203
-180
-177
-163
-156
-176
-189
-206
-228
-210
-203
-195
-168
-159
-161
-169
-178
-185
-202
-194
-210
-188
-182
-161
-150
-166
-170
-204
-200
-193
-182
-177
-169
-138
-130
-159
-183
-185
-197
-193
-185
-164
-159
-126
-134
-134
-146
-178
-171
-172
-150
-136
-116
-107
-112
-125
-137
-164
-162
-150
-157
-119
-116
-119
-129
-113
-128
-151
-183
-163
-159
-136
-117
-119
-115
-141
-169
-190
-185
-162
-180
-159
-139
-135
-152
-169
-187
-210
-203
-184
-180
-157
-149
-152
-159
-167
-196
-219
-214
-199
-176
-167
-165
-167
-172
-172
-187
-195
-224
-220
-196
-177
-166
-147
-158
-169
-208
-222
-212
-205
-194
-180
-156
-147
-163
-179
-216
-199
-217
-203
-184
-163
-156
-151
-142
-170
-190
-213
-224
-212
-190
-138
-134
-182
-160
-182
-204
-208
-204
-187
-175
-173
-160
-156
-152
-188
-214
-231
-213
-193
-194
-162
-151
-162
-154
-173
-202
-205
-200
-207
-190
-169
-148
-151
-149
-180
-208
-224
-221
-209
-185
-166
-151
-150
-166
-183
-204
-215
-195
-187
-202
-164
-158
-171
-184
-196
-209
-217
-215
-210
-197
-161
-154
-163
-164
-183
-228
-210
-213
-204
-171
-147
-167
-170
-166
-200
-202
-219
-203
-194
-195
-158
-148
-164
-174
-194
-210
-198
-180
-197
-187
-176
-160
-162
-173
-212
-218
-189
-203
-191
-171
-148
-141
-161
-164
-187
-207
-196
-192
-205
-151
-150
-142
-163
-171
-187
-210
-217
-195
-179
-173
-155
-162
-170
-173
-195
-214
-212
-199
-204
-166
-145
-149
-168
-189
-205
-221
-211
-195
-197
-183
-145
-162
-184
-172
-203
-220
-214
-206
-195
-166
-161
-172
-178
-169
-208
-215
-213
-201
-185
-174
-153
-163
-170
-184
-213
-207
-217
-190
-186
-165
-157
-154
-163
-156
-173
-188
-164
-156
-124
-98
-117
-102
-126
-159
-187
-223
-221
-198
-204
-212
-206
-200
-211
-208
-229
-258
-250
-252
-220
-181
-169
-171
-170
-195
-210
-223
-218
-193
-188
-160
-164
-165
-177
-198
-227
-212
-197
-198
-186
-161
-153
-167
-173
-185
-209
-218
-202
-195
-168
-181
-153
-143
-168
-192
-206
-188
-195
-194
-174
-155
-146
-165
-165
-192
-178
-215
-203
-186
-152
-148
-137
-150
-158
-186
-195
-187
-191
-181
-140
-145
-147
-153
-145
-170
-180
-182
-174
-176
-152
-124
-125
-140
-129
-149
-178
-169
-157
-138
-116
-93
-100
-117
-135
-149
-164
-160
-152
-143
-107
-92
-90
-109
-123
-159
-173
-157
-143
-139
-120
-99
-107
-125
-149
-171
-177
-180
-168
-152
-132
-119
-126
-160
-154
-178
-197
-198
-179
-172
-143
-151
-157
-173
-173
-183
-206
-199
-191
-178
-174
-159
-157
-152
-185
-212
-205
-203
-197
-175
-168
-143
-147
-165
-193
-200
-219
-209
-195
-189
-148
-141
-160
-168
-183
-184
-208
-198
-184
-176
-146
-163
-171
-168
-189
-212
-215
-207
-187
-167
-160
-155
-152
-176
-182
-202
-212
-199
-195
-172
-148
-135
-165
-180
-187
-233
-206
-199
-191
-163
-162
-144
-162
-165
-192
-212
-210
-207
-185
-169
-172
-166
-162
-169
-188
-212
-210
-206
-186
-160
-165
-163
-174
-170
-202
-226
-207
-204
-186
-175
-144
-152
-167
-175
-208
-217
-226
-206
-188
-168
-153
-170
-166
-183
-217
-232
-224
-184
-194
-172
-153
-153
-166
-181
-194
-220
-211
-210
-193
-171
-159
-172
-178
-171
-217
-214
-206
-187
-195
-171
-152
-155
-161
-182
-199
-213
-213
-197
-175
-158
-144
-137
-186
-181
-202
-228
-221
-162
-179
-164
-155
-156
-156
-183
-203
-219
-214
-196
-181
-161
-173
-171
-174
-223
-224
-213
-192
-201
-183
-152
-156
-180
-180
-184
-211
-224
-214
-205
-186
-172
-156
-180
-180
-201
-222
-225
-222
-205
-179
-158
-149
-188
-202
-187
-207
-218
-226
-212
-181
-172
-166
-157
-193
-205
-207
-218
-207
-206
-194
-156
-137
-147
-150
-166
-183
-152
-134
-127
-95
-90
-96
-100
-123
-186
-221
-208
-208
-216
-209
-191
-181
-213
-223
-258
-270
-260
-259
-205
-171
-191
-180
-163
-184
-204
-208
-217
-204
-200
-173
-165
-170
-182
-181
-211
-210
-214
-199
-204
-172
-160
-165
-169
-182
-205
-210
-219
-219
-185
-160
-158
-167
-175
-181
-215
-240
-208
-195
-199
-173
-161
-155
-172
-193
-204
-209
-209
-204
-186
-167
-163
-157
-141
-196
-210
-215
-224
-191
-174
-164
-155
-155
-159
-178
-188
-203
-194
-177
-157
-139
-149
-134
-130
-175
-187
-179
-168
-175
-148
-108
-119
-115
-131
-145
-176
-165
-160
-175
-139
-110
-102
-113
-135
-164
-166
-174
-145
-151
-145
-134
-122
-124
-142
-158
-166
-209
-180
-155
-150
-141
-137
-151
-157
-182
-201
-204
-196
-217
-181
-162
-161
-176
-171
-192
-215
-216
-207
-189
-184
-163
-191
-169
-166
-201
-239
-235
-230
-196
-183
-164
-161
-177
-186
-205
-217
-225
-213
-204
-185
-169
-158
-169
-177
-221
-223
-229
-225
-195
-174
-167
-160
-167
-194
-193
-230
-221
-208
-212
-175
-171
-164
-168
-198
-233
-235
-207
-211
-197
-164
-147
-171
-181
-200
-211
-220
-217
-227
-210
-165
-161
-165
-185
-197
-205
-217
-225
-223
-199
-175
-174
-174
-172
-205
-224
-225
-228
-219
-188
-185
-170
-175
-184
-208
-225
-229
-223
-220
-198
-182
-190
-185
-188
-208
-224
-230
-226
-218
-208
-186
-179
-177
-191
-214
-222
-241
-226
-206
-200
-187
-182
-181
-193
-216
-229
-231
-223
-227
-216
-172
-185
-207
-189
-215
-243
-226
-231
-225
-199
-188
-180
-197
-202
-222
-224
-243
-235
-221
-198
-203
-183
-173
-194
-215
-244
-236
-242
-210
-195
-213
-182
-187
-208
-220
-247
-240
-212
-220
-186
-169
-179
-188
-197
-232
-235
-229
-237
-201
-177
-176
-169
-185
-190
-206
-228
-240
-230
-221
-191
-187
-186
-207
-217
-228
-255
-245
-227
-202
-203
-197
-192
-216
-217
-233
-251
-241
-233
-218
-218
-193
-188
-204
-212
-242
-251
-241
-230
-223
-200
-199
-208
-195
-235
-248
-249
-252
-241
-216
-189
-179
-200
-203
-251
-255
-250
-240
-242
-208
-205
-205
-187
-194
-209
-213
-217
-212
-182
-142
-111
-108
-113
-141
-159
-195
-225
-225
-202
-211
-210
-218
-235
-257
-268
-292
-304
-296
-277
-256
-227
-202
-233
-228
-236
-246
-259
-242
-257
-213
-187
-208
-207
-226
-243
-246
-242
-232
-242
-206
-195
-211
-193
-214
-234
-253
-252
-229
-239
-218
-186
-204
-188
-211
-224
-240
-229
-249
-223
-221
-197
-190
-209
-200
-238
-245
-249
-225
-206
-208
-202
-179
-197
-209
-232
-242
-236
-236
-208
-210
-181
-186
-185
-203
-225
-229
-233
-224
-197
-175
-166
-180
-208
-177
-204
-227
-197
-195
-183
-168
-153
-159
-149
-145
-185
-199
-189
-169
-177
-145
-122
-129
-130
-173
-181
-198
-184
-180
-164
-142
-138
-153
-167
-181
-211
-201
-202
-197
-176
-154
-167
-160
-175
-199
-214
-233
-217
-227
-205
-172
-176
-194
-205
-210
-242
-248
-227
-219
-208
-183
-195
-205
-213
-230
-251
-259
-244
-247
-217
-187
-187
-199
-216
-230
-255
-253
-245
-236
-196
-200
-208
-204
-216
-224
-244
-260
-218
-229
-222
-194
-198
-205
-205
-235
-257
-236
-244
-231
-216
-189
-198
-203
-216
-222
-247
-255
-247
-230
-216
-194
-200
-220
-228
-224
-234
-241
-242
-221
-211
-208
-200
-215
-197
-232
-256
-246
-234
-218
-219
-210
-193
-187
-200
-239
-259
-244
-244
-221
-194
-189
-197
-209
-221
-245
-244
-244
-259
-224
-203
-191
-197
-210
-230
-243
-252
-231
-246
-233
-200
-194
-185
-201
-229
-250
-251
-241
-246
-225
-215
-201
-219
-206
-228
-242
-235
-249
-242
-224
-174
-189
-195
-206
-231
-254
-253
-247
-243
-232
-209
-185
-211
-187
-227
-247
-257
-245
-235
-209
-219
-188
-203
-224
-244
-239
-251
-241
-249
-206
-190
-189
-196
-227
-234
-245
-252
-239
-240
-200
-206
-206
-202
-198
-227
-256
-250
-230
-237
-249
-180
-184
-195
-216
-234
-237
-251
-243
-215
-214
-190
-205
-188
-195
-227
-241
-232
-216
-220
-206
-180
-175
-196
-189
-232
-231
-232
-225
-224
-197
-177
-174
-189
-204
-219
-240
-248
-233
-213
-186
-182
-167
-216
-220
-240
-251
-249
-232
-215
-207
-189
-197
-208
-235
-246
-216
-236
-237
-231
-198
-174
-206
-188
-221
-238
-237
-241
-248
-209
-175
-180
-197
-185
-213
-256
-261
-230
-235
-211
-194
-174
-189
-211
-227
-229
-239
-218
-224
-220
-208
-180
-184
-170
-175
-186
-200
-175
-141
-139
-105
-75
-106
-150
-185
-216
-232
-227
-243
-228
-227
-231
-241
-238
-254
-255
-269
-257
-252
-228
-218
-194
-208
-191
-216
-240
-258
-232
-213
-191
-185
-172
-192
-196
-224
-233
-248
-215
-193
-207
-174
-177
-217
-182
-215
-209
-245
-209
-214
-185
-165
-172
-172
-192
-208
-233
-232
-219
-197
-187
-175
-172
-171
-185
-200
-236
-231
-214
-199
-176
-157
-177
-173
-181
-205
-214
-211
-207
-202
-169
-160
-155
-151
-170
-201
-206
-224
-197
-178
-150
-137
-135
-134
-155
-187
-187
-175
-177
-147
-133
-110
-119
-116
-144
-162
-157
-155
-140
-139
-116
-98
-106
-111
-111
-146
-175
-156
-155
-135
-103
-112
-126
-124
-131
-166
-182
-177
-177
-175
-127
-120
-128
-131
-160
-192
-222
-192
-186
-156
-152
-138
-151
-168
-172
-204
-208
-214
-200
-176
-165
-167
-152
-183
-187
-201
-223
-212
-186
-184
-166
-153
-164
-173
-188
-209
-212
-204
-197
-194
-161
-150
-161
-170
-194
-213
-225
-205
-199
-176
-158
-158
-168
-166
-183
-220
-221
-203
-185
-176
-137
-158
-179
-181
-199
-212
-201
-224
-189
-157
-161
-156
-159
-177
-193
-214
-206
-206
-196
-157
-164
-154
-152
-161
-209
-218
-213
-189
-202
-168
-157
-147
-160
-177
-202
-207
-204
-201
-191
-172
-146
-157
-168
-176
-199
-216
-220
-195
-160
-173
-149
-165
-162
-179
-204
-211
-209
-200
-188
-172
-158
-154
-155
-187
-202
-209
-206
-197
-191
-164
-147
-149
-153
-185
-215
-214
-225
-192
-191
-159
-155
-159
-179
-184
-207
-212
-197
-204
-193
-166
-156
-141
-167
-190
-192
-229
-224
-194
-182
-160
-150
-149
-166
-186
-211
-213
-200
-197
-181
-168
-146
-157
-171
-194
-206
-209
-198
-174
-164
-168
-163
-168
-167
-188
-210
-194
-204
-193
-173
-155
-156
-151
-167
-191
-207
-203
-204
-188
-170
-171
-146
-153
-170
-200
-189
-207
-208
-185
-167
-154
-145
-158
-172
-185
-196
-185
-195
-187
-163
-136
-128
-157
-170
-187
-202
-205
-198
-168
-165
-142
-136
-143
-148
-174
-197
-178
-180
-164
-144
-163
-142
-148
-179
-177
-165
-197
-198
-164
-158
-147
-158
-165
-162
-192
-209
-201
-176
-176
-165
-142
-143
-151
-174
-206
-209
-197
-185
-160
-140
-148
-161
-157
-175
-202
-203
-210
-203
-167
-168
-146
-152
-151
-170
-208
-206
-202
-192
-184
-158
-145
-153
-157
-188
-190
-198
-189
-188
-184
-146
-143
-132
-150
-140
-155
-169
-154
-133
-82
-75
-85
-92
-103
-135
-180
-183
-198
-192
-195
-174
-168
-187
-204
-226
-235
-249
-240
-209
-189
-166
-180
-161
-175
-186
-217
-206
-209
-183
-168
-137
-147
-157
-143
-192
-188
-194
-193
-174
-166
-150
-151
-156
-164
-175
-205
-207
-182
-172
-154
-135
-134
-146
-161
-184
-201
-202
-188
-176
-157
-130
-151
-153
-153
-185
-193
-174
-185
-172
-147
-130
-134
-147
-156
-175
-188
-182
-174
-155
-125
-122
-124
-136
-154
-171
-175
-168
-180
-144
-114
-114
-108
-117
-142
-157
-169
-144
-158
-139
-98
-86
-100
-109
-114
-138
-149
-139
-120
-110
-98
-91
-88
-99
-95
-116
-141
-131
-128
-106
-78
-81
-102
-105
-123
-145
-163
-155
-139
-134
-126
-115
-113
-122
-140
-167
-171
-162
-166
-155
-116
-127
-135
-139
-166
-193
-179
-185
-165
-121
-145
-140
-144
-156
-173
-215
-203
-178
-179
-153
-150
-133
-144
-160
-178
-202
-183
-181
-177
-151
-138
-144
-143
-163
-184
-181
-180
-186
-179
-147
-142
-125
-161
-138
-168
-197
-188
-194
-175
-148
-130
-129
-164
-168
-159
-200
-195
-188
-175
-150
-143
-142
-151
-154
-177
-187
-196
-174
-174
-150
-141
-142
-151
-172
-174
-197
-187
-168
-178
-154
-150
-148
-148
-168
-188
-199
-175
-220
-183
-140
-145
-140
-156
-160
-181
-200
-204
-187
-186
-166
-141
-148
-158
-178
-194
-191
-199
-191
-165
-149
-142
-132
-160
-169
-188
-213
-202
-196
-183
-147
-143
-155
-168
-168
-199
-185
-195
-190
-173
-148
-149
-162
-158
-169
-208
-217
-204
-188
-170
-157
-151
-156
-163
-189
-201
-200
-189
-190
-187
-148
-140
-162
-159
-171
-216
-206
-196
-184
-162
-160
-156
-151
-169
-196
-176
-207
-202
-181
-141
-164
-152
-155
-154
-189
-202
-203
-191
-189
-157
-135
-133
-155
-156
-162
-186
-202
-173
-176
-163
-138
-142
-156
-153
-179
-198
-191
-191
-190
-143
-144
-153
-171
-159
-187
-212
-201
-181
-193
-150
-146
-158
-164
-165
-190
-214
-202
-192
-178
-158
-167
-153
-166
-176
-197
-201
-207
-202
-185
-164
-164
-148
-149
-187
-211
-203
-208
-209
-171
-156
-145
-162
-161
-187
-187
-190
-203
-211
-194
-162
-163
-141
-160
-172
-166
-174
-188
-166
-131
-110
-74
-91
-88
-135
-176
-183
-190
-186
-184
-166
-195
-199
-225
-233
-230
-248
-238
-237
-206
-194
-184
-174
-170
-201
-225
-212
-185
-186
-189
-173
-159
-154
-175
-198
-215
-204
-213
-207
-173
-147
-142
-151
-154
-200
-238
-193
-192
-210
-177
-156
-147
-161
-157
-189
-201
-210
-203
-171
-160
-150
-139
-176
-203
-169
-213
-208
-175
-186
-165
-146
-149
-159
-166
-186
-188
-202
-190
-181
-162
-157
-144
-155
-161
-169
-190
-198
-185
-180
-152
-124
-141
-135
-147
-173
-192
-194
-167
-140
-128
-109
-112
-123
-133
-160
-165
-163
-152
-142
-116
-114
-102
-113
-122
-131
-160
-161
-160
-134
-111
-106
-106
-126
-133
-163
-177
-176
-170
-164
-141
-132
-127
-135
-148
-182
-194
-193
-186
-165
-156
-141
-143
-161
-175
-184
-216
-206
-189
-167
-158
-144
-162
-173
-185
-198
-197
-210
-198
-179
-167
-165
-158
-165
-183
-203
-218
-210
-213
-185
-155
-159
-165
-178
-201
-216
-217
-204
-171
-167
-191
-160
-159
-178
-186
-205
-198
-191
-196
-181
-172
-156
-168
-162
-186
-202
-220
-214
-178
-179
-172
-154
-156
-173
-184
-195
-219
-192
-194
-178
-145
-154
-169
-172
-204
-209
-209
-204
-192
-174
-163
-156
-165
-179
-198
-208
-223
-201
-192
-179
-163
-181
-156
-166
-197
-213
-220
-209
-195
-168
-161
-155
-177
-194
-205
-210
-217
-214
-197
-180
-176
-175
-163
-186
-194
-222
-217
-212
-198
-163
-145
-166
-171
-202
-215
-211
-217
-209
-189
-194
-160
-165
-157
-185
-222
-217
-214
-199
-197
-167
-166
-173
-183
-194
-213
-222
-228
-219
-189
-176
-168
-152
-176
-196
-226
-219
-218
-210
-174
-174
-159
-159
-178
-197
-213
-222
-199
-200
-184
-154
-150
-171
-161
-173
-211
-206
-216
-195
-181
-159
-160
-171
-175
-182
-212
-214
-214
-204
-179
-169
-170
-164
-175
-207
-221
-223
-207
-217
-199
-153
-147
-195
-187
-202
-215
-215
-220
-222
-177
-164
-153
-183
-196
-212
-213
-212
-214
-205
-173
-168
-171
-168
-190
-210
-224
-214
-220
-208
-185
-161
-174
-170
-182
-202
-218
-226
-209
-201
-181
-158
-147
-147
-156
-181
-170
-135
-125
-129
-118
-115
-121
-137
-160
-190
-229
-227
-218
-216
-204
-205
-212
-220
-241
-247
-257
-244
-237
-214
-197
-179
-171
-176
-199
-238
-217
-220
-208
-205
-175
-183
-172
-185
-187
-220
-224
-214
-213
-199
-169
-176
-162
-181
-187
-215
-210
-211
-213
-188
-172
-174
-177
-176
-182
-219
-219
-224
-201
-183
-189
-162
-180
-184
-192
-213
-210
-210
-184
-168
-173
-169
-171
-180
-199
-207
-211
-203
-215
-187
-152
-157
-162
-161
-186
-189
-198
-192
-190
-162
-144
-145
-132
-149
-179
-189
-179
-177
-177
-152
-122
-117
-125
-141
-153
-162
-157
-152
-181
-123
-112
-108
-127
-139
-146
-170
-178
-161
-160
-136
-113
-104
-132
-150
-177
-181
-193
-177
-184
-146
-130
-140
-157
-158
-191
-200
-200
-197
-187
-141
-166
-184
-171
-157
-214
-240
-217
-201
-187
-180
-175
-168
-173
-176
-207
-211
-221
-220
-216
-180
-175
-168
-177
-175
-228
-223
-204
-217
-197
-169
-178
-191
-172
-202
-206
-223
-219
-223
-200
-167
-162
-177
-177
-187
-223
-231
-228
-219
-182
-177
-154
-160
-178
-198
-213
-213
-220
-215
-177
-153
-172
-170
-180
-200
-226
-224
-224
-207
-187
-168
-163
-179
-176
-197
-224
-230
-232
-196
-187
-188
-171
-174
-180
-198
-224
-225
-217
-211
-198
-173
-169
-177
-185
-214
-226
-224
-217
-205
-194
-170
-161
-181
-216
-207
-222
-236
-226
-206
-195
-162
-158
-164
-187
-222
-213
-254
-233
-222
-184
-165
-179
-187
-186
-210
-233
-228
-215
-220
-195
-175
-168
-178
-208
-237
-238
-222
-208
-208
-197
-166
-182
-187
-197
-221
-224
-232
-232
-213
-195
-175
-178
-169
-194
-227
-222
-241
-225
-206
-186
-175
-164
-173
-204
-216
-233
-223
-219
-206
-190
-178
-164
-179
-197
-227
-240
-220
-208
-178
-185
-168
-174
-183
-181
-209
-204
-215
-216
-186
-184
-158
-157
-189
-193
-227
-225
-222
-208
-188
-173
-168
-175
-186
-214
-237
-227
-219
-214
-197
-180
-179
-183
-198
-200
-228
-236
-236
-210
-184
-177
-177
-175
-179
-214
-223
-235
-243
-226
-192
-176
-172
-189
-190
-214
-237
-231
-239
-223
-182
-180
-169
-178
-203
-213
-225
-247
-250
-212
-188
-173
-166
-174
-171
-175
-187
-192
-173
-139
-116
-103
-98
-115
-127
-180
-194
-225
-231
-229
-198
-178
-216
-215
-247
-282
-268
-248
-264
-254
-201
-205
-200
-194
-201
-219
-246
-242
-229
-213
-190
-190
-170
-175
-199
-225
-220
-225
-229
-216
-189
-188
-165
-171
-191
-232
-234
-234
-222
-211
-180
-170
-173
-183
-197
-213
-235
-227
-215
-209
-179
-179
-169
-191
-208
-210
-231
-232
-219
-202
-181
-155
-154
-195
-206
-210
-222
-213
-211
-185
-174
-160
-179
-174
-189
-223
-251
-193
-188
-179
-163
-127
-144
-167
-173
-197
-219
-187
-170
-143
-131
-135
-125
-128
-154
-169
-178
-172
-172
-129
-119
-115
-125
-133
-152
-163
-165
-149
-149
-131
-119
-125
-134
-139
-154
-174
-184
-171
-178
-150
-119
-122
-147
-169
-175
-202
-218
-188
-183
-166
-163
-159
-165
-185
-204
-212
-221
-206
-207
-190
-184
-176
-162
-183
-197
-232
-229
-219
-211
-181
-169
-158
-187
-192
-211
-227
-226
-215
-210
-178
-183
-167
-172
-180
-212
-227
-234
-227
-203
-188
-176
-172
-187
-198
-218
-218
-229
-221
-201
-179
-168
-165
-169
-193
-207
-226
-242
-226
-187
-168
-176
-173
-182
-196
-214
-232
-219
-209
-205
-178
-171
-179
-178
-206
-212
-217
-216
-238
-201
-178
-170
-175
-178
-211
-236
-229
-210
-201
-211
-170
-176
-182
-190
-201
-219
-233
-211
-212
-197
-173
-180
-191
-197
-208
-220
-231
-211
-220
-199
-175
-177
-179
-177
-213
-225
-240
-215
-211
-190
-181
-168
-174
-183
-234
-229
-233
-226
-203
-204
-166
-160
-172
-186
-208
-245
-225
-220
-208
-190
-186
-188
-186
-184
-204
-229
-238
-226
-218
-195
-182
-173
-148
-192
-224
-215
-230
-210
-211
-193
-190
-190
-203
-184
-201
-229
-225
-223
-231
-192
-173
-169
-157
-180
-220
-243
-235
-224
-218
-178
-166
-166
-188
-189
-227
-239
-220
-200
-205
-177
-163
-158
-177
-187
-198
-216
-222
-208
-193
-158
-179
-181
-175
-184
-218
-227
-231
-199
-204
-181
-170
-176
-178
-208
-226
-227
-233
-239
-201
-190
-157
-181
-196
-217
-224
-230
-225
-223
-208
-169
-188
-181
-192
-215
-229
-229
-244
-229
-206
-195
-196
-180
-171
-213
-227
-235
-241
-199
-191
-186
-188
-190
-200
-209
-216
-237
-239
-218
-196
-177
-172
-177
-182
-194
-204
-203
-192
-159
-128
-81
-84
-98
-117
-138
-163
-205
-210
-207
-189
-193
-201
-216
-235
-264
-272
-278
-261
-252
-237
-209
-198
-206
-213
-222
-235
-234
-222
-211
-194
-193
-183
-182
-213
-232
-226
-228
-218
-199
-182
-169
-169
-191
-188
-213
-225
-232
-216
-218
-200
-177
-190
-178
-195
-215
-226
-214
-210
-210
-189
-174
-172
-173
-186
-216
-221
-213
-211
-219
-184
-149
-166
-184
-193
-211
-228
-203
-196
-187
-160
-167
-148
-173
-156
-192
-233
-212
-200
-172
-171
-152
-146
-151
-169
-192
-190
-188
-160
-167
-151
-123
-117
-117
-149
-176
-175
-155
-153
-139
-108
-103
-111
-116
-144
-157
-167
-149
-160
-126
-108
-108
-140
-140
-142
-162
-171
-172
-146
-160
-115
-135
-126
-138
-169
-190
-202
-181
-186
-166
-150
-135
-160
-159
-186
-206
-216
-217
-180
-170
-168
-165
-187
-170
-194
-207
-227
-215
-193
-182
-165
-161
-191
-189
-185
-209
-226
-210
-218
-188
-211
-182
-159
-166
-209
-222
-211
-214
-212
-194
-153
-167
-167
-177
-222
-245
-229
-209
-201
-164
-150
-162
-177
-189
-196
-203
-209
-209
-188
-161
-186
-198
-169
-186
-196
-207
-210
-202
-193
-173
-160
-163
-188
-201
-218
-197
-201
-201
-193
-175
-170
-175
-177
-176
-214
-232
-221
-202
-184
-159
-161
-185
-172
-177
-213
-237
-215
-238
-209
-174
-159
-173
-175
-178
-214
-229
-218
-197
-199
-172
-163
-172
-189
-203
-209
-218
-222
-226
-209
-166
-171
-165
-174
-192
-206
-227
-228
-213
-176
-175
-158
-172
-197
-201
-229
-218
-217
-199
-196
-180
-159
-184
-185
-208
-226
-231
-213
-197
-189
-155
-154
-177
-164
-199
-240
-239
-228
-204
-190
-179
-155
-165
-190
-202
-207
-232
-224
-178
-182
-166
-178
-179
-196
-202
-244
-219
-206
-196
-170
-165
-168
-172
-182
-206
-210
-203
-217
-231
-171
-150
-168
-158
-194
-210
-229
-218
-208
-195
-173
-154
-149
-172
-168
-185
-218
-211
-191
-184
-161
-141
-157
-170
-180
-207
-212
-203
-198
-179
-154
-156
-162
-209
-177
-200
-213
-210
-207
-186
-158
-168
-163
-174
-192
-222
-228
-214
-207
-196
-164
-164
-168
-166
-194
-208
-221
-217
-203
-195
-184
-170
-154
-166
-197
-214
-214
-227
-213
-169
-161
-165
-176
-188
-193
-224
-228
-225
-212
-183
-150
-175
-177
-183
-185
-203
-203
-189
-177
-167
-128
-90
-117
-118
-112
-153
-187
-170
-171
-177
-162
-193
-197
-198
-229
-239
-255
-253
-224
-218
-218
-217
-196
-184
-229
-225
-232
-221
-208
-190
-159
-147
-176
-184
-217
-201
-200
-197
-203
-183
-158
-148
-170
-186
-197
-225
-221
-203
-186
-173
-167
-155
-151
-178
-205
-210
-211
-215
-203
-161
-162
-149
-163
-184
-213
-195
-218
-204
-184
-164
-160
-140
-160
-170
-204
-208
-223
-223
-181
-138
-142
-148
-136
-156
-196
-204
-194
-195
-178
-143
-140
-148
-152
-171
-185
-192
-182
-174
-161
-131
-104
-114
-111
-152
-186
-190
-165
-167
-138
-114
-103
-121
-114
-125
-172
-158
-153
-144
-149
-129
-99
-95
-120
-142
-167
-168
-171
-150
-139
-138
-115
-121
-140
-161
-180
-186
-170
-192
-148
-146
-154
-142
-145
-186
-205
-194
-190
-209
-172
-151
-142
-168
-172
-203
-209
-216
-193
-193
-177
-169
-155
-159
-169
-195
-199
-220
-207
-188
-163
-160
-157
-181
-181
-203
-201
-218
-202
-184
-169
-152
-159
-164
-165
-220
-209
-200
-192
-209
-185
-158
-153
-168
-173
-199
-201
-207
-197
-197
-198
-159
-163
-177
-170
-210
-192
-199
-210
-212
-174
-146
-146
-158
-195
-216
-222
-205
-188
-186
-165
-156
-166
-179
-184
-184
-218
-215
-205
-183
-181
-160
-175
-180
-178
-206
-215
-200
-221
-205
-170
-160
-177
-160
-192
-194
-202
-212
-203
-188
-177
-156
-166
-178
-196
-214
-223
-219
-228
-180
-157
-151
-178
-210
-216
-214
-223
-228
-215
-183
-165
-153
-165
-186
-205
-214
-221
-215
-191
-184
-172
-160
-157
-156
-198
-210
-225
-227
-224
-182
-183
-166
-170
-192
-190
-210
-222
-197
-209
-170
-159
-161
-169
-169
-203
-211
-231
-219
-195
-165
-180
-157
-172
-176
-197
-224
-221
-205
-205
-186
-174
-163
-171
-192
-190
-217
-225
-223
-208
-179
-168
-166
-170
-183
-206
-229
-240
-224
-214
-188
-176
-176
-183
-194
-203
-205
-221
-245
-225
-182
-150
-170
-175
-169
-219
-239
-238
-208
-195
-194
-172
-170
-162
-184
-236
-240
-212
-204
-214
-185
-181
-150
-168
-171
-189
-175
-178
-168
-151
-145
-142
-138
-178
-205
-214
-235
-246
-247
-226
-235
-229
-203
-234
-238
-247
-255
-265
-235
-215
-175
-173
-200
-176
-209
-236
-225
-221
-212
-198
-191
-186
-177
-181
-183
-215
-233
-264
-211
-188
-193
-153
-185
-203
-207
-228
-221
-233
-208
-197
-184
-182
-185
-194
-200
-226
-214
-224
-213
-179
-176
-168
-174
-180
-211
-233
-224
-218
-207
-184
-175
-180
-159
-189
-202
-214
-221
-207
-206
-163
-158
-176
-171
-155
-205
-211
-222
-206
-194
-196
-160
-147
-154
-168
-190
-178
-204
-207
-181
-154
-127
-144
-147
-133
-176
-188
-210
-183
-165
-143
-120
-124
-160
-154
-157
-182
-208
-185
-173
-138
-137
-142
-159
-154
-189
-215
-196
-179
-167
-155
-154
-154
-166
-192
-203
-209
-194
-224
-220
-182
-177
-191
-184
-181
-212
-220
-218
-205
-213
-203
-151
-172
-182
-213
-240
-245
-234
-229
-212
-187
-173
-193
-195
-200
-219
-227
-244
-224
-214
-180
-161
-186
-198
-200
-246
-249
-228
-213
-195
-185
-164
-169
-201
-221
-219
-225
-201
-227
-200
-201
-172
-213
-191
-208
-231
-210
-208
-220
-179
-205
-182
-183
-198
-222
-226
-245
-225
-206
-195
-165
-175
-190
-198
-215
-233
-220
-225
-217
-205
-187
-171
-182
-208
-216
-231
-240
-217
-228
-199
-174
-161
-211
-217
-209
-242
-246
-230
-185
-180
-169
-175
-171
-192
-208
-246
-236
-215
-216
-195
-157
-161
-169
-213
-262
-283
-237
-209
-215
-190
-183
-189
-183
-201
-226
-210
-236
-224
-223
-189
-175
-181
-185
-202
-218
-229
-231
-244
-230
-183
-163
-182
-178
-174
-205
-244
-224
-224
-207
-168
-147
-165
-188
-185
-209
-230
-234
-227
-198
-192
-202
-178
-180
-201
-237
-235
-230
-216
-199
-187
-180
-180
-199
-200
-231
-234
-217
-199
-228
-225
-178
-181
-191
-199
-236
-245
-235
-210
-200
-178
-198
-186
-193
-214
-232
-239
-224
-217
-209
-197
-185
-174
-189
-209
-221
-242
-235
-206
-203
-173
-171
-185
-199
-216
-212
-231
-217
-205
-168
-126
-127
-135
-120
-178
-193
-197
-196
-204
-181
-186
-180
-180
-211
-249
-250
-287
-267
-252
-210
-216
-204
-188
-208
-239
-244
-243
-254
-218
-177
-165
-191
-191
-204
-212
-227
-225
-211
-214
-191
-173
-170
-193
-203
-225
-218
-209
-215
-218
-189
-181
-192
-152
-207
-230
-220
-237
-237
-222
-165
-156
-150
-202
-192
-194
-222
-232
-207
-206
-187
-155
-180
-165
-180
-210
-221
-217
-206
-208
-168
-160
-150
-186
-199
-208
-226
-215
-209
-192
-152
-124
-150
-160
-190
-204
-214
-202
-195
-179
-150
-140
-149
-175
-149
-155
-206
-165
-154
-148
-136
-129
-142
-137
-152
-173
-167
-170
-168
-169
-128
-124
-135
-163
-154
-193
-194
-180
-174
-137
-147
-143
-153
-142
-158
-208
-201
-213
-189
-174
-149
-147
-169
-157
-179
-215
-219
-208
-200
-156
-175
-186
-188
-178
-191
-213
-214
-223
-183
-169
-172
-146
-173
-177
-216
-206
-223
-202
-202
-170
-159
-173
-186
-189
-191
-222
-245
-202
-194
-189
-173
-160
-153
-177
-203
-212
-219
-209
-195
-179
-157
-169
-172
-168
-189
-196
-226
-201
-197
-179
-158
-164
-179
-188
-198
-224
-211
-199
-177
-181
-158
-172
-180
-192
-208
-231
-214
-207
-190
-214
-180
-163
-147
-162
-194
-210
-231
-200
-189
-162
-148
-167
-167
-213
-221
-216
-220
-204
-179
-165
-154
-167
-181
-212
-208
-214
-218
-213
-201
-147
-159
-190
-201
-219
-185
-217
-228
-185
-191
-177
-144
-172
-186
-210
-223
-217
-192
-200
-190
-178
-179
-163
-189
-227
-212
-226
-230
-196
-186
-179
-162
-176
-176
-189
-211
-210
-214
-219
-206
-160
-158
-175
-179
-199
-215
-212
-219
-201
-194
-192
-168
-172
-176
-224
-231
-206
-202
-200
-185
-182
-164
-179
-168
-212
-226
-209
-211
-185
-185
-151
-166
-168
-190
-197
-237
-215
-212
-185
-174
-151
-141
-167
-156
-201
-235
-216
-197
-192
-157
-150
-175
-176
-188
-210
-224
-212
-201
-196
-169
-175
-170
-190
-178
-192
-232
-224
-207
-195
-187
-169
-171
-182
-210
-219
-194
-212
-217
-192
-163
-172
-180
-191
-218
-227
-219
-209
-206
-187
-159
-158
-174
-190
-192
-185
-244
-237
-217
-222
-173
-170
-176
-180
-192
-217
-222
-215
-207
-192
-185
-181
-190
-181
-184
-192
-222
-178
-181
-143
-108
-106
-84
-116
-148
-156
-159
-188
-178
-161
-174
-208
-182
-188
-226
-264
-272
-268
-243
-211
-197
-183
-172
-206
-230
-224
-248
-220
-223
-194
-171
-148
-152
-197
-211
-218
-232
-233
-197
-181
-175
-150
-166
-195
-208
-219
-217
-213
-216
-182
-167
-177
-187
-185
-200
-198
-210
-202
-218
-205
-167
-176
-172
-174
-201
-234
-215
-219
-212
-197
-165
-146
-148
-197
-222
-212
-227
-198
-168
-167
-178
-171
-178
-188
-203
-197
-214
-208
-178
-161
-136
-149
-178
-169
-202
-208
-187
-187
-192
-146
-130
-122
-137
-158
-184
-189
-169
-155
-140
-115
-111
-170
-144
-139
-181
-177
-164
-171
-144
-130
-122
-118
-126
-148
-172
-194
-141
-160
-166
-164
-126
-131
-149
-159
-187
-194
-209
-194
-175
-162
-130
-152
-175
-180
-192
-206
-208
-209
-187
-172
-164
-180
-172
-219
-226
-217
-198
-193
-190
-182
-164
-183
-205
-203
-209
-212
-209
-205
-189
-169
-165
-165
-192
-224
-221
-218
-203
-197
-169
-157
-171
-176
-191
-208
-215
-223
-201
-207
-184
-166
-174
-166
-175
-218
-230
-213
-199
-189
-169
-157
-167
-167
-182
-205
-227
-212
-189
-205
-183
-170
-165
-174
-168
-210
-226
-206
-211
-204
-187
-161
-182
-167
-160
-208
-229
-225
-197
-191
-190
-182
-179
-172
-188
-207
-223
-222
-194
-187
-176
-152
-161
-173
-195
-225
-227
-205
-215
-202
-178
-152
-165
-192
-199
-208
-218
-224
-189
-201
-181
-168
-177
-183
-192
-196
-224
-220
-212
-177
-166
-150
-169
-196
-196
-214
-222
-223
-206
-192
-179
-180
-173
-192
-200
-215
-226
-221
-210
-181
-176
-164
-179
-179
-193
-194
-229
-210
-205
-193
-187
-167
-171
-187
-207
-211
-207
-202
-210
-193
-162
-165
-186
-178
-197
-235
-233
-207
-198
-181
-152
-155
-148
-189
-202
-220
-222
-205
-204
-172
-143
-147
-170
-169
-197
-209
-219
-206
-192
-173
-140
-165
-150
-191
-188
-198
-237
-205
-191
-184
-160
-165
-182
-167
-203
-225
-244
-210
-197
-168
-165
-179
-174
-174
-204
-214
-228
-200
-192
-187
-164
-191
-155
-177
-212
-226
-221
-210
-196
-174
-163
-154
-173
-194
-208
-213
-239
-206
-189
-190
-174
-162
-169
-194
-221
-209
-204
-196
-210
-191
-159
-173
-165
-182
-185
-228
-213
-199
-146
-125
-112
-95
-104
-117
-130
-148
-168
-168
-141
-158
-183
-186
-186
-217
-237
-247
-252
-224
-209
-203
-192
-211
-208
-237
-232
-226
-198
-208
-179
-171
-153
-163
-179
-196
-212
-214
-223
-203
-174
-177
-176
-147
-144
-221
-215
-230
-195
-201
-178
-168
-156
-168
-174
-197
-203
-222
-197
-194
-170
-142
-172
-183
-176
-181
-205
-207
-182
-177
-164
-158
-156
-157
-165
-193
-207
-208
-195
-161
-179
-170
-130
-154
-165
-176
-200
-207
-196
-175
-151
-139
-149
-152
-136
-169
-184
-184
-178
-166
-130
-119
-117
-122
-142
-158
-154
-165
-162
-137
-125
-105
-104
-115
-111
-129
-158
-152
-123
-122
-117
-81
-97
-133
-129
-152
-162
-165
-151
-130
-115
-100
-110
-110
-144
-162
-175
-178
-159
-144
-130
-125
-124
-133
-170
-172
-204
-179
-180
-185
-147
-125
-135
-145
-176
-197
-201
-211
-175
-148
-169
-140
-159
-167
-181
-183
-196
-205
-190
-178
-180
-152
-148
-163
-196
-160
-179
-213
-192
-169
-143
-135
-153
-157
-192
-207
-193
-181
-197
-167
-148
-133
-149
-161
-177
-199
-199
-173
-190
-169
-134
-153
-163
-160
-191
-200
-195
-182
-171
-157
-163
-151
-143
-142
-164
-193
-206
-185
-175
-171
-148
-146
-140
-159
-171
-206
-186
-179
-176
-174
-138
-145
-150
-167
-161
-214
-209
-195
-189
-158
-144
-141
-172
-161
-194
-194
-201
-167
-195
-158
-135
-137
-151
-160
-178
-207
-203
-192
-174
-141
-143
-172
-179
-158
-190
-196
-182
-190
-168
-149
-141
-148
-163
-171
-192
-199
-202
-188
-168
-140
-151
-154
-168
-165
-196
-188
-185
-176
-170
-159
-143
-145
-159
-169
-186
-211
-185
-168
-185
-148
-145
-168
-153
-178
-188
-204
-190
-179
-164
-148
-145
-159
-151
-168
-190
-198
-196
-172
-161
-152
-129
-155
-160
-159
-203
-209
-208
-184
-155
-144
-166
-136
-160
-178
-183
-203
-184
-185
-162
-125
-153
-152
-155
-170
-192
-206
-208
-184
-148
-133
-134
-145
-154
-176
-205
-190
-187
-170
-160
-128
-177
-155
-159
-172
-194
-198
-182
-181
-147
-141
-138
-144
-156
-187
-170
-195
-177
-177
-160
-153
-133
-136
-151
-178
-204
-190
-185
-172
-162
-133
-123
-143
-158
-170
-182
-193
-165
-162
-132
-130
-129
-136
-151
-176
-184
-169
-181
-159
-150
-128
-143
-155
-164
-172
-191
-176
-184
-147
-123
-112
-164
-176
-143
-193
-198
-202
-170
-151
-154
-131
-145
-156
-170
-191
-196
-178
-181
-172
-125
-124
-118
-154
-176
-200
-190
-188
-181
-164
-139
-127
-140
-141
-155
-186
-187
-188
-181
-176
-150
-141
-135
-164
-179
-177
-170
-173
-159
-144
-93
-84
-95
-106
-117
-103
-102
-95
-103
-112
-108
-114
-131
-140
-177
-200
-211
-204
-200
-180
-195
-173
-169
-191
-218
-205
-213
-202
-190
-166
-148
-134
-128
-149
-171
-193
-182
-178
-171
-149
-134
-139
-147
-151
-154
-184
-196
-179
-171
-139
-117
-130
-147
-136
-168
-192
-167
-161
-177
-129
-140
-153
-146
-155
-172
-180
-182
-170
-166
-141
-116
-124
-133
-152
-149
-165
-180
-166
-164
-134
-112
-120
-131
-134
-164
-176
-172
-149
-142
-139
-121
-133
-143
-123
-158
-144
-158
-151
-132
-107
-103
-95
-116
-116
-139
-144
-122
-130
-106
-110
-70
-84
-91
-85
-114
-142
-132
-120
-78
-61
-56
-75
-86
-105
-113
-112
-132
-125
-94
-94
-71
-82
-88
-116
-123
-153
-124
-136
-103
-91
-98
-94
-113
-137
-148
-153
-141
-140
-138
-96
-110
-120
-123
-153
-177
-178
-160
-155
-128
-111
-133
-136
-151
-168
-159
-158
-157
-176
-140
-125
-116
-133
-144
-159
-162
-183
-157
-152
-141
-132
-121
-122
-142
-177
-177
-163
-155
-159
-138
-130
-114
-132
-137
-166
-185
-170
-150
-190
-155
-93
-116
-134
-135
-144
-165
-171
-180
-158
-130
-108
-110
-140
-145
-159
-176
-168
-169
-150
-127
-121
-107
-137
-151
-166
-185
-176
-151
-151
-132
-116
-129
-109
-148
-177
-179
-172
-165
-151
-143
-128
-133
-134
-148
-173
-177
-173
-172
-148
-127
-126
-123
-121
-143
-174
-172
-166
-175
-165
-124
-101
-126
-132
-164
-174
-179
-175
-166
-153
-123
-120
-129
-147
-141
-158
-183
-188
-171
-151
-132
-122
-131
-160
-166
-161
-160
-163
-149
-142
-131
-135
-136
-145
-164
-176
-190
-170
-166
-143
-138
-122
-134
-131
-156
-181
-172
-185
-177
-134
-135
-109
-143
-145
-153
-189
-184
-157
-159
-141
-121
-119
-128
-134
-146
-170
-181
-174
-171
-129
-131
-124
-115
-149
-163
-176
-159
-162
-141
-132
-125
-105
-123
-120
-149
-166
-174
-171
-146
-113
-138
-111
-123
-116
-164
-170
-153
-160
-157
-134
-132
-146
-131
-142
-183
-180
-176
-172
-177
-141
-133
-126
-127
-138
-162
-177
-179
-184
-156
-143
-129
-139
-121
-138
-188
-191
-183
-169
-158
-134
-129
-123
-138
-140
-180
-180
-163
-165
-179
-149
-135
-153
-158
-163
-175
-173
-177
-143
-134
-112
-87
-103
-111
-107
-82
-109
-113
-80
-81
-60
-90
-107
-132
-147
-185
-200
-210
-214
-193
-175
-159
-169
-181
-200
-228
-211
-187
-172
-168
-160
-128
-113
-146
-152
-186
-178
-186
-172
-138
-141
-126
-133
-136
-159
-195
-165
-157
-175
-138
-125
-119
-120
-132
-163
-179
-197
-171
-157
-130
-126
-117
-148
-143
-149
-181
-172
-147
-151
-141
-128
-113
-127
-125
-170
-174
-171
-155
-139
-138
-103
-119
-123
-121
-144
-166
-162
-145
-148
-130
-119
-101
-114
-109
-149
-162
-147
-148
-148
-107
-76
-88
-101
-112
-132
-141
-119
-116
-107
-97
-65
-60
-76
-100
-107
-122
-111
-81
-106
-78
-52
-75
-68
-80
-103
-118
-117
-110
-80
-72
-63
-68
-86
-87
-112
-146
-131
-122
-114
-98
-102
-95
-104
-131
-145
-165
-148
-126
-122
-121
-87
-106
-115
-123
-164
-183
-162
-153
-127
-122
-119
-127
-141
-137
-166
-169
-162
-158
-133
-129
-104
-112
-136
-148
-176
-171
-170
-182
-140
-118
-113
-131
-121
-156
-161
-170
-163
-155
-134
-128
-111
-120
-143
-142
-165
-175
-168
-162
-121
-131
-113
-117
-128
-145
-160
-174
-167
-153
-128
-127
-120
-132
-132
-144
-170
-153
-168
-165
-124
-120
-106
-123
-128
-146
-161
-175
-167
-144
-125
-116
-122
-128
-119
-163
-168
-189
-170
-160
-127
-102
-121
-103
-142
-165
-170
-168
-156
-149
-140
-108
-119
-132
-139
-168
-202
-165
-149
-166
-132
-133
-108
-119
-137
-171
-172
-159
-144
-136
-131
-117
-123
-140
-147
-167
-194
-198
-164
-120
-125
-123
-133
-128
-141
-167
-166
-169
-150
-154
-133
-120
-115
-129
-149
-171
-197
-186
-153
-130
-131
-124
-135
-111
-116
-170
-187
-175
-159
-148
-117
-109
-128
-117
-140
-185
-193
-162
-160
-138
-116
-108
-134
-100
-147
-145
-156
-171
-146
-115
-108
-112
-124
-137
-143
-150
-177
-131
-137
-112
-123
-123
-124
-124
-153
-168
-186
-160
-149
-140
-113
-123
-122
-140
-166
-180
-181
-170
-143
-131
-113
-112
-141
-134
-159
-173
-160
-174
-169
-131
-119
-98
-127
-144
-162
-166
-186
-158
-127
-135
-133
-117
-132
-146
-170
-174
-179
-149
-144
-131
-110
-110
-122
-138
-167
-169
-165
-162
-115
-123
-92
-89
-74
-89
-85
-98
-103
-119
-101
-89
-114
-119
-126
-165
-166
-190
-243
-202
-196
-188
-153
-151
-160
-181
-197
-199
-193
-177
-154
-120
-112
-111
-138
-149
-161
-175
-164
-157
-157
-130
-109
-120
-126
-156
-171
-168
-169
-161
-142
-105
-115
-118
-127
-135
-158
-173
-162
-155
-138
-128
-114
-130
-144
-162
-161
-166
-172
-153
-143
-105
-125
-117
-105
-139
-169
-177
-171
-145
-137
-121
-106
-104
-122
-148
-157
-147
-158
-141
-129
-106
-103
-111
-118
-126
-143
-155
-145
-144
-104
-94
-102
-97
-83
-121
-133
-141
-128
-115
-88
-69
-70
-67
-76
-110
-114
-132
-105
-110
-87
-56
-70
-81
-79
-114
-146
-130
-117
-94
-76
-92
-84
-85
-89
-111
-139
-142
-138
-132
-117
-94
-84
-98
-121
-138
-169
-165
-158
-130
-116
-107
-115
-117
-127
-140
-173
-167
-158
-154
-106
-103
-110
-118
-148
-170
-183
-156
-152
-161
-131
-112
-125
-138
-154
-163
-177
-151
-161
-133
-139
-110
-107
-136
-140
-166
-178
-188
-164
-128
-100
-114
-115
-137
-134
-162
-167
-162
-165
-154
-103
-93
-114
-144
-141
-160
-168
-154
-155
-146
-114
-105
-123
-133
-149
-156
-166
-165
-136
-143
-135
-99
-131
-122
-147
-177
-177
-163
-148
-139
-119
-115
-116
-124
-158
-186
-177
-161
-150
-138
-112
-107
-125
