-54
-60
-61
-47
-48
-51
-61
-45
-55
-42
-52
-57
-55
-49
-53
-53
-49
-50
-47
-44
-48
-52
-48
-36
-39
-50
-49
-54
-60
-54
-54
-56
-55
-68
-64
-45
-45
-50
-60
-54
-55
-40
-42
-41
-52
-50
-42
-43
-53
-46
-52
-54
-55
-65
-62
-52
-52
-49
-48
-48
-47
-36
-43
-49
-50
-43
-43
-52
-49
-47
-53
-61
-50
-50
-54
-48
-67
-46
-35
-57
-47
-49
-55
-59
-56
-53
-59
-51
-44
-42
-49
-51
-51
-51
-42
-61
-68
-68
-52
-48
-57
-60
-50
-52
-53
-51
-55
-56
-52
-45
-63
-55
-53
-51
-48
-52
-57
-50
-56
-54
-57
-47
-57
-65
-46
-50
-58
-56
-59
-65
-54
-60
-61
-52
-54
-58
-57
-55
-51
-50
-46
-57
-47
-53
-52
-55
-59
-69
-55
-63
-60
-48
-48
-43
-47
-67
-59
-62
-54
-62
-64
-52
-45
-43
-52
-59
-44
-54
-57
-60
-52
-58
-60
-55
-52
-63
-67
-60
-52
-45
-45
-52
-58
-59
-55
-51
-56
-55
-55
-60
-59
-54
-51
-57
-44
-49
-51
-52
-56
-53
-49
-47
-52
-46
-47
-42
-31
-38
-39
-39
-35
-35
-42
-42
-35
-36
-37
-25
-26
-35
-35
-37
-30
-38
-48
-41
-35
-47
-42
-51
-59
-58
-49
-50
-58
-60
-56
-67
-63
-63
-63
-76
-65
-58
-47
-59
-58
-41
-55
-68
-75
-58
-61
-61
-65
-63
-65
-74
-65
-72
-73
-68
-63
-51
-30
-13
-5
14
39
34
33
36
30
15
11
-7
-21
-45
-78
-83
-94
-104
-109
-98
-102
-108
-105
-96
-84
-90
-73
-70
-66
-73
-55
-74
-68
-60
-53
-59
-64
-61
-44
-61
-72
-62
-64
-64
-63
-58
-59
-50
-49
-56
-59
-60
-59
-62
-65
-57
-52
-55
-48
-57
-53
-63
-57
-58
-53
-48
-50
-50
-54
-50
-55
-65
-55
-56
-48
-55
-60
-52
-45
-42
-53
-43
-56
-50
-54
-58
-52
-49
-57
-53
-45
-40
-49
-45
-47
-45
-43
-53
-45
-36
-42
-40
-42
-36
-40
-31
-29
-37
-27
-26
-37
-42
-35
-36
-36
-29
-21
-27
-14
-19
-31
-32
-19
-12
-21
-18
-17
-11
-14
-21
-18
-9
-10
-14
-9
-2
-14
-9
8
11
10
2
-1
3
-4
-6
-8
-6
-5
-5
-5
-12
-12
-9
5
-12
-19
-23
-25
-13
-24
-28
-37
-38
-38
-35
-36
-40
-44
-43
-45
-42
-47
-52
-52
-51
-57
-55
-37
-46
-61
-52
-54
-58
-57
-53
-56
-58
-63
-57
-57
-70
-66
-62
-58
-48
-51
-65
-73
-65
-59
-67
-56
-58
-68
-61
-66
-59
-51
-57
-66
-61
-73
-71
-62
-56
-51
-52
-62
-61
-60
-60
-61
-64
-61
-59
-54
-57
-65
-67
-68
-64
-63
-58
-66
-57
-52
-49
-48
-63
-64
-62
-65
-64
-63
-65
-67
-55
-56
-56
-59
-58
-55
-57
-49
-52
-54
-57
-63
-68
-67
-59
-53
-57
-59
-55
-60
-61
-66
-56
-58
-62
-68
-62
-72
-68
-65
-59
-55
-59
-62
-62
-61
-73
-51
-49
-58
-63
-68
-58
-56
-54
-59
-59
-63
-64
-56
-56
-55
-61
-59
-60
-71
-65
-63
-60
-57
-60
-70
-62
-66
-58
-56
-51
-66
-57
-65
-64
-62
-63
-57
-56
-57
-58
-61
-57
-62
-63
-65
-66
-69
-65
-67
-63
-56
-63
-45
-54
-68
-65
-65
-62
-65
-57
-52
-63
-56
-63
-58
-65
-66
-68
-67
-58
-61
-53
-59
-60
-54
-56
-64
-59
-55
-56
-60
-73
-61
-58
-59
-52
-62
-60
-57
-69
-68
-59
-55
-57
-66
-62
-61
-69
-58
-65
-60
-54
-57
-59
-58
-58
-58
-53
-55
-47
-50
-52
-46
-55
-61
-58
-47
-51
-47
-58
-43
-34
-34
-37
-37
-34
-34
-35
-32
-32
-42
-39
-31
-40
-47
-54
-53
-53
-51
-53
-56
-49
-58
-62
-69
-52
-53
-70
-70
-56
-58
-64
-65
-60
-58
-64
-70
-67
-58
-67
-70
-55
-62
-58
-63
-64
-70
-71
-67
-74
-70
-73
-68
-58
-56
-41
-33
-5
9
34
43
40
25
18
15
5
-17
-31
-52
-79
-89
-94
-108
-107
-105
-108
-106
-107
-100
-101
-102
-81
-86
-78
-66
-74
-68
-55
-54
-62
-65
-64
-70
-63
-68
-62
-60
-68
-63
-61
-67
-60
-63
-58
-58
-64
-64
-64
-56
-54
-62
-63
-60
-59
-62
-58
-53
-59
-53
-59
-62
-60
-58
-53
-54
-63
-56
-56
-47
-44
-57
-53
-50
-62
-74
-57
-60
-60
-46
-39
-47
-49
-57
-57
-59
-47
-46
-38
-40
-58
-54
-42
-48
-46
-55
-42
-36
-39
-32
-46
-52
-37
-31
-38
-35
-29
-31
-38
-41
-38
-30
-24
-29
-20
-20
-24
-27
-16
-17
-22
-7
-26
-30
-19
-12
-14
-15
-11
-12
-7
-2
-2
-2
-1
-7
-2
-9
-2
-9
-2
-4
-10
-1
0
-4
-9
-11
-6
-8
-11
-14
-11
-20
-26
-26
-29
-31
-30
-30
-29
-38
-43
-34
-51
-43
-47
-53
-53
-58
-57
-55
-41
-54
-69
-73
-63
-64
-57
-66
-61
-60
-62
-63
-62
-49
-54
-59
-60
-67
-66
-60
-67
-66
-66
-65
-65
-70
-56
-50
-53
-70
-64
-62
-70
-74
-74
-71
-63
-63
-58
-69
-63
-67
-60
-67
-65
-62
-61
-61
-56
-61
-66
-65
-66
-61
-55
-66
-63
-56
-63
-68
-67
-60
-64
-61
-60
-70
-62
-53
-55
-65
-71
-53
-58
-62
-70
-65
-57
-57
-60
-71
-72
-54
-55
-60
-72
-62
-57
-65
-68
-58
-69
-70
-57
-55
-58
-62
-58
-65
-71
-57
-64
-63
-65
-61
-67
-64
-59
-58
-61
-67
-60
-63
-58
-67
-71
-67
-57
-67
-70
-69
-60
-66
-56
-62
-61
-61
-69
-65
-69
-60
-60
-69
-70
-70
-69
-68
-64
-57
-62
-66
-65
-66
-64
-67
-68
-74
-61
-60
-59
-63
-64
-59
-63
-66
-69
-65
-63
-59
-68
-69
-60
-55
-68
-77
-73
-61
-60
-69
-65
-60
-64
-60
-66
-68
-59
-63
-69
-73
-69
-64
-54
-60
-68
-63
-63
-60
-62
-65
-63
-61
-59
-58
-61
-69
-62
-59
-68
-71
-65
-70
-65
-60
-74
-72
-61
-61
-67
-71
-66
-63
-65
-68
-75
-77
-52
-51
-57
-71
-71
-64
-62
-65
-64
-64
-70
-68
-64
-59
-53
-65
-76
-75
-69
-70
-70
-66
-61
-55
-49
-52
-56
-66
-59
-60
-67
-60
-58
-64
-53
-59
-56
-55
-48
-41
-36
-49
-47
-33
-45
-57
-56
-35
-41
-56
-51
-41
-39
-40
-40
-47
-49
-51
-52
-62
-57
-57
-55
-70
-66
-65
-66
-68
-67
-68
-71
-71
-73
-71
-65
-65
-68
-65
-76
-64
-55
-66
-75
-65
-65
-69
-74
-74
-79
-70
-70
-72
-80
-70
-52
-32
-19
-5
1
37
47
29
17
15
11
-9
-38
-50
-74
-89
-98
-101
-112
-116
-114
-114
-110
-107
-107
-101
-97
-90
-85
-82
-74
-67
-70
-65
-71
-69
-72
-63
-54
-69
-72
-73
-68
-60
-65
-70
-65
-65
-69
-64
-68
-62
-60
-64
-73
-72
-70
-67
-62
-56
-55
-59
-63
-68
-56
-60
-68
-61
-65
-57
-62
-52
-58
-63
-63
-61
-53
-55
-47
-52
-60
-60
-59
-58
-49
-58
-58
-54
-52
-53
-52
-57
-59
-60
-61
-54
-51
-54
-49
-43
-41
-51
-58
-53
-46
-43
-34
-28
-44
-45
-43
-43
-40
-39
-32
-40
-36
-33
-31
-35
-35
-30
-18
-26
-27
-17
-20
-27
-15
-21
-15
-16
-20
-23
-25
-14
-4
-3
-10
-13
-16
-15
-24
-19
-9
-5
-5
-5
-6
3
-1
-13
-15
-19
-16
-16
-22
-25
-27
-31
-29
-33
-37
-39
-37
-50
-51
-47
-45
-40
-50
-56
-62
-60
-57
-51
-57
-53
-62
-61
-64
-71
-66
-59
-70
-77
-70
-53
-61
-66
-71
-69
-73
-72
-67
-68
-62
-67
-64
-73
-73
-71
-74
-66
-61
-65
-74
-62
-61
-66
-76
-90
-73
-69
-60
-69
-67
-55
-64
-63
-63
-74
-70
-69
-70
-61
-66
-72
-63
-65
-74
-73
-63
-65
-62
-65
-67
-63
-56
-71
-69
-62
-73
-70
-65
-64
-62
-64
-65
-65
-63
-61
-72
-68
-64
-64
-60
-63
-72
-68
-65
-70
-72
-72
-52
-52
-67
-65
-61
-65
-70
-68
-71
-60
-55
-68
-64
-73
-69
-66
-63
-66
-68
-72
-71
-66
-67
-68
-77
-77
-58
-74
-73
-62
-66
-73
-73
-74
-72
-63
-60
-70
-67
-62
-66
-64
-56
-55
-69
-72
-64
-56
-78
-83
-64
-66
-62
-66
-59
-73
-64
-65
-68
-69
-61
-60
-74
-73
-61
-68
-68
-63
-70
-72
-71
-67
-62
-67
-64
-69
-76
-72
-70
-66
-78
-70
-71
-72
-60
-62
-74
-71
-76
-65
-63
-67
-70
-72
-63
-70
-69
-73
-71
-77
-62
-67
-69
-65
-68
-78
-69
-62
-66
-60
-57
-65
-64
-65
-73
-79
-81
-67
-68
-70
-66
-64
-70
-67
-62
-75
-73
-76
-65
-74
-66
-67
-67
-61
-66
-72
-80
-77
-64
-63
-68
-68
-67
-66
-60
-65
-71
-77
-68
-67
-69
-72
-66
-79
-65
-55
-59
-61
-72
-65
-66
-67
-51
-54
-60
-62
-61
-55
-59
-55
-51
-47
-57
-58
-46
-41
-45
-43
-50
-43
-44
-42
-50
-45
-57
-55
-43
-54
-54
-54
-48
-57
-73
-73
-69
-76
-65
-68
-72
-63
-73
-74
-69
-76
-74
-74
-74
-69
-60
-62
-69
-74
-78
-80
-74
-69
-81
-83
-73
-63
-70
-71
-74
-76
-76
-71
-44
-26
-8
22
35
32
32
26
10
4
-14
-35
-50
-66
-79
-93
-107
-118
-119
-115
-119
-114
-116
-102
-94
-95
-93
-87
-83
-68
-62
-71
-73
-76
-81
-81
-70
-73
-80
-73
-71
-70
-66
-60
-65
-66
-67
-66
-71
-57
-72
-73
-72
-70
-65
-57
-60
-69
-65
-60
-68
-76
-71
-64
-62
-63
-55
-68
-72
-75
-70
-72
-64
-64
-68
-64
-63
-55
-49
-69
-67
-67
-53
-68
-61
-52
-61
-65
-58
-57
-69
-56
-56
-56
-51
-47
-48
-51
-57
-50
-49
-50
-53
-49
-48
-46
-49
-56
-48
-40
-41
-47
-40
-42
-46
-41
-41
-47
-42
-34
-28
-37
-31
-23
-23
-31
-28
-30
-24
-13
-19
-21
-25
-33
-27
-15
-7
-27
-28
-7
-15
-17
-10
-12
-20
-17
-16
-16
-18
-3
-14
-14
-18
-18
-17
-20
-20
-24
-29
-36
-38
-32
-37
-47
-44
-46
-48
-51
-46
-48
-60
-57
-59
-62
-59
-60
-57
-66
-65
-64
-75
-69
-66
-61
-71
-67
-70
-75
-67
-64
-67
-67
-72
-71
-65
-68
-74
-76
-64
-64
-70
-67
-70
-71
-65
-66
-71
-77
-73
-74
-70
-66
-71
-77
-67
-69
-67
-67
-70
-78
-72
-68
-66
-64
-65
-71
-70
-83
-78
-63
-73
-72
-63
-72
-73
-71
-66
-71
-72
-70
-64
-71
-73
-67
-63
-68
-63
-66
-68
-65
-70
-72
-68
-62
-62
-67
-67
-71
-71
-80
-71
-66
-63
-72
-76
-73
-64
-61
-62
-70
-70
-67
-74
-80
-65
-67
-76
-65
-70
-74
-63
-58
-76
-80
-70
-72
-69
-67
-72
-65
-70
-73
-74
-64
-65
-77
-67
-71
-69
-75
-68
-74
-74
-63
-69
-73
-71
-67
-70
-67
-67
-79
-68
-66
-65
-64
-76
-76
-72
-71
-76
-70
-69
-80
-70
-74
-69
-70
-69
-64
-71
-63
-72
-77
-79
-70
-70
-72
-69
-68
-66
-63
-70
-73
-73
-64
-69
-74
-74
-77
-80
-83
-73
-66
-60
-59
-73
-86
-81
-70
-74
-67
-68
-69
-68
-69
-80
-73
-69
-67
-73
-73
-71
-74
-69
-63
-60
-69
-83
-73
-72
-69
-72
-52
-63
-70
-76
-80
-78
-73
-73
-76
-76
-74
-60
-61
-69
-72
-72
-71
-69
-67
-69
-68
-77
-77
-71
-68
-72
-70
-65
-71
-70
-74
-69
-71
-65
-65
-64
-65
-74
-76
-65
-64
-63
-75
-72
-65
-72
-68
-66
-62
-57
-58
-66
-65
-68
-63
-60
-56
-56
-53
-49
-48
-49
-46
-39
-52
-56
-56
-52
-49
-45
-42
-50
-53
-51
-58
-55
-58
-63
-68
-55
-62
-60
-61
-60
-70
-79
-73
-70
-67
-66
-70
-75
-78
-73
-76
-79
-75
-74
-69
-62
-64
-68
-70
-73
-78
-80
-67
-78
-88
-82
-77
-76
-65
-57
-43
-29
-3
14
22
25
19
16
11
-1
-7
-31
-47
-69
-85
-99
-106
-106
-116
-113
-121
-121
-106
-100
-94
-87
-90
-89
-88
-69
-63
-71
-69
-66
-78
-73
-74
-76
-76
-76
-82
-66
-60
-63
-74
-73
-68
-73
-75
-66
-78
-70
-70
-72
-67
-66
-65
-65
-65
-64
-67
-67
-67
-67
-67
-57
-62
-65
-67
-69
-66
-63
-65
-59
-67
-64
-55
-53
-63
-76
-58
-55
-59
-64
-56
-57
-65
-63
-64
-58
-61
-51
-58
-54
-42
-49
-52
-53
-53
-53
-49
-51
-60
-67
-54
-45
-45
-50
-50
-43
-38
-37
-41
-31
-32
-37
-43
-41
-32
-34
-33
-29
-37
-29
-21
-20
-25
-33
-29
-24
-16
-21
-17
-15
-14
-16
-14
-19
-7
-5
-13
-26
-14
-10
-11
-4
-20
-13
-20
-20
-9
-13
-11
-20
-22
-28
-33
-26
-32
-33
-34
-46
-43
-54
-54
-53
-58
-51
-59
-56
-55
-59
-67
-67
-58
-58
-59
-66
-55
-62
-75
-72
-73
-62
-62
-62
-61
-74
-75
-70
-70
-70
-77
-68
-70
-68
-71
-68
-68
-72
-73
-74
-78
-82
-73
-65
-65
-76
-79
-72
-68
-58
-63
-59
-75
-81
-77
-74
-66
-68
-70
-74
-72
-66
-54
-68
-76
-72
-71
-73
-67
-68
-76
-73
-73
-70
-64
-71
-62
-67
-76
-68
-64
-67
-71
-66
-68
-61
-66
-69
-71
-72
-75
-64
-51
-71
-70
-64
-70
-66
-63
-68
-83
-64
-62
-76
-74
-70
-74
-67
-63
-72
-70
-68
-68
-70
-69
-70
-70
-59
-62
-66
-68
-79
-76
-71
-76
-77
-75
-62
-62
-67
-61
-68
-77
-64
-65
-79
-83
-80
-68
-61
-69
-73
-65
-65
-70
-76
-74
-76
-58
-64
-73
-69
-68
-73
-77
-78
-69
-66
-67
-78
-75
-65
-67
-73
-68
-64
-71
-68
-66
-67
-71
-76
-71
-69
-74
-69
-77
-68
-67
-69
-76
-66
-64
-75
-70
-73
-78
-77
-70
-69
-64
-72
-72
-63
-70
-72
-68
-77
-76
-68
-80
-69
-63
-66
-77
-71
-66
-70
-70
-72
-72
-71
-75
-79
-74
-69
-69
-70
-69
-70
-59
-61
-65
-76
-83
-77
-63
-69
-71
-67
-74
-74
-63
-66
-74
-74
-64
-62
-68
-67
-73
-78
-88
-78
-73
-73
-63
-64
-69
-65
-69
-64
-71
-73
-76
-69
-73
-76
-75
-70
-58
-63
-65
-73
-73
-62
-66
-58
-60
-64
-65
-64
-70
-65
-64
-68
-58
-48
-51
-55
-49
-61
-43
-42
-40
-38
-40
-51
-50
-44
-55
-45
-48
-54
-57
-62
-52
-43
-59
-74
-71
-63
-62
-64
-68
-76
-76
-78
-75
-68
-66
-74
-78
-75
-69
-75
-71
-75
-72
-75
-74
-76
-73
-81
-77
-75
-82
-77
-77
-100
-83
-74
-70
-56
-32
-8
11
10
29
35
22
21
12
2
-20
-43
-58
-78
-88
-100
-101
-111
-112
-115
-117
-114
-111
-107
-112
-90
-83
-82
-77
-79
-73
-76
-77
-77
-77
-78
-83
-82
-77
-76
-68
-64
-65
-63
-68
-67
-79
-76
-65
-68
-61
-70
-76
-71
-65
-72
-69
-63
-68
-63
-63
-73
-78
-72
-60
-61
-67
-63
-67
-61
-61
-58
-68
-69
-63
-63
-66
-67
-74
-71
-66
-63
-64
-68
-50
-51
-64
-66
-65
-52
-57
-55
-58
-52
-49
-54
-75
-60
-44
-44
-48
-50
-55
-47
-50
-50
-51
-46
-46
-46
-42
-38
-32
-33
-40
-42
-39
-34
-35
-42
-33
-43
-38
-38
-36
-27
-19
-25
-22
-27
-21
-21
-17
-13
-16
-22
-31
-29
-5
-7
-19
-24
-7
-2
-5
-4
-17
-24
-21
-16
-10
-21
-12
-12
-13
-29
-29
-23
-26
-31
-31
-35
-36
-41
-43
-49
-51
-56
-50
-50
-43
-57
-65
-59
-61
-57
-56
-54
-65
-73
-62
-60
-62
-69
-73
-78
-72
-79
-73
-72
-66
-70
-71
-72
-73
-71
-69
-66
-67
-70
-68
-66
-68
-69
-72
-79
-77
-76
-71
-69
-68
-60
-51
-61
-69
-75
-84
-73
-66
-67
-70
-78
-77
-68
-64
-65
-55
-65
-68
-72
-75
-76
-66
-61
-66
-73
-73
-67
-72
-67
-67
-68
-61
-71
-70
-72
-67
-63
-66
-73
-66
-64
-65
-71
-64
-71
-70
-73
-70
-68
-72
-63
-60
-48
-63
-64
-69
-74
-70
-71
-69
-67
-60
-71
-75
-80
-83
-76
-74
-66
-68
-68
-65
-64
-68
-63
-63
-72
-67
-61
-63
-66
-76
-71
-75
-71
-75
-71
-63
-67
-74
-68
-68
-67
-67
-64
-63
-72
-71
-65
-67
-65
-75
-73
-71
-77
-72
-78
-79
-67
-60
-63
-53
-64
-66
-69
-71
-69
-72
-79
-68
-68
-76
-63
-63
-59
-59
-61
-75
-80
-72
-76
-79
-73
-71
-72
-71
-70
-70
-71
-71
-71
-75
-73
-65
-58
-52
-65
-60
-70
-80
-74
-70
-68
-72
-66
-71
-70
-65
-63
-73
-66
-59
-66
-73
-75
-73
-67
-62
-61
-73
-74
-56
-58
-68
-70
-78
-70
-72
-76
-67
-70
-74
-71
-72
-70
-77
-70
-66
-64
-70
-60
-68
-72
-68
-65
-69
-66
-68
-62
-58
-62
-71
-75
-79
-77
-73
-64
-73
-65
-60
-65
-59
-57
-71
-65
-53
-76
-64
-58
-63
-68
-59
-59
-68
-70
-69
-59
-51
-54
-56
-51
-53
-44
-38
-39
-45
-47
-44
-40
-35
-44
-54
-52
-57
-56
-57
-55
-53
-48
-50
-58
-55
-54
-73
-77
-66
-77
-64
-72
-69
-72
-76
-66
-65
-74
-79
-77
-71
-64
-69
-76
-73
-71
-72
-73
-73
-77
-78
-70
-77
-78
-81
-74
-60
-49
-60
-34
-13
9
20
41
32
23
19
10
1
-20
-30
-49
-73
-81
-99
-107
-118
-119
-111
-116
-117
-107
-104
-99
-100
-90
-82
-78
-78
-74
-71
-75
-76
-65
-69
-73
-71
-70
-72
-71
-60
-58
-71
-66
-79
-70
-74
-65
-62
-65
-70
-70
-68
-64
-57
-49
-55
-59
-63
-62
-65
-64
-64
-56
-61
-58
-64
-62
-59
-62
-58
-65
-56
-61
-70
-70
-67
-55
-54
-54
-63
-59
-52
-44
-46
-58
-80
-77
-56
-60
-60
-51
-48
-52
-46
-39
-43
-51
-43
-46
-52
-61
-45
-42
-45
-44
-46
-40
-35
-45
-55
-46
-36
-40
-38
-29
-28
-25
-26
-27
-21
-32
-27
-24
-19
-21
-27
-18
-16
-15
-28
-28
-21
-30
-19
-10
-13
-5
-2
7
2
-13
-10
-12
-9
-9
-11
-9
-6
-6
-8
-5
-17
-26
-26
-18
-27
-40
-27
-28
-27
-27
-36
-40
-41
-49
-55
-51
-53
-54
-61
-63
-53
-52
-57
-58
-71
-81
-71
-60
-62
-63
-59
-65
-68
-67
-58
-66
-67
-63
-59
-62
-61
-65
-65
-65
-68
-67
-64
-65
-69
-68
-62
-62
-70
-65
-66
-75
-66
-67
-59
-69
-74
-71
-64
-66
-65
-61
-63
-79
-68
-65
-55
-71
-75
-76
-66
-66
-69
-66
-68
-61
-59
-62
-72
-60
-62
-58
-63
-65
-59
-68
-67
-64
-68
-69
-65
-57
-69
-61
-62
-60
-65
-64
-60
-60
-63
-71
-66
-63
-57
-56
-70
-69
-61
-60
-55
-68
-66
-71
-67
-70
-70
-82
-69
-64
-70
-67
-62
-65
-60
-75
-69
-63
-59
-61
-72
-71
-68
-69
-65
-59
-67
-63
-61
-65
-68
-69
-65
-68
-66
-62
-64
-67
-65
-62
-56
-53
-58
-71
-67
-70
-77
-72
-64
-73
-75
-80
-73
-73
-68
-70
-73
-66
-60
-72
-66
-66
-60
-65
-63
-65
-69
-77
-71
-65
-62
-60
-56
-68
-70
-57
-64
-65
-62
-63
-64
-72
-68
-65
-62
-62
-71
-60
-62
-72
-69
-63
-63
-77
-78
-68
-59
-68
-65
-68
-62
-68
-72
-75
-77
-71
-69
-68
-68
-64
-61
-66
-70
-61
-59
-63
-66
-57
-72
-75
-67
-79
-76
-66
-67
-69
-62
-59
-64
-60
-59
-63
-68
-60
-56
-59
-72
-67
-71
-66
-61
-64
-63
-61
-52
-58
-59
-65
-61
-53
-51
-49
-51
-49
-55
-50
-48
-43
-43
-51
-44
-36
-46
-39
-43
-39
-50
-61
-58
-53
-43
-50
-59
-51
-59
-62
-58
-58
-66
-73
-75
-62
-59
-67
-71
-77
-69
-75
-71
-63
-59
-63
-65
-72
-71
-73
-74
-71
-69
-64
-69
-75
-72
-69
-76
-81
-74
-73
-66
-43
-19
3
30
32
31
30
19
6
4
-1
-32
-50
-62
-83
-97
-103
-108
-113
-124
-123
-106
-105
-114
-106
-93
-93
-88
-81
-74
-71
-75
-73
-71
-72
-76
-77
-70
-63
-60
-60
-64
-61
-53
-55
-62
-75
-70
-67
-67
-66
-59
-58
-68
-68
-79
-67
-64
-63
-66
-62
-61
-60
-68
-56
-50
-62
-57
-54
-67
-69
-54
-57
-66
-66
-63
-63
-63
-64
-66
-52
-57
-50
-49
-63
-57
-49
-60
-62
-60
-57
-49
-57
-51
-48
-44
-47
-50
-41
-41
-53
-48
-47
-48
-45
-39
-51
-54
-50
-44
-36
-29
-40
-46
-39
-32
-36
-39
-35
-33
-35
-19
-17
-29
-24
-30
-31
-22
-26
-18
-19
-18
-17
-9
-6
-13
-13
-13
-5
-12
-11
-7
-10
-15
1
1
-6
-4
-7
-13
-9
-10
-13
-25
-7
-16
-20
-14
-30
-31
-23
-30
-38
-47
-41
-46
-45
-49
-46
-52
-42
-49
-56
-61
-60
-55
-59
-60
-63
-64
-58
-63
-62
-65
-66
-64
-80
-65
-60
-71
-70
-74
-70
-68
-56
-50
-64
-64
-57
-72
-70
-74
-64
-61
-62
-69
-69
-66
-67
-73
-61
-61
-60
-70
-69
-60
-60
-62
-65
-65
-73
-72
-67
-59
-67
-71
-69
-63
-60
-68
-70
-71
-56
-61
-65
-66
-51
-54
-62
-61
-58
-63
-64
-69
-65
-57
-57
-54
-64
-61
-67
-69
-66
-53
-62
-64
-59
-69
-64
-67
-65
-61
-61
-60
-65
-64
-81
-69
-62
-56
-66
-65
-52
-55
-69
-64
-63
-60
-63
-65
-68
-63
-59
-60
-68
-73
-72
-73
-66
-66
-54
-48
-65
-59
-61
-65
-59
-63
-61
-67
-70
-64
-65
-62
-56
-59
-81
-75
-70
-53
-70
-63
-66
-65
-61
-68
-67
-64
-60
-57
-57
-64
-60
-63
-64
-56
-62
-63
-71
-68
-67
-60
-59
-60
-61
-61
-66
-71
-73
-61
-71
-64
-63
-64
-64
-68
-66
-66
-62
-61
-63
-62
-58
-59
-61
-64
-72
-68
-56
-67
-62
-61
-54
-65
-62
-63
-63
-66
-65
-67
-62
-61
-71
-69
-64
-67
-55
-55
-67
-65
-61
-60
-57
-65
-74
-66
-79
-75
-59
-59
-62
-57
-55
-51
-51
-67
-76
-66
-64
-76
-62
-58
-60
-56
-69
-68
-61
-55
-64
-64
-65
-69
-56
-58
-66
-68
-54
-69
-73
-77
-65
-62
-54
-67
-67
-67
-68
-63
-63
-55
-55
-63
-65
-47
-61
-64
-58
-53
-45
-44
-53
-50
-46
-47
-55
-45
-48
-46
-42
-39
-34
-42
-47
-42
-46
-37
-36
-39
-41
-46
-42
-46
-54
-52
-55
-48
-56
-70
-70
-57
-53
-61
-68
-71
-67
-53
-59
-69
-76
-61
-58
-61
-61
-59
-67
-70
-69
-67
-64
-62
-68
-67
-71
-65
-69
-59
-73
-72
-61
-62
-27
-16
5
12
23
37
25
24
18
11
-3
-26
-45
-57
-75
-88
-95
-103
-106
-103
-113
-106
-99
-105
-93
-83
-79
-81
-93
-73
-64
-63
-63
-63
-64
-59
-65
-69
-67
-70
-67
-63
-61
-63
-65
-63
-57
-52
-58
-62
-66
-64
-64
-66
-65
-65
-58
-56
-54
-56
-51
-61
-62
-67
-60
-56
-62
-66
-63
-58
-54
-53
-55
-58
-57
-51
-56
-58
-47
-50
-64
-55
-56
-61
-62
-56
-53
-45
-46
-50
-54
-44
-48
-55
-50
-39
-42
-50
-50
-48
-37
-37
-47
-43
-45
-53
-47
-41
-31
-36
-44
-43
-37
-35
-29
-27
-28
-29
-30
-33
-26
-18
-20
-28
-21
-32
-23
-16
-28
-17
-5
-11
-20
-15
-15
-8
-7
-7
-8
-11
-2
-2
-8
0
-1
-8
-7
-10
-3
-8
-16
-10
-10
-11
-18
-14
-16
-21
-19
-17
-24
-28
-34
-31
-30
-36
-41
-39
-48
-56
-43
-46
-52
-44
-43
-54
-50
-44
-56
-56
-50
-52
-59
-57
-55
-60
-63
-56
-61
-57
-60
-63
-61
-61
-56
-62
-60
-51
-60
-69
-68
-59
-65
-62
-64
-61
-59
-53
-59
-65
-69
-63
-65
-68
-64
-63
-56
-58
-61
-63
-56
-61
-59
-59
-63
-64
-62
-55
-56
-59
-51
-53
-64
-62
-63
-63
-68
-58
-56
-52
-56
-59
-61
-52
-60
-65
-65
-61
-63
-62
-55
-51
-58
-63
-59
-60
-61
-61
-61
-54
-59
-60
-69
-65
-53
-57
-62
-58
-58
-59
-61
-54
-68
-56
-57
-55
-55
-60
-62
-56
-56
-61
-63
-80
-64
-62
-58
-58
-67
-63
-51
-48
-55
-71
-63
-55
-61
-61
-59
-61
-62
-66
-66
-62
-62
-59
-58
-63
-68
-56
-57
-66
-63
-59
-60
-61
-66
-55
-53
-72
-60
-58
-59
-66
-67
-57
-65
-63
-59
-63
-72
-63
-54
-59
-66
-63
-59
-62
-52
-60
-60
-57
-45
-67
-73
-65
-60
-56
-62
-59
-63
-67
-74
-72
-77
-63
-55
-58
-51
-48
-62
-54
-57
-64
-69
-67
-67
-56
-56
-67
-62
-65
-64
-66
-60
-56
-53
-55
-61
-68
-64
-63
-66
-53
-57
-70
-72
-54
-60
-63
-71
-66
-63
-59
-68
-48
-56
-55
-58
-69
-66
-63
-59
-67
-71
-65
-63
-64
-50
-56
-61
-55
-69
-70
-64
-53
-49
-66
-60
-53
-54
-56
-54
-56
-48
-49
-36
-58
-58
-49
-55
-64
-44
-38
-45
-51
-44
-46
-27
-35
-37
-39
-47
-46
-42
-38
-43
-42
-38
-40
-43
-45
-49
-46
-50
-53
-45
-53
-58
-63
-73
-57
-59
-64
-64
-72
-58
-60
-70
-78
-64
-62
-71
-61
-58
-58
-58
-64
-61
-66
-67
-68
-66
-71
-72
-79
-73
-72
-58
-33
-16
1
5
25
44
44
32
24
18
14
-14
-29
-45
-72
-90
-96
-99
-105
-101
-101
-105
-103
-103
-98
-90
-84
-83
-79
-69
-58
-62
-59
-67
-56
-61
-70
-60
-64
-65
-62
-70
-76
-63
-69
-67
-52
-56
-61
-58
-60
-63
-70
-64
-61
-62
-57
-68
-59
-58
-59
-55
-50
-58
-56
-56
-56
-66
-56
-55
-66
-57
-52
-58
-59
-50
-44
-47
-52
-58
-53
-50
-55
-54
-51
-54
-58
-49
-43
-48
-45
-58
-65
-54
-57
-45
-43
-47
-40
-39
-39
-43
-48
-43
-36
-40
-34
-38
-45
-43
-41
-44
-29
-36
-35
-31
-33
-28
-21
-29
-32
-35
-22
-23
-15
-12
-16
-20
-18
-14
-8
-3
0
-15
-12
-11
-5
-24
-28
-4
-6
3
-1
-6
-9
-2
-1
-1
5
-7
-13
-2
-1
-8
-16
-5
-17
-13
-15
-12
-16
-20
-28
-36
-43
-39
-34
-41
-45
-46
-50
-50
-45
-53
-57
-53
-54
-58
-57
-56
-48
-51
-55
-53
-51
-62
-57
-53
-52
-68
-66
-70
-70
-57
-55
-65
-57
-62
-57
-63
-62
-61
-58
-60
-65
-56
-54
-57
-59
-57
-54
-63
-63
-61
-63
-61
-68
-62
-58
-55
-61
-56
-67
-65
-63
-60
-67
-64
-70
-66
-67
-54
-58
-63
-60
-56
-55
-54
-49
-50
-59
-67
-68
-59
-54
-62
-62
-60
-56
-58
-59
-58
-58
-69
-70
-63
-57
-54
-43
-47
-53
-61
-50
-52
-66
-66
-68
-66
-59
-65
-64
-60
-60
-59
-54
-53
-57
-57
-56
-61
-60
-60
-60
-66
-60
-62
-60
-54
-54
-66
-70
-71
-63
-55
-58
-56
-54
-62
-61
-56
-59
-68
-65
-59
-57
-64
-59
-64
-62
-62
-59
-61
-59
-55
-67
-69
-65
-61
-68
-65
-60
-54
-57
-68
-54
-56
-59
-59
-57
-64
-60
-57
-58
-59
-66
-63
-72
-65
-62
-54
-62
-67
-70
-69
-65
-68
-61
-55
-60
-62
-57
-49
-62
-60
-57
-57
-57
-59
-67
-55
-60
-57
-62
-71
-64
-65
-61
-59
-58
-61
-62
-61
-61
-66
-65
-65
-70
-62
-48
-50
-67
-61
-58
-64
-63
-65
-56
-60
-65
-62
-61
-73
-66
-54
-55
-56
-51
-61
-57
-59
-59
-67
-63
-67
-58
-65
-56
-61
-55
-60
-62
-54
-59
-63
-59
-61
-55
-58
-63
-65
-56
-59
-50
-48
-76
-59
-68
-69
-62
-67
-66
-61
-58
-56
-54
-56
-55
-58
-73
-61
-54
-63
-60
-64
-56
-48
-51
-50
-39
-54
-54
-44
-44
-47
-45
-39
-41
-37
-39
-37
-38
-29
-36
-38
-35
-41
-43
-40
-53
-45
-54
-52
-39
-38
-42
-55
-59
-53
-52
-56
-66
-59
-60
-61
-62
-54
-59
-64
-57
-61
-67
-65
-64
-68
-65
-56
-56
-64
-71
-66
-62
-68
-75
-73
-75
-69
-66
-68
-63
-61
-39
-24
-10
24
42
58
45
31
19
19
11
-4
-32
-53
-71
-92
-92
-102
-102
-98
-102
-104
-107
-99
-98
-96
-88
-86
-77
-64
-70
-74
-66
-62
-52
-44
-49
-69
-69
-59
-60
-64
-68
-62
-66
-60
-63
-53
-53
-56
-65
-60
-61
-63
-56
-70
-58
-54
-54
-52
-49
-61
-57
-58
-58
-60
-54
-57
-54
-45
-49
-53
-56
-56
-53
-51
-61
-56
-57
-46
-49
-56
-53
-46
-49
-62
-56
-51
-49
-44
-43
-52
-59
-41
-39
-50
-53
-53
-40
-39
-46
-47
-37
-30
-37
-38
-38
-40
-38
-37
-37
-35
-33
-32
-26
-35
-35
-23
-30
-26
-28
-27
-15
-15
-19
-18
-19
-21
-19
-17
-9
-16
-10
-8
-6
-9
-5
-5
2
2
0
3
5
2
-8
0
-2
1
1
6
5
-14
-5
-4
-7
-9
-20
-20
-19
-17
-25
-25
-22
-18
-30
-38
-33
-38
-48
-53
-44
-52
-51
-43
-48
-39
-47
-54
-69
-57
-55
-59
-48
-54
-62
-54
-59
-58
-55
-49
-58
-63
-60
-65
-61
-64
-62
-61
-62
-62
-66
-56
-49
-65
-64
-65
-57
-56
-57
-60
-57
-58
-63
-59
-69
-57
-63
-69
-72
-66
-64
-64
-61
-60
-64
-57
-52
-60
-62
-67
-60
-67
-64
-57
-73
-51
-49
-57
-62
-72
-65
-64
-62
-59
-53
-60
-61
-62
-55
-54
-65
-54
-53
-51
-65
-65
-63
-67
-55
-58
-53
-59
-68
-71
-57
-44
-57
-58
-57
-62
-60
-65
-66
-64
-62
-72
-59
-61
-63
-64
-61
-54
-64
-64
-63
-59
-61
-56
-54
-65
-72
-65
-65
-64
-56
-59
-65
-62
-65
-67
-53
-59
-67
-55
-49
-64
-69
-60
-59
-69
-63
-65
-67
-64
-59
-56
-60
-70
-75
-70
-64
-66
-53
-55
-60
-65
-68
-67
-64
-60
-66
-64
-59
-54
-62
-66
-58
-61
-62
-56
-69
-63
-66
-63
-59
-62
-57
-60
-65
-60
-65
-63
-55
-56
-67
-67
-63
-66
-68
-62
-66
-60
-59
-64
-65
-57
-61
-70
-66
-62
-58
-52
-65
-59
-51
-64
-68
-57
-64
-74
-75
-60
-67
-65
-67
-68
-58
-53
-56
-56
-57
-58
-68
-69
-63
-62
-67
-59
-69
-55
-57
-66
-63
-64
-62
-66
-67
-70
-65
-59
-63
-60
-72
-62
-59
-60
-60
-59
-63
-59
-59
-59
-48
-58
-61
-61
-55
-49
-53
-63
-61
-62
-62
-43
-51
-48
-44
-46
-41
-43
-40
-40
-35
-35
-44
-56
-55
-54
-47
-52
-40
-44
-44
-54
-62
-60
-54
-64
-72
-66
-61
-57
-54
-65
-73
-69
-63
-63
-71
-65
-64
-63
-62
-71
-64
-65
-68
-78
-72
-74
-72
-70
-62
-66
-77
-71
-73
-78
-72
-62
-46
-29
-15
2
22
46
36
15
5
18
14
-3
-34
-51
-77
-90
-98
-106
-99
-105
-114
-110
-113
-120
-111
-101
-93
-99
-93
-78
-61
-59
-71
-75
-71
-72
-64
-66
-65
-63
-64
-70
-71
-72
-68
-71
-68
-71
-69
-64
-63
-51
-55
-63
-65
-62
-62
-64
-60
-60
-63
-56
-67
-59
-62
-65
-66
-59
-65
-63
-59
-60
-56
-54
-58
-59
-59
-62
-64
-63
-64
-54
-44
-57
-57
-56
-73
-77
-51
-39
-54
-52
-49
-49
-42
-38
-43
-45
-47
-49
-37
-45
-42
-42
-46
-46
-54
-56
-55
-36
-38
-42
-41
-41
-40
-33
-41
-26
-25
-24
-15
-20
-28
-27
-31
-29
-15
-12
-21
-19
-22
-23
-19
-12
-7
-7
-12
0
-2
-10
-3
-4
-5
-5
-3
-18
-9
-7
-11
-6
1
-1
-16
-13
-9
-5
-12
-24
-22
-20
-23
-28
-34
-35
-34
-28
-34
-33
-35
-42
-58
-54
-56
-64
-60
-57
-68
-69
-55
-56
-61
-57
-56
-60
-62
-66
-71
-63
-63
-60
-63
-58
-55
-61
-69
-74
-72
-73
-66
-63
-77
-63
-63
-62
-69
-77
-67
-57
-60
-66
-72
-60
-59
-70
-64
-65
-55
-60
-58
-68
-65
-60
-56
-67
-74
-70
-60
-72
-65
-67
-61
-64
-67
-58
-62
-69
-63
-55
-55
-65
-65
-68
-65
-63
-63
-64
-61
-61
-65
-67
-58
-72
-68
-66
-68
-72
-60
-61
-59
-62
-59
-52
-57
-57
-59
-62
-56
-65
-71
-58
-70
-72
-69
-71
-73
-70
-62
-58
-60
-64
-59
-63
-58
-63
-70
-68
-61
-60
-56
-56
-54
-58
-69
-76
-70
-71
-75
-78
-66
-60
-65
-64
-58
-67
-66
-65
-64
-61
-62
-57
-55
-64
-67
-67
-77
-78
-60
-65
-60
-65
-58
-64
-69
-67
-65
-62
-65
-72
-60
-59
-62
-65
-59
-59
-57
-71
-80
-73
-74
-62
-65
-63
-65
-64
-65
-74
-67
-61
-66
-58
-63
-61
-62
-59
-59
-69
-65
-58
-66
-72
-67
-65
-65
-71
-68
-67
-68
-67
-68
-61
-59
-66
-67
-67
-60
-68
-56
-45
-55
-70
-80
-66
-68
-70
-59
-63
-61
-63
-63
-63
-67
-69
-68
-67
-71
-69
-58
-62
-64
-60
-63
-63
-66
-63
-72
-76
-63
-59
-57
-64
-62
-69
-78
-67
-67
-69
-74
-69
-68
-65
-65
-59
-58
-56
-46
-54
-58
-64
-67
-65
-71
-74
-72
-64
-63
-62
-68
-73
-71
-72
-46
-55
-66
-63
-77
-69
-64
-64
-61
-53
-51
-62
-65
-58
-64
-63
-61
-68
-56
-57
-65
-66
-61
-57
-57
-51
-56
-41
-36
-38
-37
-40
-32
-26
-38
-44
-38
-49
-55
-46
-46
-51
-47
-60
-53
-51
-49
-55
-63
-65
-66
-69
-59
-60
-71
-76
-63
-57
-62
-61
-64
-63
-62
-72
-72
-77
-67
-63
-66
-65
-75
-71
-65
-62
-71
-72
-70
-83
-70
-52
-70
-72
-56
-30
-30
-4
14
26
49
38
23
11
14
-1
-27
-41
-67
-89
-88
-88
-94
-103
-108
-120
-118
-108
-97
-99
-94
-87
-72
-66
-76
-75
-76
-75
-70
-77
-71
-66
-68
-65
-65
-64
-63
-69
-69
-68
-59
-59
-60
-63
-64
-60
-63
-61
-63
-63
-69
-70
-62
-57
-61
-69
-61
-60
-62
-67
-61
-63
-69
-57
-47
-52
-53
-52
-64
-59
-61
-60
-59
-63
-66
-64
-59
-59
-61
-46
-46
-54
-55
-51
-48
-57
-62
-57
-54
-58
-51
-53
-50
-42
-42
-48
-53
-53
-44
-51
-44
-38
-48
-41
-34
-33
-38
-32
-35
-37
-29
-34
-35
-35
-46
-35
-28
-24
-29
-23
-26
-24
-27
-26
-20
-21
-24
-21
-21
-23
-29
-16
0
-6
-5
-3
-4
-10
-10
-1
-6
-4
-7
-2
-17
-24
-7
-9
-7
-14
-11
-16
-26
-32
-31
-28
-32
-24
-21
-32
-43
-51
-48
-33
-44
-62
-53
-53
-55
-55
-60
-56
-58
-52
-59
-66
-55
-58
-63
-62
-60
-63
-70
-79
-59
-62
-59
-58
-57
-64
-69
-65
-65
-65
-73
-67
-55
-56
-60
-63
-70
-64
-59
-68
-67
-72
-70
-75
-67
-60
-64
-68
-72
-68
-67
-67
-61
-59
-58
-58
-56
-60
-55
-42
-51
-68
-67
-69
-68
-70
-70
-62
-54
-69
-65
-60
-64
-61
-68
-65
-61
-51
-60
-65
-72
-59
-61
-69
-63
-59
-53
-70
-76
-64
-61
-65
-61
-57
-59
-70
-63
-61
-62
-72
-62
-56
-60
-64
-66
-63
-62
-72
-57
-43
-52
-60
-67
-61
-64
-58
-71
-63
-64
-70
-68
-68
-64
-71
-61
-66
-64
-61
-56
-57
-56
-58
-55
-62
-62
-68
-66
-58
-62
-67
-66
-67
-67
-67
-69
-69
-69
-65
-67
-65
-59
-55
-58
-61
-60
-64
-68
-57
-54
-74
-71
-70
-55
-58
-62
-68
-70
-71
-67
-56
-58
-63
-54
-63
-67
-58
-59
-55
-60
-64
-70
-65
-73
-74
-75
-63
-61
-62
-63
-67
-67
-68
-63
-61
-56
-62
-56
-53
-59
-67
-64
-60
-62
-70
-71
-67
-64
-71
-68
-62
-61
-62
-58
-60
-61
-71
-62
-58
-62
-72
-70
-62
-57
-67
-65
-64
-65
-64
-67
-72
-63
-64
-66
-61
-61
-62
-62
-68
-70
-66
-65
-64
-58
-64
-57
-60
-61
-61
-66
-61
-65
-73
-67
-62
-57
-65
-57
-46
-62
-65
-70
-69
-67
-53
-53
-56
-53
-52
-60
-62
-64
-52
-52
-50
-35
-33
-44
-40
-44
-43
-46
-41
-37
-41
-33
-41
-40
-50
-49
-50
-52
-47
-55
-50
-50
-52
-56
-55
-64
-65
-69
-68
-65
-68
-70
-62
-62
-63
-70
-71
-56
-63
-69
-66
-69
-68
-72
-71
-74
-73
-57
-66
-61
-68
-74
-69
-80
-75
-73
-68
-48
-29
-9
-1
22
34
46
27
24
20
8
-3
-24
-39
-67
-76
-89
-106
-110
-110
-109
-100
-107
-108
-100
-89
-96
-82
-73
-74
-61
-72
-68
-69
-69
-66
-60
-68
-76
-73
-73
-60
-64
-68
-64
-64
-67
-65
-63
-60
-58
-59
-72
-66
-63
-68
-71
-63
-57
-63
-65
-61
-58
-57
-62
-61
-67
-60
-57
-63
-55
-48
-55
-54
-58
-57
-57
-58
-60
-64
-62
-65
-63
-52
-55
-47
-62
-60
-54
-47
-42
-50
-50
-48
-46
-53
-57
-53
-53
-41
-40
-55
-52
-49
-45
-45
-44
-36
-44
-41
-36
-39
-35
-35
-32
-36
-28
-40
-37
-33
-24
-30
-21
-33
-40
-31
-19
-20
-20
-10
-12
-11
-15
-10
-9
-17
-17
-9
-12
-8
-11
-9
-11
-6
6
-8
-7
-8
-4
-8
-10
-6
-8
-16
-7
-11
-13
-12
-21
-25
-22
-25
-27
-36
-37
-33
-33
-45
-41
-49
-46
-40
-43
-57
-56
-54
-55
-54
-63
-58
-60
-62
-60
-59
-66
-63
-61
-55
-54
-63
-61
-61
-62
-65
-64
-59
-60
-67
-65
-66
-66
-70
-60
-63
-66
-71
-67
-62
-60
-66
-68
-71
-64
-54
-69
-62
-54
-63
-64
-60
-65
-72
-68
-64
-66
-65
-58
-61
-65
-59
-66
-65
-63
-69
-59
-71
-67
-60
-59
-55
-66
-69
-64
-60
-67
-58
-59
-66
-63
-64
-65
-62
-59
-55
-60
-61
-61
-60
-63
-66
-51
-55
-61
-62
-60
-65
-69
-68
-64
-70
-62
-57
-54
-62
-63
-63
-58
-67
-64
-58
-58
-64
-59
-62
-70
-67
-68
-67
-55
-59
-67
-68
-64
-55
-60
-58
-68
-74
-70
-64
-60
-63
-65
-60
-70
-66
-58
-58
-61
-67
-59
-58
-53
-64
-66
-67
-68
-65
-66
-66
-66
-67
-68
-61
-62
-71
-67
-51
-65
-55
-65
-72
-70
-62
-61
-57
-63
-70
-70
-60
-63
-63
-64
-63
-56
-55
-67
-68
-61
-60
-59
-59
-68
-65
-67
-65
-66
-68
-67
-66
-62
-65
-54
-56
-60
-66
-77
-62
-65
-65
-64
-66
-71
-63
-60
-70
-63
-60
-58
-60
-64
-61
-65
-66
-62
-63
-67
-63
-65
-55
-64
-63
-69
-70
-64
-60
-60
-65
-57
-70
-63
-58
-65
-61
-59
-66
-69
-68
-64
-61
-68
-69
-62
-63
-63
-65
-66
-67
-68
-66
-66
-66
-62
-60
-62
-59
-60
-56
-69
-69
-61
-56
-54
-49
-62
-60
-58
-60
-59
-49
-48
-46
-50
-48
-49
-36
-34
-48
-42
-40
-46
-38
-36
-46
-34
-38
-44
-47
-34
-45
-49
-55
-52
-60
-63
-68
-57
-62
-64
-62
-61
-63
-65
-68
-63
-68
-65
-63
-60
-62
-55
-64
-75
-74
-68
-72
-73
-62
-64
-61
-66
-76
-73
-62
-73
-82
-80
-70
-64
-51
-31
-11
-4
8
25
32
31
31
20
10
-2
-12
-43
-59
-74
-92
-93
-108
-104
-90
-100
-104
-114
-119
-96
-91
-86
-76
-72
-65
-60
-62
-71
-76
-70
-67
-66
-68
-69
-63
-57
-62
-69
-65
-65
-64
-62
-66
-80
-65
-53
-62
-64
-63
-75
-63
-58
-61
-51
-58
-62
-67
-62
-61
-69
-64
-53
-54
-55
-71
-56
-50
-56
-59
-53
-57
-57
-51
-47
-55
-68
-57
-53
-56
-60
-62
-62
-57
-48
-46
-54
-50
-60
-53
-50
-44
-47
-54
-48
-48
-46
-44
-38
-41
-49
-48
-50
-41
-42
-39
-45
-41
-31
-20
-32
-45
-45
-38
-27
-21
-28
-33
-30
-23
-17
-17
-22
-23
-19
-12
-16
-17
-12
-12
-13
-7
-10
-13
-6
-8
-14
-14
-5
-7
0
-2
-4
-2
-7
-6
-10
-18
-7
-13
-23
-27
-16
-13
-14
-13
-26
-30
-35
-39
-35
-36
-41
-42
-42
-55
-48
-49
-52
-57
-71
-55
-53
-50
-57
-57
-48
-54
-60
-64
-60
-53
-65
-65
-62
-67
-67
-61
-57
-59
-65
-68
-67
-73
-73
-69
-64
-62
-63
-68
-71
-63
-58
-62
-66
-74
-72
-65
-58
-55
-57
-73
-62
-62
-60
-63
-58
-58
-56
-62
-59
-60
-67
-60
-58
-62
-64
-62
-56
-72
-68
-66
-66
-66
-56
-54
-55
-58
-64
-70
-65
-64
-58
-60
-50
-50
-51
-60
-76
-65
-71
-63
-59
-55
-57
-57
-61
-55
-69
-68
-65
-63
-56
-64
-62
-60
-55
-58
-63
-62
-62
-69
-64
-69
-56
-56
-63
-58
-65
-69
-63
-61
-58
-58
-57
-63
-56
-50
-66
-66
-61
-63
-58
-62
-67
-63
-71
-65
-62
-54
-57
-58
-60
-60
-70
-75
-61
-67
-68
-69
-58
-61
-68
-71
-71
-59
-65
-69
-63
-63
-72
-57
-62
-61
-61
-60
-67
-69
-58
-56
-58
-54
-60
-65
-62
-63
-65
-71
-71
-68
-69
-69
-61
-64
-61
-61
-51
-59
-64
-69
-68
-55
-56
-66
-66
-83
-69
-67
-65
-68
-74
-68
-65
-62
-50
-59
-62
-60
-63
-63
-66
-65
-62
-65
-64
-60
-56
-72
-72
-66
-68
-58
-60
-61
-61
-65
-73
-73
-69
-51
-54
-60
-62
-67
-64
-73
-70
-59
-62
-61
-65
-68
-67
-55
-60
-63
-66
-65
-69
-63
-69
-56
-63
-74
-65
-68
-67
-61
-61
-66
-66
-53
-60
-65
-62
-71
-63
-60
-51
-62
-57
-50
-55
-66
-55
-50
-53
-50
-55
-50
-51
-61
-52
-44
-52
-51
-45
-45
-47
-45
-37
-33
-39
-42
-42
-46
-51
-42
-43
-43
-48
-47
-50
-45
-61
-61
-63
-63
-67
-53
-50
-61
-76
-72
-57
-57
-54
-60
-59
-74
-66
-53
-61
-65
-68
-69
-68
-71
-65
-58
-60
-68
-71
-76
-71
-71
-69
-70
-65
-73
-58
-57
-32
-12
9
19
38
43
26
15
12
13
1
-28
-53
-76
-81
-99
-106
-113
-109
-111
-101
-104
-98
-89
-83
-90
-86
-86
-63
-61
-66
-66
-66
-71
-67
-64
-65
-61
-66
-59
-67
-68
-69
-70
-59
-63
-61
-55
-57
-66
-64
-65
-60
-66
-74
-64
-58
-59
-61
-63
-67
-65
-68
-66
-58
-55
-61
-57
-53
-58
-61
-62
-64
-56
-62
-68
-56
-59
-53
-51
-50
-51
-50
-63
-51
-40
-43
-53
-48
-41
-62
-57
-45
-50
-52
-53
-57
-58
-52
-38
-46
-39
-39
-41
-45
-44
-51
-46
-41
-46
-45
-40
-36
-42
-37
-34
-37
-31
-25
-24
-31
-28
-29
-32
-17
-20
-20
-12
-14
-27
-14
-11
-14
-7
-17
-13
-14
-5
3
0
-1
-9
-11
-4
-8
-17
-10
-9
-5
-9
-2
-7
-16
-16
-9
-14
-16
-17
-19
-26
-35
-32
-31
-22
-24
-47
-47
-32
-50
-46
-47
-54
-57
-56
-58
-55
-58
-57
-60
-63
-58
-48
-58
-68
-67
-71
-56
-62
-59
-59
-66
-71
-67
-59
-61
-67
-67
-53
-61
-64
-62
-66
-67
-62
-70
-64
-68
-70
-60
-59
-69
-65
-58
-60
-65
-62
-60
-69
-69
-72
-68
-68
-56
-57
-66
-64
-60
-67
-68
-68
-60
-64
-61
-59
-66
-59
-61
-64
-65
-64
-57
-61
-59
-63
-61
-65
-65
-60
-62
-69
-69
-67
-62
-58
-62
-66
-61
-67
-61
-67
-59
-58
-61
-53
-60
-60
-71
-64
-60
-51
-59
-69
-71
-69
-62
-59
-62
-74
-67
-71
-63
-58
-47
-68
-69
-58
-58
-61
-64
-70
-63
-61
-57
-66
-65
-69
-75
-72
-75
-62
-62
-64
-58
-61
-56
-57
-72
-66
-59
-65
-68
-58
-54
-61
-72
-66
-67
-66
-60
-59
-69
-69
-59
-57
-70
-71
-67
-61
-55
-62
-54
-61
-69
-68
-70
-73
-72
-68
-66
-69
-68
-67
-65
-60
-59
-57
-59
-60
-52
-67
-72
-61
-64
-71
-70
-63
-69
-60
-68
-69
-69
-68
-73
-64
-58
-57
-65
-60
-64
-60
-64
-67
-63
-64
-67
-71
-68
-61
-60
-63
-53
-54
-76
-73
-66
-62
-61
-64
-56
-64
-74
-64
-67
-75
-62
-57
-68
-65
-59
-58
-62
-62
-68
-64
-55
-60
-59
-58
-67
-66
-68
-65
-69
-67
-65
-69
-72
-65
-60
-61
-73
-65
-58
-69
-69
-60
-58
-50
-52
-57
-64
-62
-63
-54
-57
-62
-56
-47
-57
-50
-52
-43
-55
-54
-45
-44
-39
-43
-40
-39
-33
-45
-39
-40
-42
-44
-38
-34
-45
-59
-54
-46
-45
-49
-53
-56
-63
-59
-66
-58
-64
-62
-65
-70
-64
-65
-74
-68
-63
-62
-75
-63
-62
-63
-59
-56
-65
-64
-71
-80
-75
-73
-69
-66
-69
-76
-72
-73
-69
-56
-42
-31
-12
7
27
46
48
25
29
27
9
-8
-32
-51
-70
-81
-91
-100
-98
-101
-106
-111
-110
-106
-105
-86
-89
-78
-74
-73
-76
-71
-70
-72
-67
-66
-64
-62
-60
-58
-63
-70
-63
-64
-62
-61
-61
-65
-72
-63
-59
-65
-68
-73
-61
-64
-69
-56
-47
-52
-57
-60
-59
-54
-58
-56
-55
-57
-66
-59
-64
-57
-59
-67
-55
-47
-66
-57
-48
-53
-51
-55
-55
-56
-58
-52
-57
-48
-47
-50
-51
-48
-56
-44
-41
-42
-51
-53
-47
-50
-39
-38
-57
-48
-40
-38
-46
-38
-37
-41
-40
-42
-45
-33
-27
-27
-22
-33
-29
-39
-43
-28
-24
-34
-22
-23
-25
-18
-14
-11
-24
-22
-16
-10
-5
-12
-13
-6
-14
-11
-17
-19
-8
0
5
2
2
-1
-3
-9
-4
-8
-10
-14
-4
-2
-5
-20
-17
-20
-23
-29
-27
-26
-36
-43
-39
-43
-42
-47
-42
-51
-52
-50
-53
-51
-48
-53
-56
-59
-59
-58
-55
-58
-66
-59
-59
-61
-61
-58
-63
-72
-62
-61
-70
-68
-76
-65
-56
-54
-62
-64
-63
-59
-68
-69
-73
-58
-63
-58
-61
-70
-71
-60
-52
-59
-62
-60
-63
-60
-67
-60
-59
-61
-57
-66
-66
-66
-59
-54
-67
-65
-62
-59
-64
-62
-56
-63
-75
-63
-60
-62
-66
-61
-58
-63
-64
-76
-63
-58
-56
-52
-48
-62
-60
-68
-69
-66
-68
-64
-50
-59
-73
-62
-57
-59
-61
-60
-66
-65
-66
-65
-64
-58
-60
-57
-58
-58
-55
-66
-80
-75
-56
-52
-60
-60
-60
-71
-70
-64
-69
-70
-60
-58
-62
-65
-57
-69
-62
-63
-68
-63
-59
-61
-53
-56
-62
-68
-72
-73
-70
-66
-67
-63
-52
-58
-65
-56
-68
-67
-67
-70
-66
-60
-66
-66
-67
-63
-68
-63
-55
-65
-73
-55
-72
-71
-62
-58
-71
-66
-71
-58
-69
-68
-55
-44
-61
-67
-62
-61
-59
-70
-67
-64
-71
-65
-58
-54
-58
-60
-59
-66
-67
-62
-59
-65
-66
-71
-71
-72
-66
-64
-56
-52
-54
-52
-51
-65
-67
-67
-57
-67
-71
-81
-72
-65
-69
-64
-63
-77
-66
-54
-55
-42
-55
-62
-70
-73
-70
-69
-66
-63
-64
-63
-53
-58
-66
-67
-63
-65
-58
-64
-60
-64
-66
-61
-68
-66
-74
-66
-63
-55
-59
-60
-67
-63
-61
-54
-42
-43
-56
-72
-56
-63
-53
-61
-55
-48
-51
-46
-49
-42
-45
-48
-42
-35
-35
-44
-41
-45
-41
-47
-50
-47
-46
-49
-48
-46
-59
-56
-58
-59
-56
-57
-56
-66
-69
-64
-69
-71
-69
-67
-65
-65
-60
-63
-58
-65
-71
-66
-70
-66
-78
-70
-72
-57
-72
-72
-71
-71
-82
-71
-74
-69
-62
-53
-28
-10
1
12
27
43
32
22
17
6
-1
-27
-48
-70
-82
-90
-95
-97
-105
-110
-118
-113
-114
-103
-89
-94
-82
-75
-76
-80
-77
-82
-71
-60
-67
-58
-65
-73
-63
-63
-69
-61
-62
-65
-66
-62
-70
-71
-54
-62
-71
-71
-65
-55
-65
-64
-63
-51
-63
-63
-62
-65
-64
-69
-67
-65
-52
-42
-42
-49
-65
-66
-57
-61
-56
-61
-59
-58
-62
-60
-56
-62
-57
-54
-43
-46
-50
-52
-54
-51
-52
-54
-50
-57
-51
-41
-47
-43
-48
-49
-50
-56
-38
-22
-35
-53
-45
-36
-41
-40
-43
-42
-42
-33
-37
-30
-25
-25
-25
-22
-30
-36
-32
-38
-31
-26
-14
-12
-16
-26
-13
-11
-10
0
-8
-4
-9
-21
-13
-13
-1
-4
2
0
-6
-9
-11
-4
0
-12
-3
4
-14
-14
-13
-14
-14
-17
-23
-23
-24
-22
-31
-43
-35
-36
-36
-34
-39
-52
-52
-45
-48
-54
-56
-66
-60
-57
-54
-58
-53
-60
-63
-64
-60
-62
-66
-63
-59
-55
-54
-63
-64
-62
-61
-63
-65
-67
-72
-64
-61
-60
-79
-64
-63
-60
-56
-55
-64
-69
-71
-72
-62
-60
-59
-67
-71
-68
-77
-71
-66
-65
-67
-62
-72
-63
-54
-56
-53
-64
-69
-66
-68
-69
-56
-54
-58
-63
-63
-66
-66
-60
-60
-73
-63
-64
-73
-58
-45
-53
-64
-60
-64
-66
-58
-64
-61
-59
-64
-59
-74
-81
-75
-68
-62
-50
-52
-60
-54
-56
-65
-61
-64
-62
-67
-69
-59
-62
-59
-56
-65
-74
-60
-51
-61
-65
-70
-64
-62
-67
-68
-77
-71
-69
-68
-63
-54
-53
-58
-67
-66
-66
-68
-56
-59
-62
-61
-61
-71
-75
-68
-76
-64
-56
-58
-60
-66
-66
-63
-56
-71
-77
-74
-64
-63
-73
-68
-66
-51
-63
-66
-80
-74
-58
-52
-62
-61
-69
-68
-73
-69
-72
-65
-65
-65
-58
-61
-64
-67
-65
-60
-64
-66
-58
-66
-69
-62
-67
-73
-60
-61
-65
-69
-75
-62
-62
-59
-60
-62
-70
-70
-67
-78
-69
-68
-67
-68
-64
-60
-61
-71
-65
-66
-70
-60
-60
-53
-61
-72
-65
-62
-63
-72
-66
-63
-57
-65
-70
-69
-71
-61
-58
-66
-65
-54
-55
-64
-61
-63
-63
-61
-53
-51
-56
-55
-57
-61
-63
-43
-38
-49
-54
-39
-37
-38
-40
-39
-42
-33
-43
-51
-46
-49
-48
-29
-43
-51
-51
-50
-65
-75
-64
-61
-65
-61
-63
-64
-58
-66
-69
-68
-66
-66
-68
-70
-59
-66
-76
-71
-73
-77
-69
-69
-75
-68
-58
-68
-76
-78
-72
-74
-75
-65
-64
-53
-55
-22
-6
5
27
50
46
39
27
14
0
-21
-44
-61
-80
-98
-107
-102
-102
-115
-111
-112
-114
-102
-105
-111
-86
-84
-77
-66
-63
-65
-69
-75
-79
-70
-73
-62
-66
-57
-64
-61
-65
-70
-66
-65
-65
-63
-67
-68
-59
-58
-61
-73
-70
-60
-61
-60
-70
-72
-62
-66
-68
-66
-61
-66
-59
-54
-52
-57
-68
-64
-60
-67
-64
-56
-58
-54
-46
-53
-60
-60
-53
-58
-58
-57
-60
-53
-49
-59
-58
-46
-53
-55
-58
-47
-48
-48
-49
-53
-51
-45
-51
-46
-49
-46
-46
-45
-33
-33
-35
-36
-30
-30
-35
-27
-18
-35
-38
-31
-25
-37
-30
-24
-24
-20
-18
-23
-15
-15
-22
-23
-13
-19
-15
-14
-6
-13
-5
-3
-4
-1
-3
0
-5
-5
-13
-2
-11
-4
-9
-10
-11
-11
-17
-16
-18
-22
-24
-20
-21
-29
-32
-34
-35
-44
-48
-43
-46
-55
-54
-44
-53
-50
-54
-56
-52
-58
-67
-64
-60
-59
-67
-64
-62
-57
-62
-67
-63
-66
-69
-71
-69
-64
-71
-69
-68
-67
-66
-57
-64
-63
-61
-62
-62
-62
-62
-68
-72
-66
-71
-63
-70
-72
-68
-70
-65
-68
-74
-74
-63
-64
-65
-74
-72
-64
-60
-71
-79
-76
-61
-57
-62
-70
-58
-59
-62
-65
-66
-58
-58
-66
-63
-69
-64
-65
-71
-67
-59
-54
-57
-70
-65
-66
-65
-72
-71
-64
-64
-56
-66
-64
-66
-63
-70
-70
-62
-63
-66
-62
-68
-66
-71
-73
-69
-64
-58
-65
-65
-62
-67
-68
-67
-66
-67
-65
-55
-57
-67
-67
-61
-62
-65
-71
-69
-61
-59
-74
-69
-59
-62
-53
-74
-77
-74
-69
-72
-68
-53
-55
-67
-63
-66
-74
-77
-73
-70
-68
-69
-72
-66
-67
-55
-67
-71
-61
-63
-70
-70
-68
-67
-67
-61
-60
-62
-68
-69
-59
-67
-71
-69
-60
-70
-71
-67
-65
-69
-73
-70
-65
-65
-57
-67
-76
-70
-55
-64
-75
-68
-68
-70
-59
-60
-62
-65
-57
-69
-70
-65
-67
-68
-69
-72
-70
-69
-74
-62
-72
-64
-52
-64
-63
-58
-69
-81
-67
-75
-70
-66
-67
-64
-57
-69
-69
-66
-66
-60
-59
-73
-66
-74
-61
-63
-62
-64
-62
-74
-79
-61
-55
-67
-67
-70
-71
-71
-66
-57
-57
-53
-55
-57
-51
-60
-65
-62
-61
-56
-48
-49
-56
-56
-56
-50
-38
-40
-36
-36
-37
-44
-50
-43
-50
-59
-49
-55
-51
-60
-51
-55
-49
-61
-56
-56
-57
-62
-63
-59
-56
-65
-72
-69
-68
-72
-65
-60
-65
-66
-69
-68
-75
-69
-72
-73
-71
-68
-67
-68
-72
-73
-76
-69
-75
-90
-79
-79
-70
-62
-37
-15
9
28
38
54
31
27
28
13
-11
-28
-44
-77
-91
-95
-99
-98
-104
-100
-105
-114
-115
-112
-98
-100
-86
-79
-83
-77
-76
-76
-68
-73
-73
-69
-56
-63
-63
-67
-65
-71
-75
-64
-61
-67
-68
-70
-66
-63
-66
-66
-60
-61
-62
-66
-54
-57
-72
-68
-63
-70
-67
-65
-66
-64
-60
-60
-58
-56
-64
-71
-62
-63
-64
-59
-61
-64
-60
-49
-55
-55
-57
-64
-58
-71
-59
-63
-59
-54
-44
-41
-42
-52
-54
-58
-48
-53
-48
-45
-38
-42
-45
-45
-46
-47
-49
-48
-50
-48
-36
-32
-34
-37
-42
-51
-53
-34
-27
-22
-23
-25
-21
-25
-23
-22
-21
-17
-15
-22
-25
-10
-3
-17
-12
-16
-10
-5
-10
-7
-12
-10
0
-10
2
-6
-12
-14
-17
-19
-8
-6
-4
-5
-13
-22
-16
-17
-20
-29
-41
-42
-40
-37
-35
-31
-41
-50
-56
-48
-48
-55
-60
-65
-62
-53
-51
-59
-67
-76
-64
-60
-63
-59
-67
-63
-50
-57
-66
-74
-72
-66
-78
-64
-57
-70
-65
-59
-62
-77
-74
-68
-62
-74
-65
-69
-64
-65
-68
-69
-62
-63
-72
-71
-83
-76
-67
-62
-60
-64
-66
-66
-75
-71
-72
-69
-76
-59
-66
-62
-63
-65
-68
-69
-80
-70
-75
-72
-74
-71
-59
-55
-56
-64
-65
-56
-62
-62
-58
-61
-73
-67
-66
-69
-64
-61
-68
-66
-62
-54
-65
-60
-66
-82
-66
-63
-76
-68
-66
-62
-66
-74
-73
-65
-66
-68
-74
-65
-63
-67
-73
-67
-70
-66
-63
-76
-63
-53
-71
-71
-70
-70
-71
-59
-62
-74
-67
-57
-66
-69
-66
-61
-60
-65
-62
-63
-61
-68
-72
-73
-72
-78
-81
-74
-69
-62
-67
-69
-61
-62
-67
-58
-67
-77
-76
-75
-67
-58
-69
-69
-65
-71
-70
-69
-68
-67
-66
-60
-66
-60
-60
-70
-76
-76
-66
-68
-60
-67
-74
-81
-77
-71
-63
-64
-71
-72
-70
-62
-62
-66
-76
-72
