-242
-216
-190
-193
-188
-164
-145
-148
-185
-206
-246
-203
-190
-202
-178
-170
-143
-145
-179
-209
-239
-209
-196
-189
-175
-169
-132
-163
-184
-213
-234
-206
-197
-192
-173
-160
-152
-148
-181
-210
-237
-198
-202
-200
-179
-156
-135
-158
-179
-210
-232
-193
-207
-189
-170
-171
-145
-158
-189
-214
-230
-198
-194
-181
-176
-175
-145
-161
-178
-220
-234
-203
-200
-188
-177
-171
-137
-162
-191
-225
-225
-202
-195
-188
-169
-168
-168
-163
-178
-231
-225
-211
-203
-184
-180
-161
-143
-180
-191
-229
-224
-207
-195
-196
-168
-159
-139
-186
-184
-233
-221
-209
-203
-188
-171
-164
-150
-173
-189
-238
-217
-206
-190
-183
-188
-168
-156
-182
-188
-231
-225
-204
-193
-186
-176
-156
-149
-186
-201
-230
-219
-200
-198
-179
-176
-161
-154
-185
-206
-241
-213
-203
-198
-177
-172
-142
-167
-175
-197
-240
-213
-203
-199
-174
-171
-147
-154
-179
-209
-244
-211
-193
-183
-162
-167
-129
-143
-178
-205
-234
-204
-188
-188
-179
-164
-136
-146
-192
-213
-221
-197
-203
-190
-164
-164
-131
-151
-182
-216
-245
-210
-206
-198
-183
-176
-148
-171
-188
-229
-245
-207
-208
-202
-190
-199
-147
-167
-192
-231
-244
-206
-217
-202
-182
-173
-140
-178
-202
-240
-236
-214
-214
-200
-178
-183
-149
-178
-190
-231
-243
-210
-221
-216
-207
-196
-168
-190
-199
-228
-195
-155
-140
-120
-87
-57
-20
-19
-45
-92
-86
-74
-96
-102
-106
-119
-124
-162
-178
-228
-216
-208
-205
-204
-183
-166
-160
-182
-197
-246
-221
-208
-203
-187
-175
-163
-155
-188
-201
-241
-216
-211
-197
-187
-176
-164
-168
-188
-208
-238
-215
-209
-209
-183
-168
-155
-153
-175
-217
-247
-214
-202
-203
-189
-178
-145
-151
-187
-211
-250
-209
-208
-201
-179
-176
-150
-161
-192
-210
-245
-207
-204
-192
-171
-175
-141
-157
-183
-213
-240
-215
-194
-195
-174
-176
-157
-155
-184
-231
-237
-192
-197
-183
-167
-167
-139
-149
-177
-207
-236
-191
-201
-185
-167
-159
-126
-156
-172
-214
-217
-189
-191
-178
-151
-151
-125
-146
-163
-203
-217
-179
-183
-172
-156
-137
-123
-140
-166
-204
-208
-175
-172
-164
-144
-141
-122
-150
-167
-211
-207
-187
-184
-165
-147
-170
-133
-147
-173
-225
-213
-199
-192
-185
-164
-155
-134
-169
-200
-236
-227
-204
-200
-196
-176
-166
-149
-186
-204
-245
-217
-209
-206
-196
-181
-155
-155
-183
-187
-250
-231
-219
-204
-198
-176
-164
-161
-189
-196
-251
-224
-211
-207
-180
-179
-152
-163
-191
-220
-244
-219
-225
-213
-190
-170
-147
-156
-193
-228
-252
-226
-219
-200
-190
-177
-145
-164
-185
-219
-262
-221
-202
-196
-183
-184
-151
-161
-201
-234
-245
-216
-208
-202
-180
-177
-160
-170
-194
-224
-249
-220
-217
-200
-192
-178
-148
-170
-193
-231
-248
-213
-221
-204
-173
-174
-156
-170
-194
-231
-245
-226
-216
-204
-183
-180
-154
-174
-199
-237
-254
-219
-219
-192
-193
-182
-153
-173
-197
-242
-238
-210
-216
-204
-182
-188
-151
-183
-199
-238
-243
-219
-209
-206
-189
-180
-160
-178
-195
-248
-228
-213
-219
-208
-190
-183
-153
-185
-200
-245
-225
-230
-211
-199
-197
-173
-157
-180
-207
-255
-220
-213
-220
-197
-191
-173
-154
-183
-208
-251
-226
-220
-212
-191
-180
-176
-163
-187
-230
-261
-231
-207
-207
-187
-182
-154
-158
-193
-216
-249
-223
-223
-193
-184
-193
-157
-163
-190
-215
-248
-205
-210
-218
-190
-175
-136
-157
-183
-215
-243
-209
-209
-197
-176
-169
-146
-157
-190
-217
-239
-216
-214
-206
-183
-171
-144
-167
-187
-226
-245
-221
-216
-209
-185
-184
-165
-168
-210
-233
-248
-209
-237
-210
-197
-177
-156
-168
-214
-245
-266
-226
-216
-209
-191
-191
-163
-182
-209
-249
-259
-219
-218
-211
-194
-191
-158
-186
-212
-249
-251
-222
-224
-222
-215
-206
-185
-207
-220
-254
-228
-188
-182
-142
-107
-91
-37
-51
-55
-84
-67
-63
-73
-86
-88
-109
-104
-150
-178
-235
-226
-210
-202
-199
-178
-177
-154
-191
-201
-255
-229
-218
-216
-204
-189
-172
-164
-200
-210
-255
-229
-225
-211
-188
-176
-164
-169
-203
-220
-254
-231
-213
-201
-192
-181
-162
-156
-202
-223
-257
-218
-216
-215
-194
-180
-151
-152
-197
-222
-256
-226
-220
-205
-185
-184
-153
-182
-193
-218
-251
-214
-212
-202
-187
-183
-160
-165
-194
-223
-249
-219
-220
-203
-183
-179
-152
-158
-185
-222
-243
-209
-215
-191
-179
-180
-147
-151
-187
-221
-234
-201
-206
-193
-182
-176
-140
-162
-175
-210
-237
-190
-202
-198
-168
-164
-143
-147
-164
-209
-220
-186
-188
-178
-163
-154
-125
-155
-169
-211
-212
-185
-187
-170
-151
-147
-135
-149
-187
-212
-211
-191
-181
-173
-158
-158
-133
-165
-184
-234
-219
-201
-196
-194
-175
-161
-145
-161
-198
-251
-217
-209
-201
-195
-178
-164
-163
-190
-201
-248
-223
-213
-209
-203
-186
-168
-164
-191
-215
-250
-239
-218
-201
-194
-187
-158
-172
-209
-208
-240
-225
-218
-208
-198
-183
-165
-166
-188
-227
-257
-215
-213
-208
-190
-186
-170
-161
-201
-215
-249
-220
-221
-211
-190
-180
-156
-163
-205
-221
-264
-226
-216
-209
-196
-186
-164
-169
-210
-232
-257
-228
-209
-199
-180
-194
-163
-177
-193
-227
-266
-225
-222
-198
-185
-185
-160
-170
-200
-235
-260
-227
-223
-206
-189
-193
-149
-173
-204
-240
-254
-222
-214
-207
-192
-186
-162
-176
-202
-237
-269
-219
-216
-207
-186
-190
-170
-195
-199
-247
-255
-209
-217
-211
-187
-184
-155
-191
-210
-257
-240
-222
-211
-203
-187
-187
-160
-199
-205
-250
-247
-218
-217
-197
-184
-184
-158
-194
-208
-255
-236
-213
-208
-208
-200
-168
-164
-202
-218
-261
-229
-224
-219
-193
-191
-182
-167
-201
-210
-251
-229
-215
-217
-201
-185
-162
-174
-199
-217
-252
-240
-217
-211
-192
-191
-152
-176
-198
-225
-266
-221
-221
-215
-189
-183
-166
-171
-201
-222
-251
-227
-226
-206
-193
-185
-159
-164
-186
-222
-268
-222
-214
-200
-182
-179
-153
-167
-182
-221
-250
-208
-209
-204
-193
-176
-148
-163
-185
-222
-257
-220
-207
-200
-189
-179
-168
-160
-187
-225
-247
-230
-226
-214
-193
-195
-156
-181
-209
-241
-262
-230
-227
-207
-188
-193
-161
-186
-212
-244
-254
-231
-228
-209
-201
-201
-164
-193
-222
-243
-250
-225
-226
-219
-194
-193
-168
-198
-205
-257
-252
-238
-232
-230
-218
-222
-198
-197
-206
-234
-199
-161
-137
-109
-77
-45
-10
-20
-33
-91
-80
-83
-102
-122
-136
-151
-136
-169
-204
-250
-236
-226
-214
-213
-180
-173
-172
-189
-209
-259
-231
-218
-209
-207
-187
-169
-173
-197
-215
-267
-235
-222
-216
-196
-192
-173
-168
-191
-235
-272
-230
-214
-210
-192
-185
-166
-170
-205
-221
-260
-228
-221
-212
-190
-183
-160
-177
-189
-234
-274
-234
-213
-200
-198
-192
-162
-161
-194
-231
-256
-221
-217
-209
-187
-177
-144
-173
-198
-228
-274
-217
-212
-203
-189
-180
-155
-170
-197
-229
-256
-208
-209
-193
-177
-188
-150
-162
-190
-222
-240
-214
-206
-192
-175
-178
-141
-160
-175
-225
-234
-202
-195
-179
-154
-165
-139
-157
-180
-211
-227
-202
-186
-177
-161
-151
-124
-157
-183
-220
-209
-186
-184
-177
-161
-158
-132
-161
-182
-225
-205
-188
-192
-184
-160
-152
-148
-175
-189
-232
-216
-195
-197
-193
-183
-162
-154
-182
-200
-236
-217
-209
-221
-201
-187
-162
-154
-199
-210
-252
-231
-227
-211
-205
-192
-167
-164
-194
-218
-261
-229
-226
-214
-186
-174
-171
-178
-201
-216
-255
-228
-208
-210
-202
-193
-160
-170
-192
-230
-266
-222
-212
-208
-196
-189
-160
-175
-195
-230
-259
-226
-218
-221
-191
-186
-163
-175
-197
-237
-264
-226
-215
-207
-181
-190
-163
-177
-196
-237
-264
-222
-226
-210
-195
-189
-155
-171
-207
-242
-263
-217
-213
-213
-188
-192
-165
-174
-197
-243
-256
-232
-223
-209
-191
-194
-163
-170
-207
-242
-252
-229
-227
-211
-194
-189
-168
-184
-209
-244
-248
-220
-220
-216
-191
-179
-165
-191
-217
-251
-245
-222
-213
-208
-194
-192
-165
-195
-210
-240
-235
-227
-216
-208
-184
-190
-180
-197
-207
-259
-236
-223
-222
-207
-190
-182
-160
-202
-206
-249
-226
-231
-228
-213
-186
-171
-163
-201
-217
-270
-225
-213
-208
-200
-189
-164
-169
-196
-221
-270
-238
-216
-217
-195
-183
-167
-170
-208
-226
-264
-235
-225
-210
-185
-176
-164
-168
-193
-230
-251
-228
-216
-204
-176
-167
-152
-162
-182
-221
-266
-214
-205
-197
-193
-191
-149
-157
-181
-237
-250
-216
-203
-199
-184
-179
-140
-163
-204
-232
-261
-227
-221
-210
-192
-178
-163
-180
-212
-247
-261
-227
-227
-206
-206
-198
-170
-201
-215
-244
-263
-220
-229
-219
-206
-195
-163
-193
-206
-251
-253
-232
-225
-216
-204
-212
-172
-186
-211
-257
-259
-251
-258
-242
-228
-216
-166
-187
-184
-203
-170
-134
-110
-63
-23
4
44
18
-18
-84
-101
-102
-123
-132
-149
-159
-144
-178
-196
-255
-238
-227
-217
-204
-187
-176
-168
-193
-209
-267
-232
-224
-229
-211
-189
-170
-172
-199
-213
-259
-240
-231
-211
-206
-196
-177
-162
-192
-215
-269
-240
-223
-205
-187
-185
-177
-172
-200
-228
-261
-222
-225
-218
-201
-186
-159
-164
-199
-224
-248
-225
-226
-223
-183
-178
-160
-159
-199
-227
-262
-222
-217
-220
-189
-192
-151
-163
-196
-222
-246
-216
-210
-198
-192
-191
-141
-164
-184
-224
-254
-215
-210
-197
-180
-167
-138
-162
-197
-224
-244
-206
-193
-177
-158
-169
-143
-161
-180
-206
-222
-199
-195
-184
-164
-162
-135
-149
-168
-203
-213
-195
-183
-165
-148
-157
-126
-148
-161
-209
-210
-184
-179
-172
-164
-145
-114
-153
-178
-221
-210
-195
-195
-184
-156
-151
-133
-164
-179
-240
-216
-201
-193
-185
-171
-161
-150
-191
-190
-240
-225
-211
-209
-195
-175
-175
-154
-188
-219
-255
-230
-214
-213
-196
-186
-161
-170
-198
-213
-260
-219
-214
-211
-201
-184
-171
-170
-198
-213
-248
-232
-231
-211
-190
-190
-171
-171
-190
-223
-258
-223
-218
-209
-183
-178
-164
-171
-198
-229
-258
-219
-216
-201
-192
-189
-173
-166
-197
-229
-262
-225
-220
-206
-189
-181
-162
-186
-197
-230
-250
-224
-222
-205
-195
-201
-167
-176
-197
-247
-269
-221
-215
-209
-198
-185
-159
-179
-210
-238
-257
-216
-219
-207
-202
-197
-161
-179
-205
-253
-263
-224
-219
-202
-186
-190
-164
-183
-206
-255
-250
-220
-219
-218
-199
-190
-158
-203
-203
-247
-241
-236
-222
-216
-181
-173
-168
-195
-214
-251
-238
-220
-220
-207
-206
-184
-167
-193
-210
-255
-246
-240
-218
-205
-183
-182
-164
-203
-203
-264
-234
-217
-216
-210
-181
-180
-174
-185
-206
-259
-229
-216
-212
-190
-188
-161
-153
-198
-207
-255
-223
-207
-199
-175
-171
-166
-149
-179
-207
-239
-207
-199
-194
-185
-184
-154
-160
-185
-216
-254
-214
-209
-194
-184
-178
-144
-158
-200
-243
-260
-223
-212
-204
-194
-194
-173
-178
-208
-236
-265
-232
-219
-207
-202
-203
-168
-175
-205
-251
-275
-226
-221
-223
-199
-193
-172
-184
-211
-243
-262
-238
-221
-219
-195
-193
-160
-188
-215
-270
-277
-252
-261
-240
-222
-202
-148
-147
-147
-164
-161
-100
-67
-30
7
15
19
-5
-36
-117
-145
-155
-179
-196
-181
-189
-172
-203
-214
-249
-246
-234
-234
-216
-198
-184
-163
-195
-210
-254
-243
-228
-226
-205
-195
-170
-160
-192
-213
-243
-244
-217
-214
-209
-191
-174
-169
-197
-210
-251
-227
-228
-225
-212
-191
-163
-157
-195
-206
-254
-223
-220
-210
-197
-183
-166
-170
-197
-215
-254
-223
-219
-208
-179
-171
-165
-166
-188
-217
-253
-217
-205
-203
-183
-183
-152
-149
-190
-224
-255
-206
-205
-193
-185
-172
-155
-157
-179
-236
-242
-208
-200
-185
-166
-161
-146
-156
-180
-212
-232
-201
-190
-177
-171
-167
-123
-142
-164
-206
-223
-197
-189
-178
-152
-150
-120
-140
-160
-199
-209
-186
-187
-170
-149
-152
-120
-134
-160
-203
-215
-179
-171
-168
-151
-157
-123
-136
-173
-210
-209
-187
-193
-178
-160
-166
-133
-157
-183
-211
-233
-202
-206
-196
-168
-168
-150
-178
-205
-236
-233
-210
-212
-202
-191
-185
-163
-187
-195
-243
-233
-216
-217
-217
-187
-179
-167
-194
-202
-256
-231
-219
-215
-212
-202
-185
-151
-184
-205
-257
-238
-221
-208
-208
-195
-172
-166
-195
-208
-256
-235
-216
-207
-183
-180
-171
-177
-197
-219
-255
-225
-214
-204
-199
-194
-176
-169
-200
-224
-262
-224
-220
-205
-188
-190
-164
-173
-205
-222
-267
-234
-220
-210
-203
-188
-165
-183
-200
-231
-262
-225
-218
-212
-192
-187
-168
-175
-208
-235
-262
-231
-226
-216
-206
-186
-160
-180
-203
-236
-270
-221
-235
-219
-191
-194
-172
-183
-206
-239
-261
-223
-233
-227
-200
-185
-153
-178
-229
-259
-266
-234
-222
-209
-201
-206
-186
-186
-163
-181
-197
-238
-250
-206
-207
-196
-186
-182
-143
-177
-213
-242
-238
-220
-210
-205
-186
-183
-166
-189
-203
-248
-243
-219
-212
-205
-196
-186
-168
-204
-212
-259
-240
-235
-220
-215
-201
-190
-172
-208
-221
-272
-247
-240
-224
-217
-206
-184
-183
-208
-229
-277
-246
-229
-217
-209
-205
-195
-188
-214
-237
-275
-249
-231
-223
-202
-216
-185
-200
-224
-254
-296
-246
-230
-201
-174
-149
-105
-87
-103
-113
-153
-79
-81
-76
-69
-90
-79
-114
-168
-224
-266
-240
-241
-241
-219
-216
-181
-207
-231
-253
-286
-246
-246
-226
-196
-205
-171
-194
-212
-243
-263
-234
-230
-223
-201
-197
-182
-195
-223
-240
-251
-234
-226
-218
-205
-196
-177
-181
-210
-246
-263
-232
-229
-212
-200
-207
-170
-191
-204
-239
-252
-224
-241
-224
-204
-196
-161
-190
-209
-260
-245
-226
-219
-214
-187
-197
-156
-185
-202
-256
-246
-225
-229
-195
-188
-177
-165
-171
-198
-256
-235
-219
-215
-204
-185
-178
-145
-186
-194
-245
-225
-211
-198
-193
-176
-158
-153
-178
-189
-225
-218
-208
-190
-182
-171
-148
-136
-176
-178
-231
-196
-198
-183
-161
-154
-144
-142
-168
-185
-223
-195
-189
-179
-158
-151
-139
-142
-161
-185
-224
-195
-191
-184
-159
-163
-138
-139
-167
-212
-244
-215
-206
-195
-174
-173
-151
-156
-190
-212
-251
-225
-217
-202
-194
-183
-155
-175
-205
-238
-268
-235
-223
-210
-189
-184
-173
-185
-204
-244
-263
-233
-226
-216
-187
-196
-175
-184
-202
-244
-270
-230
-238
-217
-202
-203
-161
-181
-206
-249
-263
-224
-220
-215
-195
-188
-172
-191
-201
-246
-260
-233
-218
-217
-195
-201
-166
-193
-197
-249
-248
-226
-219
-213
-189
-191
-164
-200
-204
-243
-245
-229
-221
-205
-189
-182
-174
-191
-205
-267
-242
-227
-220
-214
-197
-183
-170
-194
-205
-248
-233
-227
-227
-209
-178
-173
-179
-202
-225
-255
-241
-226
-224
-214
-201
-178
-180
-202
-221
-274
-245
-217
-220
-216
-192
-172
-179
-218
-229
-268
-241
-228
-226
-203
-188
-176
-168
-211
-234
-268
-232
-215
-217
-196
-195
-161
-168
-199
-227
-261
-230
-208
-212
-203
-186
-165
-171
-208
-233
-255
-225
-227
-218
-205
-208
-181
-177
-212
-245
-282
-254
-234
-227
-216
-212
-174
-196
-224
-250
-283
-247
-239
-224
-219
-211
-190
-199
-224
-266
-284
-253
-248
-237
-214
-220
-194
-201
-221
-267
-281
-243
-258
-233
-207
-219
-190
-209
-239
-287
-300
-275
-267
-253
-231
-214
-173
-182
-168
-186
-165
-122
-96
-67
-39
-30
-12
-47
-85
-150
-172
-180
-211
-197
-193
-193
-175
-212
-221
-269
-265
-243
-243
-226
-227
-210
-181
-211
-232
-275
-242
-247
-234
-227
-211
-190
-187
-219
-229
-286
-252
-236
-240
-214
-213
-199
-186
-209
-233
-274
-239
-234
-234
-207
-202
-188
-190
-228
-245
-276
-243
-235
-229
-214
-202
-173
-189
-206
-246
-283
-238
-230
-224
-195
-197
-183
-190
-209
-237
-263
-230
-234
-235
-201
-200
-171
-186
-203
-239
-264
-237
-227
-212
-195
-203
-166
-170
-184
-240
-271
-225
-230
-212
-205
-183
-151
-160
-207
-240
-253
-218
-221
-203
-183
-172
-156
-167
-184
-220
-242
-209
-210
-200
-176
-161
-155
-167
-183
-228
-236
-200
-204
-185
-166
-174
-141
-163
-185
-223
-231
-197
-201
-194
-176
-166
-142
-161
-180
-234
-237
-216
-209
-199
-176
-172
-147
-188
-202
-246
-239
-231
-224
-202
-185
-185
-171
-183
-218
-257
-242
-227
-216
-216
-198
-196
-171
-194
-212
-262
-243
-226
-222
-223
-195
-177
-168
-202
-216
-266
-236
-227
-225
-206
-200
-184
-173
-198
-221
-267
-236
-225
-220
-217
-201
-169
-176
-208
-231
-258
-235
-223
-218
-195
-201
-173
-172
-203
-233
-265
-226
-217
-215
-204
-198
-176
-191
-203
-231
-257
-225
-225
-208
-190
-196
-174
-175
-195
-236
-266
-220
-219
-221
-201
-208
-164
-186
-199
-242
-257
-222
-236
-218
-188
-191
-166
-176
-210
-240
-268
-228
-226
-208
-185
-196
-164
-180
-214
-246
-271
-228
-217
-203
-200
-203
-157
-188
-216
-238
-260
-229
-229
-213
-193
-199
-173
-180
-216
-249
-245
-217
-229
-210
-191
-179
-170
-200
-213
-254
-247
-234
-213
-196
-190
-191
-163
-184
-202
-245
-242
-220
-219
-197
-175
-172
-151
-175
-198
-238
-223
-223
-199
-193
-178
-162
-158
-178
-193
-243
-236
-239
-224
-210
-189
-172
-166
-196
-207
-263
-235
-226
-237
-199
-190
-172
-172
-196
-216
-270
-234
-226
-227
-205
-187
-179
-182
-196
-222
-259
-242
-224
-219
-200
-195
-168
-182
-211
-227
-259
-239
-223
-210
-198
-200
-175
-192
-221
-261
-292
-257
-251
-242
-197
-174
-129
-110
-120
-131
-139
-79
-57
-26
1
-4
15
-25
-76
-127
-189
-176
-194
-180
-173
-167
-151
-175
-198
-232
-247
-226
-215
-218
-193
-191
-158
-169
-206
-250
-258
-235
-216
-206
-197
-201
-161
-176
-196
-238
-264
-228
-220
-208
-184
-188
-168
-193
-193
-252
-257
-224
-220
-207
-187
-191
-150
-184
-200
-248
-240
-224
-214
-198
-188
-185
-156
-182
-200
-258
-238
-216
-206
-205
-189
-178
-160
-185
-198
-253
-230
-211
-212
-201
-183
-169
-150
-194
-202
-247
-239
-197
-205
-193
-176
-167
-159
-191
-195
-240
-204
-208
-205
-188
-169
-150
-154
-172
-190
-231
-215
-200
-188
-172
-167
-135
-149
-163
-187
-225
-200
-188
-184
-161
-166
-133
-134
-170
-178
-220
-191
-194
-186
-154
-162
-110
-128
-158
-191
-222
-198
-183
-181
-158
-163
-134
-134
-169
-212
-235
-204
-202
-185
-172
-176
-142
-147
-180
-213
-246
-212
-210
-195
-185
-182
-149
-174
-201
-231
-248
-215
-226
-205
-201
-192
-151
-164
-199
-250
-253
-225
-212
-199
-190
-196
-157
-170
-202
-234
-251
-220
-214
-201
-194
-191
-160
-180
-204
-236
-244
-224
-225
-213
-188
-194
-156
-180
-211
-246
-242
-235
-223
-193
-186
-182
-155
-194
-197
-249
-236
-227
-207
-197
-198
-181
-153
-179
-211
-252
-231
-222
-206
-209
-188
-182
-154
-189
-205
-248
-231
-213
-214
-203
-187
-176
-179
-186
-209
-256
-239
-218
-207
-196
-188
-172
-168
-202
-212
-243
-233
-226
-211
-190
-194
-166
-166
-199
-222
-254
-231
-219
-205
-191
-182
-161
-172
-200
-229
-263
-232
-217
-212
-187
-187
-153
-179
-197
-238
-263
-225
-215
-210
-201
-199
-163
-171
-195
-232
-258
-214
-232
-212
-191
-176
-169
-173
-212
-237
-258
-223
-215
-210
-192
-186
-161
-172
-204
-242
-255
-223
-224
-208
-194
-191
-158
-177
-197
-245
-256
-237
-218
-200
-187
-199
-161
-177
-193
-246
-251
-225
-216
-215
-190
-188
-162
-177
-194
-239
-240
-222
-222
-193
-178
-184
-147
-177
-198
-232
-228
-213
-207
-192
-178
-169
-154
-172
-194
-235
-222
-209
-204
-197
-171
-160
-149
-191
-200
-251
-223
-225
-216
-204
-191
-167
-165
-194
-202
-259
-238
-219
-213
-202
-192
-169
-172
-204
-201
-257
-243
-230
-216
-193
-192
-163
-173
-206
-214
-257
-229
-220
-212
-206
-188
-177
-178
-196
-217
-248
-229
-233
-222
-221
-216
-189
-188
-213
-231
-269
-201
-176
-147
-99
-78
-33
-23
-27
-52
-78
-46
-60
-70
-81
-100
-97
-131
-166
-207
-256
-217
-206
-206
-187
-190
-163
-186
-194
-232
-252
-222
-226
-203
-197
-192
-155
-163
-193
-234
-257
-217
-227
-206
-193
-192
-160
-174
-199
-235
-247
-217
-212
-201
-192
-192
-156
-183
-199
-244
-250
-219
-218
-198
-177
-184
-158
-176
-205
-260
-233
-217
-215
-208
-181
-180
-149
-177
-191
-233
-233
-216
-201
-196
-199
-177
-152
-177
-196
-244
-224
-206
-199
-193
-178
-182
-156
-174
-202
-236
-225
-202
-191
-186
-175
-158
-148
-188
-191
-230
-220
-203
-188
-180
-154
-138
-151
-174
-186
-230
-207
-180
-176
-164
-156
-137
-137
-165
-194
-227
-200
-177
-182
-158
-150
-128
-133
-158
-180
-209
-189
-185
-164
-147
-166
-138
-142
-164
-190
-224
-190
-176
-189
-149
-152
-139
-142
-165
-205
-230
-203
-194
-189
-181
-163
-137
-164
-187
-211
-249
-211
-214
-204
-191
-178
-153
-171
-192
-235
-247
-214
-217
-209
-186
-190
-156
-163
-194
-229
-251
-225
-218
-207
-186
-183
-154
-175
-193
-235
-257
-215
-214
-214
-188
-184
-158
-176
-192
-236
-247
-223
-217
-202
-188
-179
-153
-170
-198
-247
-239
-216
-219
-212
-172
-184
-162
-179
-205
-239
-229
-214
-211
-206
-179
-181
-166
-188
-203
-246
-231
-210
-206
-191
-180
-170
-156
-175
-203
-271
-232
-210
-207
-199
-186
-171
-159
-185
-199
-252
-227
-216
-211
-195
-183
-161
-156
-190
-220
-243
-216
-210
-199
-207
-180
-166
-169
-187
-212
-262
-221
-211
-204
-188
-180
-169
-171
-193
-215
-251
-223
-216
-203
-188
-176
-166
-174
-188
-225
-258
-213
-219
-205
-187
-186
-163
-168
-200
-231
-259
-229
-218
-211
-183
-166
-158
-164
-193
-233
-259
-217
-210
-199
-191
-194
-153
-167
-200
-233
-265
-223
-215
-201
-181
-188
-153
-163
-204
-238
-258
-214
-219
-205
-189
-182
-143
-165
-202
-225
-251
-216
-211
-196
-179
-173
-163
-172
-188
-229
-233
-202
-201
-184
-165
-179
-143
-171
-194
-234
-226
-196
-194
-199
-184
-169
-150
-175
-191
-245
-231
-213
-214
-201
-184
-181
-149
-189
-201
-256
-242
-213
-208
-199
-203
-182
-160
-197
-211
-246
-233
-219
-213
-211
-183
-169
-159
-192
-201
-243
-223
-217
-223
-199
-183
-181
-177
-189
-211
-256
-231
-225
-210
-198
-188
-182
-193
-211
-234
-268
-224
-201
-181
-131
-103
-74
-66
-82
-81
-90
-65
-68
-67
-65
-90
-75
-110
-162
-210
-252
-223
-219
-210
-199
-199
-167
-180
-199
-231
-252
-232
-215
-211
-191
-184
-156
-167
-198
-232
-265
-219
-211
-195
-185
-190
-159
-164
-193
-222
-273
-220
-206
-198
-188
-184
-160
-167
-194
-218
-244
-209
-204
-195
-191
-182
-159
-166
-194
-230
-243
-203
-215
-197
-177
-178
-147
-164
-202
-237
-233
-211
-216
-193
-176
-169
-141
-174
-199
-233
-228
-211
-201
-200
-167
-165
-155
-171
-189
-232
-219
-201
-188
-190
-167
-158
-145
-181
-176
-222
-202
-194
-192
-176
-159
-145
-137
-159
-166
-226
-207
-190
-185
-163
-160
-144
-122
-154
-168
-218
-195
-176
-169
-155
-135
-132
-127
-162
-172
-209
-178
-180
-174
-145
-144
-117
-122
-154
-174
-222
-193
-180
-179
-151
-144
-122
-144
-173
-196
-229
-189
-185
-183
-171
-168
-150
-152
-180
-211
-247
-217
-186
-192
-175
-192
-150
-159
-191
-222
-247
-217
-215
-202
-179
-174
-156
-174
-192
-217
-245
-229
-223
-198
-182
-185
-157
-170
-190
-226
-270
-218
-227
-205
-176
-174
-154
-171
-201
-236
-262
-215
-203
-206
-187
-181
-156
-162
-209
-242
-246
-208
-217
-199
-180
-182
-150
-180
-196
-241
-243
-211
-209
-197
-192
-181
-147
-178
-199
-237
-227
-205
-213
-205
-179
-175
-149
-177
-194
-237
-229
-210
-206
-193
-177
-177
-158
-179
-194
-238
-222
-208
-204
-186
-192
-167
-154
-191
-197
-245
-226
-219
-205
-194
-170
-159
-170
-193
-200
-254
-218
-217
-204
-197
-182
-156
-162
-187
-213
-248
-222
-211
-205
-196
-165
-157
-175
-187
-214
-256
-214
-202
-207
-190
-176
-150
-162
-193
-215
-247
-232
-229
-198
-177
-173
-148
-168
-199
-229
-253
-222
-214
-203
-188
-181
-149
-164
-186
-227
-258
-223
-217
-205
-185
-182
-149
-161
-186
-229
-260
-224
-212
-198
-177
-195
-152
-161
-205
-234
-246
-215
-223
-192
-164
-176
-151
-162
-194
-228
-243
-205
-211
-192
-163
-169
-145
-158
-184
-215
-232
-205
-204
-190
-171
-176
-138
-168
-190
-235
-229
-204
-204
-187
-162
-173
-158
-185
-181
-245
-243
-200
-206
-202
-185
-181
-161
-174
-186
-247
-242
-212
-223
-211
-179
-170
-157
-185
-207
-251
-235
-221
-206
-203
-189
-175
-159
-182
-203
-255
-229
-219
-207
-196
-174
-181
-175
-190
-207
-254
-238
-226
-207
-196
-217
-190
-198
-213
-233
-268
-213
-176
-155
-124
-113
-64
-40
-50
-53
-85
-48
-46
-53
-53
-76
-76
-109
-154
-188
-231
-214
-210
-201
-172
-174
-157
-175
-194
-225
-249
-218
-216
-202
-190
-179
-151
-167
-195
-235
-259
-218
-212
-201
-186
-175
-162
-170
-196
-238
-255
-200
-203
-208
-180
-191
-147
-172
-195
-239
-245
-217
-204
-202
-182
-182
-154
-170
-190
-227
-245
-213
-218
-203
-182
-174
-151
-169
-193
-233
-241
-209
-204
-195
-184
-179
-149
-176
-185
-230
-237
-210
-205
-186
-169
-157
-131
-175
-192
-232
-224
-209
-198
-184
-176
-166
-149
-168
-177
-226
-216
-199
-202
-178
-156
-159
-141
-161
-178
-227
-211
-188
-183
-169
-145
-143
-133
-162
-175
-215
-188
-180
-183
-170
-150
-130
-131
-154
-168
-205
-188
-178
-171
-155
-146
-133
-127
-149
-163
-219
-206
-181
-182
-160
-148
-130
-148
-164
-192
-229
-201
-196
-187
-175
-165
-145
-152
-180
-211
-241
-219
-203
-188
-183
-178
-161
-152
-184
-220
-252
-232
-211
-196
-176
-175
-148
-162
-196
-222
-254
-223
-208
-192
-189
-185
-154
-166
-186
-214
-264
-228
-226
-187
-178
-184
-147
-174
-194
-234
-255
-215
-208
-197
-193
-185
-156
-171
-198
-228
-243
-215
-212
-202
-177
-179
-159
-169
-199
-235
-235
-213
-208
-197
-185
-181
-153
-185
-197
-226
-232
-217
-219
-194
-191
-175
-154
-188
-201
-248
-230
-204
-209
-204
-175
-171
-151
-194
-206
-234
-231
-215
-201
-188
-175
-166
-164
-197
-202
-250
-225
-211
-223
-191
-176
-170
-153
-176
-186
-263
-230
-222
-216
-192
-170
-147
-169
-192
-204
-254
-224
-209
-216
-200
-179
-167
-160
-189
-210
-250
-225
-210
-222
-185
-176
-158
-158
-189
-217
-258
-221
-212
-208
-192
-174
-165
-161
-191
-218
-261
-224
-205
-213
-200
-173
-157
-166
-203
-225
-252
-231
-204
-204
-181
-177
-154
-168
-204
-223
-251
-224
-220
-207
-191
-174
-156
-168
-197
-235
-254
-219
-220
-208
-177
-181
-155
-156
-190
-239
-258
-222
-215
-200
-183
-185
-151
-183
-202
-228
-247
-217
-215
-198
-179
-185
-147
-164
-198
-226
-238
-214
-203
-200
-181
-174
-137
-156
-181
-227
-222
-204
-194
-185
-180
-174
-150
-168
-182
-228
-229
-210
-203
-192
-179
-163
-148
-186
-189
-237
-227
-219
-216
-194
-180
-175
-161
-196
-212
-250
-217
-226
-224
-200
-178
-165
-172
-192
-215
-251
-240
-218
-207
-203
-188
-173
-165
-193
-208
-257
-235
-221
-200
-204
-181
-166
-174
-194
-206
-251
-231
-216
-206
-214
-196
-184
-194
-219
-246
-265
-224
-186
-162
-123
-104
-64
-38
-44
-59
-80
-44
-43
-46
-48
-60
-61
-94
-157
-195
-229
-200
-202
-195
-173
-179
-164
-171
-197
-207
-258
-222
-220
-206
-181
-175
-158
-173
-189
-224
-251
-208
-214
-207
-187
-179
-155
-166
-196
-227
-261
-220
-221
-202
-180
-180
-151
-166
-193
-233
-249
-216
-209
-202
-191
-181
-151
-173
-200
-234
-237
-220
-209
-206
-186
-176
-147
-176
-198
-238
-232
-204
-200
-204
-186
-176
-144
-174
-187
-234
-226
-204
-205
-187
-168
-165
-155
-182
-186
-230
-218
-211
-198
-181
-172
-161
-137
-168
-189
-231
-207
-210
-200
-176
-162
-149
-142
-172
-189
-235
-205
-207
-197
-183
-168
-156
-137
-179
-193
-228
-210
-224
-201
-163
-170
-170
-150
-185
-206
-248
-217
-202
-199
-179
-168
-157
-151
-176
-202
-243
-206
-193
-186
-169
-167
-143
-155
-177
-204
-248
-208
-200
-190
-172
-171
-155
-150
-190
-224
-249
-211
-206
-196
-187
-185
-160
-163
-188
-218
-265
-219
-207
-191
-204
-189
-154
-170
-186
-231
-265
-220
-225
-205
-179
-175
-159
-170
-194
-237
-251
-216
-219
-206
-180
-187
-149
-174
-207
-236
-245
-221
-213
-199
-181
-180
-157
-187
-195
-235
-241
-216
-223
-197
-178
-181
-151
-187
-198
-239
-238
-222
-213
-190
-183
-178
-156
-183
-187
-243
-236
-211
-211
-195
-179
-171
-155
-197
-194
-232
-227
-211
-213
-196
-178
-166
-151
-188
-204
-241
-221
-206
-220
-199
-166
-166
-151
-201
-202
-239
-229
-216
-199
-188
-190
-165
-157
-185
-202
-246
-219
-206
-201
-193
-183
-152
-152
-197
-204
-254
-225
-217
-208
-188
-179
-157
-164
-185
-228
-248
-217
-212
-194
-181
-169
-164
-162
-186
-226
-260
-211
-207
-225
-184
-180
-154
-164
-188
-221
-250
-216
-211
-199
-192
-175
-158
-160
-192
-221
-247
-222
-212
-199
-188
-185
-151
-167
-190
-221
-251
-225
-220
-204
-182
-180
-160
-168
-193
-231
-244
-227
-221
-201
-184
-177
-154
-177
-208
-223
-241
-217
-217
-196
-191
-183
-157
-178
-195
-227
-234
-219
-213
-189
-175
-196
-154
-179
-193
-233
-244
-218
-199
-190
-174
-187
-151
-170
-195
-234
-225
-212
-214
-200
-174
-163
-148
-174
-188
-239
-210
-198
-193
-177
-180
-153
-143
-183
-184
-234
-212
-198
-198
-183
-164
-148
-149
-174
-183
-250
-219
-197
-188
-185
-174
-147
-156
-182
-200
-249
-222
-223
-194
-192
-187
-163
-164
-185
-209
-258
-223
-210
-210
-182
-179
-173
-157
-197
-221
-249
-213
-219
-208
-183
-182
-151
-162
-196
-226
-250
-219
-212
-210
-194
-184
-156
-165
-192
-224
-253
-224
-225
-218
-203
-201
-185
-188
-201
-212
-224
-167
-143
-112
-92
-59
-3
3
-15
-56
-93
-64
-98
-102
-99
-124
-122
-142
-177
-223
-242
-224
-214
-203
-192
-180
-159
-169
-193
-229
-244
-208
-208
-199
-179
-183
-154
-174
-192
-236
-248
-213
-208
-207
-179
-178
-152
-178
-197
-230
-228
-204
-204
-197
-181
-176
-148
-171
-193
-250
-226
-210
-204
-200
-182
-170
-147
-170
-180
-250
-220
-200
-197
-191
-171
-168
-152
-180
-184
-237
-237
-214
-209
-179
-170
-160
-144
-175
-189
-241
-216
-201
-199
-179
-164
-146
-145
-171
-199
-242
-211
-188
-181
-178
-162
-140
-143
-171
-192
-230
-207
-190
-179
-158
-148
-134
-129
-166
-193
-231
-192
-179
-171
-161
-144
-123
-128
-158
-178
-197
-192
-185
-181
-149
-137
-126
-124
-158
-184
-218
-181
-163
-157
-147
-146
-104
-135
-165
-193
-212
-176
-183
-171
-156
-156
-126
-135
-174
-202
-224
-193
-190
-181
-164
-158
-132
-151
-183
-224
-242
-206
-207
-192
-173
-179
-152
-160
-187
-226
-240
-198
-208
-194
-185
-171
-145
-165
-193
-233
-234
-205
-210
-193
-190
-183
-164
-169
-185
-233
-227
-206
-214
-190
-173
-172
-152
-175
-191
-242
-235
-214
-201
-193
-176
-171
-151
-181
-198
-254
-233
-200
-198
-183
-171
-166
-153
-173
-186
-248
-220
-203
-203
-193
-173
-158
-154
-182
-196
-251
-216
-205
-210
-186
-169
-151
-155
-175
-202
-248
-209
-213
-195
-179
-177
-164
-154
-186
-206
-249
-221
-197
-198
-186
-172
-146
-167
-191
-213
-243
-202
-208
-207
-182
-176
-147
-152
-192
-222
-249
-205
-202
-202
-181
-177
-147
-160
-193
-220
-255
-215
-204
-195
-173
-191
-151
-152
-190
-233
-252
-210
-208
-202
-175
-171
-148
-173
-199
-222
-245
-212
-209
-195
-167
-194
-159
-164
-184
-238
-249
-213
-205
-192
-180
-182
-152
-175
-191
-226
-241
-210
-205
-189
-181
-187
-155
-169
-193
-229
-233
-199
-211
-192
-172
-176
-151
-174
-193
-222
-224
-213
-205
-181
-163
-172
-144
-167
-181
-227
-205
-188
-199
-195
-158
-165
-142
-178
-188
-222
-217
-197
-190
-177
-165
-152
-151
-175
-185
-238
-212
-190
-193
-202
-180
-156
-157
-184
-195
-245
-216
-196
-193
-201
-180
-156
-165
-197
-197
-253
-212
-210
-206
-176
-177
-157
-163
-199
-214
-254
-217
-207
-204
-198
-180
-155
-158
-184
-220
-248
-217
-204
-198
-181
-180
-172
-166
-199
-235
-280
-237
-225
-211
-198
-176
-128
-128
-150
-158
-155
-110
-85
-56
-36
-18
13
-7
-48
-114
-164
-143
-160
-163
-154
-165
-143
-157
-190
-229
-253
-212
-209
-205
-174
-176
-146
-166
-192
-226
-243
-210
-208
-190
-176
-186
-147
-156
-187
-228
-243
-219
-210
-196
-172
-170
-158
-178
-183
-225
-236
-206
-199
-191
-180
-168
-144
-167
-184
-233
-227
-197
-200
-192
-177
-164
-147
-174
-189
-222
-226
-206
-210
-191
-171
-155
-143
-169
-188
-236
-214
-194
-195
-192
-163
-156
-139
-173
-185
-248
-210
-200
-192
-184
-160
-144
-133
-172
-179
-226
-204
-187
-182
-161
-154
-143
-147
-167
-180
-228
-189
-198
-185
-153
-144
-123
-138
-163
-180
-226
-190
-164
-169
-154
-141
-124
-121
-153
-187
-216
-176
-168
-163
-148
-147
-115
-133
-147
-185
-205
-174
-168
-167
-149
-145
-119
-132
-160
-195
-227
-187
-178
-160
-162
-159
-113
-145
-168
-202
-225
-196
-191
-180
-162
-158
-140
-158
-187
-226
-241
-206
-199
-185
-168
-167
-139
-162
-188
-231
-244
-211
-207
-190
-183
-171
-143
-163
-195
-229
-243
-215
-199
-184
-170
-180
-143
-162
-182
-234
-230
-200
-204
-200
-171
-179
-150
-182
-190
-234
-228
-196
-201
-200
-177
-177
-153
-174
-194
-238
-226
-205
-205
-191
-173
-162
-148
-180
-191
-244
-222
-203
-203
-189
-178
-158
-151
-179
-186
-236
-206
-205
-208
-183
-173
-154
-143
-180
-198
-244
-219
-205
-203
-192
-176
-150
-149
-172
-200
-248
-212
-204
-203
-176
-174
-146
-151
-177
-215
-245
-212
-198
-191
-166
-162
-151
-160
-182
-210
-249
-214
-204
-197
-178
-168
-152
-152
-192
-216
-235
-214
-198
-192
-172
-176
-147
-158
-183
-219
-249
-211
-200
-191
-171
-170
-139
-166
-186
-215
-259
-212
-205
-193
-173
-173
-141
-158
-190
-226
-251
-199
-191
-197
-181
-167
-149
-173
-194
-216
-231
-206
-212
-190
-184
-175
-137
-167
-193
-230
-220
-201
-216
-187
-169
-176
-139
-167
-191
-230
-219
-207
-204
-192
-168
-168
-142
-171
-172
-237
-205
-200
-199
-188
-175
-160
-138
-162
-189
-228
-203
-191
-179
-172
-158
-166
-135
-150
-172
-229
-200
-203
-188
-174
-166
-153
-131
-163
-179
-224
-210
-205
-179
-171
-160
-150
-143
-172
-193
-239
-213
-206
-193
-192
-170
-150
-151
-187
-206
-238
-215
-198
-197
-177
-175
-161
-154
-184
-204
-257
-216
-205
-198
-170
-166
-151
-158
-179
-209
-256
-219
-212
-198
-177
-171
-142
-164
-196
-231
-263
-236
-221
-211
-190
-167
-129
-127
-126
-136
-154
-90
-72
-35
-20
-13
14
-6
-53
-112
-153
-135
-154
-169
-159
-158
-137
-158
-173
-212
-237
-201
-199
-195
-172
-171
-139
-158
-187
-228
-235
-205
-208
-192
-175
-171
-140
-163
-176
-224
-231
-196
-204
-196
-175
-171
-134
-164
-180
-225
-228
-195
-206
-196
-166
-167
-148
-166
-181
-230
-210
-194
-191
-192
-173
-150
-128
-161
-180
-233
-224
-203
-187
-179
-165
-164
-144
-165
-178
-226
-206
-200
-184
-181
-163
-153
-139
-164
-177
-227
-208
-186
-184
-191
-154
-145
-136
-168
-180
-218
-190
-183
-177
-168
-150
-120
-136
-163
-176
-220
-192
-183
-172
-150
-148
-122
-130
-152
-176
-208
-188
-172
-158
-151
-140
-121
-110
-146
-184
-208
-176
-180
-164
-142
-131
-109
-115
-142
-188
-205
-171
-164
-160
-141
-133
-116
-121
-153
-184
-217
-181
-175
-165
-147
-145
-119
-133
-164
-197
-224
-188
-191
-174
-158
-159
-132
-147
-182
-217
-224
-184
-209
-188
-163
-160
-134
-157
-180
-229
-233
-195
-203
-184
-173
-166
-123
-156
-185
-224
-229
-192
-199
-192
-167
-169
-135
-166
-173
-219
-233
-210
-185
-189
-175
-165
-130
-157
-186
-227
-224
-205
-194
-175
-172
-166
-140
-167
-178
-229
-215
-194
-191
-193
-163
-154
-150
-172
-185
-236
-208
-197
-184
-179
-172
-154
-151
-172
-178
-234
-204
-200
-191
-177
-169
-155
-136
-175
-191
-242
-201
-193
-188
-177
-163
-140
-147
-177
-201
-236
-204
-193
-184
-167
-167
-146
-149
-168
-213
-240
-198
-197
-190
-173
-174
-135
-145
-177
-215
-245
-206
-190
-189
-175
-170
-140
-142
-179
-198
-242
-203
-212
-204
-170
-155
-138
-157
-176
-207
-233
-203
-209
-181
-169
-163
-151
-142
-190
-219
-243
-206
-202
-179
-166
-167
-144
-158
-181
-203
-236
-204
-210
-189
-179
-171
-141
-146
-179
-230
-235
-200
-192
-189
-180
-171
-119
-154
-182
-219
-228
-203
-195
-185
-166
-150
-134
-172
-186
-218
-218
-186
-186
-177
-154
-145
-128
-150
-170
-205
-194
-185
-182
-181
-162
-148
-134
-154
-175
-226
-199
-183
-185
-183
-165
-134
-125
-168
-184
-223
-198
-190
-190
-177
-159
-152
-158
-177
-192
-236
-208
-191
-204
-186
-163
-148
-140
-172
-207
-243
-218
-191
-177
-177
-187
-147
-151
-180
-203
-240
-209
-195
-191
-179
-174
-142
-154
-179
-206
-247
-213
-204
-205
-192
-199
-177
-174
-187
-204
-226
-170
-143
-104
-82
-61
4
1
5
-22
-62
-49
-55
-52
-64
-95
-94
-119
-166
-197
-239
-194
-192
-190
-176
-166
-132
-145
-177
-211
-235
-197
-208
-188
-171
-156
-132
-170
-178
-218
-229
-194
-195
-189
-169
-169
-139
-165
-184
-212
-227
-200
-196
-183
-171
-175
-136
-151
-174
-220
-226
-196
-190
-179
-169
-164
-143
-157
-175
-231
-219
-189
-196
-182
-157
-156
-139
-154
-177
-226
-211
-190
-180
-182
-149
-155
-143
-162
-178
-220
-204
-192
-176
-168
-148
-152
-143
-161
-173
-219
-205
-185
-180
-164
-141
-136
-133
-165
-171
-212
-184
-174
-176
-159
-140
-127
-124
-151
-163
-220
-182
-171
-168
-150
-134
-116
-104
-146
-166
-213
-173
-154
-149
-130
-128
-108
-109
-141
-173
-199
-171
-159
-151
-135
-134
-109
-112
-151
-179
-207
-156
-167
-156
-131
-140
-113
-122
-155
-193
-217
-169
-181
-176
-142
-143
-136
-133
-162
-198
-229
-194
-190
-170
-154
-167
-125
-144
-171
-216
-236
-196
-206
-184
-159
-153
-132
-151
-175
-216
-229
-190
-206
-200
-151
-158
-137
-158
-178
-221
-217
-203
-191
-178
-156
-182
-144
-172
-172
-217
-221
-192
-180
-177
-156
-177
-140
-160
-182
-223
-215
-197
-195
-177
-156
-158
-131
-156
-181
-221
-210
-216
-191
-174
-157
-148
-146
-169
-182
-231
-207
-181
-185
-172
-157
-163
-143
-176
-177
-228
-201
-192
-188
-182
-157
-141
-134
-172
-189
-233
-202
-198
-185
-173
-162
-144
-151
-170
-186
-224
-206
-200
-192
-175
-160
-145
-138
-176
-206
-224
-195
-191
-189
-177
-169
-140
-156
-174
-194
-236
-198
-192
-187
-162
-157
-144
-153
-176
-204
-234
-205
-200
-188
-173
-160
-132
-146
-175
-216
-234
-201
-196
-186
-164
-165
-134
-142
-193
-214
-244
-188
-189
-180
-165
-165
-145
-154
-173
-195
-225
-192
-194
-178
-159
-152
-127
-140
-167
-200
-223
-187
-181
-168
-151
-159
-122
-135
-166
-203
-224
-186
-191
-184
-153
-154
-120
-137
-170
-209
-209
-194
-192
-176
-152
-154
-153
-165
-184
-231
-218
-198
-198
-184
-168
-154
-140
-163
-176
-235
-216
-208
-194
-183
-170
-159
-143
-177
-193
-231
-226
-192
-187
-175
-166
-156
-144
-179
-189
-235
-207
-191
-197
-183
-177
-162
-176
-205
-213
-249
-226
-195
-156
-132
-101
-50
-25
-54
-48
-63
-10
-15
-22
-16
-36
-34
-67
-124
-175
-215
-194
-190
-189
-171
-154
-140
-157
-190
-204
-240
-197
-178
-183
-169
-160
-139
-147
-180
-204
-229
-193
-198
-195
-167
-153
-139
-143
-174
-205
-233
-201
-199
-180
-170
-150
-124
-156
-181
-201
-233
-200
-204
-188
-157
-150
-137
-151
-172
-207
-241
-189
-186
-170
-165
-160
-129
-151
-164
-209
-231
-187
-181
-174
-153
-166
-126
-146
-181
-212
-215
-194
-181
-172
-160
-152
-122
-139
-164
-209
-216
-189
-183
-160
-141
-154
-123
-148
-157
-193
-208
-182
-165
-156
-143
-144
-117
-142
-153
-205
-185
-163
-158
-155
-135
-122
-109
-131
-150
-189
-181
-152
-155
-162
-126
-112
-102
-129
-146
-187
-173
-163
-157
-141
-125
-107
-102
-142
-154
-196
-162
-151
-159
-130
-127
-115
-110
-145
-172
-212
-185
-169
-163
-145
-143
-121
-124
-157
-172
-214
-190
-192
-169
-161
-157
-126
-149
-162
-186
-232
-196
-190
-175
-162
-153
-133
-145
-176
-207
-234
-198
-192
-176
-164
-151
-130
-150
-177
-206
-235
-187
-187
-178
-168
-163
-136
-144
-170
-201
-232
-202
-195
-168
-156
-162
-128
-140
-179
-213
-237
-195
-193
-174
-161
-174
-117
-133
-169
-219
-225
-188
-183
-177
-165
-168
-128
-154
-178
-216
-220
-193
-185
-175
-162
-157
-131
-163
-177
-211
-215
-195
-185
-176
-167
-164
-136
-157
-165
-212
-212
-201
-187
-177
-157
-148
-138
-161
-171
-229
-210
-202
-185
-174
-160
-153
-128
-162
-179
-233
-200
-201
-191
-179
-163
-148
-138
-167
-176
-224
-198
-195
-189
-182
-155
-152
-137
-169
-183
-231
-201
-183
-196
-166
-157
-144
-145
-161
-189
-229
-194
-192
-212
-173
-151
-139
-133
-154
-186
-234
-191
-182
-178
-162
-158
-136
-136
-161
-195
-227
-191
-183
-167
-145
-142
-125
-133
-155
-183
-219
-185
-186
-181
-157
-149
-136
-128
-159
-202
-218
-177
-178
-173
-162
-157
-127
-138
-164
-207
-237
-189
-194
-170
-166
-161
-144
-158
-180
-217
-235
-196
-199
-195
-167
-159
-145
-151
-178
-219
-227
-193
-199
-185
-166
-169
-142
-165
-176
-214
-218
-200
-207
-187
-168
-168
-129
-165
-190
-229
-240
-217
-208
-195
-174
-149
-97
-121
-113
-135
-106
-79
-56
-26
-12
-12
1
-40
-74
-147
-155
-157
-179
-172
-166
-161
-147
-177
-199
-240
-209
-200
-204
-202
-162
-149
-143
-168
-188
-223
-207
-193
-193
-176
-160
-157
-138
-161
-179
-216
-208
-197
-187
-179
-165
-143
-150
-160
-187
-241
-195
-193
-188
-171
-182
-137
-130
-169
-210
-243
-205
-190
-182
-164
-167
-146
-137
-173
-209
-236
-208
-194
-190
-160
-162
-148
-161
-181
-193
-230
-211
-200
-185
-168
-158
-134
-149
-180
-215
-234
-204
-198
-188
-178
-165
-138
-145
-169
-208
-228
-195
-191
-182
-162
-158
-130
-146
-166
-209
-237
-189
-188
-187
-161
-151
-117
-143
-168
-193
-210
-185
-183
-175
-148
-154
-106
-128
-155
-208
-214
-166
-176
-170
-139
-139
-112
-137
-153
-200
-199
-180
-170
-160
-133
-139
-108
-149
-170
-214
-196
-177
-171
-183
-168
-143
-127
-164
-181
-222
-206
-194
-194
-190
-177
-167
-150
-178
-191
-247
-223
-213
-219
-203
-180
-171
-165
-197
-209
-254
-233
-229
-217
-210
-190
-173
-171
-201
-218
-269
-245
-231
-219
-212
-190
-176
-177
-218
-229
-268
-239
-235
-216
-197
-196
-173
-183
-213
-228
-266
-239
-224
-218
-188
-179
-166
-196
-205
-219
-260
-222
-213
-214
-191
-181
-156
-167
-192
-224
-271
-208
-207
-209
-186
-188
-151
-161
-198
-219
-246
-223
-209
-205
-200
-190
-176
-167
-206
-229
-262
-223
-215
-196
-183
-185
-169
-180
-185
-238
-260
-239
-233
-208
-182
-182
-170
-182
-199
-239
-255
-225
-228
-199
-201
-187
-158
-188
-208
-247
-255
-220
-223
-209
-197
-190
-168
-196
-218
-242
-241
-231
-224
-212
-205
-193
-175
-193
-213
-249
-245
-226
-225
-217
-191
-190
-174
-195
-221
-260
-240
-230
-222
-204
-191
-186
-171
-191
-207
-249
-226
-217
-213
-197
-184
-166
-162
-181
-210
-246
-217
-205
-207
-196
-186
-165
-159
-188
-192
-241
-219
-209
-202
-189
-185
-165
-157
-188
-217
-259
-232
-226
-207
-199
-196
-162
-172
-194
-223
-268
-231
-212
-206
-200
-188
-164
-167
-202
-232
-278
-231
-224
-205
-192
-181
-174
-182
-199
-234
-276
-231
-220
-211
-204
-192
-170
-178
-208
-252
-285
-254
-243
-229
-220
-207
-160
-143
-171
-179
-183
-133
-106
-81
-50
-35
-13
-32
-61
-120
-171
-154
-187
-188
-179
-190
-161
-175
-206
-262
-271
-238
-233
-220
-196
-205
-174
-204
-225
-263
-261
-231
-236
-224
-211
-227
-175
-184
-221
-261
-250
-238
-240
-231
-208
-207
-189
-201
-221
-257
-263
-252
-243
-233
-200
-205
-177
-203
-225
-263
-255
-242
-226
-230
-206
-192
-182
-211
-221
-275
-248
-244
-235
-226
-201
-194
-170
-200
-227
-275
-247
-236
-226
-218
-199
-179
-177
-208
-221
-264
-242
-232
-221
-207
-196
-173
-179
-209
-224
-258
-229
-232
-223
-194
-201
-165
-168
-204
-215
-258
-223
-219
-216
-184
-185
-167
-158
-196
-222
-246
-227
-213
-192
-176
-178
-149
-153
-193
-212
-255
-206
-206
-201
-180
-173
-152
-153
-183
-220
-242
-210
-201
-195
-191
-183
-154
-162
-187
-225
-260
-216
-215
-207
-189
-184
-161
-176
-197
-240
-266
-235
-234
-222
-195
-192
-165
-196
-218
-252
-265
-231
-236
-223
-214
-208
-176
-198
-223
-265
-273
-230
-230
-226
-212
-203
-171
-205
-225
-265
-267
-245
-229
-232
-225
-203
-180
-204
-221
-267
-255
-241
-244
-228
-210
-207
-188
-202
-215
-271
-257
-234
-238
-227
-200
-197
-188
-212
-226
-268
-251
-236
-234
-222
-207
-199
-184
-203
-214
-268
-260
-236
-227
-222
-190
-185
-192
-223
-235
-283
-235
-232
-235
-214
-203
-182
-185
-210
-231
-271
-243
-240
-230
-204
-209
-185
-196
-213
-233
-268
-226
-239
-239
-206
-202
-191
-187
-209
-241
-282
-252
-233
-225
-201
-206
-188
-190
-214
-244
-265
-243
-235
-228
-208
-206
-173
-175
-221
-256
-283
-240
-240
-224
-203
-204
-173
-189
-211
-248
-272
-246
-255
-226
-200
-197
-173
-194
-217
-251
-274
-236
-234
-223
-195
-194
-174
-184
-204
-254
-269
-227
-232
-226
-200
-187
-159
-172
-210
-246
-237
-230
-222
-208
-188
-182
-172
-183
-207
-254
-248
-220
-222
-213
-199
-175
-162
-188
-216
-256
-248
-232
-226
-212
-193
-195
-175
-204
-221
-264
-250
-240
-228
-223
-202
-201
-175
-205
-223
-270
-251
-236
-232
-220
-203
-188
-182
-211
-223
-272
-234
-232
-237
-218
-214
-184
-176
-211
-228
-272
-245
-238
-245
-235
-229
-208
-204
-224
-233
-255
-210
-174
-144
-111
-84
-43
-27
-31
-50
-99
-85
-89
-95
-106
-120
-133
-141
-181
-224
-261
-226
-227
-218
-199
-191
-172
-192
-208
-242
-271
-234
-222
-211
-195
-192
-176
-192
-206
-237
-274
-241
-228
-206
-190
-208
-180
-180
-208
-242
-263
-229
-231
-221
-195
-191
-161
-186
-199
-228
-269
-233
-238
-215
-199
-201
-161
-169
-202
-238
-259
-226
-231
-214
-194
-186
-163
-179
-212
-239
-254
-222
-218
-207
-196
-189
-161
-178
-208
-255
-240
-215
-216
-202
-181
-183
-157
-174
-197
-243
-236
-212
-211
-193
-186
-181
-148
-174
-191
-241
-223
-199
-202
-191
-182
-175
-149
-166
-183
-228
-213
-195
-194
-184
-163
-147
-140
-166
-179
-227
-202
-182
-181
-180
-150
-136
-135
-172
-179
-224
-192
-193
-176
-173
-157
-135
-132
-157
-191
-226
-200
-191
-188
-166
-161
-140
-142
-172
-194
-241
-205
-202
-200
-174
-173
-148
-167
-187
-221
-243
-213
-205
-205
-188
-189
-159
-154
-195
-225
-256
-218
-216
-211
-194
-176
-158
-171
-193
-234
-264
-218
-208
-190
-188
-195
-167
-167
-192
-227
-251
-222
-221
-213
-192
-180
-155
-173
-196
-232
-252
-211
-236
-198
-184
-182
-158
-182
-206
-232
-251
-212
-215
-209
-190
-178
-156
-173
-197
-233
-259
-217
-223
-200
-184
-177
-151
-175
-199
-237
-241
-212
-211
-201
-181
-181
-157
-181
-198
-242
-237
-206
-215
-205
-177
-181
-153
-180
-192
-249
-237
-218
-212
-203
-198
-162
-155
-175
-197
-251
-231
-217
-200
-197
-179
-165
-159
-184
-193
-238
-232
-219
-213
-192
-184
-157
-152
-185
-211
-247
-215
-205
-203
-191
-174
-167
-155
-170
-199
-249
-210
-216
-203
-183
-180
-157
-152
-173
-204
-263
-217
-211
-198
-180
-171
-151
-160
-186
-204
-253
-216
-205
-200
-174
-174
-140
-162
-183
-212
-239
-200
-202
-190
-186
-170
-141
-141
-170
-199
-233
-184
-187
-178
-177
-157
-140
-154
-173
-208
-234
-196
-189
-176
-172
-150
-129
-140
-174
-218
-225
-208
-194
-196
-174
-169
-136
-153
-180
-223
-244
-207
-205
-196
-178
-170
-145
-155
-199
-229
-231
-209
-210
-182
-178
-177
-152
-166
-182
-227
-234
-210
-203
-197
-169
-169
-146
-166
-187
-231
-221
-208
-203
-192
-186
-188
-162
-194
-213
-251
-232
-202
-168
-134
-103
-81
-41
-44
-33
-65
-38
-16
-26
-28
-30
-49
-50
-120
-155
-230
-199
-191
-180
-181
-167
-149
-145
-177
-198
-241
-209
-198
-186
-170
-165
-147
-154
-188
-195
-245
-217
-200
-177
-171
-170
-149
-154
-180
-202
-239
-207
-213
-197
-171
-169
-141
-157
-170
-199
-234
-209
-204
-196
-176
-166
-154
-146
-176
-205
-239
-212
-196
-190
-163
-167
-135
-150
-178
-206
-234
-195
-195
-189
-163
-156
-132
-147
-170
-206
-228
-209
-194
-180
-168
-168
-126
-143
-169
-206
-229
-191
-189
-175
-157
-146
-127
-156
-168
-200
-220
-189
-181
-166
-147
-144
-113
-127
-163
-211
-203
-172
-174
-156
-132
-139
-120
-128
-157
-192
-194
-171
-167
-138
-136
-132
-107
-132
-148
-187
-180
-169
-163
-150
-137
-126
-96
-126
-145
-184
-205
-167
-160
-155
-138
-133
-117
-144
-150
-197
-195
-182
-170
-165
-156
-132
-135
-154
-170
-222
-189
-191
-189
-167
-153
-134
-134
-162
-177
-240
-205
-192
-186
-178
-171
-142
-139
-171
-188
-223
-198
-187
-201
-172
-154
-144
-146
-171
-198
-232
-203
-192
-186
-165
-160
-141
-135
-162
-205
-233
-204
-186
-187
-171
-164
-137
-149
-170
-193
-226
-197
-182
-187
-171
-152
-136
-143
-172
-200
-235
-201
-199
-176
-160
-147
-134
-153
-162
-205
-254
-189
-180
-182
-165
-160
-132
-148
-170
-198
-227
-198
-196
-183
-163
-156
-130
-156
-180
-206
-225
-193
-186
-175
-161
-160
-139
-153
-167
-209
-212
-197
-190
-186
-158
-161
-133
-156
-183
-219
-219
-196
-190
-175
-159
-161
-146
-157
-172
-215
-217
-189
-191
-177
-162
-153
-127
-167
-174
-222
-212
-198
-186
-177
-166
-159
-131
-151
-178
-217
-208
-189
-184
-175
-160
-146
-146
-166
-180
-211
-207
-195
-192
-177
-151
-143
-139
-154
-171
-235
-194
-175
-170
-164
-144
-136
-131
-159
-175
-218
-187
-177
-163
-148
-151
-126
-124
-148
-178
-218
-190
-180
-170
-154
-147
-136
-128
-151
-178
-217
-184
-169
-164
-163
-157
-137
-136
-162
-192
-225
-187
-183
-186
-159
-156
-130
-145
-166
-203
-230
-206
-194
-179
-160
-158
-129
-149
-171
-206
-232
-201
-193
-182
-170
-155
-139
-152
-167
-209
-237
-194
-190
-183
-164
-167
-135
-137
-171
-220
-249
-211
-212
-205
-173
-163
-119
-124
-128
-143
-139
-93
-81
-42
-6
4
28
4
-30
-99
-124
-122
-136
-151
-140
-162
-130
-154
-177
-232
-224
-199
-206
-183
-155
-158
-119
-155
-175
-207
-196
-183
-185
-171
-162
-147
-131
-158
-173
-213
-201
-185
-186
-168
-153
-137
-130
-166
-162
-216
-201
-184
-178
-165
-147
-130
-125
-156
-173
-219
-189
-177
-190
-165
-158
-123
-110
-150
-183
-232
-191
-180
-166
-157
-151
-122
-114
-150
-175
-214
-180
-168
-167
-146
-149
-123
-124
-145
-179
-213
-180
-179
-157
-142
-134
-118
-118
-150
-179
-204
-173
-170
-159
-131
-129
-107
-115
-147
-167
-196
-169
-152
-154
-120
-121
-113
-113
-138
-170
-188
-145
-149
-144
-119
-119
-83
-92
-127
-163
-181
-154
-151
-126
-115
-118
-84
-103
-118
-160
-178
-156
-154
-128
-116
-122
-83
-109
-133
-171
-183
-158
-152
-139
-130
-126
-115
-122
-133
-193
-189
-180
-172
-155
-134
-131
-116
-138
-159
-193
-193
-177
-179
-161
-147
-141
-121
-144
-153
-220
-201
-191
-179
-162
-150
-141
-131
-148
-158
-216
-196
-173
-172
-161
-163
-133
-120
-155
-163
-210
-197
-181
-183
-171
-146
-134
-121
-158
-164
-221
-191
-178
-164
-157
-141
-116
-126
-153
-170
-211
-201
-179
-177
-148
-145
-124
-122
-154
-179
-212
-182
-174
-161
-148
-151
-118
-116
-168
-180
-222
-178
-162
-169
-157
-136
-115
-121
-151
-183
-211
-189
-185
-165
-156
-145
-111
-122
-167
-184
-215
-181
-176
-168
-149
-141
-119
-129
-165
-190
-221
-182
-178
-168
-145
-141
-121
-133
-162
-185
-205
-182
-186
-181
-145
-146
-115
-137
-170
-197
-208
-177
-177
-165
-158
-144
-120
-138
-166
-210
-206
-178
-187
-165
-145
-148
-117
-147
-156
-206
-203
-174
-176
-176
-143
-152
-117
-135
-156
-202
-203
-171
-179
-173
-135
-136
-120
-147
-168
-211
-194
-179
-173
-164
-146
-143
-116
-142
-158
-208
-201
-168
-163
-155
-144
-131
-113
-142
-151
-204
-167
-157
-170
-159
-135
-115
-107
-135
-153
-200
-167
-163
-163
-153
-127
-110
-108
-145
-163
-206
-170
-171
-163
-139
-140
-118
-125
-151
-175
-203
-191
-171
-174
-140
-152
-132
-125
-148
-191
-222
-185
-180
-163
-147
-140
-127
-122
-166
-201
-215
-182
-178
-169
-158
-143
-121
-128
-158
-189
-215
-183
-181
-172
-155
-151
-122
-140
-160
-204
-239
-202
-211
-178
-167
-166
-117
-118
-121
-131
-133
-83
-74
-34
9
25
55
29
-11
-70
-102
-98
-119
-128
-111
-115
-99
-137
-161
-194
-205
-180
-176
-160
-146
-163
-112
-138
-157
-200
-196
-179
-179
-161
-145
-145
-116
-139
-154
-200
-199
-182
-171
-156
-153
-143
-120
-137
-156
-194
-177
-181
-175
-159
-140
-137
-119
-144
-160
-203
-183
-178
-172
-156
-138
-125
-117
-154
-157
-200
-189
-171
-166
-149
-135
-119
-112
-142
-157
-198
-180
-169
-170
-147
-143
-118
-111
-138
-160
-198
-181
-163
-154
-138
-137
-107
-113
-142
-167
-199
-167
-158
-144
-132
-126
-97
-109
-140
-164
-193
-159
-162
-140
-118
-116
-91
-103
-130
-159
-186
-155
-142
-136
-113
-109
-84
-96
-119
-152
-187
-148
-139
-126
-113
-106
-79
-90
-119
-151
-176
-148
-143
-127
-113
-110
-85
-92
-128
-158
-182
-147
-153
-141
-118
-122
-89
-113
-145
-167
-199
-163
-165
-147
-130
-124
-93
-117
-147
-200
-216
-179
-165
-151
-133
-131
-102
-138
-145
-192
-195
-169
-166
-155
-144
-139
-120
-134
-155
-197
-193
-176
-175
-164
-134
-129
-110
-143
-156
-198
-186
-169
-163
-156
-145
-135
-115
-146
-154
-196
-186
-166
-174
-149
-134
-128
-121
-134
-164
-222
-176
-164
-167
-152
-136
-119
-112
-141
-157
-203
-182
-171
-171
-148
-140
-119
-112
-150
-172
-213
-173
-165
-162
-143
-137
-115
-116
-151
-174
-210
-173
-168
-161
-148
-140
-106
-115
-151
-178
-208
-176
-174
-161
-134
-139
-120
-118
-144
-173
-207
-195
-160
-172
-144
-144
-118
-128
-151
-178
-205
-177
-173
-160
-130
-136
-123
-123
-154
-185
-210
-182
-172
-164
-141
-140
-112
-123
-159
-186
-210
-171
-167
-162
-151
-142
-116
-129
-158
-195
-207
-169
-177
-158
-137
-134
-120
-128
-154
-189
-202
-186
-175
-160
-136
-144
-125
-138
-148
-194
-204
-170
-170
-159
-139
-143
-112
-141
-154
-197
-188
-166
-174
-163
-142
-137
-122
-140
-156
-192
-192
-168
-163
-163
-140
-126
-107
-135
-154
-196
-181
-172
-168
-157
-129
-110
-100
-123
-139
-192
-172
-163
-152
-137
-129
-108
-107
-140
-153
-200
-165
-160
-158
-146
-136
-114
-105
-132
-152
-199
-167
-157
-151
-142
-147
-118
-119
-144
-168
-211
-185
-173
-168
-147
-140
-122
-118
-159
-182
-214
-184
-167
-156
-139
-139
-113
-127
-149
-195
-218
-186
-176
-160
-150
-139
-112
-137
-155
-185
-219
-184
-172
-164
-149
-156
-127
-142
-170
-214
-230
-197
-178
-146
-108
-72
-37
-38
-43
-40
-47
-1
16
23
11
-1
7
-21
-74
-156
-176
-150
-158
-146
-136
