-31
-29
-32
-32
-36
-27
-22
-30
-30
-33
-29
-29
-33
-31
-32
-32
-34
-33
-30
-29
-31
-30
-35
-34
-34
-31
-32
-30
-30
-27
-29
-33
-28
-30
-29
-35
-33
-30
-36
-35
-31
-29
-32
-36
-35
-32
-30
-33
-35
-29
-28
-34
-35
-37
-36
-33
-34
-36
-35
-35
-35
-36
-27
-30
-32
-36
-33
-34
-31
-31
-32
-31
-33
-41
-37
-32
-33
-39
-40
-31
-22
-33
-36
-38
-39
-35
-34
-35
-34
-34
-33
-36
-38
-38
-39
-37
-35
-30
-30
-29
-37
-36
-36
-42
-38
-40
-33
-31
-35
-35
-34
-31
-35
-38
-39
-40
-34
-31
-36
-35
-35
-37
-37
-38
-37
-39
-38
-34
-32
-28
-27
-34
-29
-33
-33
-30
-26
-32
-34
-30
-28
-27
-32
-28
-18
-20
-22
-22
-19
-15
-15
-17
-23
-23
-14
-15
-16
-13
-18
-18
-18
-26
-30
-32
-35
-33
-30
-33
-30
-34
-35
-36
-37
-38
-24
-37
-40
-34
-36
-36
-34
-34
-41
-42
-39
-38
-36
-39
-31
-24
-25
-42
-45
-37
-37
-36
-35
-33
-24
-41
-44
-44
-46
-39
-25
-7
20
55
75
99
116
133
150
150
114
78
50
15
-18
-52
-77
-80
-69
-65
-65
-52
-53
-50
-39
-35
-33
-34
-33
-33
-31
-31
-26
-26
-26
-25
-30
-37
-38
-31
-32
-32
-30
-30
-27
-26
-31
-31
-23
-29
-31
-26
-24
-25
-21
-20
-26
-29
-27
-25
-26
-22
-25
-25
-20
-11
-15
-12
-20
-25
-25
-15
-17
-15
-14
-16
-20
-15
-16
-15
-14
-6
-5
-8
-8
-15
-15
-10
-11
-6
-2
-3
-2
2
1
-1
1
-4
-4
7
14
11
7
9
16
12
11
11
18
17
20
19
22
18
15
22
29
24
21
22
26
26
32
26
25
26
25
20
14
18
17
16
12
9
8
5
5
-3
-8
-13
-11
-16
-16
-14
-15
-23
-28
-30
-27
-21
-27
-28
-32
-30
-31
-36
-28
-33
-36
-38
-38
-30
-36
-29
-27
-36
-38
-37
-37
-36
-36
-37
-38
-37
-34
-32
-37
-41
-38
-41
-40
-41
-35
-39
-38
-36
-38
-42
-41
-39
-38
-35
-35
-34
-30
-38
-30
-35
-32
-34
-38
-40
-41
-38
-38
-27
-37
-40
-35
-35
-38
-35
-30
-33
-40
-42
-35
-29
-34
-36
-32
-36
-34
-38
-39
-38
-35
-36
-37
-38
-35
-31
-36
-25
-33
-41
-41
-39
-32
-42
-43
-38
-40
-34
-39
-37
-37
-38
-41
-40
-38
-39
-39
-35
-44
-44
-43
-40
-39
-38
-40
-40
-47
-42
-37
-37
-37
-40
-41
-42
-42
-43
-39
-38
-42
-38
-45
-44
-39
-45
-40
-27
-39
-40
-41
-43
-48
-44
-42
-41
-43
-43
-38
-39
-38
-46
-40
-44
-48
-46
-45
-43
-44
-44
-45
-44
-49
-37
-36
-37
-42
-42
-38
-35
-39
-35
-37
-40
-37
-35
-31
-32
-36
-40
-39
-29
-32
-32
-29
-32
-27
-21
-13
-20
-26
-22
-24
-29
-31
-22
-21
-20
-22
-26
-26
-25
-30
-35
-35
-33
-36
-46
-41
-46
-44
-46
-47
-38
-39
-40
-37
-44
-40
-38
-42
-48
-47
-45
-39
-37
-39
-44
-47
-45
-44
-41
-47
-43
-44
-48
-44
-43
-45
-46
-47
-48
-50
-53
-48
-34
-20
7
30
56
81
99
115
128
142
128
88
54
23
-9
-42
-76
-83
-87
-71
-64
-54
-52
-55
-42
-40
-47
-48
-43
-45
-36
-30
-35
-38
-40
-43
-38
-37
-40
-41
-34
-31
-38
-36
-40
-35
-41
-41
-37
-31
-31
-37
-33
-34
-34
-34
-33
-30
-32
-31
-30
-31
-28
-26
-25
-38
-30
-33
-27
-24
-18
-22
-26
-28
-22
-24
-24
-24
-28
-22
-21
-20
-16
-16
-21
-21
-23
-18
-15
-17
-12
-11
-12
-7
-9
-4
-4
-12
-8
-2
-4
0
4
1
-1
1
0
11
-1
7
10
18
27
20
12
9
10
21
16
13
15
13
20
20
17
17
12
14
13
10
8
7
4
7
-7
-10
-10
-10
-13
-11
-13
-17
-18
-17
-25
-29
-35
-30
-29
-29
-28
-35
-31
-34
-41
-45
-27
-27
-36
-41
-43
-41
-35
-39
-41
-44
-43
-46
-31
-37
-41
-41
-41
-44
-43
-41
-40
-36
-40
-42
-41
-40
-36
-42
-39
-43
-41
-36
-41
-43
-43
-36
-40
-39
-33
-40
-41
-35
-37
-41
-42
-38
-36
-38
-45
-40
-40
-38
-33
-35
-42
-38
-36
-37
-40
-40
-36
-39
-40
-34
-38
-32
-31
-40
-39
-37
-39
-42
-34
-42
-30
-33
-39
-43
-32
-36
-33
-40
-38
-41
-40
-39
-35
-41
-45
-42
-43
-40
-40
-42
-35
-34
-39
-43
-46
-41
-38
-39
-42
-38
-40
-42
-37
-42
-45
-44
-40
-42
-41
-37
-40
-42
-33
-41
-43
-43
-43
-37
-41
-43
-41
-39
-40
-38
-40
-44
-40
-40
-43
-42
-42
-41
-37
-43
-46
-46
-48
-42
-41
-39
-33
-33
-41
-46
-48
-48
-45
-49
-47
-36
-32
-43
-44
-45
-44
-45
-38
-44
-42
-42
-37
-40
-45
-47
-38
-40
-34
-38
-35
-33
-31
-37
-36
-38
-41
-37
-36
-32
-28
-22
-27
-28
-26
-28
-32
-27
-28
-27
-18
-25
-24
-29
-23
-27
-28
-27
-30
-34
-34
-37
-41
-40
-34
-41
-47
-40
-40
-42
-45
-43
-44
-47
-50
-44
-42
-36
-46
-48
-49
-44
-42
-44
-46
-46
-49
-45
-43
-44
-43
-43
-39
-47
-50
-52
-53
-51
-52
-47
-39
-23
-2
23
42
67
90
105
118
133
132
101
66
34
3
-28
-73
-84
-82
-74
-64
-57
-55
-50
-46
-43
-42
-27
-30
-37
-41
-38
-40
-41
-44
-46
-45
-40
-40
-43
-36
-35
-36
-38
-41
-41
-39
-37
-36
-35
-33
-34
-35
-36
-34
-36
-36
-40
-38
-30
-27
-30
-26
-26
-26
-32
-35
-34
-32
-32
-28
-26
-21
-26
-30
-30
-27
-29
-25
-22
-23
-21
-23
-15
-24
-24
-23
-19
-21
-20
-5
-11
-12
-13
-8
-14
-17
-9
-6
-4
-6
-5
-6
0
6
2
2
2
1
7
5
7
11
8
13
13
8
13
18
15
15
15
19
15
16
17
16
11
10
8
7
4
3
0
-1
-6
2
-3
-15
-17
-17
-19
-18
-22
-25
-28
-29
-32
-32
-37
-31
-35
-36
-37
-42
-35
-45
-41
-39
-37
-42
-40
-38
-44
-40
-40
-44
-41
-44
-46
-43
-40
-41
-46
-45
-37
-46
-47
-38
-40
-40
-46
-48
-36
-38
-40
-36
-39
-42
-45
-36
-40
-44
-43
-42
-39
-37
-41
-44
-40
-39
-46
-45
-39
-41
-41
-39
-40
-39
-39
-42
-40
-39
-38
-41
-43
-43
-44
-38
-39
-37
-37
-40
-44
-44
-38
-37
-41
-40
-39
-35
-32
-43
-44
-40
-36
-39
-39
-42
-44
-40
-41
-41
-45
-49
-45
-45
-46
-37
-40
-38
-33
-45
-43
-44
-46
-49
-47
-43
-44
-40
-35
-38
-47
-46
-43
-40
-41
-49
-43
-40
-42
-44
-47
-50
-49
-44
-38
-38
-37
-39
-39
-53
-48
-43
-43
-48
-51
-51
-46
-39
-44
-41
-45
-46
-44
-45
-41
-43
-46
-45
-47
-46
-49
-46
-45
-48
-48
-38
-34
-41
-48
-49
-47
-45
-46
-45
-45
-41
-34
-39
-50
-53
-50
-41
-42
-47
-46
-45
-43
-37
-43
-48
-40
-32
-33
-44
-46
-39
-38
-34
-33
-33
-35
-25
-26
-29
-30
-27
-18
-25
-30
-32
-30
-26
-25
-26
-24
-26
-25
-23
-30
-38
-37
-39
-45
-46
-43
-47
-44
-43
-44
-48
-49
-48
-44
-44
-48
-47
-47
-48
-46
-48
-53
-50
-42
-51
-51
-44
-34
-41
-39
-41
-51
-54
-50
-48
-48
-49
-43
-47
-53
-55
-49
-38
-13
13
34
48
78
105
118
128
142
134
93
60
32
-4
-36
-76
-91
-78
-73
-66
-61
-61
-56
-48
-45
-42
-35
-34
-32
-45
-48
-42
-35
-38
-33
-38
-43
-44
-39
-38
-39
-37
-34
-34
-33
-36
-39
-38
-37
-38
-35
-38
-36
-25
-29
-35
-35
-30
-29
-32
-38
-33
-27
-28
-28
-31
-31
-30
-30
-27
-29
-25
-23
-19
-14
-23
-26
-26
-25
-22
-16
-20
-19
-16
-18
-18
-22
-14
-10
-10
-17
-13
-7
-8
-9
-9
-10
-6
-8
-8
-3
1
2
5
9
13
11
-1
3
7
8
13
12
15
15
13
11
17
18
20
19
16
13
17
17
14
10
5
10
12
15
9
4
4
-1
-9
-13
-14
-12
-8
-16
-20
-15
-27
-28
-27
-36
-39
-36
-35
-33
-32
-36
-31
-32
-46
-43
-41
-43
-43
-42
-42
-37
-34
-40
-47
-44
-43
-46
-42
-42
-44
-42
-40
-41
-43
-44
-42
-47
-43
-38
-40
-42
-36
-41
-42
-41
-43
-43
-43
-45
-41
-38
-42
-36
-43
-44
-38
-40
-42
-42
-34
-34
-41
-45
-43
-45
-45
-35
-39
-33
-38
-38
-37
-42
-40
-43
-43
-43
-39
-41
-39
-39
-34
-38
-41
-46
-38
-41
-39
-40
-41
-36
-33
-36
-38
-43
-41
-42
-44
-44
-42
-34
-36
-40
-39
-40
-43
-44
-45
-42
-38
-34
-35
-44
-43
-41
-46
-46
-47
-44
-37
-40
-43
-38
-37
-47
-46
-45
-45
-42
-40
-39
-42
-46
-52
-39
-31
-37
-45
-43
-35
-35
-41
-47
-43
-44
-44
-44
-45
-47
-41
-32
-41
-42
-44
-43
-41
-41
-43
-42
-38
-40
-43
-42
-44
-46
-46
-44
-39
-45
-39
-35
-32
-43
-42
-40
-40
-34
-40
-33
-35
-45
-44
-42
-44
-41
-42
-41
-40
-41
-36
-36
-35
-41
-42
-28
-30
-39
-36
-31
-28
-29
-35
-32
-24
-24
-24
-28
-24
-27
-26
-25
-25
-25
-21
-4
-17
-20
-24
-26
-28
-31
-34
-32
-37
-41
-44
-44
-44
-44
-42
-43
-37
-44
-42
-47
-47
-44
-44
-40
-39
-34
-41
-50
-49
-52
-47
-41
-38
-36
-39
-41
-38
-41
-42
-41
-44
-42
-45
-43
-43
-52
-45
-44
-31
-19
6
29
51
86
109
122
136
143
130
94
58
27
-11
-47
-74
-84
-83
-79
-71
-67
-68
-58
-47
-43
-45
-41
-41
-40
-36
-39
-39
-40
-39
-37
-28
-27
-40
-31
-33
-35
-39
-35
-35
-35
-33
-35
-30
-39
-33
-18
-29
-32
-27
-23
-32
-37
-33
-33
-33
-30
-27
-29
-33
-35
-18
-12
-24
-31
-24
-26
-22
-20
-18
-18
-22
-25
-23
-24
-19
-20
-22
-18
-16
-14
-15
-19
-16
-12
-7
-14
-13
-10
-9
-4
-6
-5
10
2
-1
0
7
-3
-1
2
3
10
10
7
12
15
13
13
23
25
15
11
12
15
17
19
19
17
20
16
13
16
14
12
9
8
8
6
0
5
-3
-10
-8
-9
-12
-12
-17
-23
-20
-14
-26
-31
-32
-24
-27
-38
-39
-32
-24
-35
-40
-44
-42
-42
-36
-39
-43
-45
-38
-38
-37
-43
-39
-44
-43
-46
-48
-46
-44
-41
-42
-43
-47
-42
-37
-42
-36
-43
-36
-39
-38
-42
-44
-43
-35
-45
-43
-36
-33
-34
-39
-40
-49
-43
-37
-41
-43
-43
-39
-38
-36
-41
-42
-41
-40
-41
-38
-41
-37
-35
-39
-45
-41
-40
-29
-43
-41
-33
-37
-42
-34
-30
-43
-40
-37
-38
-40
-35
-34
-42
-43
-39
-40
-43
-42
-41
-44
-38
-38
-40
-39
-40
-47
-47
-45
-40
-42
-46
-44
-41
-40
-42
-44
-42
-44
-44
-44
-40
-39
-46
-49
-47
-45
-44
-46
-47
-47
-40
-30
-32
-44
-46
-42
-41
-46
-47
-49
-42
-40
-39
-46
-51
-42
-43
-39
-35
-42
-44
-39
-38
-38
-42
-41
-33
-35
-35
-42
-38
-32
-34
-32
-28
-24
-27
-29
-26
-28
-34
-13
-14
-29
-25
-23
-24
-27
-28
-30
-30
-31
-32
-41
-47
-44
-43
-46
-49
-47
-44
-43
-41
-45
-41
-45
-44
-44
-41
-35
-39
-51
-50
-50
-48
-47
-46
-47
-48
-48
-42
-44
-42
-43
-52
-49
-48
-41
-48
-52
-49
-51
-49
-38
-20
3
29
63
90
104
119
138
146
128
91
65
24
-6
-49
-77
-80
-79
-74
-64
-65
-59
-52
-55
-50
-43
-35
-38
-37
-38
-45
-42
-48
-46
-48
-41
-37
-30
-38
-43
-44
-39
-37
-36
-35
-33
-39
-37
-34
-37
-40
-38
-40
-37
-38
-38
-33
-29
-29
-29
-31
-37
-36
-31
-26
-32
-34
-31
-25
-26
-27
-28
-30
-28
-13
-20
-28
-26
-24
-25
-26
-26
-20
-19
-22
-14
-15
-16
-16
-22
-19
-3
-12
-13
-7
-2
-7
-5
-4
-7
-7
-1
0
-1
2
9
13
8
7
8
7
12
10
10
16
21
18
16
20
14
12
10
12
15
14
13
17
13
8
7
7
-1
-30
-37
-42
-46
-38
-36
-32
-34
-41
-38
-42
-41
-42
-46
-37
-43
-44
-47
-48
-40
-43
-47
-44
-44
-43
-43
-44
-45
-48
-40
-46
-42
-41
-45
-48
-41
-41
-41
-42
-37
-42
-46
-47
-47
-45
-44
-46
-38
-38
-41
-43
-40
-42
-47
-41
-39
-36
-25
-38
-45
-42
-38
-49
-48
-44
-39
-42
-39
-38
-44
-32
-42
-44
-31
-42
-42
-43
-43
-39
-42
-44
-39
-41
-45
-42
-43
-43
-40
-40
-40
-42
-45
-43
-46
-46
-43
-40
-37
-39
-38
-42
-46
-45
-48
-46
-47
-49
-43
-35
-44
-50
-44
-43
-42
-44
-45
-48
-48
-42
-43
-50
-43
-39
-46
-48
-51
-44
-45
-40
-43
-49
-51
-46
-35
-47
-53
-36
-46
-47
-41
-47
-49
-47
-46
-43
-45
-45
-44
-40
-41
-48
-47
-50
-39
-34
-37
-39
-42
-39
-42
-43
-44
-39
-34
-39
-39
-28
-22
-23
-25
-27
-27
-27
-26
-22
-23
-18
-22
-25
-30
-23
-33
-38
-36
-35
-34
-41
-47
-42
-36
-40
-54
-46
-45
-48
-47
-46
-43
-47
-46
-45
-46
-49
-50
-44
-42
-46
-45
-47
-48
-48
-50
-50
-46
-50
-52
-43
-44
-44
-42
-51
-55
-56
-49
-47
-34
-17
10
38
64
87
110
124
141
155
134
93
56
25
-11
-52
-91
-100
-80
-69
-63
-62
-56
-54
-48
-45
-45
-39
-43
-43
-37
-36
-45
-41
-39
-40
-41
-41
-37
-41
-43
-45
-42
-38
-31
-33
-39
-36
-41
-36
-36
-37
-35
-35
-36
-41
-35
-34
-33
-33
-29
-34
-32
-29
-28
-33
-34
-32
-27
-28
-31
-29
-28
-31
-32
-30
-18
-13
-21
-31
-30
-21
-20
-21
-20
-19
-17
-16
-20
-19
-16
-17
-8
-15
-11
-8
-9
-6
-6
-5
-5
-2
1
2
3
2
1
3
5
6
7
15
11
16
21
16
19
10
8
13
15
15
17
12
10
9
8
5
8
18
17
6
2
1
-5
-8
-10
-14
-18
-9
-18
-21
-19
-23
-29
-33
-30
-37
-41
-35
-31
-34
-39
-38
-41
-40
-44
-40
-42
-43
-42
-40
-38
-49
-50
-46
-46
-45
-46
-48
-48
-45
-48
-44
-45
-46
-39
-43
-41
-42
-43
-48
-43
-42
-46
-45
-41
-48
-46
-35
-40
-47
-39
-43
-43
-44
-39
-42
-43
-39
-38
-40
-44
-43
-43
-41
-43
-46
-44
-43
-41
-36
-42
-42
-47
-43
-42
-44
-47
-39
-39
-36
-46
-45
-41
-41
-44
-47
-41
-41
-40
-38
-42
-45
-45
-42
-42
-51
-46
-44
-41
-39
-43
-45
-48
-43
-45
-48
-42
-47
-46
-47
-44
-46
-53
-49
-47
-49
-43
-44
-41
-47
-45
-45
-49
-52
-49
-49
-41
-44
-47
-45
-50
-48
-45
-45
-47
-45
-38
-43
-41
-49
-50
-51
-49
-50
-50
-51
-48
-48
-45
-46
-46
-44
-52
-46
-48
-49
-54
-48
-40
-47
-44
-46
-46
-50
-49
-48
-50
-47
-47
-49
-47
-50
-49
-48
-43
-46
-43
-41
-36
-39
-44
-43
-40
-43
-55
-51
-39
-35
-32
-32
-28
-20
-29
-30
-40
-34
-30
-24
-26
-20
-26
-31
-32
-29
-35
-31
-37
-39
-32
-38
-45
-48
-47
-50
-51
-50
-44
-45
-48
-48
-50
-46
-53
-52
-49
-44
-50
-48
-49
-50
-50
-46
-49
-52
-52
-51
-50
-49
-48
-50
-51
-50
-52
-52
-55
-59
-55
-41
-19
-6
16
43
72
98
121
134
149
144
102
66
35
0
-33
-69
-93
-88
-78
-69
-68
-67
-67
-51
-48
-41
-33
-34
-41
-45
-48
-42
-44
-45
-40
-46
-45
-42
-43
-39
-36
-37
-45
-43
-45
-43
-41
-38
-38
-34
-38
-35
-39
-43
-42
-32
-37
-27
-28
-35
-35
-32
-38
-33
-34
-33
-33
-33
-32
-31
-23
-23
-28
-34
-34
-32
-35
-29
-23
-19
-18
-20
-27
-25
-24
-23
-17
-22
-19
-22
-20
-15
-18
-20
-12
-15
-15
-9
-3
-2
-6
-7
-7
-6
0
1
4
1
12
14
8
6
-1
5
9
8
8
7
11
13
10
8
11
9
10
8
4
4
9
4
0
5
-2
-3
-7
-13
-14
-10
-8
-18
-24
-25
-32
-32
-33
-30
-32
-32
-34
-33
-36
-42
-37
-44
-45
-43
-40
-47
-46
-46
-44
-47
-49
-46
-47
-46
-50
-46
-42
-50
-50
-50
-52
-49
-50
-48
-48
-47
-46
-46
-44
-49
-49
-43
-45
-55
-50
-43
-47
-52
-44
-45
-50
-46
-46
-50
-48
-45
-43
-48
-36
-42
-50
-43
-45
-46
-45
-44
-44
-45
-45
-45
-48
-52
-51
-44
-39
-46
-42
-39
-49
-46
-45
-47
-49
-46
-42
-42
-44
-42
-45
-50
-48
-40
-36
-43
-52
-50
-51
-45
-44
-53
-53
-52
-47
-40
-44
-49
-43
-50
-52
-52
-51
-45
-43
-47
-47
-48
-48
-48
-47
-47
-51
-53
-53
-51
-47
-47
-49
-47
-46
-47
-45
-51
-49
-52
-49
-47
-45
-54
-52
-50
-56
-56
-47
-40
-39
-48
-45
-48
-48
-46
-44
-44
-39
-45
-46
-43
-45
-41
-39
-39
-30
-35
-32
-33
-31
-24
-30
-30
-29
-27
-34
-32
-26
-22
-33
-34
-38
-46
-50
-48
-56
-54
-54
-47
-48
-52
-47
-37
-47
-59
-50
-53
-53
-50
-47
-48
-50
-54
-52
-55
-50
-51
-52
-54
-53
-55
-56
-48
-48
-49
-57
-57
-54
-56
-55
-58
-55
-51
-40
-19
12
52
75
89
105
126
144
138
103
61
30
9
-34
-65
-89
-86
-78
-73
-71
-68
-60
-60
-56
-50
-41
-47
-45
-43
-46
-45
-48
-45
-40
-40
-39
-43
-45
-45
-43
-42
-44
-43
-47
-41
-39
-39
-34
-39
-42
-38
-38
-32
-35
-35
-35
-37
-36
-32
-31
-32
-43
-39
-33
-34
-29
-32
-32
-34
-35
-32
-35
-29
-25
-23
-25
-25
-29
-28
-30
-24
-27
-24
-23
-24
-17
-15
-20
-18
-20
-20
-18
-14
-14
-12
-16
-12
-5
-6
-5
-9
-5
-6
9
11
6
11
2
2
-1
8
10
8
12
10
13
18
13
9
14
16
9
11
10
11
12
8
4
-1
-3
-3
-6
0
-6
-7
-14
-18
-17
-25
-30
-29
-29
-29
-37
-36
-22
-33
-45
-42
-43
-44
-44
-43
-46
-48
-41
-39
-44
-41
-51
-49
-51
-46
-45
-50
-48
-46
-48
-51
-49
-47
-50
-53
-49
-46
-48
-48
-51
-53
-52
-54
-44
-43
-51
-45
-48
-52
-44
-45
-46
-47
-50
-50
-50
-44
-48
-50
-51
-46
-49
-43
-49
-46
-34
-42
-47
-46
-49
-49
-49
-47
-48
-44
-44
-45
-44
-40
-47
-49
-43
-46
-50
-44
-47
-42
-43
-49
-50
-53
-49
-42
-51
-50
-54
-45
-46
-42
-52
-52
-49
-47
-50
-47
-49
-47
-44
-51
-55
-40
-42
-56
-49
-40
-42
-52
-56
-54
-55
-53
-53
-49
-48
-55
-48
-49
-49
-51
-57
-50
-42
-50
-56
-48
-51
-56
-57
-53
-53
-49
-53
-57
-51
-37
-45
-50
-48
-49
-53
-53
-51
-49
-51
-41
-40
-36
-44
-51
-61
-56
-54
-54
-50
-53
-48
-48
-46
-43
-45
-48
-49
-48
-45
-46
-46
-50
-43
-47
-48
-45
-43
-30
-31
-28
-30
-28
-31
-32
-42
-29
-25
-20
-21
-31
-25
-22
-35
-36
-42
-42
-42
-48
-47
-49
-49
-48
-50
-44
-49
-59
-57
-51
-48
-52
-51
-47
-51
-52
-54
-53
-57
-43
-45
-56
-51
-51
-56
-54
-54
-50
-54
-56
-55
-57
-58
-40
-47
-62
-54
-42
-20
4
24
55
87
101
118
136
144
131
94
52
19
-5
-44
-83
-100
-94
-85
-69
-64
-68
-63
-57
-48
-45
-45
-37
-49
-48
-49
-45
-44
-50
-46
-46
-49
-47
-49
-45
-41
-45
-48
-39
-34
-41
-44
-46
-44
-46
-42
-40
-41
-40
-35
-35
-39
-37
-43
-41
-38
-38
-35
-37
-35
-32
-37
-38
-38
-35
-32
-31
-35
-28
-25
-30
-35
-36
-30
-27
-26
-26
-21
-25
-25
-19
-28
-27
-25
-22
-22
-21
-21
-9
-3
-9
-9
-12
-12
-11
-11
-6
3
7
0
2
0
-1
3
6
4
6
8
11
10
13
12
4
10
16
13
10
8
12
11
8
8
3
5
3
-3
-4
-2
-3
-8
-10
-16
-19
-20
-24
-30
-26
-24
-26
-27
-26
-30
-35
-35
-39
-40
-50
-39
-36
-37
-49
-45
-42
-47
-38
-44
-45
-47
-39
-43
-47
-45
-45
-47
-45
-46
-50
-48
-45
-49
-50
-52
-50
-50
-50
-46
-45
-46
-45
-45
-48
-47
-47
-48
-46
-48
-46
-38
-40
-45
-49
-45
-41
-48
-48
-50
-46
-39
-36
-41
-45
-48
-43
-45
-47
-43
-43
-43
-39
-39
-45
-45
-46
-44
-43
-44
-46
-41
-41
-48
-49
-52
-51
-52
-49
-53
-44
-31
-43
-44
-45
-49
-48
-47
-49
-48
-46
-48
-50
-50
-51
-48
-41
-46
-46
-46
-47
-45
-37
-49
-49
-50
-49
-47
-44
-43
-45
-49
-49
-53
-51
-53
-57
-52
-48
-44
-44
-48
-55
-52
-50
-52
-50
-53
-56
-45
-48
-47
-46
-48
-52
-50
-50
-49
-52
-55
-54
-49
-40
-44
-51
-53
-45
-51
-50
-51
-53
-45
-51
-52
-47
-54
-49
-46
-51
-43
-45
-49
-48
-47
-42
-39
-41
-49
-54
-45
-42
-37
-43
-46
-44
-38
-35
-32
-29
-28
-32
-33
-36
-33
-30
-31
-32
-26
-32
-29
-32
-31
-38
-43
-45
-42
-35
-53
-52
-46
-45
-46
-46
-53
-57
-51
-53
-46
-44
-50
-51
-46
-46
-50
-53
-52
-54
-46
-46
-48
-48
-46
-48
-54
-55
-56
-53
-52
-52
-55
-53
-51
-55
-59
-43
-31
-14
12
40
66
92
113
133
142
135
107
71
39
5
-33
-62
-87
-87
-84
-78
-72
-64
-63
-59
-60
-47
-42
-39
-47
-48
-43
-40
-37
-38
-42
-41
-42
-41
-46
-43
-36
-39
-39
-41
-41
-37
-39
-40
-42
-41
-36
-37
-32
-38
-37
-36
-38
-39
-37
-38
-34
-36
-36
-33
-26
-26
-27
-30
-38
-31
-34
-31
-28
-26
-22
-23
-23
-29
-29
-31
-26
-27
-20
-21
-23
-19
-19
-21
-24
-21
-20
-20
-6
-14
-8
-10
-14
-17
-10
-6
-6
-5
-3
-3
-3
-2
-1
0
7
9
11
5
10
10
15
15
14
11
6
9
12
15
11
9
15
12
5
2
15
12
-2
-3
-4
-3
-4
-3
-10
-16
-19
-19
-23
-25
-30
-32
-32
-34
-39
-28
-35
-43
-44
-39
-40
-47
-43
-42
-45
-46
-49
-49
-49
-48
-37
-35
-44
-51
-52
-54
-52
-50
-51
-49
-50
-49
-50
-49
-51
-49
-48
-50
-52
-51
-52
-47
-45
-47
-50
-51
-59
-54
-50
-49
-50
-46
-45
-45
-49
-49
-49
-46
-46
-47
-48
-49
-44
-43
-47
-46
-47
-49
-47
-50
-49
-44
-42
-50
-50
-47
-46
-46
-51
-45
-47
-46
-49
-46
-44
-50
-51
-48
-49
-50
-45
-41
-44
-51
-51
-53
-55
-47
-47
-50
-46
-52
-54
-47
-45
-45
-47
-52
-53
-49
-51
-47
-50
-54
-52
-50
-46
-48
-50
-54
-58
-50
-50
-50
-53
-55
-57
-54
-54
-52
-54
-52
-51
-44
-54
-52
-51
-49
-49
-51
-47
-44
-45
-48
-48
-51
-52
-57
-49
-41
-48
-40
-35
-43
-42
-39
-36
-36
-37
-37
-38
-35
-33
-37
-27
-32
-35
-35
-36
-42
-38
-37
-44
-51
-52
-55
-53
-54
-56
-54
-54
-48
-46
-53
-57
-60
-56
-57
-57
-57
-56
-53
-41
-51
-52
-50
-55
-58
-55
-50
-56
-54
-46
-57
-59
-55
-56
-61
-52
-55
-60
-56
-58
-50
-35
-14
17
40
73
97
115
128
139
125
85
56
31
-7
-48
-82
-88
-83
-78
-74
-66
-63
-65
-61
-45
-47
-47
-40
-45
-37
-43
-46
-47
-48
-49
-45
-43
-40
-45
-47
-37
-42
-43
-43
-43
-41
-39
-38
-39
-40
-43
-40
-41
-37
-38
-35
-37
-38
-34
-42
-41
-38
-31
-32
-31
-28
-30
-28
-28
-31
-29
-25
-27
-33
-31
-27
-26
-26
-30
-29
-30
-28
-30
-25
-15
-18
-20
-18
-17
-13
-19
-19
-16
-14
-5
-13
-6
-2
-4
-2
0
-4
1
-1
-3
2
4
3
8
3
4
8
10
8
14
12
15
23
17
6
11
12
10
10
15
11
13
7
1
3
-3
1
1
-11
-12
-5
-5
-17
-20
-23
-27
-28
-32
-26
-22
-29
-39
-38
-40
-42
-40
-41
-40
-44
-44
-43
-39
-43
-49
-51
-46
-40
-46
-47
-42
-42
-45
-47
-42
-47
-46
-44
-45
-48
-46
-42
-42
-46
-48
-49
-45
-47
-39
-40
-46
-42
-41
-48
-47
-45
-43
-46
-41
-43
-42
-45
-47
-46
-47
-48
-47
-44
-42
-39
-38
-40
-39
-41
-40
-49
-45
-40
-43
-47
-45
-46
-40
-42
-42
-41
-43
-48
-46
-41
-39
-35
-41
-48
-47
-48
-46
-46
-53
-51
-35
-27
-40
-43
-46
-46
-44
-41
-39
-47
-48
-41
-43
-46
-47
-53
-46
-41
-42
-47
-47
-35
-41
-51
-48
-50
-47
-49
-48
-48
-44
-42
-32
-43
-50
-48
-52
-49
-47
-47
-44
-46
-49
-41
-45
-48
-48
-49
-51
-45
-47
-47
-48
-46
-50
-46
-45
-48
-49
-51
-46
-40
-48
-52
-54
-48
-37
-38
-48
-47
-47
-43
-50
-46
-47
-47
-44
-50
-40
-40
-36
-40
-46
-45
-48
-44
-43
-46
-41
-43
-42
-42
-28
-24
-26
-29
-28
-31
-33
-34
-26
-26
-25
-32
-34
-31
-30
-33
-33
-36
-38
-34
-43
-46
-48
-44
-45
-47
-52
-50
-47
-46
-43
-48
-50
-48
-48
-49
-48
-50
-46
-44
-46
-49
-52
-53
-54
-54
-48
-47
-45
-47
-52
-51
-50
-52
-53
-52
-55
-48
-45
-39
-26
-4
10
39
84
95
111
130
141
141
107
65
31
4
-34
-78
-90
-83
-68
-64
-63
-59
-55
-50
-50
-45
-41
-37
-32
-38
-46
-47
-45
-46
-45
-43
-41
-42
-45
-40
-34
-42
-43
-41
-39
-44
-40
-39
-38
-36
-36
-38
-39
-40
-35
-39
-37
-30
-35
-33
-34
-37
-39
-38
-32
-32
-30
-29
-34
-35
-30
-26
-32
-31
-25
-21
-27
-25
-24
-19
-27
-30
-24
-22
-21
-20
-17
-16
-16
-19
-22
-18
-7
-14
-17
-15
-7
-6
-9
-9
-7
-8
-4
-2
-2
2
3
12
11
4
4
3
8
12
9
6
18
19
12
5
10
15
12
13
12
12
9
9
11
9
2
-1
-2
-1
-2
-4
-11
-16
-21
-14
-16
-24
-28
-29
-30
-28
-33
-27
-34
-39
-38
-39
-41
-41
-41
-41
-42
-38
-39
-44
-44
-47
-49
-53
-45
-29
-37
-39
-43
-45
-50
-43
-46
-46
-46
-43
-38
-39
-41
-47
-50
-44
-39
-42
-38
-48
-45
-41
-41
-45
-48
-46
-44
-39
-41
-42
-42
-46
-43
-45
-44
-43
-42
-44
-40
-39
-40
-42
-37
-40
-46
-42
-43
-44
-44
-46
-40
-39
-40
-43
-44
-41
-43
-48
-47
-43
-42
-37
-40
-37
-42
-42
-43
-47
-48
-44
-43
-41
-42
-45
-46
-47
-42
-32
-48
-48
-45
-41
-41
-45
-45
-42
-43
-42
-44
-49
-45
-37
-38
-47
-49
-39
-40
-47
-47
-43
-42
-39
-43
-51
-49
-51
-52
-47
-42
-43
-37
-45
-47
-47
-48
-45
-46
-55
-54
-48
-37
-41
-42
-45
-52
-48
-51
-44
-45
-47
-39
-41
-46
-49
-44
-42
-50
-49
-47
-40
-45
-49
-52
-50
-47
-48
-49
-47
-46
-46
-42
-45
-49
-47
-43
-52
-46
-50
-47
-41
-43
-48
-47
-51
-52
-48
-50
-39
-42
-45
-43
-47
-50
-50
-52
-40
-53
-47
-38
-41
-43
-49
-53
-48
-42
-48
-47
-47
-44
-46
-44
-43
-44
-45
-45
-40
-38
-32
-34
-41
-43
-41
-42
-41
-38
-33
-32
-30
-30
-22
-23
-28
-34
-34
-35
-31
-27
-24
-27
-24
-25
-30
-34
-35
-34
-38
-43
-44
-40
-42
-43
-47
-48
-50
-52
-47
-44
-44
-45
-52
-50
-47
-46
-50
-46
-43
-44
-50
-48
-47
-53
-52
-49
-52
-50
-51
-53
-48
-46
-46
-49
-54
-44
-43
-52
-57
-56
-47
-28
-8
13
37
64
97
113
126
139
142
113
77
41
8
-31
-70
-92
-91
-86
-68
-65
-64
-60
-57
-52
-47
-39
-36
-42
-44
-41
-34
-40
-45
-45
-47
-39
-41
-44
-42
-45
-42
-36
-39
-35
-40
-43
-35
-40
-41
-37
-31
-37
-41
-41
-37
-37
-34
-33
-33
-33
-34
-29
-25
-32
-39
-35
-32
-32
-31
-29
-29
-33
-31
-32
-30
-26
-28
-28
-29
-27
-22
-21
-26
-29
-24
-20
-19
-22
-11
-10
-18
-19
-14
-14
-15
-14
-9
-5
-12
-8
-8
-8
-3
-8
-6
8
6
4
7
8
10
6
4
5
9
14
10
12
11
17
14
7
6
10
9
17
10
12
11
3
1
7
-1
-2
-1
-8
-8
-10
-17
-20
-19
-21
-24
-25
-28
-30
-31
-34
-33
-33
-35
-34
-41
-41
-39
-36
-39
-40
-43
-45
-46
-41
-46
-44
-42
-43
-38
-41
-44
-43
-42
-48
-49
-44
-47
-48
-40
-38
-40
-37
-45
-47
-48
-46
-48
-46
-44
-36
-36
-41
-48
-46
-41
-43
-46
-42
-42
-43
-42
-40
-44
-41
-45
-45
-43
-40
-42
-44
-42
-42
-45
-48
-45
-41
-44
-45
-44
-37
-37
-43
-39
-40
-40
-46
-41
-43
-42
-40
-38
-37
-41
-46
-47
-45
-41
-42
-43
-43
-39
-42
-44
-49
-47
-39
-41
-48
-47
-47
-36
-40
-38
-43
-55
-51
-43
-42
-45
-44
-40
-42
-45
-48
-46
-44
-47
-44
-44
-41
-49
-55
-52
-34
-36
-49
-48
-47
-46
-43
-44
-49
-44
-42
-46
-46
-45
-44
-47
-46
-44
-44
-49
-49
-43
-48
-47
-42
-46
-42
-45
-50
-46
-52
-48
-47
-46
-47
-47
-39
-38
-44
-48
-52
-46
-46
-48
-47
-48
-48
-47
-42
-43
-46
-40
-41
-53
-52
-42
-44
-51
-49
-50
-50
-45
-45
-44
-43
-46
-47
-43
-46
-45
-47
-47
-46
-47
-43
-42
-47
-46
-42
-43
-46
-44
-46
-39
-41
-44
-41
-45
-41
-33
-31
-34
-39
-35
-36
-29
-25
-25
-30
-36
-33
-33
-37
-33
-28
-27
-23
-22
-33
-35
-38
-40
-37
-32
-45
-47
-43
-43
-41
-51
-49
-57
-58
-53
-39
-39
-44
-43
-45
-47
-52
-50
-43
-45
-48
-48
-50
-44
-49
-56
-56
-47
-44
-43
-42
-45
-41
-49
-44
-52
-57
-51
-58
-56
-47
-29
-9
15
35
59
86
103
119
137
137
100
68
36
0
-40
-67
-85
-87
-80
-73
-70
-73
-67
-69
-66
-50
-48
-47
-41
-35
-38
-40
-40
-40
-41
-49
-45
-43
-39
-41
-37
-42
-43
-40
-42
-33
-35
-41
-38
-37
-36
-37
-38
-37
-35
-34
-38
-43
-38
-36
-28
-24
-32
-33
-38
-36
-33
-30
-30
-31
-25
-25
-27
-27
-23
-30
-34
-29
-27
-26
-25
-25
-26
-20
-27
-19
-12
-18
-22
-17
-16
-10
-13
-13
-18
-17
-15
-8
-10
-6
-6
-2
-6
-9
1
-2
-3
2
5
5
8
9
7
6
10
11
11
13
11
9
16
16
13
10
8
10
13
17
7
3
8
8
-1
0
2
-5
-12
-12
-11
-9
-8
-17
-27
-31
-29
-28
-33
-33
-32
-33
-36
-40
-43
-50
-45
-40
-39
-40
-38
-39
-42
-42
-42
-50
-48
-49
-51
-47
-48
-46
-46
-50
-48
-51
-47
-41
-43
-45
-46
-45
-43
-48
-48
-49
-47
-48
-47
-50
-50
-45
-34
-44
-55
-54
-51
-45
-44
-50
-43
-39
-42
-44
-45
-46
-46
-45
-48
-42
-41
-44
-39
-44
-45
-48
-45
-43
-41
-43
-44
-40
-41
-43
-47
-46
-40
-45
-43
-45
-51
-40
-42
-36
-46
-51
-48
-48
-46
-46
-48
-44
-43
-45
-51
-51
-52
-39
-37
-49
-49
-43
-42
-45
-48
-47
-50
-49
-47
-48
-54
-49
-42
-48
-47
-47
-47
-51
-53
-45
-40
-42
-48
-53
-57
-54
-46
-45
-45
-49
-43
-43
-46
-51
-51
-52
-50
-46
-50
-50
-48
-49
-48
-53
-49
-41
-49
-47
-47
-39
-37
-45
-44
-47
-44
-47
-47
-48
-47
-49
-37
-40
-38
-41
-40
-34
-30
-24
-32
-35
-34
-31
-29
-29
-30
-33
-30
-32
-29
-30
-37
-36
-38
-36
-49
-48
-48
-45
-46
-52
-50
-48
-55
-57
-41
-38
-42
-52
-53
-51
-48
-47
-54
-52
-51
-52
-54
-52
-45
-44
-47
-44
-54
-56
-56
-50
-50
-51
-49
-45
-49
-53
-53
-54
-48
-28
-9
12
41
76
101
115
124
139
136
96
63
31
0
-37
-72
-88
-87
-84
-68
-65
-64
-63
-51
-47
-49
-44
-43
-45
-45
-45
-45
-41
-39
-43
-41
-40
-45
-39
-45
-46
-36
-29
-35
-35
-35
-37
-36
-41
-41
-41
-42
-37
-42
-31
-33
-34
-36
-36
-34
-37
-32
-32
-27
-25
-28
-31
-29
-34
-34
-30
-31
-31
-24
-25
-25
-19
-28
-29
-27
-29
-22
-20
-23
-20
-19
-18
-21
-26
-17
-20
-11
-5
-6
-6
-9
-6
-2
-3
-3
4
-4
-9
-1
6
4
7
10
6
8
9
12
13
18
19
13
13
15
15
15
20
20
14
17
17
16
14
9
6
5
5
2
-2
3
3
-3
-5
-10
-16
-17
-20
-18
-24
-28
-27
-25
-27
-38
-40
-36
-37
-39
-40
-34
-33
-32
-34
-46
-49
-42
-40
-45
-43
-37
-39
-39
-42
-44
-41
-39
-42
-47
-45
-40
-41
-42
-39
-46
-42
-44
-53
-42
-37
-44
-41
-39
-40
-44
-46
-43
-45
-44
-43
-42
-36
-44
-43
-47
-42
-44
-42
-40
-40
-41
-40
-41
-39
-45
-42
-41
-32
-35
-37
-37
-36
-38
-41
-43
-44
-42
-39
-35
-39
-37
-38
-44
-44
-41
-40
-41
-41
-43
-38
-37
-36
-39
-44
-47
-44
-42
-41
-44
-42
-40
-37
-38
-43
-46
-42
-47
-46
-41
-41
-39
-42
-45
-45
-44
-48
-49
-45
-43
-41
-31
-31
-37
-42
-43
-45
-43
-38
-40
-47
-44
-46
-45
-48
-47
-39
-45
-50
-44
-38
-40
-42
-42
-48
-42
-41
-47
-47
-42
-43
-43
-43
-43
-40
-46
-42
-47
-48
-47
-41
-41
-42
-45
-44
-38
-40
-39
-41
-37
-35
-33
-42
-43
-43
-38
-38
-40
-35
-32
-29
-24
-26
-26
-24
-23
-26
-26
-28
-29
-15
-14
-26
-34
-34
-36
-35
-35
-38
-41
-40
-41
-44
-38
-42
-46
-49
-50
-45
-44
-43
-43
-45
-43
-50
-51
-45
-45
-48
-44
-40
-40
-38
-43
-46
-49
-48
-50
-47
-42
-44
-44
-46
-50
-56
-49
-47
-45
-29
-9
15
38
67
90
106
123
138
145
126
87
57
28
-4
-59
-87
-88
-80
-67
-61
-60
-51
-48
-48
-45
-36
-28
-36
-36
-43
-41
-41
-36
-37
-37
-40
-42
-43
-44
-43
-36
-27
-35
-36
-37
-41
-36
-36
-30
-32
-35
-32
-32
-34
-39
-34
-30
-34
-30
-31
-33
-27
-26
-27
-33
-29
-30
-31
-30
-32
-28
-26
-26
-29
-27
-26
-23
-27
-29
-25
-20
-25
-25
-12
-15
-15
-19
-18
-14
-14
-12
-11
-13
-16
-13
-6
-10
-7
4
-1
-3
3
3
2
1
-1
2
9
9
7
10
14
10
13
17
17
16
13
16
18
20
16
13
11
9
9
9
12
10
13
7
6
0
-5
-9
-5
-11
-14
-19
-19
-18
-8
-12
-26
-34
-37
-33
-30
-31
-32
-36
-35
-38
-41
-44
-42
-38
-37
-43
-44
-38
-41
-45
-45
-46
-41
-41
-46
-39
-44
-40
-43
-46
-45
-45
-43
-43
-45
-45
-43
-39
-40
-46
-49
-48
-42
-36
-32
-45
-44
-43
-42
-39
-46
-48
-46
-41
-40
-44
-42
-42
-39
-33
-41
-41
-39
-43
-42
-39
-34
-39
-43
-46
-49
-43
-46
-41
-41
-41
-42
-37
-39
-40
-44
-40
-45
-47
-40
-38
-41
-37
-43
-45
-47
-46
-44
-41
-42
-41
-39
-40
-44
-43
-46
-43
-45
-44
-43
-45
-46
-42
-41
-36
-44
-47
-43
-43
-39
-43
-47
-47
-43
-45
-48
-45
-46
-50
-48
-47
-48
-48
-45
-44
-46
-47
-44
-44
-43
-46
-43
-45
-45
-40
-45
-49
-46
-49
-44
-37
-46
-49
-47
-47
-48
-44
-45
-46
-48
-47
-42
-41
-47
-47
-47
-46
-45
-48
-48
-47
-46
-46
-44
-54
-53
-41
-43
-46
-38
-42
-43
-42
-41
-44
-45
-40
-41
-42
-35
-35
-37
-39
-41
-40
-34
-32
-34
-31
-33
-26
-25
-25
-21
-23
-31
-29
-18
-18
-24
-29
-29
-37
-41
-45
-41
-46
-47
-43
-41
-48
-46
-46
-43
-51
-50
-46
-48
-50
-48
-47
-48
-42
-45
-53
-56
-44
-39
-36
-42
-44
-46
-46
-48
-50
-47
-47
-46
-51
-49
-50
-48
-51
-49
-40
-25
-7
16
52
79
100
116
130
145
143
107
77
44
5
-34
-75
-95
-87
-80
-69
-66
-63
-60
-52
-49
-40
-37
-35
-36
-42
-44
-47
-42
-42
-36
-39
-38
-40
-40
-48
-41
-39
-35
-31
-37
-38
-37
-35
-39
-40
-38
-38
-38
-37
-36
-30
-34
-34
-27
-35
-29
-29
-37
-32
-30
-28
-31
-31
-31
-32
-31
-30
-31
-28
-27
-26
-26
-25
-26
-26
-24
-23
-26
-22
-18
-19
-19
-24
-20
-19
-14
-10
-11
-16
-10
-10
-11
-9
-8
-6
-5
-4
-1
0
3
5
-2
5
2
11
13
10
11
11
13
14
14
13
13
11
18
12
9
17
16
18
13
12
12
9
7
2
-5
6
8
2
-7
-15
-17
-18
-16
-17
-16
-25
-27
-28
-30
-38
-34
-30
-37
-40
-38
-34
-30
-42
-42
-44
-44
-43
-43
-37
-41
-47
-39
-40
-40
-43
-43
-40
-40
-46
-45
-45
-43
-45
-45
-43
-42
-43
-40
-42
-46
-45
-41
-37
-38
-44
-46
-40
-40
-45
-40
-39
-34
-37
-42
-45
-46
-45
-44
-41
-40
-41
-39
-43
-47
-36
-33
-42
-39
-40
-40
-41
-41
-41
-37
-47
-45
-41
-44
-40
-39
-36
-39
-40
-45
-49
-45
-41
-43
-44
-35
-38
-40
-40
-38
-40
-44
-43
-39
-38
-40
-44
-41
-44
-42
-46
-43
-41
-43
-46
-44
-40
-40
-42
-37
-45
-49
-43
-44
-45
-43
-46
-45
-36
-34
-46
-47
-46
-41
-45
-47
-44
-40
-46
-47
-49
-45
-44
-50
-48
-46
-46
-44
-46
-46
-49
-43
-43
-43
-48
-54
-51
-31
-37
-48
-44
-43
-48
-45
-44
-49
-46
-43
-39
-39
-49
-44
-46
-48
-46
-41
-40
-44
-50
-46
-47
-43
-43
-46
-46
-45
-45
-44
-40
-45
-47
-43
-39
-40
-39
-39
-34
-40
-44
-44
-41
-41
-38
-30
-31
-30
-30
-28
-23
-30
-18
-26
-25
-27
-25
-25
-27
-29
-35
-35
-31
-37
-42
-44
-42
-41
-43
-45
-51
-47
-49
-50
-49
-45
-45
-39
-41
-42
-49
-49
-48
-48
-45
-39
-40
-45
-48
-52
-47
-44
-44
-51
-50
-48
-46
-48
-43
-42
-53
-52
-53
-48
-39
-21
5
28
60
95
110
122
143
141
117
79
50
19
-17
-52
-80
-93
-83
-74
-74
-69
-66
-59
-51
-51
-53
-37
-39
-41
-40
-44
-47
-32
-36
-42
-44
-37
-34
-36
-39
-34
-35
-34
-36
-38
-39
-41
-40
-38
-38
-37
-32
-30
-32
-28
-40
-45
-35
-32
-27
-32
-31
-29
-32
-31
-32
-29
-27
-30
-27
-30
-29
-22
-24
-31
-32
-26
-26
-26
-29
-25
-20
-18
-16
-19
-17
-17
-20
-17
-21
-10
-5
-8
-9
-15
-11
-8
-7
-5
-6
-3
-1
-1
1
1
-1
2
2
2
8
13
16
12
11
12
9
11
16
11
14
14
12
15
30
21
12
17
16
16
13
2
3
6
1
1
-3
-9
-14
-16
-18
-10
-16
-23
-30
-26
-29
-33
-33
-33
-34
-36
-35
-34
-39
-42
-43
-39
-39
-43
-44
-41
-42
-45
-44
-45
-45
-49
-50
-48
-44
-42
-37
-46
-44
-50
-44
-42
-43
-40
-37
-42
-44
-44
-42
-45
-49
-46
-48
-48
-42
-40
-41
-40
-43
-46
-39
-39
-44
-49
-48
-42
-41
-42
-43
-46
-46
-41
-43
-42
-41
-42
-41
-43
-48
-39
-40
-43
-39
-40
-41
-43
-41
-41
-40
-45
-46
-46
-49
-33
-34
-42
-40
-39
-43
-47
-48
-43
-47
-47
-47
-44
-35
-36
-40
-49
-48
-48
-45
-43
-47
-48
-49
-43
-48
-50
-45
-49
-52
-52
-43
-43
-33
-36
-46
-49
-48
-46
-48
-47
-49
-51
-45
-41
-44
-51
-47
-46
-49
-50
-49
-49
-47
-48
-46
-43
-44
-50
-52
-49
-45
-44
-46
-44
-42
-46
-47
-48
-42
-41
-42
-42
-48
-47
-42
-47
-39
-36
-34
-38
-37
-25
-29
-29
-29
-31
-28
-25
-32
-34
-33
-25
-32
-41
-42
-40
-40
-47
-47
-48
-48
-43
-47
-50
-51
-53
-50
-52
-49
-51
-51
-44
-48
-51
-56
-57
-56
-47
-47
-49
-46
-44
-50
-53
-53
-52
-47
-50
-53
-54
-48
-46
-57
-58
-58
-55
-55
-45
-20
8
32
60
84
102
113
134
143
107
71
39
12
-22
-61
-87
-97
-91
-77
-69
-64
-62
-60
-57
-54
-54
-52
-40
-32
-41
-46
-47
-47
-42
-41
-47
-48
-45
-46
-43
-38
-41
-43
-41
-36
-44
-44
-43
-43
-41
-41
-43
-26
-24
-40
-45
-44
-39
-39
-41
-38
-35
-34
-32
-34
-35
-37
-37
-38
-32
-34
-32
-30
-29
-29
-30
-31
-30
-30
-28
-27
-24
-18
-21
-23
-21
-25
-29
-25
-21
-15
-10
-10
-12
-18
-20
-16
-11
-4
-9
-1
-5
-4
-3
0
-1
12
5
-3
2
4
7
13
9
7
9
12
10
13
8
9
11
16
15
9
5
5
7
5
1
2
-3
1
0
-3
-13
-22
-23
-23
-26
-21
-30
-33
-31
-35
-24
-35
-43
-43
-40
-42
-46
-45
-42
-49
-47
-41
-45
-50
-55
-43
-33
-40
-49
-49
-52
-51
-50
-48
-51
-47
-44
-43
-45
-49
-47
-48
-45
-48
-52
-44
-39
-42
-49
-51
-50
-49
-48
-49
-52
-48
-38
-46
-51
-46
-48
-46
-46
-52
-46
-41
-37
-36
-47
-52
-51
-48
-43
-46
-48
-47
-38
-44
-49
-46
-46
-40
-45
-45
-46
-46
-42
-43
-46
-43
-51
-48
-42
-44
-41
-43
-41
-44
-48
-49
-47
-48
-43
-43
-47
-45
-42
-43
-48
-50
-48
-49
-48
-48
-49
-44
-44
-49
-51
-51
-49
-50
-47
-46
-47
-49
-46
-47
-51
-48
-46
-49
-50
-49
-49
-47
-47
-41
-48
-53
-50
-44
-45
-47
-49
-47
-48
-48
-53
-55
-52
-51
-51
-52
-45
-42
-38
-42
-50
-55
-53
-50
-46
-47
-49
-48
-46
-45
-42
-47
-43
-44
-46
-42
-44
-43
-32
-44
-47
-45
-37
-39
-36
-29
-27
-29
-27
-26
-24
-29
-26
-32
-31
-28
-29
-32
-38
-36
-39
-41
-44
-50
-50
-48
-46
-43
-50
-51
-49
-52
-49
-51
-51
-51
-46
-48
-48
-48
-52
-53
-51
-47
-45
-48
-48
-49
-50
-50
-48
-54
-51
-52
-54
-48
-52
-52
-49
-53
-53
-32
-14
-4
27
53
80
104
116
127
139
130
93
61
25
-2
-48
-78
-86
-83
-77
-66
-58
-58
-55
-44
-47
-41
-40
-43
-47
-47
-42
-44
-42
-44
-40
-34
-41
-44
-42
-44
-42
-44
-42
-40
-38
-28
-30
-41
-42
-39
-41
-39
-34
-37
-38
-34
-36
-35
-31
-44
-40
-33
-34
-33
-29
-29
-33
-34
-32
-34
-30
-23
-32
-32
-30
-26
-27
-28
-30
-30
-26
-26
-24
-24
-20
-21
-16
-19
-16
-12
-20
-20
-12
-13
-14
-9
-9
-11
-12
-6
-2
-3
-4
-1
1
1
1
6
1
7
5
7
14
12
12
14
13
21
15
8
8
14
13
15
15
12
10
7
5
5
7
4
-3
-6
-4
-9
-12
-16
-19
-22
-19
-18
-29
-28
-29
-31
-33
-33
-26
-28
-45
-41
-38
-42
-42
-38
-36
-45
-46
-41
-44
-44
-46
-45
-42
-41
-49
-50
-45
-44
-43
-42
-44
-41
-39
-40
-43
-43
-45
-42
-44
-42
-43
-41
-42
-42
-41
-45
-48
-47
-46
-39
-38
-43
-41
-41
-41
-45
-46
-40
-41
-41
-39
-42
-40
-45
-38
-45
-42
-40
-42
-38
-38
-43
-37
-38
-46
-46
-42
-43
-45
-42
-40
-40
-40
-43
-40
-42
-47
-43
-41
-43
-46
-39
-45
-43
-45
-33
-37
-42
-40
-43
-42
-39
-41
-43
-49
-42
-45
-49
-49
-40
-43
-43
-43
-44
-46
-50
-47
-44
-48
-46
-46
-42
-46
-44
-45
-49
-45
-48
-48
-45
-43
-42
-42
-50
-55
-54
-37
-40
-49
-49
-49
-45
-43
-40
-45
-47
-45
-47
-43
-46
-43
-42
-45
-49
-48
-52
-44
-48
-45
-45
-48
-40
-45
-48
-53
-54
-54
-47
-40
-41
-38
-34
-32
-40
-48
-47
-44
-40
-39
-42
-41
-39
-35
-34
-35
-35
-31
-20
-15
-25
-27
-22
-21
-24
-26
-30
-31
-21
-13
-27
-35
-36
-41
-42
-47
-48
-50
-48
-49
-48
-44
-47
-44
-48
-50
-48
-47
-46
-42
-46
-47
-46
-45
-49
-51
-52
-48
-46
-51
-47
-43
-44
-48
-48
-50
-51
-52
-54
-58
-54
-49
-39
-19
3
20
47
72
97
113
133
148
150
118
74
43
11
-27
-72
-92
-87
-77
-67
-63
-60
-58
-50
-48
-35
-38
-36
-35
-39
-40
-43
-46
-41
-42
-42
-42
-40
-41
-39
-41
-42
-40
-42
-40
-35
-34
-36
-32
-36
-34
-34
-30
-29
-30
-38
-32
-38
-35
-32
-32
-33
-33
-31
-33
-25
-27
-31
-26
-25
-29
-27
-33
-26
-22
-21
-26
-24
-21
-21
-21
-24
-19
-19
-18
-13
-21
-21
-17
-17
-14
-16
-15
-12
-11
-6
-6
-12
-8
5
2
0
-2
3
4
3
8
4
10
13
14
16
10
8
11
12
15
13
16
16
13
16
12
15
15
17
18
18
15
4
11
9
7
3
-1
-3
-4
-9
-8
-11
-19
-17
-24
-26
-27
-28
-30
-28
-28
-34
-34
-37
-42
-37
-40
-34
-31
-37
-35
-37
-44
-46
-45
-44
-45
-49
-45
-38
-40
-43
-44
-45
-41
-40
-44
-48
-44
-35
-37
-36
-46
-49
-50
-49
-40
-40
-39
-31
-35
-40
-42
-45
-37
-35
-44
-38
-40
-34
-40
-45
-44
-42
-41
-31
-33
-40
-40
-38
-39
-43
-43
-44
-40
-38
-39
-39
-37
-33
-38
-40
-40
-43
-44
-38
-40
-41
-40
-38
-39
-42
-46
-39
-44
-40
-34
-43
-34
-34
-36
-40
-42
-45
-48
-44
-34
-36
-42
-38
-33
-42
-38
-43
-45
-44
-43
-43
-43
-41
-43
-46
-44
-45
-35
-36
-40
-43
-46
-43
-42
-45
-45
-42
-42
-42
-40
-41
-42
-41
-42
-47
-50
-39
-42
-46
-41
-43
-40
-39
-38
-38
-46
-47
-44
-46
-45
-43
-42
-43
-46
-47
-41
-40
-38
-36
-35
-46
-48
-42
-42
-43
-41
-43
-45
-45
-41
-38
-39
-45
-45
-46
-39
-44
-46
-45
-41
-34
-31
-40
-32
-43
-40
-37
-37
-33
-36
-39
-34
-31
-30
-33
-30
-21
-23
-24
-23
-26
-28
-25
-23
-21
-24
-21
-25
-19
-25
-26
-31
-33
-38
-43
-43
-37
-44
-48
-40
-43
-41
-41
-41
-40
-48
-47
-45
-43
-46
-42
-37
-40
-41
-44
-35
-39
-48
-42
-37
-44
-45
-41
-47
-48
-43
-40
-36
-48
-48
-43
-43
-45
-30
-10
17
38
68
98
112
131
148
153
117
82
53
16
-19
-54
-82
-84
-72
-67
-66
-60
-63
-61
-53
-44
-43
-36
-32
-34
-38
-40
-36
-35
-30
-42
-41
-35
-28
-28
-25
-32
-38
-36
-35
-35
-34
-27
-28
-28
-36
-36
-31
-28
-28
-34
-35
-29
-27
-26
-30
-34
-36
-26
-26
-29
-30
-22
-22
-28
-22
-23
-22
-22
-21
-19
-20
-16
-20
-15
-22
-17
-13
-19
-13
-13
-12
-9
-12
-19
-11
-5
-8
-3
-6
-4
-9
-6
-3
-2
-5
7
5
6
6
4
7
9
10
14
8
11
14
11
9
18
22
22
23
20
20
19
21
21
20
23
17
16
14
13
11
16
13
11
5
1
-1
-1
-4
-12
-12
-16
-20
-13
-17
-25
-22
-23
-28
-33
-35
-31
-37
-33
-27
-33
-37
-36
-34
-34
-41
-41
-40
-41
-43
-41
-34
-39
-43
-46
-44
-39
-40
-37
-38
-40
-41
-45
-47
-37
-36
-45
-40
-39
-41
-38
-37
-39
-39
-33
-42
-39
-43
-42
-42
-43
-34
-35
-35
-42
-42
-37
-40
-41
-39
-35
-35
-43
-38
-27
-36
-40
-37
-40
-39
-41
-34
-35
-37
-38
-40
-41
-40
-40
-41
-40
-36
-36
-37
-39
-45
-39
-34
-40
-32
-35
-35
-39
-38
-40
-41
-41
-41
-39
-38
-41
-40
-39
-41
-44
-37
-39
-43
-41
-41
-38
-39
-36
-40
-44
-46
-43
-40
-39
-43
-42
-42
-40
-42
-44
-46
-42
-41
-43
-45
-42
-33
-36
-42
-48
-41
-41
-47
-40
-42
-43
-44
-47
-41
-32
-36
-31
-40
-36
-36
-37
-39
-40
-42
-42
-37
-28
-24
-21
-27
-30
-29
-25
-21
-21
-24
-25
-20
-17
-18
-19
-15
-21
-22
-29
-28
-32
-36
-39
-38
-38
-38
-42
-44
-44
-42
-39
-40
-39
-37
-39
-43
-46
-45
-46
-44
-41
-41
-40
-41
-38
-40
-43
-47
-41
-43
-39
-38
-40
-43
-45
-45
-45
-46
-52
-51
-45
-37
-21
3
25
67
102
112
124
145
152
135
95
63
34
0
-39
-73
-83
-75
-69
-60
-54
-50
-50
-51
-50
-40
-39
-37
-38
-36
-40
-36
-31
-31
-33
-37
-31
-29
-29
-31
-36
-34
-31
-36
-34
-34
-31
-41
-39
-30
-28
-25
-31
-29
-27
-29
-25
-24
-25
-29
-26
-24
-23
-29
-28
-29
-29
-28
-21
-20
-17
-19
-20
-19
-17
-27
-25
-23
-18
-15
-17
-13
-9
-12
-22
-14
-14
-9
-10
-6
-3
-4
-10
-7
-5
-4
1
-3
3
8
3
6
9
7
8
6
10
12
15
16
15
18
23
19
18
19
21
20
23
24
23
27
22
27
21
18
16
17
14
11
9
12
12
6
0
1
-5
-10
-14
-18
-15
-13
-14
-21
-26
-24
-23
-35
-35
-31
-28
-26
-31
-31
-34
-33
-33
-36
-34
-35
-35
-34
-37
-40
-36
-34
-33
-41
-41
-35
-38
-32
-33
-40
-42
-42
-37
-30
-31
-39
-39
-36
-37
-38
-40
-40
-37
-33
-36
-30
-28
-36
-35
-36
-43
-34
-27
-33
-31
-32
-33
-31
-32
-34
-37
-35
-30
-27
-31
-30
-29
-31
-30
-30
-37
-36
-32
-36
-34
-34
-34
-23
-31
-33
-33
-32
-36
-34
-33
-39
-28
-23
-35
-31
-32
-32
-29
-30
-28
-34
-35
-29
-30
-30
-32
-36
-35
-35
-34
-30
-33
-34
-36
-39
-37
-39
-37
-34
-35
-35
-30
-34
-32
-36
-38
-33
-35
-33
-35
-38
-33
-36
-38
-40
-40
-40
-40
-39
-35
-32
-31
-35
-31
-32
-47
-39
-38
-32
-33
-33
-33
-32
-28
-36
-39
-37
-31
-32
-35
-35
-32
-36
-40
-40
-35
-38
-38
-37
-35
-34
-33
-37
-35
-37
-35
-35
-33
-36
-31
-27
-29
-31
-29
-22
-34
-33
-25
-22
-23
-24
-22
-22
-12
-20
-17
-23
-24
-19
-21
-13
-11
-17
-20
-11
-13
-18
-28
-31
-28
-24
-25
-32
-32
-40
-42
-33
-32
-35
-37
-37
-35
-37
-41
-41
-40
-40
-37
-40
-38
-32
-35
-36
-41
-38
-37
-40
-39
-39
-39
-35
-30
-37
-36
-32
-30
-33
-38
-50
-39
-24
-1
25
51
72
99
124
137
147
159
140
104
67
29
-3
-42
-73
-84
-71
-53
-49
-48
-47
-44
-39
-36
-34
-31
-32
-29
-21
-27
-27
-32
-36
-36
-29
-27
-27
-25
-28
-24
-28
-34
-33
-30
-26
-27
-24
-18
-21
-23
-22
-25
-36
-30
-21
-25
-22
-21
-19
-22
-24
-26
-21
-24
-23
-22
-17
-19
-22
-17
-18
-21
-19
-14
-17
-17
-15
-16
-9
3
-15
-16
-13
-12
-9
-9
-9
-7
-3
-3
2
-4
3
-2
-4
3
7
5
8
15
13
10
9
6
10
12
15
19
21
16
15
17
18
23
27
24
25
25
27
25
24
21
19
29
27
22
22
21
19
16
11
9
9
10
2
1
1
-1
-7
-13
-10
-6
-17
-20
-14
-19
-27
-23
-16
-25
-32
-32
-25
-25
-26
-31
-28
-24
-34
-38
-34
-33
-36
-33
-33
-33
-34
-36
-34
-31
-33
-33
-33
-31
-31
-33
-32
-31
-30
-30
-36
-35
-34
-33
-32
-34
-36
-20
-28
-38
-38
-34
-36
-32
-30
-35
-35
-27
-31
-31
-33
-32
-30
-34
-29
-32
-31
-29
-28
-32
-34
-31
-30
-29
-35
-32
-34
-32
-35
-29
-33
-37
-34
-28
-31
-29
-27
-30
-31
-32
-38
-30
-34
-34
-33
-32
-30
-32
-30
-30
-32
-34
-36
-36
-39
-36
-30
-30
-34
-36
-41
-38
-30
-36
-37
-29
-26
-32
-36
-39
-40
-35
-33
-33
-35
-38
-34
-36
-35
-37
-39
-37
-31
-35
-30
-32
-37
-31
-34
-40
-41
-41
-38
-39
-33
-33
-33
-37
-40
-41
-42
-36
-37
-38
-37
-33
-33
-36
-34
-40
-44
-40
-38
-38
-34
-38
-36
-37
-35
-41
-47
-42
-24
-31
-40
-37
-38
-37
-39
-37
-36
-35
-39
-38
-38
-42
-32
-26
-33
-40
-33
-32
-29
-32
-33
-31
-30
-31
-29
-28
-25
-29
-28
-24
-21
-11
-16
-25
-27
-23
-25
-23
-20
-18
-16
-14
-20
-22
-25
-26
-23
-28
-30
-34
-36
-37
-37
-31
-37
-42
-40
-41
-39
-38
-36
-36
-37
-38
-42
-47
-47
-32
-31
-28
-34
-42
-45
-42
-38
-42
-41
-42
-44
-43
-41
-33
-36
-42
-43
-43
-44
-47
-46
-37
-24
-1
25
49
72
96
117
135
150
158
132
97
59
19
-15
-63
-87
-86
-72
-61
-56
-54
-51
-46
-43
-45
-33
-16
-31
-38
-31
-28
-35
-40
-33
-35
-31
-35
-34
-33
-31
-26
-31
-34
-36
-33
-30
-25
-23
-26
-31
-34
-29
-33
-32
-28
-30
-30
-28
-25
-24
-26
-26
-23
-24
-25
-25
-24
-25
-20
-22
-18
-17
-20
-24
-23
-16
-14
-14
-17
-16
-18
-17
-12
-9
-6
-17
-12
-9
-13
-8
-8
-5
-4
-8
-5
3
-1
-5
0
9
11
6
6
5
6
10
10
16
18
18
19
16
13
16
21
19
17
27
27
21
18
21
19
18
18
16
