45
40
39
43
45
30
41
42
32
38
36
30
36
46
38
47
55
48
30
36
26
30
34
38
42
32
34
43
47
45
54
40
34
30
39
47
50
49
45
47
31
31
35
39
42
37
35
44
43
43
45
47
47
45
39
42
46
41
37
47
44
46
51
52
50
54
52
45
46
49
56
54
60
60
57
54
49
45
43
43
44
42
39
39
36
46
32
33
40
42
34
39
32
35
40
40
41
39
40
41
32
39
40
40
45
46
45
41
38
32
29
46
50
53
55
60
54
47
54
59
53
60
81
89
98
115
107
107
113
115
95
94
87
80
72
67
64
63
52
43
26
18
25
19
21
30
32
35
37
35
42
37
38
36
35
36
39
54
42
40
40
42
45
53
42
52
52
44
46
41
41
51
53
55
65
56
43
35
41
46
43
52
54
49
55
51
63
56
57
54
56
55
57
52
67
72
64
62
61
54
55
72
76
80
90
95
80
90
92
94
84
89
99
94
112
111
113
115
110
109
110
107
107
118
108
107
106
104
108
104
98
107
106
102
103
103
99
84
86
93
78
78
80
75
74
74
73
73
78
71
78
74
79
73
77
69
64
49
57
51
54
63
61
57
59
54
58
55
67
56
54
57
61
65
73
67
69
67
62
58
63
58
61
61
62
67
70
64
68
54
48
56
55
52
60
60
61
68
64
60
53
63
65
50
55
61
63
65
54
58
42
50
52
60
53
45
65
62
59
48
62
57
49
48
54
51
55
61
66
54
59
57
57
52
63
53
51
53
51
50
43
51
54
50
48
47
57
54
58
63
57
55
51
44
54
53
42
57
57
49
54
51
48
52
47
47
55
52
42
54
66
53
49
50
63
58
42
43
52
59
56
53
46
57
51
53
51
61
51
43
50
52
49
55
59
65
52
55
47
51
49
51
53
52
51
53
59
67
58
49
53
41
48
48
55
51
53
57
54
52
55
61
55
61
52
50
46
53
56
60
60
55
56
60
51
53
54
59
50
56
48
50
53
64
63
59
62
59
53
59
57
58
55
66
64
61
60
60
63
59
57
52
63
59
52
60
53
51
55
54
62
56
52
52
58
54
61
65
62
61
65
65
67
72
65
60
67
59
70
56
52
48
55
55
58
62
66
63
68
58
61
71
62
58
63
51
57
55
59
56
62
64
64
59
63
61
68
67
65
60
55
56
64
63
61
56
64
68
75
65
62
74
65
61
68
61
64
56
54
55
62
65
72
72
75
75
63
59
60
69
66
67
67
63
58
62
67
69
70
81
79
76
77
63
63
61
64
70
71
73
81
76
78
84
80
75
74
74
72
74
69
72
74
80
80
90
77
70
81
75
73
71
76
73
72
78
62
61
66
62
68
73
69
63
64
73
75
78
72
63
68
63
62
65
61
70
75
76
77
83
88
90
92
101
106
119
128
129
137
145
138
143
136
124
115
122
121
106
106
97
83
74
59
44
44
52
51
51
58
62
67
69
75
66
73
72
64
65
79
77
63
73
69
64
59
67
72
72
82
81
72
67
68
76
82
77
80
74
68
64
69
83
74
83
92
86
79
84
85
92
90
89
90
85
92
81
85
91
90
97
97
101
97
109
97
97
95
109
109
107
106
111
113
114
115
118
124
119
120
123
120
124
122
125
133
131
134
145
132
126
131
142
138
125
130
136
132
129
116
116
128
134
121
124
116
122
112
110
117
103
104
108
106
112
116
116
110
104
100
102
106
96
97
99
99
100
90
99
101
98
101
96
98
88
94
103
104
108
103
100
107
102
95
87
92
98
91
92
92
96
93
98
93
89
95
94
89
98
108
96
101
92
89
91
93
92
89
97
101
96
104
88
85
91
93
101
94
93
86
85
88
92
85
94
92
88
84
87
91
89
92
94
99
102
91
84
84
93
99
97
91
96
94
94
92
88
93
89
92
96
97
90
92
95
93
91
95
85
90
88
89
87
96
100
98
97
95
93
86
98
97
97
91
94
97
87
86
91
98
96
106
99
96
90
97
95
106
99
99
93
96
100
106
97
100
102
98
101
103
110
100
89
106
96
99
98
94
101
94
101
108
104
98
98
100
92
92
98
98
95
102
99
104
106
96
96
104
106
103
105
112
105
102
109
105
109
116
110
102
97
98
87
102
102
106
108
103
111
104
103
106
96
95
107
100
99
106
104
107
108
118
106
105
109
105
100
98
109
114
104
107
101
104
101
103
110
102
97
102
105
102
96
102
103
101
101
104
110
113
113
103
102
102
102
100
102
103
108
108
108
98
102
102
108
108
102
105
109
111
119
105
98
106
107
101
108
111
100
106
115
111
111
107
103
109
107
112
109
102
110
121
106
106
109
113
108
108
107
105
113
111
113
111
112
106
123
117
122
120
108
108
114
116
122
118
118
116
123
126
125
127
129
125
125
125
128
112
107
108
104
106
109
104
99
109
113
109
108
112
109
115
107
110
101
107
106
100
104
108
108
107
109
113
117
119
117
117
120
129
126
130
133
137
154
163
178
183
175
171
161
156
149
151
144
132
128
125
135
123
121
103
76
90
79
92
98
106
108
108
100
100
104
101
103
108
106
107
107
108
105
112
112
109
111
118
119
121
114
120
122
110
116
112
116
106
106
110
120
119
111
116
122
127
125
114
122
125
125
137
123
117
122
122
123
127
126
121
127
128
128
139
147
154
147
146
145
136
139
141
139
139
151
155
155
156
155
157
167
168
172
178
167
158
170
166
177
180
178
175
175
168
173
169
163
159
163
167
164
163
164
170
159
155
151
154
151
151
139
146
143
142
148
147
146
134
138
138
142
140
141
130
132
133
125
139
143
141
132
123
118
122
131
119
126
124
128
129
130
131
131
128
128
129
136
133
131
133
134
131
111
117
132
124
125
124
129
134
132
130
124
123
132
134
125
112
127
131
135
122
113
110
115
122
124
124
128
127
129
119
115
117
128
123
120
120
126
122
126
115
119
124
130
113
128
127
118
122
129
110
119
114
127
117
124
120
121
118
122
123
115
115
115
117
122
128
122
119
119
114
116
120
122
117
118
125
126
128
122
120
119
120
117
127
129
124
118
125
128
124
119
123
125
119
121
131
134
125
113
113
111
117
116
118
118
113
114
115
124
112
118
122
114
117
118
120
117
122
124
123
122
127
123
124
125
128
117
118
126
127
123
119
116
111
124
128
114
122
128
128
134
117
112
111
108
116
122
126
119
125
125
114
110
113
116
129
128
116
123
119
123
109
106
111
123
119
115
118
118
120
119
120
123
136
130
128
129
127
115
116
114
126
121
114
112
116
126
134
116
125
123
119
113
109
117
119
125
120
122
124
129
118
126
129
118
118
119
109
113
111
126
119
122
117
128
130
128
127
124
113
111
110
117
118
125
122
129
127
122
117
119
124
134
121
118
119
127
133
129
118
127
119
116
122
117
130
135
136
128
126
129
130
132
124
125
130
129
125
124
125
131
134
136
143
140
132
132
136
136
127
129
135
136
141
139
144
143
129
124
137
137
134
138
129
115
118
120
115
119
123
130
116
120
125
125
127
123
127
122
124
115
113
118
128
129
140
133
140
135
128
134
137
134
152
165
189
195
181
186
195
184
180
182
171
166
168
166
155
154
148
130
122
117
102
98
96
107
107
106
108
119
130
122
118
115
114
116
121
110
113
124
120
124
122
122
115
125
121
111
120
122
115
121
132
133
134
126
127
120
122
129
129
120
132
126
136
132
130
133
137
136
138
144
139
137
141
135
144
146
142
138
143
151
149
136
147
149
151
155
157
149
156
167
172
171
167
169
177
175
188
181
184
190
196
194
195
191
195
188
195
202
192
190
197
199
203
200
198
186
180
183
179
181
187
187
183
184
181
184
174
172
164
165
163
162
159
156
159
157
159
164
156
161
158
163
156
142
139
141
147
141
145
142
149
144
147
148
156
151
148
146
147
147
146
143
146
155
143
136
136
137
137
144
147
142
146
140
142
143
144
150
147
145
144
143
147
134
134
137
138
143
138
137
133
143
148
140
134
138
142
135
132
128
131
129
133
139
124
138
143
132
128
130
131
135
148
141
140
140
140
130
128
126
133
140
136
130
124
145
142
137
146
127
127
133
133
132
131
134
137
133
129
133
130
128
135
127
130
134
135
142
137
138
134
128
135
137
129
135
143
129
141
138
138
137
135
126
127
133
130
130
134
138
147
145
142
132
128
123
129
136
135
139
142
130
133
140
139
138
134
133
138
138
140
142
143
147
142
139
139
146
134
140
137
137
125
132
138
142
136
131
134
142
137
142
137
141
141
133
143
152
138
141
144
141
145
134
141
134
135
133
139
144
140
142
135
138
145
140
140
148
150
140
137
139
140
143
137
136
140
141
142
150
150
151
145
134
137
138
137
147
146
139
137
140
147
136
141
140
142
147
141
144
141
151
146
141
151
143
144
157
153
136
134
140
144
135
137
132
133
147
153
154
145
149
157
146
139
147
133
141
146
134
139
143
148
147
153
151
142
151
159
152
152
153
147
151
147
148
151
145
153
151
153
159
149
153
152
151
156
166
163
167
152
162
159
160
167
165
163
153
158
153
158
146
139
150
145
147
145
147
133
140
149
152
153
145
148
147
146
155
142
143
150
153
151
161
154
147
159
168
164
160
172
172
175
177
189
196
201
212
218
221
220
214
196
192
197
189
179
179
179
166
156
146
134
128
137
136
125
137
140
138
141
145
139
147
147
151
158
153
146
142
146
139
154
152
155
153
160
161
155
165
161
150
156
158
161
158
160
160
153
152
164
168
155
149
149
155
164
159
163
169
167
165
164
169
171
158
159
166
173
177
176
173
182
191
169
180
177
175
180
185
193
182
189
198
203
200
199
202
198
207
216
201
203
215
222
216
213
219
220
217
224
226
224
222
214
217
214
207
212
217
212
213
214
202
191
207
199
194
201
199
205
198
200
189
178
184
189
182
174
173
174
174
176
189
178
183
172
173
176
176
188
184
184
172
164
171
175
183
174
171
175
171
176
173
168
175
177
179
185
176
180
174
171
172
172
170
174
172
182
179
165
160
176
172
169
172
163
165
176
177
171
162
169
166
165
174
168
163
174
179
175
176
174
169
166
174
175
175
167
166
160
168
167
167
173
177
159
165
168
170
170
165
166
170
179
184
169
168
177
177
180
178
168
166
167
167
170
181
173
179
185
180
172
177
173
176
184
182
179
182
183
175
175
184
173
163
164
161
170
171
168
164
154
157
165
165
174
168
173
178
169
168
170
172
166
161
159
169
168
171
178
167
167
167
170
169
185
183
179
182
180
181
189
195
205
207
220
236
242
238
235
234
216
217
220
212
214
198
195
191
184
175
159
134
135
141
141
150
152
158
159
160
160
160
168
172
173
172
167
173
185
169
172
171
163
168
172
171
177
185
188
166
173
159
171
166
172
179
182
172
173
167
181
187
173
170
175
179
176
174
174
175
176
188
178
188
184
184
179
188
194
190
198
195
194
186
194
200
196
196
206
217
208
209
216
219
217
221
228
240
235
235
233
235
243
246
246
239
243
236
244
244
240
249
234
228
236
234
229
219
218
222
215
219
213
212
210
204
212
213
198
199
211
203
194
191
196
195
198
191
195
179
183
186
178
183
191
191
184
181
179
187
181
177
178
183
185
192
184
181
187
186
190
201
182
184
190
180
188
191
188
182
180
182
181
181
184
182
178
179
186
186
188
183
177
189
192
194
186
181
179
180
181
182
184
181
180
185
186
188
188
184
184
190
198
188
183
180
172
180
179
176
175
173
187
179
178
178
178
174
187
178
171
176
177
186
186
177
174
182
182
175
177
176
180
176
181
180
181
182
180
181
186
181
178
166
176
174
175
175
175
170
185
168
172
173
173
175
180
183
183
178
180
175
176
179
182
182
186
189
182
189
186
180
178
171
171
175
180
198
191
191
198
188
180
191
192
189
195
191
183
188
183
182
186
180
185
180
190
191
185
186
181
180
168
173
186
182
182
189
180
181
177
177
174
179
180
179
179
175
168
171
180
183
192
184
177
175
173
175
169
170
174
178
186
184
186
195
198
188
189
196
199
216
240
242
244
254
259
243
240
233
230
235
230
218
207
204
204
193
177
166
146
143
144
160
176
170
176
175
177
182
174
165
171
169
174
172
176
175
177
172
179
170
170
175
169
179
172
182
182
178
177
182
177
176
179
180
176
174
179
189
182
175
183
184
185
186
189
182
188
187
190
193
189
186
197
205
182
191
198
195
192
198
206
204
203
197
208
216
225
232
222
226
230
229
239
247
244
248
234
227
235
251
257
250
249
248
250
256
255
250
243
245
245
241
244
234
234
227
241
252
231
233
237
219
225
216
219
215
218
221
214
216
222
213
209
209
213
210
191
183
195
198
192
195
188
193
197
197
200
189
185
197
197
198
202
206
205
189
185
193
191
186
187
188
195
199
198
194
194
195
187
195
195
193
196
193
194
190
192
198
191
183
191
196
191
198
193
185
178
185
184
184
179
189
190
181
181
191
182
184
191
194
189
189
184
182
177
181
179
185
187
193
180
186
196
191
184
191
198
178
165
171
179
178
177
189
177
178
185
196
186
186
183
180
181
182
183
181
183
176
174
193
183
178
186
182
184
185
177
189
175
182
179
184
185
188
183
189
188
201
194
177
183
176
169
179
176
181
183
184
181
187
188
186
185
192
190
181
183
174
183
181
186
186
189
184
182
180
177
184
183
185
178
187
190
181
185
178
191
195
189
178
183
186
189
192
194
186
184
178
191
179
182
188
183
189
180
188
184
186
186
181
178
185
177
182
180
186
187
188
189
187
188
193
189
185
184
180
177
181
190
185
191
193
186
193
183
176
179
187
190
189
186
195
188
185
180
183
187
188
197
187
191
202
192
192
196
186
175
178
183
187
190
191
191
190
182
176
177
179
186
187
184
187
184
185
194
189
184
189
191
191
184
188
186
181
182
183
179
178
181
182
190
191
193
188
189
184
186
188
185
183
183
183
191
186
187
197
199
188
181
189
183
196
189
186
195
190
188
192
191
186
187
194
190
185
200
195
189
196
191
193
197
200
199
195
196
197
201
201
205
206
208
191
189
186
193
182
182
185
185
182
187
183
183
186
183
186
190
186
184
185
185
179
186
182
181
186
190
188
185
189
201
198
196
200
205
191
207
197
203
221
230
240
237
245
254
260
264
259
241
241
242
234
221
208
214
204
195
195
179
170
166
161
170
181
182
178
183
182
182
176
188
196
176
178
182
179
174
182
186
181
176
178
179
185
188
190
187
194
189
202
199
189
188
186
184
185
197
196
198
194
198
192
190
196
190
199
193
193
189
209
200
198
200
207
212
207
203
205
196
203
196
203
217
215
225
224
220
227
221
224
231
231
238
239
235
249
248
236
252
252
248
256
256
260
253
253
249
259
255
250
250
257
252
242
243
245
245
246
242
246
244
237
243
244
235
236
224
228
232
243
241
220
224
219
212
214
218
217
215
222
225
219
211
216
215
214
208
209
211
206
210
206
209
210
207
201
202
210
208
214
216
211
217
216
211
207
211
213
214
213
204
205
205
211
202
197
203
201
210
211
213
215
211
196
194
188
202
204
211
209
199
200
201
207
209
209
199
203
204
210
205
201
197
201
204
198
198
198
202
203
207
209
206
201
197
203
196
199
195
196
189
196
202
209
189
201
209
201
205
204
193
200
195
191
195
189
196
195
204
206
200
201
194
186
197
204
206
202
201
210
200
192
194
189
195
198
207
209
200
203
203
196
190
180
187
186
195
202
203
194
191
186
184
186
198
198
210
203
200
205
206
199
200
194
197
203
198
202
208
211
211
197
192
188
190
200
197
185
194
186
193
193
194
200
209
194
190
197
203
202
208
209
200
199
201
193
197
197
197
212
203
202
206
198
201
200
192
193
196
196
194
198
201
201
208
216
190
193
200
203
211
205
189
192
199
192
202
206
213
201
196
210
191
190
199
199
201
192
202
193
200
204
203
217
213
193
194
201
200
211
208
207
203
202
203
204
194
207
206
207
195
205
187
187
187
192
200
207
214
210
207
194
195
192
203
197
203
195
200
205
201
197
199
204
204
199
199
198
205
202
210
210
211
207
205
194
196
212
212
200
196
205
203
205
202
205
208
203
218
224
218
218
215
214
210
211
219
224
217
207
199
200
200
195
202
204
198
198
202
194
196
197
197
203
198
202
195
200
200
196
195
195
193
193
192
192
200
198
190
196
199
205
216
204
210
212
207
207
222
223
238
249
251
254
248
252
256
253
239
233
231
234
226
224
220
216
208
200
181
166
165
166
174
177
182
187
189
182
186
185
191
198
204
196
190
193
196
186
193
186
186
178
192
191
181
187
192
213
203
191
190
193
188
186
191
197
199
196
197
200
205
202
204
206
208
200
193
192
202
204
198
198
204
209
203
210
211
216
212
221
204
204
207
212
217
224
228
216
217
216
223
228
229
241
238
248
241
240
241
247
248
246
250
257
245
261
259
254
252
252
251
255
251
254
257
252
248
246
240
239
237
246
239
236
235
229
223
228
234
229
228
219
223
220
215
213
223
211
212
206
212
210
202
202
202
209
211
212
213
211
207
207
202
204
196
191
201
203
204
197
199
203
201
201
198
200
201
201
203
206
208
208
200
199
194
203
199
197
194
208
208
200
201
193
196
198
195
198
202
192
191
193
198
190
191
196
205
193
195
192
201
199
201
202
195
197
183
186
183
177
186
190
193
193
190
200
189
188
190
190
192
191
191
194
191
188
189
187
190
180
181
176
184
185
184
194
195
196
193
188
193
188
183
179
183
185
189
188
187
195
184
185
186
187
190
188
182
189
191
197
191
186
185
188
191
190
184
192
182
189
180
187
194
191
187
188
193
194
194
199
189
191
194
193
202
197
196
194
198
199
193
197
196
195
187
185
180
189
186
180
179
188
189
176
181
186
187
188
189
189
185
182
180
174
171
179
186
174
178
169
169
178
185
183
182
193
185
182
187
182
189
195
197
204
203
207
209
222
239
240
248
243
251
249
234
228
220
224
229
229
206
196
193
188
167
150
152
156
162
163
167
168
177
185
171
165
167
174
176
173
177
175
170
170
169
171
180
175
176
167
173
171
180
176
177
185
179
178
187
190
183
174
173
180
182
180
178
186
196
185
186
183
185
178
189
186
183
184
186
187
191
191
198
198
184
185
197
194
202
199
205
211
210
207
208
215
217
215
220
228
237
232
232
236
238
242
241
238
240
238
252
248
242
252
253
252
248
250
251
250
239
247
237
231
229
227
227
234
221
219
214
214
215
210
211
206
200
201
204
204
196
205
198
194
193
191
197
199
193
191
184
182
173
166
160
161
162
187
197
202
191
182
182
180
170
173
189
183
176
180
187
189
194
187
176
173
177
179
177
177
182
178
178
193
189
183
177
189
190
177
184
187
175
167
175
179
174
172
176
177
182
173
167
174
180
179
174
183
185
167
164
166
174
172
168
176
173
184
174
172
178
170
181
166
169
165
173
169
169
165
166
162
168
171
168
162
160
166
174
172
170
182
168
173
180
181
161
162
169
159
165
176
174
171
176
173
175
165
168
179
167
162
168
164
168
172
178
166
158
165
163
171
165
169
163
171
174
182
162
156
175
171
169
169
172
165
161
168
167
165
162
161
160
162
157
157
165
158
159
166
171
170
171
172
173
171
166
171
173
172
179
167
162
158
155
156
155
152
157
158
163
173
175
174
165
175
170
164
160
160
158
155
151
162
162
158
154
163
157
159
164
163
171
167
175
165
172
176
157
169
156
155
161
159
168
158
158
166
160
166
173
165
160
157
172
179
165
156
169
163
153
151
160
161
163
166
157
151
147
162
163
167
168
167
173
166
169
159
160
166
159
164
156
168
166
162
158
168
166
166
157
163
169
166
161
158
162
153
159
155
165
161
165
164
163
160
165
161
161
170
164
175
159
162
166
155
142
150
154
159
166
169
170
153
157
160
167
166
155
161
179
170
172
150
157
161
164
163
154
159
153
160
156
160
164
164
165
155
163
171
162
175
166
155
153
156
161
167
160
168
168
166
173
173
164
165
161
155
158
157
156
159
179
170
167
171
172
176
179
181
173
166
171
165
170
170
172
168
171
171
165
159
161
160
158
154
156
160
156
159
169
167
156
147
158
150
146
153
151
156
152
151
147
147
156
151
152
150
163
162
162
167
173
177
187
187
185
204
213
220
229
228
237
228
237
232
218
209
210
207
205
193
194
176
149
156
139
123
126
134
136
141
137
138
148
142
140
146
148
146
151
151
146
148
146
147
150
148
146
140
146
153
149
152
151
142
157
170
152
148
142
149
163
169
172
152
135
140
147
154
152
141
150
155
157
170
160
166
165
158
154
152
150
153
159
171
164
169
168
173
179
177
184
184
180
180
184
192
197
204
190
200
194
191
204
208
202
203
206
214
210
212
201
208
219
215
226
226
221
220
214
207
199
212
205
202
202
207
210
210
209
197
203
196
188
186
192
193
186
190
181
175
168
175
175
184
176
182
177
180
178
166
157
160
162
168
153
163
163
164
160
158
166
161
162
169
158
160
157
164
159
157
154
157
157
156
157
163
158
164
168
146
145
153
155
172
170
165
163
162
154
143
146
154
154
145
146
153
144
146
153
145
141
149
148
148
158
164
151
140
154
143
152
147
134
142
157
146
153
154
157
152
144
146
147
145
145
154
147
144
131
134
140
143
136
141
154
159
145
139
120
135
136
138
136
144
143
153
155
158
149
144
140
137
142
142
137
134
143
150
145
139
141
148
149
133
139
132
133
144
143
141
147
155
147
145
144
146
136
138
140
146
135
144
138
139
136
135
140
147
151
149
143
139
141
141
139
142
148
145
148
131
135
133
133
145
143
140
143
150
144
138
137
135
134
146
146
143
151
144
141
136
150
138
133
133
137
143
137
135
137
147
156
146
139
141
141
134
129
135
135
142
143
148
140
144
142
151
152
150
139
153
148
129
126
131
133
133
151
144
144
126
132
136
136
138
140
144
149
143
133
132
142
132
130
133
143
143
147
146
149
131
136
126
128
132
126
129
146
137
138
144
140
129
136
132
137
144
150
142
139
135
143
133
136
131
131
134
140
143
150
132
133
130
140
136
127
140
141
148
137
138
135
137
135
143
134
138
144
131
140
150
146
151
150
155
143
141
144
132
136
134
134
137
136
146
159
155
152
149
137
147
139
132
137
139
139
134
138
136
129
117
123
129
126
135
132
141
134
132
130
130
134
132
135
123
126
130
141
138
128
135
142
138
147
134
137
142
148
160
156
174
179
187
198
199
193
186
177
173
177
154
154
149
148
159
153
141
124
108
105
97
100
100
109
117
122
132
134
123
119
116
119
123
133
128
129
130
127
134
138
135
122
126
124
133
129
127
138
125
125
134
127
122
122
124
129
139
132
140
128
145
141
133
116
129
134
127
131
147
140
133
135
138
135
140
140
136
135
135
142
147
154
154
159
148
146
153
150
151
156
160
154
166
176
169
170
176
183
180
187
183
173
176
181
176
183
186
177
174
188
191
192
183
181
186
196
178
175
168
171
166
172
171
166
158
172
166
161
161
150
148
153
154
157
156
155
160
139
139
142
139
139
137
127
134
131
138
137
138
134
134
130
137
137
138
139
133
129
130
128
129
130
131
134
138
140
131
133
127
124
136
138
142
138
132
132
134
134
130
131
132
124
126
135
129
125
129
134
126
136
133
140
135
131
115
127
131
136
120
125
120
128
128
119
118
116
122
122
122
129
126
132
126
131
130
125
121
118
117
118
116
123
128
112
119
126
116
122
117
122
113
124
122
119
123
124
126
126
131
129
137
129
120
108
108
112
122
125
115
117
120
124
120
120
126
122
126
141
135
122
118
127
134
127
131
133
130
124
123
119
125
126
119
126
120
128
122
123
135
126
116
118
119
121
119
120
102
114
116
106
105
110
114
112
110
115
106
114
119
120
107
114
122
120
112
115
114
118
116
109
120
125
125
120
124
118
121
132
145
133
156
164
170
181
175
179
176
163
153
147
150
148
147
137
140
136
116
95
78
76
81
87
85
91
97
109
107
103
101
103
114
117
115
104
106
97
105
107
105
104
111
113
112
108
108
107
99
108
108
102
106
104
107
111
106
103
120
113
110
113
113
111
108
113
112
112
112
117
114
116
110
120
127
122
112
109
113
114
119
120
123
126
121
126
130
130
141
144
131
132
136
141
139
143
145
161
160
157
156
163
160
155
160
168
176
159
161
165
163
163
160
155
161
159
159
163
159
164
156
154
153
147
152
148
136
130
131
142
129
123
125
133
113
115
113
109
110
116
115
118
116
117
118
112
113
106
100
102
108
110
112
112
112
113
112
103
106
105
103
97
104
113
117
123
108
107
109
108
102
99
102
101
106
112
115
115
105
112
102
104
100
103
97
99
106
101
100
99
102
105
101
103
98
112
91
97
103
95
94
95
102
100
96
96
93
100
102
98
101
95
101
97
94
101
95
90
93
87
86
94
88
94
95
98
94
93
97
94
91
93
98
89
92
97
93
102
93
87
83
85
86
85
89
95
88
93
84
76
84
88
91
85
95
96
90
94
92
88
84
91
91
88
91
100
85
82
88
90
72
75
71
81
84
87
86
75
78
80
86
88
87
94
96
100
82
73
76
78
83
84
88
94
100
96
84
81
94
86
83
77
80
79
84
83
88
91
82
87
81
77
92
85
84
71
76
82
82
75
92
75
82
73
74
73
87
83
79
82
87
87
87
79
76
79
79
85
81
81
77
84
81
84
85
88
88
77
78
71
76
77
69
69
78
81
77
86
83
81
83
82
75
82
83
82
84
80
74
77
78
90
89
74
83
82
73
74
73
67
72
73
73
85
77
67
64
76
74
74
74
85
80
80
76
73
70
83
78
73
72
76
75
74
69
73
81
83
68
71
71
76
77
79
84
92
87
75
79
71
74
68
67
69
67
70
69
57
72
70
69
71
74
74
65
72
75
74
72
69
73
79
75
71
64
65
71
76
70
75
71
68
69
74
67
68
68
74
73
73
75
77
66
72
68
67
80
86
84
62
73
69
62
68
77
84
73
74
78
83
88
82
73
83
82
79
74
79
71
78
70
68
70
68
71
80
71
81
61
67
65
60
66
65
66
58
62
57
56
58
62
66
66
59
63
66
65
65
67
64
59
54
65
80
69
66
82
78
82
90
100
103
114
118
121
127
134
118
128
131
114
106
92
86
86
82
82
82
63
56
44
29
32
45
44
51
52
50
52
55
46
53
60
54
48
45
44
47
49
51
52
55
47
48
53
50
54
51
54
48
53
53
54
64
54
46
55
53
56
55
50
53
60
61
56
65
69
59
49
58
58
56
68
67
60
67
69
53
63
69
60
65
70
67
76
71
73
75
74
82
82
82
90
90
90
101
98
102
110
102
104
111
112
106
110
114
113
116
117
111
119
110
113
114
113
123
115
114
112
115
116
108
113
120
114
91
98
95
98
99
90
98
98
95
92
94
88
87
86
87
74
87
80
78
80
72
66
75
77
68
72
69
64
65
69
70
66
60
59
67
64
67
74
59
61
61
66
64
55
57
63
58
58
58
53
57
57
55
49
50
56
61
61
57
69
68
62
59
58
48
50
48
30
36
41
40
47
49
41
53
59
56
50
43
48
46
45
41
46
48
50
54
47
48
46
46
47
38
41
33
33
38
40
41
43
45
34
42
46
43
34
46
45
40
52
40
38
34
40
41
49
49
33
27
38
31
20
27
34
40
39
36
32
36
35
33
31
33
37
37
52
57
34
26
31
31
29
34
35
31
33
35
34
29
33
27
25
29
32
38
44
46
33
36
40
29
30
26
28
28
35
21
28
24
27
32
32
33
27
34
35
32
29
24
16
28
30
29
26
32
39
37
36
41
42
39
21
23
35
26
20
24
26
28
33
33
26
28
37
34
34
28
24
19
31
24
21
23
20
28
34
29
28
29
32
19
13
29
23
22
37
31
21
28
28
31
28
20
26
29
33
35
30
29
29
22
22
33
36
38
40
41
43
40
35
34
35
36
38
43
33
27
37
54
33
20
29
27
32
26
26
25
24
19
16
22
28
31
20
19
19
22
20
18
16
17
11
21
28
20
27
17
15
23
20
14
17
25
29
42
35
38
47
44
45
40
49
67
84
90
96
102
95
90
100
81
70
70
65
58
50
50
43
34
24
21
6
-10
-14
0
12
13
11
12
6
8
9
17
14
22
28
12
9
3
7
11
9
19
19
16
12
23
15
15
14
18
16
34
24
13
18
20
25
21
21
16
13
13
17
17
22
31
34
13
21
25
34
32
20
23
14
23
29
29
32
35
38
37
45
43
30
33
39
38
49
54
51
48
49
59
54
54
71
73
62
72
76
75
76
79
75
82
88
84
80
86
78
77
78
76
75
75
79
88
78
81
72
78
76
70
55
61
61
62
59
59
53
45
59
65
55
42
50
60
51
31
19
25
26
28
26
30
29
23
29
24
31
26
30
38
35
22
25
24
25
36
17
34
29
27
20
22
3
12
25
22
25
23
17
22
23
24
23
16
17
25
32
41
49
36
12
3
3
2
12
10
12
22
24
31
26
25
9
13
14
24
16
8
12
14
10
5
10
19
18
18
14
12
9
17
9
18
12
2
5
8
5
16
18
15
8
13
20
29
23
16
12
7
13
15
13
26
20
14
9
12
10
11
18
9
14
15
14
16
28
10
17
15
20
18
19
28
33
15
14
14
12
7
17
11
7
5
5
5
8
10
2
7
9
3
8
12
4
0
13
8
8
4
-5
2
8
16
0
-2
-4
-3
3
0
1
3
0
0
14
20
7
12
14
15
21
17
18
23
26
50
54
72
79
73
70
74
64
56
49
44
45
43
36
32
16
14
9
-19
-35
-24
-18
-24
-21
-12
-9
-6
6
4
-13
2
4
1
-2
12
0
-5
-6
-3
0
1
-5
-9
-4
6
-2
3
-1
4
4
4
-2
-4
-5
1
2
-2
-1
2
0
-2
-1
11
18
21
18
23
3
-3
0
13
2
8
9
0
2
17
15
14
15
15
17
22
22
23
23
25
31
35
20
37
37
37
46
56
56
52
56
37
42
60
70
59
63
64
65
65
61
66
60
58
60
65
62
57
53
61
70
59
51
43
45
42
39
47
36
40
42
32
25
24
24
28
26
23
15
8
3
6
7
15
26
11
3
13
11
6
6
7
0
3
7
8
0
11
2
4
3
5
17
-9
-3
5
6
12
8
-2
1
-4
1
6
2
5
10
3
5
-4
4
-1
7
2
2
2
9
5
7
2
6
2
2
0
0
-8
-4
-1
4
-1
-4
-12
-6
-7
-10
-1
9
7
13
-5
-2
-11
-19
-2
-8
-4
14
5
-8
-7
-4
-5
-4
3
7
12
-2
0
0
7
-4
-3
5
6
-2
2
-1
-4
4
4
-3
-2
1
-3
-10
-1
1
0
-11
-10
-17
-9
-11
-4
-5
-4
-12
-4
-11
-11
-9
-11
-10
-4
-15
-19
-10
-17
-19
-15
-11
-9
-9
-7
-11
-17
-10
-5
-8
-8
-14
-10
-4
-10
-14
-15
-7
-2
-5
2
12
19
39
48
50
55
54
61
64
63
40
46
42
46
26
18
21
14
-8
-19
-42
-45
-37
-36
-36
-28
-23
-18
-20
-20
-16
-12
-20
-12
-28
-27
-16
-20
-7
-25
-20
-16
-16
-19
-10
-4
-20
-19
-15
-11
-16
-13
-23
-21
-18
-20
-14
-16
-11
-9
-8
-8
-9
-19
-8
5
0
1
-4
-11
-22
-19
-8
-10
-11
-1
-8
-8
-3
-2
-4
1
7
6
8
4
7
0
1
4
8
15
17
19
19
15
19
28
41
43
46
42
57
50
45
47
36
27
39
40
29
43
39
36
42
34
34
42
35
30
32
37
29
22
24
18
19
18
12
15
9
6
12
7
14
3
9
-4
3
-3
-4
-3
-8
-10
-2
-8
-9
-14
-15
-15
-5
-5
-10
-10
-2
-11
-9
-8
-15
-4
6
-13
-6
-8
-16
-16
-13
-10
-6
-10
-2
1
-16
-22
-17
-6
-8
-10
-12
-8
-9
-7
-9
-4
-2
-19
-16
-13
-11
-14
-25
-18
-21
-14
-11
-18
-13
-11
-5
-12
-24
-12
-18
-17
-11
-14
-20
-26
-20
-20
-22
-17
-21
-22
-22
-21
-31
-24
-22
-19
-20
-20
-20
-19
-19
-17
-32
-27
-15
-15
-14
-23
-27
-29
-29
-26
-30
-20
-15
-28
-16
-25
-37
-34
-27
-27
-24
-21
-21
-14
-28
-24
-34
-27
-21
-28
-28
-22
-23
-26
-26
-28
-23
-25
-25
-35
-35
-20
-25
-24
-20
-16
-10
-16
-20
-14
-20
-24
-17
-15
-11
-12
-16
-11
-18
-26
-25
-23
-26
-22
-27
-16
-15
-15
-21
-23
-24
-29
-32
-26
-32
-26
-25
-29
-38
-40
-30
-28
-43
-39
-32
-37
-28
-25
-33
-37
-34
-29
-29
-29
-27
-32
-35
-35
-31
-35
-24
-30
-23
-31
-25
-24
-24
-16
-7
-5
-10
1
8
14
22
37
38
38
32
33
26
14
12
8
2
-13
-9
-8
-17
-33
-53
-57
-64
-55
-54
-41
-38
-49
-52
-50
-43
-37
-38
-39
-34
-30
-34
-32
-37
-46
-39
-42
-39
-45
-41
-40
-45
-43
-33
-25
-19
-33
-47
-42
-42
-35
-36
-31
-37
-31
-40
-36
-38
-46
-35
-39
-34
-27
-27
-37
-29
-32
-30
-31
-20
-15
-13
-20
-22
-17
-24
-24
-26
-24
-30
-24
-23
-15
-19
-14
-3
-4
-1
-3
4
9
9
8
14
17
19
15
18
15
19
30
37
33
37
38
27
28
20
32
32
28
29
31
31
20
13
16
9
8
18
13
10
2
6
4
-8
-2
3
-2
-10
-10
-10
-14
-18
-19
-10
-13
-22
-10
-8
-22
-27
-27
-28
-30
-26
-22
-32
-35
-27
-34
-31
-25
-26
-21
-22
-24
-25
-27
-31
-23
-12
-25
-23
-24
-29
-29
-25
-26
-22
-21
-19
-21
-22
-25
-26
-32
-31
-31
-36
-28
-25
-34
-31
-35
-44
-40
-37
-38
-36
-32
-36
-35
-36
-34
-28
-37
-36
-33
-35
-37
-32
-33
-39
-27
-40
-38
-42
-26
-39
-38
-38
-40
-43
-43
-45
-44
-41
-40
-47
-46
-38
-31
-43
-39
-42
-40
-40
-38
-40
-47
-48
-42
-52
-50
-43
-37
-46
-42
-45
-41
-38
-37
-40
-46
-52
-45
-46
-48
-50
-46
-48
-45
-47
-45
-36
-35
-41
-40
-37
-37
-47
-45
-55
-50
-48
-46
-50
-47
-53
-44
-47
-42
-42
-45
-44
-43
-46
-48
-47
-48
-51
-54
-49
-57
-62
-44
-38
-44
-49
-41
-41
-48
-46
-51
-58
-51
-45
-55
-48
-43
-45
-45
-48
-49
-45
-48
-51
-50
-48
-48
-44
-47
-52
-50
-48
-50
-52
-49
-50
-50
-40
-46
-49
-58
-44
-49
-42
-48
-52
-54
-54
-52
-52
-48
-48
-42
-44
-45
-51
-45
-54
-53
-52
-46
-51
-54
-56
-48
-57
-52
-51
-44
-49
-43
-43
-50
-43
-48
-44
-42
-45
-51
-53
-57
-57
-51
-53
-51
-52
-48
-54
-50
-55
-54
-48
-47
-41
-43
-52
-45
-55
-53
-54
-53
-51
-54
-48
-50
-59
-53
-44
-52
-53
-55
-48
-47
-43
-46
-55
-62
-51
-47
-56
-56
-55
-46
-46
-49
-44
-47
-63
-55
-57
-61
-60
-54
-53
-50
-35
-44
-52
-49
-52
-59
-55
-43
-45
-54
-51
-53
-45
-43
-49
-52
-52
-50
-55
-51
-53
-57
-47
-52
-58
-55
-47
-46
-47
-54
-56
-54
-56
-50
-51
-47
-41
-50
-51
-55
-51
-43
-37
-40
-42
-48
-36
-50
-46
-46
-50
-47
-43
-36
-35
-39
-37
-38
-53
-49
-49
-45
-44
-46
-48
-49
-42
-57
-67
-54
-49
-49
-68
-71
-61
-60
-60
-64
-58
-55
-57
-61
-61
-61
-54
-65
-57
-55
-53
-54
-48
-50
-51
-45
-33
-32
-31
-18
-19
-16
-8
0
2
18
18
14
17
23
14
10
10
-10
-10
-11
-37
-37
-46
-44
-65
-88
-83
-83
-73
-78
-77
-75
-68
-60
-61
-58
-66
-64
-64
-65
-59
-63
-53
-70
-75
-61
-60
-64
-69
-58
-56
-58
-57
-68
-68
-67
-66
-64
-65
-53
-50
-56
-67
-68
-65
-66
-64
-61
-52
-47
-58
-57
-52
-58
-58
-50
-55
-50
-41
-48
-55
-50
-51
-47
-46
-41
-47
-55
-47
-44
-46
-36
-34
-27
-26
-25
-30
-27
-29
-29
-19
-15
-13
-16
-11
-15
-12
-9
2
7
2
2
5
3
2
-4
1
3
1
0
-16
8
7
16
1
-3
-1
-14
-11
-12
-19
-15
-12
-12
-6
-6
-8
-16
-16
-26
-40
-35
-37
-38
-44
-37
-39
-35
-42
-41
-47
-45
-44
-49
-42
-33
-28
-34
-36
-47
-48
-47
-45
-47
-45
-51
-49
-50
-48
-44
-41
-54
-52
-51
-50
-44
-46
-49
-53
-63
-59
-54
-59
-55
-48
-43
-51
-59
-59
-62
-63
-56
-53
-40
-48
-60
-61
-54
-59
-60
-65
-62
-52
-56
-60
-70
-64
-65
-61
-61
-59
-53
-59
-59
-62
-65
-65
-71
-71
-66
-64
-64
-69
-66
-65
-61
-68
-69
-66
-69
-68
-62
-67
-68
-63
-62
-69
-71
-73
-66
-66
-66
-70
-72
-63
-71
-66
-72
-72
-71
-65
-67
-69
-76
-80
-65
-69
-75
-75
-64
-65
-63
-55
-66
-72
-78
-66
-66
-70
-68
-68
-69
-73
-69
-72
-69
-76
-75
-74
-72
-74
-70
-72
-71
-67
-67
-72
-71
-73
-66
-67
-60
-70
-73
-74
-75
-72
-80
-80
-75
-74
-73
-66
-64
-65
-64
-74
-74
-67
-68
-69
-67
-67
-74
-78
-79
-76
-77
-79
-68
-63
-74
-73
-73
-65
-63
-69
-80
-76
-77
-72
-83
-76
-72
-70
-64
-74
-78
-76
-70
-65
-63
-66
-74
-78
-80
-71
-74
-77
-85
-79
-74
-66
-74
-76
-75
-70
-71
-76
-77
-81
-79
-77
-78
-85
-82
-75
-76
-75
-70
-67
-74
-73
-71
-74
-67
-69
-66
-80
-76
-81
-80
-73
-79
-80
-76
-74
-70
-64
-72
-79
-85
-84
-82
-90
-85
-83
-85
-82
-79
-72
-61
-75
-70
-74
-70
-76
-75
-66
-67
-65
-81
-86
-76
-71
-71
-76
-71
-65
-79
-76
-75
-70
-64
-67
-68
-67
-66
-65
-61
-67
-67
-69
-67
-76
-74
-68
-78
-67
-65
-68
-76
-79
-85
-81
-77
-82
-82
-80
-87
-76
-76
-70
-74
-66
-80
-78
-84
-81
-69
-66
-87
-85
-86
-81
-71
-75
-75
-69
-66
-65
-74
-72
-71
-67
-53
-48
-44
-39
-28
-12
-20
-13
-13
-18
-18
-25
-28
-47
-42
-61
-60
-63
-69
-83
-85
-106
-110
-96
-90
-91
-90
-88
-77
-87
-97
-99
-93
-91
-86
-85
-84
-82
-76
-74
-68
-71
-84
-79
-83
-85
-81
-78
-80
-72
-81
-85
-77
-77
-82
-79
-72
-77
-77
-65
-70
-79
-74
-78
-74
-68
-74
-64
-69
-79
-81
-77
-74
-72
-68
-80
-72
-59
-63
-64
-63
-65
-58
-55
-50
-57
-54
-53
-49
-55
-52
-50
-45
-48
-49
-49
-46
-35
-30
-36
-34
-25
-22
-30
-25
-25
-22
-24
-25
-22
-23
-20
-10
-17
-16
-21
-18
-9
-4
-16
-28
-21
-26
-22
-29
-34
-28
-27
-27
-28
-35
-36
-47
-39
-51
-49
-37
-40
-49
-56
-56
-53
-56
-61
-61
-65
-64
-63
-67
-62
-58
-63
-66
-67
-60
-60
-56
-60
-59
-61
-80
-70
-64
-67
-72
-63
-66
-68
-64
-68
-68
-61
-64
-69
-76
-71
-71
-70
-67
-64
-71
-69
-64
-64
-67
-61
-52
-68
-84
-79
-81
-70
-66
-75
-68
-71
-71
-76
-81
-73
-67
-69
-57
-71
-79
-73
-78
-73
-80
-81
-82
-75
-68
-81
-80
-81
-83
-72
-79
-76
-83
-74
-79
-78
-76
-73
-71
-80
-77
-70
-73
-84
-72
-80
-82
-81
-85
-90
-84
-80
-83
-81
-85
-84
-77
-73
-72
-80
-71
-70
-80
-85
-79
-80
-78
-76
-73
-75
-74
-73
-82
-78
-84
-79
-80
-66
-69
-77
-75
-79
-73
-64
-69
-69
-67
-66
-73
-72
-67
-71
-81
-74
-78
-82
-76
-78
-84
-78
-76
-82
-84
-84
-89
-91
-90
-86
-80
-86
-81
-82
-92
-90
-80
-76
-79
-82
-82
-92
-89
-90
-96
-98
-94
-92
-82
-76
-82
-82
-83
-83
-82
-76
-84
-80
-73
-76
-82
-77
-61
-61
-56
-44
-27
-20
-21
-23
-22
-26
-30
-47
-51
-46
-43
-51
-64
-67
-71
-81
-109
-135
-128
-122
-112
-113
-108
-95
-96
-97
-93
-97
-93
-83
-83
-86
-83
-84
-84
-89
-90
-93
-94
-84
-85
-91
-92
-76
-89
-105
-96
-92
-86
-78
-86
-84
-82
-89
-87
-87
-92
-89
-87
-82
-79
-79
-82
-83
-79
-77
-82
-86
-80
-80
-82
-84
-83
-85
-80
-77
-72
-78
-75
-78
-75
-72
-68
-76
-72
-51
-62
-61
-55
-47
-53
-46
-43
-46
-50
-46
-35
-41
-32
-32
-31
-27
-22
-31
-29
-22
-20
-20
-22
-30
-28
-30
-24
-23
-29
-27
-35
-41
-38
-39
-42
-43
-45
-45
-44
-53
-52
-54
-62
-61
-51
-40
-66
-69
-65
-69
-68
-74
-80
-76
-77
-80
-81
-88
-85
-86
-93
-87
-77
-77
-74
-75
-79
-81
-87
-85
-95
-98
-85
-83
-80
-76
-84
-85
-87
-81
-73
-83
-84
-92
-89
-76
-84
-86
-87
-86
-84
-81
-81
-89
-84
-91
-92
-89
-81
-85
-97
-94
-90
-85
-87
-81
-89
-77
-79
-93
-93
-97
-105
-106
-90
-85
-90
-93
-93
-93
-98
-94
-96
-98
-93
-83
-73
-104
-91
-86
-102
-105
-100
-95
-94
-95
-102
-103
-96
-98
-94
-94
-97
-97
-97
-96
-94
-92
-93
-105
-99
-93
-80
-100
-93
-97
-107
-101
-98
-96
-99
-99
-101
-98
-97
-95
-102
-96
-101
-100
-97
-83
-98
-114
-101
-97
-106
-104
-101
-96
-99
-98
-93
-91
-93
-90
-98
-95
-93
-96
-103
-102
-99
-103
-98
-97
-102
-104
-112
-106
-104
-96
-95
-84
-91
-100
-102
-104
-103
-102
-101
-111
-95
-100
-95
-107
-103
-96
-103
-108
-104
-105
-103
-106
-105
-101
-100
-89
-104
-97
-98
-107
-100
-100
-94
-90
-96
-109
-103
-111
-110
-106
-102
-98
-102
-108
-96
-101
-107
-108
-105
-105
-100
-99
-105
-101
-107
-104
-96
-109
-112
-107
-106
-105
-105
-105
-104
-109
-109
-98
-101
-98
-97
-104
-95
-103
-103
-107
-103
-107
-106
-102
-106
-102
-109
-109
-102
-96
-106
-104
-98
-94
-108
-98
-98
-100
-108
-103
-101
-116
-114
-103
-108
-96
-108
-119
-112
-108
-107
-107
-102
-103
-106
-103
-103
-102
-103
-108
-105
-107
-102
-98
-103
-105
-100
-104
-107
-101
-106
-108
-98
-100
-107
-109
-110
-108
-106
-110
-111
-112
-104
-104
-105
-113
-108
-107
-103
-101
-99
-107
-104
-101
-100
-109
-100
-102
-110
-107
-107
-109
-110
-112
-110
-98
-107
-110
-95
-97
-101
-104
-108
-115
-111
-103
-109
-108
-106
-108
-110
-107
-108
-101
-96
-103
-103
-101
-94
-96
-93
-82
-84
-95
-103
-101
-100
-95
-99
-101
-96
-97
-97
-91
-97
-98
-87
-93
-92
-98
-112
-110
-106
-103
-105
-106
-96
-115
-109
-113
-115
-115
-118
-119
-123
-116
-114
-112
-108
-101
-96
-118
-107
-107
-114
-108
-103
-108
-102
-103
-98
-97
-85
-88
-81
-75
-58
-56
-43
-54
-62
-55
-48
-43
-38
-52
-56
-57
-53
-68
-77
-78
-79
-106
-110
-116
-133
-138
-130
-113
-119
-130
-131
-127
-119
-121
-122
-127
-116
-119
-126
-122
-118
-114
-114
-103
-111
-121
-119
-111
-115
-118
-121
-124
-120
-117
-113
-112
-114
-113
-113
-119
-114
-115
-123
-115
-118
-121
-112
-113
-102
-96
-111
-114
-106
-103
-106
-102
-101
-100
-111
-102
-108
-104
-102
-90
-96
-103
-108
-99
-99
-90
-90
-90
-79
-86
-81
-84
-86
-80
-73
-71
-65
-66
-63
-55
-44
-60
-55
-61
-60
-54
-58
-56
-53
-44
-45
-49
-39
-33
-43
-48
-47
-39
-50
-44
-47
-54
-55
-56
-55
-51
-52
-53
-57
-59
-65
-57
-56
-63
-72
-70
-74
-72
-73
-67
-78
-76
-78
-81
-89
-83
-84
-89
-97
-94
-93
-91
-91
-93
-97
-97
-96
-103
-99
-103
-99
-90
-91
-94
-93
-91
-99
-103
-100
-104
-103
-96
-99
-99
-108
-91
-101
-99
-102
-99
-100
-111
-107
-105
-99
-103
-96
-97
-103
-112
-108
-113
-121
-116
-110
-112
-111
-108
-108
-110
-116
-110
-112
-100
-101
-103
-104
-115
-113
-108
-113
-109
-115
-110
-117
-117
-112
-118
-113
-115
-113
-109
-112
-121
-119
-114
-113
-116
-123
-123
-116
-119
-122
-113
-110
-121
-122
-117
-117
-120
-126
-123
-122
-123
-117
-110
-113
-116
-115
-115
-107
-121
-124
-124
-124
-131
-121
-120
-119
-126
-120
-117
-116
-119
-122
-124
-124
-121
-127
-120
-119
-124
-120
-118
-117
-128
-119
-119
-121
-127
-132
-136
-124
-120
-126
-125
-124
-122
-122
-123
-123
-129
-127
-129
-132
-128
-125
-114
-115
-116
-114
-122
-116
-122
-129
-133
-119
-131
-124
-128
-113
-116
-116
-130
-125
-123
-122
-129
-136
-131
-122
-120
-122
-124
-123
-123
-116
-124
-130
-129
-128
-133
-135
-127
-118
-122
-122
-119
-126
-123
-121
-131
-127
-119
-117
-126
-126
-127
-121
-130
-135
-127
-132
-122
-123
-124
-124
-125
-117
-117
-123
-122
-128
-129
-126
-121
-120
-117
-114
-120
-124
-131
-126
-114
-129
-132
-126
-127
-129
-117
-121
-127
-120
-127
-124
-126
-120
-122
-132
-127
-130
-126
-121
-112
-116
-128
-133
-129
-124
-122
-133
-131
-127
-126
-123
-120
-120
-118
-121
-120
-121
-127
-121
-120
-127
-122
-124
-123
-117
-116
-121
-120
-117
-116
-118
-112
-115
-119
-112
-116
-109
-111
-121
-120
-113
-121
-110
-115
-112
-115
-119
-115
-114
-118
-125
-124
-132
-135
-137
-132
-129
-140
-134
-127
-125
-120
-119
-136
-132
-127
-124
-125
-121
-118
-127
-127
-134
-125
-133
-127
-121
-123
-120
-119
-114
-119
-111
-108
-98
-76
-67
-66
-60
-60
-58
-66
-61
-76
-82
-85
-93
-85
-102
-104
-108
-120
-138
-162
-158
-161
-165
-161
-151
-147
-138
-136
-131
-133
-126
-137
-139
-137
-119
-126
-137
-141
-142
-135
-132
-139
-142
-136
-134
-130
-115
-111
-132
-129
-138
-135
-131
-136
-136
-140
-127
-123
-119
-115
-117
-124
-123
-120
-124
-135
-132
-133
-129
-128
-116
-126
-117
-109
-112
-124
-124
-114
-118
-118
-110
-113
-113
-110
-110
-103
-101
-104
-109
-103
-95
-97
-109
-102
-90
-90
-92
-86
-88
-80
-80
-83
-77
-73
-64
-68
-76
-75
-71
-76
-72
-67
-65
-61
-63
-66
-61
-69
-77
-82
-78
-75
-69
-65
-68
-65
-69
-62
-77
-80
-94
-98
-94
-87
-93
-98
-91
-91
-96
-98
-109
-110
-106
-103
-109
-112
-104
-102
-111
-115
-115
-120
-119
-116
-103
-109
-111
-110
-113
-112
-124
-126
-123
-125
-115
-106
-117
-110
-110
-109
-117
-118
-111
-112
-113
-128
-118
-117
-123
-131
-127
-121
-120
-115
-125
-122
-118
-130
-127
-125
-121
-124
-121
-113
-122
-114
-109
-122
-130
-126
-117
-127
-132
-125
-123
-122
-115
-124
-117
-131
-134
-146
-139
-130
-129
-124
-112
-123
-133
-140
-139
-133
-123
-126
-128
-126
-130
-131
-123
-129
-127
-134
-129
-128
-134
-126
-132
-126
-128
-124
-133
-133
-139
-128
-133
-140
-138
-129
-133
-134
-131
-131
-132
-131
-131
-138
-138
-129
-129
-122
-119
-128
-145
-139
-141
-140
-135
-131
-131
-132
-136
-133
-132
-128
-126
-131
-136
-129
-135
-139
-137
-132
-127
-128
-132
-129
-134
-136
-133
-127
-123
-119
-130
-133
-134
-138
-132
-126
-119
-122
-131
-136
-124
-131
-131
-135
-126
-120
-131
-124
-131
-121
-123
-128
-127
-120
-124
-125
-124
-132
-134
-129
-139
-142
-135
-137
-138
-126
-130
-139
-142
-143
-141
-139
-133
-131
-138
-146
-133
-140
-137
-138
-142
-137
-135
-134
-148
-145
-146
-141
-144
-139
-137
-132
-128
-125
-129
-124
-124
-123
-118
-114
-108
-98
-82
-77
-77
-85
-76
-72
-82
-92
-98
-102
-94
-109
-115
-119
-118
-132
-142
-170
-179
-177
-177
-166
-161
-157
-150
-150
-152
-147
-145
-145
-152
-149
-140
-145
-149
-148
-150
-146
-144
-142
-145
-143
-145
-154
-148
-138
-142
-143
-133
-141
-137
-137
-142
-150
-146
-158
-151
-139
-131
-135
-136
-140
-149
-142
-137
-129
-132
-134
-139
-136
-131
-137
-132
-131
-133
-133
-134
-137
-137
-130
-124
-124
-124
-124
-121
-120
-114
-114
-109
-113
-103
-104
