-44
-35
-25
6
5
25
0
-26
-70
-47
-32
-23
-20
2
13
11
-5
-23
-65
-47
-35
-30
-11
4
22
22
-10
-31
-71
-43
-35
-32
-4
0
21
22
-5
-24
-69
-33
-35
-37
-3
5
21
21
-5
-33
-65
-56
-41
-29
2
14
15
11
-13
-35
-67
-41
-38
-29
-8
-2
25
17
-7
-41
-74
-41
-29
-25
-13
-2
21
16
-8
-49
-73
-36
-36
-25
-9
0
29
10
-9
-38
-64
-34
-27
-22
3
11
45
18
-6
-44
-61
-37
-15
0
11
2
42
8
0
-47
-52
-27
-35
-17
-10
-8
21
-2
-20
-53
-62
-40
-32
-23
-16
-13
20
-5
-17
-64
-60
-43
-40
-23
-3
-5
19
-19
-27
-70
-58
-39
-30
-27
-11
-3
20
-7
-16
-70
-52
-41
-43
-27
-20
3
22
-12
-35
-83
-66
-62
-57
-36
-20
11
41
33
37
14
43
77
91
119
154
172
163
121
87
32
28
15
-4
8
4
20
18
-17
-39
-78
-46
-44
-36
-13
-11
19
13
-15
-41
-77
-38
-34
-29
2
-14
14
13
-19
-49
-67
-40
-34
-24
-8
-1
25
20
-7
-47
-74
-45
-39
-26
0
6
20
11
-14
-32
-65
-32
-47
-32
-5
0
33
18
-11
-40
-62
-33
-36
-23
-2
-1
29
14
-9
-52
-64
-37
-32
-14
1
0
34
18
-5
-45
-55
-26
-30
-13
6
9
43
16
-3
-52
-42
-19
-18
-9
2
14
47
19
-3
-41
-23
-11
-12
0
14
32
48
21
4
-38
-28
-11
-3
7
23
32
55
31
15
-33
-19
-15
-2
11
32
31
51
29
13
-36
-17
1
1
13
15
28
45
15
4
-43
-23
-26
-12
1
7
28
39
12
-11
-61
-53
-32
-25
-14
4
23
30
-2
-28
-72
-43
-33
-32
-8
-1
30
21
-21
-30
-70
-58
-39
-32
-8
-4
19
15
-5
-38
-74
-51
-37
-27
-13
-6
16
9
-13
-45
-67
-38
-44
-21
-4
4
11
8
-17
-46
-78
-40
-34
-24
-10
-10
28
14
-12
-44
-67
-40
-37
-27
-10
-5
22
11
-14
-45
-64
-33
-40
-29
-15
-8
22
9
-7
-53
-63
-43
-41
-24
-19
-8
27
4
-17
-47
-61
-50
-37
-23
-10
-13
24
3
-34
-65
-58
-36
-40
-22
-1
2
16
-1
-20
-63
-58
-47
-37
-25
-7
-1
21
-3
-19
-64
-73
-38
-37
-26
-11
-2
29
-5
-25
-66
-54
-38
-33
-18
-3
8
10
-6
-21
-71
-32
-36
-31
-13
1
15
30
-1
-25
-47
-24
-21
-24
-3
1
26
31
8
-22
-60
-38
-36
-31
-8
-4
12
8
-14
-41
-81
-47
-40
-43
-11
-1
17
8
-22
-46
-82
-50
-42
-31
-14
-11
19
13
-13
-58
-86
-49
-36
-33
-14
-21
7
5
-25
-50
-80
-44
-43
-39
-15
-8
17
-8
-38
-74
-107
-67
-59
-47
-28
-9
40
52
50
25
27
88
100
135
164
161
180
147
101
48
7
13
-3
-5
8
0
27
4
-27
-59
-69
-50
-51
-24
-12
-5
26
-6
-23
-67
-69
-53
-44
-25
-7
-10
21
7
-22
-68
-63
-45
-38
-27
-17
-4
25
-4
-14
-59
-58
-35
-36
-22
-5
-3
14
-7
-23
-63
-56
-37
-42
-25
-2
14
22
-14
-28
-70
-50
-35
-33
-21
-10
13
25
-9
-18
-64
-39
-37
-33
-14
-2
21
27
-1
-28
-65
-40
-31
-21
-7
0
23
24
-5
-25
-62
-31
-27
-27
4
15
40
21
-2
-25
-54
-18
-8
-14
1
11
43
41
10
-26
-48
-23
-19
-7
17
28
47
39
14
-24
-51
-8
-4
-1
16
20
43
34
13
-19
-46
-15
-15
2
15
15
37
31
11
-36
-56
-24
-25
-17
2
6
32
18
-4
-45
-70
-36
-31
-29
-12
-5
28
0
-23
-52
-61
-48
-46
-26
-7
-3
32
1
-21
-54
-66
-47
-45
-19
-8
-8
12
-4
-19
-63
-53
-45
-38
-32
-5
-6
21
-2
-21
-69
-61
-46
-43
-31
-11
0
27
0
-11
-66
-57
-40
-42
-23
-10
6
16
-14
-26
-66
-49
-44
-39
-20
-6
9
20
-7
-31
-75
-50
-31
-27
-36
-15
10
15
-10
-28
-85
-47
-34
-31
-13
-5
16
16
-8
-34
-81
-52
-43
-29
-7
-9
23
18
-12
-37
-78
-51
-41
-33
-18
3
18
6
-16
-48
-77
-45
-28
-48
-26
0
22
9
-18
-46
-79
-45
-42
-33
-16
-9
11
9
-27
-50
-76
-43
-43
-35
-14
-6
24
1
-15
-47
-75
-43
-45
-25
-14
-6
15
15
-10
-44
-77
-34
-39
-21
6
11
32
6
-10
-48
-75
-36
-33
-21
-6
0
41
17
-11
-46
-58
-35
-39
-27
-13
-6
23
-3
-22
-65
-63
-42
-49
-35
-14
-11
3
-2
-21
-73
-56
-43
-40
-25
-7
-11
7
-12
-28
-71
-59
-49
-37
-24
-13
-2
7
-11
-24
-86
-64
-51
-43
-30
-15
-4
8
-23
-44
-90
-81
-69
-65
-39
-15
22
50
49
49
16
56
99
114
157
172
175
173
115
68
24
22
8
-7
7
12
28
18
-20
-44
-80
-48
-38
-27
-15
-11
12
16
-19
-52
-75
-41
-40
-33
-21
-4
21
9
-19
-46
-77
-46
-44
-26
-21
-11
16
9
-11
-55
-77
-48
-41
-25
-8
-9
21
5
-18
-49
-72
-42
-35
-25
-17
-4
7
9
-13
-44
-75
-46
-46
-23
-7
-9
32
13
-24
-54
-66
-42
-41
-22
-5
2
30
8
-19
-49
-70
-34
-34
-20
-2
7
40
11
-7
-52
-49
-35
-31
-11
6
6
33
13
-4
-44
-35
-14
-17
-2
10
15
41
20
3
-43
-24
-13
-13
2
19
32
39
16
6
-38
-20
-10
2
6
15
35
45
21
5
-38
-27
-14
-4
9
21
39
32
16
-7
-53
-30
-21
-29
-2
8
28
29
-4
-25
-63
-37
-28
-27
-13
-3
22
20
-15
-47
-74
-43
-46
-36
-11
-3
23
10
-15
-47
-77
-47
-40
-32
-18
-1
19
0
-21
-52
-71
-40
-37
-32
-6
-5
16
0
-21
-49
-75
-37
-42
-40
-32
1
24
12
-17
-58
-80
-40
-44
-34
-11
-15
12
8
-23
-53
-77
-39
-40
-49
-7
-7
23
8
-23
-57
-71
-42
-40
-25
-21
-15
23
2
-18
-60
-76
-40
-42
-29
-12
-4
22
-5
-23
-68
-65
-38
-40
-24
-13
-12
17
-2
-21
-67
-60
-48
-42
-34
-12
-2
15
-10
-26
-70
-59
-51
-46
-23
-8
7
17
-11
-21
-71
-72
-47
-36
-27
-7
9
24
-9
-31
-80
-56
-46
-37
-23
-1
1
14
-17
-35
-79
-53
-29
-37
-20
-8
11
13
-14
-49
-80
-51
-46
-38
-23
-12
17
14
-14
-37
-72
-44
-43
-36
-19
1
23
-4
-16
-48
-73
-45
-44
-34
-5
6
20
13
-8
-33
-62
-30
-28
-16
-2
4
33
23
-5
-31
-63
-30
-31
-23
-11
-7
18
4
-24
-57
-76
-46
-45
-26
-9
-17
27
1
-22
-57
-79
-44
-38
-42
-20
-24
14
2
-26
-65
-80
-47
-45
-29
-17
-16
14
-2
-28
-67
-75
-45
-43
-43
-15
-4
19
-4
-30
-74
-87
-58
-70
-63
-38
-33
2
-9
-12
-30
6
42
62
94
127
165
187
156
154
75
71
67
42
35
28
28
30
-2
-12
-68
-53
-41
-37
-23
-4
3
7
-12
-25
-72
-47
-51
-40
-28
-8
2
17
-12
-38
-76
-58
-49
-39
-21
-9
6
7
-19
-35
-79
-51
-34
-38
-17
-8
7
11
-16
-39
-79
-53
-43
-34
-17
-4
15
13
-5
-34
-77
-48
-33
-28
-9
-1
23
9
-12
-41
-81
-51
-28
-17
-21
-13
22
10
-20
-45
-74
-38
-32
-24
0
6
30
12
-10
-44
-66
-35
-32
-24
-1
10
37
21
-4
-41
-65
-26
-26
-13
2
8
44
29
5
-34
-43
-24
-18
-12
14
17
48
23
8
-28
-32
-12
-12
5
18
25
48
28
7
-37
-33
-13
-11
0
14
19
50
23
2
-40
-29
-21
-15
-14
2
10
30
7
-12
-53
-50
-35
-26
-28
0
12
31
-10
-17
-65
-49
-34
-34
-32
-3
2
12
-13
-28
-80
-52
-39
-34
-23
-9
5
10
-16
-33
-75
-58
-45
-36
-17
-10
10
11
-15
-34
-80
-54
-39
-45
-16
-1
5
3
-10
-39
-86
-44
-39
-32
-10
-8
15
5
-32
-47
-72
-45
-38
-36
-15
-11
17
11
-18
-56
-81
-49
-36
-36
-16
-17
18
11
-21
-54
-85
-47
-33
-30
-19
-10
17
7
-23
-54
-78
-47
-50
-28
-10
-12
13
12
-14
-63
-88
-54
-52
-35
-9
-10
10
7
-21
-57
-77
-46
-45
-24
-18
-18
6
-10
-23
-55
-71
-50
-49
-32
-19
-11
13
-8
-23
-60
-64
-52
-46
-29
-5
-13
11
-11
-36
-73
-64
-42
-45
-35
-12
-12
11
-13
-27
-75
-59
-34
-47
-37
-14
-13
11
-2
-23
-69
-63
-47
-47
-36
-13
-4
11
-17
-27
-74
-52
-42
-42
-28
-6
5
12
-13
-26
-72
-49
-53
-39
-17
-2
17
21
-6
-27
-68
-43
-31
-22
-11
-7
23
28
-4
-29
-67
-47
-25
-24
-9
-8
13
9
-21
-42
-76
-45
-43
-40
-14
-22
7
2
-22
-55
-79
-54
-47
-36
-28
-18
11
-14
-24
-48
-78
-62
-44
-39
-18
-19
10
2
-24
-64
-83
-50
-59
-33
-28
-15
10
-2
-27
-81
-101
-73
-78
-59
-39
-30
20
21
16
2
-2
55
80
126
146
166
185
166
127
68
41
42
11
-2
7
2
24
-7
-27
-65
-68
-50
-46
-31
-14
-11
19
-8
-27
-68
-64
-47
-38
-31
-24
-11
13
-10
-26
-70
-59
-40
-43
-30
-9
-1
18
-6
-28
-67
-57
-43
-45
-33
-15
1
17
-15
-25
-70
-52
-44
-42
-23
-13
10
14
-14
-27
-73
-50
-37
-33
-23
-4
13
11
-17
-27
-72
-48
-37
-22
-15
-2
17
19
-6
-28
-69
-45
-31
-24
2
4
24
20
-6
-28
-68
-38
-29
-12
10
-12
15
36
11
-28
-66
-32
-19
-12
9
14
41
31
5
-21
-52
-19
-15
-2
11
20
48
41
11
-22
-42
-7
-2
6
14
21
49
36
10
-19
-41
-6
-15
1
14
18
52
32
8
-31
-58
-19
-24
-8
6
10
33
12
-9
-59
-53
-34
-43
-21
2
-3
19
6
-16
-61
-67
-47
-39
-20
-5
-9
23
-12
-24
-70
-64
-40
-42
-24
-9
-2
22
-3
-31
-73
-56
-31
-35
-35
-12
-15
21
-11
-26
-73
-59
-40
-30
-27
-21
-2
14
-12
-24
-77
-49
-42
-32
-25
-15
0
14
-12
-31
-78
-62
-31
-18
-26
-11
9
12
-15
-23
-73
-48
-40
-39
-20
-8
10
13
-6
-28
-77
-56
-50
-38
-17
-7
11
11
-15
-43
-76
-42
-30
-24
-16
-20
15
12
-17
-46
-78
-44
-43
-32
-9
-4
15
11
-17
-47
-86
-57
-50
-29
-8
-6
14
11
-16
-53
-79
-42
-38
-41
-18
-11
18
6
-21
-51
-91
-44
-42
-30
-30
-11
21
3
-15
-53
-84
-46
-45
-41
-15
-10
20
5
-19
-60
-74
-43
-47
-31
-12
-12
14
-4
-20
-60
-64
-37
-43
-26
-6
-6
12
-7
-24
-67
-59
-42
-24
-22
1
6
27
-1
-21
-53
-39
-27
-36
-20
2
10
35
-4
-23
-58
-56
-28
-32
-21
-2
5
15
-11
-24
-86
-50
-37
-44
-21
-7
1
16
-14
-27
-78
-50
-43
-42
-32
-15
6
12
-11
-29
-82
-57
-46
-42
-24
-20
7
8
-18
-40
-80
-52
-41
-24
-30
-21
3
11
-21
-48
-78
-49
-45
-43
-33
-34
-8
4
-18
-54
-61
-10
16
45
67
98
145
156
132
101
72
85
64
54
50
37
41
22
-16
-75
-93
-50
-51
-50
-28
-13
20
-7
-20
-55
-78
-48
-44
-24
-9
-5
25
0
-25
-55
-69
-38
-38
-23
-13
-7
33
4
-29
-55
-66
-45
-40
-25
-8
-7
22
5
-14
-49
-64
-44
-41
-23
-8
-4
30
7
-24
-54
-62
-32
-27
-21
-5
1
28
3
-16
-54
-50
-31
-26
-18
-1
2
27
-2
-7
-56
-39
-31
-17
-2
-6
15
32
0
-7
-53
-33
-21
-25
-12
12
23
40
17
-17
-50
-25
-17
-12
3
14
37
40
22
2
-39
-19
-4
-1
15
32
53
50
15
-8
-28
-7
2
4
21
35
36
-4
-19
-9
14
18
39
34
1
-31
-65
-21
-19
-18
-2
1
30
27
-11
-35
-70
-33
-32
-21
-10
-8
26
12
-17
-43
-71
-39
-37
-30
-9
-14
30
6
-13
-60
-78
-38
-45
-32
-9
-2
18
3
-23
-55
-65
-43
-46
-24
-5
-7
26
4
-12
-72
-69
-44
-41
-27
-4
-4
28
4
-17
-50
-54
-35
-36
-24
-4
-2
24
1
-14
-55
-62
-36
-28
-12
1
-3
24
-2
-19
-67
-52
-31
-28
-17
-1
21
33
3
-33
-75
-46
-35
-38
-20
-10
2
22
0
-22
-71
-50
-38
-21
-17
-8
19
15
-7
-26
-72
-44
-37
-41
-12
1
18
22
-8
-29
-73
-53
-45
-31
-20
-3
14
17
-13
-38
-78
-45
-40
-28
-10
-3
23
13
-10
-32
-71
-44
-37
-28
-5
-6
13
22
-9
-39
-69
-37
-29
-19
-3
0
33
24
7
-31
-67
-48
-29
-14
1
7
39
17
-1
-32
-60
-24
-39
-21
-9
-6
25
13
-21
-54
-80
-44
-35
-30
-13
-5
22
11
-21
-59
-75
-43
-44
-34
-7
-10
12
-3
-23
-64
-69
-43
-37
-32
-22
-12
22
-2
-25
-64
-68
-35
-43
-25
-9
-15
24
1
-24
-64
-66
-58
-58
-53
-25
-18
16
5
4
-18
16
39
51
93
129
149
173
129
112
53
50
33
23
8
10
18
24
-10
-32
-78
-63
-48
-41
-31
-14
0
24
-12
-25
-68
-48
-34
-28
-30
-6
10
23
-10
-30
-77
-47
-43
-31
-11
-4
13
22
-8
-32
-78
-38
-30
-25
-6
-6
25
12
-5
-40
-70
-49
-31
-26
0
4
23
20
-8
-35
-76
-35
-28
-17
3
2
23
16
0
-39
-68
-36
-11
-16
-10
-8
25
19
-8
-38
-65
-27
-39
-9
5
8
32
31
2
-39
-57
-15
-22
-10
11
6
44
30
-1
-30
-50
-16
-20
0
20
23
56
29
10
-24
-32
-1
-8
6
22
29
57
41
15
-31
-26
-2
2
12
27
28
59
37
7
-29
-28
-5
4
22
26
15
57
18
3
-28
-29
-17
-13
-6
12
23
38
14
-4
-51
-33
-26
-31
-13
2
16
28
-4
-15
-68
-50
-30
-27
-15
-15
14
23
-8
-19
-62
-39
-39
-32
-19
-11
10
11
-6
-37
-68
-56
-46
-32
-14
-8
14
15
-5
-31
-74
-50
-32
-32
-10
1
16
10
-16
-39
-76
-39
-38
-26
-10
2
27
8
-17
-43
-64
-36
-42
-33
-18
-6
36
22
-16
-46
-66
-30
-31
-32
-15
-2
26
11
-19
-44
-67
-41
-38
-23
-5
-3
26
15
-16
-43
-65
-47
-42
-26
-12
-3
31
13
-20
-50
-69
-45
-44
-23
-5
-6
26
5
-18
-63
-65
-48
-38
-17
-8
-8
19
6
-20
-62
-60
-33
-37
-18
-12
-2
31
5
-9
-62
-72
-45
-38
-18
-4
-1
22
0
-9
-55
-34
-22
-29
-25
5
9
32
8
-6
-47
-44
-25
-23
-13
5
25
26
7
-6
-57
-53
-46
-30
-19
-7
17
14
-13
-36
-83
-46
-49
-24
-21
-7
11
13
-16
-37
-85
-53
-40
-33
-14
-8
19
7
-13
-33
-89
-53
-46
-29
-9
-4
19
10
-30
-39
-74
-57
-39
-30
-23
-18
-4
-12
-37
-66
-87
-33
8
12
43
59
114
125
112
102
78
117
115
109
109
93
101
68
16
-28
-69
-42
-43
-38
-26
-18
31
5
-22
-54
-85
-38
-41
-25
-7
-3
22
8
-15
-64
-72
-37
-39
-19
-10
-2
28
8
-9
-61
-68
-38
-40
-24
-6
-8
30
6
-17
-58
-53
-48
-31
-21
-12
-2
30
6
-23
-62
-59
-35
-37
-21
-1
3
33
2
-15
-62
-47
-31
-32
-19
-6
14
25
8
-8
-58
-36
-26
-33
-15
8
25
39
9
-13
-57
-38
-24
-15
-5
13
18
38
9
-8
-54
-27
-12
-8
-9
22
41
34
11
-9
-44
-20
-7
-9
11
27
48
49
18
-5
-39
-11
-3
-2
25
35
46
50
22
0
-24
-7
-5
6
26
29
59
39
14
-6
-44
-21
-5
3
16
12
44
28
1
-25
-53
-19
-23
2
14
-3
20
16
-9
-48
-64
-41
-35
-22
-6
-4
19
19
-17
-52
-83
-40
-35
-24
-10
-5
31
17
-16
-50
-70
-34
-38
-19
-8
-8
22
5
-24
-48
-58
-39
-34
-34
-10
-9
22
2
-20
-62
-66
-32
-37
-17
-1
-2
0
10
-30
-63
-59
-43
-29
-25
-11
-2
29
7
-19
-71
-51
-33
-37
-23
-4
9
30
1
-21
-68
-50
-36
-32
-18
-1
8
17
-2
-23
-60
-47
-36
-32
-26
2
14
20
-7
-31
-64
-54
-33
-33
-16
-5
15
11
-4
-31
-61
-35
-33
-38
-8
-15
13
14
-8
-28
-68
-42
-33
-27
-7
0
35
20
-8
-25
-60
-26
-29
-19
0
3
32
24
-4
-36
-71
-23
-24
-17
4
12
32
19
-12
-48
-74
-48
-32
-32
-16
-2
18
12
-16
-44
-71
-47
-48
-39
-4
-18
14
9
-20
-46
-73
-40
-48
-41
-23
-11
28
1
-21
-56
-77
-41
-45
-32
-17
-8
19
7
-17
-68
-71
-51
-63
-45
-27
-29
0
-14
-26
-57
-43
14
27
51
89
104
153
157
132
97
84
86
76
65
61
46
55
9
-3
-64
-57
-49
-39
-26
-18
-8
21
-5
-19
-65
-51
-40
-32
-25
-14
1
26
-3
-27
-67
-59
-41
-39
-21
-4
10
21
-11
-19
-68
-47
-51
-32
-19
-5
9
19
-8
-21
-70
-44
-32
-22
-6
-7
24
16
-12
-24
-63
-39
-36
-25
-14
-5
25
17
-1
-36
-65
-34
-25
-23
-3
4
33
16
-1
-26
-47
-41
-36
-23
-1
6
31
25
-8
-34
-58
-34
-23
-6
6
5
42
26
4
-31
-58
-21
-7
-9
21
12
44
28
10
-33
-48
-7
-5
6
25
25
50
40
15
-18
-47
-6
-9
11
29
23
51
35
22
-17
-28
-9
0
13
23
25
54
28
14
-35
-46
-15
-17
7
10
11
45
23
2
-41
-46
-41
-25
-18
-1
-2
31
1
-18
-56
-53
-32
-42
-27
-4
2
26
3
-13
-74
-52
-39
-27
-24
-4
8
27
-9
-28
-70
-47
-34
-47
-23
-6
10
25
-5
-23
-70
-57
-30
-27
-27
-10
6
20
-9
-27
-70
-37
-37
-37
-21
-8
19
19
-18
-26
-74
-56
-40
-31
-8
-6
14
20
-14
-33
-73
-48
-33
-27
-15
4
27
20
-2
-45
-73
-58
-37
-27
4
-17
16
9
-15
-41
-75
-31
-31
-24
-1
-10
23
10
-10
-42
-75
-35
-32
-31
-7
-6
15
3
-18
-31
-66
-38
-46
-23
-8
10
29
18
-7
-40
-68
-33
-38
-21
-13
1
38
14
-9
-40
-62
-29
-31
-13
-1
2
33
15
-5
-59
-72
-49
-36
-14
-10
-14
15
3
-10
-76
-70
-42
-42
-20
-2
-7
14
-1
-21
-72
-59
-45
-45
-33
-7
3
20
-6
-24
-84
-57
-50
-40
-25
-15
-3
15
-4
-12
-64
-59
-56
-51
-45
-33
-15
-5
-33
-38
-75
-36
0
27
53
86
116
144
133
137
87
86
88
83
76
48
55
48
15
-10
-63
-51
-33
-31
-14
-6
16
11
-14
-41
-81
-39
-31
-24
-15
-3
25
17
-13
-55
-82
-35
-32
-26
-13
-11
26
6
-21
-42
-64
-34
-31
-38
-28
-8
23
19
-19
-47
-71
-38
-33
-25
-2
2
20
9
-6
-51
-81
-36
-32
-31
1
-6
21
12
-3
-41
-55
-13
-28
-23
-16
-14
20
-8
-18
-48
-63
-28
-28
-11
7
10
35
18
0
-57
-64
-35
-22
-5
8
6
38
9
-4
-36
-38
-22
-23
-8
10
10
48
17
13
-26
-42
-10
-9
11
23
18
52
28
11
-37
-30
-11
0
6
29
36
59
40
17
-43
-15
-3
-9
0
19
27
44
23
10
-40
-18
-15
-15
0
19
34
25
14
-13
-56
-34
-25
-33
-15
-5
6
16
3
-21
-74
-44
-31
-30
-9
-11
21
23
-12
-35
-73
-30
-20
-28
-11
-12
5
7
-8
-34
-68
-34
-29
-30
-25
-15
18
15
-10
-42
-66
-46
-41
-19
-3
-28
10
11
-13
-27
-62
-46
-33
-30
-12
-4
14
10
-12
-42
-71
-45
-28
-24
1
0
30
12
-16
-61
-95
-40
-27
-28
-2
-3
24
20
-12
-53
-75
-34
-40
-26
-15
-7
15
-6
-15
-49
-69
-40
-41
-14
3
11
32
5
-9
-58
-63
-42
-50
-30
-9
2
30
8
-22
-58
-58
-24
-22
-13
14
10
24
-9
-15
-49
-51
-22
-20
-6
2
20
43
7
-12
-56
-49
-37
-38
-15
-4
12
24
-3
-13
-68
-58
-41
-27
-26
-9
20
21
-13
-36
-75
-56
-53
-37
-20
-9
15
8
-17
-34
-75
-48
-44
-24
-3
0
18
24
-5
-32
-82
-52
-46
-42
-25
-13
11
2
-20
-62
-98
-66
-62
-43
-11
-6
36
40
37
29
20
63
88
106
127
147
176
148
94
46
7
13
2
-7
-7
-15
9
12
-13
-40
-69
-28
-29
-28
2
-9
9
6
-24
-51
-78
-34
-34
-23
-14
-1
23
14
-13
-47
-69
-41
-53
-27
-17
-7
25
6
-13
-49
-63
-45
-47
-27
6
7
29
10
-7
-59
-66
-34
-27
-42
-4
9
34
13
-13
-67
-58
-30
-27
-21
-5
9
34
2
-16
-61
-45
-41
-41
-15
4
14
25
15
-7
-55
-48
-39
-25
-14
2
25
43
22
-8
-52
-43
-17
-12
-5
11
36
32
14
-10
-46
-27
-9
-3
0
19
38
49
11
1
-39
-22
-15
-8
15
25
53
52
19
-2
-40
0
9
-4
17
21
52
53
21
-5
-35
-11
-12
-11
14
20
42
35
12
-17
-60
-27
-13
-17
3
15
33
29
-5
-41
-75
-38
-31
-22
4
3
21
5
-8
-30
-61
-48
-42
-29
-9
2
33
10
-9
-58
-70
-47
-35
-23
-13
-6
36
21
-10
-48
-76
-28
-30
-24
-26
-5
27
17
-23
-54
-66
-42
-48
-28
-4
1
35
17
-19
-57
-54
-40
-42
-30
1
2
28
7
-17
-62
-69
-27
-42
-23
-1
-7
21
6
-15
-73
-65
-36
-35
-23
1
-16
20
7
-13
-57
-54
-31
-51
-12
10
7
22
-1
-9
-57
-54
-39
-29
-21
-6
5
27
-6
-13
-57
-43
-31
-25
-23
-1
26
31
1
-10
-56
-38
-22
-9
-8
3
24
24
5
-30
-63
-29
-30
-31
-10
15
29
23
-5
-24
-57
-22
-30
-59
-11
2
10
18
-18
-46
-80
-51
-46
-37
-21
-5
29
24
-11
-37
-76
-46
-47
-21
-9
-7
23
8
-18
-51
-84
-42
-44
-31
-7
-9
19
3
-16
-48
-73
-58
-70
-52
-32
-18
16
7
-22
-37
-31
14
33
55
95
118
162
149
121
81
43
56
35
27
39
17
39
21
-11
-62
-78
-44
-44
-31
-13
0
21
5
-15
-57
-63
-43
-37
-16
-9
-3
17
0
-17
-63
-57
-39
-47
-25
2
6
24
-2
-20
-67
-63
-40
-28
-19
-1
3
28
2
-18
-62
-54
-26
-18
-18
-12
3
26
10
-20
-79
-44
-32
-22
-9
-1
9
20
-3
-23
-61
-30
-26
-31
-12
2
23
22
2
-17
-67
-33
-22
-19
0
4
28
28
1
-22
-60
-27
-24
-11
4
14
34
35
8
-24
-52
-26
-17
-6
9
10
47
45
12
-16
-42
-8
-4
-6
11
31
54
43
22
-13
-40
-6
1
-15
15
29
57
44
13
-17
-48
-13
2
15
4
18
50
41
5
-28
-49
-21
-20
-8
18
16
31
23
-9
-32
-65
-35
-33
-20
1
8
28
4
-19
-48
-65
-32
-32
-23
-10
-5
28
7
-14
-54
-57
-37
-39
-22
-12
-4
16
1
-23
-53
-48
-53
-42
-23
-3
-2
26
-1
-18
-64
-54
-33
-33
-23
-5
0
25
-7
-16
-66
-52
-37
-33
-27
-9
1
20
-6
-21
-72
-46
-30
-26
-15
-7
8
21
-6
-25
-70
-45
-28
-27
-22
-3
9
16
-8
-33
-74
-52
-28
-22
-14
-1
19
22
5
-47
-88
-50
-34
-28
-8
5
19
16
-15
-40
-75
-49
-31
-32
-16
9
28
2
-8
-40
-69
-41
-38
-26
-4
4
28
24
-15
-46
-77
-34
-42
-26
-3
2
26
15
-11
-50
-71
-27
-26
-18
-5
2
28
21
-4
-25
-57
-39
-31
-16
4
14
39
10
0
-43
-75
-40
-41
-26
-6
0
27
7
-21
-59
-72
-44
-39
-35
-10
-7
22
9
-29
-63
-68
-44
-42
-32
-17
-6
23
1
-19
-70
-61
-53
-43
-27
-4
-5
9
-3
-20
-63
-64
-42
-45
-32
-12
-17
-3
-37
-54
-96
-76
-42
-24
-3
33
70
103
87
93
66
102
128
123
139
124
124
122
63
26
-30
-24
-16
-26
-16
0
18
18
-7
-26
-75
-37
-33
-36
-20
4
18
13
-9
-30
-72
-41
-47
-29
-4
-6
30
23
-16
-44
-75
-41
-33
-38
-11
-4
19
17
-12
-39
-67
-35
-42
-24
-7
2
18
11
-7
-36
-66
-31
-36
-35
-4
4
29
22
-6
-45
-68
-32
-33
-27
-2
8
29
21
-15
-40
-63
-27
-32
-27
2
10
43
11
-16
-50
-63
-25
-23
-12
9
5
36
25
-6
-44
-54
-22
-24
-3
16
0
45
29
7
-30
-38
-13
-8
-4
16
28
55
26
14
-37
-29
-7
-9
10
24
23
62
40
18
-36
-20
-2
1
11
30
28
34
19
3
-37
-13
-6
-8
-3
23
29
49
15
3
-49
-33
-25
-16
-8
4
19
30
0
-15
-61
-42
-33
-18
-9
-8
20
17
-5
-21
-68
-33
-48
-31
-10
-5
18
30
0
-34
-84
-42
-25
-31
-4
1
16
20
-1
-28
-67
-44
-32
-23
-7
-5
22
10
-12
-44
-75
-40
-29
-24
-2
8
27
9
-13
-46
-77
-34
-33
-21
-6
-6
24
14
-15
-37
-79
-44
-46
-21
-11
-9
30
20
-21
-45
-76
-42
-40
-23
4
3
14
17
-7
-42
-83
-47
-35
-30
-10
-5
28
16
-17
-49
-69
-37
-37
-24
-7
-8
25
13
-15
-61
-63
-39
-36
-26
-8
-13
28
7
-22
-57
-56
-45
-37
-22
-6
-9
7
-7
-12
-55
-64
-45
-37
-25
-2
6
25
-2
-10
-59
-52
-37
-32
-28
-11
6
22
-11
-21
-68
-48
-32
-50
-29
-9
8
19
-5
-19
-62
-46
-36
-35
-20
-5
9
5
-6
-22
-70
-51
-30
-21
-22
-14
2
9
-8
-35
-73
-41
-31
-27
-9
-4
9
13
-12
-40
-76
-35
-28
-31
-12
-9
17
13
-7
-40
-78
-48
-40
-31
-7
-11
28
15
-11
-42
-75
-41
-33
-31
-15
-8
18
12
-16
-60
-71
-33
-32
-28
-23
-4
22
11
-13
-49
-81
-50
-44
-35
-3
1
19
7
-21
-50
-69
-40
-45
-27
-8
-8
21
6
-18
-55
-73
-38
-33
-29
-5
-4
24
8
-15
-61
-64
-36
-50
-27
-12
-5
28
11
-22
-60
-58
-39
-36
-19
-5
-1
38
12
-4
-51
-44
-24
-33
-23
3
18
35
12
-9
-59
-48
-30
-27
-17
10
15
31
0
-18
-60
-38
-34
-29
-16
-4
11
11
12
-31
-82
-47
-41
-40
-19
-7
4
18
-12
-35
-77
-49
-43
-38
-15
-10
15
8
-14
-36
-80
-57
-43
-38
-18
-1
22
13
-11
-47
-72
-45
-43
-40
-9
-17
-3
-20
-44
-72
-98
-64
-39
-12
22
38
80
108
90
73
69
115
127
123
148
128
133
102
56
1
-50
-14
-16
-15
-1
0
28
12
-13
-42
-67
-46
-41
-31
-8
-3
24
14
-14
-45
-61
-43
-51
-36
-14
-5
22
2
-21
-58
-70
-40
-39
-29
-13
-5
22
7
-24
-54
-69
-49
-41
-22
-12
-4
23
8
-12
-57
-62
-35
-47
-30
-6
-3
31
0
-14
-56
-53
-34
-41
-22
-6
3
30
6
-9
-57
-42
-25
-41
-26
-1
14
35
-4
-9
-65
-47
-29
-19
-19
5
15
31
2
-14
-57
-35
-16
-25
-6
2
29
40
7
-5
-60
-31
-17
-23
1
11
34
48
18
0
-43
-22
-19
-6
13
24
39
46
20
-4
-34
-19
-12
3
24
29
50
40
9
-10
-40
-10
-2
-9
14
22
46
37
6
-18
-61
-20
-19
-22
4
14
38
22
-1
-30
-70
-38
-34
-21
-3
0
29
11
-12
-42
-72
-39
-38
-29
-9
-3
27
8
-17
-51
-74
-39
-44
-19
-7
-8
23
11
-15
-54
-73
-45
-44
-16
-3
-10
28
18
-30
-61
-72
-45
-47
-24
-9
-8
27
-1
-22
-55
-63
-42
-39
-25
-6
3
15
-12
-16
-60
-63
-40
-32
-29
-15
-5
19
-3
-23
-63
-67
-46
-35
-29
-7
5
19
-5
-23
-63
-50
-37
-26
-21
-3
-4
10
-12
-17
-65
-50
-43
-38
-21
-9
13
19
-14
-27
-69
-55
-40
-37
-19
-9
11
19
-19
-31
-86
-51
-40
-36
-23
-6
11
13
-18
-37
-67
-42
-37
-40
-13
-2
14
8
-10
-36
-83
-51
-45
-36
-22
-15
19
15
-15
-52
-80
-46
-35
-36
-16
-7
15
0
-13
-47
-74
-47
-38
-31
-15
-8
22
7
-25
-56
-91
-53
-49
-35
-15
-10
21
7
-21
-49
-79
-45
-45
-31
-19
-8
22
6
-22
-61
-81
-47
-47
-25
-10
-10
9
2
-29
-74
-72
-47
-55
-31
-11
-6
25
4
-17
-69
-72
-58
-51
-33
-14
-12
16
-8
-25
-68
-70
-42
-33
-32
-19
-10
17
-4
-24
-70
-63
-50
-39
-25
-15
-8
12
-8
-22
-68
-53
-40
-31
-29
-5
3
23
-6
-22
-68
-49
-35
-30
-13
4
24
31
-4
-18
-55
-44
-47
-23
-20
-3
21
34
-1
-31
-72
-35
-28
-21
-7
0
18
19
-5
-39
-78
-54
-43
-41
-14
-15
16
11
-14
-47
-86
-48
-48
-46
-23
-16
8
6
-24
-49
-84
-56
-44
-37
-12
-5
9
1
-25
-49
-82
-50
-43
-39
-15
-18
17
4
-30
-57
-84
-59
-61
-59
-46
-43
5
-18
-35
-50
-57
11
32
51
83
113
161
165
157
119
85
100
78
83
62
50
67
22
-3
-43
-66
-43
-45
-24
-11
-2
23
1
-16
-65
-66
-39
-40
-29
-6
-5
16
-12
-20
-60
-70
-40
-42
-37
-13
-10
22
-5
-27
-62
-60
-48
-36
-27
-8
-10
19
-9
-19
-63
-56
-41
-32
-25
-14
-2
17
-3
-28
-72
-55
-34
-33
-26
-7
14
27
-16
-15
-71
-49
-31
-23
-10
-5
9
27
-7
-28
-75
-42
-34
-20
-10
-8
17
24
-8
-23
-65
-33
-22
-17
3
12
27
27
-4
-28
-60
-33
-19
-11
4
10
32
32
13
-11
-48
-26
-17
0
7
19
45
35
9
-24
-43
-12
-2
2
22
27
52
43
4
-22
-45
-7
-7
3
14
23
50
38
9
-25
-49
-17
-13
-12
9
15
44
28
4
-36
-57
-23
-34
-21
-11
6
29
20
-7
-42
-59
-32
-45
-14
-1
-9
27
11
-10
-52
-70
-47
-48
-23
-6
-4
23
-5
-24
-57
-60
-34
-35
-24
-8
0
12
-9
-17
-52
-54
-45
-38
-28
-12
-7
21
-6
-19
-63
-55
-37
-33
-25
-6
10
25
-7
-23
-70
-52
-41
-28
-41
-7
9
34
-9
-21
-69
-48
-41
-30
-20
-13
9
23
-4
-28
-76
-51
-42
-23
-16
-19
7
20
-8
-24
-74
-57
-56
-34
-7
-5
21
17
-9
-32
-71
-35
-30
-33
-11
-7
8
5
-17
-46
-76
-40
-35
-27
-10
-2
24
8
-19
-43
-67
-53
-40
-36
-14
-2
22
2
-22
-50
-76
-43
-37
-27
-20
-10
17
7
-23
-46
-72
-41
-59
-25
-14
-8
18
3
-20
-48
-76
-48
-54
-30
-9
0
29
9
-27
-60
-69
-47
-46
-32
-11
0
16
2
-17
-58
-67
-54
-44
-29
-12
-7
24
-4
-20
-58
-63
-53
-48
-31
-10
-7
23
0
-17
-69
-74
-50
-33
-22
-9
-7
18
-4
-22
-70
-60
-40
-48
-25
-4
-3
10
-2
-22
-63
-45
-43
-34
-27
-10
-3
14
-3
-20
-68
-39
-33
-32
-20
-8
11
20
-2
-20
-67
-41
-23
-20
-1
6
27
25
8
-13
-64
-46
-27
-19
-17
3
27
26
2
-21
-64
-36
-37
-23
0
-2
18
16
-12
-39
-80
-45
-34
-31
-13
-13
17
11
-17
-53
-74
-44
-46
-31
-17
-10
12
9
-25
-47
-81
-45
-42
-31
-16
-12
13
2
-24
-58
-82
-60
-45
-33
-23
-18
13
-8
-33
-79
-112
-73
-65
-56
-25
5
42
55
52
34
38
93
117
143
170
171
192
154
111
53
8
12
-3
-12
5
-4
26
4
-21
-56
-66
-43
-40
-30
-15
-9
22
-2
-20
-66
-66
-48
-47
-28
-14
-9
19
-6
-16
-66
-63
-47
-44
-30
-15
-1
20
-8
-29
-65
-61
-41
-36
-28
-9
3
23
-9
-22
-69
-53
-43
-36
-22
0
9
16
-7
-26
-71
-51
-35
-29
-20
-5
12
19
-4
-25
-68
-45
-27
-25
-28
-3
21
31
-20
-24
-69
-44
-28
-29
-4
6
33
30
-10
-32
-65
-33
-24
-19
11
8
19
34
7
-16
-50
-13
-19
-22
4
17
50
31
9
-18
-48
-38
-10
-5
17
27
52
48
14
-21
-56
-18
-14
-5
15
35
51
32
15
-15
-42
-10
-13
5
13
16
46
31
3
-28
-52
-17
-19
-7
2
9
36
15
-6
-43
-65
-38
-33
-20
3
-1
31
9
-18
-59
-68
-45
-45
-24
-5
-6
20
-1
-21
-62
-60
-39
-47
-34
-17
-11
18
-7
-25
-67
-61
-44
-39
-26
-9
-7
18
-9
-26
-68
-58
-42
-40
-30
-13
-8
17
-7
-25
-72
-59
-41
-37
-22
-10
1
17
-9
-28
-65
-41
-32
-55
-22
-11
7
3
-12
-24
-64
-54
-37
-33
-22
-13
7
10
-16
-38
-68
-46
-40
-39
-15
-7
14
10
-19
-43
-77
-43
-46
-41
-10
-4
17
16
-24
-51
-86
-55
-42
-40
-20
-3
19
11
-26
-52
-87
-43
-39
-35
-11
-16
10
5
-18
-48
-82
-52
-45
-31
-20
-16
19
6
-23
-55
-82
-46
-45
-29
-13
-16
14
-3
-27
-60
-82
-51
-49
-33
-18
-16
18
0
-27
-67
-82
-49
-45
-34
-19
-16
17
0
-22
-62
-75
-46
-50
-38
-15
-13
8
8
-25
-75
-60
-40
-47
-35
-18
-11
8
-4
-33
-75
-69
-39
-36
-31
-17
-7
13
-10
-38
-82
-56
-40
-41
-30
-10
1
19
-17
-24
-71
-54
-45
-39
-28
-8
8
18
-6
-17
-62
-46
-27
-21
-13
3
14
22
5
-20
-68
-49
-34
-36
-11
4
26
20
-7
-31
-85
-39
-33
-29
-17
-3
10
9
-17
-39
-85
-53
-55
-42
-19
-15
-2
-1
-24
-44
-86
-59
-49
-37
-14
-17
4
9
-27
-55
-91
-49
-50
-47
-35
-21
8
5
-23
-58
-85
-50
-53
-49
-32
-33
-8
-25
-49
-79
-96
-55
-39
-5
35
58
91
102
103
83
79
114
110
118
118
100
109
71
17
-40
-76
-49
-52
-41
-26
-23
6
-10
-32
-75
-83
-56
-48
-31
-22
-15
19
3
-21
-70
-77
-59
-46
-28
-17
-19
4
-16
-28
-71
-65
-47
-44
-34
-13
-1
17
-16
-33
-76
-63
-47
-50
-30
-13
-6
16
-9
-25
-72
-51
-43
-44
-23
-6
-3
14
-9
-23
-71
-55
-41
-42
-17
0
-1
10
-12
-31
-69
-39
-34
-30
-16
1
0
19
-13
-37
-65
-37
-22
-34
-8
-4
25
22
-8
-25
-64
-35
-24
-17
-3
3
27
25
8
-17
-58
-33
-33
-17
10
13
30
31
9
-20
-55
-23
-20
-8
14
23
43
33
9
-27
-55
-22
-21
-4
16
15
41
36
6
-22
-52
-21
-20
-13
5
15
43
21
-2
-35
-67
-31
-35
-14
1
-5
27
16
-14
-56
-75
-41
-47
-27
-5
-10
27
-8
-23
-62
-78
-48
-56
-36
-13
0
10
-10
-22
-63
-89
-53
-45
-40
-18
-10
19
-6
-36
-72
-75
-47
-44
-22
-18
-17
23
-25
-33
-77
-49
-43
-61
-35
-11
-6
13
-18
-28
-63
-48
-52
-53
-34
-16
-2
13
-12
-16
-77
-55
-45
-44
-27
-15
-2
4
-25
-37
-79
-54
-40
-40
-32
-9
9
2
-20
-35
-77
-67
-55
-39
-28
-20
9
6
-19
-39
-85
-52
-52
-46
-26
-18
4
-3
-28
-65
-86
-56
-63
-42
-27
-18
3
-4
-28
-56
-88
-57
-45
-35
-26
-27
5
-7
-29
-67
-93
-50
-60
-56
-29
-22
2
-3
-35
-71
-100
-66
-57
-54
-32
-30
9
-10
-36
-71
-99
-64
-51
-44
-29
-29
-1
-10
-43
-77
-93
-56
-50
-44
-28
-23
5
-2
-30
-64
-89
-56
-53
-45
-14
-18
16
-14
-22
-60
-65
-37
-30
-39
-13
-15
13
-9
-27
-65
-75
-47
-50
-44
-21
-14
12
-17
-24
-64
-66
-50
-45
-39
-18
-8
2
-19
-35
-82
-75
-63
-67
-39
-29
-25
5
-15
-42
-80
-59
-47
-49
-38
-34
-19
1
-29
-36
-88
-69
-57
-48
-30
-22
-3
1
-29
-38
-93
-71
-56
-59
-39
-36
-26
-12
-29
-55
-72
-24
8
19
54
81
116
134
132
89
51
68
62
61
56
36
36
23
-16
-53
-85
-57
-59
-48
-23
-21
2
6
-25
-59
-84
-42
-37
-27
-7
-4
15
7
-16
-41
-84
-45
-38
-28
-9
7
31
2
-19
-45
-75
-37
-31
-31
-3
-5
31
18
-11
-51
-73
-39
-34
-29
-4
0
32
14
-10
-48
-62
-26
-21
-15
1
-8
41
18
-8
-49
-58
-26
-25
-17
8
9
37
16
-2
-48
-48
-23
-15
-14
7
17
41
17
-18
-34
-36
-23
-12
5
20
25
48
17
3
-35
-20
-11
-12
3
26
33
52
22
19
-32
-10
5
6
11
28
45
54
33
21
-25
-1
5
9
21
37
54
62
34
23
-30
-4
4
9
27
35
53
63
30
11
-40
-8
-3
4
20
30
55
49
16
-11
-42
-20
-21
-5
9
4
38
29
9
-22
-69
-33
-22
-12
3
11
34
27
0
-35
-63
-28
-23
-27
-8
9
34
29
-12
-48
-62
-33
-30
-22
-3
6
30
18
-5
-35
-66
-28
-26
-20
-1
5
29
20
-6
-49
-67
-32
-29
-10
8
8
29
18
2
-53
-62
-26
-28
-12
5
1
34
25
-9
-46
-59
-26
-20
-3
6
3
43
19
-4
-48
-45
-22
-21
-2
9
2
32
17
-9
-57
-48
-28
-24
-19
5
7
34
9
-10
-54
-42
-25
-13
-14
11
19
24
4
-7
-55
-44
-29
-26
-13
7
22
24
8
-4
-58
-25
-40
-22
-12
2
21
32
6
-18
-61
-40
-29
-32
-13
1
26
25
-4
-26
-61
-32
-25
-17
-1
7
27
25
-3
-28
-67
-34
-27
-16
-6
10
31
29
-12
-36
-58
-27
-24
-18
7
11
39
31
-3
-34
-63
-29
-16
-13
6
14
54
36
12
-24
-58
-18
-16
1
6
15
44
31
4
-31
-55
-31
-21
-2
10
12
48
37
-1
-40
-67
-29
-31
-18
-1
2
34
22
-4
-56
-65
-34
-33
-7
5
11
22
4
-27
-53
-57
-31
-31
-18
-5
6
32
9
-7
-51
-70
-40
-26
-13
-9
2
27
2
-17
-73
-72
-57
-61
-35
-13
10
48
37
49
26
43
77
104
122
151
174
195
142
105
48
48
31
17
12
20
29
36
2
-12
-58
-38
-21
-24
-10
4
25
20
-10
-22
-63
-40
-26
-14
-10
5
22
28
6
-26
-72
-23
-15
-20
1
10
24
22
0
-27
-66
-37
-28
-19
-1
12
33
23
6
-27
-65
-33
-25
-18
7
13
40
31
-11
-24
-58
-33
-21
-11
11
0
35
30
-10
-28
-57
-24
-19
-4
5
0
37
31
3
-34
-56
-14
-13
-6
6
15
48
36
1
-33
-50
-20
-13
2
16
23
45
30
10
-28
-43
-7
-4
10
29
37
46
42
10
-21
-32
-10
-1
14
25
31
62
35
5
-13
-23
6
9
17
41
43
66
46
7
-19
-14
-2
-10
9
32
34
56
29
13
-27
-30
-11
-2
3
21
30
45
23
3
-42
-32
-13
-25
-2
10
18
39
-10
-12
-64
-39
-21
-22
-3
3
29
37
-5
-15
-67
-38
-24
-25
-13
4
24
27
5
-25
-66
-43
-26
-24
-6
5
26
26
1
-26
-65
-38
-24
-20
2
9
27
21
-8
-34
-66
-41
-19
-15
2
-4
29
23
-11
-37
-65
-35
-19
-19
-14
4
32
20
-8
-46
-65
-25
-18
-11
-9
8
34
19
-9
-42
-66
-37
-33
-15
-6
-5
33
23
-7
-40
-67
-28
-30
-20
0
4
34
7
-16
-45
-67
-35
-39
-19
2
-1
36
18
-2
-53
-64
-38
-35
-30
1
7
34
7
-15
-54
-67
-39
-32
-20
-1
-3
23
10
-12
-56
-59
-39
-39
-20
-1
-1
29
8
-9
-58
-55
-25
-34
-21
-14
5
33
3
-12
-63
-50
-27
-30
-14
-4
10
37
7
-4
-52
-37
-26
-40
-25
8
22
36
7
-11
-51
-28
-25
-7
0
12
28
35
9
-11
-55
-31
-19
-21
0
10
32
27
0
-11
-54
-43
-41
-34
2
7
23
10
-16
-34
-76
-39
-28
-27
-4
-5
12
18
-8
-38
-67
-45
-37
-29
-7
-10
20
14
-15
-44
-78
-38
-35
-26
-14
-5
18
5
-25
-48
-77
-49
-56
-53
-39
-29
10
-1
-24
-45
-42
15
33
60
100
126
179
178
170
135
97
98
78
78
72
50
49
31
3
-37
-67
-36
-36
-22
-6
4
23
8
-13
-56
-63
-46
-37
-16
-1
-12
24
0
-19
-53
-64
-33
-28
-27
-5
-1
32
5
-28
-62
-59
-32
-27
-22
0
6
19
-2
-21
-64
-47
-21
-34
-14
-6
-5
12
4
-8
-63
-48
-33
-26
-22
10
17
32
-1
-16
-67
-34
-34
-32
-13
5
16
17
7
-13
-57
-37
-28
-19
-8
4
28
28
6
-15
-56
-26
-22
-19
6
7
33
24
4
-16
-42
-29
-11
-18
2
13
42
39
15
-17
-55
-14
-4
3
23
27
33
39
17
-13
-35
-12
-10
14
32
30
56
42
19
-10
-36
-12
-3
2
25
31
59
46
18
-21
-51
-17
-19
-5
7
16
50
22
-12
-36
-60
-16
-26
-8
-4
3
32
16
-7
-47
-69
-42
-36
-21
-5
-7
24
3
-22
-50
-59
-47
-26
-27
-7
-7
22
2
-12
-57
-60
-41
-34
-19
-4
-8
24
1
-26
-67
-62
-46
-41
-21
-18
-4
19
-3
-22
-67
-56
-30
-27
-20
-13
-2
23
-6
-28
-72
-48
-33
-31
-32
-11
9
27
-4
-22
-67
-46
-39
-30
-20
-14
-2
19
-6
-23
-68
-45
-33
-39
-12
2
10
15
-14
-28
-72
-48
-37
-30
-21
-7
9
17
-9
-40
-76
-53
-42
-36
-4
3
19
8
-13
-41
-77
-45
-37
-37
-11
-1
19
18
-33
-46
-84
-50
-39
-25
-9
-8
19
14
-6
-47
-79
-46
-38
-31
-12
-7
15
12
-14
-45
-74
-43
-49
-24
-8
-1
32
15
-11
-56
-62
-26
-28
-17
4
10
38
23
-3
-38
-55
-30
-32
-31
-8
-1
22
1
-23
-57
-75
-46
-39
-21
-9
-4
26
-2
-21
-70
-81
-49
-44
-32
-14
-12
13
-2
-23
-74
-73
-47
-45
-32
-11
1
14
-18
-35
-68
-51
-45
-43
-38
-7
-6
11
-18
-34
-84
-65
-58
-57
-58
-36
-25
2
-7
-2
-27
14
42
64
103
143
180
202
174
150
83
82
71
49
34
29
38
27
-9
-17
-77
-48
-34
-34
-14
-5
16
9
-8
-29
-74
-45
-41
-46
-18
-19
21
18
-15
-44
-69
-39
-31
-26
-9
-3
14
12
-29
-42
-71
-42
-36
-29
-6
-1
15
9
-14
-43
-77
-39
-33
-29
-9
-2
30
7
-15
-50
-65
-38
-40
-16
-7
-1
25
20
-12
-44
-65
-34
-38
-29
-1
-5
31
7
-9
-41
-73
-25
-25
-20
1
7
29
18
-6
-41
-54
-24
-19
-16
11
5
39
24
-8
-43
-47
-14
-11
1
20
17
45
31
11
-30
-33
-12
-9
6
23
27
51
29
14
-38
-17
-5
-5
11
27
39
56
35
12
-36
-23
-18
-9
10
24
42
51
25
10
-41
-18
-13
-5
4
12
20
36
4
-9
-55
-33
-27
-25
-9
2
23
24
-4
-20
-64
-35
-28
-45
-8
-2
20
17
-4
-30
-67
-41
-30
-24
-12
-7
15
12
-5
-35
-71
-44
-47
-30
-5
-6
16
22
-7
-37
-74
-29
-44
-40
-13
0
29
20
-14
-39
-76
-46
-33
-27
-3
-1
13
12
-15
-44
-67
-37
-31
-28
-4
-6
18
12
-17
-48
-69
-35
-31
-19
-9
-7
29
15
-10
-51
-68
-41
-45
-26
-6
-1
25
1
-13
-48
-66
-36
-33
-15
-9
-10
29
8
-7
-51
-71
-40
-37
-27
-8
-4
23
7
-14
-61
-55
-34
-37
-22
-15
-7
23
10
-13
-56
-55
-35
-30
-13
0
11
35
11
-29
-60
-50
-24
-20
0
2
19
39
11
-11
-63
-34
-24
-22
-5
3
29
42
0
-13
-54
-37
-32
-27
-20
-5
7
21
-4
-23
-71
-40
-30
-31
-20
0
6
19
-9
-37
-69
-50
-34
-26
-15
-8
12
12
-7
-24
-66
-48
-33
-29
-13
-5
8
13
-10
-40
-74
-48
-41
-38
-16
-6
19
8
-18
-58
-89
-61
-53
-42
-9
4
49
55
48
44
28
81
98
127
151
153
169
141
95
42
-7
4
-12
-23
-2
-14
17
-8
-19
-52
-82
-40
-36
-19
-10
-3
21
1
-18
-48
-62
-35
-39
-23
-4
-6
34
14
-17
-53
-60
-33
-36
-19
0
-2
29
7
-12
-59
-50
-40
-35
-21
3
22
39
4
-17
-48
-50
-34
-30
-9
1
9
35
17
3
-47
-50
-38
-18
-13
14
11
19
8
-5
-50
-37
-23
-12
-8
14
18
31
6
-7
-52
-27
-21
-23
1
18
35
44
13
-2
-43
-24
-8
-10
7
20
43
40
21
-2
-40
-15
-9
-1
17
28
46
65
35
0
-44
11
3
7
20
35
58
58
30
3
-27
-1
4
16
39
39
70
54
28
4
-28
-6
0
9
35
31
46
44
18
-17
-46
-15
-8
1
11
14
42
37
15
-42
-59
-25
-19
-6
8
-1
35
25
-16
-47
-59
-34
-33
-18
-4
-3
32
15
-5
-42
-62
-33
-29
-17
-12
-5
31
19
-22
-44
-65
-31
-31
-17
-1
1
35
10
-11
-49
-53
-38
-39
-14
9
18
8
-3
-13
-46
-45
-33
-30
-18
-4
11
38
12
-9
-56
-44
-27
-33
-17
0
12
31
9
-10
-55
-44
-24
-20
-7
2
17
41
3
-14
-55
-39
-21
-29
-8
9
15
33
3
-20
-75
-45
-30
-18
-1
0
22
31
-2
-15
-69
-42
-24
-28
-6
1
17
18
-7
-22
-61
-43
-25
-22
1
3
22
25
1
-31
-68
-30
-28
-15
-6
3
36
19
3
-32
-63
-22
-17
-18
7
18
46
23
-3
-31
-59
-21
-22
-11
9
8
41
24
3
-27
-57
-26
-16
-2
8
5
36
20
-2
-51
-74
-35
-37
-25
-5
4
34
18
-14
-44
-66
-49
-36
-23
-12
-1
32
15
-13
-57
-54
-26
-36
-36
-13
-3
32
10
-16
-60
-63
-38
-41
-16
-5
0
33
6
-23
-62
-63
-45
-45
-42
-34
-11
17
4
8
-25
7
51
61
82
123
155
189
161
130
76
75
75
51
41
42
37
50
3
-22
-73
-46
-28
-29
-23
-4
13
27
1
-17
-66
-42
-31
-26
-13
5
18
29
-2
-15
-63
-41
-30
-32
-5
7
31
10
4
-18
-60
-35
-32
-25
0
3
29
23
-2
-26
-59
-41
-24
-24
0
5
37
44
-4
-35
-68
-36
-21
-17
0
8
40
30
2
-34
-69
-29
-24
-11
9
13
42
28
-5
-34
-55
-27
-23
-4
15
15
34
24
4
-22
-44
-20
-26
-3
13
17
55
39
14
-29
-46
-18
-12
-3
25
28
45
41
23
-20
-33
-6
-6
15
31
39
52
41
11
-13
-20
3
4
23
27
34
63
43
29
-16
-24
-4
1
16
34
38
53
31
10
-26
-21
-3
-4
1
18
22
43
15
1
-43
-29
-23
-27
-11
9
27
43
18
-11
-60
-47
-30
-26
-21
7
22
33
0
-19
-60
-37
-33
-23
-11
3
27
31
-7
-31
-67
-38
-36
-25
-8
6
17
21
0
-23
-67
-34
-33
-29
-12
-3
24
29
-3
-31
-67
-40
-26
-23
-3
9
31
22
-5
-36
-68
-40
-30
-23
-2
5
25
23
-6
-25
-76
-39
-24
-17
0
1
30
22
0
-41
-72
-36
-30
-19
1
5
21
16
0
-44
-70
-39
-32
-18
-2
5
33
18
-6
-43
-67
-42
-34
-20
-5
-2
22
19
0
-35
-59
-49
-35
-25
-12
6
28
4
-15
-51
-64
-38
-38
-19
-1
4
26
0
-14
-51
-52
-34
-42
-14
-6
-1
31
4
-14
-56
-59
-40
-33
-18
-2
7
25
6
-19
-60
-48
-32
-28
-9
11
7
28
5
-14
-68
-49
-30
-25
-9
8
24
39
6
-6
-52
-25
-22
-25
-3
12
30
42
6
-3
-59
-38
-16
-17
-9
-2
24
24
-7
-26
-62
-46
-38
-33
-5
2
17
18
-11
-34
-73
-44
-39
-30
-12
-3
24
17
-20
-49
-80
-46
-33
-29
-5
-4
16
7
-5
-42
-79
-41
-35
-33
-12
0
25
3
-13
-53
-98
-61
-63
-51
-38
-21
24
34
23
8
3
56
80
112
147
168
195
177
150
82
40
59
31
21
29
28
55
21
-16
-46
-65
-40
-35
-19
-8
-6
30
13
-6
-53
-64
-41
-41
-19
-4
-1
29
12
-2
-79
-65
-39
-38
-19
-6
6
30
1
-17
-56
-56
-38
-35
-15
2
5
31
6
-15
-63
-47
-32
-28
-30
0
13
27
-5
-18
-63
-44
-30
-25
-18
0
18
29
0
-18
-64
-38
-23
-19
-15
-1
9
26
8
-12
-62
-40
-21
-20
-10
10
31
34
5
-17
-57
-32
-14
-13
7
13
28
32
11
-13
-54
-27
-19
-14
7
20
45
38
13
-21
-50
-13
-8
3
27
31
57
35
23
-11
-40
-13
-13
-3
28
34
56
52
19
-13
-36
-11
-10
8
26
28
49
37
11
-19
-50
-15
-16
-2
14
10
34
13
0
-34
-69
-35
-30
-15
-1
3
34
12
-26
-47
-73
-45
-38
-19
2
-14
21
8
-17
-58
-60
-48
-41
-14
-10
-11
28
6
-17
-57
-60
-34
-37
-28
-9
-16
21
2
-15
-62
-59
-40
-36
-30
-3
4
12
1
-20
-70
-59
-43
-41
-27
-10
7
25
-13
-26
-65
-53
-38
-40
-27
-11
4
16
-8
-20
-62
-46
-28
-46
-33
-11
15
17
-11
-20
-66
-52
-47
-33
-16
-3
8
7
-14
-29
-79
-47
-35
-29
-13
-1
13
17
-10
-32
-75
-58
-49
-35
-10
-4
-1
7
-12
-37
-76
-53
-39
-30
-6
-6
21
10
-23
-51
-84
-39
-33
-35
-22
-15
25
17
-16
-50
-72
-41
-50
-43
-23
-8
21
12
-21
-55
-65
-48
-51
-35
-12
-14
12
8
-23
-54
-72
-42
-57
-38
-11
-11
7
-1
-19
-50
-73
-51
-44
-23
-16
-16
20
3
-20
-59
-71
-46
-52
-31
-18
-18
20
4
-21
-67
-71
-37
-45
-34
-5
-6
24
2
-20
-68
-66
-45
-40
-31
-8
-1
23
0
-18
-56
-47
-27
-18
-20
-2
9
33
7
-8
-60
-52
-29
-27
-17
3
16
31
-4
-27
-58
-46
-47
-38
-26
-11
3
15
-11
-29
-73
-56
-60
-42
-18
-8
9
11
-14
-36
-76
-54
-46
-46
-24
-14
6
13
-17
-38
-82
-52
-43
-49
-24
-17
11
10
-20
-46
-82
-54
-43
-42
-30
-44
-17
-23
-43
-67
-93
-43
-20
8
46
84
122
136
125
130
117
134
132
133
119
105
106
66
19
-27
-50
-26
-29
-16
-7
-6
22
7
-16
-46
-79
-41
-40
-32
-15
-9
12
12
-20
-63
-87
-43
-44
-26
-11
-8
23
3
-30
-58
-72
-49
-43
-25
-13
-14
22
3
-21
-43
-66
-38
-44
-22
-8
-14
23
7
-16
-68
-71
-37
-28
-16
-6
-4
19
9
-18
-70
-64
-41
-39
-24
7
8
27
1
-22
-60
-58
-40
-29
-15
2
20
26
4
-12
-55
-46
-28
-21
-11
6
20
30
6
-9
-55
-35
-15
-15
-8
6
30
41
8
-3
-48
-18
-11
-10
9
20
44
48
17
-2
-41
-17
-10
-1
20
28
48
44
18
-1
-37
-12
-4
4
28
34
57
46
18
-8
-48
-17
-1
1
15
19
48
34
7
-24
-57
-24
-28
-15
-12
3
43
21
-6
-30
-60
-31
-38
-19
-3
-9
21
11
-16
-45
-70
-44
-37
-26
-9
-1
24
9
-19
-54
-78
-42
-41
-25
-13
-4
26
3
-15
-57
-68
-41
-40
-23
-8
-7
11
1
-13
-53
-67
-52
-41
-22
-7
-2
26
-10
-15
-57
-65
-36
-42
-28
-11
-1
20
7
-22
-61
-62
-43
-42
-24
-11
-7
24
1
-17
-64
-55
-41
-41
-20
-6
4
25
-8
-15
-62
-58
-37
-32
-33
-9
5
34
-9
-41
-68
-44
-32
-38
-20
4
8
25
-5
-21
-73
-53
-42
-31
-19
-7
13
16
-11
-24
-70
-45
-49
-31
-9
-27
13
19
-10
-27
-74
-56
-39
-34
-7
12
17
-1
-14
-51
-79
-54
