-5
-6
-2
-1
-6
-13
-8
-9
-4
-7
-16
-16
-19
-16
0
-4
-13
-15
-11
-3
-8
-13
-6
-2
-3
-7
-12
-16
-4
1
-4
-5
-6
-6
-3
-3
-13
-12
-1
3
2
-3
2
-3
1
-3
0
-11
-14
0
-5
-3
3
-10
0
-6
-4
-9
0
3
-3
-3
0
-2
-8
-3
-4
-10
-5
-3
-8
-4
-5
0
-13
-9
-13
-11
-7
-3
-8
-11
-5
-10
-10
-4
-1
-6
-1
-2
-13
-14
-7
0
-11
-23
-14
-8
-9
-13
-11
2
5
-11
-10
-10
-11
-7
-3
-5
-5
-5
0
1
-10
-13
-10
-7
-5
-4
-1
-7
-8
-14
-11
-11
-5
-9
-3
-5
-13
-9
-14
-11
-15
-7
-6
-12
-12
-12
-8
-8
-11
-6
-11
-13
-10
-14
-13
-10
-13
-12
-8
-7
-9
-4
-7
-13
-9
-2
-2
-1
-4
-14
-8
-5
-12
-5
-7
-6
-4
-3
-7
-7
-4
-4
-9
-12
-6
-6
-6
-5
-7
-2
-1
-2
2
-6
5
2
-2
1
3
4
2
13
0
-2
-2
12
23
20
15
11
11
18
18
12
8
10
15
15
8
14
21
13
7
10
13
10
8
7
1
2
-8
-4
-11
-9
-5
-8
-4
-3
-13
-14
-19
-16
-10
-9
-5
-5
-3
0
-5
-11
-7
-17
-26
-12
-7
-8
-12
-12
-21
-30
-28
-10
0
-4
3
25
55
81
112
138
176
199
213
210
200
179
149
99
41
4
-41
-60
-70
-77
-70
-67
-70
-66
-59
-60
-53
-54
-49
-44
-31
-17
-15
-17
-14
-20
-15
-15
-8
-17
-14
-3
0
-7
-15
-14
-15
-15
-4
-5
-8
-9
-6
-4
-5
-4
-6
-5
-11
-11
-10
-11
-7
-8
-6
-4
-8
-11
-4
4
-6
-4
0
6
7
4
7
7
5
7
5
4
2
3
1
3
4
8
5
7
15
10
13
15
12
15
13
13
14
12
11
14
22
22
20
26
23
27
30
33
36
28
26
33
27
37
39
33
40
36
42
37
40
45
42
45
42
44
46
49
50
49
51
49
48
47
47
52
53
52
47
55
54
46
40
36
37
41
35
32
37
31
28
21
16
14
11
12
24
17
10
7
9
8
11
7
-5
-1
2
1
-4
3
5
5
-3
3
-3
-13
5
3
-4
-3
2
-3
-6
-7
-10
-5
0
2
1
-6
-4
-9
-7
-8
-4
-12
-11
-9
-8
3
5
-5
-5
6
0
0
1
-2
-2
-4
11
0
-2
5
3
0
3
9
0
-2
-4
1
-3
0
2
6
4
8
9
12
8
2
-2
-4
-4
2
-1
-2
6
6
6
6
6
4
-5
2
4
-1
-5
6
8
5
-1
-1
-3
3
-6
-4
8
7
8
5
4
4
1
-2
-3
4
-2
-2
-1
-5
-4
-6
-8
-1
7
10
8
4
1
6
6
2
-4
-2
1
0
5
9
-2
-4
2
1
-4
-2
0
5
-2
-1
1
-4
1
0
-5
-4
-3
2
6
5
5
5
4
0
-4
-3
-6
-1
-4
6
8
9
0
-8
2
-4
-12
1
7
6
-1
5
10
7
-2
-2
-4
-5
3
6
6
3
6
8
6
5
7
12
9
3
3
2
6
5
7
6
9
7
7
0
4
7
8
1
0
4
0
2
3
3
8
8
10
5
5
7
12
13
9
5
0
9
12
8
14
13
4
11
11
16
14
12
13
8
16
25
23
22
20
24
22
26
28
29
29
34
32
27
30
27
31
43
32
27
29
28
26
27
31
35
28
30
31
27
22
26
24
17
23
15
17
10
8
12
18
16
11
8
18
13
8
7
1
4
4
7
8
6
14
3
4
7
5
14
18
5
8
3
1
2
1
6
10
8
22
37
68
89
115
148
184
218
238
247
247
213
172
127
82
38
0
-27
-39
-53
-54
-47
-45
-38
-40
-40
-25
-18
-18
-17
-11
2
2
3
7
12
9
5
9
17
19
11
8
17
13
11
11
8
11
8
17
27
19
24
21
17
15
18
20
19
23
26
17
15
31
24
21
16
28
28
25
18
22
29
25
22
30
35
29
29
24
30
30
31
25
32
31
32
31
33
38
45
40
35
27
34
36
41
38
43
40
42
45
48
52
51
46
47
41
51
51
59
60
54
52
57
58
59
58
66
71
67
72
69
65
72
73
71
74
73
74
80
75
77
76
78
79
82
78
76
78
73
67
69
68
60
63
69
66
59
53
65
62
51
48
48
47
44
44
37
39
40
34
39
33
29
27
24
31
30
24
30
33
34
26
23
24
26
31
26
22
25
29
21
18
16
16
16
19
20
34
27
28
15
18
20
34
24
23
34
28
28
33
28
27
30
24
25
27
19
29
28
25
26
24
26
28
24
23
28
32
28
27
31
30
27
24
21
26
26
27
28
27
31
29
33
27
26
28
33
31
35
33
24
30
37
27
28
30
33
35
28
24
27
29
26
24
32
39
33
28
28
32
28
24
28
34
25
24
23
30
34
26
23
27
27
21
25
27
28
31
36
31
30
26
23
24
24
31
29
24
29
24
24
23
23
24
20
26
27
20
29
32
25
24
26
22
24
24
26
34
36
27
17
17
24
19
25
24
28
28
30
24
23
27
21
24
27
35
29
22
21
24
16
19
23
28
27
25
26
30
34
30
21
25
27
22
26
27
24
28
21
22
30
29
27
19
18
26
27
28
29
26
25
20
26
16
23
29
29
29
28
26
22
27
28
23
23
25
23
25
36
35
28
27
21
24
28
27
28
26
30
33
25
28
32
29
28
36
34
34
33
34
34
35
40
37
49
55
54
49
50
52
48
45
43
45
47
46
48
44
41
38
31
35
34
34
33
37
34
26
27
23
20
22
17
17
17
12
21
27
19
15
11
20
24
19
20
21
23
25
20
21
26
18
13
16
9
4
6
20
26
27
33
44
53
82
106
137
174
207
226
232
229
215
185
139
84
36
-7
-15
-35
-49
-47
-44
-46
-46
-37
-30
-29
-16
-16
-12
-4
-3
-1
8
13
9
12
13
15
8
25
21
10
24
27
22
12
14
15
21
23
21
15
20
19
19
19
20
23
21
24
12
21
27
25
25
24
28
25
21
28
28
24
26
25
23
24
26
25
14
17
25
26
27
34
40
31
32
34
30
32
33
40
42
44
34
36
39
30
35
39
35
39
35
41
46
47
54
43
44
48
49
51
56
56
58
59
58
64
61
65
59
60
62
63
67
70
76
65
65
73
72
69
70
75
72
76
76
73
69
71
69
68
65
61
58
63
53
53
55
52
42
46
45
51
45
42
41
37
40
30
32
29
31
25
30
25
29
34
28
25
23
24
23
24
16
25
23
20
17
14
18
15
24
18
21
21
14
15
25
21
11
13
19
22
14
13
16
20
19
18
21
21
24
23
25
20
9
16
14
14
18
29
29
22
19
13
17
13
17
24
27
29
31
23
20
22
23
29
16
12
16
27
32
28
22
24
21
19
20
21
19
21
27
29
27
26
17
17
20
18
13
8
13
15
20
24
26
34
29
22
15
26
21
15
25
17
6
2
7
17
16
20
24
31
32
31
20
12
17
11
13
20
23
21
21
16
14
15
21
21
20
15
13
17
23
23
12
3
9
11
16
15
17
19
21
18
19
17
11
6
10
18
18
15
14
12
15
18
21
16
8
16
16
12
16
20
13
17
19
10
12
17
19
19
19
15
12
15
16
16
17
13
19
11
21
26
21
16
13
15
20
16
10
17
17
15
19
18
11
11
21
21
22
19
13
13
10
11
15
17
10
16
19
19
16
11
12
13
21
17
16
15
20
21
25
22
23
19
14
19
24
23
25
22
25
19
20
23
20
18
22
22
26
26
30
34
29
28
30
27
33
37
31
34
44
40
43
47
35
29
29
29
32
37
43
42
46
39
38
37
33
28
28
26
19
27
21
16
18
9
21
17
12
18
17
18
17
12
19
15
20
21
14
21
18
15
17
15
11
11
11
12
8
9
5
1
0
6
11
17
14
32
50
76
100
129
160
187
224
241
240
236
218
183
127
72
34
-11
-37
-50
-47
-39
-41
-41
-40
-36
-28
-25
-19
-16
-7
1
2
7
11
8
11
13
10
11
13
19
11
9
11
17
18
14
13
15
11
18
20
23
25
16
26
21
16
18
22
29
25
27
20
14
19
19
17
22
23
16
21
26
33
28
21
24
25
26
28
25
26
41
32
29
31
19
28
28
27
27
29
29
35
37
34
37
41
40
41
41
45
42
41
37
37
43
45
50
52
51
50
52
51
57
59
55
50
60
61
63
61
60
61
55
61
70
69
74
71
72
72
76
73
68
68
69
69
71
74
76
76
76
63
58
54
50
57
53
50
57
59
50
41
45
47
42
30
36
39
36
33
33
23
25
26
22
22
29
24
28
25
27
22
25
20
17
20
20
20
19
22
18
10
21
23
21
19
15
18
18
19
19
17
24
22
19
20
26
24
21
14
18
24
20
17
22
28
23
26
21
19
19
17
22
26
26
23
16
19
18
29
26
23
23
26
21
25
27
28
25
26
23
23
22
20
24
23
25
31
29
20
26
20
19
21
21
28
22
24
30
30
20
12
18
14
19
21
27
36
31
22
27
18
19
15
14
21
17
12
24
22
24
26
25
23
21
13
22
25
19
26
23
14
16
19
11
20
21
23
27
25
20
22
20
15
19
19
14
18
33
21
20
22
19
19
13
17
19
21
22
21
22
17
11
14
19
21
17
19
20
12
18
19
18
20
16
20
19
18
19
20
20
21
15
11
22
18
16
16
18
15
11
20
21
24
28
22
20
26
23
22
21
20
22
15
30
24
30
21
21
23
20
20
26
14
16
18
17
22
23
15
22
13
14
17
12
21
23
28
25
18
15
22
19
20
16
16
16
21
26
24
20
18
21
18
19
22
22
25
29
29
20
21
22
19
21
31
29
31
32
26
26
35
20
25
31
29
30
33
33
36
41
29
31
47
53
47
49
53
47
41
35
38
36
35
41
44
43
43
45
38
30
30
24
24
26
24
28
28
29
21
16
18
20
22
20
16
20
20
17
17
20
9
14
21
23
24
19
23
18
12
16
9
12
6
12
10
13
16
17
23
47
58
82
116
152
187
219
243
242
238
223
193
141
101
57
10
-17
-25
-41
-43
-36
-47
-43
-35
-30
-24
-16
-12
-9
-3
8
12
5
6
19
22
21
15
18
16
14
11
21
21
17
28
25
27
17
14
17
17
16
19
25
21
27
26
22
20
21
19
23
24
26
29
24
22
31
28
24
27
26
24
23
28
35
31
27
37
38
26
22
33
33
28
38
40
37
35
34
35
38
38
39
43
41
41
35
33
42
40
41
48
43
51
53
53
50
51
48
45
53
58
54
60
62
60
61
68
62
71
71
72
68
71
71
67
72
73
72
74
77
69
72
74
81
75
66
71
72
67
65
76
69
66
70
60
56
61
59
53
48
54
53
45
36
34
36
32
36
35
32
22
28
24
22
25
24
26
32
30
23
23
25
26
24
18
19
21
26
22
23
21
19
17
16
20
22
26
25
24
16
17
17
20
18
26
16
16
11
16
17
22
27
27
25
21
25
26
28
34
34
29
24
26
18
22
30
27
27
26
26
25
20
31
28
21
20
17
26
30
24
20
24
22
17
19
23
28
31
35
30
27
26
27
26
23
24
16
23
32
26
17
20
21
25
24
18
22
24
25
26
32
27
23
15
10
12
14
31
34
31
26
29
25
23
26
20
16
26
28
24
20
21
23
19
19
14
29
32
28
28
24
23
29
23
14
19
20
25
18
22
22
16
19
24
21
25
22
18
23
22
23
20
15
24
26
24
22
18
25
22
17
18
20
20
21
18
21
25
25
20
18
23
16
17
21
16
23
29
30
20
10
11
14
23
22
23
29
25
19
25
24
16
12
15
21
27
25
27
20
14
18
15
14
15
20
23
18
21
17
14
16
18
18
19
22
19
20
18
19
19
25
20
13
15
24
31
31
21
20
24
16
16
19
21
20
23
22
33
33
26
22
24
21
24
27
34
38
35
41
38
40
31
36
41
39
33
37
41
33
40
43
38
35
38
40
32
29
28
29
30
32
27
19
22
13
13
24
14
15
8
21
18
7
6
19
19
21
18
8
9
5
12
14
12
12
19
20
12
8
8
6
-5
-2
7
16
18
22
38
52
73
101
134
167
192
213
224
224
215
178
138
81
37
7
-24
-43
-51
-51
-45
-49
-49
-43
-41
-37
-29
-25
-20
-9
-5
-7
-2
-4
-3
7
16
15
8
10
16
17
8
1
0
4
22
15
20
15
16
13
16
19
9
4
22
20
14
19
20
7
10
25
19
16
17
13
19
21
19
23
23
20
15
15
18
19
27
25
19
20
22
16
17
18
25
34
28
29
30
27
25
30
23
30
26
27
37
37
39
44
32
38
36
39
43
41
47
45
43
37
56
57
43
50
50
50
59
69
66
55
57
49
59
64
64
66
66
69
66
59
60
56
64
66
66
67
65
67
62
67
57
55
54
56
54
44
42
39
46
40
38
33
27
30
31
39
38
33
25
23
27
20
17
22
22
12
16
20
17
20
16
18
23
16
16
12
13
13
10
15
8
7
8
6
18
19
18
11
15
11
13
5
10
16
15
15
14
11
8
9
6
12
17
17
22
16
15
16
11
11
9
10
12
15
21
24
20
14
8
17
17
10
14
19
16
11
17
19
12
13
19
14
15
13
16
22
22
19
21
21
16
18
19
11
15
21
17
15
16
17
20
19
9
9
12
18
14
11
15
16
15
16
16
11
12
20
17
14
12
6
6
10
15
21
14
17
13
7
1
8
8
10
17
12
11
15
15
15
11
12
13
12
6
12
16
17
15
16
11
9
1
-1
1
6
13
15
17
13
8
13
11
12
10
11
14
9
12
13
2
7
9
15
12
13
2
0
9
15
9
2
-5
3
11
2
14
17
15
11
15
12
9
7
5
6
11
9
3
4
17
8
4
4
9
4
12
17
10
5
6
-3
-5
0
8
13
14
12
8
13
6
2
1
2
-1
7
17
17
15
9
10
6
0
4
8
-1
0
11
7
9
15
8
5
7
8
8
17
14
5
10
9
16
9
1
7
2
15
21
16
14
17
14
12
13
22
16
19
28
18
18
22
16
21
33
34
28
40
39
30
23
25
28
27
29
32
28
18
27
27
23
15
19
12
8
12
10
14
9
13
13
5
2
9
8
9
12
14
9
2
1
0
3
3
2
0
1
7
5
-1
-3
-3
0
2
-8
-9
-10
-7
-3
5
11
27
42
77
105
134
165
202
224
236
228
215
187
144
98
51
11
-25
-45
-57
-56
-53
-52
-54
-50
-45
-38
-26
-13
-13
-12
-8
-6
-5
-1
4
5
9
6
-4
5
2
1
2
10
10
4
6
9
2
9
5
-2
2
7
9
8
9
8
11
11
6
9
4
15
12
4
11
14
10
16
11
8
15
15
13
14
18
17
12
13
18
8
14
21
20
23
24
20
25
27
17
18
20
14
17
24
28
26
21
26
22
19
25
30
40
39
40
39
39
35
39
39
37
41
46
49
49
40
50
50
55
52
58
51
50
59
57
57
56
55
55
55
60
63
60
50
54
57
58
54
53
52
55
52
44
48
47
47
42
45
42
37
38
32
31
38
32
21
17
17
14
14
30
22
16
17
16
15
15
7
4
4
4
7
7
18
13
6
2
2
6
16
8
8
12
13
6
1
6
12
13
16
13
10
6
4
2
8
16
9
3
7
6
7
8
7
6
5
12
6
9
0
3
8
9
9
8
2
11
9
8
13
14
11
10
5
7
4
8
6
5
2
17
17
17
22
14
14
18
8
2
1
10
9
15
17
20
15
16
13
8
12
16
7
17
20
12
11
8
12
10
11
9
9
12
14
11
6
9
7
0
12
16
9
12
9
6
9
7
0
0
2
5
12
17
12
11
9
5
5
7
5
4
4
14
14
11
10
6
5
13
4
2
2
7
-3
4
9
17
9
11
9
8
17
19
12
4
4
-3
-1
2
10
5
5
7
7
3
3
5
8
11
9
13
9
6
9
10
8
9
3
-1
0
-4
2
5
9
8
5
0
4
9
14
4
14
12
-1
0
8
8
11
11
6
4
3
5
10
6
5
13
2
10
10
6
9
6
2
1
5
1
1
7
10
6
8
14
10
7
8
-2
0
5
2
8
6
9
1
0
5
10
8
3
5
6
13
22
9
2
2
6
5
3
14
11
11
13
15
13
7
13
20
17
19
22
35
32
28
27
28
26
21
19
23
28
25
24
25
34
25
19
18
11
18
20
23
21
14
7
6
8
11
15
13
6
7
2
2
3
6
5
-2
2
-3
-5
-9
-4
-1
-3
3
-2
-1
-6
5
7
3
-4
-8
-7
-13
3
-2
-7
9
32
50
68
92
133
159
189
210
211
212
200
161
110
64
17
-20
-43
-62
-64
-64
-62
-58
-63
-59
-43
-43
-43
-37
-31
-32
-20
-14
-21
-12
4
-11
-7
-7
0
-1
-7
-1
7
4
0
0
-5
0
-1
10
-4
-4
1
4
3
-1
7
6
2
-3
6
9
7
7
6
3
2
5
7
8
10
5
9
6
9
5
14
17
19
13
16
12
16
11
10
10
8
17
19
15
18
18
13
6
8
7
17
19
20
18
24
22
23
20
22
26
36
34
27
34
43
38
38
38
38
35
33
47
43
45
53
57
51
45
40
48
50
55
51
56
53
52
58
55
49
45
48
57
57
52
46
39
44
53
50
37
36
36
41
38
37
26
25
27
19
19
24
17
17
10
17
11
3
11
6
3
8
10
7
10
14
13
4
2
2
1
4
6
4
-3
2
3
2
4
6
4
6
2
1
3
-1
-10
-12
4
9
4
-1
6
3
4
8
2
0
0
1
4
-1
-5
5
3
3
1
4
-2
-7
6
7
2
5
2
0
6
6
-2
-3
3
-1
-3
-1
9
9
8
5
8
7
8
6
2
7
10
7
4
3
2
6
3
11
1
5
13
8
1
3
0
1
3
5
4
-1
-4
-4
0
3
-1
-8
-3
-4
5
5
0
5
0
4
-5
-6
3
6
1
-5
-1
4
3
-1
-4
-2
4
9
0
2
7
7
4
4
-2
-8
-5
-5
-2
3
6
2
-1
9
10
0
-4
-3
2
-2
3
10
1
-3
-9
-5
-2
6
12
5
5
5
-1
2
5
1
0
1
-5
8
10
4
4
-1
-6
-7
-5
3
16
7
5
8
-5
-1
-1
-7
-1
3
0
7
6
9
1
-2
-1
2
-1
6
1
9
8
2
-5
-1
-3
2
8
5
7
6
5
4
-1
-1
-1
6
-1
3
6
7
3
-6
0
-5
-1
-4
-4
9
1
1
11
-2
0
7
7
9
7
9
2
4
10
12
13
14
1
8
9
13
22
29
18
11
18
19
18
15
25
25
30
26
19
20
19
18
11
15
19
16
23
24
23
13
11
11
9
8
5
4
8
5
1
2
15
7
-4
-5
-5
-8
-2
4
7
5
2
-8
-4
-10
-3
-9
0
-6
-11
-6
-3
-6
-8
-5
1
-10
-12
-6
-5
2
29
41
56
88
123
149
186
213
217
215
203
178
130
88
47
4
-33
-51
-64
-68
-64
-63
-65
-58
-47
-39
-36
-32
-35
-30
-10
-7
-15
-7
-1
1
-5
-1
-6
0
-2
-8
-9
-6
-5
-8
-3
-5
3
13
3
-7
-3
-5
-3
-1
6
-2
-6
-4
2
-4
-3
3
2
4
4
7
5
1
-4
-2
2
7
6
5
10
11
7
10
3
2
10
14
8
11
13
8
8
11
10
9
14
22
19
23
24
22
20
14
20
24
23
28
23
29
36
29
25
25
27
32
30
36
37
40
39
39
39
46
41
44
46
43
48
49
49
47
53
53
50
46
50
55
53
53
57
47
44
49
55
51
46
45
45
46
41
33
37
36
35
36
28
22
25
33
31
20
16
10
9
6
9
12
15
10
13
10
7
4
3
0
-6
4
4
0
2
2
-2
-5
-10
-5
3
1
6
16
10
0
-4
-1
-1
0
1
3
15
5
5
6
5
6
2
-1
-1
3
0
1
1
2
3
1
4
6
-3
3
3
-1
-3
-4
2
10
2
2
6
-8
7
9
13
4
1
-3
-3
-2
6
1
1
4
-1
5
8
4
5
2
5
9
1
6
1
-1
3
4
5
6
-1
-3
5
1
2
1
3
3
3
1
7
5
7
4
-6
-4
-5
-8
-7
8
10
8
6
-1
1
-2
-3
3
-1
-2
4
7
-2
1
-2
-4
-2
2
2
6
-1
-9
-4
0
4
3
0
-5
-1
-5
-4
3
9
7
-6
-12
11
4
4
10
5
1
3
3
-5
3
8
-1
-6
-1
-2
1
3
-4
-2
-4
-4
-6
-6
-5
-1
14
7
-11
-5
5
2
0
-3
-5
-3
-3
-5
18
5
1
-6
-7
6
17
-3
3
3
-3
-1
-3
1
-2
-2
-4
-3
0
2
0
-3
-9
-7
-3
-7
-2
0
10
2
0
-6
-3
-2
-2
5
5
-2
1
-1
1
8
5
4
-8
-3
9
10
13
13
6
-1
2
0
-2
4
15
17
16
15
14
-1
3
18
20
21
32
32
32
27
20
18
25
20
15
19
19
21
22
24
22
20
15
6
0
5
20
4
6
3
-8
-3
-5
-3
-7
-1
0
0
2
-3
-6
-1
-3
1
-2
-4
-11
-12
-8
-1
-4
-9
-14
-13
-10
-7
-6
-12
-15
-6
-2
-6
4
29
53
74
103
128
163
192
222
226
216
199
172
126
66
28
-7
-35
-45
-61
-67
-69
-72
-71
-65
-54
-41
-33
-26
-26
-20
-18
-15
-15
-5
-5
-7
1
-1
-1
-3
-16
-14
-21
-6
1
-1
-1
-6
-1
1
-3
-2
2
0
2
8
3
1
2
7
3
-2
0
0
-3
7
12
7
2
1
4
15
13
4
4
16
11
3
0
13
12
7
16
16
6
9
11
13
8
12
18
12
17
22
24
19
11
14
16
15
12
21
30
39
31
30
30
38
35
27
27
36
44
42
41
40
42
36
42
41
48
54
53
45
48
50
48
47
49
54
56
52
49
51
57
55
49
44
47
47
47
50
52
58
51
39
39
36
29
32
29
27
23
26
24
21
25
17
16
13
9
15
15
18
14
4
4
0
5
4
-4
-3
1
5
14
9
-5
-6
-2
4
-1
4
1
4
8
3
-3
0
4
-3
0
-7
3
4
7
5
-13
-13
0
-2
5
16
7
1
1
-2
-4
4
-1
-3
4
5
1
9
10
2
2
0
1
5
-1
-1
0
1
-3
2
2
4
4
-3
1
0
3
2
4
6
-2
-3
1
10
6
4
1
0
9
9
6
9
-4
-2
5
3
4
1
-3
-11
-8
3
-5
-7
-5
-1
9
5
8
1
-2
-5
1
-3
3
7
1
0
3
0
-4
-2
-7
-4
0
1
1
0
4
-6
-6
-4
-11
-2
1
-4
3
6
7
-7
-8
-9
-1
1
2
-5
-7
-10
-11
-11
-2
-4
-3
-4
-9
-6
-6
-1
-3
-5
-3
-9
-14
-4
0
0
-2
2
4
-8
-3
-4
-7
-3
4
1
-1
-1
-9
-9
-10
6
-1
-1
-6
-4
3
5
6
1
-6
-8
-2
-5
-5
1
-2
1
6
2
1
3
-1
-7
-7
-8
-6
-9
-1
-9
-6
0
-6
-7
-2
4
2
0
-1
-1
4
1
-1
-3
-1
-6
-4
2
-2
-2
5
-5
-5
6
13
4
2
7
4
0
6
-3
0
8
17
8
14
12
7
9
12
11
17
20
22
27
30
28
29
25
25
21
11
18
21
18
22
24
22
14
13
10
0
7
13
-5
-15
1
2
4
4
-1
-2
-8
-5
-1
2
-4
1
1
-6
-10
-6
-6
0
-1
-6
-13
-16
-11
-5
-9
-10
-10
-9
-9
-14
-15
-14
-8
-2
0
17
49
66
94
132
161
191
212
219
207
184
151
95
44
7
-20
-48
-68
-79
-79
-72
-65
-65
-60
-49
-40
-45
-34
-29
-31
-27
-16
-18
-10
-4
-7
-7
-5
-3
-5
-5
-1
2
-1
-7
-7
-8
-6
-5
0
1
-5
-5
-7
11
5
2
2
0
-5
-8
1
3
10
9
7
10
10
8
6
5
4
4
10
10
-1
0
5
7
3
6
10
14
13
12
16
7
11
13
5
12
17
23
21
17
21
20
21
17
19
22
25
32
30
31
26
31
26
30
36
38
39
42
40
47
45
43
43
38
47
42
46
48
51
53
52
50
54
54
55
51
49
54
64
60
53
48
52
56
49
50
45
46
57
51
43
39
34
38
29
32
34
34
29
27
20
21
30
19
14
12
12
18
10
5
9
7
6
3
-4
-2
-4
9
14
5
4
0
-4
-1
6
7
-3
-4
-2
2
-5
-6
2
-4
-4
-5
-3
1
0
2
1
-5
-8
-4
3
10
4
5
0
-3
-2
1
3
1
7
7
2
2
0
0
6
6
1
-4
-7
1
6
5
9
9
-1
-6
-8
-2
1
0
-10
-1
0
0
-1
-3
-5
0
-1
1
6
5
6
-2
-5
-8
-1
2
-2
-1
-8
-11
0
-3
-6
-4
5
-5
-5
1
1
-4
5
3
-5
-1
-1
-1
-4
-3
-10
-7
-6
-2
-2
0
-3
0
1
-1
0
2
-3
-7
-1
2
-6
-6
2
-7
-4
-7
-5
-4
-5
0
-8
-5
-3
-7
-4
-1
1
-6
-2
-3
-8
-10
-5
-7
-4
-1
-3
-12
-6
0
-6
-4
-7
-6
0
0
-7
-3
5
-2
-7
-12
-2
-6
-7
-1
0
-3
-8
-5
-4
2
-9
-9
1
-1
-5
-4
2
3
-7
-2
2
5
5
0
-5
-10
3
2
2
1
-3
-3
-6
-6
-3
-3
-1
0
1
2
0
5
-1
0
-4
-3
2
15
15
10
17
11
11
19
17
13
21
23
22
16
21
25
19
23
13
12
13
6
10
15
16
16
9
10
13
9
-1
-5
4
4
-1
-1
-8
-7
0
-2
-1
-1
1
0
-9
-11
-11
-10
-2
-2
-2
-7
-11
-8
-3
-13
-9
-8
-17
-13
-11
-11
-5
-5
-3
5
14
42
65
95
127
151
184
208
209
210
198
163
113
69
24
-19
-43
-50
-62
-62
-57
-62
-55
-53
-49
-45
-33
-28
-31
-20
-9
-6
-8
-11
-15
-5
-8
-4
-6
-2
-2
-4
-5
0
-9
-10
-3
3
4
1
2
0
-1
0
1
-3
-1
3
-3
-2
8
4
1
13
-1
-2
6
1
4
6
5
9
10
5
3
7
14
11
11
14
12
4
4
11
10
10
14
14
15
21
17
17
16
13
10
5
7
7
8
20
10
19
33
31
37
39
31
24
29
40
42
30
29
39
41
39
38
38
46
46
47
44
46
53
49
49
55
54
47
46
49
45
51
60
49
51
50
57
57
50
50
43
44
42
41
37
35
33
38
42
32
35
27
15
14
13
9
19
18
16
10
9
8
-1
-2
1
6
10
11
10
7
10
-2
-8
-2
5
4
7
9
12
8
-3
-6
-1
2
1
7
3
4
2
2
4
4
3
9
9
5
0
2
1
2
2
0
2
9
11
4
-1
4
11
4
-5
-5
-7
9
13
6
7
1
8
9
-1
-1
6
9
12
15
4
2
8
6
0
1
-2
1
-1
-2
4
9
18
17
23
9
0
0
3
11
11
15
8
-1
-8
-7
5
10
8
5
11
11
6
1
-4
2
0
7
5
6
4
13
9
4
2
3
1
6
7
2
4
4
3
4
-1
0
-8
-8
2
0
5
5
7
4
3
-3
-3
3
1
-5
-1
4
11
4
4
9
-1
-3
-2
-2
1
9
-3
1
-1
1
-6
-4
2
7
7
-2
-2
4
3
-8
-10
4
5
4
2
-1
-1
1
0
-9
-6
-2
-2
-5
6
4
-2
-1
6
4
2
-2
-6
-2
6
2
-3
-3
-4
-9
-5
1
4
-4
-2
-4
0
10
-1
-11
-11
-5
1
7
7
7
3
-2
-5
-7
-1
4
10
8
10
9
7
9
0
9
6
15
17
15
7
14
14
17
26
23
22
23
20
14
27
28
18
13
13
13
13
17
15
14
11
10
-1
-2
5
4
-8
0
6
4
-4
0
-3
-4
-9
-12
-10
-17
-15
-8
-6
-5
1
-1
0
-3
-11
-7
-6
-7
-9
-10
-1
-11
-15
-10
-12
-3
-3
1
3
19
41
63
97
134
161
194
211
209
210
189
157
106
53
15
-5
-36
-65
-73
-69
-75
-74
-63
-63
-55
-46
-38
-37
-27
-23
-22
-21
-21
-15
-9
-9
-3
-11
-4
0
-8
-7
-4
-6
-8
-6
-6
-5
-11
-6
2
-5
-9
-8
-7
-4
2
-4
-5
-1
-10
-3
0
-6
-4
4
5
6
-2
4
5
-2
-2
-3
-4
-1
3
7
6
6
8
9
5
1
4
6
7
9
2
9
5
9
7
9
18
16
18
14
17
13
15
18
13
18
25
24
27
32
32
31
30
25
24
26
28
31
42
42
37
41
47
46
45
42
42
48
45
48
49
48
44
46
43
49
53
51
58
49
54
49
41
41
34
40
40
41
33
38
39
29
19
21
22
24
16
18
20
17
12
10
6
9
8
6
8
5
2
5
1
-3
-3
-2
-1
1
-3
1
3
5
2
0
-3
0
1
-7
-5
11
6
4
0
-1
3
0
3
-2
2
3
3
3
1
-6
0
-1
-1
-1
-1
-2
2
-3
7
1
-9
-6
-5
-7
-1
2
6
4
1
0
-2
5
6
8
8
5
4
6
4
8
5
4
3
5
6
9
6
6
6
6
5
0
-1
-1
5
3
0
0
2
1
-7
-6
4
1
-2
1
4
4
6
0
-6
-9
-6
3
0
-6
1
5
10
7
-5
-5
-7
-2
-7
-6
-5
-3
7
1
-1
0
2
4
1
-5
7
3
-9
-12
-3
-2
-7
-2
-1
-4
-2
-1
0
-3
-4
-8
-7
-4
-7
-6
-6
5
6
0
-5
-3
-5
-3
-4
-6
0
6
-4
-7
-8
-11
-14
-11
-16
-5
4
-2
-1
-11
-6
0
-5
-6
2
-4
-1
5
0
-4
-4
-4
-5
2
1
5
10
3
1
1
-2
-4
-4
-1
2
2
-1
-5
5
2
-2
-5
0
0
-7
0
5
9
1
12
6
1
2
0
-3
6
6
11
9
6
3
1
5
9
10
11
13
16
13
8
7
7
14
17
21
26
28
16
12
18
15
11
25
31
25
26
28
31
28
28
20
25
33
30
30
23
23
26
23
21
13
10
16
16
14
15
16
12
4
9
4
0
-4
-3
5
8
4
-2
-11
-6
4
1
7
4
-2
3
13
7
-6
-2
-7
-3
-3
-11
-11
-14
-5
1
5
13
26
48
66
97
126
164
196
219
225
218
209
175
124
75
29
-5
-37
-58
-65
-61
-64
-57
-61
-46
-40
-32
-37
-37
-36
-28
-17
-12
-7
-8
-9
-3
2
-1
-2
2
0
3
-3
-1
-11
-2
8
5
-2
3
9
5
7
6
-4
5
15
7
7
6
0
7
7
3
4
2
2
4
8
7
5
8
14
2
4
12
19
17
8
14
15
13
16
15
14
19
17
8
19
21
17
16
16
16
19
27
26
26
27
21
19
23
27
34
37
38
31
33
38
34
34
38
44
38
42
42
45
44
48
55
56
49
54
51
65
63
59
57
55
52
55
60
65
62
63
61
62
66
54
60
66
57
59
61
52
53
49
48
45
44
40
41
41
39
37
33
23
24
28
26
22
23
18
18
15
13
13
13
16
15
9
12
12
8
7
8
10
11
8
8
20
14
10
15
16
15
12
11
3
-1
0
1
14
15
13
17
9
9
-1
6
8
4
10
6
6
12
5
2
9
11
7
7
6
2
7
8
10
18
18
11
6
8
10
9
18
24
13
11
6
6
8
13
13
9
18
12
10
11
6
8
10
9
15
19
17
10
8
10
5
13
15
12
6
7
9
12
14
15
12
7
8
18
16
11
12
11
7
9
3
0
1
5
5
6
5
10
14
19
11
4
5
4
4
3
7
9
12
14
8
3
2
4
9
9
12
5
10
7
9
3
5
10
7
11
9
7
2
5
5
10
10
9
0
3
6
4
1
3
4
5
-3
1
2
7
13
13
7
6
3
12
6
2
3
2
3
5
3
3
6
-3
0
5
9
7
6
5
2
-2
2
2
4
-5
0
3
3
4
6
3
3
2
3
8
12
11
7
1
-1
3
0
8
13
16
15
12
9
9
17
14
17
20
16
16
17
17
18
20
29
33
22
24
26
29
29
33
23
18
20
11
9
17
19
17
23
23
17
13
12
7
2
1
8
4
4
5
-1
-10
6
5
4
11
10
1
5
3
-4
-11
-6
-10
-4
4
5
3
10
6
-2
-10
-12
-14
-11
-3
4
14
31
48
67
87
113
146
180
201
205
203
193
155
109
65
18
-19
-50
-61
-66
-61
-62
-60
-61
-52
-54
-48
-45
-40
-34
-29
-22
-15
-14
-8
-8
-2
-6
0
6
1
1
2
0
0
-2
4
3
3
5
1
-1
1
3
1
-5
-2
4
1
11
20
16
0
-1
-1
8
4
12
10
10
7
2
9
17
13
10
11
6
11
17
11
11
16
18
11
11
8
12
18
20
13
16
24
20
12
13
18
20
19
20
17
26
30
23
19
31
26
26
29
29
37
43
35
46
40
36
34
37
46
49
48
50
51
46
50
53
48
54
51
45
51
55
57
50
51
56
52
57
57
46
44
49
42
42
44
38
37
43
36
35
36
34
32
23
31
24
18
16
15
12
14
12
9
8
8
2
-2
4
8
9
10
15
2
-7
-3
-2
-4
0
-2
3
1
-1
-1
-4
0
0
-1
-4
-7
0
1
0
-6
-2
1
-6
-2
-2
2
4
3
0
2
4
-4
-5
-3
0
3
0
2
9
4
-3
-2
2
3
1
-1
1
-1
1
-1
-4
-2
-3
2
0
5
7
3
2
6
-4
-6
0
9
1
-3
3
7
3
1
1
4
-2
4
2
1
3
4
1
2
2
-4
-7
-4
-4
-3
-2
3
-5
-13
-20
-9
-8
-8
1
5
5
4
4
3
-3
2
-1
1
-2
-5
-12
-9
-8
-12
-7
-3
-4
0
-2
-1
-2
2
-5
-4
2
-4
-7
-6
-5
-4
-6
-4
-7
-6
-8
-7
-6
-8
-8
-1
-2
-10
-7
-3
-2
-10
-14
-5
3
-9
-5
-5
-4
-4
-6
-10
-9
-3
0
1
2
-9
-12
-10
-7
-6
-17
-10
-6
-10
-4
-6
-5
-4
-3
-11
-9
-9
-4
-6
-3
-6
-9
-7
-7
-8
-11
-2
0
-6
-2
-6
-11
-8
-6
-3
-4
-7
-3
-4
-3
0
2
2
-6
-2
4
2
3
0
6
11
5
2
14
8
7
13
12
23
16
14
16
15
14
10
10
9
4
11
15
12
12
8
12
5
0
8
5
2
7
-1
-6
-7
-10
-15
-10
-5
-7
-9
-5
1
-9
-12
-13
-13
-6
-2
-8
-9
-11
-15
-13
-13
-14
-17
-14
-18
-17
-20
-20
-23
-19
-11
-8
1
18
47
69
98
131
165
194
212
215
203
191
155
103
55
13
-29
-52
-62
-71
-80
-79
-75
-69
-57
-51
-52
-52
-45
-36
-27
-21
-19
-12
-10
-16
-13
-10
-19
-15
-15
-16
-12
-9
-7
-8
-16
-16
-6
-5
-7
-8
-5
-10
-4
-3
-6
-6
-10
-12
-11
-7
-9
-4
0
-2
1
-3
-10
-8
-12
-4
-5
-2
-4
-5
-2
5
2
-4
-3
-4
-1
1
4
2
-5
-4
2
2
4
9
8
12
15
11
7
3
5
6
11
12
17
20
20
17
11
17
16
22
21
23
27
29
33
31
32
37
32
27
28
35
39
35
43
37
35
44
47
46
40
41
46
47
44
44
45
44
39
36
33
39
39
42
37
26
32
29
19
21
23
19
11
11
17
11
10
8
3
4
7
5
4
-2
5
-2
-6
-4
-5
-8
-5
-4
-1
-8
-12
-11
-11
-13
-8
-8
0
-8
-12
-5
-2
-13
-19
-16
-11
-16
-17
-12
-14
-19
-6
0
-8
-6
-10
-9
-10
-9
-9
-1
-7
-9
-6
1
-4
-9
-5
-11
-10
-10
-8
-1
-4
-4
-5
-9
-9
-2
-7
-5
2
-5
-5
-8
-7
-6
-7
-7
-9
-2
-4
-11
-7
-5
-5
-4
1
-10
-7
-11
0
-1
-1
-2
-6
-9
-8
-5
-3
-6
-7
-12
-7
0
-3
-6
-4
-9
-8
-9
-14
-10
-2
-9
-12
-11
-2
-1
-7
-7
-12
-9
-6
-6
-11
-12
-7
-8
-6
-6
-7
-3
-6
-12
-10
-11
-10
-2
-1
-7
-12
-9
-9
-9
-15
-11
-10
-9
-10
-9
-9
-9
-10
-10
-17
-15
-14
-9
-6
-6
-7
-16
-12
-12
-18
-16
-9
-6
-7
-10
-9
-11
-13
-12
-10
-14
-9
-10
-6
-7
-10
-11
-13
-6
-16
-10
-9
-5
-5
-7
-8
-9
-11
-18
-18
-11
-11
-11
-10
-9
-4
-9
-9
-13
-13
-8
-15
-13
-10
-12
-16
-13
-10
-16
-13
-13
-10
-6
-4
-9
-11
-8
-7
-10
-5
-7
-7
-11
-6
-7
-14
-12
-5
-4
-5
6
6
5
7
5
-2
2
4
7
11
12
13
18
18
16
11
11
14
10
3
9
10
8
5
4
2
3
1
-4
-9
-1
-3
2
-5
-1
-7
-12
-15
-15
-14
-12
-9
-5
-6
-10
-7
-9
-12
-18
-7
-12
-9
-16
-8
-5
-13
-12
-14
-19
-21
-14
-21
-23
-7
-9
-9
-1
23
54
79
120
143
172
204
215
210
199
180
140
96
44
4
-32
-53
-64
-71
-76
-74
-77
-74
-71
-66
-48
-35
-34
-25
-26
-23
-20
-14
-15
-14
-8
-6
-9
-5
-4
-12
-13
-9
-7
-7
-5
-5
-10
-10
-8
-6
-6
-9
-9
1
4
-3
-6
-3
2
-4
-2
1
0
-7
1
4
-6
-7
0
7
-2
-3
2
1
5
5
6
3
1
1
4
5
3
5
4
15
4
6
14
8
20
20
13
14
21
20
17
18
19
16
18
18
22
26
29
24
23
25
21
19
31
37
40
44
39
38
39
44
42
46
46
51
48
49
50
47
42
41
45
51
50
53
56
54
53
48
45
51
50
48
46
46
47
42
39
32
29
29
24
26
27
30
27
27
21
15
9
10
12
10
12
13
13
10
5
8
5
5
6
1
4
5
4
5
4
2
0
-2
-6
-5
-2
-8
-2
6
12
-3
-5
-5
-11
-1
2
-3
2
3
0
1
-2
0
0
0
3
-3
-4
3
2
-2
3
6
-7
1
2
1
0
10
7
2
-1
-2
0
2
3
8
2
-1
4
5
-1
-3
-3
1
6
0
1
4
2
6
6
3
1
8
9
5
4
4
2
-2
1
0
3
3
5
4
0
1
2
-4
5
2
3
-2
5
-1
1
3
3
-2
-6
-8
-2
0
3
4
4
8
1
-8
-2
-1
-3
0
5
3
1
1
-1
-2
-1
-1
-5
-3
0
5
7
5
0
0
1
-2
1
-3
-4
-7
-1
4
-6
-2
-2
-1
5
0
0
4
6
1
-1
-7
-6
-2
-7
-1
8
-1
0
4
5
-3
0
-3
-4
0
-2
2
0
0
-3
0
0
-6
-3
-3
-4
1
3
5
3
1
-2
6
5
2
-2
3
5
1
-1
0
-1
0
-3
4
3
5
5
5
1
0
1
1
2
-2
-3
-2
5
6
1
1
-3
5
2
7
-1
-2
6
9
7
7
7
4
11
3
-4
2
4
8
9
16
7
8
9
12
15
18
20
15
7
13
15
22
24
21
21
22
32
32
25
21
18
21
21
14
17
31
32
21
17
21
19
15
14
11
11
12
19
8
3
5
-2
1
6
9
6
3
6
6
7
4
0
-8
1
2
3
4
4
-1
-2
-3
-2
7
7
5
-3
-5
-3
6
6
6
13
35
59
86
110
139
175
193
208
217
205
179
137
91
46
7
-23
-47
-65
-66
-69
-64
-63
-53
-42
-40
-38
-31
-26
-25
-26
-19
-11
-8
1
7
7
4
6
5
3
1
7
6
8
1
2
8
8
9
11
8
10
7
7
6
7
5
7
8
9
13
13
13
7
7
11
10
6
5
6
15
16
18
16
20
7
5
10
6
5
20
20
20
17
15
14
18
23
19
25
27
25
24
19
22
23
25
28
28
26
22
32
32
32
36
33
30
34
35
34
37
38
35
42
45
49
52
48
47
52
60
55
53
56
57
57
59
58
58
56
53
53
56
67
69
58
55
67
65
60
61
58
54
49
44
50
47
39
40
43
39
38
29
29
29
27
21
16
13
19
22
23
18
18
20
12
11
14
6
3
8
5
7
14
15
14
15
12
7
5
1
5
11
10
-1
7
16
11
6
1
7
9
11
10
5
13
13
7
4
8
10
3
8
14
10
9
9
4
12
13
11
8
11
12
7
9
10
10
11
8
6
17
13
20
15
14
12
5
7
5
4
9
15
14
8
6
16
13
12
16
16
17
17
14
14
14
12
14
10
10
15
11
14
18
10
18
10
1
2
8
12
14
11
13
15
14
12
4
-1
-2
9
13
7
9
8
4
1
9
15
13
14
13
13
10
5
4
9
4
1
2
5
11
15
16
7
7
2
-1
1
14
15
12
14
13
8
5
7
-5
3
4
4
9
12
7
8
12
7
5
0
6
12
16
9
5
8
1
4
9
12
10
6
8
4
7
10
10
7
4
0
7
8
7
10
7
6
7
9
-3
7
11
10
8
7
1
2
5
8
13
12
9
14
13
7
9
2
5
4
7
9
3
3
4
8
9
3
2
4
0
8
2
6
10
12
8
9
9
-1
2
10
14
11
21
16
12
18
22
11
6
16
16
18
21
17
12
20
18
22
24
26
29
28
23
31
33
35
23
24
27
24
17
24
25
26
20
22
26
15
17
23
20
20
23
15
8
6
6
9
10
6
1
9
9
6
5
3
10
-1
-2
-5
-3
8
8
5
0
7
4
6
-5
-9
-5
-2
-4
1
-2
0
5
9
20
40
62
85
116
142
177
203
216
230
222
201
159
109
60
21
-15
-40
-55
-62
-62
-52
-47
-50
-47
-39
-36
-33
-26
-26
-17
-7
-7
3
-1
2
-4
0
0
-3
1
5
0
-3
4
2
-1
7
11
9
6
4
5
10
8
5
6
4
4
3
13
13
13
16
6
6
1
3
6
5
14
16
13
10
14
14
13
9
15
17
13
19
19
19
19
18
14
14
14
16
19
26
24
30
31
20
14
17
18
22
22
22
23
33
40
34
40
30
24
30
38
41
39
35
43
44
42
39
36
44
51
54
55
46
47
45
50
55
55
53
55
56
53
51
61
54
52
49
44
47
53
61
64
58
51
40
39
38
40
36
34
36
33
26
26
27
22
28
24
19
13
14
9
14
19
13
6
9
9
13
12
12
2
9
6
4
16
8
6
6
1
2
7
5
6
5
10
8
5
2
3
6
10
11
1
-1
1
4
-2
1
7
1
-3
8
15
11
5
1
1
7
17
6
7
15
7
7
7
3
10
9
6
8
16
14
10
3
9
5
9
3
6
9
7
12
11
8
4
7
8
9
4
6
9
10
3
6
3
11
10
16
7
12
16
1
7
0
4
4
6
7
12
8
13
10
4
2
2
-1
6
10
1
11
8
3
7
9
1
-2
-3
1
4
7
8
11
7
2
4
8
5
11
4
4
1
2
1
1
-4
-1
0
1
0
-3
9
5
-2
5
2
2
-2
4
-1
-1
0
0
-4
3
3
4
7
4
6
6
4
3
1
-1
0
0
-2
3
2
5
9
2
-1
4
-2
-7
-4
9
1
-1
3
8
2
3
3
3
-3
1
-3
10
12
-1
-4
10
8
3
-2
10
-1
-3
1
-1
3
-2
-2
-2
-1
-2
4
9
9
4
5
1
-3
-3
0
0
8
8
12
4
1
6
1
0
2
1
1
3
1
1
-2
-1
-6
-2
1
2
9
8
3
3
-3
-1
1
-1
4
14
11
8
10
10
9
0
1
15
17
14
12
11
16
16
19
26
23
24
25
23
20
23
19
15
15
15
17
14
18
17
19
22
19
23
18
12
9
7
5
2
2
1
2
-5
-2
-2
-1
-5
-6
-2
-3
-6
0
-6
3
-2
-6
-8
-4
-3
0
1
-5
-11
-4
-5
-20
-11
-13
-10
1
15
11
20
49
78
102
135
176
202
217
222
220
202
170
115
61
28
-15
-51
-58
-59
-58
-59
-59
-62
-60
-41
-28
-35
-19
-17
-15
-11
-14
-8
-7
-3
0
-4
1
-9
-8
-6
1
6
2
-1
-5
3
5
3
-4
-8
-7
-7
-5
-4
5
11
13
7
1
4
4
2
1
0
3
7
11
12
8
7
4
2
3
11
9
7
7
14
0
6
12
8
12
16
18
22
8
-1
-3
9
14
16
26
21
24
26
21
20
18
21
19
28
28
30
31
29
30
34
26
30
25
27
36
38
38
43
47
47
45
43
47
47
47
43
48
56
48
37
40
57
55
48
46
56
58
62
55
50
47
49
48
42
46
41
38
43
45
38
31
24
25
24
24
18
22
19
14
-1
7
15
16
10
6
9
6
9
8
8
8
10
4
4
5
-1
0
6
6
6
-9
-9
-9
-6
-7
-6
7
5
2
-1
7
5
3
-7
2
3
-6
-1
13
6
4
1
3
0
1
-3
-1
1
3
6
-4
-1
0
5
-1
0
0
0
5
3
3
4
5
8
-1
-8
-6
-5
-2
-9
-7
-6
2
-1
-3
7
6
6
4
1
2
-2
-4
2
2
4
-5
-8
7
6
1
-7
-7
0
-1
1
10
1
-8
-3
1
-3
-8
-2
5
-4
-5
-4
-4
-6
-8
1
-1
-1
-1
-9
-8
-8
-12
-11
-5
-10
-11
-1
0
-5
-6
-8
-12
-8
-7
-7
-8
0
-1
-7
-8
-14
-13
-4
-10
-4
-9
-7
-7
-10
-5
-4
-9
-7
-6
-6
-4
-4
-3
-4
-2
-1
-1
-11
-9
-3
0
-11
-8
-11
-3
-4
-8
-3
-8
-5
1
-2
-4
-2
-3
-8
-5
-10
-12
-9
-9
-11
-1
2
-1
-1
-1
-8
-13
-14
-10
-7
1
-4
-3
-1
1
-5
0
-5
-4
0
-2
-6
-6
-9
-9
-5
-5
-10
-7
-6
-4
-3
-12
-7
-7
-8
-1
-11
-9
1
-5
-7
-2
-8
-7
-2
-4
-7
-4
1
-5
-3
0
1
0
-1
-2
3
7
5
3
6
6
1
7
13
6
6
7
21
13
16
20
17
16
21
19
13
12
16
17
13
12
11
20
10
-1
1
0
2
3
10
6
-5
-8
0
-3
-4
0
-8
-4
3
-5
-7
-5
-9
-6
-9
-5
-1
-9
-6
-3
1
-3
-12
-20
-20
-10
-16
-19
-21
-14
-6
-10
-7
-1
5
22
40
76
105
137
159
186
198
197
190
165
118
61
19
-17
-47
-63
-68
-83
-79
-72
-59
-59
-54
-56
-56
-46
-42
-41
-37
-31
-27
-21
-14
-11
-10
-11
-9
-8
-16
-14
-9
-11
-7
1
-5
2
-1
-13
-11
-9
-9
-6
-1
2
0
-11
-3
-2
-4
4
1
0
-1
-4
-4
4
4
-13
-2
8
7
7
8
8
0
4
5
3
5
1
3
7
8
6
4
4
6
11
12
10
9
13
18
9
13
12
12
11
12
17
23
25
25
21
25
30
26
21
28
28
28
35
34
32
23
28
29
30
37
38
48
53
47
43
47
45
48
54
54
52
47
47
51
45
43
45
39
40
56
47
42
46
43
27
28
33
20
25
28
23
20
17
18
11
9
14
5
0
1
6
5
7
3
-1
-6
-10
-7
-5
-3
-3
0
-3
-7
-10
-13
-4
-6
-13
-9
-9
-7
-9
-15
-6
-10
-12
-11
-8
-4
-14
-12
-5
-1
-2
-1
-4
-3
-4
-9
-9
-4
-2
-9
-9
-11
-6
-11
-12
-11
-11
-3
1
-9
-11
-8
-1
-4
-6
-5
-1
-5
1
-5
-9
-10
-12
-11
-1
-1
0
-2
-4
-2
-9
-6
-9
-11
-10
-6
6
8
-6
-8
-19
-10
-5
-5
-9
-2
3
3
0
-5
-4
-8
-8
-15
-12
-9
-12
-9
-11
-6
-3
2
-6
-13
-9
-10
-10
-5
-6
-9
-15
-14
-9
-8
-12
-11
-18
-11
-9
-11
-7
-12
-20
-12
-1
-13
-14
-7
-3
-11
-11
-11
-6
-7
-14
-14
-12
-12
-9
-8
-6
-10
-17
-15
-8
-4
-19
-19
-11
-12
-10
-13
-20
-14
-12
-8
-11
-13
-15
-19
-9
-10
-9
-12
-8
-10
-6
-9
-13
-9
-7
-10
-18
-16
-12
-19
-12
-11
-8
-14
-15
-9
-12
-12
-11
-10
-20
-15
-14
-14
-16
-11
-14
-17
-14
-17
-17
-3
-7
-11
-20
-12
-22
-9
-10
-7
-2
-3
-4
-12
-18
-17
-19
-11
-7
-6
-9
-11
-13
-7
-8
-12
-8
-11
-4
1
-1
2
0
-5
2
2
-7
1
0
6
13
8
17
9
1
1
4
10
-3
-4
3
12
9
3
6
5
-2
-8
-8
-9
-13
-10
-13
-16
-10
-14
-18
-7
-17
-19
-16
-19
-22
-20
-16
-16
-16
-9
-11
-12
-17
