40
40
38
44
41
39
36
37
44
44
40
42
53
44
40
42
34
32
29
49
54
45
41
41
49
50
46
44
44
46
48
50
39
52
47
50
40
37
38
37
44
49
49
43
49
48
42
27
36
46
51
47
49
48
40
49
47
42
38
35
48
49
51
43
44
48
44
37
41
42
46
47
48
46
41
41
50
34
29
45
44
43
48
49
44
41
36
45
41
44
40
46
46
48
31
37
41
46
35
51
42
46
50
44
44
37
38
38
46
50
46
40
46
52
49
41
34
31
39
45
49
47
46
48
45
36
36
42
43
46
45
41
45
47
47
45
39
35
30
37
57
51
48
38
42
50
45
44
41
43
52
52
53
59
70
57
57
63
55
58
63
62
64
56
53
50
50
52
56
54
56
42
45
42
39
48
43
40
51
41
43
53
37
38
35
31
31
36
45
50
38
37
47
50
44
43
40
35
27
22
11
-7
-2
2
10
39
53
73
91
114
143
145
144
156
175
181
186
193
200
185
171
126
48
20
21
17
5
27
38
49
52
41
45
42
36
36
37
35
38
40
46
40
48
39
32
39
40
28
41
45
44
45
41
40
36
36
42
44
51
51
48
53
40
35
42
43
43
35
40
41
48
53
50
41
46
46
43
36
41
45
41
49
42
40
48
48
47
39
48
51
55
44
38
48
48
49
42
38
44
50
52
55
45
46
48
47
40
40
41
48
50
55
54
46
40
35
52
50
44
50
55
58
57
45
57
55
51
51
61
60
58
58
58
59
54
50
56
52
58
64
65
61
52
60
59
47
46
49
53
59
66
44
40
49
47
46
47
56
56
53
57
54
51
49
44
44
47
43
45
55
51
50
42
49
49
44
45
48
50
49
45
47
42
46
50
50
39
31
53
56
41
40
52
48
54
44
46
46
51
42
49
46
57
49
39
43
46
32
49
51
54
53
51
41
44
43
40
38
49
57
58
56
48
45
47
42
41
45
51
56
49
60
68
52
40
42
48
52
53
50
36
50
34
47
52
53
44
51
51
55
58
52
50
35
48
46
37
56
55
58
52
49
48
53
48
42
48
42
51
53
49
47
53
47
48
45
40
43
46
47
50
51
45
50
50
46
45
42
49
46
57
55
52
42
48
45
41
48
46
50
46
47
55
57
46
29
45
50
52
51
43
43
47
45
39
43
51
40
39
53
43
49
48
45
43
49
48
44
49
46
44
41
43
51
51
53
47
48
52
46
42
50
42
46
45
46
39
47
43
39
54
62
42
39
49
51
51
46
52
55
53
45
50
55
49
54
55
62
68
63
66
81
66
60
62
60
57
59
54
54
47
53
55
50
46
46
43
45
50
52
46
44
50
48
43
44
36
49
44
56
46
39
46
44
44
42
49
45
53
41
18
17
6
0
-7
16
37
59
66
97
109
122
138
145
150
171
187
194
205
204
199
183
144
62
14
7
18
31
38
31
36
49
55
40
40
45
51
54
48
42
37
36
39
41
42
41
40
44
48
48
37
44
43
44
43
40
45
46
43
46
52
47
41
44
42
39
46
54
55
52
47
41
40
40
51
50
48
54
53
50
45
49
43
42
48
53
52
49
49
50
51
56
48
49
44
41
39
43
53
56
49
48
44
36
52
70
57
59
58
48
53
58
46
49
50
48
47
54
56
53
55
53
61
55
55
54
62
56
56
51
48
59
56
50
60
63
63
66
66
63
61
70
60
52
48
57
64
67
54
47
53
50
45
52
57
56
52
51
42
47
57
47
42
52
33
37
51
61
46
42
44
48
45
41
44
55
55
53
53
45
51
45
44
45
44
43
45
51
43
43
48
37
45
43
56
54
47
53
43
33
48
40
32
33
43
48
45
56
49
41
51
42
45
44
44
47
47
48
60
45
43
33
42
44
51
40
47
44
46
48
47
48
46
43
44
53
48
46
45
34
40
38
40
51
52
53
52
50
42
49
40
41
41
39
51
60
45
49
53
38
40
40
42
45
48
49
41
45
39
50
45
34
40
45
43
46
52
51
37
42
43
43
41
40
42
49
48
50
32
35
45
44
37
38
42
40
44
41
38
45
36
37
40
48
38
57
51
34
37
45
53
38
37
42
39
40
43
42
48
49
47
45
41
46
53
44
54
56
51
52
51
52
57
50
52
58
54
54
53
54
52
58
54
56
52
52
45
38
38
50
50
49
36
29
39
43
44
45
45
36
34
42
48
35
44
48
46
40
41
43
40
36
29
39
28
26
16
-2
-15
0
16
51
71
84
104
120
129
133
126
139
151
147
170
180
168
144
106
37
-4
-1
-1
1
8
10
22
30
35
45
33
40
42
32
37
35
45
44
47
38
44
45
32
38
35
41
47
37
43
52
45
42
45
49
42
40
45
48
51
48
42
44
41
46
46
47
44
44
49
50
50
52
50
50
59
51
50
53
63
52
58
53
42
50
54
61
63
59
56
54
58
54
53
57
52
62
66
60
58
52
59
61
61
61
61
63
65
68
64
55
62
70
64
65
70
64
67
74
70
63
78
75
67
65
77
72
67
71
77
72
72
70
71
59
56
67
68
66
67
67
69
59
54
52
59
61
56
54
56
54
57
57
61
49
44
54
55
59
54
54
56
48
54
49
45
58
50
44
51
46
52
48
43
45
48
48
54
54
48
48
44
53
51
47
45
47
47
45
45
47
51
46
43
51
51
52
49
55
62
60
50
46
55
61
58
57
53
55
53
55
55
53
50
47
44
61
55
60
60
57
55
50
46
46
55
61
62
58
63
57
62
52
54
49
53
60
53
64
55
53
52
48
54
50
50
50
50
56
60
50
48
49
53
52
54
51
56
56
47
43
44
55
53
43
53
61
56
52
52
55
50
47
50
46
37
58
72
60
42
44
41
46
44
49
57
53
62
51
50
47
49
44
42
44
36
51
64
57
59
58
51
50
56
56
57
60
70
54
64
67
69
64
60
64
60
65
62
59
50
46
51
45
44
53
55
55
47
47
50
50
48
30
46
45
43
51
53
51
49
40
38
42
45
48
55
49
47
38
32
33
18
2
-3
11
17
41
65
68
88
108
121
134
143
145
163
182
186
184
183
177
162
117
52
19
16
21
24
25
27
31
39
44
42
45
53
48
40
46
35
45
42
40
42
35
44
50
39
41
55
47
42
40
37
48
52
57
49
43
45
45
44
36
46
51
55
51
50
46
39
41
40
40
51
46
46
55
54
46
54
48
54
44
41
47
57
50
53
54
43
48
44
48
46
52
52
54
47
53
56
55
52
36
47
57
53
55
55
54
45
45
50
59
53
48
52
57
61
60
57
51
49
55
59
59
62
61
53
54
61
58
64
55
62
57
68
57
60
71
63
48
55
63
52
56
57
59
55
63
56
49
36
47
50
59
58
56
51
43
46
45
47
48
48
45
47
51
46
47
48
38
45
49
44
49
62
49
34
42
42
51
43
35
44
50
45
44
54
43
43
38
43
42
47
49
49
46
42
44
35
34
40
46
50
53
48
43
43
37
34
52
44
40
46
52
46
48
44
41
50
38
52
39
38
46
43
53
61
52
42
51
34
39
50
51
44
48
56
55
46
41
40
41
46
55
53
51
51
45
49
48
46
45
46
45
48
46
44
48
44
46
43
52
50
49
51
54
40
42
45
51
39
45
51
53
49
46
49
53
49
53
46
37
46
50
53
44
42
41
41
36
51
51
49
50
53
50
49
57
47
41
42
43
50
44
48
45
44
44
52
50
40
49
55
65
52
58
56
57
54
56
50
61
62
66
70
58
53
59
50
51
59
57
53
59
39
49
52
46
47
41
39
41
45
57
59
44
48
38
33
45
37
42
53
50
50
43
51
44
51
37
40
34
28
26
8
-7
0
11
40
51
69
92
108
129
137
157
164
179
180
196
204
204
195
185
137
54
12
10
10
23
33
39
49
48
46
45
51
44
35
38
45
43
48
50
52
44
54
35
36
42
40
40
44
47
44
51
52
47
45
43
40
49
49
50
32
30
42
53
44
39
51
45
45
50
53
46
52
49
47
47
50
51
46
44
49
45
55
52
44
54
51
44
52
56
42
51
51
41
43
50
53
53
44
38
44
56
59
54
41
38
49
52
63
50
48
56
49
56
47
36
52
60
60
55
50
55
55
48
52
51
56
66
62
62
62
64
54
60
54
62
69
66
59
51
61
59
60
64
59
55
57
59
50
51
63
62
43
51
58
62
54
57
55
59
48
42
47
40
42
49
49
54
44
55
61
54
49
50
42
46
57
55
50
52
46
43
49
45
48
57
49
55
50
43
47
51
54
50
47
43
52
49
54
52
48
48
44
44
46
46
48
48
53
51
50
49
48
46
44
46
50
47
52
48
53
44
46
49
48
46
53
57
58
45
52
41
48
56
47
49
57
53
47
46
54
58
49
50
50
53
53
42
53
54
45
52
48
51
49
39
43
58
59
49
47
51
48
51
46
48
49
48
59
46
46
51
45
45
51
54
49
55
57
41
47
50
44
54
53
58
57
44
50
52
57
45
42
47
51
50
47
50
55
49
48
54
55
40
42
50
53
54
49
46
47
45
51
42
42
51
60
53
46
53
56
33
41
54
49
51
53
48
50
52
54
47
49
53
51
46
44
46
54
54
47
43
43
45
61
66
50
46
44
55
54
42
42
45
49
36
52
59
53
53
54
49
42
44
51
52
50
55
52
46
38
54
55
50
46
47
49
51
53
50
50
51
43
47
54
50
44
59
59
47
49
49
55
45
48
53
61
62
52
49
43
48
41
57
61
65
62
64
60
68
66
68
64
64
60
61
70
64
55
61
63
47
56
54
54
50
54
58
51
40
46
37
44
52
56
57
48
56
54
46
53
49
45
41
44
59
48
54
53
46
36
28
16
11
7
18
34
32
50
71
97
108
125
140
153
167
190
191
196
206
206
186
172
147
69
28
10
27
26
37
41
40
48
51
48
46
56
53
50
47
45
41
44
51
50
47
54
52
46
44
47
46
45
49
57
50
58
56
49
51
47
50
43
42
60
65
56
52
54
54
59
60
53
48
54
51
62
54
54
61
57
56
64
56
62
54
54
57
52
47
56
60
59
58
61
60
63
63
60
53
54
61
55
56
64
61
59
67
59
61
57
54
53
67
77
71
67
65
62
71
63
47
59
67
67
67
71
69
66
62
65
68
69
72
71
75
69
67
70
65
60
68
73
66
71
69
73
73
65
68
60
56
66
77
65
59
58
66
56
60
64
66
71
75
68
62
61
62
61
62
54
56
53
63
66
67
63
61
57
60
58
59
64
56
60
68
69
64
60
64
59
60
65
66
56
57
56
56
62
59
59
64
65
62
57
64
62
64
61
60
55
62
63
63
66
62
62
58
56
48
58
64
62
72
66
65
62
57
67
59
65
69
64
56
52
67
64
58
61
59
64
67
78
70
58
56
59
67
57
62
61
64
66
67
66
57
59
63
52
59
54
51
62
61
67
62
56
55
58
54
56
61
65
66
54
56
62
60
48
48
54
68
64
65
61
62
64
53
56
51
54
62
61
62
62
57
61
55
50
48
61
56
60
63
61
59
51
54
49
47
56
67
59
58
62
59
56
51
56
47
58
67
64
67
54
56
56
53
47
54
61
55
54
54
50
61
69
61
52
55
61
58
51
52
56
53
60
59
60
49
67
63
64
66
59
59
68
66
59
58
51
67
71
78
65
73
71
72
67
71
77
81
77
82
81
70
56
66
59
54
65
64
60
63
62
68
65
57
62
73
59
59
65
60
54
57
53
57
62
60
61
66
68
55
49
51
49
43
45
23
17
29
35
52
69
86
98
119
139
144
146
151
163
166
175
184
188
174
145
94
36
17
23
14
20
32
35
41
52
62
58
61
60
59
66
55
54
54
56
53
61
63
68
67
67
62
56
65
59
61
60
73
69
61
63
67
56
53
61
73
61
65
79
63
60
76
64
68
58
72
83
77
72
67
67
69
68
72
75
76
81
68
73
78
79
76
81
74
72
83
81
82
77
74
81
77
78
82
84
81
82
88
80
79
91
76
78
87
90
86
87
89
88
85
84
86
87
91
90
91
103
94
87
90
89
79
86
86
84
86
95
93
99
89
87
82
81
82
82
86
86
79
87
85
74
76
73
79
73
77
85
83
71
69
72
72
71
73
74
74
78
73
71
68
70
64
70
78
72
75
74
70
67
63
80
69
59
68
66
69
74
71
58
66
75
69
65
78
67
77
75
67
66
65
67
62
64
71
70
67
74
79
75
71
71
69
72
70
74
76
72
81
70
74
71
70
63
67
77
75
71
85
73
68
75
72
71
65
62
74
75
84
79
77
74
67
75
74
72
76
72
75
73
73
68
71
65
67
67
77
75
77
73
72
71
66
77
75
67
64
77
77
73
68
68
65
64
66
65
67
68
63
83
75
76
66
67
69
75
84
70
64
63
58
57
72
75
68
70
80
74
69
69
74
61
68
67
65
69
74
69
66
65
62
68
68
65
64
69
68
72
66
66
68
65
76
64
75
75
75
65
71
76
63
68
61
71
70
62
70
82
80
85
91
81
71
77
86
82
80
82
83
75
89
87
79
73
70
73
67
64
64
61
78
72
59
62
74
66
68
70
73
70
70
64
64
58
63
71
66
60
71
67
57
63
51
47
59
54
33
30
25
29
45
55
75
93
108
125
155
162
159
163
181
179
182
192
209
194
166
109
44
31
22
29
36
37
48
50
56
61
66
67
66
54
61
60
59
69
69
53
57
67
51
59
66
63
62
68
61
67
63
59
61
65
68
62
60
69
70
63
68
67
63
60
57
61
64
68
73
66
66
65
65
62
57
61
66
73
73
68
74
65
69
70
66
65
73
70
73
71
72
58
53
59
74
79
59
71
73
66
63
65
67
70
68
69
71
76
73
65
76
68
61
71
69
70
75
69
74
73
67
69
70
76
84
73
72
76
76
72
68
69
76
84
69
76
74
75
70
64
67
72
68
62
61
72
82
77
67
57
62
71
64
63
59
63
66
67
61
60
62
61
64
56
58
60
61
58
66
62
60
55
58
58
66
59
53
55
53
60
62
61
58
51
54
64
56
54
58
60
54
53
59
54
58
58
61
58
63
62
57
52
53
61
56
52
51
61
60
59
58
58
63
55
51
56
50
59
61
57
67
62
56
58
58
55
60
53
55
54
55
48
56
67
61
58
57
65
65
55
54
52
62
56
62
55
65
68
59
63
53
53
49
52
58
58
58
56
50
49
53
63
58
45
44
53
58
57
64
60
54
57
49
50
54
60
54
53
60
52
52
54
55
64
63
48
53
50
49
59
54
44
54
51
44
56
45
57
59
59
56
55
57
52
46
53
50
48
48
57
53
56
46
55
64
58
55
52
50
50
52
44
41
59
55
58
53
51
56
52
45
51
49
50
55
51
48
51
54
51
51
50
52
53
49
45
51
53
49
57
59
54
63
64
60
64
70
65
60
59
59
67
73
66
61
60
65
57
56
64
58
59
56
55
53
51
58
55
50
44
37
46
50
44
61
52
53
59
38
45
52
45
42
44
53
45
45
43
41
31
32
21
2
2
11
21
33
59
73
88
109
123
142
157
177
185
185
194
200
205
210
192
149
87
38
31
34
32
44
32
42
42
39
55
45
48
43
40
36
44
45
36
41
41
37
47
50
42
38
24
50
50
50
44
50
45
45
47
48
41
33
41
44
44
52
39
39
37
48
42
49
43
48
53
48
48
35
44
57
51
43
43
39
49
53
52
41
36
44
39
45
45
43
41
50
39
51
53
45
52
44
37
30
43
52
53
45
40
41
43
38
35
52
50
50
52
45
48
43
50
52
35
38
43
54
60
53
44
47
53
49
47
51
59
49
48
58
56
62
60
48
47
51
61
62
56
55
57
53
48
53
49
42
48
52
42
50
57
48
43
48
41
39
49
51
46
41
39
47
50
45
32
35
50
49
49
51
43
38
36
50
35
42
44
45
45
36
42
48
44
33
43
38
36
42
40
38
34
45
43
47
39
43
43
49
41
31
38
23
30
49
41
41
48
48
43
36
38
44
39
30
34
42
41
46
37
40
38
36
36
42
38
49
52
41
42
44
38
38
38
32
42
48
40
37
42
44
40
34
39
42
33
45
56
44
47
41
48
43
32
32
32
50
49
48
43
51
47
39
36
39
40
43
43
47
45
39
41
41
36
36
38
51
55
42
39
34
37
37
38
36
47
46
37
41
42
39
41
36
32
34
35
40
44
40
43
44
46
38
36
34
38
53
39
31
41
37
34
37
38
40
43
33
45
34
41
35
50
41
43
37
40
44
40
44
31
38
37
35
38
35
39
40
44
37
32
34
41
37
31
35
38
44
37
34
27
35
34
34
39
53
41
52
43
39
35
32
26
39
32
33
36
47
43
33
37
45
51
39
38
39
33
35
53
52
41
47
51
39
44
41
50
55
49
53
65
45
38
48
46
54
57
53
49
43
36
42
42
36
35
31
29
41
43
41
40
40
34
19
29
41
42
37
44
33
32
40
41
28
31
35
32
40
29
10
6
-5
-5
1
3
16
39
52
75
92
109
128
125
132
139
161
175
186
195
184
166
130
65
2
3
4
12
15
20
28
29
21
27
27
24
32
32
42
32
27
22
29
31
36
36
30
30
38
35
19
26
33
36
26
27
45
42
36
35
30
35
35
31
44
48
32
34
38
37
34
33
29
40
43
34
43
40
34
38
37
37
27
30
32
32
47
47
48
36
35
38
48
35
27
37
36
44
50
40
46
33
42
39
25
35
40
40
38
38
44
41
42
37
40
37
40
50
47
47
36
41
36
34
32
45
48
49
42
37
42
43
42
43
48
43
45
52
50
46
56
55
55
48
45
47
45
43
48
57
44
36
42
39
38
50
44
52
46
54
42
34
41
39
37
37
45
34
38
36
38
42
33
35
47
42
43
38
44
37
36
33
39
37
35
37
38
39
42
34
45
35
29
33
36
44
48
40
41
40
43
39
34
30
34
40
44
46
42
40
42
42
38
40
34
42
42
31
36
46
39
37
35
40
39
42
49
48
35
42
37
39
37
31
36
37
41
49
47
43
39
42
48
41
41
39
40
40
44
41
38
48
38
36
36
37
50
46
45
41
36
38
38
39
46
45
46
40
37
44
45
32
32
38
35
34
26
39
45
40
51
39
37
49
40
40
49
43
32
33
36
41
41
45
38
44
40
37
37
45
42
40
46
41
41
40
44
44
23
41
45
32
41
41
41
48
41
43
38
38
40
37
39
39
40
32
38
45
41
36
35
40
38
35
40
42
55
40
34
42
40
38
49
35
36
40
40
36
37
39
39
45
37
38
37
34
45
46
49
47
36
39
39
30
34
37
36
48
50
34
44
44
38
41
42
41
46
44
45
44
32
37
42
46
44
43
47
45
37
36
40
39
47
37
61
73
70
63
60
60
55
50
48
51
53
60
53
52
44
38
34
43
44
41
49
42
44
42
45
41
36
30
40
38
41
36
44
44
41
45
37
37
38
34
41
32
39
25
22
8
-13
-9
2
16
43
61
75
98
111
133
137
147
160
182
185
205
202
195
193
172
110
46
9
9
18
34
36
37
38
47
40
32
35
37
45
37
33
39
33
29
27
31
33
32
44
44
36
32
39
38
38
39
37
39
28
37
34
36
32
37
37
30
33
56
43
42
44
46
38
43
35
37
35
38
38
44
44
45
45
43
38
29
42
40
45
44
37
34
44
39
32
33
37
45
47
37
40
36
38
42
28
28
36
38
33
40
42
39
43
42
48
45
29
38
32
35
40
42
38
38
40
44
37
36
45
37
44
42
40
39
45
46
38
42
45
49
47
39
46
45
43
44
47
46
46
36
41
47
37
41
44
48
45
43
46
50
40
50
44
31
32
47
40
44
48
51
48
36
41
42
35
40
47
40
37
28
41
40
37
28
44
38
44
41
44
35
33
39
39
31
41
44
35
36
49
37
34
37
41
40
33
35
41
47
48
46
42
37
41
34
34
37
37
29
48
53
45
41
37
32
35
35
41
44
37
43
38
32
33
43
40
37
35
35
37
44
47
56
38
34
41
41
48
37
49
50
47
31
35
34
34
38
39
43
44
43
42
39
36
30
33
34
39
45
46
39
28
31
38
35
31
40
43
38
51
40
35
41
30
32
43
43
42
41
32
38
29
36
34
38
46
36
43
46
35
35
37
41
40
42
30
29
35
41
42
34
34
30
37
33
34
40
39
34
42
36
37
45
34
20
29
39
40
43
45
34
36
40
39
36
31
31
38
47
38
34
29
21
36
43
41
39
39
34
36
41
37
31
37
31
25
36
41
50
46
33
30
27
39
41
34
30
41
54
46
35
46
44
40
42
43
58
61
64
57
42
40
46
59
54
43
52
51
50
52
45
37
30
35
38
39
42
36
38
39
27
24
24
33
33
34
38
42
41
35
32
38
31
24
36
35
33
37
26
17
7
-11
-8
-9
7
19
49
57
76
98
123
133
136
141
158
177
175
187
188
176
161
141
57
3
2
15
14
15
30
28
42
25
29
29
31
31
33
30
25
24
24
28
28
26
35
25
30
39
34
23
33
34
20
20
24
32
33
36
33
36
36
49
37
25
18
31
34
43
35
27
33
29
33
34
35
38
33
33
31
25
35
32
30
31
42
33
34
34
42
37
33
39
35
27
27
43
36
37
35
24
37
48
31
34
34
29
28
31
34
32
29
31
30
27
37
36
47
42
46
36
26
34
36
28
30
33
37
38
44
39
47
41
38
40
34
37
48
43
34
38
37
51
40
37
36
39
35
40
43
41
38
38
35
36
42
35
36
33
37
31
30
31
35
35
32
35
38
30
29
32
37
35
32
26
36
36
34
28
31
27
29
37
26
17
27
28
39
39
27
31
25
34
24
34
26
30
27
23
29
31
29
26
26
24
31
31
39
32
37
27
19
19
14
21
39
26
36
37
31
32
28
24
25
28
28
29
25
27
25
36
30
20
18
22
27
35
33
30
31
35
37
31
16
18
27
29
26
30
32
33
25
27
18
23
26
24
28
28
28
28
26
24
22
26
27
23
32
32
27
27
19
25
22
24
23
27
24
25
28
35
33
16
17
15
20
24
27
31
25
22
29
26
21
25
28
23
30
24
22
28
28
20
19
24
28
25
21
26
20
21
19
20
20
24
17
27
24
29
32
30
25
4
14
20
25
22
24
20
26
27
23
20
16
18
27
32
33
17
12
15
20
18
21
23
30
28
26
23
24
24
24
21
23
33
26
27
31
24
22
31
36
32
29
41
46
39
36
37
36
38
34
37
34
37
36
33
31
32
26
21
22
23
16
23
19
21
22
13
15
24
21
21
22
21
26
22
25
18
25
20
16
12
13
14
21
21
10
-10
-16
-28
-23
-11
6
32
56
67
82
102
110
114
121
141
147
153
170
178
175
150
105
19
-25
-21
-11
-10
1
15
6
19
20
20
15
7
12
13
16
27
20
17
20
20
13
10
14
26
25
17
17
21
9
16
21
18
13
24
21
14
31
28
22
21
18
14
24
27
25
18
14
29
37
17
12
16
21
18
34
23
18
20
28
19
15
20
20
30
28
26
27
31
25
21
23
18
15
24
32
22
14
31
30
30
25
27
23
29
38
37
27
31
28
24
15
31
33
26
23
27
35
32
31
28
29
33
25
28
43
38
31
29
27
37
34
23
33
34
34
32
31
35
30
28
32
32
33
34
30
31
22
30
31
29
25
23
32
26
30
24
25
21
21
24
20
18
32
29
15
21
23
33
21
23
19
20
28
26
30
20
17
21
18
23
21
30
25
18
18
18
20
27
27
24
18
25
27
17
25
20
31
22
17
19
21
27
27
25
23
15
23
26
17
20
34
30
28
32
26
19
33
22
25
18
15
28
35
31
22
32
26
26
19
19
22
16
38
33
30
28
27
24
12
13
20
34
35
33
27
28
23
26
22
28
19
25
22
22
28
28
28
23
24
30
24
27
29
27
25
26
26
26
31
21
26
27
31
31
41
28
25
18
20
17
21
25
34
29
31
24
31
28
28
25
27
32
29
31
32
30
30
28
25
21
15
37
39
32
22
34
40
32
35
32
46
37
42
51
51
43
39
39
33
36
44
42
41
29
35
33
32
41
28
27
30
36
27
24
22
31
29
25
21
28
31
33
37
27
25
30
23
22
30
36
25
23
21
21
18
5
1
-4
-9
-10
15
44
68
77
95
110
124
113
103
109
122
134
151
163
155
116
64
-4
-25
-23
-14
-18
-11
1
5
12
12
24
19
24
39
33
28
30
28
33
19
14
11
19
40
32
37
28
27
38
28
29
23
26
32
38
36
37
37
35
32
31
34
30
40
40
41
33
36
39
28
35
39
33
40
51
47
40
42
37
41
38
36
43
44
37
45
44
47
35
40
38
40
42
46
47
46
46
47
50
45
42
44
46
51
53
54
53
47
56
50
41
41
44
58
64
51
60
57
39
49
47
61
55
58
57
66
55
55
48
48
48
37
57
62
48
53
50
52
40
36
37
34
44
47
52
50
41
39
38
29
36
29
33
31
36
47
32
26
33
29
24
28
31
31
32
24
26
27
35
35
30
19
29
35
38
30
19
28
26
20
14
20
33
28
25
33
38
35
23
25
28
25
19
27
35
32
29
28
24
19
29
36
25
25
35
21
27
37
30
22
27
31
26
24
38
37
32
34
34
24
16
28
39
31
28
29
35
33
27
26
24
31
36
35
25
32
26
12
16
24
29
27
28
25
22
23
26
25
27
25
28
30
29
38
26
27
29
21
17
21
23
34
31
24
28
20
23
25
34
27
22
17
31
26
29
29
36
33
32
43
33
35
46
49
45
38
33
38
32
34
33
31
40
29
32
32
32
28
24
26
18
25
23
19
35
29
17
19
11
19
22
18
23
24
19
17
20
25
20
16
23
12
23
28
19
-2
-9
-26
-36
-24
9
26
44
63
74
93
109
120
127
151
155
164
174
184
183
158
150
65
-1
-17
-8
-6
7
20
21
30
28
21
17
13
2
8
21
20
27
23
24
15
10
17
12
14
28
17
16
28
23
16
8
11
23
22
22
12
12
14
15
20
26
31
28
15
20
20
19
21
22
20
16
26
26
21
26
21
20
13
11
33
27
13
25
32
27
25
21
19
15
17
17
13
21
29
29
22
24
22
23
22
23
22
19
21
23
21
27
26
25
25
22
24
27
21
17
22
22
29
34
28
18
14
27
35
33
33
25
30
29
28
31
31
24
21
34
43
36
30
23
27
24
19
20
29
39
32
23
17
18
29
34
19
22
25
25
26
28
16
17
14
19
21
22
19
8
21
23
27
20
12
14
18
25
22
22
15
14
21
15
21
16
14
6
18
15
15
19
16
13
17
16
19
22
15
24
14
13
13
16
9
12
21
21
12
13
16
14
25
15
9
17
17
14
17
15
20
19
18
8
10
19
17
20
20
17
13
6
14
12
8
15
17
14
19
25
12
10
8
6
8
16
24
14
12
17
17
22
12
7
18
17
11
14
19
17
20
23
20
30
18
14
5
6
14
27
20
34
30
26
20
27
32
28
34
41
34
35
27
22
26
27
27
21
20
20
23
13
24
21
11
14
12
8
22
17
10
6
12
13
3
4
8
19
17
17
6
6
5
13
10
13
12
9
14
5
-9
-20
-29
-37
-35
-24
-3
15
35
60
68
92
106
109
122
137
155
153
162
167
158
145
110
28
-21
-17
-9
-8
-10
-2
1
11
7
7
0
4
7
3
9
12
10
6
11
4
-4
6
12
5
10
14
7
2
3
-1
10
9
12
9
8
4
11
14
12
14
10
9
13
9
13
8
9
5
9
10
-5
10
17
9
18
6
12
14
7
7
8
10
10
16
25
7
14
17
11
4
7
11
9
11
12
8
10
11
8
6
8
25
22
13
20
14
13
13
10
5
15
11
20
34
19
17
22
23
16
6
14
20
13
23
33
20
24
24
22
14
8
21
23
27
23
26
19
15
17
13
19
2
12
10
19
17
18
18
5
3
12
1
9
18
16
13
4
6
4
8
2
5
15
13
12
1
8
3
1
-1
2
4
5
5
14
5
9
10
1
0
3
0
-2
8
13
8
8
1
3
0
1
6
8
4
-2
8
6
2
-5
-9
6
10
13
8
8
12
-2
5
10
-4
6
2
8
8
6
4
4
0
-2
5
3
4
7
4
2
5
11
4
1
1
4
12
12
6
11
8
-2
-14
-1
7
11
5
8
7
11
8
12
5
3
-1
0
9
13
8
6
1
-7
-1
-1
-1
2
2
6
12
5
3
0
-1
-2
5
8
10
9
13
-5
1
-3
4
0
6
6
9
19
8
0
3
9
13
14
6
13
26
13
25
21
15
17
15
18
20
18
18
12
12
14
4
-5
-6
6
-5
4
11
2
-3
-3
10
1
-2
-4
-4
-1
-4
5
1
5
5
-7
-6
-6
-8
5
0
-4
-5
-7
-18
-16
-22
-38
-42
-39
-26
-8
6
19
35
53
81
86
91
106
128
129
141
145
150
139
118
82
-1
-35
-38
-31
-30
-35
-25
-15
-13
-3
-6
1
8
-9
1
2
-9
-6
-8
-7
-1
2
-7
-5
-3
0
-2
-6
0
-4
1
0
-1
3
-3
-2
1
0
-3
2
-5
-5
3
4
2
6
-1
-2
-7
3
8
4
6
-2
3
8
4
5
3
1
-5
1
13
12
11
2
2
11
5
7
7
11
11
14
7
10
10
5
4
-2
10
16
12
6
9
17
16
9
10
11
32
23
16
9
13
11
17
19
17
5
20
27
28
9
18
17
11
13
15
14
18
25
27
24
24
23
24
19
13
6
14
16
16
10
14
12
12
4
9
6
6
7
6
2
8
6
4
2
5
-2
6
8
10
4
2
3
1
7
-1
1
-2
-1
3
7
12
6
-3
-2
1
3
-1
1
-3
-2
-1
-1
-1
5
0
1
11
9
0
-2
4
-2
-4
1
-7
2
4
11
13
0
3
3
-5
-10
-3
6
6
3
7
9
8
8
6
-2
-1
3
2
2
1
6
9
2
-1
3
0
2
11
14
0
9
3
3
-2
3
-1
-2
4
2
4
-5
3
0
0
10
3
2
1
2
1
0
-2
4
-1
-2
-3
5
5
-2
1
4
5
-1
-6
1
-1
0
-3
-9
5
1
3
-5
2
0
-1
0
9
7
-5
-7
4
8
3
-1
3
11
7
16
18
14
5
8
17
16
1
11
19
21
20
21
13
5
10
12
13
9
3
0
8
4
-2
-2
-2
-4
-4
0
-4
-3
2
-5
-1
1
2
-5
0
3
-7
8
0
-3
-5
-7
-7
-6
-5
6
-3
-16
-25
-37
-42
-35
-38
-20
6
20
38
60
71
84
86
84
95
105
107
115
129
135
97
66
-7
-51
-49
-48
-38
-30
-35
-22
-15
-8
-12
-16
-14
-12
0
4
7
0
-5
2
-7
-5
-11
-10
-8
-8
-5
5
-10
-2
-6
-4
-9
-16
-9
7
13
-4
-5
-1
-6
-7
-1
-5
0
-7
5
1
1
4
-1
-2
0
-6
-4
8
-3
4
5
2
-5
1
0
-2
2
5
8
8
1
1
6
1
2
5
3
6
0
11
0
-1
-5
-1
3
5
8
4
13
13
13
8
5
4
4
12
14
10
5
21
9
1
9
11
15
12
12
17
11
6
10
12
7
2
8
6
11
11
15
8
9
11
5
-2
1
2
-4
2
5
3
-2
-10
-12
4
-1
1
-4
1
10
1
-3
-22
-21
-2
-6
-5
-4
-8
-4
-3
-12
-10
-12
-15
-16
-15
-3
-7
-2
-1
-8
-11
-18
-15
-9
-9
1
0
-8
-20
-17
-14
-6
-18
-8
-13
-12
-8
-8
-10
-4
-8
-12
-11
-8
-6
-13
-6
-2
-9
-8
-6
-6
-11
-17
-7
-4
-4
-6
-13
-5
-6
-6
5
-3
-13
-12
-13
-1
-2
-15
-7
-3
-8
-16
-6
-2
1
-5
-9
-13
-8
-16
-3
1
-6
0
-19
-8
-11
-9
-10
-10
-9
-3
-4
-5
9
-8
-7
-6
-8
-12
-12
-2
-5
-7
-8
-5
-5
-9
-7
-17
-10
-11
-17
-12
-4
-12
-13
-5
-19
-12
-14
-11
-7
-8
-4
-3
-10
-10
-1
-6
-7
-7
-13
-9
-6
-3
-9
-3
-7
-14
-5
-5
1
6
11
11
1
9
5
2
-1
8
3
4
1
-8
-11
-9
-10
-7
-9
-14
-11
-7
-13
-17
-11
-6
-7
-10
-7
-5
-11
-7
-8
-10
-12
-19
-13
-17
-11
-17
-3
-11
-13
-18
-23
-30
-46
-54
-65
-48
-32
-15
2
9
37
51
78
91
103
112
131
134
141
147
153
141
118
56
-12
-32
-23
-39
-24
-23
-14
-11
-11
-13
-24
-11
-10
-9
-12
-11
-17
-9
-21
-24
-14
-10
-10
-14
-11
-12
-13
-11
-16
-23
-17
-11
-12
-13
-19
-10
-1
-13
-11
-10
-22
-16
-10
-2
-9
-9
-13
-7
-12
-8
-9
-12
-17
-9
-14
-4
-8
-19
-11
-14
-10
-11
-10
-4
-7
-12
-11
-16
-17
-15
-9
0
-6
2
2
-16
-11
-14
-23
-16
-6
-3
-2
-7
-19
-10
-3
-5
-9
-12
-9
-7
-14
-8
1
-1
-4
-7
-3
-11
-6
-5
-1
4
-2
-6
-8
-2
-7
-1
1
8
8
2
-5
3
0
-8
-2
-3
0
-1
9
9
-11
-12
-8
-2
-14
-14
-5
-3
3
-4
-6
-5
-7
-23
-17
-6
-12
-9
1
-3
-13
-16
-14
-14
-11
-12
-19
-13
-5
-3
-6
-15
-18
-9
-6
-7
-12
-5
-8
-13
-9
-10
-16
-20
-18
-16
-10
-8
-7
-10
-12
-23
-20
-17
-12
-7
-17
-10
-7
-15
-24
-12
-14
-13
-13
-14
-7
-9
-15
-11
-10
-7
-15
-12
-17
-19
-6
-4
4
-10
-15
-19
-14
-6
-11
-12
-9
-3
-5
-12
-11
-9
-13
-15
-14
-16
-4
-3
-6
-6
-12
-11
-11
-15
-12
-6
-7
-10
-6
-5
-3
-13
-20
-19
-13
-9
4
-3
-7
-7
-4
-15
-15
-13
-11
-13
-14
-8
-8
-9
-9
-10
-8
-9
-13
-13
-5
-2
-1
-12
-16
-13
-26
-17
-5
-3
-12
-1
-7
-10
-14
-14
-9
-13
-13
-9
-12
-12
-5
-6
-8
-13
-14
-19
-13
-9
-6
-5
-8
-13
-19
-20
-12
-13
-10
-6
1
-7
-13
-13
-10
-13
-17
-17
-14
4
-5
-14
-13
-13
-16
-8
-20
-10
-9
-11
-9
-10
-11
-12
-11
-19
-14
-11
-16
-16
-7
-6
-9
-16
-1
-13
-9
-13
-15
-12
-8
-5
-20
-14
-21
-15
-14
-19
-13
-5
-4
-4
-13
-2
-5
-19
-19
-12
-15
-12
-6
-9
-10
-9
-12
-16
-15
-20
-11
-16
-8
-4
-6
-12
-6
-14
-16
-17
-20
-7
1
-9
-7
-11
-16
-11
-14
-16
-10
-10
-9
-16
-20
-10
-11
-19
-15
-17
-8
-8
-6
-7
-13
-14
-4
-16
-13
-14
-11
-3
-16
-7
-18
-13
-9
-11
-12
-13
-11
-6
-9
-11
-11
-7
-12
-18
-23
-14
-18
-17
3
0
-2
-7
-19
-18
-12
-14
-12
-9
-8
0
-14
-15
-12
-12
-16
-24
-6
-1
-1
3
-7
-3
-8
-16
-17
-9
-2
-5
0
0
2
8
6
5
3
6
12
10
4
7
8
-2
-2
-3
-10
-10
-6
-7
-13
-5
-4
-6
-13
-10
1
-7
-9
-8
-17
-9
-6
-3
-6
-18
-10
-7
-7
-15
-18
-14
-6
-21
-26
-45
-55
-46
-54
-39
-15
6
19
39
61
90
80
82
105
133
139
151
161
161
150
134
82
11
-31
-36
-34
-31
-29
-19
-12
-17
-10
-11
-11
-12
-3
-7
-17
-15
-21
-17
-15
-13
-22
-5
-9
-13
-9
-5
-12
-21
-13
-5
-10
-18
-16
-21
-24
-6
-16
-11
-13
-7
0
-1
-11
-14
-9
-11
-5
-14
-15
-2
-1
-19
-1
-8
-10
-11
-9
-15
-11
0
-4
0
-4
-4
-14
-13
-6
-7
-8
-9
-2
-8
-11
-14
-13
-9
2
-4
-13
0
0
-6
-7
-8
-3
-7
-9
-16
-9
-2
-7
1
-9
-9
-4
-6
-6
-6
-4
-4
-14
-14
4
11
-1
-3
-7
-1
0
-1
1
1
-4
2
3
3
-1
5
-2
-3
5
9
4
6
12
5
-2
-1
7
11
13
4
-2
-1
-1
4
1
-6
-3
6
-1
-5
0
-5
5
-5
8
9
-13
1
16
3
-5
-5
-5
-8
-2
6
-2
-2
-6
3
7
2
9
6
-2
-8
-6
-4
-5
-6
0
3
13
-7
-7
-1
-4
1
2
6
1
3
-1
-4
2
8
2
-4
-3
2
-4
11
2
-9
-18
3
4
0
11
11
-7
3
3
-1
-9
-2
12
4
3
3
0
5
-4
-8
-6
0
12
6
-2
-1
10
-2
6
4
-2
0
0
3
4
10
11
-2
-2
7
3
-2
-7
7
5
-1
2
5
-3
-6
-4
-4
1
6
7
9
-5
-2
5
3
-4
-1
0
2
0
1
3
1
-3
1
-7
-3
1
2
1
5
2
10
-1
-2
1
-2
-3
-3
0
-6
-2
10
2
-4
6
6
3
5
1
0
7
4
-1
7
3
4
1
7
5
11
-1
-6
9
1
-7
-1
13
4
0
3
7
2
-5
1
5
9
14
6
12
12
0
9
5
-3
5
6
13
15
6
-5
11
9
10
7
13
20
19
19
23
29
23
10
15
19
18
20
19
26
25
13
16
11
6
-2
3
10
14
15
2
15
6
7
6
3
2
9
11
14
11
7
9
2
5
0
8
6
2
13
6
2
-4
-17
-33
-31
-25
-3
17
16
36
65
72
87
94
88
88
103
107
133
131
136
120
71
13
-43
-46
-44
-35
-26
-22
-16
-13
-5
-6
-3
9
15
14
7
3
-2
4
4
1
1
11
14
7
4
-2
13
18
4
4
9
9
7
13
18
7
0
17
16
13
9
5
18
16
9
7
11
10
2
16
15
20
13
19
15
19
18
12
15
13
13
20
16
18
29
22
18
19
13
18
10
22
25
24
26
18
17
18
11
20
25
23
24
24
26
32
19
26
13
8
22
31
36
30
33
21
17
20
24
22
23
16
29
17
24
24
21
16
23
28
26
17
22
30
33
22
21
24
12
15
16
22
18
13
8
13
21
11
9
15
4
12
11
11
11
9
8
7
6
9
5
8
12
7
11
4
6
-1
0
-5
1
0
8
1
-11
-1
7
1
2
8
7
10
15
8
4
-7
2
3
1
-2
-14
7
9
8
11
-1
-12
-2
7
2
2
12
5
2
6
10
5
2
-5
0
12
12
2
3
4
4
7
8
0
-1
-1
-3
12
8
9
15
12
-2
5
4
4
2
6
10
2
3
3
2
-4
-12
-4
9
11
5
0
6
-2
-13
-6
8
4
6
11
6
15
2
-1
3
0
-4
0
8
-6
1
0
0
0
11
-1
-2
2
6
1
5
-4
3
0
-7
-3
-6
7
-3
-3
0
8
3
-2
5
5
0
-3
4
12
4
2
-1
-3
1
2
-5
7
6
2
2
9
4
-3
-10
-8
-6
3
16
20
21
14
17
6
11
13
12
21
10
3
-1
13
27
24
21
6
5
6
4
1
11
5
2
-2
-3
-6
-4
4
4
-5
-6
-5
0
-2
-4
-6
-4
3
-1
8
0
-2
-8
-2
-11
-24
-19
-20
-33
-42
-38
-32
-18
4
30
42
59
68
97
99
112
125
130
133
138
149
148
131
100
22
-26
-29
-26
-21
-23
-12
1
5
6
5
-8
-2
-6
-8
-5
-6
-16
-6
-7
-3
-4
0
-8
-10
-11
-2
4
-10
0
-9
-5
-9
-7
-3
-8
-14
-9
5
6
-1
-1
-1
-5
-8
-10
-7
3
11
11
-2
-6
6
3
-8
-8
-4
3
-1
2
1
5
-4
-6
-8
-6
-8
-2
12
3
-6
-3
-10
0
2
-3
3
0
-4
5
2
5
-7
-4
9
-8
-4
3
-1
2
3
-1
-5
2
-5
-5
7
3
7
7
0
-10
-6
0
11
7
7
11
13
9
5
6
3
6
4
7
6
8
14
7
7
11
0
4
-3
0
10
4
2
10
0
4
9
-9
-2
-2
0
1
9
5
-8
-9
-7
-13
-6
0
-2
3
4
1
-7
-10
-9
-11
-2
-3
6
6
7
-13
-10
1
-15
-5
-1
-14
-5
4
3
-7
-3
-10
-9
-9
-8
-9
-2
5
2
-2
0
0
0
-8
-15
-3
3
-7
-8
-6
2
0
-5
-12
-10
4
-1
-7
-5
-1
5
-4
-10
0
-1
-2
-4
-7
-7
1
-5
-9
-4
-2
-12
-2
13
11
7
2
-1
-7
4
-9
-8
-11
-11
-2
10
6
2
-1
-8
-6
-12
2
0
-1
8
-2
-10
-12
-7
-2
-8
-8
-1
3
3
5
0
-8
-11
-7
-11
-4
18
0
0
-5
-1
-2
-2
-9
-12
0
4
2
10
0
-2
3
-3
3
3
4
4
5
17
12
13
17
13
6
5
8
10
13
11
-1
-4
-4
-2
-20
-18
2
11
9
-10
-16
-10
-5
-3
-9
-10
-8
-4
-3
-3
-8
-16
-11
-11
-9
-6
-5
-1
-13
-24
-33
-45
-50
-51
-45
-30
0
10
27
52
73
88
88
94
115
129
138
145
153
148
139
112
34
-32
-42
-35
-29
-24
-19
-18
-13
-9
-5
-10
-6
-9
-7
2
-2
-14
-12
-11
-16
-2
-11
-11
-12
-8
-4
-11
-11
-10
-9
-11
-21
-12
-3
-3
1
0
0
3
-19
-12
-7
-5
-3
-16
-2
-14
-4
2
-12
-4
1
-11
-1
7
-3
-6
-14
1
-7
-12
-8
-11
-4
-5
10
6
2
-1
-6
-3
-2
4
-10
-3
-4
-9
-1
6
-3
-5
4
3
-8
-1
1
-3
-3
-9
-4
-2
5
7
9
-2
3
-1
4
-4
-11
1
0
4
5
15
8
3
7
5
3
10
-2
14
13
14
8
8
22
-2
0
-2
2
2
-3
0
3
-4
-2
-1
0
-1
-1
-4
-3
-4
-10
-12
-11
-14
-3
-1
-8
0
3
-4
-6
-10
-7
-13
-7
-5
-14
-6
4
-1
-10
-17
-5
-3
-8
-11
-6
-7
-8
-14
-9
-9
-9
-6
-8
-9
-7
-7
-9
-7
-6
-6
-10
-11
-10
-12
-10
-11
-3
-6
-10
1
-4
-11
-22
-12
-9
1
6
-4
-2
-8
-9
-12
-9
-8
0
-13
-3
2
-2
-5
-12
-17
-12
-13
-8
-11
-2
-5
-2
7
-11
-20
-7
-3
-3
2
-2
-3
-8
-7
-15
-13
-4
-2
-1
-2
-1
-12
-8
-6
-13
-17
-9
-2
-8
8
1
-12
-17
-13
-11
-9
-11
-8
-17
-9
-2
-5
-12
-2
-4
-15
-16
-12
-3
-9
-6
-8
-12
-1
-8
-11
-10
-11
-7
2
4
-9
-15
-15
-13
-10
-15
-9
-2
-2
-17
-8
-2
-9
-12
-6
-7
-10
-3
-12
-18
-10
-25
-7
1
-11
-7
-7
-6
-1
3
6
-3
-4
1
10
4
12
8
10
10
8
0
4
5
2
-4
-12
-10
-3
-3
-7
-12
-1
1
-14
-20
-10
-16
-14
-7
-12
-13
-3
-16
-8
-11
-15
-13
-4
-8
-20
-14
-9
-7
-18
-15
-28
-41
-56
-52
-42
-36
-18
-3
15
33
54
82
89
92
108
130
133
133
143
144
131
110
50
-21
-39
-41
-37
-33
-26
-20
-11
-7
-7
2
-12
-16
-18
-21
-15
-17
-28
-19
-6
-9
-11
-5
-9
-16
-22
-20
-15
-6
0
-9
-14
-14
-19
-9
-15
-15
-5
-6
-5
-1
-14
-10
-5
-19
-21
-8
-13
-10
-2
-8
-12
-8
-11
-17
-17
-13
1
2
-9
-9
-12
0
-4
-11
-12
-7
-4
-3
-5
-1
-5
-11
-6
-5
-14
-13
-5
-3
-6
-6
-11
-9
-12
-14
-13
1
3
-3
-3
0
-10
-12
-7
-9
-7
-6
-1
-2
1
2
-4
-7
-1
-4
-1
-4
1
9
3
-1
-7
-1
-6
-4
-4
-3
-2
9
2
1
7
2
-3
-7
-3
-8
-3
1
-6
-12
-11
-4
-13
-3
-7
-5
4
0
-1
-9
-14
-16
-13
-9
-6
-6
-9
-5
-12
-20
-7
-19
-20
-17
-15
-22
-16
1
-9
-4
-5
-8
-13
-14
-18
-14
-11
-16
-14
-13
-9
-14
-10
-13
-7
-9
-14
-3
-3
-8
-8
-3
-11
-17
-16
-17
-17
-10
-10
-13
-15
-16
-30
-16
5
-10
4
1
-17
-18
-4
-11
-27
-17
-9
-8
-6
-12
-10
-7
-6
-12
-10
-9
-6
-11
-11
-11
-10
-14
-7
-11
-16
-15
-11
-2
-13
-5
-10
-15
-14
-14
-15
-4
-24
-21
-14
-15
-7
-7
-17
-13
-9
-10
-17
-14
-19
-12
-10
-17
-19
-13
0
-16
-16
-13
1
-5
-12
-15
-14
-15
-19
-13
-14
-10
-12
-4
-8
-14
-19
-22
-16
-18
-13
-5
-6
-6
-16
-13
-16
-26
-20
-25
-22
-13
-10
-7
-17
-13
-10
-8
-13
-19
-20
-8
-22
-13
-10
-20
-21
-10
-11
-18
-7
-1
-10
-18
-20
-15
-13
-11
-16
-21
-8
-8
-13
-13
-14
-9
-17
-17
-13
-11
5
-3
-3
8
-3
-11
7
10
0
1
-3
1
-7
-16
-7
-9
-15
-19
-20
-9
-21
-22
-13
-19
-20
-12
-11
-16
-19
-16
-17
-19
-19
-21
-18
-14
-13
-14
-16
-16
-21
-18
-23
-42
-56
-70
-59
-48
-31
-8
12
27
44
65
82
81
100
111
108
119
139
138
127
118
75
4
-53
-62
-62
-34
-21
-25
-19
-16
-14
-15
-19
-13
-15
-18
-29
-16
-13
-19
-22
-11
-23
-28
-26
-26
-23
-14
-13
-29
-22
-17
-26
-20
-7
-15
-14
-10
-14
-15
-22
-21
-26
-20
-26
-21
-4
-3
-13
-17
-20
-10
-22
-20
-13
-16
-24
-9
-11
-12
-14
-7
-26
-33
-19
-16
-8
-4
-5
-4
-9
-13
-14
-27
-15
-15
-18
-7
-9
-14
-18
-10
-14
-18
-15
-16
-17
-14
-9
-13
-15
-15
-20
-12
-12
-17
-20
-20
-11
-10
-9
1
-5
-19
-14
-10
-11
-10
-3
-8
-13
-9
0
2
-11
-13
-3
-3
-6
-9
-10
-14
-11
-15
-12
-13
-5
-10
-14
-14
-14
-10
-18
-17
-24
-15
-6
-9
-7
-14
-15
-18
-22
-19
-12
-12
-13
-15
-19
-15
-22
-26
-28
-24
-15
-11
-15
-10
-9
-20
-24
-21
-32
-25
-25
-24
-15
-17
-11
-17
-19
-19
-15
-18
-25
-21
-18
-12
-22
-11
-14
-25
-32
-20
-17
-19
-19
-21
-9
-9
-10
-29
-17
-20
-25
-21
-14
-13
-21
-8
-14
-15
-17
-27
-25
-8
-9
-6
-17
-24
-26
-17
-18
-24
-21
2
-4
-15
-17
-17
-17
-26
-24
-15
-11
-13
-12
-9
-19
-24
-20
-16
-22
-20
-13
-6
-2
-15
-14
-18
-22
-23
-28
-18
-11
-20
-16
-10
-17
-25
-29
-15
-18
-20
-12
-14
-17
-15
-18
-6
-15
-11
-17
-17
-20
-18
-14
-19
-15
-12
-15
-20
-20
-20
-11
-17
-16
-20
-16
-16
-11
-26
-23
-17
-21
-23
-15
-16
-12
-18
-15
-17
-21
-22
-14
-10
-16
-14
-10
-29
-22
-21
-17
-19
-17
-17
-9
-20
-15
-10
-18
-24
-21
-16
-9
-17
-12
-19
-23
-17
-20
-18
-8
-7
-7
-14
-7
-24
-4
4
0
-6
-7
6
0
-2
5
-2
-7
-12
-15
-20
-18
-14
-15
-2
-3
-23
-21
-27
-27
-20
-22
-5
-16
-18
-12
-21
-18
-11
-31
-27
-32
-14
-11
-17
-17
-25
-25
-25
-38
-51
-58
-72
-58
-40
-26
-8
21
31
49
76
86
70
87
117
117
125
131
131
118
96
41
-34
-54
-54
-52
-48
-43
-38
-30
-39
-30
-16
-19
-16
-9
-21
-23
-22
-20
-19
-25
-29
-22
-16
-17
-27
-21
-15
-21
-24
-21
-10
-13
-25
-21
-16
-16
-11
-18
-17
-17
-19
-20
-24
-13
-15
-17
-17
-18
-18
-15
-10
-13
-12
-15
-15
-15
-24
-9
-10
-7
-7
-12
-11
-8
-10
-16
-17
-17
-14
-16
-16
-10
-10
-8
-15
-9
-12
-11
-10
-15
2
-2
-6
-7
-13
-9
-14
-11
-14
-7
-6
-3
-1
-1
-3
-1
-1
-9
-8
-1
-1
2
2
-11
-7
-2
-2
1
