-87
-67
-68
-79
-108
-99
-115
-90
-98
-94
-77
-53
-66
-67
-68
-88
-88
-84
-93
-86
-70
-67
-83
-87
-88
-106
-125
-89
-90
-71
-72
-61
-77
-91
-78
-85
-111
-116
-106
-81
-78
-67
-65
-90
-96
-96
-124
-114
-79
-74
-79
-74
-71
-82
-93
-101
-112
-110
-75
-82
-77
-56
-66
-88
-110
-119
-143
-134
-122
-99
-78
-72
-60
-51
-66
-95
-121
-114
-110
-91
-85
-74
-71
-83
-77
-89
-120
-118
-101
-82
-60
-63
-62
-65
-89
-116
-124
-112
-97
-80
-77
-66
-87
-114
-101
-107
-117
-124
-121
-102
-81
-96
-77
-90
-86
-101
-120
-109
-98
-94
-85
-70
-75
-94
-105
-118
-133
-127
-112
-117
-76
-73
-72
-94
-97
-127
-131
-119
-112
-102
-62
-72
-87
-100
-103
-101
-125
-133
-133
-128
-73
-86
-94
-95
-104
-126
-122
-146
-118
-102
-82
-71
-86
-94
-118
-133
-124
-115
-124
-125
-77
-61
-72
-87
-101
-131
-127
-113
-106
-96
-84
-56
-69
-75
-88
-111
-117
-116
-112
-88
-76
-89
-94
-102
-98
-106
-124
-125
-99
-94
-80
-66
-69
-88
-126
-128
-125
-114
-100
-109
-81
-80
-103
-117
-118
-136
-134
-127
-117
-108
-89
-94
-79
-108
-99
-115
-124
-114
-104
-98
-83
-92
-99
-119
-138
-153
-138
-131
-128
-81
-69
-97
-101
-108
-128
-109
-131
-131
-114
-99
-74
-70
-81
-95
-113
-125
-117
-92
-80
-63
-36
-28
-40
-39
-52
-34
-16
-9
4
-6
0
-16
-28
-61
-78
-64
-68
-53
-60
-64
-75
-88
-104
-101
-113
-114
-106
-91
-79
-46
-56
-71
-94
-108
-137
-131
-117
-117
-104
-67
-76
-87
-87
-101
-114
-119
-127
-116
-106
-83
-57
-54
-69
-94
-117
-108
-102
-90
-80
-61
-51
-67
-85
-104
-114
-117
-82
-68
-77
-46
-50
-58
-75
-77
-106
-96
-96
-73
-66
-57
-37
-62
-67
-79
-94
-106
-105
-59
-46
-32
-24
-38
-68
-65
-101
-118
-93
-63
-53
-38
-59
-67
-64
-66
-83
-83
-86
-69
-23
-21
-18
-38
-42
-55
-61
-57
-40
-50
-34
-18
-13
-34
-48
-56
-61
-48
-29
-25
-26
-21
-22
-24
-33
-52
-83
-73
-35
-6
0
-8
-2
-11
-27
-36
-31
-26
-20
-24
2
23
-2
-4
-21
-37
-43
-41
-29
-19
-10
-11
-16
-37
-41
-66
-60
-60
-47
-26
-7
-25
-29
-44
-64
-74
-100
-120
-74
-43
-30
-35
-53
-53
-63
-95
-82
-96
-80
-69
-36
-39
-54
-77
-64
-77
-86
-86
-65
-79
-58
-28
-40
-71
-90
-91
-78
-66
-76
-77
-43
-65
-63
-57
-63
-89
-68
-65
-56
-60
-36
-30
-57
-74
-104
-91
-101
-102
-87
-55
-40
-70
-74
-68
-77
-91
-107
-95
-81
-55
-50
-49
-54
-81
-95
-86
-82
-83
-72
-48
-37
-33
-46
-68
-71
-96
-100
-94
-84
-62
-62
-50
-45
-55
-73
-59
-52
-78
-70
-56
-51
-29
-68
-93
-105
-107
-94
-72
-60
-50
-35
-43
-64
-75
-88
-85
-75
-68
-62
-56
-34
-27
-45
-75
-87
-84
-90
-64
-50
-21
-31
-43
-57
-55
-101
-115
-67
-68
-62
-62
-82
-83
-79
-71
-86
-86
-91
-65
-54
-49
-70
-75
-80
-68
-87
-94
-94
-74
-70
-30
-47
-72
-53
-43
-76
-88
-83
-71
-71
-43
-32
-46
-53
-81
-114
-114
-102
-82
-70
-42
-56
-71
-96
-78
-115
-113
-110
-83
-89
-48
-57
-66
-62
-72
-87
-102
-93
-72
-61
-46
-56
-60
-90
-89
-113
-117
-105
-105
-54
-51
-39
-57
-81
-92
-119
-117
-120
-91
-93
-63
-62
-67
-70
-110
-103
-87
-93
-76
-67
-41
-63
-82
-98
-105
-117
-97
-78
-61
-43
-55
-52
-69
-91
-103
-112
-120
-117
-86
-49
-59
-61
-60
-74
-90
-88
-96
-95
-83
-60
-54
-66
-80
-93
-103
-98
-96
-89
-77
-67
-78
-71
-61
-90
-109
-110
-104
-104
-86
-53
-57
-65
-64
-88
-103
-129
-110
-94
-79
-48
-55
-64
-88
-85
-97
-110
-111
-100
-68
-42
-52
-80
-93
-88
-116
-114
-117
-101
-81
-58
-49
-59
-80
-82
-112
-95
-84
-72
-54
-41
-62
-79
-72
-69
-94
-99
-96
-85
-79
-49
-33
-51
-83
-73
-96
-87
-74
-63
-57
-34
-50
-75
-92
-96
-79
-74
-58
-59
-62
-45
-52
-71
-68
-93
-92
-98
-87
-76
-65
-36
-53
-84
-101
-110
-101
-103
-95
-77
-74
-54
-59
-73
-92
-93
-114
-109
-87
-82
-88
-53
-55
-70
-77
-89
-93
-99
-83
-63
-56
-56
-60
-62
-78
-114
-106
-79
-64
-58
-29
-2
9
11
30
-5
-3
24
27
-6
17
24
-4
-26
-42
-52
-48
-42
-53
-41
-35
-46
-71
-78
-81
-101
-98
-104
-52
-52
-26
-21
-51
-59
-70
-90
-97
-91
-81
-93
-45
-45
-67
-90
-95
-74
-69
-87
-70
-75
-65
-81
-90
-113
-97
-85
-88
-68
-57
-56
-55
-50
-60
-54
-66
-96
-96
-90
-79
-80
-54
-30
-40
-50
-71
-105
-92
-77
-59
-50
-45
-42
-39
-75
-90
-103
-94
-56
-55
-35
-29
-40
-47
-65
-81
-93
-71
-73
-69
-67
-48
-33
-43
-66
-77
-85
-89
-59
-61
-48
-35
-19
-37
-40
-54
-88
-114
-32
-21
-13
-20
-18
-40
-43
-48
-62
-58
-48
-35
-13
11
-9
-15
-24
-23
-27
-35
-22
-18
-13
-4
-8
11
-6
-31
-52
-40
-70
-49
-48
-66
-39
-52
-67
-90
-101
-99
-75
-60
-52
-73
-102
-80
-99
-109
-113
-117
-125
-121
-120
-82
-101
-79
-112
-140
-141
-135
-123
-129
-117
-123
-128
-146
-153
-176
-135
-132
-146
-136
-121
-134
-142
-159
-154
-158
-160
-145
-138
-119
-116
-123
-137
-146
-156
-173
-152
-140
-131
-125
-114
-124
-137
-153
-177
-218
-221
-174
-156
-137
-123
-120
-132
-153
-178
-186
-174
-160
-155
-153
-127
-129
-142
-164
-154
-163
-177
-167
-157
-134
-126
-130
-143
-170
-199
-178
-188
-164
-126
-130
-126
-121
-127
-154
-172
-175
-174
-173
-155
-139
-135
-137
-135
-155
-186
-178
-161
-147
-140
-139
-130
-140
-143
-162
-193
-209
-202
-172
-154
-149
-149
-162
-150
-182
-174
-177
-166
-159
-146
-137
-135
-133
-131
-153
-172
-164
-169
-152
-147
-135
-126
-139
-150
-167
-174
-189
-147
-146
-166
-126
-128
-133
-144
-159
-178
-186
-193
-174
-169
-145
-127
-142
-136
-134
-187
-197
-197
-178
-162
-128
-121
-135
-153
-168
-190
-195
-200
-150
-139
-125
-141
-149
-151
-156
-183
-188
-176
-156
-142
-136
-141
-143
-152
-169
-189
-185
-170
-176
-154
-135
-119
-138
-157
-165
-173
-186
-187
-153
-168
-148
-118
-123
-144
-153
-171
-167
-169
-153
-138
-132
-137
-125
-151
-159
-173
-173
-172
-161
-153
-127
-124
-129
-139
-159
-185
-180
-152
-132
-119
-126
-146
-148
-154
-175
-161
-159
-169
-158
-139
-122
-128
-142
-158
-155
-177
-171
-156
-128
-149
-137
-138
-130
-159
-175
-201
-197
-179
-165
-134
-140
-147
-153
-152
-193
-205
-200
-185
-162
-103
-117
-132
-153
-169
-176
-178
-181
-162
-161
-140
-140
-124
-145
-149
-173
-175
-173
-163
-141
-140
-139
-142
-134
-145
-160
-175
-155
-118
-101
-66
-63
-58
-38
-45
-97
-93
-92
-87
-108
-78
-88
-104
-114
-121
-156
-150
-141
-140
-149
-156
-158
-169
-171
-156
-165
-172
-170
-147
-132
-123
-124
-130
-149
-163
-184
-161
-152
-136
-135
-125
-148
-147
-166
-170
-194
-179
-179
-168
-131
-98
-125
-133
-143
-168
-188
-166
-153
-143
-149
-119
-131
-140
-146
-146
-171
-179
-173
-158
-141
-111
-116
-117
-141
-161
-169
-168
-148
-141
-129
-120
-129
-147
-170
-189
-182
-170
-142
-126
-118
-104
-104
-134
-150
-170
-166
-165
-159
-144
-109
-109
-123
-116
-116
-148
-151
-142
-140
-128
-118
-115
-118
-126
-142
-161
-155
-164
-132
-109
-113
-105
-101
-96
-118
-146
-143
-140
-110
-94
-75
-77
-82
-102
-101
-121
-130
-113
-85
-72
-64
-62
-71
-93
-129
-150
-148
-103
-86
-93
-70
-75
-84
-99
-99
-119
-127
-133
-132
-113
-89
-96
-106
-126
-141
-158
-153
-136
-121
-116
-99
-112
-131
-131
-159
-172
-171
-168
-163
-126
-123
-129
-148
-146
-153
-169
-172
-172
-174
-134
-127
-129
-155
-153
-174
-188
-175
-159
-135
-136
-112
-117
-137
-146
-151
-162
-172
-191
-189
-156
-105
-97
-136
-148
-164
-166
-170
-160
-127
-137
-144
-139
-149
-164
-160
-177
-186
-166
-142
-143
-135
-127
-138
-143
-167
-168
-168
-157
-146
-142
-135
-121
-139
-166
-200
-154
-173
-174
-152
-117
-113
-121
-141
-161
-155
-148
-157
-149
-144
-129
-130
-140
-146
-155
-171
-158
-146
-150
-141
-100
-104
-114
-136
-150
-169
-167
-168
-147
-155
-134
-114
-129
-145
-132
-158
-158
-173
-142
-148
-127
-128
-119
-141
-146
-165
-170
-160
-148
-143
-116
-126
-133
-139
-125
-145
-154
-162
-137
-153
-121
-157
-143
-128
-143
-168
-155
-144
-137
-109
-103
-104
-123
-134
-145
-175
-164
-136
-142
-140
-123
-124
-123
-128
-144
-149
-134
-149
-135
-123
-112
-124
-132
-155
-136
-155
-156
-141
-136
-124
-95
-116
-111
-137
-173
-175
-158
-138
-112
-108
-103
-122
-144
-131
-148
-155
-145
-124
-121
-122
-114
-131
-140
-135
-160
-170
-158
-154
-125
-99
-104
-138
-127
-126
-147
-152
-148
-120
-115
-113
-95
-109
-115
-124
-142
-147
-140
-122
-117
-88
-89
-110
-112
-121
-156
-154
-139
-127
-114
-119
-107
-108
-130
-128
-125
-135
-126
-123
-117
-106
-108
-122
-141
-143
-148
-134
-133
-128
-120
-103
-102
-113
-143
-141
-169
-153
-154
-138
-144
-130
-123
-127
-123
-128
-132
-158
-135
-128
-129
-113
-120
-134
-130
-150
-175
-174
-138
-125
-120
-118
-117
-124
-133
-154
-174
-163
-157
-149
-142
-139
-96
-111
-135
-146
-192
-165
-142
-107
-95
-75
-58
-53
-70
-66
-54
-56
-44
-33
-36
-34
-43
-74
-104
-101
-123
-109
-108
-95
-99
-105
-135
-157
-158
-170
-156
-155
-131
-115
-97
-104
-117
-133
-147
-155
-166
-155
-136
-142
-101
-113
-155
-169
-145
-147
-152
-138
-131
-135
-126
-128
-124
-128
-142
-161
-150
-161
-144
-115
-113
-115
-136
-128
-133
-149
-160
-144
-153
-144
-123
-131
-144
-158
-146
-170
-166
-150
-125
-109
-91
-117
-127
-129
-142
-158
-158
-139
-140
-126
-95
-91
-126
-140
-146
-139
-139
-145
-138
-123
-109
-100
-109
-117
-147
-173
-154
-159
-129
-114
-111
-102
-106
-135
-136
-157
-135
-112
-101
-103
-77
-86
-99
-99
-121
-134
-138
-102
-82
-105
-79
-82
-93
-117
-116
-121
-113
-106
-84
-85
-79
-63
-69
-93
-107
-116
-103
-86
-85
-88
-73
-58
-85
-110
-130
-129
-98
-99
-103
-93
-94
-102
-118
-132
-155
-159
-133
-122
-114
-116
-113
-124
-125
-133
-179
-190
-160
-109
-108
-102
-99
-113
-139
-173
-181
-173
-168
-149
-140
-132
-123
-122
-133
-141
-171
-180
-158
-148
-149
-135
-130
-145
-151
-159
-170
-152
-150
-144
-124
-101
-128
-157
-168
-165
-185
-172
-151
-143
-136
-134
-142
-158
-177
-176
-176
-172
-161
-163
-165
-131
-112
-130
-148
-139
-156
-156
-153
-148
-128
-139
-130
-130
-159
-162
-162
-159
-148
-143
-149
-136
-150
-162
-200
-152
-177
-171
-170
-151
-138
-131
-152
-148
-148
-140
-170
-162
-148
-139
-152
-126
-129
-131
-156
-173
-185
-133
-146
-158
-147
-119
-112
-119
-135
-153
-164
-171
-165
-145
-128
-123
-135
-149
-168
-171
-180
-176
-170
-148
-138
-132
-148
-163
-171
-142
-177
-168
-167
-125
-99
-112
-120
-137
-158
-182
-168
-170
-158
-132
-118
-115
-129
-152
-161
-178
-173
-166
-142
-130
-122
-128
-143
-148
-149
-164
-168
-177
-176
-152
-128
-126
-130
-159
-171
-157
-166
-160
-148
-154
-123
-125
-126
-139
-156
-176
-185
-179
-153
-125
-117
-116
-122
-140
-166
-181
-174
-154
-162
-133
-107
-121
-154
-175
-168
-169
-156
-153
-145
-139
-112
-122
-146
-171
-161
-163
-161
-156
-150
-122
-118
-143
-137
-129
-132
-141
-160
-151
-127
-99
-86
-113
-112
-107
-155
-174
-149
-135
-119
-133
-131
-112
-135
-146
-163
-172
-163
-144
-128
-128
-124
-127
-139
-155
-179
-150
-139
-143
-126
-108
-110
-117
-137
-147
-155
-172
-167
-143
-142
-135
-140
-142
-128
-133
-137
-150
-144
-140
-128
-101
-103
-126
-151
-156
-176
-179
-161
-132
-142
-132
-126
-131
-153
-135
-145
-148
-146
-122
-98
-95
-93
-67
-76
-75
-66
-38
-25
-18
-21
-7
-19
-65
-66
-68
-108
-119
-123
-110
-101
-91
-83
-102
-127
-137
-155
-146
-143
-117
-109
-127
-124
-111
-124
-133
-148
-155
-143
-131
-124
-116
-116
-125
-144
-147
-159
-148
-125
-101
-96
-99
-99
-137
-157
-164
-167
-129
-152
-130
-124
-121
-113
-123
-138
-148
-168
-155
-143
-123
-133
-119
-92
-97
-128
-143
-152
-135
-122
-111
-99
-93
-78
-80
-112
-119
-148
-139
-139
-114
-102
-96
-108
-116
-144
-151
-193
-157
-119
-97
-88
-95
-100
-98
-117
-135
-133
-120
-123
-105
-113
-92
-110
-102
-99
-120
-122
-115
-81
-82
-84
-88
-83
-123
-83
-110
-123
-115
-98
-89
-72
-60
-65
-72
-88
-116
-92
-89
-58
-64
-53
-57
-56
-43
-73
-77
-59
-48
-34
-63
-52
-68
-80
-95
-111
-119
-90
-89
-60
-47
-56
-80
-88
-98
-113
-129
-118
-133
-106
-104
-83
-97
-124
-140
-129
-162
-179
-123
-112
-110
-104
-101
-95
-118
-117
-131
-144
-137
-143
-131
-104
-119
-129
-155
-167
-174
-147
-156
-150
-133
-125
-129
-149
-149
-168
-191
-185
-163
-154
-131
-130
-124
-136
-143
-152
-176
-182
-159
-127
-106
-102
-110
-145
-149
-161
-185
-185
-149
-151
-154
-134
-125
-144
-163
-167
-182
-190
-185
-176
-164
-128
-106
-141
-146
-156
-175
-166
-159
-159
-161
-161
-132
-145
-147
-170
-178
-169
-152
-141
-123
-128
-139
-146
-173
-173
-166
-168
-157
-147
-123
-130
-134
-171
-189
-198
-167
-162
-173
-167
-124
-127
-136
-138
-141
-185
-171
-166
-156
-152
-143
-143
-134
-163
-176
-181
-182
-160
-144
-143
-126
-150
-156
-174
-152
-182
-172
-157
-131
-140
-108
-113
-133
-159
-167
-179
-166
-159
-143
-135
-119
-116
-127
-143
-149
-157
-125
-129
-128
-133
-121
-127
-140
-146
-139
-166
-181
-185
-166
-148
-133
-131
-136
-156
-167
-166
-165
-171
-164
-144
-140
-130
-142
-176
-176
-173
-178
-162
-165
-161
-149
-155
-161
-168
-167
-194
-205
-179
-141
-150
-129
-144
-158
-166
-165
-192
-189
-149
-152
-146
-134
-146
-159
-161
-175
-175
-184
-188
-168
-150
-135
-137
-150
-175
-176
-161
-154
-136
-111
-90
-62
-44
-32
-33
-41
-27
-38
-51
-24
-20
-37
-67
-81
-103
-124
-140
-164
-146
-169
-178
-160
-172
-183
-180
-208
-190
-156
-157
-142
-113
-108
-129
-149
-158
-170
-165
-160
-164
-150
-130
-134
-171
-145
-139
-180
-170
-160
-121
-124
-121
-133
-149
-172
-167
-178
-183
-175
-161
-149
-141
-143
-148
-151
-136
-147
-157
-139
-135
-160
-115
-107
-114
-120
-140
-159
-155
-132
-129
-131
-124
-158
-118
-123
-119
-146
-142
-126
-116
-124
-100
-93
-130
-139
-143
-152
-139
-132
-112
-111
-108
-100
-107
-134
-120
-146
-154
-140
-101
-95
-77
-94
-94
-76
-86
-83
-93
-89
-68
-71
-83
-68
-87
-91
-83
-102
-102
-82
-65
-61
-54
-60
-65
-66
-98
-111
-104
-87
-76
-77
-76
-72
-70
-82
-85
-85
-97
-77
-83
-44
-46
-76
-79
-106
-93
-88
-99
-99
-93
-77
-75
-87
-110
-109
-141
-127
-114
-105
-96
-84
-98
-109
-134
-142
-190
-187
-115
-115
-131
-113
-114
-88
-113
-113
-142
-126
-147
-167
-99
-99
-98
-92
-117
-138
-144
-148
-125
-121
-102
-76
-93
-109
-132
-149
-157
-132
-138
-100
-95
-89
-96
-99
-107
-127
-145
-140
-139
-139
-135
-117
-90
-102
-125
-124
-146
-129
-122
-121
-115
-125
-138
-111
-105
-100
-127
-130
-127
-122
-102
-95
-113
-107
-132
-148
-149
-134
-135
-108
-98
-88
-100
-124
-128
-137
-172
-164
-154
-110
-96
-108
-113
-113
-132
-142
-136
-116
-122
-114
-127
-80
-92
-76
-100
-101
-120
-130
-119
-88
-75
-78
-80
-98
-105
-122
-120
-110
-126
-105
-110
-109
-97
-92
-106
-123
-152
-150
-142
-126
-135
-95
-101
-113
-117
-134
-126
-130
-123
-123
-130
-114
-147
-121
-147
-165
-141
-115
-101
-104
-87
-89
-118
-127
-122
-148
-140
-121
-127
-113
-80
-90
-108
-117
-134
-151
-148
-132
-128
-117
-86
-88
-116
-127
-125
-134
-136
-148
-122
-103
-67
-80
-91
-58
-70
-73
-42
-10
16
41
55
31
-5
-25
-32
-72
-68
-83
-72
-60
-85
-100
-124
-142
-153
-166
-157
-126
-111
-109
-95
-104
-111
-118
-98
-115
-139
-123
-109
-113
-88
-78
-93
-109
-131
-158
-150
-148
-124
-105
-94
-106
-46
-90
-112
-123
-125
-105
-88
-79
-75
-86
-97
-120
-131
-134
-124
-106
-95
-93
-84
-68
-96
-124
-130
-115
-110
-108
-92
-83
-96
-109
-114
-125
-118
-108
-85
-76
-71
-80
-88
-72
-77
-97
-110
-115
-107
-86
-80
-72
-76
-77
-91
-100
-111
-112
-99
-86
-67
-56
-70
-91
-107
-129
-136
-66
-72
-42
-63
-49
-48
-45
-76
-82
-85
-92
-75
-77
-39
-12
-15
-33
-46
-45
-62
-67
-53
-50
-38
-12
-26
-36
-56
-62
-76
-59
-69
-59
-41
-38
-35
-35
-39
-39
-81
-81
-73
-75
-45
-27
-41
-56
-71
-65
-95
-86
-77
-71
-76
-69
-73
-105
-89
-98
-112
-102
-101
-80
-70
-74
-76
-94
-102
-114
-138
-145
-121
-79
-81
-63
-65
-96
-112
-118
-129
-120
-109
-105
-87
-69
-78
-104
-120
-140
-143
-141
-131
-102
-93
-86
-88
-101
-113
-109
-120
-99
-94
-90
-70
-80
-85
-97
-93
-99
-112
-113
-115
-81
-90
-81
-87
-100
-118
-114
-116
-122
-93
-86
-75
-85
-85
-102
-121
-133
-88
-83
-99
-95
-77
-65
-74
-82
-80
-102
-96
-96
-85
-88
-74
-74
-55
-73
-81
-95
-92
-81
-80
-71
-76
-78
-92
-118
-100
-89
-117
-117
-111
-95
-62
-49
-80
-100
-112
-127
-126
-125
-121
-125
-89
-113
-70
-101
-110
-114
-118
-110
-95
-92
-97
-105
-109
-98
-110
-120
-113
-111
-119
-111
-92
-89
-98
-114
-120
-138
-129
-114
-89
-98
-88
-100
-102
-123
-116
-114
-104
-102
-105
-105
-86
-105
-90
-101
-126
-129
-119
-118
-88
-58
-63
-68
-64
-46
-30
-32
-15
4
33
50
36
24
-11
-31
-63
-62
-51
-35
-34
-47
-55
-72
-105
-104
-103
-123
-119
-111
-110
-112
-109
-91
-98
-99
-116
-137
-124
-116
-104
-125
-108
-88
-84
-92
-122
-96
-89
-99
-103
-100
-108
-76
-112
-115
-127
-118
-106
-101
-114
-88
-90
-107
-134
-138
-128
-119
-113
-85
-95
-95
-59
-83
-97
-111
-136
-122
-111
-113
-103
-65
-71
-86
-101
-111
-119
-120
-111
-105
-91
-69
-80
-86
-108
-141
-123
-100
-99
-94
-102
-72
-69
-83
-96
-93
-102
-85
-93
-91
-98
-70
-57
-82
-91
-115
-128
-126
-107
-97
-43
-44
-61
-72
-87
-87
-81
-70
-77
-58
-48
-44
-49
-55
-64
-75
-83
-65
-59
-60
-48
-39
-43
-63
-73
-68
-91
-56
-60
-52
-52
-34
-40
-54
-64
-80
-95
-90
-80
-54
-56
-47
-55
-80
-90
-111
-128
-119
-86
-83
-70
-67
-63
-75
-97
-117
-139
-119
-119
-103
-98
-79
-72
-93
-93
-111
-115
-114
-110
-123
-102
-89
-103
-106
-99
-125
-116
-111
-101
-103
-80
-92
-96
-103
-113
-138
-139
-117
-104
-81
-56
-76
-103
-104
-115
-125
-126
-114
-84
-95
-96
-90
-88
-123
-120
-117
-97
-81
-98
-98
-88
-96
-101
-97
-110
-121
-100
-106
-99
-76
-64
-50
-77
-86
-83
-112
-110
-107
-102
-104
-69
-70
-90
-95
-94
-129
-128
-109
-89
-97
-73
-94
-108
-109
-106
-136
-125
-115
-86
-109
-107
-104
-91
-102
-121
-140
-120
-106
-98
-88
-80
-87
-99
-116
-116
-125
-125
-120
-97
-80
-69
-75
-99
-121
-139
-139
-137
-136
-110
-116
-118
-137
-107
-119
-122
-117
-102
-86
-76
-76
-82
-89
-109
-101
-112
-109
-97
-89
-71
-55
-56
-59
-53
-60
-58
-38
-16
18
29
38
31
8
-35
-53
-78
-95
-87
-52
-68
-61
-94
-101
-83
-102
-131
-123
-111
-100
-113
-80
-77
-65
-77
-99
-115
-107
-102
-95
-84
-69
-84
-85
-110
-117
-113
-92
-83
-72
-76
-58
-78
-85
-105
-88
-110
-115
-121
-125
-113
-52
-61
-77
-90
-95
-103
-123
-114
-118
-111
-90
-94
-70
-89
-89
-108
-100
-86
-87
-89
-71
-67
-91
-101
-110
-100
-111
-109
-73
-74
-46
-48
-71
-85
-106
-114
-104
-78
-74
-80
-74
-72
-86
-78
-85
-101
-100
-90
-85
-78
-66
-48
-53
-64
-80
-80
-85
-80
-43
-41
-28
-47
-60
-90
-45
-59
-65
-48
-30
-7
-23
-42
-56
-70
-63
-73
-82
-26
-22
-18
-20
-26
-27
-36
-70
-74
-62
-25
-29
-31
-21
-18
-43
-56
-74
-89
-59
-64
-44
-28
-23
-39
-57
-69
-91
-94
-67
-63
-66
-47
-50
-49
-70
-95
-122
-107
-101
-84
-64
-35
-48
-63
-78
-70
-85
-105
-83
-90
-79
-64
-66
-78
-75
-72
-90
-91
-76
-64
-50
-61
-79
-83
-72
-87
-115
-108
-94
-73
-81
-59
-57
-63
-86
-92
-111
-103
-81
-67
-70
-35
-63
-78
-76
-59
-69
-74
-79
-58
-53
-31
-23
-56
-80
-50
-82
-81
-76
-55
-50
-49
-54
-64
-88
-79
-85
-93
-85
-68
-66
-62
-48
-71
-93
-101
-101
-98
-105
-83
-82
-50
-29
-49
-81
-115
-90
-88
-103
-71
-56
-43
-63
-71
-80
-97
-100
-89
-76
-79
-78
-72
-71
-64
-86
-95
-104
-107
-93
-91
-58
-47
-74
-79
-95
-108
-108
-90
-87
-76
-61
-63
-78
-97
-82
-92
-80
-74
-66
-45
-24
-27
-23
-33
-36
-28
-2
4
29
59
70
46
23
-3
-3
-24
-33
-24
-17
12
-20
-43
-41
-59
-88
-84
-87
-75
-52
-39
-22
-45
-61
-85
-75
-98
-79
-83
-72
-52
-56
-68
-62
-80
-82
-74
-79
-75
-80
-87
-53
-45
-52
-80
-76
-93
-96
-91
-73
-62
-25
-22
-43
-47
-64
-89
-78
-50
-53
-75
-15
-29
-47
-50
-67
-71
-73
-68
-62
-62
-49
-47
-54
-82
-93
-97
-67
-50
-49
-42
-41
-53
-54
-71
-103
-88
-74
-42
-47
-56
-37
-39
-52
-64
-73
-74
-55
-38
-26
-15
-19
-30
-30
-38
-43
-40
-55
-47
-47
-25
-10
-26
-31
-39
-38
-49
-34
-24
-10
-3
1
-8
-39
-19
-38
-59
-48
-25
-18
0
-1
3
-12
-2
-17
-27
-10
-8
-15
0
2
-18
-19
-27
-38
-45
-24
-30
-25
-21
-18
-10
-36
-43
-59
-64
-58
-43
-42
-14
-12
-33
-40
-56
-94
-104
-62
-73
-55
-18
-14
-26
-49
-55
-74
-58
-64
-41
-28
-18
-31
-67
-81
-62
-85
-71
-66
-54
-56
-31
-43
-60
-58
-62
-85
-95
-76
-64
-32
-14
-23
-16
-38
-52
-68
-66
-60
-46
-50
-25
-34
-31
-49
-57
-69
-65
-67
-54
-40
-32
-15
-47
-24
-49
-56
-67
-57
-40
-25
-37
-52
-69
-86
-75
-41
-54
-53
-34
-31
-31
-37
-44
-54
-75
-90
-89
-80
-66
-78
-69
-48
-60
-74
-74
-71
-76
-76
-58
-51
-58
-75
-76
-66
-70
-69
-74
-77
-32
-32
-44
-32
-48
-79
-94
-91
-84
-95
-49
-44
-40
-32
-57
-76
-100
-68
-58
-65
-58
-21
-43
-63
-74
-76
-99
-82
-43
-44
-34
2
20
17
21
32
7
30
50
66
49
34
42
43
-2
-21
-36
-34
-29
-15
-15
-27
-61
-62
-72
-70
-63
-56
-58
-52
-35
-32
-44
-57
-68
-73
-87
-97
-76
-37
-47
-42
-49
-54
-62
-64
-70
-65
-60
-46
-57
-43
-26
-46
-65
-67
-84
-77
-75
-68
-43
-14
-52
-59
-62
-77
-79
-74
-59
-37
-25
-19
-38
-64
-58
-61
-66
-64
-56
-48
-42
-34
-29
-34
-61
-69
-71
-56
-65
-65
-47
-45
-38
-40
-64
-89
-56
-50
-45
-47
-13
-42
-30
-16
-33
-67
-66
-58
-49
-47
-13
-19
-17
-18
-56
-53
-46
-42
-29
-11
15
-5
-2
-29
-30
-49
-27
-23
-17
-9
4
17
-1
-20
-29
-35
-38
-16
-18
-11
8
37
13
-10
-6
-21
-37
-39
-8
-47
-11
13
5
-26
-5
-18
-26
-30
-34
-25
-9
-20
-48
-51
-52
-63
-45
-28
-35
-43
-3
-13
-26
-58
-89
-76
-49
-56
-37
-58
-57
-26
-25
-57
-64
-70
-67
-59
-51
-47
-41
-45
-54
-56
-61
-76
-80
-44
-23
-19
-27
-35
-43
-64
-55
-68
-65
-50
-45
-35
-18
-23
-46
-64
-86
-88
-83
-19
-16
-9
-11
-10
-35
-56
-54
-57
-37
-36
-26
-12
-29
-29
-35
-45
-54
-52
-43
-44
-33
-27
-33
-31
-55
-59
-68
-68
-55
-32
-45
-27
-36
-38
-69
-59
-63
-60
-64
-49
-43
-48
-25
-36
-50
-55
-84
-93
-74
-54
-51
-26
-40
-53
-60
-64
-76
-81
-60
-47
-36
-25
-10
-40
-59
-67
-81
-69
-81
-64
-55
-43
-39
-45
-56
-68
-86
-91
-65
-28
-21
-29
-51
-30
-43
-49
-52
-27
4
33
44
71
87
90
65
57
34
22
19
18
9
22
24
22
-16
-27
-46
-77
-78
-71
-63
-43
-32
-44
-63
-70
-76
-72
-78
-42
-42
-35
-36
-37
-46
-41
-64
-58
-47
-40
-39
-31
-35
-64
-46
-63
-73
-66
-63
-36
-30
-34
-38
-50
-70
-85
-66
-74
-70
-49
-18
-23
-35
-36
-62
-62
-65
-66
-69
-59
-51
-8
-20
-39
-51
-59
-54
-60
-59
-50
-33
-5
-13
-29
-28
-48
-55
-57
-50
-44
-28
1
-22
-43
-36
-60
-30
-41
-43
-45
-18
-15
-14
-27
-25
-59
-56
-24
-5
-9
-16
-5
-7
-14
-15
-50
-31
3
2
-5
-2
-2
18
-20
-26
-37
-3
-13
-16
12
23
0
18
0
4
-20
-24
-20
11
18
14
7
10
4
-17
-39
-44
-22
-6
-6
1
-15
-22
-19
-9
-39
-49
-63
-17
-8
-3
6
-20
-57
-66
-75
-61
-40
-45
-22
-13
-15
-24
-53
-65
-79
-60
-38
-27
-33
-8
-42
-51
-35
-69
-74
-51
-60
-42
-33
-13
-22
-43
-51
-78
-62
-60
-57
-32
-20
-24
-35
-45
-55
-72
-72
-70
-42
-32
-30
-49
-16
-21
-55
-81
-75
-47
-36
-52
-40
-21
-15
-19
-33
-45
-56
-58
-54
-51
-14
-3
-12
-35
-23
-47
-51
-65
-52
-31
-14
-21
-26
-30
-31
-48
-35
-39
-41
-49
-22
-6
-18
-45
-49
-64
-55
-68
-61
-66
-22
-24
-28
-67
-83
-82
-78
-68
-41
-18
-15
-34
-51
-52
-45
-61
-57
-62
-58
-44
-21
-11
-37
-56
-60
-75
-63
-49
-44
-25
-23
-38
-31
-56
-46
-70
-86
-53
-40
-25
-23
-30
-55
-57
-75
-105
-72
-27
12
14
23
19
37
53
68
64
51
53
63
61
54
43
21
1
8
13
4
-10
-14
-14
-27
-43
-49
-30
-47
-46
-66
-65
-30
-21
-25
-34
-53
-60
-71
-71
-76
-69
-27
-7
-6
-4
-26
-49
-81
-84
-78
-56
-39
0
-8
-21
-38
-45
-61
-57
-50
-57
-47
-30
-27
-34
-23
-42
-46
-57
-51
-39
-39
-23
-35
-81
-48
-43
-56
-57
-44
-37
-63
-24
-22
-17
-31
-51
-71
-64
-22
-17
-37
-5
6
-6
-18
-26
-48
-41
-37
-22
-12
-2
-5
-15
-16
-32
-64
-50
-32
-15
-21
3
5
0
-22
-31
-54
-49
-48
-9
-1
-6
0
0
-12
-3
-12
-5
22
11
17
43
30
9
-1
-20
-41
-33
-1
20
20
26
30
14
-6
-7
-10
-12
-8
-5
-10
21
5
-27
-33
-26
-15
-39
-22
6
11
5
-2
-25
-56
-76
-56
-40
-27
-21
-14
4
-2
-17
-39
-53
-62
-63
-57
-41
2
-10
-17
-10
-32
-65
-51
-54
-40
-31
-18
-20
-22
-41
-49
-71
-88
-62
-48
-45
-14
-19
-31
-32
-39
-72
-81
-57
-68
-54
-25
-3
-18
-37
-42
-75
-50
-33
-33
-35
-26
-17
-22
-39
-39
-54
-62
-56
-41
-33
-14
-31
-30
-35
-26
-61
-76
-62
-49
-50
-45
-32
-33
-62
-89
-50
-61
-47
-20
-35
-25
-9
-12
-43
-71
-84
-75
-38
-38
-21
-10
-21
-24
-35
-35
-51
-55
-41
-30
-16
-21
-30
-44
-37
-55
-63
-45
-32
-14
-19
-2
8
-17
-37
-61
-42
-32
-25
-10
-20
-22
-38
-25
-24
-31
-44
-36
-26
-19
-22
-57
-57
-42
-38
-36
-39
-49
-43
-37
-28
-16
-23
-32
-43
-54
-54
-69
-52
-32
-23
-17
-27
-22
-30
-52
-66
-53
-48
-42
-31
-24
-20
-32
-34
-48
-61
-79
-61
-37
-23
-27
-30
-37
-35
-61
-66
-42
-42
-28
-7
14
14
1
3
11
43
62
83
79
103
100
63
37
4
-24
-13
0
23
21
40
22
-4
-19
-34
-51
-44
-41
-36
-41
-1
1
-20
-26
-27
-56
-55
-54
-38
-42
-16
8
-8
-42
-41
-55
-56
-43
-48
-32
-3
-2
-26
-55
-45
-66
-50
-50
-31
-21
-15
-11
-42
-36
-30
-44
-54
-57
-40
-21
3
6
2
-10
-23
-32
-33
-31
-15
-17
-10
-5
-27
-48
-44
-43
-46
-43
-24
-33
-16
2
20
-4
-34
-37
-52
-51
-13
6
17
12
-3
-23
-44
-33
-61
-52
-33
-1
11
-14
-20
-14
-9
-26
-22
-14
-7
18
27
32
1
13
3
-2
3
17
16
33
23
25
21
12
-3
-1
-1
7
9
30
31
28
39
-2
-27
-2
32
23
28
45
50
28
16
7
-13
-22
3
3
12
12
18
11
2
-11
-31
-24
-21
-2
21
20
6
-4
-24
-37
-52
-57
-43
-30
-35
-1
-14
-3
-8
-49
-68
-49
-21
-17
-23
-6
0
8
-4
-23
-47
-44
-30
-7
-4
3
-12
-8
-16
-43
-67
-65
-58
5
1
11
-4
-22
-47
-57
-61
-55
-31
-13
-12
9
4
-41
-25
-38
-38
-26
-18
-11
-12
5
-2
-29
-39
-46
-77
-69
-50
-26
3
-20
-13
-36
-39
-35
-35
-46
-32
-18
-15
13
4
-17
-38
-49
-53
-44
-30
-28
-8
-12
-10
-8
-21
-44
-53
-49
-18
-5
-5
-13
-13
-42
-15
-39
-46
-37
-29
-22
-13
20
7
-35
-39
-54
-52
-44
-25
-23
-14
-1
-28
-25
-31
-36
-24
-28
-18
-3
20
-5
-10
-20
-34
-39
-53
-37
-49
-41
-16
-8
-14
-15
-18
-22
-43
-16
-9
-8
26
33
2
-21
-12
-37
-37
-26
-28
-34
-7
-7
-10
-7
5
-23
-20
-41
-26
-26
-13
-8
-4
-40
-39
-48
-51
-47
-28
-9
-14
-25
-22
-30
-29
-36
-43
-40
-17
-9
-4
-21
-17
-49
-62
-57
-28
-36
-22
-10
12
-8
-32
-37
-56
-63
-46
-40
-13
-7
-8
-7
-21
-50
-72
-44
-18
-10
1
0
39
74
74
80
73
55
66
81
77
93
77
77
31
25
9
34
38
29
19
21
-7
-21
-46
-38
-49
-34
-30
-31
-5
12
-4
-31
-56
-53
-37
-51
-44
-32
-27
-3
-17
-41
-30
-32
-33
-19
-40
-36
-27
-8
-6
-7
-8
-25
-53
-49
-31
-25
-28
-9
-3
-9
-29
-45
-65
-64
-57
-27
8
9
3
-4
-13
-42
-57
-49
-40
-33
-40
6
7
-22
-24
-40
-60
-63
-49
-30
-6
9
17
12
-19
-33
-41
-41
-34
-24
5
-3
-6
-8
-12
-6
-32
-30
-31
-24
-9
11
-13
-14
-2
-10
-31
-32
-9
8
3
2
13
19
27
-11
-29
-14
-9
2
8
31
47
44
18
3
4
-5
-25
12
32
16
6
8
-10
-8
-12
-32
17
24
32
22
21
8
-14
-26
-16
-23
-16
2
15
16
-14
-18
-12
-29
-38
-21
-29
-5
-22
-30
-13
0
-42
-54
-48
-45
-31
-35
-26
-62
-41
-41
-55
-81
-64
-46
-18
-13
-7
1
-27
-30
-38
-80
-69
-56
-39
-30
-8
-11
-26
-33
-46
-71
-65
-57
-39
-41
-2
-3
-20
-49
-54
-69
-60
-50
-53
-35
-33
-48
-31
-32
-60
-68
-73
-70
-41
-29
-24
-38
-62
-107
-60
-22
-21
-31
-32
-32
-26
-35
-35
-47
-47
-62
-58
-65
-46
-33
-32
-17
-47
-36
-50
-81
-80
-84
-46
-22
-25
-25
-30
-48
-64
-78
-61
-29
-25
-3
-8
0
-27
-46
-64
-58
-45
-39
-23
-16
-19
-21
-40
-24
-45
-47
-61
-49
-38
-13
-18
-19
-25
-43
-64
-55
-61
-53
-32
3
-17
-22
-45
-49
-67
-58
-47
-33
-13
-18
3
4
-21
-33
-48
-43
-53
-40
-47
-10
-28
-32
-44
-40
-68
-69
-62
-55
-48
-44
-9
-22
-52
-61
-82
-77
-52
-37
-48
-29
-47
-44
-51
-53
-34
-55
-60
-52
-30
-3
-12
-39
-59
-53
-75
-69
-59
-52
-59
-16
-14
-42
-39
-56
-89
-85
-54
-21
-22
10
21
22
36
38
54
54
69
52
32
40
31
42
25
-1
-21
-7
-14
-32
0
-24
-46
-63
-56
-61
-80
-87
-78
-65
-14
-31
-4
-23
-31
-47
-57
-60
-46
-34
-39
-42
-2
-25
-57
-67
-66
-64
-53
-48
-39
-29
-39
-54
-53
-76
-91
-81
-39
-32
-21
-19
-21
-58
-41
-41
-62
-37
-21
-19
-12
0
0
-9
-42
-76
-73
-66
-81
-42
-4
-18
-43
-38
-26
-60
-80
-84
-82
-32
-19
-14
-22
-14
-36
-57
-46
-47
-42
-27
-10
-5
-17
-29
-32
-40
-18
-2
-3
-10
-21
-10
-29
-35
-63
-44
-46
-23
-17
7
26
23
1
-10
-16
-41
-42
-33
-27
-12
34
19
1
-12
2
-32
-14
-29
1
33
18
32
17
-9
-19
-39
-14
4
-14
6
31
15
4
-12
-25
-32
-53
-66
-30
-11
-9
-17
-35
-48
-52
-51
-43
-30
-27
-16
-13
-22
-41
-49
-74
-78
-57
-45
-29
-26
-30
-26
-31
-59
-50
-49
-63
-87
-89
-77
-77
9
-12
-34
-79
-45
-48
-44
-44
-29
-23
-58
-33
-45
-63
-63
-61
-51
-47
-31
-27
-67
-91
-49
-44
-71
-67
-71
-63
-2
-30
-66
-59
-45
-65
-68
-87
-82
-12
-8
-19
-44
-38
-74
-116
-73
-47
-70
-38
-53
-53
-70
-67
-63
-85
-90
-83
-80
-82
-71
-82
-62
-87
-87
-118
-121
-133
-90
-90
-66
-76
-120
-117
-140
-120
-108
-93
-91
-84
-74
-74
-83
-103
-122
-159
-159
-155
-148
-124
-116
-111
-135
-151
-167
-149
-157
-147
-130
-115
-117
-121
-123
-150
-156
-184
-191
-150
-148
-118
-112
-126
-146
-148
-173
-182
-165
-154
-127
-133
-138
-138
-150
-177
-165
-171
-172
-150
-136
-143
-168
-178
-159
-171
-180
-176
-165
-167
-171
-161
-152
-161
-160
-183
-191
-198
-190
-197
-201
-186
-173
-174
-199
-194
-205
-207
-220
-233
-240
-221
-209
-222
-240
-255
-298
-269
-268
-273
-277
-249
-214
-202
-201
-201
-207
-188
-199
-164
-138
-157
-176
-151
-151
-173
-183
-147
-139
-127
-121
-88
-80
-109
-127
-147
-179
-148
-147
-98
-108
-86
-70
-73
-97
-110
-109
-86
-64
-55
-36
-9
7
19
-13
-14
-28
-49
-48
-40
-40
-18
-16
-26
-58
-84
-120
-136
-129
-104
-83
-58
-48
-84
-104
-103
-123
-89
-76
-60
-56
-60
-46
-63
-87
-72
-96
-104
-86
-80
-73
-62
-69
-95
-114
-131
-105
-69
-78
-67
-52
-53
-48
-70
-91
-101
-111
-115
-75
-46
-54
-78
-68
-66
-94
-98
-84
-80
-64
-62
-36
-38
-42
-59
-72
-82
-104
-122
-63
-44
-36
-52
-48
-53
-61
-67
-60
-68
-69
-76
-36
-23
-57
-93
-55
-59
-67
-64
-48
-32
-9
-26
-40
-67
-79
-74
-57
-59
-73
-50
-3
-3
-14
-18
-34
-61
-31
-40
-25
-41
7
16
-3
-21
-21
-37
-49
-36
-30
-17
11
-10
4
-6
-31
-57
-43
-50
-3
-5
11
9
6
-18
-36
-48
-28
-28
-21
-23
-12
3
-7
-39
-24
-54
-59
-58
-55
-40
-18
-10
-28
-41
-52
-78
-85
-51
-46
-61
-38
-14
-33
-62
-74
-80
-65
-58
-72
-69
-47
12
-10
-44
-72
-87
-76
-52
-42
-25
-19
-26
-85
-86
-56
-78
-69
-54
-30
-37
-30
-52
-52
-70
-78
-91
-78
-71
-50
-44
-54
-57
-26
-47
-72
-69
-64
-36
-30
-37
-44
-53
-83
-66
-53
-76
-70
-63
-44
-7
-3
-27
-54
-62
-75
-71
-79
-65
-32
-28
-37
-53
-74
-40
-69
-73
-63
-42
-48
-27
-36
-71
-108
-42
-59
-51
-61
-59
-43
-29
-16
-34
-53
-61
-73
-77
-59
-43
-18
11
3
-29
-36
-50
-71
-68
-77
-70
-57
-30
-21
-28
-35
-59
-71
-56
-50
-47
-51
-35
-49
-48
-69
-61
-75
-62
-43
-36
-27
-3
-14
-26
-50
-60
-53
-69
-70
-67
-37
-9
-2
-20
-52
-62
-76
-74
-81
-52
-14
9
-10
-39
-44
-50
-54
-70
-70
-53
-42
-23
-13
-36
-44
-62
-60
-64
-52
-35
-36
-33
-37
-52
-65
-90
-59
-36
-30
-26
-27
-24
-14
-34
-49
-80
-68
-59
-35
-26
-22
-16
-24
-48
-65
-83
-54
-50
-38
-30
-17
-37
-34
-44
-40
-70
-50
-56
-32
-47
-12
-12
-21
-49
-50
-76
-55
-62
-53
-42
-17
6
-28
-44
-57
-56
-52
-44
-29
-35
-23
-33
-50
-66
-20
-48
-56
-51
-36
-23
-7
-18
-8
-36
-63
-71
-77
-50
-26
-32
-5
-10
-25
-33
-28
-54
-45
-50
-45
-33
11
0
-37
-47
-34
-40
-45
-28
-24
-35
-29
-39
-16
-29
-49
-67
-37
-46
-36
-22
-6
-12
-14
-50
-55
-72
-68
-38
-30
-35
-29
-23
-29
-29
-57
-60
-45
-35
-30
-28
-38
-42
-58
-40
-75
-65
-45
-28
-31
-31
-27
-43
-34
-57
-60
-44
-41
-31
-7
17
16
14
23
44
46
56
75
65
59
57
50
29
20
0
17
-7
7
18
8
18
13
-22
-30
-47
-72
-56
-21
-52
-29
-17
-22
-6
-16
-39
-64
-59
-74
-80
-64
-26
-16
-22
-26
-33
-48
-37
-51
-44
-20
2
-11
-18
-17
-11
-38
-52
-53
-52
-38
-22
-27
-34
-47
-70
-74
-78
-56
-29
-31
1
16
-11
-39
-41
-45
-57
-44
-48
-39
0
-1
-40
-39
-34
-58
-46
-47
-13
-12
-11
-26
-22
-5
-42
-66
-43
-22
-4
-5
14
11
-10
-32
-31
-22
-45
-32
-12
-9
7
8
0
-42
-58
-56
-41
-10
-28
-29
-20
-1
-11
15
12
0
-2
9
15
25
16
10
8
-11
-33
-43
-41
-1
3
32
39
41
23
6
3
3
2
9
14
45
24
27
8
4
-12
-14
-18
14
4
5
5
-25
-30
-44
-56
-32
-43
-30
-20
-26
6
-18
-42
-47
-25
-30
-37
-26
-29
-34
-5
2
-5
-23
-47
-43
-47
-52
-52
-36
-14
-9
-29
-33
-58
-57
-98
-69
-49
-19
-15
-25
-33
-39
-64
-65
-39
-14
-20
-2
-24
-34
-49
-47
-68
-62
-59
-39
-27
-30
-36
-33
-49
-43
-58
-38
-36
-28
-33
-22
-24
-50
-62
-61
-94
-49
-31
-25
-29
-12
-31
-41
-63
-66
-66
-82
-35
-28
-17
-18
-17
-23
-29
-43
-66
-59
-38
-41
-19
-11
-10
-31
-82
-73
-39
-35
-39
-22
-19
-10
-15
-24
-59
-63
-51
-72
-59
-40
-10
-12
-7
-30
-57
-61
-65
-73
-67
-63
-37
-8
-5
-4
-21
-56
-63
-73
-72
-35
-23
-10
-7
-35
-46
-60
-49
-46
-50
-18
-1
-18
-41
-41
-67
-78
-74
-42
-24
-42
-61
-34
-33
-73
-68
-57
-69
-44
-41
-48
-12
4
-30
-52
-64
-68
-60
-57
-47
-29
-16
-19
-39
-64
-59
-57
-58
-51
-39
-36
-27
-30
-44
-56
-42
-72
-67
-40
-33
-21
-10
-14
-1
-31
-55
-96
-85
-62
-29
-34
-28
-20
-20
-71
-98
-102
-75
-39
-18
-16
-12
-22
-26
-45
-52
-57
-62
-56
-37
-26
10
-10
-28
-42
-53
-67
-68
-67
-41
-40
-10
-37
-21
-30
-65
-46
-36
-40
-5
3
-2
-49
-54
-56
-43
-61
-53
-37
-21
-7
4
-5
-33
-51
-62
-61
-64
-59
-50
-30
-43
-52
-44
-58
-85
-75
-72
-37
-47
-50
15
-28
-56
-38
-53
-66
-76
-42
-34
-23
-21
-21
-46
-77
-89
-63
-32
-48
-45
-25
-20
-33
-45
-36
-81
-53
-53
-24
-2
18
25
23
31
70
71
72
64
53
33
37
23
24
7
-13
-28
-12
-34
-24
-46
-32
-31
-30
-47
-44
-56
-57
-59
-63
-23
-12
-28
-46
-37
-43
-65
-88
-68
-46
-18
-12
-31
-24
-42
-59
-85
-76
-75
-64
-42
-43
-17
-19
-39
-56
-42
-43
-34
-40
-33
-16
-33
-37
-59
-71
-61
-40
-38
-33
-35
7
-13
-29
-40
-57
-53
-51
-40
-17
-15
-15
-13
-38
-46
-68
-71
-70
-55
-63
-12
-8
-38
-44
-19
-11
-27
-27
-37
-37
-23
-17
-20
-52
-41
-54
-35
-44
-42
-20
23
15
3
-25
-48
-63
-27
-3
-10
-4
27
27
9
18
15
-24
-20
-18
-10
3
25
21
16
1
-9
-34
-4
-3
4
0
16
7
15
-11
-32
-55
-51
-25
-1
7
21
21
8
11
21
-14
-24
-17
-8
-16
-16
-28
-11
-13
-28
-47
-53
-49
-3
7
11
-7
-19
-34
-41
-46
-51
-55
-31
-42
-25
-25
-37
-59
-64
-66
-62
-51
-39
-33
-9
-28
-37
-53
-43
-67
-70
-47
-39
-35
-20
-11
-51
-71
-82
-88
-81
-67
-68
-49
-10
-17
-31
-49
-49
-71
-62
-53
-61
-65
-14
-10
-6
-38
-47
-46
-53
-41
-41
-39
-11
-18
-47
-47
-72
-46
-80
-65
-52
-48
-51
-16
-52
-76
-79
-65
-47
-17
-21
-23
-33
-59
-88
-84
-67
-27
-23
-19
-7
9
17
2
-8
-37
-59
-58
-39
-40
-36
-10
-20
-42
-67
-35
-42
-39
-42
-50
-24
-5
-7
-9
-34
-35
-56
-37
-37
-27
-19
-17
-17
-20
-15
-16
-31
-43
-49
-43
-3
43
8
-51
-62
-45
-51
-30
-22
-19
-9
-3
5
-7
-30
-40
-65
-52
-45
-25
-22
-1
-14
10
-19
-23
-40
-32
-27
-11
0
-5
-4
-18
-37
-30
-30
-13
-17
-21
-23
2
6
-23
-41
-67
-50
-41
-19
-8
0
-2
0
-11
-29
-63
-58
-61
-51
-32
-12
-12
-21
-21
-53
-68
-36
-66
-80
-69
-48
-26
8
-5
-19
-21
-35
-37
-18
0
10
-10
-20
-21
-38
-61
-47
-34
-14
2
54
57
76
76
82
74
72
60
60
61
68
54
21
17
26
-2
-15
-20
-19
-18
-29
-29
-31
-51
-36
-46
-37
-33
-24
-13
0
-8
-14
-30
-28
-78
-73
-74
-30
-21
8
-20
-21
-39
-25
-43
-48
-31
-19
-17
1
-10
-2
-10
-55
-69
-73
-77
-34
-11
2
8
6
-16
-45
-55
-43
-38
-19
-24
-14
-5
-16
-37
-44
-56
-51
-37
-27
-34
-15
-12
-27
2
-15
-43
-47
-36
-25
-3
24
12
-37
-12
-33
-57
-46
-39
4
11
6
1
-22
-47
-33
-17
-10
-11
4
5
21
6
3
-6
-22
-30
-22
4
24
20
24
11
0
-2
-5
-6
-30
-21
11
20
55
21
7
9
-6
-8
-14
15
32
29
51
46
47
22
-1
6
3
23
36
50
35
-8
-7
-20
-35
-29
-16
10
-22
19
15
8
-5
-20
-29
-39
-56
-44
-11
7
-4
-28
-18
-39
-71
-65
-52
-43
-12
1
4
-23
-23
-30
-63
-57
-39
-23
-8
1
-4
-20
-25
-60
-94
-71
-46
-28
-31
-10
-16
-23
-47
-71
-54
-41
-37
-22
-31
-14
-19
-33
-44
-45
-46
-65
-45
-40
-53
-30
-21
-22
-51
-60
-93
-64
-46
-20
8
28
0
0
-28
-32
-55
-40
-23
-14
-1
23
39
40
12
5
-10
-6
7
7
25
43
33
4
-16
-36
-22
-8
-9
-9
30
58
39
16
-17
-15
-17
-9
-5
3
12
5
-12
-13
-18
-23
-15
0
-1
8
15
23
16
-2
-1
-16
-16
-16
19
32
27
27
29
22
9
-8
-28
-24
0
-6
19
16
2
6
14
-10
-17
-35
-8
1
16
21
10
-18
-31
-79
-69
-48
-17
-15
-2
-10
6
-1
-2
-37
-58
-37
-19
-7
8
19
8
-21
-13
-30
-42
-41
-18
-6
7
24
-2
-6
-23
-40
-47
-48
-31
-26
2
-1
3
0
3
-9
3
49
65
96
121
125
114
112
87
76
68
40
59
46
76
70
34
-3
-36
-63
-54
-57
-5
23
56
44
14
4
-22
-25
-7
24
17
21
29
30
29
-2
-7
-7
12
17
4
35
16
32
21
16
17
19
28
32
31
43
37
72
41
10
29
8
16
34
53
58
63
45
21
-23
-39
-18
6
18
31
40
36
32
34
31
10
0
4
-8
-18
-21
19
42
26
3
-21
-27
-7
15
7
21
23
13
-8
2
-18
-22
-15
-19
6
25
31
29
20
1
8
-15
-18
-22
22
23
0
8
35
-2
6
16
21
31
29
43
43
34
9
8
-4
11
21
33
36
43
48
35
27
20
-28
-17
-5
19
50
66
37
35
43
18
-9
-3
0
19
24
15
19
-9
-33
-40
-23
-12
8
10
-2
2
2
3
-5
-22
-51
-46
-42
-21
-25
-3
-13
-48
-60
-43
-47
-52
-50
-54
-26
-20
-24
-33
-40
-43
-43
-40
-46
-47
-36
-21
-26
-57
-86
-63
-71
-64
-45
-37
-26
-24
-24
-57
-69
-71
-62
-60
-58
-33
-47
-30
-18
-27
-38
-71
-57
-45
-47
-62
-60
-43
-47
-73
-73
-89
-77
-91
-51
-28
-11
-14
-23
-49
-48
-76
-65
-58
-43
-43
-6
-11
-30
-43
-44
-69
-85
-60
-49
-51
-13
-30
-29
-41
-47
-66
-50
-42
-60
-48
-28
-26
-14
-33
-38
-59
-48
-54
-29
-9
-4
-2
-20
-26
-51
-74
-77
-68
-43
-30
-12
-38
-41
-53
-71
-80
-92
-66
-48
-48
-43
-43
-53
-41
-35
-68
-75
-52
-36
-41
-22
-37
-43
-70
-94
-127
-129
-63
-63
-40
-4
-26
-41
-65
-61
-77
-46
-37
-55
-45
-24
-28
-43
-62
-76
-82
-80
-63
-56
-35
-44
-25
-11
-9
9
12
67
64
95
118
103
84
36
7
-25
-44
-43
-22
6
8
-23
-38
-63
-88
-89
-111
-78
-64
-44
-2
-33
-71
-97
-75
-44
-82
-69
-38
-32
-21
-11
-35
-64
-74
-91
-63
-46
-44
-41
-23
-28
-50
-66
-77
-91
-89
-67
-57
-58
-40
-61
-45
-55
-59
-65
-62
-69
-53
-44
-35
-26
-38
-63
-83
-70
-85
-78
-62
-8
1
-17
-23
-43
-85
-68
-75
-88
-18
-35
-18
-25
-43
-57
-80
-93
-42
-27
-13
-20
-1
-17
-27
-52
-56
-59
-50
-52
-46
-42
-42
-23
-27
-7
-16
-45
-40
-48
-39
-23
11
0
-24
-24
-49
-66
-57
-52
-16
2
-2
-24
-35
-54
-15
-25
-9
-20
15
11
3
26
14
-11
-22
-32
-33
-31
-28
-20
-16
-18
-18
2
-39
-41
-49
-31
-4
-4
-10
-30
-54
-51
-56
-48
-74
-81
-46
-37
-16
-36
-39
-57
-71
-75
-74
-57
-46
-37
-37
-50
-52
-69
-86
-86
-63
-56
-51
-33
-38
-39
-56
-56
-89
-93
-83
-54
-56
-35
-37
-43
-52
-75
-85
-112
-91
-71
-63
-48
-42
-37
-68
-87
-73
-108
-80
-16
-32
-28
-23
-31
-57
-70
-86
-97
-72
-43
-36
-15
-22
-45
-57
-58
-63
-78
-100
-77
-63
-33
-30
-40
-51
-58
-72
-79
-67
-51
-45
-31
-44
-48
-100
-64
-53
-63
-39
-31
-15
-16
-32
-51
-49
-49
-59
-75
-64
-18
-2
-22
-16
-34
-50
-73
-55
-78
-80
-71
-47
-53
-45
-64
-79
-80
-78
-83
-68
-62
-45
-60
-59
-61
-56
-85
-68
-58
-49
-51
-39
-51
-77
-26
-48
-89
-80
-79
-56
-43
-29
-57
-53
-71
-74
-92
-99
-95
-78
-65
-64
-51
-52
-51
-93
-99
-72
-66
-61
-59
-50
-19
-8
-35
-27
-23
25
42
58
65
73
64
24
7
-15
-28
-36
-29
-13
-1
-10
-29
-59
-78
-102
-80
-75
-87
-100
-65
-32
-28
-45
-68
-84
-96
-93
-73
-83
-65
-52
-43
-73
-83
-38
-73
-74
-48
-43
-32
-26
-51
-62
-71
-78
-81
-83
-78
-65
-55
-53
-49
-85
-82
-65
-81
-76
-83
-42
-46
-49
-42
-43
-64
-95
-83
-88
-71
-46
-33
-35
-45
-54
-64
-73
-80
-87
-68
-51
-52
-50
-38
-51
-76
-81
-84
-43
-47
-44
-19
-23
-32
-56
-95
-70
-45
-62
-40
-31
-14
-23
-45
-55
-55
-57
-64
-60
-41
-24
15
-6
-12
-17
-31
-65
-64
-67
-44
-50
5
23
2
-16
-25
-58
-37
-32
-15
2
5
1
-12
-29
-20
-53
-27
-35
-28
-12
2
0
-27
-46
-37
-47
-29
-46
-43
-22
-2
-9
-31
-40
-51
-58
-50
-47
-54
-37
-23
-35
-53
-78
-83
-87
-69
-74
-76
-70
-47
-51
-70
-45
-48
-58
-95
-106
-61
-59
-13
-18
-35
-66
-78
-88
-115
-112
-66
-26
-17
-26
-52
-66
-79
-77
-78
-80
-77
-40
-33
-45
-53
-74
-97
-108
-88
-69
-75
-44
-50
-47
-49
-89
-91
-91
-109
-68
-39
-26
-19
-47
-47
-54
-80
-56
-54
-51
-43
-29
-45
-20
-19
-73
-82
-75
-69
-54
-42
-27
-26
-36
-63
-86
-62
-64
-53
-55
-56
-57
-30
-22
-36
-77
-59
-55
-59
-50
-43
-42
-51
-65
-71
-85
-80
-67
-64
-41
-71
-53
-50
-43
-48
-67
-86
-73
-55
-61
-79
-62
-41
-57
-37
-67
-92
-83
-69
-57
-53
-30
-39
-63
-101
-117
-107
-55
-55
-65
-59
-45
-51
-67
-86
-72
-84
-76
-60
-36
-37
-42
-38
-50
-63
-48
-43
-26
-12
1
19
61
44
65
42
12
-21
-30
-2
3
-14
-13
-22
-37
-40
-61
-107
-85
-59
-61
-39
-29
-33
-41
-54
-67
-74
-80
-104
-73
-26
-34
-47
-70
-86
-89
-107
-117
-46
-56
-38
-25
-33
-52
-82
-125
-78
-70
-31
-47
-48
-39
-20
-44
-45
-63
-88
-96
-63
-44
-40
-41
-18
-20
-43
-70
-70
-76
-71
-81
-43
-22
-26
-40
-64
-83
-78
-74
-62
-67
-56
-44
-41
-34
-51
-82
-82
-75
-49
-50
-16
-24
-17
-52
-31
-52
-48
-57
-43
-38
-25
-36
-30
-37
-54
-48
-47
-38
-10
-16
-11
-24
-13
-2
-12
-48
-51
-47
-38
-30
-20
-11
-36
-31
-8
-34
-45
-32
-26
-30
8
3
-16
-33
-33
-29
-48
-28
12
-4
11
-15
-38
-36
-31
-30
-61
-68
-48
-15
12
5
-20
-43
-52
-77
-81
-51
-35
-32
-24
-21
-27
-51
-69
-67
-66
-73
-44
-41
-59
-43
-34
-71
-81
-87
-74
-59
-55
-34
-43
-61
-63
-60
-86
-91
-91
-79
-57
-36
-31
-32
-57
-74
-86
-85
-91
-55
-47
-38
-81
-72
-48
-64
-83
-87
-93
-67
-44
-31
-49
-32
-72
-79
-99
-78
-70
-65
-70
-46
-36
-23
-52
-76
-77
-79
-69
-52
-48
-36
-44
-31
-45
-72
-65
-59
-54
-37
-43
-42
-44
-25
-37
-41
-52
-55
-48
-49
-45
-28
-10
-24
-52
-48
-77
-77
-78
-64
-47
-41
-44
-45
-51
-66
-100
-83
-71
-61
-58
0
-24
-61
-62
-70
-82
-87
-75
-72
-59
-35
-50
-37
-49
-73
-89
-89
-53
-50
-37
-28
-53
-60
-61
-68
-85
-94
-86
-52
-39
-30
-44
-63
-67
-84
-88
-87
-67
-58
-52
-53
-44
-44
-72
-73
-96
-72
-73
-51
-20
-1
-4
13
23
46
37
44
43
39
30
19
2
-15
-6
-42
-57
-64
-66
-53
-41
-42
-46
-53
-68
-102
-103
-138
-69
-58
-22
-32
-39
-68
-64
-70
-86
-75
-54
-50
-35
-36
-42
-66
-84
-82
-81
-64
-65
-61
-35
-46
-78
-38
-67
-67
-74
-52
-47
-46
-34
-43
-61
-72
-74
-82
-79
-57
-39
-28
-4
-20
-42
-67
-65
-72
-82
-55
-31
-62
-41
-20
-52
-99
-89
-50
-66
-42
-43
-38
-39
-41
-45
-63
-80
-74
-71
-51
-26
-18
1
-8
-32
-36
-47
-50
-60
-73
-13
10
20
12
-10
-24
-53
-51
-40
-24
-13
-24
-2
-27
-23
-64
-52
-64
-21
-30
-40
-9
3
-13
1
-20
-36
-40
-36
-4
0
16
26
8
4
-34
-49
-48
-25
4
-7
-11
-17
-37
-14
-38
-57
-55
-20
-32
-29
-15
-12
-35
-50
-74
-63
-58
-64
-58
-46
-22
-36
-51
-54
-56
-63
-70
-82
-60
-37
-40
-51
-57
-45
-39
-69
-83
-66
-64
-55
-34
-18
-54
-76
-57
-86
-86
-77
-53
-37
-12
-35
-57
-62
-69
-96
-93
-79
-60
-52
-35
-36
-43
-74
-95
-124
-103
-83
-73
-55
-17
-13
-25
-37
-44
-75
-66
-65
-61
-32
-13
-20
-18
-42
-71
-74
-73
-62
-52
-39
-19
-14
-41
-61
-63
-78
-48
-57
-56
-46
-9
-25
-47
-42
-38
-71
-59
-30
-20
-27
-24
-29
-46
-55
-64
-72
-75
-57
-41
-42
-48
-36
-44
-46
-65
-69
-70
-48
-49
-44
-42
-49
-84
-91
-64
-77
-80
-34
-39
-22
-32
-45
-57
-73
-82
-78
-66
-52
-67
-46
-27
-43
-60
-64
-77
-89
-82
-71
-61
-20
-38
-52
-76
-81
-79
-72
-98
-64
-29
-30
-21
-36
-43
-12
-28
5
17
38
41
79
71
45
25
-10
-30
-33
-47
-38
-22
-8
-24
-16
-30
-62
-108
-76
-68
-57
-49
-18
-30
-45
-53
-63
-101
-112
-63
-50
-62
-45
-49
-50
-56
-49
-73
-87
-87
-65
-70
-62
-50
-33
-43
-70
-65
-71
-53
-32
-54
-42
-39
-44
-47
-49
-77
-79
-75
-65
-36
-49
-55
-40
-52
-81
-85
-52
-41
-48
-36
-20
-21
-68
-82
-85
-66
-73
-68
-54
-63
-23
-34
-47
-40
-43
-80
-49
-36
-42
-40
-26
-60
-54
-60
-61
-68
-61
-51
-11
-6
14
-6
-30
-41
-61
-69
-63
-57
-54
-33
-10
-16
-22
-29
-31
-49
-57
-49
-48
-23
-5
0
-7
-6
-23
-25
-36
-24
-2
17
4
-5
-19
-26
-35
-21
-18
-17
-14
1
-29
-71
-21
-16
-54
-41
-49
-54
-51
-21
-24
-26
-22
-35
-68
-51
-46
-63
-70
-42
-24
-46
-52
-41
-89
-84
-71
-51
-45
-34
-48
-56
-71
-59
-85
-95
-67
-77
-66
-39
-33
-46
-48
-67
-79
-88
-79
-67
-82
-58
-56
-47
-65
-72
-81
-76
-56
-58
-47
-28
-45
-45
-70
-70
-73
-99
-75
-68
-56
-55
-39
-58
-75
-76
-69
-69
-65
-40
-37
-35
-51
-38
-61
-82
-122
-91
-67
-34
-40
-31
-42
-63
-64
-96
-92
-66
-62
-61
-41
-38
-37
-52
-63
-77
-58
-57
-33
-39
-27
-37
-26
-44
-66
-76
-62
-60
-36
-33
-23
-13
-42
-54
-41
-51
-52
-64
-66
-56
-34
-38
-41
-39
-40
-65
-81
-99
-80
-55
-39
-51
-61
-51
-38
-56
-65
-57
-59
-59
-54
-38
-57
-79
-88
-95
-99
-64
-43
-45
-10
-16
-36
-42
-40
-66
-73
-85
-76
-50
