-34
-24
-25
-14
-23
-21
-19
-13
-26
-32
-28
-18
-16
-28
-30
-29
-21
-16
-18
-16
-18
-19
-16
-13
-18
-21
-9
-10
-9
-13
-25
-21
-30
-25
-31
-28
-15
-18
-21
-20
-14
-25
-20
-23
-19
-24
-18
-3
4
-11
-10
-19
-40
-36
-32
-38
-36
-25
-6
-16
-9
-15
-16
-17
-30
-29
-27
-25
-26
-25
-24
-28
-20
-16
-24
-20
-25
-22
-23
-21
-27
-24
-14
-21
-26
-19
-16
-25
-35
-34
-37
-28
-12
-23
-20
-15
-28
-32
-29
-18
-31
-28
-19
-42
-42
-26
-21
-21
-21
-33
-35
-31
-28
-21
-23
-20
-13
-21
-17
-20
-37
-35
-33
-24
-17
-27
-33
-35
-40
-35
-24
-33
-27
-31
-22
-30
-34
-23
-15
-19
-28
-16
-22
-33
-27
-30
-38
-28
-26
-32
-34
-29
-26
-12
-12
-25
-21
-29
-38
-40
-35
-30
-26
-15
-19
-24
-30
-33
-41
-30
-21
-22
-24
-26
-26
-21
-28
-32
-38
-30
-33
-38
-34
-25
-19
-18
-20
-21
-22
-21
-27
-27
-36
-41
-37
-20
-20
-19
-29
-29
-27
-25
-13
-18
-32
-37
-28
-36
-41
-36
-33
-23
-19
-19
-20
-20
-36
-41
-37
-30
-30
-6
-11
-24
-24
-22
-30
-31
-36
-36
-28
-22
-27
-40
-40
-26
-24
-25
-22
-25
-20
-18
-27
-25
-26
-25
-29
-23
-16
-23
-44
-47
-29
-19
-7
-14
-27
-24
-18
-41
-47
-44
-31
-26
-35
-32
-34
-37
-18
-12
-7
-9
-5
-12
-13
-27
-28
-12
-17
-29
-14
-16
-15
-9
-14
-29
-31
-25
-16
-20
-14
-16
-25
-18
-17
-24
-7
-15
-21
-14
-17
-10
-4
-13
-16
-9
-20
-26
-32
-39
-41
-36
-29
-26
-28
-33
-26
-28
-37
-25
-35
-33
-28
-35
-28
-26
-31
-37
-31
-32
-28
-30
-32
-34
-31
-31
-28
-32
-32
-31
-37
-33
-40
-38
-39
-30
-19
5
22
37
55
61
64
62
60
67
79
82
80
98
105
120
112
96
74
61
40
7
-35
-44
-30
-38
-44
-27
-20
-25
-28
-20
-17
-10
-17
-22
-19
-19
-19
-15
-18
-18
-13
-12
-16
-14
4
-6
0
-4
-17
-21
-28
-29
-19
-27
-27
-21
-14
-22
-19
-11
-16
-18
-9
-3
-10
-14
-18
-11
-12
-15
-19
-11
-6
-13
-15
-5
-4
1
11
8
-5
-10
-27
-20
-17
-18
-11
-13
-13
1
-10
-10
-1
-1
11
17
16
2
4
-2
3
4
9
7
5
11
22
3
2
16
18
10
12
13
23
27
29
18
20
18
12
17
25
30
27
33
36
29
37
27
34
38
41
40
35
42
34
38
38
41
38
33
19
23
22
23
18
18
25
27
21
21
24
18
17
27
21
16
7
-8
-9
-12
-5
-7
-7
-6
-16
-7
-9
-19
-17
-7
-5
-15
-16
-14
-21
-20
-16
-15
-9
-11
1
6
-17
-30
-30
-37
-44
-46
-39
-28
-16
-12
-4
-8
-11
-21
-18
-33
-36
-24
-39
-37
-18
-24
-27
-27
-26
-24
-18
-14
-27
-22
-16
-2
-16
-23
-15
-20
-9
-22
-15
-18
-15
-20
-33
-20
-23
-27
-28
-17
-17
-12
-5
-7
-2
-4
-14
-21
-21
-23
-29
-21
-18
-14
-18
-23
-15
-16
-17
-29
-29
-25
-14
-7
-20
-20
-26
-26
-27
-24
-33
-19
-22
-22
-23
-29
-25
-14
-13
-22
-33
-34
-25
-21
-15
-15
-11
-19
-30
-25
-25
-20
-20
-34
-24
-18
-19
-25
-37
-44
-39
-25
-14
-9
-14
-23
-22
-30
-37
-36
-32
-30
-35
-20
-24
-28
-22
-21
-23
-30
-26
-20
-21
-23
-19
-39
-40
-29
-31
-31
-35
-38
-29
-14
-18
-7
-2
-6
-20
-47
-38
-36
-40
-35
-30
-20
-20
-29
-27
-22
-37
-29
-29
-10
-19
-40
-40
-34
-36
-31
-16
-14
-17
-20
-30
-34
-25
-36
-40
-38
-33
-25
-21
-20
-31
-22
-33
-35
-30
-37
-32
-16
-21
-34
-35
-27
-31
-25
-27
-12
-6
-18
-35
-32
-27
-42
-29
-22
-39
-40
-31
-30
-28
-16
-11
-11
-20
-16
-34
-41
-39
-28
-34
-42
-43
-41
-44
-27
-15
-26
-20
-26
-18
-15
-19
-24
-22
-8
-29
-32
-36
-25
-29
-24
-32
-40
-36
-29
-31
-35
-29
-32
-32
-36
-27
-24
-22
-20
-14
-19
-18
-24
-25
-23
-30
-30
-30
-25
-38
-36
-26
-20
-30
-32
-22
-26
-29
-18
-29
-27
-27
-42
-35
-22
-18
-18
-16
-28
-25
-31
-30
-21
-29
-41
-36
-34
-26
-18
-9
-27
-24
-29
-25
-20
-24
-18
-18
-17
-11
-10
-13
-22
-16
-17
-2
2
-12
-3
5
3
2
-7
-13
-9
-14
-20
-11
-13
-16
-29
-32
-26
-33
-30
-27
-26
-30
-26
-32
-21
4
-20
-28
-32
-27
-38
-28
-21
-27
-29
-16
-18
-25
-28
-20
-24
-36
-39
-40
-30
-25
-37
-39
-34
-19
2
19
33
48
74
77
77
78
87
93
91
83
99
107
110
120
108
94
69
36
4
-34
-48
-40
-22
-25
-24
-19
-15
-13
-14
-14
-7
-12
-17
-11
-1
-3
-10
-9
-7
-4
-14
-18
-18
-27
-34
-24
-7
-4
-6
-10
-5
-26
-25
-12
-12
-20
-5
-3
-8
-7
-7
-9
-7
4
17
0
-5
5
11
-1
-19
-8
-5
-9
-11
-11
-2
-8
-8
-8
-9
-4
-2
-2
9
4
2
6
3
7
1
3
-1
0
6
-5
3
7
12
21
16
13
11
-4
9
16
2
2
6
22
30
30
26
32
39
23
22
32
35
29
26
27
29
38
50
50
39
13
16
34
34
35
34
46
47
39
36
21
22
37
41
39
38
44
39
38
46
48
36
24
26
19
8
23
20
18
17
12
1
5
2
-13
-8
-5
-9
-3
0
-7
-12
-4
-11
-7
-3
-5
-4
-14
-15
-24
-16
-20
-28
-23
-16
-25
-21
-22
-29
-35
-24
-15
-10
-27
-30
-18
-13
-14
-11
-16
-17
-13
-10
-12
-18
-20
-11
-9
-18
-31
-30
-25
-20
-19
-28
-25
-22
-16
-15
-16
-17
-15
-10
-8
-15
-20
-16
-9
-20
-19
-19
-14
-28
-15
-10
-3
3
-11
-13
-29
-28
-22
-11
-1
-6
-7
-7
-26
-27
-26
-17
-35
-29
-21
-13
-24
-25
-18
-24
-18
-3
-8
-14
-15
-20
-20
-21
-15
-12
-7
-12
-37
-30
-24
-19
-23
-16
-13
-18
-15
-18
-24
-16
-15
-19
-14
4
-16
-18
-22
-23
-28
-25
-12
-23
-21
-21
-29
-28
-26
-25
-17
-11
-23
-25
-29
-17
-29
-30
-32
-24
-24
-32
-28
-21
-23
-27
-25
-31
-34
-21
-17
-21
-20
-17
-20
-19
-30
-31
-30
-23
-34
-35
-21
-17
-18
-20
-13
-18
-21
-31
-11
-13
-28
-32
-26
-18
-18
-14
-18
-25
-24
-17
-4
-27
-33
-30
-41
-33
-35
-15
-24
-18
-22
-28
-21
-30
-18
-30
-17
-34
-33
-32
-31
-31
-26
-25
-19
-25
-31
-27
-28
-17
-17
-13
-13
-8
-14
-33
-30
-27
-20
-19
-28
-45
-42
-29
-23
-32
-29
-25
-11
-14
-18
-20
-20
-21
-20
-12
-21
-33
-28
-18
-22
-22
-18
-20
-28
-32
-22
-28
-24
-8
2
0
-7
-5
-8
-27
-30
-27
-23
-19
-25
-32
-26
-17
-15
-7
-7
-11
-19
-18
-28
-40
-30
-28
-21
-12
-25
-27
-26
-17
-33
-32
-22
-26
-35
-36
-31
-33
-24
-17
-29
-39
-41
-36
-25
-24
-12
3
-9
-29
-29
-33
-29
-38
-38
-33
-39
-35
-25
-24
-14
3
26
36
51
64
63
65
63
63
54
46
68
93
107
104
101
93
69
35
14
-27
-43
-53
-49
-36
-30
-17
-18
-4
-6
-7
-7
-28
-31
-34
-25
-18
-8
-1
-9
-10
-10
-16
-12
-6
-8
-7
-11
-21
-17
-32
-22
-18
-7
-2
-6
-5
-13
-6
8
2
-7
-16
-10
-1
-9
-16
-16
-21
-20
-5
-1
-11
-9
-3
-8
2
1
-5
-3
-5
-5
-11
-4
13
17
13
14
-2
-6
-4
-4
0
6
1
5
-1
-2
5
11
12
15
18
19
24
22
31
11
6
10
11
11
19
22
29
30
32
14
26
30
37
28
41
49
44
38
40
34
44
51
38
36
39
34
39
42
43
40
39
45
44
48
43
44
48
39
50
54
37
30
20
24
26
24
18
22
16
10
18
10
8
12
11
5
-11
-12
-5
-5
-2
3
3
0
7
9
-1
-23
-21
-23
-29
-22
-18
-15
-15
-17
-14
-13
-26
-19
-32
-32
-22
-27
-25
-23
-28
-25
-4
-8
-7
-2
-8
-33
-15
-10
-18
-21
-26
-25
-21
-28
-31
-28
-15
-17
-11
-12
-10
-17
-17
-27
-24
-22
-11
-8
-6
-6
-15
-17
-21
-25
-8
-2
1
-6
-6
-4
-1
-20
-18
-15
-11
-15
-9
-9
-29
-37
-29
-17
-23
-31
-21
-18
-16
-9
-8
-3
-7
-14
-14
-29
-22
-16
-15
-22
-15
-15
-19
-16
-18
-15
-20
-18
-13
-14
-25
-24
-18
-18
-19
-10
-8
-12
-34
-46
-32
-8
-16
-11
-16
-26
-11
-17
-24
-25
-16
-13
-23
-29
-27
-11
-7
-12
-11
-11
-13
-23
-35
-23
-22
-25
-28
-31
-22
-28
-25
-7
-10
-30
-25
-10
-15
-18
-33
-38
-27
-28
-32
-30
-17
-21
-38
-11
-9
-14
-26
-23
-27
-31
-26
-26
-25
-20
-19
-24
-16
-18
-15
-19
-12
-25
-30
-24
-10
-11
-13
-17
-26
-22
-23
-22
-24
-13
-20
-37
-26
-29
-34
-27
-32
-22
-25
-16
-7
-11
-21
-11
-16
-22
-16
-27
-35
-32
-31
-31
-28
-33
-28
-21
-6
-10
-29
-29
-14
-25
-34
-34
-26
-19
-22
-18
-13
-13
-17
-16
-20
-32
-24
-18
-16
-17
-20
-24
-29
-23
-14
-24
-18
1
3
-4
-15
-17
-6
-14
-23
-35
-27
-22
-23
-23
-14
-14
-13
-22
-19
-14
-20
-16
-6
-15
-4
-17
-23
-21
-20
-27
-20
-15
-11
-14
-15
-16
-30
-39
-42
-39
-36
-23
-25
-34
-23
-17
-17
-21
-28
-32
-25
-31
-32
-30
-14
-19
-25
-19
-27
-32
-24
-33
-31
-24
-34
-27
-19
-5
12
31
53
78
81
68
67
82
85
81
82
94
106
116
100
88
74
47
33
-2
-48
-55
-51
-39
-20
-12
-16
-17
-14
-8
2
-18
-26
-29
-12
1
-7
-17
-12
-10
-14
-18
-23
-10
-17
-26
-19
-14
-10
-13
-19
-14
-11
-10
-7
-6
-5
-7
-8
-6
-11
-3
-11
-3
-4
4
11
7
-5
-22
-31
-21
-20
-9
4
9
6
6
-4
8
14
8
1
0
-2
-8
-14
-15
-13
-6
4
7
5
3
-3
-3
-6
1
4
6
11
7
12
17
13
13
10
8
9
22
15
10
16
22
27
20
36
35
34
36
38
46
22
21
28
35
42
42
30
36
39
33
35
40
42
43
38
35
39
46
47
46
42
38
44
47
31
35
32
31
29
30
20
27
21
16
13
17
15
11
6
17
0
-17
-11
-12
-4
-8
-13
-4
-9
-17
-16
-21
-16
-8
-8
-14
-15
-14
-29
-21
-15
-27
-26
-27
-32
-19
-11
-12
-12
-10
-16
-30
-31
-35
-28
-18
-16
-29
-29
-25
-15
-23
-25
-17
-15
-8
-5
-6
-8
-18
-14
-18
-8
-26
-24
-25
-14
-17
-21
-15
-14
-23
-29
-25
-20
-20
-8
-18
-39
-33
-30
-8
-11
-8
-12
-15
-21
-29
-14
-5
-8
-13
-20
-22
-23
-21
-17
-11
-10
-7
-8
-15
-16
-25
-24
-18
-18
-13
-21
-17
-20
-10
-14
-11
-12
-14
-24
-24
-23
-14
-33
-41
-26
-18
-14
-26
-17
-7
-26
-26
-27
-31
-32
-24
-23
-16
-3
-1
-18
-34
-31
-24
-22
-24
-19
-16
-25
-24
-30
-35
-29
-29
-31
-20
-13
-19
-24
-31
-26
-19
-17
-14
-15
-10
-5
-8
-27
-33
-34
-25
-32
-20
-14
-12
-19
-31
-40
-40
-38
-20
-32
-23
-24
-30
-29
-25
-27
-22
-21
-28
-25
-19
-17
-12
-3
-20
-26
-45
-39
-33
-24
-20
-28
-34
-33
-23
-15
-20
-22
-23
-30
-20
-20
-37
-31
-21
-28
-31
-30
-23
-20
-18
-11
-15
-18
-20
-15
-16
-16
-11
-21
-31
-43
-34
-23
-18
-15
-13
-34
-39
-38
-32
-28
-27
-27
-22
-27
-14
-9
-29
-29
-30
-23
-29
-20
-17
-19
-18
-18
-44
-40
-27
-29
-32
-27
-15
-21
-20
-31
-28
-32
-26
-16
-26
-24
-24
-31
-24
-15
-14
-13
-14
-22
-28
-18
-12
-6
-15
-23
-29
-20
-14
-8
-16
-25
-17
-10
-16
-22
-16
-11
-16
-22
-17
-14
-13
-19
-29
-18
-6
-13
-32
-38
-43
-40
-32
-24
-23
-30
-27
-22
-32
-29
-28
-26
-25
-17
-12
-25
-19
-23
-23
-38
-37
-31
-29
-39
-35
-38
-25
-30
-34
-33
-26
-8
8
31
41
36
55
89
79
78
86
82
71
86
111
103
104
109
99
81
55
27
0
-30
-43
-45
-37
-20
-7
3
4
-6
-3
-12
-19
-29
-24
-16
-16
-19
-20
-21
-17
-16
-10
-27
-22
-16
-15
-15
-9
-7
-3
-5
-15
-18
-10
-3
-15
-12
-6
-5
0
-11
-13
-12
-7
-1
-7
0
-23
-20
-10
-9
-15
-12
-9
-12
-10
-4
-7
-1
-10
-4
1
-11
-7
-6
-11
-9
-2
0
0
0
-2
-2
2
5
15
12
16
21
21
6
-6
-4
-2
7
17
23
24
21
10
18
12
10
20
19
26
38
31
22
24
31
30
25
37
39
34
30
24
32
31
29
26
41
44
44
46
40
32
34
20
28
34
36
38
36
31
27
30
40
38
39
34
38
32
13
15
18
11
3
-2
4
2
2
-4
-9
-2
-8
-1
-7
-13
-9
-11
-8
-20
-27
-12
-11
-14
-14
-22
-25
-29
-27
-19
-34
-35
-29
-26
-21
-16
-19
-31
-29
-20
-6
-16
-20
-13
-20
-28
-27
-29
-23
-15
-19
-14
-5
-20
-21
-25
-21
-14
-21
-16
-17
-11
-4
-24
-27
-27
-22
-18
-14
-14
-24
-22
-17
-18
-14
-18
-17
-15
-14
-14
-19
-16
-11
-15
-18
-17
-16
-18
-24
-20
-11
-19
-16
-13
-17
-14
-3
-10
-12
-26
-35
-37
-34
-26
-31
-21
-17
-14
-15
-15
-21
-14
-2
-9
-18
-20
-18
-20
-27
-23
-17
-2
-24
-19
-16
-24
-28
-21
-34
-31
-29
-34
-29
-20
-19
-21
-17
-13
-21
-35
-28
-19
-18
-17
-19
-22
-22
-29
-26
-26
-27
-20
-23
-25
-20
-23
-29
-31
-26
-27
-37
-30
-21
-16
-24
-29
-33
-29
-24
-20
-31
-32
-36
-17
-15
-17
-23
-31
-16
-23
-24
-24
-19
-24
-26
-34
-39
-25
-22
-26
-26
-20
-40
-32
-22
-13
-32
-27
-32
-31
-17
-8
-34
-38
-44
-33
-31
-21
-21
-21
-23
-23
-16
-22
-28
-20
-19
-18
-18
-31
-30
-22
-34
-41
-34
-27
-28
-30
-25
-15
-14
-23
-33
-23
-17
-29
-32
-29
-22
-23
-29
-35
-32
-32
-28
-29
-26
-23
-28
-25
-31
-31
-31
-28
-25
-16
-28
-27
-28
-30
-21
-23
-25
-19
-18
-12
-11
-18
-39
-34
-26
-20
-23
-22
-14
-7
-4
-13
-20
-20
-16
-23
-18
-17
-18
-16
-11
-23
-30
-23
-20
-25
-22
-24
-22
-25
-24
-22
-14
-15
-15
-21
-34
-32
-28
-23
-25
-31
-21
-24
-17
-27
-35
-34
-23
-29
-27
-26
-16
-26
-18
-19
-16
-17
-36
-40
-28
-26
-21
-21
-19
-16
-11
-37
-44
-42
-34
-27
-30
-23
-13
-14
-10
12
31
48
49
68
71
78
95
86
76
89
109
104
100
95
84
70
45
22
-4
-38
-33
-20
-10
-9
-8
1
-6
-14
-19
-27
-31
-17
-26
-13
-1
-10
-13
-7
-8
-11
-11
-5
-15
-14
-15
-9
-15
-14
4
-8
-13
-16
-14
-12
-8
-12
-8
-6
-8
-4
-15
-14
-15
-20
-13
-9
-10
-14
-12
-18
-17
-2
-1
-4
-9
-7
-7
-9
-4
2
8
-9
-5
7
-2
-1
-2
0
5
4
9
8
4
10
8
7
20
19
30
28
23
19
-7
-7
0
12
25
21
16
31
26
19
31
20
18
17
18
22
24
16
16
27
27
40
57
43
35
46
40
38
38
35
40
40
39
41
38
46
55
49
47
44
45
41
36
36
25
32
42
47
40
42
37
33
3
1
7
10
0
-3
13
16
2
2
0
7
1
-11
-18
-25
-18
-20
-22
-21
-16
-26
-24
-17
-24
-18
-17
-14
-19
-21
-17
-25
-20
-24
-22
-19
-20
-16
-25
-17
-8
-13
-9
-10
-17
-21
-27
-16
-20
-14
-12
-10
-7
-5
-2
-5
-15
-5
-28
-17
-10
-19
-21
-18
-22
-33
-25
-33
-28
-11
-8
-18
-19
-8
-12
-21
-24
-30
-18
-12
-7
-9
-13
-15
-16
-21
-33
-33
-25
-15
-17
-10
-5
-14
-25
-16
-18
-13
-14
-19
-17
-14
-25
-24
-12
-22
-15
-17
-8
-5
-4
-14
-19
-18
-20
-18
-21
-25
-17
-21
-16
-8
-7
-13
-30
-25
-20
-30
-42
-39
-35
-35
-21
-17
-17
-15
-20
-29
-23
-22
-37
-33
-22
-20
-30
-29
-31
-29
-20
-17
-12
-9
-5
-16
-18
-24
-33
-32
-21
-25
-33
-31
-25
-25
-29
-25
-25
-22
-14
-21
-17
-13
-26
-14
-18
-18
-10
-14
-19
-21
-24
-27
-27
-35
-35
-28
-37
-35
-35
-33
-27
-16
-21
-29
-22
-26
-21
-35
-38
-36
-33
-16
-12
-19
-17
-18
-24
-28
-32
-34
-30
-14
-30
-35
-33
-23
-21
-16
-16
-23
-21
-19
-10
-12
-11
-17
-25
-24
-19
-14
-16
-13
-10
-15
-33
-37
-57
-60
-31
-22
-25
-22
-21
-24
-34
-23
-17
-21
-23
-20
-12
-20
-18
-18
-14
-18
-36
-37
-34
-25
-25
-30
-17
-24
-26
-13
-16
-22
-22
-21
-11
-6
-8
-2
-3
-19
-34
-31
-15
-24
-14
-16
-13
-2
1
4
-3
7
19
13
-18
-47
-39
-29
-29
-29
-36
-37
-20
-13
-20
-30
-22
-17
-23
-19
-27
-24
-13
-10
-11
-18
-25
-22
-25
-30
-40
-43
-39
-29
-20
-19
-24
-17
-17
-22
-23
-20
-13
-22
-25
-25
-22
-26
-20
-20
-14
-28
-28
-25
-34
-41
-33
-24
-25
0
18
35
65
74
67
78
95
103
91
80
112
122
131
112
97
78
75
46
17
-39
-50
-40
-30
-12
-8
-6
-12
-23
-14
-10
-4
-7
-7
-2
-6
-13
-14
-10
-3
-13
-11
-6
7
6
-26
-14
-1
0
-6
-11
-5
-11
-21
-16
-25
-24
-20
-13
-7
-21
-6
-8
-4
1
19
7
0
-9
-13
-12
-14
-6
-7
-8
-9
-9
-4
-1
0
6
6
7
2
-5
2
8
17
9
5
1
-5
-4
-2
-1
9
14
13
16
20
16
21
22
25
23
15
15
7
14
7
13
24
16
16
32
29
24
30
26
42
39
42
43
41
48
32
28
23
33
39
38
43
37
39
43
46
44
39
41
47
45
47
50
34
41
40
39
33
34
36
38
28
34
36
36
41
28
12
12
26
9
2
-2
-1
-4
-3
-5
-10
-2
-9
-22
-9
-8
-5
2
-4
-27
-31
-21
-16
-25
-23
-12
-11
-14
-22
-27
-30
-28
-24
-29
-35
-20
-10
-5
-22
-23
-22
-11
-7
-3
-7
-16
-10
-12
-14
-10
-5
-12
-10
-11
-10
-13
-10
-9
-11
-12
-18
-25
-19
-28
-11
-4
-9
-2
-15
-17
-20
-21
-19
-10
0
-5
-20
-17
-25
-20
-14
-12
-12
-30
-26
-19
-14
-16
-14
-25
-21
-17
-13
-1
-3
-12
-18
-7
-14
-9
-19
-26
-15
-17
-9
-12
-11
5
1
-5
-18
-27
-18
-15
-24
-28
-25
-21
-21
-15
-19
-24
-30
-23
-22
-19
-12
-8
-18
-25
-30
-25
-20
-18
-15
-14
-11
-17
-13
-24
-16
-23
-23
-21
-18
-16
-25
-18
-13
-23
-25
-23
-20
-17
-12
-18
-20
-14
1
-2
-15
-28
-36
-33
-25
-24
-23
-24
-20
-27
-26
-24
-22
-20
-21
-15
-19
-28
-39
-17
-21
-25
-31
-23
-14
-21
-15
-19
-30
-35
-35
-26
-20
-14
-18
-12
-21
-18
-24
-22
-27
-26
-26
-15
-7
-26
-16
-21
-33
-16
-6
-25
-31
-23
-22
-29
-16
-17
-17
-24
-24
-33
-32
-33
-28
-22
-13
-23
-11
-8
-12
-19
-17
-26
-24
-18
-22
-25
-27
-22
-21
-22
-25
-21
-15
-15
-8
-2
-18
-10
-9
-15
-14
-17
-22
-16
-15
-21
-26
-16
-10
-12
-19
-7
-2
-6
-24
-24
-21
-21
-22
-12
-7
2
-12
-6
-19
-43
-47
-29
-22
-28
-22
-16
-20
-14
-24
-24
-29
-33
-29
-31
-27
-16
-25
-20
-21
-14
-11
-10
-26
-29
-24
-26
-45
-40
-34
-40
-34
-29
-36
-33
-22
6
28
44
66
73
81
69
62
82
87
77
95
104
105
106
103
85
68
46
17
-15
-42
-48
-36
-29
-15
-15
-22
-21
-12
-7
-2
-16
-16
-25
-15
-21
-18
-19
-16
-12
-11
-5
-11
-18
-7
2
0
1
-18
-21
-14
-19
-25
-23
-14
-16
-5
-3
-1
8
1
0
5
5
-14
-16
-11
-17
-8
-8
-12
-12
-10
-12
4
2
-4
2
5
7
6
7
14
-9
-21
-8
-6
7
0
8
-6
4
8
12
0
9
17
6
7
16
15
15
12
10
8
14
31
26
27
31
22
22
17
23
31
21
25
38
33
29
26
33
34
34
32
37
35
32
45
42
40
42
32
34
45
49
42
39
35
40
47
51
46
45
42
26
29
43
40
35
40
35
27
28
22
17
8
6
6
8
12
22
9
9
3
10
-1
-16
-12
0
-3
-13
-13
-12
-13
-25
-21
-16
-25
-14
-20
-33
-23
-14
-25
-19
-11
-4
-6
-16
-14
-14
-31
-28
-19
-27
-26
-13
-13
-18
-21
-25
-30
-26
-27
-16
-11
-21
-12
-12
-2
11
-2
-21
-13
-15
-13
-9
4
-5
-20
-27
-17
-11
-17
-22
-4
-12
-10
-14
-21
-19
-14
-15
-13
-3
-7
-6
-20
-12
-15
-16
-16
-16
-19
-26
-22
-16
-15
-14
-17
-7
-13
-8
-14
-10
-17
-19
-6
-4
-9
-21
-26
-19
-21
-16
-22
-16
-5
-11
-4
-13
-13
-15
-22
-20
0
2
-12
-21
-9
-6
-16
-29
-31
-25
-25
-27
-19
-8
-7
-9
-12
-23
-18
-18
-26
-30
-30
-34
-24
-31
-24
-22
-11
-15
-19
-11
-5
-14
-27
-28
-22
-6
-19
-25
-21
-15
-15
-15
-6
-7
-1
-7
-20
-22
-14
-6
-6
-25
-7
-11
-27
-22
-16
-6
-7
-13
-24
-18
-23
-15
-8
-23
-26
-19
-16
-15
-8
-1
1
-8
-17
-6
-4
-10
-25
-33
-41
-26
-14
-16
-19
-21
-21
-20
-12
-29
-34
-12
-7
-26
-30
-27
-31
-23
-8
-10
-1
2
2
7
-10
-25
-35
-32
-40
-26
-33
-35
-40
-34
-28
-36
-40
-22
-11
7
44
58
63
58
68
70
79
83
78
68
99
102
108
106
95
74
58
28
1
-22
-39
-48
-43
-40
-18
0
1
0
-9
-4
-2
-6
-12
-6
0
-13
-6
2
-3
1
-5
-16
-20
-21
-17
-13
-9
-8
-21
-13
6
3
-5
-12
-7
-12
-12
-4
-6
-11
-1
-1
-12
-15
-5
-6
-9
-2
-8
-16
-1
0
10
6
7
2
-12
-5
6
7
7
4
1
11
10
8
9
4
8
7
7
7
13
23
18
15
17
31
34
28
26
38
42
13
4
1
16
29
19
21
21
27
19
21
30
34
33
35
31
32
40
44
51
49
49
40
37
38
56
42
31
44
53
54
46
58
60
52
35
45
52
64
61
53
49
46
35
43
48
43
40
41
45
42
24
16
12
11
16
24
12
7
7
3
0
-3
1
2
-12
-26
-16
-1
-1
-8
-12
-8
-14
-19
-24
-27
-26
-18
-22
-25
-14
-16
-13
-15
-14
-18
-14
-11
-4
-13
-15
-11
-9
-19
-31
-20
-14
-12
-3
2
0
-10
-16
-9
-4
-13
-18
-14
-7
-1
-5
-1
10
11
3
-4
-20
-27
-20
-22
-13
-16
-6
8
7
2
0
-15
-18
-15
-22
-29
-25
-17
-19
-7
-6
-1
-8
-5
-11
-10
-19
-15
-13
-13
-13
-8
-15
-14
-8
-9
-11
-7
-9
-7
-7
-4
-9
-5
-2
5
0
-4
-1
-12
-18
-20
-14
-19
-13
0
8
6
-7
-15
-17
-14
-21
-15
-13
-11
-20
-18
-16
-18
-36
-28
-16
-10
-10
-9
-9
-12
-9
-13
-9
-13
-25
-26
-18
-8
-9
-16
-14
-11
-7
-10
-19
-19
-19
-20
-21
-11
0
-4
-7
-14
-13
-11
-8
2
6
-4
6
5
1
-14
-29
-34
-27
-19
-18
-20
-18
-14
-17
-16
-24
-22
-19
-18
-14
-20
-10
-11
-20
-13
-13
-13
-14
-14
-6
-12
-5
-3
-12
3
1
1
-14
-13
0
7
-8
-13
-1
11
-11
-6
3
12
12
1
-8
-10
-20
-11
-20
-26
-12
-11
-9
-3
-9
-18
-27
-29
-26
-21
-15
-24
-29
-13
-8
-12
-13
-22
-31
-20
-19
-26
-23
-23
-29
-25
-15
-20
-26
-17
-18
-10
-15
-30
-37
-17
-14
-14
-4
22
42
61
77
87
101
93
102
116
92
84
111
124
122
119
106
96
84
50
6
-31
-49
-51
-31
-13
-3
-6
-5
-9
-16
-10
-3
7
-3
-2
-11
-23
-18
-8
-5
-4
-3
5
-4
4
1
1
2
-4
-13
-9
-7
-5
13
2
0
1
1
-1
-3
5
9
8
8
-1
-3
-3
-6
-8
-10
1
4
14
19
8
2
9
4
-6
-4
9
-4
4
8
3
-2
-3
9
13
15
14
20
8
13
7
7
18
24
13
21
24
25
19
21
20
23
26
26
26
33
43
37
43
41
29
26
25
33
34
37
29
28
40
60
53
48
40
41
38
54
62
60
59
71
69
58
32
38
48
50
48
42
45
46
41
41
46
47
45
48
46
38
33
37
29
12
27
33
39
22
21
12
5
19
11
4
8
1
-2
1
-2
-11
-21
-3
-1
-7
-4
-12
-17
-5
-5
-3
2
5
-4
-9
-2
-4
-19
-16
-19
-16
-10
-5
2
0
-11
-4
-2
-6
-13
-22
-15
2
6
2
-6
1
-10
-20
-13
-2
0
-2
-10
-1
-10
-11
-2
-1
-1
1
3
8
2
10
-5
-13
-20
-17
-22
-16
-16
-1
11
-2
0
9
1
-10
-4
3
6
12
13
-2
-9
-22
-19
-13
-10
0
-2
-3
-3
-7
-2
-14
-13
-2
7
-3
-6
-8
-25
-19
-5
-5
-13
-16
-9
-4
-4
5
-10
0
1
-2
-7
-18
-11
-26
-19
-1
-4
-5
-6
-5
-15
-8
-9
-7
-6
-5
-16
-9
-10
-15
-25
-29
-15
-11
-9
-6
-5
-2
-8
-16
-22
-12
-10
-18
-18
-12
-7
-14
-17
-15
-6
-6
-12
-12
-6
-12
-13
-11
-17
-24
-20
-15
-9
-4
-5
-12
-17
-19
-17
-17
-17
-12
-11
-13
-12
-10
-17
-8
-11
-16
-5
4
0
-8
-25
-25
-17
-23
-17
-16
-13
-10
-9
-6
-6
-5
-5
-11
-23
-32
-25
-20
-20
-12
-11
-11
-15
-19
-11
-14
-16
-11
-16
-6
2
-4
-7
-16
0
-15
-29
-29
-22
-8
-9
-16
-21
-24
-20
-12
-7
-1
-9
-8
-7
-4
-18
-15
-12
-18
-20
-21
-17
-12
-19
-7
-9
-10
-3
3
-5
-10
-7
-16
-10
-11
-22
-18
-14
-17
-13
-13
-13
-10
3
11
-1
1
7
-7
-16
-26
-25
-12
-6
-5
-8
-9
-19
-6
-5
-17
-9
-20
-7
2
-2
1
6
-2
-4
-9
-1
-3
-9
-4
8
0
5
4
0
-18
-5
-2
-5
-6
-4
0
-2
-9
-13
-12
-7
-3
0
6
-13
-16
-13
-8
-8
-15
-8
-8
-14
-10
-19
-10
-5
-17
-16
-14
-16
-20
-19
-24
-25
-8
-16
-8
-6
-19
-18
-26
-29
-28
-19
-18
-17
3
26
45
64
74
84
92
85
93
93
107
95
105
118
119
122
121
108
92
71
40
10
-21
-25
-23
-3
13
8
-3
-8
-1
-5
-2
-2
7
6
4
-2
-9
-7
-3
1
0
-10
2
10
-1
-3
0
6
2
3
3
-5
-8
6
9
5
9
9
3
-7
9
9
-4
-19
-5
1
-1
5
3
4
7
13
16
20
19
-1
-7
0
2
1
8
9
5
7
3
6
15
23
22
26
17
17
14
13
13
9
21
28
29
31
27
25
25
23
22
12
20
29
35
36
42
49
45
26
25
32
34
37
42
35
24
36
26
32
44
51
52
45
53
53
49
53
60
53
55
48
55
43
49
54
50
62
51
52
41
44
47
41
45
38
26
29
32
37
38
32
35
33
28
32
32
15
6
8
2
3
1
1
-2
-3
-3
6
8
7
13
21
4
-17
-24
-25
-9
-8
-4
-7
-8
-10
-8
-8
-5
2
12
10
-1
0
-2
-8
-7
-9
-18
-22
-10
-9
-8
-8
-10
-6
-5
-5
-10
3
14
7
7
-6
-4
-4
-22
-22
-7
-2
-8
-9
-11
-2
-3
-9
12
17
2
-2
-13
-9
-11
-5
-15
-5
0
5
5
9
2
-7
-13
1
4
16
14
-1
-17
-12
-2
-12
-16
-10
-9
-3
-6
3
1
-6
-1
-3
-17
-17
-16
-6
-23
-7
-6
-2
-2
0
-2
-10
-9
-23
-16
-1
2
3
-9
-8
-18
-18
-27
-23
-13
-16
-17
-10
-5
-8
3
-5
-3
5
4
-8
-15
3
-4
-6
-13
-13
-3
-5
-4
1
-17
-15
-21
-21
-20
-17
-10
-16
-17
-8
-5
-13
-23
-27
-21
-10
-10
-14
-16
-20
-15
-14
-10
-18
-9
5
3
-8
-22
-19
-9
-11
-14
-21
-10
-2
3
-9
-15
-6
-10
-16
-20
-14
-14
-18
-12
1
11
-8
-5
-1
-5
-3
-23
-36
-29
-25
-14
-14
-16
-16
-12
-9
-14
-7
-22
-16
-15
-21
-24
-25
-17
-15
-10
-14
-12
-9
-9
6
-3
-16
-22
-18
5
-1
-20
-21
-10
-18
-12
-2
-13
-14
-7
-8
-20
-17
-6
-8
-8
-8
-6
-15
-16
-19
-9
-11
-16
-6
-5
-9
-24
-20
-16
-24
-20
-18
-21
-22
-19
-13
-9
-6
-1
-8
-13
-12
-8
-8
-14
-9
-8
-15
-2
-2
-7
2
-4
0
17
15
-3
-17
-17
-12
-1
3
2
-5
-4
-11
8
1
2
-21
-16
-6
-17
-19
-13
-11
-14
-3
-6
-8
-12
-24
-17
-14
-15
-13
-15
-25
-31
-16
-2
-8
-15
-14
-7
-6
-7
-7
-12
-15
-6
-4
-13
-12
-7
-11
-18
-29
-31
-31
-31
-10
7
18
50
67
81
91
81
76
89
85
73
71
94
102
100
95
78
64
50
25
18
-8
-23
-23
-23
-13
-12
-5
-1
6
2
6
3
-7
-14
-10
-7
0
4
-1
-6
3
10
8
4
6
7
12
8
-5
-6
1
6
0
9
10
7
5
15
1
-4
-11
-6
-2
4
0
5
6
5
7
5
0
2
1
-2
-5
0
3
10
20
10
18
10
-4
9
5
17
20
21
17
22
24
39
33
22
3
5
7
17
25
20
28
9
14
21
25
33
47
45
24
25
35
41
39
48
44
26
21
24
24
30
35
42
35
30
30
42
41
44
50
49
49
55
50
44
41
44
55
70
56
53
63
65
54
56
57
48
33
32
40
39
35
29
36
34
36
38
46
37
45
40
41
34
16
23
17
-3
-12
-9
-18
-12
-6
4
7
-3
1
-12
-21
-12
-10
-5
-19
-17
-17
-17
-13
-8
-11
-11
1
12
4
-12
-12
-12
-10
-4
7
1
-1
-1
6
4
-18
-18
-20
-14
-16
2
8
6
1
-2
6
5
0
-12
-12
-7
-16
-19
4
4
-3
-1
-4
-7
-13
-7
-4
-4
-5
-11
-4
-10
0
-13
-13
-17
-4
-15
-13
-2
-4
0
7
8
10
11
11
5
-13
-12
-8
-12
-13
-4
-1
-4
-4
4
7
-6
-4
8
-1
1
3
-7
-13
-4
-9
-8
-6
-9
-4
-6
-7
-9
-19
-6
-12
-14
-6
-11
-8
-8
-10
-6
0
-8
-13
-4
-9
-17
-17
-14
-13
-11
-2
-11
-9
-13
2
3
-5
-4
-16
-5
-2
-8
-15
-14
-17
-6
-6
-9
1
-6
1
-8
-17
-27
-19
-9
-16
-12
-10
-17
1
-6
-6
-15
-10
-10
-13
-16
-12
-12
-9
-3
-3
-8
-6
-6
-5
-1
-11
-22
-21
-12
-16
-17
-21
-11
-8
-12
-8
-5
-3
0
-5
-12
-1
-10
-20
-11
-6
-1
-4
-12
-18
-14
-1
-7
-14
-12
-17
-11
-7
-20
-23
-11
-10
-8
-13
-5
-4
0
19
28
6
-2
3
-8
-20
-17
-12
-8
-3
-6
-15
-5
2
-1
-4
10
8
-5
-13
-18
-15
-11
-14
-21
-16
-16
-11
-10
-5
-7
-17
-16
-9
-16
-5
-6
-22
-10
-5
-12
-24
-20
-17
-12
-16
6
-6
-5
-1
-5
-9
-13
-30
-35
-25
-21
-28
-18
-23
-5
11
24
28
45
69
78
84
77
81
91
85
81
92
108
126
126
110
96
73
47
14
-10
-32
-30
-25
-19
-1
3
13
4
-2
-2
7
19
25
16
9
-4
0
3
-6
-14
-15
-6
-6
-25
-13
-8
-3
0
11
8
7
7
6
-2
-5
0
-4
-13
-2
5
-7
-2
7
8
4
3
3
16
-2
-1
9
17
20
8
11
10
1
5
12
24
32
37
35
23
17
6
14
7
2
-1
11
13
21
17
29
21
12
6
10
11
20
29
26
29
14
12
23
26
31
36
37
49
30
23
39
49
56
42
38
43
43
42
48
52
38
48
49
40
53
63
58
47
57
66
62
54
61
67
56
51
59
67
72
74
58
50
46
46
50
55
61
35
22
18
24
37
26
36
17
-2
-2
10
14
15
20
18
10
4
9
-3
-1
5
1
-4
-9
-9
-12
-15
-7
0
4
8
15
9
-4
-11
-11
-15
-16
-22
-12
3
5
3
13
13
3
-14
-4
1
-2
1
15
3
-5
-20
-4
1
-4
-6
-4
-5
-18
-16
-12
-4
-2
-4
10
15
10
18
4
-8
1
-8
-8
-15
-4
-11
-5
1
-2
-7
-1
0
6
8
17
2
-6
-3
7
0
-5
-3
7
0
9
22
27
22
23
17
-9
-23
-16
-15
-22
-11
6
-1
7
-2
-13
-7
-7
-17
2
-2
-3
7
13
0
-14
-6
-8
-12
-12
-7
4
-6
-8
-1
8
3
-6
-3
-10
-18
0
-4
1
1
-3
-13
1
4
8
12
16
11
-12
-16
-4
-8
-9
-8
-1
-2
-11
-12
-17
-13
-12
-7
-17
-15
-17
-13
-24
-20
-6
2
-2
-9
-6
4
0
-14
-10
-6
-7
-16
-17
-13
-7
-7
-5
-2
-1
2
-3
-11
-1
5
-4
3
14
21
11
7
-13
-21
-8
-16
-13
-28
-26
-17
-12
-15
-19
-15
-2
-8
-5
-7
-1
1
2
7
0
-8
-14
-23
-11
-10
-5
-13
-12
-11
-11
-6
-4
1
8
0
-11
-19
-14
-9
-18
-19
-13
-16
-6
1
6
-2
5
3
6
10
16
17
-8
-26
-20
-14
-8
-23
-15
-17
-12
-16
-3
-4
3
-4
-12
-16
-9
9
5
-2
10
-4
-15
-13
-6
-6
-7
-15
-6
7
-2
-11
4
0
-8
-9
-1
8
12
15
7
4
9
4
-5
3
-7
-1
14
12
15
-8
-28
-13
2
9
-2
-15
-8
-8
-15
-24
-22
-17
-9
-22
-13
-7
-1
-8
-6
-1
-12
-7
-6
-13
-16
-13
-18
-8
-14
-15
-5
-14
-7
0
-8
-20
-21
-16
-13
-3
6
16
32
52
70
79
86
79
70
89
112
111
104
110
106
97
101
98
77
67
51
27
-1
-23
-17
-14
2
11
12
14
3
11
-1
3
1
-3
0
1
-3
1
-1
0
14
5
4
-1
1
6
14
15
15
12
11
17
9
-5
-3
-1
11
-3
-12
-6
9
12
17
19
23
35
32
23
-6
-14
0
0
4
8
15
1
2
13
7
14
13
9
10
8
11
8
16
3
5
5
9
8
29
24
16
24
23
21
21
27
32
41
45
45
39
27
17
20
35
39
37
45
46
48
39
23
12
35
42
29
27
47
47
49
51
48
53
61
69
57
45
40
33
38
51
56
61
55
56
47
45
55
63
59
56
49
45
53
51
48
54
47
43
45
24
23
12
23
19
20
31
29
27
21
7
9
26
23
26
24
18
2
-3
-11
-7
-2
4
-5
-3
-1
-6
-10
-6
1
-4
-2
1
-3
-7
-10
-12
6
4
-2
-4
6
-1
-16
-6
3
20
10
-11
2
6
3
-1
-9
-11
-11
-5
-4
-8
-18
-10
-1
-5
10
16
8
4
-1
-5
3
6
5
12
18
9
0
-14
-13
-3
4
3
1
5
8
6
-2
-5
-10
-10
-17
-13
6
1
0
7
11
11
5
-9
-5
6
-1
-1
1
4
5
7
-1
-15
-15
-4
-3
-13
-15
-7
-8
-2
-1
1
11
12
4
-4
-14
-11
3
2
3
-1
-1
-1
-5
-9
-14
-22
-13
-6
-11
0
7
1
-11
-15
-17
-13
-5
-10
-4
-7
3
-7
-7
-1
-14
-23
-14
-9
-3
-12
-14
-17
-24
-8
-5
-4
2
4
0
-8
-8
-2
-8
-4
-8
-9
-13
-17
-9
-16
-17
-16
-5
-3
1
0
1
-11
-16
-14
-19
-10
-13
-2
-1
-13
-13
3
1
-2
-15
-15
-14
-14
-19
-16
-5
-3
-1
-8
3
-3
-15
-7
-15
-13
-9
1
-3
-20
-22
-16
-16
-22
-17
-9
-1
-5
-8
-1
3
-7
-17
-9
-30
-31
-16
-10
-15
-11
-1
4
15
9
-4
-7
-15
-18
-16
-15
-17
-19
-1
2
-21
-29
-20
-6
6
4
1
-2
-13
-15
-7
-5
-20
-22
-17
-15
-15
-10
-12
0
-4
-14
-15
-11
-11
-8
-6
-10
-14
-8
-16
-14
-18
-13
4
6
1
-4
-5
-7
2
0
3
5
-6
-8
-22
-12
-3
-4
0
2
-4
-1
4
-3
-9
-9
-9
-7
-18
-23
-24
-5
-6
-6
-15
-16
-17
-9
-6
-14
-34
-27
-21
-21
-24
-21
-19
-17
-12
-12
-14
-8
-10
-14
-13
-17
-21
-18
-18
-26
-32
-22
-20
-8
6
28
40
42
69
88
96
96
88
93
101
76
92
113
128
136
120
99
85
67
32
0
-18
-38
-31
-9
4
8
5
-12
-20
-4
-13
-15
9
7
15
20
10
13
14
15
14
-3
-4
-1
-1
-1
3
-2
-11
-1
5
7
16
17
28
19
4
-1
-8
-2
11
14
6
-6
4
8
11
0
-10
-5
-2
3
3
3
6
15
8
1
9
10
13
7
8
12
15
11
6
6
12
19
17
21
32
20
12
16
29
27
29
30
36
37
46
54
32
11
8
-1
12
23
27
29
33
34
37
48
51
45
39
37
52
54
49
35
43
53
51
44
47
51
48
46
57
48
47
51
47
42
54
56
58
66
58
62
51
55
56
42
48
55
48
52
57
52
50
41
22
6
23
27
18
15
13
13
5
5
5
1
-1
-7
6
12
9
-1
-2
1
-7
-13
2
-13
-1
-5
-15
-16
-4
-5
-3
-4
-7
-6
1
-3
-14
-10
-6
-11
-17
-9
1
5
9
8
6
4
-3
0
-13
-11
-8
-6
-1
-1
-8
-7
-2
3
-3
-3
7
-11
-26
-19
-19
-11
4
4
-7
3
1
1
-15
-8
8
-3
-14
-16
-3
-1
-12
-9
-5
-3
3
-4
-5
-7
-3
-5
12
17
16
15
7
1
-4
-18
-8
-10
-3
-17
-18
-12
-9
-11
-14
-7
-7
2
5
6
2
5
7
0
-5
-15
-17
-14
-5
-19
-31
-23
-14
-14
-8
-14
-24
-14
-1
-2
-1
-9
-8
-16
-13
-12
-2
-7
-17
-9
-8
10
14
7
7
9
-5
-25
-13
-8
-20
-23
-24
-22
-30
-35
-15
-15
-3
-5
-3
-8
-4
11
4
-12
-24
-20
-27
-28
-28
-24
-15
-10
-14
-17
-8
-3
-1
-8
-12
0
-6
-16
-14
-22
-25
-16
-13
-26
-12
-4
-1
-7
-14
-10
0
2
0
-3
-16
-22
-18
-12
-20
-24
-23
-14
1
-14
-11
-1
-15
-19
-21
-22
-13
-11
-11
-9
-21
-26
-20
-12
-4
-13
-11
-21
-16
-14
-14
-26
-26
-8
-5
-5
-10
-13
-10
-4
-14
-7
-3
-1
0
-17
-6
-11
-30
-8
-16
-24
-11
-5
-5
-4
-3
-7
-21
-28
-23
-17
-24
-8
-13
-15
-20
-11
-4
-3
-8
-5
-8
4
8
5
1
0
-13
-7
-9
-7
5
7
-5
-5
-14
-13
-16
-11
-3
-1
-6
-10
-15
-19
-8
-17
-21
-16
-7
1
0
-7
-22
-23
-17
-21
-26
-22
-19
-17
-13
-15
-6
-5
-16
-30
-35
-20
-12
-13
-16
-17
-16
-23
-22
-16
-6
-6
-8
-23
-32
-22
-19
-8
9
21
33
56
54
67
73
77
77
93
92
79
99
116
129
121
107
96
66
39
17
2
-36
-46
-34
-21
-5
-6
1
-2
-8
-5
-19
-15
-6
-10
-5
-4
-8
0
0
-8
-8
-2
0
-1
-3
-1
-2
0
-4
-5
10
16
2
-8
-9
-2
6
9
18
1
-18
-6
3
-1
-3
1
6
8
17
-2
-15
-17
-3
-15
-9
4
11
9
0
0
4
6
1
-6
1
5
11
17
11
10
1
5
13
14
9
21
25
33
24
21
19
21
8
6
18
18
20
23
32
33
40
50
56
41
33
12
18
23
24
36
38
44
47
39
45
51
47
48
40
39
39
25
34
38
49
51
49
42
44
39
59
58
42
30
45
58
53
38
43
55
54
44
29
21
18
16
19
23
19
24
22
8
-1
1
4
3
-4
-5
-7
-5
3
2
0
-5
-9
-15
-5
-10
-6
2
-6
-7
-16
-10
-13
-17
-17
-9
-10
-9
-11
-8
-17
-20
-18
-20
-16
-5
-1
-10
-13
-19
-13
-5
-11
-11
-10
1
-3
-13
-24
-24
-25
-10
-14
-4
4
12
0
-20
-27
-33
-23
-9
-10
-14
-1
-1
-2
-6
-21
-18
-5
2
-16
-17
-7
-2
-9
0
5
0
-10
-2
-10
-12
-26
-13
-12
-7
-5
-8
-5
-5
-13
-15
-5
-5
-8
-9
-12
-3
-5
-27
-15
-10
-11
-16
-15
-11
-15
-11
-5
-14
-18
-13
-1
3
-11
-18
-18
-19
-18
-25
-15
-18
-14
-20
-15
-20
-15
0
-10
-22
-23
-16
-11
-16
-19
-16
-17
-28
-25
-20
-25
-25
-11
-25
-26
-15
5
-2
-7
-21
-12
-7
-18
-18
-17
-9
3
4
-18
-16
-30
-26
-28
-34
-28
-21
-24
-14
-14
0
-6
-9
-20
-22
-12
-14
-12
-21
-23
-22
-26
-19
-19
-20
-13
-20
-19
-8
-2
-5
-20
-27
-28
-24
-17
-11
-3
-2
1
5
-3
-19
-16
-9
-16
-17
-10
-4
0
-1
-6
-3
-10
-18
-15
-10
-25
-24
-16
-10
-22
-20
-18
-17
-21
-22
-16
-15
-5
-21
-38
-26
-13
-15
-19
-19
-20
-21
-21
-21
-13
-8
-25
-31
-24
-18
-20
-28
-23
-24
-26
-23
-22
-20
-28
-40
-43
-30
-12
-8
-1
11
45
50
50
65
86
85
76
75
73
68
82
112
116
113
102
78
59
35
7
-26
-36
-43
-36
-31
-17
-11
-9
-7
-5
-2
-20
-29
-20
-16
-16
-6
0
-10
-2
0
-1
-9
-17
-19
-17
-6
-6
-11
-11
-3
-5
-5
8
2
4
3
0
-11
-17
-12
-17
-17
-13
-6
-4
2
0
-5
-6
-4
-5
-4
9
10
7
-5
-2
5
0
-4
3
10
8
1
0
2
1
-1
-3
1
7
3
12
14
14
21
16
19
25
19
12
8
11
23
24
22
20
25
32
28
31
20
30
36
34
41
34
19
22
35
44
45
34
32
37
41
33
43
52
45
48
47
49
52
49
45
44
47
52
54
60
62
62
59
55
38
39
46
37
46
40
15
27
30
36
33
12
30
16
-4
5
4
-3
-5
0
7
4
-8
-16
-19
-5
5
-14
-9
-2
-8
-16
-11
-19
-23
-18
-15
-18
-26
-28
-10
-7
-11
-14
-18
-9
-15
-18
-25
-21
-10
-4
-12
-4
-1
2
-1
-10
-7
-17
-12
-16
-18
-20
-20
-18
-20
-21
-4
10
11
0
-5
-12
-20
-24
-28
-29
-24
-16
-9
-13
-11
2
6
0
-10
-17
-9
-6
-24
-29
-21
-22
-7
-3
-5
-2
-6
-9
-14
-17
-17
-17
-7
-4
-3
-13
-16
-13
-15
-10
-1
-1
-8
-4
-5
-27
-30
-26
-13
-9
-3
4
-10
-15
-23
-5
-20
-22
-20
-20
-15
-12
-1
-1
-6
-5
-20
-20
-15
-14
-17
-17
-28
-38
-28
-24
-25
-25
-15
-7
-8
-8
-10
-14
-18
-28
-31
-21
-16
-15
-15
-21
-14
-11
-23
-2
-11
-14
-19
-26
-21
-22
-16
-20
-14
-6
-10
-22
-30
-27
-25
-18
-13
-10
-11
-15
-14
-8
-21
-24
-27
-25
-16
-14
-21
-24
-21
-18
-25
-20
-21
-27
-23
-15
-9
-18
-27
-24
-14
-12
-14
-23
-15
-17
-18
-27
-19
-12
-8
-14
-17
-22
-26
-32
-21
-11
-7
-10
-10
-17
-18
-28
-27
-18
-27
-11
-14
-23
-18
-13
-7
-5
1
12
12
10
3
-7
-30
-33
-17
-11
-6
-17
-19
-21
-25
-13
-18
-20
-26
-26
-14
-13
-19
-12
-21
-19
-25
-23
-14
-19
-18
-36
-29
-34
-36
-31
-19
-10
-16
-13
-1
-18
-24
-21
-31
-26
-32
-38
-40
-37
-37
-30
-23
-20
-21
-12
8
20
32
47
60
68
68
62
68
88
105
98
111
122
124
108
89
82
63
50
26
-8
-35
-35
-26
-13
2
0
1
-12
-11
-9
-4
-8
-12
-8
-16
-8
-22
-8
-11
-14
-9
-12
-7
-1
-7
-21
-14
-7
-7
0
-2
2
2
-13
-23
-7
-21
-15
-12
-10
-5
1
0
-10
-10
-5
-8
-5
4
0
-3
-4
-2
-3
2
1
-4
-15
-3
4
10
12
9
17
9
4
-12
6
9
6
4
3
-5
4
11
11
15
21
19
18
9
2
5
15
26
28
21
18
19
23
26
26
32
32
34
32
29
36
25
22
29
22
32
39
38
36
37
48
49
55
68
61
52
42
25
18
40
60
58
57
55
48
37
36
39
34
38
48
47
39
26
32
32
24
20
25
19
8
8
3
-3
8
19
-1
-4
9
6
9
0
-4
-10
-5
-18
-25
-26
-18
-3
2
-17
-17
-18
-22
-19
-15
-11
-9
2
9
9
-2
-3
-8
-23
-27
-34
-29
-20
-11
-11
-4
-9
-8
-11
-21
-22
-18
-19
-21
-24
-25
-21
-12
-11
-9
-11
-22
-4
-14
-17
-20
-19
-15
-15
-8
-2
-16
-15
-10
-2
-5
-6
-5
-12
5
16
-2
-17
-4
-13
-13
-14
-4
1
2
7
10
14
-1
-31
-27
-38
-31
-32
-31
-24
-16
-4
-7
-15
-17
-8
-3
-12
-17
-26
-15
-10
-21
-18
-14
-24
-19
-22
-25
-25
-19
-17
-18
-15
-16
-19
-20
-21
-22
-17
-3
-11
-7
-13
-4
-2
-9
-17
-4
12
5
7
10
-5
-29
-37
-36
-31
-25
-26
-10
-4
-17
-40
-36
-27
-23
-29
-25
-22
-13
-21
-17
-21
-8
-6
-25
-26
-21
-31
-28
-25
-28
-31
-24
-17
-17
-16
-16
-22
-16
-23
-22
-22
-20
-20
-22
-23
-14
-10
-7
-4
-6
-8
-17
3
3
-5
-28
-35
-26
-9
-16
-29
-20
-23
-21
-21
-30
-23
-27
-24
-29
-30
-27
-27
-26
-21
-18
-23
-22
-19
-25
-21
-16
-22
-17
-19
-27
-24
-27
-14
-19
-24
-23
-24
-19
-13
-20
-19
-20
-8
2
-7
-9
-6
-12
-6
-23
-13
-11
-20
-25
-22
-9
-22
-16
-10
-24
-23
-15
-27
-27
-20
-28
-30
-35
-22
-11
-9
-8
-3
-7
-16
-15
-21
-9
-10
-10
-8
-23
-17
-16
-11
-15
-22
-18
-2
-9
-3
0
-4
-13
-10
-26
-21
-16
-28
-30
-16
-23
-28
-31
-23
-7
-12
-13
-13
-15
-24
-23
-24
-24
-38
-40
-35
-25
-18
-7
-7
-6
-11
-21
-31
-27
-30
-29
-28
-31
-28
-21
-20
-17
-7
13
29
39
62
74
77
74
89
98
102
104
121
125
128
113
102
90
58
40
16
-13
-40
-33
-13
12
17
13
1
2
-8
-18
-7
0
-26
-20
-14
-6
1
-6
-12
-4
-3
-3
-3
1
-13
-6
-5
-5
3
6
-8
10
3
-11
-14
-2
-1
-4
-7
-6
0
-4
2
6
3
4
9
9
6
1
12
3
1
1
-3
9
10
7
-2
-1
6
-4
-12
5
10
12
16
16
14
-3
-2
10
16
12
12
10
5
15
23
27
19
16
19
23
19
26
31
27
33
39
30
19
21
27
30
37
34
35
42
41
47
50
45
34
47
54
47
59
50
50
45
39
33
39
49
43
45
48
41
49
49
44
41
44
44
35
37
37
34
35
42
32
22
18
29
31
23
25
27
25
10
2
1
17
19
14
18
19
14
-2
-6
-5
-11
-14
-6
7
7
-2
6
-1
11
-7
-18
-20
-25
-16
-11
-20
-37
-26
-21
-18
-25
-24
-15
-5
-2
-7
-6
-14
-14
-15
-10
-2
-6
-11
-10
-11
-8
1
-17
-13
-10
-4
-10
-6
-6
-1
-6
-9
-16
-20
-9
-14
-14
-11
0
-8
-11
-11
-11
-1
13
7
3
-5
1
6
-4
-7
-4
-13
-17
-21
-28
-20
-16
-18
-16
-1
10
1
-4
-9
-16
-18
-22
-12
-12
-8
-1
-15
-16
-15
-7
0
6
5
-1
8
5
-7
-28
-31
-21
-25
-16
-17
-7
-9
-16
-24
-19
-24
-27
-25
-18
-11
-15
-19
-18
-23
-15
-19
-8
-8
-1
-11
-13
-6
-2
-26
-19
-11
-2
-14
-4
-11
-17
-12
-18
-33
-30
-21
-15
-6
1
5
-19
-27
-20
-20
-20
-13
-16
-5
-15
-21
-36
-29
-28
-30
-28
-28
-20
-10
-12
-18
-17
-14
-17
-23
-22
-25
-21
-15
-5
-19
-29
-27
-12
-3
-4
3
0
-5
-23
-21
-23
-8
-1
-8
-1
-4
-3
-11
-26
-26
-35
-18
-17
-33
-30
-16
-10
-7
4
-2
-9
-19
-16
-17
-20
-27
-29
-32
-30
-18
-17
-16
-21
-10
-9
-18
-11
-16
-22
-26
-18
-15
-15
-11
-9
-6
-8
-15
-11
4
2
-10
-18
-20
-12
-4
-17
-18
-10
-13
-21
-12
-8
-10
-19
-28
-21
-17
-28
-16
-14
-11
-11
-8
-7
6
2
-13
-8
-18
-19
-13
-12
-29
-28
-23
-19
-17
-17
-18
-12
-15
-22
-27
-5
-8
-17
-16
-14
-17
-14
-8
-5
-5
-9
-7
-10
-11
-12
-8
0
3
-2
-1
-7
-9
-9
-3
-3
2
2
-1
-7
4
4
-3
5
7
1
7
3
-7
-14
-11
-21
-31
-26
-19
-18
-10
-6
-8
-11
-15
0
-14
-19
-17
-17
-18
-17
-17
-16
-13
-13
-23
-20
-9
-1
-11
-9
-13
-15
-13
-14
-10
-6
-7
-4
-3
0
5
13
-8
-40
-40
-26
-22
-24
-4
9
27
40
51
63
81
90
90
95
91
91
93
100
118
116
109
94
72
54
37
6
-22
-35
-26
-21
-22
-10
5
8
7
6
-3
-3
-2
7
6
1
4
3
4
8
14
11
-3
-16
2
3
6
3
-8
-8
-6
1
6
-1
-6
-1
3
2
0
-12
-10
-9
-8
-5
5
2
-6
-9
5
2
4
6
3
2
-5
-2
14
18
17
6
8
16
15
22
12
11
18
10
12
25
23
26
24
23
21
23
14
14
17
26
21
27
30
24
20
9
16
9
21
15
12
21
23
32
35
31
33
31
26
38
44
48
50
49
36
49
56
51
45
46
52
60
50
43
43
38
51
56
66
45
60
57
46
38
43
50
58
60
61
49
25
33
40
33
35
34
19
18
28
26
14
18
23
19
16
8
-3
-4
-8
-2
-5
1
-5
-7
5
-6
4
7
7
9
-6
-6
-3
9
-8
-16
-2
-1
-4
1
11
8
6
1
-6
-23
-29
-34
-17
-7
-3
-4
-5
-4
-3
-6
-6
-18
-4
-2
-3
6
1
-1
-2
-3
1
-3
-8
-4
-6
-10
-5
-11
-9
-11
-10
-2
10
10
8
6
-6
3
6
-7
-12
-6
-2
2
11
11
3
-3
-5
3
0
1
4
4
7
7
-16
-11
-12
-3
2
2
6
3
-11
-8
-8
-10
-7
-3
-4
0
-5
-9
-3
-13
-16
-5
-6
0
-8
-6
-2
-11
-13
-8
-6
-2
2
-5
5
-5
-16
-17
-22
-9
2
-2
-1
-9
-18
-12
-11
-6
-18
-13
-14
-3
-1
-1
-5
-3
10
5
-6
-18
-18
0
-3
-14
-20
-8
-12
-10
-8
-15
-16
-11
-12
-9
-11
-12
-12
-22
-23
-17
-14
-4
-14
-17
-12
-8
-15
-15
-12
-5
-5
-12
-19
-13
-8
-6
-9
-16
-20
-19
-12
-13
-12
-25
-25
-18
-5
11
23
19
5
3
-2
-21
-23
-9
-13
-14
-9
-16
-24
-17
-4
-5
-8
-14
-12
-13
-6
-5
-6
-4
-15
-8
-11
-15
-14
-4
3
-12
-5
-1
-6
-3
-2
-2
-3
-16
-16
0
17
6
-4
-17
-14
-9
-10
-6
-14
-10
-8
-11
-15
-9
-10
-7
-5
-18
-23
-34
-32
-26
-20
-14
-17
-15
-15
-24
-28
-6
-2
-9
-23
-12
-14
-20
-19
-23
-26
-27
-20
-12
-20
-14
5
18
42
58
73
83
87
85
89
81
75
89
110
121
125
126
102
85
49
24
-8
