80
71
62
69
79
81
77
76
83
74
72
83
82
74
79
80
74
72
69
76
74
75
68
87
81
80
76
70
70
76
75
77
72
61
84
86
75
78
78
78
62
71
70
73
74
74
64
67
82
70
72
76
73
79
72
65
66
77
73
70
66
74
72
71
76
67
62
73
78
67
60
70
72
69
75
67
73
78
75
81
86
78
71
64
71
85
79
73
72
80
75
74
81
78
89
84
91
83
82
91
87
86
75
84
98
86
79
77
82
76
74
75
63
64
78
79
70
67
65
75
70
63
66
73
68
66
72
69
61
55
68
69
63
61
66
61
62
60
67
60
61
64
65
66
65
57
62
64
67
68
69
68
60
59
56
52
55
49
40
39
36
58
62
82
103
129
156
168
186
205
249
250
240
224
199
177
141
120
97
76
50
35
31
25
30
28
36
44
47
62
65
66
71
73
74
65
67
68
64
73
68
57
58
78
78
68
72
67
53
67
74
76
80
81
76
68
67
78
64
66
78
78
66
72
74
78
72
69
76
75
82
77
76
82
80
76
82
76
77
84
79
85
78
80
85
87
77
83
89
80
76
77
80
94
90
91
93
89
90
96
95
89
102
104
101
97
106
115
113
112
121
117
119
123
121
121
126
133
128
133
128
131
131
140
135
141
141
137
139
142
135
130
130
132
122
125
133
114
114
117
113
105
105
97
98
93
95
94
113
96
93
85
85
84
57
61
72
81
59
82
77
77
77
78
71
60
69
78
77
77
72
75
72
70
67
64
67
64
67
73
78
78
78
73
72
69
70
66
65
62
61
64
63
62
70
57
66
72
59
60
67
69
63
79
75
66
60
71
63
57
62
61
69
64
54
67
71
61
66
58
57
68
70
68
64
65
62
62
57
68
60
72
66
57
66
62
58
53
59
57
50
52
59
64
68
60
57
59
51
61
58
49
61
70
57
52
59
60
55
55
57
52
60
59
48
55
57
57
65
65
50
64
58
52
43
55
56
49
62
56
50
60
67
55
56
66
61
64
67
66
58
55
54
49
53
66
74
64
67
65
65
66
72
67
61
67
72
75
67
59
71
73
68
65
70
67
59
53
62
61
62
49
48
47
48
42
44
58
60
55
54
49
54
45
48
48
47
50
53
58
36
33
41
56
43
44
52
43
50
46
40
39
46
55
50
45
44
63
50
32
26
24
21
18
20
20
21
33
51
69
96
127
151
170
192
211
225
233
211
181
168
141
101
87
58
33
17
11
0
14
18
23
32
42
40
35
40
46
48
48
52
42
55
48
58
55
54
59
60
47
50
50
44
46
54
53
58
53
64
55
51
60
49
61
55
56
56
63
62
50
60
58
57
67
63
64
63
56
63
58
66
58
66
62
61
68
73
71
75
72
69
62
60
72
65
68
67
78
86
69
77
68
74
85
77
81
79
93
86
83
93
99
92
99
96
106
105
101
104
102
113
117
130
121
114
114
118
123
120
123
125
131
126
122
123
121
119
119
113
114
116
109
108
103
100
102
105
93
83
92
94
81
86
79
87
69
70
64
69
66
63
62
63
67
57
51
65
69
60
60
64
53
51
63
61
59
60
56
60
60
52
56
64
54
54
51
53
53
53
53
50
50
59
53
46
64
53
52
48
54
55
46
61
58
51
54
62
55
62
49
50
47
52
59
52
55
61
61
46
51
53
58
42
50
51
55
45
48
60
58
52
60
54
55
54
45
43
52
56
55
58
55
50
43
58
61
52
53
51
45
53
46
53
63
49
56
51
42
37
43
50
55
49
51
57
51
42
45
47
57
59
55
51
60
53
51
48
47
55
60
54
47
63
62
66
62
68
50
56
62
56
70
66
65
61
61
56
57
63
68
55
53
46
55
48
49
43
38
50
47
43
40
46
47
50
49
44
35
37
55
36
39
42
44
42
47
45
45
52
42
47
40
41
40
45
56
55
38
42
42
52
52
46
49
46
47
32
24
23
26
34
16
16
29
51
61
79
113
123
149
165
182
192
219
193
179
167
133
111
88
62
25
10
1
-12
6
9
22
24
29
22
30
39
46
43
39
37
48
39
36
39
44
43
33
47
38
35
38
49
33
34
48
39
52
48
45
42
46
41
45
43
40
37
43
46
37
52
45
48
49
43
46
49
45
55
51
51
47
40
45
51
49
54
50
52
46
51
55
51
58
55
57
50
52
57
69
63
66
54
60
71
71
63
71
69
75
71
82
84
81
83
84
85
100
99
96
94
91
91
91
104
113
102
99
104
111
90
105
105
103
103
95
108
104
102
96
93
93
93
83
84
83
68
81
81
74
64
63
66
71
63
56
56
58
61
57
53
54
52
34
45
49
51
56
52
43
46
48
47
43
42
47
48
47
46
50
50
40
48
35
47
47
47
59
53
45
35
51
49
45
42
43
45
43
44
47
48
46
45
42
41
46
57
49
38
44
40
46
46
36
43
48
45
49
45
41
35
42
45
46
52
56
48
40
41
45
57
55
45
39
42
53
46
40
43
51
53
41
41
45
44
44
46
38
33
44
52
53
49
57
56
49
39
45
44
29
47
48
49
42
54
44
44
48
46
37
52
51
48
46
46
41
42
42
34
48
44
48
50
52
51
38
41
45
48
46
44
41
50
49
44
45
40
56
61
45
58
61
48
50
52
58
58
60
62
55
59
61
58
66
60
60
55
57
61
55
52
57
51
49
52
51
41
48
47
49
31
32
42
47
34
43
40
41
40
44
45
45
39
36
36
39
41
44
38
36
45
44
41
44
43
44
40
32
35
36
43
37
40
48
42
34
21
14
7
13
9
7
23
46
47
84
102
121
136
154
175
206
211
202
187
177
152
118
94
73
46
23
9
6
12
8
4
14
17
19
25
42
37
34
37
33
39
36
26
34
40
40
32
38
41
41
33
35
30
28
33
43
35
32
27
37
37
43
39
42
43
41
37
46
37
42
47
36
37
38
30
31
44
45
32
41
37
48
45
40
43
48
55
46
40
47
52
46
42
51
50
45
47
51
48
45
62
50
53
59
64
57
57
58
66
61
72
65
67
75
80
76
81
82
91
90
89
95
96
92
91
100
93
94
95
89
103
104
93
101
96
91
97
92
90
86
96
92
83
76
72
84
78
69
61
68
59
53
50
64
61
48
46
50
57
47
47
37
36
38
57
50
44
47
37
36
38
45
36
41
45
44
33
43
36
40
34
41
35
39
37
48
43
41
39
40
39
36
36
42
32
32
41
38
44
42
42
29
20
39
50
43
34
33
34
39
33
40
42
44
35
41
40
43
39
30
30
25
33
41
36
43
43
39
38
35
40
35
42
48
37
41
39
36
29
40
49
45
38
39
42
41
31
35
40
40
34
40
35
43
30
38
42
46
36
50
48
39
35
53
38
37
36
35
36
49
45
39
34
39
45
41
41
36
37
39
38
47
47
41
37
47
42
43
44
46
41
37
41
43
41
50
30
42
47
34
53
49
50
45
53
57
42
43
40
52
54
58
61
60
58
54
61
60
52
52
56
52
61
47
51
56
57
59
52
47
42
44
45
43
42
37
35
35
27
38
38
40
35
42
46
23
27
33
43
22
40
46
44
34
37
32
41
33
31
38
34
36
35
29
32
39
34
29
39
42
30
27
19
9
8
2
4
6
26
37
46
69
93
124
141
167
186
212
223
209
181
162
142
102
88
68
38
32
14
-2
-2
-4
-4
11
25
14
22
29
35
29
33
25
27
32
25
24
24
34
36
31
33
35
34
32
32
31
25
33
29
35
42
38
38
39
34
22
33
40
43
47
42
45
34
32
33
28
38
41
31
44
36
48
43
42
43
48
49
44
36
35
43
42
49
42
47
51
42
57
56
57
55
51
52
51
64
56
47
64
69
63
64
58
70
80
79
85
83
83
86
84
86
90
91
96
90
92
105
98
95
94
101
119
106
110
100
100
101
108
105
97
92
98
98
88
84
90
90
84
79
70
78
74
65
56
56
59
64
57
52
49
53
50
52
49
54
48
40
41
40
42
46
40
54
41
43
26
38
45
43
31
44
41
46
39
46
47
42
43
43
46
34
34
41
33
36
40
39
44
40
39
45
45
36
42
46
36
33
43
38
39
48
48
43
34
34
42
44
40
38
29
27
37
38
48
44
45
44
38
33
37
38
36
40
54
50
40
33
41
38
41
33
36
42
38
40
38
45
36
41
42
43
40
37
35
45
51
46
37
23
46
49
46
45
46
41
42
38
40
38
41
38
33
30
45
38
30
52
44
40
24
43
47
44
49
44
44
38
45
47
50
51
43
53
65
55
56
54
48
59
59
59
51
56
58
48
47
54
45
41
47
44
48
53
44
36
32
43
36
27
34
39
33
37
35
21
26
32
35
40
42
34
35
29
34
36
31
35
32
30
27
28
37
42
31
32
29
34
24
24
35
32
31
27
20
21
29
17
14
6
8
22
37
43
55
71
95
107
129
149
172
190
188
173
155
139
96
68
56
40
10
-14
-30
-28
-26
-23
-6
-11
-10
10
20
23
24
32
29
28
25
24
23
29
29
27
30
37
33
29
29
30
24
30
34
32
29
37
37
39
28
24
27
34
42
36
30
33
29
34
35
36
30
33
39
42
39
42
32
30
44
39
42
34
37
44
45
35
45
49
57
50
46
48
46
39
48
55
57
52
50
49
54
64
59
62
63
64
70
62
57
68
95
86
86
78
78
78
89
90
86
99
102
96
88
92
98
98
97
89
91
101
95
99
99
98
94
96
83
85
87
87
81
76
79
78
71
69
74
68
54
47
37
47
48
48
43
48
36
27
32
32
22
30
33
42
42
37
28
30
32
28
20
30
34
23
27
29
29
27
24
33
17
21
21
31
32
22
26
40
24
28
23
22
27
23
40
27
23
33
27
33
25
33
31
27
28
30
28
28
23
15
31
31
29
35
36
42
30
34
27
27
36
37
34
34
24
18
19
31
25
27
38
26
26
32
28
25
36
37
36
26
24
24
20
27
31
28
29
25
23
33
28
29
28
26
29
34
31
31
26
16
24
22
27
30
27
21
23
26
29
33
23
22
19
25
30
29
28
25
26
21
15
37
38
32
33
26
32
17
31
47
46
38
44
45
39
36
35
41
49
41
37
34
37
43
39
35
33
31
28
30
27
23
23
26
24
25
21
17
14
17
20
27
24
21
23
19
19
26
15
13
12
21
25
20
8
29
22
17
26
19
12
23
21
22
21
21
15
15
14
13
1
1
1
-2
1
-1
11
20
37
63
95
114
130
139
159
190
195
174
154
134
114
73
45
20
5
-5
-22
-17
-16
-19
-5
6
7
10
5
5
6
9
12
18
14
15
15
12
14
9
19
14
20
20
19
11
10
16
23
19
19
20
13
16
15
23
26
26
20
14
15
19
20
22
14
20
20
24
17
20
19
22
24
30
30
30
22
19
24
18
20
35
26
17
39
42
21
25
27
27
38
37
31
29
39
42
35
38
41
43
45
48
53
51
53
51
55
53
53
58
69
69
67
62
71
84
74
82
80
73
79
76
62
82
89
81
90
83
86
71
71
71
74
77
68
70
68
68
57
54
51
47
51
47
54
40
31
33
39
22
29
24
26
27
25
27
27
24
20
16
15
21
18
32
25
14
10
16
10
16
21
18
18
24
26
28
19
18
21
20
19
16
20
19
16
-6
17
33
13
20
21
22
21
25
21
18
17
19
11
23
24
19
16
15
18
15
19
15
18
19
23
18
22
17
17
19
21
13
11
21
23
18
18
13
18
11
21
26
22
20
23
28
23
20
30
22
19
13
10
24
29
27
18
16
27
24
20
25
14
14
20
14
19
28
28
19
25
19
31
24
24
21
20
27
22
31
19
18
29
23
17
15
30
38
36
25
29
26
20
25
32
33
31
33
33
34
36
31
34
37
38
42
41
45
44
39
37
42
40
43
40
38
45
44
34
27
28
31
33
21
31
33
14
15
32
26
15
19
12
14
23
30
27
26
14
24
34
28
15
15
11
24
22
21
20
24
26
21
20
31
24
20
24
19
21
23
18
12
14
16
9
-7
1
-13
-16
1
21
34
45
69
99
121
137
163
179
201
202
177
151
146
116
84
50
24
5
-8
-20
-10
-16
-15
4
-1
3
12
13
21
18
13
11
11
10
15
14
14
19
24
16
15
20
13
23
22
21
17
15
24
23
11
18
26
19
24
22
18
28
23
21
27
23
17
23
20
23
13
16
21
32
19
23
38
30
33
30
28
27
32
29
24
29
43
31
40
35
39
32
30
31
39
42
44
34
49
48
49
39
51
62
49
54
50
59
66
61
63
58
58
68
80
80
79
65
88
95
91
86
85
92
88
93
101
92
87
88
85
94
96
86
80
89
82
84
73
71
72
73
64
62
59
62
57
52
51
48
43
36
33
29
28
30
34
29
23
30
35
30
34
32
25
30
32
28
34
22
15
23
22
31
33
29
34
30
29
30
26
22
20
23
32
27
25
27
36
39
21
28
22
19
25
18
25
34
36
23
23
25
26
22
21
20
25
29
26
24
23
22
23
23
27
32
26
20
19
30
32
33
27
27
21
24
25
25
32
33
34
34
25
22
28
25
20
29
27
24
19
30
29
29
23
29
38
33
29
32
30
29
24
30
28
36
32
32
32
18
26
34
31
32
26
31
27
38
31
20
20
12
27
36
24
31
34
38
37
19
26
29
31
32
31
36
31
38
39
40
40
38
39
42
36
43
48
45
37
35
43
40
39
56
58
47
36
47
38
40
41
37
29
26
29
31
31
26
29
25
30
33
25
18
28
29
18
22
20
17
16
26
25
25
23
21
23
20
24
27
20
18
20
23
26
30
25
26
23
23
26
19
10
11
19
16
7
10
8
3
-2
-9
11
33
48
81
106
115
129
153
177
199
199
184
160
131
103
78
52
24
6
-17
-30
-23
-29
-20
-15
-9
-4
4
7
14
4
10
22
15
19
17
16
15
25
24
17
23
23
22
17
18
29
27
25
18
20
19
22
20
31
24
25
26
33
23
18
25
25
32
30
28
25
18
26
30
24
31
35
33
24
29
30
23
33
34
36
33
33
39
30
32
42
37
40
40
37
40
48
36
40
49
56
46
48
54
54
60
53
59
63
68
67
64
60
66
75
79
73
78
82
78
81
81
83
90
86
83
88
95
87
85
87
89
93
80
80
83
82
78
80
77
72
65
65
62
60
59
67
44
52
48
37
27
33
42
39
32
34
36
33
22
23
30
22
25
20
21
20
20
20
21
24
26
24
25
19
19
20
20
19
22
14
15
22
14
15
16
20
19
20
16
17
20
17
18
21
26
27
28
15
12
15
22
17
18
26
23
24
25
20
15
17
24
16
19
23
23
11
17
23
24
20
21
9
23
13
19
29
23
33
23
23
29
7
22
19
20
17
22
16
31
17
15
13
13
23
20
17
19
21
12
16
17
16
14
23
18
18
23
29
27
17
14
21
22
22
17
24
30
29
24
19
30
30
29
30
26
32
28
35
32
32
31
28
31
30
22
28
23
27
20
17
9
27
12
23
20
15
14
19
12
13
7
11
8
11
7
9
7
15
10
6
10
10
7
4
0
3
11
12
13
16
6
10
10
11
0
1
15
9
10
12
11
5
6
-6
-2
-13
-5
-10
-8
-4
8
8
32
65
77
98
104
133
156
160
157
141
133
110
87
55
27
1
-21
-31
-38
-46
-39
-41
-29
-22
-25
-22
-3
6
-1
2
1
-4
4
8
8
-1
1
4
9
5
14
11
5
7
5
1
12
7
2
4
6
6
18
19
17
9
5
11
13
9
10
5
1
16
2
14
10
13
10
14
6
18
18
21
16
18
14
13
13
20
22
19
23
22
14
21
29
34
25
31
29
26
26
21
27
36
35
40
39
33
35
53
48
59
56
54
55
54
60
70
68
72
65
70
74
73
72
73
73
78
77
76
79
79
74
69
74
71
73
70
72
63
61
56
55
50
52
50
41
38
39
25
41
43
30
14
15
14
24
15
20
15
10
10
10
11
18
11
12
8
9
10
14
11
11
4
0
2
4
5
9
9
6
7
10
3
5
0
-2
14
10
1
10
2
-9
9
8
5
3
12
12
5
5
6
5
4
10
4
2
12
3
13
6
-1
10
7
13
8
6
4
6
8
8
2
0
8
13
-5
6
12
11
14
13
6
9
7
-1
14
6
6
10
3
10
8
9
9
4
1
2
5
9
5
6
13
5
1
-9
5
8
1
-10
2
10
14
14
4
10
10
-2
-2
5
6
0
0
9
13
14
16
3
-5
-9
16
21
17
7
9
17
14
17
23
12
19
15
20
23
21
16
18
26
17
19
14
12
10
8
9
14
8
3
5
-3
-5
9
5
10
6
4
-6
4
-1
-2
1
0
-1
3
-6
-6
-8
1
2
1
-5
-5
-9
0
1
3
-9
2
-3
2
4
2
-4
0
-1
-5
-1
-7
-17
-14
-16
-31
-31
-42
-35
-26
6
19
28
56
89
112
121
143
170
185
183
156
138
114
89
59
29
3
-21
-39
-37
-60
-40
-24
-14
-13
-25
-23
-15
-13
-5
-1
-5
-2
-6
3
6
-7
-8
-4
-10
0
-5
-2
-1
-5
-13
1
-4
-1
1
4
-5
1
-1
-5
-6
-1
3
8
5
1
-1
1
-1
-4
1
3
-4
-7
-4
7
7
11
7
4
-1
-3
5
1
-2
0
23
17
6
12
11
7
16
13
15
13
18
17
17
18
22
24
15
15
22
37
38
36
42
34
37
43
48
45
56
43
48
51
49
52
53
59
49
65
65
63
57
61
66
65
70
58
64
62
55
64
59
45
48
49
37
44
49
36
32
30
23
28
35
22
27
20
17
13
10
10
5
-1
3
13
7
2
3
-1
-4
3
0
9
13
5
7
5
-2
7
0
-3
-6
8
1
3
-4
9
5
-4
3
4
3
10
-4
-5
4
-1
-1
-5
1
4
5
3
4
0
7
1
-9
-7
2
0
7
4
0
-1
2
5
1
-2
2
-2
-1
4
6
-1
-5
3
-4
1
1
-2
-4
1
5
-3
-1
-1
-1
3
3
5
-5
-6
0
7
3
3
2
0
3
-2
15
2
1
-5
3
-1
1
-2
0
10
11
1
-7
3
4
-1
-1
2
-1
-2
16
8
10
3
11
19
8
2
1
12
21
6
4
12
33
16
16
15
22
16
20
21
19
22
14
7
8
1
1
12
6
5
-3
-1
5
5
1
0
0
-4
3
7
5
7
-4
-4
2
-5
1
7
-4
5
4
6
-5
-6
-3
-4
-6
0
0
6
-3
0
-8
-3
-5
2
1
-1
0
-9
-16
-17
-18
-27
-32
-23
-9
-5
10
38
61
75
110
117
143
156
165
150
139
124
94
65
26
7
-18
-35
-60
-55
-48
-45
-44
-37
-32
-36
-26
-17
-20
-7
-3
-6
-7
-2
-1
-8
0
0
3
-6
-6
-6
-9
-5
-13
-6
4
11
6
2
-1
-3
0
-4
11
2
1
2
4
-3
4
5
-1
1
5
-8
0
4
5
11
7
3
-2
4
8
16
7
6
8
11
13
20
12
17
7
9
10
8
12
22
17
24
20
18
22
25
27
31
25
32
29
26
31
34
34
51
46
45
43
49
52
60
60
57
56
63
67
63
56
61
65
55
65
63
68
61
64
65
64
65
54
51
52
52
54
45
43
35
34
35
30
25
22
22
24
16
21
11
13
5
5
13
12
5
3
0
2
0
-1
-4
4
-3
-5
4
-6
-6
1
-3
-6
5
-4
-9
-9
-4
-1
0
-3
0
-3
-3
-4
-2
-2
-1
-9
-8
-2
-14
-5
7
0
-2
-3
-7
-6
-2
-1
-3
-4
-3
-4
-2
-7
-6
-4
1
8
8
-1
-8
-12
-2
4
7
3
0
1
2
-1
6
-5
9
11
0
-14
1
3
2
5
0
1
-5
4
-1
-7
-7
-1
3
1
-2
1
4
-1
-4
3
9
6
6
7
8
7
8
4
3
-1
3
26
15
16
21
24
20
9
6
10
8
4
8
15
11
9
4
-10
-13
4
6
-4
-2
-7
-11
-13
-4
-9
-10
-13
-13
-15
-8
-11
-16
-10
-18
-11
-16
-18
-8
-17
-9
-3
-14
-12
-20
-15
-12
-7
-15
-21
-9
-10
-6
-7
-13
-12
-13
-15
-11
-24
-26
-31
-23
-29
-25
-34
-25
0
7
32
61
81
95
116
138
156
155
144
123
98
80
54
20
-5
-20
-39
-50
-48
-49
-58
-49
-35
-23
-23
-25
-31
-28
-25
-15
-11
-6
-15
-9
-12
-17
-8
-12
-17
-12
0
-10
-19
-12
-13
-12
-19
-14
-10
-21
-22
-9
-7
-10
-9
-12
-12
-9
-4
-4
-2
-10
-14
-9
-13
-8
-7
-8
-9
-6
-6
-1
2
-4
-7
-2
4
1
-3
-8
-5
-5
-2
5
-4
0
-4
6
10
5
4
19
12
6
10
16
11
21
15
10
21
31
30
29
26
19
29
38
41
41
47
49
43
44
49
44
50
53
53
47
57
46
48
54
48
50
41
51
44
49
41
39
33
28
27
26
15
12
21
16
15
12
0
5
-1
5
5
3
1
1
1
-5
-12
-11
-6
-10
-10
-10
-13
-13
-15
-9
-10
-13
-16
-16
-13
-10
-12
-21
-10
-10
-14
1
-13
-13
-11
-9
-9
-13
-11
-12
-7
-8
-14
-14
-13
-10
-13
-13
-8
-13
-12
-18
-17
-15
-20
-18
-12
-13
-9
-8
2
-14
-9
-11
-9
-17
-13
-12
-15
-21
-15
-8
-11
-21
-8
-6
-3
-8
-10
-10
-8
-8
-12
-16
-15
-16
-8
-12
-10
-9
-8
-10
-9
-13
-3
-5
-12
-7
-6
-10
-9
-14
-6
-11
-11
-11
-14
-20
-3
-12
-18
-20
-10
-11
0
2
-2
-3
-5
0
7
1
-4
2
8
14
6
8
1
-6
9
6
3
5
-1
-1
-5
-4
-5
-5
-6
-6
-12
-17
-13
-7
-10
-13
-12
-16
-21
-15
-27
-32
-8
-8
-10
1
-9
-23
-17
-8
-6
-17
-14
-20
-16
-16
-17
-16
-14
-11
-10
-13
-10
-13
-21
-16
-11
-15
-22
-22
-27
-30
-45
-43
-30
-38
-41
-31
-9
2
21
61
84
98
123
148
154
160
144
129
113
83
63
28
1
-10
-37
-41
-58
-49
-43
-48
-42
-31
-23
-19
-20
-23
-19
-20
-18
-14
-20
-20
-20
-16
-17
-20
-17
-25
-9
-4
-14
-22
-19
-25
-14
-19
-25
-13
-21
-14
-9
-7
-13
-16
-26
-5
-7
-9
-3
-10
-14
-14
-9
-9
-13
-14
-10
-8
-2
-19
-13
-5
-3
-14
-6
-14
-7
-3
-7
-4
1
-9
0
1
-1
-3
-1
0
1
-1
2
3
8
16
15
8
12
10
10
24
25
22
27
37
45
31
34
44
47
41
40
55
50
42
40
46
45
45
47
50
53
51
52
51
62
49
50
46
46
32
31
31
34
29
18
18
15
11
4
7
13
11
10
-5
-3
-1
-5
-12
-7
-6
1
-3
-2
3
-13
-28
-14
-12
-5
-7
-10
-10
-4
-4
-11
-5
-15
-11
-7
-14
-20
-7
-7
-6
-11
-14
-11
-15
-12
-12
-16
-12
-6
-6
-15
-6
-11
-13
-14
-10
-12
-7
-8
-12
-12
-6
-16
-15
-11
-17
-15
-11
-17
-16
-8
-4
-13
-11
-9
-15
-27
-13
-18
-17
-11
-6
-11
-14
-4
-1
-7
-11
-4
-10
-13
-8
-5
-12
-16
-15
-18
-16
-3
-8
-18
-21
-11
-9
-13
-15
-12
-18
-9
-8
-7
-4
-7
-8
-20
-12
3
1
-6
-8
-12
-15
-19
-11
4
-2
-12
-10
-13
-7
-13
-9
-7
1
-6
-1
0
-2
2
-2
2
10
8
5
10
4
6
-5
1
0
10
-4
-9
-3
-5
-9
-7
-14
-12
-19
-19
-16
-6
-21
-17
-12
-9
-2
-12
-17
-22
-20
-15
-13
-15
-18
-21
-19
-17
-12
-13
-9
-12
-25
-23
-25
-20
-20
-13
-19
-13
-22
-21
-14
-10
-13
-18
-20
-26
-36
-37
-33
-43
-45
-41
-22
-12
7
26
59
73
92
111
145
160
157
133
107
102
76
49
20
-8
-30
-44
-60
-56
-56
-56
-50
-42
-39
-31
-26
-25
-24
-20
-26
-14
-18
-14
-17
-25
-15
-14
-19
-16
-15
-19
-21
-23
-19
-13
-12
-14
-18
0
-7
-16
-14
-3
-5
-8
-10
-16
-14
-17
-11
-30
-14
-17
-5
-16
-6
-7
-6
-7
-6
-13
-12
-10
-10
-5
-7
-7
0
-2
-4
-5
-4
2
-3
-9
-2
-6
-6
5
1
5
4
3
4
10
9
14
11
6
22
22
25
25
21
23
22
36
37
48
50
35
33
38
37
45
38
40
46
53
60
52
51
54
52
47
31
41
36
35
46
45
41
39
28
33
26
24
24
26
19
8
7
0
1
10
7
4
2
-3
-8
-1
-6
-8
-10
-2
-13
-17
-13
-5
-10
-9
-7
-6
-11
-12
-12
-19
-11
-3
-14
-7
-3
-11
-19
-18
-2
-12
-11
-7
-10
-16
-13
-5
-10
-15
-16
-10
-13
-17
-11
-15
-19
-11
-13
-9
-4
-11
-15
-14
-17
-8
-9
-7
-16
-15
-3
-13
-9
-14
-16
-21
-17
-10
-9
-9
-8
-12
-8
-10
-12
-11
-12
-15
-12
-7
-11
-17
-9
-11
-8
-4
-6
-7
-21
-16
-5
-13
-12
-10
-13
-15
-16
-21
-25
1
-14
-6
2
-8
-18
-19
-9
-2
-11
-7
-5
-9
-10
-9
-2
-6
-4
-5
-3
-6
-7
-5
-1
-5
6
7
-3
-1
8
3
6
6
9
-3
-11
-7
-8
-10
-9
-13
-4
-10
-13
-8
-17
-13
-25
-7
-18
-17
-17
-16
-16
-26
-21
-11
-8
-18
-17
-15
-21
-7
-8
-27
-21
-17
-13
-19
-27
-14
-23
-24
-17
-20
-15
-17
-17
-16
-15
-12
-21
-27
-27
-29
-28
-33
-46
-44
-46
-28
-28
-11
0
19
45
59
65
83
116
136
134
115
117
102
74
32
19
-5
-27
-40
-48
-50
-52
-52
-48
-36
-39
-36
-30
-24
-22
-19
-18
-20
-25
-28
-20
-20
-23
-23
-22
-20
-29
-21
-21
-20
-21
-17
-12
-22
-23
-12
-28
-15
-14
-30
-24
-27
-24
-9
-7
-16
-10
-10
-16
-19
-13
-18
-12
-16
-19
-17
-11
-12
-17
-12
-17
-9
-9
-7
-6
-6
-13
-8
-11
-13
-9
-13
-8
-12
-15
-3
-2
-3
-1
-4
-3
12
6
-1
4
12
16
10
14
14
8
15
31
30
18
19
18
27
36
14
34
51
38
29
48
50
44
40
42
42
43
44
34
28
29
35
37
35
37
23
19
23
15
12
12
8
9
-3
0
-1
-3
4
-5
-5
-6
-9
-7
-18
-19
-16
-19
-16
-25
-22
-18
-15
-8
-5
-11
-15
-18
-17
-14
-21
-16
-27
-16
-19
-21
-19
-27
-15
-9
-14
-13
-19
-21
-21
-19
-20
-24
-13
-8
-14
-11
-19
-20
-20
-22
-20
-25
-33
-37
-25
-20
-4
-7
-9
-28
-26
-19
-25
-20
-21
-13
-22
-16
-21
-22
-16
-30
-23
-16
-15
-19
-27
-21
-20
-22
-29
-21
-27
-19
-10
-19
-23
-20
-20
-21
-29
-20
-17
-22
-23
-20
-22
-20
-24
-22
-27
-27
-21
-26
-21
-16
-13
-23
-20
-30
-26
-18
-20
-16
-15
-25
-23
-21
-23
-22
-27
-29
-24
-33
-23
-23
-18
-17
-14
-19
-13
-21
-29
-19
-14
-9
-37
-31
-16
-20
-26
-15
-19
-19
-23
-25
-22
-15
-19
-19
-22
-28
-23
-21
-18
-21
-25
-20
-21
-22
-19
-21
-25
-22
-15
-2
-11
-9
-7
-9
-5
-1
-8
-10
-7
-11
-3
-1
-4
-15
-13
0
1
-17
-7
-6
-23
-20
-14
-13
-14
-20
-26
-19
-24
-30
-24
-19
-20
-29
-25
-30
-27
-22
-18
-19
-20
-22
-23
-34
-43
-23
-27
-25
-28
-24
-28
-21
-22
-25
-26
-25
-16
-30
-18
-25
-24
-18
-22
-31
-36
-41
-39
-49
-52
-47
-44
-41
-40
-7
3
25
46
55
81
103
122
137
127
113
104
83
53
32
6
-20
-43
-43
-54
-59
-56
-48
-52
-44
-31
-34
-31
-22
-26
-28
-24
-28
-20
-27
-38
-28
-31
-27
-36
-29
-30
-20
-23
-24
-21
-17
-26
-31
-23
-31
-23
-17
-28
-29
-28
-26
-28
-19
-21
-22
-20
-16
-15
-11
-19
-22
-14
-21
-34
-42
-31
-13
-10
-16
-12
-19
-12
-10
-23
-18
-12
-28
-13
-4
-8
-12
-21
-19
-12
-9
-10
-7
1
0
0
-2
2
11
1
4
-4
11
12
6
15
8
14
28
19
15
21
23
33
27
30
33
38
37
34
30
26
30
37
40
36
33
45
38
37
30
37
33
32
24
10
21
22
19
13
4
8
-7
-2
5
15
5
-5
-11
-13
-16
-16
-20
-10
-12
-20
-13
-20
-13
-23
-28
-25
-19
-18
-17
-18
-22
-19
-22
-23
-18
-20
-23
-19
-21
-22
-26
-21
-21
-21
-29
-34
-17
-9
-20
-20
-20
-25
-23
-24
-23
-18
-27
-28
-18
-15
-21
-25
-26
-29
-28
-26
-14
-23
-22
-24
-23
-24
-27
-29
-23
-28
-24
-21
-20
-20
-23
-23
-25
-43
-37
-20
-27
-22
-29
-17
-12
-25
-34
-21
-21
-27
-31
-29
-24
-26
-26
-25
-25
-25
-31
-15
-16
-25
-28
-24
-24
-23
-32
-25
-24
-27
-29
-22
-26
-27
-25
-25
-33
-24
-25
-23
-29
-26
-24
-17
-26
-30
-32
-22
-19
-26
-21
-21
-25
-22
-35
-38
-23
-25
-27
-23
-25
-23
-29
-25
-19
-25
-25
-30
-31
-33
-32
-29
-22
-21
-15
-26
-27
-25
-32
-27
-28
-26
-25
-28
-29
-21
-24
-25
-24
-20
-23
-21
-21
-19
-22
-38
-23
-13
-10
-26
-20
-23
-25
-20
-16
-24
-21
-10
-20
-20
-6
-11
-10
-16
-13
-8
-13
-17
-21
-20
-13
-12
-22
-15
-22
-24
-29
-20
-27
-12
-23
-24
-29
-26
-33
-29
-33
-28
-23
-28
-18
-24
-34
-33
-27
-24
-23
-24
-25
-32
-24
-27
-33
-32
-31
-36
-42
-28
-33
-28
-21
-27
-32
-33
-39
-34
-40
-45
-44
-43
-49
-45
-51
-54
-43
-36
-26
1
28
59
76
89
115
133
147
129
112
101
84
52
30
10
-23
-50
-64
-69
-64
-56
-56
-55
-51
-43
-42
-46
-40
-35
-34
-35
-35
-38
-36
-36
-37
-30
-35
-31
-38
-36
-26
-33
-32
-32
-36
-23
-30
-28
-26
-29
-37
-31
-27
-28
-24
-22
-29
-33
-35
-26
-31
-21
-23
-23
-30
-24
-17
-24
-22
-22
-27
-15
-20
-20
-18
-22
-20
-30
-25
-24
-21
-21
-18
-18
-24
-19
-6
-14
-16
-7
-8
-22
-19
-14
-9
-5
-8
-2
2
7
8
8
5
3
8
8
18
20
21
27
20
18
18
24
33
26
28
34
36
37
35
35
40
31
29
35
32
31
38
22
23
21
18
15
19
17
8
-2
9
6
3
-6
-5
-8
-6
-5
-8
-20
-19
-17
-21
-21
-22
-33
-28
-31
-28
-27
-17
-22
-17
-20
-22
-26
-29
-30
-24
-24
-26
-35
-32
-24
-27
-24
-40
-24
-25
-26
-31
-31
-26
-18
-25
-27
-26
-25
-29
-33
-25
-25
-26
-22
-25
-27
-30
-40
-34
-35
-22
-31
-32
-26
-32
-34
-30
-28
-27
-26
-27
-25
-28
-25
-34
-27
-25
-24
-24
-30
-30
-30
-25
-30
-28
-30
-20
-27
-22
-29
-23
-29
-23
-26
-29
-28
-25
-27
-30
-30
-26
-18
-24
-31
-34
-29
-26
-23
-29
-33
-25
-29
-21
-24
-26
-25
-30
-28
-32
-30
-36
-24
-35
-21
-20
-25
-20
-21
-23
-28
-26
-25
-22
-24
-26
-25
-22
-29
-25
-29
-38
-35
-22
-22
-20
-25
-23
-28
-24
-26
-24
-25
-21
-30
-38
-33
-26
-27
-20
-19
-21
-20
-24
-18
-23
-26
-25
-15
-16
-21
-14
-12
-17
-12
-17
-15
-10
-19
-11
-7
-8
-2
-15
-11
-15
-22
-15
-21
-12
-20
-23
-16
-23
-29
-30
-32
-31
-24
-19
-21
-25
-34
-37
-32
-33
-33
-37
-27
-24
-21
-29
-25
-31
-40
-31
-24
-28
-30
-27
-16
-25
-32
-32
-32
-34
-28
-29
-25
-32
-27
-38
-37
-38
-33
-41
-42
-33
-40
-57
-58
-33
-21
-6
9
34
48
70
85
104
110
103
93
95
81
52
15
-4
-30
-51
-63
-75
-79
-76
-76
-61
-66
-63
-45
-50
-47
-42
-30
-29
-34
-34
-33
-35
-27
-24
-30
-32
-26
-19
-41
-36
-35
-37
-29
-27
-31
-26
-26
-26
-20
-27
-30
-30
-31
-29
-27
-24
-21
-25
-35
-27
-21
-29
-19
-23
-23
-25
-16
-19
-23
-23
-20
-19
-26
-20
-23
-23
-21
-25
-20
-31
-24
-6
-12
-14
-3
-13
-12
-10
-15
-16
-6
-2
4
7
6
-5
-4
-12
-1
10
21
13
9
9
3
13
19
20
22
31
33
22
26
38
40
32
34
35
41
41
35
30
33
33
27
26
29
34
27
22
20
19
21
23
19
9
10
-2
2
-10
-13
-12
-10
-11
-4
-16
-13
-33
-31
-30
-25
-8
-30
-28
-31
-27
-26
-24
-25
-27
-27
-25
-29
-22
-29
-24
-25
-35
-30
-26
-29
-25
-31
-31
-38
-36
-26
-29
-32
-39
-38
-34
-30
-30
-41
-37
-26
-29
-31
-34
-28
-21
-30
-36
-31
-34
-30
-17
-27
-38
-32
-28
-34
-32
-23
-28
-26
-31
-25
-22
-33
-31
-29
-27
-29
-22
-29
-29
-37
-22
-24
-32
-26
-23
-28
-20
-37
-35
-33
-30
-34
-26
-14
-17
-22
-26
-30
-28
-28
-26
-17
-37
-34
-31
-28
-27
-39
-36
-32
-27
-29
-30
-34
-25
-23
-27
-33
-28
-29
-28
-28
-32
-29
-27
-31
-29
-33
-34
-31
-32
-27
-34
-27
-23
-30
-27
-30
-27
-28
-33
-34
-35
-21
-26
-25
-21
-24
-30
-31
-44
-30
-18
-24
-39
-26
-26
-34
-35
-16
-16
-19
-27
-20
-28
-27
-18
-25
-27
-22
-14
-24
-23
-19
-4
-14
-12
-19
-10
-11
-14
-20
-19
-25
-24
-13
-13
-8
-14
-28
-36
-33
-32
-28
-31
-26
-24
-32
-35
-33
-33
-36
-28
-35
-32
-31
-31
-34
-37
-34
-29
-33
-30
-38
-32
-31
-31
-30
-40
-35
-40
-49
-33
-27
-29
-25
-25
-29
-28
-37
-44
-48
-46
-49
-53
-59
-55
-48
-26
-19
-5
16
43
58
71
93
115
117
111
97
78
65
43
14
-7
-27
-48
-61
-67
-77
-70
-61
-60
-57
-53
-47
-39
-42
-40
-34
-35
-35
-39
-37
-33
-31
-36
-31
-29
-33
-28
-40
-35
-35
-30
-23
-31
-33
-31
-33
-29
-34
-28
-31
-36
-31
-33
-30
-34
-30
-30
-29
-30
-28
-32
-27
-21
-24
-29
-31
-27
-23
-25
-22
-25
-27
-27
-22
-20
-27
-23
-12
-18
-25
-23
-15
-17
-17
-16
-16
-15
-15
-16
-12
-8
-9
-11
-7
-7
-9
4
1
-3
3
12
6
11
17
10
14
14
22
19
27
28
29
35
32
29
26
21
32
39
31
28
31
29
37
28
36
28
23
23
23
16
17
13
4
-1
-1
-2
6
1
-2
-3
-14
-17
-12
-22
-25
-20
-16
-22
-24
-25
-24
-22
-19
-23
-16
-22
-30
-32
-23
-28
-31
-25
-22
-34
-31
-28
-28
-29
-30
-25
-32
-34
-35
-18
-48
-38
-30
-25
-28
-23
-25
-25
-28
-28
-37
-42
-39
-17
-28
-28
-30
-35
-30
-30
-35
-32
-32
-34
-31
-32
-25
-29
-27
-28
-28
-29
-31
-32
-32
-28
-35
-33
-38
-28
-29
-32
-26
-26
-28
-31
-33
-35
-34
-28
-29
-30
-30
-24
-25
-35
-36
-29
-29
-34
-27
-36
-34
-37
-29
-25
-22
-28
-27
-27
-32
-32
-28
-32
-25
-25
-32
-34
-33
-31
-27
-34
-34
-43
-33
-23
-32
-28
-21
-31
-26
-28
-35
-31
-29
-36
-35
-37
-33
-29
-27
-30
-36
-37
-29
-25
-30
-30
-32
-34
-32
-33
-29
-30
-32
-32
-31
-32
-36
-30
-31
-27
-28
-22
-32
-33
-32
-27
-26
-26
-30
-28
-25
-27
-23
-22
-19
-22
-19
-15
-18
-22
-21
-13
-17
-19
-12
-12
-27
-29
-28
-27
-17
-19
-22
-28
-27
-41
-28
-29
-34
-39
-31
-35
-35
-33
-33
-33
-37
-39
-40
-39
-36
-38
-42
-42
-38
-36
-38
-42
-39
-42
-44
-33
-32
-44
-37
-43
-39
-35
-39
-27
-34
-41
-38
-32
-38
-45
-60
-61
-59
-63
-67
-55
-51
-35
-28
-5
18
49
64
71
95
121
130
117
100
87
58
36
13
-16
-32
-52
-72
-72
-76
-80
-71
-67
-48
-47
-44
-42
-49
-42
-43
-39
-42
-46
-39
-38
-48
-42
-43
-39
-34
-43
-43
-39
-37
-42
-39
-33
-43
-46
-40
-29
-42
-25
-32
-38
-35
-35
-38
-40
-42
-36
-38
-37
-42
-37
-32
-38
-39
-29
-26
-32
-32
-31
-31
-34
-37
-25
-33
-33
-28
-36
-27
-25
-21
-33
-20
-23
-35
-33
-17
-20
-21
-21
-26
-19
-12
-6
-13
-13
-13
-11
-11
-8
0
3
3
8
7
-3
18
10
5
14
10
22
22
23
14
27
29
25
24
19
21
29
29
21
19
15
21
17
16
18
13
4
10
11
7
0
-6
-7
-6
-8
-10
-11
-18
-22
-20
-22
-31
-28
-20
-33
-32
-29
-23
-31
-32
-35
-34
-40
-33
-41
-35
-27
-31
-32
-34
-38
-39
-35
-28
-43
-43
-37
-28
-27
-31
-30
-33
-29
-33
-44
-41
-36
-35
-30
-43
-39
-42
-50
-31
-31
-39
-36
-41
-43
-40
-33
-42
-36
-40
-37
-36
-35
-34
-36
-42
-37
-47
-40
-38
-34
-41
-39
-45
-38
-32
-37
-38
-39
-41
-40
-33
-37
-42
-36
-36
-32
-37
-29
-30
-33
-37
-41
-38
-39
-46
-40
-38
-43
-43
-28
-31
-40
-37
-40
-33
-45
-45
-31
-34
-36
-27
-34
-41
-43
-34
-42
-30
-34
-34
-31
-32
-38
-42
-47
-38
-37
-41
-42
-38
-45
-33
-26
-39
-31
-37
-40
-40
-45
-39
-36
-36
-37
-31
-36
-35
-53
-41
-37
-32
-48
-26
-35
-33
-30
-33
-36
-43
-40
-38
-38
-29
-26
-27
-29
-15
-24
-23
-29
-28
-23
-30
-28
-34
-27
-22
-26
-21
-19
-25
-27
-25
-22
-26
-30
-26
-29
-29
-28
-36
-40
-39
-31
-34
-35
-39
-45
-42
-46
-46
-41
-49
-47
-44
-44
-40
-37
-28
-34
-50
-48
-37
-40
-43
-53
-48
-40
-40
-47
-48
-37
-44
-50
-43
-41
-39
-41
-41
-42
-49
-53
-61
-67
-68
-73
-70
-62
-56
-38
-29
-10
22
45
62
77
106
125
125
123
102
87
65
26
-1
-16
-43
-65
-74
-93
-91
-72
-63
-64
-75
-68
-63
-46
-58
-47
-48
-56
-52
-43
-50
-46
-49
-56
-56
-46
-45
-39
-52
-59
-69
-69
-68
-57
-51
-53
-51
-44
-53
-46
-43
-35
-36
-48
-46
-52
-33
-39
-41
-46
-48
-32
-39
-45
-49
-36
-40
-49
-41
-31
-32
-35
-35
-43
-42
-47
-48
-33
-34
-34
-32
-11
-29
-35
-43
-34
-28
-28
-20
-25
-38
-9
-32
-28
-27
-22
-23
-19
-19
-22
-4
-2
-2
-5
-5
1
7
5
-2
-6
9
20
24
10
17
10
8
26
20
29
15
22
19
10
8
10
21
21
17
15
9
1
7
3
-3
-9
-15
-6
-16
-16
-18
-18
-23
-35
-32
-31
-33
-36
-31
-37
-41
-43
-43
-43
-40
-41
-36
-38
-37
-44
-37
-45
-48
-55
-32
-33
-51
-32
-32
-41
-35
-49
-57
-51
-39
-49
-46
-41
-49
-57
-51
-57
-53
-43
-46
-51
-41
-49
-43
-47
-42
-46
-46
-42
-46
-56
-54
-50
-58
-59
-43
-29
-44
-59
-44
-41
-47
-43
-39
-39
-49
-50
-31
-48
-45
-41
-44
-33
-27
-40
-56
-59
-50
-33
-44
-48
-47
-48
-43
-54
-44
-49
-46
-41
-45
-49
-45
-43
-41
-50
-40
-37
-40
-37
-46
-50
-50
-41
-41
-42
-45
-47
-42
-36
-41
-42
-45
-38
-49
-48
-51
-40
-39
-42
-39
-40
-36
-28
-40
-32
-36
-57
-50
-21
-33
-29
-34
-33
-34
-37
-36
-31
-35
-25
-25
-25
-27
-21
-22
-23
-18
-24
-22
-16
-25
-21
-19
-25
-22
-16
-21
-35
-35
-18
-27
-22
-38
-36
-32
-32
-32
-43
-32
-30
-38
-33
-26
-46
-34
-31
-34
-39
-38
-37
-41
-43
-46
-41
-35
-42
-39
-42
-41
-39
-40
-47
-39
-36
-37
-39
-30
-37
-36
-40
-36
-43
-38
-38
-53
-64
-59
-65
-61
-59
-55
-34
-21
4
34
63
87
103
125
154
163
158
133
111
90
46
3
-24
-39
-71
-79
-93
-95
-87
-79
-73
-71
-57
-60
-38
-47
-46
-51
-42
-46
-30
-41
-42
-40
-33
-39
-43
-40
-45
-44
-42
-43
-44
-46
-36
-44
-50
-39
-38
-33
-41
-48
-41
-37
-46
-30
-35
-38
-34
-40
-35
-33
-27
-36
-47
-43
-42
-47
-47
-34
-36
-35
-37
-28
-28
-30
-34
-38
-38
-37
-37
-29
-34
-25
-28
-23
-23
-25
-27
-25
-16
-24
-17
-24
-14
-12
-18
-6
-4
-8
3
4
0
3
-1
5
15
12
11
16
8
17
26
23
19
27
26
26
25
26
24
19
27
22
15
22
26
21
20
19
15
4
4
4
4
5
-1
-3
-5
-12
-14
-27
-34
-23
-22
-23
-29
-29
-40
-38
-33
-31
-37
-46
-37
-32
-40
-36
-38
-37
-41
-32
-50
-42
-51
-50
-44
-30
-41
-47
-45
-44
-46
-42
-40
-40
-42
-51
-50
-46
-52
-44
-34
-34
-33
-43
-44
-50
-39
-52
-42
-38
-40
-39
-37
-29
-41
-50
-44
-54
-45
-48
-43
-28
-42
-41
-36
-45
-39
-32
-42
-38
-40
-42
-42
-41
-44
-32
-35
-35
-41
-34
-36
-36
-39
-43
-42
-45
-51
-32
-26
-36
-43
-43
-32
-34
-38
-34
-41
-49
-48
-31
-32
-36
-41
-36
-31
-31
-40
-38
-45
-46
-36
-20
-29
-40
-36
-30
-24
-19
-31
-21
-24
-27
-29
-28
-17
-21
-25
-23
-25
-30
-29
-28
-22
-31
-30
-32
-33
-34
-38
-34
-41
-51
-46
-52
-41
-38
-32
-44
-48
-44
-38
-39
-40
-42
-56
-52
-46
-49
-51
-44
-42
-45
-48
-44
-42
-45
-45
-53
-52
-47
-43
-35
-37
-34
-61
-62
-56
-55
-51
-52
-54
-62
-68
-57
-47
-42
-33
-11
12
36
53
68
81
96
93
77
71
46
15
-9
-21
-43
-68
-105
-106
-94
-91
-93
-92
-86
-76
-81
-61
-41
-43
-55
-58
-61
-47
-49
-55
-43
-43
-44
-52
-50
-49
-47
-47
-44
-44
-39
-41
-49
-44
-37
-55
-47
-40
-42
-40
-46
-43
-37
-45
-37
-41
-45
-40
-44
-36
-40
-37
-43
-49
-40
-35
-42
-30
-39
-45
-35
-29
-30
-22
-31
-49
-43
-35
-38
-34
-25
-27
-23
-28
-28
-28
-30
-24
-15
-22
-10
-14
-16
-18
-9
-13
-14
-11
-3
-6
4
7
3
0
14
11
4
13
23
20
18
6
25
26
18
21
25
22
15
15
21
29
30
20
18
10
16
15
11
6
-4
-2
-15
-23
-13
-8
-13
-19
-21
-22
-23
-25
-28
-36
-38
-43
-30
-28
-37
-42
-39
-38
-41
-39
-37
-48
-43
-40
-47
-40
-42
-42
-47
-46
-47
-50
-55
-53
-56
-49
-39
-41
-46
-39
-43
-45
-45
-47
-57
-57
-47
-40
-48
-45
-55
-50
-39
-43
-55
-41
-39
-42
-44
-41
-30
-40
-48
-51
-48
-40
-41
-34
-47
-42
-41
-52
-51
-45
-49
-41
-43
-43
-51
-49
-45
-43
-43
-40
-45
-43
-39
-33
-39
-42
-49
-42
-49
-51
-47
-50
-41
-52
-46
-22
-46
-46
-40
-33
-37
-44
-39
-37
-43
-32
-32
-32
-34
-33
-35
-24
-26
-26
-35
-31
-28
-33
-28
-29
-37
-36
-39
-34
-37
-42
-38
-34
-42
-42
-50
-47
-46
-47
-47
-43
-55
-58
-53
-52
-54
-49
-49
-46
-48
-54
-54
-61
-49
-46
-47
-52
-55
-63
-54
-47
-55
-53
-50
-57
-47
-47
-60
-50
-51
-55
-56
-57
-52
-56
-62
-66
-56
-64
-74
-82
-76
-61
-44
-30
-19
5
30
48
66
84
101
108
90
65
54
47
19
-16
-43
-56
-76
-96
-98
-101
-96
-92
-84
-88
-80
-72
-65
-60
-54
-56
-49
-47
-49
-53
-58
-52
-57
-54
-54
-67
-65
-62
-45
-50
-56
-47
-47
-51
-55
-55
-56
-51
-52
-56
-48
-43
-54
-59
-52
-58
-52
-51
-44
-55
-51
-42
-36
-46
-53
-52
-48
-50
-48
-45
-47
-47
-45
-33
-39
-47
-44
-43
-46
-57
-51
-34
-36
-33
-36
-42
-38
-32
-30
-31
-21
-31
-35
-24
-18
-24
-19
-12
-16
-19
-15
-7
-6
-6
-11
-10
-8
12
5
2
7
9
10
16
2
-3
16
17
11
13
6
-1
0
2
7
8
15
-3
-8
-5
4
-10
-17
-8
-21
-29
-26
-17
-15
-24
-35
-43
-43
-31
-40
-52
-48
-49
-46
-50
-51
-48
-46
-43
-50
-54
-52
-54
-47
-53
-65
-60
-55
-63
-53
-46
-50
-44
-61
-57
-54
-72
-66
-52
-46
-43
-49
-49
-51
-51
-57
-57
-51
-48
-50
-51
-44
-44
-64
-55
-55
-57
-54
-56
-53
-52
-52
-56
-58
-45
-51
-56
-51
-51
-56
-49
-53
-52
-54
-49
-49
-44
-47
-49
-57
-49
-54
-59
-55
-48
-48
-58
-54
-47
-49
-44
-46
-55
-59
-51
-47
-58
-46
-51
-56
-48
-49
-38
-44
-37
-44
-34
-56
-45
-51
-52
-45
-41
-42
-40
-48
-52
-46
-33
-44
-48
-41
-30
-34
-38
-44
-37
-42
-42
-48
-45
-43
-39
-45
-52
-57
-60
-58
-45
-49
-57
-59
-56
-71
-69
-64
-64
-61
-51
-50
-51
-60
-52
-54
-57
-61
-54
-55
-61
-70
-62
-60
-57
-65
-60
-55
-44
-51
-51
-59
-65
-65
-62
-57
-56
-67
-66
-65
-75
-79
-88
-80
-79
-88
-65
-62
-39
-2
7
25
50
61
78
102
118
102
73
64
46
9
-26
-46
-71
-75
-98
-97
-92
-86
-90
-91
-82
-75
-72
-60
-65
-65
-65
-64
-62
-68
-66
-65
-59
-60
-63
-54
-49
-56
-63
-54
-64
-65
-48
-65
-67
-61
-54
-55
-60
-54
-67
-64
-72
-59
-51
-56
-46
-61
-55
-56
-49
-58
-56
-50
-50
-59
-53
-57
-54
-52
-49
-44
-45
-51
-58
-52
-50
-47
-44
-51
-53
-57
-48
-45
-47
-51
-43
-42
-40
-40
-37
-33
-27
-38
-24
-24
-30
-27
-24
-18
-23
-31
-19
-16
-10
-7
-5
-1
2
4
1
1
-5
-1
3
-1
1
3
9
2
7
14
9
8
-3
-9
1
-1
-3
-3
-14
-19
-18
-22
-19
-14
-26
-32
-31
-34
-37
-35
-34
-29
-46
-43
-39
-47
-42
-50
-41
-60
-60
-47
-47
-47
-48
-55
-50
-45
-52
-54
-53
-51
-49
-45
-48
-57
-53
-46
-41
-49
-43
-59
-60
-59
-56
-45
-48
-53
-47
-41
-50
-61
-54
-48
-45
-53
-52
-64
-53
-56
-55
-57
-49
-37
-45
-56
-55
-50
-47
-52
-52
-46
-53
-60
-55
-43
-43
-51
-61
-56
-42
-37
-48
-47
-46
-49
-49
-47
-45
-52
-64
-50
-43
-37
-57
-63
-42
-49
-51
-41
-46
-49
-43
-45
-48
-48
-45
-47
-54
-45
-52
-54
-50
-45
-49
-53
-42
-42
-38
-41
-42
-41
-45
-38
-42
-42
-33
-47
-46
-44
-43
-38
-38
-40
-32
-36
-29
-29
-36
-28
-20
-32
-28
-29
-38
-31
-33
-35
-41
-41
-47
-51
-53
-42
-27
-42
-47
-50
-50
-47
-52
-44
-48
-46
-36
-51
-46
-47
-50
-54
-53
-52
-39
-35
-48
-52
-54
-57
-51
-55
-48
-50
-50
-52
-55
-52
-46
-52
-55
-52
-44
-46
-48
-52
-61
-67
-69
-89
-81
-64
-63
-46
-32
-21
-8
35
51
60
76
109
111
114
97
74
57
29
-3
-27
-52
-71
-76
-82
-81
-93
-92
-78
-73
-67
-65
-61
-53
-39
-43
-54
-49
-56
-60
-53
-51
-55
-55
-52
-45
-45
-40
-38
-42
-50
-52
-51
-48
-55
-35
-41
-45
-44
-39
-45
-42
-40
-52
-49
-42
-33
-41
-43
-40
-40
-39
-43
-46
-47
-36
-43
-29
-32
-36
-35
-41
-39
-45
-41
-36
-34
-41
-36
-40
-26
-31
-38
-36
-25
-19
-16
-24
-21
-26
-32
-18
-16
-22
-26
-19
-16
-11
-8
-2
3
-2
4
-8
-4
3
-2
8
7
14
-8
6
15
14
25
24
24
23
23
23
11
4
9
12
20
14
8
12
9
6
2
2
-11
-14
-9
-17
-8
-13
-21
-15
-32
-27
-24
-33
-31
-26
-28
-33
-36
-31
-36
-38
-42
-40
-38
-35
-36
-37
-44
-40
-42
-39
-37
-42
-45
-40
-37
-38
-31
-37
-32
-26
-41
-45
-48
-38
-43
-45
-45
-40
-46
-50
-48
-45
-42
-40
-37
-37
-45
-43
-50
-43
-47
-48
-44
-39
-37
-43
-44
-40
-35
-45
-49
-43
-41
-39
-40
-40
-39
-38
-34
-29
-43
-37
-37
-44
-52
-42
-40
-39
-36
-35
-44
-44
-39
-49
-42
-39
-44
-46
-39
-32
-39
-31
-35
-54
-36
-40
-35
-39
-45
-47
-42
-44
-44
-42
-46
-42
-35
-40
-50
-43
-31
-29
-30
-35
-33
-31
-30
-37
-34
-35
-31
-33
-29
-36
-27
-32
-30
-25
-24
-21
-11
-16
-25
-30
-14
-13
-24
-35
-42
-36
-38
-41
-35
-46
-46
-43
-47
-37
-39
-40
-38
-46
-41
-45
-47
-53
-53
-40
-41
-49
-41
-36
-35
-40
-39
-43
-43
-47
-42
-40
-42
-47
-39
-38
-43
-39
-50
-48
-45
-47
-36
-31
-39
-38
-42
-53
-57
-64
-63
-71
-66
-59
-40
-24
-5
10
39
53
56
86
106
121
108
90
78
56
33
6
-14
-36
-58
-73
-84
-84
-78
-80
-72
-63
-66
-62
-42
-42
-43
-38
-45
-42
-47
-44
-43
-36
-31
-39
-39
-41
-42
-42
-48
-41
-35
-42
-44
-35
-32
-35
-34
-30
-38
-34
-37
-39
-36
-36
-35
-35
-38
-43
-45
-39
-34
-34
-30
-29
-34
-26
-24
-31
-40
-28
-33
-37
-26
-32
-28
-17
-17
-25
-37
-32
-29
-24
-20
-20
-17
-21
-26
-19
-16
-18
-12
-12
-17
-20
-11
-15
-8
3
8
2
1
11
0
6
10
11
13
21
21
12
19
30
25
19
22
19
22
27
42
19
31
31
27
20
12
28
25
17
15
-1
3
5
7
10
-6
-12
-6
-11
-12
-17
-25
-20
-29
-20
-23
-21
-25
-21
-36
-35
-26
-27
-34
-35
-30
-20
-28
-40
-37
-35
-50
-29
-31
-41
-34
-36
-43
-37
-32
-38
-50
-36
-26
-44
-39
-29
-37
-43
-28
-28
-35
-47
-40
-40
-34
-32
-36
-34
-28
-37
-35
-36
-34
-41
-37
-38
-36
-44
-43
-33
-33
-33
-36
-39
-35
-35
-34
-56
-50
-44
-41
-32
-35
-31
-32
-33
-36
-37
-43
-31
-36
-28
-49
-35
-29
-34
-43
-46
-37
-38
-34
-39
-23
-28
-44
-35
-37
-33
-33
-37
-34
-33
-40
-35
-38
-31
-33
-39
-39
-47
-44
-43
-34
-28
-30
-31
-42
-36
-38
-45
-43
-38
-37
-40
-33
-35
-43
-44
