-69
-59
-62
-70
-70
-65
-66
-63
-56
-62
-66
-76
-81
-73
-68
-64
-71
-68
-68
-74
-67
-68
-77
-79
-74
-69
-73
-66
-58
-66
-67
-64
-67
-73
-81
-74
-71
-67
-70
-70
-73
-69
-72
-67
-70
-66
-67
-71
-72
-78
-71
-63
-72
-71
-67
-75
-75
-66
-62
-72
-73
-71
-78
-78
-76
-73
-75
-77
-79
-81
-84
-78
-71
-65
-68
-80
-75
-71
-73
-79
-63
-72
-80
-85
-77
-66
-74
-68
-76
-80
-74
-73
-81
-76
-73
-76
-64
-68
-76
-82
-72
-75
-79
-85
-76
-77
-71
-70
-71
-75
-66
-66
-73
-83
-80
-79
-80
-68
-69
-82
-79
-83
-87
-79
-82
-81
-73
-80
-81
-80
-77
-78
-81
-80
-83
-79
-80
-79
-79
-75
-80
-75
-76
-77
-79
-80
-71
-78
-80
-78
-84
-86
-83
-79
-80
-82
-71
-70
-73
-77
-74
-76
-76
-78
-89
-93
-89
-76
-79
-90
-81
-79
-90
-76
-78
-73
-68
-72
-73
-92
-84
-84
-79
-86
-85
-82
-81
-76
-74
-85
-78
-83
-77
-73
-80
-84
-74
-70
-71
-72
-70
-82
-81
-62
-73
-84
-76
-78
-82
-79
-65
-70
-76
-74
-77
-77
-69
-71
-84
-83
-75
-79
-78
-80
-95
-85
-71
-82
-84
-80
-81
-86
-87
-83
-76
-74
-78
-86
-83
-81
-81
-88
-98
-88
-92
-86
-77
-89
-88
-84
-87
-81
-86
-90
-81
-74
-81
-90
-87
-91
-88
-83
-85
-81
-84
-86
-105
-96
-86
-82
-84
-81
-81
-84
-84
-81
-74
-84
-89
-84
-88
-84
-85
-73
-71
-67
-58
-57
-43
-34
-33
-37
-36
-35
-47
-53
-50
-49
-50
-55
-60
-75
-83
-98
-101
-93
-80
-97
-102
-88
-88
-77
-69
-71
-71
-81
-74
-76
-82
-79
-81
-80
-81
-80
-77
-77
-78
-78
-78
-83
-77
-75
-81
-78
-78
-80
-78
-69
-72
-72
-77
-80
-81
-77
-74
-73
-71
-84
-70
-70
-82
-78
-74
-65
-74
-78
-74
-73
-82
-81
-86
-81
-78
-71
-71
-65
-76
-77
-75
-71
-73
-73
-66
-75
-71
-67
-67
-71
-73
-69
-69
-65
-67
-62
-69
-66
-57
-62
-65
-65
-69
-62
-59
-61
-60
-43
-45
-47
-72
-60
-52
-56
-52
-54
-41
-38
-44
-49
-43
-37
-45
-45
-48
-41
-35
-24
-36
-44
-46
-42
-43
-36
-40
-48
-45
-30
-30
-38
-40
-39
-40
-47
-50
-47
-48
-44
-53
-57
-60
-60
-66
-50
-53
-87
-77
-70
-74
-72
-74
-81
-84
-87
-88
-90
-86
-76
-80
-88
-88
-86
-86
-89
-85
-91
-93
-100
-102
-104
-93
-95
-86
-82
-95
-96
-86
-96
-103
-100
-93
-111
-111
-94
-96
-88
-87
-95
-89
-87
-93
-95
-103
-96
-100
-99
-98
-92
-93
-94
-89
-93
-99
-94
-89
-88
-89
-83
-98
-101
-93
-88
-90
-88
-94
-98
-88
-94
-95
-94
-100
-103
-93
-82
-90
-105
-100
-84
-84
-93
-110
-100
-91
-95
-94
-95
-90
-94
-95
-95
-93
-103
-95
-93
-93
-98
-93
-91
-93
-95
-101
-101
-97
-96
-96
-102
-92
-93
-92
-98
-106
-109
-101
-91
-94
-93
-96
-104
-96
-103
-102
-107
-103
-99
-101
-100
-93
-102
-100
-97
-96
-91
-100
-105
-105
-102
-92
-99
-99
-98
-99
-108
-99
-99
-104
-103
-94
-98
-105
-113
-113
-104
-106
-107
-107
-101
-98
-98
-99
-101
-105
-108
-101
-97
-98
-104
-100
-108
-97
-93
-96
-106
-110
-111
-107
-110
-114
-114
-102
-98
-106
-107
-103
-108
-107
-103
-94
-105
-102
-101
-107
-106
-112
-112
-97
-102
-97
-102
-109
-111
-105
-98
-101
-105
-107
-104
-101
-109
-108
-104
-110
-106
-109
-108
-111
-104
-92
-99
-111
-111
-107
-100
-103
-98
-94
-91
-103
-110
-111
-107
-104
-106
-96
-96
-96
-91
-94
-98
-102
-94
-105
-103
-97
-94
-100
-91
-99
-103
-106
-104
-109
-111
-101
-113
-100
-92
-99
-108
-101
-108
-112
-109
-106
-107
-104
-107
-117
-105
-106
-99
-102
-110
-118
-109
-106
-105
-114
-109
-105
-106
-117
-104
-99
-109
-99
-107
-118
-105
-103
-113
-112
-106
-103
-105
-103
-109
-108
-111
-110
-108
-109
-107
-115
-118
-104
-106
-113
-121
-116
-109
-109
-105
-99
-98
-81
-87
-72
-79
-79
-64
-62
-60
-57
-62
-66
-71
-75
-74
-68
-76
-77
-81
-93
-104
-108
-123
-116
-113
-112
-117
-119
-98
-108
-105
-89
-100
-101
-99
-98
-93
-88
-91
-99
-105
-99
-94
-97
-102
-100
-104
-104
-100
-100
-100
-93
-98
-104
-104
-107
-107
-104
-97
-89
-88
-92
-98
-97
-101
-94
-90
-88
-108
-112
-105
-105
-100
-97
-101
-104
-93
-91
-90
-88
-94
-96
-96
-94
-93
-91
-94
-101
-102
-89
-87
-78
-84
-85
-88
-85
-90
-92
-93
-86
-82
-81
-88
-85
-87
-86
-90
-83
-79
-85
-89
-80
-75
-62
-72
-75
-75
-70
-78
-84
-66
-60
-65
-74
-69
-67
-64
-58
-54
-64
-59
-62
-66
-58
-52
-58
-54
-45
-53
-61
-51
-56
-55
-55
-62
-65
-61
-51
-56
-76
-68
-68
-60
-59
-60
-67
-88
-86
-91
-89
-80
-86
-91
-96
-93
-91
-102
-98
-101
-102
-100
-108
-114
-106
-98
-113
-115
-111
-108
-125
-102
-108
-110
-113
-112
-110
-111
-110
-111
-116
-120
-106
-99
-103
-113
-128
-113
-107
-107
-106
-101
-112
-112
-110
-113
-119
-113
-109
-107
-110
-112
-110
-105
-107
-110
-109
-105
-114
-111
-107
-101
-103
-118
-116
-108
-114
-122
-108
-97
-101
-97
-97
-106
-104
-97
-104
-100
-104
-110
-109
-107
-109
-110
-114
-110
-104
-103
-96
-100
-108
-98
-114
-114
-109
-110
-110
-108
-93
-98
-105
-104
-113
-107
-105
-105
-107
-104
-104
-113
-103
-93
-97
-107
-108
-107
-106
-98
-107
-108
-116
-110
-115
-110
-108
-103
-106
-102
-110
-119
-104
-94
-108
-113
-114
-106
-109
-104
-92
-101
-99
-107
-107
-100
-104
-106
-109
-111
-106
-106
-106
-105
-105
-105
-108
-105
-106
-109
-111
-110
-104
-102
-107
-99
-106
-106
-106
-104
-111
-116
-112
-109
-114
-105
-102
-98
-104
-107
-112
-118
-118
-101
-93
-86
-116
-114
-114
-116
-111
-107
-106
-108
-109
-113
-112
-116
-115
-113
-111
-110
-103
-99
-111
-106
-103
-119
-108
-105
-111
-118
-110
-113
-107
-103
-105
-108
-112
-102
-110
-108
-107
-96
-100
-104
-104
-101
-101
-99
-103
-94
-93
-99
-100
-100
-113
-108
-102
-101
-106
-112
-108
-115
-117
-108
-109
-111
-106
-108
-112
-112
-103
-107
-108
-108
-118
-112
-110
-111
-124
-115
-109
-114
-115
-112
-117
-119
-120
-111
-104
-110
-117
-117
-111
-107
-113
-114
-112
-101
-104
-101
-124
-117
-111
-114
-113
-115
-117
-115
-107
-102
-106
-111
-120
-107
-122
-125
-126
-119
-121
-122
-112
-116
-124
-120
-122
-103
-94
-92
-87
-78
-74
-68
-62
-58
-61
-72
-76
-71
-79
-65
-60
-75
-94
-93
-111
-121
-130
-122
-118
-114
-106
-119
-110
-108
-109
-110
-111
-107
-96
-93
-105
-109
-110
-108
-112
-100
-108
-124
-114
-111
-102
-104
-106
-104
-111
-107
-108
-114
-106
-102
-103
-110
-101
-95
-99
-98
-106
-103
-98
-93
-95
-99
-104
-100
-99
-94
-101
-96
-93
-91
-98
-100
-104
-120
-112
-94
-94
-100
-100
-100
-104
-92
-92
-97
-99
-100
-93
-102
-102
-91
-94
-94
-92
-89
-98
-88
-91
-86
-91
-76
-79
-88
-84
-85
-83
-85
-89
-86
-73
-64
-70
-74
-69
-69
-76
-80
-76
-72
-67
-67
-66
-68
-68
-72
-66
-61
-60
-68
-61
-56
-66
-67
-58
-67
-69
-62
-58
-61
-66
-66
-61
-63
-66
-58
-65
-73
-72
-76
-78
-73
-83
-86
-71
-76
-75
-74
-89
-96
-94
-93
-101
-101
-100
-105
-104
-108
-101
-100
-103
-114
-116
-109
-105
-119
-117
-113
-118
-121
-115
-104
-99
-112
-116
-116
-108
-108
-113
-124
-114
-115
-118
-111
-104
-111
-115
-107
-120
-111
-101
-112
-109
-110
-110
-116
-110
-110
-113
-109
-108
-111
-108
-108
-113
-111
-119
-120
-112
-106
-110
-113
-110
-110
-106
-113
-112
-108
-113
-113
-108
-107
-109
-121
-107
-102
-103
-114
-121
-110
-108
-123
-96
-106
-106
-105
-105
-112
-114
-110
-105
-111
-119
-106
-111
-115
-109
-106
-113
-107
-98
-106
-109
-110
-109
-116
-104
-120
-119
-109
-108
-111
-112
-109
-113
-120
-119
-111
-113
-106
-108
-115
-115
-112
-108
-106
-115
-114
-116
-117
-114
-109
-109
-110
-118
-113
-110
-117
-118
-110
-108
-111
-108
-104
-107
-106
-116
-123
-118
-111
-114
-109
-109
-109
-109
-114
-110
-118
-110
-100
-111
-126
-111
-110
-114
-121
-116
-109
-114
-102
-106
-117
-124
-107
-112
-123
-114
-106
-110
-108
-112
-116
-115
-107
-114
-120
-116
-109
-107
-109
-107
-107
-115
-114
-127
-115
-112
-118
-106
-108
-117
-111
-108
-105
-126
-114
-106
-108
-109
-110
-115
-117
-117
-121
-116
-110
-108
-116
-118
-107
-103
-107
-114
-108
-111
-108
-107
-124
-116
-101
-106
-113
-115
-113
-111
-107
-107
-115
-111
-107
-117
-111
-113
-114
-113
-112
-104
-108
-111
-107
-110
-114
-111
-111
-108
-109
-101
-110
-107
-101
-114
-111
-102
-104
-109
-108
-108
-118
-100
-95
-101
-102
-101
-103
-102
-90
-89
-97
-103
-91
-101
-102
-103
-102
-111
-105
-111
-108
-109
-106
-108
-109
-98
-105
-107
-102
-105
-109
-109
-105
-108
-111
-113
-113
-114
-110
-108
-115
-110
-101
-93
-101
-114
-120
-112
-101
-108
-112
-108
-103
-99
-119
-110
-109
-104
-110
-122
-117
-108
-110
-115
-114
-110
-114
-109
-106
-108
-107
-107
-119
-106
-107
-105
-108
-117
-115
-110
-111
-108
-109
-108
-102
-90
-88
-76
-74
-70
-70
-68
-70
-67
-59
-71
-77
-79
-88
-58
-71
-79
-85
-93
-111
-123
-125
-118
-107
-111
-104
-90
-107
-102
-103
-108
-111
-104
-95
-95
-100
-92
-97
-101
-107
-104
-107
-96
-103
-100
-100
-104
-94
-95
-101
-107
-108
-101
-102
-105
-98
-92
-92
-92
-97
-106
-106
-94
-93
-100
-95
-97
-95
-95
-93
-93
-93
-97
-88
-95
-98
-100
-94
-87
-86
-87
-97
-107
-92
-95
-85
-92
-94
-90
-99
-94
-99
-91
-88
-88
-83
-88
-87
-86
-82
-89
-85
-88
-79
-79
-78
-72
-79
-74
-76
-81
-76
-74
-72
-80
-78
-67
-70
-74
-78
-68
-65
-68
-66
-73
-49
-47
-55
-58
-72
-72
-57
-54
-54
-64
-49
-50
-63
-59
-61
-57
-57
-55
-54
-58
-54
-60
-63
-59
-60
-69
-71
-62
-57
-78
-78
-66
-76
-74
-76
-83
-86
-89
-102
-98
-87
-97
-101
-104
-110
-112
-107
-99
-101
-97
-105
-107
-110
-105
-114
-107
-103
-98
-113
-109
-103
-97
-94
-108
-115
-110
-108
-103
-111
-99
-93
-98
-98
-93
-103
-120
-107
-109
-107
-102
-100
-107
-109
-106
-102
-99
-100
-97
-102
-106
-95
-102
-106
-106
-119
-113
-103
-94
-100
-91
-87
-104
-114
-105
-102
-108
-101
-98
-102
-99
-104
-105
-98
-98
-105
-107
-97
-95
-102
-101
-96
-105
-109
-97
-105
-108
-103
-96
-100
-99
-98
-101
-107
-100
-109
-94
-97
-99
-105
-87
-106
-112
-99
-106
-104
-101
-98
-104
-114
-104
-100
-99
-93
-101
-101
-101
-99
-109
-101
-95
-95
-99
-105
-97
-105
-103
-102
-104
-103
-103
-96
-100
-99
-107
-115
-104
-97
-95
-100
-106
-111
-105
-103
-102
-111
-109
-102
-100
-95
-104
-111
-105
-96
-94
-107
-104
-100
-105
-96
-104
-106
-107
-106
-105
-109
-95
-91
-110
-113
-99
-102
-104
-104
-96
-105
-96
-103
-109
-107
-100
-102
-106
-111
-109
-110
-108
-100
-102
-107
-99
-101
-97
-95
-103
-106
-98
-105
-113
-111
-106
-104
-105
-105
-101
-105
-101
-96
-96
-90
-95
-97
-108
-105
-107
-101
-95
-110
-110
-97
-97
-101
-106
-97
-110
-120
-117
-112
-112
-108
-93
-96
-100
-98
-97
-99
-97
-106
-104
-99
-111
-112
-103
-93
-94
-94
-96
-93
-92
-100
-91
-98
-105
-105
-100
-98
-86
-86
-92
-94
-95
-99
-96
-100
-106
-97
-96
-93
-100
-80
-94
-99
-91
-99
-105
-96
-95
-93
-97
-92
-101
-112
-106
-99
-108
-101
-103
-102
-102
-98
-95
-90
-93
-107
-112
-108
-108
-115
-113
-96
-99
-106
-105
-102
-100
-101
-95
-105
-96
-90
-93
-123
-125
-107
-98
-93
-98
-100
-104
-94
-95
-101
-108
-98
-98
-103
-105
-97
-101
-106
-103
-105
-107
-107
-98
-93
-93
-99
-96
-91
-79
-69
-54
-46
-44
-46
-51
-57
-57
-53
-69
-68
-68
-73
-87
-96
-116
-117
-116
-98
-89
-86
-100
-100
-111
-92
-95
-92
-80
-79
-84
-92
-92
-95
-98
-91
-83
-92
-86
-84
-93
-89
-93
-101
-99
-83
-82
-86
-80
-82
-87
-88
-92
-89
-83
-84
-81
-84
-85
-89
-85
-75
-76
-81
-81
-82
-76
-79
-85
-84
-86
-84
-81
-83
-82
-80
-78
-73
-75
-81
-76
-71
-63
-63
-64
-70
-73
-71
-68
-59
-43
-63
-72
-58
-50
-58
-63
-63
-59
-61
-62
-56
-55
-59
-46
-45
-54
-49
-44
-45
-48
-41
-39
-34
-39
-42
-46
-58
-52
-48
-39
-37
-36
-34
-35
-36
-36
-37
-40
-38
-36
-42
-40
-37
-42
-56
-56
-58
-71
-68
-60
-66
-65
-66
-62
-71
-75
-83
-86
-83
-82
-74
-70
-78
-92
-91
-87
-86
-87
-98
-99
-86
-91
-86
-84
-82
-94
-91
-95
-96
-88
-91
-95
-94
-89
-90
-103
-96
-80
-89
-98
-94
-90
-91
-95
-98
-95
-90
-85
-90
-87
-89
-94
-87
-85
-89
-93
-94
-94
-90
-86
-91
-93
-86
-83
-91
-87
-90
-93
-79
-77
-97
-104
-95
-90
-90
-94
-92
-94
-92
-81
-86
-96
-88
-90
-88
-84
-82
-96
-90
-86
-93
-91
-85
-90
-92
-87
-83
-89
-96
-89
-88
-87
-82
-93
-89
-92
-87
-86
-86
-86
-93
-99
-90
-81
-91
-82
-84
-102
-95
-82
-82
-92
-84
-85
-88
-91
-94
-82
-80
-80
-96
-93
-94
-99
-104
-93
-82
-86
-84
-88
-93
-91
-78
-86
-89
-91
-92
-96
-99
-92
-95
-90
-88
-90
-90
-85
-92
-94
-88
-87
-93
-92
-84
-92
-92
-95
-97
-96
-95
-82
-83
-84
-89
-94
-93
-86
-92
-100
-93
-95
-89
-79
-77
-81
-96
-102
-95
-90
-92
-89
-90
-86
-78
-78
-82
-89
-102
-101
-88
-84
-91
-87
-89
-90
-91
-90
-91
-88
-83
-83
-89
-82
-89
-100
-100
-87
-95
-91
-87
-87
-93
-84
-81
-74
-80
-87
-90
-91
-74
-80
-90
-88
-81
-81
-77
-70
-77
-83
-81
-79
-78
-66
-69
-86
-87
-91
-80
-74
-79
-83
-79
-75
-78
-91
-80
-83
-91
-90
-86
-85
-87
-82
-83
-88
-90
-86
-87
-93
-87
-77
-77
-84
-84
-92
-92
-88
-84
-82
-82
-85
-87
-84
-76
-82
-83
-75
-85
-88
-87
-82
-82
-80
-80
-86
-87
-82
-83
-80
-66
-75
-93
-74
-85
-87
-86
-82
-93
-85
-80
-86
-80
-78
-84
-82
-83
-80
-86
-85
-72
-53
-46
-37
-30
-22
-25
-36
-37
-45
-52
-62
-52
-41
-53
-59
-74
-90
-99
-92
-104
-99
-92
-82
-80
-70
-85
-84
-78
-70
-67
-61
-66
-69
-68
-67
-66
-70
-67
-69
-65
-68
-59
-60
-71
-67
-56
-67
-71
-66
-51
-54
-64
-67
-64
-61
-67
-66
-61
-52
-63
-66
-55
-69
-72
-65
-59
-59
-68
-74
-69
-64
-56
-62
-63
-67
-62
-66
-62
-60
-64
-53
-51
-57
-58
-56
-59
-62
-55
-53
-61
-57
-56
-51
-57
-54
-51
-57
-56
-49
-42
-41
-38
-38
-42
-38
-30
-38
-30
-38
-41
-42
-32
-34
-27
-26
-29
-26
-21
-15
-16
-15
-16
-25
-17
-27
-21
-29
-21
-13
-19
-15
-14
-2
-19
-13
-6
-26
-9
-2
-11
-11
-18
-14
-11
-14
-14
-19
-19
-16
-26
-30
-28
-40
-33
-36
-31
-27
-39
-39
-52
-52
-44
-49
-55
-49
-54
-55
-59
-47
-46
-57
-69
-64
-54
-61
-69
-63
-53
-53
-53
-61
-55
-63
-58
-53
-65
-70
-68
-60
-61
-54
-49
-53
-66
-66
-66
-58
-55
-50
-50
-54
-54
-59
-63
-47
-61
-57
-62
-53
-54
-47
-48
-55
-68
-57
-59
-54
-41
-53
-56
-42
-42
-53
-57
-53
-57
-50
-41
-52
-66
-48
-43
-49
-47
-54
-52
-57
-52
-53
-50
-53
-60
-54
-49
-39
-46
-54
-48
-43
-44
-39
-50
-46
-50
-60
-51
-50
-47
-45
-47
-35
-40
-48
-43
-45
-39
-48
-42
-48
-49
-45
-42
-45
-44
-45
-39
-40
-38
-40
-35
-39
-35
-46
-50
-57
-47
-45
-45
-24
-41
-37
-38
-30
-30
-33
-50
-46
-34
-39
-34
-37
-47
-37
-36
-44
-47
-40
-37
-39
-49
-35
-32
-23
-29
-43
-39
-31
-41
-31
-31
-30
-40
-42
-12
-13
-15
-18
-16
-11
-28
-11
-9
-6
-17
-14
-24
-24
-13
-21
-22
-11
-15
-16
-17
-22
-16
-10
-18
-15
-10
-17
-13
-19
-27
-20
-20
-22
-26
-38
-23
-15
-24
-34
-15
-28
-16
-14
-16
-15
23
17
9
9
11
-9
-4
7
-4
-10
-6
-8
-2
-5
-10
-14
-11
3
3
0
-1
-1
-1
-8
-4
-3
-4
-9
-13
-12
2
9
0
-10
2
-7
-2
5
-9
-8
3
6
17
29
27
35
34
38
19
14
5
6
23
15
13
-5
-7
-11
-21
-21
-21
-13
-15
-2
-9
-18
-8
-16
-4
6
16
14
6
11
-2
-10
1
7
1
6
13
11
7
4
7
1
5
7
5
9
14
3
9
22
16
17
17
18
6
19
16
13
11
25
16
8
17
27
23
22
16
14
20
27
20
12
22
25
15
27
25
19
18
21
19
21
25
31
19
21
23
18
26
25
34
29
27
22
26
25
22
18
22
35
30
34
33
42
32
34
38
39
50
39
41
40
38
41
47
58
44
35
43
51
45
44
48
46
51
54
51
50
53
50
52
50
57
56
61
62
65
57
60
45
49
50
50
44
38
42
36
35
37
36
37
44
36
24
17
20
16
16
13
13
4
4
10
13
16
13
9
-3
0
6
12
11
8
3
2
0
5
9
1
5
5
8
-3
-4
2
10
4
3
6
8
1
4
2
12
18
15
15
14
5
3
-7
8
8
2
11
10
10
5
14
9
11
1
-2
7
6
0
1
6
14
9
7
8
12
13
13
6
-1
6
-1
-3
0
1
6
4
17
11
11
21
7
-6
11
13
3
4
6
10
-3
1
5
4
15
12
9
12
11
9
8
-2
-4
-6
4
10
8
3
3
4
7
9
11
6
4
6
9
10
6
1
5
10
7
1
-3
16
10
5
15
3
4
4
10
10
-1
8
1
-1
14
12
5
6
4
5
15
15
5
10
8
15
2
7
11
10
12
20
13
9
13
5
7
10
9
5
8
19
8
15
19
14
16
11
8
2
6
7
4
10
19
16
12
2
11
13
-7
-9
2
5
4
2
4
6
8
-3
4
1
0
13
19
14
4
10
7
0
4
7
13
15
24
8
-1
6
6
7
5
7
12
10
12
7
2
1
10
18
11
7
4
11
18
7
4
7
14
24
25
15
10
15
21
19
27
34
43
52
56
48
39
40
30
29
33
33
37
30
20
7
-2
-4
-5
-3
-5
-1
6
10
20
26
22
25
23
13
13
19
12
12
30
23
19
27
26
28
9
-1
4
16
19
17
8
16
19
18
14
16
12
15
15
20
15
15
7
17
20
28
16
24
21
14
18
21
31
20
18
12
20
30
28
27
29
30
14
20
30
21
21
25
29
22
26
21
21
31
39
33
20
26
36
33
32
23
31
31
31
29
29
35
30
29
26
29
25
26
33
44
38
48
47
45
45
51
45
38
43
49
47
59
60
52
52
51
48
47
66
56
43
49
53
55
62
48
44
48
45
46
56
55
46
38
48
50
43
44
39
33
37
42
34
32
27
26
25
26
26
16
10
27
26
25
23
14
20
22
22
19
10
13
20
20
20
11
4
0
9
15
21
21
26
24
19
21
19
19
11
3
6
11
16
19
20
28
29
17
22
10
12
22
12
19
22
17
17
19
21
10
16
20
-2
7
24
19
8
10
18
17
26
23
16
18
23
25
18
18
8
2
14
21
20
17
16
16
21
20
25
15
13
13
16
26
29
10
10
14
16
6
23
14
14
14
14
4
-5
7
13
22
18
11
10
11
11
19
25
31
23
9
9
10
20
17
10
6
10
9
20
19
13
15
14
19
19
13
17
15
10
11
6
9
4
12
18
18
18
16
15
25
25
8
8
19
20
15
13
19
10
15
12
20
2
1
9
7
11
12
6
12
22
15
14
28
25
16
11
12
15
14
10
5
6
14
11
7
14
11
0
12
21
24
16
9
4
-1
3
8
7
15
9
9
4
-5
-8
4
0
1
-1
2
5
3
9
9
2
-4
-4
-5
-9
-2
5
-1
0
2
-1
2
-1
-2
-5
-7
1
-1
-3
3
10
2
-9
-19
-7
-3
2
9
14
11
3
-8
-4
7
8
22
28
36
28
25
15
19
16
18
12
15
24
14
3
1
-1
-8
-9
-13
-15
-2
3
-5
0
-1
-4
0
5
1
-3
-8
-8
-6
-2
2
-5
3
3
0
-2
-6
-9
-12
-7
3
-2
-6
-6
-9
-20
-15
-14
-2
4
-9
-3
-2
-8
-17
-5
-4
-5
2
9
-1
-17
-11
-5
-14
-3
0
-11
3
3
-6
-13
-9
-9
-8
-8
-6
-7
-9
-5
-5
0
-4
-8
-11
-11
-4
3
-5
-6
-7
-7
-5
-4
-3
-4
-8
-12
-5
7
6
10
9
1
1
-3
4
-2
2
14
3
1
4
1
-4
16
18
9
5
11
16
20
13
12
-1
-5
8
8
23
18
14
13
16
11
7
5
2
4
-1
8
-4
-1
-2
-6
-8
-3
-14
-22
-22
-20
-21
-17
-13
-27
-30
-35
-27
-32
-40
-33
-35
-28
-27
-35
-51
-34
-31
-42
-45
-36
-43
-46
-47
-48
-48
-53
-39
-40
-38
-44
-44
-51
-54
-52
-54
-42
-30
-45
-47
-45
-54
-55
-43
-46
-46
-41
-39
-53
-57
-41
-48
-53
-52
-56
-54
-53
-58
-64
-60
-57
-64
-59
-49
-61
-66
-62
-56
-57
-52
-47
-62
-68
-61
-67
-60
-58
-62
-65
-59
-51
-54
-63
-60
-71
-61
-57
-59
-56
-62
-61
-58
-64
-71
-71
-66
-67
-68
-66
-63
-60
-64
-68
-73
-81
-71
-68
-64
-71
-69
-69
-80
-74
-65
-67
-66
-79
-80
-76
-72
-73
-74
-76
-75
-73
-80
-76
-73
-69
-60
-70
-77
-79
-74
-79
-80
-88
-98
-83
-75
-74
-70
-75
-80
-83
-86
-92
-85
-82
-82
-80
-86
-86
-89
-87
-71
-77
-88
-94
-85
-87
-89
-93
-97
-96
-82
-87
-97
-82
-77
-91
-80
-80
-97
-100
-98
-95
-102
-86
-84
-94
-98
-99
-98
-94
-87
-96
-106
-96
-97
-102
-96
-83
-96
-94
-95
-89
-98
-96
-88
-97
-94
-97
-101
-91
-94
-100
-99
-95
-98
-106
-95
-87
-97
-95
-94
-100
-96
-93
-95
-105
-111
-109
-106
-112
-106
-106
-113
-106
-102
-113
-114
-112
-114
-114
-114
-114
-115
-113
-123
-111
-115
-105
-117
-121
-118
-122
-109
-105
-113
-120
-126
-120
-122
-116
-112
-120
-118
-117
-121
-124
-122
-121
-123
-122
-118
-124
-120
-112
-120
-126
-124
-126
-131
-123
-125
-125
-129
-120
-117
-118
-133
-139
-131
-120
-122
-125
-118
-118
-112
-109
-103
-84
-88
-85
-74
-88
-97
-101
-98
-96
-104
-109
-108
-108
-102
-118
-143
-141
-136
-134
-141
-139
-134
-126
-124
-122
-117
-126
-134
-128
-125
-134
-132
-128
-126
-140
-132
-125
-126
-123
-127
-142
-142
-139
-141
-140
-124
-129
-129
-125
-123
-133
-140
-142
-133
-138
-125
-130
-139
-135
-133
-135
-127
-132
-128
-135
-136
-132
-131
-130
-138
-144
-139
-127
-131
-133
-123
-126
-135
-137
-135
-136
-136
-133
-138
-136
-128
-119
-140
-137
-141
-134
-124
-129
-136
-135
-129
-131
-125
-129
-122
-127
-123
-124
-119
-125
-127
-122
-126
-125
-135
-138
-134
-123
-112
-124
-116
-117
-118
-109
-111
-118
-124
-114
-119
-114
-100
-109
-115
-118
-126
-114
-116
-109
-118
-114
-110
-113
-118
-121
-110
-116
-127
-123
-123
-116
-114
-128
-129
-133
-132
-137
-141
-140
-149
-144
-142
-151
-154
-157
-166
-172
-158
-161
-167
-162
-149
-154
-162
-175
-166
-168
-165
-154
-157
-164
-166
-171
-160
-161
-160
-169
-177
-170
-173
-174
-167
-170
-171
-159
-168
-174
-168
-169
-181
-172
-166
-171
-162
-163
-169
-177
-176
-175
-178
-169
-165
-172
-181
-171
-183
-173
-170
-171
-174
-171
-163
-167
-166
-177
-179
-168
-174
-167
-176
-177
-179
-178
-179
-178
-177
-178
-168
-170
-176
-181
-171
-165
-170
-171
-178
-171
-169
-171
-176
-170
-176
-175
-176
-178
-179
-177
-169
-170
-171
-168
-181
-176
-168
-169
-166
-172
-181
-172
-167
-165
-172
-188
-185
-170
-179
-178
-180
-184
-174
-174
-178
-171
-180
-180
-175
-175
-188
-188
-176
-181
-181
-182
-177
-176
-178
-176
-183
-187
-177
-184
-189
-185
-175
-179
-185
-185
-182
-180
-181
-176
-187
-176
-168
-164
-180
-176
-170
-182
-185
-177
-187
-186
-186
-180
-185
-181
-187
-189
-185
-183
-180
-183
-181
-183
-182
-183
-189
-191
-184
-176
-186
-183
-186
-190
-184
-185
-185
-187
-191
-183
-183
-175
-174
-180
-184
-172
-184
-190
-186
-187
-182
-184
-189
-186
-184
-181
-192
-190
-183
-184
-190
-188
-174
-186
-192
-190
-189
-189
-178
-186
-185
-189
-188
-178
-195
-184
-183
-186
-184
-183
-186
-188
-194
-197
-188
-173
-180
-182
-179
-182
-185
-177
-183
-185
-179
-180
-178
-173
-174
-188
-182
-174
-171
-180
-180
-178
-180
-171
-178
-177
-173
-184
-186
-188
-185
-183
-183
-181
-175
-177
-185
-186
-185
-191
-186
-185
-189
-189
-174
-182
-198
-189
-191
-200
-184
-188
-184
-185
-175
-177
-174
-177
-178
-182
-183
-183
-189
-188
-195
-181
-178
-182
-185
-187
-181
-187
-185
-184
-194
-191
-186
-184
-187
-186
-182
-192
-194
-184
-183
-184
-177
-183
-184
-192
-195
-182
-186
-175
-174
-178
-175
-172
-169
-172
-166
-154
-144
-136
-128
-137
-140
-148
-151
-156
-146
-145
-157
-152
-147
-151
-153
-178
-201
-202
-193
-189
-184
-183
-184
-186
-179
-180
-176
-167
-163
-175
-173
-170
-172
-170
-170
-167
-174
-171
-169
-171
-163
-169
-169
-173
-174
-167
-172
-173
-158
-163
-157
-164
-170
-170
-166
-170
-167
-162
-164
-179
-172
-168
-165
-168
-162
-161
-173
-164
-161
-177
-183
-163
-159
-159
-161
-155
-166
-160
-159
-165
-162
-155
-150
-151
-159
-155
-158
-151
-145
-149
-150
-141
-152
-154
-149
-147
-157
-149
-141
-151
-153
-146
-155
-152
-145
-144
-144
-151
-145
-136
-136
-132
-135
-140
-144
-145
-135
-129
-135
-138
-134
-128
-126
-130
-119
-123
-131
-131
-125
-126
-132
-125
-125
-124
-119
-120
-122
-122
-129
-122
-121
-118
-134
-130
-126
-130
-135
-138
-130
-145
-139
-118
-136
-152
-155
-154
-147
-147
-153
-156
-158
-161
-158
-153
-152
-158
-165
-163
-159
-159
-149
-157
-163
-172
-169
-170
-166
-158
-164
-167
-165
-156
-160
-163
-159
-167
-163
-170
-161
-165
-156
-152
-161
-170
-160
-157
-157
-161
-170
-155
-156
-156
-161
-154
-161
-171
-165
-157
-160
-166
-160
-153
-162
-164
-164
-166
-162
-164
-164
-163
-155
-160
-154
-157
-154
-161
-161
-164
-169
-158
-150
-149
-164
-159
-152
-157
-153
-155
-159
-163
-164
-161
-156
-152
-158
-155
-151
-155
-157
-152
-155
-158
-154
-159
-166
-159
-155
-152
-153
-156
-152
-149
-147
-152
-147
-151
-159
-162
-160
-160
-151
-149
-158
-153
-150
-157
-146
-162
-160
-150
-159
-159
-160
-153
-154
-155
-147
-150
-162
-158
-153
-147
-156
-159
-157
-152
-157
-156
-148
-146
-142
-146
-153
-159
-165
-159
-151
-155
-154
-145
-146
-154
-155
-159
-152
-150
-152
-151
-149
-140
-152
-153
-158
-163
-150
-140
-154
-156
-154
-152
-149
-139
-151
-148
-157
-150
-146
-149
-149
-147
-155
-161
-155
-152
-155
-148
-145
-151
-155
-150
-146
-151
-142
-142
-153
-160
-154
-153
-147
-149
-148
-143
-156
-155
-150
-149
-144
-152
-157
-148
-147
-147
-150
-144
-145
-143
-148
-152
-141
-142
-158
-155
-150
-140
-145
-146
-146
-145
-154
-149
-157
-145
-149
-141
-143
-151
-153
-149
-139
-142
-146
-135
-137
-150
-147
-146
-147
-144
-143
-134
-133
-136
-148
-157
-158
-141
-134
-149
-135
-136
-135
-132
-138
-144
-167
-149
-148
-152
-149
-146
-151
-146
-141
-147
-151
-152
-145
-144
-142
-140
-146
-146
-143
-149
-142
-144
-157
-157
-146
-141
-143
-151
-155
-151
-145
-147
-151
-149
-148
-138
-148
-147
-145
-145
-144
-144
-140
-147
-143
-131
-132
-144
-149
-154
-147
-153
-148
-150
-143
-145
-148
-142
-142
-148
-142
-132
-131
-128
-121
-110
-99
-102
-100
-104
-106
-118
-118
-125
-121
-109
-107
-117
-127
-137
-149
-153
-151
-140
-145
-139
-148
-142
-139
-149
-138
-135
-144
-126
-129
-150
-140
-138
-131
-143
-141
-146
-141
-134
-141
-135
-130
-143
-146
-143
-139
-135
-132
-129
-133
-139
-136
-131
-135
-146
-133
-125
-134
-134
-124
-130
-133
-137
-137
-139
-130
-126
-128
-129
-135
-139
-132
-138
-140
-139
-141
-139
-138
-135
-129
-126
-129
-128
-132
-123
-117
-126
-130
-131
-129
-125
-126
-123
-132
-137
-128
-126
-121
-108
-113
-126
-122
-115
-121
-114
-111
-116
-121
-124
-120
-114
-112
-112
-116
-117
-96
-107
-124
-106
-99
-112
-103
-101
-109
-118
-109
-92
-97
-98
-104
-98
-98
-98
-99
-103
-100
-95
-101
-95
-108
-103
-104
-106
-106
-97
-96
-104
-108
-116
-112
-116
-117
-120
-128
-122
-124
-133
-125
-126
-133
-141
-134
-130
-143
-147
-151
-148
-146
-135
-128
-138
-145
-147
-144
-144
-148
-144
-142
-139
-145
-150
-146
-141
-143
-132
-129
-152
-162
-143
-150
-146
-148
-149
-150
-142
-140
-147
-147
-143
-143
-146
-134
-136
-143
-148
-142
-147
-157
-154
-148
-147
-138
-144
-149
-148
-142
-144
-143
-138
-141
-147
-150
-150
-140
-150
-148
-139
-137
-138
-142
-139
-145
-144
-152
-146
-140
-140
-141
-146
-146
-148
-150
-145
-143
-139
-145
-146
-141
-140
-140
-137
-142
-142
-146
-153
-150
-158
-148
-133
-133
-132
-139
-149
-157
-146
-147
-152
-148
-146
-148
-138
-146
-142
-144
-147
-141
-141
-142
-136
-141
-139
-136
-135
-147
-142
-140
-149
-146
-137
-140
-153
-151
-144
-149
-143
-138
-139
-143
-140
-142
-141
-145
-152
-150
-136
-147
-144
-133
-136
-155
-161
-152
-151
-145
-139
-144
-140
-136
-136
-140
-137
-138
-140
-145
-139
-144
-148
-150
-144
-135
-142
-136
-144
-144
-135
-133
-136
-137
-141
-146
-134
-141
-145
-142
-140
-140
-144
-142
-142
-146
-142
-154
-150
-142
-134
-134
-137
-128
-136
-137
-139
-132
-138
-141
-144
-142
-135
-134
-132
-142
-135
-145
-146
-141
-137
-130
-135
-138
-140
-137
-140
-132
-139
-136
-137
-138
-135
-130
-133
-137
-123
-117
-134
-139
-138
-156
-150
-136
-131
-131
-124
-135
-136
-133
-120
-124
-130
-119
-119
-126
-132
-125
-132
-134
-131
-137
-135
-133
-130
-131
-134
-138
-136
-140
-141
-140
-136
-133
-134
-133
-137
-132
-132
-131
-132
-128
-133
-129
-135
-140
-144
-148
-141
-145
-144
-134
-129
-116
-124
-130
-134
-144
-139
-136
-124
-131
-124
-129
-137
-137
-126
-142
-136
-118
-122
-129
-129
-125
-131
-131
-128
-133
-127
-129
-132
-124
-112
-118
-118
-114
-102
-94
-89
-90
-87
-94
-106
-101
-104
-112
-97
-93
-100
-119
-122
-130
-143
-137
-131
-128
-126
-128
-128
-129
-124
-116
-120
-125
-126
-126
-121
-119
-116
-116
-127
-120
-115
-128
-126
-129
-122
-121
-116
-120
-126
-122
-120
-122
-121
-123
-119
-122
-123
-126
-117
-107
-111
-117
-115
-117
-108
-106
-110
-123
-123
-112
-105
-113
-117
-111
-108
-99
-104
-113
-119
-121
-103
-107
-116
-117
-124
-115
-110
-105
-111
-111
-95
-100
-105
-103
-109
-112
-105
-99
-103
-102
-100
-110
-107
-100
-98
-97
-85
-88
-91
-87
-88
-88
-84
-87
-93
-86
-95
-88
-92
-80
-78
-86
-89
-75
-76
-76
-79
-82
-82
-74
-79
-75
-81
-75
-79
-72
-73
-72
-71
-65
-67
-81
-76
-73
-80
-80
-77
-82
-88
-78
-68
-64
-61
-66
-76
-91
-89
-96
-98
-92
-89
-92
-102
-103
-109
-109
-104
-105
-105
-93
-103
-102
-125
-119
-115
-108
-103
-105
-105
-99
-104
-118
-119
-121
-114
-121
-116
-109
-110
-108
-106
-109
-106
-99
-102
-111
-113
-107
-107
-103
-104
-105
-111
-114
-117
-107
-107
-108
-103
-108
-113
-113
-114
-107
-106
-104
-111
-108
-99
-98
-105
-110
-109
-104
-108
-110
-108
-105
-106
-98
-106
-97
-101
-108
-115
-101
-95
-100
-102
-105
-101
-98
-97
-100
-100
-104
-107
-106
-94
-108
-108
-104
-110
-113
-111
-106
-103
-107
-101
-96
-97
-90
-92
-105
-116
-115
-109
-105
-103
-96
-105
-102
-97
-106
-100
-99
-99
-106
-96
-97
-98
-98
-91
-98
-101
-102
-103
-102
-94
-97
-97
-99
-101
-103
-99
-97
-93
-91
-104
-102
-110
-105
-106
-103
-97
-96
-95
-104
-106
-98
-98
-88
-95
-96
-97
-102
-101
-104
-98
-94
-98
-95
-92
-98
-99
-97
-96
-91
-91
-89
-86
-86
-97
-110
-96
-94
-98
-103
-98
-95
-94
-97
-93
-95
-91
-78
-89
-94
-105
-104
-98
-93
-88
-104
-89
-90
-89
-86
-81
-100
-101
-100
-100
-103
-93
-87
-85
-91
-76
-84
-94
-95
-89
-96
-88
-80
-88
-90
-92
-91
-84
-83
-87
-94
-93
-90
-94
-91
-78
-87
-88
-69
-78
-91
-88
-76
-76
-81
-83
-86
-85
-86
-88
-83
-73
-75
-74
-81
-79
-79
-82
-82
-76
-79
-83
-77
-84
-73
-66
-81
-88
-88
-84
-81
-83
-90
-83
-88
-88
-85
-76
-83
-80
-84
-82
-80
-76
-72
-78
-88
-84
-83
-91
-85
-89
-83
-76
-74
-79
-77
-79
-80
-89
-80
-78
-78
-76
-78
-76
-78
-81
-80
-85
-83
-85
-77
-77
-69
-75
-80
-75
-76
-82
-89
-86
-84
-75
-73
-81
-80
-67
-63
-63
-55
-44
-40
-40
-38
-44
-36
-47
-44
-42
-37
-40
-49
-49
-57
-63
-67
-84
-89
-86
-86
-78
-72
-71
-63
-57
-71
-68
-65
-66
-70
-72
-72
-60
-59
-66
-71
-66
-68
-72
-69
-60
-58
-56
-62
-68
-73
-58
-56
-52
-62
-60
-61
-64
-56
-57
-58
-61
-68
-58
-57
-59
-57
-49
-54
-65
-66
-51
-49
-61
-61
-52
-59
-59
-48
-55
-54
-53
-57
-53
-48
-52
-53
-46
-43
-47
-56
-46
-52
-51
-57
-35
-39
-42
-49
-49
-45
-41
-54
-47
-37
-34
-39
-42
-34
-39
-40
-40
-42
-35
-37
-31
-33
-25
-26
-30
-25
-30
-34
-30
-17
-19
-26
-25
-18
-22
-17
-19
-20
-15
-18
-16
-20
-11
-7
-12
-15
-7
-15
-24
-11
-18
-15
-15
-19
-19
-23
-23
-28
-23
-25
-31
-36
-29
-33
-33
-29
-48
-49
-40
-42
-44
-38
-37
-47
-55
-51
-48
-40
-49
-53
-62
-65
-51
-46
-56
-63
-54
-57
-57
-51
-67
-56
-50
-48
-52
-53
-61
-61
-52
-40
-54
-63
-59
-50
-50
-51
-47
-62
-52
-46
-45
-52
-61
-50
-51
-43
-46
-48
-52
-57
-55
-45
-53
-51
-47
-48
-57
-50
-44
-51
-59
-50
-34
-51
-43
-44
-51
-48
-51
-41
-47
-44
-42
-44
-46
-46
-43
-49
-45
-46
-46
-43
-36
-44
-48
-41
-47
-49
-42
-44
-52
-42
-38
-43
-52
-47
-50
-42
-29
-25
-34
-38
-47
-54
-46
-44
-44
-43
-40
-51
-52
-43
-35
-31
-38
-47
-46
-38
-29
-45
-41
-34
-37
-41
-25
-43
-52
-45
-44
-40
-41
-32
-32
-32
-33
-45
-46
-41
-36
-44
-37
-29
-38
-39
-43
-34
-31
-36
-40
-43
-40
-38
-36
-37
-33
-19
-29
-31
-47
-47
-32
-32
-44
-37
-34
-36
-48
-43
-36
-36
-34
-24
-28
-33
-37
-40
-44
-28
-26
-38
-35
-28
-33
-38
-37
-38
-43
-29
-16
-24
-38
-38
-39
-32
-27
-35
-34
-38
-39
-39
-32
-19
-33
-38
-33
-35
-37
-35
-32
-31
-22
-20
-19
-25
-43
-39
-36
-27
-26
-34
-24
-26
-34
-33
-32
-41
-32
-29
-21
-28
-22
-15
-20
-23
-23
-19
-23
-18
-21
-34
-18
-11
-17
-25
-22
-20
-22
-18
-21
-22
-18
-15
-17
-18
-15
-26
-29
-32
-34
-39
-25
-25
-35
-37
-21
-34
-30
-36
-28
-25
-19
-16
-18
-20
-23
-33
-36
-29
-24
-21
-19
-18
-31
-25
-17
-18
-20
-15
-31
-35
-32
-26
-22
-26
-23
-27
-16
-26
-25
-19
-17
-28
-40
-27
-24
-28
-26
-25
-21
-19
-13
-23
-23
-13
-15
-16
-6
6
20
19
25
23
22
22
17
3
10
12
19
18
16
-7
-20
-23
-36
-36
-35
-31
-31
-23
-14
-9
-9
-8
-6
-6
-16
-17
-15
-10
-5
-17
-20
-22
-15
-11
-7
-14
-19
-9
-6
-6
-6
-11
-9
-1
0
2
-6
-14
-9
-3
-11
-12
-10
-8
-1
-11
-8
8
7
-11
-8
-7
-11
-6
-3
-3
-8
0
5
5
7
4
-7
-14
-16
-11
0
-1
2
2
3
8
-3
5
15
3
3
6
2
4
0
8
5
13
16
9
3
17
9
16
13
6
8
13
17
15
19
21
18
15
24
42
35
26
26
17
18
31
30
29
27
29
33
40
33
35
28
28
32
32
37
39
26
30
38
37
30
38
45
30
32
32
28
23
25
30
21
29
22
19
12
21
15
15
4
0
2
7
10
5
3
-5
-1
3
-8
-6
-6
6
-9
-18
0
3
-8
-9
-9
-10
1
6
6
0
-6
-17
-5
-3
-6
-4
-7
5
-10
-9
-2
-1
-10
-13
-3
-2
0
2
0
6
-13
-8
0
9
-5
-9
-7
-8
-14
-2
1
2
-2
-1
2
-8
-3
3
-4
-2
-1
0
-2
4
0
-3
11
10
-8
-2
-2
4
-9
-8
-2
-3
1
2
-5
-3
1
-8
-4
4
-2
4
18
10
-6
-17
-6
-5
-8
9
-6
-13
-9
-4
-2
0
-2
-4
4
2
-6
-5
2
1
-3
-2
0
-8
-6
2
1
1
5
-9
-6
5
1
-7
6
9
6
-4
-4
-8
-6
-9
-2
-14
-4
2
2
2
8
6
5
1
-9
-11
-8
-1
-11
4
10
-3
-8
-6
1
-3
-4
2
-2
-1
2
-1
-1
7
2
-2
-3
0
3
13
7
-9
-9
-2
2
-5
-2
-3
-8
-11
-4
2
9
14
19
1
-9
5
0
0
1
-7
-7
-3
-6
0
0
6
-1
-3
-3
-2
1
2
-4
-2
1
1
2
-10
4
-5
3
1
-4
-5
-1
-2
-2
8
9
2
3
-1
-3
-3
16
8
5
7
14
32
22
2
-1
1
15
17
0
4
0
5
11
11
1
0
0
-4
0
11
1
1
-7
4
2
9
3
-6
-1
6
7
1
-2
-4
-15
2
8
1
7
7
10
5
6
12
3
-10
-3
-5
4
8
9
-3
3
6
4
-2
-4
-9
-10
4
13
-3
2
5
-3
-4
7
0
-6
8
6
5
6
8
8
5
5
0
12
19
14
26
26
33
28
51
61
55
49
45
30
35
39
39
35
31
16
5
-7
-15
-26
-4
1
5
4
13
9
-3
5
11
14
6
2
14
14
6
9
11
13
10
15
13
14
9
11
12
21
24
23
18
15
15
17
6
10
23
22
16
20
19
15
12
8
12
29
23
22
27
25
32
22
14
23
17
16
8
16
21
29
31
18
15
22
27
22
12
17
23
22
23
25
25
29
27
25
33
23
26
31
31
23
27
36
32
31
38
39
44
49
39
30
45
47
40
33
49
49
39
50
53
47
42
45
46
58
68
62
54
54
58
68
69
62
59
58
48
50
55
62
60
57
69
68
55
54
56
51
63
55
52
52
51
42
37
39
44
40
29
26
22
37
29
21
20
26
26
17
20
22
22
27
15
13
13
3
10
17
20
21
14
16
7
4
-2
2
4
14
13
19
-3
9
10
2
-9
11
23
12
9
6
3
8
10
6
-2
8
12
15
16
15
9
11
10
6
9
20
11
17
11
9
13
23
19
1
0
12
13
8
12
7
7
3
10
7
6
5
8
9
17
25
9
8
8
3
7
9
5
8
7
13
11
8
8
10
6
17
13
12
22
18
3
6
14
10
12
8
2
5
15
15
13
22
22
1
9
9
1
6
13
8
-1
9
2
-5
7
15
12
6
12
12
16
13
10
0
22
16
9
11
17
16
3
-10
-2
3
16
7
10
15
15
20
15
8
17
9
12
21
16
10
7
4
13
6
6
12
9
3
16
8
14
18
10
9
17
9
11
12
10
5
12
14
22
20
16
23
17
22
18
20
15
21
21
25
16
17
7
16
18
18
15
17
23
19
11
-9
0
6
12
16
16
4
-2
0
1
10
15
24
17
9
-2
4
6
-1
0
6
9
3
10
17
14
3
0
5
8
12
17
2
2
14
17
12
2
-4
15
7
9
10
12
13
14
18
8
7
5
9
4
3
11
10
6
10
5
8
19
30
43
42
45
52
55
59
43
32
29
32
33
21
21
27
19
-2
-8
-18
-18
-3
6
8
3
9
7
3
13
21
21
22
19
16
19
25
16
14
10
12
14
18
21
15
17
24
18
14
9
11
10
14
13
19
13
19
14
14
14
7
12
21
16
14
26
22
16
19
16
12
21
27
25
26
25
30
20
16
26
25
21
16
8
14
20
23
29
20
25
26
30
18
14
21
35
35
27
30
30
33
36
36
36
25
21
31
27
27
33
26
28
30
36
35
36
37
34
39
34
38
50
49
45
51
60
55
42
42
50
39
47
50
41
42
46
54
51
57
64
49
52
51
45
45
52
54
47
43
39
28
32
33
33
39
38
19
19
22
24
23
26
30
14
6
18
11
8
7
7
8
11
16
9
12
16
11
16
19
21
0
-1
1
-3
0
6
10
1
10
-2
-9
8
16
3
-1
7
5
5
6
4
-4
3
5
7
14
7
2
11
13
2
-2
7
13
5
17
15
0
-3
-7
3
13
15
15
12
0
5
8
8
2
4
4
2
4
19
18
9
-1
7
10
9
5
13
13
-4
0
8
-2
-4
-4
1
6
1
4
4
11
13
8
16
16
7
5
2
12
3
5
-1
14
18
20
15
9
7
-1
1
7
-1
1
19
17
6
0
4
9
8
12
11
5
3
11
9
13
12
5
1
3
-1
2
6
5
3
8
12
7
-3
-2
3
8
18
7
9
1
6
6
13
17
2
-8
-3
5
12
19
15
3
3
10
8
3
-5
-1
7
14
14
13
9
17
12
18
14
9
3
13
21
13
5
6
8
9
18
16
4
13
10
9
12
10
15
17
7
4
8
13
13
6
-1
14
14
8
-4
-3
4
3
1
6
5
6
7
8
12
6
1
6
5
1
6
16
9
4
5
-1
1
9
11
4
-4
2
7
9
6
-7
-1
2
5
5
6
3
5
11
19
4
-4
6
8
5
8
8
8
0
4
0
10
17
10
10
16
24
38
44
53
56
52
44
38
35
42
40
46
49
37
20
9
0
-17
-12
3
0
-8
7
6
12
15
9
13
13
11
14
17
20
12
10
10
18
5
6
23
25
21
14
12
17
17
10
18
22
13
19
15
19
17
8
13
13
17
16
21
23
19
29
19
14
17
20
20
14
16
9
11
12
12
19
19
21
23
19
19
19
32
32
31
25
22
19
27
31
27
23
25
24
29
20
25
24
21
20
27
38
37
26
18
26
34
31
27
35
42
46
44
32
38
44
43
39
39
42
42
38
41
45
43
49
49
45
43
60
59
51
49
47
49
54
60
49
52
51
47
49
40
33
35
44
43
37
47
49
34
27
37
42
34
25
28
32
23
15
16
12
13
12
13
18
21
15
0
2
8
2
3
10
13
10
7
4
-8
1
2
0
1
-3
-5
0
2
3
6
5
6
9
13
3
-3
11
12
8
-3
11
7
-4
8
4
-5
3
2
10
7
12
9
7
10
2
-9
-3
4
12
9
8
3
-1
3
3
5
7
3
3
4
6
2
1
5
3
-2
3
6
4
7
10
1
1
-3
2
4
3
15
-5
-1
5
4
22
15
7
9
0
-4
1
5
4
2
-2
7
4
-2
3
4
2
3
5
-3
2
4
-11
-3
12
1
0
10
8
2
-5
0
-2
-1
8
4
9
4
7
7
8
9
-1
-2
0
-4
3
13
3
0
5
1
-4
5
6
-5
-1
-2
-4
4
3
-2
-6
-4
-2
1
1
7
0
-2
8
0
5
6
15
2
2
7
4
-4
-1
7
3
-1
7
11
1
15
16
8
2
5
8
1
1
8
6
9
2
6
13
11
5
9
14
1
8
10
2
-5
6
4
4
0
2
-1
2
11
7
6
1
6
-1
6
1
-1
-1
0
-9
4
14
0
-4
4
12
17
4
-9
-2
3
-1
-3
-1
-7
-3
3
8
-1
-5
-1
3
-3
-1
-5
4
5
5
10
1
-7
4
-1
-8
0
0
-7
1
6
6
3
3
20
28
20
17
23
37
49
54
44
37
25
27
35
37
25
32
39
33
20
4
-13
-14
-12
-9
-11
-7
-10
3
20
20
13
13
16
7
8
12
8
-3
-7
-4
9
16
11
9
9
12
13
9
7
9
-1
7
9
20
14
26
25
3
0
-2
8
15
18
7
5
3
4
7
18
14
0
8
9
8
13
17
13
14
11
14
10
11
12
9
16
29
18
22
26
17
1
15
13
14
18
21
13
13
21
23
19
19
27
39
27
16
25
28
28
24
18
31
34
33
23
25
26
32
35
40
31
39
27
33
33
46
49
47
39
34
39
41
37
43
50
45
43
38
43
39
31
42
44
38
48
47
42
45
40
35
31
40
33
39
31
27
19
19
28
16
17
13
15
8
19
13
3
1
7
-2
0
-6
6
6
6
-4
-6
4
4
-6
6
6
-2
-3
2
-4
-4
-6
0
-1
-2
7
-2
-11
1
1
-3
1
5
5
2
-6
-9
-2
8
6
-5
-1
-7
-6
1
-3
-7
-2
4
9
8
7
-1
0
-10
-7
-21
-6
11
-3
-5
-4
2
3
5
3
-5
6
8
2
-8
0
2
-12
-4
-2
-7
-3
7
12
12
0
2
-7
-3
-2
2
-3
2
-2
-1
-3
-9
2
3
3
2
-6
3
-4
-7
-1
0
-4
6
10
5
14
7
-1
-13
-21
-5
11
21
8
3
-10
-1
5
-2
10
11
9
3
3
3
6
8
10
16
14
9
4
-2
-6
20
24
7
5
0
24
17
13
3
-5
-1
3
0
8
4
5
2
10
26
16
-1
11
8
15
10
15
13
4
10
5
-6
9
13
13
11
19
16
26
17
21
20
4
-2
-2
2
14
12
23
22
19
3
8
9
12
8
9
13
15
9
14
15
22
20
19
21
18
6
5
8
9
12
11
3
-1
-5
15
16
5
15
19
22
27
13
5
18
15
10
23
25
23
18
21
22
28
35
28
18
5
6
13
14
21
21
17
17
30
28
32
24
15
17
28
31
26
27
23
22
29
28
24
29
24
22
21
19
15
21
33
35
27
18
26
33
40
44
51
64
68
84
80
81
81
66
65
71
71
82
70
72
51
44
25
25
23
26
28
36
46
43
42
55
58
53
47
52
44
57
61
47
54
68
57
50
49
58
65
68
47
42
51
57
59
58
67
69
61
61
69
72
67
72
73
71
66
61
50
58
65
58
64
64
56
57
65
74
72
73
81
85
83
80
74
72
75
66
68
70
62
68
77
77
78
69
75
79
67
69
76
84
89
86
79
82
84
84
83
88
77
83
83
85
88
91
88
86
91
101
103
91
87
91
101
95
97
95
110
112
108
102
103
105
110
109
107
103
107
110
108
109
116
117
109
109
102
102
90
100
109
113
104
94
97
95
100
87
83
84
90
81
86
73
76
77
79
61
64
71
66
73
73
71
63
60
64
60
62
65
67
65
62
59
56
55
52
46
54
58
61
58
63
57
56
55
49
49
50
60
60
46
67
62
58
51
56
46
47
53
52
53
58
55
56
60
55
60
59
56
61
64
67
58
55
56
55
51
52
60
61
60
69
70
62
50
55
51
54
56
49
59
67
53
55
53
53
45
45
51
48
49
61
59
58
55
40
45
45
48
51
53
54
48
46
44
53
60
63
47
43
49
53
53
49
43
42
48
60
69
58
52
44
48
44
48
48
49
47
45
47
51
40
42
49
47
46
46
51
52
42
37
44
45
46
49
43
35
41
45
46
52
48
51
51
49
45
42
36
33
46
55
54
52
51
42
42
44
48
53
49
56
46
51
53
58
41
43
42
37
46
48
51
52
52
53
45
37
44
54
53
36
38
36
36
39
28
33
41
41
36
40
42
36
37
39
29
34
40
35
43
45
35
34
35
36
33
34
38
35
38
46
44
39
45
40
27
30
33
36
39
42
28
31
41
37
31
35
33
29
35
43
37
39
42
32
23
33
39
38
41
47
43
39
38
49
62
73
84
86
75
88
80
68
73
67
48
47
50
50
45
29
18
23
20
27
18
16
23
24
31
41
43
37
39
34
29
40
41
44
47
39
38
38
39
36
34
41
41
37
36
38
46
37
31
36
36
32
32
39
43
34
41
45
40
36
35
34
44
37
27
45
40
43
42
25
34
37
37
32
44
53
43
43
45
35
28
39
42
55
50
43
42
40
45
49
35
41
44
47
45
46
51
48
55
42
45
55
58
51
52
56
50
54
50
43
48
49
50
56
54
56
59
58
63
68
57
49
57
55
66
69
75
67
67
62
61
63
69
70
71
67
72
70
63
62
71
64
61
59
55
63
62
57
58
59
51
48
47
49
45
44
30
27
37
36
39
27
15
23
27
23
24
24
24
30
38
27
13
15
24
22
18
21
23
18
16
18
18
26
23
27
20
17
16
22
17
19
21
16
24
24
27
28
19
21
20
21
18
17
24
22
18
18
19
24
13
12
15
25
31
26
26
33
12
-2
14
24
22
24
15
14
11
13
15
20
11
8
24
32
21
25
21
19
13
17
26
16
20
32
17
10
11
12
14
10
9
9
12
19
25
26
28
16
11
14
15
15
17
26
27
15
8
2
-2
14
14
7
22
26
12
8
5
15
9
8
17
18
16
12
8
14
18
15
18
17
10
12
16
24
10
8
10
12
-3
6
16
12
12
18
20
17
21
9
8
14
14
15
17
21
13
1
6
11
6
13
19
6
2
11
16
14
10
12
18
14
18
23
13
16
16
12
10
-7
-2
-4
4
13
19
13
18
18
20
12
13
18
13
12
22
24
12
13
15
10
2
10
11
16
21
21
17
18
17
12
9
8
14
11
18
14
9
10
11
12
1
15
3
7
12
14
6
7
-1
-1
0
8
7
13
17
5
11
7
6
1
4
2
9
7
12
10
-2
4
6
0
-1
3
4
6
14
11
9
8
15
11
5
0
4
2
9
9
-4
8
13
12
15
12
4
2
-1
11
23
22
17
25
35
42
42
50
53
40
34
36
36
28
41
43
31
26
14
-2
-13
-9
-1
1
2
-1
4
16
23
25
18
20
12
2
3
13
3
6
11
17
14
6
8
10
9
12
8
17
20
11
14
11
-2
3
15
13
20
16
18
13
14
19
12
19
24
16
16
19
17
12
18
20
8
-1
12
20
14
24
31
26
19
3
10
15
16
17
15
14
10
11
13
16
18
20
25
19
19
23
27
28
20
22
24
30
28
30
26
33
18
19
26
32
25
33
36
42
35
39
39
34
39
37
37
31
41
38
42
59
57
40
35
32
37
44
43
49
52
45
43
42
45
46
39
36
47
40
36
31
31
37
32
31
25
27
36
28
21
28
27
17
16
16
12
13
14
8
11
16
22
13
4
8
2
9
10
-7
-5
-1
1
4
6
-3
-5
7
8
14
6
-7
3
3
4
-10
-14
-2
-1
-1
2
1
-6
-4
-5
-3
0
2
5
3
9
9
5
