-289
-301
-292
-302
-345
-328
-327
-292
-294
-265
-279
-277
-300
-310
-326
-332
-323
-316
-297
-270
-269
-273
-291
-308
-331
-333
-318
-312
-312
-280
-251
-284
-308
-298
-332
-322
-322
-295
-286
-284
-268
-292
-301
-305
-330
-330
-334
-306
-312
-276
-260
-295
-305
-310
-317
-333
-310
-304
-285
-272
-282
-286
-308
-338
-325
-322
-306
-318
-287
-280
-273
-282
-303
-328
-367
-349
-333
-305
-297
-292
-313
-304
-317
-334
-344
-342
-334
-313
-308
-295
-295
-310
-331
-332
-343
-337
-355
-319
-311
-294
-301
-320
-334
-334
-334
-325
-322
-273
-270
-257
-275
-294
-319
-311
-338
-342
-348
-289
-290
-304
-306
-312
-324
-359
-361
-343
-334
-323
-305
-292
-323
-323
-341
-359
-347
-333
-328
-333
-309
-317
-297
-322
-328
-359
-377
-371
-352
-361
-338
-330
-331
-352
-350
-385
-373
-352
-316
-293
-233
-216
-207
-183
-181
-174
-175
-169
-153
-140
-124
-142
-178
-221
-296
-322
-325
-322
-311
-287
-283
-288
-318
-335
-336
-364
-364
-348
-337
-330
-320
-312
-319
-334
-346
-392
-380
-348
-365
-341
-307
-315
-319
-352
-365
-379
-361
-354
-335
-355
-312
-306
-309
-352
-356
-369
-376
-388
-329
-325
-317
-315
-328
-362
-353
-378
-368
-354
-334
-324
-309
-327
-329
-365
-379
-377
-372
-367
-357
-336
-319
-337
-353
-361
-335
-362
-370
-340
-329
-302
-284
-291
-311
-311
-308
-349
-346
-335
-298
-282
-287
-286
-285
-309
-322
-308
-305
-299
-264
-283
-279
-248
-272
-268
-295
-295
-300
-296
-273
-250
-253
-250
-257
-295
-319
-303
-277
-270
-268
-225
-249
-254
-241
-279
-293
-317
-308
-292
-280
-248
-273
-282
-284
-306
-326
-329
-319
-300
-292
-258
-269
-300
-309
-322
-329
-356
-318
-294
-294
-283
-301
-316
-286
-319
-344
-343
-327
-309
-292
-281
-288
-298
-307
-311
-336
-336
-316
-315
-301
-278
-286
-308
-308
-315
-343
-323
-324
-307
-304
-264
-277
-273
-306
-321
-349
-338
-317
-308
-294
-283
-251
-285
-311
-320
-324
-353
-328
-300
-279
-289
-300
-285
-312
-318
-342
-331
-326
-310
-300
-257
-270
-283
-310
-330
-329
-319
-310
-300
-297
-268
-277
-287
-293
-334
-342
-325
-329
-315
-303
-270
-278
-297
-304
-326
-355
-328
-304
-312
-295
-266
-289
-305
-299
-327
-349
-321
-308
-297
-304
-281
-301
-301
-319
-309
-311
-310
-310
-308
-272
-267
-286
-305
-331
-329
-316
-331
-311
-293
-266
-283
-303
-318
-314
-339
-334
-326
-282
-289
-277
-279
-304
-307
-310
-342
-338
-350
-293
-283
-255
-263
-256
-271
-279
-315
-297
-296
-290
-277
-247
-264
-266
-289
-288
-329
-327
-311
-325
-288
-274
-273
-283
-304
-317
-329
-329
-323
-311
-329
-284
-266
-284
-302
-308
-323
-336
-332
-324
-311
-281
-277
-291
-334
-323
-366
-362
-337
-322
-294
-293
-284
-306
-280
-273
-280
-250
-218
-177
-145
-124
-113
-91
-144
-141
-135
-131
-148
-148
-207
-235
-234
-262
-279
-288
-311
-299
-310
-290
-286
-277
-293
-302
-322
-329
-354
-316
-310
-307
-259
-298
-278
-304
-332
-336
-339
-318
-350
-322
-285
-314
-282
-290
-338
-336
-328
-316
-289
-299
-306
-299
-295
-305
-319
-330
-323
-326
-309
-292
-297
-277
-283
-296
-306
-350
-336
-338
-303
-291
-279
-261
-292
-304
-311
-316
-331
-318
-303
-298
-277
-273
-278
-288
-297
-322
-311
-314
-296
-280
-269
-244
-281
-288
-275
-308
-295
-293
-270
-281
-251
-232
-253
-270
-294
-301
-281
-276
-260
-264
-210
-236
-248
-259
-256
-287
-300
-275
-249
-247
-209
-235
-226
-251
-260
-298
-278
-265
-252
-244
-234
-234
-248
-264
-282
-316
-306
-289
-272
-251
-233
-238
-267
-288
-313
-301
-305
-323
-297
-287
-275
-277
-282
-296
-318
-332
-341
-307
-302
-261
-255
-282
-299
-326
-318
-325
-338
-316
-288
-303
-279
-268
-285
-317
-356
-321
-318
-333
-293
-286
-267
-282
-300
-305
-329
-324
-315
-312
-309
-294
-284
-273
-310
-306
-326
-337
-319
-296
-293
-269
-282
-306
-304
-305
-325
-329
-339
-329
-307
-287
-283
-283
-280
-287
-340
-346
-308
-312
-294
-290
-290
-292
-306
-319
-335
-347
-317
-341
-284
-258
-267
-266
-284
-303
-344
-352
-336
-317
-310
-287
-278
-291
-295
-323
-320
-323
-340
-303
-293
-276
-286
-317
-322
-340
-324
-329
-320
-312
-298
-267
-267
-293
-292
-324
-344
-327
-313
-297
-294
-280
-285
-277
-348
-302
-322
-323
-310
-308
-283
-268
-279
-284
-318
-317
-337
-331
-294
-281
-281
-262
-268
-275
-287
-290
-289
-314
-290
-293
-298
-262
-271
-282
-300
-306
-333
-336
-310
-288
-309
-284
-271
-281
-311
-322
-335
-342
-325
-306
-293
-271
-265
-311
-307
-365
-316
-323
-314
-298
-293
-306
-293
-289
-340
-355
-364
-364
-317
-304
-284
-273
-253
-211
-206
-224
-203
-174
-160
-128
-129
-112
-107
-126
-167
-198
-259
-306
-295
-276
-270
-265
-266
-282
-299
-323
-328
-337
-290
-291
-284
-261
-302
-298
-329
-332
-319
-348
-318
-307
-282
-292
-312
-334
-340
-328
-326
-328
-326
-299
-283
-289
-257
-301
-313
-324
-333
-324
-315
-288
-275
-283
-299
-310
-321
-340
-329
-331
-307
-300
-264
-266
-300
-302
-308
-319
-333
-312
-311
-291
-266
-251
-286
-305
-315
-322
-324
-296
-309
-293
-273
-273
-284
-279
-277
-317
-306
-297
-268
-279
-266
-269
-243
-262
-287
-294
-276
-277
-268
-248
-217
-256
-267
-269
-300
-299
-278
-277
-252
-236
-196
-231
-249
-265
-278
-268
-273
-258
-237
-233
-227
-219
-231
-261
-296
-282
-293
-274
-266
-254
-209
-236
-238
-253
-309
-287
-302
-306
-277
-252
-255
-279
-300
-300
-345
-320
-343
-300
-297
-274
-260
-265
-302
-317
-339
-346
-344
-320
-289
-282
-283
-288
-287
-308
-338
-342
-329
-315
-286
-264
-277
-294
-328
-334
-342
-339
-333
-304
-292
-275
-271
-287
-294
-296
-336
-329
-329
-311
-291
-264
-296
-292
-302
-323
-354
-342
-336
-318
-297
-271
-273
-289
-301
-308
-319
-319
-288
-282
-296
-276
-307
-305
-307
-330
-328
-329
-344
-289
-298
-274
-275
-279
-294
-308
-318
-328
-337
-315
-290
-302
-285
-297
-306
-303
-332
-338
-316
-298
-302
-269
-281
-291
-310
-307
-333
-342
-330
-336
-313
-284
-261
-289
-300
-302
-309
-326
-309
-301
-289
-284
-286
-279
-306
-342
-345
-338
-328
-313
-288
-274
-279
-286
-310
-333
-335
-321
-312
-293
-277
-256
-253
-292
-295
-314
-315
-299
-287
-285
-261
-264
-267
-297
-304
-318
-309
-319
-294
-278
-281
-263
-286
-294
-307
-339
-320
-335
-324
-306
-284
-274
-279
-313
-304
-348
-343
-318
-306
-300
-296
-301
-298
-310
-320
-347
-359
-339
-319
-319
-291
-311
-313
-303
-300
-296
-271
-230
-210
-180
-136
-125
-120
-134
-133
-155
-124
-128
-133
-183
-209
-235
-258
-274
-281
-316
-308
-307
-291
-290
-262
-285
-296
-325
-314
-337
-340
-329
-318
-289
-270
-301
-312
-320
-337
-356
-342
-348
-324
-281
-277
-289
-320
-317
-322
-341
-345
-319
-310
-303
-276
-280
-298
-306
-337
-347
-341
-333
-299
-304
-274
-297
-299
-304
-324
-326
-297
-310
-308
-301
-284
-298
-293
-318
-303
-340
-340
-313
-290
-273
-297
-302
-270
-293
-332
-311
-316
-322
-280
-266
-246
-269
-285
-298
-318
-322
-311
-277
-288
-270
-249
-249
-268
-297
-271
-293
-280
-267
-250
-235
-238
-247
-272
-270
-298
-284
-274
-253
-249
-228
-226
-220
-232
-266
-309
-301
-268
-277
-246
-221
-238
-248
-260
-272
-276
-328
-289
-291
-271
-249
-269
-276
-292
-303
-323
-309
-306
-298
-294
-287
-282
-301
-288
-306
-334
-323
-321
-292
-299
-280
-283
-265
-318
-325
-347
-335
-316
-307
-300
-289
-269
-269
-305
-317
-330
-347
-321
-295
-293
-299
-297
-296
-318
-319
-336
-332
-319
-303
-301
-270
-298
-292
-316
-304
-324
-336
-305
-307
-297
-275
-295
-294
-320
-304
-348
-335
-316
-290
-302
-280
-282
-309
-307
-317
-340
-345
-318
-312
-289
-285
-299
-299
-327
-340
-346
-319
-324
-319
-289
-273
-291
-273
-316
-333
-345
-343
-308
-304
-283
-283
-277
-315
-320
-341
-338
-331
-319
-292
-272
-289
-291
-301
-334
-336
-334
-324
-315
-309
-291
-287
-286
-312
-330
-350
-354
-322
-326
-302
-281
-280
-301
-317
-313
-333
-327
-332
-306
-304
-273
-253
-293
-306
-330
-335
-339
-335
-306
-300
-258
-272
-255
-281
-281
-316
-307
-302
-317
-287
-263
-256
-276
-300
-310
-338
-319
-320
-315
-311
-281
-274
-291
-300
-305
-352
-345
-328
-306
-324
-282
-278
-288
-326
-333
-335
-327
-328
-316
-293
-302
-311
-312
-321
-313
-350
-371
-349
-333
-322
-290
-260
-264
-264
-233
-243
-232
-204
-155
-114
-98
-107
-109
-106
-94
-137
-179
-237
-266
-258
-265
-252
-262
-305
-293
-324
-326
-316
-302
-297
-289
-297
-298
-308
-343
-365
-336
-332
-300
-286
-280
-284
-311
-334
-351
-319
-317
-324
-316
-297
-289
-310
-300
-314
-339
-340
-345
-329
-301
-298
-299
-284
-312
-316
-328
-323
-327
-314
-311
-275
-287
-291
-330
-325
-323
-351
-328
-309
-293
-281
-271
-304
-285
-324
-321
-328
-324
-310
-316
-280
-273
-286
-290
-296
-328
-326
-303
-305
-293
-249
-266
-250
-291
-304
-311
-305
-299
-282
-273
-267
-258
-277
-267
-269
-316
-291
-273
-263
-257
-233
-249
-248
-252
-259
-254
-272
-245
-264
-250
-226
-237
-270
-272
-283
-309
-281
-263
-258
-261
-234
-230
-254
-269
-275
-302
-286
-303
-291
-289
-258
-289
-277
-323
-316
-317
-322
-304
-299
-294
-272
-281
-289
-301
-323
-341
-336
-320
-292
-284
-282
-269
-289
-316
-278
-340
-370
-326
-303
-294
-276
-288
-304
-316
-335
-334
-337
-325
-311
-285
-276
-283
-309
-311
-326
-316
-314
-309
-298
-290
-284
-279
-308
-321
-347
-335
-332
-320
-307
-289
-285
-287
-310
-299
-308
-324
-324
-309
-301
-276
-280
-301
-304
-315
-352
-345
-326
-333
-305
-277
-282
-289
-307
-318
-337
-329
-323
-317
-314
-273
-282
-287
-329
-311
-351
-341
-338
-303
-306
-266
-273
-295
-323
-314
-338
-335
-326
-311
-302
-286
-284
-292
-306
-312
-344
-312
-284
-297
-333
-316
-297
-300
-309
-325
-362
-338
-325
-304
-302
-276
-292
-300
-307
-310
-325
-324
-302
-324
-298
-272
-293
-314
-314
-330
-340
-336
-322
-300
-296
-259
-259
-291
-318
-317
-327
-334
-316
-296
-281
-261
-267
-294
-295
-296
-324
-298
-304
-276
-278
-262
-286
-275
-317
-315
-323
-324
-312
-297
-287
-282
-274
-278
-304
-342
-341
-340
-338
-320
-303
-279
-279
-306
-322
-336
-335
-342
-318
-319
-289
-299
-318
-366
-367
-341
-330
-341
-337
-299
-284
-248
-244
-250
-218
-234
-196
-165
-138
-115
-96
-102
-99
-113
-138
-188
-219
-277
-280
-272
-251
-260
-268
-278
-305
-319
-321
-319
-320
-296
-286
-292
-291
-313
-326
-357
-335
-364
-344
-300
-266
-273
-281
-311
-319
-347
-342
-334
-318
-309
-300
-287
-299
-309
-325
-350
-352
-338
-300
-310
-273
-279
-257
-310
-332
-342
-356
-332
-307
-309
-285
-283
-289
-328
-323
-335
-357
-331
-302
-302
-256
-272
-286
-301
-315
-324
-325
-312
-302
-306
-279
-262
-299
-285
-315
-321
-319
-285
-280
-258
-260
-261
-279
-281
-307
-314
-307
-290
-269
-268
-246
-242
-257
-282
-281
-280
-283
-267
-252
-254
-236
-237
-249
-288
-270
-290
-284
-268
-263
-237
-214
-239
-226
-253
-280
-280
-268
-278
-252
-241
-241
-286
-248
-266
-309
-304
-309
-288
-276
-261
-272
-283
-288
-297
-316
-320
-343
-306
-305
-267
-272
-279
-295
-313
-343
-341
-319
-314
-319
-285
-284
-314
-295
-309
-342
-312
-301
-297
-309
-273
-287
-298
-296
-307
-344
-332
-327
-316
-303
-294
-277
-286
-301
-309
-339
-329
-311
-295
-305
-288
-288
-299
-303
-325
-355
-341
-323
-313
-290
-271
-277
-294
-328
-323
-330
-328
-321
-311
-297
-280
-292
-311
-325
-310
-331
-334
-328
-304
-308
-272
-290
-296
-310
-335
-333
-340
-318
-305
-317
-272
-274
-285
-322
-315
-341
-344
-319
-307
-277
-301
-294
-291
-320
-334
-331
-331
-315
-318
-300
-282
-295
-311
-315
-314
-334
-349
-317
-300
-288
-293
-303
-294
-312
-327
-343
-329
-325
-312
-288
-291
-301
-309
-326
-328
-319
-336
-302
-306
-281
-296
-296
-303
-324
-321
-335
-325
-307
-303
-282
-289
-290
-297
-294
-322
-322
-313
-307
-279
-254
-254
-274
-289
-304
-330
-306
-300
-293
-280
-280
-274
-292
-296
-302
-346
-332
-313
-298
-309
-296
-279
-302
-324
-318
-358
-325
-326
-314
-293
-285
-283
-287
-306
-319
-342
-336
-320
-316
-334
-309
-300
-304
-333
-330
-357
-352
-325
-292
-273
-238
-196
-177
-204
-181
-199
-190
-152
-141
-131
-107
-106
-135
-189
-245
-319
-328
-330
-262
-263
-255
-276
-262
-297
-318
-334
-333
-318
-295
-318
-298
-301
-290
-325
-320
-339
-346
-324
-301
-307
-289
-277
-314
-330
-336
-340
-317
-311
-295
-285
-283
-301
-303
-314
-340
-339
-340
-299
-310
-298
-283
-289
-292
-315
-321
-314
-322
-320
-287
-312
-276
-283
-305
-318
-327
-328
-335
-296
-290
-271
-265
-275
-289
-311
-320
-312
-312
-291
-279
-251
-278
-273
-290
-297
-311
-319
-297
-298
-257
-244
-262
-251
-258
-287
-292
-297
-303
-265
-263
-254
-245
-234
-259
-259
-288
-275
-250
-250
-255
-230
-230
-225
-253
-258
-268
-270
-285
-243
-214
-216
-241
-233
-250
-277
-284
-285
-273
-246
-257
-234
-239
-251
-280
-284
-310
-311
-324
-284
-265
-254
-277
-293
-284
-301
-341
-325
-297
-278
-287
-280
-286
-285
-310
-319
-334
-345
-318
-305
-299
-289
-280
-299
-305
-314
-315
-333
-305
-288
-287
-273
-273
-299
-330
-324
-326
-316
-328
-311
-289
-293
-278
-299
-313
-321
-331
-308
-314
-289
-284
-283
-298
-313
-317
-329
-321
-320
-301
-302
-281
-271
-287
-307
-314
-321
-328
-312
-330
-280
-274
-275
-293
-304
-292
-319
-343
-329
-317
-309
-283
-279
-286
-299
-314
-317
-324
-315
-314
-311
-287
-276
-278
-283
-326
-338
-343
-324
-301
-294
-273
-276
-292
-296
-309
-350
-318
-295
-290
-276
-261
-276
-300
-316
-321
-344
-344
-322
-310
-309
-278
-270
-274
-307
-318
-323
-322
-327
-303
-300
-257
-271
-286
-326
-319
-336
-331
-344
-312
-290
-267
-275
-274
-305
-293
-322
-321
-299
-262
-264
-258
-237
-265
-278
-293
-310
-321
-308
-293
-282
-271
-274
-285
-303
-306
-329
-320
-313
-300
-297
-278
-293
-298
-292
-303
-357
-334
-310
-304
-296
-284
-274
-281
-298
-336
-336
-339
-311
-327
-296
-294
-295
-321
-325
-339
-348
-309
-287
-249
-206
-185
-177
-172
-143
-177
-177
-158
-144
-118
-83
-110
-141
-191
-298
-283
-296
-299
-279
-281
-278
-262
-261
-297
-284
-306
-330
-314
-313
-297
-279
-271
-286
-324
-313
-338
-330
-329
-303
-281
-282
-288
-291
-301
-319
-353
-338
-316
-321
-318
-295
-278
-285
-292
-317
-339
-335
-305
-298
-291
-268
-270
-286
-311
-314
-342
-326
-324
-312
-304
-260
-271
-290
-306
-305
-309
-326
-308
-286
-281
-259
-271
-279
-296
-320
-330
-317
-321
-307
-276
-259
-285
-272
-268
-280
-315
-310
-301
-285
-264
-258
-267
-256
-276
-285
-304
-280
-266
-264
-250
-233
-247
-270
-241
-265
-308
-274
-263
-244
-226
-224
-223
-227
-253
-265
-272
-284
-269
-244
-233
-234
-223
-243
-258
-259
-299
-256
-281
-267
-248
-242
-262
-274
-266
-303
-320
-326
-291
-290
-283
-259
-263
-285
-311
-306
-305
-330
-297
-281
-296
-275
-279
-298
-341
-314
-324
-331
-322
-301
-278
-279
-275
-292
-303
-324
-336
-316
-311
-301
-287
-270
-279
-313
-301
-330
-325
-333
-320
-301
-276
-248
-258
-288
-338
-319
-325
-320
-315
-318
-287
-268
-276
-303
-319
-339
-332
-313
-286
-291
-278
-288
-290
-302
-301
-313
-339
-320
-318
-292
-270
-280
-293
-310
-296
-330
-324
-314
-300
-293
-269
-257
-287
-301
-324
-344
-353
-332
-315
-283
-259
-279
-288
-292
-304
-331
-323
-314
-294
-307
-276
-281
-301
-306
-316
-331
-321
-311
-300
-274
-274
-272
-296
-321
-316
-327
-317
-308
-300
-322
-278
-273
-284
-295
-319
-314
-325
-308
-311
-302
-283
-263
-280
-296
-316
-327
-315
-306
-293
-290
-242
-269
-276
-289
-283
-294
-310
-270
-304
-255
-263
-268
-298
-305
-314
-310
-308
-282
-279
-291
-263
-290
-284
-292
-330
-345
-335
-309
-312
-278
-259
-283
-291
-314
-331
-336
-334
-312
-305
-272
-264
-283
-302
-314
-367
-350
-335
-331
-318
-301
-291
-280
-284
-282
-268
-220
-214
-187
-152
-111
-89
-100
-97
-105
-121
-125
-141
-159
-221
-217
-259
-256
-264
-270
-306
-282
-279
-281
-278
-262
-279
-310
-299
-303
-342
-344
-321
-313
-298
-282
-271
-293
-293
-297
-321
-315
-335
-319
-321
-287
-292
-288
-329
-315
-329
-335
-301
-286
-289
-273
-268
-301
-309
-314
-328
-328
-307
-295
-308
-270
-266
-273
-293
-320
-341
-328
-311
-300
-279
-269
-257
-298
-309
-287
-299
-307
-304
-287
-287
-270
-281
-305
-293
-302
-308
-284
-288
-274
-282
-246
-248
-247
-284
-300
-306
-308
-290
-274
-246
-244
-252
-263
-263
-271
-285
-271
-250
-242
-233
-226
-233
-263
-253
-261
-259
-281
-270
-237
-206
-224
-222
-227
-254
-274
-271
-275
-259
-250
-229
-230
-247
-251
-270
-285
-289
-282
-273
-254
-228
-239
-260
-280
-283
-312
-312
-307
-305
-286
-259
-249
-269
-301
-301
-325
-319
-315
-294
-291
-258
-279
-290
-281
-298
-342
-330
-300
-302
-291
-264
-273
-300
-296
-317
-323
-318
-300
-289
-291
-274
-261
-259
-304
-283
-315
-329
-317
-298
-288
-278
-272
-299
-307
-297
-328
-311
-318
-306
-272
-264
-260
-272
-283
-303
-334
-319
-310
-305
-309
-256
-263
-272
-286
-301
-328
-345
-322
-302
-277
-270
-284
-286
-290
-313
-330
-326
-303
-283
-283
-277
-280
-296
-316
-323
-330
-303
-310
-291
-279
-270
-283
-291
-294
-321
-319
-311
-303
-307
-279
-278
-280
-276
-289
-316
-328
-327
-325
-289
-266
-280
-272
-300
-317
-343
-334
-325
-283
-280
-261
-275
-280
-304
-304
-351
-311
-312
-308
-306
-281
-270
-272
-293
-288
-289
-299
-303
-269
-251
-248
-252
-246
-275
-308
-324
-295
-286
-279
-276
-272
-273
-287
-283
-310
-351
-342
-321
-305
-290
-261
-275
-283
-319
-304
-322
-319
-327
-301
-294
-276
-294
-274
-299
-301
-316
-340
-336
-322
-326
-282
-291
-308
-326
-300
-307
-291
-273
-216
-180
-160
-142
-135
-120
-130
-162
-147
-115
-107
-95
-106
-173
-222
-256
-275
-304
-303
-296
-288
-268
-238
-276
-273
-287
-317
-317
-317
-318
-311
-298
-292
-287
-282
-315
-305
-320
-334
-316
-287
-292
-283
-280
-292
-329
-328
-336
-329
-324
-311
-284
-276
-272
-282
-304
-308
-341
-347
-313
-305
-284
-262
-275
-295
-304
-327
-343
-309
-311
-301
-265
-263
-262
-312
-311
-323
-315
-317
-286
-291
-262
-254
-278
-259
-312
-323
-315
-304
-307
-276
-263
-259
-273
-284
-276
-293
-293
-310
-274
-258
-238
-248
-250
-261
-288
-318
-283
-275
-257
-257
-222
-223
-220
-234
-254
-273
-258
-282
-256
-234
-214
-221
-230
-256
-250
-292
-286
-254
-236
-242
-198
-227
-224
-240
-263
-278
-285
-284
-284
-247
-223
-250
-261
-269
-263
-294
-319
-306
-285
-277
-257
-245
-288
-297
-301
-318
-295
-308
-289
-288
-262
-270
-266
-287
-301
-313
-317
-307
-306
-289
-267
-281
-284
-284
-299
-316
-329
-292
-288
-283
-251
-258
-273
-312
-318
-305
-309
-306
-302
-252
-261
-275
-266
-300
-314
-330
-303
-294
-312
-277
-259
-279
-258
-317
-308
-321
-298
-298
-283
-283
-257
-270
-269
-285
-331
-329
-324
-307
-288
-280
-265
-265
-269
-291
-328
-333
-306
-313
-294
-256
-256
-271
-268
-292
-314
-331
-310
-292
-284
-261
-266
-286
-287
-322
-345
-326
-303
-280
-265
-265
-262
-266
-273
-300
-342
-316
-299
-286
-265
-280
-278
-285
-289
-298
-314
-325
-300
-283
-291
-265
-275
-283
-294
-305
-308
-310
-312
-288
-281
-247
-266
-261
-291
-297
-313
-302
-297
-294
-252
-245
-243
-263
-271
-303
-298
-280
-279
-264
-258
-239
-243
-247
-269
-305
-308
-308
-297
-289
-301
-257
-254
-281
-295
-299
-332
-310
-312
-282
-282
-247
-282
-286
-304
-279
-304
-321
-314
-302
-290
-262
-278
-287
-316
-331
-350
-362
-296
-289
-286
-258
-255
-255
-250
-219
-211
-196
-157
-120
-82
-72
-93
-94
-93
-120
-153
-175
-219
-212
-244
-228
-232
-247
-270
-287
-299
-290
-290
-287
-271
-266
-285
-294
-290
-325
-319
-308
-312
-289
-276
-263
-267
-295
-312
-316
-308
-309
-310
-303
-265
-266
-278
-301
-297
-314
-309
-303
-281
-288
-264
-287
-267
-302
-297
-320
-319
-302
-294
-276
-261
-270
-288
-276
-291
-315
-314
-306
-281
-273
-250
-281
-260
-274
-291
-297
-300
-304
-284
-277
-251
-245
-249
-272
-277
-299
-281
-284
-272
-261
-249
-234
-243
-259
-284
-283
-287
-268
-260
-234
-220
-220
-251
-239
-249
-274
-285
-254
-238
-228
-205
-200
-235
-237
-259
-260
-263
-247
-219
-220
-211
-208
-227
-235
-232
-278
-268
-250
-232
-219
-202
-197
-213
-231
-257
-303
-273
-263
-263
-256
-251
-254
-237
-279
-306
-294
-296
-279
-274
-257
-257
-240
-275
-294
-301
-329
-303
-293
-271
-248
-251
-272
-278
-282
-305
-320
-297
-281
-266
-253
-258
-270
-266
-277
-300
-305
-306
-304
-280
-263
-262
-277
-283
-287
-306
-300
-295
-291
-263
-263
-266
-267
-267
-296
-319
-325
-290
-272
-280
-239
-260
-257
-276
-294
-319
-305
-296
-294
-287
-266
-250
-253
-259
-300
-320
-305
-303
-291
-275
-232
-258
-250
-286
-317
-298
-312
-292
-287
-262
-273
-253
-272
-279
-270
-308
-333
-300
-284
-296
-250
-242
-262
-280
-283
-305
-310
-306
-285
-277
-251
-259
-276
-294
-290
-315
-297
-294
-271
-262
-243
-278
-280
-272
-285
-308
-309
-287
-273
-263
-253
-254
-277
-264
-281
-295
-300
-279
-253
-257
-245
-247
-239
-261
-268
-303
-274
-276
-256
-264
-243
-236
-263
-271
-308
-312
-304
-267
-256
-245
-252
-261
-282
-288
-304
-307
-291
-304
-287
-279
-255
-266
-269
-287
-300
-313
-297
-291
-279
-254
-275
-282
-288
-313
-340
-345
-323
-293
-284
-231
-205
-195
-190
-179
-173
-166
-148
-122
-114
-92
-84
-88
-89
-123
-190
-249
-266
-256
-254
-241
-244
-250
-264
-272
-292
-300
-297
-284
-279
-246
-245
-264
-283
-284
-339
-319
-298
-290
-279
-248
-252
-256
-269
-293
-311
-318
-288
-290
-297
-245
-259
-268
-297
-300
-300
-288
-293
-265
-274
-248
-266
-260
-269
-277
-325
-300
-294
-276
-267
-247
-256
-282
-280
-282
-316
-288
-275
-262
-255
-233
-222
-235
-264
-294
-294
-283
-304
-276
-255
-217
-235
-255
-265
-277
-286
-267
-278
-258
-217
-227
-229
-227
-256
-267
-286
-267
-244
-226
-215
-205
-214
-217
-233
-257
-255
-238
-257
-217
-202
-206
-203
-217
-229
-242
-239
-226
-229
-207
-197
-175
-195
-236
-226
-261
-280
-269
-224
-217
-205
-203
-210
-222
-233
-272
-272
-273
-278
-252
-220
-236
-247
-265
-260
-299
-298
-294
-262
-263
-236
-254
-260
-260
-281
-318
-294
-279
-272
-279
-263
-240
-255
-265
-281
-295
-297
-296
-274
-268
-255
-249
-278
-274
-285
-343
-313
-270
-268
-264
-242
-236
-245
-283
-287
-300
-292
-288
-282
-269
-257
-245
-271
-266
-279
-303
-302
-276
-260
-254
-231
-231
-250
-280
-282
-293
-303
-298
-274
-258
-240
-269
-249
-262
-271
-282
-283
-295
-271
-272
-250
-244
-290
-275
-281
-298
-288
-307
-258
-250
-247
-231
-263
-268
-286
-318
-312
-286
-260
-241
-246
-247
-255
-289
-282
-305
-297
-266
-251
-242
-233
-240
-255
-291
-296
-316
-309
-281
-277
-240
-251
-273
-261
-260
-290
-294
-282
-267
-250
-252
-252
-244
-249
-277
-285
-278
-273
-263
-260
-230
-215
-238
-221
-244
-281
-278
-282
-266
-255
-236
-223
-260
-269
-266
-305
-311
-308
-275
-255
-232
-231
-217
-278
-277
-294
-310
-297
-294
-272
-244
-259
-261
-265
-295
-299
-290
-300
-267
-290
-268
-266
-258
-276
-287
-297
-262
-220
-176
-148
-124
-109
-108
-98
-100
-127
-117
-83
-80
-90
-124
-187
-219
-242
-255
-275
-269
-264
-248
-241
-233
-228
-242
-251
-291
-309
-308
-286
-264
-276
-234
-242
-250
-282
-276
-299
-298
-289
-254
-263
-246
-243
-256
-282
-289
-310
-313
-301
-267
-259
-240
-231
-258
-284
-287
-313
-298
-291
-259
-250
-230
-235
-252
-266
-296
-299
-294
-290
-262
-257
-248
-246
-249
-262
-273
-284
-288
-254
-249
-228
-230
-251
-253
-254
-279
-282
-280
-253
-251
-219
-235
-252
-252
-274
-277
-260
-272
-252
-242
-241
-238
-253
-254
-265
-280
-276
-271
-257
-247
-216
-233
-236
-254
-257
-274
-269
-280
-257
-256
-236
-215
-241
-254
-262
-287
-286
-296
-281
-279
-238
-233
-246
-277
-275
-316
-302
-295
-289
-293
-269
-267
-287
-292
-324
-327
-298
-310
-300
-281
-260
-273
-282
-289
-293
-350
-331
-310
-290
-290
-259
-268
-291
-299
-305
-332
-299
-317
-309
-282
-263
-248
-270
-301
-307
-318
-302
-287
-311
-276
-252
-251
-274
-278
-289
-317
-325
-307
-291
-275
-256
-266
-277
-296
-291
-301
-294
-292
-301
-276
-242
-262
-280
-289
-295
-312
-301
-298
-293
-277
-233
-245
-259
-278
-300
-305
-335
-287
-277
-275
-248
-248
-257
-279
-277
-300
-307
-279
-278
-271
-251
-264
-275
-284
-301
-296
-288
-292
-256
-242
-247
-253
-270
-276
-295
-290
-275
-287
-271
-254
-251
-267
-277
-271
-294
-288
-311
-287
-250
-240
-251
-242
-264
-280
-304
-300
-288
-263
-253
-246
-258
-263
-264
-276
-285
-287
-265
-252
-246
-225
-212
-244
-238
-239
-283
-273
-248
-256
-238
-217
-221
-231
-271
-277
-284
-290
-292
-286
-249
-215
-225
-238
-257
-272
-311
-310
-285
-267
-245
-239
-231
-238
-264
-279
-295
-292
-276
-255
-272
-247
-245
-276
-294
-291
-313
-304
-300
-276
-261
-216
-213
-202
-181
-167
-161
-147
-115
-83
-62
-36
-62
-49
-59
-87
-150
-183
-221
-241
-221
-208
-201
-216
-240
-230
-265
-271
-258
-252
-253
-244
-244
-273
-276
-294
-280
-283
-285
-252
-220
-260
-244
-262
-271
-283
-280
-281
-269
-262
-230
-224
-258
-261
-282
-297
-293
-289
-284
-250
-237
-218
-212
-250
-268
-302
-294
-286
-265
-253
-236
-238
-242
-259
-256
-280
-282
-275
-262
-251
-213
-230
-248
-240
-252
-252
-252
-275
-250
-246
-219
-237
-244
-247
-243
-264
-253
-248
-240
-247
-181
-204
-223
-233
-229
-262
-250
-235
-228
-221
-197
-187
-205
-212
-216
-258
-252
-230
-221
-203
-176
-176
-190
-189
-204
-237
-220
-199
-212
-183
-164
-192
-192
-218
-220
-225
-227
-229
-199
-196
-184
-208
-214
-233
-253
-250
-239
-236
-224
-227
-211
-225
-233
-232
-265
-274
-264
-260
-235
-223
-234
-245
-242
-254
-267
-279
-275
-273
-250
-241
-220
-237
-240
-250
-248
-275
-258
-285
-251
-230
-213
-237
-232
-261
-272
-273
-259
-261
-246
-256
-213
-225
-249
-266
-272
-277
-264
-250
-234
-232
-230
-243
-247
-264
-271
-273
-262
-255
-267
-232
-219
-222
-231
-258
-271
-280
-259
-280
-256
-231
-220
-230
-248
-268
-286
-269
-264
-247
-258
-228
-223
-220
-236
-249
-291
-277
-265
-251
-259
-230
-218
-226
-250
-263
-270
-275
-276
-282
-239
-217
-222
-227
-247
-262
-283
-267
-260
-256
-243
-218
-233
-243
-243
-255
-280
-273
-275
-252
-232
-215
-244
-236
-253
-254
-274
-258
-278
-258
-235
-228
-231
-249
-221
-247
-259
-274
-273
-239
-217
-226
-217
-224
-226
-269
-261
-276
-211
-220
-222
-183
-175
-216
-233
-246
-286
-272
-269
-239
-227
-206
-248
-237
-259
-265
-279
-274
-251
-237
-235
-239
-224
-236
-258
-279
-269
-280
-266
-242
-235
-222
-216
-244
-270
-296
-298
-310
-282
-280
-249
-229
-232
-219
-237
-240
-211
-179
-159
-115
-54
-47
-44
-71
-77
-96
-60
-54
-97
-114
-150
-176
-199
-224
-226
-245
-257
-232
-247
-248
-205
-208
-218
-259
-272
-294
-278
-277
-251
-256
-230
-245
-253
-246
-251
-276
-281
-256
-270
-249
-234
-234
-217
-250
-239
-264
-291
-271
-282
-249
-201
-220
-237
-224
-254
-286
-281
-261
-265
-246
-259
-211
-223
-244
-249
-275
-277
-256
-256
-231
-222
-234
-248
-234
-249
-269
-258
-264
-255
-222
-193
-213
-220
-214
-244
-255
-258
-249
-240
-215
-219
-208
-235
-254
-245
-286
-262
-263
-236
-249
-212
-230
-230
-221
-250
-263
-260
-237
-241
-238
-217
-224
-230
-233
-260
-247
-235
-238
-229
-200
-184
-193
-198
-215
-236
-256
-246
-246
-207
-217
-195
-191
-225
-223
-243
-274
-247
-236
-243
-213
-207
-198
-228
-246
-250
-267
-246
-259
-245
-227
-226
-237
-264
-245
-271
-271
-266
-243
-253
-226
-212
-240
-258
-257
-291
-278
-267
-248
-267
-214
-216
-224
-250
-253
-276
-264
-249
-266
-245
-233
-230
-246
-227
-252
-308
-271
-260
-240
-251
-217
-219
-228
-230
-260
-274
-271
-259
-238
-242
-221
-217
-237
-251
-266
-283
-270
-278
-233
-220
-209
-224
-231
-252
-254
-281
-271
-261
-246
-259
-216
-232
-232
-235
-256
-292
-283
-266
-254
-237
-206
-215
-233
-237
-255
-280
-271
-252
-238
-228
-246
-223
-218
-244
-252
-271
-265
-253
-250
-241
-217
-231
-237
-258
-257
-270
-271
-259
-242
-224
-211
-222
-243
-255
-261
-262
-255
-254
-238
-251
-215
-237
-230
-267
-266
-268
-244
-256
-227
-230
-206
-209
-238
-247
-260
-249
-247
-233
-231
-212
-201
-213
-213
-215
-240
-242
-245
-225
-201
-206
-194
-215
-223
-230
-270
-266
-250
-255
-238
-227
-204
-216
-234
-266
-289
-256
-248
-243
-230
-249
-236
-238
-241
-240
-274
-268
-256
-246
-248
-227
-231
-234
-264
-260
-304
-292
-281
-267
-240
-193
-174
-152
-139
-131
-126
-115
-90
-65
-43
-18
-9
-21
-73
-86
-171
-222
-237
-208
-195
-184
-195
-195
-210
-230
-269
-262
-265
-243
-241
-237
-214
-248
-250
-251
-291
-272
-267
-242
-242
-219
-224
-247
-262
-243
-287
-284
-255
-229
-225
-211
-212
-238
-239
-249
-292
-269
-272
-262
-248
-226
-202
-238
-266
-253
-262
-266
-235
-238
-243
-207
-215
-252
-236
-256
-263
-260
-267
-219
-226
-219
-231
-214
-227
-267
-267
-247
-249
-248
-225
-218
-218
-231
-211
-228
-242
-235
-228
-241
-204
-201
-199
-209
-230
-246
-246
-233
-217
-200
-164
-185
-172
-209
-204
-221
-217
-226
-206
-187
-163
-181
-172
-194
-201
-230
-197
-217
-204
-183
-179
-190
-186
-175
-198
-218
-189
-204
-206
-197
-174
-186
-203
-201
-224
-243
-244
-228
-232
-223
-208
-219
-227
-212
-247
-265
-251
-261
-236
-223
-216
-214
-221
-250
-249
-265
-271
-271
-250
-246
-219
-209
-223
-246
-279
-257
-263
-263
-239
-240
-220
-210
-226
-256
-254
-284
-300
-257
-223
-245
-225
-219
-219
-236
-247
-270
-274
-260
-250
-236
-213
-246
-243
-241
-239
-253
-246
-243
-239
-257
-219
-222
-248
-272
-271
-269
-275
-264
-247
-218
-233
-215
-236
-224
-268
-269
-282
-257
-233
-231
-228
-223
-240
-252
-266
-278
-284
-258
-234
-226
-226
-206
-243
-263
-266
-260
-261
-267
-239
-230
-234
-242
-235
-247
-268
-296
-272
-245
-243
-217
-214
-226
-249
-239
-263
-261
-270
-272
-233
-227
-240
-223
-245
-266
-284
-280
-277
-258
-228
-207
-227
-231
-247
-249
-289
-271
-252
-238
-226
-204
-233
-222
-241
-242
-290
-231
-254
-212
-206
-187
-193
-203
-228
-238
-244
-257
-233
-242
-234
-215
-223
-241
-235
-266
-300
-279
-281
-248
-239
-223
-232
-233
-250
-255
-288
-277
-266
-230
-224
-217
-225
-237
-265
-272
-283
-280
-283
-278
-271
-243
-255
-254
-250
-264
-260
-218
-201
-158
-121
-93
-74
-99
-95
-79
-106
-93
-61
-48
-61
-95
-162
-198
-227
-248
-259
-255
-232
-234
-222
-195
-206
-223
-252
-252
-264
-264
-260
-258
-235
-224
-239
-244
-256
-270
-271
-259
-252
-270
-216
-210
-220
-250
-250
-285
-278
-270
-251
-258
-234
-219
-227
-249
-242
-271
-265
-250
-259
-252
-215
-205
-224
-236
-253
-268
-284
-257
-241
-233
-219
-208
-222
-229
-226
-253
-260
-252
-242
-229
-204
-207
-200
-226
-237
-253
-242
-266
-249
-214
-205
-209
-195
-224
-232
-237
-246
-230
-224
-194
-176
-193
-202
-195
-203
-247
-230
-252
-206
-174
-169
-172
-169
-190
-192
-213
-206
-200
-185
-187
-185
-179
-173
-176
-187
-220
-212
-213
-198
-172
-169
-187
-188
-193
-201
-218
-227
-238
-205
-216
-185
-184
-194
-207
-245
-269
-256
-240
-217
-217
-196
-204
-227
-234
-255
-270
-253
-259
-261
-233
-218
-221
-233
-252
-257
-272
-264
-260
-231
-243
-228
-224
-242
-232
-260
-289
-267
-247
-242
-232
-204
-232
-230
-257
-278
-261
-256
-239
-209
-229
-247
-253
-244
-254
-269
-254
-280
-243
-234
-228
-223
-233
-243
-256
-262
-281
-265
-249
-237
-215
-238
-219
-220
-234
-277
-268
-271
-277
-247
-230
-216
-227
-246
-254
-256
-260
-271
-252
-249
-225
-204
-252
-245
-230
-265
-265
-258
-252
-238
-204
-212
-250
-240
-255
-296
-272
-270
-261
-242
-212
-220
-231
-247
-258
-292
-269
-263
-232
-244
-225
-218
-227
-235
-254
-283
-264
-272
-253
-255
-220
-242
-236
-253
-252
-261
-276
-265
-226
-223
-197
-222
-229
-228
-230
-254
-253
-258
-228
-192
-178
-211
-216
-229
-232
-270
-269
-237
-251
-243
-230
-225
-249
-256
-271
-278
-275
-238
-247
-229
-217
-227
-233
-268
-266
-273
-270
-266
-242
-241
-219
-235
-247
-257
-275
-278
-326
-298
-270
-259
-239
-224
-254
-224
-237
-235
-199
-160
-133
-108
-80
-71
-82
-91
-92
-92
-84
-73
-87
-144
-180
-199
-216
-252
-251
-256
-256
-241
-212
-205
-210
-212
-238
-235
-288
-290
-275
-263
-257
-226
-229
-242
-257
-240
-272
-292
-273
-249
-259
-228
-224
-249
-273
-252
-272
-290
-271
-286
-250
-202
-211
-236
-245
-264
-277
-283
-261
-254
-229
-204
-229
-229
-254
-256
-279
-266
-250
-233
-227
-224
-223
-244
-248
-235
-250
-263
-246
-236
-254
-213
-239
-219
-234
-242
-256
-265
-235
-212
-227
-199
-213
-210
-227
-243
-268
-233
-222
-229
-196
-191
-190
-185
-212
-217
-243
-231
-224
-199
-200
-176
-185
-186
-166
-215
-234
-217
-191
-197
-198
-181
-192
-198
-203
-212
-225
-207
-191
-176
-183
-173
-182
-202
-225
-238
-205
-233
-228
-208
-207
-183
-199
-195
-223
-270
-276
-259
-249
-241
-217
-214
-215
-214
-247
-277
-258
-289
-260
-230
-222
-227
-243
-253
-262
-258
-271
-273
-242
-239
-213
-212
-228
-232
-259
-281
-276
-266
-245
-244
-207
-211
-238
-240
-259
-281
-278
-264
-249
-224
-227
-213
-219
-226
-235
-286
-264
-262
-263
-243
-216
-235
-229
-247
-262
-275
-264
-242
-256
-230
-212
-209
-214
-220
-257
-266
-281
-279
-261
-238
-218
-234
-222
-228
-256
-267
-252
-253
-239
-244
-194
-220
-233
-259
-254
-257
-279
-250
-226
-231
-218
-212
-229
-237
-256
-280
-281
-279
-257
-230
-206
-209
-221
-239
-227
-253
-281
-265
-253
-229
-221
-216
-227
-253
-255
-268
-275
-245
-246
-237
-217
-223
-215
-230
-250
-253
-242
-232
-217
-183
-190
-185
-219
-226
-242
-263
-227
-243
-224
-216
-211
-197
-225
-245
-263
-273
-270
-282
-259
-222
-220
-219
-234
-242
-259
-271
-250
-259
-249
-222
-200
-224
-258
-250
-274
-280
-279
-279
-269
-246
-214
-250
-262
-257
-277
-236
-249
-190
-162
-98
-99
-97
-97
-91
-115
-83
-97
-50
-33
-40
-63
-123
-189
-193
-237
-236
-234
-225
-227
-187
-198
-204
-222
-242
-284
-269
-252
-264
-247
-217
-212
-223
-262
-254
-281
-266
-267
-239
-230
-212
-218
-236
-253
-266
-291
-287
-275
-273
-238
-232
-233
-228
-241
-256
-253
-256
-263
-255
-266
-200
-208
-246
-251
-260
-265
-262
-267
-235
-228
-206
-217
-227
-243
-239
-269
-269
-244
-218
-219
-211
-204
-225
-250
-275
-282
-249
-241
-229
-212
-186
-211
-214
-232
-252
-254
-247
-238
-245
-210
-185
-171
-196
-222
-243
-235
-218
-221
-206
-175
-157
-171
-211
-205
-202
-226
-236
-218
-192
-163
-156
-177
-172
-182
-224
-239
-226
-189
-191
-173
-172
-174
-194
-221
-232
-214
-230
-216
-188
-186
-187
-184
-208
-244
-256
-264
-251
-248
-231
-208
-215
-229
-203
-229
-269
-270
-268
-258
-252
-218
-218
-207
-243
-266
-268
-263
-280
-263
-233
-204
-217
-226
-242
-254
-295
-286
-257
-235
-256
-231
-215
-208
-235
-234
-262
-258
-259
-253
-242
-217
-222
-239
-248
-254
-273
-266
-274
-245
-226
-205
-199
-235
-240
-251
-292
-275
-257
-247
-230
-222
-227
-244
-263
-257
-279
-274
-286
-255
-233
-210
-198
-220
-235
-255
-281
-274
-250
-247
-236
-217
-219
-248
-241
-254
-267
-260
-251
-222
-238
-216
-234
-248
-250
-260
-298
-274
-245
-243
-251
-216
-221
-241
-234
-275
-253
-267
-254
-266
-243
-219
-207
-224
-243
-270
-275
-270
-255
-259
-216
-190
-230
-220
-246
-281
-248
-264
-213
-201
-220
-196
-186
-210
-221
-248
-258
-251
-253
-224
-191
-236
-240
-228
-235
-269
-276
-255
-257
-244
-217
-216
-240
-245
-246
-271
-252
-274
-260
-257
-227
-213
-216
-242
-255
-281
-275
-268
-241
-245
-257
-227
-251
-260
-274
-307
-291
-282
-271
-211
-184
-162
-131
-129
-135
-141
-121
-80
-63
-51
-10
-14
-45
-75
-112
-219
-230
-226
-196
-201
-182
-198
-226
-245
-241
-285
-266
-268
-250
-230
-207
-216
-235
-249
-271
-291
-295
-258
-251
-264
-234
-212
-233
-269
-248
-280
-285
-258
-250
-254
-225
-237
-248
-260
-251
-277
-284
-260
-249
-246
-217
-225
-247
-252
-251
-261
-255
-261
-245
-213
-209
-244
-245
-276
-255
-285
-277
-248
-240
-218
-211
-223
-212
-229
-230
-237
-260
-261
-257
-229
-212
-224
-226
-239
-261
-259
-253
-259
-212
-185
-203
-185
-213
-233
-245
-232
-233
-221
-198
-179
-179
-187
-200
-213
-230
-210
-222
-208
-191
-168
-164
-178
-200
-214
-221
-212
-202
-198
-181
-186
-157
-162
-204
-220
-243
-214
-214
-219
-205
-172
-189
-200
-184
-217
-263
-255
-228
-234
-231
-205
-226
-224
-216
-252
-275
-283
-262
-250
-240
-205
-214
-231
-237
-238
-287
-271
-241
-239
-257
-222
-218
-237
-257
-245
-268
-269
-254
-252
-241
-210
-221
-233
-261
-253
-266
-263
-261
-256
-241
-233
-220
-222
-249
-262
-272
-268
-251
-237
-225
-205
-226
-245
-252
-270
-277
-276
-288
-246
-237
-202
-220
-244
-256
-268
-273
-255
-257
-245
-240
-237
-236
-233
-245
-273
-249
-270
-257
-229
-216
-214
-231
-261
-262
-282
-266
-273
-267
-236
-219
-205
-234
-243
-236
-283
-281
-272
-240
-221
-227
-227
-247
-240
-250
-276
-291
-292
-256
-252
-215
-207
-218
-235
-261
-265
-273
-265
-257
-243
-203
-209
-233
-260
-262
-283
-279
-283
-247
-252
-213
-223
-209
-237
-236
-248
-247
-224
-222
-210
-186
-196
-200
-209
-219
-278
-270
-261
-246
-238
-218
-226
-225
-261
-259
-281
-259
-254
-254
-243
-216
-214
-247
-261
-247
-298
-297
-269
-250
-236
-208
-244
-249
-258
-265
-284
-287
-276
-258
-264
-237
-228
-246
-233
-251
-255
-224
-196
-130
-127
-100
-82
-56
-87
-77
-87
-73
-56
-37
-71
-118
-165
-211
-223
-233
-251
-244
-227
-235
-216
-216
-206
-258
-257
-276
-288
-272
-258
-241
-222
-229
-214
-235
-258
-299
-270
-290
-269
-265
-253
-221
-216
-221
-252
-286
-279
-298
-266
-235
-220
-216
-228
-240
-245
-275
-280
-280
-267
-219
-237
-214
-212
-236
-262
-274
-266
-262
-250
-230
-215
-220
-223
-223
-245
-270
-260
-273
-236
-238
-201
-211
-227
-230
-223
-261
-260
-234
-246
-219
-190
-201
-214
-200
-253
-266
-257
-240
-215
-209
-186
-178
-192
-200
-224
-228
-247
-232
-208
-200
-170
-171
-180
-189
-199
-215
-211
-201
-202
-226
-166
-169
-179
-187
-197
-205
-217
-211
-180
-189
-149
-181
-175
-210
-209
-225
-227
-226
-209
-196
-181
-214
-217
-215
-228
-255
-253
-244
-236
-231
-213
-205
-226
-233
-250
-263
-282
-258
-238
-232
-220
-213
-227
-232
-250
-256
-262
-243
-242
-230
-218
-209
-242
-248
-274
-266
-258
-249
-233
-223
-198
-210
-244
-249
-252
-257
-275
-260
-229
-222
-202
-217
-244
-245
-272
-278
-268
-230
-231
-211
-221
-192
-208
-260
-276
-285
-272
-251
-244
-221
-215
-213
-251
-250
-261
-248
-262
-252
-226
-216
-199
-207
-251
-246
-275
-270
-280
-244
-245
-218
-218
-222
-236
-247
-259
-255
-273
-251
-236
-213
-205
-235
-245
-234
-243
-247
-269
-231
-253
-222
-223
-228
-229
-249
-281
-262
-268
-240
-227
-229
-224
-238
-233
-234
-256
-269
-257
-263
-237
-204
-222
-221
-243
-262
-279
-251
-239
-235
-265
-196
-227
-226
-229
-208
-248
-246
-255
-233
-226
-196
-198
-208
-233
-226
-240
-232
-238
-213
-209
-181
-183
-212
-223
-252
-271
-261
-256
-221
-223
-219
-197
-213
-232
-287
-269
-272
-258
-256
-205
-212
-227
-238
-251
-240
-267
-261
-252
-231
-216
-219
-222
-219
-265
-304
-297
-289
-280
-255
-244
-216
-196
-210
-191
-186
-170
-141
-125
-87
-40
-30
-33
-56
-70
-73
-68
-90
-127
-180
-193
-201
-197
-211
-219
-244
-237
-233
-232
-222
-207
-224
-212
-225
-232
-265
-275
-272
-250
-258
-225
-217
-218
-246
-254
-261
-277
-270
-252
-244
-212
-219
-239
-242
-244
-263
-262
-250
-230
-235
-209
-217
-218
-241
-242
-262
-277
-260
-239
-239
-201
-215
-217
-247
-248
-256
-271
-242
-221
-249
-200
-191
-243
-248
-228
-257
-252
-229
-236
-221
-197
-214
-220
-211
-222
-249
-241
-234
-239
-203
-197
-201
-203
-215
-232
-233
-236
-209
-203
-184
-157
-165
-180
-185
-198
-219
-213
-202
-197
-180
-160
-185
-174
-195
-211
-214
-206
-210
-192
-161
-132
-166
-166
-197
-210
-185
-201
-187
-185
-191
-185
-173
-203
-192
-212
-236
-200
-221
-214
-191
-188
-193
-221
-206
-239
-242
-253
-251
-221
-202
-202
-202
-217
-236
-280
-253
-256
-224
-220
-213
-207
-214
-235
-231
-268
-267
-264
-235
-233
-210
-224
-219
-239
-244
-252
-268
-256
-238
-218
-196
-210
-221
-235
-223
-266
-254
-256
-225
-219
-201
-203
-228
-228
-226
-269
-249
-252
-227
-243
-224
-208
-213
-237
-245
-257
-239
-239
-236
-228
-218
-208
-218
-227
-247
-275
-255
-244
-236
-227
-208
-204
-213
-232
-256
-267
-242
-244
-238
-229
-202
-193
-223
-235
-244
-258
-242
-251
-232
-202
-211
-214
-223
-213
-259
-251
-229
-253
-247
-228
-216
-194
-214
-237
-261
-265
-262
-263
-237
-228
-193
-205
-219
-239
-236
-254
-253
-247
-229
-194
-195
-200
-228
-243
-245
-259
-226
-213
-198
-186
-169
-198
-221
-226
-224
-243
-224
-237
-218
-184
-198
-192
-205
-217
-266
-277
-250
-229
-243
-213
-209
-220
-225
-248
-258
-258
-254
-247
-220
-190
-202
-213
-227
-228
-240
-281
-266
-252
-233
-229
-221
-238
-255
-270
-270
-242
-246
-221
-196
-151
-117
-115
-120
-102
-121
-82
-65
-79
-61
-6
2
-52
-109
-177
-225
-231
-230
-212
-212
-187
-202
-196
-224
-221
-246
-243
-245
-234
-206
-195
-214
-227
-236
-247
-281
-258
-270
-232
-224
-220
-213
-216
-239
-237
-245
-253
-249
-214
-234
-222
-208
-222
-236
-247
-270
-246
-245
-235
-209
-184
-188
-216
-232
-240
-250
-246
-232
-224
-225
-194
-188
-238
-244
-247
-252
-235
-235
-234
-194
-198
-190
-200
-237
-240
-230
-237
-224
-215
-185
-179
-188
-209
-214
-233
-242
-226
-224
-195
-166
-174
-168
-200
-199
-200
-217
-214
-187
-186
-166
-162
-161
-179
-195
-197
-200
-217
-190
-163
-163
-150
-143
-164
-184
-201
-191
-206
-181
-177
-153
-142
-162
-170
-189
-229
-218
-178
-165
-180
-160
-175
-181
-195
-194
-243
-227
-223
-223
-203
-169
-211
-206
-190
-214
-235
-244
-249
-229
-223
-204
-204
-223
-218
-228
-245
-236
-244
-237
-233
-207
-194
-206
-224
-237
-256
-266
-234
-206
-213
-212
-197
-212
-236
-251
-254
-259
-227
-215
-227
-194
-196
-210
-220
-264
-255
-253
-222
-204
-221
-186
-190
-215
-238
-243
-246
-254
-226
-224
-207
-194
-213
-212
-220
-233
-252
-231
-243
-209
-224
-191
-195
-217
-230
-234
-256
-238
-242
-238
-202
-199
-195
-206
-255
-236
-236
-228
-233
-209
-221
-199
-197
-199
-222
-275
-255
-258
-236
-220
-207
-205
-214
-217
-240
-218
-261
-245
-244
-212
-179
-190
-218
-216
-225
-257
-238
-247
-228
-221
-193
-186
-204
-205
-232
-254
-253
-240
-229
-222
-194
-201
-197
-194
-213
-241
-227
-198
-213
-195
-169
-179
-204
-211
-210
-247
-247
-245
-214
-217
-210
-213
-203
-228
-253
-257
-263
-259
-241
-245
-205
-228
-217
-218
-243
-269
-270
-274
-254
-204
-212
-204
-213
-232
-249
-275
-294
-282
-245
-254
-214
-231
-220
-211
-215
-222
-185
-159
-101
-108
-70
-37
-32
-57
-60
-77
-38
-44
-84
-94
-100
-171
-170
-195
-226
-218
-234
-230
-203
-195
-192
-209
-210
-226
-232
-248
-263
-242
-212
-225
-210
-214
-210
-236
-250
-246
-240
-249
-242
-215
-205
-217
-232
-230
-236
-248
-249
-264
-228
-207
-223
-201
-225
-225
-236
-247
-232
-226
-240
-212
-192
-198
-224
-232
-243
-255
-247
-226
-203
-209
-180
-195
-208
-229
-245
-242
-261
-220
-210
-209
-189
-207
-183
-223
-221
-235
-235
-202
-203
-185
-179
-169
-192
-195
-239
-210
-206
-206
-195
-166
-174
-157
-199
-217
-187
-190
-182
-175
-155
-130
-149
-156
-183
-180
-201
-205
-194
-179
-161
-152
-150
-146
-151
-169
-186
-199
-177
-162
-162
-145
-157
-162
-181
-199
-227
-198
-210
-199
-172
-155
-157
-178
-195
-204
-239
-245
-220
-218
-212
-192
-170
-178
-213
-233
-259
-237
-206
-220
-203
-220
-189
-200
-206
-237
-244
-235
-244
-195
-201
-189
-178
-211
-223
-215
-257
-226
-222
-209
-192
-175
-177
-214
-216
-238
-247
-227
-229
-236
-187
-164
-192
-198
-225
-237
-234
-231
-237
-208
-205
-191
-184
-201
-223
-219
-230
-225
-236
-221
-193
-190
-208
-196
-212
-246
-233
-226
-217
-201
-179
-171
-181
-208
-226
-249
-229
-232
-228
-231
-197
-164
-183
-194
-226
-240
-230
-235
-225
-196
-183
-176
-227
-221
-199
-228
-227
-220
-231
-202
-186
-192
-205
-211
-208
-239
-236
-235
-229
-206
-172
-198
-201
-217
-219
-237
-243
-221
-199
-201
-178
-183
-181
-219
-231
-221
-228
-226
-220
-201
-181
-188
-188
-209
-229
-239
-230
-222
-195
-162
-127
-166
-171
-173
-196
-236
-216
-215
-183
-185
-169
-167
-189
-189
-209
-229
-242
-223
-204
-207
-190
-176
-179
-219
-219
-230
-235
-226
-210
-195
-186
-190
-197
-214
-241
-249
-250
-222
-215
-184
-168
-191
-192
-232
-235
-265
-268
-244
-238
-192
-140
-155
-124
-115
-148
-103
-86
-68
-24
-10
-13
11
13
-5
-46
-107
-171
-172
-178
-175
-155
-164
-151
-188
-228
-229
-238
-227
-197
-176
-181
-178
-198
-225
-239
-255
-242
-226
-210
-194
-182
-181
-223
-231
-235
-235
-224
-220
-194
-196
-179
-203
-202
-217
-257
-231
-223
-210
-199
-184
-182
-184
-209
-212
-251
-232
-241
-231
-203
-164
-177
-198
-199
-216
-252
-227
-196
-204
-191
-194
-185
-190
-199
-225
-237
-216
-228
-198
-188
-161
-159
-184
-213
-231
-204
-194
-219
-193
-163
-146
-148
-169
-166
-198
-224
-210
-193
-174
-171
-150
-138
-147
-175
-212
-187
-174
-158
-137
-142
-159
-132
-152
-161
-169
-166
-176
-176
-176
-141
-129
-147
-156
-163
-157
-172
-168
-160
-160
-127
-135
-166
-153
-163
-201
-216
-218
-195
-175
-152
-155
-190
-185
-183
-220
-228
-214
-204
-195
-191
-171
-174
-195
-209
-206
-247
-229
-220
-209
-176
-181
-176
-188
-213
-245
-218
-222
-220
-191
-176
-159
-179
-202
-218
-233
-227
-219
-208
-193
-171
-181
-182
-191
-205
-235
-225
-220
-227
-205
-159
-156
-197
-201
-207
-229
-236
-227
-216
-199
-162
-192
-186
-189
-209
-239
-224
-221
-222
-209
-177
-184
-192
-209
-213
-234
-230
-213
-195
-201
-161
-175
-173
-188
-204
-241
-238
-223
-209
-202
-163
-165
-181
-224
-209
-230
-222
-207
-205
-203
-180
-176
-193
-191
-213
-240
-234
-202
-202
-197
-162
-175
-183
-203
-217
-246
-226
-227
-205
-179
-163
-170
-185
-208
-205
-234
-220
-224
-198
-189
-184
-163
-204
-209
-197
-230
-241
-215
-193
-179
-179
-191
-195
-216
-216
-218
-225
-210
-186
-178
-168
-171
-164
-198
-185
-186
-172
-200
-177
-161
-147
-155
-175
-196
-212
-196
-217
-197
-171
-193
-164
-162
-205
-198
-221
-256
-215
-187
-196
-179
-161
-190
-217
-205
-233
-221
-237
-240
-197
-182
-163
-186
-206
-211
-226
-248
-235
-234
-211
-190
-186
-201
-196
-173
-166
-143
-119
-96
-26
2
3
13
-12
-23
-47
-29
-38
-55
-126
-120
-139
-153
-175
-182
-193
-201
-208
-200
-196
-165
-175
-183
-199
-207
-219
-230
-224
-212
-211
-175
-175
-191
-211
-222
-245
-226
-207
-190
-189
-177
-181
-193
-210
-215
-236
-238
-219
-208
-197
-169
-174
-191
-214
-204
-215
-225
-210
-175
-178
-179
-179
-196
-194
-217
-223
-223
-216
-203
-184
-161
-169
-173
-188
-208
-225
-211
-197
-189
-169
-158
-176
-184
-197
-196
-216
-217
-198
-174
-157
-147
-164
-172
-179
-178
-188
-194
-188
-164
-135
-143
-131
-150
-177
-184
-180
-177
-160
-159
-126
-117
-120
-155
-161
-162
-190
-168
-167
-113
-128
-111
-118
-135
-157
-188
-189
-149
-141
-126
-111
-131
-123
-151
-156
-201
-202
-168
-174
-168
-146
-138
-150
-177
-199
-213
-202
-206
-193
-173
-169
-154
-172
-206
-194
-225
-222
-216
-212
-185
-140
-168
-165
-178
-211
-225
-219
-219
-200
-201
-152
-171
-164
-188
-204
-245
-225
-216
-187
-186
-162
-174
-180
-201
-173
-222
-230
-213
-192
-186
-173
-162
-165
-203
-210
-232
-213
-199
-204
-188
-160
-178
-167
-192
-204
-209
-230
-226
-188
-196
-176
-160
-188
-189
-212
-225
-219
-203
-201
-169
-160
-168
-169
-200
-205
-220
-212
-218
-196
-193
-151
-156
-175
-184
-189
-217
-234
-225
-205
-173
-168
-170
-190
-197
-211
-217
-199
-195
-186
-171
-175
-188
-187
-186
-227
-217
-227
-204
-172
-177
-168
-188
-179
-203
-224
-211
-212
-185
-183
-175
-175
-173
-195
-206
-223
-213
-212
-200
-174
-173
-168
-155
-193
-207
-233
-215
-210
-186
-174
-161
-181
-183
-175
-213
-208
-205
-200
-180
-189
-161
-148
-161
-165
-171
-197
-197
-199
-163
-161
-135
-141
-150
-170
-181
-210
-213
-212
-184
-199
-156
-166
-167
-201
-206
-211
-205
-197
-193
-184
-164
-168
-185
-184
-193
-227
-230
-204
-189
-197
-173
-164
-196
-191
-197
-209
-226
-227
-205
-237
-201
-188
-191
-189
-166
-173
-127
-114
-80
-55
-11
-16
8
-12
-13
-25
-28
-33
-31
-102
-111
-135
-152
-169
-192
-206
-195
-195
-195
-164
-158
-163
-177
-184
-232
-204
-208
-197
-168
-171
-166
-193
-201
-217
-248
-253
-226
-201
-168
-182
-172
-169
-190
-209
-217
-224
-215
-196
-197
-187
-185
-194
-191
-198
-204
-226
-220
-200
-188
-163
-173
-180
-191
-195
-204
-248
-204
-191
-167
-138
-153
-166
-165
-193
-227
-219
-221
-201
-179
-158
-154
-161
-182
-186
-201
-217
-208
-170
-168
-149
-157
-145
-160
-172
-220
-173
-175
-160
-161
-148
-144
-156
-150
-134
-209
-160
-164
-160
-147
-99
-115
-123
-141
-156
-161
-165
-159
-138
-133
-110
-112
-138
-132
-147
-177
-162
-156
-157
-138
-109
-113
-129
-144
-166
-179
-190
-165
-176
-170
-137
-137
-149
-175
-194
-193
-195
-197
-169
-166
-173
-164
-169
-177
-184
-215
-202
-190
-183
-177
-185
-176
-176
-197
-209
-224
-218
-200
-177
-169
-165
-161
-188
-193
-212
-215
-212
-192
-191
-180
-160
-169
-192
-206
-204
-217
-214
-181
-189
-155
-144
-162
-194
-184
-229
-217
-210
-201
-174
-162
-159
-156
-194
-188
-218
-223
-222
-190
-199
-169
-169
-157
-176
-186
-225
-219
-206
-185
-175
-145
-159
-159
-212
-214
-228
-225
-209
-197
-176
-150
-165
-164
-178
-203
-210
-195
-210
-203
-192
-152
-190
-159
-185
-200
-221
-223
-229
-198
-188
-154
-164
-165
-177
-213
-226
-218
-190
-183
-185
-162
-153
-171
-190
-204
-220
-221
-210
-184
-179
-162
-158
-178
-190
-207
-236
-216
-206
-180
-190
-175
-158
-180
-189
-197
-202
-214
-223
-203
-185
-161
-179
-155
-171
-206
-203
-208
-193
-166
-170
-156
-141
-152
-169
-181
-196
-185
-180
-169
-172
-140
-141
-157
-188
-196
-221
-230
-210
-176
-174
-152
-166
-182
-188
-221
-207
-213
-195
-184
-156
-192
-171
-184
-202
-215
-211
-214
-202
-195
-183
-173
-176
-186
-220
-232
-242
-222
-217
-195
-173
-134
-120
-114
-98
-133
-81
-70
-47
-41
-18
-18
21
13
-24
-67
-136
-182
-180
-166
-132
-140
-152
-167
-190
-203
-184
-224
-195
-183
-161
-172
-178
-186
-198
-216
-223
-205
-181
-195
-191
-166
-187
-176
-190
-227
-227
-205
-191
-183
-169
-187
-170
-178
-197
-229
-202
-200
-209
-166
-169
-171
-189
-209
-188
-203
-210
-211
-193
-183
-161
-165
-180
-188
-197
-215
-210
-190
-192
-171
-148
-180
-152
-166
-180
-203
-201
-197
-184
-175
-134
-153
-157
-184
-190
-203
-179
-176
-168
-136
-149
-168
-157
-160
-161
-174
-186
-171
-135
-128
-127
-121
-121
-149
-149
-168
-187
-158
-117
-116
-114
-119
-123
-131
-156
-167
-153
-129
-126
-124
-106
-107
-109
-136
-149
-167
-169
-155
-156
-133
-134
-116
-142
-159
-157
-180
-164
-177
-154
-146
-149
-152
-159
-181
-200
-202
-207
-191
-182
-154
-127
-170
-172
-174
-199
-227
-205
-189
-180
-156
-148
-163
-182
-203
-229
-210
-208
-188
-187
-154
-163
-170
-183
-204
-214
-209
-211
-178
-189
-167
-179
-158
-182
-190
-211
-207
-194
-187
-158
-185
-169
-168
-184
-188
-219
-186
-192
-192
-194
-164
-161
-173
-188
-178
-197
-203
-205
-183
-158
-153
-161
-178
-196
-191
-201
-218
-194
-168
-171
-167
-163
-164
-188
-192
-222
-205
-184
-171
-159
-152
-159
-175
-191
-191
-216
-218
-220
-187
-169
-149
-146
-161
-187
-187
-220
-212
-188
-196
-181
-155
-157
-189
-191
-196
-222
-220
-200
-170
-161
-168
-168
-162
-199
-213
-218
-200
-184
-167
-177
-173
-169
-182
-193
-193
-208
-198
-186
-170
-147
-132
-156
-164
-169
-175
-169
-178
-166
-170
-144
-157
-146
-166
-169
-196
-199
-197
-181
-171
-155
-159
-154
-167
-188
-220
-187
-193
-195
-195
-153
-171
-163
-200
-192
-191
-196
-211
-201
-170
-161
-149
-187
-204
-210
-223
-233
-218
-204
-184
-167
-159
-147
-147
-124
-139
-120
-94
-46
-8
14
17
16
-1
4
-21
-28
-48
-96
-117
-115
-143
-143
-157
-160
-183
-182
-209
-172
-156
-131
-157
-152
-197
-204
-215
-224
-216
-174
-180
-156
-168
-179
-179
-180
-203
-212
-202
-192
-173
-153
-160
-167
-183
-192
-219
-224
-186
-186
-177
-146
-155
-180
-188
-181
-211
-198
-197
-188
-176
-147
-145
-167
-194
-190
-203
-195
-174
-194
-153
-149
-139
-172
-175
-192
-212
-184
-176
-179
-153
-117
-161
-147
-156
-192
-183
-189
-166
-146
-136
-134
-127
-166
-168
-173
-181
-172
-156
-141
-129
-122
-111
-136
-145
-167
-177
-156
-141
-136
-92
-97
-111
-114
-140
-166
-150
-155
-144
-115
-102
-97
-104
-110
-125
-160
-147
-133
-127
-128
-94
-125
-116
-118
-154
-156
-176
-171
-152
-149
-124
-146
-142
-173
-164
-209
-191
-214
-177
-141
-126
-149
-144
-177
-168
-220
-192
-190
-183
-164
-136
-157
-159
-174
-184
-194
-204
-187
-168
-156
-167
-153
-155
-171
-176
-208
-208
-193
-187
-179
-147
-126
-154
-178
-174
-224
-209
-194
-176
-166
-143
-150
-159
-166
-185
-197
-209
-195
-204
-177
-132
-138
-160
-165
-174
-203
-202
-178
-167
-172
-145
-136
-166
-190
-183
-200
-205
-195
-174
-149
-123
-122
-155
-172
-205
-217
-213
-177
-185
-165
-152
-136
-168
-194
-189
-201
-212
-191
-148
-149
-153
-155
-172
-192
-190
-189
-191
-194
