-195
-183
-182
-178
-180
-188
-189
-198
-203
-201
-194
-194
-193
-183
-184
-191
-193
-203
-206
-204
-201
-198
-192
-190
-194
-197
-200
-208
-206
-207
-205
-198
-189
-195
-197
-201
-194
-202
-212
-207
-204
-207
-195
-196
-198
-191
-197
-212
-207
-205
-208
-195
-190
-195
-200
-193
-199
-208
-212
-213
-210
-208
-197
-192
-192
-202
-206
-211
-213
-218
-211
-203
-206
-206
-208
-213
-220
-227
-231
-227
-227
-223
-214
-214
-222
-222
-229
-227
-242
-239
-232
-230
-233
-235
-222
-225
-232
-235
-242
-236
-234
-232
-229
-223
-230
-240
-240
-246
-257
-242
-235
-231
-228
-223
-230
-234
-243
-249
-233
-243
-241
-241
-233
-233
-238
-239
-244
-245
-246
-249
-256
-250
-249
-242
-248
-251
-263
-266
-268
-263
-261
-253
-249
-251
-253
-255
-266
-271
-270
-260
-257
-257
-242
-247
-261
-258
-268
-275
-271
-269
-249
-244
-261
-251
-257
-258
-270
-277
-280
-270
-287
-289
-289
-282
-272
-263
-252
-221
-185
-142
-100
-73
-60
-37
-43
-62
-96
-144
-183
-203
-217
-234
-244
-243
-248
-261
-255
-255
-274
-264
-260
-252
-244
-253
-266
-270
-274
-268
-266
-272
-267
-260
-262
-261
-267
-277
-273
-278
-269
-271
-261
-260
-259
-262
-269
-278
-281
-283
-282
-281
-274
-262
-265
-270
-273
-277
-289
-287
-281
-270
-269
-270
-273
-273
-278
-281
-284
-274
-286
-284
-267
-274
-272
-274
-270
-276
-288
-296
-285
-280
-278
-265
-274
-274
-272
-280
-284
-289
-282
-281
-276
-263
-251
-276
-281
-280
-283
-286
-280
-275
-267
-260
-266
-262
-268
-269
-278
-273
-273
-263
-256
-256
-250
-255
-262
-266
-273
-268
-262
-263
-251
-242
-241
-262
-264
-263
-261
-250
-258
-259
-253
-253
-246
-257
-263
-253
-274
-267
-262
-265
-261
-267
-265
-265
-271
-284
-290
-277
-271
-284
-271
-260
-259
-281
-290
-293
-292
-286
-290
-284
-273
-272
-279
-274
-286
-294
-292
-290
-286
-281
-272
-277
-274
-279
-287
-292
-292
-298
-290
-279
-274
-281
-278
-277
-278
-289
-292
-294
-287
-276
-273
-280
-286
-271
-293
-295
-298
-293
-290
-281
-278
-278
-277
-280
-278
-291
-300
-297
-292
-283
-279
-269
-280
-289
-292
-289
-302
-297
-279
-280
-277
-276
-279
-286
-293
-293
-294
-299
-289
-279
-278
-270
-276
-281
-291
-297
-300
-294
-284
-273
-273
-271
-280
-277
-286
-290
-296
-289
-286
-282
-276
-271
-280
-278
-283
-290
-294
-286
-287
-278
-277
-286
-278
-275
-287
-296
-284
-281
-286
-264
-279
-280
-279
-276
-290
-284
-287
-284
-281
-270
-271
-269
-268
-273
-285
-285
-281
-281
-273
-265
-262
-265
-269
-268
-279
-281
-274
-273
-271
-263
-264
-261
-265
-259
-264
-268
-267
-264
-256
-255
-251
-247
-244
-260
-259
-276
-268
-259
-263
-253
-248
-241
-257
-272
-272
-272
-274
-275
-269
-268
-262
-266
-258
-271
-289
-286
-277
-266
-263
-262
-262
-267
-274
-271
-268
-283
-277
-267
-265
-264
-264
-262
-267
-271
-274
-278
-280
-270
-267
-263
-262
-266
-272
-285
-298
-309
-304
-301
-287
-262
-225
-198
-172
-142
-113
-87
-71
-45
-43
-61
-80
-131
-164
-192
-235
-254
-251
-248
-248
-245
-239
-246
-251
-259
-261
-260
-255
-262
-258
-255
-255
-265
-259
-263
-267
-255
-245
-256
-258
-253
-249
-247
-252
-258
-264
-260
-259
-257
-251
-245
-240
-250
-252
-255
-259
-259
-256
-249
-243
-244
-239
-243
-253
-255
-258
-254
-252
-246
-236
-232
-235
-240
-242
-250
-254
-248
-248
-247
-238
-231
-233
-226
-239
-248
-253
-250
-247
-237
-230
-230
-236
-238
-236
-244
-244
-246
-237
-238
-219
-225
-230
-231
-236
-240
-241
-234
-226
-219
-216
-221
-216
-220
-221
-226
-228
-223
-218
-207
-207
-197
-204
-210
-213
-218
-220
-217
-211
-208
-205
-203
-198
-200
-211
-213
-224
-213
-209
-208
-207
-205
-206
-214
-213
-211
-229
-232
-229
-224
-219
-221
-223
-219
-235
-238
-235
-239
-238
-224
-227
-229
-228
-230
-235
-244
-246
-241
-238
-232
-227
-219
-226
-228
-236
-241
-244
-248
-238
-230
-226
-224
-226
-237
-241
-237
-247
-241
-237
-233
-227
-224
-219
-231
-243
-241
-241
-238
-236
-228
-219
-223
-228
-234
-235
-240
-235
-235
-237
-216
-216
-223
-232
-239
-243
-240
-233
-235
-232
-224
-214
-217
-226
-229
-232
-230
-239
-230
-231
-223
-219
-223
-229
-227
-225
-239
-231
-230
-227
-219
-212
-215
-218
-221
-237
-238
-230
-232
-221
-213
-215
-215
-221
-230
-232
-235
-232
-230
-219
-223
-219
-220
-221
-227
-232
-231
-233
-233
-223
-213
-219
-211
-220
-221
-228
-236
-238
-233
-222
-211
-212
-214
-221
-228
-233
-232
-233
-221
-221
-222
-214
-213
-215
-236
-233
-231
-226
-235
-227
-216
-211
-218
-222
-223
-228
-231
-225
-220
-221
-225
-215
-218
-216
-224
-222
-227
-229
-217
-218
-215
-212
-217
-223
-224
-226
-229
-230
-220
-204
-210
-210
-223
-223
-228
-236
-244
-243
-231
-226
-220
-221
-225
-233
-238
-240
-240
-237
-232
-216
-218
-223
-218
-224
-243
-245
-230
-229
-231
-232
-213
-203
-223
-227
-232
-233
-229
-236
-229
-217
-211
-217
-225
-223
-241
-254
-250
-243
-244
-224
-211
-194
-174
-139
-122
-96
-77
-43
-25
-14
-29
-56
-94
-125
-162
-193
-211
-212
-213
-207
-199
-206
-203
-207
-221
-223
-222
-214
-214
-206
-205
-208
-212
-215
-223
-225
-224
-216
-216
-204
-203
-209
-212
-220
-225
-222
-204
-214
-217
-211
-200
-202
-212
-224
-214
-214
-224
-218
-206
-198
-197
-203
-206
-212
-218
-216
-216
-212
-201
-207
-192
-202
-199
-213
-218
-214
-215
-204
-199
-198
-202
-198
-203
-207
-209
-208
-211
-204
-203
-193
-193
-191
-196
-211
-207
-214
-203
-195
-197
-189
-192
-188
-193
-198
-203
-201
-200
-185
-187
-179
-175
-178
-176
-186
-188
-183
-190
-183
-165
-157
-167
-162
-168
-165
-176
-170
-165
-165
-156
-155
-154
-154
-154
-161
-162
-145
-161
-158
-157
-152
-149
-158
-155
-165
-176
-172
-168
-160
-169
-166
-154
-173
-184
-188
-183
-198
-191
-188
-184
-182
-185
-188
-195
-198
-203
-202
-198
-192
-185
-190
-189
-186
-197
-207
-201
-199
-194
-198
-193
-192
-184
-190
-199
-202
-203
-204
-200
-199
-195
-200
-200
-206
-214
-222
-215
-219
-228
-220
-206
-213
-221
-222
-230
-234
-239
-241
-233
-232
-227
-218
-229
-237
-234
-241
-248
-248
-243
-231
-228
-229
-239
-243
-242
-246
-249
-257
-247
-249
-241
-232
-232
-237
-254
-256
-259
-252
-249
-247
-247
-239
-244
-246
-255
-254
-256
-259
-252
-246
-241
-246
-250
-252
-259
-263
-263
-262
-258
-250
-250
-245
-251
-256
-266
-266
-269
-262
-264
-249
-247
-250
-253
-260
-266
-264
-269
-266
-262
-253
-237
-252
-261
-254
-270
-268
-271
-266
-256
-250
-252
-254
-259
-261
-276
-265
-265
-273
-265
-254
-256
-254
-262
-263
-265
-281
-270
-268
-263
-252
-257
-260
-260
-261
-265
-267
-270
-266
-259
-257
-246
-252
-252
-262
-268
-268
-264
-258
-255
-250
-248
-254
-259
-265
-274
-272
-270
-267
-268
-261
-245
-257
-263
-268
-273
-282
-275
-259
-261
-258
-262
-270
-263
-280
-271
-262
-276
-278
-257
-257
-256
-265
-269
-268
-268
-272
-275
-270
-265
-263
-258
-268
-270
-281
-291
-298
-300
-292
-287
-267
-244
-222
-207
-175
-148
-127
-105
-87
-68
-70
-87
-119
-161
-202
-221
-244
-262
-263
-251
-242
-253
-247
-255
-265
-270
-275
-269
-272
-264
-257
-247
-252
-270
-277
-276
-280
-275
-268
-267
-258
-265
-266
-269
-277
-279
-280
-266
-262
-265
-261
-257
-255
-253
-267
-281
-281
-271
-265
-271
-256
-264
-263
-265
-267
-267
-266
-268
-268
-261
-257
-262
-260
-259
-269
-276
-271
-267
-268
-246
-249
-256
-266
-258
-263
-273
-270
-269
-258
-255
-251
-249
-258
-259
-265
-261
-257
-254
-261
-253
-253
-244
-243
-253
-257
-261
-251
-247
-242
-242
-235
-237
-236
-246
-254
-253
-248
-239
-238
-223
-229
-226
-229
-235
-243
-242
-230
-239
-231
-218
-219
-215
-231
-234
-241
-241
-237
-233
-229
-222
-221
-228
-225
-243
-246
-247
-239
-234
-241
-230
-233
-239
-247
-239
-254
-254
-253
-251
-244
-239
-236
-242
-244
-253
-261
-258
-250
-257
-243
-241
-238
-238
-250
-257
-261
-253
-259
-253
-243
-245
-234
-233
-245
-260
-263
-253
-247
-250
-245
-241
-236
-236
-249
-259
-260
-256
-255
-252
-245
-244
-241
-241
-249
-260
-250
-252
-244
-246
-245
-246
-240
-239
-251
-254
-257
-260
-253
-247
-237
-241
-244
-246
-241
-252
-255
-254
-242
-249
-241
-231
-241
-241
-247
-246
-256
-250
-247
-246
-235
-236
-229
-237
-248
-246
-251
-252
-245
-247
-239
-233
-231
-233
-237
-241
-241
-249
-255
-242
-229
-235
-226
-224
-245
-248
-250
-253
-245
-234
-229
-231
-230
-236
-244
-239
-245
-246
-242
-234
-231
-230
-225
-237
-246
-247
-242
-249
-243
-232
-217
-231
-232
-236
-240
-243
-246
-242
-235
-234
-230
-225
-224
-233
-244
-247
-247
-242
-238
-233
-223
-222
-220
-232
-242
-244
-243
-235
-230
-213
-219
-222
-231
-225
-234
-237
-238
-233
-228
-220
-218
-213
-212
-216
-236
-238
-223
-228
-234
-227
-222
-225
-220
-230
-243
-246
-242
-238
-239
-225
-219
-221
-230
-231
-245
-237
-239
-234
-235
-229
-222
-220
-225
-237
-243
-242
-238
-231
-238
-222
-222
-225
-224
-232
-228
-230
-237
-225
-235
-236
-237
-246
-252
-254
-247
-258
-251
-226
-202
-170
-138
-102
-77
-61
-56
-42
-45
-60
-76
-107
-138
-159
-194
-210
-218
-235
-228
-219
-221
-214
-218
-223
-231
-217
-241
-247
-241
-228
-222
-226
-223
-225
-235
-236
-239
-242
-241
-239
-216
-215
-228
-225
-228
-228
-230
-238
-242
-229
-231
-229
-227
-220
-224
-230
-234
-236
-245
-228
-220
-216
-221
-224
-227
-223
-232
-240
-237
-229
-222
-209
-215
-220
-220
-227
-236
-233
-230
-229
-222
-208
-215
-222
-225
-228
-225
-236
-233
-229
-215
-221
-215
-218
-223
-230
-224
-215
-222
-226
-213
-212
-205
-222
-221
-223
-233
-229
-232
-225
-216
-217
-213
-218
-212
-227
-231
-240
-221
-215
-216
-201
-194
-210
-213
-225
-223
-218
-217
-222
-207
-199
-204
-208
-217
-224
-233
-223
-221
-215
-215
-211
-217
-225
-226
-234
-234
-241
-240
-232
-221
-228
-226
-236
-239
-248
-251
-247
-246
-242
-239
-235
-232
-234
-239
-262
-263
-260
-234
-246
-246
-240
-241
-252
-253
-261
-256
-266
-249
-240
-247
-241
-234
-239
-247
-256
-265
-247
-251
-240
-232
-235
-242
-234
-249
-264
-260
-258
-255
-252
-239
-237
-242
-243
-248
-260
-265
-253
-250
-250
-243
-231
-240
-254
-256
-264
-255
-257
-255
-252
-243
-237
-240
-254
-257
-259
-259
-258
-249
-251
-247
-245
-248
-252
-257
-252
-262
-254
-253
-250
-239
-240
-250
-249
-256
-267
-269
-263
-263
-247
-231
-238
-259
-253
-260
-268
-268
-260
-259
-252
-253
-236
-256
-257
-260
-266
-254
-259
-268
-253
-244
-241
-251
-260
-271
-272
-259
-276
-262
-254
-247
-252
-254
-248
-280
-281
-275
-274
-258
-240
-263
-263
-264
-271
-273
-277
-273
-264
-269
-244
-250
-255
-264
-266
-275
-279
-274
-274
-261
-254
-255
-257
-260
-261
-266
-268
-267
-261
-259
-252
-252
-248
-253
-263
-263
-259
-263
-260
-251
-249
-248
-256
-269
-272
-274
-284
-275
-276
-267
-262
-260
-263
-263
-269
-281
-282
-274
-268
-252
-264
-271
-281
-274
-267
-268
-278
-286
-273
-266
-262
-270
-264
-256
-281
-284
-283
-280
-274
-269
-264
-271
-284
-292
-305
-303
-299
-279
-272
-234
-195
-166
-131
-109
-94
-86
-81
-74
-94
-110
-154
-182
-212
-240
-259
-254
-257
-275
-274
-259
-248
-251
-268
-273
-278
-278
-285
-271
-277
-274
-268
-268
-276
-274
-287
-287
-287
-284
-279
-259
-264
-272
-274
-279
-280
-295
-292
-285
-285
-268
-260
-270
-276
-271
-286
-288
-288
-279
-282
-276
-273
-272
-271
-276
-285
-283
-284
-279
-272
-265
-268
-269
-271
-285
-278
-288
-280
-281
-269
-271
-268
-268
-268
-269
-283
-286
-277
-280
-263
-257
-267
-266
-273
-269
-282
-286
-282
-271
-265
-259
-259
-259
-260
-270
-274
-275
-273
-264
-258
-252
-253
-253
-255
-260
-268
-254
-265
-259
-249
-247
-238
-247
-257
-247
-245
-253
-249
-251
-242
-241
-230
-232
-243
-254
-254
-261
-260
-249
-245
-236
-244
-247
-243
-259
-267
-264
-267
-260
-251
-256
-251
-256
-262
-274
-278
-273
-263
-272
-258
-252
-262
-270
-259
-270
-266
-272
-276
-273
-262
-262
-263
-263
-267
-271
-272
-273
-274
-274
-268
-257
-257
-266
-266
-265
-275
-274
-266
-265
-258
-261
-258
-261
-258
-274
-276
-279
-273
-267
-261
-259
-253
-266
-274
-279
-277
-276
-267
-268
-260
-257
-256
-258
-260
-274
-277
-274
-271
-256
-258
-258
-255
-261
-266
-277
-278
-270
-269
-271
-251
-244
-255
-255
-248
-265
-260
-270
-268
-254
-263
-264
-259
-252
-258
-256
-264
-264
-266
-262
-266
-249
-250
-250
-252
-259
-254
-262
-272
-269
-260
-250
-247
-254
-253
-266
-264
-263
-271
-269
-261
-262
-254
-244
-248
-252
-259
-265
-269
-257
-256
-251
-255
-244
-246
-257
-255
-264
-269
-271
-257
-254
-248
-240
-246
-244
-243
-250
-254
-257
-261
-239
-236
-235
-247
-252
-251
-252
-258
-253
-250
-245
-233
-233
-250
-253
-258
-263
-263
-268
-257
-250
-246
-246
-254
-257
-252
-268
-264
-263
-266
-253
-247
-250
-244
-249
-266
-270
-267
-266
-259
-250
-242
-250
-254
-259
-259
-269
-264
-254
-257
-251
-244
-253
-264
-276
-286
-288
-300
-287
-266
-238
-203
-182
-151
-122
-100
-81
-63
-46
-52
-70
-99
-135
-179
-198
-219
-245
-256
-243
-253
-234
-236
-242
-241
-253
-257
-265
-259
-256
-251
-247
-252
-255
-258
-254
-262
-269
-266
-262
-259
-255
-252
-249
-254
-256
-263
-271
-270
-261
-250
-249
-244
-249
-254
-256
-262
-269
-266
-257
-251
-248
-249
-245
-247
-249
-259
-265
-264
-264
-255
-243
-245
-249
-254
-260
-265
-251
-249
-240
-252
-246
-242
-252
-256
-254
-259
-267
-261
-257
-248
-243
-249
-243
-237
-257
-261
-259
-256
-251
-238
-240
-246
-238
-245
-252
-253
-250
-246
-238
-236
-234
-235
-240
-231
-241
-250
-237
-234
-236
-236
-215
-231
-235
-218
-226
-229
-227
-230
-226
-217
-217
-218
-210
-215
-220
-231
-239
-224
-227
-213
-207
-222
-204
-227
-233
-241
-234
-232
-238
-232
-223
-221
-228
-231
-240
-243
-242
-247
-234
-237
-225
-232
-226
-233
-243
-245
-250
-246
-235
-225
-234
-231
-226
-229
-226
-237
-245
-224
-227
-232
-221
-227
-226
-239
-230
-248
-248
-238
-220
-231
-220
-220
-227
-230
-238
-236
-231
-234
-222
-220
-212
-212
-227
-230
-233
-229
-231
-224
-216
-208
-210
-206
-214
-231
-214
-225
-218
-203
-210
-210
-209
-212
-216
-221
-221
-222
-227
-214
-198
-203
-185
-200
-200
-213
-217
-214
-214
-211
-202
-206
-207
-209
-205
-213
-217
-214
-203
-204
-201
-207
-201
-202
-200
-210
-219
-212
-208
-204
-195
-192
-190
-201
-204
-209
-213
-202
-207
-202
-190
-190
-195
-204
-199
-200
-209
-210
-201
-199
-186
-187
-188
-194
-194
-196
-209
-205
-195
-187
-189
-187
-188
-192
-189
-203
-199
-196
-185
-191
-193
-176
-177
-188
-192
-201
-195
-189
-194
-178
-175
-169
-175
-178
-188
-195
-193
-200
-189
-185
-188
-182
-191
-194
-196
-200
-205
-206
-199
-187
-180
-192
-194
-192
-195
-196
-200
-197
-201
-192
-191
-185
-184
-191
-194
-198
-208
-200
-192
-190
-184
-181
-189
-194
-196
-190
-204
-196
-205
-212
-201
-213
-218
-202
-182
-165
-138
-99
-51
-28
4
39
39
11
-19
-57
-92
-118
-142
-155
-164
-173
-171
-182
-185
-184
-188
-193
-194
-173
-177
-178
-173
-188
-198
-201
-197
-192
-186
-183
-174
-172
-195
-185
-194
-197
-196
-197
-188
-182
-182
-177
-183
-178
-195
-190
-189
-190
-191
-181
-178
-172
-175
-189
-191
-196
-195
-181
-173
-166
-179
-179
-175
-177
-195
-196
-186
-188
-176
-172
-172
-186
-186
-175
-192
-185
-185
-180
-181
-174
-166
-163
-172
-171
-190
-190
-193
-176
-178
-172
-160
-160
-165
-165
-178
-182
-178
-176
-179
-156
-162
-165
-162
-168
-165
-176
-172
-166
-160
-157
-147
-150
-152
-156
-168
-160
-166
-155
-148
-146
-152
-139
-144
-155
-159
-157
-160
-156
-154
-142
-146
-141
-149
-151
-165
-166
-162
-163
-163
-149
-150
-164
-162
-166
-182
-171
-171
-166
-164
-156
-160
-158
-168
-178
-182
-186
-186
-175
-169
-167
-162
-170
-176
-177
-174
-174
-180
-169
-162
-161
-162
-174
-170
-176
-184
-179
-180
-180
-170
-165
-166
-165
-175
-181
-189
-185
-180
-172
-154
-163
-168
-168
-174
-176
-184
-177
-168
-170
-160
-163
-165
-164
-166
-176
-181
-182
-164
-160
-166
-154
-162
-159
-161
-158
-178
-184
-171
-157
-155
-151
-152
-151
-154
-171
-168
-171
-153
-166
-153
-152
-149
-149
-154
-154
-168
-168
-156
-153
-145
-140
-154
-152
-152
-166
-169
-165
-161
-150
-144
-138
-145
-152
-151
-161
-159
-161
-153
-143
-144
-144
-144
-146
-152
-160
-165
-148
-147
-144
-146
-141
-142
-145
-154
-149
-142
-143
-151
-141
-142
-136
-135
-139
-146
-139
-144
-150
-142
-137
-130
-127
-127
-133
-148
-135
-127
-134
-132
-129
-128
-120
-136
-136
-149
-155
-156
-147
-155
-132
-133
-138
-141
-133
-152
-139
-149
-151
-141
-136
-133
-137
-141
-148
-153
-152
-150
-147
-149
-141
-135
-136
-135
-142
-147
-149
-152
-148
-150
-131
-140
-143
-143
-148
-161
-173
-173
-175
-168
-135
-119
-89
-56
-39
-21
7
27
57
61
54
40
-10
-42
-77
-104
-122
-129
-137
-135
-137
-127
-115
-124
-137
-142
-147
-153
-150
-135
-133
-129
-132
-136
-143
-152
-151
-148
-142
-155
-131
-130
-138
-139
-144
-145
-142
-150
-154
-141
-136
-123
-133
-145
-141
-145
-153
-151
-140
-134
-130
-133
-128
-130
-150
-144
-148
-148
-142
-133
-129
-129
-132
-138
-137
-151
-151
-141
-141
-134
-129
-125
-132
-133
-139
-143
-139
-133
-134
-135
-125
-127
-123
-129
-138
-137
-139
-130
-131
-126
-126
-114
-118
-129
-141
-130
-131
-134
-129
-117
-121
-116
-109
-111
-121
-119
-125
-123
-110
-95
-102
-104
-99
-100
-118
-118
-115
-122
-115
-97
-100
-100
-97
-111
-113
-123
-106
-110
-104
-103
-102
-97
-112
-110
-115
-131
-127
-122
-121
-116
-115
-117
-111
-121
-129
-131
-134
-133
-133
-123
-117
-123
-122
-127
-139
-137
-135
-134
-132
-130
-120
-123
-126
-123
-133
-130
-129
-127
-125
-136
-134
-128
-130
-130
-140
-140
-135
-142
-135
-122
-123
-120
-128
-134
-137
-142
-144
-142
-134
-130
-127
-124
-127
-134
-140
-146
-145
-136
-130
-127
-118
-127
-130
-133
-140
-141
-129
-137
-133
-128
-125
-124
-130
-135
-136
-133
-144
-136
-130
-117
-120
-125
-133
-137
-142
-141
-134
-129
-126
-123
-113
-129
-127
-126
-142
-136
-141
-147
-123
-110
-128
-140
-126
-128
-133
-127
-136
-125
-138
-123
-125
-121
-129
-139
-137
-141
-133
-141
-124
-122
-118
-134
-131
-139
-144
-136
-138
-128
-124
-127
-127
-123
-128
-136
-133
-137
-132
-124
-117
-110
-115
-117
-125
-130
-124
-126
-124
-126
-119
-113
-108
-128
-131
-139
-135
-139
-133
-130
-132
-129
-125
-142
-147
-136
-138
-135
-140
-143
-123
-129
-138
-137
-137
-134
-146
-145
-148
-142
-128
-119
-128
-131
-134
-154
-149
-147
-143
-135
-135
-133
-141
-144
-160
-166
-172
-166
-168
-158
-131
-109
-86
-58
-14
5
27
56
78
77
66
42
-6
-44
-72
-100
-127
-128
-135
-127
-125
-125
-122
-136
-145
-144
-133
-145
-144
-139
-131
-129
-134
-141
-153
-152
-155
-132
-146
-129
-133
-129
-150
-133
-141
-152
-153
-160
-160
-141
-140
-135
-138
-144
-140
-151
-161
-156
-146
-140
-140
-133
-135
-143
-150
-150
-146
-146
-145
-143
-135
-132
-139
-145
-149
-155
-150
-144
-141
-140
-132
-129
-135
-144
-149
-140
-144
-151
-147
-131
-122
-128
-131
-146
-142
-144
-139
-137
-135
-130
-128
-126
-135
-136
-140
-146
-139
-133
-121
-112
-123
-120
-115
-131
-127
-136
-125
-123
-120
-112
-109
-119
-121
-115
-104
-116
-126
-125
-121
-101
-115
-102
-110
-117
-126
-134
-131
-123
-122
-111
-113
-120
-124
-116
-129
-139
-142
-131
-128
-133
-132
-127
-135
-134
-141
-147
-144
-143
-142
-140
-138
-135
-133
-139
-152
-157
-153
-147
-130
-141
-131
-138
-139
-155
-144
-161
-149
-140
-147
-133
-132
-139
-153
-157
-155
-161
-157
-155
-141
-135
-135
-142
-147
-158
-155
-162
-157
-146
-133
-148
-145
-141
-155
-151
-150
-161
-151
-151
-136
-143
-148
-138
-148
-162
-153
-158
-158
-148
-136
-129
-143
-145
-147
-148
-151
-155
-151
-145
-141
-143
-138
-141
-144
-147
-150
-143
-143
-140
-143
-133
-137
-140
-140
-149
-153
-148
-146
-144
-137
-135
-137
-139
-126
-135
-154
-149
-145
-143
-149
-137
-138
-135
-138
-147
-152
-150
-148
-149
-138
-133
-125
-136
-132
-135
-135
-153
-140
-144
-138
-127
-117
-129
-139
-136
-140
-139
-133
-137
-124
-120
-119
-113
-127
-141
-149
-139
-131
-141
-122
-136
-132
-138
-137
-148
-150
-151
-145
-140
-135
-133
-137
-137
-146
-148
-151
-149
-146
-145
-135
-132
-131
-135
-141
-146
-148
-141
-154
-139
-134
-135
-131
-141
-148
-154
-159
-152
-152
-152
-159
-168
-170
-167
-170
-158
-144
-117
-80
-44
6
28
74
91
76
68
44
19
-24
-63
-85
-100
-118
-125
-136
-148
-145
-138
-121
-131
-131
-130
-136
-140
-148
-155
-149
-151
-147
-144
-141
-137
-139
-147
-147
-147
-150
-147
-148
-143
-138
-132
-138
-148
-153
-154
-149
-148
-140
-132
-142
-133
-139
-139
-149
-157
-142
-140
-135
-140
-142
-132
-140
-140
-149
-149
-144
-139
-146
-136
-130
-134
-135
-141
-149
-145
-155
-143
-129
-124
-134
-128
-128
-139
-150
-148
-140
-132
-143
-131
-127
-124
-129
-133
-138
-138
-141
-135
-124
-122
-119
-117
-127
-130
-131
-134
-131
-127
-117
-105
-104
-108
-112
-124
-127
-128
-122
-113
-109
-102
-103
-101
-109
-111
-123
-120
-120
-115
-107
-103
-111
-101
-111
-109
-122
-128
-120
-123
-122
-111
-111
-123
-122
-129
-134
-139
-135
-127
-124
-115
-120
-128
-125
-136
-147
-151
-143
-141
-131
-130
-124
-132
-140
-142
-147
-148
-138
-127
-132
-140
-130
-141
-139
-139
-140
-152
-139
-136
-138
-119
-130
-138
-131
-143
-148
-150
-144
-142
-135
-135
-133
-135
-138
-146
-145
-150
-144
-143
-131
-135
-127
-132
-142
-144
-147
-144
-148
-142
-128
-122
-128
-135
-136
-141
-143
-139
-141
-138
-129
-126
-130
-130
-139
-128
-130
-138
-140
-129
-124
-125
-129
-128
-134
-139
-145
-134
-120
-138
-134
-121
-126
-121
-131
-130
-138
-140
-133
-125
-123
-128
-128
-129
-126
-134
-133
-131
-136
-132
-122
-112
-120
-131
-137
-148
-141
-140
-140
-132
-132
-130
-125
-137
-136
-145
-145
-140
-134
-128
-134
-135
-132
-137
-145
-146
-146
-151
-142
-139
-141
-138
-146
-153
-167
-164
-159
-156
-156
-148
-139
-154
-146
-140
-151
-170
-172
-169
-160
-161
-155
-150
-159
-164
-163
-164
-164
-163
-163
-159
-147
-148
-159
-162
-165
-170
-164
-171
-170
-164
-171
-168
-182
-199
-201
-184
-174
-132
-101
-63
-37
-15
11
25
50
37
6
-25
-60
-80
-112
-137
-143
-158
-170
-164
-166
-159
-157
-149
-154
-152
-159
-162
-175
-178
-180
-168
-162
-164
-155
-155
-164
-162
-175
-176
-176
-170
-163
-163
-160
-160
-163
-164
-171
-180
-176
-162
-162
-153
-153
-159
-161
-164
-171
-164
-172
-163
-147
-156
-170
-160
-171
-159
-169
-167
-169
-169
-158
-152
-153
-164
-165
-161
-168
-166
-164
-162
-163
-155
-159
-149
-157
-162
-162
-160
-161
-152
-151
-149
-146
-147
-146
-158
-161
-163
-165
-149
-147
-139
-127
-141
-155
-150
-150
-151
-150
-142
-131
-126
-128
-129
-133
-138
-146
-146
-137
-139
-120
-129
-116
-123
-131
-141
-144
-130
-136
-142
-125
-112
-115
-122
-136
-129
-137
-142
-149
-140
-134
-137
-137
-134
-136
-146
-146
-158
-156
-143
-143
-139
-147
-133
-137
-157
-170
-167
-164
-150
-139
-142
-132
-145
-157
-157
-160
-162
-160
-152
-146
-148
-149
-145
-155
-158
-165
-160
-160
-158
-151
-132
-145
-140
-146
-158
-172
-162
-155
-152
-149
-145
-143
-142
-156
-158
-165
-158
-155
-152
-139
-140
-148
-147
-150
-158
-162
-162
-159
-148
-148
-142
-136
-138
-150
-150
-159
-161
-159
-149
-135
-134
-144
-153
-150
-162
-159
-153
-147
-144
-141
-146
-141
-154
-151
-155
-153
-148
-150
-146
-138
-145
-140
-143
-149
-154
-155
-155
-150
-136
-144
-139
-144
-144
-141
-155
-163
-155
-143
-137
-134
-131
-142
-140
-145
-151
-151
-155
-148
-138
-118
-126
-133
-138
-141
-134
-150
-145
-138
-133
-128
-131
-126
-138
-147
-147
-151
-141
-154
-144
-138
-138
-137
-139
-151
-156
-156
-158
-148
-137
-138
-145
-154
-147
-150
-162
-160
-148
-148
-136
-140
-134
-154
-151
-158
-161
-152
-157
-149
-142
-139
-136
-144
-145
-149
-164
-166
-161
-173
-162
-174
-163
-157
-160
-138
-114
-77
-40
-4
22
46
80
68
45
19
-20
-53
-84
-108
-107
-128
-128
-130
-129
-143
-147
-156
-145
-145
-137
-137
-143
-142
-152
-154
-165
-153
-153
-150
-148
-150
-146
-150
-144
-161
-159
-157
-151
-143
-141
-140
-150
-153
-144
-150
-160
-158
-144
-150
-148
-146
-136
-146
-152
-160
-154
-151
-151
-158
-142
-135
-131
-148
-154
-167
-167
-141
-145
-152
-143
-127
-148
-136
-147
-160
-160
-152
-150
-145
-142
-138
-135
-144
-157
-155
-160
-147
-141
-129
-135
-138
-132
-142
-147
-150
-153
-145
-141
-133
-129
-127
-126
-129
-141
-143
-142
-139
-128
-123
-113
-117
-115
-115
-123
-126
-117
-121
-118
-112
-113
-124
-125
-115
-119
-135
-126
-117
-115
-114
-120
-110
-105
-115
-125
-142
-135
-131
-130
-122
-116
-120
-127
-130
-139
-126
-141
-132
-136
-133
-132
-132
-136
-134
-146
-147
-149
-148
-142
-133
-132
-129
-134
-142
-142
-147
-146
-142
-141
-136
-129
-130
-140
-128
-147
-154
-148
-141
-137
-136
-133
-133
-130
-139
-148
-147
-158
-146
-141
-135
-125
-130
-141
-140
-141
-155
-150
-141
-134
-144
-142
-118
-122
-138
-150
-148
-143
-128
-137
-140
-137
-131
-133
-145
-144
-150
-145
-145
-137
-136
-125
-130
-132
-142
-145
-151
-150
-140
-128
-125
-115
-128
-142
-141
-150
-145
-142
-146
-133
-127
-117
-137
-133
-146
-144
-147
-142
-137
-133
-129
-121
-134
-135
-140
-143
-140
-132
-139
-125
-125
-119
-126
-122
-137
-148
-143
-138
-142
-136
-124
-117
-115
-115
-131
-143
-139
-139
-134
-121
-109
-108
-110
-130
-128
-140
-146
-124
-121
-118
-129
-129
-135
-141
-145
-152
-144
-137
-135
-140
-130
-117
-139
-136
-142
-158
-150
-153
-144
-138
-134
-135
-140
-140
-142
-147
-149
-145
-141
-136
-136
-131
-130
-135
-155
-150
-152
-149
-152
-152
-163
-161
-172
-174
-177
-157
-118
-83
-48
-7
23
59
70
76
69
39
33
-5
-44
-66
-89
-115
-119
-131
-131
-126
-132
-144
-146
-117
-133
-140
-140
-146
-157
-161
-156
-149
-145
-146
-149
-151
-138
-152
-144
-153
-154
-142
-140
-140
-140
-144
-144
-160
-159
-155
-150
-153
-148
-138
-138
-139
-141
-158
-157
-163
-158
-154
-141
-139
-137
-137
-141
-151
-164
-162
-153
-150
-137
-134
-130
-140
-146
-150
-153
-148
-152
-155
-142
-140
-143
-125
-140
-152
-156
-149
-138
-151
-132
-136
-137
-148
-156
-142
-136
-136
-143
-142
-134
-131
-130
-141
-142
-145
-145
-138
-129
-135
-125
-121
-119
-120
-125
-132
-132
-129
-130
-122
-114
-112
-120
-123
-118
-123
-131
-126
-126
-119
-114
-115
-112
-112
-121
-126
-134
-137
-137
-125
-113
-117
-125
-133
-131
-137
-144
-143
-144
-133
-133
-135
-127
-140
-149
-164
-153
-150
-148
-139
-135
-136
-131
-144
-146
-159
-157
-151
-156
-149
-135
-140
-136
-151
-152
-163
-161
-153
-150
-149
-130
-143
-145
-142
-154
-163
-156
-152
-148
-141
-144
-133
-152
-143
-151
-164
-154
-154
-156
-153
-144
-147
-149
-153
-153
-149
-161
-160
-154
-147
-138
-140
-134
-145
-154
-162
-160
-157
-151
-149
-142
-145
-144
-145
-152
-161
-164
-155
-152
-143
-144
-139
-144
-145
-149
-156
-164
-160
-149
-140
-136
-134
-142
-151
-152
-161
-157
-156
-142
-137
-148
-147
-142
-143
-156
-155
-153
-152
-144
-135
-140
-144
-147
-147
-154
-161
-153
-152
-145
-137
-138
-139
-135
-144
-157
-161
-155
-143
-135
-128
-135
-128
-124
-138
-143
-152
-146
-137
-142
-136
-130
-127
-125
-141
-162
-159
-155
-151
-152
-145
-138
-144
-156
-154
-160
-166
-163
-150
-146
-133
-139
-151
-160
-150
-162
-165
-156
-158
-150
-143
-149
-143
-148
-157
-157
-160
-164
-157
-141
-143
-140
-154
-163
-165
-172
-186
-194
-189
-174
-172
-168
-149
-127
-101
-66
-33
7
41
51
85
72
48
21
-31
-75
-104
-125
-142
-140
-132
-135
-131
-146
-145
-151
-158
-161
-160
-148
-147
-144
-153
-155
-159
-166
-165
-158
-158
-142
-139
-151
-141
-156
-165
-159
-163
-172
-160
-148
-148
-133
-144
-140
-161
-170
-167
-158
-151
-145
-146
-136
-142
-149
-156
-163
-160
-154
-151
-145
-141
-139
-147
-150
-153
-146
-153
-150
-142
-129
-132
-135
-128
-132
-149
-149
-145
-131
-142
-131
-129
-133
-131
-127
-134
-139
-142
-137
-134
-127
-117
-124
-126
-123
-134
-133
-125
-118
-117
-115
-108
-100
-104
-112
-120
-132
-122
-113
-106
-94
-94
-91
-100
-102
-98
-109
-114
-98
-88
-86
-89
-95
-101
-104
-105
-103
-107
-96
-90
-96
-90
-96
-95
-101
-110
-115
-115
-113
-101
-97
-100
-99
-108
-123
-126
-121
-123
-111
-103
-105
-114
-109
-119
-124
-121
-131
-125
-128
-124
-115
-106
-110
-138
-128
-116
-123
-135
-130
-119
-111
-117
-120
-121
-131
-137
-132
-132
-121
-109
-108
-113
-123
-118
-134
-134
-135
-122
-120
-112
-113
-113
-119
-114
-119
-130
-129
-114
-114
-105
-113
-118
-118
-121
-122
-128
-129
-130
-124
-118
-104
-106
-117
-120
-127
-128
-128
-114
-117
-111
-112
-108
-114
-117
-124
-131
-135
-122
-110
-110
-110
-108
-116
-123
-132
-137
-130
-118
-117
-111
-106
-106
-114
-110
-120
-129
-128
-119
-122
-113
-111
-110
-115
-111
-118
-137
-115
-118
-103
-112
-108
-110
-112
-118
-122
-126
-128
-123
-116
-106
-105
-110
-114
-119
-122
-124
-122
-114
-110
-103
-92
-106
-107
-107
-115
-116
-113
-108
-109
-107
-96
-98
-107
-118
-117
-123
-119
-115
-112
-118
-109
-105
-105
-123
-132
-130
-132
-121
-114
-114
-116
-116
-120
-127
-129
-128
-125
-124
-122
-113
-107
-106
-110
-115
-130
-130
-130
-123
-115
-111
-107
-117
-120
-134
-137
-134
-143
-154
-142
-147
-127
-117
-106
-78
-48
-25
13
41
69
99
97
76
48
3
-28
-64
-88
-111
-103
-105
-101
-112
-112
-117
-114
-117
-118
-121
-117
-112
-119
-114
-116
-127
-132
-131
-129
-121
-110
-121
-109
-106
-119
-126
-134
-127
-129
-121
-116
-119
-122
-126
-115
-131
-129
-131
-125
-121
-107
-105
-114
-124
-124
-129
-128
-117
-121
-122
-118
-109
-111
-108
-120
-127
-133
-122
-112
-115
-111
-113
-116
-117
-113
-117
-124
-122
-120
-100
-105
-102
-101
-106
-123
-116
-118
-123
-118
-109
-102
-99
-103
-108
-116
-115
-110
-107
-107
-100
-91
-89
-95
-108
-110
-107
-105
-98
-100
-96
-95
-88
-84
-93
-96
-103
-89
-92
-94
-86
-85
-77
-80
-81
-94
-98
-98
-95
-85
-90
-64
-62
-78
-95
-103
-101
-97
-103
-92
-90
-99
-94
-94
-100
-111
-108
-115
-113
-101
-107
-99
-96
-94
-107
-115
-116
-119
-109
-114
-105
-98
-99
-106
-111
-120
-120
-114
-114
-110
-96
-103
-104
-109
-109
-113
-114
-107
-111
-115
-104
-95
-97
-90
-101
-113
-121
-124
-108
-111
-98
-94
-91
-102
-93
-111
-111
-108
-119
-110
-94
-74
-98
-111
-106
-120
-117
-109
-102
-97
-102
-94
-93
-93
-104
-111
-115
-103
-105
-99
-90
-91
-95
-103
-108
-113
-102
-109
-102
-94
-95
-103
-94
-86
-101
-108
-104
-106
-97
-84
-75
-96
-101
-100
-105
-110
-113
-107
-101
-97
-89
-94
-96
-99
-98
-112
-113
-104
-101
-96
-79
-94
-95
-96
-107
-107
-106
-108
-90
-88
-91
-83
-86
-95
-106
-101
-110
-101
-98
-96
-85
-87
-90
-92
-90
-98
-103
-82
-74
-82
-92
-87
-89
-84
-96
-96
-105
-99
-95
-88
-93
-100
-90
-103
-108
-108
-106
-100
-102
-97
-90
-94
-92
-99
-106
-118
-110
-103
-102
-103
-95
-95
-100
-102
-104
-109
-109
-106
-104
-106
-95
-90
-93
-104
-113
-111
-112
-107
-111
-96
-108
-112
-130
-135
-141
-134
-124
-98
-59
-31
6
37
59
79
93
95
89
78
53
17
-28
-38
-68
-87
-104
-108
-95
-94
-100
-93
-84
-89
-100
-89
-101
-108
-121
-106
-104
-108
-101
-93
-97
-107
-112
-114
-111
-110
-102
-103
-93
-91
-104
-106
-116
-111
-112
-108
-98
-91
-101
-103
-100
-104
-109
-114
-116
-111
-100
-100
-95
-96
-98
-115
-112
-111
-106
-106
-97
-95
-95
-87
-90
-107
-118
-116
-105
-82
-86
-103
-98
-106
-93
-101
-114
-111
-101
-96
-87
-80
-91
-94
-92
-101
-106
-109
-103
-92
-89
-89
-90
-77
-87
-96
-97
-98
-93
-93
-78
-80
-74
-78
-76
-89
-88
-87
-69
-84
-73
-64
-71
-75
-81
-80
-72
-79
-74
-79
-71
-67
-70
-70
-81
-79
-78
-94
-85
-78
-71
-73
-72
-74
-73
-91
-103
-97
-95
-92
-81
-80
-80
-97
-100
-108
-100
-104
-113
-104
-85
-91
-90
-94
-99
-104
-115
-113
-103
-96
-85
-80
-91
-98
-105
-107
-108
-110
-100
-101
-98
-97
-101
-99
-103
-112
-103
-101
-108
-101
-96
-85
-90
-103
-109
-116
-114
-102
-99
-96
-97
-95
-89
-103
-107
-107
-109
-110
-105
-97
-95
-99
-103
-101
-102
-110
-111
-105
-104
-100
-99
-98
-101
-102
-102
-101
-101
-98
-105
-104
-92
-100
-98
-96
-108
-110
-110
-94
-95
-100
-94
-98
-103
-103
-108
-108
-112
-108
-106
-94
-95
-85
-100
-103
-112
-113
-107
-106
-101
-95
-92
-94
-97
-99
-107
-109
-105
-105
-98
-96
-95
-100
-97
-100
-110
-109
-110
-94
-83
-98
-97
-89
-93
-91
-107
-114
-116
-93
-103
-91
-98
-94
-94
-95
-102
-100
-99
-93
-90
-81
-84
-85
-87
-89
-95
-91
-103
-104
-100
-77
-78
-85
-90
-98
-114
-106
-102
-114
-105
-91
-89
-95
-98
-98
-102
-113
-114
-110
-102
-96
-104
-93
-93
-105
-114
-119
-116
-104
-99
-92
-91
-97
-98
-107
-104
-116
-113
-108
-98
-95
-100
-96
-118
-133
-141
-141
-139
-128
-113
-85
-50
-14
5
34
58
78
105
107
95
84
63
13
-27
-54
-80
-103
-98
-90
-83
-85
-81
-87
-89
-102
-111
-100
-109
-108
-100
-92
-91
-103
-108
-113
-116
-122
-111
-108
-99
-87
-93
-105
-103
-104
-114
-120
-104
-104
-99
-107
-105
-100
-103
-110
-117
-114
-121
-114
-94
-84
-86
-98
-107
-107
-117
-117
-105
-107
-91
-86
-103
-102
-104
-113
-118
-109
-101
-102
-93
-90
-96
-98
-107
-113
-111
-106
-103
-98
-97
-100
-91
-92
-97
-116
-114
-115
-97
-96
-87
-90
-90
-92
-101
-110
-103
-99
-91
-90
-77
-76
-83
-86
-95
-96
-92
-83
-83
-77
-73
-71
-73
-74
-80
-82
-92
-93
-79
-75
-69
-72
-69
-69
-78
-87
-82
-73
-85
-81
-76
-77
-79
-73
-95
-93
-95
-99
-96
-79
-88
-86
-93
-94
-96
-108
-106
-110
-108
-93
-88
-93
-97
-91
-104
-115
-112
-108
-113
-100
-82
-85
-107
-107
-114
-118
-111
-109
-102
-98
-95
-88
-91
-105
-117
-121
-113
-115
-96
-97
-95
-95
-95
-101
-111
-110
-111
-109
-111
-104
-97
-94
-102
-105
-113
-117
-114
-115
-110
-100
-94
-96
-108
-104
-111
-120
-118
-101
-101
-97
-102
-103
-108
-111
-115
-120
-116
-115
-109
-101
-100
-96
-105
-106
-113
-112
-120
-112
-109
-101
-98
-103
-103
-107
-109
-120
-119
-116
-114
-99
-91
-94
-106
-113
-120
-123
-115
-98
-102
-100
-99
-104
-108
-119
-110
-111
-119
-118
-110
-97
-88
-101
-107
-114
-118
-119
-111
-103
-107
-95
-98
-108
-106
-113
-121
-128
-116
-112
-112
-96
-99
-102
-100
-106
-108
-112
-113
-113
-115
-101
-99
-98
-105
-109
-116
-108
-107
-109
-98
-91
-89
-88
-95
-103
-106
-106
-104
-106
-100
-98
-89
-82
-90
-115
-121
-121
-116
-122
-108
-106
-100
-98
-107
-112
-116
-124
-118
-120
-109
-109
-96
-108
-116
-129
-122
-126
-119
-116
-113
-110
-96
-111
-126
-123
-129
-124
-121
-118
-109
-111
-108
-108
-116
-129
-139
-142
-146
-149
-140
-134
-122
-109
-84
-74
-37
0
38
62
84
106
109
77
54
6
-35
-64
-82
-98
-99
-97
-103
-101
-109
-117
-127
-132
-124
-107
-106
-113
-113
-109
-126
-126
-130
-133
-128
-130
-116
-95
-119
-113
-119
-132
-134
-125
-127
-121
-112
-104
-115
-129
-127
-130
-128
-135
-131
-128
-121
-114
-123
-128
-119
-120
-137
-135
-128
-120
-115
-119
-125
-126
-128
-135
-138
-135
-123
-119
-118
-113
-111
-122
-133
-130
-122
-122
-125
-120
-114
-108
-114
-120
-126
-132
-133
-128
-127
-110
-110
-112
-116
-116
-131
-126
-120
-116
-116
-106
-110
-104
-103
-105
-119
-120
-120
-112
-109
-95
-107
-103
-99
-104
-109
-101
-110
-100
-98
-92
-92
-93
-92
-98
-104
-102
-104
-104
-93
-80
-87
-100
-101
-102
-110
-114
-112
-116
-115
-101
-103
-105
-105
-115
-118
-129
-126
-126
-117
-111
-109
-116
-121
-112
-121
-137
-130
-132
-129
-119
-113
-117
-126
-127
-132
-138
-131
-119
-124
-121
-113
-106
-120
-126
-132
-135
-130
-134
-132
-124
-122
-110
-98
-105
-133
-146
-147
-136
-121
-109
-114
-121
-126
-135
-142
-136
-131
-124
-127
-126
-122
-123
-119
-129
-135
-131
-138
-132
-128
-126
-120
-116
-114
-127
-140
-145
-143
-133
-123
-120
-118
-120
-117
-131
-131
-129
-134
-142
-126
-124
-114
-120
-120
-130
-128
-137
-142
-133
-118
-115
-114
-118
-116
-135
-136
-137
-142
-129
-123
-115
-116
-120
-124
-125
-137
-136
-131
-122
-123
-117
-108
-121
-131
-136
-126
-120
-140
-129
-128
-118
-124
-121
-129
-139
-134
-135
-134
-127
-120
-109
-116
-127
-132
-135
-135
-131
-131
-124
-116
-128
-120
-127
-127
-132
-135
-137
-127
-125
-119
-116
-120
-121
-126
-133
-134
-123
-126
-121
-111
-107
-106
-108
-113
-121
-128
-114
-114
-114
-110
-104
-107
-113
-115
-128
-137
-133
-122
-114
-115
-113
-126
-126
-126
-128
-146
-138
-131
-127
-118
-116
-123
-127
-134
-140
-141
-135
-129
-115
-124
-124
-116
-115
-134
-139
-141
-137
-133
-126
-129
-114
-121
-126
-137
-134
-137
-141
-141
-146
-147
-156
-149
-145
-141
-119
-95
-54
-21
21
50
65
86
89
63
38
0
-32
-54
-69
-98
-104
-113
-115
-123
-132
-133
-126
-120
-109
-102
-109
-121
-127
-133
-126
-141
-137
-126
-123
-123
-126
-124
-133
-143
-144
-142
-131
-132
-124
-120
-122
-126
-110
-135
-142
-135
-133
-132
-124
-123
-122
-117
-122
-135
-133
-130
-132
-124
-123
-117
-116
-120
-123
-127
-128
-133
-127
-127
-119
-115
-115
-117
-116
-128
-135
-134
-124
-118
-110
-110
-112
-117
-118
-119
-123
-118
-118
-116
-117
-114
-104
-108
-113
-123
-119
-123
-112
-106
-104
-98
-97
-105
-116
-119
-119
-113
-105
-102
-95
-93
-89
-97
-97
-100
-113
-108
-91
-82
-88
-86
-88
-88
-92
-99
-103
-102
-91
-86
-84
-89
-84
-88
-95
-106
-101
-101
-106
-93
-94
-94
-100
-97
-102
-104
-110
-119
-111
-109
-99
-102
-105
-104
-119
-119
-127
-122
-120
-107
-104
-109
-111
-111
-116
-115
-124
-120
-111
-113
-100
-109
-105
-111
-123
-122
-123
-120
-116
-114
-111
-111
-104
-108
-117
-122
-126
-123
-121
-110
-108
-107
-111
-118
-130
-121
-125
-117
-116
-112
-105
-103
-114
-116
-125
-122
-122
-117
-118
-106
-105
-97
-103
-107
-116
-121
-112
-118
-114
-110
-108
-103
-114
-114
-117
-120
-122
-117
-109
-106
-105
-102
-104
-105
-120
-121
-119
-120
-116
-101
-96
-101
-110
-114
-115
-121
-126
-112
-108
-99
-92
-96
-104
-112
-115
-118
-118
-113
-105
-100
-98
-108
-112
-110
-115
-122
-108
-105
-112
-104
-94
-101
-112
-114
-120
-115
-111
-112
-102
-111
-105
-98
-109
-112
-118
-120
-111
-111
-106
-101
-89
-98
-106
-108
-126
-120
-118
-113
-106
-96
-95
-96
-97
-105
-101
-112
-108
-102
-87
-92
-91
-96
-100
-100
-104
-100
-100
-101
-99
-96
-96
-100
-110
-112
-112
-113
-108
-113
-107
-105
-102
-98
-112
-108
-110
-118
-119
-114
-108
-112
-103
-102
-113
-117
-112
-109
-110
-104
-104
-109
-107
-101
-102
-114
-114
-124
-114
-106
-105
-103
-106
-107
-127
-123
-139
-141
-129
-97
-82
-56
-30
4
29
39
58
82
85
72
58
31
-7
-45
-66
-94
-106
-114
-99
-89
-91
-84
-92
-97
-99
-111
-117
-108
-101
-106
-97
-90
-92
-99
-99
-104
-117
-109
-112
-108
-99
-96
-90
-103
-104
-110
-112
-98
-98
-101
-100
-104
-101
-99
-100
-105
-114
-104
-99
-98
-90
-97
-95
-101
-105
-103
-111
-110
-109
-99
-82
-95
-82
-99
-90
-105
-117
-107
-105
-94
-92
-84
-92
-94
-96
-106
-110
-101
-95
-88
-84
-89
-91
-96
-105
-103
-103
-104
-91
-86
-86
-79
-92
-90
-99
-98
-91
-91
-90
-81
-77
-74
-77
-74
-87
-89
-87
-78
-74
-69
-69
-64
-59
-72
-84
-87
-80
-74
-73
-58
-63
-61
-59
-64
-69
-84
-90
-75
-75
-77
-65
-66
-60
-71
-83
-95
-95
-92
-84
-77
-81
-84
-89
-94
-92
-97
-99
-98
-95
-78
-76
-83
-97
-99
-106
-100
-99
-87
-93
-88
-86
-87
-89
-93
-98
-109
-106
-105
-100
-92
-77
-89
-95
-88
-93
-96
-107
-98
-98
-92
-94
-91
-79
-85
-104
-107
-97
-94
-97
-91
-82
-77
-85
-97
-110
-105
-104
-95
-93
-85
-85
-92
-86
-87
-101
-106
-105
-94
-83
-70
-68
-76
-85
-91
-98
-99
-104
-97
-81
-73
-77
-79
-84
-86
-94
-94
-96
-86
-80
-73
-79
-79
-84
-90
-91
-95
-85
-87
-77
-86
-86
-83
-85
-85
-88
-86
-79
-75
-81
-80
-80
-76
-85
-91
-92
-91
-89
-87
-83
-75
-78
-76
-85
-91
-91
-90
-96
-82
-80
-78
-84
-83
-79
-87
-85
-94
-77
-76
-71
-74
-79
-80
-73
-90
-97
-99
-100
-86
-66
-70
-72
-68
-69
-81
-92
-88
-72
-73
-62
-62
-71
-84
-72
-74
-79
-85
-76
-77
-70
-74
-77
-71
-82
-84
-86
-87
-84
-86
-72
-72
-69
-72
-79
-92
-95
-95
-91
-89
-70
-83
-83
-81
-73
-93
-90
-88
-99
-82
-77
-87
-82
-79
-85
-99
-98
-101
-93
-94
-83
-82
-88
-85
-91
-97
-114
-112
-113
-109
-94
-83
-66
-53
-41
-14
12
27
49
69
90
81
63
40
10
-34
-57
-70
-88
-84
-82
-71
-58
-77
-88
-92
-92
-83
-86
-84
-75
-74
-84
-90
-93
-100
-102
-94
-81
-90
-87
-72
-79
-83
-94
-94
-89
-105
-101
-88
-84
-78
-75
-85
-80
-75
-87
-96
-87
-90
-86
-87
-74
-81
-88
-98
-100
-96
-87
-77
-80
-74
-77
-81
-82
-98
-88
-81
-89
-85
-84
-74
-74
-77
-81
-81
-84
-94
-87
-79
-78
-71
-78
-83
-85
-97
-87
-74
-71
-69
-66
-67
-84
-78
-75
-90
-77
-80
-65
-55
-44
-61
-71
-77
-79
-71
-65
-61
-59
-50
-51
-51
-59
-55
-65
-64
-71
-61
-59
-50
-42
-43
-40
-43
-56
-62
-64
-64
-65
-61
-36
-33
-47
-46
-53
-68
-61
-57
-48
-40
-47
-44
-54
-57
-59
-58
-59
-70
-52
-47
-54
-57
-56
-56
-63
-66
-61
-70
-51
-59
-49
-39
-47
-43
-63
-69
-62
-66
-60
-52
-45
-55
-58
-54
-64
-59
-59
-51
-54
-53
-36
-40
-55
-54
-79
-76
-76
-73
-45
-34
-39
-38
-49
-61
-45
-37
-63
-61
-44
-49
-47
-55
-46
-56
-62
-59
-51
-65
-55
-44
-41
-56
-59
-56
-52
-66
-57
-47
-47
-44
-46
-48
-48
-52
-52
-61
-53
-56
-53
-38
-38
-45
-58
-56
-63
-60
-50
-49
-54
-55
-47
-48
-42
-43
-48
-55
-60
-57
-52
-37
-47
-55
-49
-51
-51
-55
-57
-61
-41
-43
-43
-35
-42
-55
-56
-44
-54
-53
-43
-47
-49
-38
-46
-54
-68
-53
-32
-41
-49
-33
-48
-47
-50
-40
-57
-53
-25
-39
-31
-33
-49
-43
-42
-38
-59
-52
-47
-39
-39
-33
-35
-27
-53
-58
-55
-43
-55
-47
-43
-46
-53
-41
-36
-47
-43
-61
-48
-34
-22
-25
-48
-31
-42
-49
-58
-50
-32
-31
-26
-26
-35
-30
-35
-46
-52
-45
-37
-20
-16
-23
-34
-47
-58
-44
-40
-41
-42
-3
28
50
67
69
78
102
110
111
101
97
73
42
18
-2
-22
-30
-11
-2
-7
-17
-23
-12
-20
-25
-24
-8
-28
-35
-33
-22
-17
-14
-12
-3
-20
-36
-34
-23
-23
-27
-27
-12
-7
-23
-38
-33
-37
-14
-18
-22
-22
-33
-26
-6
-22
-24
-29
-10
-23
-20
-9
-16
-14
-20
-36
-33
-27
-24
-31
-29
-12
-7
4
-22
-26
-33
-13
0
-13
-1
-2
-10
-14
1
-22
-36
-40
-25
-13
-3
6
-8
-9
-18
-12
-16
-15
-13
-5
-6
-4
-2
0
-7
-14
-25
-9
0
-3
-2
3
-1
-2
-9
-10
-8
-8
7
15
19
19
11
5
-1
6
1
-6
0
1
0
4
13
15
-5
-14
-1
-16
-12
12
20
15
6
-5
-9
-12
-5
-14
-5
-12
0
2
-6
-9
-26
-13
-24
-20
-8
-10
-13
-16
-8
-7
-22
-22
-30
-11
-7
-4
-8
-11
-14
-4
-12
-21
-30
-18
-10
3
-11
-10
-7
-16
-9
-23
-6
-11
-9
-16
-8
1
-11
-17
-12
-21
-22
-13
-21
1
0
-8
-7
-11
-18
-20
-27
-21
-8
-1
8
5
-2
-16
-20
-34
-28
-15
-8
-14
-7
11
2
-15
-22
-11
-28
-20
-16
-9
-1
-3
-24
-27
-25
-17
-21
-11
-7
-2
-4
0
-3
-21
-20
-18
-19
-12
-5
2
-10
0
-18
-15
-24
-15
-21
-8
0
-2
-10
-13
-11
-20
-24
-21
-25
-8
-4
5
7
-6
-5
-17
-36
-29
-6
-8
-1
-6
0
-1
-18
-25
-25
-23
-2
-16
-15
-3
-10
-10
-6
-19
0
-16
-18
-14
-5
2
0
5
7
-9
-15
-17
-12
-12
-7
7
16
11
-16
-11
-28
-30
-20
-16
2
-7
-8
6
-9
-19
-23
-28
-24
-10
-2
-3
-11
-14
-19
-17
-20
-34
-19
-10
-8
-7
-4
-3
-14
-22
-26
-30
-16
-11
-13
-3
-3
-10
1
-24
-25
-37
-33
-31
-18
-8
-8
-3
28
40
50
67
89
113
137
128
128
121
85
48
22
17
-1
-7
-8
-12
-5
-7
-9
-18
-23
-7
-16
-18
1
-3
-15
-18
-25
-24
-29
-26
-20
-13
-7
-4
6
-10
-26
-33
-30
-19
-16
-3
-5
-5
-17
-20
-28
-22
-20
-19
-20
-8
-10
-4
-2
-25
-18
-25
-31
-26
-21
-12
3
-6
-18
-20
-19
-23
-26
-28
-17
-13
-16
-14
-13
-8
-12
-17
-23
-26
-9
-6
-1
-14
-12
-27
-23
-22
-15
-6
-22
-7
-7
-8
-18
-10
-19
-27
-18
-22
-13
1
3
1
-4
-13
-14
-25
-21
-12
2
7
10
-2
-2
-3
-11
-14
-2
-4
-2
17
13
18
8
-6
-8
-10
-3
-10
-11
11
7
3
-5
4
-16
-19
-16
-18
-12
3
4
-8
-16
-16
-19
-27
-31
-26
-17
-15
-15
-15
-16
-17
-35
-38
-30
-29
-22
-13
-12
-6
-23
-17
-34
-45
-35
-34
-28
-18
5
-19
-27
-26
-30
-39
-47
-34
-32
-18
-20
-29
-36
-39
-40
-40
-44
-41
-35
-37
-26
-21
-22
-36
-41
-54
-34
-44
-41
-39
-38
-37
-45
-49
-44
-47
-55
-56
-45
-34
-39
-37
-45
-47
-58
-64
-51
-49
-44
-48
-46
-43
-49
-55
-63
-65
-65
-56
-47
-39
-49
-52
-56
-57
-69
-59
-60
-56
-49
-52
-33
-49
-53
-69
-68
-61
-68
-56
-53
-44
-49
-58
-63
-66
-68
-69
-65
-66
-55
-52
-49
-58
-56
-66
-68
-63
-71
-66
-63
-51
-51
-53
-59
-71
-74
-81
-73
-59
-63
-51
-53
-56
-65
-76
-76
-74
-66
-64
-58
-61
-60
-61
-69
-79
-79
-68
-70
-74
-62
-50
-56
-69
-73
-71
-67
-79
-77
-74
-56
-58
-57
-65
-71
-71
-77
-85
-69
-54
-62
-63
-70
-67
-71
-81
-78
-77
-74
-72
-61
-62
-66
-59
-64
-79
-77
-77
-83
-71
-52
-41
-53
-67
-69
-77
-79
-82
-60
-61
-65
-57
-62
-64
-69
-78
-75
-76
-71
-60
-64
-72
-74
-79
-82
-85
-84
-80
-77
-76
-71
-76
-72
-57
-85
-82
-95
-81
-81
-84
-74
-72
-64
-71
-80
-91
-75
-85
-81
-75
-75
-74
-84
-80
-83
-91
-96
-90
-84
-90
-96
-86
-104
-93
-89
-79
-64
-30
-4
22
44
80
89
83
69
59
38
6
-4
-30
-58
-56
-68
-74
-87
-89
-77
-81
-83
-69
-71
-80
-80
-71
-83
-90
-95
-88
-81
-74
-73
-73
-76
-88
-94
-97
-97
-89
-82
-80
-76
-65
-79
-88
-91
-90
-92
-90
-75
-78
-79
-77
-72
-81
-99
-84
-92
-83
-86
-69
-72
-77
-88
-88
-94
-86
-90
-85
-91
-80
-75
-80
-73
-79
-85
-95
-90
-77
-79
-80
-72
-70
-79
-85
-83
-80
-84
-91
-78
-71
-58
-56
-76
-95
-87
-91
-86
-81
-77
-79
-63
-56
-74
-78
-80
-74
-74
-81
-67
-59
-55
-55
-56
-80
-79
-78
-73
-67
-56
-53
-55
-56
-66
-72
-75
-71
-60
-66
-45
-52
-58
-55
-63
-64
-73
-77
-78
-62
-56
-64
-59
-66
-75
-75
-79
-74
-76
-79
-79
-81
-74
-74
-73
-88
-94
-86
-93
-88
-77
-67
-73
-82
-93
-92
-98
-88
-94
-89
-79
-76
-82
-90
-96
-100
-97
-99
-86
-80
-78
-70
-59
-79
-93
-104
-97
-91
-92
-88
-88
-78
-80
-85
-83
-90
-101
-101
-97
-90
-84
-82
-75
-84
-89
-80
-97
-105
-92
-73
-83
-79
-81
-88
-95
-100
-94
-104
-104
-92
-69
-66
-81
-88
-85
-90
-106
-102
-100
-91
-85
-82
-81
-82
-92
-95
-100
-101
-90
-85
-69
-82
-83
-86
-86
-75
-106
-114
-104
-89
-78
-78
-84
-88
-96
-94
-107
-101
-96
-85
-58
-79
-79
-79
-97
-98
-96
-95
-90
-85
-79
-82
-86
-79
-92
-104
-104
-100
-87
-90
-81
-74
-78
-88
-97
-93
-89
-101
-91
-85
-78
-69
-80
-97
-97
-94
-94
-104
-99
-94
-86
-74
-88
-88
-94
-103
-95
-83
-89
-82
-88
-88
-90
-95
-101
-106
-92
-83
-89
-88
-79
-95
-92
-84
-95
-95
-90
-97
-90
-73
-81
-89
-90
-89
-105
-96
-104
-87
-88
-80
-78
-83
-85
-88
-100
-100
-100
-100
-88
-81
-72
-70
-83
-84
-87
-90
-83
-78
-77
-78
-71
-77
-85
-83
-81
-97
-96
-94
-96
-93
-88
-83
-83
-91
-105
-97
-93
-96
-92
-86
-77
-83
-95
-99
-105
-106
-104
-101
-90
-87
-91
-88
-80
-96
-96
-104
-99
-102
-95
-83
-91
-96
-86
-104
-102
-112
-102
-105
-100
-92
-109
-111
-125
-129
-118
-106
-81
-52
-5
21
43
60
83
86
79
65
45
2
-14
-40
-60
-81
-89
-93
-96
-103
-104
-98
-82
-81
-82
-92
-102
-110
-111
-112
-106
-103
-85
-95
-101
-103
-104
-101
-112
-110
-104
-102
-99
-99
-98
-107
-99
-107
-111
-120
-108
-96
-104
-92
-88
-94
-106
-112
-111
-113
-101
-100
-99
-91
-87
-97
-108
-116
-104
-112
-100
-103
-95
-96
-100
-96
-100
-105
-107
-113
-106
-101
-94
-95
-98
-100
-98
-105
-110
-111
-98
-106
-86
-92
-87
-95
-108
-101
-113
-111
-108
-97
-91
-77
-85
-90
-96
-98
-106
-94
-94
-88
-86
-84
-74
-78
-89
-96
-91
-95
-87
-85
-64
-56
-67
-75
-84
-88
-88
-89
-81
-69
-62
-65
-69
-77
-72
-84
-97
-78
-72
-70
-77
-66
-70
-83
-91
-101
-100
-99
-86
-84
-83
-81
-90
-92
-105
-101
-111
-106
-89
-95
-87
-90
-102
-95
-106
-107
-113
-111
-97
-91
-91
-96
-100
-110
-109
-114
-116
-113
-104
-96
-98
-102
-99
-100
-107
-112
-117
-110
-94
-89
-90
-94
-93
-100
-113
-114
-116
-109
-107
-96
-95
-93
-100
-98
-118
-120
-94
-103
-101
-99
-105
-96
-88
-106
-114
-108
-109
-100
-106
-91
-80
-91
-90
-103
-112
-123
-107
-109
-91
-87
-94
-97
-96
-101
-103
-108
-107
-92
-102
-90
-95
-98
-91
-95
-102
-116
-104
-103
-97
-94
-90
-97
-105
-100
-102
-106
-103
-100
-95
-86
-93
-95
-94
-86
-109
-111
-106
-106
-92
-88
-89
-87
-94
-95
-102
-106
-119
-110
-101
-91
-82
-80
-86
-103
-96
-112
-104
-95
-100
-99
-83
-79
-93
-104
-96
-96
-112
-104
-96
-84
-90
-101
-97
-102
-110
-101
-98
-99
-102
-95
-86
-80
-98
-112
-110
-102
-104
-95
-97
-94
-90
-95
-99
-108
-110
-106
-105
-103
-98
-93
-90
-90
-86
-101
-108
-107
-99
-94
-92
-94
-90
-88
-88
-101
-110
-103
-91
-94
-81
-87
-78
-80
-96
-109
-110
-84
-83
-74
-96
-86
-77
-78
-90
-94
-103
-103
-99
-97
-94
-93
-85
-91
-97
-115
-107
-108
-102
-90
-90
-106
-101
-101
-103
-107
-111
-109
-103
-100
-92
-86
-99
-93
-99
-105
-112
-113
-107
-94
-96
-102
-91
-91
-109
-118
-124
-133
-134
-128
-120
-117
-96
-73
-63
-41
-6
24
55
77
105
117
92
81
36
-12
-57
-53
-91
-98
-94
-85
-69
-78
-104
-106
-99
-99
-96
-81
-96
-110
-98
-96
-101
-112
-112
-115
-109
-100
-99
-94
-94
-99
-103
-107
-108
-105
-104
-90
-93
-100
-105
-105
-112
-114
-115
-110
-101
-94
-93
-80
-98
-106
-107
-110
-106
-102
-96
-94
-98
-96
-97
-99
-98
-108
-116
-111
-104
-98
-93
-80
-96
-102
-104
-113
-114
-101
-90
-89
-81
-91
-89
-94
-106
-106
-117
-106
-89
-80
-95
-93
-88
-92
-103
-102
-103
-100
-96
-82
-79
-86
-81
-83
-94
-98
-85
-75
-85
-80
-74
-69
-67
-81
-87
-80
-82
-80
-72
-57
-65
-75
-73
-74
-81
-86
-80
-76
-72
-54
-55
-61
-69
-66
-84
-90
-79
-77
-71
-70
-70
-71
-81
-89
-95
-95
-89
-92
-87
-83
-89
-83
-85
-91
-93
-102
-104
-91
-84
-84
-80
-78
-98
-108
-106
-106
-100
-91
-85
-93
-93
-84
-96
-103
-98
-105
-101
-97
-88
-89
-89
-86
-94
-95
-101
-108
-111
-106
-98
-89
-89
-94
-96
-103
-108
-104
-101
-96
-87
-86
-89
-90
-102
-104
-105
-104
-102
-97
-90
-93
-93
-86
-94
-100
-106
-104
-99
-103
-87
-79
-88
-94
-93
-97
-106
-101
-99
-103
-77
-82
-87
-83
-91
-97
-101
-112
-105
-83
-81
-87
-75
-94
-98
-103
-110
-101
-87
-96
-91
-80
-93
-92
-85
-92
-102
-107
-93
-89
-91
-80
-88
-98
-94
-98
-95
-100
-100
-95
-88
-86
-91
-92
-90
-103
-103
-100
-98
-95
-87
-86
-86
-86
-93
-103
-105
-103
-98
-90
-87
-88
