53
50
46
48
49
57
63
71
67
60
54
46
43
45
42
58
66
67
63
51
40
27
25
24
35
43
42
37
35
34
13
7
5
1
8
17
21
26
22
13
7
0
-9
-2
6
10
5
11
5
5
-5
-14
-13
-6
-9
1
6
11
5
0
-3
-3
-11
-8
-7
6
11
11
9
4
-8
-16
-18
-15
-6
8
12
16
15
1
-10
-14
-11
-11
0
6
7
13
12
2
-7
-19
-12
-6
0
12
13
13
9
4
-8
-10
-10
1
3
12
15
17
10
-6
-9
-9
-10
-10
2
9
14
17
9
0
-6
-9
-12
-11
-5
3
8
13
8
-4
-15
-17
-15
-8
0
5
5
7
8
-4
-16
-13
-12
-6
-1
9
19
12
9
3
-5
-6
2
-8
4
8
13
7
9
9
7
0
-5
2
8
18
20
19
8
2
4
0
5
15
17
19
23
17
9
-2
-8
-16
-15
-6
-2
2
0
2
0
-3
-14
-17
-9
-9
-4
-2
8
8
-1
-16
-20
-15
-10
-9
-1
3
4
2
2
-10
-23
-21
-18
-10
-1
4
0
1
-6
-18
-23
-19
-18
-14
-8
-5
-2
-8
-18
-30
-19
-19
-3
13
39
52
74
87
106
115
140
150
158
150
149
139
117
90
63
26
-8
-28
-30
-26
-20
-12
-6
-3
-2
-8
-10
-15
-8
-4
1
8
10
5
-1
-13
-9
-8
-10
3
18
12
7
6
2
-11
-10
-9
-2
9
15
20
19
7
-2
1
-3
-7
1
4
11
22
14
9
0
-7
-6
-6
10
15
15
16
20
19
9
1
-2
3
11
20
24
27
13
19
17
11
8
16
18
29
29
38
35
30
18
20
15
19
28
37
41
49
45
41
37
28
33
36
38
52
54
62
59
54
43
42
35
39
43
51
54
63
67
56
45
40
39
38
45
51
56
52
40
33
26
17
16
18
20
23
27
32
24
13
3
-6
-7
-2
4
16
25
17
8
6
-3
-12
-7
-12
-5
8
13
4
9
1
-10
-14
-14
-8
-6
3
3
7
5
-4
-9
-15
-18
-8
-6
-1
12
4
7
2
-7
-13
-14
-9
-2
15
13
10
8
8
-11
-16
-12
-4
-8
4
13
6
7
-2
-7
-4
-15
-8
3
5
8
9
5
1
-7
-12
-12
-7
4
7
11
18
9
5
-6
-10
-10
-7
-1
7
11
0
0
-1
-6
-5
-8
-3
1
9
5
6
2
-10
-15
-19
-14
-8
-3
3
12
8
2
-11
-16
-12
-15
-7
-1
1
9
10
7
1
-7
-10
-13
-10
2
11
12
9
-3
-11
-3
-14
-8
4
15
17
15
17
17
0
-7
0
0
-4
11
19
21
16
8
0
-8
-12
-10
-6
-2
5
4
4
-5
-20
-18
-17
-13
-12
-5
2
-2
-1
-6
-20
-29
-21
-17
-17
-5
4
3
1
-8
-19
-11
-18
-18
-18
0
12
6
-2
-7
-17
-26
-26
-17
-12
-4
2
-2
-9
-22
-28
-27
-24
-19
-12
2
30
39
46
44
54
78
90
125
158
160
166
155
131
101
76
51
31
9
-4
-13
-15
-12
-15
-20
-20
-17
-15
-1
-1
4
12
17
2
-4
-9
-14
-15
-12
-5
8
14
10
4
-4
-10
-14
-11
-5
5
7
12
10
4
-4
-8
-11
-9
-1
11
13
11
19
13
1
-10
-15
-6
-1
17
17
19
19
16
8
3
-5
-3
10
17
18
20
22
21
11
0
1
7
15
19
31
27
29
28
16
17
12
11
25
34
39
55
48
34
27
30
28
31
40
51
58
58
53
53
39
33
36
47
48
57
56
60
65
53
45
36
39
40
46
52
56
57
44
29
26
27
24
25
32
31
35
36
21
15
9
9
4
6
10
19
17
6
-1
-4
-12
-10
-10
-9
0
5
8
10
3
-9
-7
-15
-15
-13
0
1
11
8
2
-4
-9
-17
-20
-6
1
0
4
7
-1
-8
-11
-18
-15
-8
4
17
10
6
4
-5
-16
-15
-14
-11
-11
-1
9
10
1
-10
-13
-14
-9
-6
1
8
10
15
11
-7
-14
-11
-11
-3
3
4
8
8
12
-4
-13
-11
-7
-9
-6
6
10
9
-5
-10
-13
-13
-10
-9
4
10
13
5
2
-10
-14
-18
-14
-5
6
11
10
3
3
-9
-13
-10
-20
-5
0
-2
2
6
1
-11
-8
-10
-4
1
4
6
12
10
3
-7
-5
-4
-5
-4
8
13
8
8
9
2
-9
-15
-2
6
14
17
25
15
12
0
-5
0
2
8
13
20
17
7
-5
-8
-10
-16
-12
-1
3
1
8
7
1
-12
-16
-18
-7
0
2
-1
1
0
-13
-20
-20
-24
-13
0
1
2
5
1
-12
-23
-27
-18
-8
-4
4
2
1
-2
-13
-22
-22
-21
-20
-10
2
2
-3
-21
-26
-20
-9
9
23
43
61
83
102
118
133
151
154
160
153
147
126
110
80
49
12
-18
-32
-33
-26
-14
-4
2
3
4
-3
-2
-9
-9
-7
4
15
13
12
7
-10
-16
-12
-10
-7
5
8
8
4
4
-10
-5
-7
-3
-2
11
11
12
13
7
-8
-2
0
8
5
8
15
19
16
8
-4
-6
-7
-3
6
19
18
21
22
14
10
12
0
1
14
22
22
24
18
14
7
16
13
17
27
38
38
40
27
25
26
28
34
39
33
47
56
57
50
44
42
40
36
41
52
54
64
71
69
58
48
46
41
60
64
66
64
69
65
53
38
38
44
41
51
56
54
53
44
34
25
17
22
22
26
34
33
35
23
7
5
-5
3
7
18
15
13
12
11
2
-8
-8
-10
-8
6
15
1
-2
11
4
-6
-9
-5
-3
5
13
11
6
9
-1
-12
-12
-6
-4
3
6
11
11
4
-3
-12
-9
2
4
2
5
12
11
0
-5
-10
-9
-3
0
8
15
14
6
1
2
-5
-10
-3
1
12
19
16
17
1
-7
-11
-10
2
7
17
17
11
7
8
-4
-13
-6
-4
1
9
17
14
10
-2
-11
-12
-11
-4
0
8
10
16
5
-5
-11
-13
-21
-19
4
16
18
16
10
-1
-10
-8
-4
-7
2
9
9
14
6
-6
-11
-9
-8
-12
-4
7
14
14
7
-5
-8
-9
-11
-4
3
11
15
11
9
2
-4
-6
-10
-3
2
12
25
24
9
0
-1
0
7
7
13
24
24
22
20
12
9
2
1
7
15
15
11
14
7
-5
-13
-12
-12
-7
2
11
15
4
-2
-9
-13
-15
-4
-5
3
5
11
3
-5
-13
-10
-10
-7
-5
2
9
9
2
-3
-10
-12
-8
-18
-9
-3
4
2
1
-1
-15
-15
-21
-14
-6
-7
-1
-1
-10
-10
-8
0
14
29
50
78
93
124
148
169
175
171
162
157
147
128
102
82
41
9
-23
-31
-30
-19
-7
6
16
19
10
7
-4
-10
-3
-4
3
14
16
14
9
2
-8
-10
-5
1
2
7
15
20
17
9
-5
-11
-6
2
16
22
21
25
23
16
2
-3
2
13
14
15
12
21
23
15
1
3
5
8
19
23
27
17
24
16
14
16
12
12
22
30
35
31
33
24
24
19
19
30
38
42
49
44
37
31
35
31
26
34
54
59
65
64
54
48
41
42
51
54
68
68
70
71
62
50
46
44
55
56
63
73
80
72
65
58
45
39
44
52
56
61
49
48
46
32
28
24
25
26
37
38
31
28
20
16
11
6
9
11
10
25
22
17
15
9
2
1
0
0
11
21
15
6
5
3
-10
-2
4
6
11
14
16
15
4
-1
0
1
2
4
14
20
21
14
3
-6
-4
2
2
13
23
19
15
12
7
-3
-2
-2
1
10
21
18
20
10
4
0
8
5
8
17
15
20
20
8
4
3
0
1
10
24
24
17
13
11
2
-4
-4
-6
5
9
18
21
15
13
1
-7
-7
-1
6
13
19
14
15
14
4
-8
-9
-5
-1
10
22
21
16
16
-3
-8
-11
-8
1
11
12
14
15
8
-5
-6
2
-4
-5
9
11
10
6
4
-4
4
1
-2
-2
13
14
16
15
6
-1
-7
-8
-4
1
15
19
24
17
5
-3
3
-2
-1
6
18
22
22
18
14
3
-7
-1
4
15
28
30
29
21
14
8
5
10
18
19
24
30
25
14
8
3
-8
-4
-2
2
10
14
20
17
4
-5
-7
-11
-11
-4
10
15
11
7
2
-3
-10
-12
-6
1
9
11
2
4
-2
-8
-11
-10
-4
-1
19
19
11
5
-3
-5
-12
-15
-14
-4
8
17
6
-1
-12
-13
-16
-11
4
25
49
61
76
86
99
112
136
154
165
179
171
160
133
96
66
43
19
-2
-17
-10
-8
6
-5
-2
-7
1
0
3
8
15
22
21
19
15
6
-2
-10
2
7
14
14
26
25
16
8
2
4
7
6
18
26
25
22
21
13
5
4
4
8
20
33
33
21
18
3
14
8
13
17
25
36
30
28
23
15
10
13
14
22
36
41
43
31
25
27
26
22
29
33
50
48
42
42
34
31
28
28
38
40
51
60
67
58
49
44
50
45
45
53
66
77
80
71
58
52
53
57
58
64
74
80
72
70
63
55
50
55
56
63
68
71
68
56
46
42
33
27
32
48
49
50
46
27
23
15
14
16
18
33
27
32
32
27
16
10
4
4
12
20
24
25
18
14
4
-2
-4
9
16
15
18
25
18
16
8
5
-1
5
10
12
20
23
16
10
3
1
-1
0
10
16
15
26
27
18
9
7
3
4
13
25
23
21
21
17
4
0
6
3
6
19
25
29
28
15
9
6
5
7
12
23
27
25
22
16
8
6
5
3
12
26
26
26
29
22
5
-4
-4
3
12
20
22
28
18
9
9
3
3
0
12
27
34
24
20
13
7
2
-3
6
13
16
22
27
24
9
5
6
5
12
18
19
12
18
14
6
-5
1
0
2
11
23
28
22
16
12
8
12
7
7
22
31
30
25
24
18
4
12
10
23
34
28
34
30
30
23
11
11
13
20
28
30
24
26
22
2
-2
3
6
7
16
24
18
16
10
8
-4
-4
1
1
11
22
24
18
14
-4
-9
-7
-3
0
18
16
23
19
14
2
2
2
3
-2
14
25
18
11
10
-5
-4
-4
-7
0
11
17
8
5
1
-4
0
-2
13
35
58
78
99
114
129
149
164
164
168
166
152
140
112
89
57
20
-7
-18
-15
-5
2
12
23
21
11
7
8
5
4
10
26
26
28
23
11
-2
-3
5
11
18
30
34
27
21
13
5
20
10
14
23
29
35
30
25
16
5
13
11
22
28
31
33
34
30
24
23
7
7
16
26
35
34
31
31
23
16
21
28
31
37
40
52
50
38
34
26
22
22
32
46
52
54
57
54
48
42
38
44
47
58
67
63
60
62
53
49
46
54
62
71
76
79
77
72
64
62
57
56
60
73
80
83
84
73
64
61
61
57
56
64
72
64
57
59
49
35
30
35
31
39
45
44
37
27
15
18
12
17
19
26
32
32
32
19
14
13
7
15
15
16
23
23
16
13
8
4
1
7
16
21
20
27
19
18
8
2
-1
4
5
12
19
27
23
12
11
5
8
19
19
24
31
24
16
12
13
8
6
11
17
26
34
34
29
21
12
7
-3
8
17
25
25
28
28
18
10
13
4
22
24
29
37
32
23
23
9
3
10
11
22
27
28
26
24
18
13
10
5
9
21
25
27
31
21
16
11
6
5
9
16
31
40
29
17
14
8
7
6
11
30
30
30
29
20
9
0
1
3
7
23
15
33
24
18
10
4
-2
6
10
19
24
26
23
18
8
1
1
11
21
22
25
31
28
22
16
14
12
16
16
23
30
34
28
28
19
6
7
11
24
36
38
36
36
19
9
12
10
10
18
27
30
34
28
22
7
3
2
-1
8
20
23
21
17
14
6
5
-8
4
11
19
26
25
13
11
-4
-5
0
2
14
17
16
18
21
5
-2
-2
-1
-6
6
20
18
20
13
6
-8
-7
-9
-7
4
10
11
13
17
30
35
43
55
68
91
127
148
169
171
170
155
140
123
110
104
82
48
22
4
-12
-19
-17
-8
5
20
26
29
27
17
7
2
0
0
8
16
19
18
27
18
-3
3
7
5
10
17
24
21
22
18
12
4
5
8
17
27
26
34
23
22
18
8
7
14
19
34
29
33
30
24
17
7
16
21
22
34
37
38
37
23
22
16
15
17
24
42
41
41
39
32
32
28
27
33
43
53
55
50
44
44
39
37
35
42
56
67
70
69
62
58
55
49
54
57
62
75
86
82
74
69
65
59
55
61
70
82
81
78
65
58
51
48
46
47
55
57
57
59
57
40
31
29
23
26
31
36
37
41
35
23
13
14
12
11
21
30
32
32
15
8
5
-2
-2
10
20
18
24
22
21
6
-1
-2
1
6
13
18
24
30
17
3
1
5
6
10
15
20
21
25
20
9
4
5
6
12
22
28
27
29
18
12
-4
-6
0
17
17
22
26
25
21
14
6
-1
4
12
21
25
30
31
19
11
8
8
5
6
24
27
29
22
24
11
4
6
7
14
24
25
24
25
18
11
9
4
3
11
20
23
25
26
19
9
5
2
5
13
18
24
26
19
19
6
3
4
11
17
17
19
23
12
8
7
3
7
8
13
24
26
26
20
15
4
2
3
7
15
18
16
17
12
14
8
1
3
9
18
30
30
26
24
18
13
9
11
12
15
26
25
25
25
23
14
14
16
24
27
34
41
31
36
25
14
16
20
18
30
27
20
21
23
11
2
-1
6
8
18
22
24
20
12
13
12
5
7
12
14
19
27
26
14
6
-3
2
0
0
21
32
28
24
19
3
2
-5
1
-1
14
22
23
22
12
-2
-5
-9
-1
10
23
23
11
11
4
10
22
33
49
67
91
113
137
161
179
177
171
157
156
139
118
109
83
44
16
-4
-18
-8
0
2
13
23
31
29
26
20
15
8
14
19
25
30
34
27
19
10
8
12
20
22
28
28
35
30
24
24
11
9
12
26
35
36
30
31
23
15
23
17
29
31
30
33
33
37
27
20
19
16
25
30
42
43
39
32
28
25
23
22
31
35
51
53
49
42
35
30
37
36
32
44
55
57
56
56
48
45
44
47
51
60
68
65
71
74
65
56
57
65
62
71
84
90
88
79
63
57
62
63
73
82
87
90
84
80
67
53
61
57
59
67
67
75
66
52
43
41
37
34
38
57
47
44
38
30
27
18
19
21
25
33
32
33
27
24
17
13
7
15
16
27
30
29
28
21
12
8
9
11
18
22
25
22
23
19
10
9
7
12
17
25
26
21
26
21
8
7
8
12
21
27
33
36
31
24
13
10
11
14
22
29
32
28
24
26
17
10
13
16
24
34
37
31
29
23
16
15
14
20
21
31
35
32
30
18
12
17
10
17
27
28
32
33
28
19
10
11
17
17
27
25
34
30
24
15
13
6
17
18
27
30
31
36
25
17
13
10
7
10
19
27
30
25
20
14
17
7
11
18
26
35
32
28
26
6
5
7
8
18
25
28
33
27
27
14
8
6
12
14
25
37
35
26
27
14
10
15
18
20
26
32
34
35
22
11
8
7
15
20
35
42
44
40
33
22
15
17
22
33
38
41
39
30
24
11
10
11
14
22
29
22
22
21
19
8
6
10
11
13
21
33
31
26
15
3
1
-2
-1
15
18
25
27
16
6
2
7
9
9
12
27
27
25
15
13
-1
-4
1
6
11
14
25
18
7
5
-5
-4
0
12
31
52
65
82
94
97
108
145
171
181
190
185
174
152
126
92
57
27
10
-4
0
6
16
15
18
15
2
6
15
19
26
29
30
30
24
17
11
3
12
10
23
28
28
31
27
12
15
8
9
18
29
29
34
29
26
18
14
11
19
18
32
35
37
29
30
23
18
14
19
23
31
32
34
32
32
26
20
23
24
25
44
47
41
42
36
26
21
29
29
40
49
55
55
51
48
33
34
39
46
54
60
63
67
67
67
56
49
48
57
61
67
76
78
72
71
59
48
57
65
70
84
89
85
82
74
61
55
53
59
69
75
73
68
67
58
50
38
37
35
43
52
48
50
41
33
24
25
22
25
27
32
37
44
33
13
6
7
8
12
22
19
22
26
21
10
3
-1
2
12
26
25
20
22
13
7
5
-4
-5
12
15
18
21
20
20
5
6
7
6
17
20
24
23
27
20
9
0
-2
10
12
22
26
30
26
16
8
5
0
-1
11
18
18
30
30
21
4
-6
-1
5
11
23
29
31
23
22
15
4
-3
15
18
24
29
21
21
19
10
2
3
1
14
23
25
21
15
15
5
2
0
4
12
24
18
22
20
11
7
1
-1
-1
17
25
31
31
23
10
4
5
1
4
11
21
26
27
17
9
2
-1
7
9
19
27
30
24
18
16
9
1
-3
5
17
26
27
32
25
26
15
9
13
18
32
30
32
36
30
19
14
12
7
13
26
27
24
22
15
2
-1
-6
-2
4
13
17
16
21
22
12
-3
-3
-4
2
12
18
21
17
16
1
-4
-3
5
3
11
18
18
15
16
-1
-9
-13
-7
1
10
12
19
18
11
-2
-6
-8
-6
-3
6
6
12
12
9
14
24
35
46
76
101
126
159
170
165
159
145
130
109
95
83
77
43
16
-8
-20
-18
-27
-16
-4
12
20
24
23
12
4
8
2
6
13
17
32
32
15
6
4
2
7
5
15
20
27
25
17
16
11
3
13
10
24
29
31
32
28
16
9
12
8
10
17
30
36
37
30
19
17
12
11
13
28
36
37
36
32
25
21
14
17
27
35
40
40
38
42
37
30
27
25
28
39
53
58
59
47
40
38
43
41
46
63
67
65
68
66
58
56
53
60
49
62
72
78
79
68
57
53
57
62
65
72
80
78
78
73
60
45
42
46
51
57
57
57
58
51
37
32
30
28
34
38
40
34
31
25
18
12
3
11
6
14
26
23
29
25
9
6
3
5
13
18
17
32
23
13
5
-2
-3
2
14
18
20
21
18
11
2
1
1
11
10
18
21
25
22
11
1
1
-1
3
11
16
20
25
20
13
9
5
1
4
14
24
26
20
20
17
16
11
6
8
17
33
36
28
19
9
-1
-2
-3
9
15
25
29
24
22
12
5
2
2
14
21
19
24
25
18
11
6
2
0
5
12
19
28
19
11
3
0
4
14
4
11
18
23
20
18
10
6
0
1
2
10
21
24
17
13
7
0
1
-6
5
15
22
23
16
10
3
-5
-8
-2
13
19
23
26
21
14
9
10
6
5
7
18
19
23
27
17
10
7
13
13
18
26
30
38
33
28
17
13
16
17
9
18
34
34
23
17
6
-3
-4
3
9
13
15
17
17
12
-2
-4
0
2
11
15
16
19
16
4
-12
-8
-8
-5
3
15
23
27
16
7
-4
-7
-2
2
3
16
17
17
13
2
-9
-14
-14
-11
6
16
12
11
7
1
-3
9
24
38
60
83
100
125
140
160
168
159
155
141
135
128
105
82
44
17
-14
-28
-20
-14
2
16
19
19
25
11
7
8
6
11
18
25
30
28
24
13
7
5
7
5
19
24
28
32
22
9
4
2
6
13
24
31
30
28
27
18
16
18
12
14
25
30
32
32
26
13
7
12
18
22
32
41
43
36
31
22
12
12
15
25
33
38
48
37
36
32
27
33
28
31
49
57
63
47
43
46
38
34
41
45
61
67
67
68
64
51
54
55
56
62
75
82
80
76
69
66
63
58
60
69
78
81
85
78
62
56
56
56
63
61
69
74
72
65
50
42
37
31
39
44
48
44
49
35
26
16
10
10
20
29
33
29
26
24
22
15
10
7
12
20
21
24
28
24
17
12
7
6
11
23
32
30
24
23
11
12
6
4
12
23
20
24
26
25
11
9
7
4
13
25
26
33
31
24
14
7
11
5
12
26
28
30
26
24
17
13
9
15
19
32
28
30
29
23
11
10
8
15
23
30
24
23
26
24
16
6
11
11
15
26
27
34
30
23
11
11
11
13
21
29
21
27
26
21
16
11
7
11
17
24
28
38
28
17
12
4
10
13
10
22
22
24
19
25
16
7
2
11
18
25
29
32
27
19
8
18
12
17
21
29
32
38
33
23
14
11
16
18
16
32
33
32
33
27
22
18
16
20
31
32
34
38
40
31
24
24
15
18
21
24
29
27
22
8
5
4
4
10
17
25
25
22
20
17
7
0
6
5
15
25
20
26
21
11
8
0
-2
7
14
20
10
21
16
5
-1
-2
-2
8
11
27
28
22
14
4
-10
-5
-1
2
5
13
13
15
20
22
34
43
63
80
107
139
169
184
184
171
158
146
130
109
103
81
51
18
-10
-16
-5
-7
-2
7
24
33
32
34
28
12
6
3
9
12
21
32
36
29
23
10
2
5
11
16
29
28
34
25
21
13
12
8
12
23
30
35
34
31
29
21
11
14
20
23
37
42
40
33
31
21
18
22
23
31
40
44
45
40
35
27
16
19
27
39
42
51
52
47
40
34
32
37
37
46
52
64
62
60
54
47
44
46
49
65
71
74
77
70
64
61
62
58
60
76
83
82
84
74
68
67
59
62
71
76
86
82
78
74
66
62
61
57
59
59
70
70
58
52
45
36
29
33
36
49
46
40
38
39
20
17
18
19
24
29
34
35
29
21
20
12
6
14
16
23
27
28
25
22
15
5
1
6
17
26
27
25
26
20
12
7
3
7
7
23
36
33
28
21
10
1
5
19
20
24
29
30
27
21
13
9
11
9
20
28
34
36
29
16
11
6
7
12
23
30
30
31
27
22
6
4
9
10
20
34
33
25
26
17
9
9
8
10
21
26
29
31
26
25
10
3
1
3
19
29
32
30
26
14
6
7
12
11
10
17
27
28
20
11
11
4
6
7
18
24
23
24
22
11
1
2
5
10
16
19
25
33
22
11
14
8
9
8
20
27
31
29
18
13
16
9
15
18
15
21
30
31
30
24
10
9
18
23
29
37
35
30
28
22
12
19
21
13
25
33
32
24
17
8
6
-2
1
6
20
28
26
21
14
8
3
-3
6
11
23
28
27
18
11
-2
-2
-2
3
7
19
22
24
20
16
2
-2
1
3
10
20
22
18
13
12
-1
0
-7
-1
2
9
14
12
7
14
22
26
30
46
72
94
122
142
163
178
163
164
159
143
122
109
89
61
27
0
-22
-21
-12
-6
4
16
23
29
31
17
4
2
2
2
16
21
24
23
24
22
9
6
5
9
17
23
27
24
15
6
4
9
5
9
23
33
34
31
28
18
12
9
10
15
21
23
26
27
27
23
18
9
11
19
27
36
38
35
27
24
18
13
20
26
29
40
41
39
35
23
22
27
27
39
47
51
53
51
47
35
32
34
34
39
50
66
67
66
61
51
45
45
56
62
68
70
74
71
60
55
51
56
61
55
73
75
73
71
66
54
47
49
52
52
58
50
53
45
35
27
25
15
21
26
38
41
39
29
22
18
14
8
10
17
20
16
14
21
14
6
-4
-5
2
7
12
16
22
13
4
-9
-4
3
11
11
7
13
19
20
7
-7
-6
-9
-2
11
15
26
24
16
9
-3
-3
0
2
10
15
15
11
14
9
7
2
-2
3
8
11
17
19
19
9
0
-3
2
17
16
14
26
24
11
-2
-2
-1
3
9
16
24
24
18
14
5
2
-4
-1
2
18
18
14
13
10
8
-2
-5
5
6
7
21
24
24
13
-3
-4
-9
1
9
24
20
16
11
12
4
-2
-5
-4
3
17
21
20
11
11
-4
-1
3
1
9
20
21
24
22
15
3
-3
-2
2
11
21
33
31
26
19
11
7
7
10
13
28
42
35
18
12
10
4
4
2
5
17
15
11
9
1
1
-6
-7
0
1
10
17
21
10
-1
-6
-10
-7
-5
3
4
10
8
8
2
-7
-8
-2
3
-1
10
14
14
8
1
-9
-9
-6
-4
-1
9
14
9
10
-3
-10
-13
-14
-15
-2
9
15
28
36
38
49
64
89
112
147
162
169
172
155
135
106
83
63
37
12
-1
0
-3
-8
-16
-27
-20
-8
6
21
22
18
22
16
2
-4
0
5
3
14
23
23
16
11
2
-1
-1
0
9
22
19
22
27
16
9
5
1
4
14
27
26
30
24
20
15
4
1
8
20
34
32
32
35
22
12
10
9
11
20
25
32
33
31
33
25
13
12
21
28
37
37
37
37
30
25
30
23
33
39
51
56
62
57
47
42
36
41
47
46
59
69
67
61
58
49
52
50
56
65
76
78
71
65
63
50
50
51
57
63
69
66
65
56
54
44
37
37
33
40
51
51
47
42
31
22
22
14
16
24
25
26
27
25
13
9
6
7
-2
11
25
21
17
11
5
-1
-6
-5
6
14
17
20
20
13
-3
-8
-10
-9
3
3
15
22
15
14
1
-3
-2
-1
7
22
16
18
14
10
2
-7
-4
-4
1
14
30
20
19
16
0
-1
-4
1
4
13
20
21
16
15
2
-1
-2
3
9
17
20
23
16
14
4
-1
-6
1
5
20
20
26
8
2
1
-4
-3
-1
6
20
18
17
12
2
-4
-4
-11
2
9
16
13
14
17
6
-1
-6
-7
-5
0
10
15
18
11
5
-1
-4
-11
-5
6
15
18
15
5
-2
-8
-12
-4
2
8
16
19
17
11
7
-6
-2
-2
5
11
20
18
20
15
12
3
1
12
11
18
23
22
20
19
11
15
4
3
9
18
24
25
18
14
3
-6
-17
-10
-10
-2
3
13
15
2
-1
-8
-9
-11
-10
-1
1
15
18
7
-3
-15
-17
-12
-10
3
3
6
9
1
-7
-9
-11
-8
-3
3
5
6
9
-2
-12
-18
-24
-24
-18
-7
10
2
0
5
7
13
25
36
59
78
104
130
152
168
154
150
135
127
112
95
76
49
12
-4
-24
-26
-27
-17
-16
-2
8
16
14
7
5
0
-7
-4
-4
7
10
14
11
9
-5
-2
-17
-1
10
12
24
20
12
5
3
3
0
2
8
17
10
10
12
9
1
-1
-9
-1
18
21
26
22
15
17
7
4
-3
-2
13
24
32
27
28
19
10
6
6
8
22
29
38
35
29
21
13
10
18
16
34
42
40
41
38
37
31
26
25
27
48
59
63
62
54
43
38
40
37
49
64
63
68
64
61
53
43
45
44
50
60
66
70
64
56
51
34
32
35
39
48
50
43
43
43
34
21
13
13
11
24
27
28
23
18
10
3
0
4
6
9
14
20
21
7
-1
-4
-16
-10
-3
10
6
12
7
6
-8
-11
-13
-12
-6
8
16
9
1
6
0
-12
-19
-10
-1
7
8
9
8
-4
-8
-4
-6
-3
4
11
10
17
2
-6
-8
-9
-12
-6
-1
8
17
19
8
4
-6
-13
-14
-9
-3
15
14
10
6
-1
-11
-11
-5
-4
-2
10
18
10
11
4
-10
-10
-9
-3
4
1
6
16
9
-8
-13
-14
-11
-9
1
4
7
8
3
-7
-7
-11
-9
-8
1
6
10
12
-3
-8
-14
-19
-17
1
8
11
7
5
-3
-5
-10
-21
-21
-12
-4
4
15
9
3
-5
-9
-13
-6
-2
1
10
11
18
5
-8
-13
-14
-3
-4
12
22
16
18
13
-2
-1
-3
1
6
20
22
21
11
-2
-3
-12
-17
-16
-13
5
4
5
1
-3
-12
-14
-15
-12
-9
3
3
1
1
-8
-18
-17
-14
-15
-14
-6
1
-1
-5
-7
-19
-23
-21
-12
-8
3
-1
-5
-5
-19
-24
-29
-24
-20
-15
-10
-6
-5
-7
-14
-27
-34
-36
-20
-5
10
29
42
53
61
67
87
108
139
151
160
154
147
119
94
68
37
9
-7
-16
-23
-16
-12
-10
-20
-26
-17
-12
-8
-2
7
8
-1
0
-10
-17
-15
-22
-11
3
5
14
6
2
-7
-15
-13
-11
-9
-2
8
2
6
11
-10
-12
-15
-16
-8
4
8
10
19
11
1
-4
-2
-8
0
2
17
14
12
7
0
-3
-5
-2
4
10
14
21
21
17
8
-1
-1
7
3
20
34
28
24
24
15
10
10
12
19
33
39
46
38
37
26
24
25
27
39
49
51
52
47
46
40
33
33
34
44
53
59
62
53
49
35
32
26
41
40
45
46
45
43
42
24
21
16
19
22
25
30
33
23
14
2
-5
-6
-3
10
15
18
10
-1
-6
-14
-24
-21
-10
-2
5
3
3
-5
-9
-17
-20
-23
-19
-10
-4
-5
0
-6
-10
-19
-26
-22
-20
-9
-4
6
3
1
-13
-27
-25
-21
-16
-4
5
2
0
-5
-11
-18
-26
-23
-18
-8
-3
1
3
-3
-14
-21
-20
-17
-9
2
0
-2
-2
-6
-17
-25
-31
-20
-8
-4
-1
-4
0
0
-16
-17
-18
-11
-10
-6
-1
2
4
-8
-18
-17
-19
-25
-15
-4
-5
-7
-1
-7
-19
-20
-17
-21
-13
-3
0
-1
-7
-10
-21
-25
-24
-28
-21
-5
1
4
5
-3
-18
-19
-29
-25
-15
0
1
-3
-2
-5
-23
-24
-26
-26
-12
-2
5
4
-6
-11
-18
-20
-24
-19
-13
3
7
8
1
-6
-16
-13
-16
-13
3
7
11
10
7
-2
-8
-16
-18
-20
-11
0
13
13
-8
-16
-20
-23
-27
-19
-12
-4
1
-3
-7
-16
-26
-28
-25
-23
-15
1
-2
-6
-20
-24
-30
-28
-26
-24
-14
-7
-10
-10
-15
-30
-31
-31
-31
-22
-16
-11
-9
-11
-7
-22
-26
-29
-31
-26
-16
-17
-17
-11
-14
-19
-8
7
17
36
58
81
107
133
148
150
138
129
116
98
88
73
53
17
-10
-41
-51
-41
-32
-27
-15
-3
-2
-1
-6
-20
-21
-18
-20
-13
-1
1
0
-2
-12
-24
-19
-19
-13
-14
1
4
3
2
-10
-19
-20
-20
-20
-14
1
8
2
1
-4
-14
-20
-20
-14
-12
3
13
9
10
-3
-6
-11
-12
-7
-2
9
11
11
15
9
-4
-17
-10
-9
0
11
15
16
16
6
-6
-7
-1
6
14
26
30
31
28
21
15
9
12
17
31
36
37
40
41
33
26
21
25
34
40
51
57
60
48
40
31
25
30
33
40
50
53
45
42
34
21
21
22
21
30
32
37
43
28
12
2
0
0
4
19
16
10
9
-1
-10
-21
-20
-16
-6
10
7
7
-1
-2
-12
-20
-26
-29
-15
-3
4
-3
-4
-6
-18
-28
-28
-24
-16
-9
-5
-3
-5
-5
-17
-23
-23
-22
-19
-9
-5
-7
-6
-9
-20
-25
-28
-26
-12
-11
8
4
-5
-10
-24
-30
-26
-18
-13
-1
1
4
-3
-9
-19
-20
-24
-19
-11
-1
-2
0
-4
-9
-21
-25
-21
-18
-6
-3
-1
0
-9
-11
-19
-25
-23
-18
-18
-17
-9
-1
-4
-11
-17
-31
-38
-26
-18
-8
0
-1
-2
-14
-24
-26
-34
-26
-6
-5
-9
-3
-9
-17
-31
-27
-25
-20
-13
-12
-8
-2
-6
-10
-15
-18
-19
-16
-9
-2
-3
6
-6
-11
-19
-25
-28
-18
-5
-5
6
15
4
-8
-13
-14
-12
-5
3
1
-1
2
6
-3
-9
-11
-14
-14
-12
-17
-5
-6
-5
-19
-26
-27
-24
-16
-12
-7
-6
-9
-11
-20
-27
-31
-25
-26
-11
-12
-21
-10
-20
-15
-19
-28
-30
-29
-10
-11
-10
-15
-21
-37
-32
-31
-30
-30
-15
-9
-15
-15
-18
-31
-37
-43
-42
-39
-21
-11
-1
14
17
20
34
53
81
110
129
143
150
132
111
80
60
45
22
0
0
-22
-34
-28
-39
-46
-36
-36
-25
-17
-4
-4
-4
-7
-10
-24
-27
-29
-16
-5
-7
-3
2
-9
-17
-25
-23
-19
-5
-6
1
4
7
1
-5
-13
-22
-23
-8
3
5
10
11
-2
-5
-7
-17
-19
-11
-1
8
10
7
1
-4
-11
-8
-14
-4
7
6
9
16
20
2
-2
0
-8
0
10
19
21
22
22
15
15
19
12
8
23
27
34
36
26
22
18
15
18
25
30
42
43
53
44
32
28
26
27
36
41
51
50
51
45
36
31
27
27
31
46
53
49
42
34
24
19
11
11
17
28
31
27
15
8
2
1
-2
-4
-7
13
14
11
7
-4
-13
-22
-21
-16
-19
-5
4
2
4
-4
-24
-20
-29
-26
-14
2
3
5
-4
-7
-17
-20
-23
-19
-12
-1
0
1
-5
-11
-20
-22
-18
-13
-4
-4
1
2
-3
-7
-16
-15
-16
-12
-4
-1
4
-2
-6
-13
-20
-24
-24
-13
5
6
5
2
-1
-8
-16
-23
-25
-14
-7
-4
4
3
-7
-2
-12
-14
-15
-9
-7
-8
4
7
5
-13
-19
-20
-12
-2
-1
8
4
0
-8
-16
-24
-21
-20
-14
0
5
9
-3
-10
-19
-26
-24
-10
-5
-3
-4
-1
-4
-9
-19
-25
-14
-12
-9
0
2
-2
0
-6
-17
-24
-25
-23
-17
-3
4
13
5
0
-18
-21
-21
-21
-14
1
7
9
-1
5
-10
-16
-23
-21
-17
-6
2
9
10
1
-6
-15
-13
-7
-4
4
13
15
11
1
-8
-12
-8
-4
3
12
2
7
6
-1
-20
-21
-17
-14
-13
-4
4
-1
-7
-15
-17
-24
-14
-16
-8
-2
1
-2
-7
-15
-22
-30
-27
-20
-9
-3
0
-8
-11
-23
-26
-26
-24
-19
-13
-4
-2
0
-9
-17
-21
-21
-24
-22
-15
-15
-11
-14
-15
-15
-10
-2
4
17
40
59
73
93
108
125
121
110
94
93
87
79
58
39
7
-18
-38
-48
-36
-26
-18
-10
0
1
0
-7
-25
-16
-19
-12
1
7
13
5
-4
-10
-19
-16
-17
-7
6
11
9
2
1
-7
-11
-16
-14
-8
4
10
4
15
7
-6
-16
-14
-9
-6
9
19
10
4
3
-8
-12
-8
1
1
10
17
21
7
7
-1
-8
-3
0
9
10
19
19
16
15
8
3
7
4
10
23
30
28
22
28
14
12
16
22
28
29
35
49
42
36
29
24
24
31
41
52
48
44
50
42
34
35
33
36
43
47
51
54
42
36
36
26
26
32
34
41
44
40
30
25
17
4
3
14
22
17
15
18
16
6
-3
-7
-10
-2
4
5
11
10
-6
-13
-10
-16
-12
-12
-1
2
5
2
-1
-8
-11
-22
-16
-14
-7
5
5
6
-7
-13
-20
-25
-17
-7
1
10
14
5
-1
-10
-17
-16
-14
-9
-1
3
4
4
5
-7
-17
-14
-17
-8
4
8
6
3
3
-9
-25
-21
-17
-1
2
6
11
-1
-5
-9
-3
-11
-13
-8
7
12
7
3
-12
-17
-13
-13
-10
-6
5
11
7
2
-7
-16
-20
-15
-11
-6
6
6
10
4
-9
-19
-22
-26
-15
-2
14
11
11
6
-3
-13
-14
-11
-16
-11
2
0
4
4
-7
-17
-20
-16
-8
-4
5
3
7
4
-2
-12
-19
-14
-12
-4
10
4
7
0
-3
-10
-12
-8
-5
0
5
6
10
6
0
-6
-7
-8
0
9
12
16
12
9
6
-5
-2
-10
-6
7
13
18
12
1
-9
-20
-23
-15
-11
10
-2
1
10
-1
-11
-15
-15
-17
-17
-4
6
10
6
-3
-15
-20
-26
-19
-10
-2
5
9
1
-9
-20
-23
-25
-23
-14
6
8
5
2
-4
-13
-19
-20
-15
-15
-14
-13
-11
-10
-13
-10
1
14
23
41
64
87
107
126
142
139
131
112
103
95
92
68
42
14
-14
-40
-39
-32
-24
-21
-8
-3
8
9
-1
-16
-17
-8
-5
6
11
10
6
8
2
-13
-17
-14
-7
1
7
5
13
10
5
-8
-14
-13
-1
4
8
17
18
8
1
-5
-7
-7
-3
7
11
16
17
16
3
-10
-3
-3
0
18
25
17
21
21
17
3
0
0
6
17
26
32
26
22
18
11
11
4
20
28
39
37
36
34
31
20
20
22
32
40
43
48
49
47
40
36
34
34
42
53
57
62
58
52
41
50
44
40
44
58
59
60
57
49
39
42
32
40
41
43
45
40
40
30
12
6
10
17
20
29
31
25
21
17
7
-2
-4
-5
2
11
14
9
4
-1
-13
-16
-15
-6
-5
13
14
13
8
1
-7
-17
-20
-22
-6
4
2
3
0
-2
-10
-12
-16
-7
-3
-1
2
16
8
-3
-12
-14
-4
-10
-4
6
15
15
4
-4
-13
-18
-19
-6
-1
7
14
15
14
-14
-12
-8
-15
-4
4
9
12
5
0
-8
-17
-19
-14
-8
-5
9
14
11
7
-4
-11
-14
-18
-9
-2
9
7
9
7
-5
-13
-12
-7
-8
-7
8
8
5
2
-5
-8
-19
-15
-5
-3
8
5
5
3
-6
-19
-17
-15
-6
2
9
3
0
-3
-12
-16
-14
-5
0
1
1
-1
-1
-4
-13
-19
-20
-19
-13
0
-1
2
5
-1
-14
-21
-18
-15
-11
3
13
16
7
-3
-20
-11
-15
-12
-6
2
10
11
12
1
-10
-8
-12
-10
3
9
11
14
11
5
-2
-4
0
3
11
17
12
7
5
-7
-15
-26
-24
-23
-8
0
4
0
-4
-15
-22
-19
-18
-24
-18
-5
1
2
-7
-17
-26
-29
-25
-15
-10
-3
0
-6
-13
-11
-23
-29
-24
-27
-14
-4
5
2
0
-14
-27
-28
-24
-34
-26
-12
-9
-10
-12
-16
-30
-21
-9
8
28
46
73
89
104
127
141
137
136
134
123
101
86
60
39
2
-27
-48
-50
-43
-26
-15
-4
-11
-11
-11
-19
-13
-7
0
-10
-2
4
-1
-2
-20
-22
-20
-13
-13
-4
5
4
0
-4
-7
-15
-14
-9
-15
3
6
5
0
-1
-6
-13
-16
-16
-3
9
13
12
22
13
2
-4
-12
-13
-11
4
19
27
23
18
2
-12
-5
-8
4
19
26
20
15
20
15
-2
4
9
12
24
31
33
32
29
15
10
12
21
22
32
34
50
47
38
25
24
30
38
43
51
49
47
49
48
40
33
34
42
51
54
60
55
47
40
30
24
28
39
39
45
49
46
37
28
16
8
3
13
13
19
24
23
15
14
-1
-5
-5
-2
-1
4
10
10
2
1
-13
-15
-13
-12
-4
11
16
4
-3
-14
-15
-21
-14
-11
6
5
-7
-3
-6
-20
-17
-20
-17
-5
-3
-1
4
1
1
-12
-11
-15
-11
-10
-9
3
7
11
6
-11
-15
-12
-11
-7
3
5
5
9
0
-7
-11
-18
-15
-13
0
17
12
10
3
-6
-22
-23
-13
-8
4
7
-1
2
-5
-14
-18
-15
-10
-9
1
12
9
8
5
-8
-13
-15
-14
-10
-1
1
7
1
1
-11
-16
-19
-17
-5
0
3
6
2
-7
-15
-20
-19
-14
-6
2
3
9
0
-14
-17
-18
-19
-19
-6
4
7
0
3
-6
-12
-13
-21
-14
0
11
9
7
4
-4
-1
-8
-9
-17
-2
11
8
13
15
10
-4
-7
3
4
14
16
19
15
3
-2
-9
-15
-18
-9
1
2
6
5
-1
-14
-13
-19
-21
-14
-4
1
2
2
-7
-15
-23
-21
-13
-13
1
-5
0
-3
-8
-17
-23
-24
-22
-21
-7
-7
-4
0
-7
-17
-28
-24
-17
-6
-2
-3
0
-9
-13
-21
-25
-24
-27
-25
-11
0
9
14
21
24
33
50
69
101
130
136
136
114
102
82
62
46
23
-1
-10
-13
-17
-24
-23
-28
-29
-28
-14
-3
-2
8
11
3
-3
-6
-13
-14
-16
-8
5
8
10
12
1
-3
-12
-12
-11
-9
5
2
5
5
0
-14
-14
-13
-5
13
23
21
14
9
0
-9
-14
-11
-6
-2
9
14
21
25
13
-3
0
-1
-1
2
17
24
22
15
4
4
6
2
-1
16
22
29
26
20
14
9
6
12
15
20
34
40
39
31
23
18
19
26
35
39
49
59
54
49
43
33
28
31
36
46
56
62
53
44
32
35
33
26
41
52
53
54
50
44
29
22
20
17
15
29
35
28
22
16
12
3
2
0
-2
8
10
21
19
12
-2
-9
-13
-12
-9
0
9
10
2
-3
-8
-17
-17
-11
-3
-2
-3
-4
0
0
-13
-12
-15
-15
-11
-2
7
9
5
-4
-13
-17
-17
-13
-5
10
8
6
8
-4
-12
-15
-14
-9
-5
5
10
7
5
-5
-16
-14
-12
-5
1
13
9
6
4
-1
-17
-24
-11
-3
1
9
11
12
1
-4
-11
-4
-12
-11
-5
3
9
11
6
-4
-13
-17
-13
-5
-5
6
5
8
5
-3
-17
-21
-19
-4
5
0
6
3
1
-8
-17
-21
-14
-4
-3
1
5
1
1
-8
-11
-12
-21
-10
-3
8
9
3
5
-4
-10
-14
-16
-11
-8
3
-5
2
5
-7
-10
-7
-11
-12
-1
5
13
6
-3
-15
-13
-15
-14
-3
3
13
12
11
12
9
-1
-6
-7
-3
10
15
14
13
8
-2
-9
-11
-7
-6
6
7
7
2
-3
-17
-22
-23
-15
-6
8
5
4
-4
-12
-18
-15
-20
-20
-11
-5
2
3
3
-5
-19
-28
-23
-16
-11
-8
0
1
2
-10
-14
-19
-24
-15
-5
3
4
-1
-8
-12
-24
-31
-25
-24
-17
-3
-1
7
15
10
20
23
37
60
93
117
138
141
129
110
91
78
62
45
32
19
3
-10
-26
-30
-29
-33
-25
-10
-4
8
14
9
1
-12
-7
-14
-16
-2
-1
7
14
14
3
-12
-9
-4
-8
-14
-4
11
12
5
5
2
-5
-10
-7
2
11
12
14
16
9
-1
1
-2
-3
1
11
17
20
13
15
3
-2
-1
4
5
20
18
30
25
15
3
12
6
4
7
21
28
31
20
18
11
8
10
16
22
36
36
37
38
36
28
25
21
26
35
44
51
51
48
46
39
37
34
37
45
53
51
54
55
49
40
37
39
33
47
58
57
47
49
43
35
29
27
22
31
37
41
42
28
19
7
1
5
14
22
24
23
23
12
4
-2
-6
-4
-3
3
7
5
4
4
-4
-10
-12
-18
-16
-1
5
8
5
0
-6
-18
-16
-10
-8
-2
2
2
-2
3
1
-1
-5
-16
-12
-5
4
10
6
5
-8
-11
-10
-10
-4
7
7
8
10
4
-11
-17
-10
-10
-5
-2
6
9
8
4
-5
-8
-9
-9
-8
1
10
14
6
-2
-3
-11
-14
-18
-4
10
10
9
5
0
-5
-9
-17
-16
-6
0
6
12
7
11
-2
-16
-15
-10
-8
2
9
5
8
3
-7
-12
-15
-13
-7
1
3
7
6
3
-4
-15
-14
-15
-4
5
4
4
13
4
-9
-18
-26
-10
5
2
4
1
5
4
-6
-13
-13
-14
-7
14
12
14
12
5
-7
-7
-9
-7
-3
7
17
16
13
4
-1
-5
-5
4
9
15
21
20
17
1
-6
-8
-5
-1
2
13
14
13
4
-12
-15
-17
-11
-8
-4
3
12
8
-4
-5
-14
-17
-15
-10
-4
3
5
4
-1
-10
-11
-18
-13
-11
-3
-5
1
4
3
-8
-16
-16
-13
-10
-3
-2
7
8
-1
-12
-15
-21
-20
-24
-11
-6
3
7
10
12
23
30
46
64
91
118
144
151
147
129
105
94
79
64
48
27
12
-9
-17
-23
-32
-26
-14
-10
5
11
14
12
4
-9
-9
-13
-11
-1
14
10
4
14
12
1
1
-11
-7
4
13
20
17
18
5
-13
-25
-8
3
8
21
20
16
15
14
2
-1
-1
0
9
17
13
23
16
15
11
2
-10
3
17
25
33
30
24
13
8
3
3
10
20
31
34
32
31
21
12
13
14
15
25
32
45
46
46
32
16
19
26
36
45
51
53
47
50
42
42
42
42
42
48
51
60
61
62
50
44
45
40
52
61
64
63
61
49
38
31
35
35
33
44
42
40
38
35
23
8
12
10
4
16
25
23
19
12
7
1
2
1
6
9
18
15
6
2
-5
-5
-17
-10
3
13
8
9
2
0
-5
-15
-16
-9
-2
6
3
2
14
12
-7
-9
-10
-10
-3
0
5
9
16
8
-6
-7
-14
-3
4
8
11
14
13
11
-4
-9
-12
-7
1
8
9
12
8
7
0
-4
-7
-4
5
8
18
17
8
4
-10
-12
-14
-14
-7
14
14
11
8
7
-2
-11
-8
-3
4
15
6
10
8
-1
-8
-9
-13
-10
4
10
12
11
4
-4
-13
-13
-6
-8
-4
5
7
14
7
-2
-14
-11
-9
-3
2
7
8
7
3
-9
-13
-15
-16
-11
-3
6
12
12
3
-6
-12
-13
-10
-4
-2
8
17
11
4
0
-11
-13
0
4
4
11
13
14
10
4
1
-2
4
10
18
24
22
16
11
8
1
-4
-2
3
18
8
16
13
10
1
-11
-14
-12
-5
-5
0
22
8
2
-5
-8
-14
-16
-8
-1
2
6
2
-4
-13
-15
-13
-8
-4
2
6
8
6
-4
-17
-17
-14
-12
3
4
10
12
1
0
-12
-19
-19
-19
-20
-5
-5
1
-3
-3
-1
0
5
36
62
84
108
126
148
155
142
139
125
115
100
85
69
41
8
-23
-37
-37
-30
-17
-9
-1
14
19
11
4
1
-6
-8
-4
0
6
4
3
-3
-10
-9
-5
5
3
10
16
21
16
9
-3
-3
-4
-9
1
19
11
18
19
16
7
-3
-5
-2
0
11
15
19
18
15
9
-2
-6
0
4
17
27
27
25
16
12
12
7
13
13
19
25
33
37
26
18
22
20
19
19
30
32
38
38
42
30
23
23
32
35
47
53
56
58
49
39
33
36
39
47
61
65
63
60
55
47
50
55
52
56
63
67
64
66
62
47
37
32
38
43
48
52
49
39
35
29
20
17
19
18
22
29
30
24
14
9
1
-4
0
0
18
21
13
12
14
-4
-8
-10
-3
-2
5
11
12
9
2
-2
-7
-6
-7
8
13
15
15
14
3
-12
-17
-19
-7
5
7
14
22
13
2
-7
-6
-8
-4
10
12
14
16
9
4
-10
-7
-8
-2
6
14
17
12
10
6
0
-7
-10
4
11
15
17
10
8
-1
-2
-6
-5
4
9
17
24
17
7
-4
-4
-2
-8
-6
6
16
17
10
9
2
-4
-10
-4
-1
8
14
20
6
4
-5
-11
-17
-9
-10
8
20
20
10
14
-1
-6
-9
-4
1
9
14
17
14
5
-13
-15
-10
-9
1
13
20
17
5
3
-1
-9
-11
-4
3
7
14
16
15
7
-4
-4
-7
-3
11
18
18
18
17
11
7
4
0
5
13
22
26
30
25
18
7
4
8
6
7
24
23
16
8
1
-4
-10
-7
-3
4
11
11
11
1
-3
-10
-10
-20
-12
-1
11
10
1
3
-5
-13
-20
-16
-9
-1
5
7
4
-4
-9
-16
-14
-12
-13
-10
5
13
6
-1
-8
-18
-26
-26
-16
-6
-9
-6
-3
2
5
13
24
36
50
74
100
122
151
168
166
161
147
135
115
101
83
52
17
-11
-33
-34
-33
-29
-22
-5
2
15
10
9
-2
-5
-9
-13
-6
4
12
13
17
5
-7
-6
-14
-7
1
9
7
13
10
4
-5
-5
-11
-1
0
8
15
15
8
12
3
-2
-4
-1
10
20
23
23
19
10
2
2
0
4
9
19
32
28
23
6
4
9
4
8
23
33
32
27
27
21
13
10
10
20
28
37
39
36
37
34
28
28
25
25
35
54
59
53
51
39
42
36
38
43
48
61
62
60
58
53
40
33
40
43
57
59
65
67
55
41
33
31
30
34
42
48
47
42
36
24
15
12
12
14
23
22
25
24
20
11
-6
-12
-9
-4
4
6
11
7
8
3
-7
-15
-16
-7
3
3
4
0
-4
1
-14
-21
-13
-12
8
7
7
4
0
-9
-11
-16
-16
-1
11
5
0
2
-1
-6
-7
-14
-9
-2
6
10
7
4
0
-2
-11
-13
-5
1
9
10
10
1
2
-11
-12
-11
-13
-8
0
3
9
2
7
-4
-12
-14
-9
-3
5
3
5
4
-3
-15
-8
-10
-15
-11
3
3
2
0
1
-16
-21
-14
-12
-6
0
7
3
-3
-7
-19
-20
-19
-15
-1
8
4
3
-3
-4
-14
-15
-25
-23
-4
6
4
3
-6
-6
-17
-21
-18
-10
-2
3
6
5
1
-8
-20
-17
-15
-5
11
6
14
9
4
-6
-10
-13
-13
-7
4
4
7
12
8
-6
-5
-4
-7
2
7
17
15
16
11
0
-7
-10
-12
-10
-7
-12
-14
-15
-15
-21
-15
-5
-6
-4
-2
4
0
-4
-10
-16
-25
-22
-22
-11
-3
-2
1
-4
-11
-20
-26
-23
-21
-19
-9
-10
-5
-6
-5
-20
-24
-26
-24
-20
-15
1
2
-8
-13
-25
-34
-27
-26
-23
-9
-4
13
23
31
29
28
52
84
106
145
167
168
168
147
122
92
65
59
32
8
-8
-27
-29
-33
-34
-39
-31
-13
-8
0
13
8
1
-9
-14
-19
-15
-15
-10
-1
7
10
4
2
-17
-26
-23
-18
-9
4
10
12
3
-5
-12
-15
-14
-6
3
8
9
9
9
-2
-7
-14
-10
1
9
13
10
14
11
-1
-6
-5
-6
-1
14
18
17
17
16
5
4
3
4
9
20
28
26
26
20
17
15
12
11
12
25
35
30
40
44
39
28
30
29
35
40
42
53
54
49
46
37
36
33
31
47
54
57
64
59
47
41
37
40
47
54
52
56
48
40
28
24
21
24
32
39
42
36
28
5
-8
7
10
18
14
21
29
24
5
-7
4
-3
-15
-9
-8
-1
13
13
5
1
-4
-19
-29
-20
-6
-1
0
5
-1
-10
-16
-15
-20
-19
-26
-12
-2
10
7
-3
-16
-20
-31
-11
-9
-4
-2
-6
2
-20
-30
-19
-21
-15
-5
-1
1
-11
-14
-20
-24
-27
-20
-7
-4
-5
-2
-4
-1
-16
-22
-26
-20
-13
-9
-8
-2
-2
-11
-23
-27
-29
-29
-23
-12
-6
-5
-11
-9
-10
-20
-33
-36
-20
-16
