-51
-49
-50
-48
-53
-51
-46
-48
-48
-47
-49
-48
-46
-45
-48
-54
-47
-45
-48
-44
-44
-47
-46
-46
-48
-42
-38
-41
-44
-44
-43
-44
-42
-39
-40
-39
-35
-39
-38
-39
-37
-39
-39
-36
-37
-41
-35
-38
-37
-38
-36
-39
-39
-42
-39
-38
-38
-40
-43
-43
-41
-41
-41
-39
-40
-40
-41
-40
-40
-42
-43
-43
-44
-43
-45
-44
-44
-46
-45
-45
-44
-43
-43
-43
-47
-45
-42
-40
-40
-37
-42
-42
-44
-40
-44
-38
-37
-40
-46
-50
-47
-46
-46
-49
-51
-49
-48
-46
-55
-51
-42
-41
-47
-45
-48
-47
-44
-44
-46
-47
-45
-46
-45
-42
-41
-44
-41
-43
-43
-41
-42
-40
-36
-38
-37
-36
-36
-33
-29
-28
-30
-30
-30
-29
-28
-28
-24
-23
-26
-27
-28
-28
-32
-34
-33
-31
-27
-30
-36
-39
-47
-46
-48
-47
-48
-44
-42
-48
-45
-45
-48
-46
-46
-48
-50
-49
-51
-47
-42
-41
-41
-45
-47
-50
-48
-47
-44
-39
-42
-40
-39
-41
-39
-40
-35
-27
-16
-5
20
34
42
53
64
66
69
72
55
19
-22
-40
-63
-83
-95
-90
-87
-76
-71
-67
-65
-58
-49
-48
-48
-45
-45
-39
-45
-43
-40
-41
-41
-42
-45
-44
-45
-46
-44
-42
-41
-43
-44
-47
-47
-46
-46
-42
-46
-47
-46
-46
-44
-43
-42
-43
-42
-42
-39
-40
-41
-43
-48
-43
-42
-43
-37
-36
-41
-41
-37
-42
-40
-36
-40
-41
-39
-38
-39
-36
-37
-39
-39
-35
-36
-34
-33
-37
-34
-34
-37
-40
-35
-36
-36
-32
-31
-35
-32
-34
-31
-31
-31
-30
-29
-32
-29
-28
-22
-22
-23
-24
-23
-21
-21
-18
-15
-14
-13
-14
-12
-15
-13
-4
-5
-3
-6
-7
-5
-3
-4
-4
0
3
0
-3
-4
-1
2
0
2
1
2
2
1
-4
-1
-2
1
-1
-5
-6
-7
-10
-9
-12
-18
-14
-21
-23
-25
-26
-29
-31
-30
-32
-37
-40
-39
-40
-42
-43
-43
-48
-51
-51
-52
-50
-52
-54
-55
-50
-50
-54
-57
-54
-53
-55
-56
-53
-51
-51
-53
-52
-53
-58
-52
-54
-56
-54
-49
-53
-55
-56
-57
-49
-48
-49
-53
-53
-54
-51
-55
-57
-53
-53
-50
-52
-53
-52
-52
-54
-50
-56
-52
-53
-55
-51
-51
-48
-51
-52
-48
-45
-53
-56
-51
-49
-50
-55
-53
-51
-51
-48
-47
-50
-47
-48
-46
-44
-49
-49
-46
-48
-53
-50
-48
-50
-51
-49
-53
-55
-52
-51
-49
-50
-47
-51
-48
-50
-50
-55
-55
-53
-52
-51
-52
-50
-49
-56
-52
-55
-51
-50
-46
-48
-48
-47
-47
-47
-44
-48
-47
-47
-46
-47
-49
-50
-47
-46
-44
-46
-49
-50
-48
-50
-44
-44
-45
-48
-46
-48
-48
-48
-49
-44
-43
-43
-38
-37
-35
-32
-32
-32
-31
-29
-30
-35
-33
-28
-29
-26
-27
-26
-27
-25
-27
-30
-29
-33
-36
-37
-38
-37
-39
-45
-49
-48
-46
-50
-48
-49
-52
-51
-48
-47
-50
-48
-48
-49
-53
-56
-56
-55
-50
-49
-46
-50
-49
-49
-54
-48
-50
-50
-50
-54
-56
-52
-53
-46
-36
-30
-14
-7
7
26
41
51
63
71
82
86
68
38
5
-13
-30
-52
-69
-74
-70
-64
-59
-50
-46
-45
-45
-43
-45
-47
-47
-47
-47
-48
-56
-50
-53
-51
-47
-44
-49
-46
-49
-51
-49
-51
-47
-50
-48
-49
-50
-51
-50
-51
-48
-51
-49
-46
-49
-50
-51
-47
-46
-47
-50
-48
-48
-47
-46
-47
-46
-46
-47
-46
-46
-47
-45
-44
-42
-43
-41
-37
-38
-37
-37
-37
-36
-29
-25
-31
-34
-33
-34
-32
-27
-27
-31
-27
-29
-32
-30
-30
-29
-30
-30
-32
-25
-24
-25
-29
-25
-24
-23
-23
-21
-22
-20
-16
-16
-16
-13
-12
-14
-8
-6
-9
-7
-5
-3
-2
-3
-2
0
1
1
-2
1
2
7
8
6
3
7
7
11
6
7
8
3
5
3
1
3
1
2
-1
-3
-3
-5
-8
-7
-8
-11
-13
-16
-17
-17
-18
-23
-27
-26
-26
-26
-25
-28
-32
-33
-32
-33
-34
-35
-35
-35
-36
-37
-32
-35
-33
-35
-38
-39
-42
-38
-35
-38
-36
-38
-37
-38
-37
-37
-37
-41
-38
-33
-34
-33
-37
-34
-35
-33
-33
-34
-32
-31
-29
-33
-33
-32
-34
-32
-31
-31
-34
-31
-33
-31
-31
-31
-30
-26
-28
-30
-29
-28
-27
-27
-24
-24
-27
-26
-25
-27
-26
-26
-24
-24
-24
-28
-23
-22
-25
-28
-22
-22
-22
-25
-25
-21
-18
-24
-25
-23
-22
-21
-20
-21
-20
-22
-19
-20
-24
-24
-17
-21
-22
-18
-19
-18
-17
-21
-19
-19
-17
-16
-16
-16
-16
-18
-18
-20
-18
-16
-17
-17
-19
-20
-18
-19
-18
-21
-18
-17
-18
-18
-18
-18
-15
-16
-15
-15
-15
-13
-14
-13
-14
-14
-14
-11
-12
-9
-5
0
1
0
5
4
3
5
1
-1
2
4
5
6
4
3
6
3
6
1
-1
-3
-4
-9
-5
-13
-14
-15
-15
-15
-14
-15
-15
-12
-13
-13
-13
-13
-12
-16
-17
-16
-15
-16
-17
-16
-17
-13
-16
-14
-8
-11
-16
-14
-13
-11
-15
-16
-16
-16
-14
-6
-4
3
21
32
47
70
83
94
105
118
128
134
115
86
49
28
7
-10
-30
-37
-31
-21
-17
-10
-2
-1
-6
-4
-4
-2
-4
-3
-5
-8
-13
-4
-7
-4
-6
-4
-7
-7
-6
-5
-5
-6
-6
-4
0
-4
-6
-7
-4
-4
-3
-2
-3
-5
-3
-3
-3
0
0
-4
-2
-3
1
-1
-1
2
-1
-1
-4
-4
1
1
-4
-1
-1
2
0
3
3
0
3
1
3
6
7
8
6
6
7
9
14
8
7
12
13
12
13
13
11
9
12
14
14
11
13
16
20
22
22
18
14
23
21
20
20
20
26
25
26
26
26
30
31
31
33
34
41
40
40
40
36
40
41
42
44
44
46
44
44
46
45
46
45
47
49
45
45
43
42
39
41
39
37
34
35
33
30
27
25
24
23
25
21
21
19
17
13
13
10
10
10
6
4
4
8
7
7
6
2
3
1
1
1
3
4
4
2
4
3
2
4
-1
-1
2
1
0
3
3
1
0
2
1
0
1
2
1
1
-1
-2
-2
0
2
-2
1
1
1
5
1
-3
-2
-1
0
2
1
3
4
0
0
-2
-2
5
4
2
2
2
2
4
4
4
2
0
-1
-1
0
-1
1
4
4
-3
0
-2
2
-1
-3
-3
-2
0
-1
0
0
-2
-1
-2
-2
0
-2
-1
1
0
2
1
1
0
-1
0
1
0
1
4
2
0
-3
-2
2
2
-1
1
0
-2
1
1
-2
2
5
4
1
0
2
2
3
3
3
4
2
3
1
6
6
9
8
5
5
4
5
3
1
6
5
3
7
5
8
8
9
11
15
13
17
18
19
19
13
18
20
20
21
21
22
19
24
22
18
15
14
15
10
7
7
0
-1
-2
-4
-2
0
-3
-7
-2
-5
-5
0
-5
-4
-4
-2
-2
-4
-1
-8
-5
-6
-5
-7
-3
-5
-4
-5
-5
-6
-4
-7
-7
-5
-8
-8
-9
-6
-4
11
23
37
55
71
88
102
111
128
136
135
116
89
52
32
14
-10
-27
-31
-27
-23
-16
-7
-2
-3
-4
-3
1
1
2
2
-3
-1
-4
-3
-4
0
-2
-2
-2
-4
-3
-2
-3
-3
-5
-4
-3
-3
0
-2
0
-2
-1
1
0
-2
-3
3
1
-2
0
2
1
-2
0
1
5
6
4
6
3
2
0
8
6
2
7
4
7
3
5
3
6
10
10
6
10
9
7
9
8
9
8
9
11
11
14
16
13
13
15
13
16
17
17
14
19
18
20
21
21
24
25
25
21
23
26
28
26
31
30
27
28
34
33
35
38
37
36
40
42
42
42
46
48
45
45
48
47
45
46
48
46
47
48
50
50
46
43
40
43
41
40
41
35
37
37
38
36
25
24
23
20
21
20
18
16
16
13
8
9
9
5
7
5
2
5
5
4
0
0
-1
0
0
3
-4
-3
0
-1
0
0
-1
-3
-5
-2
1
-3
-3
-3
-5
-2
-4
-2
-2
-5
-3
-6
-5
-2
-2
-4
-6
-8
-3
-4
0
-1
-2
-3
-3
-2
-4
-3
-4
-2
0
1
-2
-2
0
2
-3
-1
-1
1
1
1
4
1
2
2
0
0
4
2
3
0
2
0
-1
2
2
5
4
3
1
-3
-3
-2
-3
2
2
3
1
3
4
1
1
-2
4
1
-1
4
2
0
2
2
5
2
2
-1
-1
0
3
-2
1
4
2
1
2
1
2
-1
-1
4
3
0
0
-1
3
1
1
2
5
3
4
4
5
9
2
1
-2
5
9
6
6
7
3
3
5
4
6
9
6
5
7
7
9
8
7
9
15
18
15
18
19
25
21
19
18
20
21
21
20
24
21
22
23
24
20
19
17
17
17
14
10
9
4
5
2
1
3
2
3
3
2
-1
1
1
1
0
0
0
4
4
2
0
2
0
2
1
2
2
0
1
4
0
0
-1
-6
-1
2
5
3
9
20
35
49
63
87
106
111
118
135
141
143
117
79
50
27
6
-8
-23
-27
-23
-13
-7
-6
-1
3
6
5
2
2
8
8
3
2
0
1
3
1
4
0
0
2
2
5
3
1
3
4
1
0
0
4
3
1
3
2
5
9
4
2
0
3
2
2
7
7
3
4
1
4
6
4
10
3
7
8
2
3
7
5
7
5
6
10
8
9
6
5
5
7
8
10
9
7
12
5
8
15
11
12
15
10
13
11
17
17
16
20
15
15
15
23
18
21
23
24
22
30
26
26
25
28
32
32
33
34
37
36
38
40
41
38
42
46
45
41
46
45
44
45
48
52
44
47
50
50
48
46
46
49
47
45
41
41
43
40
41
39
37
35
33
28
26
19
22
21
20
19
21
14
16
16
11
8
9
9
7
8
5
6
6
8
4
-2
-2
4
2
1
3
5
2
1
-2
0
-2
-1
0
3
2
-1
-4
-3
-1
-1
1
-3
0
1
2
4
1
-2
1
2
0
2
-1
1
2
6
3
2
1
3
3
-2
-2
0
2
3
6
4
2
2
2
3
6
5
3
1
3
4
5
0
7
6
3
4
4
6
4
5
5
4
3
4
5
0
-1
0
3
5
6
3
2
3
3
1
0
1
4
3
1
1
5
1
1
2
0
2
2
2
5
6
1
-1
-1
0
2
4
0
0
2
-1
1
1
6
3
2
2
2
4
2
1
-2
2
2
3
5
4
3
0
5
7
7
8
4
3
10
13
11
16
15
17
19
22
20
18
22
23
22
21
23
23
22
23
22
22
22
21
18
17
16
9
7
7
6
7
9
7
7
2
8
7
5
8
5
6
5
3
8
12
6
5
6
10
7
6
8
9
7
6
7
8
9
9
6
6
8
7
9
14
20
27
43
62
77
92
107
118
120
135
143
127
98
58
34
14
-1
-23
-30
-23
-22
-13
-7
1
3
5
9
11
10
9
7
13
9
7
10
11
11
11
9
11
9
5
8
10
8
10
10
11
7
10
11
8
8
11
13
9
10
10
9
9
10
6
10
11
14
12
13
15
12
8
11
11
11
12
13
14
12
10
11
10
13
15
16
15
17
21
15
13
12
14
16
16
17
17
17
19
18
19
21
20
20
22
23
22
26
24
24
26
26
27
27
29
28
29
33
33
31
37
37
33
37
37
41
44
44
48
49
49
47
50
51
54
52
54
56
59
57
60
60
61
58
59
60
65
60
61
60
60
60
59
56
56
54
54
52
52
50
47
47
44
38
36
37
33
32
33
28
29
26
24
22
11
8
6
7
7
8
9
9
12
10
8
10
9
10
10
11
10
10
11
11
9
9
11
10
12
10
13
13
12
11
11
11
16
11
13
13
13
13
15
16
13
12
14
15
15
12
15
12
14
15
14
14
12
14
11
19
15
14
14
13
14
13
14
12
12
15
16
13
11
14
13
13
14
14
13
13
12
11
12
10
9
12
11
10
13
13
11
10
15
13
9
7
11
12
11
12
9
8
9
10
9
9
7
11
9
11
10
10
9
12
7
9
11
9
8
9
12
10
10
11
8
10
8
7
7
9
7
7
7
12
7
10
11
10
9
12
11
8
9
11
10
11
10
12
15
16
17
19
18
22
24
26
24
24
23
25
24
24
21
26
25
28
25
24
24
23
20
18
17
17
16
8
3
1
4
7
6
10
7
5
6
4
5
7
7
8
4
7
5
6
4
5
5
5
7
9
5
3
6
5
6
6
7
1
4
1
2
6
10
18
35
50
62
77
92
110
120
129
139
150
143
124
86
62
47
24
0
-17
-12
-9
-3
10
12
16
12
11
13
12
10
8
9
8
10
9
12
10
6
8
9
9
10
8
8
6
11
9
10
9
12
8
7
9
9
9
10
8
8
12
10
10
13
12
8
12
16
13
11
8
11
9
8
12
11
11
11
13
12
14
14
12
13
12
12
9
13
16
12
14
12
13
14
17
14
16
18
17
12
13
16
16
17
17
19
18
18
19
21
22
23
21
24
25
26
26
24
25
29
28
33
32
33
34
35
37
37
37
38
40
40
43
42
45
47
47
48
50
49
49
49
50
51
55
55
54
54
50
50
49
48
51
55
49
47
47
47
43
44
42
39
35
35
35
33
29
26
25
24
23
21
23
19
18
17
16
13
15
14
13
11
11
14
12
10
13
12
11
8
10
11
8
11
10
9
10
12
10
9
8
11
13
9
8
7
10
12
8
7
11
8
9
8
9
8
11
8
11
12
11
9
9
10
8
10
13
9
8
11
8
8
8
10
11
6
10
13
9
7
11
10
12
10
10
9
10
10
9
11
11
9
9
11
11
9
13
9
8
10
8
7
7
11
14
10
12
7
9
12
7
9
13
11
7
9
11
11
7
8
6
9
10
8
7
7
12
17
8
9
12
11
11
9
8
9
9
8
7
9
9
9
10
6
13
10
7
13
9
6
6
13
8
10
13
14
9
4
8
8
9
9
12
9
8
5
2
13
9
9
15
3
7
10
4
9
11
8
10
9
9
9
7
7
6
10
8
5
10
11
14
8
6
6
11
10
6
9
10
10
11
17
16
19
22
23
23
22
25
23
23
20
20
22
27
23
27
23
22
24
19
18
13
12
14
19
10
10
3
5
4
3
5
6
6
4
3
5
-3
1
5
6
5
7
0
0
4
-1
2
4
3
1
1
10
6
1
1
5
4
0
-7
-4
0
3
10
14
25
37
50
67
81
98
114
117
129
154
151
135
99
69
55
27
6
-10
-16
-11
-2
3
5
11
5
13
11
5
12
8
3
6
7
7
10
9
5
4
4
5
8
2
10
6
0
7
16
8
8
13
12
8
8
12
16
17
11
11
17
16
12
12
21
19
14
21
22
17
19
19
15
7
18
23
16
17
21
15
12
22
19
20
21
17
18
20
17
20
17
16
19
29
30
32
22
23
24
19
26
23
18
18
27
34
30
15
24
38
43
37
35
33
22
19
22
31
43
33
37
30
24
27
18
7
16
27
39
60
69
51
39
39
43
43
44
43
52
61
58
53
48
26
29
49
52
81
88
61
39
42
35
57
58
63
47
31
5
11
37
60
66
70
49
28
30
32
32
38
34
15
8
28
44
66
64
57
39
32
44
29
22
16
20
31
42
47
39
28
30
44
46
55
31
19
26
31
20
24
52
44
24
21
10
37
70
76
44
27
37
44
66
71
72
47
53
67
58
47
38
53
54
57
57
51
35
40
55
59
56
62
56
55
55
58
64
56
51
55
50
55
58
46
33
30
35
54
59
85
81
65
55
63
73
81
75
81
63
66
70
55
59
69
77
83
72
74
76
81
73
51
48
55
69
78
63
72
71
55
63
84
91
105
67
73
65
68
62
68
65
67
60
64
58
49
61
71
72
81
65
65
72
60
46
48
77
73
83
71
59
61
65
71
74
78
76
67
51
53
54
70
71
71
67
81
65
65
56
57
65
69
65
61
43
59
92
61
70
82
76
60
59
56
54
52
75
62
78
71
61
66
68
69
56
71
82
62
48
42
54
53
53
70
73
76
91
70
62
71
69
93
76
58
79
84
73
53
41
79
114
101
91
72
62
68
66
54
67
60
61
75
80
79
75
57
46
56
61
63
54
46
44
70
69
61
56
53
61
60
45
48
64
62
62
59
27
53
63
41
54
76
62
73
49
33
58
68
57
50
56
59
75
86
126
160
168
184
174
182
186
196
186
160
121
103
54
56
72
50
31
52
98
71
62
52
63
72
55
46
66
83
86
80
66
70
65
64
59
62
58
65
76
64
54
83
96
86
81
57
32
84
92
61
61
49
39
66
85
84
90
53
57
72
100
92
84
74
71
85
76
78
69
52
66
67
68
90
90
91
83
97
77
62
64
69
66
83
78
70
73
91
85
94
90
86
77
73
80
82
93
71
96
72
81
96
97
83
86
89
72
80
101
78
86
70
80
71
108
109
94
92
79
96
103
98
95
77
72
97
95
83
105
106
108
106
110
106
88
83
106
101
108
102
93
123
121
98
109
123
113
122
101
84
99
107
110
104
88
101
84
80
80
87
125
113
75
82
76
81
78
82
78
81
76
58
65
86
63
59
75
62
49
55
79
82
81
72
32
40
60
71
84
78
67
78
62
60
45
54
46
54
60
64
59
76
63
72
66
44
60
54
33
45
72
74
62
56
63
50
73
57
52
55
42
36
35
51
77
86
67
42
56
60
51
54
60
52
56
43
45
51
81
50
52
59
57
52
61
50
60
68
52
42
55
56
49
81
53
50
55
51
71
74
51
47
56
49
44
47
68
72
50
32
45
41
57
56
83
72
64
63
58
52
67
63
73
49
57
57
78
70
64
63
68
72
62
56
56
63
44
56
45
53
76
79
61
55
59
90
60
46
34
36
63
86
80
69
60
41
72
84
69
53
38
51
49
58
81
73
75
61
57
68
57
43
57
75
71
89
69
68
61
48
49
67
67
60
62
55
70
70
54
63
75
80
65
67
64
64
53
45
27
75
78
97
93
83
87
95
81
80
76
66
72
78
98
106
105
79
80
99
90
81
80
81
76
75
73
69
67
71
74
67
53
78
65
64
68
65
62
67
66
65
61
51
53
46
45
66
81
57
52
60
78
58
52
62
49
61
68
75
80
71
54
53
56
51
44
38
64
97
129
130
136
153
156
150
188
209
202
184
141
103
83
60
39
31
33
40
36
40
68
49
51
47
40
48
61
55
52
52
61
41
39
32
45
40
37
38
37
37
30
47
42
18
15
27
38
60
50
54
41
56
47
41
44
30
23
24
31
30
62
63
51
36
45
40
31
28
20
35
35
43
39
37
34
42
54
50
47
47
37
31
35
29
29
37
38
41
45
24
33
45
21
53
47
41
33
65
63
66
64
54
48
46
42
42
40
49
45
44
44
40
47
56
47
42
57
68
55
63
63
58
56
49
64
58
59
53
71
69
73
79
67
51
43
32
35
67
112
118
81
72
79
72
77
69
74
69
69
70
67
67
76
85
60
47
48
63
51
54
53
58
52
48
33
42
52
47
47
32
40
42
49
39
33
21
24
29
28
43
41
19
15
22
26
30
45
37
40
31
29
22
15
13
13
14
37
59
50
42
33
33
31
27
23
17
23
28
47
46
58
38
28
26
35
27
32
19
27
44
55
57
45
40
44
45
45
36
49
54
50
45
52
44
44
33
33
35
35
38
50
57
58
45
37
47
49
36
42
62
69
59
55
45
45
35
38
48
51
57
72
56
43
45
52
50
51
46
42
45
45
45
40
46
63
59
51
52
52
46
55
46
43
38
48
47
45
39
49
41
61
60
44
45
49
46
45
46
53
57
55
54
49
37
38
26
30
59
57
61
67
45
33
50
48
44
46
33
34
39
53
48
46
55
47
46
52
55
47
43
39
33
38
40
36
52
64
60
40
40
47
45
50
37
55
58
40
27
34
43
47
63
58
42
41
43
43
32
33
47
32
30
41
41
43
45
49
41
44
57
62
55
56
63
52
57
53
50
46
51
57
55
62
60
49
52
54
53
36
22
24
46
47
59
62
47
35
33
33
39
27
21
22
7
3
28
44
53
42
46
38
34
28
30
35
35
25
23
25
25
27
33
33
25
19
13
19
32
39
27
28
30
39
47
59
89
120
148
150
151
153
158
154
122
81
56
51
44
36
22
7
7
16
22
25
36
28
19
16
17
18
27
60
46
20
14
18
11
12
19
21
0
34
58
49
34
22
30
28
26
33
31
27
23
16
17
23
31
34
29
33
31
23
28
21
32
30
31
32
32
34
24
20
26
30
32
26
14
21
27
30
25
38
33
29
22
22
20
10
26
41
32
35
35
39
31
26
22
28
22
22
33
47
35
34
37
31
26
30
24
35
44
38
38
44
35
45
38
42
48
45
45
46
44
42
36
45
51
54
55
42
39
51
56
63
54
48
39
43
47
72
79
72
70
72
66
57
59
71
69
55
62
55
50
47
48
35
30
50
54
70
67
46
39
37
32
34
35
33
32
31
26
25
19
11
5
-2
5
26
42
28
29
22
12
8
9
8
10
20
13
21
19
18
4
-5
-7
-8
4
33
25
12
6
-6
-3
10
9
17
14
10
9
10
7
1
8
10
7
8
9
10
6
3
0
15
9
-1
5
11
8
11
10
7
4
-3
-4
-5
3
1
8
25
18
0
10
6
-4
-2
6
13
9
9
8
0
-3
-1
-1
1
8
11
1
2
-3
-3
-10
-13
-13
0
15
1
-14
-20
-11
8
27
10
-9
2
4
2
8
-4
-17
-20
-16
-3
7
9
7
-5
-8
-4
-5
-2
-13
-18
-17
-20
-18
1
6
-7
-11
-12
-15
-20
-9
-17
-9
-14
-19
-9
-10
-13
-20
-18
-24
-25
-22
-26
-23
-23
-16
0
3
-16
-17
-21
-18
-13
-19
-24
-29
-33
-34
-12
4
2
-17
-18
-20
-22
-21
-20
-16
-23
-34
-37
-37
-33
-12
-5
-20
-22
-10
-21
-22
-22
-23
-24
-29
-35
-30
-25
-24
-20
-23
-23
-23
-26
-33
-37
-31
-24
-21
-9
-20
-31
-30
-26
-23
-19
-18
-30
-26
-28
-21
-20
-21
-18
-12
-7
-6
-7
-14
-22
-23
-22
-26
-16
-8
-4
-11
-5
-20
-28
-18
2
0
-9
-14
-19
-11
-17
-29
-41
-33
-23
-35
-40
-38
-32
-22
-34
-42
-46
-43
-38
-14
-17
-23
-30
-35
-38
-29
-35
-45
-43
-35
-31
-31
-35
-33
-42
-49
-52
-53
-30
-17
-21
-24
-7
2
5
23
46
64
74
75
94
101
105
83
44
6
-14
-29
-28
-41
-52
-59
-57
-49
-41
-43
-44
-40
-41
-36
-26
-23
-31
-23
-27
-34
-38
-36
-44
-57
-58
-44
-27
-21
-33
-44
-48
-42
-22
-14
-13
-12
-26
-36
-35
-37
-38
-45
-40
-24
-24
-24
-28
-40
-37
-30
-21
-27
-30
-27
-30
-26
-36
-50
-40
-28
-23
-32
-27
-29
-36
-33
-6
8
-10
-28
-19
-16
-35
-54
-34
-16
-14
-7
-5
-13
-8
-2
-6
-10
-29
-42
-50
-48
-34
-19
-6
0
17
25
12
-20
-20
-5
-4
12
8
-1
19
14
8
10
10
-1
0
-1
15
20
28
33
34
26
21
9
30
33
39
50
41
23
24
27
63
68
53
40
55
39
37
36
47
43
37
23
18
20
29
65
89
65
48
40
31
25
12
9
13
19
19
1
3
-5
32
47
62
51
24
15
25
25
27
22
21
12
16
16
20
7
-5
-4
0
6
19
51
47
36
36
21
20
18
10
5
6
10
21
47
48
40
38
33
25
31
31
19
24
30
21
31
17
18
26
22
30
33
39
40
45
55
40
22
7
16
22
22
48
49
49
48
36
26
29
30
15
21
31
44
22
48
55
52
40
40
37
36
41
36
30
32
26
12
1
9
30
54
71
54
30
36
32
29
27
28
26
33
39
33
33
35
32
34
24
26
20
38
49
51
39
30
38
36
29
32
36
39
30
35
38
32
31
29
30
33
24
18
26
32
32
33
30
50
48
48
39
33
28
21
25
16
13
16
22
35
56
59
52
49
33
39
32
26
25
31
27
39
33
45
38
56
39
32
29
41
19
20
10
23
45
42
36
30
18
36
52
52
36
30
15
10
17
42
58
35
42
37
29
34
20
34
29
26
36
45
34
43
43
41
29
36
32
23
19
23
24
47
29
36
50
47
40
30
39
30
35
35
43
40
43
59
50
51
58
47
32
42
44
61
70
74
63
45
45
45
58
40
29
11
16
46
49
51
16
13
23
44
36
34
30
32
19
26
24
23
33
46
45
32
22
21
20
22
27
29
20
18
16
23
26
23
22
21
18
13
35
46
43
57
70
81
98
119
143
148
165
151
154
144
122
87
68
52
25
-6
4
11
23
25
33
27
22
9
10
17
11
47
41
37
25
22
14
17
24
25
17
15
17
24
16
20
16
15
14
2
8
16
36
30
33
22
19
19
22
9
-2
6
18
38
36
37
25
23
21
14
8
19
15
22
23
24
16
9
7
12
14
30
47
38
25
19
22
24
29
30
22
30
27
16
6
6
12
18
26
37
30
37
27
22
37
37
30
29
30
31
30
29
13
1
9
26
45
64
60
41
30
29
33
52
62
50
34
29
38
47
49
53
53
54
53
50
50
54
64
59
54
59
60
58
58
43
27
28
57
69
70
71
64
55
56
54
50
49
43
30
32
33
48
50
47
50
40
33
30
22
20
14
20
29
30
22
18
14
14
12
8
3
4
9
24
22
14
13
6
3
1
7
14
12
14
2
4
10
-1
-5
1
-1
9
14
26
19
9
13
1
-1
1
7
1
-3
5
16
17
14
8
7
9
16
14
12
11
14
11
9
18
13
10
8
0
-2
6
3
12
11
15
12
8
6
-1
-3
1
0
11
21
16
8
8
6
-5
-3
4
0
19
25
10
6
6
0
-1
3
1
0
2
6
3
-1
1
3
1
-2
1
1
1
7
-2
0
-4
1
-3
-3
0
-2
0
-3
-4
-4
-1
-1
-2
-4
-12
-18
-13
2
-8
0
1
2
3
3
6
-1
0
-2
-7
-8
-5
-10
-10
-7
-5
-2
-4
-7
-4
2
-5
-7
-3
-4
-8
-8
-11
-14
-14
-12
-12
-6
3
-2
-15
-19
-7
-3
0
2
-10
-8
-10
-14
-11
-14
-10
-12
-16
-21
-14
-17
-15
-8
-5
-8
-15
-23
-17
-18
-10
-11
-14
-18
-15
-12
-16
-18
-18
-19
-22
-16
-18
-16
-18
-19
-19
-22
-25
-22
-21
-24
-19
-21
-21
-22
-22
-22
-23
-19
-21
-21
-25
-25
-17
-24
-23
-24
-24
-25
-24
-15
-11
-16
-14
-10
-10
-11
-7
-9
-14
-11
-11
-7
-15
-14
-9
-4
-5
-6
-11
-14
-16
-16
-20
-21
-29
-34
-33
-33
-27
-29
-29
-33
-33
-31
-35
-35
-41
-41
-43
-36
-34
-35
-41
-33
-40
-36
-39
-36
-38
-33
-37
-41
-43
-38
-39
-35
-49
-43
-39
-38
-39
-27
-20
-5
15
25
42
56
78
72
84
94
89
70
17
-12
-19
-41
-68
-88
-85
-71
-72
-66
-48
-49
-45
-42
-40
-37
-35
-42
-40
-42
-43
-48
-45
-50
-37
-42
-40
-47
-45
-37
-41
-49
-43
-51
-50
-43
-39
-36
-46
-44
-45
-47
-41
-39
-33
-37
-45
-40
-43
-39
-40
-38
-48
-40
-40
-35
-38
-33
-41
-38
-39
-37
-35
-42
-40
-35
-32
-35
-33
-37
-32
-45
-37
-39
-38
-34
-32
-37
-26
-33
-30
-43
-38
-28
-29
-24
-27
-29
-27
-27
-30
-28
-33
-28
-28
-29
-26
-20
-18
-22
-22
-24
-18
-18
-15
-14
-21
-14
-10
-14
-15
-13
-7
-7
-5
-8
-7
-3
-2
1
-5
-6
0
-2
9
4
9
11
9
0
-2
4
12
7
8
3
11
9
3
5
4
2
7
-5
-5
-4
-15
-10
-1
-4
-14
-20
-19
-19
-24
-20
-25
-26
-28
-29
-31
-34
-39
-38
-36
-38
-41
-45
-48
-43
-41
-46
-46
-45
-44
-45
-42
-45
-49
-48
-46
-49
-49
-50
-48
-47
-44
-44
-49
-47
-47
-48
-52
-53
-51
-42
-36
-46
-45
-47
-46
-48
-44
-45
-40
-41
-42
-45
-47
-45
-45
-51
-47
-43
-35
-37
-44
-45
-41
-42
-48
-48
-39
-42
-42
-44
-40
-41
-40
-45
-41
-43
-43
-41
-43
-42
-39
-44
-44
-46
-49
-46
-40
-37
-45
-42
-44
-49
-46
-45
-43
-42
-45
-44
-40
-40
-42
-52
-46
-44
-40
-41
-44
-45
-44
-45
-44
-47
-46
-46
-46
-44
-44
-43
-41
-40
-41
-46
-47
-45
-47
-42
-49
-45
-43
-39
-41
-45
-43
-46
-48
-40
-50
-46
-44
-45
-44
-47
-47
-43
-42
-42
-45
-43
-43
-45
-47
-40
-42
-41
-42
-41
-42
-46
-44
-44
-44
-45
-46
-44
-47
-40
-40
-39
-44
-40
-42
-44
-43
-38
-36
-44
-38
-45
-45
-45
-44
-43
-43
-46
-41
-39
-44
-46
-37
-39
-52
-44
-40
-47
-41
-45
-43
-37
-44
-44
-42
-39
-42
-45
-45
-41
-40
-41
-38
-37
-44
-39
-47
-51
-36
-30
-34
-41
-29
-29
-33
-34
-26
-23
-23
-22
-27
-27
-23
-29
-32
-18
-24
-18
-26
-21
-15
-24
-36
-31
-34
-31
-29
-27
-41
-42
-36
-42
-44
-42
-44
-43
-45
-45
-43
-41
-41
-46
-44
-46
-54
-34
-35
-39
-43
-41
-40
-34
-38
-47
-42
-40
-39
-48
-53
-45
-42
-40
-38
-38
-24
-4
9
28
48
57
70
75
84
94
103
80
53
16
-5
-19
-33
-58
-65
-57
-58
-35
-33
-33
-35
-25
-34
-30
-37
-41
-37
-33
-39
-37
-35
-33
-36
-32
-33
-31
-34
-39
-44
-34
-32
-31
-33
-31
-33
-33
-33
-34
-32
-32
-41
-34
-36
-32
-32
-34
-27
-30
-33
-32
-28
-27
-25
-28
-29
-31
-31
-31
-39
-25
-28
-26
-27
-21
-28
-29
-30
-34
-27
-28
-23
-23
-23
-23
-25
-26
-27
-27
-29
-21
-25
-17
-21
-20
-23
-23
-24
-20
-17
-18
-12
-23
-17
-21
-24
-20
-15
-16
-10
-10
-10
-9
-9
-9
-8
-9
-8
-9
-6
-3
1
6
3
3
0
3
2
8
10
10
7
14
14
20
13
14
12
12
7
14
16
16
14
15
14
21
16
10
10
8
11
15
11
8
4
-2
-4
-8
-2
0
-5
-10
-8
-8
-15
-19
-22
-17
-16
-25
-23
-14
-20
-24
-28
-30
-29
-32
-35
-30
-32
-25
-25
-30
-34
-30
-30
-29
-36
-36
-31
-30
-33
-33
-34
-35
-33
-36
-36
-39
-28
-37
-34
-33
-31
-34
-35
-38
-33
-31
-35
-32
-30
-33
-35
-28
-31
-33
-30
-28
-34
-33
-31
-32
-36
-27
-31
-30
-34
-31
-31
-30
-32
-28
-34
-36
-33
-31
-32
-33
-30
-35
-33
-32
-25
-29
-35
-32
-26
-46
-45
-22
-28
-25
-35
-44
-23
-27
-33
-36
-26
-26
-26
-35
-40
-31
-33
-34
-29
-25
-31
-28
-35
-32
-26
-32
-35
-29
-29
-25
-30
-28
-29
-30
-31
-36
-29
-30
-27
-25
-34
-29
-25
-27
-29
-34
-29
-32
-27
-35
-33
-32
-29
-25
-29
-31
-33
-33
-33
-27
-29
-31
-30
-28
-31
-35
-30
-30
-28
-32
-30
-35
-34
-36
-32
-38
-40
-25
-29
-35
-32
-36
-38
-34
-24
-36
-31
-29
-31
-33
-33
-34
-35
-35
-37
-35
-34
-35
-29
-37
-33
-32
-37
-33
-35
-33
-37
-35
-32
-35
-36
-36
-35
-32
-33
-28
-32
-38
-29
-31
-36
-36
-31
-29
-29
-34
-31
-20
-17
-19
-17
-21
-16
-18
-17
-20
-15
-18
-19
-17
-14
-11
-13
-11
-17
-24
-16
-23
-23
-26
-29
-33
-33
-35
-36
-43
-39
-36
-42
-41
-35
-38
-36
-40
-37
-38
-40
-39
-38
-35
-41
-42
-37
-43
-43
-39
-41
-36
-38
-31
-36
-40
-46
-45
-40
-39
-35
-31
-15
-4
10
31
41
56
76
85
95
102
109
96
60
20
3
-19
-40
-62
-65
-57
-53
-45
-34
-29
-35
-34
-30
-35
-34
-34
-35
-40
-38
-36
-37
-38
-34
-38
-41
-35
-38
-36
-35
-36
-36
-32
-38
-39
-35
-41
-36
-39
-36
-33
-32
-35
-34
-37
-35
-38
-32
-33
-36
-33
-34
-29
-32
-30
-33
-31
-31
-31
-31
-33
-34
-28
-30
-29
-28
-29
-27
-29
-28
-26
-29
-31
-33
-33
-25
-25
-23
-26
-21
-26
-25
-29
-29
-26
-21
-19
-22
-24
-24
-18
-20
-22
-24
-17
-19
-19
-20
-18
-16
-13
-10
-9
-9
-14
-10
-10
-9
-13
-8
-6
1
0
-1
3
2
3
3
5
6
6
9
8
7
2
7
8
11
12
13
12
10
10
15
15
12
11
10
10
10
10
9
7
3
4
0
-1
-6
-5
0
-8
-9
-11
-8
-15
-14
-18
-20
-23
-25
-28
-26
-30
-29
-31
-32
-31
-36
-34
-34
-37
-32
-32
-33
-36
-39
-37
-39
-33
-38
-40
-44
-37
-37
-37
-34
-37
-37
-37
-37
-41
-41
-39
-37
-36
-35
-40
-42
-39
-39
-39
-37
-39
-40
-39
-39
-39
-37
-39
-37
-39
-37
-41
-37
-38
-37
-38
-40
-41
-40
-36
-33
-36
-35
-38
-35
-35
-40
-36
-36
-36
-37
-39
-38
-36
-37
-40
-37
-38
-37
-36
-40
-39
-37
-41
-37
-38
-39
-36
-39
-40
-44
-39
-40
-38
-43
-40
-37
-39
-42
-39
-41
-41
-41
-37
-35
-42
-43
-42
-36
-41
-41
-42
-44
-41
-41
-41
-42
-38
-39
-37
-42
-37
-39
-40
-47
-40
-38
-39
-41
-43
-38
-39
-42
-41
-39
-38
-35
-36
-39
-38
-39
-37
-38
-37
-36
-35
-37
-36
-35
-37
-40
-36
-35
-31
-35
-31
-31
-29
-36
-36
-34
-36
-35
-33
-33
-37
-31
-31
-30
-33
-35
-39
-33
-32
-35
-34
-34
-32
-33
-30
-30
-34
-33
-31
-33
-35
-29
-31
-28
-32
-32
-24
-23
-25
-26
-20
-17
-14
-16
-16
-21
-23
-18
-20
-17
-17
-15
-16
-20
-22
-24
-25
-23
-25
-32
-37
-35
-37
-44
-43
-42
-44
-42
-41
-40
-42
-43
-43
-42
-39
-44
-50
-42
-45
-49
-49
-44
-40
-43
-43
-45
-45
-44
-45
-44
-44
-46
-45
-44
-42
-37
-32
-19
-3
9
24
44
56
64
70
73
84
82
53
10
-19
-37
-62
-84
-94
-89
-78
-72
-64
-57
-54
-47
-44
-46
-44
-44
-45
-40
-42
-42
-42
-42
-44
-39
-41
-47
-43
-43
-43
-39
-40
-41
-44
-44
-42
-45
-38
-43
-37
-35
-41
-36
-37
-44
-43
-39
-44
-43
-40
-35
-39
-41
-41
-32
-43
-37
-42
-35
-39
-38
-36
-34
-36
-34
-39
-43
-33
-33
-29
-38
-37
-38
-28
-38
-32
-33
-33
-38
-30
-30
-35
-33
-27
-27
-32
-33
-21
-26
-33
-29
-19
-21
-33
-27
-17
-22
-24
-20
-21
-20
-23
-19
-16
-12
-11
-10
-10
-11
-14
-10
-6
-3
3
0
0
2
3
1
3
7
5
6
6
12
9
9
7
12
15
14
8
8
15
8
15
14
14
10
11
8
7
7
3
4
4
-3
-8
-13
-9
-8
-17
-18
-16
-24
-27
-27
-22
-27
-26
-33
-34
-32
-34
-36
-39
-37
-38
-36
-45
-45
-45
-45
-43
-44
-49
-44
-49
-44
-47
-46
-44
-46
-46
-41
-47
-51
-47
-42
-45
-41
-39
-43
-42
-48
-46
-45
-45
-46
-42
-45
-45
-45
-46
-39
-41
-43
-39
-45
-43
-37
-37
-40
-40
-44
-44
-38
-36
-42
-38
-39
-40
-41
-42
-41
-42
-35
-36
-38
-38
-36
-46
-45
-37
-36
-41
-38
-40
-42
-45
-37
-38
-42
-41
-42
-41
-40
-41
-39
-40
-41
-41
-44
-44
-42
-40
-37
-44
-46
-45
-43
-43
-44
-39
-40
-45
-44
-36
-37
-45
-43
-42
-48
-46
-47
-46
-42
-40
-39
-41
-43
-43
-44
-39
-44
-46
-39
-42
-44
-41
-37
-45
-43
-44
-44
-43
-38
-41
-44
-42
-46
-42
-40
-42
-44
-46
-43
-43
-44
-36
-42
-42
-41
-46
-49
-38
-39
-37
-39
-35
-37
-39
-33
-34
-39
-43
-35
-27
-25
-26
-28
-25
-28
-33
-28
-26
-30
-23
-19
-26
-28
-27
-30
-30
-37
-30
-40
-37
-39
-34
-43
-49
-51
-48
-50
-41
-49
-48
-49
-44
-40
-38
-46
-52
-44
-50
-46
-45
-49
-54
-50
-46
-46
-49
-46
-49
-42
-51
-47
-43
-52
-53
-49
-43
-51
-33
-13
-6
8
18
40
49
67
65
86
92
92
88
57
23
-4
-17
-41
-63
-61
-62
-49
-51
-51
-24
-23
-37
-44
-36
-37
-46
-41
-52
-37
-36
-50
-43
-43
-47
-34
-45
-51
-42
-36
-35
-48
-52
-46
-57
-52
-39
-32
-45
-40
-42
-36
-48
-42
-30
-48
-49
-54
-26
-14
-22
-28
-40
-21
-33
-45
-32
-57
-36
-24
-42
-35
-29
-29
-38
-37
-38
-47
-50
-56
-40
-40
-45
-33
-35
-45
-42
-39
-39
-38
-51
-35
-33
-27
-5
-38
-30
-31
-31
-26
-30
-31
-40
-36
-33
-32
-34
-10
-21
-14
-18
-26
-26
-16
-26
-15
-5
-4
-2
-3
-15
-6
-32
0
-5
-1
5
11
15
14
8
8
16
15
15
18
27
23
22
25
27
25
30
20
25
25
26
29
24
26
26
23
21
20
16
19
10
17
23
18
11
14
6
-8
0
5
2
3
2
-7
-3
2
-3
-17
-13
-7
-5
-23
-21
-20
-8
-10
-13
-6
-20
-17
-12
-17
-16
2
-30
-34
-35
-24
-26
-17
-15
-16
-1
-14
-11
-12
-12
-28
-26
-19
-16
-5
-12
-21
-10
-12
-10
-11
-17
-8
-24
-17
-31
-21
-23
-18
-15
-24
-23
-11
-9
-17
-17
-27
-12
-22
-25
-27
-22
-23
-15
-20
-17
-17
-19
-22
-18
-21
-13
-15
-19
-20
-14
-12
-14
-18
-15
-15
-10
-14
-16
-6
-11
-14
-15
-17
-15
-6
-8
-12
-2
-11
-7
-7
-11
-17
-1
-13
0
7
-2
-16
-8
-2
-8
-8
-11
-18
-10
-7
-21
0
-11
-11
-7
-7
-12
-8
-14
-11
-3
-7
-4
3
-8
0
-6
3
-5
-10
-6
-5
-1
4
-3
-1
0
-5
-5
-3
6
11
13
11
12
16
15
24
21
19
14
16
17
12
22
18
20
20
20
23
24
18
11
10
8
9
9
6
-5
-6
-5
-3
-6
-4
1
-5
-5
-5
-1
-4
1
-2
-5
-2
-4
-5
1
-2
5
1
-1
-2
1
-1
0
3
5
3
0
-3
-3
5
2
6
14
26
43
60
77
111
134
152
159
174
187
184
150
110
68
49
22
-11
-36
-33
-29
-19
-2
5
12
13
19
18
15
13
11
12
10
11
12
11
10
11
9
8
14
10
6
5
6
9
15
16
16
14
13
14
7
9
13
12
12
16
9
11
9
9
13
13
12
17
17
16
17
13
14
11
16
14
14
16
12
14
13
13
16
17
14
14
17
14
16
19
18
19
16
19
19
21
17
22
27
24
25
21
20
21
23
22
25
25
25
26
27
28
29
28
29
30
33
35
30
37
40
39
38
37
37
38
43
41
44
49
45
45
48
46
49
53
54
52
48
56
52
52
54
50
52
57
54
49
62
60
47
55
50
48
49
48
49
45
37
38
34
34
33
29
28
30
27
20
19
21
17
17
14
16
12
10
7
15
12
7
5
0
1
6
4
5
1
6
6
9
6
4
1
6
5
5
3
8
4
6
5
7
8
5
7
8
6
8
12
5
9
11
11
7
8
7
10
9
10
4
13
11
10
8
9
14
15
10
11
11
7
14
9
11
10
5
11
15
10
11
10
11
12
11
13
11
10
12
11
11
10
9
5
9
6
8
1
15
14
9
8
5
6
8
8
8
8
7
5
7
6
1
1
9
4
2
6
5
2
0
6
6
-2
2
6
2
0
5
6
8
6
8
5
15
20
19
15
14
18
16
25
20
17
16
20
15
13
15
14
11
9
9
11
2
-5
-5
-6
-9
-8
-8
-6
-5
-7
-8
-8
-8
-7
-10
-7
-8
-14
-11
-4
-6
-9
-5
-7
-7
-6
-7
-9
-8
-4
-8
-7
-5
-8
-2
-6
-4
-7
-8
7
23
39
51
71
84
100
99
112
125
122
102
65
31
8
-16
-32
-48
-48
-42
-37
-32
-27
-22
-13
-9
-12
-14
-14
-15
-15
-18
-13
-18
-17
-18
-16
-16
-16
-18
-18
-17
-15
-16
-15
-17
-16
-14
-13
-19
-17
-15
-13
-16
-15
-18
-14
-14
-13
-15
-17
-13
-6
-11
-9
-15
-11
-6
-10
-13
-9
-11
-13
-12
-7
-4
-6
-10
-12
-6
-4
-5
-5
-4
-3
1
-3
-7
-4
-2
-7
0
0
-4
-3
-2
2
0
2
1
3
3
2
4
5
5
2
6
7
7
12
9
11
11
16
15
14
18
17
19
19
19
20
24
24
25
28
25
31
31
27
33
32
34
36
40
38
41
45
45
40
42
34
39
43
42
44
41
41
40
38
36
32
31
32
29
27
28
21
16
15
20
15
11
7
4
4
4
4
-1
-5
-7
-11
-7
-9
-11
-6
-10
-14
-15
-14
-13
-17
-18
-14
-15
-20
-16
-16
-17
-18
-14
-16
-18
-17
-20
-19
-21
-21
-19
-15
-17
-17
-18
-19
-22
-17
-19
-21
-21
-19
-18
-18
-18
-15
-17
-18
-15
-19
-20
-16
-16
-20
-15
-18
-20
-13
-12
-14
-15
-9
-13
-13
-13
-13
-12
-13
-13
-11
-17
-10
-14
-13
-15
-12
-12
-9
-11
-13
-12
-10
-11
-10
-12
-14
-12
-18
-9
-12
-18
-17
-13
-14
-10
-10
-15
-14
-12
-15
-16
-8
-13
-9
-9
-15
-10
-7
-5
-6
-5
-1
1
2
3
4
5
3
4
3
3
1
3
2
3
2
-4
-8
-9
-10
-14
-15
-19
-18
-20
-17
-20
-21
-17
-22
-22
-19
-20
-20
-22
-16
-14
-16
-19
-15
-18
-19
-17
-19
-16
-21
-24
-17
-15
-17
-17
-15
-16
-21
-21
-22
-23
-20
-23
-15
-9
-3
17
28
43
55
72
90
92
104
114
123
105
77
40
23
6
-15
-36
-45
-40
-33
-23
-15
-13
-18
-13
-11
-7
-13
-12
-13
-12
-8
-9
-14
-15
-12
-16
-18
-13
-13
-10
-14
-13
-9
-12
-13
-9
-10
-5
-16
-10
-12
-7
-10
-17
-15
-14
-18
-8
-4
-2
-9
-9
-7
-5
-10
-8
-9
-8
-6
-4
-9
-7
-5
-4
3
0
-7
-5
-1
0
-3
-1
-5
1
-3
2
-2
3
2
1
2
2
2
5
4
2
7
3
5
3
4
6
4
4
12
9
10
13
10
15
14
14
18
17
21
16
17
16
20
25
30
26
22
26
30
28
29
30
35
33
38
35
31
33
40
41
35
35
35
40
40
38
37
42
42
41
40
38
34
37
34
29
27
26
25
26
24
20
21
17
16
17
11
14
9
1
7
7
7
8
2
1
-2
-2
-1
0
-5
-2
0
-4
3
-3
-5
-7
-3
-10
-1
1
-7
-11
1
-4
-4
-2
-8
-6
-1
-6
-6
-5
-5
-8
-4
-6
-6
-8
-8
-5
-2
-4
-5
-9
-6
-6
-10
-4
-6
-3
-2
-8
-2
-4
-5
-5
-4
-3
-3
-3
-3
-2
-3
-9
-6
-5
-5
0
0
-4
-8
-3
0
1
-3
-5
-7
-3
-6
-3
-9
0
-3
-5
-7
-4
-5
-6
-9
-8
-6
-8
-2
-2
-2
-8
-8
-7
-3
-2
-5
-6
-6
-4
1
-2
-4
0
2
0
6
8
8
12
10
11
9
11
11
15
11
13
15
9
9
9
6
2
3
-10
-10
-4
-9
-9
-6
-11
-11
-7
-10
-9
-8
-9
-9
-8
-11
-12
-9
-14
-11
-7
-10
-8
-11
-8
-11
-9
-14
-11
-10
-12
-11
-11
-11
-15
-16
-13
-17
-11
-12
-13
-5
-2
3
16
32
48
70
85
96
104
121
135
139
125
101
63
39
20
-2
-18
-28
-24
-24
-15
-11
-8
1
6
2
-6
-2
0
-4
-8
-6
-7
-3
-16
-7
-16
-9
2
1
-18
-16
0
-2
6
3
-9
-4
-5
-8
-5
-7
-7
-8
-2
5
5
-14
6
-2
3
-1
-1
-8
-10
-9
6
-3
-1
-4
6
-8
1
-2
11
-2
-4
-12
2
-6
3
5
-2
-5
-2
-3
2
6
7
7
-8
-15
-10
-7
-9
-8
9
-2
7
0
-16
14
16
7
3
9
3
-5
-7
13
-15
-1
-1
1
17
3
-12
-7
1
-2
4
14
17
3
11
29
26
29
34
27
29
41
41
41
50
34
39
30
43
53
30
34
35
33
40
44
52
40
28
39
41
41
42
36
33
34
34
20
22
28
25
23
31
26
18
21
29
33
9
19
8
13
20
19
26
23
18
26
12
20
23
16
8
12
26
37
19
25
7
22
28
36
31
22
38
56
56
40
29
55
61
54
49
31
59
56
50
40
40
55
45
62
69
73
74
80
69
72
74
70
75
74
75
75
75
77
78
79
80
80
84
79
81
84
77
86
92
88
88
87
91
87
88
98
103
84
88
99
96
97
103
96
97
106
107
103
106
99
105
100
109
110
105
108
110
117
117
118
121
121
126
120
132
117
108
113
127
125
127
129
140
145
147
142
145
136
136
132
130
132
134
124
127
128
121
121
117
114
111
110
110
111
108
108
113
110
112
110
108
109
108
108
110
107
104
104
107
107
106
108
104
106
102
113
105
105
108
111
106
105
107
113
106
107
104
111
100
98
111
122
121
135
154
169
197
220
234
241
267
272
268
241
197
161
122
110
84
48
47
57
75
80
86
86
91
96
98
92
90
77
82
80
89
77
85
83
80
81
84
84
84
91
84
79
87
81
80
79
81
77
75
78
77
80
83
79
78
84
76
78
79
80
79
77
80
79
75
77
82
82
75
76
78
78
81
82
74
73
81
79
81
84
85
85
82
82
84
83
87
84
84
83
89
88
82
84
80
86
87
78
75
90
85
89
78
82
87
83
92
95
82
81
90
108
88
75
87
102
102
111
96
91
94
93
111
109
105
108
108
105
110
111
119
114
110
115
114
112
115
115
122
119
113
118
120
117
115
113
111
110
108
108
104
103
103
99
91
91
98
94
88
88
85
84
81
78
76
73
75
70
68
69
71
67
65
63
67
60
64
61
61
62
62
65
67
64
62
62
56
56
59
62
59
57
54
54
53
59
59
50
55
50
50
53
54
57
57
60
56
54
52
54
60
60
57
56
53
53
59
58
55
59
54
54
57
56
56
59
59
56
58
55
55
57
60
64
63
64
59
54
59
59
57
63
58
57
61
64
62
66
60
63
72
71
71
66
64
68
67
69
76
74
68
66
66
72
74
85
94
93
77
77
84
82
87
80
78
82
74
74
78
77
78
80
76
76
75
74
74
77
85
87
88
85
93
93
80
74
77
79
91
94
87
83
80
72
70
69
65
64
64
62
64
56
62
55
60
60
60
59
58
52
51
53
52
53
53
51
48
43
35
42
41
39
33
26
16
15
18
14
7
10
9
7
6
-3
-3
-15
-11
-12
-8
-7
1
7
24
37
59
82
92
100
111
124
128
115
81
45
22
-2
-22
-44
-51
-41
-36
-22
-18
-15
-12
-14
-11
-6
-4
1
-4
-5
-2
-8
-9
-6
-6
-9
-2
1
2
5
-1
7
6
1
0
-3
0
6
7
12
14
11
12
13
10
14
17
17
17
17
18
15
19
20
18
15
22
22
23
31
26
21
30
28
28
23
27
26
20
21
20
19
22
24
29
25
26
28
31
29
27
29
33
28
24
26
28
32
32
33
32
31
32
29
34
35
35
33
37
36
37
39
36
35
37
36
36
36
37
40
38
33
41
40
45
46
42
47
47
42
44
47
41
41
39
38
35
35
36
38
44
39
35
31
33
34
34
30
36
30
32
38
44
45
42
48
48
51
52
47
52
54
49
47
48
48
50
51
49
50
47
52
48
47
44
47
51
51
50
56
50
52
52
50
54
51
54
55
52
55
55
53
51
51
54
57
56
58
57
56
55
53
56
54
51
51
60
60
62
57
57
54
57
58
56
59
58
58
56
60
58
56
62
56
60
60
59
58
59
63
59
60
57
60
57
58
57
55
58
57
61
63
54
59
58
58
58
63
58
56
55
57
54
60
56
59
58
57
58
59
59
55
58
60
61
61
61
68
66
72
75
78
76
72
70
76
79
78
72
78
74
74
71
68
68
63
62
56
55
51
56
52
54
55
57
54
54
51
54
54
55
55
52
53
53
54
54
58
54
53
56
56
54
53
58
58
59
59
56
57
61
56
48
50
61
58
52
58
56
59
66
73
88
104
120
138
154
172
177
199
208
214
198
171
134
107
88
66
49
38
40
45
55
62
68
69
71
67
66
70
64
70
69
71
67
61
66
63
65
63
62
60
65
66
63
63
66
66
67
67
67
67
65
66
68
66
69
68
65
68
66
65
64
64
72
67
69
70
65
65
72
66
67
66
65
69
71
68
64
65
68
72
67
62
68
68
66
69
67
65
62
71
72
73
73
73
72
73
69
72
71
73
74
73
72
74
77
73
73
77
75
85
86
80
79
82
82
83
84
84
88
86
85
90
95
95
93
92
91
97
97
94
99
96
99
98
101
104
105
99
103
103
101
102
103
101
101
96
101
102
99
98
93
90
93
89
84
81
79
81
81
74
71
72
69
64
66
61
59
61
57
58
57
56
52
53
53
49
50
49
50
49
49
46
46
49
48
47
45
42
41
47
45
49
43
46
47
43
42
43
38
42
41
43
47
42
43
39
41
41
43
42
44
42
45
42
43
39
40
46
39
39
45
48
45
41
43
43
42
43
45
45
45
41
44
45
46
41
42
43
43
43
45
48
45
47
43
38
40
42
40
43
42
40
38
40
39
39
39
37
35
