12
15
13
27
11
12
13
12
4
13
17
17
9
19
13
8
9
6
5
3
10
10
11
11
20
15
13
16
9
3
1
6
16
20
21
12
1
12
7
11
7
6
4
16
18
16
14
21
15
18
7
-2
5
11
8
19
24
18
11
11
20
21
23
25
23
17
22
17
14
10
8
6
19
18
26
18
31
28
18
27
29
17
23
26
17
30
24
19
30
21
22
21
9
22
32
28
27
25
26
20
33
40
38
39
36
39
39
39
40
32
23
29
32
34
34
32
19
19
24
28
30
27
29
35
19
25
29
33
30
37
29
22
17
28
30
24
13
18
19
11
12
14
22
31
32
24
26
19
18
27
31
25
35
45
42
42
45
56
78
80
96
109
127
152
177
205
220
195
175
142
122
96
73
52
44
44
49
41
49
49
48
38
42
39
40
36
46
32
31
32
21
22
33
32
28
23
15
8
11
11
15
18
30
22
15
18
16
16
16
22
20
17
26
15
22
20
19
13
17
22
22
22
28
19
25
26
25
20
24
25
25
29
27
31
29
27
35
31
24
21
21
25
34
31
28
23
23
15
24
28
42
43
45
51
43
35
47
35
33
32
46
50
45
47
51
61
46
54
51
42
50
59
62
70
68
65
58
63
67
67
79
73
63
67
69
79
64
73
73
56
53
71
75
74
75
59
60
61
64
50
41
43
59
58
39
39
35
41
43
41
32
35
33
32
31
34
29
25
25
26
19
26
34
26
30
23
20
11
8
10
8
29
25
19
18
24
23
25
18
12
11
17
12
14
19
20
12
14
27
21
20
33
18
3
17
22
20
21
27
28
18
11
3
11
11
17
10
3
10
11
14
17
25
24
4
15
25
28
29
23
28
30
17
27
19
20
17
21
30
20
32
26
28
25
24
23
18
11
18
20
20
23
30
38
29
20
18
25
19
6
9
25
24
17
20
29
10
14
10
15
7
21
21
21
18
9
9
19
24
22
18
27
20
24
15
11
9
16
13
18
29
42
28
30
35
34
39
35
28
23
24
26
31
27
35
25
24
21
7
17
14
10
28
30
21
16
11
2
9
5
17
13
17
10
16
18
13
16
14
9
22
13
4
17
18
-3
0
0
12
3
10
24
24
19
28
19
15
16
24
27
53
68
85
100
113
138
150
175
200
188
163
132
122
101
73
32
28
30
15
15
18
19
31
22
27
20
18
21
18
4
0
8
2
-2
-8
-13
1
16
11
8
3
-8
11
2
-1
0
-4
13
18
17
16
-2
8
14
19
15
0
-1
3
2
9
5
7
6
14
9
6
6
4
6
9
7
12
8
11
1
7
12
17
27
20
12
14
14
5
8
21
9
9
10
16
14
9
16
19
28
14
28
28
32
33
32
32
22
23
27
29
30
30
39
49
41
40
50
38
39
50
48
45
50
50
47
49
45
37
37
51
43
33
52
58
53
53
52
49
45
48
46
40
51
52
43
47
37
25
28
23
24
28
35
21
20
22
26
18
19
24
15
5
24
25
6
8
4
0
9
4
10
2
7
4
7
15
8
6
12
7
-3
1
9
9
1
5
6
-5
1
-4
0
-11
-6
10
2
11
8
4
10
3
-4
-8
-8
-10
-6
5
-4
-4
-8
1
1
-1
2
-2
-3
-4
-7
-11
-3
-2
-6
-4
2
9
4
-6
-12
-24
-15
-8
-10
-10
-5
3
0
-3
-13
-10
5
-6
-15
6
5
-12
-9
-5
-12
-9
3
-3
-6
1
1
-7
-9
9
-7
-24
-9
-11
-5
-9
-14
-18
-8
-7
-7
1
-1
-3
-10
-6
-4
-5
-7
1
-1
-2
-8
-3
-7
-15
-4
0
-10
-6
-10
-7
-8
-6
-4
-1
7
19
15
13
-5
2
1
-6
-10
-10
-10
12
2
3
-2
-7
-9
-12
-10
-5
-2
-10
-8
-9
-8
-9
-7
-19
-19
-14
-17
-16
-9
-19
-21
-13
-17
-14
-8
-1
-13
-5
0
-21
-22
-13
-8
-3
-20
0
2
-5
-13
-9
1
1
22
32
44
76
91
107
130
151
190
193
170
138
107
91
61
36
25
17
16
16
11
18
11
16
5
-5
-13
-19
-17
-6
-18
-14
-13
-8
-7
-6
-9
-19
-14
-13
-19
-14
-12
-18
-23
-34
-24
-20
-18
-18
-11
-9
-10
-4
-6
-7
-10
-20
-20
-20
-24
-23
-17
-7
-13
-16
-8
-14
-7
-10
-10
-14
-6
-3
0
-12
-7
-11
-11
-13
-10
-3
-15
-10
-9
-11
-1
-10
-4
-9
-8
-6
4
12
7
6
13
-3
-2
-13
-7
-3
-2
14
14
8
9
13
12
17
17
26
25
26
19
18
26
21
12
26
31
34
37
42
43
40
39
26
27
35
33
33
38
36
38
37
37
19
22
23
11
15
30
23
23
18
18
10
8
10
12
6
-2
-5
-5
-5
-5
-5
2
-1
0
-6
-2
-12
-5
-3
-10
-18
-7
-6
-16
-4
-6
-18
-24
-16
-8
-2
-7
-12
-23
-14
-5
-7
-5
-2
-3
-13
-14
-24
-17
-6
-5
-10
-13
-6
-16
-14
-11
-11
-14
-15
-13
-11
-5
-10
-11
-10
-21
-21
-17
-15
-13
-3
-9
-10
-20
-18
-25
-10
-14
-14
-2
-2
-9
-17
-25
-33
-29
-31
-26
-14
-9
-9
-19
-16
-21
-24
-12
-17
-17
-6
-18
-20
-23
-9
-2
-9
0
-27
-18
-22
-28
-19
-30
-20
-30
-22
-13
-19
-19
-20
-30
-27
-23
-19
-26
-24
-21
-23
-31
-19
-22
-18
-13
-11
-23
-19
-18
-9
-20
-17
-12
-23
-21
-16
-17
-13
-17
-22
-7
-3
-3
-5
-18
-16
-19
-16
-12
-12
-11
-1
-10
-20
-6
-20
-28
-22
-19
-21
-23
-15
-20
-23
-16
-19
-21
-21
-19
-17
-16
-20
-20
-24
-24
-23
-25
-25
-31
-22
-22
-23
-20
-21
-23
-37
-34
-15
-13
-16
-14
-13
-15
-11
-8
-8
-4
12
35
40
45
64
94
114
140
179
193
184
160
130
107
76
37
31
4
-10
-6
1
-4
-9
2
2
-9
-15
-22
-14
-30
-27
-27
-25
-21
-22
-29
-27
-11
-15
-13
-19
-17
-26
-6
-19
-18
-26
-30
-25
-24
-19
-32
-27
-7
-8
-20
-20
-22
-19
-22
-20
-17
-12
-11
-6
-16
-13
-7
-20
-6
-9
-9
-16
-12
-19
-19
-8
-2
-12
-1
-15
-14
-11
-11
-6
1
1
-11
-17
-13
-11
-7
0
7
5
7
3
0
-4
-1
-3
-3
13
13
9
20
29
20
12
12
17
17
15
24
30
37
38
35
30
40
33
30
33
45
35
41
34
40
46
44
51
41
42
41
39
41
38
33
28
23
21
19
31
29
26
26
28
25
12
10
11
6
8
6
7
16
16
11
6
3
1
3
-1
4
-2
6
0
-10
-5
-8
-20
-13
-1
0
5
-1
2
-14
-16
-9
0
0
10
2
8
0
5
6
1
-13
-11
-8
2
-8
-3
-12
-7
-15
-9
-1
3
-3
-5
-1
0
-7
-6
-14
-7
-3
-2
-10
-6
-6
-4
-5
0
-7
-10
0
-5
0
-11
-14
-10
-14
-4
-1
-6
-4
5
-5
-3
-2
-5
0
0
-5
-5
-1
0
-1
-3
-5
-3
-5
-2
0
2
-2
-5
-1
6
12
5
-8
-2
-2
-6
-14
-12
-2
12
3
2
0
7
1
10
7
14
3
-5
-8
-9
-5
9
4
4
3
-2
-1
5
1
-2
8
4
-1
13
-1
3
5
9
-5
3
2
-3
-4
6
12
12
25
28
30
21
12
6
12
13
16
8
-2
1
3
0
2
3
2
-3
-3
4
11
-1
3
10
13
5
4
1
-5
-6
11
2
-2
0
8
1
-2
1
9
7
6
1
-1
3
-7
4
17
8
3
5
16
14
13
32
53
57
61
80
93
101
112
152
193
197
176
146
118
107
73
37
24
17
14
9
14
14
8
-6
10
12
17
5
4
-1
-1
5
-4
-11
-10
-9
-11
-6
-10
3
0
-8
-4
-6
-4
1
6
3
6
9
3
2
0
-3
-8
-7
-5
9
0
1
1
-17
-8
3
-7
-6
10
10
6
16
7
-8
-15
-19
-6
3
5
6
9
1
-9
0
5
4
6
11
14
12
18
18
4
7
-8
-10
-2
13
11
14
19
21
14
13
20
28
14
23
26
29
21
33
22
24
34
25
32
34
36
51
45
43
48
45
51
48
40
52
46
45
47
53
44
53
52
31
33
37
43
46
47
48
40
30
34
34
34
29
29
27
15
18
14
14
17
-8
0
15
17
12
0
-6
1
18
9
-2
-13
-6
-3
3
-6
2
-2
2
0
-1
1
-1
-7
12
-8
-1
-3
0
-7
-15
-2
6
-8
-3
-2
-15
-14
-4
-10
-3
8
3
2
3
-6
-25
-15
-15
-11
-13
-5
1
-5
-1
4
-15
-15
-14
-13
-21
-14
-6
-2
-4
1
3
5
-3
-2
-11
-6
-7
-14
4
5
-3
-5
-5
-7
-13
-5
2
-2
9
2
8
8
-1
-2
-10
3
15
-3
-10
-4
3
-6
-11
-9
-1
4
-5
-4
-3
-3
-1
-5
0
0
-8
-2
3
2
9
3
-2
1
-7
-17
-11
-13
-1
0
-5
10
14
0
4
-10
-12
-4
-2
-6
-2
10
3
-2
5
-7
-6
3
0
3
1
4
-4
-9
-2
0
9
17
25
27
19
17
6
13
15
5
15
22
17
-6
-5
0
-4
3
-2
-2
-6
0
-2
3
-5
-5
-4
-7
5
-3
-5
-2
-1
-5
-9
-2
12
2
-9
-20
-19
-5
0
-2
5
5
1
-8
-5
-11
-7
3
9
12
2
-2
5
6
22
37
45
61
83
103
130
158
186
206
188
155
119
107
87
55
33
18
10
24
26
13
18
11
12
4
-4
4
-1
-5
-8
-17
-6
-15
-15
-16
-10
-11
-14
-4
-5
-12
-9
-2
-6
-3
-3
-8
-12
-13
-7
-15
-8
-5
-13
-18
-10
-5
3
9
-13
-4
-5
1
-13
-20
-3
-1
-6
-5
-7
-13
-4
-7
-6
-2
7
4
-1
-14
-10
-2
9
4
-6
-1
-6
1
5
10
8
4
14
8
12
9
6
-4
8
13
15
5
16
22
16
26
15
17
25
29
14
31
39
42
44
31
25
23
37
29
25
35
52
50
54
59
47
47
41
46
42
39
52
43
43
52
45
50
50
33
30
33
45
30
24
27
22
15
34
22
27
18
10
19
16
7
17
4
8
12
9
14
14
5
-4
-3
-2
-1
2
-5
-3
10
8
7
2
10
5
-7
-6
-1
-9
2
-3
3
-4
-3
-14
-15
0
-5
-5
0
-7
-5
-1
2
0
-2
-5
-5
-14
1
4
2
2
10
-13
-13
-7
-9
-10
3
8
-5
-10
-1
-10
-12
-11
-8
-14
-12
-11
-10
-6
0
-8
-13
-13
-1
3
-5
-11
0
-7
-10
-11
-7
-6
-15
5
7
3
-8
-19
-9
-9
-1
-15
-13
-2
-1
3
-4
-11
-3
4
1
-6
-10
-7
-2
-3
5
-3
4
-2
-8
-6
-13
-20
-11
-11
-8
-11
-16
-15
-9
-13
-12
-8
-5
-13
-9
2
4
-15
-13
-11
-8
-1
-4
-5
-10
1
-1
-13
-12
-8
-12
-4
-1
2
2
-1
-4
-6
-9
-7
-12
-10
-4
-5
-2
3
-1
-9
6
-4
-5
8
14
11
7
24
17
20
8
9
5
8
5
9
9
5
1
0
2
13
5
-5
-5
-5
-1
10
-2
1
0
-12
-8
-2
11
19
4
8
-2
-8
-12
-12
-10
1
-5
0
-9
-15
-7
-5
1
-1
-6
-2
6
8
5
22
7
6
-7
-3
8
22
25
40
57
81
98
126
150
184
214
210
181
94
69
40
20
17
20
31
21
25
24
18
3
-2
-7
-12
-10
-6
-11
-9
-10
-6
-16
-18
-6
0
8
-14
-17
-3
-7
-2
-10
-9
-12
-11
-13
-9
-7
-3
-11
-13
-12
-18
-7
-4
-7
-9
-9
-3
0
3
-2
-6
-3
-11
-16
-3
-4
-1
4
3
0
-2
0
3
-9
-1
2
0
1
7
6
2
3
3
4
2
-1
12
9
4
8
16
18
28
22
20
25
20
15
10
12
10
15
17
17
35
31
34
37
26
32
36
26
34
35
50
57
46
44
44
43
48
39
42
63
54
44
42
50
46
65
70
50
52
57
49
47
42
38
36
38
39
34
42
22
11
15
16
23
18
9
17
18
15
27
17
13
15
12
0
6
12
-4
-3
16
22
19
10
6
1
-1
-1
7
6
28
24
3
16
14
3
0
-6
-5
-4
16
13
-4
9
18
5
4
6
11
10
10
24
7
11
4
-2
10
-5
-4
-2
7
2
7
7
15
5
5
7
4
5
9
11
-1
8
5
-9
-12
-1
-3
4
8
10
11
12
16
11
12
16
11
12
20
6
11
16
14
9
6
6
-2
0
7
-3
11
15
14
15
15
7
10
12
13
17
15
6
1
4
8
15
21
30
23
10
9
12
3
-4
0
5
2
-4
8
5
10
21
12
1
13
8
4
9
11
5
9
19
13
6
12
21
16
9
2
5
0
13
5
5
11
11
13
21
16
21
27
33
22
23
23
24
8
19
14
12
15
25
22
29
25
19
13
15
10
3
10
12
7
0
12
13
14
22
20
20
12
17
13
9
14
9
10
10
4
9
17
18
4
2
6
19
35
35
12
18
17
10
8
23
20
27
36
36
45
63
81
106
122
139
155
192
198
173
147
113
104
80
56
31
31
15
17
16
15
24
26
13
11
7
10
8
9
12
15
17
13
12
8
14
5
-1
14
13
11
18
15
7
9
16
18
8
14
19
25
30
22
5
19
15
-1
0
19
8
-1
3
13
18
19
18
17
11
16
16
13
18
25
18
18
11
18
15
26
30
27
28
29
29
28
22
27
21
20
23
26
30
27
25
22
25
24
31
42
34
38
47
52
32
35
45
48
43
44
52
49
63
72
54
46
49
51
64
62
60
65
61
65
76
72
74
55
67
69
63
81
79
76
59
55
62
54
54
59
62
58
54
59
47
39
38
43
49
52
50
42
35
30
37
40
37
29
30
33
33
29
17
34
29
20
4
8
24
28
20
19
26
33
18
20
22
20
21
20
23
9
11
16
23
27
27
8
15
13
8
13
22
20
22
25
5
9
23
29
25
20
19
9
6
16
9
1
17
21
23
28
24
12
5
5
11
15
18
21
28
17
10
2
18
28
23
18
20
20
17
18
27
17
21
16
19
14
21
21
14
3
4
11
14
9
7
22
24
19
16
16
26
13
17
17
15
14
17
21
11
12
16
12
14
15
8
16
19
24
23
13
13
6
14
11
-2
11
20
19
14
13
13
-4
16
9
13
22
23
22
13
14
11
12
17
8
5
15
20
16
24
23
14
10
23
34
28
32
29
32
16
26
31
26
21
22
24
21
26
16
16
14
12
14
10
4
1
5
15
9
12
18
16
10
15
15
1
10
13
14
11
8
12
11
13
15
8
10
10
17
11
9
18
22
18
19
21
30
46
47
58
66
77
112
113
139
184
208
212
181
152
130
112
82
51
36
24
41
46
31
32
32
28
24
8
7
7
4
14
4
9
15
15
11
1
1
-8
4
18
17
3
6
-4
-7
3
-1
9
22
23
21
9
15
17
3
9
-8
-3
9
16
10
9
14
10
18
11
-3
12
13
11
14
18
25
14
14
7
4
14
16
16
12
13
9
14
16
14
14
19
32
30
36
30
23
31
26
22
24
22
30
34
38
37
31
35
29
32
39
33
38
38
40
51
48
44
54
41
42
39
56
60
48
52
51
62
59
61
58
58
60
58
61
56
48
52
57
61
53
64
63
60
50
41
42
36
39
43
48
53
46
39
31
42
27
30
30
20
12
25
32
32
27
25
24
30
15
17
13
16
13
16
16
23
17
18
10
8
5
14
24
21
6
16
13
11
4
4
3
12
5
12
17
17
22
20
16
15
14
12
7
5
11
4
11
9
15
17
16
25
18
8
14
16
2
6
9
15
5
13
15
14
21
20
16
10
3
-5
12
19
16
3
14
10
12
11
6
14
18
14
9
14
0
7
12
4
10
2
8
13
8
10
18
8
0
12
21
10
4
14
15
9
12
8
11
9
-2
-1
8
7
4
9
11
18
3
-1
14
10
19
15
14
12
13
15
15
9
14
8
12
3
13
9
11
11
2
7
11
11
4
13
3
8
19
16
18
24
21
17
26
20
28
20
24
18
13
19
20
16
20
13
8
7
11
2
7
3
8
4
12
14
2
-3
3
1
14
14
6
3
10
16
12
2
14
-4
-1
7
7
-2
15
-9
8
2
-7
1
5
13
15
4
12
13
21
35
52
53
71
87
101
126
162
191
214
213
186
160
133
102
72
50
28
25
12
21
24
31
31
21
8
14
20
16
3
-9
-8
2
8
11
22
14
-4
3
4
-2
-11
-8
-9
-4
-7
-3
5
10
9
7
-3
3
5
11
3
-4
8
9
-1
-1
-6
0
2
-10
-2
0
16
4
0
17
18
8
-5
-4
-6
4
11
5
14
10
10
8
10
16
11
13
20
16
8
24
10
13
23
26
29
29
25
24
15
21
15
14
22
23
28
37
37
33
38
49
38
31
30
30
42
43
48
52
42
35
37
38
44
46
48
53
53
59
70
72
58
41
44
45
43
51
50
54
55
42
36
37
43
47
42
41
49
41
25
30
20
24
20
23
30
23
16
30
16
21
5
14
13
3
21
24
12
10
12
5
7
4
0
4
5
13
18
26
6
3
9
3
7
5
8
0
3
1
7
18
0
-5
1
-1
2
8
0
0
17
10
16
8
1
2
4
1
-6
2
10
-1
-6
-3
5
6
4
9
6
4
4
8
4
-1
-16
3
8
-1
8
-2
-3
9
-1
4
20
11
12
0
3
-2
10
2
1
3
10
-4
2
5
2
6
20
14
13
10
14
6
3
5
2
4
11
4
12
4
5
0
15
13
2
1
16
9
15
11
13
16
15
12
14
6
5
-6
3
-4
1
9
7
6
15
10
8
6
9
18
15
10
16
5
6
13
15
5
14
30
24
23
41
29
24
22
24
19
25
20
18
15
26
20
24
28
21
31
29
17
13
17
21
22
10
14
16
11
14
24
23
13
15
5
16
22
14
24
14
11
20
27
24
17
14
16
16
25
19
18
27
37
37
31
17
22
25
31
58
64
70
86
105
128
156
181
205
211
190
170
143
119
109
75
37
34
31
34
37
33
21
25
31
34
33
34
39
27
16
16
14
34
28
19
14
20
10
12
25
28
16
23
28
22
13
25
23
31
27
35
26
29
40
38
25
42
22
28
27
28
26
41
37
38
41
28
28
24
29
26
27
36
26
33
37
50
42
46
45
38
32
39
42
37
44
29
42
38
32
37
43
49
42
46
47
51
43
40
53
48
38
52
51
49
56
71
67
65
68
69
54
68
71
69
67
67
58
69
77
77
77
82
81
83
83
88
79
83
76
70
71
78
82
79
78
85
77
72
66
76
69
68
74
82
75
68
60
53
62
68
51
47
51
60
57
52
45
43
46
34
54
60
52
36
31
35
34
38
24
41
57
51
36
35
42
45
44
45
38
34
50
48
39
37
38
41
36
36
32
33
36
37
42
32
41
49
49
44
42
30
32
50
42
44
38
34
41
40
37
46
58
51
49
44
47
40
31
44
36
46
46
55
54
42
45
49
47
45
48
50
53
49
46
55
62
59
58
51
42
48
48
49
44
53
55
45
49
53
41
43
51
46
54
48
45
44
45
50
53
61
61
49
45
55
50
43
45
44
53
51
48
49
56
68
50
41
51
51
40
36
48
45
43
43
43
46
44
50
56
57
53
63
69
61
49
61
59
43
56
65
62
60
71
75
47
44
49
48
41
28
44
53
47
46
44
43
52
45
45
50
55
46
38
43
36
49
45
40
42
46
49
45
39
34
36
48
50
44
41
52
66
60
54
58
45
54
53
68
83
108
122
130
139
157
163
187
210
205
196
186
161
157
118
81
57
65
70
58
53
57
52
51
53
50
47
52
54
48
54
56
53
54
49
56
46
47
45
46
52
54
57
52
55
65
56
48
53
51
58
66
67
64
59
63
66
59
68
53
44
55
61
54
64
65
59
62
73
61
53
66
61
59
62
76
67
64
58
55
72
66
68
73
68
63
61
67
69
69
66
78
75
69
70
66
70
73
69
69
83
83
83
89
85
86
92
91
87
72
87
100
92
94
102
103
108
107
96
97
96
96
103
112
98
90
106
105
100
100
111
112
96
92
101
102
99
109
98
96
104
98
92
80
81
77
75
61
67
69
69
69
67
78
86
68
80
72
65
60
65
64
68
65
64
67
73
70
52
52
61
69
50
44
51
45
56
57
58
49
47
50
55
57
55
66
61
48
44
46
51
50
48
49
50
41
45
44
61
60
67
61
58
58
46
54
57
50
50
50
55
58
61
53
53
49
45
37
46
49
61
55
59
62
50
51
58
47
44
51
60
55
60
56
52
47
51
53
48
51
58
50
51
49
47
54
58
48
46
46
45
47
53
56
50
50
53
57
44
57
50
50
54
47
43
46
55
54
53
53
58
57
46
58
54
52
59
61
54
49
58
52
43
55
59
60
44
52
49
67
59
65
66
69
68
64
62
58
54
67
69
55
57
52
52
59
62
50
39
58
55
54
50
46
46
47
43
43
47
48
53
58
52
60
47
52
49
54
51
51
49
46
41
42
38
45
43
39
48
54
60
69
52
63
58
60
66
87
92
106
139
143
173
196
215
249
232
203
186
173
156
132
96
87
78
74
81
79
75
68
70
61
52
43
38
43
41
45
53
52
41
49
48
44
49
51
51
44
49
46
46
54
56
41
42
47
49
36
55
54
41
33
45
39
41
45
42
42
55
52
58
47
45
46
53
54
45
48
53
54
50
46
47
43
41
46
52
46
55
50
52
43
54
56
54
46
40
46
61
52
47
48
51
59
60
61
59
52
64
64
63
62
63
63
65
73
74
76
73
66
78
88
61
69
80
85
89
85
87
90
81
78
87
83
92
84
86
88
87
93
87
81
74
80
76
79
75
80
78
79
73
68
71
60
71
66
65
63
71
64
52
48
60
50
57
48
49
54
64
56
60
53
50
50
56
48
46
39
45
39
44
46
46
47
51
50
44
50
51
42
45
43
52
46
45
42
41
44
46
52
46
49
36
40
45
43
52
49
48
36
35
42
43
47
37
46
43
36
48
51
47
49
44
32
50
46
44
52
34
46
50
50
43
49
45
40
35
36
41
47
45
40
39
42
44
37
40
41
46
48
41
41
30
37
41
36
39
50
52
45
47
52
41
45
49
45
42
40
35
40
46
45
41
35
31
45
43
51
56
46
37
46
47
47
29
25
31
47
48
46
48
45
32
34
45
35
29
23
45
44
46
52
40
37
38
44
44
49
53
51
52
54
44
58
55
49
45
50
53
54
55
48
41
40
32
35
46
45
46
38
37
39
28
36
51
42
36
43
43
39
35
35
26
25
32
27
28
37
38
38
48
41
33
41
34
24
31
37
35
32
46
28
29
45
40
43
81
104
117
131
155
170
199
237
246
218
202
167
141
113
89
67
41
51
53
53
57
60
54
39
52
41
31
32
22
23
28
26
11
16
28
22
25
23
26
29
29
24
19
30
20
12
23
27
23
17
18
22
30
29
21
14
22
23
26
27
26
29
29
20
24
27
17
26
26
27
36
31
29
26
39
30
30
26
22
24
36
30
33
39
27
29
31
38
28
25
37
39
34
43
47
36
40
40
28
25
38
42
37
42
49
48
45
49
44
50
57
49
46
50
54
57
63
65
58
63
64
59
69
69
60
64
69
72
64
80
82
74
83
72
58
63
69
71
70
67
59
64
67
65
50
51
55
50
38
50
39
42
39
41
40
25
27
32
31
30
32
31
21
22
20
20
25
19
16
21
16
19
24
38
23
30
33
28
18
27
21
25
25
20
22
21
17
19
20
29
32
29
13
28
34
28
32
34
25
30
17
9
21
14
19
26
23
17
15
15
15
12
23
13
19
22
25
25
25
19
18
20
18
13
17
15
14
12
18
25
30
19
6
16
16
16
17
21
19
14
8
19
22
21
20
22
16
11
6
19
15
17
16
16
14
15
7
7
16
18
22
17
18
18
14
17
19
20
14
17
13
14
7
9
-4
5
15
1
5
9
6
7
16
13
12
8
5
6
12
17
4
6
15
18
10
16
15
13
6
1
7
13
12
11
17
17
7
15
10
15
22
23
25
17
8
3
18
16
20
18
11
12
11
10
3
7
13
4
7
7
6
3
7
-3
-6
-3
-1
6
-6
-5
-1
5
6
0
-7
-8
-9
-8
-6
-1
-6
-4
-7
-9
2
7
-3
3
4
-3
0
4
7
2
1
-3
1
13
31
53
59
68
89
101
128
154
190
208
193
166
136
119
92
61
35
17
3
10
25
19
16
19
16
11
12
11
-2
11
5
-11
-10
-8
-6
-1
-4
-7
-5
3
5
-1
-3
-9
-17
-17
0
-1
1
-1
1
-5
-6
-4
-3
-2
-5
1
-12
-3
2
8
-6
1
6
2
3
-2
-2
-2
8
10
13
11
2
3
5
1
-1
2
-2
4
3
5
10
13
8
14
3
5
17
20
3
8
-2
6
5
12
20
23
23
24
22
25
24
23
19
15
24
34
37
27
39
35
36
45
43
29
38
36
36
41
41
40
45
56
52
51
46
45
40
46
49
54
52
53
43
40
39
50
48
43
44
40
31
36
33
32
28
29
21
24
25
34
21
18
15
6
5
17
14
24
20
10
-7
0
9
14
5
9
12
6
5
-3
3
4
10
9
3
1
-1
0
-1
3
-2
4
1
1
11
4
-3
-3
6
-2
-1
0
1
-2
-1
-9
-4
8
21
17
9
-1
-13
-9
-5
0
-3
-6
-2
6
-5
-3
-3
0
7
9
0
4
-3
-6
1
-6
4
2
6
2
0
-8
-4
-7
-12
-9
-9
-7
11
11
2
7
6
-1
-10
-4
-11
2
8
11
8
3
0
0
0
-4
-11
-4
-1
-5
-7
2
14
-5
-7
8
1
-7
-1
-2
-3
0
-2
-10
0
-1
-7
-7
-4
0
-2
6
2
-1
-3
-8
-10
-5
5
0
1
4
0
0
-13
-7
0
3
13
1
2
8
7
0
-3
1
-4
4
10
-2
7
2
7
4
6
15
15
5
13
22
22
9
13
14
13
7
7
11
16
11
4
4
3
4
-3
-3
-16
-13
-11
2
8
-5
4
-2
-2
-4
-6
-1
-4
-7
0
4
-6
-5
4
-1
-10
0
1
-1
-2
-5
-5
-2
-6
1
-2
3
5
5
1
21
39
49
60
68
94
123
146
167
208
211
175
147
117
99
74
53
28
18
16
15
18
9
12
12
8
14
-1
-8
-16
-12
-2
-5
-7
-11
-17
-13
-7
-2
-5
-4
-10
-4
-10
-1
-3
-7
-14
-15
-4
-7
-15
-12
-3
-16
-21
-4
-7
-10
-2
5
0
1
8
0
-4
-8
3
6
5
6
-1
0
0
-4
-2
4
8
-7
3
10
0
5
5
3
7
15
11
6
21
23
19
7
5
15
13
18
25
25
22
20
15
24
32
28
38
41
27
31
40
43
41
37
45
29
42
48
46
51
49
41
46
58
51
55
57
67
76
60
57
68
62
58
60
55
47
53
48
52
58
54
46
55
44
44
42
53
42
41
33
33
41
33
35
26
37
33
28
26
26
12
16
17
13
23
29
30
31
21
20
8
10
14
20
5
8
13
30
14
12
15
11
13
16
15
18
18
28
25
30
19
10
9
17
18
16
8
17
15
18
13
10
9
11
17
15
16
9
13
18
14
16
16
13
17
13
17
16
13
15
10
10
16
8
4
12
14
30
32
33
8
14
17
14
19
19
12
14
21
13
12
15
23
20
2
20
18
29
17
22
25
26
12
11
19
25
16
23
35
23
12
21
14
15
11
15
25
14
9
14
17
14
21
26
22
18
15
17
26
26
19
25
16
5
12
22
16
12
21
29
27
31
23
13
26
22
22
19
20
16
25
35
40
31
27
20
18
34
36
23
25
34
36
19
22
26
19
23
22
16
25
30
20
18
14
9
4
14
14
14
5
-1
-1
19
12
15
-2
4
14
6
4
4
-2
2
19
21
7
4
5
7
5
2
9
5
16
10
18
16
15
17
32
48
45
65
95
113
132
155
176
200
186
148
125
105
83
59
22
5
9
4
8
7
-7
2
12
3
9
6
-4
-19
-6
-3
-6
-8
-3
-3
-1
4
5
0
-7
-4
-9
-12
-5
-9
-6
1
-4
-4
6
0
1
7
-4
-10
2
4
2
-3
-9
-10
1
9
-2
-6
-5
-1
4
3
-4
-8
-4
-5
-4
1
1
8
0
-5
12
10
-7
-6
3
-2
6
-2
-11
-5
0
5
7
13
14
19
11
5
2
8
18
17
16
25
26
28
25
31
24
19
18
28
32
30
38
39
41
41
39
39
41
26
19
31
43
50
39
48
40
41
45
48
45
51
53
52
45
38
36
31
41
45
33
29
27
23
26
29
25
30
23
24
20
23
17
18
15
25
14
8
8
10
10
-1
-2
3
7
4
-5
-5
2
-2
-5
-2
7
9
14
14
6
-4
-5
-2
5
3
1
2
5
5
3
-2
2
-11
7
1
1
-10
2
11
3
12
13
2
7
8
6
-1
4
7
-9
-15
-4
3
11
16
8
-1
3
8
10
6
2
0
6
17
18
20
21
17
-3
6
10
0
1
4
12
24
23
0
-2
5
7
13
-3
9
23
27
22
13
7
1
-9
-10
5
5
10
13
12
8
-2
0
-2
-3
-5
8
17
-8
-9
-8
-15
-10
2
-4
-7
-2
2
-4
2
-3
-4
-10
-7
-4
-7
-3
1
-8
1
-8
-1
8
9
0
9
8
7
9
9
-9
-7
-9
-12
-24
-13
-4
2
7
-6
-23
-20
-16
-18
-25
-10
-7
-6
-14
-14
-21
-28
-20
-25
-18
-7
0
-6
-3
-23
-26
-3
-3
-17
-20
-15
-14
-32
-28
-15
-14
-12
-15
-16
-4
4
8
13
11
17
29
46
46
62
85
98
106
142
137
122
105
95
84
45
34
0
-8
-6
-13
-10
-5
-6
-13
-8
-8
-11
-19
-17
-11
-11
-15
-12
-13
-20
-22
-10
-19
-17
-10
-12
-15
-13
-2
-12
-17
-23
-12
0
-11
-8
-14
-19
-18
-19
-23
-19
-17
-19
-3
-6
-12
-10
-14
-20
-3
-2
-5
-8
-5
-14
-10
-11
-9
-7
-1
-13
-19
-15
-12
-16
-2
-5
-6
-7
-2
-7
-3
3
-2
-7
-11
-11
-11
-5
-4
7
10
-9
5
1
3
7
6
15
27
15
17
14
14
7
16
22
29
31
26
22
17
12
0
29
32
39
39
26
34
30
39
32
19
25
12
27
20
13
25
33
33
35
25
9
6
12
10
8
8
4
4
13
5
-8
-7
0
-5
-6
-5
-3
-9
-8
-13
-14
-25
-18
-16
-12
-12
-8
-19
-13
-15
-24
-27
-18
-11
-13
-24
-21
-8
-12
-29
-29
-13
-23
-29
-33
-20
-17
-30
-30
-23
-29
-28
-23
-17
-21
-23
-25
-23
-24
-26
-29
-21
-36
-34
-24
-19
-17
-26
-36
-36
-25
-26
-24
-29
-35
-34
-27
-28
-26
-24
-24
-26
-35
-34
-22
-19
-26
-29
-27
-29
-24
-26
-19
-22
-27
-23
-26
-30
-24
-18
-20
-23
-30
-26
-13
-25
-37
-23
-21
-43
-32
-40
-35
-27
-17
-28
-32
-38
-31
-20
-28
-11
-18
-22
-18
-24
-25
-24
-25
-34
-26
-18
-30
-23
-13
-24
-26
-25
-14
-16
-11
-7
-21
-16
-15
-19
-13
-11
-18
-18
-24
-27
-34
-20
-5
-31
-47
-41
-44
-39
-22
-13
-18
-25
-22
-42
-42
-34
-30
-35
-22
-26
-39
-33
-19
-24
-38
-35
-30
-32
-33
-20
-31
-39
-35
-30
-31
-30
-28
-20
-15
-16
-20
-7
-8
-2
-2
19
24
26
41
61
75
91
122
134
128
100
74
57
27
8
-10
-18
-21
-32
-20
-11
-18
-18
-17
-22
-25
-27
-22
-25
-28
-30
-37
-40
-30
-34
-28
-31
-42
-40
-28
-25
-23
-28
-29
-33
-31
-24
-28
-30
-39
-26
-29
-23
-31
-42
-38
-22
-24
-38
-28
-26
-29
-28
-25
-20
-18
-31
-26
-23
-37
-33
-41
-39
-40
-39
-51
-32
-18
-24
-29
-22
-26
-29
-28
-22
-31
-32
-33
-37
-28
-20
-18
-23
-32
-25
-22
-8
-11
-18
-26
-22
-17
-14
-15
-18
-16
5
-1
-11
-7
-21
-8
-10
-4
6
-1
1
-2
3
-1
1
10
0
-2
-6
5
10
5
2
12
10
8
23
15
18
7
-4
-14
-16
0
-3
3
1
-9
-12
-6
-9
-12
-12
-12
-32
-22
-14
-15
-24
-26
-16
-31
-19
-22
-33
-33
-34
-44
-41
-26
-23
-21
-26
-33
-31
-36
-43
-29
-34
-34
-27
-20
-22
-24
-25
-18
-39
-41
-40
-36
-31
-25
-40
-35
-36
-30
-28
-41
-42
-34
-39
-40
-36
-37
-34
-47
-41
-41
-33
-25
-30
-31
-36
-28
-38
-47
-39
-37
-34
-40
-36
-30
-30
-34
-35
-33
-40
-39
-36
-28
-30
-30
-26
-24
-32
-33
-38
-36
-34
-34
-30
-27
-34
-31
-42
-54
-38
-32
-33
-31
-35
-27
-35
-40
-32
-30
-25
-30
-32
-28
-34
-26
-37
-43
-38
-53
-43
-40
-43
-38
-37
-25
-28
-27
-36
-22
-39
-41
-46
-50
-38
-36
-33
-27
-32
-27
-37
-42
-34
-29
-30
-37
-36
-40
-35
-20
-37
-31
-30
-34
-25
-33
-39
-36
-34
-31
-31
-35
-30
-26
-31
-19
-18
-17
-12
-16
-23
-23
-20
-29
-35
-36
-31
-32
-35
-31
-25
-33
-30
-30
-32
-30
-37
-47
-51
-45
-32
-35
-36
-30
-32
-42
-40
-37
-38
-32
-39
-45
-45
-46
-38
-36
-31
-37
-34
-48
-33
-32
-34
-22
-28
-24
-13
-12
-13
-1
20
32
54
74
91
109
143
147
148
119
97
77
60
43
15
-9
-15
-29
-23
-20
-20
-24
-19
-14
-19
-19
-31
-38
-38
-41
-50
-39
-34
-40
-40
-38
-37
-41
-35
-33
-42
-44
-33
-47
-35
-34
-33
-33
-41
-38
-34
-47
-40
-37
-46
-36
-35
-31
-40
-39
-41
-41
-45
-44
-41
-32
-31
-29
-30
-34
-38
-38
-40
-35
-38
-34
-31
-40
-42
-37
-38
-24
-25
-35
-33
-28
-28
-28
-29
-34
-35
-27
-28
-27
-18
-20
-26
-23
-18
-14
-25
-15
-22
-10
-10
-20
-22
-19
-7
-10
-11
-10
-8
0
-2
-2
7
2
-6
1
0
2
9
-3
10
5
8
9
11
9
11
6
8
7
6
23
3
-4
3
-5
-8
-13
-9
-7
-15
-6
-13
-13
-11
-14
-16
-15
-17
-28
-25
-20
-27
-24
-27
-34
-41
-34
-28
-26
-31
-29
-31
-32
-28
-43
-39
-41
-43
-37
-34
-35
-41
-31
-31
-45
-48
-45
-39
-40
-39
-42
-36
-33
-37
-40
-32
-34
-42
-43
-33
-45
-41
-36
-32
-37
-31
-27
-37
-29
-43
-38
-42
-39
-40
-43
-39
-42
-40
-52
-49
-41
-38
-34
-33
-33
-32
-46
-52
-50
-44
-38
-35
-42
-36
-45
-45
-43
-49
-42
-30
-38
-38
-41
-40
-38
-33
-31
-31
-37
-44
-49
-38
-33
-29
-34
-41
-35
-29
-32
-30
-38
-46
-35
-44
-46
-37
-27
-35
-25
-33
-27
-48
-41
-41
-37
-28
-41
-36
-37
-39
-30
-27
-33
-37
-46
-49
-47
-45
-49
-39
-36
-41
-40
-47
-43
-45
-33
-37
-48
-29
-39
-43
-39
-41
-46
-41
-40
-44
-39
-34
-42
-39
-36
-43
-32
-29
-27
-24
-37
-31
-41
-43
-44
-40
-31
-23
-20
-13
-23
-20
-26
-19
-21
-33
-37
-34
-28
-25
-23
-29
-39
-27
-28
-38
-38
-36
-25
-39
-36
-26
-36
-34
-37
-41
-42
-38
-34
-42
-36
-41
-51
-56
-52
-56
-41
-37
-43
-33
-39
-38
-38
-34
-41
-45
-43
-38
-36
-28
-20
-37
-30
-41
-24
-13
4
12
28
45
74
98
121
150
171
158
124
97
73
52
38
5
-13
-20
-16
-14
-15
-11
-15
-26
-27
-40
-48
-45
-46
-45
-41
-38
-43
-52
-47
-46
-44
-53
-61
-47
-40
-40
-47
-36
-34
-37
-33
-44
-43
-34
-42
-49
-53
-49
-42
-43
-46
-43
-43
-35
-30
-47
-48
-42
-49
-40
-38
-47
-40
-43
-26
-28
-21
-32
-45
-43
-37
-46
-45
-45
-40
-44
-37
-20
-18
-32
-26
-28
-28
-28
-29
-37
-36
-34
-29
-32
-27
-33
-41
-21
-15
-12
-22
-26
-29
-22
-14
-17
-20
-4
-7
-14
-8
-9
0
2
9
12
1
-12
0
3
9
8
3
6
7
2
4
9
12
12
17
15
11
-3
0
13
-1
-4
2
-3
3
8
9
-6
-20
-19
-14
-14
-12
-24
-23
-9
-25
-17
-19
-29
-26
-19
-23
-23
-22
-24
-33
-35
-31
-25
-28
-22
-26
-35
-42
-38
-39
-40
-32
-42
-32
-37
-21
-29
-38
-29
-31
-26
-24
-29
-32
-34
-28
-29
-28
-37
-36
-32
-38
-35
-38
-23
-24
-30
-42
-33
-33
-33
-41
-30
-27
-35
-31
-31
-33
-34
-41
-35
-38
-43
-48
-29
-31
-42
-40
-36
-36
-39
-43
-37
-36
-32
-32
-38
-44
-40
-39
-28
-26
-41
-32
-31
-20
-29
-32
-33
-40
-28
-44
-47
-32
-25
-31
-30
-33
-33
-35
-39
-34
-40
-44
-26
-24
-25
-31
-32
-28
-38
-30
-41
-39
-35
-41
-31
-40
-44
-45
-41
-35
-31
-31
-27
-28
-28
-36
-38
-44
-38
-28
-36
-37
-37
-35
-37
-31
-30
-32
-30
-27
-29
-26
-29
-32
-42
-29
-34
-30
-41
-37
-35
-29
-31
-31
-29
-36
-35
-25
-30
-34
-34
-31
-23
-16
-24
-25
-38
-36
-30
-27
-34
-34
-25
-31
-20
-19
-13
-14
-11
-24
-31
-18
-18
-8
-17
-20
-36
-38
-39
-29
-14
-15
-15
-22
-27
-33
-41
-33
-32
-36
-37
-34
-30
-34
-40
-34
-31
-21
-27
-31
-30
-28
-34
-33
-31
-35
-36
-44
-42
-49
-37
-28
-33
-28
-32
-22
-19
-20
-32
-39
-39
-26
-23
-19
-10
15
18
40
56
57
78
114
154
172
161
134
119
95
70
42
20
-10
-31
-23
-19
-12
-22
-28
-26
-33
-28
-24
-43
-44
-43
-46
-34
-30
-36
-47
-48
-38
-41
-43
-36
-55
-52
-37
-46
-35
-28
-41
-35
-37
-29
-32
-39
-39
-31
-33
-28
-29
-28
-36
-44
-47
-35
-37
-39
-27
-30
-41
-35
-46
-43
-42
-44
-46
-29
-29
-22
-23
-34
-38
-28
-29
-38
-36
-34
-33
-32
-24
-19
-35
-32
-29
-19
-18
-30
-20
-21
-30
-22
-23
-16
-31
-21
-24
-23
-20
-6
-6
-8
-12
-2
-15
-12
-1
-2
-11
10
5
4
9
8
-5
4
12
11
13
16
17
18
12
8
7
14
8
10
-1
16
11
8
9
10
6
7
2
-3
-2
-2
-3
-9
-10
-6
-20
-12
-13
-11
-13
-13
-10
-21
-15
-17
-23
-32
-24
-29
-28
-24
-22
-22
-22
-27
-36
-34
-29
-38
-28
-34
-23
-41
-34
-32
-37
-32
-32
-33
-41
-34
-31
-28
-33
-27
-31
-30
-39
-41
-34
-35
-31
-32
-25
-24
-31
-44
-49
-43
-35
-31
-29
-28
-24
-19
-39
-43
-37
-39
-30
-33
-41
-38
-24
-34
-38
-33
-41
-39
-37
-27
-38
-34
-29
-35
-32
-29
-39
-31
-32
-27
-35
-31
-35
-33
-43
-44
-43
-36
-30
-24
-31
-32
-22
-37
-40
-38
-31
-45
-36
-37
-28
-21
-27
-36
-41
-46
-37
-27
-22
-19
-35
-32
-34
-29
-43
-47
-47
-38
-36
-35
-34
-31
-30
-29
-37
-28
-40
-37
-24
-28
-27
-31
-37
-38
-41
-47
-42
-34
-28
-23
-27
-36
-40
-35
-46
-35
-35
-36
-28
-37
-29
-27
-32
-29
-32
-38
-33
-28
-27
-34
-34
-26
-23
-28
-19
-21
-30
-35
-26
-26
-25
-20
-24
-22
-20
-32
-33
-18
-20
-19
-25
-22
-18
-21
-22
-27
-25
-15
-15
-12
-21
-24
-16
-22
-33
-36
-43
-47
-28
-24
-26
-21
-26
-37
-27
-28
-34
-31
-32
-32
-27
-28
-22
-18
-22
-27
-38
-40
-28
-32
-24
-19
-34
-37
-29
-23
-33
-27
-18
-24
-27
-21
-35
-29
-8
12
18
45
63
84
95
123
148
172
167
129
103
86
75
44
12
-6
-20
-19
-3
-2
-8
-11
-17
-19
-18
-29
-29
-30
-30
-42
-39
-27
-33
-37
-34
-37
-45
-23
-34
-38
-39
-26
-30
-42
-36
-31
-38
-34
-31
-34
-41
-27
-27
-34
-30
-32
-27
-31
-35
-38
-39
-36
-22
-20
-19
-22
-21
-21
-32
-44
-33
-19
-28
-40
-29
-29
-43
-32
-32
-27
-22
-11
-24
-27
-27
-15
-29
-25
-25
-27
-21
-16
-14
-13
-11
-16
-25
-8
-6
-5
-5
-3
-8
-8
-21
-11
-11
-3
-5
-11
-7
-1
11
8
3
9
10
16
17
13
20
18
19
27
21
29
21
17
26
17
16
8
9
17
21
18
21
25
18
21
17
23
8
7
7
-5
3
1
-5
-12
-6
-5
4
-3
-6
0
-8
-14
-22
-30
-10
-17
-14
-24
-16
-18
-16
-32
-33
-25
-24
-22
-19
-30
-27
-32
-23
-15
-14
-21
-28
-21
-19
-20
-28
-31
-32
-27
-21
-23
-24
-18
-18
-20
-23
-28
-19
-24
-24
-25
-27
-38
-30
-24
-21
-22
-27
-18
-23
-31
-21
-21
-22
-17
-20
-37
-32
-21
-26
-12
-21
-26
-17
-29
-27
-23
-18
-24
-22
-17
-19
-20
-32
-12
-14
-27
-21
-23
-21
-18
-16
-13
-16
-16
-12
-20
-19
-22
-41
-34
-43
-45
-58
-76
-89
-105
-105
-90
-98
-98
-92
-95
-81
-85
-91
-105
-92
-90
-91
-90
-89
-91
-84
-83
-93
-85
-84
-74
-82
-90
-85
-83
-74
-67
-75
-72
-71
-73
-70
-63
-59
-61
-57
-44
-47
-46
-54
-44
-39
-36
-36
-35
-44
-48
-50
-43
-44
-38
-36
-37
-25
-31
-40
-33
-32
-33
-28
-37
-36
-37
-23
-22
-17
-22
-23
-22
-19
-7
-12
-12
6
-16
-19
-21
-17
-17
-18
-18
-29
-27
-21
-27
-25
-12
-14
-18
-17
-25
-20
-9
-10
-25
-27
-19
-27
-22
-21
-45
-30
-24
-22
-29
-25
-18
-23
-24
-44
-36
-30
-25
-20
-22
-14
-15
-23
-21
-19
-29
-18
0
16
26
34
55
72
101
124
139
165
174
149
118
93
76
50
25
10
-22
-5
-3
-7
-8
-1
-4
-3
-1
-9
-34
-23
-18
-19
-28
-28
-24
-37
-33
-16
-33
-22
-17
-18
-18
-17
-27
-23
-27
-26
-29
-22
-13
-13
-20
-12
-15
-13
-23
-24
-24
-10
-7
-15
-13
0
-22
-15
-19
-9
-14
-18
-16
-10
-11
-16
-21
-18
-21
-8
-9
-25
-20
-12
-11
-6
-13
-11
-1
2
-4
-8
-13
-11
-6
1
-8
-8
-2
0
0
-3
1
3
-2
8
6
5
-1
1
9
16
8
20
26
19
13
32
25
19
24
34
30
33
37
38
29
24
33
36
35
35
35
37
33
41
39
22
31
34
33
36
32
38
27
17
26
32
29
10
10
11
7
17
16
9
9
11
-3
-5
1
8
9
4
-1
-4
-7
-9
-4
-8
-8
-12
-12
-2
-6
-7
-14
-10
-9
-11
-9
-8
-15
-2
-4
-2
-10
-20
-22
-22
-15
-3
-6
-14
-15
-11
-8
-10
-19
-21
-12
-10
-11
-16
-8
-7
-7
-4
-22
-15
-9
-2
0
-9
-12
-13
-11
-16
-20
-21
-10
-10
-10
-10
-8
-6
-8
-11
-8
-11
-16
-1
-12
-7
-10
-15
-15
-6
-15
-11
-11
-11
-17
-10
-5
-5
-15
-16
-5
-2
-4
-2
7
7
-5
-9
-4
-15
-21
-10
-11
-8
-8
-6
2
-6
-10
-14
-18
-16
-7
-2
-9
-9
-8
-9
-8
-8
-4
-13
-5
-14
-13
-6
-5
-4
-2
-9
-4
-14
-8
-9
-19
-6
0
-17
-1
9
1
-6
-13
-2
-8
7
20
21
18
2
8
5
5
14
5
-7
2
11
0
-8
-9
-2
-5
-5
-12
-6
1
-8
1
-2
-17
-19
-4
0
-5
-1
1
2
-4
-1
-14
-6
-10
-7
-5
-5
-9
-26
-19
-4
4
-1
-5
-5
-1
-1
0
-2
-2
-3
8
17
18
25
39
41
61
89
102
126
142
180
201
187
156
129
94
72
52
39
13
18
21
10
18
26
16
7
-10
-4
-4
0
-8
7
2
-10
-8
-8
-10
-10
-2
-14
-13
-4
-1
-6
-15
-10
-13
-19
-3
-4
-9
-9
-14
0
2
0
-4
-2
-9
-6
-7
1
-2
10
-4
-8
-9
-6
8
11
1
5
2
12
-7
-9
-17
-9
-1
5
-4
-6
-9
-5
0
-4
-5
-3
-2
12
11
7
20
9
8
5
11
9
9
8
14
22
18
10
14
18
21
31
32
20
16
35
35
24
31
30
36
36
36
29
34
43
42
34
39
43
50
35
47
53
43
43
42
31
39
37
39
35
50
47
34
31
36
32
32
37
29
20
31
24
23
10
7
3
5
14
13
12
21
16
10
9
-7
2
2
-2
-1
-4
7
6
4
3
4
2
4
-7
-11
-7
-6
-4
2
3
15
8
-3
5
-13
-13
-19
-5
-2
-11
-7
-6
1
-3
2
4
8
-3
-2
1
-8
-11
-16
-10
0
-9
5
6
4
1
-2
-4
-1
-14
-7
-9
-8
-6
2
3
10
7
4
5
-10
-13
-7
-3
3
7
-7
-8
-5
-9
-1
2
6
2
1
1
8
-7
-10
-3
-14
-2
0
5
-11
2
-1
-8
-5
0
6
16
4
2
4
-4
2
-6
-11
-18
-19
0
7
11
-4
3
11
6
-2
7
1
3
-2
5
9
11
3
5
21
22
10
16
15
6
20
19
7
5
14
8
7
14
13
14
16
14
4
1
5
0
-6
1
9
-6
-4
12
10
11
-4
0
2
-3
2
2
-1
2
1
-5
-3
-7
1
9
-2
2
-3
-14
-15
-6
6
-5
1
11
13
6
9
8
14
41
54
62
70
100
115
128
164
194
205
166
130
105
90
59
37
13
2
9
11
6
13
10
5
14
17
8
0
-2
-8
-6
-9
-4
-4
-13
-3
3
-4
-4
-6
-11
-8
-2
-3
0
-2
-10
-3
0
2
-5
-7
-12
-10
2
-5
-5
-2
-1
2
-3
-6
3
-1
-1
6
3
2
-10
-2
5
12
10
-14
-3
3
-4
3
11
17
10
13
11
13
10
10
7
19
21
5
-3
4
-9
14
17
6
7
7
17
18
35
18
18
28
26
23
31
18
20
23
24
25
28
38
49
47
34
42
38
38
31
40
44
49
53
48
45
50
62
52
49
49
33
35
41
47
49
51
46
47
43
37
24
26
42
31
30
33
29
32
31
19
20
22
13
12
21
13
4
15
7
11
6
13
0
-7
2
2
6
8
-18
0
0
2
-2
-11
-9
0
-3
-5
-7
-4
6
17
5
2
-1
-4
1
-12
-3
-11
-4
3
-2
-4
-4
1
-2
3
1
4
-10
-6
-10
-2
0
0
-2
-5
-1
2
2
11
11
13
-1
-1
-10
-12
-10
-10
3
5
0
3
4
-3
-6
-3
7
0
-3
-5
-1
-1
-3
0
-3
-5
3
-10
-2
0
0
3
-3
-10
-2
-3
1
3
0
-4
-1
-8
7
2
9
2
-5
-12
-8
-11
-7
-16
-8
-11
-11
-7
-8
0
14
8
3
-2
0
-7
-7
-11
-5
-10
-10
-2
2
1
16
-11
-3
2
3
3
10
9
3
-2
7
7
6
-2
-4
-1
12
-7
-5
-11
-8
-12
-18
-5
-8
-12
-9
-8
0
-21
-14
-5
-8
-19
-19
-12
-1
-14
-16
-19
-14
-12
-2
-7
-13
-12
-8
-9
-16
-8
-8
-6
-4
0
-17
-4
-2
7
3
15
31
26
52
74
94
112
132
165
184
183
154
121
101
86
52
32
19
21
23
-2
-1
4
2
-5
-23
-13
-8
-12
-15
-14
-11
-7
-10
-16
-27
-22
-7
-14
-15
-8
-8
-13
-18
-11
-21
-11
-4
-15
-19
-13
-24
-18
-14
-18
-13
-19
-14
-10
-5
3
-11
-14
-10
-14
-20
-10
-8
-10
-16
-12
-15
-12
-12
-4
2
-6
-13
-12
-6
-11
-18
-16
-12
-8
3
9
-2
-4
3
2
-7
-9
-15
-9
5
12
7
8
16
17
8
9
12
-1
14
13
16
21
17
17
19
18
13
11
11
31
39
38
30
28
36
38
41
40
36
35
33
33
37
45
34
36
36
42
36
34
41
44
41
38
29
29
35
30
19
16
25
22
10
7
4
15
20
9
8
17
6
3
4
13
3
1
2
-7
-11
-10
-8
-6
-2
6
7
-2
-5
1
3
-14
-9
-7
-9
-11
-9
-15
-1
9
11
4
-10
-9
-6
-17
-19
-15
-12
-4
-3
-5
3
5
2
-8
-14
-17
-8
-7
0
4
-11
-6
-6
-10
-6
0
-8
-13
-7
-3
1
-1
-9
-3
1
-14
-9
-10
-5
-12
0
-11
-7
-17
-4
-8
-4
1
-1
-9
-14
-10
-3
-10
-11
-7
-5
-15
-6
-5
7
-2
-5
-10
-5
-4
-5
-14
-2
-5
-17
-15
-6
-7
-13
-9
-11
-7
1
7
4
0
1
-4
-19
-28
-21
-10
-9
-8
-7
-3
6
-7
-6
4
0
-5
3
-3
0
0
5
7
1
-4
-5
2
13
13
-2
0
-13
-18
-7
-12
-23
-8
-3
-7
-6
-6
-14
-22
-17
-20
-13
-15
-12
-10
-6
-3
-7
-5
-24
-21
-19
-17
-3
-4
-13
-10
-8
-8
-12
-12
-24
-16
-13
-11
-4
1
-8
2
36
45
55
70
96
117
126
164
177
183
160
134
105
79
55
34
9
4
7
-5
-8
-6
-6
3
2
-7
-7
-9
-13
-21
-24
-21
-25
-19
-23
-21
-28
-22
-14
-25
-24
-23
-23
-13
-17
-19
-15
-14
-15
-17
-20
-24
-25
-18
-18
-20
-24
-16
-23
-27
-26
-10
-11
-13
-12
-21
-28
-18
-17
-22
-13
-17
-24
-20
-20
-23
-29
-20
-18
-21
-17
-16
-21
-9
-1
-14
-14
-19
-24
-7
-4
-12
-10
-4
-15
-12
-1
-7
-11
-11
2
1
-4
-3
-3
-5
-2
10
-3
9
10
5
0
7
10
14
9
18
16
23
19
13
15
21
17
23
23
19
18
30
15
12
17
13
16
19
22
19
