77
96
97
89
100
86
114
110
158
168
189
147
99
43
41
-30
-46
-6
-3
8
77
32
27
10
14
-46
-24
-30
-13
12
54
65
42
31
20
-5
-28
-11
-7
16
54
54
28
2
-15
-25
-19
-19
14
21
48
41
29
11
11
-6
-18
10
25
2
34
32
29
-4
5
-6
-10
4
21
33
58
43
35
-9
-47
-41
-19
-23
10
25
58
63
41
7
-7
-16
2
16
18
39
48
54
48
21
2
7
10
1
11
29
44
36
35
28
-1
-3
-5
7
16
53
61
28
47
52
27
1
7
27
13
47
71
51
39
27
3
15
20
17
25
69
70
59
42
32
18
37
27
39
49
50
51
54
45
2
-2
23
9
7
13
41
39
33
12
9
-11
-41
-29
-7
6
42
54
21
17
-12
-22
-35
-35
-8
-3
38
59
25
-2
1
-3
-14
-28
-13
-6
18
7
35
13
7
-28
-30
-7
0
0
31
17
-3
3
-11
-27
-21
-17
10
17
35
34
43
5
-5
-32
-23
-17
-3
27
36
25
20
-4
-15
-36
-36
13
13
14
47
31
27
-14
-20
-32
-32
-1
-12
15
37
21
20
-34
-25
-29
-31
-30
3
5
33
23
-1
-1
-19
-43
-30
2
-6
11
36
44
16
3
-21
-22
-21
-3
1
9
42
15
-2
-16
-30
-19
-28
-19
-25
41
32
18
-2
-1
-22
-33
-33
-31
-12
5
15
13
6
23
-36
-43
-19
-22
-8
34
36
14
-5
-14
-52
-41
-54
-30
-4
46
37
28
8
-13
-26
-24
-22
-22
18
26
35
26
-2
-9
-24
-31
-6
-25
11
28
37
38
25
9
-28
-21
-29
-13
3
14
14
23
3
5
-27
-32
-49
-35
-25
1
14
14
4
-17
-40
-37
-28
-27
-10
-4
5
-5
-2
11
-20
-18
-21
-21
10
15
28
36
18
-1
15
29
34
101
147
156
208
173
122
94
22
1
-13
-3
2
5
34
16
-9
-46
-55
-37
-21
-5
-17
18
1
14
-7
-36
-43
-37
-25
-11
16
7
8
-3
-23
-22
-30
-26
-32
-1
16
35
18
-18
-28
-35
-19
-31
-19
-7
7
10
-10
-15
-2
-38
-70
-34
-2
-4
13
21
21
-30
-33
-34
-22
-19
-51
12
43
20
1
-4
-7
-44
-16
-19
12
21
7
12
29
11
5
-60
-58
-23
6
25
36
38
35
33
5
-25
-12
8
3
8
21
38
29
24
4
-42
-3
-21
13
11
20
37
79
24
2
0
3
12
17
28
51
60
30
-2
30
-36
-35
11
31
32
68
40
24
4
6
3
-13
-2
0
15
33
47
9
-17
-18
-15
1
13
-17
-1
38
25
8
-17
-23
-37
-43
-26
-9
-9
11
-5
-17
-13
-20
-48
-32
-9
7
7
6
12
-5
-13
-16
-24
-43
-62
-2
13
17
29
19
-12
-35
-54
-66
-28
-3
11
29
35
-4
-21
-47
-39
-46
-21
0
33
17
-4
-9
-7
-39
-37
-43
-30
3
11
40
13
5
-24
-33
-43
-36
-10
-2
19
27
-32
13
-6
-35
-38
-24
-24
-26
23
-6
-19
-21
-32
-58
-49
-20
-23
-12
40
16
13
30
-3
-40
-44
-66
0
-1
7
31
27
-7
-29
-44
-47
-49
-27
-18
6
13
-7
-35
-45
-73
-33
-18
23
-1
11
17
12
-6
-30
-44
-33
-18
-19
-27
-3
6
6
-18
-38
-52
-28
-20
-29
-9
21
25
6
0
-12
-25
-36
-13
-1
9
20
18
10
-25
-8
-40
-47
-33
-26
-4
23
-4
39
-19
-19
-31
-28
-45
-18
-22
-13
-15
-18
-9
-26
-35
-54
-38
-24
-12
14
16
21
-26
-47
-67
-66
-49
-5
11
31
36
29
37
18
2
52
62
89
139
151
189
141
112
68
11
-31
-41
-26
15
-42
-2
-10
-12
-38
-73
-45
-21
-13
-28
4
18
-29
-20
-29
-52
-45
-20
-17
2
14
4
11
-38
-46
-31
-50
-7
-41
17
-19
-42
-14
-32
-46
-35
-12
0
-38
12
15
27
14
-14
-56
-52
-44
-26
-9
37
3
22
9
-19
-42
-63
-13
-12
2
16
28
14
-12
-9
-44
-65
3
-3
-3
8
17
3
-18
23
-15
-55
-10
-2
22
35
10
-11
7
-8
7
-40
-9
10
0
35
63
12
12
-4
-20
-16
25
10
25
54
67
50
28
0
-27
-9
30
30
22
53
51
22
23
3
2
-24
16
30
48
32
30
44
14
-10
-13
-34
-9
-2
-1
18
-4
9
20
25
-2
-18
-3
-5
10
39
23
5
-16
-33
-23
-27
-46
-5
2
15
8
-21
-29
-31
-45
-34
-16
-16
4
-1
2
9
-5
-53
-18
-28
-7
-5
3
9
-3
-17
16
-49
-29
-36
-26
-10
19
15
-13
0
14
-45
-50
-62
-14
32
15
14
26
1
-16
-30
-27
-23
-28
-39
22
19
14
2
-10
-15
-30
-41
-31
-7
5
12
15
1
-5
-51
-40
-39
-19
-28
31
20
-15
15
5
-67
-71
-44
-22
8
27
13
3
-22
-28
-28
-67
-35
-17
-14
12
10
19
7
-28
-49
-18
-16
-17
-6
32
26
-27
-27
-40
-41
-52
-39
-20
13
2
32
38
6
2
-28
-45
-7
15
-1
29
12
26
-23
-28
-45
-24
-1
-4
22
7
9
-7
-18
-46
-71
-68
-50
-41
-5
17
22
7
-3
-17
-51
-37
-36
6
-21
10
9
4
-43
-32
-49
-41
-44
-39
15
5
5
-21
2
-23
-13
25
38
54
77
119
117
138
138
109
113
92
73
65
47
-2
-28
-24
-21
-67
-82
-75
-26
1
32
4
0
-1
-19
-55
-36
-44
-23
-20
3
14
5
-31
-38
-57
-30
-7
-7
8
24
7
-3
-7
-28
-55
-58
-50
-32
6
-7
-18
4
-11
-21
-38
-40
-56
-35
-3
10
62
-4
-10
-43
-48
-30
-32
-11
16
19
22
-5
-23
-13
-40
-28
-17
-1
12
21
17
-9
-7
-41
-37
-44
-25
31
15
22
10
-6
-17
-15
-30
-17
1
4
16
40
14
26
-6
-7
-36
-26
-5
27
25
37
47
30
43
-18
-15
0
10
-2
41
40
43
29
25
-19
-37
-25
-11
1
28
54
61
35
3
-21
-4
4
9
15
49
52
35
-4
2
-35
-35
-28
-5
-1
23
19
24
-20
-12
-45
-36
-26
-24
-24
10
16
4
-3
5
-38
-38
-42
-7
-11
19
3
-14
-14
-26
-60
-33
-51
-28
-4
43
17
-27
-8
-45
-36
-39
-39
-30
-10
19
4
-14
-3
-20
-58
-52
-44
-34
-11
6
4
-3
-19
-17
-47
-23
-24
-2
30
14
12
-9
-27
-16
-57
-51
-20
4
2
9
-1
-15
-28
-20
-46
-48
-29
-3
6
9
12
10
-15
-31
-56
-23
-37
-26
-6
6
-1
-26
-25
-36
-46
-38
-35
-14
0
9
16
-11
-32
-29
-30
-36
-28
2
0
-2
5
-19
-25
-46
-50
-62
-19
-22
-1
30
23
3
-13
-50
-31
-21
-1
-1
-4
6
17
28
3
-22
-29
-33
-11
-4
14
-2
-13
-14
-17
-38
-41
-49
-28
-22
20
21
13
-29
-29
-57
-49
-43
-17
5
8
18
15
-10
-30
-56
-38
-29
-38
-26
3
7
-4
-11
-38
-39
-22
0
22
43
73
87
104
101
88
118
128
129
116
112
90
0
-10
-25
-23
-50
-40
-24
-19
-10
9
21
-13
-21
-13
-39
-37
-39
-19
6
18
-6
-19
-15
-42
-54
-60
-36
-21
0
10
-9
-3
-1
-22
-26
-54
-48
-35
10
35
3
-1
-15
-24
-50
-31
-21
4
-8
8
22
23
2
-24
-37
-35
-18
-11
-3
28
15
-1
-22
-28
-38
-50
-37
-17
7
9
15
5
-14
-5
-3
-42
-20
-10
22
33
9
-12
-1
-21
-33
-28
-5
2
23
40
15
-2
19
-5
-3
-12
-1
6
32
39
25
36
11
-39
-18
-3
-2
40
39
22
12
22
9
8
-11
20
16
26
28
42
15
19
0
-20
8
3
23
18
39
39
13
7
-2
-32
-18
-29
-13
24
31
28
1
1
-18
-35
-38
-51
-36
-24
20
12
12
7
-14
-40
-22
-41
-19
-22
8
14
17
3
-4
-49
-45
-33
-19
-15
6
19
10
-25
-24
-39
-70
-34
-7
9
19
15
7
-7
-31
-42
-51
-35
-4
-2
1
1
9
-30
-46
-55
-32
-22
-8
-1
48
3
-21
2
5
-61
-40
-19
-1
-4
15
9
-21
-12
-24
-45
-46
-46
-19
-7
33
35
2
-5
-42
-59
-44
-17
-20
19
18
-3
-18
-35
-42
-34
-30
-1
2
17
16
18
-15
-9
-26
-34
-24
-14
-18
34
28
3
2
11
-29
-28
-33
-13
8
0
16
-8
-8
-25
-35
-65
-43
-15
-20
-13
2
0
-8
-28
-45
-45
-42
-21
-5
32
41
-1
-12
-26
-80
-23
-28
-27
5
16
7
-14
-13
-19
-37
-20
-42
38
34
85
109
100
92
124
84
102
75
95
71
56
20
-14
-33
-39
-81
-56
-42
-22
-36
6
2
8
-9
-12
-53
-43
-20
-36
-24
21
20
21
-19
-45
-29
-41
-35
-5
-9
16
10
5
-21
-25
-33
-56
-52
-11
-5
3
38
-5
-1
-20
-36
-38
-37
-3
-10
-3
6
13
-2
-29
-44
-30
-16
-7
-7
29
2
-8
-12
-22
-21
-18
-27
-7
13
31
2
4
6
-18
-50
-21
-1
3
26
21
29
8
-12
-21
-32
-24
-13
-9
27
34
47
12
2
-16
-7
-3
14
21
22
24
40
50
21
1
-33
-5
14
14
29
40
28
22
24
2
-20
-12
17
18
46
46
26
38
20
-7
-17
-14
-12
30
47
25
19
10
5
-16
-29
-31
-30
15
34
21
3
-6
-12
-36
-32
-21
5
-9
16
-5
-3
-17
-23
-36
-44
-12
-16
-19
-1
-4
-18
-17
-27
-42
-29
-26
-21
-5
9
0
-4
-9
-32
-46
-60
-28
-10
-6
19
16
2
-11
-13
-24
-21
-18
-9
-2
8
9
1
-24
-43
-50
-53
-35
-2
12
25
29
-1
-7
-21
-30
-31
-26
-14
-25
6
6
9
-13
-26
-37
-35
-37
-3
7
-5
3
-40
-29
-39
-39
-26
-14
-4
15
23
28
-4
-19
-35
-54
-69
-18
-6
10
25
1
-10
-15
-28
-37
-23
-14
16
30
25
9
10
-19
-36
-25
4
10
16
39
36
-3
-24
-19
-49
-49
-10
-19
-4
31
13
-16
-17
2
-41
-40
-34
-30
-25
29
17
14
-8
-15
-66
-55
-26
-28
-15
11
22
27
-8
-23
-67
-55
-49
-16
18
47
53
57
46
32
27
37
112
96
114
160
160
110
76
22
-17
-23
-35
-39
-13
17
-4
-9
-15
-29
-42
-33
-23
-10
11
16
2
8
-42
-38
-29
-68
-38
-16
-8
1
11
-1
-6
-45
-32
-39
-26
-9
-5
1
8
-1
-13
-32
-57
-40
-31
-22
-2
20
6
19
-16
-31
-27
-30
-7
-15
10
13
14
1
-7
-24
-38
-44
-27
-5
-20
21
17
18
-31
-29
-27
-31
-23
-23
38
23
15
15
-1
-27
-25
-41
-15
11
24
30
31
15
-10
-39
-22
-21
-12
20
50
42
23
27
19
-30
-42
-26
-15
24
51
40
58
40
11
-14
-16
-6
14
22
45
49
40
28
10
-18
-15
13
6
6
61
30
24
-11
18
-22
-7
-6
7
-6
25
28
14
-16
-10
-40
-40
-18
-27
-2
33
26
15
-8
-36
-31
-37
-31
-24
-6
-6
3
14
-23
-20
-31
-38
-13
-3
3
14
0
8
-20
-36
-42
-33
-7
-3
-4
-28
-12
12
-14
-17
-24
-19
-26
-15
-1
-3
-9
9
-18
-26
-45
-41
-23
-9
14
15
11
-20
-17
-35
-27
-28
-15
-24
14
24
17
-12
-24
-32
-47
-22
-17
-1
24
5
13
22
-6
-31
-57
-52
-6
-6
-15
15
8
9
-18
-53
-28
-24
-19
-7
25
8
3
-9
-28
-59
-49
-40
-6
-8
38
29
43
0
-11
-23
-5
-35
5
-2
25
18
20
4
-32
-31
-53
-63
-12
-6
30
19
14
-29
-29
-23
-30
-44
-25
-18
-2
22
-2
-26
-16
-27
-45
-37
-18
-8
9
19
-6
-24
-28
-59
-58
-55
-33
-22
23
60
40
30
41
10
25
53
67
92
146
173
150
148
116
69
19
9
-15
-25
-7
8
-1
-13
-15
-52
-39
-33
5
6
11
6
-3
-19
-37
-52
-56
-34
-9
0
38
9
-4
-10
-22
-56
-45
-40
-23
6
29
19
23
-28
-33
-44
-35
-32
-2
2
9
22
-24
2
-29
-30
-38
-39
-10
7
31
26
0
-27
-20
-32
-43
-7
-14
7
25
10
16
-15
-18
-22
-37
-10
10
21
28
10
-2
5
-10
-29
-37
-4
17
29
38
18
8
18
-31
-27
-20
-5
18
20
38
37
23
7
-14
-25
0
12
26
40
37
30
25
34
-17
-13
-8
24
18
45
35
34
36
19
5
-16
9
32
41
51
31
37
3
-6
-7
-13
-15
9
29
30
26
15
12
-2
-17
-5
-21
-16
1
27
31
3
-23
-14
-65
-45
-10
-20
3
8
2
20
-7
-11
-41
-57
-33
-39
-18
20
43
20
-17
-25
-22
-49
-33
0
4
11
0
7
0
-20
-40
-23
-14
-14
-5
1
13
15
-18
-17
-40
-38
-35
6
8
15
-5
-9
-15
-10
-32
-35
-20
-30
0
4
22
-6
0
-40
-41
-49
-16
18
4
29
28
11
-18
-17
-26
-31
-29
18
7
18
-4
-5
-21
-39
-46
-35
-25
-4
16
13
10
-10
-13
-28
-50
-36
-37
-9
4
18
41
8
-10
-42
-41
-27
-25
-24
16
20
41
21
-2
-30
-14
-19
-19
6
41
32
23
-13
-10
-27
-36
-19
-27
-11
25
2
3
-8
-30
-40
-59
-30
-14
-5
26
24
6
-24
-14
-70
-59
-43
-3
-17
27
28
-7
-3
-20
-48
-53
-35
-19
-11
25
25
2
20
34
0
19
43
83
86
153
160
164
146
96
77
43
14
-17
-22
11
21
5
-13
-41
-42
-36
-37
-23
-1
18
3
34
-22
-31
-59
-47
-30
-10
2
17
0
12
7
-36
-37
-26
-33
-21
-15
33
19
-15
-9
-48
-41
-35
-16
7
9
14
18
-6
-7
-45
-27
-41
-25
-21
-16
21
15
31
-24
-44
-42
-46
-26
21
38
33
18
-5
-35
-38
-29
-27
-35
17
42
49
8
7
-11
-23
-33
-23
8
18
19
15
25
4
1
-9
-15
-35
1
23
35
36
2
9
1
-8
-20
-1
15
16
74
58
32
6
6
-2
-20
6
26
24
34
41
37
14
23
1
-3
-11
34
33
41
45
32
16
15
-25
-12
-4
23
18
25
18
17
-16
-17
-20
-28
-24
4
-6
14
37
12
-18
-10
-30
-40
-33
2
9
27
20
3
-17
-47
-53
-42
-48
-19
19
6
2
7
-6
-24
-31
-42
-33
-24
-9
-8
-5
23
-5
-16
-34
-29
-20
4
9
2
20
-18
-14
-34
-42
-40
-17
-4
29
22
10
11
-22
-40
-57
-48
-48
-10
33
21
10
-25
-19
-15
-45
-36
-18
-11
13
13
-1
14
8
-23
-74
-22
-33
-17
27
17
5
-18
-17
-45
-43
-51
-9
1
22
10
10
-25
-18
-48
-23
-37
-32
-14
-1
10
20
-23
-10
-31
-44
-27
-4
3
0
24
-9
-27
-18
-45
-33
-30
-16
-14
30
23
17
2
2
-36
-13
-24
-13
0
20
14
1
-27
-32
-42
-58
-6
3
3
15
2
7
-24
-34
-50
-34
-16
-17
-26
10
-5
-19
-25
-25
-44
-42
-34
-11
6
1
24
5
-30
-45
-53
-21
-39
-20
-4
15
57
58
56
26
27
18
82
134
124
156
116
71
67
5
-38
-64
-45
-34
-12
9
17
-22
-9
-45
-53
-33
-35
-10
15
17
15
-12
2
-28
-64
-40
-29
-14
-1
1
-1
-16
-28
-42
-33
-57
-39
3
46
26
14
23
-36
-65
-44
-36
-15
-8
23
20
15
0
-15
-24
-19
-26
-17
11
4
3
-9
-14
-15
-40
-49
-29
-32
0
34
38
28
0
-24
-44
-50
-48
-8
-20
28
43
42
-4
-31
-32
-24
-23
-7
10
23
32
22
5
11
20
-23
-14
-3
13
21
47
34
11
-4
-33
-22
0
18
32
47
39
10
28
39
10
7
9
2
21
37
51
37
18
14
1
2
-2
1
18
44
40
17
-5
-7
-9
-19
-19
-6
32
38
21
7
-15
-12
-25
-39
-27
-3
8
23
28
9
-26
-49
-27
-27
-14
-12
-4
-8
13
2
0
-26
-38
-23
-16
-12
9
24
14
-3
-21
-34
-41
-45
-25
-23
-4
13
19
-14
-27
-53
-54
-32
-31
-6
18
-2
7
-2
3
-23
-30
-44
-16
-13
9
-2
-14
-8
-16
-32
-40
-21
-25
-3
2
24
31
-13
-29
-37
-11
-16
-34
-16
32
-12
-16
-10
-27
-37
-41
-29
-19
-9
26
33
24
4
-3
-34
-56
-33
-28
-15
7
18
21
-33
-29
-59
-55
-24
-14
-1
18
9
-1
-2
-13
-48
-54
-43
-26
-23
5
19
28
-10
-21
-44
-17
-43
-19
-18
5
21
-2
-24
-35
-44
-21
-37
8
2
17
4
9
-16
-26
-44
-57
-33
22
21
12
21
31
7
-29
-35
-23
-1
-7
-7
9
-5
-19
-8
-24
-54
-48
-37
-15
-1
23
-12
-3
-10
-27
-49
-29
-22
-10
4
14
14
-1
-17
-37
-56
-44
-23
-22
-10
14
1
-19
-2
-22
-34
-29
12
12
73
90
94
87
106
113
105
93
103
70
72
31
9
-30
-17
-39
-46
-53
-39
-11
14
23
13
-1
-4
-28
-52
-48
-1
-13
-6
6
0
-3
-16
-42
-46
-48
-33
-25
27
11
8
-7
-8
-35
-22
-31
-25
-34
1
13
1
-11
5
-55
-42
-13
11
-4
3
31
11
-5
-21
-46
-47
-26
-14
-6
25
26
24
-9
-21
-47
-31
-27
-20
15
11
18
10
5
0
-26
-21
-11
-6
-13
31
31
3
1
-5
-26
-31
1
9
-5
40
24
19
-6
6
-17
-12
-13
20
40
49
52
21
14
-11
-18
5
-7
12
30
45
45
21
7
-5
-14
-10
3
21
17
50
62
29
0
6
-9
7
2
0
24
59
35
25
3
-18
-25
-21
7
6
3
14
30
-5
-13
-14
-38
-23
-21
-5
-6
11
5
-9
-28
-25
-56
-44
-9
-9
19
-9
22
-26
-24
-33
-23
-15
-17
-11
27
5
-6
-2
-1
-35
-53
-48
-30
10
18
7
5
-10
6
-33
-42
-31
-15
-6
10
14
1
-1
-45
-37
-35
-16
-19
-4
13
15
28
-18
-28
-47
-28
-37
-12
-1
1
30
20
1
-31
-34
-59
-43
-6
10
35
18
6
-8
-16
-51
-46
-31
-23
-26
24
12
7
-7
-30
-53
-47
-28
-14
-4
12
24
10
3
-27
-51
-47
-33
-9
-22
7
2
-9
-14
-9
-35
-33
-37
-4
-1
10
-6
-3
-15
-52
-37
-35
-46
-31
-2
9
-6
27
-20
-36
-46
-58
-6
-3
0
11
6
-9
-3
-43
-51
-41
-34
-15
6
18
18
5
11
-11
-47
-24
-25
-3
18
16
29
13
4
-31
-35
-45
-18
-9
2
-12
-10
-4
-35
-33
-22
-23
-18
-24
5
25
4
-23
-21
-42
-55
-27
-44
23
15
7
-8
-13
-22
-48
-60
-35
-34
-17
8
17
6
11
4
-15
-13
-3
25
47
83
93
127
135
135
120
88
83
67
31
9
10
-17
-3
-15
-45
-62
-31
-31
-6
15
11
10
-24
-30
-32
-59
-20
-23
-11
3
1
18
-5
-18
-56
-50
-44
-28
-3
16
-7
-10
-7
-65
-25
-26
-16
-6
13
15
24
14
-22
-38
-52
-41
-25
-15
1
9
13
14
8
7
-46
-34
-11
-11
-4
7
-1
6
-32
-35
-14
-41
-27
0
4
36
25
-13
4
4
-23
-23
-30
-11
16
16
11
4
-38
-36
-51
-4
9
14
21
62
39
21
-11
-21
-9
-8
7
16
25
37
53
18
12
-15
-23
-3
-1
11
44
63
38
24
7
-18
4
-11
15
13
48
27
16
16
-2
-10
20
-9
-1
22
36
22
37
9
-17
-29
-41
-21
12
7
34
34
16
-12
-8
-22
-59
-39
-23
-1
23
13
4
-21
-7
-39
-48
2
-11
-1
2
6
-10
-50
-38
-41
-35
-34
-3
-5
-7
11
26
-14
-20
-60
-48
-34
-7
13
1
-4
11
5
-20
-50
-39
-27
-23
-16
7
7
22
2
-6
-48
-42
-13
-2
16
11
1
-15
-19
-38
-52
-43
-16
-5
-3
27
19
-21
-13
-30
-46
-37
-15
4
-14
6
4
-1
-12
-44
-47
-40
-12
-12
34
0
8
-7
-16
-41
-47
-18
-14
-11
4
28
31
-7
-28
-52
-54
-54
-20
-15
14
25
19
11
-17
-48
-29
-51
-3
-20
-8
-1
-5
-20
-17
-51
-41
-31
-31
-15
47
3
12
-1
-40
-52
-58
-40
-7
-4
19
15
10
-9
-25
-57
-44
-35
-31
-9
11
26
5
-28
-24
-39
-38
-46
-26
2
22
13
6
-10
-24
-51
-34
-28
-9
25
35
25
29
6
-20
-42
-35
-29
-29
5
47
18
-5
-3
-11
-63
-49
-37
-10
-7
7
4
-11
-24
-18
-63
-69
-21
-15
-7
11
13
-19
-12
-28
-56
-65
-32
4
-19
7
22
3
-19
-17
-35
-48
-37
13
45
59
78
69
72
67
66
97
109
138
113
129
109
27
-13
-54
-61
-66
-39
-32
1
-9
15
-12
-14
-24
-45
-44
-15
-7
4
10
8
-7
-2
-23
-48
-34
-21
-6
36
27
-3
-25
-17
-41
-71
-49
-16
-12
-4
35
6
-11
-22
-55
-52
-33
11
-22
25
-7
12
-16
-32
-23
-35
-32
-21
-9
18
8
28
-2
-29
-38
-38
-43
2
1
31
29
8
-6
-12
-27
-35
-34
-14
7
19
28
12
11
11
-29
-25
-13
-9
-7
24
45
24
4
3
-7
-14
6
18
19
26
45
24
18
-2
-37
-29
3
28
7
31
35
8
27
5
-2
-18
7
20
29
29
54
27
20
7
-14
-6
11
27
13
38
24
16
-15
8
-18
-6
5
17
38
37
41
0
-2
-10
-34
-42
-35
-7
7
-8
2
-16
-27
-51
-34
-28
-15
-7
-1
22
29
4
-10
-50
-47
-48
-35
-34
11
54
20
1
-26
-42
-70
-46
-22
-13
14
23
12
9
-33
-45
-54
-55
-22
-9
3
17
18
-15
-20
-52
-34
-19
-27
-19
13
2
-2
-28
-29
-43
-42
-42
3
-10
11
24
-7
9
-9
-48
-46
-37
-10
-9
14
30
10
-18
-13
-51
-50
-38
-27
-20
28
3
-13
-24
-13
-44
-33
-26
-8
-13
-1
-17
-12
-11
-7
-30
-35
-49
-15
-17
3
12
7
-8
-13
-37
-35
-24
-26
-4
-12
9
-19
-25
-33
-21
-44
-42
-21
-1
19
13
-9
-20
-37
-47
-45
-55
-16
-13
-6
-6
-15
-40
-42
-61
-52
-41
-10
23
17
38
15
-19
-25
-58
-67
-41
2
3
-2
24
-12
-2
-22
-35
-29
-15
-10
11
26
26
1
-18
-44
-54
-47
-21
-15
5
15
-3
-8
-14
-58
-51
-40
-45
-24
0
9
-6
-2
-33
-34
-43
-66
-34
-8
-1
7
-7
-31
-35
-41
-47
-22
-20
-16
16
22
8
-4
-22
-39
-31
-8
25
63
77
95
104
115
120
119
48
56
54
20
-12
-20
-16
-37
-71
-61
-41
-41
-17
-19
1
4
-9
-19
-28
-48
-63
-35
-5
-9
23
12
-3
1
-16
-27
-49
-38
-40
-18
2
-4
-2
-18
-6
-44
-40
-47
-31
-11
27
24
6
-25
-42
-70
-64
-28
-7
-12
8
27
17
-7
-16
-34
-33
-31
3
-1
8
9
9
-14
-45
-47
-44
-24
6
22
30
15
7
-26
-35
-64
-25
-25
-12
22
13
-5
14
-19
-30
-16
-25
5
25
21
28
51
12
16
-20
-21
-10
1
9
14
30
39
12
19
-6
-17
1
3
37
35
48
41
23
-3
-34
-8
-5
-10
9
44
41
32
25
-8
-26
-22
-20
5
23
44
79
54
9
-4
-46
-52
-33
-4
9
20
22
-5
-8
-1
-18
-24
-27
-23
-11
16
8
4
-4
-27
-52
-65
-31
-37
-31
15
7
4
-14
-29
-54
-50
-31
-2
-5
2
-7
-14
-17
-12
-21
-50
-37
-22
-14
19
-4
2
-19
-10
-44
-30
-29
-27
-16
8
22
-10
-10
-12
-53
-51
-30
-9
-19
15
1
14
-18
-29
-50
-42
-34
0
-9
33
2
-12
-9
-24
-36
-26
-34
-11
-7
16
25
-6
-8
-51
-51
-47
-40
-27
-22
13
9
-4
-18
-39
-60
-32
-23
3
11
21
0
-28
-23
-48
-66
-48
-21
-17
27
20
0
-1
-1
-26
-47
-36
-39
-15
-4
7
-11
-13
-22
-34
-47
-51
-6
-16
1
13
9
-10
-25
-52
-37
-52
-51
-1
-13
11
-2
-3
-25
-31
-37
-31
-39
-16
31
20
16
7
-22
-22
-43
-28
-17
-1
31
24
6
-11
-29
-45
-46
-59
-33
-23
6
10
-16
-19
-42
-40
-29
-26
-10
-8
29
-18
0
-25
-52
-59
-55
-45
-33
-2
17
12
5
-2
-13
-46
-75
-20
-6
20
24
39
26
34
47
37
52
90
145
133
128
121
100
59
-10
-68
-62
-64
-40
-37
8
15
-8
-32
-68
-74
-46
-28
-1
14
16
5
-8
-21
-36
-55
-38
-8
-4
4
23
14
-9
-36
-29
-46
-39
-46
-12
28
21
-4
-1
-25
-28
-46
-53
-32
4
22
14
9
-3
-21
-53
-65
-33
-22
-45
-7
13
4
2
-11
-33
-26
-1
-13
-1
14
13
26
15
-7
-29
-39
-44
-19
14
20
25
10
-1
1
-36
-36
-15
-2
0
15
17
29
6
13
-20
-21
-15
4
-8
24
18
44
5
11
-16
4
-16
20
13
51
24
42
8
31
-19
-22
6
8
44
66
32
32
42
8
-33
-17
-14
9
6
42
37
34
13
1
-25
-22
-4
9
3
34
28
9
-6
-15
-35
-34
-29
2
-4
26
9
4
-12
-39
-38
-50
-31
6
-10
11
20
-23
-33
-33
-41
-47
-23
-2
11
1
6
-3
-9
-38
-55
-46
-59
-43
15
16
13
-13
-23
-29
-46
-18
-24
-21
-1
15
-1
-5
-31
-21
-26
-40
-12
-12
9
19
5
-15
-27
-24
-42
-40
-7
-5
-1
11
-1
-5
-40
-68
-39
-34
-16
10
6
-1
32
-5
-8
-30
-37
-31
-21
-11
9
15
14
-10
-35
-62
-39
-35
-18
-24
21
9
1
-5
-25
-39
-31
-36
-30
-6
-9
15
-1
-19
-50
-35
-47
-48
-16
-3
8
16
-4
2
-42
-54
-48
-19
-10
-14
23
6
-4
-23
-37
-37
-49
-26
-7
-4
15
14
3
-12
-34
-39
-35
-33
-22
-8
17
-2
7
-19
-26
-27
-41
-46
-23
-20
13
-10
-7
-6
-18
-38
-34
-28
-17
-15
7
32
22
-7
-21
-46
-36
-22
-32
3
8
8
12
-6
-39
-43
-31
-15
-6
1
18
2
1
-29
-32
-41
-38
-33
-19
4
22
-1
-4
-30
-30
-47
-58
-47
-29
1
27
3
6
-16
-41
-45
-29
-49
-7
11
62
50
28
49
27
55
68
106
148
145
131
115
69
38
-11
-41
-35
-26
-15
-13
7
-3
-8
-27
-34
-65
-35
-21
-18
2
20
-19
-4
-18
-61
-55
-55
-44
-13
18
-6
3
-18
-13
-35
-45
-34
-9
-18
13
10
0
-9
-29
-41
-41
-6
-32
-20
15
6
16
13
-22
-62
-39
-39
-21
-3
27
21
20
8
-25
-51
-36
-43
-22
-9
31
1
-3
-1
-22
-35
-37
-31
-10
-4
22
28
17
-32
-11
-40
-35
-7
26
7
11
29
15
4
-25
-40
-13
-13
14
-2
31
33
6
18
-6
-11
-32
-16
9
30
60
29
35
9
0
-12
-11
-20
6
6
22
36
32
46
12
-15
-13
-1
10
33
31
27
15
-7
-10
-23
-16
-3
15
34
41
12
17
0
-26
-56
-45
-23
-25
-2
30
12
1
-36
-36
-57
-46
-10
-5
4
3
5
5
-30
-48
-40
-60
-13
-27
11
17
18
-26
-38
-59
-49
-44
-3
-21
14
8
0
-11
-34
-51
-45
-47
-16
4
10
-11
-2
-3
-46
-53
-33
-34
-25
-3
3
-12
-12
-23
-36
-52
-41
-31
-8
-5
0
72
14
-26
-28
-56
-68
-40
-11
-9
0
15
-14
-18
-26
-56
-34
-21
-13
-1
17
12
10
1
-33
-62
-61
-31
-23
-28
-9
-5
10
-8
-29
-46
-51
-37
-26
-23
18
14
-14
-30
-32
-50
-49
-32
-25
5
5
30
2
-13
-30
-48
-62
-38
-10
-11
-10
2
-16
-35
-30
-54
-38
-22
-21
-1
19
10
-8
-26
-56
-61
-49
-30
-14
3
19
16
-5
-41
-45
-32
-25
-30
-33
18
24
17
23
9
-31
-40
-16
-19
-18
9
-5
-4
-28
-44
-57
-50
-62
-20
-6
12
11
10
-12
-27
-50
-43
-46
-20
-24
4
-6
-1
-10
-31
-59
-32
-47
-19
-28
9
0
-20
-9
-13
-24
-21
-2
27
49
82
85
122
131
129
78
60
74
51
-7
1
0
-5
-23
-22
-41
-46
-39
-20
-31
4
1
-3
-12
-30
-50
-46
-42
-17
-9
9
7
-2
-37
-42
-44
-49
-24
-20
-6
23
7
-28
-23
-46
-68
-49
-33
-16
-20
36
33
-14
-4
-26
-55
-62
-24
-23
-13
0
0
-2
-9
-18
-50
-45
-21
-10
6
35
12
-10
-20
-19
-41
-54
-54
-39
6
24
15
23
3
-23
-46
-41
-19
-18
15
2
17
0
-33
-14
-18
-36
-2
2
22
48
36
3
10
-19
-2
-14
2
-5
23
56
37
17
10
-15
-17
-12
-1
-1
35
55
35
21
-13
-36
-7
1
12
37
52
51
28
7
14
-18
-11
-17
3
6
33
31
23
7
-3
-47
-33
-13
-29
-9
32
20
31
-3
-22
-50
-43
-25
-17
-5
25
13
3
-21
-15
-71
-28
-21
-15
-26
5
6
-2
-32
-17
-40
-50
-50
-38
12
14
11
1
-29
-33
-46
-59
-26
2
1
18
-1
-5
-23
-19
-57
-48
-20
-8
20
26
28
-26
-31
-24
-35
-53
-27
-18
16
31
20
-5
-25
-39
-55
-23
-16
-8
-7
31
19
7
-18
-32
-39
-39
-50
-5
-6
13
14
8
-18
-39
-38
-20
-12
-31
0
8
8
-25
-3
-32
-27
-51
-24
-10
18
21
4
-13
-20
-30
-50
-39
-25
-12
19
23
3
3
-4
-40
-39
-27
-18
-4
23
21
15
-19
-17
-46
-40
-29
-12
8
17
15
-4
5
-32
-41
-33
-23
-21
-7
23
28
30
9
15
-21
-45
-23
-10
-5
27
45
64
-7
-7
-26
-33
-28
-16
1
23
15
20
4
-13
-8
-29
-34
-39
4
9
15
15
1
-19
-22
-37
-29
-9
-2
34
13
-19
-20
-26
-33
-32
-32
9
0
35
46
41
56
53
38
54
84
114
138
179
178
122
98
91
26
6
-17
-19
-24
2
27
17
12
5
-39
-33
10
-4
9
44
25
28
25
-9
-56
-16
11
27
12
46
27
12
2
-27
-41
-25
6
13
7
53
34
15
-8
-25
-17
-26
-26
14
39
55
55
25
-4
-10
-15
-12
4
28
37
28
31
34
36
-3
2
-3
5
32
49
63
57
37
16
0
6
-5
-3
28
46
55
54
43
33
4
15
35
17
20
66
34
54
48
42
1
16
13
39
41
76
62
62
47
53
29
24
30
55
64
87
82
55
63
39
27
35
36
62
54
85
88
90
74
50
44
19
46
56
65
82
79
58
56
42
15
35
47
45
46
61
57
47
40
34
17
19
29
31
56
53
58
50
28
8
3
10
16
40
49
56
41
43
36
29
17
12
43
26
19
57
61
40
40
25
-15
-10
29
22
51
72
65
24
12
18
-18
10
19
40
55
80
87
26
35
1
8
26
25
35
52
53
63
60
29
-4
-5
-3
20
31
41
79
67
37
39
19
-9
5
13
38
45
59
36
41
37
2
-15
1
29
29
49
50
44
29
26
11
-9
17
11
29
62
46
32
22
24
2
-9
-10
8
48
57
50
37
36
17
-11
-12
-8
4
23
36
40
40
33
8
-16
-27
-30
-22
6
50
57
61
-5
14
-5
14
14
1
7
44
51
29
29
8
-13
-14
-15
20
8
5
17
16
-2
-27
-38
-50
-23
-9
10
30
27
5
8
-23
-60
-65
-46
-26
-28
14
27
6
-4
-17
-27
-52
-47
-39
-10
29
34
6
9
3
5
-15
36
69
98
157
129
114
88
58
20
-19
-54
-81
-64
-42
-8
-13
-49
-49
-58
-64
-58
-60
-19
8
5
-17
-30
-68
-78
-92
-76
-70
-39
-16
-38
-47
-72
-74
-72
-68
-66
-39
-43
-33
-50
-44
-54
-66
-81
-68
-87
-63
-46
-34
-44
-45
-80
-105
-78
-71
-74
-74
-46
-48
-54
-56
-84
-113
-95
-94
-91
-73
-53
-42
-69
-74
-89
-106
-111
-85
-76
-71
-33
-50
-63
-71
-66
-105
-94
-107
-78
-76
-70
-55
-82
-97
-86
-122
-119
-78
-91
-98
-76
-68
-63
-72
-73
-82
-102
-92
-93
-86
-43
-70
-69
-85
-105
-129
-120
-104
-69
-62
-66
-44
-73
-107
-111
-136
-126
-99
-72
-68
-49
-68
-81
-110
-133
-142
-144
-130
-117
-99
-81
-106
-82
-114
-122
-158
-190
-165
-148
-128
-98
-99
-118
-124
-144
-161
-178
-151
-149
-129
-131
-153
-138
-166
-175
-176
-182
-166
-162
-150
-144
-134
-149
-155
-174
-178
-181
-161
-186
-167
-145
-154
-168
-172
-190
-211
-207
-164
-168
-162
-166
-182
-183
-162
-198
-191
-192
-191
-192
-157
-140
-152
-166
-188
-204
-203
-208
-180
-174
-181
-163
-163
-196
-188
-208
-213
-232
-195
-185
-176
-166
-176
-192
-199
-227
-224
-211
-208
-214
-193
-173
-174
-206
-208
-231
-247
-230
-213
-202
-171
-189
-214
-203
-198
-244
-226
-224
-218
-203
-180
-191
-203
-211
-228
-264
-240
-228
-200
-222
-202
-194
-208
-217
-226
-265
-241
-224
-214
-210
-176
-182
-202
-235
-232
-246
-274
-253
-202
-216
-213
-193
-204
-227
-236
-262
-261
-245
-236
-237
-208
-201
-208
-236
-257
-265
-281
-260
-250
-251
-227
-230
-238
-252
-265
-266
-267
-256
-260
-239
-206
-250
-208
-255
-259
-251
-237
-206
-180
-167
-134
-155
-140
-140
-140
-142
-172
-144
-145
-166
-176
-236
-261
-277
-316
-312
-285
-248
-242
-239
-240
-239
-271
-282
-292
-310
-296
-268
-238
-231
-206
-232
-255
-278
-293
-286
-288
-268
-233
-217
-230
-267
-242
-284
-289
-293
-265
-252
-256
-257
-242
-238
-271
-278
-297
-312
-297
-281
-274
-238
-238
-225
-251
-254
-313
-294
-285
-258
-260
-255
-269
-261
-257
-266
-289
-280
-308
-281
-265
-221
-241
-249
-251
-276
-286
-296
-285
-270
-264
-252
-241
-277
-268
-280
-285
-270
-267
-289
-271
-242
-253
-250
-271
-265
-276
-275
-272
-258
-253
-238
-217
-236
-263
-264
-279
-289
-274
-250
-243
-212
-235
-239
-259
-254
-275
-283
-258
-246
-238
-220
-236
-251
-261
-272
-287
-286
-269
-267
-242
-243
-235
-239
-280
-293
-325
-313
-309
-268
-275
-252
-269
-280
-287
-309
-294
-313
-292
-284
-267
-264
-276
-290
-269
-304
-328
-325
-336
-303
-253
-260
-271
-285
-285
-331
-330
-306
-322
-291
-270
-268
-277
-303
-294
-317
-327
-321
-309
-300
-312
-254
-265
-284
-302
-333
-328
-320
-324
-301
-270
-284
-266
-289
-310
-322
-317
-329
-288
-285
-281
-282
-282
-294
-316
-328
-333
-320
-299
-286
-262
-254
-285
-285
-306
-320
-334
-342
-280
-274
-282
-298
-277
-315
-334
-346
-341
-310
-298
-296
-253
-260
-286
-292
-315
-341
-311
-316
-293
-304
-285
-302
-299
-313
-312
-332
-326
-330
-304
-286
-272
-283
-287
-301
-320
-338
-332
-313
-321
-304
-285
-268
-298
-313
-314
-341
-330
-303
-314
-280
-280
-279
-280
-308
-320
-356
-349
-314
-312
-306
-289
-293
-313
-298
-289
-297
-298
-331
-289
-277
-261
-277
-312
-303
-294
-336
-319
-320
-298
-277
-278
-280
-294
-323
-326
-339
-351
-333
-306
-287
-262
-303
-300
-314
-344
-355
-367
-318
-296
-303
-270
-290
-314
-306
-331
-343
-335
-337
-296
-293
-289
-289
-302
-294
-283
-284
-264
-264
-255
-219
-193
-185
-154
-161
-197
-221
-244
-231
-268
-270
-285
-300
-290
-295
-331
-345
-328
-303
-305
-288
-289
-300
-306
-318
-343
-349
-333
-301
-300
-280
-282
-296
-306
-306
-339
-339
-343
-310
-283
-270
-277
-278
-323
-331
-351
-350
-363
-340
-290
-270
-246
-290
-280
-290
-318
-333
-322
-301
-291
-275
-283
-281
-295
-333
-335
-339
-331
-307
-297
-293
-288
-285
-302
-303
-327
-311
-317
-309
-267
-292
-285
-301
-299
-303
-300
-318
-306
-290
-282
-259
-275
-274
-306
-309
-320
-293
-303
-291
-256
-273
-255
-276
-280
-309
-321
-321
-297
-291
-275
-258
-240
-278
-317
-289
-283
-287
-284
-247
-238
-248
-238
-253
-277
-307
-304
-290
-285
-262
-248
-239
-260
-271
-286
-285
-297
-302
-308
-283
-259
-249
-242
-270
-293
-330
-313
-319
-322
-309
-273
-275
-268
-287
-287
-329
-320
-299
-304
-306
-268
-271
-268
-292
-323
-349
-326
-307
-311
-299
-284
-268
-282
-281
-309
-341
-309
-304
-310
-292
-295
-256
-291
-314
-298
-331
-333
-331
-287
-278
-278
-268
-297
-303
-323
-326
-334
-312
-300
-295
-243
-255
-260
-279
-282
-331
-316
-307
-280
-310
-270
-263
-283
-281
-298
-321
-314
-319
-303
-289
-261
-268
-285
-303
-296
-310
-312
-339
-288
-268
-272
-286
-289
-289
-322
-342
-322
-296
-286
-288
-266
-256
-287
-302
-332
-337
-314
-312
-307
-273
-255
-254
-264
-307
-324
-315
-311
-321
-288
-269
-268
-277
-280
-294
-295
-307
-316
-316
-302
-272
-263
-279
-304
-317
-328
-331
-316
-285
-270
-256
-236
-250
-277
-278
-324
-314
-323
-309
-297
-284
-266
-260
-279
-292
-309
-311
-300
-274
-273
-255
-255
-261
-287
-275
-283
-304
-309
-285
-270
-251
-263
-275
-293
-306
-318
-297
-309
-296
-292
-277
-270
-264
-288
-284
-318
-316
-309
-286
-291
-247
-235
-283
-292
-288
-315
-328
-305
-282
-284
-259
-262
-274
-289
-307
-278
-290
-266
-230
-219
-189
-176
-180
-174
-168
-161
-155
-166
-145
-183
-181
-241
-276
-303
-303
-325
-307
-298
-275
-273
-242
-254
-264
-283
-299
-322
-316
-308
-275
-253
-250
-235
-259
-266
-275
-300
-303
-295
-276
-270
-256
-255
-254
-259
-294
-337
-313
-299
-300
-267
-241
-252
-254
-273
-283
-311
-293
-270
-258
-272
-223
-233
-270
-284
-277
-309
-303
-283
-286
-249
-231
-208
-257
-282
-285
-279
-278
-279
-263
-217
-243
-240
-265
-265
-296
-307
-284
-281
-283
-245
-228
-220
-232
-234
-269
-275
-278
-281
-245
-221
-237
-226
-240
-250
-247
-270
-270
-244
-234
-229
-220
-225
-233
-242
-250
-262
-241
-250
-237
-196
-210
-209
-229
-249
-253
-264
-236
-246
-242
-199
-212
-212
-218
-241
-258
-282
-269
-249
-244
-206
-213
-218
-213
-245
-272
-247
-283
-248
-236
-205
-222
-242
-257
-265
-290
-271
-267
-244
-239
-215
-232
-247
-264
-273
-292
-287
-288
-247
-262
-222
-217
-238
-264
-283
-299
-298
-264
-249
-248
-224
-224
-239
-258
-277
-286
-288
-267
-247
-216
-229
-222
-246
-256
-278
-296
-264
-277
-254
-245
-223
-242
-243
-265
-262
-275
-276
-269
-247
-237
-204
-218
-247
-248
-285
-294
-272
-257
-243
-235
-227
-213
-218
-254
-277
-286
-262
-257
-272
-220
-208
-226
-232
-257
-270
-274
-276
-277
-250
-226
-231
-223
-234
-246
-250
-270
-262
-276
-238
-237
-210
-234
-235
-261
-249
-281
-267
-266
-256
-219
-213
-234
-236
-257
-265
-257
-255
-235
-264
-203
-224
-244
-246
-246
-277
-301
-255
-256
-239
-208
-207
-222
-255
-255
-269
-271
-261
-258
-243
-201
-214
-214
-261
-230
-275
-256
-251
-244
-247
-185
-191
-211
-214
-235
-254
-269
-250
-241
-214
-186
-179
-209
-243
-249
-264
-268
-257
-244
-228
-234
-196
-208
-252
-245
-256
-274
-264
-246
-223
-212
-215
-229
-247
-228
-261
-273
-258
-242
-242
-221
-210
-212
-229
-229
-268
-257
-224
-194
-176
-150
-140
-159
-166
-173
-154
-136
-125
-94
-111
-112
-140
-172
-217
-267
-284
-275
-263
-239
-234
-190
-196
-205
-231
-235
-248
-246
-244
-219
-209
-212
-207
-241
-220
-250
-254
-234
-221
-229
-203
-196
-216
-230
-230
-241
-256
-254
-238
-242
-210
-197
-198
-210
-221
-244
-216
-251
-238
-210
-218
-193
-186
-200
-204
-247
-221
-229
-202
-206
-196
-179
-194
-195
-239
-257
-242
-237
-199
-215
-181
-183
-180
-207
-214
-231
-244
-238
-211
-194
-178
-174
-198
-214
-217
-235
-231
-220
-200
-187
-166
-160
-170
-189
-187
-212
-215
-208
-189
-166
-126
-138
-175
-196
-182
-196
-226
-192
-180
-166
-159
-148
-150
-181
-181
-218
-212
-172
-152
-147
-177
-163
-183
-201
-175
-199
-207
-163
-175
-157
-143
-142
-176
-188
-205
-200
-201
-191
-197
-183
-161
-167
-168
-185
-200
-214
-217
-211
-188
-177
-159
-170
-192
-190
-223
-237
-216
-175
-216
-194
-180
-189
-196
-215
-235
-232
-227
-219
-181
-175
-154
-158
-189
-214
-238
-237
-214
-187
-179
-177
-173
-169
-169
-191
-212
-238
-217
-213
-208
-172
-160
-186
-196
-169
-225
-216
-230
-187
-182
-165
-180
-172
-174
-199
-201
-208
-209
-215
-195
-142
-153
-157
-173
-196
-239
-223
-208
-198
-165
-144
-155
-160
-182
-176
-209
-221
-217
-192
-179
-168
-153
-168
-159
-177
-220
-196
-202
-201
-168
-160
-149
-173
-170
-174
-236
-220
-204
-182
-175
-176
-152
-167
-210
-182
-204
-202
-191
-190
-176
-165
-168
-170
-195
-191
-222
-212
-186
-172
-167
-133
-169
-161
-175
-190
-222
-197
-206
-181
-166
-147
-157
-149
-173
-208
-203
-204
-176
-164
-161
-154
-161
-187
-171
-165
-210
-197
-195
-177
-173
-133
-155
-172
-188
-193
-200
-210
-185
-173
-121
-146
-146
-166
-158
-206
-187
-193
-190
-192
-173
-148
-159
-133
-167
-199
-193
-203
-173
-176
-148
-131
-132
-125
-136
-189
-188
-164
-158
-149
-132
-143
-142
-142
-141
-185
-194
-183
-163
-176
-133
-147
-145
-144
-181
-189
-184
-180
-171
-159
-137
-129
-146
-163
-157
-190
-203
-186
-163
-141
-133
-141
-135
-152
-154
-189
-169
-171
-157
-150
-106
-115
-111
-121
-123
-141
-125
-100
-54
-40
2
57
25
-29
-50
-107
-129
-178
-171
-141
-137
-122
-130
-136
-161
-176
-178
-163
-135
-152
-122
-117
-133
-160
-162
-181
-165
-161
-149
-138
-126
-103
-135
-155
-152
-207
-192
-150
-153
-123
-126
-116
-130
-140
-158
-161
-179
-155
-150
-142
-102
-107
-140
-146
-157
-152
-151
-134
-142
-111
-85
-116
-140
-144
-162
-164
-157
-130
-124
-136
-120
-98
-113
-145
-154
-167
-165
-146
-130
-120
-102
-118
-116
-113
-145
-161
-150
-144
-123
-104
-102
-93
-116
-123
-132
-134
-141
-129
-118
-94
-81
-84
-100
-127
-149
-119
-126
-104
-92
-79
-72
-76
-98
-94
-132
-125
-119
-117
-93
-79
-88
-86
-84
-99
-134
-114
-114
-90
-98
-68
-78
-83
-109
-95
-137
-138
-134
-120
-82
-79
-89
-77
-82
-101
-130
-165
-125
-109
-127
-80
-92
-97
-114
-117
-152
-165
-138
-120
-135
-84
-102
-112
-110
-113
-152
-148
-136
-113
-104
-113
-106
-107
-132
-121
-142
-167
-149
-120
-117
-102
-89
-109
-115
-125
-141
-151
-139
-126
-93
-72
-79
-108
-116
-143
-139
-144
-140
-137
-99
-91
-87
-110
-132
-139
-149
-132
-127
-125
-98
-98
-75
-89
-96
-137
-145
-134
-127
-106
-90
-92
-86
-87
-115
-129
-155
-152
-125
-109
-108
-70
-76
-89
-100
-113
-143
-126
-115
-100
-103
-93
-103
-116
-105
-143
-144
-105
-95
-99
-90
-78
-84
-92
-103
-154
-145
-123
-121
-98
-78
-93
-117
-110
-121
-132
-126
-143
-127
-120
-89
-65
-79
-103
-113
-128
-120
-112
-107
-83
-74
-83
-67
-84
-128
-144
-118
-150
-108
-94
-88
-102
-54
-103
-123
-122
-140
-116
-103
-97
-73
-66
-95
-85
-103
-132
-146
-125
-110
-99
-89
-79
-91
-100
-115
-121
-105
-90
-88
-89
-64
-77
-72
-93
-124
-132
-128
-134
-95
-75
-63
-76
-78
-102
-119
-124
-130
-105
-96
-88
-44
-76
-95
-96
-110
-111
-133
-132
-92
-76
-71
-62
-73
-83
-108
-121
-91
-79
-88
-81
-47
-66
-72
-84
-101
-106
-100
-104
-80
-66
-37
-68
-70
-97
-124
-123
-129
-82
-92
-72
-52
-46
-67
-92
-131
-123
-118
-116
-95
-80
-38
-73
-85
-86
-98
-104
-116
-112
-99
-55
-54
-67
-74
-80
-99
-88
-63
-39
-25
-7
14
28
9
52
13
35
36
28
8
-22
-38
-55
-83
-90
-118
-107
-102
-112
-93
-65
-60
-56
-60
-70
-99
-116
-113
-74
-83
-46
-65
-50
-72
-88
-121
-114
-112
-65
-78
-62
-38
-46
-69
-91
-118
-108
-89
-66
-76
-70
-50
-51
-53
-58
-119
-112
-96
-98
-80
-33
-30
-51
-86
-84
-88
-105
-89
-73
-50
-25
-30
-40
-75
-99
-95
-104
-93
-68
-60
-43
-27
-19
-55
-61
-89
-89
-72
-62
-50
-44
-47
-34
-52
-63
-86
-76
-69
-56
-29
-32
-45
-37
-41
-46
-67
-67
-53
-42
-30
-23
-24
-25
-53
-73
-77
-60
-52
-43
-27
2
-2
-26
-34
-51
-63
-54
-42
-42
-25
-1
-2
-2
-27
-60
-51
-50
-52
-42
-10
-15
-15
-38
-32
-81
-85
-64
-38
-47
-47
-17
-21
-45
-61
-101
-77
-82
-38
-66
-28
-32
-34
-49
-49
-91
-88
-84
-43
-65
-56
-56
-24
-53
-65
-97
-85
-61
-49
-56
-25
-43
-58
-26
-88
-111
-88
-62
-44
-55
-43
-35
-62
-63
-70
-89
-85
-60
-40
-57
-26
-25
-17
-69
-80
-103
-80
-69
-54
-48
-11
-27
-21
-52
-60
-85
-79
-78
-74
-52
-26
-20
-29
-41
-67
-81
-88
-67
-44
-28
-20
-24
-31
-64
-61
-69
-85
-87
-68
-36
4
-32
-54
-54
-60
-94
-82
-74
-51
-23
-13
-23
-33
-53
-61
-99
-91
-75
-60
-32
-13
-23
-34
-20
-77
-87
-71
-63
-35
-37
-30
-29
-51
-63
-66
-88
-69
-72
-53
-29
-5
-28
-36
-56
-68
-83
-64
-74
-63
-15
4
-32
-51
-45
-60
-64
-60
-79
-54
-20
-45
-39
-55
-46
-61
-58
-78
-59
-54
-22
-6
-8
-37
-47
-99
-84
-77
-54
-51
-34
-34
-41
-24
-46
-69
-68
-77
-49
-28
-17
3
-40
-51
-17
-72
-69
-72
-43
-37
-37
-26
-22
-57
-67
-58
-78
-64
-50
-47
-26
-9
-16
-50
-46
-84
-70
-66
-53
-3
8
15
1
-23
-62
-74
-54
-46
-27
-25
-13
4
1
-34
-47
-59
-59
-43
-30
-19
-16
-15
-53
-31
-51
-95
-78
-50
-33
-21
-19
-10
-34
-57
-14
-66
-77
-66
-40
-17
-7
-18
-22
-29
-61
-77
-65
-49
-32
-28
5
11
27
27
15
11
43
70
92
138
135
107
76
40
-20
-86
-54
-43
-36
-32
-22
-13
-8
-49
-44
-59
-46
-43
-41
-8
-3
-32
-25
-35
-44
-85
-70
-50
-29
-10
-8
-8
-9
-40
-52
-32
-45
-39
-39
-6
-25
-30
-46
-59
-62
-65
-50
-35
-6
-1
-11
0
-10
-30
-52
-35
-59
-25
-26
-17
-12
-15
-28
-33
-54
-75
-50
-31
-12
-8
-8
-9
-6
-35
-52
-53
-60
-35
-24
30
2
18
-3
-30
-56
-43
-24
-9
-19
13
20
16
-17
-11
-16
-41
-31
-23
7
18
25
10
-3
-15
-21
-25
-15
-4
14
25
3
29
2
-18
-20
-27
-25
10
2
21
36
4
16
11
-13
-25
-11
12
5
34
35
28
3
-22
-25
-20
-6
2
5
20
18
-3
4
-21
-59
-37
-43
-3
7
18
10
-7
-23
-45
-36
-34
-34
-13
-3
-2
-14
-12
-35
-39
-54
-50
-37
-20
-13
13
-20
-9
-20
-61
-58
-23
-43
-18
13
1
1
-13
-38
-39
-45
-32
-30
-27
1
8
1
-24
-22
-49
-49
-43
-34
-8
11
10
-1
-13
-16
-43
-58
-40
-21
-1
-2
-5
-5
-25
-25
-39
-52
-41
-37
-3
20
33
-8
-49
-30
-64
-56
-17
-4
-14
8
36
3
-18
-45
-52
-49
-30
-19
-15
3
-5
-5
-6
-18
-66
-57
-28
-23
4
12
-1
-13
-14
-44
-59
-57
-62
-55
-5
43
17
1
-7
-33
-47
-68
-45
-41
-18
-3
-1
-3
-19
-34
-47
-52
-35
-24
4
20
8
-8
-52
-27
-35
-43
-42
-24
-2
-6
-3
-4
-22
-34
-64
-58
-21
-26
-8
24
9
-6
-26
-38
-67
-34
-33
-22
-9
-2
-6
-46
-18
-20
-30
-21
-36
-11
-7
36
5
-15
-14
-38
-48
-38
-37
-8
22
27
33
3
-14
-29
-30
-35
-24
-4
31
11
16
-15
-17
-14
-26
-56
-39
-15
0
11
-24
-11
-47
-40
-55
-38
-16
-3
17
5
4
-15
-33
-54
-48
-35
-27
-5
28
3
10
-19
-16
-53
-58
-23
12
5
54
43
39
42
49
43
52
94
109
134
139
110
50
9
-15
-67
-62
-70
-43
-36
-1
11
14
5
-20
-42
-23
-42
-28
-18
25
24
-1
-9
-2
-37
-48
-33
-35
-16
-5
-3
24
-15
-32
-53
-29
-37
-10
-1
11
29
5
-20
-35
-14
-40
-12
0
16
30
13
-5
3
-29
-60
-26
-11
-3
4
1
9
-20
2
-27
-30
-48
-41
-2
-11
27
54
19
-11
-18
-30
-45
-13
-4
18
24
21
1
18
-25
-27
-25
-12
20
34
40
26
21
14
-4
-7
-8
2
34
30
38
49
8
7
-39
-26
-2
32
44
77
64
30
39
26
-9
-10
-16
16
23
54
50
45
43
34
6
7
-8
12
20
49
58
42
27
21
-13
15
0
23
17
23
43
37
8
14
-25
-21
-14
0
9
44
16
42
15
-8
-38
-34
-11
0
9
20
26
8
-10
-10
-42
-27
-18
-9
23
17
37
23
-9
-24
-34
-36
-41
-10
-3
26
18
11
-15
0
-26
-36
-13
-3
16
38
34
16
-10
-31
-28
-21
-20
15
13
16
28
-1
16
-23
-29
-28
-19
12
13
26
10
25
-6
-26
-35
-19
-8
13
33
45
31
8
4
-19
-16
-24
-20
-10
4
18
40
21
19
-13
-24
-31
-14
-12
17
26
23
7
-12
-33
-59
-33
-3
38
32
21
11
10
-13
-25
-29
-21
-41
10
42
15
28
-3
4
-36
-37
-15
-8
5
41
24
1
-13
-7
-24
-27
0
-7
12
38
27
16
-4
-16
-44
-35
-38
-11
-13
28
37
8
9
3
-20
-30
-24
17
10
38
17
43
-3
12
-19
-23
-4
14
17
39
19
35
21
7
-20
-25
-20
0
9
44
40
19
28
-19
-33
-35
3
-3
18
22
27
4
26
-1
-26
-29
-24
-25
18
39
31
18
-3
-11
-45
-51
-10
18
14
32
11
8
4
-24
-35
-27
0
24
56
71
101
101
78
76
87
97
130
128
164
131
110
61
-31
-39
-13
-20
-22
-17
19
33
36
13
-18
-22
-42
-16
-2
-7
32
21
24
17
-21
-32
-35
-26
-7
22
29
39
34
9
-8
-24
-33
-35
12
1
27
40
20
-12
-23
-20
2
-16
-10
17
48
21
11
-7
3
-2
-12
-13
-20
-5
19
51
40
30
17
-5
-35
-24
5
13
43
40
7
-7
5
-10
-21
5
17
15
69
42
29
17
11
-8
-20
-10
24
30
43
39
48
29
15
29
22
12
13
32
65
41
35
38
18
5
22
13
38
53
50
76
53
38
29
-6
-22
18
27
74
85
89
64
51
33
10
-5
17
20
43
59
53
63
51
14
0
19
23
24
30
59
50
33
6
-2
-3
-4
15
12
46
48
34
18
0
-40
-41
-17
2
11
43
33
39
16
8
-10
-31
-20
11
9
38
38
14
39
40
-30
-23
-28
7
16
42
20
28
21
13
-29
-14
-14
-3
2
8
29
33
13
10
-14
-11
7
3
19
37
31
8
29
5
-27
-10
11
6
19
53
53
39
7
5
-21
-36
-27
3
21
72
37
24
11
0
-15
-7
2
18
7
44
44
31
25
3
-31
-14
-14
3
14
41
23
18
15
-8
-16
-18
1
11
30
51
24
51
16
11
-12
-20
8
-1
3
17
45
42
14
13
-22
-24
-24
8
27
40
19
39
4
0
0
-23
-11
0
21
45
40
16
20
19
-7
-40
-14
31
17
53
34
8
2
8
-18
-25
-15
36
30
50
35
30
1
1
-4
-4
-2
-6
34
38
26
23
30
36
-15
2
22
30
38
56
68
32
4
10
4
12
16
31
58
73
57
18
10
1
1
-24
-17
23
27
21
36
13
12
7
-18
-30
15
-5
20
29
44
11
22
2
-30
-18
21
28
42
37
42
49
57
5
33
31
62
96
140
147
143
159
155
104
110
116
76
38
39
50
16
-8
13
-12
-24
-17
7
9
59
60
49
31
14
-13
-7
-4
-2
32
53
51
14
24
32
-13
-2
-7
-1
4
21
32
31
7
-10
-13
-17
-28
-8
35
57
49
40
5
19
-2
-6
13
22
49
45
58
55
35
2
-25
-5
2
22
35
38
52
49
36
6
-11
-7
5
20
30
51
56
45
27
19
-4
9
37
24
35
54
24
44
15
20
8
19
25
35
51
58
79
55
33
12
24
40
32
56
82
62
71
44
32
29
24
12
38
43
55
61
58
67
50
27
29
23
46
53
69
78
65
52
56
40
11
28
67
53
58
77
83
67
49
12
20
0
16
39
75
61
49
31
11
20
-1
7
16
-2
48
51
49
39
2
-11
