-63
-56
-61
-67
-60
-61
-50
-50
-64
-63
-77
-69
-52
-59
-58
-66
-57
-51
-61
-63
-57
-53
-64
-63
-51
-59
-54
-56
-68
-55
-65
-65
-58
-55
-68
-69
-55
-47
-66
-72
-62
-54
-63
-65
-65
-60
-64
-62
-53
-55
-55
-64
-62
-74
-60
-60
-60
-60
-64
-68
-53
-59
-61
-66
-60
-62
-63
-64
-62
-69
-69
-55
-63
-73
-71
-60
-58
-63
-65
-64
-65
-63
-59
-65
-75
-49
-48
-60
-64
-63
-54
-62
-59
-63
-62
-55
-64
-64
-63
-54
-54
-45
-63
-63
-48
-57
-65
-46
-41
-52
-57
-44
-35
-40
-39
-52
-43
-47
-54
-52
-36
-43
-51
-51
-50
-61
-71
-61
-66
-68
-66
-70
-65
-64
-61
-66
-61
-60
-72
-73
-70
-69
-60
-67
-59
-58
-63
-57
-81
-73
-68
-76
-75
-67
-68
-68
-57
-59
-66
-69
-77
-83
-84
-67
-84
-100
-68
-45
-25
1
28
54
97
134
150
127
98
84
68
55
17
-17
-56
-86
-133
-148
-140
-128
-127
-124
-103
-93
-75
-72
-67
-59
-45
-67
-68
-59
-62
-70
-58
-58
-64
-70
-58
-58
-49
-60
-40
-57
-61
-60
-55
-54
-49
-52
-60
-57
-53
-55
-46
-56
-52
-45
-50
-44
-43
-46
-44
-45
-51
-49
-46
-46
-38
-45
-43
-31
-32
-45
-32
-34
-37
-34
-22
-27
-34
-28
-28
-29
-22
-21
-25
-12
-7
-15
-17
-7
-9
-11
-2
0
-2
6
12
3
-1
17
26
17
29
34
29
31
35
37
44
51
37
39
52
54
49
48
49
49
50
52
51
49
53
40
35
38
40
20
8
5
-5
-8
-7
-16
-25
-31
-23
-28
-40
-37
-40
-33
-50
-58
-49
-52
-44
-59
-60
-63
-62
-62
-59
-51
-61
-54
-63
-64
-67
-63
-61
-62
-57
-62
-62
-54
-66
-66
-55
-51
-57
-58
-59
-65
-62
-50
-63
-55
-61
-54
-53
-76
-71
-58
-50
-52
-68
-68
-58
-64
-68
-63
-58
-67
-66
-59
-65
-57
-58
-56
-59
-54
-55
-63
-62
-63
-66
-62
-59
-58
-69
-58
-59
-64
-59
-55
-55
-57
-57
-65
-66
-55
-44
-68
-76
-58
-55
-66
-52
-59
-61
-75
-60
-55
-46
-47
-63
-54
-62
-69
-62
-54
-64
-70
-65
-49
-61
-65
-62
-64
-61
-65
-54
-68
-65
-55
-64
-67
-61
-57
-56
-63
-57
-54
-56
-62
-57
-57
-71
-65
-58
-62
-59
-58
-53
-55
-64
-58
-65
-54
-55
-59
-67
-68
-56
-65
-70
-66
-63
-48
-58
-64
-57
-50
-63
-50
-52
-58
-60
-64
-48
-46
-53
-60
-56
-41
-40
-46
-56
-46
-46
-43
-43
-48
-40
-48
-48
-45
-44
-46
-47
-47
-48
-58
-59
-51
-63
-71
-65
-63
-66
-67
-64
-65
-56
-53
-59
-67
-61
-74
-64
-56
-57
-66
-69
-69
-57
-66
-68
-68
-63
-59
-65
-65
-67
-69
-69
-70
-68
-81
-84
-77
-87
-73
-61
-55
-45
-22
23
41
80
118
139
153
128
98
95
81
41
7
-13
-58
-116
-134
-135
-139
-133
-116
-114
-91
-77
-76
-67
-59
-52
-62
-71
-62
-63
-57
-55
-65
-60
-62
-62
-50
-58
-56
-56
-52
-52
-56
-62
-57
-52
-46
-57
-50
-45
-42
-48
-43
-42
-44
-51
-46
-45
-43
-41
-47
-46
-41
-39
-47
-41
-34
-43
-43
-38
-42
-39
-33
-32
-25
-38
-36
-30
-32
-32
-26
-23
-28
-24
-15
-13
-19
-14
-12
-5
-5
-3
-1
4
4
15
10
11
13
13
17
21
22
26
30
33
40
39
39
39
41
52
50
48
55
53
60
53
63
63
51
57
44
48
55
45
28
16
2
6
2
-4
-11
-16
-14
-23
-33
-23
-18
-26
-45
-50
-51
-49
-55
-61
-60
-56
-60
-58
-57
-63
-54
-50
-52
-57
-57
-61
-59
-60
-61
-58
-64
-54
-60
-58
-59
-64
-54
-58
-67
-63
-61
-62
-62
-59
-62
-57
-57
-58
-45
-49
-51
-60
-63
-61
-67
-58
-45
-62
-58
-60
-61
-57
-61
-74
-68
-49
-49
-55
-60
-62
-62
-61
-61
-61
-61
-58
-61
-66
-56
-61
-62
-60
-62
-68
-70
-63
-55
-74
-68
-69
-70
-65
-65
-65
-66
-61
-62
-63
-77
-74
-73
-59
-66
-72
-69
-66
-66
-63
-64
-59
-79
-69
-75
-67
-63
-61
-73
-72
-66
-67
-73
-69
-71
-73
-73
-66
-61
-73
-75
-70
-66
-61
-65
-72
-74
-76
-71
-57
-65
-71
-74
-74
-72
-80
-71
-65
-72
-69
-66
-69
-71
-73
-75
-68
-63
-64
-67
-60
-50
-62
-65
-72
-71
-76
-63
-63
-62
-60
-53
-67
-57
-49
-40
-46
-54
-60
-54
-53
-52
-53
-56
-53
-56
-60
-44
-61
-71
-72
-71
-68
-75
-72
-84
-83
-72
-78
-67
-70
-75
-76
-73
-75
-76
-72
-69
-71
-73
-68
-72
-72
-76
-76
-73
-77
-74
-65
-75
-73
-76
-76
-68
-65
-79
-95
-104
-97
-94
-92
-82
-65
-39
-16
6
27
78
107
137
127
100
83
75
56
20
-9
-42
-88
-139
-154
-155
-141
-129
-123
-118
-106
-90
-83
-79
-79
-70
-69
-68
-68
-74
-67
-73
-78
-63
-61
-64
-63
-59
-60
-64
-59
-62
-60
-58
-60
-63
-57
-57
-61
-59
-57
-56
-61
-55
-56
-59
-49
-51
-50
-50
-54
-53
-51
-50
-51
-46
-49
-43
-31
-39
-33
-39
-35
-30
-29
-43
-45
-38
-20
-30
-26
-19
-19
-17
-33
-27
-16
-16
-17
-24
-9
5
-2
4
9
6
10
25
22
7
16
26
25
24
26
28
28
34
40
39
44
41
41
47
44
48
49
58
43
46
43
44
36
48
44
52
28
1
11
7
6
-1
-34
-15
-21
-26
-27
-35
-39
-47
-43
-45
-39
-43
-44
-65
-55
-50
-53
-66
-64
-65
-60
-49
-56
-58
-67
-61
-64
-63
-65
-68
-64
-57
-59
-61
-60
-67
-64
-66
-54
-55
-65
-64
-57
-58
-51
-57
-63
-56
-53
-56
-57
-60
-62
-60
-58
-63
-60
-58
-54
-65
-60
-55
-48
-54
-60
-64
-60
-55
-54
-66
-68
-65
-65
-59
-49
-59
-56
-60
-64
-64
-59
-55
-56
-58
-54
-53
-59
-63
-51
-56
-64
-60
-61
-66
-59
-54
-60
-70
-62
-62
-56
-54
-58
-62
-62
-64
-61
-52
-61
-62
-60
-62
-62
-56
-60
-52
-63
-67
-60
-53
-55
-59
-62
-58
-57
-60
-69
-59
-60
-62
-56
-58
-53
-58
-48
-51
-49
-56
-44
-49
-50
-41
-37
-40
-40
-47
-36
-39
-57
-57
-50
-50
-55
-58
-52
-58
-67
-67
-65
-65
-55
-51
-55
-51
-71
-67
-64
-55
-56
-53
-50
-51
-58
-48
-46
-69
-76
-67
-69
-59
-52
-51
-59
-63
-62
-63
-68
-65
-68
-59
-59
-58
-42
-20
-4
1
25
56
85
107
99
77
58
43
24
12
1
-22
-51
-111
-138
-143
-132
-131
-119
-108
-98
-94
-94
-80
-63
-53
-63
-76
-69
-67
-48
-60
-44
-51
-42
-54
-55
-55
-52
-61
-41
-19
-27
-31
-8
-48
-64
-52
-49
-54
-53
-56
-56
-48
-50
-49
-48
-47
-48
-40
-37
-44
-37
-33
-23
-24
-22
-39
-44
-36
-22
-21
-30
-25
-28
-33
-29
-29
-15
-18
-5
-2
-5
-17
-17
-15
-23
-23
-7
4
3
-4
7
19
14
16
13
22
10
14
26
23
15
28
31
38
29
45
49
42
38
55
50
28
34
40
37
35
56
60
43
32
22
22
27
20
14
8
7
-1
8
-13
-21
-25
-23
-35
-33
-41
-46
-49
-47
-49
-52
-53
-57
-67
-53
-50
-51
-52
-51
-70
-61
-63
-62
-66
-66
-61
-53
-63
-55
-63
-63
-72
-66
-61
-51
-60
-60
-62
-55
-65
-67
-62
-69
-68
-63
-53
-61
-64
-59
-62
-61
-54
-58
-54
-53
-58
-55
-56
-53
-70
-61
-54
-55
-54
-57
-52
-54
-47
-54
-58
-59
-65
-47
-43
-52
-56
-55
-65
-55
-55
-50
-45
-58
-56
-55
-45
-52
-53
-53
-52
-53
-49
-54
-46
-53
-42
-50
-49
-50
-47
-43
-45
-44
-41
-41
-42
-47
-48
-37
-46
-37
-43
-32
-34
-48
-50
-53
-55
-56
-55
-56
-57
-59
-59
-56
-70
-66
-58
-58
-69
-68
-64
-60
-62
-57
-60
-57
-59
-65
-75
-64
-64
-65
-64
-68
-63
-63
-75
-70
-68
-74
-73
-75
-71
-72
-71
-80
-82
-85
-81
-72
-60
-52
-31
-10
3
28
75
98
109
99
63
49
51
19
-9
-39
-59
-100
-147
-154
-133
-138
-124
-120
-101
-101
-97
-83
-76
-70
-70
-70
-62
-59
-75
-68
-66
-69
-69
-60
-63
-59
-61
-68
-65
-58
-54
-56
-55
-54
-60
-53
-53
-57
-56
-53
-59
-57
-59
-52
-63
-54
-50
-46
-53
-44
-43
-51
-45
-47
-48
-44
-38
-43
-47
-42
-31
-35
-31
-36
-40
-33
-37
-36
-30
-23
-21
-26
-22
-31
-22
-25
-16
-24
-15
-11
-6
-7
-4
-4
2
3
14
9
5
11
18
20
16
24
28
29
34
29
38
37
26
30
44
38
42
42
44
27
24
20
18
9
19
12
4
-8
-7
-20
-29
-19
-21
-30
-38
-43
-45
-56
-43
-51
-57
-58
-64
-56
-57
-53
-49
-60
-51
-71
-66
-61
-71
-70
-66
-68
-69
-58
-64
-70
-68
-62
-65
-55
-53
-51
-63
-62
-68
-60
-65
-66
-59
-73
-65
-62
-67
-65
-63
-62
-57
-58
-55
-69
-64
-54
-54
-60
-60
-64
-62
-64
-62
-52
-61
-66
-62
-74
-62
-61
-59
-65
-59
-62
-61
-66
-70
-66
-67
-74
-65
-65
-74
-65
-64
-82
-70
-58
-62
-71
-71
-65
-67
-74
-68
-66
-62
-66
-65
-68
-69
-73
-72
-60
-62
-64
-61
-63
-65
-64
-60
-64
-71
-61
-60
-69
-74
-69
-63
-68
-72
-66
-55
-56
-65
-61
-55
-62
-62
-44
-53
-51
-60
-51
-44
-49
-57
-62
-63
-66
-61
-65
-75
-65
-63
-67
-71
-66
-74
-69
-69
-72
-70
-65
-68
-68
-66
-76
-71
-86
-70
-68
-74
-72
-77
-75
-68
-66
-69
-66
-73
-75
-72
-71
-73
-81
-81
-79
-84
-83
-77
-76
-51
-27
-1
17
51
84
105
120
94
68
60
51
22
-7
-25
-62
-104
-140
-142
-133
-121
-120
-113
-113
-98
-79
-79
-71
-70
-64
-68
-68
-63
-64
-67
-68
-67
-62
-62
-68
-62
-67
-67
-61
-56
-63
-65
-60
-56
-61
-59
-59
-58
-55
-51
-64
-52
-58
-58
-62
-52
-47
-59
-51
-43
-59
-53
-41
-43
-57
-62
-52
-45
-42
-48
-42
-40
-30
-38
-42
-41
-37
-40
-34
-31
-32
-32
-7
-24
-29
-35
-15
-17
-21
-13
-6
-15
-6
-3
3
7
1
6
10
21
11
18
23
21
18
30
28
27
37
34
29
41
34
31
39
36
36
35
38
27
16
15
13
9
1
1
8
-7
-22
-19
-23
-27
-30
-39
-47
-53
-63
-67
-50
-52
-64
-65
-60
-68
-69
-62
-66
-72
-70
-65
-62
-59
-59
-67
-78
-73
-69
-80
-59
-64
-71
-66
-74
-71
-65
-70
-65
-67
-73
-69
-73
-65
-64
-66
-66
-67
-62
-62
-65
-75
-67
-66
-67
-71
-72
-74
-74
-75
-71
-70
-66
-62
-65
-63
-68
-67
-71
-71
-60
-75
-70
-71
-63
-68
-75
-75
-60
-74
-66
-61
-73
-71
-66
-63
-66
-68
-73
-68
-73
-76
-76
-73
-66
-68
-64
-66
-59
-63
-67
-67
-64
-68
-65
-67
-71
-69
-78
-69
-59
-70
-70
-68
-61
-69
-69
-74
-81
-77
-70
-68
-72
-71
-68
-75
-67
-65
-70
-60
-72
-75
-66
-58
-77
-76
-74
-73
-69
-66
-72
-62
-69
-73
-63
-60
-65
-78
-75
-72
-66
-69
-71
-75
-66
-63
-67
-68
-66
-59
-73
-65
-67
-65
-68
-65
-57
-62
-59
-57
-54
-52
-50
-57
-62
-62
-51
-51
-58
-55
-54
-63
-64
-62
-56
-68
-65
-71
-66
-67
-70
-79
-76
-73
-76
-77
-72
-71
-78
-68
-79
-65
-66
-72
-75
-67
-67
-78
-79
-76
-74
-77
-73
-67
-79
-66
-66
-74
-79
-78
-77
-81
-81
-81
-89
-91
-95
-94
-90
-85
-58
-37
-1
18
50
80
113
128
118
83
76
53
22
-11
-25
-62
-99
-139
-144
-128
-131
-136
-120
-100
-85
-77
-68
-74
-74
-69
-66
-75
-62
-86
-75
-57
-66
-64
-68
-58
-73
-73
-69
-69
-69
-60
-64
-63
-62
-66
-57
-54
-48
-47
-59
-59
-57
-64
-58
-53
-56
-57
-57
-55
-55
-47
-52
-56
-48
-53
-50
-46
-49
-48
-57
-50
-49
-43
-44
-42
-39
-29
-37
-31
-35
-26
-22
-24
-22
-30
-24
-31
-24
-20
-16
-17
23
41
32
31
28
36
40
46
47
38
37
38
42
40
37
33
32
29
22
15
5
17
-7
-10
-13
-18
-21
-30
-31
-36
-44
-48
-53
-49
-54
-48
-63
-65
-61
-64
-62
-63
-54
-61
-57
-69
-61
-64
-64
-63
-59
-60
-60
-60
-58
-67
-68
-67
-62
-59
-58
-62
-73
-65
-63
-64
-68
-66
-58
-65
-72
-70
-59
-63
-61
-59
-60
-60
-59
-68
-62
-58
-65
-67
-62
-57
-66
-58
-59
-64
-54
-60
-62
-61
-62
-60
-57
-55
-62
-68
-67
-67
-57
-58
-54
-60
-57
-59
-65
-63
-59
-63
-62
-63
-65
-63
-68
-59
-61
-61
-65
-62
-68
-62
-61
-66
-67
-61
-62
-58
-63
-53
-60
-62
-62
-70
-58
-63
-68
-67
-67
-57
-60
-55
-62
-75
-70
-61
-64
-64
-67
-61
-62
-67
-67
-65
-62
-61
-57
-70
-61
-68
-60
-61
-61
-70
-71
-60
-58
-64
-68
-60
-64
-58
-67
-73
-64
-58
-61
-61
-54
-62
-52
-54
-56
-55
-59
-65
-61
-59
-60
-60
-59
-57
-45
-45
-53
-55
-55
-50
-61
-47
-51
-53
-47
-54
-45
-47
-62
-56
-52
-66
-67
-59
-56
-62
-81
-70
-73
-71
-70
-58
-59
-58
-59
-65
-72
-72
-70
-71
-65
-63
-69
-66
-64
-66
-74
-67
-68
-71
-74
-71
-64
-71
-71
-71
-70
-66
-80
-85
-98
-94
-89
-57
-45
-17
21
43
66
103
130
121
92
80
68
51
15
-14
-47
-72
-124
-149
-138
-133
-129
-118
-106
-90
-78
-74
-71
-71
-65
-60
-60
-59
-74
-81
-66
-72
-67
-57
-55
-54
-56
-66
-55
-48
-58
-55
-80
-78
-63
-56
-53
-45
-51
-61
-49
-50
-51
-47
-42
-31
-41
-47
-46
-47
-41
-27
-50
-48
-51
-40
-33
-37
-37
-46
-43
-46
-23
-27
-21
-34
-30
-27
-21
-16
-24
-25
-32
-19
-21
-9
-10
0
-1
-5
-1
1
9
15
14
16
19
13
22
23
31
27
36
37
42
39
50
47
52
45
40
41
53
46
62
60
61
57
58
58
50
42
41
39
35
25
28
23
10
-5
-13
-13
-16
-16
-19
-19
-29
-25
-36
-46
-46
-45
-58
-53
-38
-39
-52
-43
-40
-47
-57
-42
-54
-50
-55
-50
-49
-40
-43
-53
-59
-54
-56
-46
-37
-43
-56
-51
-52
-51
-49
-48
-45
-47
-36
-48
-41
-42
-50
-44
-42
-42
-43
-40
-43
-38
-46
-43
-48
-42
-48
-53
-53
-59
-51
-43
-44
-43
-47
-35
-39
-48
-55
-57
-46
-43
-46
-51
-43
-44
-50
-48
-47
-39
-36
-46
-49
-53
-53
-50
-48
-55
-45
-38
-47
-44
-46
-47
-51
-59
-44
-51
-49
-48
-44
-52
-48
-41
-44
-40
-44
-49
-49
-51
-50
-42
-47
-51
-40
-47
-51
-50
-48
-45
-35
-52
-49
-36
-37
-42
-50
-38
-51
-53
-42
-31
-42
-51
-30
-38
-48
-46
-48
-40
-38
-41
-31
-29
-39
-33
-30
-29
-48
-40
-32
-34
-22
-36
-33
-47
-34
-34
-37
-42
-47
-42
-43
-48
-39
-50
-55
-51
-52
-57
-57
-45
-40
-49
-53
-45
-59
-48
-49
-48
-51
-45
-55
-47
-51
-53
-48
-56
-57
-50
-52
-51
-43
-47
-57
-61
-63
-61
-62
-68
-65
-53
-53
-34
-19
6
26
45
72
111
139
123
101
77
66
58
38
2
-32
-63
-111
-137
-124
-124
-113
-104
-105
-97
-78
-60
-59
-53
-46
-56
-51
-47
-48
-51
-46
-48
-42
-37
-47
-45
-48
-34
-44
-42
-43
-36
-43
-44
-36
-39
-42
-37
-34
-36
-35
-43
-44
-37
-36
-43
-41
-39
-21
-31
-38
-50
-34
-29
-25
-34
-27
-20
-30
-24
-18
-11
-13
-10
-6
-15
-17
-17
-12
-12
-5
-6
-11
-10
0
7
-1
-2
6
7
9
18
16
20
17
26
22
24
31
35
34
33
41
49
46
38
47
60
49
59
61
60
67
63
66
61
63
62
63
63
64
58
48
46
32
23
17
18
16
13
13
-1
-5
-10
-21
-17
-26
-29
-30
-30
-32
-23
-41
-37
-43
-36
-46
-47
-51
-47
-45
-41
-45
-41
-38
-36
-46
-37
-51
-48
-40
-47
-44
-43
-50
-54
-54
-41
-40
-45
-40
-48
-46
-48
-47
-47
-46
-47
-41
-43
-45
-42
-37
-52
-47
-44
-45
-53
-62
-48
-46
-29
-42
-42
-41
-49
-47
-42
-44
-51
-42
-42
-31
-49
-44
-50
-43
-36
-51
-46
-48
-38
-46
-50
-40
-49
-43
-50
-46
-45
-49
-43
-45
-46
-49
-44
-41
-54
-55
-40
-41
-49
-55
-48
-45
-43
-54
-50
-58
-47
-50
-48
-55
-43
-49
-43
-42
-45
-55
-45
-48
-53
-45
-44
-55
-48
-45
-47
-53
-47
-49
-44
-47
-53
-53
-53
-52
-51
-45
-52
-49
-49
-51
-50
-47
-47
-47
-45
-44
-36
-51
-59
-57
-55
-56
-56
-47
-56
-50
-42
-35
-50
-39
-34
-37
-39
-37
-41
-38
-35
-38
-25
-36
-49
-44
-47
-47
-56
-43
-39
-52
-55
-51
-56
-57
-48
-48
-55
-47
-40
-43
-55
-54
-46
-50
-50
-51
-51
-53
-57
-49
-41
-44
-47
-64
-60
-55
-53
-61
-56
-62
-66
-60
-63
-62
-58
-38
-23
4
40
48
93
129
155
143
109
104
91
75
42
8
-28
-68
-116
-141
-127
-122
-110
-102
-89
-74
-65
-58
-57
-43
-48
-45
-50
-50
-48
-46
-49
-56
-55
-47
-40
-49
-48
-46
-44
-43
-44
-33
-40
-45
-44
-47
-43
-40
-38
-27
-39
-44
-35
-37
-35
-38
-38
-46
-32
-34
-40
-23
-24
-33
-32
-27
-25
-28
-23
-28
-28
-24
-27
-24
-19
-20
-14
-12
-17
-14
-8
-2
-8
-16
-6
-6
-11
-10
-4
7
12
13
13
11
22
22
19
28
31
28
36
37
34
34
46
44
46
52
51
49
49
56
51
63
70
61
63
59
55
48
48
43
41
33
28
27
19
9
5
3
1
-6
-12
-18
-16
-31
-34
-30
-42
-41
-40
-39
-42
-39
-42
-48
-43
-49
-50
-40
-47
-52
-52
-48
-48
-55
-48
-55
-43
-43
-42
-53
-50
-57
-48
-45
-46
-53
-54
-43
-54
-53
-50
-48
-50
-61
-47
-54
-56
-49
-51
-51
-48
-52
-44
-47
-53
-54
-55
-47
-44
-49
-52
-54
-53
-47
-47
-41
-54
-47
-54
-53
-50
-46
-48
-50
-53
-55
-51
-50
-50
-53
-45
-49
-52
-49
-42
-42
-53
-49
-49
-44
-58
-48
-51
-54
-50
-51
-50
-60
-57
-52
-48
-51
-50
-54
-49
-47
-51
-48
-53
-50
-43
-48
-52
-59
-45
-52
-46
-54
-47
-49
-49
-58
-55
-47
-57
-55
-51
-52
-52
-51
-41
-51
-59
-47
-52
-62
-56
-54
-49
-55
-48
-49
-44
-42
-48
-53
-56
-50
-51
-53
-53
-58
-56
-49
-50
-52
-55
-44
-54
-56
-49
-48
-43
-56
-56
-52
-48
-40
-47
-46
-43
-40
-42
-33
-39
-35
-35
-27
-31
-39
-38
-43
-52
-46
-49
-49
-50
-57
-48
-41
-59
-49
-54
-52
-50
-58
-52
-57
-51
-54
-54
-57
-67
-49
-52
-48
-51
-51
-57
-51
-56
-62
-52
-43
-52
-54
-46
-52
-61
-64
-67
-67
-73
-72
-68
-62
-36
-16
7
29
58
101
132
166
153
118
104
95
69
25
1
-23
-57
-118
-123
-127
-110
-105
-89
-89
-67
-58
-53
-49
-47
-39
-44
-45
-46
-48
-42
-51
-52
-47
-51
-50
-43
-39
-43
-43
-40
-39
-38
-35
-40
-46
-39
-38
-37
-31
-38
-41
-37
-28
-39
-43
-31
-29
-30
-34
-38
-27
-33
-29
-15
-24
-31
-33
-26
-30
-16
-13
-19
-12
-24
-18
-10
-17
-17
-10
-11
-13
-10
0
1
2
4
-1
7
5
10
2
8
21
16
14
27
12
29
34
33
43
40
48
43
53
51
59
57
56
53
65
67
69
72
60
65
63
61
67
67
63
43
46
46
41
32
34
25
18
5
10
-1
-2
-11
-14
-28
-23
-26
-29
-33
-32
-26
-25
-32
-34
-37
-40
-41
-43
-40
-36
-36
-37
-46
-48
-43
-45
-45
-46
-42
-35
-33
-34
-44
-41
-49
-54
-46
-38
-43
-41
-43
-43
-47
-48
-52
-46
-40
-35
-45
-43
-37
-37
-43
-36
-44
-40
-42
-40
-39
-42
-33
-43
-39
-40
-34
-35
-39
-39
-40
-38
-36
-32
-42
-42
-40
-38
-36
-28
-37
-31
-35
-34
-35
-41
-40
-36
-31
-30
-37
-38
-38
-43
-36
-34
-38
-40
-36
-36
-32
-39
-37
-38
-28
-28
-31
-37
-39
-44
-40
-27
-31
-37
-36
-26
-38
-42
-18
-39
-42
-31
-36
-35
-34
-33
-41
-36
-34
-32
-36
-37
-40
-42
-39
-37
-29
-32
-25
-39
-47
-36
-41
-38
-31
-34
-42
-37
-38
-43
-34
-34
-41
-32
-28
-32
-37
-27
-31
-38
-45
-29
-27
-38
-35
-27
-39
-33
-35
-34
-35
-36
-40
-37
-30
-40
-37
-33
-33
-37
-33
-27
-27
-22
-19
-27
-20
-25
-19
-21
-29
-25
-29
-33
-39
-35
-38
-35
-37
-35
-42
-41
-43
-27
-21
-37
-50
-41
-34
-40
-40
-42
-28
-37
-34
-47
-38
-33
-39
-33
-36
-35
-42
-43
-35
-41
-43
-40
-45
-46
-52
-58
-58
-54
-65
-47
-34
-4
26
49
78
109
154
176
172
138
136
119
94
55
21
-18
-58
-110
-129
-115
-100
-91
-93
-73
-62
-52
-44
-32
-45
-40
-30
-46
-46
-48
-37
-32
-37
-39
-41
-41
-39
-38
-38
-35
-30
-31
-21
-26
-40
-36
-39
-28
-28
-31
-32
-31
-35
-32
-24
-29
-30
-26
-28
-23
-23
-18
-23
-22
-22
-23
-25
-18
-6
-16
-26
-12
-17
-5
-10
-15
-6
0
-2
-4
1
2
8
5
3
3
8
8
8
14
17
17
19
23
28
29
30
32
29
36
43
47
47
54
50
52
53
62
58
67
65
66
71
66
70
71
74
72
63
82
75
57
59
61
58
48
54
48
29
15
16
12
4
4
-7
-8
-10
-17
-15
-21
-22
-28
-24
-29
-23
-34
-37
-34
-38
-34
-35
-38
-33
-35
-41
-43
-37
-31
-33
-42
-33
-39
-41
-39
-41
-42
-36
-41
-44
-40
-37
-34
-39
-35
-39
-43
-38
-41
-35
-48
-43
-43
-33
-24
-34
-42
-42
-38
-40
-46
-43
-40
-35
-36
-45
-37
-37
-34
-42
-47
-35
-35
-46
-35
-40
-37
-35
-35
-42
-48
-39
-35
-36
-35
-35
-45
-43
-42
-44
-39
-39
-38
-29
-37
-34
-36
-41
-41
-38
-40
-40
-39
-39
-32
-40
-36
-34
-31
-39
-40
-30
-33
-40
-34
-47
-40
-35
-39
-37
-46
-39
-49
-44
-28
-23
-35
-41
-39
-34
-34
-39
-38
-32
-37
-37
-41
-31
-27
-27
-22
-26
-28
-28
-25
-20
-18
-27
-21
-13
-17
-16
-22
-22
-28
-34
-35
-35
-41
-32
-34
-38
-35
-36
-36
-27
-33
-39
-34
-33
-34
-37
-40
-41
-37
-40
-42
-37
-41
-40
-29
-40
-35
-31
-36
-36
-35
-34
-37
-38
-38
-40
-43
-48
-55
-49
-46
-45
-34
-9
24
56
82
120
154
171
171
138
127
123
98
57
23
-10
-64
-105
-110
-105
-91
-96
-89
-79
-61
-44
-42
-40
-33
-35
-28
-33
-30
-30
-31
-27
-42
-32
-28
-31
-25
-24
-21
-25
-25
-23
-25
-27
-27
-27
-26
-17
-15
-21
-20
-13
-26
-18
-19
-22
-20
-3
-6
-21
-21
-9
-11
-14
-6
-15
-9
-10
-9
-17
-17
-9
-2
-1
0
0
-2
10
8
2
7
6
7
15
10
21
31
15
18
23
23
27
23
35
41
38
39
55
57
60
51
55
55
64
65
67
76
72
76
75
76
68
69
75
80
82
73
74
78
73
76
65
57
53
49
53
57
49
40
27
14
12
0
4
0
0
-8
-10
-13
-25
-22
-31
-28
-27
-28
-26
-29
-30
-28
-21
-26
-24
-28
-32
-33
-25
-22
-26
-24
-30
-34
-34
-27
-39
-41
-38
-32
-23
-29
-25
-29
-35
-33
-27
-29
-40
-31
-31
-25
-37
-32
-36
-27
-31
-35
-29
-27
-30
-30
-22
-22
-22
-20
-27
-26
-31
-33
-29
-23
-22
-27
-23
-25
-32
-37
-25
-19
-20
-25
-27
-21
-22
-26
-26
-38
-27
-19
-17
-15
-16
-25
-36
-33
-36
-22
-14
-31
-28
-27
-27
-12
-25
-27
-31
-23
-20
-28
-29
-34
-23
-27
-25
-20
-20
-21
-20
-22
-33
-27
-27
-24
-30
-20
-30
-28
-15
-25
-29
-29
-19
-22
-14
-26
-27
-30
-23
-27
-22
-24
-20
-21
-21
-9
-5
-28
-20
-20
-13
-15
-21
-17
-16
-19
-18
-28
-15
-11
-12
-8
-8
-5
-16
-11
-17
-15
-11
-3
-7
-14
-6
-7
-6
-6
-20
-20
-24
-25
-25
-20
-27
-23
-10
-21
-33
-28
-28
-25
-22
-29
-30
-26
-27
-31
-26
-26
-21
-20
-21
-20
-24
-26
-29
-27
-35
-29
-34
-31
-28
-26
-28
-29
-32
-43
-47
-39
-45
-41
-29
-15
7
32
55
93
136
160
194
176
151
142
128
95
53
30
-18
-59
-95
-98
-90
-84
-72
-73
-53
-39
-32
-30
-25
-25
-21
-20
-21
-27
-27
-19
-23
-20
-18
-19
-29
-21
-12
-14
-19
-26
-19
-25
-20
-14
-19
-15
-13
-5
-13
-19
-19
-17
-15
-15
-22
-10
-1
-12
-11
-11
-3
-13
-10
-6
-7
-2
7
1
-3
-1
-3
2
0
4
10
5
4
3
13
14
9
19
20
16
19
22
24
22
23
30
32
48
41
41
53
41
42
51
48
49
56
61
67
70
70
68
75
74
77
84
84
92
87
88
86
83
81
85
80
77
75
70
72
63
59
51
31
32
30
25
14
15
16
8
13
-7
-8
-6
-12
-16
-17
-16
-20
-20
-22
-20
-24
-23
-22
-17
-22
-25
-19
-21
-31
-32
-26
-32
-21
-24
-25
-19
-33
-28
-28
-26
-30
-27
-24
-25
-29
-31
-34
-32
-36
-25
-31
-31
-38
-30
-23
-30
-31
-35
-32
-32
-39
-35
-35
-31
-29
-26
-29
-34
-34
-30
-36
-26
-27
-30
-26
-39
-34
-40
-35
-31
-31
-35
-31
-41
-32
-30
-38
-39
-38
-22
-38
-45
-37
-27
-35
-29
-35
-42
-40
-40
-35
-27
-34
-37
-34
-33
-35
-46
-44
-37
-31
-34
-37
-38
-37
-39
-42
-33
-31
-29
-35
-38
-38
-40
-29
-37
-42
-38
-45
-45
-33
-34
-38
-37
-30
-35
-35
-24
-27
-35
-30
-25
-30
-26
-21
-25
-19
-19
-21
-29
-28
-27
-38
-46
-37
-42
-44
-46
-37
-47
-43
-44
-41
-45
-44
-49
-46
-40
-36
-42
-45
-43
-47
-44
-50
-43
-46
-45
-48
-51
-46
-36
-46
-56
-52
-40
-48
-47
-60
-59
-55
-59
-69
-74
-61
-43
-22
-5
39
64
103
146
175
165
141
127
122
104
66
35
-11
-52
-109
-126
-127
-119
-101
-95
-95
-76
-66
-45
-45
-40
-39
-37
-41
-42
-50
-50
-43
-42
-40
-41
-32
-39
-35
-43
-47
-43
-37
-42
-33
-30
-34
-40
-40
-38
-40
-34
-34
-36
-34
-32
-23
-29
-33
-29
-26
-32
-27
-18
-25
-23
-23
-19
-23
-24
-14
-16
-18
-18
-15
-14
-4
-16
-11
-21
-17
-12
-1
-10
-5
1
2
7
12
9
2
7
11
19
22
28
23
28
29
30
32
32
28
39
45
57
56
47
58
65
60
67
63
62
63
69
66
71
64
64
65
62
56
53
45
44
31
24
27
26
15
2
-3
-9
-8
-5
-20
-18
-18
-19
-21
-39
-39
-43
-34
-35
-33
-36
-35
-35
-39
-34
-34
-35
-37
-36
-38
-33
-33
-33
-45
-35
-40
-43
-46
-44
-45
-41
-45
-37
-39
-33
-41
-42
-41
-34
-46
-46
-46
-39
-36
-32
-37
-35
-46
-42
-43
-39
-30
-30
-38
-36
-38
-38
-51
-36
-38
-36
-40
-33
-43
-32
-35
-38
-32
-29
-30
-38
-38
-41
-38
-35
-29
-34
-13
-30
-36
-56
-50
-40
-42
-42
-47
-48
-32
-27
-29
-40
-33
-39
-35
-45
-44
-45
-47
-44
-43
-35
-31
-41
-44
-40
-45
-32
-34
-48
-44
-38
-30
-30
-39
-42
-42
-40
-50
-42
-40
-41
-49
-42
-43
-47
-47
-45
-43
-42
-41
-40
-40
-52
-44
-41
-50
-53
-39
-40
-35
-36
-28
-37
-36
-40
-41
-40
-31
-26
-29
-12
-16
-27
-34
-28
-26
-32
-36
-36
-39
-50
-46
-36
-40
-41
-35
-40
-43
-45
-45
-46
-32
-43
-38
-37
-33
-39
-38
-26
-31
-25
-32
-38
-37
-44
-38
-32
-38
-40
-40
-48
-34
-38
-41
-56
-51
-45
-41
-45
-35
-22
-1
23
45
61
97
139
152
133
109
94
84
72
39
1
-24
-70
-115
-127
-112
-96
-95
-92
-85
-83
-69
-47
-42
-50
-31
-29
-35
-30
-32
-31
-36
-35
-38
-45
-39
-25
-34
-31
-25
-33
-40
-40
-22
-18
-17
-25
-30
-30
-18
-15
-14
-19
-22
-15
-22
-14
-20
-27
-20
-36
-30
-19
-11
-14
-4
-7
-11
-16
-3
-8
-8
-3
-10
-21
-14
-14
-5
-11
1
3
-7
-4
-2
0
1
8
12
16
18
11
23
21
26
18
30
34
35
33
40
37
48
54
57
44
51
56
70
73
55
56
55
65
73
81
78
76
68
72
75
68
77
53
54
47
46
34
27
27
21
17
12
14
3
4
1
-13
-13
-9
-6
-29
-31
-23
-17
-35
-31
-27
-26
-22
-28
-22
-31
-41
-38
-20
-28
-32
-45
-36
-29
-20
-28
-17
-29
-44
-36
-19
-38
-37
-38
-34
-19
-25
-30
-22
-22
-44
-37
-34
-29
-39
-39
-30
-23
-21
-12
-11
-29
-39
-32
-38
-39
-35
-25
-14
-15
-22
-21
-10
-50
-48
-26
-20
-22
-21
-22
-27
-29
-40
-24
-32
-19
-22
-33
-30
-36
-31
-31
-35
-33
-36
-33
-34
-45
-28
-33
-23
-19
-16
-9
-15
-18
-35
-36
-35
-36
-18
1
9
3
-20
-33
-35
-45
-34
-23
-21
-20
-34
-31
-18
-15
-32
-41
-28
-32
-36
-36
-27
-41
-31
-27
-25
-33
-29
-44
-30
-21
-28
-12
-10
-19
-38
-41
-37
-31
-29
-22
-25
-37
-32
-3
-18
-45
-42
-32
-23
-23
-23
-27
-27
-14
-22
-16
-7
-17
-14
-13
-9
-4
3
8
0
-2
-15
-26
-34
-23
-16
-19
-20
-14
-3
-16
-21
-23
-27
-22
-20
-18
-22
-10
-18
-33
-29
-27
-25
-36
-32
-27
-17
-28
-22
-18
-20
-30
-29
-29
-15
-19
-25
-45
-39
-42
-31
-33
-32
-6
8
42
82
90
112
151
166
161
130
113
85
75
50
15
-13
-38
-74
-96
-104
-97
-83
-74
-57
-35
-23
-23
-14
-18
-21
-15
-14
-19
-9
-7
-2
-9
-5
1
-9
-18
-3
-2
-9
-10
-1
-2
4
-5
-3
-1
7
2
-4
3
-9
3
4
9
-6
-4
-1
12
6
7
22
6
7
14
7
20
19
35
20
23
19
21
6
15
-2
21
8
10
10
26
30
24
21
16
30
28
19
26
31
24
34
44
47
32
32
29
43
50
50
40
62
71
57
66
65
67
68
69
81
80
77
77
73
79
88
81
78
87
85
72
76
72
55
58
66
49
44
54
33
22
16
19
18
17
10
9
2
3
-16
-16
-13
-15
-22
-22
-17
-19
-20
-28
-13
-14
-24
-28
-17
-15
-28
-19
-27
-28
-26
-37
-28
-22
-24
-23
-18
-32
-23
-7
-3
-37
-36
-23
-30
-28
-36
-38
-37
-34
-28
-27
-30
-31
-33
-27
-35
-39
-16
-20
-28
-34
-29
-37
-36
-37
-32
-32
-31
-32
-23
-39
-31
-30
-27
-46
-38
-37
-19
-29
-30
-33
-31
-32
-29
-29
-40
-31
-34
-29
-33
-33
-14
-22
-34
-41
-35
-34
-36
-33
-38
-33
-27
-29
-28
-30
-33
-31
-27
-25
-36
-34
-38
-35
-30
-31
-43
-33
-28
-42
-35
-34
-32
-33
-45
-40
-35
-31
-27
-18
-28
-33
-45
-41
-50
-44
-41
-35
-25
-27
-24
-15
-17
-25
-47
-31
-35
-33
-36
-29
-19
-16
-10
-15
-21
-32
-39
-38
-29
-26
-36
-41
-33
-36
-48
-49
-31
-45
-56
-51
-45
-37
-43
-31
-30
-36
-49
-43
-42
-34
-54
-37
-38
-43
-47
-42
-43
-40
-35
-41
-42
-37
-46
-43
-48
-60
-65
-51
-50
-45
-31
-12
23
37
64
99
127
155
151
116
92
86
72
32
2
-26
-78
-121
-121
-121
-116
-104
-103
-94
-72
-64
-61
-54
-41
-38
-38
-30
-41
-37
-44
-41
-42
-41
-36
-39
-38
-35
-33
-40
-17
-39
-36
-43
-36
-38
-21
-41
-52
-45
-29
-36
-35
-28
-31
-34
-30
-30
-26
-31
-25
-24
-23
-17
-11
-27
-30
-21
-22
-23
-15
-21
-23
-9
-11
-23
-16
-12
-18
-15
-4
-9
-6
7
8
2
11
6
0
-4
10
15
11
25
29
33
22
23
26
31
39
41
57
54
40
41
44
54
48
46
49
54
64
66
64
65
54
67
65
71
53
59
52
53
34
30
21
16
13
10
13
1
2
-10
-16
-14
-23
-37
-30
-31
-43
-42
-38
-48
-48
-50
-43
-44
-30
-31
-38
-59
-39
-33
-45
-64
-55
-46
-45
-50
-40
-51
-48
-42
-37
-51
-56
-51
-50
-48
-42
-48
-58
-48
-57
-49
-45
-48
-54
-35
-34
-61
-57
-52
-36
-43
-66
-65
-57
-48
-41
-56
-51
-44
-52
-33
-39
-53
-61
-60
-50
-54
-48
-52
-63
-59
-46
-30
-47
-47
-64
-67
-49
-48
-69
-50
-54
-55
-51
-44
-52
-52
-60
-50
-45
-58
-51
-37
-46
-48
-53
-64
-65
-57
-48
-38
-47
-38
-48
-49
-60
-55
-45
-61
-58
-54
-47
-52
-62
-52
-57
-67
-60
-56
-51
-47
-44
-52
-56
-58
-50
-53
-58
-57
-50
-43
-56
-48
-50
-44
-62
-60
-56
-59
-49
-56
-44
-41
-55
-40
-37
-61
-70
-55
-52
-52
-49
-51
-53
-60
-51
-62
-52
-54
-55
-49
-56
-53
-57
-55
-52
-55
-60
-53
-51
-45
-42
-50
-50
-46
-45
-40
-42
-42
-36
-29
-38
-44
-47
-51
-62
-68
-60
-42
-58
-59
-53
-61
-63
-66
-60
-63
-57
-62
-65
-51
-42
-59
-59
-67
-75
-62
-43
-56
-65
-65
-59
-56
-59
-67
-69
-50
-47
-58
-78
-79
-81
-88
-71
-77
-70
-52
-26
0
30
45
81
113
152
152
126
99
79
41
14
-16
-35
-73
-113
-148
-151
-140
-135
-127
-118
-95
-80
-80
-77
-64
-59
-57
-69
-54
-44
-47
-52
-61
-58
-59
-67
-55
-60
-57
-60
-58
-57
-41
-43
-27
-48
-38
-52
-57
-58
-56
-63
-64
-51
-61
-60
-22
-38
-47
-39
-40
-46
-35
-26
-47
-42
-26
-39
-37
-42
-38
-32
-37
-25
-31
-42
-33
-24
-34
-34
-25
-8
-22
-14
-13
-11
0
-16
-12
-1
4
-1
5
11
14
3
9
12
25
26
19
26
26
39
50
33
32
39
43
53
59
56
50
52
51
56
63
54
55
62
57
64
53
39
38
28
34
27
19
16
10
6
2
-6
-22
-13
-17
-35
-42
-36
-30
-37
-46
-55
-43
-44
-28
-33
-47
-80
-64
-58
-60
-56
-59
-57
-57
-67
-57
-61
-63
-58
-49
-59
-59
-54
-57
-49
-51
-72
-74
-63
-50
-49
-47
-44
-50
-72
-67
-66
-65
-55
-66
-67
-70
-75
-63
-56
-50
-49
-51
-65
-70
-73
-73
-78
-71
-60
-57
-53
-59
-66
-66
-63
-49
-52
-51
-63
-58
-56
-77
-72
-63
-65
-59
-63
-48
-43
-41
-65
-70
-56
-71
-58
-59
-58
-61
-59
-59
-37
-56
-42
-60
-68
-65
-57
-51
-66
-51
-51
-46
-61
-63
-63
-56
-47
-60
-64
-54
-42
-41
-62
-57
-62
-71
-56
-51
-60
-63
-67
-68
-58
-45
-67
-60
-64
-66
-60
-60
-59
-60
-58
-68
-54
-49
-55
-54
-48
-48
-48
-46
-57
-52
-53
-49
-45
-49
-41
-44
-48
-31
-32
-41
-49
-43
-65
-75
-67
-57
-68
-61
-60
-62
-61
-56
-46
-53
-56
-55
-63
-69
-63
-72
-61
-54
-62
-64
-54
-56
-62
-60
-56
-61
-66
-69
-60
-64
-58
-48
-66
-66
-66
-78
-76
-75
-84
-64
-40
-7
15
47
67
112
143
179
160
127
100
88
53
9
-31
-64
-109
-139
-147
-143
-141
-134
-124
-90
-94
-77
-65
-63
-49
-53
-37
-55
-65
-71
-64
-80
-64
-51
-53
-56
-61
-57
-49
-54
-40
-37
-47
-49
-50
-55
-51
-49
-49
-47
-51
-56
-48
-49
-47
-47
-34
-31
-42
-51
-45
-39
-39
-53
-55
-35
-29
-57
-41
-29
-27
-39
-22
-17
-24
-34
-39
-42
-29
-21
-29
-27
-14
-2
6
-20
-13
-9
-5
0
-2
-2
-3
-2
7
0
8
14
23
28
27
26
19
34
32
34
52
47
35
41
54
50
43
49
59
63
51
55
62
57
64
44
23
25
27
29
15
7
6
5
-13
-14
-7
-21
-37
-33
-31
-42
-34
-35
-39
-56
-40
-40
-44
-81
-53
-59
-56
-61
-69
-63
-69
-73
-84
-68
-68
-57
-51
-59
-76
-63
-64
-67
-66
-68
-64
-63
-58
-54
-67
-69
-65
-57
-53
-50
-80
-79
-65
-53
-54
-74
-72
-75
-69
-66
-71
-77
-69
-73
-67
-66
-75
-74
-55
-65
-70
-69
-80
-72
-57
-60
-72
-66
-74
-70
-58
-74
-67
-73
-70
-65
-60
-69
-60
-67
-87
-73
-56
-58
-59
-64
-71
-72
-70
-57
-61
-73
-62
-70
-76
-79
-65
-67
-72
-67
-68
-67
-61
-68
-76
-71
-75
-71
-60
-64
-68
-66
-63
-68
-62
-51
-67
-73
-71
-68
-67
-72
-76
-72
-72
-69
-68
-71
-66
-69
-68
-68
-67
-58
-58
-50
-36
-53
-43
-40
-36
-38
-49
-49
-63
-64
-61
-59
-62
-68
-63
-64
-67
-67
-72
-70
-66
-75
-68
-80
-77
-72
-72
-85
-72
-55
-61
-79
-74
-73
-66
-66
-68
-68
-61
-76
-61
-73
-67
-67
-76
-81
-72
-68
-87
-70
-56
-38
-18
-16
9
40
81
110
118
111
92
64
52
45
20
-11
-41
-89
-135
-160
-151
-148
-144
-132
-121
-110
-114
-93
-80
-76
-72
-69
-52
-50
-61
-54
-68
-59
-66
-61
-63
-65
-66
-63
-61
-53
-50
-42
-46
-57
-51
-49
-54
-52
-56
-48
-43
-64
-58
-53
-47
-42
-36
-37
-29
-32
-39
-44
-52
-42
-54
-46
-34
-27
-25
-39
-35
-22
-37
-42
-25
-37
-32
-27
-22
-8
-26
-18
-6
-11
-15
-22
-10
-15
-1
-11
-20
13
12
27
5
13
11
5
4
20
19
30
22
33
41
47
44
35
38
63
59
45
49
62
55
59
65
55
56
43
43
40
32
24
13
15
16
17
1
-9
-13
-17
-22
-31
-38
-41
-29
-36
-48
-49
-54
-52
-57
-54
-59
-69
-61
-46
-45
-48
-52
-63
-67
-70
-74
-65
-54
-71
-69
-65
-60
-60
-51
-69
-75
-71
-66
-63
-61
-75
-71
-60
-57
-61
-62
-62
-71
-67
-76
-61
-61
-66
-67
-64
-64
-68
-68
-72
-64
-65
-65
-70
-64
-62
-53
-42
-64
-71
-71
-64
-73
-68
-60
-64
-54
-61
-63
-60
-67
-68
-58
-60
-62
-74
-69
-54
-54
-59
-62
-65
-66
-55
-61
-71
-72
-58
-72
-62
-60
-72
-47
-58
-54
-52
-53
-63
-71
-70
-66
-69
-68
-53
-65
-52
-65
-58
-51
-54
-53
-67
-52
-51
-41
-51
-49
-53
-52
-48
-40
-38
-61
-65
-66
-61
-61
-52
-71
-70
-85
-66
-68
-62
-68
-64
-74
-75
-64
-49
-69
-81
-80
-70
-59
-72
-77
-66
-73
-70
-82
-73
-73
-74
-74
-76
-70
-63
-63
-69
-88
-97
-94
-85
-74
-50
-14
-9
31
66
83
108
149
161
125
83
71
37
15
-31
-47
-85
-132
-161
-149
-136
-137
-134
-116
-90
-92
-80
-77
-64
-56
-60
-63
-68
-71
-64
-57
-61
-64
-57
-65
-63
-65
-72
-66
-51
-46
-56
-66
-70
-70
-65
-59
-48
-51
-46
-59
-61
-55
-40
-44
-43
-47
-41
-43
-48
-45
-43
-58
-43
-50
-47
-35
-40
-40
-37
-42
-31
-32
-14
-27
-36
-44
-40
-38
-31
-26
-21
-25
-20
-20
-15
-11
-7
-11
-2
3
-3
1
1
13
11
24
13
17
17
20
25
31
30
26
43
39
30
42
39
38
38
51
51
38
57
39
40
38
39
34
33
24
14
10
3
6
1
-2
-9
-6
-21
-12
-14
-28
-39
-43
-45
-59
-64
-68
-50
-58
-59
-62
-77
-70
-55
-58
-64
-65
-78
-71
-70
-70
-74
-67
-65
-66
-68
-73
-67
-65
-74
-66
-68
-74
-62
-59
-56
-62
-72
-78
-67
-70
-71
-69
-72
-58
-64
-66
-69
-70
-82
-78
-61
-54
-75
-79
-74
-63
-65
-71
-59
-71
-74
-71
-76
-78
-70
-57
-66
-76
-89
-73
-71
-58
-65
-77
-78
-60
-75
-79
-72
-66
-64
-62
-80
-79
-64
-59
-64
-72
-76
-83
-76
-76
-73
-74
-79
-66
-82
-84
-69
-79
-76
-70
-73
-73
-78
-82
-78
-70
-71
-72
-71
-69
-65
-79
-85
-76
-71
-84
-70
-69
-71
-81
-75
-74
-73
-76
-72
-68
-66
-71
-60
-66
-70
-64
-69
-73
-71
-71
-59
-47
-53
-58
-65
-76
-89
-91
-82
-90
-77
-75
-76
-80
-78
-80
-81
-77
-88
-81
-79
-73
-82
-78
-74
-80
-81
-80
-79
-71
-79
-78
-81
-84
-91
-89
-90
-83
-82
-81
-74
-83
-90
-91
-100
-94
-69
-33
-25
-13
27
51
86
120
152
145
103
79
69
44
4
-29
-55
-103
-144
-168
-168
-140
-146
-138
-113
-100
-80
-82
-64
-64
-68
-55
-52
-51
-57
-60
-88
-74
-72
-63
-62
-62
-59
-69
-61
-63
-62
-62
-60
-64
-55
-58
-56
-64
-50
-52
-63
-57
-41
-57
-52
-48
-53
-56
-47
-42
-60
-35
-26
-48
-42
-52
-41
-49
-46
-43
-46
-50
-24
-32
-31
-37
-30
-25
-27
-21
-21
-31
-25
-22
-27
-9
-9
-6
-2
-6
-5
0
6
4
10
24
15
21
20
33
30
29
34
26
30
36
40
54
55
54
48
37
50
56
56
48
42
50
44
40
42
37
38
29
16
10
6
1
-1
-16
-20
-17
-24
-25
-34
-29
-27
-33
-45
-57
-55
-56
-58
-53
-49
-50
-66
-69
-61
-72
-61
-50
-59
-58
-65
-65
-58
-58
-60
-75
-66
-68
-57
-67
-60
-73
-76
-55
-56
-66
-71
-59
-70
-70
-71
-68
-57
-56
-65
-66
-55
-54
-62
-60
-69
-73
-79
-70
-66
-58
-54
-55
-68
-69
-66
-71
-68
-68
-55
-60
-57
-56
-62
-68
-68
-75
-71
-67
-64
-56
-60
-63
-72
-68
-72
-66
-56
-63
-56
-70
-63
-58
-74
-66
-69
-64
-67
-59
-63
-67
-80
-60
-62
-65
-60
-68
-72
-76
-71
-67
-61
-60
-75
-63
-86
-82
-65
-77
-70
-82
-74
-65
-62
-69
-74
-62
-74
-78
-68
-62
-64
-78
-83
-68
-69
-77
-73
-64
-63
-70
-79
-66
-67
-69
-48
-60
-54
-73
-85
-78
-79
-62
-75
-70
-64
-69
-67
-48
-61
-53
-54
-64
-56
-51
-55
-60
-51
-48
-52
-56
-62
-73
-80
-67
-66
-78
-84
-82
-73
-81
-75
-60
-56
-67
-60
-89
-90
-81
-81
-75
-69
-77
-86
-77
-69
-81
-70
-76
-76
-81
-80
-75
-75
-77
-85
-73
-66
-80
-94
-81
-89
-85
-87
-33
-28
-10
21
50
81
121
152
148
115
93
59
37
5
-16
-52
-88
-152
-161
-157
-151
-141
-145
-121
-106
-93
-72
-72
-73
-71
-81
-66
-56
-69
-74
-68
-73
-73
-71
-69
-71
-74
-70
-62
-54
-55
-62
-57
-67
-57
-69
-55
-59
-62
-54
-43
-56
-57
-49
-62
-45
-52
-57
-59
-55
-45
-36
-40
-36
-50
-43
-40
-48
-50
-46
-38
-42
-41
-39
-42
-31
-34
-17
-25
-27
-20
-18
-19
-16
-19
-21
-11
-10
-5
-8
-8
5
11
-3
0
3
0
11
11
19
15
29
30
28
27
32
42
48
41
46
42
48
49
47
67
44
62
63
38
44
44
36
32
21
10
16
12
5
2
-10
-15
-9
-23
-16
-26
-26
-54
-52
-54
-51
-58
-59
-59
-57
-55
-56
-62
-65
-60
-72
-70
-67
-61
-66
-66
-69
-71
-60
-72
-61
-61
-59
-59
-73
-76
-70
-71
-67
-60
-58
-67
-69
-66
-57
-57
-57
-67
-69
-62
-75
-77
-71
-76
-73
-61
-77
-71
-63
-50
-62
-79
-76
-65
-66
-72
-59
-81
-70
-62
-68
-54
-60
-72
-63
-52
-52
-71
-63
-61
-73
-76
-65
-68
-69
-68
-66
-73
-75
-81
-76
-67
-69
-69
-61
-62
-61
-74
-66
-67
-71
-63
-56
-73
-61
-71
-77
-64
-63
-63
-68
-66
-67
-67
-79
-60
-60
-61
-72
-79
-66
-58
-66
-74
-68
-67
-73
-71
-74
-66
-73
-71
-71
-73
-80
-66
-63
-65
-62
-64
-67
-77
-68
-69
-62
-48
-57
-56
-52
-63
-65
-55
-54
-57
-62
-65
-58
-56
-53
-44
-48
-42
-44
-67
-50
-49
-60
-62
-71
-66
-73
-70
-69
-72
-52
-53
-52
-73
-76
-75
-77
-78
-81
-73
-72
-63
-75
-75
-73
-70
-70
-75
-78
-63
-81
-74
-73
-83
-74
-77
-78
-85
-91
-76
-76
-79
-72
-76
-80
-55
-34
-5
20
47
92
126
156
147
121
103
58
44
18
-20
-59
-86
-160
-164
-155
-151
-147
-140
-116
-107
-98
-79
-56
-58
-54
-79
-87
-66
-74
-71
-64
-64
-68
-65
-63
-53
-58
-67
-77
-56
-58
-63
-58
-60
-58
-52
-53
-51
-50
-58
-57
-57
-50
-45
-40
-59
-56
-62
-52
-48
-38
-49
-35
-35
-41
-45
-52
-34
-45
-43
-35
-26
-21
-40
-51
-36
-29
-30
-31
-17
-17
-21
-20
-8
-36
-20
-10
-15
-19
-8
-2
6
9
19
0
11
9
19
3
32
36
33
17
21
42
32
35
39
38
44
46
36
43
56
58
58
52
50
42
41
44
44
30
23
20
15
8
-3
-7
-7
-14
-9
-21
-23
-34
-53
-49
-52
-55
-61
-52
-61
-56
-60
-55
-53
-66
-64
-65
-52
-55
-77
-68
-69
-71
-64
-72
-71
-84
-75
-67
-72
-72
-66
-68
-80
-70
-73
-68
-71
-80
-64
-59
-61
-59
-67
-74
-86
-73
-69
-61
-69
-78
-81
-75
-76
-67
-75
-79
-84
-77
-72
-70
-72
-73
-73
-77
-77
-71
-72
-69
-59
-64
-62
-70
-79
-72
-62
-64
-50
-65
-60
-68
-63
-52
-57
-61
-54
-42
-56
-74
-84
-70
-62
-72
-58
-63
-71
-55
-30
-37
-77
-63
-58
-63
-59
-63
-64
-53
-78
-78
-72
-77
-55
-56
-67
-60
-70
-68
-61
-64
-67
-61
-63
-65
-55
-62
-58
-60
-58
-62
-58
-66
-61
-62
-51
-57
-55
-44
-52
-57
-48
-42
-55
-46
-58
-46
-48
-52
-61
-62
-55
-59
-57
-61
-65
-65
-53
-60
-54
-56
-51
-48
-51
-48
-55
-50
-45
-36
-39
-55
-45
-51
-60
-56
-52
-61
-61
-64
-72
-80
-62
-56
-56
-50
-52
-58
-64
-56
-52
-47
-60
-51
-64
-63
-70
-64
-57
-69
-66
-63
-44
-39
-67
-60
-65
-61
-49
-48
-59
-69
-68
-59
-72
-61
-62
-57
-42
-8
17
37
71
98
144
178
163
115
95
74
47
20
-14
-50
-93
-137
-160
-147
-139
-129
-126
-109
-95
-72
-73
-72
-53
-59
-54
-60
-48
-51
-59
-55
-61
-50
-57
-56
-54
-45
-46
-46
-52
-58
-57
-50
-58
-44
-40
-43
-41
-50
-44
-35
-25
-40
-50
-43
-41
-27
-29
-41
-37
-33
-29
-38
-45
-39
-35
-30
-33
-36
-23
-29
-28
-21
-32
-18
-15
-13
-12
-21
-16
-13
-13
-5
-6
-4
-6
-9
2
3
3
15
4
-3
-3
2
29
28
32
24
30
30
39
42
40
41
44
52
47
50
47
59
59
46
51
51
51
54
53
62
55
46
46
45
38
36
36
36
16
24
17
15
8
-4
-15
-13
-19
-17
-23
-23
-18
-29
-33
-31
-36
-28
-36
-38
-36
-29
-38
-38
-36
-39
-38
-48
-42
-47
-39
-45
-47
-41
-39
-36
-47
-40
-41
-37
-38
-38
-44
-54
-34
-34
-40
-41
-41
-39
-33
-36
-46
-45
-36
-35
-47
-48
-38
-38
-27
-36
-36
-38
-38
-43
-43
-37
-38
-37
-36
-40
-36
-38
-33
-36
-33
-38
-32
-31
-32
-31
-30
-34
-39
-46
-42
-32
-39
-41
-39
-31
-37
-45
-39
-32
-36
-34
-34
-42
-32
-33
-30
-21
-31
-44
-46
-35
-28
-34
-33
-28
-30
-31
-31
-28
-37
-37
-41
-27
-27
-29
-25
-16
-16
-20
-29
-34
-27
-24
-26
-31
-36
-33
-33
-32
-38
-39
-36
-31
-27
-29
-43
-37
-32
-36
-35
-32
-28
-33
-36
-32
-32
-36
-32
-31
-27
-28
-30
-37
-29
-37
-34
-41
-37
-37
-41
-39
-33
-25
-21
-13
7
16
28
46
76
101
122
127
98
77
57
45
43
17
-4
-28
-79
-103
-99
-115
-123
-99
-92
-86
-72
-59
-54
-38
-37
-32
-26
-27
-26
-31
-20
-23
-20
-17
-31
-32
-28
-25
-34
-22
-18
-19
-25
-13
-16
-24
-20
-17
-20
-18
-12
-19
-21
-13
-12
-14
-13
-14
-19
-14
-13
-14
-11
-7
-11
-14
-2
1
-5
-13
-4
1
-2
4
0
5
7
3
-5
0
12
15
9
4
21
21
23
18
22
20
26
30
33
41
39
38
37
39
45
46
49
58
54
57
60
55
58
50
59
67
63
74
61
64
74
71
75
62
60
57
51
50
33
35
33
34
24
21
17
3
8
-3
-14
-5
-10
-14
-19
-19
-26
-16
-10
-24
-26
-27
-31
-19
-24
-32
-44
-42
-36
-42
-41
-32
-31
-43
-30
-40
-36
-43
-40
-46
-32
-28
-31
-46
-38
-43
-37
-38
-33
-50
-36
-46
-31
-27
-31
-34
-42
-43
-34
-34
-35
-32
-38
-39
-43
-32
-36
-33
-29
-31
-35
-28
-37
-43
-31
-37
-43
-35
-24
-29
-30
-22
-26
-23
-34
-24
-25
-30
-26
-23
-26
-11
-24
-27
-22
-26
-18
-21
-4
-7
-12
-18
-22
-27
-25
-18
-14
-19
-25
-29
-28
-24
-32
-43
-37
-28
-37
-31
-44
-52
-41
-33
-37
-37
-38
-38
-43
-31
-32
-39
-35
-35
-40
-34
-38
-44
-37
-38
-43
-38
-41
-46
-42
-43
-47
-45
-39
-42
-56
-40
-54
-51
-52
-72
-66
-49
-36
-11
9
46
73
91
121
141
130
96
81
63
38
0
-13
-39
-65
-103
-116
-106
-102
-92
-86
-77
-64
-56
-46
-35
-36
-48
-41
-40
-25
-32
-36
-45
-41
-42
-37
-42
-43
-47
-46
-38
-44
-31
-44
-35
-44
-38
-36
-39
-41
-34
-33
-32
-46
-39
-41
-38
-26
-22
-30
-25
-32
-43
-35
-33
-34
-36
-33
-27
-27
-18
-20
-24
-35
-23
-21
-32
-17
-19
-29
-17
-21
-12
-7
-15
-10
-4
-8
-9
0
4
3
3
7
13
12
4
10
11
16
20
26
27
30
26
23
17
32
35
34
38
24
38
45
34
41
43
40
22
23
23
22
22
19
12
-12
12
2
-21
-26
-24
-27
-29
-23
-28
-52
-45
-48
-39
-39
-43
-43
-44
-45
-46
-52
-50
-55
-50
-45
-47
-50
-39
-47
-40
-41
-50
-45
-55
-52
-51
-47
-46
-41
-39
-37
-41
-37
-37
-38
-42
-32
-49
-45
-49
-59
-47
-36
-43
-45
-35
-36
-25
-30
-17
-22
-33
-35
-42
-34
-50
-43
-32
-32
-42
-39
-34
-22
-31
-46
-27
-28
-22
-28
-45
-35
-27
-35
-44
-36
-49
-44
-31
-18
-13
-19
-59
-43
-30
-33
-26
-25
-35
-52
-32
-33
-31
-32
-33
-39
-34
-40
-37
-48
-48
-43
-41
-40
-49
-46
-39
-32
-38
-35
-43
-49
-42
-36
-33
-38
-39
-41
-42
-40
-38
-46
-34
-34
-44
-39
-37
-43
-41
-39
-33
-36
-44
-35
-41
-42
-39
-47
-54
-53
-49
-37
-10
-1
33
43
64
104
123
147
121
92
87
76
55
33
8
-36
-54
-90
-106
-100
-84
-77
-64
-60
-45
-35
-20
-27
-26
-38
-36
-30
-34
-27
-36
-29
-27
-20
-30
-19
-16
-28
-33
-22
-26
-21
-19
-9
-31
-22
-23
-26
-23
-16
-19
-14
-16
-6
-2
-18
-18
-18
-12
-6
-17
-16
-17
-8
-4
0
-10
-10
-5
6
-3
-17
-4
-10
-7
-8
-4
-3
2
1
-3
4
3
1
3
11
16
12
26
30
21
28
23
21
24
28
33
25
39
45
31
27
36
40
34
47
58
54
50
51
51
57
55
46
55
54
41
46
51
43
23
23
24
24
17
12
13
5
7
-7
-10
-27
-18
-23
-35
-31
-29
-30
-29
-27
-34
-32
-45
-42
-45
-30
-28
-38
-42
-35
-31
-31
-42
-37
-37
-41
-24
-48
-43
-47
-39
-35
-22
-27
-32
-21
-37
-38
-42
-51
-48
-44
-44
-30
-34
-46
-37
-48
-45
-40
-54
-47
-53
-48
-53
-45
-41
-38
-31
-44
-55
-49
-37
-49
-51
-47
-50
-49
-39
-43
-47
-48
-56
-46
-37
-49
-43
-39
-45
-45
-42
-40
-43
-43
-54
-55
-57
-49
-48
-41
-43
-44
-50
-54
-47
-53
-49
-41
-45
-52
-49
-50
-44
-43
-52
-50
-51
-44
-52
-62
-56
-49
-50
-43
-46
-51
-47
-44
-44
-54
-61
-52
-52
-49
-46
-45
-50
-52
-43
-50
-51
-40
-43
-49
-42
-34
-46
-48
-42
-62
-53
-45
-49
-50
-42
-38
-32
-36
-29
-33
-37
-37
-35
-43
-37
-39
-42
-31
-40
-45
-53
-58
-55
-57
-57
-55
-46
-51
-47
-54
-58
-62
-59
-56
-54
-54
-57
-58
-64
-63
-64
-58
-59
-64
-52
-48
-59
-59
-69
-68
-62
-59
-67
-61
-53
-51
-51
-55
-60
-74
-75
-83
-80
-76
-79
-64
-44
-11
19
38
69
104
131
152
132
78
70
56
28
-16
-31
-54
-111
-137
-133
-130
-112
-112
-95
-78
-67
-64
-59
-59
-51
-58
-57
-51
-47
-51
-49
-52
-54
-57
-46
-54
-53
-56
-56
-54
-47
-48
-48
-47
-41
-43
-35
-38
-46
-51
-43
-51
-43
-38
-33
-37
-39
-29
-38
-48
-47
-39
-38
-38
-38
-34
-38
-29
-31
-33
