-161
-148
-166
-168
-174
-193
-216
-200
-173
-162
-168
-146
-142
-170
-188
-194
-208
-201
-174
-168
-170
-149
-134
-162
-172
-180
-192
-195
-189
-177
-173
-170
-173
-178
-181
-177
-173
-185
-157
-162
-156
-159
-162
-156
-174
-188
-208
-209
-191
-177
-155
-136
-147
-162
-181
-197
-199
-178
-170
-162
-154
-143
-137
-166
-195
-204
-192
-183
-182
-183
-151
-148
-166
-183
-191
-175
-191
-190
-184
-165
-136
-143
-154
-174
-186
-197
-188
-187
-181
-179
-143
-127
-138
-153
-173
-205
-189
-194
-166
-169
-151
-142
-149
-173
-190
-216
-212
-189
-169
-150
-130
-136
-142
-174
-176
-193
-166
-159
-148
-164
-148
-140
-154
-173
-165
-191
-191
-161
-142
-141
-122
-130
-132
-152
-179
-187
-202
-199
-164
-156
-134
-159
-169
-184
-192
-192
-181
-175
-150
-161
-131
-133
-169
-179
-171
-197
-198
-182
-162
-158
-137
-143
-148
-157
-190
-179
-171
-161
-140
-141
-128
-152
-175
-178
-185
-189
-167
-152
-130
-106
-88
-95
-120
-134
-124
-102
-106
-114
-93
-83
-99
-119
-150
-183
-220
-194
-191
-196
-171
-168
-140
-127
-148
-142
-169
-161
-173
-176
-178
-147
-150
-159
-167
-170
-179
-164
-180
-149
-151
-153
-136
-145
-173
-177
-196
-180
-164
-136
-137
-133
-133
-133
-145
-170
-192
-196
-174
-159
-156
-119
-130
-151
-159
-152
-172
-182
-174
-143
-153
-141
-127
-130
-139
-140
-166
-177
-168
-156
-140
-138
-132
-134
-137
-153
-170
-158
-153
-142
-131
-126
-117
-126
-159
-149
-166
-156
-153
-155
-132
-114
-124
-115
-123
-150
-151
-144
-137
-125
-116
-103
-110
-112
-123
-133
-131
-119
-101
-109
-122
-107
-77
-108
-113
-110
-124
-120
-115
-103
-89
-69
-66
-94
-106
-116
-125
-128
-124
-101
-76
-89
-99
-100
-113
-131
-132
-128
-102
-100
-117
-90
-101
-125
-131
-154
-155
-131
-143
-127
-120
-123
-136
-122
-167
-191
-169
-170
-157
-146
-137
-151
-140
-152
-153
-176
-171
-162
-154
-146
-135
-145
-150
-171
-170
-182
-175
-177
-164
-150
-133
-139
-142
-150
-166
-183
-178
-181
-164
-139
-124
-121
-145
-155
-155
-165
-174
-158
-177
-160
-129
-144
-161
-171
-172
-192
-168
-168
-162
-144
-123
-106
-140
-176
-167
-190
-178
-166
-152
-152
-133
-125
-131
-165
-163
-180
-175
-159
-142
-135
-100
-131
-167
-174
-168
-186
-188
-176
-156
-153
-139
-128
-137
-143
-147
-182
-175
-154
-143
-138
-129
-126
-137
-145
-167
-188
-197
-180
-136
-138
-124
-120
-128
-156
-184
-196
-185
-173
-141
-135
-123
-127
-145
-173
-179
-181
-179
-171
-164
-147
-138
-144
-157
-155
-153
-174
-158
-174
-152
-149
-136
-128
-145
-166
-184
-181
-176
-161
-137
-118
-132
-127
-147
-150
-187
-183
-183
-166
-154
-129
-139
-145
-159
-161
-184
-173
-182
-161
-143
-146
-127
-119
-150
-175
-215
-200
-172
-134
-132
-155
-148
-140
-143
-155
-190
-149
-145
-129
-131
-141
-153
-136
-162
-168
-172
-155
-164
-152
-153
-154
-144
-136
-144
-151
-165
-162
-167
-149
-157
-135
-130
-145
-167
-179
-202
-186
-171
-156
-131
-112
-129
-128
-149
-152
-193
-196
-174
-135
-126
-115
-118
-125
-143
-154
-165
-183
-171
-151
-153
-105
-113
-147
-142
-134
-173
-168
-141
-117
-122
-116
-130
-145
-162
-165
-173
-191
-162
-121
-114
-130
-151
-154
-153
-180
-182
-181
-179
-143
-139
-124
-128
-140
-157
-187
-200
-181
-151
-155
-147
-112
-119
-142
-174
-173
-179
-175
-156
-138
-128
-129
-133
-131
-114
-109
-117
-107
-76
-62
-33
-23
-64
-93
-100
-108
-144
-173
-163
-157
-143
-135
-138
-153
-155
-166
-167
-156
-147
-150
-127
-122
-141
-155
-154
-177
-185
-184
-143
-153
-122
-123
-119
-148
-150
-194
-190
-172
-152
-143
-119
-106
-124
-147
-149
-169
-176
-172
-158
-160
-136
-121
-120
-141
-149
-177
-184
-183
-146
-126
-108
-105
-131
-142
-154
-169
-164
-157
-145
-129
-101
-100
-115
-141
-154
-167
-170
-139
-119
-117
-95
-100
-116
-149
-165
-165
-157
-154
-132
-129
-113
-113
-126
-113
-118
-143
-145
-128
-139
-114
-92
-94
-89
-109
-128
-155
-133
-125
-119
-96
-91
-63
-71
-115
-98
-93
-108
-115
-85
-85
-72
-65
-96
-113
-116
-132
-129
-105
-77
-73
-72
-83
-85
-92
-107
-114
-101
-76
-74
-77
-62
-101
-110
-137
-162
-155
-138
-127
-93
-82
-102
-114
-146
-156
-171
-160
-150
-146
-141
-108
-103
-123
-127
-142
-185
-178
-174
-169
-153
-120
-130
-138
-148
-148
-169
-168
-156
-140
-127
-109
-107
-130
-155
-165
-166
-155
-169
-148
-150
-123
-120
-141
-155
-162
-168
-180
-167
-130
-123
-130
-134
-147
-155
-157
-178
-183
-161
-147
-141
-117
-120
-131
-158
-157
-163
-175
-140
-125
-131
-127
-116
-117
-125
-142
-157
-168
-160
-155
-153
-141
-130
-141
-160
-170
-193
-152
-155
-141
-124
-120
-112
-134
-147
-150
-179
-172
-166
-148
-127
-117
-141
-157
-157
-154
-148
-162
-157
-145
-125
-99
-118
-160
-159
-162
-160
-155
-127
-131
-129
-127
-136
-129
-152
-181
-178
-176
-145
-138
-136
-118
-122
-125
-163
-164
-168
-168
-156
-149
-125
-121
-130
-141
-160
-162
-168
-163
-154
-138
-108
-112
-134
-150
-137
-165
-172
-167
-148
-143
-108
-111
-122
-139
-152
-168
-149
-144
-122
-121
-111
-126
-129
-150
-138
-158
-150
-150
-120
-96
-108
-118
-129
-140
-144
-175
-178
-161
-135
-128
-103
-134
-144
-164
-159
-184
-172
-163
-166
-124
-80
-120
-128
-145
-167
-186
-171
-161
-150
-141
-119
-128
-134
-132
-139
-162
-158
-146
-133
-147
-123
-108
-109
-142
-161
-146
-119
-96
-86
-76
-57
-48
-58
-65
-82
-97
-96
-75
-84
-118
-166
-160
-176
-202
-189
-173
-162
-142
-134
-127
-108
-127
-135
-144
-142
-164
-177
-156
-143
-142
-121
-105
-127
-166
-178
-164
-150
-180
-147
-122
-132
-117
-144
-143
-151
-171
-166
-151
-130
-120
-121
-126
-124
-147
-171
-169
-160
-125
-114
-117
-127
-112
-127
-135
-153
-168
-151
-131
-136
-112
-105
-132
-154
-163
-166
-152
-131
-122
-131
-109
-110
-114
-131
-139
-153
-154
-152
-117
-111
-94
-105
-114
-134
-148
-154
-143
-152
-138
-116
-59
-80
-94
-111
-120
-130
-134
-108
-95
-86
-75
-64
-73
-117
-110
-120
-124
-132
-98
-91
-72
-72
-72
-82
-82
-97
-108
-108
-77
-81
-58
-51
-71
-70
-86
-121
-124
-98
-87
-85
-78
-74
-85
-114
-117
-132
-133
-119
-122
-98
-85
-98
-114
-126
-135
-171
-168
-151
-129
-132
-125
-117
-136
-145
-155
-174
-162
-145
-137
-113
-129
-140
-137
-157
-161
-167
-164
-144
-129
-129
-122
-119
-123
-151
-152
-138
-172
-169
-147
-121
-114
-123
-149
-181
-195
-174
-161
-131
-112
-142
-134
-129
-145
-149
-165
-162
-157
-133
-125
-110
-101
-116
-137
-178
-176
-143
-143
-156
-151
-129
-119
-125
-142
-140
-160
-159
-171
-182
-133
-84
-100
-113
-137
-149
-179
-170
-163
-143
-135
-126
-117
-121
-154
-161
-157
-148
-165
-167
-133
-115
-118
-112
-126
-131
-157
-172
-161
-145
-124
-119
-115
-127
-146
-151
-164
-159
-144
-121
-158
-131
-119
-129
-157
-154
-172
-162
-146
-131
-149
-112
-118
-135
-147
-149
-166
-173
-138
-139
-139
-126
-132
-136
-141
-127
-150
-173
-157
-138
-128
-101
-103
-114
-129
-156
-153
-151
-145
-127
-123
-103
-100
-138
-142
-140
-149
-160
-153
-123
-109
-99
-111
-117
-123
-139
-146
-155
-147
-132
-117
-122
-134
-142
-139
-165
-172
-168
-156
-134
-129
-120
-129
-134
-145
-169
-164
-164
-146
-131
-116
-119
-121
-144
-149
-181
-157
-141
-128
-122
-118
-121
-132
-130
-135
-166
-157
-148
-123
-86
-62
-45
-72
-95
-74
-88
-78
-66
-60
-63
-64
-42
-67
-111
-149
-185
-180
-170
-131
-136
-123
-117
-129
-138
-160
-187
-185
-151
-130
-118
-98
-111
-116
-127
-149
-169
-177
-148
-137
-141
-118
-123
-121
-140
-136
-139
-167
-170
-131
-123
-116
-121
-131
-134
-133
-176
-161
-134
-114
-140
-116
-110
-118
-141
-131
-134
-138
-156
-137
-123
-108
-115
-132
-146
-138
-144
-141
-127
-99
-111
-112
-112
-124
-142
-143
-155
-145
-132
-106
-105
-94
-88
-109
-120
-128
-144
-141
-118
-103
-116
-112
-90
-90
-132
-146
-136
-126
-120
-110
-91
-51
-58
-99
-111
-108
-102
-108
-111
-95
-66
-59
-67
-87
-84
-102
-115
-98
-76
-78
-64
-51
-49
-60
-52
-106
-115
-112
-103
-80
-56
-50
-59
-79
-106
-137
-133
-120
-100
-79
-81
-75
-86
-128
-124
-146
-139
-127
-122
-100
-98
-118
-127
-134
-135
-157
-148
-156
-131
-122
-125
-118
-123
-134
-139
-173
-172
-148
-114
-139
-111
-120
-133
-149
-142
-158
-166
-157
-142
-138
-109
-106
-123
-136
-142
-165
-145
-138
-146
-125
-115
-97
-129
-160
-156
-177
-182
-137
-121
-105
-105
-114
-112
-131
-133
-150
-153
-137
-127
-117
-107
-122
-161
-163
-154
-174
-166
-138
-125
-120
-110
-114
-121
-142
-155
-169
-165
-148
-132
-108
-95
-120
-142
-143
-155
-174
-167
-141
-119
-108
-114
-115
-123
-144
-159
-158
-154
-134
-109
-105
-103
-108
-104
-115
-140
-165
-165
-131
-128
-133
-131
-113
-143
-147
-154
-158
-144
-143
-138
-106
-106
-112
-140
-135
-146
-160
-147
-110
-114
-96
-88
-116
-130
-131
-172
-167
-149
-133
-130
-95
-96
-114
-136
-146
-164
-157
-144
-133
-130
-94
-102
-122
-141
-166
-184
-168
-156
-142
-129
-112
-111
-121
-149
-151
-165
-157
-139
-131
-121
-114
-119
-130
-145
-155
-156
-140
-134
-105
-105
-79
-54
-52
-81
-98
-85
-71
-61
-36
-57
-33
-31
-72
-108
-127
-176
-178
-186
-157
-145
-119
-108
-109
-128
-145
-157
-158
-163
-140
-117
-94
-100
-125
-151
-162
-170
-149
-123
-115
-121
-127
-112
-117
-165
-169
-163
-138
-149
-128
-102
-86
-95
-121
-152
-168
-160
-158
-145
-118
-112
-120
-105
-133
-135
-137
-143
-154
-116
-118
-101
-102
-103
-124
-153
-156
-151
-151
-124
-117
-110
-99
-93
-114
-126
-118
-140
-150
-139
-139
-89
-99
-96
-91
-113
-154
-147
-124
-108
-121
-97
-88
-104
-103
-105
-126
-115
-105
-89
-87
-79
-85
-95
-94
-101
-124
-115
-112
-88
-74
-47
-49
-67
-66
-81
-106
-102
-105
-84
-73
-52
-64
-70
-97
-97
-116
-83
-86
-57
-46
-69
-78
-60
-74
-85
-109
-114
-123
-99
-98
-92
-110
-107
-126
-136
-133
-135
-134
-115
-94
-73
-89
-116
-129
-133
-170
-169
-159
-139
-119
-88
-104
-116
-134
-155
-154
-157
-153
-136
-133
-117
-116
-109
-142
-142
-162
-167
-151
-137
-118
-123
-113
-124
-136
-142
-147
-155
-144
-131
-122
-118
-125
-135
-148
-158
-145
-154
-132
-115
-99
-86
-99
-140
-149
-165
-168
-166
-142
-120
-108
-113
-120
-144
-139
-157
-147
-151
-134
-118
-119
-106
-94
-107
-140
-167
-133
-135
-140
-150
-121
-122
-136
-148
-149
-152
-130
-146
-132
-127
-102
-97
-107
-119
-146
-168
-154
-138
-140
-121
-108
-121
-127
-142
-139
-156
-146
-137
-125
-109
-81
-86
-117
-127
-130
-147
-145
-143
-144
-125
-101
-109
-110
-113
-116
-155
-151
-139
-123
-110
-88
-121
-126
-153
-153
-167
-151
-123
-111
-113
-89
-101
-139
-148
-132
-179
-161
-157
-124
-128
-114
-115
-131
-135
-145
-151
-160
-148
-118
-123
-108
-111
-117
-131
-146
-152
-138
-122
-125
-114
-107
-120
-132
-143
-135
-106
-86
-68
-69
-71
-47
-20
-39
-66
-95
-89
-80
-81
-80
-98
-127
-129
-141
-151
-163
-164
-153
-137
-125
-123
-114
-120
-126
-133
-147
-148
-145
-144
-133
-87
-84
-101
-139
-151
-169
-171
-145
-129
-129
-111
-119
-133
-120
-124
-144
-139
-153
-133
-126
-105
-95
-116
-131
-143
-156
-146
-148
-131
-124
-98
-114
-102
-120
-130
-149
-152
-149
-134
-120
-77
-75
-112
-120
-116
-130
-138
-135
-120
-129
-107
-101
-106
-109
-124
-154
-136
-115
-118
-109
-84
-84
-87
-95
-104
-131
-125
-105
-95
-127
-92
-83
-96
-103
-117
-119
-110
-108
-94
-80
-71
-69
-70
-86
-97
-99
-85
-80
-76
-61
-54
-51
-83
-91
-89
-97
-105
-78
-71
-68
-56
-52
-62
-78
-82
-73
-67
-88
-86
-75
-86
-86
-87
-100
-106
-133
-137
-133
-116
-103
-95
-89
-108
-118
-125
-144
-142
-125
-118
-98
-103
-103
-134
-135
-158
-170
-155
-144
-124
-107
-108
-117
-119
-127
-137
-147
-132
-136
-122
-122
-106
-122
-140
-156
-159
-149
-133
-137
-119
-94
-105
-116
-136
-138
-157
-148
-134
-116
-109
-104
-116
-117
-138
-119
-154
-142
-136
-118
-116
-131
-121
-126
-132
-133
-157
-145
-141
-127
-123
-98
-110
-114
-123
-145
-171
-161
-156
-125
-116
-110
-108
-111
-121
-133
-130
-143
-144
-135
-117
-99
-91
-98
-119
-141
-145
-152
-147
-126
-120
-109
-109
-112
-133
-137
-159
-163
-137
-124
-125
-99
-104
-119
-130
-121
-163
-166
-155
-129
-118
-103
-112
-114
-121
-119
-164
-148
-144
-127
-90
-94
-109
-123
-144
-154
-142
-143
-139
-127
-123
-108
-101
-142
-143
-164
-162
-145
-134
-110
-104
-86
-105
-114
-140
-150
-153
-154
-133
-127
-106
-107
-113
-118
-130
-151
-147
-156
-140
-138
-127
-121
-112
-104
-104
-152
-142
-134
-122
-125
-113
-118
-114
-134
-151
-153
-152
-155
-125
-115
-106
-108
-105
-127
-142
-144
-132
-115
-126
-138
-91
-100
-129
-150
-153
-171
-150
-146
-129
-114
-87
-109
-126
-120
-121
-150
-152
-134
-126
-125
-116
-113
-123
-140
-138
-171
-158
-146
-127
-120
-102
-88
-113
-129
-137
-152
-143
-131
-106
-107
-119
-115
-122
-136
-138
-148
-148
-152
-137
-103
-108
-101
-99
-117
-127
-147
-151
-137
-112
-124
-122
-109
-132
-149
-159
-177
-162
-138
-124
-119
-106
-97
-94
-151
-146
-154
-146
-119
-110
-111
-95
-104
-122
-143
-137
-138
-143
-117
-130
-130
-114
-94
-115
-135
-151
-146
-141
-132
-117
-89
-106
-131
-153
-153
-171
-160
-150
-134
-118
-106
-82
-110
-117
-127
-170
-167
-157
-124
-119
-103
-98
-111
-117
-126
-153
-154
-143
-110
-117
-102
-99
-108
-141
-149
-150
-143
-142
-136
-116
-103
-96
-120
-138
-148
-171
-161
-152
-139
-135
-75
-71
-119
-132
-126
-159
-170
-137
-140
-125
-88
-84
-110
-130
-126
-140
-131
-121
-115
-117
-100
-113
-115
-127
-132
-148
-143
-120
-103
-106
-97
-95
-113
-133
-161
-154
-155
-160
-146
-122
-98
-101
-114
-121
-146
-151
-155
-126
-122
-114
-96
-116
-139
-138
-138
-144
-134
-148
-134
-113
-97
-101
-114
-140
-138
-139
-142
-141
-130
-116
-105
-110
-106
-107
-86
-73
-82
-71
-45
-39
-33
-31
-52
-76
-109
-108
-107
-115
-121
-122
-104
-104
-125
-142
-129
-122
-139
-143
-118
-127
-121
-116
-127
-143
-150
-150
-154
-140
-119
-98
-89
-106
-122
-125
-146
-150
-150
-133
-113
-100
-105
-103
-131
-134
-154
-135
-149
-135
-120
-83
-87
-106
-115
-120
-133
-140
-132
-121
-111
-81
-98
-111
-122
-124
-156
-148
-131
-115
-115
-86
-88
-88
-114
-129
-147
-132
-124
-114
-100
-90
-110
-110
-109
-122
-143
-140
-122
-102
-92
-55
-81
-106
-110
-111
-122
-132
-109
-84
-86
-80
-60
-58
-95
-113
-105
-106
-103
-88
-74
-57
-46
-75
-93
-97
-90
-88
-65
-84
-85
-57
-51
-64
-88
-91
-94
-99
-78
-59
-58
-45
-46
-48
-66
-87
-102
-121
-101
-72
-51
-47
-48
-75
-91
-99
-100
-96
-81
-81
-77
-80
-74
-93
-105
-112
-128
-134
-116
-97
-90
-88
-95
-108
-140
-160
-153
-142
-130
-114
-95
-92
-85
-96
-120
-129
-138
-126
-109
-109
-126
-115
-107
-120
-114
-137
-156
-147
-135
-125
-110
-110
-108
-116
-119
-145
-138
-122
-111
-98
-103
-98
-118
-124
-126
-139
-142
-128
-100
-95
-88
-93
-109
-126
-125
-132
-128
-126
-107
-118
-95
-96
-119
-139
-120
-150
-146
-130
-125
-118
-95
-81
-101
-120
-126
-148
-144
-135
-108
-113
-101
-99
-101
-119
-119
-121
-108
-115
-123
-124
-106
-78
-98
-117
-103
-143
-150
-141
-135
-128
-102
-99
-109
-133
-126
-124
-136
-134
-115
-100
-83
-98
-109
-147
-145
-146
-141
-122
-115
-105
-103
-94
-115
-135
-144
-138
-128
-111
-108
-109
-90
-90
-110
-128
-146
-145
-147
-130
-107
-99
-88
-103
-102
-103
-137
-140
-122
-106
-95
-92
-85
-75
-98
-121
-137
-138
-130
-119
-116
-110
-94
-93
-111
-127
-140
-144
-137
-128
-114
-85
-85
-103
-105
-108
-154
-151
-141
-135
-106
-71
-78
-103
-120
-125
-168
-154
-130
-116
-113
-85
-89
-102
-102
-99
-146
-155
-146
-127
-104
-89
-82
-96
-129
-124
-137
-135
-90
-86
-51
-57
-55
-57
-69
-73
-85
-67
-58
-69
-64
-65
-86
-132
-160
-154
-149
-145
-145
-137
-129
-96
-97
-103
-119
-130
-137
-129
-140
-122
-108
-94
-98
-112
-121
-102
-145
-153
-126
-106
-105
-96
-72
-87
-128
-129
-153
-126
-132
-115
-100
-90
-101
-114
-128
-114
-96
-116
-112
-94
-86
-90
-98
-103
-130
-133
-140
-132
-111
-92
-77
-60
-74
-98
-109
-128
-149
-134
-112
-91
-78
-65
-97
-111
-121
-121
-115
-111
-112
-87
-61
-63
-69
-85
-93
-122
-115
-120
-130
-94
-52
-58
-66
-87
-93
-113
-99
-99
-80
-68
-54
-45
-38
-71
-91
-101
-71
-74
-69
-67
-35
-35
-34
-74
-82
-117
-84
-64
-58
-56
-24
-28
-59
-75
-89
-89
-66
-68
-62
-65
-35
-59
-79
-81
-95
-113
-109
-79
-71
-62
-45
-66
-75
-90
-115
-137
-134
-115
-108
-96
-99
-115
-124
-120
-121
-131
-124
-102
-90
-96
-97
-104
-106
-129
-132
-164
-155
-131
-116
-106
-101
-97
-114
-108
-117
-141
-149
-133
-111
-88
-75
-81
-121
-144
-138
-124
-126
-135
-127
-111
-85
-94
-86
-121
-132
-138
-113
-129
-102
-102
-109
-86
-116
-131
-140
-139
-140
-125
-85
-70
-97
-101
-124
-135
-139
-122
-119
-91
-94
-97
-110
-112
-114
-110
-153
-151
-136
-119
-112
-86
-83
-76
-110
-117
-142
-126
-133
-120
-107
-93
-105
-104
-126
-130
-126
-133
-120
-91
-100
-96
-100
-110
-125
-132
-165
-156
-138
-103
-101
-101
-90
-88
-100
-134
-149
-151
-145
-100
-102
-81
-87
-98
-98
-105
-117
-130
-131
-95
-102
-88
-83
-101
-119
-131
-112
-110
-121
-116
-98
-84
-78
-87
-113
-124
-157
-169
-106
-92
-90
-86
-85
-91
-90
-111
-111
-126
-133
-104
-114
-121
-109
-121
-133
-136
-126
-122
-123
-112
-108
-77
-96
-110
-116
-114
-129
-121
-129
-121
-99
-105
-116
-124
-115
-118
-131
-127
-107
-96
-93
-84
-84
-105
-133
-137
-137
-137
-121
-108
-88
-77
-75
-68
-84
-81
-93
-99
-83
-51
-33
-13
-47
-59
-51
-52
-85
-96
-93
-123
-121
-104
-88
-140
-134
-147
-135
-137
-120
-114
-108
-80
-85
-105
-132
-148
-136
-124
-117
-109
-88
-75
-83
-92
-105
-115
-146
-160
-126
-126
-96
-96
-95
-99
-114
-130
-129
-115
-91
-98
-67
-98
-106
-90
-95
-130
-130
-120
-107
-92
-59
-85
-96
-126
-133
-133
-127
-128
-121
-116
-70
-62
-84
-89
-97
-116
-131
-114
-93
-89
-74
-70
-84
-96
-98
-130
-124
-109
-94
-78
-64
-68
-76
-81
-80
-91
-93
-81
-86
-84
-67
-48
-63
-87
-89
-96
-103
-79
-36
-52
-28
-14
-44
-68
-62
-83
-64
-45
-73
-70
-31
-22
-38
-66
-75
-83
-72
-42
-17
-24
-16
-26
-54
-68
-69
-60
-76
-78
-73
-47
-37
-51
-74
-89
-100
-111
-120
-109
-81
-62
-50
-70
-81
-93
-119
-129
-121
-105
-94
-84
-62
-74
-88
-112
-129
-113
-117
-101
-94
-75
-80
-98
-96
-125
-142
-126
-107
-96
-92
-84
-75
-93
-95
-119
-147
-146
-144
-103
-81
-46
-62
-79
-111
-115
-124
-128
-133
-105
-108
-102
-102
-92
-99
-106
-121
-123
-100
-90
-89
-81
-72
-82
-91
-104
-133
-150
-126
-105
-89
-80
-81
-87
-107
-109
-122
-131
-115
-95
-104
-71
-70
-85
-105
-110
-134
-125
-103
-101
-98
-76
-87
-90
-113
-129
-134
-124
-96
-61
-61
-79
-94
-115
-118
-117
-126
-114
-113
-110
-111
-83
-83
-85
-99
-104
-139
-124
-94
-85
-97
-85
-85
-104
-129
-135
-135
-127
-101
-103
-75
-60
-72
-102
-107
-117
-132
-138
-117
-88
-53
-58
-63
-92
-110
-120
-141
-123
-149
-120
-97
-79
-85
-87
-107
-126
-137
-132
-111
-93
-76
-65
-80
-110
-126
-150
-155
-122
-104
-100
-69
-69
-81
-99
-111
-125
-120
-123
-92
-72
-58
-73
-88
-103
-110
-126
-126
-100
-91
-108
-88
-78
-87
-93
-96
-133
-131
-110
-88
-86
-63
-79
-102
-116
-107
-140
-130
-122
-105
-82
-74
-90
-104
-120
-121
-126
-106
-117
-109
-97
-73
-77
-82
-120
-115
-124
-134
-136
-111
-108
-85
-86
-91
-99
-100
-111
-124
-115
-89
-91
-84
-83
-87
-88
-100
-94
-67
-34
-52
-34
-8
-27
-21
-47
-63
-74
-69
-54
-64
-80
-79
-100
-120
-134
-149
-146
-127
-117
-103
-88
-66
-87
-125
-126
-132
-130
-122
-116
-104
-94
-72
-76
-97
-106
-133
-126
-122
-110
-96
-96
-100
-85
-96
-107
-117
-110
-123
-113
-78
-64
-76
-103
-103
-108
-112
-108
-101
-80
-74
-55
-71
-105
-105
-102
-154
-133
-116
-85
-66
-56
-56
-66
-86
-107
-125
-123
-122
-112
-98
-95
-74
-73
-88
-89
-115
-120
-115
-108
-103
-37
-27
-57
-80
-96
-109
-110
-80
-68
-95
-65
-29
-61
-80
-69
-87
-104
-92
-64
-60
-42
-34
-50
-62
-64
-86
-62
-39
-54
-57
-53
-32
-38
-70
-83
-86
-80
-63
-34
-32
-19
-18
-27
-39
-49
-71
-72
-67
-53
-38
-40
-44
-55
-87
-88
-104
-114
-96
-66
-73
-60
-61
-86
-92
-110
-118
-118
-109
-99
-81
-69
-65
-79
-101
-120
-122
-116
-99
-107
-110
-97
-80
-95
-130
-132
-133
-113
-103
-99
-87
-69
-78
-90
-118
-144
-145
-144
-128
-112
-79
-85
-87
-101
-110
-120
-119
-108
-113
-98
-88
-85
-71
-105
-128
-143
-136
-126
-117
-84
-69
-86
-86
-94
-80
-122
-142
-123
-102
-93
-84
-90
-81
-108
-108
-116
-134
-132
-108
-101
-69
-69
-88
-106
-119
-139
-125
-133
-111
-91
-85
-92
-100
-103
-102
-135
-130
-105
-98
-104
-72
-78
-109
-127
-114
-116
-101
-122
-107
-110
-85
-94
-90
-105
-124
-133
-124
-103
-90
-78
-79
-112
-136
-123
-116
-117
-127
-120
-91
-85
-68
-75
-82
-99
-115
-133
-157
-126
-111
-98
-81
-84
-99
-102
-112
-119
-132
-117
-89
-103
-91
-79
-83
-91
-126
-132
-124
-115
-101
-77
-79
-82
-94
-110
-136
-137
-128
-96
-104
-97
-85
-81
-106
-124
-129
-133
-125
-123
-93
-90
-80
-71
-94
-131
-126
-121
-123
-112
-91
-88
-93
-97
-100
-103
-124
-140
-137
-110
-83
-51
-75
-99
-111
-117
-127
-115
-131
-124
-102
-78
-85
-94
-114
-105
-111
-106
-99
-101
-99
-91
-90
-102
-118
-117
-143
-143
-127
-107
-96
-75
-87
-82
-106
-120
-123
-120
-123
-102
-104
-88
-88
-84
-80
-112
-149
-152
-113
-91
-104
-87
-81
-83
-105
-102
-123
-124
-128
-116
-114
-69
-68
-87
-109
-116
-128
-134
-111
-105
-105
-77
-80
-102
-108
-89
-121
-109
-96
-85
-94
-89
-79
-105
-128
-123
-145
-148
-137
-103
-86
-78
-85
-89
-117
-110
-124
-120
-110
-92
-90
-69
-84
-120
-124
-131
-130
-115
-90
-88
-75
-70
-88
-99
-115
-151
-133
-135
-111
-85
-83
-84
-84
-108
-111
-116
-116
-125
-99
-97
-77
-70
-86
-101
-106
-111
-120
-112
-91
-79
-88
-89
-87
-116
-105
-105
-105
-130
-108
-88
-62
-50
-76
-95
-105
-126
-128
-121
-84
-78
-67
-84
-85
-98
-106
-110
-118
-105
-111
-99
-67
-66
-83
-85
-108
-143
-129
-114
-90
-114
-70
-76
-77
-107
-136
-141
-131
-124
-102
-97
-66
-74
-84
-100
-123
-131
-126
-115
-105
-92
-69
-87
-103
-122
-118
-141
-125
-94
-57
-74
-17
-17
-34
-45
-24
-44
-43
-51
-37
-3
-1
-29
-69
-124
-141
-155
-154
-125
-93
-76
-63
-71
-81
-97
-111
-140
-125
-110
-100
-90
-77
-66
-79
-92
-141
-146
-139
-104
-94
-90
-58
-74
-81
-123
-139
-123
-100
-80
-70
-81
-82
-75
-87
-101
-124
-120
-109
-97
-94
-68
-61
-75
-88
-90
-129
-142
-134
-104
-70
-66
-63
-57
-71
-87
-118
-111
-91
-67
-97
-62
-63
-74
-87
-112
-127
-108
-104
-90
-69
-59
-73
-81
-80
-93
-100
-102
-98
-76
-64
-35
-51
-59
-66
-83
-97
-89
-79
-68
-71
-49
-54
-56
-68
-73
-77
-87
-69
-58
-33
-5
-3
-32
-50
-34
-50
-68
-85
-68
-57
-31
-19
-28
-35
-43
-73
-73
-65
-50
-35
-17
-18
-28
-53
-66
-79
-63
-63
-61
-51
-34
-32
-52
-56
-52
-77
-96
-89
-81
-73
-61
-75
-78
-88
-93
-116
-114
-104
-101
-85
-49
-43
-69
-98
-106
-128
-127
-93
-89
-79
-56
-90
-93
-96
-113
-128
-123
-112
-92
-89
-79
-83
-86
-103
-103
-123
-113
-91
-86
-79
-60
-84
-90
-92
-117
-98
-92
-96
-105
-80
-54
-71
-102
-102
-115
-120
-115
-103
-90
-57
-63
-64
-99
-109
-130
-109
-104
-98
-83
-69
-76
-84
-101
-103
-114
-130
-108
-81
-67
-63
-51
-71
-69
-82
-124
-121
-111
-97
-89
-62
-57
-72
-86
-87
-128
-127
-101
-90
-88
-73
-55
-65
-77
-88
-119
-120
-114
-109
-96
-69
-67
-81
-90
-92
-113
-111
-97
-73
-84
-74
-77
-81
-93
-108
-127
-113
-103
-81
-68
-64
-75
-72
-101
-116
-139
-118
-99
-71
-57
-50
-69
-95
-117
-103
-99
-101
-85
-82
-72
-67
-86
-85
-102
-105
-122
-106
-108
-95
-69
-50
-63
-81
-99
-100
-96
-100
-117
-109
-90
-90
-60
-56
-84
-95
-117
-123
-92
-78
-76
-72
-83
-88
-109
-103
-79
-90
-85
-64
-58
-54
-65
-93
-108
-117
-119
-111
-97
-95
-73
-55
-77
-95
-90
-81
-104
-95
-104
-80
-52
-56
-67
-89
-110
-118
-118
-93
-79
-85
-53
-33
-69
-86
-108
-115
-103
-112
-75
-76
-59
-54
-65
-89
-89
-116
-115
-120
-95
-68
-41
-55
-40
-63
-93
-114
-108
-91
-86
-65
-47
-65
-63
-68
-55
-87
-93
-61
-44
-77
-50
-56
-67
-82
-107
-128
-112
-95
-61
-65
-54
-44
-57
-82
-96
-103
-129
-105
-79
-78
-58
-64
-58
-78
-84
-116
-113
-98
-84
-72
-48
-64
-82
-85
-84
-107
-98
-84
-49
-56
-26
-35
-48
-80
-73
-61
-50
-46
-14
1
42
40
15
-20
-28
-44
-50
-66
-75
-71
-77
-74
-88
-98
-102
-106
-92
-63
-64
-46
-43
-57
-66
-94
-122
-109
-95
-80
-75
-58
-45
-62
-77
-95
-103
-88
-101
-68
-63
-45
-38
-46
-79
-93
-104
-105
-91
-65
-47
-36
-53
-46
-74
-80
-100
-100
-89
-75
-79
-38
-27
-52
-53
-60
-85
-89
-87
-68
-44
-47
-48
-49
-70
-66
-91
-79
-84
-53
-48
-25
-26
-23
-32
-66
-93
-98
-94
-63
-47
-27
-30
-35
-60
-58
-74
-64
-51
-51
-32
-25
-20
-5
-38
-44
-79
-57
-29
-27
-22
-8
2
-31
-34
-35
-37
-54
-29
-12
0
33
15
-1
-2
-13
-27
-42
-30
-5
0
22
10
-10
-7
-14
-33
-42
-21
2
-2
6
13
-12
-60
-71
-62
-66
-45
-29
-15
7
-7
-41
-53
-74
-79
-80
-58
-56
-41
-33
-62
-54
-45
-48
-73
-93
-68
-38
-50
-52
-54
-57
-69
-87
-92
-90
-65
-47
-30
-32
-49
-74
-87
-90
-79
-81
-81
-60
-45
-43
-36
-49
-78
-92
-69
-66
-50
-47
-44
-33
-59
-55
-55
-88
-96
-82
-63
-52
-34
-53
-55
-71
-71
-77
-87
-61
-12
-44
-41
-36
-53
-64
-59
-89
-76
-69
-55
-55
-44
-41
-50
-60
-71
-84
-100
-64
-14
-31
-44
-37
-35
-38
-68
-86
-80
-67
-49
-64
-49
-34
-43
-52
-66
-88
-74
-59
-31
-60
-40
-20
-39
-63
-78
-91
-85
-70
-46
-33
-27
-38
-49
-69
-74
-90
-84
-76
-51
-40
-27
-32
-43
-63
-69
-79
-81
-67
-47
-40
-30
-22
-39
-65
-80
-73
-70
-57
-47
-43
-26
-34
-35
-61
-79
-85
-78
-62
-58
-23
-13
-21
-34
-70
-86
-75
-83
-73
-59
-27
-29
-34
-51
-49
-74
-73
-79
-73
-65
-20
-25
-32
-50
-54
-59
-58
-50
-45
-54
-33
-20
-32
-48
-63
-84
-83
-86
-68
-26
-4
-8
-38
-62
-59
-76
-76
-54
-18
-47
-34
-25
-23
-30
-58
-91
-74
-57
-35
-40
12
0
-29
-49
-60
-72
-55
-64
-30
-41
-21
-21
-24
-42
-43
-62
-44
-67
-62
-54
-27
-28
-44
-71
-76
-91
-77
-69
-56
-43
-21
-16
-39
-40
-62
-87
-49
-24
-37
-31
-6
-4
-22
-62
-57
-66
-77
-54
-31
-11
23
30
17
9
11
11
38
41
47
42
41
18
-37
-68
-72
-108
-95
-66
-52
-53
-11
-21
-46
-55
-59
-73
-74
-69
-49
-24
-13
-9
-7
-43
-64
-65
-49
-46
-40
-19
-21
-23
-45
-61
-44
-61
-68
-36
-27
-16
-15
-31
-51
-58
-68
-55
-54
-57
-36
-17
1
-12
-9
-27
-62
-60
-63
-35
-15
-12
-26
-24
-26
-32
-58
-65
-37
-14
-15
-6
-3
-23
-41
-30
-54
-49
-43
-39
-25
-4
12
21
-9
-33
-37
-44
-32
-18
-10
9
15
8
-15
-25
-35
-39
-17
-6
2
24
20
18
0
-11
-26
-24
-5
14
25
61
59
18
6
2
-11
-9
6
21
19
26
20
43
37
13
-18
-28
-1
24
40
58
67
54
-11
5
-19
-12
-2
17
7
13
-6
-16
-23
-14
-31
-35
-25
-21
-6
-3
20
-5
-47
-55
-66
-48
-54
-37
-15
-5
-3
-8
-22
-22
-68
-71
-38
-32
-20
-3
5
-28
-36
-53
-50
-45
-48
-43
-21
-9
-13
-26
-35
-48
-53
-58
-29
-20
-5
10
-13
-39
-49
-64
-57
-54
-32
-24
0
-3
2
-22
-22
-68
-61
-17
-29
-41
-24
7
12
-8
-31
-60
-60
-56
-17
-17
-3
-17
-23
-31
-21
-62
-61
-33
-22
-31
24
9
-12
-22
-41
-56
-46
-41
-37
-35
10
18
-27
-33
-23
-48
-47
-36
-36
-22
-1
-12
-25
-32
-30
-44
-62
-46
-23
-14
1
-11
-21
-36
-33
-54
-52
-35
-19
-5
10
4
-8
-40
-31
-56
-39
-20
-13
-17
-9
-9
-13
-40
-44
-50
-57
-33
-13
6
3
-14
-16
-23
-34
-27
-32
-22
-22
-6
-5
-20
-34
-41
-34
-55
-38
4
5
22
29
11
-3
-7
3
-43
-55
-23
-20
-27
-14
-11
-27
-37
-49
-35
-54
-46
-19
5
-3
-12
-22
-46
-57
-57
-47
-30
-5
5
1
-29
-47
-42
-54
-51
-36
-4
-2
26
35
-11
-28
-33
-53
-44
-37
-15
-6
41
49
64
24
1
-26
-5
44
39
54
78
40
43
10
-56
-94
-79
-57
-60
-36
-9
-15
-5
-40
-33
-42
-35
-45
-29
-13
10
-6
-14
-34
-34
-52
-54
-43
-21
-9
9
2
-8
-28
-40
-68
-60
-43
-8
11
14
7
15
-17
-37
-55
-72
-27
-20
-5
21
5
-5
-28
-35
-42
-59
-43
-15
-4
20
18
5
-29
-33
-46
-49
-35
-17
10
32
2
-14
-27
-16
-37
-41
-15
5
17
23
14
-5
-24
-30
-46
-31
8
26
47
50
41
4
-10
-9
-7
-29
-8
23
44
51
23
9
-18
-24
-19
-8
20
33
41
46
56
49
35
21
4
14
37
47
65
61
55
40
22
11
22
1
37
47
38
47
62
13
21
7
-22
-7
2
5
29
23
13
2
-10
-38
-25
-10
-19
-31
-4
9
4
-18
-24
-41
-36
-28
-15
-22
-3
-9
-24
-5
-19
-41
-23
-29
-26
-16
-12
-31
-38
-31
-33
-53
-47
-37
-13
-23
-6
-7
13
-5
-18
-58
-55
-55
-32
-33
-11
-13
-12
-24
-30
-33
-43
-35
-19
-5
11
-16
-17
-16
-7
-27
-44
-33
-23
-6
-10
-7
-28
-24
-42
-50
-42
-8
-5
-13
4
-2
-28
-32
-37
-58
-57
-37
-13
-13
1
11
-1
-11
-39
-42
-29
-16
-29
-20
-2
-13
-18
-33
-40
-38
-50
-29
-7
15
8
14
-5
-27
-42
-37
-54
-31
0
11
4
-13
-32
-52
-73
-57
-53
-31
-28
-12
-1
16
7
-15
-47
-60
-31
-19
-8
7
-18
-23
-23
-26
-48
-40
-50
-40
-21
2
-4
-11
-19
-10
-32
-32
-44
-19
-5
18
-4
-12
-24
-10
-30
-37
-46
-14
8
24
8
8
4
-2
-44
-54
-34
-3
-11
19
10
7
-32
-21
-50
-47
-47
-32
-24
8
8
-6
-27
-43
-58
-44
-32
-20
-3
-5
-11
-24
-25
-41
-64
-38
-15
-2
14
15
2
-26
-39
-42
-44
-64
-37
-3
4
5
-1
-14
-18
-2
-10
5
15
36
47
66
77
67
61
52
21
23
12
1
-13
-25
-21
-29
-44
-52
-45
-46
-46
-30
-9
10
-10
-14
-22
-53
-66
-50
-26
-6
7
12
6
-19
-30
-54
-57
-40
-23
-13
4
12
5
-28
-20
-11
-34
-47
-40
-34
-10
-6
-3
-11
-27
-44
-28
-31
-20
-13
28
19
-9
-14
-16
-41
-51
-43
-39
-27
13
-14
-9
-13
-16
-37
-31
-24
3
13
37
19
15
5
-16
-51
-43
-32
-9
-8
16
17
16
11
-2
-35
-16
-3
9
11
31
4
9
2
10
-24
-30
3
37
13
35
45
32
13
11
-9
-5
14
42
51
56
44
36
8
14
5
8
20
50
53
63
56
43
28
2
-13
-10
17
40
34
54
34
23
-7
-19
-22
-12
-8
-4
-3
2
12
-2
-17
-47
-57
-55
-40
-7
1
-3
18
-12
-31
-43
-54
-42
-26
-12
-13
-4
-16
-28
-52
-40
-58
-63
-46
-6
8
5
3
-37
-46
-51
-36
-31
-13
-23
-12
-6
-13
-27
-63
-72
-65
-48
-16
-38
-31
-25
-11
-21
-39
-44
-48
-49
-25
-28
-5
-5
-11
-30
-19
-50
-58
-54
-46
-20
11
7
-8
-17
-27
-49
-52
-22
-21
-29
3
15
-17
-36
-27
-65
-70
-64
-52
-41
-21
-22
-19
-32
-43
-47
-39
-38
-20
-19
-1
-3
-10
-30
-45
-51
-43
-42
-31
-21
-9
-18
-30
-48
-33
-59
-59
-28
-8
-5
8
-1
-21
-47
-48
-69
-35
-25
-27
-37
-11
-19
-35
-31
-43
-62
-62
-46
-32
-30
-5
1
-32
-31
-32
-68
-71
-50
-34
-18
-14
-19
-34
-44
-38
-51
-36
-25
-7
8
18
-18
-35
-47
-60
-66
-56
-34
-23
-10
-14
-7
-17
-32
-52
-63
-52
-18
-1
24
1
-15
-28
-32
-39
-47
-54
-22
-21
-8
6
-25
-32
-42
-68
-50
-61
-44
-16
14
16
-3
-32
-25
-48
-73
-70
-48
-63
-36
-5
-8
-17
-34
-78
-67
-46
-48
-38
-24
-17
-21
-36
-39
-58
-43
-38
-41
-33
-5
-12
-10
-26
-10
-8
0
12
22
36
69
59
43
28
36
13
16
-3
-6
-27
-23
-46
-48
-61
-63
-70
-51
-45
-34
-19
-20
-14
-35
-41
-41
-67
-71
-56
-30
-13
-25
-24
-29
-44
-39
-60
-70
-37
-8
-3
-17
-16
-43
-79
-40
-46
-52
-43
-26
-10
-16
-21
-33
-29
-43
-68
-59
-39
-27
-19
-14
-4
-27
-38
-44
-45
-57
-42
-21
1
-1
7
-6
-38
-46
-50
-48
-48
-23
-5
-17
-9
-26
-39
-50
-33
-32
-14
4
-6
-1
6
-19
-39
-43
-38
-26
-2
4
24
28
25
-4
-20
-40
-28
-22
-6
17
45
18
18
-18
-13
-22
0
2
11
32
38
17
44
37
34
-28
-21
0
26
29
40
35
21
11
-5
-19
-2
7
31
29
23
12
3
-16
-10
-37
-48
-26
-11
-19
8
5
11
-24
-28
-71
-72
-59
-41
-38
-18
-6
-19
-31
-44
-73
-62
-55
-34
-39
-18
-26
-36
-43
-33
-76
-73
-49
-32
-36
-15
-13
-29
-38
-46
-75
-85
-54
-23
-18
-6
-28
-47
-47
-68
-82
-77
-39
-29
-19
-16
-20
-24
-41
-63
-74
-74
-64
-37
-18
-19
-28
-29
-39
-70
-60
-57
-41
-31
-20
-19
-17
-51
-52
-64
-66
-59
-36
-27
-16
7
-11
-56
-70
-79
-78
-89
-41
-27
-25
-26
-9
-30
-48
-62
-53
-51
-59
-51
-14
-22
-16
-46
-59
-78
-64
-53
-46
-32
-9
-17
-39
-48
-48
-76
-68
-57
-30
-36
-22
-17
-14
-25
-53
-86
-79
-70
-68
-74
-19
-16
-10
-25
-33
-65
-67
-66
-32
-37
-37
-28
-36
-57
-84
-85
-77
-53
-33
-29
-11
-25
-33
-48
-67
-86
-64
-40
-50
-27
-23
-7
-15
-47
-49
-79
-78
-68
-48
-29
-3
1
-16
-48
-53
-72
-79
-46
-35
-39
-11
-8
-16
-20
-23
-43
-58
-44
-41
-46
-24
-14
-21
-49
-62
-75
-80
-64
-44
-35
-6
-8
-40
-52
-69
-78
-99
-54
-21
-27
-9
-18
-39
-55
-74
-88
-83
-79
-63
-24
-3
-2
-24
-21
-42
-61
-65
-62
-54
-56
-39
-35
-30
-47
-40
-35
-23
-3
4
22
45
62
34
24
4
-9
1
3
-30
-18
-46
-59
-68
-71
-90
-76
-76
-51
-43
-17
-17
-34
-41
-42
-82
-86
-87
-47
-39
-18
-16
-29
-46
-57
-75
-69
-68
-50
-54
-6
-9
-38
-61
-67
-71
-69
-59
-54
-54
-12
-22
-26
-27
-30
-38
-32
-15
-44
-68
-30
-17
-51
-51
-62
-88
-76
-64
-42
-22
21
-13
-23
-17
-50
-61
-56
-54
-48
-36
-17
-12
-24
-37
-45
-54
-41
-39
-18
-10
-21
-9
-24
-22
-11
-19
-57
-28
-3
-13
-12
6
-3
-35
-44
-49
-38
-30
-21
1
18
23
-8
-27
-13
-38
-38
-17
22
18
21
28
24
-4
-16
-10
-11
-10
17
29
31
21
24
13
-20
-14
-12
5
-1
1
-9
4
-7
-16
-35
-29
-59
-37
-35
-15
-14
-25
-47
-54
-75
-66
-42
-34
-36
-29
-26
-30
-48
-53
-86
-79
-67
-45
-61
-20
-23
-36
-57
-63
-80
-65
-36
-35
-56
-25
-33
-27
-62
-58
-85
-78
-82
-65
-67
-29
-32
-47
-62
-55
-64
-60
-67
-61
-46
-11
-34
-60
-55
-56
-81
-75
-80
-52
-37
-16
-26
-36
-52
-58
-75
-76
-62
-64
-51
-3
-30
-51
-59
-51
-62
-86
-73
-50
-56
-26
-28
-35
-64
-67
-75
-75
-61
-39
-42
-17
-29
-51
-57
-51
-89
-78
-50
-34
-29
-44
-43
-68
-73
-82
-88
-78
-59
-56
-30
-18
-33
-57
-57
-66
-74
-79
-73
-56
-41
-22
-33
-43
-46
-77
-83
-65
-48
-52
-43
-35
-30
-47
-67
-74
-77
-82
-56
-43
-19
-17
-55
-70
-72
-73
-68
-69
-59
-46
-14
-4
-30
-57
-69
-76
-78
-73
-51
-53
-37
-24
-20
-40
-43
-58
-67
-66
-47
-54
-34
-33
-42
-54
-62
-85
-84
-71
-63
-69
-45
-56
-57
-72
-69
-97
-75
-58
-56
-56
-23
-18
-43
-73
-67
-84
-88
-81
-52
-46
-25
-44
-45
-61
-64
-75
-56
-35
-12
9
7
9
6
0
5
-22
-23
2
13
-6
-8
-45
-83
-100
-105
-116
-102
-79
-49
-69
-47
-45
-42
-88
-78
-64
-72
-63
-44
-32
-15
-61
-67
-86
-110
-120
-86
-65
-56
-54
-34
-36
-35
-59
-85
-70
-58
-72
-63
-51
-48
-37
-56
-61
-66
-82
-57
-46
-39
-39
-54
-51
-57
-66
-92
-101
-79
-59
-49
-28
-22
-26
-45
-49
-80
-78
-74
-47
-41
-64
-36
-26
-42
-50
-81
-80
-70
-48
-31
-33
-34
-29
-40
-55
-65
-63
-40
-35
-24
-11
-5
3
-23
-51
-73
-63
-64
-34
-8
-6
-3
-12
-25
-31
-40
-31
-45
-8
-4
15
8
10
-3
-6
-46
-31
-38
-23
-5
19
3
-17
-32
-21
-38
-43
-27
-36
-9
17
19
12
-22
-40
-65
-46
-51
-37
-37
-23
-43
-35
-56
-55
-91
-83
-88
-63
-62
-36
-56
-57
-70
-72
-86
-84
-75
-53
-63
-36
-34
-63
-76
-98
-114
-102
-77
-67
-67
-53
-55
-53
-51
-69
-102
-84
-65
-50
-63
-59
-58
-59
-82
-111
-102
-75
-83
-81
-76
-45
-47
-63
-83
-86
-94
-95
-84
-61
-39
-40
-44
-47
-59
-114
-130
-123
-94
-77
-27
-34
-46
-70
-80
-91
-87
-61
-70
-60
-56
-44
-61
-83
-85
-95
-102
-84
-63
-64
-46
-36
-51
-68
-92
-113
-98
-86
-63
-60
-33
-38
-49
-85
-103
-115
-107
-89
-76
-73
-44
-50
-61
-83
-83
-95
-86
-75
-57
-61
-32
-31
-73
-87
-84
-96
-96
-86
-72
-80
-52
-58
-53
-77
-85
-113
-83
-79
-68
-78
-33
-53
-71
-79
-81
-103
-110
-89
-68
-63
-46
-53
-72
-81
-86
-99
-97
-80
-60
-81
-49
-46
-58
-71
-73
-89
-98
-86
-57
-60
-49
-51
-67
-91
-104
-97
-69
-68
-66
-67
-26
-46
-63
-86
-90
-100
-88
-79
-68
-63
-35
-38
-68
-72
-79
-68
-62
-73
-58
-50
-44
-44
-63
-93
-98
-105
-99
-80
-59
-52
-62
-65
-69
-82
-105
-91
-78
-62
-80
-68
-46
-39
-66
-93
-110
-101
-104
-84
-79
-50
-36
-47
-77
-76
-104
-102
-84
-67
-70
-40
-37
-10
-16
-25
-38
-35
-27
-13
1
30
31
16
8
-21
-75
-112
-92
-87
-88
-68
-45
-66
-79
-80
-88
-91
-92
-80
-62
-50
-47
-66
-74
-69
-100
-108
-90
-70
-80
-33
-53
-69
-92
-83
-106
-96
-83
-72
-71
-52
-44
-58
-85
-87
-95
-85
-86
-66
-55
-44
-46
-54
-83
-74
-89
-99
-77
-55
-75
-50
-48
-77
-80
-82
-97
-84
-83
-38
-31
-20
-37
-44
-68
-71
-92
-101
-80
-65
-38
-36
-39
-60
-66
-97
-112
-86
-56
-35
-25
-21
-21
-38
-51
-73
-62
-69
-48
-28
-11
-20
-27
-38
-49
-61
-61
-58
-43
-24
-20
1
-5
-16
-32
-46
-43
-8
-13
-17
-2
-10
-8
-7
-6
-43
-37
-43
-23
-5
9
-16
-23
-27
-29
-50
-38
-51
-49
-34
-16
-26
-22
-16
-49
-87
-80
-62
-33
-55
-36
-41
-47
-71
-75
-81
-93
-87
-74
-78
-49
-49
-42
-35
-58
-103
-92
-88
-70
-80
-48
-32
-61
-93
-91
-107
-95
-97
-84
-54
-33
-44
-53
-79
-87
-108
-96
-91
-79
-70
-55
-53
-65
-79
-86
-105
-91
-76
-50
-68
-53
-57
-61
-66
-83
-90
-90
-90
-62
-48
-53
-56
-82
-87
-77
-81
-81
-90
-92
-79
-62
-37
-53
-77
-95
-96
-97
-72
-50
-58
-42
-43
-67
-79
-94
-99
-90
-65
-44
-55
-49
-59
-58
-91
-93
-105
-113
-90
-71
-69
-48
-47
-44
-75
-100
-93
-91
-66
-62
-40
-50
-46
-83
-87
-111
-110
-86
-79
-65
-46
-50
-49
-63
-70
-104
-106
-113
-87
-62
-24
-23
-43
-63
-91
-115
-106
-98
-93
-82
-54
-61
-60
-65
-66
-84
-87
-89
-83
-75
-53
-51
-56
-71
-81
-95
-88
-91
-70
-63
-25
-45
-68
-72
-73
-97
-102
-94
-54
-60
-43
-42
-52
-68
-82
-107
-114
-101
-83
-75
-53
-63
-44
-60
-75
-106
-89
-94
-60
-55
-36
-54
-90
-88
-73
-83
-83
-85
-60
-45
-34
-52
-68
-91
-90
-102
-86
-72
-61
-53
-39
-40
-65
-68
-58
-82
-79
-68
-55
-60
-44
-23
-54
-90
-77
-64
-59
-71
-68
-79
-49
-47
-56
-57
-87
-97
-81
-77
-47
-54
-35
-57
-80
-77
-87
-99
-92
-52
-48
-42
-57
-63
-82
-81
-90
-105
-88
-71
-71
-38
-43
-38
-51
-82
-112
-92
-86
-62
-49
-49
-45
-48
-39
-29
-22
-24
-40
-11
11
37
33
23
-7
-20
-35
-50
-56
-79
-89
-54
-52
-51
-59
-56
-116
-102
-71
-56
-65
-40
-28
-50
-66
-68
-110
-87
-94
-70
-56
-27
-33
-56
-84
-71
-97
-98
-84
-60
-72
-49
-45
-53
-60
-58
-102
-100
-81
-40
-55
-40
-38
-59
-64
-49
-93
-94
-77
-44
-44
-14
-17
-35
-57
-73
-90
-81
-71
-57
-55
-40
-32
-47
-50
-54
-78
-73
-61
-48
-35
-17
-28
-37
-72
-82
-89
-72
-62
-43
-35
-14
7
-18
-54
-85
-80
-59
-46
-22
-2
18
-8
-18
-29
-37
-52
-65
-29
-17
1
17
3
-24
-28
-48
-69
-57
-20
7
16
23
12
-18
-32
-30
-16
-34
-24
-16
12
1
12
-11
-25
-49
-56
-28
0
-4
5
2
3
-30
-38
-56
-69
-62
-32
-23
13
-5
-35
-61
-78
-93
-86
-65
-46
-28
-18
-35
-41
-64
-68
-93
-88
-69
-75
-76
-37
-44
-40
-48
-64
-81
-77
-69
-54
-47
-25
-13
-42
-70
-74
-101
-94
-79
-49
-52
-25
-36
-42
-55
-68
-92
-64
-54
-45
-37
-24
-49
-61
-60
-59
-82
-77
-63
-56
-49
-26
-35
-57
-80
-76
-76
-63
-60
-31
-28
-22
-39
-36
-68
-73
-66
-59
-66
-43
-45
-24
-17
-60
-78
-58
-77
-79
-45
-38
-33
-10
-23
-49
-68
-72
-92
-87
-58
-29
-34
-30
-34
-48
-53
-66
-87
-71
-48
-47
-33
-18
-19
-46
-78
-84
-58
-73
-67
-43
-16
-10
-25
-43
-47
-73
-79
-64
-35
-55
-32
-33
-50
-49
-63
-78
-69
-64
-50
-27
-4
-23
-35
-44
-38
-52
-86
-66
-47
-47
-27
-19
-31
-34
-44
-65
-48
-63
-26
-13
-9
-23
-19
-58
-59
-64
-47
-28
-21
-32
-13
-2
-32
-45
-45
-61
-62
-54
-41
-33
-8
-10
-37
-50
-47
-68
-63
-44
-42
-33
-28
-40
-48
-57
-49
-69
-74
-46
-33
-33
-18
-15
-33
-50
-52
-68
-79
-36
-35
-28
-14
-28
-37
-35
-16
-54
-55
-31
-23
12
42
19
-2
0
14
16
21
31
40
42
47
31
-29
-77
-88
-100
-110
-97
-49
-29
2
-1
-38
-43
-55
-63
-69
-55
-23
-26
-9
-35
-34
-59
-73
-65
-46
-31
-37
-24
4
-15
-39
-59
-60
-57
-65
-57
-40
-6
2
1
-6
-34
-70
-56
-63
-46
-31
2
1
-21
-24
-32
-58
-59
-45
-29
-22
-10
-13
-10
-17
-24
-55
-44
-44
-12
-12
2
-18
-12
-20
-40
-49
-52
-32
-21
-24
-1
0
2
-29
-27
-30
-17
-34
-10
6
23
12
6
-14
-16
-45
-38
-38
9
36
53
39
29
13
3
-36
-20
-7
23
46
49
35
15
4
27
-2
-5
11
25
19
31
32
24
21
33
0
-6
11
33
28
45
43
26
5
7
-21
-38
-17
12
13
22
-1
-20
-33
-28
-35
-30
-21
-17
0
20
1
-21
-45
-55
-57
-52
-38
-34
-38
-22
-4
-40
-45
-53
-46
-63
-26
-29
-16
-13
-21
-22
-39
-57
-52
-37
-38
-48
-30
9
0
-29
-41
-60
-64
-45
-32
-21
-7
1
9
-34
-45
-61
-67
-70
-44
-24
-6
0
-10
-15
-33
-76
-54
-51
-34
-25
-2
-4
-6
-29
-14
-45
-58
-45
-39
-50
-13
-2
-24
-39
-42
-57
-55
-44
-27
-23
-6
-17
-21
-22
-23
-47
-47
-32
-6
-8
5
-13
-23
-47
-49
-70
-57
-41
-19
-18
-8
-15
-25
-28
-29
-48
-36
-42
-34
-16
0
-4
-35
-36
-29
-58
-53
-53
-25
-16
-5
-17
-10
-27
-53
-73
-60
-31
-7
-19
11
3
-14
-46
-46
-53
-51
-34
-31
-41
-9
-5
-13
-34
-44
-40
-35
-20
-8
-9
-10
-21
-35
-51
-50
-55
-40
-31
-10
-1
17
-3
-25
-42
-69
-70
-43
-28
-24
-9
10
2
-18
-34
-46
-50
-55
-36
-28
-3
-1
1
-14
-43
-37
-27
-43
-30
-7
10
8
5
-16
-30
-59
-48
-39
-12
-10
3
2
-19
-38
-36
-45
-35
-27
-18
4
29
20
13
-22
-25
-56
-26
-3
-30
-22
13
-1
-12
-29
-20
-63
-54
-54
-35
-12
-14
3
8
-26
-32
-54
-36
-47
-20
-14
-3
-4
-29
-42
-44
-57
-33
-13
-12
-32
-15
-11
-17
-13
0
-35
-35
5
39
57
77
62
57
44
56
20
17
31
47
58
52
3
-23
-60
-63
-53
-55
-46
-18
-15
-8
-17
-16
-5
-43
-60
-36
-25
-13
-14
-4
5
-14
-24
-29
-52
-50
-40
-4
4
2
-7
-13
-7
-13
-40
-44
-36
-9
16
10
9
-11
-24
-49
-33
-33
-25
-5
-8
-1
-2
-17
-18
-40
-43
-29
-15
5
21
14
19
13
-16
-43
-33
-14
-14
14
17
36
35
-14
-1
-40
-49
-16
1
4
32
22
21
9
-16
-40
-13
8
1
12
40
33
14
14
-4
-28
-11
-7
21
27
41
48
49
27
0
-11
16
21
33
58
61
41
46
40
28
2
10
0
35
65
71
57
43
27
39
25
19
9
33
46
49
45
28
18
10
-20
5
6
15
33
51
42
21
-11
-28
-29
-22
-13
-2
-5
20
29
7
-11
-32
-44
-18
-36
-35
-8
13
18
10
-19
-50
-64
-34
-17
-3
24
23
18
8
-31
-47
-50
-31
-23
-8
15
11
2
-17
-16
-37
-32
-45
-22
12
10
1
5
-1
-3
-43
-31
-12
-15
1
12
-7
-5
-11
-33
-56
-55
-46
-28
-8
44
31
7
1
-7
-39
-48
-50
-25
-14
19
17
7
-5
-11
-38
-36
-30
1
0
13
11
6
-12
-20
-39
-43
-37
-10
4
37
10
-13
-9
-15
-43
-49
-34
-7
-4
4
6
-5
-23
-27
-21
-41
-38
3
11
5
-5
1
-11
-14
-48
-40
-24
-17
-10
9
16
3
-2
-14
-35
-43
-31
-20
-2
21
5
-3
-27
-19
-37
-47
-42
-1
-11
20
14
6
-10
3
-41
-49
-15
-7
-11
15
20
4
-15
-25
-37
-22
-21
-11
-13
8
-1
2
-9
-26
-38
-31
-22
-1
29
31
19
-3
-34
-31
-32
-16
5
3
7
18
14
6
-25
-44
-27
-14
-30
1
28
39
20
-4
-6
-33
-52
-39
-21
-7
-3
-7
6
-5
-30
-52
-47
-48
-29
1
25
21
6
-14
-33
-56
-35
-18
-11
-6
27
2
3
-21
-22
-30
-18
0
28
47
66
54
46
20
65
60
29
41
45
50
51
27
1
-51
-67
-86
-64
-33
-8
-8
13
13
-2
-17
-39
-61
-49
-31
-10
3
20
17
10
-16
-37
-54
-63
-28
18
22
26
22
6
-19
-22
-41
-60
-32
-12
-4
13
16
4
-20
-31
-38
-45
-25
-2
3
20
22
15
-20
-26
-35
-31
-24
-3
18
32
17
1
-27
-22
-41
-30
-14
4
18
25
20
24
9
-3
-23
-7
4
2
5
16
11
-7
-3
-22
-31
-5
10
20
33
47
54
28
6
-18
-9
2
14
30
50
53
46
32
29
18
11
-1
22
47
70
49
47
41
24
8
11
31
54
54
50
62
68
36
23
14
22
37
37
46
71
53
53
37
13
1
6
-1
10
18
32
16
20
3
-6
-27
-24
-9
11
16
23
14
11
-10
-25
-51
-48
-38
-23
-13
-3
19
20
-8
-29
-58
-62
-31
-24
1
17
5
-4
-5
-3
-35
-37
-27
-21
2
4
-10
2
-33
-40
-55
-56
-24
-4
-5
14
24
4
-24
-20
-40
-29
-21
-20
-19
11
12
-16
-22
-32
-34
-37
-31
-9
-10
4
1
-16
-28
-23
-31
-40
-26
5
12
19
7
-9
-22
-25
-40
-50
-19
-3
10
12
-7
-10
-16
-33
-28
-32
-34
-15
9
17
10
-15
-16
-43
-57
-39
-30
-14
12
12
3
-13
-15
-25
-27
-50
-23
-17
-5
13
5
-20
-16
-20
-45
-44
-26
-21
8
31
20
3
-14
-54
-52
-51
-27
-18
0
0
-9
-21
-17
-45
-40
-29
-5
0
18
15
-5
-25
-21
-45
-43
-23
-20
-3
1
1
0
-24
-26
-43
-34
-18
-40
-20
3
-8
-5
12
-16
-42
-42
-24
-2
-6
18
0
-9
-17
-32
-45
-31
-34
-16
-5
14
13
-13
-27
-33
-44
-35
-18
-6
8
35
22
-16
-40
-58
-54
-38
-30
-11
20
18
21
-15
-24
-25
-36
-33
-20
-12
-14
16
18
-1
-25
-30
-28
-18
-26
3
18
10
5
-6
-21
-34
-43
-33
-11
7
3
24
34
-3
-25
-40
-18
-15
-9
8
23
10
2
13
-8
-29
-38
-40
-7
11
14
13
11
-3
-12
-31
-47
-40
-20
-2
49
17
8
-6
-29
-37
-35
-44
-23
-14
6
9
-8
-35
-37
-39
-33
-19
7
2
28
19
18
13
-5
-27
-39
-36
-22
14
49
84
80
37
40
32
46
45
60
67
86
83
54
25
-22
-75
-67
-45
-12
-7
32
17
-12
-25
-15
-49
-50
-25
9
5
14
-2
4
-13
-7
-26
-22
-9
-16
-3
19
16
6
-15
-33
-41
-18
-5
-2
-6
17
31
34
13
-27
-35
-40
-26
-11
8
27
9
-4
-3
-19
-22
-9
-10
0
-1
14
26
27
2
1
-14
5
13
17
20
23
27
16
-8
-11
-39
-40
-15
19
35
31
31
7
25
-10
-17
-9
-4
27
33
35
23
0
12
1
22
3
16
30
29
57
63
51
49
13
14
9
23
42
69
59
57
44
35
2
20
39
44
55
85
63
64
49
46
18
11
24
44
51
66
53
38
23
35
1
15
31
35
36
53
59
41
20
0
-16
-15
-7
50
9
22
29
19
-7
-12
-31
-25
-12
-7
6
14
17
15
28
25
-20
-61
-47
-8
6
27
37
-4
-9
-23
-37
-23
-3
3
6
17
6
-8
1
2
-20
-36
-22
-1
-3
12
26
25
-7
-10
-26
-22
-21
-1
2
17
11
2
5
-31
-49
-19
-5
9
26
36
22
-2
-4
-20
-44
-28
0
1
18
45
23
-10
-28
-27
-40
-13
7
19
45
37
15
-2
-18
-27
-39
-16
16
13
1
18
23
-9
-12
-18
-22
-35
-16
-4
30
29
4
-13
-3
-27
-22
-8
-4
-2
14
11
12
-14
-4
-5
-9
-20
-6
1
11
17
15
2
-3
-20
-32
-6
5
2
27
16
3
-29
-30
-37
-53
-22
-4
-6
58
30
13
-7
-16
-34
-18
-32
-24
12
37
18
13
12
-9
-31
-32
-22
-8
18
36
29
24
13
6
-12
-3
8
4
15
26
15
4
-3
-18
-30
-26
6
24
28
40
48
-7
-37
-26
-61
-58
-6
8
21
30
9
-6
1
-2
-20
-32
-22
-12
2
25
17
-2
-15
-20
-30
-36
1
14
16
37
29
1
-20
-23
-18
-19
-13
-2
22
23
22
14
13
4
15
16
35
58
91
101
98
63
54
35
24
-21
-24
-26
6
27
6
-34
-24
-46
-44
-21
5
12
8
25
18
-8
-18
-35
-47
-36
-4
29
33
18
17
8
-18
-39
-27
-14
5
-3
20
5
0
-8
2
-18
3
8
-2
5
27
20
1
-16
-21
-31
-29
-8
-2
12
28
25
33
3
7
-16
-10
-18
-11
1
32
32
22
15
9
-18
-25
-9
23
17
13
18
31
1
-9
-25
-3
13
