11
10
41
54
57
55
33
20
-4
-12
-6
19
39
61
57
48
32
16
-6
-7
-2
14
20
33
34
33
39
25
2
4
-5
15
34
54
48
35
17
17
-4
-5
4
15
14
43
51
41
21
16
-7
1
9
23
25
43
44
42
23
13
-6
-4
15
40
37
44
53
50
27
7
-6
8
17
35
43
65
66
54
32
36
11
13
27
47
47
56
57
42
26
28
12
12
31
43
43
64
63
46
25
38
14
16
24
37
44
72
79
74
51
43
38
32
36
52
61
89
84
70
58
50
41
45
59
76
90
102
100
74
49
37
35
39
53
66
88
97
87
74
66
43
36
29
60
82
85
84
81
64
39
20
18
32
40
56
69
72
70
52
38
17
16
17
39
45
65
62
61
37
24
-6
2
16
27
31
48
45
44
26
16
8
6
12
36
43
56
58
45
23
21
-3
-5
3
22
37
53
51
41
30
27
10
10
13
21
24
50
44
38
22
11
-2
2
7
25
31
47
46
41
16
12
-5
-4
17
38
38
51
49
33
25
29
5
-4
7
32
26
53
56
41
18
15
3
3
19
38
39
51
47
28
16
28
6
3
22
40
36
59
51
33
11
4
4
3
10
34
41
52
46
36
17
9
-2
-2
14
23
38
53
52
33
19
2
0
3
27
41
46
42
47
30
21
11
4
4
21
34
47
39
35
16
7
5
12
15
29
34
47
54
50
26
12
-8
-6
8
25
33
54
51
38
25
20
0
-5
6
29
35
50
48
42
27
20
-5
-6
1
22
27
46
46
46
22
11
-7
-6
12
23
24
44
44
27
20
28
6
-6
4
24
30
45
50
36
21
17
-3
8
22
40
42
45
43
32
7
5
-10
-3
8
32
28
48
49
36
13
11
-2
-4
12
29
30
43
37
25
19
13
3
5
14
27
37
47
51
34
14
13
3
5
23
35
46
68
66
33
21
8
-8
-5
16
53
61
66
68
41
22
11
7
12
29
42
48
51
45
25
10
-1
4
3
19
31
45
45
41
22
14
-3
-2
1
20
32
43
50
40
19
12
-7
-12
-9
18
13
56
47
47
36
37
31
53
71
108
135
168
178
176
141
120
77
59
62
68
41
52
56
53
36
34
6
4
11
28
34
52
52
42
14
8
-13
-20
-3
18
24
43
42
37
19
15
-3
1
13
26
19
39
36
27
13
8
-6
-4
9
20
23
45
46
25
7
9
-13
-9
10
25
19
40
31
14
14
9
-6
-4
8
27
30
48
48
32
21
12
-6
-17
2
22
30
42
44
31
17
2
-7
-4
13
30
44
58
59
35
15
-7
-8
3
18
29
45
52
44
30
17
-4
-4
-3
12
39
59
64
53
35
24
3
8
-8
28
50
63
57
50
49
40
21
24
35
56
59
77
71
62
49
35
10
16
29
51
54
69
63
68
51
48
27
34
45
57
61
74
82
61
36
22
13
21
17
36
42
67
62
50
29
25
5
0
20
38
36
60
56
39
26
23
6
2
6
20
23
44
46
22
-5
-1
-16
0
3
6
12
37
32
29
26
27
-2
-4
11
25
26
44
48
27
12
7
-7
-3
13
34
39
59
53
31
5
6
-11
-4
25
41
45
51
35
17
8
1
-6
-10
6
22
29
43
34
29
3
-6
-6
0
16
22
25
29
62
45
20
6
1
6
27
37
56
48
44
25
14
-2
-1
2
22
40
57
65
56
34
15
-4
-8
-2
15
17
40
48
42
24
5
-9
16
9
25
32
59
47
37
19
21
-1
6
14
17
26
55
52
45
23
27
3
-10
0
30
36
59
57
43
22
18
-3
1
9
26
30
52
55
45
26
26
-1
-2
17
34
35
47
49
40
27
29
3
5
6
28
33
47
56
49
9
8
-6
-8
9
37
45
55
55
39
24
16
3
8
18
31
37
49
48
33
22
21
13
16
34
58
53
45
34
26
24
19
1
-4
13
33
42
56
64
41
4
-23
-20
-4
24
36
52
58
55
33
16
-4
0
2
22
36
48
54
48
33
19
2
2
8
22
36
58
60
51
32
23
1
1
3
25
37
55
50
37
28
21
-8
-4
14
28
28
51
62
60
34
26
-2
5
19
40
47
65
56
50
33
27
5
0
2
20
31
54
43
38
23
17
-4
-4
8
26
34
49
42
36
19
11
-13
-9
8
20
14
32
47
46
21
14
6
13
25
47
80
121
140
143
134
139
117
115
118
102
88
105
100
58
25
26
13
3
9
29
47
55
47
40
23
11
4
2
15
35
39
45
44
37
19
6
-9
-4
15
33
34
41
48
30
14
7
8
9
20
30
46
54
49
27
7
-7
-16
-16
9
35
51
59
49
30
14
0
3
7
30
35
51
58
46
25
14
-2
0
3
21
30
53
49
41
22
16
2
3
14
34
37
60
55
40
25
23
1
-5
8
33
35
54
58
45
25
21
0
15
18
43
48
59
59
51
35
20
9
23
30
45
44
71
63
50
32
36
16
17
33
56
61
76
69
60
45
46
32
27
36
54
59
82
81
68
51
48
26
27
44
66
72
80
75
63
38
28
26
23
32
60
48
68
66
63
39
32
9
2
23
49
57
63
65
43
21
11
5
3
19
34
32
40
41
25
8
5
-1
2
16
17
36
43
37
26
5
-1
-7
-4
11
21
34
38
33
21
2
-22
-11
1
18
30
49
49
38
20
14
-19
-18
-18
9
24
34
35
32
14
24
-11
-8
-3
11
21
36
37
30
9
5
-13
-11
-9
16
33
40
32
21
14
2
-12
-6
0
19
25
43
36
30
22
11
-21
-23
-13
6
19
43
43
32
15
12
-12
-18
-10
14
10
27
33
24
5
8
-16
-22
-6
12
12
38
49
27
-2
8
-3
-9
-4
11
12
29
33
23
5
6
-9
-12
-4
16
23
38
37
26
11
6
-11
-13
2
16
23
36
24
6
-7
-14
-19
-21
-6
13
19
39
38
25
7
2
-8
-25
-7
10
30
42
32
14
-1
-11
-20
-16
9
19
37
45
35
10
-11
-16
-11
-2
8
27
30
27
18
10
0
-25
-26
-15
-2
10
39
27
13
1
5
-5
-11
-13
4
19
32
34
23
10
4
-23
-17
-2
16
22
37
29
20
9
1
-19
-15
-8
12
18
32
32
32
13
3
-13
-15
-13
8
15
38
36
27
13
6
-3
-8
-7
10
24
51
45
36
16
12
-10
-11
11
26
25
46
52
39
12
1
-17
-18
-9
14
15
32
32
26
3
-12
-32
-26
-3
13
17
34
39
33
7
-9
-25
-9
0
14
18
34
36
16
2
-4
-9
-10
15
47
72
87
114
117
102
98
93
84
74
68
65
67
45
10
-1
1
-11
-9
11
24
35
30
34
15
8
-11
-15
-9
8
18
31
33
36
16
0
-17
-12
-8
9
29
50
56
36
7
-1
-16
-11
-14
-1
8
31
27
30
14
5
-13
-5
11
33
29
46
45
32
15
10
-11
-6
2
25
33
56
54
47
25
10
-11
-6
6
22
29
44
44
31
14
14
-7
-10
1
29
29
46
47
39
21
17
-5
2
20
35
40
55
51
38
24
22
5
9
20
36
40
59
77
62
43
21
1
10
28
46
51
65
59
47
25
29
13
15
30
60
58
72
68
54
51
37
27
29
42
56
65
80
84
63
44
38
25
27
41
63
82
78
72
58
44
36
47
36
41
60
69
70
62
44
34
18
16
11
25
45
62
56
54
41
17
-10
-8
0
9
27
49
60
48
22
15
1
-1
-5
-1
19
34
34
16
2
10
-5
-1
0
9
19
44
43
38
14
12
-15
-5
-2
16
23
39
38
27
12
4
-15
-14
-7
13
26
44
43
36
17
5
-18
-16
-12
15
15
30
32
22
15
24
8
5
11
7
18
36
27
20
3
-3
-2
-12
-3
14
15
29
35
30
21
13
-11
-10
6
21
21
41
33
18
7
1
-13
-18
-3
27
30
42
44
29
15
4
-11
-13
5
28
32
44
45
33
10
-2
-11
-9
2
15
29
32
25
19
-5
-17
-18
-12
0
10
24
26
34
25
13
-6
-8
-14
4
18
42
50
43
25
11
-8
-10
-10
5
19
34
37
28
11
7
-16
-16
-15
8
18
31
31
34
14
-8
-9
-7
-3
10
17
33
31
27
4
-7
-25
-19
-3
5
13
41
32
26
4
0
-8
-8
-14
-2
9
36
31
29
2
-10
-25
-15
-2
17
25
50
45
27
3
-1
-19
-16
-8
14
19
35
30
22
3
4
-18
-14
5
27
30
51
52
34
18
7
-15
-17
-2
16
22
46
46
26
12
-6
-31
-22
18
34
24
31
26
20
7
0
-11
-16
-1
12
0
42
37
16
-2
-11
-19
-18
-2
18
25
32
28
15
-1
-16
-22
-22
-8
5
9
20
23
9
8
36
48
59
90
120
146
156
147
124
92
51
35
27
28
29
31
28
35
20
6
-12
-19
-14
9
18
31
34
26
8
-5
-27
-17
-24
-6
4
31
35
23
1
-4
-23
-21
-15
6
8
31
29
22
4
-5
-24
-16
-18
-2
1
20
22
25
17
4
-12
-8
-2
13
16
30
30
12
-1
-7
-26
-13
1
14
17
31
27
23
7
12
-13
-4
10
12
17
38
33
25
12
9
-6
-13
0
13
15
44
44
28
5
4
-15
-8
11
30
38
57
55
40
15
6
-2
-1
21
27
25
43
49
42
30
20
10
8
24
42
49
65
70
51
30
19
11
12
25
44
68
72
56
58
37
20
6
16
46
59
71
74
71
58
37
20
19
16
34
43
70
73
67
51
35
23
24
19
35
38
57
57
51
31
18
-2
-3
-3
12
22
45
47
46
16
5
-9
-11
-1
16
18
41
36
28
8
-5
-30
-38
-11
27
24
32
20
27
18
10
-17
-14
-6
9
7
31
36
29
12
5
-18
-16
-1
15
20
38
36
23
7
1
-13
-22
-17
11
21
37
36
21
2
-2
-22
-23
-12
12
11
32
29
5
-4
11
-1
-9
3
19
17
32
39
27
16
5
-16
-26
-2
14
18
33
28
16
2
3
-4
-5
1
15
26
28
22
13
10
-8
-17
-14
-11
-2
12
20
31
28
12
-3
-5
-2
20
29
22
26
17
1
-5
-16
-15
-13
9
19
32
41
30
15
2
-16
-23
-21
7
9
17
31
44
19
1
-14
-14
-19
7
17
39
40
29
14
2
-13
-10
-4
10
16
35
32
23
13
12
-10
-14
-11
7
18
47
32
12
-8
-11
-26
-19
-9
10
15
36
35
24
6
-3
-25
-32
-6
25
11
28
46
26
-3
-5
-17
-7
9
31
27
38
44
29
13
13
1
-3
7
24
22
38
32
19
2
10
0
-5
12
29
24
43
55
29
12
7
-17
-16
4
6
5
17
12
9
0
-10
-20
-21
5
19
28
39
33
14
2
-14
-22
-26
-11
5
16
31
20
25
14
-2
1
24
57
87
114
131
124
115
113
85
59
41
50
56
48
27
13
-9
-17
-31
3
0
6
21
29
34
37
16
4
-19
-24
-18
-10
4
38
46
33
15
9
-18
-16
-9
7
13
35
28
31
10
9
-20
-21
-7
14
22
45
36
28
12
-7
-37
-33
-8
19
15
40
42
28
-6
-2
-18
-23
-9
10
19
45
40
23
9
9
0
-4
6
25
23
41
48
37
6
9
-3
-14
0
10
11
31
42
25
14
21
-2
-11
8
30
33
49
43
28
18
11
-3
5
22
41
39
49
47
50
28
19
-5
-1
22
44
51
59
53
54
47
22
6
13
31
49
57
61
55
64
48
33
19
19
41
53
71
78
72
49
37
32
33
21
27
49
64
69
66
45
39
21
5
20
41
47
61
61
54
39
23
-1
4
6
18
29
52
52
50
33
27
-10
-22
-14
4
14
33
29
26
9
11
-33
-19
9
10
5
22
34
25
10
-1
-19
-19
-12
3
9
39
41
34
16
2
-22
-17
-4
11
6
19
32
34
7
8
-14
5
7
19
23
40
44
30
3
-1
-19
-21
-6
11
18
40
36
21
3
-4
-18
-15
-3
19
17
31
35
21
0
3
-7
-5
12
29
28
39
32
3
-18
-8
-6
-12
-3
5
18
38
32
28
16
15
-2
-10
-2
16
29
39
37
14
-1
-8
-10
-4
4
22
34
44
40
21
1
-10
-17
-11
4
25
31
36
27
14
2
-14
-19
-15
-4
5
19
34
40
27
19
-3
-4
0
25
30
44
40
41
28
32
3
0
7
18
24
56
47
31
3
1
-20
-19
-5
10
15
34
38
34
15
2
-25
-22
-4
20
23
36
33
16
8
9
-7
-11
0
11
15
31
28
18
-1
-12
-26
-19
-13
19
37
79
89
84
91
104
90
88
90
95
89
88
78
47
19
-2
-21
-16
-4
19
27
51
37
22
6
3
-13
-12
0
12
16
29
29
14
-14
5
-3
-19
-4
7
20
34
33
16
-2
-16
-17
-1
13
25
30
43
52
34
13
4
0
-7
3
17
23
33
38
28
4
-6
-17
-14
2
15
31
35
33
13
2
-13
-12
-12
8
23
35
34
41
25
19
-4
-30
-30
3
34
50
42
32
27
12
-13
-6
3
7
26
48
40
38
23
9
-14
-2
12
41
55
74
58
47
28
23
-4
3
14
42
42
56
61
52
33
21
-1
9
19
33
41
61
57
41
26
41
9
9
21
44
51
80
82
60
57
50
30
29
33
46
45
69
76
51
30
30
17
17
25
35
40
59
50
40
28
18
3
0
5
18
28
50
47
35
19
7
-14
-14
-4
3
12
36
37
18
-5
-12
-21
-17
10
29
31
26
26
16
-1
-18
-23
-20
-4
10
25
34
19
4
-15
-12
-16
-13
-2
12
22
17
13
24
2
-9
-3
-6
-2
15
29
27
30
23
5
-14
-18
-18
3
13
31
33
26
11
5
-14
-12
-9
10
12
20
28
18
3
-3
-20
-15
-14
2
13
35
26
21
5
-12
-26
-18
-15
8
16
33
34
26
7
-4
-18
-10
-7
2
20
48
31
27
7
2
-13
-19
-18
17
7
20
20
11
-1
3
-18
-19
-11
3
12
24
22
14
5
-4
-27
-31
-15
2
16
33
46
27
6
6
-3
-15
-4
11
12
35
37
28
17
14
-3
-5
4
14
19
45
54
36
18
15
-4
-10
7
20
21
44
36
18
2
-4
-18
-23
-11
7
16
23
27
8
0
-2
-17
-15
4
25
32
32
22
11
-6
-22
-31
-22
0
15
23
23
29
17
7
-8
2
20
56
80
109
137
143
138
121
82
63
40
51
77
88
68
41
16
6
-10
-4
-5
15
19
27
21
16
-4
-20
-26
-21
-15
2
7
40
36
25
2
-10
-27
-27
-13
2
1
30
31
25
18
8
-18
-15
3
23
17
27
27
26
15
10
-15
-34
-33
-7
4
28
35
22
3
-10
-25
-27
-22
-6
10
29
30
11
2
-1
-17
-18
-2
12
11
29
34
17
-1
-1
-19
-31
-5
15
17
36
33
18
6
4
-7
-13
6
22
31
45
45
39
26
3
-26
-26
6
27
27
37
33
19
14
1
-11
-2
18
31
40
50
45
28
20
6
-4
9
25
35
51
66
63
45
31
23
21
18
39
57
62
65
52
32
33
9
5
11
39
55
58
54
50
36
32
9
16
11
16
28
58
56
32
8
5
-11
-9
0
33
46
44
22
22
11
10
-9
-10
-9
6
17
39
32
19
-1
-7
-25
-21
-19
-8
-16
22
49
40
9
6
-13
-21
-14
0
7
33
37
22
13
13
-1
4
1
9
17
35
27
15
-1
1
-20
-26
-13
-4
10
28
26
18
11
11
-27
-27
-11
10
35
34
35
19
5
0
-10
-11
-4
9
20
45
47
23
-4
-12
-14
-15
6
24
27
29
29
15
-2
-6
-15
-17
-2
14
32
50
43
29
6
-5
-17
-16
1
15
25
30
25
10
-5
-19
-25
-32
-10
12
57
70
63
35
3
-12
-24
-23
7
10
34
37
28
11
3
-17
-13
-10
6
17
33
32
25
3
5
-16
-7
-10
2
20
37
32
22
31
-2
-22
-8
-9
9
22
40
39
31
18
21
5
8
16
28
29
47
48
36
20
15
-4
0
9
23
26
43
42
27
10
5
-18
-18
-2
19
28
52
41
27
9
8
-18
-11
2
13
7
32
31
32
12
4
-19
-22
-14
-6
5
36
39
23
5
5
-14
-6
32
70
99
135
154
142
134
126
97
80
74
80
86
76
56
29
15
8
5
10
15
36
41
38
20
10
4
-6
-4
0
13
17
33
41
46
18
-4
-22
-21
-9
5
17
23
33
28
12
7
-11
-11
-1
17
28
37
34
35
19
7
-12
-14
-6
11
15
39
41
32
18
17
1
1
-5
8
15
35
30
29
18
17
-2
3
2
16
15
35
39
36
6
6
-8
-11
-3
16
17
38
43
44
35
30
11
10
7
15
26
47
46
36
18
19
6
8
13
27
33
56
59
49
28
27
8
5
18
38
44
63
73
61
45
34
14
15
23
40
40
58
59
38
22
28
13
23
50
61
57
74
83
62
41
34
24
23
35
56
58
71
73
62
51
31
13
3
1
35
46
58
58
36
15
7
-1
-2
19
35
58
49
49
24
13
-1
3
8
8
26
35
33
38
21
13
-3
0
3
16
23
38
44
39
14
3
-13
-5
-8
-5
7
23
38
40
12
10
-4
-15
-17
4
18
37
33
36
27
19
-8
-14
3
26
24
35
37
31
18
21
-7
-19
-9
13
27
62
58
28
3
3
-14
-14
-15
-10
10
44
53
34
17
15
-18
-23
-21
3
23
38
41
30
15
17
-11
-12
-1
8
19
35
37
20
12
11
-8
-8
-3
15
21
41
44
23
8
-2
-15
-19
-9
10
22
34
51
25
-6
-1
-28
-27
-3
17
27
45
38
20
7
-4
-10
-19
-6
17
34
39
34
19
5
-2
-11
-19
-7
10
14
34
27
5
11
-5
-23
-25
4
23
30
32
29
12
-5
-19
-22
-22
4
19
38
39
38
17
9
-3
-7
3
0
-1
20
19
13
3
-8
-20
3
2
17
12
26
27
26
8
2
-23
-20
-11
9
12
26
22
24
7
3
-10
-7
-8
13
11
28
48
43
13
-7
-31
-27
-10
14
21
43
41
25
7
4
-17
-16
-5
15
20
39
35
22
7
6
-5
-7
8
18
16
43
45
36
25
26
5
-3
3
30
35
41
43
29
22
10
-27
-28
-8
6
8
33
38
23
2
-3
-16
-21
-3
16
21
36
37
19
-2
-1
-11
-7
-3
-4
6
36
34
16
-11
-14
-20
-17
16
47
72
96
99
109
105
99
98
95
100
90
96
91
80
47
19
-6
-18
-9
7
16
29
39
42
30
10
-3
-1
-11
-16
-9
32
40
38
12
11
-4
-10
-16
18
17
32
33
35
12
2
-21
-18
-17
3
22
51
47
32
11
2
-20
-13
-12
8
16
36
23
32
12
2
-25
-18
1
14
24
40
51
37
15
4
-18
-14
-6
15
12
37
48
36
12
16
-5
-16
4
23
28
52
47
31
8
4
-15
-17
0
19
24
50
55
46
30
20
-6
-2
12
28
33
45
38
33
20
15
-4
-1
18
38
41
53
57
38
18
26
8
7
18
49
59
64
64
55
43
34
24
29
22
37
56
65
51
45
44
26
16
12
32
60
73
72
68
43
24
21
17
5
25
46
61
53
45
31
27
16
10
0
16
18
30
51
38
30
23
-4
-10
3
13
22
41
43
41
28
13
-13
-13
-12
9
17
30
28
25
11
6
-13
0
1
17
14
38
34
28
11
-8
-28
-16
-9
1
14
40
25
15
18
6
-18
-8
-7
3
8
35
35
19
5
10
-4
-7
-3
17
20
37
32
25
15
14
-8
-13
-8
9
18
37
32
26
7
6
-29
-22
12
21
18
34
35
26
7
1
-25
-24
-5
11
16
38
39
31
4
2
-4
-8
-3
10
17
33
35
25
9
1
-10
-13
-1
17
28
31
29
20
13
1
-15
-18
-6
6
16
30
29
25
15
-6
-16
-11
5
17
28
31
27
16
11
-16
-23
-13
6
23
34
31
28
3
-2
-13
-11
-18
1
12
30
40
27
15
4
-13
-16
-17
2
5
37
31
28
19
7
-19
-15
-2
13
17
40
35
26
3
-2
-24
-10
10
34
33
49
38
28
17
17
-11
-2
10
27
29
43
43
36
20
14
-5
-7
4
12
4
29
28
17
5
9
-10
-15
-7
5
10
34
36
17
-7
-6
-12
-13
-9
13
13
35
41
28
-1
-11
-21
-20
-2
9
10
34
48
54
63
60
37
39
70
107
133
137
123
93
57
41
15
4
-5
9
17
30
38
35
11
-6
-12
-14
-3
8
17
30
33
16
17
3
-10
-9
6
21
35
35
28
10
-6
-21
-24
-20
2
21
34
34
31
10
-5
-24
-13
-13
-3
14
31
36
34
15
3
-15
-16
-5
16
23
41
39
28
13
-2
-25
-13
-12
13
19
38
35
31
16
16
0
2
5
10
8
34
36
35
16
7
-16
-19
-4
14
26
47
57
45
30
20
-4
-9
-5
28
29
46
41
26
9
10
-8
-6
5
23
31
53
52
45
30
25
6
8
22
46
57
65
60
53
27
27
14
12
24
42
50
66
73
64
49
52
29
21
27
42
49
66
62
57
32
27
15
16
27
44
48
64
57
40
22
14
5
4
19
35
37
53
53
28
10
-3
-7
-10
2
17
27
36
28
13
1
-11
-12
-7
12
22
39
32
29
22
3
-16
-21
-18
-2
11
26
27
31
4
0
-23
-24
-21
-3
10
38
37
32
22
13
-25
-21
-19
-2
10
31
31
25
9
-2
-24
-19
-22
-8
10
44
56
43
16
-5
-27
-16
-4
2
9
34
33
22
6
-4
-37
-23
-14
2
10
47
58
45
24
14
-14
-10
-10
4
14
37
39
24
1
-7
-35
-44
-32
-2
18
32
31
29
13
11
-8
-6
-1
13
17
36
32
11
-14
-27
-29
-17
7
20
23
37
35
26
2
-1
-17
-16
-4
7
16
29
29
19
2
-17
-33
-26
-3
8
18
18
22
25
1
-18
-16
2
-2
7
12
17
17
19
15
-13
-29
-19
4
26
33
23
25
16
5
-13
-16
-21
-16
5
34
36
30
16
2
-21
-18
-12
7
22
41
35
30
14
2
-23
-20
-24
-6
4
37
48
40
19
10
-24
-18
-2
15
23
48
47
40
16
2
-21
-23
4
20
18
41
40
33
21
15
-16
-29
-21
8
11
38
40
24
5
-1
-17
-15
-11
9
22
39
40
26
2
0
-23
-20
-10
0
-4
27
32
13
2
0
-21
-24
-14
4
7
24
27
31
57
76
74
87
106
137
139
147
127
91
56
60
34
10
17
20
21
47
48
15
-9
-5
-14
-11
0
12
20
40
32
13
-2
-10
-25
-21
-15
-5
5
25
46
20
-4
-13
-18
-12
12
23
35
36
27
4
1
-16
-21
-24
-9
1
28
36
37
16
8
-2
-2
-3
1
11
27
30
26
8
-1
-20
-18
-12
4
11
33
33
29
14
6
-19
-16
-10
11
22
49
47
34
7
-8
-17
-9
-14
-4
6
42
45
31
17
8
-9
-7
1
20
19
36
31
32
29
15
-12
-12
-6
12
32
58
56
46
22
15
2
7
25
28
29
58
61
50
38
30
15
30
32
31
31
60
64
50
33
26
8
12
20
39
48
72
71
53
28
21
7
9
23
37
38
58
61
48
35
15
-1
2
25
41
33
42
38
26
9
5
-9
-11
5
29
45
56
46
25
-3
-17
-17
-15
-3
9
24
45
36
8
-3
-25
-26
-23
-7
7
29
37
30
18
7
-19
-21
-21
-10
5
25
29
33
15
2
-18
-17
-9
9
16
36
37
28
18
8
-29
-21
-15
6
18
39
32
24
14
0
-28
-25
-13
-1
9
29
20
17
1
6
-11
-17
-7
12
4
36
34
19
3
1
-12
-14
-10
-3
8
44
52
29
0
-7
-23
-15
-9
10
12
44
46
27
1
-1
-28
-29
-19
11
18
27
27
16
5
2
-29
-29
-8
7
12
35
32
27
3
-2
-22
-17
-2
13
19
37
33
13
-12
-26
-22
-18
-3
16
37
44
35
19
-4
-17
-24
-20
-13
7
27
31
28
10
-2
-10
-22
-18
0
19
37
36
27
10
-3
-18
-25
-23
-1
10
15
18
30
20
3
-7
-15
-10
4
9
36
45
37
16
0
-24
-19
-16
-5
1
36
37
33
9
-7
-30
-30
-21
-1
3
26
19
27
16
12
-18
-21
-16
1
4
36
38
21
2
-8
-35
-30
-10
4
14
33
32
28
14
5
-19
-18
-7
13
8
27
29
19
2
2
-29
-27
-16
-3
6
34
32
15
7
1
-27
-24
-8
1
9
37
32
13
-1
3
-14
-10
2
19
28
42
42
29
4
-6
-27
-16
6
27
24
37
37
21
8
-4
-17
-11
0
13
25
53
47
24
8
-8
-16
-21
-8
12
26
33
28
12
-7
-19
-21
-19
-3
11
20
29
17
13
5
-9
-11
-15
-1
17
26
31
22
7
-14
-22
-26
-22
7
21
48
67
90
94
96
89
102
114
124
118
123
108
92
68
58
7
-7
4
22
33
57
45
36
16
6
-19
-17
-14
1
7
40
33
27
1
-11
-27
-19
-8
6
7
27
29
23
7
-3
-31
-20
-13
-1
2
31
31
21
4
6
-23
-11
0
13
17
38
31
12
-1
-6
-23
-18
-2
11
24
44
34
16
-9
-5
-25
-20
-5
11
16
31
27
24
13
-1
-14
-14
-18
-4
12
45
35
24
9
-1
-19
-15
1
21
26
38
35
20
4
-4
-12
-9
3
22
39
53
53
37
10
-9
-20
-3
18
18
33
45
34
33
43
20
7
15
24
29
47
55
48
32
16
0
-4
10
37
39
57
56
57
39
28
12
10
7
22
34
60
70
66
48
26
1
4
2
17
45
58
56
65
41
27
4
7
10
27
38
55
47
50
35
15
-18
-20
-16
10
13
35
35
26
6
2
-27
-14
-4
3
9
28
28
21
-2
-20
-30
-18
2
18
18
41
38
27
7
-2
-32
-21
-8
11
16
28
39
17
-2
-2
-3
0
12
16
15
31
16
13
-3
-2
-24
-36
-12
21
24
47
48
20
-3
-21
-22
-14
-7
5
8
28
24
13
-2
2
-17
-18
-10
16
23
28
31
15
1
-14
-24
-23
-16
16
35
37
29
13
-10
-31
-24
-25
7
20
31
46
40
21
-2
-26
-20
-26
-12
15
28
28
29
10
-3
-27
-20
-13
2
5
28
32
31
15
5
-10
-12
-23
-8
5
32
24
13
1
-2
-27
-29
-14
6
8
26
7
10
19
16
-11
-6
-15
-4
3
30
30
19
7
0
-32
-30
-28
8
19
42
43
24
2
-1
-20
-19
0
17
13
28
17
6
-13
-19
-41
-37
-16
12
13
33
34
24
3
-3
-28
-26
-11
-1
3
27
27
18
10
-3
-22
-24
-14
-1
6
37
35
18
0
-10
-36
-30
0
19
16
34
33
22
-1
-9
-22
-24
-8
19
46
55
51
37
6
-25
-30
-22
-11
6
21
44
39
26
8
-10
-17
-13
6
23
35
42
36
28
22
3
1
1
7
15
44
59
53
16
-22
-25
-26
-28
-8
10
33
30
22
5
2
-19
-21
-30
-10
16
49
42
29
15
1
-37
-35
-25
2
9
34
32
34
30
36
24
43
65
98
112
139
137
134
108
75
25
13
10
17
-1
22
35
31
10
10
-22
-21
-12
-2
11
27
33
24
7
4
-27
-24
-9
4
16
39
39
22
-3
-11
-21
-18
-6
2
2
30
34
32
26
19
-2
-21
-17
12
11
29
33
17
-1
-9
-19
-26
-10
8
7
34
48
27
7
-6
-13
-12
2
14
27
38
34
17
0
-13
-23
-22
-6
13
22
46
41
27
6
-3
-7
-10
5
23
40
46
41
26
11
-8
-16
-14
11
26
37
47
48
25
6
1
7
2
23
36
57
58
50
33
22
14
2
7
14
32
55
54
63
57
41
7
12
14
32
46
66
62
56
43
30
15
21
16
34
32
65
72
64
51
48
21
20
29
40
44
67
68
60
37
23
-7
-14
12
40
41
63
57
37
13
18
-4
-7
-3
15
19
42
37
25
8
7
-14
-13
-1
7
17
42
35
26
14
5
-21
-20
-5
12
15
35
34
20
1
-3
-21
-19
-16
-3
13
34
43
22
0
0
-22
-26
-10
6
13
25
35
23
-3
-5
-22
-29
-3
11
29
44
36
22
8
-4
-25
-31
-12
10
29
42
37
17
-1
-8
-18
-16
-2
14
28
35
27
13
4
-15
-20
-13
4
18
31
35
33
20
6
-17
-25
-23
-2
17
30
34
32
16
2
-25
-11
-6
13
21
39
30
17
-7
-3
-18
-27
-25
2
20
43
36
23
2
-4
-20
-19
-19
-6
-1
24
32
27
17
7
-16
-14
-6
9
8
38
36
25
10
2
-23
-20
-7
9
13
36
35
27
9
4
-15
-21
-15
6
14
42
31
16
-5
-21
-34
-22
0
7
14
34
30
7
-4
12
-16
-19
8
13
17
43
42
29
17
14
-12
-17
2
25
31
47
50
37
24
18
-3
-2
6
13
26
37
32
13
-7
-22
-17
-15
-1
13
27
42
40
24
14
-13
-29
-28
-8
4
18
29
25
6
-14
-27
-34
-29
-13
1
27
26
26
22
16
4
9
29
57
76
111
137
135
129
114
73
58
42
57
64
77
56
38
23
10
-2
0
-11
6
16
34
29
26
8
-7
-37
-23
-9
1
4
30
39
36
16
-1
-27
-23
-14
2
8
24
22
18
2
-9
-36
-22
-2
10
12
41
36
30
15
6
-25
-34
-20
-3
7
38
32
12
-7
3
-14
-12
9
24
23
43
43
26
0
-9
-19
-10
-5
8
10
33
37
27
16
14
-14
-17
-4
7
21
44
41
25
4
-5
-15
-7
7
22
45
65
39
15
1
-9
-21
-28
-1
36
38
56
54
39
18
2
-7
-6
12
30
49
54
55
44
24
6
-6
3
30
44
62
71
63
44
25
11
12
20
35
44
64
64
50
43
42
14
14
15
31
48
72
73
59
29
14
-11
-9
0
21
31
56
52
47
26
17
-6
-8
3
18
16
38
37
17
2
10
-17
-17
-9
12
21
35
37
30
10
3
-27
-23
-17
0
4
28
22
12
5
7
-18
-26
-6
17
12
40
32
23
7
1
-23
-16
-9
7
13
33
36
21
-3
-19
-34
-30
-4
14
11
32
35
26
14
6
-19
-20
-14
-7
2
41
31
18
10
2
-18
-16
-3
15
23
38
32
26
8
-7
-14
-17
-6
12
22
39
38
23
7
-6
-17
-16
6
6
22
37
35
14
-4
-12
-15
-16
-8
5
22
36
30
23
11
-9
-16
-14
0
11
28
32
25
14
3
-17
-16
-14
6
12
19
39
43
19
3
-18
-8
-7
0
4
32
33
33
14
-6
-22
-17
-4
9
17
40
37
28
13
11
-21
-19
-7
8
4
25
27
16
17
-1
-24
-16
-10
8
11
45
38
31
14
13
-13
-12
-6
12
18
33
24
25
11
-1
-23
-25
-13
11
15
35
30
21
16
7
-13
-17
-10
9
19
39
30
19
3
2
-18
-12
-4
19
22
43
37
23
7
-1
-16
-12
-3
18
21
44
46
30
21
14
-2
4
2
6
20
43
35
32
16
6
-4
4
17
28
39
50
44
26
-3
-17
-17
-16
-7
3
22
44
35
17
1
-13
-21
-14
5
20
35
42
38
20
1
-17
-18
-14
-4
8
31
28
24
9
8
-2
9
33
64
81
125
155
154
135
120
85
75
66
92
92
93
63
49
34
24
-11
-7
-2
13
11
31
46
51
29
8
-22
-22
-18
12
17
39
35
31
13
1
-14
-16
-9
5
8
31
33
25
18
9
-19
-16
-7
19
20
27
35
22
13
2
-21
-21
-11
3
8
33
43
32
6
2
-16
-15
-2
13
24
35
39
27
12
4
-19
-19
-6
22
30
60
48
22
10
7
-9
-10
5
16
25
40
42
21
15
11
-10
-7
12
24
45
53
41
28
10
-3
-7
-5
13
27
38
47
46
29
18
4
-3
7
14
35
53
49
50
44
31
6
1
7
23
44
65
67
60
47
36
8
7
14
36
45
68
70
72
57
38
13
18
26
46
48
65
70
60
38
28
9
22
18
26
35
60
57
51
35
18
-10
-4
9
11
18
52
51
38
21
8
-15
-13
-7
11
21
54
35
17
5
-2
-12
-5
1
23
28
43
36
30
19
15
-12
-15
-14
2
10
42
48
37
17
10
-23
-17
2
15
15
35
33
30
14
3
-17
-25
-6
11
20
41
45
24
10
0
-11
-8
5
24
26
42
38
19
7
-2
-13
-14
-5
18
26
34
34
19
4
-6
-12
-11
3
22
36
50
59
29
11
-20
-15
-15
3
15
29
47
35
20
12
-6
-7
-7
3
18
40
49
54
28
3
-19
-15
-12
2
20
30
37
36
14
10
-12
-13
-8
10
20
48
38
15
4
6
-18
-21
-24
-2
20
51
42
29
21
10
-18
-14
-8
9
16
46
41
32
19
10
-13
-11
-1
16
24
39
38
24
7
9
-15
-11
1
13
22
46
41
27
10
5
-14
-8
0
6
8
39
40
23
16
2
-15
-10
1
12
15
36
34
35
13
0
-12
-3
3
17
21
37
36
21
8
10
-20
-21
-6
14
16
27
40
24
2
2
-10
-13
6
20
23
40
40
23
3
-5
-8
-12
-4
13
26
34
33
27
14
-3
-14
-10
5
20
38
35
32
16
2
-14
-16
-10
8
17
32
35
34
25
13
-8
-6
14
20
23
40
50
51
29
12
-8
-4
6
15
37
55
46
33
24
22
-7
-11
-11
8
16
39
44
34
15
-1
-30
-24
-8
19
22
45
40
32
11
7
-15
-17
-3
18
17
34
31
29
9
10
-18
-15
-5
25
51
92
105
105
104
114
104
113
112
114
108
110
104
81
45
16
-10
-4
12
27
33
43
42
29
17
21
-12
-21
-6
14
14
36
36
24
10
-1
-19
-18
-2
20
34
51
40
22
3
-7
-17
-20
-9
16
19
22
39
29
9
9
-5
-11
-5
11
30
33
35
25
12
-1
-10
-7
4
18
25
35
50
30
7
-22
-27
-17
2
16
39
46
39
20
5
-17
-11
1
9
24
45
34
41
35
16
-11
-3
-2
16
28
48
40
35
27
24
-6
-8
1
14
25
49
49
44
22
21
-1
2
8
24
36
56
61
48
33
29
4
7
7
26
40
74
78
57
34
31
14
15
26
37
46
76
80
66
41
34
12
12
23
41
42
61
72
66
48
42
16
24
38
40
47
74
64
49
28
18
-6
4
12
27
33
52
49
32
24
23
-1
-15
1
23
27
37
32
28
9
9
-11
-12
4
18
19
34
40
26
9
-3
-9
-8
7
19
33
42
35
27
8
-4
-7
-7
7
21
32
39
36
27
20
3
-8
-11
1
18
29
39
43
24
4
-12
-9
-6
5
13
38
34
28
26
18
2
-12
-3
13
29
47
42
31
11
13
-8
-9
-12
4
19
43
41
28
16
15
-6
-2
-4
10
20
49
44
43
31
15
-9
-4
1
8
13
41
43
43
27
15
-18
-15
-5
25
16
26
42
34
22
5
-19
-11
1
14
24
52
46
28
13
14
-7
-2
6
21
21
38
45
29
17
7
-15
-6
3
18
19
42
43
30
9
7
-10
-11
8
26
21
49
35
33
21
12
-16
-15
-5
18
19
34
29
26
13
-4
-13
-7
13
22
29
43
44
26
7
-9
-15
-9
1
13
21
35
47
32
17
-10
-10
-2
5
16
39
49
36
22
7
-7
-5
-6
6
23
50
51
41
19
12
-4
-8
-4
15
26
46
53
46
26
7
-15
-13
-7
9
22
49
50
46
28
15
-1
1
11
26
38
58
57
49
32
25
-7
-6
1
21
35
58
54
37
22
13
-11
-6
-1
18
30
49
39
31
25
15
-13
-16
-2
17
18
40
48
49
24
8
-18
-17
5
28
21
41
38
30
23
30
19
27
51
93
126
144
135
130
112
86
29
35
56
58
37
50
44
31
22
18
-9
-3
13
29
29
41
41
33
17
1
-13
-7
8
24
34
42
33
32
18
9
-10
-6
5
22
37
53
52
41
35
10
-15
-16
12
29
39
49
40
29
12
-7
-8
-12
6
33
46
62
57
32
20
-5
-14
5
27
36
50
41
45
26
21
2
-6
0
21
30
50
57
50
34
30
-1
-3
-2
16
29
59
57
44
32
31
3
18
19
36
39
65
62
48
33
22
-6
4
18
30
54
69
67
64
41
34
11
14
20
39
50
73
73
69
53
37
16
24
36
59
65
79
74
66
56
63
30
28
44
65
67
85
85
74
61
49
19
28
45
61
73
87
79
64
37
38
25
32
33
36
54
70
74
55
27
25
12
15
24
43
49
64
61
46
24
8
-9
-2
6
25
40
55
53
34
19
9
3
5
16
28
35
45
57
51
18
-13
-11
-10
14
15
34
50
52
25
12
4
-2
0
21
33
48
43
42
25
20
2
-2
2
19
26
45
51
45
26
20
-7
-15
-9
22
37
62
67
55
34
26
-1
7
4
18
20
49
52
46
28
22
4
8
7
26
29
56
51
42
21
16
1
1
9
27
29
52
51
38
28
23
-2
-3
3
31
37
55
49
37
20
11
-13
-17
-3
30
38
59
54
41
27
21
9
14
16
29
34
53
52
27
14
10
-6
5
15
35
36
57
51
35
15
6
-11
-3
11
25
34
43
47
30
4
-3
9
9
13
28
49
57
48
32
19
9
-3
-2
13
36
51
59
52
45
35
24
0
-1
15
28
35
39
48
33
18
2
2
4
22
34
47
53
51
28
21
0
6
11
38
49
63
61
56
46
35
13
12
22
35
49
72
72
56
32
25
2
-1
5
20
24
41
33
32
26
20
3
7
12
21
27
54
61
51
32
18
-8
-9
-3
2
8
36
48
48
28
22
4
14
33
72
101
136
148
152
136
141
108
93
99
102
95
108
91
63
41
29
11
17
27
45
42
61
65
46
15
-3
-23
-12
14
30
34
55
56
47
22
13
5
8
15
27
38
61
48
35
20
10
-8
-7
1
25
46
64
54
34
22
12
3
11
14
27
42
49
41
29
22
9
2
-4
11
36
45
52
41
44
31
-5
-6
10
28
35
54
58
50
35
27
-1
2
4
16
31
49
58
55
33
31
10
12
12
25
33
63
67
63
51
41
7
13
19
28
48
70
74
66
52
38
11
6
13
30
37
78
78
66
53
47
17
18
29
48
54
73
76
73
52
41
16
21
36
57
61
96
92
74
59
58
36
33
49
64
53
68
80
75
56
57
31
36
39
42
53
65
68
59
43
36
13
11
12
17
36
73
76
54
28
18
1
2
22
32
36
54
51
36
16
14
-3
8
20
32
41
50
47
34
20
14
8
13
17
30
37
52
56
37
15
-5
-8
-11
18
28
36
56
47
47
18
-2
-10
-5
21
28
43
46
45
28
15
-1
-6
5
24
35
51
48
46
28
24
-2
2
5
21
31
52
52
45
32
25
1
8
18
32
32
59
50
43
11
4
0
10
8
14
21
61
56
50
31
22
-3
0
8
22
25
50
46
31
6
-6
3
8
6
23
29
57
57
50
29
17
-2
-4
-3
19
40
57
60
48
30
22
0
-3
13
31
38
64
61
36
11
1
-14
-11
2
20
29
61
63
39
25
18
-4
-6
-2
17
26
48
47
24
2
-6
-5
8
25
36
45
50
47
41
19
1
-9
0
13
28
40
54
56
35
16
7
3
2
27
33
51
52
52
38
14
-4
-3
-4
7
22
39
44
35
17
9
-8
5
16
23
28
51
53
47
21
16
9
-1
8
21
30
58
55
41
16
4
-13
12
21
28
33
56
55
45
26
11
-7
5
10
31
42
60
59
45
28
20
4
11
15
32
50
77
65
48
35
30
13
4
21
30
27
56
62
49
36
24
-6
-7
-6
4
37
61
61
45
22
12
-6
5
9
31
24
50
49
27
24
15
-11
-2
6
25
35
63
59
43
20
15
-2
10
41
83
113
143
161
156
147
132
103
86
79
85
97
101
72
48
29
19
24
28
18
26
44
55
44
34
28
1
-11
-2
19
34
39
49
44
36
14
-1
-1
0
11
25
61
56
48
34
21
2
0
0
20
30
46
49
46
31
16
-2
-9
-9
19
26
48
47
44
25
15
-6
-7
-4
18
47
66
59
45
31
34
-2
1
11
29
36
64
51
34
22
22
0
-3
6
28
29
57
59
44
31
26
1
6
11
29
44
62
62
50
32
27
10
6
18
35
42
65
71
53
44
38
25
28
27
42
50
77
84
70
57
51
16
15
29
52
58
74
67
54
45
33
24
35
47
58
65
80
80
68
55
50
29
26
33
50
67
98
87
70
51
34
27
26
32
47
75
86
77
57
46
33
21
18
34
46
58
74
65
45
26
11
0
-4
18
38
51
57
54
44
26
9
9
15
17
29
50
51
48
26
15
-5
-4
3
22
34
47
44
52
26
24
-7
2
9
23
28
57
58
43
21
29
-5
-2
17
31
32
47
50
50
28
21
-2
2
10
26
34
56
55
50
30
23
-5
-2
2
20
25
61
49
29
29
32
-2
-4
17
37
31
48
60
51
31
22
-1
-7
7
27
30
52
51
42
23
17
-2
2
11
26
32
56
53
41
21
14
-7
-10
16
28
28
48
58
37
23
8
-14
-8
22
53
45
50
52
33
21
9
-3
10
17
40
42
51
51
35
18
7
-3
3
18
29
40
55
51
35
14
10
1
-5
11
36
56
75
83
70
43
-8
-14
-17
2
10
34
53
50
37
21
-2
2
9
22
28
48
52
53
36
26
-7
-6
0
24
32
45
39
26
18
14
-5
-1
7
21
27
53
58
47
23
25
7
4
11
24
29
45
56
52
26
14
-7
-5
17
33
39
62
61
49
20
18
-1
-2
22
38
46
72
63
51
38
29
6
10
30
44
49
68
62
49
34
27
6
6
16
32
37
49
51
34
21
14
-8
-2
4
28
35
50
55
43
21
17
9
3
17
27
32
51
50
40
13
0
-4
-7
13
29
42
69
72
75
79
71
72
99
118
142
154
154
128
93
62
44
35
15
14
33
55
55
58
43
20
-9
-1
6
24
41
57
58
51
30
14
-2
7
4
16
27
46
55
54
33
22
9
1
6
22
28
44
37
33
34
27
2
17
23
32
35
54
52
48
31
20
-10
7
9
26
37
55
54
53
45
38
7
5
1
14
33
64
54
37
32
27
0
9
21
28
36
51
64
52
27
28
16
15
27
40
44
57
57
44
38
40
15
10
23
37
43
65
70
58
46
36
9
13
27
44
54
76
74
58
41
46
24
33
42
56
64
78
88
79
57
37
20
25
41
65
72
85
89
82
54
51
45
46
58
63
78
88
81
58
50
31
34
39
63
83
82
76
71
55
35
33
33
21
36
53
74
76
73
63
32
1
11
18
35
49
67
66
60
47
31
8
-7
1
32
34
59
63
62
45
32
4
4
11
30
23
38
46
51
38
28
4
5
8
24
23
48
52
43
36
35
11
0
16
29
33
46
35
36
20
30
16
12
29
46
41
54
48
45
33
26
5
5
13
29
39
61
59
45
30
22
1
8
29
39
33
52
55
32
17
14
-4
6
24
35
44
66
67
46
20
14
3
12
21
34
43
63
59
49
26
14
4
6
25
43
54
54
54
41
24
10
-4
-3
7
27
51
61
57
42
31
12
3
6
35
45
51
55
51
44
26
4
4
9
26
35
57
70
65
43
31
5
9
11
23
35
69
76
74
56
36
3
9
9
32
55
65
73
69
55
47
13
7
9
20
26
59
51
52
43
34
5
4
7
30
42
72
61
46
37
39
0
1
19
30
30
61
72
60
33
23
3
10
3
25
36
59
54
40
26
30
15
29
46
77
97
129
137
137
128
120
84
57
57
58
58
66
53
30
13
28
14
9
14
27
35
66
60
46
34
29
7
9
21
42
45
60
52
37
28
20
11
8
22
46
59
58
51
29
22
9
-5
-1
21
42
57
68
63
50
36
15
14
11
21
29
49
66
56
44
30
16
11
16
30
44
64
63
55
40
34
16
16
23
34
39
60
67
60
45
36
16
17
15
36
46
71
70
62
42
38
7
10
13
38
51
68
67
65
49
45
24
19
24
34
51
82
76
68
56
47
29
28
34
53
65
88
82
70
57
54
47
42
49
67
73
90
96
84
67
61
44
45
62
73
71
89
97
89
70
62
36
37
43
67
87
105
97
85
61
40
31
29
34
50
54
78
68
53
32
45
22
18
32
41
50
71
59
55
35
23
10
9
21
40
49
60
60
41
21
17
7
6
15
33
49
58
56
40
25
2
-16
-12
4
23
46
58
49
28
23
3
9
11
19
25
45
41
26
28
28
5
-7
7
21
31
67
70
53
28
24
-4
4
15
34
49
57
41
34
24
23
-4
4
14
38
26
43
42
45
29
20
-11
1
10
23
29
52
51
42
23
16
-9
-13
-4
30
27
56
56
40
21
10
-5
-4
7
21
29
55
50
36
18
16
-2
1
3
26
36
61
62
45
11
7
-6
0
12
23
27
47
42
29
16
11
-15
-15
-3
14
22
39
39
28
6
13
-8
-4
7
21
26
47
39
17
19
4
-21
-18
-12
26
39
42
45
36
23
5
-12
1
11
21
34
53
52
42
26
5
-7
2
17
28
46
56
54
28
18
9
4
7
22
37
53
46
37
21
11
-10
-13
-8
3
10
37
30
21
7
0
-3
6
2
12
21
38
41
41
24
12
-13
-14
-1
20
24
48
43
32
18
18
6
35
70
101
119
160
165
160
148
135
97
72
68
85
73
66
60
54
33
29
3
4
12
24
27
48
47
32
17
16
-1
-2
0
14
15
59
69
50
19
13
-3
0
10
20
32
48
50
40
20
16
2
7
18
23
40
62
59
35
15
9
-4
1
7
28
40
54
54
38
21
9
-9
3
14
36
53
62
54
44
29
11
4
10
20
32
52
59
60
39
18
4
-6
-1
39
56
69
72
61
46
35
5
0
6
29
41
66
69
69
55
39
8
-2
-5
31
48
67
76
69
50
35
20
19
28
46
60
84
82
71
44
33
8
33
35
50
62
87
83
76
59
51
30
30
37
55
62
86
85
75
60
53
26
28
22
33
55
82
92
80
69
50
21
24
31
43
49
70
71
59
39
30
6
10
25
45
55
69
53
34
11
1
-12
-4
10
33
33
49
50
30
21
16
-5
-6
8
27
34
52
48
36
20
11
-11
-10
2
16
18
40
45
34
19
7
-13
-10
3
21
31
44
42
25
5
-10
-18
-13
2
17
36
55
51
30
10
-13
-13
-9
9
22
31
39
31
17
6
-9
-9
-6
10
27
44
47
41
21
11
-16
-17
-10
7
25
38
43
38
16
7
-15
-7
-2
15
28
54
50
37
28
12
-22
-19
-6
21
29
45
39
35
23
15
-4
-2
7
18
25
50
43
33
23
28
3
5
14
31
29
49
50
40
24
19
-3
1
13
33
30
51
52
41
27
25
-4
4
19
34
46
59
71
62
42
26
1
-6
22
48
51
65
69
63
49
42
20
25
32
51
63
84
87
71
55
49
34
37
52
73
77
81
80
79
61
49
37
35
44
65
73
81
83
66
47
28
25
29
36
55
82
91
75
55
31
16
21
27
52
61
64
71
71
54
37
21
16
17
38
48
68
81
82
65
57
47
67
87
115
148
183
189
190
163
135
97
79
80
95
90
100
100
82
65
52
32
21
17
39
45
66
70
59
39
23
4
12
14
37
47
66
65
55
38
35
14
12
18
37
39
63
62
49
33
21
6
15
24
35
49
76
74
63
50
47
21
21
19
31
39
61
66
55
32
34
13
9
24
41
49
68
73
62
40
34
10
11
25
36
43
69
69
58
32
24
6
10
31
45
54
72
70
63
41
22
7
12
32
50
59
71
74
58
46
33
22
15
26
49
75
91
75
62
52
30
26
25
47
63
76
83
79
67
47
35
40
48
60
74
96
97
89
71
62
42
40
41
59
73
91
83
71
58
53
42
47
51
62
71
93
87
82
76
64
35
25
28
41
57
84
71
70
50
45
22
27
37
43
47
68
75
66
45
22
2
4
13
28
34
61
67
50
39
33
4
7
17
38
44
72
65
52
30
19
3
11
16
38
39
61
62
51
32
23
14
13
25
40
37
60
72
57
39
30
-3
-2
7
34
51
64
63
48
32
20
6
8
19
39
46
51
50
36
28
36
16
4
18
42
53
65
57
46
26
10
9
14
