-15
-23
-20
-21
-13
-20
-21
-22
-13
-15
-19
-27
-20
-16
-14
-11
-11
-20
-17
-16
-18
-15
-9
-16
-20
-17
-9
-11
-16
-20
-21
-17
-10
-19
-8
4
-17
-27
-22
-24
-23
-19
-19
-15
-15
-19
-17
-17
-21
-15
-20
-31
-23
-21
-21
-17
-17
-14
-6
-9
-15
-7
-12
-8
-10
3
-5
-19
-16
-17
-15
-8
-1
-1
6
7
1
6
-2
2
4
0
-13
-7
2
7
2
0
-8
-10
-15
-7
-5
-14
-9
-12
-19
-19
-20
-25
-30
-26
-25
-20
-10
-6
-20
-16
-23
-24
-26
-28
-32
-36
-27
-23
-30
-25
-32
-29
-30
-30
-20
-21
-20
-20
-26
-21
-20
-19
-20
-14
-25
-18
5
28
45
72
97
124
146
159
171
158
125
75
42
6
-40
-72
-90
-85
-65
-38
-36
-43
-48
-40
-31
-32
-22
-15
-11
-7
-4
-12
-19
-21
-20
-19
-20
-14
-16
-21
-14
-11
-24
-25
-16
-20
-18
-20
-14
-17
-10
-12
-10
-15
-16
-9
0
-8
-3
-8
-8
3
-5
-6
7
0
-6
-10
-8
-8
-3
-3
-7
-5
1
1
2
0
1
11
15
0
0
1
3
6
5
6
10
15
13
17
16
10
11
9
6
15
22
21
27
25
29
32
26
33
31
32
38
40
35
31
27
26
35
32
34
27
37
44
42
39
40
36
39
28
27
30
24
32
26
20
18
14
11
14
22
14
13
13
5
-6
-9
-7
-13
-16
-12
-17
-7
-14
-22
-22
-20
-19
-12
-14
-18
-17
-19
-15
-13
-20
-20
-16
-22
-21
-18
-16
-14
-7
-21
-22
-22
-17
-23
-13
-14
-17
-16
-13
-21
-19
-22
-21
-35
-18
-8
-10
-26
-7
-17
-19
-17
-20
-22
-17
-19
-14
-14
-10
-11
-11
-15
-17
-20
-13
-13
-18
-15
-14
-9
-14
-16
-17
-18
-16
-20
-18
-18
-16
-19
-17
-22
-14
-15
-22
-20
-19
-13
-15
-13
-12
-14
-10
-18
-30
-21
-15
-8
-5
-21
-23
-22
-15
-8
-3
-9
-15
-16
-12
-10
-15
-5
0
1
1
4
1
-1
-2
6
1
-2
-1
-5
-5
-4
2
4
13
7
-7
-10
1
-6
-9
-12
-17
-17
-18
-27
-22
-17
-20
-26
-29
-20
-17
-24
-16
-28
-32
-28
-30
-26
-16
-10
-18
-17
-7
-12
-20
-23
-26
-31
-28
-15
-21
-26
-25
-23
-23
-25
-30
-24
-22
-18
-5
14
36
59
82
103
132
147
165
182
164
113
68
25
-7
-41
-79
-69
-64
-52
-39
-40
-45
-36
-25
-22
-21
-19
-18
-17
-18
-10
-8
-16
-19
-16
-22
-18
-16
-14
-15
-12
-10
-7
-13
-21
-20
-7
-6
-8
-6
-6
5
-7
-4
-4
-7
-6
-6
0
0
-3
-4
-8
-9
-11
-7
-8
-3
-1
6
4
1
8
12
7
-3
2
7
16
12
9
8
13
7
8
14
7
10
17
19
16
20
16
17
21
22
20
20
23
26
23
27
30
29
31
36
40
44
43
40
41
34
34
34
38
36
37
44
48
42
47
45
32
34
29
29
32
27
22
23
30
27
16
10
19
9
6
13
7
6
6
4
0
4
3
-11
-13
-13
-10
-5
-12
-14
-12
-12
-16
-14
-11
-13
-12
-17
-15
-13
-19
-15
-9
-10
-16
-18
-14
-11
-15
-19
-9
-14
-14
-12
-5
-8
-6
-10
-16
-16
-19
-19
-17
-10
-15
-9
-11
-12
-12
-11
-10
-10
-13
-12
-11
-13
-10
-7
-9
-6
-14
-11
-12
-16
-15
-12
-10
-13
-18
-7
-4
-13
-9
-12
-9
-10
-8
-7
-13
-14
-20
-9
-9
-17
-15
-2
6
-5
-13
-13
-11
-20
-18
-15
-12
-8
-3
-3
-2
-4
-7
-7
-9
-8
-5
-3
4
0
-2
10
9
4
6
12
6
3
2
0
1
1
3
8
5
1
4
9
3
3
-3
-6
-4
-12
-18
-18
-15
-5
-8
-16
-19
-12
-21
-20
-20
-18
-19
-17
-10
-5
-20
-21
-18
-16
-14
-14
-15
-4
-7
-14
-21
-20
-18
-20
-22
-14
-12
-6
-17
-20
-16
-10
-2
14
34
54
85
117
140
155
170
176
149
112
84
44
2
-34
-62
-65
-63
-53
-45
-43
-39
-36
-28
-20
-9
-2
-14
-7
-3
-10
-13
-13
-13
-9
-2
-4
-6
-11
-9
-11
-5
0
-6
-1
-5
-5
-7
-14
-3
8
-1
-7
2
3
10
19
12
3
4
2
2
4
3
2
7
7
5
6
6
15
11
11
15
14
12
10
5
7
8
10
17
18
15
15
17
16
19
17
15
23
20
21
25
24
25
27
26
30
34
32
36
34
34
29
33
28
42
48
45
46
47
46
48
50
51
47
42
47
46
47
49
48
47
50
44
41
47
42
32
36
28
24
24
20
19
15
12
20
17
8
10
1
-1
-1
-2
-17
-19
1
12
-1
-1
-2
-9
-4
-1
-1
-8
-15
-17
-17
-9
1
1
-1
-5
-9
-14
-16
-13
-3
-2
-8
-9
-3
-4
-8
-8
-6
-7
-4
-5
-2
6
10
-11
-21
-22
-8
-4
-10
-13
-9
-12
-4
-9
-12
-7
-3
-1
-3
-6
-11
-12
5
6
-4
1
-3
-16
3
-1
-9
7
5
-3
-7
-1
-8
-3
2
-5
-4
2
2
7
5
-2
3
2
9
-2
1
7
3
2
-1
10
8
9
9
6
5
2
5
11
10
4
-1
2
5
6
15
7
1
-2
6
-1
-4
-8
-15
-6
-12
-6
-7
-15
-15
-15
-10
-14
-7
-5
-16
-14
-4
2
-5
-13
-12
-18
-7
-20
-13
-7
0
1
-13
-16
-18
-4
-7
-10
-5
-10
-19
-21
-18
-13
-17
9
41
65
91
112
120
130
150
150
117
86
63
40
24
-20
-33
-37
-47
-39
-34
-37
-45
-40
-11
0
-14
-14
-11
-7
-6
-12
-8
-9
1
-6
-2
-10
-9
-16
2
-9
-15
-14
-11
-4
5
-4
-1
-8
-13
7
4
-8
5
-1
-6
-10
3
-1
-10
3
1
-2
1
2
0
-2
2
4
10
6
1
10
8
11
19
10
4
9
14
16
20
15
8
19
13
19
18
10
11
13
31
24
20
28
27
15
30
32
9
21
25
45
36
50
29
34
28
18
45
44
45
42
40
54
48
54
30
35
34
33
38
38
35
33
44
27
23
16
23
20
17
21
20
17
9
-11
12
5
5
-3
0
7
5
-17
-11
-17
-1
-11
-14
-15
-20
-15
-23
-16
0
-15
-12
-17
-23
-12
-15
-6
8
0
-20
-11
-18
-17
-21
-13
-15
-13
-4
-19
-12
-15
-28
-27
-9
-11
-11
-15
-15
-17
-14
-22
-20
-21
-19
-14
-15
-4
-5
-12
-20
-16
-24
-16
-6
-26
-26
-4
-5
-10
-21
-18
-21
-16
-15
-23
-9
-3
-25
-21
-2
-17
-17
-12
-2
-6
-23
-6
2
-10
-15
-7
-8
-15
-12
1
4
1
-12
-8
-15
1
-4
-13
0
2
-5
10
-3
-7
-11
-4
-13
-6
-6
-6
-18
-19
-10
-13
-28
-28
-23
-22
-26
-13
-17
-24
-34
-40
-21
-10
-22
-33
-27
-17
-26
-20
-27
-27
-22
-29
-34
-26
-26
-29
-34
-39
-33
-18
-20
-26
-22
-22
-23
-30
-32
-18
-30
4
33
44
64
82
93
103
118
95
83
58
27
15
-7
-32
-51
-51
-41
-36
-37
-35
-32
-36
-37
-28
-16
-31
-15
-15
-19
-24
-28
-19
-33
-27
-24
-20
-16
-23
-28
-32
-18
-14
-27
-23
-18
-21
-18
-21
-22
-22
-15
-21
-23
-28
-23
-12
-14
-21
-10
-20
-13
-12
-11
-19
-15
-16
-6
-15
-14
-12
-13
-19
-20
-17
-12
-7
-4
-7
-16
-18
-11
-7
-5
0
-1
-2
-1
2
-3
-7
-2
4
-1
-2
0
4
10
14
13
14
17
16
14
13
12
16
14
17
23
12
15
26
21
18
20
24
20
19
20
11
12
12
13
12
3
10
16
3
-1
1
0
-6
-4
-13
-12
-11
-21
-17
-20
-22
-22
-22
-25
-27
-23
-23
-21
-26
-29
-31
-21
-27
-31
-26
-18
-27
-27
-30
-30
-29
-35
-41
-32
-32
-36
-24
-15
-11
-20
-34
-26
-28
-30
-35
-37
-42
-17
-29
-27
-29
-16
-22
-27
-28
-17
-27
-33
-38
-33
-30
-34
-28
-27
-30
-26
-31
-30
-27
-26
-29
-29
-30
-34
-32
-28
-35
-30
-30
-34
-30
-33
-28
-29
-34
-33
-28
-19
-23
-26
-27
-25
-22
-22
-23
-21
-20
-19
-25
-26
-19
-18
-15
-20
-21
-18
-12
-16
-28
-24
-9
-24
-25
-21
-15
-17
-13
-6
-9
-21
-21
-21
-29
-28
-32
-31
-33
-31
-34
-33
-39
-47
-37
-29
-30
-30
-30
-32
-33
-37
-33
-29
-33
-30
-41
-44
-37
-35
-38
-40
-40
-40
-40
-34
-35
-36
-20
-29
-36
-42
-40
-37
-33
-23
-8
12
23
37
55
62
67
84
90
68
38
23
8
-17
-42
-69
-74
-59
-50
-49
-43
-33
-34
-41
-35
-33
-33
-35
-39
-37
-30
-19
-27
-38
-32
-36
-31
-28
-22
-19
-27
-31
-28
-22
-28
-31
-30
-31
-26
-29
-28
-23
-26
-27
-16
-25
-31
-28
-27
-30
-21
-24
-19
-27
-28
-19
-13
-13
-22
-22
-18
-17
-20
-20
-20
-7
-3
-9
-16
-22
-26
-18
-12
-12
-17
-15
-19
-10
0
-9
-10
-5
-6
-10
-10
-1
-2
-3
6
7
6
5
3
2
-1
10
13
11
12
14
18
9
10
8
3
11
9
6
7
17
26
13
12
7
5
9
0
-3
-3
-1
-3
-8
-7
-15
-7
-5
-9
-27
-21
-20
-22
-24
-28
-27
-28
-27
-26
-31
-33
-36
-31
-34
-33
-35
-34
-36
-34
-33
-24
-34
-33
-33
-25
-26
-33
-39
-35
-29
-35
-33
-30
-15
-25
-36
-34
-24
-27
-33
-32
-23
-24
-26
-34
-34
-29
-36
-39
-31
-28
-29
-31
-30
-32
-37
-34
-33
-31
-20
-11
-36
-33
-31
-30
-36
-29
-27
-29
-31
-28
-27
-26
-19
-26
-35
-33
-27
-21
-22
-29
-28
-25
-29
-28
-35
-33
-39
-28
-25
-30
-26
-31
-28
-36
-34
-31
-33
-36
-34
-33
-35
-27
-22
-27
-39
-38
-37
-28
-36
-30
-26
-29
-23
-27
-35
-33
-34
-25
-20
-29
-42
-36
-35
-34
-35
-34
-36
-35
-30
-32
-25
-28
-37
-33
-30
-32
-39
-30
-31
-40
-25
-28
-33
-32
-36
-38
-40
-34
-30
-31
-27
-24
-28
-28
-33
-33
-25
-40
-31
-23
-33
-24
-30
-35
-26
-33
-32
-25
-26
-18
-18
-26
-26
-21
-22
-24
-21
-21
-14
-16
-23
-23
-20
-11
-11
-13
-12
-20
-27
-21
-20
-23
-19
-23
-30
-32
-31
-34
-33
-31
-29
-36
-38
-36
-36
-37
-31
-34
-28
-30
-30
-33
-28
-37
-40
-40
-33
-37
-34
-35
-30
-32
-37
-39
-36
-44
-40
-43
-42
-38
-38
-35
-15
-1
17
49
70
85
101
119
137
136
98
61
34
6
-20
-43
-69
-70
-60
-43
-45
-45
-45
-38
-29
-13
-24
-35
-29
-36
-27
-33
-30
-30
-28
-30
-28
-22
-28
-31
-29
-33
-25
-25
-25
-24
-28
-27
-25
-23
-33
-30
-26
-24
-20
-21
-23
-17
-18
-22
-23
-21
-23
-10
-3
-15
-25
-21
-19
-20
-21
-22
-26
-21
-17
-14
-10
-8
-13
-2
-12
-9
-7
-11
-12
-14
-1
8
2
-1
-9
-6
-3
0
10
4
11
6
-4
-5
-4
17
15
8
12
9
18
21
18
7
10
13
13
20
28
23
21
26
20
22
19
21
26
29
16
13
17
19
17
18
11
11
5
9
4
-4
-2
-5
-8
-9
-13
-10
-13
-22
-20
-16
-15
-24
-28
-23
-14
-13
-24
-23
-37
-29
-29
-32
-29
-34
-39
-37
-29
-27
-29
-25
-30
-32
-28
-21
-25
-26
-29
-34
-32
-26
-29
-25
-31
-37
-34
-32
-19
-13
-26
-29
-31
-29
-32
-34
-37
-36
-29
-26
-22
-35
-27
-19
-20
-30
-34
-34
-41
-23
-22
-29
-19
-25
-32
-21
-17
-30
-25
-31
-36
-36
-27
-23
-24
-28
-24
-26
-33
-31
-28
-33
-31
-24
-32
-36
-21
-15
-36
-26
-20
-31
-13
-23
-34
-34
-32
-34
-34
-30
-34
-31
-24
-21
-28
-30
-39
-41
-21
-27
-27
-25
-25
-35
-41
-40
-30
-31
-24
-27
-29
-30
-24
-30
-31
-31
-33
-32
-37
-31
-25
-31
-27
-28
-34
-37
-28
-27
-36
-39
-43
-31
-26
-25
-27
-34
-36
-24
-28
-33
-38
-32
-29
-28
-26
-14
-29
-27
-20
-34
-36
-32
-35
-34
-34
-37
-39
-35
-26
-34
-34
-27
-28
-27
-31
-29
-30
-22
-24
-31
-24
-21
-19
-29
-21
-27
-28
-14
-24
-25
-21
-20
-21
-24
-19
-18
-19
-18
-21
-11
-13
-16
-12
-13
-13
-17
-23
-19
-23
-21
-21
-33
-40
-27
-24
-35
-32
-33
-29
-29
-34
-34
-35
-34
-32
-24
-28
-39
-43
-29
-29
-31
-29
-31
-33
-36
-34
-39
-36
-35
-29
-21
-27
-38
-35
-35
-38
-32
-35
-23
-13
6
29
56
78
102
116
122
136
130
91
55
28
4
-25
-59
-72
-64
-57
-48
-45
-42
-36
-33
-32
-32
-26
-31
-18
-23
-29
-20
-23
-21
-22
-26
-26
-20
-26
-26
-29
-20
-18
-12
-19
-22
-11
-14
-15
-22
-17
-20
-20
-17
-23
-24
-21
-15
-19
-18
-8
-10
-16
-10
-13
-17
-12
-14
-10
-16
-8
-8
-13
-11
-11
-8
-1
-7
-9
-10
-13
-7
-1
-1
8
0
1
4
11
2
-2
-3
6
8
13
6
7
7
9
9
14
23
14
18
19
17
27
26
21
20
21
20
20
22
32
34
30
31
29
22
27
25
24
18
19
34
33
22
17
17
22
16
13
13
10
7
6
-1
1
-3
-2
-6
-9
-3
-11
-15
-13
-12
-20
-22
-16
-15
-16
-24
-17
-16
-13
-27
-29
-27
-27
-27
-11
-19
-24
-24
-22
-27
-29
-26
-27
-26
-27
-25
-30
-25
-19
-8
-23
-32
-24
-21
-24
-19
-22
-25
-29
-25
-16
-20
-30
-18
-27
-25
-23
-24
-27
-22
-27
-27
-24
-27
-19
-20
-19
-14
-23
-30
-23
-19
-20
-27
-22
-17
-23
-23
-22
-20
-19
-21
-29
-26
-20
-23
-13
-13
-19
-20
-23
-27
-33
-28
-23
-20
-21
-20
-21
-25
-25
-29
-28
-24
-23
-13
-20
-22
-23
-27
-28
-23
-19
-21
-31
-17
-20
-31
-19
-18
-27
-31
-24
-21
-18
-23
-20
-20
-27
-27
-29
-30
-30
-25
-26
-29
-30
-30
-16
-16
-21
-27
-26
-17
-23
-24
-23
-20
-13
-17
-27
-19
-14
-20
-20
-8
-6
-16
-15
-16
-17
-14
-9
-10
-12
-6
0
1
-17
-13
2
-5
-9
-11
-9
-4
-4
-6
-7
-16
-19
-20
-26
-16
-21
-26
-27
-18
-20
-26
-34
-29
-20
-23
-25
-21
-14
-23
-27
-29
-28
-26
-29
-26
-27
-24
-24
-27
-29
-19
-26
-29
-17
-26
-34
-27
-20
-29
-38
-35
-30
-13
-6
15
39
62
92
111
123
141
154
153
113
82
54
18
-22
-61
-71
-57
-55
-46
-41
-38
-35
-30
-23
-19
-19
-19
-18
-20
-18
-13
-15
-13
-18
-26
-21
-20
-16
-16
-18
-19
-22
-19
-6
-3
-10
-11
-7
-11
-11
-12
-15
-6
-13
-12
-9
-9
-12
-6
-6
-7
-1
1
-2
-3
-8
-12
-6
-8
-3
-4
2
7
-3
-8
-2
5
1
-3
7
7
11
7
8
6
2
7
5
-3
10
23
14
16
18
18
21
16
24
24
22
24
27
31
31
30
31
30
33
38
38
39
38
52
43
35
37
31
32
35
35
37
41
34
29
34
31
32
29
23
28
28
24
20
16
19
5
0
5
4
-1
-3
-5
-7
-7
-10
-15
-19
-16
-15
-6
-11
-7
-4
-8
-27
-19
-24
-24
-18
-18
-18
-16
-16
-13
-16
-15
-20
-24
-25
-21
-26
-19
-21
-23
-23
-22
-15
-12
-15
-22
-19
-13
-15
-22
-24
-16
-22
-22
-23
-23
-22
-16
-12
-16
-20
-26
-27
-22
-14
-17
-15
-11
-20
-21
-13
-15
-15
-22
-23
-22
-20
-11
-17
-18
-15
-15
-20
-17
-22
-17
-17
-12
-19
-15
-19
-19
-20
-20
-16
-12
-8
-14
-27
-27
-21
-21
-21
-21
-20
-13
-19
-17
-7
-18
-28
-17
-24
-22
-13
-23
-28
-21
-13
-20
-22
-22
-19
-26
-19
-22
-13
-11
-17
-19
-36
-27
-28
-16
-20
-22
-30
-19
-17
-22
-20
-21
-17
-21
-22
-21
-15
-17
-15
-19
-20
-10
-11
-19
-15
-16
-16
-7
-3
-8
-12
-14
-12
-11
-10
-3
2
-5
0
2
-3
-9
-7
1
3
-5
0
-8
-8
-10
-12
-13
-19
-21
-19
-8
-20
-19
-24
-25
-21
-26
-28
-26
-23
-23
-22
-20
-19
-19
-33
-29
-25
-22
-23
-27
-23
-27
-26
-30
-31
-27
-29
-21
-29
-18
-18
-15
-21
-31
-21
-26
-39
-27
-14
2
28
59
89
106
118
139
157
161
138
100
71
37
1
-42
-75
-79
-72
-53
-48
-47
-34
-37
-34
-28
-21
-21
-14
-15
-21
-17
-11
-11
-13
-18
-10
-16
-19
-16
-21
-13
-11
-12
-6
-3
-4
-21
-14
-9
-12
-10
-4
-8
-13
-11
-8
-4
-2
-7
-6
-4
-6
-3
-10
-12
1
3
-7
-3
-4
3
6
7
1
-5
-3
-7
0
1
3
6
10
4
1
11
4
11
17
12
9
13
18
22
19
13
18
20
19
20
28
36
34
25
23
27
37
37
29
35
53
44
38
30
35
31
35
42
44
37
37
41
39
43
43
41
37
36
32
26
25
35
24
21
21
22
9
8
7
12
0
2
0
0
0
-8
-7
-6
-6
-8
-12
-12
-12
-14
-15
-18
-10
-14
-20
-14
-15
-7
-5
-23
-27
-26
-20
-21
-14
-17
-19
-15
-20
-20
-23
-18
-19
-17
-9
-19
-15
-15
-10
-15
-21
-17
-11
-11
-15
-8
-5
-14
-19
-19
-22
-20
-13
-12
-15
-11
-7
-11
-14
-15
-19
-14
-15
-13
-17
-15
-12
-11
-9
-15
-23
-13
-14
-16
-16
-11
-2
-10
-16
-18
-19
-15
-10
-10
-18
-15
-9
-11
-9
-16
-20
-11
-17
-17
-5
-6
-15
-9
-18
-21
-17
-19
-18
-16
-17
-17
-16
-16
-14
-19
-25
-17
-16
-19
-16
-14
-13
-13
-16
-20
-21
-18
-15
-20
-13
-15
-9
-7
-11
-16
-19
-23
-19
-14
-15
-26
-12
-13
-6
-15
-20
-19
-15
-16
-11
-13
-16
-14
-8
-15
-15
-17
-15
-11
-11
-8
-3
-4
0
-9
-8
-9
-9
-10
-3
0
5
1
-2
11
4
-9
-1
13
-1
4
2
0
2
-5
-9
-8
-1
-8
-10
-9
-15
-14
-17
-25
-18
-18
-18
-15
-13
-9
-14
-15
-17
-19
-25
-21
-20
-12
-16
-18
-22
-17
-15
-17
-10
-14
-7
-12
-15
-20
-13
-15
-15
-13
-19
-24
-15
-12
8
36
58
87
126
134
144
159
175
155
120
87
54
13
-26
-57
-66
-55
-51
-39
-36
-35
-29
-26
-15
-16
-11
-6
-8
-6
-7
-1
-2
-4
-6
-1
-2
-6
-4
-2
3
4
3
-1
-7
-10
5
-2
-4
-4
-3
-3
-5
4
0
4
4
1
2
6
3
4
11
9
8
4
-2
6
10
7
7
10
14
20
10
5
4
13
13
16
14
14
14
14
11
23
22
15
19
26
21
20
21
20
29
30
27
31
33
29
37
35
36
38
39
45
47
45
45
37
42
54
47
45
46
57
55
46
49
47
49
55
49
47
44
45
45
45
44
41
41
40
33
28
20
26
25
17
17
19
16
19
20
11
8
-3
0
-3
2
1
4
5
2
-6
-5
-6
-9
-7
-5
6
1
-5
-5
-10
-13
-11
-6
-3
-5
-9
-6
-5
-7
-5
-10
-8
-6
-4
-8
-6
13
0
-8
-5
-11
-10
-6
-1
-5
-8
-4
-2
0
-7
-10
-8
-6
4
6
4
-2
1
0
-2
-9
-2
0
4
1
4
7
-1
-3
-7
3
2
-2
3
-1
-1
1
3
4
3
0
-3
0
-5
1
-2
2
0
-2
-3
7
6
-7
-8
-3
-4
-5
-2
0
-8
-7
-7
-6
-1
6
3
-4
-1
-2
-3
3
-1
-3
0
2
-2
-4
-5
1
-1
10
16
13
-7
-5
3
8
6
4
6
6
5
4
8
17
17
18
16
0
6
14
14
22
13
10
17
14
12
10
3
0
1
-2
-9
9
4
-1
-7
-6
-8
-4
-2
-7
-5
-5
-1
-3
-3
-4
-10
-7
-1
1
-5
-9
-5
-6
-6
-6
-14
-17
-5
0
-5
-3
-6
-9
-15
-19
-12
-1
-8
-5
-4
14
41
60
86
112
122
140
156
168
148
109
81
43
17
-14
-35
-48
-51
-46
-26
-26
-24
-24
-23
-12
-9
-3
1
2
0
0
4
6
-1
-2
-4
0
1
0
-3
7
10
2
-3
-4
3
6
8
5
7
6
11
12
12
5
10
8
8
-1
7
5
3
7
12
16
12
10
6
5
9
12
12
12
8
6
12
13
14
15
18
16
22
18
18
13
16
15
22
23
25
27
28
24
21
20
20
29
37
37
34
39
53
33
36
32
34
41
45
52
52
42
43
45
46
45
46
55
61
59
53
46
52
53
45
35
34
36
37
30
30
36
37
25
24
18
24
21
23
16
13
13
14
4
-3
-8
4
14
-1
-10
-3
0
-2
-7
-10
-7
-8
2
8
3
-6
-6
-7
-21
-17
-12
-9
-11
-6
-1
-4
-5
-6
1
-8
-5
-13
-12
-8
-1
-5
6
-5
-16
-15
4
-4
-10
-8
-14
-8
0
0
-11
-14
-14
-10
-4
-6
-11
1
-2
-2
2
-7
-5
-7
-12
-11
-3
4
-1
-9
-4
-6
-7
-5
-4
-7
-3
5
-5
-4
-4
-9
-12
-12
-8
-11
-7
1
3
-3
-11
-7
-2
-10
-17
-9
-6
-13
-7
-4
-2
-9
-2
-10
-12
-2
-11
-11
-8
-10
-10
-6
-7
-16
-20
-8
-8
-6
-7
-8
-11
-10
-6
-9
-1
-8
-1
-4
-18
-15
-10
-15
-13
-8
-12
-7
-5
0
-2
-2
-4
-4
-3
-6
-5
-1
-1
12
9
4
-7
0
3
2
6
7
9
14
16
8
2
7
1
8
9
-1
4
1
-3
-8
-8
-20
-15
-9
-10
-4
-4
-10
-14
-8
-13
-13
-11
-12
-12
-14
-13
-7
-11
-12
-12
-12
-6
-12
-20
-20
-15
-8
-13
-4
-18
-14
-16
-18
-16
-22
-13
-1
18
36
43
66
87
110
130
141
155
159
124
83
51
31
-2
-41
-63
-57
-40
-28
-24
-28
-20
-13
-14
-5
1
-6
2
11
1
-13
-18
-15
-9
-4
-6
0
-3
-4
-3
-3
0
2
2
-5
-6
-11
5
0
-5
-3
-3
-3
8
9
3
1
10
6
-1
0
8
7
1
0
4
12
14
12
9
5
2
5
9
5
9
3
16
17
13
13
13
15
12
23
12
11
20
23
19
17
20
32
26
21
28
29
28
27
31
27
35
30
45
35
35
40
44
42
43
40
46
51
53
47
45
50
50
48
44
51
44
41
45
44
42
43
44
32
31
33
29
25
31
19
11
26
18
15
14
10
3
1
1
2
3
2
-1
-3
-2
-6
-5
1
2
-1
2
-4
-9
-7
-13
-18
4
1
-5
3
4
-2
-9
-15
-14
-13
-5
-9
-10
-11
-10
4
0
-5
-7
-10
-6
-7
-8
-5
-8
-4
-2
-1
-5
-1
-2
-4
-10
-8
-4
-5
-2
-5
-5
-5
-7
-5
5
4
-3
-8
-1
-4
-5
-15
-12
-9
7
3
-8
-2
-2
-4
-5
-5
1
-4
-2
5
2
-7
-12
-10
-9
-3
-7
-4
-7
-3
-2
2
-1
-5
-10
-7
-10
-12
-7
-2
-5
-5
-11
-12
-19
-5
-5
-3
3
-7
-1
-3
-11
-11
-8
-14
1
-6
-6
-4
-4
-8
-11
-12
-8
-4
-10
-13
-9
-8
-7
-6
-4
-6
-9
-14
-7
2
5
1
-5
-9
-5
-5
-8
-4
-2
0
-3
-6
4
4
5
10
17
10
7
9
6
9
18
21
9
2
-2
3
16
4
7
6
3
-9
-2
-9
-4
1
-13
-15
-14
-8
-3
-12
-11
-7
-12
-12
-9
-10
-11
-10
-9
-8
-8
-8
-10
-11
-11
-12
-9
-8
-9
-12
-12
-15
-11
-15
-11
-8
-14
-6
16
31
45
76
92
115
141
168
168
151
113
79
53
14
-15
-44
-60
-60
-32
-21
-25
-29
-14
-10
-19
-13
1
-6
-5
6
-1
-2
-1
4
3
-3
-9
-8
-4
-4
0
4
1
-7
0
-3
-7
4
9
11
-2
2
5
-3
4
-5
-3
12
8
7
9
14
20
5
4
4
4
11
12
13
9
10
16
13
9
8
9
11
21
26
19
13
17
16
11
16
25
22
17
23
33
32
27
18
20
23
28
31
31
38
32
32
43
39
38
42
40
47
49
50
50
42
44
47
53
57
54
45
48
51
48
52
50
50
48
49
48
42
36
39
37
27
33
33
32
27
29
22
15
17
16
13
11
11
14
4
8
5
1
2
3
1
2
4
0
-4
-6
6
0
-1
7
7
-6
-9
9
3
-8
-6
-2
1
1
-4
-4
-4
-7
-3
-2
-2
1
0
-1
-8
-3
5
3
3
4
6
6
3
-2
-2
-6
-6
3
0
3
2
0
1
4
1
4
4
-2
-7
-5
0
-1
0
6
10
-3
-7
-3
9
8
0
1
5
13
7
7
2
-1
-5
-3
2
3
1
0
0
-1
2
1
3
5
-1
-5
0
4
-4
-5
3
-4
3
0
-1
2
7
5
4
-1
-3
-8
-1
-2
1
0
-3
2
-6
-5
-4
-6
-6
-1
0
-4
-4
-5
2
5
1
0
-2
1
-3
-4
-3
-4
-7
0
-2
-7
-4
-6
-6
-1
1
-3
-4
-3
-1
-4
-2
-4
7
7
1
1
1
-4
1
1
6
4
5
2
12
12
6
2
2
4
4
1
13
8
12
13
6
12
17
13
15
25
23
30
18
8
7
12
12
7
11
6
-2
-1
-1
12
-1
-4
-4
-7
-9
-8
-5
3
-3
-7
-4
-8
-5
-8
-12
-9
7
2
-2
-4
-11
-4
-5
-10
-6
0
-7
-4
-5
-8
-13
-10
-9
-8
4
12
29
67
104
102
126
142
156
167
172
130
97
65
28
-8
-48
-65
-49
-43
-37
-24
-19
-13
-12
-5
-1
2
1
-1
7
11
0
5
6
2
3
1
-1
4
5
3
5
4
4
13
8
4
6
4
8
8
10
13
11
3
8
13
9
10
14
28
16
10
15
3
10
12
11
20
19
14
19
18
21
17
17
22
17
15
17
24
28
23
19
24
25
16
20
26
27
32
36
38
37
32
36
39
34
38
32
45
56
48
41
42
46
56
49
45
48
46
55
52
49
51
52
51
51
50
59
61
57
54
55
52
60
53
43
45
44
42
45
39
35
29
35
28
30
25
24
21
23
19
19
12
13
7
2
5
16
9
5
9
8
6
0
1
9
10
5
0
11
9
-4
2
-1
-1
5
-3
-4
4
-2
0
3
-3
-2
0
1
-3
-5
3
6
-4
1
-4
-4
3
4
7
4
3
0
-3
2
4
-5
2
0
0
5
-3
5
-10
-3
8
4
-2
0
2
3
7
5
10
8
1
1
0
1
-3
0
5
0
-1
1
3
0
-6
-5
-5
-1
3
1
4
-5
-10
-1
10
-5
-4
4
-4
0
-9
-4
3
-8
-3
-5
-1
12
-1
-5
-12
-4
5
5
-7
-1
-6
-4
-6
-7
-4
-5
-5
2
-4
-12
-11
-2
-5
4
-2
-4
-4
-9
-13
-4
-5
-2
-4
-8
-15
-10
-10
-8
-9
-2
-9
-1
-3
-8
-6
-7
-8
-3
-6
-8
-6
4
5
-3
1
4
-4
-5
1
4
8
10
8
2
1
1
3
3
5
10
17
16
13
15
7
9
9
15
15
9
11
12
18
6
2
-5
-8
0
-6
-9
-12
-7
-6
-8
-1
-8
-7
-4
-6
-5
-6
-12
-11
-7
-14
-10
-12
-12
-12
-11
-7
-6
-7
-9
-18
-11
-13
-8
-8
-6
-1
-8
-15
-18
-2
-3
5
31
66
88
112
129
150
162
169
145
114
76
36
3
-28
-57
-67
-55
-50
-33
-25
-28
-27
-27
-11
-1
-4
0
-2
-5
-4
0
2
6
4
-4
-1
-3
-9
-5
0
0
2
-1
0
3
6
6
5
1
-1
4
7
0
4
8
8
2
1
8
8
5
10
10
9
13
10
12
8
23
17
12
16
7
9
9
19
15
17
12
17
16
16
23
21
26
22
22
24
19
28
35
23
27
30
34
32
31
40
40
36
40
34
46
44
38
38
41
38
43
41
44
46
45
54
51
47
45
48
52
49
47
46
52
52
44
41
42
45
38
31
35
33
31
33
30
23
13
20
13
11
16
17
13
7
3
-1
8
14
1
-1
-1
-2
0
-4
-7
-5
-9
-8
-3
2
2
-3
-8
-7
-4
-3
-9
-5
-2
-4
-7
-5
-4
-2
5
-2
-10
-6
-5
-3
-10
2
2
-5
-10
-7
-5
1
-6
-14
-6
0
10
15
4
-6
-12
-11
-6
-3
-8
1
2
-3
0
-3
-7
2
-2
-6
-5
-6
-3
-5
-3
-1
-4
-1
-11
-5
-4
0
0
-5
-9
-9
-4
-7
-10
-5
-3
-2
-3
-8
-8
-8
2
-1
-12
-12
-10
-10
0
-6
-15
-6
-6
1
-3
-11
-9
-9
0
-3
-16
-10
-9
-8
-6
-7
-11
-9
-8
-13
-12
-12
-8
-9
-5
-5
-10
-9
-3
-10
-13
-12
-11
-11
-10
-9
-13
-9
-3
-10
-9
-11
-14
-8
-7
-9
-11
-8
0
-3
3
3
1
-1
-13
-11
3
18
4
-1
-2
-1
4
3
9
6
6
13
4
12
1
3
11
10
12
9
10
7
12
4
-2
-6
-3
-2
-8
-12
-11
-9
-10
-16
-3
-9
-11
-1
-11
-13
-13
-15
-12
-1
-5
-10
-15
-19
-16
-9
-11
-7
-14
-18
-16
-11
-18
-18
-15
-9
-10
-15
-16
-16
-20
-7
7
30
55
68
100
122
144
153
164
158
116
76
44
13
-16
-57
-59
-53
-58
-33
-45
-36
-28
-23
-15
-5
-6
-8
-9
-8
-8
-5
-1
-7
-4
-1
-6
-5
-5
-8
-9
-10
-2
-3
1
3
3
0
-3
10
-3
-4
1
-1
-1
3
1
6
6
1
1
0
2
3
6
6
6
12
8
5
5
5
13
8
11
15
11
11
10
7
17
16
10
20
18
19
19
18
21
21
14
15
29
37
38
35
31
24
24
42
37
23
28
32
34
33
37
41
35
44
48
47
45
45
46
48
45
42
46
50
44
49
45
44
46
44
42
44
42
40
30
43
42
23
23
24
18
14
13
14
12
11
9
7
5
8
16
6
-5
-3
-5
1
1
-1
-3
-7
-12
-11
-10
-5
-1
-5
-2
-2
-3
-6
-10
-1
-5
0
-6
-6
-7
-8
-5
-4
-9
-12
-5
-7
-8
-5
-7
-3
-4
-5
-5
-1
-4
-11
-12
-8
-4
0
-6
-8
-10
-9
2
4
-7
-4
-4
3
-4
-7
-6
-6
-7
-8
-5
-5
-4
-3
-4
-7
-2
1
-9
-10
-7
-8
-13
-7
-5
-2
-5
-3
-1
-2
-1
-12
-12
-3
-3
-9
-12
-8
-10
-7
-10
-1
-3
-2
-2
-13
-10
-11
-10
-16
-14
-7
-3
-1
-7
-5
-13
-17
-20
-9
0
-11
-4
-9
-7
-7
-8
-8
-12
-9
-16
-11
-1
-8
-10
-10
-13
-10
-11
-7
-11
-9
-6
-11
-10
-8
-4
-6
1
-7
-15
-10
-10
-11
-4
-7
-7
-4
-3
-6
-5
-2
6
7
7
-3
3
5
3
2
13
11
6
10
10
8
7
8
13
8
7
7
8
9
15
0
-2
-8
-13
-12
-6
-8
-11
-1
-8
-13
-11
-14
-13
-9
-12
-19
-7
-11
-13
-17
-16
-10
-10
-13
-10
-12
-10
-10
-11
-20
-17
-14
-12
-16
-14
-13
-7
-6
-22
-16
-5
10
31
51
84
113
130
148
157
169
157
108
73
40
7
-28
-65
-76
-64
-56
-42
-32
-36
-28
-23
-13
-9
-5
-1
-3
1
-3
-4
-6
-9
-3
-3
-7
-8
-4
-2
-3
-6
-11
-4
-1
3
2
-1
-7
-4
-6
-1
0
-6
9
7
4
0
5
3
2
7
3
6
9
8
9
8
3
6
7
6
9
9
12
13
22
20
10
17
15
6
12
22
21
19
17
27
27
17
16
20
31
30
24
31
30
30
32
35
27
32
36
35
40
37
40
39
40
41
43
40
40
49
54
42
41
43
46
44
44
47
43
42
43
53
44
43
38
33
43
41
32
24
26
30
17
13
16
23
13
5
3
5
1
0
3
1
0
4
-6
-5
-1
-3
-5
-1
-2
-8
-9
-12
-12
-9
-8
-5
-5
-7
-11
-9
-9
-6
-2
-7
-5
-5
0
-7
-2
-8
-11
-9
-11
-8
0
2
-1
-4
-13
-13
-12
-11
-11
-9
-3
-2
-3
0
0
-7
-8
-9
-10
-8
-4
3
-4
-12
-2
6
-5
-7
0
-2
-4
2
-1
-6
1
-4
-2
3
5
-7
4
-2
-8
-11
-8
-5
-6
-9
-8
-5
-4
-3
-3
-6
-8
-11
-10
-12
-11
-6
-7
-6
-8
-7
-9
-9
-11
-8
-11
-8
-5
-9
-8
-12
-6
-2
-5
-6
-7
-7
-10
-13
-8
-4
-10
-8
-4
-14
-3
-9
-7
-4
-5
-10
-11
-13
-10
-3
-5
-9
-10
-13
-11
-5
-9
-9
-10
-8
-11
-7
-7
-8
-5
-4
-1
0
2
3
11
5
8
6
-1
-6
-1
1
8
11
8
12
12
12
6
12
7
6
12
11
7
4
4
1
-6
-3
-6
-13
-6
-4
-13
-9
-7
-8
-8
-8
-13
-14
-14
-12
-8
-7
-5
-8
-9
-11
-11
-10
-11
-14
-15
-12
-12
-8
-9
-8
-8
-10
-14
-9
-14
-19
-20
-10
5
21
41
67
105
129
142
156
173
178
134
98
59
25
-10
-44
-64
-61
-50
-41
-32
-32
-26
-20
-22
-11
-6
1
-1
-5
-3
-7
-9
-2
1
2
-2
-3
-1
0
-3
2
1
-3
-2
4
4
2
8
14
3
-1
3
2
5
6
-1
10
12
8
9
2
-1
1
8
16
12
13
20
13
9
9
8
12
12
11
12
16
26
18
17
13
16
19
17
19
19
23
21
26
21
23
28
27
31
32
34
35
35
33
32
38
36
38
36
38
52
53
45
34
39
52
46
52
51
46
48
51
49
52
51
47
49
48
44
43
44
46
51
43
35
36
37
30
26
31
29
23
23
18
10
13
11
10
11
12
7
4
5
0
-1
3
-2
-1
-2
-2
-5
-1
0
-3
-6
-5
-11
-8
-6
-1
-6
-3
-2
6
1
1
-5
-9
-3
-2
-8
-6
-6
-4
-2
-10
-8
1
1
-4
-5
0
-3
-3
-4
-5
-3
-6
-3
7
-3
-7
-2
-1
-10
-8
-1
-1
1
6
-3
1
1
-4
-3
-3
1
-4
-3
-2
1
0
-3
-3
-7
-3
-2
-4
7
0
-4
-6
-3
-6
-15
4
7
4
1
-1
-5
-6
-7
-2
-6
-6
0
-6
-11
-7
0
-3
-4
-8
-12
-14
-5
-3
-7
-5
7
4
4
12
1
-3
-3
-6
-4
-1
2
3
0
3
7
13
10
9
13
13
13
14
6
8
15
12
10
9
12
14
11
9
4
-3
-2
-5
-10
-10
-11
-8
7
12
0
-12
-20
-17
-7
-4
-7
-1
-6
-7
-5
-11
-12
-8
-11
-12
-9
-11
-6
-10
-10
-8
-13
-14
-10
-7
-5
-9
-3
-1
-9
-17
-16
-9
3
35
49
75
108
130
145
163
170
157
122
85
52
22
-9
-38
-61
-48
-35
-40
-37
-35
-28
-23
-12
-9
-10
-9
-6
5
-2
-3
-2
1
5
1
-5
-13
0
12
8
-1
4
0
5
0
0
2
-1
0
5
4
3
6
7
13
9
3
4
8
6
10
10
13
14
10
8
5
11
25
7
12
14
15
16
14
16
8
16
16
13
13
17
25
26
25
29
21
19
24
34
31
31
34
36
33
32
28
35
33
37
54
50
36
41
43
45
48
45
40
47
49
51
50
49
55
56
54
50
49
45
51
57
57
50
49
45
42
45
42
39
37
38
30
27
24
17
17
19
19
17
17
6
7
6
4
2
-3
3
-5
-2
-8
5
15
13
-6
-13
-12
-7
-10
-2
-4
-5
-1
-6
-1
-12
-12
-8
-5
-7
-4
-5
-7
-6
-6
-5
-10
-15
-14
-8
-8
-3
-3
0
0
-9
-6
-6
-7
-9
-4
1
0
5
-4
-6
-4
-3
-5
-9
-5
-5
-7
-2
3
2
-6
-3
-5
-8
-6
0
-4
-6
-7
-4
-5
-2
-5
-7
-5
-3
-5
-5
-6
-13
-10
-6
-4
-6
-10
-7
5
2
-8
-4
-6
-4
-3
-6
-2
1
-1
-4
-6
2
9
-2
1
-1
-3
10
4
2
3
5
8
2
8
25
20
6
4
11
7
9
9
11
12
7
7
5
5
5
-1
-3
-4
-9
-11
-10
-9
-9
-8
-10
-12
-12
-9
1
0
-3
-15
-12
-9
-10
-7
-14
-21
-22
-11
-10
-12
-12
-10
-14
-13
-11
-8
-8
-4
-11
-15
-10
-15
-19
-19
-20
-12
-2
15
45
70
100
123
140
150
164
167
144
99
70
36
-2
-36
-60
-62
-47
-43
-40
-32
-24
-28
-21
-16
-10
-8
-12
2
0
0
0
-2
-2
-7
-13
-12
-5
-6
-5
-3
-6
-4
2
2
7
-3
-4
-4
-3
0
-1
0
-1
1
1
0
1
5
4
0
1
10
3
6
9
11
0
5
9
13
6
6
10
10
12
14
11
9
16
18
15
24
23
22
21
20
13
19
23
22
22
26
27
30
24
18
32
37
38
35
37
39
38
39
38
36
44
39
40
44
45
46
50
51
51
43
43
45
51
46
47
46
46
41
38
36
33
31
32
33
30
29
21
12
16
19
14
10
8
12
14
11
3
-1
-9
-7
-3
-7
-10
-10
-4
-4
-6
-10
-7
-9
-12
-9
-7
-8
-4
-5
-9
-12
-15
-14
-8
-11
-14
-10
-3
1
-8
-9
-8
-10
-11
-7
-12
-10
-8
-5
-11
-10
-10
-10
-9
-8
-2
-6
2
-10
-12
-9
-11
-11
-7
-4
-3
-7
-4
-5
-12
-8
-12
-7
-4
-12
-9
-8
-1
-2
-3
-7
-9
-6
-10
-5
-3
-3
-4
-6
1
7
-3
-21
-13
-10
-10
-3
-3
-4
-5
-5
-4
-2
0
3
-1
-4
-1
-3
-5
-6
-3
2
5
9
7
3
5
8
11
5
6
12
6
9
15
14
11
5
8
4
6
3
2
0
6
18
2
-15
-17
-12
-13
-14
-8
-6
-15
-14
-12
-14
-14
-13
-9
-14
-13
-13
-13
-12
-12
-15
-11
-14
-15
-11
-14
-12
-13
-13
-12
-12
-15
-17
-9
-12
-17
-21
-16
-17
-9
5
27
51
85
109
127
141
159
180
172
134
102
66
26
1
-42
-56
-53
-40
-28
-24
-25
-25
-10
-11
-8
-5
-8
-4
0
-6
-12
-10
-8
-10
-6
-5
-2
-3
-4
-5
-5
-6
-5
-3
-5
-4
-1
0
1
4
9
-3
-7
3
-1
6
3
5
4
3
-1
3
8
6
7
10
10
9
13
6
1
9
12
6
8
11
10
15
14
10
11
12
12
11
19
21
25
26
22
24
22
20
27
23
29
34
38
28
31
31
29
32
31
35
41
37
41
44
47
46
38
49
48
55
46
40
48
56
51
43
42
43
45
39
41
42
39
34
35
30
23
22
22
22
15
15
17
16
10
8
4
-3
0
-3
0
-3
-5
-3
-4
-8
-15
-14
-8
-3
-3
-6
-2
-5
-8
-6
-7
-13
-17
-21
-6
6
2
-10
-14
-10
-6
-7
-12
-10
-4
-4
0
-4
-13
-13
-13
-12
-7
-8
-10
-11
-6
-9
-8
-8
-12
-9
-12
-6
-9
-9
-6
-8
-10
-5
-9
-6
-4
0
-5
-12
-7
-9
-10
-9
-13
-12
-9
-10
-7
-8
-7
-3
-11
-9
-9
-13
-8
-11
-6
-11
-3
-10
-19
-18
-7
-7
-10
-15
-11
-6
-4
-12
-10
-15
-11
-13
-13
-13
-4
-7
-10
-12
-12
-13
-7
-7
-10
-10
-9
-7
-2
-1
-5
-10
-6
-6
1
0
-1
2
6
1
-1
0
5
3
4
2
7
6
4
6
7
7
5
6
2
0
2
1
1
-5
-10
-17
-18
-9
-17
-13
-8
-6
-11
-24
-22
-20
-18
-21
-18
-14
-8
-10
-14
-17
-20
-21
-15
-14
-24
-15
-13
-14
-19
-19
-19
-19
-15
-12
-16
-23
-25
-19
-21
-15
-9
6
36
58
82
112
131
155
166
180
166
122
88
53
19
-21
-51
-57
-52
-40
-36
-30
-35
-30
-27
-18
-13
-10
-11
-8
-8
-7
-8
-10
-13
-10
-12
-6
-3
-11
-12
-11
-16
-3
-1
-6
-5
-2
-6
-3
-7
-5
1
-7
-9
-6
8
3
-4
-9
-5
2
1
0
4
3
4
5
4
6
2
9
15
3
2
3
1
7
11
9
10
13
7
8
12
13
13
18
16
13
15
18
19
20
21
24
26
25
25
28
26
22
31
33
41
39
40
38
31
43
38
38
41
47
42
46
50
50
52
44
38
43
44
46
42
42
40
38
36
33
38
33
24
22
22
12
16
15
14
17
8
1
3
-2
-1
-4
-1
-3
-7
-5
-8
-10
-14
-10
1
-10
-9
-8
-13
-12
-16
-9
-10
-12
-14
-14
-8
-19
-15
-12
-9
-16
-17
-18
-8
-6
-8
-10
-12
-10
-12
-17
-15
-15
-16
-10
-12
-10
-12
-12
-8
-4
-10
-10
-11
-13
-12
-12
-16
-11
-9
-10
-11
-8
-9
-8
-2
-3
-11
-9
-6
-3
-18
-15
-13
-10
-16
-11
-10
-15
-11
-9
-7
-3
-12
-15
-6
-10
-13
-16
-15
-14
-10
-16
-17
-7
-13
-15
-13
-20
-15
-15
-16
-10
-12
-13
-12
-14
-11
-12
-11
-4
-18
-23
-10
-9
-15
-19
-21
-18
-15
-18
-18
-13
-10
-12
-3
-18
-22
-18
-20
-21
-15
-19
-16
-12
-12
-16
-18
-17
-19
-18
-18
-18
-13
-2
-14
-14
-22
-20
-12
-15
-12
-12
-9
-6
-8
-13
-14
-14
-10
-8
-4
-4
-4
6
3
6
12
-1
-2
-1
1
-4
1
5
5
5
9
9
6
-8
-6
2
1
2
-6
-12
-20
-22
-16
-19
-21
-14
-9
-13
-19
-18
-23
-21
-20
-23
-20
-14
-14
-8
-8
-18
-22
-23
-22
-20
-23
-20
-22
-16
-14
-19
-24
-23
-22
-20
-26
-30
-26
-13
-14
3
33
65
88
109
128
148
174
185
159
115
86
53
16
-27
-63
-69
-60
-40
-33
-36
-33
-33
-28
-21
-11
-13
-9
-8
-10
-13
-11
-6
-15
-18
-17
-16
-6
-7
-11
-13
-16
-17
-10
-4
-12
-11
-7
-2
2
-8
-12
-7
-3
-10
-9
-4
21
0
-6
-6
-4
4
-2
-4
-8
2
5
-1
-5
-2
2
3
6
2
4
8
10
10
6
8
12
11
7
15
11
10
12
21
15
11
10
13
13
16
28
38
27
19
25
26
27
29
28
35
37
32
43
33
31
43
37
36
36
44
45
48
48
47
43
42
44
35
44
38
41
41
35
33
27
25
26
25
20
22
23
17
11
7
9
2
-3
-1
0
2
0
-2
-3
-13
-12
-7
-11
-18
-13
-17
-17
-12
-9
-19
-19
-10
-6
-13
-15
-16
-17
0
-9
-15
-15
-24
-12
-17
-21
-19
-12
-9
-15
-18
-19
-14
-17
-17
-17
-15
-12
-10
-9
-15
-14
-13
-14
-19
-15
-15
-13
-12
-11
-11
-6
-13
-12
-19
-15
-10
-6
-12
-10
-15
-13
-14
-16
-11
-7
-12
-9
-8
-9
-15
-18
-9
-18
-24
-14
-3
-11
-11
-11
-12
-18
-20
-20
-18
-17
-9
-11
-14
-13
-12
-18
-14
-16
-11
-14
-19
-13
-15
-17
-20
-20
-10
-14
-14
-12
-12
-18
-14
-20
-24
-12
-18
-21
-14
-10
-19
-20
-27
-16
-7
-14
-18
-18
-20
-18
-14
-17
-18
-21
-17
-21
-17
-17
-19
-21
-20
-17
-6
-11
-20
-24
-24
-21
-22
-18
-18
-15
-13
-20
-20
-18
-18
-21
-22
-24
-21
-14
-10
-18
-15
-23
-18
-18
-23
-25
-15
-17
-15
-25
-20
-18
-18
-23
-17
-22
-20
-25
-12
-21
-12
-13
-17
-11
-12
-16
-15
-10
-4
-5
-15
-14
-11
-11
-6
-8
-6
-5
-4
-4
-1
-1
-2
-4
-3
-3
-1
1
2
3
-2
0
-1
-3
0
-5
-8
-4
-12
-20
-19
-6
-18
-20
-20
-19
-13
-15
-12
-20
-20
-18
-25
-25
-23
-18
-13
-15
-20
-21
-20
-20
-20
-24
-23
-26
-24
-15
-3
-14
-22
-28
-23
-26
-27
-26
-29
-15
3
6
23
50
80
111
135
153
162
177
169
127
88
55
19
-23
-46
-61
-56
-50
-43
-35
-29
-30
-27
-22
-12
-11
-8
-4
-11
-10
-10
-16
-17
-6
-8
-9
-6
-4
-8
-12
-12
-6
4
0
-15
-4
-1
4
-2
-6
-3
-2
-7
-8
-2
-2
10
6
-4
-5
-7
-4
4
4
1
2
8
4
1
3
4
1
0
2
4
6
8
8
3
8
8
14
17
21
14
10
14
14
14
18
22
25
21
23
21
20
25
23
26
31
27
32
32
28
31
43
51
36
36
33
34
40
39
41
42
45
45
45
39
41
37
40
44
40
42
42
35
37
34
28
37
32
32
29
20
23
18
14
10
4
7
5
4
6
2
2
-2
-6
-6
0
1
-9
-11
-10
-11
-3
-3
-12
-10
-9
-12
-11
-6
-8
-5
-11
-3
-13
-21
-20
-9
-9
-5
-7
-15
-15
-10
-17
-14
-16
-15
-11
-14
-12
-10
-2
-5
-13
-15
-14
-14
-17
-8
-4
-7
-4
-7
-5
-12
-17
-11
-11
-9
-6
-4
-6
-8
-6
-8
-13
-10
-10
-15
-16
-3
-3
-2
-10
-13
-3
-6
-13
-10
-4
-8
0
1
-16
-15
-16
-16
-12
-9
-13
-11
-7
-10
-11
-14
-9
-10
-17
-11
-13
-6
-7
-10
-11
-15
-17
-9
-11
-12
-16
-12
-13
-13
-23
-8
-2
-12
-15
-17
-16
-10
-9
-9
-11
-11
-11
-13
-20
-16
-7
-5
-10
-17
-17
-19
-13
-19
-15
-15
-15
-14
-12
-14
-14
-14
-17
-20
-16
-17
-13
-13
-17
-11
-13
-18
-15
-8
-8
-7
-23
-19
-5
-13
-12
-17
-13
-13
-18
-18
-14
-4
0
8
0
-4
6
-3
0
6
6
0
-5
-6
-6
-2
4
3
8
5
-1
0
-4
-7
-6
-10
-3
-8
-15
-17
-13
-15
-14
-16
-16
-13
-16
-19
-19
-20
-18
-12
-11
-19
-22
-16
-13
-18
-21
-20
-21
-17
-18
-17
-23
-21
-19
-23
-24
-16
-9
-9
-21
-27
-32
-26
-20
-13
9
38
60
90
123
141
153
160
166
155
109
82
47
7
-31
-54
-67
-58
-44
-35
-33
-35
-28
-21
-21
-20
-14
-13
-12
-13
-11
-11
-6
-9
-10
-9
-3
-4
-12
-3
-7
-9
-1
-5
-3
-5
-10
-9
-8
-6
-5
-3
-1
-1
3
-2
-6
-11
-3
3
3
3
4
-2
-4
1
-2
0
-1
5
6
5
12
15
5
3
0
6
8
8
10
8
11
5
9
18
19
12
16
16
26
23
25
28
22
21
22
24
25
32
35
34
31
32
32
30
33
36
36
37
39
46
46
43
46
43
43
45
46
44
45
48
49
45
41
36
39
36
35
39
33
34
31
27
22
14
14
10
7
6
10
7
4
0
-5
-4
-3
-9
-10
-6
-3
-9
2
-7
-17
-8
-12
-16
-8
2
-5
-20
-18
-16
-14
-17
-19
-20
-17
-13
-8
-7
-10
-9
-14
-23
-24
-18
-17
-12
-10
-10
-18
-18
-12
-12
-16
-16
-15
-15
-11
-18
-6
-1
-11
-12
-13
-17
-12
-12
-14
-13
-13
-13
-17
-10
-12
-9
-11
-5
-5
-8
-9
-12
-14
-17
-14
1
-7
-11
-17
-21
-7
7
-11
-16
-10
-6
-11
-11
-4
-7
-11
-15
-10
-13
-12
-13
-14
-12
-5
-2
-15
-23
-22
-21
-23
-19
-7
-6
-2
-10
-19
-19
-20
-16
-14
-17
-7
-14
-21
-11
-12
-20
-21
-20
-20
-17
-13
-9
-9
-7
-6
-19
-22
-20
-20
-21
-18
-19
-3
4
-8
-11
-20
-16
-10
-9
-11
-10
-2
3
-1
-2
-6
-7
-6
-1
-2
4
-1
2
6
0
-1
0
-5
-6
-7
-7
-3
-11
-15
-20
-20
-14
-10
-16
-21
-22
-21
-12
-21
-33
-27
-17
-5
-5
-21
-19
-21
-19
-22
-26
-26
-22
-25
-19
-20
-18
-14
-14
-24
-23
-30
-26
-21
-23
-26
-29
-26
-28
-26
-8
6
36
59
84
115
134
149
164
159
126
90
81
42
-2
-35
-56
-63
-52
-41
-39
-39
-42
-40
-32
-18
-7
-9
-18
-14
-16
-15
-16
-17
-11
-13
-16
-14
-4
-6
-17
-10
-13
-18
-13
-12
-13
-8
-11
-12
-9
-6
-8
-6
-3
-12
-8
-3
-8
-8
-7
1
-2
-2
-3
-6
-1
-1
0
-4
-5
-3
-1
0
-1
1
4
2
1
3
2
1
0
15
22
13
11
14
15
8
7
11
10
13
15
27
26
29
25
18
21
27
22
25
28
27
34
36
34
33
37
43
35
39
43
35
44
40
39
45
39
43
41
37
40
36
35
37
31
29
25
21
20
21
21
12
19
19
12
-2
-1
5
8
-5
-12
-9
-10
-15
-13
-11
-12
-17
-16
-8
-15
-18
-15
-20
-17
-18
-12
-15
-24
-22
-24
-12
-15
-16
-18
-19
-14
-18
-19
-19
-13
-9
-11
-20
-26
-21
-16
-19
-16
-22
-20
-20
-16
-16
-18
-19
-16
-10
-8
-18
-19
-16
-16
-20
-17
-13
-12
-15
-17
-15
-17
-10
-11
-22
-19
-15
-12
-14
-16
-16
-19
-13
-10
-13
-20
-18
-12
-12
-14
-8
-7
-12
-9
-12
-17
-14
-18
-18
-15
-8
-10
-15
-13
-19
-19
-17
-16
-17
-15
-10
-13
-9
-13
-12
-18
-16
-15
-18
-18
-19
-19
-13
-17
-9
-16
-14
-18
-24
-23
-23
-21
-3
-7
-20
-18
-18
-18
-14
-18
-20
-19
-16
-16
-24
-18
-12
-17
-18
-19
-13
-9
-12
-17
-6
-13
-9
5
1
-16
-22
-18
-11
-7
-5
-4
-3
-4
-3
-6
4
8
0
-3
0
-3
-1
0
-2
1
-3
0
-4
-8
-6
1
-3
-15
-19
-18
-18
-19
-12
-13
-22
-23
-21
-16
-16
-15
-23
-23
-21
-17
-16
-20
-21
-21
-22
-22
-14
-11
-13
-21
-22
-24
-24
-23
-19
-23
-22
-17
-17
-26
-30
-23
-24
-15
-2
20
44
68
94
118
136
149
165
169
136
96
64
42
6
-39
-61
-68
-46
-39
-41
-29
-29
-27
-21
-14
-4
-12
-22
-11
-12
-17
-12
-10
-8
-10
-18
-12
-13
-20
-16
-14
-7
-6
-10
-11
-12
-15
-3
-6
-6
-3
-8
-7
-8
-12
-8
-5
-10
-11
-3
-7
-2
-4
-6
-6
-4
-8
-5
-7
-3
-1
0
7
8
3
1
13
8
7
3
4
10
12
14
10
14
19
14
11
23
24
25
22
21
18
15
21
29
24
26
32
30
37
37
32
32
30
32
41
36
41
49
48
53
51
35
39
37
40
40
38
50
50
44
33
25
39
39
33
29
29
32
30
22
12
7
7
7
7
3
1
1
6
2
2
-7
-17
-11
-6
-8
-13
-3
-4
-9
-13
-16
-19
-18
-17
-20
-16
-16
-15
-17
-18
-17
-19
-20
-22
-23
-23
-19
-11
-17
-16
-21
-21
-22
-21
-21
-18
-9
-17
-25
-22
-24
-14
-7
-14
-19
-8
-12
-15
-15
-20
-21
-18
-11
-20
-22
-19
-10
-13
-7
-16
-21
-14
-16
-21
-16
-16
-14
-15
-21
-20
-18
-21
-22
-17
-21
-19
-19
-20
-18
-23
-20
-17
-22
-23
-15
-15
-18
-22
-17
-20
-20
-9
-18
-24
-28
-24
-23
-23
-24
-28
-22
-18
-19
-25
-25
-20
-18
-15
-26
-21
-23
-26
-22
-25
-18
-22
-16
-11
-21
-29
-32
-26
-25
-25
-27
-26
-24
-22
-24
-23
-22
-20
-27
-27
-25
-27
-27
-27
-26
-28
-18
-19
-28
-26
-24
-18
-31
-31
-30
-29
-20
-27
-22
-10
-18
-20
-15
-16
-25
-22
-20
-10
-14
-17
-2
-1
-13
-9
-10
-16
-11
-9
-13
-12
-10
-7
-10
-8
2
-3
-8
-15
-16
-13
-13
-13
-14
-18
-19
-21
-27
-23
-18
-30
-31
-23
-25
-28
-30
-27
-22
-24
-28
-35
-29
-32
-34
-30
-25
-34
-32
-23
-28
-27
-27
-26
-31
-27
-25
-24
-30
-31
-24
-31
-32
-33
-32
-20
-8
9
41
62
86
111
132
146
160
155
129
93
58
28
-1
-47
-70
-67
-64
-55
-46
-42
-37
-34
-30
-26
-17
-15
-21
-21
-21
-22
-25
-29
-30
-25
-23
-18
-17
-15
-29
-20
-13
-18
-18
-21
-21
-13
-14
-18
-12
-14
-12
-7
-11
-16
-17
-16
-6
-5
-13
-18
-19
-13
-9
-7
-8
4
