96
94
103
114
101
91
100
77
116
100
108
101
115
90
97
91
76
85
95
117
93
101
124
139
128
103
98
102
107
100
114
98
113
124
118
119
119
122
115
106
123
116
122
128
119
120
119
121
109
100
128
115
105
101
104
100
97
103
107
113
113
125
90
97
111
97
110
86
102
94
100
108
92
91
85
105
97
100
103
101
85
101
113
107
86
95
91
102
102
114
102
107
74
59
52
54
55
83
84
126
165
199
233
269
299
307
309
287
259
232
204
169
163
149
95
109
113
107
99
110
121
113
101
109
92
106
102
84
98
123
104
101
96
99
78
94
86
96
93
93
83
86
100
102
106
103
106
99
80
108
117
110
98
104
92
94
86
90
91
91
91
131
130
116
101
100
105
101
114
115
107
112
103
109
100
97
105
90
99
115
109
134
126
109
116
90
88
96
126
122
100
111
113
113
113
108
108
103
107
121
125
124
119
121
128
134
123
133
140
137
121
124
149
139
135
115
119
126
140
129
131
122
155
140
153
140
136
140
127
119
121
120
131
137
131
123
132
119
131
146
127
101
121
108
114
135
119
122
133
111
120
119
124
111
112
110
105
102
106
112
124
114
130
126
116
117
124
118
112
112
116
105
115
125
122
109
119
113
129
141
120
105
101
136
144
125
99
101
97
111
144
132
108
122
133
116
117
129
127
117
130
130
128
126
126
125
121
118
128
130
122
126
140
137
126
137
143
143
149
138
135
134
135
140
141
146
154
135
130
135
135
140
138
122
131
133
125
121
145
123
114
126
124
120
119
104
131
138
130
140
122
118
132
128
125
114
121
121
122
131
132
120
126
113
121
122
144
119
127
122
107
104
94
94
88
96
104
122
148
169
205
230
233
265
290
314
293
272
247
203
185
173
151
134
145
143
144
135
144
151
140
129
110
116
167
143
111
115
122
104
121
116
112
112
119
125
118
121
96
110
140
136
119
110
99
111
124
126
128
126
135
126
128
131
138
116
126
139
126
145
140
136
126
124
142
130
120
118
128
130
126
124
128
128
132
138
139
127
125
125
117
146
132
118
122
169
140
138
134
131
140
146
150
131
127
144
127
134
140
152
152
119
139
161
145
148
144
145
166
163
154
138
138
170
150
155
173
153
140
156
168
158
155
161
159
158
147
161
153
162
164
159
133
142
155
123
168
159
151
141
143
131
128
149
143
140
150
157
147
138
125
133
147
126
133
139
131
145
146
151
141
136
118
125
143
130
157
133
128
138
120
122
133
150
147
119
138
138
137
139
158
121
123
137
136
143
148
132
146
144
136
137
132
135
134
156
173
152
144
138
146
150
162
147
134
139
149
136
162
173
139
132
149
134
162
158
151
152
173
171
147
123
156
172
159
154
169
176
159
154
165
153
141
157
142
157
157
149
135
139
149
139
153
147
163
142
160
160
131
158
138
157
142
153
153
135
147
164
142
144
148
142
137
139
144
151
145
145
146
134
111
109
121
116
146
166
190
207
240
251
262
303
328
340
279
272
226
201
202
178
157
158
151
157
160
163
154
160
147
139
143
147
149
147
135
151
140
138
146
159
164
131
138
160
155
155
154
153
152
143
141
143
150
135
137
143
161
152
158
144
133
141
155
143
146
165
170
152
145
152
156
153
159
141
149
150
153
153
145
121
136
154
153
162
150
170
159
165
147
152
159
142
151
164
160
160
170
181
179
163
135
130
157
174
127
115
169
163
166
188
231
200
171
167
144
164
136
146
182
177
218
226
205
160
160
172
188
178
170
201
196
150
172
192
210
187
156
176
198
192
174
167
164
179
198
181
154
169
205
180
168
157
138
146
152
182
200
182
150
147
136
167
176
169
149
150
169
172
162
141
140
159
172
178
185
160
164
160
167
178
165
176
169
172
152
178
179
176
185
167
129
151
154
131
146
170
161
165
163
194
172
183
203
173
182
145
139
155
171
132
148
188
207
183
196
166
177
152
177
176
167
175
175
175
175
188
191
189
198
188
181
182
170
155
172
180
179
192
182
167
161
171
175
152
162
153
145
157
177
163
201
196
167
157
150
166
172
168
196
159
156
171
168
157
162
173
190
169
178
162
156
176
160
183
191
181
170
151
134
145
129
131
133
133
157
176
195
240
241
289
314
317
319
334
339
316
309
239
199
186
168
156
164
190
200
193
198
208
192
198
183
159
141
143
161
178
171
178
166
167
166
188
153
135
157
162
170
187
178
156
170
166
168
180
185
165
161
163
180
185
161
156
176
190
181
198
192
189
143
161
174
161
160
181
175
179
180
185
171
165
172
188
170
189
184
169
183
172
178
178
163
171
178
189
190
197
184
188
182
180
179
173
157
175
175
180
186
185
189
196
185
178
191
196
209
203
194
202
191
193
196
189
197
191
215
214
198
190
199
187
201
209
202
186
197
190
181
192
184
190
176
172
178
173
170
186
182
177
174
178
178
173
180
184
189
184
178
175
182
180
182
173
152
149
172
175
213
195
206
163
172
172
180
179
174
177
160
181
163
152
168
163
157
164
172
170
162
147
172
187
162
172
185
187
189
180
191
189
177
191
176
164
174
176
190
196
203
203
197
195
203
190
207
220
235
231
204
192
192
192
201
194
187
207
214
224
211
200
195
219
240
204
223
229
217
215
235
219
208
209
201
202
206
224
218
216
209
217
218
200
191
192
191
196
195
205
198
199
201
208
199
194
188
194
194
209
216
184
192
187
184
196
210
187
187
197
206
221
207
201
205
192
204
192
190
165
183
174
173
179
153
150
162
181
210
246
277
298
320
357
366
367
371
344
323
279
257
239
221
209
203
207
211
202
206
211
204
200
199
200
189
205
202
193
215
191
189
201
185
187
185
182
195
193
185
195
191
203
210
207
201
194
192
196
180
177
181
198
199
206
193
188
196
176
195
189
190
189
186
175
171
187
207
186
180
194
190
204
212
218
188
213
213
189
197
204
211
190
194
200
195
185
196
200
208
199
203
199
194
185
203
201
211
204
208
210
212
219
221
208
208
209
209
223
214
219
226
220
211
223
209
220
222
201
205
223
207
229
213
209
220
249
228
224
202
217
215
212
199
194
218
202
208
188
181
206
215
205
202
192
197
208
209
201
204
208
195
189
196
196
197
196
197
190
195
197
196
188
199
222
194
188
167
184
197
180
177
185
198
194
190
211
201
168
182
197
188
188
197
181
181
198
191
192
198
188
201
197
167
170
184
177
208
215
208
179
182
186
196
190
174
184
195
190
193
196
185
188
187
195
192
199
218
219
181
191
194
187
187
186
195
181
192
196
195
200
181
179
197
187
209
211
198
191
194
195
193
199
198
205
183
204
189
197
199
193
200
188
192
180
191
193
192
195
206
182
172
174
174
175
169
191
196
181
192
181
178
189
176
165
178
175
180
188
195
197
191
193
171
184
179
189
189
168
168
176
164
144
164
165
163
171
189
212
243
268
298
314
334
342
334
326
300
267
248
192
192
190
171
193
179
186
183
197
184
193
185
172
168
171
183
183
168
177
173
173
169
168
169
177
172
174
176
173
174
178
177
175
169
160
177
174
183
185
170
171
182
195
160
175
181
187
161
167
174
163
164
172
161
173
180
174
178
181
181
179
171
181
197
182
174
168
165
176
190
191
168
171
153
189
170
171
172
176
175
188
175
172
173
182
186
189
193
193
195
172
186
193
194
177
188
186
183
183
208
185
186
202
197
199
188
213
199
181
190
191
173
185
192
195
196
201
196
201
198
204
179
174
171
177
170
166
179
179
180
180
174
182
176
180
170
184
175
179
157
158
153
159
178
169
157
171
166
180
162
166
162
157
166
156
164
133
159
186
169
167
174
165
158
170
183
165
156
167
148
153
158
171
159
173
174
172
165
148
153
158
157
160
183
178
182
157
154
149
168
157
165
160
163
167
168
168
164
156
150
162
168
168
174
184
158
145
151
162
154
157
155
196
187
177
151
149
169
171
169
147
164
160
166
181
169
158
159
162
150
162
172
156
168
155
177
164
169
154
149
156
156
143
149
160
161
170
159
162
162
144
151
139
151
155
164
144
160
148
160
142
148
150
153
144
158
158
160
149
143
140
144
137
155
129
147
156
139
134
121
126
123
126
154
145
170
203
190
216
244
266
268
277
285
259
250
221
206
184
150
139
143
138
151
146
143
142
153
158
153
136
141
137
128
133
143
147
134
150
132
144
139
109
133
150
140
142
162
145
129
118
126
131
135
140
123
131
136
143
133
128
130
121
139
135
139
132
127
135
132
128
132
127
128
144
137
142
121
121
128
132
134
146
144
146
132
148
124
136
129
128
117
143
161
145
135
140
131
141
129
135
135
141
140
142
154
134
153
158
150
150
133
140
159
155
153
156
163
155
147
145
152
153
162
162
159
158
147
130
140
157
141
172
172
144
142
145
147
157
123
126
140
136
138
144
125
142
125
139
136
134
129
129
126
130
137
132
124
121
124
126
127
123
124
122
124
125
137
134
116
114
135
99
130
125
121
117
114
117
109
118
130
135
109
121
114
113
116
129
119
111
113
116
142
122
120
130
131
111
123
123
103
114
121
120
118
125
124
119
125
126
115
124
118
116
123
125
119
122
112
110
120
128
117
111
116
122
117
114
124
122
123
112
126
131
121
127
106
112
135
140
112
129
113
127
137
127
115
131
121
110
117
140
118
112
132
119
125
119
129
127
108
113
132
131
118
116
97
109
120
125
131
107
110
114
125
110
105
121
90
116
103
118
91
111
103
99
102
104
112
95
116
136
104
102
119
94
102
101
106
106
138
92
78
61
74
75
103
122
124
153
179
187
206
221
243
262
259
226
181
169
173
145
117
117
118
90
94
112
94
102
109
114
119
94
96
84
116
94
103
121
95
75
84
103
105
88
86
81
72
81
93
105
94
95
107
91
93
92
94
97
113
104
99
103
90
81
88
96
96
75
81
97
98
104
97
99
92
98
95
87
90
124
108
104
94
92
94
95
89
77
99
89
103
93
91
89
92
93
98
105
103
96
94
104
94
99
108
83
90
99
115
108
125
108
88
101
111
127
126
109
116
125
111
110
102
115
98
102
104
110
107
114
112
107
122
129
105
108
118
104
99
109
107
108
104
96
101
89
90
90
93
103
92
98
98
98
95
96
92
88
99
101
94
93
109
87
69
79
55
63
80
82
95
81
74
98
78
85
91
73
81
84
81
92
69
85
73
72
80
81
70
71
77
71
69
68
75
80
78
75
76
67
61
74
83
84
78
85
70
82
71
69
63
73
81
80
64
88
96
101
79
67
91
88
70
78
74
86
90
69
71
66
73
67
66
90
80
71
83
88
81
80
70
74
74
80
114
55
66
93
81
82
83
66
76
93
78
87
83
90
82
69
81
73
77
88
81
90
71
69
65
77
71
71
63
80
65
73
78
70
70
66
77
71
70
90
88
78
73
77
66
81
66
65
73
68
66
77
89
68
67
79
69
67
73
80
67
69
95
44
32
34
51
63
53
82
102
135
154
164
183
203
239
230
213
190
174
143
125
108
76
78
66
64
77
81
75
64
43
58
70
63
55
51
78
70
64
60
57
59
75
57
42
53
63
62
56
64
65
57
64
55
67
68
68
63
61
61
59
63
68
62
59
102
79
55
74
71
47
47
67
77
89
46
53
45
56
55
50
59
58
55
51
60
71
57
74
94
62
51
62
72
64
71
76
66
76
63
77
66
57
56
59
62
75
68
59
68
75
55
75
78
82
71
67
75
87
84
72
79
90
92
75
83
87
82
87
99
87
73
81
85
84
84
79
78
90
110
63
85
93
78
78
80
74
67
68
77
79
74
84
67
53
65
52
46
64
62
63
71
50
43
50
42
55
60
59
59
65
31
60
70
69
55
54
54
58
48
44
49
63
60
68
54
49
56
47
55
52
42
59
60
45
43
50
62
60
59
53
52
54
53
54
67
55
52
38
61
50
42
50
49
40
60
58
53
70
62
52
48
47
68
62
66
39
38
46
51
52
54
52
53
44
50
49
49
63
55
53
50
64
36
31
51
64
55
47
50
57
65
50
53
44
60
52
59
45
42
46
44
51
43
44
51
51
55
69
51
56
55
57
52
42
57
55
57
66
60
58
53
61
39
46
67
52
57
60
40
51
41
50
83
53
39
46
27
21
40
54
38
62
45
41
41
40
38
52
38
35
37
37
55
50
35
33
26
43
38
58
29
33
38
52
41
28
22
32
40
19
27
51
87
115
121
124
161
198
194
193
180
162
130
104
94
71
54
55
41
33
43
39
27
45
50
43
54
59
29
38
36
23
30
43
35
15
33
35
29
26
34
44
23
36
24
30
37
32
21
21
25
35
32
34
31
37
36
44
35
5
42
26
38
42
47
30
30
52
40
31
30
26
23
36
47
20
31
37
21
47
22
23
56
30
40
48
40
43
36
21
30
45
50
41
40
44
46
39
31
44
39
47
53
44
44
37
54
58
36
64
55
53
66
64
46
42
53
44
51
52
55
53
49
61
70
73
57
67
50
64
56
30
53
58
49
48
59
66
50
26
43
28
55
47
49
51
38
45
43
55
35
6
24
37
39
45
37
30
24
20
17
34
41
32
18
28
44
35
27
25
31
28
35
34
31
37
43
20
15
21
13
47
21
37
25
28
30
25
38
35
22
25
25
34
27
11
37
21
20
15
10
13
33
30
35
48
30
24
33
28
9
1
19
23
31
51
33
17
22
35
34
32
26
28
15
23
26
15
33
41
25
31
28
26
20
24
17
30
30
22
35
21
25
15
18
26
35
10
27
48
24
32
34
30
19
27
40
12
26
24
33
30
19
21
23
18
26
29
28
30
6
17
15
34
29
31
23
5
44
29
28
22
31
40
41
28
27
24
47
29
18
22
42
37
31
22
26
22
15
29
26
23
10
24
26
21
23
24
23
18
21
23
21
12
13
10
19
14
19
16
4
4
25
15
29
26
16
16
-12
28
5
17
5
16
12
1
-4
-12
0
13
29
64
75
95
115
149
150
158
177
169
158
152
122
69
41
49
15
26
14
14
18
17
28
33
43
19
0
21
8
7
-2
10
-9
3
20
14
14
5
-5
0
4
15
8
31
20
9
11
13
4
2
-1
24
-1
10
10
18
12
15
9
-10
4
15
14
19
7
5
19
-3
22
23
14
21
22
-16
6
4
33
7
-4
1
18
28
23
19
24
15
1
4
13
12
24
21
14
2
15
19
13
1
9
23
14
20
19
18
35
23
17
28
29
21
20
24
62
49
40
26
24
29
30
23
27
31
31
54
33
28
39
34
34
26
43
45
42
40
23
38
22
27
26
26
13
19
23
22
10
15
17
0
10
25
18
9
39
4
22
9
14
31
6
7
10
7
-1
7
7
22
-5
0
13
7
6
16
15
18
12
12
8
-4
16
4
-9
7
11
1
9
8
7
-1
5
12
-1
6
4
-11
5
9
3
21
3
-2
40
11
13
3
15
-9
-23
4
-1
13
2
-4
24
8
-12
-12
-5
7
3
13
21
23
10
4
-8
10
24
-9
18
29
3
-4
8
17
15
15
-2
10
16
13
19
-17
24
6
3
-14
-1
8
2
4
15
9
8
5
-9
17
10
10
2
13
4
2
5
10
5
14
8
3
6
18
12
-1
11
19
1
3
9
-3
13
3
18
27
9
8
2
-12
16
9
4
15
12
12
0
12
-2
15
19
-7
4
7
-5
-11
23
8
2
13
1
0
-4
11
21
-1
-12
7
5
-10
-15
-7
2
21
19
20
0
-12
-9
-6
-3
-10
-3
1
3
7
3
9
-13
-8
-3
1
-27
-36
-38
-11
24
7
47
52
69
83
116
145
168
145
133
140
90
66
45
26
11
7
28
0
19
12
7
-14
1
3
-6
-10
-6
-11
3
11
-15
2
12
-23
-23
0
-8
-5
-5
-10
-10
1
6
-17
-11
-20
15
2
-9
-8
-7
-7
11
-7
4
-13
-9
-3
0
-3
-18
5
8
-1
-2
0
0
-6
-7
-16
6
-2
-5
3
12
14
-4
-7
8
-7
-22
-26
-17
4
16
-2
-5
-3
0
20
9
-5
6
-9
-1
-7
4
3
15
38
-9
20
8
17
18
13
8
9
38
13
7
13
11
18
25
45
27
10
21
25
22
27
21
21
23
22
21
28
36
22
12
13
11
6
16
30
14
4
15
22
22
1
3
14
14
16
-2
-8
-7
1
15
-11
-25
0
-7
-12
18
20
19
-6
8
9
-13
-7
5
-9
-5
-2
-9
-18
-19
7
5
2
-8
-8
-11
-24
-2
-24
-9
-13
-18
-27
-12
-10
16
14
11
-8
-14
0
-14
-8
-9
-5
-14
1
-18
-10
-14
-22
2
2
3
6
-11
6
6
-18
-24
-21
-3
8
-4
-16
8
-10
-10
-11
-14
0
-2
-5
4
9
21
24
-9
-9
-12
2
-6
7
18
-11
-1
-18
-1
-2
8
-19
0
-2
-17
9
13
-2
-5
-11
-5
-17
-19
2
-6
-9
2
-22
-9
-13
-11
-9
-3
-4
0
1
-3
6
0
-2
5
-6
-29
-3
4
9
-9
-19
-23
-15
-3
-9
0
9
-8
6
8
-5
-13
7
10
5
-6
9
-13
-4
-5
-3
-2
-5
-3
-12
3
14
-14
-10
-11
-14
-8
1
-14
-9
-7
1
-17
-19
-7
-16
-15
-20
-25
-3
-1
-13
7
-4
-22
6
-18
-23
-20
-15
-2
-16
-15
-7
-27
-27
-19
-26
-23
-32
-39
-38
-18
2
7
28
52
71
85
105
129
154
137
121
106
64
51
26
11
8
6
-12
-16
-17
-11
-14
-16
8
-19
-10
-15
-7
1
6
-15
-11
-42
-36
-39
-21
-17
-17
-13
-17
-8
-23
-11
-16
-19
-9
-17
-2
-17
-21
-19
-12
-25
-17
-19
-22
-24
-3
-1
-18
-13
-29
-23
-8
-23
-36
-12
-16
-13
-20
-8
-13
-17
-22
-6
-9
2
-27
-26
-11
-18
-30
-6
-13
-23
-25
-6
-9
-20
-2
-10
-16
1
-11
-7
-20
-15
-4
4
0
1
29
25
-13
-10
3
0
11
1
-2
2
21
6
8
9
1
14
6
3
18
6
13
14
26
5
4
-2
4
22
10
17
-1
7
-1
5
0
14
4
6
22
7
9
11
-22
-21
-28
-23
-17
-3
-15
-2
-5
-12
-18
-2
-16
0
-8
-6
-26
-1
-28
-15
-16
-10
-19
-15
-11
-29
-23
-25
-20
5
7
-7
-7
-23
-23
-22
-9
-17
-9
-10
-32
-19
-24
-14
-13
-12
-12
-19
-36
-24
-18
-24
-15
-7
-9
1
-9
-12
9
-37
-32
-16
-5
-12
-25
-20
-28
-18
-18
-12
-13
-18
-5
-9
-6
-23
-10
-15
-3
-12
-26
-22
-5
2
-2
-19
-21
-9
-5
-15
-16
-17
-21
-23
-19
-7
-3
-19
-5
-15
-21
-11
-7
-24
2
-2
-10
-15
-13
-29
-21
-10
-13
-17
-8
-13
-14
-14
-21
-12
-12
-31
-11
-15
-11
-2
-8
-24
-25
-19
-19
-1
-1
-3
-4
-25
-10
-4
-23
-23
-10
-6
-19
-16
-17
-6
14
3
-25
-26
-21
-9
-2
-15
-6
-6
-3
-11
-10
-7
-23
-10
-33
-33
-12
-8
-19
-18
-12
-9
-26
-25
-37
-18
-12
-22
-19
-23
-29
-29
-31
-37
-21
-17
-2
0
-9
-9
-15
-18
-13
-17
-9
-19
-26
-24
-16
-22
-25
-34
-46
-37
-33
-33
-26
-15
7
50
61
81
82
109
110
137
137
117
82
60
42
1
3
-7
-24
-7
-20
-23
-29
-22
-23
-10
-16
-27
-16
-7
-18
-19
-10
-61
-31
-7
-32
-20
-26
-30
-14
-18
-37
-38
-34
-18
-21
-14
-27
-25
-14
-15
-27
-17
-24
-32
-29
-24
-15
-31
-16
-25
-21
-24
-32
-34
-14
3
-5
-26
-27
-31
-32
-29
-19
-15
-24
-23
-28
-26
-20
-27
-34
-23
-20
-8
-10
-9
-11
-40
-28
-40
-16
5
-9
-25
-20
-19
11
-16
-22
-13
-5
-4
-10
-26
-3
4
-16
1
0
-8
-10
2
-1
-2
3
17
-1
19
10
7
0
6
3
-4
1
12
15
12
4
6
10
-11
10
-9
-2
-2
-4
-12
-18
-1
3
-8
-8
-10
-11
-13
-24
-11
-16
-2
-19
-26
-31
-12
-6
-13
-21
-27
-25
-23
-36
-16
11
-35
-18
-21
-25
-8
-13
-24
-39
-34
-28
-22
-32
-21
-34
-20
-24
-27
-32
-30
-25
-25
-8
-16
-20
-17
-42
-24
-26
-23
-27
-10
-30
-19
-24
-24
-21
-24
-31
-29
-13
-8
-19
-11
-15
-33
-14
-21
-28
-22
-40
-32
-33
-16
-15
-5
-5
-29
-31
-36
-18
1
-8
-3
-17
-8
-12
-38
-22
-19
-26
-18
-16
-23
1
-14
-25
-21
-17
-5
-20
-34
-34
-22
-30
-35
-10
-29
-19
-24
-27
-29
-23
-18
-20
-33
-32
-17
-11
-17
-15
-24
-3
-9
-22
-9
-33
-29
-12
-13
-8
-26
-29
-13
-26
-13
2
-29
-24
-8
-20
-22
-13
-11
0
-22
-15
-16
-11
-15
-12
-20
-28
-23
6
12
-1
-9
-37
-39
-23
-21
4
-5
-19
-35
-23
-17
-33
-34
-28
-16
-26
-21
-19
-18
-27
-24
-33
-33
-26
-7
-22
-33
-32
-29
-32
-33
-25
-30
-32
-46
-26
-25
-21
2
-17
-43
-25
-25
-42
-54
-46
-34
-39
-22
-1
20
36
74
97
104
127
144
123
118
96
43
17
6
-1
-4
-29
-23
-20
-23
-16
-14
-27
-31
-24
-44
-43
-27
-28
-18
-56
-49
-20
-22
-26
-30
-18
-21
-20
-24
-24
-43
-17
-39
-30
-41
-34
-26
-14
-16
-43
-23
-29
-39
-40
-37
-29
-23
-29
-33
-32
-32
-27
-25
-27
-28
-20
-25
-15
-32
-51
-35
-20
-23
-35
-39
-33
-28
-17
-13
-15
-21
-17
-20
-36
-18
-42
-33
-22
-11
-29
-31
-32
-26
-32
-26
-26
-14
2
-17
-28
-4
-15
-22
-27
-24
-11
-14
-14
-4
-7
4
8
10
-7
12
13
-5
-18
-18
-2
-4
-5
6
-18
-4
0
-7
2
4
-2
-7
-29
-9
-13
3
-6
-13
-7
-11
12
-2
-21
-27
-15
-19
-35
-28
-23
-17
-26
14
-21
-28
-16
-21
-36
-24
-19
12
-22
-30
-67
-32
-36
-23
-15
-19
-19
-27
-35
-40
-30
-37
-18
-13
-23
-17
-44
-38
-26
-17
-36
-31
-6
6
-32
-33
-44
-36
-44
-35
-32
-34
-32
-35
-30
-22
-28
-43
-35
-29
-41
-27
-17
-30
-44
-38
-30
-19
-23
-22
-20
-20
-21
-23
-11
-23
-24
-25
-32
-26
-35
-39
-29
-30
-8
-8
-26
-24
-9
-18
-20
-46
-37
-21
-25
-19
-48
-48
-17
-20
-40
-36
-37
-25
-14
-21
-19
-22
-31
-20
-30
-29
-48
-38
-21
-25
-40
-17
-16
-42
-43
-20
-21
-15
-38
-28
-21
-38
-19
-25
-36
-17
-12
-30
-27
-28
-16
-37
-38
-19
-23
-26
-18
-4
-18
-9
-37
-25
-21
-12
-13
-30
-16
-22
-25
-37
-26
-19
-32
-31
-41
-34
-22
-3
7
-15
-29
-53
-39
-30
-53
-17
-25
-33
-35
-42
-44
-39
-34
-30
-33
-26
-27
-36
-26
-24
-44
-37
-30
-44
-35
-27
-36
-37
-25
-27
-46
-51
-61
-59
-52
-40
-15
2
19
50
69
96
109
123
116
100
108
75
31
5
14
-11
-29
-30
-36
-28
-36
-38
-26
-31
-29
-26
-49
-43
-49
-32
-29
-36
-35
-28
-45
-28
-41
-46
-48
-20
-42
-38
-37
-24
-18
-32
-31
-37
-56
-35
-45
-51
-42
-38
-29
-32
-48
-40
-55
-30
-31
-21
-29
-27
-21
-29
-43
-49
-50
-39
-37
-32
-33
-36
-24
-42
-36
-35
-27
-21
-21
-27
-34
-29
-41
-38
-40
-37
-33
-23
-33
-20
-22
-36
-32
-39
-40
-24
-23
-20
-34
-33
-23
-18
-31
-30
-10
-20
-12
-9
7
-7
-7
-16
-34
-4
31
-3
-26
9
-9
0
-6
-6
-8
-16
-20
-8
-9
6
8
-1
-23
-33
-11
-28
-21
-13
-9
-33
-35
-23
-17
-31
-40
-43
-39
2
-35
-13
-11
-5
-30
-45
-31
-30
-26
-43
-32
-29
-28
-32
-28
-28
-50
-48
-46
-23
-27
-29
-26
-36
-32
-40
-39
-39
-44
-35
-26
-23
-32
-36
-39
-35
-43
-56
-39
-33
-38
-37
-48
-50
-34
1
-36
-43
-37
-30
-44
-23
-34
-28
-17
-28
-54
-42
-43
-41
-34
-30
-11
-10
-25
-51
-42
-39
-43
-38
-35
-30
-35
-37
-30
-41
-32
-43
-54
-19
-21
-30
-37
-40
-28
-24
-35
-46
-26
-29
-16
-27
-25
-52
-29
-38
-41
-53
-26
-16
-21
-9
-46
-48
-28
-26
-33
-29
-33
-37
-26
-42
-11
-19
-20
-38
-25
-40
-38
-34
-33
-27
-34
-31
-34
-30
-28
-38
-27
-23
-29
-37
-16
-13
-30
-41
-29
-24
-35
-37
-32
-37
-27
-38
-35
-47
-50
-44
-42
-28
-40
-46
-34
-43
-54
-42
-19
-20
-44
-52
-45
-30
-36
-35
-45
-47
-54
-48
-31
-17
-38
-41
-42
-48
-62
-59
-69
-57
-27
-1
47
41
49
80
78
107
113
87
79
64
31
-3
-10
-30
-53
-41
-29
-10
-42
-51
-40
-47
-47
-42
-26
-38
-41
-22
-41
-38
-48
-42
-42
-38
-45
-52
-52
-56
-52
-38
-44
-41
-24
-39
-34
-47
-44
-60
-52
-44
-37
-42
-43
-46
-39
-37
-29
-38
-54
-41
-33
-57
-48
-53
-55
-45
-34
-42
-46
-24
-8
-33
-51
-20
-53
-49
-38
-21
-49
-35
-31
-41
-35
-36
-43
-45
-29
-39
-30
-45
-40
-22
-35
-27
-36
-18
-51
-52
-28
-26
-38
-31
-41
-18
-6
-16
-23
-27
-26
-28
-16
-13
-29
-19
-16
-13
-17
-13
-13
-9
-12
-33
-11
-4
-27
-8
4
-29
-27
-18
-18
-30
-26
-17
-16
-34
-40
-28
-34
-24
-27
-31
-17
-37
-47
-27
-35
-37
-34
-30
-33
-26
-23
-47
-30
-48
-59
-65
-43
-22
-27
-42
-40
-29
-53
-40
-34
-52
-55
-54
-39
-13
-34
-54
-45
-36
-45
-58
-37
-31
-39
-29
-62
-69
-57
-58
-34
-25
-29
-29
-47
-52
-40
-50
-50
-60
-40
-27
-33
-46
-45
-42
-35
-35
-36
-62
-45
-35
-25
-46
-31
-32
-33
-48
-39
-46
-50
-36
-35
-41
-31
-19
-44
-21
-39
-41
-64
-57
-50
-36
-24
-30
-29
-37
-38
-43
-41
-34
-24
-30
-39
-40
-22
-37
-46
-67
-35
-35
-19
-14
-43
-30
-47
-53
-53
-46
-35
-37
-34
-40
-34
-40
-36
-35
-33
-52
-31
-27
-34
-36
-57
-30
-33
-27
-32
-40
-55
-24
3
-46
-39
-27
-10
-28
-33
-36
-43
-27
-42
-58
-24
-49
-48
-42
-42
-42
-46
-43
-41
-31
-49
-40
-35
-48
-54
-39
-29
-39
-41
-47
-41
-48
-36
-35
-44
-53
-32
-34
-46
-67
-50
-57
-65
-43
-49
-30
-30
1
37
57
71
88
105
125
97
87
57
43
34
4
-37
-30
-42
-52
-63
-32
-21
-25
-30
-12
-54
-60
-50
-58
-47
-42
-33
-32
-27
-49
-54
-45
-58
-53
-24
-43
-50
-43
-30
-35
-42
-62
-54
-42
-30
-55
-47
-47
-24
-34
-30
-41
-46
-51
-43
-55
-52
-21
-30
-46
-54
-58
-52
-66
-48
-30
-47
-42
-30
-54
-43
-39
-43
-45
-29
-37
-56
-62
-24
-29
-34
-16
-37
-54
-35
-35
-48
-26
-36
-52
-35
-34
-30
-26
-15
-40
-42
-39
-43
-36
-27
-22
-24
-14
-11
-22
-26
-36
-26
4
-3
-31
-27
-26
-17
-11
4
-15
-21
-14
-10
-12
3
-19
-30
-30
-14
-23
-28
-34
-25
-14
-16
-17
-43
-26
-33
-30
-20
-50
-20
-33
-25
-22
-51
-47
-44
-28
-16
-51
-49
-48
-29
-30
-52
-49
-45
-39
-45
-34
-36
-49
-40
-23
-50
-46
-38
-44
-41
-49
-46
-49
-58
-60
-38
-46
-35
-40
-29
-55
-49
-41
-21
-34
-61
-56
-42
-49
-39
-51
-49
-51
-39
-60
-43
-46
-47
-38
-30
-33
-33
-27
-43
-56
-42
-62
-50
-27
-30
-40
-13
-29
-57
-51
-40
-32
-35
-50
-42
-26
-40
-34
-40
-40
-41
-45
-26
-45
-52
-49
-48
-37
-38
-39
-43
-50
-41
-38
-40
-34
-23
-15
-37
-53
-19
-45
-35
-35
-40
-28
-38
-41
-45
-43
-58
-28
-26
-46
-36
-22
-34
-24
-20
-20
-36
-45
-23
-24
-52
-28
-33
-26
-30
-47
-41
-21
-26
-39
-7
-16
-47
-38
-35
-40
-36
-41
-59
-48
-35
-32
-33
-39
-59
-46
-27
-39
-43
-31
-28
-45
-31
-33
-36
-61
-46
-45
-36
-20
-41
-52
-36
-36
-53
-48
-34
-27
-42
-53
-46
-62
-65
-51
-57
-68
-53
-23
-7
13
29
47
68
112
114
109
99
88
66
33
7
-29
-45
-34
-28
-46
-56
-17
-31
-61
-41
-2
-23
-54
-45
-45
-39
-43
-36
-43
-63
-52
-53
-54
-59
-55
-38
-45
-49
-48
-42
-49
-51
-49
-48
-38
-52
-62
-43
-16
-42
-49
-21
-30
-46
-38
-38
-53
-53
-49
-56
-25
-43
-43
-40
-50
-51
-44
-47
-26
-40
-31
-54
-55
-52
-45
-40
-50
-31
-41
-34
-17
-45
-46
-42
-46
-35
-35
-26
-38
-40
-27
-35
-48
-14
-15
-13
-45
-48
-25
-28
-30
-32
-30
-27
-6
-23
-20
-26
-25
-12
-13
-18
-19
-17
-24
-9
-1
-14
-19
-9
-18
6
9
-20
-16
-12
-2
-15
-17
-21
-41
-20
-28
-33
-16
-26
-10
1
-18
-34
-37
-29
-36
-35
-33
-38
-9
-47
-35
-57
-51
-41
-42
-31
-40
-32
-27
-7
-25
-69
-60
-44
-32
-35
-49
-36
-30
-16
-23
-28
-56
-53
-37
-49
-50
-42
-51
-36
-34
-53
-55
-42
-47
-38
-51
-31
-58
-50
-48
-29
-37
-30
-44
-52
-57
-38
-32
-42
-47
-57
-37
-33
-13
-48
-44
-35
-22
-41
-14
-44
-48
-37
-41
-44
-41
-50
-40
-46
-43
-40
-45
-36
-29
-39
-37
-26
-35
-39
-55
-40
-58
-40
-37
-57
-22
-13
-53
-39
-49
-36
-41
-43
-34
-43
-34
-39
-42
-37
-34
-27
-31
-46
-32
-49
-35
-33
-27
-43
-34
-33
-39
-24
-25
-28
-35
-36
-35
-46
-26
-25
-29
-30
-49
-43
-40
-18
-14
-26
-27
-36
-25
-35
-61
-45
-44
-31
-38
-28
-50
-49
-54
-52
-26
-35
-40
-35
-56
-57
-42
-46
-42
-42
-47
-30
-19
-41
-37
-32
-30
-30
-40
-71
-61
-58
-35
-46
-41
-30
-41
-50
-40
-57
-68
-77
-53
-59
-65
-54
-31
-7
15
34
52
79
103
117
128
110
87
64
35
12
-5
-17
-33
-35
-48
-70
-32
-2
5
-61
-56
-41
-38
-42
-54
-50
-31
-44
-56
-58
-57
-57
-52
-49
-44
-51
-44
-46
-37
-51
-42
-42
-40
-31
-43
-44
-48
-57
-46
-39
-39
-25
-43
-54
-40
-42
-53
-39
-53
-36
-56
-48
-25
-47
-59
-45
-41
-48
-57
-44
-47
-48
-39
-46
-35
-42
-39
-51
-43
-39
-30
-29
-35
-30
-41
-48
-40
-34
-25
-29
-40
-42
-35
-14
-31
-33
-22
-35
-31
-45
-14
-32
-29
-12
-11
-16
-37
-24
-24
-17
-22
-8
-9
-23
-17
-12
-5
-3
-20
-15
2
-15
-9
-27
-13
-7
-16
-12
-16
-10
0
-30
-27
-22
-34
-39
-31
-28
-31
-44
-27
-33
-28
-37
-32
-17
-37
-40
-39
-41
-39
-31
-29
-37
-27
-44
-42
-56
-50
-38
-43
-32
-25
-47
-40
-36
-41
-35
-36
-63
-48
-19
-38
-39
-48
-44
-57
-53
-24
-39
-46
-48
-23
-53
-63
-40
-33
-36
-57
-60
-32
-34
-30
-45
-62
-51
-48
-14
-52
-54
-37
-43
-32
-29
-48
-55
-50
-32
-44
-37
-45
-58
-38
-26
-34
-44
-48
-49
-24
-31
-39
-32
-39
-23
-26
-46
-53
-42
-44
-51
-56
-21
-38
-21
-32
-43
-43
-38
-31
-43
-48
-44
-55
-49
-18
-32
-43
-52
-34
-24
-19
-27
-31
-47
-29
-41
-47
-42
-39
-48
-23
-31
-45
-44
-10
-44
-34
-35
-22
-27
-35
-33
-30
-31
-42
-38
-32
-34
-41
-21
-38
-43
-38
-41
-41
-38
-57
-52
-37
-36
-51
-39
-43
-49
-40
-37
-45
-48
-49
-42
-43
-51
-43
-43
-37
-31
-50
-54
-46
-46
-31
-35
-57
-17
-13
-53
-53
-50
-37
-46
-54
-56
-38
-54
-79
-87
-78
-41
-22
-16
24
26
49
72
96
103
123
103
76
60
31
7
-10
-8
-34
-35
-46
-33
-49
-33
-31
-45
-33
-44
-48
-47
-51
-51
-48
-40
-51
-54
-51
-63
-52
-36
-57
-62
-58
-42
-57
-58
-36
-28
-38
-28
-40
-38
-40
-55
-59
-59
-62
-53
-39
-42
-31
-52
-57
-44
-55
-39
-51
-44
-41
-23
-61
-58
-35
-39
-38
-49
-57
-57
-41
-60
-73
-40
-42
-54
-31
-22
-31
-39
-30
-58
-47
-39
-60
-48
-49
-18
-36
-49
-20
-40
-39
-44
-37
-18
-27
-20
-19
-30
-34
-31
-24
-34
-26
-16
-23
-28
-38
-16
-5
-25
-35
-21
-9
-19
-8
-6
6
-3
-21
-22
-23
-14
-25
-7
-21
-30
-30
-13
-14
-27
-23
-21
-28
-31
-16
-33
-35
-43
-37
-44
-14
-44
-46
-36
-38
-37
-33
-41
-42
-42
-60
-57
-37
-48
-48
-43
-50
-40
-39
-48
-53
-42
-37
-28
-46
-47
-25
-50
-42
-49
-51
-48
-45
-32
-43
-55
-44
-41
-33
-56
-38
-53
-50
-47
-44
-36
-40
-54
-71
-50
-42
-42
-32
-27
-45
-44
-46
-50
-51
-45
-40
-38
-50
-53
-47
-31
-23
-37
-56
-39
-23
-38
-54
-54
-44
-29
-10
-63
-42
-39
-48
-47
-50
-36
-44
-43
-36
-42
-51
-40
-45
-39
-46
-37
-14
-56
-38
-39
-57
-50
-48
-52
-37
-30
-41
-43
-48
-52
-24
-59
-65
-58
-52
-39
-42
-39
-31
-40
-25
-20
-27
-35
-43
-49
-30
-39
-32
-20
-23
-29
-37
-48
-28
-39
-49
-50
-32
-49
-32
-50
-44
-53
-32
-27
-25
-47
-54
-57
-74
-56
-56
-54
-30
-39
-45
-21
-29
-56
-47
-40
-57
-50
-60
-65
-39
-51
-37
-50
-61
-54
-49
-56
-37
-36
-29
-48
-57
-67
-61
-72
-59
-48
-41
-14
-12
23
52
55
88
110
104
106
93
80
25
7
-8
-42
-34
-22
-32
-39
-37
-41
-53
-42
-19
-15
-57
-52
-53
-51
-42
-43
-58
-40
-53
-50
-52
-51
-48
-48
-36
-55
-39
-39
-34
-58
-56
-53
-50
-57
-48
-36
-41
-35
-43
-59
-60
-49
-45
-49
-41
-41
-42
-48
-34
-23
-45
-54
-39
-55
-38
-39
-35
-39
-58
-44
-36
-40
-47
-43
-40
-28
-41
-32
-37
-30
-33
-48
-52
-59
-39
-23
-43
-44
-42
-30
-46
-46
-33
-26
-41
-18
-27
-20
-27
-21
-28
-33
-30
-16
-22
-10
-18
-11
-23
-32
-31
-22
-19
-11
-14
-5
-6
4
-1
0
-3
-2
-9
-11
-14
-34
-25
-14
-22
-27
-26
-41
-21
-17
-33
-21
-39
-10
-6
-26
-30
-38
-37
-30
-15
-22
-28
-51
-60
-49
-22
-32
-39
-39
-33
-34
-33
-26
-27
-34
-35
-36
-47
-38
-31
-47
-40
-39
-35
-44
-63
-56
-31
-45
-16
-27
-12
-46
-51
-57
-31
-36
-34
-29
-38
-22
-32
-34
-51
-33
-41
-59
-42
-19
-35
-19
-24
-36
-53
-42
-50
-36
-40
-39
-32
-36
-22
-26
-44
-40
-40
-51
-36
-24
-33
-19
-23
-26
-41
-33
-33
-42
-16
-22
-40
-40
-18
-33
-22
-27
-33
-41
-43
-34
-34
-25
-25
-30
-33
-17
-22
-46
-36
-26
-38
-10
-33
-39
-51
-41
-44
-33
-14
-34
-26
-39
-28
-33
-28
-29
-30
-35
-38
-21
-10
-17
-45
-36
-25
-24
-24
-16
-13
-26
-20
-2
-27
-26
-31
-29
-29
-16
-22
-39
-28
-33
-21
-40
-40
-32
-38
-36
-16
-17
-38
-38
-23
-14
-27
-35
-32
-23
-40
-49
-50
-35
-18
-26
-30
-22
-48
-30
-38
-23
-16
-24
-35
-43
-33
-4
-35
-54
-63
-23
-15
-28
-36
-46
-57
-53
-46
-26
-14
6
20
42
79
79
102
117
136
126
95
86
50
24
13
-10
-25
-20
-15
-17
-32
-36
-18
-16
-24
-55
-31
-17
-19
-38
-25
-29
-15
-35
-35
-46
-31
-17
-37
-41
-24
-38
-40
-34
-23
-17
-37
-44
-19
-18
-29
-16
-20
-23
-20
-32
-61
-31
-33
-26
-15
-44
-40
-21
-35
-39
-14
-35
-11
-6
-10
-43
-38
-27
-32
-31
-32
-16
-7
-22
-35
-26
-28
-29
-24
-21
-31
-19
-21
-10
-13
-15
-31
-26
-14
-19
-14
-16
-21
-23
-13
-8
-16
-5
-5
-7
-9
-24
-12
2
4
-1
-1
3
6
-7
1
18
11
-1
-6
18
0
8
-3
7
6
17
-1
11
-2
15
15
14
8
-5
-2
-3
-16
-1
11
-1
-14
-15
-10
-11
-17
-18
-16
-12
-14
-17
-13
-14
-5
-25
-38
-29
-11
-6
-5
-7
-9
-21
-12
-29
-13
-25
-18
-15
-29
-21
-9
-7
-17
-34
-13
-14
-19
18
-11
-15
-28
-30
-26
-21
-10
-19
-14
-20
-23
-37
-20
-18
-8
-1
-20
-18
-11
-23
-28
-13
-21
-20
-8
-25
-35
-28
-9
-9
-16
0
-8
-3
-9
-9
-9
-15
0
-13
-23
-28
12
-12
-29
-24
1
-10
-1
-15
-21
-23
-16
-17
-8
-7
-17
-8
-4
-12
-13
-14
-20
-18
-13
-5
-5
-30
17
0
-5
-12
-15
-6
-16
-7
1
-25
-18
-13
-9
-11
0
-12
-10
2
-2
-2
-10
-3
12
-7
-4
-19
-11
4
-9
7
2
10
-16
-19
13
-2
-2
-17
-3
11
6
17
-9
-4
9
-14
-3
7
-3
1
6
0
-6
-10
-6
-2
-12
-6
-14
-15
-9
-17
-20
16
0
-5
-8
-10
-22
-14
-14
-32
22
15
-1
8
-13
5
9
-14
-7
-14
0
-16
-10
-12
-12
-13
-9
-4
-15
-24
-19
-33
-26
-6
-18
15
33
64
80
109
126
124
144
161
138
122
106
70
37
23
2
2
-1
3
-7
9
20
-1
-12
-6
9
14
-15
-16
-21
-18
-21
-12
-2
-7
-14
-9
-4
-15
-6
-8
-8
11
8
-21
3
10
7
-22
-7
-11
-20
0
20
15
3
-6
-17
-11
-15
15
-11
5
7
6
11
-24
-12
-3
-12
-12
10
0
-1
15
1
-9
-13
-7
4
5
-9
7
-5
-23
5
-1
-2
10
2
8
-7
-14
7
13
14
8
-3
7
10
27
14
4
14
21
15
43
34
14
12
12
9
34
35
19
28
17
16
35
35
35
30
32
33
19
35
22
45
28
19
23
13
26
27
48
33
11
24
22
20
24
26
24
17
10
18
-25
1
19
14
-9
-10
8
19
29
3
19
2
6
6
-4
-3
18
17
15
3
-2
-9
17
5
-7
3
0
6
9
15
2
10
6
7
-2
5
40
-1
2
2
-3
-10
5
5
-16
-4
3
-4
25
2
-5
-2
12
21
-7
-1
18
7
-8
6
16
5
15
11
-4
2
2
7
15
22
8
2
25
-1
-6
-10
5
21
-6
-5
4
31
14
-10
1
23
17
11
-5
21
6
-7
19
4
-6
11
8
6
10
24
7
18
6
8
3
15
21
3
-4
0
-4
16
14
4
13
9
1
17
10
14
-1
6
9
18
4
17
21
25
2
-1
8
9
29
16
15
-9
3
20
51
17
19
22
13
18
24
29
15
4
9
17
23
6
10
12
14
29
-2
15
14
10
8
17
1
1
4
8
10
10
28
4
-3
3
6
15
10
11
10
12
16
-3
4
8
12
-3
7
19
6
10
9
8
-1
-4
5
11
10
-3
-1
9
-1
-13
-8
7
9
36
79
99
88
103
124
157
163
181
162
150
114
63
30
25
37
22
6
25
-3
0
12
12
5
19
8
-1
12
-6
0
0
13
9
1
-13
-4
0
-8
-9
-3
3
2
-1
3
6
9
-5
2
12
-27
9
-2
7
0
9
-5
-2
8
12
1
-1
6
18
-3
9
17
5
15
6
5
18
15
7
-8
0
13
27
9
-10
4
8
5
0
25
6
-4
5
-7
4
25
3
25
0
12
28
2
-4
11
-3
22
12
32
43
11
14
32
48
17
34
34
27
38
30
22
28
37
44
50
39
33
40
43
33
29
38
35
30
33
24
36
38
35
39
42
27
26
9
28
32
26
9
27
15
18
19
18
35
28
12
20
21
31
18
21
9
13
19
34
13
7
0
4
-1
12
18
5
2
2
11
12
5
14
3
6
10
-8
6
-4
20
13
13
16
1
-2
16
8
-5
-1
16
3
9
24
-7
-1
9
4
0
15
7
-12
29
11
3
-1
23
-4
0
2
4
-22
3
19
15
18
23
23
13
-1
-10
-2
12
2
20
18
20
-1
-5
26
10
16
25
8
13
2
-1
8
14
8
18
7
9
10
4
22
9
6
17
1
8
5
5
0
9
18
15
11
-5
-12
-12
25
20
-3
6
20
32
7
21
12
16
13
13
9
14
27
19
8
-4
25
30
10
8
8
24
17
36
19
0
1
16
24
29
41
20
-4
10
22
20
11
-2
20
37
12
-11
2
3
19
13
18
6
-5
-2
13
7
8
6
1
6
-4
0
11
-12
3
13
3
9
6
11
-8
-6
22
4
4
13
3
22
4
-7
-12
-9
-7
-2
-27
-9
17
25
28
44
65
100
123
135
152
161
176
148
92
71
54
36
31
18
14
3
20
9
12
-3
9
18
17
2
2
8
-15
-3
-2
-4
-9
19
16
17
-21
-11
-5
2
5
-2
12
9
11
13
-10
-10
4
-16
-8
0
13
19
12
-12
-7
15
3
-20
-6
-1
1
13
2
-1
6
0
21
9
-1
20
5
0
12
21
13
-3
7
20
13
6
1
10
7
8
9
3
8
13
-11
18
14
-3
23
4
4
15
9
-1
11
28
7
16
22
8
51
36
18
-2
21
33
44
45
45
54
19
29
35
48
37
25
36
50
53
52
21
19
31
14
8
15
28
43
34
21
39
22
27
3
24
14
16
31
15
29
38
9
0
14
13
1
14
18
6
-4
5
4
7
4
9
19
8
-16
-12
8
9
6
1
4
7
6
-12
24
7
5
-5
-2
4
6
1
-9
0
-2
15
6
-1
-6
-1
-8
20
2
-15
1
15
-1
-16
-12
3
-3
2
-2
9
10
21
14
12
9
-6
-3
0
1
20
14
0
-1
-5
-1
9
6
37
35
-3
8
18
5
-6
6
7
-9
-15
-9
5
9
3
9
11
1
4
1
5
-3
16
9
-2
5
4
2
4
0
1
11
27
7
-7
17
25
21
-15
10
-5
20
17
13
-14
1
2
25
12
16
11
7
20
18
10
6
-4
8
8
24
14
0
-3
23
17
23
14
10
8
16
7
-11
7
4
9
-11
-2
5
-2
0
3
1
-11
6
0
2
10
15
-4
9
7
-14
9
-5
12
9
4
-16
-17
8
5
3
21
11
-6
3
-16
-11
2
1
-6
-14
2
-20
-30
-1
23
10
49
64
78
103
121
144
135
140
135
101
67
54
34
7
12
13
4
-1
9
31
6
-12
-20
-2
3
11
15
11
20
9
-12
11
-10
-25
-5
-3
3
-11
-2
-10
-5
-11
-24
-17
-1
-10
-11
0
-9
-6
11
-8
-9
-1
-14
-12
-10
-2
-4
9
7
19
-28
-18
-12
12
1
-8
-10
-6
-4
1
-14
-19
3
2
21
1
-14
-4
7
-8
-6
8
0
-10
0
11
12
-3
14
-5
12
4
6
18
12
-4
0
16
13
7
3
8
15
29
10
22
19
28
22
27
20
23
18
15
35
26
24
21
25
43
29
4
33
30
14
13
8
29
26
27
31
15
0
12
24
20
36
18
3
15
22
2
0
9
5
-8
3
25
-3
-5
1
-4
4
12
3
3
1
13
6
-12
-26
-4
1
-1
2
1
-10
-4
11
-20
0
8
-7
-6
4
1
-2
-3
-12
-1
2
-1
2
5
-3
-12
-5
0
2
1
-22
-8
12
2
-20
-15
3
17
11
-13
-13
4
3
12
-15
-1
25
1
-4
0
-3
4
-1
-2
-11
-5
1
-9
-13
17
12
6
4
5
-11
15
5
15
24
12
-12
-2
6
12
13
-7
-10
7
11
15
-2
10
7
11
10
-7
9
22
-5
-18
0
-1
-5
-3
-20
-4
-29
-8
24
9
10
10
29
24
19
15
14
11
3
-14
15
29
-2
1
8
20
5
-9
-7
1
6
7
10
-2
-6
-20
8
22
-15
-20
5
15
-7
-13
4
-9
-9
-8
-29
-22
-19
-23
6
8
5
19
2
5
-26
-15
-2
2
12
-7
-16
-14
-14
-6
6
-2
-17
-15
17
0
19
24
55
86
100
108
123
136
156
129
114
64
44
38
28
6
3
4
9
10
16
-3
3
-8
-25
-10
16
-12
-5
17
-19
-20
1
-6
-7
-17
0
-7
-26
-16
-4
1
-19
-32
-32
-5
8
-3
-16
-14
-16
-7
-11
-25
-16
-3
-15
-8
-20
-6
-16
-19
8
7
-1
-17
-15
-2
-15
-10
-5
-14
-6
-6
-13
-2
3
11
-15
4
1
-5
0
-18
-22
-7
-2
-15
-5
10
-13
-6
-4
-7
-28
-36
21
6
31
25
4
-7
10
-2
5
-3
-10
0
20
29
13
0
25
30
19
4
-5
33
25
28
23
-2
6
6
6
13
23
14
4
18
9
-1
24
-4
-10
26
26
31
5
8
6
0
-13
4
-5
3
16
0
4
5
-17
-7
-3
12
14
-4
-3
-16
-15
-12
-6
3
-4
-14
-15
-6
-2
-9
-7
4
-27
-16
-6
-17
-18
-7
-22
-17
-2
3
-13
-18
-31
-12
-16
-35
5
-3
7
0
-26
-5
-1
10
-12
0
-8
-14
14
-16
-32
-6
-1
-7
-19
-13
-3
-5
-2
-5
1
-16
-17
-7
-12
6
-6
-10
0
5
-18
-12
-13
-6
16
7
-3
-11
-24
-5
-5
-6
-17
7
6
0
-7
7
7
-19
5
-1
7
4
-7
11
16
-11
-8
-1
14
-2
-2
6
5
-10
-13
1
5
-13
25
5
7
-1
6
6
2
11
-4
9
-10
-6
-5
-22
-20
16
13
-32
-13
14
5
-11
-10
-15
-10
12
2
-7
-9
-17
-2
-14
-6
-7
-15
-12
0
8
-23
-26
3
-30
-11
-9
-10
-10
-23
-44
-34
-37
-34
-21
-27
20
55
75
84
119
133
155
163
153
144
116
87
41
34
34
5
2
9
-24
-5
-11
2
-5
-6
8
-3
-9
-25
-5
-15
-14
-7
0
-6
-38
-30
1
-11
-8
-23
-27
-21
-4
-4
5
-7
-10
-23
-13
-13
-1
18
-18
-13
-17
-7
-17
3
-5
-20
-26
-8
-9
-3
-6
8
0
-19
-20
-4
-1
-1
-23
-15
-5
-2
11
4
-15
-13
-9
4
4
-9
-20
-11
-16
-2
13
7
9
1
-4
-2
7
1
-12
4
9
5
-14
6
12
-1
30
0
5
22
15
16
27
19
19
12
33
23
6
12
32
37
32
21
32
27
14
30
19
13
25
27
7
18
7
5
8
39
17
5
8
-3
11
6
20
19
1
-16
-2
-9
-5
-3
7
-3
-9
-2
-4
12
7
-8
3
3
-17
-24
-22
-7
7
15
5
14
-24
-21
4
-10
1
-7
-7
-16
-7
-12
-8
2
6
8
-23
-13
-11
0
2
-26
-15
-3
-5
12
1
-9
3
-9
-16
-4
-15
-16
5
13
5
-21
1
-1
-8
-9
0
-12
-20
-4
-2
30
-3
0
-6
6
-1
-17
8
20
3
-7
3
4
-1
15
39
-23
-26
-11
-4
4
6
11
-7
8
15
11
5
11
15
2
23
5
9
15
11
2
-1
4
-6
-3
1
7
-16
-8
0
6
-16
-11
-11
-15
-13
6
-4
-2
2
-13
-3
-6
11
-18
-9
-12
-16
-6
-9
-24
-7
5
-2
-22
-17
-4
-10
1
-20
3
-10
-19
-25
-25
-42
-40
-21
-15
-11
22
28
66
96
92
106
143
146
144
122
106
66
55
28
28
1
-25
-10
-6
-10
7
5
-3
-9
-9
6
-14
0
-4
-18
-22
-10
-14
7
6
-6
-21
0
-13
-19
1
0
3
-14
-7
3
-8
-15
-16
-30
-3
0
-11
-20
2
-1
-9
-7
3
3
1
-14
-20
-9
-6
8
-7
14
-3
-30
0
0
6
7
-17
-21
-5
-1
3
2
2
-5
10
-9
17
18
0
13
20
-11
1
5
15
-12
10
-5
17
1
1
-5
11
14
23
23
23
31
33
14
3
24
23
15
16
46
28
17
35
27
34
57
51
6
16
8
45
35
50
37
33
32
42
17
37
43
25
16
17
19
-6
20
25
2
18
28
9
37
15
-7
-2
30
10
3
11
-9
1
-1
6
16
7
16
30
14
10
-1
11
-8
-1
16
6
4
9
6
20
2
17
17
4
17
19
0
11
21
12
10
25
44
12
4
-13
-19
-7
26
11
24
6
30
22
13
14
12
14
32
23
23
15
6
15
7
11
18
12
8
24
16
30
25
1
1
18
54
43
21
24
35
23
38
33
21
35
30
18
54
33
30
25
35
30
26
28
31
30
16
23
22
34
29
28
15
24
46
41
18
21
13
9
-5
12
4
23
40
26
21
29
40
17
11
12
24
19
29
45
38
23
15
10
23
44
21
3
11
19
3
2
-5
-10
-15
6
-5
12
51
75
100
115
123
142
202
203
183
173
115
85
74
57
27
11
29
22
25
14
33
40
28
31
26
20
30
38
27
15
32
15
11
37
22
22
25
28
6
22
26
28
30
30
22
36
32
25
25
36
28
42
43
18
19
1
46
66
59
43
26
27
30
20
20
26
28
34
25
32
36
39
40
35
30
26
9
22
54
41
53
29
32
77
59
37
29
46
37
27
52
65
46
60
47
49
51
45
69
55
46
57
61
58
54
66
76
73
75
61
56
69
82
77
80
91
63
68
73
67
71
80
86
70
75
81
76
93
56
58
77
98
82
74
65
75
67
69
71
75
78
51
52
58
71
47
57
48
63
49
45
58
56
68
49
67
53
59
49
50
73
82
72
81
66
75
52
55
83
77
45
40
59
61
62
70
66
67
57
68
69
73
71
77
58
75
59
61
70
54
53
67
88
72
61
84
65
54
67
59
71
84
80
95
87
78
65
72
65
76
81
95
79
75
64
99
92
86
77
71
87
73
99
89
94
63
90
86
87
86
83
76
99
96
80
82
72
79
104
97
67
80
94
89
79
82
80
66
72
95
99
95
81
95
101
