-7
-14
-16
-19
-10
-11
-11
-10
-15
-1
-10
-10
-5
-12
-11
-6
-7
-13
-18
-10
-10
-8
-8
-15
-12
-6
-11
-7
-2
-2
-14
-18
-7
-7
-13
-7
-9
-12
-13
-9
-11
-17
-15
-20
-15
-13
-12
-14
-11
-7
-10
-15
-16
-19
-13
-14
-10
-17
-21
-11
-7
-14
-15
-15
-12
-11
-13
-12
-13
-10
-3
-12
-21
-11
-15
-14
-12
-15
-16
-11
-15
-17
-22
-22
-21
-14
-9
-13
-13
-8
-13
-9
-15
-10
-18
-19
-13
-11
-8
-15
-12
-4
-15
-11
-14
-14
-11
-5
-9
0
-9
-13
-3
7
-15
-17
-14
-10
-6
8
-2
3
-5
-5
-2
-2
-6
-6
-12
-17
-16
-12
-16
-22
-28
-20
-22
-25
-7
-12
-18
-29
-26
-22
-18
-19
-19
-11
-11
-13
-19
-23
-21
-25
-25
-23
-17
-17
-13
-5
4
5
3
18
33
54
57
60
55
54
46
45
41
10
-22
-44
-59
-47
-33
-34
-70
-97
-103
-86
-71
-57
-40
-41
-35
-28
-27
-21
-24
-24
-11
-17
-11
-19
-15
-16
-17
-5
-21
-9
-2
-18
-17
-15
-12
-14
-10
-18
-15
-3
-9
-7
-5
-7
-11
-10
-2
-14
-7
-14
-10
-6
-9
-10
-5
-5
-7
-6
0
-6
-3
2
2
-4
3
2
1
-2
0
-1
3
2
6
8
13
11
18
14
21
16
11
11
14
24
15
22
23
28
28
34
37
37
37
46
45
47
45
42
58
50
55
61
51
54
66
61
59
65
64
74
66
69
75
73
73
67
61
50
60
55
54
61
50
53
42
36
26
19
21
22
25
13
7
11
15
4
9
-4
-8
-3
-5
-7
-3
1
-8
-16
-14
-12
-11
-13
-19
-12
-12
-11
-8
-13
-17
-18
-10
-20
-12
-17
-20
-8
-17
-24
-20
-14
-13
-17
-14
-20
-18
-8
-13
-7
-15
-20
-16
-14
-15
-14
-16
-12
-7
-19
-16
-18
-23
-13
-12
-12
-12
-17
-17
-14
-20
-11
-11
-16
-19
-12
-8
-15
-9
-17
-16
-24
-18
-15
-19
-13
-3
-1
-13
-12
-20
-17
-13
-11
-16
-12
-22
-17
-4
-19
-20
-27
-21
-24
-19
-18
-15
-9
-17
-14
-22
-17
-13
-19
-19
-16
-19
-21
-28
-26
-15
-14
-18
-16
-10
-12
-21
-18
-20
-25
-24
-19
-12
-17
-28
-27
-18
-21
-27
-20
-20
-23
-16
-18
-14
-18
-16
-11
-18
-23
-27
-24
-23
-13
-21
-20
-14
-18
-26
-18
-18
-16
-23
-15
-16
-14
-9
-11
-27
-21
-17
-14
-14
-11
-8
-11
-16
-10
-11
-15
-15
-11
-2
1
-1
1
-1
4
-8
0
-15
-22
-21
-21
-24
-20
-17
-15
-19
-16
-25
-22
-14
-17
-12
-32
-21
-17
-27
-23
-27
-28
-16
-19
-17
-17
-11
-20
-21
-18
-22
-22
-15
-10
-2
11
18
43
50
51
56
54
54
50
44
48
30
-12
-41
-44
-42
-37
-38
-68
-88
-91
-77
-63
-50
-37
-38
-37
-33
-23
-20
-12
-13
-18
-22
-28
-27
-16
-17
-19
-13
-14
-14
-12
-12
-19
-9
-10
-21
-14
-13
-13
-12
-5
-10
-8
-13
-19
-15
-8
-7
-6
-9
-7
-9
-10
-13
-10
-6
-7
-4
6
4
-8
-4
-5
-5
-4
3
0
5
6
6
-1
-1
-2
5
4
8
12
14
14
14
27
14
9
7
23
24
32
31
29
38
29
32
35
38
39
46
47
47
58
63
59
52
48
62
61
57
64
63
76
67
65
61
62
66
60
60
70
64
59
59
61
48
46
44
42
35
30
37
35
28
33
11
10
4
0
3
0
1
-6
1
1
-13
-8
-7
-9
-9
-9
-10
-6
-15
-18
-17
-20
-18
-16
-11
-13
-9
-16
-16
-11
-15
-18
-13
-19
-5
-5
-28
-9
-14
-12
-15
-22
-16
-14
-13
-11
-10
-14
-10
-13
-16
-12
-10
-27
-22
-15
-14
-14
-12
-13
-23
-18
-13
-7
-9
-13
-18
-17
-11
-9
-16
-22
-16
-15
-17
-13
-14
-10
-11
-21
-15
-5
-13
-14
-22
-9
-11
-11
-7
-24
-22
-15
-20
-19
-14
-15
-22
-7
-4
-19
-22
-25
-17
-18
-19
-12
-14
-16
-23
-19
-23
-23
-12
-21
-17
-9
-19
-14
-19
-23
-25
-14
-15
-18
-16
-10
-14
-10
-19
-22
-23
-22
-27
-22
-16
-13
-16
-12
-15
-16
-23
-27
-20
-17
-21
-23
-13
-9
-17
-28
-24
-17
-17
-11
-14
-14
-7
-12
-25
-20
-14
-14
-15
-15
-21
-25
-15
-13
-15
-21
-22
-11
-4
-8
-12
-18
-1
-4
-10
-6
-6
-4
-3
8
2
-3
-7
-11
-19
-24
-21
-22
-25
-19
-18
-14
-10
-14
-14
-25
-33
-26
-18
-14
-27
-16
-10
-29
-24
-30
-20
-29
-20
-20
-14
-10
-20
-26
-24
-20
-15
-7
7
13
21
41
60
66
61
53
53
47
53
42
11
-18
-39
-36
-31
-42
-64
-86
-96
-84
-69
-53
-48
-38
-39
-31
-24
-26
-30
-19
-17
-19
-14
-12
-12
-18
-16
-14
-17
-18
-20
-20
-10
-13
-19
-20
-18
-13
-12
-9
-1
-5
-16
-9
-7
-13
-6
-13
-8
-15
-11
-8
-4
-8
-6
-14
3
1
-8
-1
-3
-3
-2
-2
-12
-9
-3
2
-1
-1
6
6
8
15
3
5
14
11
11
9
9
17
17
18
17
20
23
27
29
30
34
36
41
38
40
35
41
42
45
50
51
59
56
54
58
58
63
71
68
69
56
68
69
64
63
65
59
60
61
60
63
64
54
42
33
33
34
31
29
25
21
16
17
13
7
5
2
3
-3
-4
-5
-3
-9
-11
-16
-8
-3
-10
-18
-14
-16
-13
-17
-17
-11
-11
-18
-16
-15
-11
-12
-15
-19
-13
-20
-12
-8
-17
-18
-20
-14
-6
-17
-22
-15
-17
-12
-13
-13
-15
-10
-13
-13
-14
-17
-10
-18
-26
-16
-20
-13
-17
-10
-13
-23
-18
-14
-11
-12
-7
-21
-19
-14
-15
-23
-19
-22
-9
-13
-16
1
-16
-16
-16
-19
-19
-18
-21
-14
-15
-9
-15
-11
-12
-25
-18
-23
-14
-19
-25
-12
-13
-19
-23
-24
-20
-20
-14
-10
-18
-20
-19
-15
-26
-21
-18
-21
-22
-16
-14
-21
-20
-29
-27
-20
-24
-18
-17
-12
-20
-18
-17
-19
-23
-28
-20
-18
-21
-11
-14
-24
-20
-16
-23
-24
-19
-21
-18
-13
-19
-20
-12
-22
-18
-20
-13
-11
-21
-15
-5
-15
-11
-18
-11
-1
-11
-15
6
0
-6
-3
0
-3
-14
-20
-26
-25
-19
-25
-17
-22
-11
-20
-31
-22
-21
-24
-26
-14
-20
-15
-21
-25
-32
-26
-25
-21
-16
-23
-24
-20
-19
-23
-28
-18
-15
-25
-24
-6
4
5
10
31
43
53
61
55
47
53
50
54
24
-29
-51
-58
-46
-46
-50
-76
-93
-101
-87
-70
-61
-49
-43
-39
-31
-26
-17
-22
-25
-23
-21
-16
-17
-21
-21
-18
-16
-13
-12
-25
-18
-13
-14
-13
-11
-11
-13
-12
-12
-10
-13
-13
-10
-16
-14
-9
-8
-7
-9
-5
-12
-10
-7
-12
-8
-6
-9
-4
-4
-11
-11
-2
-5
3
-1
6
6
8
3
-4
-4
9
8
4
8
14
10
10
8
8
17
19
22
17
22
29
26
25
26
25
26
27
30
39
47
44
45
53
49
47
56
58
52
55
61
60
66
68
59
54
62
59
69
66
63
54
54
48
46
49
47
45
34
30
38
25
30
30
22
16
9
2
-1
-1
3
2
0
-3
-14
-9
-8
-8
-10
-21
-15
-13
-18
-8
-4
-21
-20
-22
-20
-16
-25
-13
-16
-22
-19
-15
-26
-19
-16
-11
-20
-18
-24
-17
-20
-22
-15
-17
-22
-19
-18
-18
-13
-22
-27
-12
-11
-24
-22
-20
-15
-17
-22
-22
-20
-21
-23
-26
-16
-17
-16
-15
-11
-12
-23
-20
-19
-15
-13
-21
-18
-10
-11
-13
-25
-19
-24
-18
-16
-16
-20
-14
-17
-18
-12
-20
-23
-18
-17
-23
-26
-14
-12
-21
-24
-19
-21
-25
-22
-12
-13
-15
-22
-28
-27
-21
-19
-24
-21
-18
-18
-25
-21
-24
-26
-24
-16
-14
-14
-24
-17
-20
-28
-27
-22
-21
-25
-27
-24
-19
-18
-13
-10
-22
-35
-21
-20
-23
-18
-24
-14
-21
-22
-21
-16
-19
-26
-24
-26
-23
-13
-16
-20
-25
-23
-22
-19
-15
-19
-23
-8
-14
-30
-18
-26
-19
-10
-14
-18
-15
-10
-8
-14
-17
-22
-11
-13
-13
-2
-7
-5
0
-9
-9
-12
-15
-23
-23
-23
-19
-14
-18
-19
-25
-36
-23
-22
-24
-27
-23
-19
-19
-23
-25
-23
-24
-19
-25
-25
-24
-14
-19
-24
-29
-30
-22
-16
-14
-6
7
14
17
35
46
49
55
51
38
39
39
43
4
-36
-49
-45
-39
-39
-53
-77
-87
-80
-70
-59
-45
-45
-40
-35
-29
-22
-11
-13
-19
-12
-25
-29
-26
-23
-23
-22
-12
-18
-14
-26
-22
-21
-21
-18
-15
-13
-8
-12
-11
-14
-17
-10
-14
-12
-11
-10
-7
-7
-14
-18
-14
-6
-7
-7
-8
-8
-6
-6
-5
-11
-7
-9
-7
-1
-2
1
0
-1
6
5
2
7
6
4
-3
6
5
20
12
12
5
18
18
18
24
24
32
29
31
31
25
29
36
41
34
36
48
48
52
50
53
55
57
61
55
55
70
67
68
56
60
60
61
63
62
67
67
56
55
45
39
42
44
34
31
29
29
27
18
20
9
5
7
8
8
14
3
-8
-15
-15
-11
-10
-14
-15
-10
-8
-14
-5
-7
-17
-20
-17
-20
-13
-13
-19
-9
-16
-26
-27
-15
-17
-21
-15
-16
-16
-15
-8
-17
-20
-16
-19
-12
-14
-12
-10
-12
-20
-23
-16
-14
-18
-13
-12
-20
-13
-9
-15
-12
-24
-14
-14
-16
-19
-13
-14
-10
-20
-16
-19
-13
-18
-13
-16
-17
-8
-8
-15
-19
-23
-21
-21
-15
-18
-20
-15
-15
-22
-16
-15
-13
-20
-13
-15
-17
-15
-9
-20
-21
-23
-17
-17
-6
-19
-15
-12
-25
-19
-15
-23
-22
-25
-27
-10
-19
-12
-14
-17
-23
-28
-25
-20
-22
-22
-16
-17
-9
-12
-18
-25
-20
-26
-21
-20
-17
-17
-21
-19
-30
-24
-19
-22
-18
-21
-16
-16
-16
-18
-18
-27
-18
-15
-18
-20
-26
-12
-16
-22
-31
-28
-19
-17
-26
-17
-9
-5
-11
-15
-14
-10
-19
-15
-15
-10
-9
-14
-12
-19
-14
-17
-8
-10
0
4
-12
-4
-2
1
-14
-11
-11
-16
-10
-19
-24
-24
-24
-20
-24
-25
-20
-24
-15
-20
-22
-19
-20
-20
-22
-21
-21
-20
-21
-25
-27
-15
-28
-22
-18
-26
-19
-24
-9
-3
-1
12
26
38
52
60
59
57
54
47
51
38
13
-24
-37
-43
-44
-33
-60
-74
-96
-85
-67
-63
-52
-42
-34
-26
-22
-27
-19
-16
-19
-12
-18
-25
-21
-20
-15
-17
-12
-8
-21
-17
-20
-10
-17
-23
-17
-6
-15
-9
-14
-12
-12
-14
-13
1
-9
-12
-11
-6
-6
-7
-15
-14
-10
-8
-5
-8
2
-2
-1
3
-8
-10
-3
4
-11
0
4
1
3
-3
2
7
9
10
5
16
7
14
12
16
12
13
16
20
28
22
28
30
31
31
26
34
41
38
45
44
50
54
54
53
48
58
56
58
59
65
64
65
58
66
72
62
72
72
65
62
60
67
63
39
52
43
37
34
41
28
26
23
20
16
17
5
8
9
4
0
3
-5
-11
-6
-1
-8
-10
-7
-14
-9
-10
-15
-14
-21
-17
-17
-20
-16
-11
-18
-15
-18
-23
-21
-17
-17
-17
-12
-15
-17
-12
-15
-13
-18
-14
-10
-13
-12
-13
-14
-15
-22
-14
-14
-26
-18
-19
-21
-18
-5
-2
-17
-13
-16
-13
-17
-15
-19
-25
-13
-22
-14
-16
-17
-22
-7
-9
-17
-14
-15
-15
-16
-19
-17
-16
-13
-13
-16
-13
-8
-20
-22
-20
-20
-16
-19
-14
-14
-24
-13
-5
-11
-30
-18
-15
-20
-14
-25
-24
-15
-20
-18
-21
-20
-22
-14
-19
-17
-22
-19
-17
-13
-16
-23
-26
-18
-20
-23
-16
-7
-18
-12
-27
-30
-21
-17
-18
-13
-15
-13
-21
-24
-24
-24
-25
-19
-18
-15
-17
-16
-14
-12
-18
-18
-14
-22
-20
-23
-22
-20
-20
-18
-22
-21
-22
-23
-14
-13
-20
-12
-22
-29
-22
-20
-15
-14
-10
-16
-12
-11
-15
-17
-18
-17
-31
-21
-23
-26
-18
-24
-18
-16
-16
-25
-23
-15
-11
-14
-23
-24
-20
-18
-20
-24
-31
-22
-23
-24
-21
-22
-15
-13
-9
-13
-12
-1
8
16
33
48
58
63
53
53
60
35
46
15
-24
-38
-42
-32
-38
-56
-81
-92
-87
-82
-59
-47
-41
-36
-37
-34
-26
-25
-18
-12
-25
-14
-16
-18
-24
-23
-19
-15
-18
-13
-14
-13
-9
-8
-17
-27
-14
-5
-11
-9
-10
-8
-8
-11
-11
-19
-10
-5
-6
-10
-14
-5
2
0
-6
-9
-11
-8
-5
-7
-3
7
3
-5
-2
-4
-5
2
4
-2
3
7
10
3
8
12
15
5
3
13
18
11
19
30
21
19
18
23
23
32
26
35
37
32
45
36
47
50
47
45
47
64
55
57
57
51
57
58
58
62
65
72
64
62
61
62
62
55
47
50
47
52
51
37
38
39
30
24
21
18
20
18
14
7
3
-2
0
4
2
-8
-9
-10
-13
-9
-7
-9
-4
-10
-14
-20
-11
-10
-18
-19
-24
-23
-18
-18
-12
-8
-12
-17
-17
-17
-24
-21
-18
-23
-19
-12
-13
-7
-11
-19
-23
-18
-17
-23
-23
-15
-16
-8
-15
-15
-26
-19
-19
-24
-13
-15
-14
-12
-7
-10
-19
-25
-18
-19
-20
-13
-18
-12
-9
-11
-18
-19
-18
-18
-13
-16
-15
-13
-14
-16
-20
-18
-20
-9
-12
-24
-16
-19
-20
-23
-21
-10
-18
-19
-17
-23
-14
-16
-22
-23
-22
-12
-18
-11
-14
-27
-21
-19
-22
-15
-16
-20
-26
-21
-24
-16
-13
-13
-22
-24
-23
-23
-23
-19
-17
-17
-18
-20
-19
-19
-21
-22
-22
-16
-21
-18
-12
-9
-12
-21
-25
-27
-20
-15
-22
-22
-14
-22
-24
-21
-21
-18
-19
-12
-12
-14
-12
-14
-16
-14
-13
-13
-16
-19
-20
-14
-12
-8
-13
-4
-10
2
-3
0
-8
-11
-3
-9
-18
-21
-25
-18
-19
-14
-23
-31
-23
-19
-22
-23
-22
-33
-22
-20
-21
-21
-23
-26
-23
-23
-27
-22
-26
-19
-21
-28
-22
-16
-12
0
-9
10
7
21
46
54
57
56
46
31
34
32
22
-11
-44
-60
-43
-36
-36
-75
-90
-95
-83
-69
-52
-46
-38
-34
-31
-30
-24
-25
-22
-27
-16
-22
-24
-14
-20
-23
-11
-15
-18
-18
-10
-11
-20
-11
-14
-26
-18
-13
-15
-17
-7
-10
-8
-14
-17
-14
-16
-17
-6
-6
-7
-9
-1
-10
-13
-18
-5
-5
-6
-1
-3
6
3
-8
-4
-9
-6
1
-1
4
5
4
2
-1
6
11
7
13
16
17
14
22
17
18
14
23
23
20
23
26
32
40
34
30
40
42
41
46
50
52
53
55
54
59
57
55
60
57
60
67
70
73
70
64
55
58
58
57
60
56
56
55
43
29
29
22
25
20
15
11
16
16
7
5
-2
-8
-6
-3
-5
-1
-10
-3
-10
-7
-14
-17
-17
-12
-20
-9
-15
-7
-15
-23
-22
-13
-24
-17
-15
-19
-14
-11
-15
-19
-23
-20
-20
-14
-12
-11
-18
-10
-6
-24
-27
-19
-20
-18
-19
-17
-10
-17
-17
-19
-17
-16
-20
-9
-18
-17
-16
-17
-11
-18
-24
-22
-13
-8
-7
-7
-17
-15
-11
-32
-28
-27
-15
-18
-20
-10
-13
-10
-14
-15
-13
-18
-20
-18
-14
-14
-16
-16
-21
-24
-29
-17
-16
-20
-12
-23
-11
-9
-15
-13
-19
-16
-17
-21
-25
-26
-18
-21
-14
-16
-30
-24
-17
-24
-16
-18
-16
-22
-21
-24
-22
-24
-21
-23
-13
-15
-8
-22
-21
-21
-23
-20
-17
-20
-23
-18
-14
-19
-21
-20
-22
-21
-23
-25
-21
-13
-18
-17
-22
-26
-25
-20
-21
-18
-14
-20
-14
-22
-26
-17
-21
-15
-21
-28
-23
-18
-15
-16
-24
-24
-24
-19
-18
-14
-18
-21
-8
-15
-24
-27
-19
-8
-7
-16
-19
-13
-9
-12
-18
-12
-10
-9
-4
2
-3
-2
-1
-8
-8
-23
-20
-22
-24
-22
-21
-18
-21
-18
-28
-17
-21
-21
-18
-20
-24
-19
-26
-21
-16
-24
-33
-28
-25
-21
-28
-16
-13
-24
-25
-29
-19
-8
1
7
18
35
45
55
54
43
51
50
45
33
32
7
-28
-45
-44
-40
-33
-55
-77
-87
-81
-67
-57
-46
-42
-38
-31
-29
-21
-22
-23
-22
-15
-19
-21
-24
-19
-18
-14
-15
-11
-9
-17
-14
-12
-22
-20
-15
-19
-16
-15
-11
-14
-18
-25
-12
-11
-6
-12
-15
-14
-5
-6
-13
-14
-14
-6
-5
-2
-8
-13
6
1
-2
-15
-13
-1
-11
-3
-3
-3
7
10
-1
2
1
5
10
14
11
11
13
11
13
15
19
18
13
26
25
29
28
33
29
36
37
31
44
50
51
43
44
53
59
52
49
51
56
58
63
68
67
68
62
62
64
63
65
65
63
59
56
50
46
45
39
27
31
30
27
27
27
25
13
13
-7
2
2
-2
-3
-1
-6
-9
-16
-10
-16
-13
-15
-5
-12
-9
-8
-16
-19
-24
-18
-16
-19
-21
-18
-11
-7
-18
-19
-30
-19
-19
-18
-11
-20
-17
-11
-21
-22
-24
-18
-19
-23
-17
-16
-10
-11
-17
-16
-19
-25
-20
-21
-21
-20
-15
-16
-12
-17
-13
-24
-23
-13
-12
-21
-15
-16
-22
-22
-17
-12
-22
-16
-17
-14
-15
-20
-13
-20
-26
-23
-18
-18
-17
-21
-12
-12
-18
-25
-24
-21
-19
-22
-21
-16
-9
-11
-22
-28
-32
-24
-17
-21
-17
-18
-22
-21
-16
-19
-29
-19
-19
-22
-23
-23
-23
-22
-22
-28
-21
-20
-22
-20
-18
-19
-12
-18
-22
-31
-22
-23
-20
-18
-20
-25
-22
-25
-25
-28
-21
-18
-24
-20
-22
-10
-16
-21
-28
-28
-16
-12
-19
-25
-25
-23
-24
-18
-24
-30
-27
-19
-19
-23
-19
-17
-11
-18
-26
-25
-27
-15
-19
-16
-14
-14
-12
-18
-16
-11
-11
-12
-10
-2
-8
-2
-6
-4
-10
-10
-7
-10
-21
-27
-25
-21
-22
-16
-20
-25
-28
-22
-36
-23
-27
-19
-23
-29
-20
-26
-25
-24
-24
-22
-19
-22
-24
-26
-24
-22
-21
-26
-28
-22
-17
-3
1
7
11
26
51
47
51
54
54
49
41
34
5
-31
-42
-50
-40
-40
-59
-83
-90
-94
-78
-56
-50
-48
-42
-35
-34
-28
-19
-21
-25
-24
-25
-27
-25
-22
-13
-14
-10
-18
-29
-29
-25
-17
-14
-15
-15
-13
-22
-22
-19
-16
-15
-17
-8
-9
-18
-14
-10
-9
-13
-11
-16
-14
-17
-9
-8
-3
-10
-3
-4
-4
-6
-11
-8
0
-5
-2
-1
-6
-4
-2
6
13
7
1
7
0
0
10
7
5
15
5
15
18
22
24
26
21
17
25
30
31
35
43
53
44
38
38
48
51
48
52
54
59
53
59
65
62
62
61
65
57
56
63
63
62
61
49
49
56
44
38
38
41
34
32
21
16
12
12
11
7
-4
6
6
4
-3
-9
-7
-12
-10
-19
-15
-13
-14
-13
-17
-26
-25
-17
-16
-18
-14
-18
-17
-16
-22
-24
-26
-21
-17
-15
-16
-12
-18
-19
-23
-26
-19
-25
-22
-20
-22
-21
-11
-22
-14
-18
-22
-24
-22
-19
-21
-20
-8
-19
-28
-27
-20
-21
-17
-18
-16
-15
-12
-20
-21
-19
-18
-23
-28
-24
-17
-19
-17
-16
-11
-20
-15
-19
-17
-17
-22
-13
-23
-15
-22
-18
-23
-20
-23
-18
-18
-16
-16
-17
-21
-24
-22
-18
-25
-19
-16
-17
-21
-23
-24
-22
-24
-23
-22
-19
-22
-19
-23
-24
-23
-24
-16
-18
-13
-21
-20
-21
-17
-26
-30
-29
-20
-23
-30
-21
-17
-23
-24
-18
-27
-21
-25
-21
-25
-18
-24
-13
-11
-27
-22
-27
-25
-16
-19
-13
-18
-19
-22
-16
-24
-30
-19
-14
-18
-19
-13
-9
-16
-10
-18
-28
-20
-14
-5
-11
-12
-4
-1
-9
-16
-15
-13
-22
-21
-20
-25
-28
-15
-21
-18
-28
-26
-25
-25
-24
-15
-13
-31
-29
-24
-20
-28
-24
-21
-22
-29
-20
-19
-27
-34
-33
-26
-23
-18
-14
-13
7
3
11
24
47
55
48
45
45
44
45
43
5
-37
-52
-62
-52
-39
-56
-82
-100
-96
-82
-70
-57
-59
-52
-40
-29
-28
-19
-14
-33
-34
-19
-32
-24
-18
-26
-13
-8
-13
-23
-25
-19
-18
-20
-17
-15
-10
-12
-8
-16
-20
-20
-17
-15
-18
-15
-11
-9
-20
-16
-18
-15
-13
-8
-13
-14
-8
-5
-10
-8
-13
-10
-8
-6
-2
-4
-4
0
-2
-1
-6
-2
4
1
5
0
15
7
3
5
4
9
17
22
18
27
18
17
21
19
22
27
23
34
47
39
40
40
49
47
33
47
53
56
53
59
62
55
55
60
63
57
56
66
60
62
60
53
51
45
48
50
43
36
36
26
26
21
20
19
10
2
3
9
2
-1
1
-4
-14
-18
-17
-13
-17
-21
-11
-11
-16
-14
-12
-27
-31
-13
-15
-24
-22
-18
-13
-24
-26
-21
-23
-22
-20
-24
-25
-19
-16
-13
-25
-35
-26
-24
-20
-21
-19
-24
-16
-24
-21
-26
-17
-15
-22
-22
-23
-20
-16
-23
-24
-27
-26
-23
-20
-20
-8
-10
-28
-24
-27
-22
-22
-21
-24
-21
-23
-15
-20
-11
-32
-26
-24
-19
-18
-20
-19
-16
-28
-22
-25
-30
-15
-25
-20
-24
-23
-24
-24
-24
-28
-25
-22
-21
-21
-26
-22
-14
-22
-32
-28
-28
-25
-20
-26
-26
-25
-21
-22
-23
-32
-25
-27
-23
-27
-26
-26
-21
-12
-27
-31
-30
-24
-20
-23
-15
-28
-33
-29
-24
-28
-21
-27
-28
-25
-24
-24
-24
-17
-29
-31
-21
-20
-20
-24
-26
-25
-25
-22
-23
-25
-20
-22
-16
-21
-16
-17
-10
-12
-11
-17
-9
-8
-11
-8
-2
-7
-6
-8
-25
-38
-27
-32
-27
-24
-28
-17
-19
-28
-26
-30
-28
-29
-29
-26
-23
-19
-21
-28
-32
-34
-25
-25
-27
-30
-20
-21
-24
-26
-31
-26
-23
-15
-6
-8
14
29
38
47
42
46
45
41
42
40
35
0
-35
-49
-52
-43
-39
-64
-78
-93
-87
-75
-61
-46
-50
-45
-31
-31
-23
-27
-13
-11
-20
-31
-27
-22
-27
-28
-16
-20
-21
-12
-9
-18
-27
-19
-19
-20
-21
-16
-12
-13
-16
-23
-23
-16
-16
-15
-12
-12
-12
-12
-9
-15
-6
-19
-12
-11
-13
-8
-7
1
0
-6
-12
-12
-10
0
-5
0
-2
0
-6
1
6
-8
-3
2
2
6
10
15
12
3
11
13
20
16
24
22
28
29
28
29
31
30
37
38
44
50
50
52
57
45
45
51
60
56
62
62
63
63
59
62
55
63
68
60
56
60
56
52
47
40
35
35
32
34
31
22
17
19
10
6
0
6
-5
2
-8
-10
-8
-9
-7
-12
-14
-13
-11
-16
-15
-16
-17
-16
-12
-24
-32
-18
-14
-21
-20
-14
-11
-18
-29
-22
-25
-15
-17
-19
-15
-20
-16
-14
-14
-23
-28
-22
-16
-17
-20
-24
-21
-15
-19
-16
-16
-13
-21
-25
-23
-15
-10
-19
-14
-19
-20
-29
-30
-23
-19
-13
-18
-18
-20
-20
-21
-18
-26
-28
-20
-17
-14
-13
-17
-23
-29
-22
-20
-21
-16
-8
-11
-21
-22
-29
-23
-21
-29
-23
-18
-21
-17
-21
-19
-24
-15
-14
-29
-24
-22
-26
-18
-19
-26
-32
-33
-19
-19
-20
-18
-22
-16
-20
-30
-26
-22
-23
-25
-24
-19
-15
-20
-19
-23
-23
-25
-28
-29
-25
-18
-22
-25
-22
-18
-27
-17
-19
-24
-24
-19
-14
-20
-23
-24
-19
-26
-23
-22
-30
-22
-12
-20
-10
-26
-28
-20
-21
-23
-22
-24
-22
-15
-15
-13
-18
-17
-14
-19
-12
-12
-6
-4
-8
-5
-8
-5
-7
-8
-12
-12
-17
-15
-24
-31
-27
-27
-23
-18
-25
-28
-25
-24
-22
-24
-28
-25
-29
-26
-26
-26
-18
-22
-22
-27
-26
-27
-22
-20
-26
-25
-17
-17
-15
-7
-4
1
20
33
47
56
62
56
48
47
43
40
8
-25
-41
-45
-30
-32
-62
-83
-94
-89
-76
-57
-59
-51
-36
-30
-26
-25
-28
-29
-20
-22
-21
-18
-10
-21
-20
-29
-20
-17
-17
-17
-11
-17
-15
-19
-18
-21
-20
-12
-15
-15
-11
-19
-14
-10
-10
-21
-9
-16
-10
-2
-12
-5
-8
-6
-13
-14
-11
-10
-10
-5
-3
-1
1
-1
-4
-5
1
3
-9
2
7
3
4
1
3
4
11
5
12
10
6
19
19
20
19
21
23
22
28
28
37
38
44
45
42
33
41
41
49
55
50
62
67
67
56
56
64
61
60
59
67
62
65
68
56
58
58
61
58
46
51
52
42
36
30
31
27
21
24
18
5
10
7
-2
0
4
-4
-7
-8
-7
-11
-4
-11
-13
-14
-19
-10
-9
-14
-14
-22
-15
-15
-18
-22
-20
-11
-18
-27
-23
-12
-17
-17
-17
-21
-26
-18
-18
-15
-14
-20
-15
-13
-20
-22
-12
-11
-21
-21
-23
-12
-13
-10
-16
-16
-22
-20
-15
-7
-15
-18
-21
-14
-12
-26
-25
-18
-25
-13
-13
-21
-13
-9
-16
-18
-12
-15
-26
-13
-20
-20
-10
-16
-22
-23
-16
-13
-22
-28
-12
-12
-15
-12
-24
-24
-20
-20
-18
-22
-19
-15
-16
-18
-20
-16
-18
-22
-24
-17
-15
-12
-26
-25
-19
-21
-25
-23
-14
-23
-21
-8
-19
-23
-22
-26
-24
-15
-21
-20
-19
-21
-18
-26
-24
-24
-21
-28
-23
-13
-17
-19
-13
-22
-25
-21
-21
-10
-20
-14
-11
-28
-26
-23
-31
-23
-21
-20
-28
-21
-23
-15
-22
-19
-18
-19
-18
-24
-21
-19
-18
-15
-16
-22
-16
-26
-21
-18
-17
-19
-18
-11
-5
-20
-18
-8
-17
-22
-15
-10
-14
-9
-5
-3
-12
-3
1
-7
-6
-9
-9
-14
-16
-28
-28
-27
-22
-22
-17
-18
-21
-17
-20
-24
-26
-21
-20
-24
-27
-21
-22
-20
-18
-24
-27
-25
-20
-14
-21
-24
-21
-20
-22
-20
-17
-7
6
9
22
45
59
67
54
46
47
48
49
33
1
-27
-41
-31
-35
-43
-75
-90
-97
-95
-66
-61
-39
-38
-38
-39
-31
-23
-19
-24
-23
-17
-15
-16
-16
-16
-17
-21
-23
-17
-8
-16
-15
-17
-13
-17
-15
-17
-15
-16
-16
-10
-3
-5
-12
-8
-14
-9
-3
-7
-12
-12
-2
-6
-7
-14
-12
-8
1
0
-4
0
2
2
1
1
-7
2
-6
-1
3
6
8
3
5
4
4
14
10
9
18
15
22
16
24
23
16
21
23
25
31
32
40
43
43
36
35
38
49
56
50
48
53
65
54
54
58
59
60
65
62
60
64
62
65
56
58
62
61
63
55
47
55
43
38
30
31
31
35
28
17
11
19
2
-6
6
0
-1
-4
-2
-3
-2
1
-13
-20
-22
-15
-19
-20
-10
-10
-14
-13
-14
-18
-24
-18
-13
-16
-12
-17
-14
-16
-18
-21
-23
-18
-15
-11
-15
-22
-12
-15
-27
-15
-21
-18
-20
-27
-18
-13
-11
-10
-20
-18
-18
-15
-19
-18
-18
-18
-21
-15
-15
-15
-24
-16
-14
-20
-6
-15
-12
-15
-22
-24
-26
-10
-11
-15
-15
-13
-15
-10
-12
-14
-21
-18
-13
-10
-11
-24
-15
-18
-17
-22
-19
-17
-15
-20
-12
-11
-20
-19
-14
-22
-26
-23
-13
-23
-18
-18
-17
-16
-22
-21
-21
-14
-16
-18
-13
-20
-19
-18
-19
-22
-29
-18
-21
-19
-20
-23
-17
-15
-21
-21
-21
-18
-18
-15
-15
-15
-16
-15
-15
-21
-30
-23
-20
-22
-20
-20
-11
-21
-21
-20
-18
-17
-23
-15
-17
-20
-17
-15
-22
-20
-15
-12
-17
-14
-12
0
-1
-9
-12
-11
-11
-3
-4
-9
-6
-6
-10
-21
-23
-28
-20
-24
-24
-21
-21
-23
-14
-18
-17
-25
-27
-27
-26
-23
-21
-17
-22
-15
-32
-30
-24
-27
-22
-25
-18
-17
-21
-18
-21
-15
-7
3
9
29
51
51
54
51
48
38
35
36
18
-19
-41
-47
-45
-47
-48
-72
-90
-93
-82
-69
-54
-39
-47
-36
-33
-30
-25
-23
-17
-26
-21
-14
-10
-11
-28
-22
-25
-24
-24
-13
-14
-16
-17
-16
-16
-16
-18
-13
-15
-10
-5
-8
-14
-8
-17
-22
-20
-8
-13
-12
-10
-13
-3
-10
-15
0
-6
-13
-8
-11
-12
-3
-4
-5
-5
-4
2
-5
-5
2
3
4
7
2
4
5
12
8
7
9
10
17
15
16
23
13
13
19
29
25
33
39
35
36
37
29
43
45
42
48
56
59
59
50
49
53
56
62
61
62
65
65
67
56
53
54
52
51
48
48
47
47
45
36
29
33
30
24
20
16
10
12
-1
-9
-3
-7
-6
-10
-6
-7
-5
-14
-12
-11
-17
-14
-15
-21
-22
-17
-21
-20
-18
-23
-25
-23
-14
-17
-9
-15
-22
-16
-21
-22
-29
-22
-27
-21
-22
-14
-20
-23
-10
-20
-19
-23
-17
-20
-27
-22
-7
-15
-21
-23
-23
-21
-15
-19
-14
-19
-20
-16
-22
-23
-25
-19
-20
-14
-14
-16
-13
-17
-16
-17
-21
-17
-16
-22
-12
-17
-16
-15
-11
-20
-19
-20
-27
-28
-19
-17
-16
-15
-20
-26
-21
-24
-18
-22
-24
-20
-19
-15
-21
-20
-18
-11
-25
-21
-14
-19
-14
-20
-30
-27
-25
-28
-22
-15
-17
-20
-13
-26
-28
-25
-26
-23
-22
-18
-21
-26
-20
-22
-25
-24
-25
-21
-20
-19
-18
-18
-17
-24
-23
-27
-20
-22
-24
-16
-31
-16
-20
-19
-19
-18
-23
-19
-19
-20
-24
-18
-20
-30
-34
-27
-18
-17
-24
-21
-26
-17
-16
-14
-21
-22
-21
-25
-21
-15
-17
-8
-7
-14
-20
-20
-16
-12
-6
-12
-9
-8
-5
-8
-8
-6
-4
-10
-11
-13
-17
-18
-20
-24
-20
-22
-24
-23
-20
-21
-22
-20
-29
-22
-34
-27
-23
-22
-21
-21
-15
-8
-23
-29
-28
-29
-24
-30
-27
-32
-22
-11
-6
-2
7
17
32
51
61
54
42
50
48
38
43
21
-12
-41
-45
-44
-30
-39
-63
-87
-92
-81
-65
-55
-41
-31
-40
-32
-27
-24
-24
-22
-16
-21
-22
-24
-15
-15
-15
-19
-23
-23
-20
-14
-10
-9
-18
-9
-18
-20
-23
-19
-16
-17
-10
-10
-16
-11
-6
-13
-16
-14
-12
-16
-9
-10
-9
4
-9
-5
-8
-2
-3
-8
6
4
-5
0
-11
-1
-6
-3
2
4
-2
-1
5
13
9
7
-1
8
12
9
16
15
17
23
27
21
14
26
34
38
39
35
41
46
40
37
36
46
52
59
57
50
61
60
65
65
56
57
65
60
65
74
63
62
63
60
51
52
51
63
52
50
43
38
24
30
23
20
17
17
12
9
8
11
-1
-2
-12
-7
-9
-9
-3
-6
-4
-18
-12
-20
-18
-11
-13
-15
-14
-17
-15
-12
-17
-20
-24
-22
-17
-25
-18
-14
-10
-10
-14
-16
-16
-23
-26
-21
-18
-20
-11
-19
-13
-20
-20
-17
-20
-20
-18
-14
-12
-14
-25
-15
-9
-8
-21
-19
-17
-16
-14
-14
-17
-13
-16
-13
-18
-22
-21
-13
-21
-13
-15
-19
-17
-25
-15
-11
-16
-16
-15
-21
-15
-12
-19
-20
-20
-20
-16
-15
-10
-14
-17
-19
-16
-13
-12
-19
-16
-21
-21
-19
-25
-23
-25
-14
-21
-15
-20
-14
-15
-15
-20
-16
-16
-22
-22
-20
-14
-16
-14
-18
-23
-21
-17
-16
-20
-20
-17
-16
-19
-16
-16
-22
-18
-20
-24
-20
-17
-14
-15
-10
-19
-21
-18
-23
-18
-22
-18
-12
-20
-20
-23
-20
-18
-18
-22
-18
-16
-7
-13
-23
-24
-26
-18
-16
-20
-20
-17
-17
-8
-18
-14
-21
-22
-25
-19
-12
-16
-18
-21
-22
-17
-16
-9
-11
-17
-14
-11
-8
-13
-6
-9
-9
-3
-11
-3
5
-5
3
0
-11
-10
-12
-15
-16
-19
-17
-16
-16
-19
-22
-20
-25
-25
-21
-23
-27
-19
-16
-20
-22
-21
-26
-24
-23
-18
-10
-6
-12
-29
-25
-29
-23
-23
-18
-13
-11
5
5
10
26
40
55
62
54
59
46
42
46
46
0
-37
-46
-39
-27
-30
-55
-78
-88
-85
-66
-58
-48
-36
-34
-26
-22
-17
-20
-22
-25
-23
-17
-19
-8
-20
-18
-13
-5
-13
-19
-23
-22
-17
-5
-7
-14
-12
-13
-11
-15
-10
-9
-15
-16
-4
-4
-2
-2
-3
-11
-17
-12
-5
-9
-9
-4
4
-3
-11
-5
0
0
-1
-6
3
-6
2
1
7
0
0
3
12
13
5
11
18
14
10
13
8
16
23
20
25
28
32
27
18
28
31
33
32
35
47
30
42
54
51
52
57
54
50
61
65
68
66
68
68
65
59
63
63
75
66
60
68
62
59
54
54
53
52
50
42
38
35
27
21
19
26
11
8
12
11
6
7
-2
-1
-11
-7
-8
-12
-10
3
-6
-6
-9
-21
-15
-21
-20
-18
-12
-13
-13
-15
-11
-17
-20
-19
-12
-15
-14
-15
-11
-7
-13
-18
-13
-12
-15
-17
-19
-19
-15
-14
-18
-13
-23
-19
-15
-21
-14
-16
-11
-2
-8
-17
-25
-15
-16
-14
-14
-8
-11
-21
-21
-18
-15
-23
-15
-16
-9
-13
-7
-16
-7
-15
-15
-11
-20
-14
-5
-15
-17
-17
-11
-24
-21
-11
-10
-8
-14
-22
-11
-13
-19
-12
-23
-21
-15
-15
-20
-16
-14
-15
-10
-18
-23
-15
-22
-22
-14
-17
-14
-17
-17
-25
-27
-21
-13
-16
-22
-21
-19
-19
-16
-22
-21
-16
-16
-20
-16
-17
-12
-13
-17
-25
-22
-20
-18
-9
-15
-19
-17
-14
-18
-22
-14
-13
-27
-17
-13
-22
-22
-16
-21
-17
-21
-23
-23
-21
-25
-12
-11
-9
-19
-18
-16
-22
-23
-18
-15
-11
-12
-18
-19
-19
-19
-19
-17
-12
-18
-9
-9
-17
-16
-5
-9
-9
-18
-14
-18
-11
-10
-10
-8
1
-4
-4
-2
2
-1
-4
-7
-14
-17
-18
-14
-14
-19
-25
-26
-16
-6
-20
-19
-27
-17
-20
-18
-18
-18
-18
-20
-20
-17
-21
-16
-17
-25
-21
-22
-14
-21
-21
-18
-16
-5
10
9
12
29
46
56
64
60
57
51
52
67
35
-5
-34
-42
-43
-33
-38
-68
-87
-87
-85
-72
-45
-45
-32
-39
-29
-25
-27
-22
-14
-10
-7
-14
-24
-21
-13
-15
-19
-6
-20
-10
-3
-18
-14
-12
-11
-1
-14
-14
-9
-8
-1
1
-11
-14
-13
-6
-8
-7
-1
-4
-7
1
4
-6
-7
-5
-7
-3
-4
0
6
7
-4
-1
7
8
4
3
-1
10
2
8
8
6
13
12
12
7
11
22
21
21
13
13
24
23
23
28
34
34
43
36
45
39
42
41
44
49
49
54
64
60
61
55
64
63
74
58
57
66
68
69
66
61
61
63
65
63
63
59
52
48
42
38
40
35
32
34
28
23
20
13
13
11
7
9
-2
-2
2
6
-1
-3
-9
0
-10
-8
-9
-13
-13
-18
-7
-13
-10
-10
-10
-11
-4
-15
-17
-15
-12
-12
-17
-24
-13
-12
-13
-13
-9
-12
-14
-8
-20
-15
-8
-14
-8
-8
-4
-10
-8
-14
-20
-17
-13
-19
-11
-13
-13
-13
-11
-10
-17
-13
-8
-10
-17
-9
-11
-16
-12
-6
-16
-15
-8
-6
0
-8
-12
-3
0
-12
-20
-10
-19
-19
-17
-18
-7
-4
-10
-12
-19
-13
-10
-12
-8
-6
-16
-5
-1
-14
-18
-19
-16
-21
-19
-16
-7
-9
-10
-17
-22
-14
-12
-14
-16
-13
-4
-10
-10
-14
-20
-17
-14
-17
-11
-14
-11
-2
-5
-13
-26
-21
-18
-19
-20
-17
-14
-6
-14
-17
-13
-14
-15
-12
-9
-7
-14
-16
-13
-10
-17
-16
-15
-13
-17
-10
-12
-8
-15
-20
-16
-14
-4
-5
-4
-9
-14
-7
-5
-10
-15
-10
-9
3
5
-3
5
2
0
-3
-4
-6
-13
-11
-14
-21
-10
-11
-18
-18
-14
-22
-28
-19
-20
-17
-14
-13
-15
-24
-22
-15
-13
-17
-16
-9
-17
-16
-21
-20
-26
-22
-13
-17
-12
-3
9
18
25
29
52
58
59
57
49
45
47
39
22
-12
-45
-53
-43
-35
-41
-60
-83
-88
-79
-59
-50
-40
-34
-35
-27
-24
-22
-13
-18
-19
-15
-13
-17
-15
-9
-6
-11
-13
-17
-16
-17
-12
-13
-13
-12
-3
-4
-15
-15
-8
-10
-5
-6
-8
-12
-3
-4
-1
-11
-8
-5
-6
-6
2
-3
-6
-7
3
-5
-5
-1
-1
5
14
4
3
2
1
-4
-3
8
5
7
14
16
18
19
10
9
19
13
22
24
20
20
23
25
30
25
21
33
33
37
39
44
54
52
50
54
49
59
61
68
62
63
73
68
63
69
72
69
76
67
71
70
69
72
69
52
47
56
46
50
53
44
36
34
34
17
14
22
18
15
15
6
-2
2
1
-4
-6
-2
-2
-5
-6
-6
0
-1
-3
-16
-12
-14
-14
-15
-13
-9
-7
-6
-12
-10
-12
-13
-10
-5
-9
-14
-13
-9
-16
-18
-19
-15
-9
-10
-6
-11
-9
-11
-16
-11
-14
-14
-4
-6
-11
-5
-11
-18
-12
-18
-12
-10
-11
-13
-2
-7
-8
-7
-9
-12
-12
-12
-6
-6
-18
-7
-1
4
-1
-17
-19
-17
-15
-10
-10
-7
-4
-2
-10
-18
-16
-14
-11
-15
-11
-12
-13
-6
-3
-21
-18
-13
-11
-11
-13
-12
-12
-7
-8
-15
-10
-7
-10
-14
-15
-10
-11
-6
-13
-22
-14
-12
-14
-8
-9
-5
-11
-7
-19
-15
-17
-18
-21
-14
-11
-6
-13
-12
-15
-16
-13
-8
-6
-14
-10
-4
-2
-20
-26
-17
-11
-13
-16
-11
-13
-5
-14
-13
-12
-16
-21
-17
-12
-11
-7
-10
-12
-14
-15
-4
-5
-3
-5
-7
-2
-6
-7
-9
-8
-5
1
4
14
1
6
12
0
-3
-8
-5
-8
-14
-11
-22
-13
-11
-10
-11
-22
-17
-14
-15
-11
-14
-13
-4
-15
-21
-23
-20
-19
-15
-15
-11
-8
-5
-8
-17
-24
-12
-11
-21
-10
9
12
14
37
49
61
69
62
63
58
58
57
46
9
-26
-43
-30
-32
-24
-46
-72
-87
-74
-66
-55
-45
-33
-18
-17
-17
-14
-13
-14
-10
-14
-16
-4
-13
-14
-10
-17
-4
-2
-11
-13
-14
-5
-12
-10
-11
-2
-3
6
-2
-10
-12
3
0
-8
4
-4
-7
-2
-4
-4
-1
3
-6
2
0
-4
7
6
0
-1
0
1
4
2
7
9
12
10
9
4
11
11
8
17
12
15
22
22
17
13
25
30
30
29
21
33
30
36
35
32
42
43
41
50
52
53
59
56
64
58
61
62
67
62
70
71
73
78
71
74
67
72
73
77
79
77
72
65
61
56
50
49
42
47
42
38
38
30
25
24
16
17
21
11
5
15
13
1
2
-6
-6
-3
0
-2
-6
3
-5
-3
-10
-21
-13
-8
-12
-14
-6
-5
-8
-2
-8
-7
-7
-5
-2
-10
-13
-2
0
-19
-15
-12
-11
-15
-13
-11
-9
-4
-7
-4
-12
-10
-8
-13
2
-15
-13
-10
-6
-2
-8
-17
-1
-8
-16
-7
-7
-3
-3
-6
-5
-14
-10
-16
-11
-7
-1
-10
-8
-2
-5
-12
-10
-9
-17
-8
-7
-5
-3
-7
-14
-16
-17
-4
-7
-8
-14
-3
-10
-8
-12
-16
-11
-11
-9
-9
-7
-4
-3
-8
-12
-10
-23
-15
-13
-8
-14
-9
-10
-17
-18
-14
-9
-19
-8
-7
-13
-4
-10
-15
-16
-11
-16
-15
-17
-7
-8
-2
-7
-14
-17
-16
-18
-5
-3
-10
-10
-7
-16
-15
-14
-22
-9
-1
-10
-20
-9
-9
-10
-18
-20
-16
-12
-15
-18
-13
-6
-12
-13
-12
-12
-12
-14
-13
-3
-3
-5
-5
-12
-15
-16
-17
-7
-8
-11
-9
2
-11
-10
-10
-5
-1
-4
1
-4
-2
4
5
9
4
-1
5
-2
-1
-4
-13
-6
-14
-12
-13
-17
-6
-12
-13
-14
-13
-4
-9
-9
-21
-20
-16
-23
-19
-15
-19
-11
-10
-15
-14
-18
-17
-11
-14
-12
-15
-8
0
3
9
17
30
50
59
73
66
70
62
53
56
51
13
-25
-37
-32
-30
-21
-54
-76
-89
-91
-62
-58
-44
-35
-28
-12
-15
-14
-18
-12
-11
-12
-7
-8
-16
-8
-13
-9
-13
-10
-3
-9
-10
-9
-8
2
-7
-8
-4
-2
-5
-6
-5
-2
-2
-6
-8
-4
-3
-2
3
-2
1
-3
-1
6
3
-1
-1
1
8
4
2
7
9
8
14
5
9
14
4
10
5
7
18
17
22
10
12
16
15
23
33
34
30
29
27
27
24
29
34
42
41
55
52
49
52
50
50
48
49
54
66
66
64
69
72
78
73
74
83
62
64
70
73
70
69
67
60
59
61
64
59
50
42
44
43
28
31
28
26
21
18
23
16
14
4
-2
8
8
-1
2
-2
-4
3
-5
-15
-5
5
-18
-14
-13
-11
-11
-6
-6
-14
-14
-16
-11
-10
-11
-13
-6
-13
-14
-17
-21
-12
-16
-20
-7
-8
-11
-5
-9
-21
-13
-17
-15
-16
-9
-12
-9
-1
0
-14
-14
-14
-18
-15
-14
-9
-19
-5
-9
-14
-15
-10
-14
-10
-8
-9
-8
-8
-12
-15
-22
-9
-12
-11
-10
-7
-4
-6
-10
-19
-17
-5
-11
-18
-13
-7
-13
-8
-14
-12
-9
-15
-8
-10
-15
-13
-17
-5
-15
-11
-7
-18
-20
-21
-20
-8
-7
-9
-10
-14
-25
-15
-21
-19
-13
-9
-12
-17
-9
-11
-14
-11
-15
-18
-14
-14
-9
-8
-14
-14
-25
-20
-19
-11
-16
-4
1
-19
-6
-14
-25
-20
-20
-15
-8
-4
-13
-14
-20
-20
-13
-5
-8
1
-7
-10
-6
-10
-11
-8
-10
-7
-9
-2
-4
-3
3
4
-3
-4
0
-9
-13
-8
-16
-16
-18
-24
-20
-22
-19
-21
-11
-12
-15
-10
-16
-17
-19
-13
-14
-16
-19
-16
-15
-12
-9
-21
-20
-25
-23
-16
-13
-20
-10
-1
10
16
18
33
53
66
61
50
54
52
49
43
14
-27
-49
-55
-53
-32
-50
-64
-87
-91
-78
-65
-57
-46
-37
-27
-27
-17
-19
-12
-15
-21
-8
-12
-7
-20
-15
-9
-13
-17
-17
-16
-11
-6
-6
-15
-7
-10
3
-17
-20
-8
-5
-12
-15
-7
-8
-2
0
-3
-11
-13
-12
-2
2
1
-5
-8
-6
-3
-5
-9
2
0
2
0
0
7
2
10
-1
0
3
7
5
13
11
11
14
7
15
13
19
13
23
21
15
32
26
27
33
30
36
39
33
41
47
51
50
44
49
52
49
57
54
55
63
64
62
64
60
65
64
63
67
77
68
70
61
58
61
47
49
36
40
44
39
36
33
26
10
12
18
14
6
7
14
12
-7
-11
-4
-7
-3
-15
-6
-8
-4
-8
-13
-23
-22
-15
-15
-10
-15
-18
-18
-9
-13
-21
-21
-15
-15
-18
-15
-13
-17
-6
-12
-17
-18
-21
-14
-18
-15
-14
-11
-10
-14
-11
-15
-21
-16
-16
-16
-10
-17
-13
-17
-15
-19
-12
-3
-14
-19
-11
-8
-20
-11
-14
-20
-15
-20
-14
-16
-13
-4
-3
-17
-20
-18
-20
-16
-10
-14
-13
-6
-10
-20
-16
-14
-15
-17
-19
-16
-11
-15
-13
-16
-13
-17
-18
-13
-16
-22
-19
-13
-12
-12
-20
-19
-18
-21
-20
-17
-18
-15
-17
-9
-13
-24
-21
-20
-18
-18
-13
-8
-14
-19
-8
-13
-24
-23
-13
-19
-20
-26
-15
-14
-21
-24
-15
-22
-17
-20
-8
-3
-10
-13
-21
-17
-17
-19
-18
-14
-14
-12
-16
-14
-22
-10
-10
-7
-8
-1
-4
-6
6
-11
-13
-3
-3
-6
1
-3
1
1
-16
-17
-18
-18
-21
-14
-18
-20
-15
-17
-18
-24
-21
-25
-26
-17
-5
-20
-16
-14
-10
-26
-28
-20
-17
-22
-17
-15
-17
-15
-15
-18
-19
-11
-9
4
20
29
50
62
64
53
51
52
45
47
45
19
-19
-39
-34
-41
-31
-53
-75
-91
-83
-71
-51
-40
-35
-37
-24
-20
-15
-13
-12
-20
-18
-13
-18
-11
-22
-22
-19
-15
-11
-16
-12
-3
-11
-21
-11
-10
-5
-15
-17
-11
-10
-7
-6
-9
-9
-13
-7
-8
-3
-2
-9
-4
-10
-10
-4
-2
-3
-3
1
1
7
4
0
4
-6
5
3
2
2
10
10
4
2
4
14
8
8
16
18
23
20
17
14
14
23
21
29
29
29
31
43
42
38
42
36
43
48
55
50
56
57
59
58
58
63
72
59
64
75
70
73
75
69
65
61
73
75
61
60
59
54
48
48
39
41
41
40
35
28
20
23
18
12
4
2
-2
0
7
-7
-4
7
0
-7
-5
-12
-15
-7
-1
-10
-15
-14
-21
-11
-11
-12
-15
-12
-9
-10
-15
-11
-17
-15
-13
-10
-18
-10
-17
-24
-9
-8
-9
-9
-19
-8
-11
-19
-6
-10
-13
-11
-3
-13
-16
-16
-17
-15
-17
-8
-7
-10
-11
-10
-12
-2
-16
-17
-9
-16
-13
-11
-9
-13
-13
-16
-18
-13
-10
-9
-11
-12
-15
-12
-18
-14
-17
-13
-18
-5
-11
-11
-12
-18
-22
-7
-14
-13
-15
-14
-6
-12
-15
-20
-20
-14
-9
-6
-16
-23
-8
-14
-25
-20
-15
-16
-25
-14
-1
-11
-12
-17
-17
-17
-16
-12
-17
-17
-18
-13
-9
-13
-25
-13
-14
-11
-17
-20
-21
-9
-17
-13
-10
-21
-19
-9
-26
-12
-22
-14
4
-11
-21
-27
-18
-15
-16
-12
-12
-13
-9
-6
-16
-13
-8
-10
-19
-5
0
-10
-2
0
6
-17
-9
1
-2
-1
0
-1
-9
-15
-19
-14
-18
-23
-17
-16
-22
-16
-19
-19
-20
-20
-27
-19
-12
-10
-17
-12
-20
-16
-25
-18
-21
-15
-22
-24
-17
-16
-13
-19
-18
-5
7
10
19
34
52
68
70
58
54
51
53
59
20
-19
-32
-47
-34
-28
-55
-78
-92
-95
-84
-64
-52
-42
-35
-29
-33
-26
-20
-22
-19
-18
-20
-19
-16
-19
-9
-15
-6
-20
-28
-7
0
-8
-10
-2
-8
-17
-16
-14
-5
-6
-5
-12
-13
-16
-17
-9
-1
-6
-1
-3
-3
-7
-9
-7
-8
-7
1
2
-9
-4
-1
6
6
1
1
3
3
5
3
7
12
15
11
8
2
18
8
13
18
11
22
21
12
17
19
26
34
27
37
33
36
39
37
48
41
45
52
42
46
56
55
61
60
62
51
59
69
62
64
65
66
67
70
76
55
57
62
50
65
57
52
39
40
38
24
29
22
27
23
12
19
11
7
4
-5
-8
-3
-4
-2
3
-11
-9
-6
-16
-13
-8
-10
-14
-19
-15
-1
1
-19
-17
-18
-19
-11
-20
-20
-11
-3
-13
-28
-25
-22
-19
-16
-15
-8
-16
-14
-15
-21
-16
-18
-13
-21
-9
-18
-18
-16
-18
-9
-7
-15
-18
-16
-9
-14
-20
-12
-16
-22
-19
-18
-18
-18
-3
-8
-15
-17
-10
-9
-16
-16
-15
-11
-18
-14
-16
-12
-15
-17
-20
-18
-14
-12
-12
-14
-13
-8
-23
-19
-18
-15
-20
-20
-23
-13
-8
-5
-13
-24
-21
-19
-20
-14
-9
-10
-19
-18
-23
-24
-21
-14
-19
-20
-16
-19
-2
-14
-25
-26
-22
-19
-15
-15
-12
-16
-14
-16
-21
-20
-19
-12
-13
-13
-10
-10
-5
-8
-11
-6
-6
-12
-11
-6
-3
5
5
0
-10
-23
-13
-18
-23
-17
-17
-21
-19
-15
-20
-25
-24
-21
-21
-21
-22
-13
-19
-30
-31
-20
-22
-17
-22
-27
-19
-21
-16
-14
-19
-26
-31
-23
-22
-7
1
-1
9
24
38
49
57
52
49
52
47
41
38
10
-39
-53
-48
-46
-41
-55
-79
-93
-79
-77
-59
-54
-36
-38
-33
-25
-26
-31
-13
-22
-20
-14
-22
-22
-16
-15
-20
-17
-14
-14
-18
-21
-15
-6
-10
-8
-16
-8
-7
-10
-15
-19
-15
-17
-13
-9
-14
-9
-6
-12
-10
-12
-6
-8
-8
-10
0
-6
4
-5
-9
-7
-4
-4
-3
2
5
5
-4
1
4
-2
-1
5
1
7
8
15
16
16
9
10
7
10
19
24
26
29
33
28
26
27
33
33
43
41
35
52
47
54
49
49
57
55
62
64
57
66
60
69
63
49
60
61
58
53
56
58
56
54
51
39
34
31
29
36
27
26
17
10
1
3
2
4
-1
-1
-6
-5
-9
-10
-15
-12
-14
-10
-13
-11
-13
-13
-9
-23
-25
-19
-26
-21
-17
-16
-12
-6
-17
-24
-20
-22
-17
-20
-14
-18
-13
-23
-10
-22
-20
-25
-19
-13
-12
-18
-21
-11
-18
-19
-16
-23
-24
-19
-17
-15
-12
-21
-14
-16
-24
-21
-22
-13
-17
-21
-15
-10
-15
-19
-26
-21
-16
-13
-11
-17
-15
-13
-17
-23
-22
-18
-22
-18
-13
-16
-17
-14
-16
-23
-22
-18
-18
-18
-25
-21
-22
-9
-16
-19
-23
-24
-16
-13
-17
-13
-13
-18
-25
-27
-23
-23
-25
-17
-15
-17
-17
-16
-17
-22
-19
-12
-20
-21
-15
-24
-17
-19
-17
-23
-26
-23
-17
-18
-15
-15
-10
-10
-14
-18
-19
-15
-9
-11
-15
-2
2
-3
-1
-6
-7
-7
-14
-19
-22
-17
-16
-18
-20
-30
-18
-20
-21
-26
-24
-21
-18
-20
-27
-27
-35
-19
-16
-23
-23
-24
-23
-27
-26
-27
-24
-23
-24
-25
-25
-17
-14
-3
3
2
5
25
42
58
57
61
61
50
50
45
22
3
-34
-46
-38
-31
-37
-66
-87
-94
-84
-67
-49
-42
-31
-29
-30
-23
-30
-26
-29
-22
-19
-20
-19
-18
-13
-16
-18
-19
-22
-22
-15
-20
-21
-11
-15
-18
-14
-17
-9
-17
-10
-2
-6
-12
-9
-13
-17
-14
-8
-6
-11
-6
-5
-5
-6
-11
-12
-3
-12
-1
-3
0
-1
-3
-5
-4
0
-2
3
1
3
1
-1
6
8
9
12
8
15
10
22
18
18
22
24
24
20
27
27
27
27
33
44
52
39
51
46
43
49
54
57
57
60
68
65
60
67
61
64
60
65
66
71
70
67
70
62
61
54
61
51
44
41
38
32
22
19
16
15
20
8
7
11
12
3
-6
-6
-10
-7
-3
-10
-9
-4
-7
-5
-13
-17
-23
-18
-13
-13
-14
-16
-11
-14
-16
-22
-21
-20
-12
-10
-9
-14
-21
-11
-17
-20
-15
-14
-11
-16
-23
-10
-12
-15
-12
-16
-22
-17
-15
-19
-19
-17
-13
-16
-15
-20
-9
-12
-11
-10
-17
-17
-14
-15
-17
-17
-18
-13
-14
-10
-18
-15
-13
-15
-16
-15
-19
-11
-12
-15
-14
-9
-11
-21
-22
-18
-19
-15
-13
-12
-14
-8
-19
-12
-24
-22
-10
-21
-14
-13
-18
-1
-14
-21
-15
-23
-14
-20
-13
-22
-21
-6
-19
-15
-14
-23
-16
-21
-16
-16
-17
-11
-6
-14
-18
-19
-18
-16
-21
-11
-10
-12
-8
-4
-12
-15
-8
-7
-6
-3
7
4
3
1
0
-5
-16
-9
-11
-15
-12
-14
-15
-18
-23
-23
-15
-14
-7
-23
-23
-17
-16
-23
-27
-15
-16
-20
-17
-13
-17
-17
-18
-23
-28
-20
-19
-23
-10
-18
-18
-16
-18
-8
-11
-1
12
9
22
48
63
63
64
66
52
49
54
38
3
-26
-32
-25
-34
-41
-77
-92
-89
-78
-66
-59
-31
-29
-35
-31
-22
-24
-22
-24
-19
-9
-4
-6
-9
-22
-27
-15
-19
-22
-14
-10
-16
-9
-2
-14
-17
-12
-10
-11
-6
-13
-4
-6
-11
-16
-16
-13
-1
-4
-14
-8
1
-1
-2
-4
-6
-5
1
9
-3
-7
5
7
0
5
2
3
0
2
9
4
14
15
5
10
3
10
27
18
19
19
29
14
18
17
22
25
25
35
41
47
46
42
44
49
45
45
50
58
66
62
65
63
58
56
63
61
57
63
75
76
75
75
62
59
58
58
54
53
58
49
44
42
37
35
30
27
29
14
16
18
7
4
3
-6
-6
3
4
-6
-4
-7
-6
-10
-11
-15
-14
-11
-13
-12
-14
-10
-4
-8
-13
-15
-25
-19
-13
-7
-15
-15
-17
-12
-13
-25
-20
-15
-11
-7
-13
-11
-16
-15
-17
-17
-16
-11
-8
-7
-11
-14
-5
-17
-16
-16
-16
-21
-16
-16
-16
-18
-12
-9
-10
-14
-14
-18
-12
-12
-11
-6
-13
-19
-14
-18
-22
-19
-17
-14
-9
-10
-10
-17
-17
-9
-16
-23
-17
-18
-6
-3
-14
-15
-20
-26
-24
-17
-12
-19
-18
-14
-8
-16
-16
-17
-30
-21
-18
-20
-13
-5
-2
-18
-22
-26
-21
-15
-12
-14
-18
-15
-11
-7
-27
-20
-11
-15
-13
-9
-6
-2
-12
-12
-1
-5
-10
-5
-8
1
-2
8
4
-8
-9
-12
-15
-29
-20
-18
-16
-12
-12
-15
-23
-23
-23
-20
-15
-13
-15
1
-19
-19
-30
-21
-22
-21
-20
-19
-16
-7
-8
-21
-22
-26
-15
-21
-26
-19
-1
0
7
13
11
30
48
59
57
55
54
51
47
43
0
-28
-37
-44
-35
-33
-46
-78
-96
-91
-80
-64
-55
-40
-37
-21
-18
-11
-9
-16
-26
-23
-15
-11
-12
-13
-15
-11
-6
-12
-15
-16
-10
-15
-2
-3
-9
0
-7
-7
-18
-12
-11
-13
-6
-4
0
0
-2
-13
-5
-9
-4
0
-1
2
1
2
0
11
-5
2
-1
0
-2
3
7
7
8
4
-9
6
0
9
10
11
21
25
20
14
6
22
18
31
27
28
27
39
28
27
29
34
36
34
40
39
54
57
51
