-32
-31
-30
-40
-44
-28
-27
-30
-29
-29
-42
-39
-43
-40
-39
-34
-34
-31
-41
-30
-31
-27
-31
-20
-28
-32
-32
-28
-43
-41
-39
-32
-35
-47
-43
-47
-33
-49
-25
-20
-45
-38
-34
-38
-30
-41
-38
-48
-35
-44
-32
-37
-32
-37
-50
-39
-38
-48
-41
-36
-55
-43
-41
-36
-37
-32
-46
-49
-30
-36
-37
-37
-31
-46
-47
-45
-46
-32
-44
-38
-33
-40
-42
-44
-31
-30
-22
-35
-35
-32
-29
-48
-52
-33
-28
-27
-35
-26
-42
-51
-44
-47
-40
-40
-32
-41
-38
-36
-36
-52
-49
-38
-26
-44
-53
-43
-41
-35
-55
-52
-52
-44
-52
-60
-45
-49
-52
-62
-57
-59
-50
-50
-45
-61
-38
-32
-53
-44
-25
-40
-42
-59
-59
-66
-62
-50
-51
-64
-68
-52
-51
-38
-14
13
40
77
97
109
118
99
87
85
58
55
31
11
-19
-35
-29
-41
-45
-45
-39
-41
-37
-38
-37
-52
-48
-44
-35
-38
-53
-51
-43
-39
-35
-34
-41
-50
-51
-43
-47
-44
-41
-34
-40
-42
-53
-46
-37
-26
-40
-38
-33
-43
-19
-35
-41
-34
-33
-33
-43
-31
-27
-31
-37
-38
-26
-34
-30
-40
-35
-27
-22
-24
-23
-28
-30
-47
-35
-28
-35
-35
-31
-3
-10
-17
-5
-17
-18
-10
1
0
4
4
-6
-1
1
-9
1
-4
8
16
29
10
16
22
18
18
18
13
4
3
6
-11
7
22
9
20
11
19
16
10
9
9
-3
-7
-13
-9
-12
-10
-15
-18
-9
-17
-20
-26
-33
-28
-27
-30
-26
-28
-30
-26
-33
-27
-45
-33
-46
-60
-61
-41
-50
-49
-48
-46
-34
-31
-31
-35
-46
-40
-51
-41
-32
-53
-43
-41
-44
-55
-51
-47
-52
-57
-37
-52
-50
-50
-39
-42
-47
-33
-41
-37
-28
-36
-40
-39
-38
-41
-52
-33
-36
-47
-50
-40
-55
-47
-39
-36
-40
-39
-30
-38
-33
-30
-36
-35
-38
-42
-32
-35
-36
-29
-25
-43
-48
-21
-26
-32
-35
-33
-43
-41
-36
-42
-44
-45
-42
-51
-41
-22
-17
-26
-40
-36
-42
-37
-42
-40
-39
-44
-50
-42
-27
-29
-38
-51
-40
-39
-34
-34
-30
-39
-45
-47
-39
-36
-35
-48
-34
-35
-37
-36
-35
-34
-41
-37
-29
-46
-20
-27
-28
-27
-23
-26
-33
-36
-34
-40
-38
-55
-49
-33
-47
-52
-37
-38
-46
-54
-55
-49
-37
-35
-56
-67
-60
-40
-25
-37
-34
-30
-38
-45
-54
-42
-49
-44
-40
-37
-40
-54
-51
-38
-42
-50
-49
-40
-46
-60
-59
-52
-50
-62
-72
-84
-63
-52
-62
-32
-1
12
44
81
99
116
144
138
119
107
85
66
50
22
-19
-34
-33
-18
-32
-33
-26
-22
-20
-24
-65
-53
-43
-42
-43
-39
-35
-35
-37
-28
-33
-39
-35
-36
-38
-44
-37
-38
-46
-35
-39
-42
-37
-36
-37
-37
-31
-22
-34
-31
-38
-46
-50
-40
-26
-26
-33
-36
-39
-22
-35
-31
-27
-30
-30
-14
-19
-30
-28
-18
-19
-24
-23
-23
-23
-21
-25
-24
-19
-18
-16
-6
-13
-13
-25
-2
-2
3
-7
-16
3
4
10
11
8
4
1
-5
6
7
8
10
16
19
12
8
2
12
23
23
8
9
16
8
16
9
10
11
-3
-1
-3
6
10
2
-14
2
-10
-9
-11
-17
-16
-19
-22
-20
-37
-20
-17
-34
-45
-46
-35
-42
-34
-36
-34
-27
-35
-58
-65
-21
-30
-28
-30
-39
-37
-28
-36
-30
-26
-33
-36
-47
-41
-38
-41
-38
-41
-31
-21
-38
-38
-41
-46
-46
-38
-33
-34
-24
-35
-48
-45
-36
-50
-51
-36
-24
-32
-27
-35
-42
-36
-34
-33
-45
-38
-28
-29
-37
-37
-25
-29
-29
-34
-35
-26
-29
-31
-33
-34
-37
-29
-25
-30
-36
-37
-35
-30
-30
-35
-38
-42
-29
-35
-34
-28
-35
-29
-36
-35
-41
-36
-40
-42
-30
-24
-44
-29
-29
-26
-31
-37
-45
-44
-48
-40
-39
-34
-33
-31
-47
-34
-32
-38
-45
-46
-48
-42
-29
-38
-30
-37
-41
-36
-29
-36
-43
-29
-29
-34
-43
-46
-44
-29
-33
-25
-20
-35
-36
-30
-23
-14
-25
-44
-41
-29
-15
-30
-45
-34
-29
-30
-36
-42
-46
-42
-44
-53
-44
-47
-33
-29
-35
-39
-38
-44
-55
-42
-34
-50
-49
-40
-45
-57
-47
-42
-31
-39
-44
-43
-48
-34
-43
-44
-33
-32
-49
-55
-50
-44
-40
-48
-58
-61
-61
-70
-68
-62
-56
-48
-28
-3
32
63
94
122
152
143
132
116
102
86
46
26
0
-16
-7
-19
-23
-41
-37
-21
-27
-26
-31
-45
-53
-50
-56
-53
-35
-34
-45
-38
-23
-29
-28
-30
-42
-43
-39
-43
-40
-36
-29
-37
-38
-44
-34
-29
-31
-39
-51
-47
-28
-37
-30
-28
-37
-42
-34
-28
-32
-36
-36
-44
-37
-31
-34
-34
-33
-27
-38
-46
-21
-28
-26
-19
-25
-33
-25
-7
-25
-32
-5
-19
-26
-11
-11
-17
-13
-12
-9
-7
2
-5
-9
-6
2
10
7
-3
2
9
6
13
13
19
14
13
16
23
26
14
3
16
11
9
12
7
14
11
7
0
3
-3
1
3
-5
-16
-18
-26
-26
-27
-15
-3
-26
-35
-32
-21
-34
-37
-36
-38
-41
-45
-33
-30
-40
-48
-44
-42
-39
-30
-30
-44
-41
-34
-31
-44
-44
-37
-30
-19
-47
-40
-42
-42
-48
-32
-31
-38
-41
-36
-38
-56
-47
-47
-39
-35
-30
-29
-35
-55
-46
-47
-51
-47
-49
-54
-55
-33
-39
-44
-31
-28
-37
-36
-40
-45
-44
-61
-55
-35
-31
-26
-19
-23
-36
-33
-45
-56
-35
-27
-28
-37
-23
-33
-39
-25
-30
-43
-31
-38
-46
-41
-43
-43
-46
-48
-35
-39
-40
-26
-30
-33
-35
-60
-44
-24
-42
-51
-47
-34
-23
-39
-29
-37
-44
-29
-45
-28
-31
-40
-55
-41
-41
-44
-45
-41
-34
-45
-45
-36
-53
-53
-41
-39
-42
-39
-41
-41
-51
-30
-42
-37
-27
-34
-31
-38
-47
-54
-38
-41
-48
-37
-27
-39
-51
-38
-44
-44
-48
-44
-41
-54
-34
-35
-27
-34
-39
-41
-34
-28
-26
-28
-31
-32
-38
-43
-27
-22
-31
-33
-34
-40
-37
-35
-29
-38
-40
-41
-33
-38
-34
-38
-46
-60
-49
-46
-39
-48
-47
-46
-53
-50
-51
-50
-35
-38
-46
-38
-44
-55
-40
-37
-45
-52
-37
-41
-39
-50
-44
-51
-45
-49
-46
-51
-46
-49
-62
-57
-49
-71
-61
-66
-78
-77
-65
-51
-31
-12
14
27
61
110
125
143
151
132
117
108
94
62
19
-7
-24
-20
-9
-20
-19
-25
-29
-31
-37
-40
-48
-47
-46
-44
-45
-48
-51
-45
-46
-44
-37
-40
-44
-51
-38
-40
-41
-41
-43
-48
-61
-35
-28
-35
-40
-45
-40
-31
-35
-33
-32
-32
-44
-44
-40
-31
-37
-43
-34
-28
-23
-24
-39
-38
-35
-28
-21
-22
-32
-37
-37
-25
-27
-28
-35
-29
-23
-22
-20
-20
-20
-21
-28
-24
-26
-18
-6
-10
-8
-15
-13
-7
-6
-9
4
14
9
-3
-4
12
17
20
15
17
6
9
9
-4
1
9
21
20
13
19
8
8
5
3
13
8
-20
-19
-9
1
-8
-8
-6
-14
-22
-26
-38
-28
-25
-25
-43
-26
-29
-49
-31
-38
-30
-28
-42
-47
-43
-43
-49
-47
-46
-39
-42
-41
-48
-54
-51
-56
-62
-39
-37
-40
-40
-43
-49
-52
-44
-40
-48
-51
-31
-42
-36
-45
-54
-57
-40
-45
-50
-46
-37
-53
-56
-36
-39
-37
-36
-34
-38
-31
-35
-52
-49
-39
-39
-35
-35
-50
-42
-45
-46
-48
-44
-49
-46
-44
-31
-43
-51
-40
-47
-34
-28
-51
-46
-46
-39
-43
-56
-48
-50
-49
-31
-38
-32
-32
-41
-48
-40
-26
-29
-40
-36
-50
-41
-50
-40
-36
-40
-40
-43
-46
-49
-49
-46
-46
-48
-55
-42
-34
-40
-46
-47
-52
-60
-43
-39
-49
-44
-32
-37
-34
-44
-41
-49
-59
-31
-42
-53
-47
-45
-48
-54
-49
-47
-43
-37
-46
-49
-46
-43
-54
-51
-49
-50
-47
-41
-49
-49
-46
-53
-47
-53
-43
-51
-47
-45
-46
-43
-46
-46
-55
-56
-50
-53
-49
-42
-41
-46
-49
-49
-50
-53
-44
-48
-38
-37
-49
-52
-50
-54
-55
-45
-40
-50
-37
-30
-35
-38
-31
-31
-36
-36
-40
-35
-33
-36
-43
-48
-43
-43
-47
-38
-38
-54
-42
-50
-47
-55
-45
-47
-57
-47
-53
-50
-43
-43
-46
-55
-46
-60
-53
-61
-67
-54
-36
-56
-54
-50
-44
-51
-49
-57
-65
-57
-55
-46
-54
-56
-46
-50
-57
-34
-47
-55
-53
-54
-62
-60
-71
-76
-83
-74
-66
-66
-47
-28
-11
22
45
82
112
127
138
138
125
96
77
70
36
-6
-32
-27
-9
-18
-31
-27
-29
-39
-42
-51
-44
-53
-56
-57
-29
-33
-38
-45
-44
-53
-51
-51
-56
-47
-49
-55
-39
-45
-52
-52
-52
-53
-54
-37
-44
-38
-43
-39
-38
-44
-55
-62
-44
-38
-43
-41
-36
-45
-47
-37
-37
-48
-42
-35
-44
-38
-18
-28
-25
-23
-33
-39
-39
-28
-38
-34
-37
-24
-52
-18
-10
-24
-27
-28
-23
-14
-21
-23
-18
-5
-5
-4
-8
-3
-2
0
-1
5
-6
5
-1
6
3
10
12
17
11
5
13
13
3
9
11
16
5
3
5
-1
-15
-9
3
0
0
10
-7
-21
-11
-22
-32
-31
-27
-26
-30
-42
-30
-36
-32
-26
-25
-29
-43
-46
-42
-52
-56
-52
-41
-43
-43
-39
-46
-44
-48
-39
-44
-42
-55
-50
-51
-60
-56
-55
-47
-35
-34
-52
-43
-45
-49
-54
-57
-51
-46
-40
-47
-35
-38
-55
-49
-47
-50
-62
-53
-36
-35
-47
-50
-51
-51
-49
-48
-47
-34
-35
-39
-43
-51
-50
-53
-32
-39
-40
-46
-44
-47
-38
-29
-35
-48
-42
-47
-47
-37
-29
-43
-43
-44
-47
-50
-45
-44
-43
-36
-53
-40
-40
-32
-45
-57
-35
-32
-39
-39
-40
-55
-45
-45
-50
-51
-48
-41
-40
-43
-51
-30
-38
-48
-54
-47
-50
-44
-48
-48
-55
-43
-32
-48
-48
-50
-55
-53
-44
-40
-47
-36
-33
-40
-54
-47
-46
-42
-43
-48
-52
-37
-53
-56
-46
-35
-43
-43
-46
-43
-51
-54
-51
-65
-58
-38
-55
-61
-64
-54
-39
-44
-57
-48
-58
-48
-45
-36
-39
-43
-52
-49
-54
-49
-51
-65
-50
-45
-41
-45
-58
-52
-49
-53
-45
-60
-59
-48
-42
-55
-48
-32
-44
-38
-47
-55
-53
-62
-52
-54
-56
-44
-56
-54
-51
-44
-37
-54
-42
-26
-38
-32
-38
-50
-52
-44
-37
-20
-35
-50
-52
-34
-21
-39
-45
-48
-61
-40
-48
-50
-42
-50
-53
-57
-50
-65
-59
-50
-49
-52
-49
-54
-49
-58
-52
-57
-76
-69
-51
-59
-59
-65
-67
-55
-36
-41
-43
-49
-54
-61
-62
-47
-58
-58
-45
-45
-49
-65
-56
-69
-77
-72
-75
-80
-78
-81
-62
-29
-24
13
42
71
97
113
118
107
87
81
66
53
61
23
-20
-39
-27
-30
-46
-52
-38
-44
-36
-43
-48
-44
-40
-38
-58
-64
-45
-50
-49
-51
-45
-52
-46
-54
-54
-54
-54
-53
-44
-36
-49
-49
-56
-51
-48
-50
-45
-40
-42
-29
-47
-46
-48
-49
-47
-32
-37
-37
-29
-34
-41
-38
-32
-38
-46
-27
-27
-34
-30
-26
-27
-30
-30
-30
-38
-32
-38
-34
-40
-43
-18
-15
-30
-23
-14
-15
-10
-13
-14
-14
-24
-5
-7
-2
-5
-9
8
12
9
2
3
4
4
1
14
19
14
6
22
25
13
11
20
7
4
3
-5
-7
-11
1
3
-10
-5
-2
-11
-6
-6
-13
-19
-29
-41
-26
-32
-22
-24
-35
-29
-31
-34
-50
-43
-38
-50
-56
-43
-25
-43
-51
-41
-40
-55
-54
-65
-64
-48
-33
-44
-39
-45
-58
-68
-48
-50
-58
-54
-58
-60
-51
-55
-59
-66
-50
-54
-49
-50
-53
-48
-45
-44
-50
-51
-40
-50
-55
-52
-47
-46
-59
-65
-44
-42
-53
-34
-47
-45
-34
-46
-56
-49
-42
-54
-56
-54
-49
-40
-48
-60
-55
-40
-44
-60
-48
-40
-35
-34
-44
-47
-40
-39
-55
-49
-38
-50
-43
-54
-41
-46
-41
-45
-49
-61
-47
-43
-49
-43
-55
-44
-51
-57
-56
-42
-41
-45
-57
-50
-41
-50
-62
-46
-59
-42
-37
-50
-42
-36
-51
-50
-52
-50
-58
-42
-45
-53
-57
-50
-40
-47
-55
-50
-59
-69
-69
-38
-42
-46
-58
-38
-52
-62
-62
-53
-56
-46
-47
-44
-55
-51
-53
-56
-58
-50
-43
-38
-42
-57
-47
-48
-47
-59
-57
-57
-53
-48
-68
-57
-49
-48
-49
-55
-55
-50
-38
-38
-39
-46
-39
-43
-43
-39
-36
-46
-42
-45
-41
-39
-48
-50
-39
-39
-27
-41
-44
-51
-44
-56
-62
-59
-53
-23
-46
-57
-47
-41
-44
-56
-57
-54
-59
-53
-57
-65
-65
-53
-53
-46
-49
-50
-57
-45
-37
-53
-51
-55
-59
-62
-64
-54
-57
-63
-50
-58
-59
-57
-72
-55
-49
-47
-61
-68
-60
-74
-86
-90
-69
-59
-62
-44
-2
17
47
79
94
104
119
109
93
85
64
49
39
-1
-34
-46
-45
-42
-51
-51
-28
-38
-49
-54
-53
-57
-58
-61
-48
-52
-49
-43
-47
-45
-55
-61
-44
-45
-55
-46
-38
-38
-53
-42
-38
-45
-40
-47
-50
-52
-40
-44
-47
-42
-36
-37
-46
-45
-42
-31
-32
-25
-33
-43
-33
-39
-42
-42
-43
-44
-33
-29
-35
-40
-52
-40
-28
-28
-21
-13
-24
-19
-21
-26
-39
-45
-27
-17
-16
-6
-3
-2
-7
-8
-3
2
-5
-5
-8
5
7
7
0
-3
2
5
17
23
19
16
14
7
12
18
13
12
18
9
-6
11
3
14
3
-5
-6
6
-1
-5
-16
-10
-12
-13
-30
-18
-26
-19
-23
-29
-25
-28
-31
-34
-38
-40
-52
-52
-41
-50
-26
-38
-53
-48
-40
-53
-57
-38
-37
-64
-47
-54
-44
-47
-36
-40
-55
-47
-48
-42
-53
-46
-41
-48
-48
-37
-59
-56
-47
-50
-49
-43
-48
-41
-46
-47
-51
-44
-42
-50
-53
-57
-41
-45
-63
-66
-49
-55
-52
-41
-48
-37
-41
-43
-44
-36
-47
-37
-31
-42
-39
-38
-46
-48
-37
-43
-33
-31
-44
-43
-44
-41
-42
-46
-37
-37
-55
-41
-46
-50
-42
-48
-51
-51
-52
-40
-47
-38
-40
-48
-46
-46
-56
-54
-51
-48
-42
-43
-45
-39
-36
-38
-43
-58
-40
-37
-46
-43
-44
-55
-68
-62
-38
-29
-37
-54
-47
-42
-53
-65
-52
-33
-45
-54
-41
-48
-47
-46
-58
-57
-61
-55
-55
-52
-48
-52
-48
-35
-43
-50
-54
-52
-36
-41
-41
-52
-57
-54
-54
-55
-47
-50
-47
-50
-59
-38
-34
-33
-47
-61
-64
-48
-40
-44
-50
-52
-53
-45
-60
-61
-48
-37
-34
-32
-31
-40
-42
-43
-41
-36
-45
-46
-40
-43
-34
-36
-33
-45
-35
-37
-31
-30
-27
-34
-39
-40
-44
-41
-47
-51
-41
-42
-46
-45
-53
-61
-63
-60
-60
-67
-51
-56
-49
-51
-56
-52
-50
-47
-59
-64
-58
-43
-50
-44
-49
-59
-52
-60
-42
-38
-49
-49
-55
-55
-59
-55
-42
-57
-54
-52
-64
-74
-68
-77
-85
-69
-63
-55
-46
-25
0
43
74
103
118
141
128
106
91
77
71
33
-8
2
-24
-30
-26
-20
-28
-27
-25
-30
-44
-51
-53
-54
-45
-47
-46
-39
-39
-50
-64
-60
-37
-37
-44
-38
-39
-41
-44
-50
-50
-49
-31
-37
-46
-52
-54
-41
-42
-42
-40
-36
-39
-40
-35
-44
-39
-36
-32
-17
-28
-29
-28
-34
-44
-48
-41
-47
-34
-23
-19
-22
-21
-36
-31
-35
-30
-21
-28
-21
-13
-19
-23
-19
-21
-13
-14
-16
-27
-20
-12
-8
-5
-2
-5
4
16
17
6
4
1
-8
4
0
-1
-3
18
22
17
28
39
28
10
9
13
1
5
10
8
12
8
7
7
1
0
-9
-14
-6
-7
-7
-14
-25
-23
-20
-31
-31
-28
-32
-20
-25
-23
-35
-39
-37
-43
-57
-32
-47
-46
-37
-41
-46
-43
-45
-41
-54
-47
-36
-28
-29
-33
-52
-53
-46
-46
-51
-50
-49
-74
-44
-37
-34
-42
-44
-39
-57
-50
-52
-44
-47
-42
-40
-49
-45
-48
-52
-45
-64
-52
-37
-45
-43
-37
-61
-60
-38
-30
-41
-54
-51
-40
-59
-40
-33
-41
-50
-53
-59
-38
-45
-38
-38
-55
-47
-57
-33
-21
-26
-41
-46
-43
-45
-34
-30
-33
-44
-32
-38
-41
-41
-35
-40
-43
-36
-43
-36
-30
-41
-45
-38
-35
-47
-57
-52
-53
-42
-49
-54
-59
-52
-53
-64
-41
-40
-51
-47
-28
-41
-41
-47
-53
-48
-45
-47
-43
-44
-54
-44
-42
-37
-52
-37
-42
-45
-51
-60
-21
-37
-36
-50
-60
-62
-55
-40
-44
-45
-49
-57
-52
-39
-46
-33
-34
-43
-50
-43
-46
-34
-46
-48
-52
-52
-52
-53
-50
-47
-45
-46
-55
-50
-44
-39
-32
-52
-37
-38
-34
-46
-46
-40
-50
-51
-50
-34
-34
-24
-43
-32
-30
-43
-53
-37
-27
-18
-23
-30
-26
-35
-40
-43
-43
-36
-35
-43
-56
-47
-38
-39
-45
-48
-54
-54
-44
-50
-51
-42
-55
-53
-42
-43
-41
-38
-61
-54
-55
-53
-56
-53
-58
-77
-56
-60
-46
-53
-59
-62
-53
-57
-32
-53
-56
-39
-37
-41
-47
-52
-60
-63
-51
-70
-67
-69
-54
-55
-43
-15
10
39
74
95
114
136
135
130
107
88
62
53
18
-7
-22
-18
-23
-25
-28
-29
-35
-41
-46
-41
-40
-49
-51
-50
-44
-42
-23
-31
-39
-39
-53
-46
-46
-42
-43
-45
-35
-40
-43
-49
-49
-42
-49
-56
-40
-44
-40
-35
-47
-38
-31
-30
-39
-39
-36
-37
-41
-37
-35
-41
-46
-40
-30
-40
-29
-40
-32
-23
-18
-23
-20
-32
-44
-42
-28
-20
-22
-16
-26
-23
-37
-11
-23
-15
-20
-21
-5
-9
-6
1
-10
-12
-7
-5
8
3
1
12
11
9
21
20
13
15
7
9
20
20
15
13
13
7
4
29
6
9
11
14
1
-5
8
21
12
-2
4
-2
-18
-6
-13
-17
-14
-19
-15
-16
-34
-33
-25
-24
-35
-34
-37
-46
-40
-37
-36
-36
-41
-27
-32
-47
-49
-51
-48
-39
-46
-49
-54
-35
-25
-39
-46
-53
-64
-53
-42
-44
-37
-43
-50
-30
-36
-49
-34
-19
-45
-48
-42
-54
-52
-36
-40
-47
-42
-25
-21
-41
-57
-52
-54
-50
-30
-44
-36
-28
-46
-51
-46
-43
-46
-51
-42
-44
-46
-35
-41
-45
-44
-34
-34
-34
-45
-42
-44
-35
-41
-30
-39
-33
-41
-30
-37
-33
-25
-33
-49
-41
-42
-47
-44
-37
-39
-43
-42
-37
-40
-41
-41
-37
-56
-51
-51
-54
-49
-26
-34
-32
-37
-37
-39
-52
-47
-49
-30
-33
-43
-44
-40
-50
-45
-36
-52
-40
-42
-33
-40
-44
-44
-46
-44
-50
-46
-51
-49
-37
-40
-52
-47
-45
-43
-39
-47
-49
-45
-41
-43
-49
-47
-53
-45
-41
-44
-49
-50
-47
-51
-30
-33
-49
-54
-58
-54
-36
-51
-49
-48
-43
-31
-48
-57
-58
-51
-48
-52
-36
-37
-42
-50
-43
-43
-38
-41
-32
-26
-33
-28
-21
-33
-44
-44
-36
-38
-24
-23
-26
-41
-26
-30
-42
-46
-50
-34
-35
-41
-56
-51
-41
-40
-41
-38
-33
-52
-55
-47
-53
-58
-50
-50
-57
-51
-57
-60
-60
-51
-53
-49
-47
-37
-39
-45
-52
-44
-40
-39
-50
-53
-43
-65
-72
-56
-37
-41
-49
-59
-53
-46
-61
-69
-67
-73
-79
-74
-60
-55
-54
-24
13
39
71
105
114
134
157
141
117
91
79
50
27
-4
-22
-26
-20
-31
-49
-30
-34
-35
-33
-38
-38
-42
-41
-41
-43
-48
-47
-48
-53
-46
-45
-46
-48
-58
-60
-46
-45
-53
-36
-31
-37
-34
-30
-42
-32
-33
-44
-45
-42
-41
-56
-55
-45
-40
-23
-35
-31
-27
-35
-43
-51
-40
-27
-34
-29
-31
-41
-45
-41
-44
-23
-17
-25
-18
-22
-17
-26
-37
-27
-22
-23
-21
-22
-33
-32
-4
-12
-14
-5
-11
-3
-8
3
-10
6
14
0
-9
-2
4
8
15
12
18
16
10
18
25
20
8
7
3
8
15
26
20
17
14
10
6
-4
-18
4
7
-2
-16
-7
-15
-11
-11
-17
-16
-22
-24
-30
-23
-40
-46
-34
-41
-38
-30
-29
-51
-47
-38
-44
-40
-36
-30
-42
-39
-35
-38
-55
-57
-53
-46
-52
-46
-40
-35
-38
-38
-36
-40
-46
-45
-35
-43
-42
-43
-34
-42
-47
-62
-49
-47
-40
-41
-58
-50
-50
-46
-49
-37
-42
-48
-41
-36
-42
-39
-43
-44
-49
-43
-43
-35
-46
-44
-47
-26
-38
-31
-27
-28
-46
-44
-50
-51
-48
-40
-43
-35
-38
-46
-46
-39
-36
-53
-47
-30
-41
-48
-37
-24
-30
-35
-36
-45
-51
-44
-41
-52
-33
-40
-43
-45
-38
-42
-44
-52
-43
-37
-35
-41
-48
-37
-36
-46
-54
-44
-41
-36
-38
-51
-39
-59
-57
-50
-49
-29
-31
-54
-36
-35
-44
-53
-44
-49
-46
-40
-45
-45
-47
-46
-47
-29
-28
-50
-48
-41
-45
-46
-53
-50
-54
-57
-56
-58
-36
-37
-40
-46
-52
-54
-52
-47
-51
-47
-42
-45
-43
-43
-47
-46
-53
-44
-41
-48
-48
-38
-42
-47
-41
-46
-43
-34
-43
-42
-31
-42
-53
-48
-24
-29
-36
-31
-34
-44
-42
-37
-43
-40
-31
-42
-29
-31
-48
-50
-39
-36
-38
-39
-48
-57
-47
-43
-46
-42
-51
-38
-43
-50
-44
-43
-45
-48
-62
-56
-41
-60
-48
-48
-50
-74
-38
-41
-52
-50
-47
-55
-60
-37
-49
-54
-48
-57
-69
-55
-39
-52
-52
-63
-70
-64
-72
-82
-81
-73
-66
-44
-40
-19
-10
17
64
91
108
132
140
124
104
94
76
61
32
1
-35
-41
-17
-26
-43
-30
-39
-43
-43
-46
-47
-62
-46
-44
-53
-50
-57
-50
-53
-51
-54
-53
-42
-49
-45
-50
-45
-49
-47
-57
-41
-30
-41
-49
-46
-37
-51
-58
-50
-45
-40
-50
-38
-41
-54
-49
-53
-33
-31
-34
-36
-20
-31
-30
-39
-41
-23
-39
-39
-28
-32
-20
-25
-37
-33
-28
-33
-23
-16
-12
-23
-24
-31
-20
-10
-16
-22
-14
-10
-15
-16
-18
-21
-5
-1
-4
-18
5
1
-5
3
15
21
14
18
11
25
21
12
11
13
14
18
16
20
13
14
2
-4
5
7
9
5
-4
-15
-23
-15
-11
-14
-23
-23
-35
-9
-24
-27
-30
-41
-43
-49
-50
-43
-32
-33
-36
-42
-38
-42
-24
-32
-57
-41
-47
-42
-50
-53
-54
-50
-47
-47
-52
-44
-35
-49
-55
-50
-58
-53
-47
-52
-63
-53
-38
-44
-50
-57
-44
-42
-48
-54
-57
-57
-45
-44
-48
-54
-47
-40
-41
-59
-58
-45
-45
-38
-39
-33
-51
-48
-47
-44
-56
-30
-40
-40
-40
-41
-40
-41
-46
-53
-45
-41
-43
-47
-39
-39
-42
-41
-37
-45
-45
-51
-41
-48
-55
-48
-55
-55
-55
-55
-57
-38
-34
-44
-52
-66
-65
-44
-51
-46
-48
-40
-31
-44
-32
-39
-56
-47
-51
-53
-48
-44
-43
-37
-42
-44
-40
-44
-70
-61
-47
-51
-56
-53
-60
-54
-51
-62
-73
-46
-52
-48
-60
-76
-48
-42
-40
-41
-41
-39
-41
-42
-50
-64
-44
-51
-58
-57
-58
-47
-39
-39
-57
-54
-40
-37
-39
-44
-36
-45
-43
-39
-37
-29
-30
-43
-43
-57
-49
-45
-33
-38
-39
-35
-35
-54
-57
-50
-45
-47
-54
-43
-58
-57
-53
-56
-51
-52
-56
-53
-45
-51
-49
-43
-50
-69
-70
-73
-64
-66
-53
-48
-47
-51
-53
-51
-47
-54
-56
-60
-68
-68
-60
-48
-50
-52
-41
-60
-67
-63
-61
-75
-64
-82
-72
-74
-49
-34
-26
-8
24
52
84
103
103
86
92
87
60
57
53
24
-16
-45
-63
-59
-57
-62
-51
-31
-36
-50
-58
-50
-54
-52
-48
-46
-45
-46
-42
-51
-52
-46
-50
-51
-48
-52
-52
-56
-24
-43
-44
-44
-49
-46
-43
-41
-54
-38
-32
-40
-44
-44
-48
-41
-30
-36
-43
-44
-33
-46
-31
-33
-32
-37
-36
-47
-43
-46
-37
-41
-42
-36
-32
-30
-20
-24
-26
-36
-34
-19
-12
-16
-21
-22
-23
-23
-17
-5
-9
0
-5
5
-5
-9
-7
-4
-2
1
2
15
12
17
9
14
17
11
5
9
13
2
15
14
7
11
7
11
14
11
14
-4
-12
-4
-1
-7
-1
-6
-7
-1
-8
-25
-34
-20
-15
-24
-18
-33
-31
-41
-49
-43
-43
-43
-34
-46
-43
-52
-46
-35
-41
-42
-42
-46
-52
-49
-55
-54
-40
-40
-54
-80
-50
-34
-58
-67
-47
-32
-30
-44
-46
-39
-51
-53
-60
-50
-48
-59
-45
-43
-45
-41
-40
-44
-51
-47
-45
-54
-55
-41
-37
-46
-52
-55
-64
-40
-41
-48
-41
-34
-52
-47
-44
-46
-41
-41
-36
-41
-44
-45
-52
-36
-37
-54
-70
-53
-53
-39
-35
-31
-41
-46
-44
-48
-43
-44
-49
-50
-44
-47
-56
-50
-35
-46
-47
-46
-39
-39
-42
-46
-59
-49
-60
-52
-55
-43
-50
-54
-40
-33
-32
-39
-49
-51
-50
-51
-52
-62
-58
-51
-50
-45
-45
-51
-45
-33
-41
-58
-48
-51
-49
-52
-50
-63
-55
-52
-59
-62
-43
-47
-30
-28
-32
-39
-46
-32
-38
-41
-49
-51
-51
-39
-31
-38
-34
-37
-50
-47
-41
-24
-30
-34
-40
-47
-35
-37
-41
-42
-49
-51
-52
-45
-46
-58
-57
-56
-59
-56
-51
-51
-57
-50
-55
-53
-41
-53
-60
-49
-47
-54
-53
-56
-66
-74
-67
-42
-49
-49
-50
-57
-44
-43
-57
-55
-37
-41
-55
-57
-58
-55
-60
-68
-71
-75
-71
-57
-47
-23
-11
21
53
83
103
116
111
97
86
88
75
44
30
5
-25
-39
-43
-54
-55
-49
-48
-40
-35
-42
-52
-44
-54
-45
-38
-42
-42
-48
-43
-29
-39
-43
-41
-39
-43
-36
-37
-39
-42
-47
-47
-45
-57
-43
-32
-39
-29
-31
-31
-30
-43
-35
-32
-41
-39
-41
-40
-37
-21
-31
-43
-32
-24
-29
-45
-34
-42
-33
-14
-15
-29
-22
-8
-11
-22
-24
-20
-15
-13
-16
-19
-26
-14
-8
-2
-2
-4
-8
-7
2
2
0
5
4
1
15
20
22
11
10
4
26
20
10
3
1
31
31
16
22
15
23
32
16
17
30
8
0
24
9
-3
21
6
9
8
17
5
-2
-2
-1
-12
-18
-15
-20
-22
-20
-32
-34
-16
-17
-29
-30
-34
-39
-30
-29
-33
-40
-37
-37
-27
-26
-31
-37
-31
-35
-34
-37
-35
-40
-31
-34
-36
-43
-36
-30
-38
-25
-23
-32
-38
-37
-28
-40
-29
-32
-30
-35
-35
-49
-46
-31
-25
-34
-23
-41
-49
-40
-41
-47
-11
-9
-17
-22
-35
-29
-24
-13
-22
-23
-26
-29
-28
-20
-22
-21
-30
-17
-6
-25
-20
-29
-27
-28
-28
-12
-19
-33
-34
-22
-26
-55
-35
-15
-19
-15
-17
-9
-10
-25
-16
-28
-41
-37
-18
-20
-17
-8
-15
-35
-23
-22
-28
-21
-22
-20
-29
-25
-23
-24
-28
-38
-30
-20
-26
-25
-20
-24
-30
-34
-18
-22
-4
-4
-19
-21
-22
-15
-12
-19
-7
-22
-23
-10
-7
-17
-8
-11
-20
-6
-4
-11
-17
-19
-15
-9
-16
-14
-22
-30
-25
-26
-18
-28
-18
-37
-34
-10
-31
-15
-15
-21
-29
-23
-23
-25
-18
-9
-18
-22
-24
-25
-25
-18
-27
-28
-17
-15
-28
-26
-25
-29
-27
-29
-43
-24
-19
-14
-29
-21
-23
-28
-39
-51
-47
-49
-35
-34
-10
15
32
55
107
141
147
148
155
139
124
105
89
74
36
17
8
0
1
-5
-21
-20
-10
-13
-16
-5
-17
-19
-12
-9
-18
-20
-24
-14
-12
-15
-9
-22
-3
-13
-16
-20
-17
-10
-7
-8
-9
-15
-5
-10
-18
-22
-39
-13
-7
3
-6
-11
-10
-4
-17
-6
-2
7
4
-13
-17
-7
-2
-12
-6
-6
-12
-10
6
9
8
0
5
10
3
-6
7
14
12
12
18
9
4
-3
8
23
21
22
16
26
23
32
40
25
30
25
18
41
40
36
45
42
28
37
45
34
45
46
35
44
50
40
41
28
32
43
40
36
30
31
28
28
19
15
13
16
9
5
15
-1
24
21
15
10
6
-13
-8
-9
-8
-7
-8
-2
-10
-10
-16
-9
-15
-15
-7
-8
0
-9
-9
-29
-37
-29
-19
-19
-23
-18
-12
-11
-7
-11
-3
0
-17
-17
-19
-19
-17
-8
-13
-16
-19
-36
-29
-17
-22
-20
-18
-20
-21
-23
-9
-13
-17
-12
-3
-14
-27
-21
-21
-20
-19
-11
-29
-18
-11
-5
-14
-27
-23
-18
-15
-10
-15
-24
-13
-16
-22
-21
-11
-9
-15
-10
-16
-16
-17
-17
-20
-24
-23
-13
-17
-23
-27
-21
-19
-18
-21
-16
-27
-24
-15
-13
-18
-32
-23
-27
-21
-14
-12
-17
-22
-34
-23
-21
-18
-31
-15
-22
-22
-32
-25
-20
-15
-22
-36
-19
-17
-16
-16
-21
-26
-28
-29
-23
-11
-10
-16
-23
-31
-22
-28
-15
-6
-18
-10
-34
-34
-23
-26
-35
-39
-36
-29
-33
-29
-23
-33
-37
-38
-37
-39
-41
-41
-31
-30
-28
-27
-29
-48
-42
-46
-37
-35
-31
-37
-39
-38
-47
-47
-40
-45
-39
-38
-23
-34
-42
-33
-39
-39
-45
-51
-60
-74
-72
-73
-59
-64
-41
-13
7
34
65
95
123
139
146
139
120
98
78
53
31
10
-22
-25
-17
-22
-21
-25
-63
-37
-20
-35
-33
-37
-39
-33
-50
-50
-53
-52
-53
-45
-49
-46
-30
-41
-46
-47
-49
-39
-40
-29
-30
-45
-46
-42
-49
-46
-46
-40
-39
-37
-34
-51
-47
-34
-45
-34
-30
-46
-47
-50
-38
-28
-29
-25
-39
-38
-32
-43
-50
-37
-25
-36
-43
-45
-38
-25
-20
-28
-26
-31
-35
-25
-18
-25
-33
-17
-19
-21
-21
-14
-11
-10
-12
-10
-12
-9
-8
-10
-8
14
-1
1
14
14
-5
-4
2
7
9
2
1
5
-6
-8
2
-2
8
-9
-6
2
-5
-12
-29
-35
-36
-14
-26
-31
-33
-30
-25
-31
-37
-39
-42
-47
-49
-43
-37
-45
-55
-49
-44
-58
-49
-47
-52
-63
-53
-45
-53
-58
-46
-51
-62
-69
-66
-72
-61
-56
-53
-54
-63
-63
-64
-60
-68
-62
-63
-44
-59
-55
-59
-51
-55
-54
-62
-64
-58
-74
-62
-62
-63
-71
-68
-50
-51
-60
-49
-63
-69
-61
-70
-57
-60
-58
-64
-71
-72
-71
-66
-55
-52
-54
-58
-68
-67
-62
-57
-62
-51
-45
-42
-58
-59
-55
-60
-69
-58
-56
-69
-66
-64
-64
-67
-61
-59
-58
-54
-63
-59
-65
-70
-65
-62
-61
-63
-58
-59
-66
-69
-60
-68
-72
-64
-55
-68
-80
-79
-77
-72
-62
-57
-66
-58
-65
-67
-58
-72
-71
-67
-62
-55
-66
-69
-71
-85
-57
-55
-65
-61
-68
-65
-79
-62
-54
-68
-69
-53
-53
-51
-59
-63
-59
-57
-62
-63
-60
-64
-79
-66
-62
-68
-67
-64
-77
-80
-85
-94
-78
-68
-73
-68
-65
-68
-76
-73
-69
-72
-78
-78
-72
-85
-79
-65
-78
-80
-72
-85
-73
-77
-70
-83
-77
-71
-76
-78
-77
-70
-72
-83
-79
-94
-97
-108
-115
-115
-93
-62
-57
-36
-12
28
60
82
88
102
106
95
77
54
34
2
-24
-50
-58
-51
-45
-49
-53
-59
-72
-66
-69
-85
-83
-85
-64
-82
-80
-66
-75
-78
-70
-83
-80
-70
-52
-66
-67
-68
-79
-74
-78
-69
-69
-72
-68
-80
-71
-78
-73
-83
-79
-72
-76
-67
-55
-62
-63
-64
-66
-74
-68
-70
-71
-65
-62
-67
-73
-63
-68
-65
-59
-59
-59
-56
-58
-57
-65
-65
-57
-57
-52
-54
-50
-50
-45
-43
-49
-42
-47
-52
-40
-49
-44
-43
-16
-34
-35
-24
-24
-25
-24
-30
-27
-29
-23
-16
-22
-9
-15
-16
-11
-18
-22
-12
-20
-39
-25
-22
-26
-36
-36
-41
-29
-34
-30
-40
-46
-60
-56
-54
-53
-59
-59
-57
-62
-60
-76
-71
-77
-70
-66
-62
-70
-59
-64
-72
-67
-78
-76
-71
-75
-78
-75
-67
-70
-64
-82
-88
-75
-78
-83
-79
-73
-79
-72
-76
-78
-85
-84
-70
-69
-78
-78
-91
-83
-78
-77
-77
-82
-77
-77
-86
-82
-72
-69
-72
-61
-73
-80
-68
-73
-75
-81
-76
-64
-71
-77
-80
-68
-75
-74
-83
-88
-93
-74
-65
-68
-83
-70
-70
-72
-59
-66
-81
-67
-67
-74
-86
-78
-75
-69
-86
-80
-74
-70
-78
-74
-64
-68
-65
-73
-77
-88
-80
-72
-76
-84
-81
-77
-80
-89
-79
-72
-78
-71
-78
-69
-76
-78
-70
-82
-82
-72
-67
-73
-67
-67
-81
-83
-94
-78
-71
-89
-84
-79
-75
-71
-75
-75
-87
-94
-85
-76
-72
-72
-72
-75
-71
-75
-89
-93
-77
-67
-62
-69
-82
-82
-83
-68
-79
-75
-77
-64
-70
-68
-67
-75
-74
-69
-62
-64
-64
-66
-63
-70
-63
-74
-81
-68
-64
-85
-70
-76
-87
-74
-73
-79
-88
-81
-76
-83
-82
-81
-73
-75
-74
-76
-93
-88
-84
-85
-86
-81
-76
-75
-75
-71
-84
-78
-83
-102
-97
-81
-80
-73
-71
-86
-103
-87
-74
-84
-87
-79
-87
-91
-92
-109
-115
-116
-97
-102
-90
-78
-42
-18
18
52
73
98
100
104
114
79
52
45
21
-29
-51
-57
-44
-51
-59
-55
-49
-65
-66
-79
-78
-83
-82
-90
-85
-60
-70
-76
-72
-70
-79
-71
-79
-76
-66
-69
-72
-72
-75
-78
-76
-73
-75
-79
-71
-75
-83
-64
-71
-73
-72
-67
-62
-68
-74
-79
-70
-67
-70
-59
-67
-68
-67
-68
-58
-55
-45
-56
-56
-60
-55
-63
-57
-43
-49
-55
-54
-52
-52
-53
-53
-61
-59
-51
-43
-41
-26
-33
-39
-52
-44
-40
-30
-31
-28
-33
-28
-17
-24
-22
-13
-12
-24
-19
-3
-13
-15
-20
-18
-26
-11
-10
-19
-15
-7
-13
-17
-23
-21
-33
-32
-39
-31
-33
-21
-33
-35
-42
-40
-44
-54
-63
-55
-53
-55
-51
-49
-34
-54
-63
-64
-63
-69
-67
-62
-69
-72
-61
-73
-79
-69
-66
-66
-66
-62
-61
-74
-78
-71
-65
-69
-68
-78
-66
-61
-66
-72
-70
-75
-72
-64
-79
-73
-73
-68
-77
-70
-59
-80
-74
-62
-70
-60
-67
-76
-64
-53
-61
-75
-62
-68
-72
-71
-58
-58
-68
-73
-79
-58
-58
-64
-63
-68
-63
-66
-63
-56
-54
-74
-63
-65
-67
-63
-53
-65
-54
-73
-64
-74
-55
-66
-71
-64
-70
-50
-49
-58
-60
-59
-64
-74
-69
-58
-52
-60
-74
-77
-65
-81
-64
-52
-50
-53
-60
-60
-57
-74
-75
-68
-69
-64
-76
-66
-61
-62
-70
-70
-65
-67
-65
-75
-78
-68
-80
-62
-67
-57
-64
-64
-71
-82
-72
-60
-75
-68
-87
-71
-76
-60
-61
-68
-70
-51
-64
-75
-78
-68
-62
-61
-73
-87
-75
-61
-66
-67
-61
-55
-67
-72
-77
-67
-65
-60
-58
-55
-58
-81
-64
-62
-73
-69
-66
-47
-52
-60
-67
-52
-46
-52
-51
-78
-65
-54
-49
-51
-59
-69
-73
-78
-80
-63
-64
-69
-67
-80
-72
-66
-79
-75
-79
-75
-52
-54
-71
-76
-67
-72
-77
-67
-67
-74
-77
-71
-73
-72
-65
-63
-73
-83
-74
-90
-74
-75
-82
-77
-65
-62
-74
-67
-71
-75
-80
-72
-88
-82
-86
-96
-100
-105
-88
-62
-50
-20
24
43
83
106
111
116
108
83
66
51
32
-5
-39
-54
-42
-47
-51
-58
-54
-42
-53
-67
-72
-78
-79
-61
-66
-78
-74
-65
-63
-58
-71
-73
-73
-73
-89
-67
-59
-54
-69
-59
-63
-74
-70
-67
-64
-63
-62
-66
-68
-66
-53
-69
-57
-47
-48
-57
-65
-62
-60
-60
-62
-52
-45
-49
-62
-66
-55
-50
-49
-54
-56
-67
-64
-43
-37
-41
-46
-40
-50
-44
-32
-47
-43
-37
-51
-51
-40
-40
-37
-29
-30
-27
-31
-31
-36
-19
-20
-17
-1
-17
-13
-18
-18
-17
-17
-11
-6
-10
-10
-15
-13
-22
-27
-29
-7
-7
9
0
-16
-21
-22
-24
-25
-28
-30
-36
-35
-42
-38
-36
-38
-53
-46
-49
-63
-53
-50
-61
-59
-57
-53
-62
-57
-63
-74
-74
-66
-67
-73
-64
-61
-71
-62
-66
-71
-67
-68
-63
-63
-73
-82
-77
-80
-72
-62
-59
-74
-89
-68
-64
-79
-67
-63
-74
-68
-64
-66
-78
-79
-69
-62
-58
-72
-71
-74
-68
-67
-70
-63
-62
-62
-70
-65
-64
-61
-70
-73
-71
-66
-71
-56
-56
-75
-76
-53
-55
-61
-66
-72
-79
-66
-56
-61
-59
-66
-65
-60
-66
-62
-63
-66
-64
-62
-68
-72
-69
-74
-77
-68
-55
-63
-64
-67
-63
-56
-65
-48
-55
-65
-73
-83
-84
-62
-62
-83
-65
-69
-61
-60
-57
-65
-72
-68
-78
-79
-68
-59
-61
-69
-61
-72
-73
-75
-75
-69
-63
-72
-71
-67
-64
-69
-73
-73
-75
-71
-68
-57
-69
-70
-72
-72
-61
-70
-86
-73
-66
-66
-71
-73
-67
-82
-74
-76
-77
-74
-74
-71
-73
-74
-84
-76
-69
-72
-90
-83
-70
-56
-73
-75
-77
-71
-79
-60
-63
-55
-45
-52
-72
-67
-67
-74
-58
-54
-63
-60
-61
-51
-60
-55
-74
-65
-69
-77
-81
-67
-69
-70
-71
-72
-85
-80
-75
-79
-84
-84
-83
-81
-84
-68
-90
-88
-81
-75
-91
-82
-67
-66
-68
-75
-80
-80
-74
-79
-77
-78
-85
-88
-86
-76
-81
-77
-80
-88
-94
-84
-86
-97
-103
-105
-109
-107
-103
-80
-46
-34
10
43
73
88
95
100
99
86
74
58
39
15
-27
-56
-42
-50
-48
-54
-59
-58
-60
-66
-63
-72
-78
-73
-77
-79
-77
-74
-61
-71
-69
-67
-69
-73
-78
-75
-77
-84
-73
-63
-69
-81
-80
-69
-68
-74
-69
-60
-64
-77
-59
-69
-77
-68
-62
-59
-50
-52
-54
-58
-56
-68
-72
-66
-58
-64
-57
-47
-58
-61
-48
-57
-55
-47
-45
-62
-52
-55
-60
-50
-42
-50
-54
-50
-50
-48
-39
-41
-27
-29
-34
-37
-32
-35
-34
-20
-18
-12
-14
-31
-9
-9
-26
-22
-26
-18
8
2
-9
4
-2
-14
-22
-14
-18
-20
-20
-24
-11
-19
-17
-20
-25
-24
-30
-31
-35
-31
-30
-41
-37
-38
-46
-47
-55
-57
-48
-58
-61
-57
-60
-64
-53
-57
-59
-60
-61
-64
-68
-68
-63
-62
-65
-66
-76
-66
-66
-71
-79
-62
-76
-73
-66
-70
-101
-76
-47
-63
-68
-46
-59
-63
-78
-63
-59
-61
-59
-67
-62
-58
-70
-65
-66
-71
-68
-68
-77
-60
-53
-63
-66
-63
-36
-55
-66
-51
-51
-60
-60
-48
-55
-66
-62
-63
-67
-62
-61
-61
-46
-44
-62
-51
-52
-62
-58
-65
-59
-48
-55
-60
-59
-64
-52
-53
-53
-59
-60
-55
-64
-65
-63
-45
-59
-63
-56
-51
-48
-44
-46
-59
-61
-53
-56
-79
-75
-60
-60
-66
-48
-56
-73
-72
-45
-61
-68
-66
-70
-64
-55
-58
-79
-61
-63
-72
-60
-54
-59
-55
-57
-59
-50
-56
-50
-49
-58
-55
-54
-61
-59
-65
-74
-75
-70
-59
-61
-64
-62
-53
-49
-61
-66
-57
-65
-62
-61
-56
-65
-69
-61
-51
-47
-61
-57
-70
-69
-51
-40
-50
-55
-56
-76
-57
-60
-55
-44
-39
-41
-48
-36
-44
-60
-63
-43
-48
-53
-48
-39
-42
-44
-47
-45
-48
-51
-56
-53
-55
-62
-47
-39
-51
-58
-60
-52
-52
-48
-51
-55
-64
-56
-65
-64
-57
-72
-60
-46
-45
-62
-65
-61
-66
-58
-70
-62
-73
-67
-68
-62
-68
-64
-57
-69
-54
-43
-49
-51
-52
-56
-51
-44
-66
-78
-73
-90
-93
-91
-74
-68
-49
-41
-27
-3
27
63
86
111
115
106
93
92
80
55
36
2
-25
-46
-47
-47
-39
-42
-41
-33
-41
-50
-42
-40
-54
-56
-54
-46
-56
-54
-66
-49
-51
-52
-70
-62
-31
-43
-52
-53
-53
-52
-51
-50
-42
-40
-65
-65
-62
-54
-43
-50
-45
-45
-52
-38
-35
-42
-46
-40
-40
-60
-39
-27
-26
-40
-45
-46
-52
-32
-34
-35
-35
-45
-42
-43
-40
-35
-27
-19
-15
-10
-16
-24
-26
-38
-34
-24
-21
-11
-17
-27
-4
-4
-12
-10
-7
1
-7
-16
-7
-9
17
22
22
13
12
2
6
8
9
5
5
19
2
5
21
5
9
-1
-5
-6
-2
-2
-12
-6
-11
-23
-17
-30
-13
-16
-18
-39
-35
-33
-27
-30
-36
-36
-41
-37
-36
-40
-39
-39
-43
-54
-50
-38
-38
-51
-52
-47
-44
-43
-39
-44
-47
-44
-56
-60
-53
-57
-54
-49
-39
-43
-46
-49
-47
-51
-39
-51
-57
-46
-49
-45
-44
-45
-46
-43
-36
-43
-46
-50
-38
-40
-36
-36
-44
-51
-34
-37
-38
-41
-45
-39
-40
-33
-39
-53
-40
-42
-42
-46
-49
-44
-26
-20
-33
-42
-35
-41
-50
-31
-28
-39
-36
-40
-37
-28
-35
-40
-33
-40
-36
-39
-48
-38
-42
-34
-25
-44
-44
-33
-29
-37
-39
-48
-38
-37
-44
-40
-37
-46
-40
-41
-35
-42
-33
-27
-37
-44
-40
-40
-40
-38
-35
-36
-33
-30
-33
-38
-40
-33
-43
-44
-28
-33
-42
-30
-38
-42
-33
-26
-44
-40
-38
-35
-38
-33
-43
-49
-41
-32
-38
-37
-35
-37
-31
-34
-34
-34
-34
-33
-37
-26
-26
-27
-28
-19
-29
-33
-37
-44
-44
-25
-11
-16
-18
-24
-24
-28
-31
-23
-23
-34
-31
-41
-27
-21
-37
-43
-41
-34
-28
-23
-22
-35
-50
-56
-54
-19
-12
-29
-34
-34
-31
-34
-36
-29
-34
-44
-36
-37
-38
-39
-38
-33
-38
-42
-38
-39
-55
-28
-31
-39
-30
-43
-51
-46
-47
-49
-40
-48
-56
-55
-32
-17
-1
36
74
94
97
121
139
119
99
96
85
76
48
14
-9
-30
-29
-32
-25
-32
-20
-17
-16
-22
-25
-27
-39
-34
-36
-35
-30
-37
-31
-28
-28
-22
-19
-29
-29
-33
-35
-27
-26
-32
-19
-21
-23
-23
-16
-34
-17
-20
-25
-24
-23
-30
-30
-24
-9
-24
-17
-15
-20
-4
-13
-18
-14
-20
-13
-13
-4
-5
-2
-12
-18
-21
-9
-7
-5
-18
-12
-7
5
2
-16
-2
10
12
14
7
19
8
11
4
8
17
20
15
13
25
11
28
22
34
44
40
31
43
38
36
32
33
39
48
51
39
23
18
17
25
41
14
34
31
18
1
17
23
12
12
15
9
10
11
-2
6
-5
-6
-6
-18
-21
-43
-8
6
-6
-20
-12
-21
-23
-21
-15
-21
-24
-10
-12
-19
-28
-28
-26
-34
-24
-18
-17
-19
-26
-34
-26
-31
-31
-5
-17
-25
-35
-25
-33
-27
-36
-34
-38
-22
-18
-14
-26
-14
-11
-11
-16
-26
-27
-23
-25
-8
-13
-13
-26
-20
-21
-17
-24
-10
-23
-19
-8
-8
-15
-22
-9
-20
-14
0
-5
-15
-10
-10
-19
-23
-16
-32
-31
-17
-12
-4
-8
-25
-16
-13
-17
-30
-26
-18
-11
-17
-17
-11
-18
-14
-20
-22
-6
-9
-18
-7
-11
-27
-26
-24
-20
-17
-18
-15
-13
-22
-16
-10
-17
-16
-9
-18
-21
-16
-11
-11
-24
-27
-29
-35
-32
-28
-10
-14
-6
-10
-8
-17
-13
-7
-17
-15
-3
-4
-3
-4
-5
-5
-3
-11
-6
-13
-10
-2
-5
-8
2
-8
0
-8
-21
-16
-12
-17
-15
-15
-12
-25
-19
-17
-21
-22
-16
-19
-15
-13
-19
-16
-17
-16
-16
-22
-21
-11
-15
-25
-22
-10
-14
-16
-16
-28
-26
-13
-4
-15
-23
-30
-22
-12
-24
-24
-21
-15
-14
-21
-17
-27
-32
-45
-38
-41
-15
2
10
50
87
112
134
144
152
141
146
126
110
99
75
25
4
-4
-9
-1
9
-1
3
8
-1
-16
-19
-19
-19
-14
-11
-11
-12
0
8
-5
-15
-32
-4
-13
-6
-14
-9
2
1
-16
-8
8
3
-9
-9
-7
-7
-9
-5
-9
-4
6
1
-4
-5
-3
0
2
-4
-3
-1
6
-5
0
5
-6
-15
12
4
5
7
7
15
15
16
2
9
15
16
10
5
8
11
24
24
20
21
27
30
25
30
19
29
37
37
42
45
44
31
34
47
49
52
39
38
49
57
54
54
55
57
52
52
55
51
51
41
40
33
43
38
32
24
23
27
30
30
32
20
28
20
7
14
14
-1
-14
1
5
-1
2
7
0
-8
4
-8
-8
3
-9
-6
-4
-3
-10
-12
-12
-2
-11
-13
-14
-13
-12
-11
-5
-8
-2
-5
-8
-7
-8
-3
-12
-6
-12
-13
-6
0
-5
-1
-1
-8
-25
-18
-8
-2
5
-9
-12
-10
-7
-3
-8
-12
7
-6
4
-5
-2
-8
-9
-9
5
1
-5
-3
-5
6
1
-1
2
-1
0
6
-2
1
-1
-4
2
1
-3
-7
6
-4
-15
-6
-2
-5
-10
6
-4
-9
4
0
-17
-12
14
-3
1
3
6
0
-2
-3
3
6
0
15
8
1
-13
-17
-8
-1
-3
-2
-5
-5
-2
0
-1
-11
-3
-17
-7
1
6
3
3
2
-1
0
-2
-4
-18
-6
-8
10
10
10
12
23
18
13
13
14
9
0
-11
-3
-5
1
-7
-14
-9
-1
1
11
1
-9
1
-1
-5
-6
-25
-10
-5
-4
17
3
-1
-6
-5
-7
-7
-4
-7
-8
-5
-4
3
5
-3
-7
-6
-5
-10
-1
-9
-22
-12
-13
-19
-14
-10
-13
-22
-28
-18
-23
-22
-3
15
33
76
111
141
164
177
180
165
156
140
109
81
71
22
-1
4
16
11
23
9
5
20
12
6
6
-5
2
3
0
-1
-4
-3
-4
-4
2
4
-1
-12
4
-3
3
4
3
7
9
7
0
5
14
5
-1
1
10
8
4
4
3
-5
5
16
20
12
12
19
11
12
4
13
3
8
12
14
21
12
11
14
18
16
15
10
24
18
19
16
30
28
26
35
26
19
34
44
41
27
34
41
27
27
44
41
62
61
50
49
45
55
70
64
60
61
66
63
47
50
28
46
71
66
60
55
52
46
39
55
57
53
38
26
29
34
27
22
23
28
31
21
16
16
16
14
8
7
-1
8
10
3
11
2
-2
3
2
8
10
-1
-1
0
-6
0
-5
-4
6
-2
5
-3
-5
-11
-6
-6
1
3
1
-1
3
-9
6
2
2
2
2
-5
-1
3
5
-4
-7
-6
5
1
6
5
8
-2
1
7
11
-6
-26
-9
3
3
12
9
19
16
10
12
8
9
10
-3
9
8
-4
-2
4
2
5
3
2
-1
1
-3
3
4
12
6
4
9
6
7
1
5
12
9
9
4
5
-4
-4
11
9
6
3
-10
-13
-12
-2
-6
-6
0
10
0
13
14
-3
7
6
-1
-2
2
2
-8
-6
1
11
10
7
2
2
0
8
3
0
-3
6
12
9
13
12
14
18
17
20
17
15
10
11
17
2
3
6
5
-5
6
6
-2
-7
3
-6
3
10
3
-15
-8
-5
3
-2
4
-6
-8
6
-2
-7
-7
0
-3
-14
-18
-28
-11
-6
10
3
-1
1
2
-3
-11
-18
1
-3
-9
-4
5
1
-5
-18
-35
-44
-34
-16
-13
3
16
30
59
92
128
142
182
188
174
167
145
125
117
88
45
22
25
32
26
28
27
18
15
3
-9
-16
8
18
11
5
9
-2
4
-5
-16
-6
13
1
-6
-2
11
8
-2
-1
-5
0
14
14
14
3
-4
-11
6
3
6
2
6
-1
-4
-1
11
14
13
11
5
9
12
9
9
8
4
6
34
34
11
11
10
16
23
23
15
12
25
21
18
25
22
27
32
25
18
21
31
24
21
31
42
26
33
47
54
48
48
46
49
46
54
51
51
51
48
63
60
65
63
66
59
68
56
53
50
48
53
47
36
47
40
27
39
51
33
26
35
24
19
22
20
28
24
11
7
13
3
-4
-3
-2
3
-8
8
7
5
3
3
11
1
9
12
8
4
3
-7
-4
1
-7
-5
-1
-9
-35
-2
0
9
18
15
2
1
6
5
9
-1
-17
-4
-3
-9
-25
-3
-4
-3
7
9
2
-8
-5
-2
-15
-11
5
2
-1
1
2
5
10
1
2
4
-2
7
1
-2
10
11
5
1
-4
-4
-2
7
3
10
9
6
1
-11
-12
4
12
3
1
10
-4
-8
-4
-3
0
-6
-5
1
10
4
6
4
-2
-3
-8
-2
9
11
6
5
4
-3
0
2
7
8
-2
-6
-8
-1
-5
-5
4
-1
-10
-6
9
-3
7
7
-5
-5
6
0
-2
4
-1
8
11
4
7
2
5
-5
9
11
11
14
20
22
11
11
7
10
8
9
-3
-13
-6
-18
-15
-8
-4
-18
-11
-10
3
-7
-15
-23
-7
11
-7
-11
-14
-3
3
1
1
1
-12
-18
5
-4
-3
0
-5
-8
-8
-8
-10
-5
-2
4
-5
-9
-11
-15
-14
-21
-35
-42
-46
-42
-12
-4
4
27
55
87
121
147
167
172
181
183
153
142
114
85
58
18
16
23
39
11
0
15
13
17
2
-4
-1
-11
-10
-8
-7
-7
-14
-27
0
-4
-1
2
-6
4
2
-7
3
-7
-7
0
-4
-6
11
7
-7
4
-5
-3
5
2
-2
-2
15
11
6
6
9
5
13
16
9
5
-1
-1
2
3
9
0
-5
3
8
3
23
11
24
17
22
24
19
19
13
2
19
28
23
30
30
36
30
24
29
38
31
40
33
41
53
50
45
43
50
63
64
55
58
56
53
28
54
59
45
51
55
44
51
48
48
30
31
47
42
42
43
33
28
26
29
22
22
12
11
15
22
11
9
10
5
-7
-4
-2
7
-3
13
8
-2
2
-6
-14
-1
-7
-8
6
0
-7
-13
-13
-14
-9
5
0
-9
-8
7
-1
-2
1
-7
-14
-11
-7
-11
-16
3
-7
-17
-11
-10
12
1
-3
1
-2
0
-5
-12
0
-12
-11
-5
-1
-3
-6
1
5
4
-6
1
1
0
-3
-9
-3
-3
1
-3
4
2
9
7
7
-5
-6
1
-9
-10
-2
-14
-23
1
8
9
16
14
-4
-10
-9
-4
10
-9
-7
7
1
-2
-11
-8
-3
8
1
5
-3
-19
-1
4
0
2
-10
-4
-11
-3
-2
-19
-16
10
4
-11
-7
-13
-6
12
15
1
-2
-10
-5
-20
-19
-8
-15
-1
-12
5
9
-10
-4
8
7
-1
7
-4
0
13
8
-1
4
12
18
16
8
6
-13
-9
8
7
9
4
-4
-10
-17
-1
2
-10
-4
-9
-12
-8
-17
-15
-21
-15
1
-7
6
0
-13
0
-13
-14
-10
-10
-20
-1
-2
-15
-13
-16
-17
-4
-11
3
-14
-7
-7
-16
-19
-37
-24
-12
-15
-21
-37
-42
-26
-16
-16
-15
-6
2
23
59
73
116
159
169
171
171
162
142
123
94
80
61
17
-3
11
25
-5
-3
-1
1
12
10
-7
-6
-8
-17
-13
-1
-2
-18
-17
-22
-13
-11
-3
3
-13
-8
-1
-15
-21
15
-5
-17
6
-5
-9
-15
-28
-14
-2
0
-4
12
16
6
-9
-3
-2
-9
-3
-2
1
3
18
8
-3
-5
-1
3
2
7
1
-2
2
6
15
17
6
4
6
12
8
16
12
20
15
27
28
25
17
22
31
22
22
22
32
38
33
30
49
50
45
49
55
43
45
38
36
46
42
44
39
44
41
42
41
46
42
35
39
33
24
32
24
18
16
9
20
18
25
23
16
5
-2
-16
10
9
-7
-5
8
6
7
-8
-15
-13
-16
-12
-3
-13
-16
-10
-19
-20
-10
-15
-14
-16
-20
-23
-10
-19
-17
-16
-4
-2
-13
-6
-17
-17
-16
-15
-20
-16
-14
-15
-14
-6
-21
-3
-15
-17
-18
-25
-20
-12
-17
-24
-14
-10
-1
-9
-11
-9
-18
-15
-9
-8
-12
-9
-3
-14
-10
-2
-11
-16
-9
-3
2
1
-3
-10
-9
2
-14
-21
-19
-21
-8
-7
-5
-2
-19
-16
-22
-35
-22
-7
-19
-16
-1
-3
-13
-11
-14
-14
-14
0
-23
-7
-7
-17
-11
-16
-4
-11
-14
-11
-23
-21
-9
-12
-15
-10
-30
-18
-7
2
-26
-14
-16
-10
-19
-13
-25
-17
-19
-33
-18
-2
-18
-16
-12
-12
-22
-35
-18
-7
2
5
-4
-21
-19
2
-12
-4
-9
-7
-4
5
1
-16
-10
2
-15
-5
-12
-31
-28
-20
-26
-7
-2
-8
-18
-21
-15
-17
-23
-11
-20
-21
-20
-22
-22
-11
-27
-28
-21
-15
-13
-17
-12
-14
-22
-17
-27
-23
-17
-14
-20
-20
-21
-36
-31
-21
-27
-25
-22
-14
-16
-25
-28
-39
-39
-40
-52
-34
-9
-9
-1
32
64
72
92
140
138
143
144
140
123
109
101
54
23
-1
-15
-5
-1
-9
-9
-8
10
-5
-23
-14
-15
-19
-22
-11
-10
-10
-5
-14
-18
-25
-28
-19
-16
-7
-2
-7
-11
-25
-18
-11
-14
-19
-5
-7
-1
-6
-13
-16
-19
-27
-9
-6
8
-3
-1
4
-1
-16
-1
-3
-14
-2
-2
1
-2
0
-1
7
9
1
-2
7
15
11
10
4
5
5
12
14
20
15
12
17
11
14
23
22
14
21
19
23
33
20
10
24
40
43
48
43
40
46
44
57
59
47
37
39
33
47
49
36
45
40
36
44
39
23
32
24
9
19
20
21
24
24
20
14
15
13
12
0
0
-7
6
-1
-5
-15
-3
-2
-2
-4
-4
-8
-5
-7
-9
-12
-18
-21
-13
-6
-18
-25
-11
2
-21
-20
-15
-8
-11
-5
-10
-8
-19
-9
-9
-15
-9
-15
-17
-15
-11
-5
-20
-24
-8
-5
-10
-6
-29
-13
-11
-8
-6
-7
-1
-3
-22
-19
-6
-4
-18
-19
6
9
-4
5
3
-7
-10
1
-3
0
1
6
-2
-3
-8
-11
-9
2
0
-10
-12
-16
-5
8
-5
-4
-9
-1
-8
-4
-7
1
-7
-3
-9
-8
-4
-2
-13
-5
-1
0
-3
-7
-4
-17
-13
-2
-3
-10
8
2
-8
-4
-6
-13
-10
-5
5
