-100
-92
-71
-71
-67
-76
-93
-108
-114
-115
-102
-89
-76
-73
-71
-78
-96
-102
-112
-116
-103
-91
-80
-71
-75
-79
-97
-106
-111
-119
-107
-90
-79
-77
-77
-81
-100
-111
-111
-109
-98
-83
-76
-71
-75
-82
-103
-108
-115
-111
-101
-84
-77
-71
-73
-85
-101
-108
-114
-110
-100
-82
-79
-69
-75
-81
-95
-103
-107
-107
-95
-81
-71
-64
-72
-79
-101
-106
-115
-111
-96
-78
-74
-72
-74
-89
-104
-114
-120
-116
-101
-85
-80
-75
-79
-89
-112
-117
-119
-116
-103
-85
-80
-79
-80
-91
-106
-113
-119
-113
-101
-83
-74
-70
-79
-96
-110
-121
-127
-111
-92
-72
-54
-45
-50
-49
-53
-53
-60
-62
-65
-64
-67
-73
-89
-112
-145
-169
-175
-162
-145
-132
-121
-114
-112
-122
-131
-131
-130
-120
-100
-83
-75
-74
-83
-95
-107
-116
-115
-105
-95
-77
-74
-73
-81
-98
-107
-112
-114
-106
-86
-77
-68
-65
-74
-94
-107
-109
-109
-100
-88
-76
-68
-70
-75
-93
-105
-112
-109
-99
-81
-69
-68
-65
-74
-90
-102
-109
-104
-92
-74
-68
-59
-56
-65
-88
-96
-98
-96
-85
-68
-58
-51
-53
-64
-80
-86
-88
-85
-76
-54
-47
-45
-45
-54
-63
-72
-79
-75
-61
-43
-42
-37
-37
-41
-63
-73
-77
-75
-61
-49
-40
-36
-41
-54
-69
-77
-83
-82
-70
-56
-49
-47
-52
-67
-85
-92
-97
-95
-80
-64
-65
-62
-69
-78
-96
-105
-109
-100
-87
-71
-68
-67
-72
-86
-97
-105
-112
-105
-88
-77
-67
-61
-69
-81
-96
-104
-106
-102
-84
-72
-73
-65
-71
-85
-99
-104
-104
-97
-83
-72
-68
-63
-70
-87
-98
-101
-106
-95
-76
-70
-67
-61
-71
-88
-95
-103
-104
-95
-78
-74
-65
-65
-71
-89
-96
-104
-107
-98
-79
-70
-64
-69
-75
-93
-101
-105
-104
-95
-76
-67
-61
-63
-74
-89
-104
-106
-107
-94
-76
-70
-61
-69
-83
-92
-100
-105
-110
-100
-75
-70
-65
-68
-81
-101
-103
-109
-106
-96
-74
-66
-59
-69
-80
-93
-99
-100
-99
-90
-70
-62
-54
-66
-75
-92
-99
-106
-99
-86
-73
-65
-54
-63
-77
-90
-98
-106
-103
-85
-70
-66
-63
-69
-85
-100
-106
-107
-100
-92
-76
-71
-72
-76
-84
-94
-103
-108
-103
-91
-76
-68
-63
-71
-84
-98
-104
-111
-105
-85
-76
-68
-64
-72
-85
-99
-109
-113
-102
-82
-65
-51
-44
-44
-44
-47
-45
-58
-55
-52
-54
-62
-60
-77
-107
-138
-159
-158
-152
-135
-124
-106
-107
-110
-118
-129
-126
-121
-107
-89
-74
-66
-69
-77
-93
-100
-107
-100
-96
-78
-68
-64
-59
-67
-92
-101
-102
-99
-90
-73
-62
-60
-61
-69
-90
-97
-104
-99
-88
-71
-60
-56
-60
-65
-87
-93
-101
-93
-80
-67
-57
-53
-60
-68
-80
-91
-93
-81
-79
-56
-54
-49
-51
-62
-78
-78
-81
-81
-71
-47
-38
-36
-40
-52
-68
-74
-78
-68
-56
-38
-30
-26
-33
-45
-58
-61
-64
-57
-43
-29
-27
-24
-23
-31
-52
-57
-62
-56
-45
-27
-21
-21
-32
-43
-58
-69
-72
-61
-46
-39
-33
-33
-43
-60
-71
-80
-83
-78
-60
-49
-48
-49
-56
-73
-80
-84
-92
-80
-68
-57
-51
-54
-59
-76
-86
-91
-93
-83
-62
-53
-46
-48
-57
-75
-84
-91
-92
-83
-62
-55
-50
-46
-55
-73
-88
-91
-89
-79
-63
-55
-49
-48
-56
-72
-80
-87
-84
-81
-56
-47
-42
-48
-54
-76
-83
-90
-88
-79
-56
-50
-42
-49
-56
-71
-79
-85
-88
-79
-59
-50
-46
-47
-59
-76
-81
-86
-82
-70
-49
-44
-41
-39
-57
-77
-82
-82
-79
-72
-56
-47
-42
-49
-56
-73
-83
-84
-79
-66
-51
-45
-44
-48
-58
-78
-80
-85
-80
-65
-45
-39
-37
-44
-57
-71
-78
-82
-71
-57
-39
-36
-36
-42
-57
-70
-76
-76
-70
-58
-42
-30
-29
-38
-54
-67
-71
-78
-74
-65
-51
-38
-39
-46
-64
-69
-83
-84
-74
-57
-47
-42
-40
-50
-67
-74
-79
-82
-68
-57
-42
-38
-39
-48
-64
-77
-80
-84
-78
-61
-48
-42
-43
-56
-74
-81
-83
-83
-69
-40
-19
-4
-3
-4
-15
-25
-40
-49
-56
-50
-51
-54
-65
-84
-124
-136
-142
-139
-123
-101
-93
-80
-82
-81
-91
-99
-97
-95
-83
-64
-53
-50
-47
-53
-79
-85
-89
-90
-76
-56
-48
-46
-52
-64
-74
-87
-92
-86
-78
-62
-49
-45
-50
-61
-78
-84
-92
-85
-76
-60
-52
-46
-48
-63
-78
-82
-89
-85
-79
-61
-50
-50
-55
-64
-77
-85
-89
-83
-75
-58
-47
-44
-52
-66
-77
-88
-87
-78
-62
-50
-46
-42
-48
-59
-69
-80
-79
-74
-59
-47
-35
-35
-41
-52
-67
-70
-71
-66
-45
-40
-38
-34
-47
-63
-72
-79
-77
-73
-56
-48
-48
-46
-53
-72
-87
-90
-95
-92
-77
-66
-60
-62
-77
-93
-108
-111
-112
-106
-89
-84
-78
-81
-92
-104
-116
-123
-122
-115
-101
-93
-88
-88
-100
-119
-128
-132
-132
-119
-101
-93
-95
-94
-102
-125
-134
-140
-136
-119
-107
-105
-100
-99
-113
-131
-139
-146
-140
-129
-111
-106
-105
-107
-115
-134
-144
-151
-149
-137
-116
-110
-107
-113
-128
-147
-149
-153
-153
-142
-124
-118
-109
-120
-132
-154
-157
-159
-160
-147
-131
-122
-119
-125
-135
-159
-169
-169
-163
-150
-137
-131
-124
-134
-149
-161
-173
-177
-171
-159
-144
-139
-139
-140
-155
-169
-172
-181
-173
-162
-146
-142
-147
-152
-161
-174
-186
-186
-181
-168
-155
-146
-143
-148
-167
-182
-188
-192
-187
-172
-158
-151
-155
-159
-180
-188
-192
-196
-189
-174
-163
-155
-159
-172
-187
-201
-205
-208
-199
-185
-175
-169
-172
-178
-199
-201
-213
-216
-206
-191
-180
-179
-182
-188
-206
-214
-218
-219
-214
-197
-188
-178
-178
-197
-219
-222
-231
-228
-220
-199
-191
-179
-184
-191
-200
-197
-194
-179
-166
-147
-151
-154
-174
-197
-219
-232
-250
-264
-273
-262
-258
-248
-248
-260
-277
-277
-273
-263
-248
-227
-217
-206
-212
-222
-238
-241
-246
-246
-236
-217
-208
-204
-206
-222
-235
-244
-249
-242
-227
-215
-211
-204
-209
-225
-237
-247
-249
-240
-228
-217
-209
-209
-214
-231
-242
-249
-250
-242
-231
-218
-209
-206
-215
-230
-242
-247
-253
-246
-235
-212
-208
-204
-212
-227
-238
-243
-243
-237
-224
-212
-205
-205
-214
-225
-232
-236
-240
-234
-215
-201
-190
-190
-197
-216
-228
-226
-232
-222
-208
-196
-192
-188
-196
-213
-221
-230
-228
-215
-207
-205
-195
-194
-207
-225
-235
-242
-237
-232
-217
-211
-203
-204
-220
-237
-244
-255
-255
-249
-228
-223
-216
-219
-231
-249
-257
-268
-265
-256
-240
-233
-227
-231
-242
-258
-265
-271
-270
-257
-239
-231
-220
-229
-240
-259
-267
-276
-266
-254
-233
-233
-226
-228
-239
-261
-267
-273
-269
-256
-230
-230
-225
-229
-241
-257
-265
-271
-262
-254
-236
-228
-224
-231
-242
-255
-263
-268
-267
-247
-234
-227
-225
-233
-240
-258
-261
-264
-265
-249
-234
-229
-224
-231
-249
-264
-266
-271
-260
-245
-232
-223
-221
-234
-250
-261
-268
-270
-259
-244
-235
-231
-226
-233
-249
-259
-264
-270
-262
-242
-232
-224
-225
-234
-250
-261
-265
-268
-258
-238
-230
-226
-222
-231
-247
-259
-266
-265
-257
-239
-224
-215
-223
-232
-251
-261
-264
-264
-260
-240
-227
-221
-225
-231
-246
-255
-264
-262
-247
-226
-222
-212
-218
-229
-245
-257
-260
-252
-240
-225
-220
-212
-218
-231
-245
-256
-259
-253
-252
-229
-224
-214
-223
-239
-249
-253
-261
-259
-250
-228
-223
-219
-223
-230
-249
-259
-262
-254
-249
-229
-217
-209
-220
-236
-251
-257
-263
-260
-243
-224
-220
-215
-220
-228
-248
-245
-244
-230
-205
-182
-162
-153
-160
-183
-209
-224
-238
-237
-236
-236
-246
-257
-268
-280
-287
-293
-297
-288
-268
-244
-237
-228
-231
-239
-253
-254
-254
-246
-230
-214
-208
-209
-215
-225
-238
-244
-246
-239
-227
-212
-204
-197
-208
-226
-231
-239
-235
-233
-216
-206
-198
-193
-204
-217
-226
-236
-235
-224
-213
-196
-190
-192
-200
-216
-226
-229
-230
-220
-202
-188
-187
-186
-190
-213
-221
-225
-223
-211
-197
-189
-177
-176
-186
-203
-211
-212
-212
-205
-185
-172
-165
-170
-178
-192
-199
-203
-196
-183
-170
-159
-153
-151
-164
-181
-186
-192
-190
-178
-159
-155
-146
-154
-163
-178
-189
-201
-195
-176
-165
-162
-155
-161
-169
-190
-199
-206
-195
-185
-170
-169
-170
-172
-185
-197
-209
-211
-206
-196
-180
-174
-169
-180
-186
-201
-211
-216
-207
-192
-182
-175
-176
-179
-188
-205
-209
-211
-204
-196
-181
-176
-173
-175
-187
-203
-208
-211
-206
-190
-176
-168
-162
-169
-184
-201
-205
-208
-199
-178
-174
-163
-162
-170
-186
-196
-207
-205
-194
-183
-169
-161
-163
-166
-184
-198
-200
-201
-192
-175
-167
-164
-163
-168
-187
-198
-205
-201
-192
-177
-168
-157
-160
-170
-190
-198
-197
-199
-186
-170
-160
-154
-154
-161
-181
-190
-198
-197
-189
-165
-160
-149
-152
-168
-176
-188
-197
-192
-184
-169
-158
-147
-153
-164
-185
-194
-194
-185
-181
-162
-154
-147
-147
-158
-175
-183
-192
-190
-172
-152
-150
-147
-151
-165
-179
-185
-186
-179
-167
-149
-143
-140
-146
-157
-174
-181
-184
-182
-169
-155
-144
-139
-142
-153
-170
-177
-177
-171
-161
-144
-141
-131
-140
-147
-167
-177
-179
-168
-151
-142
-141
-137
-144
-155
-165
-174
-179
-179
-165
-153
-137
-136
-144
-158
-171
-179
-182
-175
-159
-142
-133
-137
-146
-160
-173
-178
-174
-170
-156
-140
-137
-136
-143
-157
-167
-170
-171
-167
-152
-142
-132
-131
-136
-139
-145
-141
-131
-109
-85
-66
-70
-79
-104
-131
-145
-163
-173
-174
-177
-181
-176
-177
-182
-196
-202
-203
-195
-178
-159
-144
-134
-131
-141
-156
-162
-165
-157
-153
-133
-122
-115
-119
-132
-147
-155
-158
-153
-146
-129
-118
-116
-114
-124
-147
-152
-153
-150
-142
-121
-110
-109
-118
-123
-137
-141
-150
-144
-135
-120
-107
-103
-110
-119
-136
-142
-143
-137
-128
-110
-102
-95
-107
-109
-121
-133
-140
-133
-121
-104
-99
-91
-97
-106
-119
-129
-127
-122
-105
-90
-78
-74
-82
-96
-110
-116
-124
-112
-96
-74
-68
-66
-71
-83
-99
-106
-112
-104
-85
-74
-68
-63
-76
-91
-104
-113
-113
-104
-90
-78
-73
-69
-77
-94
-112
-120
-116
-111
-99
-91
-81
-83
-95
-105
-119
-130
-127
-118
-107
-99
-89
-86
-96
-113
-123
-130
-128
-126
-110
-100
-88
-82
-98
-115
-123
-128
-128
-119
-101
-96
-89
-91
-97
-113
-126
-122
-128
-113
-96
-88
-81
-88
-97
-112
-119
-128
-122
-109
-89
-85
-83
-82
-92
-112
-118
-125
-122
-115
-92
-83
-76
-84
-93
-112
-119
-125
-119
-108
-91
-83
-83
-84
-91
-108
-119
-120
-120
-108
-83
-80
-74
-77
-94
-111
-119
-125
-119
-101
-85
-75
-78
-81
-94
-109
-113
-120
-110
-101
-84
-76
-74
-80
-93
-108
-117
-119
-109
-93
-86
-81
-70
-83
-98
-109
-111
-110
-110
-95
-79
-73
-73
-79
-91
-109
-112
-110
-102
-91
-79
-68
-66
-78
-93
-109
-115
-113
-102
-90
-78
-69
-68
-75
-94
-100
-107
-106
-103
-84
-75
-72
-69
-70
-93
-107
-114
-105
-103
-82
-69
-65
-64
-74
-88
-96
-101
-99
-92
-76
-62
-50
-57
-70
-93
-97
-101
-97
-90
-66
-58
-55
-62
-70
-90
-94
-100
-94
-85
-73
-61
-56
-61
-71
-90
-99
-103
-97
-88
-71
-67
-58
-64
-75
-94
-97
-100
-98
-83
-70
-62
-57
-58
-73
-89
-95
-101
-96
-85
-69
-59
-58
-59
-73
-90
-91
-89
-78
-59
-29
-14
4
6
-9
-34
-54
-73
-74
-74
-60
-64
-80
-101
-118
-134
-143
-144
-131
-115
-93
-83
-76
-77
-87
-97
-98
-98
-93
-75
-61
-53
-52
-57
-63
-82
-93
-90
-88
-70
-50
-46
-46
-54
-65
-76
-85
-88
-78
-63
-49
-42
-43
-55
-71
-77
-80
-82
-78
-61
-46
-37
-34
-48
-65
-75
-81
-77
-69
-55
-46
-36
-34
-40
-58
-66
-71
-72
-63
-44
-36
-25
-23
-33
-54
-62
-69
-67
-55
-34
-25
-19
-20
-27
-45
-50
-50
-46
-39
-18
-13
-5
-7
-17
-31
-41
-46
-44
-28
-11
-5
-1
-2
-13
-28
-37
-44
-40
-33
-15
-5
-3
-6
-18
-40
-51
-57
-52
-41
-25
-9
-8
-15
-29
-49
-59
-62
-59
-43
-29
-26
-23
-31
-39
-61
-63
-66
-61
-52
-35
-27
-26
-29
-42
-60
-65
-68
-65
-50
-32
-30
-28
-30
-46
-62
-65
-66
-59
-52
-34
-27
-23
-27
-43
-60
-65
-63
-61
-47
-30
-21
-20
-25
-43
-56
-61
-65
-57
-46
-34
-24
-20
-28
-45
-55
-58
-60
-53
-40
-27
-21
-23
-32
-45
-53
-63
-61
-49
-32
-27
-22
-19
-30
-48
-57
-63
-64
-53
-37
-26
-24
-22
-32
-46
-56
-64
-65
-47
-38
-24
-21
-23
-30
-44
-52
-63
-61
-50
-31
-24
-20
-20
-32
-50
-58
-64
-63
-47
-30
-24
-17
-19
-30
-50
-60
-59
-55
-43
-27
-20
-13
-12
-31
-49
-54
-56
-53
-44
-29
-24
-16
-17
-31
-46
-54
-59
-52
-44
-28
-16
-16
-16
-30
-49
-56
-57
-54
-38
-25
-23
-17
-18
-32
-51
-59
-56
-48
-35
-22
-11
-9
-14
-27
-44
-49
-53
-42
-32
-16
-7
0
-7
-26
-36
-47
-50
-44
-29
-14
-6
-4
-11
-28
-42
-45
-51
-43
-29
-16
-8
-12
-13
-32
-47
-53
-48
-43
-29
-17
-6
-9
-17
-31
-43
-51
-52
-44
-29
-15
-11
-10
-20
-35
-45
-51
-52
-43
-23
-17
-10
-11
-17
-32
-47
-58
-51
-38
-12
3
16
24
26
24
22
11
3
1
9
9
3
-1
-28
-68
-89
-106
-100
-87
-64
-54
-41
-40
-46
-63
-61
-67
-55
-42
-26
-16
-5
-6
-17
-35
-41
-47
-43
-31
-11
-4
5
-2
-13
-34
-43
-41
-37
-26
-4
3
1
-1
-12
-28
-35
-37
-38
-24
-4
2
4
5
-5
-24
-31
-36
-30
-16
-1
5
9
5
-6
-20
-30
-31
-22
-6
10
14
19
13
-3
-19
-22
-23
-19
-4
17
23
23
19
5
-11
-15
-14
-6
12
27
32
37
28
15
5
4
-4
4
22
43
46
48
35
16
4
-1
0
13
27
36
43
43
31
13
-2
-6
-5
6
15
24
29
29
22
1
-7
-13
-16
-7
7
17
21
18
9
-5
-15
-21
-25
-19
-2
12
22
15
4
-9
-18
-29
-24
-15
0
10
18
12
4
-15
-20
-28
-26
-12
3
7
19
20
5
-11
-18
-26
-22
-10
7
13
15
14
9
-12
-17
-21
-19
-7
11
14
21
19
6
-5
-13
-17
-18
-7
5
15
25
18
6
-9
-16
-24
-21
-9
12
23
27
19
9
-13
-21
-19
-12
-4
11
19
22
17
-1
-13
-21
-18
-16
-2
12
16
19
13
2
-20
-21
-23
-13
2
13
20
21
13
1
-12
-22
-22
-20
-2
15
19
22
14
1
-10
-20
-22
-18
1
14
19
20
17
-4
-14
-18
-18
-10
8
23
22
21
14
-1
-17
-22
-19
-10
7
14
22
21
11
-4
-14
-21
-22
-8
5
15
19
19
12
-5
-12
-24
-26
-12
7
18
28
24
10
-5
-13
-18
-15
-9
11
19
29
19
14
-2
-7
-14
-11
-1
16
27
26
21
16
3
-6
-15
-11
1
18
23
26
20
10
-10
-11
-17
-13
-4
12
23
26
22
8
-10
-17
-22
-16
-6
12
19
27
18
6
-12
-17
-20
-13
1
11
21
24
19
0
-17
-19
-21
-17
-1
12
20
25
23
17
12
9
18
38
63
79
82
77
50
32
4
-14
-22
-30
-31
-33
-30
-25
-28
-45
-52
-51
-50
-39
-18
-1
9
14
8
-8
-14
-20
-24
-12
5
22
31
22
16
-2
-11
-16
-13
-3
12
20
26
30
22
9
-2
-8
-9
-6
7
20
31
30
18
3
-4
-9
-10
-4
19
30
35
29
25
7
-3
-9
-8
0
26
32
38
32
23
7
0
-4
1
8
24
34
43
42
33
17
7
2
9
24
38
47
48
45
36
24
16
14
21
31
53
58
64
60
46
35
28
22
27
37
55
61
68
60
48
24
23
19
23
35
49
56
59
49
36
17
15
5
14
29
40
37
43
35
22
8
-2
-5
2
14
27
37
36
25
14
-1
-6
-9
-5
13
24
25
29
27
13
-5
-9
-16
-5
9
23
29
32
28
8
-3
-7
-12
0
13
24
29
34
23
3
-2
-11
-8
2
10
18
31
33
27
2
-3
-11
-11
0
16
26
31
33
24
6
-6
-10
-10
-3
15
25
33
28
23
6
-2
-11
-14
-6
15
26
34
32
16
0
-12
-8
-11
2
14
25
30
26
16
0
-9
-16
-15
-7
12
20
29
23
11
-7
-13
-21
-13
-4
16
22
25
21
14
-7
-15
-24
-14
0
14
20
25
22
13
-11
-10
-17
-12
-3
13
22
23
16
7
-11
-18
-23
-18
-2
15
22
21
19
-1
-13
-20
-20
-16
0
14
16
23
14
-1
-12
-18
-23
-18
-5
13
17
21
18
-1
-18
-19
-25
-14
1
12
25
20
15
0
-9
-13
-19
-9
2
15
24
22
18
2
-9
-20
-20
-14
1
13
24
20
14
-8
-22
-29
-26
-13
5
1
7
11
6
-16
-25
-32
-26
-21
-5
8
12
10
-1
-17
-25
-31
-30
-22
-4
7
11
7
-7
-19
-29
-35
-35
-22
-7
0
11
12
9
0
-5
2
19
39
64
66
57
39
22
-4
-25
-39
-47
-57
-53
-43
-40
-42
-51
-69
-65
-72
-64
-53
-25
-14
-1
-1
-16
-32
-36
-41
-38
-20
-2
8
10
4
-6
-27
-32
-33
-37
-26
-3
7
10
7
-9
-25
-29
-43
-30
-10
-6
-1
6
8
-10
-25
-28
-31
-30
-22
-1
5
7
1
-9
-22
-34
-32
-24
-16
4
3
13
8
-9
-21
-32
-32
-24
-9
5
11
20
12
-8
-17
-24
-25
-18
8
15
26
19
20
1
-2
-12
-9
-10
18
25
31
34
32
14
0
-10
-10
2
14
28
29
32
24
6
-14
-16
-19
-4
14
17
20
13
14
-2
-18
-32
-23
-20
-6
5
16
1
-1
-25
-36
-40
-40
-28
-7
-2
-2
-6
-14
-34
-41
-48
-47
-35
-12
-10
-7
-14
-25
-37
-51
-46
-44
-32
-23
-16
-8
-9
-20
-41
-48
-50
-44
-38
-23
-18
-13
-19
-21
-36
-45
-58
-47
-31
-15
-8
-10
-12
-28
-42
-48
-57
-49
-34
-21
-23
-15
-15
-28
-45
-58
-54
-46
-43
-30
-20
-14
-27
-29
-50
-55
-61
-49
-30
-23
-17
-20
-23
-44
-56
-60
-67
-52
-37
-22
-21
-18
-31
-41
-54
-71
-66
-55
-33
-30
-22
-28
-34
-39
-58
-66
-60
-60
-45
-27
-25
-21
-25
-50
-62
-69
-62
-56
-35
-32
-24
-35
-35
-48
-57
-69
-68
-62
-39
-34
-23
-23
-36
-49
-56
-67
-67
-56
-37
-32
-23
-24
-40
-51
-61
-65
-64
-57
-34
-16
-18
-25
-34
-46
-56
-61
-64
-48
-37
-28
-25
-25
-37
-41
-53
-64
-57
-50
-42
-33
-23
-27
-46
-55
-53
-72
-68
-54
-40
-35
-28
-33
-41
-62
-73
-76
-69
-57
-48
-31
-26
-33
-41
-59
-61
-81
-72
-60
-42
-34
-21
-41
-45
-66
-70
-67
-57
-29
-9
13
24
28
23
17
-3
-18
-33
-22
-16
-26
-39
-59
-91
-113
-117
-120
-113
-97
-97
-80
-81
-80
-90
-94
-104
-102
-83
-63
-52
-43
-35
-45
-57
-71
-75
-72
-68
-43
-33
-26
-26
-38
-58
-67
-73
-68
-58
-39
-27
-18
-27
-43
-59
-64
-71
-65
-54
-42
-28
-15
-24
-35
-47
-68
-64
-64
-53
-32
-26
-21
-16
-35
-42
-54
-61
-58
-47
-26
-19
-13
-19
-17
-40
-53
-50
-49
-39
-25
-13
-6
-10
-11
-37
-41
-40
-31
-27
-7
3
8
6
-1
-20
-22
-26
-27
-13
13
13
21
15
7
-12
-16
-28
-19
-12
1
11
18
17
-5
-19
-22
-31
-32
-18
-3
4
10
-1
-18
-33
-37
-51
-47
-38
-20
-15
-16
-22
-34
-50
-58
-58
-56
-44
-35
-26
-29
-35
-44
-56
-66
-71
-64
-49
-35
-24
-29
-31
-42
-58
-67
-72
-61
-49
-37
-27
-25
-34
-46
-59
-67
-71
-64
-47
-30
-19
-22
-30
-49
-62
-67
-74
-63
-43
-34
-24
-25
-26
-49
-61
-65
-69
-55
-43
-31
-18
-23
-30
-46
-57
-65
-68
-60
-40
-29
-24
-28
-31
-56
-61
-70
-67
-63
-45
-33
-28
-26
-35
-54
-64
-70
-70
-54
-41
-31
-24
-29
-37
-60
-64
-72
-70
-53
-40
-30
-25
-31
-44
-63
-67
-67
-68
-53
-33
-33
-26
-28
-44
-60
-66
-73
-67
-59
-36
-29
-21
-30
-39
-57
-67
-68
-57
-46
-29
-29
-22
-34
-35
-54
-61
-66
-65
-47
-27
-22
-21
-28
-38
-53
-64
-73
-65
-50
-34
-34
-28
-33
-46
-69
-70
-75
-68
-51
-36
-32
-30
-42
-51
-59
-65
-75
-65
-51
-34
-28
-31
-43
-58
-69
-76
-77
-73
-57
-45
-30
-15
-15
-20
-23
-11
4
18
31
32
23
16
-7
-37
-58
-84
-100
-107
-94
-79
-74
-76
-85
-100
-106
-111
-104
-92
-69
-57
-46
-37
-48
-68
-75
-80
-73
-68
-46
-32
-28
-29
-43
-57
-64
-69
-66
-62
-44
-25
-23
-36
-42
-57
-61
-68
-63
-52
-39
-33
-21
-25
-37
-63
-53
-62
-63
-48
-39
-22
-14
-21
-32
-52
-60
-64
-54
-44
-27
-16
-13
-18
-33
-49
-57
-57
-50
-42
-22
-13
-13
-9
-22
-33
-42
-46
-43
-29
-9
-2
2
5
-11
-25
-29
-32
-21
-14
-2
17
19
21
-1
-13
-19
-22
-23
-1
12
21
21
15
-8
-17
-28
-26
-22
-14
0
5
5
-3
-20
-34
-39
-46
-43
-33
-19
-10
-13
-25
-40
-53
-55
-56
-53
-44
-24
-19
-18
-32
-48
-61
-59
-64
-58
-40
-27
-29
-26
-37
-51
-63
-68
-63
-54
-42
-28
-28
-25
-36
-53
-61
-68
-67
-60
-42
-32
-25
-24
-33
-50
-66
-66
-67
-60
-39
-33
-23
-24
-38
-51
-61
-70
-67
-55
-34
-31
-25
-28
-35
-52
-62
-68
-67
-55
-35
-27
-22
-24
-40
-54
-60
-68
-60
-52
-33
-28
-27
-30
-40
-59
-67
-71
-63
-54
-38
-28
-22
-31
-40
-58
-63
-72
-61
-53
-37
-23
-17
-33
-47
-60
-69
-72
-71
-58
-38
-32
-32
-29
-45
-64
-69
-68
-66
-48
-36
-28
-23
-33
-43
-62
-66
-70
-66
-48
-34
-30
-28
-25
-41
-59
-67
-69
-61
-48
-29
-24
-27
-32
-41
-56
-69
-65
-55
-44
-31
-25
-23
-36
-45
-60
-65
-64
-61
-49
-35
-35
-34
-43
-60
-73
-77
-76
-66
-46
-41
-36
-29
-46
-65
-72
-82
-83
-70
-47
-38
-43
-48
-50
-68
-83
-88
-86
-78
-59
-45
-24
-13
-10
-10
-11
-5
10
12
22
13
10
4
-17
-49
-76
-106
-119
-108
-91
-84
-73
-81
-90
-106
-116
-118
-108
-92
-70
-60
-56
-54
-58
-79
-87
-86
-82
-71
-54
-50
-41
-51
-62
-76
-82
-90
-80
-69
-52
-45
-40
-47
-58
-75
-80
-86
-81
-71
-54
-50
-39
-48
-58
-70
-85
-87
-77
-70
-49
-41
-44
-48
-59
-81
-82
-86
-80
-63
-53
-48
-42
-46
-64
-74
-81
-83
-73
-64
-48
-35
-36
-47
-57
-69
-72
-78
-63
-51
-36
-29
-26
-35
-50
-59
-67
-67
-59
-41
-21
-18
-16
-25
-45
-55
-56
-62
-53
-41
-28
-14
-22
-31
-50
-60
-68
-70
-62
-45
-37
-33
-39
-50
-61
-74
-85
-83
-75
-60
-55
-44
-51
-63
-85
-91
-93
-97
-89
-71
-64
-56
-59
-74
-88
-99
-108
-103
-94
-71
-65
-59
-65
-75
-93
-102
-106
-103
-96
-79
-70
-64
-67
-79
-100
-107
-110
-106
-102
-76
-68
-64
-72
-77
-97
-105
-110
-107
-95
-79
-71
-63
-70
-79
-98
-105
-105
-102
-90
-76
-75
-66
-72
-82
-96
-104
-109
-104
-92
-82
-73
-70
-74
-85
-100
-100
-106
-97
-83
-72
-65
-66
-70
-86
-100
-108
-110
-108
-90
-79
-77
-67
-76
-90
-103
-108
-116
-103
-92
-81
-68
-65
-79
-95
-106
-114
-115
-106
-94
-77
-76
-72
-81
-98
-109
-114
-111
-103
-89
-80
-73
-70
-78
-98
-105
-114
-118
-106
-92
-81
-73
-72
-84
-96
-109
-116
-117
-103
-88
-74
-70
-72
-81
-97
-109
-113
-114
-104
-88
-80
-74
-73
-77
-100
-108
-113
-111
-96
-82
-72
-62
-62
-75
-97
-109
-110
-102
-97
-77
-72
-63
-64
-78
-100
-107
-110
-103
-91
-84
-72
-67
-72
-82
-100
-105
-114
-112
-99
-83
-76
-73
-79
-85
-101
-110
-119
-115
-99
-86
-75
-62
-66
-83
-102
-108
-111
-103
-92
-77
-80
-79
-84
-96
-112
-119
-126
-122
-108
-83
-74
-57
-43
-49
-50
-39
-32
-17
-11
-2
-17
-27
-31
-63
-93
-113
-134
-141
-130
-115
-102
-94
-103
-117
-126
-130
-130
-120
-101
-83
-76
-72
-79
-91
-107
-110
-111
-102
-84
-71
-65
-59
-65
-85
-99
-103
-106
-95
-72
-65
-59
-62
-66
-84
-92
-97
-97
-87
-70
-61
-60
-61
-62
-84
-94
-93
-94
-86
-67
-59
-53
-54
-64
-77
-88
-91
-89
-78
-62
-52
-45
-47
-57
-70
-86
-93
-86
-75
-53
-49
-40
-43
-52
-65
-73
-81
-77
-63
-45
-41
-35
-37
-40
-56
-64
-64
-61
-50
-31
-23
-15
-22
-31
-50
-59
-58
-53
-47
-24
-23
-14
-24
-33
-56
-59
-60
-56
-49
-33
-26
-24
-31
-44
-65
-69
-72
-72
-62
-51
-36
-38
-46
-58
-73
-76
-83
-82
-66
-52
-43
-42
-49
-63
-79
-84
-90
-83
-68
-54
-50
-44
-53
-62
-75
-85
-82
-77
-67
-54
-45
-44
-50
-65
-78
-81
-87
-79
-62
-50
-46
-43
-54
-65
-80
-82
-84
-77
-57
-49
-42
-41
-52
-68
-73
-82
-79
-72
-54
-44
-42
-46
-50
-63
-73
-79
-78
-73
-57
-41
-31
-37
-43
-64
-78
-79
-84
-67
-44
-41
-33
-35
-49
-60
-67
-75
-78
-68
-48
-40
-32
-36
-47
-62
-74
-78
-77
-66
-50
-40
-35
-37
-47
-67
-71
-81
-71
-62
-43
-41
-38
-36
-44
-60
-73
-73
-71
-64
-43
-36
-30
-37
-44
-65
-72
-79
-75
-60
-41
-35
-30
-35
-45
-58
-71
-77
-71
-61
-39
-33
-35
-34
-48
-63
-68
-77
-67
-54
-36
-30
-29
-34
-49
-65
-68
-70
-62
-50
-39
-31
-22
-31
-52
-65
-73
-73
-63
-49
-33
-29
-29
-32
-51
-63
-68
-70
-66
-51
-37
-29
-26
-34
-55
-61
-63
-69
-63
-50
-32
-27
-27
-34
-47
-59
-68
-74
-57
-43
-34
-27
-26
-40
-51
-57
-65
-63
-59
-38
-34
-26
-27
-36
-53
-58
-70
-66
-60
-41
-31
-21
-28
-36
-50
-60
-66
-61
-56
-39
-31
-23
-22
-37
-53
-59
-62
-65
-54
-36
-25
-18
-26
-37
-56
-59
-61
-61
-51
-30
-22
-18
-21
-32
-46
-52
-64
-59
-50
-29
-27
-19
-16
-29
-45
-54
-61
-51
-44
-24
-17
-19
-23
-32
-53
-61
-64
-62
-48
-34
-23
-19
-32
-40
-55
-61
-60
-61
-53
-34
-19
-21
-31
-43
-57
-65
-71
-62
-43
-26
-19
-20
-28
-45
-60
-67
-70
-65
-52
-39
-32
-29
-34
-34
-35
-30
-19
0
29
51
56
48
29
5
-20
-36
-47
-49
-51
-57
-56
-53
-60
-75
-83
-86
-84
-79
-61
-46
-32
-29
-33
-47
-58
-63
-66
-56
-38
-25
-18
-22
-32
-40
-54
-59
-62
-48
-29
-25
-12
-16
-27
-42
-54
-60
-56
-52
-32
-21
-16
-16
-20
-36
-54
-56
-57
-45
-25
-17
-9
-18
-27
-43
-53
-55
-53
-44
-27
-18
-13
-14
-26
-42
-46
-54
-45
-35
-16
-4
-9
-11
-21
-36
-41
-46
-44
-35
-8
-6
2
1
-10
-32
-35
-40
-29
-17
-2
3
12
3
-2
-15
-24
-24
-18
-8
4
12
18
12
2
-16
-24
-28
-20
-7
4
11
17
8
-5
-21
-31
-36
-28
-16
1
5
6
-2
-15
-31
-39
-41
-35
-26
-13
-6
-8
-16
-28
-43
-49
-50
-40
-26
-13
-9
-10
-23
-35
-46
-52
-51
-39
-31
-18
-9
-8
-16
-34
-42
-49
-49
-42
-27
-16
-9
-9
-18
-37
-47
-52
-53
-43
-28
-17
-17
-12
-22
-39
-45
-54
-48
-41
-24
-16
-7
-7
-19
-35
-44
-51
-49
-34
-18
-10
-7
-9
-19
-39
-45
-53
-50
-40
-22
-16
-8
-15
-25
-42
-48
-46
-49
-37
-23
-16
-9
-9
-22
-40
-48
-58
-50
-34
-17
-15
-8
-9
-25
-42
-50
-54
-47
-33
-15
-12
-10
-14
-29
-40
-51
-55
-47
-39
-21
-15
-5
-9
-27
-45
-46
-52
-46
-38
-20
-20
-9
-9
-27
-43
-50
-55
-48
-36
-19
-8
-7
-15
-30
-39
-49
-51
-44
-31
-16
-10
-7
-16
-29
-47
-47
-54
-45
-30
-16
-12
-11
-14
-31
-43
-52
-56
-48
-28
-14
-8
-7
-15
-33
-42
-50
-50
-42
-27
-18
-12
-12
-19
-34
-45
-50
-51
-43
-31
-15
-11
-9
-20
-31
-43
-54
-49
-38
-22
-9
-6
-14
-19
-35
-44
-47
-47
-35
-25
-15
-5
-6
-19
-36
-43
-47
-45
-37
-21
-11
-6
-11
-19
-33
-43
-49
-45
-30
-15
-11
-4
-6
-20
-39
-45
-53
-45
-36
-12
-12
0
-5
-16
-36
-48
-54
-47
-39
-15
-7
-3
-9
-16
-31
-38
-48
-41
-30
-9
0
5
-1
-14
-27
-35
-38
-36
-24
-6
0
1
0
-11
-32
-35
-38
-33
-22
-9
-2
2
-4
-18
-33
-41
-45
-41
-26
-10
-8
-5
-10
-28
-44
-45
-50
-41
-31
-16
-8
0
-13
-27
-37
-46
-50
-43
-27
-12
-8
-4
-11
-32
-48
-54
-54
-45
-29
-26
-18
-13
-11
-10
-9
-5
4
26
51
62
58
45
16
-7
-21
-38
-49
-53
-53
-51
-48
-39
-46
-59
-65
-69
-67
-58
-35
-20
-14
-14
-18
-37
-46
-50
-46
-35
-14
-4
-1
-5
-13
-32
-44
-46
-44
-30
-17
-6
1
-3
-13
-28
-35
-44
-43
-28
-13
-2
6
3
-8
-27
-29
-40
-37
-24
-7
-1
2
-3
-10
-24
-36
-42
-35
-24
-10
2
8
5
-5
-27
-34
-38
-32
-20
-3
1
6
8
-6
-24
-28
-31
-20
-12
5
13
15
10
-2
-14
-20
-19
-16
-1
11
22
29
22
11
0
-10
-16
0
8
22
27
34
26
10
-2
-11
-15
-3
10
19
28
28
20
5
-10
-21
-23
-16
-1
9
16
20
4
-7
-18
-28
-30
-22
-5
2
9
17
-1
-16
-30
-34
-33
-30
-15
-5
-3
-2
1
-21
-33
-38
-34
-24
-9
-2
2
1
-3
-15
-29
-38
-32
-28
-10
2
7
2
-6
-22
-30
-39
-37
-25
-5
3
6
-1
-13
-20
-34
-42
-29
-24
-4
2
5
5
-5
-21
-32
-40
-36
-25
-7
4
11
3
-12
-25
-30
-32
-30
-17
-3
3
6
-2
-4
-25
-32
-34
-28
-17
4
7
7
1
-4
-24
-31
-37
-32
-17
1
8
11
1
-10
-25
-31
-39
-30
-19
-2
6
7
2
-8
-23
-33
-34
-26
-13
0
6
7
-4
-14
-28
-31
-35
-31
-16
1
9
14
2
-11
-27
-36
-41
-30
-12
-5
8
5
-3
-15
-30
-35
-36
-26
-8
1
10
7
-4
-19
-31
-39
-33
-21
-9
0
4
4
2
-13
-25
-34
-31
-23
-14
-2
3
7
-2
-19
-28
-32
-36
-26
-5
4
3
4
-1
-20
-29
-35
-35
-24
-6
-2
7
5
-3
-20
-27
-36
-34
-27
-4
3
8
2
-6
-20
-28
-35
-31
-21
-1
5
11
5
-6
-26
-33
-34
-35
-21
2
9
11
4
-10
-24
-35
-39
-32
-20
-6
5
12
6
-8
-25
-34
-34
-25
-18
-3
2
9
6
-5
-20
-31
-37
-33
-16
1
7
6
3
-10
-26
-30
-33
-30
-17
4
9
7
6
-8
-22
-29
-26
-22
-12
3
10
10
6
-1
-17
-29
-26
-19
-5
6
10
12
5
-8
-25
-33
-34
-27
-11
5
9
8
0
-13
-27
-36
-32
-31
-13
-3
4
11
-4
-19
-24
-36
-40
-29
-10
-1
5
6
-1
-19
-31
-42
-39
-34
-15
-5
6
11
-2
-10
-5
1
17
33
63
69
67
53
32
2
-16
-31
-35
-44
-44
-46
-38
-32
-41
-56
-62
-66
-61
-47
-24
-9
0
2
-6
-28
-31
-37
-34
-21
6
7
7
5
-2
-27
-31
-37
-28
-20
2
7
7
8
-2
-18
-22
-28
-29
-18
4
6
16
15
-7
-22
-25
-25
-24
-10
6
12
17
11
0
-14
-29
-30
-21
-7
13
14
19
13
-1
-14
-18
-20
-11
2
15
19
21
17
2
-9
-16
-16
-6
9
20
30
38
26
10
3
-4
-7
1
17
28
47
46
38
24
5
4
7
15
29
47
53
52
38
21
14
11
4
16
26
35
39
38
32
16
6
-6
-6
4
20
25
39
32
19
6
-6
-17
-13
-7
13
20
20
21
8
-6
-14
-17
-21
-12
3
13
21
18
7
-11
-19
-27
-21
-16
8
17
24
17
5
-18
-23
-29
-26
-12
7
12
17
14
1
-14
-29
-30
-24
-10
4
14
22
13
3
-14
-19
-26
-24
-11
8
17
22
17
6
-15
-22
-26
-16
-8
5
18
18
16
7
-16
-19
-27
-19
-7
11
19
18
11
-4
-17
-23
-25
-17
-9
6
11
16
11
1
-22
-29
-29
-19
-5
11
16
18
11
-3
-23
-27
-27
-15
-5
7
15
19
13
-8
-19
-28
-31
-21
-8
5
14
15
6
-11
-24
-31
-31
-24
-6
-2
8
10
-1
-14
-21
-29
-26
-22
-5
3
8
11
-6
-17
-22
-28
-35
-22
-5
8
12
6
-3
-19
-27
-33
-34
-21
-2
6
10
5
4
-11
-27
-35
-37
-21
-5
2
9
7
-2
-22
-26
-37
-32
-20
-9
4
11
4
-5
-25
-36
-40
-37
-19
-4
4
15
6
-1
-22
-40
-37
-41
-23
-4
2
8
2
-7
-23
-34
-40
-31
-18
-5
-6
9
-1
-11
-30
-36
-37
-32
-21
-3
1
2
0
-12
-32
-38
-37
-38
-27
-7
-1
1
-9
-17
-29
-39
-37
-34
-22
-9
-2
2
-10
-21
-39
-38
-40
-34
-21
-6
2
8
-1
-19
-37
-42
-42
-34
-17
-2
3
0
-8
-23
-30
-34
-35
-30
-15
-4
3
6
-4
-25
-36
-41
-43
-30
-17
-10
-5
-6
-16
-29
-43
-46
-46
-38
-18
-13
2
-6
-17
-35
-45
-51
-48
-39
-21
-14
-6
-12
-20
-35
-46
-52
-55
-44
-25
-17
-11
-14
-18
-37
-43
-46
-34
-13
21
35
50
59
52
30
5
-14
-14
-9
-9
-10
-25
-52
-64
-83
-90
-96
-95
-84
-67
-54
-49
-45
-57
-61
-70
-70
-58
-49
-29
-20
-15
-20
-29
-48
-53
-56
-49
-39
-20
-12
-5
-16
-31
-47
-50
-52
-47
-37
-19
-13
-7
-17
-29
-51
-52
-53
-40
-34
-19
-14
-8
-16
-25
-45
-49
-47
-36
-25
-13
-11
1
-12
-29
-42
-47
-51
-45
-25
-15
-7
-2
-13
-26
-38
-46
-43
-32
-20
-12
0
2
-7
-16
-29
-38
-34
-23
-6
6
16
14
6
-5
-11
-18
-21
-10
8
17
24
21
14
-4
-13
-18
-13
-8
10
15
21
13
6
-8
-18
-24
-26
-20
-3
0
7
3
-6
-27
-35
-41
-39
-34
-15
-10
-4
-9
-20
-40
-48
-49
-52
-45
-26
-22
-17
-18
-29
-51
-57
-63
-57
-49
-27
-23
-21
-18
-35
-53
-56
-64
-60
-49
-27
-23
-17
-25
-35
-52
-61
-62
-57
-48
-29
-25
-18
-22
-36
-55
-59
-64
-59
-47
-28
-24
-22
-29
-40
-52
-58
-55
-52
-39
-27
-21
-18
-22
-39
-58
-61
-59
-54
-39
-25
-24
-22
-28
-32
-52
-60
-65
-56
-41
-22
-18
-17
-29
-44
-54
-61
-65
-57
-42
-31
-24
-23
-35
-49
-58
-64
-60
-58
-40
-28
-24
-21
-28
-45
-59
-69
-68
-60
-45
-28
-19
-25
-34
-53
-61
-68
-65
-56
-38
-30
-18
-31
-37
-52
-61
-68
-67
-57
-37
-31
-26
-24
-36
-53
-62
-72
-67
-54
-40
-37
-21
-25
-35
-56
-64
-70
-66
-56
-41
-31
-28
-30
-43
-59
-59
-68
-65
-55
-34
-25
-22
-31
-40
-57
-68
-71
-61
-54
-38
-33
-25
-29
-44
-58
-64
-69
-65
-56
-35
-27
-27
-29
-41
-63
-66
-67
-62
-55
-36
-30
-25
-29
-46
-55
-65
-71
-64
-51
-37
-29
-23
-36
-44
-58
-68
-73
-66
-54
-34
-26
-28
-36
-49
-63
-68
-68
-71
-51
-37
-28
-25
-36
-54
-68
-69
-72
-63
-48
-34
-26
-27
-36
-51
-60
-67
-67
-61
-46
-32
-29
-26
-30
-43
-59
-66
-65
-55
-38
-34
-29
-28
-33
-49
-66
-68
-73
-62
-48
-41
-32
-31
-43
-59
-72
-75
-77
-69
-48
-40
-38
-41
-46
-62
-69
-78
-80
-67
-49
-40
-36
-36
-52
-68
-78
-83
-82
-70
-55
-47
-35
-37
-39
-45
-42
-31
-14
3
20
22
16
-1
-24
-47
-65
-86
-97
-96
-95
-91
-86
-86
-93
-107
-116
-118
-110
-95
-72
-62
-48
-56
-67
-83
-85
-87
-86
-76
-55
-46
-41
-51
-59
-74
-83
-83
-76
-70
-51
-46
-41
-51
-55
-77
-84
-86
-77
-69
-51
-45
-42
-47
-61
-77
-86
-86
-76
-58
-53
-43
-40
-46
-56
-71
-80
-82
-76
-61
-48
-42
-41
-45
-59
-78
-82
-77
-74
-59
-44
-39
-41
-45
-56
-70
-76
-80
-69
-52
-37
-40
-37
-42
-55
-62
-70
-71
-63
-37
-31
-23
-25
-29
-45
-54
-62
-61
-54
-37
-25
-16
-22
-29
-49
-56
-64
-64
-56
-38
-34
-25
-27
-39
-60
-70
-79
-80
-67
-49
-49
-41
-49
-58
-74
-83
-88
-90
-79
-59
-54
-48
-49
-67
-90
-91
-97
-97
-88
-70
-66
-59
-60
-73
-87
-94
-100
-100
-88
-69
-64
-59
-64
-78
-98
-105
-107
-105
-88
-69
-64
-62
-62
-70
-95
-102
-103
-101
-84
-70
-64
-57
-64
-78
-96
-99
-104
-96
-84
-68
-64
-56
-64
-88
-99
-101
-104
-100
-82
-71
-64
-61
-65
-84
-96
-101
-106
-101
-86
-72
-64
-61
-70
-84
-98
-104
-102
-97
-87
-70
-64
-66
-71
-83
-101
-108
-104
-98
-87
-71
-68
-68
-72
-90
-103
-108
-105
-99
-87
-77
-71
-71
-81
-96
-105
-110
-111
-108
-87
-77
-69
-68
-82
-100
-107
-113
-113
-106
-81
-76
-72
-73
-79
-98
-109
-116
-113
-104
-82
-75
-72
-73
-86
-101
-109
-116
-113
-104
-86
-76
-68
-72
-84
-103
-111
-118
-116
-105
-84
-79
-70
-78
-89
-108
-116
-119
-114
-102
-86
-84
-70
-81
-89
-109
-116
-120
-110
-102
-88
-84
-77
-83
-93
-108
-116
-119
-107
-98
-87
-81
-76
-81
-91
-111
-118
-116
-112
-99
-83
-78
-73
-80
-91
-105
-115
-115
-113
-95
-84
-77
-69
-73
-90
-105
-111
-114
-107
-94
-79
-80
-76
-82
-95
-112
-116
-119
-111
-97
-88
-84
-80
-86
-101
-116
-120
-122
-118
-94
-84
-79
-76
-86
-106
-117
-122
-123
-115
-97
-87
-83
-82
-93
-112
-115
-123
-124
-117
-96
-85
-77
-70
-69
-76
-74
-70
-57
-43
-27
-26
-37
-53
-62
-90
-112
-129
-145
-154
-141
-130
-127
-124
-129
-146
-147
-151
-140
-129
-105
-94
-90
-90
-101
-115
-122
-127
-123
-110
-95
-83
-74
-80
-86
-103
-118
-127
-121
-110
-91
-83
-79
-77
-93
-111
-117
-120
-116
-104
-86
-76
-73
-78
-91
-108
-112
-118
-114
-104
-85
-83
-80
-84
-94
-112
-116
-118
-114
-99
-84
-70
-68
-79
-94
-108
-114
-112
-106
-97
-81
-75
-70
-75
-86
-100
-107
-112
-104
-90
-72
-67
-62
-71
-81
-91
-99
-101
-93
-76
-56
-53
-50
-58
-71
-79
-84
-84
-81
-60
-47
-46
-49
-55
-70
-86
-89
-94
-84
-69
-54
-51
-53
-64
-80
-96
-99
-97
-91
-76
-67
-62
-60
-68
-90
-103
-108
-109
-101
-80
-73
-71
-68
-76
-95
-105
-115
-113
-104
-85
-76
-69
-80
-80
-97
-105
-111
-114
-106
-89
-75
-71
-71
-85
-101
-104
-110
-106
-101
-81
-74
-68
-74
-78
-100
-103
-111
-107
-94
-77
-76
-67
-69
-81
-99
-108
-112
-105
-93
-77
-70
-66
-69
-79
-99
-107
-111
-104
-91
-75
-71
-64
-70
-83
-100
-105
-108
-100
-86
-75
-67
-65
-68
-78
-99
-104
-111
-104
-87
-75
-68
-61
-67
-83
-94
-109
-111
-107
-89
-73
-67
-68
-72
-82
-99
-113
-109
-101
-84
-69
-68
-65
-73
-83
-92
-101
-105
-95
-82
-70
-66
-68
-73
-84
-101
-104
-104
-102
-84
-76
-70
-67
-76
-88
-98
-103
-104
-97
-78
-69
-69
-67
-76
-85
-101
-105
-101
-92
-84
-70
-58
-63
-74
-88
-100
-110
-98
-89
-77
-70
-63
-68
-74
-89
-101
-110
-109
-93
-70
-63
-62
-65
-74
-90
-102
-104
-100
-91
-76
-68
-62
-60
-68
-85
-96
-100
-95
-84
-67
-59
-53
-55
-66
-86
-94
-96
-90
-78
-60
-53
-50
-50
-66
-82
-91
-95
-91
-82
-70
-64
-54
-62
-71
-89
-98
-101
-96
-84
-67
-63
-57
-65
-76
-91
-93
-103
-103
-83
-64
-59
-54
-58
-74
-92
-100
-98
-97
-84
-67
-64
-55
-62
-77
-95
-93
-91
-81
-59
-36
-16
-6
-2
-8
-21
-38
-58
-63
-58
-53
-55
-68
-89
-121
-135
-143
-144
-129
-113
-95
-83
-82
-83
-93
-103
-102
-102
-91
-71
-59
-51
-46
-60
-81
-80
-85
-88
-77
-67
-56
-46
-44
-51
-70
-83
-88
-87
-79
-58
-50
-42
-42
-50
-67
-78
-81
-83
-75
-57
-46
-41
-44
-50
-68
-77
-83
-78
-69
-52
-45
-38
-41
-50
-70
-77
-83
-76
-64
-44
-38
-28
-34
-44
-60
-66
-70
-65
-56
-39
-32
-20
-26
-41
-54
-58
-59
-56
-47
-24
-21
-15
-13
-23
-40
-48
-54
-42
-32
-17
-9
-5
-7
-16
-30
-39
-43
-46
-36
-13
-8
-5
-12
-24
-43
-44
-52
-49
-31
-22
-17
-14
-24
-37
-52
-60
-60
-57
-45
-29
-25
-23
-32
-46
-61
-68
-71
-67
-49
-34
-28
-30
-36
-49
-65
-72
-73
-65
-50
-37
-35
-30
-38
-50
-60
-72
-70
-58
-47
-35
-31
-28
-37
-49
-61
-68
-66
-61
-44
-34
-25
-30
-33
-46
-58
-68
-67
-57
-37
-29
-26
-26
-34
-46
-55
-72
-67
-57
-39
-30
-19
-21
-32
-54
-61
-64
-66
-54
-33
-29
-19
-21
-36
-57
-58
-63
-60
-55
-39
-31
-23
-26
-31
-57
-63
-65
-60
-53
-34
-26
-23
-26
-41
-57
-60
-67
-61
-48
-30
-28
-22
-28
-36
-51
-57
-64
-61
-54
-30
-27
-23
-24
-39
-51
-60
-67
-61
-48
-33
-26
-25
-30
-39
-60
-64
-67
-65
-51
-33
-23
-21
-27
-43
-56
-58
-66
-58
-48
-32
-25
-24
-28
-44
-62
-65
-65
-57
-45
-32
-29
-23
-28
-43
-59
-64
-67
-60
-41
-30
-25
-22
-22
-40
-53
-62
-66
-56
-42
-33
-19
-17
-25
-44
-58
-62
-66
-56
-41
-32
-20
-23
-26
-47
-66
-73
-68
-61
-42
-37
-29
-31
-41
-56
-66
-74
-73
-65
-48
-39
-30
-31
-41
-60
-73
-75
-71
-66
-46
-37
-33
-37
-46
-61
-70
-76
-75
-65
-47
-35
-20
-16
-16
-23
-19
-15
-8
-6
4
-7
-10
-28
-46
-73
-89
-110
-126
-123
-102
-90
-81
-82
-87
-102
-104
-105
-96
-81
-59
-52
-44
-44
-57
-73
-76
-80
-77
-70
-47
-40
-38
-44
-58
-74
-81
-84
-73
-66
-47
-42
-39
-43
-52
-72
-74
-83
-78
-63
-44
-41
-39
-47
-56
-74
-78
-82
-74
-65
-51
-43
-36
-42
-56
-72
-77
-80
-74
-59
-50
-45
-37
-44
-59
-72
-76
-76
-77
-62
-41
-35
-38
-43
-58
-71
-74
-73
-68
-50
-37
-28
-28
-26
-46
-55
-62
-58
-52
-42
-29
-22
-21
-31
-45
-57
-62
-60
-50
-35
-32
-24
-23
-32
-49
-62
-72
-73
-57
-44
-38
-29
-33
-43
-64
-73
-79
-82
-74
-58
-44
-43
-46
-55
-72
-84
-92
-92
-83
-61
-59
-51
-53
-68
-89
-94
-101
-94
-89
-67
-64
-56
-60
-69
-91
-98
-98
-92
-83
-65
-56
-55
-62
-71
-90
-99
-101
-97
-85
-69
-64
-61
-64
-72
-87
-92
-100
-97
-85
-72
-67
-58
-66
-75
-95
-97
-101
-96
-86
-68
-64
-56
-62
-78
-94
-99
-104
-98
-85
-70
-69
-61
-67
-80
-100
-104
-105
-98
-83
-66
-63
-63
-69
-83
-101
-102
-100
-96
-83
-74
-67
-64
-75
-92
-102
-104
-105
-98
-83
-72
-67
-62
-68
-88
-104
-108
-109
-97
-82
-70
-65
-64
-73
-87
-98
-108
-104
-97
-83
-77
-71
-65
-77
-98
-102
-102
-103
-100
-81
-73
-68
-69
-76
-92
-101
-110
-108
-99
-81
-70
-66
-67
-76
-94
-97
-101
-101
-93
-78
-67
-58
-63
-71
-87
-95
-98
-97
-89
-67
-62
-56
-59
-72
-90
-96
-102
-99
-88
-68
-65
-60
-64
-73
-94
-98
-104
-104
-89
-72
-70
-67
-71
-81
-93
-102
-105
-102
-91
-69
-67
-64
-64
-79
-95
-101
-103
-99
-90
-71
-63
-62
-65
-75
-93
-101
-103
-93
-79
-57
-48
-34
-28
-31
-38
-33
-42
-49
-49
-43
-51
-60
-73
-98
-133
-153
-157
-149
-133
-116
-106
-101
-102
-108
-110
-116
-113
-106
-86
-67
-56
-56
-61
-78
-92
-98
-97
-87
-73
-59
-52
-50
-60
-71
-87
-94
-90
-79
-65
-57
-53
-48
-57
-71
-81
-89
-89
-83
-60
-52
-47
-47
-50
-69
-75
-82
-82
-76
-54
-48
-39
-42
-50
-70
-75
-79
-81
-68
-50
-44
-33
-35
-44
-61
-64
-76
-69
-55
-41
-34
-30
-27
-34
-49
-54
-64
-59
-42
-26
-22
-14
-13
-23
-40
-46
-48
-43
-33
-14
-10
-3
-7
-14
-34
-42
-45
-41
-30
-13
-5
-1
-12
-15
-36
-42
-51
-47
-34
-15
-15
-15
-17
-28
-44
-51
-56
-52
-44
-27
-17
-13
-25
-32
-54
-60
-68
-65
-51
-33
-25
-23
-34
-46
-62
-69
-68
-63
-51
-35
-31
-28
-30
-47
-60
-62
-68
-60
-49
-31
-28
-27
-36
-47
-59
-62
-64
-60
-42
-34
-22
-22
-32
-47
-57
-66
-58
-58
-43
-35
-28
-27
-35
-49
-51
-64
-64
-55
-38
-29
-21
-22
-32
-50
-54
-61
-63
-55
-40
-33
-19
-19
-30
-48
-58
-68
-62
-51
-31
-24
-18
-18
-27
-49
-56
-63
-62
-54
-38
-29
-22
-24
-33
-47
-55
-67
-63
-50
-29
-22
-17
-19
-28
-46
-60
-56
-54
-48
-35
-27
-16
-21
-28
-47
-57
-63
-63
-47
-29
-19
-13
-17
-30
-47
-51
-54
-55
-45
-25
-16
-15
-14
-28
-48
-51
-56
-43
-37
-19
-13
-15
-12
-26
-42
-45
-51
-44
-36
-24
-13
-5
-15
-29
-42
-51
-61
-54
-37
-20
-16
-14
-23
-36
-46
-59
-54
-45
-36
-20
-17
-12
-24
-33
-47
-52
-55
-52
-41
-17
-13
-14
-18
-36
-51
-58
-53
-42
-30
-16
-7
3
-4
-15
-19
-18
-11
10
36
50
48
35
13
-18
-39
-52
-63
-66
-69
-69
-66
-65
-71
-91
-100
-105
-99
-82
-58
-42
-35
-33
-33
-48
-55
-61
-57
-51
-26
-20
-9
-8
-16
-35
-42
-50
-44
-37
-18
-11
3
-5
-18
-31
-40
-45
-42
-33
-20
-7
0
-1
-11
-30
-37
-43
-41
-33
-7
6
10
0
-12
-34
-33
-39
-35
-20
-4
3
10
5
2
-22
-28
-39
-32
-17
4
11
17
10
0
-10
-18
-22
-20
-5
21
18
27
23
11
-2
-7
-13
1
15
24
37
43
38
27
7
0
-1
9
23
36
42
43
37
24
12
3
-3
2
17
33
36
38
30
9
-4
-11
-17
-7
4
18
24
24
15
-3
-16
-27
-24
-23
-4
5
12
11
1
-18
-30
-35
-38
-30
-14
-2
4
4
-4
-23
-32
-39
-37
-30
-20
-7
3
2
-3
-21
-34
-33
-34
-31
-9
1
6
2
-3
-21
-29
-37
-36
-29
-12
2
4
2
-7
-23
-30
-38
-36
-27
-6
-1
5
-1
-7
-22
-29
-38
-32
-25
-11
-2
4
-3
-12
-28
-37
-42
-36
-26
-5
3
6
3
-8
-28
-35
-42
-37
-22
-7
-6
4
1
-13
-28
-35
-38
-33
-20
-1
0
4
4
-9
-29
-34
-33
-29
-19
2
9
10
4
-6
-22
-31
-33
-20
-11
1
9
12
8
-7
-23
-32
-34
-31
-19
-1
6
11
-1
-18
-32
-40
-40
-36
-18
-9
-3
-2
-11
-22
-34
-41
-44
-35
-24
-13
-2
0
-10
-24
-36
-38
-39
-32
-17
-9
-3
-2
-9
-26
-30
-27
-23
-5
24
45
63
75
68
38
13
0
-14
-17
-9
-17
-32
-45
-58
-77
-82
-86
-86
-75
-58
-49
-35
-37
-40
-55
-58
-63
-52
-41
-19
-10
1
-5
-12
-32
-34
-41
-40
-28
-11
1
8
4
-11
-28
-33
-39
-40
-28
-9
2
7
4
-9
-25
-31
-36
-29
-20
-2
4
7
5
-7
-22
-24
-30
-29
-19
-1
8
9
8
-8
-22
-25
-27
-23
-9
14
16
18
13
3
-12
-14
-18
-11
4
21
28
31
25
13
0
-1
-2
7
19
35
44
47
45
26
12
14
15
23
36
43
52
53
49
31
22
12
9
14
28
44
51
48
38
22
5
-1
-4
3
16
26
30
34
24
7
-13
-21
-22
-10
2
6
18
10
3
-10
-22
-31
-33
-22
-6
3
11
7
-1
-16
-32
-37
-34
-25
-9
5
5
2
-4
-20
-29
-40
-39
-28
-10
-3
5
2
-4
-21
-32
-39
-27
-22
-2
4
12
7
-6
-28
-26
-36
-31
-18
0
4
10
9
-5
-22
-34
-34
-28
-23
-5
1
10
3
-8
-27
-30
-32
-32
-23
-2
8
12
4
-10
-22
-33
-37
-29
-20
1
9
8
5
-9
-31
-30
-34
-29
-17
0
4
5
-2
-11
-28
-31
-35
-21
-13
-4
7
8
0
-10
-28
-30
-32
-30
-19
-6
4
9
3
-10
-24
-29
-33
-29
-13
1
5
8
1
-12
-26
-36
-34
-25
-10
3
9
17
13
-8
-19
-27
-33
-23
-4
9
13
11
0
-18
-25
-27
-29
-23
-7
3
11
9
1
-16
-26
-35
-35
-26
-8
1
10
8
-2
-21
-27
-37
-35
-25
-6
4
8
7
-3
-22
-31
-37
-37
-29
-6
4
3
-3
-9
-25
-33
-44
-38
-26
-1
12
31
38
43
33
37
37
41
44
45
36
35
22
-5
-39
-62
-78
-76
-63
-43
-39
-32
-34
-41
-53
-59
-57
-44
-27
-13
-1
7
3
-13
-29
-32
-36
-34
-18
-2
6
10
6
-8
-22
-30
-32
-27
-16
5
6
6
6
-8
-20
-27
-23
-23
-14
2
12
10
4
-8
-24
-29
-28
-21
-2
9
12
16
10
-4
-19
-27
-25
-18
-5
11
16
18
10
-5
-12
-22
-22
-12
1
17
22
23
14
2
-6
-11
-14
-7
9
24
31
33
32
15
0
-8
-2
7
24
28
41
39
32
15
6
2
-1
8
26
31
40
42
31
11
-2
-8
-4
0
17
26
32
29
19
-1
-13
-17
-16
-7
9
17
20
15
8
-12
-21
-28
-23
-12
4
11
13
10
-1
-17
-26
-31
-26
-18
0
11
16
7
-3
-21
-26
-34
-29
-19
1
9
13
10
-3
-15
-26
-30
-28
-15
2
6
12
4
-5
-22
-31
-33
-27
-16
4
8
13
6
-6
-23
-27
-32
-28
-14
2
7
8
3
-9
-24
-35
-29
-25
-15
-4
5
9
2
-11
-23
-35
-35
-32
-16
-4
0
1
-5
-18
-29
-35
-37
-32
-15
-5
1
0
-8
-20
-33
-44
-42
-29
-17
-7
2
0
-8
-24
-36
-42
-41
-32
-18
-6
1
-2
-7
-24
-36
-39
-38
-36
-20
-4
0
0
-10
-31
-41
-48
-42
-36
-19
-12
-7
-11
-22
-40
-47
-56
-57
-48
-29
-18
-14
-16
-26
-44
-53
-55
-53
-46
-25
-21
-16
-20
-32
-51
-57
-62
-59
-53
-31
-27
-21
-26
-40
-48
-54
-55
-46
-23
4
21
36
33
20
-7
-30
-50
-57
-58
-49
-55
-64
-85
-102
-115
-116
-115
-107
-93
-70
-64
-56
-55
-64
-78
-82
-85
-75
-60
-49
-40
-33
-45
-55
-73
-82
-84
-75
-64
-45
-32
-37
-43
-57
-73
-79
-81
-75
-64
-50
-48
-43
-49
-62
-79
-85
-86
-79
-63
-54
-47
-44
-49
-65
-78
-84
-89
-81
-66
-53
-49
-53
-58
-73
-80
-86
-90
-83
-67
-54
-46
-51
-61
-74
-78
-87
-90
-82
-62
-57
-48
-44
-51
-74
-84
-87
-83
-77
-46
-44
-40
-42
-50
-64
-74
-82
-82
-72
-52
-42
-42
-43
-51
-67
-76
-88
-86
-74
-63
-52
-47
-49
-64
-82
-94
-99
-95
-88
-64
-66
-60
-58
-77
-99
-104
-113
-111
-99
-83
-78
-73
-78
-90
-109
-116
-120
-112
-97
-84
-82
-74
-80
-92
-110
-111
-123
-115
-105
-83
-81
-77
-84
-95
-110
-119
-125
-122
-108
-92
-79
-74
-77
-94
-113
-121
-126
-116
-101
-87
-81
-77
-87
-99
-109
-118
-118
-111
-103
-85
-85
-79
-86
-102
-113
-119
-117
-111
-95
-81
-76
-82
-87
-108
-112
-119
-115
-111
-99
-86
-79
-77
-87
-101
-107
-112
-114
-110
-92
-78
-80
-79
-83
-102
-109
-112
-116
-109
-90
-79
-78
-70
-82
-99
-106
-109
-111
-102
-85
-74
-69
-67
-70
-90
-97
-104
-102
-97
-76
-69
-63
-60
-74
-95
-95
-103
-97
-83
-67
-58
-50
-49
-60
-78
-89
-98
-89
-78
-61
-54
-45
-48
-50
-74
-86
-87
-81
-70
-47
-42
-31
-45
-59
-73
-77
-86
-82
-66
-48
-39
-34
-44
-53
-69
-72
-72
-71
-60
-39
-31
-32
-36
-44
-59
-66
-75
-68
-50
-31
-28
-20
-32
-39
-59
-65
-65
-58
-47
-32
-22
-14
-12
-10
-15
-12
-1
22
29
38
33
15
-1
-22
-42
-60
-71
-79
-76
-65
-51
-50
-50
-52
-68
-68
-67
-56
-28
-16
-6
1
-8
-19
-34
-34
-38
-25
-9
7
12
14
7
-4
-20
-25
-23
-14
1
13
21
25
25
9
-2
-10
-4
6
22
25
34
33
30
10
1
0
3
13
35
42
48
44
37
24
21
15
14
21
42
53
57
67
49
35
28
24
30
40
57
77
76
69
64
47
46
41
41
48
74
84
90
88
76
58
61
59
65
76
96
102
106
102
94
75
77
70
