8
6
17
20
43
40
44
29
13
13
16
9
13
39
52
50
39
28
26
11
7
10
11
30
58
40
39
30
21
14
7
14
13
41
38
29
41
38
14
16
18
20
18
27
51
44
29
21
21
7
7
14
31
27
45
37
33
29
14
7
13
15
15
38
38
40
37
24
11
-4
11
20
23
32
44
43
33
27
13
-5
2
11
23
29
48
42
25
25
8
2
14
10
21
16
47
49
17
35
8
3
10
15
19
37
34
33
32
16
12
-9
0
23
22
38
43
40
36
20
-2
3
11
18
15
31
37
37
23
20
13
-4
10
17
17
38
36
32
31
10
13
2
13
10
19
39
39
35
23
13
4
-15
15
14
30
32
38
35
32
22
0
-3
8
12
24
42
43
34
20
17
0
4
14
21
19
46
34
35
35
13
1
12
14
23
33
44
37
43
38
31
14
6
11
20
43
49
46
44
41
24
-1
20
19
25
27
45
57
22
33
16
10
9
10
19
26
34
38
26
19
13
4
18
9
4
27
40
34
28
24
5
-8
-2
14
19
35
30
28
17
14
-5
-16
-10
-9
6
24
44
64
71
97
91
109
126
141
158
155
137
108
103
60
15
-1
-21
-25
-17
-7
8
4
7
-3
-9
-16
-6
19
23
34
39
28
18
22
3
-1
19
19
29
24
46
36
17
22
12
3
18
15
23
37
35
35
33
18
10
12
20
17
33
44
41
49
39
25
5
11
19
26
33
44
49
39
30
26
10
9
24
24
34
46
47
51
41
25
14
22
24
23
51
49
50
56
53
39
14
28
33
40
57
64
55
50
57
41
33
32
45
55
64
72
76
73
61
45
39
50
53
52
79
79
81
83
67
48
44
58
50
61
74
88
82
78
71
53
49
40
55
69
74
74
73
74
64
40
35
38
45
54
60
63
65
49
44
33
22
24
25
37
51
53
48
37
20
9
13
9
17
23
34
39
37
32
21
-6
-2
8
11
20
41
36
41
28
22
9
5
4
17
24
40
42
32
32
21
18
-9
5
20
28
43
46
37
41
15
3
10
16
19
22
41
47
40
34
14
4
2
10
11
30
32
49
46
32
22
6
14
3
26
28
35
49
29
24
24
0
11
11
20
30
44
40
32
27
15
2
5
15
10
18
45
43
32
26
12
-5
7
3
18
31
49
33
21
29
7
5
4
3
21
14
37
40
30
25
10
-7
0
7
13
29
37
33
23
24
-1
10
3
8
6
33
29
27
29
27
3
2
7
13
15
30
32
28
33
7
3
-7
3
16
28
24
34
30
34
25
-6
-6
13
5
21
32
28
29
21
20
1
1
6
12
23
25
48
24
21
13
0
0
5
15
24
28
24
22
18
15
-13
2
11
7
16
36
31
32
26
12
0
-8
5
3
19
29
37
35
21
6
4
3
7
10
30
38
35
22
26
17
1
14
7
18
30
46
49
43
24
10
10
16
12
24
30
41
57
36
26
20
5
4
11
11
21
47
46
27
27
4
-5
-1
17
15
33
35
34
28
19
-4
-6
-7
17
12
37
33
41
27
19
4
-1
-1
-3
17
25
35
31
15
10
-5
-17
-19
-17
24
45
77
91
97
108
112
133
127
124
111
107
108
91
64
12
-32
-58
-43
-37
-32
-10
3
-10
5
-3
-12
-20
-10
17
7
23
40
31
24
13
1
7
15
13
27
37
40
41
31
24
1
9
12
17
24
42
47
36
32
29
6
6
11
19
22
47
51
37
38
24
17
6
30
15
30
39
40
42
38
27
8
6
32
36
46
55
47
50
45
20
19
25
26
32
44
62
57
52
44
36
22
29
32
40
48
61
62
60
57
34
25
39
49
51
60
70
76
71
65
50
34
52
47
43
76
76
73
73
72
53
46
57
58
62
72
85
80
74
52
48
44
42
52
57
71
77
73
69
50
41
34
32
39
51
54
64
57
51
27
17
13
18
32
24
42
50
25
22
27
16
5
6
5
17
32
36
29
21
20
6
0
13
11
6
28
29
27
17
9
3
-7
17
10
22
34
24
38
34
5
1
-2
5
10
22
30
41
33
26
15
2
0
7
5
36
31
39
25
36
17
3
9
10
10
26
32
39
38
8
13
-3
4
9
11
22
41
34
23
24
16
1
3
12
14
27
37
31
29
21
-4
-15
-7
0
9
26
37
33
29
22
6
-7
-11
-5
18
26
32
27
23
17
5
-3
-3
-5
4
21
31
26
24
25
-8
-16
3
3
4
20
35
30
21
10
-7
-3
-11
-7
3
22
26
26
25
10
-6
-16
-10
-3
7
26
23
18
23
-7
-11
4
0
1
7
18
26
26
22
10
-5
-12
-9
-8
5
25
24
26
19
7
-3
-7
-2
1
14
13
24
24
15
-1
-9
-14
-1
-3
7
21
28
20
16
-3
-4
-21
-4
1
19
30
21
19
18
4
-8
-6
5
4
9
23
19
15
20
10
-12
-6
-8
9
20
33
25
26
21
3
-4
2
-2
23
27
33
32
30
18
5
5
4
6
19
39
29
26
24
16
7
-6
-5
-5
2
7
27
29
16
12
-11
-20
1
-16
3
17
26
19
21
6
-3
-21
-10
-8
2
22
23
24
6
-4
-12
-13
-21
-20
-15
2
19
6
-6
22
15
22
46
57
85
136
153
148
135
115
71
45
47
13
8
-21
-21
-13
-21
-34
-32
-30
-33
-17
-6
4
14
10
2
0
3
-18
-13
-6
7
25
28
25
16
5
-9
-3
-8
-9
10
23
27
22
18
3
-5
-18
-4
7
21
26
25
26
12
11
-5
-3
-10
3
13
35
37
22
25
5
-4
-9
5
2
18
28
31
20
26
12
-4
-4
-1
9
23
30
31
34
25
12
7
-10
11
13
24
32
44
38
34
17
4
16
5
27
45
57
46
43
45
17
11
28
20
28
44
61
49
56
47
30
28
24
39
35
48
65
59
58
46
43
27
14
43
42
56
63
52
50
43
26
15
20
33
39
47
44
49
37
28
-3
15
4
11
19
23
23
32
27
21
-9
-2
-1
-5
8
15
26
6
15
0
-22
-17
-16
2
2
18
9
15
9
0
-24
-18
-5
-19
-3
11
27
19
8
1
-10
-11
-7
-9
2
14
22
15
11
-2
-23
-23
-12
8
7
23
17
14
18
0
-7
-19
-10
1
8
20
19
14
9
9
-13
-8
-5
-3
10
24
23
9
9
-3
-13
-12
-9
-1
4
17
21
9
10
4
-16
-12
-10
-6
9
22
6
9
12
-11
-22
-16
-10
-1
13
18
14
1
13
-6
-19
-19
-20
2
12
20
14
11
-5
-6
-18
-29
-11
-9
12
14
15
1
-5
-5
-13
-18
-11
-9
2
17
7
5
0
-13
-21
-14
-18
-8
9
19
14
8
0
-18
-19
-26
-13
2
-2
16
15
1
-3
-10
-24
-24
-8
-6
3
21
11
-1
2
-10
-16
-15
-11
-9
3
14
12
1
-10
-16
-16
-21
-20
-8
14
9
13
6
0
-3
-29
-25
-15
4
17
11
13
4
2
-13
-15
-16
-3
11
26
9
29
8
1
-6
-9
-12
-1
11
29
18
20
13
0
-5
-15
-3
1
13
20
13
19
6
-13
-19
-26
-15
-17
4
14
10
16
-5
-9
-27
-19
-12
-12
5
6
15
-1
-9
-17
-28
-30
-13
-8
10
16
14
5
-1
-21
-37
-29
-33
-28
-8
1
-6
4
10
9
31
48
72
96
128
142
144
126
96
63
44
18
4
-17
-38
-30
-27
-43
-41
-38
-52
-35
-26
-13
9
13
16
0
-4
-14
-19
-19
-14
-1
15
17
11
-1
3
-16
-22
-13
-10
5
19
16
11
6
-6
-5
-15
-8
-5
3
20
21
20
-2
-3
-20
-4
-11
3
10
13
21
23
9
2
-4
-10
-5
-2
12
28
21
21
23
-2
-11
1
-1
-3
22
30
32
33
31
7
-6
-2
6
12
30
30
37
32
23
17
14
-4
17
14
40
44
50
40
45
27
23
25
22
36
50
62
47
51
43
31
30
33
28
41
58
61
63
56
48
36
29
35
30
31
45
61
56
56
41
32
19
28
29
17
29
46
38
41
30
20
11
7
1
24
27
34
20
25
10
-11
-12
-21
-7
13
11
16
12
4
3
-8
-20
-20
-3
-9
9
17
9
17
4
-15
-15
-21
-10
-2
11
22
10
0
0
-14
-15
-10
-3
0
14
20
16
4
-1
-16
-8
-8
-15
12
17
17
21
12
-4
-14
-16
-24
0
10
24
21
11
17
-10
-15
-17
-12
-2
13
21
16
6
12
-2
-22
-15
0
-6
6
13
25
14
23
-2
-17
-21
-6
-7
4
17
14
8
11
5
-25
-12
-13
-3
13
10
14
3
5
-6
-23
-17
-14
-11
13
6
20
16
8
-7
-18
-13
-16
-10
6
13
16
20
11
-8
-23
-18
-14
-4
11
12
3
7
15
-10
-19
-20
-3
1
8
16
20
13
1
-6
-23
-15
-11
-4
4
18
16
9
1
-11
-21
-13
-12
-9
9
14
14
9
-4
-17
-20
-10
-8
-13
19
18
18
7
-3
-9
-21
-18
-8
-6
11
19
13
3
2
-11
-12
-10
-6
-7
12
13
25
2
-3
-18
-16
-4
-1
4
16
30
19
12
3
-8
-11
-3
-7
14
25
27
23
10
11
-5
-4
-11
6
8
19
16
14
18
5
-17
-20
-4
-8
0
13
11
8
1
-9
-23
-25
-16
-12
-9
13
4
2
-8
-12
-25
-19
-20
-12
2
4
6
-1
-14
-9
-32
-28
-15
-22
-18
3
-3
-5
-10
-19
-24
12
28
44
76
114
126
128
119
95
53
44
41
30
8
-20
-55
-64
-49
-65
-71
-64
-65
-45
-35
-19
-11
-14
-20
-35
-37
-32
-18
-13
2
-1
5
-15
-15
-28
-32
-27
-19
-16
-5
9
5
-8
-12
-29
-32
-25
-21
-8
14
10
0
-3
-10
-26
-30
-28
-19
-9
6
14
-6
-8
-7
-32
-34
-15
-32
-6
11
13
3
-10
-5
-32
-21
-23
-19
-3
17
7
4
12
-6
-21
-28
-14
-11
-2
8
9
20
12
-8
-21
-9
-14
-8
10
2
28
27
33
-2
-11
-7
-8
10
24
28
25
26
20
6
0
1
4
19
11
40
33
32
27
12
-7
0
6
6
26
35
32
20
18
1
-10
-15
-1
8
14
21
4
6
0
-16
-27
-26
-19
-17
0
3
8
-24
-27
-29
-42
-42
-35
-40
-20
-9
-25
-24
-31
-49
-60
-49
-58
-41
-30
-21
-30
-38
-45
-51
-51
-59
-53
-46
-31
-21
-25
-33
-47
-55
-71
-63
-50
-39
-26
-25
-28
-30
-41
-58
-61
-56
-63
-49
-29
-20
-34
-32
-53
-51
-60
-55
-52
-42
-31
-25
-35
-38
-43
-67
-67
-61
-54
-44
-35
-31
-32
-42
-57
-51
-73
-59
-51
-43
-28
-32
-39
-35
-58
-73
-63
-57
-64
-42
-38
-38
-43
-65
-61
-60
-75
-66
-59
-58
-33
-39
-48
-46
-54
-69
-74
-68
-70
-48
-40
-39
-44
-44
-70
-73
-71
-66
-62
-58
-47
-43
-45
-47
-71
-93
-74
-58
-60
-50
-42
-48
-49
-51
-78
-79
-78
-74
-80
-46
-38
-48
-47
-58
-70
-86
-75
-76
-71
-52
-47
-44
-52
-57
-78
-82
-75
-69
-63
-57
-41
-45
-57
-64
-76
-93
-81
-79
-65
-45
-50
-54
-59
-58
-78
-86
-81
-74
-64
-54
-51
-46
-43
-61
-78
-85
-78
-66
-66
-44
-43
-43
-51
-57
-75
-79
-73
-65
-60
-45
-42
-54
-56
-61
-62
-80
-98
-88
-90
-86
-71
-60
-58
-69
-66
-86
-100
-99
-92
-86
-74
-55
-62
-74
-75
-82
-105
-112
-104
-104
-92
-85
-60
-41
-39
-30
-24
-10
29
38
64
64
49
11
-5
-40
-66
-95
-128
-139
-114
-99
-103
-100
-100
-109
-127
-118
-96
-95
-68
-70
-64
-67
-81
-78
-94
-104
-88
-77
-72
-60
-77
-66
-64
-87
-102
-93
-81
-83
-65
-61
-59
-70
-65
-81
-94
-93
-85
-78
-56
-52
-65
-59
-67
-85
-97
-85
-83
-74
-56
-54
-56
-61
-65
-84
-89
-90
-83
-62
-66
-48
-43
-54
-62
-79
-91
-87
-81
-71
-50
-42
-55
-56
-75
-72
-78
-79
-65
-72
-30
-39
-59
-46
-48
-66
-80
-68
-58
-44
-36
-30
-32
-36
-52
-55
-60
-50
-44
-32
-25
-14
-35
-29
-33
-55
-52
-52
-48
-33
-23
-24
-6
-30
-47
-59
-56
-50
-48
-42
-28
-24
-29
-30
-61
-61
-59
-61
-57
-47
-41
-40
-53
-62
-72
-82
-89
-77
-76
-67
-54
-68
-64
-68
-87
-97
-92
-92
-90
-79
-72
-72
-78
-76
-92
-95
-115
-104
-96
-83
-67
-71
-68
-79
-109
-99
-105
-96
-102
-63
-71
-68
-81
-80
-100
-103
-107
-89
-92
-77
-66
-71
-76
-85
-96
-104
-101
-96
-84
-69
-70
-72
-76
-83
-91
-100
-91
-89
-88
-75
-63
-68
-73
-81
-98
-108
-110
-90
-81
-71
-60
-71
-71
-85
-101
-106
-98
-98
-83
-75
-77
-71
-83
-83
-96
-104
-92
-100
-86
-73
-70
-74
-76
-88
-103
-109
-104
-104
-74
-86
-77
-79
-78
-87
-110
-104
-103
-100
-92
-83
-63
-85
-80
-101
-111
-96
-92
-98
-89
-74
-74
-74
-79
-98
-113
-96
-96
-100
-90
-65
-71
-75
-86
-101
-111
-117
-96
-97
-85
-75
-80
-79
-87
-91
-105
-109
-104
-97
-79
-80
-84
-77
-85
-99
-108
-110
-100
-94
-83
-74
-75
-91
-82
-91
-101
-101
-95
-104
-82
-74
-77
-84
-91
-93
-100
-101
-94
-96
-74
-69
-74
-89
-78
-96
-106
-102
-88
-85
-75
-70
-64
-73
-76
-91
-89
-95
-89
-84
-72
-60
-67
-75
-76
-95
-96
-93
-86
-86
-66
-70
-71
-78
-83
-97
-109
-108
-100
-88
-82
-71
-79
-81
-89
-112
-109
-109
-95
-87
-66
-87
-75
-71
-80
-106
-115
-108
-107
-90
-83
-81
-71
-73
-78
-107
-113
-116
-111
-102
-95
-90
-96
-87
-88
-79
-62
-40
-26
21
37
66
64
48
14
-31
-31
-40
-65
-90
-108
-112
-117
-121
-128
-140
-134
-122
-107
-100
-83
-80
-70
-81
-93
-103
-95
-91
-94
-83
-72
-71
-75
-85
-101
-106
-103
-90
-90
-75
-59
-65
-67
-79
-98
-93
-98
-98
-88
-67
-65
-70
-72
-76
-85
-100
-106
-81
-91
-70
-60
-66
-56
-63
-89
-88
-99
-79
-76
-63
-53
-58
-72
-70
-86
-86
-85
-76
-69
-52
-61
-50
-59
-63
-72
-84
-79
-75
-71
-41
-43
-50
-52
-58
-73
-77
-66
-60
-58
-36
-22
-41
-39
-47
-62
-64
-53
-54
-40
-25
-21
-20
-31
-34
-48
-50
-47
-43
-33
-16
-15
-17
-27
-41
-45
-50
-40
-35
-45
-23
-3
-25
-25
-41
-50
-56
-54
-49
-37
-34
-18
-36
-46
-58
-68
-73
-69
-63
-56
-45
-49
-49
-54
-75
-88
-86
-78
-86
-77
-58
-48
-63
-73
-83
-96
-99
-97
-93
-69
-44
-71
-71
-78
-89
-85
-99
-91
-84
-67
-55
-62
-74
-74
-86
-95
-91
-88
-73
-59
-63
-65
-68
-62
-80
-97
-90
-76
-81
-72
-60
-54
-74
-69
-85
-94
-84
-82
-64
-63
-53
-58
-61
-72
-91
-88
-86
-83
-69
-63
-50
-57
-61
-70
-89
-94
-84
-69
-78
-62
-44
-60
-56
-75
-93
-89
-86
-77
-69
-57
-49
-70
-54
-72
-88
-101
-82
-86
-81
-56
-46
-54
-59
-76
-89
-91
-88
-79
-72
-68
-40
-58
-67
-80
-81
-95
-86
-79
-77
-58
-56
-72
-73
-71
-86
-86
-89
-84
-78
-57
-54
-60
-81
-75
-96
-96
-85
-82
-73
-54
-54
-66
-64
-75
-89
-88
-82
-85
-65
-50
-62
-67
-60
-71
-89
-96
-79
-72
-71
-57
-55
-54
-62
-81
-79
-83
-75
-71
-40
-49
-44
-52
-53
-75
-84
-80
-70
-71
-51
-38
-35
-52
-55
-80
-89
-82
-81
-70
-57
-59
-59
-54
-64
-86
-86
-86
-82
-79
-65
-47
-51
-58
-67
-77
-95
-102
-75
-80
-57
-51
-58
-64
-56
-88
-100
-82
-81
-72
-61
-72
-51
-70
-85
-91
-97
-90
-89
-81
-48
-32
-27
-5
13
3
12
35
48
51
55
27
13
5
-37
-80
-112
-137
-128
-122
-90
-81
-87
-86
-82
-106
-94
-77
-75
-61
-49
-56
-62
-49
-60
-77
-88
-74
-68
-59
-50
-48
-53
-59
-64
-67
-75
-70
-68
-58
-44
-32
-50
-51
-67
-66
-73
-63
-67
-57
-45
-35
-28
-46
-61
-69
-69
-65
-62
-45
-36
-28
-37
-39
-55
-64
-69
-60
-61
-44
-43
-31
-33
-31
-43
-70
-61
-57
-53
-46
-27
-19
-25
-39
-52
-63
-63
-50
-43
-32
-15
-12
-18
-29
-48
-49
-34
-34
-34
-17
-9
-14
-8
-16
-26
-28
-39
-28
-21
-12
4
6
3
-19
-24
-32
-35
-25
-18
-3
1
-4
0
-10
-24
-36
-32
-30
-16
-3
-5
-11
-13
-18
-34
-51
-43
-35
-36
-29
-16
-22
-32
-35
-53
-60
-58
-57
-47
-41
-37
-33
-44
-56
-60
-76
-66
-69
-51
-47
-43
-43
-44
-50
-72
-74
-76
-70
-52
-43
-35
-46
-43
-51
-72
-73
-78
-70
-53
-35
-49
-37
-38
-60
-63
-76
-71
-65
-56
-31
-33
-43
-46
-57
-63
-64
-65
-66
-53
-31
-30
-42
-37
-55
-67
-65
-65
-51
-41
-24
-32
-40
-44
-49
-72
-76
-73
-47
-41
-35
-26
-36
-47
-53
-69
-61
-63
-50
-45
-40
-37
-49
-41
-52
-71
-55
-56
-55
-47
-28
-34
-31
-36
-55
-76
-64
-56
-53
-53
-32
-35
-37
-47
-64
-66
-60
-53
-38
-39
-29
-34
-39
-45
-65
-69
-65
-57
-49
-30
-36
-35
-46
-47
-56
-82
-56
-54
-58
-26
-22
-37
-47
-43
-60
-62
-61
-51
-52
-33
-32
-46
-44
-34
-57
-69
-52
-63
-60
-35
-23
-34
-41
-28
-57
-71
-57
-57
-42
-29
-28
-42
-37
-46
-60
-65
-59
-49
-45
-30
-26
-35
-30
-55
-64
-67
-58
-41
-47
-21
-38
-37
-36
-39
-58
-62
-52
-47
-36
-26
-27
-29
-29
-36
-52
-55
-50
-42
-24
-14
-24
-17
-23
-34
-58
-58
-33
-35
-42
-4
-12
-31
-25
-43
-49
-52
-50
-47
-41
-23
-10
-35
-26
-62
-56
-60
-48
-50
-26
-33
-22
-27
-32
-54
-60
-52
-49
-49
-32
-25
-23
-37
-41
-51
-51
-67
-46
-48
-42
-30
-27
-33
-51
-66
-62
-49
-26
-5
26
56
77
75
87
69
79
57
32
25
24
8
-17
-60
-72
-90
-102
-86
-69
-64
-47
-26
-29
-27
-29
-44
-54
-50
-29
-42
-24
-16
-33
-27
-20
-39
-52
-42
-37
-33
-15
-5
-17
-14
-39
-38
-54
-43
-32
-26
-10
-16
-12
-14
-23
-40
-46
-38
-27
-19
-8
-1
-8
-16
-18
-37
-43
-38
-18
-23
1
-10
-15
-2
-23
-35
-41
-24
-19
-2
-6
1
-6
-4
-16
-30
-31
-15
-29
-3
-3
19
4
0
-7
-18
-20
-23
-8
5
15
17
10
14
-3
-12
-24
-1
-3
15
27
26
27
11
16
1
-7
11
4
31
49
29
37
28
12
-2
6
9
11
34
48
40
26
34
1
-6
4
3
-4
15
34
26
18
16
-3
-13
-13
-28
-7
4
8
19
4
1
-25
-35
-28
-18
-13
-6
2
6
-5
-20
-32
-41
-37
-29
-28
-7
-6
-13
-15
-19
-34
-40
-43
-37
-22
-9
-1
-8
-23
-30
-38
-29
-25
-41
-16
-17
-2
-2
-4
-10
-38
-37
-30
-25
-24
-4
3
-13
-2
-16
-27
-27
-25
-19
-20
-6
1
-3
-10
-17
-30
-24
-24
-26
-17
0
-7
2
2
-16
-26
-39
-32
-37
-5
22
-6
-6
-7
-19
-35
-34
-29
-19
-12
10
10
-8
-14
-20
-22
-39
-24
-20
-14
-3
9
-4
-15
-21
-36
-25
-9
-23
-7
0
-12
-11
-11
-29
-40
-35
-19
-8
-12
-5
0
-5
-22
-16
-33
-40
-44
-16
-18
7
11
-11
-10
-29
-32
-32
-38
-19
-12
6
1
-11
-18
-27
-42
-39
-33
-18
-19
-1
-5
0
-12
-26
-36
-33
-28
-28
0
-3
-7
-11
-8
-35
-31
-34
-39
-21
-6
3
-6
-2
-10
-29
-35
-40
-29
-24
-12
6
-7
-5
-8
-24
-38
-24
-24
-13
6
-3
-1
5
-16
-33
-29
-27
-14
-23
4
8
-14
-21
-26
-20
-37
-29
-23
-15
3
6
-6
0
-8
-34
-36
-22
-15
-17
2
5
8
-4
-8
-33
-40
-27
-19
4
17
12
2
1
-5
-16
-22
-23
-9
0
19
20
12
6
-7
-21
-20
-1
-6
-3
18
13
20
5
-4
-30
-17
-20
-22
5
23
7
1
-9
-11
-27
-18
-22
-29
-22
13
-8
2
-6
-20
-26
-17
-23
-18
6
6
8
5
-4
-22
-30
-28
-18
-21
8
-8
-16
-22
-36
-35
-36
-15
6
22
58
95
94
116
119
117
107
82
70
66
63
29
1
-30
-53
-58
-82
-66
-45
-47
-17
-6
-2
0
-6
-23
-26
-26
-13
-8
3
3
12
5
-5
-27
-20
-19
-16
2
10
20
23
4
1
-14
-18
-12
2
-8
1
17
17
13
-13
-14
-15
-1
-13
0
23
28
9
12
3
-4
-17
-16
1
14
21
27
17
17
6
-18
1
3
7
10
33
30
27
28
-5
1
-6
9
14
23
36
31
26
30
23
3
5
10
24
33
41
40
49
49
25
13
17
33
40
35
59
53
47
49
43
33
28
35
28
53
63
69
58
56
43
33
33
42
46
51
60
63
69
57
45
21
27
22
38
67
65
53
51
42
34
17
26
13
22
40
48
37
28
24
16
5
6
1
8
27
31
29
25
11
-5
-7
-25
-4
12
28
31
12
28
9
-11
-8
-3
5
5
20
31
5
17
-5
-7
-10
4
-3
14
24
10
27
9
10
-4
-8
-6
-7
3
22
32
19
31
13
-12
-7
2
9
13
21
32
27
24
13
-4
-1
6
11
20
22
38
21
29
-5
-10
-6
-3
17
19
31
28
23
16
9
0
0
-8
1
26
29
19
18
14
5
-7
-7
-1
4
15
25
28
5
18
-2
-4
-13
1
-3
19
31
12
14
11
-4
-13
-4
-3
11
17
31
18
24
16
7
-9
-8
7
-9
17
31
13
14
11
12
-11
-15
-4
0
19
26
19
20
10
-5
-16
-15
-3
-6
21
25
17
18
9
0
-15
3
-10
8
29
29
12
13
3
1
-13
-9
-1
3
24
28
31
19
9
2
-16
-4
-14
-3
23
25
23
22
7
-5
-13
8
6
2
21
18
17
12
4
-9
4
-2
-6
13
16
26
31
21
-1
4
-15
-6
5
14
28
27
19
16
10
-26
-7
-3
-5
10
23
28
21
12
8
-5
-22
2
13
17
20
22
13
27
10
-11
3
6
13
20
27
35
33
23
4
-10
10
8
8
34
48
42
38
19
14
6
6
1
13
23
38
30
23
13
13
1
-5
-10
6
26
27
21
21
13
-1
-6
-21
9
6
15
25
16
17
7
-8
-10
-6
-1
13
21
38
30
19
18
-13
-25
-19
-12
-8
13
13
21
54
54
45
65
94
110
125
143
150
131
94
95
67
23
-8
-37
-47
-25
-11
-21
-22
-17
-35
-41
-24
-18
5
16
25
22
16
12
-7
0
0
4
23
31
16
40
29
2
10
2
12
17
15
24
32
39
17
15
-1
6
6
13
22
25
41
40
33
12
14
4
7
13
28
42
46
31
49
29
-5
9
19
28
33
51
49
45
27
8
8
16
17
35
40
50
58
44
37
24
20
21
25
47
50
56
55
49
41
40
19
30
35
46
63
66
68
66
51
55
33
41
46
45
68
81
78
83
72
55
49
49
58
63
74
82
80
73
79
51
45
45
49
69
77
78
72
77
62
37
51
29
53
55
64
73
68
65
50
39
25
26
36
45
57
55
49
37
36
20
10
29
26
30
30
44
43
26
28
7
-5
18
18
22
37
38
25
29
28
8
3
12
16
31
41
43
40
38
19
-2
12
14
20
28
40
40
37
35
19
6
7
20
27
16
57
48
37
41
30
8
3
10
10
44
40
45
36
33
15
12
2
22
19
25
40
61
42
28
19
9
9
21
15
27
36
38
31
44
18
-7
-7
14
31
37
40
37
26
24
14
10
2
20
14
32
45
53
32
33
5
-2
13
10
15
29
47
38
45
10
15
6
2
16
18
25
30
41
32
24
10
9
1
15
11
42
53
26
34
19
9
10
3
20
7
31
46
39
35
19
5
9
4
15
11
24
52
30
28
26
19
11
16
18
23
31
42
40
34
33
19
12
12
8
33
54
56
39
41
34
22
16
27
25
35
45
43
47
51
27
20
7
13
25
24
50
38
33
36
18
9
-2
2
13
34
36
45
34
28
19
2
3
-1
21
38
39
35
18
33
9
0
3
-1
16
40
44
33
44
22
12
2
-13
-7
3
11
32
39
47
65
62
76
79
119
143
166
164
138
112
99
82
28
3
-27
-47
-31
-14
-4
-17
-18
-33
-33
-18
-8
11
3
39
34
28
12
22
20
10
17
15
36
39
31
37
23
19
16
17
13
21
35
45
47
42
38
10
9
10
31
30
42
36
46
41
41
24
11
16
22
30
52
56
44
44
30
18
18
19
35
40
34
68
59
46
35
25
18
32
28
42
51
52
60
56
43
27
28
33
33
53
70
63
62
67
57
24
37
48
46
63
70
67
75
70
53
46
52
63
60
81
92
89
80
86
69
53
53
57
60
68
94
100
93
86
61
47
54
70
74
81
88
82
85
70
54
41
51
51
50
52
71
74
67
49
43
19
30
31
35
36
54
53
36
38
27
6
5
19
10
32
42
48
31
15
13
5
15
15
16
34
42
34
32
30
6
-4
17
14
10
23
41
28
33
35
22
10
13
6
7
33
41
37
40
26
15
11
7
29
26
43
49
41
36
26
24
9
10
27
23
35
52
44
37
39
19
20
22
12
27
40
46
39
48
30
7
7
17
15
37
45
41
45
32
25
15
15
16
13
29
35
48
43
30
13
12
5
15
18
23
40
52
49
28
32
7
8
16
21
36
30
39
31
30
16
-1
5
14
18
33
33
47
32
40
20
2
-3
17
21
28
20
48
36
26
14
-5
16
12
9
33
46
31
34
28
18
2
9
9
22
43
49
37
28
33
30
25
3
29
31
49
51
40
41
31
17
9
21
24
29
47
52
40
36
40
11
7
15
20
15
30
42
40
31
22
9
5
7
9
19
27
36
31
24
31
13
4
-2
2
15
32
39
35
34
15
0
-2
3
17
16
29
42
21
21
1
3
-13
-13
-1
24
52
62
79
105
119
113
123
138
148
136
125
114
100
49
31
-15
-48
-47
-36
-13
2
2
7
11
4
-8
-11
9
9
15
37
42
38
18
17
4
-4
9
15
22
37
41
32
26
15
4
8
17
12
26
34
40
40
40
18
0
9
11
21
26
31
40
35
37
26
11
8
16
19
37
47
42
25
23
11
8
13
32
33
29
37
48
42
44
23
10
18
33
30
41
44
55
53
40
31
13
29
30
34
52
62
58
47
47
31
18
27
38
50
63
70
72
52
54
31
43
35
40
59
69
90
73
66
61
45
45
37
46
61
72
74
57
72
54
45
37
43
40
71
68
75
70
56
43
26
31
26
27
35
56
57
45
35
26
13
5
6
9
26
37
38
34
24
14
6
-22
-4
11
20
28
25
18
17
2
-6
-4
5
7
17
25
30
14
8
13
-15
-1
-6
3
13
26
32
26
17
3
-3
-10
-3
8
13
24
24
23
28
3
-8
1
-4
-1
17
30
19
18
19
12
-19
3
4
12
14
34
33
19
11
5
-8
-6
-1
8
26
29
23
22
8
-9
-8
-14
3
8
21
27
28
30
23
0
-19
-12
-3
-2
15
16
29
14
7
-10
-27
-1
-6
0
8
27
14
3
0
-6
-15
-12
-4
-3
25
14
17
14
4
-15
-17
-16
-7
-5
22
23
19
14
0
-15
-14
-22
4
1
11
9
1
14
-6
-9
-7
-15
-12
0
16
17
10
19
-1
-13
-17
-13
-3
9
32
23
22
18
10
-11
-6
4
2
13
26
23
13
17
13
-9
-12
-7
1
3
12
11
14
0
-16
-16
-15
-15
-13
1
5
0
7
2
-5
-24
-31
-13
-10
3
17
17
2
0
-23
-32
-30
-16
-10
4
7
14
6
0
-12
-36
-38
-26
-30
0
-7
-9
3
1
2
18
35
70
89
129
148
135
135
104
58
46
38
-4
-27
-48
-24
-30
-37
-37
-47
-48
-37
-31
-14
3
8
4
-7
-6
-15
-27
-24
-18
-6
4
12
15
4
3
-12
-22
-14
-14
-14
6
17
16
10
-3
-24
-15
-13
1
-2
4
12
13
17
-5
-8
-13
-21
-7
7
11
18
18
14
8
-10
-14
-8
3
8
16
23
15
17
11
-9
-14
-11
0
22
27
24
26
39
18
-18
-6
-9
8
17
33
21
36
15
17
-4
6
12
18
31
48
32
44
39
20
18
8
24
25
43
56
50
39
49
39
22
27
23
29
46
65
57
47
57
21
12
17
30
35
46
56
43
39
37
23
11
18
17
29
24
39
23
35
5
4
-6
3
-10
-8
10
23
24
9
12
-14
-30
-11
-4
-7
8
9
4
9
-6
-23
-30
-32
-19
-23
-3
4
3
6
-9
-26
-31
-39
-17
-23
-4
6
-3
-7
-8
-18
-29
-28
-18
-9
6
9
0
-3
-23
-28
-22
-15
-17
-4
2
6
3
-1
0
-21
-14
-21
-23
-15
4
5
5
1
-4
-18
-26
-18
-14
-12
0
9
14
2
-16
-38
-18
-21
-20
0
8
9
-6
-2
-1
-19
-33
-22
-24
-10
2
10
-5
-10
-11
-32
-38
-24
-10
-5
0
2
2
-9
-17
-32
-30
-27
-22
-14
3
1
3
-3
-13
-32
-28
-24
-24
-12
11
-1
2
-17
-12
-28
-31
-13
-21
-8
6
-5
-10
-18
-33
-27
-40
-20
-22
-9
-2
-2
-2
-13
-20
-30
-22
-32
-19
-1
-7
-3
-5
-15
-22
-32
-22
-20
-17
-15
17
9
8
-2
-9
-12
-11
-20
-13
7
15
8
11
-4
-23
-21
-13
-2
-12
3
11
7
4
-15
-22
-52
-14
-19
-18
0
4
-14
-16
-14
-23
-32
-25
-25
-17
-12
-4
0
-6
-13
-20
-34
-32
-24
-22
-15
-3
-3
-6
-22
-36
-27
-25
-29
-19
-5
-11
-7
-23
-23
-44
-45
-39
-17
10
44
54
69
88
100
95
98
97
87
76
75
58
20
-26
-56
-77
-76
-78
-69
-49
-36
-32
-25
-22
-29
-36
-38
-32
-42
-19
-8
2
0
8
-9
-34
-30
-16
-17
-1
9
-5
-1
-8
-11
-27
-29
-23
-16
-1
13
24
-8
0
-17
-25
-20
-23
-10
4
13
8
6
-9
-13
-20
-17
-13
-9
12
24
10
18
2
-17
-22
-16
-9
6
13
20
9
16
14
-6
-26
-10
2
6
24
22
25
23
27
-1
-16
-5
0
17
26
33
26
23
22
6
2
21
13
27
35
60
45
38
33
25
18
22
27
32
42
54
45
53
44
29
7
28
30
34
49
50
47
36
37
20
9
17
22
33
47
53
39
42
19
9
0
10
13
15
38
31
29
20
0
-8
-15
-8
-10
1
22
30
12
3
-4
-20
-31
-34
-19
4
8
4
-1
8
-12
-31
-25
-24
-16
-4
5
8
1
-6
-21
-33
-28
-10
-14
-3
0
5
11
3
-14
-18
-30
-18
-11
13
13
5
5
4
-15
-22
-22
-16
-11
-3
17
14
6
-2
-20
-28
-19
-17
-9
4
2
18
4
3
-16
-33
-28
-9
-10
5
10
19
9
-9
-24
-24
-18
-9
-5
9
13
6
4
-11
-21
-27
-29
-11
-5
9
13
5
1
-11
-34
-16
-17
-8
-11
-1
12
8
-2
-12
-29
-30
-35
-19
-10
11
7
15
-10
-18
-17
-25
-23
-20
-11
-3
15
-10
3
-12
-37
-29
-23
-13
0
7
13
-4
-3
-11
-22
-25
-13
-12
-6
8
13
10
10
-12
-22
-19
-10
-14
6
20
17
15
9
-13
-16
-23
-16
-13
2
18
21
-13
2
-26
-34
-23
-27
-18
-9
10
-5
-4
-2
-28
-30
-26
-28
-15
-6
16
-4
-6
-5
-20
-38
-27
-22
-23
-10
-4
-1
-10
-11
-31
-30
-23
-19
-18
-15
-7
-6
-27
-29
-42
-50
-38
-16
9
30
76
94
99
103
110
94
92
68
56
71
50
-4
-37
-58
-68
-77
-69
-64
-53
-37
-24
-17
-20
-34
-25
-36
-27
-24
-7
4
15
-6
1
-18
-29
-27
-22
-9
-9
-3
14
15
7
-17
-16
-27
-21
-8
-9
-7
8
16
0
-7
-19
-37
-14
-12
1
14
22
11
15
-4
-7
-19
-20
-9
12
17
15
13
9
5
0
-16
-4
-5
6
12
16
8
25
10
-10
-15
-6
-9
11
23
19
25
24
7
-14
-3
11
20
23
37
33
32
23
13
3
-8
28
35
35
51
46
46
31
21
19
16
24
26
55
50
48
44
37
30
20
33
25
29
46
62
53
47
25
21
12
24
29
26
37
39
46
25
22
12
6
-2
12
5
27
26
27
8
10
-19
-13
-19
-17
-9
3
19
-3
3
-4
-24
-34
-19
-22
-14
1
11
-4
-11
-12
-21
-29
-26
-27
-16
5
11
-6
-8
-6
-22
-26
-27
-21
-11
5
11
-7
-5
-12
-21
-31
-14
-22
-7
4
16
13
-7
-14
-29
-25
-20
-9
-10
2
13
-6
1
-3
-16
-27
-24
-14
2
8
9
-2
-7
-8
-22
-26
-18
-14
-4
18
3
-3
-1
-9
-30
-39
-28
-28
3
8
12
0
-6
-20
-39
-36
-17
-17
-3
8
-8
-9
-14
-23
-33
-23
-18
-14
-12
3
-6
1
-1
-16
-25
-41
-32
-7
-10
0
2
-3
-14
-32
-37
-24
-28
-14
-5
2
-6
-6
-22
-25
-28
-25
-22
-23
-6
3
3
-10
-16
-29
-31
-34
-19
-15
-10
3
7
-8
-16
-34
-35
-26
-18
-14
-10
11
-3
-7
-9
-18
-30
-23
-24
-10
-5
10
4
-12
-5
-25
-30
-26
-27
-9
9
5
19
0
-5
-14
-29
-24
-21
-3
5
15
12
4
-9
-17
-28
-20
-7
6
1
14
-1
5
-20
-32
-32
-19
-12
-9
-3
11
-6
-6
-23
-28
-40
-21
-25
-25
-6
-1
-4
-11
-24
-30
-34
-30
-17
-28
-3
1
-6
-14
-16
-37
-39
-35
-39
-30
-20
-20
-14
-27
-22
-18
-7
27
35
73
112
124
130
120
98
50
43
39
19
10
-5
-42
-53
-57
-59
-68
-58
-47
-45
-15
1
-20
-3
-6
-25
-33
-41
-29
-25
-4
2
-2
-5
-14
-32
-31
-16
-19
-14
-10
-2
3
-4
-14
-19
-26
-17
-16
-21
-13
4
0
-1
-7
-29
-30
-25
-17
-16
12
20
1
-6
-12
-21
-22
-13
-8
-2
0
14
7
9
-18
-22
-10
-14
-17
-4
5
16
13
11
4
-9
-17
-11
-7
-2
19
30
21
19
-3
-4
-11
-11
6
18
26
30
25
16
20
3
5
11
15
22
41
42
35
38
28
13
12
4
18
32
47
56
52
33
31
2
16
17
30
42
43
47
34
35
22
15
2
5
9
23
33
33
19
16
5
-9
-11
1
3
6
21
10
-3
4
-13
-18
-31
-28
-19
-9
6
-1
-5
-18
-14
-29
-34
-30
-35
-14
0
-7
-12
-16
-21
-40
-40
-25
-21
-25
-14
2
-7
-13
-24
-41
-36
-29
-24
-14
4
-2
-3
-6
-28
-37
-36
-20
-13
-4
7
1
1
-15
-36
-37
-31
-34
-18
3
13
-1
-5
-3
-23
-30
-31
-19
-8
-2
6
-11
-10
-10
-30
-21
-15
-23
-23
10
20
10
-5
-7
-31
-36
-31
-25
-7
11
14
-6
-16
-12
-27
-29
-21
-23
-16
8
8
-11
-13
-5
-19
-33
-24
-25
-22
5
1
5
-15
-14
-28
-23
-16
-17
-4
-1
-8
-12
-2
-28
-34
-54
-32
-16
-4
10
3
4
-5
-19
-41
-31
-26
-23
-11
7
0
2
-11
-25
-28
-32
-17
-23
2
10
2
-8
-20
-23
-25
-32
-22
-18
-2
-8
2
-6
-17
-23
-23
-27
-25
-23
1
2
2
-3
-15
-28
-31
-17
-33
-22
0
9
9
1
-8
-25
-37
-30
-25
-13
9
9
-6
9
-2
-25
-39
-22
-18
-18
2
13
11
0
2
-18
-29
-25
-7
-9
17
15
14
9
12
-6
-23
-17
-5
-10
19
27
31
5
-2
-15
-34
-20
1
-6
-1
13
12
-8
-9
-19
-42
-27
-17
-11
12
15
-10
-5
-8
-19
-34
-21
-14
-13
1
18
3
-7
-5
-29
-27
-38
-21
-10
-4
-10
-1
-14
-36
-39
-46
-23
-9
48
77
80
84
115
120
116
112
97
78
73
70
47
5
-24
-56
-62
-68
-53
-52
-29
-11
-8
-13
-6
-22
-27
-23
-9
-2
-11
14
18
10
1
-9
-26
-24
-11
-3
2
5
22
6
9
-4
-27
-12
-21
-15
8
18
21
12
8
-8
-13
-20
-4
1
5
18
24
10
13
0
-14
-12
-11
6
22
22
18
18
0
-6
-5
-10
3
7
14
35
24
16
16
-4
-7
0
0
-2
27
31
27
20
34
14
-2
0
11
26
47
44
41
44
29
10
10
10
10
31
47
46
54
49
42
27
22
36
40
30
56
65
64
53
43
31
29
34
34
49
63
65
58
55
47
35
27
21
35
29
59
69
47
40
26
12
20
12
18
29
42
36
31
30
12
1
-6
4
11
19
23
18
24
3
0
-5
3
-12
-6
14
19
23
7
3
-10
-19
-7
-7
1
8
13
22
8
6
-9
-16
-22
-8
-7
2
20
14
16
11
-10
-22
-19
-5
2
8
20
21
12
14
-14
-21
-19
0
5
6
31
18
8
6
-2
-14
-19
-10
6
21
23
34
10
12
-10
-11
0
-9
5
15
28
25
15
4
-3
-13
-10
0
6
16
29
26
22
-2
-5
-14
-5
0
1
18
30
18
13
18
-7
-17
-10
-2
6
23
20
13
14
-2
-13
-18
-2
-7
3
33
20
11
20
8
-4
-9
-9
-8
4
13
22
18
17
13
-3
-18
-1
-8
3
16
41
26
14
4
-8
-8
-8
-5
16
33
17
10
4
0
-11
-15
-2
11
2
26
19
13
22
-1
-8
-9
-8
1
16
25
17
16
10
-1
-13
-6
-4
1
25
30
26
14
17
11
-10
-2
0
6
22
39
26
25
26
25
-19
-2
13
11
35
37
33
31
29
8
-3
-8
-4
9
26
29
23
22
12
-15
-23
-12
-13
5
19
32
19
13
16
-14
-31
-13
-1
5
10
29
14
12
-2
-14
-21
-23
4
10
25
16
1
5
3
-26
-21
-11
-2
10
42
70
75
94
102
109
111
110
109
85
91
82
58
26
-14
-61
-66
-48
-47
-31
-9
-14
-23
-10
-17
-26
-29
-13
-12
4
22
24
23
22
9
-12
-12
-2
9
19
24
26
20
18
14
-8
-17
-11
6
17
41
33
32
22
4
-5
-14
-11
9
20
31
26
31
21
10
9
2
0
10
18
28
37
32
29
17
8
-11
17
14
27
39
40
29
22
20
7
6
13
9
32
45
38
41
37
19
6
15
23
24
35
55
48
45
46
30
25
22
27
40
51
58
72
51
50
39
39
30
48
50
68
68
75
67
59
43
46
31
44
47
58
71
77
55
55
44
38
31
35
62
62
65
62
50
40
25
19
23
29
31
47
57
46
34
17
10
-7
5
11
26
27
35
40
30
13
-13
-9
-5
9
11
21
11
23
16
8
-5
-15
-12
-7
13
16
27
13
11
5
-8
-17
-6
-6
6
18
22
24
15
-4
-9
-9
-8
-3
16
27
33
23
14
-20
-5
-5
-3
0
30
20
34
27
3
17
4
-5
-4
-4
11
25
29
17
21
5
-9
-4
1
-2
17
30
30
16
22
5
-8
-16
5
-1
12
29
24
18
11
0
-7
-4
-4
2
16
24
21
6
9
-1
-12
-11
-2
-3
18
28
22
14
12
-5
-29
-8
-5
4
33
15
7
13
0
-2
-9
-10
3
6
9
30
12
19
12
-2
-18
-7
-4
-6
22
20
15
16
5
-12
-3
-5
3
-6
5
19
4
16
-2
-7
-14
-10
-12
3
13
28
25
23
14
-5
-9
-2
5
12
16
33
33
19
2
-4
-10
5
14
21
25
45
33
16
8
-11
-7
-15
2
18
34
23
15
16
4
-1
-3
0
-6
6
22
30
25
0
-7
-24
-11
-14
-2
18
18
29
-1
19
-4
-24
-26
-6
-16
8
21
30
8
12
-6
-21
-15
-14
-3
-1
5
8
8
24
23
29
48
76
78
119
134
153
133
109
58
42
36
21
-7
-21
-23
-21
-23
-22
-30
-35
-29
-19
-8
3
14
14
24
-3
2
4
-18
-11
-13
15
37
23
12
12
8
0
-18
-12
9
8
16
30
15
10
-10
-1
-11
-3
8
22
22
15
24
4
-17
-8
2
-3
14
38
24
28
20
20
-4
0
-7
-11
13
43
34
26
29
16
-2
-9
8
14
20
36
37
23
36
14
4
-1
8
10
23
36
44
45
30
22
17
15
16
27
35
46
54
42
39
30
25
8
25
29
50
54
48
49
58
40
30
21
45
38
54
64
64
50
52
39
24
23
30
34
45
62
57
52
41
22
12
3
23
21
41
45
42
43
27
4
-4
-3
7
9
14
18
18
22
1
-3
-13
-16
-10
4
7
27
16
5
-4
-23
-32
-25
-16
-11
4
20
9
11
-3
-17
-27
-28
-14
-14
-6
5
16
2
0
-22
-32
-27
-14
-1
15
9
-4
-6
0
-18
-29
-20
-22
-11
-5
11
6
2
-10
-25
-23
-26
-16
1
3
20
5
-12
-5
-17
-22
-19
-7
-4
13
9
-13
-3
1
-20
-35
-22
-9
-2
9
11
2
3
-14
-28
-28
-21
-20
-9
8
4
-3
-4
-1
-15
-40
-29
-26
-9
4
5
-5
-11
-22
-25
-38
-28
-23
-8
4
1
-5
-7
-18
-32
-33
-17
-19
-15
-8
-5
0
-4
-33
-41
-38
-40
-17
-16
9
-1
-16
-13
-27
-36
-33
-24
-28
-11
5
-12
-14
-10
-36
-36
-43
-34
-21
-16
-1
-12
-13
-19
-37
-41
-36
-25
-30
-23
-10
-4
-20
-22
-36
-38
-43
-14
-14
-15
-4
-11
-6
-10
-34
-32
-41
-33
-16
-2
5
2
-12
-10
-22
-33
-25
-41
-26
-6
3
-6
-12
-42
-35
-42
-43
-36
-26
-12
-13
-4
-17
-33
-56
-42
-41
-38
-26
-9
-21
-16
-31
-33
-43
-54
-39
-45
-32
-22
-13
-19
-26
-41
-48
-53
-50
-55
-28
-34
-23
-24
-40
-48
-52
-36
-11
6
46
81
82
88
88
91
59
31
12
11
-2
-8
-57
-83
-83
-86
-87
-77
-69
-63
-40
-30
-27
-39
-48
-46
-60
-57
-43
-40
-30
-27
-20
-29
-30
-42
-62
-50
-41
-43
-25
-17
-16
-42
-37
-38
-49
-49
-45
-48
-23
-15
-14
-37
-32
-51
-57
-46
-38
-39
-18
-21
-20
-20
-28
-44
-62
-59
-59
-37
-33
-14
-17
-33
-34
-46
-53
-47
-57
-43
-28
-16
-19
-25
-27
-42
-54
-45
-43
-30
-18
-18
-24
-18
-16
-40
-44
-44
-28
-31
-13
-9
-4
-9
-19
-38
-46
-28
-35
-18
-4
6
-5
-12
-8
-26
-29
-22
-15
-21
10
9
8
-2
-14
-21
-39
-19
-26
-13
-8
7
-1
5
-19
-37
-40
-34
-21
-25
-9
-6
-13
-13
-37
-48
-42
-46
-46
-31
-35
-23
-36
-42
-60
-64
-72
-56
-70
-45
-44
-38
-48
-54
-68
-81
-81
-94
-59
-62
-51
-45
-43
-54
-74
-75
-89
-73
-83
-53
-50
-45
-48
-60
-73
-84
-84
-68
-63
-50
-41
-52
-60
-70
-80
-76
-74
-76
-69
-54
-47
-51
-52
-62
-79
-85
-77
-72
-74
-52
-32
-47
-53
-57
-76
-84
-73
-73
-66
-57
-44
-48
-57
-58
-76
-86
-72
-73
-65
-50
-41
-52
-68
-71
-86
-88
-66
-75
-74
-51
-37
-49
-57
-65
-79
-92
-83
-76
-58
-43
-42
-57
-59
-75
-79
-90
-74
-67
-62
-58
-52
-66
-61
-74
-85
-93
-89
-86
-69
-63
-48
-53
-57
-77
-80
-93
-91
-67
-70
-58
-50
-63
-67
-79
-82
-81
-77
-82
-65
-59
-52
-61
-68
-76
-92
-97
-77
-92
-73
-57
-47
-63
-65
-79
-84
-88
-93
-77
-65
-65
-72
-62
-50
-73
-89
-92
-90
-72
-71
-52
-56
-56
-68
-83
-91
-92
-87
-88
-66
-55
-52
-63
-75
-80
-94
-83
-83
-79
-56
-60
-49
-63
-67
-81
-98
-91
-76
-86
-73
-52
-42
-55
-59
-83
-84
-80
-63
-80
-63
-50
-52
-51
-62
-76
-90
-89
-86
-75
-53
-61
-61
-72
-79
-85
-99
-101
-87
-87
-68
-77
-63
-72
-82
-93
-94
-92
-86
-81
-71
-57
-69
-79
-80
-104
-108
-93
-96
-83
-75
-67
-73
-86
-93
-112
-121
-109
-104
-90
-66
-57
-45
-24
-10
-3
14
32
45
51
36
15
8
-21
-62
-105
-124
-139
-132
-133
-110
-101
-104
-93
-102
-116
-114
-106
-101
-87
-73
-71
-76
-72
-87
-103
-109
-105
-98
-85
-63
-67
-78
-75
-93
-97
-101
-94
-93
-72
-69
-78
-66
-78
-88
-97
-101
-107
-91
-75
-68
-75
-73
-66
-89
-90
-102
-101
-75
-82
-70
-63
-65
-74
-91
-101
-85
-84
-76
-73
-53
-50
-74
-79
-92
-79
-96
-89
-72
-57
-48
-59
-64
-59
-84
-96
-89
-91
-62
-50
-55
-35
-53
-71
-73
-80
-68
-62
-57
-55
-40
-35
-48
-47
-78
-78
-63
-68
-50
-33
-29
-33
-37
-54
-65
-71
-56
-54
-50
-34
-39
-36
-50
-54
-61
-61
-60
-54
-49
-40
-43
-35
-45
-52
-72
-79
-89
-61
-63
-63
-62
-51
-58
-72
-88
-83
-91
-86
-88
-64
-65
-72
-80
-97
-114
-105
-106
-101
-88
-79
-77
-97
-80
-103
-118
-113
-116
-99
-90
-84
-83
-83
-88
-102
-114
-119
-118
-111
-90
-83
-80
-79
-82
-106
-108
-114
-109
-111
-93
-94
-77
-67
-92
-102
-121
-114
-108
-96
-87
-70
-73
-84
-87
-108
-109
-116
-96
-104
-85
-78
-70
-85
-89
-114
-104
-110
-107
-107
-82
-82
-84
-82
-91
-105
-116
-111
-104
-96
-97
-68
-84
-91
-89
-96
-108
-107
-106
-102
-87
-90
-80
-83
-86
-114
-116
-101
-97
-100
-85
-77
-88
-90
-90
-109
-114
-120
-107
-95
-78
-80
-99
-89
-93
-113
-113
-102
-117
-93
-78
-75
-89
-86
-91
-119
-114
-109
-101
-101
-90
-77
-77
-76
-100
-111
-112
-110
-115
-88
-94
-70
-73
-82
-96
-113
-114
-109
-104
-96
-78
-86
-65
-87
-91
-104
-115
-114
-105
-77
-65
-88
-70
-73
-93
-100
-102
-92
-80
-82
-59
-55
-78
-81
-101
-104
-101
-101
-95
-81
-76
-78
-81
-84
-103
-113
-101
-102
-102
-92
-87
-69
-86
-84
-106
-120
-114
-111
-96
-86
-74
-80
-95
-92
-102
-118
-112
-104
-93
-88
-76
-86
-93
-94
-100
-120
-126
-113
-102
-96
-73
-81
-77
-69
-65
-59
-45
-19
1
30
31
24
-23
-29
-58
-69
-103
-136
-154
-154
-126
-127
-124
-144
-152
-155
-152
-141
-118
-96
-86
-91
-96
-105
-115
-115
-108
-111
-100
-84
-66
-81
-85
-96
-98
-108
-99
-100
-97
-68
-75
-74
-80
-94
-100
-104
-106
-96
-78
-77
-70
-74
-79
-85
-108
-101
-103
-93
-78
-75
-66
-68
-71
-95
-96
-96
-89
-92
-78
-73
-64
-69
-58
-84
-94
-92
-89
-86
-79
-67
-63
-62
-54
-68
-87
-97
-67
-78
-66
-53
-50
-59
-50
-65
-72
-86
-78
-73
-51
-44
-45
-40
-41
-57
-70
-77
-68
-61
-35
-32
-32
-18
-29
-52
-66
-69
-57
-52
-33
-31
-31
-34
-37
-54
-67
-72
-47
-46
-43
-29
-28
-27
-50
-64
-62
-84
-65
-56
-52
-41
-35
-54
-65
-74
-74
-83
-85
-80
-63
-60
-57
-72
-78
-101
-102
-103
-99
-83
-73
-75
-69
-80
-86
-105
-109
-108
-96
-89
-77
-85
-76
-81
-100
-102
-107
-105
-96
-96
-81
-65
-72
-79
-77
-105
-109
-96
-96
-83
-73
-69
-64
-82
-88
-105
-106
-94
-97
-96
-70
-73
-68
-78
-90
-109
-100
-95
-89
-76
-64
-74
-79
-72
-91
-101
-101
-103
-98
-80
-72
-66
-71
-81
-90
-98
-104
-95
-92
-73
-63
-69
-79
-83
-95
-109
-99
-96
-99
-83
-73
-71
-74
-87
-101
-105
-104
-110
-86
-76
-77
-81
-81
-75
-105
-107
-102
-107
-94
-71
-64
-83
-74
-76
-88
-112
-103
-106
-89
-74
-64
-68
-69
-69
-82
-113
-104
-95
-86
-72
-64
-65
-66
-68
-96
-106
-94
-80
-82
-67
-63
-61
-61
-72
-89
-92
-101
-101
-83
-75
-67
-75
-84
-74
-104
-112
-101
-91
-85
-83
-71
-78
-92
-86
-109
-106
-107
-98
-92
-80
-78
-72
-72
-83
-104
-115
-108
-96
-98
-66
-59
-86
-82
-93
-122
-114
-108
-112
-97
-83
-84
-62
-74
-54
-57
-33
-23
8
23
48
41
15
-16
-41
-57
-90
-106
-131
-116
-114
-113
-109
-115
-132
-130
-135
-121
-103
-99
-70
-75
-68
-79
-90
-108
-100
-98
-92
-75
-64
-58
-74
-88
-84
-90
-105
-92
-89
-66
-65
-63
-75
-73
-93
-101
-97
-93
-82
-64
-58
-76
-68
-60
-87
-92
-98
-80
-87
-70
-59
-67
-56
-70
-85
-96
-91
-92
-79
-69
-47
-48
-53
-63
-75
-95
-97
-88
-71
-49
-63
-41
-57
-56
-65
-84
-78
-72
-69
-57
-47
-48
-60
-61
-59
-78
-69
-72
-51
-44
-33
-42
-42
-44
-55
-65
-57
-53
-42
-31
-25
-22
-37
-39
-54
-61
-58
-52
-38
-12
-20
-23
-30
-40
-56
-57
-55
-43
-42
-40
-16
-29
-37
-44
-65
-67
-67
-57
-56
-32
-39
-50
-57
-60
-81
-77
-80
-78
-63
-63
-46
-66
-66
-77
-84
-95
-93
-86
-63
-59
-67
-63
-65
-79
-90
-98
-86
-84
-72
-58
-59
-69
-77
-83
-97
-107
-79
-81
-66
-65
-68
-65
-72
-84
-94
-92
-75
-76
-77
-59
-51
-54
-54
-82
-103
-89
-75
-72
-65
-54
-64
-68
-62
-79
-97
-92
-70
-69
-61
-56
-51
-66
-52
-69
-87
-81
-77
-67
-59
-55
-64
-61
-70
-86
-83
-93
-70
-77
-57
-40
-55
-63
-69
-87
-87
-82
-80
-74
-63
-51
-57
-63
-72
-87
-90
-88
-81
-71
-64
-55
-51
-60
-68
-79
-95
-90
-73
-80
-55
-38
-66
-73
-70
-84
-93
-86
-72
-57
-55
-44
-43
-54
-63
-75
-84
-77
-63
-58
-56
-38
-46
-51
-61
-76
-85
-77
-65
-55
-56
-41
-40
-53
-71
-79
-96
-84
-72
-58
-59
-62
-58
-51
-66
-69
-93
-87
-81
-66
-56
-52
-60
-66
-77
-91
-80
-88
-77
-62
-57
-46
-63
-58
-73
-87
-95
-86
-82
-66
-59
-65
-78
-66
-92
-100
-94
-80
-66
-27
-3
18
15
37
40
30
40
22
1
2
5
-27
-46
-88
-110
-115
-108
-116
-111
-76
-68
-70
-68
-63
-82
-91
-85
-77
-68
-53
-48
-47
-58
-69
-73
-76
-75
-67
-63
-51
-49
-52
-54
-62
-64
-77
-77
-51
-51
-39
-39
-46
-53
-65
-63
-70
-69
-62
-59
-46
-41
-49
-50
-55
-71
-67
-65
-68
-58
-38
-24
-38
-38
-48
-66
-66
-61
-59
-42
-29
-32
-42
-41
-56
-56
-55
-58
-50
-41
-23
-23
-31
-22
-37
-64
-73
-49
-42
-31
-19
-21
-29
-31
-35
-49
-32
-42
-37
-18
-9
3
-16
-8
-17
-53
-37
-22
-34
-18
4
2
-9
-4
-22
-39
-25
-26
-18
-1
1
-10
-2
-14
-25
-44
-41
-26
-23
-23
-8
-5
-18
-23
-32
-43
-53
-44
-40
-38
-19
-14
-33
-30
-45
-68
-61
-72
-58
-46
-36
-37
-49
-49
-67
-59
-64
-60
-55
-38
-40
-38
-45
-47
-68
-67
-67
-59
-52
-53
-32
-33
-48
-51
-56
-69
-69
-66
-54
-40
-37
-32
-39
-53
-62
-75
-60
-62
-46
-40
-31
-36
-43
-42
-57
-71
-62
-51
-44
-41
-32
-35
