-79
-60
-34
-25
-26
-37
-61
-73
-56
-58
-58
-59
-39
-23
-6
-25
-40
-53
-66
-74
-68
-64
-51
-23
-12
-31
-38
-58
-54
-73
-84
-60
-49
-30
-19
-39
-35
-53
-69
-77
-61
-38
-41
-38
-17
-16
-40
-48
-74
-57
-51
-48
-40
-26
-20
-33
-48
-54
-74
-73
-63
-42
-45
-13
-5
-11
-42
-54
-75
-69
-47
-32
-31
-23
-14
-31
-49
-54
-60
-62
-50
-40
-31
-17
-15
-27
-38
-38
-74
-55
-49
-20
-13
-18
-15
-29
-49
-65
-87
-62
-40
-41
-34
-11
-7
-26
-29
-52
-71
-63
-61
-49
-34
-26
-15
-41
-47
-48
-62
-53
-49
-47
-33
-29
-30
-34
-46
-42
-63
-47
-32
-41
-31
-4
-22
-28
-54
-41
-60
-65
-37
-19
-7
5
-4
-6
-39
-55
-85
-77
-47
-29
-24
-5
-6
-22
-59
-57
-57
-43
-22
-25
-12
-35
-57
-52
-61
-50
-49
-43
-34
-35
-23
-45
-49
-62
-82
-63
-52
-45
-35
-24
-20
-43
-43
-66
-63
-54
-56
-56
-38
-9
-9
-36
-57
-55
-51
-64
-46
-39
-22
-10
-27
-40
-56
-64
-58
-64
-38
-31
-34
-20
-41
-52
-55
-87
-83
-66
-43
-43
-27
-23
-31
-48
-54
-75
-73
-55
-42
-41
-42
-46
-51
-57
-57
-91
-83
-54
-48
-51
-25
-39
-47
-62
-63
-70
-50
-57
-42
-42
-22
-37
-40
-42
-67
-78
-91
-51
-38
-27
-17
-29
-50
-44
-41
-64
-69
-72
-58
-48
-51
-39
-40
-60
-54
-74
-55
-43
-25
-20
-13
-22
-40
-58
-77
-74
-69
-69
-48
-29
-21
-33
-60
-59
-52
-70
-70
-60
-47
-24
-19
-25
-55
-53
-55
-70
-73
-48
-29
-32
-14
3
-14
-32
-49
-60
-52
-26
-22
-15
7
1
-18
-24
-40
-56
-59
-45
-20
-15
-8
-4
-21
-50
-62
-52
-42
-26
-21
-24
-6
-17
-33
-26
-52
-51
-27
-44
-38
-2
-9
-37
-65
-76
-96
-68
-57
-39
-25
-17
-40
-44
-51
-61
-75
-75
-57
-41
-30
-24
-31
-49
-57
-60
-74
-48
-34
-13
2
31
44
62
62
64
45
61
56
46
12
15
-4
-51
-93
-159
-230
-245
-238
-208
-195
-163
-144
-143
-158
-153
-153
-130
-124
-104
-96
-80
-67
-74
-83
-71
-96
-96
-58
-40
-49
-25
-14
-38
-52
-61
-74
-48
-33
-53
-33
-23
-17
-43
-36
-49
-78
-63
-51
-37
-9
-13
-14
-30
-50
-62
-60
-64
-46
-34
-27
-18
-15
-25
-24
-30
-60
-52
-39
-25
-9
-9
-4
-18
-36
-48
-65
-54
-38
-27
-8
13
4
-18
-26
-39
-38
-23
-12
-1
7
17
17
5
-25
-28
-33
-18
-6
-1
11
7
4
-2
-1
-18
-12
3
12
28
34
43
43
8
10
-16
-6
7
23
28
52
49
48
23
15
7
7
24
37
43
52
61
44
26
14
17
15
30
28
30
48
45
52
28
10
-8
0
-3
10
25
46
30
7
-2
-9
-26
-30
-8
-17
-12
11
-7
-6
-27
-53
-63
-58
-41
-35
-15
-4
-17
-16
-35
-41
-83
-66
-46
-21
-35
-15
-24
-35
-48
-77
-84
-69
-62
-47
-37
1
-7
-30
-42
-53
-64
-69
-58
-38
-39
-34
-29
-50
-49
-51
-80
-66
-65
-47
-18
-7
-17
-37
-49
-58
-75
-78
-58
-17
-23
-12
-20
-40
-53
-56
-66
-53
-49
-42
-33
-32
-33
-46
-45
-56
-58
-60
-53
-34
-33
-35
-40
-47
-53
-63
-65
-65
-47
-35
-19
-26
-36
-41
-58
-66
-41
-50
-41
-48
-31
-27
-37
-54
-62
-74
-74
-72
-54
-46
-27
-28
-48
-48
-52
-75
-72
-51
-47
-48
-50
-43
-38
-54
-68
-86
-81
-63
-43
-37
-19
-32
-37
-49
-55
-82
-77
-63
-49
-33
-16
-31
-29
-55
-66
-81
-79
-44
-61
-27
-31
-35
-41
-58
-64
-77
-84
-62
-54
-31
-17
-25
-30
-34
-76
-74
-83
-56
-52
-57
-24
-30
-35
-53
-67
-78
-81
-53
-39
-46
-38
-30
-38
-54
-64
-82
-73
-66
-58
-48
-33
-11
-32
-59
-48
-59
-60
-36
-46
-37
-23
-36
-51
-61
-72
-62
-64
-60
-43
-35
-14
-14
-38
-53
-63
-74
-68
-57
-37
-27
-24
-37
-50
-44
-62
-58
-76
-61
-46
-27
-21
-39
-44
-52
-75
-78
-67
-47
-38
-8
-17
-37
-49
-40
-52
-58
-62
-49
-39
-11
-29
-33
-40
-52
-60
-67
-72
-58
-33
-13
-14
-23
-47
-52
-69
-66
-61
-32
-40
-26
-29
-31
-41
-40
-66
-62
-57
-20
-7
6
-20
-44
-67
-55
-71
-78
-63
-50
-39
-15
-28
-38
-48
-47
-57
-62
-49
-33
-29
-11
-12
-30
-44
-49
-57
-58
-67
-37
-40
-36
-23
-35
-57
-43
-67
-74
-42
-33
-28
-17
-22
-39
-43
-50
-73
-67
-35
-23
-27
-12
-17
-35
-50
-65
-71
-53
-30
-16
-19
-13
-25
-17
-19
-40
-52
-43
-16
0
3
2
-3
-5
-19
-27
-48
-30
-1
9
5
2
-10
-13
-26
-38
-37
-25
-15
-10
-8
5
7
-13
-43
-43
-46
-46
-38
-29
1
-5
-14
-30
-40
-66
-60
-55
-49
-32
-17
-15
-24
-42
-61
-73
-60
-46
-37
-17
-9
-6
-17
-10
-2
-12
3
34
54
90
122
141
111
75
50
5
-1
-30
-72
-104
-107
-157
-184
-209
-208
-222
-207
-183
-138
-119
-85
-78
-79
-91
-107
-107
-80
-60
-22
-16
13
17
35
13
12
-10
17
31
40
40
67
62
46
24
12
5
-1
17
28
25
42
39
19
18
-2
-13
-11
-2
7
32
61
55
35
12
-5
-19
-12
8
24
24
29
32
25
13
5
6
9
8
38
35
54
57
31
6
5
-5
1
13
27
53
47
37
26
5
-2
8
19
25
45
62
63
61
31
25
10
18
33
41
55
58
76
52
44
49
37
53
38
52
65
55
69
79
56
62
50
51
31
54
63
79
97
86
65
52
50
35
44
64
63
84
89
72
49
48
31
45
59
71
57
83
83
81
50
52
33
4
21
17
53
62
49
16
13
1
5
1
-2
12
22
30
27
12
-11
-26
-28
-17
-10
-8
-2
24
13
-2
-15
-29
-61
-44
-18
-11
-15
3
-2
1
-20
-20
-42
-43
-25
-12
7
23
16
-12
-29
-21
-43
-39
-30
-10
-9
5
8
-6
-21
-44
-33
-31
-15
6
3
14
12
-4
-30
-27
-44
-55
-32
-12
-5
24
-7
-4
-18
-30
-30
-28
-12
-2
-2
9
-2
1
-26
-24
-36
-30
-21
-13
6
17
12
9
-23
-38
-60
-34
-8
-2
4
17
5
-13
-18
-30
-38
-26
-8
8
11
6
-3
-31
-16
-36
-34
-22
-22
-26
-5
12
9
-7
-22
-28
-32
-38
-18
-15
13
8
1
-18
-13
-33
-36
-28
-16
-5
19
15
0
-20
-19
-46
-40
-27
4
-9
5
2
-20
-10
-23
-50
-35
-26
-9
-8
4
12
9
-16
-26
-35
-28
-23
-11
-8
2
-3
-24
-34
-18
-32
-37
-25
-7
5
20
14
-6
-20
-21
-32
-27
-13
4
-13
9
10
-18
-32
-22
-27
-24
-19
0
4
6
2
-12
-27
-31
-41
-30
-17
1
6
9
-8
-10
-19
-18
-36
-32
-13
3
-2
25
22
-5
-16
-8
-32
-29
-3
1
7
28
7
-3
6
-27
-24
-19
-7
-13
-1
12
11
-9
-19
-49
-38
-25
-6
9
25
22
6
-3
-6
-15
-20
-20
-13
5
12
16
12
-3
-19
-19
-10
-21
-13
-6
16
21
27
10
6
-27
-26
-10
1
13
27
19
-6
-3
-7
-38
-33
-28
5
4
19
17
6
-15
-17
-49
-42
-10
0
10
29
15
9
-14
-23
-51
-32
-12
0
5
13
14
18
-12
-7
-32
-22
-13
-5
-9
28
29
11
-7
-9
-24
-11
-10
-5
22
36
31
25
9
0
-13
-16
6
42
24
36
24
9
-2
15
-12
-10
6
19
26
31
22
8
-4
-12
-20
-20
-14
-3
12
18
0
-13
-28
-34
-35
-29
-18
-3
-1
30
19
-7
-20
-25
-33
-41
-18
-6
0
5
9
-23
-23
-24
-16
-1
22
46
60
84
95
100
99
98
105
85
63
44
38
11
-20
-73
-124
-178
-189
-177
-157
-157
-121
-105
-107
-108
-109
-106
-86
-77
-81
-58
-33
-39
-34
-40
-60
-66
-43
-19
-4
-5
21
4
0
-19
-17
-30
-25
-23
-8
6
10
20
19
0
-11
-32
-43
-20
-3
7
29
25
10
-4
-16
-40
-31
-14
7
3
21
29
14
-2
-3
-11
-25
-11
15
19
40
44
14
-16
-2
-13
-9
4
16
21
45
34
21
15
2
-12
-1
15
30
27
68
45
36
23
13
1
10
24
40
55
61
52
52
46
39
24
36
37
36
56
56
50
51
41
27
31
40
57
64
70
84
83
66
51
48
30
50
83
95
89
100
87
71
68
60
30
67
77
68
83
82
76
72
55
48
33
21
52
64
58
62
42
33
25
15
20
30
29
8
44
32
13
8
0
-18
-21
-14
-2
13
35
20
11
-16
-7
-19
-18
-15
-9
-6
19
15
18
0
4
-29
-36
-20
-2
-1
8
-1
6
-8
-24
-42
-18
-8
11
11
21
20
16
4
-1
-21
-33
-14
12
11
16
35
10
2
-13
-29
-21
7
16
17
28
21
-5
-12
-3
1
-14
-11
13
10
29
28
20
0
-7
-24
-21
-11
15
32
40
25
-12
-6
-15
-23
-24
0
-3
10
37
33
13
4
-8
-23
-15
3
17
13
0
22
1
-2
-20
-20
-6
7
6
25
22
14
6
-18
-21
-21
-12
-1
-2
15
11
2
-17
-34
-29
-34
-18
-3
-1
11
21
12
8
-6
-40
-25
-21
-12
2
26
11
13
1
-15
-39
-29
-18
-6
11
15
17
20
-6
-1
-20
-18
-11
0
0
11
20
8
-21
-18
-35
-28
-23
-3
11
30
26
11
-8
-6
-49
-41
-47
1
38
44
22
18
17
0
-31
-30
-8
-2
8
14
21
1
-7
-1
-38
-37
-19
2
4
26
25
13
-5
-13
-29
-28
-16
8
-5
-1
9
13
-9
-29
-37
-33
-9
0
4
14
5
-5
-12
-23
-35
-32
-13
2
3
20
15
8
-7
-13
-40
-23
-13
-6
-12
2
-5
-11
-13
-13
-32
-40
-18
10
21
30
14
-5
-19
-23
-31
-21
-11
5
4
7
33
12
-19
-29
-21
-9
-6
11
31
30
40
13
-2
-11
-11
-2
10
21
48
68
43
21
30
22
-15
-16
-24
25
50
28
23
12
3
-13
-16
-11
9
22
36
18
14
5
-25
-54
-40
-25
-16
-6
2
9
3
-9
-19
-37
-30
-41
-26
-17
3
3
-5
-14
-12
-42
-44
-22
4
22
56
68
70
74
93
87
97
115
119
109
85
65
11
-27
-85
-129
-177
-196
-183
-171
-129
-105
-111
-133
-112
-123
-100
-95
-71
-56
-37
-24
-40
-45
-26
-49
-69
-30
1
14
22
11
9
2
-18
-23
-22
-16
2
18
23
14
14
7
-3
-25
-14
-5
27
43
34
10
2
-13
-18
-15
-7
11
9
9
15
23
22
7
9
-11
-3
-3
14
25
30
34
25
13
-4
-11
-3
15
15
41
50
35
18
12
17
12
12
9
12
26
50
44
12
14
23
26
28
32
49
68
58
50
33
20
21
7
23
53
60
79
77
57
62
55
38
39
48
58
64
74
79
73
63
56
46
55
69
67
97
116
100
80
70
59
46
26
56
66
74
92
85
94
58
57
45
41
43
62
69
75
79
67
35
28
-2
-12
14
32
25
45
40
29
-3
-3
-9
-27
-9
4
12
21
12
4
-15
-25
-34
-26
-22
-16
-6
20
26
0
-13
-34
-32
-21
-26
-23
-4
13
8
-7
-27
-23
-25
-24
-9
-6
6
15
-3
-3
-15
-33
-40
-36
-15
0
13
18
0
3
-14
-33
-27
-32
-16
10
29
18
5
4
9
-21
-39
-3
-6
-8
-18
13
-7
-39
-3
-19
-31
-12
-6
-2
5
25
15
-26
-26
-38
-26
-33
-2
1
16
5
-2
-14
-20
-23
-27
-11
1
-3
-1
-8
-9
-12
-15
-40
-33
-22
-12
-2
18
3
5
-14
-19
-44
-22
-13
-19
-17
1
14
-13
-35
-38
-60
-52
-38
-18
-12
-6
-4
-1
-26
-23
-40
-43
-31
-10
-8
-12
-10
-6
-24
-29
-49
-54
-24
-15
-20
-16
-2
-9
-36
-32
-42
-39
-31
-9
-8
14
-2
-20
-11
-36
-49
-31
-33
-19
-5
-5
3
-10
-38
-40
-47
-56
-32
-9
7
3
1
-20
-55
-43
-63
-38
-24
-13
-3
2
-1
-14
-12
-30
-34
-36
-37
-10
-8
1
-19
-20
-17
-35
-41
-43
-19
-10
3
6
0
-22
-25
-39
-46
-41
-36
-24
10
4
-13
-7
-32
-32
-31
-25
-15
-8
0
5
-25
-29
-29
-54
-32
-26
-19
-7
14
11
10
-16
-25
-47
-57
-41
-42
-33
-1
-2
-6
-31
-31
-44
-31
-20
-2
3
15
9
-10
-22
-11
-39
-34
-30
-24
-17
12
-5
4
-5
-11
-29
-29
-25
-1
-4
2
2
-3
-28
-24
-34
-26
-24
4
10
35
35
8
8
-1
-6
-25
-19
18
17
31
26
5
-7
0
-12
-12
-2
14
28
39
20
15
-6
-15
-22
-12
8
21
32
27
19
4
-32
-37
-54
-48
-19
-8
5
18
14
-16
-22
-32
-38
-35
-18
-9
3
7
-8
-9
-21
-45
-40
-39
-3
9
24
49
54
38
34
45
50
82
107
148
160
140
108
61
25
-24
-73
-95
-129
-169
-150
-144
-169
-178
-170
-157
-127
-99
-87
-83
-65
-83
-49
-66
-67
-79
-53
-50
-37
-19
-2
-7
-14
-15
-19
-27
-15
-7
7
5
3
17
-7
-15
-24
-26
-39
-14
3
1
28
27
15
-1
-10
-29
-24
-8
6
16
18
20
17
15
21
-3
-22
-6
-8
3
26
19
11
2
-8
-16
-10
25
23
26
52
57
27
14
12
3
8
6
23
32
47
51
47
34
19
27
34
49
50
34
64
62
49
34
16
-8
13
50
76
86
88
72
71
64
47
16
33
46
81
68
86
89
79
80
68
51
63
90
88
75
92
90
74
62
38
43
61
76
77
100
94
86
74
62
50
67
53
67
81
86
81
68
42
38
18
7
33
46
48
32
46
35
19
26
-8
-7
4
16
24
40
33
23
17
7
-15
-8
-8
11
4
33
35
14
-5
-14
-34
-26
-12
10
17
35
38
15
-3
-13
-36
-22
1
15
1
15
19
14
-2
-14
-24
-19
-6
9
15
26
39
11
-28
-22
-41
-33
-2
15
8
20
15
7
-10
-3
-16
-19
-15
10
28
24
15
4
-7
-5
-17
-24
-4
11
27
26
10
4
1
-10
-18
-23
-7
8
20
14
10
2
0
-8
-27
-9
8
6
1
14
18
14
-8
-18
-15
-14
-8
-3
15
31
17
-11
-14
-33
-25
-37
-17
17
20
24
10
-8
-13
-20
-24
-12
-14
1
42
45
22
4
-24
-37
-33
-38
-10
0
16
27
16
-4
-18
-43
-33
-17
9
-2
7
37
7
-4
-18
-36
-41
-1
0
15
25
25
12
-5
-9
-29
-30
-30
-17
1
26
10
11
-1
9
-38
-35
-18
-2
2
11
23
8
-11
-14
-35
-30
-2
5
13
41
17
-2
-17
-30
-42
-29
-8
-2
-3
17
22
13
-3
-23
-22
-17
-25
-5
3
16
35
5
-7
-27
-34
-30
-23
-6
3
20
21
-1
-14
-26
-32
-24
-10
4
5
6
9
5
-21
-21
-19
-17
-2
10
13
10
-3
-17
-19
-11
-21
-5
6
5
7
21
-1
-6
-5
-24
-29
-29
-6
19
27
42
33
11
2
-1
-10
3
17
48
34
48
42
26
17
-5
-5
10
26
27
50
46
30
37
21
1
6
10
23
31
45
52
38
28
18
-9
-7
-3
8
7
21
21
16
1
-11
-17
-18
-5
5
13
28
34
-1
-12
-7
-23
-25
-14
-6
24
39
30
22
15
19
14
9
29
66
90
119
143
158
143
118
77
50
35
32
7
-13
-68
-124
-158
-158
-172
-180
-163
-127
-114
-73
-62
-63
-69
-57
-64
-68
-73
-57
-44
-3
-12
-10
-38
-28
-39
-31
-13
5
10
33
21
8
-2
-9
-26
-16
-3
8
26
35
20
17
6
1
-11
-15
10
6
11
39
48
15
10
-5
-11
7
22
40
34
41
31
19
0
-5
-7
6
4
13
29
58
52
23
23
-1
-3
7
28
41
59
59
47
23
6
-15
8
23
34
49
60
65
48
30
22
20
24
24
44
57
78
77
62
41
35
16
24
44
49
53
87
101
92
70
55
42
47
61
76
70
70
85
67
80
76
52
56
64
86
97
99
104
80
83
70
35
49
59
75
83
82
86
80
62
41
32
30
34
47
54
61
54
50
33
17
5
1
20
36
38
43
35
31
18
7
-7
-4
-8
12
18
20
16
3
-14
-17
-18
-13
-2
-3
8
28
25
16
-3
-14
-17
-4
0
20
11
20
18
4
-22
-25
-21
-22
-17
3
8
6
18
8
-8
-11
-25
8
-11
4
3
12
1
0
-6
-9
-29
-12
-3
11
30
41
24
21
8
-4
3
-4
19
10
28
48
38
9
-10
-8
-24
-29
-25
2
20
32
34
21
15
-4
-27
-24
-18
-6
31
33
7
5
2
-16
-15
-1
5
12
18
19
30
-10
5
-24
-22
-11
-9
6
15
10
10
10
-6
-19
-19
-7
15
17
25
21
-6
-27
-25
-22
-5
-13
5
9
30
38
2
-16
-26
-40
-33
-21
-6
8
41
26
9
6
2
-9
-37
-33
-9
-1
11
10
2
-17
-18
-35
-38
-17
13
17
18
27
14
-6
-15
-32
-39
-21
6
24
32
40
14
-10
-6
-35
-33
-18
-3
6
26
6
6
-19
-26
-18
-13
6
25
19
36
19
-11
-24
-22
-25
-15
-16
12
7
18
25
7
-10
-21
-37
-18
-6
-2
19
34
7
-3
-5
-33
-32
-17
-2
2
12
25
13
3
-12
-32
-30
-15
0
18
34
22
28
11
-21
-40
-21
-14
8
20
28
21
15
-5
-3
-24
-25
-12
-1
3
21
15
2
-7
-1
-15
-12
-1
5
11
25
29
17
2
-23
-22
-12
-6
3
5
19
34
35
4
4
8
15
25
56
39
61
55
21
1
-11
2
0
21
25
41
57
54
42
19
18
11
6
13
29
35
61
36
14
8
16
-3
-11
10
27
38
42
34
6
-25
-37
-29
-32
-14
9
14
30
9
4
3
-8
-21
-16
-3
15
17
35
34
10
-15
6
9
29
33
53
99
137
147
149
138
115
93
59
71
44
33
-7
-53
-124
-156
-182
-184
-174
-140
-105
-72
-57
-63
-72
-66
-87
-72
-65
-37
-21
-6
9
-25
-22
-12
-30
-11
-12
2
6
18
14
13
10
-1
-10
-5
-6
14
28
64
48
21
2
8
-4
-4
-15
-6
27
48
56
45
30
26
-7
-5
8
5
17
31
49
42
33
25
4
14
14
14
30
54
58
36
25
31
19
18
26
48
53
66
52
37
30
29
12
12
37
37
45
71
76
54
34
39
29
29
32
63
76
86
91
75
62
36
27
34
62
82
67
89
88
75
63
53
52
46
67
75
89
111
117
109
89
76
54
48
74
90
92
106
106
104
90
65
57
60
65
74
92
93
80
72
66
55
35
49
42
71
86
81
69
61
40
32
16
31
41
52
46
60
45
28
-1
-10
1
6
21
23
32
42
29
22
7
-12
-5
0
3
12
36
21
23
18
13
-17
-15
0
12
19
33
53
32
9
28
8
-5
2
11
3
17
12
25
13
-12
-20
-20
-10
27
37
42
37
37
10
8
-11
-18
-19
2
15
48
32
19
6
4
-9
-7
3
22
37
51
40
2
-7
11
-15
-20
-4
12
20
34
42
29
19
1
-15
-5
-1
18
32
29
17
26
15
3
-22
-7
7
18
27
38
35
14
4
-14
-25
5
1
-2
15
26
32
20
-4
-3
-10
6
1
14
22
27
26
16
8
-16
-23
-17
9
19
18
17
7
13
6
-16
-15
-8
-3
13
23
30
24
11
16
5
-3
-7
5
14
26
26
10
-1
-6
-18
-22
-13
9
10
21
40
29
-7
0
-4
-22
-17
1
24
29
13
11
11
-5
-27
-17
-12
3
9
24
30
12
-12
1
-23
-15
0
5
5
28
30
23
-3
-15
-24
-20
-13
-7
7
34
45
32
9
-4
-15
-21
-8
-1
19
25
21
-4
-20
-16
-23
-21
0
20
16
28
31
17
-12
-15
-25
-19
-10
11
11
17
40
23
11
11
-25
-22
-4
20
36
41
44
34
14
4
-6
9
20
26
39
45
48
36
25
12
6
6
16
25
36
30
15
36
10
-1
-17
-5
-2
8
28
34
13
-18
-13
-17
-18
-21
-3
10
28
12
6
-8
-14
-29
-20
-31
-15
-7
1
6
10
10
6
-29
-6
8
33
53
75
81
82
97
113
102
110
111
110
85
81
60
13
-38
-101
-181
-191
-175
-160
-143
-122
-113
-82
-82
-99
-99
-81
-80
-59
-53
-30
-23
-39
-25
-39
-49
-51
-28
-14
0
24
28
14
7
-1
-20
-22
-10
11
21
37
37
23
2
-10
-12
-9
-8
-3
14
41
38
28
5
2
-9
-14
11
22
20
41
26
19
18
9
-6
-10
7
29
49
65
48
28
21
23
21
10
25
25
36
55
52
30
13
15
15
20
31
52
63
74
51
53
44
20
25
22
21
37
62
74
73
68
43
46
31
40
51
60
85
89
89
77
69
63
64
65
79
90
91
85
92
92
79
55
50
71
92
94
104
98
88
66
74
62
64
49
62
96
112
103
80
76
73
43
44
54
58
66
79
66
57
42
32
17
10
22
32
39
45
28
37
22
10
1
1
-7
24
28
33
28
26
14
7
-19
-8
3
30
4
20
41
24
9
-4
-28
-26
-7
9
10
29
32
7
-15
-13
-7
-4
-6
0
15
23
7
5
-9
-24
-30
-26
-19
6
24
36
29
14
-13
-1
-10
-4
1
14
23
24
26
19
-1
-19
-25
-23
0
4
16
33
26
10
7
-13
-20
-13
-11
6
27
31
21
10
2
-10
-9
-4
-13
-5
14
29
36
6
-14
-13
-27
-19
-13
-21
15
31
24
13
1
-14
-17
-5
15
17
11
8
16
7
-9
-26
-30
-6
4
14
21
19
13
-10
-21
-24
-14
-3
11
13
17
23
14
-4
-12
-35
-18
-14
-6
16
32
36
21
3
-10
-28
-12
-7
14
14
21
18
1
-20
-15
-21
-35
-32
1
6
23
21
11
-19
-18
-33
-16
7
18
27
37
28
9
-18
-27
-25
-32
-26
10
-4
27
40
16
-11
-12
-29
-34
-19
-3
14
17
17
8
-16
-36
-53
-41
-13
11
17
26
15
19
0
-19
-35
-35
-26
4
6
26
19
10
2
-4
-22
-30
-6
19
24
22
15
-4
-2
-20
-52
-24
-6
-4
-2
23
15
8
-5
-20
-20
-16
1
12
20
29
19
5
-21
-11
-19
-23
-4
1
8
13
6
-14
-10
-38
-42
-9
-14
14
23
23
22
4
-23
-37
-32
-17
27
23
20
37
27
6
-6
-18
-9
-5
7
24
47
42
20
8
16
-26
4
21
25
30
50
43
35
30
11
-11
2
15
22
16
33
23
12
6
-20
-32
-21
-21
8
-1
9
19
5
-11
-15
-34
-25
-29
-18
-17
-6
-6
1
-1
-20
-32
-28
-17
3
11
10
-7
-7
0
7
4
37
50
78
90
109
132
136
137
90
54
21
15
-12
-38
-66
-115
-181
-210
-208
-204
-174
-130
-100
-79
-54
-78
-92
-89
-78
-99
-69
-54
-53
-20
-3
1
-17
-24
-23
-25
-29
-15
8
14
20
12
1
-16
-15
-6
-5
4
1
19
24
10
11
-2
-23
-30
-10
20
4
15
24
12
-3
-16
-22
-19
-6
12
14
27
26
25
14
26
6
3
-16
17
29
35
26
18
9
1
-5
-17
-1
20
30
38
43
33
13
0
-13
6
24
40
44
48
51
51
27
15
1
11
16
42
48
64
63
42
40
48
25
22
28
59
66
96
86
79
57
52
31
31
37
57
63
95
82
67
33
40
29
35
51
75
80
97
97
70
49
38
30
32
47
65
58
71
71
57
56
41
34
24
15
44
49
53
43
29
9
-15
-7
-3
12
31
28
20
11
-5
-5
-17
-15
-16
1
2
-7
-6
-11
-22
-25
-33
-59
-50
-36
-18
-16
-16
-15
-27
-46
-44
-51
-49
-18
-7
-10
0
-16
-25
-31
-39
-59
-45
-32
-29
-3
6
14
-9
-14
-35
-42
-34
-25
-13
0
12
0
-5
-19
-27
-31
-16
2
-1
3
-6
-16
-26
-32
-38
-58
-68
-60
-48
-39
-38
-47
-60
-60
-76
-65
-41
-33
-35
-25
-23
-28
-47
-59
-80
-78
-68
-60
-47
-34
-30
-38
-43
-60
-52
-55
-59
-19
-26
-8
-16
-26
-44
-39
-55
-63
-47
-28
-16
-4
-29
-52
-72
-52
-68
-69
-55
-42
-37
-26
-17
-28
-28
-43
-54
-54
-51
-24
-13
10
-8
-9
-23
-47
-72
-82
-62
-52
-28
-6
-20
-28
-47
-49
-67
-58
-37
-27
-22
-24
-12
-26
-43
-45
-46
-51
-51
-43
-28
-14
-24
-41
-50
-62
-75
-68
-48
-42
-17
-17
-19
-33
-44
-49
-67
-74
-37
-29
-31
-12
-1
-19
-35
-61
-60
-53
-15
-15
-10
-4
-18
-45
-60
-87
-80
-70
-37
-39
-14
-34
-42
-50
-60
-71
-77
-66
-35
-44
-21
-27
-32
-45
-57
-69
-60
-56
-45
-35
-20
-18
-32
-43
-48
-74
-67
-61
-48
-42
-22
-22
-35
-64
-69
-88
-97
-56
-43
-54
-29
-29
-42
-47
-50
-61
-91
-72
-63
-72
-44
-26
-62
-67
-60
-87
-87
-67
-47
-42
-28
-19
-32
-49
-60
-67
-63
-55
-39
-31
-11
-10
-22
-42
-41
-50
-37
-32
-27
-13
-12
2
-4
-18
-25
-33
-45
-24
-18
3
17
9
2
-25
-39
-38
-28
-16
-10
4
9
-15
-25
-38
-36
-41
-45
-41
-19
-11
3
-8
-14
-28
-32
-39
-35
-27
-23
-18
-18
-30
-40
-28
-40
-29
-27
-11
6
25
31
41
42
53
77
83
99
110
108
104
75
50
4
-37
-87
-138
-193
-190
-165
-152
-150
-135
-154
-153
-133
-116
-99
-83
-72
-42
-37
-15
-40
-61
-87
-65
-40
-24
-16
11
2
-6
-11
-10
-33
-38
-24
-4
-6
17
10
9
10
-16
-24
-29
-17
7
2
15
30
14
0
-4
-11
-11
8
28
24
40
41
24
-1
-22
-17
-8
-7
-1
17
37
35
28
21
16
-2
4
4
26
36
49
52
31
3
17
3
11
26
21
36
54
55
45
18
5
27
25
36
37
38
59
61
69
43
28
8
30
55
75
71
78
83
75
48
38
33
44
62
78
94
103
105
78
55
48
37
44
64
74
91
91
94
80
68
51
43
66
70
74
84
83
80
55
57
47
37
47
49
51
79
72
76
50
23
6
13
16
26
27
52
58
37
27
12
-17
5
23
37
33
22
12
12
10
-6
-33
-39
-18
16
18
48
42
5
-14
-35
-36
-22
-26
-5
-9
13
35
7
-20
-17
-31
-19
-13
3
-1
27
27
8
-8
-8
-24
-32
-10
5
19
36
30
22
-1
-11
-35
-46
-11
2
20
44
21
15
-24
-10
-26
-31
-18
-1
13
18
14
9
-4
-23
-9
-20
-4
9
36
38
15
-1
-7
-30
-26
-31
-8
19
22
28
23
2
-14
-24
-31
-23
-14
7
5
21
-5
-5
-13
-24
-34
-19
-5
-7
5
10
7
-3
-14
-22
-34
-20
-3
3
15
17
23
-3
-17
-27
-32
-21
-5
-1
2
14
1
-12
-13
-34
-36
-21
-6
18
36
28
0
-31
-27
-38
-29
-30
-21
-4
23
4
18
7
0
-33
-23
-17
-7
2
13
-4
-24
-28
-24
-37
-39
-35
-9
-5
17
14
0
-7
-13
-24
-34
-27
-14
5
22
20
10
-4
-26
-52
-40
-32
-1
-17
13
-8
-2
-8
-19
-39
-30
-12
-1
-2
1
-4
-16
-14
-34
-23
-33
-46
-11
1
12
11
-9
-21
-22
-41
-40
-15
0
-1
4
5
9
-14
-23
-34
-26
-13
-10
19
33
37
18
8
5
-7
7
0
-1
0
32
17
-7
-8
13
-7
-19
-9
-7
12
36
26
6
0
2
-6
-21
2
9
3
12
12
12
-17
-20
-43
-27
-10
-26
-19
13
10
-13
-19
-25
-25
-43
-34
-13
16
22
-7
-25
-24
-35
-17
-15
-12
-2
11
-8
9
18
25
27
49
70
103
122
155
139
99
77
33
-12
-37
-60
-104
-161
-151
-156
-173
-201
-193
-176
-152
-141
-112
-84
-37
-63
-72
-75
-65
-77
-62
-42
-20
-11
15
-4
-36
-38
-19
-22
-42
-37
-19
8
27
19
3
-14
-22
-40
-28
-25
-8
18
15
7
11
-10
-19
-12
-25
2
6
19
43
17
29
0
-13
-21
-16
-12
5
33
32
37
14
3
-11
-4
4
7
23
14
44
51
15
16
6
5
3
7
29
38
46
42
19
23
11
7
19
35
26
52
57
46
30
31
20
13
13
27
52
73
63
62
52
47
24
21
34
59
54
71
67
68
65
68
36
46
52
75
78
84
77
73
69
63
50
41
56
57
77
88
88
72
54
37
25
39
25
58
77
72
68
70
42
43
17
2
7
29
39
39
41
19
14
14
-19
-34
-27
5
7
15
21
16
-2
-18
-45
-29
-19
-23
-13
14
13
-5
-22
-16
-40
-28
-21
-12
-8
12
13
3
-8
-3
-55
-52
-33
-8
6
13
8
-17
-32
-25
-45
-57
-20
-7
-6
2
24
-14
-25
-34
-36
-35
-31
-22
1
12
-10
-8
-29
-17
-30
-40
-30
-15
-7
18
-4
-9
-11
-31
-68
-51
-32
-16
14
10
7
-9
-19
-27
-42
-38
-17
-22
5
7
10
-18
-33
-41
-34
-35
-27
-22
1
5
-9
-28
-29
-43
-50
-27
-22
-25
4
12
0
-23
-27
-53
-46
-33
-14
-11
10
9
-5
-10
-44
-53
-42
-36
-15
4
4
-6
3
-26
-18
-52
-37
-26
-11
-11
-9
-25
-5
-40
-37
-34
-28
-27
-13
-4
11
0
-5
-18
-6
-38
-53
-49
-19
4
10
15
-6
-12
-30
-61
-59
-48
-28
-20
0
-9
-24
-27
-36
-46
-44
-38
-12
-7
14
-5
-24
-35
-45
-51
-58
-51
-19
-14
-1
-7
-11
-21
-28
-49
-44
-18
-2
-2
13
7
-10
-33
-50
-51
-38
-37
-33
-20
-6
-12
-26
-32
-26
-45
-39
-42
-23
-17
-1
-14
-24
-40
-51
-45
-54
-31
-20
-11
-1
3
-15
-16
-39
-39
-59
-63
-35
3
6
-2
-2
-19
-36
-33
-46
-22
-2
-1
8
-12
-4
-18
-28
-25
-17
-3
0
9
24
3
-14
-8
-19
-25
-20
4
5
22
18
14
-8
-7
-29
-50
-30
-10
-4
27
15
9
10
-14
-54
-52
-48
-23
-35
-13
1
-10
-26
-26
-58
-64
-52
-41
-15
-15
-7
-10
-32
-36
-59
-62
-47
-30
-20
-2
6
-7
-2
-3
-1
12
39
59
91
130
137
107
87
45
0
-8
-22
-50
-76
-120
-153
-162
-164
-178
-174
-173
-139
-120
-116
-90
-58
-62
-79
-101
-91
-77
-67
-64
-52
-38
-37
-28
-47
-59
-66
-32
-20
-8
-4
17
16
-9
-22
-38
-66
-57
-40
-34
-5
12
-17
-21
-20
-26
-37
-35
-13
-5
1
-1
-5
-16
-25
-23
-32
-38
-6
-9
14
23
1
-12
-16
-52
-27
-16
-17
1
7
12
17
-13
-33
-27
-21
-12
-2
5
21
15
21
-4
-18
-35
-15
0
11
3
13
27
21
7
-1
-19
-10
-4
10
7
32
33
28
14
15
-13
-18
20
14
36
66
58
33
18
16
-4
-2
11
22
35
69
59
41
18
22
15
5
20
39
42
56
53
30
28
20
-5
3
17
36
48
33
44
32
5
-7
-26
-21
-22
11
4
1
2
-7
-15
-30
-30
-38
-32
-11
-13
-3
-5
-35
-50
-41
-79
-61
-45
-41
-16
-8
-17
-21
-44
-59
-60
-62
-66
-56
-46
-24
-35
-44
-51
-66
-82
-71
-48
-35
-39
-31
-28
-39
-46
-70
-80
-76
-65
-40
-30
-18
-19
-49
-61
-52
-63
-67
-53
-43
-10
-13
-30
-35
-54
-68
-71
-56
-44
-43
-17
-21
-36
-41
-60
-52
-62
-62
-49
-46
-33
-36
-36
-40
-59
-79
-68
-73
-51
-33
-7
-26
-26
-50
-52
-79
-74
-63
-34
-36
-33
-22
-22
-46
-62
-78
-73
-67
-49
-41
-30
-15
-18
-44
-64
-82
-74
-67
-63
-42
-27
-42
-31
-50
-59
-86
-70
-75
-67
-37
-31
-46
-53
-51
-63
-81
-72
-62
-48
-33
-29
-34
-54
-55
-78
-87
-79
-74
-71
-52
-35
-39
-51
-63
-83
-85
-83
-64
-50
-35
-14
-32
-49
-60
-71
-87
-83
-74
-59
-53
-34
-50
-62
-57
-63
-54
-75
-51
-48
-56
-55
-55
-63
-59
-82
-100
-76
-63
-52
-31
-32
-49
-54
-64
-78
-84
-88
-80
-65
-42
-43
-41
-55
-58
-71
-76
-76
-76
-60
-39
-30
-49
-64
-61
-69
-71
-74
-39
-50
-37
-16
-10
-43
-44
-71
-67
-57
-43
-30
-20
-18
-35
-45
-49
-65
-69
-54
-38
-28
-20
-27
-37
-44
-50
-77
-71
-64
-59
-56
-40
-41
-56
-72
-63
-88
-70
-68
-61
-80
-48
-47
-57
-66
-101
-109
-96
-74
-59
-66
-53
-43
-46
-65
-77
-98
-80
-68
-42
-25
-1
9
20
33
38
38
44
51
32
12
0
-19
-52
-110
-172
-236
-237
-231
-221
-221
-185
-164
-159
-184
-175
-166
-163
-130
-120
-113
-104
-95
-100
-108
-116
-124
-102
-75
-60
-47
-45
-46
-68
-91
-94
-83
-69
-72
-63
-47
-35
-36
-48
-67
-87
-78
-67
-62
-60
-42
-40
-37
-51
-66
-78
-67
-50
-55
-41
-47
-34
-32
-55
-47
-85
-77
-67
-49
-50
-32
-26
-35
-50
-48
-68
-76
-56
-35
-30
-25
-21
-28
-36
-42
-59
-65
-48
-36
-36
-14
0
-6
-19
-34
-42
-51
-41
-31
-29
-1
-4
-2
-18
-29
-42
-32
-17
-2
-5
14
16
1
-2
-13
-54
-43
-24
5
17
29
26
12
2
0
-17
-18
-7
17
14
27
28
22
3
-13
-24
-6
8
5
16
24
18
7
-10
-27
-33
-29
-23
-9
5
7
-9
-22
-34
-55
-56
-45
-47
-32
-28
-18
-28
-49
-62
-61
-88
-85
-56
-46
-42
-33
-41
-68
-77
-81
-86
-91
-86
-60
-56
-46
-57
-69
-74
-83
-94
-89
-54
-42
-55
-64
-59
-68
-82
-91
-91
-84
-60
-59
-54
-33
-46
-58
-87
-107
-95
-94
-73
-48
-48
-51
-56
-66
-68
-92
-93
-78
-64
-70
-50
-54
-57
-72
-84
-102
-104
-93
-68
-57
-36
-50
-52
-58
-75
-105
-73
-68
-64
-59
-45
-51
-59
-71
-72
-96
-108
-94
-74
-57
-48
-38
-49
-70
-101
-106
-96
-82
-63
-56
-44
-48
-65
-84
-87
-107
-100
-85
-72
-61
-45
-46
-70
-88
-89
-115
-100
-84
-68
-61
-54
-44
-56
-75
-77
-93
-90
-81
-68
-59
-55
-57
-53
-64
-108
-106
-95
-86
-69
-54
-43
-52
-56
-66
-81
-90
-109
-114
-94
-60
-52
-60
-75
-88
-87
-99
-103
-95
-69
-53
-36
-57
-65
-68
-100
-108
-90
-97
-75
-73
-54
-58
-75
-79
-98
-101
-85
-69
-53
-58
-42
-45
-69
-85
-92
-79
-88
-76
-68
-56
-56
-68
-76
-86
-100
-95
-104
-92
-69
-56
-59
-57
-74
-79
-97
-94
-88
-73
-71
-49
-59
-59
-81
-91
-111
-81
-83
-74
-67
-49
-57
-53
-73
-75
-115
-104
-88
-83
-82
-39
-50
-68
-86
-90
-98
-93
-76
-63
-49
-43
-39
-59
-75
-79
-91
-83
-73
-53
-40
-28
-35
-44
-47
-60
-85
-99
-78
-46
-26
-21
-16
-36
-42
-72
-85
-86
-63
-57
-41
-27
-23
-39
-60
-77
-99
-94
-73
-60
-54
-43
-58
-90
-79
-109
-101
-96
-95
-72
-67
-60
-54
-75
-88
-95
-107
-101
-83
-77
-71
-46
-43
-71
-81
-88
-88
-86
-58
-32
-23
-5
18
29
37
48
55
53
33
10
-13
-20
-59
-112
-165
-211
-240
-241
-243
-223
-195
-173
-179
-173
-163
-164
-167
-147
-141
-138
-108
-86
-95
-117
-114
-120
-100
-99
-80
-69
-50
-53
-63
-82
-85
-90
-81
-89
-79
-61
-42
-36
-54
-65
-73
-90
-83
-77
-71
-55
-34
-28
-41
-56
-66
-96
-102
-89
-52
-44
-16
-33
-49
-64
-67
-77
-77
-64
-52
-37
-27
-29
-41
-55
-64
-83
-78
-61
-22
-23
-9
-25
-16
-17
-30
-71
-72
-60
-33
-27
-10
-20
-36
-53
-56
-60
-49
-38
-18
-8
6
8
-3
-30
-54
-59
-38
-17
3
-7
14
-9
-3
-9
-12
-30
-15
-6
3
9
29
23
10
-9
-13
-28
-14
-10
11
16
18
27
13
18
-23
-36
-24
-3
22
10
17
26
19
-6
-34
-43
-33
-21
-6
-8
-1
4
-21
-52
-48
-47
-51
-42
-38
-54
-37
-45
-51
-64
-87
-64
-82
-67
-45
-33
-47
-47
-63
-80
-84
-90
-90
-67
-57
-43
-40
-44
-64
-64
-95
-84
-80
-71
-57
-48
-60
-73
-71
-75
-95
-94
-85
-70
-49
-28
-41
-49
-65
-77
-102
-95
-96
-93
-57
-46
-48
-65
-84
-81
-85
-88
-78
-72
-61
-42
-43
-60
-81
-88
-94
-85
-71
-66
-69
-40
-41
-60
-69
-81
-91
-74
-74
-68
-51
-27
-43
-58
-74
-82
-93
-89
-82
-72
-80
-41
-41
-70
-74
-86
-105
-88
-81
-72
-47
-47
-62
-63
-75
-87
-95
-90
-93
-72
-57
-58
-56
-76
-81
-91
-99
-94
-80
-62
-60
-49
-55
-55
-65
-88
-94
-90
-80
-66
-51
-53
-59
-75
-59
-83
-91
-82
-73
-76
-55
-57
-61
-66
-81
-84
-92
-90
-88
-77
-70
-56
-57
-82
-76
-95
-102
-94
-76
-71
-59
-56
-64
-84
-78
-99
-105
-82
-57
-59
-51
-55
-70
-90
-82
-104
-97
-97
-62
-55
-50
-50
-51
-72
-76
-98
-82
-81
-65
-64
-62
-62
-63
-77
-90
-93
-88
-90
-64
-68
-63
-57
-68
-78
-76
-98
-106
-95
-72
-52
-53
-49
-53
-77
-79
-104
-115
-91
-81
-73
-51
-52
-59
-80
-88
-95
-95
-94
-59
-56
-44
-45
-63
-76
-93
-114
-107
-94
-67
-58
-48
-57
-71
-73
-81
-84
-71
-82
-73
-60
-70
-62
-82
-93
-86
-102
-94
-76
-61
-52
-35
-30
-52
-63
-90
-84
-89
-85
-63
-50
-34
-38
-41
-48
-74
-90
-79
-38
-33
-26
-10
-27
-42
-68
-84
-77
-85
-52
-46
-30
-27
-41
-60
-75
-84
-97
-88
-79
-74
-51
-50
-70
-78
-75
-90
-89
-85
-87
-66
-42
-72
-71
-97
-97
-103
-93
-94
-71
-73
-56
-59
-56
-75
-85
-108
-76
-67
-28
-8
3
11
30
42
67
63
49
22
4
-30
-27
-52
-103
-166
-221
-267
-271
-262
-240
-220
-181
-171
-174
-174
-160
-169
-162
-158
-137
-118
-86
-66
-83
-108
-91
-99
-98
-99
-70
-65
-48
-50
-55
-83
-82
-95
-100
-96
-72
-46
-30
-40
-55
-58
-65
-83
-91
-82
-59
-51
-39
-42
-56
-73
-89
-82
-67
-74
-57
-41
-28
-36
-46
-59
-70
-84
-76
-54
-44
-45
-26
-25
-36
-48
-62
-75
-60
-53
-45
-14
-12
-29
-55
-50
-50
-58
-57
-35
-25
-10
1
-22
-30
-41
-54
-49
-64
-37
-23
-6
1
-8
-10
-21
-42
-43
-21
-5
8
28
19
-3
-24
-35
-23
-31
-13
-5
10
39
29
14
-2
-11
-17
-27
0
23
27
33
21
15
-2
7
-4
-18
-11
13
27
39
41
29
8
-9
-38
-35
-35
-17
-12
-6
-10
-4
-22
-33
-53
-60
-41
-32
-24
0
-25
-56
-83
-63
-53
-75
-51
-40
-33
-6
-9
-51
-71
-61
-87
-80
-82
-61
-43
-35
-30
-41
-62
-81
-90
-79
-68
-50
-47
-32
-37
-48
-62
-72
-88
-76
-56
-54
-38
-34
-49
-40
-38
-52
-90
-81
-67
-50
-39
-40
-31
-56
-58
-80
-100
-84
-70
-51
-35
-29
-46
-40
-52
-70
-80
-70
-55
-55
-43
-25
-24
-25
-40
-63
-90
-80
-71
-71
-56
-38
-33
-41
-59
-70
-71
-52
-62
-50
-43
-21
-56
-57
-67
-86
-74
-66
-66
-47
-42
-38
-33
-53
-61
-82
-81
-69
-67
-58
-47
-26
-30
-57
-66
-79
-73
-62
-56
-43
-18
-40
-49
-50
-57
-78
-81
-49
-34
-41
-21
-26
-43
-85
-86
-82
-85
-80
-58
-44
-20
-23
-43
-62
-48
-75
-68
-55
-62
-68
-56
-54
-35
-54
-67
-89
-81
-55
-50
-51
-39
-24
-53
-60
-59
-81
-78
-65
-51
-48
-34
-40
-36
-46
-56
-78
-73
-60
-49
-28
-18
-29
-47
-72
-66
-81
-87
-48
-32
-32
-25
-44
-53
-57
-80
-92
-78
-70
-50
-29
-23
-40
-45
-53
-60
-83
-72
-74
-67
-46
-28
-32
-53
-66
-73
-72
-71
-50
-50
-40
-31
-41
-49
-59
-78
-77
-68
-56
-38
-20
-22
-37
-59
-52
-61
-64
-56
-54
-36
-14
-13
-27
-51
-61
-87
-75
-70
-61
-44
-26
-38
-15
-46
-55
-69
-60
-52
-27
-12
-7
-21
-21
-47
-54
-70
-47
-55
-22
-17
-4
1
-14
-32
-42
-56
-55
-35
-21
-6
10
-3
-8
-17
-33
-72
-63
-36
-28
-18
2
-8
-16
-42
-38
-75
-70
-58
-44
-31
-16
-30
-39
-47
-61
-81
-65
-63
-46
-56
-48
-42
-52
-58
-68
-79
-67
-54
-43
-37
-18
-15
-11
-7
-8
-18
7
36
69
95
113
109
86
39
-9
-32
-49
-78
-107
-148
-165
-187
-211
-219
-218
-211
-186
-151
-129
-120
-98
-99
-102
-108
-110
-88
-73
-45
-67
-48
-42
-53
-63
-78
-81
-61
-70
-36
-23
-4
-11
-23
-34
-58
-67
-62
-46
-37
-21
-12
-13
-9
-45
-40
-64
-48
-46
-27
-13
-13
-6
-6
-21
-17
-31
-31
-28
-19
-14
16
1
0
-11
-38
-61
-48
-44
-16
1
11
-1
-6
-19
-19
-30
-17
-26
-17
7
26
25
3
0
-12
-35
-23
-13
2
2
39
31
11
-1
-17
-9
7
9
28
47
63
58
47
23
10
-20
-16
-1
24
46
45
43
35
33
14
28
6
20
35
33
55
60
46
34
32
16
17
20
45
57
67
62
61
38
38
15
18
27
31
47
69
39
20
18
6
-12
-17
-3
3
20
19
5
-1
2
-26
-33
-19
-10
-1
-1
-1
-1
-10
-23
-34
-45
-48
-34
-43
-19
-5
-17
-30
-28
-54
-46
-51
-5
-8
-3
-9
-12
-18
-32
-56
-75
-54
-28
-8
1
3
0
-21
-28
-60
-55
-44
-18
-22
-3
-7
-19
-35
-38
-69
-60
-41
-18
-13
7
-3
-14
-38
-45
-53
-48
-47
-23
-13
-1
-13
7
-14
-14
-44
-49
-45
-29
-21
-13
0
-1
-19
-36
-45
-47
-48
-29
-19
-2
-10
-20
-21
-27
-55
-47
-51
-27
-30
14
4
-11
-27
-39
-44
-51
-38
-23
0
0
-12
-35
-37
-23
-41
-44
-21
2
-15
-8
-10
-27
-43
-47
-61
-55
-33
-27
-22
0
10
-12
-16
-29
-41
-24
-26
-23
-35
-25
-18
-19
-23
-29
-52
-46
-25
-15
-4
-6
-15
-31
-36
-37
-50
-56
-36
-34
-12
5
16
7
-20
-53
-36
-29
-27
-32
-10
-3
-14
-26
-32
-43
-48
-25
-24
-20
-5
16
0
-21
-29
-54
-48
-42
-18
-15
2
6
-5
-21
-32
-44
-30
-25
-25
-30
-20
-8
-26
-24
-15
-43
-49
-31
-21
-20
0
-8
-9
-1
-6
-35
-47
-35
-24
-15
7
2
-9
-18
-29
-62
-68
-41
-18
-9
2
-2
5
-13
-22
-36
-25
-7
3
-3
8
19
-1
-15
-10
-24
-20
-1
4
12
33
9
19
5
2
-14
-16
-4
1
16
27
20
18
8
-14
-24
-26
-25
-8
8
10
0
-18
-17
-30
-38
-46
-33
-22
-12
4
2
-17
-24
-40
-60
-39
-29
-4
4
18
13
-5
-30
-32
-52
-43
-36
-9
9
31
27
22
25
28
43
61
102
130
137
120
99
52
31
-17
-53
-96
-117
-166
-146
-150
-138
-159
-153
-138
-138
-115
-105
-70
-54
-51
-51
-59
-65
-90
-81
-59
-43
-39
2
1
-13
-16
-16
-31
-19
-5
-11
-9
13
1
-11
-15
-11
-34
-33
-16
4
21
30
23
13
13
-2
-30
-29
-18
1
12
20
25
20
-1
-9
-15
-12
0
21
21
19
45
23
4
-3
-9
-7
0
6
36
41
28
23
10
17
1
5
25
31
36
55
47
31
36
31
7
12
44
53
55
65
57
50
38
20
21
26
33
53
80
66
80
66
53
43
23
47
60
62
66
87
83
79
68
58
57
63
60
74
83
98
108
71
63
64
59
65
72
97
105
110
102
74
72
57
44
57
68
78
78
75
73
52
47
28
37
29
41
53
59
67
47
41
28
4
3
0
25
39
27
17
25
24
14
-3
-8
-7
3
15
33
33
23
-6
5
-14
-7
12
18
16
38
36
24
-3
-1
-15
-12
-12
22
28
49
48
22
-11
-2
-4
-12
-9
4
8
27
38
33
-5
8
0
-7
-9
10
16
34
38
22
-2
-12
-33
-12
-6
22
41
53
31
34
12
15
-10
-13
2
15
25
38
33
26
1
-1
-21
-8
-4
17
18
35
28
13
14
4
-10
-12
6
20
27
37
25
23
-7
-13
-14
14
19
25
33
41
36
18
1
-4
-21
-26
-14
3
23
39
32
24
0
-15
-30
-9
-2
14
28
33
24
18
6
-15
-10
-33
-11
25
52
49
33
0
-5
-23
-16
5
13
4
38
38
30
9
1
-14
-18
1
22
6
8
27
34
14
18
-9
-9
10
27
26
35
37
31
12
-12
-16
-21
-12
-3
14
37
32
9
5
-8
-12
-8
7
16
12
39
37
28
4
-1
-14
-13
-8
27
23
43
39
22
15
25
-1
-3
6
25
25
42
40
40
39
24
8
9
20
37
43
57
52
44
35
16
5
12
20
33
39
55
49
47
18
13
7
2
16
24
38
47
41
19
3
-15
-15
-18
4
36
29
39
32
16
5
-11
-25
-9
-10
0
15
35
38
33
19
-2
-21
-37
-12
16
7
49
49
67
53
56
78
99
125
150
158
155
128
73
38
-13
-31
-58
-97
-137
-124
-123
-134
-148
-144
-135
-117
-98
-70
-53
-31
-30
-33
-48
-46
-65
-44
-32
-31
-20
2
-4
25
19
16
-12
-8
-6
12
22
29
28
26
14
11
-13
-3
4
19
34
52
46
44
40
25
-1
-17
-1
22
19
43
51
33
28
22
3
8
27
35
31
48
41
36
28
22
-6
8
19
26
25
67
51
42
28
37
27
26
44
53
45
56
67
44
39
43
25
21
44
56
74
77
80
65
54
47
40
40
54
78
102
95
81
74
71
47
41
48
72
88
83
88
91
84
68
60
49
60
74
91
99
124
113
88
78
83
62
74
81
92
110
103
91
87
71
63
65
66
63
83
95
94
79
60
45
33
40
39
55
50
62
66
64
46
31
2
10
13
5
21
41
23
24
23
13
5
0
0
6
25
41
41
21
-1
-5
-7
-1
-10
1
20
40
43
24
16
-6
-24
-11
-3
15
19
26
39
19
-7
-7
-26
-18
4
4
27
37
33
38
1
-10
-17
-3
-19
14
20
38
41
22
16
3
-23
-9
-1
18
20
20
33
13
-9
2
-11
-23
2
19
23
38
31
13
-1
2
-17
-12
1
26
35
46
46
23
4
-6
-17
-22
-9
9
15
37
27
17
-3
-12
-15
-28
1
19
21
7
20
0
-13
-14
-16
-12
0
12
31
40
24
22
18
3
2
1
-12
6
10
15
10
-1
-1
-9
-21
-4
8
15
28
23
15
-2
-5
-14
3
-6
-26
8
38
28
30
2
-6
-18
-19
-18
0
10
29
25
6
4
0
-19
-11
-23
-2
1
26
16
4
10
7
2
-11
-19
-6
0
27
26
15
7
2
-16
-18
-16
9
8
21
13
20
-4
1
-37
-18
-7
-6
9
39
24
10
-3
-16
-37
-24
-16
1
27
45
35
4
-10
-22
-37
-26
-16
4
11
31
32
14
-9
-15
-27
-14
3
16
25
28
20
3
-8
-19
-26
-29
-12
6
16
27
26
27
14
-8
-27
-17
10
24
19
36
50
36
24
12
-6
-6
17
30
43
44
37
42
29
4
-9
7
15
27
32
33
29
28
19
0
6
6
9
9
30
42
26
9
-19
-35
-32
-16
-5
1
8
20
11
-9
-8
-10
-20
-18
-1
5
16
25
3
-4
-22
-26
-9
-6
9
36
73
81
84
95
123
97
109
115
120
108
94
70
46
-21
-71
-108
-164
-197
-178
-152
-122
-113
-114
-119
-110
-100
-91
-70
-48
-46
-24
-10
-31
-38
-40
-43
-34
-22
-6
11
14
29
-1
-2
-1
-10
-23
3
12
23
39
30
18
4
-1
-10
-17
0
11
8
52
43
21
6
-5
-12
-14
7
22
40
55
40
18
16
4
-9
-3
8
24
35
45
52
42
30
17
2
1
7
39
53
55
59
45
42
48
25
7
21
40
40
56
45
40
41
34
17
38
45
62
63
60
56
57
43
25
32
44
50
73
91
76
81
72
53
45
45
62
74
78
96
93
77
68
62
46
53
60
79
93
113
103
97
93
65
28
44
70
81
92
99
89
81
69
51
20
42
57
73
75
81
70
70
45
29
4
6
13
21
41
43
52
55
17
12
4
4
8
13
12
28
30
19
19
3
-17
-7
-8
11
22
19
15
10
-4
-3
-14
-15
-9
4
11
26
24
15
-17
-15
-18
-11
-3
17
24
31
16
9
-9
-24
-7
-12
1
7
23
30
20
0
-23
-13
-14
-8
7
19
29
36
22
12
6
-10
-24
-21
0
9
16
34
35
14
0
-9
-21
-11
6
9
16
24
13
-7
-16
-20
-26
-21
-11
7
26
31
23
14
-6
-25
-8
-8
1
9
24
26
16
3
-17
-23
-26
-25
5
10
28
29
32
12
-3
-29
-17
-8
5
12
37
21
16
1
0
-11
-22
-4
-7
-3
19
21
10
-15
-16
-31
-8
-20
2
6
32
38
-2
-14
1
-23
-17
-11
-3
5
15
7
14
14
-2
-28
-39
-12
5
3
22
15
0
-4
-2
-26
-30
-18
8
12
23
26
22
5
-9
-24
-15
-11
-2
-2
19
12
6
12
-7
-19
-20
-8
-1
-6
1
7
14
-5
-24
-23
-24
-9
18
21
37
26
14
1
-36
-41
-38
-27
2
10
8
12
-1
-11
-17
-25
-16
-1
21
24
22
22
-7
-20
-27
-28
-26
-17
15
25
27
22
3
-6
-12
-26
-34
-9
-14
-5
24
19
-1
-11
-8
-23
-15
-3
5
8
14
15
-2
-24
-31
-20
-8
-2
-7
21
22
11
-13
-9
-34
-35
-27
-12
-6
19
21
12
-3
-8
-22
-18
-17
-7
11
43
19
9
-10
3
-8
8
23
24
27
45
52
37
-4
-13
-47
-9
1
6
41
60
44
27
23
9
-23
-9
14
33
29
39
45
58
32
20
-9
-5
2
8
16
46
30
18
12
-12
-17
-13
-21
-6
11
26
29
-3
-19
-17
-22
-22
-22
-2
9
27
9
-5
-24
-37
-36
-13
-7
4
23
29
17
-1
6
16
17
32
39
66
98
134
137
133
127
104
66
47
47
12
-34
-55
-113
-169
-186
-198
-208
-177
-136
-112
-79
-68
-55
-66
-69
-88
-87
-67
-47
-37
-20
9
-5
-16
-15
-34
-45
-27
0
8
26
23
22
3
-8
-27
-7
-14
16
12
24
22
25
12
-6
-5
0
8
12
12
37
39
25
18
7
-25
-2
6
29
38
55
44
34
9
12
-16
-22
-13
19
39
47
57
45
16
15
-5
-11
9
16
46
48
73
42
36
22
2
6
25
36
43
66
60
53
42
34
13
9
27
44
62
67
81
60
47
40
23
35
53
64
72
79
78
63
54
48
47
64
70
71
74
88
95
86
79
58
50
59
56
67
78
115
103
79
67
61
53
61
65
76
77
81
70
61
44
32
22
16
40
66
61
56
48
49
20
-1
0
10
22
29
48
53
33
13
4
2
-16
-23
-6
4
14
32
29
4
15
-21
-25
-10
7
10
24
15
9
1
2
-24
-21
-10
11
5
15
9
5
-5
-18
-25
-10
-23
-3
23
32
24
15
7
-8
-19
-13
-10
-3
4
19
21
0
-12
-4
-22
-20
-15
0
14
32
30
-5
-7
-1
-23
-17
-21
-7
3
19
24
18
12
-9
-19
-26
0
-3
24
17
4
6
-1
-17
-25
-18
-5
5
12
28
26
12
-9
-27
-24
-29
