8
9
6
-5
-11
-3
2
-9
1
3
4
4
-2
3
12
-13
-16
-19
-4
-11
-7
-3
-6
-6
-10
-9
1
-8
-8
-4
6
1
2
1
-2
1
-19
-19
-4
-8
-9
-7
-1
-13
-11
-5
-14
-5
4
8
-4
-13
-10
0
7
2
0
5
2
6
5
5
5
-8
-11
-5
3
-22
-22
-12
-15
-19
-12
-14
-25
-13
-7
-11
-25
-24
-28
-23
-24
-21
-23
-22
-16
-14
-25
-16
-20
-18
-14
-15
-16
-21
-11
-14
-23
-32
-27
-29
-27
-12
-11
-15
-2
27
54
78
83
104
124
138
139
138
131
129
107
47
15
-18
-36
-54
-82
-121
-149
-154
-138
-117
-97
-98
-97
-79
-70
-51
-33
-38
-37
-18
-19
-14
-21
-20
-25
-24
-10
-11
-23
-18
-13
-7
-9
-13
-11
-23
-20
-7
-12
-1
-17
-5
-11
-6
-1
-5
-10
-7
-6
-3
-2
-8
-10
-5
-10
-6
-2
-3
1
5
-7
3
0
-3
-1
11
17
16
4
14
15
9
15
20
24
22
23
29
34
47
42
53
66
68
54
63
58
61
72
77
81
83
73
72
83
81
69
70
83
77
69
68
68
69
66
56
59
54
56
50
50
35
24
24
33
23
17
24
17
4
1
5
5
-3
-5
-3
-7
-11
-3
-11
-12
-21
-18
-22
-14
-21
-22
-13
-9
-17
-28
-24
-22
-17
-11
-11
-21
-22
-10
-26
-26
-22
-26
-22
-20
-24
-12
-13
-9
-5
-3
-15
-22
-26
-19
-21
-17
-21
-18
-19
-15
-16
-15
-17
-19
-24
-21
-21
-20
-14
-8
-7
-13
-21
-13
-26
-34
-23
-31
-20
-16
-23
-25
-16
-19
-16
-18
-18
-21
-24
-20
-19
-17
-18
-21
-25
-25
-23
-27
-21
-22
-19
-15
-23
-20
-18
-24
-19
-31
-30
-23
-24
-30
-24
-20
-32
-35
-30
-28
-16
-15
-15
-30
-26
-24
-28
-27
-26
-29
-29
-21
-13
-15
-11
-14
-14
-18
-27
-33
-27
-31
-39
-41
-43
-32
-38
-46
-45
-36
-33
-52
-49
-47
-47
-46
-48
-41
-43
-34
-40
-52
-52
-61
-59
-58
-55
-54
-50
-53
-50
-52
-55
-63
-72
-75
-81
-73
-59
-60
-57
-40
-23
0
24
38
52
64
77
80
76
87
63
12
-45
-76
-106
-113
-150
-178
-205
-217
-238
-215
-199
-173
-162
-159
-146
-137
-130
-120
-125
-110
-113
-116
-115
-110
-106
-107
-108
-106
-105
-109
-109
-106
-112
-115
-115
-114
-113
-112
-125
-120
-118
-116
-116
-123
-118
-123
-122
-121
-129
-138
-132
-133
-134
-138
-121
-117
-128
-132
-131
-132
-132
-137
-132
-127
-129
-129
-130
-124
-122
-115
-121
-123
-125
-119
-111
-105
-103
-105
-101
-96
-96
-97
-98
-87
-84
-70
-65
-71
-59
-66
-67
-69
-61
-61
-57
-53
-41
-32
-37
-43
-52
-50
-48
-48
-51
-46
-52
-62
-59
-78
-77
-76
-80
-81
-88
-86
-90
-93
-88
-89
-91
-97
-100
-97
-105
-101
-96
-97
-102
-100
-97
-102
-108
-97
-91
-94
-99
-83
-96
-97
-99
-101
-105
-91
-89
-87
-92
-94
-96
-86
-86
-77
-83
-84
-77
-84
-89
-88
-87
-88
-88
-84
-75
-67
-77
-81
-80
-75
-67
-70
-85
-79
-74
-73
-68
-69
-77
-73
-71
-75
-72
-75
-70
-70
-62
-56
-64
-73
-79
-65
-59
-74
-69
-69
-71
-68
-67
-56
-60
-70
-66
-69
-62
-70
-73
-62
-67
-70
-65
-59
-55
-62
-59
-65
-63
-61
-67
-73
-66
-65
-67
-60
-61
-54
-56
-57
-54
-61
-54
-59
-67
-60
-60
-52
-51
-59
-51
-63
-60
-63
-65
-61
-52
-57
-56
-54
-54
-43
-46
-40
-47
-49
-39
-48
-50
-52
-44
-53
-56
-54
-45
-52
-53
-57
-58
-65
-68
-69
-63
-57
-55
-56
-64
-63
-55
-61
-54
-52
-52
-54
-74
-63
-56
-64
-71
-56
-55
-54
-68
-61
-64
-63
-52
-61
-67
-79
-69
-54
-45
-41
-25
3
15
31
54
66
87
98
106
103
103
99
26
-13
-50
-66
-74
-110
-145
-181
-194
-187
-166
-153
-141
-130
-123
-114
-97
-88
-73
-60
-68
-58
-53
-66
-59
-57
-62
-62
-51
-58
-52
-51
-46
-52
-53
-49
-51
-56
-51
-48
-44
-45
-52
-49
-44
-41
-41
-39
-46
-50
-49
-40
-37
-37
-39
-37
-47
-45
-39
-34
-38
-43
-28
-36
-42
-27
-23
-30
-25
-28
-22
-14
-16
-16
-8
-9
-10
-14
-4
3
0
5
16
19
16
20
12
28
36
43
47
45
51
33
24
36
46
41
45
41
41
39
46
43
35
33
26
22
22
28
17
13
3
-11
-19
-11
-11
-14
-13
-17
-20
-24
-19
-29
-45
-31
-44
-50
-46
-33
-48
-48
-50
-58
-50
-49
-41
-37
-50
-47
-40
-47
-66
-61
-53
-55
-52
-47
-50
-54
-53
-56
-51
-47
-53
-49
-62
-59
-47
-54
-53
-48
-49
-52
-45
-32
-38
-57
-54
-47
-57
-51
-50
-45
-42
-46
-43
-50
-44
-32
-35
-41
-45
-53
-56
-48
-42
-43
-41
-43
-45
-44
-52
-54
-46
-41
-52
-53
-42
-35
-44
-49
-44
-49
-52
-52
-52
-57
-50
-50
-50
-51
-41
-38
-37
-62
-57
-59
-67
-56
-49
-46
-50
-52
-55
-41
-51
-50
-59
-55
-60
-58
-57
-45
-56
-49
-46
-59
-52
-45
-51
-53
-51
-58
-55
-44
-41
-43
-39
-45
-64
-49
-33
-29
-30
-33
-42
-34
-42
-42
-44
-43
-37
-41
-43
-41
-38
-33
-39
-42
-52
-51
-49
-45
-57
-57
-58
-61
-53
-46
-44
-53
-63
-63
-55
-53
-52
-48
-70
-72
-64
-60
-49
-51
-55
-65
-63
-61
-59
-58
-56
-57
-58
-52
-50
-58
-71
-81
-73
-71
-64
-52
-44
-56
-35
-11
12
32
59
75
84
97
89
96
104
86
6
-21
-43
-72
-85
-109
-144
-179
-198
-189
-177
-162
-150
-137
-125
-105
-99
-94
-76
-75
-78
-79
-79
-68
-66
-67
-63
-62
-65
-63
-51
-52
-63
-58
-47
-54
-62
-57
-57
-62
-58
-46
-56
-53
-45
-47
-50
-52
-58
-56
-44
-41
-51
-51
-50
-43
-53
-47
-47
-44
-47
-34
-48
-45
-31
-39
-35
-38
-46
-32
-38
-30
-21
-26
-23
-26
-17
-9
-3
-3
0
-1
6
8
17
8
13
22
29
24
29
30
37
46
39
32
34
42
49
48
45
41
36
35
41
27
27
23
23
15
15
19
13
-4
-8
-1
-3
-11
-13
-22
-24
-17
-32
-41
-45
-40
-43
-51
-50
-55
-57
-55
-49
-45
-39
-50
-52
-47
-57
-60
-51
-56
-59
-59
-59
-60
-69
-62
-58
-59
-61
-62
-66
-77
-75
-79
-77
-72
-64
-73
-75
-66
-67
-69
-67
-69
-73
-67
-74
-77
-67
-63
-62
-64
-53
-61
-66
-69
-67
-68
-68
-73
-73
-70
-68
-77
-81
-82
-78
-77
-68
-62
-78
-87
-91
-89
-82
-72
-77
-81
-98
-81
-95
-87
-88
-93
-85
-84
-93
-89
-86
-88
-81
-78
-93
-88
-96
-96
-90
-93
-88
-84
-98
-99
-93
-78
-89
-86
-100
-93
-91
-93
-108
-93
-87
-92
-81
-71
-81
-92
-97
-98
-94
-92
-88
-82
-76
-82
-79
-73
-80
-82
-82
-70
-58
-60
-82
-84
-77
-79
-78
-82
-74
-70
-69
-68
-71
-69
-66
-63
-61
-62
-62
-56
-54
-59
-56
-60
-55
-50
-54
-44
-43
-45
-57
-54
-51
-55
-52
-46
-41
-41
-43
-49
-46
-33
-27
-33
-51
-49
-48
-38
-40
-45
-51
-51
-54
-43
-45
-58
-54
-44
-38
-46
-45
-50
-51
-52
-46
-37
-32
-33
-30
-39
-43
-45
-32
-46
-48
-48
-43
-43
-39
-34
-41
-41
-43
-49
-51
-51
-44
-40
-30
-17
3
23
48
72
93
100
113
124
124
128
123
107
51
-1
-27
-59
-74
-105
-131
-153
-169
-163
-147
-133
-117
-103
-100
-94
-73
-65
-52
-42
-46
-51
-40
-44
-39
-32
-36
-36
-36
-40
-32
-29
-23
-22
-33
-35
-35
-19
-28
-42
-34
-30
-26
-27
-31
-30
-21
-16
-18
-15
-18
-25
-21
-20
-13
-13
-21
-21
-20
-19
-20
-22
-13
-14
-6
4
-7
-25
-22
-4
-13
-15
-7
-7
-1
1
4
-3
5
12
15
17
20
25
30
33
36
28
38
42
45
36
41
49
61
70
54
41
48
46
45
49
47
43
42
49
49
34
29
20
16
4
22
7
-1
4
-1
-3
-7
-8
-10
-27
-17
-26
-31
-31
-39
-42
-44
-44
-39
-45
-45
-50
-41
-39
-46
-62
-56
-57
-51
-47
-45
-52
-63
-51
-51
-60
-58
-60
-64
-69
-60
-55
-57
-61
-60
-69
-59
-46
-53
-54
-74
-66
-59
-66
-67
-52
-50
-62
-57
-53
-61
-62
-60
-63
-65
-61
-56
-55
-54
-53
-59
-67
-69
-68
-67
-60
-60
-67
-58
-66
-75
-70
-62
-76
-81
-70
-59
-60
-55
-63
-77
-73
-80
-67
-76
-77
-76
-73
-69
-66
-79
-84
-79
-75
-70
-80
-66
-62
-79
-87
-84
-76
-75
-75
-84
-75
-71
-78
-87
-82
-78
-74
-75
-85
-85
-85
-95
-90
-89
-83
-87
-86
-80
-74
-76
-87
-96
-97
-92
-101
-101
-101
-94
-90
-94
-98
-104
-97
-90
-92
-105
-107
-110
-102
-102
-102
-110
-116
-111
-111
-113
-112
-102
-111
-117
-117
-115
-108
-117
-124
-118
-117
-111
-106
-115
-121
-131
-129
-117
-117
-124
-121
-114
-115
-112
-118
-114
-118
-118
-119
-114
-116
-115
-116
-124
-128
-124
-136
-137
-132
-138
-133
-139
-145
-145
-152
-153
-148
-155
-154
-161
-164
-159
-161
-171
-164
-155
-162
-165
-162
-174
-179
-170
-157
-165
-172
-178
-182
-186
-190
-192
-197
-199
-199
-190
-179
-180
-171
-164
-141
-114
-89
-70
-69
-64
-52
-49
-50
-55
-75
-141
-169
-198
-219
-243
-275
-324
-346
-354
-353
-333
-314
-303
-300
-281
-279
-276
-262
-252
-236
-237
-255
-250
-254
-252
-241
-245
-245
-243
-235
-244
-246
-242
-252
-253
-253
-259
-259
-264
-250
-240
-237
-243
-237
-238
-233
-234
-238
-220
-225
-217
-216
-205
-191
-199
-187
-177
-181
-181
-172
-167
-156
-158
-143
-153
-160
-149
-140
-139
-136
-139
-120
-119
-112
-114
-111
-100
-100
-97
-87
-91
-79
-85
-85
-89
-79
-65
-65
-66
-54
-57
-53
-41
-29
-21
-26
-37
-35
-26
-33
-34
-41
-38
-33
-34
-34
-34
-33
-36
-33
-39
-43
-45
-54
-66
-62
-72
-65
-63
-58
-63
-81
-91
-88
-80
-86
-84
-80
-92
-90
-77
-80
-76
-89
-83
-101
-94
-90
-88
-92
-89
-88
-89
-83
-82
-81
-79
-88
-76
-76
-81
-78
-81
-73
-81
-91
-83
-76
-76
-82
-74
-71
-75
-72
-63
-62
-59
-59
-55
-67
-70
-69
-60
-67
-60
-61
-64
-60
-59
-55
-57
-48
-50
-57
-63
-56
-57
-49
-49
-54
-59
-55
-55
-53
-56
-50
-57
-51
-47
-46
-56
-48
-46
-52
-54
-44
-53
-52
-47
-54
-48
-35
-47
-48
-35
-50
-55
-49
-36
-35
-49
-52
-59
-46
-42
-50
-51
-47
-50
-53
-42
-55
-49
-44
-36
-38
-40
-40
-40
-46
-36
-35
-40
-39
-40
-40
-36
-51
-53
-48
-40
-43
-31
-32
-35
-31
-27
-13
-39
-44
-35
-34
-40
-46
-37
-34
-31
-29
-26
-23
-38
-33
-32
-26
-23
-27
-22
-18
-12
-9
-29
-31
-30
-26
-20
-18
-14
-12
-10
-17
-16
-18
-17
-24
-7
-18
-22
-29
-30
-21
-31
-29
-25
-26
-31
-38
-32
-30
-21
-24
-25
-29
-22
-24
-21
-29
-25
-17
-17
-22
-17
-19
-24
-20
-13
-23
-23
-17
-22
-34
-34
-15
-5
-3
2
23
46
68
90
103
120
143
146
148
127
130
99
43
14
-10
-32
-48
-70
-111
-135
-141
-125
-98
-78
-74
-77
-72
-56
-49
-39
-23
-12
-15
-12
-17
-12
-4
-1
-11
-7
-3
5
-3
-8
-2
0
-2
-4
-1
10
4
1
11
6
8
9
2
9
13
11
13
12
7
13
4
3
13
14
18
21
17
8
16
15
23
17
21
27
18
22
26
33
35
30
35
41
39
50
53
51
56
38
62
69
70
70
75
76
88
101
104
100
89
82
91
97
93
98
103
103
114
117
108
108
107
111
97
105
100
101
90
83
77
70
72
69
71
63
67
67
51
50
42
43
42
44
47
38
33
33
28
19
24
11
9
19
21
15
21
21
16
10
14
29
19
10
15
19
12
13
18
21
20
12
21
26
10
-3
9
23
17
16
19
20
27
27
26
15
14
23
16
27
24
25
18
18
39
23
23
31
35
28
30
39
27
25
15
16
15
22
22
20
28
27
31
20
25
32
21
21
19
25
19
15
26
22
26
31
19
15
17
22
24
17
22
26
36
40
32
14
7
17
18
21
22
16
17
26
34
40
41
22
5
11
21
22
36
31
18
15
17
18
21
10
19
23
25
22
27
26
24
18
18
27
32
27
25
39
24
6
10
21
16
17
20
25
23
24
24
26
37
24
33
36
27
36
19
35
25
32
46
38
32
34
37
29
49
56
39
44
43
52
33
33
34
36
35
38
26
34
28
29
20
24
21
28
26
20
27
20
27
29
19
14
21
34
24
29
25
20
24
20
28
26
31
34
19
13
12
7
18
22
34
42
58
65
82
112
139
157
157
168
181
177
174
181
158
103
65
31
1
-20
-46
-67
-100
-121
-107
-82
-70
-56
-45
-41
-36
-15
-6
-7
6
23
18
23
31
19
12
27
25
21
12
20
28
35
33
15
17
29
29
26
30
35
29
27
26
11
22
43
34
34
19
19
39
41
33
36
46
32
31
34
46
50
36
38
36
33
39
44
40
50
55
55
44
53
62
59
55
65
60
64
70
66
61
69
83
91
89
94
95
102
108
122
112
108
115
120
109
116
116
111
115
123
126
123
119
118
118
115
115
99
100
93
91
100
81
86
81
73
74
75
75
66
61
55
53
52
53
42
43
43
33
35
31
31
42
36
28
30
30
37
26
27
32
31
33
35
38
30
20
14
9
16
27
24
22
24
29
40
43
35
28
18
18
24
15
20
35
31
21
28
32
29
28
20
28
32
31
28
28
28
18
17
20
19
26
26
32
37
45
37
33
37
16
15
21
20
22
28
32
30
12
16
32
26
27
26
17
23
25
32
26
25
26
24
20
20
32
20
29
21
20
23
34
33
37
30
23
24
22
28
21
21
30
22
36
31
38
33
24
20
15
24
31
29
36
28
31
33
32
32
27
28
18
20
22
25
28
38
39
36
14
19
34
25
29
35
29
30
34
29
31
41
30
36
36
46
32
31
17
24
27
30
42
47
31
30
39
29
42
39
35
36
37
36
31
38
41
49
45
48
43
40
42
50
49
42
53
49
44
39
34
27
32
28
29
30
26
28
22
28
18
28
27
29
27
21
30
31
24
28
24
27
30
39
42
23
14
17
25
16
11
9
19
28
43
47
38
42
73
77
95
132
147
158
171
194
190
186
190
176
131
76
53
31
10
-5
-49
-94
-112
-114
-89
-83
-70
-39
-28
-2
-11
-6
11
12
16
12
25
25
28
19
24
19
22
14
27
22
26
30
35
30
25
23
30
35
28
31
37
30
37
30
24
29
15
25
25
28
31
35
40
40
43
33
31
31
44
44
38
30
47
60
64
42
38
39
44
48
50
49
56
55
65
74
79
85
74
68
77
81
90
95
97
102
102
94
110
120
129
126
115
119
120
120
123
128
109
119
119
122
127
119
118
121
112
94
104
105
95
94
91
84
71
64
74
70
74
62
56
51
52
48
51
46
41
42
44
37
34
28
26
25
26
39
33
25
31
22
15
22
18
20
28
31
28
17
20
39
32
24
19
19
26
28
35
32
19
10
27
15
17
29
37
26
24
11
22
19
17
29
35
24
35
35
28
20
21
26
27
31
25
25
27
36
35
30
28
27
19
13
20
20
37
43
29
5
17
29
33
24
28
33
28
20
13
20
31
28
15
22
22
20
28
20
17
11
27
27
25
26
25
26
31
17
22
17
18
15
20
24
20
12
11
20
14
11
15
13
44
25
15
12
23
19
25
20
20
21
21
46
15
18
20
20
19
14
24
26
28
17
18
13
17
27
24
24
27
33
34
36
35
14
35
42
31
26
35
13
32
29
22
26
26
9
13
14
9
11
14
15
19
14
25
18
4
7
16
13
23
13
13
14
12
17
16
16
7
13
11
15
31
-7
-7
-8
-9
10
21
34
27
38
45
66
90
112
129
148
160
171
177
169
144
94
47
14
-12
-17
-41
-63
-91
-119
-115
-115
-95
-87
-72
-58
-48
-37
-27
-20
-23
-10
2
-2
-23
-4
5
11
30
30
16
-12
-6
4
5
10
12
17
13
11
19
22
13
18
23
6
17
13
28
32
16
5
20
16
20
20
12
15
14
13
17
19
24
26
22
23
30
35
24
32
32
36
37
35
41
45
36
44
53
52
50
49
64
55
67
68
68
70
84
82
88
94
86
96
96
93
87
93
113
94
107
110
106
113
103
102
79
86
87
82
76
77
68
73
67
69
56
57
50
41
37
32
22
28
33
27
19
5
17
7
8
10
5
13
2
-4
-7
0
1
-1
-6
-6
-8
-4
-2
-3
-2
-5
-5
-2
-2
-10
-5
-5
5
0
1
-15
-3
7
10
19
4
-23
-12
-2
-12
-4
-2
1
0
7
5
3
-3
0
7
-4
7
-3
0
-11
-2
2
5
3
3
-2
-1
-2
6
2
7
7
1
-4
-11
-6
-6
-1
7
5
4
-4
-13
-12
-1
0
-2
14
7
-6
-10
-2
-16
-11
-9
-7
-7
-9
-2
-3
2
4
15
-14
-21
-16
-15
-13
-10
-4
5
8
-10
0
-17
-13
-14
0
-12
-5
-8
-6
3
6
0
-3
-14
-10
-1
5
-4
-10
-20
-12
0
0
1
9
23
16
2
0
1
2
-1
5
-8
-10
-1
-8
-15
-13
-9
-16
-14
-14
-8
-7
-15
-17
-3
-13
-9
-10
-12
-18
-18
-19
-18
-12
6
3
-9
-18
-19
-7
-8
-25
-23
-25
-27
-20
-13
-10
3
13
6
18
48
78
89
92
107
135
141
139
129
142
117
44
13
-16
-34
-39
-71
-103
-136
-133
-138
-128
-106
-104
-86
-70
-55
-48
-36
-41
-29
-28
-10
1
2
-3
-1
-21
-28
-28
-17
-22
-15
-7
-4
1
2
-6
-11
-9
-1
1
-2
-7
-6
-15
-3
-2
-10
-10
-4
-7
-8
-2
2
0
4
0
3
11
6
-2
2
4
1
2
6
13
14
10
16
5
18
17
30
33
23
23
21
31
30
32
46
53
55
44
60
72
72
64
61
70
71
71
77
78
74
77
85
85
75
80
79
72
86
92
89
72
48
61
56
42
47
48
52
59
49
43
15
15
15
15
9
16
5
5
0
1
0
-5
0
9
-13
-20
-22
-14
-11
-15
-10
-10
-19
-20
-18
-14
-23
-17
-11
-17
-21
-23
-24
-30
-26
-29
-25
-14
-11
-6
-12
-26
-25
-18
-20
-32
-36
-22
-18
-11
-25
-19
-31
-26
-21
-22
-15
-18
-20
-16
-17
-24
-14
-15
-11
-14
-10
-13
-20
-32
-25
-11
-9
-10
-19
-13
1
-7
-19
-11
-13
-25
-25
-14
-9
-21
-15
-25
-14
-16
-8
-15
-15
-20
-9
-19
-17
-26
-27
-18
-12
-15
-13
-7
-14
-18
-18
-22
-20
-21
-14
-14
-22
-20
-13
-18
-9
-5
-12
-14
-32
-27
-16
-7
-14
-15
-11
-15
-6
9
7
-9
-30
-17
-21
-15
-6
-2
-4
-17
-17
-3
-8
-10
-8
0
2
8
9
3
-6
-7
-3
-3
-4
1
-18
-6
-14
-13
-20
-19
-10
-6
-4
-4
0
-18
-12
-21
-19
-18
-16
-14
-6
-11
-23
-15
-13
-13
-16
-11
-17
-17
-21
-24
-16
-13
-18
-16
-20
-17
2
10
17
12
35
57
81
103
121
127
143
144
137
151
154
108
30
0
-24
-36
-58
-80
-106
-125
-141
-125
-112
-90
-67
-77
-58
-47
-39
-31
-16
-18
-20
-12
-8
-12
-19
-10
-2
-8
9
0
0
4
-2
-2
-3
3
-2
-10
-10
1
11
14
9
6
2
9
3
5
0
14
22
16
-4
-6
5
6
6
3
9
15
1
4
20
15
22
23
13
14
18
20
20
28
31
35
39
46
42
33
40
33
41
48
58
64
84
80
74
73
75
75
69
78
88
85
87
86
89
97
102
91
86
92
90
90
89
89
93
81
81
81
68
64
60
57
49
50
49
42
54
37
43
37
12
18
17
10
10
11
14
17
20
20
7
-8
8
-2
-13
0
3
-9
3
-2
2
3
6
-5
-4
2
-7
-6
-3
-9
-11
-2
10
8
13
27
-2
-8
1
1
-1
-1
4
-2
-7
-5
10
-3
4
13
20
12
-9
-11
-7
-2
-4
-4
-1
-1
8
9
7
0
2
5
-11
-2
4
7
-4
-2
3
-9
3
1
7
-5
5
-1
-8
-1
2
-6
-3
2
1
4
-2
-8
2
-3
0
8
-4
-9
-5
0
-2
-4
2
2
1
2
3
-5
-4
-3
-2
9
-9
-12
-9
-8
-3
-12
-7
-6
-4
2
-11
-4
-3
-3
6
-11
-14
-13
-2
2
3
-8
-11
-6
-7
-6
0
8
3
-3
-4
0
-10
-7
3
3
5
4
14
8
8
5
-1
1
11
9
8
5
-6
-6
-1
-1
1
-20
-15
-7
-8
-5
-17
-13
-18
-18
-16
-5
11
7
2
-20
-5
-19
-20
-20
-18
-13
-2
-10
-9
-4
-3
-3
-23
-20
-31
-30
-11
0
9
27
29
55
72
93
101
105
139
151
148
145
152
136
69
25
1
-19
-40
-64
-102
-125
-147
-133
-120
-108
-91
-76
-56
-55
-47
-42
-38
-31
-22
-17
-26
-13
-2
-4
-6
-22
-18
-8
-14
-5
-15
-13
-14
-7
-18
4
16
8
-9
-4
-5
-8
-13
-5
4
8
-1
-1
0
3
3
-6
-5
1
3
1
9
14
3
15
-7
3
13
2
5
9
7
22
24
4
17
25
27
28
28
34
44
42
37
44
49
57
63
59
64
79
58
62
80
83
76
88
84
76
79
88
78
73
84
94
92
77
82
82
86
74
67
61
56
57
55
52
50
47
37
36
28
26
36
36
24
16
6
7
7
2
2
-5
-3
3
7
7
-11
-4
-22
-10
-6
-17
-15
-15
-2
5
-24
-22
-22
-27
-23
-15
-15
-12
-13
-12
-10
-6
-16
-13
-9
-2
-13
-10
-15
-19
-24
-14
-5
-12
-13
-14
-9
-12
-10
-4
-3
3
5
-21
-20
-16
-16
-11
5
-15
-30
-26
-18
-13
-12
-13
-5
-3
-1
6
-16
-17
-15
-10
-7
-6
-12
-12
-24
-22
-19
-13
-14
-14
-18
-20
-12
-13
-19
-9
-10
-12
-15
-19
-25
-15
-37
-21
-23
-9
-16
-5
-4
-15
-20
-23
-17
-19
-23
-22
-13
-13
-10
-16
-8
-14
-8
-11
-15
-20
-22
-18
-16
-11
-8
-7
0
-20
1
-15
-12
-6
-5
-15
-24
-22
-3
3
-2
-28
-22
-29
-33
-29
-33
-26
-18
-26
-25
-20
-18
-20
-21
-33
-31
-33
-32
-29
-14
-32
-23
-13
-32
-41
-26
-24
-37
-34
-30
-27
-26
-26
-31
-19
-6
-3
-15
-10
11
26
47
71
90
107
115
126
121
122
108
59
8
-9
-40
-58
-81
-100
-132
-147
-151
-138
-125
-110
-94
-104
-79
-73
-74
-62
-54
-46
-28
-23
-28
-30
-38
-34
-35
-30
-25
-32
-24
-18
-27
-23
-18
-22
-33
-23
-17
-23
-25
-19
-18
-13
-34
-25
-21
-17
-16
-2
-8
-15
-5
-18
-23
-21
-27
-15
-8
-10
-14
-1
-5
-14
-3
-7
-2
0
3
-6
1
6
11
2
10
19
9
3
16
30
33
46
47
52
36
41
28
30
54
63
69
52
62
73
71
69
65
68
71
74
77
76
72
58
46
52
54
58
53
49
49
36
37
42
23
7
28
16
-2
8
11
-2
-3
-4
-14
-25
-10
-3
-7
-13
-23
-27
-27
-20
-25
-31
-38
-36
-14
-16
-21
-26
-30
-26
-31
-36
-31
-33
-24
-31
-26
-34
-31
-31
-30
-29
-29
-32
-27
-19
-28
-24
-28
-21
-33
-51
-32
-28
-24
-23
-22
-27
-27
-26
-9
-16
-18
-26
-27
-13
-36
-44
-33
-21
-13
-23
-28
-25
-24
-13
-25
-28
-34
-37
-31
-32
-35
-28
-30
-32
-9
-24
-41
-33
-31
-25
-22
-26
-37
-41
-26
-21
-22
-32
-35
-28
-23
-16
-37
-39
-22
-25
-24
-33
-33
-18
-32
-30
-30
-31
-28
-31
-35
-33
-28
-14
-16
-32
-22
-17
-21
-33
-29
-14
-8
-6
-2
-12
-23
-26
-23
-10
-21
-27
-37
-32
-31
-36
-38
-33
-35
-34
-20
-26
-27
-31
-26
-22
-31
-48
-35
-35
-43
-38
-33
-28
-33
-31
-34
-20
-32
-28
-30
-40
-41
-39
-31
-38
-46
-45
-30
-32
-20
-15
-6
9
18
34
68
86
106
105
110
111
102
86
31
-18
-30
-52
-60
-75
-105
-131
-159
-148
-138
-124
-125
-111
-91
-90
-73
-78
-67
-54
-39
-35
-27
-24
-26
-32
-15
-22
-23
-22
-36
-27
-22
-17
3
-4
-17
-24
-30
-25
-28
-29
-25
-21
-22
-23
-2
-1
1
-17
-24
-26
-16
-11
-19
-19
-8
-9
-9
-8
-1
-17
-12
-12
-2
5
7
-13
-4
-1
16
15
22
4
-1
2
5
4
13
25
21
27
31
47
51
54
55
40
48
54
68
62
60
63
65
69
70
70
68
73
75
70
71
69
70
59
63
64
62
67
57
46
39
40
30
37
26
23
30
20
10
-18
-5
-4
-5
-2
-9
-7
-15
-6
-3
-15
-20
-17
-14
-20
-20
-24
-21
-21
-19
-16
-11
-20
-23
-34
-28
-21
-21
-1
-38
-24
-20
-22
-28
-32
-23
-24
-29
-14
-17
-20
-20
-16
-26
-12
-19
-22
-25
-15
-8
-18
-20
-21
-24
-25
-25
-19
-23
-16
-5
-16
-18
-11
-11
-11
-30
-21
-16
-24
-28
-20
-24
-20
-22
-23
-28
-21
-23
-21
-25
-24
-22
-19
-23
-19
-23
-24
-14
-21
-31
-21
-19
-22
-22
-17
-28
-25
-24
-16
-17
-27
-16
-23
-23
-19
-8
-11
-21
0
-22
-18
-22
-31
-29
-23
-24
-17
-11
-13
0
-9
-2
-2
-5
-10
-12
-12
-13
-10
-13
-16
-18
-16
-23
-29
-28
-22
-29
-26
-22
-28
-10
-22
-22
-25
-24
-24
-18
-17
-25
-37
-29
-28
-17
-17
-20
-10
-34
-26
-18
-27
-25
-21
-35
-26
-27
-25
-20
-9
-3
-2
10
36
50
67
88
111
115
133
136
121
109
106
55
12
-18
-22
-36
-74
-101
-135
-143
-157
-126
-116
-106
-91
-76
-64
-57
-48
-40
-36
-29
-28
-20
-24
-17
-26
-13
-23
-16
-7
-8
-3
-11
-21
-8
-10
-5
-5
-10
-22
-25
-17
-16
-16
-13
-20
-22
-16
3
3
11
-15
-18
-9
-3
6
6
3
-9
-2
6
8
-11
-7
8
6
3
8
12
13
10
0
11
32
20
11
15
14
26
25
28
32
36
43
30
37
42
41
65
79
68
59
60
69
81
72
69
70
71
74
75
72
66
71
59
65
61
65
68
67
51
42
56
33
30
36
37
16
19
18
17
7
7
0
1
0
8
3
-2
-17
-22
-12
-18
-18
-18
-15
-11
-17
-17
-26
-21
-18
-13
-12
-13
-17
-24
-23
-17
-16
-14
-15
-12
-15
-25
-19
-22
-20
-18
-18
-14
-35
-24
-13
-15
-11
-22
-17
-14
-4
-23
-27
-14
-14
-12
-11
-19
-23
-29
-14
-3
-13
-28
-20
-14
-9
-15
-17
-25
-20
-8
-6
-22
-33
-32
-28
-24
-15
-19
-22
-9
-17
-16
-27
-21
-10
-8
-23
-17
-24
-30
-30
-20
-15
-20
-9
-14
-20
-25
-15
-16
-14
-15
-9
-20
-1
-15
-12
-32
-34
-30
-24
-10
-11
-13
-5
-2
-2
-2
3
-6
-11
-8
-23
-14
-4
-7
-29
-27
-23
-18
-26
-19
-21
-24
-24
-30
-27
-23
-20
-24
-14
-22
-12
-28
-27
-23
-45
-37
-28
-19
-26
-27
-28
-25
-27
-19
-17
-26
-30
-56
-36
-14
0
-11
-3
20
45
68
82
94
111
126
142
135
126
127
95
30
-1
-26
-36
-63
-104
-147
-166
-163
-136
-120
-100
-93
-73
-69
-60
-42
-25
-17
-32
-41
-37
-35
-36
-30
-26
-13
-9
-13
-19
-31
-18
-34
-39
-32
-16
-16
-19
-6
-11
-3
-7
-11
-19
-30
-27
-16
-9
-7
-13
-12
-14
-14
-19
-16
-7
-5
-3
0
2
7
-5
-22
-23
-5
-8
-3
3
5
10
14
12
12
10
5
15
31
30
25
21
29
37
43
46
47
41
47
60
59
67
72
65
57
66
68
72
65
66
82
74
58
66
69
73
72
58
60
55
42
39
53
42
28
31
19
29
35
20
21
11
2
-3
-1
2
-4
6
9
-5
-17
-14
-29
-24
-27
-28
-15
-15
-14
-13
-21
-31
-25
-17
-24
-16
-39
-28
-26
-24
-29
-32
-22
-22
-31
-26
-17
-16
-10
-21
-33
-41
-32
-28
-28
-32
-29
-27
-15
-24
-27
-26
-25
-27
-21
-30
-27
-12
-30
-19
-22
-16
-29
-35
-26
-23
-25
-25
-18
-29
-38
-28
-25
-28
-31
-32
-33
-38
-28
-25
-26
-17
-26
-32
-33
-22
-22
-29
-36
-38
-35
-21
-24
-20
-30
-21
-25
-26
-14
-26
-29
-25
-21
-20
-28
-23
-24
-29
-37
-34
-20
-16
-21
-23
-12
-18
-7
-12
-17
-19
-30
-18
-23
-21
-21
-32
-36
-31
-36
-33
-47
-45
-25
-34
-27
-44
-38
-32
-28
-41
-31
-35
-30
-44
-34
-26
-29
-28
-12
-19
-54
-50
-38
-42
-47
-50
-51
-41
-47
-40
-33
-20
-3
-6
18
31
53
80
102
99
106
112
121
127
121
52
21
-10
-38
-62
-90
-116
-152
-160
-160
-147
-127
-110
-113
-104
-95
-87
-73
-58
-39
-32
-51
-35
-39
-31
-44
-46
-54
-37
-49
-28
-38
-31
-28
-21
-22
-19
-40
-41
-28
-39
-28
-23
-26
-26
-28
-19
-30
-25
-33
-22
-22
-17
-30
-28
-11
-15
-23
-29
-32
-19
-19
-20
-18
-10
-25
-16
-19
-8
3
-15
-5
5
-8
1
5
5
5
16
22
11
19
32
29
30
42
47
46
44
45
37
43
45
58
72
59
66
71
54
53
56
58
47
49
52
52
49
45
55
25
31
31
24
25
15
13
5
10
14
2
-3
-12
-12
-18
-35
-24
-24
-19
-18
-34
-33
-33
-25
-34
-30
-34
-28
-35
-41
-37
-36
-42
-41
-42
-38
-28
-40
-32
-17
-34
-36
-42
-40
-40
-52
-40
-37
-42
-36
-27
-29
-44
-49
-52
-42
-46
-37
-27
-28
-28
-33
-30
-26
-25
-30
-43
-48
-48
-34
-27
-26
-28
-34
-31
-28
-26
-34
-29
-33
-30
-36
-38
-47
-41
-36
-33
-19
-39
-40
-39
-41
-42
-26
-33
-32
-42
-37
-33
-27
-27
-33
-32
-33
-30
-29
-29
-32
-28
-25
-36
-19
-28
-31
-40
-30
-28
-24
-23
-25
-30
-28
-21
-25
-31
-27
-34
-43
-38
-39
-34
-33
-43
-41
-23
-27
-48
-45
-37
-43
-49
-52
-40
-33
-27
-38
-43
-39
-37
-32
-36
-39
-39
-41
-43
-48
-46
-38
-42
-39
-43
-52
-58
-57
-45
-33
-42
-27
-6
15
41
56
80
87
98
96
93
92
95
47
-6
-22
-40
-62
-90
-103
-132
-158
-165
-160
-150
-137
-125
-112
-95
-99
-91
-79
-58
-52
-61
-55
-40
-41
-46
-60
-56
-46
-46
-40
-36
-38
-42
-38
-28
-45
-43
-37
-30
-24
-29
-39
-60
-59
-30
-25
-46
-46
-36
-31
-27
-27
-30
-33
-31
-27
-25
-30
-21
-29
-18
-16
-15
-26
-39
-34
-30
-25
-19
-18
-11
-13
-13
-10
-4
6
16
16
8
-1
0
8
9
24
29
19
27
39
45
45
52
47
41
48
50
59
59
64
54
44
40
44
41
41
37
41
43
42
33
27
28
25
16
14
15
10
10
13
1
-6
-7
-16
-27
-24
-24
-28
-29
-24
-30
-39
-34
-22
-30
-34
-38
-32
-23
-31
-41
-38
-38
-38
-43
-42
-46
-44
-44
-34
-33
-42
-44
-41
-37
-40
-44
-37
-36
-40
-41
-34
-33
-33
-40
-35
-29
-35
-40
-22
-24
-41
-40
-32
-35
-23
-26
-34
-33
-49
-39
-27
-20
-30
-47
-48
-34
-42
-35
-34
-33
-34
-41
-33
-38
-41
-35
-36
-34
-36
-29
-38
-36
-37
-44
-40
-42
-36
-42
-36
-40
-50
-40
-38
-27
-29
-33
-41
-43
-37
-53
-45
-30
-29
-33
-32
-27
-19
-39
-41
-37
-30
-30
-26
-30
-25
-22
-32
-29
-25
-32
-31
-38
-43
-50
-42
-40
-43
-43
-49
-46
-50
-45
-39
-49
-43
-47
-44
-41
-47
-43
-25
-28
-48
-51
-50
-49
-47
-42
-40
-31
-47
-53
-47
-43
-48
-59
-65
-43
-26
-30
-29
-26
-5
13
40
63
78
87
102
107
101
106
88
50
-9
-31
-49
-52
-80
-117
-150
-168
-176
-157
-134
-132
-112
-93
-88
-82
-76
-58
-52
-69
-61
-50
-51
-52
-45
-49
-48
-47
-45
-40
-34
-43
-41
-38
-39
-36
-31
-38
-46
-40
-32
-39
-56
-56
-49
-46
-38
-41
-42
-37
-41
-41
-32
-27
-28
-34
-36
-27
-33
-23
-26
-21
-48
-43
-29
-35
-24
-27
-18
-26
-20
-16
-32
-20
-16
-20
-10
0
-11
-3
1
1
4
2
13
32
25
22
18
29
33
35
36
38
32
40
45
40
43
43
57
51
39
39
34
27
30
39
34
22
15
8
2
12
10
8
-5
-16
-17
-12
-12
-23
-25
-28
-33
-28
-31
-28
-25
-16
-22
-46
-33
-49
-38
-44
-43
-57
-35
-36
-46
-44
-34
-45
-52
-45
-36
-34
-34
-42
-45
-46
-38
-45
-38
-33
-33
-51
-50
-52
-52
-43
-37
-40
-36
-24
-50
-44
-44
-42
-36
-34
-41
-31
-40
-50
-42
-32
-39
-45
-32
-35
-43
-49
-44
-40
-45
-44
-38
-29
-41
-47
-44
-30
-28
-26
-36
-51
-52
-42
-38
-42
-39
-38
-41
-45
-43
-42
-44
-42
-41
-41
-38
-35
-37
-40
-48
-43
-32
-34
-54
-55
-49
-49
-43
-45
-46
-50
-38
-40
-44
-39
-34
-53
-56
-48
-43
-51
-43
-43
-44
-50
-40
-33
-38
-39
-54
-42
-28
-50
-38
-30
-40
-31
-22
-29
-40
-33
-40
-36
-38
-40
-49
-50
-44
-37
-49
-43
-48
-40
-40
-42
-37
-56
-50
-41
-36
-46
-47
-51
-45
-43
-50
-45
-47
-48
-47
-37
-36
-39
-45
-43
-52
-52
-47
-52
-60
-45
-33
-23
-18
-3
23
46
63
90
79
103
111
111
107
104
78
25
-16
-51
-65
-85
-113
-144
-170
-172
-162
-142
-117
-100
-106
-100
-89
-72
-59
-51
-54
-53
-46
-45
-40
-35
-47
-51
-47
-43
-38
-40
-38
-37
-26
-40
-45
-41
-35
-38
-37
-29
-31
-28
-30
-29
-27
-29
-31
-28
-29
-25
-23
-35
-32
-30
-28
-30
-31
-31
-31
-22
-17
-23
-30
-33
-24
-27
-10
-15
-13
-8
-11
-9
-10
-1
-6
-6
1
12
9
11
21
20
19
22
29
34
32
38
46
46
38
38
51
54
55
57
47
53
51
50
51
44
42
50
51
45
38
43
48
39
30
25
12
9
5
2
11
11
9
0
-8
-18
-9
-10
-20
-28
-26
-25
-29
-20
-19
-36
-32
-30
-31
-33
-28
-28
-27
-26
-31
-37
-37
-35
-28
-31
-30
-44
-36
-38
-36
-36
-40
-34
-28
-35
-30
-41
-46
-38
-36
-23
-16
-26
-39
-36
-41
-42
-36
-32
-38
-41
-37
-32
-37
-30
-32
-32
-34
-34
-30
-28
-23
-35
-45
-38
-26
-29
-30
-34
-23
-11
-10
-20
-19
-26
-24
-25
-20
-23
-21
-11
-9
-10
-19
-23
-17
-12
-14
-26
-22
-18
-13
-16
-21
-22
-19
-12
-13
-24
-35
-22
-18
-23
-24
-28
-14
-18
-19
-20
-23
-22
-22
-13
-15
-21
-26
-21
-23
-25
-23
-25
-21
-21
-20
-11
-5
-8
-17
-28
-34
-28
-20
-20
-19
-19
-8
-22
-15
-16
-27
-31
-19
-19
-19
-22
-29
-19
-25
-22
-29
-11
-14
-21
-20
-12
-15
-13
-18
-14
-13
-8
-10
-12
-5
1
-1
-9
-7
-10
-7
-14
-5
-25
-25
-23
-35
-23
-27
-26
-26
-28
-22
-27
-21
-17
-12
-25
-40
-35
-28
-31
-37
-33
-30
-16
-24
-18
-17
-30
-33
-30
-22
-25
-30
-31
-33
-25
-16
-19
4
20
45
65
86
108
112
121
129
127
133
136
114
45
6
-20
-33
-72
-100
-124
-155
-153
-141
-127
-112
-103
-91
-72
-65
-58
-50
-42
-40
-36
-24
-26
-37
-25
-27
-29
-27
-30
-21
-23
-18
-31
-22
-16
-18
-11
-9
-14
-30
-35
-30
-26
-21
-26
-20
-24
-29
-10
-10
-3
-20
-20
-14
-14
-16
-14
-15
-11
-15
-22
-21
0
6
-2
-10
-15
-3
0
-2
-1
6
-2
-5
7
12
16
21
20
28
30
25
24
23
32
42
49
47
55
47
52
53
65
62
65
78
68
72
59
67
58
58
64
62
63
69
61
59
55
52
52
50
47
41
32
27
22
20
24
20
3
4
13
-5
-8
-5
-6
-11
-12
-11
-8
3
-1
-26
-7
-34
-24
-26
-28
-30
-32
-23
-18
-17
-21
-17
-22
-27
-28
-39
-31
-18
-20
-22
-21
-21
-25
-34
-30
-31
-28
-23
-26
-23
-17
-19
-29
-22
-21
-23
-22
-30
-33
-22
-26
-19
-22
-17
-19
-21
-38
-27
-26
-20
-12
-7
-24
-22
-27
-27
-25
-22
-18
-11
-9
-27
-23
-21
-16
-26
-30
-29
-31
-20
-28
-33
-29
-22
-30
-17
-12
-19
-41
-34
-25
-17
-23
-26
-27
-28
-22
-21
-31
-22
-16
-7
-15
-35
-31
-25
-24
-27
-21
-30
-27
-34
-37
-34
-23
-20
-23
-29
-22
-26
-28
-23
-26
-20
-26
-36
-33
-26
-29
-22
-32
-31
-25
-24
-22
-26
-20
-20
-25
-31
-21
-21
-30
-30
-31
-25
-24
-24
-26
-27
-27
-19
-7
-10
-23
-19
-23
-27
-12
-18
-16
-12
-10
-12
-18
-13
-3
-22
-30
-24
-12
-24
-22
-23
-21
-16
-38
-27
-26
-26
-24
-30
-23
-18
-12
-30
-28
-28
-28
-26
-25
-29
-19
-24
-23
-30
-31
-25
-24
-27
-28
-33
-25
-30
-33
-39
-41
-39
-30
-27
-9
-19
-4
16
43
52
73
83
94
101
119
120
117
109
89
31
11
-23
-44
-69
-73
-119
-150
-155
-148
-136
-126
-117
-104
-89
-82
-67
-43
-43
-37
-42
-42
-40
-35
-32
-32
-30
-19
-22
-31
-25
-21
-26
-19
-20
-22
-27
-17
-19
-13
-25
-34
-24
-11
-18
-25
-17
-7
-3
-24
-21
-15
-12
-13
-22
-21
-16
-9
-19
-28
-20
-14
-14
-3
0
-8
-6
-13
-8
2
-2
-2
-3
1
7
1
2
3
8
22
29
22
28
38
38
33
41
41
54
61
70
55
54
55
59
58
51
61
65
58
54
64
67
67
67
61
57
47
55
58
45
39
42
37
28
20
28
28
22
18
15
9
-4
-8
-6
-12
-5
-13
-17
-11
-17
-17
-19
-33
-23
-28
-23
-19
-13
-25
-34
-45
-25
-30
-25
-33
-28
-27
-32
-30
-18
-42
-36
-31
-23
-26
-25
-29
-35
-39
-43
-32
-28
-33
-30
-18
-19
-31
-25
-20
-21
-25
-32
-40
-24
-24
-20
-24
-28
-23
-15
-28
-29
-31
-35
-26
-25
-15
-14
-10
-21
-41
-34
-32
-26
-30
-28
-26
-30
-39
-46
-26
-19
-29
-28
-22
-28
-27
-24
-30
-27
-24
-22
-21
-36
-36
-27
-22
-29
-32
-29
-22
-39
-39
-36
-32
-31
-29
-29
-13
-5
-33
-31
-33
-36
-37
-29
-32
-18
-45
-37
-27
-14
-24
-9
-20
-32
-32
-26
-34
-20
-18
-32
-23
-27
-30
-22
-19
-12
-13
-11
-14
-18
-25
-10
-24
-26
-30
-16
-13
-17
-34
-35
-30
-37
-40
-35
-32
-30
-24
-18
-32
-31
-37
-35
-33
-34
-28
-13
-30
-43
-31
-35
-34
-29
-27
-25
-34
-24
-32
-30
-21
-40
-46
-51
-40
-40
-22
-11
-9
1
17
40
61
71
91
111
115
115
111
103
105
56
5
-10
-43
-36
-60
-107
-132
-142
-149
-138
-125
-118
-104
-90
-77
-74
-53
-32
-37
-51
-49
-36
-33
-36
-35
-32
-33
-20
-13
-18
-14
-4
-24
-38
-29
-24
-20
-25
-23
-22
-24
-20
-14
-15
-20
-11
-6
-11
-18
-33
-16
4
-11
-13
-12
-21
-27
-28
-13
-11
-18
-21
-2
-3
7
2
-1
7
-6
-7
1
5
11
-12
0
10
18
26
21
18
23
35
36
34
39
48
51
57
41
42
56
65
63
71
76
69
74
82
67
58
64
63
62
62
67
75
51
43
56
56
53
45
42
32
28
26
25
26
20
14
2
2
1
6
5
6
-14
-6
-10
-20
-20
-10
-9
-11
-15
-26
-32
-27
-28
-25
-22
-15
-10
-15
-21
-26
-25
-20
-10
-25
-26
-24
-22
-27
-17
-24
-26
-24
-16
-23
-18
-14
-19
-19
-20
-18
-17
-27
-27
-28
-21
-13
-13
-20
-14
-6
1
-2
-5
-33
-24
-27
-24
-25
-14
-11
-13
-20
-13
-16
-6
-7
-4
-18
-18
-21
-21
-15
-8
-16
-22
-9
-22
-24
-21
-17
-19
-24
-18
-16
-17
-15
-10
-23
-19
-22
-16
-18
-22
-25
-15
-11
-15
-27
-20
-26
-28
-24
-19
-9
-13
-14
-16
-16
-11
-16
-27
-16
-27
-35
-30
-19
-23
-19
-14
-19
-15
-13
-16
-15
-21
-6
-4
-11
-20
-34
-24
-23
-13
-17
-12
-13
-9
-30
-18
-18
-16
-11
-3
-10
-16
-15
-15
-3
-2
-9
-12
-6
-1
-12
4
3
-8
-10
-9
-9
-26
-29
-22
-21
-19
-16
-25
-21
-21
-14
-22
-24
-26
-24
-21
-19
-21
-21
-19
-24
-17
-19
-22
-21
-19
-14
-19
-33
-35
-37
-22
-6
-8
-1
28
53
38
71
89
98
115
131
129
125
128
134
101
43
5
-24
-54
-64
-94
-121
-144
-144
-131
-114
-102
-89
-71
-53
-74
-64
-58
-33
-22
-25
-25
-15
-17
-17
-16
-21
-21
-21
-20
-12
-15
-14
-17
-19
-24
-10
-11
-17
-18
-7
3
-1
-7
-5
-13
-3
-21
-15
-3
-13
0
-12
-14
-13
-14
-8
-7
-9
-6
-2
-6
-1
9
-1
-7
-2
2
-17
-14
0
12
6
3
15
18
24
17
24
28
38
31
29
32
38
43
40
32
30
47
71
65
66
73
73
60
70
71
79
62
62
72
72
75
69
60
68
50
44
50
73
45
38
42
38
32
37
35
26
17
17
8
-4
1
11
0
-2
4
8
-15
-21
-14
-13
-14
-16
-19
-16
-18
-19
-17
-22
-26
-19
-23
-20
-12
-11
-23
-27
-18
-15
-19
-15
-7
-22
-31
-31
-17
-20
-24
-14
-23
-17
-26
-10
-7
-14
-30
-22
-26
-20
-22
-17
-14
-10
-7
-2
-21
-34
-19
-15
-17
-20
-17
-16
-19
-5
-4
-16
-27
-18
-14
-11
-11
-15
-20
-11
-16
-13
-8
-6
5
8
-15
-40
-23
-6
-19
-23
-22
-14
-24
-26
-18
-16
-15
-9
2
-16
-16
-23
-9
-20
-18
-16
-21
-29
-21
-17
-10
-13
-20
-20
-12
-12
-10
-8
-20
-12
-1
-11
-28
-25
-31
-19
-2
-21
-22
-16
-16
-16
-6
11
-10
-23
-30
-9
-14
-18
-17
-14
-13
-7
-17
-17
-6
-19
-17
-11
-11
-4
-5
6
12
6
-1
-8
-15
-18
-15
-7
-3
-10
-9
-12
-8
-18
-19
-21
-16
-24
-21
-18
-13
-26
-26
-18
-15
-17
-21
-17
-25
-16
-12
-11
-17
-17
-25
-24
-16
-12
-12
-22
-31
-35
-31
-30
-20
-6
2
15
40
53
68
99
116
120
138
132
138
133
119
82
17
-11
-15
-44
-64
-94
-126
-157
-155
-126
-120
-118
-93
-80
-77
-54
-45
-37
-28
-25
-22
-29
-27
-28
-22
-22
-11
-11
1
-21
-28
-26
-24
-21
-26
-8
-14
-4
-6
-1
8
-6
-9
-15
-17
-7
-14
-11
-7
-14
-16
-7
-5
-13
-10
-4
2
12
-13
-17
-7
-1
-15
2
3
11
13
14
-7
0
6
-4
10
8
26
20
29
17
21
21
31
55
55
32
38
51
61
58
56
57
57
69
86
75
61
65
64
75
72
71
71
80
75
78
81
80
72
60
47
52
49
59
65
47
51
51
40
24
29
26
20
19
14
3
4
8
3
3
2
-3
-4
6
0
-10
-15
-19
-16
-18
-15
-12
-13
-12
-10
-13
-8
-12
-14
-21
-17
-24
-18
-12
-8
-16
-8
-14
-7
-4
-12
-13
-11
-12
-19
-16
-9
-17
-18
-11
-13
-12
-1
-12
-12
-21
-23
-18
-17
-9
-4
-7
-14
-15
-11
-6
-7
-12
-10
0
-4
-5
-10
-8
-25
-10
-11
-19
-13
-11
-15
-19
-12
-13
-11
-15
-11
-9
2
-15
-13
-7
-15
-14
-8
-7
-9
-11
-10
-16
-25
-21
-15
-19
-16
-16
-7
-9
-6
-2
-6
-11
-17
-14
-15
-14
-7
-13
-12
-14
-13
-8
-4
5
1
-6
-21
-17
-14
-11
-15
-5
-4
18
13
5
9
-3
0
11
18
15
-10
-11
-4
-5
-15
-16
-15
-18
-21
-24
-20
-17
-11
-10
-15
-20
-6
-7
-8
-4
-13
-14
-16
-19
-23
-11
-8
-12
-15
-9
-13
-16
-6
-2
-8
-10
-33
-27
-12
13
22
10
27
64
85
105
120
129
136
128
134
128
119
89
30
-1
-22
-32
-74
-101
-128
-150
-154
-135
-106
-98
-76
-77
-66
-43
-35
-25
-16
-15
-19
-26
-15
-16
-16
-7
-12
-10
-10
-7
-7
-5
-1
15
16
13
-23
-11
-6
-13
-13
-7
11
-3
-5
-7
3
5
9
0
-2
0
19
14
-3
-3
-6
-10
2
1
0
21
18
12
9
17
7
7
17
25
20
20
12
22
28
23
26
33
36
46
58
52
48
45
53
54
56
64
76
93
93
89
74
76
71
75
80
89
79
91
77
79
90
87
94
71
72
66
64
60
55
59
62
61
58
48
43
38
38
34
27
20
17
11
8
9
17
21
29
8
-11
-4
8
-13
-14
-2
-4
-3
-2
-10
-10
-9
-1
-6
-7
-7
-8
-14
-4
-4
-7
-4
-6
-5
-17
-6
-26
-2
-2
7
4
-1
-9
1
0
-5
-7
-3
4
1
-4
6
-8
-6
-4
0
-3
-10
-14
3
-3
-4
3
-14
-10
-3
-5
8
7
-4
-10
-6
-5
-13
-12
-15
-13
1
8
11
-1
7
6
-3
2
5
-2
-6
-9
3
0
-3
-3
-6
-1
4
6
14
16
-13
-19
-4
-2
1
19
17
6
2
15
11
16
3
6
-6
1
-4
1
-4
-6
-4
5
-9
-13
-8
-24
-15
-14
-12
2
-13
-2
-15
-21
-18
-7
-8
-5
-9
-1
-13
-15
-8
-16
-16
-10
-13
-25
-17
-17
-18
-12
-27
-36
-24
-1
-6
-4
4
17
34
70
89
95
113
128
120
126
128
104
49
27
-13
-26
-58
-70
-97
-132
-139
-135
-131
-116
-100
-94
-82
-74
-69
-52
-62
-41
-35
-34
-30
-23
-14
-13
-5
-4
-5
-25
-14
-7
-5
-20
-23
-31
-26
-9
-6
-3
-9
-10
-6
-6
-6
-16
-8
-10
-9
-9
-5
5
-10
-4
1
-2
-10
-10
-11
-4
-7
2
-7
1
1
11
10
15
28
11
-2
-7
5
15
26
17
18
17
33
29
33
35
37
43
39
36
50
61
63
69
67
62
64
61
73
67
80
85
67
76
79
69
69
77
70
75
70
65
67
62
59
48
48
57
47
34
36
21
23
10
1
7
7
3
13
24
6
0
-14
-3
-2
-14
-30
-29
-25
-14
-7
-3
-3
-15
-15
-21
-27
-26
-21
-19
-16
-7
-17
-3
-18
-18
-19
-21
-21
-11
-7
-3
-15
-12
-6
-16
-15
-10
-30
-13
-9
-19
-12
-2
-6
-10
-16
-17
-23
-16
-13
-3
-9
-4
-8
-11
-12
-8
-6
-12
-12
-1
-4
-21
-14
-16
-8
2
-1
-7
0
-3
1
-8
-11
-2
-2
2
14
4
-1
-12
-17
-6
-4
-5
1
17
6
17
-6
4
-7
0
0
4
-2
0
-4
-5
-7
-14
-11
-20
-18
-10
-13
-10
-18
-17
-14
-16
-10
-14
-20
-27
-17
-15
-13
-14
-22
-10
-9
-3
-20
-25
-27
-25
-20
-21
-13
-23
-37
-33
-34
-33
-12
-1
-11
-8
13
38
57
81
96
98
116
123
126
121
132
103
33
0
-25
-36
-53
-83
-118
-135
-144
-132
-106
-103
-94
-89
-67
-71
-71
-57
-41
-32
-29
-30
-25
-19
-25
-21
-16
-10
-6
-12
-19
-14
-2
-32
-29
-25
-7
-18
-13
-3
-12
-15
-8
-10
-5
-3
-1
-20
-16
-14
-7
1
0
-6
-11
-8
-9
-7
0
-2
2
-4
1
6
10
0
-1
-3
2
11
13
17
24
18
11
7
4
18
26
51
19
34
33
31
38
51
68
69
59
58
65
71
73
69
78
69
72
78
75
79
73
73
66
65
73
79
68
63
55
57
55
43
53
58
44
24
24
30
26
23
18
8
-1
0
4
10
15
7
0
2
1
-2
-14
-12
-13
-13
-18
-13
-9
13
-12
-4
-11
-18
-6
-19
-16
-8
-5
-5
-16
-19
-8
1
-12
-10
-13
-17
-32
-8
-8
-9
-13
-5
-11
-21
-5
0
-4
-2
-15
-4
1
-1
-9
-10
-9
-11
-11
-4
-2
-6
-6
-15
-16
-20
-4
-4
-3
9
3
7
10
10
11
14
-14
2
-4
-21
-23
-2
5
16
6
7
-1
6
-2
10
-5
15
12
10
7
11
5
5
16
-1
0
-8
-8
5
-1
-14
-16
-11
-12
-19
-11
-23
-20
-17
-12
-3
-13
-15
-11
-6
-2
-10
-22
-8
-12
-11
-9
3
-15
-25
-15
-14
-17
-15
-24
-19
-26
-17
-20
-2
-3
6
24
48
65
85
101
117
135
138
143
143
138
118
51
4
-22
-39
-52
-70
-115
-144
-151
-139
-121
-93
-69
-57
-69
-77
-69
-64
-42
-30
-10
-9
-2
-16
-13
-29
-18
-9
-20
-21
-21
-14
-19
-18
-17
-14
-1
-2
-6
-13
-14
-15
-11
-5
0
9
0
-15
-12
-11
-12
-9
-13
1
-2
-9
-2
-6
-2
8
6
4
7
-5
-2
6
19
5
8
21
20
19
15
23
18
19
32
51
35
37
42
39
50
52
52
65
63
71
70
66
66
61
76
79
91
89
80
74
83
81
81
81
89
85
84
80
78
77
52
47
27
59
46
45
55
63
47
36
20
24
13
18
22
16
12
15
11
5
6
3
4
-4
-10
-3
-4
-4
-5
-6
-3
-6
-4
3
4
-6
-8
-13
-16
-10
2
1
-10
-8
-11
-10
-7
-13
5
-11
-7
5
0
6
-13
-13
-13
-7
-6
-7
9
7
-9
-19
-19
-10
-3
-11
-12
-3
0
0
-1
-2
-7
-15
-13
-1
-3
-19
-15
-10
-13
-5
-6
2
-5
-10
-9
1
6
-10
-14
-28
-15
-13
-5
2
3
7
4
-24
-20
-12
-9
-18
-10
-12
1
-15
-5
-7
-13
-17
-7
-2
-1
-5
-5
1
-4
-4
0
-4
6
7
11
20
1
-9
-6
-2
-17
-21
-8
-7
-17
-15
-14
-15
-22
-17
-13
-20
-16
-11
-11
1
-26
-17
-6
-14
-13
-6
-13
-10
-20
-19
-10
-15
-15
-32
-19
-19
-11
-17
-25
-17
-6
-2
-3
12
34
51
68
92
105
127
137
138
146
135
134
104
28
-4
-17
-34
-48
-85
-122
-151
-155
-138
-115
-108
-98
-79
-63
-58
-46
-27
-9
-28
-21
-14
-19
-16
-17
-21
-23
-8
-15
-20
-12
2
-4
-12
-18
-14
-18
-10
-15
-7
-8
2
-9
-22
-14
-13
-20
-9
-2
1
5
-4
-14
-11
-10
-8
12
16
2
0
8
8
5
-5
8
15
16
4
6
6
11
13
23
18
21
27
32
30
28
26
40
41
53
51
38
46
56
57
60
60
68
73
75
69
74
76
75
81
79
70
80
84
68
82
82
76
63
52
71
57
56
50
48
40
40
36
35
30
35
26
11
6
8
8
13
6
7
-1
-1
-4
-12
-14
-16
-11
-12
-10
-21
-20
-5
3
-10
-13
-11
-15
-18
-15
-8
-16
-8
-14
-20
-11
-30
-23
-12
-16
-28
-2
-12
-16
-12
-7
-11
-20
-18
-12
-15
-2
3
-5
-18
-26
-30
-21
-15
-14
-18
-17
-15
-14
-8
-13
-13
-13
-3
-6
-7
-16
-16
-17
-15
-15
-18
-18
-9
-18
-18
-5
-1
-16
-24
-26
-28
-21
-16
-17
-8
-10
-23
-32
-22
-24
-25
-7
-19
-20
-15
-4
-11
-6
-10
-3
-18
-18
-27
-22
-20
-18
-19
-24
-14
-15
-12
-12
-10
-12
-17
-15
-9
-22
-9
-7
-11
2
-10
-13
-12
0
-3
-19
-21
-32
-39
-24
-9
-16
-17
-10
-2
3
-27
-44
-34
-24
-11
-16
-19
-21
-31
-16
-14
-20
-30
-27
-29
-18
-16
-22
-28
-30
-10
-15
-37
-30
-33
-30
-24
-19
-25
-14
-2
5
31
51
74
87
114
121
115
125
116
118
79
40
-2
-58
-56
-67
-101
-123
-145
-152
-152
-130
-119
-115
-94
-78
-66
