-6
-3
-3
-11
-24
-46
-51
-49
-43
-24
-8
-1
0
-13
-28
-48
-51
-50
-40
-22
-8
0
-3
-12
-27
-45
-52
-49
-39
-21
-6
0
-2
-12
-30
-47
-56
-51
-40
-23
-6
2
-2
-13
-33
-46
-53
-47
-39
-20
-6
2
-1
-12
-34
-48
-56
-49
-38
-17
-4
0
-4
-14
-37
-49
-56
-49
-36
-15
-3
-3
-6
-18
-39
-51
-57
-49
-39
-16
-8
-2
-6
-20
-38
-52
-52
-48
-36
-16
-5
-3
-11
-20
-42
-51
-53
-47
-36
-14
-4
-1
-5
-19
-40
-54
-54
-48
-36
-9
-5
-2
-6
-20
-42
-52
-53
-43
-32
-10
-1
3
-9
-19
-41
-53
-54
-46
-31
-7
1
0
-11
-22
-44
-49
-52
-43
-30
-7
5
8
-11
-24
-45
-53
-51
-43
-26
-11
2
1
-6
-23
-42
-49
-48
-37
-24
-3
4
3
-2
-17
-37
-40
-43
-31
-14
4
7
10
-1
-18
-36
-44
-41
-34
-18
-2
4
5
-6
-26
-42
-50
-48
-37
-22
-3
1
-3
-13
-32
-50
-57
-51
-39
-21
-10
-1
-5
-14
-36
-52
-55
-50
-42
-17
-5
-2
-4
-14
-40
-55
-67
-60
-52
-30
-17
-11
-7
-6
-14
-12
7
24
55
96
110
108
91
54
15
-2
-15
-27
-36
-39
-38
-37
-41
-49
-72
-80
-84
-71
-55
-34
-11
-5
-9
-17
-44
-49
-51
-41
-29
-11
2
4
-5
-16
-36
-49
-51
-37
-29
-3
6
6
-1
-16
-40
-47
-46
-34
-26
-4
8
9
1
-15
-34
-44
-45
-34
-21
-1
9
10
-2
-13
-32
-40
-42
-32
-15
3
12
12
3
-12
-32
-39
-38
-23
-12
6
20
21
9
-9
-25
-31
-32
-15
0
16
23
26
16
1
-17
-22
-18
-6
10
30
33
32
24
7
-7
-14
-16
2
18
35
44
42
34
17
0
-4
-3
11
26
47
54
52
39
20
0
-1
0
13
38
48
53
47
36
15
-1
-5
-6
7
28
37
41
32
22
1
-17
-22
-21
-12
9
18
21
15
3
-19
-34
-41
-37
-27
-4
6
9
4
-9
-32
-42
-49
-41
-30
-10
0
3
-6
-15
-36
-48
-50
-43
-33
-4
2
7
-2
-13
-33
-50
-48
-38
-31
-4
5
2
-3
-16
-35
-44
-48
-36
-25
-1
9
9
0
-11
-33
-44
-44
-35
-25
1
9
8
-3
-16
-29
-46
-44
-35
-20
0
7
10
-7
-22
-39
-43
-45
-33
-19
-1
6
6
-4
-18
-39
-47
-45
-36
-16
1
8
9
-6
-21
-36
-46
-43
-33
-14
3
10
3
-8
-23
-39
-45
-43
-36
-16
3
6
3
-6
-25
-41
-45
-45
-29
-15
-1
5
7
-4
-24
-38
-48
-41
-34
-12
3
9
7
-4
-27
-43
-46
-41
-35
-10
7
12
1
-6
-24
-35
-47
-41
-25
-3
6
12
9
0
-12
-37
-42
-34
-20
-3
13
15
10
3
-21
-34
-36
-28
-21
3
19
24
12
2
-19
-33
-34
-28
-15
6
13
14
6
-4
-23
-36
-39
-33
-24
3
10
10
1
-6
-32
-47
-42
-34
-24
1
5
8
1
-11
-33
-43
-46
-37
-21
-3
9
9
0
-11
-32
-43
-44
-35
-22
-3
4
0
-8
-23
-39
-42
-30
-6
26
57
81
94
107
91
65
46
18
18
32
36
29
3
-30
-56
-68
-76
-71
-60
-43
-28
-16
-15
-22
-33
-43
-48
-43
-31
-8
5
6
8
-1
-19
-30
-37
-34
-22
-2
9
16
15
3
-18
-31
-36
-34
-20
2
13
22
15
4
-14
-25
-36
-28
-18
4
20
23
14
10
-9
-25
-29
-27
-15
9
19
29
22
10
-10
-23
-24
-18
-11
12
26
27
24
12
-5
-20
-22
-17
-3
16
32
35
31
21
-2
-16
-17
-12
3
27
38
45
33
25
8
-1
-5
0
15
36
49
54
47
36
16
6
5
13
27
49
57
62
57
41
18
11
10
19
33
49
64
64
58
45
24
8
6
17
28
50
58
56
43
25
6
-8
-9
-1
14
30
35
33
19
7
-15
-25
-29
-20
-6
11
21
16
6
-9
-30
-39
-38
-29
-12
7
13
9
-1
-16
-33
-40
-41
-28
-9
6
10
9
-2
-22
-37
-43
-39
-29
-13
8
15
12
-1
-21
-37
-38
-42
-27
-6
7
14
10
1
-19
-35
-39
-35
-24
-3
10
13
10
2
-18
-36
-41
-36
-25
-4
11
14
9
-2
-23
-33
-42
-34
-25
-5
7
14
9
-2
-25
-39
-42
-36
-23
-5
5
13
3
-3
-30
-41
-45
-39
-27
-5
8
11
4
-8
-28
-40
-47
-35
-23
-2
9
6
1
-11
-31
-42
-45
-36
-26
-5
6
9
-2
-9
-35
-44
-47
-37
-24
-4
9
9
-3
-13
-36
-44
-42
-30
-21
0
12
13
5
-5
-32
-39
-38
-28
-13
6
16
18
7
-9
-30
-35
-35
-29
-16
3
10
9
0
-17
-37
-43
-42
-34
-19
-2
5
5
-6
-22
-40
-46
-47
-36
-19
-1
8
4
-5
-25
-39
-48
-44
-32
-17
3
5
4
-5
-22
-43
-46
-47
-36
-20
-5
-1
-5
-18
-39
-53
-57
-45
-22
13
45
64
76
87
81
66
56
45
32
44
51
43
22
-12
-61
-77
-80
-74
-61
-39
-26
-18
-23
-25
-44
-52
-52
-45
-34
-11
1
8
2
-4
-29
-40
-46
-40
-27
-3
9
13
7
-5
-28
-41
-42
-34
-25
-3
10
13
4
-6
-26
-39
-38
-32
-20
3
16
18
12
-2
-22
-34
-33
-27
-13
5
18
20
10
0
-24
-32
-33
-25
-11
13
19
21
12
-2
-15
-28
-29
-16
-2
18
27
26
18
3
-16
-21
-22
-9
5
19
33
32
21
11
-6
-16
-17
-5
13
34
43
42
35
16
2
-6
-2
7
25
43
51
51
40
25
7
-2
3
10
31
50
53
49
39
24
4
0
1
8
27
41
45
40
29
8
-9
-22
-18
-10
11
24
26
20
9
-13
-32
-38
-35
-24
-6
9
11
6
-6
-23
-41
-43
-43
-36
-12
2
5
3
-10
-33
-41
-48
-43
-33
-13
1
2
-1
-11
-33
-45
-48
-40
-33
-8
5
11
1
-9
-31
-43
-47
-40
-28
-6
4
8
4
-8
-30
-42
-44
-33
-21
3
11
14
1
-7
-29
-40
-44
-33
-21
3
11
11
4
-7
-30
-40
-41
-32
-21
-1
12
14
5
-10
-32
-39
-40
-31
-17
1
15
8
-2
-12
-33
-40
-40
-31
-19
-1
8
7
-2
-13
-33
-45
-40
-32
-15
3
12
9
1
-19
-35
-39
-38
-30
-14
1
8
7
-3
-17
-37
-43
-39
-27
-13
1
10
8
0
-19
-36
-42
-37
-25
-10
6
14
12
3
-15
-35
-34
-33
-20
-5
10
18
12
4
-13
-32
-37
-33
-22
-2
13
14
12
1
-19
-37
-40
-36
-30
-9
5
8
3
-8
-29
-43
-47
-41
-33
-13
6
7
2
-7
-29
-47
-47
-41
-32
-9
3
6
0
-10
-31
-45
-48
-40
-32
-10
6
5
-4
-16
-42
-52
-54
-46
-34
-4
16
30
43
44
43
52
60
78
86
99
85
63
47
27
-14
-37
-68
-73
-62
-40
-24
-16
-24
-37
-53
-60
-55
-42
-23
-2
5
9
-2
-11
-33
-43
-42
-33
-16
1
13
13
5
-9
-27
-34
-37
-27
-13
7
18
17
9
-9
-28
-36
-35
-22
-10
9
20
19
10
-9
-27
-34
-34
-22
-5
11
18
19
6
-7
-27
-33
-26
-17
0
18
30
18
16
-6
-19
-25
-24
-12
10
22
30
26
16
0
-16
-22
-13
-7
17
31
37
35
26
5
-9
-10
-5
8
27
40
48
41
32
10
2
-2
9
14
38
53
59
57
44
22
9
4
12
23
47
59
65
57
46
22
13
6
16
24
43
54
59
51
39
14
4
-4
0
6
25
36
38
26
16
-9
-22
-27
-21
-11
9
17
18
11
0
-27
-37
-38
-32
-19
3
11
10
5
-10
-33
-45
-40
-33
-22
3
13
9
-1
-8
-31
-46
-42
-32
-19
2
11
10
3
-10
-31
-43
-39
-26
-13
3
12
12
2
-13
-31
-39
-38
-32
-12
4
16
10
0
-15
-33
-42
-34
-27
-11
7
13
13
2
-17
-32
-41
-36
-27
-11
8
14
9
-1
-16
-36
-42
-37
-27
-6
8
15
11
4
-20
-35
-38
-42
-28
-9
8
13
8
0
-23
-35
-40
-37
-27
-2
8
14
6
-1
-21
-39
-42
-38
-28
-5
7
12
9
2
-23
-40
-42
-35
-27
-5
8
11
5
-4
-25
-43
-45
-37
-29
-5
6
11
2
-7
-32
-43
-46
-38
-28
-5
8
9
3
-10
-31
-41
-46
-38
-26
-6
6
8
-1
-13
-31
-47
-49
-37
-29
-5
4
7
0
-10
-38
-39
-44
-37
-26
-3
10
11
0
-12
-26
-41
-41
-31
-18
3
12
14
5
-8
-29
-38
-38
-30
-16
4
11
7
-2
-16
-34
-47
-44
-36
-20
-2
5
0
-7
-23
-40
-49
-46
-36
-23
-5
3
3
-9
-26
-47
-52
-50
-40
-21
-7
5
2
-10
-31
-48
-54
-52
-43
-24
-11
-9
-11
-19
-43
-58
-63
-48
-26
5
36
63
76
87
86
75
64
55
39
45
45
36
10
-19
-60
-85
-89
-81
-72
-46
-31
-26
-23
-30
-46
-58
-58
-51
-38
-16
0
4
-4
-12
-34
-46
-50
-45
-29
-7
1
6
3
-11
-31
-45
-50
-40
-27
-7
6
11
4
-8
-26
-44
-45
-36
-25
-3
8
13
1
-10
-29
-42
-41
-31
-20
-1
10
14
4
-7
-27
-38
-40
-29
-15
6
14
18
9
-4
-25
-33
-33
-24
-11
6
17
21
10
1
-19
-27
-29
-12
-5
16
27
30
22
4
-9
-15
-16
-6
8
32
41
40
33
18
3
-3
-4
6
22
41
49
51
41
24
8
0
3
10
34
48
53
50
41
24
6
0
2
7
27
43
46
41
31
12
-8
-18
-17
-7
9
23
25
21
6
-14
-28
-39
-33
-26
-3
8
15
7
-4
-24
-42
-48
-44
-33
-13
-1
7
1
-6
-26
-43
-49
-46
-35
-12
2
6
0
-8
-31
-44
-50
-43
-31
-9
2
5
-1
-12
-32
-43
-52
-43
-30
-12
5
8
0
-11
-33
-42
-45
-42
-27
-6
3
10
1
-8
-29
-41
-43
-34
-23
3
13
11
6
-5
-28
-41
-43
-32
-18
2
9
12
3
-10
-33
-40
-45
-35
-23
-1
9
10
0
-12
-32
-41
-42
-31
-19
1
7
8
4
-12
-34
-44
-45
-34
-19
2
9
9
-3
-18
-38
-44
-43
-34
-17
-1
5
6
-2
-17
-37
-46
-43
-29
-15
3
7
7
-2
-19
-37
-48
-43
-33
-15
2
12
6
-3
-22
-39
-46
-38
-33
-12
4
9
6
-4
-23
-36
-43
-44
-30
-12
5
8
5
-3
-26
-39
-46
-44
-31
-11
2
9
3
-5
-24
-40
-49
-40
-34
-9
3
12
2
-5
-31
-42
-45
-43
-32
-9
4
6
5
-7
-27
-45
-47
-37
-31
-6
5
12
3
-6
-27
-38
-43
-30
-25
-1
13
15
5
-2
-25
-38
-39
-32
-22
2
15
15
9
-2
-23
-37
-40
-28
-18
3
10
12
4
-8
-33
-41
-41
-33
-20
0
9
8
-1
-15
-31
-46
-47
-37
-22
-3
8
10
-2
-16
-35
-43
-45
-36
-18
-2
5
5
-3
-17
-36
-46
-48
-38
-24
-7
-1
1
-11
-29
-41
-41
-32
-6
24
61
85
105
111
96
70
51
21
24
36
40
29
1
-33
-57
-70
-73
-72
-60
-46
-27
-15
-10
-18
-33
-47
-51
-45
-33
-13
5
10
6
-1
-22
-37
-42
-36
-27
-4
9
15
11
5
-14
-32
-36
-30
-23
-3
13
16
13
5
-14
-30
-36
-28
-17
3
18
23
18
7
-15
-26
-30
-25
-15
10
25
25
20
13
-9
-21
-24
-17
-7
14
31
28
25
12
-6
-19
-20
-13
-3
24
35
35
32
22
-1
-14
-15
-9
9
29
39
43
39
27
3
-3
-3
5
18
42
53
58
43
35
14
3
8
16
32
52
60
61
54
40
18
13
12
22
34
54
61
63
51
34
18
9
9
16
30
48
55
56
40
23
2
-7
-10
-1
11
29
35
29
18
4
2
-18
-35
-39
-34
-26
-8
10
18
13
1
-18
-33
-35
-33
-25
-4
10
18
12
4
-20
-29
-34
-30
-21
2
16
18
12
6
-12
-31
-34
-30
-19
5
15
20
13
7
-17
-30
-34
-27
-16
4
16
22
16
3
-17
-29
-33
-26
-18
3
17
24
12
3
-19
-32
-37
-28
-20
3
16
17
13
0
-23
-37
-36
-29
-18
1
18
17
10
-2
-26
-38
-38
-25
-14
8
14
14
7
-4
-24
-38
-35
-26
-13
6
18
19
7
-7
-26
-33
-37
-30
-13
7
18
17
6
-7
-26
-35
-33
-29
-10
10
16
13
5
-10
-29
-33
-36
-26
-11
8
18
17
8
-11
-26
-35
-33
-25
-2
10
16
17
9
-7
-30
-40
-34
-24
-2
10
19
19
5
-9
-23
-31
-30
-17
1
18
22
20
9
-7
-24
-29
-27
-19
6
22
28
22
15
-6
-23
-25
-23
-14
6
18
23
23
8
-13
-26
-32
-30
-22
3
14
15
16
3
-19
-30
-38
-31
-24
4
15
18
12
0
-19
-30
-35
-31
-19
2
13
16
7
4
-24
-32
-36
-32
-22
-1
7
9
1
-11
-34
-41
-32
-11
15
51
76
94
103
105
80
58
36
25
30
46
42
27
-13
-40
-60
-69
-66
-61
-48
-23
-18
-12
-16
-25
-37
-44
-40
-30
-16
9
17
21
13
-2
-20
-28
-26
-20
-1
18
24
24
17
1
-20
-26
-24
-13
2
19
27
26
17
2
-18
-24
-24
-13
5
23
27
28
18
2
-15
-25
-23
-10
9
25
33
31
21
4
-14
-18
-16
-5
14
33
40
35
28
9
-5
-14
-11
0
20
37
39
39
30
11
-4
-7
-4
4
29
44
50
46
34
15
4
1
4
15
40
53
60
57
47
29
9
9
15
28
49
62
70
62
53
29
23
18
23
34
55
67
72
64
54
32
17
15
19
28
48
57
60
50
38
12
-3
-4
-1
7
28
38
38
29
18
-5
-21
-24
-17
-4
15
26
25
16
4
-20
-31
-32
-27
-13
7
18
18
10
-2
-22
-34
-38
-28
-11
9
17
16
6
-5
-27
-33
-34
-25
-10
10
17
20
10
-5
-22
-29
-32
-22
-5
11
21
19
12
0
-21
-28
-27
-19
-2
20
26
23
11
-3
-19
-31
-26
-19
1
17
24
23
13
-5
-21
-28
-27
-19
-1
16
25
20
11
-7
-23
-31
-26
-19
-1
17
20
18
7
-10
-27
-34
-29
-20
2
16
21
16
7
-15
-29
-34
-30
-21
-1
14
18
13
5
-16
-32
-36
-33
-23
2
14
18
14
3
-20
-33
-37
-31
-21
3
16
21
9
-1
-20
-32
-37
-28
-19
3
14
20
7
1
-19
-33
-35
-29
-16
8
15
20
12
0
-22
-34
-33
-27
-12
5
19
22
12
3
-18
-33
-33
-25
-14
8
18
22
14
3
-21
-29
-32
-24
-11
11
20
21
13
2
-19
-27
-27
-19
-4
16
24
25
15
2
-17
-25
-28
-15
-4
18
24
23
10
-4
-24
-32
-32
-23
-7
9
16
15
7
-11
-29
-35
-33
-25
-7
7
14
12
3
-17
-32
-39
-32
-28
-10
8
14
14
2
-18
-32
-37
-35
-24
-4
8
14
6
-6
-25
-43
-50
-48
-33
-5
23
40
53
60
57
59
68
79
83
90
80
71
61
40
-3
-35
-67
-69
-55
-33
-20
-12
-23
-29
-46
-56
-56
-45
-34
-7
10
13
9
-2
-26
-36
-36
-32
-20
2
13
16
10
0
-19
-34
-36
-28
-17
5
14
17
14
2
-19
-30
-34
-26
-11
10
20
25
17
5
-13
-26
-32
-23
-11
13
26
26
14
2
-20
-29
-25
-15
-7
16
24
26
17
7
-13
-19
-21
-12
2
16
31
34
23
11
-8
-14
-17
-9
10
28
40
40
29
13
-6
-11
-9
2
17
35
48
45
38
23
6
1
3
15
29
48
60
59
46
35
15
8
11
20
41
57
64
62
51
31
13
7
8
20
39
56
58
54
43
21
4
-4
-6
3
21
33
38
35
22
0
-17
-27
-25
-15
5
17
19
17
6
-18
-33
-40
-35
-22
-4
8
13
5
1
-28
-39
-41
-35
-28
-7
6
11
7
-5
-24
-38
-42
-37
-26
-1
8
11
6
-4
-27
-35
-40
-35
-25
-2
9
13
10
-3
-24
-35
-39
-31
-22
1
15
15
6
-5
-24
-35
-38
-29
-19
6
13
17
9
-4
-25
-37
-40
-27
-18
5
15
17
10
-6
-26
-37
-36
-31
-15
3
14
15
4
-8
-27
-36
-35
-26
-15
6
14
15
5
-9
-29
-35
-40
-29
-16
4
14
11
2
-10
-31
-40
-41
-28
-12
6
9
14
4
-14
-35
-40
-38
-28
-9
6
12
10
0
-14
-34
-41
-38
-26
-12
5
12
11
0
-20
-36
-38
-40
-28
-8
6
13
9
2
-22
-36
-40
-36
-26
-5
8
12
8
-2
-21
-34
-40
-41
-25
-6
6
14
6
-3
-23
-35
-43
-36
-26
-4
7
14
6
-4
-21
-39
-43
-39
-26
-7
6
7
4
-5
-27
-39
-40
-37
-28
-3
11
17
13
-5
-26
-33
-41
-36
-24
0
14
15
14
-1
-22
-38
-36
-29
-15
6
15
19
10
1
-22
-33
-35
-26
-12
9
18
22
12
1
-18
-32
-31
-25
-11
6
18
18
9
-7
-26
-34
-37
-30
-15
3
12
11
4
-9
-34
-43
-39
-33
-15
0
6
11
0
-13
-28
-43
-43
-31
-18
1
12
12
5
-14
-35
-44
-44
-38
-25
-6
2
0
-3
-9
-16
-6
14
43
77
110
131
130
110
76
31
13
6
4
3
-1
-17
-24
-36
-49
-60
-63
-60
-44
-22
-6
6
6
0
-19
-36
-40
-34
-23
-1
11
17
13
4
-14
-32
-33
-27
-18
2
17
22
16
3
-16
-28
-33
-24
-15
8
18
22
20
10
-14
-27
-31
-24
-16
7
19
25
17
9
-13
-24
-27
-19
-12
14
25
27
24
12
-9
-16
-21
-13
-5
20
30
37
28
13
-4
-18
-20
-11
1
27
39
43
32
21
1
-11
-10
-1
12
34
45
50
40
33
7
-4
-2
10
24
47
56
57
52
35
17
6
7
18
34
56
66
65
55
42
22
16
15
24
37
60
64
64
52
38
17
8
9
15
32
47
53
46
36
20
0
-12
-13
-3
11
29
34
29
16
0
-20
-28
-26
-18
2
19
24
18
13
-7
-25
-35
-33
-21
-4
14
21
17
7
-16
-33
-36
-31
-21
-2
13
18
14
3
-17
-31
-38
-31
-23
-3
12
17
12
3
-17
-31
-39
-32
-20
4
14
21
12
4
-19
-31
-35
-30
-20
1
13
17
16
1
-17
-29
-36
-28
-18
3
16
20
13
2
-20
-34
-34
-30
-16
6
17
20
15
1
-21
-35
-37
-28
-13
8
17
19
8
-1
-24
-36
-37
-28
-14
7
18
19
12
-4
-26
-37
-37
-29
-15
6
14
14
7
-6
-29
-36
-37
-27
-13
8
16
14
7
-6
-30
-38
-37
-30
-13
3
14
12
5
-10
-28
-38
-39
-30
-14
5
14
12
2
-17
-32
-37
-38
-28
-14
3
15
13
2
-13
-31
-39
-36
-26
-8
6
12
10
2
-13
-32
-40
-37
-25
-7
8
13
11
3
-18
-35
-39
-35
-27
-9
9
15
11
0
-17
-35
-37
-34
-24
-4
10
15
9
2
-20
-36
-39
-33
-25
-6
13
13
5
0
-22
-33
-38
-34
-23
-2
14
17
6
-1
-21
-34
-40
-32
-20
4
14
16
11
-1
-21
-33
-38
-27
-20
4
15
15
7
-2
-23
-33
-37
-30
-17
3
16
23
12
1
-19
-28
-30
-20
-13
12
24
22
15
3
-15
-24
-27
-19
-6
18
22
25
16
4
-18
-32
-33
-22
-9
6
20
20
8
-8
-25
-33
-38
-28
-14
5
16
16
6
-8
-31
-39
-38
-27
-14
10
13
14
3
-13
-31
-38
-37
-26
-15
7
14
15
-3
-20
-38
-49
-46
-36
-22
-3
13
24
27
28
27
38
59
86
112
128
121
94
64
41
12
-11
-27
-43
-37
-23
-12
-11
-21
-39
-52
-55
-46
-31
-10
10
16
12
5
-14
-28
-34
-27
-17
6
18
25
18
7
-14
-27
-30
-27
-15
7
19
27
17
7
-13
-25
-29
-25
-14
11
21
27
22
13
-10
-23
-28
-20
-7
15
29
32
26
11
-10
-14
-25
-17
-6
18
28
35
29
17
-4
-17
-18
-9
2
25
37
38
31
20
-2
-14
-15
-5
8
31
41
44
38
24
0
-6
-3
1
17
41
50
52
41
32
13
4
3
16
32
53
61
63
53
40
22
15
17
23
43
58
69
69
59
46
26
19
14
26
40
60
66
64
52
39
16
9
8
19
33
47
54
51
37
21
-1
-8
-9
-2
15
31
37
32
18
-2
-19
-26
-23
-15
6
20
20
19
8
-11
-26
-30
-26
-17
2
15
21
18
6
-11
-26
-31
-28
-19
2
16
20
18
7
-15
-30
-33
-27
-14
4
17
25
17
6
-14
-26
-31
-25
-15
9
22
24
18
10
-12
-29
-30
-26
-16
5
20
25
17
7
-15
-27
-30
-23
-11
14
19
24
16
8
-11
-25
-28
-19
-10
12
24
25
18
7
-14
-27
-28
-19
-8
14
24
24
16
4
-17
-26
-28
-19
-5
13
24
24
16
5
-18
-25
-28
-19
-2
14
24
24
14
2
-16
-28
-29
-19
-2
15
24
26
15
-2
-18
-27
-27
-16
-1
16
24
23
19
-7
-18
-29
-30
-20
1
19
24
25
12
-1
-22
-29
-28
-15
0
19
25
21
15
-4
-23
-29
-28
-16
4
19
23
21
10
-8
-25
-29
-24
-18
6
18
25
21
15
-6
-23
-28
-25
-18
4
17
20
20
9
-10
-27
-29
-26
-19
4
16
21
23
9
-14
-26
-33
-25
-16
7
18
22
16
8
-12
-26
-32
-26
-15
9
21
23
19
6
-16
-29
-32
-23
-9
12
23
27
20
10
-16
-24
-28
-21
-11
16
24
27
19
9
-10
-22
-25
-17
-4
19
27
33
22
10
-13
-24
-28
-16
-1
21
34
30
21
11
-10
-23
-25
-17
-4
17
24
24
15
5
-18
-30
-29
-24
-9
11
21
20
10
-6
-22
-31
-35
-23
-8
10
21
21
9
-7
-24
-32
-33
-26
-7
10
17
21
11
-8
-28
-36
-37
-29
-13
1
9
3
4
-5
-10
-2
15
42
74
114
135
132
113
81
36
18
18
12
13
4
-11
-19
-27
-45
-58
-62
-61
-48
-26
-5
6
7
0
-18
-30
-35
-30
-20
4
15
22
19
9
-11
-24
-30
-27
-12
9
23
29
22
9
-8
-23
-28
-22
-12
12
26
31
23
14
-9
-21
-24
-18
-11
16
26
30
24
14
-5
-21
-23
-20
-4
18
32
36
26
16
-6
-19
-20
-10
0
22
39
39
33
20
1
-13
-17
-5
6
31
44
44
36
25
4
-6
-5
0
16
36
49
51
43
30
10
4
1
10
29
51
62
61
53
38
20
12
16
19
39
58
70
70
59
46
28
18
17
29
47
60
69
68
58
42
21
12
11
21
37
52
58
56
43
25
3
-5
-2
2
19
34
39
32
22
5
-11
-22
-19
-12
12
25
30
21
14
-6
-24
-33
-25
-14
4
18
23
20
11
-12
-28
-29
-27
-22
5
18
24
16
7
-12
-27
-29
-32
-13
5
21
24
20
10
-12
-27
-31
-24
-12
9
22
25
20
11
-11
-25
-30
-24
-12
9
24
27
19
16
-9
-22
-27
-21
-11
13
23
27
22
13
-10
-23
-26
-20
-7
15
28
29
21
8
-12
-24
-24
-18
-10
15
30
27
19
4
-17
-25
-28
-18
-7
14
25
26
14
4
-17
-28
-31
-20
-4
16
24
24
15
5
-18
-31
-26
-18
-6
14
23
23
16
3
-16
-29
-30
-20
-1
16
24
22
13
-1
-20
-28
-27
-18
0
15
20
21
16
-5
-23
-26
-26
-17
-2
16
23
21
11
-6
-23
-30
-28
-16
0
18
26
26
13
-8
-26
-29
-28
-16
1
18
22
23
12
-7
-21
-28
-23
-17
3
18
22
19
8
-5
-25
-31
-27
-17
5
17
24
16
9
-12
-24
-32
-25
-15
7
20
21
18
6
-15
-25
-29
-24
-14
8
20
23
17
8
-15
-28
-29
-27
-15
11
22
25
20
9
-10
-22
-26
-16
-9
16
30
32
22
12
-9
-23
-24
-15
-3
20
30
34
21
14
-10
-24
-23
-18
-8
15
23
24
15
5
-17
-29
-27
-23
-6
13
22
21
12
1
-23
-32
-29
-21
-10
13
18
19
12
-2
-24
-33
-32
-24
-9
9
19
19
11
-7
-28
-38
-41
-31
-15
3
11
23
21
18
19
24
40
70
104
128
132
118
82
51
26
11
-9
-19
-27
-21
-16
-15
-22
-40
-54
-63
-57
-40
-15
4
12
13
5
-10
-29
-30
-25
-16
7
22
24
22
12
-7
-18
-28
-21
-12
10
23
29
25
13
-5
-20
-24
-20
-9
14
29
30
24
14
-6
-18
-24
-12
-6
15
29
35
29
17
-4
-17
-25
-17
-5
19
33
37
31
21
-1
-13
-17
-9
3
23
36
39
35
24
1
-8
-12
-6
7
34
43
45
41
26
7
-3
-9
7
17
41
52
54
47
35
15
4
6
18
29
54
64
68
58
44
23
15
15
27
40
63
70
73
66
52
29
17
21
26
44
60
69
71
61
44
23
14
12
20
35
51
55
53
41
23
0
-10
-9
3
17
30
37
35
24
6
-10
-22
-20
-12
4
21
27
27
15
0
-20
-25
-26
-17
1
19
23
19
11
-7
-23
-28
-25
-16
6
18
23
22
14
-13
-25
-28
-24
-13
3
16
27
23
12
-7
-22
-25
-22
-10
13
24
26
20
14
-5
-21
-26
-22
-10
12
29
33
24
14
-8
-22
-27
-19
-8
13
29
31
23
18
-7
-22
-23
-21
-7
13
24
29
25
10
-10
-25
-24
-19
-7
15
28
28
25
4
-16
-24
-28
-18
-9
12
24
29
19
9
-15
-26
-29
-19
-5
13
22
27
16
5
-14
-26
-28
-21
-1
12
27
26
17
3
-19
-27
-27
-14
-6
15
25
23
16
2
-20
-26
-26
-19
-2
16
24
24
15
0
-19
-29
-27
-16
5
17
22
27
14
-1
-20
-28
-24
-12
-1
21
25
26
10
-4
-19
-25
-26
-15
6
19
26
22
12
-5
-17
-25
-20
-13
7
22
32
25
15
-1
-19
-24
-21
-10
9
23
27
23
16
-10
-19
-24
-21
-9
11
24
28
24
13
-3
-19
-24
-18
-8
14
35
33
29
22
-1
-12
-17
-11
0
23
35
35
36
23
5
-12
-14
-9
1
25
38
40
35
22
-3
-14
-19
-12
-2
22
37
33
24
18
-7
-17
-19
-12
-6
19
28
30
24
11
-10
-21
-23
-16
-3
21
30
32
27
14
-11
-21
-19
-14
-1
20
31
30
19
10
-20
-28
-30
-21
-2
28
50
62
73
76
72
76
93
103
112
108
91
88
67
42
4
-34
-59
-48
-29
-7
3
5
-13
-24
-37
-37
-30
-18
3
23
32
30
25
6
-7
-11
-15
-4
15
33
39
34
23
14
-5
-14
-11
4
22
38
43
41
30
11
-7
-9
-4
5
20
37
44
40
33
11
-5
-12
-5
6
26
41
46
42
33
12
-4
-5
1
8
29
40
44
43
37
15
2
-4
2
12
33
49
53
51
36
17
0
0
9
18
47
52
57
53
44
23
12
6
15
30
51
65
70
66
55
30
23
18
26
38
59
74
79
72
65
42
28
30
34
46
72
83
85
77
60
38
30
26
36
47
69
77
73
64
56
31
20
16
24
30
48
58
57
45
30
8
-1
-7
-1
20
34
42
42
30
14
-6
-20
-17
-10
11
30
34
33
25
12
-9
-17
-21
-12
5
25
31
33
21
5
-14
-21
-20
-10
6
27
35
28
22
6
-13
-20
-19
-8
13
29
36
30
21
8
-12
-18
-11
-2
18
33
37
31
21
5
-9
-18
-12
-2
19
32
36
33
25
4
-15
-15
-9
-5
20
35
37
35
25
2
-15
-24
-13
-7
22
28
34
31
19
-1
-16
-20
-13
-4
20
32
34
32
19
-4
-15
-20
-10
-4
21
35
34
31
14
-6
-18
-22
-11
-1
21
32
33
27
18
-6
-17
-22
-10
4
24
31
33
28
15
-8
-16
-23
-13
0
21
30
31
25
14
-6
-16
-21
-10
-2
22
30
33
26
13
-7
-21
-22
-12
2
23
31
31
21
9
-8
-17
-23
-10
2
23
33
35
23
10
-11
-12
-19
-8
9
26
33
32
22
9
-11
-21
-14
-5
10
26
37
44
26
4
-11
-14
-9
-1
16
36
40
37
28
10
-6
-15
-13
0
18
36
46
38
28
8
-10
-14
-12
-2
18
36
38
31
22
4
-16
-24
-18
-8
14
33
33
31
24
-2
-16
-25
-16
-7
15
28
33
29
22
1
-14
-21
-15
-7
15
33
37
27
18
-4
-19
-20
-17
-12
12
23
21
27
25
18
22
35
56
82
127
144
148
133
101
54
29
19
10
5
2
-5
-3
-10
-15
-39
-49
-49
-33
-19
8
22
30
25
11
-7
-23
-21
-7
0
26
33
36
24
15
-4
-14
-15
-5
4
29
35
36
29
13
-7
-16
-16
-5
10
32
41
40
30
16
-2
-16
-15
-3
13
31
38
41
35
16
-3
-7
-12
3
15
38
47
47
34
17
0
-8
-3
5
29
41
47
49
39
22
6
1
7
9
31
49
54
51
44
25
13
5
10
22
38
56
61
64
53
34
18
14
15
31
55
73
82
73
63
47
31
25
28
43
64
80
86
82
72
53
28
29
33
44
64
80
80
72
63
42
25
22
29
32
55
65
69
58
45
25
9
-4
2
11
32
43
45
36
24
1
-4
-15
-5
3
23
37
36
26
17
-6
-19
-23
-13
3
21
36
32
26
15
-7
-17
-21
-5
-6
23
28
28
25
10
-7
-20
-21
-7
1
22
27
33
24
12
-6
-13
-16
-5
2
23
32
31
26
11
-7
-14
-16
-1
13
33
40
40
29
15
-4
-20
-20
-4
12
23
35
32
25
4
-12
-10
-17
-5
8
34
36
40
26
-4
-12
-20
-21
1
8
26
33
25
22
4
-9
-30
-29
-17
-4
15
38
33
22
1
-9
-15
-13
-5
19
32
34
16
18
15
-10
-19
-20
-4
19
25
26
25
20
5
-13
-22
-19
-4
16
35
35
25
18
1
-17
-23
-18
-10
15
29
40
26
15
-7
-19
-19
-18
-6
17
29
31
23
14
-9
-21
-24
-14
-5
18
27
30
23
13
-9
-20
-20
-13
-2
20
29
32
26
12
-5
-15
-19
-9
5
24
34
40
30
16
-9
-18
-18
-7
3
28
37
39
31
18
-8
-13
-16
-8
7
27
32
31
28
9
-12
-20
-21
-14
6
18
24
25
19
0
-19
-26
-21
-20
2
22
26
27
21
0
-17
-24
-26
-13
1
14
24
23
12
-1
-20
-24
-24
-8
0
12
20
14
7
-9
-30
-33
-21
2
37
68
97
109
115
113
102
95
82
66
67
75
68
37
17
-32
-59
-67
-57
-42
-21
-9
2
6
4
-17
-28
-30
-24
-13
12
28
28
28
12
-3
-13
-21
-14
-6
16
26
33
27
18
-5
-9
-12
-10
1
23
31
40
29
18
-3
-14
-15
-12
5
22
31
43
35
22
2
-14
-12
-7
8
30
40
43
27
20
6
-9
-9
-4
14
35
46
45
38
25
5
-5
-9
11
17
33
48
52
42
30
9
0
-1
9
24
43
56
55
44
37
18
8
14
19
32
57
67
72
62
49
28
21
23
33
50
67
84
78
68
56
36
28
24
42
52
73
81
86
69
55
31
27
28
39
54
65
70
69
55
40
20
11
8
20
32
45
54
49
37
14
-1
-10
-8
3
20
35
42
38
21
1
-20
-18
-15
-4
17
31
32
28
17
-3
-18
-25
-22
-6
16
26
29
27
18
-6
-15
-24
-18
-7
15
32
31
30
18
-1
-17
-19
-13
-3
16
33
33
23
21
-4
-15
-20
-14
-5
18
34
37
27
16
-6
-16
-16
-11
-1
24
36
34
32
15
-10
-20
-21
-10
-3
26
32
30
30
15
-5
-17
-21
-5
0
25
33
36
27
10
-13
-16
-14
-5
7
21
37
34
24
14
-7
-17
-20
-7
7
25
33
34
24
13
-8
-15
-18
-12
8
24
32
32
20
6
-9
-18
-18
-9
2
29
27
29
16
2
-20
-24
-23
-10
10
26
29
31
17
2
-16
-18
-19
-12
5
26
29
22
21
0
-13
-20
-20
-7
11
24
31
28
17
0
-15
-21
-14
-5
13
28
32
30
23
6
-14
-17
-9
0
18
34
38
35
27
1
-16
-14
-7
4
21
34
46
33
19
5
-9
-15
-10
-4
24
29
36
31
18
-7
-16
-31
-15
-8
20
30
30
19
12
-7
-22
-21
-22
-12
12
23
29
19
7
-11
-20
-26
-21
-10
19
29
30
19
12
-14
-25
-32
-26
-13
9
19
20
11
12
2
0
25
51
82
121
145
158
146
127
82
45
35
31
20
21
5
-10
-20
-32
-45
-52
-50
-35
-23
4
15
19
13
-1
-12
-21
-20
-12
6
25
29
31
22
5
-12
-23
-15
-8
10
29
33
38
26
6
-11
-11
-14
-3
13
33
35
40
33
8
-9
-13
-14
-5
18
35
43
39
29
15
-6
-9
-9
3
25
41
44
40
32
13
-1
-7
-8
8
29
46
48
45
39
18
5
0
3
14
35
52
55
53
44
23
10
5
10
22
45
57
67
64
49
30
18
18
26
32
57
73
75
69
65
45
29
31
36
45
73
81
82
80
70
49
36
34
39
49
68
82
84
73
66
38
25
23
28
40
59
67
66
57
42
17
6
3
7
15
36
43
44
35
22
-1
-15
-16
-5
4
23
33
39
23
8
-13
-23
-23
-11
3
21
29
29
15
8
-15
-22
-23
-13
0
19
29
28
17
3
-12
-22
-19
-13
5
24
29
29
21
2
-12
-20
-19
-8
10
25
30
31
22
4
-15
-23
-16
-9
6
26
34
28
16
3
-15
-21
-16
-8
13
26
36
26
18
2
-13
-17
-13
-9
15
30
33
29
19
-1
-14
-18
-19
-6
15
27
34
29
21
-2
-15
-21
-18
-9
20
29
35
24
15
-6
-17
-23
-16
-6
15
29
31
26
14
-6
-18
-24
-21
-8
15
26
30
25
14
-8
-21
-24
-12
-6
16
27
34
22
13
-10
-21
-25
-17
-5
15
27
28
21
9
-14
-24
-22
-17
-6
18
28
28
19
8
-15
-25
-25
-15
-5
18
25
31
18
8
-14
-26
-22
-13
-2
15
28
28
13
2
-15
-22
-23
-13
2
20
28
34
21
7
-12
-19
-16
-10
7
23
32
34
26
13
-6
-16
-13
-3
14
24
33
31
18
0
-16
-23
-20
-13
5
18
23
21
15
-5
-21
-30
-27
-16
4
20
25
20
15
-4
-23
-29
-22
-12
7
20
26
23
11
-9
-22
-31
-24
-11
8
19
22
14
1
-17
-33
-40
-36
-17
18
48
73
81
93
86
95
98
105
105
105
93
90
74
40
-5
-46
-67
-58
-41
-21
-7
-4
-3
-13
-31
-36
-30
-21
-9
17
28
33
23
21
-9
-17
-16
-10
2
25
37
39
30
16
-4
-14
-15
-6
5
27
38
40
30
21
0
-10
-10
-3
9
30
39
40
34
16
0
-4
-8
1
13
35
41
43
34
19
1
-9
-8
2
17
37
45
45
38
23
5
-4
-2
6
23
43
52
50
42
27
7
0
6
12
30
51
58
59
51
35
18
12
14
27
46
64
73
69
58
45
29
23
29
39
58
74
79
80
71
54
34
31
30
43
61
76
82
78
68
48
34
25
32
39
57
70
75
71
59
37
21
8
14
25
40
51
57
48
37
15
0
-8
-6
5
26
40
42
34
25
2
-14
-18
-13
1
22
30
36
28
16
-7
-17
-21
-15
-4
19
32
34
26
13
-6
-18
-21
-13
-2
17
27
35
23
14
-11
-19
-23
-13
-1
19
30
33
27
15
-8
-19
-22
-11
1
26
35
32
28
14
-8
-17
-19
-8
6
26
40
34
25
12
-3
-15
-17
-8
6
26
38
36
28
10
-5
-16
-17
-5
9
31
38
32
27
12
-8
-20
-16
-5
9
25
29
34
22
6
-10
-19
-16
-6
11
25
32
30
21
2
-13
-21
-18
-6
13
28
34
31
20
3
-13
-20
-19
-7
11
28
32
31
19
-7
-17
-22
-19
-7
11
28
34
28
17
-3
-16
-21
-20
-6
14
27
34
28
17
-2
-14
-21
-12
-9
17
28
33
29
18
-3
-16
-17
-15
-3
22
35
32
29
21
-1
-12
-20
-10
1
25
35
36
33
26
1
-11
-14
-6
3
26
38
41
32
17
-3
-12
-20
-13
-3
22
29
31
24
9
-13
-22
-25
-17
0
17
28
32
21
7
-14
-23
-25
-14
-1
17
27
28
20
6
-13
-28
-23
-16
1
15
25
24
14
-1
-24
-31
-33
-25
-8
8
30
40
47
45
45
52
77
103
123
135
128
101
76
57
18
-6
-34
-49
-41
-22
-10
-5
-18
-38
-52
-56
-46
-29
-6
15
25
24
12
-5
-18
-24
-24
-11
9
24
33
30
18
1
-16
-20
-15
-7
12
31
32
31
18
-2
-12
-20
-14
-5
17
32
36
30
21
2
-9
-19
-12
-2
24
32
36
34
27
4
-10
-13
-6
3
24
40
42
37
26
4
-5
-6
-3
9
30
44
46
40
34
10
-1
-5
5
15
38
51
57
49
39
17
6
2
15
27
52
60
65
59
48
28
22
16
26
40
60
74
78
69
59
38
30
26
34
46
67
77
79
68
59
39
29
27
34
46
68
71
74
58
43
25
10
10
15
27
47
53
50
38
23
0
-11
-13
-3
10
28
35
32
22
7
-15
-24
-21
-12
3
22
27
24
13
-4
-22
-29
-30
-19
-1
15
21
22
8
-5
-19
-29
-27
-17
-1
16
24
22
10
-7
-24
-28
-29
-15
4
23
30
20
14
-12
-24
-29
-27
-15
6
22
27
25
13
-8
-20
-26
-22
-13
11
26
27
23
12
-8
-23
-26
-21
-12
14
25
26
25
16
-14
-24
-30
-21
-9
13
22
29
21
11
-11
-23
-26
-22
-10
12
22
25
18
7
-16
-23
-27
-23
-11
14
19
23
15
5
-17
-28
-27
-24
-15
9
19
26
14
2
-17
-28
-31
-24
-12
8
18
20
11
1
-22
-32
-32
-25
-13
7
19
19
10
-2
-27
-33
-32
-25
-7
8
17
17
7
-6
-25
-33
-36
-26
-8
8
17
14
7
-8
-28
-36
-34
-23
-7
12
18
16
3
-13
-28
-30
-26
-22
-4
14
21
20
10
-5
-23
-28
-26
-16
2
25
28
26
16
-4
-21
-29
-24
-15
4
19
23
20
10
-11
-25
-35
-31
-21
1
12
16
11
1
-18
-31
-39
-32
-21
0
9
15
9
1
-20
-32
-35
-33
-24
0
13
17
10
1
-20
-37
-42
-35
-23
0
9
13
3
-9
-32
-45
-49
-43
-27
7
27
48
59
68
66
71
81
96
98
102
86
76
62
34
-7
-44
-70
-68
-51
-27
-18
-14
-18
-28
-46
-51
-48
-36
-20
2
14
20
14
-1
-20
-30
-33
-23
-6
12
20
22
14
4
-17
-27
-27
-16
-7
17
25
26
18
3
-15
-24
-25
-16
-1
19
30
29
18
7
-19
-22
-23
-13
1
20
27
29
20
5
-13
-21
-17
-7
11
26
40
33
25
8
-6
-16
-12
0
14
32
38
41
26
14
-1
-12
-6
3
26
40
46
46
35
18
4
-5
3
13
35
53
64
52
47
28
14
7
14
25
49
64
67
67
56
35
19
16
23
33
54
68
73
68
57
34
22
15
20
33
50
63
65
61
42
21
4
-1
3
9
33
40
40
34
20
-4
-17
-21
-16
-6
13
27
26
18
6
-17
-28
-33
-23
-16
9
18
19
16
-1
-20
-30
-35
-28
-13
7
14
22
11
0
-23
-32
-35
-25
-12
10
18
19
10
-3
-20
-35
-36
-26
-12
10
19
20
11
-5
-24
-32
-31
-22
-8
10
19
21
10
-4
-17
-29
-27
-19
-3
17
23
23
12
-2
-22
-24
-26
-17
0
17
22
25
8
-6
-22
-30
-27
-17
1
20
25
25
16
-3
-22
-29
-24
-14
1
14
23
21
6
-7
-25
-34
-31
-20
-4
14
20
19
7
-12
-25
-35
-29
-19
1
16
20
19
5
-12
-24
-33
-26
-19
3
19
19
15
5
-16
-28
-36
-31
-17
5
15
20
16
4
-19
-28
-32
-27
-16
5
13
21
14
5
-19
-31
-37
-26
-19
2
15
18
10
0
-21
-34
-35
-29
-16
3
17
16
9
-2
-24
-37
-37
-32
-21
5
13
14
6
-5
-24
-35
-37
-29
-15
5
16
17
9
-3
-27
-36
-33
-27
-13
8
15
17
6
-4
-26
-35
-32
-20
-9
10
20
18
12
0
-18
-29
-31
-20
-5
17
25
21
13
1
-21
-28
-25
-20
-3
18
22
23
10
-7
-24
-32
-33
-22
-7
13
19
11
3
-12
-32
-37
-35
-25
-5
10
15
14
4
-16
-30
-36
-33
-24
-2
12
19
14
4
-15
-31
-35
-32
-21
-1
16
21
12
2
-21
-39
-47
-44
-29
-11
9
26
26
30
32
36
47
76
99
124
131
120
88
68
37
7
-13
-32
-48
-30
-18
-12
-12
-20
-45
-53
-54
-44
-25
-2
15
21
15
4
-17
-29
-31
-21
-11
12
25
29
21
11
-13
-25
-26
-19
-6
14
25
30
22
6
-10
-19
-21
-17
-6
19
29
32
24
13
-9
-19
-22
-11
0
21
32
38
27
14
-8
-19
-22
-10
5
26
33
35
25
12
-9
-16
-15
-10
6
27
35
36
27
15
-6
-8
-11
-1
15
37
43
41
32
20
4
-6
-3
7
24
45
53
53
44
30
16
7
9
20
40
59
66
67
55
42
24
12
17
28
45
62
68
67
61
37
22
14
17
29
48
62
65
61
49
27
10
3
6
14
34
43
48
42
28
5
-11
-20
-14
-7
11
22
27
23
8
-11
-28
-31
-29
-18
2
16
19
14
3
-18
-30
-33
-28
-22
2
15
16
12
-1
-20
-35
-40
-34
-24
3
16
19
9
-2
-26
-34
-39
-27
-15
4
13
19
9
-2
-22
-34
-34
-27
-14
6
20
19
12
-1
-21
-32
-33
-23
-8
11
19
22
18
3
-20
-26
-32
-19
-7
18
26
21
18
-1
-16
-27
-27
-15
-4
21
23
26
12
3
-16
-25
-27
-16
-3
15
25
21
14
-2
-21
-29
-29
-24
-4
15
23
27
13
-4
-21
-29
-29
-17
-1
14
24
23
12
-7
-22
-30
-25
-16
6
16
22
20
10
-9
-26
-29
-25
-19
-2
15
23
19
8
-12
-29
-33
-30
-18
2
18
25
22
12
-13
-27
-33
-28
-15
5
22
26
20
7
-13
-27
-30
-28
-15
2
19
23
16
6
-13
-27
-31
-23
-16
9
20
22
16
8
-15
-27
-30
-24
-15
9
22
23
16
5
-12
-29
-31
-23
-14
10
21
25
17
1
-18
-30
-31
-22
-10
11
21
24
13
6
-17
-31
-31
-22
-9
13
23
22
15
5
-17
-28
-28
-16
-5
16
26
29
19
4
-19
-29
-27
-15
-1
17
26
28
20
7
-16
-27
-27
-17
-3
16
25
21
10
-4
-24
-31
-34
-24
-5
13
21
20
8
-6
-27
-31
-34
-24
-6
11
16
17
7
-11
-29
-33
-30
-22
-6
15
17
16
8
-14
-30
-40
-35
-30
-14
2
7
4
-7
-20
-24
-17
6
30
72
106
128
138
127
100
63
31
27
31
30
28
5
-19
-33
-50
-64
-63
-58
-46
-23
-7
5
5
-4
-19
-31
-34
-28
-15
6
19
23
15
8
-10
-29
-31
-27
-14
9
23
28
24
10
-13
-23
-26
-21
-12
16
29
30
22
8
-8
-21
-19
-16
-6
20
30
33
27
12
-11
-20
-14
-17
-2
22
31
33
25
13
-5
-17
-17
-6
3
23
34
39
30
15
-4
-13
-14
-4
9
31
43
42
34
22
3
-6
-8
2
22
39
48
50
42
29
8
2
3
16
33
52
61
60
50
38
22
14
14
26
45
61
68
68
58
43
24
16
20
28
47
60
69
69
55
37
19
9
13
23
41
50
57
52
37
18
0
-7
-8
2
17
32
40
32
19
-2
-20
-25
-20
-12
7
21
26
22
4
-12
-28
-30
-26
-18
1
17
23
17
2
-16
-29
-39
-31
-22
2
14
19
11
4
-17
-27
-37
-33
-18
4
17
18
12
1
-20
-30
-38
-28
-17
6
18
20
12
5
-18
-32
-32
-26
-15
10
22
22
14
3
-17
-29
-31
-26
-10
14
21
25
16
6
-20
-29
-29
-23
-9
14
24
23
13
1
-18
-30
-30
-22
-7
16
24
21
12
-1
-19
-29
-30
-19
-6
13
24
24
12
-4
-20
-30
-30
-21
-5
14
24
21
6
-7
-24
-30
-30
-20
-3
15
22
22
15
-8
-27
-33
-31
-17
-1
15
23
20
8
-9
-28
-35
-32
-17
-9
14
23
18
10
-13
-29
-32
-29
-23
1
15
26
16
6
-14
-27
-32
-28
-16
4
18
24
17
9
-13
-30
-35
-26
-16
4
16
27
19
11
-15
-26
-30
-24
-11
2
22
18
15
5
-17
-24
-32
-25
-15
11
25
29
18
2
-16
-28
-35
-29
-16
11
18
21
17
4
-15
-22
-26
-27
-18
6
20
25
17
6
-19
-29
-28
-21
-11
18
25
32
19
3
-20
-29
-33
-25
-4
16
17
25
17
4
-20
-25
-28
-20
-1
19
28
34
20
5
-14
-22
-21
-13
5
19
30
33
25
8
-11
-21
-17
-5
5
25
38
27
18
4
-15
-25
-24
-13
4
22
24
26
15
-3
-20
-27
-25
-19
-1
15
23
25
11
-2
-19
-27
-24
-12
4
23
26
23
12
-8
-23
-29
-29
-18
5
24
26
16
7
-11
-28
-38
-32
-14
12
43
66
80
90
89
92
101
107
110
108
99
88
74
51
0
-36
-64
-61
-46
-24
-4
2
-8
-14
-28
-39
-37
-21
-14
14
26
33
24
18
-2
-18
-20
-15
-1
17
30
38
31
19
-1
-11
-18
-9
3
25
36
41
31
23
-3
-15
-14
-6
6
26
38
44
34
22
1
-15
-16
-3
6
32
40
41
33
20
1
-9
-11
-4
10
34
43
48
37
24
4
-9
-7
4
24
37
49
48
41
28
8
4
1
11
28
45
58
57
49
34
13
6
11
18
36
58
67
67
56
44
26
22
22
34
52
69
78
77
69
48
32
25
27
37
57
81
85
83
73
51
35
31
33
41
58
70
76
72
57
33
21
8
13
22
34
50
55
48
35
19
-2
-9
-6
3
23
37
38
32
24
1
-13
-20
-18
-8
15
25
29
26
19
-5
-17
-21
-20
-4
15
29
31
23
12
-7
-22
-23
-15
-8
16
29
25
19
12
-10
-23
-27
-18
-5
18
25
31
25
12
-10
-18
-24
-16
-5
23
30
32
28
12
-9
-16
-20
-15
-4
22
32
33
24
8
-7
-19
-21
-8
2
23
32
34
24
13
-11
-19
-24
-11
5
25
33
34
23
14
-9
-17
-17
-10
4
25
31
30
19
7
-9
-21
-18
-9
3
26
33
30
17
3
-16
-24
-24
-11
1
21
28
28
18
2
-16
-17
-20
-12
6
24
30
30
17
-1
-16
-24
-18
-6
8
25
33
26
16
-3
-19
-21
-18
-9
15
30
32
24
16
-4
-16
-21
-21
-10
12
24
28
29
16
-3
-17
-21
-17
-9
14
30
29
26
16
-5
-21
-27
-20
-7
12
27
32
24
10
-10
-20
-21
-19
-6
14
25
30
22
10
-12
-21
-26
-20
-9
14
27
32
20
8
-13
-25
-28
-21
-9
14
27
32
15
8
-12
-24
-23
-19
-6
15
26
29
21
10
-13
-26
-24
-14
-5
19
27
31
25
9
-11
-24
-24
-18
-1
19
27
28
18
9
-14
-22
-21
-9
3
28
33
36
31
9
-10
-18
-17
-6
9
29
31
32
26
14
0
-13
-16
-5
12
31
36
33
22
6
-9
-17
-20
-9
11
28
31
29
17
0
-17
-22
-21
-10
10
23
27
29
13
-1
-16
-22
-23
-12
9
23
31
26
16
-7
-20
-26
-23
-11
11
26
29
22
10
-11
-30
-37
-31
-20
4
29
49
55
60
55
63
79
94
112
121
118
93
80
68
26
-5
-32
-51
-51
-22
-7
-3
-4
-19
-37
-46
-43
-32
-16
8
24
28
24
14
-5
-17
-20
-16
-6
21
32
32
25
16
-4
-16
-21
-11
4
26
37
41
30
15
-2
-14
-11
-2
9
26
37
41
33
14
-3
-12
-15
-5
6
29
37
37
30
19
-3
-10
-11
0
14
33
43
44
37
22
3
-6
-4
6
23
39
51
51
42
20
3
-6
0
16
26
45
58
56
46
25
13
7
8
21
38
60
65
62
54
39
25
15
16
31
51
66
72
76
63
45
32
28
32
40
61
77
82
77
67
46
33
24
29
38
61
76
80
71
60
38
24
12
15
25
46
55
58
52
36
16
-1
-6
-3
4
26
41
43
35
28
1
-19
-21
-16
-2
18
33
26
25
14
-4
-23
-23
-16
-4
16
25
31
24
9
-12
-23
-27
-20
-8
12
28
28
18
11
-16
-28
-26
-19
-8
16
31
34
25
15
-12
-22
-26
-12
-6
16
29
29
21
8
-10
-21
-22
-13
0
23
33
34
23
10
-11
-20
-21
-10
5
24
31
34
23
9
-13
-21
-23
-12
7
21
32
30
20
4
-10
-18
-19
-5
9
23
35
34
20
3
-14
-21
-20
-11
6
25
28
30
21
4
-15
-25
-21
-12
8
24
26
31
15
-3
-20
-23
-25
-12
7
23
28
28
19
-3
-20
-25
-23
-11
9
26
32
22
15
-2
-22
-27
-23
-12
7
21
29
27
16
-7
-18
-22
-19
-7
15
34
38
29
19
-3
-16
-21
-13
-5
16
31
32
29
19
-4
-16
-17
-15
-4
19
34
35
25
19
-3
-15
-21
-12
3
19
35
40
32
21
-7
-18
-17
-13
-2
22
31
34
24
19
-7
-15
-18
-7
1
25
36
39
28
16
-5
-17
-19
-5
2
22
33
35
27
13
-9
-17
-16
-7
8
26
33
35
24
8
-8
-14
-14
-3
12
33
37
41
31
15
-5
-11
-14
-1
15
36
47
45
33
22
1
-11
-11
0
15
32
41
38
26
12
-8
-15
-14
-6
12
31
35
31
20
-1
-13
-21
-13
-5
11
27
32
36
20
0
-14
-21
-17
-8
14
26
29
29
15
0
-18
-20
-18
-10
8
23
27
21
14
-14
-24
-23
-5
14
55
86
111
118
126
115
104
86
77
63
70
75
58
32
-4
-43
-60
-64
-50
-35
-12
5
8
8
2
-17
-27
-25
-18
-4
21
33
34
26
18
-3
-17
-19
-7
4
24
34
40
29
18
-5
-17
-15
-4
10
31
39
40
34
21
-1
-17
-17
-4
9
29
38
46
36
22
2
-9
-8
-3
15
40
41
46
38
29
4
-5
-2
9
25
38
46
47
39
25
6
2
6
9
29
53
55
57
51
34
13
6
8
19
37
54
66
61
52
39
25
13
20
29
50
71
74
74
66
48
33
28
33
51
61
75
87
85
70
53
38
31
32
42
65
82
88
82
74
51
36
27
32
41
63
78
75
72
60
37
21
11
13
22
41
55
61
47
36
17
-2
-8
-6
10
27
42
43
32
20
0
-13
-17
-12
0
19
33
35
32
15
-5
-16
-19
-12
-3
18
36
36
25
14
-10
-22
-22
-15
-6
18
29
34
26
