-43
-43
-43
-43
-48
-41
-49
-58
-53
-50
-39
-38
-42
-42
-41
-41
-47
-46
-47
-42
-43
-46
-51
-53
-50
-44
-46
-41
-41
-46
-50
-39
-53
-47
-50
-52
-38
-44
-45
-50
-44
-42
-40
-43
-37
-44
-46
-41
-42
-42
-45
-45
-46
-47
-43
-43
-38
-47
-37
-42
-40
-45
-45
-40
-39
-34
-42
-50
-41
-41
-40
-47
-48
-46
-39
-46
-41
-40
-38
-42
-39
-42
-42
-34
-39
-50
-48
-42
-41
-49
-43
-42
-45
-40
-41
-45
-44
-41
-41
-46
-46
-39
-50
-49
-47
-44
-42
-46
-47
-46
-48
-53
-50
-33
-41
-51
-46
-40
-41
-42
-48
-47
-45
-51
-45
-52
-50
-50
-48
-45
-46
-43
-37
-42
-45
-48
-59
-54
-51
-48
-46
-37
-45
-53
-54
-60
-54
-49
-36
-45
-48
-43
-47
-51
-50
-47
-54
-59
-50
-46
-48
-46
-46
-46
-42
-43
-43
-44
-48
-49
-47
-51
-48
-47
-48
-50
-52
-42
-51
-45
-45
-50
-50
-50
-41
-50
-52
-48
-46
-47
-49
-49
-43
-39
-46
-46
-29
-31
-44
-34
-35
-39
-31
-28
-34
-40
-38
-30
-31
-31
-35
-32
-28
-21
-21
-23
-25
-27
-19
-21
-25
-33
-36
-47
-55
-47
-42
-43
-49
-48
-52
-46
-43
-44
-50
-50
-48
-50
-56
-59
-53
-51
-51
-45
-43
-50
-50
-53
-51
-59
-56
-53
-56
-57
-51
-43
-42
-46
-51
-52
-55
-66
-68
-58
-62
-60
-52
-43
-32
-20
1
26
56
78
104
133
157
170
191
190
160
104
55
-10
-46
-60
-71
-76
-71
-59
-62
-64
-57
-53
-55
-60
-53
-54
-49
-44
-51
-50
-51
-50
-59
-58
-53
-59
-47
-54
-55
-54
-56
-59
-62
-55
-49
-68
-65
-57
-45
-53
-50
-45
-50
-57
-55
-57
-56
-50
-53
-49
-53
-48
-54
-58
-56
-58
-58
-51
-46
-48
-49
-42
-50
-51
-50
-51
-55
-40
-45
-43
-47
-49
-48
-54
-43
-44
-47
-47
-45
-41
-39
-41
-44
-54
-47
-42
-38
-37
-34
-39
-44
-36
-33
-30
-32
-32
-26
-24
-22
-14
-6
-27
-20
-18
-16
-15
-12
-7
-14
-4
7
1
0
-7
0
4
1
7
7
14
3
1
-3
3
4
0
4
2
0
-1
-2
-10
-14
-13
-16
-17
-23
-28
-31
-27
-16
-29
-37
-43
-36
-36
-44
-45
-46
-52
-43
-49
-45
-49
-51
-50
-50
-54
-58
-54
-55
-51
-52
-53
-53
-62
-57
-54
-63
-58
-56
-56
-59
-55
-52
-57
-53
-46
-61
-64
-55
-57
-58
-57
-58
-64
-62
-70
-67
-64
-53
-54
-51
-56
-57
-58
-60
-59
-55
-61
-59
-62
-64
-63
-64
-63
-53
-56
-67
-63
-60
-59
-58
-55
-60
-64
-66
-61
-57
-62
-65
-57
-58
-49
-60
-65
-60
-62
-67
-58
-52
-59
-57
-58
-62
-63
-54
-70
-61
-62
-60
-63
-63
-51
-58
-60
-57
-58
-62
-63
-57
-52
-53
-63
-64
-62
-64
-64
-57
-56
-53
-60
-61
-64
-62
-55
-60
-67
-66
-65
-58
-60
-59
-62
-64
-61
-68
-70
-58
-60
-63
-63
-65
-60
-62
-67
-63
-54
-53
-58
-65
-66
-63
-62
-63
-61
-55
-73
-72
-62
-62
-65
-65
-69
-64
-62
-64
-62
-61
-60
-66
-60
-62
-65
-65
-62
-66
-63
-64
-66
-75
-70
-67
-61
-60
-64
-64
-63
-63
-61
-63
-57
-63
-65
-65
-61
-72
-71
-64
-62
-65
-67
-62
-59
-63
-69
-67
-59
-64
-61
-58
-61
-71
-66
-60
-59
-65
-78
-72
-73
-70
-70
-68
-66
-62
-59
-57
-62
-64
-63
-65
-68
-62
-68
-67
-59
-58
-64
-63
-63
-62
-67
-60
-70
-69
-60
-63
-56
-65
-54
-53
-53
-47
-49
-52
-51
-47
-46
-45
-47
-48
-45
-40
-48
-46
-47
-50
-45
-38
-34
-43
-42
-41
-38
-49
-61
-62
-62
-64
-67
-68
-62
-69
-66
-58
-64
-72
-59
-57
-66
-72
-64
-68
-78
-71
-65
-65
-59
-61
-69
-72
-72
-68
-71
-69
-68
-67
-65
-67
-72
-76
-72
-71
-76
-80
-73
-73
-72
-66
-61
-45
-20
-4
20
46
69
103
125
144
164
190
163
128
82
24
-45
-69
-75
-92
-94
-85
-87
-79
-76
-65
-65
-66
-66
-64
-69
-67
-68
-68
-70
-72
-68
-58
-68
-68
-65
-73
-78
-77
-64
-64
-69
-62
-56
-63
-64
-72
-77
-75
-70
-56
-63
-66
-68
-66
-67
-67
-63
-74
-69
-66
-61
-62
-54
-53
-54
-68
-71
-73
-73
-61
-56
-57
-56
-64
-68
-66
-59
-69
-68
-62
-64
-61
-56
-62
-57
-57
-55
-47
-55
-58
-62
-60
-53
-42
-47
-50
-47
-46
-44
-41
-40
-41
-41
-47
-52
-40
-27
-34
-38
-34
-29
-32
-25
-23
-18
-16
-18
-27
-27
-13
-14
-12
-11
-12
-10
-2
2
-14
-8
-16
-12
-8
-13
-10
-14
-14
-11
-11
-16
-16
-19
-15
-18
-28
-28
-31
-35
-39
-40
-43
-47
-45
-41
-52
-52
-53
-56
-59
-61
-60
-58
-58
-56
-63
-63
-66
-58
-66
-70
-69
-65
-60
-65
-69
-71
-73
-70
-66
-64
-70
-69
-66
-74
-71
-61
-63
-69
-67
-66
-63
-64
-71
-68
-70
-74
-70
-70
-69
-68
-71
-73
-67
-67
-72
-74
-66
-66
-70
-73
-76
-77
-61
-74
-70
-65
-69
-73
-65
-71
-70
-75
-70
-69
-74
-74
-72
-73
-72
-76
-76
-77
-66
-66
-67
-73
-68
-68
-67
-64
-66
-61
-67
-72
-67
-68
-68
-71
-76
-67
-72
-65
-70
-68
-68
-64
-68
-61
-68
-68
-71
-66
-65
-70
-74
-72
-74
-63
-66
-70
-67
-66
-67
-72
-68
-63
-70
-71
-68
-73
-73
-61
-66
-72
-79
-79
-74
-66
-64
-69
-67
-69
-67
-63
-70
-79
-74
-69
-65
-68
-72
-74
-70
-72
-68
-70
-76
-79
-71
-76
-72
-68
-71
-70
-66
-73
-70
-70
-68
-68
-75
-75
-72
-72
-70
-76
-69
-73
-69
-72
-70
-71
-71
-70
-72
-71
-68
-65
-66
-72
-68
-71
-73
-71
-72
-78
-80
-71
-69
-73
-68
-72
-62
-58
-73
-72
-72
-74
-70
-72
-62
-68
-68
-68
-63
-65
-67
-69
-68
-73
-67
-68
-70
-77
-67
-64
-68
-64
-64
-68
-70
-74
-76
-77
-60
-59
-68
-72
-68
-65
-69
-69
-73
-67
-58
-65
-66
-68
-63
-58
-57
-61
-63
-65
-58
-58
-56
-48
-42
-46
-43
-44
-53
-54
-47
-46
-45
-46
-39
-36
-37
-40
-43
-47
-48
-50
-54
-49
-53
-59
-65
-62
-55
-65
-72
-71
-64
-61
-59
-66
-68
-68
-61
-56
-69
-68
-67
-59
-70
-75
-71
-66
-64
-66
-67
-67
-66
-59
-68
-71
-60
-55
-64
-67
-68
-76
-81
-82
-77
-77
-74
-65
-63
-60
-45
-25
-2
28
53
75
108
133
147
174
177
145
95
58
-6
-60
-69
-80
-91
-93
-89
-85
-78
-71
-64
-56
-53
-61
-64
-65
-65
-67
-66
-58
-67
-71
-67
-72
-73
-59
-56
-62
-66
-65
-65
-61
-58
-59
-61
-62
-61
-70
-74
-72
-65
-56
-61
-62
-62
-56
-55
-73
-63
-54
-62
-61
-57
-50
-64
-59
-57
-57
-58
-49
-55
-53
-55
-62
-63
-59
-50
-49
-54
-52
-46
-48
-54
-58
-56
-52
-49
-52
-46
-42
-46
-44
-45
-43
-43
-42
-47
-54
-44
-39
-42
-26
-27
-35
-40
-33
-23
-22
-17
-20
-20
-22
-22
-13
-10
-3
-15
-13
-5
-4
2
1
1
-2
-2
-2
3
-1
2
7
10
6
4
-3
3
4
-2
3
1
-6
-11
-8
-9
-18
-13
-12
-23
-25
-24
-30
-30
-22
-29
-36
-38
-35
-36
-44
-47
-43
-43
-37
-46
-50
-53
-52
-57
-50
-46
-55
-58
-50
-51
-50
-55
-56
-49
-60
-57
-50
-56
-58
-60
-57
-54
-57
-58
-56
-54
-57
-58
-55
-50
-55
-58
-54
-58
-55
-59
-60
-61
-57
-49
-56
-61
-57
-56
-59
-55
-48
-54
-54
-51
-53
-54
-56
-59
-62
-55
-60
-57
-65
-55
-43
-52
-57
-58
-52
-44
-47
-64
-56
-63
-65
-51
-49
-57
-57
-55
-55
-51
-55
-50
-52
-54
-57
-58
-54
-46
-50
-53
-54
-57
-55
-54
-55
-42
-50
-51
-53
-49
-49
-55
-58
-59
-52
-53
-43
-40
-46
-45
-47
-54
-54
-49
-53
-49
-54
-56
-51
-47
-56
-48
-53
-57
-54
-59
-59
-63
-58
-50
-49
-51
-48
-50
-52
-57
-49
-49
-51
-53
-55
-57
-46
-51
-60
-49
-52
-51
-47
-48
-44
-44
-46
-42
-47
-52
-51
-48
-47
-46
-49
-48
-51
-50
-56
-53
-54
-54
-42
-50
-46
-46
-57
-53
-52
-49
-59
-55
-59
-51
-42
-45
-40
-46
-47
-45
-41
-55
-53
-50
-52
-53
-50
-46
-48
-54
-56
-54
-49
-38
-46
-53
-55
-54
-50
-45
-47
-51
-47
-46
-47
-50
-50
-55
-58
-56
-45
-49
-57
-55
-54
-53
-45
-48
-53
-47
-46
-49
-47
-43
-49
-50
-42
-36
-39
-38
-42
-41
-34
-34
-45
-36
-33
-31
-32
-25
-24
-30
-30
-28
-27
-22
-20
-23
-30
-24
-26
-32
-35
-39
-35
-42
-43
-45
-45
-39
-47
-39
-36
-43
-47
-52
-52
-55
-45
-45
-51
-50
-46
-44
-45
-53
-46
-46
-50
-50
-53
-43
-43
-46
-49
-54
-48
-48
-52
-46
-49
-52
-53
-58
-60
-71
-58
-52
-55
-51
-40
-27
-1
15
34
59
83
101
130
151
166
172
152
109
61
12
-47
-67
-67
-78
-81
-82
-72
-67
-63
-55
-49
-51
-52
-50
-50
-50
-50
-49
-50
-48
-54
-52
-51
-56
-51
-44
-53
-51
-50
-50
-52
-46
-52
-48
-48
-46
-42
-46
-48
-50
-49
-47
-49
-48
-51
-46
-44
-52
-48
-47
-47
-42
-49
-48
-50
-41
-48
-49
-53
-50
-45
-42
-44
-46
-47
-38
-38
-43
-44
-43
-47
-45
-37
-39
-34
-33
-35
-39
-41
-38
-41
-40
-30
-34
-33
-33
-40
-27
-24
-20
-23
-25
-24
-24
-24
-19
-18
-18
-18
-14
-5
-10
-7
-9
-8
-3
-1
-2
3
-6
-1
0
11
16
13
12
11
7
8
12
4
9
12
13
12
8
4
-2
-7
-2
-4
-5
-7
-7
-11
-13
-22
-18
-27
-23
-33
-25
-24
-27
-36
-35
-39
-43
-41
-38
-52
-54
-44
-45
-51
-45
-47
-51
-47
-49
-46
-47
-51
-56
-57
-51
-50
-51
-54
-57
-62
-57
-55
-56
-45
-49
-46
-52
-49
-50
-54
-55
-60
-66
-54
-46
-55
-58
-50
-55
-57
-56
-58
-63
-48
-51
-51
-53
-61
-54
-58
-56
-57
-53
-50
-51
-62
-56
-50
-54
-59
-56
-57
-59
-45
-58
-59
-51
-54
-55
-53
-49
-55
-56
-52
-51
-51
-50
-55
-57
-56
-50
-49
-47
-42
-51
-58
-55
-52
-53
-54
-53
-54
-50
-48
-53
-51
-49
-51
-52
-55
-54
-48
-59
-56
-58
-59
-55
-56
-61
-62
-56
-49
-54
-59
-50
-46
-54
-59
-57
-60
-60
-55
-54
-55
-59
-60
-59
-45
-52
-54
-59
-57
-53
-44
-49
-48
-58
-60
-61
-56
-57
-56
-57
-57
-54
-55
-56
-56
-60
-57
-57
-62
-59
-52
-55
-59
-64
-60
-64
-66
-55
-56
-52
-55
-57
-58
-63
-58
-62
-62
-46
-42
-56
-53
-59
-53
-55
-58
-62
-64
-55
-56
-60
-58
-58
-58
-56
-58
-56
-53
-55
-57
-58
-61
-60
-56
-57
-61
-67
-66
-62
-51
-61
-52
-53
-44
-41
-53
-60
-60
-59
-63
-61
-61
-68
-58
-58
-54
-59
-61
-55
-58
-51
-46
-42
-53
-57
-54
-58
-53
-57
-59
-57
-54
-52
-40
-42
-52
-48
-46
-48
-45
-42
-35
-34
-34
-41
-42
-33
-33
-36
-30
-33
-37
-42
-41
-44
-55
-58
-55
-61
-54
-53
-55
-58
-51
-57
-62
-66
-60
-53
-54
-58
-55
-57
-61
-62
-57
-67
-71
-66
-62
-60
-64
-78
-72
-59
-55
-53
-58
-64
-66
-59
-58
-67
-73
-75
-76
-74
-65
-61
-55
-38
-24
-13
3
31
52
84
118
134
150
193
191
157
113
67
2
-50
-65
-79
-92
-91
-84
-80
-72
-67
-62
-54
-57
-62
-71
-67
-61
-65
-59
-55
-60
-61
-70
-69
-68
-62
-67
-70
-69
-63
-68
-57
-55
-60
-61
-63
-65
-67
-62
-61
-61
-66
-64
-63
-59
-63
-58
-58
-59
-55
-64
-63
-64
-58
-62
-59
-56
-56
-62
-61
-61
-56
-62
-62
-59
-58
-67
-63
-61
-60
-55
-46
-55
-58
-56
-52
-47
-49
-57
-53
-50
-49
-43
-47
-47
-51
-55
-53
-47
-50
-42
-36
-32
-33
-23
-33
-35
-40
-32
-27
-33
-26
-21
-22
-18
-16
-20
-15
-15
-15
-6
-5
-8
-10
-7
-6
-7
-1
-1
-1
-5
-6
-2
10
0
-35
-40
-50
-49
-59
-50
-44
-52
-53
-50
-50
-54
-58
-57
-64
-62
-65
-66
-52
-55
-57
-60
-63
-59
-51
-63
-63
-69
-65
-60
-61
-60
-59
-62
-61
-63
-62
-66
-74
-68
-58
-64
-57
-57
-67
-67
-63
-61
-58
-64
-66
-72
-69
-73
-68
-63
-65
-66
-54
-60
-68
-69
-69
-71
-66
-67
-66
-66
-68
-63
-63
-65
-65
-69
-71
-75
-72
-69
-71
-58
-60
-60
-70
-71
-63
-53
-64
-65
-64
-66
-61
-67
-67
-67
-71
-69
-69
-69
-74
-69
-66
-56
-59
-64
-65
-64
-62
-65
-69
-60
-64
-68
-64
-57
-63
-66
-63
-54
-68
-67
-69
-65
-60
-68
-63
-65
-69
-65
-65
-68
-67
-66
-67
-64
-64
-67
-62
-71
-72
-67
-67
-63
-66
-71
-73
-71
-70
-71
-76
-74
-62
-61
-68
-60
-64
-63
-68
-73
-68
-63
-67
-69
-63
-73
-68
-68
-66
-69
-70
-64
-55
-68
-76
-69
-78
-77
-65
-67
-68
-71
-65
-68
-65
-59
-65
-68
-71
-77
-70
-69
-71
-68
-64
-68
-70
-67
-60
-66
-64
-67
-68
-70
-66
-64
-72
-72
-70
-69
-66
-64
-68
-71
-62
-67
-69
-71
-72
-70
-69
-66
-68
-66
-65
-68
-69
-73
-72
-72
-68
-49
-63
-79
-65
-66
-72
-72
-78
-70
-65
-62
-66
-71
-62
-70
-68
-64
-63
-65
-64
-65
-63
-57
-61
-62
-63
-60
-57
-55
-54
-54
-46
-46
-51
-53
-54
-53
-54
-43
-48
-54
-55
-45
-39
-40
-42
-43
-48
-48
-50
-54
-52
-56
-57
-58
-64
-64
-72
-76
-72
-64
-68
-73
-66
-67
-67
-64
-66
-74
-71
-65
-71
-67
-67
-75
-75
-71
-70
-74
-75
-74
-74
-69
-69
-68
-75
-75
-78
-75
-80
-81
-73
-70
-64
-57
-44
-33
-15
21
45
72
99
125
146
164
189
171
135
77
30
-38
-71
-75
-93
-104
-97
-94
-83
-70
-61
-67
-67
-66
-69
-69
-70
-72
-69
-72
-78
-75
-70
-71
-77
-82
-76
-73
-72
-60
-65
-68
-67
-62
-63
-64
-61
-65
-68
-63
-67
-69
-63
-59
-56
-62
-65
-70
-72
-65
-59
-62
-58
-58
-64
-57
-60
-57
-56
-66
-60
-57
-60
-61
-58
-60
-57
-62
-55
-53
-62
-55
-45
-51
-54
-57
-51
-54
-52
-51
-49
-47
-45
-47
-40
-37
-38
-39
-42
-43
-40
-39
-30
-31
-36
-30
-29
-27
-29
-24
-23
-21
-25
-18
-12
-5
-11
-16
-14
-17
-9
-4
5
7
-3
-4
-2
-6
0
6
4
1
1
-4
3
4
0
-3
1
-3
-10
-12
-11
-10
-22
-26
-25
-19
-14
-27
-23
-33
-37
-37
-38
-39
-47
-51
-44
-45
-54
-57
-50
-53
-56
-61
-58
-62
-63
-46
-50
-50
-52
-64
-65
-55
-48
-49
-56
-60
-73
-58
-48
-56
-62
-63
-68
-66
-55
-60
-56
-64
-66
-69
-60
-67
-60
-62
-57
-56
-59
-65
-49
-60
-66
-59
-64
-60
-65
-60
-64
-65
-66
-68
-67
-63
-66
-69
-67
-56
-55
-57
-67
-73
-61
-62
-65
-63
-62
-65
-61
-58
-61
-65
-66
-60
-63
-70
-49
-52
-58
-57
-57
-63
-62
-60
-57
-60
-57
-60
-54
-54
-59
-64
-59
-63
-62
-63
-56
-59
-60
-59
-55
-61
-62
-55
-62
-58
-61
-63
-62
-58
-57
-60
-59
-57
-61
-60
-58
-59
-68
-59
-57
-61
-65
-45
-55
-59
-61
-62
-62
-59
-57
-65
-61
-56
-60
-66
-60
-57
-57
-61
-61
-68
-65
-73
-62
-51
-55
-57
-61
-56
-60
-60
-62
-60
-58
-61
-55
-69
-67
-60
-59
-66
-54
-62
-64
-55
-59
-71
-67
-65
-64
-57
-60
-61
-57
-56
-56
-68
-69
-61
-58
-53
-53
-59
-56
-58
-68
-65
-58
-56
-56
-56
-54
-59
-64
-59
-56
-63
-62
-69
-73
-65
-64
-58
-60
-53
-59
-57
-58
-57
-57
-63
-64
-63
-62
-55
-59
-61
-53
-62
-63
-67
-60
-68
-57
-55
-59
-60
-61
-56
-61
-57
-56
-55
-60
-63
-60
-54
-51
-55
-54
-56
-57
-51
-48
-53
-47
-42
-45
-48
-48
-51
-36
-35
-37
-37
-35
-34
-38
-32
-32
-38
-34
-33
-37
-40
-44
-42
-34
-40
-41
-45
-45
-41
-44
-56
-62
-61
-62
-53
-58
-59
-59
-68
-71
-52
-51
-56
-49
-52
-54
-50
-63
-60
-57
-57
-59
-64
-55
-51
-54
-53
-62
-62
-59
-51
-55
-58
-57
-69
-71
-70
-64
-58
-51
-40
-29
-8
18
38
61
87
114
151
166
179
165
132
81
52
-3
-47
-61
-79
-84
-87
-86
-75
-67
-56
-55
-55
-61
-60
-49
-55
-60
-54
-62
-61
-59
-50
-42
-48
-51
-60
-59
-56
-55
-59
-57
-55
-41
-42
-45
-55
-55
-51
-47
-54
-53
-51
-52
-50
-47
-54
-47
-41
-35
-48
-53
-53
-56
-48
-47
-39
-44
-45
-47
-51
-47
-51
-58
-45
-37
-41
-42
-42
-40
-41
-39
-38
-43
-43
-44
-43
-46
-41
-42
-42
-44
-46
-36
-34
-32
-32
-37
-29
-31
-34
-24
-17
-27
-19
-19
-29
-26
-19
-18
-21
-4
2
-9
-13
-3
2
-3
3
12
1
2
6
7
11
13
6
16
11
14
12
10
6
5
10
6
7
10
14
8
0
3
2
1
-8
-6
-11
-13
-16
-22
-21
-20
-23
-30
-30
-27
-30
-30
-36
-39
-27
-33
-40
-46
-45
-41
-43
-46
-44
-49
-41
-41
-43
-40
-49
-50
-52
-42
-48
-45
-50
-55
-55
-60
-49
-52
-49
-44
-44
-45
-52
-55
-50
-49
-46
-49
-48
-50
-53
-53
-58
-39
-49
-52
-53
-47
-41
-41
-50
-48
-42
-37
-34
-44
-40
-46
-48
-38
-36
-38
-39
-42
-44
-42
-40
-37
-43
-36
-37
-46
-44
-46
-42
-39
-43
-37
-29
-23
-33
-35
-37
-34
-32
-49
-39
-39
-36
-32
-38
-38
-37
-42
-40
-40
-29
-32
-32
-37
-37
-39
-33
-30
-37
-42
-41
-36
-33
-35
-39
-38
-37
-35
-43
-43
-41
-43
-43
-48
-43
-33
-36
-28
-38
-38
-39
-38
-40
-40
-36
-40
-40
-39
-37
-36
-30
-47
-40
-34
-30
-45
-46
-48
-40
-34
-39
-34
-37
-40
-39
-39
-43
-38
-38
-39
-45
-42
-39
-40
-38
-43
-43
-37
-34
-33
-39
-47
-47
-43
-41
-34
-35
-41
-36
-40
-40
-35
-39
-41
-40
-39
-38
-35
-37
-34
-41
-34
-34
-33
-39
-47
-38
-37
-35
-28
-45
-44
-34
-32
-38
-38
-38
-41
-37
-36
-37
-39
-38
-37
-44
-41
-42
-35
-35
-34
-32
-26
-33
-37
-39
-35
-37
-39
-42
-32
-36
-40
-37
-26
-36
-39
-39
-28
-31
-26
-27
-29
-31
-32
-28
-15
-20
-27
-20
-29
-32
-29
-17
-13
-18
-13
-12
-10
-11
-2
-22
-15
-11
-14
-22
-28
-25
-32
-30
-34
-34
-38
-35
-26
-36
-33
-36
-42
-29
-33
-35
-35
-23
-32
-38
-38
-40
-43
-41
-38
-40
-41
-37
-35
-33
-31
-38
-40
-38
-26
-30
-36
-33
-38
-46
-48
-39
-46
-44
-39
-47
-29
-2
-14
8
41
63
90
112
135
158
176
181
163
120
85
47
-18
-46
-58
-70
-70
-71
-67
-58
-46
-39
-36
-42
-33
-36
-35
-31
-33
-35
-42
-36
-36
-33
-28
-29
-31
-34
-43
-42
-33
-33
-36
-34
-34
-36
-25
-23
-35
-42
-28
-31
-31
-25
-30
-21
-31
-33
-36
-33
-27
-31
-39
-38
-35
-28
-23
-28
-34
-36
-29
-36
-23
-22
-26
-22
-22
-30
-29
-30
-26
-34
-31
-32
-31
-35
-16
-9
-16
-16
-17
-23
-21
-21
-18
-23
-17
-14
-19
-17
-22
-16
-7
-11
-3
-4
-3
3
-2
-1
1
4
4
6
8
9
12
4
15
24
6
4
21
23
30
35
36
30
27
33
27
30
28
27
28
25
30
26
24
23
15
15
13
16
8
13
11
7
-5
-5
-7
-8
-7
-16
-21
-17
-19
-16
-16
-18
-18
-19
-25
-24
-29
-33
-38
-44
-33
-28
-25
-28
-34
-35
-34
-32
-33
-35
-33
-32
-34
-31
-30
-35
-38
-36
-37
-43
-37
-45
-50
-42
-29
-31
-35
-34
-35
-40
-39
-43
-37
-38
-42
-40
-47
-37
-25
-31
-32
-36
-41
-40
-34
-42
-40
-35
-36
-38
-34
-37
-34
-39
-42
-32
-34
-40
-36
-42
-36
-35
-34
-28
-34
-37
-31
-30
-32
-34
-39
-40
-40
-37
-33
-33
-32
-30
-37
-34
-31
-47
-45
-36
-23
-30
-33
-28
-25
-31
-30
-30
-29
-27
-34
-41
-39
-24
-26
-35
-35
-28
-32
-33
-35
-36
-37
-36
-36
-40
-35
-32
-35
-32
-29
-36
-48
-36
-35
-40
-38
-39
-38
-28
-34
-32
-39
-39
-40
-43
-40
-33
-28
-22
-34
-38
-31
-36
-37
-35
-33
-33
-33
-29
-27
-27
-32
-38
-44
-41
-43
-42
-43
-41
-43
-39
-34
-31
-31
-37
-37
-43
-46
-35
-38
-36
-34
-37
-33
-38
-35
-31
-24
-35
-37
-35
-37
-35
-34
-40
-44
-44
-36
-32
-40
-42
-36
-34
-38
-43
-42
-32
-32
-30
-32
-34
-31
-33
-34
-38
-33
-38
-39
-35
-44
-40
-35
-41
-30
-33
-37
-45
-42
-43
-25
-29
-36
-30
-25
-28
-24
-30
-26
-23
-25
-29
-18
-17
-21
-18
-23
-27
-23
-18
-16
-12
-13
-11
-13
-17
-12
-19
-27
-19
-19
-14
-22
-33
-34
-24
-28
-30
-34
-43
-41
-38
-36
-32
-35
-43
-48
-39
-26
-28
-34
-36
-39
-41
-45
-38
-38
-38
-29
-37
-39
-41
-47
-40
-44
-45
-40
-40
-35
-33
-33
-53
-56
-52
-46
-29
-30
-18
-7
7
33
62
86
110
139
162
182
202
204
174
125
79
24
-20
-28
-47
-69
-70
-56
-49
-44
-40
-43
-43
-38
-31
-38
-34
-31
-43
-44
-37
-40
-38
-38
-41
-47
-42
-36
-36
-34
-36
-42
-46
-35
-44
-39
-39
-31
-21
-38
-42
-39
-40
-34
-36
-41
-47
-39
-31
-35
-29
-25
-37
-38
-32
-34
-35
-36
-33
-27
-21
-38
-33
-39
-33
-35
-35
-35
-29
-28
-28
-30
-33
-31
-33
-37
-35
-25
-22
-29
-22
-19
-19
-20
-19
-27
-28
-23
-21
-23
-21
-22
-13
-12
-10
-13
-10
-5
2
-5
-2
-3
-3
-2
-5
-11
0
0
11
18
23
18
17
27
13
23
25
27
18
24
25
25
25
22
24
19
24
32
26
25
19
12
13
6
2
8
5
-3
0
2
-9
-16
-18
-15
-5
-24
-18
-20
-26
-30
-35
-33
-24
-19
-28
-31
-31
-34
-34
-31
-30
-38
-41
-36
-42
-45
-41
-32
-34
-32
-31
-35
-32
-30
-32
-38
-40
-46
-48
-36
-33
-33
-37
-36
-40
-44
-39
-35
-37
-40
-39
-44
-39
-35
-39
-46
-40
-33
-31
-36
-40
-38
-42
-37
-46
-51
-47
-31
-27
-36
-42
-46
-47
-43
-46
-32
-32
-37
-40
-41
-41
-49
-43
-35
-37
-40
-39
-44
-43
-36
-39
-42
-45
-37
-35
-39
-33
-36
-34
-37
-33
-36
-42
-39
-38
-44
-38
-41
-31
-34
-32
-36
-28
-32
-39
-34
-33
-43
-43
-37
-34
-36
-32
-47
-44
-36
-33
-35
-42
-40
-40
-39
-44
-44
-40
-34
-32
-37
-44
-37
-34
-35
-42
-44
-39
-35
-40
-34
-35
-41
-40
-38
-37
-39
-38
-39
-44
-44
-35
-37
-40
-41
-36
-39
-46
-41
-32
-38
-39
-37
-35
-36
-52
-49
-37
-40
-48
-44
-30
-32
-32
-36
-38
-42
-51
-44
-37
-35
-35
-38
-43
-38
-37
-49
-48
-45
-37
-42
-35
-38
-35
-39
-50
-52
-40
-41
-40
-34
-35
-38
-44
-39
-36
-35
-33
-37
-41
-45
-47
-45
-43
-44
-41
-49
-49
-25
-30
-36
-36
-36
-34
-30
-36
-33
-55
-48
-43
-44
-37
-41
-38
-34
-32
-32
-32
-33
-38
-42
-39
-37
-34
-33
-31
-32
-29
-34
-31
-29
-17
-17
-19
-20
-22
-22
-19
-18
-20
-19
-21
-20
-18
-8
-15
-17
-32
-30
-27
-22
-32
-27
-30
-37
-28
-34
-35
-40
-33
-31
-35
-43
-49
-41
-43
-42
-43
-43
-34
-45
-44
-42
-42
-41
-44
-35
-38
-37
-43
-45
-50
-50
-40
-30
-32
-43
-57
-48
-49
-47
-50
-58
-44
-28
-22
-24
-5
9
46
74
91
116
149
173
198
217
212
172
117
76
14
-44
-50
-60
-65
-62
-60
-49
-41
-38
-41
-39
-36
-34
-42
-47
-35
-40
-47
-49
-37
-45
-46
-39
-39
-42
-41
-40
-36
-38
-37
-45
-38
-29
-33
-35
-38
-39
-41
-35
-35
-37
-35
-38
-42
-44
-33
-34
-44
-40
-39
-38
-35
-30
-40
-38
-40
-40
-40
-35
-40
-33
-26
-32
-29
-31
-34
-31
-38
-40
-38
-33
-25
-23
-29
-38
-37
-28
-23
-32
-35
-33
-28
-24
-29
-30
-27
-24
-20
-24
-25
-19
-20
-13
-12
-13
-12
-3
-4
-4
0
-4
-3
-2
-1
0
8
6
8
14
5
6
5
15
18
24
25
3
21
19
20
20
18
18
19
22
18
17
12
19
5
4
-2
-5
-5
-6
-4
-16
-8
-2
-11
-14
-16
-23
-20
-21
-26
-36
-40
-40
-42
-37
-35
-40
-42
-43
-45
-49
-47
-41
-34
-36
-44
-49
-48
-49
-39
-39
-44
-47
-43
-45
-32
-40
-53
-52
-45
-43
-38
-39
-44
-45
-49
-44
-43
-49
-52
-48
-41
-48
-47
-41
-46
-49
-55
-51
-46
-44
-41
-48
-53
-58
-58
-51
-42
-47
-46
-47
-53
-52
-52
-45
-46
-55
-51
-45
-33
-39
-43
-48
-51
-45
-50
-45
-51
-49
-46
-50
-45
-50
-52
-40
-50
-56
-49
-52
-48
-42
-41
-47
-47
-49
-51
-56
-51
-43
-46
-44
-45
-54
-54
-46
-48
-48
-44
-36
-39
-34
-38
-46
-48
-50
-57
-50
-47
-43
-43
-45
-49
-49
-49
-48
-36
-49
-48
-50
-49
-50
-48
-48
-49
-42
-58
-57
-49
-53
-57
-46
-45
-47
-52
-50
-53
-57
-52
-53
-43
-43
-43
-47
-54
-50
-52
-48
-41
-40
-46
-47
-53
-52
-53
-50
-55
-58
-55
-43
-49
-47
-49
-53
-50
-53
-54
-56
-53
-53
-48
-46
-48
-47
-49
-51
-54
-53
-47
-43
-49
-48
-49
-43
-51
-49
-57
-57
-57
-56
-53
-46
-51
-52
-54
-51
-49
-55
-39
-45
-46
-42
-46
-48
-50
-47
-53
-60
-59
-58
-61
-57
-36
-44
-48
-49
-51
-42
-39
-42
-39
-42
-47
-49
-37
-40
-44
-38
-37
-42
-40
-41
-39
-32
-31
-30
-30
-25
-27
-25
-23
-24
-25
-22
-35
-29
-33
-35
-42
-49
-39
-40
-41
-50
-46
-49
-51
-53
-57
-59
-54
-48
-52
-47
-54
-52
-56
-51
-56
-59
-59
-57
-51
-46
-51
-54
-50
-54
-55
-57
-66
-57
-53
-46
-53
-62
-58
-57
-66
-66
-65
-63
-65
-49
-36
-16
8
31
64
76
90
132
159
184
213
210
166
117
67
-2
-51
-65
-80
-82
-77
-73
-66
-57
-56
-48
-56
-53
-53
-52
-53
-57
-56
-58
-55
-61
-64
-54
-51
-55
-52
-55
-60
-61
-55
-57
-46
-47
-50
-47
-49
-53
-52
-53
-50
-55
-55
-57
-55
-49
-53
-69
-54
-47
-53
-56
-51
-46
-50
-47
-57
-66
-55
-53
-54
-54
-53
-48
-41
-46
-50
-49
-47
-43
-53
-54
-36
-39
-47
-45
-45
-39
-39
-40
-41
-39
-38
-46
-46
-47
-42
-42
-32
-31
-37
-33
-32
-36
-32
-28
-22
-20
-31
-25
-16
-16
-9
-11
-15
-13
-14
-12
-9
-10
-5
8
20
11
1
4
13
10
15
15
12
14
6
8
11
14
13
11
8
7
1
0
3
-3
-4
-14
-8
-17
-19
-17
-18
-25
-29
-29
-30
-31
-43
-46
-46
-36
-40
-42
-36
-53
-59
-48
-49
-50
-52
-53
-42
-39
-48
-58
-61
-54
-55
-57
-47
-50
-55
-50
-49
-51
-51
-47
-55
-51
-51
-53
-53
-55
-58
-53
-53
-56
-60
-60
-57
-62
-57
-49
-56
-64
-51
-58
-59
-54
-55
-57
-59
-58
-48
-44
-54
-62
-64
-57
-55
-43
-56
-55
-61
-63
-62
-65
-59
-52
-51
-56
-55
-51
-56
-56
-53
-57
-57
-57
-58
-65
-57
-57
-60
-62
-65
-64
-55
-51
-54
-54
-54
-56
-68
-59
-49
-42
-47
-51
-51
-54
-53
-56
-61
-62
-60
-43
-48
-67
-48
-53
-53
-48
-52
-47
-52
-67
-59
-58
-55
-50
-52
-56
-56
-61
-62
-57
-63
-56
-52
-58
-58
-54
-56
-54
-55
-54
-59
-55
-58
-58
-53
-49
-46
-49
-56
-57
-60
-62
-58
-59
-54
-59
-52
-57
-57
-58
-57
-56
-48
-55
-55
-56
-57
-54
-64
-58
-57
-58
-50
-51
-51
-48
-62
-65
-55
-56
-56
-55
-56
-56
-51
-58
-58
-61
-58
-58
-56
-55
-53
-50
-47
-44
-56
-54
-54
-55
-56
-54
-50
-54
-59
-56
-56
-62
-58
-60
-49
-50
-49
-42
-48
-52
-54
-53
-55
-53
-58
-58
-50
-53
-44
-47
-40
-34
-37
-37
-39
-33
-34
-36
-41
-32
-31
-20
-22
-30
-30
-27
-27
-30
-31
-41
-42
-39
-42
-39
-47
-53
-57
-52
-52
-50
-45
-51
-59
-53
-55
-46
-51
-56
-54
-55
-59
-61
-63
-59
-54
-59
-50
-52
-53
-58
-62
-57
-55
-50
-48
-54
-54
-49
-50
-56
-62
-55
-68
-68
-70
-63
-58
-44
-33
-21
1
29
57
97
109
129
150
183
197
168
124
75
32
-38
-61
-71
-83
-88
-89
-88
-64
-55
-53
-44
-49
-47
-45
-45
-49
-43
-46
-59
-60
-57
-51
-54
-55
-48
-49
-51
-56
-41
-43
-46
-46
-52
-54
-49
-52
-55
-54
-51
-52
-56
-46
-45
-58
-50
-51
-45
-40
-43
-50
-46
-36
-33
-49
-50
-47
-49
-53
-54
-49
-44
-45
-41
-34
-41
-49
-54
-40
-38
-46
-36
-41
-36
-30
-32
-36
-36
-30
-35
-35
-31
-36
-41
-33
-24
-34
-33
-25
-29
-24
-19
-18
-17
-23
-15
-15
-13
-10
-9
-6
-4
0
2
7
8
2
3
3
3
9
19
23
22
16
23
19
23
24
24
21
23
24
20
17
12
14
17
16
20
12
8
1
2
6
4
-2
-8
-15
-14
-16
-11
-11
-16
-16
-25
-26
-30
-19
-29
-33
-32
-31
-32
-25
-33
-34
-39
-40
-37
-23
-31
-42
-41
-41
-42
-46
-39
-35
-43
-41
-32
-42
-41
-37
-42
-42
-38
-43
-43
-45
-45
-38
-44
-55
-49
-38
-25
-28
-38
-41
-41
-38
-36
-37
-37
-51
-40
-37
-45
-37
-37
-37
-40
-35
-37
-39
-43
-39
-37
-36
-40
-40
-44
-38
-35
-41
-37
-30
-50
-46
-42
-45
-40
-36
-39
-44
-44
-41
-33
-31
-39
-38
-30
-27
-32
-33
-35
-37
-40
-32
-29
-33
-32
-26
-31
-32
-26
-32
-43
-34
-31
-27
-27
-32
-37
-30
-32
-35
-37
-34
-35
-34
-35
-35
-37
-32
-26
-26
-33
-30
-31
-34
-32
-26
-24
-32
-38
-31
-20
-28
-38
-32
-31
-30
-33
-40
-35
-30
-32
-39
-37
-35
-34
-32
-27
-26
-25
-40
-36
-30
-25
-29
-26
-27
-31
-33
-35
-44
-32
-21
-29
-36
-27
-27
-26
-26
-28
-35
-37
-31
-28
-31
-25
-24
-29
-35
-27
-34
-31
-28
-33
-33
-19
-20
-20
-22
-27
-25
-37
-28
-26
-33
-26
-23
-22
-26
-26
-30
-23
-21
-29
-30
-26
-17
-25
-21
-12
-19
-24
-23
-32
-23
-15
-15
-12
-14
-22
-20
-18
-10
-5
-1
3
-1
-13
-10
-10
-8
0
5
3
-2
-2
6
8
2
0
-3
-1
-5
-13
-21
-12
-11
-13
-7
-11
-16
-19
-19
-22
-15
-13
-22
-25
-26
-26
-22
-21
-13
-15
-12
-15
-20
-23
-19
-20
-20
-10
-16
-16
-15
-18
-20
-15
-16
-14
-15
-18
-19
-29
-28
-26
-11
-11
-3
6
18
36
59
87
106
131
150
179
192
209
203
170
127
93
38
-9
-25
-46
-54
-56
-42
-23
-19
-17
-1
-4
-4
-7
-5
-6
-5
-6
-11
-12
-12
-6
-10
-12
-1
-6
3
3
0
4
-1
-5
-11
-11
-12
-5
0
-2
1
4
3
-1
-5
6
-2
-4
-1
2
3
6
3
7
3
0
-1
3
9
3
1
5
12
14
3
-2
8
11
11
12
18
19
17
17
14
11
12
7
9
10
18
17
22
24
22
17
15
18
26
32
25
30
29
29
34
40
36
40
44
36
37
59
54
44
48
57
54
54
56
62
64
67
66
61
66
70
72
67
62
69
83
74
77
78
79
76
73
70
70
72
76
70
65
54
55
55
60
54
54
50
52
46
43
32
36
49
40
32
25
26
27
31
22
28
28
25
16
20
23
31
23
25
19
16
20
13
16
24
22
25
28
36
11
13
19
24
18
20
15
19
15
16
20
23
23
16
12
19
20
23
21
19
18
13
19
16
27
27
23
22
17
19
14
14
27
27
23
14
11
19
27
23
17
28
34
25
22
23
35
26
23
23
22
23
25
28
21
20
22
20
26
23
26
24
31
40
35
37
31
30
28
29
30
27
30
31
20
24
18
19
28
35
30
36
36
29
24
23
30
29
28
23
25
31
29
27
30
37
30
22
22
25
26
34
40
26
21
24
23
23
24
29
23
26
25
31
25
35
36
30
40
35
30
34
33
29
27
31
34
32
24
26
18
25
32
33
35
29
33
32
34
34
31
27
29
30
33
27
20
27
33
28
26
37
39
49
38
30
31
28
36
34
44
38
30
28
24
29
33
39
42
36
32
37
26
24
30
32
37
33
39
32
37
38
38
25
27
31
30
35
42
37
33
37
37
36
34
39
34
35
37
33
30
38
35
31
35
38
54
53
36
42
49
48
47
50
54
56
51
56
49
48
41
40
45
63
62
52
57
64
66
58
52
49
50
46
41
40
40
41
34
36
35
35
39
37
35
40
41
31
24
26
41
40
37
46
42
33
29
35
47
34
31
36
33
30
31
30
41
46
40
36
36
26
18
15
31
33
39
43
59
67
84
101
128
162
182
208
233
257
284
286
260
217
175
128
67
51
36
25
21
19
24
28
36
45
46
43
40
41
51
42
41
32
41
40
40
38
39
41
42
46
46
45
47
48
47
42
32
37
47
51
50
43
44
40
44
48
53
51
46
49
48
49
50
51
51
51
52
50
39
48
52
54
52
49
48
47
51
52
53
54
59
46
40
49
51
63
62
57
55
55
56
53
54
58
61
68
63
67
59
61
66
64
65
72
72
72
77
80
79
72
79
76
80
83
78
82
95
94
96
98
104
101
96
96
94
94
107
113
113
111
113
109
111
113
103
107
116
118
115
107
103
96
102
114
107
97
90
91
89
93
96
86
85
80
75
71
75
81
73
71
68
60
64
67
62
58
53
53
57
54
56
58
55
52
48
50
55
54
58
58
53
47
48
55
65
44
53
57
50
47
48
48
65
61
58
57
57
58
59
51
47
51
45
54
61
63
59
52
52
51
53
51
47
52
45
52
49
45
46
43
49
52
50
50
56
55
48
50
55
55
47
52
69
48
51
56
57
54
61
61
53
47
54
51
51
50
52
56
58
54
50
52
54
52
46
49
51
63
55
50
48
39
45
51
59
59
54
50
53
57
56
58
52
53
62
58
63
59
55
45
43
44
51
48
52
62
62
55
50
45
45
53
58
54
52
57
49
45
48
57
53
53
50
50
50
52
55
49
42
50
49
50
47
48
50
50
54
53
56
51
45
49
57
53
55
55
59
57
55
39
36
41
46
58
61
51
49
52
53
53
46
46
54
54
53
53
50
48
48
43
46
55
48
48
52
51
56
59
58
52
56
54
51
48
49
58
56
53
55
51
53
45
51
42
47
47
51
47
53
50
49
62
59
56
49
49
62
56
45
47
41
45
61
58
54
46
40
46
54
57
60
63
67
69
67
69
67
65
63
68
63
66
67
69
75
80
76
69
74
70
64
68
70
68
65
63
52
62
65
66
47
44
45
52
56
49
46
49
46
54
55
43
47
43
46
50
50
47
46
43
43
44
45
47
48
49
46
49
43
47
44
43
44
43
46
45
35
30
33
36
53
61
85
97
123
152
173
202
242
252
272
296
290
261
214
163
86
46
38
32
27
24
23
31
37
54
57
50
51
42
40
40
42
43
46
51
42
51
43
43
41
44
53
46
50
48
48
46
43
42
42
48
52
55
56
48
45
42
36
42
49
56
42
42
63
61
57
51
51
45
45
50
49
48
52
42
45
46
49
52
52
51
52
52
53
52
53
53
59
57
51
57
56
60
55
56
57
63
65
62
58
60
61
65
67
53
56
73
70
74
81
84
66
74
85
74
77
86
82
82
87
87
88
88
87
99
95
96
100
98
99
102
103
107
108
111
108
104
89
85
113
117
118
118
110
105
105
105
95
88
83
81
85
87
79
72
67
67
64
63
72
69
61
58
57
47
42
48
47
51
54
51
48
51
50
39
49
42
45
45
46
53
52
53
49
45
47
48
42
38
40
37
40
48
47
38
41
44
41
41
42
43
46
42
38
36
38
36
36
38
34
33
26
36
53
46
43
35
40
38
42
42
39
36
41
44
38
32
31
47
51
38
42
38
42
37
39
46
43
41
40
41
45
51
46
36
34
34
29
36
38
35
37
46
43
35
36
37
42
47
43
40
50
42
44
41
41
37
33
43
38
35
38
47
44
39
47
43
34
39
41
47
42
42
36
42
46
54
44
43
43
40
50
41
33
35
32
36
42
47
39
44
45
39
40
40
44
34
36
38
40
46
50
40
37
41
40
37
40
41
44
45
43
43
44
42
41
36
34
37
40
44
50
40
32
35
37
31
35
43
41
41
40
42
43
40
35
34
38
47
39
36
39
39
32
44
40
38
40
44
39
40
44
46
40
42
39
38
39
41
41
48
40
29
31
51
51
43
41
43
42
42
43
42
33
31
36
43
45
42
45
47
43
39
40
48
43
45
39
43
40
35
46
44
49
37
37
40
46
47
46
42
46
52
55
42
45
49
64
67
64
62
61
52
47
50
51
57
56
50
58
78
72
60
63
51
43
43
44
47
47
47
42
41
38
33
30
33
38
35
42
40
38
35
34
32
31
31
35
39
44
34
33
28
33
32
34
33
39
30
33
34
32
34
25
23
26
13
17
21
30
35
34
43
63
81
100
130
151
175
212
241
261
285
293
275
227
163
101
46
34
21
5
11
14
16
19
28
37
33
36
36
32
30
32
28
25
28
24
21
19
28
38
21
24
31
35
32
32
31
30
28
22
25
35
33
32
35
28
25
30
31
33
29
28
29
25
25
25
24
28
40
29
35
35
37
39
34
36
35
30
22
20
19
22
27
27
33
40
40
39
39
39
35
39
32
29
35
33
44
43
40
42
38
44
44
43
44
44
47
46
45
49
56
60
66
53
47
52
64
61
63
64
62
67
72
76
73
72
75
77
86
86
84
84
90
93
97
95
94
84
86
87
85
87
79
84
82
80
81
77
63
69
66
64
59
60
52
48
49
38
36
45
44
37
42
49
43
32
36
44
36
21
30
35
32
25
32
24
27
30
30
25
24
20
26
29
35
32
28
27
27
16
23
28
26
33
30
22
24
25
21
22
27
15
14
18
43
29
28
29
25
16
19
34
27
31
39
28
20
20
15
18
22
22
22
28
25
27
29
30
22
21
24
24
23
28
23
34
22
23
18
28
21
18
20
36
27
25
29
30
27
29
30
34
26
25
27
30
34
38
26
24
29
21
25
25
22
21
24
22
22
34
27
31
30
30
28
26
29
28
30
24
36
28
29
26
28
29
34
31
24
24
35
29
29
28
26
19
24
30
34
29
18
22
29
26
26
27
38
35
27
30
30
31
28
23
21
30
29
34
34
26
27
25
15
23
26
26
27
27
25
24
29
27
29
25
25
23
22
17
21
26
26
30
31
24
22
30
32
26
28
25
30
29
30
26
21
20
26
25
28
24
27
31
35
26
30
32
27
24
26
27
27
19
24
26
15
30
30
24
31
34
28
30
27
29
20
24
22
17
24
42
32
24
27
30
33
25
29
29
32
29
33
41
31
33
33
39
42
50
48
51
43
42
41
41
40
49
53
51
50
50
55
52
49
43
51
35
38
33
36
35
36
28
24
33
27
23
27
22
25
25
18
20
21
27
28
26
25
30
25
23
19
25
27
16
18
30
20
25
24
17
14
21
18
21
15
15
5
-7
15
22
28
44
56
71
92
124
152
177
211
234
253
283
286
240
203
144
76
30
14
2
-8
-5
1
12
17
20
20
25
21
26
18
17
29
14
21
21
27
31
15
16
17
14
25
29
22
19
20
14
18
22
26
27
26
17
20
13
6
15
18
19
15
27
30
31
29
30
25
26
22
30
17
13
7
19
29
23
15
9
31
32
30
22
32
33
31
24
26
26
26
19
24
33
37
26
27
29
19
25
31
40
40
36
32
27
38
38
38
32
37
51
55
51
47
50
50
57
50
59
54
56
61
62
57
71
82
64
71
81
80
80
76
74
74
71
79
81
82
83
85
78
70
81
87
84
76
62
59
76
71
69
62
58
56
56
54
58
47
44
39
37
36
29
33
35
33
31
22
24
24
21
23
18
20
26
22
18
21
18
23
21
25
15
12
6
5
-4
18
31
27
15
18
16
15
9
10
12
11
12
7
19
17
11
9
7
4
9
4
8
9
5
12
14
14
9
6
8
-1
6
4
22
26
22
16
11
8
0
4
13
10
17
3
-1
-1
10
9
5
1
2
13
10
8
7
8
17
10
0
8
7
1
9
13
8
8
5
6
12
6
6
5
6
3
17
19
6
11
14
13
7
3
4
7
1
2
6
11
11
11
3
5
7
5
4
5
16
10
-3
-1
0
9
10
8
5
-1
3
5
6
1
-4
-3
-3
6
6
4
12
7
-3
4
1
-2
4
6
0
2
5
5
4
4
0
-2
4
3
0
-1
9
3
-1
1
2
-1
-3
-2
-4
3
6
3
5
7
5
1
6
6
2
-10
-7
-4
0
-2
-1
6
6
-1
9
6
5
-1
7
-3
-10
-10
2
5
-1
-1
-3
1
7
-1
-1
4
7
-1
-4
1
-1
4
12
7
3
6
11
10
4
5
0
22
19
23
22
22
22
25
25
32
31
31
26
22
20
25
25
21
15
18
16
10
8
3
0
-3
-2
4
7
4
6
-9
-6
1
-1
-7
-6
1
9
-5
-10
-8
-6
0
-9
-6
-1
-4
-2
1
2
-4
1
-1
2
1
-3
-12
-10
-7
-5
-13
-12
-10
-10
11
17
33
47
76
105
130
166
195
219
243
264
243
202
149
85
17
-7
-14
-25
-36
-31
-25
-18
-25
-2
4
-3
5
9
5
0
-5
0
0
1
0
7
2
-4
-9
3
18
10
7
4
0
-5
4
-2
-6
1
9
5
7
7
5
0
-3
-2
2
4
-1
1
4
8
10
14
8
7
11
4
9
7
5
5
11
10
6
9
13
14
16
15
2
-2
1
-1
5
18
17
20
18
18
23
21
20
28
23
15
17
21
22
21
29
30
23
25
30
30
39
31
31
36
43
40
43
43
37
44
51
48
53
60
62
60
65
55
54
60
72
66
66
63
63
65
71
62
63
62
54
51
48
64
63
69
73
63
61
54
53
48
38
36
36
30
27
33
24
20
23
19
18
21
14
14
15
23
0
0
10
12
9
11
8
1
13
8
7
0
-2
5
9
15
8
4
6
8
8
15
10
0
9
7
3
-1
6
6
7
13
14
2
2
7
4
6
3
-3
0
1
2
4
10
0
-8
-8
4
16
9
6
17
-4
-2
2
1
7
8
4
10
4
6
6
12
8
1
1
-1
6
3
6
3
5
8
10
6
8
9
6
8
5
7
9
17
12
14
12
8
5
8
13
8
8
5
4
8
10
11
6
1
2
8
10
8
3
12
16
19
9
18
20
3
5
3
3
8
7
9
6
11
19
15
11
7
9
7
10
8
8
7
6
4
7
8
6
6
6
7
-6
13
9
6
6
-3
-1
6
9
9
6
4
12
8
8
11
5
11
12
9
3
14
12
9
6
9
5
11
14
13
10
10
7
3
3
7
5
3
7
13
7
11
6
9
7
7
6
2
3
2
4
-1
1
5
-1
1
2
23
9
18
19
22
19
17
19
25
25
21
20
27
22
20
20
14
18
24
30
33
32
33
28
33
33
54
46
38
31
29
35
25
9
9
23
19
17
18
9
14
14
11
14
13
2
7
4
7
7
7
10
15
8
13
12
8
7
9
8
9
1
1
5
7
3
12
8
7
1
-2
-4
-7
-7
2
2
13
23
36
56
74
95
116
140
190
212
230
235
209
173
137
87
16
-17
-12
-23
-30
-31
-27
-18
-7
5
6
7
12
9
2
-1
-1
3
7
2
4
3
0
0
0
15
10
10
8
5
5
14
9
13
8
8
4
5
3
-3
-3
9
12
14
12
15
8
11
3
6
3
11
11
8
15
6
4
4
7
7
10
22
23
25
10
13
11
5
5
16
17
10
14
14
12
14
12
17
24
16
21
26
21
22
22
24
22
24
24
17
23
40
43
37
40
40
48
46
43
42
48
51
47
52
67
71
64
60
56
57
66
78
67
66
73
64
68
80
89
75
67
61
65
64
80
77
74
66
63
72
63
60
56
59
63
58
50
44
46
44
49
48
45
31
29
28
22
35
32
24
35
28
24
19
17
15
16
24
20
26
33
29
17
14
17
18
17
22
17
21
24
25
19
17
20
16
13
17
18
17
22
20
10
11
25
15
27
15
8
14
15
18
20
21
17
19
22
21
14
16
19
15
16
23
20
15
16
16
17
19
26
20
19
28
22
20
25
20
23
20
26
19
22
24
27
28
30
27
30
30
29
26
30
34
27
30
40
16
16
20
27
27
30
27
28
24
20
25
30
31
33
26
26
23
23
37
41
35
24
23
31
30
30
33
25
25
20
30
24
32
29
16
16
30
31
24
16
34
31
30
36
25
26
26
29
37
36
37
32
28
29
17
19
29
19
26
25
28
25
26
31
35
37
31
24
18
16
16
27
24
23
23
18
14
15
13
22
23
21
17
13
12
25
24
16
18
19
28
23
21
24
21
18
18
15
19
21
15
13
22
27
22
19
23
28
36
35
46
39
26
31
28
30
31
33
33
35
33
30
34
29
21
20
28
29
26
22
16
14
9
13
17
5
15
17
11
8
9
11
13
12
11
20
19
19
18
10
7
17
23
12
15
13
14
13
15
19
12
12
14
13
10
12
8
6
-3
0
0
9
24
29
48
48
65
93
124
142
160
181
197
200
178
146
112
82
18
-12
-28
-30
-34
-41
-43
-24
4
6
9
4
2
3
5
4
9
12
12
4
5
5
3
-1
-2
15
13
6
6
5
6
3
7
4
3
4
-3
-1
4
12
9
1
1
6
5
4
3
10
11
12
17
-3
0
1
11
3
4
10
9
6
9
11
15
12
10
2
-3
0
4
11
20
14
15
15
18
16
15
18
13
14
13
18
14
14
18
17
20
23
17
20
34
33
34
39
43
42
42
45
41
41
53
50
47
44
54
60
60
57
59
63
64
62
76
77
75
76
70
64
64
67
65
63
71
73
70
66
57
63
62
62
57
44
44
52
50
50
43
35
27
37
40
34
28
24
25
22
25
20
19
17
15
10
18
13
7
4
10
1
15
14
8
9
6
17
8
16
13
8
4
10
6
6
9
12
4
4
7
9
8
1
5
4
-4
2
5
10
10
9
7
5
10
12
7
3
0
1
3
8
7
9
3
-1
-2
-4
11
12
7
6
4
1
8
17
16
16
14
11
8
10
9
10
11
11
11
7
7
7
12
10
13
11
12
4
10
16
21
20
14
10
12
14
4
8
13
16
16
16
12
8
13
2
-1
7
6
11
12
9
10
10
7
6
6
11
17
20
15
13
10
8
6
10
14
3
7
10
5
13
18
10
7
4
3
6
10
11
10
11
14
16
7
3
3
9
12
10
8
11
14
7
3
1
-3
5
5
8
10
12
10
5
7
4
7
9
12
12
4
0
3
7
4
2
9
4
3
6
10
10
10
16
18
10
9
16
18
12
10
12
16
13
22
19
14
13
14
21
23
27
26
14
15
22
26
30
25
22
27
33
28
30
38
43
36
29
11
16
24
19
18
14
16
11
11
10
8
8
-2
3
4
13
13
11
8
-1
2
3
5
4
9
3
-1
4
5
-1
11
12
16
12
12
9
-2
-7
2
1
1
0
-2
-6
-7
2
15
24
40
47
69
89
114
140
161
182
203
215
223
201
158
118
75
8
-13
-15
-31
-30
-27
-15
-9
0
5
3
-2
9
9
4
4
5
5
6
7
8
7
1
2
4
1
13
5
1
2
0
-4
0
2
9
9
4
-1
-9
-8
5
1
-1
-9
-15
-4
-3
-8
-4
2
-5
0
3
-1
-4
-4
-4
-2
0
6
1
-3
-4
-6
-6
-9
-8
0
3
-2
-4
-2
1
4
5
5
5
3
3
1
21
15
6
7
5
1
17
21
27
23
24
21
26
23
25
24
25
28
33
44
36
48
29
33
41
48
52
48
46
45
49
49
47
50
58
66
62
57
58
59
59
55
59
60
63
62
62
51
50
45
44
51
46
38
39
40
35
26
29
28
18
19
20
11
9
11
10
11
5
5
-2
-3
12
4
6
8
6
-1
-2
-1
-11
0
-3
1
15
0
-12
-12
-4
8
-4
0
-3
-6
-5
-5
-3
0
0
-11
-11
-8
0
-4
-6
-3
6
3
6
1
-9
-8
-7
-7
-5
-4
2
1
0
-4
-7
-7
-9
-6
-5
-4
-4
-8
-4
-7
-11
-8
-6
-2
-6
-6
-9
-6
-1
-2
-11
-6
-6
-11
-5
0
0
3
-9
-11
-11
-6
-1
-9
-2
6
3
-6
-6
-4
-2
-1
-16
-12
-7
2
5
-3
-3
-8
-6
4
4
-1
-1
-5
-1
-2
1
-7
-2
-4
-12
-8
-3
-2
-2
-10
-18
-5
-8
-13
-14
-2
1
5
-1
-4
-7
-15
-14
-12
-14
-11
-7
-5
-9
-13
-14
-7
-1
-7
-2
-3
-11
-6
-6
-9
-8
-10
-5
-7
-12
-10
-9
-7
-9
-6
-15
-16
-10
-11
-10
-14
-9
-8
-12
-11
-14
-9
-3
-4
-7
-6
-11
-8
-14
-5
-9
-13
-8
-10
-10
-12
-15
-14
-15
-8
-9
-9
-10
-4
-9
-13
-8
-11
-1
0
3
-4
-4
0
-5
-5
-3
1
2
4
-1
-3
1
4
6
8
9
8
9
10
9
17
14
18
20
13
3
5
5
3
-8
-13
-13
-10
-12
-14
-10
-17
-9
-12
-9
-11
-10
-13
-12
-11
-15
-21
-21
-14
-8
-10
-13
-19
-20
-19
-9
-7
-10
-13
-19
-18
-23
-23
-21
-18
-10
-16
-22
-26
-26
-32
-29
-5
18
41
52
75
105
130
146
175
198
218
234
212
172
122
65
7
-5
-15
-26
-34
-41
-32
-20
-16
-10
-17
-26
-20
-12
-18
-17
-20
-16
-15
-7
-25
-33
-22
-16
-15
-20
-16
-16
-20
-12
-17
-21
-25
-21
-17
-16
-13
