-104
-87
-95
-91
-94
-87
-104
-97
-78
-104
-82
-76
-90
-104
-94
-88
-85
-97
-96
-90
-84
-84
-87
-95
-96
-88
-90
-85
-96
-93
-96
-81
-93
-88
-92
-77
-77
-82
-90
-91
-91
-93
-86
-79
-89
-109
-101
-80
-74
-89
-84
-83
-100
-105
-97
-95
-88
-88
-89
-94
-103
-94
-94
-86
-88
-94
-94
-92
-103
-96
-84
-84
-90
-90
-85
-86
-93
-89
-85
-84
-98
-103
-112
-95
-88
-99
-78
-83
-87
-108
-104
-98
-101
-98
-93
-81
-84
-99
-91
-105
-102
-96
-85
-85
-91
-85
-83
-87
-95
-97
-93
-94
-91
-98
-86
-74
-81
-79
-73
-74
-79
-91
-89
-87
-77
-78
-82
-81
-90
-93
-85
-94
-91
-90
-85
-89
-90
-92
-89
-90
-95
-98
-98
-108
-88
-83
-93
-100
-91
-101
-89
-85
-108
-93
-93
-97
-103
-106
-107
-109
-82
-101
-103
-94
-97
-93
-104
-110
-107
-107
-88
-101
-97
-99
-104
-106
-110
-97
-113
-121
-125
-123
-99
-91
-65
-47
-6
18
48
69
86
87
83
81
53
35
23
-13
-51
-76
-67
-66
-75
-69
-72
-81
-80
-92
-92
-94
-87
-90
-93
-86
-91
-89
-92
-91
-92
-75
-82
-95
-101
-95
-96
-96
-82
-83
-89
-87
-88
-94
-88
-80
-83
-89
-79
-93
-89
-94
-84
-84
-84
-86
-90
-90
-90
-85
-92
-83
-74
-84
-87
-84
-69
-76
-79
-82
-81
-91
-81
-84
-80
-71
-68
-66
-74
-64
-77
-83
-64
-63
-66
-69
-70
-56
-52
-61
-60
-59
-52
-45
-47
-39
-39
-43
-43
-36
-37
-33
-31
-40
-26
-33
-36
-30
-36
-32
-32
-25
-35
-29
-25
-36
-49
-54
-42
-38
-49
-54
-60
-56
-62
-49
-62
-69
-67
-62
-65
-64
-77
-73
-77
-70
-81
-69
-81
-80
-78
-73
-75
-85
-94
-94
-82
-83
-79
-81
-91
-84
-81
-95
-86
-84
-93
-99
-92
-86
-98
-90
-90
-89
-84
-85
-104
-89
-93
-90
-95
-83
-85
-95
-87
-88
-86
-78
-73
-93
-94
-95
-100
-88
-96
-95
-96
-92
-96
-91
-91
-93
-80
-90
-85
-86
-91
-101
-108
-79
-77
-90
-90
-93
-88
-99
-98
-103
-81
-84
-74
-79
-95
-94
-85
-84
-88
-81
-86
-90
-88
-85
-89
-90
-83
-86
-93
-88
-80
-71
-78
-92
-90
-92
-85
-89
-92
-83
-88
-91
-91
-88
-92
-102
-92
-101
-86
-93
-91
-95
-106
-97
-83
-85
-82
-88
-98
-91
-93
-95
-86
-101
-86
-105
-93
-82
-92
-96
-90
-99
-85
-83
-93
-93
-89
-99
-104
-99
-80
-91
-101
-99
-93
-98
-99
-98
-112
-99
-87
-96
-105
-90
-96
-104
-87
-87
-96
-94
-89
-94
-95
-86
-96
-106
-101
-106
-96
-87
-88
-106
-103
-91
-94
-88
-88
-77
-96
-103
-111
-93
-88
-82
-89
-79
-93
-83
-89
-97
-93
-91
-81
-79
-83
-81
-74
-81
-86
-89
-98
-96
-96
-97
-94
-88
-96
-95
-95
-95
-94
-102
-95
-98
-99
-95
-106
-109
-106
-109
-107
-86
-85
-84
-96
-106
-98
-106
-106
-97
-92
-103
-104
-91
-94
-102
-104
-101
-93
-105
-103
-85
-105
-112
-113
-123
-143
-138
-126
-115
-112
-98
-71
-75
-44
9
29
56
82
96
92
84
71
43
20
-1
-45
-67
-61
-69
-82
-67
-79
-74
-94
-99
-107
-106
-99
-103
-79
-83
-93
-109
-94
-100
-108
-106
-82
-94
-98
-86
-82
-104
-109
-98
-90
-85
-90
-106
-120
-99
-92
-93
-94
-108
-80
-79
-85
-92
-91
-94
-97
-92
-77
-86
-88
-94
-75
-82
-82
-92
-109
-92
-76
-87
-80
-80
-75
-79
-92
-91
-80
-82
-76
-53
-66
-87
-61
-78
-73
-49
-61
-63
-52
-63
-43
-47
-69
-58
-56
-52
-33
-29
-47
-40
-30
-27
-28
-25
-28
-31
-45
-40
-42
-32
-38
-21
-24
-36
-28
-26
-36
-40
-22
-38
-31
-42
-60
-50
-56
-41
-53
-32
-46
-58
-72
-71
-75
-86
-66
-64
-84
-78
-59
-78
-70
-71
-84
-105
-98
-106
-102
-84
-67
-69
-78
-71
-80
-94
-81
-91
-91
-98
-99
-102
-90
-82
-91
-116
-99
-77
-79
-82
-90
-87
-82
-100
-117
-101
-70
-72
-81
-81
-87
-87
-85
-81
-87
-92
-94
-81
-71
-73
-69
-72
-74
-73
-81
-81
-80
-80
-83
-81
-73
-69
-81
-88
-89
-82
-70
-55
-64
-74
-76
-65
-75
-74
-62
-67
-77
-82
-84
-61
-60
-69
-71
-67
-66
-75
-74
-71
-73
-61
-80
-75
-63
-73
-60
-73
-78
-73
-75
-63
-50
-54
-66
-67
-70
-70
-64
-73
-76
-68
-70
-63
-69
-70
-72
-64
-68
-79
-68
-59
-62
-71
-75
-67
-78
-75
-55
-74
-66
-76
-66
-55
-66
-77
-73
-78
-56
-64
-70
-65
-67
-70
-64
-70
-83
-62
-75
-62
-68
-72
-67
-65
-64
-76
-76
-83
-58
-55
-59
-67
-69
-64
-59
-69
-67
-63
-64
-64
-66
-68
-76
-45
-42
-49
-38
-41
-51
-52
-61
-49
-55
-57
-55
-57
-44
-59
-63
-54
-39
-42
-52
-51
-55
-72
-61
-46
-75
-67
-58
-66
-72
-71
-67
-61
-59
-49
-62
-64
-64
-65
-60
-72
-61
-70
-72
-75
-74
-61
-65
-64
-58
-68
-74
-67
-68
-78
-76
-72
-63
-66
-68
-76
-70
-83
-82
-92
-94
-92
-98
-89
-87
-76
-50
-28
10
54
86
138
163
166
147
149
146
132
94
65
15
-32
-26
-15
-27
-50
-39
-40
-42
-51
-60
-67
-52
-70
-65
-55
-52
-60
-50
-54
-54
-52
-63
-61
-59
-51
-60
-61
-61
-58
-59
-72
-52
-54
-65
-57
-58
-46
-54
-52
-61
-57
-55
-25
-55
-53
-55
-55
-55
-56
-66
-46
-46
-46
-53
-52
-39
-45
-44
-42
-52
-37
-42
-43
-58
-50
-47
-46
-41
-29
-40
-29
-33
-45
-31
-25
-21
-28
-18
-22
-42
-11
-8
5
9
-10
-8
3
2
-7
3
7
0
-10
9
20
6
-1
-1
4
5
11
5
16
-2
1
-11
-8
-21
-25
1
-6
-13
-11
-16
-18
-31
-12
-16
-19
-35
-35
-38
-33
-23
-34
-48
-47
-45
-51
-57
-46
-51
-61
-61
-44
-44
-53
-54
-54
-54
-58
-78
-60
-41
-71
-51
-56
-46
-67
-67
-58
-64
-59
-55
-63
-51
-48
-59
-60
-74
-41
-48
-50
-45
-50
-49
-65
-65
-62
-50
-47
-51
-53
-42
-50
-50
-51
-61
-56
-58
-54
-47
-51
-48
-52
-61
-58
-53
-46
-35
-59
-56
-42
-37
-53
-51
-42
-52
-50
-49
-51
-65
-64
-55
-41
-52
-44
-48
-56
-50
-68
-56
-54
-46
-62
-59
-55
-51
-54
-45
-53
-56
-52
-53
-66
-63
-42
-51
-52
-48
-59
-54
-44
-68
-58
-40
-47
-47
-46
-50
-51
-72
-53
-53
-63
-64
-62
-53
-36
-46
-52
-53
-57
-57
-60
-58
-57
-67
-45
-47
-59
-62
-63
-54
-64
-70
-59
-59
-54
-43
-39
-47
-43
-57
-52
-60
-63
-46
-59
-60
-38
-47
-43
-52
-42
-39
-36
-28
-35
-37
-44
-36
-38
-41
-47
-48
-47
-58
-42
-39
-51
-52
-59
-66
-56
-46
-46
-50
-57
-59
-74
-57
-51
-61
-58
-57
-79
-83
-43
-47
-43
-51
-57
-56
-58
-52
-51
-64
-66
-47
-54
-56
-64
-63
-70
-64
-50
-65
-58
-67
-72
-69
-63
-65
-69
-81
-81
-90
-77
-64
-53
-52
-33
-6
33
74
103
128
151
170
150
122
108
92
51
3
-27
-36
-13
-19
-45
-40
-44
-42
-40
-39
-51
-47
-44
-50
-55
-49
-52
-64
-60
-51
-46
-48
-36
-49
-50
-42
-39
-41
-40
-53
-64
-54
-42
-46
-55
-46
-40
-42
-59
-47
-28
-36
-39
-46
-48
-42
-42
-40
-46
-33
-32
-29
-32
-30
-33
-37
-38
-36
-27
-33
-36
-34
-28
-29
-13
-29
-26
-17
-14
-14
-13
-19
-17
-33
-10
-26
-17
-1
-2
-4
1
6
-1
1
2
-4
6
-2
16
16
13
10
39
27
22
30
22
16
15
14
17
22
19
14
11
7
9
10
16
11
18
17
-1
-3
0
-2
3
-6
-13
-31
-38
-17
-20
-16
-15
-13
-21
-31
-39
-46
-38
-16
-21
-32
-37
-42
-32
-37
-26
-26
-31
-34
-39
-32
-28
-19
-29
-30
-36
-37
-40
-38
-42
-40
-45
-27
-31
-50
-60
-40
-32
-24
-48
-42
-33
-33
-44
-30
-23
-27
-29
-29
-46
-30
-31
-35
-37
-8
-15
-24
-20
-23
-27
-28
-19
-15
-25
-24
-26
-33
-31
-29
-29
-35
-35
-31
-34
-41
-12
-18
-21
-18
-20
-20
-15
-23
-33
-15
-11
-26
-27
-16
-23
-29
-31
-32
-41
-44
-20
-23
-23
-17
-23
-29
-27
-30
-27
-34
-35
-37
-26
-21
-33
-19
-18
-28
-38
-31
-22
-29
-30
-33
-50
-47
-16
-26
-19
-27
-38
-34
-35
-37
-24
-33
-31
-25
-21
-13
-5
-15
-20
-27
-26
-21
-31
-36
-35
-22
-29
-20
3
0
-13
-28
3
-9
-9
-20
-34
-40
-30
-26
-19
-29
-32
-30
-34
-38
-31
-30
-39
-45
-35
-36
-24
-44
-43
-38
-38
-39
-36
-46
-24
-18
-42
-33
-10
-24
-43
-52
-27
-41
-49
-40
-17
-31
-31
-37
-40
-38
-25
-30
-45
-49
-59
-67
-68
-72
-79
-59
-28
-21
-8
41
67
96
128
152
164
166
135
126
114
104
73
24
1
-12
-9
-4
-22
-24
-19
-27
-26
-28
-17
-38
-36
-33
-38
-37
-50
-39
-32
-30
-28
-34
-34
-29
-32
-37
-46
-20
-18
-38
-46
-46
-45
-28
-31
-27
-23
-40
-30
-18
-23
-30
-36
-39
-36
-36
-26
-32
-36
-31
-21
-26
-25
-17
-13
-26
-28
-27
-37
-34
-35
-50
-41
-30
-24
-14
-14
-6
-23
-20
-18
-11
-8
-5
-1
-11
-15
-18
-19
-3
-3
-12
-13
1
13
20
3
-3
5
10
6
8
12
21
10
9
14
8
2
-5
0
11
14
14
10
21
7
-7
-12
-12
-4
-11
-16
-4
-22
-21
-14
-25
-20
-24
-25
-26
-34
-26
-34
-42
-45
-47
-43
-45
-36
-40
-40
-38
-51
-55
-52
-62
-54
-43
-57
-46
-45
-58
-62
-56
-56
-70
-77
-65
-55
-51
-56
-51
-57
-48
-54
-63
-54
-61
-54
-66
-57
-60
-63
-48
-65
-53
-55
-59
-68
-68
-62
-50
-64
-76
-71
-63
-57
-55
-64
-63
-60
-65
-76
-81
-67
-68
-44
-52
-56
-55
-53
-53
-59
-70
-65
-75
-62
-56
-57
-54
-41
-67
-71
-53
-63
-64
-70
-59
-63
-57
-65
-68
-65
-64
-69
-79
-80
-77
-84
-72
-75
-76
-83
-75
-85
-76
-67
-69
-76
-74
-78
-80
-68
-85
-81
-67
-71
-77
-78
-82
-74
-75
-72
-69
-69
-76
-73
-67
-72
-72
-76
-86
-69
-89
-73
-66
-78
-63
-75
-77
-78
-71
-69
-50
-59
-78
-70
-73
-84
-91
-78
-81
-73
-96
-77
-90
-88
-72
-81
-75
-83
-83
-97
-92
-82
-80
-89
-86
-86
-79
-82
-69
-88
-86
-87
-93
-92
-91
-97
-87
-82
-87
-90
-81
-96
-98
-96
-96
-85
-85
-83
-88
-92
-80
-101
-109
-106
-111
-115
-99
-102
-87
-56
-26
1
43
70
94
113
123
108
87
65
53
25
-11
-48
-64
-61
-53
-50
-56
-69
-64
-68
-72
-83
-85
-82
-66
-91
-94
-83
-76
-87
-84
-90
-96
-83
-85
-73
-62
-67
-81
-78
-76
-77
-56
-61
-78
-89
-92
-83
-83
-80
-54
-65
-74
-70
-76
-76
-71
-73
-78
-76
-71
-73
-83
-70
-59
-57
-52
-57
-60
-66
-56
-60
-67
-62
-52
-55
-65
-61
-60
-55
-50
-52
-45
-45
-53
-50
-24
-48
-62
-45
-41
-28
-23
-28
-26
-43
-34
-28
-34
-37
-35
-11
-5
-6
-12
-20
-23
-12
-4
-15
-22
-18
-17
-14
-17
-11
-12
-38
-44
-20
-33
-15
-26
-11
-29
-30
-33
-38
-39
-37
-38
-35
-43
-40
-38
-54
-53
-56
-60
-58
-52
-65
-63
-54
-55
-69
-54
-53
-51
-49
-59
-72
-77
-60
-71
-56
-62
-58
-67
-58
-61
-54
-63
-49
-56
-67
-55
-67
-77
-57
-58
-66
-68
-56
-59
-56
-69
-80
-57
-64
-58
-64
-64
-54
-47
-52
-43
-51
-47
-39
-52
-58
-59
-55
-48
-44
-47
-47
-55
-59
-56
-54
-40
-57
-64
-54
-42
-36
-32
-33
-46
-50
-43
-41
-39
-51
-56
-73
-66
-50
-35
-37
-35
-29
-48
-48
-46
-56
-60
-52
-53
-53
-40
-50
-47
-44
-37
-52
-60
-71
-56
-58
-30
-36
-48
-48
-32
-26
-42
-39
-48
-59
-69
-44
-42
-43
-37
-38
-43
-39
-28
-47
-43
-37
-46
-41
-44
-42
-49
-35
-23
-36
-22
-24
-24
-35
-36
-41
-33
-38
-53
-44
-39
-37
-53
-55
-42
-47
-42
-34
-45
-38
-48
-41
-43
-33
-60
-52
-58
-59
-50
-49
-51
-38
-39
-45
-49
-49
-31
-50
-54
-52
-44
-37
-50
-49
-50
-55
-55
-55
-51
-64
-71
-69
-62
-40
-35
-25
-2
51
76
102
127
148
152
157
146
121
94
78
36
-4
-20
-14
-8
-6
-9
-18
-16
-33
-30
-24
-22
-30
-33
-22
-20
-32
-23
-30
-39
-27
-30
-26
-25
-19
-22
-30
-26
-21
-31
-35
-41
-41
-25
-4
-4
-22
-14
-26
-34
-27
-28
-27
-19
-11
-18
-26
-13
-10
-26
-5
-4
-14
-27
-13
-9
-11
-9
-6
-7
-10
-8
-14
-1
0
-6
-8
-2
11
-1
-2
3
4
0
9
8
2
13
14
7
-2
30
25
27
31
25
19
29
23
22
26
16
34
28
32
33
42
59
45
28
37
42
28
26
42
21
28
35
27
16
30
24
11
14
6
-1
9
15
16
11
-12
-4
-6
13
14
-6
-15
-3
-10
-7
1
-6
-7
-7
-15
-14
-21
-34
-24
-4
-9
-17
-26
-23
-18
-18
-2
-21
-17
-16
-13
-26
-23
-16
-14
-7
-13
-28
-21
-21
-4
-19
-23
-19
-4
-19
-12
-15
-29
-28
-18
-6
-18
-24
-34
-7
-3
5
-19
-23
-19
-14
-5
-2
-3
-12
-10
-20
-20
-15
-29
-27
-11
12
2
-3
-3
-3
-9
-11
-4
-2
1
-10
-17
-10
-2
-4
-17
-3
5
-7
-19
0
-3
-20
-9
-8
-13
1
-7
-6
-11
2
-5
-4
-10
-5
-12
-17
-10
-12
-3
-5
-1
-9
-9
2
1
5
-9
-23
-10
-5
13
-2
-3
-26
-12
2
5
9
10
10
-2
-1
-2
8
4
-12
11
8
22
27
18
8
-1
2
22
2
-2
-14
-8
-7
-5
-20
4
5
-3
-1
2
-12
-3
-2
-16
11
6
-20
-24
-13
-12
1
6
-5
-2
-2
6
6
-5
-8
-1
5
-8
-17
0
2
0
1
-11
-9
-6
-8
-9
-20
-25
-32
-29
-36
-26
-22
-17
-3
43
73
101
138
172
194
198
191
172
161
161
130
92
53
25
20
24
14
15
19
12
13
17
6
-1
-5
-6
7
4
4
11
5
17
17
14
-5
-13
-10
-13
18
18
16
14
7
10
8
16
8
3
8
8
2
11
14
17
7
20
23
12
17
18
10
7
27
17
7
11
27
15
22
17
4
21
18
26
19
20
30
19
33
49
33
38
29
30
39
29
30
24
38
51
40
59
47
32
48
46
32
44
80
76
59
54
60
62
67
65
62
69
68
58
62
65
68
61
66
50
56
70
63
62
64
60
49
39
59
54
34
32
41
38
25
34
36
26
27
30
23
22
26
29
28
26
24
-1
3
18
28
15
24
21
16
15
14
10
13
5
-7
-26
15
24
17
13
19
16
9
0
18
33
21
17
15
5
14
14
10
8
6
5
12
23
34
30
25
12
14
-3
6
19
12
19
12
16
23
22
3
4
18
17
15
19
17
22
24
22
17
22
26
22
32
24
21
10
19
25
37
18
18
20
33
31
16
16
6
9
22
21
25
27
23
15
22
21
13
16
33
28
24
23
26
18
33
24
8
3
20
15
13
15
23
19
6
6
9
32
34
24
33
32
33
35
24
26
30
18
16
34
35
40
36
17
21
42
35
41
39
25
22
25
11
10
14
13
13
21
7
30
27
26
21
19
14
22
18
17
21
12
31
16
23
17
21
18
17
12
14
8
10
19
19
9
19
17
23
19
21
10
14
7
-2
-11
-3
-2
-7
21
25
26
44
78
90
147
177
189
193
187
190
182
168
142
118
87
38
34
26
34
32
30
43
43
36
21
20
23
13
25
23
20
22
10
34
30
25
15
21
24
20
10
35
37
22
23
27
21
27
24
23
32
32
24
34
43
37
33
29
26
36
43
33
33
39
40
44
35
36
29
27
15
36
43
24
39
53
42
54
47
42
42
47
47
43
47
51
56
53
45
61
61
68
57
59
66
64
56
62
79
72
68
81
80
76
70
83
74
83
67
61
96
98
85
79
75
76
76
83
78
76
69
82
82
64
69
64
66
63
55
63
58
53
60
51
57
55
45
52
42
45
45
42
35
31
43
45
30
34
23
23
31
37
32
29
34
20
17
22
30
19
27
16
22
32
30
35
24
35
26
30
37
41
37
30
32
40
31
38
32
19
39
40
29
35
39
43
41
30
20
23
40
36
38
42
31
21
26
29
39
47
39
23
30
35
39
34
40
33
33
36
46
46
26
30
38
46
60
50
27
40
47
40
30
39
37
22
40
45
42
38
50
42
41
45
28
28
33
18
40
45
43
46
45
38
36
25
41
46
41
39
41
47
43
56
45
55
61
50
40
28
45
41
39
43
39
37
41
39
35
23
41
43
35
28
36
17
5
28
33
35
46
38
33
44
31
41
26
35
28
36
27
28
37
33
26
26
25
33
34
31
28
37
37
24
25
19
10
14
4
14
18
22
25
26
59
80
126
150
179
198
204
202
184
175
159
137
127
91
53
55
43
39
40
37
35
35
18
22
27
34
44
37
32
38
32
34
32
12
21
42
36
40
34
23
33
44
51
30
39
39
38
41
35
30
34
46
33
26
37
47
41
38
37
39
37
42
23
33
40
50
51
39
55
46
43
47
53
50
44
53
46
48
54
59
50
53
47
51
56
62
54
58
60
56
70
74
57
71
71
77
82
74
73
79
74
80
78
80
83
88
81
82
93
85
63
81
91
80
90
93
86
97
91
74
71
64
78
73
74
58
57
65
66
51
53
56
45
29
41
39
55
46
48
38
33
44
47
33
29
31
35
31
34
20
25
18
24
22
31
23
25
35
28
29
38
20
35
33
22
27
32
20
21
25
30
27
21
13
25
21
25
32
36
27
26
35
33
32
36
20
21
24
28
27
29
24
30
29
31
15
15
44
45
37
42
42
43
42
41
39
31
26
22
27
28
38
44
36
35
42
38
33
33
36
41
16
16
30
39
39
38
35
31
34
35
31
25
32
29
27
13
25
32
33
27
23
39
33
37
16
27
40
36
30
40
37
24
40
41
46
35
34
28
21
30
33
35
39
37
28
50
43
26
34
35
13
16
22
27
36
41
24
19
22
14
8
14
24
22
33
33
38
23
23
16
18
6
16
30
26
31
22
21
37
19
2
9
21
18
17
26
13
7
19
24
12
7
10
10
1
4
13
11
19
41
61
85
125
151
194
205
199
198
186
161
140
127
99
60
22
32
41
35
39
37
28
30
30
16
29
28
19
23
23
18
20
29
32
21
27
5
26
16
27
25
34
24
32
30
22
31
29
19
19
31
28
21
28
25
32
25
39
37
27
34
31
32
38
24
24
26
32
26
15
30
25
31
36
37
45
45
35
40
34
38
41
46
51
37
47
56
48
54
52
57
47
57
58
56
59
69
51
68
56
62
66
60
71
55
72
74
64
74
84
67
75
87
79
66
68
84
57
72
72
71
64
68
56
59
53
42
57
68
53
43
43
50
47
52
53
38
27
35
30
27
27
42
27
35
39
33
29
25
25
10
13
21
22
24
26
30
36
23
22
16
18
44
30
26
15
12
13
24
27
19
13
31
31
22
13
21
24
12
12
21
19
23
27
22
20
28
14
18
19
24
23
39
29
29
21
24
25
26
26
28
38
22
27
37
31
20
36
35
21
21
17
49
37
42
34
22
19
26
28
27
37
22
20
30
21
14
30
11
34
33
10
25
17
32
33
22
11
22
31
11
17
22
31
32
31
22
26
23
9
22
26
18
7
15
26
25
20
19
29
27
40
37
32
40
29
27
21
20
12
30
46
34
36
33
28
21
24
32
34
21
39
30
15
16
17
14
25
12
10
3
36
28
14
15
23
14
12
10
2
22
21
11
17
31
22
21
12
33
21
12
6
3
-4
20
21
17
9
-5
5
11
22
14
10
-12
-21
-13
-16
2
10
30
45
62
93
128
154
190
200
199
184
187
170
155
127
86
39
24
38
38
34
38
33
31
38
28
7
15
22
25
15
15
21
20
22
38
22
14
17
23
15
18
23
18
21
26
29
28
15
9
10
26
14
15
20
26
21
21
16
20
23
30
22
16
21
34
33
23
33
30
22
23
28
31
32
36
19
28
45
36
35
40
26
29
16
30
42
38
38
32
37
46
48
48
52
53
46
52
54
49
60
70
52
53
76
73
71
76
63
55
70
77
73
66
64
65
51
56
68
61
57
62
64
64
61
45
52
51
54
47
45
55
37
33
38
34
31
33
33
33
30
32
27
28
23
25
19
17
13
14
21
12
6
27
27
18
15
14
17
4
12
16
10
18
9
3
19
14
17
21
11
5
12
11
12
9
1
0
5
13
16
20
13
14
14
11
23
31
16
10
18
12
10
6
29
21
8
18
10
3
12
17
19
24
33
29
28
12
2
0
15
15
19
26
23
28
29
18
16
12
10
27
26
23
29
20
26
23
17
24
21
11
13
15
0
7
19
17
26
26
22
13
14
8
5
8
9
14
-1
10
9
20
27
17
22
14
18
-1
-2
-6
14
19
12
19
15
16
21
13
22
5
13
11
17
4
8
19
23
8
10
9
22
35
27
20
-2
13
12
28
24
33
27
31
20
18
11
3
8
3
16
15
23
18
7
4
-6
3
7
-8
7
16
16
7
5
6
-5
-4
11
18
8
3
14
4
-4
-2
-12
7
9
-4
-9
16
9
14
4
5
2
2
10
2
-5
1
-5
-2
-18
-28
-29
-27
-16
-3
5
24
58
99
131
159
182
194
196
190
164
143
121
90
52
37
23
24
28
19
1
19
23
19
16
9
-3
-3
-2
12
4
5
2
13
5
7
7
-8
9
13
3
19
12
12
12
4
2
-1
5
-6
-4
-18
8
24
12
-3
9
22
14
13
13
21
14
2
9
9
18
9
16
17
19
17
13
21
15
15
4
19
21
14
23
20
19
33
28
32
30
26
33
36
34
31
18
26
35
36
46
37
34
37
54
61
54
63
71
61
62
59
48
53
63
70
56
47
50
45
50
61
52
51
45
52
47
38
40
48
52
37
34
27
23
25
40
25
22
25
18
21
14
12
21
9
5
8
24
30
13
13
1
-3
5
6
3
17
-3
-9
-5
9
4
8
11
4
8
9
-11
-5
6
-1
-19
-4
5
11
6
0
-3
-10
4
10
-17
-23
12
13
3
4
5
-3
3
6
4
-6
6
20
10
5
11
2
8
2
-3
-2
8
13
16
2
-3
15
12
9
4
7
7
11
23
13
2
0
13
7
1
10
9
8
-3
2
-2
2
4
8
11
1
-2
3
14
19
13
9
13
0
10
9
5
8
11
2
10
-7
-2
1
-4
22
19
18
-2
4
11
6
4
-2
2
6
7
-6
12
21
13
-6
-5
1
-3
4
-4
13
15
4
7
6
3
7
3
10
19
-3
2
2
5
1
4
-14
-6
3
4
12
15
8
4
11
1
-1
3
7
11
-5
9
24
6
8
14
21
3
18
8
7
27
28
18
25
17
22
18
13
8
9
14
13
1
-2
9
4
11
8
16
7
-2
-2
-1
11
12
8
8
3
1
5
16
14
-3
-9
5
3
2
6
4
-9
-2
-1
8
22
6
5
9
5
10
9
-2
-5
-20
-16
-18
-25
-10
-11
-5
0
20
45
78
110
146
167
193
185
205
193
161
138
139
94
53
26
43
46
46
32
29
26
23
30
23
9
5
10
23
21
33
1
2
13
21
19
26
19
23
14
23
22
4
2
17
11
31
27
26
22
17
19
18
20
15
14
20
31
30
28
16
16
25
26
8
18
33
39
42
50
38
25
27
33
28
34
27
33
39
30
44
46
34
42
40
34
36
45
35
51
52
56
54
54
56
60
58
63
59
44
60
62
65
66
64
83
78
79
86
80
80
76
82
73
61
76
84
84
79
71
61
66
74
73
63
64
69
71
67
60
56
48
38
32
40
49
46
37
35
34
35
34
27
17
34
31
39
34
34
22
22
24
29
10
24
29
23
19
23
37
14
15
24
26
26
29
14
31
33
33
29
24
22
15
22
35
38
21
22
24
9
10
19
13
31
36
30
36
28
27
32
25
14
22
22
31
24
29
13
26
22
24
19
23
21
19
14
25
17
46
36
20
52
45
27
19
26
36
28
8
19
37
32
31
46
39
31
35
40
28
11
13
26
18
26
29
26
34
25
19
27
28
18
12
35
45
42
31
23
14
25
24
20
23
26
22
17
12
26
27
32
35
28
15
22
29
8
29
39
22
21
22
21
19
3
18
27
23
28
26
12
24
29
18
31
32
27
24
15
15
16
26
24
20
16
19
19
20
28
11
-5
31
33
23
30
26
26
15
10
0
15
26
29
30
32
28
28
18
22
22
12
31
32
30
25
40
30
17
27
25
27
35
30
26
32
32
29
19
30
9
12
17
4
7
13
24
21
21
6
9
13
12
13
7
-2
14
25
25
21
6
13
8
11
5
16
27
25
5
18
11
9
7
8
11
23
19
-1
8
12
7
0
-7
-11
-12
-15
-1
-12
-6
4
20
47
69
101
135
166
192
192
193
179
163
155
146
114
91
47
29
30
44
39
30
28
27
22
16
11
14
20
12
8
3
4
10
10
4
4
3
-13
27
23
0
-8
4
13
15
26
1
4
0
23
36
26
25
19
24
6
15
18
15
13
16
22
19
1
12
29
20
22
14
17
28
34
18
22
18
9
9
11
27
20
17
17
30
40
51
45
33
26
40
21
39
41
26
33
48
43
43
47
51
42
54
60
55
61
80
58
41
49
65
51
60
59
52
60
66
63
60
67
63
52
62
65
63
63
51
47
41
28
34
35
39
41
31
34
35
18
23
29
16
7
4
8
3
5
10
4
18
8
9
-10
7
11
-4
20
1
-2
11
-4
2
-9
-1
-15
14
20
15
-2
-5
3
-5
6
3
-1
0
5
-1
-6
3
-1
-18
-3
7
-3
-13
-3
9
17
9
-8
-4
0
-2
1
-2
-1
1
-1
-11
1
-3
-2
17
19
7
11
12
8
1
-9
-7
1
3
5
-2
0
11
17
3
1
2
-7
-5
6
15
17
-2
7
9
-2
-13
1
-7
-4
9
3
1
-1
3
0
2
-13
-4
8
10
3
0
1
7
-3
-17
-7
-10
-1
1
13
2
-1
2
0
-3
-12
-7
-24
-9
10
0
-6
-6
-4
8
-10
-10
-8
-5
-6
2
-9
-6
2
6
3
-12
-20
-4
2
-6
-16
10
-16
-25
-9
-12
-16
1
-1
13
5
-5
-19
-4
-13
-18
-7
-11
-10
-5
-5
-12
-6
5
9
-17
-5
11
8
2
-2
7
-5
6
9
-2
4
9
5
-1
-3
16
6
-4
-1
-3
0
6
-1
-6
-8
-5
-10
-16
-24
-12
-4
0
-5
-14
-6
2
-7
1
-12
-25
-13
-3
-10
-12
-19
-6
-13
-12
-20
-11
-9
-9
-12
-11
-13
-4
-4
-3
-17
-27
-14
-11
-24
-40
-24
-27
-33
-31
-26
-30
-35
5
30
63
91
114
143
160
154
137
136
135
116
103
75
47
16
-6
-12
-1
2
3
12
-3
1
-12
-12
-10
-9
-18
-18
-5
-10
-1
1
-18
-19
-12
-7
-8
-10
-8
-4
-11
-4
-11
-6
-3
-13
3
2
1
-5
-16
-15
-3
0
-7
-8
-6
-1
2
-12
-15
-8
5
-7
2
0
-1
1
1
-4
-7
1
-2
-6
13
10
3
9
13
15
6
1
0
16
10
21
17
15
9
26
39
29
21
31
32
17
26
43
46
37
40
43
37
41
38
45
55
58
48
46
53
56
50
42
40
29
50
51
37
53
45
31
37
33
31
34
30
28
30
25
10
16
4
7
3
0
7
6
2
-3
6
-8
6
5
3
0
-3
-4
-2
-3
-1
-10
-16
-6
-7
-4
-9
-7
-7
-4
-6
-15
-15
-22
-28
-21
-8
-11
-20
-13
-2
-10
-4
0
-2
-17
-10
-10
-26
-20
-5
-12
-17
-9
-13
-18
-8
-2
-6
-6
-4
-6
-17
-13
-3
0
-12
0
-9
-16
-1
-13
-17
-6
-5
0
5
-7
4
2
1
-16
-16
-7
1
-12
5
3
9
6
12
-1
-12
-10
-16
-4
-2
1
3
2
-7
-16
-3
-8
-25
-8
3
-5
10
4
-2
-1
-10
-15
-2
-18
-21
-21
-1
-2
-8
-12
0
-3
-20
-31
-8
-4
9
-1
-3
-23
-8
-4
-11
-16
-1
-13
-6
-4
-3
-6
-15
-9
-24
-6
-14
-9
-3
-8
-5
-12
-8
-9
-18
-13
-9
-4
-7
-7
5
-2
-1
14
9
10
9
3
-10
0
8
10
4
-13
6
-1
-6
1
9
8
-3
-3
7
2
-13
-18
-12
-10
-19
-22
-19
-23
-17
-16
-17
-4
-19
-21
-11
-11
3
-14
-2
-13
-18
-16
-10
-15
-16
-9
-5
-5
-7
-17
-12
-6
-16
-3
-7
-28
-30
-17
-20
-25
-19
-23
-31
-38
-43
-41
-43
-34
-4
5
19
58
90
120
130
144
150
155
142
131
118
102
73
37
5
-9
-9
2
-2
-10
12
3
1
5
-5
-16
-26
-13
-9
-3
-11
-15
-14
-18
-24
-5
7
-1
-4
-17
-5
0
-10
-8
-3
-13
-7
2
-6
-12
-7
1
0
5
-4
-9
-1
-4
-1
-3
1
-8
3
-1
4
0
0
-11
-4
-4
3
8
-5
11
3
-5
5
7
7
13
-3
17
12
9
22
17
0
16
33
13
27
32
25
24
34
31
34
32
25
46
46
32
32
35
38
33
31
30
50
46
61
48
52
52
57
41
40
45
41
32
33
50
37
33
34
26
33
19
20
19
17
9
9
20
18
5
11
10
-2
2
5
-7
-8
-3
1
1
5
-7
-24
-18
-16
-12
-16
-5
-5
1
-2
-6
-10
-15
-10
-14
-31
-7
-5
-7
-10
-13
-15
-10
-6
-9
-13
-17
-21
-16
-1
-7
-11
-14
-12
-11
-16
-6
0
-15
-17
-22
-22
-14
-4
-12
1
10
3
-24
-16
-15
-10
0
-2
-6
-10
-7
-11
-13
14
6
1
-1
-2
-6
-5
-3
-9
-7
-10
-4
-4
-6
-11
-9
-19
0
-10
-3
-5
-6
-6
2
-2
-12
-14
-8
-2
-16
-5
-4
4
-9
-8
-3
-6
-12
-3
-13
-11
-16
-19
-11
-6
-7
-6
3
-14
-12
-14
-11
-3
-11
-10
-6
-7
-14
-4
-7
-13
-17
-9
9
-13
-12
5
-11
-21
-9
-9
-19
-10
-10
0
-10
-4
-11
-14
-14
-18
-13
-12
-8
-21
-18
-12
1
-3
-9
-19
-7
-7
0
-3
-5
4
4
-2
8
8
-7
-6
2
-7
-3
-3
-1
9
4
-5
-8
-7
-4
-14
-13
5
-5
-17
-19
-2
-16
-8
-10
-16
-16
2
-9
-17
-23
-17
-15
-9
-31
-13
-10
-5
-10
-18
-23
-17
-15
3
-4
-8
-13
-12
-14
-18
-22
-12
-18
-13
-14
-12
-13
-20
-32
-24
-12
-22
-43
-43
-55
-46
-33
-23
6
34
60
84
104
136
161
163
172
154
140
119
106
68
39
5
6
22
21
-2
-4
-3
-4
1
-12
-14
-7
-6
-6
-15
0
0
-7
-12
-17
-13
-20
-3
2
-1
-12
-12
-20
-17
-10
-9
-3
0
0
-3
-3
-7
-5
-2
6
-4
-11
-8
-9
-10
-5
-13
-7
-5
-2
9
-8
-2
11
8
-6
-3
1
-8
3
12
14
12
4
6
8
11
14
6
6
17
9
8
19
17
23
22
3
11
33
50
35
17
29
32
24
29
36
31
27
47
43
52
54
46
38
37
39
42
48
46
44
46
50
48
44
52
35
33
41
33
28
28
28
24
25
37
29
16
24
18
9
1
4
10
2
-7
-6
-9
-2
-10
-7
-6
0
-1
-6
-1
-18
-13
-7
-12
-5
-7
-10
-13
-3
-5
-7
-9
-14
1
-6
-18
-10
-16
-10
-5
-20
-19
4
-6
-15
-13
-4
-7
1
-10
-14
-15
-18
-7
4
-1
2
-13
-21
-10
-15
-10
-5
-18
-3
1
-13
-9
-4
-9
-14
-6
-2
7
0
-8
-11
-11
-7
-6
-12
-9
2
-7
-2
-1
-12
-6
-1
-11
-8
-8
2
1
5
-4
-7
-3
-8
-1
-1
-2
-11
-3
-3
-5
-20
-9
-3
0
-13
-8
-5
-11
-18
8
1
-4
-25
-13
-7
0
0
-25
-15
0
-11
-5
0
-11
-11
5
-9
-10
-8
0
-10
-20
-14
-13
-6
-13
-10
2
5
-2
-17
-23
-21
-17
-12
-8
-3
0
2
-7
-9
-4
-9
-6
2
-9
-18
-15
-17
-29
-10
-10
-5
-17
-5
9
-2
-13
-9
-4
-1
-3
-3
-2
5
0
5
-12
7
2
-16
-4
16
5
0
14
1
-3
-5
-10
-3
-13
-9
-12
-10
0
2
-4
-9
-24
-5
-12
-10
-6
0
-9
-15
-19
-22
-8
-15
-26
-26
-16
-4
-5
-11
-25
-17
-17
-8
-8
-5
-10
-21
-24
-20
-8
-10
-26
-15
-18
-30
-42
-34
-40
-31
-28
-29
-14
6
23
42
74
100
132
166
175
175
145
142
131
104
71
42
16
8
13
20
8
0
8
-13
-5
-13
-15
0
5
-4
-15
-12
-11
-7
-16
9
-2
-23
-13
-18
0
-14
-7
-13
-23
-11
2
-9
-4
7
-10
-7
0
-7
-17
-9
-5
-11
-4
-5
-15
-11
-14
2
-2
12
8
-1
0
-2
-7
-3
-12
-7
-8
24
8
13
6
-10
1
2
1
-5
4
15
18
5
15
19
25
7
12
7
17
29
30
34
31
27
22
26
19
41
43
43
50
41
41
38
42
40
44
39
48
48
44
38
45
35
34
53
52
38
39
46
34
18
36
28
10
15
19
15
16
27
19
15
24
4
2
-8
3
2
-6
-17
-6
-12
0
1
-6
-7
-10
-9
-22
-12
-5
2
-16
-10
-15
-4
-7
-17
-4
-24
-23
-6
-3
-10
-12
-12
-9
-23
-19
-3
-4
-6
-14
-23
-13
-12
-11
-19
-9
-14
0
-4
-16
-15
-17
-11
-12
-15
2
-7
-6
-17
-9
8
-18
-11
-16
-20
-1
-3
1
0
-12
-14
-19
-14
-24
-12
-1
7
6
-6
-18
-5
-6
-12
-17
-14
-5
3
-8
-6
-9
-19
-2
-2
-12
-7
-1
1
1
-12
-25
-16
-15
-12
-11
-8
0
-4
-7
-6
-15
-20
-18
-11
-17
-13
-10
-5
-5
0
-15
-22
-18
-17
-13
4
-30
-24
0
-1
-15
-23
-6
0
-13
-23
-25
-11
3
-6
-14
-12
-13
-8
-16
-12
-22
-14
-18
-15
-17
-6
-23
-29
-31
-8
-4
-19
-16
-12
-16
-26
-15
-2
-20
-22
-27
-28
-8
-7
-25
-22
-26
-19
-18
0
-20
-6
-7
-12
-15
-18
-4
7
0
0
-7
-1
7
-4
-6
-9
6
-10
-23
-7
4
-2
10
7
-16
-15
-13
-13
-20
-23
-22
-32
-29
-22
-17
-16
-9
-24
-23
-8
-12
-25
-30
-27
-37
-31
-10
-17
-7
-3
-25
-15
-7
-11
-20
-22
-20
-17
-24
-19
-33
-30
-17
-31
-34
-18
-24
-26
-27
-38
-41
-34
-41
-49
-32
-7
16
38
72
102
129
143
167
163
147
126
116
101
81
58
22
10
28
6
-8
2
-8
-15
-18
-7
-20
-11
3
-8
-7
-14
-18
-21
-15
-10
-11
-12
-16
-16
-25
-12
-19
-18
-6
-4
-11
-8
-17
-18
-10
-2
-15
-20
-6
-6
-4
-2
-3
-20
2
-10
-14
-6
-3
2
-5
0
-12
-11
-18
-6
-5
3
5
3
2
-2
1
-8
3
13
11
8
10
0
5
-3
12
7
9
19
6
16
17
17
23
24
20
13
39
37
26
27
36
30
34
44
44
28
35
50
58
52
57
44
27
42
45
33
41
38
36
45
46
32
26
36
21
27
26
5
13
16
17
10
7
5
9
-3
11
10
-8
15
2
-15
-5
3
-17
-9
-30
-15
-9
-6
0
-3
-8
-8
-9
-11
-12
-13
-15
2
-9
-22
-20
-9
-7
-22
-12
-16
-21
-7
-11
-20
-11
-3
-15
-20
-16
-22
-20
-18
-24
-22
14
-6
-10
-9
-10
-21
-26
-11
-6
-10
-17
-19
-8
-14
-4
-6
-22
-20
-8
-4
9
-11
-21
-11
-14
-9
-10
-11
-4
-1
-3
-10
-4
-23
-21
-8
-21
-8
-16
-18
-15
-16
-12
-11
-5
-12
-12
2
-3
-20
-6
-8
-13
-9
-21
-8
-12
-17
-13
-10
-11
-13
-21
-15
-18
-26
-7
-8
-1
6
-9
-13
-17
-9
-4
-13
-21
-18
-11
-9
-13
-25
-36
-15
-8
-29
-15
-10
-12
-5
-15
-12
-15
-13
-7
-18
-13
-11
-34
-21
-12
-3
-17
-18
-23
-8
-17
-12
-20
-20
-14
-9
-7
-12
-22
-19
-14
-11
-8
-23
-22
-31
-13
-24
-35
-39
-8
-14
-7
3
-3
-9
-14
-9
-4
-1
-9
-2
-5
-6
-1
-15
-2
3
-10
-14
-9
-2
-7
0
-11
-24
-12
-2
-19
-26
-8
-23
-26
-16
-13
-24
-24
-18
-24
-25
-23
-21
-11
-15
-11
-20
-11
-17
-30
-32
-18
-19
-17
-26
-21
-7
-20
-30
-22
-34
-36
-22
-5
-11
-16
-25
-29
-34
-39
-42
-59
-61
-45
-37
-30
-31
-15
0
27
70
112
140
162
163
161
146
139
115
95
66
29
6
2
-6
10
12
6
-3
-15
-12
-5
-19
-20
-13
-24
-20
-15
-2
-4
-15
-13
-20
-32
-17
-18
-2
-8
-11
-17
-16
-10
-18
-11
-17
-13
-8
-18
-21
-21
-22
4
-8
-19
-17
-26
-27
-15
5
-3
-1
-15
-9
-9
2
-19
-2
-10
-4
-6
4
-3
-11
-7
-13
-16
6
12
-4
-3
14
6
5
10
5
9
10
19
14
9
27
27
18
24
29
15
23
22
21
35
28
17
13
30
46
42
37
47
42
39
45
46
44
47
35
40
39
34
32
38
36
24
36
34
36
19
11
13
9
15
16
14
15
1
-7
2
1
-2
-12
-12
-6
-4
3
-4
-2
-19
-19
-14
-17
-17
-2
-9
-16
-3
-11
-24
-32
-18
-9
-11
-10
-13
-17
-4
-11
-19
-13
-12
-35
-18
-27
-21
-15
-17
-29
-23
-15
-26
-17
-7
-19
-9
-16
-15
-26
-25
-21
-29
-25
-1
-12
-22
-14
-20
-10
-3
-8
-3
-10
6
-1
-9
-19
-13
-18
-22
-21
-10
-12
-6
-6
-14
-6
-20
-22
-13
1
-10
-31
-13
-13
-7
-8
-13
-19
2
-4
-17
-20
-17
-39
-23
-8
-6
-17
-12
-14
-8
6
-14
-14
-22
-26
-29
-25
-2
2
-21
-19
-19
-24
-6
-9
-6
-14
-5
-10
-11
-13
-17
-12
-20
-20
-18
3
-15
-21
-16
-12
-6
-13
-13
-15
-8
-14
-17
-14
-26
-30
-25
-21
-12
-9
-2
-22
-11
-10
-15
-16
-16
-17
-32
-29
-12
-23
-12
-13
-12
-4
13
-4
-10
1
-5
-7
-7
-7
-11
-4
-2
-10
-1
-2
-9
-2
5
-22
-9
1
16
10
-5
-12
-18
-11
-6
-16
-26
-8
-16
-13
0
-13
-29
-14
-11
-24
-24
-18
-15
-9
2
-4
-14
-12
-16
-31
-14
0
-10
-25
-19
-21
-29
-26
-11
-12
-14
-6
2
-4
-15
-22
-20
-20
-35
-36
-40
-27
-23
-14
-13
-16
-11
30
72
102
130
145
149
161
150
148
129
116
77
57
28
18
-7
-9
-9
6
-4
-14
-1
2
3
8
-3
-2
-7
-4
-16
-13
0
-11
-19
-8
-6
-1
-1
11
9
-2
7
7
-1
7
-9
-5
-7
1
11
18
8
0
-14
-1
7
-4
8
4
4
1
0
-5
12
6
14
11
21
12
2
11
14
15
11
3
-2
23
20
8
21
29
21
4
34
37
45
38
31
37
36
38
27
31
36
39
30
33
31
34
56
51
65
64
69
67
64
59
69
53
59
54
61
52
74
55
56
63
56
46
57
69
59
57
54
50
43
53
43
41
38
26
28
25
28
35
29
13
23
16
11
27
24
14
9
13
16
4
21
8
13
20
16
21
19
18
9
3
8
-6
11
11
5
16
20
2
4
8
5
11
0
-5
-2
6
18
8
7
10
7
22
18
0
-10
-2
25
22
21
18
17
11
12
10
9
13
17
13
31
25
-1
20
28
17
24
20
21
7
29
28
23
27
8
18
16
13
18
26
11
22
10
6
13
27
15
24
20
23
17
22
17
19
25
29
20
13
7
21
22
23
11
19
28
16
23
26
15
11
20
3
15
23
2
-5
22
24
15
20
12
16
19
20
15
25
13
25
22
22
25
20
23
19
21
28
7
24
26
24
25
16
16
14
10
12
22
34
32
20
21
26
31
21
32
30
24
21
27
29
27
35
21
18
28
17
31
37
29
30
27
26
22
13
17
21
18
14
10
26
21
16
22
26
25
31
29
4
-1
13
9
5
12
28
24
16
8
6
12
12
26
20
17
28
21
7
9
8
3
1
6
9
5
3
-9
-1
-2
-4
3
17
19
36
66
83
110
138
170
177
159
148
156
161
139
119
89
45
32
23
26
6
9
-3
25
29
22
16
31
21
4
13
14
12
16
12
12
8
20
31
13
25
15
24
17
19
27
27
25
19
16
19
16
22
25
31
17
19
22
10
16
18
20
25
26
33
22
20
45
28
15
-2
9
22
24
33
29
47
36
24
20
31
27
37
29
28
28
26
37
35
27
34
44
46
39
44
42
50
63
58
52
57
49
54
65
72
66
67
61
71
82
73
61
59
57
62
69
65
54
62
41
74
65
57
63
71
53
47
48
33
45
47
38
41
30
23
28
28
22
26
23
17
15
17
20
23
22
18
9
0
3
-2
-17
4
16
-5
13
25
10
2
3
3
1
-17
-18
-16
-11
5
8
-7
-9
-1
4
1
1
-10
-14
-5
-12
-3
9
11
-2
3
2
-7
-12
-12
-12
-1
-7
1
5
-3
-10
-1
-3
0
-9
-6
-7
11
-6
-9
-7
-8
-3
1
-12
-14
-7
-1
0
-10
-7
-15
-5
16
13
-3
7
-6
-2
-3
-10
-23
-4
0
-14
-5
-1
-10
-14
-5
-20
-21
-16
3
-7
-1
-6
-17
-10
-23
-27
-14
-10
-10
-11
-10
-14
-14
-15
-21
-21
-13
-15
-22
-28
-9
-11
-24
-10
0
-11
-19
-19
-23
-19
-19
-19
-17
-6
-19
-13
-16
-21
-33
-9
-13
-10
-20
-36
-16
-18
-33
3
-8
-2
-14
-5
-8
-11
-17
-25
-25
-17
-25
-30
-17
-21
-34
-37
-31
-28
-32
-28
-35
-37
-29
-24
-29
-35
-22
-25
-32
-34
-26
-37
-48
-48
-45
-22
-29
-30
-23
-28
-34
-40
-36
-41
-56
-55
-36
-44
-40
-40
-20
-37
-54
-63
-69
-52
-50
-32
-30
-6
22
52
73
111
130
140
137
113
93
92
78
49
24
3
-28
-25
-32
-21
-34
-13
-15
-34
-37
-38
-54
-33
-32
-42
-46
-56
-51
-41
-19
-15
-21
-35
-34
-29
-41
-37
-24
-32
-34
-40
-44
-38
-39
-49
-28
-42
-42
-27
-21
-37
-33
-31
-24
-34
-37
-42
-33
-31
-33
-36
-39
-32
-33
-29
-39
-24
-28
-28
-17
-21
-23
-21
-29
-29
-20
-21
-24
-29
-19
-21
-22
-27
-18
-29
-12
-15
-10
-7
-16
-22
-7
-10
1
0
2
-1
-1
6
10
7
4
32
15
7
7
12
2
11
6
6
3
14
13
2
6
6
0
6
9
-14
-23
-9
-15
-12
-10
-28
-27
-26
-24
-33
-49
-50
-40
-31
-46
-55
-26
-29
-32
-40
-41
-45
-54
-49
-32
-37
-51
-50
-41
-46
-53
-57
-59
-48
-49
-70
-35
-46
-59
-56
-48
-49
-52
-56
-56
-69
-69
-85
-43
-38
-44
-50
-49
-47
-42
-55
-56
-63
-78
-55
-47
-54
-52
-44
-51
-57
-44
-48
-58
-49
-52
-62
-53
-51
-53
-54
-52
-52
-58
-64
-72
-65
-48
-41
-42
-45
-51
-46
-52
-41
-43
-57
-54
-47
-38
-48
-52
-57
-63
-56
-49
-47
-48
-63
-62
-43
-44
-49
-55
-53
-52
-45
-42
-52
-60
-68
-52
-50
-65
-55
-56
-61
-55
-45
-48
-54
-62
-47
-56
-57
-55
-54
-59
-60
-53
-52
-46
-48
-65
-62
-63
-52
-63
-67
-63
-55
-44
-58
-61
-42
-50
-60
-55
-51
-55
-44
-42
-52
-37
-39
-37
-44
-42
-61
-73
-45
-64
-63
-63
-58
-62
-54
-59
-47
-54
-54
-70
-64
-65
-71
-68
-76
-61
-57
-64
-58
-64
-75
-61
-56
-62
-59
-56
-60
-53
-48
-55
-62
-81
-69
-58
-75
-82
-65
-48
-64
-65
-73
-74
-82
-90
-90
-69
-65
-68
-55
-31
-15
26
55
84
108
118
115
102
96
73
57
29
-15
-57
-45
-38
-44
-52
-49
-55
-54
-55
-40
-53
-63
-56
-64
-68
-62
-64
-74
-67
-55
-67
-48
-49
-47
-46
-47
-45
-65
-60
-52
-60
-60
-58
-52
-55
-52
-51
-59
-61
-49
-50
-38
-58
-65
-55
-59
-53
-46
-50
-44
-57
-41
-31
-42
-45
-57
-53
-48
-55
-46
-47
-46
-40
-42
-31
-30
-31
-29
-34
-40
-47
-48
-35
-21
-30
-34
-25
-18
-39
-34
-27
-22
-18
-15
-27
-14
-2
-9
-14
-21
-19
10
7
-5
3
14
5
-13
-7
-5
9
7
-13
-7
-9
0
-8
-8
-18
-14
-37
-20
-29
-40
-25
-23
-10
-30
-23
-25
-43
-37
-44
-47
-33
-39
-49
-45
-48
-46
-48
-52
-35
-33
-59
-53
-53
-71
-36
-42
-43
-48
-68
-57
-40
-37
-57
-58
-52
-52
-57
-60
-60
-53
-59
-41
-50
-63
-62
-62
-64
-72
-64
-42
-43
-48
-55
-54
-60
-74
-57
-52
-60
-42
-43
-44
-55
-43
-58
-53
-50
-50
-41
-48
-57
-46
-41
-45
-54
-50
-55
-31
-38
-36
-41
-49
-50
-49
-59
-49
-38
-35
-57
-52
-51
-26
-38
-54
-42
-45
-52
-45
-30
-27
-46
-52
-41
-40
-56
-64
-44
-39
-46
-47
-34
-33
-37
-48
-41
-44
-48
-55
-48
-41
-56
-63
-52
-38
-45
-54
-38
-44
-34
-35
-36
-41
-39
-47
-57
-41
-40
-50
-62
-50
-51
-52
-48
-57
-62
-50
-36
-30
-42
-44
-24
-34
-50
-34
-46
-44
-43
-34
-41
-30
-34
-34
-37
-22
-34
-35
-28
-36
-41
-46
-37
-48
-52
-51
-54
-47
-30
-41
-47
-57
-45
-43
-45
-55
-52
-52
-41
-43
-48
-40
-48
-50
-41
-47
-55
-56
-47
-41
-53
-47
-34
-45
-41
-39
-44
-55
-45
-38
-39
-49
-68
-73
-72
-63
-63
-47
-49
-57
-34
-10
14
38
79
106
130
146
145
130
106
100
70
31
0
-35
-29
-9
-3
-12
-11
-29
-33
-40
-33
-45
-47
-43
-46
-42
-39
-50
-30
-41
-39
-35
-38
-41
-33
-32
-33
-36
-39
-45
-43
-38
-38
-51
-36
-31
-36
-34
-24
-34
-28
-31
-25
-22
-33
-19
-23
-28
-26
-28
-25
-39
-48
-34
-23
-29
-30
-32
-40
-22
-8
-18
-9
-12
-25
-39
-7
-9
-27
-24
-1
-5
-10
2
0
-16
11
12
-8
-4
6
4
-5
4
6
-4
-4
21
11
0
19
21
27
24
28
29
33
29
29
26
28
32
22
13
13
33
36
19
18
31
19
6
9
21
-1
10
5
-5
12
13
10
-12
-14
-4
-16
-10
-7
-18
-31
-26
-24
-20
-15
-10
-22
-28
-27
-42
-44
-13
-25
-27
-22
-31
-25
-11
-29
-31
-17
-23
-29
-38
-40
-29
-26
-24
-20
-19
-15
-14
-32
-36
-26
-30
-20
-26
-25
-25
-16
-41
-10
-16
-29
-31
-21
-23
-24
-33
-9
-15
-21
-20
-9
-18
-23
-26
-17
-17
-19
-18
-17
-22
-12
-19
-15
-21
-18
-14
-18
-16
-17
-14
-17
-16
-10
-14
-10
-25
-31
-20
-3
-21
-7
-20
-11
-4
-12
-20
-28
-14
-30
-28
-5
-13
-15
-8
-15
-21
-15
-1
-7
-9
-9
-12
-20
-15
-14
-18
-17
-26
-17
-3
-7
-14
-9
-7
-21
-20
-11
-14
-9
-15
-14
-3
-8
-12
-17
-8
-17
-2
-4
1
8
1
-5
-8
6
4
3
-10
2
-19
-14
-18
-6
-10
-6
-1
-10
-15
-19
-19
-8
-15
-25
-19
-12
-25
-11
-16
-14
-12
-10
-13
-12
-24
-19
-18
-19
-14
-27
-16
-14
-3
-4
-3
-14
-15
-8
-11
-12
-10
-11
-10
-12
-19
-18
-23
-30
-44
-44
-30
-38
-37
-33
-16
8
39
87
126
141
170
173
186
168
153
121
103
101
49
29
24
15
15
7
-9
-14
-19
-12
-2
-9
5
-6
-11
-24
-2
19
3
0
3
4
2
1
-3
-2
-2
-4
-8
-10
-13
2
17
12
4
-3
-3
-8
-7
-10
-4
-5
0
-7
16
20
7
-4
6
0
-3
15
15
18
11
12
16
8
6
12
23
24
17
20
18
9
10
21
23
20
27
23
24
18
25
30
21
15
34
30
11
50
49
47
45
44
43
57
48
41
50
47
50
50
53
55
57
77
69
62
54
56
62
54
49
40
46
54
56
40
52
58
37
27
26
34
27
29
29
10
19
19
28
32
32
24
13
10
-1
9
10
19
17
15
10
3
-3
10
3
9
1
18
18
-2
4
13
12
9
-8
7
3
17
11
5
-5
-1
-3
3
5
7
15
22
13
10
19
18
14
5
10
0
1
14
-5
11
15
15
32
21
20
7
7
20
15
22
19
27
15
21
16
8
20
21
19
18
21
25
14
16
16
26
29
20
27
35
31
27
28
24
26
21
18
16
18
21
31
44
21
31
22
23
43
47
30
24
25
26
22
18
29
24
28
33
24
39
41
32
24
26
36
22
22
26
29
41
34
25
22
29
26
34
29
38
40
43
32
27
27
44
42
28
33
39
42
42
43
43
40
35
44
52
50
40
44
50
56
47
49
46
43
38
46
42
38
24
30
30
32
30
23
26
43
47
42
33
27
26
18
28
35
44
42
39
32
43
41
30
29
22
17
28
53
36
45
54
48
37
39
40
33
38
39
20
20
9
11
0
12
1
10
66
91
112
142
183
206
226
227
227
210
197
200
179
139
105
56
60
75
67
56
64
63
66
60
45
42
44
45
37
28
27
33
47
41
32
52
55
46
52
43
50
53
48
42
33
41
41
40
60
63
55
57
68
65
69
41
47
58
54
53
50
52
54
58
68
54
58
58
48
57
61
75
52
55
75
66
58
62
72
61
65
68
65
63
87
88
66
71
77
84
84
76
80
82
84
84
93
91
92
82
89
100
102
99
98
107
112
107
93
106
104
93
99
112
110
104
99
101
103
105
98
84
80
103
102
99
98
95
80
71
83
76
83
80
65
69
70
65
58
55
52
73
75
58
53
44
48
59
55
49
63
66
53
51
55
56
52
47
52
60
44
45
48
60
59
44
23
51
56
44
42
48
48
50
41
41
46
54
49
60
50
55
54
47
32
29
45
53
38
57
61
57
67
57
40
57
46
50
61
77
70
46
54
47
