1
-6
-3
-3
3
-9
4
9
-8
0
-8
-8
1
7
-7
5
15
19
1
-2
3
-17
-31
-12
-4
-4
4
1
9
5
-6
5
-12
-5
1
-9
7
11
-5
0
-2
-17
-13
-10
-13
-3
9
18
22
0
-8
-17
-19
-22
-15
-4
0
0
11
-9
-2
-4
10
-6
-12
-18
-6
6
8
-1
0
-12
-12
-14
-6
5
23
5
5
12
13
12
5
12
9
1
-3
6
19
8
-8
-18
-3
-2
-11
-3
7
19
24
7
-7
0
0
-27
-17
-11
8
-9
-10
-7
-3
-32
-19
-6
2
1
0
10
2
1
2
-23
-29
-12
-9
-11
-11
-21
-17
0
-19
-42
-38
-3
24
38
43
89
119
144
160
157
165
162
164
161
116
90
85
52
10
-7
-37
-27
-17
-15
-18
-17
-5
6
-18
-27
-25
-28
-14
-11
-7
-2
-2
1
8
10
9
-29
-23
-16
-13
3
1
-6
-16
-11
1
-6
4
4
3
11
5
0
2
-4
-5
7
0
-11
7
12
7
-1
0
-6
-6
2
21
21
16
0
0
3
2
-2
1
9
14
26
27
41
20
27
15
20
23
12
12
26
45
63
49
34
29
22
28
34
44
56
51
48
62
53
33
35
40
50
67
82
101
61
47
32
32
32
39
47
55
58
51
47
22
20
27
24
30
29
24
30
0
7
6
12
12
-9
-2
25
33
1
-15
3
-1
-3
-15
-11
-7
-1
4
21
22
11
3
-6
-17
-6
3
-7
9
10
3
-4
4
-2
-3
2
1
0
12
18
3
16
6
6
-12
-17
-19
-8
-5
2
9
28
6
-12
-7
-4
2
14
21
7
11
26
2
-12
1
2
-3
-1
4
7
4
0
14
8
-4
4
-2
0
3
1
-11
6
4
7
-8
3
-7
4
15
10
13
-3
-1
7
-13
-5
1
5
2
6
-1
12
16
-3
0
3
-9
26
1
9
26
24
2
-13
-22
-2
1
-10
2
24
36
23
13
9
3
-4
0
11
28
28
45
24
0
-17
-15
-12
-10
5
17
22
32
13
2
-21
-22
-9
-3
-11
-8
-5
7
10
4
-12
-6
0
-1
7
14
2
7
-18
-14
-16
-15
-6
17
5
13
-19
-16
-14
-22
-23
-13
-11
16
39
63
101
114
141
162
181
147
124
129
113
75
69
63
33
-3
-17
-16
-5
-13
-18
-14
-17
0
8
-8
-10
10
-23
-13
-3
-3
8
14
5
-5
3
6
-27
-15
11
24
15
3
-1
-10
-7
-9
-10
10
29
38
5
12
11
3
-23
11
14
8
-4
22
15
11
3
14
16
3
10
24
25
26
12
17
4
12
9
4
15
33
37
38
42
34
13
21
19
14
18
42
51
63
49
54
44
5
13
27
58
71
58
68
47
53
55
54
43
50
53
55
46
57
85
54
54
50
37
47
26
35
45
64
45
38
50
18
12
6
16
26
47
21
32
22
15
7
0
-23
-2
32
21
8
36
16
13
12
-16
8
8
-9
5
13
16
20
8
8
0
8
23
24
2
-1
7
13
-8
16
4
-5
5
11
13
13
25
15
6
2
4
11
31
9
16
12
18
15
6
8
-7
11
3
24
44
12
19
11
-1
0
1
2
18
19
23
38
53
38
14
26
11
3
14
57
-10
-3
1
7
1
8
0
1
22
30
13
9
7
-5
-1
6
9
19
24
23
38
33
23
-2
-20
-13
12
18
26
60
33
15
30
3
11
10
17
19
14
22
36
47
22
27
1
20
8
6
20
26
2
13
14
28
16
6
14
-6
8
17
17
19
3
-3
-10
-4
9
6
-1
5
21
17
11
15
-3
-5
12
21
25
34
11
2
-1
-6
-27
-6
19
-3
-22
-3
23
39
42
65
75
88
104
131
153
160
155
153
125
93
96
71
42
21
-24
-20
-17
-6
-6
-17
-13
9
-14
-14
7
10
20
6
8
10
20
13
0
3
-3
16
20
23
5
-3
1
21
27
23
12
24
27
9
5
-2
-1
12
4
3
22
13
29
21
10
4
16
5
19
34
43
12
33
24
55
-4
10
5
14
20
24
15
18
26
41
36
6
13
25
10
40
43
42
45
36
39
59
52
40
40
60
60
51
46
55
51
43
53
51
53
74
65
69
59
54
55
33
48
62
66
58
48
60
55
32
39
36
31
33
29
10
40
37
26
15
27
20
-5
20
33
23
31
43
19
-22
-22
-7
6
19
31
-7
4
-21
-16
29
66
-29
-27
23
28
28
18
25
14
18
25
17
-7
19
8
9
18
26
5
10
-1
4
28
23
-3
10
19
45
41
28
-16
0
8
11
12
10
12
17
-1
17
10
5
-2
28
37
29
20
23
-6
0
17
11
6
11
5
14
21
16
17
5
14
10
7
11
3
30
26
21
16
-4
-4
-3
22
29
7
15
34
15
22
13
3
13
3
18
11
18
19
18
19
-8
12
24
14
18
20
33
40
43
28
13
-3
3
17
32
30
27
13
18
11
9
7
8
25
18
12
20
20
21
8
9
11
9
16
5
-1
24
25
46
13
10
-17
-10
2
-17
6
7
16
14
7
19
17
-9
-7
-10
-6
6
10
-1
-17
-4
38
50
69
103
119
123
133
149
135
119
105
87
84
89
79
33
24
13
-5
10
17
-16
-8
8
3
10
12
12
-1
-14
8
29
39
26
-22
12
19
14
2
-3
10
23
30
27
-4
-5
11
21
23
-2
-19
-10
16
27
27
25
22
24
13
11
-8
6
15
11
18
38
53
24
17
22
17
9
21
9
5
10
25
29
16
25
35
27
20
39
42
50
41
29
42
40
31
34
15
53
63
62
39
52
42
42
52
49
49
52
63
83
71
81
48
20
41
54
56
51
61
78
65
47
43
45
40
37
42
27
35
54
38
20
16
28
29
28
24
14
29
29
17
18
19
23
11
0
23
10
29
43
6
13
9
0
14
24
19
30
39
30
22
20
25
7
8
5
4
15
28
32
34
28
32
36
29
33
38
52
78
48
22
26
23
23
26
26
28
41
43
36
32
45
21
42
71
20
21
30
48
45
40
22
-4
22
40
42
42
58
45
55
40
62
19
12
27
23
27
43
47
47
55
41
26
16
16
20
39
52
52
35
29
45
41
9
9
28
37
49
59
34
37
29
21
46
34
40
40
49
45
32
34
40
28
19
33
8
30
46
37
31
26
27
26
36
31
41
64
43
29
27
17
33
27
32
38
40
44
45
46
37
43
47
47
46
42
38
33
31
35
21
34
37
35
40
23
15
29
24
35
35
24
22
27
33
32
26
27
28
24
36
35
29
17
30
21
35
33
48
42
25
9
3
11
8
16
17
45
72
84
102
110
131
156
166
181
197
176
164
149
113
94
93
80
29
26
25
34
41
32
23
24
9
14
19
27
24
32
35
21
22
22
22
13
17
34
38
38
54
38
33
37
19
44
40
28
34
26
30
26
21
20
14
16
19
24
30
31
44
47
41
19
15
24
24
29
28
37
50
42
25
13
17
25
41
55
65
59
31
43
46
41
35
40
29
63
58
49
59
55
40
41
52
54
74
63
65
67
67
66
71
69
71
73
51
74
85
82
72
58
61
68
61
53
67
75
75
68
70
66
44
43
34
28
54
66
38
46
51
41
26
19
20
29
24
25
23
41
47
25
20
4
-4
12
39
27
23
29
31
22
13
8
21
19
26
22
8
20
20
14
18
5
7
1
7
22
28
32
27
19
23
13
20
13
19
20
30
36
27
11
10
17
18
28
21
1
8
14
12
14
11
21
21
17
18
29
27
30
39
41
9
9
12
22
34
32
29
26
29
13
-22
-3
12
18
16
21
14
17
20
21
26
11
19
22
19
26
16
13
27
27
-2
-12
7
30
35
32
14
12
20
14
3
-3
2
-2
12
15
33
53
37
15
1
30
29
5
5
15
14
13
15
9
3
9
12
36
48
33
13
8
17
9
-22
-1
-4
1
7
20
37
42
37
19
-8
-10
6
5
1
6
14
27
20
11
12
18
26
23
26
27
32
27
8
-17
-13
-21
0
20
15
24
34
32
27
22
25
35
16
12
29
41
28
4
9
4
-4
1
6
14
30
21
8
17
12
12
14
6
5
-4
19
30
15
11
-4
-10
-8
-3
-5
10
26
26
20
7
9
0
-15
-5
1
-20
-10
-5
12
3
7
25
26
47
83
132
165
177
205
215
173
169
139
118
110
74
74
51
34
18
5
-8
-19
-21
-16
-13
0
-1
15
24
16
2
0
8
-3
-12
-7
20
19
14
13
-6
-1
16
9
-10
-15
-2
4
10
29
15
-4
-17
12
13
16
14
4
1
2
1
-8
-5
10
5
21
14
17
6
2
6
-12
-4
10
13
13
39
29
25
18
5
6
5
18
17
19
20
8
1
22
49
40
36
37
51
40
42
39
48
55
45
37
42
47
62
67
66
75
60
47
46
46
47
56
62
58
48
57
52
46
45
32
42
40
43
47
33
26
16
17
12
1
11
16
16
13
22
31
13
-18
-30
-5
15
8
7
6
15
21
19
0
-20
-6
-6
-2
3
9
-3
17
23
11
19
-8
-41
-19
0
3
8
-3
-8
-10
-10
-11
-17
-1
8
9
5
11
5
-20
-13
-5
0
2
-1
16
17
0
-3
-8
-7
-5
1
4
10
9
5
-3
-2
-12
-10
-10
9
13
31
19
5
-9
-12
-1
-8
-11
-4
-7
-7
1
19
20
-6
-17
-11
2
9
17
11
-1
-10
-4
1
-9
-12
-3
-11
2
14
12
6
6
7
-12
-11
-12
-10
-5
-3
-3
-6
-12
-5
-2
-9
10
6
-13
0
3
5
-13
-14
-9
-13
-6
0
2
5
5
13
15
1
6
-4
-7
7
3
8
15
25
8
-20
-38
-15
-4
16
-2
2
21
14
-3
-8
-11
6
24
15
33
29
19
-9
-7
-12
-16
-18
2
17
23
17
3
24
-18
-14
-6
-15
-14
-15
-9
-5
12
6
-9
-17
-15
-15
-7
-9
-6
1
26
30
1
-16
-19
-36
-22
-23
-40
-22
-3
-12
-9
7
16
44
80
121
179
167
155
181
188
189
175
125
99
71
70
49
18
3
-16
-28
-15
-4
-17
-17
21
6
-11
-4
-2
-9
-21
-14
-1
-7
-8
19
28
22
-17
-12
-1
-7
-5
-1
0
0
-1
-9
-16
-20
-7
-3
-3
7
16
13
21
11
-1
-4
0
-7
1
6
20
19
7
15
7
-4
-20
-11
3
58
46
3
21
17
2
-8
-2
-2
-8
23
42
40
39
27
29
21
21
39
28
26
58
48
46
44
28
24
41
58
69
67
33
50
58
45
32
38
53
55
42
41
58
53
71
57
30
33
27
13
23
26
19
25
13
11
6
0
24
14
9
11
34
35
3
7
1
-17
-6
-6
-43
-30
4
15
14
6
-27
-32
-22
-6
-16
-13
-19
-18
-7
-11
-13
-22
-13
6
-14
-17
-8
-19
-13
-17
-15
-10
-4
-2
4
2
1
-10
-10
-9
-25
-36
-21
-17
-14
-12
-6
7
12
-9
-18
-23
-17
-21
-13
1
0
-11
13
8
-27
-17
-14
2
1
-3
0
-40
-17
-15
-9
-16
-16
-20
-13
-15
-13
14
1
-3
-28
-14
-7
5
28
16
-1
-11
-25
-10
-18
-28
-19
-3
-5
-10
17
-2
8
12
-4
-38
-33
-25
-16
11
24
17
36
20
11
0
11
-12
-20
-1
1
10
21
-5
-27
-28
-12
-23
-20
-6
0
3
1
2
-8
-18
-6
-22
-45
-34
-22
5
6
12
15
-36
-35
-32
-1
-4
-14
0
1
-39
-36
-40
-36
-42
-33
-33
-28
-18
-21
11
33
42
86
101
123
153
185
186
172
177
148
106
88
73
9
-5
-15
-17
-6
-5
-18
-34
-57
-58
-49
-38
-26
-27
-16
-13
-22
-31
-38
-25
-18
-16
-14
4
5
-24
-24
-16
-7
-3
-24
-56
-15
10
10
6
-8
-18
-26
-18
-27
-16
-10
-20
-8
-15
-17
-29
-18
1
-10
-4
-4
20
4
-31
-39
-15
8
-3
4
2
2
-21
-20
-5
-9
-20
-12
-4
5
9
14
9
4
-16
-13
1
8
2
23
3
30
29
33
13
8
3
21
19
14
34
44
24
13
21
15
21
-9
-1
13
4
5
4
14
-13
-27
-30
-10
-25
-20
-27
-39
-18
-24
-20
-33
-47
-52
-40
-36
-58
-42
-30
-15
-44
-57
-41
-44
-53
-43
-48
-48
-57
-76
-68
-48
-68
-66
-55
-45
-38
-32
-43
-45
-35
-55
-64
-74
-73
-64
-62
-53
-35
-41
-44
-63
-81
-52
-60
-59
-43
-25
-28
-64
-61
-72
-71
-66
-60
-70
-53
-51
-45
-50
-61
-57
-71
-67
-52
-67
-53
-40
-32
-44
-70
-60
-52
-63
-53
-61
-67
-63
-53
-48
-61
-68
-48
-59
-64
-63
-60
-41
-53
-56
-66
-69
-69
-75
-78
-70
-43
-11
-33
-46
-62
-68
-79
-56
-85
-83
-80
-51
-51
-48
-61
-82
-66
-76
-79
-60
-49
-40
-37
-48
-84
-78
-75
-83
-76
-52
-35
-46
-61
-69
-60
-71
-80
-74
-83
-69
-46
-34
-50
-62
-63
-79
-74
-78
-75
-61
-63
-39
-23
-36
-28
-94
-109
-103
-66
-13
-46
-61
-45
-65
-78
-82
-57
-60
-95
-92
-44
-65
-50
-70
-79
-79
-82
-66
-68
-76
-56
-72
-80
-65
-64
-84
-94
-100
-65
-81
-62
-54
-47
-90
-105
-105
-86
-105
-88
-79
-70
-85
-83
-79
-82
-50
-29
15
52
86
118
132
149
138
132
100
34
19
8
-14
-33
-41
-90
-88
-98
-103
-89
-97
-89
-86
-103
-72
-69
-78
-86
-90
-90
-91
-83
-67
-37
-45
-74
-83
-88
-78
-80
-75
-53
-65
-64
-56
-35
-55
-91
-93
-106
-79
-72
-51
-65
-85
-71
-76
-90
-93
-63
-42
-50
-43
-28
-63
-68
-66
-86
-79
-72
-74
-65
-75
-89
-24
8
-54
-63
-50
-54
-64
-56
-26
-39
-33
-21
-42
-51
-72
-57
-41
-28
-24
-22
-17
-34
-23
-34
-43
-4
13
4
7
3
-3
-6
-21
-28
-33
-5
3
-9
-3
-8
-11
-14
-18
9
-18
-33
-24
-22
-29
-33
-39
-46
-66
-62
-56
-44
-30
-32
-29
-10
-4
-67
-87
-90
-59
-70
-59
-74
-61
-52
-64
-56
-63
-67
-49
-56
-58
-50
-39
-52
-65
-62
-78
-70
-62
-63
-61
-38
-45
-61
-72
-67
-60
-69
-68
-61
-40
-26
-27
-51
-55
-60
-61
-65
-65
-50
-52
-54
-40
-46
-41
-55
-48
-51
-54
-59
-33
-39
-33
-19
-28
-38
-62
-63
-66
-83
-49
-29
-26
-41
-49
-56
-64
-61
-39
-46
-51
-59
-44
-31
-42
-36
-34
-63
-50
-43
-42
-48
-57
-62
-58
-48
-55
-53
-52
-39
-26
-23
-34
-30
-52
-66
-57
-46
-36
-22
-11
-41
-30
-28
-53
-50
-36
-38
7
-33
-18
-41
-36
-35
-60
-60
-53
-39
-37
-38
-23
-40
-35
-54
-49
-61
-71
-82
-45
-47
-36
-44
-46
-47
-42
-76
-92
-46
-37
-47
-36
-41
-37
-54
-61
-64
-72
-59
-56
-53
-60
-48
-52
-58
-56
-77
-96
-67
-43
-33
2
14
36
60
90
114
125
128
134
136
115
96
58
1
-10
-41
-55
-82
-82
-71
-56
-57
-71
-58
-83
-84
-65
-64
-55
-53
-52
-47
-41
-36
-45
-56
-53
-57
-65
-58
-51
-54
-38
-30
-45
-45
-40
-40
-45
-37
-10
-32
-40
-48
-55
-41
-51
-44
-35
-23
-15
-4
-22
-39
-45
-42
-42
-41
-34
-33
-20
-18
-27
-32
-30
-22
-20
-1
8
33
-18
-34
-31
-22
-21
-23
-37
-24
-11
-14
10
30
13
-7
10
5
-3
10
10
31
32
27
22
26
37
17
42
16
26
28
25
38
42
50
56
15
4
7
16
26
23
18
8
8
-3
-7
-6
1
-3
-8
-3
-7
-3
0
-10
-24
-9
-22
-19
-6
-28
-11
-17
-21
-21
-19
-6
-14
-1
7
-3
-6
-15
-20
-32
-28
-35
-23
-9
-19
-21
-11
-20
-48
-49
-22
4
10
-1
-4
-23
-20
-20
-12
-30
-32
-18
-13
23
16
15
-14
-25
-22
-32
-27
-29
-16
15
-5
-5
-9
-13
-21
-18
-8
7
-14
-2
11
-2
-10
-20
-24
-20
-26
-24
-17
-8
-8
5
12
7
-16
-9
-37
-22
-4
-17
-26
-3
-8
-5
-3
-49
-47
-22
-12
-5
-1
14
6
3
-3
-27
-14
-13
-3
15
14
-36
-20
-29
-27
-31
-24
-4
12
27
25
20
-19
-24
-15
-11
-19
-12
-17
-20
-22
-16
-6
8
-4
-12
-21
-12
11
-14
-3
-22
-25
-33
-36
-36
-44
-33
-22
-15
5
10
6
-25
-25
-16
-31
-42
-29
-6
-14
-31
-41
-30
-36
-60
-49
-13
3
28
40
82
100
115
129
155
162
173
178
169
162
98
68
36
14
-19
-25
-35
-30
-15
-9
-17
-27
-46
-49
-40
-30
-12
-6
-10
-24
-21
-22
-23
-43
-32
-4
-4
-1
-2
6
3
-13
-14
-20
-15
-27
-12
-6
-13
-9
-9
-11
-1
-27
-23
-14
0
-7
-5
8
19
34
-14
-26
-28
-24
-16
-3
0
22
12
2
-11
-8
-10
-14
15
28
30
20
16
12
-2
22
10
13
15
26
35
45
41
30
12
11
22
39
47
48
58
54
35
47
54
51
30
38
57
65
58
52
56
45
39
49
49
67
41
46
35
41
35
29
22
6
9
21
28
25
35
21
0
4
1
0
0
2
-1
-9
6
6
4
-9
-7
-2
-19
-15
-2
2
11
13
15
6
-18
-20
-14
-8
-1
-2
-4
10
8
0
-9
-12
-8
-3
12
-8
1
18
16
34
1
15
-29
-42
-10
-7
-1
-6
-10
-26
-30
0
-6
-5
1
9
15
7
4
9
-11
-19
-9
1
-1
2
1
6
-10
-15
-19
-9
-2
-1
2
5
16
19
33
25
16
-13
-20
-7
-4
0
0
-6
-6
-8
-10
-5
-7
-8
-2
26
17
31
7
-16
-11
14
14
-5
6
10
24
25
29
3
-2
-12
4
5
17
32
16
-3
7
-15
-37
-37
-3
5
10
-6
7
-2
-6
-14
-13
-15
-14
-17
-8
3
10
11
18
6
-20
-27
-27
-12
2
3
-5
-9
-25
-30
-38
-54
-36
-29
-18
12
35
58
32
65
102
137
161
181
191
211
221
173
123
77
53
45
31
14
-3
-10
-9
-4
-7
2
16
-20
-41
-31
7
-10
-19
-16
-9
-19
-12
-18
-18
-8
0
-7
-2
0
-17
-19
-8
1
0
16
17
-10
-1
-2
-16
-25
-8
-9
-9
4
9
12
16
6
9
7
-12
-3
-3
4
17
12
5
13
-5
-12
-4
5
16
9
27
29
21
14
22
25
18
15
16
23
17
40
47
37
33
2
16
30
40
54
51
69
73
58
53
38
48
56
66
65
77
87
61
66
44
39
53
58
51
58
63
56
49
33
24
29
23
33
23
37
34
36
36
32
19
2
-1
10
9
18
9
6
12
16
6
-1
-8
3
6
0
-5
6
5
10
19
41
5
-13
-1
3
5
6
7
2
-7
-3
-6
13
12
-8
-8
13
4
8
-4
-5
-2
5
18
53
44
40
-13
-19
-12
-5
-7
0
10
14
15
20
9
-2
-3
-10
-1
9
8
22
24
24
26
9
21
9
-5
33
24
15
20
11
-2
-8
-12
-6
-4
-3
9
14
16
25
32
37
29
33
6
-5
2
14
22
14
18
11
-3
8
10
11
18
18
19
25
39
75
54
35
58
63
44
43
51
42
37
25
19
28
33
40
32
46
33
30
21
4
15
5
-15
20
41
31
36
34
34
31
23
20
21
36
42
32
32
32
31
6
9
27
31
33
23
6
2
14
17
-7
-8
11
32
67
96
129
146
184
187
196
216
218
218
211
188
148
116
87
67
42
34
11
-10
2
30
20
21
15
11
9
22
21
26
22
30
28
12
25
18
13
17
39
45
34
34
26
35
39
13
19
25
26
25
27
29
31
30
27
25
21
25
40
66
98
60
42
16
20
20
21
20
27
28
31
44
66
52
44
40
21
24
34
63
66
60
67
62
48
62
61
48
36
54
60
75
81
81
66
76
77
75
67
69
81
86
70
81
80
80
80
77
69
81
92
93
81
86
98
84
70
86
62
73
76
81
71
70
76
53
23
39
50
47
69
61
47
43
32
23
24
21
43
37
42
27
37
39
26
26
17
24
18
30
51
29
42
34
23
11
-2
13
17
22
36
41
26
39
30
13
22
33
24
22
43
55
67
46
15
14
0
6
12
26
40
39
30
28
31
20
25
29
39
27
39
38
39
35
36
23
14
25
22
24
30
45
44
28
19
24
44
45
21
48
22
16
37
34
28
13
17
20
26
45
31
35
43
31
25
37
16
27
43
63
34
26
28
22
32
21
17
18
31
42
61
51
48
41
46
9
21
24
38
48
55
57
52
45
25
11
14
16
24
25
21
31
32
29
22
11
24
16
20
32
36
48
48
15
6
13
26
28
29
23
36
38
20
18
-5
0
4
12
14
3
7
34
25
4
0
12
24
41
58
98
136
169
190
189
205
223
226
216
191
169
128
116
78
50
18
-1
7
2
-2
16
33
44
27
1
2
9
7
-2
21
23
29
40
32
16
8
19
28
40
74
23
12
36
36
9
11
17
14
2
6
33
45
49
42
38
43
24
20
26
40
48
55
39
31
29
33
27
27
31
40
48
46
40
42
45
38
38
55
51
65
59
65
70
62
34
38
53
54
63
69
70
71
79
67
62
76
73
63
74
75
92
98
101
86
92
86
94
81
80
97
106
95
86
72
67
63
62
81
93
82
65
66
79
77
56
46
39
42
46
47
55
53
52
48
31
24
24
36
47
58
45
48
25
18
9
22
26
43
43
51
44
41
48
36
21
20
19
31
60
29
41
40
24
7
9
27
42
50
38
54
35
25
33
20
24
16
37
37
35
42
46
53
47
16
2
17
21
35
37
41
45
46
44
34
34
28
33
22
35
38
65
83
49
37
15
13
10
22
35
34
35
40
42
34
26
24
23
29
40
41
44
40
27
25
17
17
35
37
37
43
61
63
66
40
29
40
21
27
33
40
40
32
29
19
20
20
36
35
45
50
54
56
49
38
25
36
50
45
38
44
47
46
38
30
29
24
21
25
29
37
54
45
21
9
18
16
27
33
39
36
40
52
51
43
0
24
21
30
34
46
46
40
33
25
16
8
22
28
15
24
30
35
46
33
73
63
108
153
201
223
247
252
250
244
211
193
131
107
112
80
43
19
17
15
16
14
18
14
29
48
45
17
11
21
21
30
34
36
48
82
67
47
27
33
25
12
26
31
36
49
56
53
50
44
46
25
32
36
60
52
45
50
31
27
38
44
45
46
50
58
59
67
94
76
3
20
50
47
55
54
63
60
57
46
63
77
81
75
67
71
78
52
54
71
61
55
68
92
92
93
95
92
79
98
123
97
85
87
99
97
96
96
87
85
95
106
95
103
119
102
96
110
85
74
82
74
83
83
68
78
64
69
60
63
74
49
55
43
62
66
63
62
52
51
43
59
48
43
44
44
39
43
36
36
45
33
47
45
60
64
60
47
49
33
38
28
37
42
46
63
64
40
44
52
31
42
40
60
65
66
48
44
39
46
54
54
51
50
55
84
88
52
37
33
34
44
61
64
65
70
63
60
50
50
56
70
75
69
63
53
63
56
56
53
43
48
55
67
83
69
62
49
41
42
56
58
74
55
41
64
57
49
43
42
43
52
53
53
70
83
86
62
66
62
72
48
45
62
63
62
61
56
42
58
70
97
84
84
84
72
74
67
66
78
68
65
61
69
76
69
72
71
44
47
49
72
74
69
63
67
64
61
79
49
46
44
50
56
50
63
53
42
55
64
44
53
67
66
61
56
50
47
42
18
30
41
55
57
77
104
116
141
146
180
213
231
246
249
241
220
184
121
115
116
87
63
61
40
36
33
49
45
27
20
38
51
57
60
69
70
55
53
45
48
63
78
95
81
73
53
30
36
48
52
59
59
59
65
95
103
57
44
52
50
71
61
67
69
77
67
50
47
65
63
40
84
105
83
75
67
56
52
69
71
61
69
97
108
98
90
79
54
79
87
102
83
85
85
93
105
94
82
91
101
105
93
82
80
115
103
88
113
138
122
125
125
118
101
116
112
96
68
94
160
141
127
121
131
120
104
91
84
76
88
91
101
99
95
73
68
52
48
38
41
45
62
75
66
80
77
78
63
60
54
53
78
103
90
77
41
60
33
74
54
51
69
62
56
76
84
66
73
56
69
58
70
91
47
62
67
76
84
73
77
64
75
69
52
41
70
66
60
66
48
63
90
78
70
50
45
51
57
52
78
80
62
65
71
59
47
50
56
68
77
75
80
81
84
54
52
49
45
55
55
53
70
82
78
72
44
42
55
59
70
82
88
60
63
53
34
47
65
60
53
57
87
103
85
66
48
51
52
52
45
63
84
87
75
71
68
62
56
60
64
68
95
111
59
48
59
71
82
65
64
64
63
66
63
50
62
57
58
48
48
55
64
61
64
38
41
65
64
59
62
73
77
70
76
68
55
68
47
33
37
31
35
57
61
35
33
32
43
77
78
98
98
117
154
165
180
202
243
192
198
192
167
139
153
114
84
71
62
45
39
38
41
60
49
69
25
21
46
69
50
73
63
63
55
49
47
51
42
48
68
67
83
84
51
42
37
39
19
52
61
72
77
71
68
72
86
47
40
57
66
72
72
72
65
63
67
81
57
70
66
63
77
82
81
70
55
62
56
49
71
90
95
85
83
70
60
76
71
86
86
81
97
88
101
89
93
100
92
90
118
107
100
124
114
84
77
83
102
112
97
105
119
110
104
102
88
92
81
90
94
89
80
81
91
87
82
72
66
76
77
60
79
84
62
63
58
51
49
44
49
81
71
54
63
71
87
27
31
31
55
64
68
93
58
60
36
39
55
52
51
50
61
101
68
43
45
55
43
49
77
84
58
47
42
65
55
44
62
59
70
82
76
73
68
29
13
39
69
85
54
78
82
49
57
41
35
42
41
46
81
77
62
65
60
68
57
73
51
45
55
74
93
54
28
40
36
29
44
48
57
61
78
68
55
61
57
70
70
60
61
56
77
70
51
29
50
49
67
61
66
81
71
94
49
24
46
43
49
57
70
74
76
74
52
42
38
44
47
64
79
83
72
60
37
7
40
47
54
81
74
55
52
26
34
34
33
40
74
79
56
68
38
32
32
31
29
27
45
51
50
51
38
27
-1
49
44
71
94
118
148
166
181
168
166
169
163
166
143
131
130
131
105
65
40
33
32
32
30
39
60
54
39
42
27
32
30
43
44
75
56
60
48
56
59
25
31
49
48
33
46
54
65
83
53
62
27
40
49
55
56
47
27
40
57
52
49
57
65
50
63
67
56
51
50
50
50
58
62
60
59
91
72
56
61
79
91
87
66
57
85
88
59
69
75
69
70
77
79
96
106
107
93
92
79
85
83
95
98
105
102
113
113
85
89
110
97
93
98
105
117
109
100
108
82
85
79
86
95
66
88
86
87
70
76
74
68
76
66
82
88
79
81
70
90
94
79
72
69
82
85
74
70
58
48
47
38
59
83
85
80
81
70
64
51
70
59
72
55
75
103
77
64
59
77
65
56
76
80
64
83
85
84
58
68
78
63
54
61
82
78
71
62
54
55
60
68
69
65
79
105
95
90
83
65
53
45
52
68
80
76
74
62
55
58
71
66
66
84
98
95
85
102
97
31
39
56
49
62
55
71
81
67
51
47
58
67
68
78
87
82
86
98
105
84
69
41
60
55
59
72
82
78
73
67
69
78
70
67
97
85
85
120
71
31
33
44
57
59
79
88
64
65
58
59
76
52
59
69
69
71
66
73
80
85
59
54
55
72
79
55
58
33
49
51
44
49
49
48
65
59
52
56
74
94
109
137
110
149
153
179
190
182
181
182
168
152
130
118
110
89
71
60
60
75
92
75
48
48
58
55
51
40
51
49
58
71
78
67
69
72
63
65
61
61
69
70
71
63
46
49
57
48
45
49
64
66
74
98
108
113
56
51
50
68
55
68
84
68
71
69
53
53
59
69
73
76
79
74
88
87
74
68
81
79
84
101
96
75
73
71
59
71
76
66
74
107
115
102
113
118
129
93
64
85
101
117
128
120
97
109
99
91
94
99
98
110
124
122
115
110
98
109
83
93
101
78
81
91
79
89
82
56
73
67
77
95
78
84
69
68
63
59
53
59
74
92
84
70
52
39
40
35
34
56
73
72
88
98
63
49
47
50
52
55
53
69
71
80
78
52
54
62
78
32
43
64
70
74
65
65
58
57
69
96
64
61
48
46
51
55
49
58
52
55
74
73
63
71
65
61
53
64
66
56
65
68
71
52
64
81
50
46
73
74
67
64
66
89
41
39
22
36
59
52
67
68
72
65
61
53
37
45
61
81
78
61
79
68
53
18
31
56
45
55
57
73
79
79
80
51
51
26
40
55
64
57
71
55
62
46
26
34
74
67
63
59
66
79
55
53
42
31
39
47
57
66
98
19
25
55
43
45
41
52
64
64
73
65
54
37
43
49
49
57
65
79
64
56
71
65
49
39
43
53
59
71
76
85
78
69
46
47
50
51
44
73
76
51
44
52
55
45
39
54
64
75
70
58
47
41
35
30
43
60
73
58
69
55
41
17
25
49
58
64
58
60
70
63
41
26
20
30
26
23
37
47
49
67
74
85
106
132
162
185
209
210
205
206
181
156
125
103
105
96
70
47
50
46
48
36
23
28
32
44
54
57
71
73
73
40
24
36
43
46
54
57
58
51
43
29
22
38
50
46
62
83
94
96
42
33
34
44
51
50
48
56
54
59
48
31
33
41
41
50
70
84
80
74
82
44
33
45
54
62
73
58
50
67
65
46
54
54
61
70
85
97
94
85
78
68
82
72
74
85
80
82
87
95
78
83
81
70
89
94
97
105
99
98
107
96
91
94
97
103
95
87
97
93
76
90
75
82
85
55
66
76
81
75
86
70
70
67
47
48
55
38
55
38
41
49
39
43
56
54
58
60
51
41
44
49
69
76
62
57
40
39
42
40
45
33
33
50
45
51
54
62
65
60
50
35
39
39
46
69
38
54
42
31
30
39
52
55
52
56
66
56
66
61
75
50
41
52
40
52
59
57
40
28
39
40
38
47
48
62
61
56
64
47
39
36
30
42
48
53
55
48
56
50
56
44
33
33
36
48
63
74
89
38
39
28
26
36
36
53
57
58
41
24
15
28
58
53
54
63
72
59
48
28
24
28
27
34
41
41
52
48
44
39
34
52
64
66
64
39
47
49
35
24
24
21
29
42
49
49
54
57
62
42
17
26
41
49
67
54
57
35
27
13
26
25
30
41
48
51
47
47
44
42
59
56
69
64
36
33
49
38
31
37
37
39
40
48
51
63
67
74
37
39
39
26
42
60
68
57
66
62
44
35
30
29
45
34
41
64
60
38
42
39
27
31
46
57
58
49
50
47
60
17
8
20
35
40
57
45
32
38
42
40
46
32
31
27
20
22
24
16
8
21
41
58
87
115
151
178
227
212
189
179
184
162
157
121
113
107
99
59
16
22
21
17
23
36
43
34
44
53
27
29
35
24
35
43
40
48
55
60
32
20
35
39
47
46
37
45
52
31
19
35
33
30
41
53
61
48
41
58
31
33
27
30
43
48
43
55
48
42
44
44
58
54
56
62
50
63
50
37
33
29
46
52
56
63
75
69
81
58
65
76
38
48
71
79
71
68
72
69
63
69
74
78
92
90
78
104
106
95
78
79
71
77
84
88
88
88
110
99
88
66
91
84
68
64
78
81
72
56
60
53
38
48
51
56
65
66
68
46
28
25
9
32
47
40
43
44
43
34
30
37
46
66
29
24
36
34
22
33
35
30
37
41
72
49
22
39
26
32
38
32
16
24
45
50
50
45
15
14
26
37
37
38
50
61
52
63
52
29
24
4
31
54
67
52
34
41
42
18
20
27
26
31
42
44
39
45
33
22
30
34
29
43
51
47
40
37
40
45
29
22
31
40
34
43
50
49
44
44
46
47
22
22
34
40
44
27
27
23
37
29
29
26
35
59
40
43
32
9
10
18
36
45
46
67
73
33
17
12
16
23
29
39
46
41
50
51
40
20
13
32
28
37
41
49
39
37
33
28
24
28
32
29
34
45
41
35
29
10
8
22
42
48
64
58
59
28
27
29
13
32
53
46
36
62
33
30
33
19
19
26
30
38
54
57
50
46
41
35
36
31
40
42
46
53
50
48
45
67
40
21
33
41
52
54
46
30
31
22
38
29
29
39
31
37
32
42
22
31
32
22
36
47
45
43
25
28
18
28
28
24
24
48
50
25
23
31
-7
-3
1
20
43
66
66
102
133
149
159
179
200
205
196
202
181
158
125
107
89
52
30
38
31
10
36
46
10
6
24
-2
16
35
21
29
40
32
39
35
20
14
13
26
42
38
41
41
32
36
33
45
49
39
38
36
36
27
32
23
31
25
36
40
48
44
48
53
25
18
28
42
41
37
32
35
57
48
45
46
31
37
42
42
53
66
62
75
52
47
64
40
38
51
55
71
72
81
58
50
51
67
74
78
77
79
92
97
79
76
73
75
73
80
89
111
98
90
88
85
82
55
64
84
94
91
84
76
75
63
45
58
52
51
67
73
81
56
35
29
31
24
28
37
42
46
47
43
26
28
28
25
41
41
47
42
49
44
20
29
27
-2
8
22
34
42
68
45
27
44
30
25
20
29
38
51
30
24
22
18
21
28
42
45
30
30
46
50
39
25
36
30
14
20
43
28
38
40
37
23
21
38
48
39
63
48
33
40
36
23
28
24
34
36
42
50
39
34
38
29
20
36
35
31
46
52
35
34
40
32
28
55
37
25
32
33
28
20
13
23
35
48
58
27
44
49
32
30
19
17
6
17
28
31
32
37
46
45
21
29
25
36
51
54
53
34
26
28
19
23
27
22
26
33
48
50
40
28
30
19
11
24
23
22
39
49
42
19
32
22
15
19
24
39
44
45
60
54
46
16
43
27
15
19
37
41
34
33
21
26
29
32
40
57
42
39
44
38
35
23
20
38
61
71
29
28
35
21
20
24
21
25
44
38
42
41
27
39
16
-6
12
27
22
32
27
30
25
18
11
15
17
28
29
37
45
30
9
-8
0
-4
-5
5
31
49
77
119
140
150
165
197
211
209
207
218
199
157
95
67
46
25
12
15
16
22
25
9
3
1
7
13
12
19
31
32
30
30
25
20
23
25
17
24
27
34
26
44
37
0
14
23
38
54
23
32
46
25
12
12
19
18
18
28
38
41
34
27
35
13
10
30
24
39
41
42
46
44
33
28
39
44
50
37
45
64
63
38
36
34
41
48
42
47
41
53
64
65
58
59
68
84
69
60
69
79
80
81
72
72
72
92
78
67
87
79
80
85
93
81
89
85
80
80
82
78
69
62
53
39
50
48
44
50
59
54
60
40
45
32
20
22
20
23
33
37
39
37
27
16
19
31
14
37
34
29
39
35
15
8
4
14
14
8
32
46
50
38
21
30
13
16
17
14
18
33
52
37
13
13
14
13
19
16
31
32
36
34
35
25
19
26
28
38
32
36
40
32
18
16
15
22
32
37
51
58
32
8
-1
2
1
11
25
29
26
34
32
24
17
11
21
16
23
30
29
38
34
31
23
8
13
32
13
21
46
56
41
33
4
9
12
22
26
24
27
32
29
28
12
-4
21
28
15
24
22
22
28
26
15
13
20
18
27
35
19
26
23
24
17
-1
12
15
29
27
24
19
28
30
34
32
18
17
31
43
34
40
40
3
14
17
11
24
15
31
44
33
37
42
27
24
28
30
27
42
38
39
44
18
6
6
3
10
16
25
35
36
27
15
-3
1
13
9
22
29
27
27
17
6
-2
2
5
12
21
22
28
28
16
5
-9
0
-14
0
10
9
15
40
51
77
94
121
140
168
195
213
208
208
186
147
103
88
70
67
36
-8
10
23
5
-20
-25
-17
-8
5
12
21
30
32
23
43
-5
-6
4
11
17
23
22
16
16
15
6
5
16
16
24
21
21
26
19
12
7
6
14
20
35
24
22
23
36
9
6
9
22
44
55
18
21
26
22
10
18
14
21
37
31
32
40
36
26
37
44
44
38
39
50
48
50
50
47
44
34
48
63
64
73
67
64
65
68
59
65
72
72
65
75
85
112
86
79
64
79
69
61
68
75
72
69
65
73
72
50
55
53
48
55
50
52
35
28
25
15
21
31
37
35
52
42
32
17
10
8
5
22
24
20
16
28
22
6
2
-1
14
17
25
35
43
51
22
8
9
-10
2
17
13
20
34
31
23
18
-2
9
17
16
17
22
31
21
17
25
16
31
24
17
34
44
20
20
17
15
13
-9
2
15
18
19
23
23
18
5
7
18
24
25
65
18
7
22
17
20
5
-10
1
14
25
29
33
24
22
4
8
9
5
16
23
27
31
40
17
10
9
7
3
1
18
21
21
20
6
6
13
22
1
9
20
18
29
16
18
1
-1
5
17
19
19
15
24
29
27
20
18
17
-2
15
28
28
33
22
19
23
24
43
30
30
17
16
28
29
16
14
3
5
16
2
18
21
12
5
1
-3
-11
0
14
8
17
21
29
22
8
-5
-12
-1
3
9
7
23
14
23
40
-3
-25
-17
-21
-16
-9
-3
3
16
21
42
76
110
126
164
186
207
220
214
201
170
123
93
76
69
42
20
14
1
-18
-19
-31
-22
-15
-6
0
14
13
13
-2
4
0
14
8
29
20
18
6
7
-2
-6
3
1
9
20
19
19
10
13
2
5
19
29
18
6
24
33
22
8
-3
-4
-1
16
24
31
43
22
39
14
-10
5
22
23
24
26
21
27
26
14
23
19
25
35
38
41
38
55
42
36
30
28
33
48
65
74
70
62
70
58
42
41
47
57
58
76
88
89
81
72
63
70
55
77
91
81
76
63
58
50
47
33
36
41
49
57
51
46
39
33
18
26
30
36
41
28
27
26
24
13
6
6
1
11
14
19
28
26
11
9
14
13
9
11
9
15
22
25
17
9
-4
-4
3
9
19
33
28
36
36
19
9
4
-4
4
19
22
26
16
13
20
8
16
-1
9
21
17
21
27
17
1
-1
16
25
13
16
25
26
27
17
2
12
22
13
22
42
15
14
20
20
5
-8
2
10
21
21
17
31
34
29
10
16
14
-1
13
16
18
22
16
10
11
13
15
17
27
27
23
25
26
16
14
20
26
27
46
38
32
39
32
21
11
32
20
32
33
29
14
17
23
25
18
-8
-6
2
10
14
30
25
14
15
8
-2
1
7
12
11
13
20
14
24
-6
-11
17
16
14
18
19
7
-3
-13
-16
-30
-24
-18
7
19
53
81
99
103
137
175
192
211
236
235
203
182
127
97
53
33
16
-3
-4
10
14
12
3
-11
-21
-19
1
8
14
23
20
21
-1
-9
-7
-3
10
13
11
16
16
18
21
8
3
11
11
8
12
21
38
21
17
9
9
2
4
18
30
24
27
31
39
19
-2
11
12
17
36
30
35
24
34
23
18
26
22
20
26
40
41
36
16
24
30
30
37
45
55
57
71
59
51
39
46
50
63
76
66
70
76
72
59
54
60
60
66
71
80
89
96
95
62
71
59
56
64
68
75
78
72
57
51
54
46
33
44
44
56
56
38
26
17
13
11
20
12
31
30
30
32
22
16
4
-13
2
14
32
42
31
29
15
3
1
2
24
9
13
23
32
21
18
15
8
16
14
18
25
25
36
29
26
12
8
5
9
17
33
31
36
24
26
21
16
24
6
11
19
29
43
31
21
15
4
17
24
27
28
42
45
39
13
3
14
-6
7
10
12
31
46
33
24
12
13
18
32
35
40
30
14
29
31
18
17
12
13
27
34
44
42
39
26
22
27
18
17
28
34
41
27
37
31
10
2
-18
17
28
17
22
34
36
27
5
0
-1
8
17
22
22
12
3
-1
-8
-1
-2
10
24
25
27
3
3
-1
-10
-17
-18
-16
-7
-4
23
9
24
48
83
98
101
153
191
220
220
223
228
190
138
95
76
55
39
24
8
-13
-5
1
-13
-13
-4
31
23
9
12
-6
-10
-11
-5
-11
2
7
8
21
23
16
4
2
9
3
8
9
18
22
12
15
13
-5
-7
8
20
9
18
28
27
37
41
14
-15
7
3
13
10
29
29
32
48
31
-2
14
10
15
19
27
30
26
25
10
10
20
49
52
50
62
67
42
38
46
50
42
46
48
60
44
64
54
47
54
54
64
68
64
81
98
94
59
60
52
66
59
63
71
81
67
72
76
63
51
47
71
40
39
61
60
33
39
42
29
22
27
12
1
16
19
27
26
18
-4
2
15
17
3
7
35
33
28
14
1
0
7
-1
6
9
29
24
26
13
21
22
25
16
28
12
27
50
34
23
-3
-14
27
8
18
14
23
21
12
8
10
-1
5
10
16
19
25
29
12
6
2
25
10
22
19
35
22
15
26
32
8
9
15
28
-2
16
22
23
10
6
-3
3
7
17
19
24
30
33
25
16
18
15
22
44
37
18
35
41
47
38
8
-4
7
26
17
15
15
13
14
-2
1
16
17
17
22
7
29
17
3
-7
-13
-7
10
8
13
6
3
-2
3
-5
-4
-2
0
16
29
27
17
5
-23
-28
-30
-24
-11
-9
20
47
97
124
132
147
182
212
227
233
247
227
201
148
98
82
31
10
-14
-20
-15
6
28
-11
-31
-14
4
-19
-3
7
8
10
9
13
5
-9
-23
-8
3
13
13
19
21
18
-1
6
1
-9
10
30
23
16
21
23
0
-2
6
10
10
25
44
56
11
11
9
7
-1
11
16
17
26
34
40
38
41
-14
5
32
34
35
52
40
38
36
23
26
27
32
28
32
44
66
71
62
45
34
48
62
77
66
66
73
72
62
55
48
59
68
68
80
93
93
85
59
58
42
52
48
61
68
61
60
60
67
46
27
25
26
37
40
55
55
53
29
22
12
4
12
24
26
22
50
37
20
-5
-5
8
-5
6
18
30
35
21
10
2
-3
6
12
23
22
35
24
6
16
23
16
11
23
10
26
22
15
27
13
10
7
10
27
21
28
30
27
16
17
4
11
20
15
18
30
28
24
21
24
25
2
-14
11
15
24
27
37
35
5
5
17
24
29
36
58
18
3
12
17
5
13
19
19
29
33
33
44
23
26
19
35
33
36
13
25
42
35
28
27
31
23
6
39
47
9
1
8
8
3
4
0
9
15
23
47
56
20
-1
-7
-5
4
2
16
23
21
11
18
13
5
1
11
17
31
48
8
5
2
-12
-21
-26
-24
-14
0
20
37
76
105
132
159
190
202
216
260
260
211
165
117
97
61
27
2
-5
-10
-8
3
12
-2
-2
-6
2
27
32
4
27
3
18
-2
-2
-4
-5
3
18
29
33
19
34
22
16
-7
1
2
5
17
20
17
25
12
2
-1
2
1
14
29
44
62
33
14
12
4
17
10
15
22
38
32
31
43
31
11
29
26
30
23
24
35
45
40
33
29
33
22
40
46
40
55
54
54
58
41
55
52
58
62
63
72
66
62
67
92
51
58
87
73
71
70
75
69
53
54
56
72
56
61
58
59
49
46
37
26
33
29
35
42
34
43
37
41
28
5
12
15
17
25
23
37
34
25
24
3
-10
4
10
17
23
30
31
15
8
16
30
13
8
34
16
25
19
20
0
-1
7
13
35
38
28
15
21
20
4
11
9
0
16
22
23
36
32
23
7
3
15
14
28
28
14
25
24
22
30
31
-4
11
2
10
30
30
24
21
10
1
7
20
32
36
38
37
23
17
-2
2
12
22
20
52
37
35
39
29
22
13
8
9
20
25
28
33
36
30
22
26
35
35
25
40
38
34
31
20
18
28
46
53
56
63
57
46
45
46
18
3
13
21
42
42
49
55
40
16
16
36
23
19
29
42
36
46
35
40
27
23
15
14
10
16
20
21
11
8
10
21
45
68
99
124
156
181
193
202
188
193
199
168
135
113
98
73
44
22
21
13
15
11
27
33
23
19
32
36
18
1
21
33
36
33
44
53
58
67
33
17
10
24
34
32
32
42
20
33
21
23
26
45
42
51
47
32
54
51
28
29
33
51
54
38
32
46
34
29
20
28
33
35
45
46
47
47
37
35
43
61
50
50
67
65
56
57
56
47
53
50
53
67
69
76
89
88
87
94
97
55
49
64
92
93
80
79
75
79
82
82
84
91
97
89
93
54
59
60
66
61
66
67
74
64
65
63
46
41
52
67
42
26
41
52
44
49
38
27
37
30
52
66
44
33
24
29
21
16
23
24
34
45
41
54
44
32
19
12
17
42
65
96
46
22
28
14
10
7
17
22
30
42
27
49
50
36
23
25
18
23
37
46
50
41
40
38
26
17
30
44
45
45
44
44
44
49
41
32
20
31
44
56
57
40
30
25
29
27
23
35
45
46
59
52
32
33
25
30
20
30
33
39
41
50
32
43
28
14
23
29
31
42
53
54
52
20
31
32
56
37
25
27
36
28
25
18
18
25
24
35
50
43
46
36
41
31
27
33
38
41
43
53
50
42
42
41
35
38
43
44
55
54
54
59
42
42
45
37
52
48
42
44
39
37
36
33
23
19
33
49
51
43
54
58
22
0
17
19
17
28
25
36
48
57
35
48
32
11
10
30
30
41
56
48
9
6
10
14
18
28
56
69
84
108
123
141
166
196
199
195
193
183
146
111
98
78
51
35
26
12
29
26
27
28
11
8
17
21
36
37
38
33
54
34
16
26
32
31
32
46
40
38
41
36
33
31
33
31
31
31
45
46
40
51
69
39
26
32
29
31
40
50
49
43
34
15
34
56
48
64
64
33
36
56
54
44
33
28
47
57
57
59
62
61
67
51
48
46
55
66
76
92
98
87
55
59
64
82
69
73
82
78
80
73
90
77
78
99
115
87
92
92
94
96
65
68
75
74
78
80
82
86
96
93
87
55
42
49
44
55
54
57
62
72
40
36
35
46
47
60
58
47
49
42
47
43
28
25
33
43
45
60
42
37
34
22
24
31
40
58
64
43
40
45
30
27
25
21
33
51
50
51
55
52
75
48
24
15
40
50
65
46
55
44
38
26
33
37
38
26
46
55
43
37
38
32
40
41
58
63
49
45
41
30
34
17
49
34
34
45
32
44
39
34
26
20
30
39
35
38
45
58
48
58
32
22
28
43
37
32
49
37
29
43
35
50
38
26
24
31
33
43
38
27
16
22
43
32
16
34
46
45
28
31
31
36
29
29
66
63
35
49
32
28
22
31
30
31
42
51
52
50
41
36
30
27
31
28
28
53
37
25
36
18
12
12
18
32
43
49
47
31
27
31
23
14
17
19
23
31
35
22
21
25
17
4
16
26
20
30
32
17
15
1
29
53
77
124
135
145
187
211
203
191
194
171
148
120
114
94
69
55
29
17
13
10
16
10
16
16
21
15
9
17
10
18
32
41
37
38
55
36
31
16
1
3
16
29
26
22
23
24
20
17
24
27
26
45
42
55
44
9
14
14
25
19
18
21
38
40
40
30
24
21
24
18
27
31
45
46
44
39
54
52
29
17
28
46
52
54
52
50
49
43
40
56
56
55
63
85
79
68
65
59
56
81
67
67
74
80
81
78
67
73
74
54
71
86
86
75
80
76
63
60
51
39
54
71
65
57
62
49
36
34
38
30
20
33
43
40
37
33
32
26
34
13
11
19
31
25
32
12
20
21
