20
15
19
24
24
12
10
5
9
15
16
12
19
23
13
13
-11
11
13
23
16
22
21
24
12
19
4
4
0
6
14
9
11
18
8
3
7
6
10
7
14
27
25
35
17
-1
2
2
1
12
4
13
31
26
14
12
13
7
23
18
28
27
33
26
16
18
16
6
7
18
30
22
34
25
16
11
10
4
7
6
16
13
8
17
10
6
-1
4
-4
1
16
14
11
18
14
6
7
-10
-4
10
5
19
16
23
14
15
-4
3
6
19
18
14
31
29
19
5
8
8
19
33
51
53
54
62
64
77
63
31
7
-34
-28
-29
-27
-11
-13
-22
-32
-27
-19
-4
7
4
17
13
13
10
6
3
10
9
13
23
23
12
7
7
6
9
20
29
23
21
28
36
20
13
11
10
-3
9
16
21
18
39
16
12
9
9
5
24
30
36
32
28
18
9
26
12
2
14
21
40
35
29
38
20
24
23
20
31
41
53
35
23
22
22
18
33
26
26
68
61
61
52
52
39
41
51
42
55
54
65
65
66
59
60
50
54
63
70
73
78
73
59
49
45
51
48
45
56
58
36
51
36
27
28
27
24
26
25
18
35
24
31
27
13
16
10
6
5
13
13
21
15
2
-10
1
6
4
18
12
30
12
15
6
-12
-8
-6
3
5
12
10
14
11
6
-3
-1
8
8
12
12
21
15
4
-2
11
6
1
19
20
23
34
30
20
7
10
12
31
22
29
22
27
31
22
15
15
5
9
29
27
26
26
28
2
14
14
22
18
25
2
25
44
16
25
17
11
16
12
19
30
22
21
15
24
25
17
11
17
18
22
39
29
19
23
14
9
14
16
2
0
24
49
24
24
7
25
7
23
35
25
32
28
19
30
18
8
24
25
24
29
42
33
29
25
22
28
18
18
24
35
35
47
28
30
28
5
11
26
15
21
19
22
24
28
21
13
14
8
7
28
23
22
16
7
5
13
1
9
22
28
12
21
20
-5
-6
8
2
19
17
17
28
17
21
19
12
15
4
9
27
41
40
45
46
47
51
57
69
59
53
36
-6
-16
-29
-35
-31
-41
-41
-26
-17
-7
-5
19
13
-3
3
1
12
18
16
19
28
12
13
-2
14
8
20
30
26
21
29
24
10
15
6
13
9
19
22
35
34
26
25
10
16
11
8
13
23
34
27
29
29
12
19
10
23
20
22
35
37
36
23
28
12
28
28
22
25
45
46
46
33
35
27
26
22
37
44
48
54
47
50
39
32
61
55
70
66
74
61
60
60
59
65
57
47
66
75
73
72
66
77
67
62
59
66
63
58
64
66
58
48
35
30
34
23
39
47
37
32
32
22
10
9
22
14
21
23
37
31
14
1
-3
-4
5
4
17
29
25
7
7
-12
-5
5
9
-7
4
25
19
17
9
-7
2
-9
9
16
24
26
3
6
6
-3
8
-1
7
11
12
22
25
20
13
2
5
10
8
19
15
17
23
16
14
39
23
15
11
13
23
15
9
38
25
8
10
21
19
27
28
25
23
27
26
12
9
7
12
11
23
24
42
36
30
13
8
19
23
7
27
29
26
14
15
2
12
11
24
24
29
22
14
25
38
12
5
6
20
12
22
23
23
23
25
23
11
9
17
21
20
33
42
29
30
14
5
5
14
9
21
35
33
44
27
24
10
35
35
45
48
48
39
40
39
32
29
20
15
30
24
25
38
42
18
10
23
21
20
36
46
28
21
35
26
12
26
18
29
28
31
36
30
16
19
14
16
17
17
25
27
31
22
23
15
-2
18
27
30
29
52
44
43
65
57
34
49
62
83
96
70
42
-4
-24
-19
-28
-36
-29
-23
-16
-3
6
8
1
8
4
24
18
15
20
24
24
6
26
20
25
9
11
19
28
26
18
22
14
19
10
13
21
14
23
27
37
28
19
27
18
11
30
24
22
28
30
36
16
5
4
14
27
26
34
35
28
20
14
37
20
29
31
13
65
60
55
33
39
42
38
33
43
46
63
58
82
71
49
46
46
64
75
86
86
82
105
87
63
68
76
77
74
73
86
88
104
101
81
68
72
83
84
86
80
91
80
70
66
77
64
55
64
53
67
77
58
54
43
24
37
46
54
48
46
47
56
40
25
29
28
27
26
31
29
40
29
20
20
19
6
-5
24
40
61
43
36
28
29
21
20
24
32
29
37
50
37
31
19
24
28
19
21
43
36
40
40
30
23
16
18
25
34
30
46
45
40
30
1
44
37
30
29
34
41
39
35
38
20
16
26
42
34
30
37
47
48
22
21
32
10
14
20
39
49
38
31
26
36
28
26
27
41
31
36
36
36
18
33
14
15
31
45
34
32
40
38
36
20
30
39
26
34
36
32
31
31
15
29
18
28
33
40
50
72
47
49
34
17
23
15
38
44
41
44
45
50
22
6
1
23
31
24
29
35
32
25
22
17
10
12
18
27
18
20
28
5
14
38
14
8
22
24
30
32
25
22
3
-8
2
16
12
35
49
36
29
39
19
15
12
27
35
30
29
63
63
73
65
83
75
62
35
5
-13
-36
-31
-29
-26
-22
-17
-2
15
23
19
15
24
22
10
8
15
13
21
15
27
36
25
10
22
-2
2
16
39
27
21
19
24
34
21
11
24
16
25
26
29
31
28
17
20
21
26
7
16
23
29
35
32
23
19
26
30
31
39
41
26
30
14
25
13
7
24
37
33
36
40
54
37
34
21
33
38
35
57
56
60
64
48
51
46
53
56
61
59
72
78
63
58
73
56
62
69
60
76
97
83
69
70
65
58
60
71
67
60
48
53
66
59
49
39
35
35
40
31
50
48
32
21
19
11
21
11
23
17
38
31
23
10
5
10
-4
-5
18
14
25
28
3
15
18
4
3
15
15
18
27
22
24
19
15
3
-1
3
18
17
10
23
16
25
16
9
12
20
14
34
26
30
22
16
9
11
7
6
9
32
31
21
21
5
-1
8
15
9
17
35
18
16
28
11
11
4
20
4
6
22
27
39
22
22
10
12
10
19
13
28
25
26
19
12
15
9
7
5
20
12
23
9
4
-4
15
-4
6
-2
26
26
27
32
19
5
5
17
11
2
7
27
29
31
25
12
8
15
19
20
23
27
24
27
37
17
17
25
25
16
25
38
35
33
16
22
4
-2
12
9
18
3
29
35
25
10
8
9
-2
10
24
20
29
16
12
-4
12
10
13
19
20
26
27
13
5
6
-3
-2
12
12
23
20
30
18
19
22
15
16
20
37
39
52
66
49
48
71
70
68
57
33
15
-16
-35
-33
-33
-37
-36
-33
-29
-6
-8
7
14
8
15
6
2
11
0
6
25
19
9
5
10
11
10
10
11
24
17
14
25
22
6
13
11
30
21
12
21
24
31
37
30
13
13
31
34
24
41
44
23
30
28
22
27
25
30
32
30
43
38
36
39
23
31
23
28
47
42
47
53
43
52
42
31
26
42
51
55
58
63
62
60
47
50
66
67
65
65
64
66
59
65
51
54
64
72
83
78
82
79
85
67
65
59
63
62
67
54
61
59
59
43
38
32
27
45
57
60
37
38
31
20
7
8
-1
-2
19
35
28
20
11
16
5
10
7
11
11
15
11
6
8
-4
-6
10
11
16
14
29
28
21
15
8
8
8
12
18
27
30
39
25
18
14
0
13
18
17
18
20
30
23
21
13
9
10
16
4
34
31
26
21
20
11
13
16
6
26
40
37
34
28
20
14
13
21
23
34
26
27
28
29
17
18
20
17
22
29
23
23
47
34
14
-3
5
32
33
41
32
33
33
23
20
19
19
10
20
34
44
41
39
35
18
32
14
23
19
27
26
31
26
29
21
17
25
10
27
33
41
39
31
47
34
28
37
25
26
30
20
29
30
18
1
1
17
22
29
33
23
25
38
21
20
19
15
16
5
14
9
29
34
24
12
11
9
17
25
21
40
31
24
23
11
16
25
22
26
35
40
28
32
25
25
32
47
55
51
63
62
72
80
65
34
0
-26
-22
-21
-14
-12
-6
-20
-10
-10
-3
12
16
13
13
24
22
35
22
6
18
14
16
26
27
26
27
29
21
7
11
21
36
35
32
34
30
14
17
26
16
20
16
25
36
34
35
26
15
16
19
18
9
25
37
43
39
30
28
22
15
49
22
27
30
30
38
26
24
32
32
29
40
39
47
57
49
43
35
38
40
59
49
52
63
64
67
58
49
54
75
64
61
55
60
73
81
72
68
60
55
68
76
76
80
83
69
65
55
51
58
51
50
49
52
58
51
31
23
32
16
31
36
33
33
33
29
24
15
6
6
8
12
11
16
12
21
7
7
-1
-5
8
11
16
17
24
6
0
2
-4
-1
1
10
-4
4
5
6
5
2
11
5
4
6
6
18
14
4
-6
-5
1
7
-5
11
1
16
22
18
5
-6
-5
1
2
7
21
10
3
-5
5
-4
-3
6
4
5
6
-4
3
-2
3
-3
-3
-1
-2
2
5
13
1
-5
-14
-16
-11
0
1
6
-3
9
13
5
-3
-7
-14
-11
-3
11
3
8
-1
-1
1
-5
-3
-3
-2
5
14
1
12
12
6
4
-4
-1
3
15
4
21
16
13
10
4
4
-18
-10
-4
7
13
7
5
-15
-23
-16
-21
-4
-3
-11
5
3
-5
-8
-11
-12
-6
-13
-7
-10
15
9
-13
-11
-2
-21
-8
2
1
-2
15
1
5
-3
-10
-9
2
-4
9
15
22
31
36
37
30
47
49
55
57
44
-3
-41
-46
-54
-60
-51
-44
-40
-20
-16
-10
-1
1
-10
-7
4
-1
7
5
13
23
20
0
-14
-3
-10
12
22
-2
6
25
7
8
6
5
4
13
-4
12
11
18
17
8
11
-3
12
5
15
17
29
21
32
19
21
18
14
9
8
21
36
29
22
4
16
17
25
27
26
25
28
27
26
12
25
21
16
34
39
25
55
57
43
49
41
38
37
43
52
60
62
66
73
51
51
63
63
54
80
80
73
74
66
65
53
65
70
67
72
71
65
62
60
49
42
37
41
41
56
44
38
38
44
35
14
25
15
24
27
39
34
21
10
-10
-9
1
10
12
19
30
24
32
34
5
5
3
10
14
10
27
34
12
16
-7
11
18
11
24
18
22
13
28
26
0
9
11
15
12
19
24
26
29
14
2
-8
5
15
13
19
26
27
20
13
-1
1
21
20
8
13
17
7
17
12
8
2
11
3
10
15
15
21
8
9
-14
-7
12
4
-1
12
9
12
1
-2
-2
-11
-13
-9
11
8
9
17
15
11
6
16
-3
4
7
16
22
-2
10
-1
3
-5
10
-3
19
13
24
22
12
6
1
4
18
19
31
13
8
14
8
-2
-6
-8
-17
-9
3
4
2
0
-7
-12
-13
6
-5
2
0
-5
0
3
-3
-15
-2
-2
-4
-8
3
9
9
12
5
-9
1
7
5
14
25
35
50
56
38
47
45
45
42
21
-8
-30
-41
-48
-52
-54
-54
-53
-35
-20
-12
-4
-10
-1
13
-2
-10
-12
4
9
-3
7
-1
10
-1
-9
-14
-11
-10
-13
18
7
13
21
-2
2
8
0
3
13
15
8
4
16
19
4
4
-5
7
1
19
27
20
13
-1
-4
2
16
9
16
17
19
36
9
5
7
10
14
17
24
13
31
28
34
17
17
26
22
28
21
31
52
51
47
40
55
45
31
46
50
51
58
64
47
49
41
52
55
58
66
78
70
63
64
53
49
44
38
53
57
71
53
56
34
40
30
22
23
27
33
35
37
28
18
16
11
8
5
4
9
15
19
17
5
3
-7
6
-7
6
8
1
-4
14
9
3
4
-3
-5
-3
14
20
7
0
-2
-1
2
8
-9
1
12
17
23
5
-3
0
-6
0
-8
9
9
14
10
18
6
6
-2
4
9
9
23
18
17
11
8
-10
-5
6
3
13
15
10
20
16
1
-6
-15
-5
5
0
15
17
8
2
-7
-22
2
-3
-19
6
8
12
-3
14
9
-4
1
-4
6
-2
1
8
13
12
2
3
2
5
12
8
3
22
19
6
4
9
8
9
8
19
20
25
10
-5
-3
-14
-12
-24
-6
1
9
3
-1
-6
-11
-15
-5
-26
-14
10
10
2
4
8
-6
-1
-11
-12
-8
-1
1
-1
3
-3
-2
-6
-19
-17
-9
7
5
13
17
4
-1
-25
-1
9
6
21
38
44
31
28
35
25
34
35
37
-10
-39
-45
-53
-50
-53
-57
-50
-38
-33
-21
-16
0
-11
-7
-13
-8
-1
6
0
-6
5
-2
3
-9
-2
-8
-8
-7
0
4
4
17
3
-3
1
-9
-2
-6
-4
-9
-1
3
8
4
-8
0
-3
4
-1
12
19
15
6
-1
-11
-6
1
6
11
17
20
13
2
1
4
3
17
11
11
15
15
18
15
10
1
-1
21
27
17
17
36
39
34
26
27
23
28
34
34
40
44
49
35
34
45
42
41
46
42
48
50
59
65
46
52
31
35
27
41
36
22
26
33
25
17
13
14
16
19
18
25
-2
4
7
-6
3
10
11
-3
-3
-6
-3
-1
-16
-22
-18
-9
-10
-3
8
11
-9
-29
-23
-18
-11
-1
-13
-12
-4
-4
-14
-6
-6
-14
-11
-16
-6
-2
-9
6
4
-19
-20
-12
-8
-7
0
11
-12
5
-6
-5
-16
-5
-15
-2
-9
3
5
6
0
-4
-15
-9
-12
-13
-10
-2
-3
-9
-8
-13
-19
-16
-19
-11
-9
-4
1
-1
1
-12
-11
-18
-10
-13
1
15
-6
-6
-5
-4
-10
-5
-12
0
5
17
1
0
-2
-11
-9
-4
-8
-6
0
9
3
4
15
-3
-3
0
2
2
-2
7
1
3
-16
-30
-18
-40
-19
-5
-7
2
-2
-1
-4
-9
-19
-8
-14
-19
-9
-1
-16
-18
-22
-8
-26
-13
-7
-6
-7
-3
4
-3
-9
-10
-15
-17
-19
-13
-7
2
-10
-18
-15
-24
4
16
16
22
46
60
62
65
48
17
-29
-58
-53
-55
-62
-60
-44
-42
-40
-44
-40
-29
-7
-7
-12
-3
-2
-7
-11
-14
-6
-17
-9
-20
-8
-3
-11
-27
-32
-24
-18
11
-5
2
9
17
-8
8
4
-16
-11
-10
-7
-19
-7
-12
0
0
-1
-4
-5
2
2
5
8
1
0
13
3
-16
-5
-6
-7
-10
10
13
10
-1
7
-1
-2
-4
1
15
19
21
20
18
10
14
-1
10
22
26
30
41
39
40
27
20
29
28
47
21
46
44
41
38
40
37
47
39
38
50
50
44
44
32
28
21
21
8
22
24
22
24
27
23
7
19
2
-2
-4
7
4
6
5
-8
-31
-16
-15
-11
-7
-12
-3
3
1
-15
-27
-17
-23
-17
-22
-6
-9
-1
-5
-7
-16
-13
-14
-9
-2
-5
-8
-30
-5
0
-12
-14
-8
-10
-7
-2
16
10
11
-18
-20
-28
-19
-15
-9
-8
-11
-8
-5
-6
-7
-17
-17
-13
-5
-2
11
2
-16
-4
-19
-19
-20
-20
-16
3
-1
10
-3
-7
-20
-25
-24
-12
-8
5
7
-1
3
11
-21
-33
-19
-3
-6
4
4
11
-8
-3
-10
-16
-9
-12
-8
-3
-4
1
-3
1
3
-10
-13
-19
3
4
13
15
0
-4
-2
-17
-18
-6
9
15
0
-7
-15
-23
-27
-20
-7
-1
-10
-5
-13
-10
-12
-17
-16
-20
-22
-12
-3
-15
-5
-6
-3
-28
-16
-15
-16
-11
-19
-12
-11
-4
-4
-14
-23
1
-2
-9
-1
-8
-9
3
5
0
6
14
16
26
34
39
53
52
21
-32
-59
-71
-64
-59
-47
-45
-39
-35
-37
-35
-33
-29
-10
-10
-8
-1
-1
-3
-5
-14
-18
-23
-7
-14
-16
-5
-7
-10
-10
-17
-19
-17
-17
-13
-7
6
7
5
4
-26
-35
-15
-4
-5
-2
2
-3
1
-5
-17
-13
9
1
-6
-2
4
5
3
-19
-20
-5
-11
-10
8
0
11
8
6
9
-1
1
5
10
8
12
29
20
26
7
5
19
8
22
28
43
31
39
43
25
28
28
36
43
40
47
45
35
40
44
42
37
37
41
40
52
38
42
36
28
21
20
9
14
18
28
32
17
5
-3
6
-7
8
5
-1
3
3
7
1
0
-13
-18
-7
-9
-12
-20
0
-5
-11
-24
-25
-20
-18
-2
16
7
4
-19
-7
-26
-19
-21
-23
-14
8
1
1
-8
-8
-14
-22
-11
-7
-14
-11
14
8
-1
-2
-11
-13
-9
-3
4
-9
0
8
10
-10
-3
-11
-17
-15
-8
5
3
1
5
-8
-15
-6
-14
-9
-15
6
12
7
9
2
-1
-18
-14
-6
-1
-5
3
-4
4
3
-10
-9
-11
-21
-4
14
11
13
-1
-6
-7
-20
-17
1
3
6
-3
15
10
9
-1
-1
1
8
15
18
19
12
9
3
-11
-16
-19
-16
-21
-8
-3
7
1
-7
-7
-12
-12
-10
-2
-2
1
-3
-9
-11
-10
-17
-26
-20
-31
-3
13
6
-1
-15
-17
-11
-8
-2
7
-6
3
5
-9
-22
-10
-26
-49
-35
9
12
26
38
24
17
22
41
55
39
21
-5
-40
-50
-63
-67
-70
-71
-53
-45
-32
-14
-14
-12
-11
-14
-14
-13
-10
-11
6
5
-3
5
-5
-17
-29
-24
-24
-8
-4
-18
-2
10
0
-14
-11
-6
-1
-6
-2
2
0
7
0
-31
-25
-33
-18
3
7
3
9
3
-2
4
3
-13
-4
14
5
11
-1
4
-14
-14
-4
-1
-1
12
17
14
14
19
15
-1
7
8
2
17
15
22
32
19
28
17
14
24
24
34
50
47
44
34
40
39
39
38
35
53
59
54
55
44
51
40
31
27
38
41
24
46
49
36
24
12
19
7
9
13
10
16
19
12
4
-3
-1
-14
-10
-4
-1
7
-3
-7
-23
-26
-33
-19
-11
-12
-13
0
-3
-3
-13
-8
-17
-18
-8
-5
-3
-15
-12
-12
-17
-14
-21
-33
-24
9
-7
7
-17
-10
-6
-4
-8
0
-19
-14
-10
7
7
6
-13
-18
-15
-18
-7
-9
-1
13
-13
-7
-17
-11
-13
-9
-8
9
3
5
-6
-4
-9
-16
-25
-11
0
-2
16
15
3
-11
-19
-6
-18
-17
-8
1
15
10
5
-7
-3
-1
-10
5
-2
0
-2
7
16
6
-6
-6
-3
4
-4
-4
2
1
1
-5
-14
-29
-26
-12
-9
-8
6
-5
-6
-13
-8
-8
-14
-22
-11
-11
-5
-10
-12
-19
-20
-7
-6
-17
-11
1
-8
-9
-1
-13
-24
-20
-17
-1
-8
-1
12
-2
-4
1
0
10
9
16
22
38
38
51
52
30
-9
-63
-68
-62
-62
-68
-43
-43
-48
-36
-36
-29
-31
-21
1
-5
6
-14
-20
-6
-15
-7
-17
-4
-8
2
-1
0
-4
-12
6
-13
-6
2
-2
-10
10
8
-7
-24
-19
-8
-5
-1
15
1
9
2
6
2
-6
0
10
3
13
6
-2
0
-17
-9
4
0
4
15
10
16
26
23
4
-2
3
2
9
13
17
26
36
18
13
22
21
28
38
30
32
51
47
38
31
32
32
35
42
43
57
54
55
51
49
45
41
43
38
48
64
52
59
43
38
34
33
27
29
27
31
31
26
15
11
-1
3
11
9
14
20
6
4
4
-6
-10
-13
-10
3
12
-5
-5
-8
-5
-7
-7
-2
-9
0
-4
-9
-19
-3
1
-15
-20
-15
-8
-9
-9
-3
6
6
2
-6
-14
-5
-10
1
7
-1
4
-6
-7
-7
-11
-5
0
-3
-4
-3
0
-1
-2
-9
-19
-24
6
8
14
2
0
11
9
-4
-2
-11
-23
-12
-7
-8
2
12
-1
-10
-1
-7
-4
5
8
6
8
8
-4
-11
-7
-13
-3
-2
-5
-3
4
-2
14
2
7
8
7
9
-5
13
13
-1
-7
9
-4
-17
0
6
14
16
15
5
-10
-12
-17
-7
0
-10
7
-10
-6
-8
-22
-20
-15
-10
-19
-7
-9
9
-2
-8
-11
0
-4
-12
-2
-1
-13
-4
-9
-9
-17
-18
-9
1
4
5
-4
11
18
15
1
-9
-5
16
26
26
36
44
48
64
46
26
-18
-46
-50
-57
-54
-57
-45
-48
-42
-29
-28
-21
-17
-8
-5
-2
-7
-2
-2
-6
-6
-2
2
2
-13
3
15
10
-10
-17
-22
-10
13
20
10
6
8
0
-9
-1
-11
-20
-22
-2
25
12
11
9
8
1
-2
-8
6
1
10
7
25
10
7
9
2
3
12
12
17
22
18
16
1
8
14
15
18
24
29
29
33
36
24
12
21
24
31
34
39
30
40
35
31
44
43
51
56
68
64
55
51
50
42
56
58
59
62
49
62
49
49
50
37
41
32
31
39
47
46
40
24
12
21
26
10
-1
14
17
18
7
10
5
-14
-12
-10
5
8
9
-1
4
0
3
0
-6
-11
-11
-13
-1
8
6
-5
-3
-6
-3
-17
-8
3
1
0
6
2
-10
-6
2
5
2
8
3
20
6
4
-5
-6
-10
-7
-4
9
3
7
19
14
10
-7
-1
1
-6
6
1
9
13
9
-5
0
-6
-5
-5
9
8
10
9
-12
-8
1
2
-1
-3
-1
21
-4
15
1
0
-4
-3
-2
10
16
17
8
-2
-16
2
1
-4
3
6
9
10
14
9
14
0
-4
-1
9
6
20
13
12
13
16
8
1
2
-4
-6
7
7
5
5
-2
-5
-20
-12
-13
-12
-12
17
6
-1
2
-11
-5
-2
-9
-8
2
-10
1
-1
-9
-10
-17
-10
11
2
-2
12
-2
-3
-6
-11
-9
-11
0
13
0
11
15
13
14
22
18
27
38
59
62
59
29
-5
-48
-49
-64
-62
-46
-44
-38
-39
-28
-23
-12
-10
-21
-5
-13
-8
6
1
10
-8
-13
10
-17
-14
-4
7
13
9
1
-5
-7
-3
-9
-15
-4
9
19
12
-5
-27
-2
-1
-2
4
1
-1
27
2
13
-6
3
17
-4
16
-5
1
6
10
1
14
6
-2
-9
18
15
18
16
18
16
17
4
12
10
18
14
28
31
27
22
23
11
24
45
35
43
36
47
47
35
38
42
44
42
52
59
55
51
51
50
50
39
41
36
40
58
55
44
62
59
25
34
30
27
18
24
31
33
21
16
7
0
20
18
5
9
8
17
13
4
-1
-4
-2
-11
-2
1
3
9
5
7
-10
-18
-4
-9
-8
2
-5
4
-1
0
-8
-10
-9
-9
-4
12
12
4
16
-7
-14
-9
-10
-4
0
15
1
16
2
0
1
8
0
-1
2
15
7
8
-4
8
3
-11
-8
-16
5
13
14
9
9
0
-12
-4
-7
-6
10
-1
-8
1
21
-2
-4
1
-21
-10
-1
-3
4
12
8
1
-11
-6
0
5
-3
-4
17
16
2
-7
-14
-16
-17
6
7
6
8
10
4
8
0
-19
-3
-3
9
10
10
10
13
4
-7
-6
-3
-4
26
24
17
20
7
-6
-15
4
-3
9
15
6
-2
7
1
-13
-5
-23
-18
-6
4
-3
8
-1
0
-3
-7
-3
-8
0
-10
-10
-7
-12
-7
-2
-15
-26
-4
-3
-9
2
10
-1
-4
0
-9
-7
-2
3
6
12
8
26
15
11
19
24
46
51
47
45
17
-46
-67
-58
-64
-54
-69
-61
-56
-27
-12
-13
-18
-15
-22
-17
-8
-2
0
6
9
12
4
-2
-7
-17
-15
-1
10
0
4
28
-5
-9
-16
1
-5
-13
10
3
1
4
8
-15
-12
-7
18
9
12
1
8
20
-6
-1
2
1
0
15
16
15
-1
0
4
36
17
1
8
17
14
22
16
5
20
23
9
5
6
33
32
34
26
37
29
25
25
34
29
43
53
48
57
47
38
50
47
54
54
56
53
61
67
65
45
35
42
51
47
51
57
48
49
44
34
36
26
29
38
34
30
5
31
32
8
31
1
25
3
11
10
19
9
4
-12
-2
-4
-5
-3
-3
7
-9
13
6
-19
-16
3
10
4
-8
-6
1
18
1
-13
3
1
6
8
14
15
19
1
-3
-9
-13
0
14
9
5
1
23
7
-6
5
8
10
3
-4
2
-3
-4
1
4
6
1
-2
-2
19
10
-7
3
7
7
-4
-5
-3
1
-4
4
7
10
2
-8
-9
-9
-5
-6
4
12
8
12
-7
-7
-4
1
-2
5
-5
4
19
11
-18
1
-3
-8
5
-3
-14
-4
9
11
-3
21
15
1
4
13
20
15
20
7
0
-4
3
7
9
0
15
23
19
21
-1
-2
-7
-13
-10
13
-1
6
-2
-6
1
2
-9
-11
-21
-2
15
16
-1
-9
-2
1
-2
-9
1
-16
8
18
6
-12
-10
-4
-8
-11
-8
-7
-7
4
-5
14
16
-6
-7
5
8
20
22
31
45
36
34
37
41
49
39
-2
-20
-36
-41
-50
-49
-60
-60
-61
-41
-34
-21
-8
9
0
-2
-10
-7
1
-13
-5
2
9
10
4
-2
-2
-2
-9
-6
17
7
13
11
6
7
0
8
-7
-9
2
23
9
20
2
8
6
7
-2
2
8
18
11
18
4
10
7
7
7
-4
18
44
34
19
15
6
5
8
20
22
21
25
31
25
33
25
15
12
28
25
20
40
42
39
31
40
37
35
41
46
37
49
54
59
55
53
45
40
44
61
66
67
72
63
62
42
34
52
55
52
60
63
47
45
55
33
30
13
26
25
20
35
26
22
18
25
1
1
9
14
18
15
19
10
2
-5
7
2
7
-7
22
18
4
11
-4
9
10
-11
-15
13
12
21
19
1
6
3
-8
-2
5
9
3
14
20
26
4
1
13
3
8
8
8
23
19
15
11
6
4
5
9
14
14
9
25
4
15
-6
-7
-12
3
29
25
22
23
4
19
-1
1
6
5
8
-1
13
28
18
3
-7
-5
1
5
15
9
11
13
4
6
5
0
-7
-3
16
31
39
20
22
19
6
4
1
22
12
7
2
16
16
11
3
6
12
7
30
34
21
26
30
12
14
12
13
8
6
18
21
11
13
11
8
-8
2
8
12
-1
6
18
17
-2
1
-4
-4
16
5
11
19
18
9
0
6
-3
-7
3
4
1
10
16
6
6
-1
-9
-16
-5
20
11
18
9
15
-2
22
18
16
33
33
41
72
73
69
69
50
26
-27
-37
-33
-45
-38
-45
-36
-33
-28
-5
-12
-9
8
13
29
11
7
6
3
14
10
10
7
9
19
6
13
24
6
7
16
7
18
20
20
26
19
12
18
18
8
10
24
10
7
20
24
7
14
13
12
-3
37
31
29
32
12
13
11
5
12
27
35
35
30
30
28
28
21
39
42
22
21
30
48
44
28
27
33
26
27
46
39
58
64
59
52
52
46
54
56
58
66
61
60
65
65
55
63
52
62
66
81
54
59
71
58
66
64
45
64
62
59
48
44
42
25
36
30
10
20
33
50
30
31
25
19
0
12
16
7
14
11
24
20
12
4
0
4
7
13
6
25
15
12
8
9
10
2
0
13
22
28
21
3
4
6
5
-11
-21
0
32
34
21
27
20
23
15
10
12
16
7
23
21
16
7
-9
4
17
17
21
25
22
17
14
8
19
16
10
12
-6
22
20
30
4
0
12
3
5
1
19
12
20
34
17
11
13
11
8
7
5
12
16
15
18
8
0
8
9
3
10
35
13
12
24
13
8
-3
15
16
10
29
11
11
27
8
14
18
10
23
24
29
22
14
18
22
19
24
26
20
14
28
22
11
15
7
1
12
3
-7
7
8
25
9
-1
4
9
10
0
6
15
11
24
26
24
-15
-23
-7
4
9
7
0
7
12
5
9
13
11
2
-1
8
16
17
9
11
9
8
9
7
20
32
32
36
49
49
58
72
58
44
-3
-26
-38
-28
-41
-45
-50
-42
-34
-25
6
18
7
-13
1
-2
4
5
3
2
-3
3
12
8
6
15
4
-2
9
8
13
29
26
11
4
1
1
-2
14
6
0
3
8
22
27
7
-1
2
15
10
10
25
6
28
24
28
5
15
18
11
9
25
29
23
22
22
14
22
8
14
40
35
31
34
35
41
30
18
22
32
25
42
35
43
49
44
35
46
39
35
47
54
65
76
61
61
55
56
55
63
62
76
78
66
59
66
57
67
46
53
56
63
44
30
45
43
24
16
26
36
27
25
27
56
24
10
13
10
22
5
9
11
-2
4
16
15
13
24
7
-6
26
16
0
4
19
-2
1
-4
7
-4
9
16
9
27
9
4
-3
7
10
3
8
8
22
7
3
12
13
8
-3
5
22
25
26
17
14
21
13
11
13
14
6
9
23
28
27
11
-1
13
3
12
19
20
20
11
8
-4
6
6
1
21
20
20
10
1
11
13
14
8
9
10
22
19
19
4
-1
-1
13
10
1
6
16
7
16
27
2
9
10
7
9
9
15
15
25
16
30
10
16
10
13
20
10
26
30
17
20
13
30
18
19
21
26
32
18
25
25
26
12
5
11
7
4
-3
-9
19
5
17
9
7
16
14
2
10
30
11
13
-7
1
4
5
4
7
7
10
18
-2
0
-10
8
8
21
20
33
21
0
2
20
16
12
5
19
41
25
40
22
21
27
31
35
36
65
82
66
73
67
34
-9
-32
-39
-38
-35
-25
-30
-28
-20
-2
3
12
5
0
15
31
28
21
21
24
18
-2
6
4
21
28
27
29
32
15
14
19
22
28
32
26
32
17
31
30
16
22
10
27
31
31
44
39
29
38
14
29
28
31
37
39
26
34
37
32
22
22
47
48
54
35
43
35
30
22
36
40
31
36
44
51
61
48
48
45
45
49
48
70
57
68
76
68
58
56
61
59
75
66
77
82
88
73
69
74
78
74
69
73
74
97
83
88
71
55
57
54
53
53
55
53
64
50
45
26
29
34
36
17
31
40
34
26
3
8
25
34
23
32
31
18
32
17
22
22
14
10
9
28
35
29
19
15
9
1
25
22
14
30
21
15
10
42
22
16
16
17
22
28
30
35
36
17
12
12
25
37
22
31
40
29
34
14
23
21
16
30
32
25
30
37
15
4
33
36
20
16
30
30
39
34
32
22
12
31
14
17
21
29
38
32
27
11
18
20
17
22
31
27
28
36
22
17
20
20
23
26
20
29
28
27
31
33
27
18
30
20
31
36
33
49
34
26
27
32
28
41
26
33
40
36
29
27
32
42
37
39
33
33
40
44
42
36
28
35
28
20
26
42
30
17
22
25
32
41
19
28
32
29
22
40
40
15
15
23
21
27
22
19
16
25
27
32
27
22
22
20
30
29
22
40
17
14
23
19
33
34
31
34
37
43
43
45
64
52
63
88
90
79
69
60
-7
-35
-28
-27
-34
-32
-19
-8
-6
9
28
-2
-15
21
29
12
23
30
43
25
29
28
20
22
26
34
41
36
26
29
38
31
15
26
34
22
39
43
34
33
32
26
32
35
18
29
34
45
32
22
30
30
35
32
35
46
35
35
28
33
43
35
35
45
40
40
42
56
52
44
42
38
43
41
51
38
47
59
62
56
54
60
51
55
57
66
64
77
81
84
77
72
77
81
74
78
82
91
91
79
72
76
76
76
81
96
83
82
88
74
75
77
58
65
70
55
66
59
46
38
42
54
50
45
45
40
42
54
40
27
25
21
24
24
29
33
31
31
43
42
34
25
21
25
23
25
30
27
23
33
29
26
19
26
17
24
38
39
35
37
28
18
30
23
33
35
44
37
22
35
36
30
26
28
34
44
48
26
39
28
33
28
27
38
30
28
45
41
36
32
31
23
28
27
24
25
43
31
28
35
40
22
19
25
30
42
29
28
30
15
24
40
19
27
21
33
32
29
42
35
19
13
23
29
30
33
37
28
27
35
30
23
23
41
32
36
44
41
36
33
26
37
11
16
41
42
49
40
38
37
34
41
30
36
50
48
35
40
43
20
13
17
21
12
17
29
35
22
12
-12
21
35
36
31
28
24
35
27
19
16
24
21
23
36
29
25
29
30
27
26
5
13
22
23
33
32
36
29
26
26
26
21
12
15
40
64
67
73
66
70
59
73
69
45
10
-22
-27
-22
-33
-46
-41
-30
-24
-18
8
20
10
18
8
20
33
27
20
31
24
40
19
27
23
27
17
34
29
25
40
28
37
35
32
34
23
19
37
36
28
40
39
36
34
24
31
28
24
31
34
38
45
33
24
23
31
41
38
33
36
43
61
55
32
35
49
55
30
43
52
51
40
51
42
55
58
42
66
60
62
63
60
65
66
59
63
66
69
74
83
75
70
58
76
89
86
66
88
86
73
90
89
89
76
84
75
73
79
80
75
66
66
77
65
55
50
47
49
48
63
59
51
51
51
38
28
45
39
34
39
40
34
33
19
21
20
11
25
38
25
31
37
33
31
29
18
18
22
28
25
32
30
41
43
37
6
11
17
31
33
40
30
19
20
19
27
24
30
33
27
37
27
26
21
28
20
33
23
24
44
29
34
28
17
25
25
16
27
24
28
28
25
26
15
9
6
19
20
32
28
21
15
18
16
13
10
15
32
23
35
30
28
24
20
21
15
20
21
8
29
15
26
24
31
20
27
39
38
43
35
24
24
38
17
2
16
17
24
35
24
39
27
33
20
24
12
26
19
29
25
13
18
10
18
12
3
2
-1
15
33
28
20
27
13
6
10
18
25
37
20
20
17
19
14
3
16
8
9
17
9
6
1
5
23
30
26
32
53
59
53
57
60
62
67
67
70
57
37
-15
-17
-24
-29
-41
-35
-45
-33
-38
-21
0
20
20
12
21
20
7
22
21
25
19
16
25
29
14
24
29
22
11
25
22
26
26
10
-11
-16
15
9
17
29
37
38
24
31
36
19
20
33
45
34
16
31
31
24
17
10
10
13
18
21
32
31
37
30
25
31
16
26
35
39
35
46
44
57
58
47
20
18
23
23
39
51
48
37
35
47
53
59
55
65
70
79
64
66
56
60
60
56
72
69
74
80
76
65
58
55
52
55
50
64
60
57
55
49
31
26
37
26
44
50
36
28
40
22
25
21
11
3
23
14
15
11
20
14
8
17
21
18
10
19
24
24
19
-3
4
15
18
11
20
22
26
16
13
10
14
4
4
5
24
19
16
11
16
14
13
18
14
10
17
21
34
31
9
15
-4
-6
15
22
21
29
29
39
12
11
8
17
3
10
18
16
22
14
13
2
16
6
16
23
26
15
26
17
7
-5
2
14
8
3
10
24
14
14
25
18
13
23
13
17
14
19
31
23
17
10
5
5
10
8
30
13
31
28
13
13
22
21
22
17
27
32
22
23
18
14
11
22
10
30
21
30
13
2
1
4
8
-3
-8
2
17
20
21
10
13
10
-13
-4
6
13
23
19
21
7
12
-1
-3
2
1
25
19
29
21
21
8
-1
7
15
17
23
6
18
18
13
13
16
28
42
43
49
58
89
77
66
30
-28
-46
-43
-30
-22
-21
-23
-12
-24
-19
-16
-17
-3
-1
11
22
19
28
6
6
3
13
8
8
34
30
16
26
16
12
7
-6
8
3
22
31
18
24
12
9
19
15
7
14
24
28
29
19
15
1
4
22
28
15
21
18
30
37
32
19
12
19
19
25
24
26
35
33
25
15
20
23
22
42
35
47
34
47
38
46
29
19
34
53
53
60
75
60
56
46
55
50
61
62
74
80
84
73
74
67
58
65
64
74
69
74
82
58
60
67
63
54
43
46
54
57
54
44
37
43
29
25
18
22
28
42
25
38
21
21
0
18
18
22
29
34
24
19
9
11
15
16
18
12
24
26
18
16
23
8
3
13
17
28
40
30
19
17
10
20
21
10
17
15
10
8
36
32
3
1
14
25
25
18
32
34
24
20
7
15
29
19
17
39
34
30
37
27
14
9
17
21
27
26
30
25
28
13
9
14
32
39
22
26
23
24
16
34
20
14
15
20
17
26
33
29
10
16
7
20
21
36
25
24
31
35
37
26
13
17
20
17
24
39
31
25
23
29
30
25
26
36
26
28
31
43
50
26
32
23
29
36
47
22
33
23
23
24
1
-2
14
13
19
30
21
17
27
29
23
26
20
-6
7
27
25
16
10
22
-3
9
20
14
18
17
13
7
-3
26
11
13
19
17
24
24
22
25
14
12
36
29
26
36
57
71
77
78
80
63
34
3
-20
-32
-33
-36
-25
-17
-28
-23
-17
-14
-4
16
15
12
24
21
14
10
1
-8
30
32
22
27
21
20
15
19
4
22
9
16
23
29
25
15
14
12
11
15
6
36
21
24
10
31
27
15
15
27
28
24
26
18
28
26
34
24
17
12
29
32
35
39
48
48
40
30
31
32
23
24
27
43
30
29
39
25
29
38
45
49
59
67
66
46
55
42
53
44
63
74
83
85
86
66
74
64
56
67
61
61
72
71
67
77
67
62
62
48
46
58
45
61
53
45
52
44
41
42
34
29
39
29
26
23
22
21
13
17
16
25
29
35
44
28
19
11
-3
4
16
33
24
29
23
-2
4
21
16
13
5
11
18
25
14
22
26
1
15
22
24
18
18
10
23
15
3
4
16
22
29
27
32
32
35
29
12
5
12
12
32
23
24
11
18
20
18
17
9
24
34
18
23
25
33
27
16
14
20
31
17
30
43
25
31
20
25
10
10
26
23
33
39
36
36
28
24
20
26
29
26
32
20
28
20
4
8
28
18
19
35
43
30
43
19
20
19
19
12
11
20
28
44
30
26
28
12
32
27
23
33
38
42
35
45
25
23
22
38
36
39
34
42
58
30
32
9
18
15
23
14
12
25
38
19
25
23
6
21
20
15
26
24
27
28
16
14
20
16
18
28
31
35
29
8
16
13
5
19
21
26
37
51
44
34
30
38
27
8
23
13
47
69
60
62
59
66
70
70
66
46
8
-14
-25
-38
-38
-36
-24
-9
-11
11
23
29
25
19
7
6
1
22
38
44
41
26
35
20
19
5
6
21
32
25
28
32
27
31
27
28
27
29
29
33
27
38
39
33
15
18
16
14
23
38
34
31
28
35
46
32
33
62
41
36
47
40
39
33
25
39
31
45
46
49
44
44
66
44
39
59
62
49
46
60
69
75
68
56
53
60
71
63
59
87
81
90
94
83
71
73
86
84
86
92
92
84
90
82
80
76
88
90
92
87
79
76
69
52
46
64
66
61
54
61
64
59
42
26
25
45
53
50
59
51
49
36
37
31
34
23
14
22
29
35
50
46
29
31
30
22
26
36
39
31
44
41
32
27
33
19
20
30
19
38
45
34
45
39
14
27
18
30
54
38
45
37
25
34
21
19
15
29
37
53
52
38
32
32
35
22
13
27
33
32
36
43
26
23
22
25
31
37
38
29
33
32
23
6
0
28
21
21
22
36
51
40
32
27
12
7
26
20
27
38
47
30
24
21
25
17
22
25
27
25
35
30
23
26
23
13
8
20
28
43
33
20
27
18
19
29
31
30
41
44
41
22
23
36
19
17
24
38
24
41
53
34
35
24
40
23
29
38
32
44
39
30
21
19
1
8
33
13
14
36
28
17
7
4
21
10
24
30
22
24
22
28
17
7
19
6
29
25
18
24
13
11
25
16
17
11
2
16
23
33
33
26
23
10
15
18
34
51
60
50
44
76
53
79
59
35
-1
-12
-24
-31
-48
-35
-42
-35
-35
-21
-15
-9
6
19
17
15
3
5
9
7
8
12
18
31
22
12
5
10
10
6
11
16
22
23
5
16
13
14
27
24
15
16
25
23
26
10
8
1
-2
13
17
29
30
16
18
5
3
-8
23
20
15
32
35
33
12
18
21
13
-13
15
39
25
21
40
44
40
7
29
12
25
37
36
43
48
36
28
27
38
45
39
41
60
57
61
51
43
34
44
50
65
52
62
74
70
69
53
44
33
22
54
56
62
58
59
53
43
15
13
19
23
24
26
23
22
17
1
-8
17
12
12
11
-2
12
26
16
-7
-8
-11
-14
-18
11
12
16
8
-5
-3
-13
2
4
-6
6
4
5
12
-2
-23
-15
0
9
-7
-4
4
4
5
8
-1
-11
-6
-8
12
14
14
7
9
2
9
-3
-11
-8
4
19
5
-6
-11
-1
7
4
2
3
1
14
21
13
1
-5
-7
2
6
-15
-5
5
5
2
-4
-3
-9
-10
-13
-7
-2
18
34
-5
1
1
-10
-3
-11
-5
-10
13
12
7
-1
7
-6
-13
2
4
0
9
16
12
20
11
-6
-5
6
1
1
4
8
33
2
10
3
7
-1
-4
3
20
17
19
0
-8
-2
-18
-15
-11
-8
1
2
5
0
-9
-8
-24
-7
-4
2
5
27
-4
-6
-10
-18
-13
-15
-14
-3
2
11
2
0
-7
-9
-20
-5
1
19
19
23
18
6
2
-3
23
19
32
35
49
77
65
31
8
-20
-55
-47
-38
-38
-27
-27
-39
-48
-35
-39
-24
-12
-1
-11
-5
6
-4
-14
-12
-11
-4
-5
-5
2
4
-3
2
-9
-21
-22
-9
2
14
3
2
-2
7
-6
-11
-2
10
-5
-2
9
14
17
5
-2
-10
-3
6
12
5
5
11
13
2
-5
2
2
-1
-1
0
-6
20
20
10
18
11
10
10
-2
11
11
19
32
22
5
14
27
22
32
34
40
26
32
41
29
29
30
35
40
31
35
57
59
51
42
34
35
41
34
52
50
41
52
43
30
31
25
16
39
26
28
29
25
27
18
7
13
20
8
17
14
22
16
-4
-3
-12
-11
-4
-6
-5
1
-5
-17
-16
-18
-24
-18
-11
-12
-8
-4
-10
-14
-33
-29
-16
-15
-21
-15
-8
-4
-14
-8
-13
-33
-22
-14
-26
-16
-9
0
-1
4
-5
-27
-40
-24
-20
-8
-13
-7
-13
-13
-2
-25
-22
-14
-18
-9
-14
1
-21
-14
-6
-12
-22
-20
-3
-10
-8
-8
-3
-15
-25
-26
-43
-15
4
-4
-3
-4
4
-8
-18
-25
-20
-17
-20
-8
-10
-9
-17
-15
-9
-18
-23
-27
-22
-11
-4
-15
-4
-12
-7
-17
-20
-17
-4
-8
-4
-12
-7
-13
-12
-16
-15
-10
1
-9
-12
-4
5
2
-13
-8
-19
-20
-9
-13
-14
12
3
-11
-22
-24
-17
-25
-14
-17
-12
-18
-22
-13
-21
-28
-26
-25
-32
-14
-16
-19
-13
-16
-15
-18
-27
-16
-32
-23
-17
-18
-26
-29
-28
-28
-36
-32
-34
-27
-22
-25
-11
-9
-18
-31
-31
-19
-12
7
17
22
20
17
30
46
35
7
-31
-50
-50
-59
-62
-68
-63
-58
-74
-59
-33
-29
-19
-21
-19
-30
-45
-44
-37
-15
-13
-12
-4
-15
-33
-14
-27
-27
-23
-26
-25
-15
2
-12
-31
-30
-26
-31
-19
-24
-17
-5
-9
-14
-11
-8
-29
-20
-17
-21
-18
-8
-15
4
-4
-17
-27
-14
-17
-45
-18
0
-5
-8
-2
-12
-13
-12
-14
-13
1
-2
-2
-15
-10
15
3
-4
-11
-6
0
20
11
19
16
14
25
-1
0
20
28
21
22
36
36
28
28
30
30
30
28
40
53
42
33
36
6
17
30
19
15
35
45
28
19
-9
-2
-14
1
10
10
13
14
8
-8
-10
-25
-15
-10
-19
-8
2
-6
-12
-14
-30
-22
-23
-18
-10
-16
-19
-20
-24
-18
-27
-19
-19
-20
-25
-21
-13
-7
-6
-11
-32
-26
-20
-12
-14
-8
-15
-19
-26
-37
-27
-13
-22
-21
-12
-6
-7
-8
-12
-16
-25
-31
-22
-23
-14
-14
-15
-16
-23
-11
-13
-17
-15
-14
-10
0
0
-4
-13
-14
-24
-29
-26
-20
-11
-8
-12
-13
-7
-9
-35
-43
-18
-19
-4
-16
-12
-6
-30
-26
-15
-27
-49
-27
0
-7
0
2
-16
-19
-21
-8
-16
-4
-14
-2
-5
-9
-9
-16
-17
-23
-19
-13
-8
-13
-3
4
-7
-1
-23
-16
-19
3
8
9
14
12
-3
-14
-26
-29
-27
-18
-24
-15
-3
-10
-11
-29
-37
-34
-21
-20
-17
0
-3
-14
-9
-24
-19
-15
-22
-13
-23
-16
-9
-10
-33
-17
-17
-23
-21
-24
-14
-22
-14
-2
-7
-19
-7
-14
-22
-7
10
15
22
18
26
26
19
24
25
17
19
-19
-45
-58
-58
-88
-78
-55
-58
-39
-29
-12
-21
-11
-15
-23
-14
-17
-29
-24
-9
-11
-9
8
-3
-18
-20
-9
-7
2
-4
-4
3
-2
-3
-13
-19
-19
0
-7
-18
-2
-28
0
3
-12
14
1
-10
4
17
13
21
-5
-5
2
-3
-14
-14
-3
2
16
-2
-13
-6
2
-19
-20
-3
28
16
14
20
16
16
8
14
12
12
10
27
26
38
24
22
21
20
17
27
32
19
14
36
30
58
65
43
50
58
66
63
51
55
49
45
39
33
30
41
42
46
42
45
36
31
26
25
25
20
21
15
28
21
14
-4
1
-13
-7
-8
-11
18
0
4
10
7
-4
-6
-23
-2
15
15
8
-8
-14
-34
-44
7
9
4
-23
9
14
6
1
-8
-8
-13
-5
-12
-6
-9
-14
1
8
-7
-3
-7
-8
0
6
-6
6
-1
0
-10
-8
-6
-6
5
-12
-8
-8
-6
2
-7
-2
-14
-9
-7
-1
10
16
13
-7
-6
-2
-5
-2
-10
-14
9
9
1
0
-14
-13
-5
-4
-11
0
7
0
-2
-19
-3
-2
-2
-14
-15
13
17
12
-2
-9
-15
-15
-1
0
0
8
21
17
-9
-7
-5
-6
-8
-1
8
6
18
18
20
1
-3
16
-3
1
15
25
11
9
3
-4
-21
-9
-11
-2
1
-3
13
-3
-9
-16
-5
-4
-11
-11
-10
-1
1
-6
-13
-4
-3
6
0
7
-1
-7
6
5
-2
-7
-18
-21
-6
-2
-9
5
26
15
7
5
-4
-10
-16
6
3
19
31
36
34
39
43
47
55
29
16
-33
-45
-48
-56
-53
-56
-50
-43
-25
-15
-8
2
-12
-9
-14
-11
-10
-2
-1
8
9
10
12
9
-8
-8
-1
1
9
2
14
8
-2
9
-16
-21
-8
11
6
5
11
13
15
13
-6
-4
-1
-3
2
8
9
14
7
0
-6
8
4
-3
15
15
26
31
22
11
-2
3
12
11
7
22
22
18
10
-4
2
10
31
42
37
21
28
40
43
43
34
40
39
40
47
46
52
56
56
54
47
42
54
52
74
73
63
62
41
55
63
51
52
57
51
49
38
52
34
17
21
26
34
19
17
33
45
28
18
5
18
21
17
6
4
5
12
9
-1
8
4
-2
8
1
-9
8
1
-4
-2
-8
-10
-26
11
-2
-6
-2
17
6
-8
-2
-4
-3
-5
-5
3
-1
1
7
6
-21
-5
1
12
10
7
16
11
8
-12
-2
1
-2
4
-4
10
15
7
8
-1
-15
-20
4
3
-3
-5
18
12
4
0
6
1
-7
-6
5
8
13
6
3
6
-11
2
2
3
9
24
14
10
6
-1
1
13
4
-4
1
3
7
16
7
5
-4
-6
-3
7
11
17
24
16
0
5
6
-13
6
12
2
17
11
22
47
-1
7
-10
-9
2
4
1
11
3
7
-7
-11
-6
-16
5
12
-2
11
6
5
-7
-20
-24
-2
3
-4
12
17
6
0
9
-8
3
-10
-15
-3
-8
10
0
-11
-8
-12
-6
6
12
4
2
13
36
33
31
35
38
38
49
45
35
-5
-30
-51
-55
-64
-53
-46
-54
-40
-36
-29
-27
-26
-28
-18
-14
-11
-3
9
12
9
8
1
-12
-18
-11
1
17
5
10
12
19
-3
-9
-6
-6
-8
5
-6
6
11
22
0
-14
-13
0
9
3
-4
2
5
7
0
-2
-3
0
2
6
8
14
12
13
9
24
4
2
4
13
7
23
19
17
17
3
13
15
6
27
34
35
38
30
17
12
1
5
31
35
43
40
39
54
35
29
42
40
39
48
58
50
54
46
68
55
34
30
41
58
48
66
61
36
32
32
29
20
26
35
31
25
10
18
1
8
-8
2
14
9
6
24
6
9
-2
-11
2
5
-8
-3
-11
-8
-12
-7
-16
1
4
14
6
3
-6
1
1
-9
-14
-14
-12
-5
-3
5
-1
-3
-10
3
-17
-12
-9
0
-15
-1
14
5
18
-4
3
-1
-3
-5
-5
6
12
3
4
-8
-7
-18
-21
-2
10
3
21
9
17
4
-1
-3
4
-6
3
12
8
10
6
-6
-32
-18
-16
4
9
7
2
5
7
6
8
-5
-8
-3
-3
22
17
-3
-11
9
3
15
9
22
2
15
18
14
16
0
6
2
7
11
7
8
4
21
12
-4
-6
-9
-3
-10
1
7
9
20
5
-4
-4
-18
-17
-29
-12
-10
4
9
25
-3
-7
-13
-4
14
1
1
18
3
-10
-2
-1
-15
0
-6
11
12
9
5
-1
5
3
-11
2
18
34
26
42
40
41
39
44
47
46
20
-12
-33
-30
-34
-39
-50
-41
-49
-45
-26
-7
-9
6
-11
6
0
-4
-6
-11
-10
3
8
14
9
1
2
-1
-1
2
2
5
19
18
19
5
-2
-1
5
-2
-2
6
14
15
8
6
4
-4
-11
-3
5
6
24
15
19
13
12
15
6
6
5
11
9
22
26
