79
80
76
78
81
83
82
79
76
84
96
113
76
60
65
47
65
76
90
83
82
84
79
78
78
75
82
75
72
77
66
49
83
86
83
83
95
130
101
68
66
87
75
68
68
63
63
84
81
79
71
78
79
86
82
80
80
81
69
62
75
76
78
80
76
77
71
85
80
71
76
75
77
74
79
74
80
75
93
115
110
47
58
35
65
107
90
79
90
87
87
80
87
94
91
89
99
69
95
69
64
74
67
72
70
74
73
84
77
76
74
77
64
62
83
84
78
75
74
74
72
72
100
131
67
43
63
50
55
61
60
64
58
74
89
116
141
178
202
219
242
229
174
132
125
75
114
82
32
19
29
50
58
61
60
70
71
73
66
70
67
64
62
61
54
56
67
78
65
73
65
70
66
90
87
97
55
85
94
102
44
37
46
62
70
67
62
55
57
51
79
85
60
65
67
65
80
71
70
67
70
68
71
75
68
71
74
64
48
59
56
81
85
83
102
123
109
80
62
66
86
94
76
75
83
97
110
90
87
74
80
90
89
100
93
93
106
100
108
99
104
99
96
95
109
92
93
89
76
91
70
111
83
81
93
97
105
94
88
95
81
61
67
78
74
69
74
71
73
65
65
67
70
84
66
63
61
58
74
68
66
66
65
73
65
64
60
53
61
45
51
82
73
73
69
72
71
68
74
68
67
69
67
59
85
97
65
61
55
50
65
63
65
67
69
68
66
76
61
60
63
61
54
62
75
61
73
69
76
74
77
63
63
60
59
55
48
82
87
98
49
59
59
51
54
61
71
55
62
72
55
62
65
74
60
69
75
50
64
74
49
55
63
58
41
71
73
69
69
66
51
61
68
65
57
72
60
67
72
61
61
81
64
45
61
63
46
58
36
56
73
65
69
69
63
61
70
59
59
63
59
63
55
56
77
64
58
65
66
68
66
70
85
98
78
72
56
67
71
71
68
64
64
84
75
47
64
68
45
49
31
59
70
68
58
59
52
50
65
60
62
59
61
62
65
60
56
48
63
54
59
61
54
51
41
54
57
47
57
68
79
105
119
165
198
223
213
186
149
126
127
96
68
34
0
1
22
42
40
45
50
67
62
43
62
47
54
52
51
57
48
48
49
55
38
62
62
61
50
56
57
57
48
45
65
78
59
76
108
54
21
32
43
55
43
50
42
41
45
39
57
55
64
64
62
52
52
58
54
58
59
57
56
41
59
64
60
55
53
63
66
63
72
70
47
64
82
75
54
76
94
99
128
73
48
77
82
77
75
85
80
93
87
74
86
81
80
71
74
79
92
81
84
84
68
82
75
73
73
61
60
65
68
75
71
64
59
69
72
63
57
55
80
63
41
53
43
48
55
63
63
50
71
45
44
50
49
55
63
51
60
38
44
57
47
37
60
47
48
56
58
64
53
57
44
48
52
47
48
43
31
58
65
59
54
60
63
69
73
71
49
34
50
52
42
50
29
26
47
82
59
43
56
55
55
59
55
54
51
51
55
49
57
53
51
51
54
46
35
40
55
56
53
61
52
45
58
50
43
45
54
69
55
59
77
26
16
48
59
61
59
46
62
44
45
37
42
53
56
46
49
44
51
50
46
40
45
45
26
44
46
65
52
56
52
47
49
40
41
42
40
48
55
49
36
60
60
79
80
68
32
37
36
63
63
42
47
65
66
69
74
55
28
43
41
49
44
35
44
54
41
46
45
41
47
51
41
46
41
31
45
38
32
46
45
54
50
47
41
40
40
41
39
59
51
32
50
78
34
23
44
89
104
124
154
178
200
179
160
126
128
100
71
34
0
-10
-4
11
27
42
31
42
38
29
25
12
38
43
56
45
33
27
30
42
55
51
42
58
68
32
31
46
39
45
43
44
47
39
43
36
37
45
44
46
34
38
51
36
45
49
37
37
40
42
43
42
39
38
33
42
49
39
44
43
58
45
40
46
48
54
50
51
51
92
83
36
58
55
51
67
84
83
47
38
51
63
63
71
83
74
51
74
79
76
69
65
73
73
68
76
74
77
70
65
68
64
61
61
64
62
55
54
50
49
57
59
59
60
40
31
29
82
64
58
22
50
33
42
28
36
37
31
35
35
44
34
52
49
49
28
28
42
44
33
34
31
45
44
33
42
37
37
37
48
37
43
47
44
39
39
51
57
35
57
37
39
15
31
28
34
25
38
36
64
34
18
26
36
28
32
40
36
50
48
44
40
38
40
42
48
55
61
44
28
30
27
35
39
37
34
29
42
43
40
30
40
43
38
38
36
67
96
111
-8
5
-6
13
-32
-24
61
65
51
37
41
45
43
39
39
41
39
37
37
39
44
37
43
45
46
43
13
43
47
38
43
29
36
38
37
43
48
43
47
46
48
45
41
46
42
49
52
64
115
46
-2
-7
22
9
26
50
34
38
27
40
37
28
16
29
8
5
67
62
65
50
45
31
25
30
36
32
32
33
33
22
20
11
19
22
30
45
60
91
123
149
164
190
211
213
135
83
97
68
27
-9
-31
-33
-6
6
10
39
31
42
52
27
50
29
19
29
4
9
39
29
22
29
27
28
33
30
23
24
37
53
63
34
38
26
15
31
26
26
28
33
33
35
30
29
37
35
43
61
50
45
44
12
15
26
22
30
31
37
33
32
21
23
50
39
20
36
43
40
57
45
41
39
48
59
48
54
54
46
61
45
55
62
56
58
49
60
61
64
66
54
59
69
71
65
79
64
61
79
68
69
42
29
41
52
53
55
42
41
55
53
45
29
49
47
31
37
37
37
37
38
34
21
34
42
47
28
29
38
29
24
27
39
27
21
28
43
53
52
60
39
2
2
17
17
24
29
17
5
34
39
37
25
14
18
30
30
37
41
49
24
23
25
29
30
37
26
31
24
31
33
30
32
25
26
28
43
58
48
98
-1
1
22
15
20
21
28
27
29
27
21
17
6
28
15
36
35
38
35
31
31
28
26
27
25
27
27
26
30
27
29
33
31
29
22
27
23
19
25
34
29
20
21
24
35
61
63
51
-1
9
16
12
5
14
26
44
23
28
14
44
38
39
45
37
39
33
30
41
41
31
26
36
31
32
19
21
26
23
23
18
24
32
19
34
43
46
31
31
28
21
27
6
15
12
15
8
2
-9
27
39
18
9
20
15
7
-19
28
57
67
97
133
154
177
183
158
135
119
115
70
44
0
-30
-34
-10
8
8
25
2
24
29
27
24
17
-6
12
10
13
14
19
4
16
24
16
17
7
6
23
17
24
22
20
28
27
16
27
17
23
31
24
17
14
27
48
-5
16
29
20
21
27
30
23
15
27
25
31
36
13
22
24
28
27
19
17
36
26
20
26
35
25
30
42
40
29
18
27
50
56
30
36
29
39
58
58
43
49
43
58
37
35
56
75
53
56
62
54
55
50
49
67
51
75
46
31
36
52
40
32
36
31
34
45
37
14
25
22
35
10
31
30
12
13
25
26
19
10
12
21
13
25
4
33
31
31
32
21
20
64
23
-14
6
5
7
24
16
7
27
21
24
24
29
25
19
25
10
23
-5
11
20
22
27
25
18
13
20
8
35
20
15
21
-7
18
21
27
42
58
20
7
-6
20
24
20
24
23
13
23
19
21
0
17
28
16
17
24
33
17
26
19
8
19
27
29
21
19
4
16
15
5
16
28
6
-1
16
22
20
33
18
20
18
19
21
12
31
49
25
12
21
37
30
25
46
21
18
26
26
35
38
40
30
21
16
11
34
4
3
15
28
10
0
14
25
23
24
16
22
26
8
20
30
22
9
27
17
9
9
13
9
-2
35
30
4
25
-10
6
-6
-3
6
25
55
72
88
128
138
151
184
168
142
109
95
71
33
-24
-42
-39
-29
-26
16
25
17
23
25
24
21
-6
-3
5
13
6
8
16
13
16
16
24
25
3
-13
-10
10
31
17
18
17
15
-1
13
19
24
20
17
15
14
22
28
28
22
13
23
14
28
26
5
-2
4
24
35
43
23
26
5
14
12
27
16
16
13
21
-12
18
46
18
39
37
42
40
52
41
20
22
63
45
41
47
36
40
46
54
54
52
43
46
51
52
53
70
54
52
51
51
40
21
31
31
41
43
42
31
44
50
30
26
13
-2
22
46
27
36
21
27
25
15
24
11
25
18
16
13
1
21
24
18
22
24
21
16
-4
16
20
29
22
1
3
-1
12
12
21
22
19
26
44
28
26
-16
-20
2
16
22
5
19
25
28
8
18
18
15
16
18
16
16
16
20
17
15
13
12
-4
16
14
26
31
27
47
17
22
12
-1
16
20
23
17
14
18
8
14
6
1
-5
-2
6
18
9
28
15
17
22
22
6
19
16
4
16
18
15
13
16
20
21
17
21
18
23
26
24
26
42
24
43
15
16
16
21
12
13
29
14
12
17
17
16
19
-8
-5
-19
-28
-9
56
26
22
19
15
17
22
14
9
9
25
16
-6
13
12
6
6
18
18
4
-2
-5
-3
-10
-16
-4
15
30
64
107
142
146
146
146
142
114
98
96
74
45
-2
-42
-65
-60
-19
0
12
-3
3
6
12
22
13
5
11
0
-2
4
0
5
7
11
-6
7
14
17
23
-2
-2
-5
1
-2
2
3
1
0
7
7
14
23
35
-8
-12
-3
8
-9
-17
-16
-1
6
16
-3
7
11
28
21
25
17
31
1
-3
1
-2
3
6
10
19
18
10
10
16
32
32
30
16
20
29
17
27
26
34
22
21
34
19
40
46
33
33
38
42
37
46
47
26
25
49
66
34
4
15
34
19
26
18
19
25
29
19
20
15
16
14
8
7
5
5
6
4
7
8
1
8
15
-9
10
3
-15
4
-5
-5
6
-3
-3
9
14
0
0
4
8
8
-20
-18
1
-7
11
16
-3
8
-10
-3
9
14
-5
-4
-10
-6
-5
-3
-1
-26
-11
0
6
2
5
-4
-6
-13
-18
2
11
5
-4
-5
-5
1
-1
6
-1
8
7
-3
12
32
10
-13
10
-2
-15
-12
-8
-21
-24
0
-2
-4
-5
-4
-7
-11
5
-4
-10
-6
-4
-1
-5
-10
10
-13
-7
14
14
8
3
-5
11
18
-14
-28
-6
5
-12
-15
-14
-4
4
0
1
-3
-2
-1
-9
-8
8
9
10
10
10
4
4
-2
-2
-4
1
-16
-7
8
0
-3
-3
-6
-12
-9
-6
-14
-9
-9
10
-5
3
18
8
-3
-12
-6
-13
-4
-5
-17
-13
2
-17
-29
-34
-34
-36
-18
-1
8
22
65
99
115
131
149
143
119
86
74
65
26
-19
-27
-60
-34
-36
-20
-14
-9
-6
-15
-12
-4
4
19
32
8
-35
-25
-13
-28
-21
-23
-15
-11
-11
2
19
7
-17
-28
-14
-18
-15
-8
9
-15
-1
-2
-1
-1
-1
-5
-5
-7
-5
13
18
18
-13
-8
-8
-7
0
0
8
9
1
2
6
20
14
12
5
9
11
12
-4
20
31
10
30
26
13
15
22
8
8
0
39
29
41
31
26
20
32
22
17
23
29
28
23
26
11
32
11
11
19
-9
-1
1
2
11
20
4
-10
-13
-11
9
3
-4
-10
-3
-16
-4
-20
-13
-13
-3
-5
-16
-11
-6
15
-14
-10
-1
2
-3
-7
-8
-11
-10
2
-7
-12
13
-1
-7
-7
-11
-12
-8
3
4
5
-19
-13
1
8
-7
4
-4
1
-18
-20
-10
-15
0
10
-7
-21
-13
-6
-7
-16
-12
-15
-3
1
-4
-8
7
-5
-10
1
-11
-1
-13
-19
17
6
5
-1
5
-16
-7
9
-16
-9
-20
-12
-13
2
-11
-10
-11
-10
-12
-14
-1
10
8
-6
-8
-2
-10
-4
-16
-11
-8
-6
-10
-13
-11
-9
-8
-9
-4
-6
-16
-6
-2
15
14
18
-17
-48
-14
-6
-2
-1
-4
-3
-4
-6
2
-11
-8
-15
8
20
-5
8
5
1
7
22
9
19
-26
-16
-8
1
-6
-10
-20
-12
-6
-13
-14
-11
-17
-13
-7
-10
-17
-7
-10
5
25
30
-18
-22
-24
-12
-23
-28
-28
-28
-34
-24
-20
-11
7
37
58
87
101
136
150
128
109
89
80
56
35
-1
-60
-56
-50
-44
-43
-15
-15
-5
-15
-20
-12
-17
-12
-13
-15
-16
-14
-13
-20
-18
-13
-11
3
28
14
4
-28
-28
-29
-17
-23
-18
-15
-13
-16
-13
-10
-14
-4
-11
-1
-33
-12
-26
-10
-14
-20
-12
1
-4
-12
-6
-11
-8
-10
-5
-10
-8
-10
-5
-10
-5
-2
-1
-9
-2
-12
14
23
5
1
-3
-11
-5
2
21
-9
1
22
-11
12
35
14
15
13
20
20
18
16
6
23
32
23
25
11
15
27
21
15
20
11
24
11
16
18
13
11
-5
-4
5
-6
-17
2
3
-4
-3
-10
-10
1
18
14
-5
7
-40
-30
-19
-9
-21
-27
-13
-12
-6
-13
-8
-11
-13
-16
-13
-9
-3
-27
-5
-15
-15
-14
-19
-16
-24
-16
-1
-23
-13
-11
-6
-7
-17
-18
-4
-8
-1
-20
-17
-15
-11
-8
-3
4
-22
-22
-10
-2
-7
-2
-18
-25
-20
-24
-14
-15
-15
-12
-10
-6
-12
-18
-5
3
-19
-23
-9
-22
-24
-14
3
-14
-29
-29
-20
-31
-22
-2
-11
-16
-28
-12
-28
-3
-3
-13
-12
-17
-7
-13
-11
4
-3
-19
-7
1
-34
-16
-14
-20
-16
-19
-17
-17
-18
-6
-15
-15
-9
-13
-5
-17
-32
-10
-7
-10
-24
-14
-21
-7
-14
-37
-34
4
-31
-37
3
-3
-2
8
6
-9
-4
-12
-10
-9
-3
-15
-11
3
-10
-14
3
-10
-14
-5
-13
-28
-30
-13
-4
4
-8
-36
-32
-25
-38
-24
-15
-10
-2
-21
-10
-16
-11
1
28
-20
-33
-29
-34
-12
-18
-29
-19
-25
-23
-33
-36
-40
-37
-29
-7
1
32
62
90
128
128
135
129
92
76
58
42
1
-33
-75
-67
-41
-10
-3
-12
-42
-31
-27
-36
-36
-12
-43
-48
-3
-16
-36
-17
0
3
-34
-34
-26
-24
-22
-27
-23
-15
-11
-23
-17
-30
-17
-14
-14
-15
-24
-19
-11
-11
-11
9
-27
-29
-27
-18
-24
-9
8
-41
-17
-22
-17
-25
-22
-18
-22
-18
-16
-14
-9
-15
-10
-13
-13
-22
-19
-16
12
5
-16
-20
3
7
-5
-1
3
5
16
1
-2
-13
1
12
4
11
25
22
20
34
24
20
-3
6
5
2
12
6
-2
10
6
13
10
5
11
6
0
-5
4
-1
-11
-15
-12
-5
12
1
-21
-1
-30
-29
-14
-26
-19
-19
-24
-26
-3
-42
-24
-17
-25
-27
-22
-25
-4
-21
-32
-16
-4
-25
5
-11
-22
-20
-21
-12
-20
-8
-27
-18
-48
-15
-29
-17
-12
-15
28
-31
-42
-23
-19
-25
-25
-23
-47
-48
-18
0
-12
-7
-20
-15
-9
-27
-21
-26
-29
-25
-28
-25
-16
-9
-27
-10
-2
-3
-23
-16
-18
-29
-44
-21
-12
1
-25
-20
-4
-19
-14
-15
-32
-37
-19
-18
-25
-16
-12
-13
-17
-22
-19
-21
-28
-18
-30
-12
-11
-20
-18
-18
-21
-7
-22
-39
-30
-15
-17
-30
-16
-6
-4
-12
15
6
-45
-37
-29
-11
-21
-16
-16
-14
-41
-41
-12
-17
-15
-28
-4
-6
6
-10
-25
-9
-45
-36
-3
-29
-8
4
-10
-9
-12
-21
-3
-7
-6
-4
-1
-26
-20
-11
-5
-13
-23
-9
-25
-18
-24
-25
-24
-8
-22
-17
-12
-20
-24
-13
-17
-32
-33
-25
2
5
-27
-29
-29
-31
-24
-34
-26
-13
-27
-42
-32
-32
-39
-28
-16
8
7
27
77
102
114
127
110
101
74
93
60
28
-14
-58
-87
-75
-61
-50
-23
-25
-34
-26
-13
-22
-14
-30
-35
-20
-7
-4
-37
-48
-20
-25
-36
-31
-32
-18
-23
-24
-30
-29
-30
-17
-23
-23
-16
-47
-29
-20
-19
-31
-36
-9
-8
-4
11
-21
-13
-22
-22
-24
-21
-40
-27
-21
-13
-11
-21
-15
-29
-35
-5
-2
-10
-23
-22
-22
-1
-11
-16
-19
-7
-5
-14
-16
4
18
4
-13
-2
19
17
9
3
-1
-13
-11
-17
6
28
19
11
16
15
22
20
24
21
12
-3
5
2
8
9
18
-7
11
0
6
-18
-6
-15
-9
2
5
-9
-10
-17
-17
-3
-21
-13
-8
-10
-11
-27
-18
-20
-21
-20
-24
-21
-17
-9
-31
-24
-36
-29
-27
-12
-5
-7
-30
-27
-16
-18
-26
-29
-20
-20
-13
-12
-13
-12
-22
-33
-26
-28
-9
-10
-23
-27
-19
-17
-26
-24
-31
-18
-11
-19
-14
-20
-20
-19
-29
-11
0
15
-18
-42
-51
-43
-15
-10
-5
-13
-13
-23
-23
-20
-15
-9
3
-12
-28
-22
-41
-30
-13
-30
-24
-23
-30
-18
-25
-11
-14
-21
-22
-23
-21
-19
-17
-15
-8
-33
-38
-23
-8
1
-42
-27
-34
-36
-27
-10
-14
-20
-23
-19
-17
-15
-24
-15
-11
4
-22
-33
-40
-16
-20
-29
-19
-28
-23
-25
-20
-15
-14
-17
-17
-17
-12
-3
-5
20
-5
9
-41
-28
-68
-40
15
2
-11
-25
-21
-22
-22
-23
-21
-27
-20
-23
-28
-16
-16
-12
-14
-30
-34
-40
-26
-27
-63
-11
-10
-17
-27
-24
-19
-24
-26
-22
-24
-34
-28
-37
-40
-41
-26
-30
-9
-14
-28
43
80
94
115
124
116
92
68
71
42
17
-3
-50
-74
-69
-51
-38
-8
-27
-1
-25
-54
-40
-38
-34
-35
-27
-25
-35
-38
-25
-30
-30
-36
-30
-29
-26
-32
-21
-12
-14
-13
-30
-20
-32
-37
-47
-42
-31
-28
-32
-36
-29
-17
-24
-25
-23
-28
-23
-15
-24
1
-14
-58
-43
-14
-22
-24
-29
-31
-24
-19
-28
-45
-19
-20
-15
-16
-16
-16
-14
-10
-17
-4
6
12
-29
-23
-10
-1
-9
-2
-6
-5
-9
-12
-12
2
5
16
15
25
21
4
0
-31
-7
19
10
3
-6
15
-1
-6
-5
-7
-5
-4
-6
-13
-20
-26
-13
-16
-18
-15
-23
-17
-13
-23
-19
-20
-53
-40
-15
-30
-12
-15
-29
-21
-23
-27
-22
-16
-38
-24
-24
-21
-26
-17
-1
-38
-44
-24
-23
-43
-44
-34
-50
-28
-23
-34
-32
-23
-39
-28
-46
-51
-25
-16
-22
-27
-19
-34
-33
-26
-22
-25
-37
-22
-33
-23
-29
-27
-19
-28
-31
-34
-30
-20
-38
-29
-28
-26
-38
-6
-13
1
-44
-32
-41
-35
-27
-27
-24
-16
-30
-46
-30
-25
-25
-24
-55
-25
-24
-10
-32
-44
-27
-26
-33
-31
-28
-34
-33
-23
-34
-17
-40
-29
-14
-1
7
-53
-47
-38
-40
-35
-14
-30
-10
-44
-43
-35
-35
-42
-40
-15
-35
-36
-31
-25
-27
-23
-25
-29
-30
-25
-21
-32
-7
-1
-7
-26
-22
-37
-23
-19
-33
-16
-24
-11
-28
-30
-30
-23
-8
-31
-27
-34
-30
-21
-39
-25
-18
-13
-46
-45
-51
-35
-39
-35
-19
-45
-45
-26
-23
-6
-28
-42
-35
-15
-43
-30
-40
-44
-43
-58
-51
-47
-44
-21
6
29
65
89
113
120
120
98
73
62
42
18
-7
-68
-77
-60
-63
-57
-55
-28
-25
-28
-26
-44
-35
-34
-54
-36
-35
-28
-33
-13
-22
-49
-52
-59
-36
-33
-29
-25
-38
-41
-21
-24
-44
-28
-39
-43
-32
-34
-33
-37
-44
-30
-34
-35
-40
-37
-37
-25
-38
-33
-30
-27
-37
-28
-31
-33
-31
-26
-20
15
-70
-64
-40
-11
-20
-24
-13
-35
-27
-36
-26
-29
-38
-14
-8
-22
-19
-18
-19
-7
-20
-28
-21
-4
-17
5
2
-14
2
0
1
5
1
-6
10
0
8
3
21
1
2
0
-20
-6
-23
-19
-23
-37
-18
2
-5
-29
-3
-35
-24
-30
-33
-29
-29
-28
-31
-34
-28
-35
-24
-11
-18
-67
-36
-23
-20
-25
-35
-32
-35
-28
-24
-5
-36
-57
-31
-32
-28
-33
-41
-48
-30
-37
-34
-25
-30
-33
-37
-36
-32
-34
-38
-38
-77
-27
-37
-34
-34
-2
-20
-30
-26
-27
-26
-43
-38
-39
-26
-36
-24
-37
-33
-27
-30
-38
-31
-32
-31
-29
-22
-39
-32
-26
-30
-20
-30
-40
-43
-33
-34
-27
-22
-23
-33
-15
-52
-47
-42
-29
-36
-43
-40
-27
-26
-23
-21
-30
-45
-26
-41
-44
-34
-32
-30
-30
-27
-30
-36
-23
-28
-26
-35
-35
-36
-25
-30
-34
-40
-34
-38
-33
-31
-28
-26
-39
-26
-11
-22
-47
-33
5
-15
-8
-11
-54
-27
-22
-36
-42
-28
-16
-20
-25
-31
-24
-26
-31
-23
-36
-30
-31
-37
-35
-38
-33
-22
-35
-34
-35
-26
-31
-40
-36
-30
-30
-30
-18
-27
1
-56
-38
-30
-14
-28
-91
-52
-31
-49
-57
-52
-64
-38
-18
-11
8
57
92
97
117
119
90
72
62
48
20
-4
-57
-76
-51
-22
-47
-49
-37
-44
-52
-47
-46
-44
-48
-47
-44
-33
-38
-50
-38
-51
-36
-23
-33
-40
-38
-41
-37
-37
-46
-35
-28
-29
-35
-37
-37
-39
-34
-32
-43
-26
-6
6
-1
-46
-59
-38
-36
-50
-32
-30
-40
-37
-43
-42
-49
-33
-35
-42
-21
-21
-22
-28
-22
-31
-38
-35
-42
-23
-22
-36
-26
-16
-22
-33
-43
-21
-7
-16
-3
-10
-2
-2
-5
-4
-9
-6
24
-10
3
18
18
-25
-14
-25
-22
-28
-16
17
-10
-15
-8
-2
-5
-9
-23
-23
-28
-16
1
-22
-21
-19
-28
-34
-24
-26
-34
-28
-27
-28
-31
-24
-19
-32
-46
-35
-24
-20
-46
-48
-41
-22
-34
-16
-36
-39
-21
-39
-49
-54
-43
-43
-38
-45
-41
-37
-38
-48
-47
-30
-25
-31
-39
-41
-30
-45
-44
-39
-37
-37
-39
-35
-32
-44
-36
-21
-35
-36
-28
-47
-28
-41
-42
-46
-38
-45
-32
-32
-24
-44
-40
-38
-35
-34
-66
-30
-10
-23
-58
-43
-45
-39
-39
-63
-54
-40
-22
-27
-41
-30
-27
-26
-34
-45
-33
-42
-45
-35
-33
-43
-47
-48
-34
-47
-36
-42
-41
-32
-40
-31
-20
18
-21
-77
-55
-52
-34
-38
-37
-51
-65
-74
-62
-30
-37
-37
-29
-32
-49
-30
-18
-15
14
-45
-43
-40
-37
-32
-37
-22
-37
-31
-27
-30
-28
-35
-37
-41
-40
-39
-34
-36
-6
13
-57
-73
-53
-48
-50
-47
-43
-45
-46
-45
-45
-47
-40
-39
-51
-7
-17
-39
-56
-58
-37
-37
-44
-40
-27
-66
-65
-64
-54
-38
-53
-35
-16
31
55
88
98
104
113
86
64
45
25
-5
-35
-53
-95
-94
-76
-62
-63
-58
-46
-44
-42
-49
-35
-32
-52
-38
-33
-55
-24
-50
-67
-70
-73
-44
-60
-39
-23
-37
-30
-20
-30
-45
-34
-58
-51
-53
-48
-49
-50
-54
-38
-36
-39
-42
-44
-38
-34
-39
-48
-41
-45
-35
-38
-38
-41
-45
-36
-43
-34
-28
-28
-49
-34
-23
-42
-18
-64
-31
-44
-38
-39
-36
-21
-53
-32
13
-24
-33
-35
-28
-4
-15
-13
-25
-32
-30
7
-14
-9
-1
-15
-2
17
-9
-23
-17
-12
-10
-13
-15
-10
-5
-8
-10
-20
-11
-33
-43
-29
-25
-20
-21
-17
-33
-39
-49
-56
-47
-38
-27
-46
-39
-35
-38
-44
-33
-42
-48
-41
-56
-34
-37
-24
-25
-30
-50
-50
-52
-33
-45
-51
-40
-45
-39
-40
-40
-24
-31
-44
-27
-47
-57
-48
-46
-28
-45
-47
-48
-55
-49
-78
-51
-37
-51
-32
-42
-35
-45
-43
-35
-43
-36
-25
-20
-19
-45
-53
-50
-37
-28
-38
-46
-45
-46
-58
-43
-42
-41
-40
-49
-50
-38
-46
-51
-32
-29
-44
-45
-34
-36
-49
-54
-40
-62
-46
-34
-38
-45
-37
-31
-32
-25
-52
-62
-36
-29
-35
-42
-54
-53
-40
-40
-40
-32
-29
-14
-42
-45
-43
-61
-41
-45
-70
-44
-36
-41
-49
-38
-43
-29
-29
-21
-35
-61
-34
-6
-24
-35
-40
-42
-49
-37
-44
-43
-38
-40
-38
-29
2
-44
-1
-42
-65
-65
-48
-47
-44
-28
-32
-66
-40
-46
-52
-65
-57
-45
-47
-45
-40
-39
-45
-48
-62
-73
-83
-93
-64
-12
-6
6
38
83
71
78
95
99
84
52
33
17
-5
-35
-58
-73
-112
-91
-70
-60
-41
-48
-49
-56
-56
-39
-63
-46
-44
-47
-42
-42
-45
-51
-57
-77
-49
-54
-35
-27
-44
-48
-50
-36
-49
-50
-55
-40
-44
-26
-33
-58
-39
-43
-45
-38
-54
-52
-50
-46
-42
-38
-29
-36
-44
-43
-34
-51
-49
-34
-47
-46
-44
-45
-41
-37
-42
-35
-30
-16
-30
-42
-25
-19
-30
-42
-38
-69
-53
-51
-5
-8
-21
-22
-14
-6
-5
-26
-20
-17
-18
-17
-12
-11
-9
-13
-11
-12
-25
-15
-18
-15
-2
-9
-7
-3
-14
-24
-2
-18
-29
-26
-27
-32
-35
-19
-15
-18
-54
-40
-39
-46
-53
-24
-25
-43
-41
-50
-34
-51
-42
-33
-53
-59
-27
-52
-40
-44
-18
-42
-42
-47
-33
-35
-52
-51
-50
-47
-47
-45
-35
-58
-50
-39
-34
-31
-44
-46
-36
-42
-46
-49
-53
-46
-36
-47
-47
-30
-46
-24
-59
-38
-38
-49
-43
-43
-33
-36
-49
-28
-37
-33
-53
-26
-70
-44
-49
-37
-41
-44
-35
-43
-49
-33
-45
-50
-51
-25
-42
-38
-39
-41
-45
-47
-45
-45
-44
-39
-33
-57
-60
-48
-45
-35
-36
-46
-52
-54
-43
-32
-13
-8
-39
-87
-53
-36
-45
-36
-40
-42
-41
-48
-22
-28
-27
-27
-21
-26
-38
-45
-37
-34
-32
-49
-29
-35
-42
-33
-33
-27
-38
-50
-60
-56
-42
-43
-37
-63
-45
-29
-41
-52
-39
-34
-35
-54
-51
-59
-55
-41
-24
-56
-52
-37
-41
-39
-58
-62
-57
-55
-52
-41
-31
-7
22
61
81
128
146
74
56
52
41
15
-11
-51
-90
-98
-92
-68
-54
-45
-46
-46
-45
-50
-53
-46
-65
-59
-45
-43
-62
-40
-37
-58
-42
-38
-51
-24
-53
-54
-49
-51
-50
-52
-43
-37
-20
-43
-34
-62
-52
-45
-38
-60
-46
-42
-46
-45
-42
-42
-46
-43
-33
-31
-39
-57
-47
-62
-43
-43
-43
-54
-35
-23
-30
-34
-31
-10
-26
-36
-56
-48
-12
-41
-33
-26
-32
-29
-24
-47
-28
-39
-21
-19
-15
-1
-8
-11
-21
-29
-18
-14
-4
-21
-13
-13
-6
-10
-13
-9
-13
-3
-12
-23
-13
-4
-25
-24
-7
-35
-28
-21
-32
-27
-23
-38
-39
-35
-35
-39
-56
-32
-43
-41
-41
-49
-53
-46
-41
-36
-38
-34
-33
-37
-38
-31
-42
-45
-51
-41
-52
-47
-41
-48
-46
-52
-35
-16
-22
-49
-50
-45
-49
-51
-47
-41
-39
-31
-45
-45
-40
-63
-47
-35
-41
-60
-64
-39
-49
-23
-19
-34
-30
-34
-53
-57
-57
-41
-41
-43
-44
-38
-44
-33
-33
-44
-44
-34
-48
-47
-41
-47
-33
-34
-39
-41
-49
-33
-44
-35
-44
-45
-40
-37
-56
-56
-42
-48
-36
-52
-25
-20
-45
-44
-44
-33
-49
-45
-44
-44
-42
-42
-46
-42
-35
-29
-26
-19
-33
-27
-36
-44
-35
-31
-29
-41
-32
-18
-28
-35
-41
-45
-66
-45
-51
-36
-40
-25
-33
-15
-46
-50
-37
-47
-53
-39
-34
-51
-45
-57
-37
-36
-19
-37
-42
-45
-36
-40
-45
-42
-33
-54
-61
-61
-66
-60
-40
-40
-21
-4
34
42
84
93
103
120
106
55
45
14
-19
-22
-92
-102
-94
-81
-58
-47
-52
-47
-47
-48
-29
-48
-43
-40
-48
-55
-58
-43
-36
-40
-47
-43
-50
-41
-40
-30
-44
-34
-48
-55
-50
-39
-43
-46
-61
-46
-47
-48
-47
-54
-51
-47
-21
-46
-34
-38
-45
-32
-41
-46
-49
-53
-58
-44
-29
-24
-29
-24
-37
-53
-41
-36
-34
-44
-31
-33
-28
-27
-28
-20
-34
-29
-42
-35
-24
-33
-29
-53
-58
5
-6
-4
-12
-3
1
4
-2
5
-20
-12
-20
-1
-9
-2
-16
-1
-22
-24
-23
-17
-12
10
-7
-17
-27
-30
-21
-10
-23
-21
-37
-8
-19
-66
-48
-43
-32
-42
-44
-24
-29
-43
-48
-37
-40
-37
-46
-44
-58
-40
-22
-37
-37
-44
-54
-43
-43
-47
-37
-30
-32
-40
-23
-49
-44
-59
-68
-48
-30
-36
-30
-41
-27
3
-46
-52
-54
-45
-51
-53
-49
-40
-35
-34
-32
-33
-56
-57
-43
-39
-39
-29
-41
-27
-39
-42
-45
-74
-41
-22
-27
-22
-21
-62
-54
-45
-56
-51
-32
-44
-44
-38
-31
-28
-43
-55
-49
-22
-45
-34
-39
-37
-43
-55
-38
-21
-26
-51
-47
-40
-41
-66
-38
-42
-35
-17
-26
-44
-35
-38
-33
-34
-21
-18
-15
-40
-45
-50
-48
-21
-35
-42
-45
-15
0
-35
-64
-46
-49
-41
-75
-26
-30
-64
-51
-31
-39
-39
-35
-49
-49
-65
-31
-40
-38
-38
-43
-48
-47
-55
-64
-63
-55
-33
-40
-14
5
18
32
93
89
109
102
102
64
9
29
20
-85
-123
-104
-91
-85
-69
-57
-49
-43
-37
-35
-55
-48
-45
-42
-53
-39
-58
-52
-37
-73
-75
-28
-43
-60
-59
-65
-16
-20
-39
-37
-43
-46
-46
-45
-43
-42
-36
-36
-35
-22
-16
-36
-26
-48
-57
-54
-33
-35
-50
-64
-38
-30
-39
-43
-29
-40
-32
-54
-48
-35
-23
-17
-41
-33
-26
-20
-20
-36
-28
-29
-18
-35
-27
-40
-19
-20
-26
-31
-9
-2
-9
-5
-21
-32
-7
0
-20
-12
0
6
-3
1
-17
1
-11
-18
-14
-8
-11
-11
-10
8
-3
-37
-29
-28
-29
-22
-25
-31
-34
-24
-32
-37
-33
-42
-50
-66
-67
-37
-38
-22
0
-30
-53
-40
-40
-34
-39
-35
-48
-35
-30
-45
-40
-49
-44
-40
-53
-42
-37
-30
-56
-57
-40
-40
-35
-26
-48
-49
-49
-45
-37
-43
-51
-47
-45
-51
-60
-61
-73
-51
-20
-27
-31
-38
-54
-49
-50
-40
-37
-21
-34
-39
-43
-32
-47
-41
-57
-47
-46
-35
-11
-48
-30
-46
-63
-56
-54
-49
-51
-56
-47
-51
-48
-38
-36
-34
-58
-58
-76
-60
-21
-43
-47
-49
-49
-43
-34
-33
-48
-47
-44
-35
-36
-41
-35
-37
-35
-38
-49
-20
-17
-31
-38
-34
-42
-54
-57
-44
-45
-30
-66
-58
-69
-37
-42
-28
-41
-30
-49
-49
-53
-53
-36
-49
-50
-39
-46
-44
-52
-48
-41
-44
-49
-60
-47
-48
-62
-63
-70
-58
-63
-57
-45
-38
-16
21
39
60
79
91
89
53
42
29
2
-48
-17
-73
-79
-66
-71
-62
-55
-55
-47
-52
-44
-50
-47
-46
-30
-50
-60
-68
-57
-55
-47
-52
-50
-49
-54
-52
-39
-54
-59
-53
-48
-54
-58
-48
-42
-54
-51
-49
-46
-44
-49
-46
-36
-46
-19
-21
-84
-54
-56
-56
-62
-76
-78
-42
-41
-38
-39
-41
-33
-47
-49
-45
-40
-35
-41
-47
-46
-41
-38
-34
-31
-43
-42
-30
-31
-36
-34
-33
-42
-27
-28
-27
-19
-1
8
-1
-39
-41
-44
-38
-26
-25
-28
-18
-33
-32
-18
-16
-16
-18
-36
-15
-9
-10
0
-28
-24
-33
-34
-38
-40
-42
-36
-44
-41
-42
-39
-42
-44
-41
-45
-45
-41
-44
-51
-44
-42
-44
-27
-40
-55
-53
-56
-53
-54
-58
-54
-51
-47
-51
-41
-53
-58
-43
-35
-41
-52
-34
-20
-54
-53
-54
-51
-63
-60
-51
-44
-41
-38
-49
-53
-36
-34
-27
-18
-47
-60
-53
-58
-49
-45
-45
-50
-60
-73
-65
-43
-32
-38
-46
-37
-36
-36
-48
-49
-33
-50
-50
-46
-39
-48
-41
-49
-49
-61
-64
-47
-35
-35
-40
-40
-45
-27
-27
-36
-49
-44
-17
-53
-64
-52
-45
-38
-42
-58
-38
-37
-41
-37
-29
-21
-28
-35
-17
-36
-55
-58
-47
-56
-54
-60
-57
-44
-41
-35
-46
-45
-43
-50
-45
-51
-47
-41
-55
-60
-40
-33
-42
-46
-51
-61
-69
-49
-35
-55
-49
-48
-51
-44
-60
-62
-68
-67
-68
-62
-45
-17
4
32
69
77
95
92
68
51
41
19
-6
-29
-74
-91
-79
-81
-51
-74
-47
-70
-56
-50
-47
-40
-51
-41
-63
-53
-49
-50
-58
-65
-66
-37
-46
-52
-52
-73
-52
-44
-46
-44
-53
-55
-54
-48
-61
-46
-47
-36
-49
-48
-55
-39
-43
-42
-50
-58
-47
-49
-52
-39
-46
-41
-42
-48
-52
-41
-37
-42
-56
-42
-44
-46
-48
-34
-37
-47
-44
-47
-39
-19
-36
-43
-36
-34
-61
-36
-24
-27
-32
-29
-33
-19
-12
-24
-20
-10
-6
-28
-28
-10
-15
-12
-2
-43
-41
-20
-14
-29
-22
-21
-27
-4
-16
-10
-20
-18
-24
-39
-34
-36
-36
-39
-34
-37
-31
-45
-41
-51
-56
-61
-62
-36
-14
-28
-14
-36
-48
-60
-59
-52
-47
-48
-48
-43
-47
-46
-45
-47
-47
-47
-54
-66
-51
-44
-34
-48
-32
-33
-62
-52
-51
-44
-43
-52
-45
-48
-43
-44
-46
-47
-44
-39
-49
-57
-47
-39
-12
-18
6
-49
-55
-55
-41
-60
-52
-49
-50
-45
-47
-44
-44
-43
-44
-60
-60
-51
-66
-62
-11
-32
-28
-30
-45
-44
-45
-46
-45
-42
-37
-42
-46
-44
-38
-50
-65
-80
-65
-44
-39
-29
-25
-34
-42
-33
-33
-10
46
-24
-68
-58
-39
-50
-41
-39
-36
-37
-38
-36
-25
-35
-46
-30
-48
-33
-17
-44
-53
-45
-44
-45
-35
-47
-43
-46
-39
-47
-48
-45
-42
-46
-48
-76
-86
-53
-32
-32
-35
-1
29
-2
-61
-68
-58
-58
-59
-62
-64
-84
-60
-39
-19
-9
31
56
87
105
90
92
75
41
32
19
-12
-56
-86
-96
-82
-67
-57
-51
-65
-54
-42
-44
-40
-44
-39
-27
-17
-16
-31
-59
-62
-57
-56
-73
-68
-66
-53
-64
-21
-21
-44
-41
-34
-13
-21
-54
-59
-54
-46
-38
-45
-50
-40
-45
-46
-51
-55
-37
-32
-37
-37
-39
-39
-36
-34
-21
-5
-31
-61
-46
-42
-41
-46
-48
-37
-38
-32
-29
-37
-49
-41
-27
-17
-9
-44
-21
-22
-20
-16
-26
-18
-17
-30
-28
-19
-3
-21
5
-9
5
-15
2
-11
-19
-13
-12
-19
-11
-5
-11
-12
-8
-20
-17
-15
-17
-17
-16
-8
-4
-25
-37
-23
-41
-32
-59
-49
-20
-9
-35
-40
-35
-33
-39
-38
-33
-34
-27
-42
-38
-49
-35
-38
-37
-38
-39
-43
-33
-36
-36
-40
-35
-37
-35
-16
-27
-45
-42
-29
-40
-44
-45
-48
-35
-32
-35
-33
-38
-31
-37
-39
-36
-35
-35
-45
-50
-29
-26
-32
-55
-35
-26
-36
-39
-34
-47
-27
-27
-21
-27
-29
-24
-54
-50
-66
-32
-26
-24
-36
-33
-37
-39
-45
-25
-26
-29
-21
-17
-22
-48
-45
-34
-36
-41
-36
-36
-32
-32
-39
-45
-51
-34
-30
-35
-29
-36
-42
-3
-24
-9
-30
-36
-27
-35
-25
-27
-31
-23
-27
-30
-41
-36
-37
-39
-35
-28
-9
26
-6
-57
-60
-55
-46
-40
-45
-35
-41
-57
-49
-33
-34
-37
-40
-37
-38
-40
-36
-33
-16
-5
-15
-69
-88
-60
-54
-56
-45
-13
-1
27
58
82
97
103
95
68
50
37
30
-3
-37
-69
-52
-65
-72
-107
-63
-45
-42
-37
-41
-44
-41
-44
-41
-38
-41
-40
-41
-51
-44
-42
-34
-20
-1
-34
-66
-49
-46
-43
-42
-48
-52
-69
-36
-30
-38
-42
-40
-29
-40
-42
-38
-30
-40
-43
-36
-31
-15
-36
-31
-41
-56
-48
-28
-30
-30
-33
-37
-32
-35
-35
-35
-33
-29
-7
-16
32
-26
-54
-52
-40
-29
-26
-27
-23
-20
-26
-24
-24
-19
-18
-2
-12
-9
-10
-3
8
13
-15
-17
-2
-7
-23
-16
-6
-19
-3
-7
-15
-10
-9
-23
-13
-8
-11
-18
-18
-28
3
41
28
-77
-41
-17
-35
-37
-44
-42
-39
-43
-30
-39
-34
-33
-40
-38
-31
-28
-27
-18
-18
-32
-49
-43
-46
-44
-35
-46
-29
-38
-38
-35
-31
-38
-50
-42
-35
-49
-31
-25
-37
-45
-17
37
-7
-62
-29
-53
-55
-46
-33
-38
-35
-31
-41
-39
-33
-36
-41
-48
-54
-18
-2
-23
-26
-37
-31
-30
-28
-41
-41
-35
-39
-31
-31
-36
-38
-42
-40
-36
-37
-39
-20
-26
1
3
-30
-42
-64
-46
-39
-36
-27
-24
-43
-26
-13
-31
-10
-12
-27
-56
-28
-17
-9
-22
-23
-31
-32
-31
-34
-34
-35
-38
-30
-29
-37
-34
-35
-40
-40
-37
-38
-36
-24
-15
-31
-33
-44
-35
-37
-40
-33
-35
-43
-41
-18
-1
-10
-41
-44
-16
-8
-60
-72
-90
-72
-41
-34
-6
14
27
57
82
89
113
99
66
54
31
12
-3
-48
-96
-92
-75
-45
-41
-40
-43
-40
-40
-46
-41
-30
-32
-39
-36
-41
-39
-41
-29
-42
-38
-36
-34
-42
-38
-19
17
4
-38
-49
-62
-49
-44
-49
-83
-41
-54
-13
-24
-24
-30
-35
-41
-28
-44
-42
-28
-7
6
9
-62
-52
-41
-34
-41
-36
-34
-27
-25
-35
-29
-30
-28
-37
-44
-30
-26
-18
-22
8
-21
-11
-26
-38
-30
-4
-16
-13
-13
-13
-7
-10
-9
-14
-13
3
-1
1
1
8
5
31
30
-15
-33
-16
-16
-4
4
-14
-6
2
-15
-15
-21
-10
-19
-22
-19
-29
-39
-45
-29
-15
-22
-30
-20
-23
-30
-28
-32
-29
-18
-32
-27
-10
-31
-25
-47
-42
-39
-33
-27
-24
-32
-14
-28
-34
-51
-37
-33
-34
-33
-33
-36
-36
-32
-27
-38
-37
-40
-37
-25
-36
-42
-26
-18
-36
-38
-35
-29
-27
-32
-27
-29
-48
-31
-35
-28
-14
-15
-32
-36
-23
-43
-23
-33
-30
-26
-34
-22
-25
-41
-33
-15
-34
-48
-39
-36
-29
-28
-37
-30
-29
-28
-22
-43
-40
-28
-28
-8
-27
-30
-25
-14
-25
-14
-52
-41
-20
-15
-17
-26
-25
-17
-36
-16
-25
-18
-27
-17
-41
-37
-40
-38
-36
-30
-29
-32
-33
-36
-24
-31
-13
-38
-44
-33
-40
-52
-32
-52
-39
-33
-33
-39
-24
-58
-59
-32
-37
-32
-20
-33
5
4
36
71
107
112
98
82
54
35
12
-14
-29
-83
-108
-98
-72
-33
-32
-26
-23
-32
-47
-41
-25
-31
-37
-36
-33
-35
-19
-10
-31
-37
-39
-53
-53
-29
-32
-28
-44
-36
-33
-31
-23
-25
-21
-45
-41
-36
-35
-37
14
-32
-34
-53
-40
-14
-13
-43
-38
-10
-20
-30
-31
-14
-7
-43
-42
-43
-18
-18
-12
-28
-23
-26
-25
-19
-24
-28
-8
2
-9
-11
-20
-5
-9
-32
-36
-9
22
-5
1
0
-1
-2
-5
-4
13
18
4
-1
-10
-11
-3
13
38
17
31
-12
-15
0
19
20
-5
-28
-5
-2
-3
7
-6
-13
-14
-28
-3
-12
-1
-17
-31
-27
-36
-27
-10
-13
-28
-14
-20
-33
-21
-36
-22
-26
-33
-19
-22
-27
-27
-16
-18
-14
-12
-27
-20
-24
-20
-8
-41
-36
-30
-33
-31
-33
-17
-12
-28
-29
-4
-14
-31
-31
-5
17
-57
-36
-30
-39
-24
-25
-27
-19
-22
-21
-11
-24
-23
-28
-29
-22
-28
-38
-37
-13
-22
-26
-22
-17
-28
-33
-24
-26
-22
-13
-21
-11
-36
-51
-29
-25
-24
-42
-24
-14
-27
-24
-18
-21
-24
-22
-21
-2
-35
-35
-20
-25
-12
-19
-26
-4
-12
-26
-17
-18
-27
-24
-16
-22
-11
-26
-29
-35
-34
-30
-37
-17
-26
-37
-49
-11
-13
-20
-12
-20
-25
-36
-38
-34
-25
-54
-49
-20
-31
-25
-29
-23
-18
-32
-47
-52
-58
-46
-15
-42
-10
22
62
87
88
91
119
105
77
50
43
9
-18
-60
-82
-83
-68
-50
-58
-40
-19
-60
-26
-18
-24
-24
-18
-46
-42
-2
18
-52
-65
-54
-41
-33
-28
-27
-28
-37
-36
-50
-52
-23
-27
-31
-37
-30
-21
-13
-27
1
-44
-49
-34
-34
-44
-43
-27
-41
-30
-37
-46
-26
-37
-34
-50
-12
-20
-24
-29
-27
-31
-19
-10
-38
-6
-12
-35
-29
-27
-24
-27
-24
-40
-3
-11
-1
11
-12
-45
-20
-15
-2
-12
-15
-17
-16
-18
-1
-3
-8
-4
2
6
-8
1
4
-5
-25
-9
-10
0
-13
8
17
-14
-19
-8
0
-6
-18
-36
-35
-28
-25
-2
-39
-36
-39
-29
-34
-24
-18
-30
-27
-24
-35
-28
-41
-37
-38
-29
-29
-35
-31
-26
-35
-45
-23
-21
-43
0
-57
-50
-22
-15
-37
-38
-38
-31
-19
-19
-29
-49
-34
-43
-34
-37
-29
-44
-37
-30
-32
-39
-35
-28
-42
-38
-52
-34
-26
-30
-42
-44
-28
-31
-33
-30
-37
-34
-30
-10
-19
-23
-50
-44
-35
-48
-34
-35
-41
-40
-32
-31
-38
-38
-43
-35
-58
-48
-15
-41
-37
-35
-27
-42
-33
-12
-31
-28
-44
-22
-36
-27
-29
-22
-41
-37
-19
-18
-30
-38
-13
-32
-39
-26
-21
-41
-46
-39
-36
-45
-41
-38
-31
-51
-30
-38
-34
-35
-22
-45
-47
-38
-37
-29
-45
-35
-29
-27
-53
-54
-43
-66
-77
-37
-46
-56
-44
-46
-25
3
26
58
61
89
93
93
82
59
41
11
-8
-44
-70
-102
-98
-71
-41
-54
-40
-47
-53
-47
-39
-45
-43
-46
-42
-42
-46
-39
-40
-49
-48
-35
-52
-48
-60
-57
-46
-37
-41
-41
-43
-54
-36
-25
-31
-49
-37
-37
-45
-54
-52
-38
-44
-49
-43
-43
-34
-37
-59
-50
-20
-43
-33
-39
-22
-14
-41
-52
-59
-34
-40
-34
-28
-39
-34
-36
-36
-31
-12
-19
-45
-37
-40
-41
-18
-18
-18
-14
-22
-18
-19
-24
-21
-15
-19
1
-15
-22
-6
-21
-23
-13
-6
-23
-8
-10
-20
-5
-16
-12
-2
-11
-12
-33
-38
-23
-21
-21
-52
-29
-26
-23
-31
-20
-36
-38
-17
-42
-27
-38
-43
-50
-53
-35
-40
-24
-39
-48
-50
-47
-36
-37
-49
-42
-59
-55
-54
-48
-37
-20
-28
-36
-33
-56
-69
-37
-41
-46
-46
-33
-46
-38
-23
-54
-32
-40
-42
-51
-42
-53
-52
-40
-42
-45
-44
-35
-41
-34
-8
-50
-66
-63
-52
-46
-22
-41
-38
-40
-43
-45
-42
-47
-47
-44
-36
-23
-30
-56
-44
-40
-50
-37
-39
-55
-41
-21
-44
-44
-46
-36
-43
-39
-50
-53
-49
-38
-44
-46
-19
-44
-36
-32
-39
-34
-34
-32
-53
3
-1
-56
-26
-38
-57
-29
-33
-40
-39
-45
-40
-40
-38
-41
-37
-44
-52
-39
-43
-52
-47
-44
-29
-35
-52
-43
-34
-40
-49
-46
-40
-36
-42
-40
-46
-51
-42
-52
-62
-75
-65
-50
-25
-20
2
14
46
81
89
117
130
93
71
49
39
10
-33
-67
-91
-87
-69
-77
-66
-40
-46
-38
-40
-38
-41
-30
-41
-43
-34
-36
-50
-52
-34
-27
-18
-30
-30
-55
-43
-39
-22
-41
-38
-48
-59
-24
-26
-41
-49
-17
-21
-33
-28
-25
-14
-3
-9
-41
-60
-49
-13
-30
-36
-19
-28
-20
-4
-8
-39
-34
-29
-25
-26
-23
-25
-28
-19
-18
-19
-12
-16
-12
-18
-19
-27
-24
-35
-8
-8
-2
3
13
2
-4
-5
-3
-6
-4
9
-7
-4
-15
-5
26
17
9
13
0
5
1
5
-5
-25
18
11
-9
-5
3
-6
-4
-3
0
6
-8
-32
-17
-18
-20
-19
-33
-24
-17
-8
-33
-30
-20
-6
-22
-32
-19
-13
-24
-37
-27
-28
-25
-18
-22
-28
-26
-28
-27
-35
-20
-31
-42
-32
-26
-8
-36
-10
-18
-25
-32
-25
-26
-18
-11
-3
-28
-26
-32
-50
-61
-23
-21
-12
-10
-11
-20
-30
-30
-31
-30
-25
-18
-15
-25
-19
-11
-13
-32
-17
-25
-45
-29
-36
-30
-19
-25
-38
-34
-22
-25
-7
-11
-24
-27
-8
-42
-46
-34
-28
-33
-22
-25
-24
-33
-12
-11
-10
-21
-27
-14
-10
-15
-17
-19
-17
-14
-14
-28
-22
-28
-22
-21
4
-37
-48
-32
-44
-45
-5
-23
-29
-18
-47
-31
-35
-36
-25
-20
-21
-30
-48
-54
-42
-13
-19
-29
-18
-27
-28
-32
-58
-59
-34
-7
-20
-24
-10
20
60
85
108
116
92
97
92
61
29
-8
-18
-76
-80
-89
-80
-62
-42
-40
-37
-37
-35
-39
-45
-26
-28
-26
-40
-44
-30
-32
-33
-31
-45
-42
-25
-25
-30
-34
-37
-37
-44
-28
-34
-29
-45
-1
-22
-50
-33
-28
-39
-41
-31
-31
-33
-32
-16
-32
-23
-24
-2
-18
-44
-40
-50
-52
-37
-27
-32
-10
-17
-14
-19
-24
-33
-24
-22
-23
-23
-38
-17
-6
-14
-14
-24
-3
9
-12
-9
-14
-15
-6
-16
-11
-2
-9
-14
-11
-18
-9
38
7
-8
-8
11
-9
-7
-5
-2
-18
-4
-14
-14
-4
-4
-5
-11
-16
-13
-7
-25
-10
-22
-28
-22
-24
-22
-30
-34
-25
-33
-36
-25
-24
-28
-27
-36
-24
-19
-38
-37
-46
-41
-41
-41
-48
-42
-22
-17
-28
-18
-46
-43
-59
-58
-29
-22
-25
-23
-37
-39
-35
-34
-47
-40
-35
-31
-34
-32
-26
-25
-36
-25
-33
-36
-39
-34
-32
-28
-27
-42
-43
-37
-29
-38
-37
-49
-30
-32
-28
-13
-22
-30
-44
-36
-27
-37
-54
-60
-65
-28
-51
-34
-28
-29
-32
-22
-22
0
-34
-28
-33
-36
-29
-26
-36
-24
-28
-25
-28
-27
-17
-73
-41
-54
-44
-31
-40
-34
-38
-38
-45
-44
-37
-37
-32
-26
-39
-51
-45
-41
-48
-60
-80
-35
-41
-43
-35
-39
-40
-46
-33
-37
-39
-53
-58
-55
-25
-42
-66
-43
-7
31
33
68
82
94
30
62
55
48
26
-7
-44
-90
-95
-94
-78
-40
2
-60
-75
-62
-51
-60
-58
-55
-59
-57
-52
-55
-56
-57
-64
-51
-47
-58
-52
-54
-48
-51
-41
-22
-48
-30
-75
-52
-49
-62
-57
-57
-66
-57
-58
-58
-59
-42
-55
-50
-40
-51
-52
-36
-17
-19
-76
-62
-41
-61
-53
-51
-45
-47
-54
-44
-55
-42
-51
-38
-41
-41
-41
-30
-17
7
-39
-54
-45
-33
-55
-37
-39
-34
-27
-20
-39
-17
-23
-27
-31
-20
-26
-15
4
22
17
-14
-56
-49
-46
-28
-27
-36
-9
-16
-36
-26
-28
-35
-30
-32
-35
-42
-39
-35
-33
-32
-42
-36
-48
-54
-49
-72
-68
-35
-42
-47
-44
-53
-45
-24
-58
-59
-56
-68
-49
-31
-43
-66
-67
-43
-54
-48
-49
-46
-53
-52
-60
-58
-63
-57
-34
-34
-63
-56
-70
-50
-50
-61
-46
-60
-49
-50
-51
-60
-53
-39
-46
-58
-69
-57
-50
-56
-21
-61
-66
-61
-43
-45
-66
-52
-36
-49
-59
-55
-60
-48
-64
-65
-52
-58
-52
-43
-45
-44
-42
-51
-60
-51
-45
-35
-48
-66
-46
-42
-52
-41
-45
-42
-36
-50
-58
-69
-54
-53
-49
-46
-56
-58
-50
-56
-73
-62
-57
-65
-58
-59
-65
-68
-36
-46
-54
-42
-61
-40
-63
-80
-69
-53
-64
-60
-51
-62
-65
-73
-74
-71
-76
-58
-52
-51
-26
8
-10
36
60
79
80
49
29
25
11
-15
-45
-90
-104
-107
-102
-80
-57
-61
-59
-75
-60
-59
-48
-36
-62
-86
-71
-53
-88
-56
-59
-60
-67
-59
-66
-69
-70
-57
-52
-54
-52
-60
-74
-67
-56
-42
-74
-62
-61
-62
-64
-67
-71
-54
-66
-66
-54
-53
-55
-62
-60
-61
-60
-66
-62
-52
-49
-55
-59
-49
-65
-76
-69
-53
-60
-51
-49
-46
-50
-52
-54
-51
-52
-59
-61
-56
-33
-42
-47
-24
-35
-16
-38
-68
-53
-56
-50
-36
-31
-35
-32
-41
-32
-29
-42
-34
-37
-50
-54
-49
-38
-31
-53
-53
-61
-50
-50
-44
-44
-29
-60
-56
-66
-65
-59
-60
-55
-71
-75
-63
-76
-97
-54
-54
-66
-67
-82
-65
-64
-65
-59
-55
-56
-75
-65
-78
-77
-64
-70
-76
-65
-72
-67
-68
-62
-62
-71
-56
-53
-71
-84
-74
-75
-69
-64
-73
-63
-83
-93
-79
-45
-58
-56
-71
-76
-68
-72
-66
-48
-68
-65
-71
-74
-77
-61
-69
-80
-73
-71
-73
-66
-88
-68
-63
-66
-69
-68
-61
-72
-77
-75
-76
-65
-74
-57
-62
-75
-97
-65
-55
-63
-67
-54
-64
-74
-61
-59
-59
-75
-71
-72
-74
-68
-64
-77
-71
-87
-95
-76
-65
-82
-87
-85
-79
-76
-81
-80
-82
-77
-85
-92
-83
-83
-93
-72
-57
-64
-68
-70
-92
-89
-88
-90
-89
-104
-109
-80
-78
-61
-60
-24
-3
8
28
33
56
31
3
-16
-34
-40
-69
-112
-133
-124
-116
-107
-88
-102
-80
-91
-66
-85
-78
-83
-85
-70
-70
-74
-99
-102
-86
-83
-88
-81
-78
-85
-93
-88
-91
-96
-84
-74
-81
-70
-86
-91
-91
-82
-74
-81
-103
-66
-79
-83
-78
-94
-81
-71
-80
-94
-86
-87
-84
-83
-99
-70
-63
-67
-81
-77
-88
-86
-83
-84
-83
-78
-66
-85
-76
-75
-56
-68
-75
-84
-75
-74
-69
-71
-67
-82
-67
-62
-52
-61
-62
-62
-55
-70
-56
-61
-53
-67
-60
-65
-62
-61
-61
-59
-59
-65
-41
-52
-51
-76
-83
-72
-91
-79
-64
-76
-65
-93
-76
-87
-65
-67
-91
-78
-68
-74
-99
-88
-87
-85
-88
-89
-92
-84
-79
-95
-90
-85
-91
-71
-81
-80
-84
-78
-96
-102
-94
-89
-74
-97
-86
-73
-83
-83
-101
-89
-78
-100
-70
-85
-96
-78
-85
-65
-80
-113
-101
-84
-87
-83
-75
-81
-84
-91
-82
-86
-92
-81
-72
-73
-91
-86
-73
-86
-73
-74
-81
-84
-80
-78
-72
-82
-71
-76
-67
-86
-98
-94
-97
-92
-100
-76
-92
-91
-87
-75
-77
-89
-87
-87
-64
-60
-66
-62
-60
-71
-77
-92
-57
-78
-54
-72
-64
-69
-91
-90
-95
-88
-83
-72
-89
-83
-91
-83
-79
-81
-79
-83
-76
-71
-84
-81
-78
-78
-76
-101
-102
-96
-72
-93
-78
-78
-78
-75
-91
-85
-85
-90
-104
-84
-79
-79
-56
-27
-4
27
44
25
42
34
13
6
-23
-51
-63
-105
-134
-147
-125
-113
-93
-93
-84
-83
-85
-91
-82
-110
-84
-80
-106
-74
-90
-80
-73
-64
-84
-84
-90
-97
-74
-71
-69
-88
-80
-62
-69
-70
-67
-94
-88
-81
-68
-99
-93
-93
-89
-84
-65
-70
-73
-88
-83
-72
-80
-72
-77
-69
-81
-79
-74
-74
-80
-80
-93
-79
-66
-102
-86
-60
-67
-66
-60
-56
-68
-61
-50
-77
-66
-53
-54
-59
-62
-73
-58
-57
-33
-44
-56
-37
-52
-65
-48
-48
-55
-54
-42
-43
-55
-55
-43
-57
-48
-56
-61
-64
-50
-54
-61
-60
-66
-75
-75
-49
-60
-69
-72
-63
-53
-60
-58
-53
-49
-79
-87
-55
-53
-96
-83
-77
-89
-87
-70
-69
-81
-80
-79
-75
-72
-73
-76
-77
-75
-69
-66
-78
-80
-78
-67
-74
-75
-90
-71
-84
-56
-74
-70
-82
-79
-63
-76
-124
-67
-68
-69
-59
-70
-80
-76
-67
-64
-62
-69
-57
-77
-69
-76
-83
-66
-66
-63
-70
-79
-77
-76
-84
-88
-61
-51
-57
-86
-63
-70
-79
-78
-83
-69
-79
-59
-39
-57
-77
-83
-78
-83
-73
-64
-75
-73
-65
-80
-60
-48
-44
-58
-70
-68
-54
-59
-64
-65
-64
-59
-59
-56
-53
-60
-59
-65
-56
-75
-80
-74
-84
-69
-62
-48
-68
-67
-39
-64
-76
-67
-72
-93
-66
-63
-74
-74
-67
-58
-56
-61
-77
-59
-54
-64
-60
-63
-70
-85
-85
-81
-86
-78
-70
-49
-15
-14
44
51
66
84
77
45
11
2
-12
-49
-91
-127
-119
-110
-85
-76
-82
-66
-46
-79
-72
-66
-73
-55
-68
-66
-72
-72
-66
-56
-65
-67
-68
-59
-54
-50
-51
-57
-41
-81
-75
-69
-56
-38
-48
-81
-81
-67
-59
-67
-62
-65
-53
-52
-61
-72
-62
-53
-63
-64
-61
-65
-65
-50
-56
-70
-50
-45
-53
-52
-54
-60
-55
-56
-43
-42
-41
-36
-46
-49
-47
-44
-32
-36
-49
-46
-52
-32
-42
-41
-43
-35
-9
-28
-52
-53
-69
-5
-9
-21
-18
-21
-17
-22
-24
-25
-36
-38
-28
-19
-27
-33
-26
-30
-25
-44
-29
-22
-44
-43
-39
-40
-48
-56
-38
-41
-34
-44
-47
-51
-36
-24
-61
-43
-46
-67
-64
-64
-61
-64
-55
-47
-39
-52
-61
-60
-48
-44
-50
-54
-54
-42
-54
-56
-46
-47
-44
-43
-55
-53
-51
-42
-51
-50
-44
-57
-43
-52
-53
-41
-39
-49
-42
-41
-47
-56
-42
-39
-46
-63
-49
-45
-64
-49
-41
-67
-29
-40
-60
-43
-43
-39
-55
-50
-60
-46
-51
-51
-36
-57
-41
-37
-51
-49
-55
-37
-36
-45
-51
-42
-45
-54
-42
-43
-47
-48
-53
-45
-47
-39
-58
-50
-33
-42
-42
-42
-65
-48
-14
-13
-19
-12
-36
-35
-39
-44
-54
-42
-45
-32
-28
-33
-41
-46
-58
-48
-50
-41
-53
-46
-41
-35
-47
-62
-47
-56
-36
-40
-45
-49
-42
-40
-50
-46
-40
-37
-23
-29
-59
-83
-74
-66
-67
-37
-52
-20
21
42
72
88
95
96
91
68
31
35
10
-46
-66
-106
-120
-84
-56
-56
-56
-52
-43
-43
-44
-33
-47
-44
-48
-47
-52
-45
-47
-48
-32
-42
-40
-52
-48
-42
-49
-30
-41
-36
-29
-36
-31
-47
