67
25
-11
12
27
71
107
119
118
112
70
38
8
1
17
58
102
124
130
120
68
29
12
13
20
64
110
136
120
110
51
7
-1
12
29
73
107
119
118
104
59
14
-2
1
22
68
105
117
110
93
52
16
6
10
23
67
103
123
122
100
43
11
11
27
35
78
115
117
119
101
49
22
8
23
49
99
125
127
117
102
58
21
17
25
57
95
122
121
114
90
47
14
6
11
39
91
109
109
101
71
31
5
-1
11
50
82
113
117
110
82
31
13
-1
11
40
80
109
109
111
89
36
5
-4
8
48
99
126
118
110
80
29
-3
-9
2
39
92
112
115
93
62
20
-1
7
29
90
150
197
214
227
208
189
187
187
206
268
291
252
188
149
88
38
18
18
22
56
100
128
121
113
65
24
12
17
30
63
109
125
113
106
57
19
3
21
29
69
120
126
113
101
61
20
10
19
35
71
105
123
108
96
56
19
11
19
28
74
99
105
94
77
57
22
12
39
51
89
115
121
107
92
48
19
19
25
47
91
118
127
110
97
55
28
21
30
45
88
118
131
117
99
58
28
26
39
50
96
127
120
102
87
48
31
42
49
77
113
144
138
127
98
60
37
48
56
90
119
147
149
146
113
75
51
51
60
103
140
160
156
142
118
77
54
63
61
96
136
168
165
162
120
89
64
62
65
98
140
147
158
144
110
68
50
53
57
87
129
139
131
121
70
39
25
26
33
71
94
114
120
102
50
21
10
17
21
74
109
122
99
93
51
11
3
4
28
71
99
106
109
104
54
21
11
20
23
68
106
122
105
96
48
19
11
16
36
75
99
109
98
93
51
23
12
37
56
79
109
107
105
90
40
2
0
22
43
82
116
117
104
82
37
11
2
14
52
89
113
112
112
86
45
15
7
20
46
93
108
113
105
88
42
2
-4
16
53
89
117
118
109
81
37
12
9
8
40
92
118
117
106
77
40
0
9
17
46
99
115
113
102
66
27
3
12
21
54
95
113
118
105
72
34
18
14
22
53
91
118
110
104
57
14
4
7
19
62
109
121
116
100
62
24
3
1
21
64
102
119
107
93
58
16
3
6
22
66
104
119
122
113
60
26
10
19
33
69
111
127
120
117
68
31
22
24
39
81
121
128
122
117
54
12
-1
17
44
90
116
119
112
96
45
9
-1
8
31
86
118
125
102
82
34
7
9
19
44
83
113
116
108
93
44
7
-1
14
36
81
110
112
105
87
41
10
3
17
35
81
120
121
109
84
32
1
-5
5
28
69
109
121
118
109
91
83
114
148
205
263
295
302
304
283
230
155
82
64
86
119
124
119
113
68
44
24
20
32
65
106
124
121
111
79
33
9
11
21
56
99
130
122
112
65
27
10
10
23
63
97
124
117
106
62
26
6
12
21
63
109
122
122
101
66
24
12
13
23
81
118
120
108
118
72
26
19
16
27
72
111
127
124
115
67
33
15
31
40
81
115
125
118
107
63
30
21
31
54
98
120
136
129
110
57
24
27
41
51
94
123
134
132
102
71
47
46
55
67
110
126
136
136
129
87
55
52
55
85
130
153
155
146
127
85
56
51
56
93
133
166
172
163
131
88
68
62
64
102
145
175
177
162
130
78
51
57
63
83
120
152
150
142
104
58
38
34
32
65
110
138
142
127
78
31
23
17
22
62
104
127
128
111
74
29
4
14
25
62
102
122
116
112
66
31
7
14
23
62
102
129
119
110
73
29
13
13
18
65
109
125
112
121
68
20
-5
12
29
77
113
130
120
107
64
30
15
18
29
74
104
125
117
104
67
25
18
25
38
68
108
130
122
89
66
26
15
15
33
72
107
125
120
102
60
23
-1
18
44
90
102
115
114
96
51
21
16
23
36
84
108
114
104
86
49
19
11
22
44
90
113
110
95
86
49
16
12
30
49
89
111
108
109
82
35
3
6
16
47
75
101
110
106
75
40
7
21
21
51
87
116
109
95
71
34
4
2
16
54
89
115
114
109
72
32
12
12
24
58
101
109
100
95
65
22
-5
3
22
64
88
117
108
109
73
30
14
18
31
63
102
128
128
117
74
29
18
24
35
64
107
122
121
103
61
26
14
20
27
66
94
107
97
92
50
13
0
11
24
59
92
109
100
87
47
11
-6
1
18
59
91
102
93
75
33
7
-4
9
28
63
98
108
93
74
42
11
-4
0
21
56
87
95
78
63
17
-20
-17
-2
30
87
138
166
179
188
182
170
173
185
213
262
293
284
207
126
65
17
10
24
33
70
99
95
95
71
33
1
-8
2
27
62
103
93
95
58
22
-11
-9
-9
19
65
95
93
88
60
17
-12
-18
-6
26
55
93
94
79
45
11
-11
-6
6
31
77
91
87
76
43
6
-14
-15
-7
31
67
90
95
84
47
6
-15
-8
9
42
71
87
82
73
32
-2
-14
-13
-10
34
79
94
81
92
49
-2
-7
2
6
48
80
98
88
81
32
-10
-7
-8
3
55
90
103
96
82
47
10
-4
8
18
70
101
112
109
85
55
1
-4
-5
20
66
104
124
116
104
57
24
16
27
47
73
116
116
93
92
61
10
9
30
47
81
109
113
102
87
33
-2
-2
1
22
57
80
77
67
59
10
-22
-28
-17
3
38
70
68
62
34
-11
-39
-48
-39
-8
35
60
62
55
22
-16
-44
-59
-42
-10
32
57
57
43
26
-18
-43
-45
-37
-2
34
55
49
38
12
-34
-42
-33
-38
-9
29
45
49
50
12
-35
-62
-53
-45
-1
33
48
44
39
1
-33
-63
-50
-42
-5
30
59
52
48
1
-39
-56
-51
-40
-4
19
50
47
26
-20
-48
-56
-56
-48
2
35
41
32
32
-7
-42
-62
-63
-53
-7
23
37
31
29
-14
-47
-65
-67
-54
-6
23
38
32
20
-17
-49
-73
-71
-49
-4
31
37
35
14
-36
-71
-81
-74
-49
-7
34
28
27
6
-40
-78
-71
-60
-43
-9
21
41
29
3
-33
-76
-73
-75
-45
5
26
33
24
9
-33
-68
-76
-75
-49
-4
28
32
27
-1
-49
-79
-81
-68
-48
-8
25
23
14
-4
-51
-72
-78
-61
-30
12
36
39
26
-3
-48
-74
-67
-52
-26
19
42
43
27
2
-43
-58
-59
-55
-20
20
44
38
28
-5
-49
-75
-70
-63
-24
15
40
36
22
-16
-58
-80
-76
-55
-20
15
28
27
18
-19
-59
-86
-74
-67
-23
16
36
36
13
-21
-63
-87
-88
-74
-29
28
44
35
28
-18
-62
-77
-78
-59
-15
16
31
17
4
-57
-76
-83
-73
-45
27
90
133
157
159
151
128
112
130
147
193
223
163
98
68
4
-44
-59
-58
-43
0
35
50
26
15
-28
-58
-70
-64
-41
3
41
41
28
8
-40
-67
-75
-62
-39
1
41
41
28
3
-39
-63
-72
-65
-36
2
24
32
27
-2
-46
-70
-66
-63
-41
5
39
45
31
3
-41
-70
-72
-61
-28
0
28
34
28
-3
-40
-63
-57
-57
-27
18
36
41
41
-2
-39
-60
-50
-42
-12
28
45
34
28
-5
-42
-52
-56
-42
-12
22
51
51
45
1
-34
-52
-53
-40
0
39
59
50
39
12
-32
-36
-31
-23
19
69
72
72
61
25
-23
-31
-26
-13
33
72
92
78
69
23
-7
-20
-15
-7
43
77
93
86
77
33
-2
-18
-10
-1
39
79
77
64
54
15
-18
-43
-29
-20
14
50
60
54
56
10
-44
-45
-54
-34
8
46
47
37
19
-25
-66
-65
-48
-30
16
36
32
29
18
-20
-49
-55
-51
-26
10
38
40
30
19
-28
-55
-63
-48
-22
20
53
55
38
18
-31
-52
-50
-31
-9
11
40
49
34
16
-21
-53
-47
-38
-13
33
56
49
40
6
-28
-44
-44
-34
-14
33
49
52
40
11
-27
-46
-43
-27
10
30
52
53
46
18
-27
-49
-50
-48
-10
46
60
63
57
11
-25
-39
-42
-31
8
37
61
53
39
6
-28
-43
-44
-32
7
39
61
59
50
5
-32
-35
-33
-19
6
42
49
40
47
10
-22
-40
-39
-30
9
50
66
57
44
7
-33
-43
-37
-33
7
52
62
51
40
-4
-39
-40
-30
-27
22
45
56
53
33
-7
-39
-46
-48
-16
21
56
56
42
38
-12
-51
-52
-30
-22
21
63
66
46
30
-14
-45
-54
-38
-16
24
59
50
46
27
-14
-46
-39
-30
-11
24
59
60
47
12
-7
-28
-38
-30
0
44
71
74
50
25
-17
-44
-34
-20
1
39
62
63
62
38
-1
-29
-45
-29
5
46
67
55
40
13
-17
-47
-45
-40
-9
34
61
62
52
13
-27
-49
-45
-40
-4
36
54
51
46
13
-25
-46
-39
-31
-1
43
50
52
42
-5
-43
-50
-37
-21
14
37
48
44
40
-8
-51
-70
-64
-54
-5
56
94
98
111
108
106
120
145
162
207
240
260
265
243
128
39
-2
-9
-6
29
62
71
64
46
1
-27
-37
-27
-16
20
53
54
52
37
-8
-34
-40
-30
-12
27
52
66
55
42
7
-28
-47
-36
-16
21
55
64
49
37
-12
-47
-35
-31
-17
24
58
66
55
34
-8
-42
-53
-37
-1
41
69
63
48
16
-28
-45
-35
-13
8
32
64
65
48
26
-2
-27
-31
-26
-4
39
62
73
62
28
-7
-37
-29
-20
5
42
61
72
71
37
-4
-29
-19
-4
23
56
77
79
65
37
-4
-23
-16
-2
34
70
87
78
82
52
8
-6
-1
4
42
81
102
97
88
66
23
11
17
26
67
98
114
107
98
57
14
7
13
19
70
95
112
99
96
55
11
1
3
11
57
81
91
80
70
17
-17
-32
-24
-12
31
67
66
56
49
3
-25
-46
-36
-29
23
59
67
64
45
5
-30
-45
-29
-17
23
59
59
46
30
-18
-49
-43
-28
-9
31
55
64
55
31
-12
-42
-49
-36
-14
26
55
65
50
27
-13
-41
-49
-38
-23
25
67
65
56
27
-16
-43
-54
-35
-12
30
52
62
53
19
-24
-51
-47
-34
-8
42
69
68
55
22
-16
-36
-50
-40
-3
37
60
61
53
28
-17
-51
-44
-40
-3
38
63
63
53
15
-31
-50
-45
-39
-2
40
55
52
56
17
-25
-46
-39
-34
3
44
63
63
54
15
-28
-38
-41
-38
0
46
64
66
61
14
-33
-47
-46
-29
7
59
81
64
57
17
-30
-47
-42
-33
20
58
67
58
56
8
-40
-45
-46
-32
8
59
83
67
47
7
-37
-47
-34
-13
32
60
64
58
43
2
-30
-31
-33
-12
24
69
74
58
41
2
-30
-40
-30
-4
37
65
87
80
57
3
-22
-35
-23
5
48
79
81
72
54
15
-23
-34
-29
-2
41
70
79
79
41
-5
-35
-51
-30
1
36
66
70
57
22
-25
-53
-56
-28
5
44
70
64
62
38
-7
-43
-37
-31
-2
42
66
64
60
24
-20
-39
-43
-28
4
38
58
74
55
23
-28
-56
-53
-52
-13
30
54
65
90
67
51
67
97
131
194
248
279
286
276
244
173
86
31
6
47
77
91
81
66
27
-21
-46
-37
-21
22
55
76
72
59
16
-23
-44
-34
-29
7
46
71
72
65
8
-30
-44
-37
-22
19
68
73
62
53
12
-22
-40
-31
-14
30
71
75
67
52
13
-26
-37
-35
-22
19
54
79
71
55
15
-25
-26
-17
-8
39
73
81
62
49
5
-25
-34
-22
-2
42
75
79
71
54
14
-17
-34
-22
3
48
89
84
79
46
4
-17
-17
-7
24
64
87
86
82
60
18
-9
-4
7
31
69
100
106
109
74
36
7
2
8
54
100
123
118
116
78
41
22
19
24
60
104
134
132
127
92
47
19
30
38
79
103
127
133
120
82
34
14
18
23
58
94
113
111
94
56
11
-13
-11
-2
35
69
98
100
82
45
-7
-27
-18
-12
25
65
84
73
67
26
-6
-20
-21
-11
31
63
83
72
58
17
-17
-36
-16
-11
36
72
88
72
67
20
-18
-28
-27
-13
34
69
81
73
60
26
-24
-39
-22
-5
28
73
89
87
67
20
-14
-28
-25
-11
44
86
90
75
60
13
-14
-23
-21
3
45
79
85
78
64
6
-18
-22
-8
4
43
75
87
78
46
1
-24
-25
-13
17
61
84
84
79
50
10
-21
-28
-20
6
45
77
81
68
45
5
-23
-18
-12
7
62
75
73
76
46
-1
-30
-31
-18
20
74
89
86
68
41
-7
-35
-33
-18
15
65
88
82
73
38
-6
-37
-32
-14
21
58
85
73
65
32
-10
-33
-25
-21
23
59
82
78
70
26
-14
-24
-25
-20
22
74
83
79
66
28
-6
-39
-38
-32
26
75
97
87
68
26
-15
-29
-18
-2
39
82
98
82
68
30
2
-9
-13
-5
50
86
92
78
80
40
0
-26
-9
15
53
89
94
87
66
21
-9
-13
-13
-4
31
69
90
73
66
2
-24
-26
-15
-1
38
75
92
79
59
16
-16
-27
-21
7
53
78
94
71
45
0
-24
-22
-17
21
54
79
92
84
49
2
-29
-25
-17
6
30
60
78
76
56
32
35
58
92
156
232
280
295
293
261
217
184
148
83
67
93
103
100
90
49
-13
-17
-4
-1
30
66
92
88
80
52
9
-17
-14
-5
33
70
94
87
77
49
-9
-33
-22
-12
29
65
87
95
87
39
-7
-29
-16
-1
39
77
92
82
73
35
9
-13
-10
-20
31
62
81
90
87
31
0
-1
-4
2
48
77
88
82
81
37
9
-4
1
8
54
84
94
89
77
33
4
-8
3
31
52
93
102
99
83
47
18
15
12
34
71
103
109
98
65
36
12
4
12
30
71
96
114
109
84
49
17
13
22
46
97
116
128
115
93
45
29
25
32
62
102
124
127
124
102
58
33
33
47
87
113
130
126
123
87
57
51
37
39
57
91
114
115
106
73
30
2
9
12
35
74
90
90
84
48
16
-7
-10
-7
35
71
82
77
69
34
-2
-24
-25
-7
29
66
87
76
74
37
-14
-26
-14
-2
49
76
82
79
77
38
-8
-26
-16
-10
44
69
85
73
56
36
-3
-19
-12
-5
39
67
88
78
60
21
-11
-20
-10
0
44
81
90
79
68
30
-13
-24
-22
-6
44
76
93
71
59
28
-12
-8
-11
1
43
77
88
76
53
16
-12
-14
-14
6
55
78
91
71
65
18
-18
-22
-11
7
45
78
92
83
56
14
-19
-18
-3
8
45
67
77
69
53
18
-8
-17
-6
9
45
76
82
75
48
10
-22
-13
-3
22
57
81
81
71
50
17
-15
-24
-18
16
62
86
87
72
43
3
-14
-9
-3
30
61
92
82
66
41
4
-18
-13
0
35
65
80
84
75
49
23
-4
-1
12
34
75
102
90
84
48
8
-6
7
22
53
88
105
105
93
47
6
-2
8
15
61
80
91
79
82
32
-5
-20
-3
-3
40
75
91
90
72
39
-3
-7
0
11
49
77
92
83
64
26
-7
-14
1
20
51
88
92
96
84
28
-5
-12
-7
5
40
73
92
85
64
17
-24
-29
-12
11
62
124
153
158
158
152
143
163
170
203
243
290
283
235
137
68
28
11
14
38
71
98
107
81
68
30
-5
-4
3
22
57
87
97
90
64
20
-5
-13
5
29
57
93
95
82
56
21
-4
-18
-2
41
63
92
96
89
69
20
-1
-3
4
35
60
94
101
93
76
29
-3
-3
-2
40
73
109
95
77
57
19
-8
3
9
38
80
113
105
94
58
16
-3
-2
11
57
86
103
100
93
60
27
19
22
26
66
99
104
104
94
57
20
15
15
27
70
106
122
110
109
65
34
20
30
43
81
121
130
119
106
66
46
29
31
48
88
132
145
133
119
78
51
40
50
69
116
142
158
142
122
85
43
45
48
58
109
137
146
139
114
70
34
25
33
51
93
123
131
105
95
36
1
-1
18
51
82
112
112
93
78
32
10
11
6
26
69
100
95
83
70
40
5
-5
4
31
77
100
98
89
62
18
-10
-13
-2
28
68
92
110
92
62
21
-3
-1
16
51
78
102
99
72
61
18
-1
1
12
51
86
105
100
83
58
22
-6
4
13
38
85
106
94
90
55
26
9
4
11
50
90
93
100
83
53
17
17
2
17
65
91
107
104
89
53
6
-1
-4
22
58
94
107
100
97
57
24
11
8
17
46
98
104
96
85
50
12
3
20
28
70
102
114
102
95
50
7
6
5
35
77
104
115
115
87
45
21
2
21
29
78
116
129
115
104
64
20
22
32
48
85
112
127
116
89
29
1
6
15
37
72
97
114
90
84
39
5
-6
13
45
83
118
117
105
71
23
7
2
8
34
81
125
124
110
90
38
6
0
20
51
91
117
109
98
77
48
10
10
13
40
76
96
96
87
75
28
18
52
77
140
201
254
275
289
262
225
213
220
219
209
171
163
141
125
74
38
25
22
39
70
103
131
121
104
69
29
13
9
22
65
110
127
109
109
70
37
20
19
32
75
104
121
109
102
65
21
10
16
26
72
115
131
120
102
56
26
18
33
46
92
127
129
108
105
59
23
19
31
37
77
112
125
115
108
67
30
29
41
33
86
117
123
106
103
65
45
40
39
66
104
125
129
118
100
68
39
30
40
68
105
139
143
134
111
74
49
47
55
72
123
142
143
137
117
86
55
56
69
90
132
156
156
155
128
95
65
66
73
100
136
164
169
170
141
98
65
72
86
109
146
179
175
163
132
85
59
58
75
106
138
161
157
149
107
71
37
40
51
83
112
140
146
126
91
51
30
23
24
72
111
137
128
116
82
50
24
24
39
77
107
122
119
120
82
34
10
20
34
81
116
143
132
110
70
32
28
39
41
84
121
136
120
118
76
27
27
38
37
84
118
131
123
112
75
35
23
33
45
95
121
129
111
100
61
29
26
43
60
86
130
149
119
104
59
35
30
48
52
89
129
137
115
100
59
26
17
37
53
100
131
136
120
105
57
34
29
39
54
96
123
128
115
103
60
30
29
36
52
95
118
123
112
84
42
23
27
37
55
111
138
136
125
94
40
19
25
36
75
104
132
135
130
100
63
38
36
40
72
104
136
138
130
102
55
41
48
55
84
123
137
136
130
94
50
27
29
53
95
132
139
141
119
92
50
34
37
42
79
113
135
131
115
80
47
27
38
44
85
130
134
127
120
70
49
42
39
53
83
119
134
122
112
78
45
29
39
48
95
126
134
120
114
72
34
23
47
57
84
109
117
112
106
71
54
76
100
144
211
274
299
321
295
252
238
228
238
203
170
172
164
147
111
72
41
47
54
65
103
140
147
119
96
50
19
33
50
65
99
124
130
125
115
69
39
33
36
65
96
126
133
126
93
60
37
38
53
67
108
134
140
125
96
65
34
29
44
77
116
138
138
122
91
56
35
28
35
78
119
131
145
142
95
58
21
32
51
88
122
144
137
133
100
60
57
49
63
91
127
140
137
138
106
64
43
47
62
102
135
156
152
141
107
63
37
57
73
113
145
157
157
153
109
77
63
62
80
119
150
166
169
161
119
85
70
83
88
131
154
181
178
169
124
92
82
83
94
147
177
172
165
152
119
81
73
84
92
125
155
166
151
132
90
58
45
54
72
109
138
135
139
122
64
37
31
34
44
97
141
125
120
98
54
27
22
38
56
79
119
137
124
91
66
35
28
36
54
88
115
125
117
97
55
28
28
29
37
75
103
110
119
94
56
30
14
25
67
96
121
129
104
62
39
22
28
37
63
95
114
120
107
77
34
22
25
36
65
100
119
119
108
73
38
14
23
26
64
104
122
110
99
66
26
3
14
21
56
104
121
118
108
64
25
3
14
13
55
90
106
107
100
73
24
9
27
28
48
90
104
103
101
61
33
18
16
20
64
97
120
105
97
55
20
8
14
37
72
90
110
105
104
53
16
12
16
29
71
103
114
117
102
58
19
15
15
32
68
121
120
103
88
40
5
5
22
31
64
104
105
92
71
24
-3
-4
12
27
54
90
91
85
66
32
-5
0
2
24
58
80
88
80
66
12
-20
-9
-5
29
57
85
88
86
50
19
-7
-12
-2
13
35
52
50
54
39
8
-8
15
45
103
164
220
245
263
237
194
164
183
199
180
140
130
98
83
50
4
-13
-4
5
34
73
91
86
63
31
-11
-37
-6
2
35
64
71
68
54
30
-1
-23
-25
-15
29
59
75
68
56
31
-16
-29
-16
-14
23
61
77
67
62
24
-13
-24
-20
-14
24
67
70
73
64
10
-16
-24
-17
-8
28
62
80
65
59
24
-13
-24
-26
-4
44
73
84
72
48
9
-26
-20
-13
-6
27
67
81
67
50
13
-13
-18
-15
-3
42
78
72
70
44
7
-22
-19
-10
15
45
80
89
74
59
22
-16
-1
-9
31
58
88
93
80
58
32
-3
-4
2
26
61
96
105
92
72
31
8
-4
5
33
65
97
104
88
60
16
-1
-7
-11
13
53
88
78
56
28
-3
-32
-28
-24
3
33
53
53
44
7
-33
-45
-49
-46
-5
33
50
35
28
-7
-45
-73
-69
-50
-11
21
36
32
28
-23
-51
-56
-53
-49
-19
15
37
34
13
-21
-59
-71
-73
-62
-20
20
38
33
29
-19
-59
-70
-66
-60
-19
24
35
17
12
-21
-62
-76
-72
-49
-17
16
17
21
11
-28
-62
-71
-70
-52
-6
26
30
13
-4
-47
-78
-84
-70
-55
-27
15
18
16
7
-40
-66
-83
-66
-52
-15
8
21
13
-2
-48
-76
-96
-83
-53
-14
18
13
6
-14
-57
-91
-96
-78
-60
-22
3
2
3
-9
-55
-89
-90
-82
-64
-28
9
10
-5
-21
-56
-92
-92
-80
-61
-23
16
11
-14
-33
-72
-97
-85
-79
-54
-15
6
11
1
-29
-67
-97
-96
-87
-39
-12
14
13
7
-28
-66
-90
-88
-70
-40
-8
8
-2
-3
-28
-71
-90
-75
-72
-35
-12
11
-6
-16
-51
-86
-104
-102
-85
-48
-10
3
-4
-11
-50
-87
-111
-98
-101
-48
-12
1
-9
-9
-52
-88
-99
-106
-97
-48
-16
-15
-17
-24
-47
-82
-97
-109
-92
-51
-18
-4
-13
-20
-61
-97
-112
-107
-106
-65
-40
-12
-4
-6
-11
-12
0
41
83
150
192
196
185
181
141
89
15
-33
-41
-8
4
13
0
-11
-57
-91
-99
-94
-71
-31
-2
0
-3
-31
-68
-103
-107
-99
-78
-32
-3
8
-6
-36
-79
-98
-102
-92
-75
-36
0
8
-20
-43
-85
-113
-95
-79
-64
-23
12
8
-10
-41
-69
-94
-99
-86
-60
-14
2
4
-11
-40
-72
-94
-94
-85
-59
-16
8
8
-10
-37
-70
-101
-104
-79
-43
-7
14
8
2
-28
-68
-99
-84
-71
-31
5
13
15
2
-23
-60
-82
-81
-70
-26
5
23
14
1
-31
-68
-92
-79
-59
-22
17
34
35
26
-19
-64
-69
-53
-43
-7
26
46
31
24
-13
-43
-56
-49
-39
7
40
46
55
42
-10
-51
-45
-41
-33
6
42
49
45
33
-13
-51
-67
-54
-44
-3
23
28
17
4
-39
-76
-77
-69
-61
-18
18
14
-3
-17
-46
-88
-90
-81
-67
-41
1
20
7
-23
-70
-99
-88
-84
-63
-28
6
11
-10
-23
-64
-97
-89
-84
-63
-21
1
4
-6
-31
-65
-96
-102
-85
-63
-21
3
8
13
-14
-65
-95
-90
-87
-61
-24
9
-6
-9
-30
-64
-88
-90
-80
-47
-22
11
12
1
-30
-65
-92
-94
-82
-47
-15
5
6
1
-29
-66
-79
-85
-80
-51
-3
17
8
-2
-32
-63
-85
-83
-75
-37
3
17
9
4
-23
-55
-77
-80
-76
-29
4
28
24
2
-31
-69
-82
-81
-69
-22
14
27
16
3
-31
-65
-83
-80
-66
-14
20
28
17
11
-33
-66
-78
-61
-56
-17
16
30
27
9
-31
-53
-68
-53
-41
-2
22
29
30
24
-24
-50
-63
-58
-34
4
45
55
47
20
-19
-53
-55
-48
-43
-6
28
37
25
6
-36
-68
-66
-64
-39
5
39
43
30
10
-31
-61
-59
-53
-34
3
34
45
31
9
-28
-55
-61
-51
-20
20
38
39
28
8
-21
-48
-55
-37
-18
8
34
42
38
11
-46
-77
-69
-65
-12
30
69
83
94
92
87
105
131
159
200
237
272
275
250
157
56
-1
-16
-19
10
47
71
60
51
17
-23
-33
-27
-23
9
41
64
54
53
20
-23
-38
-35
-23
13
38
58
56
63
15
-28
-39
-17
-16
18
52
69
69
58
19
-11
-33
-24
-11
24
58
66
59
60
23
-9
-22
-12
0
27
66
72
67
64
25
-15
-25
-17
-2
37
68
80
70
60
25
-13
-16
-8
12
51
81
84
70
64
21
-3
-8
-2
10
59
86
90
84
58
34
-1
-1
9
31
68
105
106
89
70
26
5
3
28
38
83
107
106
108
87
32
7
12
24
52
86
114
120
115
91
47
30
34
49
75
114
136
139
121
89
46
16
29
53
83
114
133
137
112
86
40
23
24
31
56
95
114
95
99
56
12
2
6
6
38
65
94
96
87
40
-8
-12
-6
-4
24
65
88
84
72
37
-6
-25
0
0
36
68
83
80
64
27
-3
-19
-9
-9
27
71
79
71
55
30
-10
-23
-15
-4
43
76
89
76
65
17
-28
-13
-13
-1
38
67
83
75
70
23
-10
-28
-19
-8
23
62
80
75
72
18
-14
-23
-15
-3
35
65
77
69
55
13
-23
-27
-20
4
46
71
72
71
46
10
-23
-28
-21
7
32
63
73
59
53
7
-33
-31
-29
1
43
69
71
67
47
-2
-19
-18
-27
10
43
70
77
61
41
2
-29
-26
-26
7
46
77
68
61
37
-4
-22
-25
-12
12
50
80
67
67
40
3
-21
-26
-9
12
49
60
74
64
35
-6
-24
-28
-13
23
57
72
75
71
38
-4
-18
-14
-10
19
47
68
81
81
49
6
-6
-10
-3
40
73
80
81
77
41
4
-11
1
7
34
73
101
82
76
46
4
-1
-4
5
51
74
84
81
66
33
-9
-16
-15
-1
40
73
76
71
65
32
-21
-27
-23
-10
39
73
79
80
71
12
-19
-35
-12
3
46
72
78
68
62
15
-15
-29
-22
3
38
69
89
74
50
2
-32
-26
-23
-6
31
60
67
62
52
39
42
66
99
146
215
264
281
276
261
230
194
174
107
91
102
105
99
84
59
22
-4
-3
-2
22
65
85
85
79
56
12
-5
-16
0
19
56
78
76
87
45
13
-17
-16
-3
26
66
91
87
78
54
12
-13
-19
-5
31
76
88
91
78
35
6
-13
-10
0
41
82
100
84
78
47
19
-8
3
1
38
80
99
80
79
53
14
-10
-6
13
59
93
107
90
84
48
3
-7
13
29
65
99
115
103
87
45
15
2
17
25
61
116
123
108
95
56
22
18
25
38
72
98
117
114
105
67
39
31
50
48
83
132
138
129
108
78
34
42
53
75
106
136
145
136
113
80
46
42
51
77
118
149
158
133
116
74
50
41
47
70
102
129
130
122
99
59
29
18
30
43
83
95
98
85
76
40
10
9
14
41
74
92
106
85
57
22
5
-1
20
47
88
101
101
94
66
19
-6
-1
6
44
80
98
94
91
63
25
0
4
9
46
78
103
100
90
61
9
-2
2
15
51
88
104
99
95
60
9
-7
0
13
50
87
112
107
101
65
13
4
12
14
47
86
103
98
92
51
20
4
10
21
53
88
102
107
91
52
11
3
6
22
61
90
112
102
81
53
15
2
4
18
61
98
107
104
89
46
11
4
18
27
64
90
102
91
95
50
12
0
17
33
73
105
110
105
83
44
21
5
9
31
71
96
112
103
86
51
14
8
14
35
70
101
108
102
75
38
11
5
22
42
74
88
107
103
73
38
7
12
20
44
84
104
105
96
80
37
16
8
20
52
91
119
114
104
72
40
18
15
26
66
100
125
127
111
85
34
12
19
29
71
102
121
122
113
77
50
18
5
22
54
94
107
106
95
70
28
6
4
17
61
97
114
113
99
62
17
6
17
21
61
86
118
112
95
61
24
12
9
9
61
107
119
108
98
59
13
3
17
29
65
98
105
99
80
30
2
3
17
57
122
175
214
228
250
231
212
202
217
228
267
291
231
162
131
70
33
17
34
46
92
118
129
118
102
52
25
10
31
44
77
114
119
117
106
65
24
14
24
42
90
118
116
117
97
47
29
22
28
55
97
115
119
114
84
57
29
20
30
62
95
116
124
117
88
45
31
31
32
57
107
132
125
97
85
53
29
21
38
70
99
119
119
122
96
57
32
40
46
75
114
134
140
132
92
56
34
39
47
80
122
133
141
129
97
64
41
45
56
87
111
145
144
140
103
67
52
58
67
94
130
160
153
160
119
73
62
67
78
123
160
175
171
156
122
80
70
84
84
130
159
180
177
164
125
91
66
78
83
129
163
178
160
154
109
66
58
53
72
101
138
150
141
134
91
49
33
45
55
96
134
142
133
118
72
40
35
45
46
99
115
130
118
106
70
43
26
47
59
96
121
133
130
112
67
44
37
37
49
95
125
126
105
84
53
40
37
39
76
114
130
148
137
106
65
41
33
38
70
109
126
139
124
99
55
36
41
38
74
114
138
135
116
97
69
43
41
45
70
115
139
141
127
97
57
29
33
53
79
110
130
134
115
100
65
41
41
60
89
125
142
136
121
89
50
34
35
43
88
125
141
147
138
99
58
50
46
49
90
123
137
134
130
97
61
42
41
54
98
127
144
138
132
82
54
51
41
54
98
144
137
127
131
85
41
35
57
63
104
136
144
133
131
92
49
47
59
75
108
135
142
134
128
95
58
47
67
80
128
161
178
159
136
93
60
56
63
79
115
145
156
148
124
86
52
45
59
80
118
142
147
139
111
75
50
43
56
79
116
146
149
137
111
77
47
50
54
79
117
137
141
140
122
77
55
57
65
85
119
149
148
141
109
64
47
38
49
69
113
132
133
137
120
105
101
124
158
229
285
316
321
339
309
270
266
257
181
163
174
182
166
148
118
71
61
65
70
107
144
153
144
138
106
76
52
44
53
99
130
150
141
151
124
87
60
59
69
102
129
136
147
138
99
71
54
63
76
110
142
150
144
137
101
71
56
70
73
109
140
157
142
129
82
51
49
62
78
132
163
168
151
134
98
75
64
81
84
123
153
169
149
137
104
73
62
77
89
136
162
169
163
153
103
77
66
74
99
136
173
176
163
146
109
87
82
86
104
149
176
190
190
149
127
110
103
113
138
169
201
196
199
174
135
109
109
120
145
186
204
203
200
176
143
117
123
127
153
192
210
208
202
171
125
101
103
103
141
181
193
199
187
160
102
87
90
92
124
167
170
168
157
131
100
76
79
69
118
150
168
167
148
113
82
61
78
87
121
159
166
161
156
114
76
61
74
77
114
149
153
149
139
104
88
82
85
85
128
164
171
152
147
101
67
58
67
87
126
155
157
161
145
102
76
66
82
89
131
154
168
162
148
99
65
65
76
82
123
150
150
152
142
101
84
79
82
97
142
161
165
159
134
94
66
58
62
97
137
152
163
143
135
91
75
78
77
95
139
154
161
162
138
96
67
56
66
94
133
158
152
160
130
91
70
60
66
90
134
170
159
147
128
77
64
68
72
99
139
155
157
146
118
85
61
69
72
100
132
153
147
155
121
81
58
71
79
109
154
169
173
160
126
77
57
63
93
119
160
176
171
161
127
90
64
76
89
131
155
175
168
159
119
77
59
66
79
115
151
154
149
135
103
69
66
65
60
108
132
161
160
148
97
77
62
67
82
114
157
166
155
144
103
68
54
58
72
107
149
160
149
133
105
71
53
64
71
108
139
145
132
125
87
60
77
108
139
203
269
308
326
313
284
272
264
281
278
263
240
202
186
151
112
73
66
73
92
140
163
156
149
134
95
66
58
72
100
143
170
164
158
124
82
58
52
69
95
138
155
165
155
125
86
58
58
61
104
161
164
160
152
121
81
61
66
78
104
144
157
162
152
123
84
67
65
76
119
151
156
155
142
126
88
62
73
81
124
162
179
166
162
121
80
58
64
78
132
156
182
165
152
131
92
73
78
93
141
173
180
179
164
132
90
78
85
107
140
172
184
175
176
132
105
94
103
116
146
184
200
190
180
142
110
96
109
128
168
199
204
198
190
147
111
116
122
125
176
221
211
204
192
143
115
105
109
124
164
194
201
185
170
124
93
86
98
111
142
176
179
155
148
109
83
75
73
93
134
162
166
155
131
95
60
54
69
91
119
152
162
150
128
83
63
57
63
86
131
156
161
152
143
83
58
58
67
89
130
162
166
151
124
85
55
54
62
97
138
161
155
145
111
69
42
51
72
107
139
154
157
142
112
77
51
56
62
98
142
156
154
147
120
79
61
60
69
105
137
158
147
137
108
69
46
52
61
94
151
170
155
138
99
61
52
56
75
112
143
160
143
140
103
68
53
57
66
99
144
157
140
140
106
60
52
64
72
116
142
149
136
141
94
54
41
64
68
109
128
138
143
133
95
62
51
64
71
112
144
152
146
125
80
47
47
67
91
124
143
151
142
130
90
70
62
68
91
129
156
159
150
131
95
69
65
78
89
127
158
151
142
125
79
55
48
63
85
116
140
141
130
109
69
46
41
52
86
120
136
143
136
121
75
51
50
59
83
119
140
147
134
104
67
54
47
52
78
127
149
142
139
108
63
40
46
60
87
116
132
120
116
94
55
39
54
88
149
208
249
289
308
282
252
232
248
261
296
293
230
190
167
116
74
52
52
68
115
149
156
151
132
91
48
39
53
72
117
151
149
135
131
92
59
40
54
59
100
131
153
132
140
100
58
43
55
68
110
138
149
135
126
85
60
46
54
80
110
140
145
132
127
82
54
42
56
78
119
142
151
136
131
98
61
49
55
74
121
151
150
138
129
88
48
50
56
84
123
156
162
160
131
87
52
47
62
91
137
159
161
158
133
88
59
61
77
111
155
169
174
168
130
97
74
78
92
118
154
174
189
173
142
100
81
92
96
134
174
188
187
174
137
93
97
99
121
151
179
198
198
186
155
110
92
94
92
128
165
188
184
169
127
93
73
70
80
107
140
155
157
138
99
57
52
46
52
88
121
140
132
129
93
51
31
36
44
72
118
143
136
117
77
48
32
35
38
91
121
129
118
114
78
49
23
35
46
87
115
128
122
109
67
32
25
33
48
77
121
118
115
102
70
39
32
38
51
86
125
128
113
102
61
26
21
30
43
86
114
127
119
99
59
30
25
37
54
95
121
128
124
99
66
34
19
38
64
102
135
143
132
112
61
36
35
51
73
102
133
140
126
100
68
53
50
57
69
109
145
140
148
113
72
48
56
61
84
121
144
141
126
108
70
55
57
63
98
136
154
150
140
96
58
37
56
64
99
127
147
153
143
106
65
55
66
69
92
142
150
149
142
118
67
59
53
65
110
134
149
146
146
102
63
54
57
69
116
148
156
153
147
104
67
50
62
62
98
142
155
144
137
97
63
59
68
73
116
150
156
149
150
112
69
59
67
82
120
145
158
160
160
112
82
68
84
107
144
167
167
165
150
100
74
63
71
87
138
163
168
158
147
109
77
64
70
78
119
155
161
149
126
94
60
61
71
95
131
154
157
151
132
82
51
55
66
99
137
144
154
153
120
82
61
54
67
90
126
145
160
159
128
91
59
62
65
95
129
143
134
120
89
58
63
81
118
166
228
278
306
318
311
275
252
263
275
296
279
236
197
167
131
99
79
82
86
106
149
166
152
158
123
82
71
70
78
120
157
169
168
154
119
83
61
70
77
124
145
165
158
148
115
73
61
61
74
117
160
168
166
163
118
80
66
72
82
129
160
169
169
157
107
81
80
74
93
124
158
178
174
150
118
82
72
76
90
122
157
185
179
155
108
90
81
85
98
140
169
188
177
155
113
87
83
88
110
150
176
190
186
164
127
94
94
98
118
163
199
201
184
162
117
97
103
120
137
166
197
199
190
174
141
105
105
114
154
186
212
219
202
175
130
111
112
126
164
201
227
218
221
184
147
117
113
126
157
193
213
207
192
164
122
100
103
107
139
176
192
186
175
148
103
83
85
90
121
161
175
176
171
122
86
64
67
81
126
156
168
164
162
129
93
69
77
83
128
160
169
168
155
115
86
70
78
90
121
161
172
166
159
116
85
69
69
84
130
160
178
165
153
118
81
63
77
86
118
155
169
162
149
112
82
70
73
82
125
165
173
169
155
117
79
59
81
96
131
165
167
160
150
106
83
68
81
94
137
166
166
157
132
107
79
71
78
92
135
172
170
152
142
96
72
72
81
101
144
176
176
163
132
89
63
76
76
105
137
162
157
157
136
93
65
55
75
115
155
181
177
165
139
90
67
70
79
102
145
159
157
150
130
89
62
70
86
120
146
171
168
164
133
87
69
71
79
106
152
173
169
160
123
95
80
77
75
125
167
182
174
167
120
93
84
81
88
129
161
172
176
177
140
96
76
83
84
124
162
183
174
150
120
87
68
78
81
116
158
168
148
150
100
77
69
76
92
121
162
170
167
145
105
68
64
66
86
140
155
166
152
140
100
72
67
78
92
123
155
167
160
139
95
63
59
68
81
118
153
151
146
138
121
114
127
161
209
283
324
352
347
328
292
277
239
186
155
172
195
181
175
142
102
73
77
84
100
137
166
171
167
144
98
83
70
82
116
142
169
173
158
131
87
60
68
67
108
163
178
174
171
129
95
68
72
76
109
149
173
168
166
138
102
74
77
81
115
158
166
162
163
137
100
77
78
89
126
159
179
175
170
124
77
80
106
106
130
163
182
170
177
148
105
81
92
99
142
175
184
187
184
140
109
90
97
100
156
182
193
185
180
146
107
96
98
108
160
199
205
204
191
143
107
105
120
125
180
210
217
209
195
157
129
117
126
144
189
210
213
217
202
165
146
134
137
156
190
221
237
223
200
153
130
127
126
140
188
212
209
198
178
136
101
97
104
123
161
188
208
192
167
130
90
82
88
119
154
188
185
180
142
112
91
87
87
122
151
169
177
177
146
102
87
82
73
115
165
184
183
170
140
101
85
81
91
123
159
183
196
179
142
101
76
85
92
125
162
180
183
185
144
107
87
90
94
125
157
181
177
160
137
88
83
90
92
130
168
191
175
168
131
100
87
95
98
138
171
186
172
165
128
90
75
82
85
128
162
191
173
159
126
100
83
81
93
140
173
192
174
168
131
82
74
85
99
139
172
177
172
155
109
77
74
90
109
136
169
180
168
155
117
82
76
83
93
145
175
181
172
151
108
85
78
79
103
151
172
174
165
156
110
81
79
84
94
144
177
172
157
142
115
81
76
85
103
142
175
179
170
152
110
78
77
85
111
156
181
181
170
144
109
87
87
107
134
157
178
173
165
150
105
82
77
90
124
169
187
179
157
136
101
75
71
87
113
148
173
165
155
124
90
66
74
81
109
146
168
173
148
116
79
60
66
83
123
152
163
159
151
113
75
70
69
83
124
152
170
166
155
116
78
53
65
80
111
133
140
139
138
109
73
91
118
146
211
282
312
330
333
304
271
260
274
272
236
209
196
180
171
121
82
66
73
90
127
167
179
170
152
107
65
62
80
82
122
156
154
141
146
108
82
74
78
97
131
155
158
149
144
101
68
61
68
97
132
160
160
155
139
97
65
68
76
98
134
165
168
154
128
96
67
62
73
100
130
161
167
168
144
94
66
71
74
96
145
166
176
165
127
85
69
76
89
115
142
166
179
172
138
106
80
81
90
117
153
166
180
173
139
94
85
91
98
131
170
186
188
177
139
108
88
92
103
150
170
203
191
181
150
116
91
106
124
174
203
200
203
196
168
124
106
109
115
157
211
227
204
197
162
123
107
111
110
162
195
196
182
180
138
103
81
82
95
144
168
177
175
157
121
84
71
67
75
132
172
170
169
157
93
65
61
70
80
132
161
164
152
136
101
73
62
62
84
131
162
162
142
122
86
66
70
80
93
128
163
161
150
144
95
60
61
63
86
132
157
157
157
142
94
70
67
74
95
126
156
169
166
131
93
67
60
78
106
132
160
167
142
125
87
60
80
82
108
145
160
159
156
125
89
65
73
80
106
140
171
169
150
123
85
62
65
83
109
149
158
163
153
120
82
71
65
82
117
145
163
156
158
116
76
48
64
85
124
154
167
158
154
125
80
66
71
82
110
143
156
169
166
119
70
62
69
87
112
148
169
165
154
111
80
69
69
79
121
157
165
151
149
111
73
66
71
85
127
160
169
165
152
104
73
59
78
93
129
161
171
154
138
96
78
64
73
94
134
159
179
163
138
96
72
70
89
94
138
169
175
171
161
110
79
70
83
112
154
182
178
164
143
113
80
72
85
105
142
164
173
166
141
98
70
64
81
98
133
157
159
158
135
88
63
71
74
101
129
156
158
153
125
86
62
66
77
109
141
158
167
156
125
76
60
69
81
107
140
160
160
145
131
82
60
65
68
92
137
149
139
139
112
82
73
100
133
187
248
299
323
335
313
275
256
271
284
287
256
218
192
181
136
92
80
71
89
128
158
179
171
158
128
84
69
76
80
116
156
158
161
150
111
69
71
77
78
125
160
165
161
146
103
70
65
75
88
136
165
174
168
154
116
82
65
77
89
131
166
183
179
156
99
77
70
83
96
146
170
178
172
152
108
81
79
87
103
134
172
177
171
152
111
91
79
95
114
155
191
192
183
158
117
87
84
89
122
162
188
190
184
162
122
104
100
97
126
168
196
207
188
169
134
106
106
117
147
195
217
217
206
178
139
105
106
133
153
192
220
224
221
193
150
126
126
144
174
212
230
227
220
185
142
129
120
130
161
197
212
209
193
159
117
100
102
113
140
183
193
190
180
135
93
79
92
93
129
159
176
178
167
117
80
58
77
101
131
164
175
174
166
122
81
76
76
81
124
157
167
167
155
112
81
69
81
82
121
160
166
167
152
98
58
58
67
82
125
158
170
170
155
110
76
66
75
82
131
164
164
156
139
97
69
66
81
95
139
165
157
151
137
96
62
55
72
91
133
150
162
147
136
100
69
72
83
101
136
163
164
152
131
87
62
57
65
94
138
155
162
154
129
92
58
71
73
101
135
157
165
140
123
83
63
67
71
103
132
156
167
156
122
72
62
64
71
102
141
158
155
145
117
82
65
71
71
100
136
154
159
149
120
77
53
57
66
108
139
148
154
148
113
72
55
59
76
104
141
159
150
143
112
72
55
68
70
111
143
147
148
146
101
58
52
62
75
116
146
152
144
141
97
68
57
64
73
119
153
160
155
150
103
73
69
67
82
133
157
168
156
141
110
76
72
71
87
126
153
171
160
143
101
74
72
74
89
133
152
155
151
130
93
62
55
67
81
117
152
172
150
118
76
52
49
61
90
125
155
157
136
121
80
62
52
68
90
124
152
149
146
113
72
58
54
57
91
130
147
152
142
112
73
49
44
48
75
106
126
133
130
118
103
101
122
162
225
281
326
337
318
294
266
253
244
192
168
173
180
167
150
118
64
55
65
84
109
143
159
160
138
103
76
58
49
59
94
131
154
154
140
102
67
51
54
58
100
132
144
149
134
94
72
44
52
62
101
138
147
146
139
104
57
56
55
67
109
134
154
151
139
102
57
50
69
75
112
138
153
150
126
92
66
63
65
82
112
146
165
146
132
92
60
48
58
86
131
161
165
159
138
102
76
69
77
82
126
160
178
159
150
101
65
66
80
116
143
178
175
166
151
111
75
71
89
113
158
186
194
180
151
116
93
87
102
126
175
198
198
189
165
122
96
93
109
136
172
197
188
192
167
127
91
91
101
122
164
185
180
179
137
101
77
75
78
111
156
165
157
148
116
77
54
58
78
108
143
161
148
136
100
67
55
51
67
100
135
145
144
137
92
63
58
62
73
100
137
147
151
142
98
62
44
54
62
93
132
139
148
126
98
57
49
62
76
103
136
148
137
141
92
57
46
55
75
104
137
154
150
127
89
55
42
52
73
114
147
148
145
130
87
57
43
49
72
116
145
154
137
130
90
59
60
58
75
114
147
150
135
119
82
49
57
63
75
112
152
150
139
117
91
53
50
55
83
127
144
148
142
119
81
39
51
67
85
115
141
152
148
125
87
61
54
56
77
125
153
154
135
107
73
49
48
61
94
119
149
147
152
116
82
56
44
62
98
130
150
149
136
107
73
56
52
60
86
139
161
148
137
106
75
65
55
63
103
136
158
157
145
104
62
45
53
61
106
132
157
151
148
103
68
56
61
72
115
150
154
151
154
112
73
63
74
72
117
159
167
167
155
108
73
57
68
77
117
162
154
148
136
87
62
56
64
71
109
151
160
139
121
97
61
41
45
60
111
138
155
134
127
77
46
45
59
85
122
150
148
141
126
86
48
47
57
76
112
138
152
143
126
80
55
49
56
66
112
136
137
126
105
70
51
59
88
138
201
249
273
289
283
255
235
240
256
270
257
202
187
159
125
93
58
59
65
87
135
159
158
144
114
71
62
59
67
87
122
148
129
132
117
87
58
58
68
95
128
152
156
135
118
75
61
53
56
101
136
151
148
146
117
72
53
60
60
98
136
151
139
133
110
69
56
69
63
98
136
159
163
144
101
68
58
62
68
107
146
157
152
144
100
75
61
67
74
108
149
161
148
155
105
76
60
66
83
129
153
170
164
143
114
82
64
73
89
124
165
168
163
156
106
75
65
77
90
129
163
181
176
163
124
93
74
88
120
165
185
187
178
159
116
83
87
102
114
166
195
191
177
160
130
99
90
97
117
154
175
176
166
139
99
68
67
77
111
143
156
163
148
124
78
57
55
63
83
127
142
139
131
109
66
44
45
59
85
129
146
140
129
104
57
38
40
44
83
121
150
158
135
101
52
33
29
46
81
121
130
140
122
96
60
50
41
60
82
117
141
141
134
99
54
42
48
62
99
122
154
136
133
97
56
44
64
56
90
127
136
142
137
97
56
36
51
64
102
126
142
134
116
94
59
52
54
58
102
131
147
131
121
84
65
56
51
62
106
131
151
140
127
82
47
39
47
59
97
140
140
136
118
82
51
45
49
71
108
134
148
132
110
82
51
39
50
73
104
131
143
135
103
63
45
43
53
82
110
137
135
130
110
68
53
48
49
84
115
131
144
133
109
71
37
39
54
84
121
150
150
127
105
68
47
50
60
85
127
141
148
136
118
79
54
52
67
98
128
153
155
140
116
67
50
39
61
112
154
165
156
147
112
73
59
55
56
90
125
136
140
139
97
79
47
48
57
94
128
142
138
130
87
58
41
45
59
93
133
149
140
124
96
57
41
50
56
106
136
154
142
126
81
51
45
57
65
107
136
144
133
116
71
32
15
28
60
110
154
202
210
215
202
195
199
223
231
268
309
326
287
204
121
75
43
68
79
117
144
149
136
135
87
53
50
65
84
115
145
150
130
99
69
45
46
60
77
120
142
146
133
116
79
53
44
58
73
108
143
153
144
116
72
46
45
59
79
114
149
150
143
114
72
46
47
53
80
118
137
138
134
113
85
52
45
43
82
123
144
143
131
110
67
52
53
75
99
121
147
145
134
107
80
55
53
64
93
137
158
156
146
113
69
56
61
64
104
139
160
157
153
110
69
63
64
76
110
146
165
161
152
125
89
77
82
93
127
