-12
-11
-28
-26
-22
-18
-25
-13
-16
-21
-16
-18
-19
-19
-21
-26
-28
-22
-18
-25
-22
-21
-18
-18
-12
-19
-28
-20
-21
-23
-15
-28
-25
-29
-26
-23
-27
-21
-20
-23
-27
-19
-16
-24
-27
-21
-26
-27
-21
-14
-20
-32
-26
-29
-24
-32
-26
-15
-13
-14
-8
-9
-26
-13
-11
-15
-13
-9
-10
-9
-6
-11
-23
-33
-36
-26
-16
-27
-25
-31
-23
-23
-26
-34
-41
-41
-20
-32
-19
-26
-30
-33
-44
-26
-26
-27
-25
-28
-29
-22
-31
-30
-35
-34
-33
-36
-32
-25
-26
-22
-21
-23
-36
-38
-31
-37
-34
-31
-32
-32
-30
-36
-38
-39
-33
-33
-33
-26
-23
-18
-9
-4
3
35
48
61
80
82
77
67
60
29
4
-8
-30
-52
-63
-82
-75
-71
-66
-63
-56
-50
-49
-43
-45
-40
-34
-34
-28
-22
-31
-29
-33
-32
-36
-30
-20
-20
-44
-36
-32
-27
-27
-31
-19
-16
-27
-36
-16
-18
-20
-12
-18
-29
-26
-23
-15
-17
-20
-20
-23
-26
-22
-19
-14
-21
-29
-15
-14
-18
-25
-23
-18
-17
-15
-15
-21
-2
-8
-17
-15
7
7
-17
-11
-7
-13
-6
-2
-7
-8
2
6
3
-2
13
16
10
15
15
7
12
15
30
35
26
32
26
29
34
41
36
31
33
42
33
39
44
46
45
48
41
40
37
42
23
32
44
30
26
27
27
6
6
15
12
7
7
3
6
4
-9
-17
-5
-9
-26
-18
-17
-22
-23
-28
-21
-17
-14
-22
-15
-18
-19
-20
-24
-29
-13
-22
-20
-17
-28
-13
-14
-23
-25
-17
-20
-17
-13
-29
-24
-23
-27
-28
-21
-16
-15
-13
-11
-11
-19
-31
-16
-12
-9
-23
-28
-27
-7
-6
-10
-17
-19
-29
-24
-16
-27
-20
5
-19
-18
-6
-7
-9
-12
-21
-24
-15
-8
-18
-16
2
-1
-17
-19
-17
-19
-21
-9
-16
-13
-18
-15
-17
-2
-4
-17
-19
-22
-10
-16
-17
-20
-22
-20
-8
-8
-13
-14
-12
-14
-9
-7
-15
-25
-12
-10
-11
-12
-9
-7
1
3
-3
-7
-4
0
7
27
7
-4
-2
5
-7
-19
-17
-8
-19
-11
-5
-30
-18
-21
-9
-11
-15
-12
-20
-13
-16
-22
-11
-9
-21
-10
-18
-21
-9
-12
-14
-11
-9
-7
-13
-14
-9
-15
-13
-21
-15
-4
-14
-22
-15
-6
-9
-9
-12
-8
-14
-11
-6
-24
-27
-36
-36
-28
-22
-19
-10
-3
18
32
38
53
51
78
85
95
84
60
64
48
23
11
11
-28
-19
-34
-45
-40
-33
-36
-43
-13
-18
-15
-2
-13
-8
-8
-13
-18
-26
-21
0
0
-2
1
-22
-13
3
-4
-31
-11
0
-4
2
-11
-6
-4
-2
-11
-1
-8
-13
-9
-10
-9
-1
-3
-2
-2
-3
-11
-11
-10
0
-11
-5
4
3
-2
-5
-2
-5
-5
-8
-1
-1
9
0
-3
0
0
-9
1
12
10
10
9
15
4
-5
3
9
17
9
14
25
26
18
15
27
35
28
25
37
16
28
36
37
31
31
41
43
37
50
44
46
54
36
41
39
33
45
49
45
43
42
31
37
33
29
30
24
39
20
12
18
13
1
-4
-1
10
8
8
5
-8
-2
-6
-8
-2
-12
-8
-16
-5
-4
-11
-16
-8
-11
-5
0
-16
-4
-11
-5
-8
-6
-13
-21
-4
-5
-4
-3
-10
-2
6
-17
-9
-22
-20
-14
-5
-4
-3
1
-4
-5
-7
-14
-18
-11
-14
-8
-4
-9
-9
-7
-5
-3
-14
-3
-9
-10
-16
-8
14
-5
-11
-10
-8
-4
-9
-10
-9
-11
-12
-4
-11
-4
-14
-20
-3
1
0
3
-10
-10
-14
-12
-4
-8
-15
-11
-9
-10
-11
10
7
-10
0
13
-13
-13
-1
-6
-3
-20
-10
-9
-3
-3
-8
-10
4
1
-10
-6
2
-6
-6
-5
-2
-2
-2
-3
-6
-3
-5
-14
-1
6
-8
8
3
6
11
8
10
4
2
8
8
2
-4
-12
-11
2
-1
-4
-3
-4
-9
-10
-1
-16
-6
-2
-9
-13
-11
0
-16
-7
-3
-15
-2
-7
-17
-17
-9
-6
-5
-6
-3
-5
-7
-8
-14
-4
-6
-14
-13
-8
-1
-3
-7
-2
-16
-14
-21
-27
-21
-17
-17
-21
-16
1
14
23
22
41
54
71
72
95
84
82
78
55
57
33
18
24
-1
-16
-27
-28
-32
-31
-30
-29
-6
-7
-16
-11
-8
-7
-6
-5
-10
-12
-11
-9
-4
-3
-12
-4
-3
-1
-17
-20
-13
-12
-6
-5
-3
-6
-7
-6
-6
-3
0
-9
-6
7
0
-6
-11
-9
-13
-9
-10
-2
-4
1
4
-5
-2
-4
4
-2
-4
-7
-8
-2
-1
1
0
-2
4
-5
-4
7
0
2
8
21
1
3
7
14
20
27
25
24
27
16
17
13
9
22
42
21
25
30
31
28
35
36
38
37
34
42
43
41
50
42
51
51
49
49
48
60
34
47
34
41
34
38
35
24
30
23
19
22
14
10
12
17
3
10
8
3
5
8
-4
-10
-5
-1
-8
0
3
-3
-13
-6
-11
-13
-7
-9
-7
-5
-10
-16
-14
-11
-6
-9
-19
-12
-3
-18
-9
-13
-16
-11
-3
-13
-16
-12
-11
-9
-10
-12
-5
-16
-5
-12
-18
-8
-23
-14
-6
-20
-10
-5
-1
-33
-16
-18
-16
-18
-14
-7
-14
-11
-21
-20
-3
0
-12
-10
-10
-11
-12
-14
-22
-21
-17
-18
-14
-13
-14
-11
-15
-21
-15
-11
-13
-18
-13
-16
-15
5
-6
-17
-12
-19
-9
-19
-23
-12
-9
-11
-7
-21
-15
-13
-20
-15
-24
-16
-15
-15
-8
-14
-16
-12
-15
-7
-7
-16
-12
-15
-11
-7
-12
-6
-15
-22
-29
-15
-18
-10
-5
-19
-20
-8
-5
0
3
4
-10
-14
-6
-8
-10
-7
0
-11
-20
-6
0
-4
-11
-8
-8
-7
-2
-8
0
12
5
1
3
4
9
11
-1
-8
-4
3
-2
-1
-12
-12
-12
-8
-12
-17
-25
-16
-2
2
-6
-14
-17
-14
-9
-12
-13
-14
-22
-15
-16
-18
-13
-3
-5
-24
-21
-9
-12
-5
-12
-20
-26
-19
-11
-9
-12
-12
-8
-13
-23
-21
-23
-2
-15
-27
-16
-21
-22
-25
-38
-29
-8
10
27
43
64
65
75
90
96
92
82
63
56
31
3
11
-20
-46
-66
-63
-53
-47
-46
-37
-37
-19
-31
-26
-8
-17
-22
-10
-18
-15
-8
-16
-18
-18
-16
-20
-18
-25
-18
-7
-5
-5
-2
-12
-6
-14
-6
-7
-14
-16
-4
-6
-8
-7
-14
-21
-19
1
-16
-7
4
-11
-19
-11
-1
-4
-16
-12
2
7
-3
-10
-12
-10
-14
-7
4
-7
-3
6
8
-2
13
7
-2
0
8
10
2
9
14
19
15
16
13
8
7
11
23
25
26
30
39
29
19
31
36
40
46
51
40
34
45
52
51
34
41
39
41
44
40
54
50
52
48
40
31
40
42
50
34
21
30
37
22
20
7
1
17
21
7
8
11
2
-4
-5
-2
-3
-6
-13
-12
-9
-10
-13
-15
-14
-21
-12
-10
-7
-8
-8
-21
-16
-23
-25
-13
-9
-18
-16
-13
-15
-12
-11
-26
-20
-26
-17
-17
-11
-3
-12
-17
-13
-14
-8
-11
-20
-22
-16
-21
-28
-21
-18
-15
-18
-11
-23
-11
-8
-15
-14
-14
-19
-29
-25
-20
-9
-6
-24
-12
-15
-6
-7
-9
-15
-15
-14
-8
-14
-13
-15
-17
-17
-15
-14
-27
-18
-9
2
-5
-14
-20
-28
-21
-14
-19
-17
-14
-13
-15
-16
-14
-15
-20
-18
-13
-16
-20
-23
-19
-13
-2
-4
-13
-34
-19
-10
-5
-3
-7
-13
-18
-11
-2
-14
-12
-10
-3
5
-4
-6
0
2
-3
-7
-10
0
2
-12
-13
-13
-9
-3
-13
-11
-18
-22
-10
-1
-11
-16
-17
-19
-22
-9
-11
-18
-23
-10
-14
-28
-23
-24
-30
-24
-26
-19
-14
-15
-17
-8
-25
-19
-24
-28
-36
-19
-18
-16
-19
-27
-21
-21
-23
-25
-27
-15
-12
-18
-14
0
-20
-37
-46
-30
-34
-16
6
8
13
26
43
42
53
69
88
73
62
54
24
18
1
-26
-20
-39
-51
-63
-59
-54
-47
-39
-37
-33
-39
-22
-20
-35
-14
-18
-28
-23
-12
-20
-17
-15
-20
-27
-36
-13
-18
-25
-21
-7
-3
-17
-20
-9
-26
-19
-19
-21
-26
-14
-11
-15
-25
-23
-6
-19
-14
-12
-10
-19
-16
-8
-12
-13
-24
-6
5
-18
-17
-16
-12
-7
-4
-9
-1
-7
-19
-11
-15
-9
1
-1
-5
-4
5
8
5
3
-1
5
12
13
11
10
9
9
17
18
18
20
21
26
35
29
20
30
34
33
34
31
31
38
30
22
44
44
54
46
37
48
41
45
37
35
25
41
34
29
15
10
6
17
4
-4
13
16
2
6
-15
-16
-7
-9
-16
-4
-21
-11
-11
-16
-24
-28
-24
-19
-19
-28
-27
-23
-15
-26
-36
-19
-28
-32
-18
-12
-23
-27
-34
-18
-16
-14
-18
-27
-15
-23
-28
-22
-14
-20
-31
-37
-10
-35
-39
-29
-12
-20
-29
-25
-24
-17
-21
-27
-27
-23
-26
-21
-11
-17
-19
-15
-20
-13
-26
-24
-26
-22
-18
-30
-16
-7
-23
-11
-15
-18
-43
-27
-19
-13
-26
-21
-25
-41
-23
-19
-7
-14
-18
-18
-20
-22
-35
-31
-12
-13
-7
-26
-33
-20
-41
-30
-24
-32
-23
-17
-22
-33
-22
-30
-16
-30
-26
-21
-26
-28
-28
-14
-28
-31
-11
-15
-58
-51
-18
-13
-8
-21
-21
-21
-30
-31
-22
-23
-25
-19
-40
-34
-35
-34
-24
-18
-38
-25
-22
-33
-15
-17
-34
-32
-38
-26
-26
-25
-34
-24
-23
-29
-19
-15
-16
-9
-17
-12
-18
-20
-12
-9
-25
-28
-17
-7
-23
-11
-29
-34
-27
-31
-30
-32
-33
-29
-26
-27
-22
-38
-27
-27
-43
-31
-25
-30
-32
-30
-35
-16
-24
-28
-24
-38
-45
-45
-14
-25
-31
-30
-27
-33
-36
-41
-26
-32
-39
-32
-18
-31
-27
-38
-37
-34
-49
-48
-49
-26
-35
-24
-10
0
9
18
28
47
52
61
69
60
40
38
20
4
-6
-21
-29
-46
-57
-55
-53
-55
-41
-50
-47
-35
-30
-39
-33
-28
-31
-34
-42
-33
-36
-31
-15
-21
-21
-36
-34
-26
-28
-26
-31
-26
-26
-27
-25
-34
-29
-16
-28
-24
-25
-28
-29
-23
-21
-31
-15
-1
-36
-36
-19
-26
-38
-25
-18
-22
-20
-26
-31
-30
-25
-7
-18
-24
-23
-18
-13
-24
-24
-20
-22
-26
-9
-11
-14
-18
-4
3
-14
-10
-17
-11
6
-7
-16
2
9
-4
-11
10
6
10
-7
10
26
34
4
4
25
27
23
19
21
35
26
14
28
16
20
37
19
36
23
34
22
13
19
18
23
12
19
9
4
11
5
-12
-4
0
0
-8
-12
-18
-19
-13
-16
-19
-16
-24
-22
-31
-27
-21
-28
-26
-26
-25
-21
-22
-42
-23
-31
-52
-17
-27
-20
-23
-29
-34
-18
-16
-32
-39
-36
-18
-29
-31
-35
-31
-40
-34
-31
-20
-33
-27
-31
-23
-32
-34
-38
-23
-30
-23
-15
-34
-33
-28
-24
-30
-40
-28
-35
-34
-20
-24
-27
-36
-33
-40
-45
-17
-20
-30
-33
-35
-26
-35
-28
-41
-33
-20
-40
-38
-15
-41
-42
-28
-22
-21
-35
-31
-41
-30
-24
-24
-33
-39
-33
-23
-22
-35
-34
-28
-36
-45
-45
-38
-35
-40
-33
-28
-27
-29
-37
-32
-29
-23
-36
-26
-23
-37
-29
-35
-22
-40
-37
-30
-36
-33
-46
-48
-40
-9
-21
-40
-46
-27
-26
-38
-33
-28
-34
-36
-31
-34
-28
-29
-33
-40
-27
-29
-38
-19
-32
-33
-29
-36
-33
-30
-24
-36
-42
-35
-16
-16
-33
-28
-31
-33
-31
-31
-35
-29
-25
-13
-25
-10
-27
-30
-26
-27
-23
-22
-21
-16
-18
-27
-32
-28
-14
-45
-34
-30
-33
-35
-32
-34
-51
-42
-42
-43
-47
-38
-33
-30
-22
-27
-43
-35
-32
-43
-38
-31
-35
-41
-43
-38
-42
-33
-27
-34
-31
-34
-34
-40
-37
-49
-47
-31
-46
-49
-43
-44
-49
-49
-34
-37
-26
-9
4
7
14
36
46
70
78
62
51
33
29
0
2
-23
-52
-49
-56
-71
-71
-66
-58
-57
-49
-47
-37
-31
-34
-44
-39
-40
-38
-40
-40
-40
-34
-27
-47
-49
-34
-29
-36
-30
-18
-29
-26
-39
-34
-44
-24
-27
-28
-28
-20
-25
-30
-41
-24
-29
-23
-15
-20
-34
-35
-24
-18
-19
-25
-21
-21
-11
-22
-28
-24
-20
-11
-14
-16
-20
8
0
-17
-19
-14
1
14
2
-9
-9
-10
12
8
11
10
28
20
17
13
27
24
21
20
16
16
20
17
24
27
26
27
35
28
14
28
20
7
19
20
10
-2
-3
-14
-14
-11
-8
-10
-9
-11
-11
-20
-18
-20
-28
-34
-36
-39
-24
-38
-33
-42
-38
-34
-36
-27
-37
-33
-30
-34
-24
-43
-36
-40
-41
-39
-38
-46
-36
-45
-42
-28
-22
-29
-34
-36
-40
-44
-39
-29
-40
-43
-42
-30
-50
-44
-45
-36
-34
-35
-37
-36
-35
-51
-44
-44
-47
-50
-35
-38
-38
-38
-39
-38
-27
-33
-45
-53
-45
-39
-31
-40
-45
-51
-45
-43
-38
-43
-41
-44
-43
-37
-34
-34
-40
-40
-54
-41
-38
-46
-40
-33
-31
-39
-45
-52
-43
-35
-35
-40
-37
-48
-53
-44
-44
-40
-53
-43
-29
-29
-44
-37
-39
-41
-43
-38
-43
-38
-36
-49
-61
-47
-49
-40
-37
-34
-40
-44
-38
-43
-40
-42
-50
-44
-28
-39
-49
-41
-37
-49
-53
-49
-41
-37
-35
-30
-41
-42
-39
-34
-41
-39
-41
-40
-41
-34
-41
-45
-37
-37
-42
-44
-44
-40
-40
-39
-35
-40
-41
-37
-35
-40
-38
-33
-31
-41
-34
-26
-42
-37
-31
-29
-32
-30
-27
-23
-19
-20
-13
-20
-35
-31
-36
-33
-34
-34
-38
-40
-36
-28
-41
-36
-46
-51
-42
-42
-39
-42
-37
-39
-43
-39
-49
-51
-41
-49
-50
-41
-47
-42
-38
-40
-46
-51
-36
-38
-43
-34
-37
-41
-44
-32
-50
-37
-36
-47
-55
-65
-44
-57
-41
-35
-26
-21
2
24
21
38
49
63
73
68
54
39
25
21
-11
-25
-45
-55
-63
-72
-74
-70
-59
-60
-55
-29
-40
-41
-34
-45
-43
-41
-31
-38
-34
-29
-33
-38
-38
-37
-22
-21
-38
-43
-29
-32
-32
-30
-28
-36
-41
-40
-36
-30
-24
-19
-20
-35
-36
-22
-18
-17
-26
-24
-26
-21
-28
-25
-21
-20
-31
-27
-22
-25
-29
-20
-16
-24
-24
-23
-18
-16
-22
-20
-8
-7
-9
-7
-11
-20
-22
-14
-15
-1
4
-5
7
1
5
-7
-8
4
7
16
11
11
14
10
16
18
25
21
15
12
26
40
35
27
25
39
31
48
36
32
37
40
37
36
30
28
30
29
33
29
29
19
22
34
11
4
0
-2
-10
-9
0
-1
-6
-4
-13
-16
-2
-24
-28
-21
-25
-22
-25
-26
-31
-27
-27
-29
-31
-26
-17
-17
-31
-27
-29
-37
-29
-23
-36
-26
-15
-33
-31
-33
-27
-30
-29
-23
-29
-32
-30
-27
-32
-36
-41
-39
-12
-25
-28
-29
-16
-28
-24
-29
-39
-32
-25
-20
-30
-33
-33
-34
-28
-18
-28
-34
-28
-24
-25
-30
-29
-32
-31
-23
-32
-30
-36
-17
-18
-30
-34
-31
-27
-34
-29
-36
-28
-27
-28
-24
-33
-35
-33
-24
-28
-19
-27
-35
-35
-7
-26
-31
-28
-32
-30
-29
-24
-37
-32
-22
-19
-21
-28
-29
-23
-34
-35
-31
-29
-21
-23
-35
-33
-26
-17
-18
-40
-28
-23
-18
-21
-29
-20
-24
-30
-14
-22
-23
-23
-21
-17
-15
-18
-17
-8
-10
-9
-18
-8
-19
-21
-12
-12
-28
-13
-19
-25
-19
-19
-26
-34
-36
-30
-36
-34
-30
-28
-31
-34
-35
-18
-22
-27
-35
-35
-32
-36
-33
-30
-14
-36
-30
-29
-37
-42
-27
-35
-28
-23
-34
-29
-34
-34
-22
-39
-37
-41
-29
-29
-26
-26
-32
-23
-27
-27
-11
-3
8
22
32
55
60
74
76
54
39
36
24
9
-24
-30
-45
-67
-101
-83
-70
-69
-77
-55
-45
-31
-32
-36
-39
-30
-36
-40
-32
-21
-14
-29
-36
-28
-24
-27
-26
-26
-29
-17
-15
-18
-18
-20
-12
-29
-24
-22
-29
-22
0
-19
-14
-7
-16
-23
-23
-13
-8
-20
-18
-14
-11
-10
-10
-20
-24
-25
-12
-26
-9
0
-2
5
-5
-12
-9
-12
-8
-3
-8
9
4
-11
-5
9
4
7
0
5
8
10
10
4
17
9
16
12
23
40
22
24
35
29
24
35
32
36
39
49
44
53
55
56
41
47
42
50
65
58
46
37
45
58
53
45
48
43
51
41
26
38
29
26
6
5
8
14
6
-2
-3
0
1
-11
-11
-22
-10
-12
-14
-16
-13
-17
-20
-18
-22
-16
-18
-20
-21
-20
-10
-6
-32
-27
-28
-32
-36
-31
-28
-22
-24
-29
-16
-23
-25
-29
-23
-21
-19
-21
-26
-29
-28
-28
-39
-27
-24
-27
-20
-22
-15
-18
-8
-24
-33
-25
-27
-18
-12
-17
-29
-26
-27
-20
-22
-23
-21
-17
-18
-26
-16
-12
-27
-24
-28
-17
-31
-26
-20
-30
-21
-16
-23
-27
-22
-18
-24
-27
-9
-27
-24
-15
-23
-24
-20
-30
-29
-19
-24
-14
-21
-18
-28
-38
-14
-21
-22
-29
-19
-26
-25
-30
-29
-19
-24
-35
-8
-15
-33
-19
-30
-25
-21
-26
-34
-28
-31
-23
-21
-16
-11
-15
-16
0
-21
-13
-7
-8
-21
-2
-5
-5
-16
-20
-18
-7
-6
-10
-9
-24
-24
-24
-21
-27
-27
-27
-32
-28
-25
-43
-19
-35
-26
-24
-19
-36
-31
-30
-28
-29
-31
-31
-34
-38
-40
-35
-22
-29
-28
-38
-26
-23
-34
-37
-34
-25
-30
-30
-30
-26
-35
-31
-34
-48
-39
-46
-37
-33
-33
-44
-15
5
17
36
46
47
63
81
90
71
50
43
43
11
-12
-25
-49
-67
-75
-82
-86
-55
-50
-63
-47
-42
-29
-27
-34
-20
-28
-30
-35
-19
-16
-28
-32
-28
-32
-29
-24
-20
-23
-19
-16
-37
-24
-19
-26
-34
-19
-22
-29
-26
-22
-17
-12
-15
-26
-29
-25
-14
-20
-11
-17
-23
-12
-18
-25
-24
-17
-14
-23
-16
-15
-18
-18
-16
-13
-8
-13
-14
-16
-7
-10
-12
0
-5
-19
-13
-6
-6
-18
-5
-5
-4
-8
1
3
7
3
4
2
-1
18
19
19
19
22
24
25
19
25
32
40
37
35
38
35
33
39
35
31
42
48
36
44
50
30
24
29
35
35
32
15
18
24
9
8
14
4
7
-7
-1
-16
-12
-6
-15
-16
-12
-18
-26
-20
-26
-29
-16
-18
-13
-24
-22
-22
-23
-22
-22
-29
-24
-12
-21
-25
-11
-17
-34
-30
-21
-31
-35
-18
-23
-20
-19
-20
-25
-22
-25
-27
-28
-26
-34
-20
-21
-21
-28
-26
-17
-21
-28
-19
-18
-18
-24
-25
-29
-19
-24
-26
-23
-10
-15
-29
-24
-19
-16
-22
-25
-25
-17
-12
-16
-13
-16
-22
-18
-15
-21
-22
-24
-22
-12
-20
-25
-28
-23
-17
-19
-21
-20
-17
-28
-27
-36
-16
-28
-23
-23
-28
-16
-26
-22
-28
-32
-29
-30
-17
-19
-23
-22
-10
-22
-20
-23
-23
-23
-14
-12
-28
-27
-13
-18
-15
-12
-15
-18
-6
-17
-7
4
-16
-20
-12
-13
-21
-22
-26
-26
-21
-24
-34
-30
-24
-21
-29
-31
-33
-30
-27
-26
-17
-20
-33
-33
-33
-33
-33
-32
-33
-25
-11
-30
-36
-35
-36
-31
-29
-28
-33
-43
-33
-37
-18
-27
-27
-15
-23
-32
-30
-32
-28
-28
-41
-43
-45
-41
-53
-40
-46
-26
-2
-2
9
38
47
53
66
78
89
93
75
56
48
17
-7
-23
-40
-57
-63
-71
-62
-52
-56
-57
-52
-46
-37
-36
-37
-25
-11
-26
-20
-33
-31
-38
-33
-34
-28
-25
-16
-31
-25
-34
-36
-18
-36
-31
-33
-28
-23
-21
-25
-23
-19
-19
-33
-34
-34
-31
-25
-9
-16
-25
-26
-25
-28
-21
-26
-23
-18
-24
-18
-19
-7
-23
-38
-22
-20
-15
-20
0
-15
-29
-37
-30
-15
-7
-18
-10
-9
-7
-15
-12
-6
4
1
-9
-15
-8
5
18
3
3
8
18
7
7
8
21
26
19
27
23
21
19
41
29
31
35
40
43
31
22
31
44
23
32
23
30
34
18
17
13
17
16
18
7
8
0
-9
-12
-14
-8
-10
-13
-15
-18
-16
-13
-23
-17
-23
-30
-32
-20
-33
-29
-18
-29
-25
-31
-39
-38
-36
-35
-38
-33
-38
-39
-30
-30
-33
-36
-36
-32
-24
-28
-25
-34
-38
-33
-38
-37
-34
-34
-37
-24
-13
-28
-35
-31
-32
-36
-38
-36
-29
-22
-29
-39
-38
-35
-30
-29
-30
-37
-35
-31
-28
-37
-37
-36
-36
-33
-29
-30
-38
-32
-31
-28
-33
-41
-34
-23
-36
-29
-38
-37
-35
-28
-32
-33
-17
-35
-35
-44
-29
-31
-32
-37
-32
-32
-36
-33
-27
-34
-33
-32
-26
-23
-40
-33
-37
-32
-29
-31
-22
-24
-24
-23
-37
-39
-30
-27
-29
-23
-20
-19
-5
-18
-7
-16
-14
-14
-31
-32
-28
-22
-29
-34
-34
-36
-35
-27
-28
-30
-31
-32
-34
-48
-44
-38
-40
-34
-32
-39
-39
-31
-42
-40
-40
-63
-49
-17
-34
-31
-32
-29
-32
-42
-33
-54
-45
-41
-46
-45
-32
-35
-47
-39
-39
-41
-38
-40
-37
-43
-54
-44
-51
-46
-44
-43
-27
-18
-5
10
31
47
59
71
86
87
75
59
52
19
-7
-28
-43
-70
-88
-77
-82
-84
-67
-54
-50
-46
-46
-45
-42
-42
-36
-21
-56
-50
-38
-39
-44
-38
-42
-39
-38
-30
-43
-34
-31
-32
-38
-40
-34
-29
-32
-31
-37
-36
-33
-40
-37
-28
-37
-42
-31
-26
-32
-24
-30
-17
-23
-36
-27
-45
-34
-32
-31
-27
-30
-21
-32
-18
-22
-24
-19
-19
-28
-18
-25
-28
-32
-31
-28
-17
-10
-7
-13
-10
-6
-17
-7
-6
-19
-4
-2
-12
-3
2
12
0
-1
2
10
23
10
5
16
18
19
26
18
17
11
20
25
31
28
29
23
28
28
24
14
12
21
22
22
19
10
8
-6
14
4
-5
-9
-13
-13
-25
-18
-3
-21
-25
-39
-42
-39
-44
-40
-43
-31
-37
-37
-38
-40
-34
-42
-41
-42
-35
-42
-51
-47
-47
-50
-45
-45
-52
-46
-47
-51
-54
-44
-36
-45
-52
-42
-42
-39
-56
-50
-53
-49
-36
-46
-47
-51
-56
-54
-49
-48
-42
-51
-42
-46
-42
-47
-52
-45
-47
-38
-48
-39
-42
-46
-35
-47
-46
-47
-54
-47
-47
-43
-45
-49
-46
-44
-41
-52
-49
-44
-49
-49
-59
-58
-45
-41
-49
-43
-38
-43
-41
-52
-45
-42
-48
-51
-50
-42
-42
-31
-39
-52
-48
-58
-46
-34
-33
-41
-35
-30
-38
-39
-43
-38
-31
-24
-36
-36
-39
-26
-44
-39
-40
-43
-39
-41
-40
-43
-60
-47
-47
-43
-45
-51
-41
-47
-51
-47
-48
-52
-56
-58
-57
-55
-43
-43
-46
-41
-53
-46
-61
-46
-44
-44
-51
-43
-49
-42
-35
-35
-39
-45
-50
-50
-56
-60
-55
-47
-47
-46
-50
-57
-71
-64
-67
-64
-67
-37
-32
-20
-14
0
19
29
36
50
68
65
46
49
28
1
-37
-46
-51
-50
-68
-75
-91
-56
-67
-74
-73
-42
-41
-55
-46
-53
-58
-59
-52
-50
-44
-56
-56
-51
-39
-45
-51
-47
-44
-46
-50
-49
-49
-39
-40
-42
-47
-48
-39
-38
-39
-35
-36
-47
-36
-36
-48
-49
-42
-37
-43
-53
-47
-51
-42
-35
-26
-46
-49
-38
-45
-41
-35
-49
-33
-41
-36
-27
-23
-55
-36
-26
-37
-39
-26
-25
-27
-21
-25
-34
-29
-26
-14
-28
-16
-19
-14
-17
-18
-19
-1
-5
-17
-13
0
-5
-11
1
7
11
7
17
7
4
9
6
5
17
19
9
0
11
1
2
13
7
12
13
1
-1
-5
-5
-17
-13
-16
-15
-28
-20
-25
-23
-40
-36
-33
-36
-40
-44
-48
-40
-36
-40
-50
-39
-47
-45
-41
-46
-49
-53
-48
-55
-53
-49
-49
-47
-47
-45
-43
-40
-55
-52
-52
-48
-47
-48
-42
-45
-59
-49
-38
-53
-49
-43
-49
-48
-47
-44
-48
-41
-48
-55
-51
-52
-36
-39
-50
-54
-49
-50
-49
-43
-43
-42
-59
-43
-46
-43
-45
-47
-53
-52
-61
-49
-45
-48
-46
-48
-43
-45
-51
-53
-49
-55
-49
-47
-45
-49
-34
-47
-47
-53
-43
-47
-57
-47
-47
-49
-48
-37
-47
-47
-44
-47
-45
-39
-43
-51
-51
-51
-46
-41
-50
-53
-44
-42
-41
-40
-28
-42
-49
-39
-34
-24
-36
-31
-33
-33
-31
-41
-41
-42
-32
-36
-45
-41
-43
-40
-41
-46
-52
-52
-53
-47
-51
-50
-50
-48
-47
-52
-56
-47
-55
-52
-47
-47
-51
-44
-49
-51
-51
-49
-51
-41
-48
-41
-53
-57
-53
-57
-54
-47
-52
-58
-53
-50
-56
-47
-39
-54
-60
-67
-55
-60
-74
-62
-53
-35
-43
-50
-25
-8
5
21
46
56
60
74
65
42
37
17
-11
-34
-43
-50
-68
-81
-81
-83
-74
-67
-65
-51
-53
-49
-44
-48
-43
-49
-53
-50
-40
-46
-42
-44
-53
-53
-47
-48
-48
-49
-38
-46
-44
-42
-42
-47
-48
-47
-46
-56
-52
-49
-52
-38
-34
-31
-40
-50
-59
-51
-39
-35
-37
-36
-38
-31
-41
-43
-38
-44
-38
-31
-41
-43
-34
-37
-35
-37
-35
-39
-31
-33
-29
-25
-32
-39
-36
-30
-30
-33
-24
-25
-21
-21
-7
-25
-25
-20
-14
3
-8
-9
8
4
1
0
1
6
-5
2
-4
2
12
13
11
13
14
17
14
11
13
20
15
20
25
28
3
-3
7
-4
-3
3
7
2
-4
-9
-16
-22
-28
-24
-24
-25
-19
-29
-31
-36
-41
-44
-48
-46
-40
-31
-39
-54
-46
-34
-44
-45
-43
-46
-45
-43
-47
-51
-41
-35
-44
-54
-46
-32
-36
-39
-39
-53
-51
-38
-42
-45
-48
-58
-54
-50
-49
-45
-39
-43
-52
-52
-40
-44
-39
-44
-47
-48
-40
-42
-44
-45
-50
-42
-44
-40
-45
-44
-54
-50
-37
-46
-40
-41
-36
-43
-31
-34
-40
-38
-42
-56
-48
-42
-42
-52
-47
-40
-44
-43
-45
-54
-41
-51
-42
-38
-46
-35
-29
-49
-49
-55
-41
-47
-37
-44
-43
-42
-26
-43
-40
-49
-54
-50
-48
-45
-44
-44
-38
-42
-45
-51
-44
-45
-35
-38
-43
-40
-39
-40
-48
-45
-43
-32
-25
-37
-26
-43
-38
-30
-35
-27
-28
-27
-31
-28
-24
-45
-35
-38
-43
-38
-41
-43
-53
-56
-43
-44
-42
-50
-52
-43
-47
-46
-45
-43
-39
-43
-54
-57
-52
-51
-53
-40
-45
-47
-47
-46
-50
-44
-54
-52
-59
-51
-46
-57
-48
-39
-46
-52
-52
-42
-56
-49
-54
-54
-48
-58
-50
-58
-62
-47
-69
-49
-23
-10
3
16
40
45
63
76
79
70
49
41
23
-7
-36
-52
-64
-70
-93
-86
-78
-66
-81
-72
-60
-63
-58
-51
-50
-52
-49
-42
-46
-41
-49
-44
-41
-53
-44
-40
-46
-46
-46
-50
-39
-48
-52
-53
-38
-36
-39
-46
-49
-46
-49
-48
-36
-42
-39
-32
-35
-43
-47
-35
-42
-39
-32
-36
-32
-35
-31
-32
-41
-35
-37
-35
-37
-38
-42
-29
-23
-28
-30
-27
-26
-28
-23
-32
-32
-24
-23
-33
-17
0
-17
-16
-17
-15
-17
-14
-1
4
3
-10
-7
-3
-2
12
4
15
16
17
18
21
5
11
14
16
15
25
26
22
19
12
19
19
22
9
10
28
21
17
17
7
5
4
-4
-3
-8
-9
-17
-19
-11
-14
-13
-15
-18
-30
-38
-25
-18
-30
-39
-41
-47
-40
-41
-37
-37
-37
-36
-31
-41
-45
-41
-43
-41
-50
-38
-32
-37
-34
-33
-34
-50
-48
-46
-49
-52
-33
-37
-41
-34
-44
-46
-35
-34
-41
-35
-38
-41
-32
-42
-42
-37
-33
-40
-49
-34
-42
-47
-41
-40
-37
-44
-41
-36
-44
-42
-32
-42
-41
-40
-39
-33
-52
-57
-33
-16
-30
-39
-33
-35
-38
-47
-37
-34
-36
-34
-40
-45
-31
-36
-31
-46
-43
-42
-36
-25
-29
-36
-37
-26
-41
-41
-42
-32
-28
-25
-30
-31
-20
-18
-27
-31
-37
-31
-25
-26
-31
-29
-30
-28
-34
-36
-40
-37
-35
-39
-46
-43
-43
-44
-50
-35
-28
-41
-45
-37
-42
-51
-40
-37
-48
-45
-49
-54
-57
-42
-40
-36
-39
-51
-52
-39
-45
-47
-47
-42
-43
-44
-32
-53
-57
-44
-44
-38
-47
-43
-48
-49
-43
-48
-50
-51
-46
-36
-26
-7
7
12
38
44
59
66
80
62
54
32
9
-20
-29
-44
-76
-79
-90
-92
-84
-83
-80
-61
-68
-61
-57
-50
-52
-48
-42
-47
-49
-56
-35
-37
-47
-49
-40
-41
-44
-41
-37
-32
-39
-46
-40
-31
-38
-40
-36
-32
-40
-39
-41
-51
-43
-35
-26
-37
-29
-37
-38
-36
-30
-41
-45
-32
-33
-33
-28
-26
-29
-30
-38
-33
-37
-37
-27
-32
-29
-16
-17
-8
-28
-28
-25
-22
-28
-16
-21
-19
-16
-21
3
-11
-8
-12
-10
-7
-5
-6
-12
-9
4
12
16
15
16
17
5
11
14
14
20
33
33
22
19
19
26
32
36
24
28
29
25
18
21
13
21
11
21
19
0
-3
-4
-9
-15
-17
-17
-22
-7
-6
-25
-24
-20
-33
-36
-23
-31
-41
-43
-35
-38
-25
-38
-44
-45
-32
-36
-42
-48
-47
-33
-47
-47
-49
-48
-41
-41
-44
-41
-43
-51
-50
-45
-35
-42
-49
-40
-33
-36
-41
-46
-48
-50
-48
-28
-42
-41
-38
-47
-48
-52
-49
-40
-30
-36
-42
-48
-55
-39
-46
-35
-49
-39
-52
-52
-41
-32
-33
-39
-40
-33
-45
-47
-49
-48
-42
-40
-44
-44
-43
-49
-44
-49
-53
-44
-36
-43
-39
-36
-37
-49
-67
-48
-45
-46
-43
-46
-54
-54
-53
-48
-59
-66
-50
-44
-40
-53
-53
-47
-46
-45
-42
-41
-36
-40
-50
-42
-34
-43
-46
-44
-47
-42
-48
-59
-59
-55
-61
-47
-62
-59
-66
-79
-79
-70
-63
-62
-60
-69
-62
-74
-63
-64
-77
-69
-54
-63
-55
-55
-56
-65
-71
-69
-67
-61
-69
-69
-65
-60
-64
-67
-68
-63
-57
-48
-50
-62
-81
-69
-75
-60
-65
-66
-66
-73
-74
-66
-57
-58
-54
-36
-24
-6
1
34
42
59
65
67
51
30
21
-2
-25
-33
-51
-77
-95
-92
-98
-92
-84
-82
-76
-61
-52
-61
-41
-50
-53
-56
-42
-43
-45
-41
-46
-42
-46
-44
-53
-43
-41
-42
-52
-48
-38
-42
-41
-51
-50
-35
-34
-44
-42
-36
-34
-33
-38
-41
-39
-39
-44
-46
-44
-47
-29
-20
-19
-23
-32
-31
-29
-33
-20
-37
-37
-34
-27
-25
-28
-20
-30
-33
-32
-23
-14
-19
-32
-29
-22
-25
-24
-23
-15
-22
-16
-17
-11
-11
-10
-4
-7
-4
6
15
-4
-4
12
9
4
1
12
11
13
13
7
16
27
25
10
15
16
16
8
16
11
8
14
19
9
13
8
9
0
1
-8
-4
-11
-9
-6
-17
-16
-20
-18
-19
-20
-28
-36
-39
-35
-31
-30
-44
-28
-35
-42
-41
-43
-48
-34
-40
-42
-36
-40
-41
-46
-43
-43
-36
-32
-40
-17
-41
-52
-44
-46
-35
-39
-51
-52
-50
-41
-44
-42
-35
-42
-43
-42
-43
-44
-59
-36
-43
-44
-45
-44
-40
-39
-40
-53
-53
-48
-39
-41
-49
-53
-47
-44
-51
-50
-37
-34
-51
-43
-45
-42
-41
-48
-54
-43
-41
-45
-48
-51
-29
-33
-35
-43
-42
-49
-44
-44
-38
-35
-38
-45
-44
-33
-44
-45
-41
-36
-38
-33
-35
-32
-32
-34
-34
-35
-38
-50
-39
-30
-38
-33
-41
-55
-48
-45
-59
-63
-43
-45
-50
-50
-47
-49
-54
-48
-50
-61
-46
-58
-53
-50
-42
-57
-63
-58
-58
-48
-52
-60
-54
-53
-54
-57
-50
-60
-58
-56
-49
-52
-54
-58
-56
-59
-62
-46
-45
-60
-54
-70
-57
-62
-65
-63
-59
-56
-44
-28
-12
-1
15
24
25
35
44
47
32
10
8
-9
-36
-53
-59
-68
-84
-93
-102
-87
-70
-67
-61
-60
-59
-67
-67
-62
-54
-54
-53
-56
-54
-35
-53
-63
-58
-62
-60
-61
-63
-58
-50
-46
-49
-56
-47
-54
-54
-64
-53
-57
-55
-41
-43
-53
-43
-48
-55
-65
-65
-40
-33
-28
-51
-47
-53
-45
-52
-44
-40
-49
-38
-54
-38
-46
-37
-57
-48
-43
-48
-51
-46
-54
-43
-32
-37
-40
-37
-35
-31
-29
-32
-36
-34
-37
-30
-20
-18
-22
-31
-21
-24
-21
-21
-9
-12
-34
-22
-11
-10
-6
-5
1
-1
-8
1
1
1
3
1
1
-2
2
-2
-5
-14
-13
-18
-13
-8
-9
-22
-20
-26
-26
-27
-31
-39
-11
-34
-50
-50
-40
-50
-69
-64
-49
-50
-42
-37
-45
-52
-57
-63
-61
-55
-47
-50
-45
-37
-52
-51
-63
-63
-53
-55
-51
-51
-58
-58
-54
-56
-56
-58
-51
-53
-59
-51
-54
-55
-47
-49
-46
-55
-56
-55
-55
-57
-51
-51
-57
-57
-55
-55
-55
-48
-49
-48
-51
-44
-47
-48
-62
-51
-40
-64
-64
-77
-49
-36
-44
-50
-53
-59
-57
-58
-44
-52
-56
-48
-58
-53
-44
-53
-53
-56
-50
-44
-51
-56
-53
-54
-52
-44
-50
-60
-55
-49
-49
-51
-43
-48
-57
-54
-49
-36
-49
-46
-47
-49
-46
-44
-61
-56
-39
-45
-46
-32
-47
-49
-39
-30
-43
-47
-25
-33
-39
-28
-29
-41
-62
-57
-45
-51
-46
-49
-44
-48
-45
-52
-41
-51
-52
-59
-62
-49
-50
-38
-59
-58
-51
-46
-39
-55
-62
-53
-51
-47
-42
-47
-61
-51
-43
-43
-55
-70
-56
-61
-42
-57
-67
-51
-50
-55
-39
-49
-55
-54
-52
-61
-49
-60
-66
-70
-67
-51
-54
-38
-13
-37
-5
14
17
24
38
45
50
30
15
1
-11
-31
-51
-46
-73
-80
-81
-82
-77
-63
-59
-70
-70
-55
-54
-55
-56
-44
-52
-64
-60
-53
-54
-47
-28
-61
-58
-53
-54
-55
-50
-47
-48
-48
-56
-58
-51
-52
-55
-44
-54
-54
-49
-56
-45
-55
-59
-58
-35
-46
-45
-40
-38
-55
-48
-51
-41
-49
-56
-56
-47
-44
-54
-39
-30
-39
-44
-42
-43
-39
-22
-51
-52
-35
-36
-31
-40
-40
-50
-41
-25
-24
-32
-27
-33
-31
-12
-14
-17
-21
-24
-17
5
-19
-28
-24
-8
-15
-13
-20
-19
-3
-8
-1
-3
-5
0
1
-10
-3
14
0
-3
2
-4
-5
-1
-8
-13
-12
-16
-15
-6
-14
-25
-41
-23
-19
-38
-31
-27
-26
-48
-50
-45
-47
-53
-50
-55
-48
-57
-58
-48
-55
-60
-55
-59
-57
-52
-50
-60
-63
-56
-55
-55
-61
-56
-55
-59
-53
-34
-44
-47
-62
-61
-70
-58
-48
-60
-65
-64
-70
-61
-64
-66
-60
-56
-57
-62
-56
-59
-60
-55
-57
-55
-54
-66
-62
-63
-63
-64
-59
-57
-62
-67
-58
-67
-59
-64
-64
-62
-58
-63
-66
-64
-51
-59
-50
-58
-59
-61
-68
-60
-59
-71
-74
-64
-63
-70
-65
-70
-74
-59
-59
-67
-67
-63
-68
-66
-65
-71
-71
-66
-67
-80
-63
-67
-72
-53
-50
-73
-66
-55
-67
-78
-68
-62
-58
-59
-81
-73
-59
-77
-74
-61
-65
-64
-60
-58
-79
-86
-76
-38
-50
-54
-58
-57
-51
-55
-52
-50
-54
-65
-63
-57
-48
-66
-71
-59
-54
-68
-65
-75
-69
-83
-75
-69
-78
-66
-71
-86
-75
-65
-71
-60
-76
-71
-83
-74
-68
-80
-75
-61
-71
-77
-72
-54
-48
-84
-92
-76
-71
-82
-81
-67
-67
-56
-77
-74
-80
-65
-76
-77
-85
-86
-75
-93
-78
-69
-79
-81
-76
-78
-61
-57
-33
-33
-19
5
19
23
23
29
16
-5
-4
-23
-54
-52
-72
-93
-97
-104
-101
-115
-104
-94
-84
-74
-88
-74
-75
-75
-77
-61
-71
-71
-58
-69
-83
-83
-86
-83
-75
-58
-64
-79
-62
-63
-70
-69
-71
-73
-69
-61
-54
-66
-65
-62
-79
-78
-68
-52
-53
-78
-54
-58
-69
-77
-71
-73
-62
-65
-67
-64
-57
-64
-53
-55
-65
-61
-69
-56
-55
-52
-60
-45
-51
-62
-58
-61
-55
-59
-55
-50
-23
-55
-43
-41
-51
-41
-41
-35
-38
-35
-31
-31
-26
-22
-36
-19
-21
-24
-26
-26
-16
-14
-22
-10
-15
-3
-13
-16
-6
-15
-11
0
-10
-7
-3
0
-6
-11
-6
-10
-22
-26
-18
-28
-34
-33
-32
-30
-31
-49
-47
-42
-44
-57
-56
-50
-39
-48
-53
-58
-55
-55
-65
-63
-56
-65
-66
-73
-42
-51
-71
-64
-62
-61
-54
-60
-79
-72
-62
-66
-70
-60
-48
-53
-69
-65
-70
-61
-63
-65
-61
-62
-61
-71
-63
-63
-66
-62
-53
-60
-58
-51
-56
-71
-74
-67
-72
-62
-64
-60
-52
-57
-46
-62
-59
-62
-75
-61
-64
-68
-65
-58
-70
-68
-59
-64
-68
-60
-67
-53
-66
-57
-58
-58
-64
-63
-60
-62
-58
-50
-57
-63
-55
-48
-55
-62
-65
-71
-61
-52
-57
-61
-60
-58
-53
-57
-47
-61
-56
-51
-57
-68
-61
-53
-66
-47
-56
-44
-54
-56
-51
-52
-48
-66
-69
-58
-51
-47
-53
-44
-59
-58
-64
-52
-53
-52
-47
-50
-55
-52
-51
-43
-40
-52
-51
-47
-45
-41
-46
-39
-46
-48
-48
-52
-51
-45
-36
-32
-34
-27
-33
-34
-39
-45
-37
-42
-41
-39
-46
-44
-32
-37
-43
-42
-52
-63
-55
-41
-40
-52
-38
-52
-54
-59
-49
-51
-50
-42
-46
-52
-58
-50
-49
-51
-61
-44
-49
-45
-48
-35
-52
-40
-53
-53
-30
-53
-47
-45
-51
-63
-40
-46
-53
-55
-56
-63
-64
-52
-49
-57
-46
-21
-14
11
16
22
30
45
44
47
43
21
20
7
-16
-27
-42
-52
-69
-78
-72
-75
-70
-69
-75
-51
-53
-43
-38
-44
-39
-37
-46
-46
-53
-45
-38
-34
-40
-28
-41
-34
-30
-48
-38
-38
-30
-28
-28
-31
-34
-42
-48
-51
-36
-26
-30
-24
-54
-44
-40
-47
-37
-35
-32
-45
-44
-21
-27
-27
-31
-33
-32
-32
-28
-27
-22
-21
-31
-29
-26
-30
-26
-22
-29
-28
-10
-16
-23
-21
-19
-18
-27
-13
-25
-25
-15
-5
4
3
-11
-13
0
6
4
0
7
13
12
-2
0
6
18
15
17
21
26
16
26
20
25
18
18
37
28
26
28
22
29
26
15
23
14
11
14
9
10
9
-4
-3
-3
-6
-6
-14
-13
-18
-5
-28
-26
-15
-23
-22
-21
-35
-20
-27
-32
-21
-16
-13
-36
-37
-30
-25
-15
-22
-34
-39
-30
-38
-40
-33
-19
-24
-24
-23
-26
-25
-28
-39
-25
-20
-31
-29
-34
-28
-29
-29
-20
-27
-32
-32
-26
-18
-30
-32
-34
-19
-20
-16
-33
-18
-17
-40
-29
-23
-19
-16
-23
-33
-52
-42
-14
-19
-36
-9
2
-34
-22
-21
-22
-26
-16
-12
-13
-15
-11
-16
-19
-18
-20
-11
-18
-25
-25
-24
-32
-24
-10
-16
-18
-25
-21
-23
-30
-19
-11
-24
-23
-5
-23
-15
-14
-24
-23
-9
-10
-23
-18
-21
-24
-28
-23
-22
-11
-13
-14
-23
-16
-8
-21
-19
-29
-22
-26
-4
-25
-34
8
-19
-19
-24
-19
-19
-23
-7
-9
-16
-15
-8
-18
-12
-3
-11
-10
-21
-25
-15
-12
-16
-5
0
-1
-2
5
-15
-7
-13
9
-3
-12
-4
0
-7
-7
-11
-28
-27
-8
-13
-17
-24
-19
-20
-11
-18
-12
-22
-18
-22
-21
-22
-25
-1
-15
-21
-37
-34
-21
-20
-15
-12
-30
-24
-3
-24
-26
-21
-21
-24
-8
-26
-14
-25
-24
-22
-20
-27
-29
-40
-28
-29
-29
-29
-19
-13
-5
14
21
35
49
62
60
78
77
56
50
44
12
5
-2
-20
-35
-25
-50
-60
-45
-40
-36
-31
-36
-31
-26
-28
-29
-18
-14
-22
-27
-19
-18
-22
-29
-19
-40
-44
-9
-12
-10
-12
-12
-8
-16
-19
-17
-16
-11
-18
-23
-10
-4
-15
-10
-12
-22
-22
-20
-12
-11
-20
-14
-16
-24
-19
-10
-11
-10
-4
-15
-18
-5
-5
-9
-9
-7
-7
-16
-7
-1
-6
-12
-26
-18
-2
8
-2
6
-3
7
7
11
9
6
11
12
12
9
8
10
5
13
12
19
26
31
31
30
33
37
30
29
31
30
35
33
34
44
47
44
36
42
25
37
44
33
30
36
40
23
21
28
19
16
34
9
9
8
5
1
-8
-10
-18
-5
-3
-3
-16
-10
-17
-16
-12
-18
-12
-24
-23
-21
-14
-14
-19
-23
-18
-18
-15
-18
-27
-24
-30
-21
-21
-26
-25
-28
-20
-21
-18
-30
-25
-21
-11
-18
-16
-23
-33
-20
-19
-11
-23
-15
-22
-25
-34
-20
-16
-20
-24
-13
-22
-24
-19
-28
-30
-31
-25
-26
-23
-18
-8
-28
-40
-27
-23
-23
-32
-22
-6
-15
-18
-27
-19
-23
-23
-16
-24
-23
-22
-17
-19
-27
-20
-16
-21
-22
-32
-24
-19
-19
-14
-19
-30
-27
-15
-28
-28
-26
-23
-29
-28
-27
-16
-29
-26
-23
-25
-21
-19
-27
-27
-12
-21
-27
-31
-20
-20
-19
-30
-26
-19
-28
-27
-25
-25
-23
-21
-14
-18
-16
-35
-33
-43
-21
-23
-30
-26
-20
-19
-22
-24
-26
-27
-20
-16
-24
-24
-21
-28
-27
-30
-25
-28
-22
-20
-23
-15
-16
-16
-15
-18
-13
-23
-14
-29
-20
-22
-16
0
-11
3
-16
-16
-18
-26
-12
-4
-6
-20
-18
-25
-30
-25
-25
-19
-19
-29
-18
-27
-38
-21
-16
-19
-18
-20
-31
-27
-29
-28
-36
-31
-27
-27
-24
-29
-33
-26
-24
-32
-28
-21
-26
-30
-40
-33
-29
-30
-32
-28
-29
-37
-25
-29
-36
-27
-38
-48
-34
-17
-10
-8
10
29
36
45
57
40
96
70
51
46
44
15
-4
-35
-26
-28
-10
-63
-66
-54
-42
-31
-40
-30
-23
-15
-7
-21
-12
-17
-22
-28
-23
-24
-22
-26
-25
-17
-20
-23
-29
-24
-17
-20
-23
-19
-18
-17
-16
-22
-37
-23
-6
-15
-16
-15
-13
-15
-13
-9
-12
-37
-34
-24
-17
-18
-7
-14
-7
-18
-30
-8
-14
-16
-13
-12
-15
-18
-6
-1
-2
-17
-6
-9
-5
1
0
-1
-9
1
-2
-6
-1
-1
5
2
6
4
19
7
19
21
16
21
23
26
30
23
23
33
37
40
33
39
37
30
38
46
41
64
29
35
58
45
41
44
40
49
48
45
38
44
33
25
30
30
21
18
27
22
12
3
6
3
-2
-13
0
9
-6
-12
8
-2
-13
-8
-15
5
0
-11
-12
-5
0
-4
-8
-7
-10
-4
-5
-3
-1
-4
-10
-14
1
-4
-10
-1
-1
-7
-13
-14
-14
-9
-18
-19
-2
-8
3
-5
1
1
-3
-4
4
5
-7
-12
-13
-19
-3
-10
-3
-20
-4
5
14
1
3
3
-3
-7
-10
-8
-6
-4
-3
8
9
-2
-4
-4
12
0
-9
-19
-5
5
0
7
-4
-6
-18
-12
5
-13
-23
4
-2
-7
-3
-1
9
-6
-2
0
-3
0
-4
-1
-9
-10
-1
-8
-12
3
6
-1
2
-8
-3
5
3
-12
-15
0
-2
-2
-7
-9
-14
11
3
-1
3
0
-3
-8
-6
-2
2
-6
-11
1
4
-10
-6
-3
-11
-6
4
-3
1
-7
0
2
-9
-17
-16
-4
11
4
15
13
15
1
5
5
7
5
6
8
14
13
9
-1
15
-6
11
12
0
3
5
0
-10
-1
0
-5
-3
-2
-12
-15
-12
-16
-5
-7
-6
-12
-9
-14
-14
11
3
-3
-15
-9
4
-3
5
2
-1
-17
-13
-4
-4
-12
-13
-16
-12
-5
-6
-1
-14
-13
-8
-13
-24
-13
0
-9
2
25
21
41
42
54
70
76
85
85
78
72
61
47
17
7
-5
-8
-25
-49
-48
-43
-38
-32
-21
-17
-18
-10
-3
-2
-8
-4
0
-9
-13
-4
5
-1
-2
-6
-10
-4
-7
-8
-5
-4
-10
-7
0
-6
-3
-4
-3
-8
12
10
9
-2
-5
-11
-7
-8
-13
-11
-8
4
10
6
6
1
0
-4
0
6
0
2
4
9
0
3
0
0
8
6
3
4
8
17
6
6
6
2
10
16
24
23
16
15
20
8
32
25
31
34
23
26
31
41
35
42
39
37
43
39
46
47
46
53
48
43
45
46
47
56
58
59
56
63
65
51
43
50
43
37
39
32
41
40
30
46
33
16
15
22
13
17
11
9
8
9
-3
3
2
-5
1
8
-5
-6
-12
-18
-3
-10
-3
-1
-5
-3
-10
-1
-19
-12
-6
-13
-18
-8
-3
-13
-9
-6
-8
-1
-4
-11
-10
-10
-12
-14
-9
-11
-14
-3
-8
-14
-8
-15
-5
-4
-12
-20
-4
-4
-11
-18
-21
-4
2
-7
-13
-8
-20
-14
-14
0
-1
-14
-9
-12
-8
-5
-10
-19
-10
-4
-11
-5
-9
-20
-10
14
-9
-15
-14
-3
-12
-1
-9
-28
-22
-15
-3
-1
-21
-25
-11
-7
-12
-11
2
-24
-13
0
-8
-18
-21
-12
-11
-16
0
6
-12
-15
-12
-10
-14
-14
-4
-15
-6
-13
-13
-18
-16
-15
-12
0
-10
-10
0
-16
-18
-14
-18
-15
-17
-10
-13
-14
-18
-10
10
2
8
2
-1
-7
-3
-2
-6
2
-3
-1
-10
11
8
11
14
5
2
4
1
0
1
-9
-11
-9
-13
-14
-11
-21
-14
-7
-16
-17
-10
0
5
-4
-11
-27
-24
-12
-12
-13
-12
-8
-4
-13
-20
-6
-7
-9
-15
-6
-10
11
-11
-8
-14
-8
-11
-10
-4
-8
-12
-23
-17
-10
-9
-9
-8
2
25
39
46
49
61
75
97
75
89
79
71
53
35
1
-18
8
-24
-39
-62
-42
-30
-56
-45
-35
-19
-8
-12
-11
-9
-7
-11
-11
-6
-10
-13
-10
0
-3
-6
-10
-4
-10
-11
-11
-7
-6
-13
-11
-13
-7
-3
-3
-17
-2
-11
-7
-1
13
6
-10
-14
-9
-11
0
6
-11
2
-7
-1
-6
-1
0
-1
-1
2
3
-9
-8
-5
-7
3
11
3
8
13
1
-3
11
12
16
7
4
11
16
9
12
17
17
18
17
17
24
22
16
31
35
42
36
47
39
32
46
57
40
40
45
52
51
52
43
53
62
56
52
45
52
62
59
50
50
48
48
42
40
40
35
33
18
19
14
28
23
16
13
21
6
0
-1
0
-12
-4
14
3
-8
-5
-16
-14
-4
-6
-4
-6
-7
-13
-10
0
-10
-12
-15
-14
-13
-13
-7
-14
-17
-6
-7
-6
-6
-9
-19
-24
-11
-11
-8
-7
-4
-27
-20
-3
-14
-3
-5
-12
-12
-3
-12
-17
-22
-8
-16
-13
-7
9
-13
-3
-11
-3
5
-7
-10
-9
-8
-7
-11
-9
-14
-18
-3
-9
-14
-22
-5
-1
1
-6
-11
1
1
-11
-16
-10
-5
-22
-2
-4
-9
-21
-16
-12
5
3
-12
-11
-7
-15
-20
-12
-4
-8
6
-12
-9
-9
-12
-6
-13
-15
-19
-17
-8
-14
-14
0
-7
-9
-14
-12
-13
-11
-12
-12
-14
-9
-7
-6
-29
-1
9
0
-3
1
2
-7
-4
-6
-18
-8
1
10
7
13
9
7
-8
-12
3
6
1
-5
-6
-11
0
-7
-11
-21
-17
-20
-18
-18
-8
-18
-10
-18
-25
-19
-16
-22
-8
-7
-15
-29
-26
-16
-2
-11
-26
-19
-19
-27
-12
-15
-14
-16
-12
-22
-26
-3
-12
-24
-25
-21
-17
-13
-19
-34
-24
-19
-14
4
16
20
40
50
72
86
91
92
90
72
47
32
8
-18
-27
-37
-44
-58
-62
-54
-43
-33
-25
-31
-36
-21
-21
-19
-17
-25
-6
-6
-23
-13
-33
-22
-9
-27
-19
-16
-18
-6
-15
-9
-20
-21
-10
-14
-9
-6
-22
-4
-6
-12
-20
-18
-22
-15
-11
-17
-17
-9
-17
-9
-2
-15
-11
-13
-14
-15
-8
-11
-17
-9
-11
-11
2
-4
-3
-9
-11
4
-6
-7
4
-10
-13
6
7
5
3
10
16
9
3
0
5
11
12
7
17
18
9
31
33
26
30
21
21
22
28
32
37
36
36
36
37
40
34
39
47
48
38
48
43
37
58
43
26
40
56
42
28
37
27
10
12
14
9
22
7
2
2
9
-2
-8
-11
-13
-3
-1
-3
-9
-7
-16
-19
-20
-18
-16
-22
-16
-24
-13
-24
-24
-16
-20
-21
-24
-28
-28
-12
-19
-26
-20
-32
-18
-22
-22
-17
-4
-10
-19
-28
-19
-16
-28
-23
-26
-21
-15
-18
-15
-21
-18
-29
-27
-18
-18
-19
-38
-20
-7
-5
4
-15
-22
-21
-39
-25
-24
-19
-33
-37
-10
-22
-19
-18
-15
-18
-11
-22
-21
-31
-17
-24
-21
-22
-10
-24
-13
-18
-31
-37
-28
-19
-23
-30
-21
-7
-7
-12
-22
-9
-29
-33
-19
-16
-20
-26
-21
-26
-23
-26
-17
-23
-31
-36
-30
-12
-18
-18
-12
-24
-22
-26
-9
-27
-24
-11
-19
-23
-6
-23
-12
-19
-15
-19
-15
-7
8
11
-11
-6
-10
-13
-11
-18
-23
-4
-18
-14
-20
-21
-26
-21
-23
-22
-18
-25
-31
-35
-35
-22
-9
-48
-26
-27
-21
-29
-33
-32
-30
-21
-31
-32
-21
-35
-29
-29
-27
-29
-25
-30
-27
-39
-28
-20
-19
-22
-27
-31
-36
-36
-34
-39
-39
-37
-19
-14
-9
-6
4
20
44
59
69
77
95
93
81
65
40
14
-12
-36
-58
-75
-77
-77
-67
-62
-52
-54
-45
-38
-26
-30
-30
-26
-29
-19
-28
-40
-20
-28
-29
-23
-31
-24
-37
-24
-27
-23
-31
-36
-24
-36
-36
-17
-7
-17
-22
-40
-37
-26
-21
-15
-21
-22
-23
-26
-19
-15
-15
-22
-26
-28
-20
-28
-10
-15
-19
-12
-12
-16
-12
-15
-12
-16
-19
-15
-4
-5
-20
-18
-10
-6
-11
-4
-10
-18
-9
-12
-2
6
-2
-3
7
11
10
6
9
9
11
15
18
24
22
30
24
29
24
27
24
22
32
41
37
41
39
29
34
27
26
24
39
35
39
23
26
33
27
32
25
24
5
17
1
4
0
8
3
-7
-6
-5
2
-18
-25
-18
-17
-24
-25
-28
-34
-26
-25
-32
-24
-34
-32
-26
-26
-34
-35
-25
-22
-26
-24
-25
-31
-28
-33
-42
-46
-25
-36
-36
-19
-9
-28
-31
-26
-28
-29
-39
-29
-28
-32
-24
-22
-22
-33
-27
-31
-34
-29
-24
-40
-31
-34
-28
-13
-33
-31
-27
-27
-30
-33
-28
-28
-26
-28
-31
-33
-23
-38
-41
-31
-20
-19
-23
-27
-25
-29
-29
-36
-26
-22
-26
-24
-25
-29
-28
-36
-34
-15
-7
-21
-33
-26
-14
-23
-22
-19
-32
-22
-18
-11
-11
-16
-12
-21
-16
-14
-26
-29
-13
-1
-14
-30
-26
-27
-31
-27
-25
-32
-27
-27
-19
-27
-43
-38
-43
-46
-29
-26
-27
-37
-33
-34
-34
-39
-35
-33
-29
-41
-27
-36
-45
-39
-17
-44
-42
-23
-27
-44
-35
-34
-48
-32
-30
-44
-29
-32
-38
-23
-32
-29
-21
-21
-7
-9
-5
4
25
39
59
64
69
58
43
29
9
-3
-28
-33
-47
-72
-89
-90
-74
-76
-79
-65
-63
-57
-50
-44
-48
-31
-28
-37
-37
-32
-32
-28
-17
-23
-31
-33
-35
-31
-30
-18
-32
-25
-16
-20
-27
-34
-33
-25
-30
-27
-25
-22
-17
-19
-21
-20
-26
-31
-14
-23
-19
-28
-15
-14
-19
-16
-9
-17
-15
-11
-13
-19
-23
-24
-9
2
-5
-12
-8
-18
-13
-11
-3
-11
-3
-8
-8
-9
3
-13
10
10
11
11
9
8
9
12
24
21
14
34
22
14
33
38
34
42
29
43
40
39
40
42
40
45
48
32
41
41
27
48
49
44
42
42
38
38
21
22
14
28
30
19
6
7
3
1
-7
-10
-7
-10
-13
-5
-5
-14
-28
-30
-28
-10
-11
-21
-16
-13
-28
-26
-9
-49
-26
-38
-25
-16
-16
-28
-25
-29
-27
-30
-24
-18
-24
-31
-12
-21
-30
-25
-19
-25
-40
-48
-34
-20
-4
-18
-21
-29
-21
-16
-20
-28
-23
-24
-23
-33
-23
-32
-26
-7
-15
-22
-17
-19
-22
-19
-29
-19
-32
-22
-21
-14
-28
-31
-35
-24
-10
-13
-27
-16
-14
-21
-22
-18
-20
-26
-29
-26
-16
-25
-31
-22
-18
-19
-19
-28
-8
-21
-14
-17
-33
-33
-6
-9
-14
-9
-7
-12
-5
-15
-15
2
-10
-13
-15
-15
-25
-19
-19
-17
-22
-9
-22
-20
-23
-18
-31
-31
-23
-17
-21
-23
-22
-23
-19
-17
-27
-39
-45
-26
-21
-21
-25
-28
-25
-20
-16
-29
-29
-32
-36
-33
-33
-21
-26
-22
-16
-21
-22
-37
-31
-20
-19
-22
-22
-39
-43
-29
-29
-24
-29
-30
-12
3
25
36
41
50
60
78
74
73
61
51
31
19
0
-16
-39
-53
-71
-77
-69
-51
-62
-43
-38
-44
-49
-26
-20
-22
-20
-17
-29
-29
-29
-40
-15
-16
-17
-20
-19
-24
-23
-31
-29
-23
-13
-21
-14
-14
-22
-24
-26
-23
-7
-31
-9
-2
-31
-21
-17
-21
-15
-14
-12
-8
-10
-17
-19
-14
-9
-16
-20
-20
-3
-5
-5
-12
-18
-15
-16
-4
-4
2
-16
-8
-12
-17
-7
16
18
2
-17
-1
9
-9
0
6
14
16
21
14
16
19
10
12
16
32
22
28
32
28
21
36
32
42
47
34
42
34
36
32
44
48
41
37
42
42
46
35
29
43
43
29
22
25
11
12
15
6
10
-1
-1
-8
4
-8
-2
-8
-2
-14
-13
-15
-4
-18
-21
-27
-20
-35
-22
-19
-14
-20
-13
-19
-25
-16
-15
-27
-24
-25
-22
-15
-12
-13
-23
-23
-17
-28
-20
-19
-30
-20
-21
-15
-13
-26
-29
-27
-27
-24
-11
-13
-17
-18
-27
-25
-18
-15
-22
-16
-18
-13
-16
-21
-18
-24
-31
-16
-18
-18
-31
-10
-21
-26
-16
-19
-17
-21
-13
-9
-21
-23
-18
-18
-22
-17
-15
-14
-8
-15
-15
-15
-6
-23
-8
5
-7
-1
