119
115
122
122
120
120
125
128
139
125
128
126
132
144
140
130
127
124
129
138
139
140
128
129
134
135
133
131
126
129
127
132
132
129
135
145
142
145
138
152
139
136
131
129
134
131
124
138
147
136
143
152
145
134
140
144
154
147
146
153
152
136
128
125
110
113
128
126
125
125
134
143
137
126
119
123
119
115
122
118
135
126
122
119
123
129
137
136
133
133
131
131
137
135
131
135
134
127
134
138
140
129
128
123
128
123
121
129
130
122
117
127
130
126
139
138
143
143
133
141
124
127
143
146
131
122
108
108
103
104
118
117
120
125
130
133
130
122
110
125
130
134
129
124
128
125
124
127
131
126
123
123
131
137
136
136
140
131
118
117
116
120
127
126
128
131
135
132
141
132
120
118
118
128
130
127
128
132
132
136
140
139
131
137
120
112
120
127
131
119
111
117
121
123
121
129
125
132
136
130
129
148
138
127
132
125
122
122
134
131
123
140
143
144
145
139
139
139
141
128
129
131
134
144
137
132
142
144
145
140
144
151
149
139
142
140
129
119
109
118
108
119
122
125
123
121
128
118
116
113
127
133
129
143
138
131
111
114
124
124
126
116
124
123
127
123
123
128
125
115
104
109
112
111
122
126
140
142
161
196
220
233
258
261
272
294
313
290
302
300
299
292
294
279
258
228
190
155
124
106
99
107
123
136
142
142
149
147
148
143
131
143
141
128
134
140
136
127
129
128
130
144
150
147
145
144
135
133
139
133
140
140
151
144
140
148
144
138
143
156
154
158
149
158
161
158
158
145
130
136
146
150
151
153
156
157
148
149
159
160
158
150
140
150
144
148
157
152
153
156
172
172
166
170
176
164
161
167
174
172
172
161
166
173
184
192
191
186
188
188
191
190
200
197
197
199
197
201
193
190
199
205
203
206
199
193
199
211
199
203
203
209
211
208
214
212
205
208
196
189
195
196
189
191
190
197
187
180
173
165
168
172
169
168
165
165
156
161
158
144
152
151
141
133
122
130
138
141
135
131
131
135
148
145
139
136
139
146
148
143
145
147
126
116
134
136
133
140
139
136
143
147
153
155
146
130
116
107
144
124
128
128
139
140
147
148
150
146
153
128
132
136
132
132
129
139
136
127
127
132
134
135
131
135
147
147
141
142
139
142
140
137
139
141
145
147
145
139
139
150
145
142
135
131
139
146
148
158
159
153
143
119
120
125
137
135
130
134
132
129
127
130
129
134
152
142
123
128
143
135
126
123
124
123
126
129
134
135
140
130
129
132
128
122
127
128
137
135
136
134
124
126
134
142
136
127
127
131
134
134
140
148
155
153
155
145
137
139
128
129
116
110
114
114
119
125
132
132
124
134
137
137
123
121
127
119
116
121
122
131
131
126
132
129
127
125
127
126
126
134
136
127
135
134
128
128
122
125
118
129
125
121
124
131
126
134
146
145
138
138
134
134
136
127
124
127
125
129
131
136
145
145
148
131
107
116
112
113
123
124
131
136
141
118
118
126
135
134
132
124
124
125
124
131
148
143
137
134
136
136
134
136
128
138
142
141
143
153
148
136
136
147
152
132
125
125
128
137
135
128
131
140
139
142
146
144
127
123
128
129
126
130
139
125
121
126
135
140
140
117
107
98
113
115
117
127
129
123
117
116
111
112
118
116
115
113
110
119
132
150
167
185
214
233
242
244
241
263
275
272
274
304
314
315
313
284
266
238
206
174
140
105
108
111
125
137
144
144
144
139
137
123
123
125
131
123
122
127
140
149
160
148
137
130
131
129
128
128
134
132
139
138
134
148
142
145
142
149
151
141
140
147
152
141
136
137
146
145
137
138
146
157
151
166
164
165
155
144
153
147
141
150
145
135
137
142
155
155
155
156
162
170
180
163
151
156
165
167
165
167
169
169
169
174
173
173
164
182
179
167
171
193
194
191
191
194
194
188
191
199
186
185
183
190
199
198
194
196
208
211
219
208
197
203
208
202
179
187
192
190
192
186
190
194
182
178
180
185
179
180
174
174
151
146
155
159
154
146
152
154
142
137
134
126
128
125
123
124
126
132
138
135
140
140
130
131
127
125
126
130
130
124
126
118
118
114
119
117
132
136
134
133
128
112
114
112
119
121
119
117
133
140
134
119
119
117
112
111
121
127
127
132
131
120
116
117
121
127
124
116
124
123
119
117
127
126
120
127
136
133
139
130
132
125
120
122
129
137
133
129
134
134
132
138
137
131
125
115
101
90
90
101
120
121
123
124
132
135
128
122
130
127
131
123
113
121
120
114
112
107
121
124
120
113
113
119
120
121
123
120
111
112
117
116
127
109
109
110
117
113
120
120
120
121
124
117
112
118
121
121
117
121
124
123
105
112
107
105
109
113
109
119
121
113
113
107
108
116
125
114
110
118
115
115
111
101
107
104
106
100
103
108
107
112
112
111
111
117
122
116
113
109
116
126
121
113
109
113
116
115
122
113
108
119
126
124
120
123
124
104
82
83
94
103
96
103
103
108
100
102
103
108
108
109
110
111
104
101
108
111
117
114
105
113
109
112
119
117
123
116
112
111
122
113
116
114
111
115
115
110
112
115
118
123
130
126
133
138
131
124
123
121
117
123
120
121
113
105
117
122
122
122
115
116
108
107
106
111
104
101
106
96
95
94
92
106
97
99
111
107
109
118
115
106
106
107
108
101
105
104
107
109
106
102
101
102
103
104
99
106
88
97
101
108
129
164
190
206
206
223
230
232
243
268
267
263
283
295
288
287
289
263
211
184
149
109
79
77
80
84
103
111
116
128
118
107
116
123
118
119
121
119
116
122
115
118
112
117
119
118
121
125
123
125
113
122
127
126
129
129
126
119
120
123
137
135
136
136
140
138
133
121
113
113
115
123
127
130
119
128
128
130
126
122
127
138
133
129
124
114
125
125
134
136
131
134
131
130
141
152
148
143
147
159
156
154
156
163
168
163
160
154
149
154
164
174
174
165
167
165
162
169
162
167
171
163
172
181
186
184
192
192
197
195
188
180
173
168
167
170
175
176
175
174
172
166
170
172
172
167
166
162
163
163
151
144
143
139
154
160
146
148
144
140
135
132
128
125
127
123
126
127
129
121
134
134
135
138
136
115
84
81
96
114
120
106
105
107
103
111
110
103
103
103
104
104
107
105
107
105
97
99
104
109
112
115
109
118
113
112
116
118
111
106
107
118
117
115
117
114
111
110
114
111
125
124
125
115
111
107
116
123
127
133
139
127
113
110
111
98
109
115
117
104
102
119
113
101
108
107
112
115
119
117
119
123
109
102
99
101
107
108
109
115
107
110
116
113
115
116
113
111
96
102
103
107
108
105
98
102
102
109
107
108
106
112
112
105
119
115
98
94
103
95
101
94
93
96
110
106
106
108
112
110
106
110
116
127
124
112
117
104
97
97
98
109
104
92
95
104
107
102
100
93
86
103
95
94
100
100
98
104
102
95
103
98
95
94
103
97
92
95
90
101
104
94
100
99
99
108
114
113
111
106
100
102
101
109
104
116
107
91
93
110
100
106
122
123
106
91
86
94
106
109
89
85
89
87
98
96
95
93
86
96
103
102
108
106
91
92
99
96
96
109
107
95
86
90
96
100
91
88
100
106
103
96
111
101
98
100
102
108
112
125
107
99
104
110
115
104
96
113
87
89
115
117
113
117
111
99
87
86
96
90
94
99
103
116
118
108
101
100
105
111
108
107
103
99
95
101
99
101
99
108
100
100
102
95
97
90
86
89
105
110
92
96
99
97
94
107
113
107
115
100
110
116
123
127
119
86
68
80
93
92
88
89
92
93
89
91
88
86
85
80
72
77
99
114
132
160
174
187
199
219
227
244
260
247
237
266
280
278
274
261
237
215
181
142
103
77
67
75
89
99
104
110
117
114
105
105
115
118
116
115
118
122
127
123
116
111
100
111
111
121
119
97
97
103
114
105
89
99
94
95
93
96
105
119
130
122
111
112
119
112
109
106
100
120
118
109
113
114
122
108
111
117
122
134
125
125
122
119
119
126
123
120
131
130
133
138
130
137
134
152
146
138
135
144
136
146
156
143
136
130
129
138
139
142
147
145
144
146
151
153
146
143
158
168
178
160
153
161
162
166
177
171
179
171
166
158
158
163
174
179
181
174
176
170
161
152
150
161
160
158
161
156
159
154
150
132
130
133
141
140
137
130
132
129
129
132
124
121
111
106
100
96
88
87
92
100
110
107
100
96
91
106
103
99
96
87
89
97
98
101
104
104
102
100
95
96
99
96
102
93
99
103
97
90
100
109
105
110
112
112
122
137
131
120
101
107
104
99
88
94
95
93
85
81
95
91
91
96
96
96
98
95
95
97
103
99
93
99
106
102
101
96
98
107
106
109
104
101
98
95
101
99
96
97
88
99
92
93
90
92
104
108
99
96
96
100
97
99
103
105
117
117
115
106
93
78
88
90
97
98
100
95
98
100
88
82
76
87
93
89
92
91
82
85
91
96
90
92
84
80
87
91
96
87
87
88
101
93
89
92
89
88
99
86
82
88
95
94
96
96
90
81
87
93
102
95
109
105
82
86
99
94
89
86
93
101
91
80
79
78
88
87
99
87
81
78
83
84
90
84
87
79
75
77
81
86
93
92
97
101
82
78
81
71
76
85
84
80
85
94
99
89
87
85
87
89
92
94
94
96
106
103
76
87
84
80
80
82
95
97
97
95
94
95
75
73
69
78
79
83
87
83
83
80
82
83
90
87
82
90
95
92
91
82
72
78
81
92
93
89
87
86
80
75
79
75
83
85
97
96
96
92
95
100
88
93
98
100
110
107
112
119
110
109
81
69
79
91
88
89
91
93
89
87
97
113
103
95
96
87
79
75
76
78
80
74
71
76
76
80
87
75
79
83
81
83
74
73
73
66
68
78
69
72
70
62
56
57
55
60
51
63
75
98
137
156
173
200
212
222
226
249
264
259
251
255
255
262
260
248
233
200
177
136
91
63
48
50
70
80
75
81
93
95
101
100
92
92
88
81
75
84
96
88
78
87
95
94
97
91
96
96
96
90
93
92
101
99
93
96
94
94
93
80
85
92
92
96
100
104
109
83
87
100
107
99
101
105
106
103
104
100
100
98
98
104
109
109
113
104
95
97
97
103
117
119
104
101
114
121
122
119
116
123
126
139
136
116
129
124
119
121
119
137
158
153
146
141
148
144
148
157
157
150
156
153
154
161
163
159
179
165
156
149
138
136
138
140
154
133
129
137
139
133
134
145
135
121
118
116
112
108
113
107
114
111
104
98
100
104
90
89
87
93
91
99
101
97
89
85
87
81
86
88
89
93
84
99
97
80
63
72
78
84
86
90
99
84
86
73
71
76
90
93
83
78
86
93
112
117
105
103
99
104
89
90
99
99
103
81
84
81
87
86
86
96
95
94
83
81
83
92
108
123
117
111
105
112
94
88
80
73
77
82
96
96
96
94
91
97
97
84
92
92
94
99
97
90
92
97
97
112
106
114
100
97
102
85
85
88
88
91
93
95
103
97
92
96
94
87
88
91
89
89
88
114
103
108
107
110
111
109
105
94
76
79
95
90
90
83
78
79
80
82
83
90
92
90
95
88
84
77
81
91
105
109
108
107
93
86
82
85
82
86
98
97
92
93
88
81
77
80
97
95
98
87
98
106
103
98
106
94
83
74
83
94
96
95
90
86
83
93
101
110
108
105
111
93
81
81
73
78
86
85
83
84
82
77
83
79
96
97
91
99
86
93
93
92
81
81
81
86
87
85
87
92
105
112
111
93
92
100
99
93
91
82
86
83
86
88
91
88
81
91
100
95
84
84
80
90
90
90
86
88
91
85
98
105
99
98
95
87
86
98
102
102
99
87
77
79
85
90
88
90
111
109
101
102
105
105
97
101
97
99
96
99
96
107
108
102
96
94
90
90
99
93
95
98
108
110
112
99
96
84
80
67
76
65
71
73
75
77
82
103
106
110
95
70
62
95
87
83
76
86
91
99
94
92
84
70
65
68
76
70
68
72
90
108
132
156
183
185
202
221
208
224
245
242
224
244
258
268
271
260
233
213
195
158
118
74
70
79
90
110
100
98
97
82
88
73
79
84
99
102
110
112
104
99
105
100
92
89
92
98
94
100
98
98
104
106
105
110
101
90
89
102
105
112
124
128
109
108
107
99
91
91
89
95
95
93
111
122
124
125
120
122
111
103
103
95
87
93
105
115
118
117
120
121
116
115
107
113
115
124
128
131
130
115
118
115
117
131
133
130
143
154
142
123
128
135
135
136
138
145
157
163
156
156
153
157
154
155
156
157
151
163
164
168
164
160
165
167
166
166
170
163
167
164
169
166
148
157
152
135
124
125
134
138
134
130
130
131
123
123
117
110
114
116
106
107
103
100
101
111
102
94
90
92
90
88
98
107
103
90
88
94
87
87
101
116
110
95
76
83
79
68
77
83
85
90
90
90
88
87
87
88
93
87
92
107
104
98
87
59
76
92
86
88
82
84
84
87
89
87
79
79
83
87
92
88
99
105
95
98
97
99
96
88
88
85
94
97
94
102
101
101
102
106
102
92
88
85
93
88
79
90
80
72
75
79
87
84
82
91
94
91
86
81
75
72
80
79
82
84
87
82
83
80
78
84
95
94
95
87
99
94
83
82
86
87
87
95
100
91
89
86
69
69
74
79
85
83
85
88
83
86
82
68
70
70
76
75
69
81
80
75
70
79
76
77
73
73
77
92
71
64
71
76
93
88
90
87
85
83
70
75
81
73
74
76
74
74
77
78
76
84
82
78
75
79
102
95
99
93
93
84
64
59
64
63
65
68
77
83
72
65
73
76
72
73
70
72
75
74
74
77
80
77
79
69
67
75
65
62
68
84
84
81
84
85
81
93
81
77
77
76
67
70
81
74
66
82
91
98
90
78
90
81
65
74
74
68
68
62
71
78
83
86
83
76
75
58
68
73
77
79
82
77
77
76
90
81
79
84
90
76
80
84
75
76
83
84
77
77
80
88
87
82
71
70
79
76
76
87
85
84
85
81
80
90
74
74
72
67
60
60
77
60
54
59
60
68
67
69
64
54
53
53
54
57
60
70
78
75
52
41
48
61
80
90
107
149
169
182
196
193
199
219
230
222
233
257
267
256
249
235
211
175
147
107
66
49
60
69
60
74
71
71
73
74
88
100
98
90
86
73
51
53
67
63
65
69
74
84
81
65
63
72
79
76
75
81
81
87
95
89
83
71
75
82
75
69
67
85
93
89
84
81
87
82
76
81
88
86
81
90
98
103
104
97
92
89
89
95
101
101
102
111
99
81
81
101
78
82
87
108
103
106
109
113
125
121
113
107
101
97
106
106
118
120
120
120
120
117
116
123
122
127
135
136
142
141
133
121
125
141
136
143
144
144
146
144
133
134
136
138
129
131
127
137
138
136
137
133
135
132
130
124
114
119
131
122
112
107
92
90
98
98
104
98
90
76
80
85
78
56
45
48
65
68
70
68
70
74
63
70
72
76
65
60
62
60
66
60
62
65
64
60
68
61
61
66
71
62
66
66
67
69
71
66
64
66
61
64
70
74
60
58
65
60
69
73
63
60
62
67
59
63
68
58
59
66
59
65
64
59
61
64
68
63
69
61
72
73
75
58
57
60
68
69
68
61
60
66
61
70
68
73
70
59
63
54
51
58
52
46
57
60
63
60
64
64
60
53
59
64
68
64
55
61
82
87
77
67
53
52
41
44
48
45
55
43
42
60
59
45
35
40
45
46
52
64
59
65
56
51
46
50
61
63
53
44
34
41
60
58
67
58
63
62
52
53
49
52
58
60
65
65
62
57
65
58
54
46
45
34
30
31
44
47
47
48
48
49
43
36
37
42
41
47
58
58
55
52
47
44
44
35
43
49
43
43
54
50
45
47
45
45
48
41
43
48
44
48
46
43
53
63
51
47
40
43
46
47
58
70
72
78
79
69
44
17
26
27
23
28
40
48
49
45
47
38
43
40
50
50
51
54
54
57
53
55
39
50
47
53
57
55
48
52
47
47
48
57
57
59
55
53
57
53
57
53
49
46
44
52
55
45
45
49
30
30
36
36
33
46
46
50
48
52
51
35
32
41
41
36
42
44
30
23
28
51
44
42
39
33
22
17
17
24
31
22
22
52
82
101
112
124
151
162
170
180
191
195
186
209
218
218
212
216
204
183
149
106
63
20
15
24
41
66
65
68
75
68
50
31
30
45
50
51
57
65
55
28
37
51
53
43
41
39
46
53
62
66
55
42
46
51
47
44
39
49
41
41
46
52
64
55
54
63
67
68
57
46
39
41
56
58
71
70
68
67
66
64
52
61
62
68
73
74
64
69
64
63
66
68
65
65
76
75
72
75
77
83
84
77
93
106
107
110
116
94
71
69
75
90
86
89
95
99
89
94
98
94
101
115
117
110
118
104
97
102
105
100
109
109
115
116
117
118
111
107
118
121
113
95
91
105
109
116
108
94
78
77
78
79
79
76
82
73
66
60
58
58
49
55
55
58
54
57
57
57
66
55
51
54
50
36
-4
12
35
35
43
33
33
30
33
28
26
27
21
36
43
38
39
46
40
34
34
31
25
34
34
40
39
39
36
41
40
34
40
38
34
26
30
31
33
41
43
40
43
51
52
27
35
42
34
34
38
47
44
45
44
44
49
38
32
46
52
42
33
32
26
18
22
26
34
41
40
29
39
41
42
41
37
37
32
30
37
23
16
28
37
30
37
35
36
41
36
34
40
45
35
34
33
32
28
23
26
25
27
41
45
43
40
37
21
23
23
23
20
19
27
33
41
40
32
22
27
21
20
28
23
26
26
21
31
18
18
46
44
30
20
17
27
29
30
27
32
22
22
21
27
19
18
25
35
32
29
20
28
35
29
10
20
38
28
27
28
24
30
34
36
21
25
29
34
28
16
24
32
24
20
12
15
20
25
30
24
42
36
33
25
20
14
21
19
15
22
31
27
30
39
42
43
48
38
38
38
33
47
41
42
37
48
42
38
43
37
21
14
28
30
25
23
35
25
20
20
8
7
13
8
8
24
24
30
35
34
25
8
18
12
4
11
14
20
22
29
23
21
25
18
22
20
21
16
3
-7
-8
2
8
-2
7
30
57
80
102
119
134
147
146
143
190
197
177
189
212
213
191
179
170
150
130
88
39
-3
-7
2
25
19
24
34
43
32
32
26
21
26
20
31
41
25
22
29
34
27
32
26
20
32
30
30
25
26
26
31
35
35
34
36
43
46
38
30
31
27
26
31
28
28
25
14
35
46
50
27
46
45
46
45
33
40
43
53
62
41
43
55
55
53
43
39
39
48
49
43
43
48
49
57
56
58
59
54
51
60
58
62
66
63
67
73
73
76
75
72
76
74
70
76
76
87
92
88
91
77
78
89
100
120
117
112
94
78
85
94
100
98
108
99
94
103
104
86
90
84
81
74
79
84
77
75
79
80
74
55
45
54
54
54
51
48
45
44
43
45
41
38
29
24
28
36
23
21
25
21
22
20
15
17
18
19
28
15
20
17
30
44
44
39
32
27
27
29
11
-1
7
7
20
21
9
6
4
13
30
27
9
23
32
39
26
24
23
25
17
9
29
28
20
21
30
25
9
18
27
22
19
20
24
15
10
14
18
22
25
24
19
21
17
24
33
30
27
39
38
41
30
25
25
23
31
32
18
4
13
30
26
17
-1
12
23
23
29
29
30
19
29
25
19
16
5
5
9
1
19
14
17
10
6
4
7
16
13
11
9
9
0
14
19
18
21
17
16
18
23
26
28
30
28
17
10
19
13
10
6
-6
-7
-3
4
16
24
33
26
11
11
24
26
14
11
9
14
15
7
11
4
6
5
3
11
8
10
26
6
-5
0
-1
0
-1
-5
5
11
12
5
6
6
17
12
17
14
9
17
14
21
10
-4
6
8
-1
3
2
14
14
26
25
21
28
37
15
2
-1
13
2
-3
6
14
11
11
4
15
13
11
9
-1
5
0
-4
0
4
15
22
20
15
10
-8
-14
-8
-1
10
15
35
28
21
20
16
10
22
15
15
29
18
16
27
9
5
9
6
12
20
25
17
14
12
17
22
22
19
16
0
8
6
12
21
18
4
-1
-2
-6
0
8
10
4
7
2
11
-5
-13
2
1
1
5
16
10
-1
-6
6
3
-8
-20
-21
-12
-7
4
-8
0
8
21
51
71
94
115
126
138
139
165
170
164
180
197
192
187
181
163
134
104
74
28
-10
-13
-13
-2
13
18
28
27
20
5
7
9
9
-1
5
14
17
18
15
17
20
28
35
22
19
16
6
-8
-3
9
20
21
15
30
30
18
12
15
13
22
18
10
13
16
18
19
11
10
26
24
21
28
47
35
14
26
27
27
26
15
16
29
30
30
38
40
35
37
50
50
35
28
13
18
27
39
42
46
39
42
41
31
45
48
48
66
67
68
55
50
55
59
66
69
67
59
65
77
69
68
70
65
59
70
73
77
80
86
94
83
86
92
80
63
66
65
73
80
84
72
73
76
67
67
70
63
63
61
69
68
67
65
55
53
36
31
31
34
31
19
29
27
14
11
4
0
10
12
10
1
0
10
8
20
17
8
4
4
4
4
3
4
4
4
-2
-3
1
1
12
10
18
20
13
24
15
2
8
-1
0
2
4
4
3
11
14
8
20
18
22
28
31
29
5
1
-6
-3
2
-3
6
7
7
14
14
6
14
3
2
6
4
9
16
13
25
25
12
-4
1
-2
4
9
15
7
2
5
12
14
25
22
16
14
8
0
7
21
31
25
5
-7
-3
-1
2
-3
-1
2
14
9
3
1
8
9
17
24
14
5
0
-4
-5
2
9
-1
2
10
19
0
-2
-7
2
0
1
6
1
9
8
-8
-6
8
-11
-2
-1
2
-3
-3
12
2
8
11
15
15
7
-10
-3
-1
3
4
11
18
15
23
7
-4
-16
-15
-5
1
4
-3
2
0
2
-6
1
14
27
17
9
-3
-5
-3
-1
9
13
-5
-3
-1
4
16
4
0
4
-1
0
1
11
13
11
12
13
18
16
-1
6
6
13
17
24
21
15
15
17
13
18
22
19
1
-7
-2
-1
4
14
8
-1
-8
-10
-5
-3
-2
-2
0
-5
-7
0
-1
-5
-2
-5
-4
-11
3
-2
-7
-10
-6
3
10
11
-5
-3
-10
-13
-17
-27
-21
-7
-6
-4
12
26
53
75
98
120
124
127
136
157
159
143
166
188
198
192
168
148
121
87
64
21
-21
-38
-24
-16
-13
-2
14
18
9
10
11
5
16
24
19
8
18
4
2
6
12
15
21
9
14
15
14
11
14
11
15
18
17
15
3
2
9
16
29
20
16
18
13
15
19
31
32
21
16
21
37
36
24
32
37
31
26
20
23
32
29
34
33
25
25
19
22
24
24
32
35
33
30
26
41
42
43
40
42
46
52
57
42
47
49
52
51
44
49
62
66
61
66
70
76
74
70
78
82
77
69
77
74
74
77
74
80
87
87
81
95
92
80
70
79
80
77
71
63
66
78
85
74
84
73
68
65
60
47
47
51
52
37
36
28
27
29
19
23
22
18
28
24
23
16
10
9
9
9
13
13
15
14
18
10
13
11
7
0
8
1
-2
2
-1
12
18
8
11
4
9
8
9
8
6
6
1
5
3
7
-4
5
9
16
17
20
11
18
5
-2
6
7
16
16
17
11
9
-5
-6
5
-5
4
13
22
10
19
13
8
9
15
14
15
1
15
12
6
7
1
-1
11
13
14
9
12
7
6
10
12
15
2
8
7
2
6
5
2
5
2
9
7
12
13
5
2
12
14
7
-3
-6
10
18
24
17
10
15
7
8
7
11
12
5
2
4
-6
4
-6
-13
-1
-4
-2
6
16
9
21
5
-5
-4
-9
-4
-9
3
-13
-13
4
-1
-7
-2
-7
-4
6
-1
-2
0
0
-2
-2
6
9
-2
7
8
12
11
-1
-3
-4
0
7
3
11
14
14
11
4
2
3
-5
10
13
-4
-13
-10
-2
7
-12
-10
-7
3
12
9
-8
-3
-5
-13
-2
-3
-3
-12
-4
-3
-6
8
6
-2
-10
-8
-9
14
0
-1
0
8
10
4
8
5
13
11
10
11
12
19
21
24
11
4
17
21
28
19
5
5
17
8
7
4
6
13
17
8
-7
-14
-2
4
-6
-18
-18
-14
-17
-16
-4
-2
-1
-4
2
4
9
1
-8
-6
-13
-8
-7
-9
-2
-2
0
6
10
-10
-14
-13
-16
-4
-14
-16
-16
-18
-6
18
31
60
88
107
130
138
132
123
142
160
149
150
161
171
184
187
166
143
94
69
34
-6
-42
-41
-25
-9
-6
-1
7
10
2
9
11
12
11
17
-2
-2
7
11
10
10
20
28
14
10
11
10
11
8
14
6
16
15
10
15
13
24
33
32
31
25
19
19
25
21
9
11
2
-6
-6
4
14
22
17
18
16
19
13
14
22
33
28
22
11
14
21
24
19
16
26
28
35
44
31
34
32
38
45
49
42
36
54
44
49
49
42
38
43
39
47
50
52
64
64
67
70
69
67
61
74
73
78
78
77
84
83
79
72
61
46
55
67
56
55
77
68
77
70
80
74
59
52
57
65
68
66
64
53
51
50
56
48
43
36
27
27
27
24
24
22
24
18
12
18
13
14
13
14
10
8
8
8
8
7
11
19
15
18
23
10
18
15
16
27
23
13
-1
-28
-30
-9
-1
-16
-8
-2
-12
-22
-5
-6
5
4
18
17
16
6
10
9
5
8
16
15
15
7
8
10
12
10
9
9
11
10
3
3
11
8
3
6
4
7
5
11
14
17
17
18
14
-4
5
15
18
17
17
17
19
26
25
5
5
17
10
-7
-34
-16
12
13
1
4
-6
-7
-8
-11
-5
3
-2
9
10
2
8
3
2
7
3
-3
0
3
-4
-3
3
2
6
1
2
-3
3
-7
-5
2
12
10
15
10
12
18
18
7
-18
-15
2
5
7
22
18
18
23
-3
-22
-31
-27
-21
-4
-13
-12
-6
4
6
-9
-16
-20
-12
-12
4
10
7
3
-2
-7
-8
-7
-7
-7
-13
-4
-17
-6
-2
0
0
-6
-1
4
4
-1
-3
-4
-1
7
6
5
11
12
14
9
13
6
-8
-20
-25
-14
-13
-4
8
12
18
12
15
12
-16
-34
-32
-18
-13
-8
2
9
-10
-22
-13
-6
-6
-10
-10
-9
3
0
9
-8
-7
-3
-5
-2
-2
7
7
6
9
9
4
-7
6
13
9
7
14
15
6
7
8
13
14
6
1
8
-4
-4
12
6
-8
-13
0
0
-12
-13
-13
-3
-6
-15
-22
-20
-14
-10
-5
-8
-10
-15
-10
-9
2
-3
-6
-18
-16
-12
-12
-19
-13
-4
-17
-23
-24
-32
-17
-20
-18
-17
-5
16
34
51
80
110
132
130
128
141
163
152
148
174
181
189
187
168
143
113
71
41
-8
-30
-40
-30
-4
13
19
11
5
-6
-20
-18
-4
10
12
6
-6
5
10
8
18
14
-5
-2
-12
-5
2
5
7
7
5
6
5
6
9
14
4
1
-2
15
19
10
14
11
8
15
17
17
22
15
8
11
13
18
22
14
19
16
13
14
30
29
29
22
13
4
13
17
25
24
27
16
20
29
28
27
32
39
46
30
35
35
33
37
38
51
55
54
46
48
52
46
47
51
65
55
51
63
71
63
53
58
73
81
81
78
76
68
75
77
69
68
55
52
62
55
69
69
58
67
71
69
71
66
66
77
60
56
48
42
43
32
41
36
36
29
32
37
27
27
22
18
19
11
13
19
11
-6
-3
2
8
12
5
2
5
1
0
-3
0
0
10
7
4
7
-4
-4
3
-6
-7
9
7
-2
-4
-1
7
6
-5
-10
-6
-7
-9
3
5
6
-9
5
24
-11
-13
-14
-8
-3
0
7
12
6
12
10
11
14
17
26
12
3
-5
-4
-6
0
-3
-4
2
4
5
14
14
8
8
1
1
11
3
3
5
13
16
1
-6
-9
-5
-7
-2
3
-5
-14
-11
13
13
5
-2
-6
6
7
1
10
-4
-4
-8
-13
-4
-3
12
12
11
7
0
-5
-22
-10
-5
-7
-12
-6
0
-3
8
7
-10
-1
1
0
-5
2
4
1
3
8
0
-13
-17
-13
-8
-4
-4
-9
0
-18
-22
-16
-13
-23
-30
-13
-12
-5
1
-5
-15
5
1
-9
-13
0
-1
-11
-8
-2
-7
-13
-23
-5
3
-10
-8
-9
0
-1
-12
-8
0
4
-5
-16
-7
-12
-6
-8
-9
-20
-22
-14
-1
2
1
-2
-2
-15
-9
-11
-15
-19
-1
-7
-26
-17
0
-13
-12
-23
-29
-18
-22
-8
-12
-13
-9
2
-7
-5
1
6
8
2
1
5
8
10
7
2
0
2
-2
4
3
-4
-8
1
3
4
5
-9
-9
-6
0
-14
-17
-12
-11
-6
-13
-10
-12
-15
-12
-21
-17
-12
-17
-9
-8
-7
-8
-23
-27
-23
-16
-21
-27
-26
-14
-18
-25
-27
-27
-23
-19
-22
-39
-23
-16
-25
-23
-22
-8
7
34
59
82
96
111
120
134
158
170
159
170
190
191
195
168
152
122
93
66
31
-11
-38
-35
-35
-24
-22
-17
-7
-8
-5
-2
-1
6
-3
-6
2
-2
-4
-18
-18
-13
-13
-3
16
10
2
6
-8
-18
-13
-4
-17
-5
0
10
13
4
1
7
5
11
3
6
7
-9
-10
2
-2
8
9
12
8
-4
-5
9
6
6
10
20
20
24
21
15
17
21
26
2
6
11
18
15
22
25
30
33
9
13
21
34
35
32
33
35
28
24
36
31
32
42
43
42
38
35
45
47
56
62
56
63
63
62
62
64
61
57
61
64
68
68
62
68
64
59
56
63
68
70
79
79
72
58
40
38
35
41
45
44
38
42
47
47
42
28
27
33
22
6
4
6
1
12
4
12
12
4
0
-4
-7
-3
-6
-14
-10
-12
-16
0
-5
3
10
6
4
0
0
-12
-4
-3
-2
-10
-7
-10
-4
-9
-16
-7
2
0
-10
-21
-21
-8
-12
-5
-4
-14
-23
-10
-9
-7
0
-4
-5
-4
-10
-8
-9
-15
-18
-11
-9
-12
-11
-14
-15
-10
-3
-4
-1
-4
-3
-5
3
-4
-3
-11
3
12
-10
-11
-7
1
3
-1
1
-9
-12
-1
3
0
-5
1
-3
-13
-23
-15
-10
-16
-9
-15
2
-2
-16
-14
-12
-18
-8
-4
-5
2
13
7
-28
-35
-25
-21
-26
-16
-10
-10
-7
-18
-27
-14
-11
-11
-14
-10
-15
-14
-3
-1
-4
-11
-18
-16
-19
-18
-19
-22
-20
-19
-12
-10
-6
-5
-3
-3
-20
-21
-10
-19
-20
-16
-22
-10
-11
-9
-9
-14
-22
-37
-30
-22
-22
-13
-2
-11
-2
-18
-22
-23
-29
-18
-20
-23
-28
-22
-21
-14
-12
-21
-16
-7
8
-3
-5
-24
-29
-22
-26
-26
-20
-19
-12
-13
-17
-10
-6
-12
-6
4
13
-6
-14
-11
-3
-3
-1
-12
-16
-6
5
3
-8
-8
-13
-20
-25
-20
-26
-22
-21
-17
-16
-22
-29
-15
-23
-20
-20
-31
-28
-26
-19
-21
-19
-20
-30
-25
-18
-8
-10
-13
-15
-24
-27
-21
-25
-25
-23
-18
-26
-25
-17
-30
-33
-38
-27
-27
-28
-19
-29
-15
4
15
48
74
92
115
127
129
135
118
111
134
150
153
156
142
129
92
62
29
-15
-53
-58
-43
-41
-20
-13
-16
-12
-11
-8
-14
-14
-3
-12
-2
10
3
-14
-11
-19
-16
-7
-15
-13
-2
-2
9
4
8
-3
-11
-11
-17
-11
-6
-8
-6
0
4
2
-8
-4
-3
-11
-2
4
-12
-5
-2
-1
3
-1
-1
-3
2
-7
1
-4
-1
0
0
8
8
16
25
14
19
6
1
-3
-1
11
16
15
7
18
13
21
15
18
27
32
32
27
30
33
30
35
36
47
44
44
58
63
51
49
45
37
47
63
51
45
47
38
48
59
62
58
56
55
55
62
55
54
53
40
41
46
46
46
45
37
32
43
45
42
32
28
28
28
15
20
8
9
8
11
31
19
0
-2
6
5
2
-2
-6
-5
0
1
-2
-1
3
-3
-19
-13
-8
-9
-12
-6
-3
-1
-14
-23
-12
-13
-32
-45
-31
-25
-15
-14
-11
-2
0
-13
-20
-26
-24
-25
-14
-10
-20
-19
-25
-27
-27
-24
-13
-11
-20
-16
-17
-27
-22
-19
-26
-14
-22
-20
-19
0
1
0
0
-7
-5
-4
-3
-8
-1
5
4
5
2
6
5
-18
-24
-18
-21
-8
0
6
-1
-18
-17
-24
-11
-15
-24
-11
-20
-22
-17
-18
-25
-33
-32
-28
-16
-5
-25
-27
-13
-16
-10
-12
-13
-17
-22
-20
-17
-13
-19
-24
-17
-20
-19
-22
-19
-24
-21
-14
-8
-9
-6
-5
2
-6
-20
-24
-30
-22
-10
-7
-8
-20
-22
-10
-13
-17
-25
-20
-7
-15
-24
-18
-5
-14
-14
-18
-15
-4
-4
-14
-24
-35
-29
-18
-17
-3
-8
-19
-13
-15
-24
-28
-14
-8
-15
-26
-34
-30
-25
-27
-21
-23
-21
-18
-17
-17
-24
-22
-32
-33
-23
-17
-9
-15
-4
-15
-27
-23
-30
-30
-30
-34
-27
-22
-17
-8
-26
-29
-32
-35
-38
-45
-47
-42
-31
-25
-13
6
33
46
63
79
83
91
107
118
117
111
114
139
139
143
131
114
90
47
16
-14
-50
-60
-49
-44
-34
-15
-10
-15
-14
-5
-3
-9
-8
1
-8
-15
-28
-29
-3
-2
-11
-13
0
2
2
-7
-5
4
-8
-9
2
5
-11
-10
-18
-18
-25
-17
-18
-28
-19
-17
-12
-8
-4
-6
6
1
-5
-3
5
3
11
1
4
12
8
8
0
-3
8
7
4
-4
-8
-3
5
21
22
25
21
18
18
19
25
23
20
14
20
20
12
16
22
24
28
34
29
32
33
39
60
52
51
55
51
56
36
40
48
45
52
61
67
73
57
57
53
57
64
43
44
52
55
54
56
67
57
50
52
59
52
48
38
34
32
36
34
44
42
38
42
37
29
19
-1
-3
0
6
-2
-3
-3
2
3
0
-1
-4
-17
-29
-22
-21
-8
-3
-9
-7
-5
-3
-8
-7
-10
-4
-12
-18
-14
-20
-6
-6
-18
-22
-21
-27
-11
-16
-7
-11
-27
-21
-23
-28
-14
-21
-23
-18
-23
-23
-17
-27
-20
-4
5
-6
-17
-13
7
4
7
4
1
1
6
8
-25
-26
-24
-18
-13
4
-5
-8
-18
-20
-18
-9
-7
-7
-8
-6
-5
-9
-12
-9
-16
-9
-3
-5
-9
-15
-22
-14
-13
-19
-15
-14
-15
-9
-9
-2
-13
-13
-6
-11
-11
-18
-27
-22
-14
-11
-13
-16
2
-1
-12
-12
-16
-19
-21
-23
-21
-12
-12
-7
-10
-20
-6
-8
-17
-36
-21
-10
-6
-4
-10
-25
-20
-13
-21
-15
-24
-22
-26
-26
-21
-21
-15
-17
-17
-26
-26
-19
-13
-22
-30
-29
-25
-23
-19
-4
-1
-5
-8
-6
-4
-11
-10
-9
-1
14
10
9
-3
9
3
-6
-21
-19
-15
-4
-7
-19
-31
-16
-17
-14
-8
-9
-12
-23
-38
-24
-17
-7
-23
-31
-35
-27
-21
-27
-30
-33
-35
-32
-25
-26
-16
-8
-15
-26
-26
-24
-25
-29
-23
-14
-15
-15
-19
-20
-26
-38
-39
-34
-33
-26
-22
-10
12
31
38
47
78
100
103
109
113
127
126
106
128
146
145
160
147
126
100
77
53
9
-28
-46
-55
-46
-29
-11
-16
-13
-13
-4
-5
-6
-13
-7
-12
-3
-10
-5
-6
-10
-5
-4
-13
-8
-1
-8
-10
-3
3
-5
-10
-10
3
-4
-1
-5
-12
-11
-1
6
-4
-3
-8
4
1
10
12
9
16
-5
-18
-16
-6
2
5
-10
-8
-2
-1
12
10
11
-12
-2
-3
-6
1
2
12
1
12
27
23
21
20
15
15
12
20
25
36
29
24
27
32
39
42
46
47
45
43
41
42
51
60
56
57
60
58
51
46
50
45
44
37
21
28
48
49
58
58
46
50
55
62
62
51
43
41
42
44
61
67
41
34
35
38
47
36
27
22
25
20
7
16
11
17
20
17
26
11
3
-3
5
9
5
3
4
2
-12
-9
-14
-22
-27
-27
-35
-30
-19
-17
-10
-9
-6
-5
5
1
-22
-21
-25
-28
-21
-11
-20
-28
-27
-22
-21
-17
-16
-30
-27
5
8
-5
-4
-3
-4
-11
-15
-11
-11
-7
0
2
3
-1
9
10
10
11
-10
-26
-14
-1
3
-3
-3
0
3
1
4
-4
-7
-11
-30
-39
-32
-11
-6
-5
5
4
2
-6
-7
-18
-26
-23
1
-4
-5
-6
-6
-23
-18
-19
-14
-17
-11
-6
-9
-14
-16
-16
-7
-8
-8
-15
-15
-5
4
-8
-16
-13
-13
-17
-15
-14
-3
-6
-8
6
8
-13
-30
-20
-8
-17
-19
-18
-13
-14
-20
-12
-10
-7
-16
-21
-22
-19
-18
-21
-17
-17
-16
-16
-15
-14
-20
-16
-29
-16
-21
-14
-13
-19
-17
-12
-8
-7
-6
-14
-23
-26
-34
-26
-15
-11
-16
-12
-9
-13
-24
-18
-12
-13
-5
-4
1
-20
-20
-10
-9
-11
-15
-11
-11
-3
-3
-5
-7
-20
-28
-30
-31
-25
-18
-15
-26
-24
-19
-14
-6
-6
-10
-23
-42
-26
-18
-6
-18
-16
-23
-15
-12
-27
-19
-17
-17
-13
-12
-1
-7
5
-5
-2
-14
-23
-20
-20
-16
-16
-16
-16
-12
-8
-1
4
12
14
-10
-6
-21
-12
-14
-25
-22
-16
-12
2
2
-4
-4
-13
-20
-13
-17
-6
-9
-3
-4
3
-12
-15
-6
-18
-8
-1
-4
-13
-12
-15
-14
-11
-12
-15
-11
2
4
-11
-15
-19
-24
-18
-21
-17
-17
-17
-17
-21
-5
-7
-6
-7
0
0
-17
-24
-15
-16
-15
-14
-9
-27
-18
-21
-39
-41
-21
-40
-49
-39
-8
6
21
51
78
99
109
107
109
123
132
123
138
156
177
175
159
149
121
99
77
46
2
-28
-28
-28
-14
2
10
12
5
-1
2
8
10
3
-13
-14
-1
-4
-10
-15
-7
-4
5
29
19
12
14
-5
-14
-18
-16
-14
-14
-2
-9
-4
-10
-10
-10
-17
-3
7
7
3
-6
-1
9
5
6
1
8
1
7
-1
-5
2
21
18
5
7
10
12
18
11
15
17
12
13
17
16
18
24
19
22
31
33
34
34
22
24
35
42
43
31
26
21
31
32
37
38
28
17
17
26
31
39
40
45
58
55
49
49
54
65
60
54
55
53
64
63
57
56
53
63
63
69
68
57
58
68
46
37
43
51
53
57
53
48
44
43
26
26
37
33
38
26
22
25
15
6
4
7
4
13
20
12
-7
-12
0
1
-9
-5
-7
-6
-6
-9
-17
-11
-14
-5
-19
-10
9
4
-18
-14
0
-10
-8
-4
2
2
10
3
-7
2
-6
-4
2
-12
-14
-9
4
-3
4
-2
7
7
-6
-1
-6
-13
-5
-1
-10
-7
1
0
7
5
10
8
-5
-4
-8
-9
-24
-16
-7
-12
-5
-6
1
0
-15
-9
5
1
-10
-2
-7
-1
7
3
-4
-6
-6
-4
9
3
-10
-14
-19
-11
-2
-1
12
10
8
1
-9
-3
0
-4
-8
11
12
-11
-30
-36
-35
-25
-7
2
-3
-11
-2
-1
-12
-14
-15
-12
-11
-6
-13
2
-20
-24
-19
-11
-14
-13
-14
-16
-5
-16
-18
-6
-4
-23
-22
-24
-25
-19
-16
-6
-8
-8
-10
-6
-10
-17
-20
-10
-3
-5
0
1
0
-18
-22
-12
-13
-12
-5
-6
-15
-27
-29
-23
-17
-18
-20
-16
-16
-14
-3
2
-5
-12
-18
-17
-19
-17
-21
-24
-17
-21
-26
-22
-10
-10
-16
-23
-26
-15
-14
-17
-22
-24
-25
-1
-13
-22
-26
-23
-12
-11
-12
-5
-10
-13
-5
-5
-12
-14
-1
-1
-10
-9
-22
-17
-16
-3
-6
-8
-20
-14
-26
-15
-10
-6
-6
-21
-23
-33
-35
-28
-14
-12
-16
-19
-27
-17
-17
-9
-13
-8
-5
-16
-19
-8
-11
-16
-4
-11
-9
-8
-7
1
-5
3
1
-11
-3
-1
0
-2
-2
2
-3
-4
0
-4
-5
-2
-5
-9
-8
9
0
-18
-27
-27
-19
-4
-8
-3
-7
-12
-28
-35
-39
-34
-31
-26
-19
-24
-24
-16
-15
-7
-12
-18
-9
-15
-23
-22
-27
-28
-34
-28
-32
-35
-27
-27
-25
-10
12
24
39
63
85
106
114
116
127
135
134
131
148
174
180
173
155
137
106
85
50
25
-42
-67
-52
-39
-22
-2
10
7
15
21
12
8
-2
-22
-27
-20
-13
-12
-10
-5
-13
-4
-4
-13
-15
-12
9
4
7
0
5
11
0
-8
-8
-1
3
9
4
6
4
14
1
2
3
9
-4
3
5
6
12
13
13
9
18
21
5
10
19
11
13
24
28
4
4
14
13
20
21
17
23
26
16
19
23
9
6
19
23
27
27
32
27
31
34
37
31
27
31
33
36
36
49
48
48
51
51
52
58
52
53
52
59
56
65
55
53
61
73
74
71
76
75
58
58
68
69
67
69
69
71
73
60
46
55
49
48
34
38
37
25
27
27
21
24
33
28
22
7
-1
15
23
21
20
9
5
5
0
5
18
12
4
-10
-11
-6
-8
-8
-9
-7
-3
14
15
3
7
0
-9
-1
-1
-5
-3
-5
0
0
-8
-3
5
1
12
15
29
15
-2
-11
-15
-13
-6
-20
-7
-1
-5
-2
-2
-18
-21
-9
-14
-5
-3
-4
3
10
10
2
-10
-9
2
3
-3
-3
10
7
8
6
8
0
-7
4
10
2
16
17
15
14
-5
-3
-15
-12
-9
-7
-5
7
12
18
17
11
11
-11
-12
-9
-12
-11
-4
-11
-15
-11
-17
-22
-5
-7
-3
-7
-12
-16
-19
-23
-21
-18
0
5
7
-6
-8
-7
-7
-9
-20
-17
-21
1
5
-14
-8
-9
-10
1
-4
-13
-12
-7
-5
-4
4
10
12
24
4
-15
-9
-25
-27
-42
-29
-12
-1
-7
-28
-34
-15
-28
-23
-16
-25
-17
-18
-8
-10
-13
-8
-3
-4
-10
-11
-7
-9
-11
-20
-20
-21
-17
-14
-11
0
-17
-23
-25
-14
-12
-8
-14
-18
-18
-15
-3
-5
-4
-11
-14
-18
-13
6
9
2
8
25
18
-27
-42
-13
-17
-19
-20
-37
-35
-26
-39
-27
-20
-16
-12
-16
-9
-17
-13
-14
-3
-3
-6
-8
1
-3
-20
-19
-17
-12
-19
-14
-11
-15
-14
-10
-9
-3
-2
-4
7
3
0
6
-5
-3
-6
-6
5
13
6
0
6
-3
-8
-9
2
3
-6
-10
-19
-13
-11
0
-11
-49
-64
-51
-30
-31
-27
-27
-18
-16
-14
-12
-17
-17
-18
-16
-8
-15
-21
-24
-21
-17
-11
-18
-18
-27
-23
-29
-35
-42
-28
-13
-6
15
47
65
81
100
113
126
129
150
154
136
164
178
177
179
176
154
135
83
18
-24
-51
-53
-40
-23
-7
7
17
34
21
0
-3
3
-19
-33
-38
-31
-21
-14
-7
-6
-7
-2
3
-7
-5
-1
-4
-6
-6
-2
-3
-3
-3
-2
2
-1
4
3
-1
-5
1
3
8
13
11
10
14
18
23
5
-4
-2
-1
-4
10
6
8
3
-9
3
3
12
6
23
28
23
26
11
9
16
22
28
13
26
27
30
23
26
34
30
30
27
26
41
36
28
29
32
46
40
37
35
39
41
43
46
49
46
54
53
52
62
65
64
70
66
64
64
62
61
68
73
72
67
54
56
60
55
72
78
55
45
54
50
53
56
56
50
51
49
55
47
17
19
27
20
23
18
9
-2
-3
-7
0
3
3
-3
12
0
-4
-1
-6
-14
-3
-5
-3
-2
-3
-10
-8
-10
-12
-3
-6
-8
5
5
0
-9
-5
8
7
9
3
-9
-10
-10
-10
-23
-24
-9
-8
-2
1
2
1
1
-7
-8
8
0
12
23
10
0
-19
-11
-3
-7
-15
-9
-14
-4
0
-2
-7
-7
-5
-4
-5
2
-5
2
-7
-4
6
1
-7
-4
0
-3
-2
6
2
0
5
-1
-6
-10
-14
-13
-12
-7
-7
-5
-3
4
-2
1
-2
-8
-8
-1
-13
-12
-9
-5
-11
-20
-24
-10
6
12
10
-25
-18
1
-12
-28
-21
-10
-11
-13
-14
-19
-20
-19
-3
5
-3
-17
-25
-18
-18
-23
-17
-13
-11
2
2
-7
-4
3
-1
-14
-15
-13
-11
-7
-22
-24
-9
-3
7
-6
-14
-21
-22
-15
-18
-26
-28
-24
-14
-11
-11
-21
-14
-7
-3
-8
-8
-14
-8
-5
-10
-22
-18
-15
-13
-23
-17
-17
-19
-4
-1
-4
-14
-14
-24
-23
-16
-8
-16
-15
-2
-11
-4
-6
-7
-12
-9
-5
-2
4
20
13
-7
-15
-7
8
6
14
-2
-19
-15
-6
-9
-12
-12
-11
-18
-18
-24
-16
-6
8
-3
-9
-14
-14
-7
-5
-19
-15
-9
-19
-16
-8
-9
-14
-16
-17
-22
-25
-30
-31
-32
-35
-14
-21
-12
-5
-12
-22
-28
-27
-35
-35
-22
-22
-23
-32
-19
6
28
58
69
83
103
115
120
135
138
138
132
149
163
172
168
152
126
89
63
36
-10
-31
-21
-20
-21
0
21
11
-6
0
-6
-20
-16
-16
-15
-16
-16
-7
-5
-8
-15
-10
-1
3
2
0
-8
-16
-11
-8
-18
-23
3
9
9
3
7
19
13
7
2
1
9
11
5
2
-8
3
3
4
-4
0
4
2
0
4
17
22
18
14
18
9
7
15
9
19
24
1
8
-2
18
16
27
28
37
31
35
40
24
16
15
17
33
34
26
25
34
33
51
38
38
41
45
48
44
50
54
64
67
65
59
53
59
56
59
64
66
68
68
67
61
63
71
62
59
59
57
58
64
74
74
71
64
58
53
42
31
48
63
39
23
25
28
29
30
22
26
15
17
17
18
12
7
13
1
6
6
10
6
3
2
-10
-21
-18
-16
-13
-14
-7
-6
5
10
13
13
16
10
-17
-25
-21
-26
-14
-10
-16
-19
-6
-19
-8
-13
0
3
-10
-15
-9
-4
-12
-8
-3
-6
-16
-14
-8
-1
-8
0
2
-3
1
0
-5
-5
-7
-1
-4
-11
2
10
13
7
-4
-6
-5
-6
-11
0
1
0
1
4
-1
12
21
-1
-8
-9
-4
-9
-2
12
6
5
12
-1
-14
-15
-21
-21
-14
-16
-18
-17
2
-2
-18
-10
-7
-5
-4
5
1
-6
-15
-8
-3
-8
-14
-9
-7
-8
-11
-5
-1
-15
-14
-8
-5
2
4
-7
-22
-22
-19
-13
-9
2
-4
3
-8
-9
-3
1
3
-7
-6
-7
-6
1
-13
-22
-13
-13
-24
-18
-17
-24
-29
-17
-14
-20
-16
-11
-13
-16
-10
-3
-9
0
-10
-10
-13
-21
-6
2
-6
-13
-16
-10
-15
-16
-14
-10
-8
-4
7
3
4
13
11
15
4
1
-1
-5
-7
4
-1
5
10
4
-4
-4
-3
2
-1
-12
-8
-7
-12
-32
-24
-13
-22
-16
-11
-32
-19
-19
-10
-15
-17
-18
-25
-16
-6
-9
-16
-17
-17
-8
-19
-23
-21
-16
-17
-12
-16
-16
-14
-17
-19
-30
-30
-26
-22
-41
-43
-24
-4
11
32
46
73
104
122
139
140
153
171
157
148
170
167
171
174
170
148
114
66
37
8
-44
-56
-36
-29
-10
3
1
-12
3
6
-6
1
-5
1
0
4
-6
-10
-8
-13
7
1
9
8
4
-1
5
2
1
6
6
6
8
7
8
10
10
16
19
-12
-9
-5
6
1
4
17
20
25
26
30
25
0
15
7
-13
-10
-1
13
14
5
13
8
-7
4
10
28
28
18
20
17
27
22
34
31
27
30
33
25
26
34
41
28
41
51
50
43
46
47
41
40
53
49
49
57
66
72
71
72
65
67
68
66
81
88
94
82
58
55
74
82
69
63
52
48
49
61
57
69
64
73
69
59
53
40
47
40
47
45
47
43
33
36
33
30
30
32
38
42
28
-2
-2
2
13
10
20
14
9
20
15
9
3
4
-3
-8
-3
-8
-11
-7
-10
-14
-7
-7
-2
0
5
16
8
12
17
8
2
2
-4
-15
-17
-14
-13
-4
-3
-19
-19
-17
-21
-13
-11
-8
-3
5
15
9
3
-8
-3
-9
-2
5
10
11
0
1
-8
0
-1
-1
1
0
-1
5
13
-3
-1
3
3
6
15
5
4
-2
-6
-2
7
9
7
25
38
21
-13
-31
-23
-18
-18
-14
-5
-1
7
5
-12
-9
-4
-4
-17
-16
-6
-4
3
-7
-12
-16
-10
-3
-11
-16
-23
-16
-17
-7
-9
-12
-5
-8
-8
-5
0
-5
-11
-15
-15
-11
-7
-16
-15
-13
-16
-17
-7
2
-10
-7
11
-2
-7
4
5
5
-16
-19
