-71
-68
-61
-37
-31
-26
-35
-34
-41
-51
-69
-84
-60
-45
-47
-32
-21
-32
-48
-47
-71
-77
-68
-54
-36
-18
-34
-42
-38
-58
-74
-76
-54
-37
-41
-24
-26
-38
-41
-56
-82
-66
-69
-43
-32
-24
-28
-37
-50
-66
-67
-63
-59
-33
-32
-22
-44
-45
-55
-70
-75
-63
-65
-56
-44
-17
-24
-43
-57
-65
-58
-69
-77
-41
-30
-22
-31
-45
-51
-54
-65
-87
-55
-41
-41
-28
-30
-41
-61
-72
-61
-73
-65
-49
-25
-22
-37
-48
-52
-75
-75
-70
-55
-63
-37
-35
-45
-49
-64
-73
-64
-77
-59
-41
-27
-25
-52
-50
-51
-77
-82
-69
-52
-53
-14
-37
-44
-58
-55
-79
-77
-66
-51
-43
-29
-34
-38
-59
-48
-81
-81
-63
-59
-56
-43
-33
-38
-37
-59
-83
-76
-64
-61
-48
-23
-26
-38
-55
-73
-74
-70
-65
-55
-39
-16
-26
-47
-57
-58
-67
-77
-65
-46
-36
-37
-32
-32
-56
-68
-70
-73
-59
-48
-41
-31
-42
-40
-50
-54
-78
-76
-69
-59
-39
-35
-41
-43
-58
-64
-67
-70
-63
-43
-28
-25
-43
-46
-53
-62
-69
-72
-52
-42
-28
-23
-34
-46
-62
-76
-78
-76
-58
-30
-34
-38
-27
-38
-55
-74
-67
-66
-64
-48
-35
-32
-33
-33
-56
-68
-63
-75
-56
-53
-37
-24
-42
-48
-64
-64
-70
-74
-62
-49
-18
-25
-33
-33
-60
-79
-74
-73
-61
-49
-22
-27
-33
-42
-53
-75
-72
-71
-56
-54
-30
-27
-35
-42
-54
-80
-85
-72
-46
-38
-19
-17
-41
-62
-62
-75
-77
-67
-51
-50
-33
-37
-31
-50
-53
-71
-69
-65
-51
-43
-23
-26
-41
-57
-53
-86
-74
-50
-34
-30
-19
-19
-23
-37
-46
-68
-66
-51
-33
-42
-12
-13
-21
-34
-54
-62
-65
-61
-47
-37
-28
-15
-37
-60
-66
-73
-85
-59
-45
-44
-25
-34
-48
-57
-66
-69
-77
-64
-51
-47
-19
-33
-51
-59
-78
-74
-73
-65
-56
-34
-26
-36
-35
-44
-80
-70
-68
-65
-57
-19
-23
-45
-48
-53
-77
-78
-68
-44
-29
-4
1
11
17
23
5
11
-1
2
1
0
-9
-29
-49
-59
-99
-102
-102
-92
-91
-78
-77
-77
-76
-85
-102
-102
-82
-56
-60
-32
-41
-44
-45
-69
-84
-76
-75
-58
-59
-37
-28
-36
-50
-59
-73
-74
-73
-41
-36
-36
-23
-27
-41
-53
-70
-71
-74
-61
-40
-24
-31
-32
-49
-44
-69
-88
-54
-47
-44
-20
-15
-29
-43
-54
-70
-74
-56
-37
-41
-24
-19
-23
-39
-56
-64
-65
-46
-35
-32
-24
-17
-26
-32
-37
-58
-49
-40
-40
-17
2
5
-9
-38
-39
-44
-41
-19
-18
9
13
19
12
-9
-26
-28
7
4
3
25
35
38
31
28
8
5
15
12
31
53
61
52
45
41
30
12
14
25
42
63
60
51
41
32
2
-9
5
9
24
37
30
25
8
2
-29
-13
-19
-13
-1
4
-7
-19
-21
-16
-44
-41
-37
-32
-28
-13
-5
-11
-21
-34
-47
-50
-57
-32
-30
-18
-29
-14
-42
-41
-68
-61
-49
-34
-41
-13
-2
-28
-32
-32
-61
-64
-59
-37
-38
-4
-8
-21
-33
-43
-59
-58
-56
-44
-36
-2
-15
-34
-32
-41
-54
-71
-44
-51
-26
-9
-11
-25
-37
-50
-70
-68
-63
-32
-18
-11
-16
-24
-41
-50
-55
-48
-53
-41
-21
-23
-23
-33
-61
-37
-57
-54
-49
-33
-26
-20
-12
-33
-48
-52
-66
-72
-43
-37
-37
-21
-22
-33
-47
-49
-58
-64
-48
-37
-45
-17
-10
-29
-54
-75
-68
-67
-53
-43
-22
-28
-31
-43
-39
-53
-60
-63
-43
-33
-29
-21
-26
-42
-59
-80
-67
-72
-55
-48
-19
-8
-33
-51
-46
-78
-73
-52
-51
-41
-28
-26
-19
-57
-65
-69
-73
-66
-52
-33
-20
-21
-42
-49
-66
-69
-67
-69
-64
-45
-30
-27
-24
-40
-51
-61
-82
-50
-59
-46
-27
-22
-45
-44
-54
-71
-79
-60
-45
-50
-23
-19
-38
-47
-59
-76
-79
-60
-37
-35
-31
-14
-30
-55
-60
-79
-63
-56
-54
-54
-19
-21
-34
-51
-64
-79
-60
-51
-54
-41
-25
-31
-25
-38
-68
-72
-76
-55
-49
-33
-25
-22
-49
-62
-54
-70
-71
-80
-51
-51
-30
-22
-35
-51
-55
-77
-75
-57
-46
-27
-22
-24
-51
-51
-60
-72
-78
-61
-40
-26
-20
-35
-40
-60
-67
-62
-65
-70
-48
-28
-14
-32
-43
-53
-71
-69
-64
-55
-44
-35
-24
-28
-43
-42
-87
-76
-63
-58
-42
-25
-33
-46
-48
-52
-78
-68
-65
-54
-47
-24
-14
-24
-42
-65
-68
-69
-69
-48
-39
-29
-30
-42
-38
-51
-76
-71
-70
-62
-49
-25
-19
-21
-42
-37
-80
-86
-67
-37
-37
-16
-14
-19
-46
-52
-66
-62
-53
-33
-25
-17
-21
-8
-25
-46
-67
-59
-50
-51
-41
-5
-11
-38
-47
-46
-63
-67
-65
-43
-53
-30
-25
-34
-51
-48
-74
-72
-62
-47
-35
-27
-29
-31
-38
-56
-68
-101
-73
-47
-45
-25
-28
-32
-59
-60
-70
-82
-51
-46
-37
-29
-36
-56
-50
-62
-73
-72
-58
-45
-47
-27
-25
-42
-45
-43
-38
-24
-9
15
42
57
53
39
9
-12
-37
-62
-59
-50
-45
-61
-72
-75
-105
-118
-118
-105
-93
-79
-69
-66
-44
-51
-56
-75
-90
-78
-63
-53
-34
-32
-41
-57
-51
-76
-73
-76
-49
-58
-37
-37
-44
-40
-53
-76
-74
-66
-62
-53
-24
-19
-15
-34
-68
-68
-49
-71
-63
-48
-36
-33
-36
-58
-51
-70
-65
-66
-47
-36
-30
-20
-30
-46
-57
-73
-59
-51
-43
-47
-24
-24
-27
-35
-38
-59
-61
-59
-36
-27
-17
-19
-19
-34
-42
-49
-45
-49
-22
-14
2
-17
-3
-13
-34
-47
-44
-23
-8
-11
16
20
2
3
1
6
8
7
24
26
54
62
37
22
16
13
10
28
39
38
58
63
47
27
18
10
9
14
23
25
35
35
42
16
-4
-27
-8
1
3
20
18
-1
-15
-18
-35
-56
-48
-32
-14
-8
-7
-11
-14
-28
-50
-59
-53
-41
-35
-29
-12
-19
-50
-54
-54
-52
-53
-59
-41
-26
-6
-21
-36
-57
-64
-61
-63
-56
-41
-13
-21
-15
-22
-55
-68
-74
-65
-69
-43
-22
-18
-27
-38
-43
-69
-72
-55
-46
-54
-20
-19
-22
-61
-48
-80
-70
-61
-46
-40
-23
-28
-27
-35
-52
-65
-71
-57
-49
-42
-23
-18
-37
-54
-44
-53
-75
-72
-37
-41
-27
-20
-41
-42
-37
-63
-78
-65
-51
-42
-27
-28
-19
-54
-50
-60
-79
-55
-52
-54
-34
-26
-34
-53
-67
-92
-68
-65
-50
-42
-25
-35
-40
-53
-54
-67
-85
-61
-54
-46
-16
-34
-50
-51
-72
-60
-65
-57
-45
-49
-32
-15
-37
-44
-72
-79
-70
-66
-50
-26
-29
-13
-52
-50
-63
-64
-71
-60
-57
-40
-28
-31
-39
-45
-76
-75
-69
-67
-39
-32
-29
-32
-42
-46
-64
-78
-65
-53
-48
-26
-21
-29
-29
-46
-68
-66
-61
-59
-46
-14
-25
-28
-20
-62
-69
-69
-52
-56
-41
-19
-7
-22
-41
-53
-79
-66
-50
-52
-57
-23
-25
-33
-48
-43
-64
-72
-56
-50
-48
-14
-19
-32
-38
-46
-62
-69
-56
-43
-46
-29
-22
-24
-47
-44
-61
-63
-62
-45
-39
-21
1
-35
-47
-56
-74
-66
-49
-31
-32
-12
-25
-41
-48
-52
-64
-68
-60
-50
-45
-26
-23
-27
-52
-47
-69
-56
-55
-38
-30
-19
-20
-23
-48
-52
-68
-67
-63
-46
-32
-18
-14
-19
-36
-60
-78
-60
-65
-39
-21
-22
-16
-29
-50
-61
-73
-56
-46
-39
-27
-8
-19
-22
-40
-51
-58
-39
-39
-38
-18
-15
-11
-23
-35
-51
-56
-49
-32
-38
-36
-17
-16
-31
-43
-61
-59
-52
-49
-43
-28
-30
-45
-39
-49
-58
-76
-51
-57
-48
-18
-35
-30
-44
-54
-76
-69
-59
-38
-38
-28
-20
-21
-50
-57
-71
-70
-71
-54
-48
-38
-26
-26
-48
-53
-74
-61
-65
-44
-52
-28
-25
-15
-13
-18
-30
-15
-3
17
40
59
40
33
-14
-20
-61
-61
-74
-55
-77
-56
-54
-78
-106
-93
-115
-102
-109
-88
-71
-42
-39
-41
-59
-73
-81
-75
-68
-61
-51
-19
-22
-41
-55
-59
-72
-76
-69
-45
-36
-55
-30
-8
-55
-70
-80
-72
-54
-54
-47
-21
-16
-36
-44
-56
-60
-76
-71
-50
-43
-24
-16
-30
-47
-49
-70
-63
-55
-47
-28
-13
-17
-32
-40
-63
-75
-60
-49
-39
-28
-15
-25
-31
-38
-44
-60
-62
-50
-35
-9
4
-18
-32
-23
-31
-62
-42
-18
-8
1
-6
-3
-13
-11
-21
-32
-28
-10
-3
33
32
28
12
24
0
-10
4
33
33
43
54
48
34
30
-5
20
20
33
48
62
54
54
26
17
12
8
22
29
12
39
32
25
7
10
-21
-22
-14
-13
-8
14
0
-2
-7
-24
-52
-53
-52
-40
-20
-2
-9
-15
-25
-40
-58
-61
-51
-41
-41
-2
-22
-26
-41
-42
-61
-57
-59
-47
-26
-14
-18
-31
-40
-57
-56
-71
-74
-46
-23
-18
-24
-37
-40
-52
-66
-68
-55
-40
-37
-24
-28
-27
-58
-50
-63
-76
-51
-46
-29
-25
-24
-36
-49
-60
-68
-56
-42
-37
-26
-28
-37
-34
-47
-56
-59
-63
-53
-42
-22
-19
-22
-19
-46
-62
-71
-76
-51
-38
-41
-26
-24
-25
-50
-60
-66
-78
-45
-50
-35
-21
-37
-42
-49
-69
-77
-79
-52
-43
-24
-14
-34
-45
-58
-77
-62
-62
-62
-51
-29
-26
-36
-44
-57
-59
-69
-76
-50
-48
-31
-28
-39
-50
-52
-72
-69
-67
-68
-38
-37
-21
-43
-65
-57
-69
-82
-76
-46
-47
-29
-30
-34
-39
-62
-81
-75
-66
-60
-46
-35
-29
-32
-59
-71
-85
-74
-68
-55
-54
-32
-31
-39
-48
-59
-80
-78
-68
-49
-34
-57
-35
-27
-58
-67
-78
-72
-75
-54
-43
-28
-20
-43
-58
-67
-75
-73
-66
-59
-46
-23
-25
-42
-55
-77
-77
-83
-62
-41
-57
-27
-41
-39
-65
-76
-71
-75
-77
-57
-38
-29
-34
-47
-57
-60
-70
-78
-53
-55
-47
-36
-36
-38
-56
-81
-82
-83
-58
-46
-35
-29
-39
-45
-59
-76
-81
-81
-56
-44
-39
-32
-48
-38
-70
-76
-65
-79
-63
-50
-46
-27
-43
-52
-66
-85
-76
-71
-65
-42
-35
-52
-46
-66
-51
-70
-74
-61
-55
-54
-37
-32
-25
-40
-55
-75
-90
-83
-74
-49
-36
-37
-24
-41
-62
-70
-72
-68
-58
-64
-29
-30
-20
-52
-47
-75
-69
-67
-48
-37
-24
-23
-27
-47
-40
-69
-65
-54
-42
-45
-20
-21
-53
-44
-63
-70
-70
-61
-66
-56
-41
-56
-44
-44
-46
-72
-71
-77
-71
-59
-41
-38
-53
-59
-70
-84
-79
-72
-50
-53
-34
-49
-44
-60
-65
-78
-91
-68
-60
-47
-37
-34
-51
-73
-69
-85
-80
-62
-64
-49
-27
-28
-41
-54
-52
-67
-47
-17
-2
27
38
45
35
1
-20
-35
-57
-65
-56
-65
-55
-62
-78
-105
-125
-119
-115
-98
-94
-72
-60
-58
-70
-79
-96
-82
-77
-63
-83
-37
-43
-49
-60
-73
-91
-78
-63
-62
-64
-25
-16
-42
-70
-70
-102
-83
-76
-62
-58
-40
-31
-45
-55
-61
-80
-83
-79
-68
-51
-31
-28
-36
-48
-53
-72
-74
-77
-65
-56
-27
-27
-33
-56
-63
-71
-73
-63
-60
-39
-28
-27
-42
-37
-65
-67
-70
-61
-34
-34
-20
-22
-19
-43
-52
-57
-62
-63
-39
-30
-15
-4
-28
-18
-33
-56
-40
-25
-20
-16
12
10
-5
-4
-17
-22
-11
3
17
26
35
35
28
19
15
1
-2
19
26
33
52
56
43
24
12
1
5
15
26
32
46
32
-1
-5
-1
-24
-22
-12
-9
2
13
13
-11
-37
-41
-36
-47
-40
-26
-20
-11
-2
-34
-38
-74
-61
-53
-47
-44
-21
-17
-20
-34
-42
-49
-57
-61
-56
-35
-35
-33
-35
-40
-42
-72
-68
-60
-47
-31
-16
-26
-27
-42
-62
-70
-68
-65
-51
-46
-35
-29
-33
-30
-33
-59
-74
-77
-56
-45
-25
-15
-36
-45
-46
-72
-57
-58
-43
-30
-23
-28
-31
-43
-48
-58
-62
-61
-57
-37
-25
-30
-49
-59
-54
-73
-80
-81
-38
-33
-20
-18
-27
-41
-61
-65
-80
-90
-45
-43
-27
-23
-34
-45
-51
-67
-73
-60
-55
-41
-29
-35
-40
-54
-61
-75
-71
-70
-45
-33
-33
-22
-56
-63
-62
-75
-74
-60
-52
-39
-31
-31
-44
-59
-64
-69
-66
-66
-60
-45
-38
-32
-36
-54
-66
-84
-67
-61
-52
-48
-20
-30
-34
-58
-67
-86
-86
-65
-48
-31
-38
-35
-41
-64
-62
-82
-84
-63
-54
-30
-23
-31
-34
-61
-80
-79
-70
-63
-58
-45
-32
-33
-53
-53
-71
-80
-77
-62
-50
-28
-37
-34
-44
-35
-69
-83
-78
-65
-62
-41
-38
-30
-45
-48
-69
-80
-71
-65
-63
-24
-33
-40
-46
-60
-75
-82
-68
-61
-38
-30
-37
-46
-54
-55
-78
-90
-81
-55
-44
-25
-31
-37
-52
-58
-77
-81
-73
-61
-42
-28
-24
-37
-52
-55
-90
-79
-72
-62
-57
-27
-16
-31
-45
-64
-83
-78
-56
-47
-58
-39
-38
-35
-55
-60
-80
-70
-64
-52
-40
-42
-31
-38
-71
-63
-74
-77
-61
-56
-48
-31
-26
-44
-60
-65
-66
-56
-58
-73
-36
-28
-38
-50
-62
-59
-78
-77
-63
-45
-32
-23
-29
-25
-72
-88
-64
-74
-70
-56
-42
-30
-35
-41
-54
-68
-76
-74
-63
-38
-22
-40
-47
-46
-66
-67
-74
-80
-63
-63
-50
-34
-41
-48
-64
-66
-60
-62
-72
-68
-44
-17
-34
-43
-57
-70
-82
-67
-58
-49
-21
-33
-32
-36
-69
-86
-73
-63
-67
-51
-31
-33
-38
-52
-54
-69
-78
-71
-55
-48
-22
-21
-24
-59
-71
-87
-84
-84
-57
-50
-23
-27
-25
-45
-56
-86
-81
-56
-41
-72
-30
-38
-40
-62
-57
-63
-69
-60
-46
-35
-32
-20
-33
-54
-50
-68
-64
-61
-55
-43
-16
-20
-36
-37
-41
-66
-81
-58
-33
-29
-25
-14
-24
-41
-60
-71
-64
-54
-47
-41
-25
-22
-33
-53
-69
-75
-77
-63
-57
-39
-35
-35
-42
-61
-62
-72
-87
-64
-54
-48
-39
-38
-43
-58
-73
-74
-68
-62
-59
-39
-35
-35
-43
-54
-65
-65
-68
-55
-76
-38
-38
-30
-43
-53
-70
-76
-75
-66
-43
-16
-7
11
13
-10
-21
-8
3
23
26
29
18
7
-40
-47
-67
-99
-90
-94
-90
-71
-73
-71
-81
-88
-111
-99
-105
-73
-65
-44
-45
-47
-48
-60
-89
-85
-70
-57
-50
-31
-28
-36
-36
-60
-84
-76
-75
-58
-50
-34
-24
-41
-63
-59
-60
-59
-85
-51
-46
-35
-30
-39
-51
-54
-68
-71
-64
-60
-45
-30
-25
-43
-48
-47
-76
-73
-59
-47
-45
-28
-25
-35
-46
-55
-63
-59
-48
-50
-24
-29
-17
-30
-36
-43
-67
-61
-49
-39
-22
-14
-4
-10
-42
-36
-50
-55
-46
-22
-17
7
-7
-4
-17
-36
-28
-27
-15
4
-1
24
29
23
7
-1
-4
-6
11
26
32
48
51
49
22
16
14
22
27
22
45
59
50
39
17
18
14
8
20
19
22
36
15
6
-3
-24
-25
-26
-9
-7
9
11
4
-18
-27
-41
-56
-57
-38
-33
-8
-20
-33
-33
-47
-50
-55
-43
-25
-30
-17
-23
-30
-37
-37
-70
-67
-55
-42
-31
-14
-9
-37
-50
-52
-63
-61
-52
-43
-45
-30
-17
-30
-34
-55
-69
-74
-54
-42
-35
-20
-37
-37
-42
-48
-72
-61
-50
-45
-42
-18
-18
-29
-43
-52
-73
-76
-64
-53
-45
-17
-14
-29
-32
-39
-54
-76
-69
-44
-34
-27
-24
-44
-39
-47
-71
-81
-59
-41
-32
-25
-21
-42
-54
-41
-84
-82
-62
-36
-42
-10
-26
-31
-44
-55
-73
-75
-51
-35
-36
-33
-23
-25
-45
-60
-73
-68
-63
-43
-43
-32
-25
-39
-48
-67
-76
-66
-49
-47
-26
-32
-31
-33
-49
-72
-70
-64
-55
-44
-31
-23
-22
-36
-45
-81
-82
-56
-44
-44
-25
-17
-35
-50
-47
-61
-51
-57
-51
-58
-37
-27
-26
-41
-44
-63
-59
-66
-71
-39
-15
-24
-29
-40
-42
-72
-65
-65
-51
-33
-25
-24
-15
-34
-41
-63
-77
-67
-50
-44
-19
-29
-31
-45
-34
-73
-71
-52
-43
-34
-6
-34
-22
-34
-39
-66
-60
-51
-35
-30
-14
-17
-19
-30
-42
-64
-45
-42
-32
-32
-5
-10
-19
-31
-35
-60
-51
-50
-38
-27
-1
-5
-23
-39
-43
-55
-59
-40
-21
-23
-5
-6
-28
-22
-48
-61
-51
-28
-24
-24
-21
-2
-20
-27
-35
-60
-60
-49
-29
-23
-4
-12
-17
-27
-33
-54
-60
-40
-21
-25
-4
-8
-20
-38
-41
-51
-50
-36
-26
-26
-8
-9
-12
-23
-47
-54
-53
-41
-21
-4
0
-31
-2
-32
-64
-61
-44
-40
-27
-17
-4
-17
-37
-42
-57
-58
-51
-32
-29
-13
-16
-21
-29
-38
-62
-58
-41
-45
-28
-6
-11
-19
-28
-34
-54
-57
-57
-39
-29
-9
-4
-4
-14
-35
-39
-49
-42
-26
-18
-4
-16
-20
-25
-20
-43
-43
-65
-38
-16
-25
-40
-24
-21
-54
-63
-59
-54
-46
-40
-15
-1
-12
-47
-50
-66
-53
-56
-36
-24
-14
-24
-26
-30
-41
-67
-66
-51
-45
-25
-3
-13
-23
-56
-46
-31
-44
-24
13
-2
52
66
45
46
21
2
-25
-36
-31
-22
-24
-31
-55
-74
-86
-113
-100
-81
-80
-63
-39
-48
-66
-61
-60
-65
-64
-66
-41
-38
-13
-28
-35
-49
-48
-66
-49
-46
-47
-38
-20
-20
-25
-44
-46
-67
-64
-55
-45
-21
-5
-15
-29
-44
-61
-53
-67
-49
-33
-6
-13
-26
-45
-41
-58
-56
-58
-52
-44
-21
-34
-19
-33
-34
-50
-48
-43
-42
-37
-11
-3
-19
-33
-32
-41
-63
-42
-33
-26
-8
-9
-19
-22
-26
-49
-45
-35
-22
-10
6
9
-6
-3
-6
-39
-21
-37
-18
-6
15
27
32
15
-1
-8
-20
0
6
40
61
50
47
38
35
-2
12
26
36
41
60
83
63
46
39
17
17
19
31
33
67
56
48
17
16
-1
-5
3
-2
2
22
27
13
7
-14
-27
-36
-18
-13
-18
0
3
-10
-32
-34
-49
-48
-41
-22
-24
-7
-8
-12
-44
-55
-43
-46
-36
-38
-28
-8
-8
-21
-39
-48
-55
-56
-45
-42
-19
-18
-20
-27
-44
-57
-63
-49
-37
-27
-18
-10
-21
-39
-42
-52
-66
-52
-38
-36
-18
-15
-26
-44
-37
-61
-66
-51
-43
-35
-4
0
-17
-26
-47
-62
-59
-47
-37
-26
-15
-29
-18
-40
-43
-48
-57
-56
-43
-20
-9
-20
-15
-23
-39
-68
-55
-57
-36
-23
-24
-17
-25
-36
-45
-57
-54
-53
-43
-31
-19
-22
-28
-35
-43
-61
-69
-48
-46
-36
-13
-17
-19
-36
-44
-64
-62
-54
-44
-32
-15
-10
-22
-45
-52
-67
-51
-53
-56
-42
-4
-17
-39
-48
-40
-57
-61
-52
-38
-36
-18
-19
-19
-41
-49
-67
-62
-53
-48
-39
-20
-25
-30
-38
-48
-65
-65
-64
-54
-25
-20
-20
-36
-33
-46
-69
-57
-48
-46
-31
-21
-17
-51
-43
-50
-62
-70
-59
-44
-50
-19
-18
-28
-36
-49
-77
-65
-47
-22
-24
-27
-37
-34
-39
-67
-68
-59
-50
-35
-28
-27
-23
-25
-45
-53
-68
-58
-57
-51
-30
-24
-23
-24
-47
-65
-59
-60
-46
-41
-24
-20
-21
-36
-50
-60
-69
-68
-51
-48
-21
-21
-26
-37
-45
-59
-69
-54
-44
-41
-20
-15
-26
-38
-44
-62
-64
-56
-51
-44
-40
-20
-10
-32
-40
-54
-52
-54
-48
-34
-10
-26
-44
-36
-47
-61
-67
-47
-46
-49
-23
-20
-19
-43
-44
-64
-65
-54
-39
-38
-21
-19
-29
-44
-51
-59
-59
-56
-42
-29
-16
-29
-38
-38
-51
-61
-71
-44
-30
-33
-23
-11
-20
-51
-56
-64
-61
-49
-42
-35
-15
-22
-37
-42
-68
-70
-63
-46
-31
-26
-20
-16
-31
-49
-69
-80
-62
-37
-34
-24
-17
-24
-41
-57
-58
-59
-58
-53
-43
-32
-11
-17
-44
-37
-50
-74
-60
-53
-39
-21
-13
-3
-20
-74
-70
-63
-62
-52
-38
-30
-26
-25
-28
-33
-59
-76
-66
-52
-36
-20
-21
-17
-22
-37
-53
-56
-54
-40
-27
-17
-11
-28
-36
-28
-56
-75
-59
-45
-39
-15
-18
-24
-36
-52
-68
-54
-50
-44
-32
-11
-18
-22
-38
-36
-66
-83
-68
-43
-37
-14
-15
-19
-51
-45
-68
-68
-49
-48
-36
-14
-24
-31
-30
-41
-51
-41
-15
-10
11
59
65
54
40
23
-23
-29
-27
-31
-28
-25
-31
-60
-66
-85
-116
-108
-99
-72
-58
-44
-46
-49
-51
-63
-68
-68
-65
-43
-35
-57
-24
-34
-42
-52
-67
-53
-53
-55
-42
-28
-9
-26
-46
-53
-76
-53
-50
-35
-22
-27
-25
-28
-47
-47
-54
-48
-34
-45
-29
-18
-20
-39
-49
-60
-73
-70
-42
-28
-10
-22
-19
-31
-34
-55
-55
-56
-40
-35
-22
-29
-22
-20
-32
-49
-54
-57
-39
-35
-11
3
-4
-20
-31
-58
-24
-40
-37
-17
-8
-1
-3
-13
-13
-40
-43
-32
-14
-1
15
20
11
2
14
-11
-10
-4
17
30
41
41
34
30
32
2
7
20
40
39
56
64
61
45
34
14
17
30
29
40
54
69
49
15
15
2
-10
7
23
16
27
32
17
0
-18
-23
-32
-22
-12
-7
5
1
3
-25
-24
-50
-43
-34
-39
-25
3
-1
-14
-33
-35
-54
-60
-42
-29
-15
-6
-14
-28
-37
-41
-53
-45
-49
-35
-20
-4
-9
-22
-43
-43
-60
-53
-45
-32
-24
-6
-12
-27
-32
-43
-46
-49
-32
-53
-29
-11
-7
-25
-38
-49
-58
-55
-46
-29
-13
-5
-16
-35
-41
-52
-59
-56
-44
-35
-20
-16
-20
-29
-35
-53
-52
-45
-52
-34
-8
-6
-12
-40
-37
-54
-56
-52
-27
-24
-16
-10
-32
-22
-37
-51
-66
-53
-54
-33
-13
-24
-23
-39
-44
-60
-43
-49
-42
-36
-14
-22
-26
-33
-42
-59
-52
-42
-40
-33
-10
-29
-29
-38
-37
-59
-54
-48
-36
-36
-23
-12
-34
-32
-34
-65
-57
-39
-45
-35
-8
-27
-24
-50
-42
-63
-66
-51
-35
-30
-13
-23
-28
-33
-33
-54
-81
-46
-38
-43
-19
-15
-21
-33
-39
-60
-54
-50
-33
-31
-22
-22
-30
-45
-51
-61
-64
-53
-42
-25
-6
-9
-17
-29
-51
-59
-62
-45
-44
-35
-9
-10
-35
-46
-51
-66
-49
-43
-32
-23
-9
-12
-18
-35
-52
-71
-62
-28
-21
-23
-21
-23
-32
-42
-49
-58
-58
-51
-25
2
-36
-21
-28
-42
-57
-59
-58
-48
-47
-13
-11
-20
-36
-47
-71
-55
-41
-47
-25
-15
-13
-15
-27
-37
-59
-60
-51
-30
-23
-16
-9
-21
-38
-44
-63
-59
-53
-44
-28
-11
-18
-22
-38
-49
-61
-60
-52
-51
-26
-12
-18
-16
-36
-30
-60
-59
-48
-36
-33
-18
-14
-19
-39
-44
-62
-55
-59
-23
-39
-12
-11
-22
-39
-53
-69
-58
-44
-32
-30
-12
-13
-19
-20
-45
-65
-55
-57
-44
-37
-17
-10
-23
-33
-46
-61
-59
-44
-34
-30
-11
-14
-23
-40
-48
-64
-55
-43
-40
-38
-28
-21
-15
-44
-51
-59
-50
-48
-36
-18
-7
-15
-18
-35
-53
-59
-67
-39
-38
-13
-18
-22
-36
-40
-45
-62
-55
-43
-39
-23
-1
-15
-34
-58
-53
-56
-48
-41
-30
-16
-10
-8
-35
-36
-69
-51
-52
-48
-41
-22
-22
-22
-25
-31
-58
-47
-53
-45
-12
-3
-4
-8
-21
-28
-58
-58
-41
-34
-26
-9
-21
-27
-36
-36
-62
-57
-47
-37
-39
-26
-15
-17
-34
-38
-70
-57
-57
-33
-36
-12
-17
-14
-22
-40
-60
-67
-46
-43
-37
-6
-5
-24
-38
-46
-55
-51
-51
-38
-22
8
37
19
6
26
28
30
24
42
29
39
22
-9
-29
-29
-79
-95
-81
-72
-66
-48
-52
-63
-76
-74
-90
-73
-53
-52
-39
-20
-38
-9
-34
-46
-61
-66
-43
-48
-37
-10
-1
-19
-37
-49
-58
-53
-23
-53
-30
-13
-17
-19
-42
-46
-61
-55
-44
-23
-13
-14
-22
-32
-24
-28
-57
-56
-39
-37
-28
-12
-7
-18
-30
-52
-64
-41
-29
-43
-11
-10
-2
-24
-26
-43
-51
-46
-37
-20
-1
-1
-9
-20
-24
-45
-42
-37
-35
-32
13
4
-10
9
-10
-36
-36
-29
0
4
16
7
2
0
6
-13
-11
-5
5
21
45
45
34
46
18
10
15
11
47
51
71
69
54
51
48
29
11
42
49
47
67
67
55
56
31
12
28
17
43
34
48
45
39
25
14
-5
-16
-5
9
12
20
22
29
-19
-26
-32
-28
-32
-25
-9
14
2
-7
-34
-16
-44
-52
-40
-26
-27
7
-2
-12
-28
-24
-47
-40
-57
-26
-20
1
-2
-7
-23
-32
-41
-56
-40
-20
-10
-1
-11
-24
-25
-35
-45
-54
-40
-26
-5
6
-27
-13
-24
-45
-53
-49
-43
-30
-9
-2
-12
-26
-30
-47
-57
-59
-47
-18
-5
2
-1
-22
-28
-52
-57
-48
-29
-3
-14
5
-12
-21
-29
-40
-69
-49
-35
-26
-7
-3
-10
-33
-39
-50
-50
-34
-48
-26
-11
-9
-19
-44
-43
-39
-35
-44
-36
-24
-4
-14
-21
-31
-36
-50
-45
-44
-38
-31
-11
-5
-17
-23
-33
-56
-65
-44
-21
-38
-7
-6
-14
-35
-36
-52
-53
-39
-28
-30
-22
-5
-15
-29
-39
-57
-59
-53
-24
-28
-9
-12
-14
-21
-37
-58
-58
-46
-34
-26
-8
-5
-13
-19
-39
-52
-64
-26
-32
-42
-1
-6
-15
-33
-41
-57
-50
-42
-29
-6
-11
-18
-17
-30
-43
-63
-56
-23
-16
-12
-5
-11
-9
-23
-28
-56
-60
-31
-23
-10
5
-1
-27
-32
-31
-47
-54
-33
-32
-6
4
-14
-14
-39
-39
-45
-42
-36
-26
-26
0
1
-18
-32
-42
-28
-57
-26
-8
-12
-2
-15
-26
-17
-41
-48
-42
-41
-19
1
-3
-11
-27
-30
-45
-43
-46
-36
-23
10
-12
-11
-13
-32
-43
-40
-37
-28
-19
-12
-2
-16
-25
-30
-55
-42
-44
-30
-17
1
-1
-4
-14
-18
-52
-54
-39
-21
-20
-2
-5
-18
-18
-22
-35
-51
-44
-35
-24
-6
0
-10
-20
-33
-56
-57
-51
-27
-20
0
-10
-12
-16
-39
-49
-47
-27
-31
-21
-3
4
-9
-36
-34
-46
-58
-37
-18
-17
-13
-5
-20
-18
-53
-51
-34
-32
-19
-8
7
-7
-17
-29
-33
-45
-65
-29
-21
-38
-4
-15
-14
-27
-43
-42
-30
-45
-21
-16
4
2
-9
-13
-45
-60
-41
-33
-6
5
7
1
6
-9
-25
-30
-37
-25
-17
0
10
11
-10
-25
-37
-37
-27
-35
-34
-13
-9
3
-13
-42
-52
-47
-48
-26
-32
0
10
-2
-18
-24
-30
-44
-44
-28
-4
1
-9
-4
-6
-4
-34
-32
-31
-16
-10
17
28
43
29
34
25
44
42
26
41
57
35
-4
-8
-32
-52
-64
-64
-72
-66
-40
-36
-29
-41
-52
-68
-62
-52
-41
-36
-5
5
-8
-22
-28
-53
-48
-38
-28
-5
16
6
-1
-11
-15
-38
-46
-14
-3
5
11
6
-1
-13
-17
-25
-32
-32
-2
2
20
13
4
-18
-11
-23
-23
-15
4
5
24
25
20
15
-11
-29
-17
1
16
9
35
31
8
-1
7
-5
-8
5
16
9
46
41
25
6
11
-7
5
-15
13
39
45
44
29
5
4
16
-14
10
42
45
55
53
52
40
30
22
26
40
45
73
92
74
69
67
44
20
50
73
66
104
94
92
85
75
59
60
50
80
90
88
99
84
63
68
49
49
52
63
70
83
85
73
53
48
30
19
21
35
56
63
55
56
44
43
32
2
-12
23
37
49
50
51
38
32
0
17
4
16
44
63
45
39
15
27
2
1
0
11
33
54
47
47
35
24
-2
2
14
33
42
53
56
47
16
17
15
14
-2
21
1
56
59
59
35
19
3
7
19
27
37
55
42
37
36
22
-2
-1
-2
27
38
62
57
52
32
22
5
11
12
22
52
64
56
40
33
21
5
5
22
54
20
35
46
42
24
25
8
20
30
33
43
66
53
43
47
-5
-16
11
23
33
41
59
50
43
24
12
3
4
24
29
43
46
54
38
26
22
-2
10
26
37
44
42
49
39
32
6
7
15
14
31
59
49
46
43
26
6
11
15
21
39
55
57
46
35
24
7
0
15
24
36
58
48
34
25
23
8
14
20
33
19
54
58
37
41
31
17
-1
9
29
19
52
59
56
31
18
7
1
13
22
24
54
55
46
30
18
2
8
9
18
25
60
49
15
30
40
3
0
18
33
32
50
49
37
27
25
11
3
6
30
35
45
62
35
30
26
-8
19
23
26
35
45
39
28
29
20
10
16
4
40
39
49
47
41
22
19
12
10
14
40
54
52
34
49
41
9
-9
12
30
23
56
53
58
52
28
25
16
17
18
32
53
56
53
56
47
19
14
15
32
39
65
61
57
35
24
5
12
23
31
34
52
49
39
26
26
9
3
9
16
31
56
49
44
29
14
-4
1
8
29
33
53
49
38
31
25
1
-1
10
28
28
38
47
39
36
30
7
-10
0
23
36
61
30
27
33
30
32
35
55
71
87
124
131
119
81
62
28
13
18
20
16
26
16
0
-15
-20
-36
-36
-30
-7
-3
7
27
8
7
-4
-18
-14
-7
19
19
31
39
19
0
3
10
-15
-9
22
35
44
54
39
18
7
-12
-4
5
22
30
51
37
31
25
7
5
4
-1
20
34
42
44
35
20
-8
0
-2
8
30
29
27
46
36
28
1
-6
2
3
30
45
48
46
35
23
7
7
6
18
36
46
51
47
34
33
11
15
17
30
40
57
65
67
48
37
23
27
31
47
62
81
87
84
69
68
42
50
58
77
87
96
107
116
83
94
81
58
83
82
92
135
125
109
94
93
68
70
81
78
96
104
114
101
80
66
46
42
58
66
60
78
85
65
51
36
14
14
36
37
42
54
47
56
42
30
0
5
12
21
18
48
46
43
7
22
0
2
5
20
32
51
49
22
36
-2
6
2
-4
16
23
40
46
38
15
4
-7
-13
-17
15
21
37
44
34
21
18
-9
1
6
6
24
34
37
31
18
9
-14
-7
-3
1
26
33
29
25
20
1
-9
-3
9
21
21
25
25
9
18
2
-15
-13
0
0
20
41
24
4
7
-3
-9
-10
4
10
32
29
34
23
8
-16
-17
-16
-9
9
25
26
25
23
-11
-30
-16
-8
8
7
21
17
20
10
-1
-16
-29
-18
-8
2
20
20
22
7
-3
-29
-32
-5
5
0
29
31
14
11
-6
-15
-16
-18
-1
4
25
21
25
-6
-8
-36
-20
-11
-6
4
24
21
17
16
-3
-33
-28
-21
9
9
20
37
38
-4
-23
-35
-45
-17
10
3
16
20
23
5
-4
-26
-22
-6
4
15
27
7
6
5
-4
-17
-27
-3
13
0
37
25
14
-4
-15
-33
-17
-12
1
5
18
20
12
-4
-4
-19
-13
-12
-2
14
33
18
-1
-12
-13
-20
-17
-13
2
10
10
15
11
8
-21
-27
-13
-5
9
15
30
21
-3
-3
-14
-26
-23
-7
11
12
21
21
5
-6
-9
-28
-16
-3
-16
18
15
17
16
0
-24
-24
-21
-14
-12
13
21
20
10
-9
-25
-16
2
-5
-27
24
30
17
-10
0
-24
-26
-16
1
2
18
19
22
2
-11
-29
-15
-2
-22
4
15
22
13
1
-21
-33
-24
-5
19
9
24
25
16
1
-8
-25
-20
-23
3
7
20
28
11
13
-3
-19
-10
-7
13
13
25
30
24
3
1
-12
-19
-7
12
16
36
36
13
12
-8
-31
-18
-15
-9
10
31
21
17
-1
-1
-20
-23
-1
-9
-5
23
18
8
-11
-24
-34
-33
-27
1
8
20
16
4
-7
-8
-24
-27
-21
6
9
13
14
6
-10
-27
-33
-22
-14
8
25
25
26
23
-11
-15
2
20
51
48
59
105
101
93
55
37
25
16
8
7
9
-1
-23
-29
-34
-70
-61
-66
-40
-31
-16
-7
7
-17
-14
-23
-28
-26
-21
-16
5
17
16
-3
-8
-30
-33
-15
-5
24
1
28
11
5
-1
-48
-36
-9
-5
-6
21
24
5
-6
-1
-19
-18
-22
-13
8
24
20
15
2
-15
-26
-31
-19
4
8
34
25
15
4
-1
-26
-19
-6
-10
15
27
25
19
7
0
-10
-25
-5
16
16
36
31
17
30
-1
-26
-12
-1
12
17
48
54
38
21
21
10
2
19
37
35
58
58
47
50
34
29
27
40
61
80
92
76
75
61
63
45
48
64
74
86
97
93
112
87
63
49
62
48
79
85
92
97
77
57
40
46
41
39
65
56
57
51
48
40
25
15
-4
12
33
38
48
36
22
3
-1
-21
-9
0
21
30
38
40
12
0
-20
-18
0
5
9
28
26
42
20
6
-24
-25
-12
1
-6
25
27
18
13
-7
-18
-21
-10
9
18
44
6
20
9
-12
-30
-15
-24
-8
10
29
42
24
-3
4
-27
-22
-8
0
2
27
29
23
10
-5
-25
-19
-3
8
3
18
27
22
4
-9
-22
-24
-8
8
13
13
28
13
2
-14
-29
-22
-10
3
7
32
26
14
9
-4
-10
-23
-18
-2
-10
24
27
8
-6
-8
-28
-24
-17
2
23
27
20
12
-12
-7
-26
-19
-22
0
13
17
16
2
-12
-8
-21
-30
-12
14
15
18
6
7
1
-19
-28
-17
-1
2
5
22
16
-7
-15
-14
-23
-25
-8
-3
18
9
19
8
-3
-15
-24
-31
-12
1
15
18
18
-1
-2
-35
-21
-19
-7
-11
10
17
17
-13
-8
-30
-25
-34
-8
10
25
33
12
-2
-6
-23
-30
-15
-4
-6
16
23
13
-2
-11
-36
-26
-14
-5
7
9
18
10
-1
-13
-23
-34
-25
9
-5
24
21
6
-2
-4
-31
-37
-19
-6
-1
26
18
16
-4
-13
-23
-20
-31
-8
1
23
17
16
-12
-25
-25
-16
-18
-7
-10
20
20
-3
-17
-11
-17
-10
-20
-13
0
24
18
14
9
-30
-44
-32
-22
-9
9
28
17
9
-2
-21
-35
-25
-13
-5
13
26
24
5
-12
-22
-48
-32
-12
-11
3
23
22
1
-9
-21
-19
-31
-10
-7
2
29
15
0
-7
-26
-20
-34
-10
-5
9
19
16
-11
-7
-4
-20
-31
-11
1
12
15
12
2
-22
-25
-28
-24
-8
-1
6
27
13
-16
-26
-31
-25
-23
-9
0
18
12
16
-3
-8
-25
-26
-34
-8
6
19
10
8
-1
-2
-26
-28
-21
-2
-17
12
11
-3
-11
-3
-27
-31
-10
-6
-4
29
15
22
1
-25
-49
-34
-20
5
-2
25
26
15
-4
-1
-26
-33
-8
14
2
23
34
19
-3
4
-11
-15
-15
4
14
37
33
9
8
3
-21
-21
-16
-4
13
9
30
16
-21
-16
-39
-36
-10
2
7
13
24
5
-9
-26
-38
-23
-26
-5
8
13
8
0
-8
-16
-29
-35
-24
-4
-1
16
14
8
-2
-12
-40
-17
-13
0
7
6
5
5
-7
-30
-29
-11
-2
27
45
60
64
73
70
62
66
48
56
53
46
34
19
-5
-36
-47
-57
-47
-52
-37
-24
-14
-31
-34
-31
-52
-35
-24
-17
-2
10
2
8
-7
-12
-30
-27
-42
-20
-1
21
29
5
1
-17
-41
-16
-10
-16
0
18
4
22
2
-7
-25
-34
-25
-12
-4
17
16
8
-4
-5
-17
-28
-21
-5
-9
36
23
13
-4
-8
-12
-36
-15
6
5
9
21
17
9
-9
-26
-21
6
7
0
21
18
33
29
6
-20
-9
-9
18
18
36
35
31
12
4
2
1
7
23
33
57
58
50
23
26
9
16
28
57
66
76
81
63
65
57
25
36
62
65
83
100
78
84
88
62
51
50
67
90
96
88
88
77
69
52
47
44
56
53
69
74
60
51
32
28
16
20
38
28
32
39
53
31
3
-6
-19
-2
18
28
35
30
16
17
3
-17
-14
-13
-11
14
23
20
24
18
9
-27
-28
-18
-9
6
32
31
9
8
3
-18
-12
-9
-17
-2
25
29
15
14
-13
-28
-16
-10
1
-2
27
25
11
-2
-4
-25
-14
-13
4
16
22
23
15
15
-4
-27
-29
-18
7
22
26
27
22
4
-10
-18
-24
-14
-3
-4
21
19
0
2
-10
-29
-26
-13
7
14
15
23
15
0
-7
-23
-15
-11
-1
-1
12
28
10
0
-6
-21
-19
-1
7
0
21
18
14
29
-14
-38
-28
-11
5
20
17
23
15
-1
-12
-27
-19
-9
8
8
19
17
9
-5
-24
-15
-25
-19
5
7
22
30
7
-2
-18
-20
-17
-13
6
33
12
13
7
5
-32
-23
-10
-4
5
24
17
14
3
-6
-22
-21
-18
-10
-13
15
25
18
4
-12
-26
-30
-24
-18
-1
16
36
12
3
7
-24
-19
-17
-10
-9
15
16
19
2
0
-27
-31
-13
0
16
24
25
14
-10
-19
-20
-27
-24
-2
3
26
28
22
-9
-15
-30
-34
-21
-7
-2
23
21
9
1
-6
-16
-18
-22
-15
8
20
19
11
3
-3
-20
-22
-19
-5
0
15
15
13
10
3
-18
-23
-10
1
-9
22
31
6
-2
2
-34
-29
-7
4
7
21
19
0
-14
-8
-10
-31
-10
0
18
26
9
11
3
-10
-24
-17
-15
0
18
19
21
15
0
4
-21
-23
-2
4
21
32
33
17
15
-11
-17
-18
-5
5
34
34
40
21
8
-14
-7
-9
5
18
26
24
12
23
2
-31
-16
-21
-6
6
17
24
18
3
-8
-21
-26
-20
-7
3
20
19
1
5
-7
-21
-24
-15
-7
-3
20
21
9
-9
-1
-13
-20
-18
-10
-4
27
14
36
28
26
10
34
34
67
74
113
86
59
38
24
-19
-17
-27
-21
-5
-13
-20
-34
-38
-55
-71
-49
-41
-41
-28
-7
7
4
2
-12
-32
-28
-26
-8
-18
20
14
5
-12
-15
-24
-30
-25
-1
5
30
23
4
-12
-13
-22
-27
-15
4
7
22
22
7
-5
5
-32
-30
-15
-1
17
19
23
13
-3
-17
-23
-7
-2
10
25
32
3
18
1
-27
-21
-19
-11
2
25
33
21
11
7
1
-22
-12
17
17
31
37
24
18
10
-3
-5
-5
10
21
49
62
55
27
12
20
11
14
33
45
64
69
72
50
46
41
39
47
49
63
89
106
92
70
63
46
50
55
79
86
101
110
99
84
80
57
55
57
74
75
75
79
79
66
53
41
39
18
39
28
65
61
43
45
33
-8
7
4
22
27
40
30
24
18
5
-17
-12
0
16
10
32
37
30
13
-7
-17
-24
-18
1
12
39
29
19
13
11
-9
-29
-6
9
22
22
10
27
7
-9
-19
-15
-8
4
17
31
31
14
-4
-16
-26
-17
-1
0
29
31
22
16
5
-8
-14
-9
-12
8
22
24
34
9
1
4
-21
-29
-13
9
33
39
39
22
-1
-12
-11
-2
-6
2
26
35
24
17
4
-18
-9
-12
-11
11
39
22
23
12
15
-9
-11
-11
-3
5
26
28
19
7
8
-17
-17
-27
0
5
29
24
24
21
1
-13
-24
-15
-1
11
22
29
16
5
-4
-12
2
5
1
11
22
24
17
8
5
-24
-18
-15
8
8
32
19
26
-6
2
-11
-12
-20
4
13
15
37
19
4
-5
-14
-12
-19
-2
-1
36
23
29
13
2
-21
-25
-13
4
16
28
36
12
-3
-7
-20
-9
-3
-1
6
28
32
10
3
1
-28
-26
-2
10
0
24
29
22
13
-4
-39
-26
-1
3
-2
20
37
22
4
-4
-12
-12
-8
7
11
27
24
9
5
-19
-21
-15
-3
8
28
29
23
11
-9
-2
-16
-6
-18
3
19
33
22
3
-1
-28
-25
-13
1
-2
23
34
28
4
-14
-20
-12
-9
-12
-7
21
24
19
3
0
-23
-4
-19
-8
-3
23
30
18
6
-7
-29
-16
-5
-3
5
18
22
23
2
-7
-11
-14
-12
-27
-1
6
15
26
4
-1
-23
-28
-22
7
17
26
25
19
5
3
-21
-24
-13
-15
-8
23
19
21
3
-11
-25
-20
-7
-3
19
34
40
21
9
3
-14
-8
4
-16
-3
24
33
8
-5
8
-17
-14
-12
6
11
29
22
4
5
-4
-18
-10
-7
-2
6
17
20
12
1
-5
-25
-22
-14
-10
12
37
27
14
-3
-6
-20
-11
-10
11
19
50
57
46
42
37
55
68
77
82
82
85
56
24
4
-18
-24
-38
-37
-23
-24
-14
-31
-28
-40
-50
-49
-39
-21
-11
2
19
19
0
-6
-17
-32
-17
-7
-2
9
16
26
4
2
-18
-20
-18
-3
10
24
22
13
7
15
-15
-31
-13
-1
8
20
7
8
10
-3
-21
-16
-10
11
10
19
28
16
5
-4
-22
-19
-17
-5
1
28
34
19
12
-3
-22
-33
-2
2
22
40
42
34
9
13
-7
-40
-5
13
25
36
46
28
14
24
-7
23
4
23
28
44
60
43
44
41
25
37
32
54
65
75
75
77
52
57
40
47
52
67
87
87
95
105
72
78
67
62
74
77
91
105
104
95
67
55
56
37
45
65
84
104
82
75
65
37
23
22
29
39
55
54
55
28
21
18
-3
2
24
39
20
25
32
15
8
-11
-14
-6
8
11
18
28
31
34
-9
-17
-21
-12
-13
10
24
29
23
21
-7
-21
-18
-15
-5
-5
16
37
19
16
2
-11
-37
-28
-18
9
24
26
22
15
-8
-25
-21
-15
-6
3
23
30
15
8
-22
-29
-15
-14
-4
1
10
19
9
-8
-9
-43
-17
-8
7
-13
13
21
14
0
-6
-29
-28
-26
-9
-18
23
9
17
-6
-17
-24
-37
-32
-17
-6
14
12
0
-14
-1
-30
-30
-27
-19
-4
8
1
-2
-17
-29
-36
-30
-38
-11
-1
16
2
-9
-20
-23
-34
-38
-36
-27
1
-1
6
-7
-18
-25
-52
-49
-49
-11
1
11
8
1
-14
-26
-33
-56
-36
-18
-14
2
8
-3
-21
-29
-32
-14
-46
-19
4
-7
-16
-15
-26
-33
-39
-43
-27
-20
-11
13
0
-12
-35
-37
-33
-36
-30
-18
-1
8
8
-5
-18
-35
-42
-43
-26
-20
-9
18
7
-18
-26
-36
-43
-33
-27
-9
4
12
10
-29
-24
-48
-53
-40
-19
-16
11
6
-5
-11
-18
-32
-39
-30
-26
-16
2
11
-2
-18
-24
-40
-21
-27
-27
-26
-10
7
-1
-3
-13
-53
-49
-32
-18
1
-12
-2
2
-26
-16
-36
-40
-24
-11
-6
3
5
-11
-22
-28
-49
-34
-27
-16
-13
-1
16
14
-17
-34
-33
-41
-44
-14
-16
6
-1
4
-17
-22
-34
-33
-33
-21
-5
5
6
-3
-19
-24
-41
-39
-18
-18
-14
1
0
0
-7
-12
-41
-32
-40
-9
3
1
-3
-11
-26
-35
-39
-34
-28
-16
-7
0
5
-6
-23
-30
-35
-23
-12
-8
2
3
6
-4
-12
-20
-37
-19
-7
-15
-4
8
7
-1
-17
-28
-28
-40
-24
-12
1
4
5
-1
-21
-55
-36
-22
-24
-25
-11
11
7
-16
-13
-37
-32
-36
-18
-15
0
-2
-7
-26
-23
-27
-30
-21
-10
6
10
10
17
27
27
26
36
52
53
76
81
77
51
21
-12
-45
-55
-50
-45
-42
-25
-19
-32
-54
-58
-70
-66
-66
-43
-24
-1
-3
-10
-16
-26
-45
-42
-36
-31
-14
7
-1
-6
-18
-6
-37
-43
-23
-10
4
11
-8
-13
-7
-21
-39
-44
-24
-11
-2
17
3
-3
-27
-15
-39
-13
-31
-17
-4
5
2
-2
-15
-17
-28
-42
-23
-11
16
14
-6
4
-6
-24
-40
-31
-23
-14
6
25
16
18
15
-17
-40
-38
-17
10
22
23
20
10
-6
-4
-12
-5
-7
19
23
28
36
30
21
7
-3
-1
27
34
46
62
44
44
50
34
32
36
46
56
77
83
78
57
52
44
45
46
73
64
83
107
90
72
66
41
49
45
58
57
78
68
56
48
44
11
17
12
27
20
52
39
33
36
19
-11
-11
-2
13
12
27
11
2
16
0
-32
-23
-20
-10
15
32
13
12
2
-8
-34
-33
-14
6
2
19
13
7
-3
-9
-27
-19
-16
-17
8
25
11
5
-11
-16
-28
-33
-13
-18
13
23
24
4
-1
-6
-30
-36
-19
-11
-3
13
8
19
-1
0
-27
-28
-18
-3
8
24
9
3
-20
0
-32
-20
-24
-2
6
23
25
11
-5
-20
-12
-14
-21
-4
8
16
15
-4
-3
-15
-26
-23
-15
-11
7
21
12
8
-5
-31
-29
-23
-2
13
16
24
18
4
-7
-33
-36
-24
-10
3
23
24
13
1
-26
-21
-31
-24
-15
-3
17
25
22
-5
-13
-27
-30
-15
-9
2
26
19
10
1
-15
-30
-22
-15
-17
4
20
20
23
-6
-2
-13
-34
-19
-8
-8
20
17
11
-8
-12
-23
-29
-12
3
-2
15
15
24
-2
-5
-32
-25
-22
-9
3
16
24
16
-1
-15
-17
-19
-27
1
3
14
22
13
-7
-18
-18
-17
-17
1
-2
24
21
-1
7
-22
-37
-13
0
0
1
14
18
16
3
-5
-26
-28
-14
6
3
24
16
9
-1
-8
-12
-14
-2
6
12
23
24
17
-6
-5
-18
-12
-21
-6
10
33
29
5
0
-12
-21
-11
10
4
4
38
35
3
-17
-10
-27
-14
1
2
26
38
25
20
-16
-29
-18
-8
1
4
29
26
16
9
13
-17
-13
-17
-10
15
36
36
13
7
7
-17
-13
-18
7
19
28
18
26
18
2
-12
-10
-12
4
10
30
49
38
2
13
-9
-13
9
3
18
45
36
24
12
-8
-16
-10
-12
-4
12
27
34
32
8
2
-7
-23
-11
11
13
33
31
12
7
3
-15
-17
4
8
11
33
42
32
0
-7
-13
-14
-7
12
21
38
48
36
40
40
56
36
69
63
96
113
97
78
52
18
7
-4
-6
1
-21
-2
-18
-26
-38
-25
-36
-36
-26
-15
-6
20
23
18
9
-4
-12
-10
11
16
35
25
30
20
15
8
5
18
-3
17
38
49
33
23
10
0
-7
5
13
17
39
45
40
26
24
13
-2
4
17
24
37
45
27
27
22
0
-3
0
18
36
53
40
45
31
17
6
-2
9
9
32
53
39
32
41
20
9
1
-3
18
26
55
53
39
51
28
13
16
14
38
32
55
51
52
31
49
25
28
44
56
61
73
71
62
64
73
66
48
54
69
87
102
102
97
96
96
57
70
69
94
81
98
118
108
79
71
69
54
73
81
85
100
87
93
56
51
46
34
37
43
46
62
64
57
33
24
12
-9
20
27
24
34
37
24
20
21
1
-3
6
9
30
50
22
17
5
-2
-10
-15
13
18
29
36
47
23
4
-9
-6
-7
1
8
28
38
28
22
7
-3
-15
-11
13
15
35
26
36
18
11
-2
-10
-16
-2
12
23
37
42
22
14
-1
-11
-14
-4
28
29
35
17
7
11
0
-4
-2
13
19
50
40
32
13
14
-8
-8
-7
10
16
37
37
28
19
16
-15
-14
-1
25
27
50
25
21
5
-8
-14
-18
-7
6
17
42
41
43
7
0
4
-14
-11
7
18
38
27
19
4
9
-14
-10
-8
12
28
35
29
21
16
5
-19
-26
-9
14
20
39
38
6
-2
11
3
-15
2
7
16
37
34
3
14
-3
-27
-13
1
4
13
19
31
24
7
-11
-18
-13
-6
15
21
28
34
12
-7
4
-11
-7
2
12
23
30
14
10
-3
-5
-18
-16
2
20
14
21
34
15
-6
-17
-26
-32
6
7
23
26
18
8
-5
-12
2
-8
-6
9
24
22
16
8
11
-16
-7
-20
-8
9
31
41
29
7
-8
-15
-7
-13
1
1
28
18
14
1
0
-16
-12
-11
0
10
33
26
25
16
-1
-24
-21
-11
-11
-8
24
34
39
20
-14
-10
-7
-11
5
2
28
32
25
-3
-5
-22
-6
-22
4
24
29
30
17
3
-13
-23
-28
-6
8
9
27
29
12
0
-2
-23
-20
-17
2
11
29
29
18
5
1
-15
-22
-9
7
-3
34
41
29
0
-13
-8
-15
-16
-1
13
18
31
21
-2
-8
-26
-20
-7
8
11
18
19
14
4
-6
-18
-14
-15
13
16
31
25
14
-2
-13
-23
-13
-3
15
19
32
34
21
13
-3
-14
-12
-4
8
39
38
55
28
-3
-11
-20
-23
-5
1
14
28
38
6
-5
-13
-22
1
7
-6
12
29
30
14
8
-21
-28
-18
-5
2
18
35
27
8
0
-10
-7
-24
1
19
36
39
41
35
21
19
45
47
73
99
111
92
76
48
24
-6
-6
-15
-4
-13
10
-3
-22
-43
-38
-55
-59
-38
-17
-13
9
15
12
-2
-11
-21
-21
-8
-3
3
29
36
21
-5
-11
-16
-30
0
3
10
33
35
22
-3
2
-9
-14
-9
2
-7
24
28
18
8
3
-18
-12
3
-7
11
30
38
26
8
9
-12
-12
-14
12
30
29
32
15
6
8
-18
-18
-5
24
20
38
42
27
14
13
3
-14
1
13
35
49
37
29
16
20
11
-17
9
49
48
55
43
40
29
22
15
19
37
52
66
71
67
53
51
44
39
57
46
63
106
87
92
84
74
63
66
75
78
89
103
113
118
90
75
61
55
64
81
85
94
95
94
76
60
37
33
44
62
56
63
56
54
45
29
17
15
9
33
42
49
49
37
26
18
-11
-2
-4
18
19
36
32
33
15
9
-9
-7
-9
6
18
35
37
27
14
15
-20
-13
-3
0
8
45
38
18
12
7
-9
3
-14
8
26
30
31
28
9
3
-13
-15
-13
12
17
19
34
23
19
5
-7
-19
-6
7
32
27
17
19
8
-1
-14
-13
12
7
26
30
19
10
0
-7
-14
-19
0
26
20
32
33
26
16
1
2
-10
-9
-5
23
28
19
20
2
-4
-14
-13
-6
16
35
15
11
16
4
-16
-21
-16
-3
10
28
31
34
-3
4
-16
-31
-15
3
10
24
30
32
15
-5
-31
-11
-18
2
17
7
26
25
16
-19
-13
-11
-7
0
2
24
34
21
1
2
-17
-21
-14
-10
-2
18
32
21
15
6
-25
-12
-16
-7
1
29
29
15
2
-11
-21
-16
-6
10
9
9
12
21
7
-6
-9
-13
-20
0
19
26
31
21
6
-1
-39
-25
-15
6
11
27
28
13
4
0
-18
-18
-16
2
3
24
22
23
5
4
-18
-17
-11
-4
7
25
27
18
-8
-21
-22
-13
-5
5
20
41
46
11
8
-18
-29
-30
-5
26
-6
31
23
5
6
-16
-18
-16
5
3
12
19
29
17
1
-23
-36
-10
-7
5
22
27
27
19
2
-14
-20
-13
-9
3
17
23
32
22
8
-28
-25
-13
-5
15
27
25
8
4
-1
-20
-20
-11
-10
4
22
27
30
4
1
-10
-11
-21
-7
4
14
22
19
8
1
-17
-23
-12
-1
10
27
28
30
2
1
-28
-17
-23
-1
12
24
17
25
5
0
-25
-37
-11
6
0
23
28
20
-7
-8
-12
-12
-16
2
-4
32
26
23
1
3
-28
-20
-8
3
7
28
27
23
11
0
-22
-28
-11
5
2
20
22
10
4
8
-21
-22
-20
-18
13
9
30
14
9
-2
-8
-9
6
-1
7
37
33
28
18
0
-16
-18
2
8
12
29
32
6
0
-14
-31
-12
-9
4
15
25
28
22
-5
-16
-29
-13
2
11
21
26
1
1
-13
-21
-27
-13
0
15
16
22
31
13
0
-5
-20
-6
27
42
74
85
98
95
84
61
38
48
43
13
31
20
2
-3
-27
-51
-51
-54
-38
-33
-13
-8
-6
-25
-22
-28
-32
-29
-6
8
4
28
21
-13
-16
-25
-13
-19
-11
8
19
23
0
-15
-14
-15
-16
-17
10
5
21
27
23
10
5
-18
-23
-1
10
12
28
22
11
4
-14
-26
-17
-15
7
15
27
32
23
-2
0
-9
-20
-8
5
18
21
24
21
11
3
-21
-7
3
15
7
31
41
31
22
2
-10
-8
5
12
22
46
51
39
21
14
4
-5
17
46
52
58
39
61
45
33
20
26
47
62
64
86
88
83
80
53
47
49
73
83
86
96
94
89
75
73
75
66
69
76
92
104
104
87
68
53
46
44
52
65
80
76
71
54
39
18
21
19
33
35
48
48
42
30
21
-4
5
-4
-12
24
32
38
22
13
8
1
-11
-3
5
7
33
33
18
10
9
-16
-6
-21
1
14
29
33
19
12
11
-29
-21
-1
13
2
25
19
13
8
5
-18
-11
-5
-11
4
30
35
18
4
3
-26
-3
-9
-1
2
25
25
24
9
-11
-17
-14
-14
7
13
30
