-105
-92
-112
-113
-142
-144
-143
-162
-140
-120
-108
-98
-106
-119
-130
-143
-153
-149
-131
-110
-113
-93
-93
-104
-125
-148
-155
-131
-129
-111
-106
-75
-84
-102
-141
-140
-147
-132
-128
-119
-104
-75
-80
-107
-120
-146
-155
-145
-122
-103
-101
-86
-97
-110
-125
-148
-148
-148
-124
-100
-106
-83
-77
-102
-120
-135
-151
-138
-127
-106
-98
-78
-89
-117
-139
-132
-149
-141
-122
-102
-104
-85
-96
-111
-118
-126
-158
-126
-123
-96
-110
-78
-100
-112
-117
-134
-135
-133
-101
-111
-88
-72
-82
-109
-122
-122
-133
-128
-110
-82
-70
-71
-96
-97
-123
-111
-148
-134
-103
-85
-94
-79
-89
-101
-122
-124
-146
-130
-117
-103
-89
-84
-89
-107
-122
-135
-150
-139
-117
-97
-80
-79
-85
-107
-126
-140
-141
-136
-111
-88
-72
-68
-97
-113
-117
-121
-127
-129
-95
-72
-87
-84
-98
-119
-119
-127
-139
-112
-94
-84
-83
-84
-87
-108
-114
-138
-145
-116
-90
-80
-86
-83
-80
-99
-113
-107
-109
-93
-62
-56
-49
-39
-41
-51
-56
-68
-91
-69
-57
-34
-36
-46
-62
-99
-124
-150
-143
-124
-93
-97
-88
-69
-91
-124
-123
-130
-122
-114
-90
-85
-70
-66
-84
-115
-118
-130
-130
-102
-85
-84
-68
-78
-91
-109
-120
-127
-120
-99
-92
-66
-51
-82
-90
-114
-116
-141
-105
-94
-80
-83
-62
-72
-91
-117
-124
-126
-119
-83
-77
-85
-62
-72
-83
-108
-114
-126
-109
-85
-71
-64
-61
-71
-98
-108
-111
-126
-108
-103
-79
-56
-40
-65
-77
-95
-94
-118
-103
-86
-56
-52
-47
-67
-86
-85
-85
-99
-86
-71
-46
-55
-36
-51
-62
-85
-84
-83
-73
-64
-42
-33
-21
-30
-58
-84
-92
-72
-65
-51
-36
-24
-36
-35
-62
-56
-93
-85
-74
-57
-49
-20
-23
-53
-78
-82
-96
-107
-81
-65
-72
-44
-49
-61
-83
-107
-110
-123
-101
-93
-70
-62
-60
-71
-96
-125
-131
-121
-106
-88
-73
-73
-68
-83
-105
-110
-123
-125
-108
-103
-80
-61
-74
-80
-90
-121
-130
-114
-104
-84
-77
-69
-64
-83
-99
-109
-121
-107
-104
-109
-83
-48
-55
-82
-116
-114
-120
-115
-101
-77
-71
-54
-67
-95
-108
-99
-122
-113
-89
-67
-60
-59
-74
-80
-107
-116
-135
-102
-94
-81
-67
-54
-52
-86
-112
-111
-123
-97
-91
-72
-65
-62
-84
-86
-102
-103
-107
-95
-81
-77
-67
-51
-77
-80
-99
-105
-122
-111
-88
-67
-66
-57
-76
-84
-97
-108
-112
-108
-86
-75
-71
-61
-71
-87
-109
-106
-120
-97
-87
-72
-56
-63
-69
-91
-98
-110
-116
-103
-78
-74
-63
-52
-58
-86
-98
-106
-108
-92
-85
-66
-50
-51
-68
-84
-96
-111
-100
-93
-76
-65
-57
-59
-70
-86
-104
-124
-122
-94
-79
-69
-63
-62
-89
-95
-108
-129
-109
-113
-87
-66
-40
-65
-88
-96
-114
-122
-114
-96
-78
-75
-54
-77
-78
-103
-99
-128
-114
-104
-84
-72
-53
-58
-90
-109
-108
-123
-112
-94
-60
-77
-56
-60
-80
-106
-114
-113
-112
-101
-68
-83
-57
-61
-73
-98
-95
-120
-97
-86
-55
-33
-21
-30
-35
-46
-45
-49
-49
-25
-18
-4
-9
-24
-44
-73
-87
-104
-113
-88
-76
-77
-58
-80
-88
-103
-115
-128
-103
-95
-78
-52
-50
-92
-77
-106
-112
-112
-96
-94
-66
-62
-52
-70
-85
-110
-105
-120
-104
-80
-73
-54
-47
-75
-91
-98
-107
-117
-107
-82
-65
-65
-56
-66
-82
-95
-110
-114
-96
-84
-77
-63
-60
-71
-91
-108
-107
-112
-95
-68
-67
-60
-48
-71
-81
-83
-107
-99
-95
-80
-63
-65
-44
-64
-80
-104
-112
-101
-83
-74
-51
-41
-50
-61
-80
-84
-98
-92
-66
-57
-53
-40
-41
-55
-65
-75
-83
-72
-64
-48
-23
-23
-30
-41
-50
-72
-83
-64
-58
-40
-20
-15
-20
-54
-64
-65
-96
-74
-59
-41
-35
-21
-31
-53
-70
-84
-111
-82
-67
-71
-59
-48
-74
-68
-93
-113
-122
-94
-91
-78
-73
-49
-82
-86
-114
-115
-128
-109
-96
-83
-81
-59
-71
-98
-114
-116
-123
-109
-99
-75
-69
-65
-70
-82
-114
-114
-123
-110
-95
-86
-77
-70
-70
-83
-106
-110
-122
-121
-105
-80
-69
-69
-65
-79
-107
-109
-117
-108
-84
-68
-74
-54
-73
-93
-108
-105
-121
-105
-87
-70
-84
-56
-58
-89
-100
-101
-112
-116
-77
-66
-70
-58
-71
-80
-114
-128
-122
-80
-72
-62
-60
-66
-73
-84
-101
-115
-105
-95
-79
-81
-64
-71
-76
-87
-97
-118
-107
-98
-81
-68
-60
-63
-75
-96
-107
-120
-119
-110
-82
-56
-55
-67
-66
-98
-104
-113
-124
-103
-82
-66
-54
-61
-75
-89
-111
-123
-110
-95
-89
-78
-51
-58
-72
-97
-109
-123
-108
-104
-73
-66
-52
-65
-85
-110
-111
-125
-114
-92
-75
-62
-39
-57
-86
-91
-95
-115
-107
-77
-63
-67
-32
-60
-79
-102
-100
-116
-95
-74
-63
-57
-65
-70
-72
-86
-99
-111
-98
-87
-66
-72
-56
-68
-92
-110
-117
-108
-107
-83
-78
-72
-69
-75
-88
-115
-100
-106
-97
-89
-75
-71
-64
-69
-89
-102
-120
-117
-96
-82
-65
-74
-56
-71
-93
-107
-123
-114
-96
-83
-77
-64
-65
-68
-99
-119
-105
-107
-105
-87
-64
-64
-63
-72
-90
-109
-108
-110
-94
-71
-35
-13
-35
-42
-53
-59
-59
-43
-21
-18
-13
-2
-9
-34
-39
-59
-95
-91
-91
-84
-70
-68
-67
-88
-101
-110
-141
-121
-103
-83
-83
-84
-75
-96
-121
-130
-146
-130
-122
-106
-104
-98
-87
-127
-139
-146
-161
-142
-125
-111
-111
-98
-102
-104
-125
-137
-149
-139
-119
-104
-90
-57
-100
-107
-117
-125
-146
-127
-95
-85
-76
-60
-83
-95
-123
-121
-133
-124
-104
-87
-82
-66
-69
-72
-99
-117
-135
-105
-95
-76
-66
-48
-76
-95
-106
-115
-126
-111
-90
-76
-70
-41
-54
-75
-89
-103
-109
-105
-78
-60
-59
-28
-51
-72
-89
-82
-89
-78
-67
-43
-32
-21
-48
-62
-65
-67
-77
-73
-58
-38
-40
-28
-39
-51
-70
-75
-79
-74
-61
-41
-24
-18
-42
-56
-77
-92
-102
-73
-47
-42
-39
-38
-48
-84
-91
-106
-106
-87
-72
-62
-51
-58
-70
-88
-110
-108
-116
-106
-83
-61
-48
-59
-90
-115
-112
-110
-121
-97
-85
-80
-56
-68
-81
-102
-108
-131
-117
-95
-78
-75
-54
-67
-91
-102
-109
-115
-115
-103
-84
-59
-54
-67
-93
-119
-111
-128
-115
-103
-76
-77
-47
-63
-82
-109
-119
-114
-108
-108
-73
-75
-53
-57
-80
-119
-108
-131
-102
-94
-79
-64
-44
-79
-80
-93
-110
-129
-101
-90
-76
-80
-47
-67
-83
-97
-110
-121
-111
-96
-86
-69
-47
-69
-92
-111
-111
-114
-114
-103
-66
-84
-84
-79
-75
-102
-119
-132
-101
-93
-60
-79
-55
-66
-87
-101
-114
-121
-119
-89
-75
-77
-60
-76
-91
-103
-115
-118
-112
-86
-79
-66
-59
-81
-87
-107
-121
-126
-110
-100
-66
-63
-55
-70
-103
-112
-131
-115
-103
-97
-64
-58
-67
-81
-105
-101
-111
-114
-99
-80
-72
-61
-68
-76
-88
-109
-120
-117
-96
-72
-69
-60
-61
-69
-88
-111
-125
-109
-105
-71
-68
-54
-60
-71
-87
-108
-120
-108
-84
-81
-59
-49
-78
-92
-112
-102
-116
-119
-99
-79
-73
-62
-65
-91
-103
-111
-135
-118
-96
-84
-75
-54
-68
-95
-98
-114
-127
-109
-107
-79
-69
-51
-70
-87
-118
-111
-126
-112
-98
-91
-78
-66
-71
-87
-105
-97
-120
-113
-105
-84
-82
-64
-59
-79
-92
-107
-128
-126
-93
-87
-69
-58
-70
-82
-89
-99
-102
-88
-55
-42
-21
-13
-7
-19
-31
-37
-69
-61
-52
-21
-30
-41
-46
-63
-94
-114
-110
-108
-94
-83
-66
-67
-87
-93
-103
-111
-120
-109
-92
-76
-58
-68
-72
-84
-117
-125
-115
-91
-85
-77
-65
-67
-88
-88
-112
-95
-118
-106
-93
-67
-64
-47
-77
-107
-111
-121
-109
-104
-79
-61
-54
-51
-74
-87
-103
-116
-109
-95
-78
-58
-52
-64
-69
-93
-98
-114
-109
-97
-79
-63
-53
-58
-69
-88
-103
-113
-101
-89
-79
-67
-37
-58
-57
-96
-88
-111
-97
-80
-62
-64
-25
-51
-71
-80
-77
-96
-85
-69
-54
-40
-29
-41
-36
-59
-67
-90
-65
-66
-41
-31
-20
-29
-48
-73
-62
-86
-61
-45
-41
-25
-22
-45
-33
-52
-70
-87
-60
-42
-48
-35
-17
-42
-54
-76
-90
-105
-79
-69
-40
-45
-43
-51
-66
-86
-96
-111
-98
-67
-46
-60
-63
-73
-88
-111
-116
-122
-111
-81
-65
-66
-60
-68
-104
-104
-117
-116
-109
-95
-83
-60
-66
-69
-83
-101
-111
-126
-101
-88
-80
-79
-68
-79
-96
-103
-119
-121
-102
-88
-78
-74
-60
-84
-87
-103
-121
-123
-113
-78
-74
-62
-60
-81
-97
-111
-129
-113
-101
-90
-71
-66
-62
-70
-98
-104
-119
-110
-110
-88
-73
-61
-70
-87
-105
-119
-142
-129
-114
-98
-95
-89
-80
-116
-135
-168
-165
-156
-146
-138
-110
-103
-113
-114
-143
-144
-154
-149
-136
-112
-98
-90
-99
-108
-132
-145
-145
-124
-107
-107
-102
-76
-91
-111
-127
-139
-146
-123
-116
-94
-93
-81
-90
-100
-130
-127
-138
-119
-110
-89
-92
-84
-86
-98
-117
-121
-137
-142
-119
-92
-82
-73
-86
-99
-123
-125
-134
-119
-96
-88
-86
-75
-93
-107
-118
-120
-140
-129
-118
-82
-73
-67
-92
-121
-116
-110
-122
-118
-100
-85
-70
-68
-76
-101
-109
-123
-119
-116
-101
-72
-69
-61
-74
-102
-117
-128
-111
-94
-99
-83
-74
-71
-84
-109
-116
-120
-130
-121
-110
-81
-76
-68
-79
-122
-144
-130
-125
-114
-95
-90
-84
-89
-91
-106
-113
-137
-127
-113
-97
-80
-71
-81
-86
-124
-120
-122
-133
-120
-89
-75
-66
-65
-90
-109
-116
-139
-132
-114
-102
-96
-72
-76
-95
-105
-118
-130
-117
-114
-86
-76
-64
-68
-88
-110
-97
-120
-104
-72
-43
-48
-11
-16
-35
-27
-35
-82
-61
-53
-29
-20
-28
-50
-81
-119
-127
-138
-124
-103
-82
-87
-76
-81
-108
-118
-124
-135
-123
-99
-93
-90
-62
-85
-86
-112
-123
-135
-112
-108
-82
-73
-72
-85
-97
-113
-126
-141
-115
-94
-68
-74
-65
-79
-108
-107
-123
-135
-118
-93
-83
-74
-67
-91
-91
-113
-129
-132
-120
-103
-82
-73
-61
-80
-100
-115
-114
-129
-126
-96
-81
-67
-52
-81
-106
-116
-110
-130
-99
-100
-72
-60
-59
-78
-91
-108
-113
-112
-106
-82
-68
-66
-58
-65
-102
-99
-93
-98
-97
-56
-50
-48
-47
-73
-79
-76
-91
-94
-76
-65
-46
-32
-39
-49
-70
-81
-93
-84
-63
-49
-49
-40
-43
-54
-86
-81
-98
-87
-77
-60
-62
-62
-61
-78
-84
-103
-120
-102
-95
-79
-75
-67
-77
-94
-113
-120
-141
-126
-121
-100
-97
-86
-94
-102
-138
-167
-155
-136
-128
-109
-94
-85
-100
-118
-149
-134
-153
-159
-124
-113
-108
-85
-93
-105
-130
-142
-155
-133
-109
-105
-98
-86
-95
-103
-130
-131
-142
-130
-113
-90
-95
-87
-92
-110
-117
-124
-137
-123
-111
-106
-83
-74
-85
-112
-124
-118
-122
-121
-105
-79
-81
-78
-74
-90
-120
-122
-131
-117
-118
-105
-73
-54
-88
-96
-110
-128
-144
-117
-94
-83
-83
-81
-85
-102
-126
-134
-132
-120
-98
-97
-93
-66
-79
-88
-119
-129
-132
-119
-88
-76
-74
-77
-90
-103
-121
-142
-118
-113
-93
-94
-71
-74
-88
-100
-127
-123
-125
-118
-96
-86
-73
-71
-80
-118
-126
-150
-128
-103
-84
-91
-75
-82
-85
-111
-120
-134
-129
-110
-87
-84
-71
-79
-94
-118
-129
-141
-129
-110
-89
-80
-77
-75
-88
-120
-125
-132
-126
-117
-90
-69
-56
-69
-90
-115
-117
-130
-122
-104
-85
-70
-58
-79
-85
-106
-114
-141
-116
-116
-80
-65
-45
-67
-91
-85
-112
-140
-113
-107
-79
-82
-63
-80
-94
-120
-115
-126
-121
-115
-95
-71
-69
-74
-93
-125
-127
-128
-116
-108
-85
-68
-75
-90
-109
-112
-120
-132
-114
-98
-89
-85
-79
-76
-120
-108
-126
-132
-115
-105
-75
-69
-66
-88
-97
-110
-108
-120
-118
-95
-88
-77
-78
-82
-102
-121
-120
-110
-104
-96
-71
-58
-48
-56
-63
-75
-74
-62
-52
-33
-29
-19
-26
-36
-75
-87
-84
-101
-115
-107
-95
-81
-72
-84
-105
-123
-140
-128
-125
-89
-81
-65
-68
-88
-103
-126
-137
-128
-92
-87
-84
-69
-71
-105
-106
-117
-132
-109
-108
-84
-78
-51
-72
-103
-107
-119
-136
-115
-110
-84
-69
-80
-86
-80
-116
-105
-129
-122
-109
-85
-84
-60
-75
-90
-104
-111
-121
-122
-96
-89
-80
-70
-71
-95
-120
-124
-145
-122
-88
-89
-74
-51
-74
-95
-95
-103
-108
-120
-112
-58
-66
-55
-83
-84
-111
-114
-122
-109
-81
-56
-56
-50
-62
-72
-94
-88
-99
-95
-76
-63
-60
-54
-68
-74
-92
-106
-122
-122
-109
-112
-105
-117
-114
-144
-152
-152
-151
-143
-103
-80
-90
-77
-84
-101
-119
-127
-125
-112
-106
-87
-82
-87
-95
-104
-118
-136
-149
-128
-94
-92
-84
-90
-101
-122
-115
-137
-153
-129
-101
-86
-81
-89
-108
-119
-135
-150
-160
-130
-118
-96
-100
-95
-95
-121
-134
-145
-140
-131
-110
-95
-83
-90
-111
-129
-142
-150
-144
-117
-101
-96
-79
-87
-101
-121
-131
-135
-121
-127
-95
-89
-75
-84
-94
-109
-127
-150
-125
-124
-98
-78
-89
-82
-121
-124
-138
-135
-113
-119
-93
-83
-68
-89
-105
-121
-122
-143
-134
-119
-92
-93
-79
-85
-113
-122
-127
-152
-142
-109
-95
-78
-80
-99
-112
-121
-140
-156
-130
-101
-99
-107
-85
-108
-109
-136
-125
-159
-132
-126
-103
-88
-85
-89
-116
-137
-127
-142
-132
-119
-107
-104
-93
-95
-116
-134
-132
-148
-131
-108
-95
-88
-79
-79
-108
-120
-125
-143
-123
-103
-96
-85
-82
-91
-107
-121
-135
-131
-118
-89
-93
-78
-73
-94
-105
-124
-129
-134
-117
-98
-85
-90
-89
-105
-122
-123
-126
-132
-115
-104
-99
-75
-78
-102
-119
-121
-142
-135
-124
-96
-93
-63
-79
-101
-113
-125
-140
-119
-117
-94
-98
-77
-70
-90
-126
-129
-142
-127
-117
-93
-85
-78
-82
-91
-117
-119
-142
-110
-118
-88
-76
-68
-81
-91
-115
-117
-121
-121
-112
-90
-66
-53
-72
-84
-95
-99
-109
-83
-63
-52
-28
-14
-24
-42
-71
-87
-105
-81
-58
-51
-59
-53
-97
-113
-128
-127
-134
-130
-104
-86
-77
-63
-94
-117
-122
-127
-121
-121
-104
-83
-78
-84
-87
-99
-107
-120
-125
-110
-90
-89
-77
-67
-74
-93
-108
-111
-127
-119
-99
-78
-73
-58
-100
-101
-107
-110
-123
-123
-104
-85
-62
-64
-80
-101
-112
-122
-120
-123
-94
-72
-68
-68
-81
-108
-110
-136
-114
-110
-76
-77
-75
-66
-76
-104
-107
-106
-112
-113
-69
-75
-59
-67
-78
-94
-101
-117
-103
-81
-73
-60
-50
-46
-65
-73
-80
-98
-96
-75
-54
-56
-39
-23
-46
-66
-65
-91
-77
-61
-31
-41
-13
-17
-36
-57
-73
-74
-62
-42
-35
-19
-29
-14
-42
-59
-64
-75
-75
-59
-34
-29
-25
-36
-54
-81
-78
-96
-87
-84
-56
-46
-32
-52
-72
-98
-96
-110
-100
-86
-64
-60
-53
-60
-79
-101
-104
-114
-100
-100
-68
-68
-48
-55
-83
-103
-106
-127
-99
-104
-78
-58
-38
-70
-90
-96
-112
-121
-110
-90
-81
-66
-48
-73
-89
-97
-105
-113
-101
-81
-53
-65
-51
-60
-74
-103
-100
-117
-98
-78
-62
-60
-48
-64
-97
-89
-97
-111
-93
-68
-64
-58
-44
-59
-69
-96
-114
-103
-110
-75
-70
-55
-47
-63
-77
-96
-113
-109
-81
-74
-67
-57
-51
-63
-84
-94
-123
-103
-88
-78
-52
-56
-56
-60
-96
-105
-112
-107
-87
-80
-66
-46
-56
-74
-105
-101
-117
-116
-93
-68
-53
-46
-54
-74
-85
-91
-136
-109
-83
-75
-50
-49
-68
-69
-83
-96
-108
-98
-85
-69
-51
-44
-45
-67
-99
-118
-119
-89
-88
-67
-62
-60
-65
-79
-100
-96
-132
-114
-90
-78
-70
-39
-60
-82
-104
-113
-125
-111
-86
-79
-63
-49
-65
-85
-114
-109
-118
-114
-80
-63
-73
-54
-62
-73
-101
-103
-122
-104
-90
-70
-59
-58
-66
-79
-105
-102
-108
-92
-75
-71
-66
-59
-71
-96
-106
-100
-96
-94
-77
-58
-56
-40
-52
-60
-88
-62
-53
-42
-22
-10
15
12
-2
-33
-51
-60
-65
-66
-57
-51
-61
-51
-76
-88
-109
-112
-106
-98
-76
-67
-56
-67
-64
-79
-106
-105
-112
-102
-73
-62
-60
-50
-65
-94
-100
-100
-100
-95
-76
-75
-49
-38
-57
-83
-105
-120
-107
-84
-73
-68
-45
-54
-66
-95
-102
-110
-95
-84
-65
-59
-39
-44
-61
-80
-99
-116
-92
-89
-73
-56
-35
-66
-66
-99
-88
-110
-89
-76
-61
-58
-44
-45
-58
-82
-101
-103
-89
-76
-65
-45
-31
-37
-46
-75
-100
-97
-89
-75
-46
-42
-25
-32
-51
-66
-83
-86
-75
-52
-29
-24
-13
-29
-48
-68
-54
-70
-70
-48
-23
-33
-12
-19
-37
-56
-54
-69
-58
-46
-36
-36
8
-14
-36
-63
-75
-81
-61
-58
-34
-22
-30
-35
-49
-77
-76
-99
-79
-65
-59
-61
-36
-59
-92
-91
-97
-104
-97
-78
-54
-61
-60
-48
-80
-90
-109
-106
-107
-93
-59
-55
-51
-63
-90
-105
-109
-109
-100
-90
-61
-55
-59
-66
-102
-101
-108
-106
-99
-74
-66
-63
-46
-73
-97
-103
-120
-103
-100
-76
-69
-60
-53
-73
-83
-91
-123
-105
-93
-66
-60
-56
-53
-77
-102
-104
-110
-98
-90
-66
-71
-51
-67
-64
-89
-89
-116
-105
-92
-76
-70
-45
-58
-75
-93
-93
-113
-105
-98
-83
-61
-52
-72
-94
-78
-100
-111
-100
-89
-62
-58
-47
-69
-80
-100
-99
-119
-107
-90
-70
-75
-48
-63
-77
-92
-106
-117
-96
-84
-76
-60
-46
-67
-91
-107
-110
-122
-97
-83
-78
-70
-65
-74
-80
-104
-111
-110
-108
-86
-75
-61
-56
-55
-71
-93
-96
-123
-102
-86
-56
-46
-54
-78
-78
-100
-95
-110
-102
-66
-66
-53
-38
-56
-78
-96
-116
-113
-84
-69
-75
-68
-54
-71
-89
-105
-120
-121
-99
-87
-81
-50
-55
-71
-78
-101
-124
-108
-104
-98
-75
-62
-63
-62
-96
-119
-111
-121
-103
-79
-77
-58
-64
-78
-94
-99
-126
-105
-99
-78
-57
-55
-68
-94
-94
-101
-109
-114
-79
-83
-76
-58
-55
-76
-99
-103
-112
-119
-95
-74
-60
-51
-43
-65
-64
-90
-75
-59
-50
-18
11
25
4
-19
-46
-48
-68
-51
-63
-51
-44
-38
-67
-78
-98
-97
-123
-109
-86
-80
-69
-53
-66
-70
-97
-107
-117
-101
-89
-80
-63
-49
-55
-75
-107
-91
-113
-104
-93
-68
-54
-51
-73
-88
-90
-95
-117
-101
-97
-67
-64
-49
-70
-78
-102
-95
-117
-101
-87
-56
-49
-46
-60
-74
-94
-104
-110
-105
-77
-56
-54
-36
-65
-82
-97
-87
-97
-94
-82
-62
-56
-52
-61
-76
-96
-113
-94
-83
-71
-55
-52
-51
-56
-75
-77
-84
-100
-83
-61
-50
-45
-36
-55
-62
-73
-88
-88
-75
-49
-38
-26
-37
-39
-49
-69
-69
-63
-55
-47
-22
-6
-3
-29
-48
-76
-72
-75
-48
-33
-25
-11
-18
-35
-54
-69
-82
-72
-59
-49
-48
-15
-27
-44
-88
-96
-95
-85
-67
-62
-53
-39
-61
-70
-94
-104
-95
-94
-88
-68
-58
-44
-73
-90
-102
-108
-118
-93
-72
-78
-67
-46
-70
-89
-95
-97
-124
-101
-94
-72
-67
-53
-60
-80
-97
-100
-115
-104
-97
-75
-62
-49
-71
-86
-112
-125
-121
-114
-100
-69
-66
-56
-58
-78
-87
-104
-131
-118
-88
-65
-62
-42
-73
-81
-104
-95
-125
-102
-87
-78
-56
-52
-74
-85
-96
-106
-113
-96
-93
-70
-64
-55
-62
-80
-107
-118
-126
-94
-86
-65
-60
-64
-68
-85
-97
-114
-119
-97
-90
-62
-50
-62
-78
-89
-102
-118
-108
-113
-82
-62
-68
-66
-72
-94
-103
-118
-118
-94
-82
-64
-57
-62
-85
-86
-105
-121
-109
-106
-82
-66
-57
-64
-78
-93
-105
-123
-110
-91
-87
-77
-61
-51
-78
-113
-99
-112
-104
-92
-77
-74
-60
-56
-82
-86
-105
-125
-98
-84
-74
-68
-54
-60
-88
-94
-92
-113
-114
-86
-62
-54
-46
-49
-76
-96
-115
-129
-92
-89
-77
-69
-40
-67
-98
-105
-102
-115
-111
-104
-77
-71
-68
-78
-85
-107
-107
-131
-105
-98
-80
-68
-58
-74
-85
-106
-113
-123
-115
-100
-76
-78
-60
-80
-87
-102
-106
-141
-94
-93
-81
-76
-53
-62
-91
-106
-106
-120
-114
-90
-85
-72
-59
-77
-84
-104
-113
-119
-104
-87
-67
-74
-65
-69
-82
-91
-78
-82
-74
-48
-24
-2
-9
-33
-67
-70
-82
-87
-74
-70
-67
-64
-62
-93
-107
-114
-131
-151
-125
-102
-92
-81
-78
-99
-117
-118
-138
-129
-119
-103
-90
-73
-76
-90
-107
-118
-127
-134
-122
-97
-81
-69
-73
-88
-116
-130
-139
-113
-102
-83
-82
-69
-69
-98
-125
-111
-138
-129
-104
-84
-64
-50
-76
-95
-97
-113
-128
-109
-95
-89
-78
-57
-73
-97
-105
-101
-135
-117
-98
-74
-68
-59
-65
-78
-98
-103
-128
-111
-94
-78
-78
-41
-54
-86
-89
-97
-117
-100
-88
-69
-60
-47
-57
-62
-79
-87
-106
-95
-71
-55
-37
-34
-48
-53
-75
-79
-98
-68
-52
-37
-41
-22
-32
-45
-58
-70
-79
-66
-51
-32
-36
-22
-32
-64
-60
-66
-75
-75
-64
-25
-34
-36
-35
-77
-80
-87
-87
-91
-75
-48
-53
-42
-67
-81
-104
-110
-104
-111
-88
-68
-56
-52
-67
-93
-111
-112
-118
-105
-86
-59
-62
-63
-78
-92
-109
-121
-113
-81
-86
-72
-58
-56
-74
-98
-98
-116
-124
-102
-87
-68
-51
-70
-80
-88
-107
-121
-122
-108
-85
-71
-76
-62
-72
-99
-113
-129
-114
-95
-81
-65
-51
-69
-93
-88
-104
-119
-117
-92
-68
-64
-51
-54
-75
-111
-107
-119
-95
-80
-74
-66
-49
-72
-86
-110
-106
-130
-115
-96
-67
-63
-50
-67
-77
-111
-105
-121
-104
-111
-81
-57
-52
-63
-101
-108
-85
-118
-116
-82
-75
-79
-53
-59
-97
-99
-99
-123
-114
-82
-73
-75
-53
-74
-96
-111
-115
-111
-102
-92
-84
-63
-62
-73
-87
-100
-116
-134
-103
-89
-80
-69
-53
-76
-101
-102
-112
-118
-101
-85
-59
-64
-56
-69
-80
-113
-118
-103
-93
-68
-79
-58
-36
-58
-73
-104
-108
-119
-116
-78
-63
-49
-53
-80
-100
-114
-122
-127
-103
-85
-77
-63
-63
-70
-97
-107
-115
-113
-112
-69
-74
-62
-64
-92
-106
-106
-125
-124
-100
-86
-78
-59
-67
-89
-97
-116
-114
-125
-93
-72
-95
-57
-68
-71
-100
-107
-125
-110
-110
-82
-69
-65
-67
-77
-97
-108
-117
-102
-95
-80
-66
-51
-63
-80
-98
-99
-100
-96
-66
-39
-37
-15
-39
-43
-35
-37
-75
-66
-45
-36
-30
-25
-51
-72
-78
-119
-128
-115
-111
-95
-71
-56
-74
-89
-100
-103
-130
-111
-94
-73
-69
-53
-61
-87
-97
-103
-118
-108
-95
-72
-62
-60
-67
-87
-101
-106
-119
-104
-89
-78
-73
-58
-66
-90
-96
-95
-120
-110
-86
-62
-55
-58
-61
-85
-104
-106
-112
-93
-91
-66
-64
-46
-65
-89
-105
-103
-112
-96
-80
-67
-64
-41
-64
-84
-119
-100
-104
-89
-70
-52
-48
-62
-65
-70
-98
-101
-96
-89
-67
-50
-45
-49
-57
-75
-73
-96
-88
-79
-62
-41
-29
-24
-31
-61
-72
-80
-72
-61
-51
-29
-18
-23
-38
-42
-65
-86
-78
-72
-33
-3
-13
-15
-46
-49
-70
-69
-68
-55
-46
-31
-19
-27
-50
-67
-75
-81
-89
-67
-54
-50
-31
-45
-59
-87
-99
-107
-100
-93
-68
-65
-42
-66
-85
-87
-92
-130
-106
-86
-78
-78
-51
-59
-92
-100
-113
-116
-107
-80
-67
-78
-51
-80
-88
-94
-111
-126
-113
-101
-71
-63
-58
-68
-90
-109
-102
-109
-109
-101
-69
-69
-50
-79
-89
-101
-110
-132
-106
-86
-74
-69
-46
-71
-73
-112
-112
-113
-109
-79
-76
-62
-68
-84
-80
-97
-96
-108
-95
-88
-62
-59
-66
-73
-93
-95
-116
-112
-113
-92
-65
-64
-60
-70
-88
-99
-115
-117
-101
-92
-65
-62
-59
-74
-83
-107
-106
-111
-120
-81
-71
-63
-59
-75
-87
-102
-117
-119
-111
-76
-71
-54
-65
-80
-87
-103
-111
-102
-102
-78
-69
-58
-63
-73
-114
-100
-118
-106
-92
-82
-64
-38
-44
-73
-92
-105
-116
-106
-99
-83
-69
-55
-75
-90
-105
-115
-119
-109
-103
-83
-75
-72
-77
-92
-99
-122
-131
-109
-94
-85
-74
-66
-73
-87
-109
-121
-118
-119
-99
-76
-74
-52
-66
-100
-114
-125
-138
-106
-75
-78
-75
-72
-64
-94
-118
-119
-125
-104
-97
-82
-76
-59
-69
-92
-111
-107
-117
-122
-99
-76
-76
-58
-73
-85
-96
-99
-114
-80
-66
-53
-29
-26
-45
-37
-47
-52
-85
-79
-44
-35
-33
-24
-51
-80
-114
-120
-126
-128
-105
-86
-81
-67
-77
-98
-111
-110
-133
-109
-98
-83
-68
-72
-78
-106
-119
-107
-119
-101
-84
-83
-59
-65
-76
-96
-112
-117
-120
-111
-89
-74
-73
-73
-79
-100
-115
-124
-115
-95
-83
-73
-68
-61
-80
-92
-115
-119
-113
-97
-84
-74
-64
-60
-73
-102
-100
-121
-110
-101
-75
-83
-63
-52
-80
-101
-107
-115
-103
-102
-74
-57
-34
-52
-83
-100
-102
-112
-103
-103
-70
-56
-45
-49
-56
-80
-92
-105
-100
-73
-54
-37
-33
-38
-72
-66
-84
-81
-77
-68
-37
-28
-14
-26
-51
-61
-60
-90
-75
-46
-35
-33
-12
-44
-54
-59
-73
-87
-65
-57
-45
-46
-25
-51
-53
-73
-80
-99
-77
-77
-56
-69
-51
-58
-78
-102
-110
-114
-106
-88
-67
-79
-77
-63
-86
-106
-122
-118
-104
-89
-73
-64
-70
-83
-95
-114
-136
-130
-143
-91
-69
-70
-77
-78
-98
-116
-115
-121
-116
-90
-79
-79
-76
-85
-103
-117
-138
-135
-114
-96
-67
-68
-56
-85
-86
-111
-104
-118
-97
-82
-74
-55
-57
-74
-79
-95
-125
-109
-105
-86
-65
-62
-52
-69
-95
-107
-115
-116
-89
-78
-74
-56
-44
-59
-104
-119
-122
-101
-84
-84
-65
-44
-54
-84
-103
-106
-135
-113
-81
-65
-51
-69
-66
-84
-101
-95
-124
-120
-97
-72
-69
-42
-61
-70
-95
-105
-92
-123
-97
-102
-63
-50
-49
-99
-107
-106
-118
-85
-61
-68
-52
-58
-60
-75
-99
-103
-124
-81
-85
-65
-76
-65
-37
-65
-42
-81
-94
-63
-64
-44
-32
-34
-45
-57
-70
-57
-72
-72
-67
-54
-27
-28
-38
-58
-78
-96
-116
-80
-55
-44
-40
-28
-24
-47
-73
-73
-94
-80
-60
-52
-33
-22
-32
-73
-104
-88
-84
-69
-77
-51
-33
-41
-64
-75
-86
-74
-102
-97
-77
-31
-42
-44
-50
-65
-90
-87
-104
-81
-79
-42
-48
-49
-53
-75
-87
-91
-99
-74
-61
-59
-64
-77
-74
-78
-97
-102
-105
-92
-79
-42
-36
-26
-43
-64
-65
-60
-34
-47
-34
-31
-32
-28
-25
-64
-105
-134
-121
-120
-102
-90
-84
-93
-103
-116
-128
-142
-127
-123
-105
-75
-67
-71
-100
-108
-133
-148
-142
-133
-107
-92
-83
-91
-100
-138
-135
-154
-135
-114
-119
-114
-89
-107
-103
-125
-143
-147
-119
-127
-104
-108
-78
-88
-113
-134
-146
-161
-136
-111
-98
-113
-84
-111
-126
-125
-135
-159
-130
-124
-117
-105
-78
-85
-116
-115
-137
-168
-138
-142
-104
-99
-96
-104
-117
-140
-137
-150
-133
-113
-103
-100
-77
-102
-94
-102
-116
-145
-133
-101
-105
-89
-70
-76
-102
-138
-131
-105
-113
-79
-77
-76
-62
-74
-96
-118
-116
-127
-103
-79
-61
-81
-68
-58
-101
-135
-133
-117
-104
-103
-94
-64
-46
-75
-103
-125
-139
-131
-129
-89
-82
-77
-91
-92
-124
-147
-155
-154
-140
-110
-102
-91
-92
-112
-132
-135
-135
-159
-151
-105
-82
-94
-96
-109
-141
-139
-132
-125
-123
-111
-62
-64
-64
-92
-91
-120
-133
-120
-93
-81
-60
-42
-43
-85
-80
-95
-106
-76
-81
-54
-43
-44
-58
-58
-81
-67
-72
-65
-56
-30
-21
0
-37
-27
-50
-66
-57
-55
-49
-3
-5
-31
-36
-46
-67
-74
-83
-69
-44
-46
-25
-21
-47
-51
-65
-73
-76
-78
-46
-43
-66
-22
-21
-42
-71
-77
-86
-81
-45
-39
-26
-12
-22
-39
-64
-68
-94
-78
-55
-19
-26
-25
-38
-39
-56
-64
-72
-85
-64
-32
-35
-14
-34
-43
-54
-71
-85
-72
-41
-26
-20
-32
-24
-73
-71
-81
-79
-61
-51
-33
-14
-14
-30
-47
-68
-78
-93
-86
-43
-37
-33
-34
-43
-63
-58
-73
-86
-68
-44
-27
1
-19
-33
-48
-61
-73
-70
-63
-51
-25
-17
-18
-47
-60
-78
-75
-68
-50
-35
-26
-20
-31
-38
-52
-64
-66
-82
-82
-48
-37
-29
-34
-57
-70
-90
-97
-76
-62
-46
-36
-27
-38
-45
-71
-85
-89
-78
-78
-49
-48
-42
-30
-52
-81
-81
-94
-84
-75
-42
-47
-25
-45
-49
-86
-94
-95
-77
-67
-47
-59
-30
-44
-56
-83
-84
-96
-87
-60
-35
-45
-34
-42
-56
-75
-83
-90
-74
-35
-10
-23
12
21
10
-14
-28
-28
-45
-25
-20
-4
10
-28
-50
-81
-91
-121
-97
-70
-57
-59
-54
-60
-85
-109
-124
-100
-86
-77
-61
-60
-60
-76
-72
-110
-108
-113
-101
-91
-63
-59
-51
-56
-88
-97
-101
-115
-106
-82
-65
-49
-52
-69
-99
-97
-109
-100
-105
-73
-52
-44
-56
-60
-84
-103
-103
-107
-81
-95
-74
-45
-49
-66
-75
-97
-105
-119
-101
-72
-41
-44
-38
-53
-98
-106
-110
-105
-85
-67
-54
-29
-38
-64
-89
-88
-113
-104
-85
-53
-47
-43
-52
-62
-72
-81
-91
-91
-75
-42
-44
-27
-41
-47
-63
-60
-96
-61
-54
-47
-33
-12
-30
-36
-65
-70
-73
-58
-54
-28
-20
-12
-22
-45
-66
-77
-92
-61
-48
-30
-28
-23
-42
-56
-69
-75
-95
-98
-73
-40
-52
-33
-50
-75
-71
-87
-106
-94
-66
-64
-66
-64
-67
-89
-91
-102
-117
-89
-87
-80
-72
-58
-51
-89
-97
-107
-122
-108
-94
-74
-63
-69
-74
-87
-106
-115
-126
-112
-98
-78
-60
-59
-82
-77
-108
-105
-126
-110
-86
-75
-68
-62
-74
-100
-119
-105
-113
-113
-92
-62
-68
-62
-86
-94
-109
-113
-118
-113
-86
-75
-58
-65
-76
-98
-116
-118
-116
-96
-101
-81
-63
-73
-82
-100
-110
-124
-127
-96
-83
-91
-70
-75
-81
-97
-114
-115
-120
-108
-86
-78
-63
-83
-100
-106
-138
-141
-118
-99
-113
-85
-69
-71
-96
-96
-107
-131
-141
-123
-95
-94
-70
-77
-100
-126
-124
-137
-127
-110
-87
-80
-72
-102
-90
-104
-129
-134
-121
-118
-99
-82
-79
-88
-105
-127
-127
-141
-132
-104
-92
-88
-68
-81
-95
-126
-134
-150
-141
-111
-94
-87
-72
-95
-96
-117
-123
-141
-128
-118
-103
-88
-67
-80
-103
-119
-132
-119
-121
-104
-83
-82
-81
-89
-97
-121
-131
-140
-127
-106
-95
-92
-70
-106
-112
-129
-138
-152
-128
-112
-113
-105
-101
-92
-132
-122
-135
-152
-144
-120
-90
-86
-82
-102
-127
-140
-148
-145
-138
-122
-97
-90
-89
-117
-112
-134
-143
-151
-141
-114
-109
-90
-94
-108
-132
-126
-149
-147
-146
-110
-93
-87
-90
-101
-126
-145
-144
-137
-139
-119
-87
-59
-54
-79
-75
-73
-79
-79
-59
-47
-55
-52
-61
-78
-107
-122
-146
-148
-148
-115
-109
-101
-101
-122
-142
-148
-169
-148
-139
-118
-107
-87
-114
-133
-142
-151
-172
-151
-127
-115
-110
-96
-117
-129
-148
-152
-161
-156
-136
-100
-111
-91
-115
-121
-124
-154
-161
-148
-133
-104
-120
-98
-98
-129
-150
-161
-162
-153
-126
-120
-110
-96
-102
-120
-151
-149
-161
-158
-135
-117
-123
-96
-109
-139
-147
-127
-157
-157
-129
-100
-109
-96
-99
-119
-139
-150
-140
-157
-125
-110
-97
-96
-109
-117
-130
-147
-160
-144
-120
-96
-84
-90
-99
-113
-139
-140
-145
-123
-103
-84
-79
-72
-74
-101
-128
-129
-130
-124
-96
-86
-75
-71
-77
-113
-115
-132
-136
-116
-84
-87
-69
-67
-84
-131
-140
-121
-123
-137
-123
-96
-93
-92
-109
-127
-159
-159
-155
-132
-123
-117
-111
-104
-133
-143
-149
-179
-175
-154
-132
-118
-112
-121
-145
-160
-168
-177
-170
-159
-150
-111
-133
-111
-131
-154
-168
-187
-170
-157
-134
-132
-116
-131
-139
-166
-171
-191
-167
-156
-150
-139
-121
-139
-154
-175
-178
-186
-168
-156
-155
-146
-119
-134
-155
-177
-172
-198
-198
-146
-153
-142
-125
-135
-149
-174
-177
-198
-181
-158
-137
-146
-133
-140
-143
-170
-180
-192
-178
-173
-151
-149
-147
-156
-157
-182
-188
-199
-192
-169
-156
-136
-141
-154
-184
-180
-190
-217
-186
-179
-165
-149
-148
-162
-166
-184
-208
-199
-188
-174
-150
-160
-150
-156
-181
-187
-205
-223
-199
-178
-170
-160
-149
-163
-189
-205
-207
-211
-199
-177
-165
-162
-158
-187
-194
-206
-230
-224
-213
-184
-177
-161
-151
-175
-198
-215
-235
-227
-196
-189
-180
-163
-165
-180
-197
-207
-237
-216
-201
-186
-168
-160
-168
-191
-208
-216
-234
-219
-203
-181
-168
-149
-168
-191
-224
-216
-242
-222
-219
-186
-189
-182
-188
-206
-229
-223
-246
-238
-210
-207
-200
-165
-189
-200
-228
-234
-249
-243
-221
-201
-200
-179
-200
-214
-234
-243
-252
-238
-218
-206
-201
-183
-191
-222
-245
-241
-256
-247
-222
-214
-211
-200
-197
-219
-233
-245
-267
-240
-236
-229
-196
-190
-204
-227
-238
-259
-256
-245
-237
-203
-189
-184
-176
-198
-204
-198
-222
-178
-161
-140
-156
-162
-166
-179
-205
-217
-239
-239
-221
-229
-216
-217
-226
-243
-264
-263
-267
-263
-231
-227
-228
-203
-226
-242
-254
-267
-256
-247
-242
-218
-209
-214
-226
-250
-262
-280
-288
-252
-235
-233
-220
-208
-245
-269
-275
-269
-273
-268
-250
-243
-226
-233
-249
-262
-275
-284
-288
-271
-251
-240
-244
-241
-253
-274
-280
-295
-297
-275
-262
-250
-239
-234
-246
-278
-287
-293
-291
-282
-240
-245
-238
-240
-255
-271
-277
-307
-302
-270
-254
-241
-233
-245
-264
-291
-306
-322
-304
-306
-287
-287
-275
-289
-289
-311
-302
-331
-299
-272
-256
-242
-210
-219
-216
-243
-239
-233
-224
-190
-181
-178
-153
-158
-176
-195
-204
-192
-184
-159
-143
-147
-130
-141
-148
-167
-175
-184
-170
-157
-137
-139
-125
-143
-149
-170
-181
-206
-183
-162
-149
-143
-126
-128
-156
-169
-165
-182
-180
-151
-148
-134
-129
-128
-149
-177
-176
-190
-182
-147
-123
-123
-125
-123
-144
-156
-177
-169
-164
-146
-111
-116
-120
-121
-130
-138
-164
-169
-149
-132
-112
-99
-91
-123
-122
-150
-148
-156
-141
-113
-97
-86
-103
-104
-134
-145
-162
-155
-122
-104
-112
-91
-85
-99
-123
-125
-152
-150
-131
-116
-80
-83
-88
-114
-128
-128
-138
-124
-124
-107
-96
-72
-90
-91
-110
-119
-148
-133
-106
-101
-92
-70
-81
-95
-113
-121
-139
-141
-104
-94
-87
-79
-77
-93
-126
-125
-124
-130
-117
-98
-83
-71
-86
-92
-109
-116
-133
-131
-109
-86
-75
-64
-85
-101
-116
-108
-129
-108
-88
-69
-66
-72
-84
-90
-113
-111
-129
-108
-98
-76
-72
-60
-77
-94
-118
-131
-132
-106
-108
-83
-80
-65
-82
-112
-132
-118
-127
-125
-106
-81
-82
-79
-90
-107
-111
-110
-125
-118
-101
-69
-78
-53
-75
-98
-117
-117
-139
-115
-89
-78
-75
-70
-90
-96
-119
-111
-114
-119
-91
-74
-58
-53
-75
-84
-97
-107
-125
-85
-80
-67
-63
-46
-66
-90
-98
-100
-115
-86
-80
-59
-36
-33
-51
-75
-57
-68
-76
-52
-20
1
9
21
-8
-41
-58
-74
-73
-63
-36
-40
-40
-71
-81
-90
-107
-125
-114
-94
-65
-53
-45
-59
-60
-84
-96
-113
-101
-93
-57
-44
-29
-25
-49
-107
-84
-93
-87
-75
-59
-44
-28
-52
-72
-76
-71
-87
-87
-78
-47
-50
-27
-33
-53
-85
-82
-99
-92
-65
-47
-35
-28
-55
-68
-72
-85
-100
-73
-56
-39
-36
-27
-35
-51
-83
-78
-92
-75
-58
-44
-26
-27
-38
-56
-63
-67
-82
-70
-52
-29
-26
-22
-30
-42
-56
-70
-81
-67
-43
-24
-28
1
-21
-45
-44
-65
-69
-38
-19
-5
-11
14
-4
-17
-31
-47
-40
-27
-24
-6
23
15
1
-20
-34
-54
-30
-10
-12
11
3
11
0
-8
-32
-49
-53
-36
-21
-14
2
-1
-9
-27
-50
-78
-70
-59
-36
-21
-26
-22
-31
-63
-72
-74
-77
-56
-45
-33
-30
-24
-40
-71
-84
-95
-84
-76
-55
-38
-28
-34
-43
-67
-75
-89
-77
-72
-46
-43
-18
-40
-69
-66
-70
-90
-89
-63
-42
-27
-33
-37
-47
-70
-81
-91
-71
-63
-47
-40
-10
-25
-62
-62
-60
-91
-77
-51
-37
-34
-28
-35
-47
-70
-71
-80
-68
-60
-34
-31
-24
-23
-51
-69
-75
-88
-60
-64
-44
-33
-19
-27
-60
-67
-74
-76
-80
-59
-41
-35
-26
-24
-30
-67
-78
-88
-84
-58
-34
-35
-17
-38
-47
-68
-73
-90
-69
-60
-34
-34
-23
-41
-45
-74
-63
-81
-85
-54
-43
-31
-20
-49
-61
-68
-76
-94
-65
-52
-42
-24
-8
-33
-53
-68
-80
-80
-75
-43
-38
-36
-15
-28
-49
-64
-75
-81
-61
-40
-37
-28
-21
-44
-62
-74
-81
-84
-70
-61
-49
-28
-29
-48
-71
-81
-96
-88
-77
-52
-46
-46
-36
-63
-65
-75
-99
-102
-85
-49
-30
-24
-41
-57
-74
-78
-91
-94
-71
-47
-45
-34
-32
-52
-68
-80
-92
-83
-64
-55
-44
-18
-39
-56
-66
-79
-104
-82
-62
-50
-39
-27
-31
-58
-68
-69
-88
-71
-41
-8
3
13
2
10
-1
-19
-15
-1
-11
12
9
27
1
-32
-50
-70
-94
-85
-68
-42
-35
-32
-46
-75
-64
-76
-94
-76
-63
-48
-35
-22
-35
-69
-87
-79
-90
-88
-48
-42
-32
-26
-35
-46
-67
-79
-79
-73
-55
-37
-36
-27
-39
-47
-80
-85
-74
-75
-61
-49
-38
-10
-31
-61
-79
-83
-71
-60
-47
-40
-31
-10
-35
-40
-68
-94
-84
-60
-52
-29
-40
-18
-34
-43
-56
-60
-78
-58
-50
-24
-17
-18
-28
-48
-57
-73
-69
-57
-30
-26
-3
1
-20
-42
-54
-59
-56
-40
-28
-11
5
-3
-21
-32
-42
-49
-50
-17
9
4
8
11
-13
-9
-27
-52
-24
-20
-11
15
32
9
-15
-33
-24
-41
-39
-15
-2
9
16
1
-15
-34
-46
-68
-55
-29
-25
-17
0
-8
-29
-58
-50
-74
-64
-61
-41
-28
-11
-26
-44
-71
-44
-78
-59
-54
-36
-26
-13
-39
-53
-60
-72
-92
-85
-52
-37
-17
-14
-34
-53
-72
-81
-85
-68
-46
-33
-35
-27
-34
-58
-60
-69
-77
-76
-50
-26
-30
-40
-28
-40
-65
-76
-94
-75
-46
-48
-35
-22
-24
-42
-73
-76
-80
-70
-49
-33
-36
-8
-24
-44
-81
-69
-74
-63
-61
-35
-24
0
-30
-52
-62
-71
-71
-61
-52
-33
-13
-17
-40
-52
-63
-71
-85
-66
-57
-32
-36
-18
-26
-62
-71
-84
-84
-74
-48
-30
-14
-17
-27
-60
-67
-77
-70
-54
-47
-31
-5
-18
-33
-63
-60
-67
-77
-58
-41
-31
-20
-31
-49
-65
-71
-83
-65
-57
-52
-40
-8
-15
-38
-51
-61
-82
-68
-51
-36
-31
-19
-18
-46
-49
-75
-72
-62
-50
-16
-26
-4
-1
-30
-50
-58
-79
-70
-51
-33
-38
-30
-16
-47
-57
-70
-88
-70
-50
-50
-31
-16
-22
-56
-64
-76
-82
-70
-51
-26
-40
-47
-47
-43
-53
-77
-82
-72
-62
-27
-26
-20
-38
-56
-69
-69
-88
-68
-50
-25
-33
-23
-35
-52
-61
-77
-82
-75
-52
-42
-25
-23
-38
-48
-74
-85
-85
-60
-49
-29
-17
-4
1
-27
-36
-41
-37
-11
12
32
40
59
26
13
-17
-35
-31
-39
-31
-17
-24
-36
-42
-54
-76
-81
-84
-78
-60
-36
-32
-25
-38
-51
-74
-77
-88
-69
-43
-38
-20
-26
-40
-71
-63
-87
-84
-64
-47
-33
-20
-20
-44
-63
-68
-87
-69
-54
-42
-41
-21
-14
-40
-64
-72
-91
-78
-59
-43
-35
-17
-27
-46
-61
-63
-73
-74
-66
-46
-28
-21
-26
-48
-71
-65
-76
-68
-56
-37
-20
-8
-12
-38
-67
-73
-78
-52
-45
-23
-36
-10
-19
-33
-43
-56
-70
-50
-32
-22
-16
-4
-16
-22
-38
-38
-55
-53
-32
-10
-4
6
-11
-10
-24
-41
-55
-26
-1
5
3
16
7
-6
-27
-31
-46
-32
-8
14
8
8
-2
-10
-30
-32
-45
-39
-24
-10
4
7
1
-30
-52
-58
-67
-51
-33
-39
-6
-10
-50
-39
-54
-76
-83
-57
-49
-18
-18
-14
-42
-51
-73
-73
-80
-65
-50
-27
-27
-15
-24
-48
-70
-89
-88
-61
-47
-27
-21
-31
-49
-56
-77
-90
-84
-66
-46
-33
-26
-25
-36
-48
-80
-97
-77
-52
-39
-39
-27
-13
-45
-61
-80
-84
-81
-66
-45
-28
-13
-18
-33
-57
-73
-86
-62
-60
-56
-29
-19
-15
-37
-56
-65
-77
-68
-48
-34
-29
-16
-22
-35
-66
-71
-86
-64
-43
-32
-50
-18
-21
-37
-63
-64
-95
-67
-43
-39
-34
-24
-27
-30
-61
-67
-82
-67
-49
-35
-28
-24
-13
-47
-69
-72
-86
-78
-50
-35
-44
-30
-43
-55
-72
-88
-101
-81
-61
-57
-43
-25
-57
-71
-88
-96
-92
-104
-65
-41
-40
-47
-63
-63
-75
-84
-93
-95
-67
-57
-53
-42
-52
-76
-96
-90
-101
-100
-92
-66
-69
-66
-72
-82
-107
-110
-127
-115
-95
-77
-77
-57
-70
-95
-115
-130
-131
-113
-99
-82
-76
-62
-79
-95
-115
-116
-115
-110
-97
-74
-71
-66
-83
-113
-119
-127
-129
-113
-86
-75
-90
-65
-96
-113
-121
-132
-125
-119
-102
-81
-66
-72
-100
-117
-122
-142
-130
-123
-100
-68
-72
-73
-92
-108
-117
-134
-100
-83
-59
-62
-31
-41
-53
-66
-58
-66
-64
-70
-51
-43
-28
-47
-57
-97
-110
-131
-125
-110
-104
-81
-71
-80
-103
-121
-126
-135
-116
-101
-81
-69
-48
-67
-73
-91
-92
-115
-95
-72
-64
-75
-38
-40
-63
-92
-100
-102
-87
-69
-52
-49
-32
-39
-54
-81
-83
-90
-80
-65
-50
-45
-32
-36
-54
-81
-82
-88
-61
-54
-48
-42
-21
-44
-43
-77
-73
-81
-66
-40
-35
-36
-19
-21
-58
-70
-72
-70
-64
-42
-29
-21
-11
-32
-40
-58
-59
-67
-58
-51
-19
0
-2
-12
-26
-42
-59
-73
-37
-13
9
18
0
-13
-28
-41
-38
-41
-23
1
24
13
13
18
6
-24
-37
-30
-27
-6
17
35
29
24
-2
-19
-33
-24
-17
19
-2
29
29
-1
-12
-29
-43
-35
-29
-3
0
16
10
-9
-31
-52
-59
-46
-60
-21
7
14
-15
-32
-47
-51
-53
-56
-32
-12
-23
3
-12
-27
-54
-61
-71
-55
-46
-24
-22
4
-20
-26
-56
-54
-65
-56
-50
-29
-22
-8
-17
-33
-32
-46
-68
-46
-44
-14
-17
-15
-12
-33
-64
-48
-61
-57
-41
-20
-16
-1
-11
-32
-52
-58
-62
-54
-39
-25
-7
-1
-4
-29
-55
-51
-63
-52
-34
-13
-21
-3
-14
-42
-45
-54
-62
-51
-39
-10
9
-7
-15
-28
-50
-59
-62
-48
-43
-20
-20
-8
-22
-37
-56
-67
-67
-49
-43
-27
-18
-10
-16
-32
-49
-61
-58
-37
-34
-15
-4
-1
-23
-34
-52
-69
-71
-67
-21
-7
4
13
3
-36
-38
-45
-55
-52
-26
-28
-25
-12
-30
-37
-48
-59
-60
-35
-38
-27
-18
-31
-36
-58
-60
-59
-51
-51
-39
-31
-18
-41
-27
-36
-49
-88
-67
-52
-28
-30
-20
-34
-33
-50
-82
-88
-64
-28
-20
-26
-13
-23
-56
-66
-73
-105
-73
-47
-49
-48
-45
-30
-70
-59
-78
-86
-78
-58
-52
-57
-44
-46
-66
-81
-86
-104
-93
-77
-60
-50
-29
-27
-45
-63
-56
-56
-46
-15
6
-22
-17
-11
-38
-55
-79
-91
-83
-93
-94
-71
-52
-66
-95
-108
-98
-117
-123
-88
-81
-69
-69
-75
-89
-112
-112
-138
-113
-90
-75
-68
-53
-72
-89
-105
-117
-127
-115
-109
-92
-75
-53
-69
-73
-92
-106
-111
-103
-64
-50
-54
-43
-66
-84
-95
-98
-104
-84
-68
-49
-51
-41
-67
-82
-88
-82
-103
-93
-72
-55
-49
-51
-60
-82
-101
-111
-96
-81
-54
-52
-39
-41
-48
-72
-79
-86
-80
-73
-47
-36
-29
-41
-41
-58
-42
-67
-72
-57
-38
-22
-7
-11
-30
-50
-60
-61
-47
-41
-28
-12
-4
0
-28
-46
-48
-39
-39
-23
-25
-7
11
-2
-21
-25
-38
-50
-40
-30
-16
-6
3
5
-19
-39
-34
-55
-43
-39
-19
-14
-10
-22
-23
-57
-61
-72
-58
-58
-34
-33
-17
-42
-46
-62
-68
-89
-74
-54
-41
-34
-28
-41
-56
-80
-77
-91
-80
-61
-44
-38
-27
-31
-60
-79
-87
-93
-77
-60
-45
-40
-31
-47
-54
-69
-82
-88
-70
-63
-47
-34
-32
-36
-56
-67
-97
-95
-74
-46
-28
-27
-38
-35
-45
-67
-77
-83
-95
-51
-32
-31
-33
-34
-49
-53
-68
-73
-79
-64
-41
-28
-34
-25
-52
-73
-76
-80
-63
-46
-28
-32
-32
-43
-59
-72
-87
-85
-52
-44
-26
-31
-17
-51
-75
-77
-80
-71
-63
-54
-34
-30
-25
-48
-60
-80
-76
-78
-62
-60
-39
-35
-27
-46
-72
-69
-89
-90
-70
-35
-29
-28
-39
-56
-65
-72
-93
-82
-56
-43
-39
-26
-23
-43
-70
-63
-81
-84
-52
-45
-25
-16
-28
-43
-74
-61
-78
-66
-49
-36
-37
-17
-33
-53
-66
-69
-82
-77
-56
-46
-56
-32
-49
-54
-75
-67
-89
-65
-70
-45
-38
-40
-39
-47
-67
-74
-84
-74
-69
-45
-54
-27
-34
-55
-73
-80
-81
-71
-73
-39
-39
-28
-40
-61
-71
-85
-98
-75
-58
-30
-36
-23
-37
-70
-76
-78
-80
-69
-59
-40
-32
-33
-50
-54
-85
-80
-82
-59
-42
-37
-1
6
2
-19
-25
-18
-9
9
23
42
16
12
-9
-7
-28
-58
-56
-52
-42
-52
-36
-32
-48
-56
-84
-91
-85
-64
-50
-40
-31
-35
-47
-74
-72
-87
-95
-71
-49
-47
-26
-36
-43
-72
-76
-92
-70
-62
-64
-51
-19
-46
-55
-64
-78
-85
-93
-56
-39
-44
-27
-28
-53
-59
-80
-90
-73
-55
-47
-34
-26
-29
-51
-67
-85
-81
-72
-61
-37
-46
-26
-31
-46
-75
-84
-82
-70
-71
-49
-30
-30
-31
-45
-63
-75
-101
-75
-62
-45
-35
-4
-23
-38
-60
-64
-83
-63
-41
-32
-24
-10
-16
-32
-53
-59
-64
-52
-42
-29
-9
-5
-19
-33
-48
-59
-62
-58
-47
0
4
9
-3
-32
-37
-57
-63
-39
-37
-23
-5
6
-2
-41
-64
-52
-64
-52
-33
-32
-28
-8
-40
-56
-66
-79
-86
-69
-54
-51
-35
-28
-44
-80
-85
-96
-94
-78
-46
-48
-50
-41
-60
-78
-90
-104
-103
-90
-85
-58
-55
-34
-67
-83
-92
-111
-104
-83
-71
-51
-36
-52
-69
-93
-100
-99
-106
-89
-76
-62
-32
-80
-63
-84
-100
-113
-101
-80
-54
-76
-44
-52
-83
-93
-98
-117
-93
-76
-74
-72
-43
-54
-85
-90
-97
-132
-102
-88
-74
-59
-62
-69
-74
-94
-97
-124
-113
-99
-68
-72
-70
-67
-86
-107
-112
-118
-92
-102
-79
-72
-61
-71
-86
-97
-108
-121
-122
-105
-69
-71
-65
-74
-90
-119
-117
-124
-123
-96
-90
-84
-68
-81
-94
-117
-119
-129
-129
-103
-79
-78
-87
-96
-113
-128
-118
-144
-121
-109
-89
-89
-87
-91
-116
-128
-131
-125
-127
-119
-115
-97
-87
-102
-128
-139
-155
-147
-141
-132
-107
-119
-114
-133
-146
-174
-179
-186
-181
-169
-137
-150
-146
-168
-176
-195
-217
-221
-218
-194
-209
-163
-181
-196
-218
-238
-244
-255
-244
-217
-216
-216
-216
-240
-259
-266
-277
-288
-281
-246
-259
-239
-233
-256
-272
-276
-301
-292
-276
-270
-257
-239
-256
-261
-279
-297
-314
-315
-281
-250
-256
-237
-255
-270
-289
-298
-314
-302
-272
-263
-242
-246
-263
-268
-284
-300
-317
-292
-273
-256
-248
-241
-247
-266
-271
-276
-287
-270
-247
-222
-196
-188
-191
-217
-226
-252
-272
-257
-252
-241
-246
-235
-263
-287
-324
-323
-329
-322
-311
-285
-287
-272
-255
-268
-286
-305
-315
-297
-287
-266
-260
-239
-264
-264
-297
-300
-312
-287
-278
-262
-261
-238
-240
-281
-304
-286
-310
-299
-269
-240
-243
-248
-256
-274
-301
-300
-310
-293
-279
-250
-244
-235
-254
-262
-277
-306
-322
-299
-275
-272
-256
-258
-272
-287
-302
-312
-308
-293
-265
-256
-250
-253
-275
-294
-304
-296
-308
-286
-269
-266
-230
-235
-261
-281
-294
-297
-310
-304
-274
-238
-232
-230
-248
-246
-279
-283
-271
-268
-251
-240
-210
-223
-218
-234
-238
-263
-273
-269
-252
-247
-245
-273
-308
-304
-317
-307
-295
-281
-255
-230
-216
-219
-245
-264
-263
-286
-258
-241
-228
-214
-189
-220
-219
-237
-239
-264
-250
-221
-211
-201
-181
-201
-224
-239
-227
-247
-236
-221
-204
-192
-162
-180
-206
-227
-221
-245
-209
-180
-184
-176
-155
-156
-183
-189
-205
-213
-212
-190
-170
-163
-148
-148
-170
-203
-193
-195
-170
-152
-137
-127
-121
-121
-141
-147
-173
-191
-154
-147
-144
-115
-114
-121
-142
-161
-154
-171
-140
-125
-110
-95
-91
-88
-110
-125
-134
-140
-114
-104
-86
-86
-84
-96
-120
-128
-122
-123
-108
-97
-73
-53
-58
-58
-82
-101
-93
-98
-108
-86
-60
-38
-57
-56
-69
-78
-92
-111
-110
-82
-62
-46
-36
-61
-67
-84
-95
-98
-59
-42
-36
-28
-28
-25
-45
-69
-69
-60
-42
-25
-16
-1
6
-10
-26
-35
-41
-34
-23
-13
12
28
17
21
-17
-34
-35
-22
-6
15
29
41
40
20
8
3
-29
-5
-4
34
47
53
39
29
11
-9
-6
5
19
28
44
73
44
29
10
10
-5
12
31
47
45
59
58
34
15
14
-9
21
31
48
55
69
50
38
13
8
-10
13
40
55
56
75
66
38
25
37
8
11
48
64
77
82
80
51
30
25
25
35
71
76
82
89
88
59
60
50
44
67
90
119
113
143
126
118
122
104
74
104
109
127
130
141
106
91
65
41
34
42
62
68
91
99
79
77
73
54
44
60
77
102
110
106
100
81
74
64
51
67
89
104
112
111
98
79
61
61
57
68
85
104
105
93
81
63
51
42
40
52
75
90
101
112
91
87
65
48
50
72
92
94
116
109
86
65
63
38
55
66
75
89
105
78
60
61
56
18
24
47
54
75
105
83
60
48
50
18
36
55
80
72
103
96
80
59
58
47
62
92
103
128
126
121
113
83
75
24
17
5
1
0
-16
-64
-87
-120
-124
-108
-70
-39
-11
17
36
28
23
11
1
-2
28
35
58
60
78
76
44
31
50
31
40
67
75
90
97
91
70
55
44
47
46
56
86
90
103
88
91
62
54
34
72
79
103
110
110
101
71
57
53
56
64
95
99
118
115
100
92
76
76
64
79
100
107
121
125
106
83
67
63
78
98
109
116
148
124
126
111
84
60
77
64
77
104
101
58
42
13
-21
-54
-61
-44
-21
-27
-42
-77
-72
-63
-59
-68
-54
-20
0
20
46
43
28
8
10
2
9
37
53
57
67
69
84
74
36
29
54
56
81
92
95
105
87
54
58
47
57
77
96
104
122
122
102
82
70
67
76
86
115
109
133
125
106
84
82
75
96
101
126
132
140
145
133
94
96
93
106
122
148
133
161
135
143
116
97
101
111
133
139
155
156
155
136
126
116
108
116
135
149
154
162
149
132
123
121
103
110
125
156
149
175
160
146
115
118
118
119
145
153
170
174
171
153
126
122
110
116
155
184
175
180
160
171
134
124
123
136
160
178
186
194
169
143
150
148
152
138
152
180
193
189
172
159
148
142
134
150
173
182
203
199
201
186
184
173
190
202
233
258
275
268
249
218
208
193
208
201
215
197
213
184
184
175
152
134
144
158
179
186
209
210
184
158
168
150
140
168
199
197
205
200
176
168
161
140
167
162
171
199
215
189
176
155
162
154
167
175
197
214
219
197
179
156
161
145
167
174
192
212
219
207
200
169
157
156
171
180
194
198
226
195
189
171
161
152
188
186
207
212
232
205
197
173
168
157
171
185
214
217
226
217
188
185
175
165
177
200
215
231
231
233
219
186
184
184
205
214
224
234
249
242
211
187
206
207
198
219
226
256
267
248
224
210
205
207
201
227
243
253
248
253
234
212
189
184
197
223
232
241
247
229
213
173
176
183
183
208
221
227
226
201
176
173
160
177
181
202
206
215
208
200
185
178
159
162
162
186
208
213
204
197
182
177
162
168
158
186
201
213
212
203
170
169
147
154
173
197
182
204
210
197
160
154
149
166
175
201
210
217
198
182
153
172
138
165
185
191
189
230
205
193
177
152
151
162
170
199
203
222
212
187
173
163
150
164
171
189
197
213
190
188
168
153
137
167
176
201
201
210
203
184
160
148
135
153
176
185
189
220
192
181
158
150
149
156
162
199
202
203
184
195
163
155
131
150
176
189
199
204
194
173
157
136
119
147
166
188
184
195
175
166
155
144
145
149
168
187
192
196
186
165
154
150
144
152
167
190
202
207
181
176
167
156
159
152
184
197
196
199
195
168
150
128
163
169
169
183
198
211
184
154
155
143
145
155
182
192
201
182
166
157
146
128
144
148
169
170
195
188
182
154
147
131
139
155
171
173
191
185
170
160
143
120
144
154
160
173
200
176
171
156
143
128
153
152
173
187
203
182
161
152
142
126
142
151
173
173
188
186
172
154
145
126
144
165
181
177
201
208
190
183
175
160
186
202
248
259
273
234
216
197
192
177
182
184
198
178
161
180
161
144
137
130
137
159
181
174
185
168
159
139
135
116
146
157
168
176
184
164
141
132
131
125
137
156
170
175
184
172
146
141
125
136
135
148
165
184
185
179
152
127
135
131
126
158
174
183
176
171
156
132
114
117
113
123
135
138
137
117
86
62
53
68
96
117
123
138
134
137
119
97
103
98
115
139
150
155
158
139
129
114
104
105
128
154
166
165
158
137
124
103
86
93
117
159
162
172
171
160
144
136
116
133
151
184
192
203
174
164
154
139
118
153
157
175
186
197
186
174
136
138
147
137
153
161
181
189
173
