-64
-61
-70
-81
-83
-76
-74
-81
-79
-84
-83
-81
-79
-76
-66
-68
-77
-73
-78
-87
-83
-90
-84
-89
-82
-89
-83
-76
-78
-81
-81
-92
-94
-90
-85
-90
-81
-74
-73
-71
-77
-86
-96
-76
-72
-85
-82
-80
-84
-90
-95
-80
-80
-85
-87
-76
-85
-83
-84
-89
-82
-78
-79
-92
-85
-82
-78
-86
-92
-92
-92
-108
-117
-114
-100
-65
-67
-80
-76
-83
-74
-86
-78
-83
-85
-87
-86
-79
-85
-102
-105
-104
-96
-95
-96
-105
-102
-95
-97
-83
-73
-82
-85
-76
-93
-98
-88
-83
-95
-84
-86
-98
-100
-84
-80
-84
-84
-95
-89
-85
-79
-77
-86
-83
-87
-91
-86
-70
-81
-92
-88
-90
-85
-84
-72
-70
-88
-101
-106
-100
-72
-73
-90
-81
-75
-68
-71
-83
-91
-97
-94
-92
-97
-93
-86
-86
-88
-95
-96
-101
-97
-98
-91
-90
-107
-97
-78
-81
-98
-95
-92
-96
-90
-81
-93
-77
-76
-99
-108
-107
-97
-103
-98
-95
-96
-95
-93
-89
-98
-92
-92
-98
-96
-75
-60
-60
-46
-46
-21
24
40
37
51
53
15
7
9
-9
-36
-54
-63
-66
-81
-81
-96
-94
-82
-79
-85
-95
-89
-83
-87
-101
-115
-108
-82
-84
-94
-94
-83
-80
-81
-87
-103
-89
-95
-97
-93
-100
-87
-90
-97
-94
-96
-96
-90
-103
-90
-80
-95
-94
-89
-90
-98
-102
-111
-82
-86
-91
-96
-99
-95
-90
-99
-89
-97
-110
-102
-91
-89
-76
-76
-82
-81
-82
-85
-92
-101
-93
-89
-81
-67
-65
-76
-83
-86
-87
-83
-82
-82
-67
-65
-88
-95
-88
-69
-65
-74
-71
-78
-74
-71
-70
-61
-58
-63
-69
-74
-74
-76
-81
-75
-67
-56
-49
-55
-64
-69
-68
-58
-59
-52
-56
-70
-62
-63
-70
-66
-76
-76
-88
-72
-74
-88
-90
-84
-79
-95
-95
-101
-94
-87
-107
-109
-107
-100
-116
-118
-118
-130
-139
-112
-103
-94
-97
-104
-111
-109
-110
-120
-115
-111
-110
-110
-120
-108
-112
-130
-132
-128
-121
-126
-116
-112
-116
-121
-115
-121
-118
-111
-119
-121
-124
-122
-123
-132
-127
-123
-122
-129
-116
-113
-114
-129
-131
-137
-141
-111
-103
-114
-125
-108
-115
-118
-125
-131
-134
-135
-126
-131
-126
-123
-124
-126
-129
-139
-132
-135
-136
-127
-123
-134
-139
-155
-128
-86
-107
-126
-126
-119
-120
-119
-121
-121
-125
-131
-134
-127
-130
-131
-129
-125
-133
-135
-128
-128
-125
-136
-152
-140
-137
-138
-135
-113
-114
-128
-129
-128
-130
-143
-121
-119
-123
-112
-110
-124
-135
-140
-130
-142
-137
-137
-141
-144
-134
-141
-140
-130
-124
-122
-127
-138
-128
-136
-127
-142
-161
-145
-128
-117
-115
-121
-123
-132
-132
-125
-135
-136
-128
-126
-126
-123
-133
-122
-124
-133
-132
-121
-120
-126
-137
-148
-129
-111
-123
-140
-138
-129
-127
-125
-123
-128
-129
-144
-149
-127
-102
-116
-128
-126
-125
-122
-126
-128
-145
-150
-137
-125
-141
-138
-126
-131
-136
-140
-142
-147
-143
-129
-138
-133
-138
-159
-151
-135
-143
-141
-131
-134
-144
-152
-126
-118
-130
-142
-141
-141
-141
-144
-146
-148
-139
-134
-136
-127
-122
-123
-121
-130
-101
-69
-48
-45
-42
-19
-5
-6
-8
-29
-48
-43
-62
-75
-98
-110
-120
-124
-134
-143
-145
-130
-125
-132
-132
-125
-131
-148
-144
-142
-142
-141
-146
-140
-145
-130
-140
-140
-138
-144
-134
-125
-130
-142
-137
-136
-148
-146
-144
-119
-113
-137
-152
-137
-137
-153
-146
-130
-130
-133
-138
-142
-136
-139
-143
-146
-142
-125
-126
-147
-142
-138
-128
-159
-141
-114
-119
-131
-126
-125
-125
-128
-131
-133
-135
-128
-141
-128
-136
-129
-130
-119
-121
-129
-122
-114
-120
-118
-119
-116
-121
-117
-112
-115
-108
-106
-110
-106
-94
-85
-104
-123
-123
-115
-92
-92
-93
-71
-73
-100
-112
-104
-101
-116
-115
-107
-98
-118
-115
-106
-96
-100
-89
-97
-104
-114
-116
-125
-109
-111
-122
-134
-125
-132
-124
-124
-128
-127
-126
-134
-138
-136
-140
-133
-133
-151
-139
-141
-149
-151
-152
-119
-126
-159
-156
-143
-128
-152
-158
-154
-137
-126
-127
-136
-151
-172
-152
-118
-124
-136
-139
-143
-136
-132
-138
-138
-140
-145
-155
-161
-146
-126
-136
-142
-131
-147
-137
-144
-145
-160
-130
-128
-144
-144
-145
-140
-149
-140
-147
-143
-128
-141
-153
-145
-137
-152
-144
-154
-134
-135
-131
-142
-156
-135
-133
-146
-164
-153
-120
-133
-144
-139
-140
-161
-152
-137
-141
-138
-141
-134
-136
-142
-149
-129
-141
-161
-134
-122
-123
-141
-150
-150
-152
-130
-153
-150
-137
-143
-146
-136
-133
-131
-137
-145
-144
-150
-140
-130
-147
-149
-132
-122
-131
-140
-136
-148
-132
-132
-148
-144
-124
-129
-130
-139
-135
-127
-133
-141
-130
-117
-117
-123
-128
-125
-125
-133
-131
-137
-133
-146
-151
-122
-110
-95
-120
-136
-133
-137
-132
-134
-145
-126
-132
-142
-138
-140
-134
-139
-130
-121
-138
-134
-126
-129
-132
-136
-135
-148
-148
-133
-144
-127
-113
-133
-141
-127
-118
-128
-135
-125
-142
-146
-129
-126
-135
-134
-136
-131
-132
-138
-137
-126
-119
-108
-117
-104
-89
-71
-52
-23
-26
-24
-28
-32
-45
-65
-88
-104
-114
-111
-112
-112
-115
-130
-142
-143
-144
-137
-139
-120
-128
-124
-138
-142
-153
-148
-132
-129
-124
-122
-134
-132
-133
-122
-135
-140
-138
-141
-133
-127
-133
-141
-133
-136
-140
-137
-129
-131
-139
-150
-142
-122
-131
-137
-129
-132
-138
-127
-142
-123
-109
-119
-123
-126
-132
-128
-124
-130
-125
-116
-123
-135
-125
-143
-138
-127
-123
-119
-114
-124
-112
-124
-132
-117
-119
-106
-122
-123
-118
-107
-111
-110
-115
-119
-114
-117
-110
-104
-99
-95
-96
-102
-91
-88
-117
-137
-102
-83
-84
-95
-91
-89
-96
-99
-100
-85
-91
-100
-110
-104
-103
-72
-78
-96
-88
-95
-111
-102
-100
-104
-113
-114
-113
-116
-113
-116
-117
-122
-125
-126
-126
-128
-137
-149
-152
-146
-143
-132
-131
-148
-154
-142
-149
-130
-141
-150
-144
-128
-124
-150
-136
-132
-143
-151
-152
-134
-140
-141
-138
-139
-142
-140
-148
-145
-141
-150
-156
-149
-144
-147
-143
-141
-156
-147
-138
-182
-152
-132
-137
-154
-160
-144
-130
-136
-136
-141
-148
-132
-141
-156
-158
-162
-153
-152
-144
-146
-137
-134
-136
-144
-147
-147
-142
-147
-145
-150
-150
-139
-140
-139
-142
-154
-144
-149
-154
-151
-162
-148
-132
-143
-161
-144
-127
-129
-143
-145
-146
-142
-149
-143
-148
-152
-150
-145
-140
-144
-149
-144
-143
-152
-144
-150
-154
-150
-141
-147
-156
-141
-122
-136
-151
-145
-151
-157
-141
-145
-157
-152
-143
-156
-146
-137
-142
-145
-133
-133
-138
-134
-138
-137
-146
-151
-150
-143
-144
-141
-141
-131
-140
-132
-130
-133
-139
-141
-141
-138
-135
-142
-140
-136
-133
-135
-138
-157
-151
-152
-142
-136
-135
-149
-144
-137
-144
-142
-147
-150
-148
-145
-146
-144
-133
-141
-152
-154
-144
-136
-137
-131
-124
-132
-159
-182
-146
-130
-129
-145
-150
-140
-146
-138
-149
-150
-138
-150
-152
-142
-140
-118
-98
-85
-76
-68
-56
-33
-18
-16
-21
-21
-27
-34
-47
-62
-77
-97
-113
-123
-130
-130
-118
-127
-135
-144
-161
-154
-141
-127
-144
-146
-142
-120
-113
-126
-138
-126
-123
-139
-146
-135
-130
-129
-134
-140
-139
-126
-135
-139
-118
-127
-124
-121
-122
-126
-123
-122
-128
-129
-125
-126
-127
-115
-121
-134
-128
-126
-138
-138
-121
-113
-125
-130
-133
-133
-131
-115
-106
-116
-106
-109
-108
-110
-93
-102
-125
-121
-116
-125
-109
-96
-106
-104
-99
-119
-123
-111
-100
-104
-102
-101
-103
-85
-89
-92
-96
-95
-84
-79
-82
-84
-91
-90
-70
-78
-75
-79
-85
-73
-69
-72
-67
-75
-75
-70
-66
-69
-64
-55
-49
-69
-91
-83
-96
-94
-91
-93
-97
-97
-86
-83
-97
-102
-100
-98
-106
-117
-114
-112
-116
-122
-122
-127
-104
-106
-109
-116
-114
-107
-111
-117
-129
-125
-124
-128
-125
-117
-126
-123
-120
-128
-119
-95
-103
-128
-127
-124
-130
-117
-128
-121
-117
-118
-127
-123
-117
-126
-130
-119
-122
-124
-118
-121
-121
-118
-126
-130
-118
-115
-111
-111
-121
-131
-141
-136
-131
-126
-118
-114
-113
-108
-116
-129
-129
-119
-105
-114
-138
-138
-124
-128
-117
-106
-107
-115
-120
-129
-126
-112
-112
-116
-124
-121
-115
-113
-104
-107
-122
-131
-115
-119
-128
-120
-128
-125
-118
-111
-109
-116
-125
-110
-115
-129
-136
-140
-123
-132
-133
-101
-108
-121
-119
-121
-127
-126
-120
-123
-147
-130
-116
-105
-114
-120
-122
-128
-112
-111
-116
-118
-129
-134
-123
-97
-112
-119
-116
-120
-117
-107
-115
-123
-117
-125
-132
-116
-111
-116
-115
-113
-113
-105
-104
-111
-104
-112
-112
-105
-112
-108
-104
-120
-119
-127
-118
-104
-118
-116
-113
-116
-127
-125
-124
-126
-117
-114
-127
-127
-116
-113
-114
-112
-122
-126
-108
-121
-124
-123
-125
-114
-117
-119
-114
-118
-108
-107
-125
-123
-117
-116
-122
-124
-123
-126
-126
-117
-98
-106
-109
-115
-114
-106
-98
-115
-84
-56
-34
-24
-16
0
20
14
19
6
-5
-17
-31
-39
-54
-83
-108
-115
-107
-122
-122
-103
-107
-109
-109
-107
-119
-122
-114
-101
-91
-116
-137
-125
-109
-105
-114
-117
-102
-108
-112
-112
-106
-105
-109
-127
-115
-108
-119
-115
-95
-100
-112
-110
-105
-108
-93
-100
-104
-112
-118
-119
-130
-103
-89
-109
-113
-110
-108
-116
-108
-105
-108
-110
-99
-111
-104
-104
-105
-110
-101
-103
-101
-104
-93
-102
-99
-103
-107
-111
-114
-108
-102
-99
-78
-70
-95
-104
-105
-95
-86
-89
-86
-79
-80
-83
-94
-69
-74
-89
-84
-81
-80
-71
-73
-64
-69
-76
-78
-77
-100
-68
-49
-42
-54
-74
-77
-69
-76
-87
-93
-83
-57
-73
-86
-77
-77
-83
-86
-90
-99
-112
-111
-95
-89
-89
-117
-118
-108
-105
-115
-125
-110
-102
-118
-123
-112
-103
-111
-104
-118
-118
-127
-136
-97
-93
-106
-111
-116
-117
-118
-115
-109
-116
-114
-116
-119
-116
-107
-114
-124
-119
-116
-113
-111
-125
-115
-126
-116
-119
-110
-103
-113
-113
-124
-118
-109
-103
-118
-111
-122
-115
-118
-109
-111
-109
-116
-133
-113
-108
-117
-118
-112
-110
-113
-110
-118
-123
-125
-114
-101
-103
-112
-127
-119
-113
-110
-109
-120
-127
-121
-111
-106
-113
-124
-130
-128
-104
-105
-103
-113
-122
-118
-110
-110
-113
-117
-123
-129
-120
-102
-90
-109
-116
-121
-116
-113
-112
-119
-116
-114
-118
-112
-116
-117
-123
-128
-116
-115
-126
-127
-142
-126
-105
-93
-108
-133
-123
-98
-109
-115
-115
-111
-132
-126
-106
-108
-114
-122
-115
-114
-116
-119
-108
-105
-114
-117
-121
-110
-121
-122
-127
-116
-120
-133
-137
-127
-113
-114
-117
-110
-116
-105
-115
-124
-124
-113
-116
-115
-111
-107
-113
-118
-123
-127
-126
-126
-120
-104
-115
-115
-111
-113
-122
-118
-109
-111
-131
-128
-129
-132
-104
-117
-116
-113
-111
-124
-125
-121
-120
-121
-119
-122
-125
-122
-139
-116
-108
-111
-115
-104
-99
-112
-118
-123
-119
-115
-110
-123
-124
-124
-119
-133
-119
-106
-113
-111
-104
-91
-104
-112
-112
-113
-120
-118
-116
-130
-109
-108
-114
-111
-106
-102
-118
-128
-110
-120
-128
-117
-120
-130
-112
-113
-126
-131
-131
-130
-118
-127
-122
-121
-118
-128
-136
-135
-121
-122
-113
-110
-110
-114
-118
-114
-112
-126
-126
-118
-114
-125
-128
-127
-123
-118
-115
-120
-127
-114
-101
-94
-95
-70
-40
-22
-17
-12
5
3
6
-4
-27
-38
-50
-56
-84
-85
-91
-107
-112
-120
-116
-92
-104
-119
-120
-122
-119
-113
-119
-130
-130
-124
-117
-128
-131
-131
-117
-121
-114
-121
-125
-124
-126
-131
-138
-116
-112
-114
-100
-115
-119
-133
-123
-114
-111
-113
-122
-124
-121
-116
-118
-114
-114
-122
-118
-124
-121
-120
-122
-118
-124
-121
-125
-120
-110
-119
-112
-110
-120
-113
-112
-116
-108
-129
-126
-104
-96
-112
-105
-111
-115
-117
-106
-103
-102
-103
-108
-114
-109
-99
-97
-92
-108
-113
-100
-102
-104
-95
-79
-90
-90
-101
-79
-80
-81
-81
-94
-86
-79
-66
-75
-84
-95
-87
-82
-78
-84
-79
-81
-81
-83
-78
-87
-90
-95
-101
-105
-90
-93
-94
-97
-103
-96
-104
-123
-119
-124
-118
-129
-127
-106
-104
-105
-114
-121
-115
-124
-123
-126
-139
-149
-132
-126
-124
-119
-114
-137
-147
-154
-141
-128
-127
-109
-119
-127
-123
-138
-128
-125
-144
-133
-123
-128
-121
-111
-112
-139
-155
-155
-146
-133
-131
-121
-127
-131
-134
-130
-139
-133
-131
-115
-115
-121
-119
-129
-130
-139
-138
-120
-122
-131
-128
-124
-115
-123
-116
-119
-128
-137
-129
-122
-139
-132
-127
-124
-118
-126
-134
-131
-131
-128
-129
-132
-138
-131
-125
-125
-130
-114
-129
-147
-144
-123
-127
-124
-133
-127
-116
-127
-132
-140
-152
-128
-120
-130
-136
-136
-118
-116
-130
-127
-123
-136
-139
-127
-131
-135
-128
-122
-133
-130
-113
-122
-121
-123
-120
-124
-119
-125
-124
-123
-124
-123
-126
-119
-117
-127
-126
-129
-131
-129
-133
-128
-125
-127
-128
-117
-127
-124
-117
-108
-119
-143
-144
-138
-137
-131
-114
-114
-121
-143
-176
-134
-101
-116
-129
-124
-102
-103
-111
-128
-123
-130
-129
-122
-125
-119
-117
-122
-115
-118
-115
-117
-122
-122
-119
-118
-123
-124
-112
-114
-120
-106
-107
-101
-109
-131
-120
-111
-101
-109
-112
-133
-122
-117
-104
-108
-122
-122
-107
-129
-144
-133
-126
-129
-137
-129
-121
-116
-110
-121
-133
-133
-131
-128
-120
-101
-113
-124
-113
-129
-135
-131
-126
-127
-123
-113
-111
-121
-113
-117
-125
-136
-134
-125
-122
-109
-112
-116
-110
-112
-102
-95
-88
-63
-46
-23
-13
-10
-2
-6
-13
-33
-46
-47
-42
-59
-98
-116
-117
-131
-127
-107
-107
-119
-125
-121
-98
-90
-108
-117
-106
-111
-113
-114
-100
-104
-110
-124
-116
-116
-113
-109
-107
-97
-124
-145
-139
-120
-106
-105
-108
-106
-117
-119
-107
-112
-126
-139
-113
-122
-106
-107
-105
-100
-100
-104
-108
-102
-105
-120
-114
-107
-104
-109
-107
-106
-105
-102
-104
-111
-113
-93
-108
-120
-102
-99
-91
-97
-102
-106
-98
-97
-117
-100
-84
-88
-92
-97
-96
-106
-88
-69
-78
-91
-82
-85
-89
-77
-65
-72
-75
-82
-78
-80
-77
-90
-65
-61
-81
-81
-71
-68
-64
-73
-87
-94
-76
-56
-67
-75
-69
-59
-59
-60
-74
-75
-83
-96
-93
-84
-99
-108
-103
-91
-84
-103
-115
-110
-105
-105
-104
-118
-110
-106
-106
-111
-103
-102
-117
-114
-126
-136
-136
-109
-104
-102
-99
-87
-118
-127
-124
-134
-136
-125
-99
-101
-106
-116
-130
-129
-126
-118
-123
-112
-112
-104
-104
-98
-109
-117
-112
-114
-107
-104
-118
-133
-118
-105
-115
-116
-123
-121
-101
-98
-106
-95
-104
-114
-126
-111
-106
-102
-107
-100
-103
-107
-111
-109
-112
-114
-119
-120
-115
-101
-118
-112
-92
-99
-106
-104
-107
-115
-114
-99
-91
-76
-95
-117
-113
-107
-113
-107
-103
-105
-112
-121
-122
-113
-103
-86
-91
-106
-96
-93
-111
-103
-108
-116
-109
-108
-104
-109
-99
-101
-102
-123
-115
-112
-121
-104
-83
-88
-100
-104
-95
-89
-94
-104
-117
-115
-103
-103
-101
-98
-98
-99
-110
-112
-111
-111
-127
-124
-96
-91
-95
-102
-87
-92
-99
-112
-99
-112
-110
-92
-80
-89
-105
-107
-106
-92
-111
-108
-100
-95
-100
-101
-99
-104
-86
-73
-78
-108
-98
-104
-104
-110
-108
-95
-99
-119
-112
-100
-96
-124
-134
-110
-88
-103
-94
-94
-121
-111
-102
-107
-108
-112
-119
-123
-116
-104
-108
-110
-104
-105
-104
-115
-109
-104
-119
-119
-109
-111
-109
-111
-107
-105
-117
-120
-117
-120
-123
-121
-110
-93
-92
-77
-60
-72
-38
-15
-12
-6
7
3
-3
-29
-30
-45
-57
-73
-77
-89
-100
-104
-101
-104
-110
-124
-135
-158
-118
-72
-90
-111
-107
-110
-108
-113
-111
-118
-121
-109
-105
-112
-120
-103
-112
-103
-116
-104
-112
-120
-117
-115
-112
-117
-119
-114
-108
-109
-124
-115
-114
-125
-141
-127
-99
-96
-111
-118
-116
-102
-99
-115
-115
-116
-130
-113
-105
-103
-110
-104
-103
-95
-100
-105
-113
-112
-112
-119
-122
-109
-102
-107
-96
-101
-104
-108
-118
-118
-97
-91
-99
-92
-92
-102
-88
-86
-87
-90
-88
-81
-88
-79
-79
-86
-94
-88
-93
-89
-71
-70
-84
-89
-87
-85
-94
-87
-73
-79
-83
-67
-89
-80
-74
-77
-77
-76
-85
-90
-89
-87
-97
-99
-96
-100
-106
-106
-108
-111
-108
-103
-112
-134
-139
-124
-112
-112
-114
-112
-114
-129
-139
-136
-124
-129
-128
-140
-127
-122
-115
-111
-115
-114
-118
-134
-144
-140
-137
-131
-132
-125
-131
-128
-136
-131
-117
-140
-140
-138
-114
-132
-132
-140
-144
-138
-135
-138
-138
-128
-118
-130
-129
-122
-129
-148
-154
-134
-125
-144
-137
-126
-128
-130
-127
-137
-138
-134
-133
-137
-131
-137
-130
-136
-139
-142
-137
-135
-168
-152
-126
-145
-131
-132
-118
-125
-125
-135
-145
-142
-136
-145
-148
-141
-136
-130
-134
-139
-144
-135
-130
-142
-159
-158
-138
-148
-146
-136
-131
-145
-159
-160
-148
-143
-137
-122
-132
-133
-136
-140
-153
-143
-142
-132
-129
-140
-145
-160
-181
-152
-131
-124
-131
-149
-144
-142
-154
-147
-151
-147
-151
-151
-148
-149
-162
-159
-137
-134
-147
-144
-139
-151
-152
-146
-154
-154
-141
-149
-158
-152
-138
-143
-132
-145
-170
-165
-150
-152
-150
-145
-136
-138
-137
-136
-156
-168
-158
-147
-145
-146
-150
-156
-148
-148
-141
-135
-139
-144
-153
-143
-144
-148
-140
-137
-158
-157
-145
-142
-147
-149
-141
-156
-156
-139
-157
-172
-153
-154
-166
-155
-161
-163
-161
-162
-167
-147
-137
-155
-156
-157
-161
-149
-148
-157
-161
-177
-163
-163
-166
-151
-152
-161
-163
-144
-165
-164
-153
-163
-164
-158
-153
-154
-158
-157
-153
-139
-122
-106
-86
-62
-58
-46
-38
-28
-50
-62
-47
-65
-85
-89
-101
-124
-128
-139
-147
-161
-172
-159
-137
-134
-145
-157
-156
-141
-150
-161
-154
-157
-155
-157
-156
-152
-158
-171
-161
-165
-147
-158
-157
-160
-162
-157
-162
-165
-167
-157
-150
-148
-151
-162
-163
-166
-158
-160
-162
-160
-153
-156
-155
-154
-161
-165
-170
-174
-159
-153
-138
-158
-163
-158
-167
-167
-165
-152
-154
-161
-145
-146
-150
-151
-153
-146
-152
-163
-157
-159
-149
-148
-143
-142
-152
-146
-136
-137
-147
-153
-150
-148
-143
-158
-153
-128
-140
-143
-146
-146
-133
-125
-120
-125
-109
-122
-128
-135
-138
-128
-113
-124
-120
-133
-134
-129
-131
-132
-135
-126
-126
-129
-132
-145
-144
-144
-150
-159
-157
-144
-140
-152
-153
-158
-160
-161
-160
-169
-168
-180
-173
-164
-163
-165
-170
-160
-165
-164
-180
-184
-183
-181
-179
-176
-183
-179
-181
-189
-187
-185
-187
-178
-167
-174
-187
-182
-188
-185
-184
-174
-182
-173
-182
-180
-189
-182
-181
-189
-188
-191
-180
-164
-176
-191
-192
-179
-188
-189
-184
-179
-184
-181
-181
-186
-184
-191
-196
-193
-185
-195
-180
-184
-182
-185
-186
-184
-181
-184
-183
-194
-190
-173
-183
-192
-200
-182
-172
-183
-186
-187
-187
-193
-199
-186
-184
-186
-188
-181
-178
-189
-194
-187
-185
-196
-196
-186
-194
-201
-181
-178
-188
-193
-192
-184
-185
-176
-181
-187
-185
-182
-195
-194
-201
-203
-174
-182
-193
-190
-187
-183
-189
-184
-184
-188
-187
-197
-199
-194
-188
-194
-192
-180
-189
-189
-204
-197
-187
-181
-175
-192
-198
-194
-191
-185
-191
-192
-194
-197
-191
-199
-201
-184
-175
-182
-182
-184
-191
-186
-197
-197
-200
-190
-206
-217
-201
-161
-178
-187
-185
-201
-182
-183
-208
-177
-170
-179
-183
-183
-188
-193
-191
-184
-179
-184
-188
-191
-176
-176
-189
-194
-198
-182
-182
-188
-173
-172
-177
-188
-183
-181
-183
-177
-185
-184
-185
-188
-196
-199
-201
-206
-201
-195
-188
-171
-178
-195
-203
-190
-202
-191
-191
-188
-188
-185
-183
-196
-194
-184
-193
-198
-197
-186
-180
-188
-195
-222
-234
-204
-191
-210
-190
-173
-202
-196
-173
-160
-160
-157
-147
-118
-102
-86
-78
-55
-55
-64
-71
-93
-107
-107
-122
-138
-165
-176
-174
-189
-193
-195
-182
-191
-192
-186
-171
-175
-182
-186
-189
-188
-202
-194
-169
-194
-188
-187
-193
-196
-199
-195
-188
-184
-190
-191
-189
-197
-198
-199
-179
-179
-188
-199
-197
-193
-182
-184
-187
-194
-183
-188
-185
-191
-191
-206
-188
-173
-165
-173
-184
-192
-179
-185
-184
-179
-172
-173
-185
-175
-185
-194
-189
-170
-170
-182
-185
-177
-176
-193
-179
-166
-160
-169
-164
-162
-158
-169
-164
-165
-177
-166
-156
-144
-147
-172
-171
-162
-153
-160
-164
-163
-151
-141
-146
-157
-147
-146
-147
-147
-141
-146
-143
-138
-139
-130
-147
-133
-121
-149
-138
-136
-144
-134
-139
-167
-165
-162
-159
-154
-154
-168
-171
-166
-159
-166
-171
-170
-178
-175
-174
-181
-170
-176
-179
-194
-203
-178
-171
-186
-184
-186
-187
-179
-178
-176
-179
-188
-189
-187
-196
-197
-195
-183
-190
-187
-174
-184
-180
-181
-185
-196
-196
-190
-183
-192
-185
-181
-181
-172
-174
-186
-196
-190
-191
-178
-171
-179
-197
-192
-186
-194
-192
-185
-169
-168
-182
-175
-183
-183
-183
-178
-182
-179
-179
-183
-176
-180
-180
-185
-197
-200
-187
-174
-165
-172
-175
-183
-187
-193
-190
-190
-178
-171
-172
-179
-188
-195
-226
-206
-172
-159
-166
-172
-176
-184
-195
-187
-168
-182
-181
-189
-171
-173
-178
-191
-184
-187
-186
-192
-161
-163
-175
-172
-178
-181
-179
-182
-188
-185
-189
-181
-173
-166
-167
-175
-173
-171
-178
-176
-182
-183
-176
-167
-166
-178
-188
-184
-167
-159
-175
-176
-169
-179
-178
-179
-174
-185
-179
-168
-174
-169
-167
-174
-163
-163
-160
-174
-180
-174
-159
-158
-162
-166
-167
-163
-172
-167
-174
-168
-170
-157
-157
-158
-152
-176
-170
-162
-146
-164
-171
-155
-149
-153
-155
-152
-143
-156
-168
-179
-178
-154
-149
-168
-168
-163
-160
-164
-162
-172
-169
-164
-161
-162
-166
-163
-169
-189
-159
-149
-170
-172
-167
-163
-157
-170
-166
-156
-164
-162
-163
-158
-147
-161
-172
-170
-166
-167
-167
-172
-170
-157
-157
-146
-154
-142
-121
-134
-101
-75
-52
-43
-38
-26
-38
-63
-84
-84
-100
-110
-118
-127
-142
-159
-144
-130
-134
-155
-168
-157
-151
-152
-154
-139
-142
-152
-159
-163
-158
-162
-148
-142
-149
-146
-148
-155
-157
-159
-167
-151
-151
-149
-143
-137
-149
-149
-153
-153
-145
-154
-154
-154
-132
-142
-145
-141
-150
-156
-152
-147
-148
-142
-146
-154
-145
-145
-144
-140
-137
-132
-137
-141
-140
-144
-153
-145
-139
-132
-134
-137
-140
-125
-120
-123
-149
-133
-129
-122
-125
-138
-131
-125
-119
-124
-120
-120
-135
-131
-116
-124
-128
-123
-132
-103
-102
-102
-109
-102
-108
-118
-106
-106
-97
-83
-100
-110
-114
-127
-109
-95
-89
-91
-95
-95
-93
-99
-117
-105
-96
-108
-105
-96
-107
-109
-116
-117
-129
-122
-115
-118
-132
-135
-137
-148
-145
-127
-123
-140
-139
-137
-135
-136
-141
-144
-144
-143
-143
-147
-146
-143
-152
-154
-141
-152
-146
-153
-158
-161
-145
-141
-144
-140
-137
-144
-146
-145
-146
-146
-143
-143
-147
-159
-157
-165
-147
-136
-139
-146
-154
-138
-141
-136
-138
-145
-154
-155
-141
-134
-143
-146
-142
-144
-145
-145
-138
-139
-143
-148
-151
-151
-141
-144
-142
-143
-148
-137
-129
-138
-144
-144
-145
-124
-136
-141
-153
-158
-136
-123
-133
-137
-141
-141
-143
-146
-135
-154
-148
-147
-148
-146
-131
-133
-141
-128
-131
-141
-143
-137
-142
-139
-139
-151
-155
-149
-146
-139
-139
-133
-142
-135
-129
-123
-133
-132
-134
-140
-135
-149
-164
-144
-116
-138
-151
-148
-136
-136
-146
-143
-139
-131
-127
-138
-141
-146
-152
-140
-123
-135
-132
-125
-127
-135
-134
-127
-129
-133
-124
-132
-148
-127
-125
-138
-137
-129
-132
-139
-137
-137
-122
-117
-115
-125
-124
-134
-126
-120
-127
-129
-126
-127
-123
-137
-137
-126
-137
-146
-136
-135
-132
-134
-123
-127
-147
-141
-141
-143
-141
-139
-138
-140
-129
-145
-137
-136
-127
-134
-133
-128
-140
-138
-142
-133
-148
-159
-137
-116
-121
-133
-125
-126
-117
-128
-144
-144
-131
-109
-112
-106
-103
-76
-65
-49
-22
-10
-6
-8
-7
-11
-42
-54
-68
-68
-68
-95
-121
-126
-123
-119
-113
-114
-120
-123
-128
-139
-134
-143
-131
-114
-123
-126
-119
-123
-134
-129
-122
-125
-142
-117
-124
-131
-132
-130
-128
-126
-125
-116
-113
-126
-117
-110
-127
-125
-120
-127
-118
-113
-130
-132
-127
-114
-123
-127
-143
-115
-111
-108
-118
-112
-127
-117
-112
-116
-115
-121
-113
-117
-113
-108
-105
-126
-129
-118
-106
-98
-101
-121
-113
-117
-121
-103
-103
-126
-126
-88
-84
-103
-104
-92
-89
-101
-92
-92
-96
-107
-91
-84
-69
-77
-94
-80
-81
-88
-96
-104
-83
-73
-83
-79
-74
-76
-77
-79
-85
-73
-79
-85
-88
-88
-72
-89
-97
-83
-74
-75
-86
-91
-88
-81
-81
-70
-98
-120
-120
-127
-138
-119
-103
-99
-105
-106
-110
-105
-113
-123
-118
-120
-130
-121
-118
-117
-109
-113
-115
-126
-126
-115
-123
-138
-114
-106
-107
-109
-126
-136
-120
-99
-115
-121
-116
-111
-111
-116
-121
-122
-123
-117
-111
-111
-115
-113
-110
-118
-115
-119
-122
-129
-122
-120
-108
-108
-111
-120
-119
-130
-123
-113
-116
-123
-117
-105
-117
-113
-108
-111
-114
-127
-130
-121
-105
-111
-106
-106
-107
-117
-114
-117
-119
-112
-117
-120
-117
-107
-109
-114
-119
-118
-127
-120
-117
-117
-121
-117
-117
-126
-118
-108
-101
-87
-101
-116
-119
-111
-109
-116
-125
-131
-119
-113
-97
-101
-119
-115
-120
-114
-111
-104
-113
-114
-121
-125
-108
-117
-118
-116
-111
-109
-105
-109
-125
-127
-106
-98
-115
-118
-123
-111
-113
-103
-102
-105
-98
-100
-104
-118
-121
-120
-107
-92
-99
-106
-109
-110
-108
-105
-99
-105
-106
-97
-102
-112
-112
-100
-85
-94
-89
-112
-115
-90
-91
-107
-109
-112
-106
-107
-102
-115
-99
-96
-102
-121
-132
-114
-114
-92
-115
-116
-119
-100
-116
-112
-118
-106
-112
-99
-86
-116
-107
-103
-108
-121
-122
-112
-118
-116
-116
-119
-115
-105
-98
-112
-109
-102
-99
-103
-106
-103
-103
-91
-82
-80
-55
-31
-26
-3
-1
19
24
31
31
18
-13
-41
-52
-69
-82
-100
-106
-98
-100
-86
-98
-106
-101
-91
-96
-101
-108
-106
-102
-102
-96
-108
-117
-111
-124
-115
-85
-84
-94
-104
-104
-102
-102
-92
-83
-104
-116
-111
-96
-90
-105
-109
-108
-99
-113
-107
-99
-97
-91
-92
-100
-109
-99
-99
-99
-108
-100
-109
-100
-95
-86
-81
-89
-101
-97
-98
-89
-85
-81
-97
-102
-105
-99
-86
-96
-85
-77
-88
-87
-92
-90
-98
-95
-82
-93
-96
-84
-94
-88
-77
-77
-76
-75
-66
-71
-87
-83
-68
-75
-88
-86
-70
-64
-63
-62
-71
-74
-66
-49
-70
-82
-78
-80
-72
-66
-63
-65
-69
-72
-76
-83
-75
-83
-100
-83
-78
-64
-71
-83
-79
-78
-87
-88
-93
-114
-109
-98
-100
-116
-113
-106
-103
-106
-114
-116
-120
-100
-100
-107
-109
-116
-121
-120
-122
-128
-118
-122
-113
-117
-123
-126
-118
-107
-106
-107
-111
-111
-112
-121
-134
-119
-108
-115
-120
-129
-113
-112
-118
-106
-109
-114
-106
-108
-125
-121
-109
-118
-123
-119
-116
-115
-111
-125
-124
-112
-112
-131
-118
-114
-103
-113
-116
-122
-126
-125
-115
-106
-103
-115
-107
-121
-118
-115
-114
-123
-121
-120
-104
-101
-110
-120
-128
-132
-137
-118
-119
-106
-108
-107
-106
-112
-110
-113
-124
-122
-111
-116
-113
-120
-118
-117
-108
-111
-125
-108
-102
-112
-109
-120
-120
-118
-116
-117
-112
-113
-105
-102
-102
-121
-122
-123
-119
-123
-118
-126
-109
-119
-121
-91
-101
-106
-108
-115
-122
-122
-111
-114
-116
-116
-113
-106
-99
-100
-106
-108
-97
-97
-106
-115
-112
-114
-106
-102
-98
-103
-98
-112
-116
-105
-117
-110
-119
-122
-111
-83
-99
-108
-88
-83
-101
-120
-112
-111
-110
-101
-98
-109
-114
-108
-120
-121
-122
-108
-114
-109
-115
-116
-107
-91
-95
-110
-114
-107
-114
-110
-106
-116
-116
-124
-132
-132
-98
-102
-111
-112
-119
-115
-106
-108
-116
-108
-110
-110
-114
-97
-91
-76
-75
-65
-47
-29
-14
1
3
14
9
14
-12
-22
-46
-53
-65
-75
-82
-112
-94
-86
-100
-99
-100
-101
-101
-106
-118
-124
-121
-103
-88
-93
-102
-101
-102
-106
-108
-106
-102
-105
-103
-108
-105
-95
-94
-108
-116
-123
-99
-102
-104
-99
-93
-94
-114
-115
-106
-106
-108
-100
-120
-102
-95
-87
-97
-105
-112
-115
-107
-86
-96
-97
-92
-89
-103
-97
-94
-80
-98
-98
-91
-86
-92
-88
-87
-99
-87
-74
-75
-84
-87
-94
-98
-97
-71
-72
-68
-63
-72
-86
-85
-90
-91
-70
-60
-71
-71
-67
-58
-52
-62
-61
-60
-71
-72
-73
-53
-41
-57
-72
-55
-59
-52
-52
-58
-73
-60
-53
-46
-51
-61
-62
-71
-58
-50
-51
-58
-67
-73
-78
-67
-72
-81
-79
-81
-89
-76
-79
-93
-98
-98
-92
-83
-85
-92
-91
-83
-83
-94
-85
-86
-106
-108
-111
-103
-96
-99
-98
-103
-100
-89
-85
-88
-93
-90
-90
-92
-111
-106
-88
-86
-95
-105
-93
-92
-97
-100
-91
-81
-82
-93
-106
-80
-98
-97
-80
-82
-84
-91
-96
-87
-85
-82
-94
-114
-96
-75
-82
-85
-84
-93
-91
-81
-82
-100
-106
-107
-94
-63
-61
-87
-106
-97
-92
-93
-72
-60
-91
-109
-115
-95
-93
-86
-76
-77
-90
-85
-84
-95
-104
-106
-98
-84
-87
-87
-77
-79
-83
-79
-101
-110
-101
-89
-79
-77
-91
-81
-94
-94
-93
-112
-119
-100
-82
-80
-85
-94
-80
-93
-107
-85
-88
-70
-85
-88
-92
-84
-89
-88
-80
-75
-73
-93
-86
-81
-84
-81
-76
-96
-95
-85
-79
-78
-77
-84
-87
-87
-83
-78
-73
-86
-83
-69
-72
-72
-73
-76
-85
-80
-89
-74
-76
-76
-70
-71
-82
-93
-83
-77
-85
-95
-105
-93
-86
-87
-62
-73
-84
-88
-85
-86
-90
-79
-73
-83
-86
-84
-86
-92
-87
-81
-89
-85
-77
-75
-83
-101
-90
-89
-83
-89
-84
-81
-79
-74
-67
-76
-86
-84
-68
-70
-70
-33
4
6
28
33
42
44
42
19
13
1
-21
-28
-46
-62
-90
-89
-81
-67
-70
-62
-64
-76
-92
-81
-64
-75
-84
-74
-75
-71
-68
-77
-78
-66
-71
-75
-78
-70
-70
-74
-80
-71
-80
-67
-65
-63
-73
-76
-86
-82
-74
-66
-63
-59
-63
-80
-72
-86
-96
-84
-77
-50
-64
-81
-81
-67
-81
-77
-69
-66
-68
-56
-74
-72
-55
-60
-82
-75
-65
-78
-78
-72
-72
-70
-72
-63
-65
-66
-50
-63
-83
-74
-73
-79
-71
-53
-35
-50
-76
-81
-51
-33
-44
-37
-45
-52
-53
-53
-46
-50
-45
-44
-51
-48
-52
-53
-54
-41
-43
-52
-47
-28
-40
-38
-40
-42
-49
-48
-47
-46
-46
-48
-51
-46
-45
-65
-74
-71
-85
-90
-92
-71
-59
-65
-53
-75
-86
-85
-89
-101
-109
-80
-83
-85
-96
-102
-100
-93
-90
-94
-97
-111
-77
-92
-97
-90
-105
-109
-107
-94
-90
-85
-90
-96
-87
-91
-97
-109
-106
-105
-112
-117
-107
-92
-88
-105
-100
-90
-100
-102
-107
-100
-103
-116
-93
-92
-105
-101
-109
-107
-105
-105
-97
-94
-105
-101
-116
-110
-108
-107
-79
-84
-81
-96
-98
-111
-104
-105
-116
-107
-88
-96
-97
-99
-104
-112
-109
-106
-106
-99
-94
-109
-109
-95
-92
-96
-108
-101
-95
-94
-89
-109
-112
-100
-87
-97
-107
-95
-83
-84
-112
-107
-108
-93
-105
-99
-87
-77
-93
-87
-89
-86
-95
-86
-88
-90
-103
-109
-100
-80
-83
-88
-98
-95
-66
-73
-82
-93
-87
-83
-86
-87
-89
-83
-82
-92
-94
-92
-72
-80
-89
-92
-76
-94
-97
-100
-87
-94
-98
-91
-85
-98
-105
-98
-107
-98
-75
-91
-90
-85
-86
-97
-104
-105
-93
-85
-82
-95
-103
-91
-83
-90
-95
-94
-92
-101
-96
-95
-94
-83
-91
-73
-86
-88
-90
-92
-80
-70
-74
-48
-34
-32
3
41
43
46
42
18
0
-12
-17
-24
-43
-48
-77
-83
-82
-90
-92
-79
-73
-70
-85
-84
-90
-81
-87
-89
-98
-93
-84
-87
-91
-96
-86
-85
-72
-83
-96
-95
-99
-96
-85
-84
-93
-85
-83
-89
-79
-80
-89
-89
-77
-93
-108
-102
-70
-66
-95
-108
-92
-67
-71
-72
-74
-68
-82
-88
-77
-78
-83
-90
-76
-83
-86
-77
-79
-74
-87
-65
-74
-83
-83
-73
-83
-77
-70
-69
-68
-67
-77
-84
-82
-66
-62
-63
-69
-60
-57
-61
-70
-63
-62
-71
-69
-43
-45
-57
-57
-46
-58
-44
-48
-50
-55
-46
-49
-50
-52
-40
-38
-44
-52
-56
-48
-48
-56
-50
-47
-44
-62
-53
-54
-59
-68
-69
-72
-64
-64
-74
-75
-73
-79
-96
-81
-76
-78
-78
-89
-81
-84
-89
-95
-105
-94
-98
-93
-79
-77
-85
-92
-88
-79
-98
-108
-100
-96
-95
-95
-102
-102
-96
-73
-89
-102
-110
-111
-104
-101
-79
-86
-89
-94
-100
-107
-82
-85
-98
-92
-110
-94
-79
-86
-88
-84
-92
-105
-95
-94
-97
-103
-99
-93
-99
-102
-120
-107
-81
-78
-102
-91
-89
-96
-97
-98
-105
-104
-91
-93
-94
-84
-91
-84
-93
-103
-94
-98
-95
-95
-95
-89
-93
-103
-103
-90
-88
-92
-106
-89
-94
-99
-91
-97
-109
-119
-100
-92
-85
-92
-99
-91
-98
-107
-95
-86
-97
-118
-108
-93
-90
-86
-88
-85
-111
-118
-108
-94
-94
-106
-100
-97
-95
-91
-83
-96
-96
-92
-98
-111
-109
-111
-108
-94
-92
-77
-78
-89
-85
-97
-94
-84
-90
-97
-101
-99
-102
-91
-87
-91
-93
-95
-93
-109
-93
-101
-96
-110
-99
-92
-100
-103
-98
-105
-106
-102
-125
-115
-109
-101
-98
-102
-92
-92
-91
-90
-95
-108
-106
-102
-104
-100
-94
-98
-99
-101
-105
-123
-111
-99
-107
-113
-106
-98
-91
-94
-99
-96
-71
-81
-67
-54
-44
-32
-18
2
25
28
45
28
6
2
-17
-31
-42
-65
-85
-83
-73
-93
-104
-104
-94
-102
-96
-93
-101
-102
-86
-101
-107
-100
-106
-102
-98
-94
-99
-99
-105
-98
-88
-85
-97
-105
-114
-97
-86
-90
-91
-96
-86
-82
-97
-111
-93
-86
-96
-99
-99
-93
-91
-87
-102
-113
-107
-111
-107
-97
-81
-88
-90
-96
-86
-101
-103
-102
-97
-105
-89
-86
-74
-87
-106
-112
-80
-86
-88
-65
-64
-89
-90
-87
-89
-103
-96
-75
-87
-88
-77
-65
-70
-79
-87
-70
-83
-84
-82
-59
-58
-54
-67
-63
-62
-71
-75
-73
-67
-54
-55
-67
-65
-60
-62
-63
-65
-63
-68
-59
-63
-64
-62
-72
-79
-76
-73
-66
-76
-72
-73
-75
-83
-80
-80
-86
-92
-99
-106
-93
-85
-93
-95
-104
-99
-101
-106
-104
-100
-100
-100
-107
-107
-100
-111
-118
-121
-112
-102
-110
-110
-103
-98
-108
-99
-105
-107
-122
-116
-105
-123
-107
-110
-107
-108
-110
-111
-117
-108
-88
-98
-110
-109
-109
-108
-106
-114
-111
-114
-100
-91
-99
-105
-117
-129
-112
-105
-113
-108
-93
-101
-102
-111
-105
-96
-111
-116
-123
-115
-103
-119
-134
-109
-100
-110
-105
-100
-111
-97
-98
-105
-108
-103
-110
-107
-112
-109
-111
-122
-102
-104
-105
-102
-123
-130
-120
-97
-104
-110
-116
-108
-102
-100
-108
-113
-119
-112
-111
-108
-103
-112
-102
-100
-114
-119
-116
-111
-103
-108
-106
-116
-112
-103
-105
-99
-94
-108
-116
-113
-109
-115
-110
-113
-117
-122
-116
-96
-104
-110
-108
-98
-101
-112
-113
-116
-93
-95
-107
-109
-105
-111
-118
-109
-104
-106
-109
-96
-99
-101
-105
-95
-103
-98
-106
-106
-110
-113
-107
-85
-93
-105
-99
-96
-116
-111
-97
-100
-112
-99
-102
-105
-100
-107
-122
-114
-109
-122
-133
-108
-115
-100
-94
-106
-108
-117
-108
-111
-121
-116
-111
-102
-104
-104
-99
-96
-100
-109
-101
-99
-132
-119
-106
-104
-104
-100
-103
-106
-91
-83
-85
-92
-70
-35
-26
-25
18
26
18
20
17
11
-11
-32
-40
-36
-61
-79
-89
-94
-101
-105
-90
-88
-95
-102
-105
-95
-106
-103
-88
-101
-107
-104
-101
-95
-92
-99
-105
-104
-104
-111
-113
-90
-89
-86
-102
-95
-103
-114
-105
-99
-74
-96
-103
-104
-103
-86
-80
-100
-107
-91
-93
-103
-94
-101
-104
-93
-72
-89
-89
-88
-76
-87
-93
-108
-105
-96
-82
-81
-91
-98
-103
-81
-83
-86
-90
-99
-76
-75
-85
-77
-83
-91
-84
-78
-75
-78
-82
-89
-89
-64
-57
-67
-65
-55
-68
-66
-66
-66
-58
-65
-63
-65
-62
-59
-53
-66
-63
-61
-52
-63
-56
-46
-61
-54
-36
-47
-49
-46
-47
-59
-62
-57
-52
-53
-62
-59
-57
-54
-59
-60
-66
-78
-89
-86
-83
-77
-69
-79
-82
-79
-84
-95
-83
-97
-102
-91
-89
-79
-94
-104
-107
-98
-102
-93
-90
-83
-75
-85
-91
-82
-90
-104
-103
-88
-93
-95
-100
-91
-82
-93
-97
-92
-85
-90
-99
-94
-83
-99
-88
-91
-95
-93
-92
-93
-96
-87
-95
-105
-80
-79
-87
-102
-76
-81
-93
-85
-95
-98
-98
-84
-89
-84
-85
-87
-82
-91
-96
-86
-87
-89
-94
-92
-85
-89
-84
-89
-95
-93
-89
-88
-94
-81
-86
-95
-71
-63
-98
-96
-90
-101
-99
-89
-90
-88
-77
-83
-81
-80
-89
-85
-87
-95
-100
-92
-82
-85
-84
-88
-92
-100
-92
-72
-80
-86
-80
-77
-78
-78
-84
-91
-84
-79
-87
-88
-81
-73
-85
-79
-77
-62
-83
-89
-79
-74
-86
-82
-83
-95
-91
-88
-96
-102
-87
-76
-89
-80
-78
-78
-76
-77
-76
-84
-88
-71
-64
-65
-72
-71
-79
-80
-82
-72
-64
-67
-65
-65
-74
-81
-75
-77
-84
-88
-68
-57
-59
-61
-68
-62
-63
-76
-74
-59
-69
-66
-70
-77
-85
-76
-69
-61
-64
-72
-75
-65
-62
-71
-80
-75
-73
-75
-69
-74
-77
-73
-62
-65
-73
-73
-74
-79
-69
-62
-78
-75
-71
-69
-73
-69
-70
-72
-68
-61
-61
-67
-77
-80
-78
-53
-54
-59
-34
-19
29
42
43
55
72
73
66
43
27
12
10
-15
-5
-29
-40
-58
-57
-53
-59
-53
-63
-64
-52
-49
-45
-51
-60
-79
-79
-47
-45
-62
-41
-42
-58
-74
-72
-62
-50
-48
-54
-53
-52
-60
-54
-53
-45
-57
-63
-61
-61
-47
-47
-59
-62
-68
-76
-49
-41
-53
-65
-48
-33
-50
-47
-39
-57
-58
-50
-43
-42
-36
-37
-57
-50
-41
-43
-53
-49
-48
-43
-37
-48
-43
-35
-40
-41
-35
-28
-30
-30
-50
-54
-44
-30
-26
-34
-34
-12
-29
-16
4
-17
-35
-37
-28
-32
-13
-4
-15
-26
-24
-7
-2
-14
0
4
-10
-7
-28
-34
-13
10
5
2
5
-13
-12
-19
-15
-21
-12
-11
-23
-34
-10
-28
-37
-33
-21
-28
-22
-30
-33
-38
-38
-47
-42
-50
-45
-38
-47
-41
-43
-39
-51
-52
-45
-56
-56
-43
-50
-54
-51
-46
-57
-55
-51
-49
-60
-51
-53
-58
-63
-40
-29
-52
-50
-42
-46
-47
-49
-60
-47
-42
-44
-56
-46
-42
-45
-45
-41
-41
-51
-57
-38
-44
-46
-42
-49
-53
-62
-40
-42
-61
-52
-42
-36
-43
-43
-38
-57
-63
-67
-60
-41
-34
-36
-39
-48
-40
-47
-62
-47
-36
-27
-30
-41
-45
-48
-44
-40
-38
-50
-43
-46
-45
-53
-53
-58
-42
-27
-24
-26
-37
-58
-56
-48
-40
-45
-36
-39
-52
-48
-54
-70
-44
-30
-41
-38
-42
-50
-37
-38
-29
-42
-54
-47
-52
-56
-45
-46
-44
-47
-56
-42
-42
-50
-52
-53
-60
-59
-47
-41
-53
-48
-45
-33
-30
-9
-21
-48
-50
-60
-57
-71
-52
-41
-36
-38
-46
-39
-39
-33
-47
-67
-57
-66
-75
-49
-28
-37
-64
-57
-46
-44
-59
-70
-49
-44
-45
-57
-55
-50
-43
-50
-59
-65
-57
-60
-42
-48
-56
-61
-98
-71
-42
-45
-40
-50
-53
-68
-73
-67
-51
-47
-16
5
7
5
20
27
46
59
77
80
55
40
33
13
1
-15
-21
-48
-58
-55
-58
-59
-48
-38
-43
-46
-45
-43
-42
-35
-35
-58
-75
-69
-59
-54
-22
-36
-49
-59
-64
-49
-52
-44
-35
-44
-60
-49
-44
-59
-49
-42
-53
-51
-48
-52
-51
-54
-62
-53
-45
-44
-65
-43
-27
-41
-62
-46
-35
-45
-53
-48
-48
-43
-41
-52
-48
-47
-48
-41
-32
-30
-41
-29
-42
-50
-46
-40
-43
-42
-49
-41
-54
-50
-26
-29
-48
-36
-27
-26
-28
-25
-22
-28
-15
-14
-21
-24
-27
-26
-12
-12
-15
-21
-13
-10
-6
2
-10
-11
-10
-13
-5
-11
-14
-15
-9
-7
-12
-10
6
-5
-19
-16
-11
-9
-12
-31
-31
-12
-21
-36
-28
-22
-46
-40
-27
-45
-48
-36
-33
-49
-43
-30
-49
-47
-54
-44
-48
-53
-72
-66
-54
-38
-48
-46
-39
-48
-51
-50
-52
-43
-49
-45
-51
-50
-43
-48
-56
-57
-50
-40
-48
-61
-46
-45
-53
-58
-55
-62
-56
-48
-46
-44
-59
-41
-28
-47
-59
-73
-51
-48
-51
-48
-49
-53
-58
-62
-60
-41
-39
-39
-27
-26
-38
-57
-56
-52
-51
-44
-53
-47
-51
-59
-51
-59
-48
-55
-54
-41
-35
-59
-48
-48
-42
-34
-45
-65
-53
-41
-48
-53
-46
-45
-59
-47
-39
-41
-50
-51
-48
-49
-40
-38
-35
-46
-52
-64
-67
-60
-47
-39
-38
-51
-57
-64
-61
-53
-41
-44
-43
-32
-39
-37
-60
-42
-30
-42
-44
-40
-51
-49
-29
-24
-46
-42
-45
-45
-37
-35
-43
-48
-40
-43
-53
-47
-50
-39
-39
-54
-87
-76
-52
-37
-35
-51
-64
-48
-32
-49
-61
-55
-40
-49
-52
-44
-49
-46
-60
-48
-47
-57
-51
-50
-43
-43
-53
-50
-57
-60
-62
-60
-75
-82
-53
-34
-40
-38
-28
-39
-36
-27
-22
-6
9
24
49
55
61
55
53
40
33
16
4
-20
-19
-13
-35
-60
-53
-36
-36
-43
-49
-47
-58
-55
-55
-60
-52
-68
-80
-67
-45
-46
-27
-29
-53
-66
-60
-45
-45
-60
-62
-59
-77
-66
-54
-38
-43
-46
-51
-51
-46
-50
-70
-71
-59
-72
-48
-37
-40
-47
-46
-46
-50
-53
-46
-46
-53
-45
-46
-53
-53
-51
-54
-40
-37
-47
-53
-45
-51
-53
-56
-55
-52
-32
-31
-44
-53
-50
-47
-37
-44
-39
-43
-46
-45
-47
-49
-30
-29
-41
-39
-31
-18
-15
-17
-32
-42
-23
-24
2
-16
-22
-25
-14
-18
-29
-17
-21
-25
-24
-15
-21
-23
-7
-5
-7
-18
-29
-24
-39
-23
-17
-24
-39
-41
-31
-33
-23
-37
-53
-52
-51
-54
-38
-44
-45
-44
-61
-61
-64
-62
-64
-67
-66
-76
-82
-75
-62
-76
-57
-62
-63
-62
-65
-64
-63
-67
-76
-68
-74
-81
-92
-65
-68
-69
-65
-61
-67
-63
-69
-50
-66
-79
-76
-73
-83
-91
-88
-75
-63
-63
-66
-60
-65
-67
-72
-69
-73
-80
-78
-55
-59
-71
-74
-72
-69
-74
-75
-70
-67
-70
-67
-65
-73
-78
-78
-78
-68
-69
-73
-72
-71
-70
-57
-49
-67
-75
-73
-72
-71
-73
-93
-77
-75
-68
-64
-56
-65
-74
-71
-64
-68
-82
-84
-87
-71
-64
-70
-71
-60
-65
-73
-79
-86
-73
-73
-72
-71
-73
-71
-75
-69
-86
-70
-79
-80
-65
-72
-76
-71
-71
-72
-73
-62
-70
-71
-58
-55
-79
-66
-70
-96
-94
-83
-63
-59
-62
-67
-69
-66
-70
-69
-61
-66
-83
-81
-70
-64
-66
-60
-64
-65
-63
-51
-60
-61
-68
-82
-73
-78
-80
-79
-72
-80
-80
-72
-76
-83
-74
-70
-69
-82
-77
-85
-88
-82
-81
-71
-66
-72
-79
-82
-83
-87
-71
-67
-99
-77
-62
-66
-79
-72
-72
-82
-86
-76
-67
-73
-60
-67
-74
-65
-50
-40
-32
-11
16
35
39
46
67
64
27
15
2
9
-17
-33
-56
-55
-57
-66
-64
-70
-67
-65
-60
-53
-64
-74
-76
-69
-86
-92
-82
-63
-73
-78
-65
-65
-81
-74
-73
-83
-78
-64
-57
-67
-57
-67
-81
-73
-68
-55
-53
-59
-67
-74
-71
-58
-69
-75
-81
-67
-52
-56
-62
-66
-68
-73
-80
-61
-54
-61
-55
-58
-54
-63
-61
-64
-63
-69
-80
-60
-32
-47
-58
-64
-46
-49
-55
-54
-60
-50
-34
-40
-54
-61
-52
-41
-36
-50
-58
-52
-47
-35
-41
-46
-31
-22
-45
-35
-42
-24
-16
-18
-27
-23
-20
-40
-33
-21
-31
-26
-16
-17
-23
-22
-13
-14
-18
-26
-36
-29
-22
-38
-31
-29
-29
-39
-51
-62
-49
-37
-37
-54
-34
-24
-42
-56
-60
-65
-70
-81
-64
-51
-46
-39
-48
-72
-75
-67
-67
-67
-61
-62
-62
-67
-64
-64
-62
-62
-70
-80
-82
-73
-60
-58
-66
-74
-65
-67
-67
-57
-54
-62
-77
-79
-72
-69
-67
-52
-59
-68
-61
-63
-67
-72
-68
-69
-55
-64
-68
-55
-63
-78
-66
-70
-99
-78
-68
-54
-59
-69
-61
-68
-64
-65
-86
-81
-80
-75
-83
-51
-43
-48
-55
-66
-70
-71
-65
-67
-71
-72
-67
-70
-74
-71
-77
-76
-76
-58
-56
-56
-68
-76
-88
-67
-63
-74
-73
-62
-69
-68
-62
-61
-70
-77
-80
-76
-84
-89
-58
-54
-73
-57
-50
-72
-99
-72
-66
-73
-83
-74
-67
-73
-74
-75
-71
-63
-69
-83
-75
-57
-85
-96
-78
-62
-53
-77
-73
-74
-73
-61
-69
-74
-77
-76
-69
-63
-75
-78
-64
-64
-69
-74
-67
-58
-64
-71
-63
-82
-75
-73
-67
-61
-68
-66
-69
-72
-78
-76
-76
-56
-59
-68
-73
-72
-71
-63
-55
-67
-65
-71
-71
-65
-64
-64
-83
-84
-73
-75
-67
-63
-71
-78
-70
-69
-90
-86
-71
-76
-72
-71
-71
-70
-58
-89
-89
-74
-75
-71
-75
-87
-87
-76
-68
-70
-69
-72
-85
-92
-68
-55
-66
-86
-77
-67
-50
-41
-36
-21
1
23
33
42
36
50
67
43
29
7
0
-2
-19
-44
-63
-76
-83
-75
-57
-56
-61
-69
-68
-75
-61
-78
-94
-83
-71
-62
-67
-69
-71
-70
-75
-86
-84
-77
-83
-80
-49
-61
-76
-67
-75
-71
-76
-84
-94
-84
-68
-52
-60
-73
-65
-69
-70
-77
-79
-78
-68
-63
-67
-74
-73
-79
-80
-83
-71
-70
-70
-70
-72
-72
-74
-74
-58
-69
-69
-73
-54
-62
-65
-65
-65
-67
-68
-64
-69
-75
-70
-47
-47
-61
-76
-58
-48
-55
-69
-53
-38
-36
-41
-46
-50
-52
-55
-52
-62
-56
-33
-28
-38
-37
-42
-34
-37
-36
-50
-44
-58
-51
-21
-21
-13
-26
-51
-51
-51
-33
-40
-60
-38
-37
-53
-63
-61
-54
-55
-47
-43
-61
-73
-72
-66
-72
-81
-86
-77
-69
-77
-78
-77
-72
-77
-97
-96
-73
-67
-69
-81
-87
-86
-86
-88
-98
-81
-95
-101
-97
-61
-72
-82
-82
-85
-86
-83
-74
-90
-82
-81
-84
-90
-82
-83
-86
-86
-86
-98
-87
-72
-83
-95
-100
-87
-82
-97
-94
-101
-99
-76
-72
-83
-81
-89
-77
-93
-91
-97
-93
-90
-92
-88
-89
-89
-74
-86
-90
-80
-79
-89
-91
-86
-93
-91
-84
-97
-87
-103
-103
-102
-85
-92
-86
-97
-92
-85
-71
-81
-77
-82
-96
-95
-88
-87
-83
-99
-110
-96
-84
-76
-84
-82
-83
-93
-99
-94
-92
-89
-90
-102
-107
-109
-96
-114
-87
-83
-81
-92
-75
-81
-80
-84
-89
-90
-96
-82
-81
-82
-84
-90
-104
-98
-89
-91
-93
-92
-90
-88
-88
-87
-103
-90
-97
-95
-82
-82
-95
-88
-98
-111
-100
-94
-93
-95
-103
-82
-71
-72
-83
-89
-85
-96
-98
-83
-83
-92
-87
-89
-95
-91
-85
-89
-94
-82
-85
-80
-81
-85
-84
-76
-77
-84
-97
-92
-77
-85
-82
-85
-83
-81
-81
-83
-81
-70
-81
-82
-82
-77
-82
-102
-88
-80
-93
-86
-88
-89
-86
-93
-102
-94
-79
-77
-87
-97
-94
-85
-91
-95
-106
-104
-80
-82
-94
-88
-89
-80
-81
-96
-96
-105
-87
-79
-92
-89
-79
-87
-86
-80
-77
-79
-81
-81
-88
-81
-46
-42
-53
-14
22
26
32
37
27
34
27
16
21
-9
-23
-47
-56
-73
-78
-86
-83
-80
-70
-72
-74
-73
-89
-77
-83
-90
-100
-93
-86
-76
-69
-81
-83
-74
-91
-93
-85
-84
-83
-79
-89
-84
-87
-100
-101
-85
-79
-77
-76
-80
-71
-91
-89
-96
-84
-79
-75
-88
-90
-78
-68
-65
-69
-82
-89
-85
-73
-68
-61
-73
-61
-72
-91
-93
-78
-82
-83
-82
-73
-74
-86
-98
-61
-58
-65
-64
-85
-77
-72
-70
-68
-53
-65
-67
-72
-66
-58
-42
-44
-59
-72
-60
-54
-64
-66
-57
-51
-49
-55
-53
-52
-45
-55
-44
-35
-51
-63
-69
-42
-24
-37
-45
-52
-54
-38
-33
-39
-37
-44
-56
-44
-31
-42
-53
-65
-61
-71
-74
-69
-63
-64
-73
-72
-75
-74
-94
-90
-77
-73
-98
-84
-80
-73
-75
-81
-94
-100
-82
-63
-72
-90
-81
-83
-96
-85
-87
-91
-91
-82
-75
-75
-90
-93
-89
-82
-83
-87
-90
-89
-92
-91
-88
-94
-89
-81
-76
-86
-82
-90
-87
-87
-84
-84
-86
-96
-88
-98
-95
-98
-95
-68
-63
-77
-117
-109
-60
-70
-82
-89
-87
-78
-76
-83
-81
-90
-89
-73
-68
-74
-88
-90
-85
-80
-90
-101
-85
-59
-74
-83
-71
-89
-94
-88
-91
-91
-77
-64
-71
-76
-79
-84
-79
-81
-82
-79
-85
-92
-85
-75
-87
-86
-75
-82
-83
-83
-76
-76
-69
-85
-88
-80
-76
-94
-96
-87
-87
-72
-64
-66
-74
-87
-85
-84
-76
-79
-86
-87
-86
-72
-67
-85
-84
-89
-87
-68
-70
-72
-74
-76
-88
-90
-77
-76
-78
-71
-72
-74
-74
-77
-86
-88
-88
-84
-75
-73
-84
-90
-82
-92
-74
-66
-67
-78
-87
-91
-72
-69
-76
-75
-78
-77
-87
-93
-80
-82
-82
-49
-52
-72
-85
-84
-55
-47
-59
-66
-74
-70
-63
-65
-63
-67
-65
-69
-64
-63
-76
-65
-68
-70
-64
-60
-76
-70
-70
-79
-77
-83
-85
-65
-71
-79
-91
-82
-74
-70
-79
-80
-74
-64
-83
-82
-78
-87
-78
-75
-77
-55
-56
-73
-71
-64
-83
-71
-57
-68
-80
-77
-87
-68
-68
-57
-48
-69
-69
-59
-46
-41
-19
11
31
54
49
60
51
36
35
22
-1
-26
-17
-16
-43
-64
-64
-62
-65
-59
-59
-55
-52
-58
-66
-69
-55
-67
-74
-79
-69
-61
-81
-66
-50
-50
-72
-86
-73
-65
-69
-54
-62
-67
-65
-74
-64
-68
-62
-59
-54
-55
-66
-55
-70
-71
-54
-70
-67
-64
-67
-68
-68
-77
-98
-80
-42
-35
-43
-45
-52
-65
-69
-58
-70
-54
-48
-50
-50
-49
-59
-61
-45
-43
-42
-44
-50
-49
-57
-56
-45
-57
-57
-67
-75
-42
-12
-20
-33
-30
-27
-19
-20
-45
-36
-41
-37
-28
-19
-14
-19
-18
-21
-26
-29
-29
-41
-22
-7
-10
-17
-15
-16
-19
-29
-25
-28
-53
-67
-13
10
4
-9
-18
-25
-35
-31
-24
-16
-26
-38
-48
-49
-58
-51
-56
-54
-53
-53
-41
-46
-56
-65
-71
-67
-72
-76
-64
-46
-54
-66
-70
-63
-82
-80
-72
-73
-72
-54
-71
-69
-70
-60
-60
-57
-69
-68
-55
-70
-83
-81
-90
-96
-69
-38
-64
-83
-58
-69
-79
-72
-74
-82
-86
-58
-67
-73
-66
-67
-70
-78
-73
-65
-68
-61
-69
-85
-78
-61
-65
-74
-75
-79
-66
-71
-89
-98
-87
-63
-47
-54
-54
-59
-75
-94
-77
-77
-90
-73
-59
-60
-52
-61
-67
-69
-79
-77
-75
-65
-76
-78
-87
-85
-79
-65
-67
-70
-69
-70
-73
-63
-58
-70
-68
-77
-84
-94
-73
-66
-56
-73
-83
-90
-73
-66
-60
-72
-66
-69
-64
-64
-74
-78
-71
-74
-71
-72
-61
-59
-55
-64
-66
-67
-71
-59
-62
-54
-61
-74
-96
-85
-61
-65
-65
-64
-61
-59
-58
-48
-61
-69
-62
-59
-55
-53
-56
-63
-51
-58
-66
-64
-57
-34
-31
-58
-86
-75
-83
-76
-70
-70
-80
-60
-54
-66
-72
-69
-65
-92
-81
-64
-47
-60
-60
-60
-62
-63
-78
-66
-53
-60
-72
-70
-56
-62
-60
-59
-58
-69
-71
-58
-58
-63
-54
-63
-61
-72
-56
-60
-48
-39
-23
-10
13
26
29
42
52
57
56
28
13
1
-15
-14
-34
-58
-69
-50
-45
-44
-48
-52
-57
-53
-65
-71
-77
-59
-53
-47
-41
-44
-51
-63
-69
-64
-59
-56
-53
-54
-60
-62
-53
-67
-65
-66
-60
-65
-77
-82
-61
-55
-68
-53
-47
-63
-80
-65
-32
-42
-44
-44
-49
-58
-58
-45
-52
-44
-52
-73
-51
-57
-54
-51
-56
-51
-51
-66
-50
-51
-67
-64
-40
-38
-36
-48
-52
-52
-41
-42
-61
-72
-44
-23
-29
-30
-35
-48
-37
-37
-44
-36
-47
-33
-37
-39
-34
-24
-30
-21
-22
-18
-20
-22
-18
-18
-22
-16
-15
-34
-29
-9
0
-4
-9
-12
-25
-31
-22
-20
-20
-23
-18
-12
-10
-17
-24
-23
-27
-32
-46
-41
-41
-42
-40
-39
-47
-63
-39
-40
-52
-53
-47
-44
-47
-62
-63
-51
-53
-60
-56
-54
-84
-109
-61
-34
-47
-59
-60
-76
-68
-59
-56
-62
-61
-56
-44
-52
-51
-71
-63
-55
-58
-66
-78
-62
-54
-58
-60
-69
-64
-54
-48
-51
-65
-54
-64
-58
-64
-72
-61
-60
-72
-74
-60
-57
-67
-60
-51
-62
-56
-55
-68
-59
-56
-56
-62
-64
-42
-50
-62
-60
-56
-45
-50
-59
-56
-51
-63
-74
-76
-58
-40
-36
-49
-60
-54
-53
-49
-54
-73
-66
-59
-57
-48
-57
-55
-63
-69
-62
-54
-55
-66
-63
-49
-39
-40
-55
-59
-72
-65
-59
-47
-52
-61
-76
-72
-54
-35
-50
-47
-47
-53
-65
-53
-44
-41
-38
-49
-59
-62
-50
-51
-58
-57
-45
-41
-40
-55
-54
-41
-41
-61
-66
-74
-73
-58
-65
-63
-67
-47
-57
-56
-49
-50
-66
-65
-71
-56
-63
-76
-63
-58
-57
-62
-64
-64
-73
-85
-71
-55
-51
-57
-58
-63
-77
-91
-78
-62
-54
-60
-57
-57
-57
-51
-61
-59
-73
-56
-40
-40
-27
-20
0
25
38
29
44
49
53
34
9
-6
-16
-24
-43
-53
-60
-65
-74
-80
-53
-55
-54
-58
-51
-61
-62
-57
-58
-56
-62
-66
-63
-71
-66
-67
-52
-63
-64
-69
-69
-67
-51
-60
-59
-56
-61
-63
-62
-64
-60
-53
-55
-58
-79
-78
-73
-63
-50
-59
-64
-64
-76
-74
-57
-38
-45
-52
-50
-59
-59
-56
-45
-54
-63
-58
-55
-53
-59
-56
-61
-72
-71
-38
-47
-50
-54
-48
-42
-45
-51
-44
-45
-49
-54
-47
-42
-44
-51
-59
-52
-38
-31
-26
-37
-31
-30
-36
-30
-30
-25
-26
-23
-25
-23
-29
-36
-37
-25
-23
-24
-49
-26
-23
-5
-7
-18
-26
-21
