35
33
26
25
29
27
33
33
31
34
33
34
29
38
33
27
27
31
34
29
27
24
31
28
26
27
28
26
36
28
25
22
28
28
29
29
24
24
27
30
26
26
27
28
27
28
28
24
19
26
17
23
31
31
31
23
25
30
31
31
26
34
40
29
34
34
38
36
27
34
30
37
40
43
37
43
36
36
39
35
39
40
37
27
27
39
40
37
34
32
40
43
41
48
41
36
31
29
29
27
24
29
26
28
23
22
21
17
12
18
25
24
25
25
20
23
17
18
26
24
16
24
22
29
29
23
21
20
19
28
29
28
34
36
44
60
76
86
99
118
135
158
166
171
175
179
167
164
145
113
76
66
33
4
-8
-29
-43
-34
-36
-28
-8
-5
-4
3
9
9
11
16
18
13
17
21
20
13
21
27
15
19
17
14
21
31
25
19
19
16
22
23
22
26
28
28
27
27
33
33
30
28
32
31
35
37
41
32
35
39
28
29
44
28
29
38
49
48
41
36
44
46
42
47
53
54
57
54
57
63
61
61
63
63
65
69
71
77
77
81
79
83
83
91
86
91
88
93
100
103
96
100
96
96
102
99
97
96
100
95
95
95
94
98
102
86
94
90
86
82
81
85
80
75
70
68
69
63
58
57
54
56
49
53
55
51
45
46
39
36
40
43
41
36
34
31
35
32
32
26
38
35
28
26
34
29
29
32
31
23
28
23
21
29
27
23
21
31
33
28
25
29
28
25
27
28
23
27
27
27
22
19
28
25
19
23
19
22
18
19
16
13
19
22
21
17
15
24
17
19
25
17
17
18
16
18
10
7
11
13
16
17
16
18
6
12
18
18
10
12
13
16
15
13
10
12
14
18
17
9
11
17
7
5
10
9
12
6
9
13
12
4
7
3
1
6
18
15
15
17
13
18
20
21
23
19
19
20
11
16
19
15
16
23
31
20
23
36
23
26
27
22
23
20
24
19
19
14
21
26
33
24
30
26
31
26
26
26
23
21
19
10
8
11
16
12
18
13
1
12
11
12
12
7
5
6
3
9
12
15
14
13
6
7
4
7
6
7
10
14
14
15
18
10
14
22
32
45
56
81
92
109
123
150
163
175
179
179
166
167
146
112
77
46
24
3
-5
-41
-58
-52
-45
-37
-34
-24
-12
-1
-3
-1
-2
0
8
9
8
0
0
8
8
6
2
5
10
6
12
8
13
8
3
10
19
12
15
9
15
15
12
17
14
13
14
16
14
17
17
19
21
21
22
25
23
26
23
24
26
29
26
29
30
28
23
29
33
32
36
44
47
46
39
44
47
49
48
52
54
48
51
57
70
72
67
67
69
73
73
83
87
78
82
86
85
81
85
88
94
84
77
78
89
86
89
87
77
83
81
77
82
76
70
69
69
63
61
54
57
64
55
49
48
49
55
49
36
37
40
34
30
32
32
27
32
29
28
21
24
22
28
21
21
18
17
18
14
15
25
22
6
8
4
10
24
17
14
11
11
19
14
17
17
15
16
9
16
18
15
21
7
6
3
16
16
13
18
14
16
11
10
10
13
8
13
17
15
11
7
17
12
13
10
5
8
5
6
9
9
10
11
6
10
9
10
13
17
13
2
2
6
6
6
12
9
6
8
0
3
10
5
5
3
3
5
16
11
7
2
-4
-1
6
8
11
8
2
6
5
-1
5
12
2
4
7
6
7
1
5
3
11
6
5
10
16
16
17
10
16
12
8
10
19
18
15
24
13
19
18
13
21
21
15
20
24
21
18
16
18
15
19
27
17
30
27
23
24
26
19
19
22
36
42
23
19
14
16
14
16
11
10
2
6
11
7
3
6
3
11
2
3
7
2
8
13
2
-2
2
7
4
6
7
8
12
12
16
20
32
42
58
84
96
109
127
146
161
173
179
179
169
159
142
114
73
46
20
4
-15
-46
-72
-60
-48
-48
-40
-38
-29
-16
-7
-6
-14
0
-1
2
-6
-13
-5
2
1
2
4
4
-3
-1
0
3
9
6
3
3
1
7
8
4
6
7
10
9
8
3
7
11
11
14
17
15
17
13
16
17
15
20
17
14
17
21
26
19
30
19
23
30
28
26
26
24
36
40
37
41
42
41
42
46
49
50
56
58
51
52
59
58
63
65
73
76
70
75
74
73
75
85
84
82
81
83
84
84
77
77
83
80
80
77
75
75
68
62
62
67
68
61
58
54
56
51
43
47
37
34
38
46
37
35
37
29
25
24
24
20
18
18
15
22
18
13
13
11
10
12
16
9
4
9
4
12
5
8
6
8
5
7
5
7
11
6
2
4
5
6
7
3
5
7
13
2
2
5
5
7
8
8
11
-5
6
7
2
4
7
1
4
10
9
5
2
0
2
2
7
10
1
-2
0
3
-1
2
9
-3
-2
4
-5
-3
-1
1
10
8
2
-2
-1
4
4
-3
-3
-2
-2
-2
-3
5
-3
-9
-1
2
5
5
1
1
-1
-2
-7
0
-6
7
-1
-9
-9
3
1
-3
-9
-2
4
-4
-4
-3
-2
1
-4
-2
-1
7
9
6
10
13
9
11
9
8
3
11
14
6
17
21
14
11
15
14
13
19
20
13
13
11
14
12
13
13
17
24
19
11
23
25
26
20
19
17
4
8
5
6
3
3
0
4
-3
-1
-7
8
5
-3
5
2
0
0
3
2
-7
-3
-3
-6
1
-1
0
4
2
1
-2
-1
4
5
9
7
14
18
41
59
77
95
108
124
146
168
172
176
180
166
153
140
118
79
46
18
1
-20
-61
-74
-75
-66
-58
-42
-31
-24
-22
-21
-17
-14
-4
-5
-11
-7
-5
-5
-8
-5
5
-6
-8
-7
-2
5
5
1
-6
-11
9
5
-1
0
8
-1
2
7
0
4
7
12
9
9
5
12
18
10
9
14
3
17
17
20
23
12
20
21
22
26
18
20
28
20
26
40
34
28
29
32
33
39
40
43
44
51
45
49
51
57
60
57
65
67
70
65
72
74
71
79
75
73
75
81
81
85
77
76
82
80
82
78
78
78
75
76
74
64
65
73
69
55
61
56
58
57
45
51
52
44
39
39
40
31
36
33
27
27
25
22
20
18
19
20
11
14
21
19
13
12
10
10
10
6
9
12
11
13
15
12
8
11
10
14
10
10
7
1
11
16
10
7
8
10
6
15
11
3
8
5
4
11
6
19
5
8
9
10
10
0
1
9
14
15
3
6
1
-3
4
4
12
7
7
0
3
8
2
5
9
-1
-1
9
14
13
2
8
6
0
4
2
-5
1
4
1
5
9
4
-1
5
0
0
-3
2
3
6
0
6
1
-3
-3
1
0
4
0
-2
8
5
3
1
-2
9
11
0
5
5
4
8
8
10
9
7
4
11
7
9
8
13
6
16
18
15
27
16
14
14
18
22
16
20
17
17
11
15
17
14
21
17
21
30
25
18
25
28
13
11
13
10
11
5
0
2
6
5
-1
0
1
0
4
6
6
4
-3
3
2
4
6
1
-1
3
1
7
2
9
3
7
7
14
15
6
11
14
20
29
43
64
81
98
112
131
148
165
169
172
166
162
150
128
88
53
36
3
-29
-50
-76
-76
-67
-55
-44
-33
-28
-24
-11
-14
-10
-2
-6
-4
3
1
-4
-1
9
4
-6
2
-1
-1
8
10
8
8
8
3
6
13
5
2
13
0
5
10
12
3
10
15
17
13
18
11
21
22
15
17
23
22
23
12
17
19
24
33
31
31
25
38
27
25
32
31
42
38
43
43
40
44
44
53
54
54
52
59
61
62
66
64
69
71
76
79
72
72
80
89
91
83
82
83
80
86
85
83
83
78
89
82
83
83
81
74
74
78
76
69
63
68
65
60
59
53
46
50
52
48
51
43
41
38
42
40
33
35
28
33
26
21
14
30
20
17
17
20
20
21
16
21
15
13
16
9
12
12
11
10
14
10
12
17
13
13
9
15
14
8
14
19
25
24
12
11
16
19
15
12
10
17
12
16
12
9
14
15
16
15
18
17
11
12
13
10
13
14
9
13
10
13
4
8
7
7
8
10
14
21
15
6
10
12
10
9
11
6
9
8
8
2
8
14
4
15
15
8
10
12
11
6
10
6
13
11
6
6
13
20
20
9
10
12
16
18
18
15
14
18
16
19
22
31
17
22
21
25
28
24
22
26
20
23
18
22
23
20
22
25
24
24
22
23
26
29
26
23
17
22
23
17
15
17
14
12
8
7
9
11
10
8
12
13
9
7
11
11
6
9
8
12
9
7
5
8
10
7
7
12
12
11
21
18
22
26
23
32
55
69
87
99
116
123
143
167
161
170
161
156
141
119
85
57
38
4
-21
-43
-69
-65
-54
-54
-39
-29
-25
-17
-11
1
3
3
-2
3
3
5
2
1
9
11
9
10
8
0
4
12
16
10
10
9
13
14
11
13
12
16
16
14
15
15
10
20
17
18
17
20
22
23
26
20
23
24
32
24
25
28
27
24
35
40
41
40
35
35
31
41
35
36
45
46
44
48
54
50
56
61
56
65
68
68
66
72
70
75
77
79
85
86
87
92
90
86
93
90
86
84
94
96
93
91
86
89
87
85
83
82
82
79
75
78
75
76
67
63
60
62
56
55
53
47
50
50
45
40
37
33
34
38
36
25
20
25
25
25
17
19
21
20
17
12
25
22
15
13
18
11
20
24
20
16
14
13
16
18
14
18
16
15
11
14
13
12
20
16
13
18
17
13
19
16
16
12
11
15
19
13
19
20
17
18
15
10
11
11
10
17
13
15
15
18
16
10
10
13
11
8
11
18
12
9
7
10
5
8
14
15
11
13
11
7
9
5
8
7
5
9
18
12
9
10
13
4
9
15
12
10
13
12
11
11
13
17
13
17
16
11
16
28
22
14
20
24
24
22
21
24
29
26
23
24
22
21
21
19
21
22
23
25
21
26
24
25
25
25
21
14
12
14
14
13
11
4
11
3
9
7
16
4
5
7
11
9
12
8
0
4
10
10
12
5
6
4
6
6
2
8
14
16
15
13
16
22
30
45
62
81
90
113
129
154
164
166
172
174
162
155
126
98
64
45
17
-6
-24
-57
-68
-63
-56
-39
-34
-22
-16
-20
-5
-11
-5
2
3
3
-1
2
3
4
0
-2
1
8
8
5
4
4
2
1
1
11
12
18
11
6
10
10
9
10
7
7
13
16
17
20
17
18
17
18
21
21
22
23
21
24
24
25
27
25
26
28
31
33
37
35
36
35
40
43
42
39
41
44
39
51
58
58
57
56
59
65
65
64
71
81
76
75
78
80
79
79
85
87
86
82
89
89
88
91
84
83
81
80
77
80
82
75
70
73
72
70
65
65
60
56
54
50
53
47
49
48
45
43
33
33
34
34
31
29
24
24
21
20
13
21
16
13
15
17
17
11
12
13
13
12
16
12
9
11
10
13
6
9
8
11
12
15
8
9
10
13
9
12
10
8
10
10
11
11
13
11
12
11
14
12
10
9
2
13
11
9
7
5
11
16
7
9
9
11
10
11
8
9
9
8
4
5
6
11
9
8
7
3
0
0
8
15
4
6
3
4
5
5
6
12
7
5
7
5
1
4
5
6
2
7
5
4
4
3
9
11
13
9
13
14
11
12
7
16
13
20
15
19
20
21
22
22
26
17
18
17
15
15
12
14
16
19
19
20
21
20
28
29
27
26
23
11
13
11
9
6
12
5
4
5
3
2
1
5
5
5
7
8
0
1
4
4
4
0
3
5
4
6
7
-2
-2
7
3
6
5
10
12
18
24
41
53
67
83
98
115
132
157
172
185
179
169
159
154
136
106
63
39
12
-9
-27
-66
-76
-65
-54
-52
-40
-25
-21
-17
-8
-11
-4
-1
-3
-7
-6
-3
5
2
0
3
3
-2
-7
-2
1
1
4
3
14
14
5
5
3
4
5
1
10
9
6
6
10
10
6
14
17
16
11
16
17
17
18
20
27
25
19
18
23
22
27
30
27
25
26
27
32
29
35
39
37
40
44
43
46
48
50
47
52
60
61
66
69
61
62
66
77
79
80
75
76
83
82
84
82
82
84
83
82
86
82
81
79
76
77
80
78
76
71
67
66
62
58
58
58
61
57
52
51
52
45
40
36
33
32
30
28
31
25
29
25
18
19
23
18
18
13
10
14
14
9
9
13
10
8
8
11
12
11
9
7
6
9
11
12
13
11
8
11
11
8
12
9
8
6
4
7
10
12
12
8
11
13
5
2
8
13
7
12
11
8
8
10
3
6
8
6
7
12
11
4
11
6
5
7
7
4
6
8
9
6
10
7
3
0
2
6
4
6
6
6
4
4
-1
1
12
6
6
5
3
1
3
0
2
-2
4
10
-1
-4
3
2
2
9
2
2
12
13
12
16
8
9
14
15
8
2
14
17
11
15
19
16
19
19
18
18
22
16
18
17
15
13
13
17
23
19
25
27
26
28
23
19
14
17
14
15
12
7
3
10
5
2
3
-1
-1
2
10
9
6
2
2
0
-1
5
4
1
2
3
11
4
4
3
2
1
3
6
4
13
9
12
19
27
38
56
74
90
109
131
154
170
175
177
182
169
158
146
122
73
48
25
0
-10
-45
-78
-73
-63
-54
-48
-36
-23
-10
-5
-9
-6
-4
-1
-2
-7
1
-3
1
-1
-3
-4
-2
6
-1
-1
1
0
3
7
5
10
8
9
8
10
3
9
3
13
10
8
11
13
13
19
16
11
11
15
19
19
29
24
17
29
25
17
25
34
31
29
30
32
35
29
34
37
34
37
36
42
50
51
50
49
55
56
55
59
64
62
66
72
74
79
75
73
76
77
81
78
82
86
89
87
87
82
81
82
84
82
78
78
79
81
75
79
69
66
67
66
60
57
62
60
53
49
47
44
43
44
37
37
39
35
27
26
30
28
21
25
26
27
14
14
16
15
24
10
7
10
14
19
16
15
13
10
13
14
13
12
6
11
15
13
9
13
7
14
16
18
16
7
9
10
11
16
13
6
8
11
13
14
12
10
11
11
13
14
13
10
13
6
13
15
11
8
5
12
19
10
10
11
11
7
10
10
7
10
10
8
10
7
11
9
8
5
5
10
13
9
8
7
8
9
10
5
12
8
10
14
9
4
13
8
5
7
8
9
8
11
6
9
16
9
6
11
12
13
13
12
15
15
13
18
19
18
20
19
23
20
17
21
30
23
18
16
21
27
26
22
30
26
22
22
21
19
30
26
25
30
29
32
27
29
27
23
18
17
17
14
12
7
12
12
12
13
4
9
11
14
10
8
11
10
8
10
12
8
14
9
9
8
13
12
12
18
14
18
10
18
29
23
27
41
55
79
101
114
134
158
173
183
189
192
172
163
150
126
85
56
28
-2
-21
-54
-64
-66
-59
-53
-39
-26
-20
-10
-6
0
0
2
5
-1
10
11
12
14
12
11
3
7
11
8
6
11
20
16
11
10
12
13
21
22
17
18
14
24
25
25
23
26
30
24
30
24
30
25
25
25
29
30
32
29
36
37
33
35
42
45
40
36
39
44
45
49
49
59
60
55
58
58
58
62
63
69
67
70
77
76
77
79
80
84
91
93
94
90
91
96
95
99
98
102
101
104
100
95
96
96
94
98
92
93
91
83
95
89
79
87
81
86
86
76
69
70
68
70
61
57
57
57
59
57
55
54
43
45
43
41
39
41
38
32
36
34
39
32
33
24
28
32
29
31
29
27
28
39
29
21
32
26
24
30
32
31
30
31
31
28
30
29
30
36
36
21
23
29
34
31
23
30
31
27
31
36
30
27
26
25
24
27
30
25
25
27
29
28
28
25
22
22
25
28
33
26
29
26
19
26
28
25
26
36
34
24
20
26
26
24
20
21
23
23
24
27
29
22
21
22
30
22
20
21
28
24
29
23
22
23
24
25
24
23
25
30
30
34
30
35
35
33
27
32
34
37
37
30
37
39
38
46
39
36
39
45
44
39
36
35
33
42
41
45
41
35
47
48
49
47
39
37
34
43
33
35
30
28
25
27
29
23
26
26
23
22
26
22
26
27
31
26
26
33
23
28
31
29
29
28
25
21
28
33
28
31
33
41
47
41
43
57
77
96
106
129
135
154
178
192
187
195
184
169
153
131
94
67
45
11
-8
-39
-48
-43
-33
-26
-19
-16
-1
10
15
11
19
20
25
27
26
23
26
26
33
23
15
22
23
26
24
25
25
26
29
27
30
31
34
32
30
38
34
35
32
35
37
39
36
39
40
42
39
41
39
43
37
46
52
49
48
48
47
51
51
47
56
54
56
63
69
62
65
66
62
71
75
66
70
83
85
84
81
90
87
93
90
95
94
104
105
102
105
105
112
112
112
115
115
118
115
116
116
119
111
113
121
118
111
104
104
108
104
104
101
97
96
96
90
89
86
84
82
79
77
79
71
66
74
74
64
61
63
61
60
55
56
51
48
44
52
49
44
45
46
47
51
47
37
40
43
46
41
46
42
42
40
46
47
47
38
37
43
48
45
44
42
36
35
39
47
48
44
43
42
45
47
44
39
45
42
37
41
47
46
42
43
41
44
42
39
43
42
39
34
44
39
44
44
43
46
37
42
43
43
33
36
41
41
36
39
40
34
37
39
41
38
38
43
38
36
34
37
43
40
37
35
36
42
40
37
39
35
38
36
42
43
49
43
52
43
40
47
45
46
46
46
45
49
52
53
56
50
55
51
54
46
53
51
49
49
47
46
44
48
50
54
52
61
58
56
57
50
49
46
43
38
40
39
39
34
38
37
37
32
35
38
35
34
37
34
35
32
36
41
37
32
38
37
35
44
35
35
31
32
34
39
42
47
43
52
50
60
83
99
112
122
139
156
175
188
194
198
189
186
168
151
111
83
59
35
8
-22
-42
-34
-21
-15
-9
-2
3
7
17
17
25
28
33
34
37
32
26
31
31
30
37
32
34
37
40
39
30
36
42
32
30
34
41
39
42
40
40
46
42
44
44
46
44
38
42
46
49
45
49
49
55
56
54
56
57
52
53
58
60
58
60
61
61
62
67
68
69
67
69
68
74
79
75
75
80
78
89
92
90
95
93
100
101
103
107
116
111
109
118
116
112
114
118
120
117
117
119
120
117
113
115
118
109
111
112
104
106
111
106
95
102
105
100
88
82
89
90
87
78
79
78
69
67
70
68
65
65
58
65
61
58
50
50
48
44
50
49
48
47
48
45
46
46
42
46
42
43
50
47
44
43
42
43
42
42
50
52
44
46
43
38
41
41
43
43
46
46
49
42
46
43
42
43
49
47
47
43
43
41
41
43
47
46
47
49
47
45
41
39
39
44
47
44
50
40
45
47
42
40
37
40
41
46
39
40
36
46
43
43
37
42
44
36
44
41
38
44
41
37
36
34
39
40
39
40
35
44
39
33
37
41
41
42
42
45
46
51
46
46
46
46
47
50
48
44
43
47
55
56
55
56
54
55
52
49
52
52
47
44
49
52
54
49
48
48
52
55
63
60
54
51
48
49
42
45
40
33
40
41
39
37
37
37
39
32
28
34
32
36
47
43
41
39
36
34
34
35
36
35
37
36
38
39
40
39
41
43
44
53
56
76
95
113
122
134
153
174
187
196
198
205
193
179
165
140
104
84
59
28
10
-27
-32
-26
-20
-10
0
3
10
18
21
20
21
30
34
39
33
35
39
27
33
41
33
30
34
40
42
36
31
35
38
36
40
43
44
40
39
43
37
43
43
39
45
45
48
49
44
45
49
52
49
46
49
56
52
52
54
54
56
55
63
64
50
62
58
63
64
65
67
69
74
72
76
83
74
79
87
82
84
90
95
93
91
92
106
103
101
105
111
118
112
118
116
114
112
114
121
117
118
121
115
114
115
116
111
105
101
105
106
106
107
102
103
100
90
89
90
87
87
89
87
76
70
67
73
70
64
61
60
60
67
57
55
55
59
55
49
45
47
52
45
47
43
46
42
45
43
40
45
46
42
37
42
44
49
46
42
42
49
48
41
44
43
43
41
44
43
44
46
48
39
47
47
47
43
46
49
43
43
46
39
42
48
44
40
43
39
42
43
42
42
45
43
42
43
48
43
43
42
45
38
45
36
42
46
39
34
39
42
47
40
39
36
37
35
43
40
43
46
40
35
39
46
35
34
40
39
39
40
38
39
40
39
33
35
33
41
41
38
39
40
36
39
38
32
35
41
44
46
47
48
46
43
50
50
43
47
38
50
56
54
51
52
52
52
50
49
54
46
41
49
45
47
53
49
46
53
51
52
50
52
46
49
49
41
39
35
40
39
35
32
35
35
36
39
37
34
36
35
36
35
30
30
34
35
30
37
35
39
33
32
36
33
32
39
44
45
39
39
46
51
69
87
101
116
135
149
172
194
201
204
200
187
182
169
137
98
73
57
33
17
-22
-37
-27
-16
-11
-6
4
13
13
20
26
22
22
27
29
32
31
30
29
29
21
23
30
38
35
36
34
35
32
32
39
36
31
32
36
39
38
38
33
38
40
41
38
44
39
44
44
45
46
49
47
39
49
40
45
56
51
49
54
57
57
54
54
62
58
51
58
66
66
68
71
67
68
69
76
74
81
85
83
85
95
100
93
91
93
99
106
100
105
113
113
111
107
109
113
114
109
109
111
115
119
118
112
106
102
102
104
105
107
99
95
98
96
88
83
84
83
79
79
74
72
68
71
66
61
71
62
59
57
60
57
48
50
47
47
47
46
48
51
45
43
36
40
36
35
41
42
36
35
39
40
37
37
41
34
40
40
38
39
42
35
29
39
43
38
36
37
35
36
37
33
35
37
38
38
40
40
34
38
35
42
37
37
29
32
36
37
29
37
34
34
35
33
34
39
41
36
27
36
31
31
32
36
37
33
35
33
35
31
28
32
37
37
31
29
29
32
31
30
28
27
26
28
28
34
36
32
32
28
33
33
30
29
28
28
32
31
32
32
30
33
28
24
31
36
29
23
27
36
33
28
34
23
28
29
28
35
33
30
30
32
40
38
35
34
38
39
41
35
40
39
45
42
47
49
44
40
46
47
42
30
42
39
39
42
46
41
42
38
42
47
52
55
45
40
40
39
36
31
33
30
28
28
29
28
28
31
30
30
20
21
27
27
29
26
29
25
27
26
22
29
18
27
20
24
23
24
34
33
31
33
31
38
44
57
79
95
108
120
144
161
182
183
192
200
190
176
166
149
103
75
46
31
12
-17
-40
-39
-33
-26
-23
-9
1
3
11
16
20
16
13
15
23
24
18
19
18
25
21
22
21
19
21
18
22
29
27
27
26
25
27
29
30
25
34
27
26
23
32
32
33
30
35
38
37
31
32
36
39
37
40
44
45
47
36
40
45
44
43
46
47
48
52
53
52
49
55
53
58
64
62
66
65
71
72
74
73
77
84
79
83
80
89
91
93
93
95
105
110
103
101
99
98
101
105
105
102
100
101
104
105
98
95
97
97
94
93
95
91
89
82
78
72
70
71
70
65
65
64
63
59
54
53
54
51
45
50
46
41
39
40
37
35
38
29
30
36
32
33
31
36
36
32
29
27
23
26
23
30
28
26
27
29
25
23
31
29
27
27
22
27
27
25
22
25
25
25
26
27
33
27
22
21
30
26
26
28
25
23
20
25
28
32
27
26
24
26
24
20
27
28
28
29
23
21
21
26
23
22
18
20
25
25
24
19
21
25
17
18
21
22
20
21
19
21
20
27
19
22
20
17
21
23
19
19
24
30
20
15
18
17
15
22
20
19
15
22
19
30
14
16
12
16
16
20
18
18
17
13
20
24
16
20
13
14
22
18
19
19
17
11
16
23
20
18
22
25
24
28
24
23
25
25
22
27
29
25
29
24
26
34
37
31
28
34
33
39
41
33
26
27
27
28
28
34
35
39
36
34
42
38
38
34
26
19
32
22
25
26
23
17
12
21
18
16
18
18
12
16
18
15
15
16
10
16
13
15
17
20
11
9
15
16
15
14
20
16
21
22
19
21
25
38
51
69
90
101
113
137
155
176
188
195
191
184
176
161
146
103
66
44
28
7
-21
-59
-58
-51
-45
-31
-27
-15
-1
-1
3
9
8
12
15
12
9
9
10
8
10
13
13
15
14
16
14
13
13
13
15
17
22
25
23
23
18
19
19
21
19
18
23
26
22
24
28
23
28
34
32
33
32
31
34
37
38
34
34
37
39
49
38
38
41
39
44
45
50
53
53
56
56
48
62
63
62
64
66
66
69
72
75
81
85
81
86
86
90
89
95
92
97
99
101
100
102
100
93
96
93
100
97
95
97
91
91
88
92
84
84
85
81
78
77
74
78
70
66
64
65
60
55
57
57
52
40
46
49
43
37
41
35
35
34
33
33
33
32
27
27
28
29
29
27
21
24
28
28
25
32
34
26
28
24
24
24
25
25
29
23
25
20
26
27
22
19
24
29
23
25
30
27
29
29
27
21
26
24
23
25
23
24
26
28
25
27
26
24
24
29
28
25
22
27
29
25
24
22
20
27
23
23
26
19
23
25
27
25
23
27
28
22
21
29
21
21
31
26
22
21
28
19
24
24
26
23
21
25
26
25
20
21
25
17
18
20
23
27
23
25
24
25
24
24
21
23
27
16
21
25
28
23
21
19
23
28
21
19
20
18
22
23
27
20
18
23
25
22
21
30
26
26
30
23
24
29
24
27
32
37
34
32
30
27
31
38
36
35
36
40
40
40
40
33
40
37
33
35
32
37
39
39
40
39
39
46
41
42
47
47
41
45
31
29
37
34
26
20
26
27
27
29
27
18
17
24
26
23
25
22
26
32
21
20
23
23
21
25
24
23
25
19
25
24
24
23
22
31
33
41
44
51
70
77
98
120
130
152
171
189
189
196
183
177
167
153
115
83
56
32
6
-18
-50
-49
-43
-27
-24
-10
-6
-1
6
11
13
20
17
17
16
18
24
18
23
26
20
26
21
18
21
26
23
25
23
27
32
28
26
28
25
29
30
32
30
36
32
33
34
32
35
39
41
37
36
37
41
34
39
38
40
43
46
46
43
44
44
50
53
49
49
54
61
59
55
63
66
66
68
68
70
70
78
77
70
77
82
83
94
87
93
97
99
94
96
103
99
99
104
108
110
108
112
110
112
112
106
100
100
105
103
98
99
93
99
92
94
91
90
92
82
77
77
78
70
76
74
70
64
57
57
58
57
57
55
52
50
45
45
41
44
46
37
37
40
36
34
31
41
35
35
36
36
35
32
42
41
32
31
25
30
38
39
35
32
32
37
39
37
36
37
37
35
35
34
36
34
37
35
37
31
33
36
37
35
35
37
40
30
32
35
29
38
43
35
32
33
41
30
36
35
40
32
28
41
37
38
33
34
33
28
31
37
36
34
38
31
31
28
28
32
28
24
32
35
32
32
33
32
31
33
31
26
30
34
35
31
28
31
35
32
31
34
30
25
28
21
32
31
32
28
29
32
37
39
26
24
26
24
32
37
33
34
32
34
33
35
34
36
37
39
39
37
39
34
36
45
45
43
43
47
42
41
45
49
43
38
42
38
34
33
42
47
50
48
41
46
48
49
42
37
41
40
36
35
34
33
29
25
33
29
38
32
31
28
30
32
26
24
27
29
33
34
27
23
25
26
33
31
28
26
25
31
26
32
34
35
36
40
49
54
61
81
95
108
122
143
166
181
184
195
190
176
162
150
109
76
65
43
13
-4
-39
-45
-35
-28
-24
-11
-5
4
6
14
21
19
24
22
20
24
21
32
25
31
34
29
26
25
25
26
32
32
26
32
29
35
29
31
32
41
30
30
35
39
33
39
42
38
40
42
38
36
48
48
42
43
43
44
49
45
43
52
50
51
49
51
52
47
58
62
60
61
67
70
66
66
73
71
67
72
73
80
82
81
88
101
100
92
96
106
99
99
103
106
107
110
111
109
113
116
115
108
123
117
114
114
113
106
109
109
102
105
103
103
109
105
90
91
87
83
82
81
84
77
71
71
67
66
67
66
62
55
59
59
51
53
56
40
48
41
39
44
40
38
38
47
44
36
36
35
37
36
36
35
34
41
39
35
32
27
28
36
39
41
44
37
35
34
29
37
33
40
38
35
44
40
31
31
33
32
36
38
37
35
34
34
33
35
34
32
35
41
35
34
37
32
37
30
38
39
31
24
37
40
34
34
35
35
30
32
28
27
34
35
28
37
31
23
28
24
28
30
30
37
37
28
21
35
30
27
30
32
31
30
33
34
28
27
30
27
31
29
27
32
27
29
26
33
30
28
29
29
29
31
32
30
35
35
35
45
34
28
28
35
41
37
39
36
35
32
40
39
46
36
46
43
40
43
44
41
36
38
40
36
42
41
40
46
45
46
41
46
43
40
40
35
31
28
28
32
27
25
25
21
22
29
25
27
24
20
23
28
29
24
22
21
24
20
19
27
25
26
23
24
28
22
23
33
30
30
35
45
47
61
75
97
111
125
142
167
181
190
191
195
178
173
155
131
88
64
46
19
3
-25
-48
-47
-35
-33
-20
-12
-3
5
4
11
15
18
18
18
18
18
16
15
22
20
15
24
20
20
19
17
26
25
26
30
24
22
25
31
28
23
28
24
27
34
30
28
29
31
32
31
35
38
33
41
39
33
29
37
34
37
38
41
45
45
45
43
42
43
45
55
52
51
50
54
59
58
66
67
62
68
71
71
71
73
86
76
79
86
88
97
102
98
100
96
96
94
101
109
105
100
103
104
105
110
98
99
104
101
101
95
97
99
95
92
86
85
86
83
78
69
77
68
65
62
58
55
58
56
60
60
47
46
44
44
40
38
39
38
35
32
31
30
31
33
31
25
27
29
25
26
31
30
27
24
25
23
28
27
18
22
27
24
35
23
25
24
22
23
30
22
26
30
34
28
24
24
23
24
24
26
22
26
23
24
23
24
29
27
27
25
20
20
21
24
22
23
20
17
27
25
31
27
26
21
17
22
27
23
22
20
19
21
23
23
19
20
26
25
24
18
14
18
17
22
19
18
18
19
23
24
19
23
13
23
16
18
20
15
22
25
14
19
25
16
18
22
22
16
20
19
21
18
17
25
17
20
20
17
23
32
30
28
32
30
24
32
28
28
27
31
31
39
33
33
29
32
43
37
30
41
28
33
33
31
32
36
35
36
42
36
44
47
39
37
32
27
21
25
33
30
22
26
21
26
18
16
15
19
20
14
18
22
20
17
14
17
14
19
23
20
17
18
16
14
14
18
16
17
23
17
14
27
43
45
64
69
81
106
128
145
174
185
192
196
188
182
167
155
124
85
56
31
13
-7
-43
-63
-62
-59
-45
-34
-25
-11
-4
-2
-8
-2
1
3
3
4
4
2
7
7
6
8
10
5
5
8
9
6
2
11
9
10
9
13
12
6
13
19
16
15
19
18
13
17
20
20
18
22
19
19
15
12
27
31
31
24
33
39
24
18
23
30
23
26
32
44
48
48
50
71
79
67
68
65
69
67
66
73
64
70
81
82
77
92
89
96
100
101
121
119
129
128
145
154
155
155
150
153
148
142
156
159
162
162
169
188
183
179
174
166
161
154
145
162
159
153
150
143
136
128
127
127
125
124
183
170
156
150
140
131
123
119
110
108
116
110
107
103
101
97
94
92
95
93
89
87
88
95
93
86
83
83
88
85
85
85
87
87
89
91
93
89
88
86
83
85
88
92
86
101
89
85
92
91
83
90
84
88
118
111
128
122
120
120
120
121
120
115
103
109
117
120
129
130
126
129
122
121
122
128
116
112
114
115
113
114
109
111
120
114
109
113
115
114
113
108
113
115
116
112
112
112
110
118
118
125
121
113
115
117
116
113
120
126
138
134
132
125
130
129
124
126
132
125
125
124
127
130
129
134
133
137
135
130
139
136
152
144
146
146
139
144
145
148
147
173
167
166
156
153
151
169
166
156
164
163
168
162
156
160
158
164
166
175
166
163
158
157
161
163
158
150
160
151
148
147
147
149
149
175
163
161
162
158
163
158
152
153
154
159
152
155
157
159
158
158
163
158
161
158
160
157
157
155
167
172
168
183
176
179
206
236
254
265
281
298
315
326
336
340
327
315
304
284
248
210
189
155
134
111
72
64
73
86
93
110
120
121
121
123
137
136
139
144
135
136
141
141
138
140
140
149
149
147
144
145
147
147
150
154
151
150
177
187
176
170
168
174
171
175
171
179
176
173
173
167
179
175
172
172
174
171
178
173
173
186
189
180
183
173
175
185
182
176
184
179
181
185
184
185
188
189
189
192
198
190
190
197
209
211
209
210
235
241
234
233
236
235
230
237
241
240
244
241
237
245
258
257
255
250
238
243
235
239
237
230
227
237
237
228
225
219
218
217
213
212
205
202
205
199
199
199
207
195
207
203
191
195
198
183
181
185
174
179
180
176
172
172
171
169
172
166
169
173
169
169
163
162
171
166
161
162
170
171
167
165
168
172
176
168
165
169
172
170
170
168
175
173
182
178
174
178
179
177
175
178
180
176
177
193
192
185
184
183
182
176
178
184
187
177
183
178
181
185
195
186
179
174
174
181
192
188
185
181
189
184
191
193
191
184
181
185
178
178
176
184
185
167
171
175
176
177
174
170
165
168
183
185
188
187
178
180
179
171
184
181
185
192
185
179
184
185
190
194
200
200
189
193
193
201
203
192
197
198
193
195
200
199
197
197
201
199
193
200
201
205
199
193
195
195
204
204
196
196
191
196
210
206
207
204
198
192
188
193
185
196
194
191
189
186
183
187
188
180
181
182
183
180
182
186
197
184
178
182
184
184
187
206
201
198
199
193
199
199
197
191
197
207
220
236
254
267
278
295
306
341
359
359
359
358
342
329
312
278
250
223
196
159
133
108
111
118
134
148
152
162
167
176
175
177
182
182
185
183
181
184
187
185
188
184
188
192
190
186
186
191
187
187
182
188
188
188
189
187
188
187
188
190
192
191
189
190
198
193
191
190
191
186
191
191
195
193
193
195
194
192
192
195
198
204
207
203
206
206
209
207
213
208
210
214
224
218
222
222
227
226
229
234
236
231
236
241
242
239
247
250
248
248
251
256
255
258
254
250
246
250
245
252
252
254
250
246
244
249
242
235
237
231
230
229
222
217
216
210
212
211
206
199
196
191
193
186
188
179
169
178
172
162
155
162
161
155
153
151
148
151
147
145
145
141
145
141
144
143
138
135
137
135
134
140
139
134
135
136
133
136
136
125
131
130
138
133
127
126
128
125
125
124
129
126
128
127
132
127
118
115
121
122
124
127
123
118
132
116
115
119
121
114
121
123
118
120
119
111
105
104
108
117
121
113
110
115
106
107
105
112
106
103
105
108
107
112
113
106
99
100
101
105
103
101
101
103
100
97
95
95
99
102
102
99
99
98
100
96
102
101
104
98
96
97
103
100
102
98
95
104
104
101
109
100
97
96
108
106
102
98
95
89
93
105
103
95
95
94
101
105
104
99
99
94
93
89
87
87
89
82
77
75
73
80
74
74
78
81
88
78
75
78
74
73
73
71
75
83
73
70
73
73
71
73
77
71
69
74
87
76
82
89
97
107
122
135
152
167
183
198
212
227
225
229
224
222
199
167
125
100
83
57
35
-3
-22
-17
-7
-1
23
26
43
44
42
52
55
60
56
54
59
57
53
57
59
62
60
55
54
56
57
54
55
60
61
59
61
64
59
60
55
61
62
59
63
64
61
62
64
61
61
59
61
64
62
62
68
65
64
64
67
68
71
73
67
72
78
74
69
71
75
83
81
79
73
86
85
86
87
93
87
91
94
97
98
102
106
111
111
111
115
115
119
125
118
121
124
125
127
125
122
122
124
129
130
131
128
126
124
119
113
112
114
117
117
110
108
106
95
102
91
87
81
93
83
90
84
71
76
68
70
68
71
67
59
61
58
56
55
50
45
50
55
54
48
48
46
46
41
44
41
42
43
43
42
45
44
43
42
39
40
40
38
41
38
41
39
37
35
47
45
42
45
41
37
36
40
30
32
38
36
42
44
40
41
39
43
38
39
41
36
35
41
34
28
33
29
29
30
32
43
38
38
34
37
41
30
34
33
31
24
32
35
34
33
37
36
31
29
26
27
31
33
26
31
29
32
28
28
27
26
27
25
36
26
30
28
30
25
22
32
34
25
27
33
31
34
26
37
33
32
32
28
39
46
41
32
33
40
41
37
39
43
47
44
37
43
41
37
35
32
39
42
42
42
43
46
46
47
45
37
38
39
36
38
36
27
26
28
25
22
21
22
24
25
20
16
20
23
18
23
31
23
18
20
23
27
25
19
19
20
19
20
22
23
26
27
25
27
40
41
48
67
87
103
120
132
151
171
189
197
202
188
180
171
154
113
80
51
33
15
-4
-48
-55
-41
-41
-29
-23
-11
-7
-1
4
5
8
15
19
15
20
11
10
16
13
12
15
17
14
12
19
17
21
23
20
16
17
19
13
15
22
21
25
25
23
24
24
33
25
23
26
23
28
29
33
31
31
29
29
28
31
36
38
42
45
35
37
41
41
37
39
48
47
48
46
50
56
52
53
61
63
61
67
69
73
69
74
74
80
75
77
80
85
90
91
93
98
97
90
92
97
94
97
96
93
100
95
94
91
96
90
81
84
84
84
82
82
76
75
74
72
68
64
58
55
57
58
51
48
42
46
39
39
34
38
35
30
35
28
33
29
23
25
28
21
20
24
22
18
19
18
18
18
18
15
14
19
11
17
20
20
18
20
21
18
14
18
16
15
14
21
16
15
23
24
20
13
12
17
14
14
16
14
19
20
15
18
15
10
15
16
14
16
17
18
18
15
13
12
20
17
15
10
14
14
13
13
13
13
7
8
14
15
13
11
12
11
8
11
16
10
6
8
11
15
16
9
6
3
13
8
7
9
10
12
9
12
14
7
10
9
10
7
8
11
14
6
8
7
15
12
10
12
14
24
16
17
15
13
11
14
12
16
20
28
22
19
24
25
24
15
21
27
27
28
23
28
22
16
22
23
24
30
26
25
34
26
29
34
24
20
18
20
16
16
11
13
10
4
10
8
9
14
6
5
6
3
3
11
15
11
1
4
1
4
7
10
7
4
10
3
5
6
7
7
13
15
16
23
29
46
67
83
102
123
139
158
176
185
185
186
178
172
160
117
77
52
24
2
-10
-45
-70
-68
-61
-49
-39
-30
-28
-22
-8
-6
-4
-5
-1
-1
-5
-2
-3
1
-7
-6
-2
0
4
1
2
5
7
2
1
1
3
8
8
8
6
5
8
15
6
11
15
12
9
12
14
12
10
7
17
23
17
16
20
20
20
21
22
24
23
26
26
29
28
27
36
32
30
31
35
39
41
45
45
51
45
50
52
51
52
64
66
67
67
67
67
70
77
78
78
83
74
85
80
82
82
83
80
83
84
88
89
84
81
83
76
80
74
70
69
72
67
64
62
60
57
52
50
48
44
47
47
45
41
42
31
32
32
21
23
25
23
24
20
20
9
7
10
9
14
10
13
12
16
7
9
11
7
6
2
0
6
10
7
6
5
3
7
4
4
11
6
6
4
7
6
8
7
4
-3
10
9
3
8
13
13
0
0
0
1
4
6
7
8
4
6
-1
-2
2
3
6
7
8
3
3
1
1
7
11
2
4
1
0
2
4
4
3
-1
0
4
1
0
-3
1
1
3
8
1
0
5
11
9
6
-10
-1
-1
2
1
3
-4
-1
-6
-1
5
3
4
0
4
-1
-4
-2
-3
-6
2
4
-5
2
3
6
3
2
-1
2
2
1
3
2
4
2
4
4
3
8
7
6
6
13
9
11
11
7
15
14
16
17
17
11
9
19
16
16
24
19
17
10
9
15
20
22
23
23
20
22
27
22
22
17
7
9
6
9
12
5
3
0
7
0
3
0
-1
2
6
2
4
2
4
0
0
-4
5
2
6
1
2
4
1
-1
-4
-3
3
8
11
8
6
10
14
24
38
54
78
97
110
126
153
165
172
180
177
169
157
144
113
72
48
19
-16
-38
-71
-75
-67
-63
-61
-47
-38
-22
-22
-8
-11
-10
-9
-7
-1
-5
-6
1
0
-4
-1
1
-1
-4
-1
-4
0
-2
6
4
5
5
6
1
0
1
2
2
6
13
6
4
7
10
16
12
12
8
10
17
10
15
17
19
20
27
23
13
22
30
34
22
27
27
28
26
29
31
38
39
35
26
41
45
45
45
50
49
50
57
46
55
67
70
66
68
70
76
79
78
76
81
83
82
86
82
84
87
84
82
83
81
80
82
78
82
77
78
79
68
61
66
66
67
67
63
59
55
51
43
47
44
46
43
44
34
31
29
29
31
24
24
17
26
18
18
15
18
18
14
11
9
11
14
15
9
6
16
9
9
9
13
9
19
11
6
12
11
6
9
10
11
5
14
11
11
13
14
8
8
11
14
10
9
5
10
12
10
14
14
5
8
5
10
16
7
3
7
9
8
7
11
13
19
10
11
14
3
3
9
6
7
8
11
15
9
6
3
5
3
7
11
10
9
9
-1
-1
5
7
6
-1
4
2
10
8
6
7
10
3
4
4
7
8
5
2
5
2
5
5
7
11
8
11
7
3
2
5
2
0
8
0
3
7
12
8
7
10
13
7
9
13
10
11
15
10
7
15
21
15
14
23
22
21
21
20
18
18
16
17
14
19
12
14
22
22
21
19
17
20
23
21
20
13
21
19
17
6
10
9
6
6
3
-2
2
2
1
9
4
1
-2
5
8
3
8
8
7
11
-4
-2
7
5
-1
1
1
4
4
5
8
13
12
19
18
28
43
55
73
90
98
121
150
162
168
172
167
154
149
138
102
63
41
15
-12
-31
-56
-70
-68
-61
-49
-40
-28
-21
-16
-8
-7
-6
-7
3
3
-2
6
10
1
0
-1
2
12
3
0
0
3
9
6
8
9
12
5
6
11
13
10
11
9
12
16
13
10
10
17
17
14
12
18
22
23
24
14
16
24
22
24
28
29
31
32
32
32
30
29
36
38
34
34
39
40
46
44
43
44
47
51
55
60
65
63
68
70
69
67
70
73
81
78
79
83
80
90
88
87
85
88
92
91
89
88
83
92
84
84
87
84
81
79
77
72
69
65
65
60
61
63
58
58
56
53
44
43
41
41
38
38
31
34
32
31
29
32
24
22
21
18
22
17
21
20
15
14
9
12
13
11
15
14
15
12
11
12
10
10
16
9
11
17
19
11
9
6
18
18
16
16
14
15
15
13
11
11
14
10
17
10
11
13
17
16
13
14
10
11
9
13
16
14
14
16
19
5
6
7
11
10
12
15
16
11
11
11
13
10
8
6
16
12
3
5
9
10
8
12
8
8
11
10
4
7
6
2
10
12
9
13
8
11
10
0
2
7
1
6
5
10
9
7
9
3
5
10
7
7
11
11
11
9
8
4
6
9
4
9
10
14
10
14
17
12
19
17
12
13
13
16
16
26
20
14
17
22
21
24
22
18
25
19
16
15
10
19
22
19
22
19
25
28
20
16
18
15
8
10
12
17
13
2
0
-1
2
5
0
4
3
2
4
5
0
2
2
1
5
-1
7
4
4
6
1
0
0
1
0
7
7
8
9
15
22
25
37
61
77
86
98
120
140
163
170
166
167
155
144
130
98
67
47
15
-11
-23
-59
-68
-61
-56
-55
-43
-31
-23
-16
-17
-9
-10
-3
-5
-3
-3
-6
3
3
1
-4
-4
-2
-1
-4
-3
2
6
2
2
1
4
9
1
3
10
9
5
5
7
9
6
5
10
8
8
15
12
15
12
11
9
15
15
14
15
18
18
21
20
21
24
21
24
25
29
27
28
27
35
36
37
46
39
38
45
48
47
48
54
54
57
61
67
63
64
69
67
69
73
80
82
79
83
81
81
81
82
81
83
78
83
81
78
72
88
82
69
71
66
70
64
70
68
60
62
57
52
45
45
47
40
46
40
35
38
33
33
29
26
25
21
27
19
20
18
16
11
14
13
12
3
3
13
12
12
11
12
7
7
3
2
5
7
10
13
12
8
0
2
8
8
6
11
6
1
6
8
5
8
7
10
13
9
6
8
8
4
7
4
6
7
11
6
8
6
8
8
7
4
5
2
4
5
4
6
6
-1
2
4
1
0
4
7
4
1
-3
4
2
4
-1
3
5
2
5
2
1
0
4
1
1
-1
-2
-1
4
-3
-3
4
8
2
0
0
2
8
-3
3
-4
-5
-4
3
5
6
0
-2
-2
0
-5
2
-3
-2
-2
3
2
5
3
-2
-3
4
1
-2
-1
5
10
6
1
11
8
6
8
2
1
1
10
14
18
18
16
15
18
17
10
18
16
17
19
17
18
11
11
9
17
16
16
15
17
22
26
16
12
12
10
4
6
7
9
-2
-4
-3
0
-6
-6
-2
-5
-2
3
-1
-6
-3
-6
-5
0
-6
-4
0
-1
3
0
-6
3
2
-6
-5
0
2
5
-2
2
11
18
24
51
64
84
98
119
141
156
170
167
164
152
149
130
105
76
44
13
-4
-18
-57
-80
-76
-63
-59
-57
-41
-29
-22
-25
-21
-15
-7
-9
-9
-9
-5
-7
-5
-16
-13
-11
-6
-9
-9
-11
-7
-8
-5
-1
-10
-4
2
0
-8
7
2
2
-3
0
1
0
2
1
0
2
0
8
4
3
1
6
9
8
9
11
16
15
13
8
8
12
18
17
25
20
17
19
28
28
29
33
30
32
31
33
39
37
40
43
45
51
52
52
54
56
58
65
62
60
65
66
74
71
75
77
73
75
77
72
74
69
72
68
71
75
71
71
69
62
62
59
60
55
55
51
54
47
41
33
41
36
31
34
25
23
23
27
26
22
12
18
15
11
11
12
7
3
3
3
2
1
-4
6
6
4
-2
-2
-2
3
0
-5
-7
3
6
5
-3
-1
-7
-7
-7
3
-1
-2
-5
4
-1
-1
-1
0
-1
-4
-2
2
3
-4
-5
-4
-1
-6
0
3
3
3
-7
-11
-3
0
0
-1
-2
2
-11
5
-4
-1
4
-2
-7
-5
-6
-2
-6
-2
-1
-7
-10
-2
-9
-6
-2
-6
-1
-3
-4
-6
-6
-10
-6
-5
-11
-9
-13
-11
-7
-2
-7
-4
-6
-8
-6
-2
-5
