69
68
75
76
78
85
83
87
86
90
86
85
81
71
76
87
82
83
72
76
80
75
84
86
81
71
62
70
73
71
84
95
91
89
87
81
90
85
80
81
85
82
84
80
83
85
84
84
84
73
74
86
85
83
74
85
86
91
80
79
88
88
91
90
89
89
85
88
84
88
80
87
83
85
95
90
87
76
83
70
71
77
83
77
75
71
76
87
72
67
73
60
78
80
76
76
74
80
74
75
74
69
72
73
75
72
70
72
75
74
71
75
70
66
71
72
76
73
78
72
74
73
74
78
69
68
68
72
68
75
73
73
59
69
69
63
59
64
63
63
78
87
94
83
80
86
109
139
147
155
165
143
132
126
133
122
112
111
95
73
64
48
41
54
59
49
58
62
57
57
62
67
67
65
74
69
57
61
63
64
61
64
63
64
59
60
49
48
44
39
40
38
57
54
51
45
54
55
56
57
60
59
54
45
53
63
63
49
52
59
63
61
64
66
67
68
70
75
75
81
89
87
85
77
69
80
78
85
85
89
84
84
89
94
93
95
91
96
91
96
106
98
86
96
94
91
102
109
106
107
106
108
109
107
113
118
123
122
116
128
126
126
111
119
121
122
127
123
124
137
125
118
128
131
128
134
136
137
127
134
130
132
123
120
123
127
124
118
111
114
105
105
105
97
90
96
107
80
74
79
67
74
64
71
73
62
57
62
60
68
63
56
46
46
51
58
61
63
56
49
54
48
48
48
45
50
56
53
56
64
57
52
45
47
47
55
49
47
57
54
44
51
54
44
44
47
53
63
62
62
58
59
48
60
60
59
57
48
60
59
53
47
50
53
50
66
65
50
52
56
63
58
50
54
55
54
56
53
49
61
50
54
55
57
56
59
59
56
62
65
65
60
58
64
61
63
59
57
73
75
61
64
62
68
64
58
37
48
60
56
55
64
56
42
47
50
43
48
54
54
56
56
56
54
48
47
52
51
54
56
51
51
49
38
56
52
47
52
57
53
48
49
51
57
56
53
48
53
61
61
61
47
50
48
60
52
57
51
42
41
46
46
50
49
32
37
42
41
47
45
48
58
45
59
63
81
94
104
117
119
130
136
129
114
105
109
109
114
105
83
60
49
34
49
64
59
46
51
43
49
56
54
53
59
60
54
57
64
70
74
58
53
44
50
57
60
57
59
68
53
56
56
48
47
63
66
61
66
66
66
64
58
52
54
67
72
70
68
74
66
71
70
58
60
62
64
59
58
59
58
57
55
58
61
54
59
67
70
57
54
51
57
59
56
65
62
56
67
67
68
63
58
50
56
61
51
51
64
73
62
59
70
61
65
65
62
65
68
73
63
66
78
74
76
64
71
69
81
73
76
87
83
74
77
75
66
71
69
74
74
76
74
67
65
57
57
57
63
64
55
51
47
40
40
35
34
26
33
31
19
13
20
4
4
9
-1
12
14
15
7
3
-1
0
-2
-2
-2
-3
0
-4
-11
-2
-9
-16
-7
-3
-16
-9
0
-8
-8
-4
0
-8
-6
-1
-8
0
-12
-15
-13
-7
-11
-11
-5
-6
-15
-19
-10
-16
-16
-17
-21
-19
-16
-15
-22
-19
-11
-8
-15
-16
-10
-15
-12
-18
-19
-10
-7
-24
-25
-30
-20
-13
-20
-23
-22
-14
-15
-13
-9
-20
-30
-34
-33
-28
-27
-17
-22
-24
-26
-24
-24
-27
-25
-25
-22
-21
-27
-27
-26
-30
-42
-33
-33
-30
-29
-19
-24
-32
-35
-41
-47
-41
-39
-47
-44
-36
-41
-41
-41
-37
-53
-52
-41
-38
-43
-34
-37
-45
-47
-51
-51
-44
-40
-53
-47
-38
-43
-49
-50
-51
-52
-45
-45
-52
-60
-47
-47
-45
-66
-63
-54
-54
-49
-54
-60
-52
-59
-58
-55
-57
-65
-61
-57
-67
-66
-53
-56
-54
-46
-37
-29
-23
-27
-10
1
4
7
7
-16
-17
-29
-24
-13
-13
-18
-34
-57
-68
-72
-70
-63
-46
-46
-58
-53
-44
-50
-46
-51
-48
-42
-49
-49
-50
-47
-43
-45
-63
-53
-49
-57
-56
-48
-56
-63
-40
-40
-49
-58
-52
-53
-67
-58
-62
-56
-49
-50
-61
-62
-60
-49
-55
-57
-54
-56
-58
-60
-64
-61
-61
-48
-49
-66
-64
-58
-55
-57
-59
-54
-53
-50
-51
-54
-54
-56
-68
-66
-58
-68
-65
-61
-54
-57
-48
-52
-57
-60
-56
-55
-56
-61
-57
-47
-45
-44
-43
-52
-43
-41
-39
-30
-28
-57
-50
-36
-42
-47
-26
-25
-31
-35
-34
-35
-29
-29
-35
-33
-35
-34
-38
-28
-30
-30
-33
-32
-29
-33
-33
-33
-41
-44
-45
-45
-43
-35
-46
-53
-61
-60
-67
-66
-60
-71
-76
-70
-78
-85
-77
-84
-87
-83
-89
-94
-91
-85
-97
-105
-101
-93
-91
-87
-99
-109
-106
-97
-105
-98
-93
-100
-100
-100
-99
-103
-106
-101
-105
-99
-104
-104
-98
-103
-108
-107
-105
-101
-107
-107
-103
-94
-98
-100
-101
-106
-91
-95
-103
-101
-94
-91
-97
-94
-96
-94
-90
-88
-96
-93
-94
-101
-105
-112
-108
-94
-91
-94
-93
-99
-97
-98
-103
-106
-100
-97
-109
-112
-108
-101
-101
-102
-105
-109
-113
-105
-96
-92
-112
-113
-105
-111
-124
-116
-108
-102
-106
-105
-108
-109
-114
-112
-109
-110
-112
-106
-101
-104
-115
-115
-114
-123
-128
-124
-119
-106
-114
-118
-121
-125
-121
-133
-133
-132
-128
-122
-123
-124
-126
-122
-120
-121
-134
-136
-138
-136
-126
-122
-127
-127
-116
-120
-128
-132
-132
-139
-128
-131
-134
-136
-130
-125
-127
-130
-134
-132
-134
-142
-141
-132
-127
-142
-139
-132
-132
-131
-132
-134
-138
-140
-144
-147
-137
-132
-133
-132
-132
-132
-133
-123
-114
-115
-107
-102
-107
-111
-106
-97
-77
-94
-106
-112
-100
-101
-114
-109
-105
-119
-131
-143
-154
-150
-146
-135
-134
-129
-143
-131
-128
-127
-123
-121
-126
-127
-138
-137
-129
-129
-135
-129
-123
-139
-141
-134
-137
-128
-129
-137
-125
-126
-138
-148
-136
-135
-137
-129
-123
-136
-138
-134
-132
-137
-128
-127
-138
-130
-137
-148
-130
-130
-139
-136
-147
-129
-125
-125
-137
-145
-137
-141
-139
-137
-128
-140
-153
-145
-123
-121
-120
-129
-135
-137
-137
-130
-127
-128
-124
-127
-129
-124
-132
-132
-133
-126
-125
-128
-122
-132
-130
-122
-123
-115
-122
-123
-119
-116
-116
-114
-110
-117
-123
-132
-111
-104
-100
-108
-107
-118
-123
-119
-116
-107
-105
-110
-105
-113
-119
-111
-112
-114
-119
-112
-102
-115
-121
-114
-127
-128
-134
-124
-129
-132
-137
-143
-137
-137
-144
-154
-152
-155
-147
-142
-155
-157
-157
-152
-161
-163
-162
-161
-162
-159
-157
-165
-164
-165
-167
-165
-157
-160
-161
-164
-178
-177
-169
-161
-155
-159
-164
-166
-170
-163
-157
-167
-163
-165
-170
-170
-170
-169
-161
-160
-185
-182
-175
-157
-164
-170
-168
-170
-167
-166
-163
-179
-170
-166
-164
-166
-163
-158
-167
-179
-174
-164
-168
-162
-175
-184
-175
-168
-175
-173
-171
-170
-172
-167
-166
-165
-163
-169
-172
-173
-165
-170
-168
-170
-176
-176
-174
-175
-167
-166
-172
-172
-168
-175
-187
-171
-160
-167
-180
-172
-170
-166
-175
-176
-167
-167
-182
-189
-172
-175
-169
-178
-179
-180
-179
-181
-173
-174
-176
-177
-172
-177
-165
-178
-184
-181
-179
-187
-170
-169
-179
-182
-182
-176
-182
-179
-179
-182
-170
-166
-184
-181
-178
-183
-183
-175
-179
-182
-185
-181
-186
-184
-178
-180
-182
-182
-177
-179
-166
-170
-175
-173
-174
-171
-169
-172
-171
-179
-191
-193
-185
-173
-173
-178
-182
-189
-184
-177
-174
-179
-178
-178
-174
-192
-180
-177
-189
-180
-181
-187
-186
-190
-183
-190
-187
-191
-191
-187
-179
-182
-187
-186
-177
-182
-184
-185
-180
-196
-196
-186
-186
-181
-180
-184
-187
-190
-193
-187
-187
-192
-186
-192
-181
-187
-192
-190
-186
-178
-187
-183
-195
-186
-190
-198
-200
-194
-193
-188
-188
-190
-189
-189
-174
-164
-177
-184
-180
-172
-159
-146
-139
-140
-134
-149
-148
-142
-153
-155
-148
-148
-161
-170
-185
-194
-198
-205
-209
-191
-193
-184
-183
-173
-176
-171
-170
-169
-179
-195
-184
-179
-180
-181
-186
-191
-193
-188
-188
-186
-186
-181
-179
-184
-183
-184
-182
-177
-183
-186
-172
-173
-176
-185
-188
-188
-186
-182
-188
-189
-181
-188
-183
-178
-182
-185
-174
-172
-197
-188
-175
-176
-177
-176
-178
-172
-172
-172
-199
-187
-183
-182
-176
-171
-178
-186
-180
-180
-174
-176
-181
-174
-171
-173
-169
-176
-171
-168
-171
-184
-174
-160
-153
-172
-173
-172
-170
-167
-168
-170
-163
-156
-166
-166
-167
-163
-159
-155
-160
-153
-151
-156
-149
-150
-153
-155
-156
-164
-164
-162
-157
-151
-150
-142
-147
-152
-149
-155
-157
-155
-155
-162
-159
-159
-151
-159
-151
-163
-175
-176
-180
-176
-181
-186
-192
-186
-186
-190
-186
-185
-193
-195
-189
-189
-193
-192
-195
-198
-203
-197
-206
-195
-197
-214
-218
-207
-196
-204
-199
-200
-201
-206
-203
-198
-201
-203
-203
-209
-205
-198
-201
-203
-202
-208
-213
-206
-212
-203
-202
-199
-200
-198
-190
-194
-205
-206
-194
-190
-195
-207
-209
-200
-202
-211
-197
-208
-209
-210
-202
-201
-205
-213
-215
-208
-199
-197
-202
-199
-203
-205
-210
-211
-200
-208
-205
-196
-191
-203
-204
-199
-209
-211
-201
-196
-203
-201
-199
-211
-210
-201
-214
-210
-209
-213
-205
-201
-204
-214
-210
-212
-212
-205
-201
-204
-206
-207
-200
-209
-207
-211
-215
-209
-204
-204
-202
-190
-202
-204
-204
-210
-215
-202
-197
-210
-208
-195
-203
-203
-206
-213
-218
-211
-206
-211
-212
-212
-206
-203
-206
-209
-209
-202
-207
-207
-200
-211
-215
-208
-216
-206
-200
-198
-217
-209
-214
-207
-217
-211
-213
-214
-211
-209
-204
-203
-216
-220
-216
-204
-205
-206
-216
-207
-203
-210
-211
-209
-212
-202
-206
-206
-208
-207
-207
-208
-215
-213
-214
-217
-211
-200
-210
-200
-201
-207
-207
-207
-215
-213
-200
-212
-217
-205
-202
-205
-215
-208
-220
-219
-204
-212
-202
-209
-220
-216
-212
-212
-211
-215
-216
-211
-208
-207
-216
-224
-216
-204
-204
-214
-218
-204
-205
-211
-209
-211
-212
-208
-205
-190
-206
-211
-210
-200
-204
-214
-212
-214
-218
-209
-202
-213
-209
-202
-210
-219
-213
-224
-214
-201
-207
-203
-199
-199
-197
-210
-203
-207
-211
-211
-198
-209
-212
-206
-216
-211
-205
-203
-202
-201
-203
-214
-207
-194
-196
-197
-196
-195
-199
-208
-211
-212
-202
-206
-208
-215
-214
-218
-211
-202
-200
-210
-222
-206
-214
-219
-217
-217
-214
-217
-219
-208
-207
-206
-210
-221
-213
-211
-217
-213
-208
-208
-213
-216
-222
-226
-217
-209
-212
-200
-201
-212
-207
-208
-203
-207
-201
-213
-213
-208
-205
-208
-215
-218
-224
-212
-219
-199
-201
-208
-204
-197
-181
-183
-179
-165
-161
-174
-168
-173
-180
-183
-178
-169
-170
-181
-196
-206
-218
-232
-219
-207
-205
-201
-205
-203
-204
-210
-206
-205
-205
-204
-199
-199
-210
-208
-204
-202
-205
-211
-205
-201
-194
-203
-206
-203
-201
-198
-199
-186
-199
-207
-202
-194
-196
-208
-216
-206
-196
-201
-211
-209
-190
-195
-200
-200
-210
-206
-200
-199
-205
-190
-183
-185
-195
-201
-203
-197
-191
-194
-198
-188
-187
-200
-200
-195
-200
-199
-195
-186
-195
-198
-191
-185
-189
-192
-190
-189
-186
-183
-188
-179
-178
-181
-184
-196
-192
-197
-184
-170
-173
-182
-187
-191
-175
-171
-181
-181
-171
-179
-179
-172
-166
-164
-175
-173
-166
-170
-172
-169
-170
-163
-163
-160
-178
-174
-174
-172
-170
-174
-168
-169
-164
-169
-167
-172
-176
-181
-176
-179
-171
-172
-178
-189
-181
-184
-186
-189
-191
-201
-202
-195
-197
-199
-202
-205
-221
-214
-207
-217
-220
-208
-206
-204
-203
-210
-222
-212
-210
-214
-220
-214
-213
-217
-217
-216
-226
-216
-216
-214
-214
-206
-205
-206
-212
-215
-214
-216
-212
-214
-216
-215
-216
-216
-218
-215
-215
-218
-222
-224
-230
-228
-217
-211
-209
-220
-217
-206
-215
-219
-214
-205
-209
-218
-219
-221
-218
-214
-213
-219
-214
-211
-205
-199
-210
-212
-217
-226
-220
-214
-214
-217
-213
-222
-205
-220
-223
-219
-214
-223
-214
-214
-217
-225
-216
-215
-214
-214
-212
-217
-222
-211
-210
-214
-217
-215
-213
-216
-226
-209
-217
-211
-216
-219
-213
-217
-220
-215
-215
-214
-215
-220
-223
-217
-211
-205
-207
-221
-221
-221
-206
-208
-216
-221
-212
-215
-206
-210
-217
-232
-220
-218
-220
-217
-208
-205
-210
-218
-221
-228
-213
-208
-211
-215
-209
-213
-214
-216
-224
-221
-216
-217
-216
-211
-201
-206
-210
-217
-220
-210
-217
-216
-215
-210
-209
-212
-214
-223
-230
-224
-214
-212
-224
-210
-207
-214
-213
-214
-221
-219
-211
-217
-219
-221
-208
-215
-215
-219
-217
-220
-212
-212
-216
-216
-218
-223
-202
-193
-199
-224
-214
-209
-214
-221
-215
-210
-205
-219
-215
-208
-210
-219
-215
-206
-212
-213
-213
-211
-221
-220
-215
-214
-210
-211
-216
-218
-218
-218
-219
-219
-211
-213
-216
-212
-200
-207
-220
-221
-218
-212
-213
-207
-204
-202
-207
-206
-212
-212
-219
-216
-195
-199
-211
-208
-200
-212
-205
-215
-219
-208
-201
-202
-204
-204
-204
-211
-207
-210
-225
-224
-221
-208
-206
-206
-206
-205
-213
-217
-222
-213
-209
-213
-212
-209
-214
-211
-211
-208
-212
-216
-211
-211
-223
-217
-213
-216
-209
-209
-212
-220
-215
-229
-221
-201
-207
-213
-210
-205
-222
-216
-207
-206
-209
-206
-202
-213
-222
-211
-224
-225
-222
-214
-223
-216
-207
-208
-218
-205
-196
-187
-182
-183
-176
-167
-156
-159
-162
-174
-187
-181
-174
-182
-186
-182
-193
-208
-224
-227
-229
-218
-214
-230
-230
-211
-198
-193
-203
-204
-203
-208
-208
-200
-199
-199
-208
-209
-203
-211
-208
-185
-205
-206
-211
-207
-202
-196
-197
-208
-202
-196
-205
-215
-206
-198
-204
-194
-201
-202
-195
-192
-198
-201
-198
-192
-201
-199
-206
-209
-215
-203
-195
-195
-194
-190
-194
-204
-205
-203
-209
-202
-195
-199
-195
-193
-195
-194
-197
-195
-196
-188
-188
-176
-191
-191
-188
-182
-194
-197
-192
-196
-195
-194
-182
-183
-178
-186
-184
-189
-189
-183
-179
-173
-163
-177
-176
-178
-173
-178
-169
-176
-182
-180
-159
-157
-160
-169
-169
-167
-161
-160
-176
-175
-161
-168
-166
-168
-164
-161
-165
-158
-164
-172
-168
-172
-171
-166
-166
-167
-170
-169
-178
-191
-173
-175
-183
-187
-180
-187
-190
-195
-196
-194
-201
-199
-202
-207
-208
-198
-210
-213
-214
-210
-211
-213
-212
-214
-212
-216
-202
-197
-209
-217
-216
-215
-221
-210
-208
-216
-204
-199
-215
-218
-214
-214
-214
-215
-210
-214
-205
-204
-199
-193
-203
-217
-207
-214
-213
-222
-209
-202
-200
-203
-209
-211
-216
-206
-207
-208
-204
-213
-206
-205
-213
-210
-201
-211
-204
-201
-201
-199
-216
-217
-220
-206
-206
-205
-203
-211
-212
-203
-203
-199
-210
-208
-211
-204
-209
-206
-202
-204
-211
-206
-206
-206
-205
-203
-214
-209
-207
-206
-205
-200
-209
-213
-211
-209
-213
-203
-202
-209
-205
-205
-206
-209
-229
-199
-199
-203
-206
-212
-208
-207
-211
-212
-201
-203
-217
-209
-207
-205
-198
-197
-204
-206
-208
-206
-208
-202
-211
-207
-202
-196
-201
-200
-202
-207
-218
-200
-203
-213
-206
-190
-199
-208
-211
-210
-210
-206
-210
-206
-204
-200
-212
-214
-208
-201
-209
-205
-206
-209
-205
-206
-206
-208
-195
-214
-222
-209
-202
-202
-207
-204
-207
-198
-196
-200
-211
-216
-204
-192
-197
-211
-218
-213
-201
-202
-206
-201
-200
-200
-199
-195
-199
-206
-201
-202
-205
-204
-206
-208
-205
-213
-205
-207
-199
-211
-215
-213
-207
-196
-193
-192
-195
-194
-200
-202
-206
-200
-188
-190
-199
-205
-208
-197
-196
-200
-204
-201
-199
-192
-198
-192
-189
-195
-188
-192
-195
-198
-202
-201
-201
-189
-184
-199
-208
-201
-192
-194
-200
-210
-215
-194
-197
-202
-201
-204
-201
-191
-191
-200
-193
-202
-200
-200
-194
-200
-210
-199
-200
-199
-203
-203
-212
-198
-188
-190
-200
-203
-201
-194
-191
-205
-205
-204
-199
-193
-195
-192
-193
-200
-197
-197
-195
-188
-183
-194
-197
-198
-191
-191
-180
-179
-185
-173
-160
-143
-132
-147
-143
-144
-150
-145
-154
-161
-153
-161
-161
-166
-191
-203
-201
-206
-196
-185
-188
-194
-192
-183
-180
-173
-171
-181
-181
-182
-187
-197
-188
-182
-183
-189
-181
-187
-175
-170
-177
-182
-168
-164
-184
-187
-175
-185
-171
-171
-176
-177
-168
-169
-167
-170
-187
-190
-183
-177
-173
-185
-176
-177
-183
-172
-170
-176
-167
-166
-163
-169
-170
-178
-174
-167
-167
-177
-176
-168
-171
-174
-171
-168
-170
-169
-162
-164
-162
-159
-162
-164
-161
-160
-157
-158
-157
-155
-154
-158
-154
-158
-153
-148
-166
-154
-159
-160
-153
-140
-138
-140
-149
-144
-138
-142
-150
-158
-147
-140
-144
-146
-137
-143
-141
-129
-122
-127
-133
-146
-140
-136
-130
-130
-125
-128
-130
-133
-132
-127
-137
-133
-128
-136
-130
-128
-138
-141
-143
-145
-147
-140
-145
-162
-167
-164
-163
-162
-163
-159
-168
-165
-176
-178
-174
-168
-173
-174
-172
-164
-164
-174
-185
-189
-182
-180
-180
-181
-189
-179
-186
-185
-178
-178
-178
-178
-187
-189
-181
-182
-183
-175
-177
-174
-168
-175
-179
-167
-169
-178
-177
-172
-183
-184
-181
-181
-176
-177
-181
-173
-178
-175
-174
-171
-172
-170
-174
-165
-165
-169
-172
-182
-179
-184
-178
-172
-181
-175
-174
-181
-176
-164
-174
-170
-175
-172
-182
-179
-172
-185
-174
-164
-167
-169
-162
-169
-179
-184
-170
-183
-177
-180
-182
-176
-168
-165
-170
-173
-172
-177
-174
-170
-170
-168
-167
-175
-183
-179
-172
-182
-183
-170
-166
-164
-166
-172
-167
-176
-185
-178
-179
-172
-177
-178
-168
-168
-171
-170
-168
-177
-171
-165
-165
-178
-160
-162
-179
-174
-181
-178
-179
-171
-174
-178
-159
-174
-177
-173
-171
-181
-163
-166
-165
-169
-170
-172
-171
-173
-177
-180
-173
-166
-169
-166
-161
-170
-169
-168
-162
-172
-165
-177
-170
-169
-174
-172
-178
-172
-166
-170
-165
-169
-171
-178
-161
-162
-166
-162
-166
-170
-172
-169
-171
-161
-160
-165
-171
-165
-170
-177
-166
-173
-177
-163
-156
-178
-177
-175
-168
-161
-158
-166
-168
-153
-160
-169
-162
-160
-165
-160
-154
-158
-167
-171
-161
-171
-167
-178
-172
-170
-171
-172
-177
-171
-168
-167
-169
-167
-175
-177
-172
-169
-169
-169
-169
-176
-169
-170
-177
-178
-162
-162
-163
-160
-173
-179
-184
-175
-171
-174
-173
-183
-177
-179
-169
-170
-169
-163
-178
-174
-174
-173
-173
-161
-163
-166
-163
-167
-174
-169
-167
-151
-133
-130
-130
-127
-128
-129
-141
-154
-145
-143
-143
-136
-130
-144
-165
-172
-185
-182
-178
-180
-176
-174
-177
-176
-170
-163
-160
-155
-156
-169
-174
-171
-169
-171
-165
-163
-160
-158
-166
-162
-158
-161
-152
-161
-163
-166
-154
-171
-178
-171
-162
-168
-175
-173
-164
-167
-172
-169
-164
-167
-159
-164
-171
-160
-164
-171
-167
-167
-172
-169
-164
-158
-159
-164
-163
-162
-166
-164
-164
-165
-165
-154
-167
-170
-165
-161
-164
-156
-157
-167
-152
-156
-163
-161
-174
-161
-152
-152
-157
-157
-150
-149
-149
-156
-153
-144
-148
-145
-158
-154
-152
-158
-150
-151
-143
-141
-145
-136
-133
-141
-133
-142
-160
-158
-155
-134
-129
-131
-139
-132
-130
-125
-134
-141
-147
-139
-136
-132
-130
-133
-128
-134
-143
-141
-130
-145
-162
-159
-144
-145
-152
-163
-158
-150
-152
-161
-167
-160
-168
-171
-164
-159
-180
-188
-178
-188
-186
-175
-176
-181
-186
-186
-185
-181
-177
-180
-173
-174
-181
-183
-173
-178
-177
-176
-181
-195
-187
-178
-186
-194
-193
-195
-193
-172
-170
-183
-179
-183
-183
-181
-176
-185
-181
-175
-182
-187
-172
-173
-177
-171
-173
-173
-184
-178
-177
-184
-175
-179
-183
-187
-177
-176
-175
-172
-183
-182
-174
-175
-181
-175
-164
-169
-174
-170
-168
-169
-173
-173
-171
-170
-172
-178
-170
-166
-183
-188
-178
-169
-170
-169
-166
-167
-162
-171
-172
-177
-169
-170
-168
-159
-162
-179
-169
-170
-172
-167
-159
-164
-162
-162
-170
-171
-172
-168
-167
-165
-165
-165
-161
-158
-161
-153
-162
-161
-170
-156
-152
-165
-166
-160
-161
-169
-171
-159
-158
-160
-162
-156
-161
-154
-160
-164
-158
-154
-155
-162
-153
-148
-148
-144
-150
-161
-156
-151
-146
-144
-146
-159
-151
-144
-147
-147
-135
-137
-148
-152
-145
-135
-139
-141
-145
-142
-146
-142
-145
-133
-132
-141
-138
-132
-141
-136
-136
-129
-133
-133
-128
-127
-112
-130
-126
-126
-130
-129
-131
-122
-117
-118
-123
-129
-135
-119
-103
-101
-111
-121
-116
-123
-131
-106
-105
-113
-112
-120
-118
-105
-111
-121
-119
-106
-114
-114
-106
-110
-113
-106
-102
-112
-105
-104
-104
-113
-112
-106
-116
-101
-101
-104
-95
-92
-96
-93
-95
-95
-97
-92
-107
-110
-95
-95
-97
-96
-87
-88
-90
-88
-85
-100
-93
-91
-94
-80
-79
-84
-85
-68
-64
-68
-82
-82
-90
-82
-86
-80
-73
-65
-69
-59
-37
-27
-26
-26
-18
-18
-33
-28
-38
-39
-33
-31
-35
-44
-57
-65
-78
-75
-66
-56
-59
-59
-55
-54
-55
-50
-45
-44
-43
-49
-46
-42
-39
-54
-45
-49
-41
-40
-32
-44
-38
-39
-34
-30
-38
-36
-41
-39
-40
-31
-27
-34
-30
-18
-24
-34
-25
-22
-19
-24
-24
-10
-12
-19
-23
-28
-27
-11
-21
-24
-21
-8
-15
-15
-10
-17
-17
-17
-16
-12
4
2
1
-8
-4
-7
-6
5
4
-9
6
9
-5
-4
-2
0
12
6
11
11
10
10
20
29
29
10
8
10
20
24
31
24
20
29
24
28
33
39
42
44
47
37
39
42
46
51
55
49
49
47
49
50
53
59
61
64
53
55
57
56
58
52
50
51
50
52
44
43
39
34
44
46
36
32
24
30
35
39
28
31
33
25
24
31
12
15
23
34
24
38
43
27
7
12
21
20
26
21
21
17
30
31
23
30
23
17
25
27
26
34
37
30
23
38
26
23
19
27
31
38
35
21
24
28
26
32
31
32
36
31
29
34
39
41
30
36
36
39
43
40
41
43
33
37
33
37
38
32
31
42
50
43
44
44
40
41
45
46
47
39
29
32
45
40
28
37
46
52
49
40
33
42
44
46
44
43
38
39
40
47
44
38
48
58
51
48
40
37
41
46
42
39
32
46
44
38
51
53
49
48
57
58
39
46
54
50
42
37
43
52
48
46
46
50
44
45
41
40
48
50
50
53
55
51
37
43
39
47
52
51
42
45
45
51
49
41
34
42
47
58
39
46
53
57
39
51
49
52
48
53
51
52
50
37
42
55
50
48
54
44
49
45
43
42
55
56
49
53
62
62
49
40
40
43
44
48
47
47
51
48
41
44
47
35
34
47
47
50
54
53
48
61
64
45
58
66
53
53
53
54
50
46
43
45
45
62
51
46
59
51
36
44
53
40
37
37
37
35
28
26
37
48
54
32
42
41
38
48
43
40
43
42
37
34
39
42
43
53
59
43
37
43
36
33
40
46
50
42
44
44
43
43
43
41
42
40
41
38
33
25
34
46
57
59
64
63
72
86
94
87
86
80
78
80
79
70
73
74
68
46
30
19
17
30
31
34
31
34
36
38
56
52
50
52
49
45
30
37
51
57
49
44
51
49
47
42
42
50
43
47
44
36
33
46
51
47
47
45
39
50
41
44
48
48
57
50
39
49
52
47
41
37
34
47
39
41
42
52
59
56
46
43
51
51
48
39
42
50
55
53
49
47
49
49
44
46
48
50
53
51
58
53
52
58
64
65
52
58
60
73
70
61
41
52
51
57
62
67
63
65
57
59
71
74
69
73
82
81
76
70
81
75
63
77
86
77
81
85
82
85
86
78
66
69
74
67
64
71
72
69
59
58
65
67
69
66
56
64
64
58
43
49
41
31
34
27
31
40
38
32
34
23
29
35
25
16
26
33
26
21
25
27
22
22
18
12
16
26
25
16
18
25
24
32
25
21
26
33
17
13
27
20
17
9
9
8
23
31
23
20
22
18
12
18
19
24
26
18
20
22
22
13
18
16
17
25
27
31
34
35
26
16
17
24
17
15
22
16
17
13
15
9
19
20
20
15
18
20
19
14
3
11
18
16
15
13
27
20
16
8
3
7
17
8
9
18
16
17
18
22
1
-2
9
11
6
0
9
5
8
12
11
3
8
6
9
9
10
7
-1
1
7
3
9
11
-7
-6
19
10
6
7
10
1
-3
-8
-1
5
11
5
11
6
-2
2
4
10
10
11
0
4
10
3
-8
-14
6
9
3
4
5
3
4
-5
6
3
1
8
5
-3
3
-2
-3
3
2
-7
-1
6
-9
2
17
13
2
9
7
6
9
7
-3
4
1
5
3
9
6
-9
-23
-12
-8
1
-12
-12
-2
-5
-2
5
-2
-3
-12
-8
-4
-6
-10
-3
-13
-13
-5
-14
0
-8
-11
-12
-8
-6
-2
-7
-9
-10
-12
-2
-6
-9
-8
-6
-7
-9
-9
-3
-19
-17
-10
-12
-2
1
-5
-17
-19
-10
-7
-9
-20
-25
-11
-1
0
6
13
1
16
34
41
38
32
22
21
17
19
19
21
28
21
4
-18
-37
-38
-29
-22
-24
-13
-11
-12
-11
-13
-10
-12
-4
-11
5
9
14
-5
-6
-10
-26
-19
-1
3
-11
-18
-8
-3
-7
-11
-19
-16
-14
-6
-7
-5
-6
-11
-4
-8
-10
-15
-15
-8
-7
-6
4
3
-11
-19
-8
-7
-6
-13
-17
-13
-11
-14
-8
-8
-12
-12
-15
-7
-1
7
5
-4
-9
-9
1
5
9
-21
-14
-5
-1
-4
-6
-7
-8
-2
4
7
4
10
0
14
6
-5
3
15
18
19
6
6
12
10
6
8
5
19
13
10
9
10
17
13
17
23
15
26
18
19
14
19
26
21
18
28
24
20
27
25
20
16
22
22
17
14
7
11
12
-7
-12
7
2
5
8
7
-7
-22
-20
-23
-19
-25
-23
-30
-32
-35
-31
-35
-25
-14
-18
-20
-34
-44
-42
-36
-31
-36
-36
-31
-26
-25
-30
-36
-39
-31
-31
-29
-38
-39
-34
-27
-30
-42
-34
-28
-31
-24
-31
-27
-21
-29
-27
-29
-17
-22
-48
-47
-52
-46
-33
-27
-29
-37
-41
-40
-31
-27
-31
-35
-32
-29
-30
-27
-30
-33
-32
-24
-31
-36
-38
-38
-31
-38
-35
-32
-32
-33
-37
-52
-36
-31
-38
-37
-39
-45
-40
-29
-26
-32
-30
-34
-31
-39
-36
-30
-33
-41
-38
-40
-31
-20
-23
-47
-46
-51
-43
-45
-48
-36
-25
-22
-47
-44
-35
-42
-46
-43
-50
-49
-34
-25
-32
-35
-31
-42
-43
-35
-34
-41
-38
-41
-48
-43
-36
-44
-42
-44
-43
-39
-26
-27
-49
-47
-52
-49
-49
-45
-49
-35
-31
-34
-46
-47
-43
-42
-39
-34
-44
-34
-34
-51
-55
-49
-36
-35
-38
-39
-47
-39
-34
-40
-52
-32
-33
-42
-41
-28
-35
-33
-28
-36
-39
-45
-51
-42
-34
-35
-41
-48
-41
-47
-46
-50
-47
-51
-54
-41
-34
-41
-45
-41
-43
-46
-50
-53
-47
-42
-45
-32
-41
-57
-50
-46
-51
-49
-48
-41
-57
-51
-49
-47
-43
-45
-47
-46
-37
-35
-43
-51
-47
-50
-49
-41
-42
-44
-47
-57
-57
-51
-41
-54
-60
-43
-35
-34
-25
-26
-19
-2
-5
4
11
-6
-4
0
-20
-27
-22
-14
-3
-3
-12
-46
-64
-62
-52
-56
-59
-46
-46
-42
-47
-37
-36
-34
-46
-51
-40
-41
-33
-35
-44
-27
-42
-47
-39
-37
-44
-36
-46
-44
-37
-40
-38
-36
-43
-44
-40
-22
-28
-46
-41
-35
-41
-39
-34
-42
-40
-36
-49
-39
-34
-42
-40
-24
-34
-30
-30
-26
-39
-43
-36
-38
-30
-28
-39
-31
-30
-37
-37
-41
-38
-35
-27
-28
-30
-46
-39
-29
-27
-24
-20
-26
-26
-27
-24
-27
-34
-30
-20
-28
-23
-31
-30
-19
-22
-26
-17
-16
-4
9
3
-24
-27
-18
-9
-2
-11
-3
-10
-15
-7
-6
-3
3
6
-6
-3
3
-4
3
-1
1
-9
-3
2
-5
-13
-12
-6
-10
-19
-23
-5
-3
-12
-16
-20
-23
-25
-27
-29
-35
-31
-34
-32
-28
-26
-38
-39
-48
-56
-49
-55
-46
-46
-55
-41
-48
-51
-49
-48
-49
-44
-45
-47
-57
-57
-44
-47
-58
-53
-43
-61
-55
-50
-54
-45
-43
-49
-57
-49
-59
-44
-44
-55
-57
-48
-55
-61
-51
-45
-42
-41
-39
-57
-60
-43
-49
-53
-52
-53
-53
-50
-54
-53
-57
-43
-37
-48
-49
-52
-46
-36
-40
-55
-52
-42
-42
-47
-52
-50
-51
-54
-49
-49
-32
-36
-51
-43
-50
-50
-47
-57
-59
-59
-51
-39
-36
-48
-55
-47
-48
-54
-45
-47
-59
-53
-45
-49
-49
-40
-47
-45
-46
-42
-51
-47
-52
-52
-46
-45
-43
-49
-46
-52
-39
-37
-43
-51
-50
-45
-48
-40
-47
-55
-53
-56
-53
-45
-36
-44
-57
-51
-50
-49
-47
-37
-40
-43
-47
-47
-46
-41
-44
-53
-35
-32
-42
-51
-50
-50
-41
-37
-46
-46
-35
-32
-43
-37
-47
-52
-46
-50
-58
-56
-40
-57
-58
-51
-47
-46
-49
-42
-57
-54
-44
-42
-53
-53
-54
-54
-50
-58
-59
-49
-45
-41
-49
-47
-37
-42
-41
-54
-54
-48
-43
-49
-44
-45
-41
-47
-51
-57
-54
-50
-42
-51
-52
-52
-60
-61
-52
-48
-47
-45
-52
-44
-32
-25
-27
-27
-17
-5
6
12
33
30
12
-2
-16
-19
-10
-13
-20
-46
-58
-67
-67
-64
-49
-47
-48
-44
-42
-43
-42
-39
-37
-36
-32
-43
-44
-43
-41
-39
-34
-43
-51
-51
-53
-55
-38
-22
-35
-40
-35
-40
-38
-38
-35
-42
-38
-38
-43
-33
-29
-38
-39
-36
-41
-51
-39
-51
-43
-34
-35
-37
-29
-35
-31
-53
-45
-40
-27
-32
-38
-33
-33
-33
-34
-30
-28
-40
-48
-37
-22
-21
-30
-34
-32
-34
-29
-30
-30
-25
-19
-30
-30
-25
-34
-21
-17
-21
-17
-23
-24
-16
-15
-11
-13
-16
2
-5
-12
-14
-20
-12
-10
-15
-9
-18
-13
3
6
5
-3
2
-1
-2
2
-4
-3
-4
-2
10
-8
-10
-15
0
2
3
9
0
-8
-3
-5
-15
-21
-11
-19
-17
-26
-26
-26
-39
-38
-35
-32
-39
-42
-41
-50
-49
-48
-51
-63
-49
-43
-50
-47
-54
-62
-55
-48
-45
-41
-43
-59
-68
-69
-54
-57
-56
-50
-49
-52
-49
-40
-36
-55
-53
-54
-56
-61
-51
-52
-52
-51
-54
-59
-53
-55
-57
-53
-50
-45
-53
-48
-47
-52
-40
-43
-54
-51
-32
-51
-63
-54
-44
-43
-56
-51
-60
-52
-49
-59
-62
-53
-44
-58
-43
-43
-63
-66
-48
-47
-56
-62
-61
-62
-45
-56
-51
-47
-49
-49
-48
-54
-60
-61
-52
-49
-60
-55
-45
-52
-62
-52
-50
-57
-58
-61
-53
-44
-47
-54
-55
-45
-55
-54
-55
-56
-52
-41
-43
-46
-49
-63
-52
-53
-61
-63
-68
-48
-54
-70
-69
-52
-49
-44
-61
-47
-52
-44
-59
-63
-53
-44
-52
-55
-55
-48
-46
-46
-52
-46
-49
-54
-60
-49
-44
-53
-54
-36
-51
-59
-56
-52
-58
-54
-53
-59
-63
-53
-62
-64
-57
-47
-49
-60
-68
-65
-49
-45
-57
-68
-58
-55
-64
-63
-61
-47
-44
-49
-55
-61
-52
-60
-64
-54
-45
-56
-55
-53
-51
-62
-57
-52
-48
-49
-53
-51
-55
-51
-53
-55
-46
-53
-56
-55
-45
-41
-51
-46
-44
-42
-40
-38
-30
-18
-22
-10
0
-11
-16
-21
-17
-15
-12
-13
-33
-26
-29
-37
-64
-73
-57
-56
-56
-52
-47
-46
-41
-38
-43
-47
-46
-37
-49
-49
-45
-43
-30
-41
-43
-45
-35
-35
-47
-52
-47
-46
-40
-44
-43
-35
-41
-47
-45
-37
-37
-45
-30
-39
-34
-45
-49
-44
-36
-30
-38
-33
-36
-40
-29
-25
-36
-43
-44
-37
-39
-45
-42
-32
-30
-39
-44
-40
-33
-25
-39
-34
-21
-20
-20
-38
-33
-45
-43
-33
-27
-28
-43
-32
-31
-31
-25
-32
-28
-22
-23
-23
-17
-21
-21
-23
-19
-22
-19
-14
-16
-11
-10
-10
-14
-22
-24
-15
-8
11
-2
1
-1
-10
-17
-4
-4
-10
-7
-6
-7
-2
0
-3
-2
-4
-2
-6
-3
-2
-1
-9
-8
-15
-33
-26
-26
-24
-27
-21
-31
-32
-28
-30
-35
-31
-36
-49
-49
-55
-48
-38
-46
-46
-42
-50
-49
-47
-44
-46
-35
-31
-32
-51
-52
-51
-47
-44
-51
-49
-46
-46
-44
-39
-43
-39
-41
-45
-48
-59
-51
-50
-47
-53
-53
-40
-33
-49
-59
-53
-53
-44
-48
-49
-53
-52
-48
-42
-39
-44
-43
-39
-41
-46
-45
-41
-44
-50
-50
-51
-50
-41
-37
-42
-38
-38
-39
-48
-38
-36
-48
-36
-36
-31
-57
-44
-48
-54
-60
-57
-48
-41
-46
-55
-48
-51
-50
-46
-44
-51
-48
-40
-38
-36
-44
-49
-43
-43
-45
-38
-37
-37
-37
-47
-52
-50
-52
-45
-43
-48
-39
-35
-36
-38
-34
-40
-53
-48
-43
-46
-41
-32
-34
-46
-50
-47
-36
-42
-49
-51
-42
-38
-45
-45
-39
-39
-45
-47
-51
-55
-48
-36
-34
-33
-36
-34
-29
-28
-31
-35
-39
-36
-38
-40
-33
-35
-39
-53
-53
-54
-47
-45
-33
-31
-33
-47
-51
-43
-34
-47
-43
-44
-53
-38
-37
-50
-56
-54
-38
-28
-38
-41
-46
-43
-43
-41
-34
-37
-48
-41
-40
-48
-48
-46
-43
-37
-47
-46
-41
-35
-35
-46
-39
-41
-31
-41
-48
-40
-40
-42
-41
-39
-42
-43
-46
-44
-40
-28
-31
-22
-24
-22
-11
-23
6
16
4
1
9
0
-6
-7
-6
-3
3
-16
-19
-29
-37
-48
-44
-49
-39
-36
-36
-38
-34
-29
-23
-27
-28
-38
-38
-27
-30
-38
-43
-28
-25
-28
-29
-31
-27
-30
-36
-30
-23
-19
-27
-29
-32
-38
-37
-37
-32
-29
-23
-20
-20
-26
-21
-14
-27
-29
-26
-24
-31
-34
-35
-22
-12
-16
-26
-26
-20
-27
-24
-18
-20
-24
-14
-13
-17
-19
-20
-22
-21
-19
-15
-13
-10
-13
-12
-17
-20
-11
1
4
-16
-9
-27
-20
-8
-9
-8
-12
-1
-4
-14
1
0
3
8
14
0
-4
7
12
9
17
23
11
6
8
1
20
19
23
11
8
11
14
12
16
22
12
14
20
24
21
23
21
27
23
7
6
5
2
4
1
-3
-3
-11
-8
-3
-5
-2
-7
-23
-18
-11
-14
-24
-25
-28
-27
-21
-27
-30
-26
-27
-30
-23
-31
-35
-44
-27
-28
-29
-29
-33
-37
-41
-30
-13
-14
-22
-26
-28
-31
-34
-37
-17
-31
-32
-30
-31
-39
-31
-37
-40
-34
-27
-29
-40
-28
-34
-32
-17
-17
-28
-33
-24
-24
-25
-33
-25
-28
-28
-29
-33
-29
-23
-28
-28
-29
-23
-35
-29
-23
-26
-27
-18
-22
-13
-14
-24
-34
-22
-23
-27
-31
-33
-44
-28
-19
-25
-32
-32
-27
-28
-25
-31
-37
-30
-26
-20
-23
-31
-29
-25
-24
-32
-26
-30
-28
-26
-21
-19
-25
-29
-29
-28
-27
-25
-22
-31
-29
-26
-28
-21
-20
-25
-28
-28
-24
-23
-29
-30
-16
-24
-29
-25
-38
-34
-20
-29
-30
-24
-19
-34
-41
-31
-28
-30
-32
-30
-30
-27
-16
-14
-25
-29
-35
-35
-38
-42
-25
-13
-13
-27
-26
-14
-17
-17
-26
-26
-25
-23
-20
-20
-25
-23
-23
-18
-16
-18
-16
-20
-24
-21
-25
-26
-29
-26
-24
-31
-19
-21
-34
-37
-36
-31
-30
-23
-26
-35
-34
-24
-24
-24
-20
-27
-28
-30
-33
-35
-31
-23
-30
-24
-26
-20
-29
-23
-30
-25
-28
-25
-26
-29
-31
-23
-18
-16
-21
-30
-37
-27
-15
-33
-32
-28
-34
-20
-23
-25
-27
-20
-24
-31
-28
-33
-31
-31
-41
-36
-12
0
7
9
2
12
21
26
27
30
24
15
17
24
21
12
9
-1
-17
-36
-34
-42
-37
-40
-35
-29
-21
-8
-15
-29
-9
-16
-22
-20
-20
-31
-21
-7
-4
-12
-20
-12
-7
-15
-22
-19
-23
-17
-24
-13
-9
-20
-4
-7
-20
-15
-21
-27
-20
-17
-13
-10
-5
-15
-20
-17
-11
-21
-21
-19
-18
-9
0
-1
0
-16
-27
-15
-15
-14
-3
7
-3
-13
-17
-10
-17
-15
-12
-3
1
-3
-8
4
1
-11
-10
-8
-16
-10
7
4
-3
-6
-9
-11
1
12
4
4
9
13
12
18
10
5
19
14
10
10
2
13
13
24
23
16
20
17
14
20
31
29
31
34
34
28
20
19
20
22
21
19
25
23
23
23
17
12
9
9
4
7
3
10
3
10
-12
-7
-11
-7
-12
-14
-13
-23
-25
-24
-18
-21
-23
-29
-7
-4
-18
-14
-19
-30
-24
-18
-25
-23
-24
-20
-25
-35
-31
-24
-22
-26
-22
-21
-26
-28
-24
-34
-32
-30
-26
-38
-39
-28
-14
-14
-19
-24
-30
-21
-20
-18
-22
-25
-24
-18
-17
-18
-26
-31
-24
-18
-29
-18
-21
-21
-20
-25
-23
-16
-9
-16
-23
-32
-34
-23
-22
-20
-17
-21
-22
-16
-26
-29
-25
-20
-15
-16
-24
-29
-34
-24
-26
-10
-20
-33
-31
-19
-21
-21
-16
-18
-21
-25
-17
-23
-15
-27
-24
-30
-31
-27
-19
-21
-22
-33
-34
-23
-20
-24
-30
-27
-17
-18
-22
-10
-14
-23
-26
-25
-23
-25
-23
-26
-22
-34
-23
-25
-26
-16
-14
-16
-16
-12
-21
-26
-20
-13
-24
-28
-25
-26
-18
-6
-7
-27
-19
-11
-22
-20
-20
-23
-20
-14
-15
-6
-6
-1
-16
-17
-36
-26
-12
-13
-18
-17
-22
-19
-21
-11
-14
-23
-11
-5
-12
-16
-21
-29
-32
-20
-16
-21
-10
-10
-17
-32
-17
-11
-15
-26
-22
-35
-26
-25
-18
-14
-22
-23
-17
-12
-15
-18
-22
-30
-33
-31
-19
-23
-21
-29
-22
-14
-15
-19
-26
-28
-16
-16
-19
-16
-13
-18
-16
-20
-27
-32
-21
-25
-25
-15
-17
-12
-5
3
15
19
18
25
34
37
23
17
14
14
7
12
13
-9
-17
-27
-44
-45
-37
-31
-36
-28
-22
-26
-12
-3
-4
-9
-2
2
-17
-22
-15
-12
-14
-11
-17
-14
-14
-17
-19
-9
-9
-15
-14
-10
-8
-9
-9
-12
0
-5
-7
-9
-9
-9
-9
-16
2
-1
-11
-18
-11
-6
-9
-4
-15
-6
-4
-7
-5
-8
-3
-11
-8
-9
-10
-5
3
5
-3
-11
-11
-8
-8
-9
4
0
-2
-9
-10
-4
1
3
4
-5
-3
-3
-6
10
12
2
3
10
14
5
4
6
5
10
13
10
10
19
23
24
26
21
15
20
20
22
21
20
27
34
34
31
32
17
6
11
19
22
26
29
23
29
5
7
13
26
22
18
23
24
12
10
5
4
6
7
3
2
-5
-8
-5
-12
-17
-11
-17
-14
-23
-21
-13
-20
-27
-22
-12
-19
-22
-22
-29
-27
-30
-25
-19
-19
-22
-23
-20
-21
-26
-30
-21
-22
-25
-22
-18
-21
-18
-27
-35
-33
-15
-14
-22
-32
-36
-31
-22
-26
-22
-26
-25
-31
-24
-20
-22
-30
-23
-17
-22
-20
-12
-16
-27
-19
-20
-19
-23
-23
-31
-27
-35
-22
-21
-8
-16
-24
-18
-16
-23
-22
-27
-33
-26
-21
-20
-17
-23
-27
-29
-21
-27
-33
-34
-29
-30
-28
-24
-28
-30
-29
-34
-25
-21
-27
-19
-21
-29
-33
-36
-27
-25
-38
-25
-4
-15
-18
-13
-22
-16
-13
-20
-32
-27
-27
-35
-30
-31
-22
-25
-20
-18
-27
-33
-25
-33
-33
-31
-24
-16
-18
-19
-30
-19
-27
-25
-33
-28
-37
-35
-21
-36
-23
-19
-33
-20
-20
-32
-30
-21
-17
-25
-35
-31
-18
-27
-19
-15
-19
-18
-17
-25
-25
-24
-17
-19
-23
-19
-18
-8
-12
-17
-28
-20
-25
-19
-18
-13
-3
-8
-21
-39
-31
-14
-10
-24
-29
-26
-16
-21
-23
-22
-23
-23
-17
-19
-18
-16
-19
-34
-26
-27
-23
-20
-21
-30
-24
-22
-22
-12
-24
-34
-19
-24
-29
-24
-19
-28
-29
-25
-20
-26
-20
-4
-9
-17
-20
-17
-16
-21
-26
-23
-13
-17
-29
-25
-23
-22
-28
-21
-17
-24
-21
-13
-19
-16
-16
-9
-3
9
20
20
19
40
41
27
24
20
13
16
22
19
17
7
-20
-43
-43
-29
-18
-24
-23
-23
-10
-5
-15
-13
-8
-15
-13
-7
-6
-8
-5
-8
-6
2
8
-6
-17
-14
-17
-17
-15
-11
-10
-11
-4
-7
-11
-10
-10
-7
2
-7
-10
-11
-8
-6
-6
-2
-20
-17
0
11
2
-6
-1
-3
-10
-12
-10
-9
-4
1
-2
-17
-11
-1
8
4
-10
3
9
0
-5
-1
10
9
13
15
4
7
-3
0
4
3
6
-6
-3
-1
5
16
28
19
2
13
20
15
13
24
23
21
22
23
22
18
20
23
40
41
23
20
31
27
29
30
30
26
35
42
28
25
23
29
36
43
30
46
39
41
32
29
30
29
22
27
21
23
19
19
8
13
13
12
3
-1
3
0
5
6
1
-4
-1
-8
-9
-8
-10
-10
-12
-4
-6
-12
-8
-9
-3
-14
-12
-15
-19
-10
-5
-7
-9
-10
1
-3
-10
-12
-9
-12
-12
-2
1
3
-14
-13
-15
-12
-5
-5
4
-2
-4
-5
0
4
-14
-12
-9
-6
-10
0
8
6
-2
-9
-5
-4
-3
-3
-5
-8
-3
-5
-3
-2
-3
1
-2
-4
-2
1
-3
-1
6
-3
-3
4
3
-3
-2
-1
0
-11
-5
-3
1
-4
-3
-5
-3
-11
0
5
-3
-5
-3
4
-2
9
11
5
4
-9
-7
-6
-7
4
3
3
-3
-4
-1
5
-1
-6
-19
3
3
0
13
5
-4
-5
-1
1
3
7
5
-1
-2
4
13
17
8
9
9
0
3
-5
-4
-1
-1
1
2
2
3
9
8
-4
6
-4
0
2
10
-3
0
5
4
-10
-4
2
9
8
-9
-4
9
16
13
9
11
15
16
6
10
13
16
8
6
9
5
10
19
13
15
13
16
11
26
23
19
10
19
12
7
6
5
13
16
8
9
15
8
3
1
9
8
4
-3
-5
4
21
19
11
13
13
12
11
8
12
12
12
14
16
20
12
16
15
16
12
17
21
19
17
16
5
2
8
8
12
16
22
16
11
24
18
14
22
17
12
17
18
11
11
5
9
12
17
14
25
32
34
33
42
45
71
80
78
68
61
71
58
54
70
69
52
53
40
16
8
12
28
33
35
22
26
31
34
36
31
40
29
32
34
26
22
31
33
26
34
35
21
20
31
42
37
22
28
30
21
26
20
24
39
32
19
27
30
28
39
43
34
35
30
34
31
42
42
37
37
41
49
42
41
42
43
44
46
55
44
46
46
31
26
25
36
34
38
47
49
56
48
44
41
43
53
56
56
58
64
60
49
56
54
50
62
47
59
60
62
58
67
72
75
72
72
65
66
72
75
64
76
65
74
74
78
85
97
88
82
78
84
86
82
86
92
93
82
74
81
82
85
88
80
78
75
83
85
82
80
66
63
62
59
60
54
56
53
56
59
54
56
50
52
52
46
43
48
58
61
40
38
42
47
43
45
41
43
52
57
56
55
46
40
41
43
48
47
44
53
55
60
57
50
53
58
49
46
49
52
49
51
51
55
50
45
55
53
50
58
58
55
57
63
61
62
57
57
61
67
61
61
59
59
51
63
59
61
67
63
60
52
56
54
61
59
59
53
65
59
55
59
67
63
60
72
77
66
64
65
61
66
63
62
58
59
70
69
74
84
82
68
54
68
76
66
57
65
69
64
61
67
72
65
68
66
69
69
54
60
60
56
71
74
69
66
69
65
69
67
65
69
65
49
64
79
78
68
75
68
74
82
73
61
67
71
79
85
80
74
66
69
72
70
77
79
77
75
80
72
67
64
63
62
65
69
71
71
74
70
81
79
68
72
82
72
69
75
74
64
59
61
64
81
74
57
65
73
63
58
65
66
63
70
69
72
57
60
74
74
74
60
59
68
70
69
54
62
61
65
71
71
60
63
52
55
60
62
68
57
67
66
57
63
63
70
55
57
78
69
58
65
58
54
63
64
58
57
62
62
63
64
58
65
69
69
80
90
100
104
108
121
124
116
101
93
81
75
74
81
83
66
50
36
36
40
43
46
52
55
49
58
52
52
73
75
74
72
68
74
59
65
70
71
64
65
65
69
67
67
70
61
56
59
60
62
60
59
69
66
65
55
59
69
74
75
70
67
60
67
80
57
53
69
75
63
68
71
70
74
69
64
52
66
69
64
69
78
67
61
67
72
68
76
67
59
65
74
75
77
74
73
73
74
74
71
73
71
79
80
78
71
77
73
79
80
91
94
78
70
83
85
78
85
90
80
98
105
96
100
82
97
99
110
83
82
86
94
88
95
99
100
100
97
89
86
96
105
93
93
96
85
78
94
90
75
78
78
81
78
71
65
66
66
67
40
47
59
56
50
56
48
40
40
46
49
43
41
42
43
43
42
46
53
55
37
39
38
38
32
36
30
32
39
38
49
52
36
34
43
34
30
33
49
38
37
40
45
44
42
40
38
43
47
35
38
42
45
45
26
38
31
37
35
38
36
48
42
35
38
42
33
30
23
43
51
51
42
46
39
43
35
46
37
32
32
36
33
30
43
39
32
32
35
38
42
42
39
35
38
35
36
36
36
40
45
55
45
33
28
33
19
13
27
35
33
43
40
38
45
27
25
33
37
44
33
29
38
34
36
32
32
40
41
29
32
40
30
29
40
33
33
40
36
42
45
41
39
34
26
32
26
27
30
28
36
31
34
32
31
32
32
39
40
31
36
38
42
35
35
27
23
41
47
37
41
35
26
36
39
36
27
36
30
30
36
34
39
31
45
26
29
33
25
26
35
33
31
28
30
29
27
37
27
28
29
22
28
34
37
26
17
17
25
28
30
27
16
24
27
32
34
38
38
29
34
33
17
5
26
41
31
24
27
23
34
35
32
30
32
19
28
24
17
23
25
24
17
26
41
43
37
40
44
61
74
71
73
72
66
57
47
51
53
70
87
59
37
34
14
11
19
20
15
13
27
28
31
30
36
38
41
44
33
28
39
33
34
22
21
36
37
35
27
30
29
27
30
32
26
15
38
36
27
19
23
34
22
31
30
23
24
32
33
36
39
41
34
24
28
31
32
33
26
39
42
28
34
33
37
37
34
35
34
35
39
40
32
35
43
45
37
31
31
41
45
42
33
38
34
40
36
41
46
47
44
40
37
36
41
38
36
52
45
47
57
53
43
41
49
60
53
56
59
65
61
60
56
63
51
51
57
62
68
64
67
58
54
57
47
61
58
58
57
57
57
54
43
54
50
43
47
44
40
39
45
36
27
23
21
20
26
21
19
18
19
22
23
17
16
14
23
19
8
5
7
11
12
6
3
2
1
-5
2
17
13
11
15
4
1
1
8
9
4
25
21
7
3
6
7
10
17
14
25
24
22
-8
8
17
12
13
5
9
29
19
6
-7
7
11
0
5
8
4
7
8
9
14
11
12
18
17
10
5
12
9
6
10
12
-3
5
22
25
22
12
9
12
7
0
-2
1
14
9
12
18
18
9
6
6
-1
9
14
5
6
12
4
-4
-1
0
4
-3
-3
1
7
5
6
9
9
11
9
4
7
6
11
16
7
4
-6
0
-4
-5
5
-8
-3
9
14
1
1
5
7
7
12
6
7
8
12
0
0
7
5
11
6
-3
-8
-3
1
7
2
5
0
13
2
-16
-11
4
3
5
15
16
7
-6
-5
0
6
8
7
9
21
6
-5
-2
6
14
18
19
-1
-4
4
9
2
7
5
-1
-5
4
-1
4
10
7
-4
-4
-7
-12
-5
5
5
2
-1
0
-3
-9
-6
-6
-7
-5
-1
-1
-2
-8
-9
-12
-11
-21
-2
10
1
3
0
-6
-14
-9
-7
-2
-2
8
9
7
-9
-17
-6
-4
-8
-10
0
5
2
-10
-9
-4
0
-4
-4
-4
-6
-7
-4
1
7
11
11
11
11
26
46
47
42
38
37
45
36
29
31
39
38
19
0
-7
-20
-13
-16
-20
-9
-2
-7
9
9
-1
0
5
1
-3
-2
0
1
-4
6
2
-2
-6
-10
0
-2
6
9
9
13
12
-2
-2
-3
-13
-11
0
2
1
-4
-2
1
-4
-1
7
-2
12
21
16
-9
-5
-8
-2
2
-1
5
2
7
6
-3
0
2
4
5
-2
5
9
13
6
10
14
10
5
1
9
13
8
7
7
2
23
16
6
15
14
14
15
20
21
15
19
18
11
20
24
14
24
35
27
27
31
30
23
37
30
28
33
32
36
34
29
28
22
36
44
45
40
42
34
46
50
36
35
29
34
29
34
47
29
34
29
27
20
21
22
18
9
8
16
13
8
-4
-1
8
5
7
5
-1
-21
-19
-11
-4
-10
-13
-2
2
-3
-4
-20
-17
-16
-11
-10
-7
-14
-12
-12
-9
-8
-11
-7
-4
-7
-17
-13
-9
-1
-9
-10
-3
0
-9
-8
0
-2
-16
-4
-5
-9
-5
-7
-22
-14
-7
-12
-13
-15
-9
-2
3
5
0
-5
-11
-10
-6
-1
-3
5
8
2
-11
-4
-4
-12
-6
-2
1
-4
-10
-9
-8
-7
-2
-7
-4
3
-9
-6
3
1
-8
3
0
2
10
2
-3
-3
10
5
-6
-5
-8
-6
0
4
3
0
4
-2
-5
3
-2
-12
-6
1
2
-1
-2
-4
1
1
4
5
2
4
-8
3
3
-2
2
-1
-6
-6
3
10
5
7
9
10
7
7
8
1
0
6
2
8
4
-4
-9
-4
1
3
5
4
7
3
-2
5
4
2
0
6
-6
-1
-1
3
8
5
9
12
17
20
16
9
10
11
13
4
1
8
11
10
14
12
8
15
16
11
17
19
18
18
16
20
28
23
19
22
31
24
8
13
26
27
21
10
2
11
16
13
18
14
13
16
19
24
19
15
29
21
13
16
22
28
22
23
28
14
22
20
22
20
23
24
14
22
24
22
27
26
21
26
17
16
12
15
19
30
24
19
13
19
29
25
24
22
29
9
19
22
28
20
43
35
22
28
30
30
28
24
25
29
31
34
33
22
33
38
39
37
40
56
79
81
82
85
83
78
76
73
64
74
74
55
52
38
34
12
13
26
27
27
37
46
45
40
35
40
53
45
39
41
49
39
37
42
40
42
42
45
36
40
48
49
47
44
32
37
37
39
48
52
53
49
52
60
58
48
46
50
42
43
35
49
53
46
45
53
52
48
52
50
53
49
43
49
46
39
51
50
45
50
61
54
57
67
62
46
43
54
73
71
64
63
58
58
62
65
68
64
69
66
70
63
65
66
57
70
75
71
72
65
60
64
67
74
75
77
75
74
77
88
88
81
83
78
80
86
88
74
76
92
96
82
86
95
91
90
92
88
92
93
80
78
83
74
71
68
72
70
67
69
62
56
45
46
44
42
49
40
47
48
42
36
36
40
31
41
39
36
39
33
22
25
38
37
35
36
34
30
33
39
34
32
39
40
32
30
37
35
36
42
32
26
36
40
32
28
23
34
31
18
29
28
39
36
24
16
20
27
28
39
31
31
35
28
38
47
35
26
26
34
31
29
33
27
30
29
24
33
42
31
24
27
25
27
26
28
28
26
30
40
31
26
31
25
18
24
12
20
27
28
28
26
25
18
20
22
17
28
28
23
25
26
32
27
27
24
29
25
26
25
24
26
23
19
22
14
17
21
24
15
15
16
12
20
29
14
20
24
22
16
20
18
27
18
14
23
18
15
24
13
13
23
19
18
18
17
12
22
19
11
21
23
28
27
18
13
13
16
20
25
16
13
15
2
2
8
4
9
20
18
14
18
11
7
8
17
8
14
20
9
17
13
19
19
14
13
11
15
22
9
17
29
13
10
21
23
19
16
16
16
15
17
16
19
5
