-14
-4
-8
-22
-16
-14
-13
-9
-16
-20
-23
-20
-10
-15
-23
-14
-19
-27
-14
-18
-18
-21
-17
-20
-23
-25
-20
-20
-22
-18
-21
-23
-27
-17
-22
-29
-28
-14
-17
-28
-24
-21
-29
-38
-20
-16
-26
-24
-24
-27
-21
-20
-23
-34
-30
-27
-32
-33
-22
-26
-25
-20
-26
-31
-31
-26
-24
-26
-29
-32
-32
-32
-32
-28
-29
-22
-38
-24
-25
-32
-35
-31
-33
-30
-30
-35
-34
-39
-42
-30
-26
-28
-39
-35
-39
-38
-36
-44
-44
-36
-41
-30
-37
-37
-36
-42
-41
-36
-36
-42
-42
-41
-42
-39
-29
-33
-36
-37
-37
-19
-32
-42
-34
-26
-34
-29
-28
-8
-15
-28
-19
-22
-28
-28
-26
-28
-35
-32
-40
-37
-40
-39
-38
-55
-41
-32
-37
-41
-39
-36
-42
-36
-42
-47
-45
-39
-38
-53
-46
-43
-45
-53
-47
-42
-45
-47
-50
-52
-42
-42
-45
-48
-52
-47
-53
-63
-49
-47
-9
6
18
35
52
63
90
109
114
111
102
69
42
-6
-25
-41
-45
-36
-48
-46
-48
-53
-55
-53
-40
-48
-46
-58
-52
-53
-51
-45
-51
-55
-52
-57
-49
-60
-54
-54
-53
-46
-49
-50
-47
-53
-53
-58
-56
-50
-45
-55
-47
-54
-44
-42
-51
-53
-55
-64
-46
-39
-43
-47
-68
-50
-41
-51
-44
-47
-40
-44
-52
-41
-54
-55
-39
-52
-39
-45
-49
-35
-33
-48
-50
-34
-37
-41
-39
-45
-39
-34
-20
-34
-27
-28
-29
-36
-30
-27
-28
-36
-32
-30
-33
-29
-29
-36
-39
-34
-29
-24
-28
-42
-43
-34
-36
-39
-41
-46
-41
-36
-37
-45
-50
-48
-49
-51
-57
-51
-34
-54
-53
-53
-55
-61
-56
-58
-60
-58
-65
-53
-56
-66
-63
-69
-68
-77
-74
-52
-55
-68
-72
-67
-73
-72
-67
-67
-66
-66
-70
-74
-69
-66
-71
-73
-71
-75
-75
-71
-68
-62
-70
-72
-73
-73
-76
-70
-69
-72
-67
-68
-64
-65
-74
-65
-73
-74
-72
-66
-73
-78
-77
-58
-67
-68
-74
-74
-72
-76
-81
-64
-64
-80
-79
-72
-71
-77
-73
-81
-78
-60
-82
-80
-73
-82
-70
-73
-80
-78
-76
-77
-79
-78
-88
-78
-77
-77
-77
-79
-85
-74
-76
-85
-73
-69
-81
-85
-83
-86
-85
-75
-83
-81
-81
-90
-87
-83
-84
-81
-79
-91
-84
-83
-83
-90
-94
-98
-88
-85
-89
-96
-87
-85
-85
-90
-89
-93
-90
-97
-96
-91
-71
-88
-89
-97
-98
-93
-85
-86
-92
-92
-91
-87
-96
-96
-96
-92
-93
-96
-95
-105
-94
-98
-97
-97
-86
-100
-99
-94
-96
-101
-104
-94
-95
-98
-93
-96
-110
-94
-89
-93
-87
-88
-93
-83
-86
-83
-82
-84
-81
-90
-84
-90
-92
-95
-88
-97
-95
-105
-96
-103
-104
-109
-108
-101
-110
-109
-104
-99
-101
-113
-110
-107
-116
-104
-109
-101
-114
-114
-113
-108
-115
-109
-119
-122
-115
-114
-117
-114
-108
-110
-117
-118
-122
-121
-110
-96
-78
-65
-49
-38
-16
2
23
56
65
58
46
17
-13
-60
-73
-81
-98
-100
-104
-101
-98
-109
-109
-114
-117
-108
-106
-106
-109
-105
-110
-106
-104
-114
-109
-107
-111
-110
-113
-104
-110
-111
-102
-110
-108
-107
-109
-104
-105
-106
-104
-105
-108
-112
-100
-102
-116
-113
-101
-109
-103
-98
-101
-107
-99
-109
-107
-99
-96
-103
-91
-97
-107
-103
-102
-99
-95
-99
-93
-98
-96
-103
-100
-93
-89
-92
-95
-91
-89
-92
-84
-95
-80
-86
-92
-87
-91
-78
-82
-86
-78
-82
-79
-87
-85
-81
-79
-85
-96
-79
-73
-86
-84
-81
-79
-96
-88
-94
-76
-87
-91
-84
-87
-89
-91
-90
-97
-105
-90
-96
-95
-105
-101
-100
-101
-111
-111
-112
-110
-108
-109
-113
-110
-117
-119
-122
-117
-113
-120
-117
-119
-119
-110
-113
-126
-121
-123
-123
-118
-122
-119
-120
-126
-124
-131
-132
-126
-119
-127
-121
-109
-115
-131
-125
-121
-117
-120
-121
-114
-119
-125
-121
-126
-127
-125
-122
-114
-121
-116
-125
-121
-125
-118
-123
-128
-125
-127
-124
-123
-124
-122
-119
-124
-124
-125
-125
-127
-120
-132
-122
-116
-123
-122
-122
-126
-127
-134
-109
-129
-123
-116
-119
-137
-122
-125
-125
-128
-122
-120
-125
-127
-132
-133
-129
-128
-137
-132
-133
-132
-135
-121
-120
-137
-140
-119
-126
-128
-127
-136
-133
-129
-130
-139
-142
-136
-128
-131
-135
-140
-138
-135
-124
-129
-141
-136
-149
-143
-137
-130
-153
-135
-138
-139
-141
-141
-142
-140
-153
-144
-135
-140
-146
-145
-141
-142
-149
-138
-140
-147
-146
-141
-146
-151
-147
-149
-146
-136
-138
-142
-147
-144
-145
-142
-139
-138
-147
-141
-125
-127
-124
-131
-130
-138
-139
-142
-121
-145
-140
-139
-142
-148
-146
-144
-137
-145
-158
-154
-148
-151
-153
-148
-159
-155
-162
-160
-156
-153
-150
-157
-155
-160
-157
-151
-156
-155
-153
-160
-165
-149
-145
-155
-159
-159
-162
-165
-161
-155
-151
-139
-129
-108
-91
-78
-48
-34
-21
5
26
21
4
-16
-39
-78
-117
-136
-143
-145
-136
-138
-148
-136
-148
-153
-157
-144
-145
-152
-151
-152
-147
-154
-147
-149
-155
-149
-146
-149
-151
-139
-149
-149
-146
-136
-149
-146
-145
-145
-146
-144
-141
-147
-147
-154
-147
-145
-153
-134
-151
-148
-144
-136
-144
-144
-144
-142
-144
-140
-145
-147
-137
-147
-143
-141
-140
-141
-140
-135
-144
-139
-126
-136
-125
-126
-134
-135
-139
-127
-123
-122
-132
-131
-127
-120
-126
-128
-127
-117
-118
-119
-119
-117
-117
-121
-118
-118
-116
-115
-122
-112
-114
-115
-119
-116
-123
-122
-117
-124
-125
-114
-118
-124
-129
-123
-117
-123
-129
-135
-126
-122
-129
-129
-134
-124
-137
-135
-139
-141
-138
-143
-135
-135
-140
-145
-145
-147
-149
-150
-143
-144
-145
-151
-145
-149
-154
-148
-149
-147
-147
-137
-159
-163
-139
-144
-147
-147
-149
-143
-139
-145
-157
-155
-141
-149
-150
-150
-144
-147
-145
-140
-141
-143
-144
-146
-149
-144
-140
-136
-150
-148
-144
-135
-141
-139
-148
-141
-148
-144
-147
-145
-153
-143
-142
-147
-150
-142
-151
-147
-132
-146
-151
-146
-139
-147
-152
-149
-150
-148
-127
-143
-143
-152
-153
-161
-149
-155
-151
-148
-144
-145
-140
-151
-154
-150
-152
-150
-150
-151
-152
-146
-146
-152
-152
-154
-154
-151
-152
-151
-149
-153
-151
-153
-156
-159
-155
-153
-147
-156
-151
-152
-150
-153
-163
-157
-140
-150
-152
-146
-147
-153
-155
-150
-151
-151
-155
-153
-150
-151
-139
-154
-153
-142
-151
-152
-154
-148
-139
-139
-136
-142
-139
-136
-134
-129
-139
-137
-141
-144
-144
-145
-145
-148
-144
-152
-150
-154
-154
-151
-147
-155
-155
-163
-157
-161
-168
-148
-143
-154
-158
-162
-153
-156
-152
-158
-158
-159
-161
-156
-160
-167
-162
-153
-149
-165
-162
-155
-161
-166
-165
-157
-147
-140
-131
-100
-84
-61
-41
-24
-20
9
7
7
-24
-46
-75
-120
-132
-148
-146
-148
-154
-153
-150
-158
-158
-155
-150
-151
-154
-158
-157
-154
-165
-161
-155
-161
-159
-160
-148
-143
-154
-151
-154
-157
-153
-152
-156
-153
-149
-152
-150
-148
-153
-145
-152
-149
-151
-147
-151
-147
-149
-154
-149
-141
-152
-155
-144
-143
-141
-147
-138
-138
-136
-136
-147
-136
-130
-135
-129
-139
-133
-132
-133
-128
-138
-133
-129
-119
-117
-123
-127
-121
-116
-116
-122
-117
-116
-125
-118
-117
-114
-111
-117
-111
-104
-105
-116
-120
-102
-111
-112
-116
-99
-102
-112
-113
-116
-113
-102
-112
-115
-113
-110
-110
-120
-121
-115
-119
-130
-118
-121
-120
-126
-129
-117
-123
-127
-126
-127
-129
-125
-127
-126
-134
-136
-135
-135
-127
-130
-142
-133
-131
-134
-139
-135
-138
-132
-133
-136
-130
-146
-136
-130
-148
-141
-132
-127
-130
-133
-134
-144
-131
-132
-130
-135
-136
-142
-135
-125
-126
-139
-134
-136
-138
-123
-125
-132
-140
-122
-129
-131
-142
-122
-128
-135
-131
-137
-131
-133
-126
-134
-130
-129
-131
-134
-127
-137
-129
-124
-136
-127
-130
-138
-135
-131
-129
-134
-133
-134
-136
-137
-142
-131
-134
-132
-136
-130
-126
-135
-137
-135
-139
-122
-135
-137
-142
-108
-135
-134
-127
-137
-132
-133
-139
-136
-136
-137
-134
-140
-130
-131
-139
-132
-131
-139
-135
-127
-136
-138
-130
-130
-130
-138
-129
-131
-140
-128
-127
-133
-132
-133
-129
-127
-125
-128
-127
-122
-118
-118
-120
-129
-121
-120
-119
-121
-129
-132
-133
-133
-124
-139
-139
-134
-138
-135
-134
-146
-135
-140
-141
-141
-144
-138
-140
-142
-140
-144
-143
-138
-138
-143
-143
-143
-149
-145
-145
-146
-148
-143
-147
-145
-144
-144
-142
-150
-154
-144
-136
-123
-112
-97
-76
-50
-44
-27
-1
3
7
3
-20
-54
-77
-112
-132
-136
-139
-142
-144
-142
-152
-147
-138
-140
-143
-140
-145
-149
-140
-142
-146
-142
-151
-140
-144
-139
-143
-142
-141
-141
-147
-131
-130
-139
-142
-139
-140
-139
-141
-136
-132
-137
-139
-134
-123
-137
-141
-134
-137
-132
-130
-131
-135
-131
-135
-131
-134
-132
-123
-130
-133
-129
-132
-129
-123
-131
-127
-127
-126
-126
-127
-119
-123
-124
-119
-117
-125
-118
-117
-118
-118
-109
-112
-114
-109
-114
-117
-108
-96
-106
-113
-111
-99
-109
-107
-95
-102
-106
-105
-111
-105
-110
-103
-111
-108
-107
-110
-114
-111
-109
-107
-111
-110
-116
-116
-117
-118
-119
-110
-122
-124
-129
-123
-120
-126
-124
-135
-124
-132
-129
-127
-133
-133
-136
-130
-136
-142
-146
-137
-136
-132
-139
-137
-139
-136
-142
-148
-143
-135
-143
-146
-143
-142
-144
-137
-139
-142
-138
-154
-144
-145
-138
-141
-137
-143
-139
-136
-141
-138
-141
-139
-137
-138
-136
-133
-141
-132
-132
-141
-139
-144
-143
-136
-138
-140
-135
-135
-137
-132
-150
-150
-133
-136
-145
-142
-142
-143
-137
-137
-142
-134
-138
-137
-137
-138
-144
-135
-144
-147
-141
-138
-139
-141
-141
-140
-148
-138
-131
-144
-132
-133
-145
-147
-142
-147
-145
-145
-140
-138
-145
-143
-140
-143
-150
-137
-136
-149
-148
-143
-142
-146
-151
-143
-141
-136
-142
-137
-135
-140
-140
-137
-137
-135
-138
-134
-135
-132
-119
-130
-131
-127
-126
-133
-135
-130
-140
-138
-137
-139
-136
-150
-145
-144
-141
-142
-124
-138
-140
-142
-143
-143
-142
-146
-142
-137
-142
-145
-142
-146
-138
-142
-140
-148
-148
-140
-150
-143
-138
-144
-150
-146
-145
-152
-161
-159
-148
-136
-126
-109
-90
-77
-60
-47
-28
1
7
3
-1
-26
-56
-83
-119
-132
-137
-157
-145
-138
-146
-149
-145
-153
-139
-143
-148
-151
-157
-154
-146
-157
-145
-144
-146
-143
-144
-147
-149
-151
-154
-135
-141
-143
-145
-146
-155
-135
-145
-146
-146
-148
-146
-149
-145
-147
-145
-144
-144
-141
-142
-142
-137
-145
-145
-141
-134
-142
-132
-145
-140
-134
-130
-129
-130
-138
-135
-136
-135
-131
-131
-135
-130
-131
-132
-135
-132
-130
-122
-123
-124
-125
-122
-127
-129
-131
-129
-131
-131
-125
-116
-124
-126
-122
-115
-119
-119
-119
-127
-116
-115
-109
-122
-125
-116
-118
-123
-124
-123
-114
-121
-107
-128
-128
-123
-130
-131
-132
-134
-126
-138
-138
-128
-132
-139
-136
-128
-141
-146
-143
-141
-141
-140
-138
-136
-143
-141
-147
-150
-152
-140
-148
-148
-153
-138
-143
-150
-153
-140
-141
-154
-155
-137
-140
-145
-142
-151
-146
-139
-137
-150
-145
-146
-148
-139
-137
-140
-143
-144
-150
-140
-130
-141
-148
-141
-140
-144
-150
-140
-134
-137
-149
-146
-138
-140
-145
-145
-142
-142
-142
-142
-142
-147
-154
-142
-144
-141
-150
-147
-137
-143
-143
-148
-141
-140
-147
-147
-151
-145
-147
-143
-143
-142
-150
-152
-146
-149
-148
-149
-141
-147
-143
-156
-148
-152
-153
-152
-146
-146
-149
-144
-154
-149
-139
-148
-162
-148
-143
-149
-150
-149
-149
-151
-142
-157
-159
-145
-147
-153
-147
-152
-146
-149
-151
-149
-144
-146
-145
-144
-150
-136
-134
-131
-129
-132
-135
-142
-138
-140
-138
-152
-137
-144
-152
-145
-153
-157
-151
-145
-143
-146
-156
-155
-148
-153
-155
-164
-156
-146
-153
-149
-158
-159
-148
-154
-153
-154
-151
-162
-162
-156
-145
-150
-154
-160
-159
-158
-158
-161
-166
-159
-158
-157
-128
-119
-95
-79
-64
-48
-29
-14
3
0
3
-38
-61
-94
-126
-141
-147
-151
-148
-149
-143
-145
-144
-158
-155
-161
-160
-161
-155
-157
-151
-159
-143
-155
-153
-148
-150
-158
-160
-153
-148
-148
-155
-151
-148
-147
-150
-149
-151
-150
-151
-156
-157
-151
-152
-141
-150
-145
-150
-152
-146
-134
-149
-143
-142
-151
-150
-150
-145
-142
-137
-138
-143
-145
-143
-136
-140
-150
-139
-140
-141
-133
-142
-127
-127
-133
-125
-134
-129
-126
-118
-130
-127
-126
-128
-118
-115
-120
-128
-130
-128
-119
-113
-124
-126
-125
-123
-130
-123
-129
-126
-124
-132
-140
-133
-131
-133
-138
-136
-136
-128
-123
-131
-140
-147
-147
-135
-127
-151
-142
-143
-146
-152
-151
-137
-152
-162
-141
-145
-149
-151
-154
-153
-153
-157
-155
-151
-153
-155
-157
-149
-154
-155
-153
-155
-153
-160
-160
-151
-156
-160
-154
-158
-150
-149
-153
-158
-153
-154
-162
-153
-150
-155
-150
-157
-152
-151
-159
-153
-144
-152
-151
-145
-154
-154
-162
-155
-146
-153
-155
-149
-150
-153
-154
-149
-144
-152
-153
-146
-150
-153
-160
-157
-146
-152
-151
-152
-155
-150
-154
-150
-149
-157
-157
-153
-157
-153
-156
-155
-158
-160
-153
-153
-160
-148
-151
-155
-159
-160
-152
-161
-154
-166
-170
-160
-157
-159
-155
-162
-161
-164
-162
-157
-159
-164
-168
-155
-160
-159
-158
-164
-166
-156
-157
-166
-157
-162
-159
-158
-171
-167
-161
-155
-149
-157
-158
-153
-153
-153
-152
-143
-144
-145
-147
-152
-156
-153
-159
-163
-159
-159
-159
-161
-168
-163
-169
-164
-169
-169
-168
-168
-156
-166
-167
-173
-168
-174
-172
-173
-171
-170
-175
-162
-169
-164
-170
-165
-173
-174
-174
-178
-169
-171
-164
-173
-183
-167
-171
-160
-153
-141
-125
-107
-85
-71
-51
-25
-13
-1
-6
-30
-53
-80
-116
-138
-161
-158
-157
-163
-155
-162
-164
-170
-169
-163
-161
-167
-160
-165
-163
-165
-166
-168
-162
-165
-165
-163
-163
-167
-162
-164
-157
-164
-164
-162
-160
-168
-162
-158
-156
-158
-159
-158
-158
-161
-160
-160
-157
-151
-159
-154
-161
-158
-138
-153
-158
-155
-146
-146
-157
-154
-147
-147
-151
-160
-151
-149
-153
-160
-136
-142
-136
-148
-148
-149
-146
-133
-137
-143
-145
-131
-135
-141
-141
-144
-134
-138
-132
-138
-134
-128
-130
-132
-126
-130
-133
-126
-126
-128
-127
-138
-138
-120
-132
-135
-137
-135
-117
-140
-131
-131
-136
-137
-140
-138
-130
-139
-148
-140
-145
-147
-149
-146
-137
-148
-160
-156
-151
-159
-151
-155
-149
-157
-171
-158
-161
-162
-161
-165
-158
-163
-160
-168
-164
-152
-170
-167
-170
-168
-162
-164
-165
-166
-167
-162
-165
-168
-175
-157
-159
-160
-165
-163
-162
-144
-163
-163
-157
-158
-165
-167
-166
-163
-152
-158
-153
-156
-162
-174
-161
-153
-159
-162
-167
-158
-155
-161
-153
-164
-161
-157
-153
-158
-163
-159
-160
-163
-161
-152
-152
-161
-158
-161
-165
-159
-158
-159
-163
-158
-150
-150
-158
-159
-161
-166
-160
-160
-166
-171
-148
-161
-148
-155
-164
-167
-163
-161
-164
-162
-158
-157
-166
-151
-166
-162
-166
-166
-164
-160
-162
-159
-161
-157
-163
-166
-163
-164
-166
-160
-153
-154
-166
-162
-160
-152
-161
-160
-162
-162
-164
-161
-163
-148
-164
-162
-157
-157
-157
-149
-159
-160
-149
-148
-148
-147
-140
-150
-138
-138
-151
-151
-150
-153
-158
-152
-154
-160
-164
-158
-146
-165
-164
-166
-161
-159
-151
-164
-164
-159
-167
-164
-174
-168
-160
-164
-156
-174
-166
-157
-161
-164
-158
-161
-168
-168
-159
-163
-164
-167
-171
-173
-166
-164
-150
-141
-125
-102
-88
-70
-47
-36
-13
1
0
-10
-35
-60
-94
-130
-154
-137
-157
-160
-156
-160
-153
-163
-157
-158
-153
-159
-168
-149
-165
-161
-159
-164
-161
-163
-162
-160
-162
-156
-159
-160
-153
-155
-162
-163
-143
-152
-150
-161
-158
-153
-149
-161
-161
-159
-150
-148
-150
-148
-149
-154
-151
-156
-156
-151
-146
-146
-156
-153
-144
-144
-149
-153
-149
-147
-149
-148
-145
-143
-152
-143
-146
-131
-138
-136
-135
-149
-144
-157
-139
-137
-134
-137
-141
-122
-134
-137
-132
-134
-138
-129
-124
-128
-123
-129
-132
-129
-126
-124
-135
-130
-128
-125
-127
-132
-121
-125
-134
-136
-131
-135
-139
-123
-124
-140
-140
-133
-136
-139
-138
-140
-138
-141
-134
-144
-142
-143
-143
-149
-156
-149
-127
-148
-150
-149
-149
-153
-155
-151
-145
-153
-160
-151
-151
-158
-156
-155
-155
-151
-149
-153
-159
-158
-158
-158
-159
-153
-156
-153
-159
-154
-151
-150
-152
-155
-156
-155
-144
-151
-156
-148
-154
-153
-157
-160
-158
-153
-155
-156
-139
-150
-158
-155
-150
-155
-157
-154
-158
-155
-157
-154
-157
-157
-165
-163
-155
-154
-163
-154
-150
-154
-163
-165
-165
-167
-167
-159
-161
-170
-169
-168
-174
-162
-169
-168
-170
-171
-175
-169
-175
-174
-174
-179
-181
-176
-177
-177
-182
-182
-167
-181
-182
-177
-181
-178
-183
-175
-182
-181
-171
-169
-169
-170
-169
-177
-180
-170
-173
-171
-171
-173
-173
-168
-170
-176
-172
-163
-169
-178
-170
-160
-165
-164
-167
-167
-168
-164
-165
-166
-165
-164
-166
-162
-160
-166
-163
-154
-161
-161
-161
-158
-147
-158
-160
-154
-148
-148
-143
-147
-151
-147
-159
-167
-164
-162
-150
-162
-159
-165
-170
-159
-166
-170
-162
-162
-162
-161
-154
-157
-165
-167
-149
-150
-154
-159
-144
-142
-147
-153
-153
-157
-152
-143
-149
-156
-157
-153
-146
-152
-156
-152
-152
-144
-137
-126
-109
-85
-79
-60
-40
-15
-3
18
25
12
-15
-49
-66
-104
-118
-129
-144
-134
-116
-134
-143
-138
-135
-127
-107
-126
-121
-109
-125
-127
-115
-116
-106
-117
-117
-102
-113
-110
-111
-100
-102
-106
-104
-110
-102
-101
-102
-103
-102
-101
-99
-105
-96
-98
-102
-96
-92
-95
-102
-87
-90
-86
-91
-94
-77
-78
-82
-82
-81
-81
-82
-72
-75
-82
-77
-77
-72
-73
-79
-75
-64
-68
-76
-75
-57
-79
-81
-67
-74
-66
-60
-58
-58
-60
-58
-59
-62
-62
-61
-53
-53
-51
-54
-56
-46
-48
-54
-49
-51
-39
-49
-49
-51
-56
-53
-48
-50
-48
-50
-50
-55
-50
-55
-56
-59
-56
-56
-69
-62
-66
-75
-66
-66
-67
-69
-71
-73
-70
-73
-79
-79
-68
-72
-81
-73
-71
-87
-86
-80
-82
-84
-80
-81
-77
-75
-86
-82
-82
-85
-87
-79
-74
-81
-78
-73
-71
-78
-69
-70
-74
-79
-90
-81
-85
-76
-72
-73
-73
-79
-91
-85
-78
-77
-80
-78
-77
-77
-76
-78
-76
-82
-82
-73
-71
-76
-68
-68
-75
-72
-76
-63
-71
-73
-66
-69
-70
-72
-70
-64
-70
-59
-70
-69
-77
-68
-63
-62
-71
-66
-62
-71
-74
-57
-63
-70
-62
-59
-67
-66
-68
-70
-66
-71
-73
-68
-58
-73
-68
-65
-67
-66
-73
-66
-62
-63
-68
-67
-53
-72
-71
-67
-62
-59
-63
-52
-64
-58
-53
-52
-62
-67
-61
-64
-53
-52
-62
-53
-60
-55
-56
-51
-52
-44
-49
-56
-56
-55
-29
-36
-44
-43
-43
-40
-41
-41
-33
-37
-55
-48
-44
-51
-44
-46
-52
-48
-48
-53
-57
-58
-55
-60
-55
-47
-57
-50
-53
-49
-52
-47
-60
-60
-50
-56
-61
-51
-54
-56
-55
-59
-54
-57
-65
-54
-43
-58
-52
-59
-64
-50
-48
-33
-7
-5
13
35
46
55
72
74
61
30
3
-35
-61
-62
-72
-75
-69
-69
-83
-69
-60
-60
-62
-64
-61
-67
-69
-70
-67
-62
-67
-68
-63
-70
-71
-66
-56
-65
-68
-67
-67
-68
-63
-57
-61
-67
-54
-54
-61
-71
-69
-60
-65
-60
-55
-58
-58
-60
-59
-63
-64
-60
-59
-61
-65
-65
-58
-55
-50
-54
-63
-46
-58
-56
-61
-63
-65
-62
-56
-60
-55
-57
-54
-57
-59
-56
-57
-62
-57
-41
-55
-46
-50
-47
-50
-54
-50
-45
-59
-39
-44
-55
-52
-42
-42
-45
-45
-49
-43
-49
-47
-47
-43
-47
-51
-54
-60
-59
-45
-51
-54
-57
-58
-62
-63
-66
-63
-63
-61
-69
-64
-67
-69
-83
-75
-71
-64
-74
-85
-80
-67
-80
-76
-81
-85
-89
-78
-79
-84
-80
-86
-85
-80
-86
-91
-90
-86
-88
-89
-92
-93
-83
-92
-87
-84
-92
-93
-97
-95
-87
-85
-91
-95
-95
-93
-97
-98
-94
-94
-90
-87
-91
-93
-92
-94
-96
-101
-105
-99
-97
-96
-98
-97
-103
-101
-102
-108
-123
-101
-109
-105
-105
-105
-103
-107
-108
-106
-113
-113
-101
-105
-113
-110
-114
-111
-113
-115
-111
-112
-110
-117
-116
-109
-116
-117
-118
-110
-112
-112
-115
-108
-107
-110
-116
-107
-108
-107
-109
-110
-114
-114
-109
-107
-111
-118
-117
-118
-120
-115
-116
-122
-122
-117
-112
-117
-119
-121
-118
-114
-107
-117
-118
-120
-109
-108
-115
-111
-112
-114
-118
-113
-102
-117
-109
-107
-103
-107
-106
-105
-102
-98
-97
-109
-108
-98
-108
-112
-113
-102
-114
-109
-117
-106
-108
-111
-120
-114
-118
-121
-113
-117
-119
-118
-125
-114
-116
-122
-122
-124
-123
-117
-128
-131
-133
-123
-123
-135
-137
-134
-134
-132
-130
-123
-132
-142
-138
-139
-126
-112
-109
-86
-65
-57
-39
-24
-5
12
21
6
-5
-28
-45
-83
-110
-125
-128
-131
-129
-139
-139
-139
-128
-134
-141
-137
-133
-134
-139
-137
-137
-117
-132
-136
-131
-133
-139
-138
-141
-139
-130
-136
-130
-129
-142
-134
-135
-132
-132
-128
-133
-131
-133
-129
-129
-128
-123
-124
-134
-131
-128
-129
-129
-123
-121
-133
-125
-125
-130
-123
-114
-104
-118
-121
-123
-125
-113
-113
-113
-110
-115
-101
-107
-118
-108
-102
-103
-105
-109
-93
-92
-100
-103
-97
-102
-100
-103
-87
-91
-93
-95
-92
-90
-90
-92
-89
-91
-87
-90
-99
-93
-86
-88
-92
-98
-99
-96
-102
-98
-101
-87
-101
-107
-101
-95
-103
-96
-108
-108
-107
-106
-113
-112
-111
-113
-115
-117
-120
-113
-113
-115
-116
-123
-118
-117
-114
-122
-127
-133
-119
-123
-126
-123
-124
-126
-129
-132
-132
-126
-125
-130
-127
-124
-128
-123
-131
-121
-129
-132
-131
-119
-136
-129
-127
-127
-135
-132
-128
-130
-135
-130
-132
-134
-132
-131
-131
-135
-143
-138
-134
-132
-129
-130
-131
-132
-130
-124
-128
-134
-136
-132
-131
-135
-131
-137
-127
-139
-138
-121
-137
-131
-138
-134
-142
-142
-126
-134
-139
-141
-139
-133
-140
-145
-143
-143
-133
-130
-139
-142
-139
-136
-143
-137
-145
-132
-143
-146
-144
-144
-149
-135
-137
-140
-135
-141
-145
-147
-144
-147
-154
-139
-140
-140
-141
-144
-144
-146
-148
-148
-150
-150
-150
-138
-144
-148
-149
-147
-154
-143
-146
-156
-142
-147
-164
-163
-144
-139
-152
-153
-158
-142
-152
-151
-161
-156
-157
-155
-152
-153
-157
-160
-160
-163
-162
-165
-173
-178
-174
-176
-176
-177
-181
-184
-174
-185
-194
-188
-187
-184
-186
-187
-193
-195
-190
-195
-181
-186
-199
-200
-192
-194
-197
-196
-189
-195
-198
-197
-197
-206
-205
-193
-193
-203
-203
-203
-209
-203
-191
-184
-173
-151
-131
-114
-103
-83
-64
-41
-26
-39
-57
-71
-94
-124
-158
-178
-185
-182
-188
-195
-195
-197
-206
-204
-204
-194
-202
-200
-197
-209
-194
-197
-193
-197
-205
-199
-202
-198
-206
-203
-186
-202
-205
-196
-201
-198
-194
-187
-193
-200
-197
-191
-196
-200
-191
-198
-199
-200
-193
-199
-186
-193
-185
-190
-189
-189
-197
-193
-197
-192
-189
-196
-193
-184
-190
-190
-181
-186
-185
-189
-191
-187
-188
-182
-181
-182
-182
-177
-177
-178
-175
-176
-173
-165
-177
-174
-180
-167
-165
-170
-157
-158
-166
-163
-161
-168
-169
-163
-168
-159
-148
-170
-161
-159
-166
-171
-165
-162
-168
-166
-160
-166
-165
-163
-167
-170
-166
-175
-167
-160
-175
-181
-171
-171
-176
-184
-183
-177
-174
-176
-180
-185
-183
-183
-184
-183
-191
-182
-178
-193
-180
-189
-188
-183
-190
-179
-174
-189
-193
-191
-192
-182
-186
-189
-185
-192
-186
-187
-188
-187
-185
-187
-186
-187
-179
-183
-191
-184
-179
-176
-182
-184
-185
-185
-186
-184
-189
-180
-185
-179
-186
-173
-180
-187
-183
-183
-179
-183
-175
-181
-184
-187
-175
-182
-179
-171
-180
-190
-178
-177
-184
-188
-180
-171
-183
-187
-177
-178
-173
-176
-184
-175
-175
-186
-177
-178
-183
-185
-180
-175
-181
-185
-182
-179
-172
-179
-176
-179
-174
-185
-174
-181
-187
-185
-177
-187
-178
-178
-169
-175
-184
-173
-179
-174
-176
-170
-177
-180
-175
-179
-176
-175
-170
-178
-179
-172
-176
-179
-179
-169
-172
-170
-172
-179
-179
-170
-178
-180
-177
-171
-170
-175
-173
-174
-177
-177
-182
-163
-164
-173
-175
-171
-170
-174
-169
-169
-173
-168
-163
-162
-163
-161
-165
-158
-157
-155
-154
-154
-155
-162
-164
-174
-167
-165
-169
-169
-172
-173
-175
-178
-174
-170
-171
-171
-173
-175
-181
-179
-177
-173
-179
-170
-174
-177
-181
-184
-173
-178
-177
-174
-165
-179
-183
-186
-180
-183
-174
-176
-169
-179
-191
-183
-174
-167
-159
-147
-128
-104
-91
-65
-43
-31
-16
-4
-12
-32
-58
-77
-115
-153
-156
-167
-163
-164
-163
-166
-175
-181
-179
-166
-171
-174
-174
-173
-176
-174
-173
-172
-172
-163
-173
-172
-174
-173
-168
-169
-163
-175
-173
-172
-167
-168
-168
-172
-176
-176
-166
-168
-163
-166
-162
-168
-165
-164
-166
-162
-152
-158
-150
-159
-162
-167
-157
-145
-148
-155
-156
-160
-159
-149
-152
-154
-148
-147
-146
-149
-149
-147
-143
-143
-148
-140
-136
-139
-146
-144
-138
-132
-138
-133
-140
-130
-130
-134
-134
-129
-128
-130
-135
-129
-122
-120
-126
-125
-121
-115
-122
-117
-122
-112
-115
-123
-109
-115
-112
-112
-113
-114
-114
-111
-115
-107
-115
-130
-113
-110
-121
-111
-110
-118
-116
-112
-119
-117
-119
-123
-118
-125
-129
-123
-123
-122
-123
-126
-122
-126
-117
-127
-119
-113
-134
-126
-116
-124
-127
-122
-121
-127
-130
-132
-122
-127
-127
-108
-115
-127
-119
-121
-121
-119
-119
-116
-121
-117
-119
-123
-115
-120
-116
-120
-119
-115
-116
-122
-121
-118
-125
-125
-116
-111
-115
-120
-111
-112
-118
-118
-104
-112
-121
-122
-122
-119
-118
-116
-114
-118
-117
-116
-119
-124
-121
-115
-114
-115
-117
-125
-120
-110
-119
-117
-125
-119
-112
-122
-124
-113
-118
-121
-115
-111
-115
-117
-118
-118
-117
-112
-119
-124
-115
-116
-117
-117
-118
-120
-124
-118
-120
-119
-119
-116
-108
-114
-126
-121
-120
-115
-120
-119
-119
-123
-122
-120
-123
-125
-128
-120
-118
-127
-123
-116
-117
-113
-121
-114
-127
-113
-119
-121
-117
-117
-118
-120
-121
-118
-109
-117
-117
-115
-107
-112
-111
-110
-109
-114
-108
-100
-103
-106
-96
-102
-105
-113
-116
-106
-112
-110
-110
-113
-111
-122
-113
-119
-123
-117
-115
-117
-114
-122
-118
-112
-120
-121
-125
-125
-113
-116
-124
-121
-120
-118
-113
-114
-115
-115
-124
-113
-120
-123
-118
-121
-123
-121
-119
-121
-120
-108
-94
-79
-64
-48
-29
-5
8
25
57
68
56
36
10
-11
-57
-87
-94
-88
-100
-99
-95
-98
-104
-89
-98
-97
-100
-98
-97
-100
-106
-102
-97
-99
-95
-96
-92
-100
-104
-96
-97
-98
-99
-97
-95
-104
-95
-92
-101
-89
-97
-99
-97
-96
-95
-96
-92
-90
-95
-91
-92
-91
-92
-84
-90
-92
-91
-87
-89
-90
-86
-88
-89
-86
-93
-88
-86
-82
-91
-82
-81
-85
-85
-78
-72
-84
-85
-75
-76
-73
-67
-72
-67
-70
-66
-70
-77
-67
-57
-71
-68
-59
-64
-64
-63
-67
-74
-63
-61
-59
-62
-64
-58
-58
-66
-65
-61
-68
-67
-63
-65
-70
-70
-67
-73
-80
-77
-78
-70
-72
-74
-78
-74
-82
-82
-81
-81
-80
-81
-82
-83
-89
-89
-79
-87
-88
-89
-89
-84
-81
-94
-100
-85
-84
-90
-88
-91
-90
-87
-88
-87
-85
-80
-86
-97
-89
-83
-80
-79
-91
-90
-79
-74
-80
-80
-88
-81
-82
-73
-83
-79
-81
-81
-81
-85
-69
-67
-75
-78
-80
-82
-70
-72
-64
-71
-77
-66
-64
-70
-71
-74
-69
-68
-70
-82
-73
-73
-63
-61
-69
-69
-64
-66
-65
-70
-69
-73
-60
-61
-64
-65
-66
-70
-64
-66
-67
-65
-64
-66
-68
-58
-64
-65
-69
-64
-65
-62
-54
-66
-56
-64
-68
-64
-67
-56
-56
-61
-56
-50
-71
-58
-60
-64
-61
-54
-62
-60
-61
-61
-64
-50
-51
-58
-55
-49
-51
-52
-52
-53
-61
-50
-51
-55
-49
-42
-33
-44
-40
-41
-39
-38
-43
-29
-36
-31
-34
-28
-26
-24
-29
-26
-32
-36
-39
-39
-40
-45
-42
-28
-36
-46
-44
-42
-49
-48
-49
-42
-25
-38
-41
-51
-48
-41
-41
-40
-46
-44
-35
-40
-40
-44
-45
-41
-42
-37
-41
-38
-45
-42
-49
-42
-41
-53
-53
-34
-29
-22
4
15
24
46
65
83
100
125
123
111
96
63
37
-3
-30
-31
-36
-37
-37
-39
-30
-27
-31
-38
-37
-34
-36
-37
-34
-39
-45
-30
-30
-29
-31
-41
-25
-39
-36
-37
-24
-29
-29
-30
-25
-37
-27
-26
-27
-29
-24
-19
-18
-14
-30
-39
-10
-10
-19
-21
-12
-24
-23
-19
-15
-13
-14
-6
-17
-12
-17
-9
-8
-9
-11
-14
-8
-3
1
0
-1
-4
-6
0
2
3
11
2
1
7
14
2
7
12
4
4
14
9
6
11
18
16
13
19
19
15
12
16
16
16
22
14
16
20
12
10
16
17
14
11
9
13
14
6
9
10
7
7
-8
-1
1
10
-1
-3
0
2
-5
-10
2
-13
-9
-10
-15
-11
-12
-4
-13
-17
-10
-14
-9
-13
-9
-5
-11
-20
-14
-12
-15
-8
-9
-16
-17
-15
-17
-14
-8
-11
-8
-16
-13
-12
-12
-12
-16
-20
-11
-10
-16
-12
-14
-11
-3
-5
-15
-20
-14
-6
-10
-18
-15
-9
-18
-20
-22
-15
-6
-14
-16
-16
-15
-23
-11
-11
-11
-12
-28
-33
0
-15
-22
-28
-14
-17
-22
-21
-15
-15
-14
-18
-21
-23
-22
-19
-24
-17
-26
-19
-26
-25
-26
-18
-21
-30
-29
-33
-29
-29
-31
-33
-26
-37
-20
-34
-26
-21
-33
-37
-28
-30
-29
-28
-29
-24
-31
-27
-28
-26
-26
-25
-32
-26
-30
-29
-32
-24
-18
-22
-23
-23
-27
-33
-26
-26
-34
-40
-33
-35
-36
-43
-45
-51
-36
-33
-47
-48
-45
-35
-49
-46
-46
-46
-52
-54
-53
-46
-38
-40
-46
-49
-53
-54
-48
-55
-48
-47
-49
-56
-47
-51
-50
-57
-53
-55
-46
-40
-27
-13
-3
19
33
52
67
81
96
87
64
44
13
-18
-42
-47
-49
-49
-44
-46
-51
-45
-46
-46
-44
-42
-44
-40
-42
-46
-49
-40
-44
-36
-36
-40
-44
-46
-45
-42
-38
-33
-30
-37
-39
-41
-41
-38
-42
-39
-38
-35
-25
-34
-32
-33
-33
-32
-36
-24
-33
-34
-29
-27
-28
-34
-29
-30
-32
-22
-26
-26
-18
-26
-28
-22
-22
-30
-32
-17
-20
-18
-20
-19
-15
-14
-20
-23
-17
-21
-16
-10
-17
-15
-17
-18
-15
-16
-12
-6
-6
-3
-9
-10
-12
-9
-8
-10
-12
-6
-15
-8
-5
-5
-8
-12
-12
-15
-12
-16
-3
-18
-16
-17
-20
-20
-18
-17
-20
-27
-29
-36
-30
-28
-36
-35
-33
-39
-37
-44
-41
-46
-46
-51
-40
-49
-50
-50
-52
-53
-55
-50
-55
-55
-53
-58
-59
-58
-49
-48
-58
-58
-59
-54
-60
-60
-55
-52
-58
-63
-65
-64
-62
-58
-63
-72
-63
-69
-60
-54
-57
-59
-59
-56
-63
-64
-55
-56
-61
-61
-60
-53
-61
-58
-56
-53
-60
-64
-64
-53
-55
-54
-58
-58
-57
-58
-56
-55
-51
-63
-57
-53
-61
-62
-60
-58
-55
-58
-57
-58
-55
-64
-64
-60
-44
-61
-62
-57
-63
-63
-62
-53
-53
-46
-56
-62
-64
-59
-60
-58
-58
-57
-59
-63
-49
-53
-64
-65
-62
-52
-53
-52
-50
-45
-48
-42
-44
-43
-46
-45
-51
-55
-51
-61
-62
-53
-57
-60
-57
-61
-54
-61
-65
-61
-59
-56
-58
-60
-56
-59
-66
-57
-60
-67
-63
-67
-66
-63
-59
-63
-72
-62
-62
-60
-61
-66
-66
-62
-61
-66
-62
-70
-73
-69
-59
-51
-37
-27
-14
9
34
44
63
78
81
69
64
36
8
-18
-46
-55
-60
-62
-58
-66
-60
-61
-67
-62
-61
-63
-62
-63
-66
-67
-66
-66
-61
-55
-59
-66
-63
-60
-64
-67
-59
-56
-52
-59
-61
-65
-66
-61
-62
-59
-59
-52
-55
-60
-58
-60
-60
-54
-56
-57
-54
-61
-63
-46
-51
-55
-56
-52
-51
-53
-55
-58
-51
-51
-50
-56
-52
-52
-49
-49
-49
-44
-48
-47
-43
-46
-45
-44
-43
-43
-43
-41
-46
-39
-34
-39
-36
-38
-34
-29
-36
-34
-36
-39
-40
-33
-27
-29
-21
-31
-39
-36
-38
-40
-39
-33
-41
-39
-36
-44
-42
-45
-48
-48
-48
-50
-51
-52
-54
-51
-57
-51
-55
-48
-55
-63
-61
-63
-62
-69
-58
-58
-65
-69
-73
-65
-67
-71
-71
-69
-73
-64
-69
-72
-70
-72
-74
-68
-69
-65
-69
-69
-67
-73
-67
-62
-62
-63
-66
-64
-68
-70
-65
-58
-64
-57
-60
-55
-60
-61
-64
-53
-55
-61
-61
-63
-54
-54
-60
-59
-61
-57
-55
-54
-56
-58
-54
-66
-57
-63
-58
-60
-63
-64
-57
-62
-66
-52
-51
-60
-56
-62
-64
-60
-61
-54
-56
-62
-62
-64
-53
-56
-56
-58
-51
-45
-51
-56
-55
-57
-56
-57
-54
-40
-46
-47
-48
-47
-48
-43
-47
-46
-44
-42
-40
-46
-47
-47
-41
-43
-44
-38
-40
-37
-40
-39
-35
-32
-29
-37
-23
-27
-35
-28
-39
-37
-30
-36
-40
-34
-48
-38
-35
-41
-42
-46
-48
-46
-49
-51
-43
-49
-50
-46
-51
-43
-44
-43
-47
-49
-53
-40
-44
-44
-49
-47
-42
-42
-44
-46
-48
-55
-43
-43
-48
-37
-32
-20
1
17
32
55
76
88
107
129
121
94
68
48
22
-7
-22
-26
-32
-35
-35
-36
-36
-36
-32
-33
-40
-42
-35
-41
-37
-34
-35
-42
-40
-27
-29
-37
-27
-36
-40
-37
-35
-34
-35
-36
-34
-33
-31
-34
-35
-28
-31
-38
-39
-30
-34
-44
-31
-27
-29
-36
-32
-35
-28
-24
-36
-32
-25
-28
-33
-26
-25
-29
-29
-22
-17
-26
-30
-29
-26
-27
-21
-31
-24
-25
-19
-22
-31
-19
-26
-9
-20
-16
-14
-21
-15
-11
-9
-10
-14
-14
-10
-13
-11
-2
-10
-18
-5
-10
-4
-8
-9
-9
-10
-10
-14
-20
-15
-11
-16
-19
-13
-11
-17
-20
-19
-19
-26
-27
-20
-16
-19
-22
-17
-20
-23
-31
-26
-26
-27
-31
-33
-32
-34
-36
-35
-20
-37
-38
-33
-34
-39
-42
-41
-36
-41
-34
-30
-39
-40
-37
-42
-42
-33
-38
-40
-36
-43
-39
-31
-36
-35
-40
-41
-37
-37
-39
-37
-41
-35
-36
-44
-33
-30
-36
-36
-38
-39
-42
-35
-36
-34
-32
-39
-38
-41
-40
-35
-37
-35
-31
-33
-39
-40
-42
-41
-35
-41
-43
-32
-27
-38
-37
-47
-26
-38
-38
-46
-41
-42
-35
-41
-43
-43
-44
-46
-47
-49
-37
-40
-39
-40
-42
-39
-47
-51
-48
-42
-40
-40
-44
-45
-35
-42
-45
-44
-41
-44
-45
-40
-36
-42
-40
-40
-32
-33
-42
-36
-32
-33
-32
-27
-29
-26
-27
-24
-25
-31
-30
-23
-27
-36
-34
-34
-40
-39
-23
-35
-36
-35
-35
-41
-37
-38
-35
-31
-39
-35
-36
-35
-32
-40
-44
-35
-42
-43
-37
-39
-46
-41
-39
-42
-36
-37
-47
-33
-37
-41
-43
-49
-42
-44
-45
-33
-15
-7
10
29
42
74
86
113
123
123
110
83
59
29
-8
-25
-29
-32
-32
-34
-34
-40
-36
-35
-32
-31
-33
-35
-38
-35
-39
-41
-42
-34
-34
-36
-39
-35
-34
-36
-39
-40
-38
-34
-40
-38
-40
-37
-31
-36
-40
-29
-41
-31
-34
-34
-35
-39
-38
-27
-29
-30
-32
-33
-33
-32
-33
-34
-30
-22
-29
-32
-34
-33
-29
-26
-29
-23
-29
-23
-35
-27
-23
-22
-27
-27
-19
-21
-20
-14
-20
-29
-28
-14
-9
-13
-12
-17
-15
-12
-10
-10
-20
-16
-16
-8
-8
-12
-9
-15
-13
-17
-25
-11
-1
-15
-22
-10
-9
-14
-11
-16
-27
-15
-13
-13
-16
-22
-23
-25
-18
-18
-18
-21
-19
-25
-30
-17
-27
-25
-22
-25
-20
-29
-34
-23
-25
-25
-35
-34
-37
-35
-29
-27
-31
-38
-33
-35
-36
-32
-31
-30
-29
-28
-38
-42
-34
-25
-23
-37
-40
-35
-31
-32
-36
-37
-34
-39
-26
-29
-31
-31
-33
-34
-33
-33
-20
-34
-35
-24
-34
-25
-30
-27
-29
-33
-21
-27
-31
-37
-29
-32
-31
-26
-35
-40
-33
-30
-28
-29
-34
-26
-34
-33
-35
-36
-34
-32
-34
-33
-34
-32
-35
-37
-40
-32
-34
-33
-33
-40
-41
-35
-38
-45
-43
-21
-34
-35
-39
-31
-29
-34
-38
-35
-32
-40
-39
-26
-31
-35
-41
-31
-32
-35
-29
-30
-42
-39
-37
-36
-32
-29
-24
-21
-24
-24
-26
-17
-27
-21
-26
-29
-38
-28
-24
-33
-28
-31
-32
-38
-38
-30
-40
-35
-35
-28
-33
-39
-32
-35
-34
-36
-31
-28
-31
-37
-38
-27
-33
-33
-31
-28
-27
-31
-28
-33
-29
-31
-42
-28
-36
-37
-36
-31
-15
1
19
27
49
80
89
109
128
135
131
100
83
55
19
-10
-16
-19
-19
-20
-21
-19
-22
-20
-31
-29
-13
-25
-23
-18
-19
-27
-24
-27
-26
-27
-25
-15
-15
-23
-22
-15
-19
-23
-20
-21
-29
-18
-19
-9
-14
-13
-20
-22
-9
-15
-10
-17
-14
-11
-14
-15
-19
-20
-10
-15
-17
-18
-11
-5
-2
-7
-9
-11
-5
-10
-6
-4
-2
2
-1
-1
1
2
4
0
10
8
8
10
6
12
11
6
0
19
18
16
20
21
22
16
17
19
18
24
21
22
29
17
13
34
21
22
30
23
22
14
20
25
20
18
16
19
18
10
20
5
5
10
14
10
5
1
5
11
5
6
-3
2
6
1
-4
6
-3
-2
-3
-4
-3
-2
-5
-9
-5
-10
-5
-10
-7
-4
-1
3
-8
-7
-2
-2
-3
-5
-5
-7
8
0
-9
-3
0
-4
-5
-5
-8
1
-4
-2
-3
-1
-1
3
10
-2
3
0
-4
9
2
0
7
-1
0
2
-7
10
4
0
14
6
1
0
-2
-7
10
3
1
-5
1
1
-6
-7
-1
1
2
0
5
2
1
4
-8
-8
-4
-2
-4
-3
-3
-9
-10
-11
7
-6
2
-7
3
-6
-6
-8
-4
-1
-3
-9
-19
-5
-4
-8
-4
-11
-9
-10
-3
-7
-9
-7
-3
-3
-2
1
7
-1
3
0
4
4
5
9
12
6
14
17
16
17
21
11
7
6
13
6
6
3
13
9
4
3
-1
4
3
3
2
2
8
13
0
8
4
11
8
2
8
16
15
12
5
19
8
14
17
11
6
11
19
7
13
12
7
6
4
10
29
33
46
68
78
106
115
129
153
167
159
146
119
101
63
30
28
24
14
9
12
17
19
15
12
21
24
17
23
26
19
21
17
19
21
24
20
20
25
31
28
21
28
34
26
24
20
36
34
31
27
27
32
37
35
41
38
32
42
35
37
38
39
32
41
50
50
44
49
49
46
54
48
45
47
49
50
53
48
46
58
62
61
58
57
59
62
64
63
65
68
58
65
76
69
69
70
82
76
80
80
71
84
84
76
81
84
82
80
81
88
83
88
93
87
80
82
83
82
78
86
76
69
79
80
77
78
73
79
82
81
73
71
67
60
77
67
64
60
66
59
55
56
46
56
54
61
56
58
56
56
47
53
53
46
55
55
56
56
52
57
51
49
51
50
57
48
54
45
58
48
45
57
60
59
52
52
51
48
57
41
57
54
55
55
57
57
48
52
58
56
53
55
48
49
41
53
59
58
55
60
53
47
46
64
59
53
51
60
47
65
65
55
54
49
53
53
55
51
54
56
56
53
53
50
59
57
56
58
50
64
58
51
54
51
56
56
63
63
51
48
49
71
70
62
59
61
64
72
62
59
67
69
74
67
68
70
72
80
78
78
78
79
77
86
72
64
74
79
79
71
69
68
57
68
65
67
62
62
65
68
55
64
73
67
67
63
67
64
56
60
54
64
62
61
59
60
60
64
75
51
64
70
57
58
51
54
53
60
53
69
82
91
114
138
149
165
179
192
198
200
178
158
131
91
66
60
63
65
59
57
57
64
65
65
59
58
61
60
69
57
63
55
59
69
68
61
57
63
75
64
71
66
67
62
68
67
60
65
68
64
69
66
64
63
70
71
77
64
63
67
70
65
65
74
73
66
66
71
68
73
80
82
69
66
76
73
79
79
75
76
78
76
74
80
85
76
82
80
91
83
83
81
82
88
85
86
84
81
85
89
94
95
90
91
94
97
94
88
85
88
96
93
91
92
92
87
87
86
87
92
89
82
80
80
76
76
75
76
73
75
71
70
69
71
59
63
65
60
60
61
59
52
58
49
48
63
46
57
52
44
48
51
54
48
48
48
50
42
43
55
42
43
45
50
43
44
50
48
43
39
45
43
39
39
45
46
46
45
39
37
31
47
47
38
45
38
32
43
35
38
36
38
38
35
29
35
39
40
34
33
33
34
31
31
35
29
27
22
27
29
28
26
24
27
15
23
24
18
15
29
23
22
17
16
28
25
22
22
20
17
19
20
17
17
23
19
12
19
18
20
22
18
21
21
21
22
18
12
22
21
18
15
19
21
25
22
15
23
24
16
25
28
27
28
31
32
29
26
26
24
21
21
19
15
17
15
16
15
15
10
7
18
15
12
15
12
10
7
12
13
10
10
13
7
22
11
11
9
9
7
10
14
11
10
16
13
15
21
5
-7
4
7
18
36
45
51
73
99
114
125
141
154
161
146
131
112
85
55
28
20
19
14
13
17
17
8
9
9
11
15
20
9
4
10
8
14
0
6
18
14
11
18
9
8
11
13
8
8
9
15
19
10
8
16
16
13
15
16
12
15
12
12
15
13
13
12
14
15
16
15
9
16
8
17
21
15
21
22
14
12
17
20
16
15
17
17
17
12
15
15
21
21
14
12
15
18
31
28
22
18
25
29
28
27
28
32
28
27
27
28
25
29
25
31
26
25
21
22
23
21
22
18
23
16
14
27
19
12
19
15
18
14
15
13
12
6
5
9
13
10
2
-3
9
4
4
3
6
5
-2
7
-1
-3
-6
-10
1
-4
-11
3
6
-2
4
0
-4
-4
-5
-10
-1
-2
-3
4
-4
1
-1
-1
-1
3
-5
-5
-1
-7
-6
-5
-3
-6
-10
-8
-15
-2
1
-1
-2
-4
-10
-2
-2
-6
-2
-14
-14
-1
-4
-7
-12
-10
-2
-6
-11
-16
-13
-10
-13
-9
-12
-12
-14
-9
-9
-13
-12
-17
-23
-9
-8
-18
-25
-10
-10
-15
-19
-16
-12
-15
-21
-15
-20
-16
-14
-12
-18
-15
-21
-18
-15
-25
-19
-20
-24
-26
-27
-24
-20
-19
-28
-20
-18
-17
-19
-23
-24
-16
-32
-18
-23
-28
-25
-23
-12
-19
-21
-18
-17
-20
-18
-21
-13
-12
-17
-13
-17
-7
-9
-10
-13
-11
-16
-25
-19
-12
-28
-23
-26
-31
-31
-36
-32
-29
-29
-34
-21
-22
-35
-31
-33
-27
-29
-35
-38
-30
-34
-37
-39
-22
-27
-39
-30
-30
-27
-34
-40
-34
-29
-30
-37
-43
-42
-34
-28
-20
-7
15
32
57
78
86
99
125
133
134
109
80
55
19
-5
-18
-24
-29
-29
-33
-34
-30
-33
-34
-28
-30
-30
-42
-36
-29
-32
-41
-33
-36
-26
-36
-32
-37
-28
-31
-34
-32
-34
-30
-30
-34
-36
-30
-29
-29
-31
-27
-34
-32
-31
-25
-31
-29
-26
-33
-27
-30
-27
-30
-26
-22
-27
-30
-22
-28
-28
-26
-29
-21
-19
-27
-26
-19
-20
-17
-21
-23
-25
-20
-23
-10
-18
-15
-10
-21
-13
-13
-8
-4
-7
-16
-12
-3
-15
-7
-2
-9
-7
-8
-1
-4
-2
-9
-12
-8
1
-8
3
-6
-8
-11
-10
-11
-6
-11
-18
-13
-14
-6
-4
-16
-24
-22
-14
-14
-15
-18
-19
-21
-19
-19
-19
-18
-19
-24
-31
-31
-31
-31
-29
-31
-35
-33
-31
-33
-30
-33
-35
-37
-37
-37
-34
-38
-39
-38
-32
-34
-34
-40
-39
-32
-34
-36
-34
-34
-29
-30
-35
-38
-34
-33
-27
-38
-33
-36
-41
-35
-29
-41
-29
-20
-32
-34
-35
-26
-27
-28
-36
-31
-32
-35
-40
-35
-39
-32
-29
-40
-32
-32
-27
-27
-36
-38
-39
-38
-35
-32
-38
-37
-37
-36
-37
-34
-38
-42
-39
-38
-37
-39
-40
-43
-41
-31
-37
-32
-37
-44
-43
-42
-47
-36
-40
-37
-41
-39
-41
-50
-42
-44
-38
-41
-41
-38
-39
-44
-52
-34
-35
-38
-36
-47
-45
-44
-45
-39
-44
-41
-44
-42
-40
-39
-42
-43
-43
-37
-36
-51
-44
-42
-44
-39
-37
-40
-42
-38
-28
-33
-31
-30
-32
-21
-29
-35
-24
-27
-39
-25
-33
-40
-50
-35
-36
-37
-36
-47
-50
-46
-46
-46
-48
-41
-49
-47
-39
-45
-53
-49
-36
-44
-49
-47
-49
-48
-51
-49
-49
-46
-44
-52
-49
-52
-46
-42
-48
-52
-52
-57
-54
-49
-48
-33
-21
-8
13
38
55
72
97
116
119
123
100
78
51
9
-19
-32
-34
-39
-45
-43
-41
-48
-46
-50
-48
-50
-45
-37
-54
-42
-44
-47
-44
-46
-45
-40
-43
-47
-41
-42
-46
-50
-47
-44
-37
-41
-43
-51
-46
-44
-45
-44
-37
-38
-39
-43
-43
-44
-44
-43
-40
-45
-40
-39
-34
-37
-35
-34
-36
-36
-39
-34
-34
-37
-41
-35
-33
-30
-32
-33
-32
-30
-22
-40
-29
-28
-27
-30
-30
-36
-22
-19
-19
-10
-20
-24
-25
-25
-15
-15
-23
-24
-9
-19
-13
-19
-12
-15
-10
-17
-21
-16
-10
-15
-14
-21
-21
-22
-21
-10
-11
-17
-18
-13
-9
-19
-22
-29
-32
-28
-26
-31
-22
-33
-27
-21
-32
-35
-25
-32
-36
-36
-34
-35
-32
-25
-46
-41
-29
-39
-36
-40
-37
-41
-37
-39
-36
-42
-36
-35
-39
-37
-39
-45
-48
-44
-41
-38
-28
-40
-43
-32
-30
-39
-40
-39
-38
-36
-42
-49
-44
-33
-32
-40
-38
-38
-43
-41
-32
-30
-36
-35
-42
-43
-43
-37
-38
-40
-36
-32
-40
-48
-36
-30
-38
-35
-38
-42
-47
-32
-40
-36
-40
-41
-43
-31
-31
-39
-39
-42
-42
-34
-42
-36
-41
-44
-48
-42
-44
-44
-49
-36
-44
-49
-37
-38
-43
-45
-44
-44
-34
-41
-37
-41
-36
-47
-47
-40
-49
-40
-33
-44
-37
-41
-46
-40
-46
-51
-42
-42
-40
-34
-42
-38
-50
-43
-37
-41
-38
-47
-35
-49
-42
-37
-37
-34
-40
-35
-35
-37
-37
-39
-34
-22
-28
-30
-26
-20
-28
-32
-41
-43
-22
-39
-39
-41
-41
-43
-45
-40
-43
-50
-44
-48
-50
-43
-46
-39
-42
-51
-47
-46
-52
-46
-44
-47
-50
-44
-50
-52
-51
-46
-43
-56
-56
-48
-45
-42
-48
-58
-59
-49
-47
-40
-21
-4
7
22
39
73
78
87
113
131
112
89
65
32
-7
-20
-36
-47
-42
-40
-48
-33
-40
-47
-41
-44
-53
-42
-32
-48
-49
-42
-44
-48
-51
-50
-41
-50
-47
-42
-40
-50
-43
-49
-42
-44
-45
-44
-39
-41
-46
-32
-43
-44
-46
-36
-37
-39
-39
-36
-50
-33
-37
-35
-35
-33
-34
-44
-34
-21
-35
-40
-25
-30
-25
-35
-16
-14
-22
-17
-17
-20
-15
-15
-17
-13
-9
-14
-10
-13
-11
-6
-4
1
-10
-9
-6
0
3
0
-1
5
22
15
5
2
8
5
2
8
-1
10
1
6
6
8
1
7
15
-2
6
1
0
-4
-1
-2
-3
-6
1
-1
-12
0
-4
-5
-4
-9
-7
-14
-11
-11
-12
-4
-13
-22
-23
-10
-16
-18
-13
-6
-22
-17
-12
-15
-15
-13
-11
-13
-19
-21
-15
-13
-16
-19
-7
-16
-4
-10
-12
-8
-2
-7
-10
-12
-11
-10
-11
-12
-9
-8
-5
0
0
-2
-2
-5
1
5
-5
-3
3
6
4
2
15
-1
18
8
4
11
19
14
15
11
10
18
15
9
15
14
20
19
23
19
19
24
25
20
16
19
26
24
21
17
26
27
20
17
26
27
18
25
25
23
26
25
20
28
30
27
24
29
37
25
28
26
24
27
27
26
29
30
30
31
30
25
31
37
38
25
21
42
36
36
46
43
38
37
44
45
44
42
43
58
48
51
54
62
58
57
46
56
45
55
43
47
56
57
56
52
48
51
49
49
51
59
62
62
59
62
60
55
54
62
58
62
58
64
64
66
65
64
66
63
73
61
65
74
70
67
67
73
62
63
65
77
92
110
128
137
149
169
189
204
217
214
206
179
148
109
86
72
77
78
72
74
76
77
76
77
74
71
77
74
76
77
72
62
58
83
80
74
73
72
67
77
76
72
70
68
68
75
85
75
75
77
76
75
71
77
80
76
72
69
83
78
74
73
79
76
74
76
68
74
81
84
83
76
78
81
78
74
76
76
77
77
72
79
76
75
71
80
82
78
71
80
76
85
81
86
90
92
95
89
84
91
93
89
85
83
86
87
90
96
87
88
88
82
88
80
76
81
78
69
71
78
69
60
66
81
61
51
53
54
57
48
48
49
42
40
39
40
46
41
35
35
36
29
28
28
34
29
24
33
17
21
22
27
20
13
16
19
17
19
15
17
22
8
14
10
10
7
13
11
6
4
21
16
10
19
10
12
7
12
13
12
12
7
1
8
12
1
-7
7
5
4
7
3
0
4
0
-4
5
8
11
5
-6
-5
-5
-3
-6
2
-1
-5
-10
2
1
-11
-10
-1
-2
-9
-6
-8
-10
-16
-9
-5
-8
-13
-12
-12
-7
-8
-14
-17
-19
-9
-13
-14
-15
-14
-10
-24
-25
-10
-12
-18
-12
-11
-24
-21
-10
-20
-12
-19
-16
-15
-14
-24
-28
-19
-13
-12
-20
-21
-13
-16
-9
-9
-10
-10
-10
-9
-9
-9
-5
-8
-9
-8
-15
-10
-14
-19
-17
-17
-16
-18
-22
-23
-21
-20
-27
-31
-25
-28
-25
-26
-32
-24
-17
-21
-27
-27
-29
-28
-28
-29
-33
-37
-28
-32
-17
-27
-32
-22
-44
-27
-30
-28
-34
-29
-24
-20
-11
1
26
33
52
71
88
97
106
117
105
81
65
40
-1
-18
-20
-24
-31
-25
-29
-34
-38
-30
-29
-30
-32
-30
-36
-30
-31
-37
-36
-41
-24
-32
-37
-27
-29
-34
-33
-29
-31
-34
-28
-33
-31
-29
-33
-30
-32
-27
-31
-33
-27
-23
-27
-28
-34
-32
-18
-33
-16
-25
-29
-25
-27
-24
-25
-25
-30
-29
-26
-13
-14
-19
-20
-22
-21
-22
-23
-18
-22
-21
-11
-18
-14
-13
-15
-10
-13
-14
-17
-15
-10
-12
-9
-11
-11
-11
-8
-3
-8
-8
-12
-4
-6
-12
-13
-10
1
-4
-10
-7
0
-11
-9
-5
-15
-9
-12
-4
-17
-20
-13
-12
-16
-14
-21
-16
-15
-24
-18
-23
-9
-20
-33
-23
-20
-24
-32
-25
-28
-30
-31
-26
-27
-34
-35
-31
-33
-42
-32
-32
-27
-28
-35
-35
-27
-35
-37
-33
-35
-36
-41
-34
-37
-31
-39
-30
-29
-35
-29
-27
-31
-32
-34
-30
-28
-30
-30
-30
-36
-38
-31
-28
-28
-34
-29
-26
-22
-21
-38
-32
-33
-29
-27
-34
-35
-27
-30
-36
-44
-28
-25
-33
-28
-33
-35
-30
-34
-37
-36
-24
-42
-42
-36
-29
-37
-28
-33
-31
-28
-36
-33
-35
-36
-37
-41
-40
-34
-39
-41
-30
-38
-39
-38
-35
-34
-36
-37
-36
-43
-37
-36
-33
-30
-41
-45
-37
-32
-37
-37
-37
-34
-36
-43
-36
-31
-29
-28
-40
-35
-31
-30
-25
-27
-25
-25
-24
-36
-31
-26
-39
-43
-36
-38
-42
-37
-35
-36
-37
-30
-41
-43
-40
-43
-39
-41
-44
-42
-51
-46
-42
-50
-50
-42
-42
-43
-49
-47
-44
-44
-41
-46
-48
-47
-41
-47
-48
-52
-53
-40
-41
-41
-26
-3
5
24
49
57
71
95
107
111
93
88
63
29
-5
-28
-37
-30
-35
-34
-39
-40
-44
-45
-44
-39
-42
-47
-41
-41
-43
-41
-41
-42
-39
-43
-42
-41
-42
-43
-43
-31
-37
-40
-39
-41
-41
-45
-36
-25
-41
-44
-32
-31
-37
-27
-38
-42
-32
-35
-41
-38
-31
-33
-34
-25
-35
-32
-26
-36
-33
-29
-26
-31
-34
-32
-28
-29
-28
-28
-27
-29
-33
-27
-20
-23
-26
-26
-27
-19
-18
-22
-20
-20
-27
-14
-18
-14
-17
-10
-15
-18
-13
-14
-14
-14
-16
-17
-12
-16
-15
-15
-6
-15
-17
-19
-27
-22
-18
-10
-16
-17
-17
-19
-29
-25
-26
-32
-31
-25
-32
-34
-29
-25
-26
-39
-36
-37
-38
-37
-36
-40
-40
-42
-43
-40
-41
-46
-46
-46
-41
-46
-45
-49
-50
-43
-45
-51
-48
-47
-47
-52
-40
-47
-49
-49
-44
-49
-49
-45
-47
-47
-49
-49
-52
-48
-47
-48
-51
-48
-42
-47
-38
-43
-50
-40
-41
-44
-34
-43
-47
-41
-33
-41
-43
-50
-47
-41
-40
-41
-39
-44
-44
-43
-42
-44
-46
-48
-41
-40
-41
-46
-54
-50
-40
-46
-44
-52
-44
-50
-50
-51
-37
-49
-47
-50
-43
-46
-47
-49
-52
-46
-46
-49
-49
-45
-49
-52
-54
-52
-43
-50
-54
-46
-46
-48
-47
-55
-46
-40
-48
-49
-42
-41
-46
-44
-48
-48
-43
-43
-52
-46
-41
-46
-39
-38
-38
-47
-37
-36
-32
-32
-27
-30
-35
-35
-37
-40
-36
-46
-43
-39
-53
-47
-46
-50
-53
-52
-47
-52
