43
48
71
83
90
96
89
88
68
66
72
90
90
97
105
100
95
87
68
78
90
84
94
104
105
93
93
93
77
71
78
90
97
106
113
107
108
97
78
82
80
86
101
102
108
100
99
102
74
72
67
93
98
118
117
113
107
106
81
76
79
98
106
122
116
114
100
101
93
102
93
106
102
115
115
120
103
101
91
100
110
113
116
123
131
129
116
110
119
110
107
113
132
138
139
141
128
132
122
124
119
132
140
146
140
138
133
123
117
122
115
137
142
142
136
135
133
100
112
118
111
124
127
130
119
111
103
98
85
85
94
104
111
109
102
101
94
76
75
63
78
96
100
97
97
88
76
83
89
73
73
80
115
98
88
89
82
62
69
80
88
86
100
102
98
92
87
70
71
68
75
75
104
92
95
92
80
71
75
73
78
76
88
87
104
90
84
71
70
75
81
92
98
105
100
91
91
71
74
70
79
80
87
124
102
89
85
62
79
73
76
86
112
109
101
88
80
75
76
78
81
90
106
103
92
92
84
71
81
73
80
88
107
104
97
96
84
64
70
82
88
95
87
103
92
95
72
73
76
78
88
105
97
106
89
86
76
73
82
74
86
91
94
99
99
82
72
79
66
79
85
102
97
100
87
97
77
66
65
63
92
95
101
96
88
88
81
84
73
88
97
94
89
93
81
85
85
75
75
74
83
101
94
92
89
86
78
77
78
84
95
93
103
99
96
85
77
71
77
77
86
106
95
92
91
104
79
73
79
80
89
100
104
99
82
89
69
72
75
90
86
96
93
105
92
87
84
77
84
84
91
93
99
96
94
83
71
75
77
83
93
102
99
106
90
82
74
76
72
80
97
105
99
100
86
90
83
80
83
93
94
99
104
94
85
81
63
73
83
93
104
108
109
97
99
87
75
75
89
91
105
121
105
106
100
79
84
83
88
89
99
109
109
115
105
88
85
84
96
86
97
104
106
93
87
72
70
77
84
87
93
92
93
92
81
82
83
77
83
88
103
99
98
86
94
73
81
75
78
85
91
105
105
87
75
72
73
73
78
72
91
98
96
96
106
103
114
122
151
169
207
205
205
162
142
130
129
114
101
87
59
32
46
46
34
21
33
49
54
61
76
90
83
77
74
73
83
74
91
97
95
105
99
90
96
82
87
92
95
88
96
106
112
82
85
78
91
96
92
98
116
114
100
89
83
83
86
89
88
99
110
113
108
92
94
91
99
99
98
101
111
108
113
109
89
87
92
88
105
108
109
116
106
112
94
89
97
96
99
129
132
117
110
117
101
94
93
107
124
131
134
133
129
125
126
105
107
122
132
141
148
139
140
123
124
128
121
131
133
147
152
153
146
140
125
123
127
135
137
143
140
149
138
137
136
120
106
124
116
129
131
131
115
119
102
80
111
111
103
129
104
95
101
95
82
89
90
83
91
107
112
105
94
89
79
79
87
85
90
103
100
97
92
92
88
84
76
85
87
103
110
100
91
87
65
73
81
87
93
101
96
105
94
86
80
80
80
84
87
100
100
107
99
95
72
77
90
91
100
94
108
116
104
94
76
81
89
98
102
114
105
103
96
89
86
88
81
99
110
108
110
100
102
89
71
66
82
95
98
108
110
109
101
81
84
92
94
98
120
107
104
99
90
75
77
76
92
101
118
105
105
110
102
82
69
79
96
86
100
109
102
102
94
86
81
86
84
104
105
103
110
99
96
87
77
88
83
101
102
104
101
89
85
92
79
83
95
93
111
111
106
105
93
87
82
77
90
101
113
113
101
97
90
93
78
80
96
96
114
107
94
99
101
72
75
90
95
105
114
116
103
98
89
87
84
85
102
103
98
104
113
95
98
87
87
77
85
98
111
124
104
101
99
87
78
86
100
112
107
116
108
101
96
91
73
86
101
101
110
111
100
90
94
91
93
88
98
110
108
109
113
96
87
85
93
95
105
107
110
111
100
99
81
97
101
100
101
106
119
114
114
107
86
93
85
93
101
118
121
114
119
112
97
92
102
109
105
119
117
110
113
107
97
101
90
104
106
120
110
109
107
97
76
87
88
85
99
110
116
118
98
93
94
90
93
82
96
105
114
110
105
97
76
81
88
100
105
105
109
109
93
97
81
89
84
89
99
114
126
141
144
151
163
189
184
205
204
214
180
163
148
127
91
73
38
44
50
60
62
63
71
64
64
63
75
81
99
110
108
107
111
92
79
86
83
114
111
121
112
126
98
95
88
87
89
106
112
115
118
107
112
95
92
106
102
109
122
116
127
123
113
113
105
92
95
102
119
133
127
122
117
99
91
90
94
125
132
139
117
125
119
99
100
107
106
111
135
133
136
132
124
108
101
124
126
119
136
138
137
126
124
116
114
121
128
141
139
147
142
137
136
117
126
129
143
152
162
160
153
151
147
135
138
138
159
165
159
163
166
156
152
142
141
129
142
152
172
162
158
150
133
116
116
130
134
135
138
139
136
127
115
99
100
105
110
116
133
120
116
107
111
107
102
98
107
102
112
119
124
109
99
87
91
95
107
113
114
120
115
108
95
86
99
80
102
116
108
128
112
105
90
90
93
105
99
110
120
120
107
105
94
93
100
104
102
118
118
112
108
103
92
85
89
102
111
129
128
124
105
107
98
100
96
103
114
117
114
120
116
111
95
97
99
106
112
117
132
114
130
113
98
90
88
96
108
122
124
127
114
101
97
88
106
108
118
130
119
128
108
106
83
90
86
101
119
126
121
126
111
105
94
92
108
105
118
121
115
113
105
101
101
88
86
100
109
115
130
125
112
103
94
97
96
106
114
118
113
108
101
114
96
96
94
106
122
117
127
112
110
102
91
93
94
102
113
116
116
121
113
95
99
88
100
120
118
122
115
121
103
97
91
91
98
103
113
126
124
114
117
101
92
88
102
110
111
118
125
110
105
92
97
99
98
117
122
119
123
117
113
89
80
93
105
102
128
134
120
112
105
100
92
91
114
113
121
110
114
106
97
88
91
93
110
105
117
126
117
111
106
119
93
94
103
105
117
127
122
112
104
94
93
112
96
107
122
120
118
110
104
90
87
100
100
117
123
122
123
113
102
104
91
102
117
113
121
118
132
122
116
115
108
106
111
118
128
129
122
116
105
105
105
113
113
121
135
124
124
121
108
91
112
105
112
117
133
130
126
114
101
93
93
101
101
112
120
122
116
105
107
92
90
107
103
112
116
123
113
107
104
98
96
101
109
114
128
122
108
99
88
89
95
94
104
117
135
147
146
144
147
173
191
199
208
228
198
182
166
155
131
115
91
55
53
70
76
80
74
64
58
61
79
81
93
118
104
124
118
102
91
102
95
104
110
131
128
125
116
114
99
94
90
106
106
132
135
129
118
114
96
108
104
108
118
140
136
122
123
106
95
110
105
115
118
139
129
126
125
123
105
107
101
113
114
136
133
126
130
124
108
104
117
126
132
141
141
135
121
121
111
120
111
119
135
144
151
142
133
116
121
124
127
147
155
145
157
149
138
130
130
129
137
151
156
166
175
166
149
139
144
139
153
160
166
179
170
161
156
152
145
141
148
152
166
161
163
154
140
142
141
144
130
139
149
141
135
127
136
118
109
114
113
122
137
132
128
126
109
101
94
95
112
123
143
135
124
113
111
95
93
104
100
108
126
125
119
120
110
96
105
108
96
101
119
119
121
119
114
88
103
98
90
100
115
115
117
107
105
85
95
96
105
104
118
121
118
120
109
96
99
105
111
113
116
126
123
124
110
92
96
94
103
116
127
117
124
116
112
83
103
105
108
116
131
133
127
121
107
105
89
113
113
119
122
122
117
112
103
96
113
95
111
124
126
122
124
115
105
107
94
92
105
122
138
121
121
111
96
102
96
92
110
124
125
125
124
109
105
103
98
105
114
124
118
121
113
108
102
99
94
100
117
120
118
121
116
115
99
96
92
114
128
128
123
119
115
118
95
92
106
111
103
122
123
125
123
106
105
93
92
105
113
130
115
114
118
123
92
97
96
113
114
125
126
119
105
103
102
93
102
102
111
131
130
116
118
109
100
93
107
105
105
123
118
118
122
101
88
93
98
110
114
130
122
120
115
113
101
96
99
113
118
123
137
121
121
111
93
103
113
132
129
126
124
122
125
114
114
102
107
115
120
132
133
127
125
115
98
100
101
125
119
116
124
117
107
108
109
99
101
109
115
127
119
113
105
105
90
92
97
105
128
123
116
104
111
104
93
86
107
107
118
116
134
117
93
100
93
92
97
111
114
119
136
139
147
155
176
180
202
207
224
190
185
162
153
125
113
86
69
47
68
80
72
64
62
53
57
76
78
90
104
114
120
114
109
88
91
94
96
102
117
143
134
113
105
92
102
102
110
114
130
131
122
117
112
118
107
103
117
122
126
123
116
117
116
111
116
108
111
124
137
132
128
111
114
112
106
116
115
123
130
127
140
123
115
112
103
119
124
133
137
136
149
136
119
120
116
116
128
135
148
154
145
131
121
124
125
126
140
155
156
147
150
154
142
138
142
136
155
164
173
166
166
160
151
146
146
160
162
173
174
177
168
162
158
152
157
152
158
181
174
160
157
149
151
138
140
144
143
143
156
145
127
131
119
117
109
110
114
140
144
133
119
113
93
113
108
105
118
132
128
117
123
115
90
100
98
106
121
127
122
123
117
105
92
96
101
103
106
120
124
111
116
124
96
88
96
119
110
119
118
121
116
120
87
96
99
103
114
125
125
125
112
100
92
103
104
109
120
129
131
113
119
108
101
95
112
120
124
136
125
122
115
106
101
104
111
127
116
118
129
122
111
100
104
107
110
106
122
132
138
122
120
100
90
91
106
117
129
129
112
114
120
115
100
97
105
127
128
119
120
114
106
102
107
91
101
120
125
122
114
108
108
95
97
104
111
119
131
121
125
116
110
100
105
100
105
109
127
118
124
122
112
93
92
90
115
106
127
127
119
116
113
86
105
103
107
113
117
120
119
100
104
91
100
108
112
110
127
126
127
116
115
92
84
94
107
115
127
131
118
122
109
97
97
88
93
108
122
124
117
111
109
95
92
104
110
107
126
126
126
121
106
93
101
110
109
107
120
119
141
118
105
102
87
86
104
127
131
136
128
120
115
99
111
117
115
128
136
129
122
118
111
109
104
112
116
126
128
132
119
110
96
95
92
95
114
120
127
129
110
100
93
96
89
95
111
128
116
107
105
96
102
102
91
107
109
121
114
126
116
105
95
95
96
94
107
126
116
98
103
98
92
94
112
130
148
175
187
201
206
221
196
181
163
151
149
150
134
115
62
50
34
45
53
66
70
92
86
88
88
86
85
81
82
94
116
129
118
109
98
103
98
95
91
100
110
128
120
112
103
110
101
105
98
102
117
124
120
130
119
94
97
99
99
119
124
121
123
119
108
98
95
90
97
107
117
123
119
129
108
101
105
102
104
100
114
129
134
115
104
108
115
105
108
110
129
131
129
127
124
109
104
98
109
128
132
131
140
132
123
109
109
111
124
141
147
145
149
133
129
130
130
127
134
133
156
149
157
146
144
134
129
135
138
139
155
155
145
137
129
128
118
123
131
131
135
131
133
135
119
106
109
100
94
107
128
118
126
104
90
78
70
80
97
100
113
103
101
102
80
76
81
64
83
98
92
94
89
87
79
75
68
68
89
82
97
103
89
75
77
68
68
71
75
80
97
89
89
79
75
65
64
72
73
87
94
85
90
79
70
67
66
61
67
72
97
93
83
65
71
63
73
77
76
88
85
85
84
73
79
72
62
58
62
74
96
94
86
72
63
64
63
60
71
90
90
91
75
74
58
50
57
65
64
84
62
78
70
77
73
66
59
56
55
80
90
75
60
68
57
49
49
53
62
73
65
72
68
68
54
47
48
61
65
86
70
68
55
43
49
48
51
50
64
66
72
70
58
53
38
50
43
43
71
69
63
57
53
52
42
33
50
39
51
68
67
63
55
51
37
34
49
56
62
58
69
56
53
49
34
22
30
49
61
63
61
61
40
48
40
37
40
48
46
54
55
53
59
48
32
29
41
45
48
53
49
44
38
34
33
36
38
40
46
49
60
57
48
33
44
29
24
38
48
47
47
54
50
43
34
29
38
38
51
55
53
52
37
24
27
43
40
43
62
49
47
55
41
28
44
31
33
46
66
57
53
46
52
30
29
29
34
38
54
53
53
44
41
31
15
13
28
35
37
44
47
30
17
16
27
32
25
33
39
33
39
28
33
17
19
4
19
28
32
42
36
29
25
15
18
14
22
20
39
39
34
32
34
34
54
60
86
111
119
138
147
121
105
66
63
54
59
33
13
-23
-28
-38
-19
-22
-21
-27
-4
2
14
15
13
17
11
0
12
18
14
20
26
51
38
27
35
23
4
12
32
44
40
37
36
34
18
12
5
11
32
44
37
31
38
21
12
9
4
16
20
45
41
42
37
32
14
18
19
19
30
41
45
39
30
28
17
17
18
31
37
32
39
41
41
33
28
17
18
28
29
40
49
43
42
34
24
31
27
39
38
44
61
51
43
48
37
32
34
44
50
62
65
68
60
52
47
50
48
42
60
72
74
70
59
57
43
55
42
55
59
79
67
63
52
53
38
38
39
49
49
57
53
49
38
35
16
9
10
16
32
36
28
33
21
18
-2
-5
7
19
12
15
30
29
19
10
-5
-6
-8
12
15
22
22
19
3
10
-3
-13
-7
2
6
17
11
18
10
3
1
-5
-8
-3
11
15
21
15
6
-2
-5
-2
-2
-2
5
15
30
13
-2
-2
-4
-5
-6
7
18
20
22
16
8
-6
-9
-8
1
12
19
9
14
14
8
7
-5
3
-3
8
23
26
18
8
5
1
-11
-14
-6
15
20
19
17
13
5
-4
-8
-1
-1
-1
14
19
26
12
10
0
-12
-4
11
17
15
17
17
13
5
2
0
-2
-6
2
21
22
19
14
-10
-12
-4
-10
-5
8
16
26
18
15
6
-5
-16
-13
-7
3
18
18
18
7
14
-10
-4
1
7
3
13
10
8
19
7
-9
-15
-2
9
7
17
20
14
7
-6
-11
-13
-4
6
11
25
25
20
10
-7
-14
-4
-2
-1
8
26
31
17
14
5
-2
-6
-20
8
22
28
30
33
8
11
7
-4
5
18
19
22
29
19
9
-14
-14
-13
1
11
20
14
10
8
-6
-14
-17
-5
-13
-6
9
13
7
4
0
-6
-10
-5
-6
8
17
20
14
-3
-2
-14
-11
-12
-10
2
12
13
6
6
2
-22
-19
-16
-10
-8
8
19
36
33
42
45
57
69
91
104
107
86
61
53
37
16
-4
-27
-53
-50
-33
-36
-29
-31
-42
-53
-52
-50
-29
-23
-1
-3
-2
-5
1
-17
-9
-13
-2
0
17
23
16
7
-10
-7
2
4
2
6
28
27
22
15
6
-5
-8
-1
4
4
15
19
26
12
3
2
0
0
1
7
19
28
19
7
7
4
4
4
8
14
20
30
32
9
9
10
1
-1
15
26
37
39
32
16
8
9
10
12
20
35
38
33
37
31
14
17
15
28
30
37
45
52
47
43
30
22
31
39
46
58
58
63
57
52
38
43
49
55
57
67
67
69
65
53
46
36
34
39
41
62
63
52
52
48
28
23
22
29
33
45
38
41
34
28
5
8
-6
8
15
26
23
18
13
0
-3
-3
3
4
4
20
25
27
4
2
-16
-10
-6
-7
0
11
10
10
7
5
-7
1
2
-7
6
17
10
10
7
1
-16
-15
-15
8
12
15
17
13
6
-4
-18
-16
-6
20
11
13
16
14
-2
-3
-8
-10
-6
1
14
19
19
20
9
2
-4
-9
1
15
24
19
13
17
10
-4
-7
-2
3
8
29
26
19
19
0
2
0
-12
-7
20
23
20
12
19
14
4
-4
-5
4
9
19
10
21
12
4
-3
-4
-2
3
6
23
16
14
16
-1
-4
-4
-16
0
7
26
20
10
10
9
1
-5
-5
-1
3
23
31
15
12
6
-1
1
-1
4
6
11
15
25
15
6
-6
2
-4
6
16
22
20
21
9
1
-12
2
-1
1
9
19
25
26
22
15
4
13
11
19
16
31
31
23
19
26
15
0
-1
15
15
28
23
42
17
7
-4
0
6
7
8
17
14
24
10
-6
-13
-8
1
5
15
21
17
19
8
2
3
-2
6
-3
7
23
21
18
6
0
-1
-9
-5
15
24
26
18
16
5
-6
-13
-14
-8
5
15
27
33
44
72
58
63
93
107
108
106
92
74
53
42
17
1
-21
-47
-49
-25
-21
-34
-34
-29
-35
-30
-34
-22
-6
12
15
17
12
9
-3
-2
9
4
6
20
37
24
20
5
-1
8
7
0
15
36
23
20
17
9
1
11
5
18
19
32
31
30
21
16
7
5
10
17
13
26
33
37
26
25
2
4
3
14
24
34
35
41
28
18
3
9
13
23
28
40
32
29
30
22
11
9
16
29
32
45
42
35
27
19
14
16
16
31
51
62
59
52
38
30
32
39
46
47
57
59
57
50
56
55
50
40
41
48
60
62
57
51
37
43
34
34
46
44
58
57
57
43
28
16
22
16
18
22
32
27
38
21
17
-3
-4
-9
-12
-9
12
15
14
3
-12
-11
-21
-18
-10
-5
2
3
-5
-10
-8
-19
-23
-26
-16
-13
-5
-5
-3
-4
-13
-32
-39
-40
-30
-21
4
-4
-6
-13
-17
-34
-35
-36
-35
-30
-9
-8
-14
-18
-28
-36
-39
-36
-28
-24
-8
-10
-5
-28
-32
-46
-42
-42
-34
-38
-17
-10
-3
-33
-31
-45
-48
-47
-32
-27
-12
-21
-21
-27
-45
-46
-48
-49
-42
-34
-28
-32
-35
-42
-58
-56
-42
-44
-35
-36
-30
-36
-37
-52
-58
-57
-63
-51
-49
-51
-40
-31
-48
-59
-61
-72
-71
-61
-56
-62
-52
-38
-43
-55
-66
-78
-70
-68
-73
-53
-45
-51
-61
-64
-81
-87
-85
-73
-62
-52
-57
-60
-70
-75
-87
-84
-86
-83
-75
-68
-71
-68
-64
-81
-86
-93
-90
-87
-83
-63
-64
-66
-88
-91
-103
-105
-103
-94
-90
-81
-66
-71
-86
-97
-98
-109
-107
-101
-96
-85
-81
-85
-85
-100
-108
-119
-105
-100
-101
-93
-87
-97
-102
-107
-121
-110
-113
-105
-99
-89
-93
-86
-99
-104
-113
-122
-124
-114
-114
-93
-92
-95
-111
-121
-127
-108
-132
-116
-109
-101
-111
-119
-121
-116
-143
-137
-137
-131
-139
-115
-116
-124
-137
-140
-143
-152
-155
-141
-131
-120
-132
-125
-136
-142
-158
-170
-153
-155
-137
-123
-127
-138
-154
-161
-174
-167
-170
-154
-137
-139
-136
-142
-155
-167
-180
-180
-161
-134
-110
-99
-85
-65
-64
-66
-69
-85
-98
-108
-100
-122
-133
-155
-190
-233
-239
-236
-219
-212
-198
-188
-187
-195
-197
-213
-201
-198
-193
-175
-169
-165
-157
-172
-187
-198
-179
-188
-187
-188
-167
-163
-171
-175
-175
-196
-197
-194
-182
-188
-171
-171
-172
-174
-187
-203
-208
-206
-192
-186
-172
-175
-183
-182
-195
-184
-206
-206
-188
-196
-171
-175
-183
-197
-192
-200
-210
-204
-198
-193
-185
-180
-173
-184
-200
-212
-207
-202
-193
-192
-182
-180
-183
-192
-195
-212
-215
-215
-203
-184
-170
-173
-177
-195
-190
-202
-203
-202
-192
-186
-166
-167
-168
-178
-190
-196
-200
-198
-175
-165
-164
-165
-171
-178
-190
-194
-196
-186
-176
-170
-173
-175
-171
-184
-200
-199
-210
-203
-198
-191
-195
-195
-192
-201
-221
-222
-224
-222
-223
-215
-216
-221
-224
-223
-237
-249
-246
-234
-242
-228
-229
-230
-237
-248
-261
-252
-254
-259
-253
-228
-227
-232
-239
-259
-263
-265
-269
-264
-252
-239
-237
-241
-249
-253
-277
-269
-262
-264
-257
-243
-242
-238
-254
-259
-268
-271
-267
-265
-260
-244
-254
-241
-245
-259
-276
-276
-271
-264
-262
-255
-254
-247
-262
-251
-275
-281
-274
-264
-262
-257
-257
-257
-269
-255
-271
-282
-276
-266
-264
-251
-251
-252
-268
-268
-276
-266
-279
-272
-256
-255
-251
-256
-274
-265
-276
-282
-276
-272
-266
-257
-255
-263
-271
-280
-290
-283
-274
-271
-264
-257
-260
-261
-277
-272
-286
-286
-286
-278
-270
-267
-265
-255
-280
-281
-290
-291
-284
-276
-265
-260
-270
-269
-279
-290
-284
-286
-281
-274
-266
-267
-267
-280
-282
-286
-292
-282
-282
-275
-275
-271
-271
-263
-284
-286
-287
-295
-284
-288
-269
-266
-270
-283
-290
-289
-298
-296
-277
-279
-271
-266
-270
-279
-281
-290
-300
-297
-293
-283
-270
-273
-281
-282
-286
-286
-298
-295
-289
-279
-275
-279
-271
-272
-287
-302
-302
-296
-290
-291
-267
-267
-273
-274
-282
-302
-305
-305
-300
-276
-267
-260
-273
-284
-282
-295
-297
-292
-283
-279
-277
-282
-270
-278
-278
-288
-294
-294
-285
-274
-266
-267
-267
-287
-275
-291
-295
-281
-279
-278
-263
-266
-273
-276
-283
-290
-298
-289
-284
-281
-264
-267
-271
-280
-292
-302
-305
-303
-295
-290
-258
-270
-275
-280
-294
-304
-307
-289
-292
-282
-287
-270
-269
-282
-297
-308
-304
-296
-295
-277
-277
-277
-281
-289
-298
-303
-303
-300
-280
-273
-277
-290
-286
-299
-300
-293
-284
-255
-225
-203
-186
-176
-168
-175
-194
-220
-247
-248
-249
-254
-277
-306
-327
-344
-359
-348
-337
-321
-308
-290
-291
-290
-293
-296
-309
-302
-307
-292
-282
-271
-275
-279
-276
-276
-290
-296
-292
-281
-276
-263
-266
-264
-275
-283
-288
-294
-285
-284
-277
-265
-263
-259
-270
-274
-288
-291
-287
-279
-272
-257
-259
-268
-277
-273
-289
-290
-289
-274
-268
-260
-265
-264
-252
-265
-283
-292
-280
-271
-257
-256
-249
-250
-254
-261
-273
-289
-278
-270
-249
-238
-242
-252
-261
-260
-267
-272
-278
-264
-251
-234
-238
-242
-252
-254
-263
-272
-265
-241
-231
-227
-228
-238
-245
-246
-238
-240
-243
-240
-222
-217
-222
-227
-233
-237
-247
-231
-230
-224
-216
-213
-219
-225
-229
-240
-242
-255
-257
-250
-244
-234
-230
-248
-254
-266
-266
-266
-265
-265
-252
-254
-259
-263
-274
-287
-270
-272
-279
-267
-252
-263
-260
-271
-276
-284
-289
-281
-279
-275
-258
-264
-266
-269
-278
-293
-281
-284
-285
-273
-255
-259
-268
-273
-278
-292
-301
-283
-290
-272
-259
-256
-264
-272
-271
-292
-297
-288
-284
-270
-259
-260
-259
-270
-272
-286
-283
-279
-273
-272
-256
-264
-268
-273
-282
-292
-285
-280
-266
-264
-257
-260
-257
-270
-271
-280
-281
-276
-265
-268
-251
-253
-263
-274
-277
-286
-286
-270
-261
-269
-258
-254
-251
-263
-266
-281
-274
-283
-267
-261
-251
-256
-257
-273
-270
-281
-289
-276
-279
-267
-252
-246
-254
-265
-282
-276
-273
-263
-262
-256
-250
-254
-253
-268
-273
-278
-280
-276
-276
-255
-250
-255
-254
-264
-274
-279
-281
-278
-274
-252
-250
-256
-266
-276
-274
-278
-281
-277
-254
-247
-260
-246
-260
-266
-275
-281
-275
-262
-264
-255
-250
-248
-256
-266
-287
-286
-278
-281
-268
-248
-259
-259
-264
-259
-280
-276
-279
-279
-270
-255
-243
-254
-265
-267
-278
-280
-286
-275
-267
-251
-255
-249
-259
-267
-283
-279
-279
-276
-273
-258
-251
-249
-257
-270
-284
-285
-284
-265
-260
-251
-250
-252
-266
-278
-285
-291
-273
-272
-266
-251
-257
-263
-267
-263
-279
-287
-284
-270
-265
-251
-249
-255
-268
-270
-284
-281
-275
-269
-267
-257
-251
-262
-282
-280
-293
-287
-272
-267
-258
-263
-266
-257
-272
-272
-292
-284
-285
-274
-260
-260
-269
-262
-253
-290
-279
-283
-269
-267
-256
-251
-248
-258
-269
-285
-277
-274
-273
-262
-251
-253
-254
-254
-276
-287
-279
-282
-278
-274
-272
-269
-275
-271
-277
-285
-291
-290
-291
-284
-257
-261
-269
-271
-284
-288
-297
-294
-290
-286
-267
-284
-269
-278
-287
-299
-292
-296
-291
-282
-273
-270
-272
-282
-292
-308
-304
-306
-299
-299
-283
-277
-281
-278
-279
-286
-273
-259
-238
-214
-184
-173
-173
-181
-191
-230
-261
-257
-265
-272
-276
-314
-329
-345
-329
-346
-346
-336
-321
-312
-302
-300
-305
-301
-302
-318
-310
-305
-295
-289
-279
-288
-284
-294
-298
-307
-313
-297
-292
-287
-281
-289
-292
-284
-290
-301
-314
-302
-298
-286
-276
-276
-283
-299
-296
-313
-309
-301
-290
-282
-277
-289
-275
-288
-310
-305
-304
-305
-290
-285
-275
-285
-290
-290
-302
-296
-308
-297
-292
-274
-271
-275
-282
-289
-299
-300
-306
-294
-285
-273
-275
-275
-281
-280
-294
-297
-300
-282
-280
-259
-274
-277
-274
-280
-292
-272
-274
-273
-262
-258
-247
-248
-254
-262
-270
-269
-274
-259
-258
-244
-245
-244
-250
-247
-265
-271
-271
-255
-253
-242
-260
-247
-252
-264
-277
-276
-273
-273
-260
-252
-256
-262
-277
-289
-298
-303
-306
-304
-291
-284
-288
-291
-287
-302
-312
-302
-302
-303
-303
-292
-295
-295
-299
-309
-322
-320
-315
-311
-303
-302
-286
-295
-312
-309
-327
-332
-324
-323
-300
-299
-301
-302
-309
-315
-331
-333
-335
-318
-312
-301
-305
-315
-312
-317
-327
-330
-332
-311
-306
-307
-307
-311
-324
-324
-326
-327
-321
-315
-314
-302
-308
-309
-315
-327
-325
-325
-324
-323
-302
-310
-311
-316
-308
-326
-327
-339
-322
-318
-300
-309
-293
-301
-321
-332
-333
-334
-332
-324
-312
-316
-310
-309
-318
-334
-335
-313
-325
-329
-310
-311
-316
-322
-320
-324
-323
-339
-336
-321
-312
-306
-319
-317
-328
-338
-337
-338
-330
-318
-311
-308
-303
-322
-327
-341
-342
-344
-335
-322
-301
-309
-307
-329
-324
-334
-333
-335
-326
-313
-307
-311
-315
-317
-318
-329
-334
-340
-321
-330
-301
-306
-310
-319
-317
-341
-334
-326
-329
-326
-312
-311
-305
-313
-327
-346
-344
-330
-325
-317
-313
-308
-316
-323
-329
-336
-345
-328
-319
-319
-311
-313
-303
-316
-326
-346
-340
-338
-310
-307
-311
-310
-306
-321
-327
-341
-340
-337
-328
-312
-312
-316
-312
-328
-337
-347
-338
-329
-330
-315
-302
-302
-314
-323
-332
-335
-331
-320
-321
-311
-298
-309
-312
-326
-333
-335
-333
-314
-324
-314
-305
-310
-311
-314
-324
-329
-328
-323
-309
-312
-305
-299
-314
-316
-324
-328
-323
-322
-316
-299
-282
-290
-295
-308
-327
-331
-316
-301
-313
-298
-292
-304
-310
-310
-332
-320
-329
-323
-308
-290
-296
-300
-310
-317
-335
-335
-332
-327
-318
-308
-298
-305
-320
-318
-327
-335
-334
-328
-318
-307
-302
-307
-319
-312
-333
-335
-333
-318
-315
-302
-300
-300
-317
-330
-326
-336
-338
-332
-321
-295
-288
-268
-262
-247
-255
-245
-225
-219
-223
-233
-256
-267
-281
-292
-322
-347
-375
-377
-360
-344
-345
-344
-361
-360
-363
-356
-351
-315
-316
-324
-313
-312
-324
-325
-326
-320
-321
-317
-308
-300
-291
-310
-306
-321
-324
-321
-308
-307
-296
-289
-296
-305
-305
-315
-325
-319
-310
-297
-291
-286
-295
-298
-307
-317
-316
-312
-303
-296
-287
-283
-289
-284
-293
-311
-315
-309
-303
-306
-288
-286
-286
-280
-301
-313
-294
-287
-294
-288
-281
-276
-277
-285
-298
-305
-301
-290
-293
-289
-260
-264
-270
-280
-277
-297
-297
-282
-276
-281
-265
-266
-262
-271
-274
-281
-270
-269
-262
-263
-251
-246
-245
-242
-250
-273
-275
-267
-261
-252
-234
-242
-239
-246
-257
-266
-271
-266
-257
-251
-239
-248
-251
-258
-270
-277
-273
-279
-276
-285
-258
-261
-272
-291
-284
-298
-301
-298
-294
-289
-282
-288
-282
-295
-309
-315
-307
-309
-306
-296
-289
-281
-285
-305
-305
-313
-314
-312
-306
-302
-295
-294
-292
-298
-311
-319
-315
-312
-304
-292
-293
-291
-299
-309
-313
-318
-318
-317
-299
-299
-299
-293
-299
-307
-320
-326
-323
-326
-295
-298
-289
-283
-293
-307
-316
-311
-314
-312
-304
-292
-295
-289
-295
-307
-314
-316
-314
-301
-296
-294
-296
-292
-290
-309
-331
-318
-304
-308
-304
-296
-285
-282
-298
-309
-305
-322
-332
-320
-308
-281
-288
-292
-301
-303
-317
-322
-309
-305
-302
-288
-298
-291
-295
-305
-323
-317
-324
-312
-302
-291
-299
-300
-306
-311
-313
-318
-312
-319
-287
-282
-306
-309
-301
-296
-316
-322
-319
-309
-307
-294
-285
-288
-303
-312
-321
-318
-312
-304
-301
-284
-295
-301
-310
-316
-325
-311
-318
-300
-299
-293
-294
-305
-304
-311
-329
-323
-319
-299
-298
-293
-280
-282
-304
-317
-310
-318
-311
-313
-306
-288
-293
-288
-304
-314
-330
-317
-313
-298
-295
-290
-296
-304
-311
-317
-318
-321
-326
-308
-291
-290
-293
-293
-315
-310
-309
-321
-311
-303
-298
-291
-289
-300
-296
-309
-318
-319
-312
-293
-287
-283
-292
-294
-308
-304
-316
-307
-311
-294
-278
-276
-288
-291
-300
-306
-309
-317
-304
-292
-281
-277
-277
-287
-293
-304
-310
-305
-294
-284
-267
-275
-285
-291
-297
-314
-314
-313
-298
-293
-285
-285
-295
-311
-304
-311
-314
-308
-300
-305
-293
-287
-297
-293
-304
-315
-314
-317
-301
-288
-286
-289
-286
-291
-303
-318
-318
-317
-296
-298
-287
-287
-302
-312
-311
-314
-319
-308
-293
-275
-254
-235
-218
-226
-221
-218
-207
-217
-224
-239
-242
-248
-260
-297
-314
-362
-366
-361
-344
-329
-324
-321
-327
-323
-329
-326
-321
-317
-303
-291
-276
-281
-288
-296
-306
-300
-309
-299
-299
-281
-279
-282
-285
-292
-298
-304
-304
-298
-291
-274
-271
-277
-286
-299
-309
-301
-307
-297
-294
-266
-268
-281
-281
-280
-299
-292
-304
-294
-293
-267
-278
-273
-284
-282
-287
-297
-295
-295
-287
-274
-270
-271
-280
-282
-299
-296
-299
-285
-273
-265
-270
-265
-273
-278
-292
-302
-289
-285
-283
-257
-258
-258
-271
-271
-289
-281
-275
-261
-270
-253
-253
-253
-261
-260
-276
-268
-270
-263
-248
-232
-236
-236
-249
-257
-259
-266
-270
-260
-249
-222
-225
-235
-247
-255
-268
-270
-265
-259
-254
-244
-252
-250
-258
-267
-276
-285
-276
-277
-277
-265
-273
-270
-278
-290
-304
-302
-301
-293
-280
-276
-272
-290
-295
-310
-309
-322
-314
-308
-288
-289
-281
-281
-296
-304
-306
-313
-313
-307
-292
-282
-286
-297
-299
-319
-318
-309
-305
-290
-291
-284
-294
-290
-304
-312
-322
-310
-306
-299
-285
-294
-294
-301
-303
-314
-314
-314
-307
-299
-296
-296
-293
-293
-312
-309
-307
-311
-305
-301
-279
-280
-287
-297
-308
-313
-318
-310
-304
-297
-289
-284
-286
-296
-298
-317
-319
-312
-305
-304
-292
-290
-288
-297
-306
-318
-309
-314
-315
-302
-286
-282
-289
-307
-303
-320
-319
-314
-309
-310
-304
-284
-291
-300
-310
-324
-319
-320
-316
-302
-302
-297
-294
-311
-314
-332
-326
-318
-315
-315
-301
-294
-301
-307
-310
-322
-335
-339
-321
-304
-294
-306
-307
-309
-312
-328
-331
-326
-315
-316
-304
-298
-303
-319
-328
-328
-334
-330
-327
-299
-299
-307
-314
-323
-331
-323
-324
-326
-326
-317
-307
-308
-316
-321
-327
-341
-328
-327
-312
-310
-314
-313
-312
-329
-341
-337
-339
-324
-316
-304
-311
-315
-323
-330
-336
-341
-353
-328
-326
-318
-321
-302
-317
-330
-335
-340
-342
-346
-321
-311
-315
-315
-320
-327
-343
-355
-350
-329
-332
-315
-309
-319
-332
-331
-340
-346
-346
-337
-340
-314
-322
-317
-328
-329
-351
-355
-331
-323
-341
-321
-323
-323
-324
-327
-341
-343
-347
-326
-320
-312
-315
-322
-333
-330
-342
-338
-338
-333
-326
-313
-311
-313
-323
-330
-345
-352
-345
-331
-318
-313
-325
-316
-322
-333
-351
-359
-349
-346
-335
-330
-329
-325
-341
-335
-341
-352
-353
-345
-340
-335
-326
-339
-341
-350
-355
-351
-350
-332
-333
-324
-329
-336
-347
-351
-360
-361
-355
-356
-338
-335
-332
-341
-345
-350
-358
-340
-323
-302
-277
-266
-263
-246
-237
-258
-267
-273
-293
-302
-291
-309
-319
-354
-390
-414
-414
-399
-385
-383
-355
-359
-354
-353
-358
-365
-370
-365
-358
-340
-329
-321
-325
-336
-345
-360
-352
-347
-348
-335
-326
-327
-328
-333
-342
-356
-354
-341
-340
-337
-328
-309
-323
-326
-329
-343
-352
-350
-347
-337
-311
-314
-322
-325
-325
-336
-347
-350
-339
-321
-310
-319
-317
-329
-333
-341
-344
-337
-334
-329
-315
-304
-309
-314
-321
-337
-330
-331
-332
-325
-316
-307
-304
-309
-313
-332
-329
-328
-320
-310
-281
-286
-292
-301
-314
-325
-324
-319
-312
-297
-296
-295
-277
-283
-298
-304
-310
-298
-292
-280
-275
-280
-275
-283
-293
-300
-295
-298
-281
-289
-273
-265
-279
-291
-296
-307
-299
-296
-283
-281
-289
-290
-299
-309
-312
-320
-321
-321
-316
-307
-301
-300
-305
-318
-334
-327
-338
-340
-328
-317
-320
-317
-327
-336
-344
-341
-342
-338
-333
-318
-318
-325
-324
-333
-346
-349
-346
-335
-336
-318
-311
-327
-331
-332
-347
-352
-347
-340
-331
-310
-317
-320
-331
-339
-353
-339
-348
-335
-334
-318
-317
-307
-335
-322
-345
-347
-337
-341
-323
-316
-313
-308
-311
-321
-337
-342
-347
-327
-320
-308
-307
-316
-318
-324
-349
-341
-331
-318
-312
-312
-316
-311
-319
-335
-337
-339
-336
-324
-317
-314
-312
-304
-314
-323
-338
-347
-334
-324
-308
-309
-313
-311
-321
-330
-346
-335
-336
-322
-309
-301
-310
-312
-324
-333
-337
-336
-336
-329
-319
-310
-311
-312
-331
-334
-329
-332
-334
-327
-314
-309
-306
-315
-319
-327
-333
-332
-333
-314
-319
-313
-310
-318
-318
-335
-340
-334
-330
-324
-310
-308
-300
-310
-316
-322
-326
-334
-337
-330
-310
-301
-304
-299
-316
-328
-328
-342
-335
-314
-306
-302
-310
-316
-322
-337
-333
-329
-325
-320
-310
-304
-309
-306
-320
-328
-326
-323
-321
-321
-298
-293
-312
-308
-316
-328
-318
-321
-312
-319
-303
-309
-308
-304
-313
-322
-330
-318
-318
-312
-307
-308
-299
-309
-308
-320
-316
-320
-314
-312
-293
-294
-294
-310
-316
-324
-325
-321
-313
-307
-290
-297
-287
-299
-308
-316
-317
-324
-308
-307
-298
-295
-296
-307
-317
-324
-321
-321
-308
-290
-291
-286
-289
-303
-310
-320
-323
-311
-305
-281
-289
-291
-291
-291
-311
-309
-319
-316
-301
-284
-283
-282
-295
-293
-298
-303
-311
-310
-286
-288
-277
-274
-286
-290
-308
-306
-314
-292
-282
-269
-284
-273
-278
-299
-307
-296
-303
-300
-294
-284
-285
-281
-289
-297
-304
-313
-309
-299
-297
-286
-292
-294
-280
-290
-304
-313
-315
-302
-297
-291
-282
-289
-285
-297
-309
-321
-297
-298
-293
-276
-286
-289
-284
-292
-307
-306
-307
-293
-281
-250
-236
-231
-211
-206
-201
-200
-202
-215
-231
-222
-235
-234
-263
-289
-351
-356
-355
-345
-334
-313
-316
-313
-320
-313
-325
-320
-313
-302
-293
-283
-284
-269
-274
-281
-294
-290
-297
-289
-283
-277
-271
-266
-281
-281
-296
-290
-287
-275
-276
-268
-251
-270
-271
-279
-289
-290
-284
-276
-270
-261
-259
-262
-275
-281
-290
-285
-283
-266
-256
-263
-262
-247
-260
-273
-292
-287
-281
-272
-258
-255
-253
-250
-265
-278
-281
-270
-273
-268
-258
-249
-245
-248
-251
-268
-267
-269
-266
-254
-239
-236
-247
-243
-257
-267
-259
-248
-240
-233
-227
-235
-223
-225
-233
-242
-252
-251
-242
-225
-209
-219
-210
-214
-222
-238
-234
-234
-232
-218
-211
-203
-203
-215
-219
-228
-234
-242
-224
-221
-211
-212
-206
-215
-229
-254
-253
-260
-249
-233
-227
-225
-238
-241
-257
-263
-265
-257
-264
-253
-241
-250
-246
-264
-267
-278
-283
-278
-271
-265
-245
-243
-241
-253
-249
-273
-274
-277
-271
-260
-252
-248
-251
-259
-259
-283
-273
-274
-264
-260
-252
-243
-258
-257
-262
-275
-275
-272
-268
-261
-247
-244
-261
-262
-266
-274
-268
-262
-257
-252
-242
-251
-244
-257
-262
-278
-275
-265
-258
-249
-245
-236
-235
-244
-264
-275
-275
-267
-259
-240
-244
-234
-236
-248
-257
-274
-269
-262
-252
-247
-237
-241
-237
-245
-268
-262
-274
-260
-249
-238
-243
-236
-245
-252
-267
-273
-261
-251
-249
-241
-233
-233
-241
-246
-260
-270
-275
-257
-240
-229
-238
-238
-246
-250
-265
-257
-260
-257
-247
-232
-228
-237
-243
-248
-265
-257
-263
-248
-244
-241
-235
-229
-244
-245
-258
-265
-254
-244
-250
-236
-237
-230
-240
-240
-255
-265
-264
-260
-251
-231
-231
-224
-236
-246
-261
-257
-253
-243
-239
-224
-228
-227
-239
-253
-266
-256
-251
-237
-233
-232
-220
-210
-241
-249
-256
-252
-249
-241
-234
-219
-226
-221
-209
-228
-239
-240
-249
-238
-230
-231
-235
-216
-222
-228
-243
-237
-241
-221
-227
-213
-228
-212
-234
-238
-252
-249
-252
-231
-224
-220
-225
-224
-229
-242
-241
-248
-249
-236
-228
-223
-210
-219
-233
-246
-243
-263
-250
-239
-221
-217
-220
-230
-238
-250
-245
-250
-241
-231
-219
-229
-232
-234
-242
-246
-253
-258
-230
-223
-195
-183
-171
-168
-158
-161
-146
-143
-146
-153
-162
-175
-181
-188
-219
-266
-283
-295
-288
-275
-259
-260
-251
-261
-261
-262
-267
-264
-251
-238
-222
-214
-211
-222
-224
-243
-234
-232
-228
-214
-196
-208
-206
-213
-223
-233
-229
-237
-223
-220
-208
-194
-199
-212
-214
-235
-232
-223
-223
-212
-202
-188
-195
-204
-223
-236
-229
-234
-213
-197
-199
-195
-196
-216
-210
-222
-208
-228
-210
-197
-183
-186
-184
-197
-204
-224
-224
-213
-193
-193
-189
-184
-185
-200
-203
-220
-209
-210
-190
-182
-175
-178
-186
-183
-194
-205
-195
-194
-186
-174
-170
-161
-169
-185
-179
-192
-180
-178
-171
-148
-138
-150
-147
-166
-172
-177
-171
-167
-162
-134
-145
-147
-152
-160
-171
-173
-176
-168
-161
-147
-149
-155
-166
-177
-186
-188
-185
-190
-183
-165
-173
-177
-187
-201
-215
-212
-211
-206
-206
-189
-173
-174
-199
-200
-215
-218
-217
-217
-210
-189
-182
-199
-210
-205
-228
-205
-223
-214
-200
-188
-190
-186
-202
-213
-228
-229
-225
-209
-201
-192
-200
-196
-204
-203
-212
-213
-220
-212
-205
-186
-197
-172
-192
-201
-217
-222
-224
-199
-201
-179
-184
-184
-205
-196
-210
-210
-213
-194
-192
-187
-178
-191
-196
-198
-208
-217
-215
-206
-182
-183
-186
-190
-203
-196
-211
-206
-196
-193
-183
-180
-184
-175
-186
-187
-212
-216
-208
-210
-184
-179
-178
-185
-188
-206
-211
-200
-207
-201
-175
-174
-182
-186
-195
-207
-212
-204
-206
-204
-189
-186
-185
-179
-181
-213
-212
-199
-196
-193
-179
-174
-183
-190
-188
-197
-212
-212
-197
-196
-181
-177
-178
-184
-188
-206
-207
-203
-197
-200
-181
-176
-178
-178
-188
-198
-208
-209
-199
-203
-171
-167
-173
-180
-193
-205
-203
-198
-194
-190
-179
-177
-181
-167
-175
-198
-197
-213
-198
-194
-168
-168
-176
-178
-189
-206
-201
-199
-189
-183
-169
-168
-170
-177
-188
-200
-199
-191
-186
-176
-174
-169
-169
-174
-180
-195
-196
-194
-173
-175
-156
-156
-156
-178
-179
-195
-194
-186
-177
-162
-151
-150
-154
-176
-182
-193
-186
-187
-176
-171
-160
-159
-169
-181
-185
-199
-193
-187
-175
-168
-159
-159
-171
-186
-194
-199
-197
-188
-190
-164
-157
-168
-167
-185
-189
-195
-183
-190
-187
-177
-164
-160
-161
-187
-189
-197
-190
-189
-177
-168
-171
-169
-175
-177
-177
-173
-154
-132
-106
-91
-75
-61
-77
-86
-119
-140
-142
-139
-146
-154
-179
-210
-212
-221
-230
-233
-234
-221
-205
-185
-169
-178
-177
-184
-194
-188
-192
-186
-171
-155
-149
-157
-166
-161
-178
-185
-182
-174
-162
-152
-155
-157
-158
-163
-184
-175
-175
-168
-156
-148
-149
-144
-157
-160
-174
-169
-171
-166
-159
-144
-145
-138
-155
-163
-169
-173
-167
-161
-139
-136
-139
-142
-148
-165
-163
-169
-160
-151
-141
-137
-128
-139
-149
-158
-153
-159
-149
-143
-133
-126
-125
-136
-141
-151
-158
-153
-145
-134
-129
-112
-110
-118
-124
-136
-148
-136
-137
-129
-103
-96
-114
-105
-113
-116
-136
-132
-127
-109
-79
-95
-100
-97
-108
-118
-120
-119
-117
-110
-94
-88
-92
-96
-111
-131
-138
-124
-121
-113
-105
-107
-103
-125
-140
-140
-144
-141
-131
-135
-125
-130
-120
-137
-149
-165
-164
-168
-154
-147
-123
-137
-148
-141
-150
-164
-160
-168
-157
-151
-133
-141
-144
-145
-156
-164
-161
-165
-163
-145
-136
-142
-134
-139
-145
-160
-163
-169
-165
-154
-140
-138
-140
-151
-138
-169
-163
-166
-158
-146
-132
-138
-142
-153
-147
-161
-155
-156
-149
-142
-130
-129
-131
-143
-145
-154
-161
-164
-141
-148
-131
-126
-128
-139
-142
-158
-145
-152
-149
-130
-124
-129
-131
-142
-147
-155
-164
-153
-141
-131
-115
-118
-117
-142
-147
-153
-152
-150
-139
-126
-121
-120
-127
-139
-143
-146
-151
-148
-132
-112
-127
-121
-127
-141
-156
-156
-149
-142
-141
-127
-124
-127
-116
-132
-149
-147
-153
-142
-131
-131
-117
-125
-129
-135
-149
-150
-140
-141
-136
-115
-113
-123
-125
-140
-138
-148
-147
-140
-130
-105
-121
-122
-124
-126
-147
-141
-142
-135
-125
-113
-119
-114
-126
-131
-157
-146
-147
-132
-134
-113
-116
-107
-119
-127
-142
-134
-141
-138
-128
-106
-116
-117
-121
-120
-127
-143
-148
-131
-131
-114
-108
-102
-129
-127
-134
-143
-147
-134
-122
-106
-111
-101
-119
-128
-145
-144
-128
-121
-125
-108
-109
-116
-126
-125
-134
-133
-126
-117
-120
-104
-101
-114
-120
-118
-142
-129
-129
-118
-110
-102
-107
-108
-119
-128
-132
-137
-137
-127
-105
-103
-99
-102
-118
-125
-127
-126
-117
-110
-100
-96
-100
-99
-115
-114
-115
-121
-125
-115
-95
-91
-98
-96
-113
-122
-113
-113
-116
-105
-91
-86
-97
-102
-112
-127
-126
-130
-121
-114
-105
-103
-107
-117
-102
-125
-110
-128
-129
-111
-108
-105
-102
-107
-113
-131
-134
-120
-116
-118
-90
-96
-104
-114
-112
-125
-123
-113
-122
-113
-97
-104
-104
-109
-108
-128
-130
-116
-107
-75
-48
-43
-30
-15
-19
-26
-26
-37
-51
-63
-47
-51
-80
-111
-137
-170
-167
-169
-158
-142
-125
-122
-119
-124
-135
-141
-132
-121
-114
-93
-80
-95
-89
-104
-96
-114
-115
-111
-99
-88
-90
-86
-91
-98
-105
-115
-115
-112
-105
-94
-80
-91
-84
-95
-91
-101
-109
-105
-99
-86
-75
-78
-84
-100
-93
-99
-100
-109
-87
-82
-78
-71
-79
-91
-95
-94
-99
-98
-91
-81
-68
-73
-66
-82
-98
-98
-92
-91
-81
-66
-75
-81
-65
-69
-87
-94
-90
-95
-71
-57
-60
-59
-63
-74
-81
-82
-86
-68
-60
-48
-47
-44
-49
-60
-72
-65
-66
-61
-49
-30
-31
-29
-35
-45
-59
-58
-61
-53
-57
-26
-27
-30
-24
-50
-67
-59
-59
-62
-42
-34
-34
-42
-54
-64
-70
-70
-73
-69
-65
-52
-54
-58
-69
-76
-95
-95
-86
-82
-75
-68
-66
-69
-80
-85
-96
-103
-100
-90
-90
-67
-71
-70
-78
-72
-93
-101
-99
-85
-87
-73
-77
-74
-81
-82
-99
-97
-106
-91
-77
-61
-75
-74
-81
-90
-98
-98
-95
-85
-76
-67
-75
-65
-71
-93
-100
-99
-93
-91
-72
-66
-69
-68
-82
-90
-86
-81
-82
-70
-71
-71
-64
-65
-89
-83
-101
-88
-89
-75
-66
-55
-67
-75
-79
-82
-89
-92
-85
-77
-66
-73
-71
-62
-62
-75
-77
-83
-84
-69
-65
-53
-54
-61
-70
-88
-84
-82
-81
-77
-66
-55
-52
-71
-73
-86
-88
-81
-79
-80
-59
-55
-56
-64
-72
-88
-74
-92
-86
-68
-58
-61
-64
-55
-65
-81
-84
-78
-78
-70
-50
-53
-56
-63
-70
-87
-93
-66
-67
-70
-49
-49
-48
-62
-77
-93
-84
-82
-69
-66
-58
-47
-50
-64
-63
-79
-87
-81
-71
-62
-53
-47
-50
-59
-62
-78
-79
-79
-74
-66
-54
-51
-53
-54
-66
-82
-79
-77
-72
-56
-57
-53
-53
-41
-62
-79
-74
-74
-61
-54
-42
-45
-54
-66
-67
-82
-78
-74
-65
-55
-49
-40
-53
-60
-65
-79
-74
-73
-60
-59
-40
-42
-52
-55
-68
-74
-74
-63
-62
-56
-51
-46
-50
-69
-70
-58
-62
-79
-52
-44
-44
-34
-47
-64
-66
-66
-68
-63
-60
-29
-30
-34
-56
-49
-64
-66
-63
-60
-47
-32
-30
-32
-36
-50
-63
-54
-49
-48
-48
-36
-29
-33
-38
-47
-67
-66
-64
-55
-50
-31
-36
-38
-43
-57
-63
-66
-60
-55
-52
-41
-40
-32
-37
-53
-71
-65
-64
-64
-60
-41
-35
-34
-52
-52
-71
-72
-51
-50
-48
-34
-37
-37
-42
-49
-72
-65
-67
-60
-55
-39
-36
-29
-30
-22
-19
-7
17
43
61
83
67
50
20
6
-8
-29
-53
-62
-84
-88
-80
-72
-88
-78
-97
-97
-80
-63
-48
-38
-39
-43
-48
-58
-50
-60
-58
-45
-39
-31
-29
-29
-25
-44
-55
-56
-51
-41
-27
-25
-23
-27
-40
-45
-54
-49
-46
-30
-19
-22
-20
-22
-37
-41
-51
-53
-47
-32
-7
-13
-14
-19
-28
-43
-41
-37
-44
-32
-16
-13
-15
-21
-26
-35
-36
-38
-31
-29
-7
-14
-6
0
-26
-36
-36
-37
-28
-21
-6
-1
-4
-3
-7
-24
-23
-26
-20
-8
18
18
19
-2
-4
-22
-15
-13
-8
13
40
23
21
12
23
5
2
4
8
14
30
34
44
26
11
1
4
8
13
20
31
31
20
17
6
-8
-6
-3
6
14
22
19
4
1
-10
-15
-21
-22
-17
-5
-8
-1
4
-17
-26
-41
-45
-41
-35
-16
-4
-9
-13
-17
-23
-43
-33
-39
-26
-19
-16
-13
-20
-32
-41
-40
-34
-32
-19
-16
-2
-8
-13
-16
-16
-51
-49
-38
-28
-9
-13
-9
-19
-11
-33
-42
-36
-33
-17
-17
-11
-6
-9
-23
-34
-41
-38
-37
-22
-7
2
0
-1
-18
-34
-29
-31
-27
-19
-3
-14
-7
-17
-26
-22
-13
-19
-25
-18
6
-3
-5
-13
-12
-31
-23
-26
-6
0
0
3
-1
-10
-19
-32
-25
-23
-3
-9
0
-3
-2
-1
-13
-24
-28
-23
-12
-19
2
3
2
-6
-12
-29
-35
-25
-10
-13
3
9
7
-1
-12
-24
-22
-22
-10
-14
-4
3
-3
-6
-8
-22
-20
-19
-11
-14
1
1
-4
-12
-19
-23
-21
-15
-8
-6
9
10
1
-15
-17
-27
-32
-18
-5
5
15
7
2
-4
-13
-15
-14
-14
-6
0
7
11
4
-11
-24
-23
-25
-23
-11
18
11
1
12
-1
-20
-29
-28
-11
-4
14
6
1
3
0
-12
-26
-21
-15
-7
-3
20
10
13
4
-20
-23
-12
-4
-6
14
24
10
7
1
-10
-10
-25
-10
0
19
22
11
1
-3
-5
-9
-9
1
7
27
19
19
11
13
2
-10
-11
-7
-7
16
13
21
9
3
-8
-10
-23
-6
-3
34
7
6
5
-1
-19
-14
-23
-16
-3
16
23
16
2
-7
-18
-15
-19
-7
3
27
11
15
0
0
-11
-13
-13
-13
-1
13
5
13
-1
-13
-25
-13
0
23
48
62
85
92
106
101
81
64
50
43
58
51
36
13
-22
-56
-64
-58
-52
-34
-22
-31
-19
-14
-29
-28
-36
-21
-16
-9
6
14
13
17
12
-1
-12
-11
-2
4
12
24
27
27
8
8
-1
-6
3
6
22
28
16
24
6
-7
-9
-3
-1
4
20
31
39
28
11
1
-2
3
1
14
34
32
35
24
14
4
-11
-6
4
30
41
37
31
28
7
1
-8
7
16
39
38
34
37
30
16
1
8
7
18
22
37
50
55
46
31
18
26
33
23
33
49
48
53
53
46
31
20
30
52
60
68
70
60
54
52
37
38
43
48
53
70
68
69
62
48
26
27
32
44
52
62
50
49
36
27
0
4
10
9
20
42
31
23
9
3
-11
-11
-14
-1
8
16
4
7
-16
0
-28
-17
-11
-7
0
5
8
0
-15
-22
-26
-20
-18
-13
-7
0
7
-1
-17
-31
-43
-41
-15
-8
-4
6
-9
-15
-26
-30
-40
-33
-25
-16
0
3
-6
-18
-19
-40
-35
-33
-35
-28
-3
0
-11
-15
-14
-33
-46
-41
-29
-20
-13
-4
-12
-15
-24
-43
-39
-31
-34
-26
-15
-6
-5
-16
-31
-45
-42
-41
-41
-29
-12
-12
-20
-19
-46
-46
-53
-44
-43
-33
-21
-5
-21
-32
-36
-55
-58
-61
-53
-41
-19
-23
-29
-28
-42
-60
-57
-55
-49
-39
-27
-44
-37
-42
-49
-60
-64
-68
-57
-48
-36
-35
-35
-33
-55
-74
-77
-72
-54
-52
-46
-48
-46
-38
-59
-72
-67
-75
-68
-59
-42
-39
-48
-66
-74
-82
-80
-75
-64
-59
-39
-45
-55
-66
-79
-85
-79
-79
-80
-68
-56
-57
-55
-73
-82
-89
-97
-86
-72
-66
-68
-59
-67
-79
-84
-92
-91
-78
-76
-60
-67
-71
-79
-87
-94
-101
-99
-93
-79
-73
-76
-77
-79
-86
-96
-94
-95
-96
-88
-73
-64
-66
-85
-103
-107
-105
-103
-92
-82
-71
-66
-73
-79
-95
-117
-104
-91
-97
-92
-78
-77
-83
-88
-92
-105
-113
-121
-105
-98
-77
-86
-90
-99
-115
-123
-126
-123
-117
-108
-97
-97
-105
-119
-116
-124
-130
-125
-120
-117
-101
-108
-106
-111
-111
-128
-130
-134
-137
-131
-121
-111
-108
-113
-119
-135
-142
-147
-129
-126
-125
-120
-119
-127
-134
-139
-123
-115
-90
-74
-54
-44
-23
-20
-40
-66
-91
-105
-85
-93
-105
-125
-166
-200
-189
-207
-197
-194
-182
-158
-157
-154
-149
-160
-171
-170
-165
-159
-145
-134
-117
-128
-140
-150
-152
-162
-155
-156
-147
-139
-118
-117
-125
-150
-154
-164
-156
-160
-140
-125
-133
-133
-133
-145
-167
-171
-159
-147
-149
-137
-134
-134
-139
-153
-160
-168
-155
-157
-133
-133
-139
-136
-151
-145
-161
-166
-169
-156
-156
-131
-133
-128
-141
-154
-168
-175
-163
-159
-146
-135
-142
-145
-132
-149
-159
-155
-162
-157
-149
-132
-129
-133
-148
-152
-170
-166
-158
-147
-139
-110
-125
-119
-131
-133
-146
-151
-152
-141
-121
-106
-115
-116
-121
-129
-138
-134
-142
-137
-124
-107
-110
-116
-121
-135
-149
-144
-153
-130
-127
-127
-132
-134
-151
-165
-181
-159
-159
-161
-156
-155
-152
-158
-172
-179
-186
-184
-181
-173
-159
-166
-163
-169
-185
-179
-197
-194
-194
-171
-167
-162
-160
-165
-183
-193
-197
-194
-193
-185
-172
-171
-164
-166
-184
-201
-199
-211
-199
-192
-173
-170
-162
-174
-186
-187
-197
-212
-193
-182
-170
-172
-167
-176
-181
-198
-193
-200
-188
-179
-165
-169
-168
-173
-185
-187
-197
-205
-188
-178
-163
-168
-174
-167
-175
-201
-197
-195
-194
-181
-161
-165
-164
-173
-177
-189
-183
-187
-187
-183
-164
-161
-170
-191
-170
-196
-184
-190
-192
-180
-158
-166
-164
-165
-177
-204
-203
-190
-180
-177
-174
-157
-169
-168
-176
-195
-198
-197
-189
-178
-157
-167
-163
-181
-187
-191
-196
-198
-177
-171
-160
-162
-166
-173
-184
-194
-196
-191
-178
-172
-163
-155
-166
-185
-187
-198
-205
-191
-174
-174
-167
-159
-166
-173
-190
-203
-209
-183
-179
-166
-164
-160
-164
-175
-188
-198
-189
-179
-180
-169
-161
-162
-170
-175
-183
-195
-185
-182
-177
-157
-169
-160
-164
-173
-190
-194
-196
-197
-177
-169
-166
-162
-169
-173
-182
-188
-191
-179
-178
-161
-160
-151
-163
-173
-194
-176
-182
-174
-172
-170
-154
-149
-158
-180
-177
-185
-189
-180
-166
-150
-145
-153
-170
-157
-162
-177
-183
-176
-166
-158
-156
-158
-162
-160
-175
-174
-176
-174
-164
-156
-144
-149
-161
-158
-168
-169
-167
-169
-149
-142
-144
-147
-164
-168
-168
-167
-173
-165
-160
-140
-145
-148
-148
-151
-164
-168
-169
-154
-147
-145
-140
-138
-148
-161
-176
-167
-158
-151
-140
-133
-133
-135
-134
-147
-161
-157
-158
-147
-137
-128
-131
-131
-128
-148
-163
-152
-152
-146
-133
-128
-130
-143
-148
-152
-164
-156
-161
-147
-124
-127
-130
-139
-154
-159
-166
-154
-153
-154
-139
-136
-129
-137
-148
-161
-167
-164
-156
-152
-128
-123
-118
-137
-142
-157
-169
-161
-162
-137
-126
-126
-139
-140
-133
-147
-134
-130
-107
-83
-52
-37
-24
-23
-41
-72
-100
-103
-103
-110
-108
-125
-159
-183
-186
-190
-187
-195
-171
-164
-154
-129
-142
-148
-156
-155
-152
-159
-136
-133
-120
-124
-118
-120
-132
-155
-137
-131
-127
-124
-106
-112
-100
-119
-129
-144
-144
-139
-127
-125
-108
-106
-106
-120
-117
-138
-139
-142
-134
-120
-104
-100
-95
-113
-127
-133
-136
-128
-116
-114
-105
-107
-111
-122
-129
-124
