-7
5
13
7
-10
-22
-49
-52
-40
-28
-8
3
15
-1
-11
-25
-39
-38
-38
-24
6
8
16
7
-1
-25
-37
-42
-35
-25
-6
17
24
11
-1
-22
-40
-40
-31
-24
0
19
17
0
1
-22
-38
-40
-32
-20
5
20
21
4
-1
-28
-41
-43
-30
-13
9
32
16
-5
-12
-31
-41
-45
-35
-11
12
20
18
9
-7
-25
-28
-27
-33
-18
1
14
23
8
-11
-35
-36
-34
-29
-4
23
19
22
14
-5
-23
-34
-26
-18
4
24
20
26
20
0
-19
-25
-27
-17
4
17
22
19
13
-19
-35
-37
-37
-29
4
20
24
17
-1
-19
-37
-36
-36
-15
-1
16
20
14
3
-26
-34
-36
-24
-21
5
23
23
17
5
-20
-33
-38
-35
-10
9
21
30
9
0
-24
-47
-55
-44
-30
-3
10
40
46
40
35
41
61
91
104
132
129
103
75
65
36
5
-22
-47
-57
-32
-12
-12
-19
-31
-55
-54
-52
-39
-21
3
19
28
14
1
-17
-20
-29
-20
-6
14
25
26
25
17
-17
-27
-21
-11
4
26
32
32
25
9
-17
-26
-19
-10
10
29
44
40
25
12
-8
-17
-10
-8
5
28
48
41
35
18
-6
-20
-18
-7
17
32
45
50
35
22
1
-10
-2
2
26
39
51
41
37
16
7
-4
9
18
36
43
57
60
50
31
9
4
8
23
43
67
79
71
67
41
30
18
31
45
72
95
95
90
80
66
46
34
43
51
84
98
98
87
78
57
52
37
42
50
69
90
83
77
57
29
16
16
14
24
46
50
57
41
25
6
-2
-14
-9
6
34
31
37
27
18
-2
-16
-33
-15
7
19
27
31
23
17
-12
-27
-32
-13
-8
15
21
29
17
4
-12
-29
-30
-24
-7
17
31
35
19
12
-15
-31
-32
-11
2
27
32
36
25
1
-27
-24
-24
-6
1
20
32
29
21
9
-13
-25
-21
-2
-1
21
36
24
16
9
-12
-19
-23
-10
11
36
40
37
29
12
-13
-26
-19
-7
19
33
40
38
24
4
-10
-18
-21
-7
12
33
32
34
20
3
-13
-22
-18
-4
22
30
37
29
19
3
-20
-29
-18
-10
15
31
38
36
23
5
-27
-23
-9
-9
20
36
35
31
21
-2
-16
-16
-20
-5
18
34
32
32
23
2
-18
-21
-10
6
22
42
48
29
29
12
-9
-11
-1
5
31
46
42
37
25
7
-6
-10
-12
8
33
50
41
36
23
-5
-26
-28
-10
2
21
28
33
29
13
-10
-15
-21
-8
-4
17
32
33
20
14
-9
-19
-23
-14
1
23
30
37
22
15
-13
-24
-24
-14
4
22
34
37
19
-3
-27
-31
-35
-28
-6
24
49
58
74
64
72
70
96
112
128
139
129
110
95
61
8
-27
-53
-56
-41
-22
2
-2
-7
-23
-37
-41
-29
-17
11
28
30
32
19
4
-19
-23
-16
-1
15
32
45
43
19
-6
-20
-20
-14
0
21
37
41
43
28
10
-18
-10
-8
2
22
38
42
42
38
5
-9
-13
-1
14
28
41
45
38
28
1
-2
-5
-2
9
36
47
49
44
41
8
-1
-6
-4
14
41
47
54
57
47
10
-4
0
13
24
49
64
57
65
44
25
19
18
33
32
60
74
81
70
59
40
35
32
39
53
77
89
87
97
77
52
41
39
54
64
87
103
98
85
72
51
45
40
50
64
82
88
84
74
50
32
11
4
16
42
55
58
53
43
23
2
-10
-9
-6
20
38
37
36
22
1
-8
-11
-26
-1
7
30
40
31
14
-3
-20
-18
-18
-13
13
33
32
28
22
-4
-26
-30
-20
-10
10
36
37
32
17
-11
-21
-24
-20
-9
4
22
28
36
22
-2
-18
-16
-24
-7
12
25
36
18
9
0
-17
-22
-19
-5
19
31
36
33
19
-7
-20
-21
-18
-1
28
34
31
27
16
-3
-18
-19
-13
-3
33
43
40
28
18
-5
-21
-24
-12
12
30
37
40
24
10
-10
-24
-19
-5
0
27
34
39
32
17
-7
-14
-14
-8
10
30
27
41
29
14
-4
-19
-24
-10
8
27
40
45
25
6
-8
-17
-18
-7
5
28
38
34
20
13
-9
-18
-22
0
8
25
37
37
25
5
-12
-18
-20
-4
9
25
37
40
28
2
-7
-17
-11
-3
20
36
50
43
33
11
-7
-13
-8
-1
30
41
47
46
30
12
-7
-16
-3
9
29
36
40
34
31
7
-14
-16
-14
1
17
34
43
33
20
-2
-13
-25
-27
-13
18
34
30
32
26
-6
-21
-23
-13
-6
13
27
36
30
17
-3
-19
-23
-20
-2
16
25
25
19
11
-22
-33
-31
-20
9
43
80
104
109
117
112
109
103
106
95
93
98
95
62
27
-36
-68
-72
-59
-43
-11
6
13
10
-6
-26
-25
-37
-24
1
29
33
34
35
16
2
-11
-18
-8
15
25
39
35
33
23
-7
-12
-14
-3
18
35
45
48
35
15
4
-7
-11
-2
19
35
45
45
35
18
-3
-9
-10
4
28
43
50
52
36
24
0
-5
-3
18
21
40
58
48
42
26
1
-4
-3
13
43
56
62
58
51
23
9
6
17
24
40
69
77
69
61
36
25
13
24
40
65
78
85
74
77
53
34
37
44
47
81
103
97
93
85
48
48
50
53
69
91
99
108
100
75
63
39
34
41
50
77
89
89
70
56
35
8
7
18
33
44
48
54
43
32
6
-7
-5
-3
2
35
46
32
26
22
-5
-19
-28
-15
-1
19
36
35
39
14
-10
-15
-27
-12
3
21
36
24
23
7
-14
-21
-20
-5
10
18
34
27
21
4
-17
-26
-22
-10
8
20
27
25
13
4
-15
-22
-31
-16
1
24
33
35
21
10
-15
-30
-25
-12
9
20
33
38
19
1
-11
-20
-27
-17
5
24
33
34
20
9
-23
-27
-17
-7
15
33
29
33
18
5
-10
-24
-18
-8
15
23
30
39
23
2
-20
-22
-19
-2
12
24
34
31
19
-5
-16
-23
-15
1
18
33
36
27
19
-6
-23
-21
-19
-9
27
37
27
27
18
-12
-22
-27
-14
-3
23
34
31
26
23
-10
-22
-26
-21
-6
22
38
36
27
16
-1
-28
-25
-14
-7
21
41
38
31
18
-18
-25
-18
-13
-3
23
34
42
35
15
-26
-27
-21
-2
6
25
32
32
26
11
-10
-16
-20
-7
6
22
42
38
22
8
-15
-24
-19
-5
11
30
38
44
30
19
-1
-15
-14
6
13
43
39
45
37
19
-1
-7
-9
-4
12
40
49
43
28
12
-18
-17
-13
-3
21
31
37
33
17
0
-18
-27
-19
-7
2
34
30
25
11
-2
-16
-19
-15
-7
19
34
42
29
23
-2
-20
-29
-20
-12
8
32
39
31
18
-4
-26
-28
-25
-12
10
19
27
34
39
34
34
46
63
92
137
157
153
127
87
64
48
14
-1
-24
-31
-13
-14
-6
-18
-38
-53
-49
-42
-20
6
26
29
30
14
-9
-31
-29
-4
5
30
40
43
36
23
-2
-15
-6
-6
4
33
44
48
32
18
1
-10
-13
1
11
40
48
50
38
18
-2
-8
-8
9
22
38
49
50
38
28
6
-3
-1
5
23
44
53
50
42
26
13
-2
1
21
37
41
67
56
60
32
12
10
6
21
44
60
69
73
55
39
26
13
22
33
55
82
87
84
69
51
37
34
38
48
71
90
99
94
85
70
58
49
56
65
80
106
104
105
96
72
56
50
56
64
89
102
103
98
73
59
33
19
37
35
62
82
78
64
48
27
9
5
15
16
46
53
58
53
33
16
1
-7
-3
6
29
48
50
40
25
6
-1
-5
-11
-7
33
43
45
38
18
-3
-9
-9
-4
12
33
33
42
37
16
1
-6
-13
-5
10
34
37
48
33
22
-2
-16
-15
3
10
22
41
41
32
24
-2
-11
-15
-7
13
29
40
48
33
16
-8
-5
-11
-7
14
34
49
39
31
22
1
-13
-13
-1
22
44
43
39
29
17
-3
-20
-9
4
18
41
45
37
33
10
-9
-12
-15
-5
22
42
46
39
26
9
-8
-9
-3
0
28
43
48
48
31
8
-4
-10
-15
0
26
37
45
42
26
7
-9
-14
1
3
30
45
47
36
25
5
-17
-13
-11
5
24
41
44
49
26
-1
-3
-13
-9
3
19
39
52
36
31
-4
-3
-14
-5
15
41
47
48
48
34
10
-5
1
7
12
36
50
44
47
35
9
-13
-10
-5
12
38
47
43
31
29
-6
-13
-17
-6
9
30
33
48
26
20
-1
-16
-16
-5
9
32
40
41
22
8
-7
-16
-16
-7
11
34
38
40
36
13
-13
-22
-16
-14
4
33
30
33
17
0
-22
-32
-8
1
44
76
101
117
118
123
105
88
75
65
76
91
88
60
28
-31
-61
-67
-54
-39
-18
0
10
13
1
-15
-17
-32
-26
-4
17
39
45
42
37
13
-20
-20
-6
2
33
37
52
48
34
13
-6
-11
-5
5
31
46
49
38
35
15
-1
-10
1
9
36
52
58
39
37
18
5
-1
-4
8
36
48
60
53
38
16
5
-3
1
16
45
62
58
51
36
23
11
6
6
19
47
73
69
61
49
27
13
11
22
39
71
65
75
66
50
32
14
27
34
52
71
85
92
87
71
49
40
39
56
68
88
101
105
91
77
57
54
52
65
76
96
106
109
89
71
48
45
38
44
58
70
81
83
68
39
16
9
12
23
25
50
55
54
41
18
3
0
-11
-4
22
28
45
49
33
-1
-11
-14
-8
-10
14
25
40
40
29
2
-9
-24
-19
-4
17
36
37
28
21
-2
-17
-27
-13
-3
19
28
34
34
22
-5
-14
-20
-13
3
15
26
39
37
21
-3
-17
-19
-5
-7
25
38
42
32
21
-3
-17
-16
-13
0
29
39
33
36
19
-11
-9
-13
-8
8
31
39
39
34
21
-6
-14
-8
-9
13
27
40
42
38
28
4
-14
-15
-6
13
28
40
47
32
10
-8
-15
-13
-3
15
38
36
44
32
16
-7
-27
-20
-7
12
26
47
42
35
16
-13
-18
-21
-6
15
29
41
33
25
10
-4
-15
-12
-2
10
34
44
38
22
13
-13
-25
-17
-2
10
37
36
35
27
6
-8
-15
-14
-3
16
37
42
41
26
2
-11
-21
-12
-4
23
33
39
35
24
11
-13
-21
-13
-3
28
36
37
38
35
7
-2
-16
-11
-16
23
40
55
39
33
7
-11
-11
-5
7
26
35
46
39
40
16
-20
-17
-6
5
28
41
51
36
23
-3
-10
-17
-12
-6
21
40
44
29
19
-7
-24
-12
-9
0
23
30
35
24
21
-5
-26
-27
-11
2
29
38
41
29
5
-10
-19
-18
-14
-1
22
33
28
14
8
-15
-22
-18
-9
12
66
92
104
117
119
105
103
98
93
72
86
97
72
38
0
-44
-60
-65
-46
-17
14
17
23
12
-3
-19
-23
-17
-5
16
36
41
45
30
14
-8
-18
-13
-3
20
38
45
44
32
15
-4
-15
-16
2
19
46
42
46
28
9
-2
-8
2
11
25
37
45
54
34
12
3
-11
-6
8
35
50
53
45
36
16
2
-2
1
14
38
52
60
55
34
20
8
5
7
21
43
60
66
58
47
25
10
11
15
32
58
69
81
77
62
38
22
31
32
43
59
80
87
89
81
47
39
37
46
61
88
95
95
94
87
71
53
48
52
61
90
107
110
101
86
61
50
40
44
58
79
87
89
75
68
34
23
22
24
38
52
59
60
50
40
10
2
-5
-2
17
42
46
41
43
26
5
-10
-15
-5
22
35
46
39
23
12
-3
-16
-19
-6
20
34
36
38
31
11
-10
-15
-8
-3
12
42
30
36
27
3
0
-15
-17
-1
22
34
38
42
21
9
-6
-17
-8
-5
13
39
41
42
22
1
-13
-16
-21
1
24
37
46
44
28
6
-8
-18
-14
6
26
43
43
34
28
6
-14
-11
-12
5
28
35
47
42
32
8
-15
-14
-7
10
29
42
45
37
26
3
-2
-3
-8
1
28
42
50
36
25
-2
-15
-14
-8
10
24
42
48
49
33
-3
-20
-20
-10
3
29
44
45
35
23
-5
-15
-18
-11
7
31
41
43
33
16
-7
-14
-13
-1
8
28
47
49
32
18
-3
-13
-17
-8
13
35
41
39
34
14
-3
-11
-4
5
20
31
40
45
38
12
-6
-15
-10
-8
13
43
44
40
20
22
-3
-24
-11
-1
16
35
46
40
32
12
-10
-9
-14
-2
16
38
41
36
25
12
-8
-14
-11
13
22
35
43
38
31
9
-9
-9
-11
6
30
43
50
45
31
10
7
-5
-1
6
30
48
56
61
32
16
-7
-8
-3
9
36
46
52
42
24
9
-1
-14
-5
7
34
42
42
33
23
-1
-12
-15
-11
5
29
40
51
36
25
1
-14
-12
-13
-1
21
34
44
33
20
-4
-16
-16
-8
-1
24
39
39
26
12
-6
-17
-33
-22
-9
21
46
63
72
76
75
79
99
124
133
142
133
97
86
64
20
-10
-33
-49
-39
-13
5
9
0
-10
-30
-32
-21
-26
-3
20
39
40
27
12
-8
-12
-18
-4
18
48
42
47
33
12
-4
-15
-15
-4
23
37
44
51
37
20
-6
-9
-6
6
24
46
50
49
40
18
5
-5
-2
11
22
50
49
49
42
24
11
-3
-3
5
34
51
57
55
44
24
2
-1
3
15
42
58
58
58
49
22
10
10
11
26
44
68
76
67
49
33
19
19
23
46
72
84
77
73
68
55
39
27
41
48
74
92
96
92
90
61
42
34
47
70
85
96
108
96
84
57
49
43
57
71
90
92
84
85
63
41
31
18
25
39
56
69
71
51
40
19
1
0
8
26
38
54
37
32
28
-5
-4
-12
-7
7
32
40
38
24
12
-8
-15
-13
1
14
25
46
40
25
8
-14
-14
-18
-10
9
29
28
34
27
4
-11
-11
-14
-2
14
33
43
38
18
4
-15
-17
-11
-10
9
31
40
34
21
8
-10
-21
-17
-11
17
36
44
34
25
5
-14
-27
-20
-8
14
41
45
34
20
10
-14
-23
-19
-1
22
38
43
36
21
1
-14
-12
-14
-6
23
38
41
31
26
1
-15
-18
-15
0
22
35
45
33
20
-4
-20
-21
-19
-10
19
38
37
29
17
-8
-19
-20
-15
-4
25
34
29
20
15
-7
-18
-24
-16
-5
21
37
35
29
17
-5
-25
-19
-16
8
29
33
31
19
9
-14
-23
-21
-14
9
19
25
38
30
11
-12
-23
-26
-15
6
33
32
22
22
1
-17
-27
-17
-9
1
28
31
43
21
4
-17
-26
-30
-10
8
31
37
32
23
11
-15
-22
-26
-11
10
27
34
27
20
2
-16
-26
-28
-10
11
25
37
32
21
-5
-17
-18
-20
0
16
29
34
29
16
-4
-15
-20
-15
0
15
27
36
37
32
6
-14
-16
-9
8
32
48
46
37
27
9
-8
-21
-14
1
32
43
46
40
29
7
-12
-23
-12
-4
18
36
38
27
20
-11
-27
-33
-18
-1
20
25
36
32
15
-10
-24
-20
-13
0
15
30
42
21
4
-20
-30
-25
-11
-1
20
28
26
20
4
-22
-41
-39
-30
-13
25
44
48
51
66
60
67
86
110
125
135
144
109
87
72
24
-10
-37
-55
-47
-31
-11
-7
-10
-24
-33
-38
-36
-29
-1
19
34
30
22
9
-12
-20
-19
-5
8
28
38
36
31
8
-10
-16
-9
3
20
33
47
37
26
12
-6
-14
-12
2
16
30
44
40
31
15
-2
-10
-10
1
27
39
54
53
29
4
-5
-10
-7
4
25
52
54
50
40
12
-4
0
7
15
39
51
59
54
38
23
0
4
8
24
54
71
67
54
41
17
8
19
27
31
58
67
78
73
66
44
21
32
40
58
71
98
95
84
80
56
45
38
49
68
96
98
99
91
76
54
46
55
54
61
77
94
98
82
64
39
23
23
30
38
62
64
66
46
35
14
4
0
6
22
36
45
48
37
18
-10
-20
-20
-8
13
33
35
38
16
-4
-14
-22
-17
1
6
14
31
42
26
2
-15
-28
-22
-17
3
31
32
27
18
3
-20
-27
-18
-13
19
23
39
31
19
-6
-21
-29
-27
-7
3
28
37
27
27
-6
-18
-20
-16
-13
9
32
32
26
18
-5
-21
-22
-13
-15
7
29
38
29
19
-10
-20
-20
-21
-11
12
29
37
31
20
-11
-27
-25
-14
-5
11
31
35
30
7
-13
-20
-23
-25
-7
15
22
28
26
20
-9
-24
-24
-16
-11
16
33
33
30
14
-5
-28
-32
-8
-2
14
22
30
17
4
-15
-20
-22
-15
-7
14
29
42
29
10
-13
-27
-18
-14
3
30
34
30
16
8
-7
-30
-30
-18
0
25
32
25
20
3
-21
-26
-27
-15
3
20
33
30
20
0
-16
-27
-31
-18
-2
22
29
28
10
-6
-14
-26
-28
-12
8
33
37
32
18
4
-16
-27
-25
-8
4
30
32
24
7
-6
-14
-30
-17
-6
14
25
27
29
17
-4
-26
-29
-18
-12
16
35
38
26
25
-3
-25
-35
-21
-13
7
26
36
33
24
-7
-21
-29
-23
-8
15
37
48
36
18
-1
-13
-13
-12
1
25
33
40
35
28
6
-13
-12
-4
2
34
42
40
32
20
-5
-24
-23
-4
2
26
37
41
21
12
-12
-31
-34
-14
2
23
33
40
27
5
-10
-20
-30
-16
-1
26
30
29
26
8
-15
-24
-29
-14
1
22
33
33
27
-1
-29
-33
-34
-13
-12
15
42
54
57
57
59
66
93
115
139
140
132
113
88
60
30
-15
-33
-53
-44
-21
-11
-7
-11
-14
-45
-44
-38
-22
-7
16
30
31
25
7
-17
-21
-20
-4
14
32
44
40
24
6
-14
-23
-8
1
26
34
35
39
24
5
-4
-17
-8
4
23
30
46
52
35
15
-5
-5
-4
5
29
48
45
34
32
9
-5
-2
-5
9
40
47
48
50
34
11
3
6
2
22
37
50
55
46
40
22
8
0
8
25
51
64
73
58
53
26
13
17
16
27
60
71
85
77
66
34
33
32
40
57
83
93
97
88
81
60
39
39
48
71
85
93
101
95
85
60
42
45
58
72
88
99
100
84
66
44
31
31
37
49
58
72
68
44
37
16
-5
4
5
19
38
51
47
40
18
-9
-19
-16
-3
9
29
36
37
25
12
-14
-22
-26
-11
12
26
33
25
20
6
-11
-33
-21
-11
10
27
35
32
22
-2
-20
-27
-21
-15
11
25
23
31
16
4
-24
-24
-15
-7
9
24
30
33
13
-3
-15
-18
-20
-11
19
30
36
39
22
-2
-18
-22
-25
-12
20
34
37
39
19
1
-18
-19
-18
-6
22
37
36
30
16
-8
-22
-22
-19
-3
22
39
35
24
15
-5
-23
-21
-13
-9
18
30
46
32
10
-10
-22
-22
-16
2
19
26
38
27
21
-18
-28
-26
-22
-4
13
32
40
28
17
-16
-23
-28
-24
3
33
28
29
20
6
-12
-24
-19
-18
0
26
35
36
21
12
-10
-24
-26
-11
6
26
33
27
17
2
-17
-24
-26
-10
15
29
40
36
27
8
-15
-22
-28
-8
8
26
35
34
24
-2
-14
-23
-22
-14
13
28
37
30
21
-3
-18
-14
-16
-12
16
35
35
35
26
-3
-19
-15
-15
-8
23
41
43
35
25
13
-12
-14
-1
3
26
42
43
42
26
5
-7
-12
-4
0
24
42
41
32
24
3
-10
-20
-15
-4
23
33
33
20
24
-5
-19
-21
-14
-7
29
39
33
34
19
-7
-17
-27
-19
-1
33
41
38
22
21
-10
-28
-25
-16
-9
17
22
28
17
7
-23
-15
-9
26
49
89
116
138
149
132
106
78
60
57
68
76
66
32
-6
-40
-59
-68
-64
-43
-34
-13
6
17
13
8
-24
-37
-30
-17
5
26
40
41
34
19
-9
-6
-6
2
14
32
45
45
31
17
-3
-6
-7
-5
25
41
46
47
33
19
1
-10
-9
6
28
45
56
47
33
20
1
-3
0
7
24
53
52
48
40
12
-1
-13
-1
12
41
57
57
49
40
15
7
-1
11
26
49
61
65
56
45
34
22
12
16
25
53
71
73
68
63
41
29
19
33
50
74
88
93
91
79
49
38
35
37
60
91
102
110
103
88
62
52
47
58
69
95
104
103
97
80
53
43
39
46
58
81
83
90
79
62
33
15
3
15
28
49
63
60
44
36
5
-13
-10
2
14
33
44
39
27
21
-5
-10
-26
-12
14
27
36
25
24
13
-14
-16
-14
-4
4
25
30
35
26
3
-14
-25
-23
-13
9
32
37
35
18
1
-14
-11
-23
-10
9
26
35
39
21
5
-17
-24
-11
0
18
32
40
26
20
1
-13
-20
-14
3
18
39
43
35
27
3
-15
-18
-11
0
28
35
40
35
21
5
-15
-25
-21
-10
19
39
48
34
16
-3
-15
-14
-12
-4
19
37
39
33
19
-3
-16
-16
-15
-4
18
33
41
25
25
4
-12
-21
-7
-2
27
35
35
40
25
-14
-21
-19
-11
2
20
31
38
32
28
1
-13
-23
-17
-2
25
41
37
31
22
-9
-18
-10
-14
4
34
46
40
23
21
-6
-17
-14
-5
9
39
45
40
34
22
4
-13
-7
-2
20
40
49
44
31
11
-16
-17
-9
-9
5
30
43
39
18
7
-12
-25
-24
-14
1
31
32
29
18
3
-20
-20
-30
-12
4
25
30
26
13
-1
-14
-26
-24
-19
7
25
35
26
13
0
-19
-37
-31
-19
5
14
15
14
26
26
22
23
44
71
125
140
146
128
91
50
36
26
11
-4
-7
-16
-18
-18
-26
-48
-58
-63
-56
-40
-3
13
20
14
10
-13
-20
-28
-18
-7
16
33
39
27
21
-3
-21
-22
-11
0
27
37
40
33
21
3
-10
-13
-4
4
25
41
47
42
23
1
-19
-18
-6
11
36
48
48
37
32
-1
-13
-12
1
13
36
51
53
41
26
4
-7
-6
3
23
40
48
51
41
32
8
2
1
12
27
50
61
68
60
40
16
7
10
21
47
72
78
81
66
45
31
26
35
44
65
86
95
88
84
60
50
42
40
54
77
96
106
95
82
65
49
44
52
63
86
83
91
91
78
56
37
27
28
35
56
66
68
66
46
26
2
-15
0
12
28
44
46
39
23
-3
-17
-26
-11
-8
14
30
37
30
21
-1
-19
-30
-19
-16
5
22
27
26
11
-11
-23
-26
-22
-8
17
26
22
14
12
-13
-33
-32
-19
-14
15
25
23
23
20
-5
-29
-28
-16
-17
7
33
32
27
20
-8
-24
-32
-20
3
32
43
35
19
6
-14
-23
-22
-13
-3
26
36
38
30
22
-20
-19
-19
-20
1
26
36
36
23
11
-14
-21
-26
-19
7
31
37
32
21
8
-13
-26
-24
-13
-2
22
37
27
10
0
-16
-22
-19
-9
6
20
31
28
17
8
-10
-28
-20
-14
1
17
23
26
17
-8
-18
-24
-26
-17
7
26
31
30
15
-12
-17
-25
-16
-13
8
28
34
29
19
-6
-21
-21
-17
-7
17
31
32
30
23
3
-18
-18
-13
-1
24
33
36
35
22
1
-8
-21
-11
-3
28
42
41
27
17
-5
-20
-23
-20
-12
15
24
29
27
15
-21
-16
-27
-22
-5
13
23
35
28
7
-24
-27
-35
-30
-4
15
26
26
11
14
-14
-24
-26
-20
-6
13
21
23
17
9
-25
-45
-44
-27
-18
5
27
38
52
52
48
60
75
102
124
147
141
113
83
64
29
-7
-39
-64
-55
-26
-14
-5
-14
-28
-42
-48
-42
-31
-5
17
27
23
12
4
-20
-25
-22
-2
1
20
28
25
19
-4
-17
-18
-19
-10
11
32
32
32
18
3
-13
-21
-22
-8
14
43
46
35
17
-1
-12
-22
-14
1
17
34
46
39
27
3
-12
-17
-4
8
30
35
48
48
25
6
-10
-15
0
7
33
48
49
49
41
13
-4
-3
3
13
45
58
63
57
42
23
8
7
17
30
50
71
72
68
60
36
26
21
30
51
74
78
97
89
73
52
37
31
49
56
79
93
99
98
85
53
46
38
43
54
80
89
81
83
68
35
20
14
25
35
54
61
61
50
34
4
-10
-9
-1
3
28
42
43
27
10
-16
-22
-26
-9
4
12
28
37
14
4
-17
-30
-26
-19
-2
16
22
23
12
-12
-23
-27
-25
-14
0
21
26
27
19
-4
-23
-28
-35
-22
0
15
25
20
15
-6
-22
-26
-28
-20
6
20
26
22
14
-3
-18
-33
-22
-13
8
24
28
26
18
-7
-23
-25
-17
-8
9
24
27
26
16
-8
-26
-24
-18
-9
14
29
36
23
16
-3
-25
-27
-22
-10
15
26
31
28
15
-10
-28
-30
-20
-9
18
26
26
20
9
-8
-16
-23
-20
-10
14
30
33
18
7
-14
-26
-29
-21
-9
14
22
30
20
8
-16
-27
-29
-18
-6
18
29
27
21
7
-13
-25
-33
-22
-4
19
27
30
25
10
-17
-24
-27
-18
-1
20
33
32
21
11
-15
-23
-23
-10
4
23
29
39
28
9
-11
-19
-20
-6
11
39
44
37
24
8
-12
-13
-17
-16
3
22
30
28
17
1
-20
-22
-23
-17
-2
19
29
28
19
-2
-23
-31
-30
-17
4
23
31
27
18
-1
-20
-32
-36
-21
3
17
29
23
9
-9
-28
-30
-26
-16
-1
15
16
11
-4
-29
-43
-43
-23
-3
37
74
100
108
116
109
98
89
83
69
82
91
82
48
7
-48
-73
-77
-68
-48
-19
-5
-2
-2
-6
-31
-40
-41
-20
-14
15
30
29
20
12
-7
-21
-25
-21
-7
14
33
36
27
20
-9
-24
-27
-18
-2
25
34
36
29
16
-7
-15
-19
-16
-1
23
40
39
25
16
-8
-19
-25
-14
7
35
44
43
31
10
-8
-9
-5
4
18
36
48
51
40
26
5
-3
-1
1
17
37
49
51
40
26
9
-8
-12
3
36
53
67
62
49
26
16
15
22
29
47
72
79
76
68
47
29
31
26
37
67
92
98
95
83
55
30
26
31
58
97
103
92
80
77
60
42
32
37
44
58
70
73
70
57
38
19
7
4
15
36
51
49
44
37
7
-22
-25
-18
-3
18
40
38
39
23
-2
-16
-21
-19
0
20
37
37
25
6
-21
-29
-28
-19
-2
15
23
18
24
11
-5
-15
-28
-23
-13
6
25
21
21
14
-9
-20
-29
-27
-10
21
34
41
31
17
-9
-20
-19
-11
-7
23
32
32
22
15
-5
-28
-35
-19
-2
30
34
31
14
5
-9
-20
-26
-19
-3
29
41
40
31
19
-5
-20
-16
-12
8
41
68
47
23
-9
-16
-20
-18
-1
23
44
43
43
24
-5
-18
-29
-24
-10
15
32
23
17
17
16
5
-6
-8
-8
5
28
26
28
31
3
-17
-30
-18
6
25
41
53
41
21
5
-6
-8
0
11
18
28
48
42
31
13
-4
-17
-7
6
35
39
44
32
30
7
-3
-9
-7
-6
17
23
24
38
32
9
-9
-14
-7
5
34
51
46
39
21
-6
-4
-14
-10
9
41
40
44
43
31
5
-11
-15
1
17
39
55
48
32
19
-3
-7
5
16
12
27
32
34
41
52
17
-2
-8
0
8
45
71
72
53
26
-2
-16
-9
11
28
46
57
63
61
39
7
15
-3
6
12
50
67
66
51
30
6
-6
-4
13
34
53
56
57
49
33
8
0
-10
-3
26
51
54
54
36
20
-2
-15
-11
-4
15
33
33
34
43
25
11
0
1
4
20
42
48
49
39
9
-4
-14
-12
-3
18
34
41
45
50
38
32
41
56
84
123
153
172
178
153
105
81
58
45
19
24
20
-4
-5
-3
-23
-35
-30
-17
-4
20
43
58
45
43
10
-1
5
6
28
56
61
63
54
31
-1
-8
-2
10
19
46
56
60
53
30
16
-7
0
19
34
50
57
66
55
49
36
29
10
14
22
46
70
70
66
46
18
11
11
16
24
58
76
74
68
58
33
22
30
27
36
51
73
78
64
54
25
21
17
35
46
73
83
79
77
53
35
33
38
45
56
85
105
113
93
78
52
38
45
64
82
98
100
111
109
89
79
62
62
72
89
113
126
121
109
89
67
57
60
75
102
130
132
121
101
74
50
50
54
61
78
105
110
100
69
39
19
25
41
50
71
82
77
71
58
43
29
20
17
22
48
63
76
69
53
36
12
-2
-2
13
42
51
60
72
63
49
20
9
5
17
49
57
63
52
38
16
10
12
19
24
54
62
66
60
46
28
20
12
18
34
58
56
58
56
38
16
1
3
23
28
62
76
78
57
37
11
3
-5
12
24
52
77
61
44
42
17
9
18
26
30
47
59
51
58
51
30
10
12
21
33
67
73
67
50
31
16
8
11
22
37
61
72
67
58
44
20
8
18
26
43
75
77
79
54
39
5
4
1
11
34
50
70
73
53
31
9
9
21
23
43
67
75
55
48
28
26
21
17
18
33
53
74
76
64
29
15
8
13
22
48
67
71
72
53
28
25
21
12
14
28
43
50
51
46
20
11
7
27
37
53
65
61
54
46
28
4
11
21
40
60
66
61
63
33
19
4
13
19
24
45
56
72
56
42
23
18
16
19
29
52
66
73
63
47
22
7
9
19
37
63
69
65
65
44
12
6
3
17
36
46
58
67
58
52
19
18
24
31
38
64
77
81
70
48
18
7
16
17
37
71
87
92
61
44
14
-3
4
19
41
75
73
66
55
22
-6
-8
16
27
33
48
58
56
48
35
12
10
9
14
29
50
68
54
46
34
17
3
10
26
36
39
45
38
25
19
8
4
2
21
45
65
86
103
107
96
105
122
126
118
123
125
111
113
83
28
-15
-53
-48
-30
12
32
29
26
14
-2
-14
-27
-11
0
33
58
56
43
42
25
11
7
23
36
60
60
59
48
39
20
8
3
12
21
44
53
53
59
61
38
22
17
3
17
52
75
80
65
51
30
22
19
35
49
71
63
59
52
40
25
33
31
36
38
52
58
73
65
50
39
28
34
34
45
77
78
81
69
42
19
27
42
53
70
80
76
79
72
54
47
48
62
74
78
90
91
101
101
77
56
45
42
57
70
100
125
129
102
83
72
68
71
71
95
101
111
103
99
84
66
62
53
63
88
108
119
103
89
80
55
48
45
36
46
63
65
74
70
48
32
16
14
22
54
57
49
45
39
24
14
16
24
26
53
67
67
55
33
22
0
-7
-5
2
31
49
55
54
46
14
5
5
-1
16
36
50
53
48
39
19
5
1
10
11
47
44
49
46
47
34
13
-7
-5
8
38
48
57
51
36
5
-4
-6
11
18
42
62
71
58
40
13
1
0
4
15
59
68
61
47
32
12
-1
5
27
35
47
54
46
37
30
23
1
10
16
34
61
66
62
42
21
-2
-8
8
22
29
46
48
47
47
37
18
9
5
2
35
56
57
48
46
35
8
-12
-17
1
22
40
48
45
33
27
23
8
9
11
28
39
53
53
44
27
7
0
-6
-1
18
38
58
53
44
29
2
-2
-5
19
41
59
60
51
36
21
4
5
3
14
38
46
56
53
51
31
22
13
17
23
44
56
66
53
41
12
12
14
9
22
51
59
56
53
46
15
2
1
3
17
47
62
59
49
38
8
-4
-5
2
20
44
55
60
50
38
13
-3
-3
10
25
44
56
57
44
29
15
0
-4
3
20
40
48
47
36
28
5
-7
2
23
53
88
113
129
129
127
107
85
79
63
71
92
100
74
33
-2
-26
-29
-23
-17
-1
18
28
33
28
12
-3
-8
-1
12
35
56
60
60
49
37
23
12
9
21
46
67
67
65
55
31
16
12
19
34
47
68
72
73
60
30
22
15
18
29
54
74
83
75
61
41
22
15
24
40
64
76
83
75
64
38
25
20
26
38
63
80
88
76
70
53
30
29
37
42
69
84
89
83
72
46
35
30
42
51
78
96
90
87
83
59
50
43
50
65
93
105
106
97
87
67
60
53
64
83
108
120
120
115
97
69
62
63
73
88
110
125
124
113
98
71
60
52
64
75
97
103
101
84
69
44
30
31
35
50
76
80
79
59
47
22
10
10
23
39
61
64
70
50
34
15
9
11
21
33
55
62
63
52
31
10
0
7
16
37
55
61
59
47
30
7
1
2
15
36
52
62
60
49
28
11
0
3
12
38
55
59
57
48
27
7
-2
3
15
45
57
63
60
45
22
1
5
12
25
46
63
73
66
44
23
15
6
13
19
49
63
65
62
49
25
7
2
13
23
48
62
65
60
49
26
17
3
12
26
53
65
67
56
48
23
7
4
14
19
49
62
62
52
44
17
5
2
12
23
54
66
65
55
41
20
5
2
12
31
56
60
62
51
42
16
5
4
15
34
55
67
61
44
38
14
6
6
17
32
57
64
63
48
36
14
8
7
14
31
55
62
62
50
34
12
4
2
16
37
62
67
70
54
39
15
10
12
25
45
66
69
67
57
29
12
12
13
24
47
62
66
61
47
27
7
3
5
18
40
56
58
52
42
22
6
-2
1
15
40
51
55
49
42
20
1
-5
5
13
36
51
52
42
37
11
-3
-11
0
16
38
52
58
49
33
2
-11
-14
-8
4
28
47
65
64
68
57
65
74
106
120
144
145
128
106
88
57
20
0
-16
-22
6
15
25
13
5
-17
-24
-30
-17
0
31
48
47
37
29
4
-5
-9
4
19
37
50
56
50
31
14
5
-3
6
18
47
53
58
45
33
11
-3
0
12
27
39
59
54
43
30
12
3
-2
15
33
52
60
62
44
33
14
6
1
22
42
58
65
63
51
37
18
9
14
24
40
63
71
67
59
41
26
15
19
20
48
62
70
73
58
42
20
20
23
40
67
82
82
84
66
51
34
33
37
50
74
89
96
91
85
63
49
45
44
59
83
96
105
102
83
66
52
32
41
56
85
94
92
90
67
41
32
24
26
39
54
63
68
61
46
17
-1
-3
6
19
42
47
54
48
29
1
-10
-12
-4
8
28
44
42
37
25
0
-13
-14
-4
7
30
44
36
26
16
0
-29
-30
-16
9
36
48
43
33
13
-10
-28
-28
-16
-2
27
48
46
34
11
-7
-26
-19
-4
8
30
32
37
26
4
-18
-31
-37
-15
7
38
45
42
25
5
-19
-26
-17
-10
11
29
41
36
16
0
-16
-23
-22
-19
10
25
30
42
25
-3
-17
-30
-25
-19
12
33
30
24
16
0
-11
-31
-30
-8
8
27
30
28
13
-2
-22
-24
-23
-24
4
30
38
28
12
-14
-30
-33
-25
-11
11
31
39
11
-1
-22
-29
-30
-24
-9
13
23
30
19
5
-11
-31
-35
-25
-23
13
15
16
9
3
-17
-28
-33
-30
-18
6
18
28
15
10
-26
-38
-39
-25
-16
9
17
18
15
5
-21
-35
-44
-32
-13
10
19
24
15
4
-24
-38
-36
-40
-24
1
22
12
5
1
-24
-38
-33
-21
-11
12
18
23
11
-4
-21
-31
-36
-21
-8
10
31
27
8
-9
-27
-33
-27
-10
-3
12
16
24
7
-9
-31
-40
-36
-27
-3
18
29
21
5
-18
-34
-34
-37
-33
-21
9
19
11
4
-27
-40
-41
-36
-31
-3
13
19
9
-4
-31
-39
-46
-38
-26
-11
7
13
7
-12
-36
-49
-55
-52
-36
-10
11
29
43
51
46
47
55
79
100
109
101
88
70
51
16
-21
-38
-60
-58
-31
-11
-9
-9
-19
-38
-54
-53
-38
-22
-7
12
23
8
-3
-24
-37
-37
-27
-14
6
21
25
17
-2
-25
-36
-39
-29
-14
12
24
26
16
-3
-25
-34
-33
-26
-13
12
21
26
16
4
-22
-37
-33
-23
-12
18
22
25
26
3
-19
-30
-32
-23
-4
26
38
35
22
10
-17
-26
-24
-14
9
27
37
35
31
14
-9
-18
-14
-2
16
32
44
46
37
19
2
-3
-5
14
29
52
57
56
47
32
19
3
10
25
52
65
77
69
61
40
24
20
26
36
59
77
84
80
69
45
32
22
25
38
56
70
75
68
53
28
10
6
5
14
29
45
47
46
30
1
-15
-18
-12
-3
20
29
42
30
9
-10
-24
-30
-27
-14
10
23
27
22
5
-21
-30
-31
-28
-17
9
18
26
18
6
-15
-30
-36
-20
-8
15
24
25
20
3
-21
-33
-33
-22
-4
14
22
25
13
2
-25
-33
-35
-23
-8
12
22
25
18
1
-19
-28
-27
-22
-9
18
26
28
19
6
-13
-34
-29
-18
-6
18
24
26
16
-2
-20
-27
-31
-22
-3
22
29
25
13
-6
-22
-30
-32
-22
1
23
27
29
14
-2
-26
-32
-25
-15
6
22
18
24
12
-10
-27
-32
-31
-22
-2
16
23
23
12
-6
-29
-31
-31
-20
6
19
23
19
10
-11
-26
-30
-24
-20
1
18
24
20
8
-16
-28
-30
-30
-15
4
22
22
18
7
-14
-29
-39
-30
-18
6
24
22
21
5
-19
-29
-38
-33
-20
6
20
25
18
5
-18
-23
-36
-31
-15
7
18
28
17
3
-15
-36
-36
-24
-21
8
20
23
11
0
-20
-31
-31
-23
-10
9
24
23
13
-4
-22
-33
-40
-28
-14
12
23
20
8
-1
-22
-35
-34
-24
-8
10
23
24
10
-2
-29
-34
-32
-19
-11
11
22
24
13
-1
-26
-32
-31
-17
-3
19
28
26
10
-2
-25
-33
-27
-15
4
23
26
29
22
5
-21
-27
-25
-13
7
26
39
33
20
1
-19
-30
-23
-10
12
25
28
26
9
-11
-25
-30
-30
-19
2
17
26
21
9
-12
-30
-36
-34
-21
0
12
23
16
8
-16
-33
-39
-31
-22
1
14
21
13
2
-20
-33
-39
-36
-26
0
6
11
5
-4
-23
-25
-18
6
36
80
110
132
136
127
97
72
40
36
36
38
35
18
-15
-31
-52
-61
-59
-52
-33
-7
8
12
7
-8
-22
-36
-35
-28
-12
11
28
29
19
3
-24
-33
-33
-22
-8
18
30
27
17
6
-17
-30
-30
-15
-8
22
34
35
24
10
-18
-31
-25
-14
3
22
36
34
22
8
-16
-24
-22
-9
14
33
40
36
26
8
-10
-17
-14
-4
11
31
39
38
22
10
-9
-16
-13
1
20
35
43
45
36
17
1
-6
-4
9
31
48
54
54
45
27
7
2
3
18
43
60
67
66
56
33
18
15
21
30
55
74
80
78
68
46
25
20
24
40
65
80
81
74
59
42
26
18
17
27
49
59
66
60
46
15
-6
-11
-2
4
27
37
44
34
20
-5
-24
-28
-21
-9
17
27
29
19
8
-12
-30
-35
-25
-15
8
22
24
14
7
-18
-31
-33
-23
-12
7
17
17
10
0
-20
-34
-35
-24
-12
12
25
23
12
-1
-23
-33
-33
-22
-4
17
26
28
14
-1
-31
-39
-34
-21
-2
19
25
24
12
-5
-21
-32
-33
-23
-3
20
27
28
17
-7
-24
-30
-30
-20
0
20
25
19
12
-4
-22
-28
-26
-19
-1
18
23
24
10
-9
-25
-30
-23
-13
6
16
27
22
11
-13
-32
-35
-31
-17
7
22
28
24
9
-11
-30
-32
-32
-14
5
27
24
20
9
-16
-34
-35
-28
-12
9
22
27
23
12
-12
-29
-29
-27
-14
1
24
27
14
10
-16
-26
-27
-23
-15
8
26
22
15
7
-11
-33
-37
-29
-16
8
24
27
20
7
-20
-29
-29
-25
-14
12
23
25
15
6
-20
-31
-34
-24
-12
16
26
27
20
3
-20
-31
-34
-19
-9
18
24
27
18
8
-20
-33
-28
-18
-2
19
30
32
24
8
-11
-23
-20
-12
2
26
34
34
17
2
-18
-23
-20
-7
2
25
35
32
21
-2
-17
-29
-30
-17
1
18
22
20
13
-2
-27
-36
-30
-18
0
15
22
25
10
-7
-29
-35
-30
-21
3
17
20
16
9
-11
-21
-39
-33
-18
3
14
14
9
-7
-24
-35
-37
-23
5
47
67
90
109
116
92
74
55
41
35
56
61
50
21
-16
-52
-66
-72
-63
-49
-24
-11
-3
-9
-10
-32
-40
-45
-30
-18
9
25
21
16
7
-18
-27
-34
-25
-15
10
24
28
24
13
-13
-25
-31
-18
-7
14
31
29
17
8
-14
-27
-26
-16
-2
25
35
36
28
7
-14
-21
-19
-11
4
23
32
34
26
14
-9
-16
-17
-6
9
29
38
40
31
13
-1
-15
-15
-2
22
36
43
47
34
20
-3
-11
-9
12
24
40
57
58
42
30
13
7
7
17
39
59
66
69
55
44
24
17
19
32
50
73
80
76
68
49
34
25
29
39
58
69
81
78
62
43
28
21
22
31
52
60
66
59
44
21
0
-2
-3
7
27
39
44
35
21
4
-16
-25
-20
-8
12
24
28
26
10
-15
-30
-25
-24
-20
7
21
27
17
7
-16
-28
-36
-31
-15
9
18
25
19
2
-26
-33
-34
-28
-17
11
23
21
17
6
-22
-33
-34
-30
-13
10
22
22
11
1
-20
-33
-35
-21
-10
9
24
30
19
2
-22
-35
-34
-19
-6
14
25
29
19
1
-20
-28
-31
-26
-10
15
29
31
15
-4
-24
-30
-30
-21
-1
21
29
27
16
-3
-25
-33
-33
-18
-4
18
29
24
14
-2
-25
-32
-29
-20
0
14
24
23
16
-2
-27
-30
-31
-17
0
19
27
21
14
-9
-27
-32
-28
-18
1
13
27
26
12
-6
-28
-35
-28
-14
4
25
32
29
15
-9
-21
-29
-21
-14
11
29
34
29
19
-3
-20
-27
-15
-5
14
30
28
22
6
-15
-30
-29
-29
-11
10
20
25
17
5
-16
-27
-38
-31
-20
3
19
23
14
0
-21
-35
-37
-30
-20
9
20
21
12
4
-25
-38
-39
-32
-19
7
21
20
7
-4
-32
-43
-43
-38
-22
11
29
46
50
45
35
43
58
72
82
90
69
66
52
28
-13
-44
-68
-64
-46
-22
-10
-8
-26
-38
-58
-65
-57
-40
-22
4
13
15
8
-6
-30
-35
-36
-20
-7
16
26
24
16
-2
-23
-35
-34
-19
4
21
32
27
13
-3
-25
-30
-28
-13
6
25
33
27
18
-3
-20
-23
-22
-11
9
24
34
28
21
-2
-20
-23
-21
-4
20
36
41
31
22
1
-13
-19
-15
-6
23
41
45
40
31
8
-6
-13
-3
10
32
50
55
48
40
17
4
0
7
23
44
59
65
62
49
28
17
16
19
30
62
72
75
72
59
36
20
27
34
45
66
80
81
74
66
37
22
22
31
36
61
68
69
57
40
15
0
-7
2
15
36
42
39
27
11
-14
-28
-25
-15
1
18
25
25
13
1
-23
-36
-36
-22
-9
14
24
19
4
-8
-32
-40
-37
-29
-12
8
20
19
2
-13
-32
-38
-37
-32
-8
8
20
14
11
-11
-34
-37
-33
-24
-6
10
19
17
2
-10
-32
-39
-37
-21
-1
12
19
17
0
-13
-26
-37
-34
-21
0
15
22
22
13
-7
-23
-34
-29
-16
5
20
25
21
7
-16
-32
-37
-31
-14
8
21
24
18
8
-14
-35
-34
-33
-19
5
14
21
16
8
-11
-29
-33
-32
-21
6
17
26
16
6
-17
-31
-39
-30
-19
8
18
29
21
4
-19
-34
-34
-26
-11
12
23
29
18
12
-15
-26
-28
-23
-9
19
28
29
21
3
-17
-24
-25
-11
-2
22
28
31
25
8
-19
-29
-28
-16
-4
15
29
27
13
1
-23
-33
-38
-25
-8
12
20
25
14
-2
-25
-36
-33
-24
-5
16
21
17
10
-10
-30
-38
-38
-26
-7
11
20
14
5
-14
-33
-38
-39
-34
-13
1
13
5
-9
-21
-29
-23
-8
21
52
87
111
118
108
78
50
29
24
31
33
28
10
-20
-30
-47
-60
-66
-62
-53
-29
-13
-1
2
-5
-24
-40
-42
-33
-21
3
17
21
18
5
-16
-30
-34
-28
-15
6
21
28
17
4
-14
-31
-36
-25
-15
9
25
28
24
13
-11
-22
-21
-17
-8
12
25
30
26
12
-11
-24
-30
-19
-4
16
30
35
25
15
-10
-21
-21
-10
1
25
36
36
28
15
-8
-19
-11
-4
9
33
45
42
34
22
3
-7
-5
1
16
43
56
61
43
30
13
3
6
15
28
53
67
67
56
43
23
16
15
27
46
69
76
77
60
43
25
15
19
30
43
66
74
71
54
38
20
6
5
15
33
48
52
47
30
7
-10
-19
-17
-10
15
25
32
26
8
-7
-27
-32
-31
-23
-5
20
20
17
9
-12
-31
-39
-37
-24
-1
16
21
15
5
-23
-39
-39
-27
-22
-8
8
16
13
0
-24
-36
-41
-36
-24
-1
13
21
11
1
-26
-38
-43
-32
-18
7
15
20
14
0
-21
-34
-36
-26
-15
7
17
23
13
1
-23
-40
-39
-29
-9
11
24
19
11
4
-23
-31
-34
-25
-16
8
22
23
11
1
-23
-38
-38
-22
-13
14
19
21
9
-4
-24
-35
-32
-25
-9
12
19
23
14
-4
-26
-38
-37
-23
-6
10
20
22
10
-1
-25
-35
-34
-19
-5
14
24
26
9
-6
-24
-32
-31
-13
-1
16
25
22
17
-6
-19
-29
-25
-13
2
21
28
26
15
-7
-28
-32
-28
-17
1
16
23
16
4
-16
-33
-36
-33
-22
-1
13
20
11
7
-19
-35
-37
-36
-23
-1
12
18
12
1
-19
-33
-40
-31
-26
1
16
19
15
3
-19
-40
-46
-42
-33
-5
8
9
7
2
-14
-13
4
20
45
87
123
128
121
93
50
23
16
20
14
17
0
-9
-20
-32
-55
-69
-66
-54
-36
-11
6
12
9
-1
-29
-36
-36
-29
-15
7
21
19
11
-1
-26
-36
-35
-20
-6
13
27
25
17
2
-23
-32
-32
-21
-4
18
33
29
16
5
-20
-28
-25
-11
2
20
30
34
22
5
-18
-26
-23
-12
5
20
31
31
20
1
-16
-20
-18
-8
9
32
46
40
21
9
-10
-17
-12
-1
21
40
43
45
33
16
0
-6
-4
6
30
50
59
57
45
25
9
1
7
21
45
63
69
68
56
34
18
19
21
34
55
73
78
71
61
36
21
18
23
30
55
66
68
64
50
27
7
5
7
12
33
41
45
42
27
-1
-16
-20
-15
-7
16
27
27
16
4
-21
-25
-30
-24
-17
7
18
22
16
3
-23
-34
-38
-30
-15
10
20
18
10
-5
-25
-36
-37
-31
-18
3
14
19
8
-6
-29
-36
-41
-27
-16
10
18
15
9
-4
-29
-37
-37
-28
-11
7
17
20
9
-7
-31
-37
-35
-23
-7
13
19
21
10
-4
-29
-39
-33
-26
-10
15
26
27
7
-12
-28
-36
-33
-24
-6
15
23
24
9
-9
-23
-33
-37
-22
-1
12
22
18
8
-14
-33
-36
-35
-22
1
17
23
20
8
-12
-28
-36
-35
-21
-2
10
20
17
2
-17
-31
-34
-36
-20
4
16
22
18
6
-15
-34
-38
-34
-20
4
18
21
18
11
-16
-32
-32
-25
-17
8
23
28
19
4
-15
-28
-31
-24
-9
14
25
34
25
12
-15
-33
-29
-24
-12
13
22
20
14
0
-20
-35
-38
-29
-17
6
20
24
12
-3
-28
-39
-40
-28
-16
9
21
22
8
-5
-27
-38
-41
-29
-13
7
18
17
6
-5
-24
-34
-39
-28
-15
8
14
11
0
-15
-36
-48
-42
-24
10
44
71
85
89
92
78
73
67
62
56
69
69
50
23
-21
-64
-71
-69
-59
-32
-14
-7
-5
-14
-31
-46
-43
-38
-26
-3
15
21
18
6
-13
-31
-34
-30
-18
1
19
27
24
15
-7
-24
-29
-30
-19
6
26
30
27
15
-7
-24
-28
-20
-12
15
31
33
29
24
-7
-24
-27
-20
-10
17
30
34
29
18
-4
-19
-22
-12
-4
25
35
37
32
21
-2
-18
-22
-7
4
31
44
43
36
25
2
-8
-10
-3
12
38
49
56
45
32
12
1
1
11
26
50
61
66
58
44
22
14
15
24
37
61
73
75
69
55
29
20
18
30
43
67
75
72
63
47
24
11
11
22
37
55
58
52
41
27
3
-12
-13
-5
9
29
35
35
22
5
-17
-28
-27
-17
0
19
26
21
14
-6
-26
-36
-35
-23
-2
16
25
22
10
-11
-27
-35
-28
-21
-5
12
17
19
7
-15
-34
-39
-33
-24
2
17
17
19
0
-19
-33
-38
-29
-20
3
17
20
15
-2
-24
-38
-34
-30
-22
5
19
22
15
8
-24
-35
-40
-28
-17
5
17
24
17
8
-17
-30
-35
-25
-13
11
21
25
17
5
-20
-31
-31
-21
-11
7
18
24
18
6
-20
-32
-34
-22
-16
6
18
26
17
3
-21
-32
-34
-27
-15
12
20
20
12
1
-18
-34
-34
-25
-11
10
21
21
8
-3
-23
-33
-37
-24
-8
14
23
25
16
-2
-25
-31
-32
-24
-10
13
18
20
11
-4
-26
-34
-29
-21
-9
16
24
22
10
-5
-25
-36
-38
-21
-3
14
23
25
7
-8
-20
-28
-30
-15
4
17
26
24
18
-3
-21
-23
-21
-13
8
24
28
24
19
-7
-27
-30
-26
-17
2
17
25
23
9
-16
-34
-41
-35
-23
0
13
15
17
7
-17
-33
-40
-34
-23
-3
16
19
13
4
-20
-33
-34
-35
-21
2
16
19
10
1
-24
-41
-43
-40
-28
-4
10
17
11
10
-8
-8
5
26
56
97
121
131
117
90
35
8
-1
3
-3
-1
-11
-25
-29
-34
-56
-63
-54
-45
-31
-8
7
16
8
-4
-26
-41
-36
-28
-13
13
20
22
9
-3
-21
-36
-33
-20
-5
18
26
23
11
0
-23
-31
-33
-20
-7
19
24
30
14
-4
-22
-30
-30
-25
-4
18
27
27
15
-2
-19
-25
-29
-15
2
22
32
30
21
-2
-22
-26
-26
-14
6
23
31
32
21
3
-12
-20
-15
-6
13
32
38
35
26
4
-10
-15
-11
3
28
41
48
43
32
12
-1
-8
-2
12
39
52
61
58
42
21
9
6
6
20
49
60
65
59
49
25
13
8
12
26
52
58
63
54
42
14
-3
-6
-2
7
34
45
44
33
16
-8
-24
-26
-22
-10
11
24
27
16
1
-20
-35
-39
-29
-19
4
9
11
6
0
-29
-41
-41
-32
-22
3
15
14
8
-7
-34
-41
-41
-35
-16
3
11
13
4
-12
-35
-42
-40
-29
-11
5
17
15
4
-13
-37
-43
-48
-32
-16
8
15
15
2
-17
-35
-42
-36
-30
-13
7
13
14
1
-15
-34
-42
