-290
-300
-301
-296
-284
-289
-289
-299
-302
-287
-293
-307
-290
-292
-317
-313
-308
-273
-290
-292
-281
-283
-295
-300
-306
-297
-302
-301
-304
-306
-305
-293
-284
-261
-248
-249
-223
-213
-212
-217
-237
-254
-236
-245
-263
-305
-321
-316
-336
-348
-356
-365
-330
-357
-345
-357
-358
-339
-310
-322
-312
-312
-328
-302
-292
-302
-305
-312
-311
-315
-308
-304
-310
-306
-308
-295
-301
-302
-305
-302
-303
-300
-297
-301
-310
-296
-318
-324
-300
-297
-294
-303
-303
-299
-294
-303
-307
-308
-314
-303
-300
-295
-303
-279
-281
-301
-288
-297
-294
-291
-288
-295
-296
-281
-275
-274
-262
-292
-286
-256
-268
-267
-257
-278
-270
-263
-266
-274
-265
-263
-250
-260
-260
-260
-262
-260
-265
-258
-267
-286
-272
-244
-258
-274
-277
-276
-276
-273
-284
-285
-287
-289
-306
-295
-302
-301
-309
-315
-310
-302
-310
-321
-329
-324
-317
-324
-320
-313
-316
-323
-328
-325
-310
-318
-329
-332
-348
-317
-301
-341
-300
-324
-323
-317
-324
-318
-322
-324
-330
-331
-332
-325
-337
-330
-330
-331
-332
-329
-330
-334
-334
-334
-333
-331
-335
-344
-334
-333
-338
-340
-338
-344
-330
-314
-339
-336
-327
-336
-329
-330
-327
-336
-344
-343
-349
-347
-334
-336
-342
-342
-338
-338
-349
-342
-342
-335
-348
-344
-341
-357
-357
-345
-340
-343
-330
-332
-344
-344
-334
-348
-359
-343
-341
-350
-347
-355
-356
-347
-335
-348
-345
-343
-362
-352
-342
-349
-343
-356
-358
-356
-349
-345
-363
-377
-342
-349
-342
-339
-351
-344
-345
-339
-341
-346
-358
-350
-348
-351
-354
-368
-342
-337
-320
-325
-340
-337
-337
-334
-333
-344
-320
-334
-336
-324
-332
-330
-332
-347
-355
-360
-345
-348
-354
-363
-379
-360
-375
-357
-350
-356
-361
-364
-362
-376
-350
-358
-365
-368
-389
-376
-364
-399
-370
-356
-367
-361
-368
-368
-363
-370
-373
-374
-387
-381
-375
-363
-337
-320
-307
-297
-289
-284
-300
-306
-318
-323
-346
-354
-388
-383
-386
-419
-429
-433
-459
-433
-422
-422
-424
-420
-406
-408
-404
-406
-393
-391
-389
-389
-391
-388
-378
-387
-381
-388
-381
-388
-383
-378
-375
-384
-393
-389
-393
-389
-367
-374
-383
-385
-383
-383
-380
-382
-379
-386
-396
-384
-368
-377
-386
-367
-371
-363
-377
-371
-372
-394
-373
-362
-356
-361
-363
-357
-360
-357
-371
-379
-364
-357
-349
-344
-346
-351
-349
-360
-348
-330
-334
-334
-337
-331
-325
-324
-346
-336
-335
-326
-321
-321
-323
-327
-322
-315
-327
-322
-319
-327
-322
-330
-325
-331
-324
-333
-342
-345
-340
-345
-340
-349
-347
-342
-358
-346
-363
-396
-394
-364
-363
-371
-365
-366
-367
-379
-381
-379
-373
-364
-380
-378
-380
-393
-388
-388
-388
-401
-398
-371
-387
-402
-387
-387
-388
-382
-390
-401
-393
-403
-394
-402
-395
-415
-430
-375
-395
-392
-370
-376
-394
-390
-388
-393
-402
-402
-398
-401
-401
-397
-398
-400
-417
-414
-393
-401
-406
-408
-408
-394
-389
-390
-389
-408
-415
-387
-403
-410
-415
-416
-414
-403
-423
-430
-376
-388
-399
-397
-402
-409
-414
-383
-404
-405
-395
-395
-395
-399
-392
-398
-403
-415
-401
-389
-400
-391
-380
-393
-391
-381
-394
-391
-379
-383
-378
-383
-381
-378
-383
-399
-395
-408
-412
-412
-401
-400
-395
-423
-425
-426
-412
-417
-438
-425
-416
-414
-416
-422
-425
-423
-432
-428
-428
-404
-392
-424
-423
-426
-428
-415
-428
-418
-416
-418
-428
-441
-437
-430
-414
-391
-373
-361
-360
-337
-327
-333
-335
-345
-360
-365
-378
-399
-439
-457
-459
-476
-480
-487
-492
-494
-483
-467
-472
-482
-461
-465
-449
-444
-441
-443
-438
-428
-436
-427
-442
-453
-451
-449
-437
-426
-449
-446
-412
-417
-425
-439
-428
-434
-426
-422
-432
-425
-421
-422
-426
-434
-440
-437
-435
-432
-424
-423
-417
-426
-423
-431
-427
-422
-424
-421
-430
-405
-415
-412
-418
-390
-386
-391
-403
-405
-405
-401
-398
-391
-400
-387
-390
-387
-389
-385
-363
-374
-393
-387
-383
-374
-367
-370
-362
-364
-375
-373
-366
-371
-373
-382
-366
-372
-382
-378
-377
-382
-373
-380
-390
-400
-391
-395
-380
-395
-393
-405
-409
-415
-398
-422
-425
-407
-419
-425
-421
-420
-427
-420
-428
-419
-432
-433
-423
-427
-435
-431
-429
-458
-427
-422
-427
-432
-438
-437
-437
-439
-437
-442
-438
-442
-439
-440
-451
-436
-435
-435
-439
-435
-430
-437
-450
-436
-441
-438
-434
-439
-433
-434
-452
-470
-453
-424
-439
-449
-452
-434
-437
-436
-444
-444
-440
-435
-447
-446
-450
-444
-452
-441
-442
-448
-440
-447
-441
-441
-444
-440
-454
-456
-439
-415
-432
-428
-447
-447
-434
-434
-447
-443
-433
-444
-431
-434
-426
-421
-434
-427
-443
-432
-440
-455
-461
-460
-446
-444
-442
-418
-443
-446
-435
-453
-448
-452
-454
-447
-444
-454
-462
-458
-458
-455
-463
-447
-440
-455
-457
-458
-457
-447
-469
-448
-434
-449
-456
-457
-444
-448
-443
-451
-457
-458
-449
-457
-459
-457
-442
-455
-439
-431
-411
-396
-391
-379
-377
-389
-393
-393
-405
-426
-430
-461
-485
-487
-500
-503
-510
-484
-489
-491
-501
-504
-513
-504
-493
-491
-476
-472
-475
-492
-478
-448
-460
-471
-469
-453
-462
-448
-450
-464
-453
-445
-450
-455
-457
-463
-461
-453
-459
-444
-460
-449
-460
-458
-446
-434
-448
-449
-438
-449
-454
-450
-446
-442
-452
-438
-456
-457
-431
-451
-458
-434
-436
-450
-417
-424
-424
-421
-424
-429
-430
-421
-419
-415
-412
-416
-424
-413
-407
-393
-420
-425
-408
-408
-414
-408
-404
-398
-411
-411
-420
-421
-414
-410
-399
-402
-401
-398
-401
-412
-419
-421
-414
-397
-411
-410
-424
-419
-415
-422
-425
-423
-434
-434
-441
-432
-421
-446
-451
-464
-440
-451
-442
-448
-451
-446
-446
-448
-454
-447
-451
-456
-473
-449
-451
-455
-454
-444
-456
-452
-441
-451
-435
-444
-440
-463
-460
-447
-442
-450
-442
-452
-449
-447
-454
-456
-441
-450
-462
-457
-457
-455
-456
-450
-452
-454
-449
-440
-435
-451
-445
-460
-463
-448
-455
-459
-461
-457
-465
-472
-454
-448
-433
-445
-436
-446
-447
-443
-434
-427
-442
-453
-466
-453
-431
-442
-457
-435
-445
-445
-435
-425
-428
-433
-428
-443
-436
-424
-436
-443
-447
-440
-442
-468
-467
-462
-435
-444
-443
-452
-453
-458
-454
-460
-466
-463
-463
-467
-466
-454
-462
-459
-457
-461
-460
-469
-448
-446
-477
-458
-457
-463
-464
-464
-454
-454
-457
-463
-463
-463
-453
-461
-451
-426
-415
-406
-396
-398
-398
-412
-421
-410
-424
-426
-444
-475
-491
-496
-502
-508
-507
-499
-507
-500
-515
-522
-512
-493
-496
-495
-483
-467
-463
-466
-475
-474
-450
-451
-468
-473
-469
-472
-473
-447
-462
-464
-455
-458
-458
-466
-463
-480
-463
-460
-458
-454
-456
-464
-450
-459
-459
-461
-471
-447
-445
-461
-451
-465
-446
-457
-460
-464
-444
-441
-432
-437
-452
-450
-437
-446
-437
-426
-433
-429
-421
-441
-438
-426
-412
-422
-424
-418
-420
-422
-424
-415
-411
-412
-406
-405
-405
-411
-410
-409
-401
-396
-413
-422
-417
-409
-412
-422
-424
-409
-427
-427
-414
-408
-417
-428
-432
-417
-428
-432
-437
-428
-441
-438
-455
-459
-449
-459
-455
-439
-445
-452
-455
-468
-469
-451
-459
-464
-468
-484
-461
-474
-465
-446
-457
-464
-462
-463
-456
-457
-476
-477
-458
-467
-475
-470
-474
-473
-459
-461
-470
-470
-462
-470
-464
-472
-476
-464
-463
-470
-453
-459
-468
-466
-471
-476
-479
-460
-458
-453
-473
-481
-480
-475
-468
-469
-481
-475
-478
-469
-472
-471
-475
-467
-478
-477
-464
-463
-464
-461
-466
-471
-472
-472
-469
-478
-477
-474
-475
-460
-459
-465
-463
-464
-462
-458
-452
-445
-452
-459
-464
-458
-454
-465
-469
-464
-451
-460
-458
-470
-464
-484
-479
-478
-473
-482
-470
-470
-490
-481
-473
-468
-486
-480
-492
-494
-481
-478
-489
-494
-481
-483
-496
-482
-476
-492
-491
-484
-479
-474
-484
-476
-484
-490
-492
-488
-504
-489
-478
-453
-431
-422
-411
-425
-411
-424
-424
-435
-439
-463
-467
-470
-495
-517
-515
-533
-529
-538
-538
-533
-527
-525
-542
-525
-523
-477
-510
-520
-497
-487
-488
-489
-484
-484
-498
-496
-498
-493
-486
-501
-483
-485
-486
-484
-477
-493
-490
-496
-476
-470
-494
-489
-482
-486
-484
-469
-475
-482
-506
-487
-461
-471
-470
-474
-470
-475
-479
-487
-473
-473
-487
-464
-453
-453
-482
-466
-470
-465
-457
-465
-467
-452
-456
-449
-445
-454
-449
-449
-460
-434
-420
-429
-433
-427
-435
-425
-419
-432
-426
-421
-427
-438
-440
-434
-437
-437
-429
-428
-427
-420
-427
-443
-450
-440
-448
-454
-452
-462
-467
-457
-446
-455
-461
-461
-470
-473
-476
-485
-490
-470
-467
-454
-489
-493
-469
-489
-485
-474
-482
-479
-490
-497
-488
-497
-491
-495
-499
-490
-498
-496
-477
-467
-478
-485
-483
-481
-485
-491
-507
-501
-472
-485
-486
-484
-489
-502
-502
-473
-485
-495
-480
-498
-506
-486
-491
-493
-491
-492
-483
-482
-491
-508
-513
-480
-478
-482
-497
-504
-487
-488
-495
-507
-493
-480
-493
-505
-502
-501
-495
-492
-504
-499
-491
-484
-491
-488
-489
-496
-496
-489
-495
-503
-498
-497
-524
-513
-502
-510
-486
-477
-484
-496
-494
-490
-490
-485
-491
-500
-494
-500
-486
-500
-507
-510
-463
-467
-473
-486
-484
-475
-467
-473
-481
-476
-502
-493
-497
-482
-463
-476
-475
-486
-496
-494
-499
-500
-497
-513
-520
-491
-502
-511
-511
-497
-488
-516
-509
-514
-505
-511
-504
-502
-503
-507
-513
-508
-514
-526
-505
-504
-503
-496
-508
-503
-516
-539
-510
-509
-496
-498
-473
-448
-442
-434
-429
-426
-433
-421
-427
-446
-480
-488
-508
-521
-540
-540
-548
-555
-555
-562
-560
-560
-556
-531
-551
-557
-526
-522
-515
-519
-512
-505
-516
-536
-537
-519
-512
-504
-503
-519
-505
-517
-506
-505
-515
-493
-496
-503
-510
-519
-503
-502
-504
-506
-512
-506
-496
-513
-505
-497
-494
-513
-512
-522
-489
-504
-486
-507
-514
-482
-488
-493
-485
-498
-498
-472
-486
-486
-483
-495
-483
-480
-491
-482
-475
-479
-464
-456
-449
-452
-454
-464
-462
-467
-458
-447
-455
-453
-441
-461
-465
-454
-441
-448
-443
-455
-439
-453
-455
-457
-454
-437
-440
-452
-458
-491
-472
-459
-454
-466
-470
-462
-478
-479
-486
-480
-483
-494
-496
-505
-498
-500
-504
-495
-493
-494
-503
-496
-500
-503
-503
-508
-517
-517
-507
-518
-498
-500
-522
-522
-491
-491
-500
-507
-511
-513
-510
-524
-497
-498
-517
-509
-509
-499
-505
-499
-505
-505
-495
-515
-516
-506
-506
-512
-515
-511
-534
-545
-502
-496
-502
-510
-521
-510
-507
-503
-509
-514
-499
-517
-525
-496
-537
-495
-504
-509
-499
-500
-522
-525
-530
-522
-501
-520
-521
-514
-519
-523
-511
-520
-522
-517
-521
-524
-513
-511
-499
-494
-511
-529
-540
-529
-496
-513
-533
-520
-521
-517
-518
-516
-509
-513
-522
-519
-517
-508
-509
-503
-508
-507
-503
-526
-515
-524
-489
-491
-514
-490
-494
-494
-508
-494
-491
-492
-496
-491
-505
-516
-495
-499
-511
-493
-504
-517
-511
-524
-527
-532
-528
-523
-522
-512
-519
-511
-521
-528
-525
-525
-527
-535
-538
-541
-533
-516
-512
-525
-528
-524
-528
-522
-528
-540
-532
-526
-526
-546
-541
-527
-534
-521
-499
-462
-459
-452
-437
-431
-441
-449
-460
-470
-481
-505
-523
-554
-567
-578
-567
-571
-578
-591
-595
-588
-578
-584
-582
-567
-568
-548
-540
-542
-546
-549
-527
-526
-538
-529
-537
-537
-545
-538
-535
-532
-531
-535
-541
-543
-545
-536
-535
-546
-529
-523
-525
-531
-525
-526
-529
-540
-533
-519
-508
-522
-526
-520
-540
-526
-517
-526
-520
-515
-518
-535
-509
-521
-538
-507
-503
-507
-500
-499
-509
-507
-501
-489
-503
-501
-488
-486
-475
-485
-485
-477
-480
-483
-472
-471
-491
-482
-471
-464
-461
-460
-464
-468
-476
-458
-465
-466
-473
-476
-479
-496
-485
-465
-468
-471
-478
-476
-476
-477
-480
-489
-486
-502
-509
-508
-506
-506
-521
-520
-527
-521
-522
-538
-517
-526
-519
-541
-534
-526
-540
-544
-524
-535
-533
-520
-510
-520
-524
-541
-526
-526
-531
-530
-539
-530
-537
-536
-532
-536
-535
-530
-524
-522
-542
-544
-539
-523
-531
-532
-541
-545
-528
-537
-525
-536
-556
-551
-527
-542
-542
-524
-536
-548
-532
-537
-532
-528
-532
-530
-533
-541
-541
-538
-529
-530
-535
-536
-535
-551
-557
-540
-539
-534
-541
-532
-520
-535
-558
-547
-541
-537
-548
-547
-526
-553
-537
-529
-540
-539
-549
-530
-520
-536
-534
-536
-540
-535
-532
-539
-531
-543
-536
-526
-530
-545
-546
-533
-535
-526
-534
-523
-508
-522
-511
-498
-517
-516
-519
-525
-525
-522
-507
-516
-529
-531
-532
-548
-548
-535
-531
-529
-535
-533
-544
-549
-547
-542
-548
-539
-540
-550
-554
-544
-548
-545
-546
-553
-549
-520
-555
-565
-550
-549
-561
-551
-537
-527
-529
-505
-497
-485
-465
-458
-457
-462
-473
-472
-487
-499
-520
-531
-577
-592
-586
-587
-594
-607
-612
-602
-600
-600
-596
-596
-575
-562
-556
-560
-560
-554
-544
-559
-544
-543
-563
-555
-551
-540
-535
-538
-551
-564
-545
-548
-555
-563
-547
-541
-547
-545
-543
-543
-539
-543
-528
-535
-556
-555
-536
-515
-533
-541
-533
-535
-536
-543
-537
-529
-532
-518
-520
-517
-538
-528
-523
-519
-515
-529
-519
-509
-515
-505
-500
-502
-522
-495
-491
-488
-491
-505
-489
-482
-489
-485
-489
-484
-484
-474
-466
-472
-486
-477
-486
-479
-489
-470
-471
-482
-482
-474
-470
-477
-489
-519
-504
-487
-491
-491
-494
-506
-505
-505
-516
-511
-513
-518
-513
-531
-531
-524
-534
-513
-521
-535
-532
-526
-536
-541
-528
-535
-539
-527
-529
-527
-545
-537
-533
-534
-552
-543
-524
-519
-535
-536
-535
-532
-525
-531
-537
-532
-532
-541
-542
-528
-528
-527
-528
-534
-534
-539
-539
-535
-525
-527
-529
-534
-545
-541
-537
-520
-539
-532
-522
-538
-544
-528
-517
-531
-542
-530
-533
-540
-535
-528
-537
-528
-529
-536
-528
-543
-549
-531
-530
-532
-542
-541
-530
-540
-537
-522
-536
-530
-516
-520
-540
-519
-535
-531
-504
-530
-537
-534
-534
-535
-524
-516
-521
-521
-512
-513
-512
-527
-516
-513
-516
-509
-517
-521
-518
-522
-513
-516
-512
-527
-533
-536
-533
-522
-531
-525
-533
-529
-533
-540
-527
-546
-542
-533
-532
-532
-531
-533
-536
-540
-540
-535
-542
-527
-529
-527
-550
-561
-520
-520
-539
-540
-539
-532
-528
-517
-524
-514
-487
-484
-461
-457
-460
-465
-470
-476
-485
-498
-541
-522
-535
-561
-577
-565
-570
-574
-587
-590
-585
-579
-571
-567
-559
-554
-551
-555
-552
-537
-530
-513
-530
-541
-536
-531
-535
-543
-540
-535
-527
-530
-534
-528
-523
-527
-554
-528
-524
-534
-537
-513
-523
-519
-515
-518
-536
-527
-521
-530
-526
-518
-519
-519
-522
-520
-518
-508
-507
-508
-514
-524
-506
-502
-501
-515
-505
-513
-506
-501
-498
-498
-502
-490
-486
-496
-492
-480
-474
-480
-476
-479
-496
-481
-463
-482
-467
-460
-468
-472
-469
-464
-477
-481
-466
-468
-454
-466
-469
-482
-473
-474
-481
-458
-465
-471
-486
-500
-501
-518
-525
-487
-482
-496
-493
-493
-500
-521
-513
-522
-522
-530
-502
-517
-516
-506
-512
-525
-516
-524
-505
-506
-523
-521
-519
-531
-527
-522
-523
-527
-531
-534
-533
-517
-529
-528
-530
-530
-525
-538
-536
-524
-503
-502
-528
-539
-532
-517
-513
-513
-517
-519
-512
-513
-514
-522
-523
-515
-516
-527
-520
-523
-513
-519
-530
-526
-519
-525
-528
-526
-523
-534
-520
-522
-521
-524
-534
-529
-525
-517
-516
-516
-514
-534
-524
-532
-504
-508
-530
-521
-520
-519
-505
-512
-511
-515
-513
-508
-513
-510
-513
-500
-502
-506
-511
-512
-506
-508
-502
-500
-511
-529
-518
-524
-520
-515
-510
-518
-515
-518
-528
-533
-529
-526
-517
-527
-524
-522
-543
-543
-537
-521
-524
-527
-527
-538
-531
-530
-521
-522
-527
-524
-523
-517
-530
-538
-533
-538
-558
-552
-525
-522
-529
-514
-502
-481
-476
-465
-452
-461
-479
-497
-474
-474
-511
-530
-533
-559
-565
-562
-567
-569
-580
-589
-580
-604
-578
-563
-562
-552
-552
-553
-547
-534
-528
-533
-542
-530
-536
-535
-527
-534
-528
-532
-534
-531
-532
-526
-521
-524
-529
-528
-530
-531
-520
-514
-518
-516
-509
-528
-519
-529
-521
-518
-515
-513
-526
-512
-503
-506
-526
-530
-507
-503
-518
-508
-499
-515
-501
-499
-502
-500
-491
-495
-515
-490
-489
-489
-487
-480
-479
-484
-478
-473
-474
-474
-470
-472
-463
-474
-471
-476
-471
-461
-465
-471
-466
-454
-459
-464
-467
-462
-477
-468
-468
-479
-467
-485
-466
-458
-464
-476
-480
-511
-490
-483
-486
-498
-495
-493
-507
-508
-499
-504
-512
-499
-518
-507
-498
-510
-505
-520
-532
-519
-525
-517
-523
-516
-513
-506
-517
-515
-506
-521
-518
-516
-532
-530
-526
-501
-505
-522
-512
-514
-519
-520
-517
-516
-509
-505
-515
-517
-519
-517
-520
-520
-515
-514
-506
-511
-519
-527
-515
-511
-528
-532
-511
-515
-536
-522
-523
-517
-517
-526
-506
-503
-521
-521
-516
-508
-513
-507
-521
-511
-541
-542
-521
-523
-503
-512
-525
-525
-518
-518
-515
-512
-519
-515
-519
-524
-523
-514
-525
-519
-511
-509
-524
-527
-531
-522
-510
-505
-510
-502
-519
-519
-517
-521
-517
-524
-519
-504
-494
-498
-498
-497
-494
-510
-497
-500
-488
-502
-498
-502
-517
-501
-505
-508
-513
-512
-524
-516
-489
-511
-514
-511
-509
-520
-532
-529
-509
-501
-509
-531
-521
-525
-526
-511
-518
-527
-515
-510
-511
-519
-522
-516
-530
-518
-516
-516
-522
-540
-511
-523
-528
-515
-517
-510
-480
-475
-450
-452
-451
-444
-447
-453
-468
-467
-481
-503
-513
-529
-553
-549
-562
-561
-579
-563
-561
-576
-573
-557
-543
-538
-546
-531
-527
-531
-512
-517
-524
-524
-510
-526
-515
-505
-511
-508
-516
-530
-515
-510
-521
-515
-516
-504
-514
-511
-493
-499
-506
-502
-507
-508
-500
-506
-516
-508
-511
-509
-502
-509
-505
-499
-493
-497
-499
-512
-496
-495
-487
-472
-481
-499
-484
-484
-476
-476
-484
-479
-470
-463
-470
-472
-464
-455
-461
-451
-469
-453
-451
-468
-431
-445
-446
-448
-458
-437
-433
-447
-447
-452
-449
-438
-422
-432
-440
-453
-439
-435
-438
-438
-443
-452
-454
-458
-452
-454
-474
-465
-466
-466
-463
-476
-473
-464
-496
-491
-467
-476
-486
-487
-484
-486
-491
-485
-475
-493
-486
-482
-486
-486
-493
-494
-495
-497
-506
-488
-491
-486
-478
-486
-502
-490
-493
-481
-478
-488
-488
-482
-509
-509
-497
-491
-494
-471
-473
-490
-482
-478
-486
-483
-479
-485
-493
-494
-482
-481
-487
-490
-487
-495
-487
-497
-483
-477
-478
-472
-478
-483
-487
-488
-507
-491
-512
-510
-490
-491
-486
-489
-483
-469
-482
-483
-468
-487
-508
-490
-484
-476
-480
-494
-481
-480
-491
-485
-481
-486
-483
-491
-487
-476
-484
-485
-496
-496
-483
-492
-481
-487
-491
-477
-479
-483
-490
-477
-462
-468
-470
-469
-480
-474
-483
-478
-471
-445
-453
-471
-469
-463
-471
-470
-463
-467
-457
-449
-459
-464
-471
-459
-462
-474
-490
-479
-469
-482
-469
-485
-475
-480
-460
-472
-497
-477
-475
-479
-490
-488
-483
-485
-476
-478
-475
-490
-502
-492
-483
-486
-465
-462
-477
-481
-479
-482
-482
-495
-493
-489
-492
-472
-459
-441
-433
-412
-392
-386
-389
-413
-428
-426
-441
-442
-453
-478
-497
-510
-517
-530
-518
-537
-539
-536
-533
-522
-512
-514
-508
-498
-495
-498
-495
-512
-490
-472
-497
-485
-473
-466
-474
-470
-488
-494
-476
-480
-482
-497
-473
-459
-472
-466
-474
-474
-475
-475
-480
-478
-461
-463
-463
-471
-467
-469
-471
-473
-474
-470
-461
-461
-463
-468
-471
-460
-455
-468
-460
-454
-457
-463
-440
-439
-441
-427
-440
-459
-450
-450
-435
-427
-422
-416
-407
-423
-423
-428
-428
-433
-437
-411
-403
-411
-411
-415
-411
-405
-405
-397
-396
-409
-418
-400
-419
-428
-411
-416
-407
-413
-417
-415
-415
-437
-407
-429
-436
-440
-438
-439
-439
-426
-428
-453
-445
-440
-449
-452
-448
-470
-459
-443
-453
-454
-451
-447
-465
-458
-470
-466
-473
-457
-454
-456
-455
-460
-457
-453
-464
-459
-467
-467
-462
-460
-469
-463
-446
-452
-475
-471
-467
-458
-466
-479
-444
-441
-474
-464
-468
-461
-457
-460
-458
-463
-464
-461
-459
-456
-450
-448
-454
-460
-465
-459
-470
-464
-469
-458
-453
-460
-470
-457
-469
-456
-476
-469
-454
-481
-477
-452
-454
-445
-451
-460
-464
-462
-470
-471
-463
-455
-449
-449
-460
-460
-465
-463
-458
-465
-460
-450
-439
-453
-456
-464
-453
-455
-452
-465
-461
-446
-446
-436
-446
-440
-468
-446
-443
-443
-434
-436
-436
-429
-434
-441
-435
-435
-443
-443
-452
-455
-460
-458
-460
-471
-466
-459
-469
-483
-465
-449
-463
-451
-460
-461
-454
-479
-477
-456
-474
-475
-457
-464
-466
-454
-452
-503
-466
-464
-461
-452
-465
-464
-468
-473
-459
-461
-458
-429
-404
-391
-378
-378
-382
-393
-383
-392
-409
-427
-432
-456
-473
-491
-505
-511
-515
-512
-525
-516
-514
-535
-491
-490
-476
-482
-474
-467
-464
-454
-456
-462
-459
-451
-454
-466
-464
-468
-456
-459
-461
-458
-459
-453
-458
-460
-464
-450
-449
-469
-459
-460
-452
-453
-458
-450
-442
-446
-458
-478
-453
-431
-442
-439
-441
-440
-444
-445
-434
-431
-439
-444
-431
-434
-424
-422
-445
-427
-418
-416
-414
-423
-418
-421
-414
-426
-416
-409
-407
-402
-393
-388
-390
-384
-389
-393
-384
-395
-391
-391
-390
-398
-390
-378
-390
-372
-375
-388
-377
-373
-385
-381
-387
-385
-388
-394
-391
-399
-399
-388
-409
-422
-421
-402
-415
-426
-422
-430
-435
-424
-422
-435
-425
-418
-426
-437
-443
-430
-435
-418
-435
-443
-429
-435
-427
-442
-444
-436
-430
-443
-431
-439
-430
-441
-437
-432
-439
-438
-434
-429
-442
-446
-439
-434
-455
-456
-437
-421
-450
-457
-418
-420
-440
-447
-435
-426
-426
-430
-438
-440
-442
-428
-419
-442
-446
-446
-440
-433
-432
-437
-439
-436
-441
-436
-434
-443
-444
-436
-430
-426
-427
-445
-442
-434
-436
-430
-435
-437
-445
-437
-422
-432
-441
-438
-438
-424
-439
-441
-434
-443
-434
-421
-422
-416
-433
-434
-431
-415
-422
-418
-415
-405
-410
-405
-407
-413
-406
-413
-417
-436
-421
-403
-421
-416
-443
-435
-419
-434
-424
-420
-420
-435
-434
-441
-429
-429
-427
-432
-440
-435
-438
-430
-446
-435
-431
-424
-429
-425
-428
-443
-444
-429
-425
-429
-430
-455
-430
-426
-427
-435
-431
-429
-429
-436
-405
-375
-371
-363
-351
-360
-368
-365
-372
-373
-388
-406
-428
-446
-455
-468
-469
-467
-481
-480
-473
-481
-463
-472
-472
-453
-451
-433
-436
-437
-428
-416
-407
-430
-442
-429
-411
-427
-426
-430
-430
-418
-414
-417
-416
-410
-400
-409
-410
-427
-426
-408
-419
-400
-404
-414
-414
-415
-412
-405
-406
-409
-411
-419
-417
-399
-400
-397
-403
-399
-398
-402
-414
-404
-393
-380
-390
-382
-390
-392
-385
-388
-386
-387
-388
-379
-354
-368
-362
-370
-361
-363
-363
-358
-353
-357
-363
-355
-356
-356
-361
-354
-365
-360
-329
-346
-344
-345
-350
-355
-353
-347
-357
-353
-361
-352
-352
-366
-375
-355
-362
-370
-380
-372
-393
-373
-360
-368
-377
-397
-386
-388
-374
-390
-406
-399
-395
-381
-380
-393
-390
-393
-397
-396
-395
-393
-393
-395
-395
-394
-394
-400
-398
-393
-394
-387
-392
-403
-404
-397
-392
-406
-383
-375
-406
-389
-386
-411
-390
-375
-392
-391
-389
-386
-388
-392
-402
-393
-392
-439
-395
-377
-376
-385
-396
-390
-395
-400
-400
-386
-390
-395
-392
-393
-391
-393
-394
-413
-398
-386
-402
-418
-378
-384
-393
-394
-383
-381
-393
-395
-400
-392
-378
-385
-392
-392
-373
-374
-378
-376
-375
-383
-389
-394
-390
-392
-374
-383
-374
-382
-390
-378
-376
-380
-383
-391
-407
-388
-380
-397
-405
-407
-399
-409
-402
-396
-388
-387
-394
-400
-397
-395
-380
-393
-405
-391
-393
-413
-399
-414
-390
-388
-395
-402
-393
-385
-396
-409
-398
-398
-398
-400
-390
-386
-361
-352
-350
-343
-333
-343
-349
-343
-343
-351
-354
-358
-389
-424
-417
-423
-448
-454
-441
-447
-446
-441
-434
-428
-425
-418
-411
-408
-409
-391
-395
-399
-393
-405
-395
-403
-404
-392
-399
-395
-404
-404
-384
-401
-408
-395
-364
-382
-378
-384
-383
-385
-388
-389
-375
-387
-401
-370
-358
-375
-389
-397
-396
-386
-377
-375
-383
-367
-374
-370
-376
-381
-373
-372
-370
-366
-366
-360
-366
-382
-357
-340
-350
-361
-359
-352
-369
-365
-344
-318
-338
-331
-335
-340
-334
-330
-331
-331
-337
-333
-342
-338
-329
-329
-336
-335
-333
-345
-334
-317
-329
-333
-342
-352
-341
-348
-336
-348
-349
-340
-359
-376
-354
-341
-356
-363
-363
-352
-370
-375
-370
-363
-365
-369
-380
-370
-381
-391
-403
-385
-373
-386
-373
-361
-370
-384
-386
-393
-391
-377
-384
-384
-378
-378
-383
-381
-376
-375
-377
-374
-374
-371
-380
-388
-381
-381
-367
-362
-376
-379
-385
-373
-373
-374
-392
-397
-393
-369
-371
-371
-370
-388
-398
-396
-352
-355
-383
-377
-363
-365
-392
-377
-372
-372
-369
-385
-390
-377
-376
-374
-385
-382
-384
-374
-372
-374
-376
-377
-377
-379
-380
-376
-371
-392
-390
-368
-371
-385
-379
-365
-368
-382
-374
-368
-378
-352
-354
-368
-373
-365
-350
-354
-362
-357
-350
-380
-360
-344
-353
-344
-365
-368
-358
-364
-368
-382
-380
-377
-378
-377
-387
-404
-403
-371
-361
-361
-375
-377
-367
-381
-381
-384
-365
-366
-370
-388
-377
-377
-369
-357
-386
-379
-376
-366
-366
-376
-370
-385
-378
-390
-398
-396
-379
-371
-360
-340
-334
-324
-307
-303
-330
-327
-308
-319
-328
-349
-373
-394
-408
-403
-411
-411
-422
-425
-418
-418
-419
-416
-406
-397
-394
-397
-402
-384
-377
-374
-376
-418
-403
-382
-360
-363
-371
-384
-365
-369
-366
-369
-370
-369
-376
-386
-364
-388
-370
-360
-353
-363
-367
-361
-357
-367
-375
-366
-366
-362
-359
-364
-366
-362
-362
-369
-357
-372
-366
-357
-363
-372
-345
-338
-352
-349
-342
-332
-341
-333
-343
-334
-328
-332
-323
-344
-324
-320
-320
-332
-327
-322
-336
-318
-313
-314
-319
-320
-328
-318
-305
-302
-298
-299
-320
-304
-310
-317
-312
-320
-322
-310
-314
-318
-308
-323
-312
-320
-328
-325
-331
-330
-339
-330
-336
-331
-347
-348
-343
-358
-339
-347
-350
-351
-343
-357
-356
-352
-358
-364
-369
-378
-367
-339
-354
-375
-359
-345
-352
-358
-370
-345
-349
-360
-355
-355
-355
-357
-358
-359
-366
-352
-350
-350
-359
-356
-349
-354
-354
-356
-357
-358
-364
-354
-347
-358
-383
-367
-346
-352
-349
-341
-343
-389
-376
-361
-351
-354
-366
-354
-338
-349
-365
-363
-357
-358
-356
-358
-354
-356
-351
-354
-358
-357
-353
-356
-361
-362
-354
-357
-358
-355
-367
-358
-367
-362
-356
-362
-374
-356
-360
-363
-347
-371
-400
-355
-342
-342
-349
-352
-353
-343
-340
-365
-367
-352
-360
-351
-350
-348
-356
-354
-349
-352
-352
-350
-348
-362
-354
-373
-362
-330
-328
-345
-345
-323
-341
-334
-332
-330
-335
-336
-337
-342
-339
-331
-344
-361
-365
-335
-342
-342
-363
-358
-345
-355
-374
-364
-345
-369
-372
-348
-349
-350
-355
-362
-378
-359
-357
-337
-354
-365
-370
-356
-355
-366
-353
-357
-357
-352
-369
-364
-362
-358
-354
-349
-340
-321
-306
-297
-278
-279
-287
-294
-322
-286
-293
-315
-331
-351
-364
-388
-394
-398
-401
-411
-411
-407
-422
-409
-393
-401
-371
-366
-374
-363
-365
-361
-359
-364
-363
-352
-353
-363
-368
-369
-346
-342
-369
-368
-357
-374
-375
-352
-365
-354
-350
-345
-360
-354
-357
-341
-346
-357
-362
-355
-347
-343
-361
-354
-349
-340
-339
-338
-338
-347
-353
-360
-342
-339
-339
-332
-349
-350
-328
-334
-329
-332
-331
-323
-336
-322
-311
-317
-319
-313
-310
-312
-300
-306
-304
-304
-300
-295
-297
-311
-300
-290
-294
-291
-281
-300
-292
-285
-288
-310
-291
-290
-296
-289
-277
-283
-286
-306
-298
-298
-301
-306
-312
-316
-313
-305
-328
-331
-315
-328
-331
-319
-319
-337
-348
-342
-329
-328
-328
-340
-329
-326
-335
-352
-339
-346
-353
-344
-344
-332
-336
-331
-344
-344
-341
-342
-335
-323
-330
-342
-350
-340
-339
-345
-334
-351
-341
-348
-334
-338
-331
-333
-338
-317
-335
-358
-337
-325
-345
-336
-334
-336
-342
-328
-346
-336
-337
-330
-337
-357
-339
-330
-332
-340
-337
-339
-336
-343
-334
-343
-329
-325
-338
-366
-357
-332
-343
-351
-331
-332
-341
-336
-363
-348
-345
-328
-327
-346
-337
-337
-332
-335
-334
-332
-340
-342
-348
-343
-347
-339
-335
-358
-344
-353
-350
-351
-333
-348
-345
-328
-335
-330
-342
-344
-352
-340
-323
-333
-335
-338
-322
-330
-325
-324
-319
-332
-337
-329
-318
-318
-323
-338
-312
-299
-317
-329
-317
-320
-324
-322
-321
-304
-310
-323
-329
-341
-334
-338
-354
-330
-335
-367
-344
-341
-348
-338
-325
-341
-337
-333
-335
-337
-338
-340
-352
-347
-339
-331
-346
-352
-332
-347
-348
-349
-340
-341
-349
-359
-358
-360
-343
-338
-323
-293
-282
-270
-242
-252
-293
-245
-252
-271
-278
-299
-321
-353
-368
-376
-391
-398
-400
-419
-400
-378
-388
-400
-376
-384
-360
-360
-353
-348
-344
-347
-343
-347
-332
-340
-348
-341
-346
-355
-346
-349
-343
-357
-342
-340
-359
-364
-339
-340
-340
-330
-340
-341
-324
-333
-343
-364
-356
-346
-334
-339
-332
-328
-317
-336
-337
-317
-321
-320
-316
-313
-320
-333
-343
-320
-331
-325
-323
-312
-312
-313
-304
-318
-304
-292
-302
-309
-297
-300
-294
-297
-292
-289
-300
-294
-294
-287
-272
-280
-286
-270
-259
-279
-283
-276
-279
-286
-268
-265
-268
-257
-282
-284
-272
-277
-281
-287
-284
-286
-282
-292
-292
-298
-298
-304
-315
-297
-309
-315
-320
-310
-322
-329
-327
-317
-317
-322
-305
-315
-316
-327
-333
-324
-324
-322
-316
-315
-332
-329
-337
-336
-359
-327
-322
-321
-318
-312
-328
-336
-326
-329
-315
-318
-330
-331
-336
-320
-326
-324
-318
-327
-333
-323
-331
-338
-335
-341
-329
-321
-325
-326
-326
-317
-332
-337
-331
-330
-330
-333
-328
-327
-330
-321
-321
-326
-327
-320
-336
-322
-325
-335
-346
-334
-337
-331
-335
-331
-332
-332
-326
-334
-326
-332
-325
-334
-336
-338
-338
-326
-324
-328
-342
-333
-333
-340
-331
-324
-325
-334
-342
-337
-321
-329
-329
-318
-336
-324
-322
-326
-326
-322
-332
-319
-311
-316
-311
-308
-304
-321
-323
-325
-311
-321
-329
-323
-329
-326
-325
-332
-348
-321
-329
-345
-323
-320
-340
-351
-335
-328
-330
-342
-342
-329
-344
-351
-343
-341
-335
-328
-327
-328
-338
-343
-336
-330
-329
-324
-337
-337
-337
-342
-344
-338
-332
-320
-295
-275
-287
-272
-271
-280
-287
-280
-281
-283
-320
-321
-329
-362
-360
-364
-380
-385
-378
-372
-386
-391
-377
-381
-347
-353
-349
-356
-349
-335
-337
-336
-332
-330
-340
-341
-348
-345
-332
-320
-356
-341
-319
-319
-321
-321
-323
-330
-330
-337
-323
-332
-332
-316
-317
-327
-320
-324
-325
-328
-332
-322
-318
-304
-323
-312
-330
-329
-336
-331
-301
-298
-302
-308
-303
-309
-305
-309
-316
-317
-307
-299
-303
-310
-299
-296
-287
-290
-291
-282
-278
-293
-285
-279
-298
-299
-266
-257
-248
-273
-280
-274
-265
-268
-279
-268
-262
-284
-272
-272
-283
-269
-260
-278
-280
-263
-269
-297
-310
-297
-285
-281
-285
-293
-299
-294
-294
-305
-313
-308
-313
-305
-302
-325
-296
-302
-315
-309
-309
-314
-325
-316
-312
-327
-320
-316
-313
-330
-334
-332
-323
-330
-332
-311
-321
-314
-306
-317
-314
-326
-318
-316
-318
-310
-324
-320
-309
-302
-310
-314
-316
-319
-312
-313
-318
-309
-325
-342
-322
-316
-322
-306
-309
-319
-319
-304
-316
-318
-328
-309
-319
-325
-318
-309
-323
-316
-314
-337
-314
-313
-313
-327
-315
-327
-313
-301
-318
-318
-332
-308
-313
-314
-318
-328
-323
-314
-317
-314
-303
-322
-329
-324
-327
-311
-308
-309
-311
-310
-303
-298
-292
-307
-303
-305
-302
-302
-305
-299
-297
-307
-304
-287
-288
-289
-317
-334
-321
-319
-325
-308
-309
-316
-321
-323
-329
-320
-313
-310
-317
-315
-321
-315
-319
-313
-321
-316
-320
-312
-319
-319
-323
-313
-306
-310
-323
-307
-325
-323
-332
-326
-323
-323
-326
-332
-324
-295
-276
-278
-265
-238
-257
-251
-254
-250
-258
-267
-275
-289
-320
-340
-348
-356
-353
-369
-361
-362
-366
-366
-375
-361
-339
-325
-331
-332
-319
-328
-332
-321
-317
-316
-320
-307
-304
-322
-318
-333
-306
-318
-306
-332
-335
-291
-298
-307
-302
-307
-308
-309
-303
-299
-309
-301
-305
-307
-310
-306
-313
-313
-298
-297
-309
-309
-282
-299
-310
-296
-289
-296
-291
-278
-288
-296
-286
-274
-288
-296
-296
-271
-295
-273
-263
-270
-266
-267
-265
-262
-256
-257
-259
-251
-239
-245
-250
-254
-250
-262
-258
-242
-252
-252
-257
-243
-237
-246
-236
-245
-261
-261
-244
-249
-245
-249
-265
-252
-248
-262
-272
-284
-273
-261
-272
-259
-264
-279
-291
-278
-283
-288
-295
-294
-277
-288
-311
-316
-288
-287
-285
-291
-288
-289
-292
-287
-294
-294
-298
-293
-284
-296
-307
-305
-284
-291
-297
-296
-311
-313
-286
-290
-291
-288
-291
-295
-292
-287
-297
-300
-303
-306
-291
-286
-284
-286
-292
-311
-284
-297
-304
-296
-286
-292
-291
-290
-287
-283
-296
-289
-290
-293
-291
-304
-308
-302
-285
-308
-303
-292
-291
-283
-290
-308
-289
-301
-297
-296
-290
-302
-285
-280
-297
-290
-290
-298
-305
-305
-286
-289
-299
-293
-288
-289
-296
-300
-293
-295
-293
-289
-292
-303
-314
-304
-292
-298
-288
-289
-287
-296
-288
-285
-294
-287
-289
-297
-296
-299
-295
-298
-284
-299
-300
-298
-288
-279
-298
-288
-294
-294
-289
-285
-290
-295
-291
-296
-297
-280
-278
-310
-298
-276
-263
-283
-277
-287
-282
-279
-281
-274
-278
-276
-280
-268
-282
-275
-279
-259
-275
-274
-271
-268
-269
-267
-268
-266
-282
-282
-281
-279
-287
-288
-291
-294
-301
-302
-291
-282
-284
-294
-288
-290
-289
-286
-278
-290
-296
-277
-283
-316
-302
-292
-276
-289
-281
-275
-278
-284
-300
-299
-297
-290
-283
-284
-269
-251
-241
-237
-237
-217
-215
-236
-216
-217
-241
-262
-274
-293
-313
-321
-327
-332
-338
-319
-338
-325
-337
-326
-318
-307
-309
-311
-303
-294
-290
-286
-287
-291
-297
-291
-276
-281
-293
-284
-285
-291
-284
-283
-283
-291
-293
-279
-276
-271
-278
-283
-280
-289
-287
-277
-293
-283
-273
-283
-288
-276
-285
-278
-275
-271
-265
-253
-257
-285
-269
-271
-271
-266
-262
-264
-269
-267
-258
-265
-250
-247
-265
-261
-255
-251
-249
-251
-235
-240
-247
-243
-235
-235
-231
-234
-228
-225
-219
-228
-255
-238
-225
-230
-227
-225
-211
-205
-223
-209
-225
-229
-227
-223
-224
-232
-225
-217
-215
-221
-241
-241
-229
-233
-237
-239
-249
-258
-262
-250
-242
-245
-256
-269
-254
-253
-249
-260
-255
-269
-259
-251
-275
-285
-268
-271
-255
-269
-256
-260
-263
-271
-263
-271
-263
-262
-259
-278
-273
-266
-262
-262
-268
-259
-265
-261
-263
-260
-274
-274
-279
-272
-275
-268
-260
-264
-266
-272
-271
-274
-269
-253
-263
-275
-271
-271
-260
-262
-261
-269
-266
-255
-268
-277
-270
-254
-248
-260
-265
-263
-273
-269
-272
-270
-264
-265
-260
-263
-257
-270
-267
-269
-273
-268
-269
-272
-273
-271
-272
-265
-260
-272
-277
-275
-261
-265
-261
-270
-266
-271
-265
-258
-274
-257
-251
-272
-258
-268
-271
-257
-262
-274
-266
-283
-279
-264
-252
-255
-261
-256
-272
-273
-263
-250
-262
-268
-263
-262
-276
-257
-256
-251
-265
-257
-261
-269
-262
-256
-258
-259
-267
-264
-253
-249
-266
-270
-278
-261
-254
-276
-253
-259
-249
-254
-255
-253
-259
-262
-280
-260
-270
-268
-247
-239
-252
-251
-236
-235
-246
-244
-244
-251
-250
-247
-253
-254
-252
-231
-245
-254
-237
-226
-231
-225
-221
-222
-232
-238
-230
-249
-253
-240
-247
-238
-232
-243
-253
-245
-249
-242
-250
-249
-257
-263
-254
-246
-256
-244
-244
-253
-264
-250
-245
-255
-252
-248
-243
-244
-248
-259
-246
-245
-248
-253
-254
-255
-260
-267
-242
-236
-228
-219
-193
-193
-173
-172
-187
-197
-232
-208
-187
-205
-220
-257
-260
-274
-270
-283
-291
-295
-298
-296
-294
-288
-285
-281
-282
-265
-262
-258
-255
-245
-265
-247
-253
-248
-247
-248
-253
-252
-240
-250
-242
-237
-240
-246
-247
-243
-252
-242
-240
-233
-247
-241
-232
-238
-239
-240
-233
-233
-231
-230
-237
-237
-231
-239
-217
-233
-217
-224
-234
-235
-223
-220
-228
-221
-225
-221
-223
-210
-212
-209
-215
-219
-210
-207
-205
-207
-206
-195
-200
-205
-192
-190
-199
-199
-160
-176
-184
-172
-174
-180
-178
-173
-174
-172
-163
-165
-177
-179
-173
-167
-174
-171
-174
-169
-180
-179
-185
-170
-176
-182
-187
-188
-212
-187
-195
-197
-195
-204
-205
-203
-192
-189
-209
-202
-217
-207
-206
-228
-203
-212
-224
-229
-217
-207
-208
-227
-204
-222
-222
-216
-217
-221
-209
-226
-210
-214
-219
-217
-219
-211
-215
-217
-214
-218
-216
-216
-215
-218
-222
-218
-222
-218
-214
-212
-209
-215
-218
-240
-228
-216
-219
-210
-214
-210
-209
-211
-222
-215
-222
-220
-225
-210
-204
-210
-218
-221
-217
-215
-217
-208
-211
-225
-218
-204
-201
-216
-212
-226
-222
-210
-210
-211
-212
-213
-213
-222
-217
-209
-209
-211
-224
-225
-227
-230
-208
-204
-214
-215
-211
-223
-212
-214
-227
-229
-210
-196
-222
-186
-207
-205
-203
-199
-192
-205
-206
-208
-201
-207
-196
-193
-195
-194
-195
-201
-191
-192
-187
-215
-193
-182
-180
-184
-194
-202
-202
-211
-219
-209
-212
-215
-216
-219
-208
-203
-208
-215
-210
-225
-219
-212
-211
-196
-209
-223
-218
-222
-225
-204
-202
-199
-209
-215
-212
-212
-206
-208
-207
-215
-217
-208
-197
-196
-190
-179
-158
-153
-137
-123
-141
-136
-150
-158
-163
-178
-194
-221
-218
-241
-252
-258
-256
-269
-273
-263
-249
-262
-262
-241
-229
-227
-219
-223
-211
-217
-226
-218
-212
-215
-193
-198
-196
-218
-196
-195
-206
-217
-212
-216
-207
-206
-206
-207
-210
-202
-212
-208
-202
-202
-207
-202
-200
-205
-201
-194
-206
-216
-218
-212
-200
-207
-191
-182
-198
-202
-182
-181
-188
-188
-187
-173
-180
-182
-184
-187
-175
-164
-170
-179
-178
-176
-164
-165
-155
-156
-152
-156
-159
-152
-162
-149
-150
-145
-136
-139
-151
-139
-136
-145
-156
-133
-129
-132
-128
-131
-144
-138
-140
-147
-161
-148
-136
-125
-140
-154
-163
-158
-172
-154
-168
-177
-172
-177
-178
-176
-184
-178
-193
-204
-187
-177
-191
-187
-182
-184
-194
-192
-185
-189
-189
-196
-191
-190
-192
-204
-201
-207
-199
-200
-196
-192
-184
-185
-192
-204
-194
-195
-193
-203
-196
-197
-182
-185
-203
-194
-187
-203
-204
-187
-185
-195
-201
-205
-201
-186
-194
-205
-193
-192
-185
-193
-191
-186
-189
-187
-196
-202
-201
-186
-180
-206
-185
-185
-205
-187
-197
-206
-190
-182
-195
-208
-187
-189
-185
-190
-200
-194
-181
-176
-206
-221
-209
-211
-200
-205
-186
-187
-198
-203
-183
-187
-193
-194
-180
-189
-192
-179
-194
-188
-192
-179
-176
-202
-197
-185
-186
-175
-177
-186
-174
-171
-165
-168
-174
-177
-168
-169
-167
-158
-172
-178
-167
-165
-176
-186
-173
-176
-181
-175
-191
-195
-174
-181
-185
-196
-193
-196
-192
-204
-202
-178
-192
-199
-194
-194
-196
-195
-196
-201
-185
-188
-189
-208
-202
-198
-190
-189
-205
-202
-220
-211
-213
-200
-199
-185
-160
-140
-135
-113
-99
-96
-112
-114
-119
-135
-135
-161
-177
-189
-210
-224
-230
-241
-247
-242
-259
-255
-255
-251
-251
-230
-221
-217
-218
-207
-211
-207
-203
-206
-200
-190
-202
-205
-202
-196
-200
-188
-203
-193
-197
-198
-199
-185
-186
-197
-204
-186
-194
-197
-192
-185
-183
-189
-184
-196
-188
-180
-181
-185
-191
-193
-190
-181
-186
-186
-181
-184
-169
-165
-182
-201
-193
-186
-179
-169
-153
-169
-153
-148
-159
-160
-154
-159
-154
-150
-143
-148
-146
-129
-140
-130
-136
-127
-131
-135
-132
-131
-132
-122
-130
-128
-126
-127
-139
-131
-121
-124
-137
-159
-145
-124
-128
-155
-132
-116
-133
-155
-144
-144
-143
-149
-153
-163
-162
-182
-173
-175
-164
-166
-179
-158
-169
-179
-183
-171
-187
-185
-185
-182
-183
-191
-180
-184
-186
-196
-194
-193
-180
-187
-202
-216
-195
-199
-171
-179
-187
-183
-189
-171
-173
-181
-188
-185
-177
-179
-190
-184
-180
-183
-192
-188
-187
-187
-180
-187
-186
-186
-176
-184
-182
-184
-181
-186
-190
-185
-186
-189
-186
-176
-186
-184
-176
-201
-201
-189
-182
-179
-201
-176
-180
-183
-175
-192
-189
-189
-182
-186
-197
-199
-197
-176
-183
-183
-180
-174
-177
-169
-179
-176
-173
-180
-178
-173
-177
-177
-173
-171
-159
-176
-170
-165
-162
-161
-163
-163
-155
-168
-160
-168
-169
-170
-173
-171
-178
-195
-178
-184
-176
-180
-178
-175
-167
-170
-179
-200
-192
-189
-186
-185
-181
-183
-184
-185
-180
-187
-185
-181
-194
-188
-184
-190
-185
-184
-191
-187
-176
-194
-191
-196
-195
-203
-188
-179
-175
-181
-154
-140
-111
-118
-109
-120
-139
-136
-140
-153
-165
-176
-200
-227
-227
-235
-226
-225
-223
-225
-238
-236
-233
-218
-212
-211
-207
-202
-204
-197
-190
-196
-183
-182
-187
-190
-193
-178
-187
-186
-189
-175
-170
-174
-195
-177
-170
-176
-158
-164
-169
-184
-176
-179
-180
-194
-187
-165
-159
-164
-171
-167
-165
-161
-159
-159
-165
-167
-167
-164
-165
-163
-153
-156
-164
-162
-168
-147
-154
-162
-154
-156
-139
-129
-154
-132
-129
-136
-134
-132
-133
-119
-122
-122
-111
-114
-112
-121
-129
-122
-109
-101
-112
-117
-108
-93
-102
-104
-117
-114
-106
-100
-115
-115
-107
-101
-107
-112
-121
-121
-125
-133
-131
-120
-137
-144
-135
-130
-147
-142
-135
-146
-138
-139
-142
-150
-152
-160
-171
-153
-162
-155
-151
-148
-147
-158
-155
-154
-159
-163
-147
-152
-153
-150
-170
-185
-153
-146
-159
-151
-146
-152
-152
-147
-151
-156
-157
-159
-157
-160
-160
-153
-152
-156
-164
-153
-150
-157
-161
-169
-152
-152
-162
-155
-164
-147
-145
-145
-146
-151
-160
-165
-155
-159
-168
-160
-158
-158
-154
-151
-139
-151
-143
-158
-155
-159
-145
-153
-170
-175
-144
-154
-154
-157
-160
-160
-152
-151
-152
-138
-138
-142
-153
-156
-136
-151
-159
-142
-138
-137
-135
-138
-139
-139
-140
-140
-147
-145
-148
-162
-165
-161
-166
-150
-160
-149
-155
-186
-166
-150
-150
-158
-158
-145
-176
-164
-160
-146
-162
-173
-172
-164
-158
-163
-169
-170
-169
-169
-174
-186
-161
-164
-158
-157
-160
-167
-188
-179
-157
-144
-108
-114
-101
-82
-86
-107
-109
-105
-108
-123
-136
-157
-175
-188
-199
-198
-207
-210
-216
-212
-216
-215
-214
-208
-200
-191
-187
-183
-202
-173
-170
-167
-162
-173
-173
-164
-160
-180
-171
-159
-165
-147
-147
-174
-156
-159
-168
-155
-166
-157
-148
-157
-155
-165
-141
-154
-167
-162
-155
-163
-153
-157
-156
-154
-150
-149
-148
-140
-147
-147
-142
-142
-142
-144
-147
-151
-149
-147
-138
-143
-123
-139
-127
-134
-134
-127
-126
-118
-113
-121
-111
-123
-120
-99
-105
-98
-100
-95
-104
-100
-98
-93
-103
-100
-110
-97
-96
-86
-93
-98
-104
-100
-104
-111
-102
-98
-110
-137
-107
-104
-110
-123
-111
-116
-120
-125
-132
-125
-130
-127
-137
-136
-154
-149
-150
-143
-145
-143
-133
-146
-148
-137
-144
-155
-151
-157
-144
-146
-180
-154
-145
-137
-153
-152
-159
-158
-156
-154
-145
-146
-147
-155
-149
-148
-155
-154
-155
-155
-147
-148
-145
-138
-142
-152
-159
-146
-152
-143
-176
-186
-153
-141
-137
-157
-127
-134
-150
-169
-140
-135
-147
-157
-148
-153
-155
-154
-144
-141
-139
-148
-161
-151
-151
-152
-151
-149
-154
-152
-159
-154
-168
-158
-146
-145
-155
-162
-152
-139
-149
-143
-141
-151
-161
-134
-146
-151
-162
-168
-153
-150
-158
-140
-140
-146
-134
-147
-152
-140
-143
-145
-144
-144
-150
-148
-141
-156
-159
-148
-123
-139
-135
-148
-135
-117
-125
-126
-130
-129
-131
-126
-117
-146
-133
-134
-121
-133
-136
-151
-157
-159
-149
-142
-150
-139
-153
-154
-152
-160
-155
-142
-139
-164
-155
-154
-148
-158
-157
-145
-146
-153
-148
-150
-155
-166
-173
-148
-143
-156
-152
-148
-151
-156
-145
-133
-116
-107
-83
-78
-78
-88
-73
-84
-94
-99
-122
-134
-149
-161
-182
-202
-196
-203
-205
-209
-219
-186
-190
-183
-195
-200
-170
-142
-158
-160
-178
-162
-156
-149
-140
-156
-158
-148
-150
-153
-153
-155
-152
-153
-149
-141
-141
-141
-149
-148
-148
-156
-147
-140
-148
-141
-145
-145
-143
-129
-146
-146
-148
-141
-164
-128
-127
-137
-139
-149
-137
-145
-129
-136
-122
-112
-119
-125
-125
-118
-118
-109
-126
-120
-116
-124
-111
-129
-106
-102
-100
-101
-102
-108
-100
-97
-88
-101
-110
-81
-68
-100
-88
-79
-85
-74
-82
-86
-89
-80
-74
-80
-92
-85
-77
-90
-103
-93
-95
-101
-99
-98
-106
-112
-124
-104
-95
-107
-104
-118
-131
-125
-125
-133
-150
-112
-128
-128
-149
-132
-127
-123
-165
-129
-137
-136
-134
-147
-140
-143
-143
-137
-136
-137
-136
-129
-135
-145
-141
-142
-142
-146
-143
-142
-148
-152
-145
-140
-133
-138
-136
-133
-141
-135
-130
-136
-139
-132
-137
-141
-140
-152
-158
-136
-122
-140
-138
-119
-142
-137
-149
-126
-123
-143
-139
-140
-136
-137
-144
-153
-145
-139
-123
-121
-136
-134
-136
-142
-158
-142
-137
-138
-135
-136
-136
-134
-136
-140
-134
-163
-142
-136
-149
-141
-123
-128
-134
-144
-143
-147
-137
-146
-158
-128
-126
-131
-146
-137
-140
-138
-140
-145
-150
-134
-140
-131
-137
-136
-136
-131
-125
-130
-127
-138
-145
-124
-128
-113
-122
-148
-114
-139
-130
-124
-109
-112
-115
-119
-115
-129
-125
-117
-140
-120
-113
-121
-126
-154
-131
-137
-141
-126
-124
-135
-139
-149
-142
-144
-141
-134
-146
-149
-142
-142
-129
-136
-144
-146
-153
-149
-142
-138
-147
-153
-153
-165
-164
-146
-134
-151
-143
-142
-136
-128
-121
-94
-74
-63
-62
-55
-83
-73
-64
-77
-111
-124
-133
-143
-159
-173
-190
-191
-193
-202
-200
-198
-194
-185
-175
-177
-170
-162
-168
-183
-166
-149
-153
-144
-146
-149
-153
-151
-151
-141
-135
-137
-142
-141
-132
-144
-161
-149
-145
-134
-134
-144
-146
-139
-140
-142
-147
-142
-145
-156
-149
-124
-123
-147
-148
-129
-135
-139
-133
-133
-131
-136
-130
-122
-126
-135
-146
-125
-128
-115
-115
-116
-116
-114
-109
-110
-107
-110
-100
-111
-102
-101
-108
-100
-97
-93
-84
-79
-76
-75
-80
-86
-83
-96
-94
-89
-76
-83
-84
-64
-74
-70
-73
-85
-82
-88
-88
-82
-71
-80
-92
-92
-94
-98
-113
-109
-105
-106
-98
-109
-112
-126
-126
-113
-121
-112
-126
-130
-117
-117
-145
-146
-125
-130
-145
-140
-130
-124
-133
-127
-132
-136
-157
-149
-137
-136
-136
-128
-136
-139
-133
-139
-136
-133
-140
-147
-128
-130
-137
-136
-134
-122
-134
-150
-121
-121
-131
-152
-145
-146
-137
-147
-136
-137
-142
-128
-127
-137
-140
-130
-136
-132
-135
-147
-146
-127
-135
-137
-144
-132
-138
-138
-131
-131
-159
-168
-137
-137
-143
-130
-131
-139
-139
-132
-129
-129
-151
-153
-131
-134
-155
-144
-121
-139
-147
-140
-132
-146
-148
-142
-142
-137
-149
-142
-138
-135
-137
-138
-133
-139
-154
-157
-153
-133
-144
-142
-135
-136
-143
-133
-132
-148
-146
-144
-143
-152
-140
-141
-154
-142
-120
-153
-151
-131
-128
-148
-158
-142
-136
-136
-134
-140
-148
-147
-137
-136
-159
-146
-149
-141
-142
-151
-133
-148
-143
-139
-147
-149
-146
-142
-142
-149
-147
-144
-143
-146
-142
-139
-136
-147
-142
-145
-148
-145
-131
-124
-137
-162
-154
-142
-142
-142
-155
-145
-151
-148
-133
-143
-137
-133
-135
-139
-143
-136
-141
-139
-154
-145
-151
-144
-150
-142
-139
-142
-147
-144
-141
-146
-147
-144
-143
-140
-131
-141
-154
-141
-137
-134
-148
-153
-153
-148
-154
-165
-145
-125
-142
-137
-133
-148
-140
-138
-157
-148
-150
-137
-142
-141
-146
-140
-140
-147
-141
-148
-142
-152
-149
-139
-146
-152
-139
-135
-152
-156
-148
-137
-147
-146
-138
-150
-157
-148
-137
-140
-136
-150
-133
-136
-138
-145
-150
-152
-145
-142
-132
-152
-150
-144
-141
-147
-144
-145
-164
-163
-149
-130
-139
-154
-154
-146
-159
-143
-136
-140
-129
-135
-135
-142
-135
-131
-137
-133
-131
-129
-119
-123
-122
-130
-120
-110
-118
-114
-132
-122
-125
-120
-123
-126
-135
-129
-117
-139
-127
-131
-137
-130
-138
-118
-122
-120
-132
-150
-148
-140
-144
-153
-154
-145
-152
-167
-145
-140
-144
-147
-142
-147
-147
-138
-147
-157
-147
-154
-157
-163
-142
-123
-111
-96
-70
-69
-50
-58
-81
-58
-88
-67
-72
-119
-140
-163
-184
-192
-202
-196
-187
-203
-201
-194
-193
-201
-199
-182
-179
-164
-158
-153
-147
-144
-155
-149
-145
-144
-151
-157
-145
-148
-148
-150
-157
-137
-143
-158
-155
-152
-145
-145
-141
-139
-134
-139
-148
-147
-142
-155
-148
-156
-157
-128
-122
-155
-138
-133
-139
-138
-128
-138
-129
-128
-129
-141
-139
-134
-132
-127
-131
-118
-123
-128
-125
-135
-129
-125
-126
-116
-116
-113
-112
-99
-102
-109
-95
-96
-103
-120
-125
-100
-89
-87
-90
-89
-93
-88
-72
-80
-98
-90
-87
-86
-90
-79
-71
-80
-98
-105
-93
-89
-82
-92
-90
-86
-98
-101
-90
-83
-98
-116
-119
-102
-97
-117
-109
-109
-108
-106
-130
-116
-119
-130
-122
-128
-120
-121
-124
-134
-142
-131
-124
-126
-136
-143
-138
-126
-130
-138
-137
-134
-139
-128
-157
-135
-120
-130
-135
-138
-135
-128
-138
-142
-146
-141
-141
-137
-128
-146
-137
-136
-121
-127
-123
-145
-156
-134
-136
-128
-136
-137
-133
-151
-131
-129
-141
-134
-138
-135
-134
-132
-128
-136
-135
-133
-137
-141
-133
-138
-142
-131
-127
-128
-144
-146
-132
-125
-132
-130
-126
-130
-135
-130
-132
-135
-144
-143
-143
-130
-132
-138
-140
-142
-130
-127
-133
-131
-138
-136
-129
-125
-129
-135
-124
-133
-129
-125
-142
-131
-136
-132
-140
-147
-140
-127
-124
-128
-132
-132
-129
-119
-137
-138
-158
-135
-132
-127
-127
-139
-133
-135
-131
-132
-136
-134
-124
-129
-136
-140
-137
-137
-131
-152
-146
-123
-123
-133
-131
-131
-128
-122
-117
-125
-128
-129
-144
-145
-136
-130
-138
-136
-122
-127
-126
-135
-153
-134
-144
-133
-119
-117
-126
-126
-135
-136
-128
-129
-133
-122
-118
-124
-128
-134
-141
-129
-121
-125
-125
-118
-113
-138
-130
-130
-128
-125
-118
-116
-118
-121
-113
-121
-118
-116
-129
-108
-110
-104
-104
-111
-123
-102
-102
-96
-100
-101
-101
-102
-106
-114
-109
-112
-111
-124
-119
-122
-118
-122
-119
-122
-130
-115
-116
-134
-127
-129
-120
-132
-135
-128
-121
-125
-123
-127
-116
-134
-137
-126
-124
-123
-138
-113
-124
-126
-126
-123
-136
-131
-110
-101
-86
-69
-48
-46
-57
-71
-66
-72
-81
-116
-120
-131
-131
-148
-173
-165
-168
-165
-174
-184
-187
-179
-166
-166
-167
-151
-154
-146
-144
-141
-121
-143
-124
-122
-119
-112
-108
-125
-141
-122
-119
-129
-117
-121
-122
-132
-125
-121
-114
-128
-118
-115
-119
-116
-118
-121
-118
-119
-112
-114
-111
-118
-110
-112
-107
-119
-129
-112
-114
-109
-102
-107
-104
-116
-110
-101
-95
-93
-102
-106
-99
-93
-99
-92
-92
-83
-94
-91
-72
-74
-76
-91
-84
-67
-60
-78
-71
-69
-72
-68
-60
-61
-76
-59
-59
-58
-63
-69
-78
-66
-57
-53
-59
-56
-56
-53
-64
-45
-53
-67
-58
-76
-76
-63
-79
-95
-80
-77
-79
-60
-79
-80
-89
-87
-88
-100
-98
-99
-104
-99
-93
-94
-99
-104
-109
-112
-119
-118
-114
-114
-110
-116
-123
-110
-113
-104
-108
-116
-124
-114
-107
-107
-113
-106
-117
-114
-115
-119
-125
-102
-99
-124
-132
-113
-104
-120
-107
-102
-108
-112
-111
-106
-104
-112
-108
-113
-115
-115
-124
-116
-128
-118
-115
-113
-121
-107
-121
-115
-109
-90
-111
-119
-125
-123
-118
-130
-117
-114
-116
-104
-108
-108
-111
-114
-125
-119
-117
-110
-109
-120
-131
-129
-122
-130
-113
-108
-126
-138
-115
-130
-124
-120
-119
-128
-126
-121
-118
-126
-116
-91
-126
-126
-111
-114
-119
-123
-118
-122
-119
-117
-117
-117
-124
-131
-123
-125
-127
-114
-109
-117
-120
-126
-109
-106
-116
-117
-106
-115
-128
-111
-109
-123
-124
-113
-109
-90
-102
-90
-99
-100
-94
-99
-100
-109
-100
-100
-104
-107
-98
-98
-103
-118
-116
-124
-129
-117
-117
-109
-119
-123
-128
-124
-113
-121
-129
-130
-129
-122
-125
-127
-137
-120
-111
-126
-126
-126
-125
-123
-118
-119
-135
-130
-130
-130
-126
-130
-133
-125
-113
-103
-97
-71
-58
-51
-58
-67
-62
-68
-70
-87
-101
-134
-139
-151
-181
-167
-175
-167
-161
-167
-172
-175
-200
-171
-152
-153
-139
-141
-136
-133
-134
-130
-126
-125
-139
-128
-132
-133
-117
-120
-126
-116
-117
-122
-120
-127
-120
-113
-120
-130
-117
-112
-123
-140
-133
-115
-121
-102
-112
-110
-121
-131
-134
-111
-106
-107
-111
-109
-117
-125
-101
-90
-106
-105
-111
-115
-99
-86
-102
-103
-95
-95
-95
-108
-101
-98
-116
-95
-80
-59
-64
-61
-67
-77
-65
-59
-68
-85
-65
-62
-62
-58
-59
-61
-68
-63
-51
-36
-42
-50
-51
-48
-56
-52
-54
-53
-56
-76
-71
-54
-68
-64
-86
-72
-61
-67
-67
-78
-87
-83
-83
-77
-84
-92
-99
-103
-118
-100
-87
-91
-100
-108
-106
-113
-103
-107
-106
-110
-111
-114
-111
-112
-104
-126
-142
-124
-98
-109
-113
-113
-96
-110
-111
-103
-104
-108
-113
-108
-117
-114
-110
-110
-112
-145
-117
-102
-103
-101
-99
-113
-111
-109
-113
-112
-105
-120
-115
-119
-121
-102
-121
-119
-97
-103
-118
-113
-106
-108
-95
-104
-124
-122
-110
-95
-106
-120
-110
-106
-105
-103
-115
-121
-114
-111
-115
-122
-115
-112
-111
-108
-112
-115
-123
-118
-107
-107
-109
-126
-125
-111
-101
-107
-102
-112
-112
-114
-112
-114
-110
-119
-117
-105
-108
-116
-112
-112
-101
-114
-113
-114
-119
-110
-114
-111
-99
-116
-108
-112
-104
-101
-108
-105
-99
-110
-104
-107
-92
-102
-94
-90
-79
-89
-85
-81
-80
-85
-99
-99
-90
-85
-95
-89
-95
-99
-112
-98
-108
-108
-104
-107
-107
-111
-128
-122
-97
-116
-130
-101
-117
-122
-115
-116
-107
-107
-116
-110
-103
-105
-125
-110
-108
-124
-118
-113
-106
-114
-120
-116
-115
-129
-111
-110
-88
-101
-88
-60
-36
-28
-29
-40
-40
-44
-56
-66
-82
-109
-146
-150
-151
-152
-164
-165
-163
-170
-164
-154
-157
-151
-137
-145
-140
-122
-120
-123
-112
-107
-127
-116
-135
-116
-126
-126
-109
-110
-119
-110
-98
-113
-113
-113
-107
-110
-108
-118
-116
-99
-108
-114
-111
-114
-114
-105
-113
-109
-124
-100
-106
-101
-96
-98
-109
-102
-100
-104
-112
-100
-99
-94
-117
-85
-89
-97
-100
-96
-92
-72
-77
-79
-88
-77
-78
-86
-81
-69
-72
-72
-68
-70
-54
-47
-55
-59
-54
-51
-48
-51
-46
-43
-40
-44
-48
-46
-50
-48
-33
-66
-44
-39
-50
-49
-48
-41
-54
-49
-44
-61
-50
-43
-64
-60
-64
-74
-76
-69
-69
-68
-81
-90
-90
-95
-94
-85
-93
-99
-105
-92
-96
-104
-103
-96
-105
-109
-97
-122
-108
-103
-98
-101
-95
-97
-91
-92
-97
-103
-101
-98
-101
-112
-99
-102
-100
-93
-115
-103
