7
-2
-13
-3
20
50
35
45
33
30
-12
-20
-15
3
23
44
47
56
41
42
1
-15
-23
-16
12
46
79
74
58
49
16
-12
12
18
35
47
67
59
46
35
13
-6
-7
7
32
58
70
83
57
25
6
13
3
33
40
51
60
54
50
84
56
25
-4
36
63
96
116
76
69
53
20
17
35
41
71
95
106
100
115
82
62
59
71
76
118
130
150
158
123
80
78
92
121
137
155
131
116
128
124
100
98
101
108
96
132
146
175
162
139
90
95
79
95
111
139
137
128
109
101
79
84
40
34
43
67
80
107
72
61
44
34
35
29
33
61
79
67
59
68
50
22
1
16
34
54
77
81
47
42
11
1
9
16
21
47
69
75
63
64
52
24
21
35
23
46
44
62
61
22
-4
7
-2
12
37
47
69
99
74
37
8
-10
-6
35
24
65
67
61
40
35
27
5
-9
3
20
66
70
79
52
42
22
-3
3
10
25
58
86
54
61
35
28
27
14
-1
34
49
55
71
67
24
-1
-3
-14
-2
19
66
75
58
55
27
3
-40
8
50
16
34
50
101
54
44
-21
-25
41
6
35
89
62
89
40
22
24
12
16
-5
28
68
76
63
48
18
3
3
11
32
55
80
76
72
34
5
12
14
39
27
49
70
78
56
38
9
-6
7
-2
18
63
74
52
51
58
31
-7
9
29
33
64
83
86
80
67
24
-4
19
31
38
82
96
105
127
85
32
1
6
12
59
82
80
76
93
67
43
28
23
29
48
87
104
75
59
41
11
-5
-3
9
26
55
67
77
57
47
26
-2
23
22
35
66
89
67
35
22
1
-11
-13
8
28
57
81
91
67
37
13
4
12
-11
38
71
75
64
50
40
17
0
-8
21
43
66
72
74
69
27
33
38
49
65
100
120
139
173
182
136
119
98
106
59
98
56
63
64
25
-27
-57
-58
-46
-25
-8
22
36
49
40
-7
-38
-26
7
30
49
64
61
64
59
40
10
7
9
29
75
98
67
46
57
41
16
8
20
35
71
91
83
73
56
35
28
33
27
33
70
97
87
80
90
55
40
27
35
38
53
94
92
80
72
41
29
19
37
49
115
107
116
96
82
51
24
15
46
53
76
91
103
111
76
57
74
53
80
90
115
139
112
113
115
95
96
88
81
86
130
143
164
161
109
105
102
129
95
134
170
191
196
162
145
128
121
119
139
163
164
186
178
165
140
138
115
110
104
139
165
175
174
148
109
105
73
54
82
105
122
125
123
96
77
50
67
40
69
82
104
98
105
89
71
53
29
25
43
99
92
85
82
85
49
19
32
15
30
64
82
100
90
67
41
29
40
50
73
86
93
94
93
82
71
36
23
25
42
58
90
94
89
69
50
38
28
30
52
116
107
87
83
72
68
42
11
37
59
82
104
102
85
75
46
32
26
39
52
94
67
87
84
62
40
46
38
31
59
57
60
72
81
52
42
28
23
23
44
68
100
101
105
64
35
35
21
28
42
59
76
94
79
67
37
4
12
21
62
95
83
99
94
55
25
19
24
44
47
87
86
87
69
50
23
39
8
-2
59
90
94
95
76
41
42
17
25
25
58
93
85
92
93
81
43
31
20
36
54
78
81
68
66
36
22
20
16
34
110
124
91
85
87
58
48
39
48
59
62
91
88
79
79
69
59
58
41
60
80
75
91
79
73
37
29
37
41
36
45
84
77
76
63
82
35
8
16
32
63
74
85
69
74
28
32
21
32
43
70
89
104
77
75
40
28
11
21
47
50
72
79
68
56
33
13
10
31
46
74
79
74
123
74
26
19
24
65
82
111
128
152
173
165
154
131
123
142
101
97
94
69
55
32
-11
-42
-40
-23
7
27
40
43
45
22
24
12
-29
12
49
64
96
81
80
50
31
23
23
38
57
66
90
93
61
60
68
49
69
54
58
72
81
78
68
38
31
11
25
32
69
101
89
87
69
55
53
31
25
40
66
73
111
89
93
57
25
24
34
66
87
90
120
107
96
93
49
22
35
57
85
103
112
105
84
58
52
59
70
79
104
131
125
119
108
72
76
61
78
100
142
137
162
147
145
110
102
117
111
130
156
155
185
173
162
126
107
141
123
136
158
180
190
170
148
141
127
120
134
131
135
173
152
154
131
105
75
77
96
99
114
119
120
111
113
94
91
71
70
38
55
104
93
97
66
41
34
49
52
70
86
101
90
88
80
57
-2
15
32
64
77
96
105
74
53
39
35
40
31
89
90
79
80
87
67
32
32
25
37
71
90
123
85
64
29
56
33
25
51
57
95
105
94
82
68
53
20
36
31
70
91
81
94
80
50
41
25
35
63
88
87
93
63
69
46
47
25
28
39
69
88
89
71
67
72
32
22
35
52
67
75
81
81
72
50
34
4
35
38
51
74
92
96
79
41
30
15
48
36
67
70
68
70
83
49
29
-1
34
49
63
72
97
100
61
15
6
1
9
53
86
72
71
78
64
30
16
31
38
46
56
78
90
95
68
11
-9
19
31
53
62
85
79
63
46
34
36
25
16
45
83
86
79
83
48
21
-2
3
22
43
59
92
84
79
49
34
18
3
34
51
52
99
102
70
39
19
-7
-2
57
63
74
110
86
79
46
19
20
31
30
44
68
83
101
93
51
18
33
33
34
70
74
96
91
73
45
27
27
36
49
55
86
98
87
68
33
19
32
10
13
50
66
79
52
73
34
8
11
29
25
81
75
53
64
52
18
14
22
22
30
68
66
64
64
56
33
4
1
10
30
59
72
63
46
46
44
14
13
27
50
48
52
65
75
52
13
20
15
35
53
88
127
145
142
162
150
118
113
124
111
101
85
88
61
19
-9
-25
-30
-27
-20
15
43
42
8
-2
-13
-14
-1
14
32
54
62
67
61
48
39
16
-8
41
29
55
54
91
69
50
9
4
43
34
31
73
86
71
71
56
8
4
-2
22
55
81
71
68
86
40
17
10
17
26
53
60
80
87
85
63
15
22
26
11
48
94
101
102
96
51
40
18
25
61
84
83
103
75
57
64
38
20
29
72
88
110
124
126
110
78
63
55
48
82
103
129
151
127
109
101
93
69
81
106
122
131
136
152
143
121
103
118
113
112
156
178
172
161
163
138
112
100
98
106
153
152
140
128
106
95
84
70
69
85
111
139
130
97
68
59
42
48
36
73
71
86
95
80
54
27
17
16
35
54
85
91
90
74
65
19
8
2
15
48
79
96
74
74
31
8
17
13
33
57
67
73
85
65
64
25
3
33
22
37
66
96
74
54
39
14
15
14
26
50
80
80
73
52
50
29
-14
4
33
50
77
66
75
69
27
23
28
4
24
56
70
84
95
62
41
10
4
21
42
48
64
79
64
49
25
14
18
27
22
56
78
77
65
57
31
17
5
14
31
59
79
73
61
48
7
9
15
10
30
68
70
96
74
80
11
12
-8
18
36
48
61
76
64
61
23
18
10
10
34
53
69
63
53
49
36
29
12
26
28
61
65
66
52
42
13
12
12
6
6
84
103
99
32
44
49
11
-8
24
36
49
73
83
51
48
23
24
7
6
39
76
81
62
54
41
14
17
15
19
47
57
66
79
72
52
24
1
7
37
51
60
63
85
51
39
13
-2
5
36
33
56
88
68
52
32
30
10
44
46
56
59
58
62
58
50
15
5
32
31
49
61
71
75
61
42
15
1
0
11
57
54
71
79
54
32
19
11
7
43
81
71
55
59
52
26
18
5
9
21
55
77
103
64
67
49
3
-9
12
26
44
77
70
83
60
28
3
-4
5
26
56
70
99
89
55
24
-9
-3
27
26
62
78
61
61
79
30
11
31
29
24
72
70
59
67
71
35
6
17
43
77
75
56
92
64
79
19
14
27
34
49
60
84
84
80
75
51
36
22
26
61
63
69
85
61
62
23
4
-9
-6
60
72
118
59
74
46
5
12
-3
4
36
69
75
76
80
45
4
-6
9
9
34
61
74
74
70
31
17
5
-5
6
53
70
61
70
56
39
16
3
4
7
35
75
99
92
38
18
6
18
53
50
93
98
152
145
166
161
132
106
75
66
90
90
75
64
46
20
-17
-40
-26
-16
12
11
14
23
14
10
5
-8
17
24
47
81
80
67
50
13
0
9
33
22
52
88
69
46
57
26
10
2
-9
36
59
100
80
71
57
39
10
10
27
41
54
70
94
81
50
16
5
36
19
27
53
86
77
72
57
27
33
26
31
29
79
97
109
77
46
20
10
19
44
73
71
97
103
98
49
46
39
44
39
61
87
102
123
101
91
70
53
64
92
119
119
140
141
124
92
68
71
79
99
129
141
153
161
147
116
129
95
122
138
133
151
156
160
162
144
105
98
100
114
122
144
179
196
146
122
103
67
77
99
126
107
103
94
92
78
75
46
44
71
101
107
107
82
74
57
34
28
24
33
56
72
88
99
60
53
32
21
21
69
98
62
68
79
69
29
24
16
23
23
50
98
94
96
71
43
26
6
23
40
85
90
83
66
56
39
38
18
24
52
83
93
99
68
52
11
11
17
33
49
71
79
87
84
62
43
25
16
36
30
58
72
99
77
63
19
27
16
27
71
92
98
69
55
57
34
15
27
33
40
67
96
115
89
34
38
23
3
35
50
75
82
78
66
43
27
15
8
35
48
74
91
78
81
68
29
-5
39
50
36
66
98
83
62
33
14
23
23
16
61
83
95
60
57
32
20
21
14
40
76
81
80
87
66
39
34
23
18
20
62
76
91
82
68
32
14
-1
15
28
50
82
107
82
75
37
5
0
34
27
55
92
90
73
79
53
36
6
26
43
48
69
82
76
64
27
9
16
22
55
66
78
84
70
56
67
39
11
18
37
64
74
91
79
46
29
13
11
19
39
77
72
87
100
76
33
17
11
42
46
49
81
77
64
38
33
27
19
29
52
73
76
76
81
79
15
6
19
20
36
67
90
99
56
27
63
40
25
17
37
76
85
63
70
54
19
20
24
37
47
71
95
104
75
51
15
19
16
12
57
78
78
80
67
47
17
7
26
31
74
68
78
69
52
33
24
19
18
25
43
81
110
93
76
48
19
14
29
31
65
70
88
86
75
36
6
16
19
31
54
87
70
91
65
62
38
-7
33
44
67
70
79
101
86
39
35
36
65
68
80
91
106
95
69
39
41
29
37
54
72
76
81
72
78
55
6
7
12
19
63
94
88
79
68
27
12
4
23
25
70
76
76
67
44
21
17
29
27
56
63
82
83
64
42
12
15
23
13
42
91
86
68
73
52
25
12
27
45
45
70
64
73
90
54
32
33
46
59
84
150
159
176
181
151
122
104
77
72
77
82
94
63
42
25
3
-13
-34
-17
11
39
48
23
32
12
0
11
6
30
58
80
93
76
43
32
29
21
27
49
68
80
95
87
57
41
25
18
17
37
43
83
111
90
71
55
16
15
31
42
74
87
103
70
62
49
27
28
35
29
84
104
102
94
81
71
23
21
25
51
89
92
126
98
55
38
87
49
42
65
82
89
91
108
77
66
34
39
66
73
119
137
120
119
106
86
81
71
73
96
117
147
161
155
108
91
109
100
99
121
148
170
164
162
164
125
119
137
138
140
148
187
190
166
146
138
113
116
132
141
153
170
193
164
119
110
95
112
107
103
114
141
134
120
94
73
51
42
48
74
103
124
116
97
77
55
24
32
54
73
75
86
103
98
80
56
43
19
30
67
69
106
109
72
41
53
37
18
40
70
94
84
66
80
61
40
25
30
22
70
79
87
96
103
64
38
34
37
46
62
86
96
90
69
56
31
24
28
37
77
86
96
75
115
45
21
27
41
58
71
87
109
81
72
38
33
38
43
62
89
87
69
87
80
47
35
27
29
43
68
91
91
72
70
54
44
32
29
48
75
82
97
85
77
27
17
14
28
54
78
95
111
93
56
42
7
15
19
51
64
82
84
74
58
47
11
32
33
44
56
68
105
90
62
40
29
46
49
47
71
83
83
77
64
25
6
22
32
56
68
84
85
83
45
19
12
19
34
61
79
92
75
59
56
31
20
10
35
62
84
96
98
102
41
19
27
23
9
55
60
70
71
68
47
52
20
17
26
50
57
70
95
89
54
22
19
35
54
43
62
79
80
51
35
24
15
17
37
61
81
86
86
51
38
4
15
10
41
65
92
87
78
67
49
34
11
30
39
63
86
97
58
62
31
8
13
8
36
69
83
83
52
50
33
24
19
17
72
66
74
96
77
63
40
25
13
43
48
63
84
77
69
52
17
28
18
32
50
54
76
96
95
43
27
23
12
25
59
64
92
102
74
51
49
37
39
28
71
87
85
98
81
66
48
28
27
50
87
85
86
109
88
47
28
2
-2
39
57
84
87
85
52
28
18
22
36
30
66
72
75
80
65
46
29
2
-2
26
46
85
89
73
60
57
11
13
8
32
37
71
80
70
65
45
25
14
18
23
55
59
83
90
82
44
39
15
-4
40
74
131
139
140
117
118
96
113
143
126
155
151
133
121
66
19
12
-2
-2
10
21
12
42
21
14
11
-29
-24
3
13
68
64
80
70
80
41
13
12
27
41
60
71
82
56
58
38
30
24
47
39
66
88
82
77
62
41
19
25
29
58
88
66
95
76
63
37
25
36
54
63
81
96
90
83
67
51
22
34
61
54
77
79
87
115
86
46
36
27
49
64
89
108
101
94
70
55
48
50
60
90
118
125
123
107
79
50
56
63
72
110
138
153
148
143
108
90
102
100
108
139
146
166
159
152
135
107
93
109
143
170
185
188
202
178
148
128
110
108
132
145
162
175
185
154
132
129
91
94
107
135
151
138
119
131
98
60
61
56
71
82
124
106
97
92
46
34
41
56
68
84
93
102
92
75
56
25
18
44
52
67
94
90
81
67
43
41
19
44
61
68
114
95
78
51
45
26
16
27
73
96
88
98
79
65
52
23
2
46
56
79
88
90
83
55
53
45
37
36
58
84
80
93
86
61
45
37
24
24
60
90
90
87
84
66
34
31
72
41
69
73
65
76
55
56
45
19
25
37
58
74
82
78
69
70
37
27
33
50
43
63
72
81
72
51
32
18
13
35
55
80
99
76
70
42
15
1
26
53
47
84
104
83
81
52
12
27
22
42
60
82
75
74
61
49
33
10
18
27
75
71
105
79
58
38
2
25
40
38
53
76
87
78
60
24
7
15
29
26
52
84
84
75
71
37
20
20
22
40
69
66
81
67
64
49
25
21
33
53
71
88
73
68
62
67
31
8
17
34
64
91
80
69
69
51
30
22
23
47
71
87
108
78
33
8
13
13
37
44
58
92
93
68
58
21
12
14
29
58
84
71
77
83
67
36
28
29
29
61
96
86
73
65
37
41
-3
53
40
35
67
88
82
77
58
34
19
28
26
52
76
79
71
74
50
22
18
12
20
63
75
77
73
76
54
37
20
34
43
61
81
103
80
86
76
25
12
40
65
78
75
73
85
74
53
38
41
31
52
78
100
122
93
72
43
30
14
23
16
67
79
81
82
67
31
29
11
23
45
66
83
86
46
71
33
11
7
28
45
67
71
92
63
56
31
32
10
24
42
72
68
64
57
54
22
18
9
29
35
62
92
79
65
75
23
15
-6
25
44
118
129
112
132
114
106
106
112
133
138
140
139
116
98
66
40
-6
-10
-2
6
21
25
30
25
14
-8
-14
-13
1
29
54
69
63
63
35
24
1
12
26
60
76
70
92
70
25
58
30
16
8
40
56
79
64
72
40
36
35
29
24
59
71
78
80
70
48
22
3
25
36
60
68
84
90
76
48
25
7
18
36
67
89
87
93
79
59
47
34
30
53
70
94
107
90
80
46
42
37
43
59
86
95
94
103
105
59
46
53
53
68
116
122
140
124
113
85
65
69
79
103
124
137
165
165
129
105
96
94
102
124
161
163
172
168
151
131
104
111
109
120
137
168
198
169
137
84
94
68
83
117
125
132
134
111
100
82
59
35
57
70
90
102
112
99
74
44
40
33
31
51
61
81
93
83
64
30
19
27
35
72
71
68
93
69
44
12
31
27
23
51
87
74
74
74
43
12
16
28
19
41
102
113
69
49
51
27
0
25
38
66
87
91
82
63
24
24
10
11
27
54
98
93
72
81
30
18
21
19
27
48
72
90
69
49
47
29
36
11
29
74
61
73
70
73
66
37
19
2
25
59
73
53
91
52
28
22
1
11
25
61
79
93
74
65
31
-5
-8
9
35
71
76
84
62
58
20
9
7
25
39
64
88
95
77
43
26
16
17
4
42
56
55
82
76
58
25
1
8
13
29
66
63
77
66
24
21
25
11
-3
27
58
75
68
62
47
36
19
14
41
43
41
67
81
52
50
11
-2
7
19
43
88
103
83
68
26
-1
1
11
28
31
66
80
65
64
39
22
14
2
8
46
70
74
59
65
42
15
9
16
24
64
65
76
73
63
30
1
-6
0
33
67
85
71
77
47
36
1
-25
36
14
41
60
68
73
58
36
1
7
23
25
59
49
75
74
58
46
18
4
-6
28
58
60
75
59
58
25
11
7
18
28
54
71
64
85
47
39
11
5
16
45
59
51
53
67
65
26
-3
2
10
36
61
66
81
84
67
42
4
20
23
29
68
102
85
81
58
39
32
2
24
40
68
78
66
55
61
55
23
12
16
29
72
79
63
47
47
21
4
15
25
38
60
56
76
64
43
14
6
8
25
51
46
59
79
61
31
13
4
-2
7
5
50
75
66
55
30
39
12
9
32
55
58
71
73
53
54
26
31
45
68
103
149
136
167
179
134
106
83
74
60
64
75
74
48
27
3
-40
-54
-24
-24
-13
12
30
46
45
8
-7
-2
9
9
59
66
64
68
69
27
19
-1
6
16
46
66
76
74
80
27
-4
20
23
26
61
74
69
76
62
21
-5
15
23
42
73
70
84
73
59
26
4
12
23
28
50
70
78
69
71
36
10
-4
30
38
70
74
71
75
54
43
19
19
26
59
79
108
110
103
46
43
23
33
47
79
87
108
138
93
73
36
41
58
62
73
122
142
143
134
100
75
61
73
91
106
129
155
139
139
113
99
103
92
122
138
129
164
162
144
132
104
85
90
120
124
133
173
169
127
93
80
62
81
88
76
118
122
107
90
57
37
41
51
53
73
67
73
85
63
35
10
-9
22
35
42
76
70
82
41
29
8
-3
6
25
50
51
45
57
72
33
29
0
16
23
42
68
76
72
60
40
-11
6
3
15
36
69
78
80
53
14
-19
-11
25
32
68
70
68
42
51
10
-12
-10
19
26
66
54
73
71
33
23
22
-12
9
36
68
60
52
36
45
9
8
-2
4
51
60
58
52
70
29
30
-8
9
2
20
34
73
53
53
26
-2
-12
-11
4
25
56
67
56
46
18
-13
-24
-15
3
39
42
53
72
44
19
-2
-3
-17
0
21
26
49
81
37
-6
-11
-14
8
6
40
60
72
48
33
4
-23
-17
-7
9
22
38
44
45
34
11
-13
-19
-23
-8
23
46
46
43
45
-6
-34
-24
-5
5
31
42
34
34
45
1
6
-14
-15
-8
13
36
59
66
48
8
0
-36
-24
-5
32
31
31
39
26
-3
-20
-11
-15
5
27
27
41
14
14
-1
-13
-29
-19
5
10
65
57
32
22
-8
-18
-38
-19
3
61
46
52
28
9
8
-14
-39
-12
2
32
36
63
49
38
-6
-23
-34
-21
11
33
36
53
41
-5
-16
-19
-30
-2
30
25
27
31
10
-6
-7
-11
-14
2
29
47
49
73
43
18
0
-16
-19
-7
31
49
54
46
34
37
22
1
-29
-8
35
44
62
42
18
8
-18
-30
-23
-12
-3
40
41
38
17
-19
-8
-32
-11
-25
2
39
51
45
35
11
-15
-48
-36
-10
14
21
38
48
21
1
-47
-37
-28
-24
20
30
34
34
21
-1
-26
-39
-37
-19
23
29
32
18
17
13
1
-12
5
19
55
78
109
115
123
103
79
63
50
37
42
52
43
10
-15
-41
-75
-58
-53
-54
-22
-14
4
-1
-8
-21
-63
-66
-41
-17
14
58
32
12
6
-22
-9
-20
-15
-19
24
33
53
26
20
0
-24
-35
-34
-18
25
39
46
36
31
-8
-31
-36
-24
-6
34
39
39
23
9
-18
-16
-21
-14
20
37
41
48
39
23
-6
-34
-20
-7
20
51
48
41
33
6
-1
-1
-18
5
29
57
62
68
45
17
4
0
6
21
31
51
70
82
60
47
29
12
33
31
63
91
83
88
85
82
64
36
46
83
99
102
120
112
97
79
55
67
74
78
128
125
151
139
123
104
92
58
64
83
140
120
106
116
113
75
35
36
69
58
95
80
80
81
82
37
21
3
12
20
15
57
104
64
33
10
-10
-17
-7
14
34
48
54
40
29
-1
-15
-34
-7
-9
28
56
57
31
18
16
-5
-46
-23
12
34
50
67
57
28
-50
-26
-10
-13
5
27
48
52
40
21
-2
-15
-32
-10
16
46
55
65
24
-1
-10
-22
-3
-1
26
30
36
48
39
13
-26
-15
-12
-6
13
28
47
61
44
-4
-9
-12
-10
-10
4
28
48
54
40
15
-16
-17
-32
-18
12
35
39
28
25
15
-15
-29
-28
-3
27
46
54
48
23
-9
-19
-32
-30
-21
2
48
55
39
47
18
-24
-28
-21
-13
-1
31
34
26
25
-22
-29
-18
-13
-25
9
29
34
43
34
-16
-44
-34
-21
-11
23
49
56
21
26
-2
-24
-45
-28
-12
24
26
38
23
11
-24
-23
-21
-24
-4
34
37
49
34
10
-27
-8
-25
-20
-7
24
44
26
28
16
-11
-14
-13
-25
-5
38
55
40
28
-13
-33
-29
-23
-21
-17
26
46
55
32
19
-8
-34
-35
-22
16
33
40
35
33
19
-9
-24
-17
-9
12
44
65
60
52
14
-3
-3
-13
-18
6
32
49
49
44
28
-15
11
-14
-35
15
47
36
22
39
9
-33
-32
-15
-15
13
25
32
25
25
23
-10
-37
-25
-12
5
15
30
26
21
-7
-12
-12
-14
-18
-6
5
39
30
18
-14
-30
-10
-40
-14
7
24
34
24
7
-8
-17
-27
-27
-3
19
39
54
70
69
61
43
69
77
104
135
122
148
93
53
8
-35
-56
-54
-50
-22
0
-3
-25
-28
-50
-99
-95
-70
-41
1
23
28
28
16
-19
-31
-33
-17
-5
47
21
43
14
-5
-16
-15
-2
-14
-6
12
32
50
24
22
-13
-32
-20
-7
9
21
46
36
25
15
-11
-15
-21
-19
5
47
61
60
26
8
-11
-34
-15
-3
10
18
53
51
38
0
-11
-13
9
-11
20
47
48
51
48
19
0
-15
-15
7
46
55
77
64
74
51
16
7
1
19
50
68
79
102
95
66
46
28
28
37
80
97
120
129
99
68
56
59
64
100
117
125
135
131
135
86
76
45
72
81
120
129
132
126
97
70
50
53
59
62
101
97
107
82
80
42
19
10
39
33
42
87
84
50
31
12
-23
-21
-7
6
27
35
54
49
38
2
-29
-14
-22
-5
34
53
60
30
14
-14
-22
-27
-8
8
27
50
52
30
13
2
-21
-36
-13
29
41
47
36
40
4
-5
-18
-32
-18
35
34
53
38
14
-3
1
-20
-18
-5
21
40
41
53
17
17
11
-17
-28
-13
16
45
48
40
26
8
16
-13
-32
-11
16
44
38
37
37
15
-12
-32
-41
-29
22
39
53
36
25
8
-31
-36
-25
-6
19
37
49
38
30
-7
-19
-37
-28
-16
39
32
53
29
33
14
-17
-38
-37
-13
21
27
40
48
37
-3
-25
-23
-23
-23
28
32
34
23
38
-3
-38
-44
-22
-3
13
29
52
41
16
-4
-28
-38
-14
6
8
28
24
33
23
9
-11
-19
-14
-10
16
35
29
15
7
-22
-28
-17
-12
-10
35
39
39
24
14
-21
-12
-27
-18
-8
11
29
22
43
23
-17
-48
-29
-14
4
13
8
30
32
30
10
-27
-30
-13
9
23
57
54
22
-1
-16
-22
-21
-23
-7
25
35
40
33
5
-26
-29
-24
-11
9
23
48
50
24
18
5
-27
-25
-8
10
34
47
47
46
39
-7
-9
-10
-8
18
33
50
55
38
16
11
-16
-16
1
16
39
55
42
12
-2
1
-8
-16
-10
13
33
71
43
29
-14
-27
-21
-28
-4
13
32
57
40
17
2
-46
-39
-29
9
49
36
28
26
35
-7
-38
-39
-17
-4
13
19
32
37
33
-9
-16
-15
4
23
28
23
52
48
17
10
0
9
53
67
108
155
157
154
124
86
43
16
-3
8
14
42
23
-13
-26
-76
-78
-69
-58
-31
-14
4
19
24
7
-19
-43
-24
-12
-11
23
43
56
39
42
2
-10
-16
5
14
18
49
31
37
38
-4
-29
-22
0
12
23
50
49
27
17
-10
-4
-12
-21
27
34
50
50
49
17
3
-13
-5
-4
12
37
52
58
52
5
-11
-12
-4
-2
31
61
83
74
37
51
-21
-5
-1
19
48
74
66
76
83
60
19
-4
6
44
53
71
87
84
82
53
50
40
14
33
73
98
117
115
90
82
75
56
72
70
98
119
140
147
141
72
94
74
82
94
131
140
151
135
109
91
103
73
50
67
99
108
121
105
100
69
28
25
42
39
60
86
85
67
33
8
5
17
17
33
35
49
52
35
36
12
-8
-36
-14
34
43
31
54
56
36
-11
-16
-17
-30
7
7
47
33
41
35
-19
-22
-26
2
18
38
42
40
15
-16
-7
-6
-12
-21
29
41
33
41
37
10
-13
-7
-5
-35
-17
26
57
55
26
2
-21
-9
-26
-8
15
39
47
50
3
3
-10
-23
6
3
0
8
38
41
17
-6
4
-19
-29
-25
14
31
18
13
23
0
-43
-21
-30
-3
28
25
33
5
13
3
-36
-23
-24
-5
7
20
40
7
17
-7
-32
-39
-35
-12
18
32
35
28
-8
-43
-32
-9
-30
-26
-1
30
25
21
13
-21
-35
-28
-22
-22
15
32
34
12
8
-30
-48
-40
-27
-12
-2
20
30
21
9
-30
-39
-36
-26
-13
17
8
19
13
2
-19
-33
-34
-25
-10
6
12
18
20
9
-22
-44
-47
-48
-18
46
17
38
21
8
-8
-31
-45
-49
-22
9
19
26
13
-13
-26
-46
-49
-32
-26
12
42
16
11
8
-31
-24
-32
-24
-2
5
16
27
15
-4
-32
-59
-54
-17
-16
27
34
14
-2
-13
-21
-40
-48
-37
-20
23
35
26
22
11
-22
-46
-30
-41
-17
9
26
26
14
-21
-49
-54
-46
-27
-6
17
37
22
11
-7
-44
-39
-35
-22
22
4
-1
14
20
-4
-42
-49
-34
-6
-4
13
29
19
3
-3
-28
-15
-26
-44
11
18
-3
5
25
-2
-30
-30
-13
6
15
20
32
22
7
7
-3
-24
-26
-27
11
24
32
25
4
-11
-37
-56
-54
-25
11
19
39
17
-6
-22
-43
-40
-37
-16
11
31
27
21
-14
-43
-64
-57
-22
-26
-9
25
28
-2
4
-21
-47
-39
-36
-15
26
30
24
5
-25
-47
-52
-44
-30
-21
3
14
24
-3
-4
-12
-18
-14
1
43
71
85
136
115
106
77
45
41
13
4
16
21
7
-29
-46
-67
-99
-118
-76
-56
-34
-17
-20
-29
-51
-44
-47
-43
-32
-25
13
15
9
23
-24
-36
-64
-52
-29
-1
26
33
11
10
-30
-28
-48
-48
3
11
1
18
12
-8
-19
-20
-46
-24
-29
-22
24
19
7
20
-22
-18
-24
-56
-22
-1
23
48
20
13
-22
-30
-19
-30
-12
21
32
33
21
-6
-27
-31
-15
-13
-27
36
37
64
31
14
-5
-3
-7
-2
1
24
43
68
45
54
20
15
4
4
24
51
74
97
69
61
40
28
44
27
56
80
107
91
85
74
61
52
45
73
77
112
123
111
101
83
58
49
60
72
100
98
97
89
82
85
55
35
25
19
40
66
76
54
53
36
-11
-1
-21
-18
14
42
54
38
19
-4
-28
-45
-47
-36
10
20
23
28
20
4
-15
-36
-33
-34
-6
20
22
28
6
-18
-27
-38
-24
-20
-2
26
16
11
19
-10
-16
-52
-28
-30
12
26
29
6
13
-8
-47
-32
-52
-39
0
21
27
4
1
-6
-34
-29
-10
-4
5
22
11
-2
9
-19
-45
-55
-34
-33
13
16
7
19
17
-4
-37
-45
-43
-14
18
14
45
26
-4
-16
-55
-49
-32
-13
15
20
10
15
-9
-56
-51
-60
-45
-27
15
14
22
21
-7
-32
-69
-45
-32
-18
21
31
18
14
-22
-32
-44
-49
-45
-24
0
16
31
-5
-20
-32
-42
-46
-16
-25
21
16
2
10
-15
-47
-38
-40
-32
-23
-7
22
25
-7
-27
-52
-62
-42
-27
-22
-4
12
12
-6
-24
-43
-45
-58
-42
-23
11
24
20
12
-19
-38
-69
-53
-39
-1
30
7
7
3
-25
-38
-46
-48
-38
-16
10
14
25
-2
-35
-30
-32
-54
-48
-10
5
18
1
-16
-33
-45
-57
-50
-47
-12
9
29
-1
0
-18
-57
-49
-46
-23
7
-2
-15
-3
6
-21
-40
-53
-53
-28
16
15
21
-7
-16
-36
-57
-62
-24
-25
6
37
9
-2
4
-39
-40
-50
-43
-34
-1
8
22
8
-11
-36
-38
-60
-24
-12
-2
17
23
2
-5
-36
-42
-44
-36
-14
10
12
17
11
-14
-29
-59
-36
-34
4
21
37
30
10
0
-26
-47
-44
-32
-10
28
47
23
19
-10
-19
-33
-26
-28
6
23
26
22
14
0
-8
-48
-39
-25
-5
9
18
43
18
-12
-29
-49
-54
-32
-21
-3
28
26
11
-14
-62
-49
-20
-38
-32
-8
50
34
12
-28
-33
-53
-72
-37
-8
12
23
10
10
-16
-57
-59
-31
-38
-22
21
29
25
26
-17
-61
-64
-51
-27
-16
6
32
23
43
29
27
18
25
68
134
133
134
113
91
22
-2
-18
-50
-47
-44
-27
-34
-47
-48
-72
-102
-99
-81
-66
-16
11
19
5
8
-29
-63
-63
-35
-15
-6
23
23
13
-9
-14
-30
-46
-27
-2
19
13
10
-4
-2
-10
-42
-45
-46
-10
18
28
33
21
4
-3
-28
-54
-35
2
23
31
42
24
-10
-25
-22
-25
-23
-14
26
52
36
24
3
-13
-27
-21
-10
5
22
46
56
27
10
-10
-17
-27
-10
28
53
52
78
59
27
-13
-14
-8
3
24
59
72
91
67
31
5
27
21
31
69
85
97
111
97
65
45
33
47
78
105
131
119
131
119
64
62
64
60
80
111
144
130
116
115
85
35
50
64
67
69
90
135
112
94
49
18
13
27
38
59
76
66
49
46
6
-20
-22
-9
17
40
48
34
36
22
-18
-19
-35
-8
-12
21
46
51
38
30
-1
-29
-51
-23
-10
14
18
34
49
4
16
-2
-47
-24
-10
9
15
29
24
18
-23
-36
-15
-22
-1
15
29
28
37
15
-13
-26
-26
-10
-10
20
37
30
19
15
3
-9
-45
-28
4
42
43
29
19
7
-4
-41
-38
-16
25
26
30
17
8
4
-14
-26
-22
5
-2
23
24
25
29
-12
-27
-24
-11
-36
-20
27
40
26
6
-18
-31
-40
-42
-9
-1
38
40
40
3
-24
-26
-31
-32
-11
-3
27
40
26
11
-17
-40
-32
-26
-26
3
20
18
16
11
-21
-25
-18
-13
-16
5
7
37
35
16
-26
-30
-51
-16
-8
-2
22
34
19
13
-13
-37
-52
-30
-17
8
36
28
26
14
-5
-27
-44
-40
-18
17
21
20
13
12
-1
-32
-37
-28
-23
-2
19
30
17
24
-15
-37
-29
-16
3
19
24
32
16
3
-5
-24
-51
-23
-6
8
22
28
28
-5
-30
-46
-30
-9
-7
26
33
39
18
-8
-20
-34
-29
-16
4
3
33
29
22
-13
-19
-50
-29
-13
22
41
37
2
9
17
-20
-33
-44
-28
-1
8
25
23
27
-7
-27
-31
-30
-21
16
35
35
41
24
-15
-32
-48
-43
-25
4
37
40
26
1
-23
0
-14
-15
-3
7
9
23
34
8
-12
-37
-31
-22
-13
-18
42
33
28
6
1
-36
-22
-28
-20
8
37
31
34
35
20
10
-1
4
-3
21
61
51
21
15
-7
-16
-19
-24
-4
37
44
45
47
12
13
-21
-25
-25
-11
10
19
32
20
5
-25
-40
-23
-9
-13
18
40
40
2
4
-21
-32
-27
-29
-11
12
41
34
19
0
-27
-39
-19
-42
-6
44
46
33
30
7
-19
-41
-42
-16
1
-5
33
45
30
29
-12
-16
-26
4
11
36
57
77
72
64
44
52
66
99
116
98
103
97
35
10
-26
-63
-71
-61
-39
-21
-5
-12
-28
-43
-58
-53
-50
-45
-14
23
31
33
6
-11
-27
-29
-20
-9
21
27
37
46
27
-26
-28
-35
-19
-3
14
40
34
37
35
3
-7
-20
-14
10
22
34
51
51
31
-5
-32
-17
-24
-4
24
37
46
52
36
-8
-17
3
4
-10
38
54
46
32
33
6
-14
-7
0
8
27
48
58
67
33
24
-5
24
15
8
38
78
88
66
48
20
31
30
46
40
64
88
94
83
77
44
27
44
47
66
96
121
111
117
88
67
75
76
72
86
122
140
131
128
106
103
74
77
81
99
137
138
131
126
107
62
40
49
62
81
116
115
121
78
52
37
12
36
43
46
69
74
67
61
39
14
-2
-12
5
42
55
31
34
36
13
14
-8
-32
-15
28
37
57
52
35
23
-26
-23
-23
4
37
39
28
21
47
7
-11
-18
-1
-7
39
60
65
36
12
-6
-14
-16
-26
-6
48
48
37
52
34
14
-9
-10
-15
2
36
42
47
46
15
-13
-17
-6
14
-2
28
53
40
50
30
-12
-29
-9
-22
-13
29
47
52
30
23
-12
2
-18
-20
0
39
39
42
44
19
-35
4
-21
-43
9
28
32
50
25
10
-4
-31
-39
-23
-1
25
47
57
12
20
-8
-36
-34
-24
11
20
35
37
11
11
-15
-23
-13
5
6
15
22
23
13
9
-21
-36
-42
-27
-4
22
27
63
23
-21
-26
-32
-24
-23
-6
21
43
47
24
-1
-19
-32
-37
-19
-5
21
45
64
42
2
-50
-46
-29
-29
-2
27
34
24
20
-2
-20
-10
-35
-16
9
17
47
42
18
-16
-24
-34
-45
-25
30
32
52
30
31
14
-28
-45
-41
-8
20
10
32
23
11
-3
-31
-41
-24
-14
37
18
41
17
39
-13
-38
-21
-34
-17
35
33
59
50
11
-33
-38
-46
-6
-1
14
28
51
32
13
-10
-15
-43
-36
11
33
33
55
35
0
-18
-35
-25
-24
2
10
39
55
22
8
3
-21
-20
0
3
21
34
29
36
34
2
-16
-18
-10
5
39
43
68
48
17
-5
-10
-11
-2
5
41
45
39
30
11
-1
-9
-19
-17
3
37
30
33
17
-12
-11
-19
-25
1
12
23
49
43
35
-8
-19
-26
-33
-18
7
4
21
62
19
-2
-26
-30
-14
-16
-8
11
26
43
45
-5
-17
-39
-56
-29
4
26
19
27
8
-11
-22
-22
-27
-21
20
2
46
77
54
53
17
25
75
92
130
139
109
83
58
24
-17
-27
-52
-25
-32
-15
-17
-37
-46
-60
-77
-88
-57
-43
15
5
15
26
0
-44
-50
-58
-40
-20
7
29
38
14
-4
-9
-48
-36
-37
-4
4
16
32
35
32
3
-41
-34
-26
-13
20
45
20
9
6
-19
-31
-35
-29
-16
25
31
25
11
11
-22
-35
-22
0
-9
41
23
28
29
13
-13
-12
-4
-6
6
19
46
26
15
-8
-4
-20
-20
-15
20
34
38
74
39
25
9
6
-18
28
34
40
59
61
56
32
21
25
12
41
66
80
92
96
100
87
50
40
38
58
84
104
108
105
110
76
65
49
55
52
82
131
117
116
122
80
38
53
47
41
46
83
93
84
84
42
15
7
15
12
30
51
45
41
23
6
-6
-12
-17
-16
14
38
21
25
28
-19
-50
-48
-28
-5
10
19
10
18
14
-10
-56
-56
-43
-15
14
21
50
18
-6
2
-35
-48
-39
-20
1
27
40
25
1
-31
-29
-38
-47
7
10
18
12
24
19
-20
-49
-41
-32
-41
16
32
32
34
9
-37
-54
-40
-11
16
8
16
21
14
-10
-33
-43
-36
-19
-2
1
19
33
12
-9
-29
-40
-35
-20
-2
22
20
10
-1
-18
-7
-37
-43
-31
-26
-5
28
26
10
-19
-38
-46
-38
-36
11
11
19
30
-10
-24
-38
-56
-36
-24
-9
15
35
21
-4
-10
-44
-56
-44
-31
-16
10
24
32
21
-29
-42
-33
-59
-27
3
13
19
13
2
-24
-43
-54
-52
-35
6
21
16
-2
-15
-27
-47
-49
-48
-30
-5
16
27
6
-2
-31
-41
-51
-49
-13
-2
4
2
18
-1
-13
-46
-55
-43
-17
13
2
2
1
-2
-25
-59
-29
-41
-26
-2
8
30
0
-12
-9
-30
-51
-50
-27
-2
2
18
-3
-10
-31
-36
-49
-45
-25
7
36
31
4
-28
-43
-57
-48
-44
-25
12
27
10
-2
1
-32
-44
-49
-30
-14
-6
16
35
43
-16
-43
-47
-46
-37
7
26
18
3
-10
-19
-38
-48
-54
-45
-15
28
25
41
6
-30
-49
-50
-54
-23
-15
5
17
29
-13
-32
-43
-36
-22
-34
-3
8
21
16
9
-14
-33
-53
-25
1
-20
8
30
0
12
-4
-44
-45
-32
-24
0
24
45
32
4
-18
-12
-24
-36
-39
-1
42
35
32
25
2
-15
-43
-40
-15
27
36
19
4
-6
-14
-42
-38
-46
-25
12
11
24
4
19
-23
-53
-50
-40
-27
1
14
18
1
3
-17
-34
-42
-33
-35
-13
13
17
16
-3
-37
-47
-44
-40
-6
16
21
29
19
-20
-43
-38
-40
-42
-15
2
25
23
27
39
0
-12
10
51
66
113
120
126
112
74
57
11
-29
-26
-10
-20
-8
-19
-16
-63
-95
-90
-89
-57
-53
-34
-14
-3
-7
4
-33
-42
-40
-34
-24
29
41
21
14
-15
-32
-28
-35
-20
1
15
22
16
8
-21
-30
-31
-36
-10
13
15
25
29
11
-20
-27
-29
-37
-32
14
26
27
25
5
-16
-13
-51
-26
-8
20
24
38
22
14
-5
-17
-28
-11
-18
13
31
43
40
22
0
-19
-35
-3
15
51
33
35
64
33
7
9
5
2
7
28
65
57
45
32
21
8
-13
21
48
73
94
99
109
63
41
32
30
36
61
101
125
116
107
92
63
54
51
82
79
81
119
117
96
92
76
46
35
62
80
77
101
111
88
74
30
35
37
15
28
57
74
65
73
22
-14
-18
-1
18
18
30
61
71
15
-4
-20
-50
-39
-19
2
12
35
33
17
5
-7
-39
-44
-20
2
19
39
47
3
-8
-29
-40
-18
-3
6
15
38
33
-2
-20
-33
-38
-20
-8
6
13
30
31
7
-22
-33
-14
-19
-16
4
26
29
16
8
9
-21
-19
-8
-24
3
28
6
20
20
-1
-27
-28
-51
-24
7
22
29
9
9
-9
-49
-58
-34
-25
21
38
22
36
3
-28
-29
-42
-35
-23
17
31
12
3
21
16
-17
-40
-29
2
8
31
28
21
11
-35
-48
-22
-26
-14
12
9
17
16
18
-35
-60
-53
-21
-4
-3
20
22
3
-9
-15
-40
-44
-30
-9
19
6
26
30
-13
-33
-29
-32
-34
-15
11
31
22
-7
-8
3
-30
-25
-19
-19
-2
13
31
19
-18
-58
-56
-35
-7
-12
5
15
26
21
-2
-22
-47
-36
-33
9
20
7
11
12
-11
-18
-38
-40
-29
-19
18
26
52
2
-44
-24
-30
-36
-17
-2
3
22
28
10
-29
-29
-37
-32
-27
5
31
49
9
2
-19
-34
-59
-23
-7
8
22
13
15
0
-7
-25
-45
-43
-10
4
14
25
13
16
-23
-41
-44
-26
-31
4
5
11
25
17
-4
-30
-46
-19
5
8
19
43
22
18
-6
-42
-39
-13
-5
11
38
43
33
1
-3
-22
-28
-21
-7
34
50
33
9
-7
-24
-14
-15
-31
-17
-1
19
24
21
-1
-22
-47
-57
-30
-26
-9
32
36
15
1
-29
-36
-31
-32
2
28
30
12
-5
5
-20
-48
-33
-33
-10
8
14
27
11
-5
-38
-59
-40
-28
-16
9
28
31
30
10
-30
-43
-57
-38
-9
9
52
50
53
28
46
33
20
56
116
132
111
82
54
22
-25
-41
-41
-46
-39
-18
-19
-16
-27
-52
-56
-82
-78
-55
-26
-7
9
17
8
-21
-47
-46
-26
-10
3
29
27
28
14
-17
-53
-48
-21
-27
1
13
24
37
14
-20
-16
-34
-21
-13
16
17
27
27
15
9
-26
-49
-31
8
41
40
38
7
15
-6
-17
-25
-13
-6
12
37
21
31
20
-10
-21
-22
0
8
26
22
46
49
20
8
-34
-17
4
3
22
36
54
50
41
24
1
0
11
19
52
83
81
72
40
13
10
9
56
46
88
93
100
88
60
53
64
57
43
72
95
126
127
113
94
49
55
76
76
106
124
107
121
111
87
59
51
60
71
68
86
88
85
89
66
20
23
22
38
40
31
87
56
25
10
-3
-5
5
-10
17
29
49
60
62
1
-13
-51
-53
-5
25
50
26
33
14
-13
-32
-45
-24
-9
11
19
35
39
14
-5
-33
-39
-24
-6
15
30
18
21
24
-12
-27
-57
-26
-23
26
18
30
30
7
-20
-36
-16
-19
-25
7
52
40
30
20
-11
-44
-13
-18
-14
21
38
33
11
3
-23
-14
-35
-44
-27
15
49
28
27
5
-35
-27
-32
-15
-24
1
34
49
21
15
-26
-32
-24
-19
7
8
27
35
23
-14
-33
-46
-20
-18
-14
18
40
27
17
-2
-33
-45
-38
-20
-6
23
23
19
18
-6
-32
-49
-28
-28
-6
14
47
17
4
-21
-35
-32
-30
-18
-9
7
41
30
16
-22
-28
-53
-46
-9
15
32
25
25
42
13
-45
-50
-50
-21
-6
12
28
19
7
-11
-36
-38
-43
-14
23
14
35
34
5
1
-20
-50
-44
-34
-6
25
30
29
32
-9
-26
-43
-16
-16
-6
13
36
13
11
-39
-47
-37
-19
-8
10
19
23
34
9
-32
-48
-28
-26
-19
25
20
26
28
11
-25
-41
-51
-22
-6
15
16
29
0
0
-9
-34
-42
-31
-5
28
27
10
32
7
-22
-43
-38
-13
-25
11
37
36
15
-15
-38
-59
-49
13
4
18
22
34
20
-7
-28
-38
-37
-20
-7
22
41
45
24
1
-45
-61
-47
-12
-9
4
49
48
19
-8
-36
-49
-32
-27
11
39
26
42
21
-5
-19
-34
-46
-14
28
51
32
31
22
2
-22
-14
-23
-12
26
29
36
47
27
22
-5
-26
-34
-17
30
35
32
37
11
-5
-21
-58
-42
-23
16
34
21
12
13
-14
-30
-19
-22
-11
22
28
15
8
8
-4
-23
-38
-37
-16
-1
2
30
27
-1
-25
-41
-44
-30
-19
17
38
32
34
26
-41
-39
-30
-15
-11
28
28
32
35
35
23
14
12
42
76
115
125
129
126
103
49
-7
-17
-3
-12
0
17
2
-9
-50
-65
-76
-79
-67
-28
-11
-5
-14
9
4
-29
-38
-34
-33
-32
4
10
36
34
17
-10
-34
-38
-32
12
25
33
30
20
5
-18
-37
-36
-16
-3
7
51
36
52
27
-36
-38
-30
-6
20
47
39
30
14
-11
-28
-22
-24
-14
1
26
52
28
30
10
-21
-35
-17
2
20
33
41
43
34
-5
-5
-11
-21
-7
32
60
61
68
61
51
-8
-18
-22
21
58
62
73
71
63
40
23
1
10
39
72
105
106
103
89
57
27
45
53
50
91
143
138
118
99
72
59
65
69
87
115
136
116
122
105
70
74
58
60
73
96
114
109
87
85
52
27
28
44
40
60
88
69
57
54
26
-21
-13
0
5
33
44
51
41
20
4
-25
-32
6
17
7
35
35
30
9
-14
-36
-30
-18
1
27
51
53
23
1
-21
-31
-35
-19
16
28
38
30
27
10
-10
-19
-46
-15
-9
22
47
39
33
-3
-14
-43
-47
-27
18
-3
55
29
21
23
-30
-37
-29
-32
-2
36
60
39
11
-16
-27
-30
-34
-15
5
12
47
33
8
-20
-32
-14
-35
-5
5
16
37
24
40
4
-47
-59
-29
-9
5
6
27
36
16
-33
-29
-36
-39
-21
30
24
30
32
31
-27
-42
-49
-49
-21
16
24
15
11
19
-6
-34
-46
-25
-24
-4
10
17
13
9
-26
-22
-54
-30
-16
4
18
4
17
-1
-47
-38
-37
-25
-14
-16
13
24
11
-7
-22
-41
-69
-35
-10
9
25
28
14
-4
-41
-49
-48
-47
-20
8
28
32
-3
-30
-36
-56
-49
-21
-3
-11
24
3
15
-2
-38
-54
-45
-43
-17
8
26
26
6
5
-49
-46
-50
-27
-11
-18
14
13
8
-16
-52
-33
-46
-22
-15
-2
19
18
3
-6
-28
-54
-68
-39
-13
-7
-6
6
26
-19
-28
-52
-40
-16
3
20
10
15
0
-30
-29
-52
-56
-31
-18
10
4
28
12
-23
-36
-53
-45
-32
-11
5
-1
0
1
-34
-53
-48
-41
-39
1
2
6
-7
3
-5
-25
-55
-51
-19
-2
7
19
27
14
-8
-26
-55
-29
-21
32
30
25
15
3
-14
-51
-27
-22
-12
-3
24
24
-2
2
-29
-39
-46
-31
-40
-25
13
7
-18
-21
-27
-66
-67
-46
-25
-3
15
14
9
-17
-51
-73
-64
-48
-29
2
17
5
-11
-34
-47
-51
-63
-45
-27
19
25
15
-15
-33
-50
-63
-58
-50
-28
2
32
30
-2
-30
-48
-46
-55
-18
23
58
79
74
85
90
71
49
38
47
38
45
52
21
-34
-51
-75
-89
-103
-88
-64
-49
-41
-52
-45
-54
-68
-69
-47
-47
-13
1
7
5
-17
-48
-60
-61
-39
-8
7
-8
15
13
6
-37
-35
-19
-20
-45
-26
-16
3
1
-18
-30
-28
-65
-49
-47
-11
4
34
33
-3
-25
-39
-48
-37
-30
12
27
17
-8
2
-30
-45
-36
-25
-32
-2
27
35
17
-7
-31
-44
-17
-30
-27
-10
25
37
16
-8
-11
-14
-31
3
-4
19
37
49
30
27
-14
-36
-27
2
33
52
70
72
69
53
35
10
3
21
41
55
88
98
85
50
49
39
35
32
55
83
114
115
95
67
36
34
60
61
74
91
94
100
98
66
27
15
20
13
26
46
56
65
39
17
-6
-41
-15
19
28
11
34
52
8
-21
-24
-26
-41
-31
-10
-5
31
-1
-17
-28
-53
-56
-54
-45
-12
11
8
-1
13
0
-51
-60
-67
-32
-15
-11
1
42
-8
-38
-58
-54
-45
-45
-7
15
6
2
-3
-39
-53
-35
-50
-29
1
-1
14
-15
-21
-31
-49
-45
-43
-48
-14
15
36
18
-9
-38
-50
-47
-71
-45
-7
18
18
5
-8
-28
-61
-65
-48
-16
-1
0
7
-9
-26
-14
-44
-60
-59
-27
5
17
24
-7
-24
-28
-53
-61
-40
-54
-18
7
17
1
-21
-40
-64
-58
-35
-15
8
-4
-3
1
-28
-51
-71
-45
-32
-23
-1
4
10
1
-32
-69
-44
-46
-62
-40
-19
-2
3
-16
-22
-35
-64
-74
-53
-16
5
1
10
-3
-21
-58
-64
-36
-52
-20
4
14
7
-7
-37
-73
-65
-52
-36
-15
5
1
-9
-10
-28
-38
-44
-48
-61
-22
-8
19
5
-6
-32
-55
-80
-51
-12
-24
-18
8
-3
-5
-40
-40
-52
-75
-54
-21
4
7
-19
-29
-39
-58
-47
-40
-54
-17
5
9
-12
-2
-26
-66
-73
-36
-24
-11
3
8
3
-2
-41
-48
-70
-39
-47
-8
19
21
12
8
-26
-48
-60
-27
-24
8
12
27
29
2
-38
-43
-49
-48
-18
7
22
28
9
-13
-44
-58
-48
-60
-37
-9
-7
12
6
-34
-36
-62
-62
-38
-28
-14
-8
-18
14
-12
-50
-72
-46
-41
-31
-2
1
-3
-2
-18
-49
-61
-52
-31
-27
-28
-12
11
10
-27
-58
-60
-59
-49
-16
4
11
11
-17
-11
-40
-45
-55
-21
9
25
54
57
66
53
54
62
49
43
29
33
57
8
-19
-42
-78
-101
-93
-87
-57
-51
-45
-54
-52
-50
-95
-104
-63
-57
-33
2
11
12
-19
-20
-37
-68
-51
-45
-3
0
12
32
3
-40
-52
-71
-66
-35
-3
5
19
11
-9
-18
-36
-34
-39
-51
-16
-1
22
16
-5
-36
-34
-55
-42
-25
15
9
18
19
-4
-37
-61
-39
-30
-28
2
13
33
5
-2
-31
-40
-28
-7
-3
16
17
31
27
10
-11
-16
-52
-29
8
26
50
53
22
22
1
-24
-22
0
28
55
61
63
57
54
27
17
25
19
55
81
86
85
98
61
45
54
46
43
82
99
126
115
87
68
55
38
48
71
73
99
118
99
80
72
35
18
21
46
40
31
65
64
51
29
9
-5
-19
-20
14
23
22
50
43
-25
-14
-34
-41
-39
-14
12
10
17
5
-25
-36
-43
-45
-31
-5
39
32
11
-12
-27
-49
-49
-49
-32
-10
15
14
20
-8
-21
-28
-57
-49
-24
-3
28
19
7
-2
-22
-55
-50
-42
-30
-9
22
21
11
0
-22
-38
-52
-53
-28
12
22
9
16
9
-14
-35
-39
-19
-26
-7
11
29
5
10
-40
-66
-64
-42
-21
-11
40
26
9
4
-30
-38
-58
-49
-33
10
18
