23
35
35
40
46
42
55
50
63
34
30
41
42
42
28
19
30
40
43
52
42
41
49
45
39
42
40
43
39
41
37
34
36
25
30
33
28
41
52
39
47
43
42
45
33
36
31
38
44
43
34
31
39
27
43
37
37
34
38
44
47
42
34
29
33
21
30
30
31
38
35
43
49
43
41
49
56
60
59
44
40
44
37
38
55
53
47
52
54
49
51
44
35
29
38
43
28
35
22
27
17
30
39
36
31
27
23
38
40
31
33
23
23
23
25
31
36
47
46
36
25
35
27
29
35
32
15
16
10
12
26
59
93
115
129
140
172
200
237
252
251
260
268
251
223
175
142
100
51
35
21
19
29
30
34
30
33
39
33
32
34
39
41
34
34
29
26
29
28
19
37
49
37
33
48
39
30
43
39
41
45
37
39
22
16
34
27
46
43
43
46
45
36
45
39
46
42
40
36
45
42
52
46
43
49
56
45
43
50
51
49
52
54
58
62
66
77
81
74
60
65
64
56
56
65
69
79
93
96
86
96
94
77
89
92
92
102
94
97
94
91
101
98
92
90
91
101
117
100
92
92
91
92
86
89
94
87
71
93
96
88
86
85
83
90
79
67
65
79
71
62
51
54
50
54
48
41
34
37
48
56
50
45
46
32
14
31
34
23
23
31
53
52
42
44
33
22
31
31
27
33
44
48
48
35
26
48
34
26
33
32
25
37
40
50
48
55
41
42
48
42
34
18
26
31
29
33
44
50
47
49
48
54
43
32
33
29
37
43
37
32
32
47
41
40
39
37
46
54
58
57
35
27
22
31
33
35
43
44
50
43
49
34
41
31
39
45
37
23
32
29
27
30
37
37
47
42
41
31
37
40
32
36
31
26
38
46
38
46
52
41
32
46
47
46
43
47
49
50
45
47
43
41
34
37
40
39
29
46
42
40
39
34
18
29
19
18
21
16
28
29
22
19
23
16
21
32
16
28
40
37
37
39
29
18
18
17
27
25
25
27
39
38
25
4
15
31
34
43
79
92
123
137
165
204
252
253
249
248
245
225
209
160
118
72
51
35
6
10
17
15
20
29
17
28
22
26
34
40
40
29
30
39
36
24
27
29
31
23
29
40
48
38
30
35
42
36
42
23
33
26
33
40
29
30
25
39
39
41
34
29
38
44
55
48
44
37
35
39
55
50
42
57
52
55
52
44
47
42
42
50
52
55
57
62
66
56
62
68
59
61
64
71
68
67
73
70
76
78
90
86
84
84
84
79
73
79
91
92
88
88
87
92
86
90
96
89
87
82
78
72
83
78
68
79
84
103
90
84
81
59
64
57
54
56
44
48
50
52
47
41
46
44
49
30
20
28
31
29
30
35
27
28
35
44
34
27
37
41
33
23
28
30
29
10
12
21
33
33
41
29
32
37
27
22
26
24
30
35
40
48
51
32
29
41
33
29
24
10
19
29
39
40
43
51
53
31
35
28
34
33
26
31
28
26
33
40
38
46
45
50
37
21
31
32
24
25
27
31
47
42
32
34
34
41
34
20
36
28
33
39
26
24
33
28
28
37
35
41
40
43
27
27
25
20
20
31
28
33
32
29
39
32
32
35
38
51
47
51
47
43
37
28
39
47
52
54
38
35
27
29
21
33
30
38
36
41
33
24
30
32
20
13
17
23
33
28
38
25
18
22
19
10
29
31
18
18
16
15
16
29
32
28
30
24
23
24
15
6
4
18
28
43
79
104
109
139
168
206
234
252
267
263
273
239
217
161
112
62
23
4
3
14
30
36
40
37
28
34
22
37
40
37
39
35
32
30
14
26
29
21
33
32
30
35
30
25
33
38
35
42
23
24
37
37
33
40
23
31
37
39
41
48
47
46
44
55
55
47
49
46
39
41
51
59
40
46
59
62
65
53
43
43
48
47
48
47
44
50
53
70
61
78
69
65
72
72
68
62
66
71
74
75
84
82
76
96
93
89
94
83
90
85
90
78
83
89
91
99
95
82
77
78
84
85
95
101
87
82
69
81
76
65
67
68
70
67
60
51
58
60
49
52
52
49
60
50
35
37
31
25
28
26
28
23
17
24
21
36
44
39
32
39
33
28
29
17
19
10
16
22
25
34
21
24
41
35
41
31
29
26
16
11
24
30
27
17
24
41
44
44
37
37
34
32
28
17
15
11
11
19
34
33
39
45
44
44
43
38
41
35
34
30
37
39
26
31
40
36
39
34
33
38
31
39
41
35
34
26
33
27
28
22
30
31
16
21
23
29
40
28
32
34
38
42
40
35
26
23
21
16
17
28
30
37
42
48
43
43
28
37
34
37
35
35
38
45
49
51
49
33
37
25
26
25
21
10
11
5
11
14
13
37
39
28
27
20
27
29
28
19
20
30
28
24
15
9
9
7
6
12
12
21
24
20
17
15
2
11
6
6
12
51
75
79
115
122
143
184
222
241
245
253
255
236
216
170
126
68
28
0
0
10
18
21
23
12
4
19
28
21
17
19
23
26
34
22
21
8
10
21
20
25
20
24
33
26
14
26
14
9
5
15
11
25
32
25
26
41
45
41
28
15
20
32
24
22
26
26
32
29
32
33
42
56
54
28
18
35
35
26
27
39
44
38
42
52
54
53
45
41
63
56
48
55
58
58
58
65
65
42
48
58
68
53
64
72
87
84
72
76
83
74
79
77
72
71
76
64
76
78
73
66
74
64
61
67
73
79
68
67
56
58
64
55
48
44
47
40
54
52
57
44
40
38
36
40
27
31
3
11
10
13
22
28
38
44
39
34
31
18
2
6
10
16
20
30
24
14
12
21
23
29
15
12
19
14
25
13
16
20
20
19
17
13
13
18
19
14
20
20
30
23
33
23
25
36
19
17
17
31
34
30
35
26
28
22
23
13
17
21
13
21
24
13
12
21
28
27
27
25
33
32
16
25
37
33
34
25
22
16
12
14
25
28
35
38
35
27
26
26
21
26
22
13
13
6
4
27
44
30
28
28
28
27
34
42
37
39
46
44
51
40
39
33
26
14
18
25
17
19
18
16
10
8
8
22
26
24
25
12
-3
16
11
3
17
15
9
9
10
4
9
28
28
21
4
19
4
10
16
10
18
12
5
11
18
15
16
34
57
84
116
132
164
207
234
262
239
249
264
241
220
167
118
70
28
8
-1
4
15
25
29
32
20
29
29
18
4
8
23
33
31
22
31
30
38
20
-1
13
15
11
7
7
16
30
26
32
30
38
26
21
27
32
34
16
24
30
31
41
25
21
27
34
32
35
22
30
33
30
39
35
30
46
33
28
32
39
32
39
54
57
42
47
40
24
50
64
47
58
67
60
59
65
61
63
67
69
75
62
75
66
67
81
64
60
70
69
74
85
87
81
82
83
79
78
62
71
74
81
78
80
81
74
77
74
67
75
66
56
55
57
51
63
54
49
31
36
26
32
46
30
42
23
23
24
31
37
37
44
36
30
26
19
22
25
21
19
28
28
16
27
28
30
25
23
17
18
12
20
26
27
23
39
30
29
31
14
11
14
22
16
23
16
23
33
33
25
21
39
31
29
33
30
35
27
26
33
25
39
32
29
24
25
32
38
18
32
46
35
32
28
29
16
21
29
35
25
21
33
29
19
30
34
31
30
21
24
27
31
27
33
29
25
30
28
24
32
29
29
21
26
25
26
29
35
33
35
28
21
18
22
37
48
53
53
38
31
31
36
31
39
36
30
42
23
19
18
19
19
19
11
31
23
5
3
8
13
24
23
12
26
38
31
19
32
16
14
15
22
23
11
5
9
19
19
13
11
12
13
28
27
23
36
52
82
105
123
155
204
244
265
254
243
250
239
215
190
128
75
41
21
20
19
19
12
7
16
25
16
23
13
15
16
15
25
27
24
27
32
33
19
17
18
22
15
17
26
14
29
23
26
44
26
21
25
22
19
34
31
31
30
24
30
26
27
27
13
26
34
38
44
30
31
26
51
42
57
39
25
34
46
31
35
43
48
56
40
50
53
56
55
56
59
53
55
53
51
59
56
57
59
69
58
71
72
68
78
77
77
72
83
87
88
86
73
67
62
67
69
72
70
79
85
76
78
79
78
73
69
69
60
61
45
44
50
42
50
55
47
46
38
30
29
35
40
34
13
3
16
19
29
13
24
16
0
17
23
15
5
12
14
18
12
17
8
8
1
17
26
25
3
18
18
12
10
17
11
9
19
18
3
17
13
10
20
32
25
18
12
22
35
25
14
21
23
22
20
21
32
23
26
12
19
41
28
31
27
21
23
33
26
15
17
6
24
19
3
24
17
14
17
22
28
22
7
31
35
14
31
26
17
25
18
13
20
22
18
5
18
25
16
29
31
21
26
30
31
25
18
11
26
27
37
34
37
32
38
34
24
26
20
17
22
20
11
9
-5
8
21
23
14
9
11
14
6
17
15
13
13
9
14
24
4
-6
7
16
20
13
10
11
11
16
16
11
8
1
11
7
20
19
36
61
97
114
135
159
189
232
244
252
247
253
251
205
159
132
73
14
13
14
15
8
15
0
15
26
20
20
23
18
21
33
36
36
40
19
20
13
14
20
19
21
35
23
19
36
41
39
32
29
22
16
24
31
19
23
23
29
35
19
25
29
41
39
24
32
31
19
30
42
36
42
40
39
45
48
43
35
43
57
53
36
40
41
43
48
43
43
44
49
41
58
59
67
69
67
64
63
68
74
76
81
75
76
70
79
84
79
69
79
81
81
83
77
75
81
74
80
71
69
75
56
61
83
78
68
53
64
69
66
56
58
51
50
49
67
62
38
41
46
46
34
32
24
23
25
31
31
19
7
4
28
39
44
30
16
31
35
30
20
22
30
27
18
17
10
17
19
19
26
35
25
30
29
28
25
29
38
38
41
44
38
13
29
27
26
27
28
42
34
33
28
34
49
34
26
25
23
32
35
39
42
39
35
27
29
32
35
34
20
14
23
34
32
32
16
23
19
26
17
21
16
22
32
26
28
34
23
16
27
33
21
32
41
42
48
35
45
36
36
30
35
35
44
58
53
43
48
52
66
50
38
32
34
42
40
34
29
33
29
32
30
29
34
30
27
19
27
23
32
30
20
30
46
37
35
33
29
39
45
33
30
17
32
31
28
28
12
24
33
37
33
31
34
37
36
64
81
101
121
154
173
208
240
247
260
265
263
238
203
161
108
57
24
5
10
24
26
33
34
39
30
31
21
35
26
22
27
36
33
44
49
46
48
43
38
25
32
26
25
29
41
47
46
44
43
40
33
43
42
42
38
47
44
54
60
61
55
53
38
38
35
54
59
50
55
59
58
63
53
41
54
48
48
52
59
63
63
80
80
66
73
72
65
63
64
72
82
83
77
88
96
95
98
91
99
75
68
92
79
83
89
83
86
87
82
95
105
107
92
94
88
89
88
85
84
91
84
71
86
83
81
90
85
73
57
58
54
54
55
61
41
46
66
54
46
58
56
53
46
44
43
43
46
34
39
40
31
33
42
50
57
48
32
34
42
35
27
34
28
33
23
41
39
57
58
42
56
52
41
40
37
42
44
38
54
42
41
47
48
42
52
50
49
42
47
41
30
39
44
36
40
44
54
59
50
52
49
51
35
36
45
42
52
52
37
59
65
61
48
41
42
49
44
38
43
53
45
55
64
57
57
53
56
62
61
54
58
57
63
67
54
52
39
37
43
44
40
37
46
39
37
50
50
37
32
36
50
39
26
40
36
36
37
45
49
35
31
47
47
34
37
36
28
21
36
45
42
54
41
45
30
24
31
41
53
77
99
124
151
172
192
216
220
225
252
249
220
194
163
118
68
35
6
6
3
12
27
26
36
52
41
35
45
41
48
40
45
44
49
41
34
27
34
32
26
47
41
46
44
47
57
52
56
46
52
50
46
49
34
34
42
44
45
49
53
52
42
46
50
30
52
59
50
44
47
63
68
64
64
54
59
59
60
54
58
70
65
69
70
65
65
67
69
70
77
76
77
86
80
83
80
81
71
90
94
84
86
91
96
102
106
101
85
100
91
82
97
96
102
95
91
101
98
104
95
99
95
104
94
100
86
78
85
86
73
81
82
82
79
74
66
58
60
45
61
57
63
49
55
52
42
49
43
33
44
30
40
39
42
53
52
37
37
42
51
49
37
54
42
48
46
33
31
31
38
34
45
39
44
37
46
37
38
34
36
41
54
54
49
38
50
60
40
46
46
39
40
45
51
43
44
49
57
50
63
53
38
41
49
38
39
45
37
39
52
50
43
53
46
46
45
50
56
56
47
53
55
50
33
40
46
46
46
56
60
60
59
59
52
50
64
64
61
63
49
47
37
43
43
32
33
45
49
34
32
31
37
33
50
39
52
38
39
52
43
54
48
28
25
30
32
24
18
31
35
33
33
40
47
50
38
22
28
39
43
19
34
36
58
108
127
127
139
165
198
241
247
259
248
258
252
216
174
134
93
53
29
19
33
53
56
46
33
55
56
54
44
57
46
21
23
26
26
25
36
34
39
55
44
52
46
43
35
36
29
20
40
52
51
51
50
58
55
48
50
56
42
45
51
42
44
47
47
36
31
43
38
40
51
52
78
70
54
69
64
57
59
65
58
59
59
68
63
56
65
61
63
56
73
70
70
90
79
86
88
72
70
71
87
95
85
94
103
91
81
78
87
102
83
110
93
89
102
95
93
94
100
97
83
86
81
77
70
89
86
86
75
72
76
74
75
69
78
64
46
43
58
61
73
59
55
57
61
47
42
39
48
43
27
43
34
38
42
51
47
50
38
47
47
36
31
32
36
34
42
41
47
50
43
35
34
47
51
44
44
40
42
40
27
19
39
46
49
51
35
52
50
46
50
45
45
44
40
48
49
54
50
41
48
38
32
39
30
35
19
39
56
63
65
54
49
60
47
47
50
52
53
48
47
52
41
22
38
45
35
54
54
66
49
48
42
48
62
68
65
58
63
68
54
52
59
55
60
48
38
33
28
34
38
43
37
45
46
48
30
39
41
33
40
26
38
45
35
23
24
21
29
35
46
38
51
40
46
39
41
27
32
39
21
31
42
32
39
76
95
125
130
155
189
232
253
266
266
254
256
232
200
165
122
65
32
11
17
34
47
38
34
22
32
45
39
36
35
37
36
51
48
49
46
48
35
40
34
43
43
32
48
33
36
36
39
42
55
47
56
45
44
41
36
30
43
38
38
36
47
46
45
47
65
62
52
55
57
69
69
55
51
59
54
49
41
55
53
60
60
70
78
66
76
87
81
58
60
64
69
72
64
78
77
90
93
85
96
93
91
84
96
91
88
99
98
94
95
94
84
76
81
76
80
99
95
92
96
109
106
102
98
101
81
81
70
76
74
76
77
70
68
67
71
58
49
57
57
54
67
56
44
36
46
55
51
56
59
68
64
44
48
34
35
35
40
45
38
43
47
46
27
40
39
42
42
59
54
48
56
45
45
45
40
39
40
47
47
60
45
49
60
54
47
44
52
51
54
53
57
47
47
43
41
57
44
52
57
50
53
50
56
54
48
59
52
58
57
52
61
48
45
48
42
38
40
46
65
53
61
59
60
69
66
64
57
70
55
61
31
34
43
58
46
45
47
44
51
52
55
50
36
29
30
36
27
34
48
45
40
44
29
33
35
34
33
38
31
27
50
51
57
54
36
19
34
44
44
35
27
21
41
50
42
74
117
129
129
141
171
196
208
212
231
234
237
209
178
158
122
60
13
-10
-11
12
50
28
30
38
34
36
42
32
36
42
49
51
37
35
42
27
51
44
48
45
40
44
44
46
52
54
49
51
37
33
32
40
43
59
36
46
40
45
50
41
46
63
60
69
72
61
50
60
62
68
66
52
55
50
62
59
68
58
49
63
68
63
61
80
88
79
79
74
75
72
79
79
82
80
77
87
78
87
109
114
104
104
106
108
110
114
108
103
99
94
88
94
97
106
126
105
101
104
108
99
88
95
93
103
103
99
97
82
89
74
78
75
76
70
68
69
64
67
62
77
64
74
64
47
34
40
54
33
40
50
56
52
57
57
46
55
47
38
39
31
27
35
37
36
27
36
39
39
52
40
48
39
56
65
47
63
42
39
39
32
39
31
38
38
57
64
58
46
46
53
48
50
54
61
47
44
45
43
47
56
57
61
46
54
33
42
52
56
50
45
38
53
65
58
58
49
54
54
62
66
58
56
52
47
45
66
72
80
70
59
66
59
64
56
58
59
48
46
48
39
47
49
50
46
54
44
42
39
44
49
42
35
38
32
43
46
52
55
63
58
49
57
54
48
57
49
37
41
36
33
35
41
42
43
37
57
101
118
134
150
160
185
230
240
243
252
253
234
211
184
147
114
81
45
31
11
35
43
46
46
48
51
45
38
53
60
46
47
52
56
57
64
40
62
59
58
51
52
56
58
57
66
61
57
52
49
55
58
60
51
52
64
54
54
38
56
61
63
72
71
71
55
62
69
62
61
65
63
72
88
80
85
86
78
78
81
73
77
82
77
93
89
70
98
89
87
77
86
89
91
87
103
121
112
99
98
125
130
125
123
115
120
112
117
116
126
133
121
116
115
120
124
107
111
112
109
109
111
108
101
106
103
96
87
115
107
111
105
93
96
97
84
78
77
81
85
84
95
78
83
69
76
51
67
52
50
62
59
46
57
67
63
62
68
70
65
58
64
64
68
61
60
60
52
48
48
60
58
60
60
81
82
72
64
55
73
62
63
68
76
76
53
64
74
72
60
67
65
69
65
71
71
63
70
71
66
63
59
67
62
70
71
66
69
82
75
74
70
61
67
85
79
78
90
89
74
68
69
65
66
64
68
80
83
66
66
66
84
92
82
85
75
62
73
68
77
77
69
88
78
55
65
63
75
67
56
52
50
59
67
72
70
75
72
71
65
59
56
48
45
51
53
49
46
52
53
50
69
68
62
66
47
42
57
58
55
56
53
65
77
97
123
146
175
195
220
271
282
286
285
285
277
244
211
171
119
77
63
55
55
61
62
68
61
61
63
86
62
65
57
50
52
65
41
48
74
68
67
65
69
74
72
75
64
55
71
71
60
60
58
52
59
78
59
63
73
75
77
64
74
58
63
65
65
60
64
68
89
86
86
74
69
60
51
62
64
73
81
94
102
99
94
83
76
79
84
95
89
88
84
90
85
88
86
91
108
112
115
117
115
118
119
117
110
112
109
102
96
103
111
120
101
100
107
103
109
112
116
113
112
98
103
106
106
107
99
114
112
105
100
82
88
84
79
81
87
86
94
83
76
74
64
57
54
57
46
66
74
67
60
53
61
56
56
63
71
71
58
67
59
53
59
59
53
63
54
49
64
71
62
50
45
51
46
50
55
59
54
69
69
69
65
50
53
66
56
56
60
63
67
74
54
54
61
66
63
68
77
74
57
47
57
64
51
58
59
71
65
68
67
71
80
68
70
72
65
65
63
68
66
64
68
71
71
75
74
59
53
61
66
72
75
79
78
79
90
79
79
69
59
52
50
65
71
86
82
84
74
78
58
58
62
61
68
62
51
44
44
57
58
61
56
56
54
63
60
61
58
47
52
47
57
67
70
66
46
41
43
45
54
46
47
45
46
32
39
44
51
54
81
113
121
145
156
181
230
272
293
281
280
281
268
241
207
161
117
74
68
55
37
47
54
51
46
57
49
54
59
59
48
41
38
51
61
63
68
65
63
67
44
41
57
46
50
54
66
48
48
54
53
71
66
66
63
55
52
54
52
61
57
57
56
56
46
43
43
69
74
67
68
83
59
59
64
61
56
56
62
66
59
72
66
71
79
71
70
78
84
89
80
89
90
85
83
90
89
84
88
93
94
106
90
92
97
114
107
98
89
107
107
106
111
105
118
117
90
94
93
90
93
83
84
101
112
116
101
97
94
95
77
68
75
72
74
74
84
64
74
69
66
64
62
72
68
61
59
60
37
51
59
59
43
46
50
53
56
50
49
57
48
40
62
66
56
49
61
48
48
54
47
38
40
44
35
49
65
58
66
60
57
58
40
41
49
49
50
51
58
60
62
64
63
56
39
55
53
60
61
56
61
59
63
58
47
48
46
63
60
65
69
61
42
56
58
48
55
60
54
51
53
41
47
44
59
65
58
62
54
59
68
54
48
55
60
73
69
62
58
45
50
55
63
68
70
71
64
47
52
71
68
54
52
63
65
69
64
70
67
67
70
56
50
65
56
59
49
57
64
66
59
42
40
38
41
49
58
54
52
54
53
53
36
41
44
45
47
44
52
63
65
58
54
54
37
38
47
32
30
29
40
63
70
108
142
156
181
200
235
264
275
280
275
276
274
234
184
168
124
76
60
52
50
37
46
51
46
40
38
64
55
56
64
57
61
65
54
55
51
57
39
43
45
65
51
68
66
63
58
55
53
62
64
63
52
57
57
61
69
66
48
43
50
70
55
59
50
53
56
59
66
70
82
73
67
79
71
75
71
78
73
54
75
81
81
86
86
82
66
85
77
71
78
75
81
83
91
93
109
87
81
93
106
108
110
113
119
104
96
102
99
103
101
92
81
101
119
113
106
113
106
99
92
96
90
99
106
109
112
94
81
98
84
78
85
88
83
78
83
71
58
61
69
71
70
70
69
53
45
46
45
46
48
62
71
68
62
52
51
63
53
47
54
61
58
65
61
60
46
38
33
34
48
58
72
48
40
58
49
38
34
50
51
49
65
74
62
42
41
62
54
56
66
66
61
61
60
68
70
58
52
46
28
29
56
63
68
71
77
74
66
64
65
62
63
56
55
54
56
35
22
36
42
52
62
64
66
67
68
61
66
53
44
61
53
46
58
57
52
49
56
63
61
46
57
57
52
55
52
37
39
51
57
75
58
49
53
54
52
51
56
67
66
68
69
72
74
69
56
41
55
54
56
64
55
53
50
51
73
55
41
24
33
45
47
36
43
48
37
47
42
54
58
42
24
38
55
45
54
54
49
55
50
37
47
41
37
41
49
40
30
26
45
75
92
108
133
164
171
182
216
241
248
266
248
242
225
203
165
115
57
21
24
36
27
21
40
47
51
46
44
72
56
41
39
37
50
43
28
37
44
56
41
43
55
52
52
44
47
50
59
48
62
51
74
70
69
60
44
36
34
48
63
58
74
78
84
72
60
61
52
64
63
70
70
80
85
79
69
64
65
70
77
58
70
78
88
100
92
79
78
78
88
83
70
82
82
84
78
93
104
113
107
114
100
102
102
107
99
101
106
108
106
109
106
109
106
91
97
126
119
111
115
110
103
94
99
94
86
85
84
80
84
93
92
95
89
85
87
85
73
73
68
80
75
52
50
62
61
68
76
74
66
57
61
60
56
39
27
33
26
24
33
45
46
42
69
61
52
48
45
47
52
55
57
59
71
53
36
28
39
55
64
57
43
38
46
41
54
51
43
33
36
46
42
39
46
52
52
39
51
65
63
51
53
60
62
40
38
51
56
63
50
69
47
48
58
64
53
56
53
49
32
31
32
33
37
49
62
65
62
44
44
44
35
25
33
40
53
46
50
54
43
32
38
56
41
38
44
40
40
58
54
54
52
51
36
50
56
65
49
48
38
23
50
34
45
44
28
19
34
30
16
23
23
48
54
29
32
43
46
35
25
17
21
11
30
41
42
55
44
42
15
7
10
18
34
41
30
24
7
39
55
91
110
124
124
152
165
178
191
208
213
214
181
166
166
145
97
45
24
10
-5
10
10
14
20
11
1
8
27
28
12
18
35
46
59
50
33
29
29
10
26
24
57
60
47
37
30
38
43
41
33
23
28
48
33
43
47
47
42
48
55
51
29
33
43
36
47
27
25
39
56
51
61
60
64
67
53
52
44
52
58
60
57
68
67
66
78
67
53
75
69
74
74
73
77
58
70
73
82
90
72
90
74
77
83
96
93
89
94
110
96
79
90
82
86
96
89
86
93
97
94
90
83
69
64
69
68
80
81
78
79
68
74
68
59
55
54
62
63
56
65
71
58
57
39
33
42
38
25
18
20
26
24
24
37
28
37
28
23
18
24
31
13
4
20
14
8
11
28
20
23
20
17
8
6
18
13
5
15
19
21
33
31
24
29
44
38
13
8
25
21
23
31
45
48
3
13
18
27
36
25
45
47
46
29
29
30
29
21
23
27
35
35
45
31
32
51
41
24
36
36
44
40
43
20
13
-2
11
-24
-26
-5
-15
-17
-15
-25
-15
-8
-3
4
29
34
8
8
2
22
9
-3
1
-1
-10
-16
14
22
10
10
3
-2
7
-7
-5
4
-1
-7
-3
13
13
-8
1
-2
0
16
-9
-17
12
24
-1
-1
20
31
8
-5
-4
-20
6
4
16
19
4
0
19
33
18
4
-10
0
6
14
10
39
80
71
82
93
106
125
163
179
206
210
205
183
172
161
128
95
44
5
-3
3
7
-3
8
6
14
4
1
14
10
5
3
5
15
21
6
4
22
30
29
27
31
21
43
46
50
39
-9
25
23
13
15
18
18
19
22
45
36
20
29
18
21
21
23
17
30
48
33
32
14
27
25
35
36
38
42
28
25
38
36
50
44
39
37
38
4
9
12
19
28
46
65
70
71
53
49
42
44
54
63
78
107
79
48
43
51
57
62
74
65
33
61
84
95
84
73
90
61
43
55
47
58
65
55
53
65
78
57
53
40
37
28
20
61
64
40
47
45
39
45
37
21
32
34
36
24
7
4
13
7
22
14
3
-2
18
33
21
28
42
41
22
36
32
15
18
8
24
35
28
20
9
17
13
4
10
-3
1
13
18
50
33
22
23
27
16
25
30
23
25
28
22
14
7
31
35
45
62
38
11
12
12
15
34
30
21
10
10
5
18
20
23
47
42
35
14
19
29
36
30
4
10
17
28
28
27
35
26
29
37
18
10
10
18
14
9
32
28
19
9
37
38
25
7
37
30
40
42
27
30
33
40
32
42
30
15
16
31
48
32
22
6
19
27
8
-12
2
2
0
-1
17
1
-7
-8
-26
-6
-38
-3
-1
-31
-25
-19
-19
-18
-11
-12
-18
-28
1
-5
-10
-22
-16
-44
-39
-23
-27
-24
-23
-24
-32
-13
4
7
18
56
67
74
89
97
111
122
128
122
144
132
141
104
84
43
0
-27
-21
-30
-24
-26
-22
-21
-48
-34
-40
-16
20
17
-7
-12
9
26
17
17
-40
-24
-16
-6
-2
12
-12
-15
-7
-1
8
-3
-27
-21
-27
-40
-11
-12
9
24
29
24
-6
-26
-12
-3
-36
3
26
14
11
13
-14
-5
-1
-11
-18
-2
18
4
-9
6
16
-11
3
6
19
29
20
-1
1
1
4
10
25
16
19
13
18
21
14
24
42
43
46
29
7
7
16
27
38
42
33
19
21
45
42
45
30
25
17
14
22
25
53
52
53
39
27
6
19
16
11
0
24
20
3
5
19
25
6
10
17
24
2
-14
-4
8
-1
-6
9
13
13
-4
-29
-11
-20
-9
-18
-20
-23
-6
15
10
-3
2
6
11
8
7
11
13
-7
-10
-13
-12
-20
-14
6
2
0
18
17
8
-11
-23
-7
23
4
1
-1
-13
-3
11
11
15
9
17
8
3
6
-3
13
3
2
4
-5
3
0
11
19
12
23
31
35
24
19
21
45
15
11
-8
-10
6
7
15
7
10
25
6
17
11
15
20
13
4
16
11
8
7
12
7
9
3
2
18
18
17
21
22
9
4
16
26
42
3
-10
12
19
22
13
16
10
10
20
22
19
22
10
14
4
21
14
20
35
31
33
14
2
21
23
12
35
27
13
3
5
20
20
41
33
48
35
30
27
21
17
11
11
-10
1
28
40
34
38
36
54
37
32
21
19
17
19
29
21
8
29
44
40
46
37
27
31
20
27
34
28
34
32
22
26
27
20
32
24
29
27
41
37
25
17
21
16
25
24
21
19
13
36
42
42
33
16
21
44
33
29
37
36
41
55
87
95
120
144
179
202
218
216
212
198
200
185
147
132
97
51
42
49
49
49
48
48
40
39
39
37
43
52
24
5
25
39
46
46
34
41
51
36
36
36
38
47
40
41
37
39
38
21
29
22
26
33
35
41
47
52
48
41
40
47
47
50
54
53
39
43
45
46
48
39
48
53
45
47
44
74
54
47
45
40
61
55
47
49
55
51
52
65
77
85
69
67
66
73
55
56
68
69
76
67
63
94
94
74
70
81
101
113
110
74
74
89
91
87
78
83
67
52
66
81
87
91
93
99
87
78
63
54
54
63
65
55
55
67
72
66
53
55
45
43
40
45
42
49
51
59
63
48
40
44
42
31
30
29
22
35
31
26
45
49
40
35
33
26
42
48
49
47
42
46
42
36
31
26
32
31
31
41
40
26
23
41
41
24
42
27
35
51
59
55
62
40
48
47
51
42
45
48
40
41
51
38
41
44
51
40
46
45
38
39
48
57
42
53
42
40
38
43
53
54
64
53
55
54
39
26
46
51
37
24
35
41
43
39
42
56
45
32
35
41
45
42
49
41
41
37
35
38
54
49
31
29
42
42
48
51
54
43
38
39
32
30
26
44
53
39
44
36
38
39
35
30
36
38
43
41
47
41
43
52
38
30
41
44
37
43
43
43
38
37
26
42
47
41
50
49
40
39
38
49
50
42
39
46
40
30
19
23
32
30
41
48
46
50
42
33
34
36
43
32
37
39
56
32
32
51
51
40
42
51
53
53
47
31
28
36
45
50
41
44
48
49
40
22
40
28
34
30
33
42
41
51
54
48
42
43
37
24
33
46
33
43
53
55
40
40
44
53
39
39
40
32
30
54
38
28
39
39
45
29
33
29
30
23
39
43
50
43
29
41
59
53
39
33
35
28
36
41
49
50
45
49
46
42
39
29
36
48
54
53
46
36
33
36
37
32
53
40
29
29
45
36
42
31
36
50
61
56
49
47
46
46
53
49
38
51
49
48
46
55
53
52
52
47
40
43
47
47
60
51
61
59
63
48
47
47
43
46
52
36
42
51
48
50
60
49
47
46
39
43
23
27
42
41
42
43
52
70
59
45
42
62
40
33
20
41
40
34
30
41
51
44
58
79
106
117
137
168
197
233
243
244
226
235
241
239
225
183
154
114
67
61
54
50
43
47
44
41
59
70
60
50
57
49
44
38
42
44
35
42
47
40
47
57
55
48
42
51
48
53
52
48
42
49
52
56
57
55
60
67
55
49
51
39
53
66
40
44
54
67
64
53
47
44
41
56
70
72
64
52
55
50
62
77
66
87
75
67
74
77
75
78
70
68
68
72
61
71
88
77
85
94
97
96
112
96
69
73
104
108
98
104
105
108
104
110
105
106
113
109
90
94
100
110
107
91
90
95
94
96
86
79
89
99
80
75
88
90
91
90
96
83
66
67
65
60
63
67
68
64
62
67
65
57
50
54
51
49
53
59
51
55
47
39
41
48
52
53
51
44
45
55
53
52
57
54
62
64
45
38
44
50
50
44
46
58
45
53
56
26
46
61
59
66
61
61
58
53
58
50
56
53
44
63
61
45
55
56
57
57
58
54
54
69
65
53
44
57
70
81
56
61
62
56
66
49
60
56
61
59
59
65
60
44
44
47
49
62
55
50
65
60
46
59
65
61
53
54
54
48
57
49
30
37
45
54
75
68
56
60
55
62
68
59
48
51
46
35
28
44
55
55
57
58
44
46
54
56
59
50
55
45
27
49
57
51
57
61
61
57
55
44
45
43
47
44
53
67
69
55
47
49
42
42
60
54
54
43
38
35
27
41
56
59
55
57
65
69
62
57
46
52
41
42
31
39
41
44
42
46
55
51
62
56
54
49
57
51
55
62
51
40
33
44
47
53
57
66
67
52
60
52
47
47
41
40
51
62
68
77
73
69
70
72
65
61
59
58
53
58
64
54
54
48
45
63
52
44
56
48
50
39
41
39
41
44
39
46
49
58
73
61
50
48
45
41
31
37
51
53
47
57
63
49
45
29
33
35
54
57
76
115
151
171
186
198
222
254
259
273
268
271
257
219
178
138
84
66
50
42
49
60
63
52
62
73
70
59
41
45
52
50
65
62
51
43
37
43
52
54
49
49
56
62
55
49
47
52
56
60
57
59
60
56
44
50
52
63
72
58
45
53
57
69
63
71
62
47
50
57
60
55
54
43
55
53
79
76
82
72
80
68
77
81
65
58
64
70
64
75
80
79
87
91
84
85
84
99
103
90
75
92
106
97
103
100
112
99
100
103
116
118
95
94
116
111
108
105
98
93
96
88
101
106
109
106
111
105
86
94
94
85
82
83
65
71
86
80
93
67
57
68
65
64
60
49
48
48
51
47
38
47
65
52
59
60
52
44
39
39
32
31
40
47
45
52
43
50
60
56
63
57
36
53
43
23
31
45
42
46
56
51
47
39
47
42
47
53
36
31
38
44
43
42
55
54
59
57
63
55
48
57
50
44
39
47
47
52
44
37
46
41
43
55
53
36
35
48
65
48
42
54
47
44
35
50
57
61
56
41
39
46
48
53
55
53
60
43
33
40
47
54
46
26
37
30
28
40
51
43
49
53
50
40
47
49
43
39
40
36
34
20
41
59
56
56
56
47
37
45
42
22
33
44
36
34
44
57
62
59
40
36
24
28
42
41
38
26
27
36
43
47
39
50
60
46
43
37
40
48
44
41
43
40
35
42
37
29
46
51
63
53
50
54
52
36
58
49
50
50
43
51
49
53
45
36
39
42
45
48
41
44
38
41
50
42
31
38
36
44
29
30
23
35
37
40
44
39
41
40
36
40
43
34
35
29
51
43
29
33
38
37
29
26
22
31
76
90
105
125
143
189
235
255
262
260
252
274
259
214
177
134
95
56
37
34
34
42
52
41
47
30
29
44
41
41
32
41
30
25
42
44
39
50
62
51
45
30
35
23
44
36
49
46
56
55
48
45
32
31
29
33
41
55
33
46
42
48
50
48
45
37
48
52
47
44
51
51
63
66
58
59
45
50
38
50
47
57
66
73
76
80
69
72
65
57
55
56
73
53
55
71
76
93
101
95
91
88
85
95
108
88
74
90
100
100
90
101
90
105
103
100
104
107
100
90
84
87
82
89
63
89
110
105
87
87
87
74
71
66
80
68
70
77
62
46
54
54
54
48
37
50
48
39
35
29
11
26
40
32
23
27
30
42
35
42
38
23
40
30
24
21
18
23
23
29
33
33
30
32
36
37
29
27
28
30
27
21
46
37
25
48
38
24
16
19
23
25
33
27
43
35
37
36
31
25
29
38
25
44
48
39
47
33
26
29
23
27
16
33
41
53
43
40
33
25
24
30
36
38
38
44
37
37
43
34
16
21
27
30
36
42
19
25
33
34
20
28
41
35
40
31
37
30
31
37
40
45
37
16
10
20
44
36
24
33
40
34
41
37
28
18
24
14
6
3
8
28
34
39
43
56
49
45
30
43
30
22
30
26
28
32
21
14
30
39
25
40
22
31
35
29
25
23
36
47
48
54
39
31
32
33
28
34
32
38
46
53
47
42
28
17
19
11
16
25
32
32
33
22
16
30
28
29
30
30
37
43
32
20
28
30
30
19
4
30
28
14
20
33
29
30
37
33
20
9
27
50
83
94
123
137
177
211
251
248
244
254
242
229
199
166
128
102
43
18
11
4
13
29
30
42
38
33
37
44
45
40
34
37
21
35
34
26
32
31
24
33
27
30
39
36
27
38
24
21
23
37
22
32
52
52
35
37
35
31
38
36
27
31
36
43
38
44
46
39
54
55
59
64
53
38
32
23
30
42
45
40
46
51
63
67
64
45
53
54
59
54
66
73
68
58
71
82
78
80
70
74
73
93
82
98
95
99
87
76
68
89
90
89
88
92
94
87
83
83
97
91
79
83
84
77
81
77
86
94
99
87
57
60
74
64
68
65
49
34
47
47
45
46
54
60
55
48
28
30
45
42
33
22
28
25
23
25
23
29
27
31
20
23
21
34
36
22
34
29
21
20
22
30
30
25
32
31
24
28
38
31
34
29
19
8
22
30
41
38
27
26
30
26
18
25
36
39
33
31
17
23
27
33
28
32
31
47
44
50
53
33
19
23
34
29
8
13
21
29
42
37
47
47
34
30
22
25
23
23
44
39
41
34
33
20
8
11
38
41
29
11
14
32
43
34
22
18
38
48
40
25
35
28
34
29
15
22
21
30
29
18
23
39
25
37
29
30
41
43
45
48
34
31
35
40
34
33
33
41
40
44
51
35
43
36
23
18
26
23
19
8
11
10
28
19
27
36
34
32
31
34
35
24
26
15
18
20
20
30
21
30
36
32
30
18
15
11
9
18
9
15
15
15
35
57
79
83
104
126
158
194
231
224
241
242
244
239
209
170
133
82
32
19
13
18
25
27
23
9
13
29
18
29
33
30
38
34
28
31
31
18
20
30
29
25
24
31
39
39
48
51
32
33
36
8
20
18
23
23
39
26
37
50
47
25
25
21
36
33
28
28
47
61
50
41
41
44
52
41
46
52
37
45
66
62
50
48
37
45
37
42
46
67
70
72
69
68
53
55
79
76
72
78
91
77
60
65
69
87
83
84
106
112
92
86
81
84
83
99
95
96
94
92
85
88
78
81
82
76
70
80
91
84
86
89
61
68
73
58
52
58
39
29
45
54
51
55
53
29
40
51
35
28
22
25
28
26
41
23
29
34
33
36
43
36
29
29
29
20
24
30
27
11
18
21
16
13
23
11
36
34
40
36
23
30
40
27
26
5
1
12
38
43
49
42
42
37
34
17
19
20
34
34
40
36
37
31
25
27
33
36
30
29
39
32
17
21
37
34
33
30
24
32
29
31
38
39
39
30
25
29
27
28
34
30
20
43
36
31
23
19
29
30
33
38
31
26
34
35
29
25
33
27
28
17
23
11
25
23
26
36
41
48
48
53
42
35
38
45
48
45
36
29
31
33
47
37
25
31
46
57
36
23
22
23
20
25
23
31
28
22
10
6
24
37
24
28
14
35
32
37
38
21
35
16
13
15
11
5
20
40
29
25
19
26
22
12
22
6
17
24
43
81
98
111
144
166
203
238
260
264
252
251
224
185
160
122
81
29
14
9
29
29
15
25
34
25
20
31
27
30
33
41
39
29
24
20
41
33
30
25
33
43
23
22
29
32
35
41
34
30
30
32
25
19
36
36
40
32
38
40
38
36
38
42
28
30
35
38
44
51
54
60
66
38
40
49
36
19
35
43
54
63
45
48
61
64
55
55
63
52
49
70
71
47
59
80
71
56
65
75
84
82
90
97
88
87
93
93
89
90
82
86
84
85
84
80
87
88
87
95
98
106
93
87
95
85
89
69
60
68
75
81
48
50
49
63
50
47
63
64
69
52
45
48
47
37
32
17
33
29
33
32
44
48
28
31
53
45
26
5
8
11
12
14
18
26
57
55
45
47
29
25
35
22
28
24
25
26
29
24
28
19
28
32
30
36
51
51
45
12
17
25
22
30
22
32
48
41
47
43
39
32
33
47
34
32
38
29
36
27
25
33
48
48
30
10
35
26
12
28
44
37
35
35
39
38
36
19
10
15
15
21
6
1
4
8
6
33
17
10
3
15
21
10
13
22
13
15
14
4
-10
2
19
24
21
21
5
12
20
26
31
15
19
13
10
27
11
10
20
15
-6
-15
-19
2
-1
2
5
10
8
9
11
-4
-5
6
9
8
12
3
-15
-15
4
2
-6
4
5
11
-6
-8
-19
-15
0
-9
-17
-14
-19
-27
-22
-29
-1
1
29
48
86
105
119
160
179
207
229
224
233
223
200
164
127
90
44
2
-3
-7
-20
-20
-19
-11
5
12
14
-1
-5
6
14
6
-6
7
6
20
-4
0
11
-1
3
1
2
5
0
6
12
16
-6
6
15
12
1
9
7
0
20
18
3
12
18
21
6
19
13
10
7
7
25
19
16
15
17
8
13
10
19
17
16
-1
19
29
39
36
27
18
37
43
36
29
33
48
56
48
34
39
42
33
33
33
49
56
59
65
61
59
60
61
56
81
61
68
71
67
52
62
62
66
65
80
79
60
64
61
45
44
42
44
46
50
61
54
39
31
31
25
41
46
24
17
14
12
17
17
25
27
20
14
6
15
22
12
14
14
8
9
8
-3
2
6
-1
15
5
5
14
-1
2
-3
1
8
7
-13
-7
7
-8
-1
10
22
11
7
9
-2
4
-4
-2
9
23
16
20
5
-2
9
21
17
0
5
8
1
4
3
-4
0
8
9
11
8
10
6
17
27
10
25
26
11
14
0
13
-2
9
8
6
9
11
21
14
9
7
5
3
7
11
12
21
-8
4
15
-1
19
16
6
8
14
-3
-5
-2
4
4
4
15
8
11
18
30
26
21
10
6
21
10
-2
-3
7
24
1
9
12
25
13
8
3
-17
-28
-15
-11
-7
5
4
11
10
6
9
19
-2
-6
-6
-10
-17
-12
-12
-14
3
7
4
2
1
1
5
10
-2
2
-15
-28
-18
-1
34
63
76
90
112
157
186
215
217
222
231
229
214
179
135
84
34
18
2
10
-1
-5
-1
8
0
-6
-4
1
1
-11
3
19
26
12
0
3
-16
-9
-5
-16
-2
5
7
16
7
8
7
12
-1
6
0
2
8
5
4
-1
2
14
14
15
9
2
-4
-5
9
2
19
23
18
4
18
20
22
22
22
13
14
9
12
18
25
15
25
27
33
37
31
26
19
23
34
37
33
47
57
51
47
27
46
53
48
51
50
69
45
51
47
46
54
61
61
59
64
62
67
63
54
55
61
63
62
59
70
74
64
57
48
42
36
44
36
39
44
24
30
36
47
13
14
24
16
21
7
7
8
6
9
17
12
9
8
-3
-3
3
-6
-7
-1
2
-3
3
9
16
12
24
10
-11
-29
-15
-19
-6
-10
-2
-5
0
13
11
10
2
-15
-11
8
6
-5
-1
-1
-3
-1
14
0
22
11
-3
9
8
0
10
0
1
6
6
9
-1
3
2
-4
10
9
14
10
5
6
2
8
15
-2
10
2
-3
-6
-16
5
17
19
25
0
11
26
19
2
3
8
4
9
16
4
1
3
-1
1
20
22
3
7
10
13
17
17
14
18
27
14
15
21
25
25
25
28
11
-6
-1
-2
-14
-16
-14
5
9
4
14
13
5
0
-9
-15
-4
10
9
15
7
1
-6
0
11
0
-4
7
2
-9
-12
-10
5
-14
-17
-10
-9
6
-1
-13
-22
-2
6
23
53
78
96
110
130
163
204
229
226
242
243
226
200
147
108
68
9
-3
-17
-27
-8
9
-8
8
6
15
14
15
8
5
5
20
-2
2
3
3
8
9
9
7
7
10
-23
-21
-9
-14
-2
17
25
25
23
14
9
22
11
8
21
3
5
25
12
4
3
13
9
24
22
37
24
14
-5
14
16
13
18
13
16
12
17
25
32
21
29
29
27
48
52
36
36
19
21
33
40
57
57
65
67
50
47
51
55
52
43
48
68
57
55
52
43
63
62
72
76
76
74
69
77
81
65
51
52
63
44
45
47
59
54
58
65
60
51
50
21
21
30
34
30
34
51
38
28
33
10
1
6
8
11
22
20
13
-1
7
9
18
14
11
8
-5
7
15
3
0
-3
-1
15
8
6
8
13
14
11
3
0
6
3
-2
8
11
19
31
27
16
7
3
0
6
9
8
11
7
23
20
20
9
-4
3
4
14
19
1
3
24
12
10
10
7
-4
0
10
33
21
26
28
17
21
17
20
22
14
3
-1
7
15
8
7
22
25
19
1
-18
-13
-2
11
14
14
19
24
18
4
19
12
-3
0
0
6
7
12
11
11
18
34
29
17
26
22
17
12
32
29
36
21
-1
11
11
13
19
11
2
1
5
9
6
2
2
-1
-4
4
2
1
-5
-3
-2
-11
8
19
26
9
10
12
11
7
-3
-11
-19
2
10
1
-9
5
4
-2
-10
-9
-16
-2
16
40
59
70
105
127
144
198
224
232
228
223
224
213
178
141
84
23
8
-2
-7
-5
2
6
-2
2
-5
16
17
-9
5
15
5
6
22
18
5
7
9
14
7
13
21
16
6
-5
0
7
-9
-4
17
-6
-7
10
18
16
29
22
21
20
22
9
15
4
2
5
20
10
9
29
24
27
15
18
11
12
19
11
13
31
25
30
32
15
20
38
34
26
20
39
31
35
50
57
51
45
55
44
53
52
47
43
56
66
72
61
63
47
47
58
65
70
71
53
48
56
51
47
61
65
68
69
63
64
62
56
56
53
65
47
56
57
43
32
23
24
11
15
32
27
16
18
19
26
30
21
16
11
11
-1
12
7
11
-3
4
3
-8
-8
-12
0
5
16
6
5
12
-9
-16
-16
6
4
10
17
5
-1
5
13
8
8
7
13
7
-2
-9
-2
-4
2
-1
-4
-3
-1
12
14
9
-3
-6
-2
9
16
14
21
31
6
5
12
20
5
5
6
0
14
2
8
11
-7
-3
-8
4
0
7
11
13
20
17
5
11
3
6
7
8
9
6
2
5
0
1
-11
-8
10
18
3
14
19
3
-4
-12
-5
6
8
14
13
0
1
-1
7
13
-10
11
15
13
10
16
13
8
7
13
2
-3
9
1
12
19
32
37
13
12
5
-4
-13
-15
-7
-17
-2
4
-6
1
13
9
-3
-5
-2
0
-4
-5
-8
-21
-22
-15
-28
-10
11
7
4
5
5
-11
-9
-4
-18
-17
-23
-17
-20
1
24
42
65
89
98
131
172
192
214
210
214
225
208
189
149
107
69
22
9
-18
-17
3
7
4
-9
-5
-5
0
-1
-12
-21
-8
-13
-19
-3
8
0
16
0
-5
4
-5
-13
-21
-20
5
14
18
5
-11
1
16
-7
-15
1
13
6
-10
-1
-1
3
8
22
10
18
12
-3
2
13
7
11
-2
13
0
6
8
22
22
8
4
13
22
13
10
9
15
19
28
26
