-75
-92
-73
-62
-70
-69
-76
-76
-82
-88
-96
-70
-67
-71
-77
-78
-76
-77
-75
-76
-73
-74
-74
-75
-75
-82
-81
-68
-87
-73
-74
-72
-75
-70
-83
-78
-85
-89
-82
-81
-69
-71
-68
-71
-88
-79
-75
-71
-79
-72
-75
-77
-88
-70
-72
-87
-86
-82
-71
-75
-80
-85
-88
-82
-68
-66
-68
-75
-86
-74
-76
-73
-85
-105
-97
-70
-61
-77
-69
-68
-68
-73
-73
-76
-72
-88
-75
-69
-68
-66
-83
-83
-74
-63
-74
-86
-79
-74
-79
-81
-80
-80
-81
-96
-98
-85
-92
-85
-73
-81
-82
-88
-81
-89
-91
-77
-59
-80
-78
-83
-88
-84
-88
-85
-84
-93
-94
-90
-102
-79
-82
-90
-86
-91
-87
-67
-79
-83
-78
-73
-81
-50
-17
-4
4
25
37
31
28
52
68
49
29
11
-11
-15
-31
-72
-79
-73
-81
-72
-74
-63
-73
-75
-85
-83
-86
-80
-82
-78
-81
-91
-98
-86
-84
-96
-83
-75
-84
-79
-81
-77
-85
-80
-80
-75
-89
-95
-98
-85
-85
-96
-90
-80
-75
-83
-84
-83
-92
-94
-93
-83
-89
-82
-81
-91
-73
-68
-94
-84
-74
-79
-83
-84
-91
-97
-82
-75
-77
-94
-82
-67
-89
-81
-75
-97
-87
-60
-69
-66
-58
-77
-88
-79
-67
-70
-64
-82
-77
-66
-56
-70
-72
-69
-66
-65
-58
-67
-57
-60
-50
-60
-73
-72
-63
-62
-53
-52
-53
-48
-60
-61
-72
-51
-44
-45
-58
-61
-61
-62
-60
-60
-63
-60
-75
-69
-74
-84
-85
-72
-85
-94
-97
-81
-80
-85
-83
-91
-90
-88
-89
-91
-97
-93
-92
-105
-101
-88
-87
-105
-111
-104
-97
-84
-78
-84
-99
-81
-79
-80
-86
-99
-102
-119
-98
-107
-93
-75
-94
-93
-106
-109
-108
-95
-93
-100
-107
-98
-84
-96
-108
-106
-89
-94
-89
-92
-102
-88
-95
-95
-98
-86
-88
-92
-92
-97
-113
-117
-92
-82
-87
-88
-91
-95
-95
-89
-81
-90
-98
-105
-95
-92
-89
-99
-100
-103
-105
-98
-98
-102
-95
-88
-90
-87
-90
-97
-89
-87
-100
-93
-110
-125
-97
-79
-82
-81
-98
-89
-84
-93
-84
-81
-89
-100
-94
-79
-70
-83
-94
-108
-96
-97
-99
-101
-97
-108
-111
-98
-94
-93
-87
-94
-96
-99
-109
-96
-84
-108
-80
-71
-73
-89
-87
-90
-84
-85
-96
-100
-90
-87
-101
-99
-115
-117
-86
-77
-83
-86
-97
-104
-109
-109
-83
-88
-91
-89
-94
-85
-94
-101
-108
-86
-94
-88
-82
-86
-87
-92
-80
-87
-95
-108
-108
-100
-98
-98
-92
-95
-96
-90
-91
-104
-90
-74
-92
-100
-90
-71
-81
-84
-89
-86
-80
-74
-86
-87
-95
-84
-89
-102
-112
-92
-75
-80
-82
-67
-77
-94
-80
-86
-80
-76
-69
-84
-90
-87
-89
-98
-100
-88
-90
-98
-75
-81
-85
-89
-82
-102
-85
-96
-87
-76
-86
-100
-85
-95
-104
-99
-71
-84
-93
-99
-101
-91
-87
-89
-101
-81
-71
-89
-91
-83
-94
-89
-81
-77
-72
-79
-85
-84
-89
-74
-51
-36
-25
-7
14
32
44
61
54
46
41
27
26
1
-51
-58
-45
-75
-72
-74
-76
-79
-78
-88
-84
-76
-82
-91
-96
-83
-93
-88
-88
-93
-95
-94
-88
-94
-86
-76
-79
-85
-88
-95
-86
-81
-76
-74
-80
-97
-93
-82
-76
-91
-85
-82
-80
-81
-82
-96
-90
-76
-76
-80
-85
-85
-88
-85
-80
-91
-73
-71
-75
-78
-76
-76
-94
-79
-90
-83
-75
-91
-87
-61
-69
-77
-69
-77
-77
-75
-80
-70
-72
-91
-90
-67
-62
-67
-66
-60
-70
-66
-67
-64
-49
-55
-65
-54
-54
-65
-75
-70
-52
-51
-58
-56
-46
-49
-55
-55
-56
-44
-42
-46
-56
-45
-38
-45
-53
-69
-64
-70
-72
-60
-54
-49
-62
-61
-55
-55
-68
-75
-68
-85
-75
-67
-71
-89
-95
-91
-80
-83
-60
-77
-98
-100
-84
-84
-74
-84
-89
-96
-83
-74
-84
-88
-93
-79
-80
-79
-83
-82
-80
-75
-76
-95
-83
-82
-94
-107
-104
-102
-82
-65
-71
-74
-79
-91
-98
-92
-99
-99
-85
-93
-103
-81
-82
-79
-78
-97
-83
-70
-85
-90
-77
-83
-86
-93
-114
-117
-67
-65
-86
-93
-72
-94
-86
-75
-96
-91
-69
-60
-79
-78
-94
-98
-98
-94
-90
-90
-79
-76
-64
-87
-80
-92
-77
-63
-80
-84
-81
-81
-76
-87
-88
-81
-69
-78
-80
-81
-93
-93
-91
-87
-79
-78
-92
-85
-72
-79
-76
-81
-72
-78
-81
-81
-77
-73
-93
-105
-87
-74
-63
-76
-69
-80
-78
-74
-85
-87
-90
-77
-81
-76
-82
-88
-80
-84
-93
-69
-89
-78
-87
-82
-70
-68
-81
-95
-92
-95
-66
-69
-88
-76
-65
-74
-83
-85
-77
-91
-86
-78
-68
-74
-87
-94
-79
-70
-79
-79
-76
-75
-66
-79
-64
-81
-75
-68
-70
-74
-79
-76
-79
-69
-63
-68
-84
-85
-88
-80
-66
-62
-71
-64
-72
-74
-75
-75
-97
-80
-68
-57
-62
-78
-67
-75
-76
-90
-99
-69
-71
-91
-90
-72
-72
-79
-86
-86
-82
-79
-70
-74
-90
-73
-59
-69
-76
-74
-77
-74
-75
-69
-81
-95
-77
-73
-79
-67
-70
-85
-73
-78
-82
-67
-75
-75
-46
-38
-30
-3
6
20
28
53
68
64
49
35
13
6
1
-14
-41
-67
-69
-73
-72
-78
-92
-86
-74
-59
-54
-53
-66
-69
-86
-77
-65
-55
-69
-78
-84
-71
-75
-78
-71
-71
-61
-62
-60
-66
-65
-70
-66
-77
-93
-84
-79
-43
-57
-59
-67
-72
-71
-61
-67
-79
-72
-68
-69
-70
-59
-61
-65
-69
-76
-66
-57
-51
-56
-66
-61
-69
-75
-76
-65
-54
-40
-46
-52
-67
-75
-61
-54
-39
-51
-66
-55
-44
-48
-54
-59
-52
-55
-50
-44
-49
-62
-52
-40
-34
-25
-35
-47
-32
-36
-43
-35
-24
-32
-43
-33
-34
-36
-31
-37
-34
-33
-35
-38
-51
-60
-33
-17
-14
-17
-39
-35
-42
-48
-52
-49
-42
-44
-45
-40
-55
-65
-62
-63
-57
-66
-62
-57
-63
-59
-68
-71
-77
-74
-64
-56
-78
-81
-72
-84
-64
-66
-78
-63
-62
-71
-74
-85
-83
-77
-60
-50
-64
-75
-84
-71
-77
-78
-81
-81
-81
-62
-77
-77
-72
-93
-76
-66
-81
-72
-61
-59
-79
-74
-73
-67
-66
-69
-70
-70
-73
-76
-77
-79
-85
-76
-68
-61
-69
-72
-64
-62
-74
-94
-90
-91
-77
-88
-76
-69
-59
-66
-76
-64
-61
-62
-67
-61
-91
-94
-122
-69
-49
-54
-63
-65
-61
-67
-73
-78
-62
-68
-79
-70
-64
-64
-62
-72
-78
-88
-105
-89
-72
-69
-65
-60
-66
-73
-75
-93
-64
-73
-95
-101
-101
-33
-53
-73
-86
-75
-76
-79
-67
-76
-68
-71
-84
-77
-76
-74
-72
-76
-79
-80
-83
-93
-75
-64
-72
-65
-80
-78
-87
-73
-62
-67
-72
-65
-62
-68
-68
-73
-80
-69
-76
-72
-69
-75
-74
-71
-77
-78
-70
-66
-66
-70
-65
-56
-74
-89
-74
-58
-71
-71
-86
-74
-72
-72
-64
-73
-74
-68
-64
-69
-84
-84
-83
-80
-76
-83
-85
-72
-90
-91
-69
-71
-79
-79
-75
-79
-81
-83
-81
-80
-74
-100
-99
-87
-66
-68
-56
-60
-60
-75
-86
-79
-78
-72
-68
-58
-43
-43
-32
-1
20
28
25
48
60
54
40
13
6
-2
-21
-39
-48
-64
-70
-60
-66
-84
-78
-68
-78
-84
-73
-75
-83
-93
-77
-76
-84
-73
-72
-84
-70
-78
-74
-68
-68
-80
-101
-84
-82
-73
-63
-70
-72
-73
-77
-76
-71
-76
-77
-70
-74
-77
-77
-72
-82
-80
-82
-77
-77
-67
-78
-70
-76
-76
-75
-68
-57
-64
-74
-79
-70
-95
-85
-68
-66
-70
-67
-54
-56
-70
-72
-69
-60
-54
-59
-68
-63
-65
-76
-67
-78
-68
-63
-63
-58
-50
-48
-47
-64
-70
-61
-36
-52
-46
-48
-47
-34
-38
-49
-56
-53
-41
-27
-35
-39
-36
-27
-47
-49
-44
-34
-40
-40
-46
-45
-56
-44
-48
-54
-56
-51
-67
-67
-65
-55
-66
-67
-68
-82
-73
-64
-87
-87
-52
-51
-68
-81
-73
-74
-71
-63
-82
-93
-91
-82
-78
-70
-76
-73
-83
-81
-87
-79
-80
-92
-93
-82
-88
-78
-74
-79
-89
-101
-90
-82
-89
-72
-68
-72
-82
-89
-99
-75
-85
-88
-74
-70
-71
-75
-72
-65
-80
-90
-93
-78
-66
-77
-78
-71
-84
-94
-86
-96
-75
-56
-62
-78
-90
-88
-78
-74
-73
-73
-70
-71
-73
-64
-70
-66
-67
-83
-84
-81
-78
-82
-81
-88
-72
-76
-80
-83
-80
-72
-59
-70
-67
-71
-73
-89
-88
-69
-69
-67
-80
-77
-79
-72
-71
-81
-82
-88
-78
-77
-87
-86
-83
-84
-72
-66
-59
-68
-63
-73
-79
-66
-67
-69
-74
-67
-69
-69
-76
-81
-76
-75
-77
-94
-89
-72
-64
-76
-73
-70
-83
-75
-83
-68
-62
-86
-84
-75
-81
-75
-70
-84
-77
-80
-66
-68
-81
-85
-74
-82
-69
-79
-60
-65
-63
-76
-86
-104
-55
-65
-87
-83
-57
-64
-77
-79
-72
-69
-64
-66
-71
-82
-65
-75
-67
-53
-66
-70
-64
-72
-56
-54
-57
-75
-68
-63
-66
-69
-72
-68
-65
-58
-53
-73
-75
-81
-63
-50
-68
-84
-81
-77
-72
-79
-84
-80
-74
-68
-53
-71
-80
-84
-93
-109
-78
-48
-56
-80
-78
-67
-79
-71
-67
-68
-74
-70
-81
-88
-69
-62
-84
-73
-62
-68
-65
-60
-51
-27
-9
3
30
58
61
65
65
67
49
28
30
12
-17
-18
-30
-60
-61
-62
-69
-63
-61
-63
-67
-63
-59
-68
-82
-64
-65
-73
-75
-77
-72
-66
-76
-71
-68
-68
-66
-77
-86
-105
-68
-63
-75
-66
-65
-53
-76
-56
-55
-66
-68
-64
-69
-77
-66
-73
-71
-63
-70
-68
-80
-101
-88
-79
-70
-43
-49
-56
-70
-78
-67
-59
-60
-61
-52
-53
-69
-61
-67
-70
-63
-47
-61
-65
-55
-56
-61
-64
-54
-66
-61
-41
-44
-58
-53
-50
-54
-59
-49
-48
-51
-48
-56
-46
-28
-37
-37
-38
-38
-34
-52
-42
-38
-48
-37
-17
-22
-33
-38
-52
-56
-24
-28
-26
-33
-33
-31
-24
-33
-40
-42
-38
-51
-41
-31
-46
-63
-51
-43
-59
-69
-61
-60
-56
-60
-58
-60
-70
-70
-69
-58
-66
-77
-72
-72
-75
-73
-69
-72
-71
-70
-61
-66
-93
-107
-94
-63
-41
-58
-77
-64
-69
-78
-63
-75
-73
-69
-74
-65
-79
-74
-63
-79
-92
-88
-78
-66
-68
-71
-80
-97
-79
-63
-60
-73
-72
-69
-79
-64
-63
-67
-75
-76
-80
-78
-70
-77
-68
-69
-79
-66
-62
-62
-70
-73
-62
-58
-73
-79
-64
-54
-77
-87
-76
-69
-74
-78
-79
-68
-73
-98
-108
-44
-57
-59
-67
-65
-78
-63
-73
-66
-80
-65
-63
-69
-70
-69
-79
-71
-78
-76
-79
-86
-67
-62
-66
-65
-60
-63
-67
-73
-68
-70
-66
-68
-75
-74
-76
-68
-61
-52
-59
-73
-80
-75
-75
-65
-71
-76
-65
-66
-76
-75
-61
-57
-74
-71
-69
-78
-77
-87
-75
-77
-74
-58
-62
-66
-66
-89
-78
-77
-68
-63
-60
-70
-54
-56
-81
-87
-91
-83
-68
-55
-55
-63
-69
-70
-69
-63
-67
-67
-63
-63
-63
-69
-68
-70
-88
-96
-63
-52
-53
-68
-67
-58
-61
-59
-47
-56
-70
-59
-59
-64
-65
-64
-63
-74
-73
-79
-87
-80
-73
-53
-64
-79
-86
-60
-59
-72
-65
-75
-81
-72
-64
-63
-65
-60
-66
-59
-80
-80
-79
-75
-73
-83
-68
-55
-81
-87
-86
-71
-45
-63
-72
-72
-75
-75
-82
-84
-67
-65
-69
-69
-52
-39
-3
-5
-2
13
39
55
70
67
72
61
41
19
10
-5
-7
-34
-51
-59
-63
-77
-69
-70
-64
-62
-66
-71
-78
-76
-57
-67
-62
-52
-67
-75
-61
-59
-66
-69
-80
-63
-56
-63
-68
-72
-83
-81
-55
-63
-80
-61
-65
-77
-88
-65
-62
-72
-66
-64
-63
-58
-46
-59
-70
-74
-63
-58
-57
-77
-69
-59
-52
-54
-54
-55
-61
-66
-68
-54
-61
-64
-75
-85
-73
-36
-42
-48
-47
-50
-60
-59
-78
-90
-45
-27
-46
-52
-46
-40
-58
-59
-62
-41
-43
-35
-42
-29
-33
-38
-43
-37
-38
-34
-42
-49
-55
-29
-30
-30
-31
-33
-24
-33
-44
-29
-12
-19
-27
-31
-25
-32
-38
-27
-37
-26
-33
-41
-39
-44
-60
-35
-52
-79
-72
-49
-65
-56
-32
-39
-51
-53
-61
-53
-63
-82
-78
-53
-55
-72
-75
-77
-60
-63
-62
-57
-66
-69
-74
-61
-55
-63
-67
-68
-72
-90
-68
-53
-45
-57
-68
-72
-76
-74
-59
-60
-61
-75
-60
-62
-56
-57
-65
-56
-63
-69
-62
-69
-51
-55
-78
-64
-57
-70
-58
-69
-78
-62
-74
-59
-52
-56
-80
-80
-55
-48
-44
-49
-58
-68
-63
-63
-61
-62
-78
-62
-59
-62
-69
-54
-55
-56
-65
-60
-65
-68
-70
-61
-61
-66
-71
-54
-53
-60
-60
-61
-56
-67
-72
-83
-65
-49
-48
-50
-57
-50
-60
-69
-53
-51
-56
-74
-96
-60
-42
-60
-71
-79
-67
-60
-40
-50
-60
-68
-73
-72
-40
-45
-58
-68
-60
-61
-60
-62
-56
-52
-48
-59
-68
-52
-55
-57
-49
-45
-55
-53
-58
-54
-46
-53
-66
-73
-57
-49
-56
-43
-53
-55
-49
-65
-49
-27
-37
-42
-43
-51
-47
-47
-45
-50
-57
-53
-65
-77
-59
-44
-54
-51
-63
-78
-61
-70
-82
-91
-73
-63
-58
-73
-58
-57
-59
-72
-72
-85
-89
-82
-94
-94
-88
-111
-90
-69
-78
-90
-89
-84
-77
-76
-79
-76
-79
-72
-68
-42
-20
4
20
31
50
46
54
63
56
49
29
2
-14
-15
-30
-57
-50
-43
-55
-61
-58
-61
-58
-54
-65
-71
-52
-48
-55
-50
-58
-58
-51
-52
-56
-72
-69
-61
-47
-38
-46
-54
-53
-52
-41
-50
-50
-46
-45
-41
-44
-55
-57
-58
-64
-35
-45
-42
-41
-41
-49
-44
-42
-44
-41
-44
-55
-46
-54
-34
-26
-40
-71
-47
-31
-39
-28
-31
-36
-37
-35
-31
-31
-33
-41
-39
-34
-23
-40
-34
-47
-46
-33
-17
-22
-19
-16
-14
-11
-5
-16
-22
-35
-46
-9
-4
-16
-27
-16
-15
-31
-9
-1
-9
4
8
2
-3
0
1
-4
-16
-11
-14
-5
-7
3
0
-2
-11
-15
-3
-4
-1
-15
-26
-15
-17
-24
-32
-42
-26
-34
-27
-33
-48
-21
-27
-48
-61
-47
-44
-34
-35
-34
-40
-29
-39
-55
-47
-36
-50
-54
-54
-48
-45
-45
-38
-49
-61
-61
-74
-63
-37
-36
-40
-37
-40
-61
-56
-37
-47
-43
-42
-51
-46
-49
-60
-53
-61
-54
-51
-47
-54
-50
-45
-41
-52
-53
-64
-60
-61
-68
-63
-69
-69
-57
-98
-64
-55
-68
-81
-47
-56
-89
-75
-74
-66
-78
-81
-84
-87
-101
-99
-119
-98
-102
-113
-115
-91
-108
-103
-96
-110
-124
-124
-122
-129
-129
-118
-110
-106
-94
-87
-91
-89
-94
-104
-102
-91
-84
-86
-90
-78
-87
-83
-73
-78
-75
-70
-83
-65
-67
-76
-92
-97
-78
-54
-62
-68
-84
-69
-68
-69
-70
-69
-64
-66
-62
-71
-67
-65
-59
-73
-83
-43
-54
-67
-64
-69
-60
-55
-48
-58
-60
-59
-50
-52
-54
-57
-54
-60
-48
-54
-57
-50
-65
-72
-46
-41
-58
-54
-44
-45
-47
-48
-55
-65
-59
-46
-52
-52
-54
-58
-42
-36
-54
-62
-55
-36
-60
-58
-55
-62
-58
-66
-57
-51
-48
-43
-50
-52
-51
-46
-49
-49
-59
-66
-70
-51
-50
-54
-60
-58
-49
-39
-46
-56
-50
-50
-35
-30
-6
-5
6
34
44
76
84
78
82
73
61
44
29
14
-18
-17
-34
-40
-32
-37
-38
-39
-43
-32
-36
-45
-64
-60
-43
-55
-56
-48
-36
-56
-52
-43
-41
-64
-40
-24
-30
-35
-46
-55
-38
-40
-47
-56
-44
-42
-46
-52
-56
-47
-51
-33
-35
-38
-30
-34
-62
-50
-47
-55
-40
-27
-32
-30
-28
-35
-47
-39
-39
-38
-32
-36
-36
-44
-49
-33
-39
-42
-21
-27
-26
-27
-30
-35
-25
-38
-39
-33
-24
-35
-47
-37
-19
-16
-19
-18
-23
-30
-23
-14
-13
-11
-8
-17
-8
-9
-8
-12
-6
-8
-11
-4
-4
-23
-17
6
-4
-13
-16
-12
-3
13
0
-12
1
-9
-21
-33
-23
-7
-6
-3
-28
-22
-15
-12
-29
-24
-39
-45
-36
-19
-23
-30
-40
-47
-39
-44
-29
-40
-37
-44
-44
-40
-34
-39
-45
-48
-41
-47
-52
-52
-49
-64
-57
-42
-41
-34
-44
-70
-50
-32
-47
-50
-43
-56
-47
-41
-41
-44
-65
-58
-52
-35
-41
-50
-39
-35
-46
-67
-61
-48
-45
-46
-41
-48
-51
-36
-24
-30
-47
-55
-57
-62
-51
-43
-45
-31
-32
-41
-53
-43
-53
-58
-44
-52
-52
-53
-56
-52
-49
-38
-50
-48
-34
-36
-48
-55
-32
-35
-61
-53
-47
-44
-37
-39
-37
-46
-49
-43
-49
-50
-49
-44
-33
-40
-38
-38
-42
-59
-46
-51
-54
-46
-37
-44
-63
-63
-60
-42
-37
-53
-47
-38
-34
-43
-45
-42
-43
-53
-53
-34
-46
-47
-37
-43
-43
-42
-46
-62
-60
-48
-36
-29
-43
-42
-36
-24
-39
-44
-47
-51
-51
-43
-42
-31
-28
-31
-31
-48
-43
-44
-40
-36
-37
-50
-44
-22
-30
-44
-45
-44
-44
-42
-48
-57
-48
-53
-39
-41
-48
-49
-40
-34
-61
-61
-56
-50
-41
-54
-57
-50
-51
-36
-38
-48
-48
-56
-55
-41
-42
-49
-46
-51
-56
-51
-44
-32
-38
-42
-43
-43
-31
-33
-21
0
25
15
48
81
76
89
91
87
57
59
45
20
12
-11
-24
-44
-56
-41
-14
-26
-27
-40
-42
-30
-47
-50
-55
-52
-58
-61
-49
-39
-44
-46
-45
-37
-40
-52
-61
-51
-39
-41
-52
-48
-41
-37
-40
-51
-50
-46
-31
-47
-56
-41
-61
-46
-51
-53
-49
-41
-42
-47
-36
-28
-41
-44
-52
-49
-44
-48
-22
-45
-42
-38
-38
-39
-41
-37
-40
-22
-26
-46
-39
-52
-37
-26
-29
-30
-45
-28
-29
-31
-35
-14
-21
-35
-38
-30
-21
-21
-33
-36
-24
-25
-26
-16
-22
-35
-3
-2
2
-10
-20
-23
0
1
-25
-13
-11
-2
-1
-15
-5
17
7
4
-3
-11
-12
-17
-4
-29
-32
-45
-21
-2
-6
-7
-11
-12
-28
-33
-23
-16
-31
-31
-50
-46
-43
-35
-45
-53
-48
-48
-46
-47
-43
-38
-41
-51
-48
-50
-46
-33
-38
-30
-41
-52
-48
-45
-50
-72
-40
-34
-40
-7
-19
-41
-53
-43
-31
-39
-43
-35
-41
-35
-43
-43
-38
-39
-39
-42
-46
-46
-48
-41
-37
-47
-51
-38
-35
-51
-52
-25
-18
-30
-26
-37
-34
-30
-27
-31
-27
-30
-39
-36
-40
-37
-29
-34
-15
-25
-45
-49
-45
-30
-49
-41
-28
-35
-51
-30
-25
-21
-43
-46
-29
-32
-41
-26
-38
-22
-8
-34
-60
-48
-22
-34
-37
-21
-26
-26
-25
-45
-41
-30
-18
-32
-34
-19
-23
-30
-26
-28
-18
-21
-20
-17
-23
-37
-22
-21
-31
-28
-22
-36
-40
-16
-10
-20
-11
-14
-21
-22
-29
-27
-27
-11
-18
-25
-27
-23
-22
-9
-8
-26
-32
-17
-27
-36
-35
-31
-28
-30
-39
-35
-28
-30
-38
-30
-42
-30
-7
-23
-27
-27
-31
-37
-36
-36
-42
-26
-23
-41
-45
-27
-27
-27
-27
-38
-37
-35
-21
-21
-22
-19
-6
-23
-14
14
39
61
54
60
76
86
91
82
75
42
14
21
29
12
-10
-16
-22
-29
-31
-30
-26
-31
-15
-17
-21
-29
-36
-30
-27
-33
-27
-26
-20
-28
-43
-40
-36
-28
-22
-26
-29
-33
-53
-43
-46
-36
-17
-19
-29
-28
-26
-31
-28
-32
-39
-18
-20
-29
-37
-36
-14
-11
-20
-42
-25
-26
-13
-26
-30
-39
-15
-20
-28
-24
-35
-23
-16
-22
-19
-16
-29
-22
-31
-25
-25
-28
-44
-44
-8
-7
-33
-31
-11
-11
4
3
6
-2
-17
-18
-23
-22
-19
0
-8
-8
-5
-2
-15
0
9
16
5
-4
-4
9
8
-3
10
20
5
4
0
4
11
1
2
-6
-8
-8
1
-6
-26
-8
-11
-18
-13
-12
-13
-28
-20
-29
-52
-36
-25
-38
-45
-28
-19
-22
-21
-26
-44
-33
-41
-43
-29
-40
-38
-38
-36
-24
-61
-64
-53
-36
-35
-30
-35
-34
-44
-39
-45
-45
-51
-45
-36
-40
-44
-47
-45
-48
-41
-48
-39
-36
-26
-29
-35
-43
-43
-48
-56
-53
-31
-49
-40
-26
-30
-25
-38
-36
-54
-49
-53
-50
-62
-32
-48
-49
-24
-27
-48
-65
-50
-46
-32
-34
-31
-47
-34
-39
-46
-37
-38
-38
-37
-18
-34
-55
-46
-41
-33
-39
-50
-47
-47
-40
-44
-40
-35
-28
-35
-47
-47
-42
-50
-51
-44
-49
-32
-45
-57
-55
-49
-32
-44
-28
-39
-52
-55
-38
-18
-32
-40
-53
-45
-45
-57
-34
-35
-45
-55
-43
-31
-17
-32
-44
-49
-45
-53
-37
-20
-25
-41
-26
-42
-52
-34
-13
-27
-28
-30
-46
-46
-43
-35
-28
-48
-41
-46
-54
-35
-52
-48
-41
-32
-42
-58
-54
-40
-48
-48
-53
-54
-38
-38
-38
-46
-51
-47
-52
-29
-29
-45
-58
-45
-64
-51
-60
-56
-50
-42
-41
-49
-50
-47
-50
-37
-31
-30
-23
-25
2
25
52
54
66
87
98
94
85
76
58
43
27
11
-2
-31
-37
-32
-47
-50
-55
-46
-39
-50
-61
-45
-38
-69
-68
-42
-43
-42
-52
-38
-48
-63
-51
-52
-36
-44
-60
-66
-79
-49
-37
-46
-50
-45
-40
-42
-37
-46
-62
-76
-68
-53
-36
-30
-30
-36
-51
-44
-39
-41
-48
-53
-58
-43
-41
-52
-49
-46
-53
-54
-64
-59
-37
-60
-62
-55
-64
-52
-51
-56
-57
-54
-42
-45
-46
-40
-43
-46
-52
-49
-35
-33
-59
-39
-34
-27
-30
-48
-40
-32
-32
-17
-18
-37
-31
-22
-21
-14
-16
-14
-20
-23
-14
-4
-4
-20
-14
-12
-23
-20
-19
-26
-26
-22
-25
-18
-30
-26
-3
-25
-33
-39
-43
-25
-13
-29
-44
-37
-33
-29
-34
-39
-42
-45
-50
-54
-54
-45
-41
-57
-62
-63
-59
-59
-56
-48
-47
-49
-55
-52
-55
-42
-69
-72
-50
-59
-71
-82
-65
-41
-47
-54
-39
-45
-75
-51
-31
-48
-40
-47
-48
-54
-53
-56
-61
-64
-65
-55
-49
-49
-41
-52
-49
-49
-54
-52
-55
-69
-80
-81
-47
-69
-56
-46
-37
-50
-53
-40
-45
-45
-50
-58
-56
-41
-42
-53
-46
-44
-54
-47
-54
-64
-58
-48
-57
-57
-47
-57
-61
-66
-64
-52
-49
-66
-74
-54
-53
-70
-72
-45
-48
-56
-44
-42
-48
-55
-61
-64
-57
-47
-48
-54
-52
-53
-58
-54
-36
-47
-54
-53
-57
-59
-54
-56
-50
-44
-49
-56
-56
-52
-49
-60
-52
-51
-47
-46
-59
-56
-52
-39
-59
-41
-50
-53
-58
-64
-58
-54
-58
-50
-45
-56
-54
-50
-60
-61
-57
-59
-51
-55
-58
-59
-64
-59
-54
-63
-67
-64
-45
-55
-68
-54
-51
-64
-75
-63
-44
-48
-49
-50
-54
-60
-64
-53
-35
-23
3
10
19
42
75
79
78
74
65
59
61
54
28
17
-12
-36
-46
-50
-51
-42
-55
-55
-50
-61
-53
-46
-35
-37
-40
-56
-59
-57
-72
-58
-36
-50
-54
-50
-43
-39
-40
-34
-46
-48
-50
-59
-55
-48
-58
-48
-46
-52
-42
-37
-36
-34
-55
-38
-54
-62
-36
-31
-46
-42
-46
-52
-52
-45
-45
-45
-36
-31
-45
-20
-16
-30
-37
-44
-42
-37
-48
-61
-22
-35
-37
-29
-43
-17
-17
-24
-18
-15
-20
-29
-34
-42
-23
-15
-22
-25
-24
-40
-6
-4
-16
-13
-5
0
-14
-19
-14
-28
-19
-36
-2
-4
4
3
-7
-4
0
0
6
0
-4
-16
-14
-8
-16
-16
-14
-8
-1
-8
-17
-12
-31
-35
-26
-15
-25
-26
-25
-32
-26
-24
-27
-51
-21
-19
-34
-44
-38
-38
-41
-42
-39
-43
-58
-41
-34
-35
-53
-41
-45
-39
-44
-45
-46
-43
-39
-43
-47
-37
-16
-14
-42
-46
-34
-32
-44
-31
-24
-29
-43
-46
-35
-41
-45
-42
-40
-35
-37
-27
-49
-49
-26
-48
-36
-20
-40
-54
-35
-22
-26
-30
-32
-28
-34
-32
-36
-36
-41
-32
-33
-43
-16
-14
-23
-30
-35
-34
-40
-29
-26
-31
-39
-39
-38
-35
-37
-44
-49
-35
-13
7
-29
-57
-21
-22
-23
-25
-26
-35
-31
-30
-37
-56
-49
-18
-19
-17
-13
-23
-22
-22
-34
-32
-42
-13
-10
-11
-13
-22
-25
-26
-25
-32
-15
-11
-12
-23
-17
-29
-37
-19
-20
-23
-27
-31
-27
-22
-9
-22
-45
-43
-32
-19
-14
-5
-34
-51
-26
-25
-23
-13
-33
-33
-7
-11
-31
-44
-33
-27
-27
-33
-31
-21
-16
-16
-31
-29
-21
-37
-29
-15
-25
-21
-4
-11
-9
5
4
28
65
79
83
79
94
111
104
71
52
31
30
29
12
-16
-27
-17
-27
-25
-22
-21
-19
-22
-25
-39
-23
-20
-39
-26
9
-17
-16
-16
-14
-27
-25
-17
-18
-27
-22
-20
-24
-15
-16
-21
-35
-24
-21
-24
-34
-35
-21
-18
-4
-3
-19
-17
-19
-14
-3
-23
-30
-21
-13
-22
-12
-21
-17
-17
-15
-19
-15
-13
-20
-34
-26
-26
-8
-17
9
7
-14
-10
-17
-13
2
1
-12
-16
-36
-30
-11
3
19
21
18
6
-1
5
4
-2
0
4
8
6
2
1
8
13
5
-1
-4
12
29
30
25
34
12
4
12
14
25
29
18
12
3
29
21
7
13
16
11
15
21
10
-13
-13
-16
-12
-11
1
-10
-11
-4
-9
-25
-26
-19
-15
-5
-8
-29
-60
-36
4
-17
-37
-16
-20
-30
-28
-23
-14
-26
-33
-29
-7
-19
-27
-32
-25
-29
-27
-26
-27
-38
-33
-29
-27
-19
-25
-28
-32
-13
-21
-31
-32
-36
-24
-14
-5
-26
-20
-26
-20
-22
-14
-25
-34
-25
-11
-28
-30
-30
-32
-34
-29
-7
-13
-19
-24
-24
-25
-27
-16
-19
-23
-24
-19
-29
-37
-26
-29
-21
-22
-28
-32
-23
-22
-24
-21
-24
-38
-22
-12
-32
-54
-46
-21
-26
-38
-21
-33
-42
-19
-11
-13
-38
-36
-24
-28
-35
-18
-20
-20
-32
-14
-16
-25
-22
-28
-35
-23
-29
-28
-21
-27
-39
-37
-22
-29
-23
-29
-24
-15
-15
-27
-42
-46
-31
-21
-12
-4
-14
-21
-29
-23
-22
-33
-27
-12
-30
-32
-36
-32
-44
-32
-7
-18
-39
-16
-17
-35
-40
-38
-38
-28
-28
-38
-33
-36
-51
-35
-50
-41
-28
-30
-27
-40
-27
-30
-32
-24
-24
-34
-48
-38
-40
-34
-24
-17
-10
-18
3
19
19
32
47
60
87
103
99
116
97
69
63
57
33
29
23
-3
-37
-34
-20
-25
-43
-20
-25
-33
-31
-9
-18
-25
-20
-31
-29
-23
-41
-57
-50
-16
-34
-40
-42
-42
-41
-29
-25
-29
-19
-27
-49
-54
-12
-8
-28
-31
-41
-39
-32
-42
-34
-21
-15
-23
-33
-34
-35
-20
-16
-23
-22
-31
-23
-35
-35
-25
-15
-23
-27
-30
-30
-32
-27
-26
-21
-13
-14
-12
-16
-15
-8
-15
-27
-24
-17
-26
-26
-23
-12
-7
-11
-5
-18
-28
-17
-5
-5
-15
-17
3
2
-5
5
6
-11
-7
2
7
3
-11
5
5
29
14
19
11
0
11
13
8
10
3
3
-8
-2
1
-6
-1
-5
-7
-5
-12
-14
-14
-13
-15
-25
-17
-23
-29
-30
-39
-46
-23
-32
-32
-31
-26
-22
-28
-18
-18
-46
-40
-53
-31
-29
-26
-38
-53
-24
-34
-47
-34
-12
-32
-45
-42
-39
-36
-24
-24
-39
-47
-47
-41
-24
-18
-35
-47
-41
-33
-44
-38
-30
-36
-35
-24
-36
-37
-47
-39
-30
-31
-31
-39
-40
-31
-33
-50
-34
-33
-38
-59
-63
-49
-29
-21
-23
-31
-26
-23
-25
-29
-42
-44
-47
-34
-34
-41
-36
-41
-44
-28
-46
-43
-31
-40
-34
-37
-36
-30
-32
-26
-30
-55
-46
-30
-32
-34
-36
-51
-49
-40
-37
-27
-12
-28
-26
-27
-43
-41
-41
-36
-28
-39
-35
-36
-46
-45
-45
-38
-24
-23
-23
-24
-24
-17
-40
-44
-35
-34
-34
-44
-46
-48
-56
-60
-45
-46
-51
-40
-45
-50
-45
-36
-39
-36
-49
-61
-55
-27
-33
-46
-34
-42
-46
-40
-45
-61
-38
-30
-34
-45
-35
-45
-51
-53
-47
-47
-45
-54
-42
-39
-37
-29
-29
-16
-7
15
35
69
81
69
78
86
80
72
52
35
24
18
-4
-40
-36
-33
-40
-46
-47
-42
-40
-46
-45
-39
-63
-49
-46
-45
-48
-37
-41
-64
-55
-38
-41
-48
-44
-56
-56
-49
-52
-52
-49
-55
-66
-63
-43
-28
-37
-52
-49
-57
-46
-34
-45
-43
-46
-38
-41
-42
-52
-62
-42
-35
-76
-45
-40
-38
-34
-34
-49
-60
-87
-49
-24
-37
-37
-48
-40
-31
-32
-37
-30
-21
-24
-30
-25
-29
-34
-34
-50
-33
-27
-26
-23
-26
-25
-28
-41
-20
-12
-11
-14
-14
-15
-11
-15
-47
-23
-12
-18
-31
-27
-24
-32
-10
-1
-10
9
-10
-7
-5
-8
-14
-21
-18
-24
-14
-16
-18
-23
-27
-27
-44
-31
-23
-26
-29
-28
-43
-50
-32
-42
-48
-50
-46
-34
-42
-54
-79
-60
-44
-43
-42
-43
-34
-46
-45
-29
-34
-55
-58
-35
-50
-52
-46
-46
-66
-67
-55
-48
-41
-49
-54
-45
-53
-63
-59
-55
-64
-63
-43
-47
-55
-56
-47
-44
-46
-39
-39
-46
-45
-41
-41
-49
-48
-46
-38
-49
-49
-49
-51
-48
-45
-41
-62
-50
-32
-37
-50
-43
-41
-44
-49
-65
-61
-47
-53
-47
-28
-29
-44
-44
-49
-33
-29
-42
-33
-26
-36
-53
-45
-53
-35
-38
-48
-50
-44
-51
-42
-31
-35
-55
-49
-48
-47
-49
-52
-59
-44
-44
-39
-55
-40
-38
-39
-51
-45
-42
-47
-49
-49
-50
-49
-52
-18
-26
-35
-34
-34
-34
-40
-33
-32
-51
-64
-43
-38
-34
-37
-44
-41
-51
-56
-61
-63
-70
-57
-35
-30
-29
-43
-52
-55
-33
-32
-56
-32
-22
-16
-25
-33
-29
-33
-42
-47
-45
-48
-35
-35
-38
-35
-36
-37
-29
-34
-30
-37
-35
-50
-45
-49
-51
-41
-50
-48
-54
-30
-46
-52
-52
-45
-49
-45
-39
-44
-52
-58
-53
-43
-28
-33
-46
-42
-43
-43
-63
-38
-31
-49
-43
-30
-29
-49
-45
-51
-40
-13
-8
9
15
33
61
91
104
103
98
92
73
50
53
57
36
-9
-24
-26
-31
-28
-32
-39
-48
-51
-52
-38
-51
-45
-38
-45
-63
-44
-46
-43
-44
-49
-54
-60
-51
-52
-55
-57
-54
-57
-62
-45
-46
-52
-59
-55
-62
-69
-59
-58
-55
-52
-49
-52
-50
-46
-61
-55
-53
-43
-50
-51
-50
-56
-45
-46
-46
-59
-61
-66
-51
-44
-62
-50
-43
-45
-43
-44
-36
-59
-42
-27
-27
-40
-41
-51
-53
-35
-37
-47
-49
-29
-33
-52
-45
-28
-28
-38
-37
-39
-42
-35
-23
-16
-12
-19
-20
-45
-34
-21
-17
-27
-16
-34
-36
-30
-36
-28
-24
-21
-16
-18
-14
-18
-18
-18
-27
-33
-29
-30
-28
-32
-30
-31
-33
-28
-34
-34
-42
-47
-44
-53
-87
-64
-57
-60
-56
-45
-40
-48
-67
-55
-62
-69
-60
-57
-58
-58
-65
-58
-58
-57
-64
-57
-59
-60
-63
-60
-64
-62
-54
-74
-77
-83
-53
-49
-51
-67
-72
-61
-61
-60
-72
-71
-55
-56
-65
-57
-64
-57
-41
-53
-54
-60
-56
-55
-55
-54
-66
-73
-61
-74
-62
-60
-40
-52
-64
-65
-55
-61
-60
-60
-66
-61
-57
-53
-54
-52
-53
-56
-58
-55
-57
-60
-56
-53
-57
-51
-51
-63
-56
-53
-59
-53
-50
-63
-63
-60
-67
-64
-57
-66
-48
-67
-57
-60
-70
-77
-71
-59
-58
-66
-65
-67
-67
-68
-66
-73
-71
-63
-58
-60
-75
-69
-63
-63
-56
-48
-58
-66
-69
-50
-49
-50
-54
-50
-51
-49
-54
-64
-66
-65
-53
-52
-73
-58
-50
-52
-52
-47
-52
-63
-57
-36
-37
-46
-59
-62
-48
-37
-54
-51
-54
-53
-32
-22
-41
-58
-66
-49
-65
-63
-62
-51
-49
-47
-48
-49
-43
-37
-39
-54
-41
-33
-36
-48
-45
-50
-58
-58
-43
-49
-56
-47
-43
-43
-41
-49
-65
-52
-64
-55
-33
-24
-20
-42
-40
-38
-27
-24
-2
-10
33
71
66
85
113
109
78
71
65
39
29
28
8
-12
-28
-53
-46
-25
-15
-29
-30
-38
-60
-64
-53
-30
-38
-36
-16
-23
-24
-34
-36
-47
-33
-31
-27
-26
-39
-37
-30
-34
-37
-46
-43
-34
-20
-19
-29
-30
-37
-29
-16
-29
-38
-38
-42
-33
-29
-35
-31
-31
-25
-27
-29
-15
-8
-26
-18
-37
-44
-57
-3
0
-24
-35
-16
-14
-29
-18
-7
-16
-22
-20
0
-13
-5
-26
-20
1
-5
0
-12
-15
-13
-7
-4
-14
-5
1
7
-6
-24
-14
9
26
10
8
11
10
12
-6
-11
7
13
6
18
9
-20
10
39
20
12
14
23
-3
9
16
34
26
10
10
-2
-3
-9
-10
-12
-8
-6
-3
-2
-12
-24
-31
-27
-18
-2
-19
-25
-18
-13
-17
-15
-13
-25
-21
-9
-21
-36
-17
-28
-17
-11
-19
-37
-19
-13
-25
-27
-23
-17
-20
-26
-22
-16
-26
-15
-56
-45
-12
-10
-10
-27
-19
-6
1
-7
-22
-11
1
-32
-28
-13
-10
-23
-26
-14
-21
-23
-17
-10
-18
-23
-10
-9
-16
-20
-22
-22
-17
-27
-26
-21
-18
1
3
-14
-10
-8
-20
-30
-11
-15
-18
-13
-4
-19
-27
-21
-32
-27
-17
-21
-9
-14
-3
0
-8
-27
-31
-26
-18
-20
-28
-29
-15
-30
-25
-6
-11
-12
-4
-25
-11
-13
-15
-9
-4
-3
-3
-9
-19
-23
-17
-30
-26
-16
-7
3
-12
-17
-13
-8
-15
-30
-8
8
-19
-26
-10
-19
-20
-18
-10
-37
-42
-25
-15
-24
-10
-11
-21
-30
-25
-18
-23
-34
-38
-12
-1
-25
-16
-15
-31
-26
-39
-25
-4
-12
-15
-14
-19
-18
-22
-11
-6
-15
-22
-13
-31
-45
-26
-9
-14
-14
-6
-7
1
19
22
43
84
93
96
96
103
86
72
48
34
33
26
8
-16
-11
-10
-5
1
0
-14
-22
-14
-10
-10
-5
2
-23
-25
-23
-25
-26
-18
-3
-10
-19
-26
-19
-29
-31
-28
-37
-36
-71
-36
11
-4
-9
-25
-4
-3
-8
-8
-5
-5
-7
-9
-22
-16
-12
-21
-20
-9
-1
-12
-14
-18
-14
-7
-1
-9
-12
-19
-16
-10
-8
-17
-18
-16
-31
-34
-6
21
11
4
-6
-7
-6
2
-1
3
2
-11
-19
-18
-12
-3
-10
9
-4
-12
-23
22
18
15
25
8
-7
0
13
-10
19
13
12
30
28
21
24
16
-1
12
9
22
12
4
4
13
14
1
-16
-27
-17
1
2
-3
6
4
17
17
-45
-53
-1
-5
-24
-7
-21
-20
-12
-24
-28
-31
-36
-31
-36
-40
-52
-49
-50
-15
-16
-15
-5
-24
-34
-40
-42
-34
-39
-23
-23
-43
-40
-35
-27
-31
-51
-47
-40
-14
-19
-31
-23
-12
-7
-2
-14
-33
-46
-44
-35
-47
-32
-30
-38
-27
-26
-29
-38
-60
-86
-50
-43
-32
-34
-41
-35
-30
-44
-30
-34
-25
-12
-18
-20
-8
-18
-23
-11
-12
-24
-36
-41
-44
-35
-29
-25
-25
-33
-21
-14
-42
-53
-49
-37
-30
-50
-60
-41
-23
-12
-25
-23
-28
-25
-42
-36
-31
-31
-24
-27
-33
-40
-25
-25
-29
-37
-26
-22
-35
-41
-46
-72
-84
-69
-43
-18
-17
-31
-40
-27
-18
-8
7
6
-18
-31
-10
-13
-51
-65
-44
-12
-1
-10
-18
-27
-38
-34
-26
1
-9
-20
-8
-26
-31
-13
12
-15
-35
-55
-50
-38
-39
-62
-33
-53
-52
-40
-42
-41
-42
-58
-64
-57
-33
-6
-35
-43
-55
-54
-83
-73
-51
-39
-21
-5
-18
-7
6
14
16
78
112
97
81
78
73
101
88
60
49
28
-7
-17
0
-22
-34
-11
-8
-16
-4
27
31
10
-21
-76
-37
-26
-26
-9
8
-1
35
22
-4
-12
-2
6
23
9
-2
6
7
10
15
-3
2
-26
-29
-15
-20
-3
6
15
8
6
5
-7
6
18
-11
11
15
29
40
34
38
8
-9
8
10
-15
-20
-3
9
13
31
39
35
10
16
12
14
18
11
22
54
45
44
48
29
15
26
60
53
50
39
49
53
78
65
47
36
43
30
37
80
90
67
70
74
53
47
48
64
64
77
44
35
52
71
71
61
63
73
66
84
86
58
68
72
46
58
65
64
70
85
65
31
20
0
18
45
40
36
54
54
38
8
34
39
43
33
26
32
41
24
17
8
14
-6
-19
27
40
22
21
21
34
24
-1
4
28
43
41
33
8
31
24
16
12
15
27
35
44
65
70
9
-21
-2
13
19
16
-14
-6
37
10
13
27
26
32
22
9
31
25
13
18
24
86
73
41
32
35
39
46
17
14
11
17
9
43
61
44
47
47
17
47
36
23
29
29
31
26
27
46
64
27
20
23
25
15
13
30
47
46
35
36
36
14
31
62
58
52
38
31
73
74
58
53
21
21
23
25
30
61
62
30
17
16
19
41
66
58
35
46
44
66
68
58
58
33
11
35
69
102
83
71
65
29
48
54
44
68
81
51
44
43
50
48
43
34
64
73
30
50
77
71
51
68
62
65
66
65
60
68
73
89
111
63
14
37
51
43
33
35
44
20
12
31
45
58
52
54
85
86
83
78
82
109
118
141
137
172
189
175
191
186
164
130
143
136
140
119
94
90
74
89
93
82
98
102
74
87
99
111
100
57
66
61
72
63
61
65
70
62
68
79
70
89
73
64
77
95
115
102
91
73
87
82
105
78
76
80
75
71
86
89
85
107
86
56
83
110
117
127
103
79
73
69
94
122
132
78
64
78
80
58
101
108
92
83
95
93
78
79
90
102
117
130
120
97
86
101
67
84
78
76
95
135
136
123
105
97
108
130
129
118
104
130
122
103
68
108
134
139
121
130
137
149
128
116
109
107
121
118
102
122
106
123
136
134
155
117
107
110
125
121
69
74
116
104
126
142
112
100
80
85
77
84
103
109
120
136
147
128
94
105
107
95
110
113
136
146
106
73
74
96
76
70
67
70
110
101
58
76
127
122
100
113
115
102
93
118
105
89
88
112
135
116
117
128
112
87
108
128
118
117
126
135
131
137
126
114
85
85
110
120
105
100
106
139
137
97
127
128
105
98
121
137
107
119
122
114
108
109
137
148
147
125
105
96
105
107
90
126
161
128
94
76
124
152
127
124
121
127
123
131
133
127
150
162
126
133
140
133
120
122
146
135
147
141
132
124
117
140
152
145
137
122
124
137
140
120
111
119
126
124
132
121
92
91
149
157
144
116
139
128
123
149
130
110
114
132
160
131
103
101
122
138
136
133
143
143
156
159
146
123
132
148
152
154
129
129
168
182
133
118
135
146
170
182
185
215
239
267
257
256
257
248
257
268
252
235
218
226
200
151
159
169
130
137
109
157
161
142
142
130
146
130
122
151
150
130
133
139
137
135
135
125
135
129
146
155
147
127
143
131
171
168
151
116
122
115
134
157
140
131
141
154
158
149
149
126
154
151
149
139
145
133
128
143
156
141
148
175
177
125
120
122
126
126
126
141
146
160
142
128
122
136
152
158
144
133
138
147
141
137
135
148
137
128
149
174
174
176
189
164
147
172
154
156
164
166
174
170
161
185
167
163
155
165
181
179
171
166
176
185
183
160
166
176
181
183
180
160
153
142
160
167
168
162
150
141
157
163
151
167
132
137
128
129
139
154
139
123
119
116
138
132
135
130
112
148
147
155
132
109
133
135
149
150
146
150
156
160
127
129
140
168
153
141
138
139
152
154
131
130
133
158
156
111
138
171
172
149
157
146
152
135
107
108
121
154
152
148
155
149
132
101
116
133
123
123
125
127
119
123
143
146
131
119
106
107
130
144
140
126
121
133
139
148
165
165
155
129
129
119
114
126
182
165
121
107
136
153
152
145
143
158
152
153
157
160
150
135
130
123
116
127
119
129
138
136
135
134
143
128
132
145
136
128
141
134
119
110
121
118
112
109
148
160
147
131
121
92
109
132
130
129
136
133
138
128
114
126
123
126
146
168
186
196
223
240
243
256
244
251
255
254
238
219
207
184
159
131
129
138
146
127
130
155
148
140
142
120
107
117
123
140
120
107
107
144
142
134
136
129
122
123
134
142
134
132
116
168
151
143
128
139
133
122
130
135
135
134
128
120
125
139
151
150
127
114
118
134
123
128
144
157
159
137
137
136
116
117
132
147
176
139
115
114
110
119
146
140
167
143
133
136
139
141
173
151
150
136
147
133
148
158
152
153
160
149
143
137
122
141
196
183
161
158
169
153
142
147
164
164
171
161
149
145
145
148
164
151
143
164
137
109
181
183
168
154
134
138
133
124
131
138
124
94
114
133
134
123
111
118
106
111
100
116
93
90
104
126
135
144
123
120
108
116
128
102
107
97
93
101
108
108
99
95
96
102
99
126
145
131
111
101
81
78
87
118
120
116
91
98
99
88
105
117
96
92
85
119
125
120
116
115
98
87
72
115
135
119
109
112
115
103
104
103
98
100
99
113
97
105
89
83
91
122
120
102
113
106
89
87
86
107
128
121
108
113
107
85
92
111
77
95
95
94
82
81
89
85
71
103
120
121
96
65
70
82
86
87
86
75
69
63
65
96
103
100
78
77
71
73
84
104
77
92
88
73
75
86
73
70
71
71
82
87
92
114
107
120
133
135
171
197
205
200
194
206
201
191
178
157
138
132
98
75
64
80
70
79
68
74
85
82
91
86
71
81
62
54
58
58
73
66
82
85
76
74
70
77
82
79
68
74
77
85
80
83
79
48
48
71
95
78
48
49
90
92
96
91
86
87
75
70
85
82
73
70
71
72
76
74
66
74
87
79
73
72
72
67
78
80
78
74
66
77
75
86
86
86
101
62
35
69
117
117
129
98
87
65
89
99
93
95
74
75
90
87
85
93
87
77
90
93
68
81
119
97
100
98
93
80
84
84
101
95
102
82
75
73
84
77
68
86
94
80
59
46
46
44
68
57
51
51
31
-7
57
68
51
52
48
35
28
37
42
26
36
31
43
45
24
38
32
44
46
42
24
17
28
30
24
19
40
32
14
29
26
26
22
72
56
40
40
43
31
21
31
17
31
44
49
40
51
27
37
33
23
31
38
24
-25
6
17
42
18
36
45
34
19
13
23
23
30
12
23
23
24
37
22
21
24
25
31
28
24
23
4
4
1
0
18
32
20
27
17
12
13
38
46
26
26
13
13
21
17
4
-6
-3
-5
-2
5
-3
0
5
3
3
-5
-21
0
3
5
13
8
4
-6
-7
3
3
0
7
-3
-9
-40
-28
-26
-30
-23
-26
-44
-35
-18
-35
-39
-35
-40
-52
-31
-4
67
73
91
87
73
56
31
21
21
-13
-20
-27
-36
-34
-23
-29
-47
-46
-27
-48
-47
-28
-25
-29
-36
-21
-32
-40
-36
-40
-40
-35
-43
-47
-47
-29
-7
-9
-46
-57
-45
-16
-4
-20
-27
-44
-39
-36
-30
-15
-8
-39
-56
-40
-35
-17
-24
-33
-9
-27
-28
-21
-24
-15
-7
-19
-45
-44
-41
-39
-37
-9
-19
-20
-13
-21
-32
-38
-25
-22
-20
-23
-33
-26
-8
-15
-25
-16
3
-3
3
7
-22
-18
-5
-4
-5
-26
-13
6
0
-21
-27
-11
27
-1
-12
-10
10
13
-16
-9
-10
9
11
2
-11
5
5
-1
5
18
17
20
3
-24
-14
-7
-18
-8
-12
-12
-26
-37
1
7
-3
-16
-29
-35
-18
-25
-34
-22
-24
-30
-46
-14
-18
-39
-40
-36
-37
-21
-30
-32
-34
-27
-51
-46
-33
-20
-32
-28
-19
-32
-58
-67
-52
-28
-19
-25
-27
-32
-27
-43
-34
-45
-43
-26
-23
-33
-45
-33
-24
-41
-30
-17
-23
-57
-76
-30
-9
4
-21
-43
-25
-17
-33
-32
-15
-15
-26
-22
-27
-28
-28
-38
-53
-33
-24
-20
-25
-31
-24
-14
-15
-35
-41
-21
-27
-34
-20
-19
-32
-39
-35
-18
-24
-37
-51
-51
-21
7
-21
-36
-31
-43
-26
-17
-31
-24
-40
-37
-31
-17
-33
-59
-48
1
0
-45
-76
-45
-38
-26
-36
-24
-39
-30
-24
-27
-25
-32
-38
-36
-33
-41
-31
-33
-48
-32
-46
-43
-45
-63
-53
-31
-30
-20
-26
-33
-23
-4
-14
5
25
32
63
89
117
99
100
86
63
50
20
14
24
-1
-31
-39
-21
-35
-46
-46
-28
-27
-23
-10
-18
-26
-44
-44
-52
-27
-5
-18
-44
-42
-34
-40
-32
-39
-42
-31
-43
-43
-33
-34
-47
-50
-35
-23
-36
-47
-51
-68
-69
-42
-7
-18
-35
-49
-51
-57
-53
-56
-51
-59
-41
-38
-39
-42
-51
-25
-32
-50
-54
-25
-29
-29
-41
-51
-40
-44
-36
-32
-49
-25
-34
-55
-45
-58
-46
-24
-15
-42
-36
-35
-44
-30
-24
-29
-34
-34
-30
-34
-33
-13
-23
-27
-36
-22
-14
-35
-44
-36
-46
-37
-47
-38
-21
-26
-29
-35
-52
-53
-50
-22
-20
-26
-10
-10
-43
-46
-50
-50
-40
-59
-65
-80
-41
-50
-45
-41
-74
-80
-71
-75
-88
-83
-69
-57
-81
-74
-85
-91
-74
-69
-83
-86
-79
-85
-88
-82
-78
-70
-85
-57
-76
-72
-77
-92
-81
-74
-92
-85
-85
-82
-82
-81
-81
-89
-95
-80
-61
-76
-103
-88
-75
-93
-76
-78
-99
-84
-63
-76
-69
-78
-92
-98
-118
-99
-80
-92
-74
-93
-100
-99
-83
-101
-91
-79
-93
-103
-114
-91
-93
-95
-94
-81
-85
-91
-76
-93
-97
-91
-76
-91
-76
-90
-86
-95
-92
-84
-90
-86
-96
-85
-81
-94
-101
-105
-81
-100
-112
-99
-91
-67
-73
-80
-96
-118
-125
-92
-88
-85
-101
-114
-104
-98
-68
-94
-100
-100
-116
-110
-101
-92
-100
-107
-115
-105
-95
-103
-96
-79
-86
-117
-128
-108
-107
-108
-100
-101
-114
-109
-111
-115
-100
-104
-99
-93
-106
-133
-116
-81
-80
-68
-73
-41
-29
-30
-7
-3
1
23
28
15
15
-25
-52
-58
-52
-83
-102
-116
-118
-127
-110
-101
-115
-120
-113
-118
-111
-132
-137
-120
-111
-137
-119
-113
-122
-125
-144
-135
-135
-118
-136
-112
-120
-128
-132
-136
-126
-102
-107
-122
-138
-132
-123
-116
-120
-101
-122
-138
-173
-140
-107
-101
-106
-109
-124
-116
-119
-116
-128
-133
-116
-113
-119
-118
-107
-107
-129
-111
-115
-110
-112
-106
-123
-132
-118
-106
-89
-98
-120
-114
-99
-90
-99
-108
-126
-119
-124
-136
-99
-90
-97
-99
-91
-102
-91
-103
-100
-105
-119
-131
-79
-83
-102
-104
-108
-82
-79
-83
-94
-96
-82
-73
-85
-99
-92
-112
-96
-98
-103
-95
-116
-133
-133
-110
-99
-84
-95
-106
-112
-103
-96
-117
-109
-110
-108
-132
-103
-119
-120
-127
-131
-119
-132
-136
-132
-121
-127
-119
-115
-121
-124
-110
-128
-145
-141
-133
-112
-126
-134
-125
-139
-138
-143
-91
-97
-126
-122
-129
-131
-115
-127
-127
-122
-108
-113
-129
-144
-146
-132
-123
-132
-144
-152
-117
-124
-135
-134
-124
-128
-135
-136
-114
-105
-120
-125
-131
-120
-118
-132
-115
-115
-105
-124
-119
-137
-135
-126
-127
-135
-133
-118
-118
-132
-109
-118
-124
-117
-124
-140
-138
-123
-124
-125
-131
-145
-156
-138
-99
-109
-111
-123
-133
-127
-103
-109
-126
-123
-124
-132
-104
-128
-141
-120
-112
-114
-111
-130
-134
-123
-122
-126
-131
-129
-132
-115
-103
-114
-131
-121
-137
-131
-126
-134
-132
-141
-146
-155
-162
-157
-129
-148
-162
-190
-171
-174
-180
-180
-164
-201
-158
-146
-170
-164
-167
-173
-157
-136
-145
-140
-126
-125
-131
-88
-76
-80
-64
-26
-12
13
-13
-19
-38
-30
-41
-70
-71
-97
-130
-127
-141
-129
-139
-144
-142
-137
-147
-163
-160
-142
-132
-117
-129
-115
-129
-126
-142
-144
-134
-122
-124
-136
-130
-137
-149
-139
-122
-141
-166
-147
-121
-100
-116
-129
-145
-141
-110
-136
-154
-125
-125
-137
-124
-143
-129
-126
-116
-127
-122
-121
-110
-106
-106
-103
-134
-122
-125
-125
-126
-140
-145
-112
-104
-110
-114
-98
-109
-124
-112
-104
-111
-97
-103
-111
-114
-112
-118
-133
-124
-109
-104
-101
-106
-111
-105
-93
-99
-114
-127
-115
-101
-92
-103
-79
-87
-114
-111
-92
-79
-81
-94
-88
-92
-95
-72
-65
-78
-107
-94
-90
-83
-95
-106
-94
-105
-96
-97
-103
-104
-116
-129
-122
-111
-125
-116
-111
-110
-120
-108
-109
-122
-139
-136
-108
-99
-130
-133
-151
-139
-117
-110
-122
-129
-115
-107
-133
-118
-106
-102
-119
-134
-132
-117
-136
-127
-120
-138
-124
-118
-115
-122
-115
-118
-121
-124
-135
-97
-114
-135
-157
-125
-121
-119
-128
-111
-129
-120
-128
-116
-116
-111
-109
-106
-111
-118
-119
-136
-130
-135
-136
-137
-128
-135
-119
-110
-121
-134
-132
-132
-131
-123
-116
-105
-118
-129
-117
-112
-132
-152
-148
-151
-133
-129
-122
-123
-122
-135
-114
-92
-116
-140
-124
-116
-126
-109
-111
-110
-128
-127
-138
-136
-123
-137
-160
-112
-99
-115
-105
-99
-119
-110
-109
-120
-132
-118
-119
-129
-138
-130
-118
-92
-116
-129
-122
-133
-150
-136
-129
-131
-124
-112
-130
-130
-131
-140
-153
-112
-112
-117
-123
-108
-120
-128
-134
-129
-137
-123
-126
-125
-129
-136
-127
-129
-130
-114
-121
-114
-86
-79
-97
-82
-39
-39
-12
15
11
-5
23
13
-15
-11
-41
-73
-88
-84
-110
-150
-110
-111
-121
-114
-108
-105
-101
-101
-118
-138
-146
-125
-143
-120
-103
-108
-123
-124
-127
-132
-147
-142
-117
-123
-110
-145
-129
-122
-136
-108
-106
-105
-116
-114
-113
-102
-119
-114
-114
-111
-123
-122
-111
-102
-105
-120
-139
-135
-101
-111
-117
-103
-113
-116
-117
-111
-117
-114
-113
-121
-132
-120
-118
-108
-93
-108
-95
-99
-119
-116
-109
-113
-107
-108
-93
-97
-88
-96
-108
-104
-115
-111
-86
-88
-80
-86
-77
-98
-92
-101
-117
-95
-81
-72
-68
-80
-92
-65
-82
-77
-78
-96
-87
-92
-103
-101
-86
-99
-99
-69
-78
-104
-103
-91
-86
-80
-88
-96
-95
-83
-81
-96
-114
-114
-124
-119
-119
-132
-103
-110
-107
-119
-114
-112
-88
-96
-99
-110
-114
-106
-114
-141
-147
-112
-110
-106
-110
-113
-113
-113
-110
-124
-114
-99
-107
-102
-117
-88
-88
-96
-114
-135
-128
-108
-98
-95
-104
-113
-89
-96
-127
-145
-136
-115
-99
-90
-87
-99
-98
-122
-126
-103
-111
-101
-112
-117
-118
-110
-101
-104
-109
-110
-116
-104
-107
-91
-108
-117
-111
-117
-92
-98
-112
-84
-103
-100
-106
-116
-103
-81
-90
-106
-93
-87
-89
-115
-125
-111
-110
-112
-117
-111
-96
-110
-107
-102
-95
-93
-92
-90
-88
-107
-86
-80
-79
-83
-101
-100
-103
-88
-101
-96
-128
-106
-121
-123
-116
-97
-93
-101
-114
-89
-87
-95
-103
-102
-104
-100
-95
-111
-111
-108
-105
-100
-105
-106
-118
-94
-102
-118
-110
-98
-103
-114
-93
-86
-103
-118
-104
-82
-81
-108
-99
-105
-112
-98
-76
-65
-56
-20
-5
-9
13
31
38
43
32
15
18
0
-26
-37
-56
-73
-86
-88
-102
-107
-86
-97
-90
-81
-112
-125
-96
-85
-97
-101
-95
-91
-98
-86
-73
-91
-104
-91
-104
-107
-107
-113
-95
-92
-80
-73
-84
-89
-91
-108
-95
-92
-84
-91
-91
-105
-87
-73
-87
-104
-85
-94
-105
-79
-99
-110
-93
-103
-93
-98
-96
-91
-92
-76
-74
-84
-77
-87
-93
-78
-91
-90
-94
-87
-89
-77
-71
-69
-65
-66
-66
-89
-88
-90
-73
-75
-59
-48
-52
-52
-70
-48
-85
-67
-67
-77
-61
-62
-66
-67
-73
-62
-51
-64
-66
-65
-71
-71
-63
-53
-56
-60
-74
-57
-46
-58
-52
-68
-72
-58
-56
-81
-82
-67
-65
-51
-41
-55
-83
-82
-89
-78
-76
-68
-78
-72
-66
-74
-103
-93
-94
-103
-110
-87
-82
-79
-82
-100
-90
-94
-78
-94
-90
-83
-92
-103
-103
-91
-73
-77
-80
-89
-73
-88
-97
-75
-65
-82
-86
-96
-107
-109
-75
-74
-68
-73
-87
-105
-64
-61
-63
-66
-73
-98
-74
-75
-51
-61
-83
-75
-84
-68
-104
-103
-86
-61
-70
-73
-73
-79
-77
-67
-65
-74
-82
-66
-67
-67
-74
-70
-71
-72
-72
-60
-66
-60
-81
-74
-66
-63
-74
-62
-72
-69
-64
-73
-98
-73
-80
-52
-69
-82
-67
-78
-82
-66
-42
-46
-43
-52
-47
-59
-74
-68
-68
-62
-67
-46
-54
-66
-80
-82
-58
-61
-73
-56
-60
-74
-77
-72
-70
-58
-65
-79
-62
-55
-62
-84
-59
-60
-62
-55
-57
-81
-81
-64
-55
-57
-54
-76
-72
-89
-76
-78
-68
-61
-62
-56
-36
-33
-34
-24
-25
-26
18
77
83
102
94
96
89
61
43
26
6
-10
-36
-47
-42
-40
-49
-58
-64
-62
-48
-47
-52
-48
-42
-65
-56
-74
-40
-48
-48
-62
-67
-44
-53
-57
-58
-54
-48
-43
-45
-37
-65
-64
-63
-67
-37
-47
-52
-69
-69
-42
-47
-49
-49
-57
-57
-38
-39
-39
-21
-23
-40
-55
-48
-51
-41
-38
-38
-32
-23
-31
-50
-56
-48
-39
-43
-43
-40
-42
-53
-53
-41
-36
-22
-52
-38
-19
-36
-35
-22
-25
-31
-38
-23
-27
-30
-39
-41
-34
-5
