-170
-177
-148
-150
-164
-167
-168
-161
-160
-158
-160
-165
-162
-165
-163
-163
-154
-160
-170
-171
-164
-158
-155
-160
-160
-167
-173
-180
-160
-155
-161
-168
-169
-159
-163
-160
-165
-161
-153
-160
-165
-168
-156
-165
-149
-156
-156
-156
-162
-163
-157
-169
-164
-159
-163
-163
-160
-154
-156
-162
-166
-166
-160
-159
-164
-161
-162
-162
-157
-161
-166
-167
-165
-167
-163
-163
-160
-163
-163
-159
-161
-165
-162
-159
-171
-156
-158
-160
-161
-160
-161
-156
-164
-173
-162
-170
-167
-165
-156
-161
-165
-154
-160
-169
-168
-164
-172
-165
-160
-160
-167
-172
-169
-162
-162
-158
-172
-161
-166
-169
-165
-162
-168
-170
-152
-151
-161
-165
-165
-167
-165
-171
-163
-160
-164
-155
-173
-167
-168
-159
-165
-162
-158
-157
-168
-163
-167
-165
-164
-160
-169
-164
-170
-169
-166
-166
-166
-163
-165
-168
-165
-165
-163
-166
-160
-166
-157
-157
-160
-160
-163
-171
-169
-171
-163
-159
-162
-161
-158
-164
-174
-170
-167
-165
-158
-157
-163
-163
-167
-179
-171
-171
-169
-163
-156
-166
-164
-161
-169
-168
-167
-168
-166
-174
-164
-159
-155
-152
-157
-162
-172
-169
-167
-158
-170
-163
-159
-159
-172
-160
-156
-159
-170
-164
-156
-153
-160
-159
-154
-156
-166
-169
-163
-159
-159
-153
-150
-144
-143
-136
-140
-137
-137
-138
-156
-151
-137
-141
-145
-152
-143
-150
-153
-152
-152
-143
-146
-149
-154
-154
-160
-167
-173
-167
-155
-159
-166
-161
-173
-173
-165
-169
-167
-178
-165
-165
-167
-165
-162
-170
-163
-169
-176
-167
-171
-165
-167
-165
-162
-175
-181
-179
-172
-165
-154
-133
-107
-97
-70
-57
-50
-57
-72
-71
-84
-100
-125
-154
-176
-186
-201
-205
-204
-201
-205
-208
-211
-210
-204
-197
-195
-192
-185
-187
-176
-160
-160
-164
-168
-163
-168
-165
-162
-175
-168
-170
-169
-166
-171
-172
-173
-172
-163
-168
-160
-163
-159
-164
-164
-170
-172
-168
-165
-164
-164
-159
-162
-161
-171
-157
-154
-168
-164
-159
-158
-163
-160
-155
-155
-165
-162
-163
-153
-153
-158
-161
-157
-159
-163
-150
-163
-161
-163
-156
-154
-144
-149
-155
-158
-156
-155
-149
-150
-154
-153
-144
-144
-148
-145
-142
-139
-141
-142
-141
-143
-140
-139
-133
-137
-138
-137
-135
-125
-117
-127
-138
-131
-120
-128
-133
-124
-124
-123
-125
-114
-113
-123
-114
-110
-113
-118
-104
-103
-106
-114
-103
-101
-113
-110
-109
-107
-100
-102
-108
-109
-109
-118
-110
-118
-121
-122
-128
-126
-121
-116
-122
-128
-133
-146
-146
-145
-144
-150
-151
-155
-150
-157
-164
-177
-158
-149
-157
-166
-163
-157
-159
-159
-163
-164
-171
-177
-168
-166
-167
-155
-161
-167
-159
-167
-173
-179
-172
-156
-166
-168
-158
-163
-163
-167
-164
-157
-166
-171
-166
-162
-163
-168
-167
-170
-163
-165
-171
-170
-169
-158
-159
-172
-163
-175
-171
-163
-170
-163
-168
-168
-160
-164
-159
-163
-169
-168
-164
-174
-168
-173
-164
-161
-157
-168
-156
-170
-163
-169
-157
-158
-161
-162
-162
-167
-172
-168
-160
-160
-156
-160
-161
-166
-161
-170
-177
-170
-163
-162
-159
-154
-163
-165
-171
-165
-175
-159
-159
-166
-157
-152
-164
-155
-164
-174
-175
-173
-166
-170
-166
-167
-164
-162
-170
-173
-173
-164
-168
-174
-160
-160
-163
-169
-171
-164
-173
-162
-160
-165
-164
-175
-159
-164
-165
-166
-169
-168
-171
-166
-160
-156
-157
-165
-171
-177
-168
-152
-152
-173
-166
-163
-169
-165
-168
-167
-166
-167
-170
-170
-164
-164
-174
-166
-172
-173
-167
-163
-163
-166
-165
-162
-159
-162
-178
-168
-167
-165
-174
-157
-161
-163
-164
-165
-165
-161
-169
-173
-179
-173
-153
-163
-170
-165
-165
-162
-169
-175
-168
-158
-171
-161
-151
-174
-172
-166
-170
-170
-165
-167
-168
-168
-172
-166
-168
-167
-171
-173
-164
-159
-167
-164
-159
-155
-170
-165
-162
-169
-159
-157
-159
-170
-170
-171
-167
-166
-166
-178
-169
-159
-161
-160
-158
-168
-165
-171
-164
-172
-170
-169
-165
-167
-168
-162
-158
-154
-161
-154
-154
-165
-154
-143
-156
-157
-156
-155
-146
-141
-144
-140
-134
-136
-146
-147
-152
-142
-147
-142
-140
-135
-141
-148
-157
-163
-152
-149
-154
-159
-161
-166
-161
-165
-171
-166
-165
-163
-170
-168
-161
-163
-159
-160
-161
-170
-184
-176
-172
-171
-174
-168
-160
-158
-166
-171
-176
-174
-171
-177
-178
-175
-171
-155
-136
-120
-108
-95
-76
-56
-47
-69
-74
-74
-87
-101
-124
-146
-170
-190
-204
-199
-207
-205
-214
-202
-206
-198
-198
-191
-194
-191
-185
-187
-165
-168
-164
-174
-164
-166
-172
-169
-168
-164
-166
-178
-174
-156
-158
-152
-158
-159
-168
-173
-165
-158
-157
-172
-165
-159
-153
-156
-162
-168
-159
-158
-173
-167
-161
-156
-162
-153
-155
-156
-155
-152
-157
-158
-150
-148
-151
-156
-148
-146
-163
-161
-158
-157
-158
-153
-147
-141
-148
-149
-152
-154
-147
-154
-144
-149
-147
-150
-141
-146
-131
-144
-155
-150
-144
-145
-147
-137
-139
-139
-130
-135
-141
-134
-128
-125
-124
-122
-122
-124
-124
-129
-126
-123
-118
-118
-121
-116
-108
-108
-115
-121
-115
-113
-112
-106
-115
-107
-95
-103
-105
-106
-108
-104
-96
-113
-109
-99
-107
-116
-102
-111
-113
-109
-109
-108
-116
-118
-119
-119
-121
-124
-138
-134
-134
-129
-130
-138
-141
-153
-141
-142
-149
-154
-150
-149
-152
-150
-158
-159
-158
-159
-162
-154
-157
-163
-157
-149
-154
-157
-155
-154
-167
-166
-168
-165
-161
-161
-163
-165
-169
-152
-159
-165
-156
-166
-158
-154
-155
-159
-157
-169
-165
-159
-155
-149
-152
-164
-162
-160
-168
-168
-160
-154
-157
-159
-164
-156
-160
-158
-163
-158
-163
-162
-151
-157
-161
-161
-157
-151
-160
-155
-159
-149
-166
-164
-159
-163
-160
-161
-162
-154
-150
-159
-147
-150
-158
-156
-158
-163
-156
-158
-158
-161
-161
-159
-145
-156
-152
-155
-159
-163
-160
-164
-156
-150
-159
-165
-159
-158
-163
-157
-158
-157
-151
-149
-159
-156
-156
-160
-166
-158
-155
-157
-162
-162
-160
-166
-160
-160
-160
-177
-158
-147
-154
-155
-150
-150
-160
-158
-147
-167
-164
-159
-158
-155
-152
-156
-160
-162
-157
-156
-156
-159
-170
-171
-164
-170
-163
-145
-150
-157
-156
-161
-157
-157
-161
-158
-159
-152
-157
-162
-155
-153
-150
-153
-145
-158
-177
-164
-155
-158
-165
-161
-168
-161
-149
-158
-154
-150
-161
-159
-158
-155
-163
-160
-159
-154
-148
-159
-162
-149
-162
-165
-152
-150
-153
-157
-160
-155
-156
-156
-156
-155
-152
-153
-157
-155
-149
-164
-158
-158
-154
-162
-158
-157
-157
-148
-144
-155
-158
-164
-152
-155
-151
-152
-138
-146
-158
-164
-155
-149
-148
-151
-147
-147
-151
-153
-136
-139
-149
-147
-137
-139
-135
-124
-126
-139
-131
-134
-128
-130
-140
-139
-140
-135
-134
-136
-141
-141
-144
-149
-149
-153
-150
-150
-160
-166
-153
-151
-152
-158
-159
-159
-155
-151
-148
-160
-160
-164
-154
-154
-160
-158
-164
-167
-154
-144
-156
-162
-161
-163
-158
-159
-167
-162
-160
-156
-147
-122
-100
-90
-70
-59
-61
-65
-63
-78
-86
-102
-124
-145
-170
-177
-187
-179
-194
-202
-202
-205
-207
-208
-192
-194
-182
-178
-182
-180
-170
-159
-164
-158
-167
-161
-158
-158
-152
-155
-159
-155
-150
-160
-149
-143
-150
-158
-157
-163
-161
-158
-156
-149
-152
-156
-169
-147
-150
-155
-146
-151
-141
-143
-149
-144
-148
-157
-149
-143
-151
-155
-151
-154
-150
-139
-150
-148
-144
-151
-145
-135
-144
-138
-134
-147
-145
-144
-145
-153
-148
-138
-130
-133
-126
-135
-139
-137
-143
-135
-131
-125
-131
-136
-130
-130
-121
-128
-122
-121
-125
-122
-122
-121
-120
-112
-114
-122
-115
-111
-112
-104
-101
-94
-104
-108
-100
-96
-105
-97
-101
-93
-93
-94
-90
-91
-111
-89
-88
-82
-88
-92
-95
-83
-86
-83
-90
-97
-90
-101
-96
-90
-100
-100
-104
-84
-94
-102
-106
-117
-115
-121
-112
-115
-117
-121
-128
-128
-131
-121
-138
-128
-132
-141
-145
-145
-141
-147
-155
-143
-132
-132
-139
-155
-153
-142
-145
-147
-142
-145
-158
-151
-144
-142
-150
-159
-150
-140
-144
-150
-150
-159
-158
-157
-156
-154
-158
-145
-146
-142
-140
-149
-158
-155
-160
-153
-150
-149
-146
-149
-155
-154
-144
-148
-147
-148
-142
-146
-141
-146
-160
-148
-148
-155
-140
-140
-157
-152
-147
-145
-146
-147
-146
-147
-149
-149
-145
-147
-143
-146
-156
-147
-156
-152
-149
-146
-154
-148
-150
-161
-149
-148
-139
-139
-152
-144
-144
-155
-155
-154
-143
-163
-155
-151
-143
-145
-153
-148
-140
-158
-166
-159
-148
-153
-147
-146
-145
-145
-152
-146
-156
-156
-145
-148
-141
-143
-152
-160
-150
-152
-157
-153
-160
-143
-155
-155
-152
-149
-150
-151
-155
-157
-156
-154
-153
-142
-147
-157
-155
-153
-147
-149
-155
-146
-152
-154
-150
-150
-155
-144
-156
-158
-155
-154
-161
-150
-138
-152
-156
-149
-144
-151
-155
-157
-150
-152
-155
-159
-158
-145
-158
-167
-155
-156
-152
-146
-154
-150
-155
-156
-159
-154
-144
-143
-151
-154
-148
-146
-151
-157
-145
-144
-143
-136
-141
-151
-149
-142
-138
-146
-127
-141
-151
-138
-134
-140
-132
-120
-125
-136
-131
-132
-137
-132
-134
-137
-138
-132
-133
-139
-146
-144
-143
-156
-158
-160
-155
-143
-148
-154
-153
-153
-152
-149
-153
-153
-153
-153
-152
-155
-159
-158
-155
-157
-153
-151
-157
-153
-160
-164
-165
-161
-163
-169
-157
-159
-174
-152
-143
-139
-121
-103
-86
-75
-45
-54
-68
-79
-83
-92
-99
-119
-140
-166
-173
-183
-189
-186
-189
-193
-204
-205
-196
-188
-188
-181
-177
-176
-177
-164
-152
-157
-162
-151
-143
-151
-165
-167
-155
-153
-155
-159
-161
-149
-141
-148
-148
-148
-153
-142
-152
-156
-147
-155
-152
-154
-150
-149
-160
-153
-156
-159
-141
-141
-142
-147
-146
-153
-151
-142
-152
-155
-152
-147
-148
-145
-149
-146
-139
-145
-142
-140
-148
-145
-146
-141
-147
-151
-139
-142
-145
-146
-140
-130
-144
-141
-127
-132
-144
-142
-126
-126
-132
-135
-127
-129
-137
-144
-131
-117
-126
-127
-129
-127
-121
-120
-117
-119
-129
-108
-120
-116
-113
-103
-109
-113
-101
-118
-116
-107
-97
-98
-95
-98
-95
-99
-94
-96
-88
-93
-100
-101
-93
-92
-94
-96
-95
-100
-101
-99
-100
-114
-113
-113
-98
-102
-114
-109
-112
-123
-128
-130
-124
-127
-125
-141
-134
-130
-133
-143
-139
-144
-142
-141
-140
-160
-146
-150
-142
-137
-148
-149
-140
-141
-150
-150
-148
-149
-153
-151
-143
-137
-145
-152
-150
-143
-146
-156
-143
-155
-153
-153
-150
-144
-146
-159
-158
-145
-147
-153
-154
-154
-145
-144
-141
-151
-142
-151
-153
-158
-157
-153
-152
-150
-145
-148
-149
-148
-146
-146
-140
-142
-144
-160
-150
-144
-151
-154
-147
-147
-155
-157
-143
-144
-147
-138
-145
-147
-147
-154
-153
-146
-132
-135
-140
-146
-151
-139
-140
-144
-138
-148
-155
-144
-149
-148
-153
-151
-150
-149
-158
-148
-145
-146
-141
-135
-140
-143
-149
-149
-152
-138
-138
-141
-146
-149
-153
-151
-151
-146
-156
-144
-148
-142
-136
-153
-144
-144
-145
-145
-145
-150
-157
-148
-145
-128
-140
-154
-143
-147
-153
-150
-145
-143
-148
-141
-148
-150
-148
-150
-144
-145
-145
-147
-151
-151
-150
-148
-148
-152
-150
-150
-156
-147
-151
-151
-143
-139
-137
-132
-135
-146
-146
-152
-145
-146
-146
-155
-150
-144
-143
-146
-140
-137
-152
-158
-153
-145
-140
-143
-143
-145
-148
-147
-151
-151
-146
-153
-147
-146
-143
-152
-151
-142
-147
-147
-145
-140
-140
-138
-145
-147
-142
-142
-146
-150
-148
-157
-148
-147
-149
-143
-137
-138
-142
-147
-147
-137
-133
-132
-140
-144
-143
-137
-143
-135
-137
-131
-139
-157
-140
-132
-136
-141
-131
-133
-138
-132
-122
-125
-118
-107
-118
-119
-120
-120
-129
-133
-130
-130
-126
-123
-136
-129
-134
-141
-143
-147
-140
-144
-143
-145
-148
-155
-147
-146
-141
-142
-149
-147
-142
-136
-142
-142
-140
-156
-164
-147
-140
-144
-148
-152
-145
-152
-148
-145
-159
-167
-159
-149
-135
-123
-112
-92
-84
-62
-28
-26
-53
-61
-70
-67
-74
-101
-132
-149
-151
-177
-189
-184
-183
-183
-190
-191
-182
-167
-179
-174
-170
-162
-154
-142
-145
-144
-150
-152
-148
-152
-145
-151
-153
-150
-144
-143
-141
-145
-142
-145
-145
-141
-142
-151
-147
-135
-151
-147
-141
-156
-142
-138
-137
-143
-135
-138
-150
-146
-146
-140
-142
-138
-137
-140
-140
-149
-144
-140
-138
-140
-142
-137
-136
-143
-133
-135
-134
-133
-129
-125
-132
-139
-133
-139
-137
-128
-134
-134
-130
-131
-124
-133
-132
-139
-126
-134
-127
-130
-128
-125
-120
-115
-124
-116
-116
-130
-125
-112
-107
-87
-92
-94
-91
-86
-82
-84
-94
-94
-85
-88
-82
-88
-94
-90
-91
-96
-90
-79
-89
-94
-98
-100
-99
-99
-104
-103
-103
-117
-128
-123
-126
-127
-117
-119
-119
-126
-134
-134
-135
-137
-137
-132
-129
-135
-124
-136
-146
-139
-141
-135
-144
-144
-134
-141
-149
-147
-146
-147
-139
-127
-140
-148
-142
-151
-147
-141
-138
-129
-137
-140
-148
-138
-138
-140
-135
-140
-143
-140
-147
-144
-136
-139
-147
-140
-149
-148
-150
-147
-140
-146
-142
-141
-135
-137
-144
-139
-140
-142
-149
-150
-136
-132
-147
-134
-143
-132
-141
-142
-143
-139
-141
-129
-123
-143
-141
-134
-135
-136
-142
-143
-141
-143
-144
-136
-136
-143
-140
-140
-135
-146
-146
-141
-141
-146
-146
-147
-144
-130
-127
-129
-146
-141
-134
-136
-138
-146
-143
-141
-148
-147
-139
-132
-139
-141
-141
-147
-142
-138
-140
-145
-142
-153
-145
-139
-131
-139
-139
-137
-142
-142
-143
-141
-144
-140
-142
-132
-136
-146
-154
-145
-143
-143
-132
-141
-146
-137
-144
-137
-134
-141
-140
-142
-136
-139
-141
-142
-146
-140
-143
-140
-145
-146
-143
-142
-143
-147
-140
-141
-136
-150
-146
-140
-135
-146
-142
-144
-140
-145
-138
-151
-149
-135
-147
-134
-132
-147
-145
-144
-133
-133
-139
-136
-138
-141
-138
-138
-141
-151
-142
-134
-147
-143
-139
-140
-142
-143
-139
-142
-137
-140
-146
-142
-138
-137
-140
-134
-144
-149
-149
-137
-145
-137
-141
-135
-137
-138
-143
-143
-139
-140
-133
-141
-148
-136
-138
-140
-144
-136
-140
-144
-143
-144
-142
-137
-135
-140
-137
-141
-135
-142
-146
-137
-138
-137
-145
-134
-139
-142
-143
-138
-143
-134
-137
-133
-133
-135
-138
-140
-135
-128
-125
-134
-134
-124
-134
-124
-131
-137
-128
-114
-111
-105
-122
-118
-124
-120
-118
-119
-122
-114
-124
-122
-130
-125
-126
-122
-129
-130
-127
-130
-141
-139
-140
-134
-132
-132
-144
-138
-137
-150
-148
-140
-143
-134
-143
-147
-142
-140
-141
-145
-143
-133
-136
-140
-135
-149
-156
-146
-152
-155
-156
-155
-145
-144
-127
-103
-76
-54
-37
-22
-20
-34
-42
-66
-70
-84
-122
-127
-141
-168
-161
-172
-188
-182
-181
-182
-183
-169
-168
-167
-167
-161
-149
-148
-148
-143
-140
-148
-150
-140
-139
-143
-139
-135
-144
-141
-145
-137
-133
-134
-136
-136
-144
-140
-144
-138
-143
-133
-134
-136
-131
-134
-145
-138
-137
-142
-140
-137
-132
-132
-133
-127
-132
-138
-136
-134
-147
-135
-127
-123
-128
-132
-134
-129
-130
-130
-132
-133
-132
-127
-124
-128
-127
-125
-125
-138
-129
-118
-129
-137
-114
-112
-118
-121
-129
-128
-121
-118
-120
-118
-111
-109
-116
-112
-117
-114
-110
-117
-118
-111
-95
-107
-110
-103
-107
-102
-104
-99
-96
-93
-86
-82
-89
-95
-88
-97
-98
-92
-79
-75
-82
-83
-75
-85
-74
-89
-81
-86
-74
-77
-76
-75
-88
-88
-68
-80
-83
-90
-89
-85
-93
-97
-84
-96
-93
-99
-105
-109
-114
-102
-112
-118
-125
-118
-129
-128
-120
-125
-135
-124
-119
-129
-134
-127
-134
-134
-130
-131
-145
-143
-139
-124
-130
-125
-126
-139
-138
-144
-130
-129
-138
-135
-134
-132
-130
-136
-138
-134
-130
-138
-140
-144
-141
-145
-135
-129
-129
-132
-134
-139
-140
-126
-127
-141
-145
-138
-129
-138
-141
-138
-137
-138
-136
-132
-131
-128
-135
-134
-136
-134
-128
-134
-135
-132
-127
-136
-138
-136
-129
-137
-136
-132
-134
-132
-137
-140
-128
-132
-143
-140
-145
-131
-138
-139
-123
-134
-131
-133
-133
-128
-137
-140
-138
-137
-135
-130
-139
-140
-128
-125
-123
-128
-135
-134
-140
-139
-136
-133
-132
-133
-140
-142
-143
-140
-135
-129
-133
-133
-123
-129
-145
-138
-128
-136
-137
-138
-136
-135
-139
-133
-140
-136
-140
-134
-131
-137
-141
-143
-140
-140
-144
-126
-133
-134
-129
-127
-127
-122
-143
-127
-121
-134
-135
-140
-135
-134
-134
-138
-128
-141
-139
-137
-130
-133
-147
-141
-144
-138
-127
-126
-122
-132
-136
-140
-143
-139
-129
-130
-136
-130
-140
-135
-133
-137
-137
-126
-133
-125
-132
-127
-139
-140
-130
-133
-132
-136
-136
-144
-132
-129
-139
-144
-131
-128
-146
-136
-132
-129
-128
-132
-133
-133
-134
-131
-131
-136
-134
-137
-136
-135
-131
-138
-143
-141
-132
-131
-122
-130
-137
-137
-133
-132
-125
-135
-139
-136
-131
-138
-133
-124
-126
-138
-133
-131
-131
-134
-127
-127
-132
-139
-130
-126
-121
-121
-126
-132
-134
-130
-129
-118
-108
-122
-123
-121
-111
-114
-105
-112
-103
-110
-117
-103
-108
-113
-107
-119
-113
-117
-114
-122
-127
-124
-126
-115
-120
-129
-121
-127
-142
-136
-128
-135
-138
-142
-136
-134
-137
-131
-130
-133
-134
-140
-139
-145
-140
-132
-115
-120
-120
-132
-144
-138
-136
-132
-140
-149
-144
-138
-135
-111
-91
-69
-50
-42
-26
-17
-27
-32
-57
-52
-72
-105
-122
-144
-158
-166
-171
-174
-175
-179
-181
-184
-170
-162
-162
-146
-149
-150
-146
-133
-130
-128
-136
-139
-122
-129
-134
-136
-138
-138
-141
-135
-131
-126
-130
-133
-120
-133
-125
-120
-136
-125
-127
-133
-133
-130
-129
-132
-130
-133
-135
-120
-117
-128
-134
-127
-115
-117
-118
-122
-123
-125
-124
-127
-118
-117
-113
-121
-128
-122
-119
-121
-117
-124
-120
-120
-111
-110
-121
-117
-113
-118
-117
-111
-123
-117
-103
-109
-112
-117
-116
-113
-113
-104
-105
-108
-100
-110
-103
-107
-104
-99
-103
-95
-94
-90
-89
-85
-86
-93
-89
-97
-84
-76
-79
-80
-68
-76
-88
-89
-80
-77
-82
-81
-80
-77
-70
-63
-59
-63
-72
-73
-68
-64
-63
-62
-74
-68
-65
-77
-74
-72
-77
-83
-83
-70
-77
-71
-81
-97
-98
-89
-88
-103
-92
-102
-106
-100
-107
-121
-117
-118
-119
-114
-112
-114
-117
-116
-120
-117
-129
-134
-122
-120
-123
-123
-119
-128
-118
-118
-125
-122
-127
-117
-112
-114
-104
-114
-135
-135
-124
-128
-121
-123
-124
-120
-118
-126
-125
-135
-139
-128
-131
-119
-122
-118
-118
-118
-126
-127
-130
-122
-120
-119
-117
-122
-112
-120
-128
-130
-118
-119
-121
-120
-120
-132
-120
-111
-116
-119
-120
-126
-115
-120
-120
-111
-115
-113
-115
-113
-122
-130
-113
-128
-126
-115
-112
-113
-109
-125
-125
-128
-121
-111
-124
-133
-129
-106
-110
-121
-115
-124
-109
-122
-123
-121
-125
-122
-118
-117
-121
-115
-123
-119
-121
-113
-115
-117
-116
-115
-120
-115
-124
-126
-114
-119
-115
-124
-126
-121
-123
-123
-127
-117
-112
-116
-124
-122
-122
-120
-114
-121
-121
-124
-118
-117
-118
-118
-109
-118
-112
-118
-120
-112
-111
-106
-120
-125
-122
-122
-113
-105
-118
-116
-117
-119
-110
-116
-127
-123
-107
-110
-120
-111
-124
-123
-115
-114
-114
-116
-132
-129
-126
-110
-115
-114
-122
-117
-117
-122
-114
-113
-118
-110
-112
-112
-113
-117
-111
-113
-120
-120
-111
-116
-108
-117
-110
-108
-119
-115
-118
-115
-98
-119
-123
-113
-100
-106
-121
-103
-101
-113
-110
-113
-114
-112
-106
-105
-114
-114
-107
-109
-109
-104
-102
-85
-83
-91
-96
-92
-88
-86
-90
-89
-85
-99
-108
-92
-101
-98
-101
-103
-92
-96
-109
-109
-110
-116
-114
-119
-117
-102
-114
-109
-109
-122
-119
-120
-114
-117
-125
-120
-116
-116
-112
-111
-130
-137
-116
-100
-109
-114
-122
-121
-119
-102
-126
-126
-107
-105
-94
-77
-54
-36
-19
-9
-7
-25
-28
-26
-39
-59
-82
-103
-131
-141
-142
-144
-155
-172
-171
-153
-156
-153
-147
-142
-150
-136
-125
-116
-110
-115
-106
-106
-121
-123
-115
-107
-107
-116
-102
-95
-109
-119
-110
-108
-111
-113
-115
-115
-113
-104
-104
-102
-102
-108
-108
-107
-109
-104
-93
-101
-102
-109
-110
-112
-108
-101
-101
-103
-105
-100
-103
-103
-104
-95
-99
-101
-98
-99
-107
-102
-98
-95
-92
-87
-96
-102
-96
-104
-93
-89
-91
-93
-91
-91
-93
-92
-95
-90
-92
-87
-85
-87
-82
-83
-81
-83
-88
-83
-83
-72
-80
-79
-77
-65
-69
-70
-79
-76
-71
-63
-63
-66
-66
-71
-59
-57
-55
-50
-51
-56
-48
-41
-35
-48
-54
-56
-50
-46
-45
-43
-47
-43
-42
-45
-40
-38
-48
-50
-50
-52
-50
-57
-54
-58
-64
-59
-68
-65
-75
-74
-69
-81
-72
-80
-83
-89
-86
-90
-87
-82
-91
-100
-102
-103
-103
-100
-92
-87
-109
-109
-94
-93
-90
-93
-100
-103
-102
-110
-108
-110
-108
-91
-103
-109
-115
-110
-105
-115
-109
-102
-96
-93
-102
-96
-103
-103
-103
-102
-112
-105
-98
-104
-104
-104
-106
-107
-117
-105
-107
-100
-98
-88
-99
-103
-111
-107
-94
-98
-100
-105
-95
-90
-99
-102
-98
-97
-100
-103
-98
-98
-99
-104
-97
-95
-101
-98
-107
-99
-96
-94
-92
-96
-103
-109
-99
-98
-94
-97
-100
-98
-104
-96
-98
-101
-101
-99
-93
-90
-102
-101
-100
-98
-113
-118
-102
-88
-101
-103
-101
-102
-94
-103
-98
-100
-95
-101
-93
-102
-103
-99
-96
-100
-107
-104
-101
-99
-101
-100
-97
-97
-91
-98
-96
-103
-103
-104
-109
-98
-96
-92
-94
-98
-97
-100
-100
-111
-112
-105
-101
-102
-103
-96
-101
-87
-94
-107
-114
-99
-103
-99
-97
-95
-97
-103
-100
-91
-95
-110
-100
-98
-90
-100
-94
-95
-96
-100
-91
-92
-101
-100
-93
-109
-115
-110
-99
-96
-100
-106
-101
-98
-97
-99
-107
-99
-103
-100
-101
-99
-100
-106
-94
-107
-110
-102
-101
-98
-92
-97
-97
-102
-104
-99
-96
-103
-99
-99
-95
-96
-101
-93
-94
-96
-97
-100
-102
-110
-107
-89
-96
-95
-100
-102
-99
-99
-102
-104
-101
-92
-98
-95
-92
-98
-104
-102
-92
-101
-94
-87
-90
-83
-88
-104
-95
-84
-91
-90
-90
-85
-98
-71
-78
-77
-81
-74
-68
-72
-76
-82
-78
-76
-85
-86
-73
-70
-72
-85
-90
-82
-88
-89
-81
-90
-99
-99
-94
-102
-101
-94
-89
-91
-96
-104
-110
-104
-99
-100
-104
-94
-100
-101
-95
-106
-97
-104
-103
-107
-112
-105
-104
-104
-116
-99
-107
-97
-89
-65
-58
-49
-22
2
11
9
-5
-2
-15
-29
-52
-74
-79
-92
-120
-130
-140
-151
-141
-136
-137
-144
-128
-123
-121
-116
-117
-116
-116
-108
-103
-94
-103
-100
-106
-101
-95
-95
-100
-107
-104
-103
-99
-95
-88
-91
-98
-105
-111
-92
-84
-88
-85
-94
-100
-92
-92
-94
-93
-98
-93
-85
-99
-99
-100
-92
-103
-97
-91
-88
-84
-90
-87
-84
-91
-92
-90
-96
-82
-83
-97
-92
-83
-84
-85
-89
-90
-85
-87
-93
-81
-78
-80
-86
-87
-85
-80
-92
-86
-84
-79
-72
-77
-77
-69
-78
-68
-71
-70
-67
-64
-76
-73
-70
-68
-59
-61
-64
-66
-59
-56
-55
-56
-54
-52
-48
-49
-55
-61
-57
-51
-44
-41
-39
-42
-46
-52
-42
-36
-49
-30
-33
-37
-43
-34
-43
-39
-38
-42
-45
-42
-43
-44
-45
-42
-52
-57
-63
-52
-52
-67
-74
-64
-58
-71
-72
-70
-75
-73
-74
-84
-85
-79
-89
-92
-92
-87
-94
-87
-96
-93
-87
-92
-91
-88
-87
-86
-93
-89
-85
-91
-94
-97
-101
-98
-92
-93
-94
-92
-88
-94
-89
-93
-87
-98
-92
-87
-94
-100
-95
-92
-93
-86
-93
-100
-106
-91
-88
-91
-98
-93
-90
-95
-95
-94
-104
-88
-97
-102
-84
-82
-89
-88
-90
-91
-91
-84
-93
-87
-92
-97
-90
-106
-94
-92
-96
-86
-89
-88
-93
-92
-101
-89
-86
-94
-93
-90
-86
-90
-88
-87
-89
-89
-85
-105
-104
-99
-93
-89
-90
-93
-90
-93
-93
-84
-90
-99
-94
-94
-80
-98
-92
-85
-86
-92
-98
-86
-98
-102
-91
-96
-92
-86
-95
-92
-94
-91
-92
-97
-86
-99
-90
-85
-89
-91
-85
-86
-99
-99
-94
-87
-79
-93
-100
-95
-96
-93
-91
-93
-87
-94
-96
-93
-92
-89
-91
-99
-90
-89
-93
-86
-90
-96
-94
-91
-106
-98
-91
-88
-90
-87
-83
-93
-96
-91
-95
-86
-85
-92
-97
-90
-88
-88
-88
-92
-90
-93
-92
-97
-98
-103
-92
-92
-89
-91
-88
-88
-92
-91
-82
-95
-104
-90
-101
-91
-86
-94
-90
-85
-89
-99
-95
-84
-91
-96
-93
-100
-92
-84
-82
-86
-102
-88
-85
-92
-91
-84
-81
-87
-91
-92
-91
-90
-95
-90
-89
-91
-94
-95
-94
-94
-92
-92
-91
-91
-89
-87
-82
-81
-86
-86
-86
-83
-89
-88
-84
-83
-77
-69
-76
-69
-72
-67
-62
-72
-71
-73
-70
-79
-77
-57
-53
-72
-75
-72
-67
-69
-65
-66
-81
-83
-71
-83
-90
-100
-94
-83
-90
-86
-91
-85
-96
-91
-101
-97
-93
-95
-91
-91
-85
-92
-98
-106
-97
-96
-97
-84
-91
-89
-93
-94
-99
-95
-99
-93
-101
-78
-78
-69
-46
-12
10
19
32
15
15
-13
-24
-26
-47
-72
-96
-105
-118
-129
-137
-136
-134
-134
-134
-120
-119
-119
-120
-116
-116
-102
-94
-97
-92
-82
-86
-93
-95
-95
-95
-95
-103
-91
-82
-87
-93
-90
-95
-87
-84
-94
-98
-89
-79
-87
-88
-85
-86
-88
-85
-79
-81
-87
-93
-78
-87
-94
-95
-88
-92
-93
-92
-95
-81
-73
-87
-86
-83
-89
-81
-82
-81
-74
-75
-75
-75
-81
-86
-95
-84
-74
-77
-77
-69
-80
-92
-78
-80
-65
-53
-68
-70
-78
-77
-69
-72
-72
-74
-77
-66
-58
-66
-67
-54
-52
-51
-62
-66
-62
-69
-56
-59
-55
-48
-50
-48
-59
-46
-42
-55
-48
-41
-43
-30
-37
-40
-41
-35
-32
-26
-32
-32
-26
-24
-37
-30
-29
-32
-36
-34
-32
-38
-30
-29
-33
-49
-43
-31
-41
-48
-46
-50
-54
-51
-60
-65
-62
-61
-67
-64
-72
-76
-64
-74
-83
-87
-85
-80
-72
-76
-83
-92
-76
-77
-89
-89
-98
-82
-82
-93
-86
-85
-78
-82
-86
-96
-96
-97
-85
-82
-75
-79
-94
-88
-81
-91
-87
-93
-92
-91
-87
-93
-86
-87
-101
-84
-88
-89
-86
-85
-92
-91
-86
-84
-84
-84
-92
-99
-95
-87
-82
-94
-91
-86
-87
-89
-76
-90
-99
-79
-79
-84
-89
-85
-80
-80
-78
-93
-104
-85
-91
-84
-88
-87
-84
-83
-91
-94
-88
-78
-86
-89
-88
-76
-87
-91
-90
-94
-95
-88
-85
-76
-76
-86
-82
-86
-99
-82
-80
-81
-86
-86
-81
-87
-88
-77
-95
-96
-88
-81
-88
-84
-83
-93
-101
-84
-77
-88
-92
-85
-84
-85
-83
-83
-85
-95
-93
-83
-90
-84
-90
-87
-84
-91
-91
-90
-91
-91
-90
-90
-87
-81
-81
-86
-92
-89
-75
-78
-95
-88
-85
-86
-84
-86
-88
-90
-95
-93
-88
-93
-92
-77
-75
-83
-82
-81
-87
-98
-90
-80
-85
-92
-91
-90
-92
-87
-84
-80
-79
-93
-86
-70
-81
-89
-91
-86
-97
-83
-83
-78
-87
-93
-94
-80
-89
-90
-86
-93
-84
-87
-91
-93
-88
-82
-83
-92
-89
-90
-93
-90
-77
-83
-74
-86
-90
-86
-92
-85
-74
-75
-74
-79
-84
-86
-80
-72
-70
-79
-76
-72
-73
-72
-71
-70
-61
-58
-60
-62
-67
-67
-65
-60
-65
-65
-54
-60
-70
-70
-75
-71
-73
-71
-84
-81
-81
-89
-93
-87
-78
-86
-91
-94
-93
-89
-93
-85
-82
-80
-92
-88
-87
-91
-96
-91
-89
-91
-90
-94
-92
-87
-93
-94
-108
-101
-85
-91
-76
-67
-53
-46
-23
-5
11
23
20
11
8
9
-27
-32
-50
-74
-103
-115
-122
-124
-119
-127
-128
-132
-136
-126
-114
-116
-106
-99
-99
-93
-89
-95
-96
-87
-104
-94
-91
-88
-84
-86
-92
-89
-93
-87
-89
-88
-86
-88
-88
-89
-82
-83
-73
-65
-79
-84
-90
-83
-89
-81
-81
-82
-86
-88
-82
-82
-80
-81
-88
-88
-88
-93
-77
-66
-68
-85
-79
-84
-89
-72
-80
-77
-77
-81
-73
-75
-69
-80
-77
-72
-70
-75
-70
-77
-77
-70
-70
-67
-65
-61
-79
-78
-63
-70
-69
-67
-71
-65
-63
-62
-59
-57
-49
-48
-55
-60
-56
-50
-55
-53
-56
-45
-45
-44
-39
-33
-40
-48
-45
-40
-33
-37
-37
-37
-23
-23
-33
-30
-31
-35
-28
-31
-23
-20
-23
-21
-19
-31
-33
-26
-26
-26
-28
-36
-19
-37
-48
-45
-55
-51
-48
-54
-57
-55
-71
-68
-54
-70
-70
-66
-66
-76
-70
-81
-82
-88
-80
-79
-73
-79
-84
-92
-88
-82
-81
-90
-78
-78
-80
-90
-89
-81
-76
-84
-84
-89
-88
-82
-80
-79
-92
-85
-90
-83
-83
-92
-85
-91
-89
-88
-85
-82
-81
-81
-98
-99
-83
-85
-89
-92
-92
-96
-94
-80
-82
-78
-87
-86
-79
-82
-90
-88
-82
-89
-82
-80
-88
-93
-98
-84
-75
-83
-77
-92
-91
-83
-89
-81
-85
-92
-85
-91
-86
-81
-85
-92
-93
-85
-79
-83
-86
-91
-80
-78
-84
-86
-89
-90
-85
-85
-88
-89
-90
-97
-91
-92
-84
-80
-86
-91
-92
-78
-70
-86
-87
-94
-91
-91
-89
-84
-80
-83
-83
-83
-82
-93
-101
-88
-93
-101
-82
-79
-82
-85
-89
-90
-104
-101
-83
-86
-90
-93
-86
-82
-83
-91
-87
-81
-84
-85
-92
-95
-96
-81
-79
-84
-91
-87
-97
-89
-80
-87
-75
-87
-95
-90
-88
-84
-87
-88
-80
-87
-74
-95
-99
-93
-94
-85
-81
-88
-95
-83
-93
-90
-84
-94
-87
-83
-82
-87
-90
-100
-89
-89
-93
-97
-96
-93
-77
-76
-85
-93
-89
-87
-88
-94
-82
-84
-91
-84
-90
-88
-88
-86
-90
-93
-91
-81
-76
-90
-91
-85
-91
-92
-97
-85
-87
-88
-77
-73
-69
-81
-96
-80
-82
-81
-76
-71
-81
-70
-66
-66
-61
-58
-64
-70
-62
-66
-65
-65
-64
-77
-74
-72
-70
-85
-88
-84
-86
-86
-88
-89
-100
-96
-94
-89
-84
-94
-85
-86
-85
-89
-98
-92
-104
-101
-94
-103
-87
-69
-81
-97
-104
-94
-88
-94
-99
-95
-91
-94
-92
-89
-77
-54
-38
-18
0
19
30
10
3
-4
-2
-29
-56
-72
-95
-119
-124
-121
-131
-132
-139
-144
-129
-120
-129
-128
-117
-98
-103
-99
-94
-96
-88
-93
-96
-101
-97
-90
-89
-93
-85
-84
-89
-90
-83
-96
-96
-75
-86
-88
-88
-78
-83
-88
-88
-94
-98
-99
-89
-81
-73
-84
-96
-93
-82
-83
-83
-76
-74
-87
-87
-86
-91
-87
-66
-78
-85
-76
-90
-92
-85
-76
-72
-80
-90
-79
-75
-79
-76
-79
-72
-75
-76
-80
-75
-70
-69
-75
-82
-74
-69
-71
-64
-78
-76
-62
-66
-62
-56
-64
-64
-59
-55
-58
-60
-65
-58
-50
-67
-69
-53
-52
-50
-38
-40
-46
-40
-49
-35
-35
-49
-47
-37
-26
-38
-39
-37
-31
-28
-31
-26
-27
-34
-28
-31
-32
-38
-29
-25
-42
-35
-33
-35
-45
-28
-44
-48
-44
-48
-51
-54
-54
-66
-55
-61
-66
-76
-78
-72
-73
-74
-76
-73
-75
-83
-87
-74
-78
-71
-76
-83
-87
-91
-82
-87
-93
-87
-84
-86
-91
-91
-96
-86
-92
-91
-85
-93
-97
-90
-93
-84
-76
-87
-91
-92
-96
-95
-90
-82
-91
-85
-89
-95
-98
-84
-80
-76
-82
-96
-91
-90
-91
-91
-78
-83
-102
-97
-83
-82
-82
-86
-95
-89
-86
-93
-90
-84
-87
-90
-87
-84
-87
-87
-87
-78
-84
-89
-94
-83
-87
-94
-100
-93
-88
-82
-76
-85
-88
-87
-79
-83
-84
-75
-72
-93
-88
-88
-93
-102
-104
-88
-99
-94
-96
-88
-99
-111
-87
-84
-85
-82
-83
-75
-81
-82
-89
-88
-79
-74
-85
-97
-87
-80
-80
-84
-88
-93
-94
-98
-91
-92
-100
-90
-84
-93
-94
-88
-89
-95
-93
-85
-86
-94
-92
-83
-87
-94
-92
-92
-88
-88
-88
-96
-84
-81
-85
-89
-87
-95
-96
-97
-97
-88
-86
-77
-82
-83
-76
-96
-100
-103
-95
-84
-98
-88
-81
-86
-82
-77
-83
-87
-91
-95
-81
-85
-91
-82
-82
-86
-79
-77
-87
-90
-92
-93
-86
-80
-70
-70
-63
-71
-71
-78
-76
-69
-64
-64
-65
-68
-64
-73
-71
-66
-84
-81
-89
-91
-105
-94
-78
-96
-90
-92
-88
-92
-87
-89
-98
-98
-98
-96
-95
-79
-86
-92
-92
-87
-91
-97
-92
-96
-93
-88
-89
-96
-90
-93
-90
-87
-89
-96
-96
-77
-55
-33
-23
-8
-4
-14
-13
-26
-37
-31
-52
-72
-89
-118
-135
-121
-124
-134
-128
-128
-132
-139
-146
-133
-128
-130
-128
-106
-102
-105
-104
-99
-88
-91
-97
-94
-90
-87
-99
-86
-83
-84
-84
-86
-89
-91
-95
-93
-80
-77
-88
-79
-85
-87
-93
-85
-92
-99
-87
-90
-89
-87
-79
-75
-83
-90
-89
-82
-79
-83
-92
-89
-71
-83
-93
-85
-82
-80
-75
-78
-83
-86
-89
-72
-67
-79
-77
-88
-75
-71
-82
-79
-70
-66
-74
-82
-81
-76
-77
-68
-67
-51
-57
-68
-60
-61
-73
-60
-68
-65
-55
-51
-50
-73
-78
-53
-46
-67
-72
-56
-47
-51
-36
-49
-50
-64
-53
-47
-46
-43
-32
-35
-24
-35
-39
-40
-38
-39
-25
-27
-27
-24
-32
-43
-40
-33
-46
-43
-33
-33
-34
-39
-58
-55
-51
-58
-64
-68
-62
-55
-48
-56
-66
-54
-57
-66
-84
-83
-79
-82
-87
-79
-67
-87
-102
-90
-88
-79
-96
-103
-83
-86
-98
-97
-90
-92
-93
-89
-80
-96
-94
-83
-85
-95
-106
-99
-95
-99
-94
-92
-93
-102
-75
-76
-95
-88
-88
-91
-86
-87
-90
-86
-90
-88
-94
-96
-103
-91
-95
-95
-76
-84
-96
-93
-91
-93
-90
-87
-88
-91
-97
-88
-90
-90
-87
-99
-95
-78
-76
-73
-83
-92
-90
-95
-91
-95
-93
-91
-93
-92
-79
-93
-100
-92
-92
-91
-80
-79
-80
-95
-88
-87
-86
-98
-99
-84
-88
-82
-90
-89
-84
-91
-89
-102
-91
-83
-89
-89
-89
-95
-90
-91
-92
-95
-92
-93
-89
-83
-98
-103
-102
-101
-89
-85
-97
-94
-92
-88
-94
-86
-93
-101
-96
-81
-81
-96
-85
-78
-91
-93
-91
-94
-86
-88
-95
-89
-90
-76
-82
-81
-86
-95
-89
-90
-89
-87
-85
-85
-87
-86
-77
-68
-74
-84
-75
-75
-80
-73
-78
-76
-71
-83
-85
-72
-75
-81
-76
-95
-92
-73
-71
-95
-100
-88
-87
-85
-95
-90
-95
-92
-84
-85
-94
-98
-107
-98
-105
-96
-87
-92
-93
-80
-91
-104
-106
-101
-92
-90
-90
-85
-99
-92
-78
-89
-77
-71
-51
-34
-30
-23
-9
-2
-25
-54
-64
-64
-76
-108
-111
-137
-136
-144
-148
-129
-122
-128
-138
-143
-142
-139
-137
-136
-111
-111
-99
-96
-107
-100
-90
-82
-88
-98
-91
-89
-91
-90
-91
-83
-92
-97
-96
-101
-89
-96
-90
-87
-82
-83
-89
-91
-84
-88
-93
-86
-94
-95
-99
-93
-79
-75
-82
-83
-83
-74
-84
-97
-95
-80
-81
-86
-82
-80
-83
-96
-91
-95
-69
-84
-89
-84
-87
-73
-85
-83
-85
-86
-69
-77
-71
-73
-85
-79
-77
-71
-69
-78
-75
-81
-69
-60
-79
-76
-75
-77
-74
-57
-69
-89
-70
-61
-48
-55
-38
-38
-47
-56
-57
-73
-73
-59
-53
-56
-40
-56
-58
-50
-37
-40
-52
-55
-45
-39
-45
-50
-42
-46
-41
-31
-29
-39
-40
-41
-40
-43
-35
-49
-60
-58
-65
-76
-59
-58
-57
-64
-65
-81
-84
-76
-72
-68
-84
-85
-80
-89
-84
-85
-83
-92
-81
-89
-97
-89
-89
-88
-92
-92
-89
-90
-89
-94
-103
-97
-91
-96
-100
-92
-100
-104
-92
-90
-76
-111
-105
-115
-114
-106
-89
-101
-96
-94
-82
-88
-91
-96
-94
-84
-94
-95
-92
-103
-109
-107
-107
-87
-77
-85
-98
-95
-94
-98
-97
-98
-91
-101
-98
-87
-90
-98
-100
-102
-105
-101
-92
-84
-89
-95
-100
-95
-90
-91
-83
-91
-103
-98
-95
-103
-97
-88
-85
-97
-105
-106
-108
-98
-102
-103
-96
-99
-103
-90
-95
-83
-85
-89
-85
-106
-118
-99
-100
-98
-104
-107
-101
-100
-92
-98
-102
-85
-83
-80
-89
-107
-105
-97
-107
-96
-102
-106
-105
-101
-96
-90
-89
-86
-88
-94
-94
-96
-85
-114
-104
-96
-100
-96
-88
-102
-111
-91
-82
-87
-92
-98
-100
-108
-98
-98
-100
-83
-94
-113
-101
-86
-98
-104
-93
-89
-97
-88
-83
-100
-90
-91
-91
-86
-86
-80
-84
-87
-88
-69
-87
-80
-84
-79
-81
-76
-81
-76
-77
-66
-77
-83
-82
-73
-93
-99
-103
-95
-98
-83
-93
-109
-98
-95
-89
-91
-101
-100
-97
-103
-97
-100
-98
-97
-92
-94
-75
-102
-101
-105
-98
-104
-116
-113
-95
-77
-88
-102
-94
-95
-87
-85
-77
-77
-50
-41
-21
-18
-44
-39
-55
-58
-63
-78
-104
-122
-135
-121
-125
-130
-132
-139
-139
-152
-148
-139
-136
-127
-131
-123
-123
-111
-100
-102
-100
-97
-102
-104
-95
-94
-97
-96
-88
-78
-91
-104
-103
-107
-93
-87
-89
-109
-91
-78
-83
-104
-106
-103
-90
-83
-90
-92
-86
-91
-92
-97
-96
-92
-79
-96
-91
-91
-84
-87
-94
-92
-81
-75
-75
-77
-88
-87
-87
-88
-92
-93
-83
-76
-78
-85
-89
-89
-77
-77
-88
-81
-61
-79
-92
-86
-77
-82
-84
-74
-82
-71
-54
-55
-81
-71
-64
-82
-77
-63
-73
-71
-61
-72
-79
-74
-69
-61
-52
-55
-59
-53
-58
-56
-55
-58
-49
-40
-56
-53
-48
-47
-58
-60
-57
-51
-44
-55
-55
-38
-41
-37
-40
-41
-48
-31
-40
-57
-48
-40
-53
-60
-55
-50
-74
-74
-60
-52
-55
-70
-77
-82
-85
-86
-77
-71
-75
-81
-88
-90
-93
-96
-93
-85
-80
-82
-88
-98
-93
-91
-97
-93
-92
-94
-97
-93
-97
-87
-81
-84
-89
-83
-92
-89
-98
-93
-91
-103
-104
-104
-87
-93
-85
-88
-89
-75
-92
-92
-102
-105
-91
-90
-81
-98
-92
-92
-94
-88
-95
-93
-91
-75
-91
-96
-98
-85
-95
-85
-86
-89
-84
-82
-87
-91
-100
-84
-99
-111
-94
-90
-89
-82
-85
-93
-93
-90
-92
-89
-94
-97
-87
-87
-79
-89
-91
-92
-86
-101
-105
-87
-79
-90
-83
-97
-93
-88
-94
-81
-88
-90
-89
-94
-96
-97
-89
-94
-103
-77
-89
-90
-87
-91
-97
-102
-93
-92
-84
-95
-90
-80
-86
-88
-92
-111
-95
-87
-88
-100
-87
-85
-85
-91
-95
-94
-102
-103
-95
-90
-93
-97
-97
-89
-90
-94
-96
-97
-90
-89
-89
-82
-82
-83
-89
-97
-93
-99
-101
-92
-88
-84
-88
-108
-109
-97
-83
-98
-99
-92
-90
-93
-82
-80
-87
-93
-94
-84
-80
-87
-107
-97
-92
-93
-94
-100
-97
-88
-75
-91
-90
-82
-84
-99
-113
-88
-92
-95
-88
-85
-92
-84
-90
-87
-85
-87
-93
-93
-94
-92
-94
-100
-87
-78
-77
-83
-77
-77
-75
-79
-75
-78
-78
-82
-78
-76
-72
-72
-76
-67
-66
-68
-73
-86
-75
-76
-88
-91
-88
-84
-84
-81
-87
-94
-91
-90
-88
-100
-91
-80
-90
-89
-97
-97
-85
-90
-109
-103
-97
-98
-93
-92
-90
-88
-91
-89
-102
-87
-78
-89
-89
-100
-92
-74
-69
-57
-48
-32
-26
-18
-40
-38
-38
-51
-68
-85
-77
-96
-109
-127
-122
-111
-120
-132
-139
-133
-137
-125
-122
-111
-108
-104
-103
-100
-91
-101
-100
-101
-89
-90
-88
-93
-92
-96
-92
-93
-96
-84
-94
-94
-92
-82
-83
-93
-89
-96
-89
-84
-79
-83
-75
-84
-82
-81
-87
-92
-100
-84
-82
-73
-91
-80
-79
-88
-79
-72
-80
-85
-83
-84
-85
-79
-84
-81
-81
-67
-70
-71
-82
-86
-83
-90
-90
-84
-78
-81
-76
-71
-67
-71
-67
-76
-76
-66
-70
-82
-72
-73
-72
-66
-63
-62
-67
-63
-71
-69
-71
-62
-57
-58
-66
-56
-56
-44
-64
-57
-58
-59
-63
-42
-50
-60
-65
-53
-59
-46
-55
-46
-47
-41
-37
-44
-55
-44
-44
-45
-48
-36
-41
-42
-38
-55
-49
-50
-42
-43
-46
-47
-56
-54
-45
-54
-64
-63
-62
-78
-67
-69
-72
-65
-67
-61
-61
-70
-74
-71
-79
-79
-86
-81
-72
-78
-81
-79
-80
-79
-91
-90
-76
-69
-81
-88
-77
-90
-87
-78
-72
-81
-86
-79
-90
-73
-70
-84
-86
-76
-86
-80
-88
-91
-87
-82
-78
-86
-87
-92
-86
-79
-70
-75
-66
-77
-79
-89
-83
-80
-77
-78
-76
-75
-74
-78
-85
-78
-73
-73
-73
-84
-78
-76
-70
-82
-102
-93
-76
-75
-74
-76
-77
-78
-84
-77
-78
-87
-77
-82
-78
-93
-85
-77
-80
-76
-86
-75
-72
-66
-70
-82
-83
-77
-70
-61
-82
-87
-74
-75
-93
-80
-73
-80
-82
-71
-72
-83
-79
-84
-87
-80
-87
-84
-74
-73
-84
-89
-79
-68
-68
-72
-80
-81
-75
-77
-73
-76
-86
-81
-88
-85
-80
-80
-85
-75
-79
-72
-89
-85
-81
-80
-74
-66
-80
-71
-84
-80
-83
-78
-66
-68
-78
-82
-85
-74
-77
-78
-77
-70
-79
-74
-83
-86
-86
-74
-79
-82
-84
-74
-77
-67
-75
-81
-81
-77
-87
-78
-74
-80
-74
-79
-75
-70
-81
-81
-80
-72
-78
-78
-74
-68
-75
-73
-83
-73
-73
-77
-76
-76
-65
-71
-74
-81
-75
-74
-77
-77
-83
-88
-76
-81
-68
-68
-81
-78
-81
-73
-64
-71
-85
-77
-69
-71
-68
-79
-71
-80
-79
-89
-77
-68
-69
-72
-69
-73
-76
-76
-72
-66
-78
-73
-73
-77
-100
-73
-76
-70
-62
-70
-71
-74
-72
-70
-73
-72
-73
-66
-74
-76
-79
-79
-79
-76
-64
-71
-73
-78
-68
-64
-80
-83
-66
-72
-76
-79
-77
-79
-73
-67
-59
-68
-80
-84
-51
-65
-86
-80
-77
-76
-79
-79
-70
-62
-66
-80
-83
-79
-78
-74
-71
-68
-69
-71
-65
-70
-73
-71
-64
-68
-76
-67
-64
-68
-72
-64
-72
-70
-68
-64
-66
-61
-61
-62
-58
-62
-48
-57
-58
-60
-64
-58
-45
-57
-64
-58
-55
-55
-62
-48
-55
-66
-58
-63
-70
-70
-74
-74
-67
-75
-78
-78
-65
-59
-73
-73
-68
-70
-80
-75
-74
-67
-68
-69
-75
-80
-80
-81
-77
-73
-81
-79
-67
-71
-65
-45
-26
-13
-4
3
6
-8
-3
-26
-15
-18
-38
-62
-76
-94
-92
-104
-116
-113
-112
-118
-111
-106
-111
-90
-91
-77
-81
-84
-84
-74
-74
-70
-66
-62
-74
-84
-80
-66
-63
-83
-83
-68
-67
-64
-67
-68
-67
-75
-78
-74
-71
-66
-65
-70
-68
-60
-62
-65
-70
-77
-79
-77
-77
-72
-68
-51
-55
-72
-75
-65
-63
-68
-66
-59
-62
-64
-60
-65
-56
-52
-67
-68
-75
-70
-75
-65
-58
-65
-69
-48
-59
-66
-62
-61
-60
-61
-61
-56
-63
-58
-51
-58
-54
-48
-53
-60
-62
-61
-51
-45
-56
-68
-49
-49
-36
-30
-40
-52
-52
-45
-45
-25
-47
-40
-39
-34
-32
-31
-44
-45
-33
-27
-30
-39
-37
-27
-20
-36
-38
-41
-38
-38
-29
-24
-27
-23
-28
-31
-34
-40
-43
-32
-36
-37
-44
-35
-28
-28
-31
-34
-48
-61
-47
-42
-47
-58
-56
-59
-50
-56
-53
-67
-57
-60
-64
-61
-61
-62
-60
-64
-71
-63
-64
-70
-64
-64
-73
-70
-67
-60
-69
-72
-63
-52
-57
-66
-60
-67
-61
-63
-75
-79
-70
-69
-51
-55
-60
-63
-65
-70
-70
-76
-68
-61
-68
-69
-66
-70
-71
-70
-70
-62
-64
-62
-57
-69
-74
-69
-65
-58
-64
-73
-64
-73
-68
-67
-70
-50
-49
-57
-60
-63
-66
-55
-74
-75
-73
-67
-59
-73
-64
-62
-62
-59
-64
-68
-66
-68
-64
-59
-65
-63
-66
-72
-53
-62
-68
-69
-73
-77
-65
-62
-64
-63
-66
-67
-72
-65
-68
-70
-62
-62
-61
-62
-60
-66
-66
-62
-65
-65
-64
-68
-64
-59
-66
-67
-70
-70
-57
-69
-69
-70
-65
-59
-59
-56
-70
-72
-73
-52
-66
-60
-67
-62
-62
-71
-74
-61
-60
-56
-67
-78
-72
-66
-58
-67
-67
-61
-61
-69
-65
-70
-69
-59
-55
-68
-76
-73
-65
-56
-60
-68
-68
-59
-79
-84
-57
-56
-69
-73
-75
-73
-59
-61
-67
-74
-69
-64
-60
-57
-58
-51
-69
-64
-67
-70
-63
-62
-63
-67
-74
-69
-61
-58
-68
-61
-69
-66
-74
-55
-53
-59
-58
-70
-75
-64
-73
-76
-64
-66
-65
-67
-63
-69
-66
-58
-66
-64
-62
-64
-60
-60
-67
-59
-74
-74
-70
-63
-59
-61
-62
-69
-65
-60
-59
-64
-61
-67
-63
-66
-65
-62
-69
-66
-58
-65
-67
-71
-70
-63
-61
-59
-66
-63
-62
-62
-61
-68
-67
-61
-61
-51
-59
-64
-67
-69
-66
-65
-56
-60
-65
-59
-62
-54
-62
-65
-61
-54
-46
-62
-40
-57
-60
-40
-47
-49
-47
-40
-38
-52
-45
-39
-45
-62
-54
-51
-38
-41
-56
-58
-51
-53
-57
-57
-43
-59
-64
-58
-62
-54
-57
-63
-62
-78
-77
-64
-61
-62
-68
-72
-68
-66
-58
-60
-63
-72
-80
-73
-68
-68
-56
-66
-50
-31
-23
-19
-6
14
20
20
12
8
-3
-4
-26
-40
-62
-62
-83
-99
-103
-91
-81
-101
-100
-95
-93
-85
-78
-79
-70
-71
-86
-77
-74
-61
-68
-71
-64
-56
-54
-62
-66
-61
-73
-62
-68
-61
-68
-67
-53
-61
-54
-59
-56
-59
-70
-61
-59
-65
-66
-58
-48
-43
-63
-72
-61
-73
-67
-50
-53
-56
-52
-57
-62
-68
-56
-50
-48
-55
-67
-64
-55
-48
-49
-53
-58
-56
-58
-69
-63
-50
-48
-32
-48
-66
-57
-53
-52
-43
-50
-51
-57
-49
-50
-54
-53
-47
-46
-42
-47
-44
-39
-43
-56
-52
-43
-31
-37
-40
-45
-40
-36
-34
-39
-35
-34
-30
-33
-34
-34
-35
-32
-20
-27
-32
-28
-22
-18
-25
-13
-16
-21
-18
-26
-28
-24
-23
-10
-17
-37
-29
-24
-29
-25
-26
-35
-21
-23
-39
-45
-31
-28
-45
-44
-30
-42
-43
-39
-43
-44
-39
-58
-53
-54
-50
-59
-43
-40
-49
-70
-74
-61
-59
-60
-56
-52
-59
-57
-58
-57
-59
-70
-64
-63
-63
-54
-60
-62
-60
-59
-56
-64
-62
-70
-63
-57
-58
-64
-66
-63
-58
-60
-55
-58
-59
-66
-76
-68
-50
-48
-65
-48
-47
-76
-70
-69
-48
-58
-68
-62
-60
-56
-65
-61
-57
-64
-62
-62
-61
-60
-59
-54
-59
-69
-65
-65
-60
-55
-61
-66
-64
-58
-64
-48
-62
-68
-63
-66
-57
-58
-65
-63
-58
-65
-65
-56
-59
-63
-57
-53
-60
-61
-62
-68
-67
-61
-55
-69
-67
-60
-52
-59
-76
-67
-61
-59
-59
-59
-61
-60
-60
-55
-67
-68
-68
-50
-66
-71
-58
-59
-64
-65
-52
-55
-62
-61
-60
-53
-70
-62
-66
-52
-65
-69
-60
-62
-73
-56
-52
-63
-65
-64
-64
-73
-69
-63
-67
-63
-60
-60
-67
-69
-56
-61
-68
-62
-61
-62
-51
-58
-64
-63
-69
-54
-65
-69
-70
-62
-49
-71
-70
-65
-59
-60
-62
-64
-61
-65
-58
-61
-61
-59
-61
-67
-67
-62
-58
-68
-53
-68
-68
-67
-69
-65
-64
-56
-54
-56
-66
-67
-67
-61
-59
-67
-58
-68
-60
-60
-68
-51
-56
-54
-64
-67
-71
-67
-63
-69
-58
-59
-62
-57
-61
-68
-66
-64
-59
-73
-63
-69
-66
-64
-63
-68
-65
-67
-60
-62
-59
-73
-59
-56
-55
-55
-69
-69
-60
-62
-61
-71
-66
-56
-60
-57
-55
-65
-62
-69
-66
-62
-64
-63
-61
-64
-67
-60
-70
-65
-48
-51
-48
-51
-53
-69
-66
-59
-58
-59
-56
-55
-47
-59
-66
-50
-50
-54
-47
-50
-45
-38
-42
-45
-34
-39
-42
-47
-49
-47
-44
-49
-48
-47
-49
-47
-48
-42
-58
-60
-57
-56
-56
-66
-63
-60
-71
-59
-67
-68
-58
-67
-71
-61
-67
-67
-60
-62
-59
-57
-56
-64
-75
-66
-72
-76
-76
-67
-52
-28
-20
-2
4
15
31
23
9
0
-7
-11
-23
-35
-58
-77
-90
-98
-104
-78
-79
-98
-99
-90
-89
-86
-86
-88
-80
-60
-63
-61
-64
-68
-65
-70
-63
-64
-59
-74
-54
-58
-68
-65
-77
-68
-63
-52
-61
-55
-56
-57
-58
-64
-70
-66
-67
-69
-63
-67
-65
-53
-55
-61
-67
-63
-71
-57
-52
-62
-53
-57
-57
-62
-64
-68
-68
-63
-63
-49
-49
-68
-69
-71
-62
-54
-53
-57
-58
-59
-54
-52
-51
-56
-65
-74
-52
-49
-61
-49
-42
-52
-49
-52
-45
-45
-51
-58
-47
-46
-46
-39
-42
-38
-39
-47
-45
-43
-39
-40
-39
-41
-37
-38
-44
-34
-33
-37
-29
-35
-30
-18
-33
-33
-27
-17
-16
-42
-32
-18
-17
-18
-24
-18
-29
-27
-30
-30
-19
-27
-29
-26
-38
-38
-30
-22
-27
-24
-25
-28
-35
-37
-31
-32
-50
-39
-49
-49
-43
-50
-51
-48
-50
-57
-55
-54
-58
-58
-57
-55
-51
-62
-61
-62
-63
-57
-58
-58
-58
-65
-69
-63
-67
-53
-54
-49
-53
-63
-72
-68
-50
-55
-58
-65
-60
-63
-61
-64
-57
-52
-63
-68
-63
-68
-61
-60
-57
-64
-61
-63
-60
-64
-59
-71
-72
-62
-58
-59
-53
-61
-58
-67
-65
-64
-64
-69
-60
-51
-60
-64
-61
-54
-61
-67
-60
-61
-57
-58
-60
-59
-58
-73
-65
-63
-63
-73
-63
-57
-61
-72
-57
-59
-61
-60
-69
-69
-53
-48
-52
-51
-63
-63
-56
-64
-68
-65
-59
-51
-63
-62
-59
-60
-55
-60
-69
-65
-59
-60
-63
-56
-52
-59
-65
-52
-57
-64
-70
-65
-61
-60
-58
-58
-62
-65
-67
-57
-54
-59
-58
-68
-59
-59
-55
-63
-56
-61
-65
-64
-63
-65
-66
-62
-57
-67
-63
-52
-55
-63
-64
-63
-66
-59
-70
-64
-62
-63
-59
-59
-53
-64
-56
-56
-68
-59
-63
-63
-57
-54
-59
-66
-67
-51
-59
-61
-64
-67
-55
-65
-68
-65
-60
-59
-57
-66
-66
-59
-58
-59
-58
-64
-73
-61
-60
-63
-59
-55
-55
-62
-71
-60
-57
-64
-61
-66
-63
-55
-53
-57
-63
-67
-68
-70
-49
-65
-58
-67
-65
-51
-55
-72
-72
-60
-58
-57
-61
-59
-61
-61
-62
-55
-60
-63
-61
-64
-69
-64
-59
-51
-63
-58
-65
-62
-56
-68
-67
-59
-61
-61
-57
-62
-50
-70
-70
-67
-65
-63
-61
-52
-57
-60
-72
-63
-58
-68
-61
-67
-68
-56
-62
-51
-53
-62
-66
-63
-62
-57
-54
-67
-68
-59
-68
-67
-58
-60
-63
-64
-55
-62
-59
-55
-52
-55
-54
-54
-56
-60
-55
-46
-47
-54
-57
-61
-53
-36
-42
-42
-37
-48
-40
-40
-44
-48
-59
-36
-38
-47
-45
-46
-52
-48
-56
-57
-50
-64
-63
-66
-59
-59
-54
-53
-69
-70
-56
-56
-72
-66
-65
-63
-64
-64
-67
-71
-70
-69
-71
-61
-69
-62
-64
-75
-71
-57
-59
-52
-30
-3
1
18
39
24
7
6
-2
-10
-22
-41
-53
-67
-78
-93
-99
-104
-89
-94
-95
-87
-84
-83
-78
-81
-79
-77
-80
-75
-69
-68
-57
-61
-61
-70
-69
-57
-74
-64
-64
-61
-71
-64
-60
-61
-64
-77
-73
-70
-53
-56
-53
-62
-65
-66
-62
-64
-59
-57
-60
-59
-65
-57
-49
-60
-63
-57
-64
-65
-60
-63
-60
-55
-50
-60
-61
-62
-70
-68
-51
-51
-49
-57
-64
-58
-61
-63
-59
-57
-52
-58
-54
-55
-57
-45
-52
-56
-62
-50
-51
-43
-50
-48
-44
-51
-63
-51
-47
-41
-46
-45
-49
-45
-36
-39
-39
-38
-34
-36
-49
-33
-29
-29
-33
-34
-36
-29
-29
-35
-35
-26
-26
-25
-22
-25
-34
-30
-29
-21
-15
-28
-24
-20
-21
-26
-19
-23
-28
-30
-31
-25
-25
-31
-33
-32
-28
-29
-31
-32
-31
-32
-37
-43
-51
-52
-46
-40
-45
-54
-52
-52
-58
-59
-48
-60
-54
-53
-50
-61
-51
-46
-60
-60
-60
-69
-68
-55
-70
-64
-58
-58
-69
-62
-57
-56
-57
-67
-60
-66
-73
-64
-57
-51
-56
-69
-68
-69
-65
-58
-55
-53
-56
-56
-68
-64
-64
-68
-60
-64
-61
-60
-58
-64
-62
-64
-72
-65
-58
-59
-63
-54
-61
-66
-59
-64
-66
-67
-59
-63
-60
-67
-60
-68
-71
-61
-65
-64
-62
-60
-63
-59
-58
-65
-59
-56
-69
-62
-64
-71
-59
-67
-57
-54
-63
-63
-52
-50
-62
-60
-67
-60
-68
-72
-67
-70
-65
-60
-68
-61
-60
-60
-51
-63
-67
-67
-70
-84
-64
-62
-61
-61
-64
-66
-62
-59
-66
-66
-66
-62
-62
-56
-76
-62
-67
-59
-68
-64
-60
-64
-64
-57
-59
-66
-72
-67
-65
-66
-70
-71
-68
-61
-58
-57
-57
-66
-71
-70
-66
-71
-64
-67
-68
-79
-68
-63
-61
-64
-59
-64
-60
-63
-62
-58
-63
-70
-72
-66
-64
-62
-73
-66
-63
-70
-72
-67
-63
-64
-62
-64
-65
-69
-53
-58
-61
-76
-74
-72
-60
-58
-60
-62
-60
-69
-73
-74
-69
-65
-60
-55
-64
-71
-66
-69
-68
-65
-69
-57
-59
-63
-69
-68
-69
-63
-59
-67
-61
-74
-70
-75
-68
-58
-62
-75
-60
-64
-55
-60
-73
-80
-70
-64
-72
-70
-65
-60
-70
-68
-60
-57
-66
-67
-69
-62
-62
-63
-75
-63
-65
-66
-66
-64
-63
-66
-67
-66
-69
-60
-57
-63
-70
-69
-62
-56
-66
-67
-72
-73
-70
-55
-59
-70
-68
-65
-66
-52
-52
-62
-61
-62
-69
-63
-64
-60
-52
-48
-55
-52
-52
-57
-52
-42
-47
-36
-45
-45
-44
-49
-53
-51
-47
-48
-48
-56
-46
-50
-50
-44
-49
-51
-56
-52
-70
-69
-66
-70
-70
-60
-69
-67
-62
-61
-66
-69
-72
-71
-69
-58
-56
-59
-67
-80
-78
-76
-69
-77
-83
-79
-75
-59
-39
-26
-20
-5
8
29
29
23
2
-3
3
-14
-32
-54
-78
-96
-99
-102
-101
-97
-102
-103
-92
-99
-93
-89
-86
-86
-78
-74
-69
-71
-70
-73
-65
-67
-73
-65
-62
-72
-63
-66
-57
-66
-66
-68
-71
-74
-69
-66
-61
-68
-66
-68
-71
-69
-64
-61
-67
-63
-58
-79
-67
-64
-71
-63
-68
-69
-74
-64
-63
-63
-59
-56
-56
-60
-58
-64
-66
-63
-71
-65
-53
-55
-59
-58
-62
-55
-45
-53
-59
-59
-57
-53
-47
-59
-61
-51
-52
-52
-59
-55
-56
-51
-50
-42
-53
-46
-49
-41
-38
-42
-42
-54
-47
-47
-45
-52
-45
-39
-35
-37
-43
-35
-27
-32
-40
-31
-22
-24
-27
-32
-29
-30
-19
-17
-13
-12
-25
-29
-20
-18
-20
-17
-32
-27
-15
-22
-21
-21
-27
-18
-5
-28
-38
-32
-20
-26
-31
-38
-37
-27
-30
-35
-43
-45
-49
-46
-42
-43
-50
-52
-59
-59
-75
-54
-55
-62
-61
-55
-54
-56
-54
-52
-63
-57
-57
