-18
-9
-12
-19
-7
-18
-16
-14
-19
-19
-22
-14
-8
-15
-16
-11
-11
-9
-10
-20
-7
-12
-6
-9
-14
-19
-19
-6
-20
-8
-25
-20
-12
-10
-10
-2
-14
-18
-12
-12
-17
-19
-19
-6
-9
-12
-7
-13
-15
-8
-15
-19
-14
-9
-20
-15
-18
-8
-10
-16
-12
-23
-18
-9
-7
-25
-15
-13
-15
-10
-18
-15
-10
-16
-13
-11
-19
-18
-3
-9
-29
-22
-17
-8
-21
-24
-12
-9
-7
-10
-17
-9
-14
-17
-3
-11
-20
-18
-12
-10
-14
-19
-7
-6
-8
-2
-6
-9
3
-4
-10
-20
-11
-2
-4
-10
8
-6
3
0
9
4
-12
1
-2
3
8
0
0
10
10
14
2
-5
-16
-15
-9
-9
-17
-19
-7
-7
-12
-13
-18
-20
-17
-10
-12
-15
-10
-3
2
-30
-22
-5
-16
-17
-15
-18
-5
-15
-19
-8
-10
-15
-16
-7
-7
-22
-35
-22
-33
-32
-25
-29
-24
-23
-3
17
40
71
95
122
161
195
184
164
138
128
103
61
27
17
-15
-71
-102
-97
-88
-74
-57
-61
-47
-21
-17
-20
-10
-5
-10
-4
-9
-7
-9
-8
-4
-7
-14
-1
-6
-3
0
-6
-8
-1
-5
3
5
10
-13
7
13
14
0
-5
3
7
13
10
8
1
5
2
9
17
14
13
10
12
15
21
14
19
20
26
26
34
25
25
22
36
30
21
31
34
40
45
43
37
48
56
56
52
40
53
61
68
65
66
61
69
71
72
73
77
83
88
94
98
86
85
93
94
97
103
109
109
101
91
87
90
86
79
75
72
64
71
57
50
39
45
39
37
30
26
22
22
19
13
15
13
4
12
4
1
3
5
4
1
4
-4
0
-5
6
2
3
-5
6
-9
1
11
3
7
9
11
6
0
-2
3
2
-3
4
6
11
-2
-9
2
2
-5
1
0
3
-1
-3
-1
-5
-2
1
-2
6
11
0
-5
1
-3
7
1
5
5
5
4
-3
4
7
5
1
4
5
1
1
10
26
9
11
-1
15
21
20
5
4
7
0
1
2
10
5
8
14
12
6
12
17
5
9
6
1
6
3
6
5
6
8
10
1
4
3
11
7
13
18
12
-3
11
15
11
14
19
9
-2
9
13
14
11
5
-5
13
16
12
14
14
8
8
6
11
14
12
15
7
12
18
13
13
14
18
15
16
14
23
26
26
27
21
29
17
24
11
23
18
21
20
27
21
26
28
26
2
5
1
-10
-1
9
11
20
6
3
9
1
2
-5
15
-1
5
6
9
10
7
12
6
2
1
0
1
4
6
6
-2
3
-2
-1
14
-1
4
9
19
21
-1
5
19
36
59
83
109
147
156
176
174
138
122
108
94
68
44
23
-11
-80
-78
-72
-66
-49
-52
-50
-43
-22
-6
1
2
14
14
13
14
6
-1
8
13
20
25
22
11
10
3
15
19
18
14
18
22
17
15
21
28
17
23
23
23
26
21
32
26
31
17
34
15
26
34
35
33
33
42
29
31
33
43
46
45
41
46
44
39
54
48
50
44
40
44
59
65
60
60
63
61
62
76
73
74
80
78
73
86
95
89
91
108
107
104
105
112
101
101
108
109
104
104
111
114
111
113
118
114
99
97
97
103
87
74
79
75
66
63
48
49
44
48
35
42
38
34
34
34
29
23
14
19
13
23
26
18
9
8
18
28
16
2
19
18
12
16
21
15
6
1
5
7
26
14
14
11
14
13
24
13
13
14
12
10
19
14
17
15
5
16
7
15
9
19
18
19
8
14
26
15
12
14
8
15
15
22
18
25
15
25
22
20
22
21
19
11
13
20
14
15
14
21
18
14
14
17
15
28
20
14
20
15
15
14
18
11
15
20
21
18
14
16
19
8
18
21
30
34
18
15
9
15
20
20
14
18
17
22
9
14
21
33
11
11
16
24
38
35
23
18
29
30
34
32
39
32
22
26
28
38
25
27
30
25
26
21
15
19
24
17
14
10
6
14
16
10
7
22
15
4
14
12
11
1
13
5
10
24
25
12
21
14
8
1
8
9
13
12
6
-1
10
8
2
3
12
12
5
2
9
19
27
42
56
91
101
132
162
183
169
133
117
102
93
64
46
21
2
-51
-70
-60
-56
-55
-42
-37
-28
-12
-8
4
6
10
23
12
20
16
8
11
18
12
15
22
14
11
18
29
26
18
23
26
33
39
18
16
23
27
22
23
29
28
26
28
35
33
27
31
29
24
27
33
34
43
39
44
43
26
49
45
47
41
47
43
45
41
42
52
52
50
53
55
58
62
68
65
71
68
73
78
77
87
91
105
108
91
89
81
74
87
97
93
97
101
102
99
107
110
104
106
104
104
98
100
106
101
105
96
73
79
80
68
72
67
64
45
65
54
30
31
23
19
20
17
23
21
24
12
12
13
13
14
17
13
14
18
24
20
23
15
12
7
0
13
4
17
13
12
17
12
6
7
2
12
11
20
10
21
2
2
7
4
8
9
11
8
12
13
17
9
2
7
1
17
14
9
17
9
8
21
18
5
11
17
18
15
26
12
-14
16
19
9
18
10
10
14
17
13
7
14
12
9
12
15
19
29
13
18
18
9
0
3
15
17
13
10
15
8
2
6
13
10
12
5
7
10
11
4
4
15
-1
11
22
14
22
22
19
26
7
11
8
6
13
14
25
23
18
15
13
6
10
15
24
13
22
25
23
24
27
15
31
22
21
32
20
32
27
27
26
22
11
2
12
15
14
-2
10
11
3
8
9
18
6
1
6
-5
4
8
9
5
-1
0
7
3
8
8
20
11
23
14
18
4
-8
4
2
0
7
2
1
-14
-7
-10
-8
-6
-6
12
32
48
80
105
134
157
191
187
150
132
121
100
66
33
26
5
-44
-65
-68
-52
-52
-31
-19
-9
2
9
24
7
9
9
12
3
19
4
9
7
8
14
15
17
14
14
10
19
14
15
18
25
26
18
18
12
15
16
20
27
19
17
23
26
12
7
31
32
29
30
19
18
28
31
26
29
36
29
23
43
35
30
35
44
38
37
38
43
42
42
40
44
53
46
55
57
60
72
62
67
73
79
76
78
83
76
82
84
91
88
102
89
89
98
94
97
98
108
100
104
100
103
104
102
98
86
86
83
69
66
60
56
53
48
48
37
40
28
21
34
23
17
19
21
10
17
18
9
-3
2
4
13
5
6
9
8
7
-3
-7
8
4
10
16
1
-6
19
15
10
9
-9
-4
5
2
4
6
10
5
-3
9
9
4
4
12
0
10
17
4
-3
-1
2
-2
2
-1
-11
-2
-3
-9
-3
-2
5
-8
0
12
-8
-11
-7
-2
-1
8
-9
-2
1
3
-15
-4
3
-7
-4
-4
7
-2
-8
-9
-7
-3
-16
-10
-4
3
-7
-12
-2
-5
-13
-2
-7
-3
-7
-6
5
-7
5
-4
-12
-4
-4
-4
-4
-5
-6
-8
2
-3
-1
-9
-10
0
12
21
-1
-2
-6
-7
-9
-7
-8
-11
-2
3
-8
-6
-8
2
-2
-1
-5
-8
-13
1
-4
-11
-7
-5
-11
-5
-1
-5
-3
6
1
-11
-2
-3
-4
1
2
-8
3
1
-6
-11
-15
-6
-1
-4
-12
-7
-5
1
10
-3
1
-1
2
-6
-4
-3
-1
11
-1
4
10
3
10
7
-1
6
5
6
8
11
10
12
8
13
12
0
15
15
18
14
6
1
2
5
4
-10
-11
-9
-9
-10
-5
-1
-3
-6
2
4
-2
-14
-9
-4
-12
-6
-4
-6
-14
-23
-15
-5
-6
-5
-4
-8
-1
-4
-10
-11
-2
1
-10
-25
-14
-13
-9
-29
-37
-20
-29
-25
-16
-2
18
42
77
106
136
155
188
190
162
131
115
96
58
26
8
-20
-71
-96
-82
-67
-55
-56
-46
-21
-9
3
2
-1
-7
-7
-7
-17
-11
-13
1
-7
-4
2
1
8
5
-4
-11
0
-7
3
4
-6
-11
-1
5
7
7
9
-7
-1
1
2
20
2
10
13
13
12
13
8
9
3
16
13
21
16
20
31
15
15
20
19
26
32
21
31
17
25
30
34
38
31
43
38
37
45
49
59
52
53
72
79
75
85
66
59
54
78
79
88
81
78
84
92
91
92
96
98
94
108
109
107
103
95
93
80
89
88
69
79
61
58
55
51
41
42
35
27
25
23
19
12
18
16
8
25
27
13
22
-6
-11
-6
12
-7
-2
-8
-2
-4
-7
-1
-1
-6
-7
-5
-3
-4
-7
-8
-4
6
0
2
-1
7
5
-3
-5
-7
-8
-8
-3
-6
-4
3
-3
-6
-2
-6
-4
0
-4
-5
-4
3
-2
-6
-6
-1
5
-11
6
17
10
1
-3
-4
-7
-7
-6
1
-10
-3
-1
-6
-8
-7
-4
-4
-8
-4
-9
3
2
-3
-4
4
-6
0
-4
-10
-2
-5
5
10
16
20
19
-9
-2
-14
0
2
-7
-8
-4
-3
-4
-11
-9
-4
-2
-1
0
-8
5
-5
-11
-7
-3
-3
-4
-2
-4
0
-10
-3
1
1
1
4
2
2
7
-3
-10
-4
0
-2
-2
-10
-4
-3
-13
-4
-11
3
-9
-11
-4
-7
-3
0
-1
-7
3
-2
-8
0
-3
-3
-7
-4
-4
-5
-4
3
-4
0
0
-10
-7
4
-14
1
22
3
-8
-4
-7
-1
-9
10
-3
-10
-3
-6
1
-2
2
-1
5
5
4
1
1
-3
-2
-2
-2
-6
-2
3
16
20
14
11
19
8
9
14
9
4
17
11
14
11
6
3
11
1
-2
-10
-6
-5
9
-2
-12
-8
-7
-6
-12
-9
-2
-10
-9
-7
-7
-10
0
-3
-6
2
4
-1
-17
-15
-11
-4
-10
-15
-9
-7
-15
-5
-13
-18
-18
-4
0
-6
-12
7
23
40
63
92
114
149
172
186
165
138
116
101
75
41
19
3
-34
-79
-86
-83
-70
-72
-51
-38
-33
-17
-12
-8
-11
-1
-3
-1
-5
0
-2
-6
0
8
-2
7
8
-3
1
11
7
-1
6
7
21
11
4
5
7
7
15
5
9
10
10
18
20
8
10
6
15
14
33
12
20
30
22
25
19
17
25
32
38
31
23
28
42
20
21
42
34
41
43
41
47
38
45
42
47
49
48
61
61
65
67
63
69
85
76
74
84
84
89
92
98
96
109
96
87
95
98
98
106
99
107
106
114
99
91
82
82
81
81
69
62
47
53
50
45
44
47
32
26
46
15
9
17
10
3
4
12
9
13
10
0
-1
7
5
-2
6
10
7
1
6
-8
-8
-10
5
12
1
1
1
-5
-2
4
2
11
10
2
0
7
-2
10
15
-5
-3
-6
-2
-6
-1
10
16
3
-1
2
9
1
10
-6
2
4
7
-1
-11
9
5
-2
-3
1
14
2
5
6
10
2
5
14
3
8
7
-5
-3
8
2
1
5
6
3
-3
4
11
15
-2
-5
1
5
-1
2
4
8
8
-6
1
2
4
-2
1
0
6
14
13
5
-1
-10
-2
1
2
-1
1
-4
-17
-6
1
6
1
9
6
-10
-1
10
10
-3
-5
-5
-7
-9
-6
0
-3
0
6
4
6
0
3
0
-10
0
6
-4
-13
-6
0
-7
-9
-6
-4
-1
-4
1
-1
-3
0
0
-4
-12
-12
-4
-7
-11
-9
12
15
3
3
7
9
4
-2
0
-3
5
7
-3
-6
1
-2
-8
-12
-11
-15
-14
-8
-6
-9
-15
-14
-9
-15
-8
18
-20
-18
-10
-23
-22
-16
-19
-13
-16
-24
-34
-27
-19
-31
-26
-5
13
52
72
88
128
152
190
182
148
127
119
95
69
25
26
-4
-48
-76
-76
-83
-81
-61
-42
-26
-17
-4
-13
-11
12
4
0
12
13
-10
-12
-4
-7
-7
7
9
10
-4
-6
-2
8
3
3
6
-1
17
17
27
18
8
6
14
15
12
5
15
15
9
15
19
26
17
21
20
13
23
15
24
37
25
28
37
33
34
26
32
29
29
45
44
35
39
40
39
50
59
55
55
58
57
51
58
58
67
69
84
81
82
74
83
96
91
91
90
93
92
104
100
113
112
110
85
93
105
100
93
95
103
97
85
81
71
68
68
65
66
48
53
49
39
29
32
17
23
19
18
19
26
25
10
6
9
8
-1
8
2
11
4
15
10
8
3
2
6
4
6
14
17
17
11
3
8
10
11
-4
-7
4
13
9
12
9
10
9
19
16
4
5
5
4
7
17
2
13
4
13
6
0
9
13
9
16
8
0
13
18
11
4
15
6
11
10
-2
9
7
12
12
18
-4
-1
5
13
9
9
10
9
5
11
4
9
21
12
-4
-1
10
2
10
4
0
0
2
7
-2
9
9
5
-1
-5
2
4
11
13
5
2
5
6
5
12
7
2
-2
-2
2
-5
11
5
-3
0
-1
-1
14
16
17
14
16
-4
-4
18
6
-3
8
3
6
-4
-2
4
2
-3
1
-1
5
3
3
0
10
-7
12
-1
7
3
2
8
7
8
11
8
10
13
19
21
13
21
11
15
18
5
5
11
23
10
16
18
29
26
31
22
21
27
29
24
28
23
28
23
26
23
18
25
18
27
26
23
7
-1
-10
-22
-11
-7
-10
-11
0
-6
10
0
-1
-1
-1
-5
-1
2
14
1
-5
-5
1
5
3
2
4
-4
11
14
11
1
-5
-11
-29
-23
-19
-21
-6
17
42
66
99
108
140
170
214
211
183
152
140
124
91
51
34
4
-39
-78
-78
-59
-45
-42
-15
-11
-4
9
6
6
-8
13
8
16
4
25
18
21
6
8
4
15
9
22
15
15
18
19
23
13
21
25
14
24
27
36
23
21
23
28
25
32
33
39
23
30
35
28
28
37
41
33
40
31
41
36
39
41
38
44
48
49
45
47
59
62
50
56
54
60
66
71
63
68
71
68
79
88
79
90
85
96
86
103
101
106
106
105
99
113
111
108
121
128
139
134
127
123
119
123
126
126
123
119
111
108
104
104
98
86
77
82
66
70
58
45
53
47
41
46
39
36
40
38
23
28
40
40
30
20
24
24
16
20
13
21
25
25
20
10
16
17
11
9
29
30
20
23
23
19
17
19
12
20
19
17
14
22
27
14
14
12
27
24
24
15
24
22
15
23
17
17
24
23
23
18
22
16
17
18
19
26
30
23
22
18
18
21
31
27
17
31
22
12
12
28
33
31
23
19
13
21
26
26
26
25
17
17
15
24
31
24
25
29
31
26
15
18
21
28
28
16
22
11
22
21
17
14
22
17
24
16
17
29
14
32
28
29
26
44
22
8
18
17
16
20
19
25
14
22
25
28
21
22
23
24
15
24
27
32
28
31
46
39
29
37
34
13
29
38
26
33
44
43
31
38
32
32
33
35
37
38
41
42
36
29
34
20
24
21
25
18
10
13
8
12
20
15
12
15
15
12
26
19
11
19
17
13
26
27
17
19
27
12
3
10
12
19
13
12
11
9
19
6
0
5
-3
1
3
10
25
57
76
92
113
157
187
211
209
174
162
152
136
102
75
35
9
-48
-75
-73
-58
-50
-35
-43
-14
-8
8
20
4
18
17
27
25
19
14
21
26
27
17
8
27
28
23
23
20
20
18
25
28
21
21
37
23
22
22
27
27
34
38
32
40
34
35
26
30
39
34
31
37
46
49
63
41
36
51
45
40
43
54
40
56
54
53
51
59
51
54
57
66
68
77
79
87
72
77
83
90
98
86
91
96
99
94
96
103
101
108
119
117
120
125
130
113
124
111
119
125
118
126
125
114
110
107
105
105
96
101
93
90
81
80
79
82
61
62
51
50
46
40
37
32
36
26
20
45
27
27
22
18
12
24
21
18
21
30
23
17
18
13
11
19
20
24
20
24
17
7
5
13
21
21
14
19
30
22
14
18
19
13
29
22
3
1
22
26
29
27
31
15
12
17
12
5
4
12
16
20
17
15
25
26
18
20
22
31
13
13
12
15
17
32
12
19
26
19
23
22
15
18
26
14
19
24
17
21
14
17
12
19
16
22
13
19
18
14
9
18
17
9
23
19
20
23
18
5
12
13
16
23
13
9
2
5
13
14
0
10
16
13
4
15
5
6
15
19
17
22
10
14
14
17
13
17
21
14
17
12
15
11
23
23
28
24
26
25
39
18
12
19
36
37
40
26
27
20
24
19
9
21
12
14
5
7
16
6
2
3
5
9
15
15
12
2
15
6
14
13
4
8
19
8
3
0
5
4
8
0
-5
6
14
11
13
13
-6
-1
-7
-9
-18
0
-6
-7
6
32
66
91
119
157
191
211
219
188
151
139
120
84
50
29
8
-33
-74
-73
-65
-51
-46
-38
-16
-7
2
8
12
4
5
23
19
8
14
10
14
16
15
19
24
15
4
19
12
16
23
10
12
20
23
19
17
16
26
25
21
20
28
30
18
17
28
27
31
34
28
29
31
27
27
42
35
34
34
40
36
41
43
39
44
39
48
51
50
46
46
48
62
52
59
66
55
59
70
73
68
82
83
86
82
93
94
101
97
96
97
107
101
106
106
110
123
112
113
112
118
121
117
123
112
111
107
114
110
103
89
79
59
68
71
64
52
42
38
33
37
36
34
23
16
13
23
27
23
2
3
9
14
15
6
12
8
7
11
1
8
19
13
1
12
13
4
9
6
9
14
24
24
-3
-2
9
0
1
14
7
11
8
-3
6
6
5
8
15
17
21
9
14
12
11
-1
3
6
1
11
9
1
8
3
11
12
11
4
19
16
7
4
14
25
8
4
8
12
8
7
14
8
12
8
12
9
5
3
8
11
7
12
17
16
2
-2
4
5
6
13
6
6
16
5
13
7
14
10
4
14
9
14
16
15
4
7
6
18
18
16
18
20
36
16
7
16
20
29
21
16
9
21
28
24
27
27
26
24
27
25
9
14
9
3
8
13
14
7
10
2
5
6
11
6
4
12
8
10
17
4
1
2
6
16
25
7
3
12
2
9
15
4
0
7
14
12
3
-6
-2
0
-11
-3
-13
6
23
51
72
101
121
155
197
230
214
172
156
145
122
84
59
20
-16
-55
-72
-78
-61
-53
-49
-35
-24
-14
1
2
12
12
5
13
23
18
4
11
22
13
19
18
16
9
18
18
20
18
27
26
27
38
27
16
12
24
32
28
19
33
27
28
27
28
24
30
35
36
54
44
25
33
37
28
37
39
44
39
43
44
42
48
44
52
55
55
49
55
63
63
67
66
64
59
68
81
78
76
82
94
91
91
91
87
99
100
101
115
113
116
115
127
123
96
108
122
121
123
128
118
110
106
109
114
112
90
89
92
90
85
69
73
57
55
57
48
46
44
46
31
33
31
26
23
23
21
8
15
16
8
17
23
12
12
26
21
29
14
21
17
8
12
17
16
21
18
14
14
20
17
10
7
9
16
15
12
10
14
12
18
23
26
21
21
10
14
7
8
13
20
6
8
14
17
16
12
27
18
18
9
8
17
20
19
24
15
8
17
13
9
15
11
11
14
22
17
15
22
21
16
19
18
15
12
14
14
16
25
12
6
19
19
20
17
17
8
14
12
22
13
11
19
19
19
18
23
12
9
7
12
15
15
21
16
26
16
23
10
14
15
19
24
27
25
12
13
19
23
21
19
27
24
13
22
30
34
31
36
29
24
23
27
26
34
32
29
28
17
10
14
19
12
14
16
15
12
8
7
16
1
10
6
6
12
8
15
15
12
9
8
9
12
9
19
7
5
14
11
6
7
11
3
7
10
14
6
-1
11
5
6
1
13
37
49
76
106
119
158
189
200
194
153
143
136
113
76
48
19
-13
-61
-71
-57
-56
-42
-46
-29
-17
-3
1
7
5
14
21
10
15
13
22
21
13
20
8
15
13
21
24
17
20
29
24
19
22
22
15
20
17
24
24
28
27
28
24
28
26
44
36
22
24
39
42
48
32
27
40
35
30
41
38
35
51
41
42
42
53
46
45
49
70
57
62
59
54
65
64
68
73
69
68
81
81
87
91
103
108
84
88
83
98
93
95
95
101
113
119
111
114
116
110
113
118
113
113
111
109
103
106
100
100
68
67
76
70
68
62
60
55
47
47
41
33
35
27
25
36
30
32
26
19
28
12
22
29
11
2
9
14
12
24
20
10
15
8
13
15
10
14
14
12
9
9
10
-1
-5
8
18
12
12
20
10
7
23
7
15
24
14
5
13
15
16
19
16
16
17
7
14
10
23
7
23
7
6
1
15
18
6
12
16
14
17
18
12
18
17
13
9
21
21
21
20
8
16
18
18
17
19
23
11
13
13
13
1
17
15
10
17
19
17
13
11
16
22
15
15
20
10
11
8
8
11
10
6
12
20
10
10
19
15
12
22
17
6
9
20
17
6
7
19
19
17
28
20
26
21
32
23
20
19
23
20
23
22
15
17
23
16
9
14
12
9
7
0
10
6
-2
-1
6
8
7
9
10
6
3
11
0
8
1
-2
10
10
3
3
13
13
-1
8
11
9
13
2
-1
5
-1
-2
5
7
5
11
17
39
62
85
103
132
161
192
181
150
128
110
105
81
62
25
-9
-41
-70
-80
-70
-54
-50
-43
-26
-13
-7
3
7
5
9
10
4
15
23
13
0
6
12
16
23
21
11
8
19
14
14
19
25
17
18
17
11
23
34
29
24
30
27
25
26
19
14
17
34
29
31
14
25
32
31
35
30
37
38
43
38
37
48
30
41
45
44
55
46
46
49
56
60
61
58
63
59
65
72
71
71
79
81
75
80
79
84
93
96
104
108
96
96
95
105
102
101
107
111
112
106
108
101
100
99
97
93
93
97
81
81
74
72
57
55
48
37
44
44
29
26
27
27
21
20
19
11
20
13
15
13
15
7
9
13
12
11
16
18
16
17
4
2
13
-4
-2
-4
8
8
3
4
16
12
5
1
8
7
13
7
15
12
-6
13
11
23
7
4
8
6
-2
5
-1
9
18
9
2
-3
4
7
9
14
6
9
5
8
14
10
13
18
32
24
5
2
18
10
2
4
2
6
0
7
14
16
8
8
10
9
19
12
10
11
9
8
12
5
12
20
16
27
14
-2
6
7
-2
2
7
4
10
2
9
11
4
0
1
3
6
12
12
15
4
13
7
-1
-3
6
11
9
17
8
18
18
-7
1
13
7
4
-3
5
5
2
12
11
2
-3
0
-3
1
13
10
16
7
7
11
10
12
9
14
11
19
10
27
14
6
19
13
15
14
23
16
14
18
15
18
17
14
16
17
20
13
14
7
15
9
-4
-5
-4
2
-2
3
0
16
8
8
12
-3
-5
3
5
5
-5
4
2
0
0
-1
-1
10
-1
1
-4
8
10
5
-2
-7
-9
-7
-11
-10
-13
1
21
40
67
92
112
149
171
195
183
157
136
123
99
54
32
18
-11
-62
-74
-67
-57
-43
-52
-30
-27
-5
7
3
7
13
0
2
4
-1
2
16
5
3
10
7
8
6
13
12
11
14
10
13
20
22
33
17
23
23
12
14
13
16
29
17
10
17
23
22
22
16
17
28
28
31
26
24
30
25
39
32
33
37
32
50
33
38
48
35
35
46
47
59
48
54
47
52
61
52
76
91
85
65
69
72
82
77
82
83
86
96
92
92
100
101
103
108
104
95
107
107
107
113
117
119
109
97
91
88
85
80
73
72
68
61
65
62
49
45
33
27
28
34
37
28
25
15
10
9
18
17
10
9
3
-3
17
8
13
7
0
1
3
0
11
5
8
8
10
4
10
9
8
18
3
8
-5
-3
1
1
9
10
-2
-1
13
0
3
-5
1
9
18
0
-7
1
-2
3
8
4
8
2
16
7
9
9
-5
-8
4
3
3
3
8
13
7
-7
-5
0
3
10
0
4
9
1
7
11
5
1
3
17
15
5
7
-2
2
5
7
14
10
2
-2
0
-1
-2
-1
15
10
7
7
3
2
2
-5
-7
-2
6
10
10
7
3
-2
-5
0
0
-2
10
1
5
6
5
1
3
3
17
9
2
-5
-5
-3
5
5
0
-3
2
0
4
5
13
4
9
1
3
5
-4
1
9
2
-9
9
1
-1
5
4
4
-10
9
-1
-12
7
-1
8
4
6
-6
-2
1
-4
-1
6
5
0
-2
5
4
6
6
1
2
1
10
12
8
11
3
1
4
-3
4
1
4
9
11
-4
3
15
-2
-8
4
6
3
5
14
8
14
27
3
5
10
14
17
22
22
31
18
25
10
11
21
12
1
-3
8
-4
-8
-8
-4
1
5
1
-12
-1
-9
-15
-4
-6
4
10
3
1
-4
-6
3
3
0
1
2
0
-2
-8
-5
1
1
-2
0
0
-2
-21
-23
-21
-13
-14
-5
-3
15
20
62
92
119
137
163
197
190
146
131
126
111
70
43
11
-18
-54
-75
-73
-49
-43
-53
-34
-12
-7
0
-9
2
-3
2
15
-3
-5
-1
-2
1
7
8
-2
5
8
8
9
9
16
10
8
8
16
21
5
2
6
7
15
13
17
13
10
14
21
6
6
11
22
23
22
22
18
25
33
33
31
39
18
15
26
36
29
31
35
36
32
36
40
38
47
51
40
48
57
52
55
52
58
60
62
70
78
84
79
68
79
88
95
94
96
95
89
84
100
91
90
98
103
100
97
106
113
109
105
97
92
90
89
97
82
69
68
59
46
45
44
42
27
35
26
21
16
13
25
16
12
18
5
19
15
10
5
3
0
-1
-2
-1
6
5
7
0
-3
5
6
-1
9
17
6
12
6
-2
-1
2
2
-2
-6
-10
-3
4
2
3
-3
3
-1
6
1
0
-3
10
12
12
1
-2
-5
-4
6
-1
3
13
16
1
-6
-2
-3
-7
-1
-3
2
4
2
2
2
8
3
7
11
6
1
7
4
-2
10
8
-5
3
-3
5
-2
-1
1
2
-6
-3
-1
0
-4
2
3
-1
6
12
16
0
4
7
-3
-5
-2
-4
1
-2
2
4
-9
1
5
5
-6
-4
0
3
1
7
8
8
13
15
12
-8
-10
-6
-5
22
5
-6
-11
6
1
-1
1
0
2
-3
-3
3
6
5
-2
1
7
-2
6
2
22
0
1
0
-1
4
0
-1
4
-5
-12
0
0
-6
-3
-5
-5
0
4
3
-8
-1
0
-8
4
4
3
9
15
11
6
-11
-5
-2
-2
-3
-2
-4
0
-4
-6
-7
-10
-3
2
4
3
-2
2
-3
-1
8
5
2
14
12
14
-4
8
6
12
5
-12
-3
3
4
-5
7
11
5
12
15
7
14
13
17
13
4
18
11
13
16
26
16
14
-13
2
9
-2
-8
-9
-7
-8
-6
-2
-1
-3
-4
-6
-7
0
2
-9
-7
-6
6
2
7
10
-12
-2
-7
-5
-13
-13
-4
-12
-5
-4
0
-12
-7
-14
-20
-16
-19
-22
-12
-14
-11
24
43
67
98
130
170
186
201
184
141
130
115
91
49
46
10
-30
-59
-79
-76
-64
-43
-38
-36
-22
-13
-8
-1
8
-8
3
6
-2
-1
-4
-2
-1
11
2
0
7
10
-1
4
1
-4
5
11
14
12
4
4
11
4
10
6
11
19
16
6
17
8
12
13
11
21
20
21
14
16
18
15
22
33
30
27
27
27
23
27
30
38
25
33
41
43
43
41
38
45
48
43
50
59
60
63
61
69
66
68
66
64
77
81
87
83
92
100
83
89
90
96
102
93
104
107
101
104
98
100
105
100
89
92
96
86
80
74
67
60
62
49
46
44
37
33
38
31
14
14
13
1
10
6
10
8
1
2
1
1
3
3
5
-9
-6
-8
0
-5
-11
-5
-2
-5
-2
1
-1
-3
-3
-7
-2
-6
-3
-15
-11
8
1
-8
-2
4
-2
-1
4
-6
-6
-7
-2
3
-3
2
-12
-3
0
1
3
-7
1
2
-7
-6
-8
-8
-9
1
-3
-1
0
-1
6
1
-5
-4
-8
-7
-4
5
1
-3
-7
-2
-2
3
2
-1
0
-4
-12
0
17
-3
8
0
-7
-4
-2
0
1
-1
2
-6
2
1
-2
3
5
-3
-7
-1
-5
-9
-1
4
-5
-3
1
9
5
6
2
-5
1
0
-3
-1
-4
3
-1
-9
6
8
3
1
2
-5
-7
-1
2
-1
-6
3
-4
1
-3
-5
2
0
-6
-6
-2
-7
-2
2
-2
-5
5
4
-5
-1
0
5
-2
-2
-7
-14
-7
-6
-10
8
2
-2
4
-11
-2
6
10
5
0
2
3
-2
5
2
0
-9
-11
-9
4
6
5
-7
0
-2
-4
-6
-6
-2
-3
-4
3
-1
6
0
-6
-3
12
10
2
-6
11
-10
-3
3
1
10
3
9
12
16
2
15
-11
-8
-1
6
3
-2
-1
2
5
7
3
-4
-4
14
16
8
4
4
1
0
5
4
15
16
9
20
21
16
21
20
12
13
18
26
24
6
16
17
10
4
4
1
14
6
7
-4
-3
-5
-4
1
-6
0
-1
-6
-6
5
18
6
-5
3
-3
-1
-4
-1
-1
0
4
2
10
10
-2
0
-1
-7
1
-12
-2
-4
-1
-1
12
18
37
68
77
102
131
167
176
158
129
101
105
93
60
38
7
-22
-67
-74
-80
-68
-62
-52
-46
-23
-15
-4
-5
6
4
10
2
0
2
10
7
5
0
14
2
6
15
9
14
10
11
13
8
12
15
9
15
13
7
20
21
20
19
26
17
14
14
24
20
28
35
35
14
19
27
27
30
29
30
27
36
26
29
44
36
41
35
41
36
41
39
46
49
54
62
53
53
52
55
59
61
69
71
73
70
77
73
72
79
78
84
85
87
89
87
89
94
95
96
94
102
99
98
96
95
89
94
96
97
89
72
77
76
71
76
58
62
56
51
49
45
39
38
30
36
17
17
19
20
16
9
9
16
12
13
13
7
9
9
10
9
2
-4
7
7
3
11
4
3
8
9
0
2
5
11
8
5
1
3
3
6
6
18
6
12
1
7
9
6
-2
6
-3
12
0
-3
1
10
10
7
4
12
14
14
13
11
13
14
1
5
13
7
0
11
13
0
13
11
11
9
7
6
13
11
11
12
9
10
4
10
8
11
12
6
14
12
10
7
7
5
10
4
-3
9
16
6
2
4
14
14
7
0
3
10
3
5
9
5
9
12
4
1
3
6
6
4
4
6
0
6
1
-1
10
7
-2
1
12
6
9
25
13
16
18
19
3
9
3
8
4
5
2
9
9
8
14
17
23
11
3
19
23
19
23
16
13
15
15
20
22
19
19
12
9
9
2
4
4
1
0
10
8
3
7
-4
-1
-4
-1
2
4
6
12
18
9
1
2
0
1
-4
0
3
-2
2
8
5
-6
-3
11
-1
3
5
-8
-9
-12
-2
4
24
41
62
80
104
126
145
176
155
119
104
107
88
47
36
12
-11
-63
-74
-64
-60
-49
-48
-44
-20
-11
-11
-6
1
8
19
6
2
2
0
6
6
13
9
2
8
12
7
7
12
16
15
13
9
4
10
13
10
17
16
15
11
17
18
28
19
24
25
16
20
19
21
22
28
20
16
22
25
31
23
28
30
29
38
31
31
33
29
32
39
40
43
35
47
51
50
60
50
56
75
61
65
74
66
67
68
80
86
73
90
83
95
96
94
94
98
96
98
101
106
106
112
107
99
98
98
87
94
94
80
81
88
73
56
62
60
45
35
32
39
34
30
22
17
20
14
8
7
9
14
6
12
1
-2
7
3
5
-3
5
0
6
6
0
-2
3
-4
1
-1
-2
-3
4
0
5
2
4
-1
-6
5
0
-5
-2
-13
-8
0
-2
-2
1
0
2
-1
2
-4
-2
-5
7
2
-9
5
-1
-4
-3
-4
-2
3
-3
0
1
-7
-14
-4
7
-6
-8
-6
2
9
-5
-2
-1
1
4
1
2
-6
-17
1
-3
5
-7
-3
-3
13
-4
1
-1
5
-6
-3
-4
-10
-9
-3
-2
-9
2
-4
-6
-7
-2
-2
-3
-2
-15
-9
-4
-6
-8
0
-10
-14
-2
-4
-1
-5
2
-5
-22
-14
-13
-16
-7
-10
-9
-4
2
0
1
-12
-13
-12
-15
-2
-9
-11
-5
-10
-1
-16
-2
-11
-9
-8
-11
0
-11
-7
-7
-11
-2
1
1
-3
6
10
5
-6
-9
4
-6
0
7
13
7
9
14
12
10
12
10
4
12
18
1
3
1
-6
-3
-4
-10
-7
-8
-2
-6
2
-9
-4
0
-18
-18
-19
-9
-16
-10
-12
-10
-12
-11
-9
-16
-10
-7
-18
-16
-15
-14
-10
-12
-11
-12
-15
-4
-11
-25
-16
-23
-25
-29
-22
-21
-5
16
38
59
94
125
155
187
187
151
123
114
106
74
38
17
-13
-40
-79
-82
-66
-67
-64
-57
-37
-24
-17
-9
-9
-5
-13
-9
-11
-10
-6
-5
-8
-1
-1
3
-2
-4
0
-9
-7
-2
5
6
5
-4
5
-1
5
5
12
10
12
-1
9
0
14
4
-1
10
5
1
11
6
8
14
15
7
13
13
12
19
22
28
17
15
18
24
15
17
29
27
38
37
28
33
45
38
39
50
48
51
61
68
62
69
78
78
78
75
73
81
76
75
79
79
81
85
87
94
93
101
100
97
92
97
93
90
92
90
78
81
72
73
63
62
52
45
48
44
29
27
23
26
19
12
7
10
13
9
9
18
12
-1
-3
3
-1
3
-9
-5
-8
-1
-2
2
3
-3
0
-1
0
-10
-6
-14
-6
-8
-1
-2
-6
-9
-8
-5
-3
-5
3
-1
-10
8
-7
-15
-11
-2
-6
-4
-5
2
9
3
-6
-18
-13
-2
-3
4
13
-8
-7
1
-4
-12
-2
3
-8
0
-11
-8
-8
-4
-7
-7
-3
3
7
-1
-7
-4
-12
1
2
-4
-6
0
0
-12
2
2
-3
-9
-3
13
2
1
-8
-15
7
3
-6
-9
-9
-12
-1
0
-10
1
4
-4
-6
0
1
0
-4
-11
-3
2
-7
-9
-8
-7
-14
-10
3
-5
0
-4
-3
0
4
3
-3
0
2
7
-8
7
-3
5
9
11
-12
0
0
2
0
6
8
4
10
13
15
7
3
8
16
31
34
14
9
18
13
5
-1
-4
-11
-1
-5
-6
-11
-12
-14
-4
-12
-8
-8
-3
-2
-9
-10
-1
-8
-8
-6
-12
-14
-11
-11
-12
-10
-15
-13
-8
-5
-9
-11
-1
-3
-7
6
-1
-8
-10
-16
-20
-21
-15
-10
13
27
44
74
99
126
147
174
171
131
113
108
94
67
35
18
-11
-60
-72
-78
-82
-67
-63
-53
-48
-26
-23
-18
-10
-3
-1
-3
1
-3
-6
-8
-5
-1
3
-1
8
1
7
4
7
8
-5
18
11
-2
2
6
5
14
19
7
12
17
9
14
9
12
17
5
8
12
12
12
23
30
21
19
16
12
20
26
27
32
31
25
31
25
29
27
33
35
38
43
47
35
43
46
50
48
58
86
78
68
76
63
60
68
77
78
78
77
89
88
99
94
91
98
93
94
97
89
105
101
106
100
94
95
101
97
86
74
67
63
61
57
58
47
31
38
38
23
24
27
23
18
11
6
7
21
24
5
0
11
21
10
-2
1
-9
-4
-4
-8
-6
1
6
2
4
5
-2
-5
-2
-7
-2
-3
-9
-1
-10
-3
3
5
-8
-6
-2
-4
-8
-3
-5
-4
-3
5
-2
-7
-5
-4
1
-7
1
-2
-9
-1
-5
1
5
-1
0
2
0
-2
-1
0
3
-2
2
1
-8
-2
-6
-2
-13
2
1
5
5
7
12
-10
-4
1
0
-4
-5
-11
-4
-2
2
-10
0
-6
-8
-3
-12
-3
-2
1
-9
8
6
6
-6
-9
-5
-9
2
-8
-8
-9
1
-7
1
-5
-10
0
3
-3
-2
0
-3
-2
-6
2
-1
-1
-1
-6
2
4
4
-3
-7
3
3
7
3
0
14
2
9
14
14
7
5
13
14
19
24
18
20
0
8
12
1
-9
-5
-3
-11
-5
-12
-6
-8
-6
-5
-1
-11
-7
-3
3
-11
-15
-11
-6
-4
7
-2
-22
-21
-19
-15
-3
-8
-6
-6
-5
-2
-15
-16
-12
-4
-9
-3
-17
-17
-26
-11
-31
-35
-20
-2
26
51
83
106
136
178
195
182
142
119
111
99
66
38
20
-21
-73
-87
-79
-62
-46
-51
-53
-32
-24
-13
-4
7
5
-9
-14
-7
-2
-7
-3
1
6
1
1
-9
-8
-5
-5
-3
-1
1
4
1
3
0
11
0
0
-2
6
6
-2
7
14
5
9
3
12
16
17
18
12
14
17
20
26
11
25
24
34
29
23
32
23
19
23
33
29
26
35
36
29
35
44
42
58
50
41
56
57
52
58
66
69
57
62
67
69
76
79
83
98
86
83
93
97
88
98
103
98
88
105
109
78
94
100
86
85
76
81
65
63
63
49
51
41
32
34
37
37
31
25
23
31
25
18
11
10
10
14
3
2
6
12
0
8
9
2
7
8
-1
-2
2
7
0
13
12
-2
1
1
-5
0
6
-5
-1
6
2
8
5
3
5
-6
-9
-5
8
5
15
-3
-1
14
11
8
0
1
-1
-3
1
5
12
10
7
2
1
-8
4
7
6
-3
10
6
0
-2
6
5
12
16
8
7
9
9
9
-4
0
4
9
1
-4
2
8
8
-4
-4
6
7
-1
-6
4
3
16
5
10
11
-9
2
-1
6
7
11
11
3
2
0
-10
2
-3
2
-2
5
9
1
6
-2
-3
8
5
2
5
14
14
1
1
11
13
7
15
-1
5
13
23
2
8
9
7
9
10
9
6
19
18
15
17
23
31
34
23
23
16
23
21
17
17
17
9
8
10
7
-1
-2
2
-7
7
7
0
3
5
5
5
4
-6
-6
1
14
7
6
2
1
4
-2
11
5
1
1
1
3
-2
3
4
2
6
10
4
-3
-5
-12
-9
-13
-24
-6
9
28
56
84
93
130
167
185
178
157
128
113
103
76
53
35
-10
-59
-65
-64
-56
-53
-49
-31
-25
-13
-3
-3
4
3
4
-2
12
12
8
5
10
17
9
11
8
5
20
15
16
12
19
6
5
19
23
20
23
11
15
8
19
11
11
27
22
26
17
22
22
36
21
17
24
37
28
24
25
23
21
35
31
36
35
36
26
44
50
37
39
39
40
43
35
56
57
51
50
51
62
66
65
69
67
76
82
78
77
79
95
98
87
86
98
103
94
103
97
106
104
101
107
103
106
106
93
100
106
99
94
78
71
77
68
64
59
52
49
50
52
34
42
29
19
13
16
17
26
4
16
16
17
10
5
8
11
12
2
-12
11
29
14
11
14
17
11
17
12
0
3
4
2
-2
9
14
6
8
17
6
1
3
6
7
15
10
4
10
5
12
7
4
13
12
2
10
2
14
15
1
2
7
-2
3
11
17
3
19
13
-1
10
13
6
5
2
4
12
7
4
-1
8
13
3
4
12
7
9
1
9
7
6
11
15
17
9
11
28
20
5
14
20
15
13
20
24
15
4
3
7
8
14
9
18
14
20
26
10
8
15
6
10
2
9
7
3
3
2
10
9
2
8
10
22
9
1
2
1
0
7
15
4
5
8
10
-5
-2
12
13
27
15
-4
5
12
2
8
7
4
8
-2
0
4
8
3
22
21
24
13
11
12
20
25
11
12
4
20
14
17
6
20
26
26
28
24
29
29
22
11
17
19
30
35
12
19
5
8
9
3
-3
-10
-8
0
7
2
-6
-3
5
-5
-5
0
-6
-6
7
12
2
-4
-2
5
4
-5
-4
-6
1
-5
6
-8
-5
-3
-9
0
-3
-15
-5
-5
-20
-24
-20
-14
-15
-14
-4
18
52
76
99
132
180
200
189
147
143
120
102
74
49
17
-22
-73
-83
-80
-75
-69
-55
-41
-33
-23
-14
-3
4
0
7
2
2
-9
-9
-5
1
4
-4
-4
-7
-4
-1
2
9
11
5
12
8
-1
1
0
-3
3
9
21
14
6
9
9
8
10
15
18
22
24
25
22
13
15
20
18
20
28
26
29
27
28
26
34
47
41
38
45
41
39
23
31
31
45
46
50
48
56
58
61
71
62
66
63
75
77
79
87
87
99
98
91
94
93
94
103
96
99
106
108
116
110
100
107
105
109
100
96
101
83
85
80
76
67
65
52
48
49
46
43
35
26
12
16
19
20
22
18
4
10
0
17
14
17
15
-6
-3
8
13
5
-3
2
14
6
10
6
11
2
3
8
12
-2
-6
0
-3
1
4
11
14
0
-1
1
1
-1
2
0
-7
-1
10
12
-5
-14
-5
-1
-3
3
1
-2
2
1
0
-1
9
19
14
8
6
-8
-5
-5
6
10
8
1
-1
6
-3
-4
-4
0
0
9
6
11
-5
3
20
6
2
4
0
3
-7
5
5
1
7
14
1
0
4
-4
-7
5
2
9
12
-11
-4
-4
-1
0
-3
1
0
4
-1
-3
4
2
-1
-8
7
-1
-9
-1
1
-4
3
15
3
9
-1
4
5
-5
1
0
9
7
3
3
1
7
-1
8
7
2
5
6
-9
-8
3
-6
9
8
3
3
3
10
10
8
13
14
6
14
4
1
0
4
7
14
24
19
18
16
14
19
20
29
21
21
13
8
6
5
-3
-3
-2
-1
0
-4
2
4
17
17
8
-16
-6
-4
4
-17
-3
-2
-3
3
3
-5
-8
-11
-3
-8
-3
-4
-2
8
8
-4
-8
6
-2
-13
-12
-12
-5
-9
-14
-16
-15
-16
-7
13
30
42
92
117
130
171
187
190
152
146
142
109
61
37
9
-17
-58
-85
-78
-66
-53
-52
-38
-34
-11
-9
-4
7
4
-3
2
3
7
13
5
3
0
1
1
6
4
5
8
17
14
12
16
13
13
14
13
13
21
10
5
11
22
13
20
20
25
24
28
17
16
19
5
24
11
15
37
40
37
46
24
23
24
26
21
30
36
45
42
44
39
50
49
39
41
43
55
54
50
52
54
63
60
58
69
76
84
78
82
82
85
94
89
87
91
94
101
101
109
106
100
107
115
98
110
113
107
104
96
94
85
82
71
73
83
66
49
48
35
34
32
26
14
25
28
20
9
6
7
12
17
12
1
6
9
5
5
2
4
13
2
-4
1
10
7
4
-3
0
4
-3
6
14
-1
-8
-8
-1
1
3
3
2
1
1
-1
-1
-10
-5
-8
5
3
2
-3
-2
5
10
-6
-12
0
1
-5
1
-1
0
-9
-17
-1
1
3
12
7
7
7
0
6
-7
4
0
8
1
-7
-1
3
-9
-10
-3
7
2
5
3
3
0
4
3
-6
-8
8
10
6
3
7
4
-2
5
-1
4
1
5
1
-6
-4
-2
-2
-2
-1
-4
-1
6
0
6
2
-16
-2
-4
-6
4
8
1
8
15
8
-2
1
0
-5
6
9
6
-5
9
2
5
5
5
-1
0
2
0
10
10
10
9
4
15
-3
-5
7
10
11
12
18
16
16
16
19
16
13
17
18
15
19
21
10
16
19
18
3
-6
6
-2
-6
-14
4
0
-4
-6
-4
-5
-5
-1
-2
0
1
-5
-6
-7
-12
-7
-2
-7
7
-4
6
4
-13
14
2
16
-5
-6
-10
-14
-11
-14
-19
-25
-26
-16
-16
-18
10
21
52
89
114
146
184
210
206
180
151
130
104
68
40
15
-12
-65
-78
-73
-68
-55
-52
-39
-31
-17
-8
-5
-7
5
0
-9
-3
-8
-12
1
-7
-2
-3
8
1
5
13
0
1
0
8
9
3
10
-1
10
5
2
7
10
1
15
15
20
6
5
13
13
13
12
8
20
26
24
12
15
15
13
18
30
26
29
45
37
33
29
31
36
27
39
42
45
48
39
47
52
48
47
60
61
52
64
71
78
77
77
82
87
86
77
83
85
88
96
99
101
103
104
110
115
117
120
98
102
102
97
102
95
91
83
81
87
83
63
50
55
47
45
35
32
29
23
16
28
19
19
2
7
4
9
6
12
9
1
1
5
5
3
8
1
3
5
7
-7
-8
0
4
-1
2
2
6
6
-2
-3
9
5
-3
4
-6
-11
-6
4
7
-5
-7
3
-4
-3
3
-6
3
2
8
8
-10
-13
3
9
-1
-1
1
13
13
1
4
3
-5
-1
-7
-1
-1
9
1
1
-3
1
4
7
1
-4
2
7
4
-2
5
-2
4
4
4
6
13
7
4
2
-9
0
-1
4
4
-1
-1
2
12
-2
10
-1
-2
-6
5
6
-9
8
7
4
7
-1
-6
2
1
6
-2
-8
5
0
0
-3
11
10
2
-1
1
7
0
8
7
1
2
1
5
6
18
13
3
1
10
10
3
8
18
21
17
23
28
19
30
20
11
13
21
14
23
26
31
29
16
12
8
12
11
8
5
-8
-5
9
0
1
3
13
4
6
8
1
1
-9
-5
-1
1
4
9
0
6
6
-3
1
5
2
1
2
1
-5
-5
-6
-3
-7
-6
-3
-20
-24
-23
-11
9
43
55
73
117
144
183
216
218
174
160
141
110
75
54
17
-16
-68
-88
-78
-55
-54
-47
-40
-33
-15
8
-1
3
5
7
11
5
-2
-3
9
1
-4
15
0
5
7
-4
1
8
15
27
12
-1
12
23
20
21
18
24
9
17
30
6
16
27
19
19
27
22
25
20
13
26
27
31
32
23
28
37
31
31
25
29
36
32
35
38
41
44
41
48
50
57
50
61
52
52
55
62
71
72
70
76
76
67
84
88
94
105
86
92
100
102
107
109
113
107
112
107
113
117
112
108
118
114
104
105
109
100
92
91
83
78
64
63
58
49
49
40
47
36
29
34
27
21
15
16
16
11
19
11
7
22
21
12
1
3
12
10
14
-2
2
7
1
7
3
-1
8
-1
4
7
5
17
8
4
3
8
10
4
-7
1
5
8
19
14
4
7
23
3
0
8
10
8
11
14
7
6
8
11
7
1
7
7
17
10
6
13
8
0
4
5
5
6
19
14
2
8
2
-1
12
24
11
-1
-5
5
2
3
13
6
11
4
6
14
20
7
-1
6
6
7
7
-1
6
8
11
9
14
11
1
-4
-8
-5
7
7
12
6
6
5
2
4
-3
2
2
13
15
6
0
-5
8
0
3
5
5
7
12
3
6
6
11
3
2
4
13
12
14
19
13
21
16
19
15
9
4
6
-1
-4
-5
10
5
1
-3
-6
-1
3
0
2
-6
-6
-13
-10
-2
-1
-3
-6
-5
-8
-6
-10
-17
-5
-1
3
5
0
-7
-12
-4
-12
-14
-16
-24
-11
-17
-7
3
8
18
29
60
75
99
130
172
194
181
144
135
124
97
71
37
6
-37
-76
-85
-87
-76
-74
-68
-43
-34
-29
-16
-18
-10
2
10
0
4
9
9
1
-12
5
5
1
9
4
12
10
11
7
12
11
8
5
7
11
12
10
9
8
16
18
11
16
22
8
5
24
13
17
28
24
11
14
25
27
22
27
33
22
25
32
25
23
30
33
32
44
51
41
48
41
46
50
50
54
57
57
54
59
60
66
70
79
73
71
77
75
88
84
87
86
93
97
91
88
91
93
99
96
107
96
100
106
102
95
92
91
85
82
76
70
70
71
43
49
40
39
26
25
34
21
22
15
17
19
15
16
7
6
2
11
20
9
3
4
-3
-1
-1
5
8
0
-4
-1
4
2
3
8
-1
-4
1
-6
2
7
-6
-6
-1
6
8
-1
2
3
-5
-8
-7
-14
-6
13
8
9
10
6
1
-6
1
8
4
-3
4
1
10
5
-1
4
2
0
0
1
2
0
5
1
3
7
-4
3
6
7
9
1
9
-3
13
-3
-3
2
4
12
3
5
19
19
10
12
12
6
12
5
9
8
17
14
9
18
13
16
19
23
10
16
10
5
9
9
15
15
11
6
12
2
3
10
-4
4
5
5
3
9
3
-1
1
-4
-5
8
5
3
-18
-15
-3
-9
-5
-3
-7
-6
-8
-14
-13
-2
-2
3
1
-2
-1
-2
-8
-4
-7
-8
-9
0
-3
4
19
27
43
74
88
107
147
174
153
131
101
91
86
67
50
27
-6
-70
-86
-83
-82
-64
-63
-50
-33
-31
-19
-6
8
6
1
4
-2
-2
-1
-3
2
4
0
6
2
4
-4
10
-3
8
12
20
28
13
7
11
6
10
15
6
16
14
11
17
18
17
19
16
12
25
25
28
32
24
27
29
21
22
35
17
23
22
23
36
37
37
44
44
46
45
41
44
48
48
46
48
58
58
62
67
63
69
72
74
82
79
83
79
94
97
101
95
89
92
89
94
94
94
101
102
106
110
104
88
91
92
100
90
84
75
65
65
57
50
48
43
36
43
34
28
20
19
16
16
8
10
13
16
10
12
8
5
12
24
1
-9
1
6
3
4
12
6
-2
-4
4
-1
1
-1
4
-4
-2
8
12
-4
-2
-1
6
-1
0
5
-4
-1
-7
7
3
11
0
2
1
3
6
1
-5
13
2
-2
1
7
7
2
7
4
-2
6
18
2
12
-2
6
3
6
13
5
12
5
3
