-26
-18
16
47
66
55
32
21
-12
-21
-10
-17
-25
4
46
42
5
3
12
-8
-13
12
8
11
29
49
28
15
0
-15
-15
-1
7
24
20
33
40
12
-11
11
-3
-5
19
49
37
23
52
33
19
-12
-15
5
30
35
13
12
24
-3
-9
5
-8
-16
-5
19
27
59
43
30
3
-2
-14
-8
14
23
15
36
47
13
-14
-13
-13
6
7
-7
15
42
26
3
-5
24
25
-19
-22
3
65
71
44
1
-17
-9
-7
-8
-9
6
41
55
32
10
-7
-9
-3
2
38
51
45
34
21
-25
-9
16
-4
-3
30
43
60
57
15
-1
7
11
18
0
41
49
45
33
15
27
9
-29
-9
-1
24
19
26
28
34
31
20
-2
-4
10
14
15
27
32
19
20
-5
-36
-12
11
25
10
45
52
48
21
-18
-55
-12
29
62
54
51
55
40
27
24
6
26
54
69
47
36
13
-20
-34
-40
-86
-102
-92
-83
-51
-58
-62
-69
-80
-78
-70
-55
-36
-12
14
10
12
32
16
24
-5
-15
11
9
19
43
39
12
9
13
12
7
21
7
23
51
35
34
21
3
3
41
42
46
46
56
51
31
26
-5
-10
15
24
58
61
71
44
29
-3
-28
5
73
99
52
39
60
42
25
10
10
4
47
41
55
78
76
62
48
24
13
25
39
66
73
88
78
59
52
43
33
25
40
74
85
107
68
59
58
45
45
46
86
136
112
73
66
54
70
61
20
15
56
85
77
84
76
81
57
35
27
23
15
24
54
50
58
24
5
19
5
-9
31
39
63
72
39
36
-17
-23
-6
-5
16
54
62
84
46
24
-14
2
-9
-27
-13
8
24
39
26
41
33
-7
-33
-3
17
31
17
41
10
-8
-4
10
3
-14
-18
19
47
76
22
-8
-32
-38
13
43
41
27
19
32
41
21
-9
-4
24
18
18
27
37
41
35
27
18
-2
13
-11
-3
10
35
30
27
37
24
2
-11
5
37
40
33
21
9
-3
-21
-13
-2
1
20
43
54
38
21
13
12
2
-19
-6
-3
32
50
52
36
31
18
-28
-53
-17
19
36
66
55
29
28
7
-21
2
19
49
52
31
17
23
-1
9
2
14
33
65
69
75
22
-32
-39
-28
-27
2
13
6
27
22
40
33
10
-4
0
-31
-25
15
20
27
10
26
22
21
-10
16
6
-2
16
33
33
24
-11
4
-17
-10
12
9
26
26
11
42
9
-21
7
3
13
59
54
39
40
40
25
22
-16
-23
-21
-20
-53
-55
-43
-52
-89
-102
-139
-113
-68
-47
-35
-16
-31
-57
-38
-51
-45
-20
8
34
37
21
5
11
19
7
-11
-5
19
44
65
45
12
27
-3
-11
-15
5
40
51
75
76
70
26
14
6
-3
26
9
14
32
32
26
13
4
-7
5
14
39
52
49
64
36
31
36
22
39
43
53
38
35
53
51
27
24
1
18
46
98
56
68
66
57
20
6
-9
40
54
47
59
54
81
88
65
51
33
67
71
92
94
97
85
64
48
31
32
35
56
75
85
79
63
61
50
42
45
56
49
34
18
59
36
39
23
8
11
22
29
63
53
42
27
9
-17
-14
-9
5
26
30
41
22
1
17
30
15
-12
-13
12
10
23
28
2
-21
6
15
11
7
19
48
30
30
7
3
-5
-34
-32
-14
19
40
36
57
44
3
-21
-36
-44
-27
2
15
39
38
5
-13
-7
-15
-17
7
14
14
37
62
30
11
-18
-28
-16
17
31
20
12
42
38
17
-14
6
13
-27
18
21
20
22
21
-4
-14
-16
-18
-6
8
28
26
17
21
29
10
-5
19
12
36
30
15
4
1
-14
-30
-29
-16
-18
16
44
49
35
-3
-13
-31
-28
-23
-21
11
28
50
51
41
5
-22
-25
-10
-6
21
56
56
20
0
-9
0
-10
-22
12
44
50
48
27
14
-6
-1
-16
-14
6
27
61
51
32
49
33
33
3
-24
-12
1
9
58
35
10
19
-18
-26
-12
23
30
6
9
15
12
-6
-19
-28
-9
11
13
19
37
22
15
-13
-11
18
17
17
18
23
37
23
-23
-24
-18
-24
-8
1
15
28
54
86
32
-14
-40
14
43
42
58
65
58
17
-24
-58
-71
-66
-70
-74
-82
-75
-63
-65
-85
-95
-75
-73
-57
-35
-2
19
26
21
-3
-13
-7
2
-6
20
19
29
44
28
28
35
9
-30
-14
33
22
42
40
39
-6
4
-6
0
18
30
42
39
41
31
23
7
-4
5
21
51
48
62
49
41
20
9
18
18
20
43
41
74
85
54
57
17
18
31
16
48
63
78
58
58
39
35
14
16
27
54
60
77
73
74
61
66
38
40
37
72
65
65
49
72
61
32
17
69
95
89
66
89
49
23
11
38
36
43
37
33
67
79
52
28
8
28
15
24
61
40
50
66
46
35
24
10
3
32
35
22
-7
16
41
32
-16
-15
-21
-15
46
43
15
36
38
20
-22
-30
-32
-11
3
16
38
38
21
4
21
36
-9
-23
21
41
26
28
17
5
1
-1
-15
-36
-4
22
38
12
17
15
17
11
-3
-5
-2
23
37
20
20
13
-17
-38
8
-1
4
10
33
28
18
19
26
0
-6
13
19
-3
42
50
20
5
6
-25
-17
-7
6
18
40
41
15
25
7
-33
-1
12
20
12
48
42
26
-11
5
-5
-12
23
34
19
28
32
24
-3
-1
-11
-8
-16
20
30
35
15
10
11
6
-21
16
20
27
21
10
11
2
6
-5
-5
1
3
29
44
30
32
20
5
6
-18
-6
-1
29
43
47
47
42
13
-22
-17
-3
14
23
36
57
30
1
20
1
-23
2
-3
21
28
32
36
4
-11
-26
14
11
2
19
23
52
40
9
-21
-27
-19
-18
-2
13
29
41
46
16
-4
-18
-4
-4
-1
6
28
23
12
-7
-29
-32
6
51
68
73
67
65
41
-1
-1
-55
-43
-27
-14
-24
-33
-65
-109
-117
-101
-99
-87
-71
-41
-22
-8
-14
-16
-51
-34
-31
-4
-24
-8
12
37
70
30
15
0
-15
-9
1
0
23
52
34
25
17
-4
-27
8
15
23
29
41
47
39
18
9
2
22
15
21
26
57
51
32
27
1
-10
8
42
39
56
66
41
22
19
10
0
26
51
57
55
44
45
45
21
1
-31
-43
14
59
85
82
44
20
-9
16
6
34
49
54
72
70
69
41
29
15
23
39
79
105
107
101
51
-4
-14
28
67
51
49
55
84
80
64
36
1
-6
6
40
48
26
67
33
44
48
14
-11
-24
-5
35
23
24
23
36
6
-3
-27
-18
-11
26
25
46
55
16
-1
16
-19
-16
10
5
8
14
15
-8
-22
-4
-7
-24
-1
9
4
39
28
16
0
-18
-40
-29
-23
17
42
49
29
29
-2
-35
-33
-27
-5
28
22
41
41
18
25
11
-12
-18
-5
-8
-6
17
23
20
-2
-15
-41
-33
15
33
16
6
21
31
11
-3
-35
-19
21
53
53
42
29
6
-26
-19
2
19
9
17
23
30
34
13
-6
10
-11
-9
22
43
31
26
0
-24
-15
-37
-7
-3
17
54
49
43
-22
-25
-18
-13
-25
-11
24
42
27
27
21
8
6
-15
-6
-8
11
17
34
4
-40
-25
-19
-22
-11
-18
3
35
82
41
30
12
-7
-31
-22
-4
19
9
37
48
29
11
17
-16
1
9
24
26
53
55
33
2
-8
-7
-1
-14
23
37
42
24
25
7
-23
-8
-21
-35
20
53
42
24
16
-9
-3
-54
-15
0
-10
16
51
38
22
1
-25
-29
-1
4
9
15
36
29
2
-16
-8
16
6
3
6
15
39
24
8
-17
-15
-3
22
12
24
49
58
28
-33
-45
-74
-94
-89
-75
-87
-96
-90
-81
-77
-80
-52
-68
-48
-28
-3
-9
-10
-10
12
6
-8
-32
-1
13
31
18
19
0
-28
-4
5
-2
3
11
5
6
49
39
24
-5
-16
-6
-6
19
45
74
62
29
-24
-18
-13
-9
-11
16
43
65
62
19
11
-2
22
32
-9
-5
44
65
38
16
11
-16
3
24
28
28
27
39
77
48
40
3
-15
7
12
56
68
102
89
80
50
51
53
33
15
13
57
89
57
38
12
30
51
64
37
60
63
72
75
44
34
17
1
46
68
71
89
74
45
34
19
53
46
51
28
12
35
53
46
19
1
-9
0
8
1
12
14
41
23
-1
-26
-20
-13
4
6
8
8
44
58
24
-8
4
-23
-24
-3
32
51
56
30
19
-5
-24
-32
5
37
-2
-9
32
29
-10
-30
-15
13
2
10
22
6
21
20
13
-5
-20
-52
-27
4
26
15
12
32
9
4
-23
-22
-12
3
69
51
27
29
1
-27
-41
-22
-8
8
19
28
20
-4
6
-5
-29
-18
12
34
22
46
24
-1
-14
3
-9
-18
-35
4
38
49
1
29
54
10
-21
-32
-5
5
-6
2
20
18
-7
-27
-16
-10
-20
1
29
38
32
17
-5
-53
-52
-1
13
26
43
104
63
-10
-27
-27
-49
2
9
10
-5
20
32
15
-13
-23
-29
-10
7
15
42
36
17
21
9
10
-18
-16
-30
0
33
73
53
30
1
3
-27
-8
-4
-7
39
78
30
15
11
-7
5
-4
2
24
44
26
25
8
1
3
-8
-26
4
20
17
18
35
13
10
13
1
-1
29
25
19
8
-26
-14
-23
-9
-4
1
23
47
38
29
39
12
-19
-33
-21
-4
9
35
66
45
15
30
9
28
4
3
20
26
41
55
17
-21
-24
-31
-59
-66
-63
-73
-92
-54
-51
-89
-92
-90
-109
-72
-50
-42
-18
17
-12
8
-6
-15
-43
-14
9
34
44
44
45
23
-16
-34
-13
15
42
38
24
54
26
-22
-15
-1
35
25
18
58
57
40
21
23
7
-15
-11
-6
31
42
49
50
33
24
26
-28
-15
-1
48
65
90
38
13
10
27
10
14
26
43
43
83
73
65
35
38
-7
1
41
68
74
73
56
54
13
-15
12
41
50
42
72
116
104
52
31
43
42
52
58
60
76
97
93
68
28
44
32
32
61
82
89
64
58
39
56
39
22
7
25
45
51
56
41
10
23
31
23
37
28
21
7
26
36
14
-14
-24
-21
-16
21
36
35
36
33
15
-12
-2
3
-2
9
22
32
20
22
-2
-9
-21
-18
15
27
48
53
17
13
35
-1
-7
2
17
20
24
40
28
22
1
-8
-20
-1
-1
17
36
47
22
-1
-20
-10
-18
-25
-17
37
36
14
41
41
-16
-18
-25
9
36
30
18
41
24
-5
1
17
20
11
13
22
34
53
25
-3
24
1
-39
-60
3
75
75
46
5
-16
-18
-12
-20
-7
11
36
8
26
42
42
-2
-12
-41
-37
2
18
11
17
36
20
-17
-9
-7
24
-3
-7
17
52
49
14
14
-2
-9
-2
22
2
5
41
30
22
-8
-33
-15
-4
27
40
26
29
27
25
-10
-19
-23
-18
45
66
66
45
20
-9
7
22
19
-20
5
40
47
50
41
6
-32
-51
-25
-14
-2
15
38
52
24
-12
-43
-31
-42
-23
2
21
33
49
10
-11
-26
-45
-17
12
16
5
3
30
15
7
14
24
15
13
31
44
43
53
25
-24
-24
-7
-16
-41
-54
-58
-82
-107
-108
-118
-101
-100
-117
-60
-59
-46
-37
-21
-37
-35
-23
-43
-30
5
16
17
33
20
12
-6
-15
-24
-14
1
27
77
100
69
47
-9
-47
-48
-9
6
24
40
30
30
16
-1
-9
-23
-6
27
17
32
80
42
-8
-14
11
-12
-3
16
28
67
47
11
12
-7
-13
-22
-26
2
73
73
70
59
27
4
-11
-12
35
49
71
85
76
41
22
14
-5
1
47
75
71
54
51
50
25
36
36
24
37
63
68
40
31
34
22
30
58
47
20
63
64
42
57
73
61
31
4
5
17
39
58
59
45
31
9
17
-3
-14
-2
22
-8
11
-13
-24
-15
-4
-18
-42
1
9
21
39
31
4
-10
-26
-39
-33
1
-8
-2
35
53
23
-11
-53
-50
-29
-16
4
13
33
20
1
-14
-29
-23
-37
-38
-14
-6
21
22
-8
-13
-4
-29
-35
-10
0
14
38
17
8
-18
-32
-58
-36
-16
0
-14
22
-12
-14
-2
-15
-77
-47
-8
2
-6
32
11
-15
-22
1
3
-18
-13
17
23
57
22
-20
-34
-21
-59
-30
-9
-16
-22
8
4
-28
-50
-61
-26
5
8
12
-2
5
3
-8
-38
-26
-28
-33
-54
-30
40
74
31
-52
-55
-62
-58
-64
-52
-16
4
4
-13
-21
-27
-49
-71
-47
-9
-11
-9
-11
-11
-18
-32
-40
-41
-31
-20
0
-5
11
4
-59
-46
-40
-49
-20
5
14
9
-45
-27
-48
-53
-48
-41
-25
-15
-14
15
21
-2
-22
-28
-45
-45
-44
-14
23
6
12
-10
-19
-19
-1
-25
-24
-8
11
5
-14
-28
-37
-34
-34
-54
-24
13
2
-4
25
-30
-67
-56
-61
-46
-18
7
-10
-10
-22
-55
-68
-30
-12
-16
-27
-8
-6
24
19
-9
-70
-42
17
-26
-11
26
15
43
37
-12
-38
-34
-60
-41
-35
-32
-52
-74
-73
-101
-119
-149
-160
-131
-110
-76
-88
-64
-59
-68
-69
-51
-57
-29
-21
-9
-6
-1
5
-27
-36
-35
-22
-1
13
-3
18
1
-26
12
-2
-24
-36
-39
-27
-25
27
20
13
-13
-29
-38
-6
8
11
17
22
3
10
10
-8
-17
-22
-17
14
14
9
52
48
14
-2
4
-14
-14
21
40
21
20
10
38
35
-38
-14
10
47
52
38
37
39
11
33
10
4
11
34
52
72
55
44
16
11
7
13
29
68
66
86
65
63
51
28
-1
11
39
67
65
64
48
46
27
4
-13
21
43
71
57
55
54
24
-18
5
-17
-7
16
18
10
29
25
4
-21
-9
-10
-12
-11
6
27
20
13
5
-11
-8
-15
-19
-3
21
7
16
3
-26
-63
-60
17
47
5
-21
-12
48
26
-8
-48
-37
-41
-29
-1
26
27
16
22
24
-19
-42
-32
-17
5
15
18
45
3
-39
-41
-32
-13
-8
13
27
16
29
42
-27
-55
-62
-40
-24
15
15
30
33
7
-40
-1
22
-18
-16
13
19
19
33
10
-20
-13
10
1
-11
1
12
5
16
1
-4
-18
-37
-34
-4
29
44
23
1
4
-23
-44
-41
-2
26
17
18
16
22
10
-11
-26
-16
-10
-12
3
27
45
40
11
-33
-31
-33
-10
-10
-7
4
11
20
14
-7
3
-24
-14
12
2
13
13
11
15
-9
-5
1
-25
-5
33
47
34
17
11
-1
-10
-22
-12
8
4
19
54
31
-7
-23
-25
-22
-12
0
14
28
76
44
13
-10
-9
-9
-5
13
11
-2
29
42
10
-34
-22
-36
-9
20
-5
-10
12
18
-11
-33
-36
-24
-18
-3
16
34
21
22
-38
-58
-43
-37
-7
-41
-4
4
10
-5
-13
-12
-14
-19
-12
-1
14
39
37
24
12
11
7
-16
-37
-44
-37
-73
-68
-75
-103
-146
-167
-137
-119
-122
-126
-66
-18
-64
-96
-95
-98
-75
-65
-42
0
-10
-20
-30
-22
-43
-60
-22
-28
-30
-4
5
-1
-5
-23
0
-32
-24
-20
6
38
43
28
23
-1
-30
-31
-37
-11
11
16
36
24
11
-1
9
-25
-17
26
28
25
32
22
16
-6
-5
-23
-15
12
21
-3
26
58
46
39
16
19
17
16
49
57
45
65
55
17
-1
-25
21
42
41
34
66
86
49
12
4
27
40
58
74
75
80
76
50
46
38
-4
2
32
60
51
49
89
67
64
59
43
45
57
66
40
38
13
-2
-9
1
8
4
13
37
45
32
27
25
-2
-11
-31
-7
22
37
48
45
15
-17
-38
-11
19
15
8
23
37
35
13
-3
0
18
14
-18
3
26
36
16
-5
-32
-21
-24
-22
-17
-8
5
37
18
10
-4
2
-7
14
24
29
36
38
27
20
-29
-11
17
2
15
14
22
22
45
14
-27
-32
-1
-18
-14
20
53
44
25
15
-19
-47
-49
-26
18
13
18
29
35
25
17
14
-12
-17
22
54
32
26
16
31
-11
13
3
11
12
18
14
48
18
11
-20
-5
-22
1
4
8
18
51
27
-19
-17
8
-17
-8
-16
11
26
25
37
20
2
1
-19
-1
15
16
43
13
10
39
21
18
-2
-18
-6
28
31
37
24
25
2
0
-25
-31
1
32
40
35
24
-5
-29
-17
-33
-14
18
60
52
8
20
22
-3
-15
-14
9
35
46
38
36
44
30
5
-11
-9
-27
21
37
34
28
7
-16
-13
7
26
32
25
24
51
59
16
-4
11
-10
-18
-12
37
22
24
13
20
20
-19
-36
-16
-19
22
44
48
13
5
-4
1
-47
-30
-17
23
48
48
33
19
-22
-15
-21
-11
28
51
52
38
28
33
53
15
12
20
-8
3
-16
-3
-35
-83
-108
-116
-117
-109
-98
-84
-47
-20
8
-5
-34
-49
-55
-45
-22
15
26
77
47
42
26
12
-22
-55
-11
16
58
81
62
18
13
7
-8
-3
23
38
43
29
57
39
38
20
-15
-14
13
48
42
26
44
61
67
35
-5
-17
-1
26
61
49
40
24
-4
22
14
26
73
45
32
54
53
18
29
23
27
29
50
71
80
65
52
39
49
44
30
37
59
78
97
107
69
44
46
30
12
40
67
97
96
87
91
83
51
31
40
54
68
72
75
81
50
39
39
47
36
40
60
78
79
80
69
37
44
54
11
13
37
46
32
46
39
-1
-3
-17
-16
2
48
57
57
55
19
-9
-12
-13
31
31
47
26
20
32
31
15
-6
-38
-20
6
31
20
52
77
30
-18
-1
-25
-17
15
11
33
44
24
-1
-4
11
9
0
12
23
24
57
32
12
-16
-13
6
33
39
59
53
48
23
10
7
10
-30
-14
8
48
74
56
33
36
21
-1
-23
-19
-17
61
62
58
32
25
-16
-29
-42
1
28
37
58
53
22
5
26
33
21
-1
6
39
43
53
31
25
15
6
1
5
24
39
50
37
30
17
0
-8
-13
9
30
47
37
29
26
11
-15
1
-19
3
55
39
48
51
46
-15
1
15
11
15
10
29
64
45
18
-1
-12
-39
5
24
54
40
36
23
30
6
-9
-17
23
45
62
48
27
6
9
0
9
-34
-32
0
31
52
53
27
15
5
-4
-7
23
40
52
47
50
38
17
6
8
2
2
25
68
64
52
17
9
12
12
-15
-11
30
47
41
32
37
14
-7
-31
-16
0
17
33
16
20
18
3
0
4
1
-7
12
33
47
62
34
4
-23
-17
-13
-9
5
9
25
69
60
13
-17
1
-14
-1
25
75
72
48
56
25
-16
-54
-43
-34
-14
-30
-45
-79
-84
-66
-112
-118
-96
-104
-52
-34
-6
-11
-18
7
-3
-24
-16
0
17
10
28
38
36
1
4
-7
-9
8
34
35
29
38
30
26
37
-2
-2
13
52
51
8
13
35
50
10
15
24
7
31
28
52
39
24
57
50
6
2
2
23
49
49
44
28
17
12
35
29
40
55
34
37
75
34
42
13
-8
30
42
52
61
79
74
58
41
41
28
24
55
65
77
104
96
83
65
55
4
29
70
96
71
80
73
69
73
78
38
40
64
74
63
70
58
67
53
44
12
17
9
22
46
64
61
44
-2
34
9
23
64
64
32
30
1
-35
-27
-19
-5
-9
9
39
46
66
53
23
-30
-29
-8
-10
-1
6
24
42
49
29
-8
-2
-7
-13
18
71
70
30
26
27
13
-2
-10
-13
0
48
79
35
35
22
19
-31
-19
-32
0
45
40
40
17
9
-19
-1
-1
5
19
19
36
33
34
21
8
-6
15
45
56
59
59
40
26
26
-5
-10
24
61
35
39
34
22
4
16
-9
-15
-29
-16
30
53
43
23
30
12
25
0
-3
5
44
47
48
39
7
-9
9
-22
-6
21
42
47
69
59
41
-10
-14
-26
4
26
35
13
34
44
12
11
-5
-27
8
37
36
23
34
39
37
-2
2
-6
-18
27
46
42
26
27
15
9
19
15
22
37
22
36
19
10
27
17
-20
-57
3
30
54
68
53
42
21
0
-6
7
13
53
37
30
63
44
12
10
17
10
10
50
88
55
35
41
12
-7
-10
-3
13
12
35
51
42
44
16
-3
19
-6
-12
11
36
38
39
35
44
23
-11
4
30
36
66
47
36
1
-13
-31
-28
-19
28
38
38
56
30
45
38
24
7
7
33
74
98
91
27
-26
-56
-61
-69
-52
-59
-78
-70
-56
-51
-53
-59
-70
-74
-67
-33
-16
-16
32
56
9
-35
-26
-19
-4
2
12
24
53
39
39
47
23
3
10
29
53
63
63
53
7
1
5
2
6
17
71
70
78
76
34
-22
5
-2
-17
-4
17
48
38
12
-10
-24
-41
-70
-65
-53
-97
-80
-60
-38
-3
-20
-43
-27
-27
-14
18
20
46
5
-8
-27
-18
5
17
21
30
31
64
49
16
13
-4
15
38
44
53
65
48
59
45
23
29
54
59
66
72
53
57
73
65
56
45
47
68
68
78
80
69
67
41
24
-17
-26
-9
10
28
31
42
49
41
17
-2
6
-3
18
12
7
36
34
32
17
-17
-8
35
39
35
31
32
18
-2
18
-19
9
10
11
23
15
19
14
-14
-12
-16
-19
-7
-4
-19
2
27
44
36
5
-28
-24
-26
15
30
64
45
23
1
1
13
0
-12
-11
31
42
25
17
21
14
-18
-25
6
19
40
17
17
2
1
22
-14
-15
3
23
17
16
38
48
16
1
-13
-39
-5
65
83
43
29
21
-19
-17
-13
15
19
17
29
46
30
32
25
17
-15
3
-9
-3
15
15
20
10
0
-3
3
31
27
44
50
38
19
4
-24
-7
10
13
17
32
56
33
21
26
6
0
-1
0
15
24
42
36
53
56
25
-26
-27
0
40
36
29
10
41
45
4
-24
11
0
11
17
43
41
32
13
10
1
-20
6
14
18
36
27
32
10
-13
-11
1
3
22
23
31
21
34
58
-3
-30
-6
-12
-1
37
61
44
5
2
-2
-8
35
2
43
46
30
34
42
26
37
10
1
7
3
-12
9
-32
-38
-73
-76
-71
-75
-86
-63
-49
-35
-41
-24
-38
-81
-59
-31
-33
-13
48
62
43
11
-7
-15
-36
-28
6
62
39
38
53
36
-12
-6
10
17
13
42
44
49
36
25
20
12
14
36
33
26
33
45
36
2
10
21
14
21
34
42
56
46
67
40
-17
-14
8
37
36
29
78
74
52
31
19
20
16
34
50
34
65
78
54
55
72
28
23
46
80
79
32
58
85
63
29
4
34
55
58
63
83
101
116
106
56
36
20
37
86
83
61
70
71
67
56
11
43
47
60
78
105
90
69
44
22
-1
40
13
9
-2
40
60
47
23
12
-8
3
22
39
35
44
42
-8
-13
3
-14
2
19
34
29
38
33
28
20
19
-19
-9
28
37
11
31
26
21
-24
-34
-32
-25
17
31
46
41
42
32
34
10
-12
-36
-21
12
21
53
41
10
1
-15
-37
-16
2
19
20
69
56
34
5
-12
-13
0
6
-1
23
58
50
14
0
-19
0
-4
18
30
41
38
17
24
27
16
-23
9
19
36
55
47
45
13
-33
-9
-10
12
-9
13
29
64
59
14
-7
-32
-7
19
32
36
32
23
30
30
-17
-24
-6
31
45
36
32
30
40
29
9
-1
9
8
10
48
52
62
45
17
-9
-3
21
12
13
24
7
52
32
29
25
-4
-27
7
35
59
78
44
16
21
-9
-5
1
24
30
27
56
52
34
38
3
-2
11
20
28
12
47
45
20
-21
-8
-18
-13
-4
14
12
22
41
7
-14
-9
-2
12
7
26
38
42
30
28
-6
-11
9
21
27
44
53
58
48
55
24
19
2
-27
-51
-40
-27
-11
-19
-49
-95
-94
-110
-95
-47
-21
-23
-30
3
-21
-17
-32
-23
3
25
17
24
34
31
29
18
8
-12
-12
19
43
45
43
44
23
8
-13
15
48
76
69
76
80
48
3
-7
7
-6
-11
19
46
58
66
48
24
13
6
0
13
24
43
70
64
52
27
6
9
22
37
49
54
72
76
61
64
45
43
16
-9
6
42
87
92
45
33
36
24
48
64
92
77
71
70
55
53
62
30
31
58
84
74
85
87
81
60
53
44
57
60
64
95
124
68
44
16
1
4
50
85
91
49
56
61
44
42
26
-2
0
35
32
14
56
46
40
2
5
1
3
19
65
53
35
12
37
-3
5
12
42
16
15
16
63
55
12
-13
-10
-9
12
6
10
33
49
50
16
-4
-20
10
4
-3
26
43
35
17
-9
-2
2
-20
5
21
31
56
52
3
-21
-10
17
7
14
14
28
47
49
52
11
-1
-15
-23
4
26
22
29
20
19
9
-5
-11
-9
-8
14
33
23
50
52
25
12
-14
-8
-3
18
30
59
55
31
-9
-8
12
-2
28
30
35
59
44
22
-20
-15
12
17
15
30
43
49
38
21
14
20
-5
-14
18
49
30
38
32
25
-7
7
-19
-25
7
30
45
26
33
-2
-13
24
-10
10
40
50
34
6
-15
14
-3
-15
-12
31
44
23
20
39
17
27
22
32
26
16
36
35
37
69
55
22
-7
6
32
-15
-7
24
51
54
23
-4
-8
-22
-13
-6
-6
30
18
31
30
18
3
-13
-4
10
-3
28
59
39
16
-1
-16
-9
-6
-6
33
58
59
58
34
21
8
-26
-52
-26
22
41
67
71
38
44
22
7
-7
-10
-23
-39
-29
-36
-55
-76
-89
-83
-98
-75
-65
-45
-37
-19
-26
-13
-20
-28
-10
8
44
47
63
26
4
11
6
-19
12
4
11
26
32
10
2
13
8
5
3
-26
41
70
55
33
34
34
23
-4
-1
20
36
35
34
44
57
58
38
-16
-2
26
50
58
62
46
34
23
8
-14
13
7
35
37
85
63
69
47
29
-19
-14
6
39
59
55
75
49
31
20
24
36
27
48
88
92
68
45
70
78
40
34
38
69
88
86
66
51
19
-3
-6
54
98
90
105
105
54
57
27
12
-10
71
27
31
53
46
55
39
31
16
3
-5
20
47
70
63
25
-3
8
14
19
0
3
20
19
36
5
-10
-29
-8
-1
-5
13
29
20
29
35
8
-25
-22
-2
-11
5
31
25
27
36
34
14
5
2
0
-4
8
28
35
14
-35
-28
-18
-5
-15
1
14
42
44
16
10
25
10
-24
-23
13
4
23
31
35
11
-6
-34
-8
29
42
23
26
26
31
29
-8
-19
-14
-6
16
27
46
37
33
-11
-32
-24
-23
-9
4
34
53
6
11
17
24
-16
-17
-4
29
30
40
53
-4
-19
-2
-18
-15
-1
21
25
37
46
31
-5
-14
-23
8
-2
14
15
38
29
30
4
-35
-12
-6
16
36
17
53
11
-26
-27
-18
-16
-6
-6
21
34
38
33
1
-16
-14
11
10
6
13
19
52
16
19
20
19
-11
-39
21
39
66
49
44
42
18
13
-15
-7
-9
18
29
29
13
-3
-8
-14
-33
-11
4
23
29
31
14
-32
-22
-28
-15
2
34
9
39
30
12
12
8
10
3
-18
0
7
32
54
24
-19
-27
1
-6
8
37
43
84
60
27
0
21
0
-27
-23
0
0
-8
-11
-77
-67
-77
-126
-138
-129
-85
-34
-38
-19
-45
-59
-29
-23
-9
-18
1
2
49
41
22
11
-29
-13
-21
2
24
19
37
43
34
21
-6
-24
-4
26
34
38
43
59
21
-26
-28
-31
-10
30
35
56
49
47
41
7
-20
-5
26
26
38
42
40
56
35
20
19
13
27
41
45
49
57
42
23
10
4
-1
9
18
38
52
50
61
49
29
27
18
12
21
68
83
97
90
55
41
33
-23
0
60
104
103
84
60
47
52
28
33
55
64
96
89
65
43
47
43
31
16
16
44
66
73
56
32
21
14
-3
10
-4
-15
23
52
44
20
33
64
28
5
-2
13
-2
14
46
30
13
-13
-12
15
18
28
9
15
34
2
-15
-19
-22
-34
-8
25
50
48
2
-7
-27
-25
-3
-13
3
8
29
63
49
35
-3
-44
-22
18
3
10
19
25
30
-2
-8
-23
-5
41
12
19
26
30
22
4
-20
-9
-24
-15
-2
27
17
39
34
14
1
-24
-36
-17
22
40
41
49
50
-16
-25
12
0
-12
-9
7
6
48
39
14
4
6
-21
6
2
9
26
21
31
19
12
-9
-19
18
11
36
49
51
9
-24
-42
-24
-5
4
9
26
14
22
35
11
-6
-2
-9
18
39
18
-3
14
39
12
-19
2
-20
-13
9
20
39
27
20
1
-13
-11
-9
6
10
29
35
25
31
26
-8
-49
-14
16
34
26
27
15
17
-11
-11
7
22
-1
26
39
50
41
26
1
-19
-13
13
26
18
15
47
40
42
16
-10
-43
-16
0
18
38
53
28
8
-21
-18
-17
-30
-2
59
43
26
25
-15
-5
-4
-17
-5
5
26
2
14
17
-3
-5
-6
-36
5
32
41
47
49
49
43
14
17
-6
32
36
32
13
0
-29
-69
-63
-74
-98
-123
-96
-33
-59
-91
-80
-74
-64
-52
-50
-43
-10
5
11
24
47
9
-17
-16
-15
-10
15
10
41
65
13
0
-5
-4
-11
-6
28
51
47
28
20
-4
-16
-7
20
7
3
42
54
53
24
18
5
-16
-5
22
27
36
41
23
33
13
1
3
-13
18
53
41
32
35
40
8
11
1
23
43
61
57
52
48
18
11
50
24
4
18
56
65
81
85
72
39
36
22
34
32
72
85
76
45
43
43
41
28
30
42
79
72
87
82
72
30
8
35
47
35
33
66
69
53
50
12
1
16
44
30
45
49
48
39
32
2
-5
-14
-8
-6
33
33
58
28
27
19
0
-18
-5
-6
28
18
16
16
-10
-24
-26
-25
-20
8
53
70
44
15
6
24
13
-37
-3
23
31
18
20
18
6
-18
-10
-16
10
17
28
48
17
9
-17
-11
-15
-14
-14
13
35
28
12
2
11
22
6
-27
-15
25
29
28
28
23
16
-8
-21
-8
-3
21
47
57
63
43
30
-1
-40
-26
-1
31
15
43
43
14
-3
-5
-23
-31
-14
3
31
46
34
25
-7
2
-18
-11
5
32
9
14
27
19
12
4
-13
-13
-1
21
38
45
34
12
-1
-7
-25
-12
-14
22
48
69
57
15
-1
-15
-4
-6
0
9
22
52
35
5
-25
-19
-10
-18
16
27
8
31
37
12
-19
-8
-16
-17
-4
11
27
42
27
16
-13
-1
-1
-5
4
41
62
55
30
12
-13
-4
4
-11
20
51
30
42
41
39
53
16
-24
-11
24
15
18
21
9
-2
-12
-41
-23
-13
12
32
42
72
25
-16
-3
-15
-24
1
12
31
21
52
59
33
0
-19
-17
-11
-6
16
40
41
28
3
15
13
-16
-30
-2
8
19
40
46
33
7
-16
7
53
52
24
32
13
-26
-52
-80
-91
-97
-106
-100
-86
-81
-59
-67
-46
-22
-49
-42
-25
-3
15
26
45
23
-1
-13
-43
-39
4
20
32
52
34
19
2
6
-6
1
18
15
27
50
75
41
17
14
0
-10
27
40
30
48
43
45
24
-8
-22
-7
19
56
60
50
40
42
33
19
-21
12
62
34
23
76
70
40
-7
7
-8
13
22
50
78
52
92
60
10
-3
-15
19
39
58
52
55
28
16
31
20
17
24
31
49
54
72
64
43
39
32
23
1
37
71
100
111
119
64
19
28
6
24
32
58
58
59
53
52
22
1
21
24
31
29
36
36
31
20
5
-40
-25
-12
22
37
50
44
12
20
19
-13
-34
-7
38
68
53
39
-1
-23
-24
-22
-3
-15
7
10
34
46
26
3
-14
-24
-20
10
35
29
14
22
1
-9
-1
-2
1
-14
8
31
59
26
5
11
-16
-12
1
5
19
32
31
10
18
-9
-1
19
25
16
16
-1
11
23
17
-1
-5
8
18
36
32
31
35
22
12
3
13
-13
-18
23
47
39
32
33
8
-23
6
12
11
17
19
21
18
0
7
41
12
-37
-28
25
52
30
34
9
-41
-5
9
-32
-16
31
53
49
35
26
28
-7
-2
13
-7
-3
31
32
24
22
14
-3
3
-4
7
14
33
18
43
48
36
-13
-36
-6
-2
-25
-8
47
59
42
12
-19
-24
-4
12
36
35
42
20
24
25
-3
-25
-19
7
33
35
24
17
24
33
11
-14
-12
21
38
19
41
62
42
3
9
-8
20
24
37
54
45
12
6
-5
12
-12
-10
-9
6
12
25
57
33
-21
8
-3
12
15
24
43
51
39
23
14
-2
-10
-8
16
27
44
61
50
-6
-13
2
-55
-23
21
33
41
46
59
28
19
6
3
0
46
67
18
-3
-33
-41
-63
-58
-91
-73
-77
-81
-64
-60
-58
-71
-58
-64
-50
-17
-17
9
10
21
23
-11
8
6
7
21
9
18
14
46
37
30
18
6
4
7
28
12
24
44
34
16
11
-4
10
28
42
52
60
64
33
-2
-1
18
9
4
44
45
38
36
53
21
-6
-14
8
46
48
39
63
72
45
47
15
-2
19
38
58
48
62
56
68
54
26
13
39
42
72
71
90
69
60
58
37
30
50
35
44
48
98
114
73
57
38
41
50
70
96
68
75
82
70
28
27
27
62
60
61
59
87
81
67
37
30
14
2
1
28
54
78
42
10
17
9
12
25
34
13
23
34
36
35
13
-8
-11
5
29
11
12
25
59
13
3
-13
-16
-7
-6
15
16
16
19
5
-13
0
21
33
21
32
22
37
47
18
9
-9
-23
-34
-32
-10
41
49
36
27
2
7
-17
0
27
16
17
26
12
9
19
24
5
0
14
45
33
27
32
8
-3
-13
-8
7
28
35
29
37
38
20
-6
-18
-10
-1
44
54
35
23
17
12
12
2
-25
-35
23
30
64
55
26
-25
3
-1
6
7
37
21
18
19
12
-3
1
-6
6
12
22
32
42
28
37
17
1
2
-14
37
28
30
40
30
25
-23
-3
-16
-11
-1
26
41
53
45
5
-1
-11
-18
1
5
32
34
60
45
28
1
-3
0
13
-1
7
31
31
16
14
41
11
-26
-8
11
23
23
49
44
23
20
4
-24
-23
0
37
53
80
55
32
17
4
-7
0
-8
24
57
67
49
32
25
29
0
1
-4
26
29
37
15
16
-2
-20
-4
12
-4
53
57
12
-4
15
11
-24
-32
-8
35
47
51
40
21
-9
-5
-6
-9
7
45
72
67
55
31
20
-7
2
18
35
56
57
45
26
1
-50
-65
-77
-113
-117
-112
-84
-33
-47
-59
-61
-57
-60
-47
-31
3
25
37
16
12
-7
-15
-29
0
20
29
35
22
35
68
35
19
6
-5
2
21
58
78
58
43
27
4
-23
-4
17
41
51
41
17
18
33
38
-13
18
30
43
50
57
44
30
13
5
2
3
32
44
61
67
64
55
54
52
38
14
23
59
67
61
53
31
13
12
33
19
48
67
61
78
60
36
36
28
42
41
62
66
75
76
99
84
47
33
68
59
56
67
101
98
74
59
24
37
37
25
30
63
62
88
84
40
9
-15
13
32
61
65
44
59
41
43
9
6
-12
-9
24
44
59
38
17
11
7
0
13
0
20
34
44
30
3
17
-5
-8
-2
-17
8
10
13
21
10
6
17
-12
-14
12
25
30
66
72
24
-12
9
-6
4
10
28
15
24
10
40
16
-5
-13
3
37
55
39
47
4
-20
-12
-19
-23
-2
2
29
22
31
40
19
-2
-13
-19
4
45
42
44
51
29
27
11
9
6
-10
-10
34
56
69
58
16
7
-4
1
9
40
29
22
24
27
45
7
-4
2
6
19
27
27
32
23
22
-11
-29
0
13
-1
22
15
56
42
36
8
5
-9
24
19
29
33
44
36
27
0
-27
-8
-11
40
45
69
34
29
-1
-9
-12
2
4
5
16
28
28
66
34
-2
-31
-8
-3
11
10
9
24
40
14
8
33
26
3
1
45
55
51
-12
-19
-10
10
-13
4
16
41
53
41
50
5
-5
-17
-9
6
38
69
62
67
21
9
-6
1
8
10
29
20
42
53
36
-7
5
3
27
17
10
28
43
42
12
-17
-33
-33
12
20
32
22
41
50
7
-15
6
-2
-22
5
37
29
55
50
30
23
17
11
27
33
61
65
60
37
-16
-31
-59
-95
-75
-69
-95
-83
-80
-83
-54
-77
-67
-45
-27
-8
-8
-23
5
16
11
15
-6
-29
-29
5
23
56
64
37
27
17
2
-15
-10
6
26
57
50
44
17
19
27
20
-3
15
68
76
55
57
26
14
-7
-6
-17
10
30
62
70
62
37
12
6
11
27
49
53
47
63
51
25
39
22
-1
1
40
50
73
87
49
37
38
35
37
33
54
72
69
72
80
26
10
40
62
89
94
36
77
70
57
72
75
39
34
70
67
69
91
78
56
51
51
27
40
61
66
73
80
82
54
25
14
-9
43
28
47
60
38
35
51
35
40
10
-20
9
34
7
47
18
17
19
30
17
-7
9
37
48
55
35
21
-19
-42
-58
-25
26
27
26
61
51
30
-3
-12
-23
-11
22
34
60
49
29
3
-34
-20
-27
3
27
38
21
48
50
14
-2
-1
-5
-17
11
14
25
55
48
-3
-3
-1
1
28
22
18
20
12
18
9
18
1
-22
11
16
27
53
37
66
36
-1
-33
-11
7
25
32
40
46
37
21
-14
2
22
0
-6
25
57
41
13
28
-11
-15
-11
3
17
21
32
42
17
13
8
-14
-31
6
75
83
22
2
7
-20
1
-6
-2
1
15
41
48
49
51
-4
-3
-15
-27
-3
24
47
35
10
17
25
-1
-47
-8
-7
0
19
59
55
21
-29
-13
20
25
17
20
12
44
35
33
23
5
-8
-4
13
30
29
32
23
13
-33
-20
-8
17
8
44
44
39
43
44
25
7
-5
-11
16
17
14
41
20
28
23
-10
5
24
15
29
63
56
38
8
14
1
-52
-46
-21
5
19
31
27
5
-8
-2
-1
-9
-20
11
42
59
36
19
6
-9
-3
4
32
38
46
60
75
39
-14
7
26
34
58
26
1
-29
-39
-65
-77
-87
-89
-82
-98
-96
-76
-54
-81
-99
-60
-23
-26
-26
-12
8
33
16
10
8
-3
-16
-5
-1
28
45
51
49
35
14
-6
-8
37
48
70
56
49
28
8
-7
-26
-30
0
8
36
58
71
41
18
24
35
-3
10
6
27
51
74
53
59
31
4
-2
22
30
37
29
67
59
56
51
27
-1
26
61
63
83
82
25
25
11
16
17
44
48
58
49
69
62
43
60
87
43
23
59
74
86
86
93
64
45
38
26
49
80
81
102
100
78
70
54
39
27
48
69
88
69
73
61
27
16
14
4
-11
19
42
78
55
20
10
-5
-4
8
16
26
33
26
38
25
33
20
7
7
27
23
19
49
32
19
18
2
-29
-21
5
31
5
20
22
26
28
10
11
-5
-9
-8
21
37
37
28
0
-20
-19
-14
13
37
22
31
53
17
7
3
5
17
10
17
37
74
64
44
-40
-49
-29
-1
-10
0
26
34
36
12
14
13
-21
-2
31
48
3
14
24
22
1
26
18
-2
12
33
43
39
23
17
-13
4
4
3
16
36
60
63
42
-12
-26
-26
-38
-26
-8
35
63
56
36
20
-26
-13
-18
-16
20
30
31
31
32
31
20
11
-5
-11
4
32
54
55
21
3
-5
2
-2
10
43
56
27
14
29
-41
-42
-24
3
23
19
45
56
24
23
18
2
4
-13
15
33
31
27
44
48
19
21
18
-7
6
38
44
38
58
45
11
12
4
-17
-30
23
42
54
40
1
5
-3
-16
4
9
59
43
40
13
32
36
12
-23
-12
-2
-15
12
48
52
18
-11
-17
-9
6
35
53
36
49
17
12
-23
-5
28
43
17
0
31
75
56
58
73
56
0
-21
-49
-16
-11
-23
-49
-93
-117
-82
-108
-103
-102
-50
-56
-38
-34
-28
-29
-24
-25
-21
13
50
41
51
48
34
-7
-18
3
-1
31
51
27
55
83
62
18
-9
-16
-18
8
25
51
69
44
23
23
2
-14
0
27
33
58
57
32
14
19
15
23
19
43
38
47
63
73
56
18
18
20
35
39
68
85
83
82
58
20
-4
8
14
48
58
65
61
44
47
39
25
28
58
80
74
70
90
85
56
62
46
43
40
54
108
110
105
95
59
52
46
56
71
72
79
100
96
79
45
18
-1
40
68
75
37
54
91
83
47
-1
-22
20
27
24
44
59
58
48
-10
8
41
24
2
7
24
44
31
30
-3
11
-16
-5
-4
26
29
44
14
7
4
-4
-16
2
9
29
49
52
15
7
26
8
-1
-12
2
15
18
45
30
28
1
2
-6
3
19
47
10
18
20
-7
3
25
-24
-23
-7
22
8
42
49
39
32
-12
-29
7
34
45
35
41
38
16
1
-15
-22
-5
27
58
69
68
33
13
-10
-38
-14
13
28
20
19
14
25
26
15
-6
-15
1
12
40
34
24
45
38
-6
-35
-4
5
25
49
45
43
17
16
29
9
-20
-14
8
28
38
24
30
30
34
3
-19
-12
44
35
25
21
16
-5
-10
-18
3
28
42
42
42
33
30
29
22
-14
-9
-3
54
95
70
58
51
-2
-38
-13
26
16
-1
13
54
50
36
-1
-11
-26
-1
14
50
55
60
24
3
-24
-6
-9
-4
-11
9
3
49
33
31
9
-8
7
28
30
40
28
35
40
24
-24
-12
-22
7
62
41
45
59
53
51
44
26
-19
-16
5
-1
-18
-20
-53
-66
-103
-109
-110
-119
-87
-71
-41
-10
-6
-34
-25
-22
-30
-10
-2
31
33
41
0
-11
12
2
6
4
27
35
40
55
46
33
12
-9
-6
13
20
55
51
65
57
33
34
20
0
-7
7
42
61
53
46
19
-1
18
-3
-12
-4
69
66
52
71
53
19
16
50
37
33
49
72
61
43
37
13
8
13
24
66
84
85
84
67
64
32
17
22
48
74
73
71
88
83
43
32
33
47
64
106
88
95
85
90
58
30
23
59
61
56
87
117
109
86
35
77
59
13
7
57
72
80
68
62
48
29
-15
13
33
22
22
42
50
41
8
-6
3
16
29
21
15
21
17
28
-2
2
6
9
15
36
24
35
24
33
15
4
3
14
22
58
30
37
52
18
-26
8
1
-41
1
16
22
35
35
25
7
-23
-41
-16
24
51
55
56
38
32
24
-19
-25
-19
8
38
66
45
36
11
-2
4
9
21
39
35
45
57
47
12
-5
-15
-22
-6
27
40
62
44
31
4
-16
-31
-1
28
32
26
34
37
46
33
2
-9
13
29
38
40
43
31
26
7
7
-2
11
17
40
48
69
54
41
5
-19
-30
-5
10
34
43
61
44
20
20
20
6
-8
-12
30
46
51
57
37
5
14
-3
-18
-4
15
49
72
62
30
-9
2
6
25
50
57
48
46
60
33
-10
12
18
9
1
36
45
56
34
40
31
13
24
13
17
50
51
37
27
35
22
8
-9
1
-9
21
54
61
52
38
30
17
18
33
33
35
39
25
20
-12
3
22
9
11
49
71
60
65
59
36
32
-32
-43
-22
2
25
54
75
62
31
37
31
56
43
44
55
54
16
-14
-28
-60
-54
-58
-70
-81
-89
-57
-44
-33
-51
-59
-60
-47
-18
0
43
69
55
14
19
13
-28
-23
17
27
29
63
58
62
38
-4
-21
17
22
39
47
52
46
50
26
17
12
39
55
50
34
63
62
60
39
28
15
17
26
48
65
64
34
47
33
21
24
45
65
51
39
61
57
31
34
35
7
17
30
83
97
82
71
76
65
67
37
26
51
88
90
102
85
57
36
81
73
66
44
66
88
87
76
72
47
51
58
60
62
74
80
103
102
72
56
34
34
74
79
73
98
107
73
48
41
55
16
15
35
73
90
57
23
32
24
6
-8
4
44
59
59
58
43
23
22
2
7
10
38
31
30
72
45
6
-6
-12
48
40
17
24
43
53
23
17
15
-10
-7
-7
23
45
56
82
44
4
-12
1
11
26
35
20
30
32
26
21
20
10
6
46
58
26
55
52
39
20
28
33
20
12
-9
-1
7
46
51
15
5
-3
9
18
32
24
51
70
44
2
4
22
17
0
23
50
56
21
23
31
33
10
11
30
43
56
80
51
22
19
23
-9
31
16
39
14
52
38
22
-8
-7
-9
13
31
29
26
63
30
24
2
-3
9
21
28
27
45
35
36
48
-8
-10
20
17
23
26
51
79
67
49
6
-14
-19
8
35
32
51
67
51
8
15
-9
-13
-7
20
30
44
48
45
18
14
19
10
23
21
57
89
66
74
62
19
-17
-1
12
41
32
32
39
23
3
-3
-4
-12
11
32
32
41
41
21
34
28
4
-23
-10
36
24
52
58
33
10
9
4
15
33
55
63
19
-1
33
35
29
6
12
18
46
43
84
77
56
24
-26
-67
-70
-56
-37
-41
-38
-74
-87
-82
-56
-79
-61
-44
-37
-30
2
11
19
-15
-18
-45
-21
11
49
78
90
30
17
15
23
-3
-9
17
59
53
56
58
25
10
29
-3
-17
34
55
47
60
24
42
49
20
10
27
35
36
36
40
52
55
39
25
33
10
28
37
65
55
63
39
20
24
15
64
81
76
84
83
57
23
17
8
14
32
63
84
84
100
89
56
9
4
47
62
68
81
82
82
89
71
37
23
37
63
70
86
123
107
82
80
63
46
56
62
81
75
90
67
81
53
44
32
46
53
51
53
59
57
74
43
20
-8
-42
-12
51
61
44
49
36
-1
-3
0
8
4
15
26
51
53
72
43
13
-10
-2
18
36
40
32
31
30
13
4
20
-8
0
25
64
35
32
17
10
4
9
6
8
31
27
42
24
-7
-21
-1
5
8
12
54
46
55
33
28
0
1
-2
-1
29
34
20
46
43
41
24
22
-17
-16
20
38
35
51
36
23
13
29
-17
-28
35
47
44
54
55
-6
-15
-3
-21
8
26
39
57
51
47
26
20
0
2
5
24
23
34
51
25
4
-9
7
11
10
16
43
46
65
47
-1
-1
-18
-16
-14
36
45
53
60
31
7
-5
-23
1
0
27
27
38
38
36
7
5
3
-11
-5
41
65
66
68
24
13
38
-2
-38
-10
49
51
60
50
26
14
14
-12
4
10
32
28
19
48
17
6
8
2
11
15
59
58
62
46
27
14
26
-4
-19
30
49
34
41
44
29
16
7
-7
-2
15
17
16
65
69
17
-24
-11
-15
-19
13
30
23
36
31
46
23
-5
-7
0
9
38
22
53
42
16
-3
20
40
30
50
72
60
68
63
36
22
10
7
-69
-41
-33
-20
-27
-63
-87
-103
-123
-91
-42
-34
-23
-31
-5
-19
-13
-5
-34
-2
6
2
24
52
79
44
13
-1
-20
-14
2
38
51
49
34
38
36
27
30
33
19
49
51
48
50
45
51
27
-11
-3
-16
11
41
52
58
49
26
18
13
24
49
43
54
57
59
55
28
31
9
26
8
46
59
81
83
62
34
17
19
32
34
54
90
91
72
76
43
37
19
12
17
53
78
107
93
52
17
55
37
81
85
89
72
70
66
81
52
67
48
50
64
87
93
100
85
59
36
24
17
23
38
79
76
79
78
38
4
34
15
13
15
47
53
53
36
14
2
25
-2
-24
1
37
39
55
53
19
-2
17
-12
2
33
40
29
28
13
11
13
10
-22
-10
28
49
41
27
23
19
31
-11
-6
6
18
4
19
44
35
12
17
-4
9
15
23
31
38
26
36
22
-3
-15
-11
36
24
34
44
43
32
8
-3
-15
-24
6
53
19
43
39
32
-24
-24
-13
5
-2
21
41
48
40
20
33
3
4
5
30
60
70
62
47
-7
-15
-2
-13
-8
34
27
33
55
43
34
19
-2
-20
-23
6
38
29
32
42
19
6
13
2
-2
15
42
47
38
25
11
-1
16
14
8
21
24
22
31
58
56
18
-12
-30
-9
10
35
38
54
43
27
10
16
11
8
26
23
5
9
22
35
2
1
-9
8
33
42
26
18
27
14
15
7
-3
15
39
53
56
42
41
50
11
-14
-33
-17
18
37
69
76
38
34
26
8
0
9
6
7
17
46
24
9
12
14
3
12
41
42
29
47
38
27
0
-6
-28
3
22
41
53
30
24
21
-12
4
6
-15
-4
38
24
54
31
23
-6
-3
16
52
74
42
42
51
33
5
4
3
-21
-28
-18
-38
-14
-61
-105
-116
-110
-118
-105
-74
-31
-38
-24
-6
-16
-24
-33
-7
-4
-4
15
55
64
31
-3
14
34
9
5
1
20
19
52
72
31
-38
-15
-6
7
13
25
29
36
38
52
21
20
-6
19
60
47
71
64
43
38
38
15
-10
6
24
67
56
83
74
51
29
10
4
28
32
40
38
45
44
31
26
34
42
13
42
72
79
87
79
35
11
32
59
65
71
71
73
97
70
55
46
37
56
53
63
90
89
97
68
47
37
27
55
58
66
87
58
55
64
83
68
8
16
49
70
58
92
65
42
20
12
30
37
27
43
32
42
40
8
-7
-23
-4
-14
8
33
35
44
48
32
1
-7
-15
-7
-10
6
16
63
41
37
13
-16
-27
0
38
29
59
62
62
35
-30
-11
-12
11
19
38
31
11
13
6
10
10
6
16
-9
-3
21
60
38
25
8
-11
-6
11
10
20
39
47
47
8
-18
20
9
-4
30
36
40
48
37
34
8
-25
-10
-16
2
19
24
55
33
0
-5
14
-3
8
13
24
28
40
29
17
33
38
19
-19
-17
-23
23
39
22
28
14
-14
10
-5
14
42
59
42
