74
69
70
71
76
76
65
73
77
72
73
70
76
74
74
74
70
75
71
73
68
70
74
75
74
77
67
72
75
72
73
82
73
76
69
71
72
75
70
72
77
75
77
69
75
74
72
71
71
74
71
74
76
73
72
70
70
69
76
78
71
72
70
70
73
74
73
77
70
72
75
77
76
79
76
73
72
78
72
78
78
84
89
86
78
86
89
83
81
83
85
78
78
85
78
85
77
72
71
70
66
66
67
71
73
60
74
76
74
65
67
69
65
57
72
71
61
67
65
70
67
70
64
65
69
67
65
66
59
61
67
49
47
34
46
64
69
91
114
144
173
193
221
226
223
200
172
168
146
110
64
49
34
46
55
63
61
54
61
67
66
66
64
60
61
56
65
63
64
60
60
58
62
63
63
61
58
56
60
59
61
57
56
62
63
60
72
67
59
60
63
62
60
62
62
62
64
63
63
61
65
64
59
61
66
60
68
66
59
68
64
65
63
65
70
65
66
64
61
69
68
69
70
68
69
72
69
73
67
68
73
76
78
78
76
78
83
77
83
91
89
83
81
87
90
94
86
90
93
102
95
97
92
100
96
96
103
105
99
102
94
97
92
88
89
89
86
83
82
80
80
75
76
79
71
63
73
68
70
68
67
65
64
63
64
65
58
65
59
60
58
60
66
62
59
62
64
61
54
62
60
63
65
60
63
62
60
57
55
59
61
58
64
65
51
58
63
53
57
68
56
60
61
58
61
59
59
60
61
62
62
63
58
54
57
60
60
56
53
64
60
54
58
65
68
54
58
63
62
62
60
56
64
56
54
49
64
64
62
61
65
59
62
58
56
62
61
57
59
63
58
61
63
59
58
57
59
55
55
57
52
55
61
54
55
61
56
59
61
58
53
55
53
59
60
56
54
47
57
62
62
55
55
54
51
59
58
56
59
55
56
54
52
53
60
56
56
65
60
57
57
57
67
59
65
67
63
68
63
65
66
68
71
69
59
64
66
67
53
53
52
52
50
53
49
46
50
53
56
50
51
44
52
48
44
45
48
46
51
44
52
52
49
49
49
47
47
47
45
52
48
50
46
41
43
30
24
29
34
48
59
82
122
148
178
200
215
213
193
161
148
134
102
68
17
-1
13
29
38
45
47
45
50
44
43
43
49
45
40
43
47
45
42
42
44
43
45
35
41
45
45
49
41
44
47
42
46
44
51
41
46
47
41
44
46
51
41
44
40
41
44
47
40
47
44
45
48
47
42
50
51
46
47
49
48
48
49
48
48
48
48
52
50
49
49
56
48
52
49
58
59
57
61
57
57
56
55
63
61
67
67
68
71
68
64
72
77
73
75
75
79
85
82
78
84
84
81
81
83
74
77
87
78
84
80
78
75
78
78
72
73
68
68
61
59
58
61
55
55
58
48
53
56
50
55
50
48
51
50
46
45
51
50
49
43
48
42
50
42
41
48
46
45
43
42
47
41
46
47
36
47
43
47
49
46
49
43
46
41
46
44
47
37
47
48
46
48
42
45
46
42
46
42
43
39
46
43
44
45
49
43
45
50
50
44
40
38
49
49
49
48
43
45
45
49
50
48
43
45
46
45
43
45
44
44
48
47
44
46
40
47
42
48
44
45
41
44
45
43
47
44
44
48
47
48
45
40
50
44
41
42
44
47
40
45
42
40
34
47
44
45
39
42
46
45
42
45
42
44
43
38
42
40
41
39
45
42
46
45
45
40
40
39
51
41
40
41
41
45
44
42
45
50
53
46
45
48
49
47
54
47
48
55
49
54
63
56
54
55
56
55
55
51
51
41
46
44
46
41
43
41
42
40
34
41
44
34
36
48
43
43
42
41
37
43
37
42
39
36
39
32
37
42
38
34
39
35
37
38
38
39
33
24
16
20
28
35
46
74
94
128
164
190
203
205
185
159
146
127
98
61
20
-12
-6
7
23
40
39
39
33
36
39
39
36
35
35
36
35
33
32
36
32
33
41
33
33
36
28
34
35
36
36
37
37
37
31
35
37
37
34
37
39
36
35
32
41
40
43
43
39
35
38
35
38
41
41
37
40
43
43
42
29
49
40
41
39
36
41
44
42
39
45
47
39
44
49
44
45
42
49
43
55
51
57
58
57
55
57
60
60
56
64
62
62
74
76
71
71
68
66
79
75
78
73
81
77
76
80
76
70
70
73
73
74
74
70
62
65
68
58
59
60
53
51
54
50
44
48
53
47
42
42
47
48
40
37
50
42
46
40
44
41
39
38
44
38
42
44
41
39
38
42
41
44
35
40
39
41
39
38
36
35
43
39
44
43
38
41
41
40
41
42
35
39
46
45
42
45
39
48
44
38
41
42
42
43
41
45
42
46
46
48
52
40
42
42
43
49
47
46
42
48
44
49
44
42
43
44
47
45
47
49
39
42
46
44
46
42
45
42
46
46
47
48
43
46
45
44
44
36
44
38
50
41
42
50
45
45
47
47
55
44
45
45
43
45
48
50
44
52
43
47
43
48
47
46
41
46
43
50
44
44
46
46
47
47
51
49
47
48
45
47
46
49
52
50
52
55
52
53
52
52
51
55
57
63
65
60
53
59
60
61
59
71
61
56
56
58
61
50
48
46
51
45
51
51
51
51
47
45
50
45
42
49
49
43
48
42
47
49
51
45
48
48
49
45
47
46
48
45
38
39
47
53
42
38
28
23
28
42
49
72
97
125
154
186
203
206
185
167
152
137
110
73
32
4
-3
5
22
29
44
46
49
45
49
44
42
46
48
39
40
51
42
44
46
43
48
46
42
43
41
40
46
44
44
48
47
42
44
45
41
46
48
46
46
47
41
48
46
48
47
46
50
44
48
50
46
49
51
50
46
44
48
49
45
47
53
54
52
50
54
51
47
55
53
47
54
54
53
60
60
55
62
59
61
67
65
62
60
65
65
66
70
70
75
76
81
78
73
81
80
83
81
80
86
86
86
83
75
80
80
85
85
85
80
79
78
77
75
73
72
64
72
69
70
64
58
58
57
62
56
49
48
56
50
53
44
55
46
49
45
49
49
46
41
51
41
42
41
46
44
41
47
47
45
47
43
42
44
39
43
42
45
46
42
43
38
48
46
37
39
46
47
43
41
51
47
45
46
42
44
48
47
44
42
49
49
45
44
51
48
46
50
48
49
48
47
49
46
53
51
48
45
45
50
42
52
49
48
41
46
52
47
46
46
48
42
45
46
41
40
50
50
45
47
49
47
47
40
40
40
46
53
47
42
44
45
43
50
41
47
45
44
47
51
45
45
47
42
43
45
44
47
47
47
43
43
48
51
47
49
49
54
48
47
53
55
56
53
51
55
50
60
65
62
58
56
59
59
52
41
43
43
49
42
42
41
43
36
41
47
40
40
49
46
43
36
38
45
40
42
41
38
35
42
39
44
35
44
40
39
38
40
40
39
37
36
36
27
13
16
27
33
40
55
63
100
144
177
187
190
174
153
146
137
114
70
41
-2
-16
-12
6
22
27
36
35
34
35
38
36
33
34
40
34
36
34
32
36
35
34
35
36
35
36
40
34
38
34
38
30
38
35
32
36
35
34
32
34
36
29
39
37
39
35
38
35
38
36
38
37
41
39
40
41
35
43
37
34
38
42
47
39
37
34
39
51
48
41
42
44
41
45
46
46
53
47
52
50
48
52
59
51
58
60
55
55
63
66
69
64
63
59
69
68
71
71
75
68
71
71
75
80
79
76
75
75
71
73
68
68
71
63
62
61
62
56
53
53
55
51
48
46
44
47
43
40
40
36
39
42
38
37
36
36
36
29
36
31
30
36
33
33
34
29
22
36
35
37
28
26
27
42
38
23
30
29
30
32
31
32
29
34
32
34
33
36
30
28
33
32
32
28
36
36
34
32
33
32
26
37
34
34
27
33
31
39
35
31
33
28
30
37
35
34
31
37
31
37
33
29
34
32
32
26
37
29
31
32
34
32
34
28
30
31
33
32
23
33
33
31
32
31
32
30
25
27
30
31
29
25
27
32
30
30
27
31
30
26
31
29
28
26
35
30
30
24
25
33
23
29
30
31
30
28
28
28
36
22
29
25
31
36
35
30
29
26
35
36
35
39
35
38
41
40
39
41
47
36
42
30
47
41
40
34
40
37
28
26
26
28
29
30
24
27
22
26
25
26
24
27
23
25
20
23
26
26
16
30
21
25
23
26
22
27
25
28
21
27
25
17
18
13
0
4
11
18
28
38
77
108
137
167
185
192
174
158
132
125
111
69
26
-15
-20
-9
8
7
23
24
23
20
24
21
27
24
23
17
17
19
18
25
22
15
20
18
22
17
7
10
21
30
26
25
22
23
21
22
22
18
21
21
26
21
21
20
21
19
25
21
19
24
25
24
24
23
20
22
7
32
27
31
25
23
15
11
30
29
30
28
24
21
28
29
25
18
38
40
29
27
35
42
37
33
38
38
35
35
36
42
44
47
50
49
45
53
52
49
55
54
56
56
59
52
55
60
62
56
60
60
58
60
55
57
55
43
41
48
52
44
43
40
39
40
36
31
34
20
28
27
24
24
28
10
28
20
27
25
20
17
24
23
18
19
20
23
18
16
20
23
16
18
18
24
18
10
19
19
15
20
18
16
17
19
20
16
15
17
15
16
21
17
15
13
11
20
16
12
13
17
14
18
17
19
17
12
17
14
20
23
15
17
20
17
20
26
19
13
13
20
19
20
17
18
17
23
18
15
18
12
16
14
25
22
11
11
10
14
17
22
14
11
17
13
17
16
15
17
13
18
14
14
12
10
8
13
15
15
8
14
21
19
13
12
11
19
13
11
11
14
12
18
15
13
18
10
17
9
11
9
11
15
18
15
11
11
11
14
8
13
13
13
14
10
8
17
12
13
17
10
13
19
10
22
20
19
21
23
25
25
24
24
20
25
27
23
23
22
20
13
14
16
11
14
13
5
6
6
9
16
10
8
9
5
6
10
5
13
3
10
10
4
8
4
3
8
8
5
4
4
8
8
8
2
2
-9
-13
-16
-13
-4
4
18
37
70
110
128
158
167
165
148
126
114
99
66
27
-12
-34
-35
-15
-12
-2
6
7
0
-5
8
5
1
-2
6
4
5
-3
1
-2
6
0
1
1
-2
2
2
2
1
6
0
-6
-4
1
6
-3
0
-4
-1
4
2
7
1
5
2
1
1
6
2
0
-2
0
6
-7
9
7
2
6
3
-2
3
4
5
6
5
4
1
7
2
10
4
8
10
9
11
12
13
11
17
14
16
14
12
14
20
19
20
24
18
26
21
33
28
31
32
30
37
35
34
36
37
32
40
36
33
32
35
44
35
32
33
36
36
33
23
32
24
21
20
16
16
17
19
14
13
9
13
5
2
2
6
2
-1
4
2
0
2
5
1
3
-5
0
-2
-5
-2
2
-6
1
0
1
-12
-1
0
0
2
1
-4
2
3
-7
-9
-7
-6
-1
-3
-3
-4
2
-5
-2
-5
-2
2
1
-7
-4
3
3
-3
-2
-3
-6
-11
4
0
2
-4
0
-3
4
-6
3
-1
-5
1
-1
3
1
1
-1
0
-5
1
3
0
-3
-4
1
-6
1
3
-1
1
-3
0
-6
2
-2
-6
-4
-3
-8
-2
-1
4
-4
-9
-7
-2
-3
-4
-4
-3
-5
-2
1
-2
-4
-3
-8
-4
-2
-3
-4
-4
-2
-4
-5
-7
-6
-3
-3
-3
-3
2
-3
-12
-11
-7
0
0
0
-1
-8
-1
6
4
0
1
3
-2
1
2
6
9
11
14
6
7
8
5
5
6
14
9
4
2
-7
-4
-4
1
-8
-8
-1
-3
-7
-8
-12
-12
-13
-2
-8
2
-10
-6
-5
-6
-3
-14
-4
-7
-3
-7
-8
-5
-7
-10
-12
-10
-10
-9
-16
-13
-21
-30
-31
-13
-7
7
23
53
87
115
140
150
147
114
106
96
70
46
5
-29
-57
-56
-39
-24
-20
-12
-14
-12
-9
-7
-13
-4
-9
-19
-18
-11
-7
-7
-10
-11
-13
-8
-16
-9
-8
-15
-15
-11
-10
-6
-8
-6
-8
-5
-10
-11
-12
-8
-6
-13
-8
-7
-14
-9
-8
-4
-3
-15
-12
-12
1
-8
-7
-6
-15
-11
-3
-18
-3
2
-9
-8
-3
-2
2
-1
-9
-1
-2
-1
-4
-3
1
3
5
3
6
4
4
7
10
8
3
9
11
11
15
15
18
17
22
18
22
24
24
20
21
24
28
29
34
28
22
25
31
29
30
25
25
26
22
29
20
21
12
14
15
8
7
11
4
1
2
2
-1
-3
-3
-3
-4
-7
-7
-7
-10
-12
-9
-11
-10
-16
-5
-9
-9
-12
-14
-8
-18
-12
-12
-9
-12
-12
-17
-13
-22
-16
-8
-13
-14
-13
-4
-11
-19
-10
-11
-18
-17
-13
-11
-10
-12
-13
-9
-17
-14
-15
-17
-14
-11
-11
-19
-9
-8
-10
-11
-5
-12
-7
-7
-8
-11
-4
-3
-3
-5
-5
-10
-10
-6
-2
-3
2
-6
-3
-2
-1
-1
0
-6
-4
-2
-5
-1
-5
-6
-3
-1
3
4
3
-9
-6
-5
-3
-5
-4
-7
-5
-5
-5
-1
1
-5
-6
-4
-7
-12
-7
-4
0
-4
2
3
-4
0
-3
-4
3
4
2
3
-3
9
6
8
5
-2
5
1
7
8
5
-6
1
-5
-6
-12
-6
-15
-10
-11
-13
-9
-15
-6
-10
-10
-15
-22
-14
-7
-14
-20
-9
-11
-12
-8
-13
-16
-16
-17
-15
-17
-11
-17
-15
-16
-11
-11
-18
-24
-26
-27
-29
-30
-20
-5
7
40
67
104
128
139
127
112
89
83
66
35
-11
-48
-66
-64
-57
-44
-40
-22
-14
-20
-17
-15
-13
-18
-18
-15
-16
-13
-19
-20
-18
-18
-16
-19
-16
-23
-18
-20
-16
-20
-19
-14
-15
-20
-17
-20
-18
-14
-21
-21
-20
-16
-18
-20
-15
-14
-12
-21
-16
-9
-15
-24
-14
-20
-19
-14
-15
-10
-9
-19
-17
-14
-21
-14
-13
-10
-12
-15
-8
-11
-11
-7
-10
-7
-13
-11
-11
-4
-2
-1
0
-3
-5
4
-2
-1
3
8
5
7
9
13
10
8
16
15
16
13
16
18
17
25
27
28
22
18
18
14
12
18
15
17
20
12
10
4
8
11
5
-2
-3
0
-4
-6
-11
-7
-11
-17
-20
-9
-16
-17
-14
-14
-15
-17
-19
-21
-19
-19
-24
-20
-19
-21
-21
-27
-29
-18
-24
-18
-20
-19
-20
-21
-25
-22
-18
-26
-25
-26
-18
-23
-28
-26
-24
-17
-18
-28
-18
-14
-24
-20
-28
-23
-21
-22
-22
-27
-24
-14
-16
-17
-19
-19
-22
-24
-16
-16
-24
-22
-16
-14
-22
-24
-25
-19
-21
-16
-17
-15
-24
-23
-21
-20
-18
-21
-19
-19
-14
-21
-25
-18
-17
-17
-22
-23
-25
-22
-20
-22
-27
-23
-21
-15
-23
-21
-27
-20
-22
-17
-24
-18
-23
-24
-24
-19
-19
-20
-22
-13
-10
-13
-21
-22
-16
-17
-20
-13
-15
-15
-12
-12
-7
-10
-12
-10
-7
-8
-13
-13
-10
-16
-24
-22
-25
-24
-18
-25
-25
-33
-18
-25
-25
-22
-23
-27
-28
-26
-25
-29
-22
-25
-25
-27
-27
-27
-27
-27
-27
-24
-30
-26
-24
-24
-25
-26
-28
-32
-33
-39
-53
-48
-36
-28
-26
6
30
65
95
123
129
122
112
83
78
57
28
-4
-43
-76
-70
-59
-43
-34
-32
-29
-29
-27
-27
-42
-36
-24
-26
-29
-27
-26
-30
-32
-32
-29
-32
-32
-32
-34
-35
-31
-27
-35
-25
-28
-29
-27
-29
-30
-30
-30
-33
-28
-25
-29
-30
-31
-25
-31
-40
-26
-29
-29
-28
-25
-22
-26
-34
-26
-29
-28
-26
-25
-22
-41
-14
-24
-30
-28
-20
-20
-23
-21
-19
-20
-26
-23
-21
-18
-20
-20
-17
-12
-14
-13
-11
-14
-1
-14
-10
-5
-4
-6
-4
-4
9
3
8
11
6
2
6
9
7
7
10
6
9
10
9
8
3
6
3
-11
4
4
6
-3
-3
-4
-7
-12
-11
-14
-18
-16
-18
-21
-27
-24
-25
-20
-29
-24
-24
-22
-30
-33
-24
-28
-33
-31
-29
-33
-28
-27
-37
-30
-39
-25
-28
-31
-30
-33
-32
-34
-41
-31
-34
-33
-30
-27
-31
-31
-34
-34
-34
-36
-33
-27
-31
-31
-34
-33
-30
-28
-30
-32
-33
-27
-31
-29
-33
-30
-32
-32
-29
-32
-26
-31
-25
-29
-25
-26
-36
-21
-34
-36
-32
-26
-28
-36
-32
-33
-28
-35
-28
-30
-34
-29
-23
-29
-26
-29
-29
-31
-30
-26
-30
-30
-28
-27
-36
-29
-29
-29
-39
-31
-28
-28
-30
-26
-28
-33
-32
-35
-35
-29
-26
-30
-32
-28
-36
-37
-35
-31
-31
-37
-31
-30
-33
-32
-25
-32
-29
-29
-32
-38
-31
-27
-32
-24
-26
-25
-26
-24
-25
-27
-21
-15
-15
-12
-24
-22
-18
-20
-19
-16
-20
-24
-29
-24
-27
-32
-36
-37
-40
-41
-26
-41
-42
-27
-33
-42
-30
-34
-33
-32
-41
-33
-37
-38
-39
-32
-41
-47
-41
-31
-33
-40
-32
-36
-28
-39
-42
-39
-45
-47
-55
-60
-52
-41
-29
-15
10
41
75
97
123
129
121
99
74
65
46
11
-25
-60
-69
-64
-46
-35
-33
-37
-38
-28
-31
-40
-34
-41
-37
-42
-39
-36
-37
-44
-43
-39
-43
-33
-37
-46
-38
-40
-41
-39
-36
-36
-38
-34
-32
-34
-35
-38
-35
-40
-39
-33
-38
-37
-33
-32
-29
-34
-36
-39
-36
-32
-35
-30
-31
-36
-31
-35
-37
-30
-36
-31
-32
-28
-26
-29
-29
-30
-28
-30
-34
-35
-30
-27
-29
-31
-23
-24
-24
-23
-14
-19
-21
-16
-10
-18
-18
-11
-16
-13
-11
-12
-5
2
1
-2
1
0
6
9
-3
1
10
5
2
2
8
6
6
3
6
0
0
-1
0
-3
-7
-15
-11
-12
-12
-14
-12
-19
-28
-24
-19
-29
-19
-22
-28
-26
-23
-22
-27
-27
-28
-32
-29
-27
-29
-23
-32
-24
-26
-29
-28
-29
-34
-27
-31
-37
-33
-28
-31
-30
-31
-27
-27
-35
-29
-28
-31
-29
-30
-31
-33
-34
-36
-31
-31
-24
-34
-25
-31
-24
-31
-26
-32
-26
-28
-29
-29
-24
-24
-17
-27
-29
-34
-28
-24
-25
-27
-27
-26
-25
-25
-26
-32
-31
-22
-25
-29
-20
-22
-24
-30
-32
-22
-33
-23
-24
-23
-23
-26
-31
-28
-16
-20
-26
-26
-32
-27
-23
-13
-18
-27
-30
-20
-20
-28
-30
-23
-21
-21
-25
-23
-24
-25
-29
-28
-25
-18
-26
-25
-24
-19
-25
-27
-22
-25
-21
-20
-23
-23
-25
-20
-25
-24
-25
-25
-23
-24
-17
-23
-25
-25
-19
-18
-18
-16
-17
-18
-18
-12
-18
-12
-12
-15
-14
-8
-9
-4
-13
-10
-12
-9
-8
-12
-11
-16
-15
-14
-15
-19
-25
-29
-25
-23
-18
-17
-21
-19
-21
-29
-22
-26
-23
-20
-23
-24
-28
-15
-20
-27
-24
-23
-25
-28
-21
-16
-19
-24
-22
-21
-26
-31
-38
-47
-45
-33
-30
-14
7
30
65
104
124
136
148
129
100
83
78
49
16
-25
-48
-51
-39
-26
-20
-19
-18
-20
-25
-22
-29
-22
-21
-25
-25
-20
-20
-25
-20
-25
-22
-19
-24
-26
-26
-21
-21
-26
-23
-25
-28
-16
-27
-19
-16
-13
-20
-19
-22
-24
-21
-18
-18
-20
-15
-23
-19
-22
-21
-16
-22
-14
-18
-24
-15
-20
-18
-15
-13
-21
-20
-14
-16
-20
-15
-14
-20
-21
-11
-11
-10
-12
-10
-14
-17
0
-1
-5
-5
-10
-6
-6
-2
5
-1
6
-5
6
14
10
7
12
8
10
11
22
20
14
15
14
21
26
15
23
24
19
20
21
21
16
18
16
13
8
6
12
4
2
0
3
-6
-8
-5
-2
-1
-9
-6
-10
-14
-13
-10
-10
-8
-11
-11
-22
-12
-12
-15
-14
-17
-10
-13
-16
-19
-16
-22
-18
-12
-16
-15
-19
-18
-17
-17
-11
-7
-17
-15
-18
-12
-18
-17
-15
-16
-14
-14
-19
-20
-20
-12
-14
-9
-10
-13
-27
-15
-18
-11
-24
-11
-9
-12
-20
-18
-16
-22
-14
-19
-14
-14
-7
-10
-17
-12
-15
-19
-4
-11
-10
-14
-11
-12
-9
-11
-13
-18
-12
-16
-12
-7
-9
-14
-6
-13
-7
-17
-12
-16
-19
-10
-13
-11
-6
-6
-5
-10
-16
-14
-7
-15
-13
-10
-12
-13
-15
-8
-10
-5
-7
-16
-11
-11
-10
-8
-14
-19
-8
-14
-13
-13
-12
-13
-10
-10
-10
-6
-11
-16
-12
-9
-9
-11
-13
-8
-13
-14
-14
-15
-7
-11
-15
-7
-14
-9
-11
-14
-12
-16
-10
-4
-9
-11
-8
-16
-6
-2
-6
-5
-11
-4
-1
0
3
3
-4
6
0
1
0
3
0
1
-2
-3
-2
-6
-9
-11
-8
-8
-11
-12
-12
-11
-10
-16
-13
-20
-18
-17
-19
-13
-13
-15
-15
-25
-8
-19
-15
-14
-12
-12
-17
-21
-20
-17
-14
-10
-25
-14
-18
-17
-25
-33
-32
-27
-17
-3
14
40
72
104
133
140
150
136
113
92
81
57
27
-7
-47
-49
-37
-23
-17
-13
-10
-20
-20
-15
-17
-16
-17
-20
-12
-22
-20
-20
-15
-16
-14
-24
-23
-14
-23
-27
-14
-19
-15
-21
-18
-11
-18
-16
-12
-22
-21
-15
-15
-13
-16
-18
-13
-16
-15
-21
-14
-18
-19
-13
-15
-17
-14
-14
-12
-17
-14
-18
-14
-17
-9
-10
-13
-7
-13
-10
-14
-8
-11
-10
-11
-14
-11
-5
-3
-8
-6
-7
-5
-6
-1
4
-1
1
5
4
8
7
7
10
12
13
16
14
7
14
21
22
15
18
23
23
21
24
19
25
25
25
22
24
22
18
21
16
12
10
6
10
8
6
3
-8
-4
-11
-4
-8
-12
-6
-7
-4
-9
-6
-15
-16
-13
-15
-12
-16
-16
-14
-16
-14
-17
-11
-10
-14
-14
-19
-13
-14
-18
-15
-18
-12
-10
-15
-22
-14
-9
-15
-18
-19
-16
-16
-20
-20
-16
-18
-15
-19
-17
-12
-16
-21
-15
-15
-19
-21
-28
-13
-11
-18
-23
-14
-21
-14
-17
-18
-12
-16
-13
-16
-11
-14
-16
-19
-17
-13
-16
-18
-14
-16
-13
-18
-15
-16
-16
-21
-17
-8
-13
-19
-14
-12
-17
-10
-11
-15
-16
-19
-20
-18
-15
-10
-18
-21
-11
-20
-3
-13
-15
-17
-14
-16
-13
-19
-10
-20
-21
-17
-18
-19
-21
-9
-11
-10
-13
-17
-7
-19
-17
-16
-18
-17
-19
-17
-14
-19
-14
-15
-12
-17
-16
-18
-17
-14
-16
-13
-18
-17
-18
-18
-17
-17
-21
-11
-20
-13
-13
-12
-24
-25
-19
-18
-23
-14
-16
-21
-12
-15
-21
-28
-18
-12
-14
-9
-14
-20
-17
-15
-12
-17
-15
-15
-14
-12
-15
-17
-6
-12
-11
-11
-6
-9
-2
2
-3
-8
-4
-2
-8
-8
-12
-10
-19
-14
-21
-14
-17
-18
-19
-17
-22
-20
-19
-14
-22
-21
-22
-22
-21
-23
-21
-18
-25
-19
-21
-19
-21
-21
-27
-29
-14
-18
-20
-15
-20
-26
-28
-23
-27
-35
-40
-41
-31
-20
-16
0
30
64
96
118
138
151
129
103
80
74
51
16
-17
-59
-55
-42
-41
-27
-21
-15
-20
-29
-18
-25
-25
-27
-23
-20
-18
-25
-26
-27
-23
-25
-27
-32
-22
-21
-23
-23
-23
-25
-33
-23
-27
-25
-19
-23
-28
-19
-17
-21
-28
-19
-22
-27
-26
-14
-21
-21
-25
-21
-19
-26
-24
-25
-16
-22
-20
-17
-23
-20
-25
-19
-19
-21
-29
-30
-18
-12
-17
-17
-12
-15
-20
-15
-16
-19
-12
-12
-12
-8
-6
-10
-6
-4
-7
-3
-2
-5
-1
-2
3
5
2
6
13
7
9
9
9
9
16
17
19
16
20
15
19
20
14
13
15
13
16
12
8
2
4
4
-4
3
-6
-9
0
-7
-8
-11
-11
-12
-18
-12
-20
-19
-13
-22
-27
-22
-16
-21
-28
-22
-22
-23
-28
-23
-20
-19
-26
-21
-25
-25
-16
-15
-27
-25
-25
-24
-22
-25
-28
-24
-27
-23
-20
-23
-25
-20
-32
-19
-29
-30
-28
-29
-17
-17
-26
-25
-27
-21
-24
-23
-20
-32
-30
-22
-24
-23
-24
-22
-22
-30
-26
-23
-22
-21
-23
-23
-22
-24
-21
-25
-24
-22
-27
-22
-19
-20
-20
-19
-25
-25
-26
-29
-24
-22
-21
-21
-27
-25
-16
-21
-21
-19
-27
-23
-21
-22
-21
-30
-29
-25
-20
-28
-24
-25
-34
-17
-24
-23
-28
-17
-19
-29
-25
-22
-23
-22
-25
-24
-23
-22
-20
-25
-21
-21
-26
-23
-22
-22
-22
-27
-24
-21
-25
-29
-27
-23
-22
-23
-20
-21
-25
-29
-21
-23
-24
-24
-22
-20
-25
-26
-18
-26
-26
-31
-26
-22
-18
-20
-24
-24
-29
-27
-24
-21
-19
-19
-23
-24
-23
-25
-24
-22
-18
-22
-20
-18
-19
-26
-25
-22
-23
-23
-14
-12
-14
-10
-15
-9
-8
-17
-25
-10
-7
-6
-6
-13
-14
-13
-15
-25
-25
-25
-25
-29
-27
-24
-23
-22
-24
-29
-29
-28
-32
-34
-25
-27
-27
-26
-24
-27
-29
-25
-27
-23
-35
-29
-28
-23
-30
-33
-34
-29
-31
-30
-30
-40
-49
-52
-39
-37
-22
-4
26
59
94
119
140
145
119
101
74
69
44
8
-38
-69
-74
-49
-40
-31
-29
-27
-31
-27
-25
-34
-27
-32
-35
-30
-36
-36
-34
-31
-29
-27
-29
-34
-34
-31
-32
-36
-32
-32
-29
-31
-29
-32
-31
-31
-28
-30
-29
-25
-36
-36
-32
-35
-26
-32
-30
-30
-31
-29
-31
-30
-31
-30
-32
-28
-24
-30
-25
-26
-27
-32
-26
-22
-24
-23
-26
-23
-35
-26
-25
-22
-21
-24
-19
-23
-19
-20
-18
-17
-15
-17
-15
-10
-16
-13
-11
-8
-6
-9
-5
-5
-2
-3
0
3
5
5
9
16
19
14
7
15
12
11
7
10
18
11
17
7
7
7
4
-5
2
4
-7
-7
-5
-12
-19
-15
-16
-15
-20
-22
-21
-18
-21
-24
-25
-23
-26
-28
-33
-36
-27
-27
-33
-30
-24
-23
-29
-32
-29
-35
-32
-29
-27
-29
-35
-35
-34
-34
-29
-33
-33
-37
-35
-35
-26
-30
-30
-29
-30
-32
-25
-31
-36
-33
-32
-31
-31
-31
-31
-33
-30
-31
-31
-29
-30
-36
-27
-34
-30
-32
-30
-31
-23
-30
-30
-34
-34
-27
-26
-28
-27
-30
-33
-30
-28
-35
-32
-32
-30
-27
-27
-31
-30
-30
-32
-35
-36
-37
-34
-27
-24
-26
-28
-29
-26
-25
-28
-35
-29
-34
-32
-32
-37
-28
-32
-34
-32
-31
-31
-25
-28
-29
-30
-30
-30
-34
-35
-32
-29
-27
-30
-28
-32
-32
-31
-35
-32
-32
-31
-33
-31
-41
-35
-38
-35
-43
-37
-30
-29
-31
-25
-30
-34
-31
-37
-25
-26
-25
-33
-31
-17
-24
-27
-33
-31
-25
-20
-18
-21
-20
-18
-19
-15
-15
-14
-23
-21
-18
-21
-21
-23
-29
-38
-28
-32
-33
-32
-39
-32
-37
-41
-36
-32
-34
-28
-26
-32
-36
-40
-37
-30
-36
-36
-36
-34
-36
-32
-32
-33
-37
-32
-32
-39
-40
-32
-42
-39
-45
-47
-51
-52
-41
-35
-17
8
36
72
96
122
125
100
71
59
51
25
-13
-56
-86
-96
-87
-72
-52
-44
-32
-30
-13
-21
-35
-55
-40
-43
-38
-43
-47
-39
-38
-40
-42
-43
-36
-37
-39
-38
-45
-39
-37
-37
-40
-35
-36
-34
-38
-31
-39
-40
-39
-38
-34
-39
-29
-35
-33
-37
-31
-33
-37
-33
-28
-37
-23
-29
-37
-45
-36
-32
-27
-31
-29
-26
-27
-30
-29
-31
-27
-26
-28
-30
-29
-21
-22
-21
-21
-24
-23
-16
-22
-17
-16
-18
-16
-20
-13
-11
-11
-9
-2
-3
-2
-2
-9
-12
6
4
3
2
5
2
3
11
7
2
1
-4
6
4
5
7
7
4
-1
-5
-6
-6
-7
-13
-8
-13
-9
-11
-23
-19
-28
-24
-24
-23
-28
-30
-30
-36
-31
-33
-38
-40
-45
-29
-27
-36
-35
-33
-36
-39
-36
-40
-44
-43
-34
-41
-39
-42
-42
-39
-32
-38
-43
-37
-41
-38
-43
-41
-44
-37
-34
-35
-40
-41
-41
-35
-44
-36
-33
-36
-33
-42
-36
-38
-37
-38
-40
-28
-34
-35
-33
-36
-34
-34
-31
-32
-32
-36
-37
-33
-35
-43
-37
-35
-38
-38
-40
-34
-32
-36
-36
-43
-42
-42
-34
-30
-33
-43
-40
-36
-41
-47
-32
-31
-34
-40
-41
-38
-43
-44
-39
-32
-29
-37
-35
-37
-34
-33
-34
-32
-32
-35
-32
-34
-35
-30
-30
-26
-24
-24
-21
-22
-28
-22
-25
-29
-26
-27
-23
-27
-33
-39
-36
-35
-39
-39
-35
-43
-45
-38
-42
-42
-42
-48
-46
-49
-46
-40
-37
-36
-37
-44
-45
-36
-38
-40
-42
-38
-42
-44
-40
-43
-44
-43
-49
-43
-49
-51
-51
-52
-56
-57
-51
-41
-18
7
40
69
99
110
86
72
51
45
27
-1
-34
-80
-101
-100
-93
-75
-66
-62
-48
-39
-44
-44
-49
-45
-48
-51
-50
-43
-49
-46
-46
-44
-47
-43
-45
-49
-49
-38
-44
-41
-45
-47
-44
-53
-44
-47
-46
-37
-47
-45
-49
-42
-45
-41
-46
-43
-41
-42
-43
-43
-42
-44
-41
-41
-44
-42
-39
-42
-35
-41
-40
-43
-42
-32
-40
-36
-33
-35
-44
-33
-43
-42
-25
-25
-30
-26
-31
-30
-29
-24
-31
-22
-27
-24
-22
-22
-17
-19
-16
-17
-9
-8
-5
-9
-6
-6
-5
-2
0
-3
2
-8
4
2
1
-3
6
2
-1
-7
-13
-4
-6
-9
-11
-19
-24
-12
-18
-17
-24
-22
-25
-28
-29
-35
-32
-32
-35
-37
-37
-44
-41
-42
-44
-46
-42
-44
-44
-46
-49
-46
-43
-48
-47
-45
-43
-50
-48
-47
-48
-49
-41
-46
-51
-45
-44
-47
-43
-44
-48
-46
-44
-46
-49
-53
-51
-47
-37
-49
-48
-48
-49
-45
-46
-47
-45
-46
-46
-50
-46
-49
-50
-48
-41
-43
-42
-43
-46
-47
-49
-39
-41
-51
-52
-43
-46
-42
-40
-42
-43
-50
-52
-40
-43
-47
-50
-47
-44
-44
-43
-45
-46
-48
-51
-50
-53
-51
-50
-47
-53
-45
-48
-53
-45
-43
-47
-45
-35
-41
-55
-47
-45
-50
-48
-48
-38
-38
-43
-44
-40
-39
-39
-42
-37
-35
-39
-32
-32
-32
-35
-33
-42
-35
-41
-42
-50
-40
-44
-51
-57
-52
-55
-52
-49
-48
-48
-50
-49
-51
-56
-55
-53
-51
-50
-51
-48
-53
-54
-52
-54
-51
-53
-54
-57
-52
-59
-52
-50
-55
-54
-53
-61
-69
-78
-80
-67
-60
-35
-19
7
36
77
100
118
110
94
68
62
49
8
-24
-65
-95
-95
-74
-72
-59
-56
-53
-56
-47
-55
-53
-50
-53
-56
-54
-56
-57
-56
-61
-53
-58
-59
-51
-51
-56
-60
-59
-53
-58
-56
-54
-53
-56
-57
-62
-55
-55
-51
-44
-53
-55
-61
-57
-51
-48
-53
-58
-52
-51
-53
-54
-50
-52
-52
-53
-48
-55
-47
-46
-50
-51
-55
-54
-47
-52
-51
-56
-44
-47
-51
-47
-47
-41
-52
-34
-43
-40
-41
-42
-41
-39
-32
-38
-29
-33
-31
-34
-25
-28
-31
-28
-21
-18
-17
-17
-18
-18
-14
-15
-11
-9
-17
-14
-11
-12
-14
-18
-17
-15
-18
-20
-22
-23
-27
-27
-29
-25
-30
-39
-37
-37
-40
-49
-47
-43
-46
-51
-49
-50
-52
-44
-49
-56
-56
-53
-53
-51
-53
-51
-53
-55
-51
-51
-50
-50
-58
-52
-56
-53
-51
-50
-50
-59
-57
-57
-58
-58
-55
-54
-55
-56
-54
-59
-54
-62
-58
-61
-54
-57
-55
-51
-53
-61
-53
-52
-55
-54
-58
-54
-59
-53
-57
-49
-54
-60
-55
-51
-52
-55
-52
-54
-55
-51
-55
-49
-52
-52
-54
-55
-56
-53
-52
-57
-54
-47
-51
-55
-53
-53
-53
-55
-55
-51
-52
-54
-65
-52
-52
-53
-57
-57
-49
-51
-47
-51
-51
-52
-49
-51
-56
-54
-53
-49
-48
-49
-49
-53
-53
-47
-45
-45
-42
-43
-38
-43
-39
-43
-48
-40
-42
-33
-36
-42
-36
-37
-43
-47
-41
-52
-52
-57
-53
-48
-56
-51
-55
-52
-57
-64
-57
-55
-56
-56
-51
-53
-54
-54
-60
-57
-53
-58
-57
-60
-52
-62
-59
-53
-55
-56
-57
-50
-54
-56
-62
-69
-79
-76
-80
-68
-59
-44
-25
1
39
74
96
105
116
92
65
52
37
9
-23
-64
-92
-96
-73
-72
-61
-58
-52
-58
-59
-52
-58
-60
-56
-57
-64
-61
-56
-56
-56
-60
-60
-59
-60
-63
-59
-62
-55
-61
-61
-58
-62
-57
-56
-55
-59
-54
-58
-59
-60
-57
-59
-61
-56
-57
-54
-55
-55
-57
-62
-57
-55
-59
-59
-61
-55
-53
-54
-56
-53
-51
-60
-57
-52
-56
-54
-48
-42
-52
-52
-55
-55
-54
-50
-49
-56
-45
-48
-43
-47
-44
-45
-42
-41
-32
-34
-36
-32
-38
-34
-35
-31
-33
-29
-26
-16
-23
-18
-19
-20
-19
-22
-22
-19
-18
-19
-25
-21
-17
-22
-25
-19
-22
-27
-33
-27
-29
-41
-44
-35
-44
-43
-48
-48
-50
-53
-58
-49
-51
-51
-53
-52
-50
-56
-55
-57
-61
-60
-56
-57
-63
-61
-54
-57
-56
-57
-54
-60
-63
-64
-64
-57
-60
-60
-57
-65
-60
-53
-54
-57
-62
-62
-59
-65
-60
-60
-57
-59
-57
-66
-59
-60
-64
-51
-60
-55
-60
-57
-61
-54
-58
-59
-62
-55
-59
-61
-58
-62
-64
-55
-53
-54
-57
-60
-56
-60
-60
-61
-55
-62
-58
-55
-60
-58
-61
-56
-51
-62
-59
-59
-52
-57
-58
-56
-55
-60
-61
-65
-55
-52
-57
-58
-58
-57
-61
-51
-59
-57
-57
-58
-64
-63
-60
-56
-64
-62
-53
-54
-51
-55
-56
-54
-51
-58
-54
-53
-57
-50
-53
-50
-52
-43
-50
-38
-41
-44
-42
-42
-46
-45
-48
-50
-49
-51
-51
-58
-57
-54
-59
-58
-60
-61
-66
-66
-54
-55
-58
-59
-59
-61
-57
-62
-73
-68
-63
-63
-56
-56
-61
-60
-58
-63
-61
-62
-62
-69
-62
-60
-65
-68
-68
-79
-81
-95
-73
-63
-53
-41
-8
33
60
86
100
112
98
69
49
38
14
-20
-71
-107
-105
-85
-68
-66
-71
-63
-59
-54
-67
-61
-63
-63
-67
-72
-62
-70
-74
-64
-62
-64
-65
-64
-64
-62
-63
-64
-71
-61
-65
-65
-65
-61
-62
-65
-64
-68
-70
-63
-63
-65
-63
-65
-71
-56
-56
-58
-62
-58
-58
-64
-68
-60
-62
-58
-58
-63
-60
-60
-63
-65
-65
-61
-66
-61
-55
-61
-57
-58
-68
-50
-58
-50
-51
-50
-53
-54
-51
-50
-53
-49
-47
-45
-44
-40
-43
-35
-37
-39
-34
-36
-35
-28
-27
-29
-27
-27
-29
-22
-22
-23
-20
-25
-23
-17
-24
-23
-23
-27
-30
-29
-28
-35
-26
-31
-34
-45
-37
-39
-47
-53
-39
-53
-52
-50
-56
-57
-64
-54
-60
-65
-52
-58
-61
-58
-57
-61
-61
-60
-60
-62
-62
-59
-61
-64
-67
-59
-67
-64
-65
-58
-66
-61
-60
-64
-61
-64
-64
-62
-62
-66
-73
-70
-63
-58
-58
-61
-70
-61
-63
-62
-63
-69
-60
-60
-63
-59
-57
-64
-68
-58
-62
-60
-66
-66
-62
-65
-61
-65
-64
-65
-61
-58
-64
-61
-60
-60
-59
-60
-59
-60
-63
-61
-63
-66
-59
-61
-61
-59
-62
-65
-63
-58
-58
-53
-60
-60
-62
-62
-64
-64
-60
-59
-71
-59
-57
-61
-61
-64
-63
-57
-67
-52
-57
-58
-63
-62
-59
-61
-58
-64
-59
-63
-58
-62
-64
-60
-61
-60
-55
-56
-63
-59
-56
-54
-53
-54
-55
-59
-61
-53
-51
-45
-45
-44
-47
-45
-46
-50
-47
-56
-55
-57
-49
-55
-55
-55
-59
-67
-63
-65
-64
-63
-58
-64
-61
-70
-54
-58
-63
-62
-64
-65
-59
-71
-71
-66
-64
-60
-59
-65
-60
-62
-64
-65
-66
-63
-62
-65
-63
-65
-75
-83
-88
-81
-74
-65
-47
-21
10
45
77
92
106
99
85
51
46
25
-2
-49
-87
-103
-87
-76
-73
-64
-66
-69
-66
-66
-66
-58
-62
-66
-69
-63
-62
-66
-62
-64
-67
-64
-68
-65
-67
-67
-56
-68
-63
-61
-66
-60
-60
-62
-62
-65
-60
-64
-67
-62
-64
-64
-65
-64
-59
-63
-58
-58
-59
-64
-71
-61
-48
-58
-59
-59
-61
-55
-55
-54
-61
-63
-61
-61
-58
-54
-53
-56
-57
-52
-54
-57
-51
-52
-54
-49
-50
-50
-46
-53
-42
-48
-39
-44
-46
-42
-35
-36
-32
-34
-34
-30
-23
-28
-30
-23
-25
-26
-14
-20
-22
-20
-14
-11
-13
-23
-26
-25
-17
-17
-24
-28
-29
-25
-23
-33
-32
-30
-30
-40
-44
-42
-41
-49
-49
-47
-60
-57
-56
-54
-44
-46
-51
-58
-54
-58
-58
-55
-60
-57
-54
-55
-58
-57
-57
-59
-60
-62
-60
-59
-57
-65
-58
-56
-55
-57
-57
-64
-60
-56
-60
-57
-66
-63
-51
-57
-59
-66
-60
-65
-52
-56
-53
-60
-57
-58
-54
-57
-60
-61
-60
-60
-62
-60
-56
-58
-53
-57
-61
-63
-54
-55
-54
-57
-60
-60
-60
-58
-57
-56
-56
-57
-58
-57
-52
-53
-57
-59
-58
-54
-58
-55
-54
-52
-57
-54
-61
-59
-51
-59
-53
-56
-57
-54
-64
-56
-57
-60
-60
-55
-60
-53
-55
-51
-53
-59
-59
-59
-61
-56
-54
-56
-60
-54
-52
-60
-59
-60
-55
-55
-57
-57
-60
-58
-58
-57
-56
-57
-57
-58
-53
-56
-55
-55
-57
-58
-56
-56
-49
-51
-51
-47
-52
-43
-44
-43
-49
-50
-47
-43
-45
-40
-51
-45
-41
-48
-52
-54
-54
-54
-57
-60
-65
-58
-66
-59
-61
-60
-62
-60
-61
-55
-59
-57
-62
-55
-56
-65
-61
-59
-54
-66
-59
-64
-61
-61
-59
-61
-62
-58
-56
-63
-64
-73
-75
-86
-80
-76
-59
-53
-33
-8
31
65
87
99
114
105
78
53
44
17
-25
-66
-94
-99
-78
-72
-61
-59
-60
-63
-57
-58
-61
-60
-64
-64
-62
-61
-63
-65
-64
-64
-70
-54
-63
-58
-63
-62
-62
-59
-65
-63
-61
-60
-56
-64
-59
-62
-56
-57
-68
-55
-58
-60
-62
-61
-59
-60
-57
-62
-59
-57
-57
-57
-62
-56
-57
-53
-54
-58
-59
-55
-53
-54
-51
-56
-54
-50
-54
-50
-50
-49
-60
-52
-57
-44
-49
-45
-47
-48
-43
-39
-43
-43
-38
-38
-40
-36
-38
-34
-29
-27
-26
-27
-21
-23
-22
-15
-19
-22
-18
-16
-16
-16
-17
-13
-14
-15
-15
-16
-17
-15
-20
-23
-24
-21
-23
-31
-31
-32
-36
-37
-42
-42
-41
-37
-40
-48
-48
-46
-45
-48
-54
-44
-52
-53
-51
-52
-66
-58
-47
-54
-50
-50
-63
-57
-56
-52
-49
-54
-53
-56
-58
-55
-59
-54
-52
-58
-56
-53
-53
-61
-58
-54
-52
-58
-49
-53
-54
-56
-56
-54
-55
-60
-47
-52
-55
-53
-52
-57
-64
-56
-56
-54
-58
-56
-52
-50
-52
-55
-58
-54
-53
-53
-55
-55
-52
-51
-55
-52
-50
-51
-51
-54
-56
-47
-49
-48
-54
-49
-55
-50
-53
-53
-60
-47
-53
-55
-49
-46
-50
-53
-50
-49
-51
-48
-55
-50
-49
-50
-52
-53
-50
-54
-52
-49
-51
-52
-51
-53
-54
-51
-52
-52
-52
-52
-49
-56
-56
-51
-57
-58
-49
-49
-50
-50
-50
-50
-54
-51
-54
-59
-54
-44
-54
-53
-50
-46
-51
-56
-47
-53
-51
-44
-52
-48
-49
-47
-50
-48
-46
-44
-43
-40
-48
-40
-34
-39
-31
-35
-39
-41
-41
-39
-42
-38
-41
-49
-53
-55
-49
-49
-53
-53
-51
-52
-51
-55
-54
-56
-55
-53
-52
-56
-57
-49
-56
-51
-51
-52
-58
-54
-57
-55
-57
-60
-56
-48
-52
-52
-51
-51
-63
-56
-62
-70
-75
-75
-61
-56
-46
-25
-1
37
63
96
114
122
91
66
50
31
16
-26
-69
-99
-104
-83
-67
-68
-58
-52
-52
-54
-56
-59
-53
-52
-65
-51
-54
-58
-60
-54
-56
-54
-58
-59
-64
-58
-62
-55
-56
-53
-52
-55
-51
-53
-49
-54
-50
-65
-51
-54
-56
-54
-52
-52
-54
-57
-53
-55
-51
-52
-52
-50
-53
-47
-53
-52
-53
-50
-46
-49
-48
-52
-49
-44
-45
-52
-45
-44
-47
-53
-46
-42
-46
-47
-42
-38
-49
-33
-37
-38
-42
-32
-35
-32
-37
-28
-25
-28
-22
-21
-18
-16
-17
-23
-19
-13
-17
-19
-8
-10
-6
-8
-11
-11
-8
-13
-8
-4
-6
-5
-9
-13
-22
-19
-16
-17
-21
-21
-26
-32
-31
-32
-38
-30
-38
-43
-39
-39
-44
-43
-48
-46
-48
-45
-48
-48
-45
-47
-51
-43
-49
-50
-46
-47
-57
-51
-51
-54
-55
-54
-55
-50
-46
-50
-52
-51
-52
-51
-52
-53
-45
-61
-53
-51
-49
-57
-54
-50
-48
-52
-49
-61
-43
-45
-49
-50
-56
-51
-47
-47
-45
-55
-52
-48
-56
-51
-47
-53
-52
-44
-48
-41
-49
-47
-48
-49
-45
-44
-42
-47
-43
-48
-45
-50
-51
-56
-52
-52
-48
-49
-44
-41
-48
-50
-49
-48
-44
-45
-41
-46
-47
-47
-47
-54
-49
-46
-47
-49
-44
-44
-49
-44
-49
-46
-49
-53
-44
-42
-47
-52
-51
-52
-49
-49
-50
-46
-47
-49
-48
-51
-44
-45
-45
-47
-45
-42
-40
-42
-44
-42
-42
-41
-42
-41
-42
-44
-40
-42
-35
-32
-34
-36
-38
-33
-34
-29
-29
-33
-30
-32
-40
-39
-48
-51
-54
-52
-56
-46
-47
-46
-49
-48
-39
-54
-50
-45
-46
-46
-47
-55
-54
-49
-44
-44
-48
-54
-47
-52
-45
-46
-49
-49
-54
-52
-51
-49
-50
-54
-53
-52
-59
-63
-63
-61
-54
-37
-17
9
41
65
93
109
98
75
53
44
22
-9
-45
-81
-110
-99
-91
-67
-71
-57
-52
-48
-43
-52
-50
-52
-51
-59
-55
-53
-47
-48
-52
-50
-49
-52
-49
-51
-57
-53
-53
-52
-50
-49
-48
-52
-51
-47
-47
-48
-54
-50
-44
-44
-49
-47
-50
-57
-44
-54
-52
-45
-43
-43
-47
-47
-48
-45
-44
-44
-43
-43
-38
-45
-50
-44
-45
-44
-45
-34
-38
-33
-37
-37
-37
-38
-44
-41
-37
-32
-25
-32
-33
-25
-29
-28
-25
-23
-24
-25
-21
-18
-24
-15
-13
-11
-6
-10
-15
-8
-5
-8
-5
-4
-6
2
-5
0
-2
-4
-1
-4
-12
-5
-9
-13
-10
-14
-16
-20
-16
-24
-28
-22
-27
-30
-38
-36
-38
-37
-31
-38
-37
-38
-46
-42
-42
-42
-49
-40
-45
-45
-50
-42
-48
-46
-49
-49
-47
-46
-46
-49
-51
-46
-48
-52
-53
-62
-52
-48
-42
-42
-48
-43
-46
-50
-48
-50
-46
-47
-51
-47
-46
-48
-45
-47
-48
-45
-47
-45
-46
-46
-47
-46
-43
-50
-48
-48
-47
-44
-47
-43
-46
-39
-48
-44
-49
-44
-50
-43
-42
-46
-44
-47
-43
-45
-45
-43
-48
-48
-42
-48
-43
-48
-47
-51
-40
-50
-42
-42
-46
-47
-46
-44
-45
-45
-48
-46
-46
-47
-49
-39
-43
-45
-43
-42
-43
-46
-49
-46
-50
-46
-46
-48
-46
-44
-44
-47
-45
-47
-46
-47
-43
-43
-44
-45
-46
-41
-38
-39
-40
-38
-50
-41
-41
-39
-35
-37
-30
-35
-33
-32
-36
-31
-32
-38
-45
-47
-49
-44
-42
-45
-50
-44
-48
-41
-46
-43
-45
-51
-49
-47
-52
-47
-53
-50
-51
-44
-43
-48
-54
-51
-49
-52
-49
-52
-54
-53
-48
-50
-51
-46
-55
-58
-47
-57
-60
-62
-70
-66
-55
-43
-29
-6
24
58
83
98
118
86
72
55
46
16
-14
-56
-87
-99
-89
-73
-61
-60
-51
-53
-48
-51
-58
-51
-49
-54
-53
-54
-55
-55
-53
-52
-51
-55
-56
-54
-54
-51
-63
-60
-58
-46
-50
-46
-51
-54
-52
-55
-50
-47
-55
-54
-54
-53
-51
-57
-48
-49
-52
-44
-45
-51
-47
-49
-53
-46
-45
-55
-42
-46
-54
-48
-52
-52
-48
-46
-45
-44
-48
-43
-46
-46
-42
-40
-40
-43
-39
-41
-43
-40
-40
-39
-36
-39
-29
-28
-30
-24
-25
-22
-26
-18
-26
-15
-15
-14
-17
-17
-22
-21
-12
-12
-7
-4
-5
-4
-3
-8
-6
-6
-11
-12
-20
-15
-16
-16
-20
-33
-28
-31
-24
-27
-36
-31
-38
-32
-38
-35
-41
-45
-45
-42
-47
-48
-46
-50
-44
-54
-49
-47
-46
-49
-49
-50
-49
-50
-48
-52
-48
-52
-50
-51
-54
-58
-65
-62
-51
-47
-45
-52
-48
-56
-51
-51
-49
-53
-51
-53
-55
-54
-55
-56
-58
-54
-52
-47
-52
-43
-49
-56
-52
-52
-52
-51
-49
-52
-47
-53
-53
-49
-49
-49
-53
-47
-50
-52
-44
-52
-46
-50
-47
-45
-48
-47
-50
-48
-56
-52
-46
-52
-55
-48
-48
-43
-48
-49
-52
-52
-43
-51
-46
-47
-45
-47
-57
-49
-52
-51
-58
-55
-52
-51
-57
-45
-45
-46
-48
-51
-55
-47
-53
-51
-48
-50
-50
-50
-51
-56
-55
-54
-49
-45
-45
-45
-49
-49
-49
-61
-49
-45
-49
-49
-52
-52
-52
-49
-55
-56
-58
-55
-56
-50
-44
-44
-49
-49
-48
-45
-47
-49
-50
-45
-46
-45
-48
-45
-46
-42
-47
-39
-43
-39
-45
-41
-34
-36
-39
-36
-39
-40
-37
-48
-48
-54
-49
-50
-53
-55
-53
-58
-60
-56
-55
-52
-47
-47
-56
-55
-54
-59
-55
-47
-55
-52
-54
-56
-55
-61
-67
-62
-54
-48
-54
-53
-52
-57
-62
-60
-69
-69
-72
-65
-62
-42
-27
4
32
62
84
98
112
97
70
49
44
20
-14
-45
-84
-92
-69
-64
-61
-52
-58
-57
-60
-55
-62
-65
-61
-52
-54
-51
-52
-57
-60
-57
-60
-60
-52
-57
-55
-54
-61
-57
-66
-65
-58
-57
-55
-52
-56
-52
-54
-53
-50
-55
-55
-55
-49
-57
-54
-58
-56
-59
-56
-60
-66
-58
-55
-52
-53
-56
-48
-46
-61
-51
-54
-52
-56
-52
-49
-58
-53
-53
-54
-49
-51
-54
-50
-47
-43
-41
-45
-44
-40
-42
-40
-38
-45
-42
-44
-44
-26
-36
-35
-39
-38
-28
-29
-22
-23
-24
-23
-17
-17
-22
-19
-17
-15
-16
-14
-21
-19
-19
-13
-22
-19
-17
-14
-25
-22
-27
-41
-30
-32
-43
-39
-38
-40
-41
-43
-48
-44
-48
-52
-50
-47
-55
-58
-51
-51
-56
-53
-54
-52
-60
-58
-52
-54
-55
-45
-49
-56
-53
-58
-61
-61
-58
-55
-53
-56
-58
-52
-56
-50
-59
-64
-58
-60
-62
-60
-58
-51
-53
-51
-54
-64
-61
-56
-54
-56
-55
-59
-57
-52
-60
-66
-65
-54
-55
-55
-52
-57
-51
-54
-56
-53
-61
-58
-57
-49
-48
-53
-52
-53
-53
-57
-55
-56
-50
-54
-60
-58
-55
-59
-53
-56
-55
-49
-52
-54
-58
-51
-56
-53
-52
-56
-57
-52
-54
-52
-56
-56
-57
-58
-56
-56
-57
-57
-50
-51
-57
-57
-59
-54
-61
-53
-59
-58
-48
-49
-51
-57
-56
-52
-56
-56
-49
-55
-55
-53
-56
-55
-54
-56
-57
-57
-52
-55
-58
-50
-59
-60
-54
-54
-57
-55
-56
-57
-51
-50
-56
-56
-52
-52
-52
-54
-55
-58
-52
-47
-49
-55
-50
-48
-47
-45
-40
-42
-45
-45
-47
-43
-44
-43
-43
-50
-52
-48
-51
-55
-53
-57
-53
-51
-61
-59
-56
-58
-54
-56
-58
-54
-55
-60
-60
-64
-65
-53
-55
-62
-57
-66
-70
-54
-57
-55
-56
-57
-60
-55
-58
-60
-71
-73
-77
-81
-80
-68
-57
-47
-24
3
34
58
94
107
110
92
65
53
36
9
-24
-71
-91
-79
-78
-64
-64
-59
-56
-59
-63
-59
-62
-62
-61
-61
-63
-68
-57
-56
-61
-57
-58
-64
-65
-62
-63
-67
-66
-63
-57
-61
-68
-62
-61
-59
-58
-62
-61
-57
-59
-61
-61
-55
-57
-62
-56
-62
-58
-59
-61
-59
-61
-59
-57
-61
-57
-56
-62
-58
-56
-56
-60
-54
-50
-57
-56
-55
-60
-56
-58
-53
-53
-49
-57
-52
-44
-44
-51
-48
-49
-59
-43
-40
-45
-46
-40
-41
-41
-41
-32
-35
-36
-35
-26
-23
-21
-22
-21
-24
-26
-18
-18
-23
-15
-18
-14
-20
-19
-20
-16
-19
-18
-31
-30
-22
-26
-30
-41
-26
-29
-36
-45
-44
-45
-47
-44
-49
-50
-52
-53
-57
-55
-61
-57
-56
-56
-56
-53
-58
-55
-60
-58
-59
-58
-60
-55
-53
-52
-64
-58
-60
-62
-63
-63
-63
-63
-63
-61
-58
-62
-61
-60
-62
-58
-57
-57
-58
-56
-60
-62
-59
-63
-53
-56
-62
-60
-63
-62
-65
-50
-61
-59
-58
-54
-60
-61
-61
-59
-57
-58
-60
-61
-59
-61
-54
-54
-55
-60
-59
-58
-59
-58
-58
-57
-57
-58
-51
-59
-55
-51
-59
-57
-60
-58
-53
-56
-61
-62
-66
-53
-50
-56
-60
-56
-53
-56
-55
-63
-61
-60
-56
-58
-53
-59
-60
-61
-54
-57
-56
-56
-57
-65
-59
-60
-55
-51
-54
-55
-63
-54
-56
-57
-57
-63
-57
-59
-54
-52
-59
-59
-56
-57
-60
-55
-60
-58
-58
-57
-57
-55
-52
-64
-63
-50
-52
-59
-56
-59
-61
-55
-56
-59
-57
-57
-54
-59
-59
-66
-53
-53
-56
-52
-50
-48
-53
-45
-51
-46
-50
-44
-45
-48
-41
-47
-46
-47
-54
-47
-40
-50
-46
-52
-54
-55
-60
-61
-58
-55
-66
-71
-62
-58
-53
-55
-64
-62
-56
-61
-67
-60
-57
-61
-62
-59
-58
-55
-60
-61
-62
-65
-58
-60
-64
-59
-61
-68
-68
-71
-74
-81
-83
-80
-70
-59
-39
-8
21
53
78
98
107
104
79
52
38
19
-9
-61
-92
-101
-81
-71
-64
-62
-61
-60
-62
-70
-61
-64
-58
-61
-62
-64
-66
-68
-64
-67
-74
-62
-65
-69
-66
-65
-60
-64
-65
-64
-63
-65
-67
-67
-63
-60
-65
-67
-62
-63
-68
-62
-62
-70
-67
-56
-60
-61
-55
-68
-67
-63
-58
-56
-59
-62
-62
-59
-66
-60
-58
-54
-58
-60
-58
-54
-57
-54
-56
-58
-54
-53
-59
-53
-55
-56
-49
-48
-43
-47
-48
-41
-46
-45
-40
-36
-41
-38
-40
-31
-28
-32
-29
-33
-27
-34
-22
-28
-23
-22
-22
-25
-20
-10
-14
-18
-17
-15
-20
-16
-21
-28
-24
-23
-23
-27
-31
-35
-32
-46
-35
-34
-42
-41
-44
-47
-51
-47
-55
-52
-57
-54
-52
-61
-54
-60
-62
-59
-54
-51
-59
-55
-56
-56
-61
-63
-65
-60
-61
-53
-57
-63
-61
-58
-60
-65
-62
-60
-62
-59
-63
-65
-57
-58
-55
-56
-54
-61
-62
-67
-54
-58
-69
-63
-57
-57
-64
-57
-64
-58
-57
-58
-57
-52
-55
-60
-53
-59
-61
-59
-60
-59
-61
-53
-53
-56
-58
-61
-63
-56
-57
-58
-57
-54
-57
-59
-62
-60
-59
-66
-53
-57
-57
-56
-65
-63
-58
-59
-56
-53
-58
-53
-58
-54
-52
-59
-53
-61
-59
-65
-58
-58
-55
-56
-55
-59
-58
-60
-57
-62
-62
-60
-54
-57
-58
-57
-57
-59
-59
-57
-57
-56
-59
-57
-58
-55
-58
-65
-59
-59
-59
-57
-56
-54
-55
-58
-59
-57
-52
-60
-61
-63
-60
-53
-56
-53
-57
-54
-57
-55
-51
-53
-48
-42
-51
-48
-46
-46
-47
-45
-45
-48
-45
-42
-47
-45
-46
-48
-52
-53
-60
-54
-57
-58
-62
-61
-60
-66
-62
-62
-60
-57
-54
-60
-62
-66
-61
-70
-68
-61
-63
-62
-62
-59
-58
-57
-64
-63
-63
-61
-63
-55
-55
-61
-63
-73
-79
-89
-72
-69
-57
-34
-7
28
61
83
104
112
98
72
49
41
13
-26
-65
-95
-105
-91
-75
-70
-61
-66
-68
-65
-58
-59
-61
-62
-61
-65
-65
-69
-60
-60
-62
-64
-61
-66
-66
-69
-66
-60
-58
-58
-64
-65
-71
-70
-64
-60
-61
-59
-59
-62
-66
-64
-58
-62
-62
-58
-64
-56
-64
-60
-65
-62
-57
-59
-60
-60
-58
-61
-56
-57
-55
-54
-60
-58
-56
-57
-59
-56
-58
-54
-58
-55
-48
-52
-59
-52
-43
-44
-49
-45
-46
-44
-48
-45
-39
-33
-41
-48
-32
-38
-36
-37
-29
-27
-29
-27
-23
-21
-18
-19
-26
-17
-23
-16
-16
-18
-19
-16
-20
-19
-21
-27
-25
-25
-28
-24
-28
-23
-29
-35
-42
-43
-41
-41
-41
-45
-47
-46
-43
-48
-50
-58
-59
-57
-58
-51
-59
-67
-52
-55
-54
-51
-58
-54
-57
-60
-56
-61
-63
-59
-60
-58
-56
-54
-59
-62
-52
-56
-58
-60
-62
-62
-59
-60
-58
-59
-58
-63
-59
-57
-56
-61
-67
-62
-56
-58
-59
-59
-58
-56
-57
-60
-56
-56
-56
-57
-57
-59
-56
-60
-63
-62
-58
-54
-53
-58
-49
-54
-58
-52
-57
-57
-59
-57
-54
-55
-61
-54
-58
-61
-57
-62
-55
-52
-57
-59
-43
-59
-56
-57
-57
-56
-59
-58
-57
-55
-54
-57
-53
-57
-57
-60
-57
