109
112
91
48
7
38
42
57
75
81
117
117
80
44
1
30
39
47
70
88
116
118
89
38
8
41
41
51
77
83
128
104
81
35
-3
45
51
65
82
78
124
114
82
45
7
51
52
68
91
83
125
100
87
33
27
51
48
65
84
79
127
107
87
35
20
45
44
60
83
81
113
88
81
26
22
42
54
60
82
92
121
79
71
18
20
41
52
57
74
93
114
83
65
15
39
44
42
67
84
94
117
85
67
-2
26
41
46
55
78
105
138
110
112
78
107
140
158
166
165
170
157
130
94
32
21
29
12
30
43
71
76
58
22
-21
11
29
43
61
63
119
118
86
61
8
39
51
54
85
89
120
120
87
53
10
44
42
55
90
80
136
129
98
53
7
47
53
62
92
97
129
121
91
53
8
53
53
66
81
95
145
124
98
59
12
53
55
74
102
99
138
121
104
58
28
65
55
68
99
103
152
130
94
59
45
69
69
90
104
111
162
133
114
67
49
80
87
92
108
110
167
146
127
75
61
71
97
116
130
136
159
139
118
70
82
84
94
106
127
133
163
135
115
62
72
78
80
85
107
125
147
103
90
31
46
64
73
81
94
106
128
102
85
24
33
46
45
74
92
112
132
90
75
17
42
46
54
71
96
108
116
89
64
5
45
49
50
78
87
117
114
94
55
15
46
53
61
68
79
113
129
92
53
4
39
41
58
87
96
115
118
94
43
3
50
43
61
82
92
127
115
86
47
-4
50
49
61
73
83
124
116
82
43
1
42
31
59
75
77
126
115
79
27
9
37
38
52
82
74
114
108
86
37
23
36
37
56
71
73
123
111
78
16
18
49
42
60
87
84
117
101
82
23
11
41
54
70
86
88
125
100
69
17
29
57
52
47
79
105
122
95
74
21
28
41
33
54
69
94
115
71
77
12
29
33
37
54
73
89
112
78
59
-5
24
32
46
56
76
99
99
76
49
-7
26
42
47
59
74
103
99
66
34
-16
18
34
35
62
62
110
106
98
87
49
95
123
144
158
159
175
134
97
55
2
20
15
8
18
17
72
67
38
3
-36
0
8
23
46
57
93
102
68
36
-10
28
31
40
59
70
108
91
67
33
-9
24
39
44
68
72
110
95
71
22
-4
41
33
37
71
77
115
97
78
21
2
33
40
61
70
77
117
102
78
28
16
44
43
52
78
79
126
101
89
22
21
43
48
54
83
92
133
99
96
24
34
51
52
65
93
102
138
105
92
32
49
57
69
83
100
131
139
109
96
41
57
67
70
86
112
130
144
118
96
39
58
71
82
91
94
128
140
116
78
26
49
58
60
89
87
114
121
98
49
0
31
32
28
58
78
103
98
59
38
-7
24
32
36
57
55
90
90
54
24
-18
24
27
25
54
67
99
85
58
21
-26
5
23
42
52
47
98
88
56
17
-24
8
11
23
55
58
101
84
47
12
-20
3
16
31
52
57
93
80
53
7
-22
14
22
30
44
53
90
77
46
-2
-14
6
7
18
61
51
97
74
43
-3
-2
12
11
27
55
55
88
62
43
-5
-10
9
15
27
44
58
89
62
32
-16
-4
12
13
21
41
58
81
65
42
-17
-14
0
6
39
43
67
85
64
29
-22
9
10
11
23
42
80
91
57
46
-22
-5
14
12
37
54
83
90
62
32
-17
-3
11
21
40
52
86
87
50
22
-37
2
8
17
24
37
78
85
42
10
-34
-2
0
5
33
39
74
69
36
3
-42
-6
-5
5
32
42
73
71
40
-8
-45
-10
-2
2
38
39
71
58
23
-12
-46
-9
-10
12
29
45
102
109
89
62
49
88
98
102
101
77
108
81
41
-17
-56
-35
-45
-36
-12
-2
38
23
-8
-39
-52
-23
-20
11
20
30
76
60
33
-23
-24
-5
0
16
41
47
75
56
42
-19
-2
-1
0
18
36
48
78
54
43
-14
-3
9
5
22
45
58
84
43
37
-23
-3
13
7
26
40
61
84
55
38
-25
-4
11
20
24
37
75
90
62
38
-10
17
13
20
36
63
87
86
61
47
-12
17
22
35
53
59
91
97
59
37
-12
26
34
34
66
63
106
105
76
34
-1
32
39
46
68
78
101
99
77
34
2
33
35
45
70
72
103
94
63
24
-16
26
22
30
53
47
97
77
36
4
-41
8
11
12
25
28
73
57
33
-19
-44
-17
-14
6
21
16
68
53
30
-15
-44
-13
-16
-1
21
25
61
53
26
-21
-42
-12
-17
-5
20
24
56
46
29
-21
-34
-26
-15
-7
21
26
76
35
22
-33
-33
-9
-15
0
16
33
62
29
18
-36
-26
-10
-11
-2
18
41
60
37
19
-37
-39
-25
-3
4
26
39
69
32
17
-46
-36
-22
-7
10
37
42
48
23
3
-55
-17
-21
-16
9
14
50
61
16
-4
-57
-28
-16
-15
6
12
57
51
26
-7
-55
-35
-16
-20
7
24
46
48
16
-13
-59
-31
-27
-22
11
28
54
49
12
-26
-63
-27
-28
-14
12
19
52
37
-3
-12
-63
-21
-21
-5
10
13
58
54
19
-13
-54
-26
-28
-8
19
23
53
48
22
-29
-65
-30
-27
-1
15
6
48
36
9
-43
-66
-35
-32
-15
-1
8
47
35
14
-44
-62
-28
-35
-26
4
11
51
19
6
-44
-56
-35
-37
-12
4
1
45
22
-7
-45
-56
-41
-40
-27
-7
1
43
4
2
-47
-24
-7
10
35
73
101
153
114
70
8
11
0
-2
9
12
10
12
-22
-35
-106
-81
-74
-72
-45
-28
-6
21
-8
-25
-70
-42
-31
-31
-2
3
33
21
18
-12
-70
-29
-29
-31
-5
13
37
52
13
-18
-65
-37
-22
-22
-10
10
47
51
13
-28
-65
-19
-23
-22
8
15
48
40
16
-18
-67
-34
-23
-14
8
18
55
50
16
-31
-58
-18
-21
-18
3
19
65
50
20
-22
-55
-22
-14
-2
9
25
55
58
27
1
-47
-8
-4
12
32
35
73
56
37
-20
-33
8
2
16
45
34
82
68
47
-7
-24
9
6
20
33
45
84
63
48
-10
-22
5
0
11
33
37
71
52
29
-33
-39
-19
-12
-7
19
22
51
21
10
-47
-51
-31
-28
-23
3
12
43
16
-7
-69
-56
-25
-26
-23
-12
10
38
7
-11
-69
-50
-53
-33
-21
-8
31
35
7
-21
-74
-51
-43
-46
-13
1
24
44
1
-26
-88
-58
-32
-35
-10
-1
32
34
-9
-32
-73
-50
-33
-38
-19
-5
45
38
-3
-54
-75
-39
-44
-28
8
5
21
41
11
-33
-84
-44
-41
-32
-11
-3
24
32
1
-40
-88
-49
-49
-26
-11
-4
45
31
1
-48
-83
-58
-50
-29
-5
-1
35
17
-11
-51
-96
-51
-38
-27
-13
-22
44
22
-4
-59
-76
-38
-50
-33
-10
-15
33
12
-11
-64
-80
-40
-45
-34
-2
-8
33
14
-6
-54
-70
-44
-53
-29
-20
-8
37
17
-8
-51
-60
-38
-40
-25
-4
11
39
2
-17
-57
-56
-30
-42
-19
9
12
36
7
-16
-64
-53
-48
-38
-25
-8
4
23
1
-17
-87
-56
-42
-41
-28
-13
7
32
-8
-24
-84
-57
-46
-37
-16
-14
13
21
-5
-29
-77
-54
-50
-42
-21
-5
24
19
-16
-39
-97
-77
-51
-46
-28
-19
25
42
21
0
-41
12
40
38
76
88
107
59
32
-17
-67
-48
-64
-80
-60
-38
-11
-18
-52
-88
-130
-89
-74
-56
-41
-34
22
22
-15
-61
-97
-56
-51
-44
-32
-6
23
13
-5
-50
-91
-61
-52
-40
-20
-3
27
10
-9
-54
-81
-51
-53
-30
-9
-9
35
9
-9
-66
-71
-55
-62
-46
1
0
37
17
-14
-60
-69
-55
-46
-31
-14
-9
40
15
-3
-68
-67
-39
-44
-22
0
11
35
15
-2
-64
-57
-37
-20
-20
-2
21
49
22
-1
-54
-40
-20
-16
-10
13
32
55
27
19
-44
-30
-21
-19
2
7
34
74
37
3
-57
-23
-10
-18
13
22
44
63
23
-3
-55
-41
-28
-29
-2
7
28
35
0
-47
-76
-57
-46
-50
-30
-12
24
17
-9
-47
-102
-64
-59
-52
-37
-19
11
10
-20
-58
-114
-73
-74
-54
-34
-29
10
9
-25
-58
-108
-70
-66
-57
-35
-21
3
-10
-40
-66
-94
-69
-76
-59
-40
-22
18
2
-25
-71
-110
-64
-81
-51
-22
-12
10
8
-23
-72
-101
-69
-63
-56
-33
-21
23
-1
-29
-77
-101
-54
-60
-53
-29
-31
15
-4
-32
-80
-81
-73
-72
-56
-30
-14
21
-14
-30
-88
-87
-64
-56
-54
-30
-26
17
-17
-35
-79
-79
-77
-78
-48
-20
-14
14
-21
-42
-105
-77
-66
-62
-49
-34
-9
15
-23
-32
-99
-78
-73
-58
-46
-32
-12
6
-15
-46
-105
-78
-70
-61
-43
-29
-13
-4
-28
-44
-99
-64
-77
-63
-43
-27
-1
5
-24
-57
-110
-83
-72
-63
-36
-24
15
10
-17
-48
-98
-69
-70
-55
-24
-23
7
12
-22
-57
-104
-75
-62
-60
-39
-31
4
9
-28
-82
-117
-65
-70
-66
-45
-29
8
-8
-37
-65
-117
-78
-74
-71
-45
-25
10
-6
-39
-77
-118
-93
-70
-58
-44
-35
11
0
-38
-75
-113
-73
-82
-70
-46
-35
-4
-18
-50
-92
-106
-73
-64
-45
11
23
74
78
72
4
-8
-1
-23
-19
-8
-24
3
-35
-75
-134
-126
-112
-104
-93
-71
-56
-23
-38
-56
-109
-95
-86
-69
-60
-29
-18
8
-29
-49
-94
-85
-65
-70
-54
-34
-12
17
-18
-35
-99
-75
-61
-70
-49
-30
-10
12
-33
-27
-92
-76
-72
-54
-38
-30
6
13
-24
-45
-110
-66
-58
-47
-29
-19
1
12
-13
-53
-106
-71
-46
-42
-29
-23
23
14
-9
-49
-88
-55
-52
-46
-25
-19
21
21
-6
-49
-92
-45
-46
-34
-18
-4
37
34
-2
-45
-65
-37
-38
-14
-1
4
47
36
-11
-42
-66
-24
-32
-21
-5
7
47
34
11
-39
-78
-32
-41
-27
-9
4
33
26
-3
-48
-81
-58
-59
-48
-20
-22
20
5
-28
-69
-91
-62
-70
-61
-35
-30
8
-15
-33
-104
-106
-64
-69
-59
-43
-36
2
-14
-53
-91
-90
-82
-73
-62
-44
-29
-1
-37
-35
-94
-89
-71
-85
-73
-42
-24
6
-23
-42
-102
-88
-77
-62
-73
-44
-16
10
-12
-48
-108
-85
-74
-74
-55
-30
-21
1
-26
-45
-113
-83
-77
-66
-46
-43
-7
6
-29
-59
-109
-84
-83
-79
-39
-36
-14
-11
-22
-61
-110
-86
-84
-64
-49
-27
2
-6
-35
-67
-120
-89
-73
-72
-42
-29
-1
-11
-45
-73
-111
-82
-70
-64
-56
-39
-1
-9
-37
-80
-118
-84
-80
-70
-46
-47
1
-11
-44
-85
-119
-90
-85
-68
-54
-39
-3
-12
-53
-83
-120
-75
-78
-66
-51
-43
6
-10
-44
-97
-124
-78
-88
-58
-51
-41
-5
-8
-38
-92
-109
-78
-81
-66
-42
-33
13
-17
-42
-93
-97
-79
-81
-61
-37
-37
8
-22
-41
-97
-91
-72
-85
-71
-33
-32
4
-21
-45
-88
-93
-94
-74
-68
-44
-39
-5
-27
-47
-108
-99
-80
-78
-70
-51
-31
-10
-33
-55
-128
-96
-87
-84
-69
-45
-18
-2
-37
-60
-125
-100
-87
-72
-61
-50
-20
-16
-49
-69
-121
-88
-80
-53
-2
8
51
87
71
27
-30
-14
-34
-46
-28
-33
-8
-23
-68
-113
-162
-128
-117
-115
-83
-82
-40
-24
-71
-88
-124
-98
-83
-76
-48
-41
0
-16
-40
-81
-128
-83
-77
-76
-49
-40
9
-15
-51
-79
-120
-80
-83
-70
-39
-39
3
-8
-44
-91
-121
-77
-73
-66
-43
-40
-6
-14
-43
-84
-104
-76
-78
-57
-36
-34
13
-21
-25
-80
-102
-72
-71
-57
-38
-36
2
-8
-22
-89
-99
-68
-64
-47
-28
-21
15
-7
-36
-77
-78
-59
-53
-47
-21
-13
26
3
-16
-77
-76
-42
-36
-23
-1
6
24
0
-5
-73
-59
-39
-41
-38
-1
12
28
5
-13
-65
-57
-51
-30
-28
-11
18
25
-5
-39
-99
-71
-61
-61
-39
-31
-4
-7
-34
-54
-113
-83
-66
-70
-47
-50
-3
-20
-29
-68
-122
-100
-87
-82
-51
-44
-18
-22
-44
-78
-128
-84
-83
-83
-62
-47
-17
-22
-50
-91
-131
-89
-80
-74
-51
-52
-10
-11
-59
-81
-124
-98
-90
-69
-47
-45
-17
-18
-45
-86
-119
-88
-96
-79
-56
-43
-10
-21
-49
-80
-135
-87
-92
-77
-58
-50
-9
-21
-53
-96
-120
-89
-89
-81
-59
-55
-8
-24
-51
-103
-110
-87
-86
-71
-59
-47
-17
-28
-48
-100
-110
-86
-84
-85
-54
-39
-13
-36
-35
-107
-112
-97
-96
-78
-47
-37
-9
-32
-55
-111
-102
-90
-97
-69
-51
-42
-15
-41
-54
-130
-104
-81
-82
-72
-55
-35
-4
-42
-62
-127
-108
-91
-74
-62
-53
-39
-5
-31
-55
-121
-100
-84
-92
-66
-42
-16
-12
-46
-76
-132
-95
-79
-77
-54
-42
-31
-11
-36
-69
-117
-82
-80
-82
-59
-42
-18
-9
-35
-73
-120
-90
-85
-76
-52
-50
-8
-3
-46
-89
-121
-89
-81
-84
-56
-57
-9
-21
-52
-94
-140
-90
-86
-82
-64
-55
-11
-29
-63
-83
-126
-98
-93
-80
-64
-47
-27
-26
-56
-108
-133
-104
-95
-84
-64
-60
-12
-33
-64
-109
-124
-98
-89
-63
-36
-18
47
32
13
-17
-25
9
-7
-16
-21
-21
5
-26
-62
-126
-160
-142
-127
-114
-92
-100
-39
-62
-84
-126
-125
-110
-103
-70
-57
-38
-10
-35
-51
-108
-105
-84
-95
-78
-45
-40
-4
-34
-61
-116
-98
-87
-75
-62
-48
-35
-12
-39
-54
-112
-99
-84
-80
-59
-42
-29
-9
-32
-58
-112
-87
-80
-59
-50
-44
-21
3
-32
-59
-111
-96
-80
-66
-42
-40
1
9
-29
-72
-123
-80
-62
-56
-40
-33
3
9
-25
-60
-111
-80
-57
-53
-29
-25
14
14
-25
-59
-99
-52
-49
-42
-17
-17
29
29
-16
-46
-82
-57
-41
-34
-14
-7
32
23
-13
-59
-99
-47
-45
-26
-11
-10
20
9
-14
-49
-95
-63
-64
-51
-45
-36
11
-5
-29
-86
-120
-79
-80
-66
-48
-44
0
-27
-49
-101
-125
-93
-84
-75
-66
-47
0
-30
-52
-109
-115
-93
-88
-79
-44
-49
-24
-31
-57
-104
-105
-97
-91
-70
-55
-37
-5
-36
-59
-121
-102
-91
-81
-56
-56
-44
-15
-29
-56
-116
-101
-85
-84
-71
-50
-35
-13
-40
-56
-116
-100
-85
-82
-68
-48
-27
-22
-51
-52
-117
-99
-81
-89
-59
-42
-27
-10
-35
-69
-119
-92
-89
-86
-60
-42
-15
-18
-46
-76
-128
-91
-93
-79
-56
-45
-23
-23
-45
-80
-126
-87
-89
-79
-61
-42
-19
-24
-47
-89
-137
-94
-95
-79
-53
-50
-19
-25
-60
-85
-116
-93
-94
-83
-58
-42
-14
-18
-52
-90
-130
-93
-95
-86
-55
-42
-9
-31
-56
-100
-123
-92
-95
-69
-57
-49
-9
-31
-53
-94
-124
-96
-84
-72
-54
-50
-7
-28
-57
-110
-112
-86
-86
-65
-45
-45
-1
-21
-55
-102
-107
-78
-78
-70
-50
-48
-6
-24
-45
-110
-94
-84
-84
-81
-42
-41
-8
-40
-57
-113
-107
-93
-95
-77
-54
-34
-25
-39
-52
-119
-101
-90
-94
-80
-55
-27
-12
-46
-61
-118
-106
-85
-86
-74
-53
-32
-11
-49
-80
-130
-101
-94
-91
-72
-53
-19
-18
-35
-41
-84
-50
-19
6
39
49
69
52
-7
-44
-90
-89
-76
-82
-100
-88
-59
-49
-79
-120
-161
-136
-117
-102
-79
-66
-19
-24
-49
-89
-133
-97
-88
-55
-50
-46
-11
-10
-43
-82
-122
-86
-87
-74
-38
-46
-1
-15
-42
-77
-130
-89
-75
-62
-36
-40
4
-18
-44
-74
-111
-79
-77
-59
-37
-40
3
-7
-41
-75
-115
-84
-79
-50
-28
-37
4
-9
-37
-76
-99
-71
-71
-56
-28
-29
5
1
-15
-77
-96
-72
-71
-48
-8
-4
17
6
-19
-65
-80
-53
-42
-31
-6
-10
27
9
-16
-65
-67
-46
-46
-22
-1
17
37
14
-5
-57
-52
-40
-40
-25
-4
16
20
8
-12
-66
-54
-50
-50
-38
-13
8
20
-8
-28
-89
-80
-73
-65
-42
-27
4
-5
-27
-57
-114
-88
-75
-73
-55
-37
-10
-11
-37
-70
-124
-100
-77
-76
-54
-42
-8
-23
-46
-74
-117
-85
-83
-84
-49
-47
6
-7
-45
-87
-120
-87
-85
-68
-52
-48
-11
-15
-47
-73
-112
-87
-86
-74
-46
-36
-2
-16
-39
-75
-118
-88
-88
-67
-46
-39
1
-14
-46
-81
-118
-78
-88
-68
-47
-53
-6
-18
-38
-92
-106
-75
-81
-69
-51
-44
6
-17
-40
-92
-118
-89
-81
-68
-53
-44
4
-27
-38
-92
-107
-89
-83
-69
-47
-35
1
-23
-44
-101
-106
-86
-88
-67
-46
-43
-3
-24
-50
-98
-102
-81
-77
-64
-47
-34
-10
-39
-53
-117
-95
-86
-73
-61
-45
-36
-18
-27
-56
-108
-88
-75
-75
-66
-39
-13
-8
-37
-49
-109
-97
-76
-81
-54
-41
-12
8
-31
-53
-102
-78
-67
-72
-54
-43
-3
0
-38
-66
-108
-86
-87
-64
-32
-40
5
-3
-39
-65
-107
-80
-76
-64
-51
-44
-10
-10
-44
-76
-124
-92
-81
-75
-47
-33
0
-3
-41
-76
-116
-96
-79
-72
-50
-41
-8
-12
-44
-88
-123
-87
-87
-55
-49
-44
-1
-18
-49
-94
-131
-93
-89
-65
-43
-30
14
23
2
-29
-37
5
14
21
43
11
38
21
-22
-80
-121
-103
-122
-107
-78
-75
-30
-60
-70
-131
-136
-110
-117
-65
-44
-41
-3
-35
-39
-95
-95
-74
-70
-54
-49
-30
5
-21
-31
-94
-98
-65
-61
-54
-44
-21
7
-25
-29
-92
-79
-68
-65
-52
-29
-18
10
-23
-43
-94
-81
-60
-56
-52
-25
10
8
-18
-32
-96
-82
-54
-46
-38
-24
14
18
-17
-37
-91
-68
-64
-54
-18
-16
15
28
-6
-31
-87
-62
-36
-56
-11
-10
26
34
-1
-33
-83
-43
-37
-24
-1
-2
49
50
-1
-27
-76
-30
-21
-20
4
8
50
53
13
-23
-73
-37
-24
-22
-1
-2
40
44
11
-33
-85
-47
-48
-39
-17
-10
25
17
-6
-55
-98
-71
-64
-46
-30
-27
17
0
-31
-73
-106
-71
-82
-62
-47
-43
5
-11
-32
-82
-101
-73
-73
-59
-41
-32
5
-15
-47
-81
-105
-80
-71
-62
-37
-39
5
-26
-28
-88
-93
-72
-67
-65
-25
-17
1
-11
-35
-101
-94
-75
-66
-46
-41
-23
13
-18
-41
-96
-79
-57
-55
-49
-27
-12
11
-22
-35
-98
-82
-74
-53
-58
-23
-5
7
-17
-36
-102
-74
-71
-69
-40
-38
-8
9
-32
-47
-103
-80
-70
-60
-34
-24
9
9
-26
-54
-99
-77
-64
-65
-42
-27
9
7
-32
-59
-106
-78
-83
-53
-16
-31
5
4
-35
-59
-106
-75
-65
-59
-41
-35
6
-5
-34
-65
-109
-74
-75
-61
-32
-36
4
9
-20
-64
-109
-72
-72
-67
-35
-22
10
12
-30
-68
-98
-65
-56
-51
-38
-14
20
0
-29
-76
-101
-63
-65
-42
-27
-23
25
4
-26
-83
-102
-68
-67
-55
-37
-28
4
-14
-35
-79
-97
-64
-69
-53
-39
-32
14
-21
-26
-82
-96
-77
-64
-63
-34
-30
18
-12
-38
-88
-90
-67
-63
-55
-31
-22
8
-26
-39
-103
-91
-77
-70
-65
-30
-17
0
-18
-21
-74
-45
-12
4
34
72
89
87
38
18
-45
-39
-47
-53
-57
-59
-45
-49
-54
-85
-137
-111
-85
-86
-44
-42
-19
6
-25
-56
-103
-78
-64
-61
-37
-21
19
10
-13
-57
-104
-58
-67
-59
-27
-20
7
7
-22
-49
-93
-55
-59
-57
-21
-13
15
18
-23
-52
-93
-61
-52
-26
-19
-11
23
11
-14
-51
-92
-52
-46
-32
-19
-14
25
20
-10
-50
-83
-44
-48
-37
-26
-9
31
24
-1
-47
-84
-51
-43
-13
-9
-4
44
21
1
-43
-62
-35
-44
-13
19
19
55
28
14
-27
-55
-24
-23
1
13
20
56
42
13
-36
-36
-27
-26
1
27
23
59
29
12
-48
-41
-29
-21
-12
5
13
48
19
-19
-65
-52
-49
-36
-19
-15
-1
27
-4
-19
-89
-93
-53
-44
-48
-6
5
23
-5
-24
-98
-86
-67
-53
-31
-16
0
21
-18
-42
-95
-73
-47
-51
-31
-26
6
15
-10
-44
-100
-76
-46
-44
-26
-18
10
6
-11
-55
-98
-57
-47
-54
-23
-23
11
19
-13
-53
-99
-66
-60
-52
-14
-5
20
6
-12
-48
-91
-55
-59
-48
-34
-21
6
24
-10
-63
-94
-53
-53
-43
-26
-14
20
10
-16
-64
-114
-41
-55
-50
-22
-23
20
2
-24
-70
-95
-50
-50
-52
-36
-11
26
8
-17
-63
-95
-68
-67
-33
-15
-20
21
10
-22
-63
-90
-61
-62
-49
-15
-11
21
4
-18
-83
-78
-57
-54
-45
-18
-6
27
-11
-24
-74
-68
-46
-52
-26
-15
-1
17
-3
-15
-63
-61
-46
-47
-31
-13
5
25
-6
-15
-68
-68
-59
-48
-37
-11
5
19
-18
-31
-74
-71
-56
-52
-44
-27
9
19
-8
-36
-82
-57
-63
-59
-27
-10
10
5
-3
-42
-101
-69
-56
-46
-35
-18
16
18
-16
-50
-88
-63
-63
-52
-24
-25
12
24
6
-21
-49
-10
9
36
74
72
103
85
38
-19
-60
-51
-50
-54
-51
-61
-30
-28
-52
-87
-123
-89
-81
-51
-38
-25
15
1
-11
-58
-103
-50
-52
-44
-14
-5
26
10
-13
-63
-94
-43
-51
-35
-16
-12
34
17
0
-62
-86
-42
-50
-35
2
-8
32
18
-6
-53
-68
-38
-35
-34
-7
2
32
22
-7
-70
-69
-46
-36
-19
-7
3
46
23
1
-58
-58
-34
-37
-9
13
21
43
21
5
-60
-48
-25
-28
-13
12
33
51
32
16
-48
-25
-11
-11
2
25
39
63
40
25
-40
-18
-7
-11
8
31
42
76
41
17
-47
-10
-3
9
23
37
50
60
29
11
-39
-10
-14
-15
17
25
40
47
19
-17
-66
-31
-27
-29
1
1
27
20
8
-29
-80
-48
-47
-36
-19
-3
12
16
-8
-51
-72
-53
-37
-31
-10
-10
32
21
-1
-45
-92
-51
-45
-35
-13
-4
30
20
-10
-48
-82
-47
-37
-34
-9
-7
37
21
-4
-51
-77
-50
-50
-36
-15
-12
34
27
5
-59
-72
-38
-47
-28
-12
-18
34
25
-10
-52
-79
-40
-46
-26
-7
-14
39
22
-8
-56
-62
-36
-45
-34
-1
2
38
14
-8
-58
-57
-50
-40
-24
-8
-5
38
12
-9
-57
-58
-40
-36
-28
-7
1
33
16
-8
-69
-66
-49
-42
-24
-4
18
30
7
-7
-70
-42
-40
-36
-16
-2
13
42
7
-19
-90
-46
-33
-42
-11
4
31
45
15
-31
-79
-32
-35
-27
2
6
28
35
-1
-22
-65
-43
-43
-29
-2
-3
35
36
1
-31
-82
-40
-45
-38
-7
-5
39
29
-5
-46
-102
-47
-31
-16
-18
-5
23
30
-7
-39
-74
-44
-43
-29
-8
-5
29
23
-17
-54
-78
-47
-46
-33
-18
-6
26
20
-1
-54
-70
-26
-24
5
44
65
113
113
86
43
-8
-2
-20
8
16
10
31
-10
-51
-104
-123
-89
-69
-58
-36
-35
21
4
-15
-68
-64
-51
-50
-31
-4
-3
44
16
1
-59
-55
-37
-33
-22
-4
13
48
19
-9
-62
-44
-35
-23
-20
-1
22
44
18
2
-60
-38
-30
-22
-11
6
29
44
14
4
-50
-37
-32
-27
-3
16
25
48
10
-8
-47
-31
-21
-12
10
24
43
56
20
-1
-51
-30
-25
3
16
27
59
57
25
1
-53
-12
3
5
30
37
67
77
43
2
-40
-12
-3
12
47
47
75
74
46
12
-32
-3
-1
13
36
43
83
76
41
8
-34
7
-5
7
20
30
67
64
36
-8
-59
-15
-16
-7
6
19
58
44
9
-28
-71
-34
-36
-27
-3
17
47
33
5
-47
-81
-33
-38
-24
-15
-4
45
25
1
-54
-72
-35
-34
-32
-17
-3
54
34
-4
-58
-68
-36
-33
-20
-7
-1
46
24
7
-51
-58
-34
-28
-25
3
9
43
16
-5
-57
-42
-33
-36
-22
8
18
43
13
-6
-60
-44
-32
-27
-13
-3
20
46
22
-3
-60
-52
-41
-18
-18
7
31
48
17
-11
-69
-51
-29
-26
-4
6
25
44
9
-11
-68
-49
-30
-29
-5
10
32
37
11
-22
-73
-42
-31
-37
-2
8
38
40
3
-36
-60
-26
-22
-27
-2
2
39
44
10
-20
-67
-29
-33
-19
0
5
58
45
14
-20
-60
-33
-26
-15
2
10
51
35
9
-37
-67
-38
-29
-24
-4
1
45
31
0
-37
-77
-38
-42
-28
-4
11
52
27
8
-42
-70
-40
-41
-21
-6
3
46
26
0
-50
-77
-34
-33
-26
-4
6
47
22
-5
-57
-64
-46
-49
-17
-4
5
53
24
21
-1
-3
35
57
81
95
95
110
67
39
-30
-34
-29
-58
-62
-46
-25
12
-17
-39
-97
-89
-57
-46
-29
-7
5
30
17
-8
-54
-48
-35
-16
-12
13
29
48
19
10
-53
-37
-24
-24
-7
11
39
62
18
-1
-54
-36
-17
-19
24
21
48
50
29
-10
-58
-35
-14
-4
20
17
54
55
16
-26
-60
-6
-11
-6
21
28
65
63
28
-7
-57
-17
-6
2
24
36
75
56
28
-3
-45
-7
5
17
33
37
84
70
33
2
-30
7
14
16
45
51
92
79
49
12
-28
-8
24
39
48
60
98
83
51
10
-23
17
14
34
51
51
92
88
56
-10
-32
6
7
13
40
37
76
54
17
-32
-34
-13
-13
-6
17
17
54
41
21
-40
-46
-23
-28
-2
10
18
36
25
8
-46
-41
-28
-24
-16
5
28
51
16
16
-51
-43
-26
-21
-7
14
31
54
21
3
-61
-30
-22
-23
-8
12
38
61
18
4
-53
-26
-28
-15
6
18
35
53
24
2
-64
-42
-19
-10
17
21
48
52
16
-6
-61
-29
-20
-6
7
11
41
59
19
-9
-53
-27
-24
-13
14
17
49
45
13
-18
-59
-24
-30
-15
13
22
54
41
11
-17
-54
-39
-26
-4
10
15
48
46
15
-21
-63
-28
-28
-1
9
22
64
49
22
-23
-58
-12
-20
-6
10
14
68
52
18
-35
-57
-9
-17
-6
12
20
68
44
16
-34
-49
-24
-34
-19
6
5
50
38
11
-39
-57
-14
-23
-8
13
13
54
25
11
-45
-54
-36
-30
-5
-3
30
64
29
9
-44
-43
-22
-12
-26
4
15
48
24
9
-61
-50
-37
-29
-10
15
47
66
56
61
5
35
72
77
92
82
84
88
61
30
-36
-37
-47
-65
-45
-17
9
20
-17
-38
-91
-57
-46
-31
7
3
41
37
10
-17
-53
-21
-10
-11
10
15
53
62
19
-9
-51
-22
-16
-4
19
17
50
55
41
-13
-54
-14
-8
4
15
18
63
55
32
-7
-55
-14
-3
6
24
33
75
59
23
-18
-58
-14
-11
1
31
30
61
60
39
0
-43
-3
-3
17
42
35
78
65
42
3
-34
8
1
21
50
48
93
68
50
9
-11
22
19
27
46
56
102
85
60
-5
-3
24
25
38
51
69
99
82
55
-13
1
31
20
27
43
54
109
76
38
-16
0
14
5
18
44
51
80
39
28
-29
-27
-5
0
3
25
33
61
30
7
-46
-26
-13
-6
-2
17
32
60
24
6
-41
-42
-29
-11
5
26
45
52
28
5
-56
-29
-16
-15
16
22
38
39
24
7
-51
-22
-23
-11
24
15
47
45
24
-1
-43
-20
-15
0
22
23
60
56
16
-11
-51
-22
-9
-9
14
30
59
50
34
-18
-54
-11
-17
-5
19
25
54
47
21
-9
-53
-26
-9
-15
14
31
69
50
21
-25
-50
-22
-23
-7
20
18
63
60
24
-23
-50
-21
-15
-12
13
20
66
54
24
-28
-50
-20
-22
0
26
20
69
42
16
-36
-50
-6
-6
0
18
26
70
54
19
-25
-38
-19
-3
3
27
32
76
37
27
-29
-40
-12
-6
9
16
42
72
33
15
-42
-42
-17
-14
3
20
37
75
33
11
-51
-28
-14
-22
3
13
40
54
23
8
-46
-32
-11
-10
1
25
47
58
33
9
-59
-28
-12
-19
6
11
39
57
24
-4
-48
-17
10
24
60
89
129
153
126
87
32
37
30
27
47
33
56
24
-21
-49
-83
-55
-54
-42
-18
5
36
28
15
-15
-48
-27
-15
-9
23
25
66
57
27
-5
-52
-15
-14
-2
16
36
80
53
31
-13
-49
-11
-11
6
22
24
80
69
36
-17
-43
-7
-6
11
33
33
72
55
34
-13
-28
4
-8
8
34
31
84
65
37
-23
-26
7
8
23
40
50
88
61
45
-7
-18
2
18
34
50
56
91
65
48
-9
3
19
32
46
68
73
98
72
54
-3
18
35
38
54
71
82
107
72
66
10
30
37
30
42
69
87
109
85
46
-5
28
35
31
43
55
85
101
65
39
-34
0
16
4
31
46
68
75
46
18
-34
-15
-4
0
30
38
63
80
32
0
-51
-24
-5
5
22
34
64
60
32
-9
-57
-2
-17
5
36
27
64
64
26
-18
-40
-13
1
2
37
30
62
62
34
-4
-47
-3
-5
5
18
37
73
66
31
-18
-42
-6
-4
11
34
33
68
51
30
-10
-44
-6
-8
10
21
28
71
51
9
1
-37
-2
1
14
31
33
71
56
40
-12
-35
-17
-9
14
34
25
62
56
25
-19
-23
0
-2
10
27
25
73
49
31
-25
-31
-12
-12
14
31
37
75
42
33
-29
-26
-10
-5
19
36
38
84
49
38
-27
-13
5
11
19
42
61
75
43
28
-27
-8
-7
8
33
33
59
76
46
24
-32
-5
3
5
24
40
63
61
33
5
-45
-15
-2
-5
31
41
62
64
44
4
-37
-33
-9
7
24
36
69
64
32
-5
-52
-14
-10
0
28
33
65
62
21
-10
-51
-13
-8
-1
29
20
62
57
40
20
-18
47
55
80
114
126
168
144
93
28
-17
8
-7
9
-2
-17
19
20
-7
-46
-77
-43
-30
-12
15
15
54
52
27
-27
-56
-7
7
19
30
23
83
57
37
-7
-36
1
-8
5
37
41
77
53
35
-9
-18
-7
-4
18
41
41
83
57
33
-21
-22
8
7
12
40
58
76
52
46
-23
-11
16
12
15
50
71
87
55
26
-15
3
21
27
30
47
66
95
73
32
-22
14
24
27
38
57
85
99
71
48
-27
18
28
36
52
63
96
112
78
43
0
33
36
40
67
74
108
115
79
45
-3
40
40
44
66
78
110
110
74
30
-3
20
20
32
66
58
90
89
56
11
-34
-3
0
18
45
45
77
65
42
1
-47
-12
-6
11
32
35
72
58
41
-8
-55
0
5
11
28
26
70
56
30
-22
-51
4
-7
9
32
33
73
51
27
-8
-41
-6
-12
-3
15
30
80
55
30
-26
-32
-2
-7
7
31
34
74
46
32
-12
-22
-9
-3
4
36
40
73
49
26
-28
-25
-8
-3
8
23
34
64
39
34
-29
-31
-5
-5
17
32
46
70
42
27
-36
-15
-11
-9
6
34
54
71
42
23
-41
-24
-19
-3
-2
31
62
63
36
16
-25
-17
-7
-1
19
21
58
63
24
3
-34
-1
-2
-3
18
33
69
65
34
-2
-49
-17
1
8
27
34
71
68
41
-4
-46
-7
-2
3
34
34
69
65
40
6
-44
-2
0
9
36
38
72
53
36
-7
-42
-15
-6
-1
18
32
76
58
28
-4
-48
-22
-15
1
26
34
64
51
22
-20
-43
-21
-9
2
29
37
61
44
14
-34
-46
-10
-6
4
17
28
52
40
21
-18
-35
-19
-15
9
38
60
105
95
99
61
64
89
92
86
82
70
102
65
28
-31
-52
-58
-50
-29
-8
-4
34
9
2
-53
-32
-23
-18
7
13
50
66
37
21
-47
-20
-3
2
22
43
52
71
43
21
-31
-13
7
4
15
34
58
66
44
24
-29
-1
0
-4
24
42
68
88
43
15
-30
-10
-5
8
39
39
74
76
45
11
-35
-6
7
18
42
43
82
75
38
7
-23
2
20
24
36
51
92
89
53
10
-20
12
19
21
64
71
99
82
66
30
-23
26
38
44
60
59
107
102
71
30
0
27
30
38
76
73
104
87
70
26
-18
41
30
42
64
70
104
87
65
16
-13
8
12
28
39
35
88
69
37
-9
-26
-4
5
18
30
21
78
58
21
-34
-30
-14
-20
-1
33
39
72
37
22
-31
-34
-18
-8
-3
29
35
64
42
28
-44
-37
-21
-3
9
36
41
72
37
20
-44
-19
-7
-5
-1
26
52
58
30
23
-41
-22
-11
-7
4
27
49
72
42
13
-49
-10
-14
-6
18
42
57
61
13
6
-40
-18
-5
-4
18
19
74
62
36
12
-50
-21
-10
-4
18
30
56
53
17
-9
-48
-15
-13
-2
12
26
70
50
24
-7
-52
-20
-12
-7
16
27
69
50
22
-22
-62
-16
-8
1
14
29
62
53
18
-24
-54
-16
-16
-15
14
24
65
62
24
-25
-59
-13
-13
-3
21
30
60
45
29
-18
-45
-13
-7
4
17
26
64
42
28
-31
-43
0
-16
1
27
25
64
52
19
-35
-44
-23
-23
0
15
13
56
33
12
-44
-39
-20
-21
-3
12
16
59
33
11
-45
-39
-21
-16
-16
15
32
54
31
8
-48
-31
-30
-25
-8
18
36
50
18
3
-69
-36
-30
-20
1
27
71
91
70
68
35
73
77
63
73
65
84
88
39
-2
-69
-56
-55
-56
-22
-15
12
20
-15
-44
-85
-51
-42
-27
12
12
48
46
18
-20
-54
-28
-13
-22
10
28
58
46
17
-9
-59
-16
-12
-13
4
34
64
52
22
-17
-55
-23
-18
-17
30
19
57
59
20
-12
-51
-12
-1
5
18
23
66
59
22
-11
-47
-7
-21
3
35
33
80
53
31
-13
-45
-12
-3
13
32
33
77
54
35
-9
-24
2
-4
10
41
49
81
63
54
0
-17
12
10
26
54
64
103
74
50
-2
-4
28
27
33
51
65
97
82
54
-14
0
19
24
32
50
58
91
63
34
-21
-8
-4
-3
16
29
41
67
38
20
-49
-27
-18
-15
6
22
41
53
20
-1
-53
-34
-23
-27
2
24
37
40
28
-15
-70
-32
-12
-9
8
13
40
46
13
-20
-71
-39
-28
-15
-1
7
44
52
16
-32
-70
-36
-21
-11
6
12
41
49
18
-25
-65
-37
-31
-12
8
11
54
48
17
-24
-71
-26
-21
-27
11
17
49
53
4
-29
-64
-22
-28
-12
6
19
56
43
7
-26
-70
-32
-27
-13
19
13
54
27
4
-36
-50
-27
-33
-9
1
13
54
36
15
-45
-63
-28
-33
-21
11
14
67
26
-7
-49
-50
-22
-30
-14
12
13
45
21
12
-52
-48
-28
-20
-10
5
29
44
23
3
-49
-43
-13
-16
1
18
39
55
18
8
-61
-32
-20
-18
-6
15
41
55
17
1
-45
-31
-24
-22
-6
10
36
48
12
-13
-56
-41
-26
-16
1
7
30
47
15
-24
-66
-34
-22
-35
5
15
36
28
7
-15
-67
-40
-30
-32
10
9
37
41
4
-30
-70
-38
-31
-22
-18
1
38
38
-1
-42
-79
-37
-23
0
52
65
108
117
90
72
16
29
10
13
39
30
57
20
-25
-72
-111
-76
-67
-48
-32
-36
24
21
-14
-70
-79
-44
-38
-22
-2
6
49
32
15
-40
-75
-31
-32
-10
4
9
56
39
9
-44
-53
-23
-25
-3
5
6
56
40
7
-42
-41
-18
-13
-4
18
18
68
30
18
-56
-43
-6
-7
-3
28
35
58
36
11
-33
-33
-21
-9
7
24
36
65
34
24
-36
-20
-8
1
16
33
57
74
45
26
-44
-7
5
19
24
47
66
85
62
31
-26
12
22
25
33
60
77
86
65
36
-20
12
15
25
52
59
74
89
55
18
-35
8
6
14
46
39
70
67
37
4
-44
-7
-3
1
22
19
54
45
14
-10
-56
-29
-24
-19
4
1
53
57
6
-36
-68
-31
-27
-23
-1
9
47
37
15
-36
-72
-36
-38
-20
4
14
46
34
6
-43
-76
-43
-32
-18
6
19
50
18
14
-37
-67
-33
-28
-11
3
6
49
22
11
-37
-73
-20
-28
-21
7
6
56
36
9
-56
-54
-22
-24
-12
12
17
51
26
7
-47
-42
-29
-24
-13
1
30
61
33
2
-55
-40
-32
-28
-6
16
18
44
17
3
-60
-42
-35
-13
-3
18
21
42
17
-1
-61
-41
-31
-9
-13
5
44
44
2
1
-64
-37
-29
-20
-4
17
40
44
16
-11
-68
-34
-30
-34
8
15
40
46
30
-17
-70
-32
-26
-15
18
9
44
50
22
-13
-71
-29
-17
-10
6
6
41
52
17
-15
-63
-21
-15
-23
6
20
47
38
20
-26
-75
-30
-27
-22
-9
6
59
37
9
-34
-69
-36
-35
-19
0
-4
48
35
4
-40
-74
-34
-35
-19
3
7
48
30
4
-40
-68
-45
-32
-21
-9
6
40
30
8
-55
-78
-29
-14
-4
50
67
126
120
109
55
36
43
15
28
41
31
59
16
-22
-87
-91
-59
-68
-53
-28
-7
16
-3
-1
-66
-55
-38
-24
-13
8
18
51
30
8
-48
-45
-24
-23
-5
18
27
62
26
-1
-52
-35
-26
-13
-4
26
54
52
22
0
-47
-28
-8
-11
14
20
58
54
29
-6
-66
-24
-13
1
22
28
52
56
28
2
-52
-19
-1
-1
24
35
61
61
22
1
-53
-3
-4
11
30
44
67
65
28
7
-27
1
18
15
41
45
80
83
54
10
-33
2
13
36
43
55
104
91
36
13
-24
23
25
33
44
56
96
87
60
12
-26
1
5
19
49
49
90
75
38
-14
-48
-8
-19
7
26
29
76
40
14
-35
-48
-16
-19
1
17
14
54
38
12
-42
-46
-22
-21
-15
9
18
52
29
9
-46
-52
-37
-17
-8
7
24
45
34
9
-44
-36
-23
-19
-14
10
19
40
33
15
-48
-45
-21
-23
-4
14
42
59
27
11
-46
-27
-17
-19
-6
24
32
50
36
0
-65
-32
-17
-18
-2
9
54
57
30
-5
-59
-27
-17
-9
9
4
36
65
26
-11
-56
-23
-14
-27
1
26
53
58
23
-10
-71
-27
-22
-13
17
16
48
52
27
-20
-66
-26
-19
-14
5
15
53
47
16
-21
-64
-29
-25
-23
13
20
58
43
30
-21
-56
-27
-33
-4
6
18
67
45
29
-37
-66
-21
-32
-8
20
15
63
41
16
-24
-57
-10
-29
-5
22
25
67
50
11
-36
-44
-12
-18
-7
16
24
59
49
27
-23
-41
-24
-13
5
27
30
64
33
5
-44
-40
-29
-10
-7
-3
26
65
23
9
-41
-35
-22
-22
-6
26
27
56
27
7
-46
-41
-23
-14
-13
21
36
52
27
8
-55
-32
-20
-29
-16
13
42
61
21
9
-50
-18
8
24
51
91
133
144
129
88
20
30
13
21
34
17
45
35
-17
-51
-102
-57
-48
-44
-20
-5
32
33
10
-24
-60
-23
-17
-7
9
31
67
55
24
-11
-51
-11
-4
-9
23
24
69
63
31
-11
-55
-13
-17
2
28
27
74
58
33
-9
-50
-26
-10
9
23
37
72
59
39
-18
-43
-5
-3
13
24
34
81
60
37
-13
-47
3
-1
9
27
40
86
71
37
-12
-24
5
10
32
40
52
99
68
52
-5
-21
21
24
29
50
50
94
84
65
-8
4
24
33
53
60
80
110
78
63
3
9
28
38
35
69
79
115
76
65
-13
10
10
36
40
62
72
88
52
69
-12
-12
3
8
26
47
54
73
40
22
-47
-23
-6
12
18
32
55
59
36
11
-46
-19
-17
-4
25
37
57
62
24
-7
-39
-33
-2
-4
26
29
61
60
22
1
-45
-31
-8
10
26
18
67
75
28
-5
-45
-8
-4
-1
25
34
67
66
28
-16
-46
-18
-9
1
17
30
76
72
34
-17
-52
-12
-14
2
19
35
67
56
37
-11
-51
-10
-11
9
26
25
68
59
33
-13
-46
-11
-12
11
28
31
75
55
28
-32
-38
-12
-3
9
21
26
72
45
37
-22
-40
-15
-8
7
23
30
73
49
27
-33
-33
-3
-12
-5
29
33
73
32
25
-18
-19
-16
-2
6
27
38
75
38
32
-28
-28
-6
-3
-1
31
52
70
41
23
-34
-30
-6
0
3
33
49
75
44
22
-41
-17
-6
-2
24
34
49
67
45
18
-30
-10
3
5
32
41
68
72
40
9
-40
-14
5
11
43
42
72
72
40
-8
-44
-8
-4
-3
26
30
68
62
27
9
-46
-20
-17
6
29
40
68
53
38
-9
-51
-3
-5
3
27
24
73
58
30
-7
-60
0
-1
-1
15
20
75
60
26
-19
-59
-13
-12
-10
36
51
110
96
88
69
45
99
91
82
108
82
110
84
43
-5
-52
-44
-47
-39
-2
-3
43
26
-2
-47
-48
-20
-21
4
27
34
73
45
28
-26
-24
-1
1
16
36
46
74
57
38
-19
-14
1
0
21
40
52
79
54
38
-22
-7
6
11
28
44
57
82
51
38
-18
-3
12
13
12
50
71
82
54
50
-14
-9
13
27
38
54
70
81
66
32
-21
6
21
31
62
54
83
93
66
38
-11
19
27
39
59
59
93
104
74
50
1
38
44
43
79
86
109
100
87
44
1
37
49
47
79
89
114
112
81
46
0
42
42
50
68
91
112
93
71
38
0
28
30
35
46
56
98
91
52
10
-28
11
5
20
41
47
82
76
31
-10
-37
-3
8
22
47
41
81
61
41
-16
-40
-6
-6
12
39
37
78
64
33
-18
-28
-2
-3
12
43
47
84
57
34
-24
-16
2
-2
20
45
48
81
53
39
-21
-16
-1
11
16
34
49
85
57
38
-28
-12
4
15
26
26
66
76
55
39
-26
-11
1
12
19
47
66
80
56
35
-31
4
-2
17
33
48
66
79
55
23
-36
-13
-1
5
36
55
70
68
40
12
-27
8
7
17
40
40
74
71
40
19
-34
-10
-5
4
40
57
77
80
49
8
-44
2
11
25
40
43
79
67
41
-3
-33
3
6
13
33
39
92
75
39
2
-48
-8
5
12
44
50
82
66
33
0
-30
2
3
23
41
43
85
66
35
-6
-30
10
8
19
41
44
85
65
39
-4
-22
9
1
29
49
46
89
73
46
-10
-14
14
10
25
45
61
91
63
30
-7
-11
9
17
26
47
53
84
68
39
-14
-11
5
11
28
42
50
83
55
31
-20
-7
2
4
18
43
57
73
53
43
-28
-2
-4
12
27
40
60
81
37
23
-22
0
9
13
21
36
51
83
55
14
-40
9
30
38
75
90
138
161
152
106
50
67
50
58
73
62
80
67
17
-25
-75
-45
-28
-19
2
3
55
58
15
-20
-41
2
2
6
43
53
85
71
40
4
-20
7
18
26
40
50
86
76
62
9
-26
15
10
27
44
49
95
70
57
10
-26
10
22
34
44
51
90
76
65
10
-19
15
22
41
60
56
105
85
61
10
-6
18
29
42
70
66
105
90
63
12
-3
22
30
34
73
77
114
90
78
22
19
39
44
47
74
85
125
95
81
26
30
52
59
73
91
104
121
96
88
32
41
53
58
66
93
111
120
100
83
17
38
51
70
66
81
100
119
99
63
-1
12
38
37
53
65
90
97
61
28
-22
9
25
23
44
50
83
83
49
21
-29
2
10
22
35
46
87
77
48
8
-40
7
7
29
42
45
86
89
48
9
-33
9
6
26
44
57
89
77
50
4
-38
6
16
15
44
48
84
77
54
11
-34
9
1
26
39
46
85
71
51
10
-24
16
16
10
44
51
101
84
49
-6
-32
17
18
26
41
50
93
77
52
-1
-17
9
11
30
50
51
89
67
50
-7
-22
13
17
28
50
52
91
65
41
-3
-6
0
17
34
52
68
91
44
41
-11
-2
13
17
26
42
68
84
59
49
-15
2
20
10
26
44
61
92
60
41
-18
1
11
14
23
52
63
99
62
36
-21
-1
13
23
36
56
80
77
62
32
-16
1
16
26
44
58
81
95
52
23
-12
13
29
34
58
52
84
88
62
21
-17
22
21
18
42
61
102
95
55
18
-26
9
9
14
45
50
94
79
52
21
-27
3
8
30
40
40
79
81
53
11
-22
10
14
21
44
51
83
62
45
13
-32
6
8
13
45
56
84
59
50
-5
-25
-2
-2
20
42
63
123
112
105
76
73
114
110
112
110
84
121
109
60
1
-22
-27
-23
-13
12
28
61
29
3
-38
-43
-10
15
22
43
59
84
65
47
-20
5
16
15
28
48
64
97
72
54
-14
5
19
19
37
64
79
97
63
45
-6
6
31
37
45
68
93
105
66
42
-8
17
28
30
52
54
99
102
64
46
-15
31
33
28
61
63
106
107
80
43
-5
23
33
44
59
70
102
105
75
43
8
48
55
52
75
93
121
121
87
50
14
50
52
66
81
99
135
128
102
53
22
53
52
75
86
102
134
128
98
56
16
50
59
72
92
85
127
113
92
39
8
46
34
40
80
72
119
89
71
21
-13
21
25
41
55
64
96
74
56
2
-15
11
12
35
48
51
96
67
55
2
-7
4
12
30
48
57
98
70
46
-16
-5
5
19
27
49
62
94
69
53
-15
5
10
19
38
46
67
93
61
42
-5
3
10
22
40
63
63
87
72
61
-16
9
29
27
36
55
75
93
62
37
-15
1
29
29
49
53
81
95
65
38
-29
10
23
24
43
47
101
88
65
29
-20
3
18
32
55
50
89
83
58
23
-17
10
23
28
44
55
87
80
55
16
-28
9
15
28
53
64
91
78
54
12
-23
10
8
26
42
56
93
85
60
12
-36
16
11
28
54
55
98
82
40
-9
-3
15
13
28
46
49
90
84
58
5
-11
20
22
36
55
55
103
75
58
-6
-7
23
29
32
62
65
97
71
55
-5
6
23
19
33
49
60
91
54
49
-6
-3
25
22
29
29
54
94
71
48
-11
8
5
9
38
50
73
93
58
46
-20
-9
3
28
39
48
75
88
50
43
-26
4
10
19
36
52
65
79
58
48
-7
41
52
75
136
141
189
194
141
87
18
39
49
39
46
35
48
44
20
-12
-60
-25
-9
-6
25
25
68
70
48
21
-15
17
18
37
45
50
92
89
57
14
-20
6
13
19
58
52
109
90
55
30
-15
24
22
39
60
65
102
85
61
20
-20
19
27
43
66
69
105
89
66
26
-17
20
17
40
72
65
113
94
68
4
-4
35
34
42
74
78
108
97
73
17
1
26
43
63
82
83
129
105
89
16
25
56
55
57
89
99
140
104
86
34
48
70
61
74
103
107
139
105
94
33
39
61
63
77
100
117
139
102
82
19
41
52
53
66
79
100
106
93
66
1
27
39
37
53
70
99
102
61
41
-9
20
13
26
52
59
86
92
49
26
-26
5
26
31
51
50
90
90
53
28
-21
13
19
29
52
54
86
81
48
23
-24
20
22
26
46
55
103
95
54
15
-29
8
24
37
50
55
94
79
55
16
-15
7
13
27
58
58
94
85
60
7
-22
26
22
27
50
63
89
89
62
4
-17
10
10
44
55
58
98
76
51
14
-7
15
18
35
48
52
103
71
53
-3
-8
13
20
19
54
59
95
70
53
-2
-2
20
18
31
55
62
95
55
49
-3
-3
26
21
29
48
62
88
71
56
-13
1
11
26
35
43
67
91
64
43
-15
18
21
23
31
56
84
99
65
44
-12
13
30
13
49
77
77
93
66
46
-9
11
27
34
52
61
89
92
69
26
-12
17
21
29
46
45
90
92
58
19
-18
11
25
19
50
49
66
92
62
23
-34
8
25
25
39
61
87
82
47
12
-33
15
18
29
41
48
87
84
47
8
-46
6
12
15
48
48
89
83
65
26
2
52
69
86
125
151
197
173
126
54
11
44
33
31
41
24
34
36
12
-32
-49
-9
-22
7
24
40
88
69
42
-9
-16
11
5
32
51
41
116
84
50
-1
3
8
21
32
58
67
100
76
50
-2
5
26
30
30
59
70
95
79
49
-4
20
23
28
23
65
87
105
82
59
-16
22
20
36
44
61
103
112
77
47
-4
20
34
44
55
75
107
117
81
41
14
26
42
42
74
81
115
113
85
54
3
42
51
62
88
87
124
134
107
46
12
51
57
58
91
103
132
125
94
70
23
59
64
65
81
99
138
121
90
61
23
50
55
60
71
92
121
99
73
31
-8
37
23
44
61
66
92
77
57
28
-18
24
6
34
50
48
93
82
50
5
-11
10
5
24
43
46
93
83
48
-8
-9
15
12
31
60
54
103
72
47
-14
-14
9
16
27
60
65
91
60
53
-2
6
18
8
31
45
62
97
63
48
-3
-9
16
26
37
41
65
115
69
37
-10
16
18
19
36
43
66
88
77
52
-15
13
17
19
37
61
81
100
56
39
-20
9
24
18
34
49
76
98
70
32
-24
9
8
27
46
53
90
84
58
26
-18
6
26
21
44
59
94
82
49
26
-23
11
15
26
46
61
94
83
52
14
-21
15
18
28
43
59
97
85
61
18
-34
20
9
42
55
55
102
99
57
8
-18
20
10
42
52
61
109
90
66
18
-23
9
16
27
48
55
101
82
53
9
-25
19
9
34
43
50
88
67
50
-3
-23
11
19
36
54
50
82
64
54
-2
-14
9
19
37
55
57
91
71
48
-18
-30
10
25
33
43
59
96
55
38
-10
19
40
51
75
110
160
179
165
142
63
60
55
54
55
58
54
56
17
5
-51
-27
-19
-24
5
34
45
70
56
26
-36
-1
20
31
47
56
85
90
59
31
-16
2
25
33
61
66
95
82
62
27
-15
7
14
36
66
58
92
91
65
25
-19
14
32
51
58
65
106
92
68
35
-7
32
29
29
68
75
108
94
70
23
-11
28
45
46
70
74
113
101
72
34
-2
36
31
56
80
80
114
112
79
42
5
49
34
56
93
87
125
116
101
54
27
63
62
69
98
97
134
124
98
46
37
56
62
77
102
102
143
116
98
37
28
53
58
67
85
94
121
89
81
6
9
40
41
51
66
69
103
77
58
-4
1
17
30
33
54
78
102
74
38
-3
11
18
25
32
58
80
93
60
45
-13
2
21
22
39
50
75
76
60
37
-17
10
28
26
50
54
83
90
42
35
-18
8
16
23
49
61
100
96
54
21
-17
13
24
26
42
62
95
87
65
29
-15
12
27
33
48
55
99
81
62
20
-29
22
31
35
50
52
97
96
58
16
-27
5
18
24
56
61
98
76
64
16
-25
23
17
39
52
63
91
79
49
8
-23
18
14
24
56
66
109
70
54
6
-4
22
21
32
55
44
90
76
54
13
5
20
20
52
57
61
105
75
62
-5
7
30
36
35
56
60
108
81
57
3
11
16
26
35
60
67
88
75
51
-13
-5
4
17
34
49
73
97
60
48
-9
-1
13
20
29
49
73
89
65
43
-19
5
11
21
41
49
80
88
58
16
-29
18
11
11
45
46
72
92
61
34
7
56
72
89
131
147
179
174
124
68
17
41
32
24
34
24
49
60
15
-18
-62
-29
-19
-6
25
31
64
67
52
12
-23
16
21
