16
32
19
-14
-27
-42
-27
-37
-30
-11
-7
21
0
-15
-7
-28
-59
-45
-15
-20
-20
-11
-21
-3
-33
-39
-55
-49
-35
-25
-19
13
28
11
27
37
97
100
120
119
142
153
129
128
114
93
63
22
1
-27
-23
-17
-12
-31
-46
-56
-36
-34
-12
-17
12
5
-16
-29
-27
-30
-30
-36
-34
-31
-3
5
1
-34
-22
-33
-33
-29
-11
-16
2
10
17
-2
-36
-63
-46
-22
-7
-14
-1
-5
4
-34
-23
-26
-28
-35
-18
11
16
-3
-1
3
-16
-31
-55
-32
-28
-7
24
13
-9
-5
-12
-26
-24
-7
-18
-8
14
15
-9
-12
-6
-25
-26
-7
15
17
25
25
13
8
-12
-23
-1
-4
20
28
46
41
19
10
20
18
-2
7
40
40
49
45
21
1
-6
1
22
39
40
40
28
29
32
26
4
-2
3
5
-5
13
40
40
15
-11
-31
-36
-5
0
-19
-6
4
7
-9
-8
-38
-55
-39
-40
-18
5
11
3
2
-42
-54
-37
-40
-63
-14
13
11
-21
-18
-18
-43
-55
-55
-2
-6
17
11
-1
-21
-36
-54
-61
-46
-18
-14
-13
-5
-2
-13
-18
-19
-37
-53
-24
-18
4
-11
-12
-18
-35
-41
-34
-25
-39
-16
2
9
-12
-17
-25
-52
-39
-40
-24
-14
3
2
2
-12
-42
-57
-55
-28
-21
-13
-5
6
-25
-23
-19
-59
-55
-28
-20
4
0
-10
-17
-4
-61
-67
-54
-31
-12
-10
-3
21
-15
-47
-47
-52
-44
-27
-23
-4
-3
0
-5
-22
-36
-45
-36
-28
-26
-24
-1
-3
-14
-5
-53
-48
-38
-29
-28
-4
9
-1
-10
-9
-33
-52
-42
-28
-16
-6
14
-3
-29
-34
-42
-42
-35
-1
-23
1
17
0
-10
-11
-36
-43
-45
-16
6
8
17
26
-36
-21
-9
-45
-32
-33
-19
15
1
-9
-28
-28
-49
-49
-27
-14
-36
0
8
2
-21
-24
-65
-58
-34
-36
-25
5
-16
-15
-24
-31
-1
6
42
80
116
173
160
133
123
122
89
93
80
91
73
35
5
-6
-35
-33
-61
-46
-50
-28
-19
17
6
-9
-8
-38
-44
-41
-42
-29
-8
24
-1
-23
-37
-32
-54
-51
-51
-23
-6
7
14
2
-20
-13
-32
-31
-28
-19
-3
8
19
-19
-33
-20
-53
-43
-19
-14
-6
20
-4
-12
-31
-23
-32
-21
-20
-9
8
0
16
12
-21
-47
-44
-34
-37
-22
13
14
14
4
-14
-33
-27
-12
-4
-7
21
27
38
18
3
-9
-23
-27
1
-1
16
42
32
14
18
-6
-4
5
14
34
54
50
33
26
14
-4
14
11
16
34
62
58
30
22
18
-1
1
-4
5
13
42
45
28
4
-5
-31
-32
-26
24
3
10
21
16
-17
-25
-52
-37
-32
-2
-15
7
3
7
-6
-24
-37
-38
-42
-33
-13
19
-14
-12
-11
-6
-42
-43
-45
-29
-22
13
7
-14
-18
-45
-48
-29
-30
-29
-20
4
5
-6
-22
-20
-30
-54
-38
-21
-20
19
-13
-15
-26
8
-47
-44
-30
-8
-6
4
5
-6
-21
-44
-44
-53
-24
-6
-21
4
7
-21
-4
-39
-46
-36
-31
-25
-1
20
-2
0
-24
-43
-37
-29
-30
-15
5
24
9
-21
-32
-36
-62
-46
-11
-14
4
25
9
-20
-32
-47
-45
-47
-13
-11
5
9
2
-14
-33
-51
-56
-25
-14
-13
14
5
-10
-17
-17
-53
-57
-34
2
12
-4
7
-8
-17
-13
-33
-48
-37
-18
-14
12
6
-15
-34
-45
-44
-42
-20
-30
-12
28
9
-17
-15
-20
-27
-42
-40
-13
-11
-1
3
21
-19
-36
-57
-39
-18
-27
-18
0
36
0
-20
-31
-49
-24
-27
-16
4
28
27
-3
-9
-3
-40
-60
-42
-13
-9
32
13
-13
-15
-16
-51
-26
-27
-6
-13
6
-15
-11
-16
-36
-51
-61
-35
-15
-6
22
1
-17
-37
-57
-56
-34
2
19
58
115
129
124
117
98
108
100
105
116
133
122
93
45
2
-47
-57
-60
-28
-25
13
5
-14
-8
-23
-47
-33
-25
-35
-16
-3
11
-8
-32
-30
-42
-55
-22
-27
-25
20
12
-9
-7
-13
-39
-56
-37
-13
-15
9
5
12
-4
-21
-31
-48
-40
-11
-11
1
16
3
-16
-17
-47
-28
-26
-16
-5
21
2
6
-4
-27
-47
-43
-25
-25
2
30
5
-13
-5
-7
-7
-38
-9
-4
-4
23
18
21
14
2
-5
-39
-32
2
27
36
30
30
16
1
-3
-7
18
36
32
49
53
39
3
2
1
14
6
24
37
57
57
54
15
26
-8
-8
31
30
37
63
49
18
9
2
-13
-17
-17
-1
14
32
27
0
1
-19
-27
-29
-9
-9
-2
28
24
-30
-14
-41
-24
-22
-36
-25
4
-2
-10
-19
-15
-50
-36
-25
-34
-4
16
-5
-18
-8
-9
-47
-44
-37
-23
-33
1
17
-4
-19
-19
-45
-32
-33
-20
4
15
12
-8
-31
-32
-57
-56
-42
-4
-16
-5
15
3
-23
-17
-41
-33
-27
-21
-14
-2
-2
4
-6
-26
-25
-49
-35
-17
-15
-1
11
22
-34
-32
-46
-28
-5
-28
-35
11
-13
-10
-43
-21
-35
-50
-21
-21
-27
9
4
-11
-10
-27
-60
-46
-32
-18
-21
3
9
-4
-24
-46
-62
-43
-11
-31
-7
7
-2
-3
-10
-35
-72
-51
-19
-12
-11
9
15
-19
-22
-56
-53
-51
-25
-24
-4
15
4
-43
-9
-40
-55
-46
-28
-22
11
21
4
-28
-10
-21
-51
-67
-37
-24
-8
4
12
-7
-27
-43
-36
-31
-6
15
10
25
18
-8
-17
-52
-52
-25
-24
-21
18
29
-6
-17
-9
-63
-66
-74
-19
3
11
-9
2
-3
-39
-59
-25
-36
-18
-19
-8
-6
8
-25
-45
-59
-54
-49
-21
-13
25
26
52
70
82
97
106
104
95
104
152
144
138
98
81
20
-18
-40
-53
-36
-16
4
-9
-32
-22
-48
-53
-23
-36
-1
4
3
13
-29
-38
-37
-42
-42
-37
-6
17
1
-6
-25
-25
-27
-23
-47
-40
-19
4
9
14
-1
-47
-43
-40
-14
5
6
8
-1
-7
-8
-30
-33
-32
-28
-8
6
13
8
-5
-13
-33
-41
-29
-37
6
15
3
26
4
-3
-25
-41
-38
-31
5
32
33
30
9
-17
-28
-15
-15
-1
0
14
18
29
14
6
-10
-21
17
25
24
29
48
35
27
14
-7
11
39
16
42
60
57
57
41
43
14
3
13
19
27
53
59
37
21
18
-2
27
-8
15
11
44
39
32
2
-8
-31
-30
-28
-31
4
19
13
0
-24
-26
-41
-46
-43
-15
3
6
20
0
-33
-27
-47
-44
-37
-29
-17
8
28
-9
-20
-19
-60
-55
-29
-21
-16
15
-6
-38
-27
-45
-67
-39
-35
-16
-8
12
-1
-21
-23
-32
-50
-15
-21
-22
-10
5
-5
11
-14
-48
-64
-57
-11
-33
-1
-8
-10
-12
-24
-53
-56
-40
-41
-3
-9
-1
-9
-10
-23
-39
-37
-49
-24
-40
-2
18
-2
-18
-43
-50
-22
-62
-41
-29
20
12
-2
-14
1
-21
-85
-57
-45
-28
13
-14
-17
3
-30
-57
-44
-62
-19
-22
12
-7
-2
-26
-46
-56
-39
-45
-11
-30
-5
-14
-6
-19
-38
-65
-62
-45
-29
-16
1
0
-19
-34
-36
-56
-46
-33
-23
-18
5
12
-23
-21
-10
-64
-66
-47
-34
-19
4
4
13
-2
-23
-59
-52
-49
-18
-17
6
-4
-19
-35
-23
-29
-36
-33
-22
-5
46
13
-7
-19
-39
-43
-46
-41
-48
-4
0
-2
-23
-28
-51
-55
-55
-25
-22
-17
-15
-6
-9
-33
-48
-61
-62
-58
-23
-12
4
37
40
30
54
83
114
114
129
150
122
118
104
93
71
39
21
0
-9
-20
-12
-12
-13
-47
-60
-55
-53
-28
-8
-14
12
-11
-13
-46
-77
-51
-49
-24
-40
-12
-14
-16
-27
-20
-67
-60
-47
-33
-39
1
7
-14
-26
-12
-7
-27
-38
-56
-36
-17
5
-16
-22
-10
-45
-50
-48
-26
-30
-10
13
2
-34
-27
-36
-56
-33
-21
-22
-2
4
-15
-13
-15
-49
-40
-43
-30
-17
-3
1
-14
-16
-20
-53
-28
-12
-42
-25
-3
-16
4
-11
-1
-33
-46
-23
-5
3
23
22
18
2
-6
-7
-26
-45
-1
-1
23
41
17
-1
-4
1
-21
-11
2
22
40
38
27
10
-6
-49
-48
-23
-18
2
1
21
17
-26
-43
-61
-51
-26
-14
-19
14
4
-25
-46
-64
-57
-56
-34
-34
-24
-8
-12
-31
-41
-58
-86
-60
-33
-22
3
10
17
-9
-41
-74
-75
-51
-44
-28
-14
-3
-7
-27
-45
-67
-46
-76
-56
-35
-14
-16
-15
-27
-55
-95
-73
-16
-20
-41
-4
-9
-36
-47
-43
-53
-61
-54
-40
-13
7
8
-16
-16
-16
-63
-88
-73
-31
-18
3
-39
-22
-33
-40
-66
-76
-53
-44
-34
-3
13
-20
-56
-41
-63
-50
-43
-26
-21
0
-2
-19
-31
-38
-38
-58
-41
-28
-53
-33
-26
-18
2
-42
-87
-67
-44
-22
-22
-8
-22
-34
-52
-55
-56
-65
-38
-10
-4
-4
-36
-33
-17
-25
-78
-68
-40
-23
-21
11
-9
8
-32
-61
-58
-18
-30
-32
-27
-7
-6
-17
-36
-33
-42
-34
-51
-25
-5
-24
-14
-48
-48
-57
-62
-79
-50
-36
-12
-2
-20
-38
-29
-65
-44
-39
-36
-41
-16
-21
-32
-40
-51
-42
-31
13
50
87
127
144
144
122
111
81
93
88
82
73
41
2
-26
-30
-65
-99
-88
-65
-38
-50
-30
-13
-8
-29
-13
-66
-63
-58
-13
-20
-2
-9
-19
-52
-27
-64
-80
-57
-49
-54
1
-8
-17
-28
-43
-48
-66
-52
-34
-18
-12
-6
1
-38
-48
-60
-40
-52
-29
-31
9
16
-32
-47
-40
-55
-56
-51
-26
-12
6
-8
-13
-30
-34
-47
-48
-55
-12
-5
6
8
12
-5
-44
-46
-21
-34
-27
-9
4
11
0
-14
-8
-21
-13
-9
-12
16
47
15
1
-8
12
-16
-26
5
13
36
38
48
53
33
1
-1
-16
17
28
44
31
36
27
9
-13
-5
-13
-5
10
24
18
13
10
-8
-29
-18
-35
-27
-5
-5
0
2
-25
-41
-59
-22
-43
-59
-3
20
-10
-32
-39
-35
-39
-74
-61
-32
-32
-3
-15
-20
-24
-53
-58
-51
-49
-24
-23
-17
-11
-20
-38
-48
-65
-70
-61
-27
-28
-2
-15
-30
-38
-38
-72
-65
-60
-41
-33
-8
-13
-28
-31
-39
-42
-60
-50
-40
-21
19
5
-16
-20
-41
-76
-60
-45
-33
-15
-7
7
-43
-44
-40
-71
-51
-42
-50
-37
-18
-7
-18
-37
-35
-50
-62
-42
-33
-17
6
-12
-8
-41
-51
-63
-49
-49
-10
2
10
-12
-31
-43
-41
-39
-44
-45
-25
-4
-9
2
-16
-44
-39
-49
-46
-17
-15
7
7
-6
-13
-16
-50
-43
-54
-25
-34
-13
3
6
-24
-33
-56
-52
-25
-53
-40
-8
10
-20
-28
-32
-75
-70
-32
-26
-29
-11
4
-15
-42
-53
-60
-73
-57
-27
-38
-14
2
18
2
25
44
58
113
106
119
134
109
116
87
81
26
-11
-39
-39
-43
-23
-23
-26
-45
-58
-54
-76
-58
-19
-27
-38
-16
-20
-41
-39
-44
-53
-42
-38
-37
-12
-10
-29
-28
-37
-53
-65
-53
-41
-12
-8
-3
-7
-25
-36
-56
-63
-46
-23
-7
-5
-10
-43
-38
-25
-48
-40
-38
-24
0
14
-15
-28
-23
-46
-50
-48
-35
-22
-13
18
-4
2
-25
-41
-45
-48
-37
-11
-4
18
1
-2
-17
-37
-29
-37
-18
5
17
32
6
-2
-9
-30
-17
-19
7
13
34
45
39
-5
25
6
-1
2
10
22
39
36
50
20
-3
-11
-4
8
12
29
44
47
43
22
14
-12
-19
-28
-6
-12
28
11
1
2
-23
-49
-23
-48
-33
-9
1
25
-19
-13
-39
-63
-61
-61
-25
-30
-25
-14
-10
-29
-36
-69
-57
-44
-44
-37
-5
-14
-25
-7
-40
-62
-53
-62
-24
-18
-8
-9
-33
-38
-49
-62
-57
-29
-57
-46
0
-2
-28
-35
-40
-59
-80
-44
-32
-26
-1
-19
-27
-30
-32
-54
-53
-19
-16
-11
-5
-8
-15
-30
-40
-77
-52
-38
-15
-5
-3
20
-10
-31
-48
-47
-43
-50
-44
-1
13
-6
-25
-20
-44
-55
-42
-5
-27
-43
13
1
-18
-23
-52
-46
-39
-17
-24
-7
5
4
-33
-33
-28
-34
-43
-20
-3
-3
-3
1
-18
-14
-40
-49
-42
-18
-21
8
6
-10
-31
-27
-59
-70
-33
-38
-40
1
-4
-11
-22
-28
-55
-40
-59
-32
-20
-14
-10
-3
-29
-21
-51
-43
-64
-36
-18
46
74
79
97
109
78
56
73
100
100
116
104
58
46
-16
-56
-77
-68
-56
-51
-20
-19
-4
-34
-42
-44
-74
-46
-34
-25
-21
-22
-25
-19
-55
-54
-59
-31
-18
-27
-14
-3
-12
-7
-42
-49
-61
-58
-42
-14
-18
-9
-10
-34
-51
-64
-54
-35
-30
-8
-12
1
-6
-45
-56
-49
-46
-41
-21
-19
29
9
-14
-27
-50
-60
-55
-23
-19
-15
0
-3
-16
-7
-25
-35
-38
-33
-21
6
7
-5
6
4
-24
-45
-30
-9
7
26
25
47
22
-2
-19
-16
-10
0
13
27
46
32
10
22
-12
-12
-5
10
29
50
47
35
30
3
-11
4
12
12
5
24
33
33
6
6
-36
-39
-34
-17
23
22
11
-1
-20
-19
-49
-46
-63
-20
-15
0
0
-10
-25
-37
-56
-41
-52
-53
-29
-3
-19
-16
-30
-41
-51
-56
-42
-36
-17
-8
-3
-25
-35
-24
-65
-45
-70
-35
-28
-15
-17
-35
-52
-50
-56
-44
-41
-28
-13
-6
-4
-4
-11
-25
-67
-53
-42
-19
-15
-17
-6
-24
-48
-36
-52
-47
-42
-39
-14
-12
-2
-16
-32
-40
-60
-49
-24
-20
-22
2
8
-24
-35
-51
-35
-35
-10
-4
-29
-9
-7
-34
-36
-40
-72
-50
-32
-27
4
20
0
-29
-31
-58
-46
-49
-25
-24
-19
-1
6
4
-20
-59
-51
-41
-14
-6
12
26
5
-44
-46
-65
-61
-48
-27
-32
-15
-6
-22
-33
-35
-59
-52
-42
-39
-23
-5
-14
-26
-37
-41
-54
-49
-38
-25
-34
-19
-6
-4
11
1
3
31
91
101
111
121
118
87
90
102
54
27
5
16
-36
-22
-45
-44
-47
-54
-55
-58
-50
-31
-32
-5
-7
-31
-41
-30
-50
-36
-52
-35
-16
-13
-32
-23
-37
-48
-44
-36
-35
-20
-30
-12
-17
-6
-20
-62
-75
-58
-38
-17
-15
-20
10
-11
-33
-51
-51
-49
-32
-17
-31
-9
-14
-21
-21
-44
-42
-36
-32
-3
20
-3
-14
-17
-33
-45
-53
-37
-19
-20
3
-2
11
6
-27
-35
-17
-57
-33
10
14
28
24
-6
-20
-14
-32
-26
-4
0
21
48
38
31
23
-3
6
3
13
6
43
51
24
15
33
-11
-15
18
2
5
41
37
24
44
21
-9
-41
-10
8
-2
16
27
20
6
-8
-52
-51
-39
-19
-11
38
17
-21
-49
-42
-59
-45
-51
-30
-26
-16
-12
-14
-31
-43
-60
-60
-52
-24
-25
6
-1
-17
-45
-51
-72
-56
-20
-9
-8
17
-1
22
-26
-77
-74
-67
-47
-43
-25
-24
-5
-18
-39
-40
-54
-58
-44
-33
-28
-12
-11
-26
-38
-38
-47
-50
-20
-9
-38
-5
-11
-12
-47
-57
-58
-72
-32
-28
-21
-13
6
-13
-38
-69
-55
-72
-51
-23
-21
-28
-26
-36
-40
-59
-59
-45
-55
-50
-29
-24
-27
-48
-51
-59
-62
-56
-51
-39
-49
-28
-13
-56
-64
-85
-76
-69
-68
-55
-32
-31
-28
-42
-42
-73
-68
-56
-43
-44
-16
-15
-37
-58
-61
-84
-82
-79
-52
-38
-42
-44
-70
-65
-67
-113
-92
-76
-64
-36
-22
-41
-29
-33
-88
-132
-135
-108
-80
-90
-65
-55
-54
-54
-30
-26
-3
40
56
66
77
57
47
48
48
1
-21
-43
-53
-69
-65
-83
-96
-100
-105
-115
-112
-121
-116
-86
-65
-68
-87
-124
-133
-131
-119
-139
-108
-92
-107
-124
-117
-124
-129
-133
-132
-136
-121
-118
-97
-96
-111
-139
-148
-159
-163
-133
-106
-88
-102
-105
-123
-129
-152
-141
-172
-122
-132
-121
-94
-100
-118
-115
-141
-126
-132
-121
-114
-102
-83
-101
-136
-119
-154
-157
-149
-147
-125
-114
-101
-115
-126
-164
-194
-193
-190
-181
-174
-151
-113
-101
-108
-116
-143
-128
-127
-123
-136
-117
-96
-117
-146
-156
-174
-167
-168
-152
-128
-105
-117
-132
-150
-155
-174
-166
-170
-165
-142
-128
-124
-122
-141
-191
-206
-174
-161
-135
-157
-132
-160
-181
-198
-211
-224
-217
-185
-178
-184
-176
-173
-175
-202
-223
-255
-244
-185
-168
-173
-170
-172
-179
-198
-200
-220
-227
-220
-202
-185
-165
-172
-188
-201
-214
-221
-218
-202
-187
-184
-170
-164
-167
-173
-185
-192
-207
-208
-194
-182
-155
-160
-171
-179
-192
-200
-207
-204
-163
-148
-135
-159
-183
-201
-214
-217
-213
-208
-189
-164
-161
-163
-172
-173
-197
-203
-202
-193
-180
-163
-162
-170
-184
-192
-200
-199
-193
-192
-169
-153
-142
-155
-177
-180
-206
-202
-204
-172
-170
-137
-142
-154
-165
-184
-193
-186
-185
-182
-173
-143
-131
-156
-156
-141
-209
-230
-220
-210
-163
-111
-99
-118
-146
-159
-197
-205
-192
-177
-164
-136
-138
-134
-159
-158
-165
-177
-168
-159
-143
-130
-131
-140
-153
-159
-175
-189
-180
-166
-158
-136
-132
-156
-173
-173
-185
-154
-110
-91
-60
-25
-22
-36
-58
-88
-98
-79
-69
-69
-61
-70
-106
-125
-177
-200
-208
-205
-197
-166
-155
-140
-138
-159
-166
-174
-198
-194
-187
-175
-173
-170
-170
-176
-187
-201
-209
-210
-184
-179
-170
-154
-159
-182
-194
-198
-198
-192
-178
-152
-135
-160
-199
-190
-187
-214
-225
-209
-143
-144
-173
-144
-158
-189
-180
-190
-203
-198
-167
-152
-142
-139
-136
-164
-181
-200
-197
-185
-181
-176
-143
-143
-137
-163
-172
-168
-175
-171
-171
-162
-129
-150
-165
-173
-164
-161
-195
-183
-159
-154
-148
-138
-138
-162
-170
-189
-178
-168
-168
-152
-128
-128
-140
-136
-148
-165
-145
-126
-161
-153
-132
-133
-158
-162
-166
-188
-185
-181
-171
-156
-135
-151
-136
-188
-199
-223
-201
-204
-189
-183
-164
-173
-173
-188
-194
-217
-222
-211
-199
-203
-159
-149
-160
-174
-202
-210
-212
-205
-191
-188
-143
-149
-185
-217
-212
-229
-230
-234
-213
-198
-180
-183
-180
-188
-196
-228
-218
-203
-189
-197
-168
-170
-195
-207
-191
-217
-206
-229
-203
-174
-170
-180
-163
-180
-213
-221
-219
-207
-169
-164
-162
-185
-201
-192
-213
-224
-218
-203
-202
-179
-168
-163
-184
-184
-210
-222
-223
-217
-215
-192
-204
-200
-195
-212
-268
-267
-242
-233
-202
-208
-177
-182
-197
-214
-236
-224
-215
-209
-214
-178
-182
-177
-190
-200
-226
-222
-198
-169
-201
-158
-166
-171
-195
-202
-227
-215
-204
-190
-193
-175
-174
-185
-195
-209
-234
-236
-213
-207
-202
-178
-185
-201
-207
-214
-224
-228
-212
-193
-173
-169
-165
-188
-216
-210
-227
-231
-239
-219
-186
-173
-191
-198
-214
-230
-242
-211
-188
-160
-113
-77
-74
-71
-67
-96
-130
-100
-96
-85
-87
-94
-106
-166
-204
-224
-247
-240
-193
-183
-175
-175
-179
-185
-191
-217
-219
-214
-209
-196
-194
-164
-182
-189
-203
-208
-213
-224
-196
-189
-175
-172
-185
-172
-215
-202
-225
-221
-210
-195
-170
-172
-180
-191
-199
-205
-206
-208
-199
-178
-153
-165
-166
-183
-188
-207
-203
-220
-188
-155
-168
-157
-160
-163
-183
-216
-191
-219
-190
-171
-172
-161
-160
-178
-193
-208
-203
-189
-180
-160
-148
-151
-160
-174
-181
-190
-178
-167
-155
-152
-152
-149
-153
-173
-146
-172
-178
-160
-141
-160
-131
-136
-134
-154
-160
-163
-173
-169
-140
-145
-120
-126
-133
-147
-132
-178
-183
-164
-159
-154
-127
-127
-143
-160
-165
-193
-192
-177
-165
-159
-143
-150
-165
-165
-179
-206
-191
-165
-179
-182
-155
-149
-146
-189
-171
-194
-238
-210
-157
-143
-155
-162
-164
-193
-184
-203
-210
-174
-177
-162
-160
-160
-175
-178
-193
-190
-207
-187
-143
-163
-160
-151
-167
-179
-193
-196
-196
-185
-163
-157
-136
-150
-171
-176
-195
-187
-200
-178
-143
-111
-129
-167
-162
-188
-202
-198
-187
-185
-195
-160
-138
-145
-153
-182
-201
-179
-183
-177
-164
-143
-146
-145
-156
-166
-197
-198
-185
-168
-167
-142
-135
-129
-162
-147
-197
-187
-189
-172
-151
-140
-138
-138
-172
-178
-203
-193
-188
-177
-142
-127
-135
-150
-172
-151
-192
-185
-162
-152
-157
-122
-131
-143
-154
-169
-173
-169
-169
-158
-150
-128
-120
-130
-150
-154
-180
-174
-160
-138
-140
-91
-98
-145
-156
-161
-176
-177
-160
-141
-144
-134
-138
-139
-159
-178
-179
-159
-182
-165
-114
-115
-127
-144
-155
-184
-178
-183
-179
-151
-152
-127
-131
-143
-154
-159
-153
-125
-87
-42
2
11
14
-10
-16
-35
-46
-64
-47
-43
-41
-51
-107
-135
-162
-186
-174
-171
-171
-145
-120
-105
-125
-123
-148
-172
-158
-176
-161
-123
-117
-119
-120
-140
-152
-174
-159
-151
-142
-138
-122
-119
-120
-130
-165
-166
-165
-137
-144
-146
-111
-102
-125
-142
-151
-147
-155
-142
-137
-133
-97
-105
-125
-124
-115
-160
-158
-159
-134
-121
-120
-121
-121
-141
-142
-161
-145
-126
-131
-123
-102
-103
-108
-128
-134
-156
-165
-143
-126
-109
-82
-111
-106
-109
-101
-129
-135
-129
-116
-110
-85
-69
-79
-104
-108
-126
-127
-117
-74
-79
-83
-78
-88
-94
-91
-133
-119
-104
-97
-91
-62
-64
-79
-106
-131
-134
-123
-109
-101
-88
-60
-91
-114
-126
-119
-120
-139
-129
-120
-109
-93
-99
-113
-133
-129
-136
-156
-151
-122
-109
-100
-111
-129
-138
-146
-135
-153
-143
-124
-119
-109
-111
-113
-123
-147
-149
-145
-123
-130
-105
-95
-113
-114
-126
-137
-141
-143
-147
-128
-92
-96
-131
-125
-124
-158
-149
-147
-131
-120
-98
-86
-108
-122
-115
-139
-137
-140
-118
-117
-108
-96
-94
-122
-116
-151
-146
-151
-127
-105
-86
-81
-111
-120
-127
-158
-144
-142
-119
-111
-42
-92
-102
-135
-118
-141
-148
-147
-122
-122
-93
-95
-108
-126
-100
-144
-142
-113
-107
-119
-98
-100
-96
-116
-120
-144
-140
-113
-102
-101
-76
-83
-97
-140
-121
-143
-133
-144
-122
-102
-94
-93
-106
-106
-123
-133
-142
-142
-105
-88
-85
-92
-98
-112
-148
-140
-140
-123
-118
-98
-83
-93
-99
-102
-117
-124
-132
-112
-93
-80
-86
-90
-86
-113
-116
-130
-121
-117
-105
-99
-90
-98
-107
-124
-121
-126
-139
-104
-97
-83
-86
-88
-104
-95
-115
-119
-114
-105
-93
-68
-59
-80
-85
-83
-94
-109
-105
-115
-103
-85
-80
-96
-104
-115
-137
-136
-118
-108
-95
-88
-81
-89
-114
-117
-122
-113
-120
-105
-95
-62
-85
-111
-112
-114
-122
-94
-74
-16
22
43
81
43
34
24
-11
11
7
22
3
16
-25
-85
-105
-116
-132
-138
-109
-95
-101
-73
-86
-87
-99
-100
-126
-124
-111
-84
-100
-77
-79
-84
-96
-116
-136
-133
-118
-86
-80
-59
-60
-56
-104
-113
-120
-125
-105
-94
-72
-61
-76
-77
-97
-108
-114
-118
-96
-78
-83
-73
-78
-71
-75
-79
-113
-115
-101
-74
-67
-77
-58
-84
-106
-115
-99
-92
-89
-80
-75
-53
-51
-65
-70
-99
-112
-94
-70
-77
-51
-50
-59
-74
-80
-95
-77
-75
-64
-56
-41
-29
-31
-49
-63
-77
-79
-58
-56
-35
-19
-1
-11
-52
-54
-53
-71
-67
-45
-29
-24
-33
-30
-38
-49
-68
-68
-74
-48
-49
-15
-32
-64
-53
-65
-85
-101
-78
-55
-63
-55
-31
-55
-81
-82
-88
-93
-82
-76
-71
-45
-53
-57
-69
-81
-106
-118
-107
-95
-62
-59
-40
-51
-78
-98
-115
-106
-107
-89
-71
-50
-61
-76
-98
-93
-94
-90
-98
-74
-71
-47
-62
-70
-80
-95
-98
-100
-97
-70
-67
-55
-51
-65
-69
-72
-110
-105
-76
-71
-64
-57
-45
-58
-59
-104
-83
-99
-101
-84
-58
-55
-58
-74
-79
-90
-99
-99
-83
-55
-73
-25
-55
-57
-85
-103
-95
-92
-72
-60
-46
-43
-57
-81
-63
-87
-84
-99
-75
-30
-12
-72
-68
-63
-91
-101
-104
-87
-87
-75
-36
-52
-38
-62
-80
-96
-91
-76
-70
-70
-45
-31
-58
-72
-75
-81
-86
-88
-63
-71
-71
-50
-57
-74
-81
-108
-95
-80
-62
-62
-11
-38
-78
-63
-57
-101
-75
-83
-67
-50
-44
-53
-54
-67
-74
-96
-84
-66
-74
-86
-32
-32
-52
-76
-74
-92
-107
-95
-50
-64
-40
-38
-51
-67
-51
-85
-97
-76
-56
-44
-24
-40
-64
-80
-74
-94
-84
-71
-57
-36
-36
-48
-50
-60
-65
-82
-76
-62
-46
-44
-24
-7
-40
-61
-59
-84
-84
-57
-56
-47
-38
-44
-53
-56
-76
-88
-81
-69
-58
-55
-34
-29
-62
-80
-88
-82
-74
-70
-59
-28
-36
-38
-35
-81
-90
-73
-74
-28
26
61
83
85
94
74
48
38
47
55
71
77
51
8
-40
-78
-95
-109
-78
-68
-63
-28
-26
-48
-56
-84
-78
-67
-86
-66
-46
-11
-36
-48
-58
-45
-71
-86
-83
-56
-40
-51
-30
-40
-60
-60
-72
-73
-59
-40
-53
-44
-37
-46
-56
-62
-82
-79
-72
-42
-50
-29
-26
-33
-35
-46
-70
-69
-59
-75
-64
-24
-7
-37
-45
-52
-65
-73
-48
-33
-22
-18
-35
-18
-47
-65
-74
-60
-54
-46
-24
-8
4
-18
-37
-47
-60
-53
-34
-15
-13
-16
0
23
-14
-20
-37
-28
-12
18
1
6
-3
-12
10
-22
-55
-36
-2
3
14
25
19
-13
-5
-15
-32
-32
-22
-7
4
29
1
-6
-19
-50
-55
-62
-37
-42
-4
10
-5
-15
-36
-51
-68
-75
-47
-31
-16
-11
-36
-33
-44
-61
-62
-76
-46
-49
-29
-32
-36
-33
-62
-80
-69
-59
-45
-40
-18
-36
-29
-29
-51
-81
-59
-69
-51
-53
-26
-10
-24
-47
-59
-69
-75
-66
-38
-50
-4
-20
-60
-46
-43
-65
-81
-79
-48
-29
-13
-19
-29
-43
-46
-75
-54
-43
-35
-24
-19
-21
-8
-44
-65
-74
-73
-54
-34
-41
-9
-14
-44
-39
-44
-55
-56
-72
-39
-30
-7
-23
-52
-49
-54
-80
-66
-52
-30
-22
-20
4
-37
-56
-61
-68
-70
-52
-39
-32
-13
-22
-39
-44
-51
-59
-67
-60
-44
-20
-14
-28
-34
-46
-64
-60
-64
-68
-32
-30
-26
-26
-38
-48
-51
-69
-64
-35
-44
-26
1
-12
-34
-54
-75
-54
-71
-45
-35
-11
-11
-14
-50
-40
-67
-51
-58
-44
-46
-17
-29
-13
-42
-46
-67
-58
-75
-59
-38
-17
-20
-20
-24
-43
-52
-58
-58
-31
-47
-20
-10
6
-26
-29
-45
-57
-61
-21
-28
-10
-8
-31
-26
-43
-69
-57
-51
-33
-23
0
-3
-11
-29
-40
-38
-60
-31
-28
-21
-4
-23
-32
-31
-51
-76
-73
-52
-38
-24
-17
-18
-41
-35
-61
-55
-35
-61
-48
-15
4
-27
-27
-61
-53
-57
-59
-36
-21
25
55
90
97
96
78
55
47
75
70
77
87
57
17
-28
-78
-96
-72
-69
-49
-27
-14
2
-27
-42
-38
-58
-85
-71
-28
-17
-9
-12
-36
-44
-56
-66
-62
-51
-31
-14
-6
3
-37
-34
-50
-52
-55
-35
-29
-8
13
-16
-32
-18
-55
-62
-45
-16
-23
-1
5
24
-16
-51
-60
-46
-56
-25
-12
-15
5
7
-27
-42
-67
-46
-44
-7
-19
-10
2
13
-14
-19
-49
-35
-39
-39
8
12
4
11
-10
-11
-31
-12
-17
-16
4
26
21
20
0
0
-19
-16
-10
-7
17
36
29
21
10
1
-2
7
0
17
31
32
52
44
16
19
-11
-9
2
12
34
20
49
25
36
-2
-34
-48
-32
-19
-14
15
18
-5
-17
-43
-54
-50
-28
-29
-13
2
-5
-17
-33
-50
-70
-60
-34
-17
-4
-8
-15
-21
-36
-65
-70
-64
-45
-33
-8
-21
-26
-34
-41
-47
-59
-55
-38
-33
-24
-13
-10
-24
-40
-58
-66
-50
-41
-28
1
-17
-18
-28
-36
-64
-53
-51
-31
-38
-1
-14
-14
-27
-45
-57
-41
-43
-36
-24
-4
-5
-5
-15
-37
-55
-56
-46
-27
-15
-10
0
10
-11
-29
-61
-56
-62
-42
-18
-2
3
-17
-26
-34
-52
-42
-43
-37
-15
-6
-4
-14
-25
-22
-53
-59
-59
-37
-22
-4
1
-16
-38
-31
-53
-60
-55
-51
-26
-1
-13
-22
-35
-24
-52
-59
-38
-34
-21
-2
-18
-26
-33
-26
-52
-63
-50
-32
-23
-2
-9
-24
-33
-15
-54
-49
-31
-31
-16
-5
-18
-15
-10
-64
-67
-55
-24
-5
-30
-41
-14
13
-24
-47
-52
-47
-28
-22
-16
-15
-6
-10
-37
-53
-46
-32
-15
-13
-14
4
13
-12
-10
-45
-63
-59
-21
-28
7
2
-23
-24
-28
-46
-48
-57
-61
-34
-19
-3
-21
-40
-34
-59
-54
-51
-49
-39
-2
25
14
0
20
25
68
77
112
119
117
102
126
131
69
53
28
22
-17
-37
-29
-22
-16
-28
-18
-55
-74
-25
-42
-34
-8
-18
-22
-18
-16
-50
-54
-46
-27
-21
4
-3
-7
-29
-16
-58
-50
-47
-31
-6
0
2
-11
-27
-39
-43
-43
-35
-23
-20
9
8
-5
-20
-30
-41
-46
-35
-26
-11
0
8
9
-8
-26
-39
-36
-38
-23
-17
4
18
-8
-6
-32
-37
-37
-25
-4
23
11
14
5
-12
-13
-47
-26
-2
-2
3
19
14
14
-9
-12
-24
-22
-9
8
54
38
28
41
18
-8
-1
13
32
34
42
54
46
38
23
10
-1
1
15
51
44
54
35
30
26
-11
-15
2
17
7
27
56
40
12
-18
-37
-20
-15
-38
1
27
12
7
-17
-24
-48
-46
-36
-21
-7
22
17
-2
-35
-46
-51
-50
-38
-16
-7
2
-6
-5
-31
-30
-54
-56
-38
-5
5
6
6
-1
-1
-31
-69
-47
-44
-35
-17
-8
17
-5
-32
-32
-61
-44
-25
-17
-17
7
11
-16
-15
-24
-47
-49
-33
-14
-13
7
9
-14
-22
-34
-42
-43
-32
-16
1
12
7
-9
-20
-28
-45
-46
-16
4
-5
11
2
9
-15
-48
-37
-23
-43
-22
8
18
-6
-29
-12
-30
-49
-34
-16
-14
-8
3
5
-4
-19
-35
-50
-32
-32
-13
3
16
27
-14
-22
-57
-43
-42
-8
-18
0
-5
-4
-16
-4
-26
-61
-36
-13
-19
-4
8
8
-22
-24
-49
-29
-30
-38
-14
23
2
0
3
-25
-35
-38
-26
-16
-4
5
3
0
-13
-29
-46
-41
-31
-20
0
0
-4
16
-20
-30
-50
-57
-11
-2
-7
8
19
1
-20
-6
-29
-26
-20
-11
5
31
20
1
-13
-7
-26
-28
-31
-10
-15
11
14
-11
-22
-4
-31
-61
-34
9
-28
14
13
-11
-27
-32
-55
-42
-33
-16
-18
-10
11
-7
-7
-9
13
33
88
143
147
153
129
122
101
95
86
78
81
71
23
31
30
-26
-39
-31
-55
-44
-28
-14
6
8
-1
-8
-21
-39
-49
-47
-22
-18
16
24
2
1
-19
-31
-48
-42
-24
-12
-1
30
10
-11
-30
-46
-34
-5
-11
-22
12
23
10
-18
-8
-26
-34
-42
-12
0
8
15
31
1
-25
-44
-43
-30
7
7
30
35
-9
-7
-11
-29
-38
-37
-13
7
21
21
15
8
-3
-22
-29
-15
8
26
31
24
18
-6
3
-32
-5
6
23
25
50
38
28
39
29
-9
3
22
24
35
55
59
44
27
21
4
13
28
39
32
59
64
55
31
7
-6
-12
27
25
35
41
54
49
-5
-7
-5
-25
-17
13
13
27
29
5
-5
-18
-34
-35
-21
12
14
16
15
-6
-25
-25
-34
-27
-26
-11
10
9
15
0
-20
-36
-39
-37
1
-10
4
5
-2
-35
-15
-24
-31
-39
-25
-1
27
21
9
1
-19
-38
-34
-32
-17
0
5
7
12
-4
-25
-25
-31
-21
-17
-1
17
7
-11
-11
-11
-46
-24
-14
-16
-12
25
7
6
-19
-24
-26
-37
-19
0
1
11
31
-8
-11
-20
-31
-26
-32
-18
10
16
3
4
0
-2
-39
-33
-26
-7
-11
6
24
18
-12
-10
-42
-23
-14
-32
10
0
-1
-2
-26
-27
-29
-38
-20
-2
-1
28
11
9
-9
-18
-50
-22
-30
-25
0
19
18
10
-18
-27
-29
-19
-31
-14
10
9
-1
29
-14
-30
-42
-29
-17
-16
4
15
11
-5
-8
-19
-40
-39
-26
-16
-7
15
7
-9
-13
-23
-31
-29
-17
9
13
4
17
14
-24
-39
-40
-28
-19
-14
10
11
16
13
-5
-42
-27
-16
-14
-14
6
11
12
-23
-11
-14
-21
-15
-7
11
29
22
12
-5
-1
-20
-40
-33
-6
4
17
8
-1
-7
-6
-30
-37
-42
-23
4
18
17
6
-4
-22
-38
-64
-60
-14
-9
16
31
39
37
63
84
115
110
133
132
133
138
143
118
87
54
48
12
-8
-21
7
13
16
-17
-32
-47
-39
-31
-1
4
21
-2
-26
-2
-21
-26
-21
-30
-19
-6
14
7
3
-12
4
-45
-40
-26
-3
13
6
12
4
-15
-15
-33
-20
-20
-8
12
24
19
5
4
-18
-32
-54
-17
6
20
29
15
0
-15
-20
-27
-23
-22
-3
26
30
25
15
-14
-16
-33
-21
8
1
16
29
23
9
-5
-10
-7
-17
11
27
31
34
26
8
24
-18
-4
30
19
25
51
47
36
16
15
-2
10
20
30
41
68
61
68
54
26
15
3
13
41
57
57
49
62
50
21
3
21
-10
16
34
46
29
42
10
14
-23
-23
-3
0
12
26
24
16
-6
-18
-33
-43
-24
10
-17
14
21
-4
-7
-9
-40
-41
2
6
-3
7
7
-2
-11
-8
-30
-39
-27
-18
1
18
19
-2
-8
-19
-30
-46
-31
3
11
12
23
1
-12
-33
-47
-42
-15
-13
0
8
23
3
-18
-22
-35
-15
-36
-11
30
27
-1
-3
-9
-26
-29
-26
-15
7
25
17
14
3
-23
-29
-24
-32
-32
3
10
12
1
6
-6
-31
-29
-26
0
-11
-2
13
20
3
-28
-26
-30
-30
-20
-2
11
24
19
-1
-4
-13
-21
-35
-21
4
23
7
4
-12
-19
-38
-23
-30
-15
-5
15
19
4
-10
-4
-44
-42
-28
-12
12
15
30
28
-7
-21
-49
-44
-37
-1
-2
15
11
20
-2
-10
-37
-39
-17
-4
-22
25
14
6
-24
-10
-21
-11
-36
-10
-2
19
27
-3
-20
-13
-35
-21
-20
-11
10
19
22
-2
-7
-15
-43
-34
-11
-27
3
23
8
14
0
3
-23
-31
-28
-2
26
23
25
15
1
-15
-18
-25
-14
-3
16
17
29
12
-9
-26
-33
-42
-26
-11
-5
21
6
1
-17
-33
-29
-35
-32
3
21
21
-11
-7
-20
-19
-31
-19
18
51
108
146
152
144
122
90
97
115
104
109
111
90
54
-18
-47
-47
-44
-28
-20
-24
8
19
6
-4
2
-42
-32
-30
-20
-16
12
-2
7
-12
-16
-31
-36
-21
-10
-16
19
14
10
-8
-21
-29
-28
-21
-8
4
37
25
8
2
-16
-44
-38
-25
3
4
8
19
23
-17
-11
-23
-18
-27
-11
-17
23
35
1
8
-3
-9
-37
-17
-3
1
25
34
11
10
-10
-34
-35
-8
30
10
40
50
30
1
-5
-6
5
9
21
46
46
34
31
9
9
4
6
16
38
54
60
53
46
49
25
28
6
31
40
58
61
67
34
27
0
2
24
31
35
61
73
56
28
5
3
-3
-5
18
3
45
34
30
0
11
-12
-37
-26
-3
8
20
12
19
-8
-12
-24
-34
-36
-16
2
8
10
5
-4
-33
-39
-38
-18
-19
-8
23
1
-3
-7
2
-42
-12
-26
-22
-14
17
4
3
-6
-14
-47
-35
-32
-15
1
21
7
9
-13
-21
-47
-21
-19
-9
-1
16
30
-5
-12
-11
-42
-32
-25
-6
-12
13
21
3
-7
-17
-44
-18
-15
9
-8
36
34
2
-11
-21
-34
-37
-11
-6
-7
21
10
-5
-12
-24
-29
-31
-20
-23
20
10
16
-6
-12
-22
-22
-26
-28
-8
11
24
5
4
-7
-36
-45
-33
-24
25
21
-2
2
15
-7
-33
-32
-31
-29
-11
9
15
7
-6
-16
-36
-30
-33
-14
-15
7
17
8
-2
2
-29
-19
-24
-11
-2
11
31
8
-10
-15
-42
-27
-4
-14
-19
2
24
28
8
-24
-39
-28
-9
7
5
45
27
10
3
1
-50
-41
-9
0
0
17
11
15
-13
-13
-33
-35
-28
-10
6
21
3
2
-22
-1
-34
-30
-41
-1
-2
22
6
-5
-22
-43
-61
-35
13
35
55
121
135
140
138
101
67
71
99
93
92
110
91
45
-19
-53
-70
-58
-45
-25
-10
11
13
11
-17
-11
-55
-28
-21
-14
5
10
8
10
-7
-15
-42
-35
-26
-12
9
10
24
20
4
-17
-30
-39
-1
-1
0
12
19
2
-10
-24
-16
-61
-25
7
15
25
23
-1
-19
-29
-17
-11
-13
5
15
35
29
17
-4
-40
-32
-35
-3
18
26
29
26
13
5
-9
-26
-14
12
12
35
40
28
7
7
-4
-10
-14
5
24
37
42
44
26
27
7
6
25
46
37
60
71
53
47
38
-4
12
39
42
56
75
82
75
50
41
18
18
20
34
38
64
53
42
19
29
9
6
8
9
8
31
33
21
5
-3
-18
-23
-5
-14
1
15
14
10
-18
-17
-31
-23
-21
-4
4
16
8
-4
-22
-13
-31
-33
-24
-25
-10
15
7
-1
-4
-24
-40
-33
-20
-2
-1
16
23
7
-41
-19
-53
-47
-41
-24
24
35
6
-12
-17
-20
-26
-24
-6
9
-4
24
12
-7
-16
-23
-35
-30
-19
2
4
7
18
6
-17
-33
-24
-5
1
-2
15
6
3
1
-28
-44
-31
-11
-24
7
26
2
12
-7
-13
-45
-15
-22
-17
5
18
1
3
-13
-6
-28
-35
-14
-22
3
16
11
5
-18
-17
-23
-32
-23
-17
-12
16
19
5
-19
-7
-52
-47
-29
-9
-7
22
-3
6
8
-15
-25
-50
-25
-1
-5
19
16
11
-10
-19
-39
-26
-19
-26
-3
18
24
27
0
-34
-44
-35
-20
-8
-10
25
11
-11
-23
-15
-24
-33
-16
-14
12
35
8
7
-4
-16
-23
-17
-8
3
27
46
15
-17
-16
-34
-26
-32
-24
-3
4
24
26
-4
-25
-28
-35
-42
-40
-13
5
16
18
-10
-22
-33
-40
-40
-39
-9
25
24
42
57
63
85
108
115
122
130
137
128
111
110
100
56
13
-23
-38
-11
-8
-6
-2
-3
-16
-41
-42
-39
-22
-1
30
39
11
-12
-38
-18
-42
-36
-29
-5
20
19
-11
-21
-24
-43
-34
-32
-10
-8
3
18
8
-16
-9
-55
-36
-29
-8
7
27
29
9
-19
-14
-25
-40
-23
-11
-5
45
40
7
-15
-11
-42
-23
-9
-1
-4
18
45
16
-25
-28
-18
-15
-26
-5
10
27
28
16
-12
1
-24
-23
-13
18
18
32
43
40
17
7
-11
6
14
11
12
65
70
43
45
13
-9
8
27
41
50
59
61
39
32
28
11
27
29
35
58
63
49
46
19
4
-1
-2
-1
24
39
47
44
18
-7
-25
-45
-14
-1
7
14
17
10
16
-27
-30
-28
-26
-19
5
6
8
13
-8
-12
-43
-41
-38
-20
-12
15
26
8
-18
-30
-59
-56
-28
-8
-16
6
21
7
-15
-22
-38
-35
-39
-21
7
1
-3
-5
-27
-34
-36
-50
-29
2
-6
20
4
1
-11
-16
-38
-42
-35
0
-8
12
-2
0
-6
-17
-25
-16
-26
-6
3
2
-4
8
-16
-18
-42
-40
-32
-8
-6
15
20
-4
-19
-5
-17
-61
-22
-10
-5
16
18
10
-12
-21
-30
-53
-42
-13
-7
17
27
-2
-30
-29
-31
-36
-9
-13
-1
3
-6
-4
-22
-30
-45
-35
-29
-2
15
27
11
0
-16
-40
-45
-49
-23
-1
3
-4
3
15
-1
-35
-52
-40
-10
-19
5
6
18
-10
-37
-52
-42
-24
-7
-7
7
16
12
18
-12
-25
-12
-11
-16
3
10
31
-3
-11
-17
-35
-28
-23
-24
-5
14
19
-6
-10
-14
-64
-56
-21
-28
-24
6
14
-5
-24
-16
-41
-34
-25
-15
2
11
-22
-13
2
-8
-26
8
47
86
125
168
151
156
165
100
88
96
118
80
70
46
12
12
-36
-37
-61
-38
-43
-9
-8
13
-7
-7
-18
-25
-40
-40
-16
-15
-12
-7
19
-10
-31
-30
-50
-46
-26
-16
-10
29
23
-5
-10
-37
-55
-48
-26
-9
5
7
1
-7
-12
-30
-39
-24
-4
-12
11
19
15
-8
-21
-44
-40
-11
-3
-11
13
13
8
-2
-12
-39
-34
-20
1
-12
13
22
25
12
4
0
-35
-52
-20
10
42
26
17
1
2
-20
-5
-18
-3
23
44
34
28
29
27
4
-7
9
26
29
49
67
31
48
37
-14
17
29
16
33
53
44
42
42
31
8
-9
0
26
24
38
48
30
15
-9
-23
-23
-2
2
1
25
18
7
-16
-7
-39
-40
-20
-16
4
5
2
-2
-15
-11
-33
-31
-36
-5
-13
2
-7
-11
-14
-24
-62
-43
-42
-6
-7
11
16
-22
-17
-25
-46
-36
-39
-30
-8
28
9
-13
-15
-39
-42
-30
-31
-13
-3
13
6
-18
-22
-24
-53
-56
-17
0
-2
13
2
-5
-12
-35
-52
-35
-18
-11
6
10
7
-9
-14
-26
-60
-28
-9
-13
3
12
4
17
-16
-39
-37
-32
-19
-28
4
7
3
-8
-26
-45
-48
-29
-34
-17
6
13
-1
-16
-34
-41
-45
-35
-28
-18
1
3
-6
-11
-26
-35
-37
-30
6
-31
10
11
-3
-24
-24
-39
-40
-41
2
8
13
-4
3
-10
-34
-52
-40
-20
-13
-24
16
1
4
-18
-30
-39
-45
-27
-2
3
20
20
7
-18
-23
-40
-33
-19
1
-2
14
-2
0
-9
-16
-31
-35
-20
-25
-25
-1
0
-8
-31
-28
-50
-38
-33
-27
5
15
-7
-18
-24
-38
-50
-52
-39
-5
34
64
106
96
109
120
109
117
107
124
125
152
137
75
34
-10
-39
-67
-49
-26
-2
-10
8
-31
-21
-37
-54
-32
-25
-24
-1
19
-6
-23
-29
-32
-40
-45
-18
-16
7
6
-5
-11
-27
-45
-49
-42
-6
3
15
8
-4
-18
-7
-42
-40
-25
-22
-13
19
19
-22
-6
14
-49
-32
-33
-26
4
14
-12
0
-14
-15
-42
-34
-36
-12
4
18
25
17
-2
1
-48
-23
-28
-16
18
41
35
20
6
-19
-48
-39
-2
12
26
43
24
30
21
0
-10
7
7
27
20
63
39
47
3
27
21
-5
13
24
44
43
56
42
23
20
12
17
23
22
34
64
64
35
11
10
-12
-22
2
-1
10
17
19
11
29
-11
-37
-39
-22
-13
-3
12
23
1
-11
-50
-59
-38
-17
-24
-21
11
18
-4
-20
-35
-62
-56
-21
-5
-3
8
-4
-16
-25
-35
-37
-36
-34
-23
-1
18
2
-16
-25
-48
-46
-33
-27
-16
1
-8
-12
-37
-27
-43
-29
0
-22
-8
14
21
0
-17
-31
-55
-54
-27
-28
-14
-1
1
-3
-3
-18
-47
-46
-22
-12
-28
12
6
-17
-1
-22
-47
-61
-38
-3
13
-3
0
-1
-22
-31
-44
-29
-27
-18
-18
13
3
-16
-11
-36
-47
-33
-42
-20
-14
14
14
-8
-14
-15
-45
-44
-57
1
-19
-2
16
1
-20
-34
-45
-33
-25
-6
-15
15
7
-4
-5
-26
-40
-26
-19
-9
4
8
16
10
-28
-40
-27
-32
-34
-8
6
12
7
-6
-41
-40
-55
-41
-40
-16
-5
10
16
-15
-39
-56
-55
-43
-45
-13
-2
3
-11
-54
-34
-38
-23
10
46
95
144
179
134
108
98
86
74
87
77
45
62
34
-9
-42
-47
-72
-51
-34
-37
-40
-18
2
5
-32
-32
-63
-48
-40
-23
-20
16
15
-4
-9
-33
-53
-65
-36
-12
-14
0
11
-7
-9
-21
-23
-16
-54
-24
-2
19
-5
11
-4
-13
-69
-50
-33
-15
1
5
8
16
-8
-33
-41
-50
-27
-1
4
29
19
-6
17
-12
-48
-40
-22
-13
2
13
22
27
14
-1
-31
-45
-22
29
14
23
23
21
1
12
4
0
-41
5
36
25
52
48
11
10
-8
15
21
28
49
85
57
42
42
26
-3
11
26
49
56
50
50
52
36
19
-8
-13
17
31
39
29
45
49
9
-11
-29
-30
-11
-8
1
44
29
12
-18
-46
-46
-46
-10
5
9
-2
10
-8
-28
-24
-33
-39
-25
-18
-2
23
-16
-23
-32
-56
-31
-25
-35
-25
6
6
-10
-23
-18
-39
-35
-40
-25
-38
4
9
14
-25
-33
-48
-52
-44
-13
-5
21
13
-6
-22
-21
-58
-55
-44
-4
-11
42
26
-13
-15
-33
-50
-45
-27
-10
-23
6
9
-8
-19
-4
-45
-44
-32
-17
-2
21
9
-6
-24
-30
-62
-29
-29
-20
-7
14
18
-3
-14
-20
-35
-24
-16
-29
-11
14
-6
-3
-19
-29
-63
-46
-24
-14
-7
13
25
-6
-33
-21
-46
-38
-17
-7
-19
-3
11
10
-6
-22
-46
-35
-21
3
2
20
19
3
-10
-28
-41
-13
-30
-13
-3
-7
-4
-15
-8
-44
-41
-56
-16
-24
-5
16
-2
-13
-32
-32
-48
-44
-39
-11
9
7
-13
-23
-33
-59
-47
-34
12
37
64
96
128
126
123
101
96
82
111
108
126
109
49
0
-29
-64
-67
-34
-34
-32
0
-7
-8
-17
-30
-50
-44
-44
-21
-13
11
0
-10
-26
-10
-36
-34
-25
-19
-12
5
0
-14
-31
-11
-30
-55
-39
-14
-12
1
5
2
-4
-23
-57
-35
-31
-28
-19
14
9
5
-21
-13
-36
-37
-38
-7
18
10
13
-11
-27
-12
-45
-28
-23
-18
3
19
18
14
2
-28
-40
-19
-10
1
20
24
9
-1
-18
-34
-16
-24
-10
16
29
39
27
14
12
16
-9
9
26
41
50
61
56
33
13
24
25
-7
26
42
54
46
38
30
11
0
-5
16
45
12
38
55
23
27
-2
-23
-13
-20
-4
14
19
2
26
12
-21
-48
-25
-42
-13
6
10
23
-11
-7
-8
-50
-55
-54
-25
1
21
17
2
-23
-37
-73
-68
-53
-18
-15
23
6
-11
5
-23
-53
-57
-47
-37
-16
-18
14
2
-18
-27
-52
-49
-29
-15
-7
-3
-13
2
-5
-26
-39
-48
-43
-27
-22
1
1
0
-40
-15
-39
-30
-22
-25
-13
3
3
-6
-32
-34
-46
-55
-39
-7
-6
14
6
-11
-20
-16
-36
-50
-45
-21
0
8
6
4
-37
-40
-44
-60
-35
-10
-9
-7
14
-8
-39
-37
-44
-48
-34
-12
-5
11
8
-10
-50
-53
-63
-43
-38
-24
-3
8
5
-3
-12
-45
-53
-56
-40
-31
7
8
2
-9
-30
-36
-42
-26
-15
-33
2
13
3
-3
-7
-34
-30
-51
-19
-2
3
3
-9
-31
-18
-37
-39
-40
-33
-18
1
-14
-2
-14
-25
-55
-52
-41
-34
-33
2
-9
-23
8
-31
-58
-51
-32
-24
-34
-18
5
3
-17
21
39
44
88
117
126
154
162
126
110
97
91
62
51
16
-9
0
-19
-26
-33
-7
-46
-51
-51
-21
-17
3
-21
-17
-24
-35
-44
-57
-28
-8
2
-7
-7
-20
-24
-27
-50
-40
-46
-25
-15
-7
-3
-16
-28
-46
-43
-39
-10
-12
-8
-1
17
-3
-36
-50
-53
-38
-16
4
0
8
19
-6
-37
-45
-38
-26
-37
-13
5
6
-2
-14
-11
-38
-53
-38
-15
2
6
22
4
-9
-13
-25
-43
-34
-14
12
22
24
14
17
-11
-9
-24
-7
-1
-7
31
44
38
32
19
3
-12
-4
7
9
47
36
33
20
4
-8
-7
11
11
26
52
48
28
18
11
-12
-5
-17
0
8
37
32
24
-2
-6
-42
-55
-43
-14
-8
21
10
-1
-15
-22
-52
-49
-53
-11
-11
10
8
-9
-27
-38
-50
-46
-31
-32
-25
-4
12
-16
-31
-18
-52
-53
-35
-20
-21
0
9
2
-28
-33
-55
-45
-33
-34
-15
-16
-6
13
-52
-26
-53
-48
-33
-17
-3
-14
-7
-7
-40
-52
-51
-50
-21
-16
-15
5
6
-5
-20
-43
-35
-53
-49
-12
-2
24
17
-42
-36
-48
-41
-61
-36
0
13
-12
0
-18
-34
-51
-51
-63
-29
-21
-15
12
-2
-20
-42
-34
-42
-47
-28
-5
-7
6
30
-12
-28
-48
-74
-46
-36
-8
5
-13
0
-4
-48
-37
-49
-71
-30
-7
6
8
3
-18
-30
-58
-53
-43
-49
-35
18
4
-1
-20
-41
-47
-36
-34
-5
13
1
25
-12
-34
-13
-46
-40
-40
-16
-9
-13
10
6
-13
-12
-39
-56
-46
-42
-25
-13
13
-22
-20
-37
-52
-39
-44
-33
-22
6
10
-18
-30
-31
-63
-62
-59
-44
-39
-21
3
8
-1
12
19
58
98
114
130
122
144
148
123
100
79
41
42
23
1
-18
-24
-35
-44
-43
-58
-37
-36
-13
-22
21
-12
-31
-33
-42
-53
-61
-46
-23
-16
4
4
-15
-44
-32
-50
-58
-52
-24
15
-10
-16
5
-46
-47
-44
-41
-36
-24
1
-2
-12
-26
-49
-38
-44
-42
-18
-2
-4
-20
3
-15
-18
-46
-35
-30
-21
-20
7
14
-17
-16
-21
-51
-32
-34
-6
-7
9
7
5
-7
-24
-40
-38
-26
-14
-15
12
21
13
6
-3
-48
-31
-11
12
7
41
25
26
10
18
-6
-14
7
25
14
45
55
32
10
16
-13
-1
25
25
43
23
54
33
-3
7
-5
-34
-3
13
10
25
22
-7
-8
-21
-55
-58
-35
-6
1
9
-12
-8
-23
-37
-34
-29
-37
-20
-20
-9
-10
-19
-23
-27
-54
-46
-35
-18
-33
2
-13
-31
-35
-39
-66
-52
-47
-20
-13
-12
-10
-39
-34
-38
-61
-67
-37
-39
-11
-10
-2
-17
-24
-55
-66
-31
-28
-31
-8
-12
-17
-15
-47
-61
-44
-40
-29
-15
-21
-15
-14
-19
-32
-62
-45
-25
-39
-43
-14
-14
-17
-15
-29
-54
-54
-47
-35
-19
19
-11
-21
-37
-40
-28
-63
-42
-23
-21
-9
-8
-18
-36
-15
-61
-59
-47
-35
-19
-20
-3
-12
-25
-47
-57
-49
-44
-27
-33
-5
-6
-11
-34
-29
-55
-47
-45
-30
-16
23
6
-14
-18
-15
-55
-52
-26
-36
-24
5
-7
-29
-18
-31
-72
-42
-18
-27
-25
-17
-9
-27
-33
-49
-58
-54
-36
-31
-11
8
1
-26
-38
-39
-64
-65
-43
-29
-17
-8
35
-7
-63
-67
-74
-68
-57
-52
-20
-2
12
69
101
87
70
61
84
87
113
105
95
72
32
-37
-51
-52
-65
-47
-31
-7
-32
-36
-34
-66
-44
-33
-39
-35
-3
-16
-21
-49
-26
-58
-50
-55
-62
-33
-14
5
-12
-29
-18
-66
-60
-49
-36
-23
0
-5
-12
-43
-33
-55
-56
-39
-37
-17
-13
8
-12
-10
-39
-55
-66
-52
-26
-19
-2
5
2
-19
-43
-66
-47
-26
-29
0
0
13
4
-31
-27
-42
-42
-23
-19
-6
-1
13
27
-8
-18
-40
-51
-31
-9
6
29
26
-1
-2
-7
-22
-26
-4
21
30
34
41
38
9
15
-11
-24
9
9
45
39
39
40
23
14
4
7
3
9
27
26
34
19
1
-19
-35
-29
-22
-4
9
21
6
-5
-31
-37
-57
-32
-32
-23
-21
0
21
-35
-41
-42
-56
-53
-21
-24
-16
-4
7
-25
-44
-59
-38
-74
-43
-33
-19
-12
-11
-28
-38
-51
-57
-46
-39
-31
-19
-4
-26
-33
-47
-54
-51
-54
-41
-34
-15
1
2
-34
-46
-70
-59
-53
-42
-34
-8
7
1
-18
-36
-58
-60
-54
-49
-21
-6
-6
-3
-18
-17
-45
-64
-48
-26
-32
-3
2
-19
-24
-33
-50
-32
-45
-34
-35
0
-3
-35
-27
-41
-47
-61
-22
-26
-32
-5
-1
-21
-43
-23
-47
-59
-35
-28
-23
3
-10
-26
-29
-39
-55
-64
-41
-28
-16
16
-3
-25
-20
-56
-44
-47
-30
-31
-16
-3
-7
-24
-36
-34
-56
-44
-33
-14
-10
30
8
-3
-38
-63
-37
-25
-33
-36
15
5
-12
-20
-26
-61
-53
-58
-24
-29
-2
15
-10
-25
-39
-47
-60
-54
-42
-15
-17
-9
-13
-30
-52
-41
-64
-71
-41
-13
-14
2
-2
4
15
17
56
79
117
116
134
127
137
105
99
61
34
33
10
-33
-41
-13
-34
-43
-22
-58
-76
-56
-15
-37
-9
-9
-4
-20
-32
-73
-71
-37
-28
-21
-7
10
9
-35
-18
-21
-54
-38
-23
-29
-8
-15
-17
-30
-31
-53
-71
-43
-38
-25
28
9
-27
-34
-35
-57
-48
-25
-8
-14
11
-14
-13
-35
-20
-49
-50
-27
-24
3
6
4
-17
-24
-20
-50
-42
-9
-9
6
26
9
7
-12
-30
-40
-30
-9
-7
-7
19
14
-11
-16
-6
-12
-28
-8
14
50
29
37
27
4
11
-10
-10
5
33
18
46
49
39
22
-4
2
11
34
26
31
38
26
19
-1
-11
-19
-15
-10
2
34
35
11
4
-15
-45
-50
-51
-30
-3
11
-1
-14
-22
-28
-47
-50
-39
-20
-15
13
0
10
-26
-46
-45
-35
-49
-18
-13
16
-8
-10
-12
-42
-60
-53
-30
-30
-28
8
26
-51
-44
-44
-53
-41
-38
-32
-16
18
10
0
-21
-42
-64
-75
-30
-24
-11
4
0
-6
-19
-22
-49
-50
-46
-11
-17
-4
-17
14
-11
-33
-43
-49
-41
-45
-9
-2
10
3
-29
-35
-26
-65
-34
-13
-3
-6
-3
-15
-45
-32
-46
-41
-29
-23
-9
6
-4
-17
-30
-31
-48
-61
-35
-35
-26
9
5
-8
-11
-45
-57
-36
-30
-31
-6
30
14
-5
-16
-59
-68
-40
-28
-32
-2
9
-9
-32
-30
-29
-52
-42
-27
-11
6
-1
-8
-3
-20
-38
-37
-34
-26
-15
3
14
-15
-25
-29
-53
-39
-13
-5
-41
