-23
-26
-20
-17
-12
-18
-6
-9
-24
-19
-14
-28
-19
-15
-17
-20
-16
-19
-18
-6
-31
-16
-14
-13
-30
-34
-7
-21
-12
1
-11
-18
-16
-18
-16
-19
-11
-48
-7
-24
-17
-17
-28
-9
8
-11
-15
-20
-17
-21
-23
-16
-27
-34
-8
-30
-16
-4
-18
-40
-5
-4
12
-15
-8
-8
-13
-13
-18
-15
-8
-19
-23
-21
-21
10
6
-5
-7
8
17
1
-2
1
3
-4
-9
-12
-6
-25
-20
-34
-22
-9
-18
-16
-32
-30
-25
-25
-19
-11
-11
-16
-25
-25
-24
-30
-30
-11
-27
-46
-44
-15
-22
-17
-24
-17
-16
-13
-31
-24
-16
-22
-28
-23
-15
-28
-30
-20
-15
-19
-17
-22
-6
-5
0
-12
-21
1
27
24
23
32
32
53
67
80
84
90
93
56
40
17
-1
-16
-50
-77
-51
-57
-38
-31
-25
-19
-20
-17
-26
-28
-20
-30
-19
-14
-14
-26
-28
-12
-16
-17
-28
-1
-10
-21
-16
-27
-36
-23
-25
-16
-4
-5
-15
-19
-7
-28
-23
-19
-36
-23
-4
1
-20
-19
-15
-16
-18
-18
-18
-28
-20
-16
-11
-4
-15
-19
-18
-16
-6
-29
-9
-13
-37
-26
1
-2
-11
-6
0
-6
-6
-7
0
4
6
-9
-7
6
5
-15
-14
25
12
5
9
12
10
3
12
10
20
25
23
22
26
19
26
28
16
11
29
21
25
35
37
36
26
15
35
45
40
17
24
29
18
13
12
19
13
2
10
-7
-9
0
-21
-8
-15
-27
-8
0
-24
-14
-2
-13
-23
-22
-13
-26
-34
-36
-35
-34
-10
-21
-17
-26
-29
-10
-14
-15
-28
-40
-29
-40
-30
-28
-20
-26
-29
-31
-17
-7
-10
-33
-40
-9
-30
-30
-32
-22
-13
-22
-26
-23
-30
-28
-28
-32
-13
-11
-41
-33
-13
-44
-23
-21
-18
-10
-19
-20
-26
-29
-20
-23
-39
-38
-12
-17
-33
-33
-13
-16
-26
-15
-6
-17
-18
-14
-40
-24
-22
-24
-28
-35
-21
-30
-13
-12
-37
-29
-30
-25
-18
-29
-25
-20
-22
-36
-28
-19
-20
-31
-49
-20
-21
-22
-14
-35
-32
-6
-33
-27
-17
-33
-22
-20
3
-18
-21
-18
-10
-19
-23
-26
-24
-16
-16
-15
1
-5
-9
-5
-14
-9
-9
-5
-2
-9
-14
-11
-8
-19
-24
-21
-25
-28
-11
-27
-22
-22
-31
-28
-24
-22
-25
-34
-34
-23
-36
-36
-33
-37
-17
-33
-30
-31
-14
-14
-23
-36
-16
-31
-25
-34
-26
-43
-25
-25
-32
-29
-21
-29
-33
-27
-34
-51
-25
-25
-27
-14
-17
-10
-9
-6
5
-11
2
15
14
15
32
45
65
73
67
97
93
82
52
17
-15
-14
-48
-60
-41
-44
-50
-46
-28
-32
-42
-30
-25
-19
-34
-26
-37
-25
-24
-20
-20
-33
-20
-40
-30
-12
-16
-26
-29
-13
-19
-35
-30
-12
-24
-23
-24
-26
-26
-49
-60
-13
6
-18
-7
-14
-19
-19
-22
-27
-28
-30
-27
-14
-4
-14
-19
-21
-14
-18
-26
-23
-18
-21
-11
-16
-20
-24
-28
-19
0
-11
-21
-27
-5
-22
-2
8
4
-8
0
-6
-14
-13
-5
-5
2
-6
17
15
11
11
10
19
22
8
6
35
31
29
18
8
31
27
7
26
22
35
37
29
28
49
28
27
23
20
12
4
8
19
25
15
9
-1
-5
-14
-12
10
6
-8
-6
-19
-16
-20
-18
-11
-22
-24
-27
-49
-48
-20
-16
-16
-26
-25
-12
-5
-28
-22
-22
-32
-37
-38
-22
-22
-21
-14
-32
-30
-35
-8
-19
-30
-39
-44
-31
-19
-16
-14
-25
-17
-24
-30
-28
-31
-23
-25
-24
-26
-22
-23
-22
-16
-21
-40
-33
-25
-27
-21
-20
-10
-8
-20
-31
-35
-32
-39
-31
-8
-16
-20
-20
-12
-19
-38
-26
-10
-14
-29
-27
-42
-37
-26
-21
-26
-23
-21
-11
-5
-10
-20
-19
-30
-35
-27
-32
-23
-21
-14
-15
-26
-18
-14
-20
-24
-25
-19
-25
-39
-24
-23
-31
-32
-30
-22
-19
-9
-23
-33
-17
-40
-26
-14
-22
-23
-16
-28
-32
-28
-38
-25
-12
-23
-31
-27
-6
-19
-22
-39
-36
-17
-18
-21
-21
-29
-10
-36
-18
-31
-19
-11
-26
-31
-20
-28
-32
-40
-35
-2
-17
-19
-22
-16
-21
-5
-6
-21
-20
6
-14
-18
-16
-19
-27
-11
0
-12
-15
-21
2
5
-7
-1
-19
-11
-10
-8
-3
-11
-14
-13
-13
-35
-20
-21
-19
-40
-34
-14
-5
-25
-29
-25
-22
-14
-3
-33
-35
-26
-25
-11
-26
-21
-23
-24
-20
-12
-18
-27
-31
-35
-31
-18
-9
-39
-29
-23
-19
-15
-25
-33
-33
-30
-11
-20
-8
-17
0
2
6
12
12
-9
-12
22
42
51
60
66
84
85
81
61
49
34
27
-3
-12
-31
-58
-69
-50
-47
-43
-31
-55
-33
-20
-25
-18
-13
-24
-24
-11
-21
-5
-4
-24
-21
-18
-23
-17
-18
-27
-39
-16
-5
-3
-11
-10
-14
-19
-25
-26
-30
-2
14
1
-12
-28
-16
-12
-22
-7
-12
-46
-11
10
-16
-13
-9
-13
-9
-7
-12
-14
-8
-15
6
1
-13
-12
-6
-9
-18
-11
-13
1
1
-13
10
8
-3
-5
-9
-5
-5
-6
17
9
-4
12
31
16
16
22
19
16
19
17
24
27
32
21
40
40
30
28
32
52
42
44
50
21
21
35
52
52
59
31
46
40
42
18
22
14
18
20
26
20
5
12
2
9
16
7
12
6
-13
-14
-17
-12
-3
1
-16
-12
-11
-20
-25
-24
-28
-25
-13
-10
-7
-28
-12
-11
-17
-23
-24
-23
-20
-25
-37
-28
-3
-13
-23
-19
-13
-18
-16
-18
-22
-17
-14
-23
-3
-14
-26
-25
-13
-26
-19
-17
-15
-19
-28
-26
-14
-30
-9
-19
-7
-11
-19
-16
-24
-23
-14
-16
-21
-22
-26
-24
-12
-8
-22
-26
-17
-35
-18
-9
-12
-20
-11
-12
-6
-13
-19
-19
-19
-9
-18
-15
-11
-7
-18
-35
-28
-10
-14
-22
-3
-9
-8
-10
-12
-18
-7
-24
-7
-17
-23
-14
-5
-25
-35
-29
-38
-34
-10
-20
-14
-8
-19
-19
-12
-23
-25
-8
-23
-15
-6
-13
-8
-6
1
10
-2
-13
-10
-7
-17
-20
-9
-8
-9
-5
12
8
9
-6
-5
-19
-16
-2
-10
-23
-24
-17
-20
-6
-29
-28
-13
-16
-16
-20
-26
-25
-37
-34
-20
-12
-20
-26
-30
-18
-25
-25
-31
-21
-7
-39
-35
-9
-8
-26
-28
-21
-30
-33
-23
-10
-6
-12
-29
-26
-30
-33
-18
-25
-24
-5
8
-6
-7
8
15
-2
12
25
26
45
53
67
82
74
67
70
30
27
6
4
-20
-51
-64
-62
-62
-56
-46
-40
-41
-24
-20
-27
-21
-32
-31
-13
-13
-22
-22
-15
-16
-17
-8
-15
-22
-19
-13
-35
-13
-13
-20
-17
-27
-21
-3
-10
-14
-18
-19
-20
-25
-33
-12
-1
-24
-41
-25
-3
-13
-8
-12
-6
-10
-7
-22
-5
0
-33
-28
-7
0
-20
-33
-29
-10
10
2
-28
-19
11
1
4
-2
-1
-13
-6
-4
-3
-1
2
1
5
-1
0
-10
-3
4
-3
15
21
24
17
27
23
30
37
25
25
36
41
38
35
41
35
31
31
22
40
30
30
29
32
58
49
22
31
27
26
16
18
15
12
11
-1
-7
-6
-6
-5
-9
-7
-21
-20
-26
-38
-11
-5
-16
-20
-20
-32
-25
-24
-44
-24
-22
-17
-15
-6
-16
-33
-36
-39
-21
-30
-15
-24
-28
-26
-18
-26
-31
-29
-20
-28
-26
-29
-39
-26
-37
-17
-14
-35
-24
-23
-30
-42
-20
-35
-31
-33
-29
-15
-29
-20
-20
-25
-37
-29
-8
-37
-37
-19
-30
-28
-34
-27
-6
-12
-33
-28
-27
-27
-34
-18
-10
-21
-23
-33
-27
-24
-32
-31
-23
-16
-22
-33
-34
-36
-29
-22
-25
-18
-18
-27
-25
-29
-20
-30
-41
-43
-12
-21
-21
-22
-25
-20
-27
-21
-21
-22
-34
-31
-10
-29
-27
-28
-23
-26
-18
-30
-28
-35
-26
-26
-19
-32
-31
-21
-33
-36
-13
-21
-37
-45
-24
-13
-15
-19
-21
-36
-31
-24
-21
-8
-10
-13
-25
-16
-10
-28
-23
-14
-21
-2
0
-25
-21
-3
18
-6
-19
-14
-20
-11
-32
-15
-21
-12
-16
-30
-29
-15
-32
-30
-37
-21
-37
-25
-36
-41
-32
-26
-32
-28
-20
-22
-45
-43
-28
-26
-38
-16
-43
-49
-33
-35
-24
-35
-48
-34
-21
-28
-20
-34
-31
-23
-30
-15
-34
-41
-34
-39
-31
-15
-17
-17
-6
-5
6
1
7
15
15
25
38
50
67
90
83
60
39
29
21
14
-17
-54
-69
-58
-55
-62
-50
-45
-36
-39
-35
-14
-32
-36
-36
-24
-27
-38
-32
-29
-25
-19
-17
-26
-31
-23
-31
-30
-25
-49
-36
-23
-30
-27
-28
-27
-34
-34
-23
-25
-19
-20
-19
-41
-30
-27
-46
-6
-18
-28
-28
-21
-17
-27
-27
-19
-24
-31
-23
-24
-40
-27
-9
-20
-12
-21
-37
-23
-23
-12
-15
-27
-25
-25
-9
-11
-21
-10
-17
-16
-8
-5
-19
-29
-9
-13
0
0
-18
5
10
11
12
18
13
9
4
5
-4
7
13
26
23
3
22
32
21
26
23
21
31
25
25
32
6
7
14
8
7
14
-4
-18
10
2
-8
-15
-8
-9
-26
-30
-19
-24
-27
-10
-17
-24
-35
-39
-32
-41
-36
-31
-30
-45
-38
-24
-41
-43
-22
-32
-37
-29
-28
-23
-39
-41
-44
-34
-32
-36
-28
-33
-59
-46
-27
-39
-38
-34
-24
-28
-29
-30
-36
-41
-35
-38
-45
-34
-35
-27
-37
-31
-26
-37
-35
-32
-37
-35
-38
-47
-31
-42
-39
-26
-25
-43
-42
-18
-33
-44
-27
-31
-32
-26
-28
-43
-46
-37
-38
-44
-42
-35
-22
-27
-31
-45
-44
-24
-8
-33
-38
-37
-26
-34
-35
-35
-33
-32
-33
-43
-45
-19
-28
-55
-38
-15
-40
-22
-33
-35
-39
-21
-28
-34
-36
-38
-39
-41
-49
-40
-31
-40
-34
-38
-35
-35
-40
-27
-24
-40
-42
-42
-48
-66
-35
6
-20
-32
-37
-40
-32
-40
-30
-34
-34
-35
-33
-27
-35
-54
-35
-21
-40
-35
-23
-18
-24
-27
-31
-36
-18
-21
-34
-27
-23
-26
-34
-19
-18
-11
-19
5
-10
-15
-34
-33
-35
-21
-32
-36
-19
-28
-30
-31
-28
-35
-38
-28
-9
-19
-35
-47
-43
-46
-41
-41
-40
-38
-29
-44
-34
-30
-41
-38
-41
-41
-38
-40
-33
-31
-42
-42
-30
-37
-46
-41
-37
-34
-36
-36
-44
-46
-41
-51
-38
-39
-32
-31
-37
-25
-8
-11
3
2
9
0
15
5
24
43
52
78
72
69
65
45
41
21
-8
-25
-53
-63
-60
-57
-64
-50
-43
-32
-32
-44
-43
-29
-30
-31
-51
-36
-32
-50
-46
-25
-22
-26
-35
-27
-33
-43
-26
-30
-41
-29
-31
-37
-23
-21
-37
-29
-3
-30
-33
-20
-32
-24
-37
-25
-16
-30
-30
-22
-31
-21
-35
-37
-26
-24
-20
-30
-27
-35
-34
-22
-29
-23
-17
-52
-19
-19
-13
-18
-23
-26
-9
-18
-21
-37
-24
-18
-12
-18
6
4
-10
-7
-9
-21
-15
6
4
1
3
5
6
13
-3
4
21
17
-13
13
15
25
28
12
14
17
26
25
19
27
19
36
23
24
20
8
16
17
6
5
10
6
-5
-23
6
9
2
-23
-12
-11
-14
1
-12
-21
-18
-26
-34
-24
-39
-40
-37
-28
-18
-35
-37
-29
-15
-26
-30
-28
-43
-35
-15
-34
-33
-34
-31
-22
-41
-40
-51
-28
-19
-28
-27
-36
-31
-45
-40
-31
-24
-29
-31
-26
-14
-30
-45
-30
-31
-23
-20
-43
-53
-33
-18
-39
-35
-30
-28
-20
-22
-27
-29
-28
-36
-27
-28
-32
-38
-36
-20
-11
-25
-34
-24
-33
-37
-34
-25
-29
-28
-38
-18
-19
-31
-43
-45
-21
-19
-20
-20
-39
-33
-27
-35
-27
-25
-43
-41
-34
-22
-27
-18
-28
-50
-36
-1
-17
-33
-22
-34
-52
-26
-17
-20
-43
-32
-30
-33
-43
-29
-18
-22
-44
-34
-17
-15
-23
-35
-39
-36
-34
-28
-22
-36
-42
-37
-8
-10
-17
-23
-23
-17
-16
-17
-14
-24
-26
-24
-9
-16
-26
-22
-22
-16
-29
-9
-14
-23
-20
-9
-7
-18
-2
-2
-26
-12
-7
-23
-23
-43
-9
-17
-43
-27
-27
-27
-28
-30
-28
-30
-31
-37
-18
-28
-21
-32
-38
-30
-28
-18
-27
-43
-30
-42
-26
-29
-39
-22
-24
-25
-23
-49
-30
-23
-15
4
0
5
8
-20
-9
11
25
30
44
62
73
83
72
73
40
16
-5
-13
-26
-48
-64
-69
-88
-63
-52
-42
-38
-48
-23
-28
-29
-19
-22
-35
0
-8
-35
-38
-17
-35
-18
6
-4
-30
-26
-36
-24
-15
-16
-38
-32
-1
10
-6
-21
-23
-22
-10
-25
-19
-19
-33
-9
-6
-24
-38
-10
-17
-34
-14
-15
-15
-1
-13
-4
-14
-20
-4
-11
-31
-5
-6
-10
-9
-13
-13
-8
-8
-13
5
3
5
5
-2
-13
1
9
10
-4
-1
-2
6
-25
9
5
-1
26
33
25
16
27
28
8
3
24
33
39
41
30
42
49
22
26
39
43
35
41
45
32
50
54
34
40
37
37
16
14
15
17
15
16
12
4
10
7
-17
-10
7
-7
-7
-20
-17
-12
-14
-26
-25
-17
-22
-23
-18
-26
-21
-21
-17
-23
-31
-31
-8
-27
-37
-25
-31
-17
-34
-25
-32
-21
-16
-27
-29
-23
-15
-18
-20
-24
-25
-23
-29
-35
-40
-40
-23
-16
-17
-26
-26
-22
-26
-30
-24
-17
-22
-31
-37
-19
-20
-37
-12
-14
-28
-22
-24
-33
-37
-36
-25
-30
-19
-24
-25
-25
-13
-34
-28
-19
-24
-23
-20
-20
-18
-22
-34
-29
-17
-12
-26
-23
-42
-28
-22
-15
-24
-23
-25
-33
-20
-30
-22
-43
-30
-17
-33
-7
-24
-17
-21
-12
-32
-23
-32
-28
-26
-25
-31
-23
-35
-27
-21
-15
-25
-35
-20
-10
-20
-14
-12
-24
-18
-25
-23
-20
-13
-9
-20
-18
-22
-17
-8
-7
-6
-11
-14
-15
-20
4
-10
-3
-11
-21
-16
-31
-41
-35
-25
-38
-23
-14
-39
-36
-10
-22
-30
-28
-31
-13
-29
-32
-37
-27
-24
-33
-39
-19
-23
-33
-31
-29
-42
-23
-32
-27
-39
-43
-50
-22
-16
-34
-19
-19
-40
-23
-17
-47
-44
-29
-28
-16
-33
12
18
16
6
-6
5
15
11
22
46
80
82
67
82
61
29
15
6
-26
-36
-42
-71
-64
-59
-67
-53
-34
-38
-33
-43
-33
-30
-25
-30
-27
-25
-29
-36
-38
-33
-19
-10
-28
-35
-24
-12
-29
-39
-40
-13
-12
-30
-22
-23
-21
-26
-34
-29
-20
-6
-8
-19
-33
-30
-20
-18
-28
-24
-29
-35
-22
-42
-27
-19
-32
-22
-6
-1
-23
-22
-20
-15
-22
-23
-19
-38
-29
-31
-11
-3
-6
-11
-9
-13
-10
-7
-15
-7
-11
-7
-6
-11
-10
-10
-2
-8
5
3
6
18
24
22
21
22
5
22
14
13
19
22
16
24
18
24
26
17
20
42
37
42
37
10
-1
15
20
15
17
12
-1
1
-1
-1
8
3
-7
-17
-17
-8
-25
-27
-29
-25
-38
-18
-28
-36
-35
-17
-25
-34
-35
-29
-18
-22
-24
-46
-35
-27
-36
-46
-36
-30
-50
-29
-31
-38
-36
-20
-19
-10
-31
-32
-38
-24
-32
-35
-30
-39
-41
-47
-42
-42
-45
-36
-22
-28
-9
-16
-39
-25
-33
-26
-35
-34
-36
-40
-37
-48
-36
-23
-30
-32
-33
-54
-28
-21
-26
-19
-32
-31
-35
-41
-36
-30
-28
-40
-32
-25
-36
-22
-32
-32
-42
-35
-54
-33
-11
-26
-27
-22
-31
-41
-34
-35
-31
-30
-24
-27
-25
-25
-38
-46
-40
-39
-32
-35
-33
-30
-44
-39
-31
-20
-44
-47
-36
-33
-26
-37
-27
-27
-31
-25
-30
-35
-49
-38
-31
-38
-32
-49
-35
-43
-46
-35
-23
-26
-17
-24
-33
-38
-28
-39
-37
-30
-28
-28
-31
-29
-28
-31
-39
-30
-20
-23
7
-8
-18
-13
-26
-28
-6
-12
-18
-29
-43
-24
-30
-28
-19
-37
-33
-14
-35
-42
-31
-41
-40
-48
-41
-40
-48
-30
-44
-53
-43
-44
-42
-41
-51
-67
-50
-15
-33
-33
-28
-32
-39
-45
-29
-30
-32
-54
-51
-42
-37
-33
-41
-25
-30
-51
-43
-37
-46
-41
-23
-17
-20
-28
-9
-3
0
-9
3
8
22
25
50
50
49
62
91
71
35
2
-4
-34
-44
-68
-74
-58
-51
-60
-69
-62
-38
-31
-29
-43
-31
-53
-39
-28
-35
-37
-52
-54
-26
-22
-23
-40
-37
-46
-37
-28
-40
-41
-35
-35
-31
-38
-36
-26
-35
-35
-22
-18
-46
-30
-33
-31
-35
-38
-29
-33
-44
-42
-46
-22
-44
-32
-30
-36
-46
-17
-17
-34
-46
-39
-29
-12
-16
-24
-33
-34
-30
-20
-24
-22
-32
-14
-25
-33
-37
-15
-7
-27
-21
-12
-17
-12
-18
-12
-6
-10
5
-8
-7
4
-8
-2
13
-12
0
4
23
12
-8
29
23
15
13
17
12
12
4
5
13
10
16
20
26
9
-6
-1
7
6
5
-7
-24
-24
-17
-16
-26
-34
-38
-20
-23
-34
-43
-29
-18
-36
-40
-33
-36
-29
-25
-45
-47
-40
-39
-30
-34
-46
-36
-49
-48
-49
-51
-36
-26
-36
-44
-41
-39
-46
-43
-37
-42
-60
-49
-40
-48
-44
-32
-43
-40
-49
-52
-41
-35
-49
-50
-41
-27
-30
-35
-42
-41
-45
-46
-43
-40
-38
-46
-37
-40
-38
-34
-40
-55
-40
-43
-44
-32
-41
-55
-42
-47
-42
-38
-36
-37
-36
-37
-48
-46
-42
-40
-28
-43
-58
-47
-28
-38
-39
-34
-38
-45
-31
-33
-49
-36
-47
-47
-41
-43
-43
-36
-33
-37
-58
-42
-33
-56
-40
-38
-53
-52
-45
-43
-46
-44
-39
-36
-34
-42
-56
-45
-43
-48
-50
-32
-28
-45
-56
-43
-42
-42
-48
-50
-54
-30
-28
-34
-45
-39
-47
-54
-46
-47
-57
-41
-41
-47
-58
-34
-33
-39
-41
-31
-52
-52
-38
-36
-27
-13
-31
-47
-36
-29
-28
-32
-26
-34
-35
-53
-36
-19
-16
-31
-21
-25
-23
-45
-30
-34
-29
-33
-40
-42
-16
-20
-43
-48
-37
-48
-44
-60
-63
-37
-37
-34
-36
-38
-45
-38
-30
-33
-58
-61
-56
-44
-46
-50
-43
-28
-38
-35
-43
-39
-43
-33
-38
-50
-59
-41
-50
-44
-43
-47
-64
-54
-43
-43
-47
-42
-50
-36
-32
-29
-16
-7
-4
-11
-2
21
2
10
32
59
64
71
83
57
27
-7
-5
-7
-48
-61
-69
-81
-67
-66
-66
-76
-59
-36
-45
-41
-23
-31
-44
-53
-52
-54
-25
-43
-35
-44
-36
-32
-33
-35
-39
-36
-45
-38
-35
-54
-45
-46
-34
-38
-37
-47
-45
-27
-36
-46
-39
-28
-29
-54
-43
-43
-41
-20
-35
-50
-32
-37
-42
-35
-27
-30
-38
-19
-19
-23
-41
-42
-21
-30
-37
-35
-34
-41
-28
-29
-29
-35
-12
-29
-29
-16
-11
-23
-27
-44
-12
-11
-22
-18
-20
-16
-7
-5
-10
-4
-19
1
14
11
4
9
9
18
2
7
14
18
12
6
15
24
17
-4
19
10
23
24
9
-9
-23
16
1
-15
-17
2
-9
-29
2
-13
-15
-22
-22
-23
-22
-25
-33
-34
-37
-40
-37
-42
-52
-39
-27
-34
-43
-36
-27
-39
-40
-46
-41
-32
-25
-36
-49
-54
-53
-43
-48
-42
-53
-32
-30
-33
-67
-49
-31
-36
-46
-40
-32
-30
-51
-37
-41
-51
-43
-42
-37
-26
-27
-43
-43
-42
-46
-65
-45
-27
-37
-40
-40
-37
-32
-37
-44
-42
-45
-40
-39
-45
-56
-30
-26
-26
-29
-37
-38
-22
-37
-36
-52
-43
-38
-31
-39
-39
-29
-34
-29
-28
-28
-50
-34
-29
-45
-39
-53
-52
-27
-46
-49
-45
-30
-35
-39
-35
-37
-50
-29
-24
-32
-45
-41
-37
-28
-31
-49
-40
-35
-28
-39
-34
-17
-31
-56
-30
-50
-36
-33
-39
-42
-57
-39
-46
-50
-21
-20
-42
-55
-30
-29
-30
-34
-41
-49
-31
-27
-35
-40
-39
-43
-40
-29
-24
-37
-27
-29
-23
-21
-32
-16
-23
-40
-26
-30
-44
-41
-33
-16
-9
-12
-13
-5
-21
-25
-35
-57
-30
-21
-30
-42
-32
-22
-43
-48
-31
-27
-20
-45
-58
-33
-24
-30
-39
-47
-51
-49
-43
-35
-36
-49
-47
-31
-45
-35
-44
-41
-51
-57
-25
-31
-41
-35
-23
-39
-33
-26
-46
-35
-23
-46
-50
-19
-33
-44
-26
-25
-23
-17
-25
-11
-17
2
6
9
16
35
40
50
63
48
55
46
20
-2
-11
-28
-62
-81
-89
-91
-58
-63
-68
-59
-39
-23
-33
-41
-28
-26
-30
-38
-39
-39
-37
-43
-42
-40
-23
-37
-39
-23
-35
-41
-31
-35
-50
-31
-33
-8
-29
-32
-30
-27
-40
-29
-43
-28
-26
-33
-25
-33
-28
-26
-30
-28
-35
-42
-22
-19
-19
-18
-28
-26
-22
-39
-19
-32
-21
-12
-15
-21
-23
-24
-26
-21
-34
-29
-23
2
-10
-18
-9
-6
-15
-15
-16
-21
-24
-10
7
-4
-11
-10
8
8
9
14
21
9
5
19
11
16
44
23
8
40
26
25
26
22
20
28
29
23
27
37
24
32
32
23
22
10
8
5
0
-8
-17
-20
-10
-5
-9
-22
-28
-10
-15
-18
-24
-33
-22
-21
-41
-38
-35
-32
-34
-39
-34
-28
-43
-38
-37
-34
-38
-41
-37
-38
-36
-43
-26
-30
-35
-37
-34
-41
-37
-35
-43
-44
-27
-51
-40
-30
-29
-29
-21
-30
-36
-45
-43
-36
-46
-61
-58
-17
-36
-44
-25
-22
-36
-45
-43
-38
-30
-35
-37
-35
-39
-48
-41
-46
-51
-25
-29
-22
-32
-51
-47
-27
-16
-31
-29
-29
-52
-37
-44
-30
-28
-27
-25
-27
-32
-31
-31
-37
-39
-46
-50
-35
-37
-41
-25
-13
-32
-44
-44
-45
-52
-48
-45
-22
-20
-31
-31
-33
-36
-43
-44
-32
-30
-40
-37
-40
-31
-34
-43
-35
-44
-39
-21
-32
-32
-31
-58
-40
-13
-22
-40
-39
-35
-43
-58
-32
-21
-19
-29
-27
-27
-31
-26
-35
-41
-14
-22
-33
-34
-39
-19
-17
-32
-36
-23
-8
3
-17
-19
-26
-20
-27
-26
-33
-36
-33
-39
-33
-45
-38
-31
-45
-45
-30
-28
-22
-30
-41
-46
-47
-51
-61
-52
-38
-42
-57
-36
-37
-33
-40
-31
-43
-36
-47
-38
-40
-42
-38
-43
-42
-32
-32
-33
-42
-35
-35
-45
-29
-34
-21
-44
-46
-33
-13
-6
-12
-18
-20
-4
9
8
17
40
62
73
69
62
48
26
11
-17
-39
-59
-74
-72
-81
-66
-63
-65
-49
-41
-50
-39
-39
-33
-19
-39
-46
-37
-37
-41
-31
-27
-24
-34
-48
-45
-34
-44
-40
-46
-53
-53
-48
-31
-24
-16
-22
-44
-34
-35
-35
-22
-38
-35
-29
-28
-38
-25
-34
-60
-42
-23
-41
-35
-23
-32
-29
-24
-32
-35
-20
-43
-47
-33
-34
-43
-20
-21
-42
-22
-18
-32
-31
-22
-23
-14
-16
-25
-18
-25
-21
-29
-26
-10
-9
-4
-21
-23
-8
0
-14
3
-8
-10
11
27
7
3
13
5
3
16
19
11
2
-2
30
4
5
20
13
32
27
21
14
10
17
2
-9
-4
-1
-1
-2
-17
-36
-16
-13
-24
-31
-33
-32
-28
-38
-25
-23
-25
-38
-50
-36
-39
-31
-48
-34
-44
-55
-46
-37
-41
-42
-59
-33
-33
-35
-42
-43
-37
-45
-50
-48
-33
-49
-51
-54
-52
-54
-37
-44
-41
-39
-40
-32
-50
-62
-37
-43
-39
-49
-48
-40
-39
-48
-47
-40
-34
-48
-49
-51
-35
-41
-57
-54
-38
-51
-43
-45
-32
-42
-49
-43
-38
-37
-36
-30
-42
-50
-48
-59
-47
-40
-37
-50
-33
-37
-38
-33
-40
-44
-33
-46
-53
-52
-37
-45
-48
-59
-48
-40
-45
-38
-49
-33
-68
-51
-39
-31
-37
-35
-41
-48
-45
-37
-28
-42
-50
-35
-38
-59
-74
-35
-30
-43
-60
-48
-38
-30
-43
-43
-47
-46
-37
-38
-33
-49
-57
-43
-46
-54
-57
-35
-31
-47
-49
-51
-45
-40
-45
-39
-37
-43
-41
-39
-32
-34
-34
-43
-39
-42
-42
-19
-33
-32
-14
-25
-31
-19
-21
-27
-35
-31
-25
-38
-46
-39
-44
-43
-45
-40
-35
-35
-48
-44
-46
-52
-56
-45
-33
-48
-37
-56
-57
-26
-46
-46
-54
-59
-47
-35
-43
-33
-51
-57
-43
-58
-65
-48
-46
-49
-53
-45
-44
-52
-49
-36
-55
-58
-56
-43
-48
-51
-33
-36
-23
-23
-26
-16
-24
-7
-13
-7
11
18
32
39
54
67
78
46
35
11
-8
-14
-43
-66
-76
-80
-60
-57
-61
-56
-54
-63
-32
-45
-44
-35
-55
-54
-34
-53
-56
-40
-46
-52
-40
-44
-30
-31
-47
-33
-32
-29
-48
-46
-37
-54
-60
-39
-29
-45
-50
-40
-40
-41
-48
-59
-52
-40
-39
-32
-35
-41
-34
-29
-31
-46
-47
-44
-50
-35
-41
-27
-30
-38
-45
-37
-35
-35
-26
-27
-38
-29
-32
-33
-20
-39
-44
-52
-34
-33
-27
-21
-22
-20
-17
-28
-32
-22
-31
-13
0
-6
-21
-19
-15
-1
-18
8
13
-2
14
-7
6
8
12
6
10
6
5
11
19
15
7
7
13
17
16
-1
-2
-6
-22
-12
-7
-2
-18
-22
-16
-22
-9
-22
-44
-49
-25
-33
-44
-27
-33
-43
-46
-38
-46
-47
-36
-40
-45
-39
-39
-50
-50
-43
-45
-41
-48
-55
-50
-46
-33
-44
-52
-43
-44
-40
-41
-56
-75
-49
-35
-42
-46
-55
-47
-27
-31
-37
-56
-43
-38
-46
-62
-38
-34
-42
-42
-52
-54
-41
-31
-38
-53
-52
-46
-60
-48
-23
-45
-43
-40
-36
-40
-49
-40
-44
-45
-54
-67
-52
-23
-25
-39
-51
-45
-43
-39
-47
-50
-47
-35
-40
-42
-43
-36
-44
-50
-54
-43
-48
-46
-41
-58
-34
-32
-51
-41
-37
-44
-47
-52
-59
-30
-34
-46
-36
-44
-24
-43
-50
-44
-44
-46
-46
-41
-28
-36
-32
-55
-52
-44
-37
-39
-47
-51
-37
-41
-34
-56
-60
-45
-33
-52
-38
-46
-44
-30
-36
-33
-46
-40
-38
-32
-30
-34
-43
-18
-13
-32
-38
-43
-26
-32
-20
-24
-28
-36
-30
-24
-38
-34
-16
-29
-36
-44
-48
-42
-40
-39
-38
-49
-52
-41
-47
-40
-33
-34
-39
-40
-42
-24
-41
-48
-50
-62
-33
-49
-67
-44
-43
-62
-39
-36
-41
-30
-33
-29
-48
-56
-40
-55
-41
-47
-41
-44
-51
-41
-34
-44
-53
-51
-31
-29
-23
-28
-10
-12
3
-7
7
17
24
30
45
56
55
79
45
43
33
9
-11
-37
-58
-72
-67
-66
-77
-72
-54
-57
-46
-27
-40
-45
-42
-43
-53
-43
-43
-26
-28
-47
-46
-35
-34
-26
-28
-42
-38
-40
-53
-17
-24
-41
-43
-34
-47
-45
-51
-36
-32
-31
-27
-34
-30
-28
-32
-35
-32
-35
-27
-18
-8
-38
-31
-43
-40
-42
-31
-32
-41
-54
-11
-33
-20
-20
-28
-32
-26
-23
-34
-23
-21
-18
-30
-34
-34
-11
1
-19
-20
-22
-15
-9
-10
-1
-7
-5
-14
-3
6
3
7
-10
-2
6
4
-3
10
10
6
10
16
24
15
13
24
28
23
22
13
13
27
23
9
-8
18
20
14
5
-1
-14
-9
-7
-2
0
-15
-14
-21
-32
-18
-12
-43
-45
-19
-20
-32
-33
-40
-28
-29
-40
-41
-62
-26
-24
-22
-28
-49
-40
-36
-31
-34
-41
-52
-30
-31
-56
-43
-25
-17
-31
-51
-29
-57
-67
-46
-44
-34
-39
-37
-29
-33
-34
-26
-41
-18
-43
-44
-47
-29
-42
-40
-51
-53
-47
-37
-39
-26
-25
-47
-39
-37
-37
-34
-49
-50
-39
-37
-27
-40
-38
-30
-23
-37
-28
-42
-48
-37
-43
-33
-23
-25
-24
-36
-34
-18
-41
-43
-24
-53
-28
-40
-42
-46
-24
-32
-39
-38
-32
-30
-34
-40
-29
-26
-31
-44
-40
-30
-44
-37
-40
-40
-30
-29
-34
-40
-41
-36
-34
-50
-31
-33
-40
-34
-32
-26
-16
-31
-35
-33
-33
-45
-30
-39
-19
-25
-32
-32
-33
-29
-15
-22
-28
-23
-24
-4
2
-5
-16
-17
-26
-30
-27
-35
-43
-40
-39
-29
-36
-29
-40
-33
-31
-23
-43
-37
-30
-34
-34
-35
-42
-40
-47
-32
-37
-48
-39
-40
-29
-50
-43
-30
-36
-34
-35
-36
-43
-55
-33
-34
-58
-43
-27
-35
-41
-47
-36
-28
-39
-41
-36
-46
-32
-20
-25
-21
-8
17
0
-12
-4
12
21
46
58
70
67
56
45
19
3
-16
-10
-43
-84
-73
-74
-79
-62
-57
-60
-61
-36
-44
-37
-35
-35
-47
-44
-33
-39
-24
-34
-38
-38
-34
-24
-38
-39
-37
-40
-30
-23
-26
-29
-37
-44
-31
-36
-29
-33
-29
-31
-37
-38
-29
-33
-28
-24
-36
-35
-31
-24
-33
-50
-40
-12
-18
-35
-32
-28
-21
-17
-46
-47
-9
-25
-23
-15
-29
-30
-34
-25
-17
-28
-17
-17
-24
-19
-20
-17
-12
-15
-17
-16
-19
-7
12
3
0
-13
7
-1
-1
5
12
14
15
25
15
22
14
14
14
17
23
26
32
29
26
23
42
20
16
23
34
24
28
13
13
18
14
-2
-1
-13
-10
-6
2
-10
-18
-28
-36
-23
-22
-15
-34
-30
-36
-33
-20
-27
-21
-36
-39
-40
-44
-25
-35
-35
-41
-42
-36
-28
-43
-40
-39
-34
-31
-35
-45
-42
-27
-35
-42
-36
-48
-54
-31
-45
-45
-32
-35
-42
-47
-41
-47
-32
-44
-46
-31
-33
-29
-30
-36
-41
-45
-38
-41
-32
-37
-40
-36
-38
-34
-38
-42
-34
-38
-51
-49
-44
-28
-36
-34
-32
-25
-37
-39
-44
-34
-39
-34
-41
-30
-27
-33
-42
-40
-45
-48
-42
-37
-31
-24
-32
-27
-35
-35
-55
-50
-43
-29
-31
-38
-40
-31
-21
-26
-42
-33
-31
-58
-44
-50
-50
-26
-41
-37
-32
-33
-40
-44
-52
-30
-27
-50
-51
-28
-23
-31
-30
-27
-28
-26
-33
-34
-31
-30
-35
-37
-29
-34
-23
-20
-35
-24
-16
-4
-10
-21
-34
-22
-25
-32
-42
-47
-35
-24
-30
-38
-44
-41
-45
-44
-27
-40
-50
-55
-68
-18
-29
-35
-49
-43
-39
-38
-47
-51
-42
-41
-38
-39
-50
-43
-42
-53
-57
-33
-36
-30
-50
-41
-41
-36
-44
-50
-28
-40
-60
-55
-33
-41
-35
-26
-29
-22
-5
1
-9
-5
1
3
5
34
53
59
45
86
68
36
8
-13
-4
-39
-57
-67
-68
-64
-68
-67
-56
-48
-55
-46
-41
-46
-25
-37
-29
-34
-37
-39
-32
-39
-46
-53
-47
-44
-40
-42
-43
-33
-32
-30
-44
-36
-37
-43
-47
-49
-33
-52
-39
-22
-35
-31
-31
-32
-33
-36
-43
-34
-26
-32
-31
-31
-35
-34
-37
-34
-39
-34
-39
-34
-42
-32
-42
-33
-33
-33
-26
-26
-28
-26
-28
-30
-37
-18
-24
-30
-22
-21
-16
-19
-40
-15
0
-18
-14
-9
-3
-5
-12
-8
-5
-6
-8
-2
8
3
0
2
-2
13
33
17
4
5
10
10
6
19
17
16
8
14
12
19
-5
-15
-4
0
5
-9
-8
-16
-33
-14
-2
-12
-23
-26
-40
-41
-46
-25
-31
-35
-40
-35
-45
-37
-22
-35
-39
-48
-62
-35
-43
-44
-47
-46
-44
-44
-37
-43
-44
-59
-50
-48
-35
-31
-50
-45
-44
-48
-47
-42
-54
-39
-47
-63
-38
-30
-34
-41
-44
-49
-56
-45
-44
-50
-43
-48
-34
-32
-46
-48
-52
-47
-37
-39
-45
-25
-34
-64
-50
-39
-43
-41
-49
-39
-36
-39
-47
-44
-57
-24
-42
-57
-35
-28
-38
-52
-56
-29
-31
-50
-52
-35
-41
-52
-37
-37
-37
-40
-44
-44
-74
-52
-27
-33
-50
-43
-31
-48
-49
-43
-38
-48
-42
-43
-47
-41
-36
-46
-55
-44
-43
-40
-36
-35
-37
-37
-19
-22
-42
-27
-34
-37
-48
-34
-33
-32
-40
-38
-22
-14
-6
-25
-52
-24
-6
-25
-32
-34
-45
-35
-33
-44
-40
-41
-52
-54
-45
-40
-40
-44
-48
-54
-53
-29
-39
-44
-42
-42
-59
-46
-45
-36
-58
-57
-56
-33
-37
-48
-42
-50
-65
-27
-39
-53
-43
-39
-49
-45
-63
-37
-42
-48
-43
-35
-55
-53
-48
-40
-21
-12
-10
-24
-26
-16
5
3
26
23
38
75
79
75
66
58
45
20
-10
-24
-56
-73
-78
-68
-56
-53
-51
-51
-38
-51
-57
-43
-38
-36
-52
-41
-26
-36
-43
-42
-43
-42
-43
-40
-38
-39
-37
-38
-32
-36
-48
-33
-39
-44
-32
-29
-44
-37
-39
-26
-29
-40
-22
-27
-37
-44
-55
-32
-29
-40
-48
-53
-44
-34
-26
-30
-27
-34
-22
-23
-36
-37
-39
-27
-23
-20
-21
-20
-10
-43
-34
-21
-50
-35
0
-8
-21
-19
-21
-19
-5
-15
-21
-19
-5
-20
-14
3
-5
4
-12
0
11
4
6
14
16
2
18
11
28
22
-6
9
26
19
14
17
20
14
20
26
27
8
19
4
-4
-9
-15
-11
-28
4
-10
-17
-3
-5
-10
-20
-19
-28
-32
-30
-30
-24
-38
-26
-31
-24
-30
-38
-46
-33
-37
-57
-39
-32
-41
-40
-34
-26
-33
-39
-58
-37
-53
-37
-31
-37
-35
-39
-36
-45
-35
-34
-48
-46
-17
-28
-36
-46
-46
-31
-31
-37
-39
-20
-25
-26
-25
-16
-17
-18
-36
-42
-55
-27
-16
-39
-29
-18
-25
-34
-38
-32
-37
-47
-31
-38
-32
-44
-56
-33
-20
-29
-35
-34
-30
-24
-32
-32
-35
-35
-36
-18
-29
-18
-44
-27
-21
-33
-37
-37
-38
-25
-34
-25
-27
-35
-39
-28
-35
-39
-27
-26
-22
-31
-33
-24
-34
-30
-34
-31
-13
-2
-15
-22
-22
-26
-22
-11
-28
-24
-14
-18
-30
-24
-24
-14
-10
-16
-15
-6
-15
-20
-30
-20
-23
-20
-26
-26
-38
-39
-53
-32
-38
-4
-28
-33
-17
-28
-44
-45
-30
-40
-38
-17
-34
-25
-40
-18
-35
-34
-42
-39
-34
-33
-30
-40
-24
-33
-28
-26
-22
-24
-30
-57
-51
-28
-19
-37
-25
-29
-29
-38
-20
-8
-3
-4
5
10
-1
-5
12
32
49
64
69
75
83
86
54
19
10
-13
-22
-47
-54
-78
-71
-71
-53
-40
-33
-45
-34
-30
-31
-31
-27
-39
-32
-24
-22
-39
-30
-26
-35
-30
-19
-17
-31
-15
-18
-30
-24
-16
-30
-35
-31
-11
-31
-42
-27
-23
-11
-18
-29
-27
-15
-29
-19
-18
-8
-10
-27
-28
-20
-13
-17
-23
-22
-24
-29
-16
-15
-13
-14
-8
-21
-32
-12
-14
-15
-5
-15
-14
-19
-7
-16
-11
-3
-2
-11
-11
-26
-9
-4
7
7
-7
22
14
28
14
21
2
12
33
29
19
15
24
31
22
15
37
36
25
34
42
37
30
39
36
23
32
31
33
29
25
22
22
12
11
3
18
8
0
-1
-4
-25
-29
-5
-8
-20
-17
-11
-25
-16
-15
-27
-40
-12
-15
-23
-26
-24
-25
-22
-14
-35
-22
-18
-13
-38
-48
-41
-27
-32
-34
-40
-40
-54
-30
5
-18
-26
-24
-33
-28
-32
-28
-34
-42
-39
-26
-26
-38
-40
-38
-30
-17
-20
-14
-30
-30
-33
-37
-23
-35
-25
-18
-23
-24
-26
-34
-27
-24
-36
-41
-33
-19
-27
-28
-19
-21
-25
-38
-32
-38
-26
-18
-28
-17
-18
-25
-30
-23
-26
-28
-33
-33
-28
-39
-23
-33
-27
-32
-24
-18
-27
-23
-19
-24
-25
-22
-14
-22
-11
-18
-35
-22
-10
-17
-25
-17
-17
-19
-28
-16
-22
-11
4
-13
-14
-16
-7
-4
-1
-23
-22
-22
-19
-33
-26
-30
-42
-21
-39
-24
-13
-24
-33
-22
-28
-47
-25
-38
-30
-29
-24
-33
-31
-38
-46
-44
-30
-19
-29
-35
-34
-41
-29
-42
-40
-20
-29
-35
-38
-22
-16
-22
-33
-41
-28
-38
-43
-25
-16
-14
-3
-8
-1
7
-19
12
23
20
38
44
76
80
84
89
60
36
13
8
-9
-38
-49
-56
-53
-55
-54
-42
-45
-45
-23
-24
-27
-39
-30
-32
-34
-44
-24
-20
-31
-33
-13
-38
-26
-19
-34
-35
-24
-16
-34
-25
-28
-22
-17
-29
-17
-25
-33
-44
-61
-11
3
-15
-38
-36
-21
-31
-36
-21
-13
-16
-15
-16
-20
-29
-27
-22
-17
-19
-41
-32
-15
-12
-10
-12
-25
-26
-16
-10
-32
-19
-5
-8
-8
-7
-14
-14
-9
-18
-16
-14
-3
-10
-13
-17
7
13
-3
6
9
6
0
9
12
20
16
18
20
16
16
24
19
33
26
31
27
28
35
24
17
28
16
19
20
23
16
2
16
6
-2
9
-13
-24
-1
-2
-4
-10
-22
-19
-17
-9
-19
-20
-26
-39
-31
-26
-36
-28
-20
-7
-35
-33
-25
-21
-31
-35
-33
-39
-32
-28
-36
-31
-25
-34
-41
-35
-38
-37
-26
-34
-32
-29
-27
-30
-33
-28
-30
-42
-33
-38
-51
-30
-40
-15
-32
-33
-29
-22
-21
-22
-29
-28
-36
-25
-37
-38
-34
-32
-42
-32
-10
-13
-7
-32
-48
-43
-35
-30
-31
-26
-35
-38
-33
-24
-30
-27
-19
-24
-27
-37
-28
-22
-21
-31
-30
-31
-39
-41
-31
-45
-32
-21
-26
-29
-35
-24
-33
-18
-12
-22
-36
-25
-30
-36
-38
-25
-24
-33
-26
-29
-32
-14
-18
-29
-17
-30
-31
-23
-14
-22
-35
-17
-19
-20
-22
-14
-18
-7
-16
-4
7
-16
-14
-8
-12
-22
-31
-35
-32
-34
-21
-26
-30
-35
-30
-9
-29
-35
-19
-32
-33
-37
-32
-32
-37
-38
-33
-39
-36
-25
-32
-34
-21
-45
-30
-34
-27
-23
-36
-41
-32
-34
-23
-28
-34
-46
-42
-46
-29
-37
-35
-45
-40
-25
-33
-26
-12
-2
-1
0
12
3
8
13
21
28
41
58
93
94
103
73
36
16
10
-8
-44
-60
-59
-52
-52
-60
-57
-44
-35
-37
-46
-32
-5
-13
-32
-33
-33
-30
-31
-34
-38
-26
-34
-29
-13
-32
-40
-31
-36
-26
-42
-23
-18
-19
-18
-27
-25
-20
-29
-21
-29
-29
-24
-19
-22
-19
-24
-25
-22
-29
-14
-26
-19
-18
-20
-14
-13
-9
-16
-30
-30
-23
-31
-17
-10
-6
-13
-9
-9
-22
-9
-3
-14
-12
-13
-11
-10
-20
-6
-2
7
-11
-1
3
-11
5
15
4
3
2
6
11
9
17
11
4
19
27
19
20
27
31
39
29
25
23
21
32
27
31
27
16
22
23
26
15
7
9
20
7
-10
1
-14
3
8
-4
-17
-11
-24
-20
-14
-22
-31
-36
-13
-11
-25
-36
-50
-39
-16
-3
-24
-28
-18
-26
-34
-16
-14
-29
-28
-35
-40
-25
-16
-20
-39
-47
-31
-30
-24
-16
-29
-28
-41
-32
-18
-27
-30
-24
-37
-35
-32
-31
-24
-22
-13
-29
-37
-31
-27
-37
-34
-27
-25
-28
-45
-39
-32
-22
-25
-28
-23
-14
-25
-26
-28
-30
-28
-21
-28
-27
-20
-38
-27
-21
-23
-30
-30
-22
-28
-30
-39
-26
-28
-25
-31
-32
-31
-18
-21
-24
-14
-23
-31
-29
-47
-35
-26
-37
-25
-26
-26
-42
-22
-23
-28
-23
-32
-35
-28
-26
-35
-43
-30
-41
-26
-25
-16
-27
-38
-36
-17
-9
-9
-31
-35
-36
-32
-25
-32
-35
-28
-31
-44
-33
-32
-25
-39
-35
-13
-28
-30
-17
-25
-38
-21
-24
-24
-24
-22
-19
-10
-19
-20
-21
-25
-30
-16
-17
-13
-15
-10
-20
-27
5
-8
-17
-11
-8
-13
-21
-35
-32
-22
-22
-34
-41
-39
-34
-37
-36
-23
-37
-29
-29
-31
-30
-41
-36
-19
-32
-17
-16
-23
-41
-37
-29
-38
-40
-41
-26
-29
-41
-42
-24
-26
-31
-43
-31
-37
-23
-18
-24
-37
-30
-26
-34
-20
-23
-21
-18
-15
7
5
12
-7
7
21
33
35
59
83
88
95
85
50
19
12
13
-12
-49
-57
-41
-51
-72
-49
-42
-37
-19
-26
-16
-20
-19
-27
-35
-30
-29
-24
-31
-31
-39
-31
-29
-24
-21
-25
-22
-19
-17
-18
-34
-24
-25
-27
-20
-25
-22
-15
-35
-25
-18
-34
-44
-27
-7
-10
-24
-12
-11
-40
-10
-7
-20
-24
-34
-19
-26
-7
-19
-23
-27
-33
-9
-10
-13
-20
-15
-11
-6
-4
-15
-15
-14
-19
-12
-20
-9
-13
-12
3
-5
-11
2
6
4
5
5
2
22
15
13
14
7
15
16
7
22
22
11
21
29
23
43
36
37
33
29
28
32
39
25
25
7
18
-5
31
28
35
8
-13
9
24
0
5
-3
-6
-7
-3
-11
-18
-23
-23
-23
-9
-10
-27
-34
-8
-15
-38
-30
-18
-15
-24
-23
-24
-22
-23
-33
-30
-42
-34
-14
-37
-17
-21
-25
-19
-22
-19
-31
-27
-13
-22
-21
-24
-34
-14
-34
-28
-15
-26
-31
-16
-21
-20
-22
-30
-28
-32
-30
-32
0
-14
-22
-35
-33
-22
-6
-19
-29
-19
-44
-32
-13
-10
-33
-26
-30
-26
-10
-11
-19
-23
-32
-34
-29
-20
-11
-14
-1
-11
-22
-32
-17
-22
-26
-19
-16
-23
-26
-33
-20
-20
-23
-15
-18
-32
-21
-16
-29
-31
-32
-17
-15
-39
-47
-16
-18
-11
0
-24
-26
-19
-35
-39
-12
-27
-21
-21
-6
-19
-4
-8
-25
-33
-22
-13
-33
-15
-21
-17
-11
-31
-19
-9
-14
-24
-20
-16
-18
-15
-13
-4
-7
-6
5
2
-4
-17
-10
8
-6
6
-7
-19
7
-28
-23
-23
-18
-19
-21
-25
-34
-28
-9
-22
-29
-26
-5
-16
-32
-38
-24
-28
-27
-35
-17
-14
-20
-32
-27
-17
-16
-20
-24
-29
-23
-14
-23
-27
-32
-30
-20
-22
-36
-21
-8
-30
-34
-20
-29
-1
-24
-36
9
27
11
16
6
25
27
33
39
60
82
85
92
90
72
32
23
7
-15
-43
-58
-66
-75
-54
-42
-39
-42
-37
-30
-12
-17
-12
-32
-37
-11
-30
-38
-13
-13
-24
-19
-23
-9
-2
-23
-13
-18
-19
-10
-16
-15
-16
-24
-16
-18
-14
-17
-28
-13
-4
-9
-5
3
-12
-16
-15
-6
-18
-9
-4
-9
-3
-4
-14
-18
-13
-6
-15
-4
-22
-15
-17
5
10
0
1
-7
-1
4
4
2
4
-7
10
10
0
-10
5
-9
14
14
3
5
19
13
32
28
29
19
10
32
35
22
33
28
26
35
39
46
56
57
40
28
46
60
38
19
51
56
40
34
54
44
27
39
32
27
18
22
19
6
18
20
15
9
-1
-13
2
-1
-1
-13
-18
-20
-23
-8
-2
-21
-17
-11
-28
-17
-5
-17
-19
-19
-28
-28
-27
1
-16
-20
-18
-19
-21
-29
-33
-16
-30
-26
-31
-14
-6
-18
-4
-27
-35
-30
-28
-9
-11
-24
-34
-34
-27
-26
-27
-47
-16
-6
-16
-16
-10
-16
-24
-24
-27
-19
-30
-15
-25
-6
-18
-9
-11
-29
-19
-20
-14
-10
-31
-24
-16
-20
-19
-13
-32
-27
-20
-13
-20
-12
-9
-21
-12
-21
-17
-32
-28
-30
-24
-35
-27
-10
-15
-18
-26
-24
-23
-13
-17
-19
-23
-27
-19
-23
-29
-21
-30
-29
-37
-8
-15
-30
-17
-6
-15
-27
-23
-38
-33
-14
-5
3
-6
-5
-16
-23
-27
-16
-20
-15
-8
-18
-18
-15
-21
5
-7
-15
-25
2
4
-3
-12
2
-22
-25
-8
-10
-31
-32
-14
-15
-29
-18
-25
-27
-18
-19
-32
-30
-23
-40
-30
-22
-30
-16
-27
-39
-30
-18
-23
-22
-31
-34
-30
-30
-38
-23
-18
-20
-27
-35
-35
-24
-32
-39
-38
-23
-14
-29
-28
-22
-28
-18
-7
-7
-7
1
5
2
-1
-1
0
4
46
47
71
88
93
101
63
43
41
-6
-19
-28
-55
-63
-68
-48
-49
-48
-34
-16
-24
-30
-37
-25
-36
-29
-40
-19
-26
-28
-11
-20
-22
-23
-28
-21
-46
-38
-44
-7
-6
-31
-38
-19
-27
-9
-15
-31
-13
-21
-17
-12
-6
-23
-23
-30
-30
-34
-26
-35
-17
-13
-18
-19
-12
-18
-16
-22
-17
-27
-19
-16
-21
-24
-24
-38
-4
-2
-20
-11
-31
-8
-2
-11
-12
-17
-14
-1
-10
-19
-18
-1
7
3
2
-8
1
6
11
-2
-4
19
8
20
12
16
11
10
29
25
20
31
31
30
13
23
24
28
42
39
15
27
28
15
10
25
22
7
22
7
-4
18
8
-4
3
-11
-11
-7
1
-20
-24
-18
-21
-18
-15
-31
-35
-36
-19
-20
-28
-25
-33
-24
-21
-23
-21
-31
-34
-17
-32
-33
-28
-31
-33
-18
-15
-25
-42
-39
-48
-38
-20
-35
-18
-36
-29
-23
-32
-51
-27
-24
-23
-24
-15
-17
-33
-31
-30
-30
-20
-30
-35
-30
-20
-38
-38
-30
-34
-27
-22
-25
-17
-25
-44
-49
-16
-20
-36
-30
-20
-32
-34
-25
-28
-28
-34
-25
-33
-40
-23
-27
-27
-33
-27
-26
-37
-29
-29
-41
-27
-32
-21
-22
-19
-34
-31
-44
-30
-21
-32
-25
-25
-24
-23
-33
-32
-28
-38
-37
-21
-33
-35
-28
-35
-34
-53
-30
-33
-17
-29
-35
-40
-24
-11
-28
-33
-25
-32
-27
-24
-30
-20
-13
-12
-29
-39
-29
-21
-34
-23
-17
-12
-19
-28
-15
7
-6
-14
-12
-12
-18
-5
-9
-29
-28
-25
-34
-37
-35
-34
-32
-37
-33
-42
-35
-43
-23
-21
-26
-33
-32
-24
-30
-34
-32
-38
-44
-43
-37
-35
-29
-27
-39
-44
-51
-28
-27
-27
-22
-31
-37
-42
-36
-36
-32
-43
-31
-37
-41
-39
-33
-23
-12
-14
-18
-15
-4
-2
17
14
12
31
45
61
78
91
84
65
61
42
22
4
-27
-63
-57
-39
-55
-51
-54
-60
-50
-41
-32
-50
-32
-24
-27
-25
-27
-32
-29
-34
-34
-32
-18
-29
-37
-43
-20
-30
-39
-21
-17
-31
-20
-29
-27
-25
-31
-39
-21
-26
-32
-19
-21
-32
-36
-32
-28
-33
-32
-18
-26
-31
-23
-22
-25
-33
-27
-18
-29
-25
-20
-19
-21
-17
-21
-22
-20
-18
-21
-26
-17
-9
-12
-31
-24
-15
-14
-7
-9
-4
-7
-10
0
-7
-20
-5
-3
-4
11
20
10
-2
7
9
15
21
20
2
1
19
31
8
26
31
18
18
26
30
24
18
31
26
12
19
29
25
18
4
8
1
3
-11
-4
2
0
-13
-9
1
-7
-25
-39
-28
-15
-22
-23
-29
-29
-34
-31
-35
-42
-33
-12
-25
-31
-21
-29
-35
-26
-29
-39
-40
-27
-28
-23
-32
-37
-34
-35
-28
-32
-30
-30
-31
-34
-38
-35
-30
-38
-31
-19
-28
-34
-35
-43
-39
-30
-39
-42
-25
-5
-33
-34
-29
-31
-26
-33
-33
-35
-29
-36
-26
-27
-30
-42
-25
-22
-34
-38
-31
-35
-29
-28
-28
-28
-27
-26
-26
-27
-22
-24
-29
-22
-25
-43
-35
-38
-23
-20
-44
-22
-30
-29
-32
-29
-30
-26
-14
-35
-32
-25
-40
-28
-28
-20
-26
-34
-26
-30
-35
-42
-26
-24
-29
-40
-42
-15
-42
-37
-24
-27
-36
-27
-21
-34
-30
-25
-28
-33
-46
-20
-35
-24
-29
-32
-28
-25
-33
-32
-20
-24
-27
-52
-41
-34
-3
-13
-16
-34
-35
-20
-2
-30
-33
-29
-41
-25
-10
-27
-12
-5
-5
-3
-6
-10
-17
-7
-22
-24
-8
-18
-9
-24
-31
-34
-23
-29
-36
-41
-27
-15
-36
-39
-34
-20
-31
-24
-26
-40
-32
-25
-48
-45
-29
-31
-18
-25
-26
-21
-35
-42
-31
-43
-32
-24
-33
-40
-16
-28
-41
-32
-31
-46
-27
-27
-42
-46
-43
-25
-22
-24
-20
-12
-15
-6
-15
-2
9
-2
-25
17
43
58
73
91
93
100
78
54
36
21
-11
-35
-55
-69
-77
-61
-53
-44
-42
-36
-41
-37
-34
-39
-28
-22
-29
-25
-26
-28
-33
-34
-23
-31
-30
-24
-25
-29
-44
-38
-37
-20
-22
-25
-32
-20
-26
-34
-38
-33
-24
-16
-15
-24
-27
-20
-33
-35
-21
-29
-27
-24
-18
-18
-21
-8
-13
-18
-22
-21
-15
-30
-35
-17
-40
-16
-23
-15
-11
-14
-18
-19
0
-7
-25
-5
-19
-28
-22
-1
-7
-8
0
-14
-7
11
-1
2
-2
3
12
4
5
10
12
13
21
17
17
33
20
20
18
32
42
26
21
33
32
21
22
12
21
28
38
32
14
10
23
23
8
9
2
0
6
-1
4
-13
-19
-19
-5
-14
-24
-20
-19
-18
-40
-19
-23
-24
-49
-5
-15
-32
-17
-17
-29
-33
-34
-28
-34
-23
-34
-36
-19
-26
-30
-32
-26
-38
-40
-38
-30
-16
-32
-21
-29
-30
-29
-35
-30
-23
-32
-33
-21
-14
-23
-43
-52
-18
-16
-16
-24
-27
-23
-11
-37
-40
-35
-28
-21
-11
-31
-31
-30
-33
-22
-5
-36
-30
-29
-24
-15
-34
-27
-22
-23
-25
-35
-30
-36
-35
-19
-23
-17
-21
-25
-31
-22
-25
-10
-26
-28
-30
-15
-18
-24
-26
-27
-24
-35
-11
-26
-30
-20
-23
-33
-28
-18
-15
-24
-22
-23
-26
-28
-33
-19
-26
-25
-30
-22
-31
-35
-17
-11
-24
-19
-15
-18
-21
-23
-21
-31
-31
-7
-16
-18
-23
-24
-20
-10
0
-10
-14
-6
-2
-18
-6
-1
-16
-18
-10
-19
-18
-15
-4
-14
-19
-18
-23
-29
-18
-14
-35
-37
-22
-34
-43
-38
-19
-23
-34
-12
-28
-23
-29
-28
-25
-28
-35
-34
-10
-22
-32
-30
-35
-31
-32
-41
-26
-30
-26
-15
-25
-22
-18
-35
-25
-35
-24
-20
-25
-34
-26
-16
-18
-15
-6
-10
-9
-10
10
37
18
28
33
48
74
81
76
82
48
32
20
-6
-12
-36
-63
-73
-72
-65
-64
-59
-24
-24
-30
-37
-34
-28
-24
-21
-27
-20
-22
-27
-33
-18
-24
-22
-12
-13
-13
-18
-24
-29
-35
-20
-20
-16
-29
-29
-23
-24
-17
-13
-20
-18
-31
-34
-43
-21
-15
-13
-20
-22
-18
-20
-34
-34
-12
2
7
-16
-19
-17
-11
-6
-16
-28
-24
-18
-5
-5
-12
-20
-10
-14
-11
-22
-7
-13
-5
-5
2
2
-14
-7
7
5
4
5
-4
4
-9
-6
9
28
21
16
20
17
20
35
21
32
41
50
27
26
27
48
39
30
46
43
41
28
12
38
50
33
16
7
13
21
23
19
13
0
-3
-6
-12
1
-12
8
-6
-15
-27
-32
-21
-22
-26
-30
-28
-30
-16
-30
-23
-22
-25
-26
-29
-19
-33
-36
-18
-28
-27
-23
-34
-34
-35
-16
-14
-26
-35
-21
-24
-33
-32
-36
-22
-29
-35
-38
-33
-27
-26
-33
-31
-24
-35
-31
-31
-23
-30
-30
-26
-17
-22
-45
-34
-32
-25
-33
-26
-33
-23
-23
-19
-21
-36
-37
-26
-39
-34
-39
-17
-27
-22
-14
-24
-44
-36
-24
-41
-55
-26
-8
-3
-19
-11
-23
-27
-34
-29
-31
-30
-18
-22
-33
-25
-23
-30
-33
-33
-23
-48
-32
-17
-25
-19
-45
-47
-36
-26
-16
-31
-13
-29
-36
-21
-33
-31
-32
-25
-36
-35
-25
-42
-38
-24
-22
-19
-24
-26
-22
-29
-25
-19
-13
-22
-23
-27
-19
-17
-16
-26
-20
-17
-35
-40
-24
-17
-11
-20
-9
-6
-13
1
4
-10
-17
-16
-34
-24
-29
-27
-41
-37
-35
-22
-34
-41
-31
-28
-35
-31
-16
-35
-28
-28
-42
-33
-27
-29
-32
-36
-28
-50
-46
-17
-28
-32
-38
-32
-38
-28
-37
-38
-25
-29
-31
-39
-36
-31
-40
-39
-36
-44
-35
-19
-19
-25
-4
3
-25
-8
2
-4
10
14
20
21
47
64
68
77
93
69
37
18
4
-19
-44
-59
-65
-49
-35
-57
-64
-35
-30
-39
-35
-43
-44
-15
-16
-29
-27
-32
-32
-34
-32
-16
-21
-43
-35
-34
-22
-21
-27
-33
-24
-28
-28
-27
-29
-23
-28
-37
-29
-20
-22
-22
-19
-17
-48
-36
-22
-18
-23
-28
-37
-58
-30
-30
-9
-7
-14
-12
-26
-29
-37
-30
-27
-24
-8
-19
-30
-4
-11
-11
-20
-26
-18
-8
-16
-10
-12
-11
-22
-17
-24
-29
-9
10
-7
-6
5
1
0
3
-6
14
22
7
5
25
13
-4
-13
27
25
21
21
21
22
23
21
26
17
31
35
19
21
21
16
17
21
17
11
6
-5
-14
-9
-10
-4
-16
-14
-10
-17
-27
-15
-27
-37
-21
-44
-32
-11
-17
-24
-34
-36
-28
-37
-35
-35
-36
-25
-38
-32
-26
-26
-51
-46
-14
-15
-28
-28
-40
-19
-26
-45
-42
-40
-33
-36
-36
-22
-31
-53
-42
-30
-47
-29
-23
-45
-31
-25
-40
-36
-28
-29
-33
-38
-28
-33
-34
-31
-26
-52
-40
-26
-22
-32
-23
-29
-42
-31
-22
-31
-25
-24
-19
-30
-42
-32
-34
-32
-24
-37
-33
-32
-33
-33
-28
-28
-36
-45
-30
-32
-27
-23
-39
-41
-36
-35
-26
-22
-42
-28
-32
-40
-26
-43
-44
-50
-34
-23
-15
-22
-45
-31
-39
-24
-24
-36
-27
-27
-44
-35
-38
-29
-9
-29
-42
-25
-34
-31
-25
-33
-33
-40
-39
-33
-31
-38
-21
-28
-42
-19
-32
-37
-32
-34
-19
-20
-33
-27
-25
-27
-26
-27
-28
-25
-12
-13
-15
-15
-15
-11
-15
-27
-21
-3
-20
-22
-25
-30
-27
-27
-15
-30
-30
-18
-39
-42
-33
-30
-20
-39
-34
-27
-50
-29
-38
-48
-54
-24
-22
-36
-38
-39
-32
-21
-35
-43
-47
-37
-44
-34
-32
-34
-33
-35
-32
-35
-38
-34
-44
-39
-34
-23
-33
-37
-39
-32
-29
-22
-18
-2
-3
-8
2
-6
-7
3
28
23
41
60
70
82
102
77
46
30
11
-22
-26
-49
-63
-58
-63
-58
-54
-45
-46
-45
-40
-20
-23
-23
-30
-39
-26
-34
-40
-28
-24
-28
-42
-41
-22
-32
-30
-28
-22
-28
-33
-30
-27
-32
-27
-24
-25
-26
-25
-34
-29
-29
-25
-20
-30
-23
-19
-17
-24
-33
-36
-18
-25
-29
-17
-23
-29
-41
-15
-22
-12
-14
-27
-27
-23
-36
-12
-21
-14
-18
-21
-21
-17
-4
-7
-15
-29
-8
-2
-13
-7
-5
-14
-1
-1
-8
-10
7
2
-5
2
18
25
6
10
41
28
18
10
11
9
27
32
25
28
14
22
20
29
13
16
28
27
22
23
27
25
19
8
13
-3
-11
-4
-9
-3
-16
-14
-22
-5
-13
-5
-16
-18
-16
-31
-42
-21
-17
-37
-28
-35
-21
-13
-19
-42
-32
-35
-31
-18
-39
-35
-30
-27
-34
-38
-33
-16
-27
-36
-37
-31
-26
-35
-32
-30
-24
-29
-23
-31
-34
-33
-27
-28
-32
-36
