-29
-26
-31
-36
-21
-24
-29
-29
-32
-33
-35
-41
-30
-33
-22
-26
-29
-29
-25
-33
-23
-34
-34
-28
-27
-27
-30
-33
-40
-34
-32
-35
-36
-24
-27
-30
-29
-20
-35
-32
-30
-29
-37
-26
-25
-31
-27
-22
-34
-39
-32
-38
-38
-19
-31
-33
-28
-26
-30
-31
-38
-32
-30
-26
-27
-32
-24
-35
-42
-35
-28
-38
-32
-23
-24
-31
-19
-33
-39
-39
-24
-14
-26
-27
-17
-24
-22
-22
-25
-22
-19
-22
-9
-11
-15
-18
-13
-12
-16
-16
-18
-21
-29
-36
-28
-21
-27
-31
-34
-31
-43
-37
-26
-20
-31
-34
-48
-40
-34
-36
-32
-38
-29
-32
-31
-35
-40
-39
-22
-37
-36
-31
-41
-27
-35
-38
-34
-34
-37
-36
-39
-30
-36
-42
-28
-34
-39
-55
-51
-49
-45
-44
-39
-12
-12
-1
0
22
51
65
80
83
96
84
59
45
20
0
-15
-35
-55
-79
-77
-70
-72
-64
-59
-60
-39
-28
-36
-32
-40
-33
-35
-30
-35
-43
-36
-32
-38
-32
-36
-34
-29
-23
-28
-36
-35
-33
-27
-37
-31
-35
-28
-28
-31
-32
-37
-18
-27
-29
-25
-23
-25
-25
-27
-38
-31
-25
-29
-22
-24
-19
-21
-24
-25
-29
-22
-23
-28
-25
-15
-19
-20
-25
-17
-19
-17
-12
-16
-18
-16
-21
-11
-1
-4
-9
-6
0
2
1
4
-10
-5
3
9
7
17
12
27
18
19
20
20
29
27
25
31
32
25
31
28
35
41
41
31
43
26
34
36
36
38
36
31
26
32
26
21
19
15
6
6
6
-1
0
-12
-14
-17
-14
-21
-16
-25
-30
-19
-21
-21
-22
-30
-31
-33
-20
-36
-37
-18
-23
-33
-23
-35
-37
-24
-31
-26
-37
-30
-30
-45
-35
-35
-35
-36
-34
-30
-28
-28
-34
-33
-23
-32
-42
-35
-25
-28
-32
-36
-38
-34
-37
-27
-29
-32
-26
-30
-28
-22
-31
-33
-41
-33
-35
-31
-33
-32
-30
-29
-21
-35
-31
-32
-38
-32
-26
-29
-31
-28
-24
-33
-33
-27
-28
-29
-34
-35
-35
-34
-29
-44
-30
-22
-26
-26
-28
-37
-35
-29
-23
-30
-27
-30
-30
-34
-31
-35
-32
-37
-26
-34
-38
-33
-20
-28
-24
-36
-28
-24
-25
-22
-25
-29
-29
-19
-21
-24
-27
-21
-19
-10
-15
-15
-10
-12
-21
-15
-20
-22
-23
-28
-20
-19
-31
-28
-24
-27
-34
-31
-36
-39
-37
-35
-38
-33
-34
-37
-44
-44
-35
-28
-38
-42
-25
-31
-24
-28
-34
-41
-44
-39
-37
-38
-33
-37
-30
-26
-32
-41
-47
-41
-23
-33
-37
-39
-40
-46
-40
-42
-51
-45
-28
-24
-19
10
21
39
46
69
83
92
94
71
61
33
14
-18
-23
-40
-70
-91
-84
-82
-71
-66
-59
-59
-49
-41
-42
-34
-33
-36
-36
-42
-39
-29
-34
-36
-41
-38
-31
-28
-38
-26
-29
-35
-34
-29
-29
-30
-31
-32
-24
-26
-20
-24
-42
-45
-31
-27
-26
-34
-22
-22
-19
-28
-16
-27
-36
-30
-27
-29
-28
-20
-21
-27
-17
-21
-14
-26
-29
-31
-21
-16
-14
-6
-18
-26
-31
-23
-6
-5
-8
-9
-8
-8
-10
-7
-7
-8
6
6
8
4
17
14
19
17
20
16
23
26
21
26
31
31
33
24
36
35
29
29
37
39
36
40
49
36
30
38
31
26
30
29
25
19
15
12
-1
10
2
-2
-10
-5
-2
-21
-13
-15
-18
-22
-25
-22
-31
-28
-21
-36
-38
-29
-31
-22
-34
-36
-28
-27
-37
-26
-28
-32
-34
-32
-32
-33
-31
-33
-32
-31
-31
-32
-34
-34
-37
-37
-22
-26
-32
-47
-31
-26
-28
-28
-40
-40
-35
-37
-42
-33
-28
-25
-36
-40
-40
-23
-21
-24
-37
-24
-26
-44
-28
-38
-36
-30
-33
-40
-33
-24
-32
-23
-31
-26
-27
-31
-23
-29
-33
-36
-28
-31
-37
-32
-26
-27
-34
-34
-43
-28
-33
-28
-34
-30
-42
-36
-30
-31
-45
-40
-43
-40
-33
-27
-29
-20
-26
-25
-33
-26
-29
-27
-40
-42
-36
-24
-30
-25
-30
-26
-28
-37
-32
-25
-30
-32
-29
-24
-29
-18
-13
-13
-14
-16
-17
-14
-20
-23
-14
-23
-20
-25
-39
-27
-29
-42
-53
-29
-28
-34
-48
-49
-40
-33
-34
-28
-44
-33
-33
-42
-32
-26
-33
-40
-33
-33
-35
-37
-36
-43
-41
-39
-44
-46
-33
-32
-33
-34
-36
-44
-44
-50
-43
-39
-34
-47
-49
-68
-41
-48
-55
-58
-49
-25
-23
-1
15
25
39
60
89
102
95
83
69
60
40
1
-19
-33
-51
-77
-76
-78
-69
-52
-49
-62
-43
-38
-35
-50
-50
-40
-43
-42
-51
-39
-40
-44
-56
-37
-48
-37
-41
-42
-25
-30
-31
-34
-38
-42
-32
-40
-43
-33
-35
-35
-37
-30
-33
-38
-58
-47
-28
-26
-29
-28
-44
-43
-31
-48
-22
-25
-26
-34
-49
-44
-28
-30
-15
-21
-27
-28
-20
-27
-30
-21
-28
-28
-21
-19
-18
-20
-16
-18
-12
-12
-5
-21
-12
-7
-12
-10
-9
-19
-11
3
3
8
20
18
15
-7
16
23
15
28
18
21
19
18
17
17
28
20
17
32
42
31
34
18
23
24
19
18
18
10
-5
10
-4
-2
3
-5
-5
-7
-9
-12
-28
-29
-15
-39
-27
-22
-28
-43
-53
-55
-44
-46
-27
-26
-45
-42
-14
-56
-48
-41
-39
-54
-49
-52
-58
-38
-30
-25
-57
-58
-43
-60
-54
-53
-50
-49
-48
-35
-35
-42
-47
-59
-60
-59
-38
-34
-29
-32
-52
-47
-39
-69
-60
-38
-39
-56
-49
-44
-38
-49
-47
-35
-50
-60
-48
-57
-50
-43
-36
-31
-40
-49
-54
-57
-73
-63
-43
-43
-31
-34
-58
-59
-47
-47
-33
-48
-47
-47
-50
-36
-47
-64
-51
-56
-61
-46
-37
-30
-48
-62
-61
-61
-69
-85
-48
-44
-52
-46
-44
-65
-56
-59
-56
-55
-59
-44
-55
-41
-67
-66
-47
-42
-44
-29
-45
-53
-33
-44
-46
-48
-40
-60
-64
-72
-75
-72
-90
-80
-79
-59
-50
-49
-63
-58
-58
-64
-84
-72
-90
-68
-60
-49
-63
-102
-92
-73
-73
-78
-60
-68
-57
-86
-69
-60
-63
-66
-89
-93
-85
-80
-64
-74
-75
-69
-97
-65
-48
-62
-63
-100
-128
-109
-71
-57
-67
-69
-54
-26
6
38
54
96
128
145
123
73
57
43
33
-23
-52
-87
-134
-130
-78
-81
-92
-85
-97
-96
-94
-49
-28
-31
-76
-86
-87
-66
-43
-66
-60
-44
-47
-94
-120
-89
-63
-60
-39
-78
-105
-89
-72
-73
-71
-82
-62
-43
-57
-58
-81
-82
-89
-65
-30
-40
-26
-51
-79
-96
-87
-78
-59
-9
-32
-51
-67
-37
-75
-65
-40
-30
-76
-145
-165
-30
31
-25
-56
-77
-37
-52
-22
8
32
-5
-80
-50
3
35
20
-36
-59
-55
-1
-28
-45
17
41
32
-32
-57
-16
10
24
15
-10
33
-6
-16
-6
-11
16
-1
46
29
25
41
50
66
47
16
46
60
43
-52
-11
27
59
72
54
2
-18
-62
-45
-1
-23
-33
-42
-21
-10
-34
-7
11
-53
-55
-55
-73
-66
-45
-42
-60
-37
-15
26
-5
-55
-62
-63
-53
-3
0
-58
-87
-89
-93
-80
-52
-61
-73
-71
-52
-32
-10
-49
-60
-39
-78
-91
-24
15
-33
-61
-95
-130
-113
-65
-34
10
-51
-65
-68
-104
-91
-92
-63
-53
-70
-85
-83
-78
-70
8
-10
-53
-38
-36
-32
-57
-77
-77
-64
-63
-52
-15
-49
-82
-34
-45
-48
-38
-13
-8
-49
-42
-80
-62
-60
-40
-42
-39
-68
-46
-4
-10
-21
-34
-69
-59
2
28
6
-4
-11
-39
-55
-51
-35
-25
-5
-29
-30
-49
-32
-15
-7
-30
-73
-54
-82
-61
-53
-52
-31
-40
-52
-52
-39
-23
-73
-85
-60
-4
-18
-41
-106
-90
-64
-88
-95
-74
-79
-44
-41
-41
-97
-87
-66
-61
-94
-99
-64
-44
-51
-79
-95
-98
-84
-74
-73
-96
-112
-86
-85
-78
-40
19
52
110
115
75
53
51
46
35
6
-24
-72
-71
-86
-113
-116
-118
-125
-158
-103
-66
-61
-82
-134
-130
-116
-104
-103
-104
-106
-92
-59
-54
-113
-114
-98
-103
-100
-117
-118
-88
-63
-76
-93
-101
-91
-98
-106
-84
-71
-32
-73
-93
-115
-124
-79
-38
-59
-101
-125
-98
-89
-93
-106
-115
-102
-85
-98
-125
-104
-91
-110
-104
-129
-126
-71
-45
-61
-59
-54
-97
-136
-129
-116
-104
-102
-76
-82
-76
-61
-103
-91
-91
-72
-77
-59
-51
-75
-96
-77
-75
-77
-76
-81
-59
-36
-19
-70
-66
-66
-77
-45
-60
-47
-58
-27
-35
-54
-58
-73
-51
-60
-71
-57
-64
-70
-73
-76
-47
-11
-29
-58
-72
-88
-88
-101
-113
-92
-104
-85
-93
-133
-158
-143
-116
-94
-72
-136
-147
-133
-120
-110
-130
-117
-127
-144
-158
-168
-153
-139
-121
-118
-134
-128
-119
-145
-158
-125
-120
-130
-131
-147
-131
-154
-151
-171
-177
-160
-139
-132
-132
-146
-141
-142
-148
-137
-139
-177
-146
-103
-104
-89
-127
-159
-177
-162
-161
-164
-133
-132
-121
-130
-120
-145
-161
-170
-166
-164
-163
-139
-135
-129
-132
-137
-158
-152
-153
-154
-136
-139
-142
-145
-158
-170
-154
-158
-142
-117
-113
-123
-138
-139
-130
-148
-147
-140
-143
-143
-146
-164
-146
-127
-126
-124
-140
-131
-135
-126
-131
-130
-127
-147
-148
-141
-136
-145
-137
-129
-125
-151
-191
-170
-159
-134
-147
-142
-147
-124
-115
-164
-170
-157
-170
-156
-138
-135
-134
-131
-138
-151
-164
-150
-139
-160
-160
-149
-154
-153
-133
-134
-136
-151
-154
-144
-135
-153
-154
-139
-140
-167
-169
-166
-167
-160
-161
-146
-127
-115
-75
-53
-29
7
18
38
53
51
38
36
-2
-35
-66
-111
-133
-151
-147
-164
-155
-136
-136
-157
-155
-151
-148
-126
-121
-139
-138
-157
-132
-142
-142
-128
-130
-133
-131
-137
-136
-138
-130
-143
-140
-143
-130
-136
-133
-133
-138
-128
-131
-128
-130
-135
-144
-150
-139
-139
-124
-134
-157
-160
-147
-138
-136
-136
-119
-132
-137
-113
-141
-138
-144
-142
-137
-131
-128
-127
-142
-134
-150
-148
-138
-123
-133
-129
-114
-123
-132
-125
-117
-134
-124
-120
-113
-96
-95
-109
-113
-97
-102
-100
-103
-94
-94
-93
-65
-98
-99
-85
-88
-87
-83
-81
-90
-89
-89
-75
-67
-71
-68
-74
-75
-84
-67
-66
-85
-67
-72
-84
-96
-90
-81
-90
-97
-99
-109
-116
-100
-107
-117
-106
-118
-122
-115
-107
-121
-119
-123
-132
-126
-124
-128
-127
-144
-142
-151
-136
-126
-132
-141
-138
-135
-134
-135
-147
-140
-138
-139
-142
-147
-126
-110
-131
-128
-133
-126
-138
-135
-145
-116
-105
-123
-135
-122
-125
-118
-121
-113
-124
-131
-126
-124
-120
-125
-122
-127
-111
-119
-120
-130
-126
-119
-123
-120
-116
-115
-109
-105
-109
-105
-111
-110
-121
-125
-121
-117
-109
-106
-109
-119
-109
-117
-117
-94
-105
-92
-101
-109
-118
-115
-114
-108
-100
-98
-86
-93
-105
-95
-95
-91
-92
-89
-87
-82
-88
-107
-85
-98
-104
-107
-124
-102
-98
-109
-102
-110
-88
-94
-102
-102
-104
-98
-93
-98
-107
-104
-92
-87
-100
-95
-92
-103
-114
-95
-89
-102
-101
-91
-94
-99
-93
-101
-98
-95
-109
-108
-102
-110
-106
-85
-85
-90
-88
-108
-101
-116
-123
-118
-123
-130
-123
-83
-72
-56
-34
-25
-11
7
13
49
32
29
12
9
-34
-48
-71
-99
-114
-122
-127
-134
-128
-110
-121
-104
-106
-100
-97
-91
-101
-100
-94
-104
-92
-81
-98
-93
-103
-98
-96
-106
-96
-109
-96
-93
-82
-79
-80
-87
-88
-90
-88
-96
-86
-97
-83
-92
-92
-85
-80
-87
-93
-82
-82
-85
-87
-97
-91
-87
-75
-84
-81
-83
-85
-82
-72
-86
-77
-76
-87
-78
-70
-76
-73
-70
-80
-81
-79
-66
-60
-63
-58
-72
-65
-59
-52
-56
-55
-59
-49
-63
-46
-52
-38
-41
-36
-51
-45
-45
-48
-44
-38
-34
-41
-27
-31
-30
-21
-33
-26
-17
-19
-13
-27
-22
-29
-24
-32
-28
-41
-28
-20
-29
-40
-39
-54
-46
-50
-55
-63
-60
-59
-60
-67
-71
-71
-63
-82
-73
-64
-65
-74
-92
-90
-69
-76
-84
-73
-79
-76
-80
-68
-90
-94
-79
-79
-79
-80
-77
-71
-70
-79
-75
-78
-73
-86
-80
-69
-74
-78
-81
-86
-76
-82
-81
-69
-73
-79
-76
-81
-71
-68
-69
-69
-68
-65
-84
-76
-71
-80
-63
-67
-68
-76
-72
-60
-77
-68
-73
-76
-68
-61
-74
-75
-72
-76
-67
-71
-70
-67
-61
-65
-71
-59
-70
-57
-48
-55
-58
-51
-33
-49
-55
-46
-43
-51
-53
-59
-49
-49
-43
-58
-57
-63
-72
-57
-64
-55
-54
-53
-50
-61
-63
-54
-58
-62
-60
-63
-69
-64
-66
-49
-49
-54
-46
-66
-67
-60
-59
-54
-53
-49
-59
-60
-49
-58
-56
-51
-55
-67
-50
-46
-54
-55
-51
-58
-63
-62
-62
-57
-65
-50
-56
-30
-37
-22
2
18
24
39
69
69
66
64
46
30
18
-5
-18
-45
-56
-71
-73
-84
-81
-66
-54
-57
-61
-40
-36
-48
-48
-46
-39
-44
-44
-49
-32
-28
-32
-32
-32
-37
-33
-33
-31
-42
-34
-24
-29
-32
-29
-18
-32
-36
-25
-28
-26
-25
-25
-24
-25
-22
-22
-20
-21
-22
-23
-6
-14
-21
-24
-17
-14
-23
-5
-15
-9
-12
-13
-14
5
0
-9
4
-8
-6
7
3
19
-1
14
21
8
6
-3
24
26
17
18
20
25
31
32
28
39
38
41
51
44
44
56
57
52
57
60
55
59
68
80
79
74
62
69
81
71
77
80
74
81
76
69
67
74
61
64
55
67
63
49
59
55
37
44
46
36
34
39
37
31
33
25
29
35
34
30
28
26
35
31
26
30
45
31
29
30
31
35
35
32
32
38
26
28
27
33
38
54
41
41
32
35
31
35
58
40
41
39
47
51
40
51
43
44
46
50
53
47
49
56
50
57
45
50
51
56
54
62
59
57
62
61
51
48
57
51
57
64
63
59
74
62
56
68
62
63
76
79
81
66
67
53
55
75
71
78
88
75
76
78
83
80
72
84
84
77
82
88
81
85
74
86
88
95
93
90
97
80
81
99
104
103
101
102
108
104
100
97
108
115
120
118
108
109
104
107
104
108
108
107
96
104
100
99
104
98
100
104
116
111
107
110
110
108
109
104
102
107
111
112
116
109
116
118
113
116
117
120
112
121
130
124
127
117
127
123
134
126
121
122
126
115
130
113
111
115
136
127
133
178
205
188
214
229
257
264
267
285
269
261
227
203
178
177
160
135
127
154
125
132
133
139
154
165
155
165
156
153
160
159
170
163
159
158
158
169
165
157
163
165
153
166
167
165
174
169
166
165
162
172
173
172
174
154
167
175
178
173
162
180
185
177
182
184
172
191
177
169
176
185
180
179
185
173
184
166
177
186
182
199
187
177
182
177
192
207
205
200
204
202
192
206
213
206
202
215
225
210
220
228
231
224
221
230
249
256
267
262
257
248
260
261
246
253
268
266
268
283
257
266
282
284
286
278
271
277
280
272
276
275
273
269
250
251
264
269
251
253
244
239
239
235
230
232
243
233
228
232
224
229
230
231
220
232
225
225
225
225
224
230
222
223
221
225
224
236
232
232
229
228
229
232
227
237
232
232
239
240
232
228
234
243
235
240
248
246
244
227
244
244
242
246
234
238
232
254
241
242
247
250
249
259
249
248
253
240
236
258
259
245
237
264
265
258
249
261
264
250
250
253
256
256
254
257
258
262
257
260
251
264
257
259
256
258
259
259
276
272
278
267
259
268
271
281
266
277
273
266
269
280
269
259
267
282
278
276
285
281
294
279
282
280
294
304
299
292
302
290
287
298
288
286
280
272
283
283
281
281
281
273
270
287
281
267
279
290
298
283
273
275
273
279
284
289
289
284
291
276
292
277
292
290
285
281
297
292
287
278
289
285
279
287
302
295
299
294
278
292
284
276
267
281
289
305
317
325
343
368
384
383
401
410
417
405
398
375
364
335
318
294
275
268
261
260
259
267
269
300
288
286
297
295
303
301
303
290
314
313
303
304
301
305
314
322
320
318
306
310
311
308
307
310
315
321
324
328
316
311
324
317
316
311
310
330
329
320
329
319
319
321
325
324
313
326
331
330
334
327
323
319
328
332
325
332
334
335
345
349
341
344
336
335
350
339
347
347
345
347
347
355
351
354
363
365
359
363
361
362
353
361
377
379
374
378
380
387
384
380
383
392
391
391
383
404
394
401
395
395
389
395
396
388
391
386
393
392
385
379
370
376
375
370
363
375
363
354
356
351
346
345
353
340
346
344
348
355
338
350
319
334
346
340
340
348
335
335
342
341
336
345
339
334
341
333
328
345
343
336
336
337
321
332
344
343
344
347
352
342
339
336
345
347
351
348
333
332
337
334
327
337
357
347
348
345
337
339
346
341
337
332
345
344
341
335
332
341
341
349
345
352
341
324
351
334
339
342
346
341
337
352
347
351
353
343
347
336
340
336
340
336
342
345
341
348
334
337
356
342
345
350
348
344
359
358
349
354
346
336
344
363
358
361
353
346
346
355
354
345
353
348
340
346
341
337
331
344
335
342
345
337
349
338
338
326
335
354
334
325
326
338
339
334
328
344
342
344
335
343
333
332
335
336
339
330
331
335
336
330
346
345
325
338
344
339
334
328
311
311
303
334
323
344
356
364
379
403
407
421
428
451
447
443
439
431
413
388
368
349
331
328
319
319
313
318
317
332
334
329
335
336
341
343
340
341
336
338
341
342
335
336
336
339
336
342
344
335
344
340
340
333
346
341
336
337
347
336
338
335
349
333
325
343
350
346
336
348
344
339
342
334
350
347
330
340
345
343
340
342
344
342
356
355
350
353
336
351
352
334
344
341
362
359
351
361
347
355
362
357
356
355
349
347
355
356
375
383
361
374
381
379
382
376
389
380
388
395
388
387
390
386
394
395
396
399
389
392
402
400
398
387
395
396
384
381
386
377
371
380
379
383
369
374
360
353
359
351
350
344
364
354
346
346
347
353
348
344
342
352
333
333
346
339
345
344
343
343
340
354
345
340
337
338
347
352
337
323
321
337
359
359
358
337
337
341
345
342
343
342
331
348
342
344
340
341
342
345
327
340
339
336
354
348
335
347
346
334
341
331
343
342
337
337
336
330
337
320
332
340
339
357
341
348
338
347
342
329
324
329
346
345
354
345
340
343
341
332
334
332
341
348
337
341
336
346
340
330
340
340
333
329
333
340
352
339
325
346
344
341
333
334
334
344
345
348
354
336
341
342
342
347
343
328
336
337
344
333
340
345
335
340
348
346
342
349
342
347
356
354
350
343
348
349
346
352
347
336
338
335
334
334
331
325
330
337
336
336
326
320
333
315
331
345
351
344
340
322
318
321
332
331
336
326
332
329
331
325
328
316
331
324
331
343
330
331
332
326
330
322
330
322
321
329
316
311
306
304
314
329
346
363
371
399
412
417
423
435
447
441
436
436
411
391
367
328
329
321
308
296
304
311
312
319
323
321
331
321
309
321
327
329
334
332
330
322
313
335
324
317
317
338
331
325
323
326
327
313
331
345
329
327
319
331
332
328
326
332
326
324
320
334
332
338
333
334
333
334
327
324
335
322
329
332
325
326
327
318
318
323
317
341
345
343
342
338
344
339
344
336
340
337
342
343
338
341
337
346
340
339
339
355
362
340
343
379
382
361
360
371
367
380
368
375
368
371
364
367
381
394
385
387
381
379
376
377
388
383
373
374
382
381
377
381
362
368
352
364
363
350
351
353
361
351
341
347
331
333
321
334
331
331
326
345
334
337
335
329
328
313
327
333
330
329
323
314
332
321
321
320
328
332
328
325
327
333
323
330
326
314
316
339
324
322
319
315
322
321
326
341
325
327
326
331
327
320
325
321
313
311
316
327
326
320
331
328
323
318
313
331
325
329
324
321
322
327
319
318
318
327
324
327
320
321
328
332
329
317
322
325
320
326
318
326
330
326
340
329
302
320
324
329
322
324
322
318
324
327
325
319
330
319
308
326
327
328
317
323
333
325
322
323
328
316
310
336
327
322
324
322
323
316
334
335
316
320
325
326
321
319
326
326
319
322
321
314
330
314
326
324
330
317
322
323
321
317
329
327
317
323
323
323
329
330
330
322
325
330
321
335
346
344
330
344
335
339
323
318
329
334
340
341
339
337
333
339
328
326
316
321
324
321
315
315
326
321
314
319
324
326
318
323
323
324
326
325
316
323
322
326
306
321
315
314
304
330
324
317
315
316
317
322
313
306
321
330
324
299
314
319
297
296
312
306
310
321
329
358
360
375
391
404
426
434
438
444
413
389
383
378
353
328
309
294
292
293
297
301
303
305
306
313
320
327
320
311
317
308
314
326
320
325
318
325
317
312
316
321
317
320
314
333
328
325
311
327
328
315
321
315
333
325
322
319
329
316
316
324
326
323
331
327
323
313
318
313
323
319
331
325
332
328
312
320
324
334
333
324
332
327
325
319
335
338
322
323
333
341
338
333
338
342
334
323
333
339
340
341
347
353
347
357
358
352
364
354
359
361
363
368
366
373
367
365
374
374
370
371
389
379
375
373
381
372
373
375
368
369
373
375
356
356
349
360
349
359
340
347
345
342
325
346
342
323
329
330
320
321
327
316
325
324
325
319
326
317
313
314
320
317
312
318
309
314
320
320
327
329
321
315
320
315
311
322
318
311
308
318
326
315
327
315
321
313
314
322
310
318
320
316
309
316
317
316
328
309
310
315
307
311
322
329
316
310
312
313
312
325
321
324
315
309
310
313
317
316
309
322
314
313
320
309
325
309
323
315
308
305
319
322
312
311
321
299
324
328
308
324
314
311
324
321
311
315
323
310
308
309
315
311
312
320
321
324
312
310
317
316
315
314
317
317
299
307
311
313
309
320
320
320
313
315
316
318
329
323
307
319
316
311
306
316
310
313
322
324
319
320
331
333
323
312
312
325
328
321
320
319
321
324
326
332
342
332
336
319
317
332
322
314
324
314
315
322
316
319
316
312
308
312
309
311
310
310
294
310
322
312
313
315
310
313
304
307
309
316
300
303
299
300
310
313
315
316
303
303
310
313
304
320
306
289
302
303
292
290
301
295
306
304
316
331
341
363
380
399
405
426
427
418
402
390
356
338
313
309
308
273
272
272
267
271
285
288
297
289
297
304
298
302
299
303
306
306
295
305
294
314
313
311
304
310
328
314
296
295
317
307
308
308
305
315
319
312
306
325
321
309
317
302
310
325
315
317
310
310
319
308
312
313
316
321
309
309
309
312
317
321
317
319
319
314
319
319
318
304
326
342
329
321
320
327
338
329
329
329
336
335
345
340
344
335
349
342
338
350
337
347
357
356
353
364
370
361
363
369
369
373
367
374
371
370
363
364
376
391
379
365
371
375
372
369
366
369
361
363
359
352
358
345
344
335
334
336
324
337
328
321
324
320
324
327
315
308
324
311
321
315
316
321
314
302
317
315
309
304
298
316
323
314
308
307
312
304
309
314
311
312
303
302
313
307
311
310
307
320
287
313
310
300
307
319
320
292
311
321
313
308
306
313
314
299
305
311
310
316
314
307
311
314
301
314
315
310
311
309
314
309
309
317
301
307
302
305
309
319
308
306
311
305
306
310
314
310
308
314
313
310
304
312
308
297
300
312
316
316
316
299
309
314
304
314
311
306
309
308
295
296
296
286
278
295
290
283
287
277
286
294
299
289
284
285
292
286
299
295
291
286
272
277
271
272
282
278
273
272
272
259
275
283
273
273
269
276
299
279
282
289
283
295
288
287
278
283
296
287
294
292
287
285
310
302
300
304
308
304
310
304
296
296
290
300
294
294
296
286
289
295
288
287
287
288
282
291
295
289
287
298
281
291
281
291
275
287
289
282
285
280
294
290
285
287
281
292
298
282
279
288
295
285
286
285
286
280
279
277
276
264
276
283
293
307
326
343
361
366
386
389
402
403
394
392
361
338
313
300
290
288
264
253
252
258
279
268
280
283
293
289
263
283
279
288
288
281
293
296
288
288
281
291
282
293
286
287
295
291
288
289
289
292
290
281
286
297
289
288
289
294
281
281
290
288
293
303
301
287
288
289
293
284
291
294
291
309
292
294
298
294
294
283
301
297
301
304
296
297
303
294
298
304
300
293
298
295
310
309
310
308
302
304
313
307
316
327
325
330
326
317
331
325
328
329
338
329
330
333
349
334
352
349
334
350
349
337
344
348
347
345
338
340
335
340
336
337
327
334
334
329
316
322
318
307
311
304
294
301
296
300
290
303
299
284
285
300
293
278
287
289
278
277
274
277
287
295
287
289
280
273
269
279
283
288
284
288
278
279
289
275
268
269
277
280
274
284
278
267
301
283
274
275
274
273
278
272
269
265
284
278
278
262
270
271
286
277
272
286
293
272
269
277
275
273
274
282
275
282
272
271
271
266
262
268
273
298
274
276
272
260
274
279
271
272
275
276
276
272
277
267
261
275
272
272
278
269
267
269
271
268
285
275
272
271
265
273
278
270
263
268
272
265
267
268
270
262
274
275
272
266
263
269
271
274
268
271
266
269
268
266
274
265
263
268
270
259
264
264
261
251
267
273
275
269
267
263
276
269
267
265
266
274
267
260
274
267
271
270
267
261
274
274
263
283
278
280
285
279
260
268
265
283
283
275
270
275
270
275
264
262
264
255
262
258
262
264
255
257
255
257
252
249
247
258
273
262
246
254
254
246
250
250
253
250
247
265
254
238
258
244
251
244
254
262
235
256
259
250
237
235
233
238
241
252
256
266
289
294
305
330
351
340
365
376
371
351
334
324
282
254
268
235
228
217
217
220
227
233
218
232
252
247
243
255
253
243
244
238
236
250
249
250
246
253
252
240
255
262
248
253
250
250
260
243
241
252
249
249
245
245
235
247
260
265
254
255
248
249
250
244
242
259
264
246
246
260
252
246
250
252
253
246
254
264
272
255
254
253
253
258
261
257
271
263
261
259
256
258
263
271
274
262
273
272
272
271
278
274
265
271
286
295
298
286
288
286
295
293
293
293
297
296
302
295
303
305
309
313
300
299
308
317
325
305
301
306
286
310
298
293
283
284
283
283
286
273
276
270
263
255
256
267
254
257
249
256
254
249
248
242
230
255
253
235
240
229
238
248
235
241
241
244
240
237
240
244
233
234
233
236
241
244
241
229
232
240
242
234
233
223
229
246
243
235
237
242
234
240
233
235
231
239
238
235
237
234
232
215
227
236
232
235
238
226
238
235
216
220
226
227
242
233
224
243
235
229
222
239
232
240
240
232
235
226
228
229
221
233
230
224
236
230
237
221
227
229
228
226
225
222
228
224
231
227
226
225
226
228
218
225
231
229
229
232
218
227
228
216
222
228
227
224
225
218
228
230
215
210
220
226
224
217
225
232
216
226
230
220
222
217
228
218
213
228
227
215
223
236
223
216
211
213
224
227
232
236
217
227
230
219
238
241
227
233
233
237
230
229
236
225
226
229
226
224
213
212
224
212
224
216
212
214
212
211
217
209
211
209
202
211
212
207
198
217
211
205
215
197
210
210
212
227
217
197
206
204
205
201
204
200
209
209
213
210
201
187
202
197
191
191
207
227
231
250
248
252
275
290
307
321
332
310
296
280
245
230
222
205
180
161
160
156
168
184
188
174
183
189
196
206
199
201
208
202
204
191
202
210
196
219
209
202
202
206
200
194
201
212
202
198
203
202
208
201
211
208
207
211
195
217
205
212
203
197
201
202
207
207
205
210
205
207
205
216
208
207
205
204
206
211
208
211
215
209
212
206
214
224
202
216
217
218
223
228
211
230
215
218
227
234
229
229
231
236
224
234
241
234
232
241
258
252
247
245
254
247
255
250
248
259
261
269
261
260
265
253
264
256
266
271
266
268
261
262
258
254
246
243
246
243
242
227
219
226
218
221
215
206
213
219
223
206
202
195
204
207
193
190
203
196
196
195
188
189
196
189
199
196
192
195
195
191
194
192
187
177
189
190
183
195
179
180
193
194
191
191
184
182
196
193
184
188
190
186
181
185
179
186
194
189
193
188
185
192
185
177
189
197
191
187
190
183
181
185
185
192
186
176
180
181
187
180
201
189
183
185
189
170
173
189
195
184
184
181
182
184
184
177
186
184
180
182
190
172
175
167
174
184
192
188
172
171
176
175
176
184
187
180
173
176
172
177
182
177
165
181
185
181
177
184
183
171
178
172
166
162
167
177
183
181
179
176
173
166
168
173
182
181
174
173
179
181
175
161
175
177
173
178
183
186
181
174
188
164
172
191
171
177
186
183
193
188
181
185
174
176
188
181
175
171
163
166
170
158
172
179
165
169
171
167
165
161
160
157
165
155
159
164
170
171
154
152
160
168
158
156
162
166
160
167
155
165
162
154
155
154
165
159
160
149
152
154
141
134
142
151
163
188
194
206
222
236
245
256
273
282
280
255
245
225
197
184
169
142
134
116
124
122
126
132
143
148
144
159
158
163
155
158
165
153
144
140
163
158
154
149
147
155
167
157
155
165
145
139
165
159
138
162
159
151
169
175
150
142
155
157
155
157
163
158
166
154
152
159
154
156
166
161
160
158
160
164
152
157
149
160
159
164
165
160
168
171
165
154
159
161
165
170
158
170
168
171
172
182
178
179
175
186
168
185
183
179
189
192
190
190
193
206
198
207
208
208
210
215
203
197
200
209
206
213
213
216
211
218
217
206
210
209
211
208
201
198
188
188
187
191
183
176
177
178
173
175
174
170
156
160
157
159
153
162
165
158
147
156
153
147
149
141
142
137
144
149
145
132
144
137
150
156
149
147
147
142
137
148
144
134
151
160
138
140
137
139
135
143
139
142
134
150
142
149
145
134
135
128
137
148
140
145
137
139
145
137
133
138
142
146
140
139
140
137
146
135
139
136
131
134
143
151
127
139
141
137
126
130
145
146
129
133
135
146
132
135
150
131
132
144
139
134
138
128
137
135
125
136
119
125
148
137
143
147
146
124
131
128
131
125
135
130
139
133
145
134
124
137
116
130
121
126
126
138
133
123
133
136
137
128
133
136
134
143
137
124
128
130
124
131
136
147
143
144
133
136
148
139
143
136
144
131
140
131
140
132
122
119
145
146
124
125
119
123
123
116
116
112
123
130
118
115
121
123
115
117
111
122
123
117
116
106
120
112
113
108
120
119
115
119
124
116
121
109
109
114
112
112
118
114
102
95
88
114
110
129
138
150
164
177
194
206
228
232
237
219
191
185
166
157
124
109
99
75
64
82
91
87
92
91
95
108
106
109
118
108
106
104
106
116
113
102
114
106
110
105
107
102
113
110
99
106
121
119
104
103
104
107
115
117
115
119
101
102
116
113
112
110
109
108
115
109
112
109
120
114
111
114
110
106
111
118
108
109
109
104
111
119
115
115
120
113
130
118
122
124
111
116
130
124
117
129
120
115
138
138
140
132
136
144
140
139
135
149
138
151
146
144
160
168
161
153
160
151
144
159
173
164
170
171
157
164
160
153
154
151
150
161
153
154
152
156
144
132
136
127
122
126
121
122
109
116
122
113
102
109
112
109
107
106
99
102
95
96
98
91
103
88
97
92
89
89
96
86
88
94
86
85
97
77
96
95
91
90
97
106
94
82
101
91
86
90
92
85
88
98
81
76
97
85
81
85
92
80
78
73
89
97
73
80
99
99
87
79
78
82
78
87
106
84
84
86
78
77
84
77
81
86
85
85
87
82
73
74
68
73
89
91
78
83
84
74
77
87
79
85
87
81
88
73
93
86
83
73
73
82
78
75
83
86
89
86
80
70
74
79
88
83
95
87
96
93
96
90
92
88
93
88
88
91
93
91
89
88
75
76
71
74
70
73
76
75
71
75
68
67
77
81
73
74
67
75
70
76
66
68
64
75
72
70
65
72
76
77
64
67
67
68
68
74
70
83
80
69
74
66
67
71
57
50
64
60
60
63
69
84
87
109
120
133
157
168
184
192
183
165
159
135
113
77
64
56
31
26
19
17
38
33
52
54
58
63
58
60
72
64
66
68
58
69
74
65
64
70
64
64
65
59
53
74
76
75
72
77
64
73
77
76
71
70
69
68
65
65
69
72
75
79
71
65
82
69
78
72
68
75
72
73
65
63
73
75
71
80
77
72
70
87
93
80
79
79
84
77
80
84
86
78
90
96
92
86
88
90
92
96
97
100
101
105
114
102
102
109
108
111
115
117
113
112
131
123
124
122
127
124
130
136
135
133
131
129
121
123
129
117
112
128
124
121
113
108
98
104
101
91
94
85
78
85
85
70
70
75
61
64
76
69
63
69
66
59
52
66
60
61
59
56
57
58
67
61
58
61
54
53
58
61
65
57
47
54
61
59
53
63
63
56
53
63
55
45
56
62
52
45
47
45
47
57
63
65
63
57
57
53
56
55
57
50
51
55
57
57
54
51
63
54
51
59
56
54
42
51
58
58
56
55
56
55
44
50
41
52
53
54
52
61
49
55
50
57
57
50
49
53
47
53
52
51
50
51
47
56
59
54
57
55
55
60
57
53
59
64
47
62
67
71
76
69
57
64
64
58
59
63
66
65
56
57
53
57
51
46
41
51
44
38
46
46
42
45
52
52
45
40
51
43
40
48
40
41
54
44
46
50
43
42
35
39
43
46
42
35
43
49
45
35
49
52
38
35
39
33
33
29
24
24
26
35
44
64
73
81
113
131
140
150
174
173
153
136
122
92
68
47
28
12
5
12
-3
3
11
21
28
33
37
36
46
41
39
45
34
32
40
36
34
30
40
49
35
34
33
36
39
41
36
41
39
34
30
48
47
39
39
47
36
43
38
41
39
36
39
37
44
53
41
40
45
45
56
46
41
38
41
42
43
39
44
37
41
41
44
48
52
33
39
45
64
63
54
48
50
42
51
51
44
67
68
60
72
68
59
62
79
74
75
72
78
74
70
83
79
77
88
90
98
94
93
84
96
92
88
83
90
101
94
90
89
91
93
85
84
83
88
73
75
78
63
56
57
50
54
59
55
53
46
38
41
38
36
31
29
35
40
37
42
39
30
19
25
21
24
30
43
28
30
37
26
31
29
21
21
28
28
9
41
31
21
28
24
27
24
23
24
25
22
13
31
26
33
29
32
25
30
19
13
24
15
26
30
33
19
17
20
27
29
23
17
17
28
24
23
26
29
32
28
29
17
17
30
28
23
15
25
22
19
17
16
16
26
19
30
35
29
15
22
19
15
20
28
21
22
24
20
27
26
25
23
28
34
21
22
30
22
26
35
37
33
30
35
36
40
41
36
32
41
32
15
12
20
17
8
17
27
15
22
11
8
14
17
26
26
30
14
25
10
3
18
31
13
12
12
23
18
15
14
5
15
9
13
12
13
14
12
16
12
1
7
20
25
19
9
18
8
10
-3
-2
-1
1
19
28
40
57
78
92
113
126
143
140
137
115
106
82
47
27
7
3
-14
-26
-31
-12
-3
-5
-2
-2
10
6
2
-1
20
18
19
17
10
9
13
7
14
12
5
3
15
19
13
12
2
10
13
12
19
19
5
15
21
24
23
10
12
9
7
14
19
15
13
14
14
15
15
16
17
11
6
26
29
33
11
19
20
19
23
30
23
20
15
32
34
27
8
19
23
25
38
33
27
23
29
44
36
32
33
46
47
60
49
40
43
44
57
59
54
64
63
60
63
61
62
74
71
73
63
71
77
73
61
70
70
75
75
70
57
65
64
58
62
62
58
55
46
41
37
41
41
24
29
31
19
23
26
21
24
18
16
11
19
3
1
11
7
11
5
20
13
4
3
9
0
4
12
11
1
-11
18
11
12
6
0
0
14
8
7
11
5
-6
11
12
2
6
0
-4
0
15
12
2
0
0
-6
-3
-2
-10
5
-3
3
-1
-1
-2
5
2
6
-8
2
3
3
-4
-10
-14
-1
3
-3
-2
0
1
3
-2
5
6
-7
-11
-8
-8
-4
3
-3
-7
-6
2
0
-4
-6
-4
-2
4
-1
-4
0
-5
-6
3
3
-3
1
-1
0
-4
-7
-9
1
5
1
2
14
18
5
5
12
14
4
14
10
6
4
-2
1
0
-4
-9
-14
-7
-12
-13
-9
-7
-5
-5
-9
-8
-19
-15
-11
-18
-8
-3
-6
-5
-16
-11
-5
-1
-12
-8
-16
-13
-5
-16
-10
-15
-10
-14
-16
-19
-16
-12
-10
-12
-11
-26
-31
-15
-28
-29
-20
-25
-17
-12
1
16
18
40
68
80
89
112
112
110
103
87
72
34
-3
-4
-20
-38
-42
-51
-55
-48
-37
-26
-33
-33
-28
-21
-5
-5
-7
-10
-15
-21
-18
-6
-12
-15
-18
-4
-6
-10
-23
-18
-11
-4
-14
-13
-7
-17
-13
-10
-11
-7
-4
-15
-11
2
0
-14
-6
-7
-10
-8
-6
-5
-2
0
-11
-7
-5
-16
-11
-2
-14
-6
1
-4
3
-1
-1
0
2
-13
-8
-1
-2
7
-2
4
5
9
7
8
12
22
22
22
8
6
19
18
17
19
38
30
25
34
25
31
28
39
29
36
39
56
49
51
43
39
36
49
51
46
50
48
50
38
51
51
43
49
38
30
32
30
30
23
30
17
10
12
9
12
7
12
4
-3
5
-5
-13
-17
-16
-6
-5
-11
-13
-9
-5
-21
-19
-19
-30
-26
-12
-17
-18
-5
-12
-15
-17
-15
-21
-20
-26
-28
-17
-12
-10
-23
-18
-25
-12
-21
-12
-21
-28
-21
-15
-19
-25
-22
-18
-26
-19
-5
-26
-28
-20
-14
-22
-31
-22
-16
-25
-16
-16
-14
-16
-21
-28
-14
-18
-26
-17
-20
-21
-19
-20
-19
-20
-8
-19
-18
-30
-27
-5
-21
-16
-18
-26
-23
-15
-17
-16
-20
-20
-19
-16
-26
-23
-31
-6
-12
-19
-11
-11
-16
-9
-8
-3
-3
0
-16
-22
-12
-16
-17
-19
-21
-28
-22
-25
-35
-9
-22
-27
-16
-27
-31
-30
-30
-44
-32
-21
-32
-32
-32
-33
-34
-30
-27
-31
-26
-18
-17
-22
-28
-18
-33
-40
-36
-29
-38
-31
-24
-26
-18
-31
-35
-37
-40
-42
-43
-19
-33
-29
-31
-23
-22
-60
-49
-17
-20
-7
15
37
51
61
75
91
96
81
69
56
39
3
-16
-25
-52
-76
-81
-82
-63
-55
-64
-44
-35
-35
-44
-37
-39
-40
-42
-36
-30
-39
-30
-34
-26
-36
-41
-30
-34
-28
-33
-31
-29
-30
-34
-33
-31
-34
-40
-34
-32
-39
-36
-34
-26
-26
-19
-29
-33
-25
-27
-37
-34
-34
-33
-22
-34
-21
-22
-26
-15
-26
-31
-25
-25
-24
-20
-19
-27
-24
-31
-24
-24
-12
-18
-15
-17
-15
-15
-21
-15
-17
4
-11
-17
-12
-2
-4
-9
0
4
-11
15
-2
6
11
24
23
18
21
18
23
33
26
24
20
26
25
34
26
30
29
37
21
17
15
28
26
22
17
21
24
16
13
-2
-4
0
-5
-6
-12
-21
-9
-10
-34
-25
-39
-25
-28
-15
-25
-33
-34
-33
-35
-49
-39
-33
-35
-44
-11
-30
-36
-51
-50
-35
-46
-33
-38
-44
-36
-45
-58
-34
-40
-45
-36
-32
-51
-50
-30
-38
-45
-27
-31
-34
-33
-34
-39
-34
-39
-44
-45
-35
-32
-35
-34
-40
-41
-30
-40
-24
-49
-42
-39
-38
-41
-43
-39
-34
-36
-40
-41
-42
-35
-41
-36
-31
-36
-42
-37
-46
-30
-41
-39
-36
-37
-40
-34
-34
-38
-41
-41
-39
-45
-41
-44
-34
-41
-38
-33
-37
-37
-32
-26
-43
-42
-37
-30
-42
-46
-40
-32
-38
-36
-31
-33
-38
-24
-29
-23
-31
-24
-31
-33
-34
-27
-18
-16
-18
-20
-40
-37
-57
-42
-35
-33
-42
-37
-44
-38
-34
-43
-59
-55
-41
-37
-40
-55
-48
-35
-43
-43
-45
-46
-49
-53
-54
-40
-42
-49
-35
-42
-48
-40
-52
-63
-56
-41
-56
-50
-24
-54
-49
-38
-43
-41
-56
-55
-65
-68
-68
-71
-62
-53
-41
-26
-9
9
25
44
48
69
71
82
70
39
35
7
-5
-27
-56
-72
-84
-91
-82
-59
-56
-56
-61
-72
-51
-48
-55
-35
-53
-50
-52
-55
-55
-52
-38
-54
-57
-48
-52
-39
-52
-45
-46
-47
-33
-44
-46
-47
-49
-48
-48
-32
-50
-46
-43
-39
-48
-41
-28
-47
-40
-42
-43
-49
-29
-26
-44
-36
-41
-47
-46
-35
-37
-32
-45
-33
-43
-41
-25
-39
-23
-26
-29
-35
-28
-39
-33
-24
-31
-26
-21
-31
-21
-18
-20
-16
-22
-14
-21
-20
-10
-2
0
-17
-11
2
-8
2
-3
10
7
2
3
35
2
-1
-2
24
19
13
16
14
17
14
23
16
35
12
1
-9
21
5
7
-3
-15
3
-15
-15
-15
-15
21
-50
-34
-24
-32
-19
-42
-28
-32
-52
-45
-41
-48
-43
-37
-35
-51
-36
-36
-79
-50
-42
-56
-45
-48
-58
-52
-50
-53
-48
-47
-54
-50
-41
-49
-72
-53
-42
-54
-59
-56
-60
-59
-47
-60
-69
-42
-42
-58
-55
-60
-53
-59
-55
-72
-68
-71
-60
-57
-57
-64
-57
-66
-71
-58
-71
-71
-62
-58
-72
-56
-61
-66
-70
-78
-84
-69
-73
-68
-71
-48
-77
-85
-66
-74
-77
-67
-64
-75
-63
-71
-69
-73
-77
-78
-75
-71
-63
-80
-78
-75
-68
-67
-78
-77
-74
-79
-66
-73
-73
-58
-71
-79
-80
-82
-92
-90
-74
-84
-68
-71
-67
-68
-78
-74
-65
-70
-60
-73
-71
-66
-72
-63
-73
-90
-81
-85
-87
-82
-79
-89
-104
-85
-91
-78
-104
-98
-94
-76
-84
-96
-85
-89
-102
-97
-90
-95
-83
-88
-94
-99
-88
-96
-106
-96
-90
-103
-99
-87
-99
-95
-99
-105
-89
-91
-101
-118
-97
-106
-121
-114
-117
-119
-110
-110
-87
-78
-74
-39
-44
-21
-9
13
22
27
24
20
-14
-41
-71
-87
-106
-128
-135
-142
-136
-124
-129
-118
-100
-105
-101
-99
-104
-120
-115
-102
-92
-100
-104
-103
-106
-106
-110
-118
-114
-101
-92
-95
-90
-100
-98
-112
-95
-99
-96
-101
-110
-102
-95
-103
-105
-100
-97
-99
-105
-104
-109
-101
-98
-103
-105
-83
-92
-93
-90
-112
-111
-107
-90
-87
-76
-113
-109
-87
-108
-103
-99
-98
-89
-85
-83
-94
-98
-92
-100
-74
-78
-86
-76
-76
-92
-87
-70
-79
-77
-73
-73
-67
-75
-75
-51
-52
-56
-47
-60
-63
-56
-52
-37
-46
-51
-51
-39
-57
-47
-46
-46
-39
-54
-51
-45
-47
-31
-46
-60
-60
-72
-54
-58
-65
-64
-60
-66
-70
-75
-76
-76
-81
-83
-81
-91
-88
-94
-97
-121
-92
-97
-89
-103
-107
-105
-109
-115
-104
-114
-101
-111
-102
-103
-119
-103
-106
-115
-103
-117
-100
-103
-92
-103
-108
-118
-109
-102
-99
-110
-105
-106
-114
-116
-100
-103
-117
-115
-106
-112
-112
-101
-100
-96
-114
-110
-105
-117
-110
-107
-106
-100
-102
-109
-99
-114
-114
-105
-110
-121
-126
-106
-110
-102
-101
-105
-112
-112
-105
-106
-107
-107
-123
-123
-109
-113
-113
-107
-112
-107
-110
-108
-105
-106
-102
-115
-109
-117
-117
-111
-101
-101
-128
-118
-109
-102
-104
-114
-109
-119
-123
-99
-107
-110
-105
-96
-87
-110
-105
-95
-100
-95
-93
-92
-97
-104
-114
-118
-108
-101
-93
-92
-114
-125
-114
-114
-123
-129
-112
-114
-131
-119
-107
-115
-98
-114
-120
-121
-108
-111
-105
-115
-107
-123
-124
-125
-122
-117
-128
-114
-112
-109
-114
-120
-110
-111
-115
-119
-117
-126
-114
-115
-121
-123
-115
-118
-131
-122
-126
-122
-114
-109
-104
-92
-103
-82
-65
-41
-23
-18
2
6
15
-1
-29
-52
-72
-98
-110
-120
-142
-163
-170
-158
-140
-133
-125
-137
-137
-120
-121
-129
-128
-118
-121
-122
-120
-116
-126
-119
-112
-110
-120
-118
-116
-109
-116
-108
-115
-110
-114
-113
-102
-110
-115
-125
-117
-118
-124
-115
-109
-107
-105
-99
-99
-127
-108
-106
-122
-114
-99
-108
-114
-106
-115
-94
-91
-114
-114
-99
-118
-104
-107
-105
-88
-111
-95
-90
-90
-102
-100
-100
-96
-99
-87
-90
-96
-98
-95
-90
-91
-74
-75
-70
-62
-92
-94
-77
-69
-73
-61
-50
-84
-45
-37
-63
-61
-62
-55
-57
-54
-58
-55
-52
-49
-54
-50
-41
-54
-49
-39
-52
-57
-61
-61
-55
-50
-66
-80
-70
-82
-65
-94
-83
-84
-97
-101
-99
-98
-95
-90
-94
-108
-108
-121
-118
-103
-103
-115
-115
-106
-113
-119
-112
-107
-118
-118
-117
-111
-107
-119
-121
-122
-138
-123
-113
-118
-128
-116
-116
-112
-110
-121
-128
-126
-121
-115
-114
-122
-110
-117
-118
-113
-113
-127
-122
-120
-128
-116
-110
-117
-124
-121
-120
-117
-126
-108
-128
-123
-121
-114
-128
-115
-118
-117
-128
-122
-120
-130
-117
-128
-126
-114
-119
-120
-131
-114
-129
-113
-116
-127
-126
-103
-114
-123
-123
-121
-112
-112
-117
-131
-128
-121
-132
-122
-114
-116
-121
-112
-121
-124
-131
-122
-118
-126
-120
-116
-128
-126
-121
-120
-126
-125
-117
-114
-118
-109
-119
-111
-114
-112
-125
-100
-116
-110
-107
-110
-114
-114
-113
-111
-121
-119
-117
-136
-132
-121
-136
-113
-133
-129
-118
-123
-140
-142
-131
-132
-131
-116
-131
-139
-134
-127
-117
-127
-138
-142
-129
-133
-122
-132
-123
-131
-129
-121
-131
-133
-113
-128
-135
-138
-118
-117
-137
-132
-129
-137
-148
-133
-141
-150
-136
-121
-121
-111
-94
-79
-67
-36
-25
-11
-10
-8
-23
-33
-53
-63
-109
-117
-131
-144
-150
-152
-158
-152
-168
-152
-145
-137
-120
-121
-132
-120
-120
-135
-126
-133
-128
-122
-124
-123
-133
-131
-135
-127
-129
-131
-129
-118
-126
-133
-131
-128
-128
-118
-120
-126
-129
-125
-131
-117
-123
-117
-120
-134
-119
-120
-118
-117
-113
-127
-119
-124
-123
-121
-111
-102
-128
-127
-117
-114
-122
-121
-124
-115
-124
-116
-119
-115
-115
-108
-104
-111
-110
-87
-100
-109
-112
-112
-102
-104
-97
-99
-93
-95
-87
-89
-74
-82
-92
-96
-85
-73
-75
-88
-80
-78
-74
-64
-61
-65
-77
-69
-70
-55
-77
-67
-65
-62
-64
-59
-57
-69
-75
-65
-69
-63
-60
-76
-86
-78
-89
-94
-103
-103
-92
-98
-99
-103
-105
-112
-111
-114
-113
-117
-121
-116
-116
-119
-127
-118
-123
-128
-120
-108
-131
-117
-122
-123
-118
-113
-132
-131
-139
-122
-125
-111
-112
-103
-120
-121
-131
-124
-110
-122
-125
-121
-126
-123
-122
-126
-126
-120
-116
-129
-118
-119
-122
-123
-130
-138
-123
-122
-126
-112
-109
-109
-116
-107
-125
-124
-120
-119
-127
-133
-127
-125
-129
-121
-118
-115
-118
-119
-122
-123
-120
-119
-111
-114
-116
-117
-128
-125
-116
-120
-124
-111
-115
-116
-135
-121
-130
-125
-119
-131
-123
-112
-124
-114
-103
-109
-120
-115
-122
-132
-124
-111
-125
-128
-115
-108
-120
-123
-126
-113
-115
-112
-110
-125
-115
-120
-109
-113
-120
-115
-88
-96
-102
-101
-102
-106
-112
-96
-103
-110
-122
-114
-113
-112
-110
-111
-132
-122
-118
-125
-112
-116
-122
-122
-115
-118
-123
-117
-121
-131
-123
-118
-113
-123
-120
-114
-115
-122
-115
-121
-128
-126
-126
-118
-115
-116
-115
-119
-131
-130
-134
-113
-123
-113
-116
-127
-132
-123
-118
-146
-135
-129
-136
-127
-114
-103
-88
-68
-50
-33
-11
-7
-5
4
4
-18
-33
-72
-92
-94
-121
-119
-138
-147
-152
-149
-150
-133
-127
-122
-116
-121
-123
-128
-125
-127
-115
-112
-120
-122
-111
-115
-106
-119
-120
-127
-125
-109
-112
-118
-118
-111
-117
-114
-123
-118
-114
-111
-111
-130
-119
-103
-110
-108
-108
-121
-121
-109
-111
-106
-111
-112
-119
-111
-107
-115
-113
-114
-114
-113
-107
-100
-111
-112
-101
-108
-106
-97
-106
-108
-98
-100
-96
-110
-92
-89
-93
-106
-107
-93
-97
-88
-86
-94
-88
-93
-82
-69
-79
-81
-63
-77
-72
-70
-74
-77
-64
-72
-61
-57
-57
-65
-64
-60
-52
-54
-55
-57
-52
-47
-49
-61
-52
-57
-65
-65
-69
-63
-67
-68
-59
-71
-86
-70
-82
-93
-90
-92
-104
-104
-95
-100
-102
-98
-110
-107
-102
-109
-118
-105
-106
-116
-125
-109
-105
-122
-120
-117
-118
-114
-110
-123
-106
-119
-118
-120
-105
-116
-118
-107
-112
-125
-118
-121
-111
-116
-119
-115
-115
-113
-107
-116
-117
-115
-121
-122
-116
-121
-111
-114
-121
-117
-114
-115
-119
-118
-117
-118
-115
-113
-102
-104
-117
-111
-113
-127
-112
-121
-114
-117
-109
-119
-108
-118
-116
-122
-113
-110
-118
-119
-124
-121
-115
-110
-116
-114
-113
-111
-108
-113
-111
-122
-112
-117
-123
-114
-120
-121
-117
-103
-120
-116
-112
-120
-123
-110
-118
-116
-114
-118
-118
-117
-114
-113
-116
-118
-116
-114
-104
-106
-112
-101
-111
-115
-125
-116
-111
-111
-105
-99
-107
-115
-104
-101
-102
-100
-107
-88
-99
-99
-101
-123
-112
-109
-125
-120
-115
-102
-109
-121
-122
-131
-115
-117
-124
-117
-117
-118
-121
-130
-114
-116
-110
-118
-123
-123
-124
-121
-119
-122
-112
-120
-114
-122
-126
-120
-128
-116
-118
-123
-114
-111
-112
-124
-126
-115
-120
-129
-123
-126
-124
-131
-136
-135
-138
-117
-111
-90
-77
-62
-39
-21
-6
-5
12
7
-15
-36
-53
-74
-95
-112
-123
-149
-156
-152
-144
-138
-125
-137
-145
-127
-128
-113
-113
-112
-124
-122
-122
-122
-121
-120
-115
-124
-122
-123
-109
-111
-120
-114
-111
-113
-112
-106
-108
-109
-112
-104
-109
-116
-111
-112
-117
-116
-111
-114
-124
-107
-113
-101
-109
-105
-105
-106
-110
-118
-112
-107
-99
-108
-106
-105
-109
-106
-105
-98
-102
-101
-97
-99
-103
-95
-96
-104
-99
-104
-100
-97
-104
-82
-92
-89
-87
-96
-80
-72
-79
-76
-73
-75
-80
-74
-77
-69
-67
-69
-68
-65
-57
-62
-58
-61
-60
-56
-52
-47
-45
-49
-44
-49
-48
-50
-46
-46
-52
-64
-47
-53
-63
-68
-68
-65
-68
-69
-85
-91
-75
-81
-74
-87
-85
-105
-100
-100
