0
6
-2
-4
-2
5
3
7
3
0
9
8
-2
-1
2
-3
1
-2
1
10
1
2
3
6
-5
-4
-3
4
0
8
4
7
-2
2
0
3
-2
-2
0
0
3
-7
3
1
1
0
7
-1
3
4
-6
-8
2
2
2
-1
-2
0
3
2
-4
-1
0
5
-3
5
0
-3
2
2
-3
-3
-2
-1
2
0
-4
-6
-2
-2
-6
-6
-1
-2
3
11
-1
-9
-3
-10
-9
1
-7
-3
-7
-1
-2
-2
-4
-11
-1
0
-4
1
-3
-5
2
-5
1
0
-6
-10
1
-4
-5
-3
-1
-7
-8
1
-6
-4
-2
-1
-5
6
-2
-5
-8
-1
-4
-3
-4
-5
-2
2
-2
-3
2
-1
-4
0
-2
-2
-6
-5
-1
-1
8
0
-4
3
10
4
0
5
0
-2
-1
-3
-2
9
4
9
10
8
-1
6
11
10
7
9
7
12
5
-2
1
6
1
-7
0
-7
1
-3
-1
-1
-5
-5
-5
-3
-5
-6
-2
-7
0
-2
-3
-6
-13
-6
-4
-4
-8
-7
-5
-5
-5
-6
4
-1
-10
-10
-5
-15
-10
-9
-8
-8
-2
11
31
51
73
83
100
121
134
139
139
147
132
124
127
107
102
77
38
-2
-39
-62
-58
-36
-32
-20
-10
-6
-2
-6
-9
-10
-9
-10
-5
-3
-4
-15
-5
-2
-2
-6
-13
-10
-7
-1
-8
-8
-7
-6
-8
-3
4
-6
-6
-4
-6
7
-5
-9
-9
-5
-2
-1
-9
-5
8
1
-4
2
-5
-3
0
0
0
1
6
-6
1
2
2
-3
4
13
9
9
16
10
6
7
11
13
10
9
6
12
14
13
20
18
15
25
19
22
24
29
31
24
25
30
35
34
32
30
35
43
43
48
40
44
42
46
51
57
50
54
56
58
57
50
58
57
65
66
74
72
68
67
65
65
70
66
61
55
56
65
60
48
42
42
47
44
37
36
28
32
29
25
20
12
13
29
22
12
4
11
6
9
7
-2
3
4
5
2
0
7
5
6
2
-2
-2
5
8
4
-4
-2
-2
0
-1
-1
3
2
-2
-5
-7
-3
4
0
-3
3
1
0
4
-3
4
4
0
-3
-5
7
6
1
2
-5
4
1
-4
-1
-5
-2
3
1
-2
4
2
1
-3
2
-1
5
1
5
7
-3
-4
2
1
4
4
-2
-6
-3
1
4
6
6
6
-2
5
4
1
-2
5
2
-3
-3
-1
3
-1
-2
-1
4
1
2
1
2
-1
-2
4
8
1
-9
-3
1
2
0
-3
1
1
-1
1
4
2
-2
-2
5
1
-1
-5
3
2
-1
-1
-1
-8
-2
-3
-3
-3
3
3
0
3
0
7
8
-2
-7
-5
4
4
2
-3
0
0
-2
-2
-2
-4
-1
0
0
-4
-1
0
4
2
-8
-1
-2
-1
0
-3
-2
1
0
3
5
-6
-1
-3
-6
-1
0
-3
2
3
-3
-1
4
3
-1
3
-1
6
7
6
8
6
10
8
10
7
5
5
10
4
3
11
4
0
3
0
-6
0
-6
-5
0
-5
-5
-10
-7
-1
-7
-1
-8
-11
-10
-5
-10
-6
-9
-10
-13
-11
-9
-5
-8
-6
-7
-5
-2
-7
-3
-5
-9
-7
-13
-17
-13
-9
0
21
49
68
85
95
113
129
146
159
158
151
139
142
123
114
92
58
21
-19
-44
-47
-36
-19
-8
-3
7
-1
-11
-7
-7
-5
-5
-6
-6
-1
-1
-4
-2
-7
-5
-3
-5
-1
-7
-10
-9
-11
-7
-10
-12
-5
-1
1
3
0
-6
-10
-2
0
2
-2
6
2
-10
-2
1
-2
-2
0
-1
2
-1
0
1
1
2
1
9
8
4
2
9
4
5
8
10
5
8
12
11
15
7
4
9
20
17
17
17
15
19
25
28
22
19
26
21
26
28
23
25
24
41
33
35
35
35
41
40
45
46
48
47
47
52
54
51
52
61
63
63
60
60
62
56
60
60
60
63
65
68
57
52
52
54
57
54
42
48
42
39
36
28
32
29
28
23
19
18
18
11
12
16
11
7
7
8
5
6
-3
-6
1
4
-1
-3
-5
-2
-4
-8
-3
-3
-4
-3
1
-4
-1
-5
-2
-10
-11
-2
-7
-4
-7
-9
-7
-2
-1
-4
-6
-11
-9
-7
-5
0
-8
-5
-6
-4
-8
1
-6
-8
-11
-8
-2
-9
-2
-4
-7
-1
-7
-5
-8
-8
-9
-6
-6
-8
-5
-6
-2
-4
-5
-7
-7
-9
-16
-9
-13
-5
-5
0
-5
-9
-8
-8
-9
-4
-7
-4
-7
-13
-16
-8
-3
-14
-8
-6
0
-1
-6
-7
-8
-6
-4
-8
-4
-10
-12
-10
-2
-13
-9
-6
-10
-12
-16
-8
-4
-10
-9
-10
-13
-13
-9
-13
-17
-11
-3
-2
-3
-8
-13
1
-6
-11
-13
-10
-9
-6
-6
-10
-12
-10
-2
-9
-13
-11
-3
-8
-11
-7
-14
-10
-10
-10
-8
-10
-9
-7
-4
-5
-10
-6
-7
-9
-12
-12
-10
-8
-8
-15
-8
-10
-9
-10
-14
-9
-7
-12
-6
-6
-10
-6
-5
-11
-12
-8
-11
-7
-11
-12
-14
-8
-5
-9
-10
-8
-5
-5
-13
-11
-6
-3
2
-4
-3
-4
-6
-9
-15
-5
-3
-2
7
1
2
-1
13
3
-2
5
-6
-3
-1
3
7
5
-6
-5
-6
-8
-14
-11
-10
-13
-12
-16
-12
-12
-6
-12
-11
-12
-15
-14
-15
-12
-12
-11
-13
-15
-11
-13
-10
-16
-9
-2
-18
-22
-11
-13
-17
-11
-13
-14
-19
-23
-22
-15
-10
-1
26
62
69
87
109
123
146
161
159
149
139
139
127
110
99
78
35
-16
-52
-49
-43
-38
-22
-14
-7
-10
-14
-16
-12
-11
-11
-14
-18
-17
-14
-24
-16
-10
-18
-17
-20
-21
-19
-15
-10
-8
-15
-18
-18
-17
-19
-17
-18
-18
-18
-20
-14
-9
-13
-16
-13
-10
-13
-16
-12
-11
-11
-21
-13
-17
-12
-6
-9
-7
-12
-11
-10
-4
-9
-9
0
0
-6
-15
-11
-6
-4
-2
-1
-6
-10
0
0
-3
0
8
10
5
5
3
2
0
5
10
13
16
18
18
16
16
15
17
19
19
25
31
26
33
28
35
37
39
39
39
43
41
44
48
48
47
49
52
52
49
45
52
55
53
55
45
52
44
42
41
37
44
45
39
24
27
25
20
18
19
11
3
13
14
2
-2
-2
-7
-1
3
-7
-4
-9
-10
-14
-7
-13
-21
-19
-11
-13
-8
-13
-20
-15
-8
-16
-24
-15
-14
-12
-11
-15
-18
-19
-14
-19
-17
-18
-25
-26
-15
-16
-14
-20
-20
-19
-13
-14
-11
-12
-25
-30
-18
-13
-15
-22
-19
-18
-14
-13
-18
-19
-17
-24
-23
-25
-17
-17
-22
-19
-22
-15
-18
-21
-17
-17
-22
-21
-21
-21
-20
-22
-16
-15
-12
-27
-21
-21
-17
-24
-19
-13
-21
-23
-27
-18
-19
-20
-16
-16
-19
-29
-25
-20
-17
-28
-26
-18
-20
-25
-21
-22
-14
-26
-24
-28
-25
-27
-33
-19
-11
-22
-23
-22
-24
-23
-26
-23
-23
-26
-21
-22
-22
-19
-22
-28
-23
-28
-23
-11
-22
-21
-28
-27
-27
-24
-25
-27
-25
-26
-25
-29
-22
-18
-27
-23
-28
-26
-21
-21
-29
-22
-19
-29
-28
-29
-28
-28
-28
-21
-18
-24
-24
-23
-22
-28
-29
-24
-24
-22
-22
-22
-25
-28
-24
-23
-34
-25
-22
-26
-21
-23
-28
-28
-28
-27
-23
-23
-23
-24
-17
-21
-21
-16
-23
-32
-22
-19
-28
-23
-20
-27
-25
-23
-21
-22
-23
-23
-18
-17
-23
-20
-23
-20
-21
-17
-16
-11
-11
-16
-9
-13
-7
-15
-24
-13
-4
-7
-16
-12
-14
-21
-21
-14
-20
-25
-26
-27
-28
-23
-20
-22
-25
-28
-26
-28
-27
-27
-31
-32
-26
-31
-32
-31
-27
-27
-25
-29
-24
-23
-24
-34
-25
-26
-23
-33
-34
-24
-26
-31
-39
-33
-29
-25
-16
1
25
43
57
75
89
114
135
145
139
126
115
125
108
92
66
39
4
-46
-68
-70
-58
-48
-35
-28
-21
-20
-19
-24
-31
-36
-26
-28
-25
-24
-26
-29
-31
-32
-27
-28
-28
-27
-31
-32
-32
-31
-28
-21
-32
-22
-20
-28
-32
-32
-30
-22
-31
-30
-28
-24
-26
-28
-28
-25
-21
-22
-20
-25
-26
-22
-23
-15
-17
-20
-20
-29
-27
-13
-19
-21
-17
-18
-21
-14
-15
-17
-19
-14
-11
-10
-21
-15
-12
-10
-9
-13
-5
-5
-6
-6
-3
0
2
9
10
1
7
5
5
10
11
11
14
21
11
18
22
24
24
26
28
30
33
39
29
31
34
36
37
42
48
41
41
40
44
46
45
38
37
41
46
45
38
29
40
33
30
30
26
21
14
13
15
10
8
4
-3
-1
-4
-3
-5
-10
-5
-9
-17
-17
-11
-21
-19
-18
-22
-13
-19
-23
-15
-21
-20
-24
-25
-25
-19
-19
-27
-29
-26
-25
-23
-21
-31
-24
-22
-27
-23
-16
-14
-24
-23
-25
-30
-20
-23
-29
-21
-22
-29
-23
-21
-31
-19
-21
-21
-27
-27
-26
-31
-32
-20
-31
-25
-25
-30
-21
-25
-29
-24
-29
-23
-31
-31
-27
-27
-23
-29
-26
-29
-23
-27
-27
-30
-25
-27
-26
-29
-25
-29
-32
-33
-29
-31
-26
-26
-28
-24
-23
-30
-31
-28
-28
-27
-27
-27
-29
-32
-27
-34
-32
-34
-34
-36
-26
-30
-26
-30
-33
-26
-24
-34
-28
-27
-31
-27
-33
-33
-31
-29
-38
-27
-29
-32
-34
-36
-30
-31
-22
-19
-33
-35
-24
-35
-35
-34
-29
-40
-26
-34
-38
-33
-30
-32
-29
-29
-34
-38
-31
-26
-34
-31
-27
-32
-31
-33
-31
-26
-28
-28
-35
-32
-30
-35
-34
-26
-28
-35
-31
-30
-30
-32
-30
-30
-21
-25
-27
-27
-26
-22
-25
-24
-29
-21
-21
-20
-23
-26
-28
-16
-15
-22
-27
-32
-28
-21
-27
-23
-26
-33
-30
-28
-26
-26
-35
-39
-32
-34
-35
-33
-34
-34
-33
-35
-36
-28
-36
-38
-38
-31
-34
-34
-38
-38
-35
-32
-32
-39
-36
-32
-42
-31
-30
-33
-39
-39
-39
-23
-13
-1
21
49
58
86
99
105
115
104
102
89
94
83
66
58
28
-7
-51
-96
-105
-84
-70
-62
-45
-41
-27
-37
-36
-37
-34
-35
-39
-38
-34
-29
-37
-35
-37
-38
-38
-37
-36
-32
-32
-35
-36
-35
-33
-24
-35
-38
-40
-36
-29
-28
-37
-31
-28
-28
-32
-32
-34
-40
-35
-31
-24
-27
-30
-30
-31
-30
-28
-30
-31
-28
-25
-23
-19
-23
-24
-25
-23
-21
-23
-27
-18
-18
-26
-21
-24
-21
-18
-21
-15
-9
-6
-8
-9
-13
-13
-19
-19
-16
-1
3
1
-2
4
1
8
-1
4
5
12
10
11
16
16
13
20
18
19
23
26
24
27
30
33
28
30
33
39
36
26
33
33
34
37
32
33
31
39
27
28
29
23
17
6
15
13
3
2
2
3
-1
-9
-5
-9
-9
-13
-13
-23
-15
-15
-26
-22
-20
-21
-24
-29
-23
-20
-21
-24
-26
-30
-33
-33
-24
-21
-26
-35
-31
-33
-24
-29
-22
-26
-21
-25
-34
-39
-27
-27
-27
-31
-29
-23
-27
-31
-24
-30
-30
-31
-27
-28
-27
-24
-24
-27
-34
-30
-28
-24
-25
-28
-28
-32
-28
-25
-23
-19
-28
-25
-30
-25
-25
-25
-26
-31
-29
-34
-33
-31
-32
-22
-27
-24
-26
-34
-28
-32
-23
-28
-32
-30
-24
-21
-29
-36
-34
-31
-33
-30
-29
-29
-29
-34
-32
-28
-27
-31
-33
-31
-26
-39
-29
-32
-29
-28
-32
-30
-26
-25
-25
-32
-32
-37
-36
-32
-32
-35
-33
-28
-28
-35
-22
-26
-31
-35
-26
-27
-33
-29
-31
-36
-33
-29
-29
-29
-25
-19
-22
-34
-23
-15
-21
-19
-23
-22
-31
-21
-22
-25
-28
-26
-31
-28
-36
-31
-30
-27
-29
-44
-31
-31
-36
-34
-25
-30
-28
-29
-32
-33
-29
-40
-26
-24
-31
-28
-32
-30
-29
-28
-27
-29
-27
-33
-34
-29
-27
-32
-37
-35
-31
-22
-9
-12
20
36
46
67
88
102
109
115
110
92
99
113
94
70
50
10
-29
-64
-87
-86
-75
-64
-53
-37
-28
-29
-28
-29
-34
-31
-29
-30
-31
-34
-28
-34
-32
-31
-29
-19
-29
-33
-24
-35
-37
-38
-26
-27
-24
-31
-27
-25
-28
-29
-36
-37
-30
-30
-33
-21
-15
-24
-24
-30
-26
-21
-29
-31
-26
-17
-23
-18
-24
-25
-20
-20
-22
-17
-19
-16
-23
-18
-15
-8
-16
-17
-15
-14
-13
-9
-12
-16
-14
-8
-4
-8
-8
-5
-4
-3
-6
-8
-2
11
13
6
6
11
9
15
14
19
20
12
18
13
24
21
25
27
22
20
25
28
21
23
25
26
31
33
26
21
18
24
18
17
20
20
8
-1
0
-2
-3
-4
-4
-1
-12
-9
-12
-22
-17
-17
-21
-26
-27
-32
-21
-24
-30
-30
-28
-31
-31
-27
-33
-33
-30
-24
-31
-39
-31
-25
-36
-32
-32
-33
-29
-31
-34
-32
-35
-45
-36
-29
-23
-32
-27
-38
-37
-31
-34
-34
-32
-37
-33
-38
-31
-36
-29
-34
-29
-39
-36
-35
-39
-34
-32
-36
-40
-31
-31
-36
-39
-37
-30
-23
-31
-32
-27
-29
-31
-32
-34
-37
-36
-39
-33
-34
-37
-31
-35
-32
-29
-33
-34
-30
-33
-38
-38
-32
-37
-37
-34
-31
-36
-32
-35
-39
-39
-25
-31
-35
-31
-29
-34
-34
-35
-25
-31
-30
-30
-28
-30
-27
-28
-37
-41
-29
-25
-26
-30
-26
-29
-23
-22
-30
-31
-23
-30
-30
-30
-24
-19
-23
-22
-24
-31
-33
-36
-30
-30
-29
-36
-30
-29
-35
-28
-38
-30
-38
-36
-37
-39
-40
-29
-37
-39
-41
-42
-32
-39
-32
-34
-31
-35
-35
-33
-32
-36
-32
-39
-36
-41
-36
-44
-44
-45
-40
-35
-31
-16
3
32
42
47
72
83
103
100
103
97
89
102
89
72
56
29
-18
-55
-83
-89
-70
-59
-55
-38
-44
-29
-28
-31
-35
-29
-27
-34
-41
-34
-36
-36
-40
-39
-31
-38
-32
-32
-33
-41
-36
-34
-32
-27
-34
-35
-32
-32
-31
-26
-35
-38
-35
-32
-30
-34
-31
-28
-32
-30
-29
-29
-27
-31
-25
-33
-30
-33
-30
-29
-25
-27
-27
-26
-29
-21
-21
-24
-24
-26
-24
-16
-24
-17
-24
-19
-19
-22
-22
-19
-18
-19
-13
-11
-7
-7
-11
-15
-17
-7
-5
-4
-5
-2
-4
2
-4
-3
-1
3
6
5
8
16
12
10
17
23
15
13
22
23
20
17
24
18
20
21
21
21
24
25
21
18
18
13
10
11
14
13
9
8
9
9
2
-16
-11
-6
-7
-13
-10
-14
-22
-23
-21
-16
-14
-27
-22
-21
-22
-28
-32
-26
-29
-28
-23
-30
-28
-32
-31
-29
-29
-26
-20
-25
-24
-22
-28
-30
-28
-27
-17
-25
-29
-24
-26
-26
-29
-32
-22
-23
-19
-25
-30
-24
-22
-24
-27
-21
-25
-34
-22
-21
-13
-12
-18
-5
-9
-4
-2
0
-1
4
0
-5
-12
-8
-6
-11
-10
-9
-12
-16
-11
-12
-11
-21
-23
-18
-20
-16
-16
-23
-20
-24
-21
-15
-20
-18
-18
-18
-15
-26
-18
-23
-28
-22
-24
-22
-23
-13
-11
-14
-19
-21
-14
-17
-16
-20
-21
-19
-13
-21
-15
-18
-20
-8
-9
-14
-7
-7
-9
-17
-21
-14
-11
-13
-22
-20
-14
-16
-21
-30
-27
-26
-27
-23
-26
-24
-26
-28
-29
-31
-26
-25
-30
-37
-32
-32
-29
-27
-32
-28
-30
-31
-31
-19
-25
-25
-30
-20
-24
-28
-31
-29
-30
-43
-35
-33
-23
-12
3
27
43
63
80
97
106
108
116
116
109
117
108
87
79
48
6
-35
-71
-73
-64
-47
-34
-25
-25
-26
-30
-29
-24
-18
-26
-37
-30
-27
-30
-33
-28
-26
-31
-34
-34
-36
-32
-27
-25
-32
-35
-29
-28
-28
-24
-20
-36
-34
-29
-30
-30
-32
-23
-23
-28
-26
-28
-24
-27
-27
-28
-23
-25
-19
-26
-28
-29
-24
-22
-20
-24
-29
-24
-17
-21
-19
-25
-28
-17
-21
-25
-18
-20
-15
-17
-15
-18
-19
-21
-12
-7
-7
-8
-10
-14
-8
-2
-4
-10
2
-2
0
4
2
6
2
14
8
9
12
7
5
18
12
8
20
21
22
24
26
29
30
25
22
27
21
19
23
30
32
21
21
14
22
24
16
7
8
9
0
6
8
-1
-2
-11
-11
-9
-14
-15
-15
-11
-11
-15
-20
-24
-28
-26
-21
-29
-22
-25
-21
-25
-21
-29
-28
-30
-30
-30
-29
-30
-40
-37
-27
-29
-30
-33
-33
-37
-35
-34
-35
-24
-27
-30
-30
-29
-32
-31
-29
-29
-31
-26
-23
-32
-34
-29
-33
-31
-40
-32
-30
-29
-33
-35
-24
-34
-35
-31
-30
-32
-32
-35
-33
-33
-33
-32
-35
-33
-37
-33
-35
-33
-34
-36
-36
-39
-37
-34
-37
-30
-29
-32
-40
-40
-40
-45
-37
-33
-40
-36
-37
-33
-36
-32
-33
-37
-46
-35
-35
-38
-36
-36
-35
-36
-37
-36
-37
-35
-41
-30
-36
-37
-36
-43
-32
-36
-41
-28
-35
-38
-35
-38
-39
-35
-39
-38
-38
-33
-34
-31
-32
-40
-39
-32
-33
-40
-34
-31
-32
-33
-31
-36
-30
-32
-39
-35
-36
-30
-33
-39
-35
-33
-30
-27
-29
-34
-35
-28
-30
-39
-23
-19
-29
-23
-27
-26
-23
-22
-30
-32
-25
-25
-33
-31
-30
-35
-40
-38
-36
-40
-39
-41
-46
-39
-40
-42
-44
-49
-50
-47
-37
-42
-41
-39
-38
-46
-39
-40
-41
-46
-39
-39
-45
-45
-42
-42
-34
-37
-45
-43
-49
-47
-42
-41
-35
-15
-6
28
43
54
75
89
102
104
117
105
97
100
82
62
50
21
-18
-55
-87
-86
-70
-58
-43
-34
-26
-32
-31
-37
-44
-46
-44
-40
-41
-38
-44
-40
-37
-42
-44
-45
-32
-39
-45
-43
-40
-45
-47
-38
-45
-45
-40
-29
-31
-36
-37
-36
-35
-47
-42
-43
-33
-43
-35
-37
-36
-36
-40
-34
-33
-31
-39
-39
-35
-38
-36
-30
-34
-30
-33
-27
-28
-31
-29
-27
-22
-21
-37
-35
-28
-22
-31
-23
-29
-30
-23
-25
-25
-22
-27
-20
-19
-17
-9
-4
-7
-13
-20
-17
-7
-3
-5
-7
-5
-2
7
5
6
4
2
7
13
4
6
5
12
18
19
9
10
18
21
9
13
11
17
15
19
13
14
8
6
9
6
1
-10
-5
-2
-3
-4
-13
-14
-20
-21
-23
-24
-26
-28
-38
-33
-35
-37
-36
-34
-33
-41
-42
-45
-50
-46
-48
-49
-43
-46
-46
-46
-47
-47
-47
-51
-47
-42
-38
-51
-49
-49
-48
-48
-57
-53
-51
-47
-45
-47
-49
-44
-49
-45
-48
-55
-49
-46
-43
-50
-51
-45
-48
-46
-47
-52
-49
-39
-50
-57
-48
-49
-56
-51
-57
-54
-58
-53
-52
-50
-49
-49
-50
-50
-59
-52
-56
-48
-52
-50
-56
-53
-53
-51
-52
-55
-54
-56
-55
-57
-59
-51
-54
-64
-63
-50
-51
-53
-49
-48
-50
-54
-59
-53
-54
-57
-57
-58
-62
-59
-55
-55
-57
-57
-52
-58
-56
-57
-57
-58
-57
-57
-58
-55
-49
-50
-62
-65
-59
-56
-54
-55
-51
-61
-64
-56
-53
-56
-57
-63
-56
-55
-55
-57
-57
-54
-60
-58
-56
-67
-62
-54
-61
-64
-59
-59
-59
-57
-56
-55
-63
-57
-62
-67
-60
-55
-58
-58
-56
-53
-64
-63
-57
-55
-61
-67
-63
-58
-59
-55
-55
-59
-58
-56
-66
-58
-58
-63
-65
-60
-57
-63
-56
-66
-59
-55
-62
-65
-67
-68
-57
-55
-62
-61
-56
-56
-63
-58
-60
-57
-67
-64
-61
-55
-54
-61
-60
-60
-65
-61
-59
-62
-65
-64
-54
-64
-65
-64
-63
-56
-63
-64
-63
-59
-61
-69
-70
-57
-57
-63
-60
-61
-58
-58
-55
-51
-59
-64
-58
-53
-58
-60
-56
-52
-53
-65
-66
-58
-55
-49
-51
-56
-56
-50
-56
-55
-50
-51
-50
-51
-47
-51
-52
-49
-45
-51
-57
-55
-61
-56
-54
-64
-57
-66
-59
-62
-60
-65
-61
-62
-66
-66
-69
-64
-73
-71
-73
-68
-50
-57
-61
-73
-67
-66
-62
-63
-65
-59
-53
-64
-66
-63
-67
-68
-69
-71
-63
-74
-67
-72
-69
-44
-22
-1
14
26
48
70
92
101
105
92
75
89
83
62
43
18
-21
-67
-98
-101
-92
-80
-68
-66
-58
-62
-61
-65
-65
-68
-65
-61
-61
-74
-73
-70
-73
-68
-68
-67
-67
-67
-68
-65
-59
-65
-67
-69
-66
-73
-73
-65
-59
-65
-64
-64
-64
-65
-58
-63
-64
-66
-62
-56
-54
-57
-60
-63
-60
-55
-61
-63
-63
-60
-62
-52
-53
-56
-56
-52
-57
-58
-52
-50
-49
-45
-45
-50
-44
-50
-55
-53
-46
-45
-43
-53
-46
-50
-41
-37
-41
-43
-38
-35
-34
-31
-30
-35
-30
-30
-26
-26
-24
-25
-20
-14
-24
-23
-11
-9
-13
-13
-3
-3
-4
-10
-9
-8
-1
0
0
0
1
5
7
6
1
2
6
7
6
2
0
4
2
-2
0
-4
-11
-14
-16
-17
-25
-24
-29
-26
-26
-34
-28
-35
-39
-41
-44
-41
-45
-48
-45
-48
-53
-54
-54
-51
-50
-52
-54
-49
-53
-53
-58
-53
-53
-51
-52
-60
-54
-59
-56
-54
-54
-53
-59
-51
-59
-52
-60
-60
-56
-56
-60
-53
-59
-62
-55
-52
-55
-57
-58
-64
-54
-55
-61
-56
-52
-59
-57
-58
-56
-55
-59
-59
-59
-60
-63
-55
-51
-64
-56
-58
-57
-56
-55
-60
-57
-56
-50
-59
-64
-64
-56
-63
-60
-59
-59
-60
-61
-59
-65
-51
-53
-64
-59
-60
-62
-61
-55
-60
-70
-53
-59
-60
-60
-57
-60
-50
-57
-60
-64
-66
-66
-65
-60
-59
-57
-60
-62
-59
-60
-66
-62
-61
-59
-57
-63
-63
-62
-66
-61
-66
-64
-58
-58
-60
-59
-62
-62
-61
-62
-64
-59
-65
-62
-62
-67
-62
-58
-62
-58
-59
-62
-62
-63
-67
-62
-62
-64
-59
-60
-69
-63
-60
-68
-64
-62
-65
-62
-63
-59
-58
-61
-65
-61
-71
-64
-68
-64
-63
-67
-67
-62
-62
-58
-63
-60
-51
-56
-63
-66
-69
-64
-64
-68
-68
-68
-63
-60
-67
-68
-69
-59
-61
-64
-60
-66
-60
-59
-69
-68
-68
-69
-61
-63
-64
-63
-64
-67
-68
-65
-63
-62
-65
-71
-68
-63
-62
-64
-68
-72
-64
-68
-64
-66
-64
-60
-69
-68
-58
-67
-75
-69
-69
-63
-60
-61
-67
-64
-64
-62
-69
-73
-69
-75
-67
-63
-65
-66
-70
-65
-60
-56
-63
-66
-71
-61
-65
-59
-59
-62
-65
-67
-58
-63
-64
-59
-56
-56
-54
-54
-55
-56
-51
-56
-55
-55
-61
-62
-62
-50
-59
-62
-60
-66
-69
-62
-67
-68
-61
-67
-76
-73
-68
-72
-73
-72
-72
-77
-73
-72
-74
-71
-71
-76
-78
-70
-67
-71
-71
-69
-71
-74
-72
-61
-69
-67
-78
-76
-72
-83
-87
-77
-77
-70
-64
-42
-26
8
18
38
60
72
91
98
94
78
77
75
61
44
25
-8
-49
-85
-113
-106
-98
-94
-85
-74
-69
-65
-71
-76
-74
-73
-76
-77
-80
-78
-84
-80
-78
-75
-78
-77
-79
-85
-78
-74
-76
-80
-70
-72
-79
-75
-74
-73
-78
-81
-78
-77
-77
-76
-80
-75
-75
-68
-72
-73
-73
-73
-76
-73
-69
-71
-64
-77
-75
-73
-72
-68
-71
-73
-70
-61
-70
-71
-71
-69
-60
-64
-70
-70
-62
-66
-58
-60
-61
-66
-65
-56
-53
-58
-61
-51
-53
-53
-53
-52
-53
-52
-56
-51
-52
-45
-46
-44
-46
-40
-41
-38
-31
-34
-37
-25
-26
-27
-28
-34
-24
-16
-27
-21
-22
-10
-17
-18
-16
-19
-14
-13
-21
-18
-18
-14
-21
-23
-19
-23
-24
-28
-21
-22
-26
-38
-30
-36
-46
-52
-50
-47
-51
-53
-54
-59
-73
-64
-62
-72
-75
-69
-69
-69
-70
-75
-73
-77
-75
-78
-76
-83
-86
-82
-82
-81
-77
-84
-81
-87
-82
-80
-78
-83
-84
-81
-85
-76
-81
-90
-88
-84
-79
-78
-82
-83
-82
-80
-80
-87
-88
-90
-79
-81
-82
-81
-85
-84
-85
-83
-87
-89
-89
-89
-88
-84
-81
-91
-85
-85
-93
-85
-90
-88
-90
-87
-91
-91
-89
-93
-86
-85
-83
-88
-89
-90
-92
-90
-90
-93
-91
-85
-89
-88
-88
-90
-97
-93
-89
-94
-91
-94
-92
-90
-99
-96
-89
-95
-98
-104
-100
-100
-98
-95
-89
-89
-89
-95
-95
-93
-98
-94
-94
-96
-97
-101
-96
-97
-103
-97
-100
-99
-102
-86
-96
-106
-101
-93
-96
-99
-99
-97
-97
-98
-98
-102
-100
-104
-105
-105
-101
-100
-94
-98
-99
-102
-99
-97
-102
-98
-100
-104
-104
-100
-97
-107
-102
-104
-97
-107
-103
-99
-105
-106
-101
-101
-105
-108
-105
-109
-107
-103
-101
-94
-104
-106
-103
-103
-104
-107
-109
-98
-102
-103
-105
-105
-103
-108
-109
-108
-105
-101
-96
-111
-114
-108
-107
-107
-107
-105
-109
-105
-106
-106
-107
-111
-107
-100
-105
-112
-105
-109
-108
-118
-109
-106
-108
-110
-108
-106
-108
-109
-108
-111
-108
-105
-104
-114
-108
-107
-104
-93
-104
-113
-110
-104
-107
-104
-103
-102
-105
-114
-116
-106
-104
-103
-104
-101
-103
-103
-98
-104
-100
-98
-94
-102
-102
-102
-101
-100
-96
-102
-105
-105
-112
-108
-106
-113
-112
-120
-118
-116
-109
-116
-114
-109
-111
-125
-113
-114
-118
-115
-112
-112
-110
-117
-116
-115
-116
-114
-110
-123
-121
-116
-114
-114
-103
-118
-122
-118
-115
-119
-114
-105
-96
-83
-60
-44
-19
-6
21
42
47
40
40
25
33
27
3
-15
-33
-66
-118
-159
-172
-160
-143
-141
-127
-118
-110
-111
-115
-112
-118
-122
-118
-118
-122
-122
-125
-121
-116
-116
-123
-118
-118
-114
-116
-116
-114
-121
-114
-113
-116
-125
-122
-122
-125
-119
-116
-119
-118
-115
-116
-125
-112
-111
-110
-113
-123
-116
-118
-113
-117
-118
-109
-108
-115
-117
-111
-113
-112
-111
-114
-110
-112
-116
-112
-103
-106
-105
-108
-112
-110
-103
-106
-98
-101
-100
-104
-108
-99
-100
-100
-96
-95
-99
-95
-89
-96
-98
-94
-89
-91
-86
-83
-86
-84
-74
-76
-75
-77
-72
-73
-74
-74
-75
-70
-55
-59
-67
-61
-62
-63
-59
-61
-60
-53
-55
-51
-59
-58
-60
-52
-55
-61
-61
-59
-63
-67
-69
-64
-73
-74
-78
-81
-86
-88
-91
-89
-93
-97
-103
-104
-96
-108
-109
-105
-110
-106
-115
-116
-120
-120
-114
-121
-126
-121
-121
-119
-114
-116
-127
-126
-122
-124
-120
-128
-127
-127
-127
-124
-126
-124
-125
-127
-128
-121
-127
-127
-124
-120
-122
-129
-122
-128
-127
-132
-126
-122
-122
-132
-134
-136
-126
-126
-133
-130
-128
-127
-122
-125
-128
-134
-130
-129
-129
-130
-126
-126
-124
-126
-134
-131
-132
-122
-126
-131
-123
-126
-138
-134
-134
-133
-130
-132
-133
-133
-127
-128
-122
-131
-135
-127
-131
-130
-134
-133
-136
-129
-132
-132
-130
-133
-130
-137
-142
-135
-129
-123
-135
-134
-135
-132
-136
-134
-126
-134
-135
-133
-134
-139
-140
-138
-135
-137
-143
-140
-127
-132
-135
-137
-137
-132
-132
-133
-129
-134
-135
-139
-138
-139
-133
-134
-141
-141
-141
-132
-135
-134
-130
-131
-133
-134
-139
-144
-144
-133
-134
-134
-136
-134
-134
-136
-140
-133
-136
-133
-135
-141
-137
-132
-133
-127
-132
-131
-137
-130
-126
-129
-130
-129
-127
-129
-122
-133
-126
-117
-128
-135
-137
-130
-128
-129
-131
-129
-139
-138
-137
-139
-141
-139
-138
-140
-145
-142
-135
-135
-144
-146
-146
-143
-138
-140
-139
-136
-135
-139
-142
-139
-137
-142
-144
-137
-137
-141
-141
-140
-145
-144
-146
-143
-140
-133
-115
-105
-82
-68
-52
-27
-14
1
21
7
4
-8
-9
-14
-29
-48
-74
-90
-131
-180
-206
-194
-182
-168
-154
-146
-139
-135
-136
-131
-141
-141
-142
-136
-133
-137
-136
-136
-141
-138
-128
-134
-136
-137
-140
-136
-139
-142
-139
-133
-133
-141
-136
-132
-135
-131
-132
-140
-135
-137
-139
-132
-128
-133
-132
-127
-139
-134
-125
-130
-128
-117
-127
-133
-127
-133
-126
-125
-123
-122
-123
-134
-121
-124
-123
-120
-126
-119
-119
-125
-122
-113
-115
-113
-118
-117
-114
-119
-111
-113
-112
-103
-106
-112
-108
-105
-99
-97
-101
-102
-99
-92
-95
-85
-91
-94
-85
-78
-85
-81
-79
-78
-80
-84
-77
-71
-69
-65
-71
-69
-67
-63
-61
-71
-65
-59
-66
-63
-65
-61
-66
-63
-63
-66
-69
-73
-80
-76
-78
-83
-84
-87
-84
-92
-94
-104
-104
-105
-112
-104
-108
-112
-117
-114
-114
-116
-120
-123
-122
-117
-120
-127
-121
-125
-121
-126
-132
-132
-127
-125
-121
-125
-129
-129
-125
-129
-120
-124
-130
-122
-129
-137
-124
-123
-129
-131
-119
-118
-123
-122
-123
-123
-123
-127
-127
-125
-128
-131
-129
-122
-123
-129
-122
-123
-123
-121
-123
-126
-125
-125
-120
-124
-129
-129
-119
-124
-126
-121
-116
-122
-119
-124
-125
-121
-121
-127
-126
-128
-121
-124
-117
-123
-124
-119
-117
-112
-123
-132
-127
-121
-120
-120
-119
-126
-122
-123
-119
-131
-125
-127
-125
-117
-114
-127
-121
-125
-124
-127
-122
-121
-121
-118
-117
-118
-123
-122
-123
-119
-123
-118
-118
-125
-118
-124
-121
-122
-118
-112
-117
-124
-113
-119
-122
-122
-121
-121
-112
-110
-106
-110
-114
-105
-110
-110
-105
-104
-110
-113
-113
-110
-118
-112
-111
-106
-116
-117
-117
-122
-116
-122
-123
-122
-118
-121
-119
-117
-119
-135
-124
-116
-123
-126
-116
-114
-113
-119
-122
-118
-122
-120
-117
-124
-119
-121
-112
-120
-123
-121
-111
-126
-126
-121
-116
-115
-109
-92
-80
-61
-54
-37
-5
22
41
41
33
37
19
29
18
5
-5
-37
-76
-107
-151
-169
-163
-153
-138
-121
-126
-110
-110
-112
-111
-115
-113
-116
-112
-111
-114
-123
-110
-107
-112
-117
-111
-112
-108
-106
-112
-112
-111
-102
-106
-110
-120
-117
-117
-113
-116
-116
-112
-105
-103
-105
-106
-107
-110
-104
-109
-107
-110
-103
-100
-103
-112
-107
-101
-102
-100
-99
-103
-106
-99
-104
-102
-103
-93
-89
-96
-96
-92
-94
-103
-98
-91
-90
-88
-88
-88
-80
-83
-89
-95
-88
-82
-79
-81
-81
-80
-73
-73
-73
-74
-66
-69
-68
-62
-58
-63
-56
-61
-58
-58
-57
-54
-49
-50
-43
-58
-44
-41
-44
-45
-42
-35
-41
-42
-46
-43
-41
-30
-35
-44
-47
-47
-53
-45
-49
-48
-46
-50
-54
-64
-70
-74
-63
-72
-74
-78
-80
-79
-82
-81
-78
-80
-86
-87
-81
-89
-92
-89
-94
-98
-93
-93
-96
-91
-91
-94
-94
-94
-102
-96
-96
-101
-90
-96
-93
-92
-96
-96
-87
-92
-97
-96
-93
-95
-96
-92
-97
-91
-101
-91
-88
-90
-92
-85
-94
-92
-86
-89
-91
-94
-98
-100
-95
-87
-86
-82
-89
-94
-96
-94
-92
-91
-93
-92
-89
-90
-94
-96
-94
-96
-94
-90
-85
-89
-88
-88
-89
-90
-91
-92
-92
-100
-97
-98
-93
-101
-96
-97
-96
-90
-88
-90
-99
-97
-98
-94
-96
-93
-97
-91
-91
-93
-97
-86
-84
-91
-79
-91
-89
-88
-88
-91
-95
-93
-91
-90
-88
-77
-78
-82
-85
-84
-82
-82
-83
-78
-79
-89
-84
-77
-83
-82
-90
-90
-88
-89
-87
-95
-98
-92
-92
-94
-97
-96
-90
-90
-90
-91
-93
-98
-91
-80
-103
-103
-92
-86
-92
-99
-90
-92
-91
-90
-92
-89
-95
-88
-93
-85
-88
-97
-104
-102
-94
-88
-84
-61
-44
-21
-8
13
27
47
61
60
68
60
52
59
36
18
-5
-33
-73
-121
-138
-137
-118
-102
-96
-89
-84
-90
-78
-91
-85
-82
-81
-88
-88
-92
-89
-90
-94
-84
-90
-79
-79
-91
-90
-87
-87
-84
-82
-87
-93
-84
-89
-93
-81
-81
-75
-81
-87
-83
-75
-76
-73
-80
-78
-79
-88
-89
-81
-82
-88
-74
-74
-77
-77
-74
-70
-73
-69
-78
-74
-79
-76
-72
-73
-75
-68
-72
-76
-69
-67
-61
-62
-61
-62
-57
-58
-65
-59
-55
-56
-58
-58
-58
-51
-48
-51
-50
-49
-45
-45
-46
-44
-41
-41
-38
-39
-36
-35
-29
-33
-30
-23
-21
-23
-22
-20
-22
-23
-19
-24
-12
-11
-14
-16
-20
-19
-16
-19
-16
-12
-12
-26
-33
-29
-29
-27
-31
-42
-42
-42
-39
-40
-43
-43
-49
-59
-60
-55
-54
-60
-61
-68
-64
-54
-61
-64
-64
-59
-64
-69
-70
-74
-76
-74
-73
-60
-60
-68
-69
-70
-65
-64
-69
-71
-64
-68
-65
-65
-71
-61
-72
-72
-66
-70
-67
-67
-64
-75
-71
-67
-64
-67
-63
-67
-65
-66
-70
-69
-72
-68
-69
-63
-60
-71
-65
-76
-65
-67
-71
-66
-66
-66
-70
-64
-65
-67
-63
-69
-70
-67
-73
-72
-70
-70
-77
-77
-61
-71
-73
-66
-64
-73
-63
-67
-69
-73
-70
-61
-68
-67
-69
-66
-59
-64
-60
-61
-64
-64
-59
-61
-61
-66
-59
-58
-59
-62
-65
-59
-60
-52
-53
-51
-50
-49
-61
-61
-50
-54
-63
-65
-63
-62
-60
-64
-67
-68
-65
-60
-63
-68
-74
-68
-56
-69
-70
-67
-65
-64
-68
-68
-66
-62
-50
-62
-75
-67
-68
-68
-69
-67
-68
-70
-66
-66
-63
-70
-72
-70
-72
-73
-66
-62
-51
-31
-8
9
24
41
62
78
89
93
94
86
91
82
67
48
22
-13
-57
-103
-108
-105
-91
-72
-65
-60
-52
-54
-57
-63
-62
-63
-58
-62
-65
-59
-58
-56
-60
-61
-63
-63
-59
-59
-58
-59
-55
-60
-66
-72
-58
-65
-53
-58
-54
-55
-59
-56
-59
-55
-49
-63
-58
-52
-53
-55
-53
-54
-53
-54
-53
-46
-52
-46
-47
-49
-59
-53
-52
-45
-43
-47
-46
-42
-45
-53
-47
-43
-45
-39
-40
-37
-39
-39
-43
-44
-29
-30
-33
-35
-27
-29
-27
-30
-24
-29
-23
-26
-26
-23
-17
-17
-15
-10
-10
-13
-13
-10
-8
-5
-4
-6
5
-1
0
11
4
-1
5
8
2
4
4
3
7
4
15
7
2
5
1
-2
-3
2
-9
-11
-13
-9
-10
-10
-17
-15
-14
-22
-23
-25
-29
-32
-30
-36
-38
-34
-32
-27
-31
-44
-48
-42
-40
-36
-41
-47
-47
-42
-39
-39
-42
-50
-37
-38
-44
-46
-37
-43
-43
-45
-38
-36
-48
-37
-42
-42
-33
-37
-40
-40
-41
-42
-43
-45
-39
-38
-44
-41
-40
-37
-40
-40
-43
-40
-39
-44
-41
-41
-35
-39
-39
-34
-47
-46
-42
-49
-38
-39
-38
-42
-47
-43
-46
-34
-40
-43
-42
-41
-38
-42
-40
-40
-43
-46
-43
-37
-40
-41
-37
-41
-42
-39
-38
-48
-41
-42
-43
-39
-38
-41
-45
-38
-40
-39
-45
-37
-42
-44
-44
-40
-38
-41
-41
-37
-31
-35
-35
-34
-35
-34
-44
-37
-36
-33
-37
-37
-32
-26
-31
-22
-26
-30
-29
-31
-21
-30
-19
-26
-26
-35
-30
-32
-33
-39
-36
-44
-44
-42
-33
-40
-42
-34
-40
-43
-36
-34
-37
-42
-41
-33
-41
-47
-36
-42
-41
-38
-35
-42
-44
-40
-33
-39
-44
-43
-43
-37
-42
-44
-43
-36
-44
-39
-35
-23
-16
-1
23
39
55
78
95
109
112
117
116
112
107
90
77
55
24
-11
-53
-82
-83
-71
-54
-42
-40
-32
-36
-34
-32
-36
-35
-36
-38
-38
-36
-40
-40
-43
-36
-37
-38
-32
-31
-34
-37
-31
-38
-42
-36
-29
-40
-42
-38
-40
-37
-32
-35
-33
-31
-35
-34
-32
-31
-34
-35
-37
-34
-32
-23
-33
-30
-32
-24
-25
-26
-24
-24
-21
-26
-30
-22
-22
-25
-30
-28
-25
-25
-20
-16
-21
-14
-20
-19
-23
-20
-13
-18
-11
-12
-13
-13
-15
-6
-7
-1
-2
-6
-1
2
0
-6
11
7
14
14
10
9
4
9
11
18
20
16
14
27
30
28
24
24
22
25
26
33
23
28
26
28
29
29
28
27
23
17
21
25
14
15
10
5
1
-1
-2
6
1
0
-13
-10
-12
-13
-14
-10
-11
-15
-20
-21
-24
-22
-15
-19
-26
-23
-22
-19
-18
-29
-21
-24
-26
-27
-22
-19
-19
-23
-24
-25
-30
-29
-32
-14
-17
-24
-28
-30
-26
-19
-18
-24
-31
-21
-20
-26
-20
-14
-25
-31
-25
-27
-23
-23
-19
-23
-27
-28
-18
-23
-20
-25
-26
-25
-24
-24
-20
-19
-31
-28
-27
-28
-24
-25
-22
-29
-25
-22
-26
-27
-21
-26
-31
-28
-26
-26
-27
-27
-26
-28
-30
-28
-28
-24
-18
-17
-27
-19
-23
-28
-22
-27
-27
-29
-25
-23
-25
-24
-27
-22
-21
-34
-28
-30
-24
-27
-27
-23
-26
-27
-30
-20
-25
-29
-29
-25
-21
-25
-23
-26
-26
-24
-30
-28
-22
-21
-28
-38
-28
-24
-24
-19
-24
-27
-26
-30
-30
-23
-16
-26
-26
-26
-22
-28
-23
-28
-28
-28
-23
-24
-18
-25
-22
-27
-23
-22
-28
-24
-26
-22
-18
-18
-21
-21
-17
-13
-19
-14
-11
-13
-24
-15
-18
-18
-13
-11
-18
-11
-13
-20
-19
-22
-20
-17
-20
-14
-24
-24
-23
-30
-29
-24
-27
-22
-25
-25
-24
-28
-27
-23
-26
-21
-25
-21
-21
-23
-25
-32
-28
-26
-30
-25
-25
-24
-24
-28
-22
-21
-20
-24
-29
-35
-35
-34
-26
-1
17
30
55
73
93
107
118
130
137
129
119
133
113
96
78
46
14
-26
-63
-69
-55
-41
-37
-29
-20
-18
-21
-23
-23
-23
-22
-20
-22
-29
-25
-26
-22
-24
-25
-27
-21
-24
-23
-26
-26
-22
-24
-22
-29
-24
-22
-21
-26
-22
-22
-21
-26
-16
-16
-16
-19
-22
-33
-26
-22
-18
-13
-14
-20
-16
-13
-16
-10
-17
-21
-13
-14
-12
-13
-18
-12
-9
-12
-10
-11
-11
-8
-10
-8
-5
-3
-6
-5
-9
-2
-9
-3
1
-2
9
8
-1
7
1
7
6
8
12
13
9
10
17
20
11
19
28
25
24
30
30
30
31
36
29
26
32
39
42
46
44
44
39
37
47
45
41
42
45
47
46
42
34
33
40
36
38
28
23
26
22
21
13
11
11
4
10
3
6
5
3
1
0
-3
-6
-2
-9
-11
-7
-8
-9
-12
-8
-14
-17
-12
-13
-8
-8
-18
-16
-14
-12
-18
-17
-12
-14
-12
-12
-11
-14
-10
-10
-15
-16
-17
-12
-17
-13
-15
-14
-13
-10
-10
-8
-13
-14
-17
-17
-12
-13
-12
-14
-16
-8
-17
-14
-18
-18
-15
-14
-12
-14
-10
-15
-10
-16
-14
-14
-10
-13
-16
-16
-11
-8
-21
-12
-16
-17
-15
-9
-13
-11
-16
-17
-16
-11
-19
-16
-9
-14
-14
-17
-12
-16
-16
-19
-16
-14
-15
-14
-16
-14
-19
-18
-24
-18
-17
-16
-15
-12
-12
-20
-21
-14
-13
-10
-10
-15
-19
-19
-14
-7
-11
-16
-19
-23
-20
-17
-15
-15
-13
-20
-15
-20
-23
-14
-12
-18
-20
-16
-14
-19
-27
-14
-10
-13
-20
-18
-15
-18
-22
-21
-22
-18
-16
-11
-12
-18
-14
-20
-25
-16
-16
-20
-12
-14
-17
-21
-14
-15
-20
-18
-18
-15
-15
-19
-14
-29
-13
-6
-3
-16
-17
-17
-20
-16
-13
-20
-14
-10
-9
-13
-18
-20
-16
-22
-13
-11
-12
-13
-12
-19
-19
-15
-17
-16
-16
-22
-16
-11
-11
-15
-14
-13
-12
-22
-19
-11
-15
-21
-21
-16
-13
-18
-12
-12
-15
-16
-12
-12
-14
-8
-10
-14
-12
-7
-13
-12
-13
-4
-5
-14
-10
-11
-22
-14
-6
-5
-10
-11
-4
7
0
-8
-6
-4
2
-13
-6
-1
-2
-6
-5
-7
-6
-7
-9
-18
-14
-12
-9
-15
-9
-13
-15
-15
-15
-11
-2
-17
-29
-26
-17
-23
-9
-8
-21
-16
-13
-15
-20
-17
-17
-23
-15
-14
-14
-15
-16
-14
-12
-17
-14
-26
-26
-24
-28
-12
0
23
52
59
71
99
123
130
154
148
139
133
136
130
109
91
66
30
-11
-43
-53
-55
-39
-27
-19
-17
-10
-16
-18
-20
-16
-13
-17
-21
-13
-21
-12
-18
-16
-19
-22
-23
-24
-12
-19
-21
-20
-18
-19
-15
-15
-11
-14
-18
-18
-14
-15
-8
-15
-14
-18
-9
-10
-13
-9
-13
-7
-13
-10
-12
-17
-12
-14
-13
-11
-12
-6
-3
-9
-2
-2
0
-9
-4
-10
-6
-8
-1
-2
1
2
-3
0
2
8
0
8
1
1
6
10
12
11
15
12
9
21
16
13
19
19
19
27
22
20
23
27
29
34
32
37
38
29
43
37
35
48
48
49
48
47
47
50
48
44
52
61
52
51
57
49
49
49
48
49
41
45
45
48
44
37
39
35
26
28
22
20
27
16
11
11
12
11
11
4
4
9
-1
5
3
1
-5
-4
-4
-3
-6
-6
-6
-10
-8
-6
-6
-12
-8
-5
-8
-12
-10
-5
-5
-7
-12
-10
-4
-11
-8
-14
-13
-12
-10
-5
-12
-14
-11
-11
-8
-6
-6
-9
-12
-13
-9
-12
-15
-14
-10
-6
-8
-11
-10
-5
-6
-9
-11
-12
-12
-8
-14
-4
-7
-11
-13
-11
-12
-17
-13
-12
-13
-14
-12
-15
-10
-10
-11
-10
-11
-12
-14
-13
-15
-14
-14
-15
-12
-8
-14
-16
-9
-10
-15
-15
-10
-15
-15
-14
-15
-12
-16
-13
-8
-19
-17
-18
-16
-12
-10
-9
-13
-14
-16
-14
-16
-4
-19
-16
-12
-16
-14
-18
-13
-12
-17
-15
-8
-11
-12
-12
-14
-16
-14
-8
-11
-12
-16
-15
-11
-12
-16
-13
-13
-10
-15
-16
-15
-24
-19
-17
-14
-16
-15
-10
-11
-11
-16
-11
-13
-11
-16
-10
-9
-13
-11
-13
-11
-14
-12
-8
-15
-15
-12
-17
-15
-12
-9
-10
-12
-16
-14
-13
-12
-14
-12
-11
-9
-16
-10
-7
-9
-17
-12
-13
-7
-16
-13
-13
-10
-12
-9
-7
-7
-13
-14
-11
-12
-10
-13
-16
-13
-14
-13
-12
-16
-14
-14
-11
-9
-8
-11
-12
-8
-13
-12
-6
-10
-9
-8
-13
-13
-9
-11
-12
-10
-9
-12
-10
-12
-19
-9
-9
-5
-10
-17
-13
-14
-7
-2
-7
-7
-4
-4
-11
-8
-7
-5
-7
-17
-10
-6
-10
-4
-1
2
-4
-1
-3
5
-4
-8
5
6
8
3
-1
-1
1
1
-5
-1
-3
-6
0
-8
-10
-5
-11
-12
-17
-13
-11
-13
-12
-13
-16
-19
-11
-11
-12
-10
-15
-7
-13
-18
-12
-14
-12
-11
-12
-4
-8
-14
-17
-11
-13
-16
-16
-20
-17
-11
-13
-6
10
42
59
71
90
111
129
149
156
159
139
140
142
124
110
89
54
16
-27
-57
-53
-38
-29
-22
-15
-14
-5
-5
-10
-14
-10
-18
-14
-12
-13
-10
-20
-13
-15
-15
-15
-11
-7
-14
-14
-13
-18
-17
-4
-7
-11
-10
-15
-12
-6
-16
-8
-11
-14
-14
-12
-13
-8
-5
-6
-7
-8
-7
-6
-6
-3
-9
-9
-3
-5
-3
-7
-6
-11
-4
-1
0
2
0
0
7
8
4
9
4
-6
6
10
8
3
2
3
7
15
14
17
17
12
14
16
28
24
22
26
29
25
31
34
27
29
34
37
38
38
44
43
43
45
49
47
55
64
50
51
45
54
55
56
58
57
60
58
60
59
57
61
62
55
60
56
58
59
56
49
48
48
38
39
37
40
42
33
25
27
28
23
20
18
14
11
6
14
6
5
5
2
6
9
2
4
0
-8
-3
8
4
0
4
-1
3
7
6
11
4
-2
7
6
1
6
0
9
10
-3
3
0
-3
4
-1
5
3
6
4
7
1
5
4
8
5
5
7
5
7
2
4
1
5
2
5
13
9
5
9
5
2
11
6
8
7
2
4
1
2
8
1
3
3
6
4
5
7
10
11
8
3
4
4
5
6
5
10
6
4
6
1
5
4
-2
2
0
10
1
5
10
3
4
4
3
3
1
3
3
6
1
6
1
-3
5
5
2
3
6
6
6
-1
-3
7
4
9
15
3
-1
3
8
-1
-3
1
3
4
-7
-1
3
7
2
1
5
4
1
1
1
-2
2
1
2
1
4
0
2
4
6
2
8
4
2
9
5
0
3
5
-3
0
-2
5
8
-3
3
9
6
3
2
1
2
2
2
2
7
6
-3
6
3
6
8
4
3
12
0
3
-3
-2
4
6
7
6
10
11
-1
-1
-4
3
6
3
-1
4
7
2
1
3
5
10
5
0
3
6
4
1
-4
6
7
9
5
8
4
8
5
5
9
10
12
5
9
3
6
9
5
8
13
5
-1
3
16
7
12
14
14
12
14
16
16
17
18
15
19
19
20
15
19
16
18
22
15
8
1
7
6
0
2
-1
-3
3
0
9
4
4
-3
0
4
2
-3
1
-2
1
6
4
4
1
8
3
-1
4
2
6
7
-2
0
2
-4
-7
-8
1
2
17
39
58
80
90
106
134
153
168
160
170
160
160
154
123
120
88
56
16
-29
-45
-41
-19
-15
-6
-2
11
6
3
0
6
3
-4
4
5
-5
0
1
-1
-3
-3
-1
2
2
-1
-2
-2
1
9
1
-2
4
3
0
-2
-1
7
1
4
1
9
6
5
8
1
6
6
7
10
6
9
8
11
13
13
1
9
11
0
9
18
15
19
14
9
14
14
12
14
13
20
21
17
22
16
19
21
24
25
30
23
29
26
29
30
27
34
35
37
44
45
45
40
50
50
46
54
55
55
49
60
58
54
54
60
67
65
64
69
71
72
74
72
72
67
75
80
75
71
79
79
78
77
73
73
74
75
69
63
61
58
59
57
53
47
43
45
45
36
39
38
37
28
28
26
23
20
16
29
24
21
16
16
19
13
20
20
14
13
14
11
15
10
14
14
9
13
16
15
14
14
8
10
11
8
8
14
10
8
15
17
13
9
13
7
12
16
5
15
18
12
9
8
15
18
13
14
15
8
8
7
13
14
9
7
6
12
6
9
15
17
10
6
5
8
7
11
15
10
10
9
13
8
7
16
16
6
13
12
17
9
13
11
8
6
6
7
11
4
3
15
14
7
5
10
6
7
11
14
9
10
6
4
12
9
13
6
10
14
10
6
3
3
5
12
5
-1
3
6
6
8
8
12
15
11
-3
6
7
10
11
2
10
8
9
9
11
8
1
2
10
5
7
6
6
3
3
10
15
17
9
2
5
13
9
8
6
9
9
1
7
5
7
8
8
11
-1
2
9
5
10
3
8
8
-1
-2
12
6
7
5
10
8
2
7
18
12
7
8
7
6
5
13
14
11
11
5
14
5
5
10
15
4
6
8
5
16
11
16
13
14
18
11
20
20
17
19
16
15
19
22
18
20
14
13
14
17
11
11
8
9
13
4
8
-1
11
9
5
8
1
7
3
3
2
3
-3
6
8
8
4
8
9
2
0
2
2
8
5
7
3
5
4
1
2
3
-1
5
17
33
59
73
85
105
122
144
156
159
152
143
130
149
127
97
86
55
24
-19
-56
-62
-43
-37
-17
-2
0
7
4
9
11
5
5
8
1
-6
4
3
6
1
1
0
10
12
3
1
6
1
4
2
1
3
1
6
5
6
3
2
4
13
7
8
2
2
7
7
9
9
7
7
9
5
8
11
8
3
21
8
17
18
12
14
11
12
15
16
11
9
12
19
20
25
17
16
19
18
19
22
27
31
24
23
33
33
29
35
31
29
41
45
38
36
47
38
42
46
46
44
42
56
45
53
61
64
61
61
64
67
68
70
74
70
68
72
66
67
61
66
71
77
67
72
63
67
73
67
59
57
59
58
47
46
52
44
43
36
32
30
32
28
21
20
13
19
18
23
7
11
13
12
8
4
9
9
0
-2
12
2
5
7
0
1
-5
-2
4
-2
-6
0
9
0
2
3
3
0
-2
-4
-5
1
2
-3
0
-3
-1
-9
0
8
-1
-4
1
6
0
-3
-4
-2
-4
-2
2
-1
-2
3
-2
-2
4
1
-5
1
3
-4
-4
3
4
1
-8
-4
-5
-6
-7
-6
0
0
-2
-3
1
-6
-9
-4
4
-3
2
0
-6
-9
-7
-1
-1
-8
-2
1
-2
-5
1
-5
-5
-6
-13
-11
-3
5
-3
-6
1
-4
-2
-6
-5
-9
-7
-4
-3
-6
-10
2
2
-7
-7
-3
-13
-5
-5
-6
-9
-2
-9
-10
-10
-3
-5
-7
0
-2
-8
-4
-8
-4
-4
0
-3
-17
-15
-3
-1
-2
-5
-1
-11
0
6
5
9
5
4
5
0
2
-6
-7
-3
7
6
1
0
5
2
0
-1
-5
-8
-6
-12
-8
-11
-9
-17
-8
4
-9
-9
-7
-10
-4
-13
-14
-9
-9
-4
-11
-3
-9
-6
-17
-12
-11
-6
-10
-6
-15
-9
-8
-10
-15
-7
-15
-13
2
17
36
58
73
89
106
120
138
138
127
122
118
126
117
95
71
49
7
-34
-71
-71
-51
-45
-34
-24
-15
-16
-3
-6
-14
-10
-6
-12
-12
-1
-1
-7
-11
-16
-7
-11
-15
-16
-16
-11
-10
-9
-9
-14
-10
-7
-8
-9
-11
-7
-12
-17
-8
-6
-1
-10
-8
-9
-2
-5
-6
-7
-3
2
-3
-6
-1
4
-7
-7
-4
-8
-1
-1
-5
-6
-3
6
-2
1
-2
0
0
6
13
-7
0
9
10
6
8
8
11
11
12
11
8
21
17
17
22
13
16
25
24
24
30
29
31
35
30
36
38
37
32
37
42
35
40
44
48
57
54
46
43
51
51
52
55
52
56
53
56
46
51
46
44
45
42
49
45
44
33
24
22
29
30
28
18
11
16
9
9
5
5
2
-2
8
4
-2
-6
-2
-8
-11
-11
-2
-5
-13
-7
-8
-8
-11
-8
-9
-15
-19
-12
-6
-5
-9
-16
-7
-15
-14
-10
-13
-14
-10
-8
-4
-14
-13
-12
-13
-18
-11
-15
-3
-8
-10
-14
-17
-18
-16
-9
-8
-13
-12
-10
-1
-7
-12
-10
-18
-4
0
-16
-16
-15
-10
-14
-18
-17
-13
-13
-7
-13
-9
-10
-15
-9
-7
-7
-9
-17
-17
-8
-8
-15
-19
-17
-17
-6
-6
-7
-13
-11
-19
-13
-9
-18
-9
-17
-13
-17
-12
-16
-16
-13
-8
-12
-6
-12
-9
-20
-8
-12
-13
-4
-12
-15
-11
-12
-3
-15
-11
-9
-12
-15
-11
-7
-3
-4
-8
-18
-10
-6
-6
-2
-3
-5
-5
-3
1
-7
-5
-5
-6
-3
-10
-7
-4
-11
-17
-13
-15
-12
-14
-7
-10
-21
-7
-19
-12
-12
-9
-10
-17
-14
-13
-15
-18
-18
-16
-25
-20
-10
-17
-15
-17
-13
-9
-12
-18
-23
-17
-12
-14
-18
-11
-6
-9
-5
10
43
64
80
101
109
124
133
124
131
130
129
120
96
84
61
16
-25
-62
-67
-52
-44
-33
-19
-20
-6
-6
-8
-10
-12
-10
-8
-13
-15
-17
-18
-19
-14
-21
-15
-11
-14
-12
-18
-10
-13
-12
-18
-8
-10
-15
-8
-13
-13
-11
-8
-7
-12
-12
-13
-17
-15
-12
-16
-7
-6
-4
-10
-12
-10
-9
-4
-19
-6
-10
-7
-15
-10
-13
-12
-7
-4
-3
-6
-7
-10
-2
1
-8
2
-2
-3
-3
-6
6
5
3
6
-4
7
4
4
6
9
13
12
13
11
12
12
17
25
27
20
26
23
29
19
20
29
28
28
35
41
35
37
33
34
32
46
50
38
34
40
42
42
41
35
37
32
39
38
35
30
19
30
24
14
15
19
18
14
14
3
2
4
3
2
-1
1
2
-9
-5
-6
-9
-13
-18
-12
-12
-8
-12
-11
-13
-13
-5
-9
-10
-18
-16
-19
-16
-10
-15
-11
-10
-8
-15
-12
-9
-10
-10
-9
-11
-13
-14
-3
-14
-21
-15
-21
-17
-16
-11
-11
-15
-15
-2
-8
-17
-8
-15
-14
-14
-5
-2
-15
-14
-9
-12
-10
-12
-19
-12
-11
-17
-15
-8
-3
-5
-7
-10
-10
-5
-12
-18
-15
-14
-17
-13
-14
-9
-13
-10
-7
-6
-16
-5
-14
-17
-18
-15
-10
-15
-6
-6
-12
-4
-9
2
-15
-11
-6
-3
-13
-6
-7
-12
-6
-4
-4
-7
2
-4
-11
-7
3
-6
-1
5
-5
-26
-15
-12
-4
2
-2
-11
-8
-14
-12
-10
-15
-8
-20
-13
-8
-22
-24
-16
-11
-14
-12
-13
-18
-8
-6
-11
-10
-10
-15
-14
-20
-14
-16
-20
-17
-14
-16
-9
-19
-21
-18
-22
-19
-10
8
25
40
52
70
87
107
120
125
127
130
123
123
116
103
97
55
15
-34
-56
-53
-49
-46
-24
-16
-11
-6
-10
-14
-16
-8
-8
-2
-10
-8
-8
-8
-15
-5
-3
-9
-8
-7
-11
-5
-9
-9
-5
-7
-10
-2
-18
-11
-8
-13
-10
-8
-5
-5
-6
-10
-4
-7
1
-7
-13
0
-5
-2
-6
-8
-2
-2
-2
-4
6
-1
-5
-5
2
2
0
0
-8
3
2
6
10
3
1
7
5
5
5
2
7
4
4
8
13
11
7
13
15
12
11
19
15
17
23
22
23
16
29
28
28
34
24
25
27
26
40
35
34
41
34
36
40
45
45
48
42
40
44
40
50
41
47
46
40
34
29
30
24
27
31
30
29
27
25
17
10
14
25
17
17
4
-1
7
6
-2
0
7
1
-2
2
-4
-2
1
-1
1
2
2
-5
-3
-2
-5
-5
4
-2
-3
-7
-12
-8
1
-11
-4
-7
-6
-13
-5
-7
-4
-6
-7
0
0
-2
-8
-4
-5
-2
-3
-2
-3
-4
-6
1
-4
-3
-10
-6
-8
-7
-8
-2
-2
-6
-12
-7
-7
-7
