-4
-6
2
-4
-7
-5
-3
1
-1
-6
-9
-7
2
3
7
-5
7
6
-4
6
8
6
7
-9
-7
-12
-12
-8
0
-7
-2
12
4
1
10
8
0
-5
-3
-10
-17
-17
-5
-4
-8
-5
-2
-7
-4
-4
2
0
-6
-8
-11
-14
-10
-5
-1
-19
-8
-3
-8
-3
-10
-15
-22
-9
-6
-6
2
-1
3
-6
-15
-16
-13
-11
-3
-11
-20
-21
-20
-12
-3
-12
-11
-9
-12
-14
-2
-8
-13
-13
-13
-13
-6
-4
-18
-28
-33
-37
-12
-2
-6
-1
-1
-11
-11
-21
-21
-20
-14
-9
-9
-24
-15
6
6
-1
-1
-21
-26
-18
-15
-9
-12
-21
-15
-11
-11
-10
-10
-15
-1
-5
-12
-16
-22
-15
-15
-25
-20
-17
-22
-12
-11
-19
-13
-5
-10
-12
2
2
-16
-12
-16
-14
-26
-23
-15
-12
-14
-17
-14
9
0
-22
-15
-3
-15
-15
-6
-16
-23
-20
-15
-14
-10
-16
-26
-13
-10
-5
-8
-11
-10
-3
-17
-25
-19
-14
-8
-7
-8
-18
-30
-36
-39
-31
-28
-24
-16
-23
-29
-35
-35
-25
-21
-24
-17
-13
-8
-8
-11
-11
-12
-13
-30
-32
-33
-19
-26
-30
-15
-20
-13
-21
-19
-11
-19
-18
-19
-24
-5
-5
-22
-23
-22
-4
-5
-20
-19
-25
-20
-21
-23
-24
-19
-16
-4
-12
-14
-8
-9
-16
-11
-10
-19
-15
-15
-17
-22
-16
-7
-5
-13
-11
-13
-9
-6
-13
-26
-25
-25
-26
-37
-35
-16
-13
-10
-16
-7
-6
-12
-8
-5
-5
-12
-15
-31
-25
-13
-14
-9
-15
-24
-11
-15
-14
-17
-16
-7
-10
-11
-19
-11
-20
-16
-19
-19
2
-4
0
-6
-15
-13
-13
-5
-5
-13
-8
-10
-22
-13
-4
-8
-4
-6
-3
1
3
-1
-4
0
-4
4
2
1
2
1
8
14
1
-3
-8
-2
-5
-14
-23
-20
-13
-6
-2
-12
-11
-16
-14
-10
-5
-2
-8
-8
-16
-14
-22
-25
-22
-23
-19
-10
-2
-3
-12
-10
-20
-20
-19
-13
-6
-11
-18
-32
-25
-29
-37
-25
-5
8
22
34
58
76
91
120
169
200
227
243
247
240
223
201
172
143
121
101
70
45
9
-15
-33
-50
-51
-38
-30
-30
-32
-31
-35
-39
-36
-25
-20
-19
-22
-18
-10
-11
-13
-16
-21
-24
-14
-1
-5
-4
-6
-9
-9
-7
-6
-9
-9
-3
-2
-3
-4
-2
-11
-7
-2
1
6
1
-3
-6
-2
5
-1
1
5
1
-6
-2
3
6
11
14
3
6
-2
-15
-3
18
6
14
18
12
8
5
11
4
3
6
5
10
18
20
24
32
38
31
20
23
28
22
25
18
17
23
25
32
38
32
36
34
38
49
40
45
38
42
40
44
38
50
50
56
55
60
56
49
50
52
59
58
64
60
53
50
55
51
56
59
65
70
61
60
70
66
55
53
53
46
50
52
42
39
35
42
36
36
28
24
19
26
25
19
22
24
25
20
8
2
-2
-2
-3
4
5
8
0
7
8
13
8
5
5
1
-4
-1
5
4
7
14
9
1
-8
-4
-2
2
0
-3
1
1
5
3
3
0
-14
-20
-20
-8
4
8
15
15
6
-7
3
13
4
-13
-6
-4
9
6
-1
-6
-9
-16
-10
-4
-5
-1
-12
1
-1
-2
-2
0
-5
-8
-5
-16
-22
-22
-15
-8
6
2
-9
-4
-14
-17
-12
-7
-9
-6
-9
-10
-12
-15
-4
-4
-9
-7
-7
-12
-22
-23
-17
-12
-11
-20
-23
-18
-5
-8
-4
-3
-4
-8
-16
-25
-21
-15
-14
-17
-20
-26
-18
-26
-25
-17
-6
-8
-19
-18
-14
-17
-15
-9
-19
-22
-25
-15
-9
-6
-9
-13
-18
-20
-17
-15
-23
-21
-10
-9
-17
-26
-21
-4
-13
-15
-14
-8
-11
-12
-14
-13
-14
-10
-13
-14
-16
-15
-15
-18
-14
-16
-15
-14
-25
-13
-7
-13
-5
-14
-18
-18
-22
-25
-26
-15
-12
-15
-10
-9
-7
-21
-21
-16
-16
-18
-18
-20
-12
-11
-12
-4
-11
-17
-16
-21
-22
-16
-21
-22
-24
-12
-13
-18
-25
-28
-24
-19
-15
-13
-9
-11
-7
-6
-7
-4
-5
-12
-9
-14
-21
-23
-27
-19
-22
-28
-22
-14
-18
-6
3
-7
-20
-21
-10
-14
-14
-11
-13
-7
-11
-18
-15
-8
-10
-13
-26
-13
-15
-16
-31
-20
-11
-18
-13
6
-9
-18
-6
1
15
12
0
4
-5
-10
-10
-14
-13
-6
5
-1
-4
0
-1
-4
-5
-5
-2
-11
-15
-7
-6
-5
-1
0
-14
-22
-31
-23
-15
-12
-11
-13
-19
-14
-4
-2
-14
-18
-9
-6
-11
-21
-24
-28
-25
-18
-12
-19
-21
-28
-23
-23
-20
-17
-21
-28
-31
-32
-18
-14
-13
0
24
43
57
81
111
153
186
201
218
234
240
220
200
182
158
151
131
103
85
51
20
-1
-28
-43
-43
-40
-33
-27
-15
-14
-17
-20
-20
-19
-15
-20
-16
-9
-9
-18
-13
-12
-20
-22
-16
-13
-16
-11
-13
-16
-11
-9
-2
-4
-10
-9
-4
-16
-15
-5
-17
-11
-7
-3
-5
0
4
-1
8
-4
1
-10
-4
-1
-3
-1
7
6
8
10
13
16
8
7
10
3
3
12
9
6
-4
6
16
17
15
20
22
16
19
19
20
23
20
19
26
37
39
37
35
31
29
34
33
36
38
40
47
44
44
44
46
48
59
56
57
54
54
51
57
58
57
59
61
69
73
85
84
73
69
65
75
72
73
66
61
64
72
72
70
62
60
59
56
63
66
61
54
49
53
50
55
56
41
32
22
29
23
20
10
14
20
27
17
7
3
0
-11
-1
-7
-10
-10
-11
6
13
5
6
-8
-6
0
-2
-10
-10
-10
-5
-5
-10
-11
1
-5
-1
8
12
13
4
7
2
-4
0
1
0
0
9
4
-3
0
-6
0
1
2
0
1
3
3
-1
-1
1
5
-5
-9
-7
-13
-10
-8
1
3
6
4
9
3
5
-6
-11
-17
-18
6
17
0
3
-5
-25
-3
1
-1
-9
-5
-3
-11
-5
4
2
1
-8
-8
-8
-5
-12
-9
-11
-7
-5
2
-5
-12
-13
-13
-10
-11
-9
-10
-3
-6
-6
-10
-12
-18
-10
-14
-6
-6
-3
-10
-21
-13
-21
-16
-10
-8
0
-9
-7
-6
-9
-14
-13
-18
-17
-15
-20
-15
-15
-7
-16
-20
-11
0
-6
-8
-5
-7
4
-12
-12
-15
-14
-8
-11
-15
-8
-8
-9
-15
-16
-10
-5
-11
-12
-9
-13
-11
-12
-8
-4
-5
-10
-12
-17
-20
-17
-15
-15
-18
-16
-21
-18
-8
-19
-11
-6
-6
-9
-9
-14
-15
-5
2
-9
-15
-11
-9
-5
-9
-12
-25
-13
-7
-17
-12
-10
-11
-15
-8
-21
-25
-18
-9
-15
-18
-11
-11
-5
0
-2
-7
-7
-9
-10
-18
-20
-21
-14
-15
-4
5
-14
-18
-12
-12
-20
-26
-16
-13
-7
-2
-3
-10
-7
-10
-9
-12
-14
-13
-15
-12
-13
-16
-13
-7
3
6
-12
-18
-21
-15
-11
-13
-14
-1
0
6
8
8
10
17
7
3
8
5
5
8
-2
-12
-9
-4
3
3
-3
-7
-8
-5
0
-5
-6
-12
-9
7
-2
-22
-17
-2
6
-2
0
-6
-10
-16
-25
-19
-21
-17
-17
-7
-6
-8
-10
-12
-16
-5
-17
-21
-16
-8
-15
-14
-13
-10
-6
-11
-21
-28
-28
-28
-33
-28
-9
7
29
35
57
72
105
151
190
223
248
250
254
238
224
222
197
151
128
108
93
72
38
-3
-20
-41
-48
-42
-41
-30
-18
-22
-19
-7
-12
-5
-6
-9
-9
-16
-17
-16
-16
-9
-15
-5
2
1
4
0
-1
8
6
-2
-8
-17
-10
0
-9
1
4
2
-3
-2
8
-1
0
8
3
-2
1
0
5
12
10
8
2
13
12
9
4
7
1
1
-12
1
25
14
8
14
15
15
20
19
24
38
40
20
16
12
20
30
35
34
22
25
43
46
38
47
45
31
34
42
43
44
47
46
52
51
57
60
63
60
66
62
61
76
68
69
62
75
88
89
89
85
84
86
89
86
84
87
93
99
97
91
81
83
83
76
77
86
82
75
69
67
64
69
64
57
50
60
57
53
48
49
50
45
33
33
32
26
21
25
17
24
24
25
22
15
4
5
10
4
3
-6
-1
12
15
6
14
18
7
5
0
0
1
2
5
-3
-1
9
9
4
1
8
15
12
12
10
12
4
4
2
0
6
5
7
3
14
8
-3
-5
4
12
3
3
11
3
11
8
9
16
9
5
2
4
2
5
14
13
9
10
2
-3
-8
-5
1
2
8
7
-3
-2
2
9
11
-5
-10
-1
4
-1
-6
4
9
2
-3
4
-1
4
3
2
0
-6
-5
-12
-20
-15
0
-1
-1
-3
3
6
-5
-3
-4
-2
-9
-3
-7
-9
-11
-5
4
0
-6
-9
-4
-2
-2
-4
-12
-12
-1
0
5
5
0
-6
-4
-6
-5
-11
-14
-11
-5
-5
-4
-2
-7
-3
-5
-2
-4
-2
7
3
-11
-11
-13
-6
-2
-1
2
1
-2
-9
-8
-7
-7
1
-5
-7
-7
-1
3
-2
-3
-6
-18
-8
0
2
0
-5
-12
-5
-7
-10
-9
-7
-8
-12
-16
-10
3
-5
-9
3
0
-5
1
7
-5
-20
-17
-9
-5
2
3
5
-17
-18
-9
-5
-5
1
0
-3
-4
-6
-5
-13
-10
-11
-8
-5
-3
-2
4
4
5
12
11
11
8
7
9
8
5
-9
2
10
12
8
10
-6
3
9
0
-9
3
12
11
14
13
6
3
-13
-14
-11
-3
-9
-5
-5
-15
-5
-9
-9
-7
-4
-10
-17
2
8
0
-9
-6
-11
-12
-9
-12
-9
-8
-9
-14
-12
-18
-18
-11
-14
-7
-6
-15
-23
-26
-20
-19
-17
4
18
32
52
58
74
91
127
172
208
233
243
252
240
217
202
176
168
140
123
86
60
28
-9
-29
-35
-41
-41
-37
-28
-21
-29
-24
-15
-13
-11
1
7
1
-11
-9
-11
-12
-5
-12
-8
-10
-1
5
3
-5
-9
-4
-4
-6
-6
-3
2
-1
11
7
7
12
4
-5
-9
-10
-2
6
7
4
13
19
22
33
20
4
0
-3
0
8
11
17
15
11
15
23
18
11
7
5
3
15
20
19
21
23
14
28
32
31
30
24
26
33
33
25
37
49
59
52
41
36
40
37
29
37
51
50
41
50
58
62
72
67
63
65
67
67
69
71
78
80
66
54
54
54
55
50
82
96
88
73
73
83
80
73
79
73
66
69
70
74
67
68
61
72
63
62
66
59
63
57
51
43
34
30
18
19
26
31
21
21
20
20
13
6
19
16
19
21
5
3
-7
4
2
4
6
15
9
-5
-5
-10
9
5
14
5
7
2
-3
7
10
4
6
-1
5
8
15
19
13
11
10
8
-3
-8
-13
-3
16
12
15
13
17
16
10
-4
-4
-1
-1
12
16
26
17
14
8
9
-7
-1
3
0
2
2
4
0
-1
7
12
11
9
7
11
-2
-8
-5
0
5
-2
-8
-6
-1
8
20
9
2
0
0
-3
-5
-6
-9
-15
-15
-9
-16
-12
-10
2
0
3
6
-9
-8
-6
-5
-6
-1
18
13
3
-2
-12
-13
-13
6
-1
-5
-7
-1
-8
-20
-11
-8
-14
-16
1
5
13
-4
-5
-9
-9
-7
7
7
-9
-2
9
-8
-10
-3
4
-12
-29
-6
-1
-5
-4
-13
-13
-8
5
-1
5
4
-2
-1
-2
-6
-19
-10
5
4
-3
4
-3
-2
2
-5
-17
-18
-13
-9
-11
-8
-13
-6
-1
-1
2
0
-7
-3
-3
-7
-11
-13
0
6
9
5
15
5
-8
-9
-5
-4
0
-1
-3
0
-10
-8
-6
-7
-1
-2
-4
4
1
8
-1
-5
6
-7
9
9
13
7
-10
-22
-15
-20
-18
-14
-5
-5
-3
-4
11
-1
-5
-4
4
2
3
-5
-1
2
3
0
-3
-7
-9
-6
-4
0
9
-8
-19
-20
-5
-1
-2
12
12
12
14
14
25
25
15
2
19
21
5
4
1
-5
13
17
0
6
3
14
24
14
2
0
12
15
12
12
-3
0
-3
-6
-4
-6
-2
6
11
12
4
-3
-7
-16
-7
-5
-3
-5
-6
0
-4
-7
-17
-11
5
-10
-20
-10
5
-10
-21
-21
-3
-14
-33
-37
-18
-3
26
31
39
45
37
55
74
123
166
213
245
258
244
241
234
230
218
187
160
141
111
84
51
16
-26
-35
-35
-40
-37
-31
-18
-17
-15
-12
1
-5
-22
-18
-13
5
-1
7
4
14
17
15
14
0
-12
-12
-20
-25
-15
-1
-5
-8
-10
-1
7
5
13
-7
-14
-9
-5
18
29
-2
-8
-1
-2
1
7
2
-6
5
35
33
23
14
17
16
24
28
23
12
1
15
29
24
12
16
20
17
24
15
22
11
18
29
21
25
32
26
13
7
23
44
49
54
51
48
41
46
55
44
45
52
42
56
62
73
65
73
66
71
69
66
72
86
78
72
70
69
64
76
75
67
80
75
79
79
78
78
96
89
94
88
77
84
86
87
86
88
88
78
71
80
77
57
56
63
58
56
55
57
45
42
45
41
34
36
28
26
24
20
26
20
4
11
12
3
4
10
13
21
10
4
11
16
18
16
2
3
4
9
11
0
-7
-25
-13
4
3
16
30
28
32
28
14
5
7
9
11
13
17
21
13
-1
-3
2
27
19
11
14
7
14
9
-1
6
15
10
9
15
10
5
-1
-7
-4
18
11
6
3
12
17
22
31
23
20
6
9
2
-5
2
9
13
6
0
6
12
-12
-10
-9
-6
-11
-13
8
11
14
12
11
17
11
7
1
-8
-3
-14
-16
-10
-9
3
11
3
8
12
-1
1
2
3
9
3
-1
-3
-1
1
6
-5
-1
0
2
-2
-10
-6
0
-3
-8
0
-3
5
8
3
-1
-2
0
-5
-10
-13
-2
2
10
3
-7
-13
-3
7
-7
-3
-1
2
4
-2
-15
-4
0
2
6
7
9
8
3
-9
-2
-10
-12
-11
-6
-8
-3
7
8
12
14
4
-10
-7
3
-9
-14
-12
-4
-18
-4
14
11
10
-2
-3
-2
-4
-12
-6
0
-7
-5
-2
-1
8
9
-3
-6
11
13
7
-5
-5
-19
-10
3
8
8
4
-4
-9
-1
2
1
1
-6
-10
-13
-10
-8
0
-3
-12
2
8
3
-2
-3
13
13
8
-12
-14
-19
-8
7
8
-2
-9
-10
-10
-9
-2
5
9
10
-1
-10
2
8
0
-1
12
1
-12
-17
-16
-16
-25
-10
10
17
10
15
7
7
-4
-5
3
0
-12
-17
-13
-2
0
-9
1
8
15
4
7
5
11
16
8
7
7
8
8
5
16
29
24
25
23
15
3
7
6
-3
-16
-15
7
23
9
14
15
0
3
17
20
12
8
-10
-13
-12
2
6
9
6
-8
-11
-6
-10
1
3
2
-5
-5
-4
-4
-5
-11
-9
-4
-10
-18
-14
-7
-16
-14
11
9
5
1
-7
-12
-3
10
17
18
15
37
64
87
121
158
206
236
250
272
267
261
236
205
179
161
135
109
84
62
30
2
-14
-47
-53
-38
-33
-24
-15
-21
-20
-9
-7
-5
4
10
7
6
3
-1
-18
-26
-11
-2
-2
9
12
25
18
12
0
1
8
-3
-8
0
3
4
3
3
1
13
14
15
16
13
0
12
16
11
17
17
17
26
23
10
8
11
10
16
30
22
27
23
11
14
18
14
19
22
18
12
14
22
34
24
28
43
52
56
40
39
33
27
28
31
34
33
41
47
51
43
53
57
67
62
68
70
64
63
65
67
58
65
66
58
59
68
75
75
65
66
79
80
68
72
75
77
86
88
84
84
96
90
87
83
71
59
71
69
80
82
96
98
82
80
76
61
53
58
58
63
47
37
31
40
45
45
33
19
19
16
15
13
9
13
17
14
14
17
11
9
10
14
16
14
2
-4
5
14
13
19
11
12
10
9
6
16
19
25
20
20
12
-1
-1
12
17
8
7
9
4
11
10
10
22
12
13
15
4
-5
-4
2
9
7
9
12
14
12
16
25
30
27
9
7
14
15
6
5
2
11
12
3
3
9
21
13
10
3
-2
1
9
21
29
17
-8
-8
-3
-3
-14
-10
10
11
16
24
13
11
9
2
-3
-7
-9
-2
3
1
-2
2
-2
5
7
7
-1
2
3
-4
-2
-4
-9
-7
-5
1
5
15
9
2
2
9
6
0
-7
-4
3
5
-5
-14
-17
-8
-9
-2
-8
-5
3
3
-5
-8
-5
2
1
5
3
0
-7
-19
-5
2
-1
4
-7
-8
-10
-8
-14
-12
-4
7
4
-1
1
-6
-3
-4
-15
-13
-6
0
0
4
-5
-1
-4
3
9
2
-2
-5
0
4
-1
1
-6
-10
-9
-1
5
-1
-5
-5
-11
-16
-22
-11
-4
4
0
-1
-14
-10
-7
-2
-1
3
-12
-16
-12
-8
-16
-19
-3
1
-12
-11
-8
-8
-4
-4
6
0
-6
0
-10
-7
-5
-1
3
6
2
11
-8
-7
-1
0
-5
-8
-16
-10
-6
-9
-13
-12
-23
-20
-13
-9
-6
0
1
-9
-3
-3
-20
-23
-18
-15
-9
-6
-10
7
2
3
-1
7
14
7
11
17
23
14
9
3
-2
-4
3
1
2
5
2
-3
-6
5
-3
4
5
7
14
12
12
-1
-10
-13
-11
-22
-18
-7
-12
-13
-12
-10
-7
-13
2
-1
-2
5
-7
-20
-19
-26
-30
-15
-9
-20
-13
3
-1
0
-11
-26
-24
-14
-19
-29
-23
-29
-27
-23
-5
-3
7
29
38
56
81
113
146
184
214
233
230
240
229
220
217
199
170
145
117
86
75
44
3
-24
-40
-46
-45
-35
-32
-24
-25
-31
-26
-16
-9
-6
2
2
-1
-9
2
9
-5
-10
-12
0
-15
-12
-20
-23
-14
-2
1
0
-8
-4
10
3
-3
-5
-2
-1
1
-5
2
-2
-8
-10
4
11
-8
-2
2
0
5
14
12
13
12
10
12
7
10
15
5
7
10
8
9
21
20
9
11
12
12
22
19
23
44
37
32
21
16
25
15
18
18
26
28
42
34
37
34
24
33
57
51
43
52
58
66
58
47
53
63
57
57
55
55
59
67
78
63
73
69
68
67
71
78
83
71
71
81
82
81
81
74
75
68
61
73
79
74
82
78
74
60
57
53
44
35
47
39
33
34
34
40
32
34
36
32
12
15
21
15
6
-1
-2
3
-8
5
8
12
-9
-7
-7
-15
-8
2
3
-1
-6
-10
-11
-14
-7
0
-4
8
8
1
-2
-3
2
4
6
-6
-20
1
9
1
1
9
-1
-8
0
11
1
1
4
1
-3
-12
-3
1
5
-3
3
-5
6
7
2
-4
-4
18
8
-21
-5
-4
-16
-5
-4
-13
0
-5
-8
-12
3
1
-1
-2
-4
2
4
-4
4
-6
-6
-12
-9
0
-7
-7
-8
-13
-9
-10
-13
-4
7
2
-11
-9
-3
-4
-10
-11
-12
-8
-5
-10
-13
-26
-16
-15
-1
-4
-12
-8
-6
-2
-7
-15
-17
-21
-27
-19
-15
-7
-9
-21
-11
-6
-6
-3
0
-8
-3
-6
-8
-2
-17
-27
-22
-15
-9
-7
-10
1
-4
-5
-8
-8
-15
-13
-12
-13
-6
-6
1
-6
-13
-19
-12
-16
-26
-23
-19
-10
-11
-16
-10
-11
-7
-12
-14
-19
-23
-25
-21
-8
6
1
-9
-12
-7
-10
-14
-7
-7
-11
-20
-12
-8
-5
-1
0
-4
-15
-4
-12
-27
-17
-13
-8
-9
-9
-11
-19
-7
-9
-9
-4
-4
-15
-22
-24
-18
-11
-12
-8
-17
-28
-17
-11
-10
-3
-17
-1
3
-8
-10
-14
-12
-12
-7
-19
-29
-25
-16
-13
-9
-15
-12
-5
-27
-35
-14
-14
-6
-1
-8
-11
-15
-21
-24
-16
-15
-6
-3
-25
-30
-9
-9
-9
-12
-6
-17
-20
-14
-19
-21
-13
-13
-8
3
-8
-11
-7
-11
-7
-24
-20
-13
-20
-20
-29
-20
-9
-1
-14
-18
-23
-29
-23
-19
-16
-6
-19
-25
-19
-15
-14
-23
-12
-9
-18
-22
-18
-21
-5
-8
-5
-11
-23
-24
-24
-17
-8
-4
-17
-16
-4
-5
-18
-14
-21
-27
-21
-6
-12
-11
-7
-5
-4
-19
-25
-22
-9
-9
-7
-11
-9
-1
-9
-10
-11
-10
-3
-9
-5
0
2
-2
-3
-2
-9
-6
-2
6
9
-7
-17
-13
-4
-14
-6
-2
0
-12
-7
1
-10
-14
-10
-7
-21
-15
-16
-4
-9
-18
-17
-14
-14
-17
-25
-16
-19
-21
-14
-2
-9
-6
-13
-27
-24
-30
-31
-32
-23
-7
-13
-21
-18
-26
-34
-52
-39
-29
-13
1
15
29
46
57
73
105
148
188
210
224
231
227
226
222
198
177
163
120
95
76
51
21
1
-12
-39
-46
-37
-24
-24
-28
-27
-15
-4
-18
-18
-16
-16
-21
-25
-11
-12
-23
-19
-24
-22
-13
-7
-3
0
-13
-18
-8
0
-15
-22
-13
-13
-10
2
8
-3
-13
-2
0
2
-6
-14
-9
-3
-5
4
7
6
5
4
7
5
-3
-7
-1
7
6
2
2
-5
0
14
9
1
-4
-9
0
6
24
34
16
20
22
22
21
33
34
39
19
23
23
18
27
34
31
35
28
30
36
32
28
39
50
44
37
35
42
46
52
57
58
56
58
65
64
51
60
69
75
86
67
58
70
74
75
69
81
79
67
69
82
73
76
78
81
82
89
89
78
65
49
41
40
44
46
34
30
30
37
36
52
59
61
57
31
12
19
15
11
5
5
2
8
0
0
1
11
2
9
4
-11
-4
1
1
1
-8
-7
-3
0
1
0
-8
0
-11
-13
-8
-6
-10
-10
-7
0
0
-1
-2
-1
24
25
7
5
2
-4
0
-7
-13
-9
-4
-4
-3
4
20
14
-6
-10
-10
-10
-7
-14
-8
-8
-20
-10
-6
-9
-6
10
24
3
4
3
-16
-23
-7
-7
-4
-17
-12
-2
22
22
13
-4
-4
-10
-13
-16
-15
3
-4
-22
-17
-15
-7
-9
-8
-4
-4
-9
-28
-28
-13
-16
-8
-5
-4
0
8
-2
-17
-26
-26
-20
-10
0
-2
-8
-20
-15
-32
-13
-3
4
3
-1
-11
-17
-29
-21
-20
-8
4
-8
-14
-19
-20
-32
-32
-16
3
2
-8
0
-13
-12
-11
-16
-20
-20
-19
-7
3
-6
-22
-24
-26
-13
-5
-2
2
-9
-9
-15
-30
-32
-21
-12
2
4
1
-15
-21
-12
-7
-1
5
1
-4
-13
-17
-31
-41
-4
20
3
-8
-20
-44
-49
-46
-15
11
17
0
-7
-24
-26
-17
-1
-3
-6
-6
-7
-17
-28
-28
-27
-11
15
9
-8
-16
-14
-5
3
-5
-10
-14
-13
-20
-9
-4
-12
-21
-10
-13
-15
-6
3
3
-2
-5
-26
-45
-34
-10
16
20
5
-3
-19
-23
-16
-17
-19
-3
7
4
-7
-11
-11
-10
4
-8
-19
2
-1
-14
-21
-26
-27
-19
-7
-7
-1
-12
-17
-10
-1
0
-9
-16
-4
0
12
15
12
13
12
16
22
5
-10
-12
-6
0
-10
9
-3
-8
-4
-7
-8
10
12
10
6
-10
-8
0
10
3
-2
6
-6
-14
-18
-19
-24
-9
-11
-12
-3
-8
-6
-5
-5
8
3
-4
-17
-19
-19
-9
-1
2
-10
-18
-15
-16
-6
1
-1
-17
-29
-24
-9
-11
-15
-5
28
46
55
79
116
152
177
199
222
264
267
247
226
215
191
169
141
125
90
68
48
16
-11
-39
-41
-45
-47
-29
-32
-29
-24
-17
-7
-14
-10
-8
-11
-11
1
3
-1
10
19
3
-3
3
-11
-14
-12
5
5
8
3
1
-12
1
-6
0
15
17
16
17
19
12
-2
-7
-8
-6
16
12
8
9
13
16
9
1
3
-3
-1
8
14
20
13
20
17
15
18
16
34
23
21
13
24
24
22
26
28
40
30
29
30
33
25
24
31
37
40
44
56
60
48
31
29
34
39
54
69
65
61
60
61
62
64
61
58
55
49
67
85
78
81
77
68
72
78
82
73
77
79
79
88
93
84
88
90
84
87
72
81
88
79
74
76
75
76
81
68
65
58
54
49
38
39
45
47
45
42
32
23
15
12
21
26
24
33
27
19
5
5
4
2
7
7
8
4
3
10
7
-11
-11
13
13
6
9
-3
11
17
9
10
0
-8
-2
9
-2
-10
-7
-2
6
6
5
7
18
12
2
10
12
13
15
2
0
1
-2
0
5
1
8
13
26
17
12
16
11
14
8
8
-1
-8
-11
-6
-4
-3
7
22
14
13
4
-8
-6
-1
10
11
14
4
-10
-24
-16
-7
4
6
0
-3
1
13
9
1
-5
-7
-11
-4
7
3
8
3
10
0
-5
-10
-5
-1
-3
-3
5
-5
-5
-5
-8
-5
-16
-8
-14
1
-4
-9
-9
7
-12
-15
0
-5
-5
-3
1
7
-7
-9
10
17
8
10
4
-8
-5
-7
-13
-17
-15
-13
-5
0
-3
1
-3
-6
-14
-13
-12
-6
-5
-6
-8
-7
-4
-2
2
6
-1
-11
-5
2
-13
-12
2
12
3
-5
-6
-4
-8
-10
-12
0
-4
-1
11
5
-8
-10
-17
-15
-5
-8
-12
-13
-4
0
2
6
17
2
-8
-13
-10
-13
-4
4
8
-2
-9
-6
5
2
-8
-8
-9
-8
-8
-8
-14
-19
-5
-7
4
8
4
-7
-2
-6
-12
-5
-4
-1
-1
1
17
19
12
17
14
4
7
7
-6
-1
8
5
5
4
-9
-5
12
16
12
3
4
14
26
11
6
11
-8
-17
-6
2
12
6
-2
-10
-9
-9
-7
-9
-11
-4
-5
-7
-8
-8
-11
-32
-11
8
8
18
9
-9
-17
-11
-9
-10
-7
-13
-19
-17
-12
-7
-18
-3
9
23
25
26
52
66
97
124
161
197
229
238
246
258
245
226
190
165
155
128
113
89
54
24
-4
-23
-43
-32
-16
-11
-7
-14
-8
-2
-2
-3
-2
-6
-11
-7
-4
-7
-6
0
0
7
17
14
5
4
0
-1
2
2
4
-5
-6
-12
-17
-3
0
3
11
12
22
20
-2
1
3
13
11
-4
-2
-1
2
-2
8
19
20
32
18
6
2
10
13
17
18
19
25
24
24
23
25
26
22
31
32
29
32
13
28
35
44
38
32
22
9
21
39
50
52
48
51
51
51
47
41
43
46
51
47
57
62
63
60
68
68
58
58
86
94
73
80
73
73
79
77
86
81
85
86
89
96
100
91
91
84
74
84
89
87
87
84
81
73
90
71
53
52
45
52
65
43
54
65
74
64
47
40
27
21
17
18
19
15
17
16
11
13
12
10
10
19
27
26
12
3
0
4
1
2
-8
-6
-6
0
1
-9
-14
-6
-4
5
15
11
10
14
13
-3
5
13
2
0
8
5
7
5
6
4
8
10
4
7
3
2
4
3
6
-1
-3
12
7
0
5
25
17
20
12
-6
-5
-6
-3
-15
-17
-10
-7
4
10
3
8
3
6
-3
-6
-4
-1
8
13
11
8
7
1
6
7
6
7
-2
-3
-6
-3
2
0
5
-2
-8
-17
-13
-14
-15
-9
-8
-6
-8
-5
-6
-5
-8
-6
-2
0
-13
-12
-4
6
-6
-6
-10
-11
-6
-1
0
-18
-16
-6
4
9
2
-4
-1
-2
-10
-5
11
-3
-4
-6
-10
-13
-13
0
-1
-8
-13
-13
-12
-11
-7
-8
-10
-14
-18
-6
-9
-2
-3
-7
-1
-20
-18
-12
-12
-8
-5
-1
1
1
-11
-17
-19
-32
-11
-3
4
1
11
15
13
-4
-1
1
-10
-4
-1
-2
-5
1
-1
-5
-28
-37
-21
-12
-14
-4
-4
-9
-5
-10
-12
-5
-2
-2
0
-7
-15
-19
-28
-11
-13
-6
-2
-10
0
9
-4
-12
-6
-8
-17
-17
-16
-17
-8
-6
-9
-6
-5
-11
-13
0
-2
-11
-3
-13
-3
-1
10
-5
-14
-11
-13
-18
-8
-11
-11
-4
-1
2
-6
1
8
13
14
8
6
-1
10
3
-2
4
-1
-17
-14
-3
-1
2
11
10
12
19
13
6
3
5
0
-3
-2
-5
-8
-8
-10
-2
-5
-9
-9
-16
-23
-19
-11
-25
-17
-5
-5
-6
-10
-9
6
-2
-21
-29
-9
-5
-13
-10
-3
-2
-19
-32
-34
-33
-47
-26
0
15
26
52
58
68
97
126
172
215
236
253
243
239
230
217
198
167
156
128
106
82
57
21
-17
-23
-40
-29
-19
-22
-20
-19
-23
-24
-13
-1
-2
-21
-21
-7
-4
-12
-21
-10
-1
-11
-11
-4
5
-6
1
13
7
-4
-11
-16
4
9
-1
-7
-2
-4
-4
8
16
10
-2
3
-3
0
-7
-4
-1
-9
-2
5
-2
3
24
24
11
10
11
20
10
1
13
21
21
18
12
16
22
15
12
13
15
16
25
34
44
40
32
26
27
16
28
33
31
33
43
37
33
38
37
38
53
62
61
55
50
52
59
70
64
54
44
59
65
65
69
67
79
79
80
87
79
89
85
84
79
77
79
82
76
79
81
83
89
91
85
82
75
74
69
63
66
64
75
80
84
72
59
52
41
29
38
37
36
25
29
32
26
26
17
10
5
15
22
21
6
10
7
8
8
8
10
18
3
9
-8
-15
4
29
24
5
-2
5
7
7
-1
-1
0
-9
-5
2
13
9
4
-9
4
14
11
7
3
-2
-8
-3
6
7
10
12
14
25
17
12
12
9
9
3
2
8
5
-2
11
11
9
13
-8
-11
-8
-4
3
0
2
-1
-2
-1
-2
-2
0
-1
0
-1
-6
-5
-2
3
6
3
-8
-2
-5
-32
-30
-19
-2
1
7
3
-10
-15
-10
-6
3
-3
-16
-16
-12
-6
-26
-28
-17
-4
-3
-2
6
-6
-12
-8
9
5
7
6
2
-5
-8
-11
-11
-12
-13
-15
-15
-6
-6
-17
-19
-20
-7
-9
-33
-32
-26
-26
-10
0
-12
-11
-11
-7
-10
-3
-6
-21
-20
-17
-25
-30
-14
-4
-10
-3
5
5
4
3
-5
-17
-13
-20
-25
-24
-24
-28
-21
-15
-11
-3
-12
-18
-9
1
-3
-10
-16
-15
-19
-5
14
6
-8
-16
-21
-24
-16
-18
-28
-22
-18
-24
-9
0
-19
-8
1
-1
-13
-11
-18
-30
-16
-15
-2
-8
-6
-15
-10
1
-5
-8
-19
-20
-24
-21
-9
-4
-25
-24
-10
-10
-10
-5
-5
-9
-12
-10
-13
-19
-16
-21
-17
-7
-5
-1
-3
-8
-14
-9
-10
-2
0
3
3
1
-4
-7
-3
-2
6
0
-5
4
1
7
16
1
0
-1
-7
-16
-21
-21
-15
-14
-19
-20
-26
-27
-13
-2
-2
5
-3
5
0
-16
-21
-7
-16
-23
-21
-6
-11
-6
-5
-5
-12
-16
-11
-7
-20
-25
-23
-22
-29
-22
-19
-12
-15
-23
-24
-28
-18
-10
-13
13
29
25
32
55
85
109
143
182
210
230
234
232
208
194
190
158
127
99
74
47
34
9
-34
-57
-56
-59
-54
-47
-40
-48
-37
-25
-17
-16
-7
-9
-3
-4
-5
-15
-15
-17
-9
-12
-13
-11
-13
-19
-18
-8
-4
-5
4
3
15
11
-9
-8
-9
-13
-11
0
-6
0
4
0
-1
-9
-10
-3
-2
6
13
14
2
9
7
15
5
-1
0
-9
-1
3
4
15
17
18
23
31
29
24
16
19
5
15
23
23
23
28
25
21
19
22
28
34
32
32
40
34
36
34
33
40
48
45
44
54
48
38
34
40
38
43
63
51
68
73
69
85
91
100
81
78
79
81
75
78
67
60
60
71
64
59
60
80
86
92
85
69
69
69
73
71
67
64
60
40
44
48
44
53
50
38
30
31
38
30
20
11
17
16
11
8
0
3
13
3
-4
5
0
4
4
0
-10
-18
-2
16
10
20
3
-5
-1
0
-7
-1
16
19
-12
-10
-1
0
-8
-2
1
4
3
7
2
8
11
6
-1
0
3
-4
-9
0
6
-5
-18
-4
-12
-13
-2
3
-4
6
8
3
0
-3
-12
-12
1
14
13
13
4
5
-4
-24
-9
-12
-10
-11
-21
-16
0
-8
5
7
13
9
-4
-9
-3
-12
-18
-19
-25
-12
-9
-7
-9
-13
-16
-8
-12
4
14
2
-3
-24
-21
-15
-21
-23
-29
-9
-5
-4
-6
-3
-7
-17
-21
-10
-6
-3
-5
-17
-21
-13
-15
-22
-30
-20
-10
-11
-18
-10
-15
-14
-21
-16
-20
-15
-5
-6
-11
-5
-10
-22
-28
-22
1
5
15
8
1
-5
-4
-12
-13
-19
-16
-13
-19
-18
-7
-15
-39
-44
-16
-19
-9
-15
-1
2
1
1
1
2
2
-9
-18
2
-3
-15
-13
-10
2
-6
-1
17
11
-4
4
8
8
7
4
4
-1
3
3
-1
2
-8
-12
-24
-31
-35
-13
-10
-16
-7
-12
-10
-13
-13
-6
-9
-1
-3
-15
-14
-21
-32
-26
-24
-23
-17
-20
-19
-5
-13
-7
-11
-26
-40
-53
-36
-24
-14
-13
3
13
24
42
60
78
101
125
171
208
211
216
189
171
174
172
148
124
102
83
80
53
29
7
-14
-37
-58
-40
-40
-26
-28
-30
-26
-31
-28
-16
-15
-5
8
5
-14
-18
-9
-8
-13
-17
-9
-16
-30
-18
-5
-15
-11
-12
-10
-15
-11
-12
-21
-10
-7
-2
-19
-6
-7
-1
-7
-1
-3
11
9
3
-1
2
-16
-10
-8
-3
0
5
-2
14
29
27
14
1
-9
2
4
11
10
7
5
1
2
4
8
6
20
20
30
25
23
23
23
15
8
10
20
20
24
25
32
35
35
34
39
38
41
42
36
45
52
49
61
59
56
50
53
57
60
53
48
60
72
71
68
68
75
64
58
60
56
56
69
79
88
69
62
69
76
61
64
63
66
56
59
47
35
33
32
26
29
27
28
20
19
28
46
27
17
17
10
11
0
-2
-3
-3
-7
-15
-23
-2
2
1
0
4
10
9
-10
-11
-11
-15
-15
-9
-6
-2
3
4
-2
-5
-5
-10
-4
3
3
4
8
7
-7
-12
-4
1
3
-4
-2
8
-1
3
-4
-1
-11
-1
9
11
-3
-11
3
12
8
6
4
-2
-1
-8
-21
-15
-20
-15
-1
-1
7
8
4
5
3
3
4
2
0
11
-5
-25
-1
4
-5
-9
-6
-1
-5
-3
5
4
-4
-11
-11
-15
-22
-12
4
-1
-5
-3
-7
-12
-5
-10
-14
-7
-2
0
-8
-19
-24
-12
-8
-7
-11
-11
-7
-5
-5
-8
-5
-1
-4
-3
-5
-12
-1
-6
-18
-20
-10
-6
-1
2
-10
-16
-9
-9
-12
-8
-11
-23
-15
-13
-19
-8
11
9
-6
1
5
-2
-10
-12
-5
6
-3
-16
-17
-12
3
22
14
11
22
9
-1
-1
6
8
5
4
5
2
-6
2
3
-2
-9
-19
-7
-3
5
1
-3
-8
-10
-6
-9
-3
-3
-22
-27
-27
-24
-13
-7
-22
-7
4
-3
-4
-7
-5
-13
-22
-34
-20
-17
-22
-35
-19
-21
-33
-38
-15
5
19
16
33
59
78
96
117
156
194
227
243
243
221
207
198
182
155
133
116
93
75
51
15
-8
-26
-35
-45
-42
-38
-30
-10
-14
-23
-28
-21
-12
-12
-17
-24
-32
-12
-9
-17
-21
-4
9
19
5
0
-5
-8
-13
2
3
-5
-3
-7
-10
-4
2
1
-12
-20
-9
-13
-5
-6
-14
-7
-8
-3
6
8
19
13
17
11
11
4
-3
-7
1
6
7
0
0
20
9
0
10
12
2
12
15
23
19
15
22
25
30
34
20
26
30
26
17
33
40
38
43
43
36
14
22
36
37
46
36
44
50
53
56
57
54
57
55
58
54
69
63
64
65
71
72
69
64
66
75
77
72
65
62
59
59
67
73
78
71
70
72
65
67
66
61
63
52
50
47
46
37
31
25
20
19
26
26
16
14
17
12
12
18
16
10
9
-1
3
0
3
-4
-6
2
0
1
3
-1
-6
-4
-3
-2
10
5
-4
14
-7
1
-7
-11
-23
-21
-5
-11
-12
-14
-5
0
9
8
10
14
18
9
5
4
-6
-9
-7
0
-9
-14
-6
-2
2
4
13
11
15
15
-10
-10
-7
-13
-3
-8
-20
-18
-1
-3
-9
-5
-2
-5
2
6
0
0
4
4
5
7
2
-6
-14
-12
-16
-18
-11
-10
-6
2
13
-3
-14
-15
-12
-12
-8
-1
-5
-15
-9
-14
-10
-4
-7
-9
-2
-1
-7
-9
-10
-2
-9
-12
-16
-25
-15
-14
-15
-13
-11
1
4
-12
-23
-13
-14
-10
-12
-17
-17
-3
-12
-6
-2
-4
-3
5
-8
-12
-10
-21
-7
-13
-9
-22
-22
-12
-7
-4
1
0
9
6
2
6
-1
3
5
4
-2
1
2
-3
-6
-5
-9
-16
-4
12
16
8
7
6
-2
-6
-2
-1
-4
2
-11
-8
-18
-23
-14
-22
-16
-8
-6
-13
-4
-12
-20
-16
-20
-25
-17
-24
-23
0
7
3
5
-9
-14
-13
-15
-11
-25
-27
-25
-9
-17
-18
-20
-22
-24
-27
-8
-6
6
19
33
49
70
87
118
161
186
202
216
224
210
196
173
166
154
138
112
91
71
42
5
-15
-31
-45
-44
-47
-29
-33
-28
-34
-16
0
4
5
5
2
2
-5
-7
-10
-20
-19
-14
-13
-13
-10
2
-12
-13
-7
-8
-10
-6
-10
-12
-19
-10
-9
-10
-6
-5
-8
-15
0
13
17
14
4
0
4
5
1
4
1
-5
0
-10
-6
-11
10
10
21
21
27
19
3
7
8
12
7
9
7
6
1
8
8
11
18
20
35
36
32
26
30
34
34
28
33
42
34
29
25
27
36
46
39
37
42
57
73
62
61
55
58
54
44
41
46
72
61
70
69
62
70
83
70
79
71
65
74
78
76
76
76
75
79
80
74
81
68
54
45
42
42
44
59
48
44
40
47
31
11
5
10
13
14
13
18
17
12
12
14
5
-3
-7
1
10
2
-1
-12
-18
-14
-2
8
-5
-3
6
9
8
-1
2
-2
-5
-4
-1
-5
-10
-9
-9
-14
-20
-12
-1
-2
6
0
0
0
25
11
9
9
3
2
-4
-8
-7
1
0
6
-1
-10
-12
-10
-21
-24
-13
-1
11
21
24
12
1
-1
-2
-9
2
2
-6
-8
-1
3
6
-3
-10
-10
-18
-12
-11
-6
-14
-15
-6
-5
5
17
1
-17
-3
-3
-11
-5
-4
-1
-11
-17
-12
-22
-23
-1
-4
-7
2
-2
-4
-2
-5
2
-6
-5
-8
-16
-11
-14
3
-4
-32
-10
-9
-8
4
-3
-10
-11
-19
-19
-13
-7
-10
-17
-8
-5
-3
6
1
-10
-24
-15
-5
-8
-16
-24
-17
-15
-10
-7
-11
-12
-4
1
1
-13
-14
14
11
-6
-16
-17
-15
-11
-18
-28
-23
-13
-13
-13
-9
-11
-3
-7
-5
-11
-6
8
8
7
5
-5
7
2
-11
-16
-20
-16
-17
-14
-19
-22
-18
-5
-7
0
-2
-9
-4
-7
-13
-7
-6
-8
-11
-11
-15
-17
-17
-22
-19
-15
-11
-3
-11
-5
-3
1
6
0
-13
-17
-22
-23
-28
-14
-11
-18
-9
-2
10
10
2
-2
-7
-12
-6
-8
-5
-8
-21
-13
-11
-11
-15
-22
-38
-33
-10
-10
-8
2
13
7
-1
-6
-3
-6
-9
-12
-19
-22
-16
-11
-5
-9
-16
-19
-33
-30
-20
-9
-1
5
10
5
0
-4
-21
-8
-3
-9
-18
-18
-17
-10
-10
9
8
-4
-4
1
-3
-4
2
6
7
5
-2
1
12
4
3
-11
-15
0
5
-2
-2
4
-7
2
4
1
3
4
-4
0
-6
-6
-23
-3
-3
-7
-14
-16
-11
-8
-8
0
1
10
8
-13
-16
-16
-19
-26
-31
-27
-19
-11
-10
-10
-4
-4
-2
-4
-13
-18
-8
-9
-10
-18
-29
-38
-49
-41
-21
-7
25
33
48
69
100
127
160
191
211
227
223
226
212
210
183
177
170
127
91
77
58
30
4
-19
-40
-43
-29
-27
-39
-42
-38
-24
-4
-3
-11
-11
-4
-11
-14
-23
-21
-9
-4
-10
-10
-10
-5
-7
-2
-1
-4
-3
-9
-17
-20
-27
-18
-24
0
8
0
-3
5
1
-9
-17
-10
-9
-15
-16
-11
-7
0
11
15
9
-1
-3
-9
0
9
13
14
-1
1
8
-5
2
1
20
16
15
21
22
14
7
13
20
20
14
18
16
16
20
26
15
24
32
29
38
39
31
19
28
37
48
53
50
45
46
41
45
46
33
45
48
63
60
66
67
69
74
68
60
68
60
47
62
76
68
65
68
66
81
80
73
74
69
75
73
70
67
62
71
72
65
71
58
50
53
47
40
33
23
31
34
33
29
34
37
31
30
20
9
18
13
14
11
-1
2
12
17
13
5
12
0
-15
-11
-5
-12
3
2
22
13
-2
5
9
9
8
-6
-3
-3
0
-4
-4
-6
0
-13
-11
4
8
0
4
11
8
7
3
6
3
10
-3
-14
-1
-3
-2
-7
-16
-2
11
7
6
17
24
14
0
-12
-13
-11
-15
2
-7
0
0
-12
-6
-1
-6
-9
4
9
-1
-10
-6
-14
-10
-5
-1
-12
-10
-10
-10
-4
-3
-4
-4
-17
-7
0
-5
-24
-16
-12
-12
-8
-10
-3
-9
-25
-28
-15
-15
-21
-16
-10
5
3
-8
-3
2
-1
-22
-16
-14
-22
-17
-17
-21
-13
-14
-12
-6
-5
3
-4
-19
-22
-15
-19
-16
-12
-25
-20
-20
-9
-14
-9
-3
-8
-1
-7
-11
-13
-14
-13
-5
-10
-8
-8
-9
-9
-15
-14
-8
-16
-13
-15
-20
-18
-20
-17
-8
-19
-23
-18
-5
-9
-8
-8
-11
-13
-15
-15
-26
-14
0
-3
-6
-5
-9
-12
-29
-35
-24
-10
-16
-17
-18
-21
-20
-25
-31
-22
-8
-3
-2
0
-17
-18
-12
-3
-9
-10
-6
-27
-27
-17
-12
-10
-6
-3
-8
-8
-7
-9
-21
-7
-14
-15
-12
-19
-26
-23
-25
-25
-20
-14
-12
-8
-11
-10
-8
-6
-19
-17
-20
-28
-22
-17
-18
-23
-15
-9
-3
-11
-15
-14
-19
-21
-19
-14
-13
-21
-17
-9
-7
-13
-6
-10
-12
-12
-20
-18
-17
-24
-16
-16
-22
-29
-8
-4
-13
-18
-17
-11
-6
2
8
5
-7
-9
-5
-1
-9
-12
-6
-4
-8
-7
-10
-13
-24
-14
0
10
6
7
-3
-15
-17
-25
-11
1
-1
0
-10
-14
-5
-2
-13
-16
-21
-23
-25
-21
-18
-20
-22
-17
-11
-8
-13
-22
-26
-21
-25
-23
-12
-14
-24
0
2
-20
-15
-3
-25
-29
-26
-29
-40
-34
-40
-26
-18
-16
-9
2
19
45
64
99
134
181
217
253
263
266
249
223
211
201
182
152
126
93
62
36
-6
-40
-52
-54
-37
-34
-27
-18
-21
-38
-42
-17
-4
-13
-10
-1
-17
-26
-18
-16
-23
-18
-11
-10
-7
-5
-17
-16
-17
-17
-17
-15
-22
-18
-10
-3
-3
-4
-5
-3
-6
-13
-9
-6
-13
-9
-1
-4
1
-1
2
5
4
-2
-1
5
5
-3
-3
9
5
7
-5
-6
6
16
12
12
11
-3
0
8
13
5
9
13
20
18
20
31
26
32
28
19
31
35
31
33
36
34
26
34
46
40
37
39
48
47
46
39
39
41
54
58
63
64
61
60
73
66
63
67
59
58
60
67
69
72
68
65
73
68
76
68
65
82
84
71
66
69
71
68
64
61
61
61
60
41
36
39
33
32
37
38
35
34
31
32
23
5
-6
-5
-2
13
8
6
7
10
1
6
7
3
5
1
11
3
-11
-20
-15
-5
-2
-12
-12
-3
3
6
6
4
-1
-9
-5
-5
-7
0
-10
-6
-9
-12
-15
-19
-8
-3
5
1
5
15
14
-2
-11
-7
0
3
0
-6
-15
-13
-20
-23
-20
-13
-3
-4
-1
3
6
5
4
5
-16
-20
-15
-13
-11
-6
-20
-25
-15
-2
-3
-25
-21
-12
-18
-10
-12
-9
-2
-2
4
-10
-20
-16
-20
-27
-16
-15
-13
-20
-10
-3
-20
-16
-23
-24
-15
-14
-28
-18
-16
-21
-15
-13
-13
-13
-11
-8
-18
-19
-22
-29
-32
-31
-30
-21
-12
-12
-7
-6
-12
-12
-12
-11
-22
-21
-20
-16
-6
-8
-20
-19
-19
-10
-4
-21
-33
-21
-15
-29
-32
-28
-18
-8
-12
-13
-26
-23
-16
-15
-5
-21
-27
-13
-10
-17
-25
-27
-25
-25
-17
-18
-26
-16
-1
-3
-5
-1
-11
-11
-17
-27
-33
-31
-18
-11
-11
-13
-10
-9
-20
-13
0
-10
-27
-28
-20
-21
-23
-27
-27
-26
-25
-9
-20
-16
-16
-2
-1
-11
-7
-13
-23
-13
-19
-26
-23
-17
-23
-10
-5
-16
-6
-12
-25
-22
-17
-24
-26
-8
-13
-30
-19
-17
-16
-25
-18
-1
12
14
-5
-10
-19
-7
-3
-16
1
-1
3
-2
-9
-6
-10
-6
-13
-14
-8
0
0
3
2
13
4
-6
-19
-17
-14
-13
-10
-4
-11
-9
-16
-21
-26
-22
-23
-26
-23
-30
-27
-21
-9
-14
-11
-15
-17
-14
-2
-10
-21
-16
-18
-19
-23
-30
-24
-13
-7
-13
-19
-30
-35
-34
-37
-36
-12
8
16
30
56
90
106
142
175
208
237
252
252
229
215
199
159
141
109
87
72
42
26
1
-43
-54
-52
-49
-48
-49
-35
-28
-34
-41
-34
-21
-13
-12
-16
-11
-6
-7
-7
-13
-12
-13
-17
-10
-13
-17
-19
-14
-14
-3
3
-11
-11
-11
9
1
-13
-8
-11
-4
-2
-5
-7
-10
-11
-7
-8
4
-7
3
-6
5
4
2
8
4
14
17
13
7
10
9
11
18
8
3
-18
-7
16
26
13
20
25
19
21
17
15
21
27
30
27
20
16
17
18
18
37
46
53
49
43
44
37
44
59
52
53
47
40
42
45
51
47
34
39
50
54
54
70
76
80
86
93
80
81
75
77
65
62
53
50
56
62
69
75
76
76
77
73
67
67
67
79
75
66
44
43
39
32
33
22
21
32
26
18
19
16
21
20
1
-7
7
-2
-1
16
19
13
17
-1
-1
-6
-12
-10
-12
-2
-9
-3
-10
-14
-4
-10
6
4
-3
-2
2
10
8
1
4
16
-2
-14
-9
-11
-5
-7
-7
8
2
-2
0
4
9
-3
0
2
-2
-6
-1
-8
-6
-11
-1
-1
-5
-4
-9
-18
-13
0
-11
-16
-6
-2
4
8
-3
-9
-18
-15
-18
-9
-6
-8
-18
-5
4
5
-8
-8
-9
-13
-9
-9
-15
-23
-8
-11
-7
-6
-20
-20
-21
-23
-13
-23
-17
-12
-4
-6
-7
-17
-8
-16
-15
-11
-19
-11
-9
-20
-23
-14
-10
-20
-17
-21
-16
-13
-18
-17
-14
-16
-24
-9
-12
-15
-13
-14
-14
-13
-13
-20
-19
-18
-11
-14
-13
-10
-5
-17
-19
-26
-24
-16
-13
-21
-16
-9
-7
-9
-21
-19
-9
-14
-23
-15
-23
-18
-13
-17
-14
-12
-15
-11
-12
-23
-18
-13
-20
-31
-28
-27
-24
-20
-27
-23
-3
2
-12
-22
-21
-17
-14
-9
-10
-8
-4
-11
-10
-11
16
8
2
0
-4
-7
-5
-7
-8
-10
-6
-5
1
-6
-6
-9
-3
-1
-8
-23
-24
-11
-4
1
-1
-5
-18
-15
-13
-18
-14
-13
-17
-10
-11
-18
-27
-20
-23
-34
-26
-14
-21
-18
-2
-23
-22
-6
-3
-8
-9
-22
-24
-33
-27
-24
-22
-35
-36
-42
-24
-18
-15
-5
7
20
30
43
66
87
128
173
218
233
256
259
241
226
214
192
162
131
105
86
59
30
-6
-30
-50
-58
-54
-44
-33
-32
-24
-17
-34
-41
-31
-18
-18
-26
-23
-11
-11
-7
-12
-14
-19
-18
-8
-5
-4
2
-10
-5
-5
-17
-14
-12
-9
-6
-8
-12
-9
-11
0
4
-10
-19
-7
-7
-7
-13
-13
-6
5
4
1
8
0
-1
-4
6
9
8
3
1
5
7
5
8
15
18
19
17
14
8
14
14
9
9
13
14
25
27
23
26
25
37
27
27
23
22
26
30
30
36
34
35
40
43
50
53
43
48
48
49
50
56
50
37
52
58
62
59
58
63
70
66
73
78
61
61
67
63
60
62
70
73
67
65
59
62
49
50
54
61
58
55
53
44
41
35
38
29
20
20
25
25
14
12
18
7
-4
1
13
-1
3
3
-1
-7
-4
-9
-4
-10
-15
-11
-9
-2
1
-5
-13
-16
-9
-8
-10
-7
-8
-8
3
3
-11
-9
-14
-18
-15
3
0
-6
-5
1
7
-1
-8
-5
-10
-12
-5
1
1
-7
2
-18
-31
-18
-16
-26
-5
-6
-4
-4
-4
-5
-8
-16
-9
-5
-7
-2
-9
-14
-13
-7
-11
-21
-21
-19
-11
-12
-8
-13
-7
-8
-14
-1
-11
-12
-22
-13
-15
-15
-18
-21
-24
-15
-12
-13
-15
-12
-15
-22
-22
-30
-28
-25
-22
-15
-11
-10
-9
-13
-8
-21
-33
-22
-16
-17
-16
-17
-11
-4
-14
-14
-15
-27
-36
-21
-20
-23
-29
-13
-17
-11
-12
-11
-16
-22
-22
-25
-12
-19
-27
-19
-12
-21
-29
-27
-24
-17
-12
-14
-11
-12
-23
-22
-28
-21
-19
-20
-29
-31
-25
-20
-12
-13
-10
-12
-13
-20
-32
-25
-18
-23
-19
-23
-18
-9
-14
-2
-15
-15
-18
-22
-25
-15
-18
-22
-7
-7
-9
-21
-28
-23
-26
-25
-19
-20
-24
-26
-26
-24
-23
-30
-32
-26
-23
-17
-20
-14
-11
-10
-25
-32
-28
-24
-23
-13
-5
-15
-11
-24
-21
0
-14
-28
-18
-19
-9
-19
-20
-26
-25
-27
-25
-23
-14
-14
-19
-15
-10
-17
-26
-20
-11
-20
-21
-13
-16
-22
-19
-15
-16
-20
-24
-16
-21
-18
-15
-15
-22
-26
-21
-26
-27
-27
-23
-14
-25
-23
-35
-39
-14
7
-4
-5
0
2
-8
-13
-11
-11
-4
-8
-11
-10
-19
-15
-4
1
-12
-2
-6
0
-5
1
-5
-9
-7
-6
-10
-15
-18
-16
-5
-1
-11
-7
-12
-12
-20
-16
-26
-21
-16
-30
-31
-13
-14
-25
-19
-24
-15
-11
-14
-26
-25
-14
-16
-12
-21
-18
-22
-28
-19
-29
-34
-24
-32
-34
-37
-30
-21
-9
6
26
32
46
64
95
126
166
204
225
236
248
221
213
200
167
148
133
102
81
70
43
6
-15
-41
-44
-39
-33
-22
-21
-22
-36
-23
-18
-24
-21
-14
-21
-20
-17
-23
-16
-18
-13
-11
-2
-5
-23
-25
-22
-14
-10
-19
-16
-27
-20
-11
-5
-11
-13
-1
-6
-14
-11
-15
-4
-4
-2
-12
1
9
8
10
10
8
-1
-5
-3
-8
-7
-9
3
-7
7
1
6
2
5
2
10
15
9
2
7
0
1
4
12
19
23
21
22
15
8
18
24
30
28
18
33
24
39
26
31
32
32
43
39
40
52
55
49
49
45
52
59
63
55
47
53
56
57
47
55
59
63
77
72
67
64
69
70
68
74
77
77
66
68
60
45
52
59
77
59
69
64
64
62
50
51
48
58
41
36
28
26
29
28
23
17
22
16
15
15
6
11
27
16
-4
-8
-1
4
5
0
-1
-11
6
9
-8
-9
-8
-5
-6
-12
-7
-1
-7
-5
-7
-18
-7
0
-9
-5
3
1
11
14
3
5
5
1
0
-1
-5
-4
-22
-7
1
9
-9
-6
9
-2
5
7
-1
-6
-8
-5
-8
4
20
9
-6
6
13
-12
-21
-22
-28
-18
-7
4
13
12
1
-8
-9
-14
-3
-1
-10
-8
3
-12
-18
-12
-6
-3
-7
-3
-7
-10
-1
-7
-7
-12
-23
-20
-16
-12
-11
-2
-7
-9
-6
-10
-15
-7
2
1
-4
-5
-15
-14
-5
-10
-13
-17
-13
-14
-11
-8
-5
-6
-18
-14
-7
-10
-21
-21
-22
-22
-24
-24
-15
-10
0
9
-4
-1
-10
-6
-4
-9
-11
-2
-11
-13
-14
-14
-18
-14
-20
-18
-9
-8
-14
-18
-20
-18
-10
-10
5
-2
-10
-8
-11
-10
-6
-2
-15
-20
-11
-16
-12
-5
-7
-10
-10
-20
-11
-15
-17
-13
-15
-17
-3
0
-9
-7
-2
-13
-29
-19
-22
-10
-11
-16
6
-10
-13
-28
-23
-15
-7
-14
-5
8
-4
-1
2
-4
-2
-18
-23
-22
-28
-13
-5
-9
-7
-6
-3
-2
-10
-1
-8
-20
-24
-6
1
-14
-17
-2
