56
43
26
19
-3
-13
-12
10
30
46
49
39
19
9
-34
-38
-35
-8
9
33
41
32
16
0
-32
-15
-6
10
23
42
30
28
11
-1
-33
-29
-30
-7
1
33
41
37
16
-2
-31
-30
-34
-10
2
33
39
26
6
-1
-28
-38
-25
4
14
45
41
27
10
-1
-34
-34
-36
-21
-7
21
31
28
7
-5
-36
-41
-21
-1
0
33
34
12
1
-10
-34
-27
-8
10
22
40
35
27
9
-10
-38
-37
-16
3
13
35
37
18
-5
-21
-35
-23
-4
9
17
34
32
15
-11
-23
-31
-32
-9
13
30
46
42
24
0
-20
-34
-23
-4
12
29
45
39
25
1
-22
-32
-29
-5
9
27
41
37
9
-3
-30
-35
-26
-9
4
25
38
37
1
-21
-48
-42
-34
-14
3
37
42
36
24
0
-38
-34
-30
-11
6
32
38
35
17
9
-17
-15
-13
4
15
43
40
37
15
2
-29
-34
-34
-12
1
51
60
44
10
-11
-47
-50
-34
5
7
42
41
33
9
-7
-37
-41
-27
-3
11
39
41
28
15
6
-30
-25
-10
11
15
42
39
28
7
-6
-36
-40
-24
-1
8
35
42
25
4
-10
-45
-55
-39
-13
13
42
38
22
1
-17
-40
-34
-17
-1
12
36
34
15
6
-15
-41
-31
-18
2
17
34
34
17
2
-20
-41
-30
-5
10
23
32
35
25
6
-10
-20
-6
2
19
24
41
40
24
8
-15
-17
-16
2
11
34
47
41
18
3
-24
-28
-24
-14
1
38
39
33
10
-5
-35
-39
-31
-16
-10
22
32
21
3
-1
-38
-30
-24
-10
3
35
35
19
-4
-18
-55
-40
-33
-3
14
41
37
32
16
5
-23
-21
-11
12
2
31
43
30
17
9
-18
-20
-18
-7
3
28
20
6
-9
-35
-72
-61
-43
-9
8
35
29
8
-16
-16
-34
-33
-15
3
13
34
25
17
-8
-12
-26
-24
-12
7
19
42
41
26
3
-12
-30
-29
-17
-7
15
36
41
25
10
-14
-32
-26
-16
-2
12
34
29
11
-2
-22
-37
-25
-4
8
19
26
18
5
-11
-28
-28
-21
-8
7
27
32
25
15
14
-19
-22
-14
-5
10
39
44
37
24
13
-12
-17
-15
8
32
56
66
51
33
21
-15
-15
-10
16
29
68
66
54
37
18
-4
4
2
26
30
57
73
69
45
50
12
1
2
21
26
61
69
63
39
29
-7
-5
0
24
32
65
67
54
22
10
-15
-22
-13
13
17
43
42
29
11
-3
-32
-32
-12
10
13
30
34
8
-4
-11
-34
-30
-20
0
-1
25
33
25
5
-10
-32
-32
-22
2
9
35
28
7
-2
-8
-33
-28
-13
3
21
32
34
12
1
-6
-25
-22
-25
-9
4
25
27
18
-1
-24
-45
-39
-8
7
16
32
28
11
-4
-24
-42
-30
-11
-8
14
21
17
0
-15
-34
-39
-30
-5
14
36
33
30
18
8
-20
-28
-16
-8
-1
27
28
25
11
-5
-29
-40
-29
-5
8
47
46
33
4
-9
-32
-33
-28
-5
-1
20
29
33
10
-7
-35
-40
-29
-7
7
36
35
22
4
-2
-23
-25
-22
-6
4
32
30
22
5
-4
-44
-39
-26
-12
-6
34
30
13
0
1
-26
-20
-21
-7
3
38
37
13
-6
-19
-37
-39
-30
-11
8
25
27
23
5
-18
-35
-28
-4
9
11
34
29
10
-12
-17
-31
-35
-17
-2
12
31
30
9
-1
-10
-35
-33
-18
-3
9
30
26
10
3
-19
-41
-38
-21
-4
12
27
16
4
-14
-30
-32
-21
-12
4
16
28
23
14
7
-18
-36
-36
-21
-12
11
27
21
3
-10
-24
-32
-35
-9
4
24
28
21
12
1
-30
-30
-33
-8
2
29
33
31
6
-4
-29
-36
-34
-13
4
27
33
27
3
-11
-40
-33
-31
-9
1
31
30
23
2
-5
-29
-28
-14
1
1
29
49
49
20
1
-36
-42
-26
-1
15
49
50
25
4
1
-30
-42
-31
-9
-9
16
32
25
5
-7
-38
-41
-20
0
2
26
27
14
-5
-15
-41
-41
-20
-4
13
37
33
6
-13
-27
-46
-43
-23
-5
10
31
25
1
-13
-18
-25
-14
1
19
38
64
67
42
11
-3
-22
-16
-4
4
25
49
44
23
-5
-31
-46
-54
-37
-35
-15
4
2
-16
-27
-39
-41
-27
-6
8
20
35
31
6
-15
-41
-34
-28
-11
10
38
42
37
9
-3
-26
-35
-44
-15
-5
23
35
30
4
-4
-32
-31
-30
-12
-4
33
39
31
15
-6
-28
-27
-27
-5
-4
24
24
25
13
6
-30
-24
-12
13
20
46
42
33
14
14
-30
-27
-9
13
18
49
56
37
14
-8
-34
-27
-20
-3
10
43
58
40
22
15
-13
-15
7
27
38
66
59
51
34
22
-3
3
15
36
53
74
70
54
38
25
1
-3
12
29
36
63
70
58
34
19
-5
-13
11
27
38
60
62
36
19
6
-25
-27
-13
8
33
52
36
16
4
-17
-29
-25
-6
2
24
32
19
12
0
-19
-38
-39
-15
-12
21
33
29
7
-7
-31
-32
-28
-13
2
20
34
29
10
-3
-31
-31
-39
-19
0
23
29
21
11
-5
-32
-36
-32
-17
-10
21
22
16
0
-11
-40
-39
-35
-12
-5
22
15
17
0
-5
-32
-38
-31
-17
-4
26
25
16
-7
7
-24
-31
-27
-14
-9
29
44
29
6
3
-32
-39
-25
1
7
21
20
12
-5
-15
-30
-24
-20
3
10
35
38
15
1
-10
-39
-46
-31
-4
10
31
24
12
-8
-10
-13
-25
-15
-1
16
33
37
20
10
-10
-37
-40
-18
-2
9
42
47
28
-1
-18
-38
-31
-13
8
17
40
36
13
-2
-15
-20
-13
-7
3
17
35
35
0
-8
-19
-30
-31
-10
0
18
36
42
31
15
-16
-23
-19
4
12
36
39
35
3
-7
-29
-31
-16
3
11
37
38
34
10
3
-20
-21
-23
4
19
56
49
39
18
8
-14
-12
-21
-6
7
53
39
20
3
3
-22
-19
-7
12
21
43
43
35
10
6
-28
-34
-20
5
25
47
34
23
12
2
-31
-31
-16
7
14
37
43
21
1
-6
-38
-38
-18
1
13
35
29
17
-5
-15
-48
-43
-26
-1
7
31
35
15
-5
-19
-48
-50
-34
-14
8
39
31
13
-4
-20
-44
-43
-33
1
21
36
42
37
6
-13
-22
-12
8
26
34
49
42
21
10
0
-17
-25
-10
-9
-6
0
-4
-19
-31
-59
-66
-56
-21
-7
11
26
11
-1
-17
-41
-42
-33
-8
6
25
27
28
2
-10
-38
-34
-36
-15
-3
28
25
30
9
-5
-38
-36
-24
-11
1
38
44
25
8
-12
-41
-46
-25
8
14
39
29
23
5
3
-35
-38
-25
2
11
28
27
26
7
-1
-34
-32
-18
8
12
41
36
32
10
5
-18
-15
-12
6
13
48
54
32
9
-2
-19
-16
1
20
41
67
64
53
44
34
-3
-7
17
37
38
53
59
53
39
23
3
2
20
39
51
74
79
64
42
26
10
5
19
44
61
82
82
58
44
20
-2
9
19
37
42
54
53
37
12
3
-16
-9
12
17
29
45
46
29
15
-4
-19
-22
0
8
37
47
45
18
0
-27
-35
-24
-5
5
32
44
36
10
-3
-23
-30
-27
-2
14
39
42
32
11
9
-12
-25
-23
0
16
40
42
31
11
2
-25
-26
-24
-9
5
33
31
29
1
-2
-27
-21
-25
-17
-3
39
40
29
15
-9
-36
-38
-36
-12
10
46
37
31
7
5
-23
-19
-14
-1
3
35
39
26
3
-6
-28
-37
-25
-8
7
39
35
17
-10
-15
-32
-35
-18
-3
4
29
28
5
-18
-20
-42
-31
-13
-6
16
37
37
24
0
-19
-40
-32
-6
11
23
46
40
14
-7
-21
-38
-33
-19
-7
17
33
29
18
-1
-20
-33
-28
-16
-9
9
32
23
1
-7
-25
-35
-29
-16
-5
1
15
20
3
-13
-23
-25
-31
-19
-4
17
27
26
11
2
-20
-29
-25
1
11
27
30
25
0
-9
-31
-35
-30
-17
5
27
23
8
-16
-22
-37
-30
-30
-18
-2
30
27
25
8
-3
-42
-39
-31
-17
-1
27
23
21
0
-6
-25
-23
-28
-2
10
36
45
32
9
-3
-36
-42
-28
-2
7
36
37
24
2
-14
-42
-40
-33
-18
-3
20
27
22
10
-1
-17
-24
-19
-4
7
40
39
21
9
-3
-27
-29
-9
4
18
38
42
26
6
-3
-25
-38
-10
10
24
42
43
27
6
-9
-36
-30
-28
-9
6
25
18
4
-10
-16
-32
-35
-25
-15
8
29
30
8
-12
-19
-35
-38
-21
-2
20
37
35
5
-14
-25
-46
-38
-9
7
25
38
35
10
2
-16
-23
-20
5
19
43
47
26
10
1
-13
-15
-12
8
12
30
37
23
-9
-26
-60
-61
-52
-36
-13
16
19
12
3
-2
-34
-30
-29
-11
-15
19
28
20
4
-7
-32
-33
-24
-2
-3
21
25
23
-3
-7
-22
-30
-29
-6
-3
33
31
27
17
10
-28
-26
-26
-12
-5
31
39
26
5
-12
-35
-23
-9
6
18
39
31
23
14
0
-24
-24
-16
16
32
40
44
25
4
5
-16
-24
-6
19
32
55
48
23
21
12
-13
-14
9
39
55
66
59
58
40
22
7
11
25
31
54
74
72
66
47
33
18
20
36
45
60
79
72
59
55
36
31
29
36
58
76
87
78
58
44
26
13
23
32
37
59
82
77
57
44
17
1
-4
21
40
70
75
58
40
29
-1
-9
-3
9
22
52
45
36
19
15
-19
-22
-12
16
22
48
51
51
29
13
-19
-13
-20
-2
20
48
56
35
27
21
-20
-19
-12
6
25
58
55
44
20
4
-32
-35
-22
1
16
48
45
33
11
-2
-16
-15
-1
1
13
42
47
36
15
-1
-21
-20
-18
-5
10
34
40
34
18
1
-25
-28
-24
-3
2
29
28
9
2
-22
-37
-33
-20
5
10
30
33
13
-9
-19
-40
-41
-19
1
11
18
22
11
-4
-21
-51
-37
-9
5
17
35
33
11
-12
-40
-51
-38
-23
-14
14
34
26
2
-8
-31
-32
-31
-10
3
19
27
25
7
-8
-41
-44
-34
-25
-17
11
20
14
4
-9
-39
-39
-37
-14
-9
12
16
20
-5
-28
-52
-49
-41
-25
-6
24
42
31
1
-11
-37
-39
-33
-17
-10
16
22
15
-2
-6
-30
-33
-31
-12
-1
30
26
12
-4
-15
-49
-47
-33
-13
9
40
33
19
6
-13
-54
-51
-39
-25
-8
23
22
11
6
-13
-40
-49
-34
-10
-2
26
19
2
-10
-22
-46
-36
-28
-12
2
29
15
-2
-12
-29
-53
-44
-28
-2
5
18
16
1
-9
-34
-55
-52
-30
-5
13
26
16
-1
-12
-29
-46
-43
-30
-17
7
26
24
11
-10
-31
-38
-25
-12
-1
14
25
25
5
2
-16
-28
-25
-12
-12
11
22
21
3
-15
-39
-52
-45
-21
-5
18
17
17
0
-20
-43
-50
-38
-16
-1
15
11
11
-5
-16
-43
-37
-31
-13
-17
9
12
7
-6
-13
-49
-50
-43
-33
-12
19
4
4
-3
-10
-32
-30
-25
-6
-3
30
30
27
7
-7
-29
-24
-16
6
18
41
38
14
-17
-40
-60
-66
-48
-28
-29
-6
-3
-9
-16
-19
-47
-45
-36
-10
-7
16
10
0
-15
-20
-47
-50
-28
-11
-2
26
29
23
-4
-26
-58
-50
-31
-12
0
19
16
5
-11
-21
-39
-38
-30
-6
4
28
30
15
-11
-24
-37
-33
-21
-4
5
27
32
8
-14
-28
-32
-32
-20
0
27
41
33
14
3
-16
-39
-29
-15
-5
18
31
33
18
7
-19
-21
-14
-4
10
30
36
38
13
11
-18
-14
-6
19
30
52
64
54
29
3
-20
-15
5
23
40
65
73
61
42
29
-6
-8
-3
17
29
48
54
65
39
25
-10
-4
16
29
24
43
44
36
14
0
-22
-24
-14
11
10
39
42
35
14
-10
-39
-45
-38
-20
0
28
28
12
-9
-18
-46
-38
-23
-20
-19
12
17
3
-9
-12
-36
-47
-43
-16
14
33
27
6
-11
-18
-40
-42
-35
-23
-6
30
25
4
-11
-22
-35
-39
-32
-15
1
19
15
1
-17
-32
-45
-40
-41
-23
-14
15
31
11
-15
-32
-39
-41
-30
-15
8
29
19
-5
-14
-29
-40
-40
-32
-17
13
30
21
0
-17
-36
-41
-42
-18
2
23
32
21
-5
-26
-43
-31
-29
-20
-11
10
20
18
-6
-24
-46
-45
-44
-30
-7
20
15
-1
-11
-9
-28
-29
-27
-12
-4
22
16
11
-7
-17
-41
-41
-37
-9
-4
22
27
5
-12
-20
-43
-46
-36
-20
-13
14
17
2
-13
-17
-45
-40
-32
-5
6
25
15
2
-16
-36
-57
-48
-32
-10
2
26
28
24
11
-12
-40
-36
-27
-12
-13
17
30
19
-1
-5
-32
-51
-36
-18
-4
12
19
2
-12
-40
-56
-44
-49
-25
-2
21
26
1
-15
-37
-49
-42
-26
-13
9
33
31
11
-3
-23
-44
-30
-12
-13
5
23
29
9
0
-21
-29
-26
-4
9
14
21
30
12
-4
-25
-28
-29
-14
-4
16
24
21
-5
-19
-45
-45
-38
-22
-13
12
15
2
-19
-14
-33
-35
-34
-17
-8
26
20
10
-3
-12
-41
-38
-45
-30
-13
25
25
20
1
-16
-48
-47
-32
-15
-8
23
24
19
-2
-15
-24
-28
-11
12
13
44
52
39
15
8
-19
-22
-9
-3
1
11
7
-9
-27
-43
-71
-56
-34
-19
-9
12
16
12
-8
-25
-43
-41
-32
-10
8
29
29
11
-12
-36
-57
-47
-19
-4
-2
26
35
19
-6
-18
-43
-40
-22
-7
8
36
31
4
-12
-13
-33
-28
-18
-10
9
23
24
10
2
-17
-34
-40
-30
-16
14
38
40
19
-6
-19
-37
-32
-14
-10
7
28
30
25
14
-11
-18
-12
-2
9
28
40
38
20
9
-19
-15
-5
11
20
42
47
40
26
11
-9
-7
-2
20
32
58
61
44
36
35
-7
-13
-4
32
45
75
67
50
30
24
-5
-4
9
26
38
63
67
73
40
33
-3
-13
-6
5
11
36
24
32
29
14
-20
-27
-17
10
20
39
34
26
8
-8
-43
-44
-27
-15
-13
19
11
10
4
-8
-39
-40
-21
-12
2
31
24
4
-13
-14
-37
-49
-30
-11
8
27
16
6
-13
-30
-54
-56
-33
-11
11
33
28
3
-20
-31
-49
-46
-23
-8
11
26
16
-6
-20
-29
-46
-53
-33
-9
11
21
18
12
-9
-40
-43
-36
-15
-3
7
13
14
0
-10
-27
-34
-35
-16
-7
19
30
19
2
-22
-51
-45
-27
-12
-16
12
33
20
1
-12
-37
-39
-40
-21
-14
10
16
8
-8
-13
-46
-51
-42
-19
-2
23
21
20
-1
-6
-38
-35
-37
-18
-8
27
21
22
6
-9
-39
-42
-35
-14
-2
31
25
13
-19
-23
-38
-40
-24
-17
-15
10
15
4
-13
-22
-48
-41
-31
-14
1
23
26
6
-14
-26
-47
-37
-32
-16
-7
29
25
11
-11
-26
-52
-47
-28
-2
13
29
24
2
-14
-20
-39
-40
-34
-19
1
29
27
-6
-21
-36
-47
-38
-33
-11
5
24
21
5
-14
-25
-37
-51
-43
-23
-7
20
15
-2
-11
-29
-46
-38
-14
0
18
34
12
-6
-5
-30
-43
-48
-30
-11
17
23
22
2
-4
-35
-37
-32
-17
-7
14
20
23
13
7
-28
-35
-34
-22
-6
25
38
32
1
-14
-44
-39
-38
-20
-4
19
20
12
6
-4
-37
-40
-48
-35
-8
30
26
10
-15
-26
-48
-40
-37
-19
-9
19
20
12
-5
-10
-47
-44
-30
-14
-20
9
7
-6
-18
-24
-49
-36
-16
3
19
41
46
30
9
-6
-39
-43
-26
0
12
47
52
31
6
-15
-44
-39
-29
-19
-23
-9
-14
-36
-48
-36
-44
-49
-38
-22
-2
23
24
17
-2
-15
-38
-45
-21
-4
5
18
17
4
-16
-32
-49
-46
-22
-2
8
28
29
12
-9
-18
-27
-32
-18
-3
19
29
22
-1
-16
-39
-52
-50
-29
-10
25
42
32
6
-11
-45
-44
-29
-11
1
17
29
22
-1
-6
-23
-20
-21
-7
17
43
39
40
13
-8
-26
-30
-29
-12
6
35
38
28
11
7
-20
-15
-17
9
19
50
53
46
25
5
-19
-13
2
15
21
52
65
58
36
29
0
-2
5
23
32
63
61
51
24
24
-5
-11
-7
10
25
55
54
44
20
2
-24
-21
-15
-9
5
34
38
23
1
-10
-42
-39
-16
2
14
33
27
14
-2
-16
-37
-32
-21
-8
-2
16
23
2
-15
-30
-46
-42
-19
3
16
31
24
2
-17
-31
-53
-46
-31
-20
-5
17
18
7
-9
-24
-34
-38
-29
-16
3
16
12
0
-18
-38
-39
-41
-29
-19
10
36
31
5
-16
-32
-32
-36
-26
-13
11
30
9
-15
-23
-45
-42
-41
-17
-5
19
22
5
-8
-21
-40
-45
-41
-9
6
23
30
25
5
-11
-38
-33
-30
-17
-11
24
20
10
-5
-14
-40
-39
-37
-26
-15
28
24
24
2
-5
-40
-39
-29
-14
-17
10
19
9
-2
-13
-37
-40
-27
-16
-9
21
25
22
-5
-23
-49
-47
-26
-11
2
20
25
13
-20
-25
-52
-57
-40
-16
-6
18
24
6
-20
-31
-45
-31
-16
-20
-6
22
19
8
-5
-22
-43
-53
-26
2
11
31
22
0
-13
-27
-46
-43
-29
-7
5
24
16
4
-7
-11
-46
-48
-29
-10
12
27
28
4
-21
-45
-54
-51
-39
-14
4
16
17
-4
-19
-45
-41
-40
-21
-9
13
19
12
-2
-15
-33
-37
-40
-17
-4
28
24
9
-12
-25
-42
-35
-23
-9
-4
7
9
17
-1
-7
-38
-49
-42
-21
-15
15
20
13
-17
-28
-48
-43
-32
3
9
24
21
24
1
-7
-39
-40
-27
-8
5
22
26
21
17
7
-25
-27
-27
-24
-11
27
24
18
-12
-21
-40
-44
-28
-18
-8
23
16
1
-17
-22
-36
-30
-24
-14
-10
20
12
0
-16
-22
-26
-37
-35
-9
5
26
25
5
-19
-29
-45
-42
-32
-19
-4
24
22
11
-1
-14
-34
-32
-21
-2
19
37
30
18
-3
-18
-29
-18
0
13
26
34
18
-13
-39
-58
-64
-61
-42
-24
-3
20
26
14
0
-26
-43
-42
-26
-15
0
19
14
-10
-18
-34
-33
-31
-15
-9
14
14
7
-9
-15
-36
-26
-21
-15
-4
26
34
19
8
-1
-32
-37
-30
-10
-4
24
34
29
11
-2
-30
-24
-24
-10
-14
19
26
25
13
-5
-24
-28
-27
-11
8
40
29
17
6
-8
-23
-24
-18
13
21
45
44
24
10
-1
-23
-23
-17
-5
15
49
54
42
26
20
-14
-26
-9
16
33
64
64
33
23
21
2
-1
16
32
47
69
69
44
32
21
-6
2
15
24
42
59
61
40
14
14
4
4
10
22
39
48
36
30
13
-11
-21
-34
-16
6
30
43
34
14
-11
-32
-42
-35
-16
0
32
35
30
7
-11
-31
-32
-30
-13
-6
18
28
16
1
-9
-28
-37
-38
-19
-3
28
33
22
6
-3
-36
-44
-30
-11
-9
23
30
25
3
-9
-46
-44
-40
-24
-7
25
28
14
-4
-10
-30
-35
-33
-18
-5
20
33
22
-3
-13
-39
-34
-27
-13
-4
28
18
8
-18
-21
-44
-39
-28
-3
6
33
33
23
2
-13
-41
-42
-31
-16
-2
29
22
10
-10
-10
-39
-31
-15
-5
3
24
22
11
-4
5
-23
-33
-31
-12
3
23
28
15
-9
-18
-35
-30
-19
-11
5
18
24
13
-13
-31
-41
-45
-33
-14
5
31
20
-2
-16
-29
-44
-42
-21
5
15
24
19
4
3
-22
-38
-24
-13
-14
9
17
24
4
-10
-31
-44
-39
-18
-3
15
25
23
-2
-17
-36
-39
-36
-19
-10
14
22
16
-2
-7
-34
-46
-36
-20
-11
13
10
12
-3
-1
-19
-26
-27
-21
-11
18
28
17
1
-17
-42
-38
-35
-20
0
21
23
22
-2
-13
-39
-35
-31
-14
-7
23
17
5
-7
-8
-36
-30
-32
-10
3
25
25
13
-9
-21
-44
-43
-33
-16
-4
22
19
5
-19
-15
-30
-36
-30
-4
5
34
25
19
-1
-13
-46
-51
-19
-2
0
33
30
26
2
-8
-27
-34
-18
12
34
44
41
18
-14
-32
-40
-29
-15
5
21
28
22
-1
-12
-21
-36
-30
-21
-16
-5
16
15
1
-13
-39
-50
-47
-24
-10
9
31
23
10
-4
-26
-48
-52
-35
-19
8
20
21
7
2
-21
-35
-35
-15
14
41
53
44
27
10
-23
-19
-15
3
20
39
39
24
-1
-14
-46
-46
-47
-33
-29
-5
1
5
-15
-25
-51
-42
-30
-8
5
26
35
28
5
-10
-51
-44
-39
-16
-1
23
19
7
-4
2
-31
-36
-20
1
13
31
24
8
0
-9
-32
-35
-30
-6
13
17
17
24
12
1
-26
-19
-16
-4
2
29
33
19
-1
-12
-31
-19
-4
5
18
33
36
16
0
-9
-24
-24
-12
3
10
37
43
21
5
-4
-24
-20
-4
3
27
54
57
34
17
4
-8
-8
-1
17
35
57
58
42
18
8
-1
3
20
31
47
66
59
43
19
7
8
11
26
29
53
74
66
54
34
0
-7
-6
15
33
58
61
53
26
17
-5
-3
-14
-1
19
42
37
30
5
-6
-28
-33
-20
-16
-1
33
39
31
6
-11
-31
-29
-24
-8
2
25
25
21
7
-12
-32
-32
-36
-21
-9
29
34
16
0
-10
-35
-33
-23
5
8
29
23
3
-10
-15
-50
-53
-42
-15
-9
14
22
9
-7
-19
-46
-39
-27
-6
0
30
28
9
-15
-28
-48
-29
-13
2
14
31
28
9
-12
-19
-31
-34
-18
-4
9
33
32
12
-5
-17
-49
-45
-25
-8
-1
23
30
11
-8
-22
-40
-39
-24
1
19
35
25
-3
-21
-22
-30
-32
-20
-8
9
21
22
7
-8
-19
-34
-29
-10
-1
12
20
18
2
-8
-24
-38
-30
-13
-5
23
34
25
0
-12
-38
-46
-42
-14
8
21
24
21
3
-3
-42
-45
-38
-21
0
20
21
19
-5
-15
-42
-42
-36
-10
3
20
30
32
0
-11
-42
-39
-36
-20
-17
8
22
20
1
-7
-35
-45
-29
-6
8
37
41
24
-2
-12
-39
-40
-28
0
3
34
32
16
-1
-4
-37
-23
-8
-3
1
27
37
29
5
-7
-36
-39
-29
-18
0
23
23
16
3
-2
-31
-36
-24
-9
7
29
23
13
-5
-18
-38
-53
-27
-5
15
40
29
4
-14
-22
-42
-40
-26
-4
20
22
19
9
-14
-40
-52
-52
-38
-20
8
29
28
16
-1
-20
-21
-23
-4
21
41
52
51
36
23
4
-11
-10
1
5
34
43
31
-2
-16
-52
-59
-56
-43
-21
2
13
21
0
-7
-37
-33
-13
4
3
32
33
31
12
-5
-30
-24
-13
10
26
54
51
47
26
16
-17
-17
-14
5
22
48
56
54
25
15
-21
-17
-11
12
25
57
61
50
32
17
-12
-4
10
20
20
56
57
49
28
22
-11
-11
13
24
38
66
63
40
18
15
-1
5
8
37
50
76
55
40
24
12
-12
-1
7
23
38
69
74
59
38
18
10
9
25
45
65
85
92
71
58
42
25
32
55
63
81
97
82
66
54
37
24
25
45
64
77
85
82
67
56
32
8
21
28
39
62
73
72
47
35
16
-1
11
32
39
71
78
68
47
29
7
-2
-7
9
18
42
58
57
37
25
2
4
8
26
28
49
59
51
40
33
4
0
-6
16
25
52
53
50
40
20
-6
-1
7
21
25
52
43
39
20
13
-5
-7
2
30
33
70
69
54
39
20
-14
-13
3
13
34
71
62
44
30
31
-5
0
-1
0
17
42
43
44
24
8
-33
-32
-8
12
15
40
45
27
7
-6
-26
-32
-14
9
30
53
39
14
-8
-23
-46
-45
-30
5
15
33
31
28
12
-10
-37
-33
-9
9
14
26
13
-2
-11
-29
-46
-38
-15
4
7
15
17
0
-9
-14
-34
-38
-19
0
10
17
14
-3
-17
-38
-46
-43
-23
-11
14
31
22
-5
-13
-38
-44
-49
-34
-15
21
27
17
-14
-25
-44
-47
-40
-22
-15
6
8
3
-17
-26
-41
-45
-48
-30
-18
6
-4
-13
-24
-28
-49
-41
-43
-31
-34
16
18
8
-12
-19
-56
-54
-46
-38
-26
6
3
-10
-23
-28
-64
-57
-45
-30
-25
5
10
-2
-27
-36
-67
-62
-49
-36
-23
3
9
-12
-35
-41
-54
-54
-47
-25
-30
2
-6
-23
-44
-44
-70
-71
-50
-22
-13
5
-4
-23
-37
-45
-72
-75
-48
-32
-18
5
4
-15
-29
-29
-68
-66
-39
-25
-12
4
8
-8
-26
-41
-55
-50
-35
-10
-2
16
16
-11
-36
-50
-68
-69
-55
-36
-14
-6
-9
-13
-31
-49
-66
-65
-58
-44
-27
-5
-4
-19
-30
-56
-71
-71
-51
-43
-13
12
-7
-38
-48
-75
-80
-72
-50
-31
-6
-3
-7
-39
-59
-77
-70
-64
-41
-25
-2
2
-6
-24
-27
-59
-65
-56
-23
-14
11
17
7
-25
-42
-79
-78
-92
-72
-53
-18
-43
-46
-55
-69
-103
-93
-68
-40
-30
-8
-14
-26
-39
-45
-73
-80
-60
-35
-17
-1
-10
-9
-26
-34
-67
-78
-64
-46
-29
-4
-14
-27
-41
-57
-78
-73
-57
-31
-18
9
-3
-17
-40
-48
-81
-78
-55
-33
-26
-3
2
-14
-49
-61
-81
-84
-57
-36
-17
0
-12
-27
-44
-49
-56
-51
-38
-26
-23
-1
3
-15
-33
-52
-62
-61
-43
-25
-9
12
6
-11
-27
-44
-62
-61
-35
-28
-2
16
5
-11
-43
-48
-55
-47
-15
-6
5
19
16
1
-12
-43
-53
-36
-12
5
18
19
6
-9
-21
-37
-43
-43
-30
-18
2
12
2
-16
-24
-52
-50
-51
-35
-30
-10
-3
-5
-39
-45
-80
-86
-75
-60
-43
-14
-20
-26
-33
-40
-78
-76
-66
-46
-39
-12
-22
-38
-58
-64
-99
-100
-82
-56
-53
-27
-21
-28
-36
-45
-77
-85
-80
-61
-50
-32
-35
-40
-53
-63
-93
-101
-87
-65
-52
-25
-25
-27
-43
-59
-85
-95
-79
-70
-50
-29
-23
-38
-53
-72
-95
-101
-93
-70
-51
-25
-23
-50
-68
-80
-94
-84
-77
-63
-46
-39
-36
-52
-60
-68
-96
-101
-85
-70
-43
-25
-28
-37
-56
-75
-105
-106
-81
-62
-52
-32
-31
-48
-65
-86
-97
-95
-73
-57
-37
-26
-39
-58
-72
-97
-102
-96
-79
-59
-51
-41
-43
-62
-66
-93
-98
-99
-82
-68
-46
-50
-57
-65
-73
-104
-93
-94
-83
-68
-45
-38
-49
-63
-75
-102
-99
-104
-92
-75
-46
-43
-60
-80
-89
-108
-104
-89
-74
-74
-44
-37
-38
-54
-72
-117
-113
-97
-84
-79
-45
-39
-48
-74
-83
-112
-114
-99
-80
-74
-37
-34
-54
-75
-93
-113
-116
-109
-86
-77
-44
-43
-55
-71
-85
-113
-109
-88
-67
-61
-43
-49
-69
-91
-105
-124
-117
-102
-84
-71
-49
-48
-64
-80
-103
-113
-109
-91
-74
-68
-52
-51
-61
-73
-99
-125
-125
-106
-90
-75
-50
-45
-74
-95
-112
-120
-111
-95
-74
-68
-46
-59
-67
-79
-110
-127
-114
-92
-85
-67
-48
-50
-75
-83
-103
-107
-103
-82
-66
-57
-49
-47
-72
-87
-103
-112
-110
-93
-78
-53
-50
-61
-72
-75
-100
-105
-105
-80
-66
-48
-51
-62
-84
-96
-118
-124
-115
-93
-80
-52
-48
-55
-70
-76
-115
-123
-125
-99
-79
-51
-53
-67
-82
-91
-132
-122
-107
-94
-81
-58
-55
-67
-87
-101
-135
-129
-123
-101
-82
-42
-44
-50
-73
-80
-109
-112
-96
-81
-82
-55
-41
-49
-60
-69
-88
-101
-98
-78
-73
-51
-65
-87
-95
-107
-148
-147
-127
-100
-85
-63
-54
-73
-86
-100
-125
-117
-106
-100
-84
-62
-65
-76
-92
-107
-120
-120
-102
-89
-76
-50
-54
-74
-86
-92
-114
-121
-103
-84
-67
-55
-64
-67
-74
-106
-128
-123
-102
-83
-65
-46
-55
-77
-97
-108
-107
-105
-86
-77
-51
-37
-34
-65
-76
-103
-120
-116
-98
-83
-64
-46
-40
-64
-80
-105
-111
-105
-86
-74
-50
-37
-43
-59
-68
-101
-108
-93
-69
-53
-29
-27
-41
-53
-67
-94
-86
-71
-62
-58
-28
-17
-17
-33
-58
-94
-89
-71
-51
-42
-15
-14
-24
-42
-54
-88
-93
-82
-60
-62
-40
-37
-45
-60
-69
-95
-95
-94
-78
-62
-27
-21
-40
-78
-83
-98
-105
-98
-82
-76
-57
-44
-51
-71
-87
-111
-119
-110
-78
-77
-59
-59
-76
-91
-100
-117
-120
-111
-86
-77
-51
-53
-76
-96
-111
-132
-135
-121
-99
-91
-60
-57
-77
-88
-94
-127
-121
-106
-89
-70
-49
-65
-78
-92
-119
-133
-138
-112
-86
-74
-69
-69
-79
-102
-118
-125
-114
-112
-99
-70
-62
-58
-82
-93
-117
-129
-121
-114
-97
-65
-58
-54
-81
-94
-119
-116
-126
-96
-80
-55
-57
-65
-80
-99
-119
-128
-130
-110
-91
-56
-60
-64
-86
-102
-131
-129
-113
-97
-90
-53
-54
-60
-78
-88
-114
-115
-121
-101
-83
-54
-66
-74
-92
-103
-137
-137
-128
-101
-83
-56
-57
-56
-84
-91
-120
-131
-118
-100
-83
-46
-47
-66
-89
-95
-127
-140
-130
-108
-89
-62
-68
-76
-86
-88
-118
-122
-106
-83
-83
-59
-56
-70
-93
-110
-134
-130
-122
-98
-82
-68
-79
-91
-102
-124
-135
-132
-112
-84
-75
-65
-57
-73
-89
-96
-120
-127
-105
-92
-86
-73
-77
-98
-108
-115
-128
-125
-106
-93
-75
-63
-59
-77
-91
-108
-121
-117
-94
-85
-77
-58
-59
-67
-83
-116
-134
-121
-91
-81
-63
-42
-58
-73
-83
-120
-121
-114
-104
-96
-66
-55
-58
-81
-94
-125
-133
-134
-107
-99
-75
-68
-62
-84
-107
-126
-132
-123
-107
-91
-59
-60
-70
-91
-100
-132
-120
-116
-97
-96
-76
-71
-76
-87
-93
-127
-127
-122
-107
-94
-66
-60
-63
-80
-74
-105
-103
-104
-79
-69
-52
-54
-47
-71
-86
-109
-117
-105
-92
-85
-61
-72
-91
-114
-128
-163
-165
-140
-114
-102
-66
-58
-67
-88
-97
-125
-136
-116
-96
-86
-56
-57
-69
-86
-104
-129
-139
-112
-80
-74
-60
-63
-82
-104
-115
-118
-120
-111
-92
-80
-55
-55
-77
-89
-102
-124
-117
-99
-80
-62
-46
-61
-79
-95
-107
-122
-109
-91
-79
-75
-61
-63
-81
-88
-104
-122
-121
-96
-75
-56
-51
-57
-61
-69
-104
-115
-113
-95
-79
-57
-45
-45
-64
-78
-99
-92
-86
-70
-55
-33
-31
-41
-65
-71
-97
-99
-98
-65
-46
-22
-26
-30
-45
-50
-83
-82
-68
-53
-46
-22
-24
-35
-38
-54
-85
-86
-82
-66
-50
-25
-31
-36
-54
-67
-95
-88
-84
-60
-48
-17
-20
-34
-59
-79
-120
-120
-108
-78
-67
-41
-53
-73
-80
-85
-116
-106
-96
-73
-67
-53
-53
-62
-88
-105
-130
-132
-115
-89
-68
-51
-51
-71
-94
-103
-133
-130
-110
-91
-82
-59
-59
-74
-95
-112
-126
-119
-105
-88
-70
-51
-56
-78
-100
-112
-132
-131
-110
-92
-70
-49
-51
-81
-96
-114
-135
-126
-103
-94
-84
-63
-57
-77
-87
-102
-117
-119
-98
-82
-71
-59
-60
-73
-91
-124
-134
-129
-106
-82
-60
-47
-50
-71
-86
-109
-112
-123
-101
-82
-56
-50
-64
-86
-95
-126
-125
-122
-94
-77
-47
-49
-57
-76
-90
-121
-118
-111
-92
-84
-59
-71
-86
-104
-109
-121
-112
-107
-92
-77
-51
-54
-63
-88
-103
-126
-121
-118
-101
-89
-49
-51
-65
-88
-98
-125
-128
-117
-96
-88
-48
-42
-58
-89
-100
-123
-119
-104
-88
-89
-60
-49
-60
-85
-93
-116
-106
-107
-101
-87
-53
-65
-67
-84
-89
-115
-129
-115
-87
-80
-64
-60
-77
-90
-100
-133
-121
-109
-92
-73
-48
-59
-67
-79
-98
-124
-120
-93
-74
-59
-48
-57
-78
-98
-116
-135
-130
-110
-101
-68
-51
-59
-74
-74
-100
-112
-120
-95
-74
-62
-54
-65
-75
-97
-121
-138
-131
-100
-96
-73
-57
-54
-75
-92
-111
-104
-102
-86
-75
-46
-47
-49
-64
-71
-105
-109
-105
-84
-74
-47
-42
-55
-79
-85
-106
-107
-95
-82
-80
-55
-59
-60
-81
-95
-125
-118
-116
-96
-72
-46
-45
-54
-77
-82
-117
-122
-114
-99
-89
-53
-47
-64
-82
-94
-119
-114
-107
-88
-86
-58
-59
-69
-91
-99
-133
-117
-92
-77
-75
-45
-47
-61
-79
-93
-117
-119
-96
-73
-59
-39
-33
-49
-61
-68
-95
-95
-94
-81
-73
-73
-66
-82
-101
-110
-134
-147
-122
-96
-90
-59
-53
-60
-76
-94
-113
-116
-108
-91
-67
-48
-46
-60
-79
-99
-118
-114
-89
-72
-65
-43
-44
-68
-90
-103
-113
-104
-82
-68
-55
-33
-39
-60
-77
-107
-124
-113
-84
-79
-50
-41
-54
-64
-73
-101
-104
-105
-87
-69
-50
-47
-45
-68
-79
-95
-101
-105
-82
-60
-40
-25
-36
-57
-68
-93
-94
-94
-79
-72
-45
-34
-34
-48
-57
-95
-87
-88
-57
-53
-25
-20
-30
-56
-66
-92
-79
-80
-62
-44
-11
-10
-19
-49
-52
-69
-63
-57
-44
-36
-6
-4
-13
-37
-53
-74
-71
-63
-43
-20
5
8
-5
-32
-48
-76
-77
-75
-56
-47
-23
-27
-41
-72
-81
-83
-82
-59
-35
-49
-47
-44
-50
-71
-87
-107
-97
-85
-66
-46
-30
-33
-48
-65
-86
-111
-105
-85
-77
-68
-42
-42
-56
-73
-96
-108
-105
-86
-63
-46
-33
-47
-70
-82
-90
-109
-104
-89
-70
-59
-44
-48
-63
-80
-95
-104
-95
-75
-57
-39
-23
-31
-60
-85
-108
-108
-107
-87
-75
-40
-29
-40
-61
-74
-105
-112
-102
-82
-67
-38
-39
-51
-58
-70
-97
-94
-103
-86
-78
-47
-48
-54
-62
-67
-86
-83
-78
-55
-42
-18
-20
-34
-66
-75
-104
-100
-99
-86
-84
-43
-36
-49
-58
-66
-94
-90
-84
-62
-52
-27
-37
-38
-69
-75
-102
-101
-92
-77
-72
-37
-34
-43
-69
-70
-95
-90
-72
-55
-60
-32
-28
-38
-69
-94
-111
-103
-81
-61
-48
-28
-34
-45
-57
-80
-112
-108
-87
-68
-47
-26
-27
-47
-75
-90
-102
-93
-82
-67
-47
-23
-24
-39
-60
-72
-91
-92
-79
-62
-58
-41
-36
-43
-55
-75
-98
-100
-71
-56
-49
-26
-33
-49
-66
-87
-92
-93
-85
-69
-45
-31
-37
-48
-56
-88
-100
-100
-86
-78
-53
-31
-25
-46
-65
-90
-93
-91
-69
-57
-34
-27
-37
-46
-59
-86
-88
-88
-76
-56
-27
-20
-30
-52
-61
-88
-98
-97
-76
-60
-30
-29
-34
-54
-64
-100
-102
-83
-59
-52
-26
-21
-31
-50
-68
-99
-95
-75
-56
-46
-7
-6
-28
-39
-46
-81
-78
-63
-40
-33
-8
-15
-31
-54
-58
-80
-80
-72
-58
-57
-30
-23
-33
-57
-67
-90
-80
-68
-55
-53
-35
-35
-47
-62
-72
-94
-94
-80
-57
-41
-19
-28
-29
-39
-64
-93
-97
-79
-55
-40
-21
-24
-37
-52
-61
-81
-83
-76
-51
-30
-12
-4
-23
-41
-58
-58
-55
-63
-46
-24
-1
-15
-36
-58
-86
-100
-101
-89
-85
-71
-42
-32
-36
-53
-73
-83
-82
-66
-50
-30
-16
-22
-30
-52
-76
-85
-86
-63
-54
-29
-24
-30
-40
-45
-69
-76
-72
-56
-32
-11
-20
-28
-45
-40
-63
-60
-66
-52
-38
-5
-8
-20
-44
-57
-72
-66
-64
-54
-45
-15
-11
-18
-29
-42
-75
-75
-78
-45
-31
0
-2
-8
-32
-45
-82
-76
-55
-27
-17
6
4
-8
-30
-29
-53
-58
-41
-23
-17
13
6
0
-15
-25
-52
-54
-42
-23
-17
13
24
16
3
-11
-44
-49
-38
-6
21
44
38
11
-6
-14
-42
-48
-29
-15
-2
30
25
8
7
-12
-38
-36
-27
-13
-8
21
21
-1
-19
-43
-60
-66
-51
-39
-15
5
-3
-25
-42
-57
-73
-62
-45
-33
-8
9
1
-20
-33
-49
-72
-79
-55
-42
-25
-7
-7
-25
-50
-66
-72
-67
-53
-35
-17
-5
-13
-34
-39
-60
-62
-64
-46
-46
-29
-17
-21
-35
-42
-72
-84
-85
-60
-25
-3
-6
-3
-28
-53
-73
-78
-72
-41
-32
-6
-6
-15
-39
-52
-73
-72
-74
-37
-28
1
3
-13
-26
-38
-70
-77
-61
-41
-30
-7
-7
-13
-36
-39
-59
-60
-60
-48
-28
9
5
-19
-38
-42
-65
-67
-52
-40
-39
-7
7
-15
-37
-34
-69
-63
-43
-16
-15
5
0
-14
-34
-39
-60
-64
-51
-29
-33
-11
5
-9
-31
-44
-61
-70
-46
-27
-13
3
-5
-26
-35
-55
-71
-69
-44
-30
-19
-6
-5
-15
-34
-39
-53
-50
-42
-30
-19
2
8
-11
-29
-52
-59
-58
-35
-30
-8
-3
2
-12
-29
-48
-60
-49
-28
-25
-10
5
-7
-30
-38
-57
-60
-59
-40
-25
-9
4
10
-13
-25
-55
-68
-58
-42
-30
-8
-8
-13
-26
-36
-54
-53
-56
-35
-33
8
9
-5
-27
-39
-67
-69
-58
-30
-19
-1
3
-4
-20
-29
-59
-57
-52
-36
-30
-2
-2
-3
-20
-26
-61
-59
-46
-25
-18
8
15
-1
-30
-44
-71
-59
-35
-18
-9
23
30
9
-12
-22
-58
-59
-42
-16
-7
22
19
14
-7
-21
-45
-47
-34
-25
-22
17
14
-5
-26
-38
-66
-60
-37
-22
-12
8
11
-5
-22
-35
-61
-49
-35
-22
-13
-2
0
-7
-25
-44
-69
-59
-39
-29
-11
17
17
0
-31
-52
-62
-51
-33
-9
5
25
20
8
-11
-24
-37
-34
-17
1
18
42
40
11
-1
-15
-31
-34
-29
-21
-11
-9
-5
-26
-43
-81
-89
-72
-45
-30
1
14
9
-15
-20
-42
-53
-54
-28
-14
4
9
10
-13
-18
-48
-44
-25
-13
-10
16
18
5
-21
-21
-52
-41
-39
-10
-2
18
15
16
-4
-18
-44
-35
-25
-5
-6
18
17
0
-18
-16
-42
-47
-32
-9
-11
9
9
8
-11
-15
-42
-36
-23
-11
-6
25
33
31
10
1
-35
-32
-14
1
18
41
40
19
1
-17
-34
-31
-15
8
19
37
35
28
21
10
-8
-8
-6
7
28
47
40
30
13
0
-19
-19
3
29
43
64
67
45
27
-4
-23
-19
4
32
46
57
58
36
24
8
-14
-18
8
18
37
48
38
16
2
-22
-32
-24
-17
-2
9
27
25
1
-10
-39
-43
-39
-18
-1
12
16
11
-11
-18
-44
-47
-46
-23
-8
18
17
15
-6
-24
-41
-45
-38
-19
-13
15
17
4
-21
-28
-54
-51
-51
-32
-5
29
37
23
4
-16
-49
-58
-43
-22
-13
17
18
-1
-12
-21
-56
-45
-39
-20
-14
20
28
13
-6
-9
-37
-41
-33
-21
-18
6
8
2
-14
-15
-37
-35
-27
-11
-2
23
25
17
-1
-29
-48
-47
-24
3
-10
2
4
10
0
-11
-44
-41
-30
-20
-10
17
15
-1
-13
-30
-36
-38
-20
-3
0
22
26
5
-13
-23
-39
-38
-14
4
8
24
25
5
-13
-27
-47
-45
-31
-19
-7
13
15
0
-21
-38
-52
-48
-21
-9
-3
15
16
-7
-28
-54
-58
-47
-28
-9
14
27
21
-7
-9
-37
-41
-40
-15
-3
26
35
14
-7
-16
-43
-47
-39
-14
-11
15
18
6
-12
-24
-48
-51
-43
-18
-6
18
24
16
-1
-8
-38
-35
-33
-19
-14
14
21
21
5
-4
-48
-39
-25
-9
-3
26
30
14
-7
-4
-37
-34
-22
-9
-2
34
32
18
-8
-11
-48
-57
-45
-26
-22
16
23
9
-17
-24
-55
-54
-36
-23
-7
10
18
-1
-17
-28
-48
-51
-46
-28
-6
15
20
0
-23
-33
-57
-48
-31
-5
7
34
38
22
6
-13
-22
-23
0
15
21
36
47
31
5
-10
-47
-56
-28
-7
-3
7
-1
-22
-43
-54
-71
-69
-50
-26
-6
10
9
-5
-18
-37
-41
-31
-19
1
23
30
18
-5
-19
-35
-33
-29
-9
-1
18
24
14
-2
-7
-28
-26
-33
-20
-9
19
27
20
2
-21
-39
-32
-31
-25
-5
28
32
19
0
0
-20
-19
-15
-5
7
35
38
25
-1
-11
-41
-35
-27
-5
2
34
38
35
16
7
-28
-26
-26
-4
7
31
41
38
20
11
-14
-11
5
32
31
55
48
35
14
8
-17
-14
7
20
29
69
71
51
29
19
-4
-4
11
40
49
65
74
56
40
30
0
-1
9
20
42
63
56
45
35
19
-12
-11
-1
15
35
42
30
18
8
0
-18
-22
-13
6
18
31
27
14
0
-20
-33
-34
-15
2
26
33
31
6
-13
-30
-53
-49
-18
1
22
25
17
-1
-14
-33
-37
-20
-1
3
17
16
13
-4
-13
-38
-46
-44
-21
-7
16
20
8
-1
-6
-33
-42
-24
0
-2
22
30
23
7
-10
-42
-36
-34
-23
-2
21
19
15
1
-6
-30
-23
-17
-1
4
35
34
16
-4
-11
-42
-42
-32
-13
0
26
20
13
-7
-14
-31
-29
-16
-1
0
23
29
20
9
-3
-27
-29
-13
13
12
40
26
0
-20
-15
-38
-40
-21
2
13
34
40
19
5
-16
-44
-42
-33
-1
19
35
43
30
6
-21
-49
-54
-43
-9
16
33
29
12
-3
-15
-32
-36
-24
-3
3
22
30
14
-5
-17
-34
-31
-16
4
17
35
31
19
3
-22
-42
-46
-32
-9
13
26
27
10
3
-23
-28
-30
-10
4
26
41
30
9
-5
-23
-35
-31
-9
3
29
31
20
4
-11
-29
-25
-25
-18
-7
17
27
30
4
-8
-26
-34
-28
-4
3
28
23
16
1
-12
-51
-42
-36
-14
6
44
38
34
12
2
-36
-33
-23
0
13
39
42
24
-2
-8
-45
-39
-20
-7
3
34
35
23
8
-8
-35
-21
-12
3
18
43
50
32
10
-2
-28
-26
-13
0
5
27
24
16
2
-8
-29
-32
-4
25
31
39
27
15
-3
-25
-46
-49
-35
-13
0
29
35
11
-10
-27
-39
-41
-25
2
17
36
35
21
4
-10
-32
-32
-15
5
21
29
34
21
-4
-14
-29
-20
-2
9
15
28
34
22
15
-6
-9
-15
7
17
26
27
8
-13
-22
-44
-52
-49
-33
-11
23
21
23
10
1
-27
-29
-26
-4
1
33
31
25
5
-4
-30
-26
-21
5
7
41
30
25
11
-6
-30
-20
-12
3
14
31
20
21
9
4
-28
-33
-19
3
14
30
32
34
13
3
-19
-24
-15
8
12
34
39
34
12
3
-22
-23
-14
1
21
52
49
36
23
6
-29
-26
-6
14
24
57
59
37
21
8
-14
-5
3
21
37
69
67
44
19
9
-13
-6
14
36
45
66
67
58
36
24
9
13
34
45
56
79
75
58
45
32
10
9
24
40
59
81
82
60
42
20
-4
0
5
21
40
53
52
29
9
-5
-19
-13
1
7
41
60
53
25
1
-23
-23
-21
-4
11
30
39
37
20
-8
-28
-18
-13
-4
6
33
41
30
11
1
-27
-32
-29
-8
7
30
40
30
10
-6
-29
-20
-20
-2
2
31
23
24
7
1
-22
-24
-31
-10
-2
35
39
35
14
2
-36
-39
-14
9
19
43
45
24
-3
-10
-42
-40
-25
1
11
39
34
24
10
-2
-31
-20
-28
-12
2
33
41
30
5
-3
-33
-31
-21
2
15
44
43
29
10
4
-13
-10
-4
8
10
30
35
18
-1
-12
-29
-32
-14
-5
5
27
29
9
5
-11
-29
-24
-6
5
14
40
45
18
1
-8
-24
-25
-9
-2
16
36
31
17
2
-7
-16
-21
-12
10
18
37
40
19
5
-23
-31
-20
-16
4
30
41
33
8
-2
-33
-40
-26
-15
-3
27
23
15
20
11
-18
-28
-21
-5
2
38
50
45
19
4
-27
-27
-20
-1
13
35
32
25
6
-9
-35
-37
-22
3
11
33
25
21
2
-12
-37
-34
-28
-5
11
42
40
35
10
2
-38
-37
-27
-8
3
37
35
25
10
-6
-34
-22
-15
-1
9
30
22
21
15
2
-24
-24
0
22
22
55
51
32
17
21
-3
-8
-1
18
34
58
56
39
23
14
-11
-7
8
31
39
52
58
50
35
16
-2
-15
7
34
50
71
68
47
22
4
-15
-10
4
22
39
54
55
37
20
11
-8
-10
2
15
36
49
37
12
3
-9
-22
-14
15
25
37
41
29
2
-6
-22
-16
-21
-9
9
43
40
25
12
13
-16
-37
-36
-15
11
51
57
53
28
22
6
8
3
13
18
63
52
44
23
10
-3
2
1
25
32
62
66
52
22
-2
-34
-40
-46
-31
-12
18
22
13
0
-2
-20
-8
-7
7
21
44
39
32
14
2
-28
-28
-15
3
17
46
52
36
22
11
-19
-18
-9
17
22
51
48
42
18
1
-25
-21
-9
13
26
54
50
26
5
0
-15
-21
-4
6
11
40
48
35
18
7
-10
-7
3
14
34
53
54
35
21
12
-2
13
16
31
38
57
54
38
25
8
-3
1
23
34
52
62
60
46
48
22
3
-4
14
23
50
75
77
61
43
30
29
32
39
51
79
85
86
58
42
14
14
19
35
48
67
74
65
45
31
6
2
24
42
49
80
82
62
27
16
-7
-2
4
19
33
56
57
49
19
4
-16
1
6
14
19
54
59
44
21
13
-20
-22
-14
14
22
42
47
37
15
2
-24
-25
-21
6
10
42
52
37
19
11
-14
-33
-18
15
19
40
40
40
27
4
-18
-21
-24
-7
8
39
36
28
15
-3
-28
-20
-14
6
21
37
47
29
10
-3
-26
-23
-6
14
26
49
45
26
5
4
-9
-22
-9
8
23
44
47
27
5
-1
-11
-13
11
16
22
33
45
24
3
-13
-28
-19
2
20
43
50
38
23
10
-10
-20
-15
0
9
41
48
47
21
2
-22
-22
-16
-1
19
32
33
37
16
6
-14
-23
-23
-7
10
44
62
48
31
17
-19
-28
-31
-5
2
45
48
31
7
3
-18
-21
-13
-1
4
43
36
28
20
31
-10
-14
-22
7
14
42
38
28
4
-4
-24
-18
-15
3
13
55
49
40
19
6
-25
-25
-10
12
19
45
46
41
12
-2
-28
-27
-13
13
18
44
34
21
-1
-1
-23
-18
-10
0
23
49
55
34
9
-4
-21
-29
-19
3
14
53
65
37
14
4
-21
-16
-1
10
26
55
62
47
21
5
-6
-6
4
13
25
37
42
40
25
-1
-20
-18
-11
4
19
39
42
28
8
-13
-28
-24
2
5
27
46
35
14
2
-11
-29
-37
-5
10
41
53
35
20
7
-17
-18
-14
4
20
37
39
40
18
7
-4
1
12
29
39
56
49
45
29
20
0
2
10
20
27
47
45
42
19
0
-41
-52
-57
-22
-11
20
27
24
9
6
-17
-11
-5
9
12
39
35
26
16
1
-19
-17
-6
16
19
36
47
39
22
4
-22
-28
-2
19
31
61
57
40
24
15
-11
-10
4
13
26
54
55
36
12
3
-16
-13
-9
14
38
65
62
36
7
-1
-7
-3
9
25
35
54
53
38
24
15
-9
-13
8
26
44
65
59
33
24
25
13
13
28
39
59
71
70
50
33
17
2
6
35
49
63
75
79
73
52
23
22
23
49
65
86
92
91
61
56
28
36
36
52
69
91
95
83
64
43
18
9
22
42
52
81
76
66
45
28
1
-4
-2
21
26
53
55
44
27
18
1
-1
2
19
22
46
46
35
24
21
-10
-16
-6
20
29
52
52
50
33
19
-15
-16
-12
7
16
42
47
30
14
6
-13
-16
-6
13
14
46
48
24
15
8
-29
-30
-5
17
25
45
52
37
13
-4
-20
-24
-8
16
21
40
53
39
18
10
-8
-18
4
29
39
50
49
27
16
4
-23
-25
-7
16
31
57
49
31
14
-1
-14
-9
5
20
33
50
40
23
12
-4
-15
-26
2
29
41
52
48
28
15
8
2
1
4
11
42
52
43
18
11
-17
-16
-11
7
16
40
57
50
27
12
-2
-3
-6
9
17
37
38
35
15
18
-12
-12
-3
11
21
51
62
52
36
14
-31
-16
-3
10
28
54
50
39
9
3
-25
-31
-15
11
22
52
50
43
21
5
-22
-16
-10
7
20
50
58
49
22
27
2
-3
-10
4
25
50
40
27
17
3
-20
-16
-10
19
23
56
56
43
26
9
-15
-16
-17
4
20
46
52
41
22
3
-20
-21
-7
21
39
42
40
27
8
-6
-24
-16
17
32
37
60
51
35
11
-10
-29
-21
-1
14
29
43
56
42
27
13
0
3
11
16
37
50
40
26
10
-10
-16
-5
10
39
62
69
61
41
14
2
5
-8
14
29
51
55
49
30
28
-1
-1
3
18
33
49
51
49
24
23
-2
-10
-12
5
24
51
61
51
25
15
-10
-24
-15
8
23
66
71
48
26
14
-15
-13
-10
15
26
52
59
48
26
7
-23
-17
1
14
19
51
59
52
32
32
1
-5
2
22
39
60
65
58
36
32
0
4
15
33
34
57
49
22
6
-2
-27
-37
-28
2
9
52
71
44
11
-3
-20
-17
-5
10
21
49
52
41
25
10
-15
-19
-4
11
28
57
57
49
26
2
-8
-4
17
28
37
50
50
39
13
-1
-11
-3
10
30
49
74
67
41
25
5
-4
-9
6
32
44
54
50
40
26
0
-10
-4
19
26
48
61
51
33
25
-3
-6
7
32
44
55
61
65
47
41
17
20
26
41
45
71
72
68
52
34
5
20
22
44
53
77
77
79
58
51
28
28
29
49
57
79
86
76
51
46
25
27
36
52
55
87
89
81
61
42
14
12
21
47
63
80
72
58
36
26
11
14
16
35
39
61
64
43
17
16
-10
-9
10
22
23
50
55
40
17
0
-28
-23
0
21
37
56
48
34
18
8
-14
-10
-3
19
38
57
54
32
12
-2
-17
-17
-5
17
37
53
49
30
21
-4
-17
-19
5
23
34
52
40
23
4
-10
-19
-12
5
21
32
45
46
24
8
-14
-12
-6
19
36
45
53
44
27
13
-9
-14
-13
3
13
26
47
41
19
9
-19
-18
-9
10
11
39
52
44
17
7
-16
-17
-15
11
18
43
44
43
30
24
-13
-18
-18
11
17
51
54
47
24
21
-1
-9
-10
-4
8
33
29
21
11
4
-25
-21
-9
6
10
44
47
36
12
9
-26
-26
-11
4
15
35
39
38
18
-3
-24
-22
-8
19
22
49
54
33
15
10
-21
-13
-7
4
18
40
41
29
10
-5
-26
-26
-13
12
22
36
42
34
19
-4
-23
-29
-14
6
20
50
48
29
8
-9
-30
-28
-10
16
33
53
42
19
1
-21
-37
-24
-7
1
29
45
45
25
18
-13
-27
-34
-11
15
32
44
36
17
-2
-28
-30
-19
-3
9
24
34
29
11
-3
-21
-12
-8
5
17
30
36
34
15
7
-24
-17
-23
-5
12
33
36
33
7
-2
-24
-22
-13
8
12
38
42
26
6
-5
-28
-26
-23
-5
2
34
48
40
15
5
-23
-18
-8
8
21
54
49
43
25
17
-16
-16
0
30
26
51
39
20
10
4
-27
-34
-27
-3
14
49
49
33
11
-2
-33
-29
-27
-10
5
34
30
15
-3
-3
-35
-43
-15
1
9
31
32
13
0
-11
-34
-39
-22
-8
17
44
40
24
2
-3
-21
-19
-3
10
28
46
32
25
22
12
-12
-8
15
12
21
39
25
11
-13
-33
-40
-52
-44
-19
0
20
22
25
1
-28
-31
-19
-10
-3
16
24
20
6
-8
-26
-24
-11
-2
6
30
39
41
23
9
-15
-21
-31
-10
4
31
32
29
10
2
-18
-14
-20
-3
13
50
42
34
8
3
-25
-16
-8
7
9
35
38
24
6
-3
-35
-41
-35
0
20
56
50
33
11
7
-22
-21
-1
13
27
47
50
41
24
12
-20
-11
-3
15
34
65
62
48
38
34
2
-5
3
26
33
60
57
45
21
8
-13
-6
17
34
43
70
64
40
26
20
3
-1
20
39
64
76
66
55
29
15
-6
-5
14
41
52
75
69
42
6
-17
-25
-25
-12
3
25
42
44
19
-5
-29
-41
-30
-8
-4
20
34
27
-1
-11
-30
-47
-39
-17
-6
17
27
17
-1
-18
-32
-38
-36
-14
0
24
30
24
1
-10
-37
-49
-49
-24
-7
16
21
13
-1
-17
-46
-41
-31
-13
-8
25
36
28
-5
-19
-45
-37
-42
-21
-3
34
36
17
-2
-18
-41
-40
-35
-21
-15
25
9
-5
-20
-20
-37
-39
-35
-26
-13
22
22
9
-7
-16
-42
-33
-30
-14
0
30
