-48
-44
-41
-43
-43
-39
-49
-49
-41
-47
-43
-46
-49
-46
-47
-46
-49
-43
-41
-45
-43
-45
-46
-39
-45
-46
-48
-44
-45
-42
-43
-42
-48
-46
-43
-51
-45
-43
-41
-44
-40
-43
-42
-40
-53
-54
-50
-46
-43
-47
-46
-48
-49
-46
-46
-49
-49
-45
-44
-48
-40
-46
-45
-46
-43
-48
-50
-46
-50
-50
-44
-43
-50
-53
-49
-48
-45
-46
-38
-34
-36
-42
-43
-46
-52
-52
-49
-45
-50
-50
-38
-41
-38
-49
-45
-47
-46
-45
-46
-45
-42
-41
-44
-43
-41
-38
-41
-39
-44
-44
-40
-36
-46
-38
-41
-41
-44
-42
-36
-35
-29
-34
-34
-40
-37
-35
-34
-36
-37
-28
-32
-41
-35
-36
-36
-33
-38
-44
-43
-43
-40
-44
-44
-48
-47
-48
-47
-46
-48
-50
-47
-43
-38
-42
-48
-47
-36
-42
-46
-46
-51
-51
-45
-46
-47
-49
-46
-44
-47
-46
-46
-50
-45
-47
-39
-29
-10
12
33
46
71
86
96
107
106
109
90
81
82
63
60
24
-10
-44
-91
-97
-86
-73
-60
-47
-42
-39
-37
-34
-39
-41
-50
-45
-40
-33
-40
-48
-50
-51
-50
-49
-43
-40
-42
-45
-48
-49
-46
-44
-40
-40
-43
-50
-43
-34
-37
-47
-43
-40
-42
-43
-39
-42
-37
-37
-39
-43
-45
-38
-34
-39
-37
-33
-33
-42
-34
-37
-34
-41
-37
-34
-34
-36
-27
-29
-37
-31
-33
-34
-32
-35
-24
-22
-26
-23
-24
-17
-13
-23
-22
-16
-20
-18
-15
-13
-16
-16
-11
-10
-8
-12
-9
-3
0
3
-4
1
6
9
3
5
8
11
9
14
14
15
18
19
15
16
19
18
18
17
25
19
12
16
20
13
13
13
10
4
7
-2
2
-10
-5
-11
-14
-18
-17
-17
-19
-27
-32
-31
-31
-33
-33
-29
-35
-32
-35
-38
-42
-37
-39
-38
-39
-39
-42
-40
-44
-37
-45
-54
-41
-50
-46
-48
-42
-38
-37
-38
-37
-42
-41
-43
-40
-40
-37
-46
-47
-40
-41
-45
-40
-45
-44
-45
-43
-44
-45
-47
-42
-37
-40
-43
-42
-43
-44
-39
-39
-41
-43
-42
-40
-43
-45
-43
-47
-46
-49
-50
-37
-35
-38
-39
-38
-46
-40
-38
-47
-40
-40
-39
-52
-49
-46
-43
-40
-45
-48
-40
-40
-40
-39
-44
-44
-47
-37
-41
-45
-44
-46
-45
-45
-50
-46
-45
-40
-42
-42
-39
-48
-43
-42
-42
-48
-47
-40
-45
-46
-42
-41
-45
-45
-40
-31
-36
-45
-46
-50
-47
-42
-41
-41
-40
-44
-48
-44
-43
-44
-41
-43
-45
-41
-42
-45
-51
-49
-44
-42
-43
-45
-43
-45
-42
-46
-40
-41
-45
-45
-39
-35
-31
-40
-32
-45
-43
-42
-44
-41
-43
-39
-39
-41
-38
-35
-39
-41
-29
-31
-31
-33
-26
-26
-33
-36
-38
-33
-36
-34
-35
-39
-38
-38
-36
-37
-42
-43
-41
-39
-48
-50
-49
-46
-47
-52
-44
-49
-48
-41
-49
-44
-53
-49
-48
-45
-48
-49
-46
-51
-57
-56
-49
-50
-51
-48
-55
-54
-50
-46
-53
-54
-58
-59
-56
-55
-43
-24
-4
14
27
52
70
93
105
120
120
109
103
108
91
77
54
18
-17
-54
-82
-87
-78
-60
-52
-44
-51
-49
-45
-51
-51
-51
-50
-58
-58
-45
-52
-58
-55
-53
-56
-57
-54
-52
-55
-54
-56
-53
-55
-56
-54
-55
-53
-49
-52
-56
-54
-54
-52
-51
-53
-51
-53
-48
-51
-54
-51
-48
-49
-47
-44
-46
-48
-49
-43
-48
-46
-43
-43
-45
-44
-43
-47
-42
-42
-47
-40
-42
-34
-42
-41
-41
-38
-40
-38
-31
-37
-36
-36
-29
-34
-31
-33
-30
-28
-25
-25
-18
-24
-22
-22
-13
-8
-18
-9
-5
-9
-11
-5
-5
0
-3
-3
-5
-5
3
6
2
7
9
10
8
10
9
12
12
6
7
8
15
9
2
0
3
-1
-2
-6
-3
-8
-13
-15
-17
-20
-24
-25
-31
-31
-37
-36
-34
-34
-41
-37
-46
-42
-41
-46
-46
-51
-53
-46
-56
-57
-47
-43
-43
-53
-56
-53
-53
-60
-59
-52
-54
-54
-50
-51
-54
-52
-49
-54
-55
-55
-53
-54
-53
-53
-53
-46
-46
-52
-50
-55
-55
-54
-55
-51
-47
-54
-53
-60
-59
-50
-50
-54
-56
-48
-50
-55
-58
-59
-58
-51
-53
-55
-53
-52
-55
-53
-49
-54
-57
-57
-54
-58
-48
-52
-56
-50
-55
-60
-57
-56
-54
-56
-59
-54
-54
-54
-53
-55
-58
-56
-55
-52
-52
-53
-60
-56
-58
-61
-58
-59
-56
-58
-51
-51
-59
-61
-59
-53
-50
-59
-63
-59
-49
-50
-61
-54
-54
-63
-63
-60
-63
-56
-56
-59
-60
-55
-56
-56
-57
-59
-52
-60
-65
-62
-55
-56
-58
-57
-59
-54
-54
-56
-54
-54
-56
-54
-59
-63
-60
-56
-66
-60
-57
-54
-64
-57
-59
-57
-57
-60
-58
-65
-62
-58
-60
-58
-57
-50
-57
-65
-62
-61
-57
-57
-55
-51
-59
-53
-51
-56
-57
-60
-58
-55
-56
-59
-55
-60
-56
-52
-54
-60
-50
-50
-55
-49
-50
-56
-60
-52
-53
-56
-51
-49
-55
-48
-48
-48
-57
-53
-49
-50
-51
-43
-41
-38
-44
-48
-43
-45
-46
-48
-49
-52
-47
-48
-51
-55
-51
-54
-52
-50
-54
-64
-57
-59
-61
-63
-66
-53
-57
-60
-62
-62
-59
-64
-57
-57
-63
-64
-61
-58
-62
-60
-63
-60
-58
-60
-62
-60
-62
-61
-62
-67
-68
-67
-66
-63
-45
-30
-6
18
26
50
80
90
107
110
113
97
90
91
72
59
42
4
-44
-85
-86
-90
-82
-72
-68
-60
-58
-55
-58
-59
-56
-64
-62
-58
-57
-62
-59
-60
-67
-61
-63
-61
-58
-63
-64
-59
-60
-67
-64
-64
-64
-60
-59
-58
-56
-61
-59
-59
-62
-61
-58
-61
-60
-51
-55
-58
-55
-54
-56
-55
-57
-56
-50
-50
-55
-60
-59
-49
-52
-54
-49
-50
-48
-52
-47
-48
-46
-44
-51
-46
-39
-44
-42
-45
-43
-38
-34
-43
-29
-30
-34
-30
-33
-34
-25
-30
-26
-27
-25
-27
-23
-18
-14
-15
-11
-10
-6
-4
-1
-4
-5
3
1
-2
8
6
6
6
9
13
13
19
14
8
14
15
17
13
11
12
16
15
12
4
2
-4
-2
-1
-4
-9
-15
-14
-18
-18
-29
-27
-21
-23
-30
-35
-32
-32
-34
-37
-38
-39
-46
-49
-49
-40
-47
-50
-51
-49
-50
-52
-52
-52
-49
-53
-51
-48
-48
-40
-43
-43
-48
-53
-56
-59
-52
-49
-47
-59
-53
-48
-50
-41
-52
-49
-58
-52
-46
-48
-50
-46
-49
-51
-45
-43
-41
-51
-51
-52
-52
-48
-52
-56
-53
-54
-52
-48
-43
-52
-58
-53
-57
-46
-45
-45
-47
-53
-51
-47
-51
-53
-53
-53
-58
-51
-53
-52
-53
-58
-48
-49
-53
-52
-51
-49
-50
-46
-49
-48
-46
-46
-47
-57
-53
-55
-55
-48
-50
-58
-53
-56
-53
-52
-44
-52
-55
-60
-53
-52
-55
-50
-52
-57
-54
-52
-53
-53
-50
-52
-53
-49
-46
-55
-55
-55
-58
-56
-52
-54
-51
-52
-55
-47
-52
-52
-49
-56
-57
-60
-57
-50
-51
-47
-49
-52
-56
-57
-54
-52
-51
-53
-52
-57
-54
-57
-49
-52
-56
-52
-52
-52
-50
-59
-50
-54
-58
-61
-51
-52
-51
-51
-56
-51
-55
-53
-55
-49
-55
-55
-57
-52
-53
-52
-51
-56
-47
-53
-52
-50
-50
-58
-53
-57
-47
-51
-52
-53
-56
-55
-48
-46
-46
-54
-57
-54
-51
-56
-56
-54
-50
-57
-54
-40
-48
-46
-53
-52
-54
-45
-42
-47
-50
-49
-47
-53
-48
-51
-45
-48
-48
-46
-45
-41
-38
-43
-38
-38
-33
-38
-51
-41
-43
-43
-42
-39
-39
-49
-55
-49
-39
-48
-58
-60
-60
-57
-53
-56
-55
-51
-54
-55
-57
-54
-53
-57
-56
-45
-61
-49
-57
-56
-53
-58
-61
-56
-56
-54
-53
-54
-54
-53
-61
-58
-67
-65
-59
-59
-47
-22
-6
16
29
48
72
90
103
117
117
96
92
103
88
64
42
13
-19
-64
-90
-91
-82
-70
-58
-56
-50
-45
-49
-54
-53
-58
-62
-59
-55
-56
-53
-58
-55
-54
-55
-57
-59
-61
-55
-54
-57
-59
-57
-54
-56
-52
-56
-60
-51
-55
-50
-48
-56
-51
-55
-53
-56
-59
-59
-52
-54
-47
-46
-45
-54
-46
-41
-39
-41
-44
-44
-45
-51
-43
-44
-40
-39
-42
-41
-40
-41
-37
-39
-43
-36
-34
-35
-34
-35
-34
-34
-28
-24
-26
-24
-29
-32
-30
-16
-18
-20
-20
-10
-14
-13
-10
-4
-9
-5
0
-2
3
3
5
5
11
12
8
8
12
11
17
15
19
19
21
23
23
19
22
19
22
23
22
22
21
22
6
8
7
10
10
6
1
1
-7
-6
-7
-17
-15
-18
-18
-19
-24
-20
-23
-24
-27
-33
-35
-42
-39
-38
-41
-41
-38
-40
-41
-33
-37
-40
-44
-43
-40
-43
-39
-42
-40
-49
-45
-45
-41
-41
-44
-41
-44
-44
-41
-50
-46
-40
-39
-41
-39
-35
-41
-48
-46
-42
-48
-45
-46
-38
-40
-44
-48
-44
-46
-40
-41
-41
-42
-37
-37
-41
-46
-47
-41
-44
-46
-45
-46
-46
-49
-45
-47
-48
-39
-45
-50
-47
-44
-47
-45
-42
-45
-40
-46
-47
-42
-44
-41
-43
-49
-46
-45
-46
-44
-50
-50
-47
-43
-46
-50
-42
-46
-48
-49
-47
-51
-44
-53
-52
-51
-53
-46
-43
-46
-47
-46
-51
-47
-48
-42
-51
-52
-47
-48
-48
-48
-50
-43
-51
-55
-53
-52
-51
-49
-49
-51
-52
-48
-43
-48
-46
-39
-48
-53
-54
-55
-46
-52
-50
-45
-54
-48
-43
-48
-52
-52
-48
-50
-53
-43
-48
-50
-50
-52
-50
-50
-49
-49
-46
-50
-51
-48
-48
-47
-50
-50
-51
-52
-45
-41
-47
-45
-43
-44
-48
-44
-47
-47
-41
-40
-45
-52
-52
-48
-50
-50
-47
-42
-38
-41
-46
-47
-47
-43
-46
-54
-56
-47
-47
-43
-28
-23
-30
-44
-44
-36
-37
-32
-34
-33
-31
-33
-33
-36
-30
-22
-21
-24
-28
-29
-37
-41
-37
-39
-38
-38
-38
-28
-30
-42
-26
-30
-35
-31
-27
-34
-31
-28
-33
-28
-16
-23
-30
-34
-34
-32
-30
-30
-24
-17
-13
-16
-22
-23
-22
-15
-17
-29
-21
-17
-35
-29
-26
-24
-14
-6
-7
7
23
46
78
91
104
122
130
130
118
117
99
99
105
81
54
32
8
-22
-52
-61
-51
-37
-24
0
10
14
14
5
6
11
11
11
13
13
16
25
18
13
6
10
16
12
18
16
17
18
11
20
24
23
28
29
22
22
24
27
29
32
32
24
30
24
22
36
32
31
26
24
30
32
40
41
39
37
32
28
31
41
34
37
45
45
39
40
42
37
43
46
42
49
49
42
52
52
54
48
47
52
54
57
65
64
53
58
60
61
68
69
69
66
64
74
79
62
70
77
90
92
87
87
87
87
87
84
92
96
95
94
91
93
94
92
93
94
97
98
90
93
89
96
99
89
87
89
83
84
80
82
75
65
66
65
66
65
61
56
61
52
61
48
41
39
44
43
45
46
42
44
49
38
31
37
27
32
32
36
38
43
37
33
34
33
37
30
26
27
36
41
43
34
31
36
35
31
34
34
38
34
30
30
32
29
34
34
28
30
26
30
33
33
35
32
29
25
25
27
33
31
34
30
28
33
35
35
30
26
30
33
27
30
29
34
32
25
21
25
29
26
27
26
28
33
22
22
24
25
26
30
34
23
18
16
22
18
22
18
14
16
22
14
14
10
12
9
5
12
15
7
5
1
3
6
-3
-1
1
-2
-1
-5
-4
-10
-12
-8
-4
0
-6
-6
-8
-7
-13
-12
-13
-18
-18
-20
-16
-18
-24
-19
-19
-25
-17
-22
-30
-30
-24
-21
-25
-29
-28
-29
-35
-28
-25
-30
-32
-30
-28
-35
-37
-31
-32
-32
-29
-35
-30
-31
-28
-26
-32
-35
-33
-41
-33
-30
-26
-35
-41
-38
-35
-33
-31
-35
-36
-36
-40
-44
-43
-33
-36
-43
-37
-40
-38
-41
-46
-44
-44
-47
-49
-46
-45
-51
-49
-44
-43
-46
-44
-49
-47
-45
-36
-40
-46
-45
-49
-42
-42
-44
-46
-40
-41
-41
-52
-46
-48
-44
-48
-43
-44
-45
-48
-44
-45
-31
-11
11
35
54
68
91
110
118
111
112
97
106
109
83
65
46
12
-32
-44
-47
-46
-51
-52
-52
-53
-50
-51
-58
-48
-55
-61
-56
-50
-54
-50
-50
-51
-57
-56
-52
-61
-58
-60
-55
-53
-60
-54
-56
-51
-52
-57
-54
-55
-58
-58
-52
-58
-54
-53
-47
-51
-54
-54
-60
-52
-52
-51
-48
-52
-49
-51
-47
-46
-51
-39
-46
-57
-57
-53
-50
-49
-51
-50
-54
-42
-39
-42
-38
-31
-38
-40
-37
-35
-33
-32
-26
-34
-34
-34
-31
-28
-31
-25
-25
-23
-23
-17
-15
-12
-9
-7
-9
-7
-14
-3
1
0
-1
4
2
4
0
3
4
9
3
7
8
9
6
6
11
6
6
3
-5
5
-1
-7
-10
-5
-13
-13
-16
-24
-28
-30
-30
-30
-32
-33
-39
-48
-44
-43
-48
-46
-48
-46
-41
-47
-48
-52
-56
-53
-53
-51
-48
-53
-57
-54
-54
-57
-52
-52
-59
-54
-57
-60
-56
-49
-58
-55
-52
-55
-60
-55
-58
-52
-59
-59
-54
-57
-60
-55
-56
-55
-60
-59
-51
-55
-53
-56
-53
-52
-53
-55
-56
-59
-55
-56
-50
-52
-58
-57
-50
-51
-52
-57
-57
-52
-55
-60
-53
-54
-55
-43
-58
-56
-51
-53
-58
-56
-50
-51
-52
-54
-57
-57
-58
-60
-53
-62
-60
-51
-54
-54
-58
-54
-58
-52
-54
-56
-54
-60
-57
-54
-53
-45
-52
-55
-52
-57
-61
-64
-53
-56
-53
-58
-62
-54
-59
-56
-57
-53
-59
-63
-55
-53
-52
-56
-55
-53
-58
-57
-55
-58
-53
-56
-59
-55
-60
-64
-61
-63
-57
-54
-62
-61
-55
-56
-57
-57
-58
-51
-61
-57
-59
-59
-55
-49
-56
-60
-55
-52
-61
-60
-58
-60
-59
-61
-56
-54
-57
-59
-53
-50
-52
-58
-64
-59
-54
-52
-52
-57
-56
-56
-60
-60
-58
-53
-52
-43
-55
-51
-51
-49
-54
-47
-49
-51
-48
-47
-50
-45
-42
-44
-44
-42
-44
-46
-47
-47
-46
-40
-43
-48
-49
-49
-50
-46
-50
-58
-57
-55
-52
-60
-68
-64
-57
-55
-61
-61
-59
-56
-54
-55
-62
-63
-58
-54
-62
-57
-58
-57
-59
-65
-62
-61
-54
-58
-56
-65
-60
-61
-63
-67
-68
-66
-62
-50
-26
-3
25
38
60
80
96
118
123
122
103
100
104
83
66
40
14
-26
-81
-91
-84
-76
-65
-66
-60
-47
-51
-56
-60
-58
-57
-59
-58
-61
-60
-58
-59
-52
-54
-59
-59
-58
-60
-59
-65
-63
-58
-57
-60
-56
-58
-56
-57
-58
-58
-58
-57
-51
-59
-59
-61
-55
-56
-48
-53
-58
-63
-62
-53
-47
-51
-56
-51
-49
-51
-54
-47
-51
-51
-49
-52
-50
-46
-44
-44
-46
-46
-45
-42
-38
-36
-44
-41
-45
-41
-39
-38
-33
-32
-28
-34
-28
-36
-27
-29
-26
-23
-22
-18
-17
-14
-14
-14
-11
-15
-8
-7
-5
-2
-7
-5
0
-4
0
11
14
10
10
5
12
13
10
11
9
16
17
17
13
11
16
9
12
6
7
5
0
-7
-10
-9
-4
-6
-13
-26
-22
-19
-23
-31
-33
-32
-35
-42
-45
-40
-41
-48
-37
-42
-49
-52
-45
-45
-47
-48
-46
-49
-44
-52
-52
-52
-46
-46
-42
-47
-50
-51
-53
-54
-50
-50
-49
-49
-51
-47
-50
-44
-55
-52
-51
-47
-52
-53
-46
-52
-49
-52
-47
-48
-44
-50
-47
-50
-50
-49
-41
-47
-46
-50
-46
-53
-44
-51
-45
-44
-49
-51
-49
-46
-47
-44
-46
-54
-62
-45
-46
-47
-50
-43
-48
-48
-49
-50
-45
-45
-47
-52
-53
-53
-53
-45
-47
-48
-44
-44
-45
-46
-49
-43
-48
-52
-53
-47
-45
-50
-55
-51
-48
-55
-50
-51
-49
-53
-50
-40
-47
-53
-40
-41
-48
-46
-48
-56
-51
-48
-47
-52
-50
-48
-50
-47
-48
-55
-45
-53
-51
-48
-52
-52
-49
-44
-46
-49
-47
-45
-49
-48
-46
-46
-44
-50
-47
-46
-59
-53
-49
-48
-53
-47
-48
-54
-53
-44
-48
-46
-36
-40
-44
-46
-51
-48
-50
-44
-45
-54
-50
-49
-41
-47
-44
-46
-42
-41
-36
-38
-35
-39
-43
-41
-55
-40
-32
-39
-33
-36
-37
-35
-38
-40
-41
-41
-39
-50
-43
-53
-55
-55
-49
-54
-57
-57
-53
-56
-53
-51
-51
-52
-55
-47
-53
-56
-56
-59
-54
-49
-51
-55
-54
-55
-56
-54
-58
-53
-51
-55
-55
-59
-57
-62
-58
-42
-23
1
22
34
56
82
100
116
129
135
125
108
111
92
89
59
28
6
-46
-78
-77
-74
-67
-58
-51
-40
-45
-50
-55
-54
-53
-55
-52
-48
-51
-47
-49
-57
-59
-60
-54
-53
-54
-57
-60
-55
-54
-54
-52
-56
-58
-53
-46
-47
-41
-52
-51
-54
-52
-39
-35
-40
-51
-57
-52
-51
-49
-45
-47
-40
-39
-44
-47
-48
-51
-47
-46
-43
-40
-46
-42
-40
-40
-38
-37
-41
-37
-38
-38
-29
-34
-34
-33
-34
-31
-31
-28
-26
-22
-19
-20
-25
-25
-20
-19
-12
-14
-11
-9
-14
-10
-2
-3
-2
2
0
-3
-1
10
8
13
9
12
16
16
16
14
17
23
31
28
18
20
22
22
21
24
29
28
23
25
22
21
14
11
8
5
8
5
8
-1
-7
-13
-18
-20
-15
-6
-13
-28
-27
-32
-30
-35
-34
-32
-32
-30
-35
-31
-40
-38
-39
-35
-36
-39
-43
-47
-44
-40
-37
-40
-41
-44
-40
-45
-40
-44
-43
-42
-45
-34
-34
-46
-40
-39
-43
-44
-39
-40
-44
-44
-40
-39
-41
-44
-40
-39
-42
-41
-41
-37
-42
-39
-48
-37
-34
-38
-43
-42
-47
-34
-37
-37
-41
-42
-42
-43
-43
-48
-45
-43
-37
-41
-38
-41
-42
-44
-39
-41
-42
-41
-40
-34
-39
-48
-41
-45
-50
-47
-45
-43
-41
-40
-40
-45
-45
-43
-43
-37
-42
-39
-36
-42
-46
-47
-41
-46
-46
-41
-41
-46
-41
-38
-47
-50
-41
-41
-42
-33
-43
-51
-45
-43
-43
-40
-40
-43
-45
-43
-42
-44
-47
-43
-40
-40
-43
-46
-46
-47
-40
-42
-42
-40
-39
-40
-45
-46
-45
-42
-49
-43
-40
-39
-42
-36
-41
-44
-43
-37
-42
-43
-47
-42
-41
-39
-39
-41
-37
-43
-39
-44
-42
-41
-33
-37
-41
-38
-38
-39
-40
-39
-34
-27
-33
-37
-35
-34
-27
-25
-26
-27
-26
-27
-25
-27
-22
-26
-28
-26
-32
-33
-20
-33
-38
-43
-37
-39
-37
-38
-39
-43
-33
-42
-44
-41
-42
-44
-43
-49
-45
-44
-50
-46
-40
-39
-40
-40
-43
-38
-41
-42
-41
-42
-44
-45
-41
-44
-44
-43
-49
-43
-55
-49
-43
-28
-15
11
38
48
63
94
112
124
145
145
129
115
126
107
89
62
37
11
-43
-72
-69
-66
-61
-48
-33
-29
-30
-35
-41
-47
-44
-39
-38
-38
-35
-34
-38
-43
-37
-42
-39
-40
-40
-39
-40
-38
-42
-40
-38
-39
-40
-38
-36
-35
-37
-32
-35
-39
-38
-21
-36
-41
-38
-39
-28
-29
-31
-32
-33
-33
-32
-31
-34
-35
-32
-26
-28
-22
-20
-28
-28
-25
-27
-26
-22
-25
-24
-24
-22
-21
-18
-15
-10
-3
-13
-19
-18
-15
-10
-13
-12
-3
-7
-9
-3
-1
-7
1
4
4
0
13
13
11
11
13
13
15
25
18
18
22
25
37
34
30
31
35
36
33
33
41
40
38
42
43
40
40
39
31
33
26
32
33
21
25
18
19
15
15
10
8
3
3
-1
-4
-4
-6
-9
-11
-12
-12
-16
-10
-22
-20
-22
-25
-21
-22
-22
-21
-25
-26
-24
-30
-21
-22
-27
-31
-25
-26
-38
-30
-19
-20
-20
-18
-20
-26
-33
-28
-24
-19
-28
-21
-25
-31
-29
-26
-27
-25
-25
-26
-26
-26
-25
-28
-23
-25
-31
-25
-28
-26
-23
-21
-27
-25
-16
-23
-26
-21
-32
-33
-26
-22
-27
-23
-25
-27
-27
-22
-29
-28
-31
-28
-31
-24
-33
-28
-22
-25
-29
-27
-27
-24
-28
-19
-24
-26
-30
-30
-29
-28
-22
-25
-28
-31
-33
-30
-22
-26
-31
-30
-29
-29
-28
-29
-36
-38
-30
-35
-28
-27
-26
-30
-31
-30
-30
-32
-27
-30
-25
-26
-33
-27
-30
-29
-26
-24
-26
-25
-29
-36
-29
-35
-31
-26
-26
-30
-27
-27
-29
-30
-33
-36
-32
-28
-29
-29
-31
-31
-33
-29
-27
-23
-27
-33
-33
-27
-31
-35
-25
-29
-30
-28
-24
-29
-36
-26
-24
-30
-28
-28
-27
-25
-29
-35
-29
-28
-27
-27
-27
-26
-24
-23
-23
-30
-22
-19
-23
-24
-23
-21
-19
-19
-17
-19
-18
-17
-17
-23
-18
-17
-22
-28
-36
-38
-30
-27
-27
-29
-26
-30
-30
-35
-32
-34
-30
-31
-34
-31
-34
-33
-33
-29
-33
-35
-36
-28
-29
-35
-32
-27
-32
-34
-29
-28
-29
-35
-26
-37
-37
-39
-34
-29
-25
-5
17
38
49
75
100
119
128
131
130
125
120
119
98
82
56
28
-14
-62
-80
-73
-70
-49
-45
-32
-22
-23
-30
-32
-24
-30
-31
-23
-30
-25
-23
-27
-24
-27
-24
-30
-34
-26
-32
-34
-35
-20
-21
-27
-29
-29
-23
-23
-25
-27
-24
-27
-24
-24
-23
-22
-19
-17
-19
-17
-20
-23
-23
-21
-18
-14
-22
-20
-18
-17
-18
-17
-15
-14
-15
-14
-12
-11
-11
-9
-14
-11
-2
-7
-13
-7
-5
-9
-3
-1
2
12
12
7
1
5
9
11
13
15
13
14
13
17
18
23
21
21
23
25
29
25
29
39
36
37
44
42
40
37
45
50
44
53
48
49
57
56
54
49
50
53
57
52
50
45
48
49
44
41
45
37
39
32
25
22
22
18
11
12
10
8
13
6
-1
2
-4
-8
-6
-5
-5
-7
-7
-4
-8
-17
-11
-12
-16
-21
-10
-10
-16
-12
-7
-14
-10
-13
-13
-16
-11
-14
-16
-9
-15
-13
-9
-14
-26
-14
-14
-18
-17
-24
-15
-22
-21
-17
-14
-9
-13
-17
-18
-23
-18
-14
-19
-16
-14
-20
-24
-19
-17
-17
-20
-15
-19
-20
-24
-18
-12
-22
-23
-20
-22
-17
-19
-27
-18
-16
-18
-21
-21
-18
-18
-23
-18
-21
-18
-28
-19
-15
-24
-24
-21
-15
-19
-23
-20
-24
-24
-23
-18
-24
-16
-22
-22
-16
-20
-24
-17
-20
-25
-25
-24
-27
-23
-25
-18
-26
-24
-21
-31
-21
-18
-16
-20
-27
-17
-14
-15
-25
-26
-22
-19
-20
-22
-28
-24
-20
-18
-19
-21
-10
-12
-10
-14
-21
-17
-12
-13
-14
-12
-11
-8
-16
-13
-17
-18
-16
-15
-17
-24
-25
-26
-24
-19
-19
-27
-27
-27
-28
-24
-27
-27
-22
-25
-27
-28
-32
-28
-17
-26
-29
-25
-28
-25
-31
-21
-27
-25
-31
-30
-27
-28
-26
-30
-31
-34
-25
-29
-16
2
14
32
50
68
89
110
122
133
124
121
113
110
106
85
75
54
13
-41
-78
-84
-76
-61
-48
-39
-26
-19
-20
-24
-25
-26
-23
-27
-27
-24
-19
-16
-18
-28
-24
-27
-30
-27
-26
-25
-24
-20
-23
-22
-25
-16
-20
-22
-23
-26
-27
-26
-24
-22
-19
-14
-13
-17
-20
-19
-21
-19
-16
-22
-19
-13
-19
-15
-19
-16
-12
-16
-14
-14
-4
-11
-16
-17
-14
-13
-10
-2
-3
-9
-10
-6
-9
-6
-8
-3
2
-4
-6
3
3
3
4
4
12
14
9
9
6
10
15
24
20
19
19
23
26
22
24
27
30
32
36
40
35
29
36
42
35
34
44
49
46
40
42
44
44
42
44
42
45
35
38
32
31
29
25
13
14
16
9
9
0
10
10
4
0
-4
-6
-7
-10
-12
-14
-9
-19
-20
-24
-22
-18
-17
-18
-20
-22
-16
-12
-22
-21
-22
-23
-26
-29
-20
-21
-20
-13
-17
-21
-17
-17
-27
-27
-29
-27
-20
-11
-22
-23
-26
-23
-25
-21
-23
-22
-27
-27
-25
-23
-23
-24
-24
-20
-26
-26
-23
-20
-24
-19
-22
-26
-26
-28
-28
-17
-18
-21
-21
-20
-27
-33
-26
-32
-29
-33
-31
-26
-16
-16
-20
-26
-26
-28
-24
-39
-23
-24
-29
-29
-24
-21
-18
-21
-20
-27
-29
-30
-26
-28
-32
-27
-28
-28
-21
-23
-17
-22
-29
-27
-20
-25
-27
-22
-20
-28
-20
-23
-20
-23
-21
-22
-28
-30
-23
-19
-23
-22
-10
-17
-13
-14
-17
-20
-15
-13
-15
-21
-23
-16
-20
-21
-26
-21
-30
-29
-22
-22
-26
-27
-31
-31
-34
-29
-29
-29
-28
-28
-29
-31
-28
-32
-29
-25
-26
-30
-30
-28
-26
-31
-36
-35
-30
-34
-26
-24
-21
-30
-30
-28
-32
-33
-31
-29
-21
-13
7
29
53
70
91
107
122
126
131
122
111
119
111
96
78
48
2
-37
-72
-81
-67
-49
-41
-31
-29
-22
-24
-22
-25
-23
-28
-28
-30
-29
-31
-31
-29
-29
-28
-24
-24
-28
-21
-24
-30
-34
-29
-28
-27
-23
-30
-24
-29
-22
-22
-25
-23
-28
-24
-30
-27
-29
-20
-26
-21
-27
-25
-20
-21
-25
-26
-23
-19
-15
-20
-19
-17
-20
-22
-23
-21
-18
-16
-14
-12
-13
-4
-4
-15
-12
-7
-11
-13
-9
-8
-10
-9
-6
-4
0
-4
3
7
3
1
4
-1
-1
7
5
15
14
24
21
20
18
26
19
19
27
31
28
27
33
31
30
31
36
34
34
37
35
35
25
37
34
30
30
33
34
33
25
24
18
19
15
10
9
1
5
2
-5
2
3
-5
-8
-14
-14
-14
-16
-12
-12
-15
-18
-19
-14
-23
-11
-17
-17
-17
-18
-24
-18
-21
-23
-26
-20
-17
-20
-19
-18
-19
-23
-20
-24
-23
-20
-26
-27
-25
-19
-23
-24
-16
-22
-23
-21
-21
-18
-25
-12
-13
-21
-20
-21
-24
-23
-19
-19
-18
-21
-23
-22
-24
-18
-17
-26
-26
-24
-24
-25
-13
-13
-21
-26
-26
-21
-22
-22
-24
-22
-24
-24
-20
-19
-18
-23
-23
-19
-22
-23
-27
-21
-21
-23
-22
-19
-24
-19
-18
-17
-25
-12
-18
-23
-17
-13
-17
-20
-18
-15
-23
-23
-10
-9
-15
-11
-20
-19
-15
-9
-12
-11
-3
0
-4
-8
-12
-10
-15
-10
-15
-9
-15
-22
-20
-21
-21
-22
-25
-21
-27
-28
-20
-18
-26
-25
-22
-26
-29
-28
-25
-24
-20
-23
-22
-22
-20
-26
-21
-21
-14
-28
-30
-25
-24
-25
-27
-28
-28
-28
-36
-28
-26
-10
-6
15
37
54
72
95
108
120
134
133
133
127
132
119
102
88
60
16
-27
-64
-60
-56
-47
-32
-25
-23
-23
-20
-20
-16
-15
-21
-28
-17
-25
-22
-25
-27
-26
-19
-21
-20
-26
-30
-27
-27
-24
-22
-24
-21
-19
-20
-25
-23
-21
-21
-16
-20
-22
-21
-22
-24
-25
-24
-20
-18
-22
-15
-17
-17
-20
-19
-18
-18
-8
-13
-18
-14
-13
-19
-16
-17
-16
-16
-11
-10
-12
-14
-10
-11
-11
-5
-7
-10
-6
-1
-2
-5
-2
-3
1
3
0
5
6
6
14
15
6
12
15
15
17
18
26
28
19
26
27
25
28
32
33
31
34
38
39
35
37
39
40
36
36
38
41
40
38
37
33
31
32
28
30
23
23
21
22
9
10
5
6
2
-4
6
1
0
-7
-14
-3
-19
-22
-19
-8
-16
-16
-17
-12
-14
-16
-20
-13
-20
-24
-21
-18
-22
-25
-27
-21
-20
-22
-24
-28
-18
-24
-12
-14
-20
-20
-22
-23
-18
-23
-32
-17
-13
-16
-25
-22
-19
-20
-23
-17
-24
-28
-23
-19
-25
-25
-28
-24
-25
-18
-21
-27
-20
-19
-16
-25
-32
-25
-25
-22
-24
-30
-26
-26
-27
-26
-26
-25
-25
-22
-27
-21
-24
-26
-22
-23
-27
-23
-32
-31
-35
-35
-28
-27
-30
-31
-27
-27
-38
-33
-26
-29
-32
-26
-28
-26
-32
-26
-29
-30
-32
-29
-37
-31
-30
-34
-38
-35
-29
-33
-36
-30
-29
-33
-31
-25
-31
-30
-35
-28
-34
-30
-27
-25
-28
-32
-30
-30
-21
-24
-21
-27
-28
-26
-23
-24
-20
-21
-21
-27
-26
-27
-25
-24
-21
-24
-24
-25
-23
-26
-27
-38
-34
-33
-30
-40
-45
-38
-39
-37
-40
-37
-45
-42
-42
-38
-38
-38
-37
-36
-38
-39
-38
-36
-39
-36
-37
-39
-41
-44
-42
-42
-37
-42
-43
-38
-40
-47
-43
-45
-45
-41
-28
-14
10
30
39
68
89
107
118
129
124
116
109
107
96
78
61
24
-21
-50
-76
-75
-61
-46
-36
-26
-30
-31
-32
-40
-41
-40
-36
-38
-31
-34
-39
-36
-39
-36
-34
-43
-41
-37
-37
-37
-46
-42
-39
-42
-39
-40
-38
-46
-37
-42
-39
-34
-43
-43
-33
-31
-35
-36
-36
-35
-35
-33
-35
-39
-37
-35
-35
-30
-29
-27
-36
-33
-34
-38
-33
-36
-27
-23
-22
-22
-29
-25
-25
-27
-24
-20
-21
-22
-26
-19
-13
-17
-19
-16
-16
-16
-15
-14
-9
-4
-5
-9
-14
-6
2
1
-1
9
7
12
15
17
8
18
14
18
16
18
21
24
23
21
21
32
25
28
30
29
28
24
28
28
29
28
27
25
22
17
15
15
17
14
6
2
0
1
-3
-7
-7
-4
-9
-17
-15
-16
-11
-17
-24
-27
-29
-30
-26
-24
-31
-29
-27
-24
-28
-30
-35
-28
-27
-26
-26
-31
-31
-36
-29
-24
-34
-40
-31
-25
-28
-24
-27
-29
-24
-27
-32
-29
-33
-28
-27
-27
-28
-31
-32
-32
-35
-32
-25
-27
-28
-28
-38
-32
-34
-31
-28
-25
-38
-34
-29
-32
-34
-29
-31
-32
-31
-34
-32
-36
-34
-35
-37
-41
-38
-30
-36
-43
-35
-38
-40
-35
-37
-38
-30
-42
-38
-37
-36
-37
-44
-43
-38
-37
-39
-39
-41
-40
-32
-39
-38
-42
-39
-39
-43
-38
-41
-39
-39
-41
-37
-44
-35
-44
-48
-34
-43
-45
-35
-39
-32
-38
-44
-43
-44
-45
-38
-38
-38
-40
-40
-35
-39
-42
-43
-32
-34
-35
-36
-38
-46
-37
-38
-32
-37
-41
-33
-36
-41
-42
-38
-37
-42
-41
-42
-44
-34
-35
-38
-39
-45
-38
-37
-37
-41
-44
-41
-37
-36
-34
-40
-40
-43
-39
-46
-38
-42
-38
-40
-37
-40
-36
-37
-38
-38
-34
-39
-41
-39
-41
-43
-42
-39
-40
-34
-39
-38
-39
-43
-39
-37
-35
-34
-40
-43
-36
-38
-34
-37
-35
-35
-35
-35
-38
-32
-32
-26
-27
-37
-40
-36
-36
-37
-35
-33
-30
-28
-28
-30
-26
-24
-26
-23
-31
-28
-29
-30
-29
-29
-34
-31
-21
-24
-30
-33
-43
-38
-38
-37
-41
-40
-40
-42
-36
-40
-38
-42
-40
-37
-45
-42
-39
-43
-42
-43
-42
-43
-39
-47
-33
-38
-41
-42
-41
-45
-44
-36
-42
-41
-42
-43
-48
-52
-51
-46
-28
-10
6
29
39
58
80
98
116
138
139
129
123
120
106
92
74
48
15
-28
-67
-67
-60
-48
-46
-28
-37
-31
-35
-37
-39
-34
-37
-44
-40
-43
-42
-42
-43
-44
-44
-45
-38
-40
-40
-36
-39
-41
-39
-37
-38
-44
-42
-40
-43
-49
-41
-41
-38
-43
-41
-35
-37
-40
-35
-35
-37
-38
-34
-39
-37
-34
-36
-36
-31
-30
-34
-37
-31
-35
-30
-25
-26
-35
-29
-27
-33
-26
-23
-30
-32
-28
-25
-25
-21
-22
-24
-24
-15
-21
-15
-17
-11
-14
-8
-10
-11
-11
-9
-10
-3
-8
-8
0
3
1
9
10
16
6
11
5
11
19
23
17
23
25
23
22
33
31
29
26
30
30
30
31
30
25
23
29
27
31
28
22
20
18
14
13
13
11
0
0
0
-6
-11
-10
-10
-15
-15
-17
-20
-18
-17
-21
-27
-24
-20
-22
-27
-24
-29
-37
-33
-33
-34
-29
-30
-32
-36
-28
-31
-30
-33
-33
-31
-31
-35
-35
-28
-29
-33
-29
-25
-33
-36
-33
-29
-33
-32
-32
-32
-38
-36
-37
-33
-30
-34
-32
-35
-37
-30
-33
-35
-36
-33
-28
-28
-31
-34
-30
-32
-32
-32
-31
-37
-39
-40
-37
-37
-32
-38
-39
-37
-32
-31
-35
-44
-38
-31
-32
-35
-35
-35
-36
-37
-36
-40
-36
-35
-40
-34
-35
-31
-38
-38
-39
-35
-37
-36
-34
-35
-38
-36
-37
-35
-30
-31
-34
-30
-36
-37
-35
-38
-42
-43
-38
-33
-33
-34
-37
-32
-34
-38
-34
-38
-38
-37
-42
-41
-39
-44
-42
-42
-40
-40
-36
-37
-37
-43
-43
-40
-39
-38
-38
-35
-35
-30
-39
-35
-37
-41
-39
-35
-41
-39
-36
-34
-37
-39
-44
-37
-34
-36
-38
-37
-36
-41
-33
-40
-43
-37
-38
-38
-42
-36
-39
-35
-33
-41
-45
-46
-38
-38
-42
-33
-36
-35
-37
-41
-38
-42
-37
-41
-39
-32
-33
-36
-37
-42
-40
-35
-39
-39
-37
-37
-36
-33
-36
-33
-38
-40
-41
-44
-42
-41
-34
-36
-30
-33
-36
-32
-38
-37
-28
-31
-29
-30
-30
-32
-33
-37
-35
-38
-35
-32
-32
-34
-37
-31
-27
-19
-26
-20
-26
-21
-24
-21
-20
-24
-23
-32
-29
-24
-33
-27
-29
-34
-32
-38
-32
-32
-36
-39
-45
-38
-37
-39
-36
-39
-34
-37
-41
-44
-44
-51
-43
-41
-44
-49
-51
-42
-35
-42
-46
-41
-45
-40
-39
-43
-48
-51
-46
-51
-45
-55
-50
-51
-49
-34
-9
21
37
57
71
91
112
124
133
128
111
110
106
93
82
47
15
-28
-71
-74
-69
-60
-49
-45
-41
-39
-33
-39
-39
-52
-52
-51
-50
-48
-50
-53
-47
-49
-46
-37
-44
-46
-48
-51
-44
-41
-43
-44
-50
-49
-45
-42
-48
-45
-48
-47
-45
-43
-43
-45
-42
-46
-42
-34
-39
-45
-44
-35
-32
-30
-36
-42
-40
-30
-34
-37
-47
-42
-39
-37
-37
-37
-31
-32
-31
-33
-30
-28
-27
-30
-26
-23
-29
-35
-27
-22
-20
-17
-24
-25
-15
-16
-16
-12
-12
-10
-11
-8
-13
-10
4
-6
0
3
0
1
8
8
8
12
10
15
20
18
20
19
23
23
18
22
24
29
28
27
23
35
30
28
28
22
23
20
16
19
18
13
18
16
13
7
11
-2
-2
-4
-2
-8
-11
-5
-13
-15
-24
-28
-26
-27
-30
-26
-28
-21
-24
-38
-40
-34
-35
-33
-35
-35
-32
-26
-36
-32
-28
-37
-38
-36
-38
-33
-25
-33
-35
-38
-32
-32
-34
-38
-39
-34
-32
-31
-35
-34
-35
-31
-35
-31
-34
-35
-32
-34
-35
-33
-36
-35
-34
-35
-35
-33
-34
-38
-36
-32
-35
-38
-38
-35
-35
-32
-35
-36
-35
-29
-36
-37
-32
-32
-35
-30
-33
-34
-24
-31
-37
-41
-36
-34
-31
-36
-33
-34
-40
-33
-26
-36
-36
-41
-34
-24
-33
-33
-34
-30
-35
-33
-32
-34
-36
-36
-32
-30
-39
-34
-36
-35
-32
-32
-28
-32
-27
-33
-35
-37
-36
-36
-31
-36
-36
-35
-32
-32
-34
-36
-32
-36
-27
-29
-31
-28
-30
-35
-35
-36
-27
-26
-32
-30
-32
-40
-38
-30
-35
-32
-36
-33
-34
-29
-31
-29
-29
-31
-34
-35
-36
-31
-30
-36
-38
-30
-33
-25
-23
-30
-36
-29
-32
-37
-30
-28
-29
-31
-32
-37
-35
-28
-29
-30
-24
-28
-37
-33
-34
-31
-31
-31
-25
-23
-22
-23
-26
-26
-25
-23
-28
-27
-30
-27
-16
-18
-23
-21
-25
-16
-14
-17
-11
-11
-17
-14
-15
-20
-18
-24
-21
-23
-20
-23
-27
-25
-27
-27
-30
-33
-31
-32
-28
-37
-35
-32
-37
-37
-33
-33
-33
-32
-33
-30
-25
-32
-36
-31
-37
-38
-33
-35
-32
-28
-27
-28
-31
-25
-26
-34
-35
-35
-41
-41
-40
-27
-16
3
30
48
58
84
102
127
145
143
135
129
127
130
106
94
74
38
-12
-56
-63
-58
-58
-37
-36
-28
-26
-21
-27
-24
-28
-25
-24
-23
-32
-29
-28
-30
-31
-27
-25
-30
-24
-29
-30
-34
-29
-28
-25
-29
-31
-29
-28
-28
-30
-26
-24
-29
-30
-28
-30
-29
-33
-27
-21
-21
-24
-30
-24
-16
-19
-23
-22
-19
-14
-16
-25
-18
-19
-20
-16
-17
-18
-15
-15
-19
-11
-12
-9
-12
-12
-12
-10
-12
-5
-7
0
-12
-8
-1
1
1
7
5
5
9
11
9
14
14
15
21
14
11
23
24
22
21
26
28
28
28
38
42
34
37
39
41
43
37
46
51
48
42
42
51
47
49
50
44
45
49
44
44
37
40
33
32
28
25
22
18
15
13
11
9
12
8
8
-2
0
-2
-8
-9
-5
-10
-8
-21
-13
-18
-16
-9
-15
-20
-21
-19
-18
-15
-18
-16
-18
-20
-26
-18
-25
-18
-24
-18
-14
-20
-15
-13
-19
-23
-20
-20
-22
-19
-26
-18
-13
-13
-27
-24
-25
-23
-22
-23
-23
-30
-25
-18
-15
-21
-18
-13
-15
-21
-20
-21
-15
-23
-29
-28
-22
-12
-27
-22
-15
-19
-22
-22
-24
-22
-22
-15
-24
-26
-17
-20
-20
-28
-21
-19
-19
-19
-26
-25
-24
-22
-19
-16
-22
-20
-20
-19
-25
-25
-21
-29
-29
-19
-23
-19
-20
-16
-22
-25
-23
-22
-24
-26
-20
-24
-24
-21
-22
-21
-18
-23
-23
-32
-26
-23
-23
-20
-24
-23
-21
-23
-26
-30
-22
-27
-30
-25
-22
-23
-15
-22
-21
-22
-26
-17
-21
-15
-20
-27
-27
-22
-26
-24
-21
-17
-15
-24
-22
-18
-24
-25
-16
-15
-11
-11
-7
-12
-15
-11
-11
-15
-21
-14
-14
-12
-11
-16
-14
-14
-17
-22
-18
-18
-23
-25
-21
-24
-19
-26
-26
-23
-17
-24
-28
-29
-23
-22
-28
-21
-25
-25
-24
-23
-30
-25
-26
-25
-27
-19
-21
-25
-23
-28
-28
-24
-23
-27
-31
-25
-31
-20
-3
17
37
49
69
93
112
120
132
127
119
110
126
107
83
67
43
7
-37
-77
-78
-70
-54
-45
-31
-24
-18
-22
-20
-34
-26
-29
-32
-29
-35
-27
-27
-29
-24
-24
-24
-28
-23
-25
-27
-25
-22
-22
-23
-29
-29
-27
-24
-20
-22
-28
-25
-25
-27
-21
-26
-20
-19
-16
-22
-17
-22
-15
-15
-14
-21
-17
-18
-15
-17
-18
-18
-13
-8
-14
-21
-14
-8
-5
-9
-9
-13
-15
-5
-8
-8
-9
-2
1
-6
-6
5
0
-2
3
5
0
4
5
12
13
14
13
10
19
17
17
20
20
21
22
23
24
23
37
36
41
47
32
36
41
48
45
41
40
43
45
45
53
51
48
50
49
41
44
39
45
37
37
34
32
29
34
27
15
18
13
7
11
8
11
6
-1
-6
-5
1
-9
-6
-8
-7
-2
-4
-11
-19
-14
-11
-11
-18
-10
-12
-15
-14
-13
-19
-19
-15
-16
-19
-12
-13
-17
-16
-14
-16
-16
-19
-22
-19
-19
-20
-26
-19
-16
-14
-19
-16
-21
-20
-15
-15
-16
-10
-24
-18
-19
-17
-21
-20
-13
-18
-21
-19
-15
-12
-19
-21
-22
-14
-16
-15
-16
-17
-19
-21
-22
-16
-17
-18
-18
-17
-14
-20
-19
-20
-19
-19
-15
-19
-22
-11
-19
-20
-25
-19
-22
-24
-29
-20
-17
-11
-18
-24
-23
-25
-18
-22
-15
-17
-18
-17
-19
-23
-25
-22
-22
-20
-20
-16
-15
-17
-13
-13
-19
-13
-22
-23
-20
-23
-20
-14
-16
-16
-17
-11
-13
-21
-20
-17
-18
-14
-15
-10
-11
-8
-9
-9
-1
-11
-9
-5
-8
-8
-15
-15
-13
-13
-13
-21
-22
-18
-19
-23
-20
-20
-23
-21
-21
-20
-21
-19
-20
-19
-17
-18
-22
-27
-22
-27
-27
-13
-19
-26
-22
-18
-20
-22
-20
-23
-22
-23
-26
-26
-26
-23
-27
-26
-22
-20
-8
17
35
54
68
90
106
119
122
126
129
116
122
117
98
83
57
20
-23
-62
-74
-70
-51
-44
-33
-23
-18
-16
-19
-30
-28
-23
-23
-29
-23
-26
-22
-23
-26
-27
-20
-18
-26
-25
-25
-24
-23
-21
-21
-25
-21
-19
-20
-26
-26
-23
-23
-19
-23
-18
-17
-18
-15
-17
-19
-25
-20
-23
-23
-20
-21
-18
-18
-17
-12
-19
-16
-11
-6
-11
-21
-13
-11
-13
-11
-15
-17
-14
-10
-7
-5
-7
-2
-6
-3
-6
-2
-2
3
3
-1
8
7
8
3
9
15
8
14
9
11
19
22
21
24
21
22
31
32
26
29
33
38
38
43
33
33
46
40
41
48
48
40
40
43
39
47
48
44
41
43
38
32
37
36
25
21
19
18
19
11
13
9
8
10
0
8
0
-3
-5
-7
-6
-9
-11
-12
-10
-15
-11
-6
-11
-15
-9
-16
-17
-10
-19
-21
-17
-16
-15
-21
-10
-14
-14
-15
-18
-11
-13
-21
-24
-12
-12
-17
-22
-14
-22
-17
-17
-22
-18
-22
-17
-16
-18
-7
-23
-19
-16
-17
-11
-23
-20
-23
-16
-21
-21
-15
-21
-13
-21
-21
-20
-21
-15
-12
-16
-16
-17
-21
-22
-18
-19
-17
-20
-24
-23
-20
-17
-15
-18
-16
-21
-28
-10
-15
-15
-23
-20
-21
-22
-21
-21
-12
-15
-21
-26
-25
-23
-22
-28
-28
-15
-10
-25
-17
-16
-11
-14
-16
-18
-16
-14
-18
-16
-20
-22
-20
-20
-14
-12
-14
-10
-10
-9
-10
-10
-7
-5
-10
-7
-5
-12
-17
-15
-14
-20
-15
-15
-16
-21
-19
-22
-27
-25
-23
-27
-28
-25
-22
-23
-19
-22
-25
-22
-24
-25
-23
-25
-29
-25
-21
-25
-21
-26
-32
-14
-23
-22
-23
-24
-22
-24
-21
-26
-35
-29
-26
-18
-5
15
29
55
66
85
112
117
132
136
136
125
131
121
109
96
76
29
-8
-51
-66
-62
-47
-40
-28
-18
-20
-22
-15
-23
-25
-26
-24
-22
-17
-20
-22
-31
-23
-21
-19
-16
-18
-23
-25
-23
-20
-19
-21
-27
-22
-20
-19
-24
-24
-26
-18
-16
-19
-18
-17
-15
-16
-24
-17
-21
-12
-5
-14
-18
-19
-18
-14
-21
-17
-14
-13
-12
-18
-16
-12
-13
-12
-9
-14
-8
-9
-3
-5
-6
-1
0
-3
-3
-8
-9
10
2
2
6
4
6
6
4
11
12
12
11
9
19
21
21
23
25
22
23
20
23
29
36
32
33
40
33
39
37
41
39
50
47
35
37
42
42
35
44
38
43
43
38
35
41
36
31
23
16
26
21
23
18
7
10
2
6
7
3
0
2
-3
-1
2
-11
-7
-7
-11
-12
-10
-18
-20
-13
-17
-13
-14
-19
-19
-15
-20
-19
-17
-19
-14
-7
-14
-14
-20
-19
-21
-18
-23
-15
-17
-21
-20
-19
-15
-12
-12
-16
-18
-13
-14
-18
-23
-13
-16
-21
-19
-20
-19
-20
-18
-14
-15
-17
-15
-16
-12
-14
-15
-17
-14
-17
-12
-15
-23
-22
-20
-22
-23
-19
-18
-18
-18
-24
-22
-19
-17
-13
-13
-18
-25
-22
-25
-23
-21
-20
-16
-17
-14
-14
-25
-24
-15
-13
-17
-20
-18
-28
-25
-23
-15
-19
-13
-17
-16
-17
-17
-16
-18
-16
-21
-14
-11
-7
-17
-11
-10
-15
-13
-5
-6
-13
-12
-12
-6
-6
-12
-13
-12
-7
-15
-16
-18
-21
-23
-22
-16
-15
-18
-19
-16
-23
-25
-29
-26
-31
-25
-29
-27
-20
-24
-25
-25
-30
-22
-21
-22
-30
-27
-29
-27
-23
-19
-20
-25
-24
-29
-32
-27
-26
-31
-27
-22
-23
-16
7
35
60
72
90
104
123
128
127
125
121
124
126
106
89
60
22
-15
-56
-71
-62
-46
-31
-22
-23
-16
-17
-15
-22
-20
-18
-31
-29
-16
-23
-23
-20
-18
-22
-28
-26
-26
-23
-29
-27
-22
-26
-34
-22
-23
-20
-19
-21
-26
-25
-15
-21
-19
-26
-23
-21
-17
-14
-9
-20
-17
-17
-13
-12
-15
-15
-14
-15
-13
-10
-14
-9
-6
-8
-9
-8
-5
-6
-3
0
1
-2
-3
1
-1
4
-2
-2
0
7
5
3
5
7
15
9
9
13
16
16
15
18
11
16
24
19
22
24
31
32
37
37
43
40
30
36
42
39
40
43
52
39
44
48
51
58
56
52
46
44
48
47
43
43
41
38
37
35
37
34
31
25
22
16
21
17
12
12
9
6
5
7
2
-1
-3
-5
-4
-7
-11
-4
-11
-8
-5
-6
-7
-16
1
-7
-14
-9
-5
-12
-9
-14
-11
-13
-13
-14
-4
-8
-18
-15
-9
-12
-12
-17
-12
-18
-14
-11
-6
-12
-12
-12
-12
-14
-6
-4
-11
-7
-11
-17
-19
-15
-13
-14
-20
-16
-14
-15
-16
-17
-17
-13
-11
-12
-18
-11
-9
-9
-12
-16
-17
-24
-12
-8
-16
-23
-17
-17
-18
-15
-24
-24
-26
-23
-15
-16
-18
-17
-13
-14
-16
-20
-14
-13
-16
-20
-15
-20
-16
-20
-22
-21
-19
-16
-21
-17
-19
-23
-16
-16
-18
-19
-16
-25
-16
-18
-17
-15
-17
-19
-20
-17
-15
-13
-17
-10
-17
-18
-18
-16
-10
-15
-17
-19
-16
-20
-19
-19
-12
-15
-17
-10
1
-6
-13
-8
-5
-5
-10
-10
-5
-12
-16
-14
-8
-6
-8
-16
-11
-14
-14
-22
-21
-23
-23
-14
-23
-19
-19
-30
-26
-17
-14
-23
-26
-19
-15
-22
-20
-23
-26
-19
-21
-23
-23
-23
-20
-17
-20
-18
-23
-21
-14
-21
-25
-28
-33
-31
-26
-7
1
25
50
62
84
99
121
135
144
149
141
130
133
120
109
89
55
22
-26
-56
-50
-48
-41
-24
-17
-13
-13
-16
-22
-21
-18
-11
-10
-18
-18
-19
-24
-20
-19
-21
-23
-18
-24
-20
-18
-15
-14
-23
-27
-25
-22
-16
-16
-13
-17
-15
-19
-18
-17
-16
-14
-13
-15
-15
-14
-7
-17
-17
-14
-12
-13
-11
-14
-12
-14
-12
-14
-14
-8
-8
-18
-8
-6
-7
1
-1
-5
-3
-6
-3
1
1
-5
1
2
3
-1
7
6
1
8
11
6
8
9
14
13
19
18
22
21
19
28
25
28
24
26
30
30
37
33
41
37
43
42
37
39
44
50
45
43
43
44
50
48
56
50
51
50
42
46
44
41
39
40
36
30
31
26
14
14
20
19
17
12
14
4
0
1
3
7
-3
-1
-7
-7
-10
-3
-8
-8
-3
-10
-4
-10
-15
-12
-14
-12
-11
-12
-11
1
-9
-13
-13
-16
-11
-10
-5
-6
-6
-8
-15
-9
-12
-9
-9
-12
-12
-8
-11
-7
-8
-7
-17
-16
-16
-14
-7
-10
-12
-10
-6
-11
-10
-10
-6
-7
-18
-12
-6
-11
-11
-7
-12
-14
-13
-9
-15
-16
-23
-18
-12
-10
-8
-9
-10
-11
-10
-15
-10
-10
-9
-15
-19
-15
-14
-15
-13
-19
-11
-11
-8
-7
-14
-12
-6
-19
-15
-14
-11
-13
-17
-11
-13
-11
-10
-20
-14
-16
-17
-11
-18
-18
-13
-12
-15
-17
-14
-14
-15
-15
-13
-12
-5
-10
-7
-14
-18
-20
-17
-18
-20
-20
-19
-13
-19
-10
-8
-12
-18
-21
-11
-15
-14
-14
-12
-14
-16
-16
-16
-15
-5
-13
-22
-20
-8
-15
-15
-16
-18
-14
-21
-15
-21
-20
-15
-14
-20
-13
-10
-13
-16
-14
-9
-13
-16
-15
-15
-15
-13
-23
-15
-16
-13
-8
-18
-18
-20
-11
-14
-15
-15
-9
-9
-17
-14
-13
-16
-16
-14
-11
-14
-12
-9
-7
-10
-11
-14
-15
-17
-13
-5
-7
2
0
-6
0
-5
-3
-5
-7
-5
-4
-5
-6
-5
-9
-5
-7
-9
-8
-21
-17
-19
-17
-16
-19
-16
-19
-23
-16
-19
-20
-20
-16
-14
-16
-25
-26
-20
-19
-15
-14
-18
-17
-18
-20
-14
-17
-14
-21
-19
-18
-13
-20
-18
-23
-28
-26
-26
-16
0
17
42
57
74
96
117
140
144
148
152
131
134
136
117
98
71
39
0
-42
-52
-49
-36
-24
-16
-12
-12
-15
-18
-19
-19
-18
-18
-19
-18
-19
-20
-14
-20
-22
-20
-20
-23
-21
-19
-19
-21
-12
-20
-11
-16
-23
-21
-18
-11
-18
-18
-18
-19
-16
-11
-16
-19
-19
-17
-16
-10
-11
-6
-6
-11
-14
-15
-4
-13
-14
-19
-10
-4
-5
-16
-9
-3
-8
-9
-13
-7
-6
-4
-2
-2
0
-1
-3
-6
-3
4
6
7
7
8
8
9
11
10
11
13
17
12
12
21
18
18
21
24
23
29
34
31
33
34
35
43
29
33
39
45
43
45
47
42
41
46
51
49
52
49
54
50
45
47
46
46
45
43
40
37
38
34
30
24
26
21
25
23
19
16
16
9
7
10
8
7
6
0
-1
-5
-8
-8
-6
-5
-7
-14
-1
-4
-3
-11
-11
-8
-11
-6
-11
-13
-10
-9
-8
-4
-11
-8
-8
-13
-6
-9
-10
-13
-9
-8
-7
-12
-11
1
-9
-8
-18
-16
-5
-6
-5
-9
-18
-10
-8
-8
-14
-11
-9
-10
-6
-9
-10
-8
-12
-12
-8
-7
-10
-12
-11
-7
-11
-18
-18
-13
-5
-12
-13
-8
-5
-10
-13
-16
-7
-13
-10
-6
-14
-14
-9
-10
-15
-14
-16
-13
-12
-11
-10
-15
-11
-16
-13
-14
-17
-12
-15
-12
-9
-11
-13
-14
-11
-11
-17
-20
-13
-16
-14
-12
-11
-13
-19
-12
-10
-16
-15
-16
-10
-15
-16
-9
-9
-18
-14
-14
-15
-16
-16
-9
-14
-19
-16
-10
-12
-18
-24
-22
-16
-11
-13
-19
-15
-13
-16
-9
-16
-10
-19
-14
-9
-16
-20
-16
-19
-12
-15
-18
-13
-15
-20
-21
-17
-12
-14
-20
-18
-15
-13
-17
-20
-18
-16
-10
-12
-17
-15
-20
-14
-19
-19
-19
-15
-18
-21
-16
-14
-14
-14
-17
-20
-19
-15
-13
-22
-20
-21
-18
-14
-13
-17
-18
-12
-14
-12
-9
-13
-15
-13
-17
-12
-17
-9
-11
-15
-6
-9
-15
-18
-8
-10
-12
-7
-6
-3
-5
-4
-8
-6
0
-1
-6
-2
-8
-9
-7
-11
-9
-10
-12
-10
-25
-19
-14
-21
-24
-19
-15
-20
-22
-22
-22
-16
-16
-23
-24
-27
-25
-16
-17
-18
-23
-21
-18
-18
-17
-22
-19
-20
-21
-21
-20
-19
-22
-24
-25
-24
-28
-24
-18
3
25
47
61
77
96
121
141
151
154
147
131
145
119
98
85
60
29
-20
-63
-62
-49
-36
-27
-20
-15
-15
-12
-9
-18
-19
-23
-18
-24
-18
-18
-23
-21
-19
-15
-22
-20
-21
-19
-21
-17
-24
-27
-20
-16
-20
-23
-22
-18
-16
-21
-18
-15
-17
-17
-13
-19
-12
-13
-18
-23
-16
-9
-10
-9
-20
-19
-18
-9
-11
-14
-17
-8
-8
-10
-16
-13
-5
-9
-7
-4
-7
-7
-3
1
-1
0
-5
-7
-2
2
-3
2
0
10
10
9
9
12
10
16
11
8
13
18
17
20
20
19
24
31
35
33
32
29
28
33
36
35
41
36
36
43
42
48
51
51
51
53
43
47
50
49
51
45
51
53
44
45
52
38
34
35
36
28
29
25
20
20
14
16
12
8
10
6
1
2
4
-3
6
0
2
-3
-1
-9
-10
-6
-10
-13
-10
-10
-9
-10
-14
-12
-14
-14
-13
-8
-13
-9
-12
-12
-18
-13
-8
-13
-13
-10
-16
-15
-16
-11
-10
-8
-10
-15
-13
-14
-17
-18
-14
-7
-10
-10
-9
-6
-11
-14
-11
-16
-9
-11
-13
-10
-14
-17
-16
-19
-19
-8
-9
-13
-14
-8
-12
-15
-17
-15
-11
-13
-13
-15
-11
-15
-11
-11
-10
-21
-17
-18
-15
-17
-13
-12
-13
-14
-11
-14
-14
-13
-13
-10
-8
-14
-20
-13
-9
-12
-16
-7
-17
-20
-18
-17
-18
-16
-16
-17
-9
-13
-16
-14
-14
-9
-16
-18
-25
-14
-10
-10
-11
-10
-11
-12
-15
-16
-16
-19
-13
-20
-18
-12
-16
-15
-11
-20
-10
-13
-15
-19
-12
-8
-14
-19
-18
-13
-17
-14
-14
-16
-11
-15
-21
-14
-16
-16
-19
-21
-12
-11
-16
-9
-13
-13
-15
-16
-14
-15
-17
-16
-9
-10
-16
-11
-14
-12
-13
-18
-12
-11
-15
-16
-14
-13
-18
-20
-14
-13
-17
-12
-8
-14
-12
-18
-13
-15
-12
-13
-14
-16
-14
-15
-16
-13
-11
-18
-18
-18
-17
-10
-7
-11
-11
-11
-14
-14
-15
-5
-1
-10
-14
-11
-12
-12
-9
-9
-10
-9
-10
-12
-12
-12
-2
0
-3
-2
7
3
0
-9
-8
0
-3
-1
-1
1
-5
-7
-6
-9
-5
-11
-12
-12
-13
-15
-18
-22
-13
-16
-19
-13
-10
-10
-13
-15
-15
-13
-12
-16
-16
-14
-16
-17
-14
-11
-14
-17
-19
-14
-14
-17
-20
-19
-10
-17
-21
-23
-22
-18
-11
2
16
40
59
69
96
117
130
144
148
147
133
131
126
109
97
70
37
-6
-53
-57
-52
-44
-37
-27
-10
-7
-11
-17
-16
-14
-14
-19
-13
-18
-14
-17
-15
-14
-18
-20
-13
-20
-15
-13
-17
-22
-19
-22
-17
-13
-16
-17
-12
-11
-13
-8
-13
-16
-13
-19
-17
-11
-11
-12
-16
-17
-17
-16
-10
-12
-8
-11
-9
-5
-9
-10
-15
-9
-6
-9
-8
-7
1
-4
-2
-5
-5
-4
-1
0
2
0
6
3
0
3
9
8
9
15
7
2
8
12
16
16
25
23
20
25
23
28
30
24
29
27
32
33
36
38
36
45
50
45
43
46
45
49
48
53
52
56
57
57
59
58
60
53
46
52
54
56
54
49
47
46
45
37
34
37
34
26
23
30
22
19
12
17
19
17
7
6
9
1
-5
0
2
-1
-1
-2
-1
-3
-6
-10
-11
-6
-3
-8
-9
-5
-5
-7
-10
-10
-11
-9
-2
-4
-15
-12
-10
-2
-2
-14
-14
-3
-10
-10
-3
-12
-11
-10
-12
-11
-12
-9
-9
-7
-11
-13
-11
-4
-4
-12
-9
-17
-14
-7
-10
-10
-9
-9
-12
-5
0
-9
-10
-8
-11
-9
-15
-10
-10
-10
-9
-14
-8
-9
-10
-11
-16
-13
-8
-11
-9
-4
-5
-10
-14
-11
-12
-15
-13
-9
-7
-10
-13
-13
-10
-13
-11
-13
-9
-15
-15
-14
-12
-12
-7
-11
-7
-13
-12
-18
-18
-8
-7
-9
-12
-8
-14
-12
-10
-20
-14
-13
-15
