-21
-20
-12
-9
-10
-12
-18
-25
-22
-28
-19
-14
-6
-14
-10
-14
-21
-22
-32
-23
-18
-9
-8
-6
-8
-15
-13
-21
-23
-24
-19
-17
-13
-4
-2
-8
-19
-29
-23
-26
-19
-13
-4
-1
-8
-8
-17
-26
-19
-24
-17
-15
-6
-1
-5
-11
-21
-27
-22
-19
-19
-13
-2
-1
-7
-13
-17
-24
-24
-22
-24
-11
-2
4
1
-6
-17
-24
-23
-16
-13
-9
-5
2
-2
-5
-16
-23
-23
-18
-14
-6
-2
0
-3
-7
-15
-19
-18
-18
-19
-6
-3
-2
-6
-6
-14
-14
-19
-22
-9
-4
-3
5
-5
-5
-17
-23
-24
-16
-17
-12
-8
-6
3
-2
-16
-21
-22
-17
-19
-8
-6
-4
-3
-10
-19
-21
-24
-19
-16
-6
-4
0
-4
-15
-18
-20
-26
-13
-21
-7
-2
-4
-9
-11
-24
-21
-21
-20
-13
-7
-7
-4
-6
-16
-22
-19
-15
-16
-13
-10
-6
-5
-11
-17
-25
-24
-19
-14
-16
-9
-4
-3
-7
-16
-22
-24
-18
-16
-10
-8
-3
-8
-14
-18
-30
-26
-19
-17
-9
-2
-5
-9
-11
-16
-22
-17
-13
-13
-8
-7
-3
-6
-2
-7
-14
-17
-15
-12
-4
3
9
12
7
2
3
-9
0
-1
3
10
14
13
9
-3
-6
-7
-5
-4
-2
7
3
-1
-8
-19
-18
-18
-18
-12
-6
-2
-3
-8
-11
-20
-25
-24
-26
-25
-8
-7
-3
-10
-9
-23
-25
-22
-27
-19
-13
-12
-10
-15
-15
-22
-26
-27
-25
-22
-11
-6
-6
-14
-19
-28
-29
-33
-34
-42
-38
-31
-27
-31
-22
-6
17
46
66
95
121
149
167
185
173
155
144
131
106
81
57
33
16
-1
-20
-28
-37
-35
-31
-23
-19
-14
-13
-10
-19
-27
-27
-25
-26
-17
-12
-8
-7
-14
-19
-29
-28
-21
-23
-18
-12
-8
-8
-11
-18
-26
-25
-23
-21
-22
-10
1
2
-9
-17
-24
-28
-28
-19
-10
-6
-1
-6
-13
-17
-19
-23
-15
-16
-9
-4
1
-4
-9
-13
-20
-21
-16
-13
-9
-5
2
-1
-6
-13
-18
-17
-14
-15
-1
3
3
5
3
-8
-10
-14
-11
-7
1
6
10
4
3
-10
-10
-9
-4
6
10
14
17
18
7
-1
-1
3
6
10
21
26
31
25
25
14
9
12
18
28
27
31
39
34
30
22
21
22
23
30
35
35
42
36
33
21
19
20
19
26
35
35
30
25
23
14
1
5
8
12
19
15
17
9
1
-8
-14
-11
-8
-2
8
9
4
-5
-12
-17
-22
-19
-17
-11
-5
-2
0
-10
-13
-20
-20
-19
-19
-16
-8
-6
-1
-10
-19
-23
-23
-23
-22
-20
-8
-2
-5
-7
-20
-29
-28
-26
-23
-11
-6
-5
-8
-10
-18
-26
-31
-22
-19
-12
-10
-15
-10
-9
-20
-25
-27
-22
-15
-9
-3
1
-5
-8
-17
-24
-23
-19
-20
-14
-13
-5
1
-9
-19
-24
-20
-19
-19
-10
-5
3
-2
-5
-17
-21
-27
-19
-16
-11
-7
-3
-5
-6
-19
-21
-22
-18
-23
-15
0
5
-3
-9
-19
-22
-23
-22
-17
-11
-4
-5
-6
-7
-21
-22
-26
-16
-16
-7
-4
0
-13
-18
-23
-25
-21
-18
-16
-8
-6
-3
-9
-14
-20
-19
-20
-19
-17
-7
-5
-11
-11
-18
-25
-24
-29
-21
-11
-2
1
-3
-7
-15
-30
-29
-24
-21
-17
-8
-4
-8
-12
-18
-24
-26
-24
-22
-12
-9
-13
-7
-13
-19
-22
-24
-21
-21
-14
-8
-4
-2
-11
-20
-23
-27
-22
-19
-14
-8
-6
-1
-9
-19
-25
-25
-14
-17
-9
-5
-3
-3
-11
-24
-22
-25
-22
-19
-10
-4
-1
-6
-9
-17
-21
-21
-22
-19
-11
-7
3
-7
-12
-17
-21
-18
-11
-14
-6
-8
0
-2
-8
-16
-14
-16
-13
-9
-7
2
10
7
6
-4
-7
-9
-3
1
14
14
16
8
6
-4
-7
-3
-1
2
8
8
10
6
-2
-14
-18
-21
-18
-13
-8
-6
-2
-6
-15
-23
-22
-23
-12
-20
-9
-11
-2
-10
-16
-25
-29
-28
-20
-12
-14
-11
-5
-11
-21
-27
-26
-26
-24
-14
-8
-6
-9
-16
-24
-27
-27
-32
-32
-30
-31
-33
-34
-36
-42
-39
-22
-4
26
61
86
110
132
158
173
179
184
183
172
157
134
110
78
43
20
3
-6
-8
-14
-10
1
1
-3
-6
-15
-22
-27
-20
-19
-15
-10
-2
-4
-11
-15
-25
-32
-24
-20
-9
-7
-13
-6
-12
-18
-26
-28
-22
-21
-10
-8
-7
-11
-12
-20
-23
-19
-19
-19
-7
0
-1
-7
-9
-21
-23
-22
-20
-22
-9
-3
-4
-6
-9
-18
-19
-20
-15
-15
-6
3
0
0
-8
-18
-15
-15
-13
-13
-1
3
5
0
-6
-14
-15
-18
-12
-8
-2
5
9
2
1
-11
-12
-13
1
1
8
13
16
9
8
-2
1
4
-3
3
16
18
23
16
15
10
5
11
19
22
29
32
33
29
24
11
10
13
25
27
40
42
41
37
25
19
19
23
23
24
33
39
36
28
20
9
11
10
12
14
20
24
22
15
2
-3
-4
-4
-3
3
7
8
8
3
-4
-16
-19
-14
-9
-3
-4
3
-6
-9
-19
-21
-19
-12
-16
-8
-8
6
0
-8
-12
-19
-27
-17
-13
-6
-6
1
-5
-7
-19
-16
-20
-20
-18
-10
0
-3
-5
-7
-16
-19
-20
-22
-11
-3
-6
-1
-10
-10
-19
-21
-22
-19
-12
-3
-7
-5
-4
-2
-20
-21
-22
-20
-13
-5
-2
0
-4
-11
-24
-26
-18
-18
-11
-4
-2
-10
-4
-9
-24
-21
-19
-13
-11
-6
-8
-1
4
-6
-22
-18
-21
-17
-12
-4
-3
-2
-4
-9
-19
-23
-17
-15
-12
-3
4
2
-8
-14
-20
-19
-19
-11
-9
0
-1
-6
-6
-11
-21
-18
-18
-17
-9
-2
-4
0
-7
-10
-20
-20
-18
-16
-9
-8
-4
-2
-4
-15
-21
-20
-20
-9
-11
-6
0
2
-8
-17
-17
-17
-20
-22
-6
4
5
1
-3
-12
-21
-19
-17
-15
-8
-2
5
-2
-2
-15
-23
-19
-17
-12
-2
-2
-3
-2
-6
-16
-23
-21
-10
-12
-8
-3
-1
-4
-4
-14
-16
-15
-21
-18
-10
2
2
-5
-4
-19
-16
-18
-17
-15
-5
-5
-4
-5
-8
-14
-15
-15
-21
-10
-5
0
4
-3
-7
-17
-21
-20
-17
-9
-1
-4
-1
-5
-12
-23
-21
-19
-12
-10
-1
2
-1
-2
-7
-20
-16
-15
-5
-10
-1
-1
4
2
-3
-13
-12
-7
-4
2
9
19
11
10
4
1
-1
1
3
10
18
18
16
8
1
-3
-1
-4
0
4
10
6
7
0
-11
-18
-18
-17
-11
1
0
5
0
-4
-16
-21
-23
-23
-15
-8
-4
2
1
-2
-12
-19
-21
-18
-14
-9
-4
0
0
1
-10
-17
-27
-19
-8
-7
-2
7
1
-7
-17
-27
-33
-38
-36
-27
-21
-9
2
19
35
57
86
102
127
163
193
213
223
215
193
170
144
125
93
66
51
48
34
26
11
4
2
5
2
10
8
15
12
4
-1
-3
-6
3
-2
6
14
12
7
-3
-11
-13
-7
-1
0
6
4
12
8
5
-6
-9
-10
-5
0
9
10
12
3
3
-11
-15
-2
1
7
8
12
15
11
-1
-5
-5
-1
-6
4
9
13
11
4
4
-6
-4
2
3
7
10
6
18
14
5
-6
-7
4
5
11
16
16
16
14
9
2
4
8
8
15
23
22
25
19
8
5
5
12
15
21
31
32
28
27
18
15
18
21
22
30
38
45
41
37
24
33
28
22
35
36
41
50
48
46
36
30
34
42
39
45
51
53
45
45
30
29
35
38
35
44
43
46
41
37
26
24
21
22
24
26
30
31
30
21
9
2
5
4
12
18
20
17
19
14
0
-6
0
0
2
8
8
12
7
1
-6
-9
-10
-2
1
10
12
12
7
5
-3
-6
-7
-5
-2
4
8
8
3
0
-4
-5
-11
-2
1
9
14
14
2
2
-13
-3
-3
-2
2
11
10
11
6
-2
-6
-9
-3
-2
3
8
6
10
2
-5
-5
-6
-6
-4
3
10
13
14
10
-1
-6
-7
-8
-6
-2
6
14
13
14
-1
-3
-1
6
3
11
13
14
14
-1
1
1
0
-1
-1
8
19
17
17
12
-2
-4
-3
1
8
7
18
18
14
15
6
-2
-8
-3
-1
9
14
19
19
11
4
2
-3
-1
1
9
14
16
10
9
1
-1
-1
1
1
10
12
23
17
20
5
-4
-8
1
-2
8
16
21
16
11
3
-4
1
2
4
12
18
17
4
14
-2
-5
0
2
8
17
18
15
13
6
-5
-6
-1
0
6
11
15
18
12
3
0
-3
-3
2
3
11
18
23
10
5
-7
-5
-1
2
6
15
24
30
18
2
-1
4
4
5
16
25
25
28
20
14
5
5
10
16
19
29
32
35
28
25
17
17
22
22
32
36
40
38
36
23
19
13
24
22
27
31
37
32
24
13
4
4
5
8
15
17
24
18
7
2
1
2
-1
3
5
15
19
16
9
7
-1
-1
0
2
11
15
17
12
10
4
-1
-5
-4
-1
10
13
14
11
10
2
-2
-4
-5
-9
-7
-18
-15
-18
-23
-26
-5
8
37
75
108
128
151
176
198
210
224
213
210
193
172
150
123
78
48
26
21
12
10
10
12
20
23
13
13
1
-1
2
5
6
6
11
17
13
2
-8
-6
-5
6
12
4
11
12
4
5
-2
-1
-6
-4
4
10
10
17
13
5
1
0
2
1
6
16
20
18
16
2
-6
-2
1
5
15
13
18
19
15
8
5
5
6
0
16
19
22
25
9
9
7
0
4
6
6
25
26
26
19
10
12
2
5
14
24
25
26
27
20
14
13
12
17
18
27
35
30
30
33
20
17
20
21
28
35
43
47
42
32
32
26
31
32
36
46
46
55
52
49
44
46
46
49
48
60
61
67
60
54
48
37
36
42
48
61
55
57
48
44
35
34
36
34
31
40
44
42
39
33
22
15
19
23
23
28
31
31
23
13
10
7
7
-7
11
22
22
21
14
10
-4
0
1
0
13
17
18
18
17
14
0
-2
-3
7
10
11
16
18
14
5
-3
-4
3
3
9
15
12
19
17
7
0
0
0
2
9
12
17
16
8
7
-2
-5
2
9
9
16
15
16
18
4
2
-5
0
2
9
13
20
19
14
-1
-2
5
2
3
8
13
15
22
14
1
2
7
1
3
11
18
20
17
14
5
2
-5
-1
-2
11
24
21
17
15
2
1
1
8
4
14
16
21
17
16
4
-4
-3
5
2
12
15
20
12
15
3
0
-3
3
5
12
17
22
15
11
0
-4
-4
5
8
12
20
21
12
11
-1
-3
-3
5
7
9
16
21
14
11
-5
4
5
-1
12
13
19
18
11
6
-3
-3
-1
4
10
14
17
18
14
6
3
0
-8
-3
15
20
22
21
13
9
-2
-2
0
5
12
12
17
20
15
11
4
2
2
8
7
16
23
18
16
12
7
8
5
11
18
23
35
26
27
21
19
19
22
20
33
36
41
36
35
29
25
19
23
24
29
33
38
33
27
14
2
0
12
10
17
23
22
25
18
5
0
0
6
7
14
16
19
12
2
1
-1
-7
-2
5
11
12
16
20
17
-3
-3
-4
-3
-3
7
13
14
15
10
3
1
-3
-1
3
7
5
-5
-11
-22
-29
-25
-13
1
26
58
97
118
131
152
172
194
208
212
211
197
175
155
123
77
40
14
10
8
9
11
16
10
9
8
0
-7
-4
2
9
15
16
16
11
6
-3
-7
-1
3
14
19
26
18
10
8
-1
-1
1
5
9
12
22
23
16
8
-3
-4
3
10
15
14
23
27
20
11
5
4
6
7
16
15
25
26
18
13
11
7
11
10
16
22
24
24
28
16
10
12
12
20
27
32
32
31
29
17
15
14
23
26
31
34
42
36
37
27
24
23
33
38
47
48
52
50
48
43
36
34
41
45
49
55
63
56
53
45
44
49
51
59
59
66
69
60
59
46
43
50
53
56
63
64
65
57
55
46
42
43
40
45
50
47
55
44
39
29
30
26
36
27
36
37
36
28
22
14
8
12
13
17
25
30
30
25
13
6
7
6
11
18
18
27
28
22
12
2
1
6
15
13
22
26
28
16
12
5
6
6
14
18
21
24
24
16
12
6
4
2
6
12
18
23
25
19
15
9
3
8
11
17
29
28
17
17
15
2
1
3
10
15
22
28
22
20
15
11
8
10
14
21
24
23
24
16
15
8
7
11
20
21
21
28
27
21
15
11
10
7
9
22
25
26
21
19
9
2
5
14
12
20
23
28
21
19
4
1
-1
3
10
20
26
31
26
20
7
6
5
2
16
22
17
24
24
13
9
7
8
14
15
25
29
25
24
18
1
6
4
16
18
16
28
26
15
6
5
5
4
9
12
21
21
22
19
13
4
4
2
10
10
22
26
27
20
15
4
5
6
12
19
21
28
25
24
14
8
9
7
14
21
32
27
32
31
25
21
17
16
23
34
35
39
44
34
21
26
23
26
29
37
40
42
41
34
22
18
15
10
9
22
22
22
27
26
16
6
7
10
10
17
17
21
20
18
4
2
6
7
4
16
22
24
19
15
6
1
0
0
8
16
19
23
17
14
4
2
3
10
9
19
22
22
19
6
-8
-13
-20
-14
-13
3
23
44
63
85
100
121
140
159
186
212
208
209
186
166
127
100
73
49
35
23
16
20
10
0
-7
-6
-8
-3
7
16
24
21
15
9
9
6
10
8
11
19
18
25
23
15
3
2
6
8
14
19
19
24
14
8
3
3
6
4
12
17
30
26
21
15
11
6
6
10
17
24
29
24
16
10
1
9
13
18
23
24
33
27
27
16
3
9
16
19
23
28
32
30
24
18
5
11
14
14
32
28
34
32
34
22
18
22
22
26
28
34
43
38
37
25
24
22
24
33
38
42
53
50
44
31
31
36
42
45
52
53
59
57
58
47
45
44
48
53
69
66
63
62
63
51
49
48
53
55
63
66
65
64
61
45
49
50
56
47
54
57
53
51
44
31
27
32
29
35
42
39
42
31
22
18
16
15
12
22
32
29
32
23
15
7
7
5
9
15
21
25
23
21
14
4
2
5
11
17
19
25
22
20
10
2
1
0
7
12
17
21
21
15
10
6
2
3
9
17
20
25
28
15
6
0
-1
6
6
11
15
17
20
17
11
2
3
8
10
14
23
25
22
19
6
0
8
5
10
18
24
25
23
22
9
6
8
11
11
15
22
31
25
19
5
7
8
9
11
19
20
25
21
23
12
11
5
8
10
16
18
25
24
15
3
11
10
9
13
22
22
25
18
10
9
7
6
11
8
17
21
21
20
14
3
-2
0
4
8
25
27
21
15
8
6
3
1
4
17
14
19
24
19
9
8
5
0
5
10
14
18
18
21
12
3
-2
4
4
5
17
18
21
15
4
1
3
5
5
13
21
24
20
18
9
1
0
-2
5
13
18
20
26
21
13
3
1
7
7
13
18
28
28
23
14
7
12
16
19
30
36
36
34
31
22
16
16
20
27
28
32
38
38
30
23
18
14
13
22
29
29
28
23
18
8
-3
4
8
11
15
22
23
19
10
-3
-2
-2
-1
5
14
19
18
14
12
4
-2
-2
-2
2
16
16
12
9
9
-2
-2
-5
5
3
10
17
18
15
4
-5
-10
-16
-20
-18
-15
-7
-5
-4
6
21
40
76
101
123
153
183
206
217
218
209
185
165
144
121
99
68
50
38
26
9
5
-2
4
11
16
20
22
12
4
-5
-1
-1
-1
11
19
18
16
13
3
-2
-4
-1
0
7
19
17
17
13
2
-6
-11
-4
6
5
10
20
20
14
10
0
-2
1
9
13
16
19
16
14
7
2
-5
3
5
14
18
18
24
16
3
-2
1
8
9
15
22
24
16
19
11
5
6
9
15
19
24
29
27
21
12
12
9
10
11
22
25
29
30
32
16
10
13
18
21
27
31
47
43
29
23
23
23
27
32
38
41
55
45
37
32
34
32
36
42
53
53
59
55
51
41
38
38
45
51
62
60
66
52
51
40
41
38
40
49
57
53
58
48
42
35
28
27
23
38
40
36
42
34
28
17
16
9
21
27
27
25
26
24
14
6
4
2
4
13
17
22
23
22
12
0
2
2
10
15
22
21
22
20
10
0
3
6
5
14
15
19
21
18
7
0
3
4
6
11
15
21
19
20
9
6
4
7
12
13
24
23
20
20
5
-1
-1
3
9
12
17
21
21
16
6
2
3
5
14
14
15
18
18
15
10
-6
2
9
10
17
20
22
17
13
4
-2
4
6
7
17
20
20
19
14
6
7
6
6
13
18
23
24
17
11
12
0
3
5
6
24
21
24
23
12
5
5
3
9
13
19
21
22
19
8
3
2
1
7
8
16
20
23
14
11
3
2
6
7
12
20
22
20
16
4
-3
2
3
2
11
18
21
19
17
16
10
1
3
8
12
22
22
21
16
10
-1
-3
6
10
14
18
20
21
12
6
4
3
3
8
10
15
18
22
13
7
0
0
3
6
11
16
22
16
14
5
0
-2
3
7
10
14
21
19
15
4
-2
0
5
4
14
19
21
22
12
3
-5
0
8
13
21
23
19
17
25
9
6
8
13
20
28
24
31
32
31
15
17
18
20
23
32
36
38
36
35
17
16
19
19
19
28
29
31
32
18
10
5
7
7
7
20
21
21
15
12
3
-2
0
3
11
15
16
14
12
3
-3
-5
-1
1
5
13
17
18
13
3
0
-1
-4
-2
5
16
15
17
9
6
-2
-5
-2
-4
-7
-5
-7
-13
-14
-10
-18
-13
10
38
73
104
127
144
166
193
202
207
212
209
191
175
151
122
84
52
31
25
24
18
20
20
21
25
22
11
0
-3
1
7
14
17
16
14
14
8
-4
-3
-3
1
11
14
19
15
9
3
-3
-7
-3
2
9
11
20
14
10
6
3
-3
2
12
18
23
20
19
13
6
0
1
6
7
19
15
22
16
14
7
9
9
6
7
15
21
23
19
18
11
10
5
7
12
23
22
24
23
17
11
8
11
12
7
27
26
33
28
24
18
18
15
19
19
25
31
34
34
28
23
19
26
28
33
40
45
47
43
39
28
29
31
35
41
49
56
51
50
53
39
36
34
44
50
61
62
64
56
47
34
38
42
43
51
67
63
56
50
42
37
36
33
36
40
44
48
38
35
25
21
18
17
26
24
29
34
31
27
16
6
7
8
12
16
24
28
22
17
10
10
0
0
5
12
18
25
22
17
12
4
0
6
11
15
20
21
15
17
9
1
1
7
9
14
21
23
19
16
9
3
5
3
10
14
19
25
19
17
10
2
-3
7
8
18
25
25
20
13
6
7
1
9
4
14
17
23
18
16
7
4
-1
6
6
16
15
22
17
16
4
5
4
7
11
26
22
25
15
11
6
4
2
8
8
20
22
25
19
12
5
5
6
3
5
24
25
20
17
9
0
0
4
6
10
17
22
19
18
16
6
4
3
9
8
20
23
22
14
12
8
5
5
6
12
19
24
22
20
9
4
1
-2
5
15
18
29
23
15
7
2
0
0
10
12
18
20
20
13
8
4
6
-3
-1
14
21
22
28
18
6
5
0
5
6
14
19
25
19
15
12
7
-2
5
12
16
22
22
14
15
7
4
6
7
11
17
17
23
19
17
7
-1
2
3
1
16
24
22
20
18
8
6
7
11
10
14
17
25
25
19
8
0
6
-2
2
17
22
26
22
19
12
6
5
11
10
16
22
24
19
16
8
4
4
13
9
21
29
28
19
17
11
11
11
17
26
25
31
31
31
26
19
19
13
29
31
45
47
42
41
34
22
27
24
26
32
36
43
42
36
25
13
10
2
14
21
28
30
27
25
13
7
4
3
6
12
17
21
22
18
12
8
4
3
6
12
19
21
21
16
8
-2
-2
3
3
10
18
23
17
17
8
2
0
2
1
8
11
7
-1
-12
-21
-24
-17
-4
14
38
68
106
122
140
160
178
193
214
222
225
218
201
169
136
95
52
41
36
30
31
31
31
26
22
13
9
6
9
11
16
23
25
22
17
4
2
2
4
7
15
19
24
15
15
3
5
1
11
10
15
15
28
17
15
7
3
8
10
14
20
28
28
20
13
1
7
6
9
14
22
25
26
23
19
10
10
4
13
18
19
28
21
23
15
8
8
15
15
21
22
25
31
34
23
12
9
11
13
23
35
33
35
29
26
19
19
17
27
32
39
43
41
35
30
21
22
31
30
36
43
47
45
46
36
35
37
32
41
47
57
57
54
57
51
32
46
47
48
55
67
65
65
56
52
49
51
51
51
62
67
69
63
55
50
43
44
43
49
56
57
56
51
44
31
26
28
27
26
33
40
39
37
33
22
13
17
19
21
25
27
29
23
19
12
15
5
11
13
23
23
29
24
18
6
12
7
14
15
23
30
35
22
17
10
6
7
14
21
21
25
26
21
19
9
3
8
14
14
17
30
29
24
16
3
10
10
13
15
24
25
25
22
11
12
16
9
6
10
21
31
37
32
17
9
5
7
13
22
26
31
27
20
13
8
5
10
13
20
25
23
21
20
12
10
10
9
15
22
24
25
28
23
15
7
7
10
14
20
26
26
28
25
15
1
5
8
10
20
26
31
28
23
13
3
9
11
13
22
27
29
25
24
10
5
13
11
15
22
33
26
25
23
15
4
5
10
13
20
28
33
30
23
11
4
4
12
15
22
24
24
22
21
4
2
10
8
8
26
23
29
23
21
11
5
8
14
11
27
28
29
23
18
9
9
11
12
14
25
25
23
23
17
9
6
7
14
20
21
31
29
20
16
8
8
8
9
15
23
23
26
20
19
9
8
10
10
22
25
26
28
23
19
11
4
12
20
24
30
34
35
28
24
9
14
19
22
24
38
36
40
41
31
23
26
23
32
38
45
47
49
44
32
26
31
27
27
31
44
44
35
28
19
12
7
9
20
25
28
31
29
23
14
8
5
8
10
21
31
30
30
23
13
10
11
14
4
20
24
32
27
21
11
7
6
7
11
18
22
32
29
22
11
2
3
5
0
-1
-1
4
6
9
13
28
52
83
112
136
161
190
206
218
201
194
181
162
134
121
90
66
46
26
4
1
0
5
7
15
22
27
21
19
8
8
9
12
19
27
28
29
18
23
11
6
10
13
16
24
30
29
26
16
10
8
10
13
16
28
29
32
32
25
14
12
12
15
19
28
30
29
24
20
14
9
14
20
26
33
34
33
29
22
13
13
16
21
24
31
36
36
31
24
18
16
23
22
29
35
40
35
35
27
23
19
21
27
43
44
45
44
41
34
28
25
29
32
42
46
55
46
42
37
32
33
37
43
54
61
63
60
59
53
45
48
49
48
63
64
73
72
66
61
54
55
57
59
70
75
81
73
69
61
59
58
59
61
68
70
66
63
63
45
41
39
47
45
56
59
57
53
42
34
34
32
29
29
36
39
38
36
29
19
14
17
22
23
30
31
32
31
28
20
19
15
20
22
22
31
36
31
23
13
10
8
12
15
25
28
35
22
20
11
11
13
15
20
28
30
30
26
15
10
14
12
17
22
25
29
29
21
17
11
13
15
15
22
28
32
32
29
21
12
14
12
16
24
29
36
31
29
20
13
13
18
15
23
26
33
41
37
21
16
17
18
21
28
33
37
33
34
23
18
19
16
23
29
33
33
34
31
13
15
17
21
22
30
34
32
32
34
17
18
15
17
21
30
30
41
32
30
20
17
17
20
20
27
32
35
31
27
18
16
14
16
18
26
33
33
29
26
13
11
9
21
18
22
33
36
30
25
17
13
15
23
25
31
30
31
26
20
17
14
15
20
22
28
32
32
26
20
15
13
13
16
21
29
32
36
31
15
13
15
15
17
21
28
30
30
25
24
14
16
19
22
27
34
37
39
34
24
20
16
20
25
33
39
43
42
41
37
31
29
29
32
39
42
54
52
50
41
28
28
32
33
38
47
44
38
27
20
15
15
15
17
24
34
39
30
23
13
10
11
14
14
24
23
26
23
23
13
10
5
6
15
22
21
28
30
21
8
7
4
9
17
25
28
27
25
19
4
8
7
7
5
6
8
2
3
-4
-9
12
27
47
80
109
139
161
180
194
204
208
208
194
184
162
138
117
83
58
31
21
12
12
12
23
26
28
24
16
9
8
7
15
18
23
23
26
25
19
7
7
7
11
16
23
27
25
22
14
4
7
6
15
19
24
30
36
21
17
13
13
15
18
22
24
28
30
22
18
6
12
12
20
21
28
32
30
23
21
12
10
19
23
27
30
37
35
29
24
15
12
15
21
31
30
34
36
30
23
16
16
17
25
33
34
39
44
37
28
25
22
27
30
40
43
47
47
42
32
27
28
37
42
48
51
57
54
50
43
44
45
48
50
60
65
70
68
66
54
52
49
55
59
69
70
74
67
62
54
53
45
60
62
64
67
71
66
58
44
42
39
42
44
52
55
57
50
43
28
25
31
28
32
42
46
42
35
29
17
9
21
18
20
28
32
31
32
23
14
10
16
18
19
25
32
31
25
22
12
5
11
12
22
29
30
28
24
15
12
10
10
13
17
27
32
26
18
16
9
5
11
12
15
26
25
26
23
17
12
10
8
12
15
31
32
28
21
16
14
4
12
19
23
25
31
27
21
13
11
11
14
18
23
26
35
30
20
13
10
8
10
13
26
29
28
26
25
16
11
10
14
19
26
29
29
19
21
19
8
12
17
16
27
24
30
27
24
14
14
11
13
16
23
26
32
31
27
16
11
10
15
15
24
28
30
29
26
9
8
6
13
15
24
24
25
25
21
13
11
9
15
16
23
27
25
25
20
12
9
9
11
19
26
27
22
20
16
11
11
8
16
18
23
26
28
25
18
12
9
7
14
17
24
27
29
25
13
11
6
8
14
17
22
28
28
22
15
8
8
9
13
19
26
29
26
25
16
10
9
12
14
24
32
33
35
23
20
14
15
14
19
28
35
42
44
39
29
26
25
28
33
43
39
41
43
35
28
30
28
30
33
31
42
43
38
32
19
13
8
11
14
21
26
32
29
24
10
10
4
8
15
23
24
28
20
15
8
6
6
11
14
15
22
26
18
13
7
2
5
8
11
22
24
25
17
15
2
10
4
5
1
6
-4
-6
-10
-16
-16
-4
13
40
72
105
128
152
173
191
195
223
225
217
207
187
169
140
98
62
38
35
28
28
31
28
33
32
24
19
9
7
5
10
15
21
19
20
16
13
4
1
3
4
17
25
24
18
16
13
5
2
6
7
15
19
20
23
18
13
3
5
6
15
21
29
25
28
22
14
7
11
10
14
23
31
27
24
18
13
11
10
15
14
21
27
32
29
31
23
10
11
16
21
25
31
34
33
29
21
16
17
17
22
28
37
40
35
33
22
25
21
24
28
38
40
39
37
33
29
22
20
31
41
46
50
51
46
51
37
38
40
43
44
54
61
60
54
53
47
51
46
48
53
65
68
69
61
60
50
48
48
50
53
61
64
63
59
52
41
45
39
42
42
49
51
51
44
40
33
25
23
27
31
32
36
38
31
30
14
15
13
18
20
29
31
31
25
14
10
10
15
13
19
31
21
25
25
22
9
10
12
13
20
23
25
24
24
20
8
8
12
16
20
28
31
25
23
12
10
10
11
11
17
27
22
27
24
17
10
9
7
17
23
26
31
30
20
14
9
6
12
12
17
26
36
23
22
14
15
10
13
13
24
29
31
23
22
12
9
9
12
17
23
27
30
22
24
13
8
7
10
19
26
29
30
27
26
17
8
11
15
16
23
27
29
27
25
16
11
10
9
17
24
29
30
30
20
9
3
11
14
17
23
33
31
26
18
9
8
8
14
22
28
27
28
23
14
5
15
11
12
19
26
29
29
22
19
9
6
9
13
16
24
30
28
22
18
8
10
11
19
20
27
27
31
21
14
8
9
11
13
17
28
29
32
22
17
9
7
8
12
19
27
30
28
30
19
11
12
11
11
20
23
29
28
22
14
10
12
14
18
22
35
38
29
15
20
16
11
12
20
32
39
40
43
38
31
28
25
29
29
40
46
53
45
36
31
26
24
27
32
37
37
42
42
32
19
7
12
16
18
22
30
30
29
25
8
9
4
10
14
21
20
22
24
16
10
5
4
10
14
23
23
23
17
13
4
4
9
11
15
17
20
22
17
16
8
3
6
14
5
6
5
-6
-9
-14
-19
-10
4
28
57
95
117
136
162
177
194
211
216
219
215
202
173
143
114
66
40
27
18
16
26
29
28
29
24
15
8
9
9
11
20
25
26
25
20
16
6
7
11
11
13
18
22
24
26
16
5
5
7
9
15
21
26
26
19
12
11
8
7
17
26
29
33
29
27
16
4
7
8
18
22
26
31
25
23
17
15
10
11
22
27
30
35
31
25
19
14
17
16
19
31
32
31
31
31
22
16
18
23
29
33
35
40
37
33
27
27
28
26
29
41
41
46
42
39
30
26
32
39
44
53
50
54
51
60
47
41
42
53
53
58
64
67
67
61
52
49
51
55
65
69
71
78
70
58
53
58
53
59
61
67
68
68
70
62
47
42
45
50
51
57
59
54
47
38
30
35
32
32
38
43
43
44
36
30
18
22
23
20
26
35
38
32
26
23
16
17
14
15
19
29
32
35
28
18
11
11
17
14
20
25
33
35
30
22
13
10
14
21
23
28
35
33
29
21
12
6
12
22
23
27
32
32
26
20
12
7
16
14
27
35
34
29
25
16
15
17
11
19
28
29
32
27
26
14
11
12
16
21
27
29
32
28
27
19
14
12
20
21
28
25
27
35
30
20
15
12
18
18
32
34
37
35
29
14
14
17
20
22
30
30
32
29
24
15
15
14
22
21
24
27
38
31
24
13
14
19
18
18
30
36
32
22
21
13
16
13
12
19
23
40
34
33
21
14
12
16
13
19
25
36
36
30
22
15
13
11
23
26
29
34
29
25
19
11
10
11
18
22
29
31
30
30
24
16
11
12
15
21
29
38
28
26
16
15
13
14
19
23
36
35
29
37
25
18
18
21
27
32
33
40
42
34
29
25
23
22
25
39
43
48
43
38
29
29
31
34
36
46
52
55
52
48
37
35
34
37
41
50
52
53
51
49
36
31
37
35
34
37
39
45
41
37
24
21
16
18
23
31
44
36
34
32
23
17
13
15
21
34
31
39
35
28
17
14
18
21
24
29
33
36
32
31
17
18
18
17
26
35
37
38
22
20
8
-7
-5
-3
8
11
28
42
60
74
96
116
134
156
184
208
218
220
204
184
153
126
108
78
57
49
38
32
21
8
7
12
7
12
20
26
31
31
30
19
17
20
19
18
26
32
37
37
29
25
16
13
15
20
23
33
37
33
34
21
17
20
20
25
28
30
35
39
30
23
14
13
19
22
32
34
40
38
33
23
16
22
23
25
33
37
46
41
28
23
22
22
26
28
35
39
42
43
40
30
26
24
27
33
41
45
43
45
39
26
32
28
29
34
46
51
47
42
48
36
34
38
41
48
52
57
63
55
46
42
40
47
50
58
63
67
72
69
61
55
53
57
61
66
77
79
80
77
73
62
60
64
66
65
79
80
87
75
71
61
59
57
62
64
69
74
72
65
55
42
45
40
47
51
51
57
52
49
36
28
27
26
31
39
41
40
41
35
26
19
14
18
19
30
40
38
38
32
22
17
14
17
19
26
30
37
33
24
23
18
19
18
18
23
30
35
34
31
20
14
11
12
14
28
33
33
31
27
18
13
10
16
21
25
26
30
33
31
18
14
14
15
20
28
34
34
31
29
18
17
17
12
19
32
36
37
33
33
19
18
20
20
18
27
32
41
31
29
23
14
17
23
25
33
37
40
31
26
15
17
18
18
24
33
35
34
28
23
15
14
12
21
25
27
30
37
34
25
14
16
17
17
17
27
36
30
29
20
15
16
16
19
25
29
31
31
26
20
13
11
11
18
21
30
27
32
29
21
15
11
14
20
25
29
30
30
23
18
13
14
13
17
26
27
32
30
28
20
13
8
13
15
18
22
29
32
27
20
10
12
8
11
25
31
29
34
20
20
15
10
13
17
26
28
29
30
27
14
12
11
11
22
29
34
34
34
33
20
17
15
20
23
33
40
39
39
38
35
29
27
31
31
37
46
52
45
43
28
26
30
33
29
43
43
43
37
31
11
14
15
16
16
25
32
29
31
24
12
8
8
10
16
21
26
29
24
21
11
8
6
9
18
22
29
25
19
14
6
8
-1
11
15
23
25
28
18
13
6
3
8
7
8
6
5
1
-8
-14
-17
2
23
41
69
103
127
153
171
189
201
213
223
219
204
192
166
147
107
72
46
32
29
28
30
30
35
30
27
19
11
8
17
8
18
25
27
28
20
14
5
8
5
9
14
21
26
23
19
11
4
6
8
12
19
28
27
24
21
13
5
2
11
12
19
23
24
23
22
13
7
7
15
19
21
24
32
27
23
11
9
9
12
15
21
28
39
28
25
12
10
9
16
22
26
31
34
31
25
18
17
17
17
22
32
37
35
33
30
21
25
19
21
27
36
40
42
33
37
25
22
25
38
40
48
53
52
48
49
37
43
40
42
48
58
63
58
53
49
46
48
48
51
61
65
59
73
65
57
53
44
47
52
56
59
66
64
62
54
38
35
45
41
48
56
54
47
43
37
30
23
26
27
32
37
39
37
29
24
17
13
15
21
25
30
33
29
25
17
8
6
8
12
18
26
31
26
25
11
2
5
7
10
22
26
32
28
22
12
6
6
7
8
18
21
24
25
23
13
8
7
12
12
20
23
25
23
23
16
8
8
11
13
16
21
28
25
19
11
5
5
8
12
24
23
29
24
21
7
6
6
9
10
21
25
26
24
14
5
5
10
14
16
22
28
27
24
20
10
5
7
12
15
24
24
30
25
22
7
3
8
14
14
22
25
27
26
19
10
5
8
13
15
21
27
29
22
17
9
8
4
9
14
19
27
29
24
16
5
5
9
13
15
22
26
25
22
13
1
4
11
14
18
22
30
25
23
15
9
6
8
12
12
18
24
24
21
15
5
4
4
10
21
24
29
28
22
14
7
6
5
8
18
21
22
20
19
9
3
7
10
14
18
24
28
23
17
7
2
8
10
12
19
24
24
25
17
11
11
8
9
14
21
28
31
30
26
17
11
14
19
27
32
32
39
37
35
26
24
23
28
28
42
46
46
44
38
23
23
22
21
28
37
36
39
30
22
11
10
10
15
16
18
22
30
18
20
6
4
3
10
14
20
23
24
19
14
3
0
1
8
11
20
21
19
16
12
-2
5
6
10
13
17
19
22
14
3
-3
4
-1
-5
-6
-11
-10
0
-3
-5
0
16
40
79
108
136
162
188
207
220
230
228
209
187
172
157
129
92
65
53
37
28
25
20
23
25
31
28
23
12
8
9
12
5
19
22
28
26
16
10
1
0
6
4
19
21
26
18
13
9
1
-2
7
9
16
16
22
20
21
12
6
3
5
7
16
26
24
23
16
8
7
8
13
13
22
27
25
21
21
13
10
8
11
13
18
30
29
22
23
13
11
9
14
20
26
29
31
26
23
14
14
17
18
19
20
30
39
30
27
24
19
17
27
31
35
41
41
34
28
20
27
33
35
42
49
52
53
51
48
36
38
36
40
50
59
63
65
63
48
44
45
48
50
60
66
68
66
61
56
51
50
49
48
53
64
67
68
63
48
30
33
37
41
45
49
49
49
42
28
24
24
20
25
30
33
39
40
32
22
8
15
12
16
22
31
30
28
25
14
5
5
5
17
19
25
31
28
22
12
11
1
7
11
19
22
26
21
23
9
12
8
10
14
21
23
25
17
25
9
8
9
12
14
19
22
30
24
22
11
7
4
9
11
28
27
27
21
18
8
4
5
10
13
21
26
24
23
20
10
7
10
11
15
21
24
30
22
14
6
3
8
6
17
27
24
28
24
15
7
7
6
10
17
24
31
28
24
18
10
4
10
13
15
23
25
28
23
18
12
9
8
10
21
20
22
26
20
12
8
9
8
13
20
25
24
22
21
12
8
8
11
13
23
26
32
25
20
12
8
8
10
11
18
24
26
27
22
9
4
6
7
9
19
23
27
25
21
10
9
8
13
9
19
26
26
23
13
12
5
5
11
13
19
19
25
28
19
9
4
9
13
15
22
28
26
26
25
13
3
7
6
10
25
26
27
26
21
9
2
10
6
10
23
23
25
26
22
14
12
10
17
15
20
33
31
30
27
20
20
16
18
27
36
41
48
43
36
27
26
25
31
39
39
45
44
41
36
26
20
23
23
26
28
30
28
24
21
14
11
7
8
14
24
28
24
17
13
2
-1
1
14
15
23
15
24
22
15
7
3
2
9
11
14
20
22
20
15
6
4
3
5
8
19
21
27
17
9
-6
-15
-15
-15
-15
-6
10
19
34
39
58
91
119
130
164
191
215
224
222
203
176
146
128
104
77
57
45
31
21
6
0
2
3
6
8
21
24
16
15
17
12
6
10
9
14
22
26
19
18
13
5
2
9
7
16
22
26
24
24
10
4
6
10
12
19
21
23
26
23
6
1
0
14
20
20
21
29
26
27
12
11
15
15
15
27
20
30
29
24
14
11
16
14
18
28
29
29
25
24
14
11
14
19
23
33
30
33
32
25
14
15
19
20
26
33
43
42
33
31
24
24
28
28
31
41
51
53
49
45
35
29
36
41
46
56
59
61
55
50
43
45
43
52
57
59
67
71
62
58
47
43
53
58
62
70
76
71
66
59
48
51
53
54
54
63
66
57
52
48
40
37
37
39
47
50
54
51
38
26
25
20
19
24
33
35
37
33
31
19
15
11
12
17
23
26
34
27
26
15
10
8
9
12
19
25
30
22
18
14
6
4
10
16
20
24
24
22
24
10
5
12
16
17
21
24
31
25
17
10
8
3
9
13
21
24
27
23
21
9
8
6
13
10
22
31
28
23
19
11
7
7
14
21
23
24
27
24
17
10
12
14
15
20
27
31
34
21
21
12
11
13
12
17
30
27
31
31
23
11
7
12
15
19
24
33
27
25
20
12
9
9
6
23
28
35
32
24
17
9
11
8
15
20
23
27
26
24
17
6
7
10
14
17
23
30
27
23
18
15
10
10
13
15
20
26
31
26
15
8
7
12
13
19
24
29
27
19
15
11
6
7
9
20
24
26
21
18
14
11
6
12
12
19
25
28
26
14
11
15
4
5
10
21
26
27
23
21
12
5
5
12
14
19
26
26
22
18
10
3
6
11
18
25
22
29
21
22
13
4
2
13
14
24
33
31
27
22
11
9
8
16
23
29
33
36
35
26
17
20
29
32
34
38
40
40
36
31
28
24
24
27
34
38
40
35
36
26
11
11
8
15
17
27
29
26
20
13
6
3
6
11
11
18
24
23
19
12
4
3
3
7
17
21
22
17
12
6
-3
-3
2
6
11
19
23
14
19
11
3
1
3
4
13
7
1
0
-10
-18
-26
-18
-6
16
46
83
112
130
146
163
183
200
217
212
216
208
181
151
125
78
48
37
30
24
25
27
31
29
14
4
3
8
5
13
22
20
21
20
16
5
4
0
4
4
15
21
22
14
9
3
-1
-2
4
8
18
24
24
21
18
4
0
3
6
14
19
22
24
17
18
5
2
2
7
10
18
24
26
24
18
9
6
5
11
16
17
25
21
24
19
9
5
9
10
18
27
34
33
22
20
16
11
15
17
22
35
35
30
27
23
15
17
18
23
27
36
43
39
33
30
24
23
20
27
37
42
43
45
51
40
32
31
32
46
49
54
64
57
58
43
45
44
46
46
52
62
66
60
58
48
48
50
48
48
56
66
66
59
53
48
45
38
38
40
45
46
45
43
43
32
23
26
19
25
28
36
36
26
25
14
8
6
15
10
19
19
26
23
18
9
6
8
4
12
23
21
27
19
16
5
0
0
4
6
18
21
25
19
11
8
9
2
7
10
16
22
23
20
12
8
3
2
7
12
13
21
21
15
8
2
10
7
5
11
21
24
24
19
12
5
2
9
10
14
20
25
26
21
12
5
10
5
7
11
19
27
22
16
16
5
4
6
6
15
19
23
22
21
16
1
3
4
6
15
20
20
24
20
13
11
4
4
9
12
20
27
27
17
12
7
5
7
10
13
21
27
22
18
10
7
10
6
5
16
21
20
19
22
12
4
3
10
10
15
19
23
15
19
8
6
7
7
7
14
17
20
18
16
7
2
4
1
3
11
18
24
24
17
3
0
0
7
5
22
24
19
22
19
3
2
1
2
8
17
21
22
19
15
2
-6
-2
6
9
14
20
23
17
13
1
2
3
9
10
15
19
20
18
8
6
7
5
8
11
19
25
25
23
18
13
16
14
20
22
28
34
42
34
28
21
22
23
24
30
38
42
40
32
27
19
15
19
16
19
18
15
21
21
9
4
5
6
14
13
21
22
20
12
3
-3
-4
-2
2
9
13
18
16
6
1
-5
-5
-3
2
3
12
17
15
14
2
-6
-4
-4
1
8
10
16
10
4
-6
-16
-24
-28
-31
-17
-9
2
16
29
47
74
93
121
146
181
210
230
236
230
204
178
149
126
102
71
63
50
42
29
16
7
-2
6
7
11
15
22
14
14
-1
-2
4
2
-1
12
12
14
12
7
1
-1
-9
4
7
12
12
16
10
7
-5
-5
-5
-1
6
11
12
16
12
7
-1
2
4
-2
10
12
12
17
21
10
1
2
7
1
3
14
20
22
18
13
0
0
-1
4
10
20
24
23
13
12
5
8
5
14
14
22
26
30
20
14
8
9
9
17
20
29
32
30
28
19
13
11
18
24
25
40
39
41
30
29
28
25
29
35
39
43
46
49
47
37
27
32
40
50
52
55
54
56
55
47
42
40
43
48
54
64
67
58
57
51
43
43
43
46
50
52
55
53
48
43
30
29
25
26
34
39
45
36
28
23
15
9
14
21
24
30
30
24
17
2
6
4
8
16
13
15
21
21
18
3
6
-2
4
7
18
23
26
15
11
5
1
0
4
6
17
17
22
15
15
5
0
1
0
16
21
22
21
13
13
2
2
3
6
10
15
17
18
18
11
0
-3
5
5
17
15
22
23
11
3
-2
1
1
5
13
19
21
16
14
15
1
1
5
4
12
16
17
19
18
6
0
4
3
11
12
15
27
21
13
9
-3
2
8
10
15
21
24
17
16
6
-1
-1
1
14
14
21
26
23
14
12
6
6
7
7
13
19
25
23
16
9
3
1
5
11
18
19
20
23
23
6
-3
3
3
4
12
17
27
22
20
7
2
5
7
9
14
18
20
12
18
7
1
3
8
8
20
18
23
17
18
0
5
2
6
9
14
25
19
18
16
6
1
2
7
10
16
22
24
17
14
3
5
6
9
10
22
24
24
23
18
3
4
8
14
20
27
31
34
26
27
12
18
21
23
33
37
41
40
38
31
22
26
23
28
32
34
40
44
37
29
17
9
16
14
16
22
27
25
21
14
6
7
7
8
15
20
21
24
16
6
2
3
3
8
12
21
19
21
18
8
-2
0
-3
5
11
13
20
18
13
6
2
-4
4
4
4
11
16
4
-8
-24
-30
-26
-22
-10
10
38
67
102
118
128
157
185
210
229
242
237
229
202
166
126
91
53
51
39
30
34
29
27
17
7
6
3
7
9
13
16
22
15
14
2
-4
-6
2
9
14
16
19
12
12
1
1
3
5
5
10
15
20
13
14
1
-1
0
7
9
18
18
17
16
12
5
6
4
8
11
19
18
21
21
19
5
1
3
6
7
20
25
25
22
16
6
1
3
10
20
20
21
22
23
18
10
10
12
18
21
29
33
31
28
23
14
14
17
19
22
32
32
35
32
25
22
21
24
30
34
40
47
47
41
31
36
33
31
34
46
53
56
54
49
45
40
45
48
47
58
62
63
58
54
47
45
49
52
55
56
63
66
63
58
45
42
36
41
45
49
53
56
52
45
33
26
27
30
26
38
40
45
35
32
22
16
15
14
12
21
26
28
24
19
5
7
3
8
9
22
23
27
21
17
2
1
4
10
11
15
21
26
17
13
5
8
7
11
11
19
26
24
7
11
3
5
9
11
11
19
23
26
19
14
6
7
3
7
12
19
26
24
17
12
0
3
6
9
18
20
26
24
20
11
2
3
2
11
15
18
20
24
18
11
3
6
10
11
13
13
21
22
22
17
5
1
8
13
17
19
22
24
18
13
4
6
8
8
13
21
25
26
21
18
8
-1
7
5
17
22
23
24
20
10
3
3
6
5
16
22
28
27
20
10
5
2
2
7
14
19
27
20
15
8
5
5
8
14
17
20
22
20
15
4
2
2
7
10
18
20
23
20
18
6
4
1
5
11
15
27
24
17
15
8
3
3
14
10
19
23
23
24
23
12
7
7
11
23
25
29
34
30
25
21
20
23
25
34
40
42
40
40
34
22
17
22
30
30
43
47
43
35
26
12
7
2
11
21
17
25
22
18
12
4
4
7
6
8
17
20
20
18
9
-1
0
1
12
13
12
17
24
14
7
1
-5
0
0
8
18
20
17
16
10
1
-2
1
8
8
11
14
4
0
-28
-30
-23
-15
-3
23
47
81
105
122
137
157
187
217
225
225
213
201
173
141
104
65
36
24
15
17
15
15
17
11
2
2
1
5
9
14
16
23
22
14
6
3
0
5
8
9
21
22
18
17
9
7
5
5
5
12
14
21
16
13
5
7
4
11
14
16
17
21
22
19
8
7
10
12
13
26
27
27
16
14
8
6
6
19
16
25
19
28
26
21
12
12
12
10
13
25
31
32
27
21
14
8
11
21
25
33
40
41
31
22
15
12
21
28
33
39
44
41
39
30
21
23
24
34
37
46
48
51
48
42
32
31
34
43
48
60
62
64
57
50
43
46
51
57
61
67
70
68
63
55
49
46
49
54
60
66
71
66
60
50
44
46
47
49
52
56
55
55
45
36
29
26
29
28
36
37
43
35
31
24
18
13
15
14
22
27
31
26
27
13
10
11
13
10
21
24
30
21
19
10
5
4
11
23
23
28
33
21
13
9
6
6
9
15
15
26
24
16
17
5
7
2
8
15
20
22
26
19
21
4
6
7
9
12
19
26
28
20
17
4
8
3
10
12
22
26
28
23
17
9
8
8
11
18
25
26
26
27
15
11
12
11
14
13
26
29
34
21
5
8
9
10
13
21
25
32
27
22
17
5
3
13
18
22
17
25
26
26
15
7
5
6
7
16
23
25
23
22
12
4
8
10
11
18
23
27
28
23
13
6
6
8
11
17
20
24
22
23
9
3
5
9
4
18
18
29
18
20
9
10
9
9
9
22
26
26
15
23
16
7
7
10
17
27
33
34
32
33
20
21
20
20
23
32
35
38
40
37
