-49
-50
-67
-53
-24
-11
-29
-9
-24
-27
-23
-24
-12
-36
-28
-26
-29
-49
-46
-17
-26
-60
-42
-52
-45
-50
-54
-47
-32
-24
-31
-38
-43
-35
-34
-39
-15
-17
-69
-59
-60
-13
8
-37
-43
-26
-29
-31
-38
-30
-19
-40
-43
-50
-49
-1
-22
-25
-13
-32
-54
-47
-25
-30
-31
-32
-42
-22
-22
-53
-28
-49
-8
-2
-53
-45
-56
-50
-48
-43
-28
-12
-27
-31
-38
-22
-24
-47
-46
-43
-40
-36
-12
-37
-28
-23
-6
-24
-46
-23
-25
-32
-39
-46
-53
-34
-10
-49
-64
-51
-11
-34
-54
-33
-30
-37
-21
-28
-45
-35
-26
-16
-19
-67
-44
6
-41
-56
-18
-28
-45
-34
-65
-37
-58
-42
-22
-30
-57
-50
-41
-6
-20
-48
-35
-24
-37
-26
-44
-64
-81
-67
-41
-22
-39
-36
-11
1
-53
-19
-20
-47
-36
-44
-41
-17
-32
-31
-34
-38
-32
-38
-31
-57
-53
-31
-34
-46
-41
-36
-53
-20
-15
-32
-63
-46
-54
-46
-53
-69
-44
-32
-37
-40
0
8
-19
-26
-46
-34
-29
-14
-26
-25
-37
-22
6
-58
-37
-27
-17
-13
-13
-38
-25
-12
-7
-7
-11
-30
-34
-18
-47
-24
9
-10
-38
-5
-4
-41
-38
-37
-41
-35
-39
-28
-32
-15
-49
-66
-22
-30
-38
-29
-38
-46
-32
-33
-42
-38
-41
-50
-27
-50
-53
-73
-101
-52
-82
-70
-89
-69
-60
-29
37
86
118
169
171
214
213
199
197
194
168
151
130
88
43
33
-9
-16
-11
-11
21
-26
-54
-44
-33
-30
-37
-43
-17
-24
-55
-17
-58
-38
-41
-43
-41
-50
-39
-35
-47
-39
-46
-44
-51
-75
-60
-51
-52
-21
-19
-53
-55
-55
-46
-38
-43
-38
-42
-43
-40
-49
-34
-36
-46
-41
-52
-58
-31
-37
-37
-47
-67
-53
-48
-59
-10
-67
-63
-21
-20
-38
-30
-50
-39
-65
-62
-53
-23
-27
-35
-34
-47
-27
-24
-50
-26
-59
-30
-58
-62
-35
-60
-35
-34
-32
-22
-27
-39
-21
-39
-33
-9
-4
8
-29
-17
-24
-19
-27
-22
-31
-23
-21
-32
-23
-16
-8
-38
-23
1
10
7
12
-9
-17
6
-8
-16
13
8
13
27
-43
10
12
-6
2
30
21
1
-6
12
13
-2
28
26
-25
-3
8
-8
-4
-8
-6
-5
-13
-14
-11
-18
-38
-50
-44
-31
-22
-12
-9
-22
-49
-46
-37
-55
-47
-51
-57
-37
-47
-26
-18
-16
-50
-36
-38
-12
-29
-8
-41
-54
-32
-46
-45
-42
-74
-62
-61
-45
-66
-38
7
-40
-36
-31
-26
-30
-36
-34
-50
-40
-65
-66
-52
-31
-61
-46
-23
-42
-46
-40
-27
-31
-17
-39
-34
-36
-42
-50
-53
-53
-54
-36
-53
-27
-29
4
-18
-51
-47
-29
-17
-68
-51
-33
-49
-38
-58
-24
-30
-40
-5
-58
-26
-30
-30
-38
-44
-50
-50
-29
-36
-37
-34
-39
-16
-26
-2
-46
-66
-92
-55
-45
-45
-37
-24
-25
-37
-64
-20
-39
-34
-27
-14
-20
-55
-70
-55
-40
-31
-44
-43
-54
-24
-27
-40
-48
-44
-27
-35
-46
-54
-23
-18
-12
-70
-50
-40
-50
-35
-39
-52
-47
-35
-22
-33
-27
-59
-49
-56
-53
-61
-46
-13
-25
-15
-19
-59
-50
-64
-55
-49
-35
-39
-40
-27
-35
-36
-21
-23
-36
-44
-61
-48
-59
-51
-29
-21
-26
-25
-32
-51
-40
-73
-41
-17
-42
-31
-55
-44
-68
-53
-29
-42
-42
-21
-18
-16
-43
-69
-36
-25
-50
-42
-33
-10
-28
-41
-35
-31
-33
-53
-37
-23
-20
-14
-30
-23
-21
-16
-23
-16
-33
-22
-34
8
-14
-14
-13
-8
-9
-10
-45
-53
-20
-22
-51
-64
-44
7
-15
-53
-62
-32
-19
-41
-33
-54
-52
-48
-46
-17
-48
-37
-42
-19
-54
-52
-35
-65
-67
-56
-59
-92
-108
-93
-59
-15
6
49
98
131
153
193
191
199
220
167
141
101
119
75
56
26
0
-14
-40
-17
-25
-38
-45
-33
-54
-59
-51
-20
-17
-19
-59
-30
-44
-48
-35
-26
-17
-44
-49
-46
-38
-44
-32
-21
-49
-15
-55
-76
-69
-63
-48
-44
-39
-36
-33
-32
-47
-59
-66
-62
-52
-36
-32
-39
-45
-29
-42
-60
-24
-21
-26
-45
-53
-40
-40
-43
-34
-45
-35
-36
-57
-67
-30
-20
-17
-56
-38
-37
-38
-32
-34
-33
-20
-23
-49
-46
-45
-42
-46
-50
-68
-20
-10
-12
-22
-23
-34
-28
-51
-12
-10
-25
-53
-24
3
-28
20
-17
-31
-16
-7
-39
-8
-10
-19
-3
-9
-18
-19
-41
-13
5
8
1
10
31
9
17
8
17
21
-11
8
28
19
2
11
17
9
1
10
13
33
35
19
12
-10
18
3
8
30
-11
-16
-13
-14
-4
-12
-12
-8
-6
-34
-48
-41
-56
-44
-25
-33
-42
-12
-30
-12
-31
-8
-52
-24
-28
-28
-45
-43
-27
-65
-41
-48
-58
-45
-28
-32
-25
-3
-28
-54
-45
-26
-46
-53
-42
-46
-49
-64
-34
-9
-26
-56
-62
-45
-47
-26
-45
-73
-26
-50
-50
-8
-48
-24
-31
-23
-13
-38
-41
-46
-40
-36
-24
-16
-8
-13
-23
-19
-49
-34
-39
-51
-31
-44
-44
-43
-36
-32
-41
-30
-33
-38
-29
-22
-35
-43
-34
-32
-19
-67
-25
-21
-35
-36
-20
-44
-29
-15
-31
-49
-20
-11
-27
-28
-18
-49
-40
-41
-48
-48
-36
-41
-40
-28
-30
-52
-45
-23
-52
-46
-65
-36
-28
-6
-17
-31
-16
-35
-32
-38
-32
-51
-54
-60
-52
-82
-72
-37
-35
-38
-8
-19
-11
-33
-39
-9
-17
-43
-54
-41
-30
-30
-19
-28
-44
-60
-48
-43
-33
-61
-40
-13
-13
-66
-44
-61
-31
-28
-35
-38
-47
-57
-48
-21
-28
-31
-56
-38
-63
-42
-24
-39
-41
-33
-50
-42
-20
-40
-46
-33
-37
-48
-38
-21
-50
-38
-62
-44
-33
-23
-33
-27
-40
-50
-62
-103
-14
-1
-28
-14
-16
-30
-33
-37
-31
-26
-22
-34
-47
-34
-44
-37
-16
-34
-29
-23
-28
-12
-13
-31
-9
-10
-39
-5
-27
-22
3
-2
-2
-16
1
-15
-11
-23
-36
-17
-52
-27
-24
-50
-33
-51
-30
1
-37
-55
-80
-65
-52
-21
-25
-27
-23
-32
-42
-44
-41
-56
-71
-78
-61
-95
-84
-67
-74
-51
-23
12
50
96
127
179
181
206
219
217
223
163
142
127
135
90
32
2
-2
1
1
-37
-10
-39
-18
-57
-39
-31
-41
-33
-24
-39
-30
-32
-45
-27
-21
-43
-27
-54
-48
-52
-25
-41
-75
-55
-32
-28
-44
-56
-52
-46
-27
-38
-31
-42
-41
-48
-46
-38
-38
-37
-22
-28
-28
-39
-39
-43
-32
-44
-20
-39
-49
-38
-62
-32
-23
-13
-58
-26
-44
-50
-26
-33
-25
-34
-62
-45
-52
-35
-52
-63
-80
-35
-16
-52
-56
-63
-28
-27
-25
-29
-25
-30
-36
-19
-17
-24
-16
0
-43
-13
-19
-19
-19
-14
-37
-8
-13
-15
-23
-21
3
-11
-14
-40
-15
-25
-4
-10
-27
-3
-10
-4
-10
-2
4
8
18
-13
-7
-23
-7
-10
26
26
21
-6
17
15
35
8
17
21
27
24
6
17
18
9
-4
-21
-14
-4
25
0
-23
-9
-3
-6
-26
-41
-11
-37
-32
-11
-33
-54
-19
-32
-34
-17
-52
-36
-32
-16
-37
-45
-47
-46
-41
-45
-32
-24
-11
-32
-25
-30
-53
-29
-22
-19
-19
-20
-20
-40
-58
-55
-30
-34
-52
-46
-16
-39
-30
-69
-47
-47
-27
-32
-47
-47
-37
-39
-26
-27
-27
-45
-20
-37
-40
-2
-8
-30
-54
-48
-42
-53
-47
-28
-26
-48
-43
-47
-44
-26
-9
-6
-34
-15
-32
-16
-35
-26
-28
-31
-40
-37
-38
-44
-51
-12
-25
-41
-45
-15
-17
-16
-5
-45
-54
-33
-29
-44
-37
-48
-24
-40
-44
-68
-67
-49
-58
-25
-25
14
-32
-35
-22
-24
-21
-13
-19
-60
-48
-38
-34
-38
-20
-36
-36
-9
-34
-45
-66
-37
-32
-48
-15
-34
-39
-32
-51
-44
-40
-69
-36
-47
-32
-28
-31
-6
-19
-26
-59
-33
-62
-55
-32
-38
-30
-21
-20
-27
-31
-35
-46
-33
-1
-27
-57
-40
-28
-44
-55
-45
-41
-48
-59
-18
-19
-24
-54
-42
-21
-32
-13
-33
-34
-24
-57
-38
-11
-34
-40
-71
-75
-48
-48
-46
-57
-40
-32
-50
-10
-28
-23
-37
-48
-55
-43
-15
-32
-48
-15
-13
-5
-2
-25
-44
-23
-45
-30
-45
-31
1
-22
-17
-46
-36
-9
-11
-20
-19
-14
-22
-31
-18
4
-14
-42
-9
-52
-22
-30
-34
-15
-9
-24
-41
-21
-41
-45
-29
-22
-31
-38
-33
-23
-25
-29
-23
-44
-38
-37
-53
-50
-47
-30
-44
-46
-26
-53
-77
-90
-96
-86
-82
-49
-65
-36
-7
22
107
134
151
181
247
227
206
196
190
152
122
97
71
58
20
8
3
-16
-27
-39
-39
-21
-40
-39
-23
-32
-45
-61
-39
-21
-52
-81
-43
-44
-36
-2
-39
-29
-47
-30
-26
-32
-68
-57
-67
-49
-49
-41
-39
-41
-50
-70
-68
-54
-34
-43
-40
-32
-18
-47
-53
-37
-52
-56
-56
-48
-20
-23
-31
-30
-56
-67
-67
-53
-18
-32
-33
-33
-27
-41
-32
-42
-55
-39
-52
-45
-49
-39
-33
-30
-42
-51
-59
-52
-57
-51
-41
-15
-18
-26
-20
-20
-60
-28
-20
-22
-21
-44
-41
-51
-31
-11
-46
-26
-35
-12
-10
-21
-33
-2
3
-2
-4
-10
-1
-6
-24
-22
-34
-5
4
-18
-33
0
7
19
3
1
10
6
3
37
20
1
15
2
-4
-7
30
11
-2
17
1
-1
27
1
16
13
4
3
17
-19
-2
-24
-15
-21
-12
-7
-29
-16
-30
-50
-20
-22
-38
-37
-50
-27
-56
-39
-73
-34
-22
-42
-41
-35
-54
-44
-24
-30
-57
-39
-26
-44
-16
-56
-35
-52
-27
-25
-33
-47
-29
-39
-23
-50
-54
-63
-33
-52
-62
-35
-41
-39
-48
-30
-15
-39
-53
-56
-52
-49
-49
-47
-38
-14
-43
-37
-4
-28
-51
-55
-54
-62
-37
-26
-25
-27
-54
-32
-12
-11
-31
-48
-50
-52
-28
-40
-62
-52
-40
-34
-27
-35
-12
-14
-37
-17
-50
-44
-34
-35
-46
-36
-38
-23
-29
-44
-40
-41
-66
-48
-49
-27
-31
-34
-35
-25
-42
-65
-64
-52
-26
-35
-18
-43
-29
-33
-34
-38
-31
-37
-32
-31
-21
12
-24
-68
-68
-37
-70
-52
-36
-55
-26
-51
-52
-29
-31
-20
-41
-37
-40
-39
-46
-43
-30
-17
-22
-50
-13
-52
-58
-40
-40
-44
-46
-41
-61
-56
-42
-34
-29
-3
-23
-28
-35
-62
-36
-67
-74
-11
-11
-37
-58
-50
-36
-36
-34
-9
-39
-64
-51
-60
-65
-35
-33
-22
-49
-32
-28
-25
-57
-55
-43
-24
-24
-41
-47
-46
-50
-67
-29
-32
-18
-33
-34
-23
-41
-41
-61
-29
-35
-29
-27
19
-10
5
-37
-17
-14
-28
-20
-15
-29
-5
-25
-20
-12
-34
-27
-9
-15
-25
-44
-18
-40
-39
-51
-22
-33
-28
-24
-43
-47
-52
-49
-40
-39
-29
-33
-26
-38
-39
-40
-28
-9
-52
-77
-78
-85
-66
-84
-81
-80
-58
-57
0
19
69
85
132
141
167
185
214
233
208
175
148
120
91
54
23
-24
-20
-19
-25
-25
-25
-36
-55
-57
-10
-35
-44
-47
-60
-84
-48
-55
-45
-28
-29
-20
-24
-72
-34
-32
-53
-25
-21
-40
-44
-24
-41
-30
-23
-28
-31
-50
-66
-26
-44
-56
-32
-69
-44
-15
-42
-26
-42
-77
-55
-48
-25
-38
-51
-38
-65
-68
-28
-25
-46
-65
-29
-38
-23
-45
-42
-36
-43
-67
-50
-42
-55
-23
-17
-15
-36
-20
-47
-38
-14
-15
-28
-54
-10
-6
-36
-58
-32
-21
-30
-24
-44
-47
-13
-41
-43
-21
8
-17
-24
-29
-26
-22
-11
-16
-23
-1
-25
-21
-27
37
-2
-12
6
15
-34
-16
-1
-20
-3
3
-10
4
15
0
-3
22
19
21
34
35
-1
-3
6
16
16
26
25
18
4
-1
-1
13
4
6
-9
-31
8
-12
-6
4
-8
-13
-27
-57
-37
0
-29
-19
-24
-65
-52
-48
9
-43
-34
-34
-38
-52
-40
14
-48
-52
-54
-53
-32
-31
-44
-53
-38
-38
-49
-32
-48
-73
-60
-43
-35
-20
-20
-17
-19
-46
-45
-34
-58
-56
-44
-34
-33
-40
-47
-45
-49
-51
-46
-31
-41
-39
-43
-19
-48
0
-36
-15
-46
-72
-49
-23
-35
-50
-5
-56
-15
-33
-39
-42
-42
-48
-44
-63
-24
-44
-22
-30
-35
-38
-14
-17
-16
-63
-51
-51
-29
-34
-30
-38
-34
-18
-15
-38
-20
-51
-53
-29
-35
-55
-39
-28
-49
-54
-44
-59
-54
-30
-12
-21
-43
-29
-27
-23
-50
-45
-54
-63
-50
-36
-30
-27
-46
-24
-46
-45
-50
-17
-21
-42
-52
-38
-23
-40
-18
-29
-38
-65
-48
-27
-45
-37
-34
-40
-46
-58
-58
-39
-64
-37
-45
-47
-35
-56
-65
-54
-11
-28
-31
-29
-53
-59
-35
-17
-61
-29
-37
-18
-19
-38
-38
-33
-53
-38
-39
-61
-45
-33
-37
-32
-43
-66
-40
-29
-36
-44
-57
-48
-49
-40
-44
-35
-16
-59
-59
-45
-46
-40
-32
-49
-57
-31
-38
1
-36
-36
-42
-15
-35
-49
-35
-45
-25
-18
-33
-46
-30
-1
-38
-17
10
-49
-35
-26
-26
-21
-50
-34
-34
-35
-1
-5
2
-22
-28
-23
-28
-51
-20
-13
-33
-46
-26
-31
-50
-46
-18
-23
-76
-52
-73
-50
-26
-7
-42
-78
-48
-44
-28
-43
-48
-54
-80
-82
-77
-94
-93
-82
-80
-53
-17
7
68
102
144
165
178
206
184
186
187
194
162
118
136
92
26
11
-27
-57
-47
-41
-18
-23
-24
-25
-30
-40
-50
-42
-25
-46
-38
-68
-45
-36
-20
-25
-67
-58
-68
-68
-74
-46
-23
-49
-31
-49
-43
-48
-49
-43
-37
-45
-49
-75
-82
-66
-46
-38
-17
1
-26
-83
-68
-23
-32
-36
-32
-44
-40
-33
-61
-51
-44
-52
-55
-57
-48
-45
-41
-42
-37
-33
-65
-58
-50
-46
-46
-70
-60
-36
-26
-67
-35
-43
-38
-51
-35
-40
-37
-49
-34
-10
-12
-42
-31
-53
-43
-32
-40
-52
-48
-49
-36
-22
-20
-20
-47
-33
-27
-16
-18
1
2
-14
-38
-25
-24
-15
-19
-20
-1
5
-16
-15
-14
-6
-15
2
19
-8
4
3
23
13
5
-23
-1
17
0
19
-9
-2
5
-3
5
-4
-10
14
-10
-17
-24
-13
-35
-13
-40
-5
-13
-14
-35
-29
-44
-36
-42
-24
-17
-30
-29
-28
-45
-50
-45
-45
-37
-37
-26
-42
-53
-68
-69
-51
-42
-47
-56
-49
-21
-24
-34
-43
-55
-48
-28
-23
-69
-70
-44
-44
-43
-37
-67
-65
-24
-54
-46
-32
-58
-51
-46
-28
-34
-53
-72
-40
-45
-36
-34
-46
-33
-44
-52
-66
-47
-41
-63
-41
-48
-42
-38
-61
-68
-20
-21
-6
-27
-42
-35
-55
-53
-44
-60
-70
-59
-41
-26
-12
-27
-21
-24
-39
-51
-41
-52
-46
-46
-55
-27
-44
-33
-60
-52
-59
-39
-27
-72
-48
-32
-66
-68
-56
-19
-17
-55
-43
-36
-37
-39
-48
-39
-31
-42
-36
-57
-53
-60
-60
-39
-39
-39
-45
-54
-59
-76
-36
-52
-49
-78
-60
-52
-26
-26
-28
-23
-29
-52
-58
-58
-40
-43
-52
-38
-62
-42
-36
-25
-57
-64
-60
-58
-51
-62
-58
-35
-36
-54
-61
-51
-37
-63
-47
-52
-13
-97
-67
-26
-42
-50
-61
-43
-61
-62
-23
-35
-35
-48
-61
-46
-71
-67
-43
-21
-39
-36
-26
-25
-43
-29
-19
-28
-24
-35
-23
-59
-23
-22
-6
-7
3
6
-16
3
11
-5
9
21
21
15
5
-7
-8
31
76
63
53
13
21
22
43
27
21
45
18
3
24
23
8
21
11
-11
28
35
7
2
-3
-5
-8
0
-1
-17
-9
-1
-12
-29
-18
12
-19
-40
-37
-24
-37
-28
-4
-37
-33
-27
-39
-38
-40
-17
-70
-45
-48
-70
-77
-77
-59
-56
-70
-46
-17
42
113
131
150
196
233
221
222
211
168
123
122
113
98
68
31
-1
-16
-31
2
-34
-66
-34
-40
-45
-48
-69
-67
-40
-55
-54
-30
-51
-20
-12
-38
-27
-37
-27
-31
-10
-54
-48
-55
-61
-39
-44
-37
-47
-42
-50
-42
-38
-62
-31
-33
-55
-13
-23
-49
-64
-51
-35
-43
-55
-59
-51
-56
-56
-47
-31
-48
-53
-40
-53
-56
-42
-36
-41
-52
-54
-38
-58
-33
-24
-25
-22
-58
-68
-64
-73
-23
-14
-25
-50
-40
-49
-28
-52
-29
-35
-38
-36
-17
-27
-66
-52
-33
-54
-27
-24
-33
-22
-28
-38
-4
-25
-16
-26
-29
-48
-9
-29
-4
-33
-21
-27
-22
-1
1
-13
-13
-4
-4
-17
-16
25
20
-5
11
-4
-13
-8
-5
20
54
25
43
-30
-3
3
-27
-17
-19
-36
6
8
17
-8
19
-11
-27
-8
-22
-23
-15
-7
-21
-22
-42
-47
-35
-6
-33
-34
-12
-46
-22
-36
-48
-66
-60
-42
-46
-43
-45
-57
-41
-45
-57
-62
-72
-50
-35
-37
-27
-62
-79
-65
-61
-32
-43
-60
-55
-62
-61
-49
-30
-49
-40
-59
-43
-15
-52
-48
-47
-59
-57
-52
-58
-42
-52
-67
-48
-52
-54
-57
-36
-32
-55
-55
-50
-29
-32
-39
-28
-46
-41
-59
-40
-56
-60
-55
-37
-21
-38
-62
-37
-36
-40
-48
-49
-44
-64
-46
-57
-44
-67
-52
-15
-32
-39
-39
-43
-54
-30
-32
-73
-44
-38
-44
-39
-34
-56
-66
-57
-59
-40
-23
-43
-70
-56
-37
-36
-56
-37
-71
-77
-55
-65
-83
-89
-59
-36
-31
-26
-49
-51
-26
-44
-41
-48
-41
-41
-58
-60
-42
-51
-55
-54
-51
-41
-39
-67
-52
-80
-49
-58
-55
-39
-34
-51
-54
-45
-48
-63
-73
-35
-34
-26
-79
-42
-52
-55
-57
-63
-68
-57
-59
-55
-64
-75
-44
-52
-30
-42
-58
-44
-71
-37
-33
-56
-63
-80
-54
-34
-55
-64
-53
-62
-74
-65
-44
-34
7
-26
-49
-60
-46
-57
-71
-54
-53
-57
-55
-31
-44
-31
-38
-43
-28
-33
-11
-46
-48
-49
-62
-64
-35
-38
-50
-39
-45
-68
-54
1
-22
-39
-33
-35
7
-32
-31
-46
-41
-22
-24
-48
-59
-76
-53
-31
-32
-64
-47
-28
-59
-54
-52
-49
-61
-70
-55
-72
-79
-63
-73
-79
-68
-80
-93
-89
-97
-94
-57
-64
-56
10
67
95
167
156
164
173
178
180
184
138
142
123
74
59
0
-11
-48
-35
-60
-34
-50
-55
-34
-52
-32
-67
-62
-35
-33
-58
-72
-55
-54
-35
-41
-52
-68
-60
-64
-55
-47
-59
-60
-59
-64
-69
-79
-69
-62
-62
-64
-69
-60
-29
-71
-56
-32
-32
-88
-54
-58
-75
-68
-36
-64
-50
-79
-62
-54
-25
-45
-37
-57
-69
-61
-59
-64
-52
-66
-60
-41
-55
-51
-58
-54
-50
-53
-64
-68
-81
-63
-24
-55
-53
-64
-59
-35
-47
-36
-64
-59
-42
-24
-50
-62
-66
-53
-47
-41
-35
-30
-48
-52
-26
-25
-68
-57
-25
-13
-22
-27
-48
-25
-41
-37
-15
-14
-25
-20
-11
-19
-13
-25
-9
3
-5
7
-16
1
-21
-16
-22
5
-14
-36
-8
-11
-4
-15
-8
-43
-28
1
31
1
7
1
14
-2
-16
-11
-23
-32
-38
-19
-52
-38
7
4
-15
-73
-49
-30
-41
-32
-55
-43
-58
-58
-58
-73
-48
-51
-55
-40
-26
-72
-73
-63
-53
-58
-74
-42
-76
-73
-59
-59
-51
-39
-40
-25
-59
-34
-59
-56
-43
-65
-58
-63
-65
-40
-40
-43
-18
-65
-50
-52
-59
-44
-53
-70
-80
-28
-42
-69
-74
-52
-61
-73
-51
-59
-58
-54
-66
-61
-23
-38
-52
-34
-44
-47
-43
-42
-43
-39
-70
-51
-44
-42
-72
-59
-55
-44
-37
-54
-61
-50
-57
-60
-56
-67
-51
-30
-31
-59
-44
-63
-64
-46
-40
-44
-46
-57
-87
-51
-32
-66
-57
-65
-72
-56
-27
-39
-37
-51
-50
-64
-57
-63
-55
-43
-38
-62
-78
-74
-57
-38
-29
-45
-46
-46
-72
-67
-60
-56
-44
-50
-68
-54
-70
-67
-36
-32
-16
-69
-74
-57
-55
-87
-69
-71
-46
-51
-54
-62
-67
-76
-68
-52
-62
-47
-64
-42
-54
-43
-42
-61
-64
-52
-34
-37
-35
-51
-58
-63
-72
-63
-58
-17
7
-70
-83
-65
-55
-56
-60
-56
-79
-47
-71
-70
-55
-40
-70
-64
-53
-74
-51
-57
-58
-68
-57
-72
-65
-52
-69
-69
-50
-58
-26
-44
-37
-37
-41
-38
-17
-20
-46
-40
-53
-39
-61
-46
-34
-57
-59
-35
-44
-52
-27
-10
-26
-39
-30
-37
-23
-36
-24
-57
-44
-50
-55
-34
-40
-36
-47
-64
-88
-78
-57
-44
-32
-38
-55
-59
-71
-63
-51
-51
-69
-55
-78
-88
-81
-39
-52
-83
-106
-99
-105
-82
-64
-71
-51
-1
40
81
123
138
168
196
194
203
186
190
140
90
75
62
20
-12
-25
-6
-39
-57
-61
-50
-37
-60
-61
-60
-24
-47
-67
-58
-56
-68
-60
-76
-42
-54
-59
-48
-68
-60
-49
-94
-83
-70
-69
-75
-66
-43
-61
-54
-53
-33
-33
-53
-58
-76
-72
-84
-69
-45
-50
-54
-74
-63
-51
-59
-74
-59
-58
-75
-73
-70
-60
-68
-57
-17
-50
-68
-52
-77
-75
-82
-58
-72
-46
-54
-71
-45
-40
-38
-38
-74
-79
-91
-70
-50
-54
-44
-61
-49
-61
-59
-59
-65
-55
-49
-59
-60
-32
-26
-11
-18
-20
-35
-64
-50
-43
-43
-40
-45
-46
-35
-32
-39
13
-12
-44
-40
-30
-43
-45
-40
-32
-17
-5
-33
-27
-36
-46
-24
-2
-4
-14
-24
3
4
13
-17
8
-9
19
-8
-5
-2
8
-5
-11
-9
-5
-15
-21
-20
-33
-45
-47
-16
-3
-36
-56
-45
-48
-31
-43
-69
-44
-45
-55
-63
-29
-60
-56
-67
-68
-72
-56
-48
-80
-67
-34
-37
-88
-63
-49
-47
-59
-59
-81
-66
-48
-40
-43
-52
-51
-55
-65
-54
-50
-60
-55
-44
-70
-75
-68
-90
-63
-64
-32
-55
-54
-66
-45
-67
-62
-67
-63
-59
-67
-50
-42
-43
-69
-71
-49
-66
-52
-28
-58
-56
-43
-56
-72
-53
-38
-54
-53
-41
-40
-60
-63
-66
-45
-44
-55
-58
-57
-73
-63
-70
-55
-99
-48
-38
-24
-41
-61
-67
-48
-53
-67
-54
-59
-66
-58
-37
-54
-46
-47
-58
-59
-74
-40
-52
-39
-34
-47
-68
-60
-73
-78
-84
-74
-58
-71
-62
-55
-53
-55
-75
-43
-37
-52
-63
-51
-47
-46
-56
-45
-31
-50
-77
-76
-91
-59
-57
-53
-48
-76
-49
-73
-66
-34
-47
-85
-63
-57
-51
-48
-65
-29
-49
-49
-78
-57
-77
-68
-58
-55
-62
-75
-63
-64
-62
-55
-45
-41
-52
-52
-53
-78
-65
-43
-60
-54
-60
-63
-44
-70
-50
-46
-50
-62
-68
-57
-34
-67
-51
-44
-65
-77
-65
-61
-60
-61
-84
-49
-22
-28
-46
-45
-77
-22
-41
-25
-34
-44
-57
-62
-78
-41
-58
-24
-26
-49
-4
0
-21
-46
-48
-20
-34
-18
-42
-36
-34
-46
-38
-36
-48
-53
-43
-46
-59
-68
-73
-62
-57
-64
-70
-39
-60
-54
-81
-71
-68
-69
-63
-72
-43
-71
-73
-68
-79
-64
-94
-92
-108
-99
-64
-51
45
43
81
135
149
169
167
169
161
151
139
130
111
81
25
4
-12
-16
-46
-47
-53
-63
-67
-59
-74
-89
-35
-61
-74
-77
-63
-69
-30
-38
-37
-61
-78
-53
-32
-50
-66
-44
-42
-47
-92
-87
-51
-47
-48
-68
-95
-56
-75
-59
-79
-56
-50
-60
-61
-49
-50
-75
-71
-65
-46
-69
-65
-37
-59
-40
-75
-44
-64
-41
-40
-54
-62
-38
-64
-59
-51
-30
-71
-77
-78
-69
-40
-45
-49
-33
-39
-57
-54
-47
-61
-63
-91
-69
-57
-46
-48
-60
-45
-38
-57
-42
-22
-63
-74
-24
-27
-40
-40
-38
-54
-23
-43
-75
-28
-38
-15
-16
19
-20
-12
-34
-24
-5
-16
-25
-35
-22
3
-20
-48
-22
-5
2
1
-2
0
3
-6
12
-1
-6
-23
9
-14
-13
-5
17
11
22
8
4
3
-9
-16
-34
-49
-31
1
2
-26
-21
-7
-29
-22
-27
-25
-33
-52
-40
-49
-69
-39
-46
-40
-73
-71
-48
-36
-49
-61
-43
-42
-46
-59
-70
-84
-66
-75
-42
-54
-47
-57
-43
-80
-95
-56
-79
-57
-18
-40
-39
-51
-55
-51
-60
-54
-70
-57
-63
-46
-54
-32
-30
-47
-74
-46
-67
-43
-62
-71
-65
-85
-42
-45
-40
-26
-36
-53
-49
-40
-57
-47
-39
-46
-73
-62
-57
-61
-56
-48
-39
-55
-35
-47
-48
-47
-45
-42
-46
-28
-52
-27
-72
-40
-42
-59
-53
-77
-80
-68
-62
-50
-53
-34
-28
-43
-58
-50
-43
-40
-52
-58
-59
-65
-42
-40
-37
-37
-40
-58
-84
-50
-56
-57
-42
-48
-43
-30
-25
-45
-79
-71
-54
-52
-59
-64
-61
-43
-63
-89
-45
-52
-60
-53
-49
-65
-65
-61
-50
-45
-58
-49
-35
-44
-43
-72
-53
-55
-62
-59
-42
-28
-43
-58
-103
-64
-36
-44
-62
-71
-47
-50
-40
-61
-61
-59
-43
-62
-65
-40
-43
-55
-57
-63
-40
-67
-61
-56
-70
-57
-65
-85
-70
-61
-70
-70
-33
-51
-49
-37
-68
-70
-60
-63
-36
-51
-38
-26
-52
-65
-56
-44
-53
-55
-56
-44
-39
-34
-31
-16
-35
-43
-43
-51
-83
-53
-15
-21
-58
-56
-29
-54
-49
-19
-39
-29
-29
-47
-53
-23
-6
-42
-50
-74
-73
-53
-59
-47
-33
-62
-49
-34
-55
-61
-55
-49
-56
-78
-57
-58
-57
-45
-56
-51
-67
-72
-80
-91
-84
-114
-108
-125
-107
-67
-48
-11
52
74
98
131
177
192
201
175
172
180
141
122
91
78
50
-3
-37
-41
-52
-57
-68
-59
-45
8
-71
-55
-62
-43
-61
-62
-70
-84
-65
-73
-66
-45
-33
-47
-49
-61
-89
-71
-55
-49
-79
-63
-99
-76
-85
-70
-71
-45
-51
-62
-39
-58
-77
-66
-62
-48
-45
-69
-64
-81
-56
-34
-78
-99
-78
-43
-23
-58
-53
-59
-55
-72
-56
-78
-66
-84
-60
-47
-67
-70
-58
-68
-50
-72
-106
-60
-81
-53
-46
-41
-57
-52
-40
-23
-49
-64
-61
-48
-81
-51
-74
-67
-38
-65
-68
6
-37
-56
-51
-50
-43
-35
-31
-45
-53
-47
-19
-31
-39
-34
-43
-43
-34
-28
-19
-2
-13
-14
-3
-3
-43
-37
-22
-19
-27
-15
-12
-4
-59
7
-10
-13
0
-7
-1
-22
-7
-12
14
-1
-15
-17
-9
-9
-29
-22
-24
-26
-30
-28
-11
-30
-35
-41
-28
-61
-70
-75
-34
-34
-61
-55
-36
-41
-65
-39
-49
-52
-65
-51
-54
-66
-56
-46
-59
-65
-47
-59
-28
-62
-71
-16
-59
-65
-68
-72
-66
-72
-47
-50
-57
-84
-58
-70
-51
-82
-69
-49
-55
-69
-60
-73
-69
-64
-60
-45
-50
-55
-52
-64
-66
-48
-67
-53
-44
-46
-64
-63
-45
-48
-45
-59
-53
-56
-58
-58
-65
-71
-64
-56
-66
-83
-58
-50
-40
-49
-44
-31
-51
-98
-62
-63
-55
-71
-59
-41
-58
-36
-51
-59
-62
-66
-60
-70
-25
-31
-44
-54
-49
-44
-46
-80
-71
-67
-40
-45
-53
-47
-53
-70
-60
-34
-61
-47
-57
-93
-79
-60
-68
-63
-70
-47
-58
-48
-56
-55
-55
-69
-78
-52
-20
-26
-58
-54
-60
-57
-68
-60
-64
-49
-72
-61
-67
-58
-70
-59
-59
-33
-36
-65
-79
-75
-69
-70
-65
-61
-37
-48
-66
-56
-50
-46
-66
-76
-81
-66
-72
-101
-66
-59
-27
-21
-58
-52
-75
-64
-20
-78
-72
-61
-55
-60
-57
-68
-68
-43
-42
-44
-53
-71
-73
-63
-73
-52
-60
-68
-43
-40
-52
-60
-50
-64
-59
-52
-55
-63
-85
-66
-48
-66
-66
-58
-50
-67
-69
-61
-59
-57
-73
-66
-39
-24
-68
-51
-14
-47
-49
-46
-41
-29
-26
-26
-32
-25
-24
-38
-34
-30
-37
-19
-51
-72
-40
-52
-51
-45
-51
-72
-55
-44
-50
-56
-75
-52
-71
-61
-63
-53
-55
-61
-47
-66
-66
-69
-82
-82
-78
-110
-108
-112
-118
-112
-74
-86
-58
-61
14
53
94
134
138
167
194
222
205
178
169
167
116
75
68
18
6
-13
-50
-54
-44
-68
-68
-60
-35
-51
-62
-44
-74
-86
-67
-68
-70
-71
-35
-67
-66
-78
-56
-68
-58
-66
-73
-79
-57
-55
-66
-63
-68
-64
-47
-60
-81
-64
-64
-75
-57
-49
-62
-82
-62
-57
-58
-65
-65
-66
-81
-64
-62
-23
-61
-63
-33
-55
-70
-84
-83
-65
-61
-66
-67
-69
-44
-45
-63
-74
-80
-86
-60
-69
-56
-57
-49
-68
-67
-62
-47
-63
-69
-59
-42
-54
-54
-51
-51
-55
-53
-55
-42
-46
-23
-69
-25
-27
-51
-41
-47
-62
-57
-27
-60
-52
-33
-14
-18
-26
-23
-56
-45
-62
-57
-48
3
-11
-13
-10
-10
-13
-11
-23
-28
-28
-18
-6
-3
-10
-4
-6
1
-2
7
11
-1
-2
-15
0
-6
0
-11
-22
-42
-29
-21
-16
-23
-39
-29
-45
-46
-23
-33
-71
-47
-25
-38
-62
-62
-67
-71
-58
-59
-47
-60
-50
-54
-44
-33
-57
-51
-58
-57
-59
-71
-44
-38
-47
-42
-67
-55
-75
-41
-47
-46
-54
-87
-79
-53
-62
-73
-63
-86
-67
-49
-55
-50
-69
-44
-50
-68
-53
-61
-56
-47
-62
-72
-50
-54
-59
-72
-64
-49
-55
-61
-53
-67
-65
-63
-56
-65
-39
-48
-61
-59
-63
-64
-41
-30
-46
-48
-36
-54
-64
-73
-56
-47
-31
-62
-58
-78
-58
-76
-72
-54
-39
-21
-22
-73
-66
-53
-37
-39
-75
-50
-68
-66
-26
-42
-59
-67
-55
-61
-53
-70
-58
-56
-52
-58
-40
-46
-48
-63
-53
-65
-72
-66
-61
-62
-51
-59
-43
-44
-38
-55
-58
-66
-55
-54
-56
-59
-63
-81
-38
-70
-67
-62
-63
-57
-30
-34
-46
-45
-32
-44
-66
-81
-76
-47
-66
-71
-62
-58
-47
-68
-34
-38
-54
-49
-66
-67
-52
-70
-39
-58
-70
-95
-81
-66
-54
-46
-41
-35
-41
-71
-67
-83
-45
-30
-61
-55
-62
-80
-65
-66
-51
-32
-13
-58
-68
-48
-53
-87
-60
-75
-44
-57
-53
-70
-85
-27
-75
-51
-64
-34
-37
-47
-55
-63
-30
-33
-29
-48
-56
-32
-31
-38
-25
-28
-19
-25
-18
-35
-45
-39
-45
-54
-56
-43
-56
-60
-56
-52
-59
-71
-62
-77
-56
-54
-48
-62
-56
-61
-37
-58
-52
-49
-36
-64
-61
-67
-92
-75
-123
-76
-74
-93
-82
-91
-78
-95
-47
-17
23
79
117
134
171
183
179
146
163
152
107
110
80
50
9
-42
-35
-42
-59
-72
-74
-61
-29
-55
-79
-58
-46
-58
-50
-54
-57
-62
-67
-67
-88
-76
-66
-77
-61
-37
-27
-52
-62
-32
-54
-69
-76
-62
-90
-69
-66
-54
-69
-53
-65
-64
-57
-47
-58
-52
-68
-40
-17
-87
-65
-60
-70
-79
-95
-75
-91
-42
-45
-75
-47
-50
-49
-57
-59
-54
-50
-42
-34
-51
-64
-73
-51
-67
-81
-77
-51
-63
-72
-48
-86
-67
-58
-14
-19
-49
-47
-36
-53
-60
-64
-33
-30
-56
-56
-38
-36
-48
-45
-65
7
-38
-67
-46
-37
-55
-21
-26
-17
-32
-28
-9
-23
-37
-42
-35
-24
-17
-3
5
-29
-25
-29
-34
-1
-6
20
3
10
-2
-2
-10
-20
-30
0
1
15
-19
-6
-28
1
9
-6
-8
0
-3
-49
-37
-21
-44
-43
-29
-37
-33
-55
-38
-53
-51
-49
-46
-19
-31
-64
-55
-50
-46
-68
-38
-61
-49
-41
-64
-53
-63
-65
-39
-52
-57
-57
-57
-54
-73
-62
-48
-49
-58
-64
-70
-63
-66
-58
-47
-43
-59
-53
-60
-54
-56
-69
-41
-69
-70
-91
-69
-41
-51
-69
-35
-59
-65
-69
-46
-56
-63
-64
-58
-68
-36
-25
-56
-58
-42
-47
-52
-48
-57
-46
-50
-57
-48
-51
-40
-51
-54
-65
-60
-55
-49
-36
-67
-47
-45
-62
-53
-65
-87
-101
-58
-50
-23
-28
-48
-66
-49
-40
-41
-56
-63
-43
-23
-12
-30
-85
-70
-65
-71
-81
-28
-33
-65
-51
-47
-50
-56
-82
-53
-83
-82
-30
-51
-43
-49
-72
-51
-29
-69
-39
-23
-55
-75
-75
-45
-69
-45
-44
-66
-68
-61
-52
-63
-53
-76
-48
-36
-40
-76
-59
-46
-59
-66
-55
-60
-35
-51
-55
-55
-62
-38
-43
-58
-50
-87
-89
-72
-65
-70
-54
-49
-42
-55
-60
-69
-64
-64
-55
-56
-26
-47
-69
-53
-53
-57
-54
-67
-65
-51
-35
-48
-77
-58
-49
-56
-51
-32
-43
-62
-77
-81
-49
-51
-54
-50
-48
-58
-68
-55
-49
-31
-52
-34
-53
-55
-66
-52
-50
-43
-21
-7
-39
-44
-50
-46
-31
-35
-32
-34
-32
-27
-28
-30
-38
-43
-38
-42
-47
-22
-53
-50
-76
-25
-46
-61
-42
-55
-85
-70
-74
-67
-33
-54
-64
-72
-56
-34
-26
-52
-57
-82
-108
-91
-94
-90
-102
-98
-100
-62
-43
-39
17
54
90
127
175
193
178
185
156
182
137
140
148
96
62
17
4
-13
-36
-41
-75
-66
-32
-41
-47
-53
-52
-49
-59
-65
-56
-71
-67
-67
-46
-51
-50
-68
-63
-58
-78
-67
-62
-63
-85
-63
-55
-42
-29
-52
-49
-61
-73
-55
-51
-46
-58
-74
-69
-21
-63
-80
-60
-35
-80
-70
-56
-60
-68
-65
-60
-53
-63
-66
-53
-78
-59
-42
-79
-65
-82
-74
-34
-41
-60
-57
-62
-30
-44
-55
-46
-74
-55
-58
-65
-37
-39
-32
-57
-74
-62
-55
-64
-66
-54
-60
-63
-45
-37
-48
-58
-61
-54
-41
-55
-18
-24
-49
-43
-36
-43
-5
-35
-50
-29
-36
-30
21
-5
-33
-24
-13
-34
-12
-31
-31
-26
-16
-18
-16
-18
3
-26
-20
-2
-15
-25
-21
-1
7
12
-15
15
6
-22
-10
-7
-30
-13
1
-16
-28
-27
-19
-21
-39
-51
-54
-28
-28
-27
-23
-45
-32
-38
-60
-67
-40
-20
-55
-66
-49
-44
-54
-50
-54
-53
-59
-47
-67
-38
-54
-99
-66
-48
-35
-50
-40
-65
-49
-28
-62
-69
-55
-50
-55
-78
-65
-52
-36
-49
-46
-41
-52
-69
-55
-54
-56
-55
-28
-78
-68
-74
-38
-33
-53
-64
-52
-46
-42
-46
-35
-74
-81
-67
-45
-74
-61
-61
-53
-51
-48
-55
-45
-36
-35
-43
-58
-59
-55
-45
-41
-50
-48
-85
-59
-68
-62
-54
-44
-35
-48
-56
-70
-55
-52
-52
-51
-47
-47
-61
-51
-41
-43
-54
-67
-50
-29
-49
-55
-51
-54
-49
-63
-52
-54
-45
-47
-62
-62
-44
-65
-93
-86
-89
-57
-42
-37
-19
-37
-72
-73
-41
-49
-71
-53
-49
-51
-44
-46
-47
-70
-82
-75
-73
-56
-58
-54
-59
-47
-53
-48
-72
-87
-77
-60
-42
-38
-61
-39
-55
-50
-82
-42
-50
-44
-55
-46
-54
-40
-50
-61
-59
-75
-71
-53
-39
-62
-85
-60
-59
-56
-60
-57
-33
-32
-74
-72
-80
-84
-57
-57
-63
-44
-70
-45
-37
-64
-64
-42
-60
-69
-57
-61
-92
-53
-61
-83
-40
-59
-11
-28
-45
-26
-49
-32
-43
-46
-68
-27
-53
-71
-63
-47
-42
-20
-45
-57
-55
-55
-65
-54
-14
-42
-41
-65
-46
-21
-37
-45
-48
-46
-42
-40
-30
-32
-21
-24
-62
-82
-51
-54
-25
-36
-72
-84
-73
-71
-55
-52
-54
-59
-49
-43
-60
-66
-68
-91
-106
-110
-97
-115
-120
-107
-92
-58
-25
-1
35
78
114
155
165
168
178
179
182
195
144
103
100
65
13
28
-38
-50
-41
-74
-41
-42
-31
-32
-52
-56
-78
-52
-34
-58
-48
-57
-75
-72
-59
-70
-79
-70
-77
-51
-46
-73
-85
-71
-68
-59
-81
-61
-61
-52
-35
-59
-51
-68
-64
-58
-75
-63
-84
-66
-58
-69
-61
-60
-33
-51
-47
-34
-68
-65
-45
-69
-65
-79
-52
-68
-67
-79
-104
-70
-59
-63
-41
-56
-56
-45
-59
-41
-47
-46
-57
-72
-55
-61
-81
-46
-32
-50
-64
-57
-55
-45
-27
-52
-46
-60
-74
-59
-73
-65
-48
-57
-46
-34
-38
-43
-21
-23
-38
-44
-37
-40
-48
-57
-34
-20
-3
-22
-26
-15
-35
-22
-24
-28
6
-11
-33
-2
13
1
-4
-19
-23
-23
-14
-20
-27
17
24
-11
-10
-6
-4
-22
-9
-13
-9
-16
-17
-24
-15
-32
-30
-44
-31
-24
-3
-35
-39
-35
-30
-53
-5
-34
-80
-69
-36
-49
-30
-40
-48
-63
-89
-67
-66
-55
-57
-46
-37
-57
-61
-52
-60
-40
-61
-72
-56
-50
-68
-67
-61
-61
-55
-69
-57
-47
-49
-69
-75
-87
-65
-40
-48
-35
-45
-67
-100
-46
-39
-34
-78
-62
-19
-45
-63
-65
-45
-47
-54
-57
-73
-58
-61
-70
-59
-40
-36
-53
-61
-56
-56
-73
-63
-54
-58
-56
-62
-49
-40
-41
-56
-48
-30
-51
-44
-44
-63
-57
-47
-63
-49
-55
-49
-47
-57
-69
-70
-42
-29
-37
-36
-51
-77
-61
-51
-51
-59
-51
-52
-43
-82
-61
-60
-62
-61
-51
-53
-39
-70
-51
-50
-50
-45
-65
-55
-74
-63
-69
-71
-27
-28
-64
-63
-62
-65
-57
-36
-50
-44
-54
-72
-50
-67
-50
-57
-48
-49
-67
-78
-48
-40
-35
-54
-72
-56
-66
-73
-64
-71
-58
-50
-43
-37
-69
-85
-46
-48
-47
-88
-75
-98
-49
-43
-43
-43
-37
-54
-69
-58
-54
-55
-42
-44
-52
-57
-49
-40
-39
-49
-45
-49
-73
-61
-46
-58
-34
-53
-59
-65
-16
-40
-50
-35
-32
-42
-62
-22
-51
-59
-19
-19
-19
-22
-47
-51
-28
-32
-45
-49
-50
-5
-86
-73
-69
-67
-69
-63
-40
-61
-72
-87
-43
-54
-57
-42
-68
-83
-87
-86
-88
-76
-77
-80
-95
-86
-91
-118
-55
-28
27
56
93
132
145
147
190
176
191
172
141
123
79
74
26
-18
-22
-60
-55
-44
-46
-56
-63
-57
-56
-86
-79
-84
-39
-35
-60
-42
-64
-54
-81
-67
-41
-49
-66
-53
-73
-64
-64
-71
-84
-81
-80
-74
-55
-64
-63
-46
-35
-59
-54
-54
-61
-60
-62
-67
-77
-64
-63
-61
-58
-64
-42
-46
-52
-59
-77
-66
-54
-57
-54
-57
-50
-66
-52
-47
-85
-89
-72
-45
-24
-51
-72
-51
-49
-50
-72
-69
-61
-54
-66
-71
-60
-52
-45
-50
-85
-65
-41
-44
-57
-36
-61
-58
-66
-54
-53
-52
-15
-46
-41
-43
-44
-41
-42
-26
-17
-34
-44
-24
-19
-28
-25
-37
-25
-20
-10
-22
-14
-22
-14
-16
8
-16
-36
-21
-20
-2
-24
-6
11
-14
-4
-22
0
-47
-12
-7
3
-14
2
1
-15
-11
-7
2
5
-21
-24
-25
-18
-21
-35
-59
-37
-19
-40
-46
-58
-48
-50
-47
-58
-61
-44
-37
-72
-58
-54
-97
-79
-43
-77
-51
-45
-72
-39
-55
-70
-59
-42
-67
-49
-56
-58
-39
-24
-65
-81
-67
-34
-70
-96
-79
-51
-57
-61
-51
-36
-13
-72
-74
-63
-71
-57
-42
-37
-71
-83
-57
-64
-62
-58
-49
-49
-59
-58
-59
-55
-45
-43
-36
-62
-38
-51
-66
-73
-38
-59
-46
-68
-67
-77
-61
-41
-62
-50
-47
-44
-31
-48
-52
-64
-58
-42
-53
-53
-37
-66
-62
-53
-61
-43
-43
-63
-64
-71
-66
-47
-44
-37
-51
-42
-56
-81
-77
-32
-37
-71
-78
-54
-53
-69
-53
-76
-68
-89
-31
-21
-41
-69
-71
-66
-53
-38
-53
-60
-43
-56
-67
-65
-67
-28
-52
-86
-74
-55
-70
-44
-55
-57
-66
-67
-92
-73
-52
-54
-56
-58
-70
-54
-37
-60
-50
-34
-60
-62
-64
-68
-61
-70
-60
-55
-64
-90
-59
-15
-46
-50
-53
-53
-58
-72
-70
-50
-61
-82
-79
-44
-61
-85
-80
-60
-49
-65
-64
-54
-58
-24
-50
-47
-51
-71
-81
-78
-71
-79
-71
-75
-35
-38
-53
-67
-64
-53
-71
-68
-51
-71
-68
-80
-63
-67
-42
-50
-52
-63
-46
-67
-49
-39
-21
-78
-54
-40
-38
-58
-41
-40
-45
-47
-58
-56
-82
-48
-37
-24
-37
-36
-34
-37
-31
-55
-37
-29
-43
-47
-69
-47
-24
-53
-51
-36
-50
-38
-30
-74
-74
-67
-47
-63
-42
-70
-86
-78
-88
-49
-48
-60
-48
-48
-68
-80
-91
-106
-82
-101
-108
-96
-103
-103
-86
-42
-9
43
93
132
154
191
167
151
202
183
166
139
108
55
52
24
9
-40
-29
-57
-64
-50
-35
-70
-64
-72
-53
-44
-57
-69
-86
-45
-65
-45
-73
-76
-66
-56
-69
-78
-59
-66
-92
-78
-77
-52
-50
-68
-47
-78
-89
-89
-99
-92
-98
-53
-59
-52
-44
-67
-75
-64
-55
-72
-86
-60
-70
-63
-51
-53
-73
-87
-58
-74
-95
-75
-56
-51
-57
-63
-60
-82
-71
-32
-50
-89
-78
-79
-92
-71
-62
-62
-65
-108
-52
-61
-53
-57
-77
-84
-73
-57
-85
-55
-41
-38
-32
-68
-52
-51
-44
-56
-55
-63
-65
-61
-57
-62
-57
-22
-35
-44
-47
-40
-33
-43
-47
-22
-40
-70
-49
-42
-51
-29
-34
11
8
-22
-20
-29
-22
-29
-48
-31
-30
-23
-12
-22
-20
-14
-14
-8
-10
-3
-29
-36
-12
2
-37
-5
-13
-19
-19
-20
-52
-28
-37
-51
-49
-32
-73
-63
-69
-74
-40
-46
-17
-58
-78
-43
-71
-58
-69
-58
-47
-47
-66
-56
-51
-46
-64
-65
-74
-87
-78
-75
-75
-28
-25
-45
-76
-66
-62
-75
-64
-51
-74
-89
-68
-66
-54
-63
-63
-80
-37
-68
-66
-83
-66
-71
-70
-62
-26
-74
-75
-77
-59
-64
-79
-45
-38
-63
-55
-62
-52
-49
-67
-54
-49
-76
-73
-69
-71
-78
-52
-59
-61
-82
-85
-62
-65
-44
-41
-53
-46
-50
-57
-82
-85
-96
-64
-45
-83
-61
-53
-58
-58
-74
-90
-42
-44
-25
-54
-59
-85
-74
-54
-57
-56
-69
-65
-54
-55
-60
-60
-63
-98
-66
-53
-80
-71
-58
-51
-70
-67
-61
-61
-68
-72
-82
-74
-47
-57
-38
-51
-47
-61
-67
-67
-81
-85
-50
-69
-74
-73
-26
-40
-66
-71
-68
-84
-72
-76
-40
-55
-82
-84
-53
-76
-58
-80
-64
-81
-43
-49
-84
-68
-59
-67
-91
-65
-66
-45
-71
-72
-48
-69
-73
-78
-64
-44
-56
-67
-75
-41
-60
-65
-65
-67
-73
-66
-75
-72
-64
-52
-68
-52
-75
-67
-82
-66
-61
-72
-45
-73
-64
-71
-69
-64
-69
-56
-48
-72
-60
-75
-33
-51
-53
-69
-74
-67
-72
-62
-73
-57
-51
-30
-56
-53
-19
-44
-54
-63
-52
-45
-61
-53
-23
-35
-47
-23
-59
-57
-20
-45
-57
-64
-60
-72
-56
-52
-68
-66
-59
-70
-82
-72
-67
-77
-71
-59
-78
-60
-61
-50
-68
-70
-60
-82
-95
-92
-116
-126
-113
-114
-93
-79
-62
-39
-17
-7
75
98
134
156
175
186
158
129
150
144
97
84
60
39
-2
-33
-46
-47
-56
-69
-66
-89
-70
-53
-55
-51
-65
-54
-64
-78
-73
-61
-55
-49
-55
-61
-84
-67
-59
-59
-75
-67
-45
-76
-57
-83
-90
-115
-101
-62
-69
-74
-62
-57
-45
-47
-67
-67
-67
-71
-71
-64
-54
-78
-65
-74
-82
-71
-64
-63
-76
-73
-72
-66
-67
-69
-83
-67
-78
-70
-80
-50
-39
-59
-68
-52
-58
-75
-42
-80
-83
-34
-50
-71
-72
-60
-49
-78
-70
-52
-74
-80
-71
-43
-44
-85
-55
-62
-55
-46
-55
-51
-34
-25
-60
-76
-98
-60
-23
-29
-36
-34
-60
-47
-31
-10
-24
-35
-29
-26
-20
-17
-24
-28
-21
-14
-19
-10
-39
-15
-21
-23
-17
-6
-1
0
-32
-47
-40
1
1
-23
-22
-26
-18
-19
18
-2
15
-10
-20
-39
-38
-20
-47
-32
-26
-25
-61
-64
-45
-47
-63
-60
-74
-73
-75
-50
-44
-51
-61
-58
-75
-60
-54
-74
-56
-57
-36
-66
-78
-96
-65
-59
-58
-65
-55
-70
-50
-52
-60
-61
-55
-59
-55
-75
-63
-41
-74
-84
-79
-79
-58
-61
-60
-49
-42
-63
-71
-84
-45
-45
-61
-59
-60
-59
-73
-59
-70
-67
-64
-69
-53
-42
-68
-71
-60
-60
-55
-81
-65
-62
-45
-57
-51
-70
-58
-75
-52
-54
-59
-63
-46
-46
-44
-55
-63
-64
-64
-51
-58
-49
-63
-57
-53
-59
-66
-55
-47
-76
-61
-44
-52
-45
-57
-64
-66
-54
-61
-53
-69
-60
-102
-69
-73
-72
-55
-45
-34
-57
-71
-80
-56
-46
-40
-69
-40
-61
-45
-46
-71
-54
-77
-66
-51
-60
-54
-56
-89
-77
-50
-62
-53
-81
-60
-55
-59
-47
-72
-75
-63
-57
-44
-40
-61
-60
-61
-61
-66
-79
-79
-53
-41
-65
-75
-75
-42
-80
-77
-57
-50
-59
-69
-55
-81
-43
-84
-73
-52
-63
-52
-29
-70
-39
-48
-53
-70
-71
-62
-58
-51
-82
-80
-56
-30
-36
-68
-65
-60
-66
-30
-45
-62
-59
-61
-38
-63
-69
-54
-55
-44
-50
-72
-67
-44
-31
-41
-41
-52
-40
-35
-48
-40
-19
-12
-41
-60
-54
-51
-48
-50
-51
-24
-76
-65
-24
-63
-56
-51
-51
-47
-78
-39
-58
-88
-92
-63
-59
-50
-49
-70
-62
-41
-73
-79
-91
-88
-102
-118
-116
-112
-83
-61
-45
-13
28
78
93
115
142
143
158
197
181
107
102
105
72
37
-2
-37
-46
-50
-34
-31
-75
-60
-54
-40
-23
-58
-75
-64
-67
-50
-76
-96
-77
-62
-62
-67
-66
-55
-53
-58
-61
-56
-61
-58
-59
-62
-75
-77
-70
-54
-53
-74
-75
-69
-64
-74
-58
-65
-61
-49
-31
-84
-81
-88
-76
-86
-100
-53
-41
-56
-42
-55
-73
-60
-63
-65
-60
-39
-55
-67
-46
-52
-79
-65
-38
-62
-68
-39
-56
-54
-60
-65
-68
-70
-51
-61
-49
-74
-52
-47
-44
-50
-50
-54
-56
-87
-55
-28
-53
-55
-58
-40
-58
-33
-38
-44
-44
-54
-35
-20
-28
-27
-50
-20
-40
-32
-32
-18
-6
-35
-21
-24
-28
-27
-34
5
1
-8
-6
-14
-15
-9
2
-24
-25
-12
13
-14
3
-18
2
25
-5
-17
-17
-7
-18
-11
-17
-17
-23
-20
-20
-12
-25
-38
-28
-41
-54
-56
-54
-48
-53
-15
-51
-35
-31
-67
-45
-56
-62
-84
-65
-40
-81
-89
-47
-52
-56
-40
-34
-54
-39
-45
-72
-57
-85
-72
-82
-73
-37
-66
-53
-63
-67
-56
-56
-31
-50
-73
-84
-72
-60
-50
-62
-27
-43
-62
-63
-87
-59
-47
-60
-38
-36
-52
-68
-81
-71
-25
-40
-84
-59
-40
-54
-56
-48
-42
-68
-58
-50
-72
-56
-48
-43
-69
-81
-59
-51
-57
-45
-44
-31
-37
-56
-51
-61
-68
-60
-38
-51
-39
-53
-43
-45
-69
-78
-36
-55
-36
-57
-36
-55
-62
-43
-72
-62
-69
-67
-69
-81
-73
-71
-44
-41
-41
-46
-61
-46
-56
-62
-41
-47
-49
-58
-72
-65
-79
-66
-56
-64
-50
-40
-46
-62
-55
-58
-75
-68
-91
-91
-78
-42
-42
-48
-49
-53
-40
-39
-77
-56
-62
-30
-75
-43
-62
-65
-64
-64
-58
-68
-33
-61
-55
-66
-55
-50
-85
-56
-58
-72
-72
-59
-57
-52
-46
-44
-54
-69
-67
-56
-59
-61
-55
-65
-70
-73
-66
-60
-34
-64
-70
-80
-57
-71
-66
-66
-60
-48
-43
-26
-58
-63
-56
-68
-66
-43
-41
-54
-47
-49
-41
-57
-67
-43
-47
-30
-28
-52
-42
-62
-50
-42
-53
-49
-50
-66
-38
-45
-59
-62
-61
-13
-57
-29
-2
-10
-47
-55
-28
-39
-54
-49
-48
-57
-61
-68
-59
-50
-51
-52
-55
-93
-74
-49
-60
-71
-70
-50
-47
-65
-39
-53
-67
-81
-96
-109
-126
-122
-101
-78
-43
-21
-22
38
71
109
145
157
209
193
206
182
146
125
111
85
46
-3
-4
-24
-47
-36
-42
-52
-73
-59
-64
-77
-66
-59
-32
-39
-57
-21
-51
-55
-57
-33
-57
-86
-38
-74
-55
-57
-53
-66
-72
-60
-86
-73
-64
-71
-70
-54
-54
-66
-81
-92
-92
-81
-87
-83
-36
-31
-57
-60
-58
-54
-69
-55
-52
-74
-67
-48
-46
-59
-74
-38
-80
-60
-19
-54
-64
-70
-61
-76
-63
-62
-77
-65
-53
-51
-53
-53
-62
-64
-34
-37
-64
-75
-87
-86
-57
-46
-75
-67
-53
-43
-46
-59
-47
-49
-63
-72
-67
-68
-57
-38
-9
-18
-6
-59
-44
-35
-33
-29
-30
-35
-31
-32
-14
-15
-16
-22
-37
-43
-16
-27
-26
4
-14
-13
-5
-10
-33
-47
-17
-16
-29
9
-19
-10
-16
-42
-13
-6
-17
-19
-2
-11
-2
-21
-24
-11
-17
-20
-14
-12
-39
-15
-13
-28
-35
-53
-59
-38
-43
-38
-53
-45
-45
-73
-75
-61
-87
-66
-54
-29
-56
-37
-44
-65
-66
-64
-47
-57
-74
-59
-47
-44
-54
-65
-68
-63
-44
-38
-64
-68
-65
-69
-48
-53
-57
-36
-63
-55
-56
-75
-47
-38
-43
-48
-63
-49
-83
-75
-38
-42
-56
-63
-54
-60
-51
-52
-44
-56
-76
-72
-81
-62
-57
-67
-39
-45
-76
-78
-70
-34
-40
-32
-48
-54
-42
-52
-54
-57
-40
-36
-59
-56
-55
-49
-47
-45
-43
-54
-65
-53
-63
-71
-59
-81
-61
-68
-24
-41
-49
-65
-53
-61
-49
-66
-63
-65
-55
-48
-60
-54
-45
-39
-31
-33
-55
-53
-62
-71
-60
-53
-50
-54
-55
-66
-59
-58
-54
-49
-49
-43
-51
-62
-93
-68
-72
-68
-49
-68
-54
-17
-53
-52
-56
-65
-18
-47
-61
-68
-52
-59
-34
-51
-85
-78
-56
-55
-48
-53
-67
-57
-71
-77
-57
-53
-49
-51
-44
-58
-74
-61
-60
-44
-50
-53
-63
-73
-41
-60
-68
-42
-28
-28
-67
-69
-56
-63
-71
-55
-62
-50
-56
-63
-73
-22
-39
-68
-67
-66
-64
-67
-27
-63
-52
-29
-34
-50
-71
-60
-64
-55
-24
-60
-59
-45
-27
-57
-60
-27
-27
-17
-7
-37
-53
-71
-44
-46
-58
-40
-21
-38
-14
-14
-39
-53
-45
-28
-39
-41
-34
-73
-50
-73
-44
-52
-31
-63
-23
-75
-24
-48
-77
-74
-74
-45
-56
-69
-81
-77
-59
-59
-73
-61
-87
-105
-99
-100
-111
-97
-79
-47
-16
51
88
130
170
175
166
171
186
210
161
150
116
82
44
16
-20
-27
-38
-57
-59
-70
-54
-53
-78
-75
-55
-76
-52
-20
-32
-50
-60
-62
-66
-80
-75
-30
-40
-58
-75
-42
-53
-74
-74
-52
-62
-79
-41
-60
-55
-71
-59
-54
-68
-60
-56
-65
-55
-45
-75
-62
-86
-40
-23
-42
-36
-61
-73
-51
-60
-74
-98
-46
-60
-58
-54
-29
-52
-68
-70
-61
-55
-81
-63
-64
-42
-52
-40
-57
-50
-35
-27
-50
-61
-63
-73
-73
-80
-75
-88
-35
-6
-18
-40
-47
-28
-36
-42
-38
-55
-47
-63
-71
-53
-8
-42
-41
-7
-37
-40
-18
-36
-33
-39
-26
-36
-26
-10
-8
-19
-35
-65
-26
-1
-19
-26
-8
-1
-3
-23
-11
-7
16
4
-11
-13
2
13
12
10
-20
-1
2
5
-1
5
-11
-13
-10
-17
-9
-25
-18
-24
-12
-17
-33
-8
-29
-66
-77
-49
-31
-51
-56
-43
-63
-60
-44
-33
-29
-37
-51
-68
-48
-41
-73
-32
-57
-51
-69
-44
-48
-67
-73
-66
-49
-59
-53
-32
-43
-74
-62
-55
-42
-71
-62
-42
-62
-69
-43
-33
-56
-48
-66
-57
-77
-59
-67
-67
-15
-52
-63
-72
-54
-51
-61
-42
-38
-24
-38
-50
-47
-71
-62
-78
-32
-39
-37
-42
-41
-54
-63
-72
-53
-39
-36
-32
-46
-58
-65
-76
-55
-33
-23
-42
-57
-55
-59
-59
-45
-63
-39
-51
-31
-61
-66
-37
-36
-61
-46
-50
-74
-51
-37
-45
-45
-50
-45
-54
-44
-60
-47
-42
-64
-64
-61
-43
-56
-49
-60
-84
-77
-63
-29
-52
-49
-43
-28
-43
-46
-39
-47
-33
-90
-62
-50
-56
-53
-68
-63
-43
-36
-34
-47
-51
-46
-34
-48
-70
-55
-61
-62
-56
-57
-77
-55
-79
-58
-54
-17
-41
-56
-56
-64
-70
-33
-34
-66
-85
-41
-83
-41
-31
-47
-42
-46
-47
-36
-54
-57
-57
-56
-56
-54
-69
-54
-51
-65
-55
-36
-58
-52
-58
-54
-66
-70
-27
-52
-50
-47
-48
-55
-55
-53
-64
-72
-22
6
-15
-27
-17
-52
-17
-36
-50
-50
-38
-22
-48
-39
-34
-17
-28
-28
-36
-41
-45
-73
-41
-18
-32
-25
-25
-46
-51
-53
-55
-76
-55
-47
-66
-59
-34
-38
-35
-38
-43
-58
-61
-62
-73
-63
-79
-87
-83
-77
-97
-91
-113
-102
-92
-63
-6
20
67
104
140
148
184
175
183
182
166
132
85
100
88
72
11
-13
-53
-44
-59
-57
-53
-46
-55
-44
-63
-67
-55
-34
-40
-37
-52
-43
-59
-58
-62
-42
-48
-71
-36
-75
-52
-74
-60
-60
-41
-70
-64
-52
-51
-59
-57
-78
-57
-31
-46
-45
-41
-53
-52
-66
-72
-64
-64
-40
-37
-55
-60
-56
-58
-54
-49
-45
-58
-45
-46
-43
-46
-63
-69
-80
-67
-86
-55
-62
-39
-37
-23
-40
-48
-46
-44
-33
-43
-58
-42
-56
-54
-32
-38
-52
-52
-54
-54
-60
-61
-61
-45
-36
-36
-30
-28
-47
-48
-44
-36
-15
-27
-41
-55
-1
-16
-14
-43
-33
-18
-21
-13
-27
-48
-43
-17
33
11
20
19
-24
-38
18
-9
-2
1
-20
-29
-39
-10
-2
11
4
10
7
13
31
12
-14
0
5
-11
-18
-58
-23
5
3
12
-11
-13
-39
-36
-33
-42
-16
-17
-27
-27
-41
-48
-48
-54
-58
-33
-66
-67
-43
-49
-45
-61
-45
-30
-40
-34
-38
-26
-68
-52
-27
-45
-61
-41
-65
-54
-48
-48
-41
-43
-40
-39
-42
-71
-68
-83
-63
-70
-30
-48
-34
-46
-46
-32
-20
-57
-66
-58
-36
-48
-46
-53
-46
-35
-60
-47
-56
-53
-48
-29
-47
-55
-63
-54
-48
-25
-36
-39
-19
-20
-43
-67
-39
-60
-40
-54
-37
-24
-37
-43
-39
-40
-46
-36
-63
-58
-35
-50
-40
-29
-38
-51
-51
-39
-31
-48
-51
-61
-32
-61
-34
-44
-41
-49
-50
-34
-19
-48
-58
-48
-31
-35
-90
-64
-43
-35
-71
-25
-28
-41
-32
-41
-43
-47
-55
-35
-28
-41
-57
-78
-61
-60
-48
-37
-42
-45
-41
-47
-43
-29
-38
-36
-48
-43
-48
-52
-41
-58
-59
-53
-67
-33
-56
-52
-61
-70
-64
-63
-33
-52
-37
-23
-49
-71
-50
-41
-42
-18
-46
-47
-29
-35
-36
-74
-43
-28
-42
-37
-44
-51
-30
-31
-59
-58
-45
-43
-55
-64
-57
-54
-42
-51
-57
-56
-39
-65
-63
-43
-34
-41
-52
-29
-22
-29
-18
-41
-62
-55
-49
-57
-61
-56
-60
-37
-22
-8
-26
-50
-41
-5
-28
-19
-11
-11
-21
-8
-29
-31
-13
-27
-32
-30
-39
-33
-15
-27
-28
-41
-38
-38
-47
-46
-46
-75
-77
-63
-26
-18
-42
-75
-65
-64
-58
-51
-41
-48
-61
