-43
-30
-32
-39
-56
-67
-68
-65
-55
-34
-36
-34
-33
-36
-64
-77
-64
-56
-47
-32
-29
-34
-38
-54
-65
-61
-58
-53
-49
-41
-33
-34
-40
-48
-48
-65
-63
-63
-49
-34
-42
-36
-33
-46
-47
-59
-76
-65
-57
-43
-40
-45
-40
-48
-56
-64
-66
-61
-52
-41
-35
-34
-50
-54
-58
-65
-57
-56
-52
-41
-32
-19
-38
-44
-59
-59
-51
-60
-47
-37
-24
-19
-28
-40
-56
-57
-59
-51
-45
-44
-39
-48
-54
-61
-68
-60
-63
-67
-48
-42
-37
-42
-38
-54
-70
-63
-62
-64
-55
-43
-49
-41
-46
-55
-53
-74
-74
-66
-35
-42
-35
-37
-45
-71
-76
-76
-72
-66
-53
-56
-58
-60
-67
-68
-66
-51
-30
4
19
45
51
53
27
2
-25
-50
-39
-49
-45
-74
-87
-94
-100
-99
-107
-110
-105
-101
-85
-62
-43
-58
-70
-77
-74
-77
-79
-65
-57
-43
-35
-43
-52
-70
-69
-74
-66
-53
-46
-38
-39
-42
-54
-67
-60
-58
-59
-49
-31
-40
-40
-37
-47
-65
-72
-65
-60
-46
-42
-40
-39
-40
-50
-56
-69
-69
-66
-50
-37
-44
-37
-39
-54
-57
-54
-54
-45
-37
-27
-21
-33
-34
-42
-53
-55
-59
-58
-46
-30
-26
-25
-35
-36
-42
-51
-53
-33
-17
-15
-19
-29
-31
-39
-49
-38
-43
-29
-18
-13
-6
2
-6
-16
-29
-24
-22
-16
-15
-17
-15
5
-15
-24
-33
-39
-34
-13
-16
-5
-2
-5
-19
-39
-35
-45
-47
-39
-34
-21
-17
-28
-43
-56
-61
-57
-62
-53
-39
-32
-24
-37
-42
-64
-73
-87
-72
-62
-48
-40
-37
-42
-52
-67
-70
-76
-61
-65
-60
-51
-39
-47
-63
-66
-78
-76
-79
-67
-63
-59
-49
-51
-59
-74
-78
-69
-61
-57
-30
-41
-46
-50
-66
-71
-81
-72
-74
-62
-51
-45
-41
-44
-60
-74
-77
-77
-68
-55
-48
-44
-37
-54
-52
-70
-75
-69
-66
-60
-42
-29
-34
-46
-65
-60
-69
-54
-63
-49
-56
-51
-41
-37
-57
-58
-70
-70
-69
-52
-41
-38
-41
-52
-57
-67
-68
-72
-64
-57
-44
-36
-38
-50
-66
-68
-64
-67
-68
-50
-50
-41
-39
-43
-58
-75
-76
-68
-71
-60
-49
-43
-44
-52
-62
-71
-68
-68
-54
-57
-47
-39
-50
-60
-63
-68
-77
-72
-67
-49
-50
-48
-54
-54
-65
-83
-75
-71
-66
-45
-39
-41
-54
-58
-65
-78
-69
-64
-70
-61
-56
-47
-47
-46
-64
-70
-76
-75
-61
-54
-50
-50
-55
-63
-66
-70
-71
-71
-58
-52
-49
-46
-49
-56
-72
-75
-73
-75
-57
-32
-47
-44
-55
-60
-69
-70
-75
-75
-55
-47
-46
-43
-44
-52
-71
-81
-77
-64
-49
-38
-33
-33
-40
-54
-64
-58
-61
-69
-55
-40
-36
-38
-38
-50
-56
-54
-79
-72
-50
-41
-40
-51
-61
-73
-70
-70
-72
-69
-57
-51
-46
-50
-55
-69
-72
-69
-71
-62
-44
-49
-36
-44
-46
-58
-83
-81
-80
-71
-52
-52
-51
-54
-63
-75
-91
-84
-77
-70
-52
-48
-36
-17
-12
-15
-13
3
25
28
32
25
-1
-11
-21
-48
-75
-95
-124
-126
-91
-95
-100
-79
-84
-91
-104
-97
-91
-74
-67
-54
-50
-53
-65
-75
-82
-78
-74
-52
-43
-42
-53
-47
-55
-62
-66
-69
-62
-47
-40
-40
-45
-31
-47
-61
-59
-63
-58
-63
-52
-38
-38
-44
-67
-63
-73
-74
-64
-45
-35
-30
-37
-36
-52
-69
-68
-69
-60
-50
-41
-26
-34
-40
-50
-55
-60
-59
-47
-39
-28
-26
-29
-30
-40
-57
-70
-55
-50
-35
-32
-29
-24
-26
-47
-51
-48
-38
-47
-25
-12
-15
-23
-25
-28
-41
-48
-30
-31
-25
-14
-4
4
6
-20
-23
-26
-24
-24
-14
-9
-11
-11
-12
-23
-40
-39
-30
-30
-10
-4
-13
-12
-15
-38
-45
-55
-48
-48
-36
-36
-30
-37
-48
-71
-66
-60
-62
-59
-48
-44
-38
-38
-49
-59
-67
-72
-65
-57
-42
-50
-48
-46
-45
-61
-69
-73
-73
-64
-53
-49
-40
-41
-53
-67
-75
-78
-76
-65
-52
-51
-48
-59
-56
-63
-76
-78
-66
-55
-49
-45
-45
-54
-66
-63
-72
-78
-73
-59
-47
-41
-50
-54
-56
-58
-70
-75
-61
-47
-47
-39
-41
-36
-51
-67
-69
-60
-64
-65
-45
-34
-42
-45
-63
-65
-67
-73
-68
-47
-40
-38
-39
-43
-51
-71
-72
-69
-62
-46
-39
-41
-47
-49
-61
-63
-70
-72
-62
-48
-42
-33
-41
-46
-60
-68
-69
-61
-64
-52
-42
-32
-38
-46
-59
-70
-70
-69
-60
-52
-41
-44
-44
-56
-61
-68
-67
-70
-63
-56
-42
-42
-44
-49
-60
-56
-67
-69
-60
-39
-32
-26
-49
-56
-67
-76
-72
-69
-61
-49
-43
-42
-39
-57
-59
-61
-68
-60
-64
-64
-50
-45
-42
-56
-67
-68
-74
-70
-60
-54
-44
-35
-47
-44
-60
-63
-65
-68
-54
-36
-46
-46
-46
-52
-71
-68
-73
-66
-60
-45
-38
-42
-49
-49
-60
-77
-77
-71
-58
-41
-37
-36
-44
-51
-69
-68
-71
-65
-61
-50
-38
-34
-42
-50
-63
-73
-66
-54
-36
-37
-38
-39
-41
-56
-61
-60
-61
-52
-45
-34
-27
-27
-42
-50
-55
-70
-64
-59
-44
-31
-33
-45
-53
-59
-74
-74
-74
-69
-50
-46
-39
-40
-50
-63
-76
-73
-66
-66
-49
-38
-45
-45
-51
-60
-68
-61
-64
-64
-49
-38
-29
-44
-65
-75
-65
-80
-77
-64
-44
-34
-29
-11
-5
-5
7
19
28
37
45
36
-3
-23
-33
-63
-81
-101
-125
-116
-96
-84
-80
-80
-76
-86
-101
-97
-76
-55
-55
-41
-48
-51
-54
-67
-66
-63
-60
-54
-44
-44
-40
-48
-60
-69
-71
-61
-58
-51
-45
-41
-31
-33
-41
-72
-63
-65
-60
-52
-35
-31
-26
-40
-50
-54
-60
-56
-56
-45
-35
-24
-30
-32
-47
-56
-63
-71
-69
-43
-34
-28
-21
-35
-41
-49
-61
-54
-49
-29
-22
-20
-29
-41
-50
-55
-51
-58
-47
-30
-17
-11
-14
-28
-36
-35
-54
-45
-39
-17
-13
-8
-2
-15
-31
-31
-39
-28
-19
-9
-6
0
0
0
-20
-30
-19
-16
-16
-10
-5
7
4
-4
-16
-25
-28
-34
-21
-4
-1
0
-21
-25
-39
-37
-41
-39
-32
-21
-18
-25
-34
-38
-56
-54
-57
-56
-46
-46
-43
-39
-40
-39
-47
-56
-56
-53
-43
-42
-41
-36
-39
-46
-54
-70
-59
-66
-54
-40
-41
-36
-46
-51
-66
-71
-74
-67
-48
-35
-30
-37
-36
-41
-64
-67
-66
-73
-61
-47
-37
-38
-45
-57
-57
-61
-65
-62
-55
-45
-48
-37
-39
-49
-52
-60
-58
-52
-45
-37
-29
-45
-46
-51
-62
-55
-53
-52
-44
-39
-24
-32
-39
-51
-63
-64
-64
-60
-44
-42
-33
-34
-39
-50
-50
-51
-52
-40
-30
-35
-39
-37
-34
-53
-70
-78
-61
-51
-32
-26
-31
-31
-38
-62
-66
-60
-68
-53
-37
-34
-41
-44
-43
-56
-62
-58
-58
-61
-36
-40
-34
-31
-40
-59
-63
-60
-63
-55
-42
-47
-40
-51
-54
-58
-67
-61
-59
-47
-36
-22
-34
-33
-36
-52
-60
-73
-70
-58
-44
-31
-28
-29
-31
-48
-65
-68
-59
-50
-40
-48
-40
-40
-53
-60
-66
-69
-60
-44
-41
-43
-39
-44
-50
-55
-67
-61
-63
-47
-35
-29
-36
-42
-43
-62
-52
-52
-63
-48
-39
-42
-43
-44
-43
-67
-68
-63
-54
-38
-40
-32
-33
-38
-51
-59
-64
-50
-57
-53
-41
-40
-42
-42
-52
-66
-69
-65
-52
-31
-33
-33
-35
-47
-61
-57
-55
-77
-61
-43
-42
-33
-33
-40
-52
-56
-62
-63
-50
-31
-33
-34
-45
-34
-48
-56
-59
-59
-47
-41
-32
-26
-34
-32
-54
-52
-55
-53
-42
-32
-37
-37
-24
-31
-44
-60
-60
-59
-41
-27
-17
-14
-39
-34
-50
-47
-50
-74
-57
-42
-34
-40
-49
-50
-65
-63
-66
-62
-49
-39
-36
-37
-37
-39
-54
-76
-66
-60
-50
-43
-42
-33
-33
-53
-61
-69
-71
-62
-51
-54
-44
-25
-26
-28
-23
-15
2
15
46
57
53
36
10
-16
-27
-33
-51
-70
-87
-82
-73
-84
-81
-83
-96
-96
-90
-90
-68
-55
-34
-42
-36
-46
-71
-64
-56
-57
-37
-39
-29
-30
-28
-43
-58
-69
-62
-49
-35
-35
-26
-29
-40
-53
-62
-60
-51
-42
-32
-27
-31
-24
-22
-44
-52
-51
-68
-46
-36
-26
-24
-28
-25
-42
-45
-48
-51
-48
-43
-30
-21
-29
-26
-41
-45
-49
-53
-43
-21
-26
-15
-15
-15
-47
-40
-49
-48
-36
-28
-16
-12
-11
-14
-19
-32
-44
-40
-29
-18
-4
-9
-9
-20
-27
-27
-24
-19
-6
5
8
2
-1
-3
-10
-25
-20
-14
-17
-6
12
9
7
1
-8
-10
-17
-26
-10
3
9
12
16
0
-40
-35
-34
-30
-22
-13
-10
-13
-18
-31
-45
-53
-47
-47
-37
-32
-24
-19
-33
-42
-55
-59
-54
-52
-43
-34
-21
-29
-34
-44
-55
-50
-50
-51
-47
-42
-33
-33
-31
-50
-65
-71
-60
-47
-45
-30
-26
-29
-33
-51
-59
-60
-60
-60
-42
-38
-30
-31
-35
-48
-55
-62
-64
-50
-30
-23
-25
-34
-37
-49
-58
-61
-63
-52
-32
-29
-30
-32
-41
-48
-56
-63
-55
-45
-35
-29
-15
-9
-28
-50
-55
-56
-50
-55
-30
-27
-22
-31
-41
-51
-57
-54
-56
-48
-36
-31
-23
-23
-37
-56
-64
-59
-56
-46
-29
-30
-22
-34
-47
-57
-58
-61
-61
-42
-44
-33
-29
-22
-33
-42
-53
-55
-48
-43
-40
-26
-35
-36
-53
-53
-60
-60
-57
-43
-34
-31
-34
-44
-43
-48
-63
-60
-58
-46
-31
-30
-23
-35
-45
-53
-57
-57
-54
-50
-41
-36
-36
-36
-46
-48
-56
-37
-56
-51
-35
-34
-37
-38
-46
-55
-46
-58
-59
-49
-39
-33
-32
-38
-47
-49
-58
-61
-55
-38
-31
-28
-27
-35
-51
-59
-54
-55
-47
-39
-29
-16
-28
-34
-47
-53
-53
-62
-59
-47
-34
-23
-19
-32
-49
-55
-55
-52
-47
-39
-33
-26
-34
-43
-50
-61
-59
-51
-50
-33
-21
-26
-41
-33
-39
-39
-38
-52
-42
-25
-20
-32
-29
-28
-38
-43
-47
-46
-41
-20
-14
-8
-19
-39
-45
-52
-62
-58
-41
-27
-25
-14
-25
-39
-49
-53
-53
-53
-39
-37
-31
-25
-36
-41
-54
-70
-66
-60
-34
-28
-18
-20
-31
-41
-47
-43
-49
-56
-57
-37
-28
-28
-41
-57
-66
-60
-65
-47
-36
-28
-8
2
7
19
21
34
41
42
48
28
-3
-9
-4
-35
-63
-90
-102
-91
-70
-70
-76
-74
-70
-78
-77
-68
-68
-58
-49
-33
-23
-29
-39
-47
-56
-60
-49
-47
-34
-32
-23
-26
-34
-35
-37
-34
-47
-46
-34
-23
-20
-27
-36
-36
-34
-47
-51
-43
-29
-24
-5
-15
-22
-33
-40
-43
-51
-48
-26
-28
-19
-14
-29
-30
-41
-40
-36
-40
-25
-10
-9
-12
-19
-33
-36
-36
-36
-36
-27
-5
-8
-9
-20
-42
-29
-40
-37
-24
-1
-1
7
-4
-9
-21
-38
-31
-32
-12
-8
2
14
4
5
-18
-10
-11
-16
-5
10
27
20
15
14
10
7
-9
-12
10
17
11
13
9
1
-9
-11
-8
-9
0
9
13
14
10
-7
-28
-45
-35
-29
-22
-11
-13
-9
-18
-25
-37
-42
-45
-40
-29
-13
-9
-12
-17
-31
-46
-58
-54
-45
-28
-32
-24
-20
-30
-43
-48
-65
-56
-54
-29
-27
-23
-24
-26
-33
-57
-63
-57
-45
-36
-23
-25
-32
-25
-29
-48
-52
-57
-59
-33
-27
-31
-21
-27
-32
-44
-42
-50
-49
-31
-31
-28
-28
-27
-41
-49
-52
-47
-42
-30
-25
-21
-23
-36
-42
-49
-47
-42
-39
-24
-12
-13
-17
-28
-27
-47
-48
-43
-31
-21
-26
-18
-23
-27
-38
-42
-44
-49
-39
-21
-13
-17
-18
-28
-46
-49
-50
-47
-31
-13
-19
-27
-26
-27
-41
-44
-50
-54
-37
-21
-18
-21
-18
-23
-41
-59
-55
-52
-44
-24
-15
-17
-29
-38
-54
-62
-55
-52
-37
-23
-23
-23
-16
-43
-53
-51
-46
-41
-24
-26
-25
-28
-21
-37
-47
-48
-48
-48
-32
-17
-19
-22
-26
-37
-59
-63
-49
-49
-41
-26
-19
-17
-32
-39
-56
-61
-58
-43
-28
-21
-27
-21
-22
-40
-56
-54
-51
-46
-32
-20
-26
-11
-19
-36
-52
-58
-59
-37
-27
-28
-29
-23
-26
-43
-54
-60
-55
-43
-30
-23
-17
-29
-41
-39
-48
-51
-43
-32
-26
-23
-18
-22
-24
-34
-46
-46
-42
-31
-5
-3
-14
-33
-41
-37
-52
-56
-48
-41
-24
-22
-28
-15
-27
-32
-48
-50
-50
-42
-20
-25
-20
-25
-32
-51
-54
-56
-46
-43
-27
-15
-22
-29
-40
-55
-59
-45
-44
-34
-34
-38
-23
-37
-44
-54
-61
-64
-48
-36
-39
-23
-29
-36
-50
-63
-65
-68
-55
-39
-11
11
30
27
32
45
47
40
35
22
-2
-7
3
-21
-42
-83
-112
-122
-98
-81
-77
-60
-64
-68
-67
-73
-76
-69
-65
-48
-42
-23
-24
-26
-46
-57
-59
-55
-41
-34
-30
-29
-26
-33
-44
-57
-61
-48
-48
-33
-23
-14
-14
-36
-38
-52
-52
-54
-47
-32
-22
-24
-15
-25
-38
-51
-52
-43
-40
-35
-28
-24
-18
-31
-42
-35
-46
-47
-37
-17
-13
-16
-13
-30
-48
-36
-48
-44
-38
-16
-16
-10
-8
-20
-26
-40
-37
-41
-32
-26
-12
-5
-2
-18
-27
-24
-30
-28
-13
8
5
-7
2
-8
-11
-14
-21
-17
-6
5
17
30
13
5
-17
-3
-8
-12
11
14
11
12
15
16
-2
-11
-24
-19
-2
-1
8
0
3
-1
-18
-42
-41
-32
-19
-14
-12
-13
-18
-28
-44
-54
-43
-38
-36
-34
-24
-24
-24
-42
-60
-60
-43
-40
-33
-22
-15
-14
-32
-47
-55
-53
-54
-43
-28
-23
-34
-28
-31
-38
-57
-60
-60
-48
-34
-29
-28
-30
-35
-50
-57
-53
-55
-42
-23
-20
-23
-17
-25
-41
-53
-57
-56
-51
-34
-30
-23
-19
-28
-51
-51
-44
-42
-46
-30
-21
-23
-24
-48
-55
-53
-51
-50
-40
-21
-10
-11
-20
-25
-39
-43
-52
-50
-33
-28
-20
-20
-17
-28
-36
-43
-57
-45
-31
-24
-16
-19
-22
-27
-38
-49
-50
-50
-39
-22
-15
-17
-20
-36
-48
-50
-48
-53
-37
-33
-11
-10
-21
-37
-47
-47
-44
-37
-24
-16
-19
-29
-31
-47
-49
-50
-47
-48
-40
-21
-19
-27
-18
-29
-45
-49
-48
-45
-32
-24
-29
-18
-25
-41
-43
-54
-55
-46
-37
-26
-24
-22
-24
-39
-43
-49
-48
-41
-25
-19
-26
-22
-20
-47
-44
-50
-47
-38
-28
-3
-14
-15
-28
-42
-46
-54
-56
-46
-25
-26
-30
-28
-22
-49
-53
-44
-40
-34
-31
-24
-22
-28
-33
-45
-50
-47
-46
-37
-17
-21
-19
-28
-22
-37
-46
-46
-43
-34
-29
-21
-8
-18
-31
-52
-48
-43
-40
-21
-1
-11
-13
-17
-25
-38
-49
-50
-43
-30
-21
-19
-7
-5
-19
-39
-31
-45
-46
-31
-24
-22
-14
-20
-23
-40
-38
-38
-48
-39
-27
-31
-25
-24
-34
-45
-47
-54
-43
-34
-24
-19
-16
-26
-36
-50
-50
-59
-59
-40
-18
-23
-20
-30
-44
-48
-58
-62
-51
-45
-28
-17
-11
13
-2
10
13
38
48
61
59
51
25
12
-8
-28
-38
-67
-73
-70
-68
-80
-74
-69
-68
-80
-85
-78
-67
-41
-30
-31
-29
-31
-41
-52
-57
-49
-39
-25
-21
-14
-12
-28
-48
-50
-52
-42
-39
-22
-16
-8
-16
-12
-20
-18
-29
-58
-51
-27
-12
-20
-20
-28
-35
-36
-32
-35
-33
-27
-22
-17
-13
-29
-34
-43
-37
-32
-27
-14
-10
-12
-19
-19
-24
-23
-33
-39
-24
-19
-14
-11
-16
-19
-20
-28
-31
-35
-17
-4
1
-2
0
-13
-29
-39
-30
-21
-11
4
9
6
7
0
-2
-5
-8
-11
1
16
12
10
11
0
-8
0
0
6
11
21
23
21
26
14
-7
-13
-6
6
3
5
9
6
4
-4
-13
-12
-19
-22
-12
-14
-13
-12
-5
-18
-29
-39
-40
-40
-22
-12
-16
-21
-20
-30
-46
-55
-50
-44
-25
-25
-22
-19
-14
-35
-51
-48
-48
-42
-31
-19
-14
-19
-31
-51
-55
-53
-50
-44
-26
-29
-23
-20
-26
-39
-44
-42
-41
-41
-37
-25
-19
-33
-30
-38
-51
-52
-41
-36
-23
-18
-12
-23
-24
-29
-50
-57
-52
-38
-20
-13
-19
-32
-30
-35
-42
-43
-47
-30
-16
-7
-1
-20
-18
-44
-50
-39
-29
-31
-29
-21
-16
-17
-26
-38
-34
-52
-46
-39
-27
-11
-17
-20
-32
-49
-53
-43
-42
-32
-19
-14
-20
-18
-37
-43
-39
-36
-31
-38
-21
-13
-10
-20
-33
-51
-46
-40
-45
-39
-23
-12
-16
-23
-36
-50
-53
-59
-52
-39
-28
-20
-21
-17
-29
-39
-49
-50
-41
-33
-31
-19
-15
-23
-25
-43
-60
-49
-35
-22
-19
-27
-18
-22
-25
-51
-49
-43
-34
-31
-27
-27
-27
-25
-39
-47
-45
-51
-32
-25
-18
-12
-22
-30
-28
-37
-55
-47
-37
-32
-15
-12
-17
-20
-33
-44
-55
-54
-44
-24
-22
-14
-15
-21
-28
-40
-39
-33
-25
-17
-12
-4
-8
-15
-38
-51
-45
-37
-27
-11
-9
-8
-6
-19
-36
-50
-56
-46
-38
-26
-18
-13
-23
-28
-31
-41
-50
-47
-46
-29
-23
-24
-27
-39
-51
-55
-53
-43
-42
-25
-14
-16
-28
-29
-42
-38
-49
-48
-39
-30
-25
-31
-31
-39
-42
-33
-19
-4
19
42
65
74
61
46
19
-15
-16
-11
-22
-35
-64
-77
-77
-87
-89
-89
-86
-83
-62
-50
-42
-39
-32
-41
-56
-57
-54
-54
-42
-19
-17
-15
-25
-36
-40
-43
-34
-41
-30
-17
-6
-19
-17
-34
-44
-44
-39
-22
-14
-14
-5
-5
-7
-28
-31
-26
-49
-45
-21
-15
-10
-18
-15
-27
-39
-38
-39
-31
-18
-1
-2
2
5
1
-20
-44
-51
-39
-19
-12
-10
-13
-5
-26
-39
-28
-24
-25
-17
-3
10
11
-2
-31
-38
-29
-13
-10
-11
-3
8
3
-5
-11
-15
-6
-11
2
13
16
19
10
9
11
1
-3
3
23
28
31
28
28
12
6
1
5
2
6
32
38
25
18
9
-6
-15
-13
-6
-2
-1
7
7
4
-14
-30
-43
-34
-25
-15
-11
-8
-14
-18
-25
-35
-39
-44
-33
-28
-25
-15
-11
-17
-23
-36
-42
-36
-33
-28
-19
-10
-7
-8
-20
-45
-53
-52
-47
-27
-29
-18
-20
-24
-42
-52
-48
-43
-37
-25
-16
-13
-15
-21
-34
-46
-49
-39
-30
-20
-8
7
-9
-19
-35
-32
-43
-38
-40
-18
-17
-3
-1
-17
-39
-50
-54
-38
-42
-26
-11
-13
-15
-17
-24
-36
-40
-31
-33
-11
-3
4
-14
-27
-32
-27
-33
-27
-30
-23
-7
-3
-15
-29
-27
-34
-31
-52
-30
-13
-11
-7
-15
-25
-40
-43
-32
-29
-22
-8
-11
-11
-19
-27
-36
-37
-42
-28
-25
-18
-11
-8
-5
-16
-38
-47
-48
-35
-31
-20
-19
-15
-19
-27
-35
-51
-42
-32
-21
-24
-19
-14
-29
-29
-30
-51
-46
-43
-26
-15
-13
-16
-20
-27
-33
-35
-41
-38
-28
-21
-8
-10
-20
-34
-41
-39
-37
-37
-31
-18
-18
-20
-23
-32
-39
-43
-47
-36
-20
-9
3
-12
-27
-44
-41
-42
-40
-34
-14
-14
-7
-1
-13
-21
-33
-32
-38
-25
-14
-18
-8
-6
-18
-31
-36
-36
-27
-24
-14
-11
-8
-6
-9
-23
-39
-40
-38
-29
-19
-16
-16
-18
-20
-34
-47
-43
-40
-29
-12
-11
-15
-23
-19
-47
-47
-43
-47
-35
-18
-19
-19
-21
-30
-46
-47
-44
-49
-37
-29
-32
-29
-27
-40
-49
-47
-38
-12
14
46
56
60
68
69
53
23
-3
-5
-3
-4
-16
-38
-61
-81
-84
-88
-87
-80
-61
-52
-41
-41
-50
-50
-54
-59
-46
-36
-28
-14
-5
-20
-7
-33
-44
-44
-47
-31
-29
-14
-18
-16
-24
-32
-39
-35
-30
-37
-18
-13
-10
-8
-19
-24
-40
-30
-26
-25
-22
-3
8
-12
-15
-19
-42
-43
-32
-32
-15
-14
-3
-5
-10
-12
-32
-50
-35
-32
-11
-2
1
-10
-14
-25
-29
-17
-27
-19
5
3
8
-10
-6
-18
-21
-20
-19
-16
-5
2
4
8
4
-13
-17
-14
-10
-5
4
19
23
17
11
0
-8
-15
6
5
19
31
39
29
10
3
9
1
9
21
20
20
27
25
15
-3
-13
-20
-22
3
3
5
3
1
-8
-19
-26
-29
-20
-17
-13
-11
-17
-16
-30
-34
-40
-37
-42
-28
-14
-4
-12
-33
-39
-41
-43
-52
-51
-38
-18
-15
-25
-30
-46
-45
-44
-48
-49
-35
-24
-15
-18
-26
-36
-47
-50
-50
-41
-23
-11
-4
-21
-26
-43
-57
-50
-53
-49
-38
-23
-20
-21
-25
-39
-45
-44
-40
-36
-38
-25
-11
-15
-18
-36
-48
-45
-34
-36
-28
-17
-18
-19
-27
-39
-50
-52
-50
-40
-25
-23
-20
-16
-30
-38
-41
-48
-47
-33
-21
-21
-12
-12
-23
-32
-39
-42
-37
-33
-21
-17
-18
-26
-30
-45
-50
-51
-46
-38
-24
-24
-15
-21
-30
-44
-52
-49
-38
-37
-32
-15
-22
-23
-31
-46
-56
-45
-42
-29
-21
-21
-17
-25
-33
-32
-37
-41
-38
-37
-33
-20
-19
-26
-37
-49
-51
-49
-48
-23
-22
-23
-28
-24
-34
-44
-53
-51
-37
-33
-29
-15
-19
-29
-40
-47
-51
-50
-36
-35
-18
-24
-27
-23
-35
-38
-46
-52
-58
-44
-33
-24
-29
-28
-39
-47
-34
-61
-49
-29
-22
-16
-25
-23
-27
-38
-54
-50
-39
-23
-12
-19
-28
-34
-40
-50
-42
-41
-39
-19
-12
-15
-21
-20
-36
-49
-47
-35
-32
-16
-21
-26
-25
-27
-41
-55
-55
-47
-46
-29
-17
-22
-30
-45
-41
-51
-55
-55
-45
-34
-34
-38
-37
-40
-47
-56
-56
-50
-42
-30
-31
-23
-33
-42
-52
-67
-54
-59
-45
-32
-29
-17
-9
-2
-3
3
14
32
54
60
65
44
12
-17
-37
-55
-74
-85
-95
-82
-71
-64
-63
-71
-81
-77
-77
-69
-62
-49
-40
-39
-31
-39
-60
-59
-64
-53
-38
-26
-18
-18
-32
-37
-43
-52
-55
-51
-25
-29
-21
-24
-23
-24
-52
-58
-52
-48
-37
-24
-22
-22
-24
-35
-36
-33
-44
-38
-24
-29
-21
-24
-25
-44
-46
-41
-52
-51
-23
-18
-18
-14
-11
-35
-42
-36
-43
-38
-29
-26
-14
-11
-23
-32
-28
-28
-34
-34
-24
-11
-6
-9
-12
-22
-32
-22
-7
-5
-6
-5
5
-3
-8
-15
-22
-20
-18
-10
4
11
13
12
2
-4
-8
-9
-9
6
20
12
16
17
14
-9
-18
-16
-16
-2
7
21
12
-7
-8
-13
-27
-25
-26
-19
-10
-18
-20
-19
-28
-35
-36
-48
-45
-33
-31
-22
-30
-35
-42
-51
-61
-58
-47
-50
-31
-27
-26
-22
-31
-50
-55
-68
-64
-53
-40
-31
-28
-31
-43
-61
-64
-54
-53
-43
-26
-30
-39
-39
-46
-55
-71
-64
-64
-44
-42
-37
-27
-32
-33
-52
-60
-53
-57
-37
-23
-34
-31
-44
-54
-64
-59
-63
-52
-40
-31
-24
-33
-38
-49
-56
-61
-60
-57
-37
-29
-25
-39
-37
-47
-53
-58
-55
-36
-34
-31
-27
-29
-35
-49
-53
-54
-62
-52
-39
-39
-35
-40
-40
-52
-59
-53
-63
-43
-38
-36
-28
-29
-38
-56
-67
-63
-57
-50
-37
-29
-35
-29
-33
-50
-69
-65
-62
-53
-37
-30
-27
-37
-41
-61
-70
-61
-64
-62
-41
-34
-37
-46
-52
-61
-67
-66
-60
-55
-39
-37
-37
-35
-57
-60
-57
-63
-57
-51
-38
-40
-36
-44
-47
-63
-69
-65
-63
-46
-40
-32
-39
-46
-49
-62
-76
-82
-62
-57
-40
-34
-44
-51
-62
-63
-66
-67
-66
-62
-48
-42
-41
-52
-62
-68
-73
-70
-67
-50
-46
-34
-37
-41
-50
-62
-69
-69
-64
-49
-39
-40
-35
-46
-54
-58
-61
-62
-56
-46
-44
-42
-39
-44
-57
-65
-68
-65
-53
-41
-35
-33
-38
-49
-54
-62
-55
-64
-54
-42
-35
-33
-39
-42
-56
-63
-73
-71
-64
-43
-42
-48
-46
-51
-71
-71
-68
-65
-59
-46
-46
-36
-38
-34
-46
-71
-78
-82
-64
-46
-41
-45
-48
-57
-66
-75
-77
-69
-67
-54
-48
-50
-50
-62
-78
-83
-78
-61
-47
-35
-34
-28
-5
-2
-12
13
19
20
26
18
-2
-19
-26
-54
-84
-105
-119
-114
-106
-82
-81
-73
-79
-82
-91
-86
-89
-73
-62
-55
-50
-49
-45
-52
-66
-71
-66
-63
-57
-46
-40
-36
-47
-55
-61
-70
-67
-65
-64
-43
-32
-35
-45
-64
-64
-65
-73
-70
-45
-35
-39
-51
-46
-50
-57
-64
-61
-47
-53
-44
-35
-41
-46
-54
-67
-71
-66
-52
-42
-28
-30
-46
-43
-51
-65
-67
-53
-59
-44
-31
-30
-41
-37
-52
-66
-64
-63
-55
-34
-19
-24
-24
-16
-32
-45
-48
-40
-25
-18
-11
-8
-16
-22
-50
-34
-41
-46
-27
-25
-7
-8
6
-10
-24
-29
-30
-42
-27
-22
-10
-7
-9
-17
-27
-27
-32
-33
-25
-20
-16
-14
-20
-40
-48
-57
-59
-52
-33
-24
-28
-49
-48
-62
-74
-74
-77
-65
-67
-44
-42
-41
-49
-55
-64
-67
-66
-75
-69
-61
-54
-55
-59
-62
-76
-74
-83
-76
-62
-54
-42
-47
-57
-62
-81
-76
-71
-55
-49
-58
-60
-59
-60
-63
-80
-86
-80
-70
-60
-51
-47
-47
-64
-73
-78
-88
-80
-72
-49
-50
-32
-43
-53
-75
-79
-88
-88
-78
-57
-57
-50
-63
-63
-63
-63
-69
-71
-66
-58
-52
-44
-48
-58
-67
-78
-73
-76
-69
-56
-51
-47
-52
-56
-70
-72
-66
-68
-63
-56
-46
-51
-56
-60
-76
-73
-73
-71
-75
-61
-46
-49
-53
-54
-77
-80
-77
-75
-65
-52
-51
-47
-48
-59
-72
-82
-91
-88
-80
-56
-57
-66
-62
-67
-70
-80
-80
-79
-69
-54
-52
-46
-56
-61
-81
-94
-83
-81
-68
-63
-57
-59
-66
-64
-77
-86
-82
-79
-76
-65
-60
-55
-64
-61
-82
-87
-91
-85
-72
-58
-57
-58
-59
-63
-84
-88
-90
-82
-64
-65
-55
-62
-68
-73
-93
-88
-84
-73
-74
-61
-53
-56
-54
-62
-74
-80
-104
-99
-75
-65
-53
-66
-76
-80
-93
-79
-90
-69
-57
-56
-61
-66
-69
-80
-87
-86
-82
-73
-65
-51
-55
-63
-56
-71
-82
-80
-74
-71
-62
-58
-48
-58
-65
-74
-82
-70
-77
-73
-57
-54
-59
-71
-85
-94
-98
-96
-92
-70
-53
-44
-50
-54
-63
-79
-84
-88
-83
-80
-60
-45
-36
-55
-63
-72
-77
-77
-76
-82
-69
-50
-53
-59
-59
-77
-93
-98
-81
-84
-72
-67
-61
-56
-79
-85
-88
-103
-86
-84
-77
-67
-56
-43
-31
-33
-19
-8
15
28
38
15
-12
-33
-43
-61
-81
-103
-129
-125
-108
-95
-106
-97
-102
-123
-119
-111
-106
-80
-73
-70
-71
-74
-79
-91
-89
-96
-81
-69
-61
-52
-53
-55
-70
-78
-79
-73
-89
-76
-55
-47
-46
-56
-69
-80
-76
-78
-69
-57
-50
-45
-51
-58
-67
-69
-77
-73
-76
-60
-56
-46
-45
-51
-62
-79
-79
-72
-63
-50
-51
-41
-42
-45
-70
-70
-77
-77
-74
-50
-36
-37
-43
-41
-58
-60
-73
-65
-54
-49
-38
-28
-32
-43
-53
-59
-60
-55
-39
-24
-34
-30
-29
-37
-47
-48
-43
-42
-47
-24
-17
-18
-19
-19
-35
-31
-33
-30
-20
-12
-4
-6
-5
-16
-33
-37
-40
-33
-26
-25
-14
-14
-19
-31
-41
-55
-54
-45
-48
-34
-45
-41
-40
-54
-65
-70
-75
-63
-60
-51
-46
-52
-57
-68
-78
-84
-83
-80
-68
-57
-55
-57
-62
-67
-83
-85
-83
-77
-70
-56
-53
-52
-65
-72
-76
-90
-89
-82
-77
-60
-59
-61
-62
-75
-87
-86
-94
-84
-58
-59
-61
-66
-66
-79
-90
-84
-91
-100
-80
-67
-54
-60
-71
-74
-83
-88
-85
-75
-69
-63
-58
-57
-60
-65
-84
-85
-77
-74
-52
-49
-49
-52
-60
-74
-84
-84
-80
-69
-65
-57
-55
-46
-55
-79
-82
-82
-83
-79
-68
-59
-63
-69
-70
-75
-82
-86
-85
-77
-63
-65
-58
-61
-61
-70
-77
-76
-69
-66
-66
-53
-55
-52
-54
-74
-89
-83
-66
-69
-52
-41
-60
-69
-66
-95
-94
-97
-87
-77
-65
-64
-65
-71
-71
-73
-80
-90
-86
-78
-72
-56
-60
-67
-70
-84
-93
-88
-80
-73
-68
-58
-54
-64
-70
-74
-89
-92
-84
-72
-59
-62
-56
-65
-79
-86
-87
-83
-74
-76
-65
-64
-56
-57
-68
-86
-87
-84
-82
-72
-57
-49
-60
-66
-76
-82
-85
-88
-81
-66
-59
-57
-62
-59
-76
-79
-86
-87
-81
-62
-58
-45
-56
-68
-68
-68
-83
-82
-70
-59
-52
-50
-55
-64
-73
-78
-82
-74
-68
-60
-52
-48
-54
-64
-72
-73
-80
-89
-92
-66
-58
-71
-58
-65
-75
-86
-85
-88
-89
-65
-63
-62
-61
-71
-91
-88
-87
-85
-79
-62
-60
-56
-65
-73
-85
-91
-96
-87
-76
-72
-70
-76
-64
-76
-91
-97
-91
-71
-47
-26
-12
0
21
13
4
-14
-16
-36
-42
-41
-42
-57
-75
-106
-127
-122
-134
-120
-112
-100
-100
-91
-85
-96
-98
-103
-105
-94
-79
-67
-63
-58
-68
-77
-82
-88
-91
-75
-73
-42
-53
-45
-58
-78
-80
-92
-93
-83
-65
-63
-53
-49
-56
-66
-70
-77
-82
-75
-54
-50
-49
-64
-53
-65
-70
-77
-76
-73
-60
-41
-46
-53
-51
-66
-71
-77
-73
-59
-54
-30
-27
-48
-47
-63
-67
-86
-76
-64
-51
-37
-34
-42
-50
-59
-63
-61
-58
-52
-43
-26
-30
-31
-32
-50
-51
-48
-52
-41
-25
-17
-7
-14
-35
-39
-45
-44
-33
-34
-11
-10
-4
-3
-17
-32
-40
-33
-30
-29
-20
-11
-12
-15
-25
-37
-50
-46
-44
-33
-34
-22
-30
-28
-40
-47
-59
-62
-60
-58
-37
-39
-43
-50
-63
-74
-80
-84
-78
-65
-54
-55
-54
-54
-65
-74
-76
-77
-79
-69
-49
-46
-58
-61
-73
-80
-80
-92
-83
-71
-57
-55
-67
-58
-70
-78
-84
-83
-86
-73
-56
-51
-49
-62
-85
-87
-89
-89
-81
-62
-62
-59
-52
-64
-72
-78
-85
-84
-74
-61
-60
-51
-53
-56
-74
-75
-81
-79
-79
-65
-57
-51
-54
-54
-72
-77
-73
-71
-74
-61
-56
-45
-42
-62
-75
-78
-76
-88
-71
-52
-54
-61
-58
-62
-75
-83
-84
-82
-75
-55
-53
-45
-52
-59
-71
-81
-75
-72
-65
-56
-46
-55
-63
-52
-76
-72
-76
-67
-62
-49
-51
-55
-55
-66
-82
-83
-78
-69
-65
-64
-55
-49
-58
-59
-75
-81
-86
-76
-73
-58
-53
-47
-50
-60
-53
-85
-86
-75
-64
-61
-54
-59
-58
-69
-78
-81
-87
-76
-59
-55
-51
-56
-51
-63
-79
-85
-79
-71
-70
-62
-52
-51
-55
-59
-71
-77
-73
-64
-64
-61
-54
-56
-54
-69
-79
-80
-82
-73
-62
-47
-44
-46
-50
-62
-69
-80
-77
-70
-61
-47
-51
-50
-52
-66
-72
-72
-75
-67
-56
-50
-52
-56
-65
-73
-75
-86
-81
-77
-69
-57
-48
-59
-61
-77
-84
-88
-81
-85
-62
-62
-56
-52
-63
-78
-91
-85
-84
-81
-69
-69
-68
-64
-63
-72
-61
-40
-23
-14
9
34
33
23
10
-30
-52
-54
-65
-72
-74
-96
-103
-107
-111
-117
-124
-121
-114
-99
-94
-78
-70
-73
-79
-88
-88
-90
-82
-71
-64
-53
-48
-57
-60
-75
-86
-90
-78
-73
-58
-53
-53
-57
-66
-71
-71
-79
-82
-72
-57
-53
-50
-56
-63
-73
-80
-72
-65
-52
-47
-53
-49
-55
-70
-66
-73
-72
-73
-58
-46
-44
-42
-42
-66
-69
-71
-70
-61
-52
-49
-41
-48
-49
-58
-66
-71
-63
-61
-42
-37
-33
-35
-46
-55
-58
-71
-64
-59
-41
-31
-26
-40
-29
-47
-48
-42
-41
-33
-25
-21
-10
-15
-11
-33
-43
-37
-38
-31
-16
-6
-8
-14
-9
-27
-35
-37
-29
-21
-10
-5
-12
-12
-22
-40
-51
-53
-52
-44
-33
-32
-31
-37
-52
-66
-72
-74
-62
-61
-55
-44
-42
-45
-58
-74
-81
-82
-74
-71
-48
-52
-50
-56
-62
-76
-85
-84
-78
-70
-53
-57
-59
-60
-67
-80
-75
-73
-87
-71
-55
-45
-48
-51
-63
-94
-95
-83
-81
-61
-56
-54
-44
-64
-66
-77
-86
-90
-84
-68
-58
-54
-56
-55
-66
-75
-76
-79
-71
-61
-58
-56
-52
-61
-63
-75
-79
-78
-75
-60
-53
-51
-54
-50
-62
-72
-74
-68
-62
-53
-57
-50
-50
-59
-66
-72
-78
-76
-72
-62
-51
-52
-51
-47
-65
-74
-83
-82
-65
-55
-54
-44
-48
-56
-68
-71
-82
-73
-71
-58
-59
-52
-54
-57
-71
-82
-81
-75
-71
-51
-48
-43
-47
-60
-69
-78
-77
-67
-68
-47
-50
-49
-47
-52
-70
-79
-73
-76
-69
-54
-53
-45
-47
-55
-67
-79
-76
-78
-69
-53
-51
-54
-59
-63
-67
-68
-73
-79
-62
-50
-42
-46
-52
-63
-75
-80
-86
-79
-68
-55
-47
-50
-47
-64
-75
-80
-78
-76
-63
-48
-42
-45
-51
-69
-73
-78
-83
-70
-60
-53
-43
-40
-58
-67
-76
-76
-72
-69
-63
-61
-46
-50
-53
-62
-67
-73
-75
-68
-58
-51
-43
-44
-51
-61
-65
-72
-72
-78
-57
-48
-46
-49
-50
-58
-67
-66
-61
-64
-52
-40
-44
-47
-51
-54
-65
-67
-69
-62
-47
-43
-38
-44
-47
-56
-55
-61
-64
-67
-54
-43
-46
-55
-55
-73
-75
-85
-73
-71
-49
-43
-52
-48
-53
-60
-64
-76
-67
-75
-62
-52
-44
-53
-56
-56
-78
-81
-80
-77
-68
-55
-54
-55
-55
-59
-56
-40
-21
7
26
45
50
40
19
-15
-42
-46
-56
-78
-69
-91
-97
-100
-99
-115
-116
-107
-96
-89
-67
-72
-62
-65
-68
-76
-75
-79
-75
-66
-55
-50
-44
-48
-62
-77
-72
-78
-73
-64
-49
-45
-42
-49
-50
-69
-77
-74
-66
-60
-48
-52
-50
-47
-57
-73
-73
-70
-59
-53
-41
-46
-44
-48
-63
-78
-71
-72
-64
-48
-39
-43
-43
-53
-61
-61
-71
-62
-63
-44
-36
-45
-40
-42
-52
-59
-68
-60
-58
-51
-35
-35
-30
-33
-46
-57
-58
-59
-47
-27
-32
-14
-25
-27
-41
-49
-46
-39
-35
-25
-15
-12
-11
-15
-28
-34
-35
-24
-25
-16
-4
-11
5
-11
-29
-27
-40
-30
-28
-15
-11
-8
-14
-17
-28
-40
-41
-42
-43
-28
-26
-22
-30
-42
-58
-56
-59
-58
-52
-41
-32
-39
-44
-50
-60
-67
-73
-67
-54
-52
-45
-44
-56
-56
-70
-70
-67
-67
-70
-53
-48
-48
-51
-61
-73
-74
-71
-73
-59
-46
-49
-42
-42
-61
-68
-65
-68
-77
-60
-51
-45
-43
-52
-60
-75
-70
-63
-65
-50
-46
-44
-54
-54
-62
-77
-75
-74
-68
-60
-46
-45
-40
-44
-55
-66
-79
-71
-69
-53
-45
-35
-40
-51
-60
-68
-62
-72
-61
-53
-50
-49
-45
-50
-66
-68
-68
-76
-64
-52
-43
-41
-47
-56
-59
-67
-64
-63
-67
-56
-44
-39
-41
-40
-61
-64
-69
-68
-65
-49
-45
-39
-50
-49
-65
-66
-74
-74
-65
-45
-38
-44
-50
-53
-68
-72
-78
-71
-69
-49
-47
-44
-45
-58
-57
-69
-71
-67
-64
-50
-39
-41
-50
-45
-64
-76
-76
-73
-68
-49
-38
-32
-42
-55
-63
-66
-62
-52
-58
-61
-51
-45
-45
-50
-66
-75
-72
-72
-58
-43
-44
-42
-46
-55
-66
-73
-65
-70
-61
-53
-48
-41
-45
-59
-63
-68
-73
-67
-57
-47
-44
-40
-47
-54
-58
-64
-60
-63
-47
-47
-47
-47
-48
-61
-71
-81
-74
-61
-51
-36
-38
-45
-48
-63
-67
-68
-67
-67
-52
-55
-43
-42
-40
-54
-70
-71
-66
-59
-44
-39
-36
-43
-47
-58
-64
-62
-65
-60
-45
-47
-38
-41
-42
-45
-58
-67
-66
-53
-48
-39
-38
-38
-35
-55
-65
-64
-55
-51
-39
-33
-33
-39
-37
-54
-57
-64
-57
-55
-43
-37
-35
-41
-41
-53
-57
-58
-67
-50
-44
-31
-41
-42
-49
-58
-69
-69
-69
-59
-49
-47
-44
-43
-47
-57
-66
-64
-61
-60
-54
-51
-40
-53
-63
-71
-70
-75
-69
-54
-37
-22
4
13
17
13
30
36
35
30
13
2
-5
-16
-55
-79
-112
-128
-117
-107
-87
-70
-68
-68
-74
-81
-78
-83
-73
-54
-45
-36
-36
-46
-64
-62
-65
-64
-50
-47
-45
-42
-39
-39
-50
-57
-66
-57
-52
-43
-40
-39
-40
-44
-51
-54
-61
-55
-46
-35
-33
-32
-25
-29
-52
-54
-57
-50
-49
-42
-36
-34
-24
-29
-52
-56
-55
-48
-53
-29
-29
-26
-23
-38
-48
-52
-57
-51
-46
-29
-22
-24
-22
-30
-32
-44
-48
-41
-33
-25
-20
-13
-23
-22
-30
-33
-43
-30
-21
-19
0
-6
-11
-12
-24
-31
-25
-22
-15
4
5
4
6
0
-5
-14
-19
-9
-10
6
5
10
10
4
-15
-24
-21
-20
-13
8
-2
3
-5
-15
-26
-43
-41
-28
-28
-24
-21
-21
-24
-39
-51
-54
-51
-50
-41
-28
-26
-33
-32
-43
-54
-59
-57
-56
-52
-40
-33
-23
-40
-53
-58
-63
-60
-59
-48
-34
-31
-31
-41
-49
-48
-51
-61
-57
-45
-40
-36
-28
-38
-55
-62
-60
-62
-51
-37
-29
-28
-38
-42
-50
-48
-66
-61
-45
-43
-35
-30
-35
-40
-46
-50
-57
-53
-56
-42
-30
-31
-30
-40
-52
-54
-49
-49
-52
-42
-31
-25
-36
-38
-44
-51
-64
-61
-55
-39
-31
-27
-31
-36
-47
-62
-62
-62
-47
-32
-33
-32
-34
-36
-41
-51
-54
-56
-50
-34
-28
-20
-25
-43
-53
-60
-47
-50
-56
-32
-20
-28
-39
-39
-49
-60
-65
-57
-49
-35
-27
-23
-19
-41
-47
-52
-55
-49
-46
-37
-36
-34
-31
-39
-56
-60
-54
-53
-40
-35
-29
-33
-35
-38
-47
-63
-57
-51
-47
-29
-30
-30
-39
-42
-55
-58
-58
-51
-44
-29
-24
-28
-35
-43
-54
-54
-53
-50
-39
-37
-34
-26
-42
-53
-60
-56
-56
-53
-41
-34
-35
-28
-29
-42
-51
-56
-61
-55
-41
-31
-32
-34
-36
-42
-57
-55
-54
-50
-29
-9
-17
-34
-37
-51
-55
-61
-55
-46
-31
-29
-33
-22
-34
-45
-52
-56
-53
-47
-29
-17
-23
-11
-21
-48
-46
-49
-40
-32
-20
-16
-18
-24
-35
-38
-56
-59
-45
-46
-34
-28
-23
-30
-30
-51
-62
-58
-51
-48
-33
-25
-24
-35
-41
-55
-49
-53
-60
-55
-37
-30
-24
-27
-50
-61
-64
-69
-63
-53
-38
-18
-7
-6
9
12
9
30
52
46
40
20
1
-15
-16
-44
-72
-86
-93
-87
-71
-65
-60
-71
-86
-84
-82
-77
-83
-64
-48
-36
-30
-32
-39
-51
-58
-62
-50
-35
-23
-19
-29
-26
-35
-54
-50
-43
-47
-32
-23
-15
-15
-13
-19
-52
-56
-55
-47
-43
-25
-13
-17
-29
-27
-45
-47
-51
-34
-24
-25
-3
-12
-19
-37
-53
-39
-45
-34
-19
-16
-9
-11
-9
-31
-37
-48
-49
-31
-12
-16
-7
4
-18
-38
-36
-30
-33
-29
-9
-2
1
-4
-1
-17
-28
-22
-18
-5
2
3
10
11
5
-11
-11
-15
-7
-7
11
22
25
15
15
-4
-5
-6
-11
4
16
27
25
19
9
-3
5
-2
3
14
11
14
15
8
2
-11
-19
-24
-21
-19
-10
6
-8
-10
-26
-31
-35
-38
-20
-31
-23
-17
-20
-22
-35
-45
-51
-47
-45
-34
-23
-21
-19
-17
-29
-40
-51
-50
-45
-37
-23
-21
-19
-32
-35
-45
-52
-46
-41
-35
-25
-17
-18
-26
-43
-43
-40
-50
-46
-25
-21
-23
-31
-28
-37
-41
-50
-47
-39
-26
-13
-8
-16
-20
-38
-56
-47
-45
-35
-31
-20
-14
-15
-26
-36
-37
-48
-45
-38
-24
-15
-20
-15
-10
-26
-35
-40
-47
-34
-13
-13
-8
-9
-22
-43
-42
-49
-41
-37
-21
-17
-13
-20
-20
-31
-44
-36
-34
-37
-22
-18
-18
-16
-23
-41
-41
-42
-39
-33
-17
-19
-15
-13
-27
-33
-41
-43
-44
-38
-27
-20
-18
-20
-22
-39
-49
-39
-39
-28
-23
-14
-16
-19
-25
-42
-43
-42
-36
-29
-20
-15
-8
-13
-25
-44
-45
-39
-40
-26
-20
-14
-17
-18
-26
-34
-39
-41
-33
-22
-5
-6
-4
-14
-19
-30
-38
-36
-30
-20
-26
-11
-6
-21
-22
-29
-34
-43
-34
-30
-19
-19
-16
-19
-37
-40
-45
-42
-35
-27
-13
-13
-29
-34
-36
-43
-43
-42
-39
-29
-28
-18
-19
-23
-37
-55
-58
-45
-56
-37
-33
-25
-21
-15
-20
-11
2
17
38
75
87
72
59
23
0
-15
-34
-38
-54
-68
-65
-59
-54
-58
-63
-86
-89
-74
-67
-51
-38
-33
-20
-26
-48
-52
-50
-58
-45
-27
-16
-17
-16
-27
-33
-45
-40
-39
-24
-20
-16
-5
-5
-25
-35
-45
-38
-35
-25
-17
-10
-11
-17
-26
-30
-35
-33
-36
-22
-10
-3
-8
-17
-27
-32
-36
-38
-35
-20
-17
-10
-11
-13
-15
-26
-34
-42
-33
-9
-8
-7
-7
-3
-20
-23
-25
-21
-22
-10
9
10
12
2
-15
-20
-22
-21
-15
0
10
19
18
9
3
-7
-10
-10
2
8
22
27
31
17
15
12
5
9
7
25
33
32
35
28
20
7
15
8
11
24
25
20
14
8
7
5
-9
-14
-10
-1
-2
2
-7
-13
-17
-23
-38
-33
-27
-14
-9
-4
-13
-16
-27
-30
-35
-42
-39
-24
-13
-14
-15
-19
-31
-40
-49
-32
-40
-24
-16
-12
-11
-21
-33
-47
-40
-42
-48
-29
-18
-16
-13
-23
-33
-41
-40
-41
-33
-25
-15
-9
-17
-18
-32
-43
-40
-39
-38
-12
-16
-14
-22
-18
-44
-41
-40
-24
-16
-16
-7
-5
-11
-31
-33
-40
-41
-39
-21
-11
-17
-9
-12
-19
-27
-31
-27
-28
-21
-6
-9
-9
-18
-28
-29
-41
-37
-35
-15
-6
-10
-7
-12
-18
-29
-31
-36
-33
-20
-15
-8
-7
-8
-27
-33
-27
-40
-35
-19
-18
-12
-17
-15
-30
-38
-39
-31
-32
-23
-14
-5
-12
-25
-36
-34
-37
-41
-30
-18
-10
-10
-8
-14
-28
-40
-34
-39
-40
-19
-16
-9
-18
-21
-31
-40
-37
-37
-42
-23
-20
-14
-16
-16
-34
-40
-40
-39
-37
-24
-17
-11
-5
-28
-27
-41
-39
-31
-27
-10
-7
-15
-12
-12
-33
-48
-43
-33
-33
-21
-12
-5
-5
-13
-27
-26
-24
-17
-25
-13
-7
-1
-7
-17
-31
-35
-26
-29
-23
-6
-1
-5
-9
-18
-38
-45
-40
-39
-29
-20
-18
-13
-18
-30
-36
-44
-43
-44
-34
-14
-9
-8
-8
-27
-34
-43
-37
-41
-27
-19
-18
-25
-24
-33
-45
-44
-21
-18
12
27
53
62
70
67
51
45
29
-2
-3
-1
-7
-14
-42
-77
-92
-88
-84
-67
-55
-44
-41
-35
-36
-45
-51
-47
-45
-32
-25
-18
-7
-5
-26
-40
-29
-44
-34
-33
-22
-13
-5
-6
-17
-31
-35
-36
-30
-27
-14
-4
-5
-6
-16
-31
-33
-26
-35
-27
-11
-8
-3
-4
-13
-20
-23
-36
-24
-29
-12
-2
-8
-5
-3
-20
-25
-27
-38
-22
-6
-4
3
-1
-5
-12
-21
-32
-23
-11
1
4
-1
2
-8
-19
-15
-17
-13
-4
13
28
20
13
17
-2
-12
-20
-14
2
18
26
27
16
18
11
-2
0
4
20
28
34
38
38
12
7
3
6
13
16
34
38
35
26
4
1
-1
4
7
19
18
19
18
10
-5
-7
-11
-9
-18
-8
12
-3
-9
-9
-16
-33
-34
-37
-36
-15
-9
-5
-2
-16
-27
-28
-39
-34
-34
-20
-13
-7
-10
-12
-24
-33
-40
-37
-27
-18
-16
-11
-8
-13
-25
-39
-42
-31
-29
-17
-13
-14
-8
-18
-19
-33
-41
-32
-25
-12
-9
-3
-6
-23
-35
-38
-44
-40
-23
-10
-8
-3
-17
-14
-34
-39
-34
-32
-25
-10
4
8
-7
-18
-33
-38
-32
-38
-28
-14
-3
-8
-6
-7
-25
-35
-39
-31
-18
-4
-2
2
-5
-7
-23
-29
-36
-26
-21
-7
-5
-6
-6
-13
-23
-28
-29
-30
-26
-12
-7
-7
-4
-18
-26
-27
-30
-29
-28
-16
-7
-9
-3
-24
-30
-33
-30
-27
-19
0
-3
-3
-16
-23
-28
-36
-25
-23
-15
-11
0
1
-10
-26
-29
-41
-39
-21
-19
-8
-2
-7
-5
-17
-27
-27
-26
-20
-12
-13
-9
-12
-7
-30
-32
-22
-28
-23
-13
-4
-8
-8
-13
-21
-30
-35
-27
-23
-6
3
-5
-9
-7
-16
-29
-25
-34
-27
-12
-5
-1
-4
-12
-20
-30
-28
-24
-14
-4
8
23
4
-3
-13
-24
-25
-19
-15
-8
-2
5
3
-8
-20
-24
-33
-30
-22
-11
-12
-12
-12
-19
-27
-35
-24
-28
-20
-14
-12
-4
-7
-13
-32
-37
-31
-28
-30
-13
-11
-17
-12
-15
-28
-41
-36
-24
-5
21
46
47
67
64
71
64
58
42
20
18
16
-1
-15
-46
-77
-89
-88
-87
-65
-48
-39
-38
-36
-43
-54
-47
-34
-34
-22
-12
-4
-7
-5
-23
-35
-36
-41
-33
-15
-4
1
-10
-8
-20
-28
-33
-26
-27
-9
-5
0
-2
-9
-21
-21
-33
-30
-20
-10
0
-1
-2
1
-14
-18
-18
-34
-19
-5
-3
8
0
-7
-22
-28
-17
-22
-16
3
4
8
7
-1
-18
-13
-15
-13
-5
6
9
16
5
0
-8
-7
-8
-4
-1
9
24
26
15
15
-3
-9
-3
6
13
21
22
35
25
19
8
14
15
17
21
31
38
43
29
28
24
20
16
24
29
39
39
42
32
25
27
18
5
7
12
29
31
29
24
13
6
-3
-8
-10
7
12
12
3
-1
-8
-18
-22
-23
-19
-13
11
-1
0
-4
-11
-26
-33
-33
-23
-8
-2
2
2
1
-16
-20
-28
-26
-25
-18
-10
-4
-4
-6
-14
-24
-27
-21
-20
-11
-1
3
2
-14
-24
-27
-27
-25
-21
-14
-4
-1
0
-3
-24
-28
-33
-31
-16
-6
-7
2
-4
-12
-15
-30
-28
-31
-24
-2
6
11
-4
-6
-16
-27
-28
-32
-22
-7
0
8
-4
-8
-21
-27
-29
-19
-14
1
1
-3
-4
-8
-22
-27
-28
-28
-23
-7
-4
6
-1
1
-23
-25
-23
-19
-11
3
0
7
0
-14
-24
-26
-27
-23
-10
-8
-1
1
0
-19
-29
-30
-31
-21
-13
4
7
5
-3
-10
-19
-15
-24
-24
-25
-9
4
6
-11
-19
-30
-36
-33
-23
-10
-4
0
6
-3
-5
-18
-30
-23
-25
-14
-12
-4
-2
-10
-15
-24
-24
-27
-21
-14
-4
7
9
-9
-23
-30
-25
-21
-25
-11
4
2
-1
-12
-14
-23
-24
-17
-20
-7
-3
4
-5
-6
-25
-27
-32
-25
-18
-3
-3
-2
1
-3
-16
-32
-25
-19
-19
-6
4
8
2
-1
-19
-31
-34
-21
-11
2
8
11
10
4
-11
-13
-19
-22
-9
4
14
14
6
0
-17
-18
-26
-13
-13
1
-5
-4
-5
-19
-28
-25
-23
-26
-22
-3
0
-3
-9
-10
-25
-30
-22
-36
-19
-1
-3
-3
-4
-13
-25
-30
-37
-38
-24
-6
2
-9
-8
-14
-11
3
12
36
51
75
90
94
76
45
15
8
1
-18
-25
-48
-52
-51
-52
-51
-70
-70
-69
-51
-36
-29
-21
-12
-11
-19
-25
-33
-38
-36
-18
-2
0
5
2
-15
-24
-30
-27
-17
-15
-1
5
1
-7
-14
-25
-19
-20
-22
-5
3
8
7
-2
-11
-22
-14
-10
-7
1
2
5
10
3
-4
-19
-20
-21
-17
6
15
16
13
-6
-19
-22
-19
-14
-6
5
9
11
5
7
-2
-9
-15
-10
1
16
17
20
21
17
5
-9
-7
2
14
27
27
28
35
29
15
3
5
4
26
31
38
48
44
29
23
11
15
21
31
42
54
48
45
34
20
24
16
26
36
42
47
41
36
33
25
21
2
8
9
23
24
20
19
8
2
-12
-15
-12
-3
2
10
6
5
2
-16
-9
-14
-17
-4
0
5
6
-8
-20
-18
-19
-31
-23
-8
-1
11
1
1
-10
-19
-36
-18
-17
-3
5
4
10
1
-15
-29
-30
-23
-22
-9
0
5
0
-6
-11
-29
-27
-30
-14
-11
3
3
0
-6
-10
-26
-22
-19
-22
-14
8
14
3
-6
-13
-26
-20
-18
-11
0
3
7
8
-2
-6
-23
-23
-27
-20
-5
4
9
5
0
-21
-13
-25
-17
-8
1
1
3
5
-4
-17
-17
-12
-13
-19
1
8
4
-1
-6
-12
-18
-25
-23
-10
-6
4
5
1
-4
-16
-27
-29
-23
-15
-6
6
2
-1
-4
-16
-21
-30
-19
-9
-4
9
-1
2
-12
-20
-29
-28
-23
-7
7
12
10
0
-10
-19
-15
-14
-12
3
5
-1
1
6
-2
-25
-25
-21
-10
1
5
8
8
6
-3
-12
-23
-19
-12
-1
12
18
10
6
0
-10
-3
-17
-17
-6
11
13
11
12
-4
-22
-24
-26
-16
-11
-3
3
0
3
-15
-27
-23
-28
-18
-5
3
0
9
0
-27
-35
-29
-25
-30
-8
6
-5
-2
-8
-16
-24
-4
9
31
54
61
75
90
87
66
40
16
14
12
8
-2
-25
-46
-49
-61
-70
-65
-60
-53
-34
-24
-14
-10
-18
-25
-34
-33
-31
-17
8
6
-2
5
1
-10
-19
-26
-20
-5
4
2
10
5
2
-13
-25
-20
-12
-3
16
11
14
8
-5
-9
-17
-13
-13
-13
9
15
14
11
1
-5
-18
-10
-9
-8
14
17
8
11
3
-1
-5
-12
-7
5
12
16
29
16
-1
0
-11
-17
1
20
22
18
25
21
10
1
3
5
8
19
25
26
28
21
22
14
20
23
26
29
41
38
46
47
38
23
23
24
31
42
44
49
49
47
42
31
26
31
32
44
49
51
43
38
24
15
14
15
16
34
27
26
20
13
-7
-3
-8
-6
-1
3
10
22
12
9
-8
-16
-22
-15
-10
-2
8
15
10
-7
-16
-22
-28
-17
-9
1
6
12
14
-7
-12
-25
-31
-27
-24
-1
6
5
-7
-9
-24
-26
-21
-9
-3
0
4
8
-5
-6
-16
-23
-24
-21
-14
4
11
13
6
-9
-16
-14
-16
-12
-6
-3
12
13
3
-12
-14
-20
-22
-6
-4
-1
11
6
1
-5
-13
-19
-16
-11
-6
3
9
11
11
-4
-10
-22
-23
-18
-2
5
11
3
7
-4
-14
-18
-22
-16
0
4
11
10
-2
-5
-6
-14
-20
-18
-5
4
9
6
2
-1
-18
-21
-23
-9
4
5
9
6
-4
-17
-21
-21
-20
-19
1
5
8
9
6
-7
-12
-20
-16
-4
-2
5
14
9
3
-11
-18
-16
-6
-7
4
13
13
12
11
-9
-14
-8
-12
-8
9
17
20
5
5
-12
-20
-12
-11
-15
5
4
6
-1
-6
-15
-18
-15
-24
-15
-8
6
8
3
-5
-21
-23
-20
-19
-3
5
2
8
6
-7
-26
-27
-32
-28
-25
-5
13
23
34
32
39
45
68
81
77
85
69
39
26
28
-1
-24
-50
-61
-48
-33
-34
-36
-30
-44
-56
-44
-39
-29
-15
-7
5
6
-3
-16
-23
-19
-22
-11
-1
4
5
0
3
-8
-12
-24
-8
-8
7
5
12
9
3
-6
-14
-10
-9
-14
1
12
12
11
9
-6
-8
-12
-7
-5
11
18
23
9
8
-2
-15
-19
-12
-2
9
16
9
13
12
1
-9
-8
-8
6
17
24
18
19
14
-3
-7
-4
2
16
18
22
29
28
20
13
10
7
8
21
27
32
39
36
31
21
19
22
14
27
44
53
50
46
39
33
28
30
35
38
45
56
54
55
49
31
18
25
30
24
35
38
44
34
19
16
4
4
0
13
25
19
21
7
-2
-20
-16
-16
-14
-5
10
13
12
6
-4
-19
-21
-18
-8
2
7
4
5
-4
-3
-15
-22
-23
-11
-4
7
9
11
-2
-14
-19
-26
-16
-11
4
2
10
3
-5
-14
-17
-18
-19
-10
0
11
-1
4
2
-7
-20
-26
-18
-15
-1
0
6
4
9
-13
-16
-17
-25
-10
3
10
15
14
4
-12
-21
-22
-16
-13
5
11
11
5
0
-11
-20
-15
-12
-12
6
14
14
14
5
-9
-21
-18
-16
-16
5
7
12
10
-1
-11
-18
-17
-4
-1
-8
10
23
9
4
-18
-22
-20
-16
-11
0
6
10
7
4
-8
-23
-23
-14
-7
4
5
11
3
-3
-24
-19
-20
-11
-11
5
9
17
13
-8
-22
-19
-16
-12
-10
-2
4
8
7
-7
-18
-19
-19
-13
1
4
9
17
8
-9
-17
-16
-19
-19
-4
3
11
14
12
5
-12
-17
-11
-10
3
15
16
21
18
-3
-9
-12
-6
3
13
13
21
22
20
0
-7
-10
-5
-4
2
15
18
16
13
1
-8
-16
-15
-12
1
9
9
14
5
-9
-14
-24
-16
-13
3
10
10
8
5
-7
-22
-18
-11
-7
6
12
11
5
-7
-18
-25
-29
-20
-16
3
15
26
33
50
48
56
70
83
88
85
89
60
41
26
3
-16
-35
-57
-65
-44
-29
-25
-26
-33
-35
-34
-35
-29
-18
-7
2
4
6
1
-15
-10
-13
-12
-5
14
14
13
12
2
-10
-11
-19
-6
4
21
21
23
17
-1
-6
-7
-10
-3
10
7
20
31
23
11
-2
-15
-16
-5
4
18
22
22
16
8
5
-2
-2
-4
5
17
27
26
22
5
-4
-11
-4
1
7
26
23
24
20
15
3
2
1
14
19
34
30
29
33
21
5
5
8
22
38
45
42
41
40
30
28
26
28
33
44
59
62
60
51
38
31
28
34
45
49
58
64
61
51
31
28
24
29
36
48
50
53
41
27
20
5
1
10
4
19
29
30
22
19
3
-2
-1
2
2
12
18
28
23
9
-11
-17
-15
-10
-9
15
10
16
14
-2
-15
-16
-18
-14
-2
9
15
17
15
6
-2
-19
-13
-13
-5
8
14
19
11
0
-12
-12
-7
-6
8
18
19
11
9
-3
-8
-15
-7
-12
-2
7
14
20
8
-4
-14
-17
-12
-10
2
14
19
17
17
-2
-12
-18
-7
-5
9
11
23
16
11
-2
-5
-12
-10
-11
8
16
17
20
19
1
-8
-8
-12
-1
20
20
20
16
3
0
-11
-11
-13
-9
4
18
18
20
10
-2
-4
-12
-8
-1
13
17
19
15
15
2
0
-3
-5
2
7
