107
51
87
94
102
122
128
153
153
122
89
64
89
98
103
122
123
153
150
126
98
72
86
93
112
120
125
156
149
114
89
58
91
92
110
123
126
155
145
127
85
55
86
82
89
119
127
157
141
121
93
57
94
84
108
104
115
156
142
116
81
65
90
93
106
120
114
155
132
114
74
70
95
86
97
110
121
154
134
112
69
70
94
88
96
113
116
158
140
114
72
70
85
90
109
116
132
150
130
116
67
65
95
94
111
119
136
155
129
112
62
87
102
105
100
120
143
145
113
103
64
87
88
91
100
122
140
149
115
106
64
79
95
100
111
114
138
146
119
96
56
81
80
97
110
117
147
141
120
98
50
85
91
94
122
119
155
157
125
95
63
98
101
110
131
131
159
153
134
99
73
107
111
120
141
142
167
167
137
103
76
106
110
121
129
134
166
155
131
99
66
100
104
118
123
125
154
151
125
82
50
89
94
110
119
121
154
135
103
89
73
94
82
94
110
110
145
130
106
72
60
84
76
92
99
94
128
104
82
33
48
70
73
106
149
169
225
242
254
232
266
282
274
275
285
274
270
231
183
125
117
103
81
104
101
111
131
89
85
27
42
53
63
76
90
111
133
97
89
37
62
78
78
98
100
119
130
107
85
46
71
81
86
98
101
121
130
109
85
41
78
88
91
108
106
138
132
106
79
43
78
88
83
107
106
137
142
118
83
39
89
101
90
123
120
140
134
115
87
48
86
90
92
111
122
144
133
116
88
60
97
97
102
127
133
163
155
123
101
70
105
102
121
141
137
169
157
139
116
87
120
119
135
146
151
193
166
162
105
101
138
132
140
155
157
199
186
162
107
111
128
123
137
158
152
178
157
141
96
84
99
97
102
127
134
148
126
113
63
70
84
85
84
103
113
130
109
92
46
66
65
68
80
109
115
115
88
82
27
55
56
60
65
81
105
114
90
72
17
40
60
57
71
69
99
108
90
72
24
47
54
62
72
86
101
96
67
42
16
40
51
55
75
81
101
100
74
57
13
43
52
62
82
82
118
101
76
55
29
54
58
69
87
91
113
108
86
48
20
61
60
62
84
101
115
100
84
53
26
60
62
71
84
84
123
111
89
58
28
52
62
86
87
101
129
113
85
53
37
61
57
81
95
86
124
110
93
50
37
65
60
80
93
93
127
108
89
53
51
70
66
75
95
105
133
108
95
47
46
71
74
78
98
107
118
116
91
55
54
64
76
86
89
98
118
105
90
39
54
69
74
85
101
107
122
104
89
36
57
69
75
89
101
127
128
113
93
40
68
83
85
102
112
126
127
104
74
35
66
70
74
98
100
119
116
85
62
23
49
56
59
71
77
104
100
75
48
10
38
43
52
70
67
105
101
75
52
16
53
56
58
75
81
111
106
74
39
6
55
39
39
54
63
84
90
62
32
24
76
92
125
177
216
262
271
274
228
195
230
214
197
196
185
187
145
98
45
15
37
26
44
48
50
65
56
36
2
2
30
24
33
52
57
86
70
54
17
11
33
42
49
62
68
93
62
59
13
15
27
38
45
66
81
99
67
49
14
31
37
41
47
62
79
93
76
63
3
24
36
28
39
70
86
96
70
54
-1
22
22
45
58
70
89
92
65
53
2
33
40
45
52
69
96
102
71
40
3
35
50
37
73
82
100
106
67
55
26
53
50
66
80
86
117
114
87
66
31
64
66
80
88
93
131
123
100
73
42
71
71
78
93
89
129
124
85
57
39
66
56
58
68
88
116
106
71
30
-3
28
35
45
60
75
93
76
48
13
-8
25
22
41
47
40
83
61
41
-1
-10
12
10
19
43
40
67
52
38
-4
-5
19
13
14
43
53
72
46
33
-9
1
15
6
18
37
53
73
60
36
-10
-7
12
24
29
39
47
71
49
43
-10
-1
12
22
18
34
55
55
44
33
-12
4
17
18
30
44
55
69
42
27
-23
0
9
11
25
39
69
68
41
16
-31
7
15
21
37
37
63
62
41
9
-34
0
4
13
35
41
70
67
35
6
-29
8
3
14
38
35
62
64
34
5
-31
2
8
14
30
37
66
63
30
-5
-33
1
6
6
18
36
57
57
30
-10
-32
2
-9
14
27
26
65
50
37
-12
-43
-10
-10
8
23
27
61
47
21
-14
-33
-4
-5
-3
21
29
55
39
27
-5
-38
-12
-12
14
23
43
58
33
15
-22
-31
-9
-7
2
20
26
58
27
8
-24
-12
-2
-1
12
32
37
55
27
21
-34
-22
0
-3
-4
31
50
61
37
18
-27
-6
4
14
13
29
44
67
42
32
-18
-2
16
14
38
57
72
85
52
37
-12
17
37
30
44
41
71
67
49
14
-22
12
16
25
39
45
61
57
34
6
-33
-7
0
5
34
28
48
49
22
-5
-30
-6
-6
2
23
28
55
57
30
-12
-40
-11
-4
3
23
22
57
29
0
-32
-55
-18
-13
-5
29
47
94
120
129
119
124
180
193
238
242
242
255
227
188
138
83
93
66
53
42
36
58
46
24
-24
-37
-14
-9
-2
26
33
47
21
14
-18
-13
4
1
10
18
22
61
47
24
-23
-36
-1
0
5
25
32
57
35
18
-27
-13
-10
-3
12
26
29
53
40
24
-12
-5
-1
4
12
31
51
60
43
33
-20
-6
5
4
23
41
56
75
51
28
-12
2
13
15
34
47
65
68
46
38
-22
12
24
29
54
60
82
86
58
36
-3
31
36
43
69
76
103
104
81
52
12
39
54
66
92
87
111
104
94
63
28
61
72
76
89
99
119
118
94
66
34
63
56
76
88
86
116
95
88
53
25
53
48
67
69
71
105
97
77
36
3
39
36
48
64
67
95
82
56
19
1
36
19
38
58
63
95
68
60
16
5
32
37
39
58
71
102
68
49
21
18
36
28
52
62
60
92
72
62
14
15
35
46
54
63
66
88
67
64
13
24
35
39
51
69
74
92
72
67
16
28
42
39
51
67
81
95
63
69
12
35
41
46
61
77
89
94
73
61
10
37
42
44
62
70
85
97
78
51
6
36
44
48
67
77
92
100
62
41
-6
40
38
44
61
62
94
82
49
35
6
29
38
50
69
59
88
79
58
32
-5
27
35
40
57
67
93
87
60
22
-7
28
32
36
49
57
92
81
57
26
-11
28
28
40
57
62
81
79
55
22
-8
32
27
38
63
60
82
78
60
16
-6
23
34
38
58
58
95
73
55
21
4
31
33
39
54
58
88
70
50
12
3
37
36
41
45
53
85
66
52
16
10
30
32
37
49
70
90
69
52
7
20
40
37
54
66
77
103
82
62
21
32
48
54
66
85
105
110
85
77
20
43
50
53
78
77
98
96
74
55
7
35
45
52
52
62
85
89
65
37
-3
27
30
30
48
48
81
79
52
24
-3
22
32
30
41
48
83
81
51
16
-19
16
22
19
32
36
59
50
23
-5
-47
4
21
22
71
92
145
181
189
188
180
232
233
240
256
250
249
223
182
135
71
65
44
36
40
56
86
66
39
-1
-30
5
0
23
42
33
72
63
43
11
-8
15
14
24
39
38
82
63
38
-11
7
31
16
34
53
43
71
63
45
-2
-2
37
40
31
49
59
81
57
44
11
-2
31
20
32
52
67
84
54
44
-5
19
28
24
33
60
72
89
68
51
7
23
36
38
49
73
91
97
52
47
11
28
48
48
63
74
90
100
67
59
6
35
56
65
66
86
114
116
92
72
27
62
70
83
106
97
126
131
113
77
38
77
86
90
108
113
137
135
119
85
48
75
80
77
104
106
133
129
102
67
27
55
65
73
82
83
106
101
79
41
11
42
45
47
61
76
101
90
70
35
6
41
42
40
61
73
100
92
69
27
5
30
25
47
42
72
98
86
65
26
5
33
29
41
61
71
104
81
71
34
4
31
34
52
64
63
96
76
62
17
26
38
26
52
63
68
91
74
54
18
24
38
37
47
52
79
95
75
62
12
17
12
38
51
55
77
90
64
57
10
27
38
34
46
63
85
88
51
44
-2
24
31
32
47
62
82
79
54
36
-3
15
32
31
50
60
88
84
62
28
-10
28
26
27
45
51
88
77
58
32
-1
26
26
33
53
57
80
75
43
22
-10
28
34
49
47
46
81
77
50
16
-3
22
22
33
45
50
87
72
54
19
0
14
17
26
45
54
79
80
61
19
-11
20
18
30
45
45
77
66
43
14
-6
22
27
39
55
57
80
76
53
20
-8
24
23
41
56
59
81
69
47
15
11
24
30
51
61
64
102
72
65
24
23
50
52
57
79
86
107
84
78
27
28
51
60
83
93
108
125
98
94
44
61
69
74
78
95
114
127
95
84
30
55
64
64
85
94
112
114
80
72
17
42
44
51
71
87
94
102
64
57
4
29
51
49
63
65
89
86
71
44
6
42
40
42
63
75
87
80
62
28
-13
18
16
20
44
56
92
95
90
90
88
155
183
218
263
288
308
301
284
230
177
187
163
155
145
108
117
97
78
36
4
23
21
26
49
35
72
70
44
19
-16
24
36
45
48
64
89
75
66
16
0
32
28
36
71
67
86
79
59
20
9
32
31
42
53
61
95
75
53
11
9
32
34
46
62
66
101
77
61
16
18
34
35
53
65
65
101
73
62
16
22
39
45
54
78
99
114
80
63
17
36
46
57
71
78
94
112
87
69
24
40
54
63
70
91
105
118
96
87
41
60
76
65
92
106
133
128
107
85
40
72
82
83
104
113
137
138
113
95
52
80
88
96
113
112
132
140
117
85
48
78
74
80
103
101
130
116
95
61
18
64
63
66
89
92
111
103
68
54
20
44
45
52
57
59
89
87
66
35
8
37
44
54
69
67
101
94
66
22
12
41
42
54
70
74
106
90
62
26
8
38
49
57
73
68
100
87
69
33
27
37
41
62
70
70
106
89
64
17
26
41
49
55
74
74
110
89
68
26
44
49
45
64
77
77
103
78
74
19
25
38
48
54
68
78
89
71
77
16
33
50
49
60
77
88
102
74
62
14
36
41
52
65
65
87
98
70
54
18
39
51
58
77
80
96
87
72
57
11
37
46
49
62
73
100
95
57
45
7
44
54
51
61
70
99
95
76
42
7
35
55
49
73
69
109
102
71
42
6
42
48
54
71
76
103
101
73
35
11
50
39
54
64
73
97
86
65
27
2
35
32
53
68
70
97
88
72
42
11
45
36
53
73
68
90
101
62
41
17
43
43
50
66
71
103
86
72
27
22
38
52
65
77
79
109
84
84
41
39
61
69
82
97
101
127
103
87
40
49
70
67
75
80
103
119
87
82
35
43
61
67
79
86
97
112
86
70
22
41
45
56
61
79
92
95
84
69
13
40
55
48
63
78
96
100
79
53
10
40
43
49
55
58
92
94
61
30
-7
18
8
18
58
68
94
112
106
114
94
162
195
231
274
291
309
295
262
221
164
171
153
135
122
103
114
97
70
29
3
32
26
35
48
57
96
76
66
37
14
47
46
57
80
76
108
100
72
32
15
50
47
51
76
84
109
98
71
39
22
55
45
58
85
83
118
110
89
43
26
63
62
68
90
94
122
101
85
46
39
69
63
71
93
95
123
104
91
49
46
74
69
78
89
103
129
105
94
51
51
77
79
88
127
114
140
125
100
63
64
85
91
107
126
142
163
129
112
65
92
105
110
111
138
150
156
135
123
75
98
113
113
130
146
163
168
149
132
79
114
113
119
149
146
179
161
142
120
77
102
105
102
132
130
142
147
117
89
48
79
85
86
97
113
135
126
102
71
42
73
70
75
94
91
115
113
101
70
36
65
60
85
94
93
126
117
99
57
39
72
70
85
102
99
129
115
96
64
32
65
65
74
92
87
123
118
94
56
37
61
60
77
93
90
124
114
89
55
45
68
66
84
97
99
129
115
93
60
52
65
66
82
105
105
130
114
97
57
53
73
80
89
100
107
133
112
98
49
59
68
74
87
96
117
131
107
93
45
58
79
73
86
108
117
128
92
101
56
64
72
80
89
103
124
132
104
85
42
76
77
80
95
115
121
122
113
89
39
66
77
80
94
103
132
128
115
86
43
73
84
85
104
104
135
137
112
94
51
82
81
86
101
102
148
137
110
80
55
87
89
98
109
109
144
140
110
82
51
91
87
93
105
101
143
142
112
82
56
85
92
90
114
114
148
140
120
85
58
88
90
110
119
128
156
139
116
82
68
105
93
108
123
126
155
134
137
97
72
103
108
118
139
149
172
159
139
96
90
114
112
132
150
147
174
156
139
95
94
108
113
120
155
146
153
130
125
78
80
97
96
105
123
128
159
142
110
56
92
93
100
113
130
139
147
130
111
72
97
107
97
117
130
140
142
111
103
53
74
79
89
102
115
163
195
196
201
192
249
287
312
340
341
356
356
302
244
203
209
180
153
150
141
165
154
120
103
47
82
86
87
106
113
146
136
123
84
54
91
96
102
109
129
160
148
123
89
56
98
101
110
123
133
154
151
126
90
59
104
83
110
116
125
157
151
133
89
74
96
99
111
130
131
162
156
130
70
64
106
102
119
137
135
172
144
127
86
88
112
106
122
139
133
164
143
136
100
97
117
120
127
148
149
173
160
146
100
116
125
126
134
151
165
186
171
160
108
119
136
146
141
169
193
207
179
172
130
139
155
155
161
174
191
204
183
169
111
149
152
163
171
180
200
207
176
163
115
145
142
136
150
159
189
191
152
138
91
119
118
117
145
148
178
166
136
113
74
109
113
117
134
139
169
159
135
107
71
104
102
108
129
133
169
162
115
106
77
103
102
106
123
140
157
151
128
95
72
111
108
117
128
133
167
160
146
92
66
111
115
115
137
145
163
162
140
107
84
108
112
124
141
143
164
157
133
98
84
100
112
124
136
143
170
154
136
99
87
110
123
126
129
135
167
151
137
92
85
111
116
117
134
143
168
148
137
91
90
110
122
128
136
153
174
150
127
79
88
111
110
122
131
154
162
143
135
86
107
109
122
125
144
151
171
155
137
86
98
114
124
143
141
160
168
143
124
78
111
125
127
149
148
164
175
148
125
82
124
126
119
137
153
175
178
151
119
81
114
117
127
149
149
186
175
134
115
93
122
128
139
144
148
188
172
144
115
82
117
115
132
147
149
190
178
152
121
98
135
138
140
154
161
194
191
165
129
112
142
140
136
148
153
198
177
159
125
100
126
123
137
148
141
181
169
141
100
94
124
117
122
139
138
171
153
141
93
91
115
123
125
134
149
160
148
145
94
93
91
98
110
120
138
156
123
109
72
77
73
89
100
122
148
193
190
197
188
239
269
287
322
342
357
373
329
292
214
210
210
177
157
150
158
165
140
124
60
84
98
93
112
122
149
153
127
106
62
99
96
120
140
137
162
163
136
112
71
101
116
122
132
132
161
165
138
117
78
113
110
115
128
137
159
161
137
114
73
101
116
114
135
139
170
172
138
105
73
108
113
116
135
139
175
160
148
120
68
120
105
123
150
161
190
171
147
109
82
123
122
136
152
138
183
183
160
113
100
132
132
142
162
173
204
187
166
120
117
149
152
166
175
177
213
202
175
133
135
160
158
168
189
197
228
205
184
146
155
174
166
172
174
181
212
185
173
128
142
145
143
160
171
179
184
155
147
102
121
126
137
144
155
164
172
153
145
88
107
116
122
142
144
176
175
146
127
83
110
121
124
129
142
150
170
143
122
77
107
121
124
127
137
171
163
143
118
82
107
115
113
134
133
163
159
132
117
78
102
115
129
136
141
157
163
139
105
81
106
115
115
129
150
174
167
131
89
78
116
112
119
138
139
172
166
134
99
79
116
112
112
131
144
182
159
133
102
89
119
118
123
138
135
167
160
155
101
82
109
106
116
134
135
174
156
133
95
78
116
119
116
133
137
166
141
127
98
92
108
114
114
134
146
165
147
127
83
91
120
109
122
128
137
165
142
128
74
95
107
113
113
136
169
160
138
124
81
102
118
123
119
134
153
156
134
126
79
102
109
114
114
141
161
166
139
124
74
98
112
111
135
134
161
161
131
108
76
109
116
126
148
135
166
161
139
115
91
115
121
120
143
143
176
170
148
109
84
104
112
117
124
132
169
158
132
99
73
96
103
105
125
128
154
146
119
93
56
80
83
95
114
117
148
135
108
75
44
69
95
99
113
114
141
129
104
63
46
77
74
85
91
86
117
103
73
42
30
68
71
93
130
149
211
224
238
221
239
272
277
282
287
276
278
240
207
139
111
93
91
94
94
99
124
85
66
27
26
54
44
58
85
101
121
94
83
38
54
70
75
94
108
121
126
105
96
46
68
83
86
95
100
122
126
109
91
53
83
98
88
97
112
141
131
104
95
48
76
85
93
108
117
140
142
114
86
53
84
83
92
109
116
138
141
108
88
48
94
99
87
110
131
154
142
124
92
54
98
103
106
125
131
157
151
135
105
76
108
114
130
139
150
177
171
143
124
95
110
123
136
158
166
198
186
165
134
107
137
144
164
160
172
202
192
170
134
113
145
140
151
166
163
195
174
148
102
108
123
115
122
138
137
168
148
118
83
73
102
107
107
119
127
147
119
112
70
82
95
88
99
123
119
151
130
117
58
75
90
93
102
124
120
140
131
113
56
74
89
91
101
111
129
139
123
105
43
81
87
92
106
128
142
148
126
97
46
86
90
87
111
107
138
139
111
91
48
85
87
87
112
113
137
134
119
96
57
74
86
92
111
115
135
150
121
86
49
79
91
93
112
128
147
140
118
86
59
80
90
89
117
123
144
137
111
74
34
84
84
93
119
112
133
124
104
76
48
72
78
80
94
105
133
132
112
64
40
69
75
86
102
106
130
117
91
48
30
53
53
74
92
81
125
96
77
34
29
32
50
60
75
88
105
87
77
27
32
50
54
69
59
85
106
85
82
26
38
57
63
62
73
98
99
81
81
22
46
55
66
76
102
109
123
109
89
42
62
70
81
79
101
117
118
96
83
31
63
71
76
89
94
116
119
90
70
27
49
57
60
71
79
112
102
72
45
10
39
48
49
71
72
100
92
67
48
-3
40
41
42
73
70
95
98
75
38
-13
27
41
38
52
48
79
77
48
14
-13
35
65
97
127
162
222
240
239
229
199
236
234
231
232
219
228
192
147
96
40
59
59
57
64
66
89
74
55
31
7
26
41
54
80
75
101
89
71
40
33
52
62
67
78
87
109
97
70
41
27
45
57
54
91
97
122
87
82
36
40
63
69
78
85
95
120
96
88
45
52
66
72
70
99
111
128
105
85
37
69
75
79
93
102
116
127
100
96
46
68
80
84
99
117
127
134
107
96
48
80
76
89
109
110
134
142
115
102
55
82
102
99
118
128
144
146
133
111
57
86
103
125
130
124
159
155
139
106
66
99
101
113
132
138
162
149
125
96
64
88
98
97
112
117
146
147
102
84
47
68
78
81
92
104
141
119
90
76
30
68
63
69
90
93
123
112
91
47
33
46
56
64
81
70
122
107
68
36
15
43
49
55
73
69
99
88
69
28
22
48
44
55
64
81
107
80
61
27
28
44
36
53
65
78
110
83
56
26
23
45
47
53
70
74
98
69
64
20
26
42
51
56
77
91
97
79
66
13
22
46
51
61
66
88
98
75
61
15
43
58
49
68
70
106
102
77
58
12
42
44
51
82
80
102
106
76
59
19
47
58
63
80
75
102
103
78
53
17
38
60
64
83
89
120
119
86
52
17
51
59
65
80
89
119
103
85
58
24
54
66
60
86
88
115
107
90
44
11
55
48
52
79
77
112
108
67
31
11
48
45
59
76
76
111
94
74
32
9
48
44
59
82
72
100
102
75
34
39
57
48
64
77
72
103
94
74
37
28
62
61
68
71
88
107
99
83
29
43
57
44
58
84
93
119
94
73
26
36
46
60
50
63
80
96
67
54
11
27
36
39
59
69
85
103
75
56
10
26
43
40
58
64
78
91
69
45
4
23
28
22
55
33
54
67
41
32
-4
28
42
73
131
157
201
231
227
223
195
214
212
199
201
186
190
163
120
68
6
16
23
27
35
27
55
47
18
-15
-38
-5
-2
16
19
29
76
65
45
15
-19
16
15
26
40
52
79
69
46
11
-18
19
28
49
45
38
76
69
49
13
-14
30
25
42
55
58
96
89
58
20
9
30
40
45
60
65
96
81
59
23
24
49
37
57
82
73
104
85
71
37
19
50
47
55
70
71
102
86
72
39
42
52
68
71
80
86
111
93
77
31
44
61
74
80
95
103
129
106
95
41
56
63
80
86
109
118
152
124
105
60
78
97
94
102
114
136
132
113
90
40
72
79
84
94
97
125
116
95
63
22
63
57
58
87
87
98
96
74
45
2
25
30
35
57
74
100
88
61
28
-15
37
35
42
57
65
87
81
53
21
-7
37
34
41
53
65
82
75
50
21
-23
26
35
45
50
55
81
72
48
18
-16
18
22
39
57
62
97
77
56
26
6
31
26
36
53
63
95
86
67
31
12
42
42
48
67
76
94
71
57
22
17
44
50
54
74
67
97
91
68
25
36
64
49
58
72
84
109
89
60
26
34
43
47
58
67
71
97
82
74
26
35
47
56
65
76
89
88
75
66
19
40
50
45
57
68
91
109
79
53
18
45
49
54
70
74
98
98
73
49
5
32
38
40
66
78
103
95
64
56
20
43
47
51
77
76
107
108
91
49
17
43
55
50
70
75
102
100
73
53
16
40
46
62
64
67
98
107
77
50
12
52
60
62
79
84
120
112
83
62
31
61
69
78
91
98
121
105
80
47
10
46
38
61
73
79
109
96
60
21
2
43
21
32
53
59
84
65
49
7
-7
14
15
8
29
49
85
59
40
-2
-3
9
12
34
53
49
76
48
31
-16
-21
6
6
9
15
27
46
21
18
-26
-4
34
64
105
153
191
225
229
236
197
215
213
217
208
196
190
185
135
81
6
8
20
21
23
43
62
61
32
4
-45
-9
-1
0
26
37
52
55
25
-1
-46
-15
-9
-1
19
26
50
58
30
-8
-36
-13
-15
-9
21
36
47
45
25
-8
-45
-9
-4
-12
11
18
53
44
22
-15
-49
-15
-3
-1
-3
24
50
36
11
-10
-50
-17
-12
-7
12
21
56
52
20
-18
-38
-19
-16
10
18
26
53
52
24
-12
-44
-5
-8
5
21
25
59
39
25
-16
-19
4
11
32
48
44
77
58
47
11
2
26
13
34
50
53
88
60
55
6
15
31
28
33
52
62
73
50
45
7
12
29
25
40
47
58
80
54
38
-13
-13
0
14
17
35
40
50
31
15
-41
-23
-8
10
20
29
55
61
44
29
-29
-1
1
8
16
33
46
37
37
24
-24
9
22
23
35
49
71
68
49
24
-28
0
20
23
37
51
65
59
41
21
-28
14
17
21
43
40
58
67
42
25
-11
22
28
33
52
58
80
72
51
26
-3
27
31
33
47
68
90
74
60
30
-1
36
43
33
59
58
81
76
57
16
-9
22
22
33
44
47
76
62
33
4
-27
13
8
20
41
48
73
62
48
3
-5
28
29
34
54
56
88
72
43
-7
23
34
31
41
46
57
91
71
43
10
4
32
35
37
53
66
86
64
51
7
19
29
15
30
58
63
86
54
42
-13
-3
11
16
23
51
72
80
67
54
-3
16
26
27
30
51
66
80
53
40
-25
8
24
39
35
40
68
75
44
27
-14
22
33
31
48
63
80
86
66
40
5
37
40
42
60
64
90
85
66
26
-5
19
28
41
63
71
102
84
61
31
-7
31
31
39
38
50
79
68
46
20
-18
16
16
31
47
55
100
83
52
23
-8
22
29
41
52
60
94
73
48
16
-12
22
16
12
33
35
71
47
19
-26
-32
10
19
48
94
123
176
193
212
197
207
247
244
252
264
244
251
210
161
92
61
54
38
51
58
56
73
42
22
-24
-17
8
16
16
50
58
88
60
38
8
13
25
28
42
54
65
89
62
44
-7
8
24
29
36
43
59
85
62
54
2
28
29
28
48
66
81
94
65
45
-1
22
27
34
52
57
76
78
60
35
-6
32
29
29
54
68
87
80
60
31
0
29
40
36
56
59
98
92
69
40
8
41
43
50
64
68
105
92
70
47
5
37
48
62
76
78
111
109
80
49
23
52
55
66
84
93
110
102
74
52
34
56
65
72
76
87
114
108
83
51
17
49
54
72
81
83
109
93
67
38
22
43
38
45
61
57
89
75
45
5
0
24
20
35
44
38
78
55
38
-8
-9
3
15
14
25
34
69
52
42
-12
-1
14
19
17
36
58
73
49
40
-6
7
15
13
32
40
51
80
46
38
-17
1
13
8
24
40
60
66
48
24
-37
-6
3
8
21
29
60
65
47
23
-25
2
11
22
36
33
67
68
44
19
-20
9
17
29
41
42
75
65
42
14
-26
11
15
14
36
34
62
52
26
-5
-35
-7
4
6
11
27
59
50
26
3
-29
-2
11
19
30
35
47
58
32
2
-30
2
2
11
32
44
63
62
33
-8
-32
3
-4
17
27
38
78
60
36
-13
-33
6
1
10
36
36
67
52
20
-12
-22
-1
-18
1
29
28
57
38
28
-2
-27
1
5
15
36
30
69
41
27
-12
-4
11
2
18
34
36
61
39
23
-24
-19
3
3
14
33
47
64
32
20
-19
-14
-9
5
19
30
38
53
43
24
-18
-1
7
15
20
35
63
75
61
30
-13
19
27
32
49
65
81
75
56
38
-11
3
18
28
39
49
71
66
42
19
-20
11
21
16
20
38
64
58
32
0
-35
-2
4
0
26
27
56
53
30
-3
-42
-6
-8
0
17
8
49
40
13
-28
-56
-24
-21
-20
-9
-17
9
-1
-27
-66
-84
-36
-28
-3
40
59
125
155
156
142
140
177
177
185
193
183
178
134
109
42
-8
-5
-15
-3
11
10
28
8
-27
-57
-70
-45
-29
-34
-19
-12
24
3
-29
-58
-50
-41
-35
-26
-40
-20
18
3
-15
-62
-53
-44
-38
-34
-18
-8
18
-10
-16
-58
-46
-46
-31
-17
-5
6
24
0
-27
-67
-53
-46
-38
-32
-24
0
13
-12
-35
-82
-56
-51
-46
-32
-25
-5
11
-13
-34
-75
-47
-34
-35
-16
-16
12
20
-10
-20
-67
-49
-28
-18
9
7
40
46
18
-5
-51
-17
-4
1
20
23
54
42
24
-9
-43
5
0
6
18
30
52
55
38
12
-25
10
13
26
44
47
71
64
42
14
-34
-5
12
19
28
30
62
48
21
-15
-46
-5
-15
-1
19
30
50
33
15
-23
-49
-14
-29
-17
8
12
28
28
0
-42
-54
-11
-16
-19
-1
11
39
25
3
-33
-38
-25
-28
-13
4
8
17
22
12
-46
-50
-27
-28
-21
-5
10
38
10
-2
-37
-35
-19
-14
-7
11
17
37
23
-8
-46
-36
-15
-21
-2
13
28
38
23
5
-48
-24
-17
-11
2
16
38
45
12
2
-48
-11
-2
-6
9
12
36
46
10
-6
-51
-12
-14
-11
14
34
32
36
22
-18
-53
-11
-1
-2
12
9
31
33
10
-15
-49
-15
-13
-8
9
20
46
33
15
-22
-48
-22
-15
-4
15
15
42
33
9
-17
-49
-21
-8
12
20
17
47
41
14
-6
-49
-7
-4
-1
10
16
56
42
16
-19
-47
-13
-14
3
15
22
36
48
21
-22
-52
-8
-7
23
27
34
65
52
25
-23
-28
15
6
19
45
43
78
66
42
14
0
27
23
36
44
48
77
55
39
-2
3
19
15
24
42
58
77
40
42
-11
-13
12
6
14
31
45
53
35
24
-32
-14
-6
8
16
21
43
66
28
17
-28
-6
-8
7
12
29
48
60
34
6
-50
-18
-7
-13
-5
11
23
24
12
-16
-36
6
40
79
134
164
216
233
232
224
171
194
199
178
161
143
155
129
72
25
-35
-3
10
7
9
21
51
27
9
-20
-60
-10
3
1
15
30
64
58
36
0
-36
-4
11
4
26
31
62
50
28
8
-28
-1
9
18
36
46
76
64
37
1
-14
14
-2
21
37
40
65
60
28
-1
-24
15
20
28
38
38
66
63
47
1
-11
24
13
30
54
56
88
77
36
3
-8
9
17
34
48
49
73
58
44
2
14
23
35
37
57
65
82
68
64
23
25
36
45
60
68
83
108
87
68
29
48
46
60
75
91
112
123
97
85
31
59
62
67
96
104
124
127
95
81
34
59
65
74
85
90
104
99
73
47
4
29
42
40
52
51
82
79
48
18
-25
10
20
24
39
38
81
78
51
20
-26
16
21
28
47
44
67
69
44
14
-24
3
6
19
31
48
70
61
43
10
-39
-6
17
21
30
32
66
61
33
-5
-27
3
7
31
38
38
68
53
23
-5
-37
-2
4
16
23
36
71
53
31
-2
-11
-1
1
20
27
33
68
51
30
0
-10
10
7
21
32
39
65
49
28
-20
-11
6
7
16
44
41
61
41
19
-24
-9
11
13
14
33
46
69
38
26
-26
-6
18
12
16
29
45
45
26
8
-34
-6
-8
-3
19
25
49
51
28
17
-34
-15
-3
-4
19
25
52
60
25
19
-26
-5
22
19
31
27
67
65
39
17
-25
18
23
8
30
42
75
60
36
5
-23
4
19
21
21
46
74
58
31
12
-26
11
25
31
39
42
78
79
59
25
-21
24
39
39
60
51
87
71
51
27
-6
31
28
36
52
62
103
84
62
30
4
38
48
58
71
97
116
98
75
52
35
60
49
85
82
85
114
91
84
38
32
58
48
56
76
74
103
86
75
21
20
36
37
47
62
64
94
80
68
19
26
37
31
68
68
77
97
76
64
19
39
39
43
54
65
64
88
66
48
5
15
10
28
43
69
101
129
126
143
120
181
210
229
260
264
267
272
236
200
138
136
124
109
92
77
101
109
75
39
-7
22
24
31
53
59
73
78
57
45
11
44
48
40
77
77
114
97
74
47
2
43
53
51
77
89
111
105
82
62
31
53
57
63
83
90
123
119
87
53
33
62
57
69
86
97
111
114
91
54
21
57
62
69
89
81
120
113
83
44
38
69
69
76
102
99
132
118
102
61
46
81
86
97
105
106
144
125
101
65
60
82
67
81
108
110
149
124
112
70
78
93
83
95
121
134
159
143
135
85
87
116
113
129
149
153
175
156
152
109
108
120
122
132
148
156
172
146
124
79
88
100
103
107
127
131
141
106
96
37
61
80
80
90
119
124
128
106
79
30
62
69
83
94
98
122
126
104
79
44
74
74
81
102
110
132
126
111
81
38
85
99
88
114
112
146
142
115
90
56
82
88
103
113
125
162
144
125
92
55
94
103
109
127
139
171
165
133
99
72
94
99
119
149
151
177
153
139
109
72
110
114
131
139
142
172
165
134
103
78
98
114
135
151
148
170
158
136
105
78
116
113
120
136
146
170
162
146
99
90
113
121
128
135
143
170
146
132
98
92
113
115
125
143
147
176
153
136
100
101
118
119
133
145
162
193
163
137
101
113
123
122
135
154
178
180
154
141
101
118
122
131
148
163
175
180
172
155
94
115
132
138
151
158
181
185
167
152
106
129
139
142
173
176
194
203
172
157
124
147
153
156
176
179
206
213
182
152
113
140
155
162
177
173
209
191
169
148
110
141
148
154
186
166
204
197
175
143
96
125
145
147
164
170
203
188
162
128
96
136
136
149
163
165
200
189
155
125
103
130
129
146
159
162
190
175
132
108
98
129
137
161
200
226
279
304
312
294
304
325
314
331
322
308
316
294
250
184
150
149
133
143
154
158
169
146
132
79
91
108
107
129
146
156
176
154
148
104
104
116
120
130
144
156
178
152
146
92
112
130
131
152
164
172
183
154
152
106
120
137
139
151
166
188
194
165
150
91
118
147
146
155
168
191
197
172
133
102
144
143
156
170
167
202
201
174
148
124
145
146
146
172
177
202
201
173
151
114
148
159
164
176
177
214
200
187
153
125
165
162
158
194
212
236
229
205
173
137
175
187
202
215
217
255
240
216
179
158
190
192
203
220
237
256
247
222
190
159
192
196
206
212
209
248
234
205
161
141
184
184
185
208
210
244
223
198
164
138
172
179
186
192
198
235
222
205
155
158
173
176
191
209
209
229
217
208
179
171
173
191
199
210
225
249
224
204
162
177
181
200
212
215
227
249
218
196
142
159
177
178
186
192
207
220
197
173
135
146
158
151
157
167
184
197
175
146
116
147
146
152
170
167
191
188
179
152
115
133
144
145
164
172
196
190
164
139
104
130
133
121
173
174
191
187
167
134
104
135
129
127
152
157
177
172
162
133
84
111
117
123
129
146
170
161
140
103
74
108
113
116
133
135
178
157
126
96
69
108
115
113
124
125
162
151
129
96
63
100
109
114
127
134
167
147
124
85
72
105
99
102
132
122
155
143
128
76
77
106
102
99
122
116
151
142
120
72
78
95
91
105
119
123
148
129
123
75
85
105
107
108
126
135
152
129
116
80
86
102
91
120
132
152
165
144
123
86
108
119
117
117
134
155
175
153
137
77
106
124
134
142
155
172
182
156
141
88
121
133
142
149
153
177
174
156
141
93
111
122
125
160
154
166
173
141
121
82
104
103
125
143
136
160
160
130
112
67
99
101
111
139
144
165
155
137
106
63
98
113
121
116
114
150
150
129
92
55
86
94
111
128
154
217
227
231
233
229
281
306
324
315
316
329
289
257
203
153
160
134
121
123
127
148
130
87
43
22
65
68
73
95
96
117
121
96
62
51
72
83
91
94
101
120
114
107
64
57
84
84
96
114
118
147
121
99
67
60
84
81
98
111
120
133
111
100
49
69
83
90
102
104
125
140
116
99
57
79
83
87
96
121
132
145
126
106
64
70
98
93
107
123
136
140
109
95
51
78
91
104
116
122
166
150
122
109
69
109
125
121
142
146
171
168
145
122
85
113
131
141
148
153
180
175
162
118
78
117
121
126
143
155
172
175
163
127
78
121
126
127
140
150
178
171
137
104
69
112
117
125
137
132
169
158
126
94
64
97
98
109
126
122
153
148
123
74
55
81
76
85
98
84
126
117
91
52
52
70
78
79
89
93
125
98
92
51
53
77
79
89
96
101
138
110
91
60
65
79
81
94
110
107
141
115
95
52
58
72
63
83
98
104
118
109
94
50
59
66
80
86
102
123
138
106
94
46
62
71
76
93
106
120
130
109
85
33
67
79
78
86
95
124
135
90
77
41
53
68
72
89
83
108
105
94
68
30
50
58
62
80
76
106
114
80
34
27
53
57
63
87
80
94
93
71
51
11
44
56
60
70
76
103
98
72
35
17
52
56
64
74
89
105
98
80
45
28
53
55
69
76
89
111
107
81
43
23
55
52
67
79
73
97
94
63
39
4
41
39
44
73
76
97
86
61
29
13
31
33
53
65
68
99
72
48
16
3
26
31
52
66
76
102
87
62
32
25
35
45
53
71
78
108
83
84
50
49
65
76
92
101
113
138
111
97
48
52
66
71
76
93
121
119
96
81
37
51
54
59
65
81
85
91
66
52
-3
20
31
41
52
60
72
82
57
38
-13
21
24
40
59
50
61
74
57
33
-4
16
14
30
36
33
52
52
25
-1
-39
-4
7
32
70
102
176
201
208
217
204
245
245
237
267
254
242
207
176
124
67
67
54
45
74
65
95
78
46
16
-10
18
27
32
41
59
81
75
57
31
3
37
31
47
65
62
103
85
58
19
-5
44
39
47
58
71
111
88
46
22
24
41
42
62
73
73
112
99
71
36
23
43
50
60
89
86
114
97
69
30
36
48
48
58
80
85
108
92
74
32
42
56
59
72
91
103
111
86
76
40
45
59
69
68
87
103
125
102
95
45
57
73
76
94
103
126
140
117
100
56
72
88
96
92
104
128
145
112
98
63
86
85
100
121
131
140
149
120
83
48
86
92
97
112
117
146
145
126
83
44
73
89
93
87
106
125
121
87
70
23
57
63
79
89
94
122
119
92
49
16
58
68
72
89
104
126
112
93
66
43
75
74
79
105
115
141
134
92
70
57
85
88
91
109
122
151
150
122
83
66
79
94
105
118
119
149
143
130
78
61
96
94
109
120
128
159
140
117
78
76
103
103
115
135
133
159
139
118
81
84
101
111
120
129
136
162
138
133
82
91
113
116
120
139
138
173
150
135
87
105
123
130
125
138
155
186
145
128
79
103
124
122
130
141
159
168
140
131
85
112
114
120
131
149
156
180
154
127
81
111
111
117
137
147
165
167
142
126
83
105
115
118
137
141
168
159
151
123
65
115
120
129
144
142
165
168
138
119
74
112
113
119
148
147
168
174
150
120
89
115
103
121
145
133
182
175
142
113
85
114
117
122
151
148
173
165
144
107
89
119
117
121
141
147
177
164
141
117
93
124
112
138
156
154
190
166
150
119
97
134
122
144
163
161
190
185
171
126
123
143
138
157
162
168
210
186
167
119
111
137
143
133
163
168
188
174
153
100
112
121
125
133
151
149
174
147
135
92
112
122
113
122
139
137
156
140
126
79
95
109
118
123
129
147
169
145
119
67
93
95
101
109
127
139
129
108
95
54
90
120
151
195
230
294
330
317
313
281
313
298
302
311
293
295
273
221
166
92
113
118
122
128
119
141
132
101
76
55
74
95
99
117
124
149
148
125
92
65
95
101
114
124
130
153
152
123
97
58
106
112
112
136
132
161
149
126
92
65
107
106
119
143
135
167
150
115
99
86
112
117
130
142
147
178
161
147
112
89
113
112
134
151
149
189
175
139
106
98
117
118
140
158
153
185
179
168
114
112
138
148
147
162
172
191
177
164
112
132
147
150
165
177
189
208
188
173
115
128
157
165
162
176
192
217
185
181
130
139
157
161
167
187
196
194
187
173
120
140
152
138
168
172
181
189
170
152
98
121
133
140
151
140
171
169
143
119
81
100
111
120
133
134
161
168
142
106
67
104
111
106
122
128
158
151
125
106
66
91
111
108
125
126
163
160
126
96
65
97
108
107
125
121
161
148
125
88
67
98
107
108
115
135
153
150
121
91
56
91
97
107
120
119
138
150
120
80
62
91
90
103
115
116
139
133
120
76
59
75
84
98
114
114
135
112
106
61
54
76
80
93
103
96
135
114
91
39
41
70
64
68
86
98
117
91
78
26
36
71
42
62
85
98
110
82
69
28
36
55
52
58
71
92
99
81
64
10
39
50
50
47
85
92
91
62
54
6
33
45
51
59
82
94
90
75
55
2
28
40
46
57
61
63
89
62
54
10
25
49
50
58
56
80
101
66
37
-5
31
39
46
60
65
88
90
65
15
-4
27
31
53
61
50
82
77
64
36
-3
28
38
40
51
58
91
82
48
19
-3
33
44
53
63
63
99
78
61
33
8
35
32
44
62
55
92
84
44
28
9
31
40
54
63
74
101
72
56
17
-2
28
37
42
59
57
79
62
63
12
8
26
25
27
49
45
71
49
26
-7
-13
4
12
8
35
37
60
33
10
-23
-7
4
2
0
18
31
62
27
19
-33
-17
-8
-5
-6
12
13
27
0
-17
-54
-31
-4
15
53
87
136
171
180
192
161
206
207
215
218
207
205
180
133
81
5
14
-2
0
23
23
33
25
-8
-40
-73
-40
-31
-22
3
2
25
21
13
-23
-51
-25
-10
-16
3
4
27
37
10
-17
-57
-28
-7
3
15
5
43
35
15
-25
-45
-13
-16
-2
8
17
56
40
8
-16
-50
-11
-9
-5
12
19
54
48
23
-14
-33
-6
-2
8
11
28
61
52
33
-18
-25
5
1
15
21
32
70
49
18
-20
-23
8
-4
8
19
30
67
32
22
-13
-21
-5
-7
13
39
37
74
46
31
-6
-3
15
9
28
48
50
76
56
45
-7
4
22
25
31
43
68
88
69
34
-12
7
14
24
24
53
61
71
40
30
-20
-4
1
6
7
26
48
53
25
3
-53
-28
-9
0
12
22
25
35
10
5
-55
-17
-9
0
16
14
32
33
12
-7
-50
-23
-10
-9
12
17
39
37
16
-5
-43
-15
-7
-9
12
15
40
42
28
-10
-41
-12
-3
2
23
31
64
47
28
6
-25
-7
1
16
35
42
62
59
28
-1
-33
-4
-2
15
31
33
59
44
22
-13
-43
-8
1
5
30
18
55
33
15
-19
-44
-12
-16
9
13
18
54
30
12
-27
-36
-15
-26
-8
7
7
37
27
14
-45
-45
-31
-29
-10
10
8
41
19
3
-30
-38
-24
-18
-13
0
16
38
14
3
-41
-33
-22
-19
-5
3
-1
25
6
0
-39
-34
-31
-23
-16
6
16
21
3
-6
-55
-35
-24
-28
-14
-4
11
22
0
-16
-62
-56
-35
-18
-9
-4
20
12
-6
-18
-62
-40
-36
-21
-3
6
20
17
6
-14
-69
-39
-28
-29
-19
-12
18
25
-9
-44
-71
-32
-34
-32
-20
-12
15
5
-15
-36
-69
-44
-49
-39
-27
-3
15
13
-12
-46
-79
-44
-31
-33
-16
3
22
11
-3
-47
-79
-46
-40
-18
-8
-18
17
11
-21
-62
-83
-51
-49
-47
-28
-24
13
0
-27
-65
-91
-62
-63
-60
-43
-29
-14
-33
-40
-90
-104
-78
-67
-61
-46
-38
-22
-43
-59
-104
-105
-80
-89
-78
-60
-52
-24
-45
-63
-112
-104
-93
-107
-97
-80
-78
-51
-69
-73
-113
-68
-37
-10
34
90
122
165
153
133
81
93
83
62
49
50
38
27
-20
-55
-129
-96
-91
-93
-90
-84
-72
-64
-107
-106
-135
-108
-107
-104
-87
-72
-52
-43
-61
-96
-140
-100
-96
-105
-90
-80
-53
-47
-76
-102
-133
-106
-101
-97
-75
-73
-52
-56
-78
-102
-143
-107
-98
-98
-77
-72
-48
-60
-80
-92
-124
-107
-102
-100
-91
-80
-43
-50
-88
-105
-133
-107
-103
-96
-81
-73
-38
-49
-71
-99
-133
-99
-92
-87
-73
-73
-47
-43
-73
-97
-124
-99
-104
-85
-68
-68
-22
-42
-66
-90
-117
-92
-81
-74
-53
-53
-32
-34
-51
-87
-101
-70
-67
-58
-34
-51
-9
-21
-34
-83
-89
-70
-70
-52
-39
-26
-3
-24
-43
-94
-93
-77
-78
-64
-52
-43
-20
-50
-72
-119
-105
-96
-94
-94
-72
-75
-42
-67
-75
-131
-111
-105
-97
-110
-89
-75
-60
-73
-75
-140
-119
-103
-114
-101
-79
-70
-68
-101
-108
-157
-133
-125
-114
-97
-87
-73
-62
-88
-98
-150
-127
-116
-108
-96
-96
-67
-70
-94
-121
-165
-133
-125
-112
-95
-95
-76
-70
-97
-127
-160
-118
-112
-125
-85
-93
-55
-70
-103
-131
-155
-124
-125
-111
-90
-95
-62
-62
-93
-121
-150
-122
-121
-118
-95
-91
-51
-68
-100
-131
-147
-115
-127
-121
-104
-88
-55
-72
-103
-137
-159
-122
-116
-107
-92
-90
-63
-76
-103
-141
-163
-126
-124
-118
-99
-96
-63
-81
-97
-136
-152
-124
-122
-110
-99
-94
-68
-82
-95
-139
-143
-129
-128
-114
-91
-100
-74
-81
-98
-149
-137
-124
-134
-116
-99
-106
-80
-99
-104
-161
-138
-132
-135
-127
-114
-94
-77
-87
-116
-155
-139
-132
-135
-118
-109
-97
-69
-94
-113
-168
-151
-129
-125
-122
-108
-99
-86
-104
-121
-168
-147
-135
-127
-109
-104
-85
-70
-110
-131
-164
-137
-128
-116
-90
-86
-68
-74
-93
-106
-152
-131
-119
-122
-88
-96
-70
-76
-96
-116
-159
-127
-118
-112
-108
-99
-69
-71
-111
-135
-169
-144
-136
-135
-101
-114
-71
-86
-117
-140
-170
-133
-141
-127
-111
-113
-77
-86
-108
-141
-177
-150
-142
-131
-113
-111
-80
-103
-122
-154
-188
-160
-168
-156
-141
-128
-80
-79
-79
-104
-95
-32
-7
36
72
97
122
96
72
21
-14
-8
-29
-52
-38
-61
-60
-83
-96
-150
-162
-149
-149
-143
-126
-132
-87
-98
-105
-150
-163
-133
-137
-125
-114
-85
-60
-90
-102
-153
-149
-127
-123
-101
-90
-91
-59
-88
-100
-151
-134
-121
-138
-101
-92
-76
-64
-81
-95
-148
-129
-118
-106
-104
-98
-74
-65
-87
-109
-149
-132
-126
-116
-106
-85
-63
-58
-85
-109
-148
-119
-112
-111
-102
-89
-72
-66
-74
-106
-147
-120
-107
-106
-87
-90
-63
-62
-86
-108
-152
-109
-112
-87
-77
-76
-44
-37
-64
-93
-128
-90
-86
-80
-67
-57
-28
-30
-49
-96
-118
-86
-88
-71
-54
-53
-21
-35
-63
-88
-112
-83
-66
-75
-55
-50
-31
-44
-65
-98
-129
-101
-103
-97
-82
-80
-49
-63
-88
-125
-150
-124
-132
-121
-112
-99
-72
-80
-110
-152
-161
-142
-147
-133
-105
-118
-91
-103
-108
-173
-170
-142
-150
-136
-129
-114
-86
-104
-119
-171
-174
-149
-149
-136
-116
-115
-99
-123
-139
-173
-168
-159
-156
-146
-141
-131
-99
-116
-140
-190
-171
-166
-157
-140
-127
-110
-97
-121
-140
-189
-174
-157
-147
-140
-133
-117
-98
-131
-148
-189
-175
-149
-152
-146
-129
-110
-108
-119
-138
-193
-173
-157
-157
-136
-139
-109
-103
-132
-148
-192
-167
-154
-151
-134
-124
-98
-101
-142
-163
-180
-155
-153
-153
-115
-127
-111
-111
-126
-154
-195
-159
-157
-164
-137
-124
-98
-105
-134
-173
-206
-171
-170
-164
-152
-138
-116
-119
-145
-174
-198
-174
-176
-166
-145
-146
-113
-124
-148
-181
-209
-179
-170
-159
-152
-151
-110
-124
-155
-185
-196
-171
-179
-167
-166
-144
-112
-127
-143
-183
-205
-190
-181
-162
-142
-146
-119
-133
-152
-189
-194
-172
-173
-163
-150
-140
-111
-140
-142
-184
-193
-174
-169
-151
-137
-133
-114
-137
-153
-197
-195
-165
-168
-156
-147
-139
-106
-134
-132
-181
-176
-169
-159
-153
-131
-123
-119
-131
-158
-207
-176
-173
-169
-153
-149
-130
-126
-156
-174
-221
-196
-193
-174
-170
-166
-146
-143
-166
-190
-229
-202
-196
-193
-174
-172
-152
-151
-171
-194
-233
-203
-192
-199
-177
-180
-148
-139
-164
-193
-251
-220
-208
-208
-190
-191
-153
-148
-175
-180
-184
-133
-110
-66
-21
12
47
45
14
-22
-62
-33
-43
-61
-72
-103
-91
-124
-163
-209
-228
-191
-211
-209
-196
-190
-157
-158
-182
-220
-247
-206
-200
-180
-180
-166
-128
-146
-172
-210
-232
-200
-199
-194
-177
-163
-134
-164
-176
-224
-224
-182
-197
-182
-167
-154
-127
-146
-162
-210
-206
-191
-184
-184
-165
-151
-115
-143
-167
-208
-211
-185
-185
-173
-160
-147
-131
-145
-161
-211
-201
-177
-176
-167
-147
-133
-112
-139
-159
-210
-189
-168
-161
-161
-144
-127
-106
-129
-146
-196
-176
-171
-165
-153
-128
-121
-96
-113
-140
-190
-148
-145
-142
-125
-123
-91
-85
-109
-133
-179
-151
-144
-137
-106
-90
-79
-85
-109
-121
-166
-131
-125
-124
-106
-93
-89
-74
-99
-136
-177
-147
-146
-134
-124
-122
-100
-100
-126
-153
-193
-161
-157
-151
-140
-137
-104
-113
-140
-184
-202
-176
-173
-174
-153
-144
-112
-119
-147
-183
-205
-178
-189
-169
-157
-154
-114
-125
-151
-180
-211
-185
-180
-156
-140
-152
-122
-128
-152
-186
-208
-174
-181
-170
-153
-152
-123
-131
-158
-198
-194
-167
-184
-173
-143
-136
-118
-134
-151
-190
-196
-173
-178
-165
-146
-147
-113
-124
-150
-198
-193
-176
-176
-166
-145
-151
-108
-132
-153
-204
-190
-174
-170
-168
-152
-140
-124
-139
-159
-210
-192
-172
-167
-164
-169
-139
-122
-150
-174
-207
-177
-184
-170
-165
-152
-127
-124
-152
-152
-214
-195
-178
-176
-166
-160
-133
-131
-166
-168
-206
-185
-178
-175
-162
-146
-133
-143
-156
-174
-218
-187
-180
-183
-164
-151
-118
-130
-156
-176
-217
-187
-182
-178
-155
-156
-130
-128
-158
-180
-220
-186
-173
-173
-156
-148
-121
