-163
-159
-166
-171
-167
-163
-166
-165
-166
-154
-156
-161
-172
-172
-176
-173
-167
-166
-164
-166
-164
-164
-163
-168
-165
-157
-166
-172
-165
-169
-166
-167
-172
-177
-160
-166
-172
-169
-165
-167
-164
-167
-168
-171
-168
-170
-170
-166
-161
-166
-168
-165
-172
-171
-159
-156
-172
-169
-170
-171
-175
-168
-170
-165
-161
-164
-178
-174
-162
-170
-177
-167
-171
-165
-169
-166
-172
-166
-165
-163
-169
-167
-173
-175
-177
-168
-166
-164
-169
-168
-174
-173
-166
-157
-162
-156
-171
-177
-163
-168
-174
-166
-176
-165
-158
-171
-163
-162
-174
-170
-165
-165
-167
-168
-162
-162
-162
-168
-175
-171
-168
-161
-170
-168
-167
-172
-172
-166
-168
-174
-170
-175
-163
-151
-163
-163
-166
-169
-170
-171
-166
-169
-164
-166
-164
-175
-168
-165
-159
-162
-174
-166
-164
-169
-172
-171
-170
-166
-162
-166
-171
-180
-170
-160
-164
-167
-162
-165
-162
-158
-153
-175
-177
-176
-169
-160
-160
-173
-171
-165
-170
-174
-165
-165
-168
-167
-159
-160
-169
-172
-162
-176
-171
-167
-166
-163
-156
-173
-170
-166
-172
-166
-163
-172
-165
-167
-165
-164
-169
-167
-164
-168
-168
-172
-170
-175
-161
-158
-158
-159
-161
-174
-169
-167
-167
-175
-170
-169
-173
-169
-173
-166
-164
-159
-156
-165
-162
-166
-172
-167
-162
-170
-174
-164
-167
-172
-164
-164
-172
-176
-170
-164
-167
-168
-170
-161
-160
-170
-173
-163
-160
-152
-165
-169
-178
-171
-162
-160
-155
-158
-157
-158
-159
-166
-169
-154
-163
-157
-157
-159
-161
-168
-156
-157
-161
-168
-161
-173
-157
-153
-153
-161
-165
-157
-154
-148
-164
-163
-164
-164
-171
-169
-169
-171
-170
-167
-168
-172
-169
-169
-187
-181
-173
-165
-174
-164
-165
-165
-174
-174
-160
-160
-169
-172
-176
-179
-170
-189
-191
-198
-201
-207
-215
-212
-194
-166
-140
-117
-92
-68
-41
-19
13
37
68
114
147
163
166
158
141
101
61
2
-64
-116
-143
-164
-168
-172
-173
-163
-168
-179
-168
-168
-169
-167
-166
-158
-161
-160
-164
-166
-169
-161
-168
-165
-163
-171
-173
-164
-167
-164
-161
-165
-155
-155
-165
-174
-168
-163
-168
-168
-156
-152
-163
-161
-149
-158
-165
-166
-163
-162
-164
-159
-156
-157
-152
-147
-155
-161
-154
-149
-153
-143
-149
-149
-149
-145
-146
-144
-147
-146
-138
-132
-147
-146
-136
-141
-148
-142
-125
-123
-135
-134
-127
-120
-127
-127
-122
-126
-116
-117
-109
-106
-116
-110
-109
-110
-108
-97
-104
-99
-86
-84
-96
-88
-87
-92
-93
-93
-89
-89
-85
-83
-86
-90
-87
-87
-88
-101
-99
-93
-88
-106
-106
-105
-110
-111
-112
-130
-132
-134
-138
-135
-146
-146
-138
-146
-150
-151
-157
-154
-151
-159
-158
-158
-157
-170
-162
-161
-163
-160
-158
-162
-166
-157
-154
-168
-167
-164
-166
-162
-160
-172
-172
-174
-173
-166
-157
-167
-167
-167
-168
-162
-169
-167
-168
-170
-160
-166
-166
-165
-160
-172
-176
-166
-160
-166
-169
-169
-168
-168
-166
-174
-161
-156
-168
-166
-170
-177
-169
-168
-164
-163
-169
-167
-166
-168
-168
-169
-173
-171
-169
-165
-157
-155
-165
-172
-171
-171
-170
-162
-163
-167
-165
-170
-161
-173
-157
-156
-169
-166
-166
-166
-164
-158
-159
-158
-156
-173
-183
-176
-166
-169
-169
-164
-164
-173
-177
-171
-164
-161
-167
-167
-171
-169
-173
-165
-161
-158
-166
-170
-166
-168
-169
-168
-180
-168
-157
-174
-171
-164
-164
-161
-164
-164
-177
-181
-175
-164
-165
-164
-169
-167
-168
-165
-178
-175
-171
-167
-170
-166
-169
-166
-173
-169
-171
-174
-168
-167
-177
-164
-166
-168
-169
-168
-176
-172
-176
-165
-167
-172
-169
-170
-178
-174
-175
-168
-173
-165
-163
-173
-170
-176
-173
-170
-171
-170
-171
-174
-172
-169
-168
-175
-177
-171
-170
-161
-174
-171
-161
-165
-171
-174
-170
-168
-167
-161
-166
-169
-171
-166
-163
-171
-172
-170
-173
-174
-173
-175
-176
-171
-167
-164
-166
-172
-180
-178
-173
-175
-170
-170
-163
-165
-165
-173
-175
-167
-167
-171
-184
-168
-161
-170
-176
-171
-168
-169
-175
-173
-180
-171
-171
-168
-168
-179
-171
-171
-173
-174
-168
-164
-172
-173
-166
-169
-166
-175
-164
-169
-175
-168
-172
-175
-173
-180
-177
-172
-167
-170
-168
-170
-168
-169
-168
-172
-176
-166
-163
-169
-171
-167
-168
-171
-160
-168
-169
-163
-154
-171
-160
-154
-162
-167
-164
-174
-170
-157
-162
-166
-152
-155
-162
-170
-170
-170
-169
-171
-174
-168
-162
-160
-161
-157
-161
-176
-172
-160
-172
-165
-166
-171
-166
-169
-175
-185
-173
-173
-180
-175
-165
-171
-175
-176
-174
-180
-183
-182
-175
-179
-174
-173
-172
-170
-179
-183
-183
-184
-194
-199
-202
-212
-214
-211
-198
-184
-174
-140
-123
-111
-83
-55
-13
5
31
61
97
126
149
165
157
150
107
64
-6
-71
-123
-144
-166
-175
-178
-183
-180
-171
-173
-180
-174
-175
-170
-164
-167
-161
-166
-172
-175
-181
-174
-172
-176
-174
-176
-167
-170
-172
-175
-170
-174
-165
-170
-175
-166
-165
-175
-169
-169
-167
-168
-166
-169
-159
-163
-163
-164
-167
-166
-159
-157
-161
-167
-169
-164
-162
-160
-157
-158
-152
-151
-165
-159
-155
-153
-144
-153
-147
-150
-153
-152
-148
-148
-143
-141
-141
-144
-143
-140
-130
-139
-135
-138
-129
-122
-127
-120
-120
-125
-127
-118
-113
-108
-115
-113
-107
-104
-101
-103
-99
-96
-98
-96
-96
-91
-91
-81
-96
-95
-90
-90
-100
-96
-91
-90
-98
-101
-100
-104
-99
-98
-109
-113
-117
-128
-127
-114
-118
-130
-135
-135
-147
-141
-137
-149
-156
-149
-152
-157
-163
-164
-169
-157
-160
-159
-155
-158
-172
-167
-154
-169
-176
-171
-170
-171
-169
-165
-162
-160
-168
-166
-172
-165
-167
-173
-166
-162
-170
-167
-171
-167
-158
-163
-165
-168
-174
-168
-167
-173
-177
-170
-168
-153
-164
-169
-169
-165
-169
-166
-165
-170
-170
-164
-169
-171
-174
-162
-165
-173
-173
-176
-170
-166
-162
-163
-166
-162
-161
-180
-171
-172
-163
-156
-168
-168
-168
-164
-165
-168
-166
-173
-174
-166
-169
-167
-163
-164
-175
-164
-160
-167
-173
-175
-167
-155
-161
-174
-174
-167
-157
-169
-176
-171
-174
-175
-171
-166
-161
-167
-168
-172
-170
-176
-169
-171
-165
-168
-169
-163
-163
-163
-171
-165
-175
-170
-167
-162
-162
-168
-169
-173
-169
-162
-171
-169
-167
-173
-171
-175
-173
-171
-170
-168
-171
-165
-161
-166
-177
-174
-169
-181
-174
-162
-166
-170
-170
-164
-167
-170
-172
-172
-162
-164
-168
-172
-168
-173
-175
-176
-172
-174
-168
-163
-166
-176
-168
-170
-172
-162
-176
-172
-161
-169
-176
-172
-166
-172
-170
-171
-172
-169
-177
-173
-165
-166
-169
-178
-173
-164
-176
-169
-170
-176
-170
-170
-157
-171
-179
-167
-174
-175
-170
-169
-162
-166
-161
-164
-166
-178
-183
-179
-170
-166
-168
-170
-174
-171
-174
-172
-168
-166
-166
-174
-170
-170
-173
-179
-172
-169
-170
-165
-164
-165
-169
-165
-167
-173
-172
-175
-166
-166
-185
-176
-160
-166
-179
-181
-173
-168
-171
-174
-172
-166
-165
-168
-165
-171
-171
-177
-167
-166
-168
-170
-169
-164
-167
-176
-181
-179
-175
-166
-171
-179
-169
-168
-174
-171
-162
-165
-172
-168
-169
-170
-171
-169
-169
-173
-164
-173
-174
-172
-162
-168
-168
-162
-171
-173
-170
-164
-160
-156
-155
-163
-168
-155
-158
-157
-164
-161
-160
-163
-169
-165
-166
-163
-168
-172
-163
-172
-175
-160
-160
-158
-155
-159
-168
-167
-167
-170
-171
-164
-174
-168
-170
-175
-176
-181
-174
-170
-171
-168
-168
-176
-178
-173
-183
-184
-174
-170
-180
-180
-181
-177
-164
-173
-180
-184
-182
-189
-200
-205
-199
-202
-203
-199
-195
-179
-159
-138
-121
-92
-65
-35
-5
34
60
86
123
143
160
160
139
117
80
33
-41
-97
-128
-159
-165
-174
-174
-179
-167
-168
-179
-173
-175
-169
-168
-164
-167
-167
-168
-170
-177
-168
-164
-170
-169
-162
-165
-161
-166
-168
-168
-169
-162
-162
-169
-170
-172
-167
-157
-159
-166
-180
-169
-166
-157
-161
-169
-164
-160
-160
-163
-157
-155
-155
-158
-168
-152
-161
-156
-157
-155
-163
-154
-159
-152
-152
-154
-146
-143
-149
-151
-146
-144
-146
-138
-137
-138
-127
-133
-142
-143
-135
-122
-129
-130
-130
-125
-121
-117
-129
-121
-120
-117
-113
-106
-104
-105
-101
-105
-103
-104
-99
-99
-99
-88
-90
-85
-91
-86
-85
-92
-88
-94
-91
-89
-89
-92
-92
-98
-98
-96
-106
-113
-114
-111
-116
-117
-123
-128
-132
-137
-138
-141
-143
-145
-147
-149
-149
-153
-158
-158
-153
-166
-169
-171
-168
-159
-168
-165
-166
-166
-171
-175
-164
-161
-163
-163
-164
-163
-170
-172
-168
-170
-173
-170
-169
-168
-168
-170
-170
-166
-175
-177
-166
-162
-165
-175
-168
-171
-175
-169
-168
-173
-159
-169
-174
-166
-169
-174
-172
-172
-169
-169
-165
-162
-175
-175
-173
-175
-168
-176
-175
-165
-172
-165
-165
-157
-145
-173
-185
-178
-175
-171
-163
-169
-174
-174
-174
-174
-165
-166
-169
-171
-167
-170
-174
-171
-167
-176
-173
-176
-180
-169
-164
-170
-173
-168
-164
-176
-170
-172
-175
-164
-159
-168
-171
-168
-169
-181
-175
-173
-179
-163
-163
-166
-171
-168
-162
-172
-173
-167
-184
-183
-174
-170
-162
-167
-165
-177
-178
-168
-162
-168
-166
-177
-179
-170
-178
-172
-180
-176
-168
-169
-163
-162
-177
-176
-173
-179
-171
-168
-180
-180
-166
-166
-172
-175
-174
-176
-169
-168
-179
-176
-172
-171
-155
-153
-177
-178
-174
-168
-173
-180
-177
-171
-167
-165
-174
-177
-175
-172
-182
-170
-156
-175
-176
-167
-176
-172
-166
-174
-168
-166
-168
-170
-179
-164
-172
-175
-175
-166
-169
-175
-167
-171
-174
-170
-172
-170
-165
-171
-174
-166
-168
-169
-177
-180
-183
-179
-161
-164
-176
-161
-156
-164
-178
-173
-175
-178
-166
-169
-170
-166
-164
-176
-169
-166
-165
-165
-182
-184
-178
-165
-169
-174
-167
-166
-168
-175
-169
-176
-187
-172
-166
-170
-167
-167
-173
-167
-169
-174
-175
-160
-158
-168
-168
-162
-162
-167
-168
-168
-176
-160
-164
-166
-169
-175
-171
-162
-167
-169
-163
-165
-170
-157
-159
-165
-162
-163
-163
-165
-159
-155
-160
-159
-157
-153
-149
-143
-153
-163
-160
-147
-155
-166
-177
-167
-169
-156
-154
-156
-162
-154
-158
-154
-158
-155
-159
-154
-169
-167
-165
-166
-158
-169
-168
-173
-165
-166
-175
-181
-170
-172
-173
-165
-165
-169
-174
-166
-169
-180
-173
-157
-165
-172
-158
-165
-180
-191
-197
-197
-206
-197
-192
-200
-187
-165
-140
-119
-100
-77
-30
-9
18
43
71
101
128
145
166
162
147
111
67
1
-53
-114
-145
-151
-165
-164
-170
-183
-176
-167
-165
-166
-165
-157
-157
-161
-157
-171
-165
-163
-158
-170
-168
-166
-167
-169
-160
-160
-168
-162
-163
-163
-165
-169
-167
-165
-154
-162
-166
-156
-153
-153
-147
-161
-165
-165
-159
-162
-162
-156
-155
-156
-156
-149
-154
-155
-144
-147
-160
-153
-155
-154
-149
-150
-152
-144
-139
-137
-142
-134
-137
-140
-139
-145
-143
-138
-134
-135
-130
-126
-132
-130
-126
-127
-122
-118
-112
-112
-113
-106
-120
-112
-103
-105
-110
-100
-96
-97
-102
-98
-95
-89
-103
-101
-90
-69
-74
-79
-84
-81
-85
-90
-84
-81
-86
-84
-80
-91
-95
-90
-96
-100
-106
-110
-114
-112
-118
-112
-127
-132
-132
-124
-132
-147
-147
-141
-149
-149
-148
-149
-154
-156
-153
-166
-169
-158
-159
-157
-162
-158
-165
-162
-157
-162
-156
-161
-168
-165
-160
-155
-156
-162
-165
-169
-164
-163
-171
-169
-157
-150
-160
-170
-163
-166
-171
-158
-158
-163
-164
-167
-168
-165
-169
-166
-163
-154
-153
-163
-155
-157
-160
-173
-167
-163
-167
-162
-164
-158
-160
-163
-166
-166
-166
-166
-169
-161
-163
-157
-156
-165
-164
-159
-162
-163
-170
-164
-162
-162
-164
-158
-165
-167
-166
-167
-161
-155
-161
-157
-155
-156
-157
-161
-157
-156
-162
-157
-168
-162
-167
-159
-157
-159
-160
-168
-163
-154
-155
-159
-163
-168
-171
-166
-161
-169
-158
-155
-156
-152
-163
-169
-169
-165
-171
-174
-168
-166
-153
-155
-158
-167
-168
-166
-165
-171
-167
-165
-162
-169
-160
-162
-160
-167
-168
-168
-161
-157
-158
-166
-160
-159
-168
-172
-174
-168
-161
-163
-166
-155
-159
-172
-164
-159
-167
-168
-160
-167
-158
-154
-160
-168
-161
-163
-174
-174
-165
-163
-162
-161
-159
-164
-167
-157
-164
-168
-163
-154
-161
-171
-166
-166
-162
-163
-171
-174
-159
-151
-162
-159
-162
-167
-162
-160
-158
-157
-147
-148
-149
-143
-149
-155
-166
-167
-169
-156
-148
-150
-153
-154
-153
-156
-158
-154
-155
-158
-154
-165
-158
-140
-160
-164
-159
-157
-159
-172
-165
-168
-174
-169
-165
-171
-168
-166
-165
-163
-167
-166
-166
-167
-166
-173
-173
-165
-168
-164
-172
-166
-164
-175
-180
-191
-195
-201
-206
-206
-210
-191
-171
-141
-130
-100
-74
-49
-19
13
43
71
103
141
163
179
182
169
129
88
40
-35
-97
-122
-149
-157
-160
-169
-174
-166
-166
-175
-167
-165
-163
-150
-148
-146
-161
-168
-171
-168
-160
-152
-160
-163
-158
-169
-166
-162
-159
-161
-157
-157
-153
-160
-159
-159
-160
-152
-165
-166
-151
-146
-152
-151
-153
-152
-154
-151
-153
-159
-156
-138
-157
-161
-143
-147
-150
-143
-144
-150
-153
-146
-138
-148
-147
-143
-138
-145
-143
-138
-141
-135
-138
-134
-132
-138
-134
-126
-125
-133
-123
-121
-122
-127
-119
-114
-119
-116
-108
-105
-104
-95
-98
-97
-99
-100
-95
-87
-82
-94
-85
-76
-75
-77
-76
-78
-81
-79
-74
-77
-77
-74
-90
-87
-91
-88
-78
-87
-99
-102
-93
-106
-112
-113
-116
-123
-127
-128
-138
-130
-127
-131
-149
-147
-147
-156
-153
-154
-155
-156
-150
-150
-147
-147
-154
-165
-157
-162
-159
-155
-158
-159
-158
-159
-161
-165
-161
-163
-164
-160
-157
-164
-161
-161
-160
-164
-170
-162
-156
-168
-158
-166
-163
-163
-154
-159
-164
-165
-166
-162
-157
-168
-159
-156
-173
-168
-166
-160
-166
-162
-157
-152
-158
-164
-161
-162
-164
-168
-162
-158
-158
-165
-157
-158
-154
-164
-158
-165
-172
-154
-159
-158
-159
-154
-162
-159
-163
-160
-162
-162
-152
-161
-155
-162
-167
-160
-156
-161
-155
-161
-156
-161
-161
-157
-160
-156
-156
-169
-161
-164
-159
-163
-164
-171
-157
-151
-157
-165
-163
-152
-161
-161
-159
-156
-156
-154
-156
-159
-168
-158
-155
-165
-165
-160
-164
-164
-157
-160
-157
-157
-156
-156
-162
-159
-166
-158
-156
-155
-160
-153
-161
-160
-157
-154
-162
-158
-168
-161
-159
-158
-156
-156
-156
-158
-172
-164
-156
-162
-160
-151
-160
-153
-160
-158
-157
-150
-158
-158
-154
-149
-157
-161
-156
-152
-155
-155
-154
-163
-154
-157
-164
-161
-148
-150
-166
-156
-154
-154
-158
-159
-157
-146
-155
-155
-159
-147
-155
-167
-167
-165
-156
-157
-151
-158
-161
-155
-156
-153
-156
-151
-155
-156
-156
-161
-157
-157
-166
-159
-149
-141
-151
-151
-151
-153
-155
-157
-161
-163
-152
-155
-156
-150
-158
-153
-154
-151
-152
-153
-149
-150
-153
-159
-153
-155
-151
-161
-147
-156
-151
-151
-150
-155
-155
-153
-149
-153
-163
-151
-141
-141
-153
-157
-151
-153
-147
-155
-147
-156
-157
-156
-158
-154
-150
-145
-144
-146
-152
-153
-142
-140
-145
-147
-148
-150
-137
-147
-148
-141
-136
-145
-144
-135
-135
-142
-146
-150
-147
-132
-137
-136
-149
-154
-145
-156
-148
-140
-141
-148
-140
-143
-146
-137
-135
-146
-144
-145
-149
-151
-147
-157
-151
-151
-155
-154
-159
-155
-154
-155
-149
-151
-151
-141
-148
-156
-151
-152
-156
-149
-145
-144
-150
-140
-154
-166
-161
-167
-180
-185
-179
-187
-189
-178
-163
-139
-117
-95
-72
-48
-18
19
43
80
114
133
162
182
181
176
154
119
67
7
-59
-99
-121
-141
-160
-151
-152
-148
-148
-147
-153
-156
-146
-143
-142
-137
-149
-142
-138
-137
-141
-151
-152
-146
-146
-145
-142
-147
-155
-153
-149
-146
-143
-149
-142
-134
-141
-143
-142
-140
-150
-141
-138
-138
-141
-141
-141
-137
-137
-136
-151
-143
-132
-129
-136
-135
-139
-132
-130
-135
-135
-132
-134
-133
-131
-125
-122
-130
-119
-119
-120
-129
-126
-130
-125
-116
-114
-114
-115
-107
-101
-116
-118
-111
-103
-95
-100
-105
-101
-94
-99
-83
-76
-87
-79
-83
-86
-81
-74
-70
-70
-71
-73
-71
-73
-65
-65
-58
-61
-70
-68
-56
-58
-71
-71
-64
-67
-73
-72
-82
-82
-82
-87
-89
-87
-94
-94
-95
-98
-111
-120
-118
-124
-128
-126
-129
-128
-127
-125
-134
-136
-129
-132
-133
-137
-142
-135
-145
-140
-136
-146
-137
-144
-148
-141
-139
-133
-131
-134
-151
-143
-142
-131
-134
-136
-146
-145
-141
-143
-143
-143
-134
-131
-141
-139
-142
-146
-143
-137
-139
-141
-137
-140
-141
-141
-141
-142
-139
-136
-137
-140
-142
-139
-139
-138
-134
-128
-129
-137
-149
-153
-138
-145
-141
-130
-126
-133
-137
-141
-143
-145
-140
-148
-138
-140
-140
-137
-133
-138
-142
-139
-135
-147
-145
-134
-135
-138
-139
-133
-137
-136
-138
-146
-140
-139
-140
-141
-139
-134
-135
-144
-144
-146
-134
-122
-132
-147
-139
-142
-148
-141
-137
-142
-143
-139
-139
-146
-132
-127
-132
-141
-145
-148
-148
-148
-139
-125
-137
-141
-148
-148
-139
-144
-140
-124
-137
-137
-140
-146
-145
-147
-142
-149
-144
-130
-129
-147
-142
-146
-145
-149
-142
-136
-133
-143
-142
-145
-146
-145
-137
-141
-148
-145
-142
-141
-142
-138
-139
-145
-142
-143
-138
-147
-149
-141
-142
-139
-131
-145
-148
-144
-143
-147
-141
-136
-139
-141
-146
-140
-130
-144
-152
-144
-145
-142
-143
-143
-144
-140
-139
-137
-146
-141
-143
-143
-141
-146
-139
-149
-148
-144
-149
-147
-142
-138
-141
-137
-141
-154
-144
-142
-141
-143
-140
-141
-137
-135
-141
-157
-152
-147
-140
-141
-139
-147
-139
-138
-133
-139
-143
-148
-147
-146
-144
-143
-140
-138
-142
-147
-152
-147
-147
-146
-139
-142
-143
-142
-136
-145
-143
-143
-148
-142
-136
-145
-142
-143
-143
-140
-150
-141
-139
-142
-140
-143
-142
-135
-147
-144
-140
-149
-149
-147
-144
-142
-136
-132
-137
-130
-147
-148
-140
-142
-143
-148
-149
-142
-143
-144
-145
-145
-146
-135
-142
-139
-147
-135
-129
-138
-148
-153
-143
-134
-133
-144
-130
-127
-144
-142
-138
-139
-139
-125
-136
-135
-128
-129
-140
-135
-134
-134
-134
-132
-133
-136
-132
-130
-132
-127
-131
-130
-131
-131
-130
-136
-124
-127
-143
-129
-126
-122
-125
-130
-113
-120
-141
-133
-132
-131
-129
-131
-130
-127
-123
-121
-128
-125
-121
-123
-117
-124
-132
-125
-123
-129
-120
-119
-123
-121
-111
-120
-116
-115
-111
-112
-110
-115
-113
-123
-124
-123
-114
-115
-129
-124
-117
-125
-124
-111
-116
-111
-117
-115
-122
-122
-114
-118
-121
-124
-134
-125
-116
-115
-117
-115
-125
-136
-127
-132
-131
-131
-124
-125
-127
-129
-131
-127
-124
-120
-125
-138
-125
-115
-123
-135
-125
-122
-142
-149
-143
-157
-161
-167
-169
-162
-145
-125
-101
-75
-67
-49
-8
22
59
76
101
136
180
203
217
211
202
156
126
84
12
-48
-89
-112
-124
-125
-136
-130
-121
-123
-126
-108
-117
-119
-129
-120
-117
-124
-125
-119
-113
-119
-121
-120
-121
-119
-110
-117
-124
-130
-123
-122
-118
-118
-108
-127
-127
-117
-118
-119
-117
-110
-119
-112
-117
-124
-114
-118
-117
-116
-114
-114
-105
-105
-116
-110
-111
-109
-105
-105
-115
-109
-104
-108
-112
-104
-100
-107
-100
-84
-84
-100
-109
-101
-103
-96
-90
-86
-85
-94
-90
-93
-86
-81
-85
-83
-78
-76
-68
-67
-62
-70
-70
-69
-68
-61
-56
-56
-57
-58
-58
-55
-43
-50
-56
-44
-46
-38
-38
-37
-45
-42
-55
-53
-46
-40
-37
-47
-58
-55
-53
-56
-57
-57
-70
-63
-73
-77
-86
-84
-81
-81
-85
-102
-110
-100
-105
-104
-104
-113
-115
-112
-111
-116
-119
-106
-120
-113
-109
-117
-118
-124
-126
-121
-118
-121
-125
-126
-124
-117
-127
-129
-126
-122
-125
-114
-118
-126
-126
-122
-123
-134
-130
-128
-125
-119
-119
-123
-123
-124
-121
-121
-125
-130
-120
-126
-123
-123
-123
-123
-130
-116
-124
-133
-130
-126
-122
-125
-124
-120
-127
-124
-125
-122
-125
-128
-125
-116
-118
-125
-131
-128
-129
-131
-120
-123
-126
-128
-122
-122
-121
-118
-130
-129
-126
-128
-127
-127
-123
-127
-120
-123
-123
-128
-125
-122
-124
-119
-125
-128
-125
-123
-130
-131
-128
-120
-120
-123
-119
-127
-130
-132
-125
-135
-123
-125
-131
-127
-123
-133
-146
-132
-135
-138
-127
-126
-131
-135
-132
-129
-128
-126
-127
-136
-129
-131
-121
-135
-125
-134
-125
-121
-133
-132
-127
-132
-138
-133
-129
-130
-128
-130
-137
-129
-130
-125
-129
-130
-135
-142
-136
-132
-129
-133
-130
-130
-139
-135
-131
-127
-122
-128
-146
-139
-128
-131
-133
-135
-132
-132
-122
-125
-139
-126
-121
-134
-142
-128
-125
-137
-128
-130
-138
-148
-140
-135
-127
-122
-133
-137
-132
-137
-137
-129
-128
-138
-135
-131
-133
-141
-136
-130
-134
-133
-131
-128
-131
-126
-126
-131
-120
-117
-139
-134
-130
-138
-133
-131
-137
-141
-133
-124
-124
-128
-136
-137
-134
-127
-131
-128
-134
-134
-141
-131
-130
-134
-137
-131
-136
-132
-125
-127
-125
-140
-139
-133
-140
-126
-118
-123
-138
-131
-138
-127
-127
-135
-132
-131
-134
-133
-128
-124
-134
-138
-125
-126
-133
-136
-136
-134
-139
-140
-134
-126
-123
-133
-133
-137
-138
-129
-126
-135
-137
-132
-135
-127
-135
-136
-130
-134
-136
-133
-122
-125
-137
-130
-130
-141
-140
-134
-128
-128
-134
-132
-124
-133
-133
-132
-133
-128
-125
-134
-136
-134
-129
-128
-134
-131
-131
-128
-133
-130
-130
-134
-136
-129
-128
-131
-134
-130
-118
-124
-120
-122
-128
-129
-122
-119
-127
-123
-126
-132
-127
-115
-119
-123
-131
-131
-124
-125
-135
-132
-121
-112
-117
-122
-119
-125
-126
-130
-130
-127
-126
-135
-132
-131
-135
-138
-139
-129
-132
-134
-140
-136
-143
-140
-141
-147
-128
-132
-137
-137
-132
-129
-131
-136
-127
-120
-119
-140
-161
-158
-155
-162
-165
-166
-178
-178
-166
-146
-122
-98
-71
-59
-42
-12
23
51
79
119
143
168
189
202
198
169
138
86
24
-41
-81
-104
-118
-133
-136
-127
-121
-144
-142
-137
-134
-130
-124
-124
-121
-129
-132
-141
-133
-128
-137
-136
-127
-126
-127
-131
-134
-133
-131
-132
-134
-131
-127
-127
-125
-123
-129
-125
-121
-121
-127
-127
-120
-126
-115
-115
-120
-115
-113
-116
-126
-142
-134
-118
-112
-113
-111
-114
-117
-111
-112
-123
-120
-115
-108
-116
-109
-113
-107
-106
-106
-104
-99
-100
-103
-92
-98
-103
-92
-94
-100
-87
-82
-89
-92
-87
-72
-85
-82
-77
-89
-82
-68
-70
-67
-61
-62
-56
-58
-53
-49
-50
-56
-47
-56
-52
-56
-58
-50
-46
-49
-42
-48
-44
-49
-38
-51
-52
-62
-60
-60
-66
-75
-76
-71
-79
-85
-90
-84
-101
-101
-98
-103
-101
-95
-101
-106
-120
-118
-117
-113
-115
-125
-121
-124
-124
-121
-122
-130
-135
-128
-118
-122
-118
-125
-130
-132
-128
-125
-139
-135
-125
-122
-126
-131
-115
-126
-127
-126
-131
-136
-126
-135
-127
-115
-121
-133
-122
-125
-128
-126
-130
-128
-125
-131
-127
-131
-130
-121
-116
-115
-127
-125
-130
-129
-126
-130
-130
-123
-128
-136
-128
-126
-120
-114
-128
-125
-116
-122
-133
-131
-125
-128
-130
-124
-117
-127
-127
-119
-131
-128
-122
-126
-128
-119
-117
-129
-119
-122
-126
-114
-119
-133
-125
-119
-127
-138
-128
-123
-132
-125
-125
-124
-116
-118
-123
-126
-127
-127
-124
-119
-120
-124
-122
-124
-132
-131
-130
-127
-138
-124
-128
-126
-122
-117
-118
-123
-131
-132
-127
-123
-122
-117
-127
-126
-122
-133
-129
-125
-127
-119
-137
-133
-126
-124
-126
-121
-125
-125
-121
-121
-128
-124
-122
-129
-135
-134
-121
-126
-116
-123
-132
-128
-127
-123
-126
-127
-125
-125
-126
-126
-132
-126
-120
-123
-128
-131
-128
-126
-125
-140
-135
-120
-117
-123
-130
-127
-127
-128
-123
-119
-112
-119
-123
-133
-124
-125
-127
-139
-132
-124
-123
-126
-127
-120
-121
-130
-126
-126
-125
-120
-124
-124
-120
-131
-131
-123
-126
-125
-120
-119
-132
-133
-126
-123
-124
-125
-125
-127
-124
-122
-122
-125
-116
-128
-124
-110
-129
-132
-124
-124
-126
-126
-126
-117
-115
-122
-126
-126
-122
-124
-125
-121
-117
-127
-127
-125
-123
-124
-118
-122
-122
-113
-121
-127
-124
-126
-126
-124
-116
-122
-127
-122
-115
-124
-116
-119
-123
-120
-120
-122
-130
-126
-120
-120
-122
-117
-124
-129
-122
-117
-119
-116
-112
-114
-120
-119
-122
-124
-112
-122
-120
-117
-110
-116
-116
-112
-114
-101
-106
-106
-114
-117
-112
-111
-106
-111
-113
-114
-111
-107
-111
-114
-124
-123
-119
-107
-107
-109
-104
-107
-101
-112
-122
-115
-111
-114
-115
-119
-116
-120
-121
-125
-121
-132
-121
-121
-122
-115
-116
-120
-111
-117
-127
-131
-120
-123
-129
-125
-128
-123
-111
-115
-123
-127
-137
-144
-156
-160
-155
-156
-148
-121
-101
-93
-68
-45
-23
20
48
71
94
130
164
194
206
220
205
189
150
102
33
-15
-72
-113
-115
-112
-127
-125
-119
-122
-121
-119
-117
-112
-113
-96
-115
-119
-116
-116
-114
-111
-118
-117
-114
-117
-123
-114
-103
-102
-119
-117
-119
-105
-116
-113
-115
-110
-115
-110
-107
-102
-107
-107
-111
-111
-109
-114
-109
-99
-108
-104
-108
-105
-101
-104
-106
-99
-101
-102
-98
-97
-97
-90
-93
-92
-99
-96
-95
-81
-92
-98
-98
-88
-82
-90
-73
-75
-70
-74
-78
-76
-82
-70
-68
-79
-64
-56
-53
-55
-54
-59
-58
-57
-52
-45
-42
-48
-34
-35
-30
-25
-44
-40
-30
-28
-32
-28
-32
-31
-18
-24
-23
-22
-23
-34
-38
-34
-32
-26
-30
-35
-40
-39
-44
-47
-48
-60
-59
-55
-59
-73
-76
-71
-66
-70
-84
-89
-94
-101
-96
-89
-97
-97
-98
-102
-95
-87
-88
-96
-99
-110
-94
-97
-100
-112
-104
-103
-103
-99
-104
-107
-110
-100
-102
-106
-97
-100
-103
-107
-99
-104
-100
-116
-114
-97
-100
-98
-92
-95
-102
-102
-101
-106
-101
-107
-109
-108
-100
-102
-105
-109
-97
-89
-109
-112
-103
-107
-91
-98
-100
-105
-100
-101
-110
-111
-105
-101
-101
-102
-95
-100
-97
-99
-92
-93
-103
-102
-103
-108
-114
-98
-92
-98
-104
-105
-100
-104
-99
-97
-97
-106
-102
-103
-103
-101
-98
-95
-91
-100
-108
-103
-94
-102
-109
-104
-98
-99
-96
-105
-92
-100
-97
-108
-112
-102
-93
-96
-99
-100
-110
-101
-103
-108
-105
-97
-100
-98
-99
-93
-105
-108
-109
-106
-103
-105
-94
-101
-105
-102
-104
-107
-106
-101
-98
-90
-86
-92
-108
-103
-109
-99
-98
-108
-104
-99
-101
-106
-100
-91
-104
-103
-102
-100
-103
-106
-106
-108
-105
-97
-108
-102
-87
-92
-103
-96
-105
-98
-108
-105
-101
-93
-89
-109
-104
-97
-97
-99
-106
-107
-104
-103
-100
-96
-103
-96
-99
-93
-100
-101
-104
-106
-99
-103
-96
-92
-101
-93
-97
-104
-108
-101
-98
-92
-97
-91
-93
-94
-90
-102
-106
-103
-100
-109
-103
-88
-101
-100
-91
-92
-101
-108
-99
-97
-92
-93
-98
-94
-86
-93
-96
-102
-105
-105
-98
-96
-97
-96
-92
-100
-104
-94
-100
-92
-93
-95
-98
-101
-99
-102
-102
-86
-97
-95
-96
-97
-100
-96
-92
-94
-92
-87
-101
-104
-98
-94
-96
-93
-91
-93
-98
-99
-97
-98
-97
-88
-92
-91
-93
-94
-97
-101
-98
-93
-87
-90
-99
-96
-95
-95
-97
-95
-85
-86
-79
-84
-95
-93
-84
-85
-94
-94
-89
-88
-77
-77
-84
-87
-81
-94
-93
-97
-101
-107
-85
-76
-75
-72
-82
-94
-89
-83
-89
-96
-96
-93
-88
-86
-91
-101
-91
-96
-101
-106
-104
-98
-99
-97
-91
-100
-95
-84
-96
-101
-100
-95
-105
-98
-96
-100
-101
-104
-111
-119
-115
-133
-132
-138
-138
-127
-98
-78
-56
-40
-12
17
43
74
93
109
156
192
212
229
238
229
205
170
127
57
-4
-49
-73
-79
-89
-97
-104
-92
-96
-98
-88
-99
-94
-85
-82
-83
-78
-71
-79
-90
-103
-95
-97
-95
-89
-86
-84
-94
-93
-95
-94
-90
-83
-86
-86
-85
-82
-86
-89
-92
-92
-90
-95
-88
-79
-76
-75
-78
-84
-87
-84
-85
-88
-78
-68
-75
-77
-90
-86
-75
-71
-73
-76
-72
-72
-71
-70
-62
-69
-66
-63
-62
-67
-58
-55
-67
-71
-63
-61
-56
-54
-53
-54
-54
-52
-40
-38
-35
-45
-38
-32
-37
-40
-29
-29
-35
-26
-25
-25
-19
-21
-9
-9
-8
-12
-11
-10
-2
-8
-10
-10
-9
-4
-3
-6
-9
-5
-1
-1
-17
-34
-34
-31
-32
-23
-21
-26
-53
-63
-51
-52
-58
-63
-70
-68
-65
-64
-75
-83
-76
-73
-79
-76
-77
-83
-85
-79
-84
-85
-79
-91
-100
-89
-86
-87
-90
-87
-88
-86
-84
-82
-85
-85
-81
-95
-89
-82
-87
-90
-95
-95
-92
-83
-88
-99
-92
-88
-84
-83
-88
-85
-90
-79
-89
-89
-87
-84
-91
-92
-87
-82
-91
-86
-91
-91
-87
-88
-89
-89
-95
-88
-83
-80
-78
-93
-98
-93
-90
-86
-85
-89
-88
-74
-84
-96
-93
-91
-82
-82
-84
-84
-92
-95
-86
-93
-94
-84
-86
-91
-92
-95
-95
-81
-79
-85
-83
-84
-100
-94
-90
-93
-83
-95
-92
-82
-85
-88
-84
-87
-90
-104
-101
-85
-91
-92
-94
-88
-86
-83
-80
-92
-97
-90
-89
-96
-88
-92
-89
-90
-95
-81
-88
-94
-86
-97
-101
-97
-94
-96
-93
-93
-93
-83
-86
-91
-87
-95
-95
-95
-90
-95
-87
-89
-93
-95
-90
-94
-95
-89
-90
-86
-94
-98
-96
-90
-94
-94
-98
-92
-83
-95
-94
-80
-90
-92
-96
-96
-96
-93
-91
-97
-87
-94
-93
-96
-96
-103
-88
-77
-83
-98
-102
-100
-98
-86
-90
-88
-91
-92
-97
-96
-90
-91
-93
-97
-96
-97
-95
-94
-99
-98
-86
-89
-89
-97
-95
-97
-88
-87
-95
-100
-85
-86
-90
-97
-84
-93
-89
-91
-105
-93
-92
-86
-85
-91
-90
-89
-88
-85
-78
-84
-88
-103
-104
-95
-89
-87
-89
-94
-99
-105
-101
-97
-97
-93
-90
-101
-98
-89
-86
-84
-85
-90
-84
-84
-89
-83
-80
-91
-87
-90
-91
-81
-86
-89
-79
-81
-88
-87
-89
-86
-82
-82
-81
-81
-79
-85
-84
-82
-87
-91
-83
-78
-69
-77
-74
-81
-72
-75
-81
-83
-96
-89
-83
-75
-81
-73
-68
-85
-94
-83
-76
-86
-83
-82
-98
-98
-94
-90
-91
-90
-83
-92
-89
-94
-96
-92
-100
-96
-82
-75
-79
-91
-90
-86
-85
-89
-100
-83
-89
-98
-108
-117
-121
-126
-131
-134
-127
-99
-85
-60
-28
-11
5
43
66
79
118
142
164
199
221
233
210
203
171
128
60
2
-40
-66
-93
-98
-93
-90
-96
-95
-100
-92
-99
-86
-87
-88
-82
-84
-89
-85
-81
-83
-86
-88
-92
-85
-87
-82
-85
-85
-87
-88
-83
-80
-87
-82
-73
-89
-90
-76
-83
-89
-77
-76
-87
-82
-78
-70
-79
-83
-83
-76
-81
-75
-73
-78
-79
-82
-70
-70
-76
-79
-72
-64
-62
-67
-71
-69
-58
-60
-69
-75
-67
-56
-37
-55
-54
-55
-57
-56
-49
-48
-41
-42
-44
-50
-33
-37
-44
-38
-34
-37
-26
-18
-22
-18
-16
-13
-19
-16
-5
-13
-9
-7
-8
-8
-2
-2
8
4
-2
9
2
-2
1
7
1
-15
-3
-6
-9
-18
-18
-14
-10
-12
-21
-33
-45
-47
-48
-38
-35
-41
-54
-55
-53
-68
-62
-73
-70
-67
-65
-71
-80
-70
-57
-66
-78
-84
-81
-79
-68
-66
-78
-78
-74
-74
-75
-82
-81
-80
-71
-70
-79
-80
-75
-80
-81
-72
-77
-76
-70
-80
-75
-72
-74
-88
-70
-75
-68
-82
-76
-75
-73
-76
-81
-88
-79
-71
-78
-75
-71
-88
-78
-44
-57
-81
-85
-86
-78
-71
-67
-71
-84
-74
-75
-76
-74
-76
-79
-72
-68
-69
-72
-70
-75
-72
-79
-77
-83
-79
-76
-69
-67
-65
-69
-74
-81
-80
-85
-70
-69
-79
-77
-67
-74
-79
-67
-70
-75
-70
-76
-71
-76
-71
-68
-81
-70
-69
-73
-68
-67
-91
-90
-77
-81
-75
-53
-60
-82
-73
-82
-81
-67
-65
-73
-81
-76
-72
-71
-75
-87
-78
-79
-74
-77
-71
-68
-77
-74
-74
-70
-81
-83
-82
-75
-77
-77
-99
-86
-64
-68
-73
-70
-79
-80
-82
-80
-79
-83
-72
-80
-81
-76
-71
-79
-62
-72
-80
-79
-71
-69
-61
-82
-82
-84
-82
-80
-82
-88
-86
-73
-74
-79
-81
-73
-72
-78
-82
-85
-81
-77
-67
-77
-79
-74
-70
-82
-87
-78
-63
-76
-85
-86
-88
-69
-62
-80
-81
-78
-76
-75
-74
-86
-84
-77
-81
-82
-79
-73
-73
-67
-67
-75
-90
-87
-77
-79
-83
-82
-76
-92
-74
-75
-81
-79
-72
-72
-87
-85
-80
-76
-71
-67
-70
-73
-71
-72
-67
-71
-77
-74
-69
-70
-65
-72
-67
-81
-75
-74
-71
-72
-77
-77
-78
-73
-78
-79
-82
-68
-57
-64
-65
-70
-69
-82
-77
-85
-80
-82
-78
-76
-79
-82
-88
-82
-74
-82
-78
-77
-81
-70
-72
-74
-89
-83
-84
-81
-81
-82
-81
-81
-91
-95
-103
-102
-116
-114
-110
-93
-83
-73
-53
-25
-16
6
35
71
98
118
121
149
181
208
206
190
167
130
98
27
-17
-50
-68
-91
-102
-101
-94
-96
-88
-82
-78
-100
-86
-77
-79
-77
-73
-77
-82
-70
-75
-68
-72
-79
-74
-73
-77
-77
-72
-69
-68
-78
-69
-72
-70
-68
-77
-81
-69
-65
-70
-72
-70
-71
-74
-69
-73
-68
-67
-65
-64
-71
-54
-49
-57
-57
-67
-72
-58
-52
-77
-70
-52
-39
-51
-56
-59
-63
-50
-48
-44
-47
-36
-47
-48
-44
-44
-42
-38
-23
-22
-41
-46
-44
-32
-37
-29
-17
-15
-18
-19
-24
-10
-8
-7
-16
-1
-4
-7
-1
8
10
8
12
12
6
3
8
18
14
6
14
23
1
5
15
15
3
-10
-9
-15
-11
-19
-19
-17
-19
-22
-42
-34
-37
-48
-46
-43
-56
-52
-53
-54
-61
-56
-63
-56
-67
-72
-74
-63
-61
-68
-69
-72
-89
-72
-65
-64
-73
-81
-69
-69
-69
-78
-79
-71
-71
-76
-77
-89
-80
-76
-79
-77
-67
-72
-75
-73
-74
-76
-72
-85
-85
-78
-75
-80
-74
-73
-69
-79
-82
-81
-76
-65
-71
-68
-79
-90
-81
-81
-76
-72
-62
-67
-76
-88
-81
-71
-70
-72
-79
-76
-72
-68
-73
-81
-73
-77
-73
-79
-76
-71
-77
-71
-70
-68
-71
-77
-75
-79
-87
-76
-74
-76
-75
-82
-79
-72
-77
-77
-86
-82
-70
-79
-81
-80
-74
-82
-80
-77
-76
-79
-77
-68
-63
-84
-91
-84
-76
-69
-76
-81
-76
-82
-83
-80
-81
-81
-77
-74
-87
-80
-83
-83
-84
-85
-85
-86
-72
-72
-71
-84
-75
-68
-78
-79
-87
-86
-78
-78
-81
-72
-68
-77
-78
-86
-92
-86
-75
-86
-89
-87
-86
-79
-78
-77
-81
-79
-79
-78
-83
-78
-76
-78
-77
-83
-74
-77
-76
-82
-77
-82
-88
-82
-78
-76
-81
-79
-80
-74
-89
-77
-75
-81
-82
-84
-81
-74
-83
-78
-78
-84
-86
-85
-82
-76
-73
-71
-78
-83
-92
-76
-73
-68
-69
-74
-77
-77
-75
-88
-83
-79
-76
-70
-59
-68
-81
-84
-68
-78
-77
-74
-74
-78
-85
-81
-76
-68
-75
-80
-77
-75
-66
-85
-80
-78
-82
-78
-77
-86
-89
-74
-80
-95
-87
-83
-85
-83
-86
-84
-89
-78
-87
-92
-88
-86
-87
-78
-82
-87
-92
-92
-89
-77
-81
-90
-107
-118
-113
-130
-125
-104
-84
-67
-49
-43
-15
8
42
60
90
112
136
159
176
191
194
193
168
121
78
28
-26
-57
-79
-95
-102
-83
-83
-100
-90
-86
-83
-81
-92
-90
-77
-79
-90
-94
-82
-77
-77
-85
-82
-85
-87
-83
-81
-82
-81
-79
-80
-80
-74
-84
-74
-79
-91
-88
-78
-79
-77
-72
-71
-90
-89
-82
-69
-75
-77
-79
-66
-59
-74
-87
-86
-80
-74
-73
-72
-70
-65
-76
-74
-61
-55
-65
-68
-64
-59
-68
-72
-67
-59
-65
-62
-53
-58
-60
-54
-49
-49
-49
-45
-43
-48
-44
-44
-41
-35
-30
-29
-35
-34
-31
-33
-26
-20
-20
-18
-18
-12
-13
-13
-11
-10
-8
-9
-3
-11
-10
-1
-15
-14
-10
-12
-3
-15
-28
-24
-22
-29
-37
-37
-43
-43
-47
-49
-43
-50
-57
-66
-73
-71
-70
-66
-61
-72
-85
-78
-80
-74
-77
-89
-97
-82
-80
-81
-89
-88
-95
-87
-83
-89
-98
-96
-85
-91
-95
-81
-76
-85
-90
-96
-102
-87
-94
-97
-92
-86
-95
-97
-96
-92
-81
-89
-88
-90
-88
-91
-86
-89
-86
-90
-94
-89
-96
-97
-90
-94
-89
-84
-89
-100
-87
-82
-80
-89
-90
-94
-104
-92
-93
-98
-98
-97
-87
-91
-92
-91
-89
-91
-91
-97
-91
-90
-95
-101
-92
-88
-87
-87
-96
-97
-91
-90
-96
-90
-90
-89
-94
-90
-90
-91
-91
-90
-92
-94
-95
-89
-90
-98
-84
-84
-95
-93
-93
-95
-85
-86
-83
-94
-93
-93
-91
-89
-81
-99
-96
-96
-97
-93
-98
-90
-87
-92
-94
-90
-95
-100
-98
-95
-93
-92
-93
-92
-98
-96
-90
-98
-92
-89
-87
-95
-94
-91
-87
-85
-93
-109
-101
-97
-93
-98
-99
-97
-95
-99
-86
-88
-92
-97
-100
-97
-93
-93
-94
-89
-94
-97
-97
-94
-91
-102
-104
-96
-93
-91
-93
-97
-93
-78
-101
-96
-92
-100
-98
-93
-90
-90
-92
-104
-97
-96
-92
-96
-100
-88
-90
-100
-95
-99
-95
-97
-94
-101
-97
-91
-83
-96
-91
-97
-106
-103
-95
-95
-101
-99
-92
-94
-92
-88
-91
-105
-106
-107
-97
-84
-94
-97
-97
-100
-100
-87
-98
-104
-94
-100
-101
-95
-88
-96
-103
-98
-99
-101
-103
-92
-99
-93
-86
-86
-89
-94
-90
-94
-93
-87
-95
-94
-88
-85
-93
-90
-87
-91
-80
-91
-94
-81
-82
-93
-91
-98
-100
-104
-94
-90
-94
-90
-84
-88
-97
-92
-83
-95
-88
-89
-96
-92
-97
-98
-103
-98
-103
-102
-100
-104
-105
-102
-90
-102
-110
-102
-103
-107
-97
-95
-99
-97
-107
-104
-105
-104
-97
-100
-103
-119
-122
-128
-136
-152
-148
-132
-127
-110
-80
-57
-45
-26
-8
19
47
73
99
111
151
178
184
192
193
166
134
89
25
-31
-58
-82
-93
-110
-101
-100
-100
-106
-119
-109
-105
-99
-95
-99
-100
-100
-102
-97
-101
-97
-99
-106
-106
-102
-100
-96
-97
-106
-103
-101
-91
-93
-90
-95
-98
-110
-106
-99
-106
-101
-79
-85
-93
-88
-102
-105
-105
-90
-95
-87
-87
-94
-90
-93
-92
-90
-92
-94
-93
-91
-87
-89
-86
-72
-79
-93
-90
-87
-91
-79
-80
-82
-78
-72
-75
-73
-69
-71
-80
-73
-67
-72
-71
-59
-61
-64
-60
-60
-57
-50
-46
-49
-41
-49
-46
-56
-48
-52
-50
-38
-35
-35
-41
-30
-25
-24
-22
-17
-34
-34
-29
-31
-30
-27
-40
-36
-36
-34
-39
-39
-41
-49
-56
-58
-64
-65
-60
-62
-78
-79
-80
-84
-85
-85
-91
-83
-81
-84
-95
-98
-100
-103
-101
-104
-111
-100
-95
-113
-111
-102
-104
-103
-106
-100
-106
-107
-106
-110
-117
-100
-101
-96
-107
-110
-112
-114
-114
-109
-115
-109
-107
-107
-108
-107
-112
-107
-106
-107
-107
-105
-107
-105
-96
-104
-116
-114
-117
-117
-110
-104
-109
-112
-105
-104
-105
-106
-106
-110
-101
-104
-117
-112
-107
-110
-107
-119
-119
-115
-104
-100
-104
-102
-105
-113
-110
-109
-114
-112
-109
-107
-109
-109
-105
-100
-114
-114
-113
-110
-112
-105
-107
-107
-105
-106
-118
-105
-107
-114
-114
-112
-116
-111
-104
-111
-109
-109
-113
-113
-103
-98
-107
-110
-119
-116
-113
-104
-105
-114
-107
-110
-114
-108
-110
-104
-112
-114
-112
-107
-100
-113
-121
-123
-116
-111
-121
-115
-116
-120
-108
-108
-109
-103
-111
-112
-112
-119
-119
-112
-116
-108
-108
-111
-108
-124
-119
-108
-112
-114
-110
-111
-112
-113
-110
-109
-103
-110
-112
-112
-104
-112
-111
-114
-121
-118
-102
-102
-102
-116
-116
-121
-117
-115
-113
-117
-112
-110
-107
-104
-111
-117
-117
-110
-113
-122
-115
-111
-117
-119
-107
-118
-109
-111
-103
-96
-112
-116
-117
-115
-106
-105
-114
-111
-111
-120
-108
-102
-109
-114
-114
-112
-122
-119
-110
-112
-109
-101
-111
-110
-107
-110
-123
-119
-114
-109
-108
-111
-119
-109
-103
-109
-109
-112
-111
-110
-114
-112
-111
-108
-99
-99
-104
-112
-114
-106
-108
-110
-106
-100
-105
-108
-101
-98
-102
-101
-101
-105
-105
-99
-97
-100
-111
-109
-106
-98
-94
-107
-110
-103
-100
-102
-102
-98
-104
-100
-97
-99
-108
-95
-96
-109
-103
-100
-98
-96
-101
-103
-105
-96
-97
-96
-97
-98
-99
-94
-100
-102
-104
-101
-95
-94
-105
-101
-95
-93
-91
-90
-88
-101
-107
-97
-105
-101
-101
-95
-94
-101
-105
-97
-99
-97
-95
-95
-99
-96
-87
-88
-100
-99
-105
-95
-94
-103
-103
-94
-93
-91
-90
-95
-91
-98
-101
-95
-95
-95
-100
-98
-86
-90
-92
-95
-89
-98
-101
-85
-96
-98
-97
-95
-98
-92
-86
-82
-88
-85
-94
-93
-79
-78
-82
-80
-83
-84
-78
-75
-73
-76
-80
-86
-86
-84
-72
-74
-71
-81
-88
-94
-83
-83
-91
-79
-82
-80
-82
-84
-77
-81
-77
-70
-70
-82
-82
-82
-77
-76
-87
-93
-93
-86
-89
-88
-76
-82
-88
-97
-98
-97
-83
-77
-82
-86
-85
-85
-86
-86
-87
-88
-89
-86
-89
-89
-94
-102
-102
-106
-119
-125
-130
-119
-117
-88
-70
-54
-46
-17
11
47
81
102
121
145
174
207
230
242
237
213
190
146
91
36
-16
-54
-62
-68
-73
-85
-79
-83
-79
-78
-80
-79
-73
-76
-75
-70
-70
-78
-82
-85
-84
-88
-94
-87
-88
-80
-87
-87
-84
-81
-90
-81
-84
-83
-88
-82
-82
-78
-80
-80
-77
-74
-79
-78
-78
-65
-73
-76
-74
-75
-77
-76
-76
-83
-79
-66
-72
-70
-66
-60
-64
-64
-66
-75
-66
-60
-61
-57
-65
-67
-64
-66
-64
-57
-62
-56
-48
-52
-47
-46
-49
-48
-52
-47
-53
-49
-29
-32
-35
-29
-41
-39
-30
-27
-25
-24
-20
-17
-26
-14
-9
-13
-8
-10
-13
-7
0
4
0
-13
-18
-20
-5
-3
-5
-1
1
-13
-16
-19
-24
-17
-16
-22
-31
-24
-30
-44
-42
-48
-50
-50
-48
-55
-65
-53
-59
-69
-70
-72
-72
-72
-75
-74
-69
-72
-83
-76
-70
-78
-81
-75
-79
-86
-92
-79
-80
-81
-82
-86
-82
-81
-80
-83
-81
-72
-82
-77
-74
-80
-86
-91
-85
-82
-82
-82
-78
-77
-78
-81
-86
-81
-77
-84
-79
-70
-75
-85
-90
-85
-87
-82
-81
-82
-85
-83
-71
-72
-73
-80
-83
-88
-81
-84
-76
-79
-77
-73
-80
-92
-84
-85
-81
-84
-82
-78
-80
-76
-80
-90
-81
-65
-74
-86
-86
-85
-86
-82
-79
-87
-89
-87
-86
-84
-75
-72
-83
-78
-77
-91
-85
-88
-85
-84
-79
-76
-81
-82
-79
-86
-81
-75
-92
-97
-84
-84
-82
-80
-83
-88
-89
-82
-80
-85
-86
-90
-89
-75
-73
-89
-85
-76
-99
-100
-86
-81
-86
-86
-85
-92
-90
-84
-83
-79
-88
-93
-84
-79
-87
-92
-83
-82
-95
-89
-81
-81
-77
-83
-89
-94
-83
-82
-76
-90
-88
-82
-86
-84
-83
-97
-94
-88
-80
-87
-90
-91
-89
-82
-81
-86
-87
-96
-92
-79
-89
-93
-84
-84
-89
-94
-89
-92
-95
-90
-86
-80
-84
-87
-87
-90
-89
-85
-96
-91
-80
-88
-83
-83
-87
-82
-94
-92
-95
-95
-75
-74
-73
-91
-97
-98
-93
-85
-93
-87
-85
-88
-91
-91
-97
-97
-91
-84
-89
-86
-92
-90
-94
-77
-78
-88
-87
-85
-87
-90
-84
-84
-89
-87
-88
-84
-79
-74
-82
-90
-95
-92
-85
-92
-90
-91
-89
-88
-88
-81
-79
-84
-91
-86
-94
-96
-79
-85
-93
-81
-88
-88
-86
-85
-90
-84
-85
-97
-88
-78
-84
-91
-88
-89
-88
-87
-82
-86
-83
-81
-84
-85
-86
-85
-91
-88
-88
-92
-96
-89
-83
-79
-77
-86
-86
-86
-94
-95
-87
-82
-82
-79
-75
-73
-81
-87
-86
-93
-91
-82
-86
-95
-93
-87
-90
-86
-80
-80
-91
-96
-83
-83
-79
-91
-93
-85
-80
-81
-89
-89
-88
-83
-82
-94
-88
-86
-85
-84
-80
-78
-77
-82
-83
-76
-78
-86
-80
-80
-71
-76
-83
-78
-78
-88
-82
-76
-86
-90
-84
-76
-77
-85
-82
-79
-79
-68
-84
-90
-90
-85
-84
-84
-86
-86
-88
-88
-92
-93
-86
-88
-95
-94
-95
-95
-86
-88
-103
-95
-88
-85
-88
-94
-85
-88
-86
-87
-90
-95
-97
-107
-111
-111
-119
-130
-137
-126
-117
-92
-60
-38
-35
-2
27
50
80
110
131
165
202
230
245
251
245
206
158
121
54
-3
-31
-53
-77
-74
-85
-90
-90
-84
-86
-76
-87
-94
-78
-72
-74
-85
-80
-86
-85
-85
-78
-82
-89
-85
-83
-80
-88
-83
-92
-83
-87
-89
-82
-86
-87
-86
-75
-86
-85
-76
-73
-65
-87
-92
-81
-77
-75
-76
-82
-69
-63
-69
-80
-75
-72
-75
-72
-73
-74
-68
-69
-64
-66
-62
-66
-71
-64
-63
-65
-64
-62
-55
-68
-63
-52
-54
-51
-56
-49
-44
-48
-45
-44
-46
-48
-33
-26
-41
-39
-30
-30
-28
-31
-25
-24
-20
-18
-16
-17
-7
-9
-6
-7
-6
-5
-1
-8
-7
-6
-2
1
-5
-3
-2
-10
-2
-2
-5
-5
-9
-17
-24
-23
-27
-34
-37
-36
-36
-50
-59
-53
-40
-39
-48
-56
-68
-58
-65
-66
-70
-74
-73
-76
-74
-68
-72
-82
-79
-79
-81
-71
-87
-75
-76
-81
-78
-84
-77
-73
-69
-75
-84
-82
-83
-85
-89
-81
-80
-72
-74
-83
-89
-78
-75
-83
-86
-85
-78
-68
-73
-70
-72
-78
-80
-89
-81
-79
-86
-77
-80
-83
-89
-80
-81
-79
-76
-82
-81
-71
-69
-85
-80
-75
-76
-77
-79
-77
-83
-72
-80
-87
-81
-79
-91
-73
-75
-88
-86
-83
-77
-77
-79
-88
-90
-85
-90
-86
-85
-74
-82
-80
-83
-87
-79
-76
-81
-86
-83
-88
-82
-83
-79
-82
-95
-71
-76
-95
-90
-75
-79
-78
-85
-95
-85
-79
-89
-92
-85
-85
-86
-82
-82
-79
-90
-80
-86
-86
-89
-87
-94
-96
-84
-90
-91
-87
-93
-84
-88
-82
-85
-81
-88
-90
-86
-84
-87
-88
-86
-91
-82
-78
-86
-92
-89
-84
-91
-86
-83
-88
-92
-92
-85
-83
-91
-91
-89
-88
-82
-85
-85
-82
-82
-89
-84
-76
-76
-81
-73
-76
-83
-84
-87
-91
-75
-84
-81
-82
-78
-76
-84
-85
-83
-84
-77
-83
-90
-81
-75
-79
-84
-86
-84
-90
-86
-84
-91
-84
-79
-73
-73
-75
-84
-96
-83
-81
-88
-84
-80
-79
-76
-74
-77
-87
-80
-74
-91
-87
-68
-70
-74
-85
-84
-83
-89
-87
-85
-84
-75
-76
-69
-73
-75
-92
-82
-83
-82
-86
-80
-80
-92
-90
-79
-82
-82
-77
-79
-76
-65
-75
-91
-93
-90
-88
-74
-75
-77
-70
-79
-81
-71
-67
-84
-91
-87
-81
-87
-82
-83
-71
-67
-82
-88
-91
-90
-86
-89
-84
-77
-84
-82
-82
-85
-85
-85
-77
-82
-84
-78
-74
-75
-85
-89
-86
-97
-93
-71
-63
-68
-63
-59
-66
-89
-81
-81
-82
-78
-77
-72
-73
-68
-79
-90
-88
-75
-72
-82
-75
-78
-81
-77
-81
-72
-74
-76
-82
-83
-85
-84
-83
-85
-76
-58
-76
-83
-89
-94
-88
-80
-73
-81
-81
-86
-79
-77
-80
-81
-75
-77
-77
-86
-75
-80
-87
-86
-94
-87
-85
-94
-97
-101
-108
-110
-110
-106
-81
-36
-11
-22
2
45
77
97
104
142
166
196
213
214
202
190
160
112
45
-3
-45
-71
-79
-85
-80
-82
-82
-85
-84
-77
-79
-74
-74
-72
-69
-65
-64
-60
-70
-79
-74
-66
-52
-61
-66
-64
-69
-70
-67
-59
-64
-69
-63
-66
-68
-64
-58
-61
-59
-62
-67
-62
-60
-61
-57
-55
-55
-66
-58
-51
-56
-50
-57
-62
-57
-66
-51
-43
-28
-61
-55
-36
-32
-41
-45
-38
-42
-44
-46
-39
-48
-41
-42
-37
-32
-33
-37
-33
-42
-32
-29
-28
-27
-16
-12
-11
-18
-7
-6
-1
-8
-15
-4
-8
10
14
0
7
3
4
7
30
28
18
20
12
24
24
15
16
26
29
27
23
17
19
20
13
9
14
2
6
5
-1
-14
-13
-16
-19
-35
-25
-24
-31
-38
-43
-36
-35
-42
-47
-45
-51
-55
-61
-59
-60
-52
-52
-61
-68
-52
-58
-56
-52
-53
-71
-67
-61
-65
-55
-60
-63
-66
-52
-59
-62
-61
-57
-51
-66
-63
-69
-64
-58
-60
-62
-58
-61
-68
-66
-65
-65
-59
-54
-61
-62
-67
-74
-72
-70
-67
-78
-66
-57
-58
-56
-59
-68
-66
-63
-64
-70
-67
-60
-55
-64
-65
-58
-60
-51
-58
-57
-48
-48
-56
-57
-75
-75
-63
-56
-63
-62
-65
-59
-53
-62
-67
-62
-69
-64
-62
-62
-63
-67
-69
-64
-64
-59
-60
-68
-67
-66
-60
-63
-62
-66
-57
-53
-58
-52
-54
-71
-56
-54
-66
-74
-72
-67
-67
-48
-50
-51
-50
-63
-70
-64
-64
-79
-74
-70
-64
-66
-58
-66
-74
-56
-62
-56
-55
-53
-73
-79
-59
-58
-65
-74
-65
-68
-65
-63
-60
-59
-65
-67
-58
-60
-65
-63
-74
-72
-66
-62
-56
-59
-63
-58
-66
-74
-59
-60
-71
-55
-60
-68
-72
-66
-65
-67
-70
-68
-74
-68
-63
-65
-68
-65
-65
-67
-65
-72
-76
-61
-61
-65
-66
-72
-71
-68
-65
-59
-62
-61
-64
-65
-63
-57
-56
-49
-70
-76
-63
-64
-62
-49
-59
-78
-72
-64
-67
-75
-70
-72
-69
-57
-64
-66
-61
-59
-71
-62
-63
-50
-53
-45
-52
-63
-59
-62
-62
-55
-59
-66
-69
-60
-47
-52
-56
-65
-65
-64
-70
-58
-53
-63
-58
-63
-59
-58
-56
-58
-58
-56
-58
-64
-57
-57
-73
-63
-65
-77
-65
-60
-60
-61
-64
-67
-74
-68
-60
-70
-65
-58
-63
-60
-54
-55
-62
-58
-56
-76
-72
-78
-83
-80
-85
-93
-101
-89
-73
-65
-44
-12
-3
16
40
67
81
112
134
160
170
186
200
200
179
155
118
78
35
-16
-49
-61
-69
-80
-75
-70
-62
-69
-68
-64
-49
-57
-64
-65
-63
-59
-65
-65
-50
-55
-46
-57
-58
-53
-68
-63
-63
-60
-59
-63
-59
-57
-57
-56
-58
-52
-52
-55
-48
-61
-58
-47
-52
-48
-49
-52
-62
-54
-49
-54
-40
-47
-49
-47
-47
-49
-47
-43
-48
-50
-46
-43
-44
-42
-34
-36
-39
-40
-43
-47
-35
-28
-29
-31
-27
-28
-16
-12
-27
-39
-33
-24
-17
-23
-12
2
0
-19
-22
-15
-8
-5
0
1
2
3
10
3
5
12
22
10
9
14
20
17
23
24
24
17
16
19
13
5
15
15
10
1
1
1
4
-3
2
-6
-17
-13
-15
-23
-41
-35
-30
-26
-39
-42
-49
-46
-42
-56
-61
-49
-47
-52
-55
-56
-60
-62
-54
-58
-60
-56
-59
-61
-59
-57
-67
-71
-61
-53
-64
-59
-60
-59
-58
-57
-57
-51
-58
-62
-63
-60
-57
-60
-58
-62
-56
-51
-58
-60
-62
-63
-61
-54
-60
-57
-60
-46
-48
-59
-61
-61
-64
-63
-56
-51
-67
-57
-57
-68
-61
-49
-59
-63
-54
-55
-61
-71
-63
-57
-54
-55
-51
-49
-52
-41
-55
-76
-63
-57
-71
-63
-57
-59
-56
-56
-64
-58
-57
-57
-52
-58
-65
-58
-53
-54
-59
-63
-63
-57
-54
-58
-57
-50
-45
-53
-65
-61
-56
-60
-56
-48
-62
-64
-57
-61
-64
-52
-62
-57
-51
-57
-59
-60
-57
-56
-62
-63
-54
-57
-64
-54
-56
-56
-57
-60
-67
-63
-69
-64
-55
-46
-57
-57
-62
-62
-65
-62
-60
-63
-58
-53
-54
-68
-69
-67
-55
-53
-46
-57
-56
-48
-60
-56
-61
-62
-61
-69
-74
-70
-57
-45
-51
-61
-62
-66
-61
-62
-60
-65
-64
-60
-60
-54
-55
-60
-60
-63
-65
-68
-59
-56
-58
-60
-65
-62
-44
-44
-73
-67
-60
-57
-59
-65
-59
-64
-59
-61
-61
-57
-57
-60
-50
-58
-56
-59
-56
-54
-58
-57
-49
-58
-54
-51
-48
-53
-50
-51
-46
-49
-49
-52
-54
-55
-58
-58
-64
-71
-64
-55
-51
-47
-47
-49
-44
-49
-53
-59
-58
-59
-54
-54
-58
-62
-59
-69
-61
-58
-62
-63
-63
-62
-62
-64
-61
-66
-69
-62
-60
-53
-54
-64
-66
-68
-61
-71
-79
-74
-73
-79
-89
-94
-97
-98
-95
-79
-65
-39
-24
-12
13
39
64
100
113
133
161
179
195
211
217
206
181
147
104
45
-3
-34
-55
-61
-68
-71
-57
-62
-75
-71
-60
-67
-65
-62
-53
-51
-49
-56
-67
-71
-61
-59
-56
-57
-58
-58
-63
-62
-61
-59
-53
-53
-63
-52
-60
-61
-61
-54
-50
-55
-62
-56
-50
-46
-58
-54
-58
-51
-54
-57
-70
-52
-51
-46
-43
-43
-43
-46
-60
-40
-43
-54
-52
-40
-47
-50
-45
-46
-45
-43
-44
-40
-41
-36
-36
-34
-24
-28
-45
-35
-29
-21
-28
-23
-21
-23
-18
-19
-27
-16
-14
-13
-2
5
-5
-8
-7
2
7
4
1
-2
0
14
13
11
23
18
12
17
19
4
9
17
6
6
10
6
0
2
-8
-7
-14
-12
-13
-17
-25
-27
-21
-27
-39
-46
-34
-31
-41
-49
-56
-54
-58
-57
-62
-68
-56
-54
-57
-58
-55
-56
-60
-69
-70
-65
-57
-58
-67
-70
-69
-64
-67
-65
-69
-70
-58
-60
-59
-58
-68
-73
-64
-61
-64
-74
-75
-69
-71
-70
-65
-68
-68
-69
-73
-74
-69
-58
-70
-66
-63
-59
-64
-63
-70
-81
-72
-68
-64
-70
-71
-70
-70
-64
-68
-69
-67
-61
-63
-67
-69
-71
-65
-64
-71
-69
-71
-65
-71
-65
-61
-65
-67
-74
-69
-72
-74
-68
-68
-66
-65
-68
-70
-66
-73
-84
-76
-67
-60
-57
-67
-79
-81
-82
-59
-68
-69
-72
-73
-68
-65
-65
-74
-72
-71
-64
-71
-73
-68
-67
-71
-72
-81
-77
-78
-69
-67
-73
-73
-70
-77
-76
-70
-69
-80
-76
-70
-69
-80
-84
-70
-78
-80
-74
-74
-65
-60
-77
-71
-73
-79
-77
-75
-84
-80
-72
-77
-66
-71
-74
-77
-73
-70
-71
-77
-83
-74
-79
-78
-77
-72
-79
-74
-75
-77
-75
-78
-73
-74
-78
-75
-71
-72
-87
-81
-72
-73
-76
-87
-77
-75
-68
-74
-84
-79
-77
-76
-75
-82
-76
-78
-87
-78
-80
-75
-77
-77
-77
-81
-75
-84
-76
-81
-84
-68
-79
-78
-71
-72
-73
-76
-87
-83
-80
-81
-79
-76
-73
-76
-79
-77
-75
-75
-72
