4
2
6
-1
-3
2
6
5
-1
2
-3
-8
-9
2
-3
0
10
12
13
9
5
13
7
-3
13
10
9
13
14
-1
-4
-2
2
14
20
17
5
5
12
6
5
1
10
2
11
7
-5
-6
10
13
7
7
2
9
1
14
14
16
13
13
15
8
3
9
11
1
-7
2
4
5
9
5
-6
-4
6
3
3
5
1
1
2
21
17
24
9
-5
-4
13
8
0
-3
23
2
-2
6
6
6
6
2
3
15
3
11
12
7
-8
-6
0
-2
4
8
9
10
13
9
-1
6
8
10
3
6
5
10
8
10
4
18
7
0
-13
1
2
6
2
1
4
2
5
25
11
-9
6
5
-3
3
10
12
9
6
8
11
4
-1
14
16
18
12
3
4
9
14
23
26
20
26
22
15
7
5
16
15
17
15
19
22
16
11
9
1
4
3
3
10
9
9
7
7
2
0
8
4
-3
-4
15
23
9
3
16
16
-2
-17
-5
17
8
16
13
9
-1
-1
-2
1
6
14
5
3
0
20
5
8
1
2
2
2
5
9
1
13
24
2
-5
-6
-12
-6
3
8
18
32
52
79
113
134
133
122
123
129
118
128
127
125
130
129
95
56
46
38
29
17
16
17
27
15
12
17
15
18
5
11
2
17
13
12
12
20
13
-2
1
4
8
1
6
26
36
26
9
8
-1
3
6
13
11
4
2
7
9
3
1
14
14
10
16
18
17
10
12
12
17
21
7
13
17
26
15
11
18
19
15
21
14
19
18
11
21
24
18
30
21
23
17
14
28
23
19
30
32
36
36
37
46
46
43
40
29
26
32
48
61
63
52
59
67
53
64
66
65
55
64
57
62
66
71
69
70
71
69
63
63
60
52
51
59
66
48
44
45
44
49
17
32
33
40
33
26
24
24
24
20
8
8
11
18
28
28
10
2
8
11
10
12
1
1
17
17
17
12
7
7
3
11
24
18
8
8
8
9
15
13
10
11
32
8
-15
-8
2
5
4
-3
3
6
-2
-1
2
8
11
3
-4
-2
8
10
18
9
4
7
6
2
0
0
7
15
5
13
12
15
14
9
9
4
3
14
22
23
10
3
5
-9
-1
-2
-1
0
4
8
7
-4
-9
4
10
13
10
4
17
8
8
9
7
8
9
6
0
0
4
9
15
17
10
16
13
14
14
-2
-11
-12
-8
3
11
7
15
12
7
7
11
14
3
8
3
5
6
2
2
5
7
4
-6
3
11
12
17
7
-6
-7
-5
1
5
0
2
20
20
-3
-2
0
9
3
4
6
7
0
5
0
2
5
6
6
14
19
7
-6
-12
-8
-2
-2
15
-4
2
8
1
8
0
-9
-5
11
20
11
7
3
-6
-1
6
-7
9
8
7
10
6
12
11
-4
-2
-4
3
7
1
10
19
17
16
9
3
3
3
6
14
19
27
20
13
16
12
8
7
5
19
19
4
14
12
2
5
8
18
20
18
11
14
16
16
6
-5
-3
0
1
-3
-10
-6
-2
3
18
12
1
1
4
8
11
2
4
5
9
2
2
8
-2
-8
-9
-1
-1
-7
4
-2
-6
0
0
-11
-3
4
16
14
15
4
0
6
8
-3
-4
6
3
10
18
26
49
78
108
118
126
125
113
97
107
119
126
132
133
100
58
29
20
6
10
13
17
14
16
16
15
10
4
9
1
2
23
32
5
-9
-6
3
8
15
9
6
4
18
12
19
14
9
6
15
6
7
18
5
31
0
8
8
4
5
6
5
8
13
21
18
9
16
6
-9
7
2
12
19
30
17
15
8
9
14
29
32
18
16
18
20
23
28
38
16
9
25
36
33
31
35
43
49
39
31
29
31
22
39
39
48
46
49
52
43
47
47
48
64
69
62
60
56
56
68
68
74
78
74
61
64
67
60
60
68
71
58
55
67
72
63
56
44
37
47
50
38
36
37
29
31
30
18
15
27
20
22
17
22
10
12
22
25
6
8
6
13
15
31
22
4
4
4
4
7
5
-7
2
4
11
7
4
-5
-3
11
3
8
12
5
10
12
21
9
8
11
9
6
9
22
34
7
11
1
7
8
15
7
6
6
3
8
13
5
5
1
-1
3
8
5
4
8
10
5
7
9
2
4
4
9
9
11
17
31
15
-2
-4
13
12
3
3
16
27
19
8
5
13
20
19
11
10
17
15
11
10
1
1
7
9
12
12
15
9
6
12
2
9
11
10
5
14
15
16
21
27
17
3
-9
0
-6
5
16
14
16
10
13
14
22
7
10
2
12
6
14
13
-3
-5
21
15
7
7
7
7
12
16
7
-2
8
4
17
12
24
30
11
3
6
10
15
18
14
11
17
15
13
18
23
25
28
23
25
22
20
16
21
16
9
10
16
23
29
23
27
25
18
20
11
8
10
20
20
8
-2
4
13
12
2
-2
13
11
12
9
7
13
9
8
9
8
11
7
11
11
4
10
3
3
4
5
6
13
8
10
8
8
23
17
9
-1
3
12
24
15
9
9
2
5
-1
14
14
7
18
37
58
65
81
110
123
108
102
105
102
121
118
119
135
107
57
20
21
17
18
27
22
32
33
27
33
20
8
2
14
15
17
12
10
14
8
17
30
27
18
19
14
10
12
9
10
21
34
32
14
11
6
8
15
22
28
17
20
17
14
21
25
15
14
15
14
14
31
23
15
16
14
11
17
23
23
21
27
26
36
38
30
27
26
13
22
19
32
29
40
40
39
37
31
33
38
45
61
47
37
36
34
39
47
53
50
49
61
72
74
51
59
64
59
65
66
74
76
77
77
83
74
77
79
70
70
72
95
81
71
80
78
71
65
57
59
60
60
46
54
48
45
39
25
14
24
32
28
31
29
23
32
39
29
27
13
7
-1
17
31
13
15
20
19
12
21
28
11
13
23
36
17
15
16
12
13
20
21
21
25
22
17
22
14
12
11
21
17
13
17
20
23
16
7
9
11
13
8
2
-3
1
17
29
24
22
17
18
17
28
41
23
16
9
18
26
25
19
19
33
26
23
13
15
18
16
26
31
24
19
16
10
9
18
33
26
32
23
14
19
23
19
22
8
7
15
22
31
40
22
14
9
16
22
20
22
29
27
22
31
35
28
19
14
5
33
26
28
22
26
35
26
12
25
18
24
14
17
21
27
20
19
28
13
18
20
22
18
16
17
33
34
18
8
26
25
16
9
20
28
17
15
18
18
23
30
30
19
16
24
38
33
32
28
23
26
16
10
14
34
32
18
13
14
17
28
32
23
19
13
11
25
28
26
19
21
14
20
13
25
13
10
35
37
24
26
22
23
15
11
12
17
34
29
27
32
40
34
30
26
28
26
17
16
27
20
36
23
13
28
36
30
23
31
34
35
37
33
32
32
27
31
43
50
35
25
31
33
22
30
33
28
39
37
31
27
32
30
33
22
13
13
15
16
31
33
26
18
22
26
31
17
26
21
25
30
21
21
24
23
23
26
36
19
17
11
9
24
28
19
27
32
21
22
20
19
17
28
38
32
14
21
14
13
20
22
14
22
38
52
77
95
108
128
155
137
135
144
145
165
168
174
171
145
104
72
54
56
37
27
34
39
40
45
35
25
37
35
27
21
25
30
31
39
37
20
20
29
38
31
30
27
21
26
14
29
27
28
27
25
21
24
20
15
27
36
31
35
39
35
30
39
36
37
36
28
32
34
29
35
26
26
22
24
31
43
42
39
41
28
28
34
41
25
32
32
40
44
49
40
25
26
42
42
39
37
43
73
62
56
65
47
43
58
61
63
67
69
76
66
62
66
79
70
82
80
77
82
72
86
81
84
84
77
79
86
90
88
83
77
75
85
75
80
79
67
64
72
57
37
44
41
56
52
56
51
46
37
37
44
40
33
24
24
27
38
36
43
39
41
29
31
24
32
31
17
21
28
36
35
28
28
24
31
31
30
30
26
35
46
31
25
20
18
25
28
16
10
24
40
44
37
38
42
38
36
27
18
17
13
23
23
31
40
33
35
36
44
23
18
22
27
32
36
35
37
22
32
24
24
39
29
23
30
30
28
27
34
30
28
24
38
44
36
32
38
32
35
30
30
29
36
33
34
36
19
30
64
43
45
29
34
36
39
39
29
35
33
30
36
39
38
42
45
30
17
22
36
32
23
19
21
34
42
36
39
30
35
31
40
34
42
43
26
25
25
29
37
25
45
49
40
26
24
39
48
33
34
40
46
35
7
14
23
32
47
47
40
30
35
33
23
22
36
35
33
32
22
26
37
31
27
36
40
39
36
32
24
43
47
33
35
27
32
34
21
30
37
29
34
32
37
33
47
38
31
26
34
27
31
39
39
30
27
37
59
51
44
44
32
28
23
38
37
39
33
26
32
27
33
36
35
37
34
48
33
30
36
34
29
33
34
32
45
41
43
43
38
47
40
41
45
45
47
44
55
55
51
48
40
38
48
34
45
40
45
67
43
36
37
34
30
32
40
34
33
23
32
48
39
30
35
29
26
20
29
32
33
51
56
39
40
33
20
24
28
33
20
16
22
37
38
37
40
33
43
27
17
19
35
45
49
41
20
21
30
28
12
12
19
31
37
67
51
36
58
68
73
106
137
152
162
152
149
147
155
172
184
180
168
137
84
61
68
53
52
47
40
38
32
34
42
50
39
32
31
41
41
46
53
43
35
28
25
21
32
37
37
38
35
26
12
42
42
34
42
35
39
41
31
37
52
43
36
41
33
31
42
43
43
47
30
39
33
47
40
36
26
44
41
41
36
47
45
44
46
41
48
42
32
39
63
57
63
52
45
56
53
46
42
45
47
62
82
69
46
48
57
62
59
58
60
85
79
87
100
104
99
71
70
83
86
60
61
85
100
96
105
104
91
93
103
97
101
111
73
75
88
82
82
88
67
73
78
69
67
67
68
67
51
55
65
52
40
48
49
35
43
46
44
37
39
45
41
42
29
32
27
38
28
17
26
25
33
36
44
33
34
34
48
40
39
40
46
45
33
33
32
31
36
36
33
37
46
43
37
32
31
42
37
46
31
27
31
29
26
29
29
24
24
37
55
49
35
31
40
31
10
30
37
36
36
50
52
44
37
41
39
34
31
34
44
41
56
47
26
36
32
31
29
31
31
29
34
39
34
33
40
42
34
44
34
38
38
34
31
34
42
41
35
35
46
29
33
31
56
43
49
41
39
38
43
37
30
39
46
50
34
27
31
38
32
36
43
45
36
43
47
23
33
36
27
29
39
44
45
46
42
32
28
29
30
42
36
38
39
34
32
21
30
29
31
45
31
36
36
37
29
52
58
47
37
49
52
57
57
48
47
49
36
48
42
33
30
64
48
41
51
50
53
55
48
31
32
31
26
26
33
41
43
42
44
43
36
40
39
43
45
41
35
52
50
41
43
36
28
34
31
28
29
30
37
34
33
28
32
31
44
34
46
47
46
34
32
19
24
23
24
18
27
61
37
55
69
105
130
155
178
174
153
165
163
168
182
178
158
148
131
87
56
55
48
58
50
47
38
42
31
44
48
50
46
41
34
41
44
44
36
37
49
47
45
43
51
48
39
40
33
27
33
35
36
32
39
35
38
51
45
42
36
34
32
46
42
43
46
49
44
57
54
37
36
37
40
50
42
41
35
43
42
53
55
63
51
54
53
49
42
52
49
47
43
49
58
65
58
59
60
74
64
51
60
69
69
71
76
75
77
80
83
85
85
93
96
88
83
88
91
92
92
94
89
96
101
101
105
101
97
93
103
96
86
88
93
89
102
88
87
86
79
80
69
77
72
51
60
54
63
59
52
43
49
44
46
48
65
49
41
38
38
32
29
37
50
41
38
36
47
43
41
37
44
47
39
37
33
37
39
40
38
28
23
20
28
39
47
47
34
29
34
41
27
33
27
34
40
23
36
37
34
48
36
39
41
30
35
35
45
36
48
31
36
33
29
39
55
44
42
51
47
50
35
43
34
25
44
30
28
32
37
40
47
42
36
38
41
38
38
26
39
43
39
43
40
36
56
52
41
37
59
47
32
31
35
30
36
50
60
57
40
29
36
48
41
36
34
43
54
47
42
39
45
42
38
43
40
38
33
43
45
40
24
40
41
34
30
41
39
39
39
35
38
47
51
58
48
36
43
32
36
41
44
34
42
29
46
45
33
41
40
51
44
39
39
44
38
42
59
67
54
43
39
44
61
58
49
50
54
63
65
54
48
28
35
45
49
43
57
50
56
48
46
35
33
33
32
28
27
30
33
49
53
39
37
37
36
36
44
37
34
36
46
29
39
47
64
32
28
30
33
37
39
38
39
32
23
21
50
39
34
32
33
35
38
38
34
22
28
40
30
42
59
82
112
131
142
160
169
158
154
152
159
160
168
169
140
106
55
44
44
49
51
51
48
40
38
39
48
48
58
47
47
41
46
44
49
38
22
30
38
48
41
32
28
35
38
48
44
42
36
34
46
48
39
35
40
50
43
37
39
31
46
43
35
49
45
31
39
35
35
38
51
39
42
44
54
54
58
37
46
48
52
43
49
60
44
45
68
63
63
64
45
31
52
72
63
54
57
55
57
67
69
63
68
78
70
85
80
80
85
81
83
83
92
96
99
101
102
98
107
97
87
85
83
101
102
105
99
95
98
108
102
88
88
85
87
85
75
68
74
75
79
77
72
68
59
60
54
43
50
59
59
53
37
42
32
32
31
36
43
39
43
45
47
58
45
39
30
18
48
31
33
33
35
33
31
31
36
31
38
43
42
29
37
38
39
31
22
28
41
45
35
32
34
31
39
42
30
36
34
41
43
39
40
38
31
45
30
34
40
45
49
61
39
41
33
21
31
56
42
38
44
35
34
38
40
37
52
45
35
39
47
45
39
39
29
29
36
39
39
44
48
43
48
45
51
46
38
37
30
24
34
35
42
31
32
35
48
45
42
36
30
35
39
41
50
25
14
42
55
40
44
29
45
54
50
40
31
37
40
38
26
35
46
39
43
39
37
31
36
41
35
39
33
35
40
53
68
60
65
57
52
37
46
41
40
43
47
56
53
42
32
42
39
40
46
49
54
58
57
36
46
38
19
24
20
40
43
45
41
33
35
25
16
25
30
46
44
42
34
12
30
37
25
33
37
37
30
40
28
22
30
30
33
40
38
29
23
29
25
39
28
30
27
23
20
7
25
34
46
47
40
61
90
109
134
143
151
157
153
151
170
189
186
171
176
125
75
45
40
41
30
26
28
51
46
51
53
52
20
19
37
38
35
56
45
17
19
26
21
30
30
29
37
28
29
28
27
24
34
39
42
26
23
31
16
28
20
27
37
34
40
40
31
37
45
28
31
20
23
31
46
41
26
29
43
43
57
51
34
37
36
57
40
34
34
34
38
45
42
47
40
36
33
30
53
57
61
57
61
56
55
61
54
57
52
54
66
72
67
89
86
74
75
70
70
83
85
90
83
88
87
99
82
95
103
90
85
85
94
104
87
78
72
73
81
65
62
74
81
82
60
51
55
45
35
41
39
51
37
41
38
26
32
36
33
21
33
41
33
41
22
14
20
39
36
51
37
9
12
23
28
24
25
21
6
15
19
22
14
16
17
32
45
42
29
25
17
8
8
24
34
18
28
35
41
24
22
24
28
46
28
25
37
34
20
32
26
19
27
32
16
21
29
48
28
18
32
29
29
26
23
20
18
18
13
42
28
39
26
32
22
15
41
28
23
20
34
40
43
42
41
32
29
27
30
34
23
29
28
32
26
20
18
42
36
21
28
37
41
41
24
26
29
24
17
24
31
37
29
21
31
18
29
47
36
39
35
40
41
41
47
56
55
46
56
49
42
37
46
45
29
38
44
50
39
41
42
35
42
36
36
27
26
20
22
33
22
22
31
37
39
17
25
10
28
30
28
31
24
34
27
27
23
38
30
15
26
34
26
22
33
27
20
35
22
25
26
30
29
31
25
28
38
33
30
33
25
7
18
19
25
24
33
37
67
85
117
140
146
152
142
131
147
165
168
173
153
143
131
102
57
45
51
53
52
59
50
28
31
34
31
22
26
31
36
34
36
31
29
25
26
33
31
26
34
35
25
26
29
29
43
34
41
42
31
37
28
19
29
44
54
38
34
36
37
34
37
34
37
29
30
29
45
42
44
43
42
26
32
38
37
32
29
30
33
47
41
42
57
54
49
66
53
35
40
45
58
47
57
72
62
63
48
62
55
70
70
65
60
58
85
89
96
86
80
86
79
84
83
87
89
92
93
98
103
95
93
92
89
88
82
87
96
93
93
90
82
77
79
67
77
73
63
59
58
57
56
59
52
40
44
27
26
41
48
41
59
49
43
43
44
40
44
48
43
27
15
26
40
30
35
40
35
39
40
35
23
26
26
29
25
26
32
47
27
34
28
24
31
35
27
29
25
41
50
35
26
32
32
28
25
30
29
26
43
50
59
51
51
54
52
36
28
40
37
34
34
38
31
28
36
42
43
45
46
43
39
37
41
41
36
36
35
44
49
45
42
38
45
38
27
28
36
36
32
33
53
63
57
46
43
29
39
56
41
47
55
40
31
33
37
40
41
44
45
39
52
39
44
50
45
44
48
56
46
40
52
60
57
50
50
61
64
54
46
49
61
53
35
37
42
46
51
47
45
28
22
45
48
47
44
35
46
45
43
52
44
35
38
44
33
35
39
40
44
45
39
44
35
30
37
39
47
50
43
43
32
42
41
36
44
33
19
36
49
39
39
37
37
41
40
30
29
32
42
52
46
56
68
85
100
139
159
159
146
145
140
151
160
155
151
147
120
82
55
60
55
51
44
45
54
50
49
48
46
53
50
50
50
51
43
45
52
58
63
50
49
42
32
41
36
28
31
56
60
43
57
47
48
54
48
46
48
50
47
74
57
49
49
56
52
46
49
49
58
55
58
35
42
46
65
75
59
48
53
59
58
60
55
54
59
63
59
49
59
54
68
68
70
73
68
73
88
72
69
63
71
68
74
78
86
90
95
94
85
81
91
88
96
98
98
108
97
90
107
117
104
97
103
100
102
108
108
110
100
109
104
98
104
103
88
94
96
88
95
76
77
72
73
73
68
68
68
64
57
69
66
38
48
57
48
53
52
37
61
73
54
54
58
53
54
53
62
51
45
55
38
48
56
48
49
43
45
51
69
54
41
46
49
45
51
58
55
38
49
45
52
52
49
56
49
33
31
33
54
58
70
66
58
53
61
57
49
53
55
51
51
48
45
45
46
54
56
58
54
63
53
65
50
44
55
69
54
61
47
36
50
61
59
57
71
67
52
56
62
73
57
60
49
66
66
62
68
67
72
59
74
82
82
71
65
63
69
80
71
82
63
66
64
62
64
63
59
56
57
51
41
48
64
73
65
78
59
73
73
55
51
66
68
58
58
60
67
67
59
52
47
52
46
61
68
78
69
64
61
56
54
54
56
62
56
60
58
64
71
66
62
64
43
48
57
56
58
63
61
59
60
66
59
75
64
68
63
74
87
113
134
154
156
154
156
170
157
184
179
182
183
154
96
77
74
78
82
80
85
79
69
72
58
63
67
58
55
64
95
83
79
72
72
71
61
60
55
68
64
70
70
71
66
64
64
63
74
72
74
75
68
69
71
67
74
81
72
70
74
63
71
75
77
64
73
68
72
79
88
78
74
70
68
71
80
79
87
90
72
68
75
73
77
88
78
89
95
93
85
89
90
84
83
87
95
91
85
87
97
112
105
114
116
119
120
107
117
111
104
106
118
129
128
129
130
133
130
119
114
126
130
127
119
125
131
121
122
124
120
112
106
111
111
111
99
95
107
94
74
84
88
84
80
85
87
81
74
72
73
71
77
79
83
78
64
66
72
81
74
75
61
63
81
74
76
71
68
61
64
66
70
72
83
84
71
69
68
76
80
79
65
80
62
55
55
66
73
76
70
68
65
75
68
75
76
75
76
76
68
69
68
61
62
82
87
71
75
71
66
67
70
70
67
73
69
88
69
67
78
79
76
74
71
79
84
90
80
87
85
87
66
64
71
76
83
83
80
70
66
87
89
94
102
94
89
88
93
87
79
78
87
80
68
72
79
80
86
86
79
78
79
88
76
72
76
77
64
67
70
66
65
78
73
75
81
69
69
67
62
81
74
76
77
68
74
71
76
82
75
76
68
65
66
69
73
75
78
74
73
72
69
63
66
78
87
76
68
56
52
57
65
66
69
70
80
83
93
121
138
158
178
184
173
170
167
172
197
198
193
191
162
109
97
95
93
109
96
70
77
81
81
72
72
61
64
78
78
65
68
72
69
63
58
67
67
74
77
75
77
66
53
64
79
72
69
70
58
59
76
81
72
65
75
69
73
76
63
73
73
72
60
63
79
76
73
64
56
62
72
78
76
82
75
80
77
89
83
69
70
73
74
74
83
77
72
76
74
80
92
86
90
92
84
81
80
88
83
105
99
89
96
98
100
102
105
111
104
103
115
123
110
117
119
122
114
119
113
113
115
116
113
119
124
131
123
108
101
95
113
109
94
87
90
89
93
95
82
75
72
76
71
73
71
71
82
57
69
57
68
71
68
68
59
66
73
70
62
60
78
57
50
53
80
69
76
74
75
69
72
61
54
64
61
63
61
58
56
66
62
67
70
54
48
57
65
62
57
61
62
65
62
66
54
58
65
80
59
61
59
53
63
62
67
62
75
63
61
61
51
54
61
63
64
72
60
58
80
68
60
63
69
65
63
62
57
57
62
63
70
64
74
72
59
55
53
64
71
78
67
63
68
66
55
57
61
60
60
60
59
63
67
61
58
72
78
69
60
60
64
58
65
65
65
68
70
56
49
55
76
69
72
74
62
60
57
61
69
62
55
58
63
62
65
66
65
63
65
76
78
73
73
63
75
74
72
71
72
70
70
64
93
84
68
68
81
63
64
63
65
57
58
55
56
56
60
66
68
53
52
54
58
56
63
67
63
61
66
57
54
57
62
61
62
73
70
57
52
59
62
57
64
64
64
66
59
57
54
56
62
67
60
57
56
60
60
56
52
57
60
54
66
78
88
118
141
155
178
187
179
182
176
200
210
212
199
199
164
112
97
87
82
76
76
72
64
64
64
51
67
63
76
68
66
65
67
66
58
56
55
57
64
72
77
73
67
61
64
67
63
63
65
59
54
57
50
50
59
71
59
63
65
72
68
66
56
60
66
60
68
72
76
66
57
60
54
61
70
60
63
72
64
73
71
71
75
77
74
75
82
76
82
79
83
80
79
78
83
70
68
79
87
83
90
94
85
87
83
80
91
106
92
102
113
113
104
109
106
111
109
108
110
116
116
105
107
118
113
114
117
112
114
120
118
109
97
93
102
90
90
84
84
87
99
83
84
81
74
76
76
69
66
73
81
74
60
67
62
65
57
64
62
64
57
55
62
57
53
61
64
66
57
61
60
66
60
61
62
61
61
63
60
56
58
56
59
65
60
59
53
64
64
71
73
60
53
64
47
46
56
64
68
67
60
56
59
54
50
53
54
62
64
66
62
59
55
58
60
58
58
62
57
60
61
54
62
70
64
63
62
63
72
61
51
54
65
68
63
64
61
67
59
60
62
76
76
60
57
60
66
53
55
41
60
67
64
62
69
71
77
60
51
57
64
51
62
64
61
63
65
45
59
72
72
84
76
57
53
57
67
61
63
68
64
65
62
60
45
59
77
71
67
55
52
72
64
64
62
55
66
70
66
59
57
54
59
55
60
64
56
55
56
64
58
68
59
63
63
68
58
63
67
71
53
42
58
63
60
67
63
61
66
70
73
66
61
56
56
57
57
58
67
58
63
63
63
59
58
60
57
53
62
76
62
65
56
54
55
60
60
58
73
70
56
57
61
61
61
57
56
57
61
63
75
67
60
65
83
72
58
72
103
92
82
70
60
76
70
72
67
63
73
65
66
69
75
69
70
69
66
64
62
61
56
57
53
56
53
61
67
62
54
57
56
50
66
68
59
64
53
53
67
64
52
55
57
59
67
66
55
45
47
53
73
65
63
70
64
62
56
62
63
61
58
63
65
66
50
56
51
58
59
58
75
91
106
128
162
166
169
180
181
173
168
188
199
192
191
171
124
97
103
86
77
74
64
74
63
66
68
75
72
60
62
60
62
65
66
60
59
60
80
75
44
56
70
62
57
65
72
77
67
59
56
58
49
53
56
66
57
51
49
67
82
70
69
63
69
63
70
66
65
69
66
54
64
73
84
70
63
72
76
59
56
68
69
70
79
72
69
69
76
70
74
72
71
70
76
84
82
82
78
79
90
82
81
89
87
86
90
98
97
94
99
96
98
107
121
119
114
108
101
104
103
111
105
109
107
116
123
125
109
114
103
112
112
114
109
101
103
96
86
97
95
95
101
95
84
78
83
82
70
72
66
57
61
64
69
69
76
62
50
50
68
60
67
68
72
62
60
56
58
54
54
59
51
61
67
59
66
75
60
50
63
71
64
60
57
57
63
59
68
61
66
58
52
53
53
53
68
63
55
40
44
54
63
65
74
80
83
72
66
54
53
47
61
61
56
53
53
56
55
57
64
56
55
70
60
58
71
67
60
56
53
72
66
72
61
59
65
67
65
69
63
62
69
70
65
63
72
70
63
72
68
72
76
65
63
57
68
58
66
83
68
75
86
67
57
58
72
62
61
62
73
72
66
72
76
76
74
60
73
70
71
74
73
63
62
66
59
61
67
73
70
62
72
76
76
73
64
63
81
73
73
71
60
63
64
58
65
79
90
83
80
80
86
87
84
77
77
75
79
88
70
90
85
77
79
80
73
67
62
59
64
61
64
68
70
77
75
68
69
73
69
73
59
50
53
64
73
78
82
72
66
66
68
78
65
64
65
60
65
74
64
61
73
67
64
78
80
79
70
67
68
82
78
77
80
66
53
51
59
55
59
67
77
68
81
106
115
141
156
168
175
162
164
151
161
186
204
182
176
145
101
90
88
82
85
85
76
68
82
78
70
81
85
83
75
75
84
61
78
82
60
74
76
75
63
58
62
74
79
73
72
75
75
75
80
75
73
73
71
74
85
78
80
68
66
72
75
71
82
76
78
91
90
82
79
85
80
73
79
75
71
69
70
73
83
82
81
82
92
92
83
80
79
82
88
91
87
83
88
96
95
88
81
97
97
94
96
104
121
97
90
106
117
106
117
111
98
105
129
119
125
125
123
120
119
119
126
127
135
132
129
128
129
119
124
121
120
114
103
102
121
99
101
101
95
91
86
105
89
76
81
80
73
71
74
86
61
61
67
88
79
75
72
81
88
72
62
63
73
74
62
63
58
56
62
63
62
61
62
68
58
49
51
59
63
63
64
66
69
69
65
77
47
76
81
65
49
49
69
59
65
68
61
59
62
69
69
61
60
69
60
54
55
61
59
64
62
58
66
64
62
64
66
60
62
55
51
55
59
60
67
77
69
56
60
60
56
69
67
67
85
80
59
61
64
59
50
59
64
63
71
70
53
59
75
69
67
66
53
52
56
60
65
74
72
61
56
67
63
53
59
61
58
62
61
62
78
75
76
72
49
48
57
62
60
63
69
60
71
67
53
58
63
65
59
59
57
65
69
72
58
59
60
65
60
64
68
63
49
58
60
59
63
71
73
70
66
68
76
67
70
53
48
52
54
60
57
53
53
65
79
77
61
67
66
63
60
63
63
69
66
65
65
69
66
62
79
77
66
76
77
76
64
62
71
67
70
61
47
56
70
83
85
96
83
82
75
71
71
72
85
79
75
70
70
69
62
62
68
74
78
63
69
72
77
77
67
63
66
62
66
62
71
69
70
71
65
54
68
65
56
53
74
68
65
67
64
58
69
62
70
63
70
72
73
64
72
68
69
71
73
75
71
61
62
65
65
57
50
56
69
71
71
68
88
105
105
129
170
175
177
181
190
180
173
190
208
221
204
193
150
107
103
101
91
93
86
82
77
76
72
78
82
78
72
70
75
70
64
70
75
76
70
72
75
85
77
75
75
77
69
66
67
66
63
62
67
68
74
76
72
73
76
72
78
82
73
89
78
79
71
73
66
64
68
74
84
79
79
66
77
93
82
74
87
84
86
72
72
84
81
87
88
84
84
82
85
85
86
86
85
91
98
104
94
94
90
102
101
104
101
108
111
105
106
116
107
114
119
121
124
119
122
127
132
125
116
121
131
121
115
115
116
115
125
123
113
113
126
123
117
109
111
92
112
105
104
98
102
102
91
85
87
86
81
85
80
78
76
77
74
78
74
67
73
72
65
67
61
61
68
60
55
56
55
50
68
78
78
74
82
84
83
85
90
81
76
81
86
83
79
74
69
67
71
72
69
72
87
81
73
71
69
65
70
71
70
70
72
68
73
72
72
70
72
70
68
73
76
71
69
73
73
73
83
86
78
72
76
81
91
69
74
75
85
85
74
67
89
82
73
71
68
66
84
84
86
84
83
84
80
76
71
70
70
74
75
77
79
75
73
73
76
77
74
77
76
75
79
69
68
76
93
84
72
81
87
101
80
53
62
78
84
79
87
87
81
76
77
76
76
75
71
80
73
67
71
79
78
74
84
76
80
81
70
70
79
81
66
65
71
92
70
73
78
96
80
71
72
83
76
70
73
89
81
75
75
83
73
74
77
86
78
79
72
81
76
72
68
70
79
70
76
79
76
80
83
83
72
69
73
73
73
74
71
79
75
72
73
72
91
79
73
82
73
65
70
84
74
71
69
71
70
69
79
83
85
85
81
84
82
78
74
76
74
75
83
77
70
81
74
69
73
82
75
65
60
69
74
72
73
71
77
76
72
71
76
74
64
66
73
76
75
79
81
73
82
98
82
89
93
86
78
73
82
93
89
74
80
87
81
84
89
82
74
77
76
79
84
88
84
77
71
86
80
78
94
88
75
71
72
71
72
76
83
78
73
72
73
72
81
84
76
70
64
67
68
72
83
83
78
72
73
67
71
71
70
69
73
71
70
75
76
84
81
76
67
65
71
72
70
69
75
73
68
65
72
75
83
78
73
84
102
134
156
170
184
189
182
197
185
199
222
228
221
207
183
131
102
86
85
88
98
78
82
81
80
78
80
79
83
80
74
82
81
67
77
85
78
81
77
69
66
70
77
85
86
83
80
82
82
69
75
74
76
75
75
78
75
81
91
86
76
73
75
83
71
81
76
74
82
83
82
81
80
75
71
82
97
90
81
79
77
74
78
73
63
65
87
106
104
96
86
91
98
86
75
91
94
96
94
94
94
93
99
106
105
112
112
106
101
100
103
103
107
119
131
129
124
122
126
125
125
119
120
118
125
127
132
129
130
135
132
122
123
127
111
116
114
119
114
109
99
93
93
90
91
88
92
83
75
68
67
79
92
84
77
81
68
65
77
76
77
77
80
84
89
85
79
79
81
77
71
72
66
69
73
80
66
67
59
63
65
66
74
71
66
69
71
75
60
68
66
65
67
72
70
76
86
78
64
71
68
63
72
74
77
83
68
65
71
85
70
58
59
73
77
79
83
78
71
70
62
58
72
82
72
83
87
84
77
73
73
74
71
65
60
85
87
85
80
68
73
69
73
70
72
77
76
70
79
73
78
72
75
80
80
81
79
66
67
64
69
72
74
69
65
79
65
59
70
79
72
64
73
71
73
77
75
70
77
76
75
83
84
78
68
63
62
65
71
64
58
69
67
69
70
72
73
72
70
72
62
67
67
71
73
70
63
71
73
73
72
70
67
60
63
77
79
67
67
65
68
72
74
68
68
74
71
73
66
65
67
67
71
63
62
68
61
59
58
62
69
72
71
64
65
64
67
73
71
62
73
69
68
69
76
76
80
68
69
65
67
63
80
73
74
82
74
77
85
85
75
66
75
82
77
75
65
74
79
76
80
76
81
74
68
57
56
55
62
62
63
60
67
70
70
70
61
54
54
69
83
79
63
72
69
83
69
70
75
64
64
54
59
63
71
79
76
61
62
69
72
59
56
62
61
56
53
61
55
54
51
51
54
65
74
77
88
101
127
153
163
173
162
149
141
133
165
175
179
179
154
112
83
88
80
72
76
88
82
69
78
80
68
73
71
66
75
77
70
74
68
57
67
68
74
66
68
93
75
66
56
65
64
55
57
47
62
68
64
68
67
65
66
72
74
66
68
69
67
64
67
76
75
77
84
61
59
86
78
75
70
71
76
77
85
85
84
79
75
66
72
72
71
77
80
75
77
82
87
84
79
80
80
86
88
95
92
91
103
105
96
87
99
98
104
116
122
118
106
101
111
99
108
108
104
117
134
134
129
130
142
142
139
118
106
109
114
119
126
128
112
100
100
105
87
83
90
86
83
84
89
82
86
78
76
74
71
74
70
66
62
75
64
64
63
62
61
65
57
56
57
59
52
53
59
66
71
70
57
70
70
62
62
65
57
62
51
59
58
56
57
57
62
64
56
56
53
51
53
61
55
51
50
56
63
69
58
58
61
70
61
61
57
61
68
65
65
46
38
50
72
63
65
80
74
65
65
56
56
57
70
63
59
57
68
65
62
60
61
72
68
61
62
54
56
61
55
55
57
74
73
59
57
61
70
55
58
61
62
65
65
62
70
69
68
54
46
60
59
55
45
59
61
54
53
66
75
69
60
60
60
65
65
58
50
66
61
60
66
75
61
50
71
72
47
50
63
66
63
68
54
56
50
73
64
74
66
60
57
52
55
53
55
54
63
67
60
54
55
62
70
61
53
58
59
67
68
61
68
66
60
57
63
77
71
64
65
75
74
67
80
66
68
72
69
58
61
64
71
65
63
70
64
58
65
64
66
59
50
52
60
57
61
56
66
62
55
52
50
53
51
46
46
57
54
66
60
54
59
64
63
63
54
48
62
56
44
60
68
66
68
68
68
66
62
40
40
48
54
58
63
68
73
84
109
132
154
165
168
169
161
157
158
174
184
180
180
171
120
79
77
74
68
69
74
72
64
68
63
56
68
78
66
55
63
60
56
60
66
53
58
62
62
67
69
69
62
56
67
54
56
61
56
52
50
57
57
68
61
53
61
68
55
67
70
65
71
62
55
53
69
70
72
63
63
66
57
55
66
78
78
78
71
68
72
71
76
76
65
66
67
70
66
64
54
52
77
78
82
83
91
86
86
79
78
76
82
90
90
89
86
79
80
80
103
130
117
123
113
115
119
115
106
107
110
107
107
112
106
112
110
113
105
106
104
99
94
106
99
94
102
95
97
94
78
66
89
83
76
74
76
64
66
66
52
47
52
49
66
76
75
66
57
51
47
59
56
54
52
53
65
64
60
57
59
50
54
59
50
55
53
55
54
55
46
41
69
53
46
47
47
50
50
71
62
52
69
65
53
53
57
59
54
47
44
70
77
64
62
56
51
52
57
63
54
67
82
64
47
41
44
51
59
57
55
60
70
73
58
53
57
56
69
60
57
57
60
55
66
69
67
58
48
60
67
59
73
66
52
57
60
56
50
46
61
59
61
62
69
69
61
49
52
53
53
63
64
51
56
53
39
47
68
71
66
66
65
53
64
58
53
46
83
82
59
49
49
51
60
60
53
63
68
52
51
53
58
47
66
65
52
60
59
55
59
51
50
59
67
66
70
66
54
48
60
51
41
46
69
67
66
64
68
57
50
51
62
57
53
53
56
57
53
68
58
55
60
59
64
71
70
55
49
57
54
60
60
54
56
60
58
56
71
67
50
60
58
60
53
61
60
51
56
61
82
78
74
70
68
79
79
66
53
53
75
72
69
70
64
67
64
60
66
67
58
51
64
61
68
63
58
49
54
52
50
48
59
64
65
69
52
55
49
57
62
56
56
65
64
61
52
49
53
64
61
57
54
58
60
58
59
47
56
57
66
62
62
63
60
53
42
53
66
73
70
55
55
76
90
111
134
156
181
183
169
175
164
177
208
210
195
179
134
109
83
78
80
78
74
72
69
80
69
54
58
62
61
56
59
58
65
69
62
70
63
53
51
59
63
68
58
69
71
62
62
63
60
54
55
54
56
66
67
60
64
66
67
63
69
70
55
54
54
64
65
61
60
63
66
62
63
66
61
61
70
80
64
62
60
69
74
82
78
71
79
81
69
76
88
70
54
74
75
76
84
78
78
83
82
84
89
74
85
91
90
97
108
105
96
99
92
92
109
110
109
111
114
117
118
115
109
116
113
116
117
116
114
114
111
102
100
106
126
112
101
101
85
86
87
80
77
70
69
78
74
69
79
72
67
64
57
79
73
64
61
63
65
59
61
53
57
63
62
64
68
55
46
48
56
43
62
60
57
57
60
61
69
55
56
64
55
49
69
65
66
59
51
48
49
52
57
50
38
48
50
55
58
69
80
77
55
54
59
59
61
57
49
45
55
68
61
70
70
65
64
73
71
66
60
48
70
64
54
56
62
60
64
64
54
44
57
58
61
74
81
74
65
62
56
53
54
53
58
58
56
54
68
70
68
60
54
58
85
77
55
51
58
66
64
66
59
51
51
54
61
55
60
66
69
64
59
53
58
66
48
42
56
65
78
66
61
56
55
60
70
71
60
53
62
72
80
71
58
48
50
53
51
54
58
64
63
60
57
50
56
65
74
60
53
54
58
58
60
64
51
60
59
62
59
51
50
56
56
59
60
58
54
43
44
60
72
61
69
78
71
56
57
46
53
57
59
59
53
54
56
64
67
53
61
57
60
67
60
56
59
64
67
64
48
50
60
63
64
67
64
65
64
63
56
51
57
70
77
76
73
58
73
70
75
74
89
83
79
69
85
73
61
57
59
62
53
46
53
59
62
67
62
66
70
58
40
35
42
61
75
72
67
62
63
69
67
66
69
66
53
55
62
77
85
83
41
42
46
54
50
53
57
56
53
48
48
54
62
67
65
59
54
49
56
63
45
67
81
90
114
142
169
165
162
160
179
176
187
182
177
174
187
171
130
90
81
74
71
73
70
70
64
46
36
41
72
73
87
68
72
76
80
78
69
70
59
44
44
63
68
68
60
62
67
68
58
58
66
66
62
62
63
62
59
62
60
68
74
72
69
61
66
62
61
62
62
64
72
76
72
67
70
71
74
67
63
67
67
63
73
82
84
81
76
80
78
70
63
73
84
93
82
85
75
81
87
91
86
88
85
81
86
105
100
107
105
104
101
105
103
103
108
103
98
101
99
104
97
89
84
87
94
90
97
111
133
135
137
133
128
123
119
120
114
105
104
107
109
110
112
95
80
80
83
74
67
74
69
59
66
67
69
78
75
67
39
34
71
85
73
82
74
60
64
72
75
68
60
59
55
60
55
62
61
62
63
62
60
56
62
65
70
72
73
58
48
51
61
67
64
64
65
65
52
36
39
69
84
74
67
48
64
79
73
74
77
64
56
62
66
48
60
59
52
58
74
69
66
66
80
78
77
68
62
60
75
74
71
62
63
55
53
66
77
78
76
70
66
63
80
66
64
61
58
61
71
72
65
68
64
68
91
70
52
53
65
87
72
67
64
57
45
57
83
75
55
71
74
74
62
59
73
74
66
61
57
58
65
61
65
63
68
69
67
67
75
71
70
59
61
59
72
67
65
61
64
63
67
67
60
49
65
64
59
54
57
57
60
68
72
77
86
80
70
67
51
67
89
76
73
79
57
51
68
72
74
72
71
77
78
72
85
78
69
60
67
72
77
78
69
78
64
60
59
58
56
48
61
68
65
59
58
67
70
58
68
76
66
71
66
62
52
46
36
56
90
74
60
61
68
63
54
51
59
60
60
64
60
59
60
50
50
56
63
63
75
71
52
50
53
52
52
55
67
69
73
61
67
72
89
114
135
145
161
165
166
160
149
158
159
162
166
134
93
69
70
75
84
80
71
64
64
63
65
63
63
62
58
49
52
66
70
63
59
56
57
68
72
66
70
71
56
49
63
63
67
69
66
59
55
57
65
77
70
84
83
61
53
61
57
71
71
63
73
74
70
63
60
56
66
64
66
68
59
60
69
74
78
82
82
73
74
69
75
75
69
76
82
73
85
82
80
76
82
86
98
92
93
89
87
100
102
99
96
102
98
103
108
117
106
102
106
121
128
127
108
115
121
126
136
121
131
147
126
126
124
129
134
128
127
114
118
123
119
110
88
91
103
90
89
89
90
86
78
75
73
68
65
70
78
68
66
73
72
65
58
56
64
78
68
62
56
57
72
66
61
59
73
67
64
65
57
61
65
73
60
60
58
54
61
66
71
73
76
65
59
59
51
58
52
44
36
63
62
59
54
72
60
61
54
63
64
66
66
65
62
69
68
54
72
72
66
64
65
64
59
59
61
59
62
66
64
68
61
60
68
71
70
67
64
66
63
65
63
65
66
68
58
60
66
67
66
57
51
72
69
66
59
65
69
68
71
65
62
52
44
59
72
68
72
62
60
60
63
66
67
69
66
64
59
67
72
65
66
60
65
62
58
58
71
58
49
51
59
60
66
68
48
52
70
80
62
65
68
63
53
54
64
63
60
54
57
55
63
57
59
64
58
72
60
61
61
65
62
68
62
58
57
62
62
59
54
66
63
66
71
69
65
62
63
40
61
66
67
64
68
72
66
68
69
62
65
66
66
75
64
67
76
74
81
65
65
65
61
59
62
65
68
53
62
55
60
52
53
62
72
76
67
56
51
48
54
56
56
58
62
61
55
53
49
46
52
58
48
56
58
54
56
54
52
65
67
52
57
65
63
69
64
68
53
57
57
50
45
51
42
42
49
50
71
80
101
116
137
152
171
181
170
166
157
180
182
198
206
188
142
89
60
80
74
75
73
75
78
73
64
58
74
78
81
78
62
55
65
59
52
52
57
62
50
61
57
68
69
54
66
64
57
59
57
56
64
60
60
60
60
56
66
56
52
66
70
66
71
74
71
67
62
58
57
67
58
62
70
73
69
69
70
70
72
70
75
80
85
86
65
60
67
70
74
81
75
72
70
78
77
75
76
69
82
95
90
83
96
98
97
94
100
99
89
93
107
109
106
100
101
107
111
109
128
119
130
120
115
117
123
117
119
117
106
115
129
110
112
111
103
84
90
100
109
99
91
95
91
88
88
83
78
79
73
72
71
60
66
71
63
54
63
74
64
68
62
59
60
59
58
55
67
67
54
56
53
72
65
62
60
57
58
61
60
64
64
82
62
58
55
61
67
64
67
56
59
64
57
62
68
69
53
61
67
66
65
67
68
66
67
68
60
61
64
66
80
64
77
73
58
61
67
59
56
55
56
60
60
64
68
65
65
68
66
67
65
69
68
56
61
62
66
63
59
65
65
69
71
81
73
64
65
57
63
67
65
65
72
71
70
68
78
68
58
53
57
66
64
79
70
64
70
58
64
74
62
64
65
68
65
66
59
59
55
62
56
59
63
64
57
58
62
61
63
56
59
49
75
70
66
68
69
78
71
59
67
64
67
74
75
63
60
62
64
67
61
65
64
56
46
50
65
68
69
73
63
58
66
64
66
60
60
67
66
59
62
64
61
56
57
61
62
59
64
74
53
43
85
78
60
72
63
53
62
61
56
71
72
77
60
69
64
60
67
63
65
62
57
60
67
74
88
89
68
65
67
71
64
71
68
76
68
63
73
72
72
71
72
73
65
62
56
50
54
52
82
74
63
62
60
62
58
61
69
59
58
68
67
59
63
61
69
67
70
59
50
55
56
61
58
57
56
50
54
61
70
70
78
73
58
55
57
55
59
55
53
50
52
54
58
73
76
68
76
87
104
142
148
175
192
189
180
190
192
211
202
208
202
151
113
86
81
81
76
71
67
70
71
66
70
75
73
72
67
63
64
63
62
64
56
49
54
57
59
61
64
63
64
63
65
63
55
57
52
66
73
74
64
72
68
67
58
50
50
67
83
68
69
65
62
67
60
64
65
63
66
63
67
70
76
67
65
46
75
71
74
70
59
69
68
65
68
72
70
74
80
77
78
80
87
78
80
81
81
78
84
92
87
85
86
93
96
98
100
100
105
105
106
107
105
99
117
119
147
114
117
110
116
120
115
118
122
125
119
117
111
99
111
111
104
94
88
97
87
83
77
100
71
78
78
67
71
79
64
63
57
60
64
65
63
64
67
64
58
59
61
53
51
58
67
62
57
64
58
57
64
79
87
56
50
60
55
62
58
63
55
49
58
52
52
53
55
49
54
53
55
50
48
58
71
57
54
57
61
58
62
58
51
52
48
51
52
61
61
62
51
54
49
58
62
74
68
61
54
52
63
58
51
58
55
62
65
55
59
64
60
57
42
59
66
69
64
71
71
71
55
40
49
70
66
67
66
61
70
61
73
74
62
54
50
57
66
61
59
60
62
57
61
60
60
59
65
58
61
57
50
47
59
66
59
63
59
60
57
60
61
57
69
60
66
63
63
54
57
68
68
43
47
70
71
54
54
65
60
64
60
60
69
60
47
64
63
57
53
54
57
67
66
65
64
69
61
54
55
55
56
56
63
59
58
67
64
61
61
60
55
56
55
56
57
70
68
63
66
64
48
52
60
56
50
58
51
62
62
63
63
67
71
68
72
57
70
69
56
71
68
76
77
70
64
66
58
61
61
54
48
61
65
68
62
62
69
56
57
51
55
61
63
57
58
60
54
54
61
66
63
50
45
45
48
69
60
60
67
64
63
65
64
64
60
58
60
59
57
63
65
58
50
54
56
62
57
55
65
58
59
64
48
64
71
89
114
143
162
168
156
152
151
155
176
171
172
