-29
-32
-22
-7
3
23
20
16
-7
-24
-45
-42
-23
-8
-5
14
22
14
-14
-32
-47
-43
-35
-12
0
12
15
0
-16
-20
-37
-36
-18
3
8
22
22
5
-13
-26
-35
-30
-25
-6
9
22
15
-1
-18
-29
-29
-33
-24
-14
1
3
3
-1
-10
-50
-58
-52
-22
-12
-3
3
-2
0
-9
-33
-38
-31
-22
-18
15
29
12
3
-14
-47
-51
-49
-41
-28
-5
1
-5
-22
-29
-54
-51
-44
-30
-17
11
13
6
-6
-29
-53
-43
-36
-26
-24
-3
3
-10
-26
-26
-64
-75
-74
-54
-31
4
6
3
-14
-16
-42
-32
-19
-6
-13
-14
-1
-6
-21
-35
-49
-39
-28
-7
-1
20
20
0
-15
-25
-37
-38
-32
-7
-15
-6
-6
-21
-32
-39
-58
-55
-43
-30
-25
-3
-1
-15
-31
-45
-67
-60
-35
-13
-22
-6
-1
-12
-38
-46
-55
-55
-46
-22
-9
12
24
32
34
45
66
66
74
102
128
135
110
62
33
23
-4
-13
-12
3
22
25
17
-7
-29
-32
-35
-40
-22
-4
16
13
13
2
-11
-33
-39
-42
-29
-12
16
22
16
-2
-15
-24
-29
-33
-15
-2
19
18
10
-10
-8
-18
-14
-11
4
-5
15
16
9
-10
-9
-18
-17
-9
1
8
30
22
13
3
2
-23
-23
-10
3
15
37
42
27
18
12
-14
-9
-17
-1
13
47
35
20
1
1
-25
-18
-9
9
6
32
28
28
9
4
-14
-18
-12
5
0
16
36
35
23
12
-3
-8
4
31
45
64
59
41
12
15
7
6
16
36
47
57
54
45
30
19
7
9
18
38
45
64
67
64
43
31
22
13
14
23
43
50
56
46
13
2
-1
1
16
33
52
53
48
24
4
2
-10
-10
-6
10
24
34
28
14
-2
-21
-18
-12
3
14
34
21
17
-1
-7
-24
-29
-28
-9
-1
27
30
27
19
9
-19
-19
-21
-7
-4
19
25
23
15
2
-36
-34
-26
-11
1
20
12
5
-17
-13
-37
-30
-10
5
3
22
27
26
0
-13
-28
-24
-19
-1
12
21
27
39
16
-5
-25
-20
-13
7
6
36
49
38
9
-14
-22
-3
3
11
15
39
39
28
9
-4
-26
-27
-16
4
12
40
47
27
3
-3
-22
-15
3
18
19
40
32
21
2
-9
-18
-11
-8
6
12
29
43
34
19
6
-8
-11
1
18
23
45
45
26
11
2
3
-5
0
22
37
51
43
31
7
-13
-19
-14
1
16
29
35
31
13
3
-10
-15
-4
2
13
35
51
45
27
31
7
-2
2
7
5
41
35
28
13
-3
0
11
16
17
28
49
54
46
36
32
5
4
15
26
40
68
63
44
30
22
0
-1
-2
10
17
51
58
44
26
15
-16
-16
9
24
27
49
48
36
13
10
-8
-11
-4
15
20
44
40
30
10
6
-19
-17
9
30
39
64
83
84
84
97
113
122
146
157
153
170
139
105
87
57
10
2
16
36
43
59
56
44
22
18
-4
-5
9
27
31
57
52
37
20
17
-3
0
4
20
22
48
43
24
11
-5
-26
-20
1
30
53
71
67
47
22
0
-5
-6
9
29
39
46
41
24
14
1
-8
-4
14
32
58
71
56
35
24
-2
-8
1
19
25
39
44
40
26
23
2
2
8
28
31
51
57
51
33
25
2
-9
-1
25
29
61
67
54
34
32
3
2
3
26
44
68
69
56
34
27
-7
0
22
39
47
72
64
54
48
35
16
8
22
48
57
73
68
58
47
40
17
28
39
55
56
79
83
67
53
60
31
22
26
42
46
61
74
70
54
42
22
26
36
54
57
66
64
56
48
43
23
23
30
39
44
62
59
49
30
34
17
3
-2
9
31
43
37
23
0
-6
-12
2
24
29
46
51
45
43
15
-1
-5
-2
18
29
43
55
48
35
26
3
-3
3
17
36
61
68
64
49
18
3
-7
-11
-1
19
47
55
41
30
22
-7
-15
-11
5
24
52
61
57
28
26
3
6
14
26
40
64
65
53
28
17
-8
3
7
27
36
58
59
50
42
30
11
6
16
23
40
73
59
44
31
22
-3
-7
-6
43
44
67
59
38
32
31
-1
3
20
30
27
53
53
38
22
16
-14
-7
-2
37
36
55
61
59
50
42
20
13
9
31
39
51
52
53
39
34
2
-16
2
27
29
49
51
38
24
10
-6
-5
-2
19
29
42
29
17
25
10
-1
4
8
12
31
51
55
38
17
-9
-15
13
33
54
60
54
39
18
9
-13
-17
-6
8
12
41
35
40
45
16
-3
-3
-4
9
22
40
47
38
25
8
-12
-12
-7
15
25
42
50
39
22
18
-1
-1
0
10
11
34
53
57
31
28
4
9
17
24
24
58
51
38
19
17
-1
9
14
32
41
59
59
50
23
17
-10
-7
1
19
8
27
42
30
13
7
-14
2
13
11
9
50
47
24
9
7
-15
-12
-3
14
16
44
46
34
12
-1
-15
-17
7
45
77
115
132
137
122
128
114
102
112
109
96
97
88
55
39
35
6
5
19
25
32
43
37
25
11
6
0
3
12
29
25
37
44
33
10
-21
-38
-12
17
30
44
54
47
23
10
2
-3
1
18
27
35
50
46
15
4
-10
-10
-6
8
24
45
43
37
26
25
7
8
16
14
24
55
50
42
29
11
-12
-17
-7
16
35
58
52
47
30
16
2
7
15
22
25
68
56
48
28
33
2
-14
-4
19
36
64
62
45
27
29
7
3
20
43
37
69
72
58
35
31
3
4
18
36
48
85
76
73
60
49
13
1
16
55
61
81
73
55
34
44
32
33
62
73
79
92
80
59
36
51
31
24
37
46
58
97
66
62
36
32
26
27
37
56
55
70
67
54
34
25
12
14
37
50
50
49
60
48
41
20
3
10
26
34
36
49
45
38
10
-15
-5
-1
24
45
52
59
49
30
20
3
-3
-9
6
26
50
56
53
37
18
2
-6
-5
0
14
48
50
49
33
13
-15
0
11
24
21
55
54
42
28
17
-4
-9
3
18
30
52
47
43
23
10
-3
5
12
22
28
57
63
31
21
17
-8
-10
8
27
26
45
47
34
13
12
-12
-14
4
16
30
58
53
36
7
-12
-37
-18
21
33
29
55
58
43
25
16
-3
4
18
35
31
36
29
14
9
-5
-21
-3
16
45
37
48
50
33
8
-6
-29
-23
-2
23
35
52
53
47
18
15
9
2
11
29
30
49
47
33
17
3
-12
-2
11
30
35
41
33
26
11
-17
-22
-12
15
34
47
55
42
20
17
9
6
14
23
30
43
63
72
47
22
-2
3
8
33
43
60
66
56
34
26
1
14
16
24
33
50
48
49
33
21
-5
-3
4
21
29
43
40
45
27
15
-6
6
12
23
34
51
36
35
26
18
-16
-12
2
8
19
60
62
49
20
13
-4
5
37
77
90
112
130
141
126
138
98
80
69
74
74
76
73
45
22
24
2
2
12
22
22
48
53
48
28
17
-10
-3
12
20
20
45
49
37
26
16
2
-5
0
19
30
48
53
52
26
17
2
3
15
28
36
52
56
52
21
2
-1
2
12
28
37
45
48
27
21
7
6
7
15
25
54
60
50
21
9
8
16
23
31
43
51
52
43
40
30
9
3
1
25
45
61
57
59
46
34
5
1
12
25
34
50
50
62
52
32
23
13
21
32
35
63
69
72
59
54
25
31
35
55
56
70
65
70
56
46
16
10
25
53
55
80
81
75
70
59
35
34
43
54
61
84
84
70
60
67
37
34
46
55
64
90
86
79
55
41
21
18
32
56
49
52
55
56
43
26
9
8
24
49
44
46
59
55
32
12
-10
1
19
31
36
59
51
41
25
15
2
8
17
40
46
46
42
30
19
9
-2
7
15
46
45
58
62
44
19
10
-8
-2
18
26
46
57
54
41
23
4
1
-1
25
43
52
47
32
24
11
-9
-1
5
28
36
42
52
33
35
31
5
7
11
30
34
60
61
55
45
29
2
7
19
35
46
74
64
54
37
21
5
-3
4
17
34
55
47
49
32
32
10
12
11
14
27
49
48
48
32
28
2
6
14
30
28
54
56
41
32
32
9
10
12
32
36
60
55
43
31
25
7
4
15
37
38
55
58
46
34
27
5
9
-2
18
44
74
81
56
20
14
-10
-10
9
33
37
45
51
51
37
19
-17
-13
17
42
44
48
52
58
46
27
10
10
25
50
54
69
64
50
36
12
-1
20
38
51
61
61
55
47
28
13
8
9
15
26
61
82
71
56
41
20
10
19
48
51
57
66
69
55
45
22
20
18
28
38
56
56
52
43
42
20
17
19
18
23
56
56
43
31
14
3
9
17
37
44
64
63
58
38
24
-3
-4
4
30
31
63
68
59
49
54
58
74
99
139
162
186
190
165
130
108
66
75
65
57
47
65
89
68
50
32
2
3
7
27
48
61
51
44
15
21
12
15
19
31
32
59
57
46
40
24
-3
10
29
36
38
63
63
39
18
14
-4
-3
6
23
32
56
53
37
15
14
9
5
8
11
38
61
53
49
32
21
6
0
16
40
61
61
55
44
29
13
8
7
21
37
54
73
73
53
32
11
5
10
28
45
66
70
62
35
15
-2
-2
-2
24
56
80
88
72
52
38
18
14
11
18
25
63
69
56
46
38
23
27
31
52
62
92
83
63
55
52
23
14
28
45
50
78
72
73
66
54
27
36
37
53
59
85
88
81
67
51
24
21
39
56
51
69
75
68
52
42
15
28
33
39
41
66
59
48
23
29
17
8
14
29
38
59
58
46
28
27
3
3
13
30
33
52
51
40
17
6
-1
4
15
34
39
60
67
56
36
24
-4
-8
-10
-4
19
51
39
25
25
18
2
3
17
28
44
64
56
45
30
13
3
6
19
39
52
55
49
35
18
2
-7
-6
10
27
44
51
48
30
17
-3
-4
-1
15
30
59
59
52
40
25
-3
6
10
22
13
34
46
36
31
18
-4
-3
1
18
30
51
63
60
37
33
7
9
13
28
35
55
52
48
36
15
-3
7
22
39
41
54
46
35
22
16
-9
-5
9
26
32
57
60
61
48
34
6
8
4
15
34
65
56
47
28
19
0
10
25
38
31
55
46
24
11
15
-8
0
13
32
39
58
57
35
19
18
8
-1
16
35
43
65
61
49
31
21
3
5
14
35
44
63
67
47
24
8
-6
-5
11
39
54
57
47
28
18
9
4
6
12
29
45
52
34
23
35
26
12
19
23
32
44
61
63
53
24
0
6
12
30
46
69
78
76
48
28
7
1
7
32
41
69
69
76
61
45
21
8
16
31
39
58
50
49
36
26
-6
-9
-8
14
30
47
54
52
35
24
-5
3
17
38
36
54
45
28
32
23
-3
-5
10
23
23
53
65
59
50
58
57
67
95
137
150
180
179
160
126
101
67
66
64
60
49
80
78
57
40
31
11
5
6
15
26
61
68
50
40
39
12
1
4
15
15
51
51
53
30
21
-2
-5
7
26
35
52
48
41
22
19
-1
-9
7
35
53
58
48
38
24
3
1
1
14
41
44
55
54
41
21
8
4
-4
4
24
45
50
45
31
15
-1
8
13
18
37
63
67
63
36
19
2
-10
-11
4
28
56
59
48
38
36
15
16
21
33
45
66
69
66
52
28
12
20
18
25
36
67
70
65
48
44
15
19
25
40
50
72
75
74
59
46
26
26
42
50
46
67
77
69
60
48
21
27
43
58
65
92
88
81
59
56
31
28
33
48
41
65
64
67
50
38
22
16
31
56
47
64
69
61
34
40
27
39
46
32
24
61
62
45
25
18
-5
1
10
28
34
54
59
48
28
16
0
-6
10
34
48
62
54
44
19
9
-4
4
14
29
39
53
42
21
9
-11
0
13
42
54
50
53
49
39
22
9
3
7
22
34
49
58
58
33
8
-24
-20
12
14
48
82
68
60
42
26
4
5
9
27
36
55
61
50
36
27
10
14
20
38
50
63
62
49
43
13
-11
0
10
21
33
57
56
39
16
2
-10
4
11
51
54
72
64
51
36
23
1
-6
9
31
31
52
50
40
42
51
10
3
11
31
36
56
54
48
31
26
1
8
12
31
37
52
43
26
23
27
-1
-5
12
37
43
63
61
47
33
24
3
4
12
30
30
55
55
52
40
24
8
9
19
33
37
46
46
42
21
18
11
12
24
37
50
57
54
39
27
13
-13
-5
24
45
57
66
55
40
24
12
10
9
22
37
51
63
53
21
-3
-12
-7
-4
15
34
63
61
64
51
37
17
8
9
28
43
56
60
55
43
40
9
1
12
27
44
71
80
66
45
15
-7
2
24
40
38
67
67
61
51
45
21
20
30
47
52
73
81
69
50
34
13
16
16
31
39
63
69
64
52
42
17
16
19
33
39
73
63
47
27
18
6
16
36
45
36
54
52
44
30
24
11
10
31
51
72
103
119
121
121
134
123
136
155
170
157
142
128
114
74
36
18
47
51
64
66
75
64
65
52
35
28
31
42
52
55
71
68
47
29
26
11
17
32
49
56
67
79
58
34
15
21
24
32
48
53
76
78
63
41
18
20
18
30
40
56
80
77
62
31
13
21
25
36
58
71
81
77
58
43
10
11
25
48
58
74
71
71
59
41
13
25
33
42
47
66
73
62
50
44
10
18
27
44
65
80
74
74
48
39
20
22
24
46
65
81
81
71
58
54
28
32
41
55
62
87
85
81
59
54
21
26
45
67
72
90
92
80
66
64
33
29
48
75
75
93
91
64
38
51
31
33
34
57
81
105
102
87
58
52
21
24
34
60
70
88
79
60
41
36
19
22
28
50
52
70
67
52
26
16
2
9
21
47
52
55
53
47
26
4
1
0
11
35
44
50
32
18
7
-6
4
4
15
24
48
63
48
36
15
0
-14
-16
27
34
57
60
46
25
9
-10
-6
-4
9
30
55
53
41
31
27
-11
-21
-9
3
14
37
51
42
31
24
-5
2
-6
7
27
56
47
25
10
-1
-19
-13
0
20
28
54
50
40
9
8
-14
-19
-8
10
12
42
50
37
16
11
-13
-14
-5
10
11
46
52
29
10
10
-13
-7
-9
8
21
44
44
42
23
10
-14
-24
-15
5
13
32
29
21
5
-3
-19
-16
-9
13
21
39
37
26
4
-8
-22
-18
-10
11
21
31
42
25
0
-1
-22
-36
-9
9
31
42
38
12
8
5
-4
-6
-4
11
25
26
23
26
7
-8
-17
-12
5
16
33
39
29
16
1
-10
-12
-12
-6
9
32
22
23
14
-3
-17
-9
-12
-4
15
24
26
36
26
23
-3
-9
0
14
28
50
47
41
22
19
1
6
22
27
18
44
50
42
10
3
-10
-16
-9
12
12
34
39
27
11
-2
-27
-20
-7
16
19
40
40
31
9
6
-15
-10
2
8
18
48
49
38
13
4
-12
-16
7
43
58
102
118
118
103
108
88
88
92
84
65
77
62
42
27
11
-7
-1
10
19
28
52
54
42
27
17
0
-2
4
17
31
53
49
31
5
7
2
9
15
35
41
51
49
34
11
11
-3
-1
24
33
43
49
56
48
21
7
-3
4
21
38
52
54
59
42
21
3
7
4
21
33
51
59
59
43
23
5
13
12
27
39
59
70
69
44
26
10
10
14
30
47
69
75
74
41
32
1
10
21
34
42
64
65
52
40
45
29
20
22
39
42
74
66
56
56
52
29
35
47
58
61
74
87
82
65
39
24
26
49
74
73
89
91
86
74
63
52
35
44
72
78
93
97
82
62
56
42
47
55
70
71
87
86
82
71
51
30
27
36
54
76
105
88
73
58
38
17
21
36
47
37
55
54
48
33
26
6
14
21
32
41
55
54
39
21
13
3
9
10
35
44
44
52
50
26
0
4
14
16
28
40
49
38
24
15
17
13
15
24
41
49
56
49
37
21
-1
7
8
27
30
46
47
53
40
33
5
5
7
19
33
49
57
49
33
19
1
4
5
12
27
50
60
51
37
26
5
7
5
16
29
55
60
55
41
25
-1
-8
-1
10
22
64
50
37
35
20
-11
-19
8
29
35
56
65
57
34
15
-4
10
24
37
32
54
47
40
20
9
-9
-9
16
33
40
65
70
59
38
17
-23
-20
-5
24
34
49
50
41
19
13
1
1
9
29
34
64
57
37
7
7
-13
-12
8
24
37
53
51
36
17
15
-1
-1
10
24
42
50
46
37
22
3
-2
1
11
25
40
52
51
36
17
4
3
16
25
42
72
67
47
37
24
-1
-6
2
22
39
59
67
59
44
33
9
13
14
28
40
56
49
29
28
44
24
23
17
32
42
61
54
56
40
26
5
-1
1
14
24
61
54
41
23
7
-27
-14
9
16
29
61
58
48
17
4
-14
-6
4
15
31
68
80
87
90
97
89
103
122
152
159
155
145
131
112
79
22
2
11
39
46
69
68
60
37
9
-19
-14
3
22
26
53
53
40
26
16
-2
-1
20
37
46
55
44
36
20
16
-2
-3
8
23
26
55
56
42
20
18
8
10
26
37
49
61
47
37
20
0
-16
-12
-3
20
35
58
51
39
33
27
14
18
14
32
46
48
48
43
29
11
0
4
12
30
60
62
58
50
42
17
4
0
20
37
55
62
53
42
27
16
14
16
28
39
64
74
71
55
48
25
27
29
36
37
67
79
66
53
43
14
20
27
52
59
79
81
68
47
50
36
34
41
61
67
88
90
88
67
59
39
33
35
45
46
79
98
86
70
76
52
40
42
56
70
97
105
77
37
34
12
17
20
43
42
66
73
67
47
38
6
7
21
39
40
60
56
41
25
26
2
7
25
39
47
53
55
50
31
21
7
3
21
29
46
66
61
45
29
15
1
2
21
30
33
52
61
49
41
24
10
19
31
42
51
59
50
25
9
5
6
10
24
43
61
65
62
46
24
7
-1
4
23
38
67
66
59
49
35
9
2
9
26
36
66
73
64
48
40
14
12
11
24
37
55
59
56
37
22
0
4
7
26
40
58
55
50
35
22
3
1
14
38
36
56
63
52
41
29
11
9
11
27
27
63
68
50
29
23
-12
-2
9
28
29
55
68
62
40
27
3
7
17
41
40
57
61
46
31
19
-9
0
10
29
39
56
51
44
29
26
6
5
20
42
45
60
54
42
21
14
-2
5
14
41
51
65
55
32
27
0
-17
-8
13
32
43
61
58
47
30
4
-2
7
17
30
41
55
49
42
21
4
-9
-2
23
40
59
62
58
42
27
10
14
21
28
39
56
59
60
45
36
10
11
20
32
41
70
67
60
53
41
11
-2
-4
21
40
60
61
55
36
26
-10
-10
0
21
28
50
47
37
29
21
-1
5
11
21
26
51
59
43
22
13
-10
2
13
24
29
53
69
93
104
106
100
127
134
153
157
159
148
128
98
81
28
7
18
33
39
68
70
47
27
20
5
-3
5
27
29
56
64
46
23
14
-17
-25
-12
18
31
51
41
21
24
1
-15
7
30
36
39
54
54
46
27
8
-22
-4
24
38
38
46
46
37
17
3
-4
3
17
36
51
59
50
35
20
6
-5
-12
6
21
41
64
63
37
18
2
-2
9
15
30
48
46
55
37
26
15
15
9
20
42
70
65
55
38
20
7
4
8
25
34
60
75
59
43
29
8
12
12
43
55
76
71
62
53
33
2
-3
7
52
59
89
91
85
69
56
24
16
23
38
54
79
81
71
57
42
29
37
43
65
68
91
95
90
70
62
21
25
32
44
56
84
86
68
51
39
15
11
20
35
41
61
52
50
38
31
4
2
17
27
36
58
51
41
19
15
-8
-14
7
32
35
59
55
41
13
11
11
9
22
35
38
53
47
39
28
16
2
4
20
25
39
53
51
44
21
3
2
2
12
27
42
47
36
26
11
0
-12
-10
30
40
58
62
55
38
18
-7
-9
7
25
33
60
65
57
44
28
6
3
3
22
32
55
59
49
35
15
-11
-14
-5
32
43
67
63
53
38
28
-7
-2
4
17
29
43
43
51
30
22
3
1
5
25
41
61
60
47
35
30
-3
-1
11
21
32
57
60
41
23
30
4
4
8
30
32
56
57
45
24
16
-6
-10
12
20
28
54
58
48
33
19
-1
8
21
41
43
66
60
29
-3
-2
-9
-7
18
26
33
54
53
40
13
2
-16
-5
20
31
50
71
62
50
27
12
3
1
19
42
55
65
57
43
25
6
-5
1
17
34
50
65
52
40
21
2
2
-1
15
29
53
61
50
26
14
-9
-11
-11
3
27
54
52
45
27
20
-16
-8
12
31
46
60
47
44
49
37
8
6
11
21
34
71
83
69
46
34
13
12
16
29
41
65
74
52
35
29
-3
-6
3
21
34
65
62
45
27
18
-12
-8
6
27
26
43
50
46
34
27
-1
5
10
20
27
55
53
51
27
18
-7
2
12
33
56
103
116
123
128
137
127
142
143
140
129
134
123
106
65
43
16
20
32
47
49
67
60
52
37
17
-2
4
16
30
42
57
54
38
15
9
-5
-7
13
31
41
54
51
41
14
7
-13
0
17
30
43
54
56
37
24
7
3
5
15
31
53
65
57
47
22
14
2
9
19
30
58
62
59
44
25
2
6
9
11
28
47
50
44
36
28
-2
2
8
19
21
34
67
66
44
32
6
0
7
20
36
60
75
64
46
31
6
14
26
45
59
84
72
61
28
29
12
13
21
39
45
76
77
58
45
39
21
16
26
41
47
69
65
66
64
51
13
19
30
64
69
84
81
67
59
57
29
31
41
65
66
85
85
76
62
50
26
28
29
52
55
65
73
68
52
33
8
13
26
47
43
62
62
45
17
18
6
-2
11
34
44
48
49
41
14
-2
-15
-16
6
18
23
41
49
42
16
-3
-5
-9
0
20
47
48
43
34
13
-3
-12
-13
7
21
33
48
45
29
16
-9
-13
0
22
23
45
44
41
26
13
-6
-11
-11
7
22
49
49
32
24
24
-8
-4
-2
9
26
44
47
47
30
10
-11
-7
4
25
27
46
41
29
18
10
-16
-18
-9
17
26
55
48
53
40
31
-5
-6
-5
9
28
45
48
34
15
13
-21
-10
-1
14
33
62
59
51
35
31
-5
0
4
26
24
38
36
23
10
10
-26
-12
6
25
34
67
68
57
38
12
-2
11
14
23
21
43
51
53
37
14
-3
-3
10
29
31
54
55
34
12
0
-12
7
19
40
50
58
57
45
27
6
-11
-12
8
35
39
61
51
37
27
5
3
5
18
42
64
66
58
40
19
12
6
5
23
48
61
62
55
41
24
-1
0
0
13
33
57
52
35
31
33
7
6
15
20
26
62
57
47
42
24
0
14
11
23
53
83
78
61
38
10
-3
13
33
51
67
82
72
62
42
36
10
19
24
33
35
64
66
52
21
21
5
5
18
33
39
56
62
52
38
15
-2
4
16
24
34
71
65
44
29
26
1
-3
0
25
31
59
65
57
45
58
55
78
105
143
168
196
206
183
149
120
79
93
96
67
60
76
73
70
59
51
31
23
28
43
50
60
58
48
31
19
4
10
21
40
46
68
54
39
24
16
6
-5
5
41
58
69
67
52
36
8
1
14
28
41
57
65
79
64
43
18
10
21
43
50
66
70
66
52
46
14
10
13
31
42
54
60
56
51
33
5
6
19
36
49
65
69
63
50
40
16
15
27
50
58
88
75
65
52
42
13
18
27
47
53
78
76
71
59
54
34
31
41
57
59
87
88
76
61
45
28
27
35
60
69
88
89
76
54
53
28
25
49
82
85
104
96
81
66
60
33
42
48
69
79
103
110
102
74
60
30
28
49
66
84
100
93
78
50
46
24
29
45
59
65
72
67
63
53
40
23
20
23
39
53
72
77
56
33
26
6
3
7
35
54
66
59
46
33
11
8
7
19
36
48
62
62
41
9
-13
5
9
16
20
58
70
63
48
34
4
-1
2
15
17
60
60
63
46
31
9
16
20
19
27
45
53
51
38
22
-6
-2
10
20
31
60
62
46
28
32
10
3
-4
2
18
41
61
52
22
19
-4
-17
-5
5
20
58
68
52
30
26
4
2
8
29
35
59
52
40
24
12
-5
7
22
29
22
36
37
33
22
12
-12
-3
4
26
18
46
49
34
18
18
-3
-5
8
23
23
51
48
42
23
12
0
4
10
11
13
41
51
54
25
14
-1
1
12
19
15
21
23
37
21
7
-4
-5
7
23
30
42
40
31
16
6
-3
-9
4
29
47
52
47
33
21
-6
-24
-22
6
29
43
51
43
23
18
-6
-17
-15
14
26
38
42
44
22
19
-15
-17
-10
6
23
51
54
46
29
21
6
6
4
9
35
58
57
51
33
27
3
-10
-16
-1
11
39
34
27
17
13
-26
-27
-12
1
1
42
44
26
4
-1
-21
-31
-19
21
28
34
41
32
12
-5
-32
-27
-16
13
22
43
46
40
26
34
41
48
69
100
114
138
124
87
52
51
13
-7
-4
2
-1
18
26
18
-5
-12
-32
-33
-8
9
18
34
33
12
-14
-17
-31
-27
-23
0
13
19
18
15
-6
-16
-30
-42
-30
3
22
35
30
12
-19
-38
-42
-41
-24
-6
14
25
15
5
-21
-35
-28
-31
-19
-3
12
8
4
-14
-26
-37
-43
-33
-20
-12
7
15
14
8
-27
-60
-50
-37
-22
-8
23
21
22
2
-16
-39
-41
-30
-16
-13
16
8
0
-9
-6
-35
-32
-18
0
1
21
17
16
7
-4
-33
-36
-28
-9
0
32
33
24
11
5
-7
-11
-11
6
12
37
43
33
14
18
-7
0
9
23
19
26
44
49
26
22
-2
0
14
25
23
40
57
56
37
22
-2
0
13
28
25
57
58
42
21
8
-12
-8
-1
19
19
39
30
28
9
-1
-16
-13
8
12
20
32
39
17
11
1
-25
-13
10
25
33
49
41
23
2
-16
-29
-29
-2
21
35
47
48
42
4
-16
-15
-12
5
20
33
44
36
21
14
-6
-15
-5
0
22
48
55
49
25
16
-3
-7
-13
10
14
37
50
50
33
30
0
-5
-4
23
43
56
46
35
26
18
-1
11
13
16
24
50
47
59
46
26
-15
-9
10
22
33
52
54
43
27
20
-8
-7
2
19
23
42
40
40
28
20
-8
-9
-5
14
18
46
55
35
37
31
7
0
3
18
41
56
56
50
34
24
5
6
14
33
35
56
53
49
29
19
-1
3
15
35
41
57
58
59
45
35
19
13
19
38
42
53
52
54
28
19
6
9
20
37
48
61
53
38
29
11
2
5
13
30
46
63
63
49
38
18
6
3
8
26
51
59
50
37
27
0
-5
11
30
74
99
122
143
149
145
132
125
118
127
129
141
130
96
59
34
12
8
15
38
38
59
61
54
37
20
2
4
7
21
33
57
63
57
37
28
2
-2
-5
8
14
57
63
52
31
14
-17
-17
-5
17
32
55
51
58
31
18
-22
-21
12
29
36
69
66
50
24
17
-3
-1
2
26
39
61
58
45
22
32
8
6
17
29
44
59
66
47
29
26
1
-4
9
31
43
67
60
38
18
24
6
14
32
45
48
61
55
38
26
24
7
4
22
56
60
65
86
84
51
31
31
26
32
54
59
76
75
65
47
38
23
20
35
59
73
82
74
56
43
30
31
26
42
59
80
87
78
52
42
30
26
31
38
45
63
71
73
64
52
31
27
33
40
48
45
50
57
40
20
-7
-8
0
10
22
44
43
29
15
4
-19
-13
-13
4
14
45
41
32
11
-5
-29
-27
-17
11
20
38
27
10
-4
-12
-30
-27
-20
-6
6
42
49
29
1
0
-20
-22
-17
4
7
27
27
16
-6
-10
-29
-25
-11
6
9
27
24
6
-15
-3
-18
-25
-18
-2
0
28
36
39
23
7
-20
-28
-11
9
4
27
20
13
4
-5
-27
-24
-12
6
16
38
30
14
-3
-12
-18
-16
1
13
23
35
35
30
3
-16
-34
-22
4
23
21
30
30
27
18
-2
-15
-14
0
17
35
42
45
28
16
2
8
13
21
30
38
44
36
28
19
-2
6
7
21
32
52
56
52
37
31
10
5
11
31
45
65
72
61
49
42
25
17
33
53
62
94
104
85
57
50
30
33
33
51
61
85
87
72
53
54
24
28
30
46
58
88
85
76
59
53
26
18
27
53
59
88
84
79
52
47
19
15
25
50
55
69
75
84
76
87
89
87
112
149
172
204
215
197
159
140
101
99
101
90
80
98
95
88
78
70
51
43
48
65
73
94
82
71
60
49
31
37
49
52
65
84
81
64
46
23
11
26
52
73
79
85
75
65
46
28
16
4
21
59
84
103
95
76
65
45
40
45
48
64
88
88
83
72
52
34
37
48
69
72
86
99
88
71
59
40
41
41
48
50
73
85
79
65
57
36
47
48
59
63
86
90
86
62
51
25
34
41
65
70
101
109
99
82
71
56
53
62
74
85
111
112
103
83
85
57
53
73
89
85
112
116
104
85
80
58
64
70
88
98
117
116
109
84
74
56
56
67
84
82
104
122
122
100
79
58
61
71
81
80
111
115
99
77
71
50
48
61
75
72
92
95
84
70
67
35
29
40
61
71
72
79
69
54
36
22
24
38
69
78
77
58
39
25
45
25
17
36
47
68
79
70
65
52
29
31
34
39
59
84
88
82
70
45
29
22
20
39
48
70
72
69
53
33
21
19
26
37
59
77
73
56
43
45
13
15
27
48
49
61
74
66
45
34
16
24
26
42
53
76
76
69
55
47
23
21
25
41
49
73
74
65
45
42
20
16
24
23
35
75
76
70
50
51
21
17
19
30
32
58
63
56
36
31
4
3
23
39
38
61
66
56
42
32
12
16
27
44
48
71
68
59
41
29
5
4
25
38
46
68
57
44
46
30
10
8
18
35
64
92
84
46
4
-2
13
9
13
50
57
65
72
60
43
51
29
21
29
43
63
81
73
56
33
22
16
21
31
38
59
78
71
55
32
11
4
3
18
30
52
58
54
41
24
8
11
10
24
34
53
52
49
46
31
0
-2
-6
17
43
70
67
57
40
27
16
28
52
84
124
168
175
176
170
146
91
81
71
80
74
78
63
58
49
41
13
12
24
35
36
60
53
42
25
33
2
1
12
28
36
59
55
45
29
26
-2
-1
5
25
31
50
43
27
14
36
16
17
13
24
31
58
53
38
18
20
-10
-13
-4
25
38
63
61
44
21
21
2
3
16
34
43
60
58
43
25
14
-6
-5
11
34
46
63
57
45
28
21
10
2
10
37
47
60
45
26
7
0
3
22
37
44
55
62
52
55
28
3
6
12
33
48
63
70
66
52
38
21
18
25
33
42
65
72
69
55
41
33
33
33
46
53
80
74
80
71
59
41
39
34
47
54
81
88
79
63
54
21
28
39
43
48
70
72
67
47
41
15
29
37
44
44
71
68
59
40
27
5
7
15
31
35
62
59
46
25
15
-20
-5
18
37
42
65
67
53
38
24
4
2
0
20
33
53
56
40
22
29
-8
-3
14
30
24
52
69
60
48
30
-5
-7
5
21
30
55
50
36
16
13
-1
-5
15
32
38
57
54
44
16
-1
-10
-8
11
31
45
45
53
46
29
16
1
3
23
48
58
55
54
45
27
15
0
7
23
50
70
64
45
28
14
5
-3
1
15
32
55
62
54
41
31
-4
-15
-17
9
26
47
63
67
43
19
-4
9
7
17
32
47
46
41
27
22
-1
-8
4
30
37
56
52
53
32
15
-4
-1
-2
14
22
58
60
44
33
29
1
-4
3
20
25
60
59
46
28
12
-13
-1
16
30
28
54
51
33
18
15
-9
-9
8
25
31
65
63
44
21
12
-8
-2
9
29
38
56
57
49
26
14
-9
-7
4
19
27
52
56
46
22
5
-19
2
15
45
37
53
61
48
30
15
-3
-8
10
44
55
59
50
43
29
9
-6
-6
9
23
34
40
61
52
28
7
-9
4
11
25
50
64
68
43
25
6
-7
-10
2
13
36
40
37
23
6
-10
-15
-12
18
37
73
98
103
114
132
117
122
127
134
126
134
117
111
82
45
6
0
5
27
50
66
58
53
26
20
-5
-1
8
26
25
60
73
58
31
21
-4
-6
-2
3
18
57
56
43
21
18
-13
-16
-4
17
24
52
52
42
23
20
-6
-5
6
23
31
62
57
45
27
15
-12
-6
3
24
27
49
40
26
16
20
12
-1
18
42
36
54
60
45
30
29
2
0
20
34
34
51
63
49
34
22
2
-3
9
33
37
54
62
42
17
7
15
30
31
35
55
69
63
47
26
21
20
20
33
52
61
68
74
59
44
26
21
23
38
46
59
85
81
74
49
28
29
32
39
49
64
68
57
66
61
33
39
46
51
63
81
87
77
69
68
43
41
31
33
54
84
81
67
45
35
9
14
14
29
37
66
69
52
31
27
0
-8
-9
9
20
59
48
49
33
26
-1
2
2
22
39
55
56
42
33
42
2
-2
8
31
38
65
61
53
32
19
-1
6
23
31
39
64
55
40
20
18
-2
-6
-2
23
26
47
49
44
18
13
-3
-8
1
26
42
68
66
49
28
21
7
7
20
37
44
64
61
47
16
3
-4
-2
14
45
55
78
64
38
20
9
4
3
12
23
40
41
55
48
16
14
13
-5
13
34
49
65
52
37
21
2
-6
-2
16
32
49
61
59
42
25
0
-7
-6
16
28
48
59
58
38
29
3
-3
5
21
33
55
66
51
26
20
-9
2
12
26
37
58
58
44
27
22
-7
-11
1
11
30
57
53
45
33
27
-2
-10
1
23
32
47
37
35
29
18
1
1
9
20
27
49
53
58
27
25
10
18
28
49
51
73
70
58
33
26
2
7
17
39
50
65
61
48
37
26
0
-13
-5
11
26
51
62
48
33
19
-9
-7
4
19
25
42
38
18
7
7
-8
-18
-14
1
34
63
48
30
20
5
-13
-16
13
37
52
67
92
104
106
98
109
125
148
166
171
167
144
114
79
31
3
-1
17
26
43
53
48
29
15
-2
-3
1
13
23
41
32
29
32
19
-2
-2
-3
20
24
46
53
47
27
16
-9
-7
4
18
25
56
56
56
45
27
6
-2
-10
6
22
50
36
31
31
10
-9
7
3
11
12
34
43
42
29
28
-5
-15
-10
13
23
52
51
55
37
24
-6
5
16
28
28
56
60
54
36
24
-3
1
9
31
45
83
82
62
32
26
-5
-16
8
25
31
54
51
39
23
25
9
6
15
35
43
63
72
61
40
34
16
19
30
46
55
82
82
69
58
51
32
32
39
63
71
87
81
74
63
51
35
36
47
52
69
82
69
52
44
25
22
16
23
42
63
69
58
36
16
0
5
15
25
37
48
56
53
29
10
-15
-2
1
12
17
52
63
56
40
22
-6
1
6
21
35
54
52
43
27
13
-11
-9
-5
5
20
37
31
28
6
-13
-28
-5
0
9
13
47
42
39
19
4
-15
-15
-15
3
7
43
46
30
17
8
-14
-2
13
19
17
39
45
30
10
-3
-34
-9
-10
21
47
62
62
44
28
26
-2
-6
-6
9
16
36
39
23
10
9
-13
-15
-1
8
19
43
48
35
8
-7
-30
-20
-9
14
25
39
21
29
23
0
-10
-12
9
27
34
56
58
42
20
1
-16
-17
-1
22
33
44
43
27
14
-2
-11
-22
-13
11
41
47
45
24
-11
-33
-25
-23
-3
22
31
44
38
19
7
-13
-15
-4
12
24
42
43
42
27
6
-22
-14
-16
3
21
52
50
40
27
27
0
-1
-4
9
11
38
61
47
37
22
-8
-3
5
16
30
62
63
37
36
28
-8
-7
1
19
20
59
53
41
32
24
-20
-30
-18
4
23
37
38
33
16
7
-17
-18
-2
10
22
54
53
36
11
3
-12
-11
-2
6
14
46
54
51
50
64
60
78
110
143
156
181
178
136
109
97
54
41
28
35
44
64
77
56
28
-2
-17
5
15
25
30
55
56
40
18
15
-1
-2
8
28
38
53
58
34
13
4
-2
-1
9
22
37
46
39
33
20
6
-1
-3
9
27
39
43
43
18
19
5
-9
0
28
26
46
47
41
33
20
1
-3
4
25
37
53
55
57
40
23
2
3
11
29
33
57
59
51
43
28
-12
-5
-4
29
36
51
45
53
40
49
12
7
3
27
38
63
64
54
38
28
6
16
29
49
57
80
78
67
53
55
25
30
37
47
53
82
86
79
65
57
36
24
30
47
57
88
79
77
72
65
50
47
42
68
72
87
80
66
58
55
26
18
34
65
73
90
79
64
47
31
12
26
47
56
55
64
66
53
22
9
-9
1
23
39
31
60
62
48
39
17
0
10
21
36
50
61
47
38
8
-7
-4
1
18
30
45
53
41
41
21
7
-3
0
15
25
42
53
55
41
20
1
-7
-13
-3
23
49
44
43
44
25
6
-13
-9
20
32
51
57
54
30
21
2
0
4
22
21
48
49
49
34
21
5
5
0
15
25
50
47
43
33
21
-12
-5
9
24
26
55
55
38
14
4
-10
-14
6
27
31
48
53
42
22
10
-14
-13
-17
10
17
27
39
36
31
25
-2
-5
11
22
25
49
48
34
20
14
-11
-12
-1
17
25
41
32
24
22
10
-15
-11
-10
5
11
44
70
60
35
2
-11
0
16
37
47
56
53
33
11
-4
-14
-5
4
18
29
49
47
37
26
14
-2
-1
14
30
43
46
46
45
34
24
14
0
25
47
57
61
59
47
22
-1
-5
-9
15
26
51
55
45
45
27
2
5
7
15
29
56
56
36
18
14
-20
-14
-13
3
11
45
46
37
20
15
-7
2
21
58
80
125
139
153
158
157
138
128
118
107
93
109
96
57
36
41
10
11
20
27
37
64
66
68
47
34
5
-1
2
11
25
41
45
39
18
12
-17
-15
2
9
9
34
48
40
12
12
-13
-13
-6
12
19
32
36
32
15
10
-12
-16
-5
8
17
41
43
32
24
19
-7
-2
18
38
42
65
58
42
27
16
-7
-13
7
25
28
40
44
40
31
18
-6
-11
-1
14
35
46
52
38
21
3
3
-3
17
28
38
48
45
26
10
-1
0
8
30
52
71
67
64
46
31
17
13
19
37
47
65
75
72
53
43
20
19
25
39
51
72
76
65
49
47
25
27
27
42
53
75
72
67
58
45
17
14
26
37
55
75
76
71
53
42
19
19
19
33
37
57
61
45
25
16
3
0
5
21
24
51
42
31
11
21
-8
-16
-9
8
11
39
47
35
13
4
-28
-27
-3
20
18
38
28
17
6
-7
-26
-20
-7
8
17
35
32
11
-5
0
-24
-21
-5
14
18
32
20
10
1
2
-22
-24
-8
5
15
29
32
23
5
-4
-18
-17
-8
-5
2
19
15
-5
-14
-28
-41
-34
-9
13
24
24
24
15
-2
-20
-22
-21
-1
11
25
28
18
1
-5
-21
-18
-12
-1
9
32
28
16
-14
-15
-35
-35
-23
-9
11
32
26
19
4
-11
-33
-23
-26
-20
-8
13
14
7
-7
-17
-38
-28
-22
10
11
22
23
9
-8
-15
-41
-41
-27
-7
3
22
29
20
-11
-14
-27
-28
-18
-6
-1
18
16
10
4
-3
-21
-22
-25
8
20
32
33
12
-11
-21
-28
-29
-19
13
17
31
25
10
-3
-12
-33
-24
-20
-10
3
20
12
3
-22
-26
-42
-38
-30
-17
-16
2
10
-6
-6
-16
-43
-33
-25
-4
3
9
5
-4
-25
-36
-52
-49
-30
-11
5
30
41
45
51
58
77
93
109
128
134
138
118
70
49
13
-6
-3
-5
2
14
24
18
3
-5
-33
-41
-41
-11
-5
14
24
20
-5
-32
-38
-34
-44
-28
-22
-2
0
5
-1
-17
-46
-43
-43
-26
-7
24
11
3
-13
-17
-36
-36
-31
-11
1
15
2
-8
-6
-19
-51
-33
-12
0
-3
18
24
19
2
-1
-28
-29
-19
-3
3
28
23
21
0
-11
-35
-27
-10
11
23
51
36
28
14
7
-16
-18
-1
13
14
45
41
31
12
5
-7
-14
8
22
22
52
55
49
17
13
-8
-7
11
30
44
72
69
50
41
40
12
19
25
50
54
63
62
60
51
39
19
27
38
57
77
80
77
71
53
41
40
47
53
59
76
75
74
56
37
23
11
8
29
55
64
70
59
45
23
9
7
10
28
47
61
61
52
41
22
7
8
7
13
20
40
56
45
27
20
5
2
5
16
36
52
51
39
20
25
6
-4
-2
24
38
55
48
39
25
19
-7
-7
-1
20
31
52
55
44
32
30
3
0
8
25
31
50
49
38
21
24
-8
-6
8
40
46
60
57
42
28
20
-8
-1
11
31
42
64
57
43
36
30
8
9
20
26
34
61
59
45
30
19
1
11
21
41
47
63
62
50
29
21
6
11
23
42
40
59
61
50
35
21
1
0
13
28
32
45
52
46
27
15
-1
1
8
20
45
60
59
32
10
4
-7
-7
11
35
49
53
50
41
28
5
0
-2
18
32
49
63
48
34
24
8
6
12
25
32
51
55
63
51
30
10
9
14
25
37
54
52
44
21
21
0
7
7
18
20
38
40
43
20
11
-20
-18
-6
17
25
43
32
31
16
2
-19
-4
0
15
18
41
39
33
12
0
-35
-25
-10
3
1
20
24
23
16
32
39
59
79
117
136
169
175
154
121
109
81
70
62
48
29
40
44
40
14
7
-18
-13
-14
2
16
39
38
12
12
-3
-27
-31
-15
20
20
37
39
25
10
-2
-19
-10
2
19
37
49
39
14
-12
-18
-20
-11
4
19
28
38
47
33
9
-12
-34
-26
5
20
27
34
30
15
-7
-31
-16
-6
6
15
46
42
35
19
8
-16
-13
-8
14
31
51
58
44
32
16
3
4
1
9
16
26
41
46
24
15
2
0
7
24
39
58
59
50
37
19
-9
-6
8
29
28
52
62
60
50
40
11
10
9
30
38
64
60
53
35
30
9
9
20
42
50
74
70
59
43
41
25
24
36
50
44
67
73
66
42
24
0
1
18
37
41
54
61
56
31
15
-14
-12
4
25
23
51
51
31
11
4
-20
-21
-19
-3
9
18
15
-3
-16
-20
-27
-20
-12
7
10
31
21
13
0
-12
-30
-20
-7
4
18
33
26
7
-12
-32
-41
-31
-15
4
11
22
20
8
-8
-31
-42
-40
-24
-12
-2
11
12
-6
-23
-39
-29
-28
-20
-9
2
11
9
1
-16
-31
-27
-31
-15
-6
-2
2
17
-4
-16
-29
-33
-23
-14
-5
20
8
5
-4
-10
-38
-31
-32
-23
-1
26
24
10
-8
-17
-33
-33
-36
-27
-15
9
10
9
-6
-19
-48
-62
-48
-15
-9
10
15
0
-14
-19
-41
-33
-16
-6
-7
16
25
19
-6
-10
-43
-37
-20
-2
3
29
20
-4
-18
-21
-41
-41
-36
-18
-11
8
8
-8
-32
-34
-59
-49
-18
-7
-4
18
9
-3
-16
-22
-42
-35
-21
-12
6
32
19
5
-14
-20
-21
-20
-7
12
10
22
24
15
1
6
-5
-9
-11
4
12
11
9
-1
-11
-19
-29
-34
-15
-5
5
11
2
-9
-22
-35
-40
-36
-24
-17
2
6
8
-3
-17
-34
-35
-29
-13
-10
4
6
12
-3
-15
-35
-45
-46
-27
-4
37
47
62
57
61
76
93
105
126
130
134
110
80
48
37
6
-12
-13
-4
2
27
25
3
-16
-11
-48
-46
-28
-14
-7
9
19
14
-7
-5
-35
-37
-35
-12
-13
10
7
-3
-16
-36
-55
-49
-38
-21
-21
-5
5
-5
-18
-16
-38
-43
-30
-16
-13
12
14
0
-21
-26
-40
-33
-21
-6
-3
23
22
14
-11
-28
-43
-39
-30
-11
6
12
11
-3
-23
-36
-51
-54
-38
-16
0
19
24
8
-15
-35
-57
-63
-35
0
7
17
20
-1
-9
-21
-30
-24
-7
5
23
23
32
13
-7
-16
-17
-16
-6
7
22
31
23
10
2
-12
-13
-2
10
29
34
31
25
19
-2
-20
-8
-11
3
20
29
22
1
4
19
-2
3
9
18
30
42
42
36
23
13
-14
-15
-10
4
8
22
18
13
-4
-21
-40
-28
-16
2
3
27
32
21
-10
-24
-47
-54
-49
-31
-34
-26
-21
-26
-17
-11
-38
-41
-32
-17
-8
16
11
2
-15
-19
-39
-46
-32
-14
-6
15
2
-12
-31
-30
-46
-48
-39
-15
-13
3
6
-2
-25
-23
-58
-54
-41
-27
-21
-5
-6
-1
-22
-23
-37
-38
-38
-30
-35
0
6
3
-24
-30
-41
-48
-34
-17
-12
8
3
-23
-23
-35
-52
-41
-33
-17
-7
4
-4
-9
-32
-48
-52
-43
-24
-17
-9
0
-11
-27
-28
-38
-44
-46
-27
-19
-7
1
-7
-17
-20
-37
-32
-31
-18
-23
-6
-6
-9
-24
-37
-60
-52
-45
-23
-14
7
4
-5
-33
-46
-58
-49
-46
-41
-33
-3
4
-2
-20
-34
-58
-51
-51
-31
-28
4
3
-7
-26
-23
-40
-33
-35
-33
-33
-10
6
9
-15
-31
-51
-62
-51
-26
-21
11
13
-5
-32
-28
-49
-46
-27
-9
-7
14
12
-4
-21
-28
-53
-52
-43
-28
-25
-1
-5
-13
-29
-35
-48
-49
-33
-19
-15
8
11
-7
-18
-26
-58
-56
-56
-41
-35
-27
-24
-37
-53
-57
-73
-66
-50
-28
-18
4
30
33
37
33
54
78
98
123
121
112
98
66
43
20
-17
-32
-26
-12
13
29
11
-14
-28
-42
-50
-40
-27
-10
-4
-9
-8
-31
-44
-68
-73
-62
-43
-32
-20
-18
-16
-33
-48
-75
-73
-55
-36
-37
-13
-13
-17
-25
-37
-64
-59
-60
-44
-35
-14
-12
-27
-28
-31
-56
-54
-46
-35
-24
-6
-9
-10
-24
-29
-54
-49
-42
-36
-35
-15
-9
-27
-40
-42
-64
-64
-46
-36
-26
-3
-8
-16
-31
-38
-66
-68
-54
-30
-29
-14
-3
-9
-26
-35
-58
-48
-37
-20
-6
11
4
-9
-23
-28
-38
-45
-31
-8
-10
18
21
2
-16
-21
-37
-35
-28
-14
-5
18
28
13
-18
-35
-30
-25
-20
-3
4
17
19
12
-1
-16
-29
-35
-10
3
13
28
18
1
-2
-22
-41
-42
-27
-8
-2
1
-3
-13
-23
-42
-49
-49
-38
-25
-8
-13
-19
-30
-49
-66
-61
-60
-42
-20
-6
-5
-11
-31
-41
-57
-60
-53
-48
-39
-26
-17
-25
-40
-45
-67
-61
-65
-38
-28
-16
-23
-30
-37
-44
-69
-65
-66
-48
-39
-23
-24
-29
-33
-53
-79
-63
-53
-30
-31
-23
-23
-29
-38
-48
-78
-74
-66
-57
-44
-13
-26
-36
-41
-27
-40
-43
-44
-35
-33
-21
-18
-32
-51
-54
-74
-75
-63
-43
-39
-9
-14
-31
-49
-51
-68
-65
-54
-39
-28
-12
-13
-37
-53
-54
-75
-66
-59
-45
-27
-13
-21
-32
-50
-56
-82
-62
-43
-39
-32
-12
-16
-28
-40
-50
-67
-69
-52
-42
-39
-21
-23
-26
-39
-51
-64
-61
-47
-35
-24
-15
-21
-40
-45
-54
-70
-59
-30
-19
-18
-21
-22
-37
-56
-78
-73
-54
-46
-29
-10
-1
-10
-37
-47
-67
-64
-60
-46
-30
-14
-9
-10
-28
-47
-69
-62
-62
-46
-31
-10
-7
-14
-30
-30
-53
-56
-59
-41
-26
0
-6
-16
-41
-52
-69
-42
-40
-13
-11
7
10
-2
-20
-29
-71
-71
-59
-40
-29
-10
-8
-15
-30
-42
-73
-72
-70
-51
-42
-19
-20
-35
-46
-44
-68
-67
-70
-59
-46
-28
-21
-34
-58
-62
-70
-69
-55
-19
21
63
70
83
87
95
86
88
88
85
59
62
54
10
-30
-34
-59
-59
-47
-27
-25
-10
-16
-35
-52
-53
-68
-69
-67
-54
-30
-16
-20
-36
-46
-61
-72
-70
-64
-47
-34
-23
-21
-32
-49
-61
-68
-67
-64
-48
-26
1
0
-25
-53
-63
-68
-69
-57
-46
-28
-5
-10
-34
-44
-67
-56
-61
-51
-40
-14
-14
-24
-32
-52
-65
-67
-58
-38
-34
-13
-17
-22
-34
-40
-57
-51
-48
-39
-40
-30
-17
-7
-18
-31
-63
-56
-56
-36
-26
-2
-5
-11
-17
-20
-45
-44
-38
-25
-16
7
4
-6
-23
-23
-47
-43
-30
-18
-16
12
12
-2
-16
-23
-37
-25
-15
2
7
31
16
3
-13
-13
-29
-25
-12
10
16
33
30
8
-16
-6
-25
-31
-40
-35
-6
25
17
-1
-5
-18
-35
-28
-21
-11
-9
8
5
-8
-27
-32
-48
-48
-35
-30
-20
-9
-4
-23
-38
-43
