-55
-67
-73
-59
-65
-63
-57
-53
-62
-74
-51
-54
-65
-74
-60
-62
-60
-62
-68
-51
-51
-58
-62
-57
-70
-74
-72
-67
-57
-43
-57
-55
-64
-64
-67
-62
-69
-63
-59
-60
-70
-72
-51
-44
-61
-60
-66
-69
-55
-38
-62
-68
-66
-59
-63
-59
-66
-64
-64
-48
-39
-48
-70
-60
-60
-66
-62
-55
-66
-48
-53
-64
-72
-57
-59
-62
-55
-51
-56
-49
-66
-80
-68
-57
-62
-72
-60
-70
-61
-60
-56
-75
-71
-65
-62
-67
-56
-65
-66
-46
-68
-62
-72
-54
-78
-60
-54
-65
-88
-72
-63
-61
-51
-76
-86
-64
-51
-62
-63
-67
-64
-65
-47
-61
-54
-71
-60
-66
-76
-57
-62
-71
-61
-66
-65
-70
-74
-61
-45
-66
-76
-74
-63
-71
-70
-65
-53
-67
-75
-64
-59
-63
-82
-72
-63
-55
-60
-61
-67
-51
-50
-80
-47
-64
-63
-71
-49
-55
-76
-63
-43
-52
-48
-46
-61
-64
-60
-64
-60
-50
-48
-57
-72
-72
-73
-61
-47
-61
-80
-72
-80
-80
-76
-71
-91
-73
-73
-88
-87
-67
-73
-80
-70
-77
-84
-89
-79
-79
-83
-69
-78
-77
-85
-86
-86
-87
-79
-79
-84
-79
-67
-80
-84
-81
-89
-90
-85
-85
-96
-85
-77
-67
-55
-31
20
46
73
98
85
97
88
59
32
-2
-46
-81
-82
-115
-138
-117
-91
-90
-99
-99
-103
-91
-88
-91
-85
-74
-91
-87
-81
-80
-92
-88
-80
-94
-88
-81
-89
-92
-83
-89
-101
-88
-77
-74
-79
-94
-104
-95
-85
-78
-88
-93
-83
-70
-74
-91
-96
-55
-79
-86
-84
-88
-86
-83
-78
-80
-86
-87
-76
-86
-87
-85
-87
-81
-86
-78
-70
-81
-77
-74
-75
-78
-73
-74
-76
-70
-76
-73
-73
-77
-60
-68
-102
-67
-54
-71
-70
-78
-62
-68
-52
-59
-62
-62
-67
-59
-55
-51
-58
-75
-55
-45
-53
-41
-38
-48
-42
-47
-35
-55
-34
-37
-42
-23
-16
-27
-32
-20
-39
-33
-23
-19
-45
-25
-4
-25
-22
-32
-31
-52
-29
-35
-41
-50
-41
-29
-56
-36
-49
-58
-61
-55
-66
-68
-68
-68
-73
-79
-80
-91
-84
-87
-84
-89
-85
-98
-98
-100
-96
-105
-99
-85
-103
-104
-82
-87
-103
-103
-105
-100
-108
-103
-103
-114
-101
-98
-87
-103
-125
-110
-102
-102
-110
-124
-110
-101
-105
-95
-110
-107
-102
-103
-107
-107
-104
-116
-115
-115
-109
-113
-116
-103
-99
-108
-91
-96
-97
-123
-123
-111
-115
-112
-107
-105
-109
-112
-106
-123
-111
-101
-104
-118
-109
-99
-100
-99
-114
-106
-106
-102
-103
-114
-114
-113
-109
-111
-115
-112
-105
-100
-109
-103
-106
-88
-82
-115
-122
-117
-122
-110
-110
-112
-105
-107
-99
-107
-110
-107
-106
-120
-133
-128
-99
-102
-112
-112
-97
-96
-110
-110
-106
-110
-112
-105
-111
-122
-121
-106
-118
-109
-94
-104
-104
-112
-101
-88
-103
-105
-107
-97
-104
-100
-92
-91
-96
-103
-106
-103
-99
-100
-106
-98
-97
-92
-104
-91
-89
-114
-109
-96
-105
-100
-117
-117
-125
-132
-119
-112
-107
-110
-112
-106
-104
-112
-109
-126
-134
-110
-122
-121
-116
-112
-126
-116
-127
-116
-103
-119
-126
-110
-106
-111
-115
-117
-118
-122
-114
-118
-109
-115
-139
-140
-140
-137
-129
-124
-106
-105
-100
-88
-66
-34
2
48
80
88
102
83
39
16
-10
-52
-93
-125
-137
-125
-145
-132
-128
-124
-123
-103
-105
-116
-124
-117
-105
-115
-115
-116
-114
-117
-111
-121
-109
-128
-127
-135
-125
-107
-105
-114
-101
-119
-127
-119
-119
-121
-120
-110
-113
-115
-111
-117
-122
-112
-111
-112
-119
-129
-125
-115
-119
-115
-117
-116
-116
-103
-106
-111
-127
-127
-115
-109
-124
-120
-110
-118
-106
-99
-105
-107
-97
-104
-123
-112
-99
-107
-110
-110
-100
-107
-101
-99
-114
-99
-108
-109
-106
-98
-99
-101
-97
-92
-91
-114
-100
-89
-80
-83
-94
-90
-92
-80
-80
-89
-90
-88
-69
-63
-66
-77
-72
-81
-60
-72
-80
-66
-54
-65
-69
-53
-60
-70
-61
-70
-65
-74
-58
-55
-63
-72
-87
-73
-64
-74
-87
-67
-88
-86
-89
-92
-98
-114
-103
-97
-107
-113
-118
-116
-114
-110
-97
-122
-117
-127
-119
-127
-123
-105
-119
-135
-127
-116
-132
-134
-132
-128
-126
-124
-123
-126
-132
-137
-138
-100
-126
-136
-124
-121
-128
-130
-120
-133
-126
-133
-134
-135
-135
-139
-132
-132
-128
-124
-123
-142
-132
-125
-142
-143
-128
-126
-134
-137
-141
-126
-123
-134
-132
-128
-129
-121
-146
-132
-123
-131
-121
-105
-137
-158
-133
-133
-137
-121
-115
-122
-131
-131
-132
-138
-147
-123
-115
-127
-132
-128
-128
-129
-134
-144
-144
-144
-126
-121
-129
-128
-130
-123
-125
-120
-123
-151
-152
-112
-131
-131
-133
-128
-120
-124
-129
-134
-137
-145
-140
-122
-118
-119
-121
-127
-137
-133
-133
-127
-130
-135
-125
-141
-134
-114
-113
-141
-150
-140
-124
-123
-139
-145
-127
-134
-126
-121
-120
-128
-130
-110
-113
-122
-122
-134
-134
-128
-137
-117
-118
-123
-126
-119
-113
-125
-120
-112
-109
-116
-113
-126
-118
-109
-120
-120
-103
-122
-119
-122
-125
-142
-143
-132
-127
-123
-118
-125
-143
-131
-126
-138
-129
-128
-135
-136
-131
-145
-140
-129
-125
-132
-132
-136
-152
-130
-127
-129
-141
-150
-129
-141
-134
-136
-136
-127
-129
-136
-137
-128
-138
-147
-162
-152
-157
-125
-127
-129
-126
-92
-74
-49
-14
37
63
81
77
65
36
3
-25
-62
-99
-132
-149
-158
-145
-143
-133
-141
-121
-124
-121
-123
-134
-140
-131
-113
-131
-122
-135
-128
-154
-133
-123
-124
-124
-124
-126
-133
-131
-128
-121
-119
-132
-139
-116
-126
-146
-128
-134
-124
-129
-127
-130
-124
-134
-134
-118
-127
-128
-118
-119
-127
-119
-130
-139
-129
-123
-125
-127
-127
-134
-109
-127
-106
-106
-115
-124
-113
-120
-121
-121
-117
-126
-119
-115
-120
-134
-105
-109
-108
-110
-108
-103
-94
-102
-98
-115
-135
-108
-112
-85
-88
-109
-98
-91
-98
-105
-110
-106
-95
-91
-88
-87
-87
-102
-92
-97
-73
-75
-79
-76
-79
-66
-66
-71
-80
-59
-55
-65
-74
-58
-72
-71
-69
-75
-66
-70
-66
-78
-70
-69
-79
-83
-84
-70
-73
-74
-87
-89
-98
-89
-109
-99
-106
-109
-118
-108
-111
-109
-115
-112
-116
-126
-123
-126
-134
-134
-122
-116
-137
-133
-127
-116
-111
-120
-123
-120
-124
-148
-135
-119
-128
-125
-120
-125
-123
-119
-131
-141
-133
-129
-122
-127
-128
-142
-125
-129
-133
-129
-125
-127
-136
-120
-135
-120
-131
-129
-143
-129
-112
-130
-137
-132
-121
-117
-135
-133
-135
-130
-114
-126
-143
-115
-118
-127
-140
-121
-128
-121
-118
-128
-128
-105
-121
-123
-129
-135
-129
-123
-121
-122
-118
-123
-140
-114
-123
-133
-135
-124
-104
-129
-128
-117
-121
-127
-117
-118
-135
-145
-128
-107
-102
-124
-146
-115
-120
-120
-134
-115
-127
-130
-111
-110
-134
-116
-123
-128
-135
-116
-110
-117
-115
-114
-126
-137
-134
-121
-124
-133
-131
-125
-127
-120
-120
-120
-117
-114
-105
-124
-125
-124
-121
-120
-117
-122
-128
-113
-121
-128
-121
-130
-117
-129
-122
-123
-127
-119
-119
-122
-124
-123
-101
-117
-121
-122
-131
-125
-119
-123
-119
-132
-125
-129
-123
-130
-123
-111
-112
-123
-143
-113
-111
-123
-125
-128
-128
-124
-122
-118
-105
-113
-121
-112
-119
-128
-127
-138
-125
-126
-130
-122
-116
-118
-127
-128
-123
-127
-120
-110
-96
-122
-133
-123
-121
-120
-125
-131
-118
-121
-119
-124
-111
-116
-116
-122
-107
-119
-110
-100
-116
-120
-121
-110
-102
-109
-118
-108
-120
-107
-126
-110
-94
-111
-125
-116
-122
-131
-120
-106
-114
-110
-120
-137
-116
-125
-124
-135
-132
-126
-131
-121
-126
-126
-126
-124
-122
-137
-132
-122
-128
-119
-125
-136
-135
-134
-135
-137
-135
-118
-127
-121
-114
-142
-129
-134
-133
-126
-126
-132
-146
-145
-139
-131
-130
-127
-121
-108
-85
-63
-33
23
50
57
73
73
54
30
-16
-39
-75
-119
-147
-141
-148
-117
-121
-132
-121
-109
-118
-122
-123
-131
-132
-127
-123
-136
-141
-139
-109
-122
-130
-120
-128
-115
-133
-123
-131
-143
-127
-122
-123
-125
-129
-128
-134
-126
-128
-126
-121
-103
-128
-134
-136
-119
-121
-119
-119
-120
-110
-111
-131
-132
-150
-129
-108
-126
-117
-132
-114
-94
-121
-134
-122
-120
-109
-115
-119
-118
-120
-116
-116
-118
-118
-109
-118
-119
-128
-109
-102
-101
-102
-116
-107
-114
-117
-114
-106
-100
-86
-95
-94
-104
-112
-102
-116
-110
-90
-101
-95
-89
-91
-98
-95
-90
-79
-81
-77
-84
-81
-69
-73
-80
-78
-83
-72
-85
-80
-83
-76
-66
-65
-64
-66
-81
-74
-70
-64
-76
-91
-72
-85
-82
-65
-77
-92
-82
-88
-91
-97
-98
-105
-100
-100
-98
-116
-121
-117
-109
-109
-131
-127
-115
-136
-129
-120
-132
-124
-127
-132
-135
-146
-141
-134
-126
-131
-132
-129
-137
-144
-128
-131
-147
-151
-131
-132
-121
-119
-122
-132
-150
-145
-143
-135
-137
-136
-128
-131
-145
-144
-139
-130
-141
-138
-125
-143
-150
-149
-129
-129
-131
-135
-127
-134
-134
-136
-139
-136
-135
-130
-139
-130
-131
-128
-127
-124
-144
-156
-159
-138
-134
-146
-140
-117
-136
-136
-124
-132
-129
-125
-141
-145
-133
-128
-150
-142
-121
-123
-132
-137
-144
-136
-140
-140
-132
-128
-134
-141
-139
-127
-135
-144
-133
-140
-129
-129
-116
-131
-127
-146
-141
-133
-124
-136
-131
-133
-141
-134
-128
-127
-128
-126
-147
-139
-136
-128
-129
-140
-145
-131
-136
-144
-147
-125
-129
-139
-144
-143
-136
-127
-129
-137
-151
-135
-141
-135
-134
-140
-140
-132
-141
-134
-133
-143
-141
-134
-138
-139
-136
-150
-143
-140
-136
-132
-146
-141
-133
-144
-132
-137
-144
-143
-156
-129
-120
-138
-140
-130
-125
-126
-146
-151
-152
-154
-137
-138
-150
-151
-138
-137
-139
-143
-155
-138
-131
-126
-148
-141
-128
-140
-139
-141
-141
-142
-134
-150
-150
-140
-145
-140
-142
-144
-147
-144
-144
-137
-131
-141
-137
-135
-145
-152
-154
-150
-156
-152
-147
-140
-148
-148
-144
-138
-132
-127
-144
-149
-143
-133
-140
-141
-151
-152
-139
-128
-133
-130
-133
-152
-144
-143
-151
-154
-148
-137
-133
-133
-142
-145
-147
-147
-135
-138
-149
-154
-150
-143
-141
-141
-149
-158
-144
-141
-140
-147
-139
-134
-153
-149
-143
-136
-142
-145
-147
-159
-153
-139
-131
-145
-149
-152
-145
-139
-104
-144
-143
-138
-146
-144
-134
-138
-140
-134
-137
-152
-143
-144
-141
-146
-153
-152
-126
-125
-135
-143
-164
-152
-148
-150
-136
-145
-132
-135
-136
-131
-138
-146
-128
-120
-128
-130
-138
-136
-135
-141
-139
-141
-126
-122
-137
-135
-129
-132
-140
-131
-132
-135
-149
-142
-140
-146
-150
-143
-140
-137
-136
-153
-159
-143
-125
-144
-150
-148
-149
-149
-141
-143
-138
-138
-136
-139
-150
-157
-163
-141
-139
-139
-140
-139
-152
-153
-149
-154
-162
-163
-156
-145
-144
-132
-118
-111
-90
-59
-21
0
38
63
80
53
15
-20
-37
-70
-97
-127
-147
-151
-136
-125
-129
-129
-143
-145
-146
-129
-132
-136
-122
-119
-131
-132
-136
-125
-111
-133
-122
-119
-115
-112
-121
-121
-118
-113
-110
-102
-92
-94
-102
-97
-105
-113
-79
-87
-90
-88
-82
-87
-79
-71
-88
-85
-72
-76
-64
-63
-59
-63
-60
-66
-61
-60
-50
-52
-53
-61
-49
-58
-58
-48
-30
-42
-41
-45
-50
-44
-47
-36
-32
-24
-27
-24
-29
-34
-24
-28
-31
-28
-22
-26
-45
-10
-9
-5
-4
-4
0
-5
-23
-12
0
-3
-1
-10
8
0
2
7
12
14
2
6
7
62
30
22
37
27
34
30
33
20
31
40
31
32
32
39
39
41
21
35
40
40
28
47
42
34
31
30
35
29
35
16
12
13
25
-2
14
19
6
8
8
5
9
11
-5
-1
-2
-13
-15
9
-15
-18
8
12
-6
-7
-4
-9
-8
16
-8
-25
-4
-1
-19
-9
-2
-9
-6
-3
-6
0
11
-16
-16
-12
-10
0
0
-13
-13
-10
-1
-8
5
2
-7
-24
-16
-14
-22
-26
-17
9
1
5
-8
-10
-18
-7
6
6
-4
-4
-9
8
-5
4
-14
-10
-7
1
10
3
-6
-6
-9
-5
-9
12
13
-3
1
0
0
-4
12
-8
-4
6
-5
3
3
-4
-2
12
0
-8
0
7
6
-7
-8
8
4
11
-1
-10
-5
2
-4
-4
9
11
-2
-3
-1
-3
-7
0
-10
-18
-3
8
0
18
-2
-5
-6
-14
-3
-1
2
-17
-5
5
-1
-5
-6
-12
-19
-10
-14
-1
-13
-2
1
-5
4
6
-13
-11
-17
-10
-14
-14
7
7
0
7
-22
-11
-13
-6
-5
-7
-9
-24
-17
-5
-3
0
-5
-11
4
-11
-22
-6
4
3
-3
-19
-7
-7
-12
-1
-11
-13
-7
-14
-16
-13
-20
0
-5
-5
-4
-9
-4
-13
-14
-10
-12
-12
-10
-6
-6
-11
-18
-4
-16
-16
-13
-4
-16
-27
-15
-14
-7
-17
-12
3
-5
-21
-12
-13
-5
-9
-14
-20
-10
-16
-16
-11
-12
-14
-3
-12
-8
-10
-20
-25
-15
-11
4
4
-9
-4
6
15
-12
9
-2
-2
1
-6
-9
-1
4
2
11
-11
-24
-20
-1
-10
-1
-9
-12
-8
-10
-9
-10
-15
-11
-22
-25
-17
-17
-18
-24
-15
-11
-15
-19
-13
-15
-14
-9
-16
-42
-18
-17
-11
5
-11
-30
-17
-11
-19
-18
-14
-11
-4
-27
-29
-24
-30
-22
-29
-21
-22
-17
0
27
40
65
70
118
156
167
171
162
143
100
73
50
18
-4
-46
-42
-32
-29
-25
-24
-25
-20
-17
-17
-24
-17
-20
-22
-16
-17
-28
-26
-22
-2
6
-17
-27
-24
-13
1
-4
-19
-10
-12
-17
-42
-21
-7
-11
-11
-18
-35
-5
-12
-14
-7
-22
-20
-7
-5
-22
-16
-12
-24
-31
-23
-8
-5
-4
-9
-14
-18
-15
-20
-15
-11
-16
-29
-15
-10
-11
-15
-12
-4
-1
4
-13
-24
-20
-8
-9
-8
2
-12
-4
-5
-3
-10
10
11
-10
2
6
4
10
2
-7
-6
-13
17
23
2
28
29
18
12
23
8
19
19
18
15
30
32
25
30
32
24
35
33
23
39
40
37
44
17
26
21
33
34
24
26
30
53
47
23
25
13
24
7
11
6
7
3
-7
-6
-12
-18
-35
-8
4
-24
-25
-25
-18
-26
-34
-33
-35
-19
-31
-29
-42
-39
-41
-47
-26
-34
-38
-35
-42
-42
-27
-34
-48
-37
-44
-40
-40
-43
-33
-25
-40
-47
-49
-36
-47
-60
-42
-26
-51
-47
-42
-44
-64
-53
-43
-39
-37
-34
-45
-50
-43
-52
-54
-46
-42
-39
-60
-47
-42
-47
-41
-43
-45
-46
-51
-49
-39
-46
-50
-46
-50
-66
-59
-39
-35
-37
-33
-38
-39
-29
-44
-45
-50
-37
-30
-32
-42
-38
-46
-47
-55
-60
-49
-39
-37
-26
-39
-58
-40
-36
-45
-43
-52
-50
-48
-49
-47
-50
-45
-43
-63
-58
-53
-48
-42
-43
-42
-50
-50
-48
-59
-62
-58
-50
-42
-35
-21
-31
-53
-58
-41
-49
-54
-48
-45
-50
-48
-56
-45
-36
-40
-52
-47
-47
-36
-48
-53
-36
-34
-34
-54
-49
-47
-51
-58
-49
-54
-39
-34
-53
-51
-59
-68
-44
-37
-37
-46
-53
-60
-53
-53
-50
-60
-58
-44
-50
-50
-48
-49
-52
-59
-52
-45
-42
-46
-57
-55
-49
-47
-40
-50
-47
-54
-54
-52
-56
-52
-44
-53
-59
-47
-62
-45
-61
-61
-56
-50
-45
-33
-49
-54
-44
-72
-86
-54
-45
-85
-60
-55
-49
-51
-48
-52
-51
-52
-49
-40
-59
-61
-66
-71
-76
-44
-47
-53
-49
-49
-53
-48
-59
-56
-57
-52
-64
-54
-57
-67
-51
-57
-60
-62
-54
-65
-75
-59
-55
-60
-61
-51
-58
-59
-64
-52
-43
-47
-54
-55
-58
-56
-61
-58
-48
-57
-56
-46
-36
-51
-44
-47
-53
-53
-49
-47
-49
-49
-52
-48
-51
-48
-51
-49
-51
-51
-50
-45
-49
-54
-55
-62
-71
-77
-79
-58
-51
-53
-50
-51
-50
-42
-57
-57
-55
-70
-73
-55
-57
-59
-59
-61
-62
-65
-66
-68
-59
-60
-62
-60
-60
-64
-65
-63
-61
-64
-69
-62
-65
-71
-74
-75
-73
-75
-68
-62
-57
-43
-20
10
43
74
102
116
128
128
121
92
58
34
6
-39
-63
-77
-68
-66
-58
-54
-54
-58
-67
-77
-64
-52
-47
-60
-58
-57
-58
-53
-58
-63
-56
-57
-57
-58
-57
-54
-57
-60
-53
-52
-54
-54
-57
-58
-55
-52
-53
-55
-56
-50
-52
-52
-53
-57
-53
-46
-48
-47
-48
-53
-63
-39
-44
-54
-46
-35
-44
-44
-37
-45
-48
-53
-50
-39
-42
-37
-38
-40
-38
-39
-41
-41
-41
-37
-34
-30
-39
-30
-24
-27
-27
-30
-16
-16
-18
-14
-11
-7
-3
-9
-17
-11
-2
-4
6
0
2
2
14
11
9
11
8
11
15
15
13
16
16
15
15
25
23
23
22
28
29
33
57
49
42
45
45
43
52
44
39
48
50
47
41
37
34
33
37
29
28
28
15
7
11
24
15
18
11
1
3
8
12
-3
-7
-17
-6
-13
-14
-13
-15
-12
-14
-16
-14
-21
-23
-19
-20
-25
-39
-5
-4
-11
-11
-17
-22
-16
-16
-26
-24
-23
-25
-26
-26
-27
-35
-22
-20
-24
-26
-24
-29
-31
-31
-18
-20
-23
-22
-26
-23
-26
-29
-30
-32
-30
-28
-28
-22
-27
-29
-28
-26
-29
-28
-28
-20
-22
-23
-28
-24
-31
-41
-25
-15
-22
-27
-27
-20
-12
-20
-19
-24
-30
-22
-20
-32
-28
-20
-16
-29
-25
-12
-21
-27
-24
-30
-26
-22
-37
-29
-18
-19
-25
-25
-26
-27
-24
-22
-25
-22
-20
-26
-25
-26
-28
-24
-23
-32
-39
-26
-34
-34
-15
1
-28
-41
-32
-25
-34
-17
-18
-25
-33
-30
-27
-19
-25
-14
-20
-19
-25
-29
-28
-30
-31
-35
-27
-6
-24
-27
-22
-29
-25
-39
-33
-26
-20
-26
-29
-27
-34
-28
-27
-22
-36
-31
-27
-44
-33
-24
-25
-26
-23
-22
-27
-25
-13
-30
-28
-12
-31
-33
-32
-26
-31
-24
-26
-33
-30
-22
-28
-26
-28
-31
-31
-27
-24
-23
-26
-20
-41
-41
-27
-29
-13
-8
-31
-49
-26
-14
-26
-29
-27
-31
-38
-26
-24
-28
-39
-34
-29
-35
-29
-32
-24
-29
-24
-25
-29
-36
-28
-21
-37
-27
-30
-44
-38
-30
-30
-30
-41
-23
-28
-18
-23
-36
-28
-33
-31
-40
-25
-38
-34
-27
-31
-30
-25
-35
-25
-36
-34
-38
-29
-32
-28
-23
-30
-39
-39
-41
-32
-25
-27
-29
-23
-27
-29
-23
-35
-20
-14
-17
-29
-27
-30
-28
-27
-27
-31
-33
-22
-23
-26
-29
-28
-9
-29
-31
-30
-24
-35
-24
-19
-51
-29
-6
-18
-17
-18
-20
-19
-21
-26
-26
-17
-18
-21
-31
-29
-34
-42
-35
-37
-30
-44
-38
-43
-33
-38
-39
-36
-49
-44
-42
-43
-36
-50
-50
-41
-51
-57
-47
-38
-44
-48
-51
-57
-39
-34
-41
-56
-70
-62
-46
-49
-41
-46
-44
-30
-39
-38
-55
-75
-66
-57
-55
-42
-29
-19
-13
11
44
76
113
133
140
158
140
100
78
59
24
-19
-50
-51
-59
-73
-49
-50
-55
-42
-41
-50
-55
-41
-43
-52
-56
-49
-47
-33
-34
-51
-48
-49
-58
-45
-44
-49
-58
-54
-50
-55
-52
-53
-50
-56
-42
-65
-53
-57
-50
-55
-51
-43
-45
-45
-39
-41
-48
-40
-45
-54
-53
-48
-41
-46
-45
-52
-51
-47
-44
-45
-44
-30
-57
-58
-42
-48
-53
-36
-42
-46
-35
-50
-56
-56
-43
-33
-32
-40
-47
-53
-34
-27
-38
-37
-27
-36
-41
-38
-36
-40
-32
-26
-28
-25
-27
-37
-33
-9
-20
-45
-17
15
2
-11
-1
-8
2
1
8
1
0
2
-3
-2
10
3
13
10
-3
-2
2
4
15
11
11
9
6
3
13
2
2
5
1
12
-5
-19
-15
-6
-12
-11
-16
-17
-18
-32
-26
-36
-48
-44
-42
-40
-40
-36
-49
-48
-48
-58
-37
-46
-56
-54
-53
-52
-58
-48
-54
-64
-64
-53
-55
-56
-50
-55
-62
-52
-50
-57
-62
-57
-64
-66
-76
-67
-60
-65
-63
-46
-50
-63
-72
-70
-57
-73
-59
-58
-63
-66
-55
-69
-65
-65
-59
-64
-69
-56
-62
-67
-79
-72
-67
-64
-64
-76
-58
-57
-58
-69
-84
-77
-68
-59
-51
-71
-69
-69
-62
-57
-62
-68
-66
-58
-53
-69
-70
-66
-72
-62
-62
-60
-72
-67
-63
-65
-58
-56
-55
-53
-65
-82
-65
-60
-70
-66
-65
-60
-67
-71
-73
-68
-71
-77
-57
-73
-55
-73
-84
-69
-66
-61
-66
-63
-62
-67
-61
-59
-69
-71
-65
-65
-67
-58
-70
-78
-64
-56
-61
-63
-72
-63
-52
-58
-62
-69
-74
-62
-61
-75
-67
-72
-78
-62
-74
-73
-70
-68
-63
-66
-64
-86
-81
-67
-54
-74
-76
-52
-62
-66
-61
-62
-68
-58
-63
-61
-59
-63
-69
-73
-61
-51
-59
-57
-53
-62
-61
-59
-66
-65
-68
-71
-65
-65
-67
-58
-47
-62
-82
-66
-73
-73
-65
-63
-63
-85
-63
-76
-57
-63
-70
-76
-76
-65
-68
-69
-65
-66
-65
-79
-75
-65
-59
-65
-66
-66
-67
-68
-58
-61
-63
-60
-65
-82
-70
-58
-61
-68
-75
-71
-70
-64
-57
-58
-79
-71
-60
-62
-73
-67
-69
-75
-51
-63
-70
-71
-66
-66
-87
-68
-55
-66
-66
-71
-81
-69
-50
-78
-72
-53
-59
-61
-56
-56
-54
-50
-51
-59
-61
-61
-68
-60
-49
-46
-55
-58
-52
-60
-70
-75
-60
-68
-62
-67
-60
-61
-65
-64
-64
-61
-73
-77
-62
-69
-77
-77
-55
-62
-80
-76
-72
-74
-77
-74
-77
-79
-57
-66
-69
-74
-73
-73
-73
-77
-72
-67
-59
-83
-61
-56
-81
-87
-87
-85
-73
-74
-67
-58
-54
-44
-16
16
52
75
99
120
135
120
82
58
12
-20
-41
-81
-80
-75
-71
-71
-64
-66
-64
-66
-66
-57
-72
-59
-68
-74
-72
-60
-71
-78
-72
-89
-66
-42
-52
-57
-64
-64
-75
-72
-71
-64
-85
-66
-54
-69
-59
-70
-68
-67
-60
-59
-68
-70
-72
-64
-70
-66
-73
-70
-54
-64
-59
-57
-65
-64
-57
-72
-65
-65
-70
-81
-63
-69
-48
-60
-60
-63
-58
-53
-54
-46
-61
-55
-64
-54
-65
-64
-52
-60
-48
-46
-54
-44
-40
-49
-55
-50
-59
-59
-58
-58
-44
-42
-36
-34
-45
-46
-44
-32
-28
-40
-35
-28
-25
-31
-37
-41
-22
-31
-11
-10
-15
-16
-11
-11
-12
-17
-8
-12
0
-12
-10
-1
-15
-28
-9
-14
4
9
-13
-19
1
-22
-35
-23
-13
-18
-32
-31
-31
-23
-35
-39
-39
-48
-51
-66
-56
-47
-51
-61
-51
-59
-55
-61
-70
-74
-80
-66
-83
-61
-59
-59
-68
-75
-62
-63
-60
-63
-70
-77
-84
-90
-60
-58
-68
-75
-73
-70
-63
-75
-64
-64
-67
-68
-84
-76
-82
-74
-83
-75
-65
-64
-60
-72
-81
-74
-75
-68
-75
-69
-64
-95
-73
-70
-83
-89
-72
-74
-75
-71
-58
-71
-66
-70
-74
-80
-78
-77
-72
-52
-59
-83
-71
-64
-71
-82
-65
-68
-80
-78
-62
-63
-65
-69
-71
-66
-55
-54
-74
-73
-67
-66
-73
-78
-79
-67
-76
-79
-74
-65
-62
-59
-70
-68
-76
-78
-73
-61
-63
-64
-58
-72
-75
-67
-77
-62
-61
-66
-76
-71
-62
-62
-76
-76
-76
-60
-69
-66
-70
-63
-68
-79
-76
-72
-71
-66
-65
-59
-79
-77
-59
-80
-85
-65
-57
-70
-62
-67
-62
-75
-80
-82
-73
-74
-73
-69
-63
-72
-69
-70
-69
-74
-63
-66
-60
-77
-73
-68
-66
-69
-78
-76
-76
-57
-66
-65
-63
-63
-62
-66
-72
-59
-64
-63
-61
-49
-57
-57
-63
-50
-54
-55
-50
-56
-68
-62
-51
-69
-62
-34
-55
-56
-55
-59
-56
-64
-65
-64
-63
-66
-75
-67
-73
-77
-83
-82
-64
-69
-64
-72
-75
-80
-79
-72
-74
-72
-69
-81
-60
-63
-60
-75
-74
-72
-77
-72
-79
-78
-62
-67
-71
-63
-78
-78
-76
-77
-93
-86
-75
-71
-67
-61
-47
-41
-7
38
67
94
108
129
127
105
79
38
18
-25
-69
-93
-93
-76
-80
-81
-70
-73
-70
-68
-72
-73
-65
-69
-76
-73
-70
-77
-77
-62
-69
-69
-72
-68
-60
-69
-70
-70
-67
-73
-64
-74
-71
-57
-58
-67
-72
-78
-68
-70
-69
-60
-61
-65
-69
-65
-60
-67
-73
-71
-67
-60
-61
-64
-76
-59
-52
-61
-59
-48
-59
-65
-62
-49
-58
-47
-57
-60
-56
-54
-62
-58
-44
-54
-66
-64
-68
-50
-48
-37
-41
-42
-50
-50
-54
-42
-58
-47
-30
-36
-48
-36
-30
-32
-33
-32
-25
-20
-26
-38
-43
-12
-6
-23
-28
-23
-29
-19
-8
-15
-2
15
-10
-9
8
-5
-23
-6
10
-3
-4
3
3
3
-2
-7
-3
-1
0
7
0
0
-10
-18
-18
-24
-27
-25
-28
-29
-35
-26
-27
-48
-44
-53
-62
-53
-55
-37
-61
-40
-49
-71
-61
-50
-60
-66
-65
-64
-65
-57
-64
-75
-62
-56
-60
-63
-70
-75
-66
-54
-62
-71
-80
-79
-70
-67
-61
-68
-88
-73
-65
-69
-64
-67
-68
-71
-67
-64
-74
-69
-70
-60
-69
-78
-52
-62
-66
-57
-76
-82
-67
-58
-64
-71
-78
-76
-69
-60
-70
-65
-67
-65
-74
-58
-74
-62
-56
-66
-69
-61
-63
-67
-70
-68
-81
-67
-61
-67
-69
-53
-69
-67
-57
-63
-73
-56
-53
-75
-46
-57
-67
-59
-57
-64
-62
-63
-57
-52
-62
-67
-66
-66
-73
-68
-68
-67
-65
-56
-68
-62
-51
-62
-57
-56
-71
-70
-74
-61
-57
-61
-61
-64
-63
-65
-60
-43
-54
-77
-65
-58
-61
-80
-74
-63
-65
-55
-53
-60
-63
-64
-62
-70
-57
-56
-64
-67
-61
-55
-65
-70
-75
-66
-68
-64
-70
-60
-67
-61
-57
-61
-53
-56
-61
-76
-64
-66
-61
-60
-45
-59
-63
-71
-69
-60
-51
-55
-56
-63
-54
-53
-50
-61
-52
-62
-57
-53
-61
-61
-47
-54
-55
-53
-52
-53
-59
-55
-45
-47
-31
-54
-51
-47
-51
-53
-53
-45
-50
-47
-50
-52
-56
-48
-54
-55
-55
-67
-53
-52
-55
-54
-65
-68
-68
-70
-46
-49
-58
-60
-58
-69
-69
-61
-59
-62
-62
-70
-70
-71
-63
-71
-69
-63
-56
-64
-63
-50
-54
-66
-65
-76
-84
-56
-61
-74
-74
-77
-70
-71
-61
-53
-34
-24
6
22
57
97
117
147
157
126
95
61
39
3
-37
-63
-82
-82
-74
-68
-51
-60
-62
-61
-54
-63
-60
-42
-45
-61
-65
-58
-52
-54
-52
-74
-62
-52
-59
-50
-69
-63
-56
-64
-60
-49
-56
-51
-59
-61
-58
-56
-55
-77
-52
-42
-56
-51
-51
-56
-60
-50
-51
-56
-58
-59
-68
-67
-34
-42
-71
-59
-45
-55
-53
-51
-47
-46
-49
-44
-49
-55
-50
-44
-43
-51
-56
-31
-45
-61
-54
-42
-54
-45
-29
-45
-53
-36
-33
-31
-34
-39
-38
-34
-28
-37
-27
-22
-42
-31
-20
-18
-27
-23
-20
-18
-9
-7
-17
-14
-9
-7
-1
5
-20
-18
0
13
1
9
16
8
3
8
10
12
-6
11
13
-2
5
8
-3
9
7
-3
-8
-3
-1
-15
-18
-26
-22
-23
-15
-32
-33
-29
-33
-24
-21
-38
-47
-46
-41
-47
-44
-37
-46
-58
-57
-55
-52
-54
-55
-58
-51
-55
-47
-60
-58
-71
-63
-72
-58
-68
-53
-59
-56
-66
-65
-65
-65
-59
-55
-56
-60
-62
-58
-56
-61
-65
-58
-69
-64
-59
-62
-67
-67
-66
-60
-62
-59
-65
-65
-66
-62
-70
-78
-64
-64
-50
-61
-73
-69
-66
-52
-50
-57
-61
-61
-67
-57
-64
-65
-63
-55
-59
-58
-61
-75
-68
-57
-58
-60
-63
-53
-56
-69
-60
-65
-61
-65
-59
-62
-52
-49
-56
-58
-59
-63
-74
-71
-43
-52
-61
-50
-50
-62
-70
-66
-66
-60
-58
-59
-55
-44
-53
-52
-64
-64
-63
-57
-59
-80
-60
-67
-73
-66
-47
-49
-67
-55
-57
-63
-65
-63
-64
-65
-42
-62
-75
-77
-76
-59
-42
-52
-51
-61
-59
-60
-57
-52
-50
-63
-64
-61
-54
-58
-69
-66
-58
-50
-61
-64
-69
-57
-48
-65
-54
-57
-62
-55
-56
-52
-47
-53
-59
-61
-61
-60
-59
-59
-59
-62
-55
-53
-65
-65
-56
-56
-73
-72
-74
-46
-58
-50
-59
-54
-55
-57
-56
-58
-61
-63
-53
-60
-61
-59
-61
-50
-59
-58
-53
-61
-45
-46
-57
-69
-60
-59
-64
-69
-61
-61
-61
-62
-67
-53
-53
-55
-54
-49
-65
-59
-53
-65
-69
-57
-56
-59
-53
-56
-54
-56
-57
-56
-68
-61
-61
-62
-54
-62
-59
-59
-59
-62
-59
-55
-63
-66
-52
-54
-54
-46
-38
-54
-58
-56
-62
-69
-51
-58
-56
-69
-64
-57
-51
-57
-44
-59
-47
-43
-56
-67
-65
-43
-42
-57
-58
-56
-59
-71
-51
-39
-49
-51
-45
-34
-42
-43
-33
-35
-41
-51
-47
-53
-56
-46
-40
-48
-46
-44
-43
-47
-50
-60
-63
-60
-61
-65
-59
-60
-55
-56
-65
-70
-74
-45
-60
-70
-55
-57
-58
-55
-59
-59
-58
-56
-64
-65
-65
-67
-66
-58
-64
-72
-59
-66
-61
-57
-61
-66
-72
-56
-56
-60
-65
-65
-64
-52
-69
-57
-70
-59
-53
-29
4
34
59
86
107
119
119
94
61
28
11
-28
-56
-71
-90
-91
-89
-74
-62
-78
-86
-77
-65
-69
-61
-63
-65
-68
-72
-51
-53
-52
-60
-59
-48
-59
-49
-50
-58
-51
-52
-40
-51
-52
-45
-57
-58
-60
-64
-47
-41
-41
-40
-39
-47
-47
-42
-40
-43
-48
-39
-53
-43
-35
-41
-53
-47
-35
-40
-35
-48
-35
-35
-26
-32
-40
-47
-37
-41
-59
-57
-35
-13
-21
-44
-34
-22
-26
-34
-38
-33
-36
-32
-22
-12
-26
-30
-33
-26
-27
-27
-24
-20
-11
-18
-22
-25
-32
-15
-12
-2
-28
-22
-21
-22
-12
1
-4
3
9
0
4
0
13
15
15
17
10
3
-10
10
6
5
9
9
7
27
14
13
9
2
-4
7
-1
-5
8
-2
-9
1
-1
-13
-33
-27
-14
-27
-39
-26
-39
-41
-36
-44
-39
-51
-68
-58
-30
-48
-64
-64
-55
-66
-63
-52
-51
-59
-52
-54
-68
-65
-71
-81
-61
-71
-65
-65
-74
-65
-71
-78
-75
-72
-69
-56
-72
-76
-66
-72
-75
-73
-73
-66
-59
-62
-66
-67
-63
-67
-75
-65
-69
-49
-78
-78
-68
-66
-74
-68
-64
-55
-57
-69
-65
-57
-63
-63
-62
-56
-53
-55
-66
-74
-61
-74
-63
-62
-67
-32
-67
-64
-58
-59
-63
-61
-71
-66
-65
-66
-57
-40
-57
-63
-52
-47
-58
-53
-58
-58
-61
-63
-61
-64
-58
-49
-53
-65
-58
-55
-72
-66
-68
-72
-39
-49
-64
-66
-48
-59
-58
-58
-66
-65
-64
-58
-59
-61
-59
-71
-64
-74
-85
-58
-51
-68
-67
-55
-67
-56
-67
-67
-62
-59
-63
-61
-64
-64
-58
-59
-68
-64
-68
-62
-60
-76
-80
-70
-59
-59
-58
-51
-61
-61
-62
-68
-72
-69
-68
-64
-58
-74
-75
-78
-79
-70
-63
-53
-57
-63
-67
-73
-57
-60
-60
-61
-63
-64
-58
-70
-70
-59
-60
-70
-59
-60
-67
-66
-60
-63
-59
-62
-63
-69
-69
-69
-81
-73
-51
-48
-53
-67
-64
-61
-65
-73
-72
-52
-53
-57
-54
-61
-67
-64
-62
-63
-62
-67
-56
-68
-68
-68
-66
-59
-67
-67
-70
-67
-70
-74
-76
-72
-78
-82
-61
-61
-68
-56
-70
-76
-65
-66
-62
-67
-54
-66
-69
-60
-56
-73
-64
-69
-61
-50
-58
-66
-67
-61
-51
-63
-66
-69
-61
-65
-58
-62
-71
-64
-57
-74
-62
-49
-58
-53
-60
-65
-67
-55
-60
-61
-59
-59
-66
-72
-55
-43
-54
-65
-58
-66
-56
-44
-52
-58
-51
-58
-58
-60
-69
-79
-74
-70
-93
-79
-70
-64
-67
-63
-73
-72
-83
-78
-70
-71
-71
-70
-86
-83
-74
-75
-80
-87
-82
-80
-77
-74
-72
-79
-83
-75
-79
-92
-89
-83
-45
-72
-103
-100
-96
-87
-76
-75
-66
-47
-31
-3
34
72
83
101
124
147
110
103
67
29
-25
-47
-84
-87
-77
-79
-76
-67
-67
-74
-69
-72
-84
-83
-74
-84
-96
-92
-84
-70
-76
-77
-85
-89
-84
-84
-87
-87
-79
-80
-80
-89
-97
-75
-73
-90
-89
-97
-82
-78
-91
-92
-82
-84
-79
-88
-94
-84
-83
-72
-91
-96
-100
-78
-67
-78
-70
-75
-89
-84
-80
-78
-78
-83
-72
-85
-69
-87
-82
-82
-60
-74
-85
-76
-83
-76
-77
-74
-75
-75
-67
-69
-70
-66
-76
-73
-79
-65
-72
-68
-60
-68
-62
-72
-80
-75
-60
-51
-66
-54
-54
-52
-53
-58
-60
-57
-41
-32
-58
-48
-44
-43
-45
-48
-46
-47
-20
-29
-34
-31
-32
-29
-22
-26
-45
-43
-44
-17
-26
-25
-13
-36
-36
-37
-44
-42
-41
-39
-48
-63
-56
-62
-54
-61
-60
-52
-59
-72
-77
-75
-79
-76
-87
-76
-81
-85
-86
-90
-74
-93
-86
-74
-81
-87
-94
-91
-88
-92
-87
-90
-84
-93
-78
-95
-101
-95
-91
-80
-97
-82
-89
-91
-91
-96
-100
-89
-93
-98
-96
-90
-87
-95
-97
-89
-91
-104
-104
-97
-92
-86
-101
-101
-97
-100
-91
-95
-93
-79
-78
-82
-90
-87
-88
-89
-101
-100
-98
-102
-91
-85
-91
-92
-94
-90
-82
-107
-93
-95
-86
-85
-90
-83
-99
-89
-85
-79
-94
-105
-101
-97
-70
-73
-84
-92
-87
-80
-87
-87
-73
-80
-86
-85
-89
-84
-63
-89
-85
-80
-78
-80
-86
-75
-85
-84
-84
-76
-77
-71
-79
-70
-78
-82
-73
-92
-88
-76
-81
-86
-85
-70
-72
-70
-87
-83
-70
-69
-75
-72
-76
-68
-75
-67
-73
-86
-73
-70
-79
-76
-71
-88
-82
-77
-68
-67
-78
-79
-79
-73
-71
-81
-77
-84
-73
-87
-75
-60
-80
-81
-73
-75
-77
-84
-74
-80
-74
-83
-96
-78
-84
-77
-79
-76
-68
-72
-78
-71
-69
-67
-75
-85
-80
-85
-79
-87
-66
-67
-69
-88
-75
-74
-94
-68
-71
-93
-71
-64
-82
-60
-71
-68
-80
-89
-87
-82
-75
-78
-78
-70
-84
-75
-68
-78
-89
-75
-73
-74
-84
-78
-64
-82
-85
-74
-84
-87
-73
-55
-67
-71
-72
-85
-64
-78
-87
-83
-68
-67
-70
-63
-67
-77
-78
-69
-62
-66
-69
-66
-57
-53
-68
-68
-64
-61
-67
-70
-70
-71
-78
-59
-73
-86
-61
-77
-77
-82
-78
-77
-79
-75
-88
-83
-75
-84
-84
-95
-81
-82
-86
-79
-84
-110
-81
-77
-69
-70
-78
-88
-88
-84
-79
-85
-87
-94
-90
-97
-93
-82
-90
-70
-86
-83
-82
-101
-93
-100
-108
-97
-97
-85
-60
-59
-23
10
27
104
129
135
156
141
84
39
-3
-31
-78
-107
-129
-141
-99
-78
-103
-95
-91
-81
-82
-89
-84
-84
-88
-83
-87
-91
-96
-77
-73
-84
-82
-93
-103
-80
-71
-80
-69
-75
-92
-82
-76
-71
-88
-95
-77
-83
-76
-74
-69
-79
-77
-77
-78
-69
-69
-74
-83
-73
-86
-77
-75
-68
-70
-64
-75
-70
-66
-74
-75
-67
-69
-68
-70
-78
-78
-68
-58
-70
-81
-63
-65
-62
-38
-42
-60
-66
-52
-43
-39
-42
-56
-59
-44
-53
-65
-53
-62
-44
-46
-29
-28
-45
-36
-39
-32
-34
-39
-37
-40
-44
-26
-22
-13
-22
-28
-32
-20
-7
-17
-19
-16
-19
-10
8
0
-22
-19
-9
-17
-8
3
-7
-4
3
-10
-10
-13
-20
-23
-24
-12
-6
-13
-23
-35
-53
-51
-52
-43
-64
-60
-52
-41
-57
-69
-55
-68
-90
-82
-84
-87
-70
-76
-83
-83
-88
-85
-93
-95
-92
-90
-88
-84
-92
-88
-91
-103
-95
-89
-87
-95
-109
-108
-96
-98
-97
-91
-100
-102
-101
-94
-94
-104
-106
-105
-101
-100
-88
-93
-103
-99
-94
-107
-112
-103
-99
-97
-96
-98
-93
-103
-97
-97
-101
-100
-93
-86
-92
-104
-109
-100
-94
-87
-106
-104
-89
-87
-93
-93
-95
-101
-93
-97
-84
-72
-70
-82
-90
-87
-89
-89
-88
-96
-91
-102
-91
-89
-82
-83
-94
-93
-89
-85
-92
-93
-95
-85
-87
-91
-101
-88
-81
-78
-92
-84
-84
-86
-87
-85
-72
-93
-90
-86
-98
-81
-72
-85
-84
-81
-81
-76
-81
-82
-82
-102
-91
-85
-83
-93
-90
-83
-91
-95
-87
-62
-61
-85
-86
-82
-84
-84
-83
-79
-84
-85
-94
-85
-69
-80
-90
-89
-78
-89
-86
-79
-84
-88
-96
-90
-76
-74
-91
-83
-69
-75
-70
-78
-76
-78
-82
-74
-78
-88
-87
-79
-74
-83
-80
-82
-77
-72
-71
-67
-75
-65
-56
-72
-84
-74
-67
-69
-61
-43
-49
-59
-75
-76
-69
-54
-60
-67
-54
-66
-54
-60
-72
-69
-58
-55
-66
-74
-43
-64
-75
-63
-66
-60
-55
-65
-82
-62
-56
-70
-63
-64
-71
-65
-66
-71
-67
-64
-70
-64
-57
-53
-61
-67
-62
-68
-64
-64
-65
-84
-81
-74
-74
-71
-93
-66
-44
-27
-2
25
44
86
113
124
143
141
107
72
44
8
-49
-72
-86
-93
-80
-74
-71
-55
-58
-74
-75
-61
-69
-57
-64
-64
-52
-57
-64
-61
-60
-57
-70
-59
-43
-65
-66
-61
-65
-69
-70
-70
-54
-55
-73
-75
-70
-63
-51
-49
-59
-56
-60
-57
-67
-79
-71
-58
-49
-64
-55
-48
-49
-49
-50
-52
-58
-54
-55
-59
-55
-60
-63
-59
-48
-59
-49
-27
-48
-43
-48
-50
-47
-57
-44
-37
-50
-49
-57
-60
-61
-31
-40
-45
-46
-41
-34
-39
-37
-38
-35
-31
-39
-42
-27
-18
-19
-18
-18
-28
-24
-20
-20
-10
-12
-14
-14
-6
-5
-11
1
2
-7
5
14
15
20
7
-8
5
14
4
20
2
0
8
23
11
-7
10
4
0
1
-4
3
-9
2
-10
-22
-27
-33
-26
-16
-34
-32
-47
-53
-41
-49
-47
-44
-56
-58
-51
-59
-67
-53
-44
-60
-67
-68
-69
-71
-81
-75
-76
-70
-71
-73
-73
-61
-65
-63
-73
-67
-68
-68
-82
-81
-69
-56
-65
-68
-63
-76
-75
-73
-70
-74
-76
-75
-72
-66
-74
-94
-80
-80
-79
-79
-71
-77
-94
-87
-89
-77
-79
-81
-71
-81
-73
-84
-87
-81
-80
-81
-82
-72
-66
-98
-81
-91
-76
-77
-90
-94
-65
-60
-78
-75
-73
-87
-86
-84
-83
-83
-65
-68
-85
-80
-77
-80
-84
-84
-86
-87
-74
-74
-83
-89
-83
-74
-87
-84
-86
-87
-74
-73
-75
-73
-82
-85
-96
-80
-69
-90
-86
-90
-78
-80
-85
-86
-87
-77
-66
-66
-73
-70
-82
-87
-73
-89
-80
-88
-70
-51
-57
-72
-78
-78
-66
-71
-65
-54
-57
-61
-68
-63
-58
-63
-51
-60
-56
-67
-61
-61
-53
-52
-63
-64
-63
-65
-63
-62
-73
-76
-54
-59
-73
-80
-64
-72
-67
-66
-71
-69
-62
-58
-63
-69
-71
-65
-57
-62
-54
-55
-58
-69
-66
-70
-71
-65
-58
-67
-67
-65
-49
-45
-61
-68
-62
-64
-65
-60
-54
-83
-69
-72
-86
-75
-61
-43
-38
-13
22
59
106
139
153
177
177
133
95
53
16
-16
-45
-62
-87
-63
-69
-70
-55
-53
-64
-56
-62
-73
-59
-71
-62
-68
-62
-67
-59
-55
-59
-68
-64
-50
-54
-57
-52
-44
-53
-62
-63
-51
-52
-48
-55
-58
-49
-52
-60
-55
-60
-49
-48
-50
-62
-57
-42
-48
-59
-53
-51
-51
-63
-60
-58
-53
-54
-51
-58
-42
-35
-42
-55
-63
-51
-41
-58
-56
-54
-54
-42
-35
-29
-34
-69
-52
-54
-61
-58
-19
-32
-50
-42
-37
-37
-42
-40
-35
-19
-38
-40
-34
-19
-13
-15
-12
-11
-16
-34
-12
-6
-19
-15
-16
-5
10
2
-8
9
3
-7
2
14
15
8
11
31
16
8
21
20
15
12
4
8
10
7
12
8
21
15
6
6
-9
-12
-1
-15
-15
-15
-18
-20
-30
-31
-36
-46
-46
-38
-41
-39
-39
-41
-46
-56
-57
-51
-39
-59
-61
-50
-59
-49
-60
-56
-56
-65
-61
-50
-78
-64
-41
-61
-64
-58
-66
-64
-49
-59
-58
-47
-51
-60
-67
-75
-72
-51
-48
-57
-60
-55
-55
-60
-63
-67
-67
-68
-72
-67
-61
-60
-63
-69
-71
-63
-73
-70
-65
-66
-69
-70
-72
-73
-61
-63
-62
-66
-67
-62
-58
-60
-66
-65
-72
-73
-72
-73
-61
-62
-67
-68
-66
-74
-67
-72
-65
-63
-64
-62
-58
-53
-59
-69
-62
-63
-69
-70
-59
-67
-81
-70
-52
-50
-63
-66
-70
-60
-56
-68
-61
-62
-50
-73
-81
-68
-56
-59
-60
-66
-59
-66
-68
-73
-66
-88
-92
-77
-49
-70
-51
-53
-66
-76
-62
-51
-51
-58
-61
-69
-75
-57
-45
-58
-58
-83
-81
-56
-75
-63
-56
-52
-57
-68
-62
-64
-68
-67
-70
-59
-64
-69
-62
-67
-67
-72
-69
-65
-67
-80
-78
-66
-57
-56
-65
-78
-69
-60
-58
-50
-44
-45
-55
-62
-58
-68
-54
-49
-63
-58
-56
-56
-52
-43
-35
-51
-72
-60
-65
-69
-66
-61
-62
-68
-65
-69
-69
-70
-64
-70
-61
-77
-73
-83
-82
-78
-69
-62
-71
-78
-77
-66
-73
-79
-56
-70
-62
-69
-78
-80
-75
-67
-77
-69
-67
-75
-79
-77
-67
-59
-72
-79
-92
-72
-96
-86
-62
-66
-52
-39
-15
22
55
92
133
142
151
145
101
65
47
10
-44
-73
-77
-79
-82
-72
-71
-55
-59
-61
-71
-76
-71
-72
-63
-69
-70
-60
-53
-52
-71
-76
-66
-70
-72
-68
-62
-61
-56
-55
-75
-61
-68
-70
-71
-70
-69
-62
-56
-73
-67
-61
-74
-73
-64
-61
-72
-82
-67
-56
-56
-58
-75
-74
-68
-71
-72
-46
-64
-59
-60
-46
-65
-62
-62
-57
-60
-60
-57
-67
-50
-57
-51
-47
-42
-54
-52
-54
-41
-48
-63
-55
-54
-57
-50
-53
-46
-53
-42
-61
-62
-29
-54
-44
-33
-32
-36
-28
-33
-38
-35
-32
-40
-26
-27
-33
-32
-18
-30
-27
-22
-16
-30
-21
-1
-10
-10
-7
-5
-8
-13
-15
-11
-10
-14
-9
-9
-26
-19
-9
5
-19
-17
-27
-24
-17
-32
-32
-30
-38
-48
-45
-59
-55
-47
-58
-64
-47
-51
-73
-75
-71
-59
-52
-56
-77
-60
-67
-61
-70
-75
-76
-76
-72
-76
-90
-79
-79
-83
-87
-88
-76
-71
-57
-70
-73
-73
-76
-91
-80
-80
-79
-85
-88
-64
-73
-83
-70
-82
-81
-72
-90
-87
-78
-87
-88
-78
-80
-82
-67
-77
-88
-92
-95
-88
-80
-69
-74
-65
-82
-79
-80
-100
-90
-92
-82
-45
-66
-77
-89
-94
-83
-82
-91
-101
-91
-79
-76
-81
-69
-74
-66
-85
-90
-82
-72
-76
-76
-97
-106
-122
-82
-73
-70
-77
-90
-53
-50
-91
-81
-73
-74
-77
-83
-71
-65
-78
-72
-76
-69
-64
-76
-79
-75
-53
-63
-71
-71
-62
-58
-70
-79
-57
-53
-76
-66
-75
-85
-57
-65
-77
-68
-68
-74
-57
-73
-75
-75
-72
-76
-76
-74
-62
-64
-80
-77
-60
-62
-71
-87
-93
-71
-63
-73
-77
-77
-53
-54
-64
-54
-71
-75
-60
-54
-71
-75
-77
-72
-68
-66
-59
-77
-70
-71
-69
-68
-68
-58
-64
-73
-76
-79
-81
-91
-86
-78
-75
-67
-89
-103
-91
-78
-75
-110
-101
-88
-90
-75
-78
-83
-84
-79
-79
-86
-89
-85
-88
-83
-96
-80
-76
-92
-87
-85
-81
-85
-87
-91
-82
-95
-90
-88
-100
-109
-93
-87
-98
-102
-87
-50
-36
-10
26
45
85
109
115
121
101
75
38
29
-29
-61
-92
-83
-86
-86
-81
-64
-77
-71
-70
-76
-82
-74
-80
-100
-98
-80
-58
-95
-90
-82
-71
-79
-77
-66
-71
-74
-78
-89
-73
-77
-79
-72
-65
-69
-83
-74
-83
-74
-72
-84
-82
-72
-59
-78
-80
-68
-77
-67
-70
-81
-80
-66
-70
-77
-71
-55
-59
-62
-64
-82
-70
-67
-59
-70
-69
-72
-86
-78
-67
-66
-61
-63
-59
-57
-76
-74
-77
-53
-48
-60
-41
-49
-54
-71
-64
-60
-56
-59
-54
-43
-47
-44
-46
-53
-42
-42
-54
-49
-50
-34
-36
-42
-41
-38
-23
-29
-19
-12
-40
-22
-19
-25
-24
-31
-26
-12
-17
-24
-11
-11
-8
-7
-16
-11
-18
-12
-14
-7
-9
-18
-24
-26
-38
-7
-38
-42
-45
-35
-28
-34
-37
-52
-54
-49
-64
-52
-51
-60
-65
-54
-54
-64
-66
-78
-70
-78
-85
-64
-74
-64
-67
-65
-63
-72
-62
-75
-72
-80
-78
-86
-73
-66
-78
-66
-65
-63
-78
-66
-67
-78
-73
-67
-76
-78
-78
-76
-75
-70
-79
-89
-78
-100
-64
-67
-63
-70
-73
-78
-72
-85
-89
-75
-75
-78
-83
-83
-87
-79
-82
-64
-77
-86
-71
-72
-84
-79
-72
-86
-75
-70
-74
-68
-83
-90
-77
-75
-82
-83
-75
-85
-84
-77
-66
-69
-68
-79
-83
-84
-78
-69
-70
-82
-81
-80
-75
-80
-79
-88
-81
-84
-75
-82
-63
-72
-76
-87
-85
-78
-92
-86
-84
-74
-82
-81
-70
-72
-74
-74
-76
-63
-82
-81
-86
-85
-80
-85
-82
-68
-79
-74
-90
-82
-76
-81
-89
-81
-77
-95
-90
-80
-89
-95
-88
-67
-74
-90
-77
-90
-93
-85
-85
-76
-81
-77
-76
-76
-89
-100
-98
-79
-73
-79
-71
-88
-77
-76
-73
-87
-85
-75
-79
-87
-84
-88
-79
-77
-79
-77
-76
-78
-92
-92
-91
-86
-94
-76
-87
-83
-72
-78
-74
-82
-84
-87
-99
-104
-101
-89
-73
-76
-81
-83
-83
-78
-87
-87
-90
-88
-104
-91
-75
-87
-87
-84
-86
-81
-80
-86
-87
-78
-79
-75
-60
-92
-88
-76
-77
-75
-84
-89
-77
-81
-73
-77
-76
-70
-70
-87
-70
-67
-82
-71
-74
-85
-79
-80
-78
-80
-73
-77
-91
-88
-95
-85
-70
-91
-102
-92
-93
-92
-96
-97
-97
-97
-100
-93
-99
-91
-83
-74
-87
-91
-88
-97
-100
-97
-88
-83
-90
-89
-99
-81
-94
-110
-110
-75
-88
-92
-91
-99
-107
-105
-100
-108
-80
-79
-50
-40
-3
20
57
74
93
114
119
96
56
34
28
-34
-89
-103
-105
-101
-80
-75
-88
-90
-83
-96
-91
-84
-82
-87
-89
-89
-87
-90
-90
-83
-82
-90
-91
-91
-85
-95
-100
-93
-90
-101
-93
-82
-103
-109
-75
-69
-78
-83
-85
-92
-96
-84
-86
-89
-85
-81
-85
-89
-84
-90
-90
-81
-106
-118
-84
-75
-78
-78
-68
-84
-107
-94
-88
-81
-80
-78
-96
-93
-79
-83
-90
-94
-84
-87
-88
-90
-87
-83
-66
-64
-69
-92
-93
-84
-62
-68
-73
-63
-71
-70
-74
-79
-65
-61
-70
-51
-54
-56
-72
-66
-58
-65
-69
-69
-59
-52
-50
-45
-36
-53
-53
-47
-46
-27
-47
-34
-38
-43
-46
-36
-40
-44
-35
-34
-31
-28
-42
-40
-44
-38
-38
-47
-57
-57
-36
-41
-47
-55
-76
-69
-66
-72
-63
-68
-68
-77
-77
-73
-87
-88
-88
-89
-86
-71
-108
-88
-91
-89
-94
-111
-84
-79
-93
-85
-88
-100
-92
-94
-96
-100
-97
-115
-102
-103
-94
-93
-98
-93
-91
-108
-114
-99
-93
-88
-106
-107
-102
-90
-111
-101
-100
-105
-111
-97
-97
-102
-102
-94
-102
-111
-104
-97
-111
-102
-84
-99
-97
-111
-118
-96
-84
-84
-99
-97
-88
-101
-100
-102
-106
-107
-99
-98
-98
-107
-101
-99
-94
-99
-98
-90
-100
-92
-92
-108
-123
-111
-87
-100
-101
-90
-90
-95
-102
-93
-93
-87
-113
-88
-92
-100
-100
-105
-96
-98
-101
-87
-93
-104
-106
-106
-102
-83
-110
-97
-86
-97
-97
-98
-98
-90
-97
-102
-99
-102
-103
-96
-97
-99
-96
-92
-102
-99
-77
-92
-98
-100
-96
-85
-93
-99
-91
-105
-113
-111
-93
-97
-90
-103
-105
-89
-86
-102
-93
-100
-111
-89
-90
-75
-94
-106
-103
-97
-94
-91
-102
-107
-99
-99
-81
-91
-91
-109
-110
-102
-92
-79
-90
-100
-97
-108
-106
-88
-93
-84
-102
-100
-97
-101
-100
-108
-108
-93
-101
-100
-98
-94
-93
-111
-102
-81
-101
-99
-90
-97
-100
-96
-94
-95
-103
-100
-88
-94
-93
-89
-110
-109
-74
-94
-110
-104
-101
-110
-87
-84
-104
-96
-99
-92
-97
-94
-97
-100
-100
-105
-108
-99
-74
-102
-100
-94
-94
-104
-101
-99
-98
-97
-102
-104
-102
-101
-90
-93
-108
-103
-100
-105
-114
-100
-89
-106
-88
-102
-88
-77
-94
-97
-101
-110
-116
-93
-99
-93
-89
-107
-92
-98
-98
-100
-94
-94
-106
-111
-95
-83
-93
-93
-72
-93
-92
-98
-96
-99
-95
-89
-101
-86
-79
-77
-85
-87
-81
-99
-93
-87
-80
-73
-78
-88
-107
-104
-111
-95
-87
-98
-97
-103
-94
-99
-108
-101
-107
-109
-86
-92
-98
-100
-94
-97
-109
-111
-110
-101
-106
-108
-94
-88
-93
-109
-106
-106
-112
-93
-100
-94
-101
-106
-103
-91
-87
-99
-122
-117
-104
-114
-106
-95
-88
-84
-73
-42
-24
18
51
61
76
99
77
47
36
5
-28
-48
-89
-126
-134
-104
-101
-104
-123
-112
-111
-91
-87
-99
-103
-97
-94
-92
-97
-110
-103
-104
-104
-105
-98
-89
-97
-93
-89
-92
-100
-97
-98
-88
-93
-93
-88
-99
-98
-102
-96
-105
-100
-85
-87
-93
-99
-98
-86
-95
-97
-90
-95
-76
-81
-98
-96
-114
-100
-96
-92
-92
-95
-90
-80
-83
-97
-88
-80
-84
-86
-100
-93
-89
-82
-86
-76
-78
-86
-91
-83
-82
-76
-84
-89
-80
-63
-75
-78
-74
-69
-73
-82
-77
-64
-51
-63
-74
-66
-57
-65
-91
-64
-45
-44
-62
-58
-61
-53
-47
-60
-53
-47
-46
-34
-37
-40
-44
-47
-55
-33
-39
-34
-32
-35
-31
-37
-36
-34
-33
-32
-34
-45
-47
-35
-37
-42
-58
-65
-55
-52
-55
-63
-70
-61
-70
-77
-78
-78
-81
-84
-84
-83
-77
-86
-93
-97
-82
-76
-83
-87
-110
-106
-90
-87
-93
-91
-104
-113
-104
-104
-94
-83
-97
-89
-88
-94
-115
-103
-95
-98
-87
-87
-79
-106
-93
-93
-102
-101
-99
-95
-103
-98
-92
-92
-97
-106
-104
-103
-96
-98
-104
-102
-89
-96
-99
-105
-89
-104
-101
-93
-100
-90
-85
-94
-92
-99
-92
-96
-105
-92
-85
-96
-96
-93
-94
-102
-99
-107
-99
-87
-72
-89
-87
-100
-99
-82
-84
-83
-84
-102
-103
-85
-87
-98
-95
-86
-97
-92
-93
-88
-101
-91
-79
-98
-95
-92
-92
-91
-85
-95
-92
-101
-94
-108
-87
-96
-86
-103
-93
-85
-76
-103
-92
-98
-97
-104
-94
-84
-83
-82
-93
-98
-90
-91
-97
-97
-79
-88
-100
-90
-99
-87
-89
-96
-92
-90
-92
-85
-81
-87
-91
-94
-107
-93
-92
-87
-91
-99
-98
-84
-87
-90
-84
-85
-109
-99
-94
-93
-93
-88
-97
-97
-113
-85
-77
-75
-91
-79
-91
-101
-95
-84
-79
-88
-99
-92
-100
-99
-88
-93
-95
-99
-77
-87
-96
-88
-95
-89
-81
-85
-92
-90
-83
-82
-95
-89
-92
-87
-123
-90
-82
-89
-91
-101
-103
-92
-94
-95
-85
-92
-97
-84
-80
-81
-92
-91
-95
-84
-79
-92
-91
-83
-87
-97
-92
-78
-96
-90
-94
-100
-89
-82
-94
-102
-86
-90
-89
-73
-88
-87
-83
-80
-103
-107
-94
-90
-92
-96
-97
-82
-76
-84
-94
-97
-81
-85
-87
-79
-82
-81
-80
-87
-94
-93
-78
-83
-76
-84
-87
-94
-93
-80
-84
-92
-85
-81
-65
-77
-79
-86
-89
-75
-71
-80
-83
-81
-75
-73
-69
-50
-69
-87
-85
-83
-97
-89
-81
-75
-75
-80
-90
-87
-92
-101
-75
-87
-79
-82
-88
-89
-87
-87
-87
-91
-78
-86
-95
-89
-86
-90
-75
-86
-82
-84
-75
-106
-100
-99
-87
-97
-104
-110
-78
-47
-81
-90
-83
-90
-102
-106
-99
-98
-96
-90
-89
-59
-27
-10
17
50
77
98
106
115
92
63
24
8
-38
-74
-88
-89
-93
-87
-76
-78
-77
-80
-76
-90
-84
-85
-72
-85
-79
-94
-93
-96
-94
-88
-81
-85
-102
-79
-79
-77
-85
-100
-89
-87
-72
-91
-78
-84
-87
-87
-81
-82
-87
-97
-99
-72
-63
-76
-87
-98
-78
-76
-85
-83
-73
-78
-76
-83
-81
-72
-66
-82
-81
-79
-71
-83
-88
-83
-88
-88
-76
-83
-59
-62
-63
-78
-68
-77
-74
-71
-69
-63
-75
-51
-64
-74
-57
-56
-65
-88
-69
-65
-70
-59
-57
-59
-64
-63
-70
-76
-47
-33
-45
-36
-49
-64
-54
-45
-37
-47
-45
-39
-26
-30
-29
-30
-35
-27
-28
-36
-36
-32
-18
-9
-5
-29
-19
-37
-31
-20
-25
-34
-29
-31
-14
-31
-25
-34
-48
-45
-45
-51
-51
-43
-61
-57
-55
-63
-75
-65
-63
-64
-69
-58
-74
-78
-80
-80
-89
-79
-88
-73
-68
-77
-78
-77
-80
-90
-86
-87
-87
-93
-79
-65
-81
-95
-83
-85
-98
-84
-72
-78
-79
-84
-78
-74
-77
-88
-100
-94
-91
-91
-80
-82
-81
-100
-102
-90
-84
-94
-81
-81
-84
-82
-83
-85
-89
-81
-90
-88
-100
-80
-75
-82
-91
-90
-77
-86
-90
-87
-81
-88
-76
-76
-97
-93
-81
-75
-86
-79
-77
-85
-92
-71
-74
-83
-82
-115
-93
-78
-83
-89
-66
-75
-87
-82
-66
-74
-81
-87
-87
-101
-84
-73
-76
-86
-88
-79
-81
-75
-90
-77
-70
-89
-82
-82
-85
-82
-78
-84
-86
-83
-73
-70
-82
-98
-76
-85
-85
-80
-77
-92
-75
-75
-74
-78
-83
-83
-84
-81
-87
-90
-75
-78
-90
-68
-68
-90
-90
-81
-88
-86
-70
-85
-82
-95
-79
-78
-82
-76
-73
-54
-69
-95
-84
-76
-94
-89
-80
-76
-72
-83
-79
-68
-80
-72
-73
-75
-89
-75
-75
-83
-64
-77
-85
-85
-79
-70
-80
-77
-87
-94
-79
-80
-69
-69
-74
-84
-77
-77
-90
-72
-63
-81
-85
-79
-78
-78
-90
-76
-78
-77
-88
-80
-73
-79
-82
-71
-57
-84
-83
-87
-73
-74
-90
-71
-65
-60
-85
-83
-82
-69
-95
-81
-73
-86
-94
-87
-60
-83
-72
-64
-70
-74
-74
-79
-86
-84
-85
-89
-87
-69
-68
-78
-81
-68
-80
-78
-82
-78
-79
-72
-85
-78
-75
-79
-87
-82
-79
-77
-63
-67
-71
-92
-78
-92
-78
-66
-71
-90
-83
-71
-79
-79
-64
-67
-78
-77
-72
-83
-75
-64
-48
-80
-88
-74
-79
-77
-77
-90
-87
-71
-73
-82
-77
-80
-80
-86
-75
-71
-75
-71
-73
-65
-76
-72
-58
-48
-56
-70
-69
-61
-60
-68
-72
-59
-66
-75
-84
-71
-53
-49
-56
-71
-79
-87
-85
-88
-74
-76
-72
-72
-85
-75
-60
-63
-99
-90
-76
-89
-78
-74
-88
-95
-77
-82
-87
-75
-86
-79
-89
-85
-60
-85
-88
-63
-79
-86
-63
-75
-83
-77
-96
-97
