22
-2
-21
-20
-15
4
24
39
39
31
14
5
-14
-10
-5
15
30
43
40
32
15
-2
-13
-11
3
20
36
44
36
34
10
-10
-24
-20
-13
8
22
31
29
14
-14
-25
-31
-25
-16
6
20
29
21
18
-4
-24
-29
-30
-23
1
22
27
22
5
-31
-44
-44
-43
-34
-14
16
30
45
53
52
57
69
86
103
115
121
100
94
76
32
-13
-57
-74
-72
-49
-30
-24
-25
-32
-43
-55
-56
-40
-28
3
20
17
19
10
-17
-25
-19
-9
-4
20
35
31
29
19
-7
-13
-15
-17
-7
10
37
46
34
22
-2
-19
-19
-3
13
40
44
45
43
33
3
-4
0
7
19
34
45
58
54
49
24
18
12
26
42
66
86
95
89
76
56
51
50
56
79
97
112
111
112
89
70
56
57
71
82
93
110
108
93
72
51
37
33
36
53
69
87
79
58
35
16
4
7
15
31
51
58
49
37
16
-8
-18
-17
-11
13
31
43
38
28
2
-23
-33
-30
-11
10
23
36
35
20
-1
-15
-23
-21
-7
12
27
43
36
22
0
-15
-23
-17
2
27
36
38
28
26
4
-15
-22
-12
4
17
31
42
41
27
0
-19
-27
-10
-2
31
38
30
19
13
-13
-23
-23
-5
3
22
36
33
31
17
-13
-23
-27
-15
3
20
27
33
29
11
-8
-18
-26
-14
-2
12
33
29
14
19
-3
-21
-23
-9
0
21
41
48
39
21
-13
-15
-17
-6
11
28
40
43
31
15
-9
-20
-15
-3
12
20
23
28
30
6
-24
-38
-37
-30
-9
17
23
22
10
-8
-19
-31
-30
-18
-4
4
20
22
15
-4
-14
-33
-29
-17
-6
11
9
6
-9
-36
-47
-52
-43
-17
23
66
92
108
119
103
100
94
74
49
72
64
52
17
-19
-72
-93
-99
-98
-88
-58
-35
-18
-16
-12
-31
-45
-38
-31
-27
-1
16
29
23
11
-11
-29
-31
-31
-13
5
21
24
19
15
-5
-16
-33
-17
-4
24
31
39
24
21
-3
-13
-20
-7
1
25
39
43
41
28
6
5
3
9
24
52
61
60
53
46
22
10
12
36
56
73
85
100
94
85
66
56
43
64
79
93
99
110
115
90
67
67
54
51
82
89
99
103
79
63
46
29
34
33
44
59
59
55
42
24
9
-6
-6
-3
17
33
38
39
22
4
-18
-29
-24
-12
-2
16
29
23
14
-5
-24
-33
-33
-26
2
26
23
21
15
-5
-16
-20
-15
-10
6
21
33
23
16
-5
-25
-20
-16
-11
12
25
31
27
7
-13
-32
-39
-20
-18
5
16
28
24
3
-12
-25
-31
-26
-16
9
16
24
21
4
-15
-27
-31
-27
-24
2
25
28
11
-1
-16
-33
-31
-34
-26
5
13
15
8
-3
-24
-33
-35
-29
-18
8
18
27
12
-2
-20
-42
-47
-31
-24
3
17
28
25
5
-18
-24
-28
-14
-4
15
31
34
23
0
-19
-27
-22
-12
2
14
27
25
11
-10
-33
-42
-45
-35
-17
1
16
11
2
-12
-40
-46
-59
-46
-16
5
11
15
0
-22
-42
-55
-51
-42
-14
-2
3
-10
-21
-37
-54
-62
-59
-40
-8
19
56
76
83
82
84
84
79
75
57
62
57
28
-10
-63
-109
-124
-117
-113
-89
-60
-51
-50
-46
-64
-65
-67
-49
-35
-12
-1
9
8
-6
-26
-32
-40
-35
-30
-14
6
18
17
5
-18
-38
-47
-32
-19
2
20
17
1
2
-23
-27
-34
-20
-6
24
34
35
23
9
-9
-24
-23
-14
6
25
41
47
44
40
11
3
5
16
31
67
78
75
73
61
45
33
31
46
65
90
100
106
97
78
62
47
44
45
63
82
84
99
87
58
36
23
19
24
35
49
55
50
39
22
1
-17
-11
-5
14
24
27
27
10
-7
-22
-34
-33
-33
-8
10
16
8
2
-18
-32
-44
-35
-23
-5
6
12
11
7
-20
-32
-43
-36
-20
0
11
15
11
6
-17
-32
-41
-33
-29
-3
10
19
9
8
-14
-28
-39
-33
-31
3
7
20
5
-2
-27
-34
-43
-46
-26
6
5
19
11
3
-30
-40
-58
-44
-26
-5
5
8
-1
-6
-31
-43
-52
-40
-24
2
9
5
5
-5
-32
-48
-52
-40
-25
5
9
9
2
-4
-27
-37
-45
-36
-24
-7
16
20
6
-7
-25
-35
-38
-25
-12
4
16
21
11
-4
-19
-33
-41
-36
-25
-9
7
7
-3
-15
-38
-48
-58
-49
-37
-23
-5
8
-6
-21
-40
-57
-55
-53
-32
-11
3
-2
-4
-27
-45
-59
-51
-53
-39
-26
-12
-14
-29
-47
-55
-57
-45
-19
19
60
83
107
107
88
60
41
8
10
18
9
-9
-42
-82
-111
-129
-132
-117
-104
-79
-59
-37
-34
-36
-50
-59
-67
-56
-49
-26
-8
6
6
-7
-31
-44
-46
-46
-43
-19
-7
0
-6
-7
-28
-34
-38
-33
-29
-3
8
12
4
5
-22
-33
-39
-31
-23
0
19
27
17
2
-10
-21
-14
-15
-4
27
37
48
37
29
5
-3
-1
11
28
59
70
71
63
58
36
25
24
41
52
77
96
93
76
67
44
30
26
34
46
66
73
73
65
44
18
4
2
9
11
25
36
31
24
10
-20
-38
-42
-36
-20
7
20
19
1
-18
-35
-50
-49
-39
-22
-1
10
7
-4
-21
-39
-51
-47
-50
-23
-6
10
5
2
-21
-42
-53
-51
-43
-20
-2
6
7
2
-24
-41
-45
-46
-30
-13
1
17
18
0
-30
-48
-55
-57
-46
-19
3
5
2
-11
-31
-47
-54
-51
-45
-18
-9
-2
-4
-11
-33
-48
-50
-47
-37
-10
-7
3
3
-14
-36
-49
-54
-53
-39
-15
-4
-2
-6
-18
-37
-48
-51
-49
-35
-2
10
9
7
-8
-28
-40
-49
-49
-34
-8
13
12
0
-9
-35
-43
-49
-34
-24
-9
-5
-2
-9
-21
-42
-57
-64
-53
-40
-20
-9
-2
-9
-22
-44
-54
-50
-48
-40
-17
-4
-8
-19
-32
-45
-59
-62
-56
-43
-25
-19
-24
-33
-50
-69
-75
-61
-32
8
40
70
86
94
86
62
38
8
13
24
26
12
-13
-58
-91
-109
-117
-112
-98
-77
-53
-36
-28
-38
-50
-62
-65
-52
-52
-27
-8
3
1
-4
-30
-47
-48
-46
-35
-12
-2
4
5
2
-23
-41
-41
-37
-34
-3
5
11
10
-1
-27
-39
-41
-34
-27
-9
12
15
15
6
-7
-20
-21
-15
-13
16
25
34
27
22
1
-13
-12
5
20
37
57
66
62
53
38
22
17
24
29
61
80
70
65
54
38
15
11
22
32
51
60
59
44
28
2
-8
-14
-13
1
16
26
25
17
3
-15
-29
-35
-33
-27
-1
12
5
-4
-14
-36
-54
-49
-40
-33
-10
3
-7
-6
-21
-41
-55
-53
-45
-30
-8
-1
-2
-14
-23
-40
-55
-46
-44
-25
-3
10
8
-12
-27
-45
-52
-53
-42
-31
-13
7
3
-1
-24
-41
-53
-49
-44
-27
-11
4
1
-6
-25
-48
-56
-51
-47
-34
-5
-2
-5
-13
-32
-52
-64
-59
-47
-23
-14
-6
-2
-11
-26
-45
-59
-57
-49
-26
-7
2
3
-9
-23
-52
-61
-53
-49
-16
-1
1
2
-16
-33
-56
-57
-56
-48
-19
-12
-1
-9
-20
-49
-64
-68
-58
-51
-26
-17
-13
-21
-26
-57
-63
-73
-63
-49
-27
-22
-16
-27
-43
-61
-68
-70
-61
-56
-38
-26
-28
-38
-46
-75
-85
-86
-64
-36
-1
28
49
56
53
41
26
15
6
12
34
25
14
-29
-78
-106
-118
-119
-108
-89
-79
-58
-49
-51
-64
-86
-90
-89
-73
-58
-35
-19
-19
-25
-46
-67
-74
-72
-59
-41
-31
-19
-13
-19
-34
-61
-71
-70
-61
-36
-13
-7
-2
-22
-36
-51
-68
-61
-46
-29
-10
0
-9
-7
-20
-39
-59
-51
-41
-22
-4
3
4
-9
-23
-31
-37
-33
-21
0
23
32
29
23
6
-11
-15
-10
-3
22
36
49
44
29
7
-5
-16
-16
-12
6
21
20
23
15
-12
-33
-47
-45
-34
-17
-4
1
-3
-15
-37
-66
-73
-63
-54
-29
-13
-16
-30
-33
-57
-71
-72
-66
-60
-38
-28
-25
-39
-44
-61
-74
-81
-72
-55
-36
-20
-18
-33
-44
-68
-77
-78
-70
-51
-29
-16
-26
-32
-45
-62
-77
-80
-69
-52
-28
-18
-16
-31
-47
-61
-73
-73
-61
-42
-28
-18
-18
-25
-35
-61
-73
-74
-65
-48
-26
-18
-15
-22
-41
-66
-68
-69
-62
-45
-22
-16
-23
-29
-42
-61
-73
-72
-61
-35
-16
-15
-17
-29
-46
-67
-73
-70
-63
-39
-23
-14
-15
-28
-54
-69
-77
-72
-58
-35
-33
-23
-23
-30
-52
-71
-80
-78
-69
-48
-37
-29
-31
-39
-63
-78
-85
-85
-74
-47
-29
-23
-28
-40
-65
-85
-80
-78
-66
-56
-52
-43
-45
-58
-84
-97
-97
-80
-60
-21
12
33
44
46
31
13
-1
-16
-7
15
12
-1
-29
-74
-112
-131
-135
-122
-113
-96
-75
-66
-68
-74
-89
-97
-96
-82
-67
-46
-32
-27
-33
-45
-67
-79
-87
-79
-63
-38
-27
-27
-43
-52
-68
-86
-78
-74
-58
-36
-21
-22
-34
-47
-68
-76
-75
-61
-50
-29
-17
-13
-23
-36
-53
-64
-69
-58
-36
-12
-2
-6
-6
-24
-44
-45
-47
-38
-7
12
27
25
18
7
-8
-15
-15
-6
15
26
39
36
28
7
-10
-22
-18
-9
12
24
29
18
13
-14
-39
-44
-46
-41
-23
-8
-3
-9
-22
-44
-59
-67
-67
-59
-45
-30
-20
-32
-41
-64
-80
-83
-82
-72
-46
-31
-27
-27
-40
-71
-81
-93
-85
-78
-55
-40
-27
-38
-51
-73
-83
-87
-81
-72
-46
-33
-29
-38
-47
-64
-76
-83
-73
-65
-50
-29
-30
-36
-44
-66
-80
-85
-75
-61
-40
-26
-23
-28
-39
-66
-82
-86
-74
-65
-34
-25
-23
-35
-48
-76
-84
-82
-67
-60
-41
-27
-26
-37
-49
-67
-78
-79
-72
-54
-39
-23
-26
-39
-50
-66
-79
-72
-65
-51
-29
-20
-15
-29
-50
-63
-80
-88
-74
-56
-39
-27
-29
-41
-57
-75
-89
-87
-78
-63
-45
-34
-35
-43
-69
-88
-91
-90
-78
-58
-41
-33
-35
-45
-65
-86
-100
-96
-87
-66
-58
-51
-59
-70
-87
-96
-99
-90
-63
-24
-2
18
39
48
33
17
-2
-16
-18
6
2
-13
-51
-91
-123
-136
-146
-144
-131
-103
-83
-68
-71
-77
-91
-103
-104
-97
-85
-56
-46
-41
-43
-41
-60
-82
-88
-85
-77
-57
-37
-32
-36
-49
-71
-87
-87
-80
-66
-46
-32
-25
-30
-43
-65
-77
-80
-69
-63
-38
-22
-20
-25
-37
-64
-70
-70
-58
-43
-14
1
-1
-7
-22
-38
-51
-50
-32
-10
14
26
29
19
11
-6
-16
-14
-7
10
29
43
45
33
19
-4
-23
-27
-12
-2
16
31
29
12
-6
-33
-46
-50
-48
-30
-17
-2
0
-14
-39
-59
-75
-78
-76
-56
-35
-23
-30
-40
-57
-72
-77
-81
-76
-64
-46
-38
-47
-51
-65
-87
-95
-92
-83
-59
-45
-36
-39
-48
-64
-85
-95
-88
-74
-57
-43
-30
-40
-56
-76
-89
-88
-85
-77
-57
-37
-28
-27
-38
-64
-83
-87
-82
-72
-53
-35
-36
-36
-54
-74
-85
-95
-80
-74
-51
-39
-33
-38
-50
-75
-89
-92
-83
-79
-61
-51
-47
-47
-55
-81
-87
-87
-85
-76
-55
-42
-40
-47
-56
-74
-93
-94
-83
-68
-42
-33
-28
-42
-50
-71
-87
-91
-82
-70
-45
-32
-28
-35
-54
-80
-87
-86
-86
-74
-56
-41
-40
-46
-67
-89
-102
-103
-91
-71
-52
-44
-39
-52
-70
-94
-103
-98
-90
-72
-49
-42
-45
-57
-65
-80
-96
-102
-91
-79
-66
-54
-59
-72
-90
-97
-98
-83
-45
-4
28
54
73
73
53
18
-20
-24
-21
-21
-32
-50
-91
-111
-132
-146
-145
-141
-124
-106
-81
-69
-62
-59
-76
-92
-103
-96
-86
-61
-39
-33
-31
-34
-60
-76
-82
-76
-68
-50
-30
-27
-27
-45
-59
-80
-79
-73
-62
-40
-25
-23
-25
-33
-49
-66
-72
-65
-58
-35
-14
-11
-12
-20
-35
-53
-60
-48
-32
-9
4
6
0
3
-18
-32
-32
-18
-6
20
36
50
44
36
14
-2
-2
7
18
-31
-21
-5
6
7
-13
-28
-51
-62
-62
-57
-41
-23
-20
-19
-33
-52
-69
-78
-75
-68
-56
-36
-20
-27
-46
-67
-78
-82
-85
-68
-53
-32
-22
-22
-40
-66
-80
-88
-86
-68
-51
-33
-23
-25
-38
-55
-74
-82
-81
-67
-50
-34
-25
-26
-40
-59
-75
-76
-76
-63
-50
-28
-19
-24
-31
-51
-72
-90
-87
-74
-49
-36
-28
-26
-26
-57
-82
-85
-82
-82
-49
-34
-28
-29
-44
-62
-76
-84
-75
-72
-51
-38
-27
-31
-41
-58
-75
-82
-77
-59
-46
-31
-23
-33
-43
-60
-77
-79
-75
-64
-34
-18
-13
-23
-32
-52
-69
-79
-71
-57
-35
-23
-19
-32
-39
-65
-78
-77
-72
-57
-38
-25
-32
-40
-50
-75
-87
-91
-79
-67
-49
-30
-31
-35
-52
-79
-88
-87
-81
-67
-50
-39
-29
-35
-55
-78
-85
-91
-85
-69
-52
-48
-44
-56
-74
-93
-104
-82
-55
-21
12
45
60
61
58
29
0
-28
-14
4
7
-9
-51
-85
-114
-134
-138
-136
-121
-101
-82
-74
-62
-62
-76
-91
-91
-90
-87
-62
-41
-21
-24
-30
-59
-68
-77
-79
-67
-42
-25
-18
-29
-35
-52
-69
-69
-58
-53
-35
-27
-18
-24
-33
-51
-63
-70
-64
-51
-24
-14
-6
-12
-13
-36
-49
-55
-50
-36
-5
8
13
4
-9
-29
-40
-31
-25
-8
16
32
49
41
25
1
-4
-6
6
12
32
50
48
40
29
11
-7
-6
-3
6
20
34
39
33
18
-7
-29
-36
-29
-14
3
6
13
-2
-17
-42
-57
-55
-52
-46
-29
-16
-12
-15
-29
-45
-58
-69
-58
-42
-25
-20
-25
-32
-40
-64
-72
-74
-68
-50
-28
-24
-22
-28
-41
-63
-70
-74
-63
-50
-35
-19
-17
-22
-38
-56
-73
-72
-66
-46
-25
-15
-13
-26
-47
-62
-68
-58
-56
-38
-19
-15
-17
-28
-45
-59
-64
-65
-55
-44
-25
-14
-22
-29
-47
-64
-68
-72
-59
-37
-21
-13
-22
-30
-55
-69
-76
-73
-59
-39
-26
-21
-27
-30
-48
-66
-73
-69
-58
-35
-23
-16
-14
-24
-43
-63
-67
-59
-52
-31
-17
-15
-21
-33
-52
-71
-62
-53
-42
-23
-13
-6
-15
-28
-54
-66
-68
-64
-59
-41
-19
-17
-20
-35
-55
-70
-73
-69
-54
-28
-20
-15
-30
-49
-63
-66
-78
-74
-62
-40
-26
-20
-32
-44
-59
-79
-81
-81
-72
-54
-42
-35
-43
-58
-65
-64
-52
-31
-9
32
64
72
67
40
13
-18
-17
-14
-11
-19
-38
-56
-70
-93
-107
-118
-120
-113
-97
-67
-60
-48
-46
-57
-75
-84
-81
-65
-47
-27
-22
-23
-36
-47
-63
-64
-72
-64
-43
-26
-9
-6
-22
-47
-64
-61
-62
-49
-31
-27
-15
-12
-23
-37
-54
-65
-59
-44
-22
-12
-3
-4
-11
-39
-53
-57
-46
-33
-11
0
14
15
5
-6
-20
-35
-25
-6
12
34
46
43
29
9
-7
-5
2
9
34
48
54
46
30
11
-8
-18
-7
-3
20
23
29
21
11
-18
-33
-45
-40
-22
0
17
14
-3
-16
-41
-54
-62
-54
-36
-20
-4
-6
-16
-23
-48
-70
-69
-56
-47
-28
-14
-16
-23
-41
-58
-71
-74
-65
-50
-24
-13
-16
-14
-29
-53
-67
-69
-57
-40
-28
-21
-17
-22
-38
-52
-57
-58
-49
-36
-22
0
0
-14
-35
-48
-56
-57
-60
-42
-23
-12
-2
-11
-27
-50
-66
-68
-54
-33
-8
-5
-10
-18
-43
-51
-61
-61
-55
-36
-14
-9
-15
-24
-40
-54
-58
-51
-45
-22
-11
-4
-11
-19
-40
-53
-63
-53
-49
-22
-8
-6
-4
-6
-32
-38
-53
-51
-48
-28
-7
0
-6
-18
-37
-51
-55
-53
-40
-11
0
-2
-6
-18
-37
-57
-67
-59
-47
-21
-7
-7
-13
-26
-45
-57
-70
-62
-53
-29
-15
-3
-19
-30
-51
-65
-73
-59
-51
-30
-13
-11
-26
-42
-68
-81
-76
-70
-58
-33
-13
-4
6
11
4
6
25
39
50
61
53
47
42
21
-24
-58
-87
-95
-80
-62
-47
-45
-59
-69
-90
-95
-85
-79
-56
-36
-10
-9
-30
-40
-55
-58
-56
-47
-32
-15
-7
-8
-13
-25
-50
-66
-66
-53
-37
-12
-2
-2
-6
-24
-48
-48
-51
-45
-23
-6
7
6
-3
-24
-45
-55
-49
-36
-20
3
16
19
8
-12
-22
-37
-28
-18
11
26
34
29
24
11
0
-11
3
13
43
61
63
59
53
40
20
8
8
11
35
45
62
58
42
20
-3
-9
-7
4
21
27
33
36
21
-13
-32
-41
-32
-22
-4
12
14
1
-10
-31
-47
-53
-51
-43
-19
-2
-1
-13
-18
-36
-56
-61
-53
-40
-17
-5
-5
-17
-22
-48
-60
-57
-45
-36
-15
-4
-2
-16
-29
-47
-55
-61
-49
-39
-11
4
1
-5
-13
-35
-56
-54
-49
-35
-12
-1
2
-12
-28
-42
-56
-52
-46
-25
-6
-3
-5
-9
-22
-44
-51
-51
-43
-27
-12
1
-4
-9
-28
-48
-64
-59
-44
-26
-8
2
2
-10
-27
-47
-51
-52
-46
-28
-11
9
7
-6
-24
-43
-52
-44
-33
-16
0
5
5
-1
-21
-40
-48
-44
-41
-17
5
11
1
-13
-38
-52
-57
-61
-53
-21
-4
3
-3
-18
-39
-56
-58
-54
-46
-23
-6
-1
-11
-24
-38
-57
-61
-59
-48
-30
-18
-5
-15
-24
-48
-50
-67
-66
-58
-34
-32
-26
-36
-47
-61
-61
-56
-32
-2
36
74
90
84
70
43
17
-4
6
12
9
0
-38
-69
-83
-104
-114
-108
-99
-88
-64
-44
-30
-41
-49
-61
-63
-63
-62
-43
-23
-12
-3
-17
-33
-55
-63
-63
-54
-44
-29
-13
-9
-12
-23
-40
-56
-58
-43
-35
-15
-4
2
-10
-31
-48
-55
-48
-40
-24
-5
0
5
3
-15
-34
-44
-41
-30
-5
19
26
18
7
2
-15
-21
-15
-4
21
39
50
41
39
30
10
1
9
16
38
53
60
55
49
35
16
6
6
8
28
42
54
48
31
1
-14
-22
-23
-22
-5
5
11
8
-1
-31
-53
-57
-48
-47
-27
-10
-12
-17
-22
-47
-65
-71
-69
-59
-35
-26
-15
-25
-32
-59
-74
-88
-79
-65
-40
-23
-21
-32
-44
-66
-72
-85
-75
-59
-40
-26
-20
-28
-40
-64
-80
-83
-71
-57
-37
-28
-22
-32
-46
-67
-76
-74
-70
-51
-38
-28
-29
-41
-48
-68
-84
-84
-70
-59
-40
-28
-26
-39
-54
-78
-89
-86
-72
-61
-40
-28
-34
-44
-58
-83
-92
-96
-84
-68
-49
-39
-37
-50
-62
-83
-93
-98
-87
-71
-51
-31
-41
-54
-71
-91
-101
-95
-85
-64
-48
-33
-33
-44
-62
-78
-93
-96
-91
-67
-48
-32
-42
-48
-65
-88
-98
-92
-86
-61
-50
-40
-38
-43
-68
-84
-93
-89
-86
-59
-42
-40
-48
-59
-81
-100
-116
-109
-100
-71
-57
-57
-62
-65
-94
-106
-116
-118
-104
-73
-60
-54
-62
-80
-101
-117
-131
-120
-109
-77
-79
-72
-82
-91
-110
-125
-133
-110
-84
-44
-10
6
14
22
17
9
-7
-21
-29
-8
-5
-23
-56
-100
-149
-178
-183
-178
-157
-128
-113
-92
-89
-108
-130
-140
-141
-119
-110
-88
-75
-59
-67
-78
-99
-118
-119
-112
-92
-75
-51
-50
-55
-68
-97
-106
-112
-99
-83
-61
-56
-46
-65
-72
-89
-107
-108
-93
-79
-60
-44
-39
-52
-59
-87
-97
-96
-88
-59
-45
-24
-28
-30
-51
-65
-79
-70
-53
-29
-2
5
6
-2
-16
-37
-41
-33
-25
-7
14
27
24
24
-4
-22
-30
-27
-18
2
16
16
4
-8
-24
-38
-55
-57
-45
-24
-13
-16
-27
-40
-70
-81
-83
-82
-76
-65
-50
-47
-49
-58
-80
-106
-118
-108
-94
-70
-59
-51
-63
-70
-90
-108
-126
-110
-95
-77
-62
-63
-74
-80
-100
-113
-115
-114
-103
-84
-69
-60
-68
-77
-101
-110
-120
-106
-89
-69
-61
-58
-68
-75
-101
-116
-117
-106
-91
-72
-60
-63
-65
-80
-101
-121
-123
-104
-101
-81
-63
-62
-70
-91
-109
-117
-113
-102
-97
-74
-60
-68
-77
-98
-115
-118
-122
-107
-98
-78
-74
-72
-82
-94
-113
-125
-119
-113
-100
-90
-71
-70
-77
-98
-117
-133
-132
-115
-106
-88
-72
-69
-77
-102
-118
-128
-123
-121
-97
-79
-60
-68
-79
-102
-125
-137
-130
-115
-95
-78
-66
-67
-95
-109
-120
-134
-126
-118
-93
-78
-70
-84
-91
-109
-117
-133
-122
-114
-90
-73
-65
-70
-81
-104
-120
-130
-123
-104
-86
-72
-62
-69
-79
-91
-111
-121
-116
-100
-74
-68
-58
-63
-76
-95
-115
-121
-113
-100
-79
-60
-61
-64
-74
-91
-112
-113
-110
-96
-77
-59
-53
-63
-88
-119
-128
-128
-112
-100
-77
-70
-70
-78
-89
-107
-127
-134
-125
-107
-79
-65
-65
-78
-99
-127
-147
-150
-139
-118
-92
-77
-61
-60
-55
-53
-50
-27
-8
18
36
37
12
-21
-39
-75
-120
-139
-160
-163
-145
-136
-125
-129
-147
-159
-157
-147
-143
-121
-96
-83
-83
-82
-99
-114
-122
-114
-107
-99
-80
-67
-69
-77
-94
-107
-122
-115
-110
-91
-74
-64
-60
-69
-88
-104
-116
-114
-101
-70
-51
-41
-49
-64
-82
-97
-110
-104
-98
-67
-47
-36
-35
-55
-72
-77
-82
-81
-80
-48
-33
-24
-27
-28
-40
-52
-56
-55
-47
-20
5
16
14
8
-13
-28
-37
-36
-18
8
20
32
19
4
-18
-38
-51
-41
-38
-19
1
2
-14
-25
-47
-64
-64
-61
-56
-43
-32
-32
-32
-49
-72
-91
-103
-96
-82
-59
-47
-42
-55
-72
-89
-98
-109
-100
-86
-68
-51
-50
-64
-75
-99
-110
-116
-103
-85
-61
-52
-53
-59
-72
-100
-106
-110
-106
-84
-60
-53
-53
-60
-71
-93
-109
-103
-98
-78
-54
-40
-45
-53
-73
-87
-102
-107
-96
-77
-58
-47
-47
-57
-78
-94
-100
-104
-99
-85
-70
-52
-46
-50
-70
-90
-99
-101
-90
-68
-52
-40
-42
-53
-83
-99
-108
-99
-92
-73
-54
-39
-49
-59
-70
-87
-102
-100
-90
-71
-50
-42
-46
-57
-77
-88
-109
-106
-90
-61
-51
-43
-44
-55
-81
-98
-103
-96
-90
-68
-49
-43
-50
-59
-83
-97
-104
-97
-81
-55
-28
-35
-44
-51
-77
-91
-103
-93
-79
-49
-32
-33
-32
-48
-71
-83
-87
-87
-74
-49
-31
-22
-38
-47
-71
-84
-90
-78
-62
-48
-35
-34
-43
-56
-81
-93
-90
-82
-75
-54
-44
-41
-50
-59
-74
-89
-101
-87
-75
-50
-41
-43
-51
-66
-91
-104
-97
-88
-77
-65
-60
-55
-58
-75
-91
-94
-88
-66
-25
14
33
48
51
39
10
-16
-36
-29
-17
-7
-21
-63
-101
-122
-131
-141
-139
-128
-116
-93
-75
-70
-69
-86
-97
-107
-99
-87
-59
-51
-36
-37
-41
-68
-78
-88
-92
-80
-49
-41
-39
-38
-52
-68
-80
-85
-80
-68
-49
-32
-28
-30
-35
-61
-70
-81
-76
-61
-37
-32
-23
-29
-31
-53
-68
-72
-73
-56
-29
-7
-3
-9
-17
-37
-52
-56
-38
-30
-8
10
24
22
5
-13
-17
-22
-13
5
27
44
50
30
21
5
-17
-23
-10
0
15
30
25
18
9
-15
-28
-38
-37
-25
-12
-1
3
-5
-23
-53
-64
-67
-60
-49
-31
-15
-15
-29
-44
-63
-72
-76
-68
-56
-41
-34
-30
-41
-50
-75
-84
-82
-76
-59
-45
-31
-27
-40
-57
-75
-83
-82
-72
-54
-33
-18
-28
-39
-57
-78
-78
-67
-69
-52
-35
-20
-26
-31
-51
-64
-83
-75
-63
-46
-34
-26
-25
-29
-56
-74
-75
-74
-69
-51
-29
-18
-21
-36
-57
-76
-84
-76
-71
-49
-32
-33
-35
-44
-63
-76
-82
-77
-72
-48
-31
-24
-26
-39
-68
-81
-83
-76
-74
-54
-36
-29
-29
-37
-64
-76
-82
-72
-58
-39
-31
-22
-39
-52
-72
-78
-79
-72
-56
-35
-19
-16
-22
-30
-59
-70
-70
-67
-57
-32
-17
-12
-22
-28
-52
-67
-69
-62
-53
-31
-20
-22
-33
-40
-62
-73
-78
-67
-50
-36
-31
-31
-37
-45
-63
-83
-86
-72
-56
-35
-27
-23
-31
-50
-65
-80
-85
-82
-68
-52
-41
-37
-50
-53
-60
-54
-37
-20
9
47
74
84
69
38
-5
-20
-18
-23
-30
-44
-60
-67
-76
-96
-114
-123
-117
-104
-82
-59
-40
-40
-44
-56
-66
-71
-74
-64
-47
-30
-13
-19
-21
-44
-55
-66
-65
-46
-29
-18
-8
-11
-17
-42
-58
-62
-59
-47
-20
-11
-1
-7
-16
-34
-48
-50
-49
-41
-15
-1
8
9
6
-18
-38
-42
-33
-28
-3
16
30
26
19
3
-14
-17
-14
3
30
48
53
53
42
19
19
18
30
33
54
63
73
64
53
39
20
15
17
31
43
59
61
48
34
9
-5
-18
-16
1
23
33
27
17
-3
-29
-41
-45
-37
-22
2
10
7
-6
-21
-47
-57
-53
-45
-37
-14
8
13
-3
-20
-42
-50
-48
-39
-34
-9
3
-1
-12
-24
-44
-54
-49
-40
-23
-7
3
-2
-9
-21
-40
-49
-40
-34
-15
-5
7
7
-5
-22
-31
-41
-43
-31
-9
6
21
21
7
-16
-30
-42
-44
-33
-12
2
10
5
-2
-20
-38
-43
-46
-36
-7
8
12
15
-1
-21
-36
-40
-33
-30
-9
7
14
9
-3
-24
-36
-41
-40
-28
-5
10
18
18
8
-17
-23
-32
-36
-27
-3
10
18
15
0
-24
-34
-43
-29
-16
6
22
23
19
9
-9
-26
-27
-15
-9
15
31
36
35
19
-6
-15
-21
-10
4
21
31
33
23
16
-6
-20
-23
-21
-10
16
29
29
18
2
-10
-27
-27
-26
-13
8
14
22
25
2
-17
-25
-23
-13
-5
16
30
23
5
-10
-33
-48
-50
-35
-23
0
27
44
57
62
60
62
83
100
111
115
105
87
82
47
11
-30
-61
-73
-55
-39
-28
-19
-23
-41
-56
-49
-44
-24
-2
10
26
25
20
0
-13
-20
-19
-13
6
21
36
35
26
8
-7
-20
-9
3
26
39
46
48
38
18
-11
-20
-12
0
25
46
41
46
40
21
11
8
14
22
47
55
62
60
54
42
21
20
31
43
65
84
86
86
86
68
58
54
59
68
100
125
125
121
114
84
72
67
79
93
122
134
127
122
108
81
66
60
68
74
97
108
109
94
83
52
35
24
29
43
61
77
61
55
45
28
11
8
7
20
44
50
52
44
31
15
2
0
10
23
45
52
49
40
20
3
-11
-10
6
22
36
51
49
38
25
3
-7
-4
-1
21
35
57
52
49
33
15
1
-8
2
25
43
51
55
49
28
13
-5
-5
10
37
41
53
47
42
24
2
-6
0
7
29
42
49
49
42
19
3
-5
0
9
32
45
50
44
38
18
2
-5
1
6
25
41
48
47
42
17
4
1
3
11
31
46
61
52
38
16
-1
-6
0
8
34
45
46
42
34
13
5
-5
9
18
35
48
61
53
44
20
5
2
19
32
54
68
65
58
43
28
10
7
17
28
48
63
67
56
39
18
6
5
9
27
50
59
66
47
26
8
-10
-5
3
20
41
55
54
44
24
1
-20
-18
-8
15
41
50
49
34
15
-4
-22
-28
-14
4
23
47
63
72
70
69
71
96
121
147
154
153
124
101
84
45
5
-19
-42
-34
-18
-15
-17
-15
-31
-39
-42
-36
-20
7
21
32
33
22
1
-6
-8
-6
5
33
43
54
55
41
22
4
-2
2
9
30
50
52
49
37
15
11
8
11
16
42
55
62
61
50
25
10
9
10
27
54
66
78
67
56
39
22
17
28
44
70
82
96
94
83
61
52
47
60
78
104
118
123
118
105
86
75
70
81
94
117
135
135
116
107
85
66
59
68
72
94
110
102
88
74
55
37
29
38
54
68
74
75
62
46
21
4
4
8
22
49
58
52
43
29
5
-14
-13
-7
11
36
53
47
39
18
1
-16
-15
-3
12
26
33
38
34
21
1
-11
-10
-4
11
24
42
35
30
19
3
-19
-14
3
24
34
43
41
30
11
-9
-14
-11
2
24
42
42
31
25
9
-5
-14
-16
-5
12
20
34
30
23
-1
-14
-22
-15
-11
8
31
32
28
16
-8
-20
-26
-21
-9
11
25
32
27
17
-8
-23
-29
-27
-7
11
20
31
22
17
-4
-24
-29
-20
-15
16
26
30
23
12
-16
-31
-36
-22
-9
20
38
36
25
13
-5
-22
-20
-12
2
27
38
38
36
27
-5
-16
-23
-12
2
25
31
40
28
8
-7
-19
-29
-21
-8
10
21
27
19
0
-16
-27
-40
-24
-10
6
20
24
19
2
-14
-24
-26
-25
-14
3
9
12
2
-15
-30
-34
-23
3
35
68
96
117
119
103
71
40
20
22
43
48
47
10
-38
-55
-67
-85
-85
-68
-46
-29
-15
-11
-11
-22
-29
-37
-32
-21
1
18
25
27
20
-2
-23
-24
-19
-12
13
26
35
32
25
-7
-19
-26
-15
-6
21
35
39
32
25
3
-10
-24
-10
4
30
38
39
38
29
8
-5
-11
-7
10
41
52
60
62
48
28
18
10
20
31
64
79
91
78
70
49
49
49
55
60
88
103
107
97
80
63
51
43
49
59
83
93
92
88
75
48
24
22
24
34
58
66
64
56
41
15
3
-3
6
12
30
45
49
37
14
-11
-25
-21
-8
2
15
35
33
19
6
-15
-24
-27
-13
1
17
29
32
24
7
-15
-22
-25
-19
5
24
39
38
18
-1
-20
-25
-15
-7
11
22
31
33
25
5
-14
-19
-15
-11
12
32
37
22
22
7
-11
-17
-12
-7
7
24
34
37
32
10
-13
-26
-24
-11
12
28
33
26
21
-5
-21
-27
-16
-5
11
26
31
25
13
-7
-20
-23
-18
-6
16
27
34
31
17
2
-12
-28
-24
-10
17
29
34
15
15
-8
-17
-19
-8
5
25
32
38
38
24
0
-14
-14
-1
10
34
46
49
36
20
0
-14
-10
-6
7
24
38
39
22
17
-8
-27
-22
-16
-1
22
23
20
23
11
-13
-27
-24
-9
3
18
31
32
27
5
-21
-32
-33
-24
-15
8
24
18
15
5
-7
-12
-6
25
59
89
117
132
130
94
55
28
31
35
29
25
0
-21
-26
-47
-65
-66
-70
-55
-27
-1
15
9
7
-8
-26
-34
-29
-16
3
27
32
33
18
-6
-15
-20
-19
-7
19
32
38
31
16
-1
-12
-18
-10
2
25
37
44
48
34
14
1
-12
-4
10
34
50
56
51
39
19
8
0
5
17
45
62
60
56
51
40
29
21
34
48
76
86
93
92
91
68
57
58
63
68
95
112
113
113
103
73
56
52
61
78
97
107
109
98
82
46
38
30
34
33
55
68
70
61
41
17
1
7
10
20
43
56
52
39
26
4
-4
-3
2
14
32
40
36
25
16
-2
-16
-12
-8
7
27
39
39
26
13
-7
-21
-17
-4
1
27
37
39
28
14
1
-10
-8
1
20
39
46
46
34
13
-4
-6
0
4
24
37
52
51
43
14
-6
-11
-9
2
28
45
57
50
35
9
-6
-10
-6
-4
17
36
38
37
30
7
-7
-6
-2
0
25
42
46
40
32
9
-8
-18
-3
7
25
37
42
35
36
13
-5
-11
-8
-1
24
41
46
43
39
12
0
-8
-7
11
33
52
57
56
38
21
5
-1
9
20
42
52
58
50
37
14
3
1
11
14
45
55
54
40
28
4
-8
-12
-14
14
33
38
39
31
24
-4
-15
-17
-5
11
24
40
47
40
27
4
-15
-15
-18
-5
18
30
24
19
13
7
16
30
51
90
132
158
165
144
113
66
52
45
35
19
20
9
-14
-25
-41
-58
-55
-58
-44
-12
3
10
28
25
2
-11
-23
-14
-5
18
38
44
47
41
18
2
-6
3
10
27
42
46
47
29
11
1
-2
3
14
35
50
64
58
49
33
11
3
4
19
45
56
68
62
56
33
22
14
21
39
62
79
82
79
79
61
49
48
56
60
91
109
115
113
114
90
81
75
81
96
122
134
138
125
122
98
79
81
81
89
107
124
124
113
97
70
46
36
46
57
76
86
91
80
69
41
20
16
17
35
55
52
63
49
42
19
-3
-1
5
20
40
52
50
42
32
11
-7
-4
7
12
29
41
44
36
16
1
-2
-1
15
31
36
49
48
45
16
-2
-6
-6
3
25
46
58
54
41
20
-5
0
3
7
25
47
51
49
39
24
12
-5
-4
5
25
46
52
48
36
15
-3
-12
-7
6
29
43
55
49
43
18
4
-13
-2
2
15
29
43
38
34
11
1
-12
-9
6
26
44
46
50
37
17
0
-9
1
12
34
49
46
37
27
4
-6
-11
12
19
36
51
53
49
47
24
3
-1
6
18
42
64
64
50
41
25
9
6
10
14
36
48
56
51
34
3
-14
-14
-14
-2
29
42
43
29
24
0
-16
-17
-10
13
29
43
39
35
14
-7
-20
-12
-3
4
18
31
34
18
4
-17
-26
-11
12
49
86
111
129
142
141
117
96
68
64
75
72
56
34
-4
-40
-65
-76
-71
-52
-40
-22
-2
10
3
-13
-21
-23
-19
-7
14
36
46
45
36
10
-11
-18
-21
-7
16
38
48
46
36
14
-2
-14
-4
8
31
47
54
45
37
26
9
-1
1
9
29
51
66
58
51
28
11
0
6
23
46
63
68
71
65
42
27
26
36
51
74
95
96
94
90
77
64
58
65
77
108
121
127
130
111
83
65
70
77
81
103
113
114
113
91
63
53
45
52
56
75
91
85
76
64
40
22
19
23
26
54
60
58
45
31
9
-8
-1
6
16
36
47
41
39
25
2
-12
-9
3
15
32
36
43
31
17
-1
-14
-11
-3
9
33
52
51
43
28
7
-9
-15
-7
14
32
45
42
32
20
1
-16
-10
0
23
40
52
44
32
12
-7
-16
-6
2
24
41
53
46
36
14
-3
-15
-13
-5
15
37
46
43
35
10
-5
-15
-7
1
20
35
38
35
23
3
-11
-13
-8
-2
17
27
40
39
24
10
-8
-13
-14
0
21
29
38
42
28
1
-19
-20
-13
-1
30
38
41
37
26
-1
-12
-14
-14
0
28
42
47
39
24
0
-3
-3
4
13
33
54
60
45
33
4
-7
-15
3
17
36
48
49
36
18
-6
-29
-26
-15
4
18
32
35
25
17
-6
-22
-29
-23
6
26
40
33
23
9
-10
-29
-24
-11
-1
22
30
26
10
-5
-21
-35
-24
-4
34
61
87
102
114
100
87
72
56
44
63
75
73
47
6
-44
-67
-69
-73
-62
-38
-24
-11
-9
-7
-21
-37
-41
-36
-24
4
19
39
33
30
1
-12
-14
-13
0
26
38
48
45
31
8
-10
-14
-11
-2
24
36
41
39
33
13
-5
-10
4
11
28
43
50
43
32
13
5
-4
6
17
43
60
66
61
55
31
19
19
22
34
66
81
87
82
79
60
44
45
52
64
92
106
111
96
97
71
58
48
60
67
92
96
106
100
83
60
44
34
41
52
73
77
78
64
49
24
13
8
10
26
43
62
61
46
29
5
-5
-3
4
7
20
35
41
31
17
-6
-22
-18
-5
12
25
45
40
23
6
-5
-21
-14
-8
9
36
44
47
31
6
-6
-18
-12
0
11
37
46
41
28
5
-13
-21
-15
1
28
37
48
37
25
14
-6
-17
-9
-7
16
36
43
36
30
8
-9
-15
-12
1
17
31
41
34
26
9
-14
-19
-18
0
17
37
39
32
25
3
-17
-33
-35
-20
17
35
38
27
22
1
-16
-23
-9
-1
18
37
37
30
21
-2
-18
-28
-12
-5
22
36
43
35
25
1
-15
-17
-9
7
31
44
52
43
34
10
-8
-16
-6
4
35
42
50
40
26
1
-15
-19
-8
-1
19
32
36
26
14
-11
-28
-33
-17
5
31
34
35
29
8
-14
-27
-28
-15
0
19
33
29
16
-7
-29
-47
-39
-29
-1
25
53
71
77
74
73
75
81
79
85
86
95
87
59
22
-13
-56
-63
-57
-37
-18
-6
-9
-19
-34
-43
-46
-41
-25
-11
14
33
27
17
-1
-17
-13
-15
-6
14
30
41
43
36
7
-11
-20
-12
1
19
41
48
41
30
3
-16
-17
-10
3
31
45
53
44
35
9
-3
-1
8
18
38
50
58
52
43
24
10
13
25
34
57
69
73
72
71
50
42
39
45
59
88
107
110
102
98
71
54
46
60
70
88
101
107
99
88
62
50
49
45
53
80
92
88
70
55
29
9
11
17
25
52
63
67
65
35
9
-11
-11
-2
14
28
42
44
34
19
-2
-21
-20
-6
9
35
45
38
33
16
-6
-14
-16
-15
2
15
24
34
28
16
0
-14
-14
-4
13
26
40
42
37
18
-6
-15
-10
0
19
26
42
48
30
15
-4
-10
-8
0
15
38
49
49
43
16
-7
-18
-11
-4
19
37
41
37
29
16
-4
-10
-8
-1
23
37
46
39
28
10
-5
-14
-9
0
21
39
37
40
27
4
-3
-8
0
2
20
39
46
41
32
1
-11
-16
0
4
27
48
55
44
32
7
2
-8
-7
6
34
46
56
49
40
17
2
3
2
18
36
51
60
47
37
9
-10
-9
-2
8
30
40
40
33
14
-3
-21
-20
-13
6
36
47
41
27
19
0
-17
-20
-8
1
22
36
35
16
3
-15
-24
-31
-21
-6
14
32
43
48
53
40
40
59
90
116
130
120
103
82
62
31
-2
-23
-48
-47
-28
-16
-12
-22
-34
-38
-46
-46
-33
-7
11
29
30
20
8
-11
-16
-16
-9
13
31
43
43
38
12
-8
-14
-10
2
21
36
41
35
30
16
3
-3
-2
6
28
43
53
54
46
29
9
0
7
15
35
51
63
64
53
30
13
10
28
36
57
68
85
76
68
49
37
35
50
65
89
102
112
108
104
82
65
64
67
81
108
125
129
119
98
75
69
66
68
79
95
103
104
97
76
57
38
30
35
39
53
68
67
63
48
29
2
-1
6
14
40
52
54
43
29
5
-10
-5
3
15
30
46
46
29
18
-4
-18
-19
-9
9
28
39
42
28
9
-5
-14
-12
-3
11
29
47
41
29
10
-7
-11
-12
-2
21
35
38
41
33
19
6
-8
-12
1
20
35
47
35
24
12
-6
-7
-5
9
22
34
39
44
32
8
-9
-16
-17
-2
18
35
42
41
23
1
-11
-19
-9
-1
16
29
35
34
22
7
-4
-6
-7
-3
19
32
42
28
19
-2
-17
-23
-17
-2
23
32
36
25
16
-5
-17
-22
-21
-7
21
29
38
26
20
3
-3
-16
-13
7
16
23
34
27
20
2
-7
-8
-1
2
26
39
42
38
27
6
-2
-6
-1
15
28
38
45
35
20
6
-10
-11
-2
7
24
39
37
19
13
-10
-29
-31
-21
-5
18
31
38
19
11
-9
-23
-19
-16
0
16
30
34
26
5
-17
-38
-39
-33
-14
-1
14
17
22
17
1
3
28
58
94
137
153
145
118
69
44
31
9
-11
-26
-39
-33
-36
-42
-50
-69
-75
-67
-48
-29
2
11
7
10
-3
-25
-38
-38
-23
3
20
31
28
13
-3
-23
-27
-19
-22
2
19
31
27
23
-4
-11
-12
-19
0
24
33
39
36
30
-1
-17
-18
-11
6
29
42
46
46
33
12
1
-7
-1
12
36
67
74
64
42
25
23
26
36
50
72
87
94
90
83
63
55
54
64
76
99
112
110
101
95
79
57
56
54
70
87
93
95
83
72
47
28
28
34
40
57
63
61
52
37
17
-1
-1
1
12
26
32
33
28
7
-15
-26
-25
-15
-7
17
30
30
26
8
-11
-32
-29
-17
2
23
30
22
10
-11
-24
-35
-33
-25
-5
14
16
21
12
-3
-19
-29
-26
-21
-4
16
27
22
17
-2
-22
-32
-26
-20
2
21
24
26
13
-4
-23
-27
-21
-14
0
12
19
18
13
-7
-23
-33
-31
-20
0
15
33
22
6
-14
-31
-37
-31
-21
1
12
14
12
-2
-25
-38
-41
-32
-21
3
16
17
15
6
-10
-25
-40
-31
-22
-1
16
18
12
-3
-21
-33
-37
-30
-19
-3
13
14
7
-7
-26
-34
-37
-30
-19
4
9
15
7
-3
-26
-33
-35
-27
-10
0
10
14
16
-2
-26
-32
-44
-34
-23
-1
19
21
10
3
-19
-31
-33
-20
-5
16
31
31
20
3
-14
-23
-28
-24
-6
19
33
29
16
2
-25
-34
-28
-20
-4
11
24
15
9
-16
-34
-44
-45
-33
-8
7
10
9
4
-17
-31
-41
-37
-28
-9
6
9
8
-1
-32
-50
-56
-57
-49
-30
-6
12
24
29
25
22
22
43
70
97
103
100
70
61
39
1
-26
-46
-75
-63
-46
-35
-38
-49
-71
-88
-91
-72
-51
-31
-10
4
1
-9
-34
-40
-45
-37
-27
-3
16
18
13
2
-15
-30
-37
-31
-24
-9
6
26
12
5
-16
-32
-35
-31
-25
1
22
25
17
16
-9
-20
-21
-12
-8
15
35
35
24
12
-6
-20
-19
-7
8
34
54
55
45
30
13
-4
-2
15
36
58
73
81
73
61
39
33
37
36
49
74
84
88
74
62
45
38
30
35
47
65
70
66
53
34
12
-2
-3
5
22
44
51
41
21
12
-8
-20
-22
-17
2
14
16
16
8
-10
-26
-39
-43
-26
-8
6
21
16
4
-16
-35
-52
-49
-38
-13
5
13
16
1
-17
-33
-41
-40
-33
-12
8
15
14
9
-25
-44
-48
-39
-15
1
8
19
11
8
-20
-36
-37
-34
-27
-5
7
20
15
3
-22
-37
-40
-36
-23
-3
14
15
12
3
-17
-25
-45
-44
-31
-7
4
7
0
-14
-33
-45
-43
-31
-25
-5
11
14
1
-6
-29
-45
-51
-44
-32
-1
14
11
11
1
-29
-44
-49
-33
-21
-4
4
10
3
-14
-35
-48
-48
-41
-25
-2
9
11
6
-13
-31
-39
-52
-31
-22
-8
6
10
0
-16
-34
-46
-44
-31
-16
-1
13
18
1
-16
-29
-38
-41
-27
-9
19
14
17
15
-3
-28
-38
-38
-32
-15
7
8
13
4
-6
-30
-43
-41
-33
-24
-3
12
3
-1
-26
-55
-52
-48
-38
-16
-8
-3
2
-8
-27
-40
-54
-53
-45
-27
-17
-8
-12
-13
-37
-56
-59
-55
-35
2
26
47
57
62
64
56
36
29
19
48
55
51
21
-12
-69
-101
-107
-93
-82
-54
-41
-39
-41
-43
-63
-72
-70
-51
-43
-20
-8
-2
-14
-18
-37
-51
-52
-40
-32
-5
3
9
4
-13
-32
-46
-50
-48
-27
-3
10
16
6
-6
-32
-44
-48
-35
-17
0
16
20
15
-1
-30
-34
-32
-25
-8
10
23
30
17
12
-16
-21
-25
-15
8
31
46
47
37
24
2
2
4
11
38
62
78
73
62
48
28
23
28
34
51
67
69
64
57
42
21
11
3
10
27
40
48
48
35
10
-7
-20
-19
-14
2
21
14
18
9
-13
-27
-43
-36
-29
-10
-2
11
3
-7
-30
-44
-51
-48
-33
-18
-5
-3
-7
-13
-31
-44
-61
-51
-41
-21
-9
-2
-8
-20
-35
-48
-60
-51
-41
-20
1
9
6
-7
-38
-51
-56
-46
-37
-13
2
7
1
-9
-33
-48
-50
-35
-30
-13
-5
-6
-9
-8
-41
-54
-58
-50
-33
-10
-9
-4
-8
-13
-42
-50
-52
-49
-40
-15
-1
-4
-14
-25
-50
-55
-60
-51
-28
-15
-9
-9
-16
-29
-45
-55
-53
-46
-37
-22
-4
-6
-14
-23
-46
-61
-66
-54
-40
-22
-8
-2
-9
-29
-46
-61
-61
-50
-28
-9
-7
-10
-17
-29
-55
-64
-61
-47
-29
-8
7
3
-5
-24
-36
-51
-56
-45
-19
1
11
2
-8
-29
-44
-53
-56
-49
-27
-10
-2
-11
-23
-43
-58
-68
-65
-58
-37
-20
-15
-19
-34
-52
-59
-64
-58
-51
-35
-22
-17
-20
-32
-57
-71
-77
-77
-70
-43
-33
-29
-23
-31
-46
-41
-34
-12
14
51
72
83
65
38
-6
-24
-26
-35
-43
-51
-69
-73
-77
-79
-102
-117
-121
-114
-89
-56
-40
-39
-32
-41
-68
-78
-80
-72
-59
-34
-21
-15
-20
-29
-61
-71
-68
-60
-49
-34
-19
-13
-17
-33
-59
-69
-66
-61
-47
-23
-13
-7
-18
-30
-53
-67
-62
-60
-38
-15
1
0
-7
-29
-43
-54
-55
-49
-32
-11
1
8
3
-13
-31
-38
-34
-15
-1
20
33
28
28
19
0
-8
-15
-3
22
40
48
45
39
23
9
-5
-2
5
25
44
50
41
29
4
-10
-26
-19
-14
3
11
21
5
-1
-25
-48
-59
-53
-40
-24
-17
-11
-15
-19
-44
-63
-72
-71
-65
-42
-30
-22
-24
-32
-54
-76
-82
-79
-70
-48
-35
-28
-24
-30
-54
-75
-80
-79
-74
-49
-35
-25
-27
-28
-49
-69
-80
-79
-63
-39
-26
-23
-23
-35
-57
-66
-71
-70
-60
-38
-22
-17
-25
-34
-47
-69
-77
-70
-60
-35
-15
-15
-27
-41
-61
-75
-75
-69
-61
-38
-33
-27
-35
-43
-65
-75
-86
-73
-56
-44
-28
-26
-34
-43
-66
-79
-82
-77
-60
-38
-26
-26
-32
-48
-69
-83
-80
-69
-54
-35
-31
-33
-33
-52
-73
-87
-82
-71
-51
-37
-27
-28
-39
-57
-74
-82
-74
-66
-50
-30
-24
-25
-39
-58
-72
-75
-75
-64
-49
-36
-21
-23
-29
-55
-64
-74
-69
-57
-34
-21
-18
-21
-30
-50
-66
-80
-73
-61
-39
-24
-19
-21
-34
-57
-78
-79
-72
-63
-47
-40
-25
-33
-44
-67
-83
-86
-87
-77
-54
-36
-17
-30
-38
-67
-90
-99
-83
-74
-57
-47
-41
-52
-68
-82
-91
-95
-82
-66
-21
15
38
43
51
44
38
22
8
-8
20
18
0
-29
-66
-123
-151
-148
-134
-116
-92
-79
-67
-67
-70
-92
-98
-98
-88
-73
-47
-33
-36
-42
-47
-73
-87
-89
-72
-65
-41
-23
-26
-28
-48
-68
-83
-81
-75
-54
-30
-27
-24
-30
-44
-67
-75
-72
-68
-50
-22
-10
-16
-19
-37
-54
-69
-70
-58
-38
-18
-3
-5
-9
-21
-40
-48
-43
-33
-10
6
13
19
9
-1
-13
-19
-10
0
27
40
49
54
46
23
8
0
6
12
32
47
59
48
36
13
-4
-15
-14
-2
16
26
35
20
3
-20
-36
-51
-52
-43
-14
0
0
-7
-24
-54
-67
-78
-74
-66
-45
-27
-20
-25
-43
-70
-74
-75
-71
-73
-53
-34
-31
-34
-47
-68
-83
-90
-86
-73
-50
-32
-26
-36
-50
-67
-82
-85
-76
-66
-43
-29
-24
-31
-48
-71
-77
-75
-74
-65
-37
-30
-27
-38
-49
-74
-81
-87
-82
-59
-37
-27
-28
-41
-53
-66
-82
-90
-78
-66
-46
-40
-30
-38
-53
-71
-84
-88
-79
-63
-41
-33
-34
-47
-57
-74
-89
-93
-89
-70
-40
-34
-36
-49
-59
-83
-96
-99
-85
-70
-50
-32
-37
-42
-64
-84
-91
-94
-82
-65
-56
-37
-39
-44
-67
-87
-95
-98
-85
-60
-45
-39
-40
-50
-70
-87
-103
-94
-85
-60
-42
-36
-39
-49
-68
-86
-92
-90
-83
-54
-38
-33
-40
-49
-71
-81
-88
-87
-83
-51
-37
-22
-30
-34
-62
-73
-77
-70
-65
-49
-29
-24
-30
-35
-69
-91
-99
-90
-78
-52
-36
-30
-44
-46
-74
-93
-94
-90
-82
-49
-35
-37
-48
-62
-84
-98
-101
-83
-73
-58
-46
-40
-48
-65
-90
-104
-106
-102
-92
-70
-49
-30
-24
-26
-26
-18
-3
14
32
46
45
24
19
-5
-40
-79
-114
-132
-128
-104
-96
-90
-97
-113
-133
-129
-119
-106
-89
-69
-54
-52
-52
-64
-81
-91
-98
-82
-72
-47
-35
-35
-51
-64
-82
-90
-87
-83
-64
-41
-31
-35
-45
-58
-75
-81
-87
-74
-53
-30
-25
-31
-40
-53
-70
-87
-80
-66
-52
-29
-23
-21
-33
-52
-64
-70
-62
-55
-31
-14
-2
-4
-14
-33
-46
-50
-44
-29
-1
19
23
17
18
1
-18
-31
-23
-8
17
33
44
30
21
-3
-16
-15
-17
-13
-5
12
27
16
0
-22
-41
-52
-45
-38
-16
-9
-3
-10
-30
-53
-71
-81
-71
-59
-39
-34
-28
-39
-52
-71
-86
-85
-79
-69
-52
-48
-41
-47
-60
-75
-90
-102
-76
-68
-44
-40
-40
-47
-58
-76
-86
-91
-87
-72
-48
-36
-32
-45
-58
-87
-96
-94
-85
-70
-42
-31
-31
-44
-65
-80
-89
-82
-77
-68
-45
-37
-36
-39
-60
-71
-86
-93
-84
-61
-47
-33
-30
-34
-55
-81
-104
-92
-91
-78
-49
-35
-32
-47
-67
-86
-85
-89
-77
-58
-47
-44
-42
-50
-66
-83
-93
-92
-83
-61
-40
-35
-42
-50
-68
-83
-95
-92
-85
-65
-49
-40
-44
-49
-75
-90
-89
-83
-80
-62
-38
-27
-33
-52
-74
-89
-95
-87
-82
-55
-44
-35
-44
-47
-75
-89
-84
-83
-71
-43
-29
-20
-28
-39
-61
-74
-79
-82
-71
-47
-32
-34
-36
-47
-69
-81
-84
-77
-67
-44
-42
-42
-48
-55
-80
-96
-102
-92
-75
-52
-38
-33
-48
-61
-84
-92
-94
-82
-74
-51
-45
-35
-48
-63
-93
-109
-111
-101
-88
-59
-37
-26
-13
-16
-21
-21
-9
13
32
34
34
24
12
-10
-47
-81
-113
-129
-112
-95
-86
-81
-90
-107
-127
-130
-120
-100
-78
-58
-46
-42
-58
-70
-81
-89
-88
-78
-62
-45
-33
-34
-38
-53
-69
-86
-84
-77
-57
-41
-34
-32
-35
-56
-77
-81
-72
-69
-46
-32
-19
-29
-32
-52
-69
-79
-76
-64
-45
-27
-14
-8
-19
-46
-71
-68
-61
-55
-23
-8
-1
1
2
-22
-35
-41
-35
-22
3
20
27
28
25
10
-10
-17
-16
-2
22
40
46
37
26
2
-7
-16
-12
-7
11
23
29
12
3
-14
-38
-43
-37
-31
-9
0
4
-5
-11
-35
-51
-66
-62
-61
-31
-19
-10
-20
-34
-67
-77
-82
-73
-58
-37
-34
-26
-33
-46
-76
-90
-87
-73
-64
-53
-36
-27
-30
-46
-68
-76
-78
-71
-57
-39
-21
-22
-32
-48
-66
-74
-74
-72
-56
-31
-23
-20
-26
-45
-63
-76
-81
-71
-52
-30
-16
-20
-27
-44
-65
-80
-81
-73
-49
-32
-18
-22
-31
-50
-71
-78
-82
-77
-46
-26
-19
-22
-32
-51
-67
-77
-77
-75
-49
-35
-25
-26
-40
-61
-69
-82
-76
-65
-49
-35
-27
-20
-38
-53
-72
-83
-80
-74
-49
-31
-22
-22
-36
-56
-78
-77
-69
-62
-36
-25
-22
-32
-37
-56
-70
-74
-72
-64
-37
-18
-11
-16
-29
-50
-68
-70
-62
-53
-28
-23
-14
-21
-28
-46
-64
-73
-72
-59
-37
-24
-18
-31
-46
-69
-76
-79
-74
-66
-43
-27
-23
-37
-49
-79
-93
-87
-72
-61
-39
-28
-28
-44
-55
-79
-89
-94
-93
-70
-55
-32
-26
-26
-28
-35
-32
-13
14
37
54
63
48
26
6
-17
-41
-56
-72
-90
-83
-76
-77
-80
-95
-112
-121
-119
-101
-77
-50
-31
-32
-35
-52
-77
-83
-73
-67
-51
-32
-19
-20
-35
-58
-77
-83
-76
-65
-47
-37
-22
-20
-28
-41
-57
-68
-70
-58
-40
-30
-16
-17
-24
-44
-62
-63
-65
-63
-36
-20
-9
-11
-18
-42
-56
-62
-54
-44
-15
-4
7
12
0
-19
-33
-45
-32
-20
2
24
31
32
31
12
-2
-4
0
13
30
42
51
51
48
20
3
-9
4
9
27
40
41
27
24
-4
-27
-33
-21
-17
5
18
16
3
-10
-33
-50
-54
-48
-44
-19
-8
-10
-22
-36
-55
-73
-72
-61
-52
-35
-22
-15
-20
-33
-56
-72
-70
-70
-51
-33
-27
-20
-31
-48
-68
-78
-72
-67
-57
-36
-23
-22
-26
-42
-62
-74
-77
-69
-54
-30
-16
-18
-30
-49
-71
-81
-80
-67
-46
-20
-11
-13
-25
-45
-60
-70
-67
-54
-43
-29
-14
-17
-31
-53
-62
-78
-80
-71
-44
-32
-27
-26
-35
-58
-78
-84
-79
-66
-46
-29
-19
-28
-37
-58
-73
-82
-79
-67
-39
-28
-20
-31
-38
-56
-72
-80
-85
-79
-52
-39
-34
-39
-41
-62
-74
-85
-81
-71
-44
-29
-23
-25
-36
-62
-73
-76
-71
-63
-41
-24
-5
-11
-27
-54
-65
-69
-65
-58
-40
-31
-21
-20
-29
-61
-71
-75
-76
-67
-41
-33
-33
-33
-39
-67
-83
-88
-83
-65
-38
-23
-18
-27
-49
-72
-80
-85
-84
-61
-39
-23
-28
-46
-54
-79
-89
-97
-82
-59
-23
1
21
29
28
27
26
23
15
9
11
25
18
-9
-37
-88
-121
-126
-115
-100
-78
-72
-68
-73
-78
-90
-97
-96
-84
-58
-36
-16
-22
-34
-55
-67
-74
-72
-62
-48
-32
-10
-4
-20
-46
-68
-79
-72
-58
-40
-21
-13
-15
-18
-37
-49
-57
-54
-48
-29
-14
-3
-3
-12
-39
-54
-67
-59
-42
-25
