-1
4
6
5
18
28
7
18
11
18
1
-10
-12
-8
-9
0
0
0
-7
9
-18
-21
-18
-25
-12
15
5
11
-14
-31
-33
-31
-36
-8
1
7
7
7
-23
-11
-17
-29
-27
-20
-10
5
8
10
-1
-13
-30
-37
-32
-27
-11
-1
-1
1
-17
-20
-21
-30
-24
-41
-17
3
3
-8
-24
-24
-28
-5
0
-4
18
71
108
112
123
136
152
154
143
136
142
123
115
86
51
-3
-40
-45
-57
-40
-20
-14
1
9
-35
-8
-13
-4
-17
-21
-5
13
12
-5
-6
-14
-17
-30
-37
-30
9
19
13
14
15
-5
-16
-20
-35
-22
12
30
33
17
0
-12
-18
-20
-9
5
8
27
10
4
-6
-4
0
-2
-8
0
24
23
19
25
9
-12
-23
-9
12
16
8
25
38
24
19
8
4
5
2
16
34
49
46
58
43
15
7
16
33
33
59
65
65
54
24
14
35
45
42
51
67
70
69
56
58
44
26
32
62
74
64
76
80
62
24
24
74
46
41
42
62
70
69
51
37
14
15
10
9
16
22
34
26
26
18
-1
-5
-3
0
4
1
9
22
20
7
-25
-26
-22
-25
-17
15
18
5
-14
-18
-36
-19
6
-12
-3
-2
14
19
0
-16
-29
-22
-20
-13
2
8
7
6
-4
-12
-21
-36
-16
-13
-7
2
8
14
-3
-15
-17
-13
-8
-17
-1
-10
-1
17
2
-18
-13
-7
-20
1
5
11
26
20
5
-14
-23
-26
-22
-11
1
0
13
9
-7
-15
-31
-19
-7
-15
-8
6
24
19
-4
-18
-18
-20
-17
-8
6
0
7
12
2
-9
-22
-36
-20
-1
3
0
10
6
-4
-37
-35
-40
-20
-8
25
17
4
-3
-4
-30
-45
-29
-10
-14
-10
0
6
12
-3
-9
-23
-24
-13
-13
15
6
0
-5
-12
-20
-15
-17
-22
0
12
21
12
8
6
-20
-19
-9
4
19
17
9
9
13
5
-7
-11
-8
-11
9
11
4
-6
-5
-19
-9
-21
-34
-24
-10
10
12
12
-8
-29
-35
-36
-43
-11
6
2
8
6
-9
-18
-28
-39
-28
-22
-17
10
18
0
-14
-19
-34
-24
-26
-21
-14
-8
-13
11
-3
-29
-35
-38
-40
-24
-8
-12
-14
-8
-9
-26
-37
-49
-34
-14
10
13
6
24
25
26
61
75
107
143
170
174
152
141
128
92
47
20
2
-8
-23
-36
-27
-18
-20
-33
-40
-35
-19
-10
2
4
-3
3
-1
-7
-10
-17
-24
-17
7
11
2
-3
-12
-22
-11
-26
-12
-17
-4
-2
9
-3
-6
-13
-27
-31
-25
2
27
21
18
7
-5
-5
-17
-13
-10
10
21
24
26
14
29
9
-8
-11
-17
-5
20
17
19
21
8
-3
-11
-6
12
10
25
29
40
40
26
1
0
9
8
34
35
43
38
26
29
29
13
35
55
68
74
54
63
39
46
33
35
36
34
60
64
82
77
49
48
38
40
40
45
60
63
60
56
32
33
23
9
23
22
32
46
35
34
15
6
7
6
-12
-13
22
16
23
16
2
-22
-25
-32
-22
-29
17
42
6
-1
0
-13
-23
-26
-18
-1
18
11
7
0
-15
-27
-8
-13
-27
-18
-4
-1
0
-5
2
-30
-38
-45
-24
-22
-4
16
11
4
-10
-32
-29
-25
-16
-4
1
-9
-6
0
12
7
-20
-21
-13
5
14
1
1
2
-12
-29
-17
-21
-19
-5
5
21
14
3
-9
-24
-30
-11
-9
-8
7
-4
6
0
-18
-29
-32
-27
-7
6
3
7
-12
-28
-22
-3
-23
-29
-39
-18
22
27
17
0
-11
-9
-29
-27
-28
-6
-14
1
4
15
-16
-33
-33
-26
-21
-7
-4
5
-6
-11
-24
-27
-24
-27
-17
-3
16
-3
-6
-14
-16
-12
-24
-17
-12
-9
8
4
2
-2
-26
-17
-22
-22
-13
-5
10
11
-4
4
-13
-23
-15
-11
-2
20
13
6
0
0
-18
-14
-18
-2
13
26
25
15
-2
-3
-14
-24
-22
-15
-13
2
-2
3
-4
-17
-28
-26
-41
-17
-23
1
-1
-8
6
-6
-44
-57
-27
-17
-10
6
-1
-2
-9
-27
-52
-22
-27
-10
-16
6
-7
-4
-6
-10
-33
-34
-34
-25
-17
-5
-17
0
-5
-18
-39
-48
-52
-36
-34
-20
-11
13
27
18
19
25
42
49
86
122
144
166
154
128
94
81
53
55
47
33
14
-22
-28
-31
-34
-44
-40
-38
-9
3
12
-4
-4
-21
-26
-8
-38
-14
-3
14
3
9
0
-14
-31
-25
-20
-18
4
9
15
4
-11
-24
-26
-21
-10
-2
11
21
20
13
1
2
-11
-14
-19
6
15
16
22
15
12
-6
-13
-6
-3
-9
-6
15
9
5
20
5
-1
-6
-8
4
28
31
33
30
17
1
19
2
12
21
23
42
39
43
41
24
31
13
28
42
42
53
58
62
55
33
16
15
40
40
66
72
67
63
62
41
27
32
34
34
82
61
60
59
59
40
27
22
23
31
35
32
44
35
17
7
-1
0
9
13
21
16
18
9
12
-10
-16
-19
-5
11
26
19
8
-5
-26
-43
-23
-26
-32
-17
11
2
1
-6
-11
-13
-26
-19
-7
-9
13
10
21
5
-19
-33
-27
-27
-21
-4
5
18
16
-9
-21
-43
-26
-4
-5
2
4
11
3
0
-20
-30
-32
-25
-26
-6
2
16
21
-11
-23
-13
-14
-3
-4
13
7
1
6
2
-24
-38
-24
-10
0
7
11
7
-2
1
-28
-31
-31
-27
-7
-6
12
5
-1
-2
-25
-26
-26
-4
0
12
23
1
-1
-10
-23
-30
-27
-17
-21
-9
-8
-6
6
11
-22
-29
-25
1
11
-11
-1
12
4
-24
-39
-34
-33
-21
-17
3
-2
14
21
9
-7
-33
-39
-20
-7
8
9
-3
1
-5
-19
-23
-19
-9
3
13
9
2
5
5
-20
-22
-12
6
7
17
9
6
14
3
1
-9
-22
-3
7
7
6
7
12
-11
-20
-14
-15
-5
-9
-4
1
4
-8
-23
-39
-45
-32
-25
4
11
8
2
-11
-9
-27
-32
-37
-23
1
-7
1
13
2
-18
-31
-31
-36
-34
-12
-3
-14
-18
-13
-12
-30
-25
-21
-8
7
8
0
-8
-5
-20
-31
-36
-51
-52
-19
-3
7
17
12
0
23
37
64
97
130
152
164
166
147
103
78
70
51
38
19
-2
-33
-38
-25
-23
-35
-35
-19
-18
-5
12
9
-24
-15
-15
-27
-29
-1
9
5
-1
15
9
-4
-4
-23
-29
-39
-12
19
20
12
6
-2
-11
-18
-25
-24
-11
18
18
23
20
6
-25
-23
-23
-13
-5
17
26
21
19
3
-16
-23
-8
7
8
24
28
11
14
8
-1
13
-1
16
22
30
30
36
23
10
-8
-16
10
26
39
46
46
53
37
32
13
-7
27
43
50
54
52
50
61
55
33
36
39
46
64
73
58
43
36
59
49
43
42
46
63
67
74
53
50
30
24
37
22
25
42
45
37
36
28
12
-3
-6
-2
19
12
26
40
25
2
-11
-21
-23
-9
3
14
16
-10
-11
9
-12
-9
-18
-36
-12
9
14
2
8
-2
-25
-29
-20
-8
-5
-2
3
5
1
-14
-24
-7
-23
-24
-14
8
3
7
18
0
-21
-16
-27
-25
-6
8
7
21
5
-4
-19
-10
-15
-6
8
14
-4
5
11
2
-17
-23
-22
1
-4
-12
0
16
7
-1
-25
-15
-10
-13
-10
14
24
21
12
-15
-33
-25
-4
-14
-3
4
9
2
6
1
-16
-28
-22
-12
4
11
10
14
2
-2
-17
-28
-30
-28
-5
8
10
7
-3
-12
-19
-28
-25
-25
-8
-6
25
1
3
-15
-16
-22
-19
-15
-4
3
17
15
5
-8
-21
-31
-21
-20
5
6
4
17
1
-19
-26
-30
-38
-19
6
18
22
14
2
-13
-22
-26
-21
-8
-11
3
29
26
12
-19
-9
-11
-9
6
25
24
29
16
5
2
-5
-22
-4
-12
-1
-2
-6
-6
0
-20
-13
-19
-27
-17
3
12
18
-9
-6
-6
-11
-36
-33
-14
3
5
-9
-13
-16
-24
-21
-35
-21
-12
13
8
8
0
-11
-23
-28
-22
-15
-14
-1
-4
-12
-16
-9
-17
-34
-32
-24
2
7
6
-14
-23
-20
-37
-43
-46
-22
10
37
56
68
73
73
89
113
122
140
144
161
158
119
95
69
31
6
-16
-35
-41
-16
-11
-18
-9
-13
-21
-31
-29
-29
8
18
17
14
-3
-2
-17
-26
-13
-13
10
15
24
5
3
-6
-17
-22
-25
-24
10
32
26
23
9
0
-6
-13
-20
-7
10
15
19
32
25
-8
-15
-17
-11
3
7
19
22
20
13
-2
-10
-4
3
-2
18
36
24
41
26
-8
-2
3
-2
13
32
48
41
25
28
34
11
14
20
26
40
51
53
65
53
30
27
21
28
41
70
75
65
69
48
25
27
39
51
41
56
74
88
79
62
45
36
47
58
51
49
51
60
59
54
37
30
23
18
22
33
48
46
30
22
4
2
-3
4
5
12
14
17
6
6
-15
-20
-28
-14
19
14
17
10
2
1
-20
-22
-22
-25
-13
-7
2
6
11
-2
-17
-17
-6
-18
-2
25
7
12
7
-5
-21
-20
-22
-14
7
19
1
9
19
-4
-29
-11
-12
-13
-4
-1
9
9
4
-9
-12
-6
-6
-14
5
13
12
13
8
-8
-20
-30
-28
-8
14
13
18
7
7
-2
-20
-16
-12
-23
-4
19
21
13
-5
-19
-8
-12
-21
-12
0
15
18
19
4
-22
-36
-14
-15
-19
11
26
25
18
-4
-21
-19
-24
-30
-13
7
14
6
3
-5
-14
-33
-26
-20
-13
12
5
24
3
-15
-29
-40
-27
-9
2
13
12
15
0
-17
-31
-20
-37
-2
-6
0
26
-3
9
-2
-29
-26
-12
-3
-15
-4
2
3
-7
-21
-15
-15
-12
-10
-2
18
1
9
14
-11
-14
-12
-5
-10
-15
5
18
18
-10
-11
1
3
-12
8
14
21
11
13
13
15
-5
-16
-7
3
6
5
12
20
8
-14
-26
-21
-35
-16
1
12
17
11
4
-9
-28
-20
-16
-14
-9
-9
18
-1
-10
-26
-33
-31
-33
-25
-2
7
6
3
-7
-19
-36
-27
-31
-19
-3
3
16
10
-3
-23
-37
-49
-21
-20
-12
-4
11
13
-9
-52
-43
-34
-29
-30
-19
-3
6
14
17
-6
2
25
60
86
119
138
168
163
136
117
122
88
70
72
51
19
-8
-31
-51
-44
-34
-40
-38
-6
17
6
7
17
6
-23
-29
-32
-23
-12
19
12
5
-5
-24
-17
-19
-14
-5
-6
3
11
25
2
-2
-14
-15
-24
-1
3
23
15
-3
6
-8
-19
-18
2
5
-10
4
24
28
14
2
-12
-22
-15
-12
17
24
21
15
1
13
-5
3
-1
7
8
17
31
46
39
24
7
-1
2
21
28
35
32
43
44
30
15
14
17
29
56
62
58
57
48
30
21
47
36
33
49
66
69
52
57
38
30
44
40
42
57
63
73
66
54
30
29
23
32
28
46
38
43
44
29
18
11
-3
8
11
22
25
26
12
2
-8
-15
-17
-17
-12
-4
18
30
18
2
-25
-34
-29
-22
-20
6
14
0
1
-6
-24
-46
-55
-8
8
8
9
-13
-10
-12
-40
-33
-22
-17
-1
21
17
13
6
1
-17
-9
-28
-28
-24
-14
7
17
14
-9
-24
-35
-16
-20
-12
16
10
14
2
-12
-24
-28
-29
-26
-5
13
3
-2
4
9
1
-25
-22
-29
-9
2
5
-10
-6
-17
-8
-16
-11
-7
5
4
0
4
-3
-33
-50
-52
-20
11
5
9
10
-3
-8
-25
-29
-34
-33
-29
-14
-4
12
5
2
-14
-42
-50
-24
-6
-6
-1
5
6
-5
-23
-25
-42
-34
-13
5
1
8
-8
-1
-25
-46
-37
-30
-9
-7
4
-5
-1
4
-19
-32
-55
-37
-23
-8
-2
0
-13
-13
-29
-30
-20
-18
-20
-3
7
5
-8
-17
-29
-27
-38
-25
-14
-1
-8
-3
0
-3
-25
-39
-24
-23
-24
6
10
-11
-1
11
-6
-15
-20
-18
-1
10
21
23
0
-13
-18
-8
-2
-11
2
2
-2
-9
-14
-12
-17
-20
-29
-32
-32
-3
-4
-16
-26
-25
-54
-46
-13
-9
-12
2
3
-6
-17
-19
-47
-33
-26
-26
-25
-7
-3
-3
-17
-35
-46
-29
-31
-29
-17
-2
-8
-9
-29
-44
-37
-35
-38
-32
-18
-22
-13
-20
-22
-33
-56
-36
-44
-37
-11
-2
15
32
50
36
58
74
90
116
162
163
155
146
133
89
70
38
6
-31
-30
-43
-33
-23
-28
-30
-35
-35
-36
-39
-8
-4
-3
-14
-27
-14
-34
-26
-21
-18
-9
-9
1
4
5
-21
-19
-16
-32
-28
5
1
10
-1
-16
-32
-30
-32
-17
7
8
-7
5
16
2
-16
-16
-28
-20
-1
5
13
13
3
-8
-14
-22
-23
-21
3
20
30
28
6
-4
-5
0
-6
-9
5
25
22
30
29
13
-18
-4
-5
12
38
47
43
50
35
22
10
11
17
21
39
54
58
41
51
37
28
29
34
37
54
50
61
64
61
50
21
31
41
44
52
51
56
70
45
23
35
26
21
10
26
38
39
24
35
13
0
-3
-14
-14
-10
7
14
7
1
-22
-15
-28
-16
-10
-1
-1
-3
2
-10
-15
-26
-30
-28
-18
-7
4
-2
-1
-4
-26
-30
-33
-25
-19
4
10
15
17
-1
-23
-40
-39
-31
-28
-2
14
13
7
-11
-34
-31
-44
-29
-6
8
9
3
4
-13
-26
-34
-28
-26
-23
-6
22
3
-9
-15
-27
-26
-25
-27
-10
10
7
0
-6
-14
-27
-25
-33
-28
-7
-4
-18
-8
-5
-14
-29
-23
-25
-4
-7
1
3
-4
-10
-23
-41
-40
-29
-20
-13
7
0
14
-3
-16
-40
-48
-42
-32
-5
4
7
6
-10
-28
-40
-30
-28
-23
-13
-10
2
4
3
-38
-37
-39
-30
-34
-18
-14
-17
-8
-18
-26
-25
-36
-35
-27
-15
7
-2
-3
9
-12
-35
-34
-32
-39
-28
-20
-2
4
4
-26
-27
-31
-28
-29
5
-12
-13
-8
-17
-28
-29
-36
-33
-20
-4
3
9
-5
-20
-25
-17
-36
-30
-22
3
7
15
21
15
-10
-21
-39
-16
3
16
14
14
1
0
-23
-30
-43
-53
-28
-10
-10
-10
1
-8
-27
-42
-42
-26
-30
3
-4
7
-1
-22
-34
-46
-46
-39
-21
-9
-10
-13
-11
-25
-32
-39
-54
-40
-35
-19
-7
-11
2
-26
-41
-39
-37
-29
-7
-13
-26
-12
-2
-19
-52
-64
-54
-44
-34
-27
-40
-18
-20
-13
-18
-3
-1
35
56
80
108
145
153
172
147
129
110
92
96
76
40
3
-14
-59
-72
-60
-33
-33
-23
-12
-8
-3
-11
-18
-24
-30
-19
-24
-15
-6
-10
-16
-13
-27
-34
-34
-27
-24
-27
-2
-8
-4
0
-28
-50
-49
-28
2
-7
2
2
9
-11
-16
-24
-40
-19
-15
16
18
-1
-9
-26
-25
-25
-20
-9
0
15
11
12
13
-1
-21
-25
-17
-15
0
21
11
23
20
14
-8
-10
-9
-4
6
22
17
11
12
28
4
12
3
10
14
53
47
41
53
38
20
31
17
33
52
60
66
63
47
35
23
30
30
43
49
65
57
50
39
38
20
21
29
49
34
38
45
44
30
12
-8
1
-22
-15
8
28
31
21
13
-2
-23
-13
-25
-24
-2
7
-7
-1
-11
-29
-43
-27
-25
-26
-12
-11
-8
-24
-9
-18
-33
-28
-44
-41
-9
5
3
-12
-19
-15
-44
-41
-39
-44
-29
-7
-13
2
5
-12
-24
-37
-27
-22
-20
-15
-8
-7
-12
-28
-42
-45
-27
-42
-6
20
3
-3
-13
-20
-30
-40
-30
-23
-8
5
-5
-28
-16
-1
-29
-35
-40
-36
3
5
5
1
-6
-30
-40
-52
-33
-27
-10
0
-5
-21
-10
-28
-36
-24
-29
-24
-23
-19
-8
-8
-10
-40
-39
-45
-36
-24
-10
-6
0
-19
-32
-50
-48
-45
-39
-30
-1
9
0
-4
-12
-32
-32
-43
-25
-28
-27
-21
-34
-30
-31
-32
-30
-24
-16
-19
-12
-24
-16
-22
-15
-33
-38
-38
-29
-16
-7
-6
-3
-20
-26
-45
-38
-43
-41
-14
-3
-8
-11
-18
-27
-34
-36
-43
-33
-28
-6
-8
9
-1
-8
-31
-28
-17
-7
-1
16
19
18
2
-22
-17
-18
-15
-10
4
2
4
10
-2
-24
-55
-47
-32
-28
-14
-15
-19
-1
7
-22
-39
-33
-38
-39
-12
-19
-11
-20
-27
-47
-39
-18
-46
-54
-20
-16
3
-11
-13
-35
-44
-49
-43
-29
-15
-26
3
-28
-38
-38
-32
-40
-42
-55
-26
-15
-22
-26
-26
-41
-45
-48
-45
-33
-28
-21
-12
4
7
-1
8
12
43
76
123
161
182
185
168
145
135
92
59
48
32
3
-12
-44
-57
-65
-60
-42
-49
-14
-6
-21
-11
-10
-31
-47
-40
-33
-31
-38
-10
20
17
14
-7
-27
-31
-37
-28
-14
6
5
12
-1
-16
-32
-22
-27
-20
-19
12
12
2
-5
-13
-20
-38
-14
-13
0
9
3
14
5
-16
-29
-38
-28
-18
7
5
25
29
12
11
-19
-27
-39
-12
18
33
33
33
25
1
-2
2
-5
8
24
16
26
35
34
18
26
14
14
29
37
52
49
51
55
40
31
36
25
30
61
70
70
47
52
25
15
45
43
52
73
56
77
58
35
39
38
24
24
33
37
38
41
42
27
2
7
-9
-12
2
22
11
11
13
-5
-17
-23
-34
-23
-8
6
6
10
-6
-24
-16
-35
-30
-14
-30
-18
-8
10
-6
-11
-27
-18
-31
-38
-33
-5
12
4
1
-19
-40
-39
-37
-29
-14
4
1
-3
-9
-4
-29
-32
-29
-38
-25
6
9
6
2
-7
-33
-31
-32
-30
-25
-12
-7
-4
10
-18
-40
-40
-30
-22
3
20
12
6
9
-10
-29
-43
-37
-29
-25
1
1
1
1
-15
-30
-33
-23
-26
-7
4
11
-10
-12
-18
-40
-31
-28
-29
-5
-4
-4
-13
-7
-19
-38
-46
-47
-9
-5
-6
-14
-11
-6
-33
-45
-21
-38
-24
-14
-5
2
2
-15
-33
-41
-47
-41
-21
9
13
2
-17
-14
-23
-29
-30
-36
-24
-7
-7
-3
0
-16
-33
-38
-45
-34
-10
-17
-23
-5
-9
-2
-24
-30
-36
-34
-35
3
27
8
-2
-1
-26
-42
-49
-18
-9
12
28
21
4
0
-12
-17
-17
-25
-17
18
17
14
5
2
-17
-32
-48
-36
-36
-5
-8
-17
-15
-25
-51
-34
-46
-31
-2
-4
1
-12
-18
-24
-54
-54
-41
-27
-11
-13
-22
-32
-12
-26
-38
-41
-43
-30
-21
-11
-9
-13
-15
-35
-42
-30
-26
-39
-46
-21
-13
-32
-33
-38
-31
-35
-53
-37
-11
-18
-29
-27
-18
-15
-21
-13
11
34
72
108
142
163
183
169
158
134
141
124
102
73
40
2
-23
-63
-69
-58
-47
-36
-27
-24
-4
4
4
-31
-40
-31
-27
-13
1
-2
3
-8
-10
-35
-36
-45
-21
-33
-15
9
16
-5
-15
-28
-33
-24
-36
-26
-10
-7
7
5
-22
-7
-14
-21
-16
9
8
6
6
-2
-13
-27
-18
-6
-21
-18
20
26
29
11
-2
-27
-11
-9
-4
-6
5
10
20
9
5
-18
-20
0
4
-6
17
32
37
21
20
14
12
10
25
15
40
38
36
52
45
25
27
23
61
65
79
65
48
46
57
45
39
38
42
55
70
73
51
49
37
34
29
32
24
26
47
49
44
35
16
-9
-4
-2
-3
5
21
26
17
5
-14
-38
-26
-7
6
6
4
3
1
-2
-30
-51
-48
-31
-26
-13
-5
-6
-7
1
-21
-33
-33
-34
-36
-13
-21
-26
-4
-3
-26
-32
-40
-33
-41
-6
14
8
8
-6
-36
-45
-53
-33
-18
-7
-9
-7
-6
-16
-37
-38
-30
-12
-23
-9
-11
-22
-16
9
-14
-32
-36
-15
-18
-2
7
-4
-2
-27
-64
-31
-29
-17
-25
-13
7
-8
-3
-8
-32
-34
-28
-21
-5
-6
-12
-2
-11
-31
-46
-32
-32
-34
-32
-11
8
6
-6
-20
-49
-40
-42
-22
-31
-17
-4
-9
-8
-13
-40
-36
-27
-31
-27
-1
-6
5
-10
-40
-54
-43
-46
-36
-25
-11
-10
-8
-13
-32
-45
-38
-19
-18
-4
-12
-13
-16
-25
-41
-46
-32
-22
-34
-12
-4
-3
3
-11
-19
-22
-28
-28
-28
-28
-20
0
4
8
-12
-20
-31
-25
-24
2
7
3
4
-6
-10
-28
-38
-27
-18
-8
1
4
-1
-8
-38
-51
-42
-34
-32
-17
-6
-2
-5
-22
-45
-48
-42
-29
-37
-17
-17
2
-14
-29
-45
-51
-52
-51
-34
-18
-13
-16
-26
-32
-44
-51
-48
-56
-45
-20
-24
-14
-6
-25
-42
-54
-61
-45
-28
-11
-22
-14
-16
-26
-48
-52
-49
-44
-16
-8
22
39
74
69
90
117
150
166
174
213
196
164
124
84
43
1
-26
-35
-58
-47
-34
-18
-13
-29
-33
-30
-40
-33
-18
10
1
-3
-15
-23
-40
-35
-26
-29
-18
-9
1
2
-7
-23
-35
-39
-27
-21
-10
-3
-12
-10
-2
-8
-17
-24
-17
-12
-13
-1
-1
8
-3
-20
-31
-26
-23
-8
-2
-1
5
-7
1
-23
-31
-18
-13
3
22
18
11
9
6
-4
-6
-11
-17
-12
9
22
20
26
31
1
-8
2
-4
26
39
46
23
31
54
25
20
27
17
33
55
60
60
46
42
54
30
30
41
36
81
72
51
57
46
44
44
36
29
34
63
61
51
49
41
14
15
-2
2
21
28
26
8
17
17
-8
-12
-5
-7
-10
13
5
-4
-8
-10
-20
-32
-41
-20
-14
8
1
6
5
-15
-29
-36
-48
-36
-18
-6
-5
-4
-9
-20
-45
-35
-19
-13
-11
2
-5
-6
-11
-25
-37
-30
-44
-31
-22
-3
-9
-6
-21
-21
-27
-31
-36
-28
-5
2
2
4
0
-13
-34
-34
-35
-36
-22
5
11
-1
-9
-13
-33
-44
-27
-31
-28
4
22
9
-9
-12
-35
-50
-36
-17
-5
8
-7
-17
-18
-28
-32
-35
-40
-27
1
-8
-11
-2
-5
-31
-37
-32
-23
-24
3
-5
-18
-8
-7
-30
-26
-34
-33
-28
-9
-16
-15
-1
-16
1
-17
-52
-29
-20
-10
-14
-13
-9
-8
-43
-58
-23
-27
-25
-13
-1
-13
-9
3
-30
-20
-22
-29
-10
0
5
-7
4
-5
-21
-17
-27
-14
-9
7
15
13
-1
-11
-19
-20
-19
-18
-4
5
13
2
-19
-37
-25
-21
-33
-29
-15
-13
-3
-2
-2
-15
-42
-31
-34
-20
-29
-9
-5
-5
-12
-28
-40
-40
-41
-35
-37
-21
11
-3
1
-20
-43
-31
-39
-30
-19
-14
-12
-16
-21
-23
-25
-45
-52
-40
-21
-14
-19
-9
-22
-34
-43
-51
-48
-46
-25
-7
3
30
29
25
20
44
72
92
152
174
178
175
150
135
105
69
46
32
6
-19
-32
-39
-37
-51
-55
-29
-29
-44
-9
0
8
3
-10
-34
-32
-43
-35
-31
-4
2
2
7
10
-16
-26
-22
-30
-20
-7
3
-4
-8
-13
-18
-29
-39
-15
3
11
1
9
13
0
-21
-29
-26
-14
-9
3
15
23
10
-4
-25
-17
-23
-23
-9
12
17
17
6
-3
-7
-13
-16
-2
12
25
15
29
26
-1
-12
14
13
-4
7
32
52
41
41
32
27
7
9
20
45
62
50
46
46
35
11
16
32
37
45
67
66
65
73
42
34
14
28
33
45
67
51
40
22
18
16
8
13
17
44
46
32
27
19
5
-17
-17
-8
-6
4
9
17
10
-3
-7
-17
-25
-21
-27
-4
16
-4
6
-8
-18
-20
-29
-35
-27
-13
-22
-18
-20
-9
-27
-27
-24
-27
-32
-10
17
-5
-5
-8
-31
-27
-27
-38
-36
-13
-3
-9
2
-10
-37
-32
-25
-31
-35
2
17
6
-2
-10
-30
-41
-48
-16
-6
7
5
3
0
-6
-25
-33
-51
-35
-22
-15
-18
3
13
-17
-21
-16
-28
-18
-16
2
10
17
-13
-25
-41
-39
-32
-29
-16
5
4
5
-8
-6
-30
-36
-29
-23
-27
-1
-22
-6
-13
-23
-26
-14
-27
-29
-26
-5
-8
-25
-8
-12
-34
-32
-34
-15
-14
-2
-5
-5
-6
-12
-28
-35
-47
-39
-32
-13
-3
-9
-19
-31
-22
-14
-29
-20
-8
-4
-3
0
-2
-20
-31
-37
-29
-20
-2
1
-12
-1
-13
-31
-12
-8
-15
-4
11
1
14
-5
-5
-24
-17
-20
-22
1
21
2
4
-3
-17
-32
-51
-59
-44
-43
-2
12
2
1
-5
-28
-45
-41
-61
-42
-3
1
-3
-8
-22
-29
-41
-45
-38
-24
-9
-2
-13
-19
-31
-40
-44
-40
-42
-34
-6
2
-5
-13
-30
-42
-46
-41
-45
-41
-17
-16
-11
-25
-36
-51
-58
-57
-48
-22
-16
-17
36
36
41
49
57
86
107
148
173
182
175
147
112
68
45
23
8
-17
-47
-25
-9
-21
-41
-40
-51
-46
-43
-24
-1
8
3
-16
-27
-33
-25
-40
-11
-9
-3
-1
-6
-21
-33
-23
-35
-40
-36
-17
-4
-2
1
-8
-2
-34
-27
-18
-21
-13
-8
8
-1
0
-26
-26
-20
-18
-6
4
11
-7
-5
-14
-23
-23
-15
-31
-21
-2
3
17
9
4
4
-1
-16
-17
-5
13
13
21
17
14
-10
-7
5
12
19
10
29
27
35
28
14
20
27
25
27
39
54
47
58
49
23
9
14
33
47
71
65
68
63
57
33
12
-18
23
59
63
57
60
39
35
23
6
5
14
20
18
11
9
26
22
7
-13
-9
-15
-5
8
7
4
-1
-12
-23
-38
-37
-15
-8
0
-11
14
-9
-18
-40
-23
-37
-55
-26
5
5
-4
-17
-24
-41
-39
-32
-41
-28
-12
-11
-6
-3
-17
-26
-44
-35
-38
-19
5
5
-5
-23
-26
-36
-21
-24
-31
-14
-5
-4
-7
-7
-8
-37
-44
-40
-24
0
1
-11
-14
-16
-32
-31
-28
-28
-23
-14
-9
4
3
-3
-22
-37
-44
-17
-12
-10
-7
-7
-13
-29
-23
-44
-38
-38
-7
-5
-3
-3
2
-17
-16
-16
-39
-32
-17
-8
-11
-6
-8
-10
-25
-32
-48
-46
-27
-8
-12
-10
-13
-17
-46
-46
-36
-30
-32
5
-8
-22
-23
-24
-34
-59
-46
-38
-7
3
1
-1
-3
-14
-31
-45
-40
-33
-17
-7
-9
-13
-3
-19
-32
-34
-29
-33
-26
-22
-4
6
-10
-18
-28
-20
-30
-44
-41
-7
-7
-8
2
0
-19
-10
-21
-23
-13
-4
14
-1
-4
-3
-21
-26
-35
-34
-16
3
1
-4
-4
-22
-50
-49
-49
-36
-31
-16
-19
-18
-15
-34
-34
-41
-46
-30
-26
-15
-5
-12
-39
-44
-40
-47
-50
-39
-19
-7
-9
1
-18
-42
-52
-53
-48
-40
-29
-10
-6
-15
-20
-43
-51
-50
-50
-31
-17
-26
-24
-32
-40
-47
-44
-37
-11
-1
10
33
48
88
119
147
138
153
164
160
149
142
124
76
49
2
-31
-62
-60
-62
-39
-11
-11
-12
-27
-43
-50
-8
-22
-22
-7
-7
-9
-15
-31
-48
-16
-35
-27
-27
3
6
4
-21
-21
-35
-46
-47
-29
-10
-2
5
-9
2
-13
-25
-30
-44
-26
-21
-10
6
12
1
-10
-20
-24
-29
-21
-26
-8
-7
0
-3
-10
-38
-29
-14
-8
-7
21
28
34
29
2
-19
-12
-19
-9
-4
13
15
31
31
23
10
-1
-12
7
15
27
35
34
28
24
22
22
8
16
31
56
57
33
41
34
22
29
45
43
36
47
56
50
38
29
22
6
30
34
38
43
40
43
29
8
-5
-2
2
11
28
27
19
6
0
-8
-29
-36
-15
2
-2
8
-3
-4
-25
-41
-42
-36
-34
-37
-16
-25
-21
-18
-10
-24
-24
-22
-33
-34
-17
-23
-11
-9
-19
-36
-44
-50
-37
-25
-3
-19
-23
-18
-4
-5
-47
-52
-40
-27
-6
-12
-14
-25
-24
-40
-46
-46
-37
-23
-9
-7
2
-10
-25
-44
-37
-39
-38
-20
9
-8
-12
-14
-27
-44
-33
-25
-21
-29
-24
-7
-2
-9
-13
-48
-44
-39
-25
-22
-14
-4
-9
-5
-18
-29
-31
-29
-38
-39
-16
-10
-12
-15
-27
-43
-42
-31
-34
-18
-22
-15
-27
-27
-21
-38
-32
-36
-32
-29
-14
-12
-15
-21
-32
-42
-32
-44
-46
-30
-13
-16
-10
-25
-33
-48
-45
-39
-41
-36
-17
0
-18
-29
-43
-35
-43
-52
-44
-31
-10
13
-14
-21
-45
-44
-33
-45
-35
-16
-1
-14
-13
-13
-29
-38
-48
-41
-35
-19
0
-5
-6
-10
-24
-39
-31
-29
-31
-11
-9
-5
10
-12
-29
-21
-32
-23
-25
-6
-10
-8
3
-16
-39
-53
-46
-39
-36
-11
-14
-16
-29
-30
-42
-53
-43
-42
-46
-15
-12
-16
-21
-43
-58
-32
-46
-50
-36
-28
-28
-24
-30
-32
-46
-49
-54
-50
-48
-16
-13
-14
-28
-34
-50
-53
-43
-32
-33
-26
-18
-27
-41
-51
-43
-46
-53
-58
-55
-26
-17
-15
-15
-13
-3
8
10
47
83
108
130
134
132
118
99
91
48
46
31
13
-14
-30
-43
-68
-82
-63
-63
-51
-39
-15
-6
-22
-26
-40
-50
-42
-36
-38
-27
3
-3
-15
-26
-39
-46
-34
-32
-37
-22
-13
-14
-8
-34
-34
-33
-27
-35
-23
4
15
10
-5
-15
-34
-47
-43
-56
-43
-11
6
4
0
-5
-27
-46
-50
-23
-21
-11
3
9
6
-4
-21
-24
-22
-15
-13
-5
3
5
10
0
-12
-18
-9
-22
-5
18
21
19
19
10
-19
-3
11
7
14
25
30
27
27
45
24
12
13
28
21
28
23
23
28
29
15
13
27
40
40
37
40
46
25
21
17
-3
-2
-2
12
32
32
26
9
0
-29
-31
-14
-23
-6
-6
1
-10
-17
-21
-32
-21
-40
-35
-20
-16
1
-16
-33
-52
-38
-37
-43
-41
-18
-8
-18
-1
-18
-39
-42
-42
-50
-38
-27
-14
-27
-11
-16
-32
-44
-46
-54
-45
-27
11
4
-15
-24
-44
-47
-53
-46
-41
-19
-1
3
-12
-37
-41
-48
-54
-48
-37
-38
-18
3
-3
-7
-31
-46
-41
-29
-32
-20
-13
-5
-9
-9
-32
-50
-53
-53
-34
-22
-12
-6
-19
-24
-48
-45
-34
-41
-13
-15
-17
-6
-2
-29
-50
-48
-50
-36
-50
-15
-8
-13
-10
-18
-38
-47
-48
-43
-41
-32
-5
2
-18
-39
-53
-50
-52
-47
-36
-15
-24
-6
-1
-30
-52
-42
-43
-45
-38
-33
-19
-10
-20
-26
-52
-68
-61
-44
-36
-13
-12
-11
-18
-25
-48
-53
-56
-46
-29
-13
-20
-25
-26
-33
-39
-45
-41
-41
-40
-16
-18
-20
-37
-26
-49
-55
-50
-51
-37
-19
-22
-5
-10
-37
-52
-52
-41
-51
-38
-27
-29
-22
-14
-40
-42
-57
-52
-35
-19
-2
-14
-27
-20
-32
-53
-49
-36
-26
-12
-6
-18
-15
-20
-19
-36
-39
-44
-36
-18
-16
7
-3
-8
-24
-33
-28
-51
-41
-23
-6
-23
-24
-22
-28
-48
-38
-36
-44
-15
-13
-6
-15
-29
-53
-58
-45
-54
-47
-24
-28
-25
-16
-28
-43
-59
-57
-42
-41
-28
-17
-22
-25
-38
-67
-63
-41
-36
-36
-21
-27
-26
-26
-39
-41
-53
-67
-47
-34
-13
-21
-24
-28
-49
-50
-58
-58
-47
-51
-38
-24
-12
-23
-24
-28
-9
20
23
47
80
104
125
133
118
98
87
56
41
37
23
26
6
-17
-49
-66
-64
-64
-54
-40
-5
-9
-12
-29
-40
-53
-45
-38
-33
-22
-20
-17
-13
-21
-35
-45
-44
-42
-35
-13
-22
-16
-15
-9
-26
-46
-34
-44
-35
-20
-11
-7
-6
-17
-30
-40
-33
-50
-28
-13
-8
-1
-12
-17
-22
-34
-32
-39
-32
-9
8
3
1
-11
-28
-34
-39
-45
-20
-6
-6
2
23
-2
-24
-20
-18
-7
2
11
21
8
5
5
7
-8
-4
-1
8
25
11
22
15
22
8
0
7
14
23
46
46
49
53
29
16
32
10
12
14
45
39
20
33
29
15
14
9
7
-2
16
12
21
18
-11
-10
-22
-19
-5
10
8
4
-2
-34
-28
-26
-39
-53
-28
-25
-4
-10
-6
-22
-25
-37
-50
-45
-53
-34
-11
-11
-18
-14
-19
-41
-47
-63
-54
-37
-15
-25
-12
-27
-43
-63
-58
-59
-42
-24
-11
-16
1
-24
-44
-59
-28
-51
-46
-38
-23
-8
-16
-25
-28
-45
-42
-39
-28
-29
-22
-21
-7
-21
-49
-51
-54
-52
-38
-20
-8
-9
-24
-31
-44
-48
-49
-53
-37
-20
-10
-9
-16
-33
-47
-51
-21
-42
-44
-11
-5
-15
-18
-16
-32
-36
-64
-56
-37
-16
-9
-2
-13
-32
-43
-42
-43
-45
-52
-23
-25
-31
-37
-34
-43
-32
-38
-36
-38
-24
-24
-19
-26
-34
-53
-58
-46
-35
-29
-16
-9
-18
-30
-33
-51
-52
-52
-35
-36
-36
-21
-18
-14
-35
-42
-49
-50
-50
-50
-24
-14
-22
-21
-32
-41
-49
-59
-36
-27
-11
-16
-22
-19
-16
-42
-56
-51
-42
-48
-30
-38
-11
-11
-35
-52
-49
-63
-54
-31
-16
-28
-43
-16
-22
-43
-35
-54
-60
-43
-24
-10
-9
-22
-29
-30
-46
-46
-41
-30
-10
-26
-13
-15
-29
-35
-46
-47
-45
-21
-1
9
-11
-4
-23
-39
-24
-27
-19
-8
-13
-31
-18
-9
-38
-49
-50
-48
-47
-51
-28
-21
-4
-13
-39
-51
-53
-62
-46
-20
-23
-19
-19
-18
-33
-37
-51
-66
-65
-23
-13
-16
-16
-29
-54
-63
-57
-51
-48
-21
-27
-24
-23
-27
-47
-57
-50
-44
-42
-35
-23
-40
-32
-30
-43
-51
-67
-53
-52
-31
-28
-16
-17
-38
-35
-10
-12
25
32
51
82
115
132
124
110
100
97
83
62
51
24
14
-9
-45
-68
-66
-55
-61
-45
-8
0
-14
-30
-34
-47
-55
-49
-37
-24
-8
-20
-11
-14
-30
-67
-53
-55
-39
-23
-5
-11
-12
-17
-27
-47
-60
-53
-28
-8
2
2
-6
-15
-14
-25
-34
-33
-39
-18
-7
-8
-4
-2
0
-29
-33
-40
-37
-24
1
8
0
0
-19
-29
-39
-30
-18
-6
4
7
14
7
-12
-30
-20
-21
-3
-3
10
31
29
10
14
10
0
-13
-12
25
41
57
26
24
24
22
20
13
21
35
38
44
37
43
28
25
17
17
28
46
56
55
33
19
9
20
30
23
29
26
33
35
27
13
-10
0
-6
-13
-9
8
5
3
-2
4
-14
-40
-42
-37
-22
-13
-5
-1
-3
-18
-37
-31
-42
-40
-36
-22
-10
-8
-10
-20
-32
-56
-43
-36
-33
-16
-6
-19
-22
-29
-41
-35
-40
-39
-44
-12
-2
-2
-11
-30
-52
-49
-32
-33
-42
-37
2
6
-12
-26
-62
-53
-34
-18
-26
-5
-16
-15
-7
-5
-29
-37
-36
-29
-30
-22
5
0
-23
-31
-34
-32
-29
-39
-18
-12
-11
-10
-10
-26
-52
-46
-43
-28
-19
-6
-9
-14
-16
-12
-25
-29
-35
-49
-28
-15
-13
-6
-23
-14
-33
-45
-34
-43
-33
-5
7
-11
-15
-43
-53
-54
-35
-25
-22
-10
4
3
-26
-37
-38
-43
-36
-24
-13
-5
-5
-23
-32
-38
-43
-54
-56
-37
-19
-22
-25
-11
-14
-28
-36
-21
-28
-20
-16
-7
-9
-16
-41
-54
-39
-42
-25
-26
-22
-8
-16
-13
-23
-40
-42
-44
-44
-27
-19
-12
2
-12
-29
-38
-37
-37
-42
-24
-20
-21
-23
-35
-20
-28
-39
-42
-35
-26
-17
-1
-3
-28
-40
-57
-44
-34
-28
-24
-11
-6
-3
-7
-31
-54
-52
-51
-43
-29
-15
-16
-14
-30
-25
-44
-38
-44
-50
-22
-2
-6
-5
3
-25
-56
-43
-31
-25
-21
-4
4
-1
-26
-22
-36
-31
-26
-24
-21
7
1
10
8
-20
-23
-30
-35
-16
-7
-16
-4
6
-14
-40
-40
-43
-39
-38
-34
3
-5
-8
-22
-29
-38
-55
-44
-41
-23
-12
-18
-23
-28
-38
-38
-42
-35
-33
-32
-16
-6
-22
-25
-38
-45
-49
-45
-36
-28
-28
-21
-12
-21
-29
-48
-54
-52
-35
-18
-15
-28
-27
-24
-35
-43
-60
-52
-54
-37
-21
-19
-10
-5
-9
5
11
26
55
84
103
149
159
151
126
131
101
79
82
60
37
-1
-29
-49
-51
-54
-64
-56
-31
-1
-6
-9
-24
-31
-40
-32
-32
-35
-25
-2
-11
-8
-19
-28
-39
-35
-38
-28
-10
0
1
-5
-19
-30
-39
-30
-33
-24
-15
-8
-6
-14
-26
0
-11
-9
-17
-12
-11
1
4
3
-10
-17
-23
-15
-30
-23
-4
-2
-4
22
2
-5
-27
-30
-20
-11
-3
8
22
24
10
0
-21
-17
-16
-9
4
16
46
27
26
30
15
21
9
1
24
20
33
37
43
44
19
21
47
50
24
54
57
60
39
26
22
27
41
42
55
51
52
58
55
30
17
15
14
31
31
33
36
41
36
19
15
3
-2
4
8
19
7
-5
0
-9
-20
-18
-28
-33
-11
-2
16
-3
-13
-31
-33
-46
-45
-11
-12
-4
-10
-16
-21
-29
-32
-22
-30
-9
-7
-12
-11
-19
-19
-25
-35
-31
-43
-21
-5
-2
0
-14
-27
-47
-37
-55
-33
-16
-11
-28
-18
-6
-2
-24
-28
-36
-28
-18
1
4
-7
-5
-24
-30
-29
-42
-36
-20
-1
-6
15
0
-13
-40
-42
-52
-37
-4
10
3
4
-10
-11
-36
-33
-25
-40
-33
-5
16
-8
-2
-15
-35
-27
-30
-17
-11
0
-6
-33
-28
-18
-26
-32
-30
-23
-10
-5
-7
4
-16
-34
-51
-33
-33
-11
-3
4
3
-6
-8
-31
-55
-36
-28
-41
-16
8
-2
-15
-11
-25
-42
-54
-39
-35
5
2
-4
0
-3
-32
-54
-69
-57
-19
9
5
1
8
-2
-22
-37
-34
-20
-27
-13
-11
-15
-16
-27
-28
-28
-46
-36
-39
-7
11
1
-12
-35
-49
-42
-37
-29
-18
0
-5
4
-12
-26
-38
-50
-47
-40
-21
-7
1
3
-1
-6
-31
-36
-35
-23
-17
0
-24
-29
-34
-12
-16
-25
-36
-30
-20
-9
1
-5
-13
-32
-42
-42
-38
-45
-22
-9
12
6
7
-27
-25
-29
-32
-27
-13
-8
-14
2
4
-9
-21
-29
-38
-22
-1
13
9
-4
-7
-15
-19
-6
-30
-6
3
16
15
-2
0
-20
-39
-31
-25
-28
-7
9
5
-17
-7
-6
-23
-26
-33
-30
-10
-6
5
-12
-24
-41
-44
-42
-39
-34
-10
-3
13
5
-9
-23
-29
-33
-50
-34
-4
-6
-7
-5
-16
-52
-55
-41
-30
-24
-5
-3
-9
5
-16
-48
-53
-40
-45
-20
-12
-10
-7
-17
-19
-31
-30
-29
-18
6
41
50
81
105
117
135
165
146
141
142
138
122
91
51
20
-29
-52
-64
-51
-37
-11
-13
-8
-7
-16
-38
-38
-20
-23
3
1
3
-5
-11
0
-3
-26
-46
-9
3
-5
-19
6
0
-29
-25
-34
-16
-13
-15
6
-11
16
7
-14
-18
-20
-17
-5
-5
4
17
11
2
-15
-16
-10
-22
-21
10
22
26
15
0
-3
-19
-26
-5
-6
6
0
23
14
21
8
-15
-2
-11
5
28
51
36
61
29
25
9
2
5
20
38
45
57
61
42
22
20
6
20
33
44
62
68
62
59
54
40
49
41
55
64
59
57
66
64
45
34
32
38
38
61
63
61
65
46
22
25
16
17
15
23
30
35
19
22
6
-12
-10
-8
-2
12
10
-3
-6
1
-20
-22
-19
-17
-17
7
3
2
-1
-17
-39
-38
-36
-12
-17
0
-2
3
-1
-7
-26
-27
-31
-21
-15
3
-1
1
-4
-13
-28
-31
-36
-37
-11
-1
-6
5
2
1
-21
-23
-25
-19
-24
-4
-2
-3
-23
-13
-35
-33
-36
-18
-3
9
10
7
1
-11
-11
-25
-27
-20
-12
-1
2
6
7
-10
-33
-30
-26
-11
-5
4
-6
4
-6
-14
-26
-28
-31
-21
-7
-6
-19
-9
4
1
-15
-38
-28
-11
-4
11
-6
-15
-11
-5
-23
-40
-28
-17
-9
16
-8
-3
-15
-22
-27
-25
-26
-26
0
4
7
-2
-26
-34
-26
-32
-24
-32
-4
-2
-1
-9
-11
-31
-33
-23
-30
-19
3
-15
-7
-7
3
-31
-31
-36
-29
-17
7
8
-21
-5
-14
-29
-23
-24
-21
-19
-3
-11
0
-7
-17
-33
-38
-43
-35
-17
-1
-5
-7
-23
-10
-18
-31
-35
-20
-11
-9
-5
-3
-18
-25
-36
-51
-35
-23
-4
8
2
2
-16
-26
-34
-32
-24
-15
-4
16
9
2
1
-17
-18
-31
-39
-34
-18
18
20
12
11
4
-13
-15
3
-8
-6
5
1
0
-9
-6
-16
-18
-14
-18
-22
-5
2
-8
-35
-34
-48
-37
-51
-15
2
20
7
-6
-18
-35
-38
-33
-37
-35
-13
-18
-10
-6
-23
-21
-14
-32
-45
-33
-15
-4
-8
-2
-12
-31
-46
-33
-30
-27
-18
-15
-8
-22
-36
-60
-39
-38
-49
-30
-12
-15
6
14
49
14
15
35
66
97
113
154
176
180
174
132
109
84
61
45
39
10
-18
-34
-37
-45
-37
-35
-33
-24
-5
-2
9
-2
-17
-38
-39
-43
-28
-25
-9
6
4
-3
-19
-26
-10
-3
-34
-27
1
13
-4
0
-5
-26
-26
-30
-5
-7
-4
20
14
-8
-7
-13
-23
-22
-20
-4
4
20
20
11
2
-30
-33
-22
-12
2
18
21
5
20
1
8
-1
-11
-10
3
3
18
27
19
5
4
-1
-4
7
17
27
28
25
47
28
20
20
27
24
49
54
63
61
47
41
31
21
27
41
62
66
78
68
50
41
42
43
32
49
62
69
73
62
44
40
30
25
28
33
38
47
57
45
25
31
10
-8
-3
18
34
24
21
9
3
-19
-22
-36
-17
-5
1
16
11
13
-4
-21
-29
-31
-21
-38
-14
-10
20
9
-9
-25
-26
-31
-24
-28
-6
-6
-8
-11
-23
-8
-39
-52
-19
-20
9
12
8
4
-12
-28
-27
-32
-31
-7
1
-2
11
-12
-9
-23
-25
-24
-28
-16
-3
-4
-6
-2
-5
-13
-17
-18
-28
-12
5
7
-4
-11
-10
-17
-12
-27
-31
-24
17
22
17
-9
-25
-21
-22
-30
-37
-16
8
-2
-9
-9
-17
-41
-39
-49
-20
-2
27
17
4
-7
-29
-26
-24
-21
-26
-20
-18
-5
10
17
1
-27
-51
-31
-20
-5
-5
-1
-10
-19
-21
-29
-46
-25
-13
-9
-5
-7
-5
-16
-26
-23
-19
-36
-35
-18
2
-9
-5
-8
-26
-33
-32
-23
-14
-7
1
-7
-15
-23
-35
-32
-35
-17
-10
-4
-6
5
5
-4
-31
-40
-36
-24
-18
-7
-11
-6
-12
-10
-31
-19
-32
-31
-19
0
-5
-1
-19
-30
-28
-30
-20
-14
1
-12
-7
-8
4
2
-13
-28
-26
-11
-13
4
14
19
23
5
-16
-21
-22
-3
1
22
5
6
3
-8
-44
-42
-23
-20
-17
-4
-8
1
3
-13
-38
-44
-39
-26
-16
-9
-9
-15
-7
-14
-42
-50
-46
-36
-23
-6
-12
-1
-3
-27
-32
-34
-38
-42
-29
-4
4
-2
-20
-37
-39
-40
-45
-21
-12
-9
-22
-31
-15
-26
-43
-41
-34
-52
-15
-17
-17
-1
7
12
15
26
47
88
129
154
194
188
178
149
137
115
87
56
37
5
-30
-34
-45
-50
-40
-49
-43
-28
-12
5
-8
-9
-9
-12
-25
-26
-26
-13
-11
2
14
10
-2
-19
-33
-24
-26
-29
-2
7
3
3
-11
-24
-16
-39
-33
-25
0
13
21
13
-11
-29
-15
-25
-21
-27
-5
7
16
2
0
-27
0
10
10
-3
14
9
20
3
0
-11
4
3
-18
-3
29
20
13
10
24
-1
2
10
9
20
33
36
37
39
29
16
20
19
20
40
43
31
40
54
41
43
35
42
44
77
86
77
76
70
46
45
38
45
33
48
67
72
72
58
42
19
13
27
43
50
56
55
48
51
29
4
-19
-14
21
19
25
29
30
15
-18
-26
-23
-32
-26
7
16
4
0
-12
-29
-24
-37
-17
-1
-4
1
3
-8
-7
-30
-25
-24
-18
-18
-24
-5
-9
-10
-13
-24
-27
-38
-44
-27
-4
6
12
6
-7
-24
-18
-29
-25
-19
1
16
-5
-17
-25
-21
-29
-24
-13
-18
-3
2
-3
0
-2
-26
-26
-34
-13
-13
-9
-18
10
9
-13
-26
-33
-45
-31
-6
-3
-7
2
-2
-19
-33
-20
-9
-17
-14
-5
0
8
-7
-17
-24
-38
-30
-26
-11
3
-3
-12
-10
-22
-27
-31
-29
-30
0
21
-15
3
-1
-21
-49
-46
-33
-36
-22
-14
-9
-16
11
-16
-35
-36
-38
-16
-2
-2
-2
-11
-24
-40
-38
-39
-29
-15
-10
-3
-6
10
-20
-44
-38
-36
-24
-18
-21
1
4
-9
-13
-21
-33
-38
-34
-29
-6
-6
-10
-7
-10
-22
-30
-40
-43
-30
-8
7
17
18
9
-18
-38
-27
-21
-10
5
0
1
-19
1
2
-6
-15
-28
-9
4
-16
15
16
-6
-22
-25
-32
-35
-24
-18
-22
-7
5
-13
-24
-29
-50
-41
-17
-2
-26
-14
-24
-20
-26
-33
-49
-35
-22
-12
-9
-18
-37
-27
-45
-39
-35
-25
-2
-15
-25
-10
-4
-28
-62
-39
-38
-33
-35
-28
-15
-5
-13
-40
-45
-50
-47
-31
-23
-16
-1
18
25
32
37
45
64
84
134
173
177
172
138
107
89
84
72
33
2
-11
-34
-48
-50
-31
-51
-55
-32
-14
-1
2
9
6
-12
-31
-48
-53
-34
-10
-2
18
17
16
-3
-25
-29
-27
-51
-31
-1
11
-3
-6
-12
-26
-20
-39
-26
-9
-2
-2
21
3
0
-10
-34
-26
-31
-17
6
10
6
10
9
-8
-15
-20
-30
-3
10
11
12
8
-3
7
-4
-10
-8
12
24
16
1
12
11
12
18
-2
2
8
24
35
41
45
38
15
26
8
21
20
41
42
54
57
47
25
20
28
49
55
65
61
70
68
59
38
27
38
31
50
66
59
52
56
35
22
23
21
20
40
42
19
20
28
12
0
7
11
7
11
17
16
6
1
-10
-40
-32
-34
-29
-11
18
19
18
-9
-26
-31
-43
-38
-26
-11
-7
-5
-3
-24
-13
-29
-41
-16
-15
-7
10
5
-14
-24
-30
-39
-44
-52
-31
-14
9
7
-4
-36
-36
-17
-19
-21
-29
-18
-6
-7
-11
-15
-33
-39
-40
-27
-13
3
5
-8
-19
-20
-18
-29
-35
-17
-15
1
-12
-21
-9
-24
-32
-24
-12
-13
-22
-11
7
-4
-3
-17
-32
-24
-28
-50
-36
-2
2
0
-11
-27
-38
-18
-31
-21
-25
4
-4
-3
-1
-14
-33
-40
-44
-38
-38
-11
-1
9
-14
-15
-31
-30
-25
-32
-25
5
4
-9
-20
-25
-30
-48
-31
-18
-14
2
2
-1
-7
-22
-30
-31
-29
-21
-7
5
11
10
-3
-12
-26
-19
-26
-36
-16
-7
11
20
10
-8
-13
-25
-18
-36
-8
12
-15
-12
-6
-21
-31
-44
-15
-26
-19
9
4
-5
-23
-44
-44
-34
-32
-37
-25
-15
-14
-15
-34
-49
-47
-39
-15
-18
-4
-13
-5
-5
-12
-19
-34
-47
-57
-43
-24
-6
-7
-21
-30
-51
-38
-42
-36
-11
0
-7
-19
-24
-31
-43
-42
-51
-26
-17
1
11
29
38
57
52
65
92
112
126
136
144
139
102
66
28
1
-7
-31
-34
-29
-56
-31
-17
-16
-38
-40
-31
-36
-25
7
2
4
-15
-7
-46
-56
-37
-22
-33
2
-3
15
-11
-10
-23
-26
-31
-29
-8
5
18
22
7
-21
-25
-34
-27
-36
-16
23
12
14
3
-13
-25
-18
-27
-17
-2
11
0
6
3
-12
-10
-13
-18
-3
4
22
27
17
4
-6
-6
-3
-6
3
17
9
18
30
22
7
5
11
3
7
31
47
49
50
38
30
15
13
13
25
60
59
51
45
45
39
16
36
47
44
65
59
56
67
53
44
33
27
32
41
44
56
54
44
29
27
17
15
15
27
25
25
25
17
3
-6
-10
-12
-11
-6
10
5
8
7
-6
-24
-33
-32
-38
-29
8
4
11
9
-11
-41
-40
-32
-30
-25
-18
-7
-7
-13
-11
-26
-43
-49
-38
-27
3
14
-3
-7
-18
-30
-36
-38
-30
-24
-19
-19
-23
-8
7
-30
-36
-29
-30
-14
2
5
6
-3
-31
-38
-37
-39
-25
-6
-3
-2
1
-15
-41
-38
-32
-27
-26
-6
21
16
5
2
-30
-47
-33
-25
-36
-15
2
-3
4
-13
-23
-33
-34
-38
-25
-8
-7
-14
-2
-9
-29
-25
-31
-24
-15
-20
-6
2
9
-7
-19
-22
-24
-31
-25
-9
-1
-13
-10
-19
-25
-37
-45
-31
-29
-9
-9
-7
-5
7
-6
-25
-33
-33
-18
-2
-15
-9
11
6
-24
-47
-30
-23
-18
-8
14
13
7
11
-2
-12
-20
-23
-22
7
11
19
-16
-14
-16
-35
-39
-29
-24
-11
-11
-11
-6
-13
-35
-34
-48
-52
-28
6
7
1
-7
-31
-48
-49
-42
-39
-33
-2
1
-4
-8
-15
-31
-36
-43
-41
-17
10
-4
-6
-7
-27
-38
-51
-73
-52
-35
-2
22
-4
-10
-42
-44
-34
-45
-38
-33
-17
-13
-3
-1
-9
-6
0
13
30
56
114
126
154
151
126
95
77
77
75
63
48
26
1
-35
-51
-51
-41
-44
-46
-25
-2
-2
12
-3
-24
-29
-40
-28
-6
-3
-6
-15
-9
-13
-32
-25
-23
-22
-24
-3
13
0
-6
-14
-31
-31
-17
-27
-25
-7
15
12
8
-2
-23
-33
-43
-36
-16
21
17
12
4
10
-14
-19
-17
-15
-18
-17
-7
27
33
8
8
-11
-13
-11
-10
12
16
28
15
3
-13
-7
-9
8
6
21
30
20
26
14
0
17
16
11
6
40
35
56
50
33
2
25
29
30
54
50
49
64
55
47
37
33
27
34
38
44
49
62
59
49
25
25
7
13
18
10
10
33
27
-3
7
3
-10
-15
2
13
12
15
11
-8
-16
-18
-4
-3
9
9
-3
-14
-7
-17
-32
-36
-23
-24
-9
10
-7
-14
-18
-25
-29
-29
-35
-32
-25
0
-6
-2
-9
-21
-26
-31
-31
-14
-15
-12
5
3
-3
-19
-42
-30
-35
-11
-14
6
19
17
-11
-40
-49
-44
-25
-11
-13
-5
-7
6
3
-12
-24
-29
-32
-25
-3
-2
1
-2
-7
-23
-41
-48
-23
-14
5
-3
-4
-4
0
-22
-30
-15
-20
-19
6
3
3
-5
-3
-19
-33
-41
-29
-3
-3
-9
-5
-3
1
-24
-43
-38
-12
-15
-19
-15
-8
0
-11
-20
-37
-43
-25
-17
-2
12
13
-7
-20
-36
-32
-28
-9
3
15
1
7
-1
-24
-57
-15
-30
-26
-6
16
24
5
-1
-7
-22
-17
-24
-24
1
17
19
11
1
-11
-40
-38
-22
-8
5
4
4
0
-4
-21
-32
-36
-40
-44
-21
11
9
7
-8
-24
-34
-43
-33
-23
-18
-5
-17
-8
-20
-43
-53
-35
-30
-15
-7
0
-9
-17
-25
-35
-36
-37
-19
-28
-13
-10
-16
-21
3
-26
-30
-33
-46
-40
-13
-18
-7
-5
-14
-33
-45
-51
-48
-26
22
40
35
44
47
51
65
76
112
144
147
130
118
103
83
44
19
-11
-22
-30
-27
-20
-8
-15
-13
-40
-44
-32
-17
-26
-8
20
8
2
-9
-27
-27
-28
-20
-21
0
5
0
-3
-5
-31
-18
-26
-23
-8
0
4
1
-1
-9
-28
-14
-28
-11
2
12
10
2
-3
-13
-29
-23
-21
-3
-1
15
16
10
10
9
-4
-11
-25
-48
-10
24
18
30
23
2
-6
13
-6
4
12
18
21
28
13
11
-6
7
4
11
27
24
40
42
35
25
11
4
26
25
27
47
64
61
59
44
39
25
30
35
45
65
56
54
51
39
14
53
43
45
59
51
49
44
37
18
9
2
2
13
23
25
27
22
-3
-41
-32
-4
15
0
-1
21
14
-6
-16
-12
-4
-29
-19
-13
-1
0
-5
-5
-6
-29
-12
-24
-31
-34
-2
1
4
10
-18
-23
-33
-34
-28
-14
5
16
11
-2
-20
-26
-21
-32
-38
-24
17
3
-6
-8
-14
-28
-38
-37
-24
-17
-11
-14
-6
13
4
-21
-23
-36
-29
2
10
0
-19
3
-16
-21
-29
-34
-16
-7
0
-9
2
2
-21
-19
15
-8
-24
-10
0
0
9
-8
-5
-23
-34
-43
-25
-19
0
13
11
-8
-25
-42
-29
-33
-25
3
16
6
5
8
-3
-34
-29
-33
-36
-33
-2
7
1
-11
-21
-25
-31
-26
-25
-17
3
2
6
-5
-12
-23
-26
-31
-17
-9
0
-3
-4
0
-14
-19
-54
-41
-13
-8
-3
10
-2
-3
-19
-19
-25
-29
-14
-13
-3
5
27
9
-20
-10
-12
-8
-3
8
3
15
14
0
-4
-28
-31
-10
-7
10
6
9
3
4
-31
-25
-30
-20
-42
-3
2
8
-1
-2
-28
-29
-34
-49
-28
7
2
8
-7
-20
-39
-41
-43
-34
-38
-24
0
-3
2
3
-22
-32
-46
-31
-27
-19
3
11
-9
-22
-22
-22
-30
-26
-31
-10
0
10
-22
-38
-53
-51
-46
-36
-13
10
20
25
31
46
39
38
61
92
127
157
166
155
131
96
69
48
11
0
-3
-13
-12
-22
-16
-45
-49
-14
-29
-34
0
20
