176
172
153
147
156
157
152
164
162
157
158
150
150
147
145
154
154
158
156
167
153
154
156
145
154
163
158
159
149
158
157
154
160
162
151
150
151
158
157
161
160
156
156
154
159
158
152
151
155
149
156
158
169
165
157
164
162
155
152
157
164
168
167
175
162
168
165
159
163
174
161
172
177
180
175
178
187
180
190
187
178
170
166
169
173
166
170
154
146
157
157
162
154
150
151
151
167
152
158
161
156
149
153
149
152
152
154
156
157
148
153
153
150
154
151
150
155
152
153
151
155
149
151
152
156
158
153
151
156
155
144
152
160
167
165
173
172
181
193
197
189
205
206
214
239
262
275
278
291
289
263
233
219
207
174
139
130
135
130
134
135
141
149
152
155
175
160
156
165
161
150
153
154
154
153
166
144
148
158
161
164
154
148
152
154
151
160
159
162
150
150
154
154
151
169
166
164
169
146
143
156
166
151
162
170
170
159
156
157
160
156
155
153
160
157
164
159
160
165
165
166
159
159
167
163
170
165
164
173
174
171
170
181
179
173
177
179
179
182
187
186
179
180
193
186
186
188
197
204
190
195
181
191
184
190
183
188
186
183
189
194
180
188
179
171
174
175
179
175
171
163
164
168
167
177
164
159
157
165
161
164
175
161
155
156
164
160
154
162
161
150
160
158
156
163
164
149
151
154
160
156
157
165
155
157
158
159
159
158
162
161
154
162
172
172
159
170
166
153
166
160
162
157
160
160
157
156
175
163
158
171
163
162
154
166
165
165
167
164
162
163
164
158
168
167
172
168
157
166
175
168
156
162
162
159
163
167
167
174
175
168
164
169
165
173
173
169
174
170
160
175
173
168
170
170
177
175
178
179
182
184
180
192
177
182
184
180
175
178
166
172
171
167
159
169
175
158
154
155
157
172
168
157
160
162
153
159
161
147
153
155
157
159
165
162
153
155
155
154
154
161
158
151
165
162
161
151
153
157
150
157
155
160
160
170
161
161
166
173
182
185
184
192
194
205
216
221
245
264
285
283
299
288
258
235
218
199
169
147
136
137
130
144
127
149
148
156
156
161
161
166
163
164
152
155
156
164
153
156
161
166
164
151
154
164
155
151
159
167
166
171
170
151
166
176
153
159
160
175
163
160
164
165
164
167
162
166
165
165
160
172
167
168
172
164
162
170
170
161
162
169
171
164
165
171
175
181
182
175
171
170
183
190
164
174
183
180
189
186
187
192
186
195
198
188
185
188
190
195
199
193
192
192
199
193
197
197
195
191
185
187
185
183
181
182
188
181
184
183
179
167
163
170
169
165
164
171
176
160
166
167
168
161
160
161
152
153
159
160
154
165
158
155
158
171
157
153
152
161
155
154
161
161
163
164
165
154
158
151
164
163
154
150
158
154
154
158
158
160
162
165
170
157
159
150
161
153
160
149
163
159
161
156
159
155
155
162
156
166
160
164
158
155
161
162
165
154
160
161
159
164
158
161
166
166
163
165
178
175
163
167
172
179
169
158
165
170
171
171
171
171
179
186
182
174
179
171
173
167
169
160
157
151
163
166
170
148
152
156
148
155
150
155
159
151
147
159
151
150
152
154
159
153
147
152
157
153
147
154
151
150
157
154
147
153
151
149
151
149
154
152
161
154
152
157
162
165
176
179
199
196
168
183
188
199
228
246
248
265
272
285
273
252
229
213
192
165
137
122
118
123
134
137
133
142
144
149
145
143
143
151
154
156
153
143
155
168
158
137
147
147
151
151
148
149
152
153
164
158
151
149
158
164
157
151
160
162
157
153
155
156
158
153
156
162
159
153
161
158
156
160
172
160
151
153
155
153
161
157
161
162
168
172
170
171
166
175
167
171
175
165
169
177
171
178
173
181
172
176
188
183
177
177
186
182
193
189
194
189
192
191
193
194
191
186
191
195
202
188
180
183
184
181
171
172
181
170
175
172
165
170
168
163
163
157
158
159
167
165
159
154
159
156
151
151
154
154
153
146
157
162
145
156
150
151
157
150
155
144
142
149
151
152
151
147
153
152
148
145
147
153
149
150
148
153
151
151
150
152
151
143
150
151
157
156
153
153
147
150
151
151
153
152
153
151
154
154
158
157
155
161
153
148
155
161
157
160
162
155
157
162
157
162
161
165
167
166
169
160
163
171
173
166
171
164
169
166
164
163
160
160
153
155
146
148
149
153
145
143
135
143
149
141
139
144
138
147
149
137
143
145
142
147
138
131
139
143
141
145
135
136
144
145
145
151
132
131
139
129
132
142
142
143
141
138
140
155
158
165
170
170
169
186
198
203
196
209
239
245
266
267
244
215
187
183
172
152
129
120
128
109
116
119
122
128
129
126
130
132
129
130
125
126
124
125
121
118
119
123
129
122
117
124
125
125
114
119
119
99
102
107
115
116
116
111
115
111
118
121
115
113
122
124
122
123
117
124
116
110
122
114
122
121
119
117
121
124
122
128
126
131
132
129
126
123
128
126
130
132
132
128
131
140
139
135
141
131
140
142
142
139
138
143
141
149
149
148
151
158
166
141
144
150
146
148
152
158
156
141
140
145
144
138
145
144
142
136
135
133
132
133
129
128
128
122
122
126
129
128
124
118
126
120
112
122
125
125
123
124
124
122
116
118
119
124
119
119
120
126
126
122
126
126
124
122
124
126
124
120
123
125
123
123
123
121
126
124
133
148
128
112
118
114
117
124
124
125
125
120
123
128
123
127
125
123
129
122
133
135
141
133
116
126
128
140
135
129
125
132
141
140
131
131
123
130
138
138
141
135
141
138
149
156
146
151
148
134
141
143
140
138
128
131
127
130
126
124
123
122
126
127
118
122
122
132
118
119
129
118
121
122
123
121
117
118
122
124
117
123
120
122
119
116
118
122
121
129
119
119
121
116
121
120
118
125
130
134
135
141
147
154
157
166
167
177
190
203
213
225
230
247
242
220
196
188
152
129
111
95
76
88
82
100
112
128
115
110
117
112
120
127
116
109
120
124
112
116
123
114
116
116
108
116
121
118
121
115
119
118
118
120
120
124
119
122
120
117
121
123
123
118
119
120
129
126
124
129
125
125
127
126
121
122
123
118
122
120
130
134
128
121
124
123
131
133
143
129
135
126
133
136
133
132
135
137
138
140
145
148
137
141
147
145
153
144
145
154
158
155
152
144
149
148
151
150
149
149
149
146
147
141
141
138
138
145
137
127
139
132
128
131
123
122
127
119
124
127
122
120
115
120
112
116
118
114
116
116
125
117
113
114
117
113
115
109
114
115
117
115
116
119
120
118
117
113
113
116
111
113
111
121
123
115
109
113
111
114
122
123
107
110
119
118
116
125
117
124
117
120
124
124
119
130
119
125
108
113
125
121
106
113
121
121
120
124
121
122
123
126
120
121
121
122
121
120
120
122
131
129
127
133
138
129
120
137
133
136
142
138
134
128
131
125
121
126
129
123
112
123
130
113
113
112
109
117
113
117
124
115
111
108
118
120
111
104
116
116
115
111
113
113
109
116
112
119
121
110
113
111
118
119
110
113
112
115
114
113
116
122
137
134
137
155
162
156
144
158
167
179
194
209
214
229
247
229
201
171
159
142
113
91
88
87
88
90
93
101
102
105
99
101
103
112
113
108
115
114
107
109
109
113
103
112
108
116
104
102
112
113
114
111
119
110
106
114
108
110
108
111
117
112
119
117
117
106
124
112
110
114
120
119
109
115
117
119
114
113
114
117
121
124
121
111
112
122
134
125
118
123
124
134
127
133
126
133
124
129
131
129
126
134
128
137
139
142
143
148
145
141
133
146
146
147
144
142
144
145
147
149
140
140
139
142
148
146
135
135
138
130
128
131
127
124
131
129
126
131
117
124
118
117
119
126
126
113
109
110
119
114
111
111
118
112
118
114
120
117
116
114
117
105
112
116
123
123
119
121
105
107
120
122
118
120
106
117
124
116
115
109
109
113
116
116
111
116
124
119
118
120
117
121
114
121
117
118
126
118
116
124
123
112
112
118
121
126
117
117
123
120
130
131
113
114
127
132
137
111
110
119
119
123
122
126
123
123
125
128
132
135
124
133
139
134
140
136
130
131
132
127
120
116
122
128
107
106
114
119
112
114
119
116
114
124
115
115
108
110
116
113
106
104
112
106
105
106
117
115
105
116
110
107
108
113
110
111
114
110
106
103
106
111
112
114
121
122
132
132
137
138
145
153
155
152
163
180
188
207
218
232
247
241
207
172
166
147
124
101
91
86
81
87
88
97
103
105
106
105
112
115
119
112
110
115
109
115
125
107
100
112
115
114
108
107
113
114
123
120
102
104
116
122
119
114
113
118
119
121
113
114
112
119
114
119
119
116
118
116
119
123
116
120
118
120
121
119
118
123
120
120
130
132
116
125
131
123
128
127
132
138
127
133
141
140
135
142
134
140
134
133
150
151
137
142
150
157
150
137
142
149
149
150
141
143
150
152
149
139
142
144
150
141
140
142
139
129
126
133
140
125
127
127
126
128
123
122
125
119
131
117
120
121
116
120
119
117
121
115
109
117
123
121
117
111
118
121
111
113
112
118
113
118
120
126
118
118
118
114
114
124
124
122
112
120
121
116
116
115
112
115
126
120
118
117
117
116
118
120
140
134
119
107
115
118
124
115
117
126
129
132
122
112
121
126
122
124
124
123
124
127
123
128
127
129
125
121
133
137
135
129
129
135
129
129
137
142
143
143
141
141
134
135
134
133
135
125
124
126
114
117
117
119
123
123
131
111
112
126
121
111
116
110
112
113
120
116
117
116
120
113
112
117
119
123
125
114
115
115
106
113
113
118
116
112
117
112
117
122
128
117
120
125
128
140
155
149
141
159
168
178
190
204
224
228
251
259
230
198
179
167
145
105
91
89
92
88
88
96
105
105
113
111
113
116
112
108
117
118
117
106
108
109
105
112
115
122
115
105
111
107
108
107
114
108
107
113
116
110
111
116
117
115
120
118
109
111
114
118
110
109
119
118
113
115
116
116
120
116
111
117
130
128
113
117
121
125
130
130
134
127
117
117
128
139
129
129
132
128
124
128
133
138
134
138
140
140
137
140
143
146
148
146
138
148
157
144
140
155
141
143
148
147
150
149
139
137
140
139
134
128
133
142
135
123
126
117
126
127
125
134
118
114
120
119
117
112
123
119
113
119
122
132
113
127
116
105
110
109
111
114
125
120
120
99
102
106
111
105
115
116
116
121
121
101
116
111
110
110
110
117
116
111
113
114
118
119
115
117
111
114
117
114
103
115
121
128
115
114
121
116
127
122
113
111
113
117
122
117
122
116
126
119
126
114
119
121
125
118
123
126
122
137
128
119
127
126
126
126
136
131
136
142
138
133
135
138
133
117
115
120
121
125
114
113
105
111
116
114
113
113
109
115
107
106
104
107
116
112
112
111
106
112
111
106
111
104
104
108
113
112
119
124
114
101
104
111
112
122
122
99
111
109
110
121
121
134
130
135
135
154
147
156
168
177
199
216
222
229
246
252
231
207
174
147
127
99
82
79
83
93
85
103
105
108
102
108
110
121
117
104
113
117
118
111
107
108
110
111
117
117
113
111
117
114
112
117
119
111
120
117
123
110
109
118
114
114
119
118
118
107
119
126
133
114
107
115
120
118
122
112
125
125
134
116
112
122
131
115
124
125
118
113
126
132
125
136
128
136
141
130
128
135
131
135
135
148
155
149
140
139
141
142
145
148
153
146
146
150
146
150
153
160
147
145
148
146
149
151
148
133
135
143
145
135
132
132
130
136
132
123
132
128
129
125
122
123
121
113
109
113
122
122
117
118
113
117
120
119
118
124
116
109
114
116
121
125
115
119
110
118
107
112
126
111
118
111
111
119
114
117
120
119
112
121
128
116
106
113
119
122
121
110
110
120
121
119
117
118
124
130
131
117
117
126
129
120
131
130
131
141
129
121
135
137
122
118
143
131
117
123
124
131
131
124
133
136
141
138
139
144
147
142
133
139
135
124
126
117
121
125
121
108
117
117
112
118
117
119
116
118
114
114
109
117
126
119
114
113
116
110
109
109
117
118
118
113
114
120
124
116
112
134
129
115
97
108
114
112
114
129
124
126
133
140
137
136
151
159
160
173
183
217
219
234
243
257
243
210
207
186
163
130
91
77
82
84
75
103
99
105
103
110
113
112
112
121
116
121
127
107
112
114
117
115
106
117
114
119
121
125
127
124
120
121
122
108
122
119
121
120
123
127
124
128
114
117
118
122
121
116
119
125
116
126
126
129
125
124
127
127
125
118
125
127
129
123
126
130
130
131
135
136
147
147
138
139
152
136
135
148
138
138
149
145
156
161
153
148
154
148
153
153
154
157
156
155
154
155
155
155
158
151
152
152
152
149
153
148
148
146
138
132
133
140
130
135
129
132
125
124
131
127
118
117
126
129
107
110
112
119
115
115
117
118
116
124
118
131
126
121
130
118
108
115
115
114
124
122
118
120
111
114
109
118
118
114
118
116
124
108
120
118
115
118
118
125
111
124
122
127
120
124
124
122
127
129
123
125
124
130
128
129
121
130
138
123
122
128
131
134
140
142
137
151
137
129
129
134
131
126
125
123
117
110
120
115
114
119
119
115
111
118
116
117
116
110
115
115
110
112
104
109
113
109
110
116
116
108
112
119
112
107
102
103
105
107
103
111
105
112
108
116
117
108
115
118
121
130
141
138
132
148
155
163
179
208
208
227
236
232
216
197
181
153
133
106
96
79
65
74
79
90
90
102
96
106
104
104
111
114
105
102
109
112
119
112
99
107
110
108
103
106
115
112
110
110
108
111
114
110
106
115
113
117
121
113
107
106
109
112
112
113
117
110
112
114
121
115
117
116
114
117
116
115
122
117
120
126
129
121
120
134
122
122
128
144
129
121
140
138
129
131
130
138
141
147
145
143
147
152
149
152
159
144
145
148
147
158
154
155
145
143
149
154
149
149
154
144
149
145
148
133
133
127
121
125
135
127
119
126
122
128
132
116
109
115
110
113
113
115
115
115
115
108
115
119
110
115
117
116
104
106
114
116
110
110
116
108
110
116
110
112
111
111
114
115
116
105
106
114
116
104
113
108
108
107
113
120
116
114
123
116
120
123
120
121
107
115
117
119
125
118
122
125
124
139
147
129
129
131
131
130
129
124
123
123
119
116
109
114
115
116
114
116
118
124
122
113
101
110
114
103
107
105
104
107
109
109
108
105
106
106
111
110
104
118
113
104
105
106
101
111
109
102
107
106
108
112
111
114
102
116
124
120
119
123
127
130
135
143
156
169
181
202
221
239
250
222
204
195
171
146
124
95
79
75
80
88
84
96
108
95
107
108
93
106
106
100
108
105
106
108
110
106
108
115
110
105
102
108
105
101
108
110
108
108
107
109
107
111
113
114
124
119
113
107
108
96
106
113
111
108
108
110
113
114
113
110
114
116
114
121
111
111
114
124
115
113
121
125
116
109
118
120
120
127
128
130
119
122
128
131
130
135
135
129
131
136
136
134
146
152
139
140
140
141
146
134
140
144
136
144
140
133
138
141
133
130
147
147
121
116
120
120
119
114
123
120
112
111
113
110
109
114
115
114
103
107
108
106
102
102
110
110
104
102
102
110
105
111
110
111
108
107
101
101
109
106
106
106
104
106
103
106
100
108
111
109
109
110
114
105
97
104
109
108
115
115
112
116
116
110
122
122
111
112
118
115
112
116
129
125
113
116
114
120
118
124
130
123
119
122
123
120
119
118
127
117
109
100
106
106
108
111
108
102
100
101
105
105
105
101
102
105
103
106
99
100
109
103
103
105
105
104
93
103
94
98
99
107
103
98
102
99
102
107
102
107
103
95
105
109
120
124
113
133
134
122
136
144
150
170
180
200
208
218
227
227
202
172
156
137
117
93
90
85
62
76
83
92
101
102
98
103
101
93
98
101
102
105
104
100
98
96
100
100
103
102
97
102
103
115
106
109
111
101
92
97
96
96
95
104
112
118
97
106
103
99
98
103
108
109
100
105
97
103
109
117
103
106
108
107
112
108
110
106
110
114
111
112
105
115
117
119
121
125
128
115
115
113
129
128
136
118
116
129
132
125
128
130
137
130
130
138
131
128
129
135
133
138
135
134
131
140
128
121
130
130
127
122
125
123
127
118
106
113
107
113
113
116
108
109
100
109
101
95
104
104
109
96
101
114
115
98
95
104
105
97
96
110
105
91
93
102
99
97
95
105
95
101
106
109
110
91
93
97
98
99
106
101
103
116
105
113
100
97
101
105
106
99
107
113
108
120
104
107
108
108
108
111
112
114
116
103
112
108
116
111
112
110
120
125
127
119
117
120
122
115
105
106
109
104
96
104
102
99
99
101
103
97
94
93
111
109
108
97
96
88
102
96
95
85
99
91
99
104
93
94
101
95
99
94
92
93
97
96
89
89
97
99
97
98
98
97
103
114
102
111
117
120
128
131
136
146
157
176
196
201
212
225
223
196
175
162
138
128
100
63
71
74
72
76
76
83
96
96
97
103
93
90
89
94
101
92
91
95
93
93
92
95
101
88
80
89
94
98
99
105
103
108
105
91
87
93
100
95
87
89
98
99
103
100
90
85
93
99
97
99
99
98
95
99
103
105
107
95
99
96
106
95
103
104
107
101
108
108
109
114
124
125
113
101
106
109
114
112
115
116
119
124
122
115
128
134
125
120
123
132
130
130
125
125
127
130
126
117
112
119
121
115
117
123
113
115
113
115
118
107
103
105
106
103
98
103
100
102
95
99
92
93
110
92
94
101
100
97
92
97
92
96
93
95
94
90
102
95
95
98
84
94
93
87
93
92
97
97
98
93
94
111
104
93
91
98
102
86
90
94
91
93
92
96
102
96
90
98
98
105
96
107
103
100
96
112
109
103
100
102
103
104
102
106
104
105
108
113
111
109
113
118
120
118
117
111
108
112
111
106
97
99
98
93
100
95
92
88
92
96
97
90
84
88
90
91
95
89
91
94
103
75
82
92
84
91
92
88
83
88
94
90
88
88
89
82
76
82
89
90
85
83
86
96
99
94
94
107
116
120
117
128
134
140
152
167
185
196
207
223
221
195
157
144
137
115
82
72
60
61
71
81
81
82
77
79
82
93
82
79
86
87
89
95
78
85
88
87
86
83
91
87
91
80
87
84
84
87
95
92
87
96
88
87
91
100
100
83
83
83
88
96
88
91
93
83
83
88
91
94
98
103
101
82
88
94
94
99
95
90
95
88
94
99
101
100
102
104
109
96
101
107
105
108
113
102
102
108
111
115
122
116
111
112
119
120
117
124
111
113
117
116
118
120
116
130
120
108
111
111
106
112
111
101
107
106
102
102
100
99
103
98
92
95
89
94
93
99
94
93
86
89
99
84
85
87
84
83
91
91
86
83
79
86
84
92
76
86
92
93
81
91
86
88
81
81
91
88
79
87
86
87
78
87
90
86
85
88
88
89
91
89
83
89
82
82
72
80
77
83
94
83
80
84
88
102
92
93
91
92
100
91
91
86
88
92
97
92
103
108
98
93
100
96
101
100
104
100
106
104
103
102
98
94
93
96
92
83
86
80
80
81
82
85
81
74
76
77
82
82
80
85
78
79
80
79
78
75
78
76
80
75
89
77
72
72
76
83
79
79
78
79
83
80
76
79
85
71
80
83
84
90
102
104
111
111
123
119
118
135
162
180
190
197
209
216
195
160
141
128
110
82
66
57
61
53
64
58
67
75
79
74
85
77
79
77
72
68
72
73
80
83
86
80
81
75
78
74
81
80
79
79
74
80
75
76
79
83
85
80
78
75
73
84
78
71
73
79
72
73
77
80
85
77
70
79
81
84
90
87
77
79
82
88
79
87
79
90
92
83
86
83
94
86
94
94
92
104
88
91
94
110
104
98
102
98
96
105
103
104
102
106
117
122
110
107
104
114
111
101
110
112
102
97
101
103
96
106
109
95
91
92
99
97
86
89
89
86
85
92
82
80
77
84
81
77
90
78
84
84
76
75
76
86
76
88
70
70
85
72
74
74
78
81
79
76
70
78
82
81
77
79
73
90
79
72
82
76
76
74
77
78
79
81
79
81
79
84
92
99
73
86
81
88
71
74
82
89
83
84
68
75
79
81
86
81
91
89
80
75
83
91
100
95
92
70
84
90
89
80
84
85
83
88
88
86
86
92
89
93
93
98
97
98
100
104
104
89
88
92
92
84
80
87
88
76
71
79
78
80
81
74
75
81
82
85
82
80
82
86
70
76
83
77
74
79
62
68
76
73
78
82
79
82
72
73
70
79
78
74
74
76
75
74
77
79
82
89
90
95
98
107
104
116
123
133
146
165
189
194
202
224
225
187
156
135
115
91
64
48
49
43
48
64
69
64
65
72
74
90
78
78
73
73
77
78
74
77
76
77
78
75
95
90
68
70
71
81
75
80
86
88
66
67
79
83
81
81
75
81
89
80
75
82
89
80
85
76
81
84
87
82
87
86
84
85
87
86
85
84
91
97
95
96
91
103
101
97
97
82
89
100
106
99
97
103
103
100
111
111
109
107
124
101
106
109
108
114
116
118
128
114
106
117
123
110
118
121
95
103
104
100
107
108
108
105
99
99
100
97
86
93
84
86
87
84
90
93
91
78
87
79
83
79
79
85
88
75
74
77
82
86
79
75
81
86
81
78
75
74
75
78
77
81
83
86
90
77
71
71
67
74
78
86
84
90
75
71
79
80
87
92
78
70
71
76
75
82
80
76
90
87
83
81
81
93
93
84
83
85
91
85
88
99
99
85
81
83
81
95
91
93
103
104
84
93
106
111
102
92
94
95
92
90
97
95
77
87
88
88
77
86
83
80
63
52
68
65
66
75
80
65
68
78
72
82
74
68
77
82
76
78
74
77
84
74
72
64
72
73
72
77
83
80
72
75
76
72
71
78
91
95
105
90
90
105
105
107
123
141
149
154
180
188
197
187
179
158
142
135
106
76
54
45
33
40
49
53
59
74
76
71
82
70
65
65
68
71
71
77
79
88
73
83
63
73
73
83
87
75
81
76
81
83
76
85
80
72
78
74
85
80
85
84
73
75
88
79
75
88
83
91
78
87
75
84
85
82
81
84
84
85
81
86
95
88
87
93
97
98
101
96
85
92
98
103
95
97
109
110
108
104
109
116
105
106
105
105
112
116
115
121
125
128
127
119
108
111
112
108
107
108
106
105
103
104
97
110
119
91
98
100
94
95
82
84
85
85
87
81
81
80
76
80
81
74
85
87
77
76
77
79
78
78
81
90
76
58
74
68
72
72
71
72
65
69
82
75
78
71
71
83
83
87
74
69
73
74
71
74
81
76
74
73
77
74
74
73
70
70
78
73
69
72
83
84
80
82
79
80
80
84
80
86
90
86
81
82
83
91
78
88
96
94
82
89
90
84
87
92
98
99
97
92
86
90
91
84
79
76
78
75
74
71
69
69
72
77
77
75
83
72
68
77
82
58
68
77
69
71
60
69
75
70
62
71
78
75
64
68
80
68
62
68
70
72
73
70
69
72
71
75
73
74
86
83
91
99
94
101
105
110
117
131
152
176
186
183
199
197
172
146
134
121
100
68
54
57
41
44
49
54
59
55
62
65
62
66
76
73
68
76
58
66
69
63
66
64
67
69
71
68
68
72
73
65
65
70
71
72
67
68
70
68
72
69
71
71
79
74
70
68
65
74
76
71
72
76
71
75
74
76
71
75
83
79
70
88
95
79
65
79
69
78
78
87
89
81
83
88
89
86
92
96
85
93
101
98
99
99
90
104
110
104
101
101
99
101
107
103
100
105
103
95
97
95
103
106
99
104
96
92
92
90
99
86
84
92
78
69
77
76
74
74
74
77
73
68
66
72
72
71
68
72
67
66
74
71
72
74
66
69
67
73
67
63
67
73
71
69
72
68
71
70
68
68
72
62
61
68
82
64
63
65
70
68
57
61
74
75
73
62
64
68
64
59
65
66
65
62
75
68
89
72
70
59
66
73
80
82
71
70
79
79
75
74
79
77
76
76
85
85
83
81
76
75
81
90
94
83
78
78
80
74
74
80
76
57
61
69
66
69
64
60
61
63
65
64
63
74
86
68
49
56
60
60
62
60
64
61
60
58
62
61
69
58
62
66
60
58
60
65
65
61
64
64
61
59
54
65
72
86
79
79
95
93
93
106
111
120
124
140
165
168
177
194
189
163
138
115
107
70
53
48
46
43
46
49
57
60
48
53
60
56
64
58
61
65
62
54
58
57
54
58
57
77
62
56
57
64
61
59
60
70
55
63
62
67
62
65
60
66
61
64
67
73
60
63
61
59
67
67
66
67
68
71
72
80
72
73
70
62
72
66
66
69
67
77
70
70
71
71
82
83
76
85
85
78
82
88
83
85
83
88
95
97
105
94
83
85
93
90
94
89
98
103
94
100
99
97
98
99
99
99
97
91
86
93
86
89
89
80
85
79
77
82
83
79
77
78
73
76
73
75
66
71
70
84
78
58
67
73
66
66
69
72
66
69
72
68
70
69
75
71
68
68
72
68
68
75
72
69
70
68
66
71
73
80
64
59
76
67
74
76
72
63
72
75
69
63
69
69
75
70
73
79
72
70
72
69
69
70
71
76
77
75
77
63
70
73
64
73
67
78
69
67
69
74
82
77
81
80
80
78
87
92
70
84
83
77
72
78
79
81
83
82
83
91
89
93
87
92
92
97
93
85
88
84
78
83
83
80
73
68
74
75
71
63
65
71
62
58
59
69
52
62
75
63
71
60
51
55
71
60
47
64
69
68
65
58
54
55
60
59
52
61
61
56
60
59
54
56
63
60
53
60
65
78
77
82
87
95
102
101
136
131
141
168
193
198
209
232
221
196
159
144
120
92
64
57
43
43
44
43
44
56
62
50
54
59
46
53
46
50
54
57
62
66
58
52
60
58
52
56
55
56
61
57
57
58
54
58
56
50
49
62
58
65
61
58
58
51
64
67
65
58
66
67
66
62
54
58
63
73
65
68
73
76
57
54
68
68
64
69
59
61
66
67
67
69
82
73
78
72
76
75
72
70
83
79
73
85
86
86
75
85
84
88
87
101
99
85
85
90
89
99
102
87
95
96
96
93
96
88
79
79
80
76
73
70
68
81
64
67
65
78
62
58
56
72
59
52
51
57
55
54
56
54
56
60
66
64
54
54
48
52
52
57
58
63
66
54
52
57
56
54
53
61
52
62
63
57
58
64
60
51
55
57
59
55
52
66
62
55
65
58
52
58
57
68
62
64
62
59
70
70
64
55
67
60
63
63
66
63
71
76
75
71
78
56
66
73
77
71
70
73
78
76
62
61
62
64
62
64
58
37
42
48
50
42
48
64
53
37
49
53
44
51
39
43
44
49
51
39
38
49
47
39
45
44
37
36
46
44
47
48
45
42
50
46
41
45
48
47
55
55
52
62
62
66
78
73
73
92
90
96
124
146
163
172
180
178
159
135
123
105
77
49
29
9
6
16
19
24
31
35
35
44
54
57
42
46
49
51
43
44
49
46
45
45
44
51
50
52
61
72
43
40
48
38
34
46
46
51
51
50
48
53
53
54
57
52
47
59
54
49
51
57
60
55
49
47
55
50
53
61
60
56
58
62
67
66
57
56
67
65
63
55
61
67
66
64
72
74
76
76
77
83
80
78
78
83
83
87
89
75
85
78
83
83
85
93
82
84
82
88
93
89
89
80
78
71
78
86
93
73
60
64
65
62
61
61
58
57
56
51
52
58
50
42
42
52
57
59
54
58
52
48
48
47
42
45
49
49
57
45
49
49
49
48
51
44
48
49
47
46
47
44
45
49
48
51
54
48
52
58
52
37
44
49
48
51
48
50
56
64
55
59
64
68
57
61
59
61
56
54
63
74
73
57
68
78
62
70
69
70
66
82
83
58
64
65
50
50
55
48
47
52
46
47
52
52
54
54
55
52
53
57
46
47
43
47
48
45
43
50
47
54
52
53
49
51
47
41
40
49
51
46
52
54
53
53
49
61
61
62
78
85
73
86
88
90
101
105
121
122
128
147
157
181
174
155
120
118
115
72
46
35
43
34
32
31
33
44
55
60
55
60
48
62
57
49
46
49
52
52
50
47
58
54
49
49
55
53
56
55
56
57
48
63
46
51
50
51
56
59
58
61
44
53
41
61
68
37
40
59
56
56
49
54
44
47
40
43
69
56
62
35
53
57
64
62
52
51
74
57
69
65
67
67
70
69
61
56
69
80
71
68
82
87
60
73
71
77
98
82
79
81
64
77
81
86
81
72
66
67
71
79
76
74
50
63
61
71
69
57
66
61
56
43
55
53
69
55
51
59
50
59
56
56
44
39
55
58
58
43
41
30
41
51
42
37
30
28
24
30
29
24
33
33
19
16
16
8
11
12
10
13
10
-78
-79
-57
-39
-34
-41
-37
-35
-32
-39
-40
-21
-31
-42
-50
-45
-42
-27
-36
-42
-56
-65
-85
-71
-74
-67
-84
-67
-75
-62
-54
-51
-82
-92
-91
-83
-62
-56
-82
-81
-86
-64
-102
-106
-98
-107
-105
-99
-108
-102
-102
-95
-90
-86
-84
-81
-92
-93
-93
-86
-92
-98
-87
-84
-97
-105
-93
-84
-87
-112
-112
-106
-111
-109
-105
-112
-110
-103
-99
-106
-91
-98
-97
-108
-96
-104
-100
-86
-88
-87
-75
-67
-44
-33
-15
3
40
48
61
81
105
77
46
23
11
-31
-64
-82
-100
-101
-106
-96
-96
-86
-82
-79
-68
-73
-93
-73
-87
-84
-93
-74
-77
-65
-81
-85
-72
-65
-71
-66
-77
-68
-96
-90
-81
-88
-76
-71
-78
-73
-65
-60
-64
-78
-84
-73
-80
-78
-68
-65
-69
-65
-75
-77
-71
-67
-65
-75
-57
-62
-57
-57
-60
-66
-56
-61
-72
-62
-51
-56
-60
-56
-63
-63
-60
-54
-63
-55
-56
-50
-56
-60
-34
-34
-62
-56
-49
-63
-57
-53
-42
-47
-38
-37
-56
-40
-41
-50
-62
-45
-38
-38
-35
-50
-59
-39
-40
-50
-57
-64
-60
-64
-56
-60
-48
-59
-66
-62
-65
-59
-66
-63
-51
-50
-71
-57
-72
-70
-76
-56
-77
-74
-73
-74
-60
-56
-63
-65
-52
-69
-64
-54
-64
-62
-76
-89
-86
-84
-77
-77
-80
-79
-79
-85
-93
-92
-94
-109
-116
-117
-129
-158
-163
-164
-158
-165
-148
-145
-143
-135
-150
-148
-143
-144
-153
-151
-150
-139
-137
-125
-124
-128
-133
-128
-114
-113
-101
-101
-108
-111
-120
-114
-120
-116
-126
-137
-110
-114
-119
-127
-118
-134
-124
-123
-105
-139
-112
-137
-132
-122
-118
-112
-108
-102
-119
-123
-117
-127
-126
-124
-116
-114
-102
-115
-128
-133
-110
-109
-100
-102
-111
-121
-122
-125
-130
-126
-133
-124
-124
-128
-122
-124
-117
-106
-92
-117
-112
-65
-54
-28
0
28
37
44
57
31
-10
-34
-52
-89
-116
-150
-159
-160
-148
-168
-149
-128
-118
-129
-138
-128
-125
-123
-125
-138
-122
-129
-126
-108
-119
-128
-111
-115
-107
-121
-122
-116
-119
-117
-134
-76
-123
-116
-106
-116
-106
-89
-95
-110
-111
-103
-97
-106
-130
-115
-107
-116
-116
-106
-103
-98
-100
-110
-104
-113
-105
-111
-115
-142
-143
-146
-150
-153
-154
-203
-226
-229
-206
-194
-196
-199
-196
-195
-195
-187
-182
-190
-194
-183
-182
-182
-188
-178
-160
-174
-168
-170
-170
-158
-159
-144
-161
-148
-153
-151
-145
-132
-151
-128
-149
-127
-122
-114
-128
-136
-134
-138
-150
-133
-134
-135
-132
-125
-128
-125
-144
-123
-136
-134
-139
-141
-132
-144
-143
-147
-155
-135
-135
-135
-128
-126
-135
-130
-138
-140
-141
-135
-141
-148
-146
-136
-152
-144
-148
-151
-150
-141
-153
-158
-144
-134
-153
-161
-153
-149
-138
-131
-137
-148
-152
-160
-152
-146
-142
-144
-145
-152
-144
-135
-130
-140
-129
-142
-134
-124
-129
-127
-125
-129
-148
-135
-147
-125
-151
-144
-142
-146
-142
-141
-147
-141
-137
-138
-150
-152
-156
-144
-134
-140
-128
-128
-136
-138
-137
-130
-136
-130
-148
-144
-148
-147
-146
-147
-149
-131
-130
-146
-145
-141
-129
-143
-140
-131
-148
-150
-145
-138
-126
-147
-145
-130
-120
-134
-124
-96
-60
-43
-11
7
31
67
63
40
-2
-29
-59
-75
-109
-133
-154
-150
-139
-158
-142
-142
-143
-142
-130
-137
-121
-124
-119
-98
-108
-128
-136
-135
-131
-137
-134
-125
-127
-121
-128
-128
-126
-122
-130
-122
-123
-124
-128
-128
-122
-134
-144
-139
-137
-138
-144
-170
-177
-182
-184
-188
-198
-202
-197
-218
-218
-211
-210
-216
-202
-195
-207
-240
-221
-208
-216
-219
-210
-205
-202
-200
-193
-194
-189
-188
-187
-181
-176
-170
-178
-174
-168
-163
-163
-168
-150
-139
-146
-151
-143
-150
-145
-154
-143
-148
-145
-137
-126
-122
-119
-119
-122
-121
-123
-126
-120
-119
-132
-126
-113
-115
-119
-121
-115
-113
-120
-117
-115
-118
-122
-113
-111
-126
-132
-118
-108
-119
-126
-122
-115
-116
-120
-112
-118
-120
-118
-114
-112
-107
-112
-120
-115
-108
-98
-100
-99
-99
-103
-110
-114
-92
-82
-101
-98
-89
-79
-79
-80
-91
-88
-92
-86
-82
-82
-70
-72
-76
-72
-60
-73
-74
-73
-69
-57
-70
-70
-68
-60
-70
-71
-64
-63
-80
-86
-85
-76
-88
-89
-86
-88
-83
-92
-90
-95
-86
-84
-89
-90
-85
-84
-83
-87
-87
-88
-79
-80
-90
-90
-89
-81
-81
-73
-82
-92
-83
-81
-91
-88
-88
-80
-84
-89
-86
-75
-78
-76
-66
-56
-51
-76
-68
-70
-70
-52
-43
-37
-20
14
51
73
91
90
84
56
19
8
-8
-30
-65
-93
-108
-115
-117
-105
-104
-79
-72
-74
-85
-75
-79
-74
-68
-64
-66
-67
-69
-67
-74
-54
-56
-79
-76
-68
-55
-57
-61
-78
-73
-62
-54
-51
-54
-63
-56
-56
-60
-62
-55
-61
-57
-55
-55
-53
-61
-61
-48
-48
-47
-47
-53
-60
-65
-60
-54
-55
-52
-55
-52
-48
-38
-43
-45
-42
-38
-42
-34
-51
-50
-46
-35
-37
-30
-30
-38
-33
-25
-31
-25
-25
-24
-21
-26
-21
-12
-5
-18
-24
-12
-18
-17
-11
-10
-11
-8
-15
-19
-18
-11
-9
-14
-16
-13
-27
-38
-29
-22
-19
-26
-39
-45
-38
-37
-42
-40
-33
-45
-42
-36
-32
-43
-41
-40
-40
-33
-39
-42
-36
-37
-30
-35
-37
-47
-42
-34
-49
-38
-40
-41
-32
-43
-42
-37
-38
-41
-35
-34
-32
-30
-24
-25
-32
-29
-26
-32
-35
-21
-23
-23
-21
-17
-17
-12
-3
-22
-20
-13
-12
-12
-20
-11
-23
-34
-30
-41
-36
-33
-25
-23
-37
-42
-37
-31
-32
-41
-34
-38
-34
-32
-40
-39
-36
-39
-41
-41
-38
-26
-26
-34
-27
-28
-24
-50
-44
-39
-35
-42
-36
-35
-36
-33
-30
-30
-32
-27
-28
-19
-20
-17
-17
-15
-19
-19
-7
1
17
33
45
68
86
95
104
101
81
66
36
29
-2
-28
-42
-45
-52
-57
-41
-39
-42
-37
-26
-27
-30
-28
-36
-32
-29
-24
-27
-17
-34
-31
-26
-35
-30
-33
-28
-33
-28
-21
-23
-26
-31
-22
-19
-23
-20
-19
-22
-16
-10
-18
-29
-17
-25
-18
-17
-14
-19
-12
-21
-15
-12
-24
-24
-24
-18
-24
-15
-8
-15
-21
-13
-19
-12
-20
-12
-7
-5
-8
-11
-9
-12
-7
-6
-3
0
10
13
-11
-8
4
1
4
1
2
4
9
23
21
-5
11
9
11
12
16
10
9
7
11
8
17
18
6
10
5
0
5
-3
5
9
-3
-3
-5
6
3
9
-17
2
-4
-11
-2
-11
-17
-10
-8
-18
-15
-7
-13
-12
-5
-3
-5
-4
11
-17
-21
-9
-6
-12
-10
-2
1
-8
-10
-5
-1
1
-4
7
-2
-7
2
-3
2
-3
6
1
3
4
-2
9
11
3
9
12
12
9
3
1
8
-3
3
2
7
-3
-2
-5
4
-5
-10
-13
-10
-5
-9
-10
-7
-13
-9
2
-5
3
-2
-9
-2
-4
-18
-15
-12
-9
-5
-8
-7
-11
-8
-9
-9
-5
-4
-7
-7
-9
-3
4
11
-8
-10
-4
0
6
9
11
21
33
40
60
85
93
104
122
127
110
99
79
58
47
15
3
-15
-28
-17
-24
-23
-16
-15
-9
-5
-3
-1
-3
1
-6
3
11
-10
-7
-3
-12
-13
2
0
-12
-5
3
0
3
-3
-8
-8
-6
-4
3
12
-6
-12
-6
-3
-4
8
4
4
0
1
11
-3
-4
0
0
-6
-8
4
7
7
2
0
1
-1
5
10
10
6
-2
1
12
17
19
6
10
9
6
12
12
10
21
23
21
16
25
30
36
28
31
22
27
31
39
39
22
20
22
28
39
27
26
32
37
28
27
33
36
19
12
20
21
22
19
18
21
20
14
3
11
13
14
15
10
7
9
12
11
2
2
19
17
12
-4
4
12
5
8
8
9
6
11
10
17
22
11
19
19
20
19
16
16
13
15
9
16
20
6
25
19
20
27
27
19
28
25
30
30
23
23
24
20
16
16
23
33
29
21
9
19
7
3
8
8
12
7
13
7
2
8
8
7
20
17
7
10
18
7
6
10
1
8
15
11
2
5
7
14
10
0
4
5
6
6
11
14
18
9
16
25
26
30
24
24
29
46
60
82
104
120
130
146
147
126
102
83
71
57
28
8
-8
-13
-10
-6
0
7
7
10
12
15
15
11
10
14
17
5
10
18
19
-1
1
7
5
6
15
11
13
16
18
23
18
19
23
16
8
0
13
21
16
11
11
8
14
22
17
32
25
18
21
10
5
9
19
15
17
24
22
16
22
26
16
18
23
30
23
28
29
28
25
28
27
33
34
35
31
40
39
32
35
34
32
33
40
47
47
38
45
46
40
40
37
46
40
32
49
45
52
36
34
36
45
36
42
33
33
30
29
34
31
28
28
31
33
22
27
15
22
23
20
13
21
22
25
23
29
20
15
19
22
17
21
22
20
15
27
38
26
19
23
19
25
27
34
33
36
43
29
19
20
21
24
26
29
31
32
36
39
40
42
50
55
48
50
37
24
28
37
35
39
28
17
17
18
18
22
26
19
23
26
28
28
24
18
19
26
11
20
18
21
18
17
21
18
17
19
25
19
28
23
19
23
13
16
20
21
18
18
24
13
26
28
36
24
19
27
28
31
29
42
48
65
87
107
123
137
155
157
151
122
99
83
67
53
27
7
2
2
8
9
12
9
12
21
21
18
23
23
12
24
18
19
35
43
22
6
11
16
27
24
22
19
7
19
21
17
19
25
36
32
7
17
33
35
12
17
27
27
30
22
27
22
19
18
18
20
31
32
26
32
36
17
24
30
26
23
26
30
27
26
28
35
36
42
35
31
34
36
34
38
40
36
39
41
41
48
45
55
48
39
51
52
49
46
47
60
58
45
51
64
43
47
47
52
41
42
44
43
44
42
41
47
47
45
38
42
35
35
29
38
30
36
33
34
31
26
32
28
24
31
31
39
22
29
28
28
31
30
30
32
32
27
33
33
36
24
34
41
34
36
32
40
39
39
45
43
40
36
41
42
37
39
44
41
43
40
44
52
55
47
47
43
47
47
48
49
51
50
40
41
44
38
34
45
23
35
34
31
34
29
25
28
31
30
33
34
35
30
34
29
27
28
25
25
28
28
15
25
25
25
37
29
40
30
18
23
31
28
26
29
26
34
43
44
36
39
40
45
54
75
77
92
115
132
156
165
165
155
125
107
95
71
47
24
6
8
11
16
23
15
24
21
27
30
27
32
29
21
34
31
29
42
12
17
19
22
21
23
22
32
41
32
28
25
25
26
27
25
25
28
23
24
25
29
31
29
32
28
34
32
28
32
30
30
26
32
34
35
30
25
37
37
33
35
28
32
35
36
50
35
39
35
32
30
42
43
43
41
41
46
39
47
54
40
54
55
48
61
59
46
48
51
49
46
55
60
56
55
52
52
55
61
51
43
64
57
67
48
48
36
40
43
38
40
36
38
37
43
34
34
39
36
30
40
34
28
30
33
27
33
30
28
27
31
32
34
34
32
36
36
27
35
42
32
26
28
29
34
29
30
30
34
42
35
38
36
45
49
49
54
49
42
36
44
45
33
38
41
41
41
43
44
47
52
59
56
51
56
63
55
34
44
47
45
28
27
39
36
32
35
37
35
37
35
30
39
35
32
34
31
30
40
35
27
33
37
35
35
25
29
28
33
31
27
23
26
32
40
31
29
31
28
34
27
23
34
42
40
44
43
44
52
52
64
77
92
109
126
141
154
171
168
140
116
108
91
67
44
33
16
7
6
15
18
26
32
24
25
25
27
34
34
35
41
25
22
28
28
28
32
27
25
35
27
28
31
29
28
31
29
34
28
33
31
26
39
31
27
28
28
37
32
31
42
41
21
30
34
39
41
29
28
33
31
35
32
34
32
36
38
39
36
40
45
45
47
46
40
43
44
43
46
43
53
55
47
53
53
50
58
56
51
58
64
59
71
54
53
59
61
60
61
61
59
55
60
58
50
49
45
51
56
47
50
53
48
49
51
45
35
43
47
39
33
35
32
35
40
41
43
35
18
32
38
29
26
33
38
47
40
16
32
29
40
37
35
30
30
38
45
28
32
34
33
31
28
30
36
32
44
35
34
42
48
36
37
41
35
40
48
44
45
48
41
48
42
45
35
46
43
40
42
45
45
49
54
56
58
53
60
60
59
45
51
46
45
47
47
42
46
43
32
40
37
36
40
34
32
38
35
34
39
42
38
38
20
27
36
35
32
28
22
32
29
28
40
22
29
38
32
19
30
22
21
28
29
32
33
34
30
37
39
40
56
54
55
59
73
79
93
107
116
138
155
167
179
168
141
114
95
76
57
24
19
15
13
16
14
20
23
22
27
26
29
36
42
35
34
20
26
29
27
23
30
28
26
30
32
37
37
33
30
35
29
29
36
34
27
27
36
29
32
29
35
43
36
30
29
33
46
32
31
35
36
36
37
41
34
32
36
40
38
42
46
47
42
33
38
38
44
43
42
39
48
51
41
43
54
55
52
52
60
54
49
56
55
59
56
61
62
66
67
65
58
71
63
51
61
59
62
58
66
75
57
50
53
52
55
43
49
50
47
45
57
48
42
46
36
37
38
53
42
32
37
31
40
41
30
42
35
29
33
34
32
28
31
33
34
36
39
35
29
33
35
41
39
32
24
27
32
42
39
32
38
49
28
34
38
42
34
32
42
36
31
31
31
35
35
26
28
35
43
56
49
36
44
44
53
47
44
44
36
49
44
37
40
44
47
50
47
53
56
57
52
52
58
63
64
53
42
46
44
37
32
40
37
37
35
34
30
31
34
31
34
34
40
47
41
35
21
24
22
25
30
26
25
25
30
31
34
37
27
36
43
44
29
22
25
26
32
30
31
29
38
44
40
46
53
66
66
64
73
89
100
105
129
154
158
160
167
148
125
104
86
66
41
28
14
14
12
18
19
19
19
28
25
20
28
33
30
29
29
28
26
40
33
30
41
36
25
29
27
32
32
32
28
27
31
34
33
37
46
41
35
41
40
30
26
26
34
27
30
32
39
38
39
40
29
38
44
46
45
37
33
35
32
46
37
35
42
42
40
47
46
51
60
42
38
57
40
52
48
51
45
60
58
60
65
65
58
57
58
63
64
65
63
63
69
70
71
62
66
65
60
61
66
70
70
60
51
56
58
52
54
49
45
56
47
35
39
43
58
52
35
45
36
31
32
31
32
36
35
32
37
36
34
36
30
30
39
41
39
26
33
37
30
38
35
31
37
35
40
32
35
40
27
32
34
34
37
34
33
34
27
36
35
32
32
35
33
36
34
41
40
42
36
42
33
36
41
35
35
36
36
35
34
39
44
43
46
52
43
45
49
59
38
34
43
50
45
48
55
41
47
52
55
60
62
44
58
52
46
49
48
47
46
44
44
42
31
34
29
30
33
32
30
31
28
28
32
31
31
43
46
30
37
40
26
25
28
30
22
26
32
30
27
37
26
31
32
30
28
32
40
45
31
38
38
33
47
55
51
49
52
62
67
70
88
104
124
136
162
164
164
159
135
119
107
88
57
24
11
13
15
17
21
24
26
43
30
25
22
24
31
46
31
26
28
30
33
36
25
29
33
31
30
31
24
26
27
31
38
36
30
37
37
40
41
29
34
29
29
27
26
37
35
30
28
27
32
43
43
40
42
38
33
39
44
23
32
39
41
41
33
33
42
43
41
47
50
41
43
45
49
50
48
50
50
62
51
54
46
54
56
60
56
59
60
60
58
60
54
55
62
65
66
73
71
61
55
53
56
70
65
44
48
56
51
45
50
54
41
45
36
39
46
49
36
42
41
39
37
36
40
41
40
30
36
37
39
44
29
26
40
31
32
38
32
37
34
26
35
29
26
36
42
41
34
29
43
44
32
17
29
29
34
39
47
32
29
36
34
24
27
38
41
33
27
37
39
45
34
31
28
30
35
37
39
37
35
30
29
42
29
27
34
32
33
38
36
38
34
32
39
40
28
36
39
43
38
38
37
41
40
43
42
43
50
50
47
48
51
54
59
53
42
45
43
45
34
27
25
32
33
24
28
28
30
33
40
33
28
24
23
29
22
28
37
30
22
28
23
30
34
35
29
17
21
22
29
29
24
26
29
32
23
26
19
19
25
27
37
32
43
62
49
44
51
56
64
68
79
93
107
130
143
159
176
170
142
118
98
79
58
26
17
14
14
22
20
23
13
14
24
39
21
21
21
17
33
26
29
20
24
22
26
24
24
31
25
20
36
26
25
29
25
15
27
29
26
30
21
18
22
25
27
25
26
24
24
30
30
28
34
31
28
36
28
24
28
28
42
27
26
27
40
32
28
29
32
34
32
35
37
39
40
45
47
49
43
38
37
42
48
44
49
47
47
50
58
61
58
59
45
59
58
48
57
58
51
56
55
61
59
65
73
52
49
49
51
50
50
47
55
49
36
46
40
40
33
36
32
37
40
33
36
33
38
40
24
28
36
34
33
33
42
36
34
43
28
26
20
30
32
34
31
25
23
35
37
30
32
36
36
27
33
31
32
29
27
30
33
32
33
32
31
29
32
31
35
39
38
43
28
27
32
28
33
32
26
30
33
31
30
36
35
29
30
38
41
32
35
30
38
32
33
40
36
33
27
38
37
42
43
35
35
39
38
45
43
46
40
53
56
59
59
50
49
48
40
45
37
37
38
36
35
36
23
29
32
33
29
30
21
30
21
23
31
25
24
24
29
33
38
33
25
35
21
