-18
-31
-42
-36
5
36
53
67
50
18
-10
-36
-51
-45
-7
33
64
69
52
21
6
-26
-32
-9
21
57
59
58
63
39
-4
-22
-27
-26
22
57
78
86
69
42
-2
-24
-14
-5
28
70
91
88
82
38
4
-3
11
23
57
82
97
88
77
43
8
-10
-8
-2
36
71
94
82
71
33
-5
-24
-28
-25
10
45
66
56
51
22
-21
-40
-35
-23
8
31
57
55
42
-4
-47
-80
-56
-31
-2
29
45
42
32
-16
-45
-59
-62
-49
-10
22
49
52
31
-13
-40
-52
-45
-41
-2
21
42
40
22
-16
-36
-66
-59
-28
-2
35
36
24
5
-17
-50
-66
-60
-46
-6
24
35
31
19
-17
-61
-79
-72
-40
14
41
42
29
0
-37
-41
-45
-48
-26
11
28
35
29
-5
-47
-57
-75
-70
-20
30
38
38
22
-5
-37
-59
-62
-62
-35
13
33
28
23
-1
-47
-65
-53
-48
-19
16
30
24
20
-17
-59
-71
-66
-61
-12
25
39
31
17
-18
-39
-55
-67
-63
-32
24
41
35
35
-15
-54
-70
-57
-53
-26
11
33
39
32
-8
-38
-63
-75
-55
-16
14
24
15
16
-25
-57
-70
-65
-59
-16
15
48
44
19
-32
-49
-70
-57
-45
-12
14
31
34
21
-22
-51
-64
-65
-66
-29
2
21
31
19
-26
-60
-68
-65
-41
-6
27
30
18
4
-35
-62
-79
-69
-54
-4
34
42
25
-4
-39
-51
-63
-63
-49
-11
14
22
16
0
-26
-54
-79
-71
-42
4
27
37
24
1
-36
-56
-62
-59
-36
-2
21
32
19
-17
-40
-47
-49
-55
-27
9
40
37
27
-8
-44
-65
-69
-64
-42
-14
17
21
26
7
-38
-80
-85
-67
-37
1
26
30
22
-12
-45
-73
-71
-80
-36
-1
5
9
29
-10
-43
-51
-63
-72
-39
0
23
16
8
-19
-51
-67
-68
-66
-26
0
11
13
2
-32
-79
-89
-63
-30
26
66
119
150
158
121
87
87
93
116
149
157
115
81
47
7
-45
-68
-70
-56
-17
10
27
22
6
-28
-56
-67
-72
-48
0
30
29
19
3
-39
-78
-78
-66
-46
-19
3
28
28
2
-41
-64
-67
-63
-47
0
38
36
16
-12
-44
-73
-83
-57
-37
-10
6
24
17
-1
-27
-53
-60
-64
-40
-6
27
22
18
-1
-34
-65
-79
-72
-33
4
29
36
25
1
-38
-57
-65
-65
-37
4
28
31
18
-7
-35
-43
-55
-48
-18
13
40
28
17
-5
-42
-57
-47
-47
-17
35
60
52
32
-13
-43
-56
-44
-47
-5
44
67
61
46
15
-30
-55
-52
-38
18
44
67
61
61
22
-5
-24
-28
-32
7
46
55
52
47
23
-13
-43
-34
-30
10
48
68
50
28
-12
-44
-51
-49
-46
-7
24
38
31
17
-17
-61
-72
-73
-53
-20
5
12
17
6
-30
-65
-73
-77
-54
-19
10
16
8
-8
-49
-78
-84
-84
-62
-30
6
31
14
-10
-46
-68
-77
-75
-55
-15
13
14
10
-19
-64
-85
-77
-69
-54
-16
12
20
6
-28
-62
-81
-90
-73
-46
-7
19
21
15
-20
-57
-81
-84
-66
-39
-13
4
15
18
-18
-59
-75
-80
-74
-47
-9
17
18
5
-30
-65
-91
-85
-85
-49
-14
3
5
3
-30
-79
-101
-87
-69
-42
4
14
8
5
-30
-69
-88
-89
-82
-38
10
19
12
6
-25
-68
-85
-83
-74
-44
-2
21
26
10
-35
-76
-92
-97
-88
-47
9
5
1
0
-42
-66
-74
-80
-65
-26
2
14
12
-3
-47
-74
-87
-77
-62
-29
5
11
3
7
-43
-76
-87
-82
-76
-32
10
21
17
2
-50
-70
-78
-72
-69
-39
-2
20
22
1
-42
-75
-89
-76
-47
-12
15
21
6
-23
-54
-75
-85
-88
-61
-32
13
15
8
-13
-43
-79
-82
-84
-64
-26
4
16
10
-17
-52
-84
-76
-70
-47
-10
6
10
0
-21
-55
-77
-81
-67
-37
5
20
32
30
-1
-44
-66
-67
-72
-53
-8
31
29
21
-7
-45
-75
-81
-63
-29
-7
-4
13
37
-10
-63
-77
-85
-84
-39
-4
15
13
14
-25
-73
-91
-93
-79
-34
6
21
8
-2
-38
-65
-70
-85
-84
-44
-14
8
11
-1
-30
-72
-75
-73
-63
-33
0
3
22
19
-29
-82
-102
-97
-74
-30
4
10
1
-19
-51
-71
-66
-31
-10
53
106
141
148
145
114
76
76
91
98
75
55
42
26
10
-21
-78
-72
-70
-58
-13
19
22
7
-13
-53
-73
-64
-64
-46
-12
5
17
4
-7
-53
-76
-78
-63
-48
-11
14
19
10
-18
-46
-66
-80
-77
-39
-8
20
29
24
-15
-44
-64
-80
-88
-45
-5
26
30
32
-5
-51
-76
-76
-68
-38
-12
15
20
12
-22
-48
-59
-65
-59
-19
8
36
27
8
-15
-53
-67
-64
-46
-18
22
31
17
16
-35
-54
-45
-43
-56
-20
18
46
34
29
-8
-42
-65
-64
-53
-16
17
26
31
48
12
-36
-61
-64
-40
15
37
51
36
43
7
-30
-47
-45
-29
7
54
90
71
35
5
-11
-23
-26
-17
29
69
82
72
49
13
-30
-46
-34
-6
28
47
52
45
39
-2
-41
-52
-43
-25
14
34
26
24
24
-30
-59
-67
-61
-22
10
27
29
27
7
-29
-67
-76
-67
-47
-7
20
28
21
-11
-52
-70
-81
-55
-23
-1
23
29
18
-17
-59
-62
-66
-72
-38
-8
25
16
23
-1
-55
-69
-73
-64
-29
-2
24
22
17
-21
-51
-68
-82
-65
-30
1
29
24
21
-12
-52
-70
-76
-70
-25
1
20
27
27
-12
-53
-72
-73
-68
-24
16
39
37
21
-28
-73
-103
-75
-65
-45
26
22
12
9
-23
-52
-68
-71
-67
-28
25
36
35
25
-19
-59
-85
-80
-55
-29
6
28
13
7
-25
-53
-68
-68
-60
-23
-1
24
25
4
-40
-66
-72
-67
-47
-11
10
21
10
13
-39
-65
-74
-66
-46
-13
5
14
8
-6
-37
-71
-72
-64
-42
-16
7
17
16
-7
-51
-68
-76
-78
-47
-13
16
25
18
0
-58
-77
-76
-69
-37
-4
19
21
13
-17
-52
-73
-82
-84
-55
0
34
28
17
-7
-61
-87
-90
-82
-46
-4
20
12
19
2
-43
-72
-73
-76
-43
4
29
34
21
5
-37
-79
-78
-71
-33
-3
17
18
12
-17
-50
-76
-75
-78
-32
-4
6
-4
5
-33
-70
-73
-84
-86
-44
-6
18
9
2
-29
-51
-78
-88
-79
-32
-10
14
7
-2
-34
-64
-86
-86
-85
-40
-4
4
3
14
-35
-61
-68
-77
-66
-27
10
15
19
1
-55
-83
-105
-107
-85
-42
10
36
51
51
43
36
50
64
88
121
154
175
175
133
25
-33
-65
-64
-53
-21
15
35
16
-3
-31
-64
-68
-76
-68
-20
14
16
2
-24
-48
-79
-85
-85
-58
-16
4
22
9
-5
-49
-84
-87
-79
-45
-13
17
21
15
-18
-61
-77
-78
-72
-45
-15
19
20
5
-3
-45
-81
-81
-69
-31
-13
22
30
14
-25
-61
-76
-81
-82
-31
12
25
27
26
-7
-50
-80
-71
-58
-31
12
21
17
7
-21
-51
-73
-71
-56
-17
17
34
37
21
-20
-42
-49
-47
-56
-26
19
31
30
25
-20
-34
-43
-49
-39
-1
20
48
41
36
3
-37
-55
-40
-15
23
46
56
57
49
8
-22
-29
-29
-17
18
38
70
76
57
19
-20
-26
-29
-4
27
56
63
57
33
-16
-48
-33
-32
-19
5
51
57
57
26
-30
-55
-63
-61
-48
-7
19
33
25
12
-22
-63
-85
-82
-46
-6
14
14
24
5
-29
-60
-74
-65
-42
-16
5
18
16
-7
-42
-71
-75
-55
-34
-9
7
10
14
-3
-39
-72
-80
-77
-41
-3
40
30
17
-17
-50
-69
-70
-69
-36
-12
10
18
11
0
-55
-74
-77
-78
-34
-5
21
23
7
-29
-63
-89
-71
-63
-31
9
31
29
26
-21
-63
-78
-71
-66
-32
8
20
12
8
-27
-65
-87
-92
-78
-45
12
29
28
24
-25
-57
-83
-78
-64
-27
4
17
14
-4
-35
-67
-70
-64
-49
-13
11
17
3
-15
-39
-63
-82
-89
-52
-14
18
26
17
5
-40
-76
-80
-71
-50
-21
13
20
-4
-1
-46
-76
-87
-78
-53
-27
13
36
18
2
-40
-74
-86
-74
-55
-20
16
21
22
-7
-56
-77
-78
-68
-45
-6
22
28
17
-17
-52
-76
-72
-69
-52
-16
22
35
14
-24
-59
-88
-101
-87
-60
-8
31
38
24
-6
-45
-71
-67
-71
-42
-2
10
15
18
-14
-53
-77
-78
-74
-33
-1
19
28
37
7
-32
-68
-86
-79
-36
1
19
20
14
-21
-54
-73
-88
-66
-29
12
35
30
23
-8
-36
-63
-59
-56
-9
20
39
36
29
-7
-49
-67
-61
-50
-9
13
42
41
16
-16
-39
-50
-62
-60
-26
16
30
26
9
-32
-64
-67
-68
-63
-18
28
30
27
18
-22
-53
-65
-64
-49
-13
11
31
23
15
-31
-60
-75
-67
-47
-13
20
32
23
4
-36
-75
-72
-75
-43
-13
25
31
19
-9
-39
-78
-89
-81
-62
-8
27
47
66
58
21
32
55
72
109
162
186
189
193
178
113
21
-30
-33
-5
18
44
41
20
4
-29
-52
-69
-54
-17
15
30
28
31
-5
-56
-69
-72
-61
-37
10
26
29
27
-1
-47
-51
-56
-58
-23
13
36
35
32
0
-40
-60
-66
-57
-20
10
25
30
31
-7
-46
-60
-64
-57
-25
10
41
37
35
-5
-53
-61
-66
-66
-10
20
37
35
33
-3
-41
-55
-55
-47
-8
24
42
42
26
-17
-38
-52
-45
-38
-13
21
45
35
29
-10
-41
-49
-45
-40
1
43
57
57
38
0
-38
-47
-44
-23
17
45
61
45
54
11
-25
-42
-30
-4
38
72
76
58
39
9
-21
-24
-24
-2
33
69
81
77
54
7
-18
-12
-11
7
46
70
83
69
42
10
-22
-40
-30
7
39
48
60
53
7
-29
-50
-36
-35
-15
13
43
50
35
1
-34
-53
-58
-48
-22
8
30
22
28
-1
-42
-72
-70
-69
-27
18
32
24
20
2
-33
-59
-61
-61
-26
7
20
28
36
-18
-51
-67
-70
-59
-22
4
23
49
32
-22
-52
-71
-69
-60
-24
5
28
30
9
-23
-52
-71
-66
-47
-11
9
37
28
20
-16
-53
-72
-65
-53
-16
11
22
21
15
-21
-55
-83
-68
-45
-8
24
36
19
11
-29
-57
-73
-60
-48
-33
-4
29
29
25
-22
-63
-79
-74
-50
-8
19
24
22
8
-33
-69
-82
-67
-41
-5
25
25
6
18
-25
-64
-72
-65
-42
-4
16
28
28
1
-32
-62
-73
-66
-45
2
21
34
18
-4
-58
-67
-70
-64
-37
3
26
33
28
-2
-49
-53
-63
-79
-44
4
17
12
11
-9
-47
-65
-69
-61
-24
20
36
31
21
-22
-48
-66
-64
-63
-43
0
43
30
23
-15
-56
-56
-63
-51
-18
11
36
36
17
-15
-58
-69
-66
-63
-20
17
32
26
16
-9
-50
-56
-59
-59
-33
1
20
27
24
-14
-52
-59
-63
-60
-14
14
35
35
21
-18
-44
-73
-80
-78
-42
34
50
39
23
-15
-44
-61
-47
-36
2
31
33
41
31
-15
-43
-70
-56
-37
-9
36
48
41
17
-29
-52
-59
-50
-36
-7
18
34
21
0
-29
-49
-56
-62
-38
-7
22
20
35
18
-30
-67
-69
-60
-31
1
16
24
28
-7
-44
-61
-60
-54
-33
5
25
25
30
7
-30
-57
-70
-69
-32
12
31
36
36
0
-42
-59
-73
-73
-41
-8
3
9
22
0
-24
-24
-7
25
88
148
183
195
188
149
107
87
93
42
27
39
49
34
24
-3
-24
-44
-44
-42
-11
8
39
40
26
-3
-36
-62
-69
-63
-15
27
46
43
27
-7
-51
-59
-47
-56
-31
33
46
38
27
-13
-40
-57
-52
-47
-6
20
26
35
22
-17
-47
-60
-49
-42
-7
38
45
33
21
-16
-49
-65
-60
-35
1
28
42
26
5
-24
-44
-56
-52
-35
10
33
42
27
11
-19
-49
-69
-39
-8
3
28
43
45
22
-19
-48
-55
-50
-27
2
39
37
46
25
-15
-37
-43
-40
-5
29
57
65
50
19
-21
-34
-46
-50
7
48
55
56
48
37
8
-22
-34
-14
6
43
73
78
70
35
0
-16
-34
-12
17
50
74
75
71
28
-3
-22
-39
-22
16
48
67
53
43
18
-26
-49
-44
-40
-14
28
44
37
34
4
-37
-64
-70
-56
-11
21
34
36
25
-18
-54
-76
-74
-51
-16
12
25
29
15
-21
-54
-67
-56
-46
-9
15
26
17
5
-22
-58
-74
-64
-49
-6
13
39
31
9
-31
-57
-70
-53
-46
-20
16
28
22
11
-27
-58
-77
-70
-45
-6
18
30
8
2
-18
-66
-75
-65
-52
-8
25
32
32
12
-38
-86
-79
-61
-41
-16
-4
12
21
2
-45
-70
-71
-67
-42
-1
23
40
22
-9
-40
-65
-74
-62
-48
-4
26
35
29
6
-41
-67
-76
-69
-41
-5
21
41
26
-1
-58
-73
-74
-67
-36
1
23
24
9
-20
-57
-81
-75
-62
-30
-4
17
23
13
-16
-46
-69
-69
-70
-35
10
28
24
17
-18
-55
-74
-76
-76
-29
22
32
19
1
-24
-51
-70
-69
-64
-39
4
25
36
13
-22
-58
-80
-84
-67
-25
3
15
12
21
-15
-57
-72
-78
-71
-29
4
22
14
-4
-20
-52
-70
-59
-50
-8
19
26
24
15
-18
-62
-75
-81
-56
-22
18
28
25
5
-30
-58
-65
-56
-39
-1
17
21
20
12
-35
-70
-79
-76
-58
-16
8
17
4
5
-27
-65
-84
-76
-56
-13
10
18
7
-13
-37
-58
-80
-73
-70
-31
11
18
8
-19
-61
-80
-77
-72
-60
-16
15
21
8
-16
-59
-87
-87
-82
-46
-15
23
29
18
-28
-74
-89
-95
-86
-23
47
85
91
110
109
91
62
73
90
115
148
154
96
43
4
-39
-70
-69
-49
-17
7
24
29
27
-9
-47
-69
-74
-73
-40
11
31
18
19
-24
-54
-71
-66
-60
-18
18
32
31
9
-22
-59
-73
-69
-56
-17
21
33
26
11
-21
-63
-83
-74
-51
-16
12
28
16
2
-31
-56
-72
-74
-66
-15
19
35
27
10
-26
-58
-73
-65
-55
-14
19
25
30
11
-30
-70
-64
-60
-48
-16
11
29
38
12
-30
-57
-65
-52
-42
1
38
38
18
8
-40
-63
-61
-64
-38
12
31
30
28
16
-22
-57
-68
-41
-14
15
46
54
30
-1
-12
-30
-37
-37
-4
34
49
49
44
17
-10
-45
-38
-31
12
43
66
71
66
28
-18
-34
-39
-39
-8
37
63
59
57
25
-23
-45
-49
-52
-8
17
38
34
27
-3
-50
-59
-57
-58
-14
15
35
22
19
-15
-52
-66
-67
-65
-30
-2
17
27
13
-22
-52
-75
-63
-63
-28
-3
15
13
4
-24
-67
-72
-72
-60
-24
9
25
25
9
-28
-62
-87
-79
-53
-7
11
8
4
6
-27
-65
-69
-68
-58
-22
13
21
29
16
-33
-76
-90
-89
-73
-25
24
28
9
-12
-41
-71
-72
-71
-51
-12
6
14
13
-9
-41
-60
-72
-68
-56
-28
1
17
19
2
-41
-71
-77
-80
-46
-8
17
22
7
-12
-45
-75
-79
-81
-54
-18
9
12
5
-20
-62
-75
-71
-65
-37
-4
12
15
12
-25
-65
-84
-79
-75
-45
-17
17
23
8
-20
-63
-69
-72
-80
-40
3
9
16
14
-25
-54
-75
-79
-72
-34
-5
18
28
17
-29
-66
-83
-82
-68
-31
-12
0
19
11
-22
-54
-79
-78
-70
-16
18
31
23
9
-23
-62
-70
-57
-60
-39
2
34
31
15
-21
-52
-68
-52
-40
-6
14
21
22
7
-27
-58
-70
-62
-55
-22
8
19
11
3
-37
-65
-73
-73
-63
-31
10
30
20
0
-41
-66
-81
-70
-60
-15
18
31
26
-1
-36
-68
-73
-79
-50
-15
12
21
20
7
-35
-64
-70
-69
-48
-19
11
21
13
-12
-55
-85
-87
-86
-57
-1
51
70
87
79
67
61
69
90
119
150
187
185
159
71
0
-48
-55
-55
-30
17
30
33
35
-11
-48
-61
-52
-48
-16
10
26
23
8
-27
-53
-73
-71
-77
-29
-6
26
35
19
-17
-55
-75
-57
-52
-18
15
34
16
1
-21
-55
-76
-67
-60
-18
11
23
31
18
-14
-47
-60
-73
-61
-21
8
27
23
21
-20
-53
-77
-60
-41
-7
22
35
22
7
-13
-56
-72
-66
-54
-5
18
33
29
19
-18
-51
-60
-55
-52
-7
31
39
42
20
-25
-59
-59
-60
-38
4
53
57
36
30
-8
-41
-46
-38
-22
12
33
57
58
32
-8
-38
-45
-28
-10
29
59
64
61
48
10
-18
-32
-21
8
36
50
66
78
38
4
-20
-27
-27
2
43
62
75
74
33
-13
-27
-29
-32
-3
25
46
40
44
24
-16
-48
-56
-63
-39
10
33
37
28
-17
-41
-57
-65
-56
-39
-6
25
36
26
-4
-48
-72
-66
-56
-19
7
7
18
14
-7
-43
-66
-64
-66
-33
3
31
23
11
-14
-46
-65
-81
-69
-30
7
18
8
4
-26
-50
-60
-58
-56
-27
3
22
18
12
-10
-41
-69
-68
-56
-18
5
28
22
12
-13
-48
-67
-73
-57
-11
7
30
26
11
-25
-62
-78
-75
-49
-10
23
29
22
8
-27
-55
-77
-73
-52
-3
35
36
23
15
-29
-58
-68
-61
-47
-3
24
32
30
6
-26
-56
-78
-77
-49
-6
31
39
21
6
-29
-55
-54
-55
-34
1
31
37
28
-1
-38
-65
-77
-64
-50
2
31
38
33
2
-32
-53
-59
-58
-30
9
25
30
25
2
-31
-72
-75
-68
-33
-3
22
34
26
-4
-32
-64
-68
-64
-15
9
25
43
31
-30
-50
-60
-72
-66
-13
28
41
37
28
-5
-35
-60
-65
-52
-11
28
43
21
26
-7
-49
-70
-70
-61
-8
24
36
35
31
-13
-36
-61
-52
-38
5
33
42
37
22
-12
-44
-58
-56
-35
8
34
44
44
28
-5
-40
-48
-58
-41
12
57
58
33
10
-30
-51
-65
-62
-39
-2
24
36
24
16
-19
-38
-53
-52
-43
0
28
36
32
11
-31
-60
-67
-70
-47
6
33
43
36
11
-24
-55
-59
-45
-33
-1
22
27
27
-3
-35
-59
-68
-71
-50
-7
8
24
26
4
-33
-27
-3
13
47
109
151
189
192
164
127
117
115
100
66
61
70
73
59
9
-38
-48
-50
-46
-12
21
38
33
28
-6
-43
-56
-55
-52
-21
16
42
43
31
-2
-46
-63
-63
-60
-23
16
38
36
29
-9
-39
-46
-42
-41
-8
29
33
29
30
-5
-47
-65
-69
-44
1
21
31
39
33
-5
-39
-58
-60
-52
-17
28
36
30
27
-13
-50
-66
-52
-28
7
29
42
25
9
-14
-40
-48
-65
-40
1
48
54
47
32
-17
-52
-63
-46
-17
14
51
53
39
15
-14
-42
-46
-39
-24
23
55
65
60
33
-3
-24
-40
-29
-13
11
59
67
62
44
-3
-25
-31
-23
-8
30
73
79
73
48
3
-13
-21
-11
12
52
81
76
73
40
1
-19
-22
-17
2
24
66
84
77
33
-9
-36
-43
-47
-11
25
43
50
47
1
-37
-62
-65
-46
-14
9
22
25
28
2
-28
-66
-65
-54
-33
8
27
31
29
-10
-41
-67
-79
-69
-19
27
42
25
25
-22
-47
-64
-74
-74
-28
13
26
25
25
-28
-56
-60
-65
-66
-20
13
27
30
15
-16
-50
-67
-76
-66
-29
12
27
21
23
-20
-58
-66
-59
-42
-1
15
25
14
1
-31
-55
-70
-68
-58
-16
11
22
17
3
-33
-56
-62
-72
-48
-17
20
31
17
17
-29
-70
-78
-66
-49
-23
12
26
30
12
-25
-56
-67
-66
-48
-3
9
20
14
4
-34
-71
-70
-69
-39
-5
22
22
15
-6
-39
-79
-88
-80
-35
-1
25
24
-6
-25
-56
-74
-80
-79
-39
-5
14
21
21
-13
-55
-75
-78
-69
-30
-7
12
19
24
-20
-65
-83
-76
-77
-40
-10
16
18
7
-26
-63
-69
-75
-77
-38
13
36
30
23
-24
-57
-71
-67
-55
-22
3
13
7
9
-35
-62
-72
-77
-73
-30
3
23
31
11
-19
-55
-77
-74
-66
-42
7
14
5
-1
-29
-70
-82
-66
-48
-13
19
35
32
21
-19
-63
-83
-82
-40
-2
23
35
26
9
-22
-56
-57
-54
-48
-20
18
24
28
15
-37
-70
-94
-87
-50
-8
17
23
12
-7
-49
-75
-75
-80
-63
-12
14
21
18
-6
-42
-79
-78
-71
-47
-9
5
22
21
-3
-42
-64
-74
-78
-51
-7
13
17
10
-7
-45
-61
-63
-68
-52
-8
4
7
-6
-37
-77
-95
-90
-80
-43
19
58
85
100
98
77
73
78
78
116
158
177
140
76
18
-42
-83
-72
-74
-23
16
14
29
13
-16
-62
-83
-67
-59
-21
12
26
12
-6
-33
-67
-93
-84
-65
-23
5
16
15
15
-24
-62
-74
-72
-71
-41
0
15
15
0
-40
-56
-74
-63
-61
-18
5
13
4
-1
-48
-60
-63
-56
-58
-20
4
20
12
6
-34
-68
-75
-67
-48
-4
20
33
20
5
-34
-62
-78
-64
-34
3
26
26
23
21
-21
-53
-71
-71
-47
-15
33
46
31
-4
-27
-59
-66
-46
-16
18
37
51
48
17
-34
-50
-40
-39
-17
18
49
54
45
22
-12
-34
-42
-43
-11
21
53
59
54
16
-19
-18
-23
-18
16
49
57
65
71
40
-7
-30
-28
-28
11
40
59
63
55
20
-19
-37
-49
-47
-4
35
55
55
32
-4
-41
-59
-77
-78
-39
14
58
30
29
-4
-53
-67
-51
-54
-15
10
26
17
9
-32
-54
-62
-61
-52
-22
14
29
23
12
-19
-53
-62
-61
-51
-19
2
29
37
19
-31
-55
-73
-76
-60
-13
13
24
26
25
-23
-65
-82
-84
-62
-18
16
41
23
15
-26
-52
-71
-76
-54
-11
17
33
28
-12
-27
-56
-74
-60
-44
-1
15
28
25
-6
-40
-66
-86
-74
-39
6
23
26
27
4
-45
-72
-64
-60
-50
-9
22
20
38
-4
-44
-58
-64
-69
-48
0
13
23
26
-2
-40
-66
-59
-63
-32
-4
24
32
24
1
-40
-71
-75
-68
-42
-2
26
37
31
-8
-55
-71
-74
-69
-25
8
32
20
12
-22
-46
-67
-69
-64
-38
18
22
21
29
-7
-56
-66
-69
-60
-33
8
30
25
19
-21
-50
-61
-60
-48
-10
20
29
26
20
-30
-62
-70
-47
-41
-12
14
31
21
16
-14
-70
-69
-55
-37
-8
28
42
32
15
-16
-55
-60
-52
-39
8
34
40
41
28
-9
-47
-61
-61
-43
2
27
40
30
15
-30
-59
-70
-67
-39
-5
28
30
20
-1
-35
-55
-68
-63
-45
-12
5
8
22
25
-22
-70
-72
-75
-47
-4
22
37
29
2
-37
-59
-55
-56
-26
3
25
12
13
2
-52
-74
-65
-67
-52
-2
25
21
23
-5
-49
-86
-90
-66
16
66
104
117
130
116
94
79
76
96
127
152
123
89
53
22
-33
-57
-66
-58
-20
18
36
41
37
0
-33
-59
-62
-58
-16
14
35
23
6
-26
-38
-63
-47
-49
-20
8
21
32
38
5
-29
-44
-47
-55
-8
19
43
34
16
-14
-48
-69
-66
-58
-12
25
35
34
24
-14
-45
-70
-57
-44
-7
10
21
36
26
-21
-48
-68
-57
-49
-13
23
35
30
25
-5
-47
-59
-47
-32
4
35
41
43
35
-16
-50
-51
-51
-49
-4
26
35
29
27
-12
-51
-54
-38
-24
14
48
52
36
27
-1
-28
-45
-35
-10
24
48
57
45
26
-6
-21
-29
-22
1
28
53
61
60
44
9
-29
-31
-24
2
32
68
75
78
50
12
-22
-37
-15
8
47
76
65
47
14
-24
-41
-45
-36
-1
34
46
54
40
5
-26
-45
-60
-54
-18
17
30
34
24
-6
-32
-52
-62
-66
-31
-5
26
26
9
-14
-30
-57
-60
-59
-20
16
33
28
21
-17
-48
-69
-71
-61
-6
27
26
26
19
-9
-45
-72
-69
-53
-3
30
42
39
13
-22
-49
-66
-60
-54
-23
17
42
36
22
-23
-49
-59
-68
-35
-3
26
39
29
19
-23
-58
-72
-64
-55
-13
26
35
41
19
-25
-57
-67
-71
-47
-2
22
35
32
16
-21
-47
-59
-56
-40
-8
20
35
33
10
-35
-52
-56
-51
-32
6
26
36
24
4
-24
-43
-60
-67
-46
-9
22
35
27
5
-36
-65
-64
-56
-31
-2
26
31
19
-6
-39
-71
-70
-61
-17
28
36
42
33
-8
-44
-58
-65
-55
-22
15
42
38
32
5
-40
-64
-67
-53
-15
13
30
39
26
-22
-40
-49
-53
-48
-13
13
46
40
19
-13
-31
-47
-45
-34
6
28
30
32
33
-1
-27
-43
-46
-41
-10
21
29
32
32
-19
-43
-54
-71
-56
-12
27
27
18
15
-25
-52
-54
-45
-38
-2
21
19
19
21
-16
-49
-58
-62
-51
-9
28
38
27
18
-29
-44
-66
-60
-42
-10
17
38
38
12
-20
-58
-76
-62
-58
-17
16
28
29
10
-5
-10
-16
7
54
118
164
185
179
168
139
107
83
56
40
50
53
60
46
21
-18
-38
-46
-40
-12
32
49
42
32
4
-31
-53
-66
-60
-14
22
37
36
41
18
-19
-46
-59
-55
-21
5
37
38
35
9
-26
-59
-59
-42
-6
22
51
59
51
16
-19
-41
-50
-44
-14
29
50
49
46
14
-29
-47
-41
-43
-6
36
51
50
43
13
-28
-43
-44
-35
5
31
45
53
55
12
-27
-48
-36
-19
10
54
65
50
37
9
-26
-53
-37
-30
6
53
66
57
43
8
-22
-33
-33
-19
9
52
70
62
55
26
-5
-27
-25
0
43
75
73
71
54
15
-11
-18
-12
21
58
87
87
78
56
27
-5
-13
-9
16
56
87
98
86
66
25
-3
-19
-10
19
46
74
81
73
44
-7
-37
-57
-41
2
31
62
73
79
41
-2
-45
-55
-41
-10
29
43
37
33
15
-11
-36
-48
-52
-10
35
49
48
46
14
-25
-43
-47
-45
-9
30
38
42
40
7
-31
-49
-48
-51
-27
18
52
52
50
15
-27
-36
-54
-39
-7
24
43
49
44
19
-28
-48
-50
-44
1
31
52
67
50
3
-52
-72
-66
-39
18
52
57
54
40
-2
-45
-46
-39
-28
25
45
48
49
32
3
-38
-61
-51
-28
10
37
44
49
37
-6
-35
-46
-43
-26
-1
31
61
61
52
-8
-53
-61
-48
-28
4
42
54
62
38
-15
-42
-54
-43
-21
4
23
46
48
33
-4
-32
-53
-44
-21
12
44
55
46
19
-25
-42
-51
-46
-17
16
40
49
47
4
-31
-55
-53
-39
-15
28
44
53
48
10
-33
-32
-39
-46
-8
36
51
46
55
26
-18
-44
-64
-59
-19
29
49
51
48
21
-23
-39
-49
-43
1
36
54
48
42
22
-28
-51
-61
-29
11
38
56
53
62
21
-25
-32
-24
-19
20
57
58
52
25
15
-17
-38
-26
-15
14
50
55
59
55
4
-33
-37
-43
-28
12
46
64
57
32
-16
-36
-69
-43
-18
18
41
59
62
41
7
-32
-43
-33
-18
14
51
53
35
25
0
-22
-45
-37
-8
23
55
67
49
33
-3
-31
-41
-30
-10
23
48
45
23
-3
-36
-51
-49
-25
31
102
158
183
187
175
156
135
123
137
171
189
137
106
85
66
25
-26
-36
-27
-10
32
58
70
61
33
-5
-25
-31
-26
-3
31
43
60
59
38
-5
-25
-28
-38
-7
24
52
71
63
20
-10
-30
-22
-25
6
40
64
63
44
19
-3
-36
-26
-19
9
37
75
72
64
33
-8
-37
-34
-37
1
38
56
63
50
24
0
-13
-18
-18
12
51
73
68
68
25
-5
-26
-28
-21
17
48
64
64
63
26
-9
-38
-28
-11
35
64
82
86
72
33
-2
-26
-9
-9
27
49
75
73
65
39
17
4
5
12
46
69
100
94
76
45
6
-8
0
9
55
99
110
102
78
38
10
4
21
35
71
93
102
107
81
34
15
12
28
44
65
85
96
84
47
12
4
-5
-21
6
50
82
89
81
50
-7
-19
-26
-21
9
40
60
63
55
43
6
-20
-21
-21
8
44
62
61
35
2
-31
-32
-33
-34
-9
38
62
62
53
31
-6
-31
-33
-39
-6
23
41
57
69
37
-11
-35
-35
-27
5
36
62
69
58
16
-19
-27
-31
-53
-11
37
67
56
53
17
-24
-34
-44
-34
15
50
60
52
38
6
-28
-51
-39
-21
13
37
53
67
57
16
-23
-35
-36
-28
14
42
57
51
43
7
-39
-39
-27
-15
31
51
60
67
48
0
-31
-42
-31
-21
21
51
69
58
43
5
-27
-45
-44
-30
10
50
61
49
37
-2
-25
-38
-31
-10
19
48
59
61
46
1
-31
-39
-37
-6
25
58
62
46
25
2
-33
-46
-27
-11
27
60
68
50
20
-13
-32
-25
-22
-6
30
54
61
58
31
4
-25
-27
-30
-2
29
55
63
65
38
-12
-33
-35
-27
6
39
59
64
42
3
-25
-22
-28
-24
12
42
60
69
69
35
-7
-25
-27
-29
21
67
77
71
71
33
-4
-16
-22
-18
28
63
83
75
62
31
-17
-42
-39
-32
11
59
76
62
44
8
-38
-36
-26
-32
14
52
65
72
45
15
-14
-27
-35
-18
12
43
67
75
55
18
-13
-26
-25
-7
34
65
59
53
31
0
-37
-43
-17
-8
34
59
61
50
29
-3
-34
-34
-23
2
44
94
145
167
188
153
119
114
133
175
212
220
198
140
91
39
6
-10
-12
7
38
72
80
68
38
-5
-25
-32
-23
14
51
77
92
75
49
-2
-45
-43
-29
1
37
63
60
61
46
14
-14
-18
-16
17
48
67
73
58
16
-6
-14
-32
-15
15
53
69
73
65
31
-4
-13
-14
-6
24
45
60
75
68
42
-8
-31
-20
-13
24
56
71
71
74
38
11
-26
-27
-10
24
57
58
64
80
41
11
-18
-8
10
44
70
92
89
84
27
-20
-5
1
13
41
79
98
89
77
38
15
7
5
19
74
113
101
83
77
45
9
-3
3
30
64
94
119
98
99
68
51
34
40
48
70
88
113
111
93
64
29
18
18
43
73
110
117
112
91
47
14
6
4
31
64
80
87
77
64
36
3
-10
-10
4
45
75
85
81
45
4
-25
-30
-26
8
56
67
66
66
46
1
-21
-17
-17
18
58
61
65
57
31
-7
-28
-20
-10
7
48
71
59
55
27
2
-30
-30
-17
7
50
67
76
64
32
-6
-23
-36
-30
4
38
58
60
53
41
-3
-22
-12
-5
27
49
63
72
72
24
-10
-23
-25
-21
12
64
74
63
64
15
-21
-31
-27
-11
24
33
47
56
50
11
-7
-24
-19
-5
23
51
64
56
55
25
-17
-32
-37
-12
24
54
72
56
51
19
-14
-22
-17
-8
23
48
64
62
38
3
-5
-27
-25
-4
25
55
73
65
56
6
-24
-27
-20
-4
23
57
69
59
36
-1
-25
-35
-30
-6
33
60
81
60
40
-2
-27
-28
-26
1
38
66
71
50
27
-7
-4
-16
-18
7
42
70
88
72
41
5
-13
-32
-33
5
47
69
73
69
48
3
-20
-27
-14
8
56
78
86
79
39
-7
-4
0
-6
23
52
72
58
67
45
7
-19
-34
-20
24
60
67
65
51
22
-6
-19
-24
-18
25
64
84
72
58
40
-8
-36
-25
-24
16
48
83
83
70
26
-19
-29
-25
-19
22
54
75
77
65
26
-11
-24
-19
-7
19
36
44
50
54
24
11
17
41
62
133
177
201
209
194
168
147
149
147
107
81
77
93
85
71
27
-5
-9
-7
10
44
71
72
60
50
23
-3
-20
-23
2
35
66
73
71
53
16
-5
-25
-14
6
48
80
79
66
45
14
-21
-32
-12
17
57
78
72
76
52
2
-21
-25
-17
11
58
84
72
63
43
8
-17
-22
-18
7
42
61
68
63
45
4
-17
-11
-7
28
56
77
76
80
45
17
-11
-13
-7
32
53
80
98
88
42
-1
-3
7
4
41
64
79
71
76
40
8
-6
-5
-7
40
67
80
94
86
56
9
-5
8
21
44
86
108
108
94
55
20
17
19
18
57
103
110
109
99
67
42
33
40
49
57
82
103
103
95
50
15
2
3
28
75
94
95
98
86
43
12
-5
-2
11
43
70
84
72
51
19
-7
-25
-17
2
51
72
74
70
52
13
-15
-32
-27
-6
30
60
76
71
41
1
-18
-31
-29
-2
56
84
85
71
30
-8
-32
-37
-17
7
38
71
70
65
50
11
-8
-31
-15
10
36
68
82
92
61
20
-28
-42
-39
13
53
62
62
62
37
1
-28
-35
-18
12
44
79
77
76
43
-7
-24
-23
-22
12
49
61
62
72
32
0
-24
-22
-30
18
78
97
85
76
30
-23
-32
-41
-35
10
60
76
64
54
25
-16
-32
-14
-8
25
61
72
75
66
25
-13
-30
-26
-34
12
31
65
86
58
17
-14
-21
-19
-3
26
66
70
70
55
20
-29
-34
-39
-15
35
63
78
71
57
17
-17
-34
-9
9
47
72
72
60
55
14
-8
-22
-30
4
45
73
86
78
52
10
-8
-10
-20
-9
37
69
70
58
33
-1
-30
-40
-28
1
32
63
67
61
45
16
-21
-40
-29
-2
38
59
67
68
39
-3
-33
-40
-20
13
40
65
62
57
25
-17
-38
-33
-17
4
37
60
71
67
27
-6
-26
-37
-37
1
29
41
59
63
42
20
12
33
68
130
174
197
207
202
160
118
81
32
4
35
63
77
69
62
23
-19
-19
-10
-10
26
63
81
68
39
15
-23
-22
-24
-32
19
54
71
65
65
29
-9
-35
-23
-14
29
55
66
58
40
11
-20
-31
-29
-22
3
39
58
63
58
27
-3
-24
-24
-9
24
57
69
64
40
6
-16
-16
-15
-3
36
63
73
70
48
5
-19
-24
-26
-1
37
68
80
67
48
10
-22
-29
-16
5
50
78
90
69
47
11
-9
-22
-10
10
48
75
83
79
55
16
-12
-14
-12
16
51
73
86
81
51
13
-17
-7
3
27
70
92
93
85
59
19
0
-14
-1
51
72
101
95
94
57
27
9
-5
12
52
90
102
98
103
56
15
-7
-17
-16
20
81
104
95
85
44
0
-20
-26
-13
12
42
64
69
67
24
-16
-30
-32
-28
12
40
58
66
55
9
-26
-37
-34
-29
18
43
61
57
45
10
-23
-50
-43
-18
11
43
61
50
37
-1
-47
-58
-37
-26
13
45
52
50
41
0
-38
-39
-21
-23
16
42
53
50
31
-11
-24
-35
-36
-17
23
59
58
54
30
9
-32
-44
-28
-10
15
28
67
48
30
0
-19
-37
-29
-13
18
48
52
55
28
-12
-16
-31
-35
-9
27
50
58
51
31
2
-25
-46
-34
0
31
51
54
62
29
-15
-36
-39
-34
-2
32
57
56
44
18
-14
-37
-36
-24
-4
27
59
55
50
18
-19
-41
-42
-26
12
45
53
51
56
26
-14
-25
-35
-40
5
27
50
55
59
29
-17
-27
-39
-36
0
13
58
71
52
11
-25
-47
-24
-22
25
62
71
60
49
16
-16
-35
-30
-9
23
53
66
58
57
21
-13
-27
-15
-8
22
60
74
61
41
6
-24
-25
-25
-15
19
47
56
57
44
14
-18
-35
-25
-15
11
39
62
63
52
10
-23
-44
-34
-14
16
39
58
53
50
10
-31
-40
-34
-9
31
54
50
45
29
-6
-36
-36
-31
-17
21
50
59
50
23
-12
-43
-54
-53
-21
32
70
88
94
87
65
56
80
107
147
182
207
230
228
188
112
38
16
7
23
54
73
72
61
26
-13
-34
-30
-29
1
36
61
54
51
40
-9
-27
-22
-31
10
46
65
66
51
16
-24
-37
-41
-32
3
42
60
60
60
24
-18
-39
-39
-32
6
33
63
71
49
28
-18
-44
-41
-35
4
35
58
62
47
28
-4
-20
-38
-33
14
52
61
58
52
6
-19
-40
-35
-21
10
39
63
66
53
20
-18
-36
-24
-17
21
50
69
70
54
21
-7
-30
-24
12
40
66
75
62
51
16
-4
-14
-7
14
47
80
88
89
64
19
-5
-9
-3
28
57
78
75
97
76
35
20
11
13
40
69
102
97
84
69
22
-7
-18
6
58
93
109
108
100
65
28
6
4
-2
28
57
67
68
70
50
7
-19
-21
-21
15
48
69
57
57
27
-9
-26
-47
-64
-19
35
59
45
67
22
-16
-34
-36
-29
7
38
59
54
52
26
-9
-30
-38
-37
-10
33
53
59
54
17
-24
-33
-30
-29
4
46
64
62
57
13
-32
-44
-40
-47
-12
29
68
68
55
10
-28
-43
-36
-20
23
43
57
56
45
8
-31
-46
-39
-28
9
49
56
47
22
-3
-40
-36
-46
-30
27
43
57
58
32
-15
-52
-49
-28
-28
11
46
63
54
35
-7
-32
-50
-44
-14
14
44
47
42
32
-8
-32
-43
-40
-2
26
49
51
46
20
-11
-32
-42
-45
-26
14
41
54
51
30
-12
-33
-42
-51
-40
6
60
64
37
6
-27
-34
-26
-24
-9
21
46
51
48
27
-14
-41
-39
-33
-13
38
58
65
55
16
-39
-50
-50
-43
-16
23
44
40
30
13
-11
-33
-32
-25
-2
24
37
47
34
15
-21
-42
-41
-30
20
48
69
67
57
13
-17
-41
-46
-33
10
46
60
62
49
8
-12
-28
-36
-16
17
31
45
55
62
15
-38
-53
-46
-51
1
47
58
49
39
0
-44
-54
-49
-34
-5
38
60
63
48
11
-26
-36
-56
-46
7
38
59
43
22
-21
-46
-54
-43
-21
8
39
53
48
38
-4
-36
-31
-35
-18
11
33
33
20
17
-25
-46
-43
-31
6
54
127
156
170
162
134
125
120
136
163
191
181
134
88
46
1
-30
-35
-16
-1
42
52
51
44
18
-5
-23
-39
-27
-3
27
33
43
49
19
-14
-32
-38
-42
-13
31
45
47
48
23
-18
-31
-46
-35
-5
31
57
65
53
10
-26
-40
-44
-38
8
39
56
50
48
5
-26
-34
-34
-30
0
38
67
59
48
21
-32
-42
-27
-16
9
26
42
53
58
19
-30
-40
-34
-24
9
41
60
61
59
24
-9
-32
-42
-13
27
59
71
71
62
16
-24
-43
-33
-12
26
58
79
91
71
5
-25
-31
-23
1
31
61
76
72
65
26
-17
-22
4
22
54
83
99
83
66
33
-1
-18
-2
35
80
103
100
75
64
41
11
1
16
25
52
90
91
91
70
22
-9
-18
-26
4
50
70
79
77
37
1
-29
-38
-28
2
38
74
70
54
21
-23
-49
-43
-35
-15
28
49
56
67
38
-9
-36
-42
-50
-10
25
39
54
65
28
-9
-29
-46
-43
7
54
62
66
55
20
-19
-36
-45
-34
-6
26
59
63
50
7
-20
-36
-45
-45
-4
42
65
55
46
11
-25
-41
-40
-40
-1
44
69
62
43
5
-25
-36
-30
-20
14
48
62
71
43
-5
-38
-49
-44
-41
20
49
61
55
35
6
-31
-43
-41
-23
14
49
54
56
40
-7
-38
-58
-45
-19
19
52
71
51
42
4
-46
-47
-34
-30
11
36
62
64
43
-7
-40
-46
-42
-7
29
44
37
42
31
-11
-32
-37
-37
-9
31
53
57
48
21
-20
-42
-48
-57
-9
39
52
54
48
16
-17
-39
-45
-45
-10
31
61
53
45
13
-25
-34
-45
-49
-19
21
62
71
57
18
-20
-47
-42
-29
-3
33
59
50
27
4
-29
-63
-20
-22
11
46
63
56
53
17
-28
-48
-37
-36
6
41
51
50
50
13
-31
-43
-40
-34
11
45
53
53
40
9
-24
-41
-38
-19
24
52
66
45
39
-6
-56
-21
-10
0
41
67
65
56
49
3
-36
-35
-28
-15
24
59
70
59
40
-3
-36
-38
-41
-26
24
48
56
48
29
-20
-26
-44
-39
-10
24
50
57
48
17
6
-36
-57
-42
-17
15
52
53
42
25
-11
-34
-45
-36
-9
16
41
67
63
30
-23
-45
-49
-34
-10
28
39
52
42
19
-35
-55
-71
-41
-4
47
76
99
129
119
100
79
83
97
138
186
224
216
170
88
27
-12
-18
-21
3
32
54
57
43
15
-22
-44
-54
-38
3
35
55
58
52
11
-27
-57
-42
-31
-1
36
60
63
50
8
-24
-49
-55
-50
-10
25
56
48
44
4
-29
-44
-37
-36
4
40
65
54
39
-13
-39
-40
-37
-32
10
34
54
54
54
20
-20
-42
-46
-9
18
38
51
43
44
6
-32
-41
-38
-23
11
55
66
49
44
2
-20
-32
-31
-19
7
32
46
50
52
7
-25
-16
-15
-3
36
56
66
57
43
-8
-36
-44
-12
17
47
84
87
71
42
18
-2
-17
-17
0
44
74
80
80
69
27
2
-8
-5
22
48
71
98
97
69
14
3
-6
-4
26
63
93
94
79
69
29
-6
-23
-17
21
58
76
74
77
39
-3
-28
-29
-15
19
49
55
50
47
24
-24
-49
-41
-36
0
39
59
55
46
9
-29
-36
-25
-29
4
27
36
45
50
5
-27
-51
-41
-30
4
45
55
51
50
-2
-34
-49
-46
-45
3
41
58
47
46
19
-23
-41
-32
-29
-6
28
53
59
50
-6
-38
-44
-32
-40
5
42
47
51
34
-10
-33
-50
-55
-28
7
33
44
44
34
0
-37
-43
-41
-37
-4
47
58
46
34
-4
-47
-69
-37
-23
14
37
48
43
27
-26
-47
-49
-44
-27
14
44
51
47
17
-17
-50
-60
-45
-33
20
44
49
42
24
-14
-35
-50
-40
-11
23
43
46
45
22
-21
-44
-53
-37
-18
22
45
54
48
21
-10
-46
-55
-53
-16
20
25
51
48
12
-29
-48
-45
-51
-17
25
42
39
47
17
-20
-59
-46
-39
-4
30
43
46
45
8
-20
-42
-53
-47
-9
18
44
48
49
19
-14
-31
-36
-38
-4
19
52
55
56
23
-31
-36
-28
-29
9
64
69
47
40
6
-26
-50
-29
-22
13
40
39
32
21
-16
-50
-44
-36
-23
6
36
49
41
26
5
-29
-49
-48
-36
5
43
57
53
35
-18
-46
-56
-56
-41
6
57
57
46
26
-7
-37
-50
-39
-14
20
44
53
47
18
-17
-41
-48
-46
-30
-8
21
18
30
18
-14
-23
-15
9
46
94
138
165
179
159
122
112
110
110
81
83
74
58
39
42
15
-25
-40
-33
-2
45
59
62
49
22
-21
-49
-49
-39
-12
30
54
58
46
12
-28
-42
-39
-40
-6
31
47
54
47
1
-30
-37
-36
-41
8
59
67
53
44
0
-33
-46
-45
-29
8
43
60
52
43
19
-27
-47
-45
-34
8
41
58
53
38
8
-19
-42
-47
-24
20
63
75
58
40
-8
-44
-44
-33
-12
20
47
64
54
42
10
-25
-31
-22
-23
20
43
56
58
51
16
-17
-36
-21
3
26
53
72
66
56
16
-8
-23
-18
7
36
60
71
70
50
29
2
-4
1
12
52
82
91
91
58
15
2
10
5
21
55
87
95
84
68
31
-2
-7
-10
30
56
89
77
76
54
21
-21
-29
-18
11
50
63
67
58
27
-5
-25
-40
-30
-4
43
54
62
49
13
-21
-44
-59
-53
-23
22
58
50
40
3
-34
-42
-41
-38
-1
31
52
53
55
24
-27
-49
-48
-49
-8
44
63
69
58
12
-31
-41
-51
-45
-15
19
55
39
39
-2
-40
-38
-25
-34
-8
29
60
53
27
4
-38
-48
-36
-35
7
34
44
59
53
7
-43
-54
-37
-36
-1
27
53
41
26
9
-26
-41
-53
-37
6
41
52
46
26
-18
-34
-35
-34
-31
2
23
30
52
30
-8
-31
-49
-43
-33
14
41
43
42
28
-9
-43
-51
-43
-22
3
24
57
47
33
-15
-37
-56
-58
-32
14
42
52
42
20
-22
-42
-59
-41
-16
22
44
52
46
2
-35
-47
-38
-32
-10
21
39
25
41
32
-12
-47
-64
-49
-13
27
44
49
48
18
-31
-37
-43
-44
-17
26
44
45
41
8
-27
-53
-49
-44
-13
21
43
59
47
15
-27
-60
-67
-49
-2
23
36
32
34
11
-36
-62
-56
-49
-12
41
49
45
41
16
-32
-46
-50
-42
2
40
47
36
34
5
-26
-32
-20
-31
-13
16
52
50
46
2
-29
-40
-39
-29
1
28
53
49
28
-1
-22
-31
-22
-15
19
54
58
47
37
12
-21
-41
-41
-29
-1
34
55
49
27
8
-31
-42
-54
-26
9
49
59
47
17
-26
-45
-42
-39
-25
5
34
56
58
31
-9
-34
-48
-45
-28
21
48
61
50
18
-27
-43
-50
-46
-29
18
40
50
45
24
-25
-58
-61
-57
-33
16
43
43
58
44
32
35
60
92
134
172
197
217
220
180
134
59
3
-6
19
46
52
56
52
20
-27
-49
-40
-34
13
38
62
60
42
3
-38
-63
-50
-38
-4
28
48
57
51
15
-31
-50
-44
-38
-10
24
59
65
52
17
-35
-54
-49
-29
7
36
52
47
36
1
-36
-47
-45
-32
7
45
55
51
41
-10
-41
-49
-47
-49
24
61
75
56
21
4
-36
-49
-35
-17
14
63
74
63
47
2
-21
-43
-36
-20
16
52
68
65
33
-3
-44
-25
-18
-2
25
50
59
72
58
7
-30
-29
-18
-1
32
55
68
77
56
16
-9
-25
-17
-3
48
91
93
82
59
27
-1
-3
-2
27
57
78
89
91
61
12
-5
-3
15
36
84
98
106
96
50
14
0
-12
-16
10
54
78
86
79
41
4
-24
-30
-30
9
40
56
55
55
19
-16
-34
-42
-32
0
35
42
47
39
7
-35
-48
-36
-33
6
34
54
54
57
15
-42
-60
-51
-44
-2
27
48
47
41
0
-32
-39
-39
-35
-1
37
44
40
22
-1
-36
-49
-46
-26
5
20
25
39
39
-5
-54
-57
-27
-18
11
40
60
51
29
-1
-33
-50
-44
-26
8
39
45
41
37
-8
-40
-56
-41
-22
7
33
41
46
28
-15
-40
-43
-43
-13
18
46
54
40
19
-16
-38
-42
-38
-24
9
30
37
56
25
-14
-37
-54
-36
-22
23
45
58
50
25
-19
-38
-46
-38
-14
13
40
51
49
19
-16
-37
-43
-28
-13
24
46
50
42
8
-12
-39
-55
-40
-2
33
60
61
38
13
-10
-42
-46
-46
-14
45
57
51
45
13
-21
-37
-36
-37
-6
40
59
56
47
11
-31
-46
-41
-42
-7
36
46
43
51
10
-30
-41
-34
-38
-7
35
64
54
45
7
-35
-56
-33
-24
1
35
57
57
48
1
-24
-44
-34
-22
11
41
70
50
55
18
-28
-38
-36
-22
13
39
65
65
55
17
-13
-23
-13
-6
25
56
67
56
30
6
-26
-44
-44
-18
19
52
53
39
20
-9
-36
-55
-37
-9
20
44
48
49
25
-8
-39
-52
-42
-12
30
45
52
47
28
-16
-39
-47
-45
-8
23
46
46
50
22
-23
-51
-49
-35
-6
29
55
58
43
0
-47
-64
-61
-53
-13
32
72
99
109
109
105
100
93
107
141
182
218
229
189
86
14
-22
-22
-22
6
46
62
64
63
28
-10
-31
-41
-32
3
37
53
54
57
16
-22
-29
-34
-27
14
45
68
73
58
15
-42
-47
-17
-22
14
47
52
58
52
34
-9
-27
-27
-21
5
43
72
69
51
8
-16
-31
-21
-10
28
66
78
67
63
15
-19
-26
-30
-11
25
53
67
68
60
15
-7
-14
-12
-1
41
65
61
63
58
29
-8
-24
-13
3
42
75
82
75
47
17
-10
-3
-4
29
66
83
92
90
71
23
-15
-21
-1
31
66
93
100
95
65
23
-3
-14
1
36
71
89
100
104
76
34
10
7
7
32
58
100
124
111
78
46
25
19
19
49
81
102
105
103
68
24
8
9
2
43
74
86
89
81
47
2
-19
-11
-2
23
53
70
77
79
29
-8
-33
-40
-26
0
39
67
81
78
28
0
-28
-29
-21
22
50
57
56
54
26
1
-17
-31
-42
2
35
66
63
56
13
-18
-35
-34
-20
31
48
52
62
45
4
-22
-31
-34
-13
12
49
54
49
49
9
-30
-39
-45
-27
16
53
67
64
40
2
-15
-46
-39
-5
32
44
54
60
44
1
-28
-40
-39
-9
30
62
62
58
37
2
-36
-45
-43
-17
32
59
61
48
20
-18
-40
-32
-27
-1
25
52
63
58
24
-17
-30
-36
-35
-3
32
55
54
54
24
-19
-44
-54
-30
3
38
57
55
59
22
-20
-44
-42
-29
11
33
42
58
48
25
-13
-33
-43
-29
2
34
56
56
43
6
-20
-44
-39
-35
11
35
49
49
53
21
-21
-46
-49
-39
-11
33
59
65
50
8
-7
-37
-23
-18
19
47
58
57
63
18
-26
-37
-30
-25
20
54
67
55
44
14
-27
-38
-26
-26
13
52
64
60
51
1
-41
-49
-48
-32
11
32
50
60
31
0
-18
-25
-29
-31
12
30
49
71
37
-8
-31
-26
-25
-18
23
50
62
62
29
-12
-32
-38
-33
-11
24
59
58
55
28
-17
-49
-53
-39
21
87
126
146
153
140
121
100
89
117
151
173
157
96
68
48
-1
-26
-26
-26
4
43
64
69
67
30
-11
-30
-30
-31
0
33
47
51
44
16
-10
-26
-33
-26
7
39
54
61
52
15
-15
-42
-31
-24
5
35
59
54
53
13
-29
-44
-45
-33
12
39
60
75
57
19
-9
-26
-28
-21
14
55
57
52
54
13
-11
-31
-34
-32
19
50
73
66
59
21
-8
-22
-26
-31
18
56
72
65
58
17
-5
-30
-23
-12
25
46
66
65
58
33
1
-21
-21
5
52
72
89
83
63
27
7
-6
-6
2
55
82
85
80
66
28
12
3
3
21
58
86
99
98
78
43
11
4
3
29
73
109
103
104
70
38
7
0
12
39
58
85
105
100
71
22
-12
-24
-3
24
50
74
72
71
37
-5
-23
-29
-12
1
35
59
70
68
36
-13
-31
-32
-29
-3
33
54
55
47
13
-16
-30
-22
-27
0
31
46
53
52
24
-24
-53
-45
-34
4
42
53
52
51
15
-2
-27
-39
-30
10
45
58
63
60
25
-10
-36
-36
-23
14
51
58
53
43
18
-12
-23
-30
-32
6
58
59
62
65
32
-15
-36
-39
-35
6
52
72
57
47
0
-21
-30
-28
-22
27
54
67
60
52
6
-26
-37
-22
-11
30
51
61
51
48
7
-17
-29
-27
-12
18
50
68
65
34
4
-16
-33
-32
-11
34
50
56
51
42
2
-27
-30
-28
1
30
47
71
58
24
-8
-17
-32
-32
-6
32
56
59
53
33
1
-18
-33
-31
9
43
70
70
60
26
-12
-34
-32
-22
7
41
65
72
58
29
-13
-26
-33
-30
6
41
71
67
67
36
1
-17
-28
-13
18
46
64
53
64
40
3
-12
-17
-9
32
57
81
87
75
36
14
-8
-19
-11
22
59
86
81
67
31
-1
-28
-28
-6
26
46
70
62
53
29
-9
-39
-27
-1
28
58
80
76
61
15
-21
-35
-25
-21
22
66
76
77
64
20
-11
-17
-19
-10
25
63
79
70
46
5
-22
-23
-33
-25
15
48
67
56
37
3
-5
18
37
64
134
190
228
228
201
163
145
147
147
130
115
105
108
100
73
28
-2
-15
-8
17
51
83
83
82
53
13
-9
-13
-17
14
51
75
76
96
63
5
-10
-16
-12
13
55
70
72
80
61
18
-19
-14
-5
31
62
77
75
76
54
14
-9
-16
-3
27
61
77
76
78
57
15
-19
-17
-12
24
69
88
88
74
39
5
0
-8
7
42
67
79
80
71
49
28
3
-4
2
25
75
107
93
78
35
8
-3
5
22
69
98
93
85
78
38
11
6
10
23
65
99
109
100
96
62
25
7
23
40
70
101
108
109
96
51
44
23
24
44
87
118
129
126
109
68
50
33
42
55
93
118
136
128
