-206
-198
-185
-184
-195
-200
-204
-204
-197
-199
-203
-189
-198
-199
-200
-192
-194
-195
-199
-203
-210
-210
-207
-204
-197
-185
-191
-193
-189
-195
-197
-202
-199
-193
-202
-195
-196
-200
-204
-200
-198
-201
-192
-194
-190
-184
-201
-200
-199
-205
-189
-181
-202
-194
-196
-195
-190
-191
-195
-186
-197
-200
-193
-201
-196
-204
-210
-199
-197
-202
-207
-201
-182
-181
-187
-194
-198
-199
-188
-185
-187
-188
-180
-188
-184
-194
-196
-203
-213
-219
-224
-215
-199
-187
-185
-180
-182
-190
-195
-187
-179
-192
-200
-204
-209
-220
-210
-197
-194
-196
-187
-200
-194
-182
-190
-192
-193
-199
-199
-212
-205
-208
-220
-214
-208
-192
-196
-197
-191
-199
-199
-196
-209
-203
-204
-197
-200
-200
-189
-176
-169
-160
-143
-129
-112
-114
-127
-136
-141
-146
-161
-152
-146
-148
-170
-188
-195
-202
-196
-188
-187
-189
-181
-179
-189
-213
-205
-200
-190
-196
-196
-184
-185
-196
-187
-193
-196
-200
-195
-194
-204
-197
-184
-194
-190
-188
-195
-195
-189
-202
-194
-192
-199
-194
-189
-207
-210
-196
-194
-189
-194
-200
-196
-187
-177
-181
-193
-188
-187
-184
-187
-191
-193
-180
-182
-183
-178
-184
-175
-181
-184
-182
-181
-188
-180
-177
-178
-174
-172
-176
-177
-174
-170
-164
-162
-163
-165
-166
-160
-163
-161
-159
-151
-154
-156
-152
-150
-157
-156
-153
-146
-149
-141
-140
-130
-143
-144
-137
-143
-153
-155
-147
-144
-160
-163
-165
-167
-171
-172
-173
-172
-164
-168
-184
-179
-185
-196
-190
-192
-189
-179
-183
-186
-182
-179
-194
-192
-195
-191
-192
-193
-208
-192
-200
-209
-199
-189
-197
-189
-188
-183
-191
-197
-199
-198
-194
-186
-187
-188
-197
-210
-208
-201
-196
-204
-192
-180
-180
-188
-190
-194
-174
-186
-212
-214
-204
-193
-183
-179
-180
-189
-190
-194
-208
-212
-201
-195
-182
-181
-186
-184
-179
-175
-182
-186
-187
-188
-190
-184
-191
-195
-194
-184
-174
-175
-183
-188
-193
-185
-182
-205
-200
-189
-198
-180
-172
-186
-180
-180
-185
-190
-196
-201
-193
-189
-189
-181
-180
-191
-190
-185
-181
-191
-193
-195
-196
-182
-186
-195
-178
-178
-188
-188
-185
-192
-191
-184
-183
-201
-197
-182
-182
-184
-179
-191
-189
-184
-176
-176
-184
-193
-185
-191
-199
-195
-183
-173
-175
-171
-177
-182
-179
-173
-179
-192
-192
-186
-174
-176
-169
-175
-178
-183
-189
-171
-182
-183
-188
-199
-196
-195
-199
-191
-185
-183
-183
-177
-175
-173
-179
-192
-194
-191
-188
-187
-184
-185
-171
-171
-175
-189
-190
-194
-205
-196
-201
-194
-192
-177
-174
-184
-177
-173
-185
-186
-176
-188
-200
-199
-189
-174
-167
-160
-153
-144
-142
-130
-111
-106
-102
-101
-109
-120
-143
-145
-121
-110
-111
-138
-161
-181
-183
-181
-169
-180
-178
-178
-178
-177
-175
-175
-179
-174
-171
-177
-174
-181
-173
-183
-186
-175
-169
-164
-156
-171
-182
-182
-192
-181
-180
-164
-156
-159
-167
-169
-182
-179
-189
-182
-174
-176
-176
-169
-179
-185
-179
-181
-179
-177
-167
-156
-163
-170
-154
-160
-175
-174
-169
-173
-169
-148
-153
-151
-157
-172
-172
-176
-174
-169
-165
-162
-161
-169
-160
-148
-157
-168
-161
-148
-159
-158
-151
-154
-146
-143
-137
-137
-128
-128
-132
-131
-139
-142
-133
-128
-120
-115
-113
-121
-123
-116
-127
-133
-123
-112
-119
-138
-137
-141
-141
-140
-150
-153
-152
-152
-152
-156
-152
-153
-161
-159
-160
-160
-169
-167
-158
-167
-167
-174
-179
-168
-173
-165
-162
-167
-167
-172
-166
-160
-167
-174
-169
-158
-164
-177
-182
-182
-176
-179
-173
-168
-173
-170
-176
-162
-169
-172
-177
-174
-165
-164
-171
-181
-180
-174
-173
-170
-179
-172
-169
-167
-173
-176
-181
-184
-178
-171
-159
-163
-153
-166
-169
-160
-166
-157
-151
-155
-169
-160
-185
-194
-185
-178
-168
-159
-157
-157
-161
-159
-157
-156
-154
-160
-164
-164
-166
-168
-171
-171
-162
-163
-163
-173
-172
-169
-166
-160
-149
-160
-153
-161
-176
-164
-162
-170
-166
-162
-167
-158
-159
-156
-156
-160
-165
-159
-156
-158
-156
-146
-144
-142
-158
-178
-176
-169
-163
-150
-154
-147
-157
-163
-168
-168
-150
-158
-167
-180
-162
-157
-156
-138
-138
-146
-148
-152
-162
-158
-161
-160
-144
-149
-148
-143
-142
-142
-152
-144
-142
-154
-151
-155
-166
-165
-175
-162
-153
-159
-152
-148
-158
-152
-152
-170
-171
-165
-157
-155
-164
-164
-159
-167
-159
-157
-151
-156
-160
-151
-145
-145
-158
-159
-164
-166
-169
-160
-161
-157
-148
-154
-160
-154
-146
-151
-166
-159
-159
-154
-152
-144
-135
-123
-120
-125
-113
-92
-69
-79
-74
-82
-94
-100
-101
-90
-82
-86
-92
-116
-144
-140
-149
-148
-149
-147
-150
-145
-140
-136
-144
-157
-147
-154
-156
-154
-146
-149
-152
-140
-147
-150
-157
-155
-157
-157
-155
-154
-158
-152
-154
-148
-149
-149
-153
-153
-157
-143
-133
-132
-133
-147
-154
-151
-150
-142
-128
-136
-135
-142
-141
-154
-155
-149
-143
-127
-131
-133
-133
-149
-144
-141
-138
-135
-125
-126
-136
-138
-137
-142
-135
-125
-122
-130
-135
-141
-140
-131
-120
-118
-124
-125
-123
-113
-101
-100
-107
-111
-111
-105
-100
-90
-87
-84
-98
-93
-96
-94
-99
-94
-96
-104
-109
-108
-109
-107
-93
-96
-109
-107
-110
-118
-116
-119
-133
-129
-131
-127
-125
-122
-133
-127
-129
-130
-121
-130
-138
-148
-144
-141
-144
-146
-143
-135
-138
-139
-141
-144
-147
-145
-140
-142
-141
-135
-142
-150
-146
-154
-150
-141
-149
-152
-138
-135
-137
-127
-137
-152
-160
-158
-160
-152
-133
-127
-123
-132
-133
-134
-141
-142
-138
-137
-140
-129
-121
-129
-131
-143
-150
-150
-157
-158
-151
-147
-132
-130
-125
-131
-129
-136
-127
-137
-141
-147
-154
-142
-136
-128
-124
-130
-133
-124
-128
-137
-126
-123
-119
-117
-109
-112
-146
-128
-118
-116
-128
-143
-156
-141
-139
-126
-107
-117
-136
-135
-138
-143
-147
-147
-134
-133
-126
-127
-133
-137
-140
-144
-144
-135
-132
-129
-128
-133
-143
-133
-131
-121
-125
-136
-136
-144
-138
-126
-132
-141
-128
-129
-140
-139
-131
-133
-133
-135
-137
-124
-128
-121
-122
-122
-124
-136
-134
-130
-119
-115
-129
-128
-121
-123
-118
-134
-141
-130
-120
-122
-134
-140
-126
-114
-123
-132
-144
-144
-142
-142
-135
-134
-127
-132
-134
-133
-129
-128
-125
-133
-127
-132
-139
-136
-139
-138
-132
-126
-124
-127
-125
-137
-131
-132
-126
-118
-133
-141
-144
-143
-137
-128
-117
-128
-132
-128
-130
-135
-137
-135
-135
-133
-124
-121
-107
-79
-74
-59
-31
-10
-20
-52
-84
-88
-87
-70
-75
-67
-68
-98
-124
-124
-116
-118
-106
-103
-123
-131
-132
-139
-120
-128
-126
-118
-124
-128
-134
-136
-130
-131
-128
-130
-139
-130
-110
-113
-110
-127
-122
-120
-118
-124
-116
-124
-113
-109
-121
-133
-127
-112
-121
-127
-128
-122
-126
-117
-121
-123
-127
-128
-118
-121
-121
-125
-118
-106
-104
-112
-122
-115
-116
-121
-114
-113
-114
-108
-108
-107
-115
-113
-117
-116
-117
-120
-120
-111
-116
-107
-99
-88
-98
-91
-82
-75
-87
-86
-68
-79
-86
-80
-75
-81
-81
-80
-75
-79
-75
-68
-71
-69
-68
-68
-72
-68
-70
-78
-84
-82
-73
-71
-78
-104
-108
-107
-106
-102
-106
-105
-97
-102
-107
-107
-108
-105
-105
-120
-114
-109
-118
-107
-108
-108
-114
-110
-114
-124
-127
-128
-119
-127
-129
-125
-119
-108
-105
-110
-111
-121
-120
-120
-112
-122
-124
-125
-131
-124
-120
-101
-93
-95
-114
-134
-121
-121
-121
-107
-120
-136
-139
-131
-119
-122
-124
-109
-101
-109
-115
-119
-110
-122
-112
-104
-125
-113
-113
-106
-106
-119
-120
-104
-112
-110
-99
-105
-103
-100
-101
-98
-108
-128
-132
-120
-122
-114
-117
-113
-112
-104
-105
-108
-115
-113
-112
-111
-107
-108
-101
-106
-116
-113
-112
-105
-99
-93
-101
-102
-113
-118
-110
-114
-121
-119
-113
-107
-110
-125
-115
-99
-91
-104
-113
-117
-109
-109
-99
-103
-118
-107
-110
-114
-100
-112
-109
-105
-97
-97
-91
-83
-101
-118
-99
-97
-104
-107
-113
-105
-93
-99
-96
-100
-95
-88
-89
-97
-112
-115
-118
-112
-113
-114
-117
-105
-89
-91
-93
-95
-103
-102
-105
-108
-116
-105
-111
-116
-115
-122
-122
-106
-106
-110
-112
-105
-105
-109
-111
-109
-107
-105
-103
-99
-104
-108
-105
-95
-93
-102
-130
-136
-127
-111
-108
-92
-91
-75
-78
-84
-87
-89
-88
-81
-76
-55
-43
-32
-38
-47
-41
-62
-67
-50
-46
-37
-59
-76
-100
-112
-104
-93
-86
-99
-98
-93
-106
-106
-102
-105
-94
-92
-91
-96
-109
-111
-113
-92
-82
-83
-95
-101
-101
-96
-99
-97
-102
-101
-112
-103
-104
-104
-106
-94
-84
-92
-103
-106
-83
-87
-84
-91
-86
-95
-96
-96
-95
-101
-90
-90
-92
-96
-94
-93
-89
-90
-92
-90
-95
-94
-94
-112
-104
-81
-82
-91
-101
-86
-83
-88
-85
-82
-85
-77
-69
-70
-61
-71
-62
-62
-66
-68
-61
-55
-57
-46
-54
-54
-58
-46
-46
-49
-44
-52
-58
-53
-45
-51
-43
-30
-40
-45
-44
-55
-48
-57
-69
-62
-65
-68
-67
-63
-70
-69
-68
-91
-87
-91
-85
-83
-85
-88
-82
-84
-88
-84
-91
-90
-103
-106
-106
-100
-99
-100
-98
-100
-103
-102
-99
-85
-84
-97
-102
-108
-113
-111
-95
-95
-84
-78
-90
-95
-104
-101
-98
-92
-91
-100
-80
-104
-106
-99
-103
-113
-112
-102
-108
-104
-100
-95
-87
-78
-71
-85
-94
-95
-105
-107
-86
-104
-103
-103
-99
-107
-102
-91
-89
-88
-88
-80
-78
-87
-92
-98
-93
-95
-97
-82
-82
-80
-91
-99
-97
-105
-105
-101
-88
-85
-71
-59
-80
-79
-89
-103
-104
-97
-101
-115
-107
-98
-82
-81
-91
-92
-92
-95
-98
-92
-95
-90
-94
-87
-92
-91
-95
-100
-100
-95
-99
-85
-74
-63
-68
-90
-89
-95
-98
-91
-100
-105
-101
-91
-84
-82
-79
-78
-95
-84
-80
-84
-84
-95
-86
-88
-87
-85
-82
-81
-83
-79
-77
-87
-80
-83
-86
-83
-92
-90
-86
-89
-101
-102
-85
-83
-83
-87
-80
-96
-92
-91
-105
-92
-89
-92
-85
-79
-90
-91
-94
-86
-76
-78
-77
-73
-71
-86
-92
-98
-101
-104
-103
-97
-94
-87
-88
-83
-78
-84
-99
-96
-97
-95
-91
-88
-76
-62
-60
-54
-48
-37
-27
-19
-11
-11
-27
-33
-34
-36
-11
2
-29
-33
-52
-79
-93
-92
-88
-83
-79
-70
-77
-77
-74
-82
-93
-88
-88
-86
-83
-83
-87
-85
-75
-81
-85
-75
-72
-79
-80
-93
-98
-105
-89
-83
-86
-82
-73
-68
-62
-65
-70
-85
-95
-89
-86
-86
-96
-93
-96
-95
-87
-89
-83
-72
-68
-67
-74
-68
-74
-91
-95
-84
-74
-62
-68
-78
-72
-68
-69
-70
-65
-67
-62
-74
-84
-63
-56
-59
-55
-51
-66
-67
-73
-60
-68
-62
-62
-52
-48
-39
-33
-36
-27
-31
-31
-36
-36
-24
-39
-33
-32
-30
-22
-25
-29
-40
-39
-44
-40
-37
-47
-44
-34
-41
-50
-54
-61
-59
-52
-62
-73
-60
-58
-71
-79
-63
-68
-80
-84
-85
-68
-54
-73
-86
-83
-78
-78
-77
-80
-74
-76
-73
-87
-85
-91
-86
-74
-80
-77
-84
-77
-85
-87
-88
-90
-87
-83
-90
-81
-68
-69
-70
-74
-84
-75
-84
-87
-86
-89
-73
-65
-73
-57
-76
-78
-92
-90
-93
-90
-89
-82
-80
-73
-49
-66
-74
-56
-55
-91
-94
-86
-77
-82
-80
-82
-96
-91
-90
-85
-78
-64
-72
-73
-77
-74
-61
-76
-76
-87
-84
-84
-82
-84
-73
-72
-70
-64
-62
-72
-77
-73
-72
-67
-64
-62
-48
-48
-60
-86
-90
-91
-89
-79
-71
-63
-69
-85
-80
-78
-83
-78
-74
-75
-85
-83
-76
-78
-84
-85
-71
-72
-74
-66
-68
-80
-79
-66
-74
-89
-80
-67
-64
-59
-68
-73
-76
-77
-72
-76
-73
-77
-73
-80
-78
-81
-80
-75
-68
-70
-74
-64
-67
-68
-66
-68
-64
-72
-75
-71
-61
-66
-72
-64
-66
-66
-63
-65
-79
-85
-86
-88
-76
-66
-65
-69
-72
-64
-71
-72
-79
-71
-69
-73
-70
-100
-109
-89
-72
-62
-73
-72
-69
-79
-78
-80
-87
-83
-78
-72
-65
-59
-61
-64
-80
-76
-77
-84
-85
-74
-70
-65
-70
-69
-74
-81
-78
-62
-62
-51
-49
-35
-28
-25
-20
-3
17
15
11
-1
-12
-30
-14
-2
-8
-17
-35
-68
-88
-90
-82
-67
-57
-41
-51
-60
-59
-55
-61
-74
-72
-68
-54
-64
-84
-73
-58
-68
-80
-93
-74
-64
-57
-61
-65
-75
-70
-66
-64
-68
-56
-60
-57
-54
-73
-80
-78
-77
-64
-49
-70
-75
-65
-64
-75
-71
-68
-67
-58
-62
-56
-55
-54
-55
-48
-42
-29
-47
-55
-64
-68
-51
-56
-48
-53
-63
-58
-36
-45
-67
-59
-55
-55
-53
-52
-53
-49
-43
-37
-38
-27
-27
-27
-24
-18
-16
-9
-17
-17
-17
-7
-15
-16
-18
-20
-28
-23
-19
-13
-21
-28
-26
-18
-31
-44
-56
-49
-48
-42
-35
-35
-42
-48
-55
-58
-54
-55
-55
-56
-54
-50
-39
-47
-58
-73
-77
-69
-64
-70
-63
-60
-59
-57
-58
-57
-79
-77
-62
-65
-53
-72
-74
-62
-61
-71
-74
-75
-76
-79
-78
-59
-58
-70
-70
-68
-59
-48
-53
-56
-55
-59
-61
-66
-71
-68
-71
-81
-84
-68
-70
-72
-70
-61
-64
-74
-72
-67
-76
-74
-70
-76
-59
-55
-46
-49
-47
-38
-40
-74
-74
-75
-64
-72
-74
-68
-68
-68
-65
-69
-58
-56
-55
-60
-67
-58
-61
-57
-33
-25
-22
-55
-75
-78
-77
-83
-86
-79
-66
-59
-59
-55
-55
-62
-69
-74
-65
-51
-71
-70
-75
-71
-59
-54
-55
-48
-42
-33
-33
-47
-62
-62
-63
-68
-73
-82
-77
-58
-53
-60
-63
-67
-76
-66
-71
-64
-74
-57
-59
-51
-48
-49
-44
-46
-46
-65
-65
-66
-59
-59
-60
-52
-46
-50
-58
-65
-72
-71
-56
-48
-47
-49
-52
-48
-48
-48
-40
-35
-38
-42
-46
-64
-83
-80
-63
-66
-81
-77
-66
-64
-60
-57
-56
-57
-55
-68
-69
-63
-55
-56
-55
-48
-47
-45
-53
-40
-48
-63
-68
-58
-57
-60
-73
-68
-58
-65
-59
-41
-46
-55
-62
-74
-69
-73
-59
-44
-41
-35
-15
2
3
9
25
30
23
15
13
-4
-28
-16
2
23
26
3
-26
-46
-48
-56
-42
-41
-47
-37
-57
-43
-39
-49
-48
-48
-51
-50
-55
-63
-58
-50
-46
-50
-48
-36
-44
-53
-63
-69
-69
-63
-54
-44
-45
-50
-33
-28
-47
-57
-57
-58
-40
-46
-46
-56
-47
-48
-46
-46
-36
-35
-37
-43
-37
-31
-42
-36
-51
-48
-56
-65
-53
-50
-47
-35
-26
-26
-29
-36
-41
-54
-45
-33
-34
-47
-27
-17
-19
-20
-24
-16
-11
-8
-17
-16
-11
-18
-29
-29
-25
-8
-3
2
-5
-9
-8
-2
1
5
19
9
1
5
4
7
6
-7
-14
-6
2
-4
-11
-18
-19
-22
-14
-13
-31
-38
-34
-24
-28
-39
-54
-60
-46
-45
-43
-46
-42
-56
-58
-57
-50
-47
-38
-41
-56
-53
-44
-42
-50
-43
-38
-43
-54
-43
-33
-41
-50
-54
-47
-46
-45
-45
-41
-41
-51
-57
-58
-61
-61
-52
-43
-40
-34
-30
-35
-53
-55
-52
-54
-51
-49
-45
-35
-34
-37
-36
-39
-54
-59
-51
-46
-46
-51
-51
-41
-39
-41
-41
-38
-42
-39
-29
-32
-35
-34
-38
-50
-50
-49
-55
-49
-33
-43
-46
-46
-36
-35
-29
-19
-32
-26
-30
-42
-35
-27
-34
-41
-47
-54
-50
-50
-47
-33
-34
-33
-34
-30
-39
-38
-37
-32
-40
-32
-29
-31
-32
-38
-48
-35
-27
-22
-31
-37
-29
-17
-15
-25
-35
-39
-38
-24
-36
-40
-30
-31
-32
-32
-25
-21
-30
-40
-42
-40
-49
-57
-52
-45
-44
-47
-41
-39
-36
-20
-32
-38
-34
-37
-38
-30
-33
-47
-50
-50
-31
-35
-34
-27
-25
-23
-41
-50
-33
-37
-35
-39
-39
-35
-30
-37
-42
-40
-35
-39
-32
-19
-10
-14
4
21
35
43
46
36
32
23
4
4
13
22
31
28
-7
-27
-34
-36
-22
-31
-35
-33
-32
-23
-16
-24
-24
-17
-19
-25
-28
-36
-51
-57
-30
-10
-8
-19
-35
-30
-31
-34
-45
-40
-38
-36
-28
-16
0
-21
-31
-34
-29
-27
-37
-42
-30
-34
-23
-29
-42
-47
-36
-31
-25
-27
-23
-20
-30
-23
-30
-28
-11
-14
-19
-13
-10
-10
-15
-24
-29
-29
-27
-17
-26
-30
-36
-24
-17
-12
-1
9
12
6
1
1
-1
-6
-9
-8
0
-2
12
24
25
21
20
26
26
24
15
12
19
31
34
27
25
39
21
9
5
13
6
4
10
19
17
-8
-9
3
0
-8
-15
-23
-22
-27
-28
-29
-36
-28
-22
-21
-34
-44
-36
-27
-22
-30
-21
-17
-22
-34
-33
-34
-32
-36
-31
-28
-32
-29
-26
-26
-26
-27
-25
-31
-37
-43
-47
-44
-44
-40
-29
-21
-15
-17
-21
-31
-30
-32
-36
-42
-49
-45
-45
-46
-35
-15
-22
-21
-20
-25
-22
-33
-30
-23
-18
-17
-24
-35
-32
-35
-34
-26
-27
-32
-35
-27
-30
-29
-30
-27
-27
-23
-28
-31
-35
-27
-21
-21
-19
-17
-14
-18
-28
-31
-18
-28
-37
-32
-27
-31
-35
-25
-28
-27
-23
-30
-26
-23
-21
-25
-28
-35
-35
-28
-20
-21
-15
-3
-19
-22
-35
-36
-24
-25
-25
-17
-20
-19
-18
-17
-19
-13
-2
-18
-36
-29
-29
-27
-14
-18
-23
-18
-32
-37
-33
-28
-28
-30
-27
-30
-23
-20
-23
-26
-27
-34
-27
-27
-25
-19
-29
-27
-39
-52
-38
-30
-28
-22
-31
-26
-20
-33
-43
-42
-35
-29
-26
-32
-22
-23
-26
-29
-24
-13
-29
-35
-37
-38
-37
-22
-9
-21
-21
-19
-23
-12
16
15
43
61
66
49
37
38
20
17
38
42
50
43
26
-32
-39
-24
-10
-17
-28
-24
-28
-31
-42
-39
-37
-29
-35
-29
-23
-19
-18
-19
-18
-11
-14
-18
-12
-35
-27
-33
-27
-16
-23
-23
-26
-30
-16
-34
-35
-24
-27
-29
-25
-23
-23
-29
-28
-19
-19
-23
-33
-27
-32
-30
-22
-24
-24
-25
-29
-21
-17
-16
-19
-24
-19
-7
-12
-32
-23
-9
-19
-22
-13
-8
-13
-11
-6
-7
-12
-3
1
0
16
0
-1
-4
-3
-6
3
11
22
31
16
14
13
11
22
33
30
13
8
20
39
30
17
9
17
20
17
5
-6
14
12
0
-4
-5
-5
-1
-6
0
-18
-24
-28
-29
-25
-16
-12
-6
-13
-20
-25
-14
-11
-8
-6
-17
-24
-28
-27
-14
-22
-37
-32
-41
-38
-29
-31
-32
-25
-15
-30
-36
-32
-20
-33
-33
-21
-20
-24
-23
-31
-37
-30
-29
-33
-34
-20
-34
-33
-29
-28
-22
-31
-22
-18
-18
-28
-24
-26
-33
-31
-24
-25
-23
-20
-24
-27
-20
-15
-6
-24
-38
-35
-30
-25
-33
-30
-27
-10
-16
-18
-27
-24
-24
-24
-23
-33
-30
-26
-26
-33
-22
-21
-14
-12
-4
-14
-19
-13
-25
-23
-23
-31
-23
-16
-19
-16
-16
-25
-24
-25
-35
-25
-28
-19
-21
-30
-33
-29
-21
-16
-19
-21
-28
-33
-23
-20
-33
-20
-13
-20
-19
-13
-7
9
-8
-14
-12
-6
-10
-21
-14
-13
-16
-25
-11
-5
-9
-24
-26
-23
-28
-25
-17
-17
-18
-16
-17
-12
-18
-15
-27
-22
-12
-23
-38
-39
-27
-16
-19
-25
-38
-39
-9
-8
-20
-26
-19
-13
-14
-24
-22
-17
-24
-25
-15
-18
-23
-22
-22
-18
-18
-26
-26
-20
-17
-19
-26
-16
-2
6
15
18
22
31
41
45
62
64
53
44
40
33
40
28
27
37
22
0
7
-3
-2
-2
-12
-14
-15
-28
-34
-36
-21
-30
-9
12
-4
-9
-18
-27
-20
-22
-12
2
-1
-8
-17
-24
-40
-31
-17
-24
-18
-25
-30
-24
-22
-8
-10
-17
-10
-9
-5
-9
-8
-7
-11
-20
-7
-16
-23
-17
-18
-16
-17
-16
-22
-5
-15
-25
-30
-28
-10
-7
1
-3
-13
-10
-7
-7
-9
-9
-5
7
6
-1
-5
-5
-7
8
10
15
20
26
24
15
11
9
5
16
22
33
30
29
35
28
25
19
24
24
21
19
28
23
18
18
17
20
29
25
25
24
26
21
8
1
4
-3
-11
-27
-23
-5
1
-7
-7
-20
-14
-3
-8
-5
-21
-23
-32
-19
-19
-35
-21
-17
-13
-19
-19
-15
-28
-25
-21
-33
-42
-34
-19
-8
-9
-14
-14
-3
-10
-24
-24
-25
-37
-26
-23
-28
-21
-13
-8
-6
-13
-24
-25
-31
-23
-15
-21
-22
-21
-19
-25
-17
-16
-21
-19
-18
-23
-30
-28
-23
-17
-14
-28
-21
-14
-10
-6
-12
-9
-10
-10
-9
-4
-11
-26
-29
-13
-7
-19
-8
-4
-8
-6
-4
-3
-7
-8
-10
-17
-19
-3
-9
-12
-7
-21
-30
-23
-10
1
3
-6
-7
-16
-5
9
7
-3
6
0
-11
-8
-14
-11
-13
-17
-19
-15
-14
-8
-18
-18
-21
-25
-25
-25
-25
-25
-17
-19
-26
-26
-17
-12
-22
-21
-19
-15
-15
-17
-12
-8
-9
-8
-15
-17
-9
-13
-23
-7
-1
-12
-13
-20
-20
-22
-12
-15
-11
-4
5
7
12
46
62
67
70
54
36
31
19
19
40
37
27
6
-9
-10
-6
5
-6
-7
-7
-12
-5
-11
-3
-15
-7
-10
-15
-10
-17
-13
-12
-5
-11
-22
-20
-22
-15
-12
-12
1
1
3
-5
-5
1
-10
-13
-24
-21
-18
-5
-4
-1
6
5
1
-3
-24
-19
-12
-7
-16
-18
-16
-16
-10
-16
-13
-3
6
6
12
5
1
-12
-13
-1
-4
-6
2
12
7
-6
0
6
9
9
24
27
18
18
15
20
33
25
17
16
18
13
19
35
39
50
40
34
35
38
40
52
43
43
43
37
42
35
32
30
28
29
36
34
29
12
6
11
6
-4
10
10
10
9
1
-5
-11
-12
-15
-7
-3
-14
-10
-24
-20
-20
-12
-18
-13
-8
0
0
-9
-9
-13
-11
-12
-6
-10
-13
2
2
-24
-31
-13
-18
-23
-11
-17
-20
-26
-27
-28
-31
-25
-14
-25
-18
-12
-4
-2
-2
-13
-18
-20
-24
-23
-20
-24
-22
-10
-6
-12
-19
-13
-12
-14
-17
-6
-2
0
6
15
14
0
-19
-19
-24
-22
-22
-13
-21
-18
-7
-6
-8
-10
-11
0
-18
-19
-15
-18
-10
-3
16
6
-12
-23
-45
-31
-17
-14
-12
4
12
15
7
-5
-9
-17
-18
-26
-38
-27
-22
-13
-16
-5
9
12
5
-5
-11
-12
-13
5
14
4
5
1
-3
3
-7
-13
-14
-19
-8
-3
-12
-8
-2
-5
-8
-13
-9
-22
-16
-4
-4
0
-25
-11
-10
-2
3
-19
-17
-13
-26
-33
-8
0
-3
-6
-2
-1
-7
-21
-26
-23
-15
-18
-7
-7
-2
-1
-12
-8
-2
0
-6
-3
-3
-5
-1
0
-1
-12
9
14
31
35
38
43
60
64
61
61
64
50
39
51
52
47
40
38
16
-4
-13
-5
-3
5
21
4
-2
0
-4
-12
-17
-15
-9
-9
-1
-2
-6
-13
-13
-5
-1
1
8
7
-3
-10
-16
-2
0
1
13
2
-3
-19
-16
-18
-6
5
-7
-4
5
1
0
10
4
2
2
9
0
-3
2
8
5
-3
-5
5
8
1
3
7
9
14
9
6
15
11
-1
-4
5
7
2
-5
6
7
17
37
33
24
18
13
34
33
37
38
30
34
22
17
31
45
44
49
46
33
31
37
39
52
50
41
35
43
59
51
35
46
49
37
35
36
22
16
24
27
20
2
2
-2
3
9
6
1
6
-11
-11
-8
-11
12
11
-5
7
-4
-5
-9
4
-1
-6
1
0
3
8
-4
-2
-12
-20
-2
-11
-7
-9
-16
-13
-10
-16
-17
-26
5
13
14
4
-6
-11
-15
-34
-46
-35
-12
14
7
13
-1
-4
-11
-15
-16
-9
-6
-19
-15
-5
5
1
0
-12
2
0
2
-2
-6
-9
-12
-13
-1
4
9
-1
-10
1
5
8
-6
-8
-6
-19
-19
-1
7
6
0
-3
-10
-11
-13
8
-5
3
-1
7
11
8
0
-3
-4
-11
-5
1
2
5
-4
2
-1
7
5
-3
-5
-1
2
2
-3
16
14
11
3
-6
0
12
13
2
-6
-12
0
6
12
-2
0
-6
-17
-25
-22
-3
-1
4
5
-2
-1
8
-10
-39
-26
-6
8
5
-8
-12
-12
1
6
2
-1
5
-21
-18
-8
-9
-6
-7
-14
-15
-3
2
0
2
-12
-4
11
17
9
0
-5
3
30
28
28
34
47
56
66
68
77
80
48
27
52
58
72
71
58
29
0
-7
-5
5
12
-4
-5
-5
-10
-15
0
15
10
0
0
-3
-4
2
0
6
16
8
-6
-11
-14
-1
-2
3
6
5
5
0
10
-3
-7
0
-7
0
13
-1
-2
4
1
-3
-7
0
-5
-1
-3
2
9
1
-10
-9
-7
10
18
12
15
3
-2
15
8
14
34
27
14
11
13
6
1
3
9
20
16
7
22
30
29
21
17
14
10
23
39
29
31
31
17
34
43
52
54
50
50
39
44
49
42
47
37
41
44
43
40
37
44
54
69
63
49
29
12
1
14
3
5
3
-3
-9
-4
-1
-3
-6
3
14
12
16
8
-4
4
-8
-3
-3
-2
5
0
5
-2
-4
-12
6
6
-8
-4
-12
3
7
-1
1
-5
-6
-3
-9
-10
11
0
-8
-13
9
-4
-10
-2
-12
-18
-6
-8
-1
-2
-1
6
0
-3
-1
-17
-6
-13
-20
-2
13
2
6
12
4
0
6
-4
-7
-3
-8
-11
-10
1
10
18
11
14
10
-2
-16
-18
-3
-10
-5
10
18
-6
-7
-4
8
7
3
1
-3
3
1
13
13
5
3
-4
-12
2
4
3
18
19
20
10
-1
-4
-1
3
2
8
13
14
17
17
11
12
6
10
10
-1
-5
-9
-1
-16
-5
-3
2
0
4
6
9
11
5
-20
-23
-10
-1
1
12
8
0
-3
-12
-9
-4
-13
-9
-5
-6
8
19
10
3
2
2
4
-4
-4
-8
-11
0
-4
3
10
22
14
3
2
12
12
29
42
47
70
85
82
79
73
65
45
42
58
73
68
71
56
11
0
10
9
5
13
18
17
6
5
-8
-10
-1
-4
0
18
8
5
-2
5
9
-5
1
5
-2
3
-3
-3
-5
11
12
2
5
5
11
6
10
14
4
-11
-6
4
-1
-16
-15
-9
2
13
18
9
12
23
20
23
6
18
14
8
-1
-14
-12
1
10
20
24
21
18
18
11
21
25
22
23
24
15
16
13
24
32
23
23
30
30
32
25
21
41
43
52
52
41
50
49
61
51
48
52
55
56
60
53
57
45
35
40
44
31
42
28
33
36
33
26
37
35
33
21
5
10
1
18
9
4
-3
8
4
-2
-9
-10
2
-1
11
-2
-13
7
2
10
0
-9
2
16
11
3
-1
7
-3
-9
5
5
6
11
5
-8
-1
-4
-22
-17
-11
3
1
8
17
9
0
-1
-12
-12
-2
-1
-12
-14
-11
8
14
22
18
20
16
4
-16
-15
-16
-5
6
7
11
23
18
13
-4
-4
-10
1
-9
-7
-3
-6
-1
7
15
11
6
4
-4
7
-7
-4
9
5
2
13
9
9
12
9
7
18
17
6
7
0
-14
-9
-6
0
7
8
9
14
15
2
9
-2
1
18
25
15
8
15
13
12
15
5
8
4
-13
-6
-3
8
25
22
26
9
-12
-16
-4
3
-7
-3
-6
6
5
10
2
3
3
-5
-17
-18
-3
6
7
7
-4
7
10
7
1
3
2
-14
-9
-4
-11
-7
7
6
1
-8
-10
-3
-7
-19
-3
8
9
19
29
37
57
59
71
82
101
81
77
60
29
58
82
81
75
43
10
2
-18
-19
-6
-5
-4
0
9
20
12
-1
-5
-7
-12
10
12
12
8
-6
-4
0
-4
1
12
12
8
-1
-8
6
7
1
4
9
3
-8
-18
-14
-1
3
3
3
-6
6
7
3
4
8
8
4
0
2
12
6
-6
-12
12
18
4
6
5
8
0
5
6
16
7
8
-5
-14
1
10
19
29
37
39
35
24
20
6
-2
22
28
22
26
40
49
43
50
48
38
26
30
32
35
54
45
42
46
51
51
40
42
37
28
29
31
29
37
47
27
29
22
24
21
2
-12
-3
4
5
9
0
0
-10
-11
-1
-6
-5
-7
-13
-24
-22
-19
-10
-11
-9
-12
-9
-10
-9
-12
-18
-22
1
3
-4
-15
-20
-9
-5
-3
-7
-14
-14
-6
-25
-33
-30
-33
-19
-15
-7
-18
-15
-12
-8
-23
-31
-19
-19
-25
-26
-24
-20
-13
-10
-16
-23
-12
-10
-7
-23
-10
-5
0
8
1
-9
-11
-19
-28
-16
-24
-26
-7
-12
-27
-17
-19
-9
-12
-18
-10
-3
16
5
-8
-3
1
-3
-14
-14
-10
-19
-18
-21
-23
-14
-12
-19
-19
-11
-5
-10
0
5
-14
-20
-28
-28
-27
-23
-29
-26
-28
-34
-29
-25
-19
-23
-37
-18
-11
-30
-33
-35
-30
-38
-36
-37
-32
-33
-34
-21
-15
-21
-39
-33
-38
-26
-25
-40
-41
-32
-30
-30
-16
-22
-33
-37
-32
-21
-20
-10
10
33
43
55
53
41
38
19
6
16
18
10
16
-2
-27
-42
-50
-45
-37
-36
-43
-29
-25
-26
-31
-21
-31
-31
-22
-39
-39
-45
-43
-41
-51
-54
-42
-32
-26
-32
-35
-37
-41
-46
-46
-35
-36
-38
-26
-32
-47
-53
-41
-39
-47
-58
-43
-51
-45
-39
-29
-31
-35
-37
-44
-34
-46
-48
-41
-32
-36
-46
-39
-48
-40
-35
-51
-46
-41
-36
-35
-34
-29
-26
-24
-30
-30
-37
-34
-23
-28
-23
-19
-25
-27
-24
-25
-27
-17
-8
-11
-9
3
0
-7
-7
-7
-9
-11
-10
-9
-4
1
2
-4
-7
1
-3
-6
-13
-23
-27
-26
-17
-28
-30
-23
-18
-27
-35
-46
-58
-47
-44
-54
-52
-51
-53
-60
-53
-61
-60
-65
-59
-59
-63
-53
-65
-74
-59
-54
-51
-59
-63
-73
-65
-59
-67
-61
-61
-57
-58
-53
-67
-79
-79
-72
-78
-77
-63
-46
-53
-54
-58
-57
-62
-68
-61
-58
-62
-61
-46
-47
-78
-80
-81
-83
-70
-63
-58
-47
-59
-65
-68
-62
-61
-66
-59
-64
-68
-68
-64
-61
-57
-49
-54
-69
-61
-56
-60
-77
-84
-79
-50
-57
-58
-48
-34
-32
-45
-61
-74
-82
-76
-70
-59
-50
-47
-58
-60
-66
-63
-66
-57
-57
-69
-71
-64
-61
-50
-44
-46
-27
-40
-58
-74
-66
-57
-56
-59
-58
-52
-52
-50
-43
-40
-51
-70
-76
-81
-74
-74
-68
-62
-60
-53
-53
-56
-67
-76
-75
-69
-64
-55
-50
-58
-61
-56
-61
-61
-59
-73
-65
-61
-67
-68
-61
-58
-61
-58
-54
-74
-72
-73
-74
-69
-73
-74
-71
-65
-57
-53
-55
-57
-67
-70
-53
-51
-35
-16
-8
3
7
10
17
13
18
9
-12
-17
4
16
12
19
4
-35
-45
-52
-61
-59
-56
-59
-61
-62
-60
-57
-53
-59
-64
-54
-47
-38
-41
-49
-59
-56
-53
-75
-69
-66
-67
-62
-47
-31
-39
-51
-62
-79
-60
-49
-52
-48
-56
-63
-50
-57
-62
-59
-44
-43
-47
-55
-58
-44
-38
-38
-32
-43
-55
-53
-69
-62
-54
-51
-42
-35
-44
-54
-47
-56
-51
-50
-56
-46
-43
-41
-38
-39
-54
-51
-35
-32
-32
-23
-26
-33
-18
-19
-15
-14
-15
-18
-9
2
-5
-11
-10
-15
-19
-3
-3
-16
-13
-4
-9
0
14
-1
-11
-15
-18
-28
-25
-20
-23
-15
-3
-2
-18
-24
-27
-35
-22
-23
-39
-33
-37
-46
-53
-57
-57
-53
-48
-53
-47
-46
-41
-45
-44
-45
-41
-38
-31
-34
-48
-61
-53
-53
-52
-50
-38
-38
-50
-42
-49
-49
-51
-48
-50
-55
-50
-45
-41
-35
-33
-37
-47
-51
-45
-47
-42
-45
-52
-45
-37
-32
-36
-37
-38
-39
-34
-36
-39
-37
-33
-27
-35
-47
-44
-39
-45
-47
-44
-46
-46
-50
-38
-33
-41
-34
-38
-39
-42
-38
-28
-25
-17
-25
-32
-32
-34
-40
-43
-41
-24
-28
-32
-27
-34
-39
-30
-14
-7
1
4
-5
-10
-15
-32
-33
-34
-26
-29
-29
-28
-28
-31
-27
-8
2
-2
-13
-17
-36
-37
-41
-42
-35
-34
-35
-30
-24
-25
-25
-23
-15
-18
-33
-41
-31
-13
-18
-20
-25
-27
-30
-31
-28
-36
-40
-25
-18
-25
-21
-22
-16
-18
-20
-17
-22
-22
-14
-13
-24
-17
-16
-21
-15
-19
-26
-20
-17
-19
-1
-3
10
25
24
37
51
67
72
58
44
38
30
50
50
58
54
35
2
-10
-4
-3
-3
-14
-13
-16
-15
-21
-22
-14
-17
-25
-13
-17
-13
-2
-14
-22
-27
-21
-16
-11
-4
2
-3
-15
-6
-5
-8
-14
-12
-9
-10
-9
2
-12
-5
-5
1
-5
-19
-11
-4
-10
-15
-8
-9
6
1
-13
-16
-16
-9
-16
5
9
6
5
-7
-12
-16
-13
2
8
-2
-1
14
7
7
14
20
26
22
12
4
-12
-6
-1
13
33
35
57
56
35
20
30
45
43
34
30
28
34
42
38
41
40
34
31
31
45
48
42
32
42
36
29
35
28
26
31
30
3
-2
1
-2
-5
4
8
9
11
9
3
1
-2
-4
1
-6
-6
-9
-11
-17
-19
-10
-13
-13
3
11
6
3
-2
-6
-6
-11
-6
-3
-8
-13
-15
-13
-4
-3
4
8
-5
4
-6
-18
-5
5
-8
-16
-18
-12
-15
-15
-6
10
0
-9
-12
3
-2
-7
1
0
13
-3
-14
-5
1
-13
-10
-4
-2
1
2
-11
3
-4
-10
-10
8
3
-16
-11
-1
-3
-7
2
0
3
8
17
8
12
14
3
-7
-9
-2
-1
7
18
14
6
15
12
11
6
14
17
2
-1
9
7
3
14
10
1
10
2
-7
-11
0
19
20
11
10
7
4
1
-9
-8
-16
-20
-10
-12
2
8
11
12
3
4
-3
-11
-4
-2
-7
-2
0
-12
-6
2
-1
4
9
9
8
20
20
15
-2
-13
-14
-15
-5
-2
-9
-17
-16
-1
7
14
22
46
61
82
98
89
77
66
49
38
50
52
59
52
33
-2
-1
2
2
10
19
17
16
17
-7
-16
-11
-1
-5
-5
-2
0
9
2
10
8
11
3
-2
-10
-2
-8
-6
-1
3
4
8
12
15
8
14
7
-12
-12
-1
5
2
4
13
4
-5
4
5
-8
-18
-4
4
24
28
37
9
5
7
-2
-2
-1
9
2
4
8
17
22
16
6
-1
6
4
10
11
-2
1
7
19
33
32
34
25
26
34
31
29
32
30
34
29
31
38
48
48
42
40
53
58
59
64
59
55
38
29
16
24
23
34
40
22
17
20
21
16
6
0
10
-3
0
2
4
5
4
-6
-5
-9
-1
-1
2
-1
-4
-1
-5
-7
-15
-14
-30
-11
-1
-2
8
4
-2
-13
-19
-26
-22
-13
-11
-7
-6
0
-7
-8
-17
-22
-18
-21
-8
4
5
-18
-11
-6
-3
-20
-19
-22
-19
-26
-23
-16
-16
-12
-8
5
-9
-12
-9
-10
-14
-22
-26
-22
-16
-4
-4
-7
-13
-11
-8
-7
-9
-3
-11
-20
0
-12
-16
-9
-13
-8
-3
-15
-23
-24
-21
-12
-4
1
-4
-10
-10
-15
-27
-30
-26
-20
-11
1
-7
-16
-4
-8
-7
-7
-15
-7
-9
-7
-14
-7
-12
-19
-19
-9
-4
-3
-4
2
1
1
2
-8
-14
-13
-14
-24
-26
-26
-21
-22
-11
-10
-11
-4
-8
-18
-33
-28
-35
-30
-24
-12
-14
-11
-13
-17
-22
-24
-19
-15
-20
-35
-37
-34
-24
-20
-14
-18
-11
-16
-22
-33
-34
-24
-16
-16
-17
-27
-21
-18
-21
-34
-29
-22
-18
-17
3
9
7
9
29
40
52
53
71
61
47
34
16
36
44
48
49
23
-14
-19
-12
-13
-22
-22
-19
-17
-18
-25
-32
-25
-21
-34
-29
-19
-27
-28
-17
-12
-21
-15
-25
-34
-26
-19
-17
-32
-33
-29
-31
-28
-24
-21
-23
-15
-8
-29
-31
-34
-42
-22
-11
-19
-8
-7
-23
-23
-27
-27
-28
-28
-29
-34
-27
-26
-28
-24
-21
-30
-33
-24
-25
-34
-26
-14
-14
-20
-35
-31
-36
-14
-2
-9
-6
-8
-10
-15
-18
-22
-21
-5
4
12
1
-5
-5
3
-4
5
14
6
0
-2
1
-5
4
15
11
9
14
11
20
-7
-2
11
-3
7
13
-4
-12
-10
-17
-14
-14
-18
-25
-28
-24
-30
-27
-23
-28
-31
-31
-31
-32
-33
-35
-52
-44
-49
-38
-40
-47
-40
-38
-36
-34
-43
-43
-54
-43
-35
-27
-29
-27
-30
-37
-52
-57
-58
-55
-47
-46
-52
-42
-45
-44
-32
-28
-36
-41
-48
-56
-56
-53
-63
-55
-46
-39
-27
-31
-33
-36
-31
-42
-52
-58
-59
-57
-53
-44
-39
-57
-59
-62
-57
-37
-28
-30
-43
-41
-41
-45
-36
-45
-53
-51
-43
-44
-51
-46
-34
-37
-43
-46
-41
-60
-54
-52
-52
-47
-43
-40
-43
-43
-38
-35
-33
-44
-52
-60
-53
-57
-68
-62
-51
-53
-48
-31
-34
-32
-42
-40
-31
-30
-40
-36
-42
-43
-50
-52
-50
-47
-46
-50
-50
-39
-46
-55
-53
-64
-61
-57
-49
-40
-38
-51
-52
-55
-58
-66
-66
-60
-51
-50
-53
-68
-47
-50
-52
-67
-75
-65
-54
-44
-44
-47
-51
-59
-67
-63
-68
-58
-59
-54
-48
-53
-59
-60
-56
-60
-63
-59
-64
-74
-56
-46
-49
-45
-39
-41
-39
-28
-17
-13
-3
21
29
31
26
11
-24
-22
-7
11
19
8
-17
-38
-47
-60
-62
-57
-54
-58
-62
-71
-66
-57
-56
-56
-47
-53
-55
-63
-72
-68
-65
-56
-59
-55
-53
-73
-75
-69
-67
-65
-62
-56
-58
-68
-59
-57
-66
-52
-36
-46
-60
-54
-58
-53
-64
-66
-67
-72
-64
-50
-50
-55
-57
-53
-55
-64
-71
-53
-44
-48
-46
-43
-55
-65
-68
-64
-61
-58
-63
-63
-59
-41
-38
-47
-39
-39
-43
-40
-39
-46
-54
-46
-39
-34
-30
-22
-24
-30
-31
-31
-33
-28
-24
-18
-29
-28
-8
-6
-6
-19
-31
-29
-15
-26
-43
-14
-20
-30
-21
-24
-42
-48
-45
-37
-56
-39
-35
-53
-67
-68
-77
-74
-71
-70
-61
-45
-56
-50
-62
-55
-62
-86
-83
-73
-86
-83
-77
-76
-75
-64
-71
-74
-59
-61
-61
-70
-82
-70
-73
-78
-69
-78
-74
-74
-90
-84
-85
-90
-86
-81
-68
-62
-56
-68
-68
-65
-68
-68
-93
-91
-75
-74
-80
-84
-89
-81
-69
-66
-70
-70
-72
-85
-86
-83
-68
-74
-90
-92
-76
-68
-68
-74
-78
-84
-86
-85
-68
-58
-70
-79
-81
-81
-85
-85
-87
-84
-64
-68
-75
-82
-71
-66
-73
-71
-66
-72
-70
-84
-73
-68
-78
-73
-68
-81
-85
-87
-77
-74
-71
-72
-70
-67
-66
-79
-88
-87
-78
-77
-75
-76
-86
-90
-83
-77
-80
-83
-76
-63
-56
-55
-67
-68
-69
-71
-65
-65
-74
-85
-72
-69
-77
-73
-81
-91
-87
-81
-76
-82
-75
-82
-84
-86
-88
-84
-75
-76
-81
-71
-70
-75
-69
-62
-70
-67
-66
-78
-99
-104
-100
-97
-80
-72
-82
-81
-81
-89
-105
-106
-94
-85
-81
-79
-76
-74
-69
-68
-68
-73
-79
-84
-81
-77
-88
-93
-86
-78
-62
-60
-43
-41
-33
-17
9
12
12
-2
-25
-40
-49
-25
-21
-12
-12
-42
-83
-94
-84
-80
-75
-69
-67
-75
-71
-76
-70
-71
-84
-84
-82
-92
-69
-67
-65
-66
-80
-89
-101
-101
-108
-105
-86
-70
-69
-67
-76
-74
-79
-78
-65
-92
-99
-110
-94
-74
-73
-65
-68
-77
-86
-93
-93
-85
-82
-72
-62
-69
-88
-85
-83
-76
-68
-65
-59
-58
-73
-71
-73
-77
-82
-83
-89
-83
-82
-90
-85
-72
-70
-61
-62
-69
-66
-63
-64
-67
-67
-75
-76
-60
-56
-60
-58
-55
-36
-13
-19
-34
-53
-57
-50
-51
-36
-36
-29
-34
-42
-44
-47
-54
-39
-30
-35
-34
-45
-68
-73
-74
-76
-76
-77
-72
-63
-63
-65
-65
-81
-83
-84
-85
-77
-76
-83
-89
-96
-87
-88
-81
-69
-79
-100
-105
-92
-97
-102
-100
-88
-84
-82
-88
-97
-88
-81
-107
-97
-96
-97
-102
-95
-86
-78
-79
-92
-86
-88
-92
-91
-87
-89
-96
-89
-86
-89
-90
-88
-89
-105
-98
-99
-95
-90
-93
-90
-94
-86
-97
-92
-91
-92
-87
-99
-89
-85
-98
-96
-79
-79
-86
-93
-98
-95
-83
-84
-80
-90
-94
-93
-95
-85
-86
-91
-89
-83
-81
-81
-82
-93
-85
-93
-85
-93
-92
-96
-91
-86
-100
-101
-88
-89
-92
-82
-87
-101
-97
-94
-80
-77
-77
-71
-74
-71
-65
-78
-78
-79
-79
-78
-86
-84
-78
-88
-88
-86
-88
-81
-75
-77
-92
-89
-90
-80
-78
-82
-102
-102
-100
-99
-95
-104
-107
-92
-68
-65
-66
-64
-85
-99
-90
-79
-87
-82
-86
-95
-103
-109
-105
-106
-97
-85
-82
-85
-90
-94
-91
-82
-89
-93
-91
-96
-97
-87
-98
-105
-97
-93
-89
-94
-91
-77
-60
-86
-89
-55
-36
-35
-32
-9
-15
-31
-37
-43
-50
-29
-36
-37
-40
-47
-83
-89
-83
-85
-82
-81
-73
-77
-88
-99
-104
-100
-94
-87
-87
-84
-82
-93
-91
-83
-72
-72
-91
-90
-81
-84
-100
-101
-96
-79
-85
-84
-85
-70
-84
-98
-100
-96
-97
-88
-88
-78
-69
-67
-76
-83
-89
-88
-92
-95
-101
-101
-91
-84
-81
-68
-70
-83
-79
-79
-83
-95
-84
-80
-74
-63
-74
-78
-75
-70
-77
-75
-77
-83
-85
-90
-74
-60
-58
-34
-47
-53
-54
-54
-60
-44
-37
-54
-54
-48
-41
-45
-48
-48
-36
-41
-34
-42
-47
-43
-42
-32
-28
-51
-60
-60
-57
-52
-47
-43
-44
-55
-58
-63
-67
-77
-64
-72
-87
-82
-86
-83
-76
-75
-63
-64
-86
-110
-113
-98
-95
-93
-87
-82
-94
-91
-86
-95
-94
-92
-97
-92
-84
-78
-90
-87
-70
-82
-89
-99
-106
-103
-87
-87
-87
-92
-100
-109
-106
-107
-102
-87
-91
-88
-91
-91
-83
-96
-94
-93
-90
-94
-94
-86
-77
-71
-84
-86
-80
-99
-96
-95
-97
-93
-81
-85
-86
-84
-90
-92
-94
-90
-87
-95
-107
-89
-81
-85
-82
-82
-73
-82
-96
-104
-115
-92
-85
-81
-73
-73
-70
-75
-88
-96
-97
-96
-91
-91
-93
-101
-98
-79
-79
-85
-83
-87
-87
-88
-94
-99
-84
-76
-66
-68
-58
-68
-92
-118
-110
-91
-98
-80
-72
-80
-77
-65
-83
-76
-68
-79
-80
-68
-92
-104
-99
-95
-93
-79
-73
-69
-65
-78
-74
-85
-95
-90
-91
-95
-94
-98
-84
-75
-70
-76
-80
-99
-103
-84
-89
-76
-83
-89
-85
-78
-81
-79
-82
-93
-94
-102
-101
-88
-92
-93
-87
-93
-97
-104
-108
-90
-81
-83
-83
-90
-85
-76
-79
-74
-77
-86
-94
-97
-92
-87
-81
-62
-67
-44
-37
-17
-3
5
-4
-10
-20
-34
-50
-40
-34
-35
-24
-32
-56
-76
-78
-72
-75
-76
-97
-93
-87
-86
-82
-75
-79
-73
-83
-96
-98
-92
-87
-84
-91
-89
-91
-90
-86
-88
-84
-93
-88
-82
-75
-81
-73
-86
-84
-77
-76
-77
-88
-88
-92
-86
-82
-85
-82
-77
-83
-73
-76
-68
-76
-77
-76
-86
-77
-71
-72
-73
-81
-78
-82
-93
-87
-93
-88
-68
-62
-68
-79
-77
-70
-60
-61
-68
-75
-77
-71
-67
-68
-59
-55
-57
-60
-46
-53
-48
-42
-49
-41
-44
-37
-26
-22
-20
-35
-38
-36
-36
-35
-29
-34
-43
-42
-38
-39
-33
-36
-54
-47
-44
-44
-45
-53
-60
-49
-55
-61
-65
-70
-64
-63
-73
-75
-82
-88
-78
-68
-65
-75
-77
-80
-75
-63
-77
-81
-76
-78
-82
-82
-79
-78
-75
-79
-87
-88
-91
-84
-83
-83
-84
-81
-78
-90
-85
-80
-84
-91
-85
-78
-74
-78
-88
-86
-85
-86
-85
-79
-83
-77
-65
-51
-74
-86
-80
-77
-86
-87
-89
-88
-89
-83
-81
-66
-74
-80
-83
-84
-84
-80
-87
-83
-75
-67
-69
-60
-56
-63
-70
-94
-85
-88
-80
-69
-84
-78
-84
-70
-59
-57
-70
-72
-80
-75
-87
-83
-70
-54
-57
-65
-77
-96
-105
-85
-83
-85
-77
-65
-54
-48
-59
-64
-79
-96
-80
-75
-58
-67
-66
-72
-88
-82
-67
-71
-67
-63
-51
-60
-62
-56
-55
-57
-55
-68
-77
-71
-75
-74
-63
-62
-58
-61
-69
-73
-63
-70
-67
-65
-81
-73
-74
-68
-75
-73
-68
-57
-57
-82
-85
-80
-74
-70
-57
-59
-64
-65
-79
-80
-75
-73
-72
-72
-61
-63
-66
-64
-71
-68
-66
-62
-74
-68
-69
-70
-70
-78
-71
-62
-59
-63
-72
-82
-72
-68
-64
-73
-55
-49
-44
-33
-20
-10
2
8
12
10
-6
-23
-40
-20
3
8
2
-14
-45
-60
-52
-50
-68
-65
-66
-67
-61
-61
-62
-69
-73
-68
-61
-55
-61
-58
-65
-73
-69
-80
-85
-76
-76
-64
-73
-67
-59
-49
-47
-56
-70
-75
-79
-79
-68
-65
-53
-51
-44
-58
-60
-63
-57
-61
-72
-81
-74
-67
-66
-60
-53
-52
-51
-57
-68
-63
-63
-61
-58
-60
-61
-68
-72
-67
-59
-54
-50
-58
-59
-49
-52
-47
-39
-36
-40
-35
-46
-50
-60
-61
-49
-44
-33
-27
-21
-27
-27
-19
-24
-24
-26
-23
-13
-13
-13
-13
-10
-25
-30
-37
-41
-36
-24
-15
-28
-28
-24
-25
-23
-25
-42
-37
-30
-46
-44
-50
-52
-51
-54
-65
-54
-47
-53
-60
-52
-55
-71
-73
-69
-62
-61
-62
-55
-49
-61
-61
-54
-50
-51
-60
-69
-67
-77
-74
-67
-55
-66
-65
-62
-64
-69
-72
-66
-65
-67
-65
-68
-73
-69
-59
-57
-60
-72
-74
-65
-54
-49
-57
-57
-54
-45
-58
-57
-55
-70
-73
-70
-77
-76
-61
-53
-49
-47
-56
-71
-67
-57
-53
-54
-44
-47
-53
-50
-57
-59
-59
-62
-66
-59
-56
-50
-49
-50
-56
-54
-46
-51
-53
-56
-66
-54
-46
-47
-55
-59
-57
-52
-50
-42
-45
-62
-67
-56
-51
-55
-38
-33
-34
-38
-44
-46
-51
-44
-54
-49
-40
-50
-46
-31
-29
-29
-33
-48
-61
-69
-72
-57
-55
-43
-41
-41
-39
-36
-35
-41
-53
-58
-56
-53
-52
-59
-67
-69
-69
-57
-40
-26
-35
-53
-66
-57
-57
-63
-51
-50
-48
-47
-53
-62
-63
-47
-51
-53
-58
-62
-55
-47
-45
-53
-45
-45
-50
-42
-45
-47
-40
-25
-25
-15
-14
-10
6
21
21
3
-2
-13
-22
-10
13
24
14
-7
-39
-46
-37
-37
-53
-52
-58
-56
-60
-57
-47
-38
-38
-58
-60
-52
-36
-42
-47
-43
-44
-37
-37
-33
-41
-47
-42
-61
-62
-61
-51
-52
-50
-57
-52
-40
-30
-29
-32
-28
-46
-50
-38
-42
-50
-60
-58
-42
-34
-36
-41
-38
-50
-37
-34
-51
-50
-45
-34
-40
-37
-29
-35
-43
-34
-34
-35
-37
-44
-42
-39
-39
-25
-13
-16
-30
-27
-18
-27
-22
-18
-10
-16
-4
-8
-13
-16
-7
-8
0
0
-5
-11
0
-3
14
14
12
5
1
-4
-13
-8
-9
-17
-8
-16
-18
-14
-1
9
7
-5
-15
-22
-29
-29
-36
-38
-41
-53
-41
-44
-51
-42
-44
-47
-38
-42
-40
-40
-49
-55
-53
-53
-53
-38
-36
-40
-39
-44
-51
-48
-46
-55
-58
-44
-44
-49
-50
-41
-33
-50
-61
-53
-42
-40
-38
-47
-51
-48
-45
-47
-53
-56
-56
-55
-52
-50
-42
-40
-49
-55
-55
-48
-55
-57
-54
-48
-46
-41
-38
-33
-25
-22
-23
-28
-32
-62
-63
-48
-44
-51
-52
-49
-46
-44
-36
-24
-23
-33
-29
-43
-59
-51
-49
-47
-48
-48
-46
-48
-44
-48
-40
-25
-27
-35
-41
-35
-40
-39
-27
-30
-28
-25
-33
-24
-18
-31
-50
-39
-33
-26
-25
-38
-35
-29
-24
-34
-35
-30
-31
-30
-34
-36
-48
-42
-38
-41
-40
-43
-37
-28
-49
-51
-50
-50
-37
-37
-34
-30
-40
-41
-31
-33
-34
-42
-34
-32
-46
-44
-46
-43
-41
-43
-43
-42
-52
-45
-41
-33
-38
-47
-40
-57
-64
-47
-38
-43
-39
-41
-40
-28
-21
-12
-7
16
25
26
33
42
44
31
24
-5
15
19
12
13
-2
-26
-31
-32
-30
-33
-32
-39
-34
-42
-52
-53
-32
-35
-47
-35
-23
-31
-30
-36
-31
-46
-55
-33
-24
-28
-38
-41
-44
-42
-41
-28
-24
-31
-45
-46
-40
-34
-42
-35
-32
-27
-23
-29
-32
-36
-44
-37
-33
-29
-27
-27
-28
-29
-29
-18
-27
-32
-35
-38
-31
-24
-20
-15
-10
-13
-24
-27
-33
-34
-36
-37
-26
-22
-11
-19
-15
-19
-17
-14
-3
-20
-5
-14
-22
-11
1
10
3
-8
-5
0
7
3
6
15
18
4
12
12
12
10
2
3
8
6
5
-3
5
17
15
-7
-23
-24
-14
-6
-28
-25
-20
-21
-25
-13
-14
-17
-19
-28
-37
-29
-26
-45
-44
-42
-35
-37
-33
-34
-36
-37
-46
-42
-43
-45
-33
-25
-26
-33
-38
-33
-31
-35
-35
-35
-32
-25
-45
-47
-36
-39
-43
-42
-37
-47
-42
-33
-26
-22
-40
-39
-39
-40
-33
-33
-31
-32
-36
-38
-42
-39
-48
-33
-30
-37
-38
-20
-31
-39
-52
-48
-33
-33
-35
-24
-31
-25
-26
-22
-17
-20
-33
-38
-43
-41
-53
-36
-40
-48
-41
-32
-37
-35
-31
-26
-22
-28
-29
-28
-42
-34
-23
-12
-26
-43
-51
-46
-39
-41
-35
-29
-17
-20
-17
-20
-20
-33
-45
-44
-44
-37
-41
-28
-22
-27
-30
-34
-30
-25
-22
-26
-21
-16
-31
-28
-26
-34
-33
-30
-33
-30
-25
-16
-18
-12
-1
1
-15
-42
-52
-53
-47
-41
-37
-25
-24
-24
-28
-26
-24
-20
-30
-31
-38
-41
-37
-34
-33
-24
-29
-32
-41
-38
-33
-33
-22
-26
-29
-32
-21
-16
-35
-39
-40
-46
-47
-35
-18
-23
-32
-44
-42
-44
-46
-41
-32
-15
-12
-22
-17
-3
-5
-7
3
17
27
35
45
46
50
53
44
26
30
21
27
26
12
3
-11
-29
-41
-28
-31
-36
-30
-32
-20
-30
-38
-34
-26
-21
-22
-31
-31
-37
-34
-27
-23
-26
-16
-21
-13
-14
-16
-18
-28
-34
-38
-38
-32
-27
-28
-25
-16
-24
-22
-18
-21
-25
-33
-32
-31
-37
-23
-22
-36
-30
-34
-27
-23
-21
-12
4
5
-6
-23
-30
-31
-29
-30
-27
-17
-2
5
-3
-2
-10
-4
-19
-20
-16
-22
-18
-5
-5
-1
-2
4
12
15
17
0
-8
1
8
13
22
8
6
6
17
14
15
27
43
35
30
42
33
26
24
24
28
21
36
28
1
-8
-13
-13
-5
-2
-13
-10
6
0
-8
-18
-38
-33
-29
-18
-17
-30
-32
-31
-20
-13
-10
-23
-23
-20
-25
-16
-15
-16
-26
-24
-35
-32
-23
-13
-22
-27
-22
-25
-18
-24
-35
-26
-16
-18
-25
-10
-12
-22
-20
-16
-29
-42
-37
-33
-35
-28
-21
-19
-24
-23
-14
-8
-12
-19
-33
-27
-10
-27
-20
-2
-20
-13
-2
-23
-37
-32
-21
-23
-18
1
-10
-29
-36
-31
-30
-17
-20
-17
-20
-7
-6
-9
-24
-19
-12
-24
-31
-17
-10
-14
-8
-17
-20
-24
-23
-39
-28
-17
-11
-16
-2
-18
-20
-14
-26
-28
-30
-40
-37
-12
-7
-6
-18
-24
-16
-16
-17
-13
-7
-12
-6
-11
-14
-18
-20
-27
-19
-12
-22
-26
-15
-7
-1
-3
-2
-7
-12
-5
-12
-15
-15
-14
-16
-3
-4
-13
-25
-23
-26
-21
-13
-18
-17
-5
-6
-18
-29
-42
-47
-44
-29
-17
-5
3
6
2
-5
-7
-22
-25
-26
-29
-34
-26
-22
-17
-8
-7
-6
-10
-24
-18
-29
-32
-18
-10
-13
-22
-22
-17
-22
-12
-22
-12
-7
-5
-6
5
29
39
57
79
75
65
49
33
14
35
43
47
60
56
20
5
7
10
4
-6
-15
-14
-10
0
0
-8
-14
-2
-2
-2
0
-3
-15
-19
-22
-19
-11
-1
-1
-18
-24
-28
-20
-18
-16
-13
-13
-8
-12
-13
-6
-19
-14
-14
-8
-10
0
1
4
4
-10
-12
-2
-5
-7
-14
-16
-5
1
14
9
5
6
-8
-8
-12
-5
-6
3
13
9
1
-13
-12
-6
-17
-7
3
0
12
14
19
17
13
5
4
12
19
21
32
40
36
37
42
47
43
34
33
45
44
47
41
32
37
49
45
30
31
42
38
37
34
20
29
20
15
12
22
24
25
5
0
9
4
-7
0
-10
-3
-2
-2
-4
-5
-9
-3
0
-6
-5
-9
-21
-21
-9
-16
-15
-13
-15
-19
-7
-6
0
-4
-4
-1
-9
5
5
-9
-10
-20
-17
-8
-14
-9
-5
-8
-18
-16
-17
-10
2
4
-7
-17
-16
-15
-21
-5
-1
-12
-23
-18
-17
-16
-2
10
18
8
-26
-18
-16
-24
-22
-13
-5
0
-2
-10
3
-4
-17
-19
-19
-1
3
-7
-1
2
8
6
-12
-20
-23
-19
-15
-12
-18
-16
-4
14
8
7
6
-7
-8
-8
-14
-20
-11
-10
-9
-9
-5
-6
7
3
5
5
6
-7
-10
-2
-1
-13
-13
-15
-16
-13
-17
-9
4
4
-3
3
-1
-9
3
9
3
-1
5
-1
9
14
6
-17
-17
-4
-6
-10
-4
2
-6
6
9
3
7
0
9
12
-1
-8
-8
-16
-2
-7
4
-1
-6
-11
-13
3
11
10
3
-6
-15
-22
3
-7
-8
-13
-22
-21
-3
-5
3
3
3
-7
-6
-3
0
2
-10
-12
-18
-13
-13
-27
-24
-8
3
18
9
17
-6
-20
-31
-19
-12
-9
-8
21
21
21
31
45
66
95
91
81
71
65
40
52
61
70
56
54
17
-1
-6
3
7
13
5
-1
8
3
0
2
-4
-5
0
-11
-4
-5
-16
-17
-1
7
5
6
-7
4
7
-5
-4
-2
-6
4
23
9
-11
7
-1
8
7
-8
-11
-3
