55
77
62
37
-3
27
-5
-8
20
24
40
66
51
28
32
16
6
-16
2
21
41
87
71
63
37
34
2
27
53
83
89
104
105
75
51
23
-9
-20
11
22
35
34
8
13
2
-15
-31
8
10
-3
42
57
56
47
38
14
-9
9
12
35
51
59
70
47
15
26
-5
-13
-12
38
90
88
61
42
53
-1
-16
26
3
31
67
62
59
50
47
29
11
0
29
46
73
67
28
20
24
6
2
13
28
52
79
90
77
71
48
7
20
57
44
65
84
86
70
66
52
28
13
39
57
80
121
71
66
91
89
66
59
57
58
90
119
105
105
92
70
36
43
63
89
59
101
102
81
79
58
24
11
20
51
60
93
80
89
40
35
5
10
41
39
46
74
79
60
55
7
-15
24
26
43
45
77
47
74
63
20
2
32
35
45
40
67
70
59
43
31
3
-3
20
67
15
62
77
61
40
21
8
4
32
41
60
77
75
57
63
41
11
9
28
60
67
77
73
45
48
27
16
10
20
47
66
89
66
52
33
30
33
25
24
59
73
93
85
61
28
40
13
11
43
43
55
91
84
57
41
28
21
24
29
41
86
56
40
63
53
19
12
35
38
34
69
63
77
48
20
36
1
-3
38
59
74
72
76
66
47
32
14
25
40
80
90
118
135
105
60
15
19
12
16
28
66
54
45
23
-10
-21
-16
-11
17
45
56
85
73
55
30
15
-14
23
24
59
95
80
83
29
47
20
18
22
38
48
72
84
72
22
80
57
11
15
47
38
88
80
78
52
50
22
23
29
47
71
87
95
82
63
53
18
12
27
61
59
91
78
62
77
38
32
46
55
58
88
113
97
97
50
34
20
24
69
95
117
133
101
102
87
61
66
60
89
98
114
135
134
101
97
77
56
45
94
93
126
142
113
105
62
61
41
34
56
84
104
109
85
50
74
40
31
21
40
65
64
73
90
70
31
18
47
23
47
72
70
91
87
74
70
14
9
11
70
68
92
93
91
65
23
17
32
32
59
48
95
78
88
58
61
28
37
-2
59
47
84
76
85
81
62
30
25
30
43
69
82
93
69
60
52
17
22
34
53
72
86
97
81
62
54
24
8
28
55
53
97
106
95
39
62
50
31
46
63
69
82
94
107
76
6
23
35
49
46
68
93
96
77
55
55
1
13
42
40
76
102
96
71
41
12
12
36
44
50
68
122
99
68
51
34
23
27
40
60
80
93
91
90
85
39
19
110
72
53
105
101
79
43
50
34
-14
-8
12
47
71
58
58
61
39
28
14
32
52
53
81
99
86
55
56
31
21
35
57
60
95
90
79
71
49
17
26
17
41
55
106
110
90
65
50
24
50
35
49
74
103
67
83
81
64
45
33
41
18
42
104
96
103
90
71
48
45
43
59
61
100
100
91
83
86
42
33
34
73
84
127
120
117
101
78
53
61
69
96
99
104
93
126
110
122
80
93
87
99
99
128
144
130
99
89
69
70
71
91
99
105
105
97
71
75
43
29
44
72
85
105
98
68
61
10
21
39
60
69
74
102
107
91
66
39
44
29
67
48
66
105
93
85
60
29
19
-5
41
76
100
98
109
81
44
48
31
51
47
61
73
103
95
74
70
35
40
34
32
73
67
62
90
63
61
43
38
29
43
66
82
94
105
83
67
29
26
31
62
70
84
89
92
69
60
42
33
32
51
48
78
79
112
67
33
33
65
55
66
68
105
99
103
72
52
31
32
30
57
73
90
100
87
54
57
31
18
33
62
62
71
88
77
50
56
28
17
27
74
69
116
115
76
32
57
31
36
54
86
100
135
141
94
76
70
21
33
21
41
52
77
60
56
39
24
-6
1
23
51
62
72
94
89
76
46
18
1
37
74
88
107
87
69
39
75
38
39
52
71
68
97
105
73
57
25
40
43
39
60
88
108
68
83
61
46
21
30
37
76
71
90
81
74
70
33
47
44
60
77
91
120
110
96
66
42
30
63
62
59
113
126
103
66
59
55
49
79
95
103
109
127
116
94
95
77
59
78
97
96
115
115
129
109
108
70
76
70
85
74
156
146
113
98
81
40
47
53
77
76
85
94
89
85
75
29
30
59
60
73
91
89
73
63
42
15
35
43
51
71
84
88
88
58
47
22
-1
10
39
68
111
119
88
61
45
15
32
33
58
61
68
66
96
74
50
36
20
54
61
76
89
107
75
50
19
-19
-9
26
45
107
118
104
85
52
71
14
20
34
59
78
74
99
85
52
45
24
22
37
66
79
112
101
61
51
37
20
5
-31
48
129
119
90
75
49
40
26
31
53
67
87
100
94
74
61
33
19
31
43
61
65
93
74
53
34
-14
7
38
44
30
81
99
87
76
49
15
45
37
56
69
108
104
71
74
91
43
37
57
82
66
84
93
90
42
32
-17
-18
-26
13
30
51
71
68
59
57
19
2
17
36
49
83
103
90
56
55
25
32
36
54
58
75
90
76
39
63
11
22
22
42
60
103
92
54
47
62
38
28
35
57
62
89
99
67
64
36
5
18
30
69
82
102
100
62
57
80
23
33
53
71
77
101
101
87
57
62
33
47
68
62
82
113
122
101
65
71
55
45
69
101
109
125
123
112
98
83
51
66
84
107
113
125
121
96
63
83
38
55
72
104
102
115
114
89
58
37
23
22
67
61
83
91
98
72
50
32
22
16
33
89
87
92
47
67
54
29
32
33
36
59
85
89
98
69
39
13
21
10
42
71
92
81
90
59
37
15
15
29
60
66
76
97
81
41
23
7
22
16
60
75
63
104
107
53
53
10
16
44
42
43
100
102
72
69
62
19
21
32
43
62
81
80
79
63
61
21
21
46
66
60
70
60
77
58
71
27
19
46
57
59
102
102
72
75
53
24
14
35
58
49
90
87
76
55
46
21
4
16
48
77
97
85
42
36
28
-10
10
35
59
71
95
89
70
83
67
10
18
38
58
113
137
143
78
61
19
24
28
27
23
47
55
41
25
31
6
13
3
38
54
71
88
63
50
36
20
17
46
56
61
80
86
77
54
62
18
10
47
60
55
71
74
77
51
61
18
35
42
47
66
88
91
78
87
48
28
17
13
36
58
121
105
95
63
58
30
37
57
45
61
85
96
96
67
68
25
32
29
79
68
89
97
104
65
86
65
36
71
89
93
124
127
108
100
70
42
66
96
104
98
136
129
118
113
84
74
69
73
89
89
117
114
105
87
76
37
54
69
78
66
98
95
79
60
37
36
38
37
56
65
81
96
73
65
30
21
20
43
67
64
94
78
70
55
39
31
0
25
40
75
81
80
83
41
23
-4
5
27
60
94
107
84
60
51
23
10
31
57
69
99
86
77
66
51
42
36
32
52
50
80
97
78
63
30
29
18
19
22
76
73
85
62
77
46
20
6
17
63
66
88
104
101
79
50
38
33
38
52
68
85
92
77
61
42
18
49
35
44
60
103
68
45
38
52
26
4
18
47
52
95
26
67
78
48
5
21
42
39
70
102
96
67
58
62
28
10
31
57
69
103
135
130
90
63
32
31
27
40
64
58
55
31
15
7
3
2
-5
19
46
84
66
40
59
32
11
30
56
65
49
86
84
71
44
50
19
28
37
54
59
78
78
58
40
28
13
32
39
44
77
80
93
48
30
26
21
27
62
54
53
102
105
76
61
28
23
26
56
53
95
75
96
68
59
42
41
34
53
85
83
89
92
97
67
38
43
50
53
71
102
77
86
74
90
76
118
63
64
93
140
130
127
112
112
82
67
62
75
95
129
131
111
93
67
39
42
58
47
74
95
91
92
58
46
19
21
35
44
62
81
90
74
55
34
-4
-5
23
53
57
85
81
61
40
68
23
30
25
29
64
96
84
57
31
37
21
18
25
49
40
81
81
78
44
35
20
2
51
46
42
77
82
68
52
48
11
19
11
25
36
86
85
54
75
42
7
37
35
53
76
85
89
68
46
39
26
36
34
49
53
100
84
64
0
51
42
36
31
58
57
89
96
64
46
36
4
8
28
22
61
98
56
39
44
39
19
3
17
41
62
96
84
49
41
14
6
29
52
72
78
75
68
70
47
31
39
51
64
79
63
70
90
52
36
3
-6
8
-13
4
38
50
60
12
31
2
-11
10
38
52
66
71
63
54
31
-9
6
33
57
67
72
102
59
59
44
14
12
20
33
46
85
83
68
66
42
14
7
14
49
36
80
74
59
33
41
18
29
39
49
45
80
75
91
52
42
-6
19
30
30
37
69
78
50
19
50
46
27
17
37
86
113
118
99
70
69
48
44
66
74
96
107
112
106
67
92
49
42
59
95
118
124
120
90
67
49
49
47
52
56
74
98
107
76
38
24
6
9
46
57
48
64
65
56
48
40
5
3
32
53
67
69
63
50
34
6
2
22
17
34
65
83
74
32
24
13
8
8
15
50
71
58
67
52
37
1
-15
4
24
38
64
71
76
58
48
-5
-7
17
38
55
63
55
71
53
27
5
-3
18
34
40
80
76
59
44
21
5
17
22
35
47
63
67
60
52
16
-9
1
16
29
75
88
70
90
49
58
-14
-8
11
28
39
73
67
56
33
12
-23
20
28
15
37
70
78
45
23
22
-15
-6
17
29
48
72
62
54
43
23
-22
-29
13
49
63
104
112
87
43
39
16
14
10
30
26
46
12
-4
-4
-14
-24
-22
-14
21
35
49
67
43
42
5
-6
-3
14
20
55
52
65
31
17
-2
-9
8
8
34
35
57
51
27
48
12
-3
19
26
19
35
68
60
42
31
-8
-10
9
20
16
61
78
50
31
26
0
-8
5
39
31
44
57
66
33
53
0
5
13
32
30
67
71
50
70
43
26
34
37
51
64
88
86
90
63
54
38
25
50
87
69
84
85
81
72
49
30
28
14
33
48
84
85
72
56
35
5
2
-10
26
46
53
48
43
58
32
-3
8
25
28
20
63
57
45
25
17
-12
-14
-2
15
28
30
44
27
0
16
-12
-5
7
13
38
67
51
34
26
-2
-11
-13
2
12
32
54
54
37
19
2
-6
-11
-11
6
8
32
23
47
18
3
-25
2
12
21
36
56
39
37
22
7
-14
-8
7
15
43
54
38
32
22
-2
-13
8
26
39
45
50
58
54
19
-1
-24
-11
-22
-35
31
59
30
-4
17
-8
-29
-40
11
18
55
59
47
22
7
-31
-20
-14
13
12
32
41
36
27
19
-27
-20
-14
22
19
36
27
36
31
44
3
-1
8
26
30
47
44
44
-2
-15
-43
-66
-61
-33
-20
6
23
11
4
-2
-42
-34
-20
-4
6
39
45
35
-3
3
-41
-46
-21
3
40
2
35
-1
12
-8
-40
-44
-40
-10
6
32
53
38
10
5
-27
-23
-20
-8
-5
23
34
4
12
-15
-37
-42
-3
11
-16
20
47
38
16
-12
-41
-30
-3
14
28
59
60
25
20
8
-22
-22
-7
11
20
53
33
40
32
-9
-7
5
22
25
41
70
41
7
17
7
17
19
28
41
76
83
51
51
22
4
-16
-15
23
17
44
28
55
25
-9
-18
-37
-24
-12
-14
14
28
33
-12
-25
-24
-44
-44
-12
-35
24
36
21
-7
-21
-41
-47
-47
-28
3
11
16
15
-6
-23
-47
-42
-29
-26
-8
17
15
37
-4
-32
-54
-55
-23
-27
-22
1
4
-20
-3
-17
-61
-46
-50
-30
-23
15
31
16
-8
-15
-54
-53
-34
1
3
19
15
8
-11
-19
-31
-56
-44
-34
-13
1
-3
-10
-9
-33
-34
-39
-28
-10
-5
15
27
11
-15
-34
-40
-49
-48
-35
-13
11
5
-7
-30
-45
-62
-54
-47
-34
-18
0
-12
-37
-59
-18
-68
-78
-31
-17
0
17
10
-6
-29
-39
-46
-46
-28
19
18
43
41
7
-20
-30
-53
-50
-32
-42
-43
-49
-46
-61
-62
-85
-93
-90
-36
-8
-20
-8
-3
-19
-40
-63
-56
-82
-49
-25
-12
-7
-8
-27
-53
-92
-67
-71
-66
-21
8
-12
-25
-45
-61
-88
-50
-36
-54
-37
3
-8
-25
-23
-27
-57
-69
-69
-42
-49
3
3
-19
-34
-41
-81
-85
-66
-27
-19
7
-5
-33
-23
-33
-57
-78
-67
-54
-38
-25
-5
6
-25
-24
-65
-80
-40
4
-22
13
22
16
-15
-14
-46
-41
-26
-9
0
25
22
22
-17
-24
-51
-42
-29
-12
-4
20
16
-14
-23
-43
-51
-59
-46
-47
-24
-12
-34
-26
-79
-93
-77
-66
-67
-43
-26
-2
-25
-36
-49
-90
-103
-92
-68
-53
-30
-16
-14
-47
-54
-56
-84
-80
-69
-75
-31
-36
-34
-26
-30
-76
-91
-82
-62
-62
-31
-8
-25
-64
-74
-87
-81
-85
-88
-41
-24
-18
-18
-38
-66
-81
-80
-81
-55
-62
-43
-12
-33
-60
-57
-95
-109
-108
-69
-32
-33
-35
-2
-32
-55
-80
-98
-95
-86
-34
-14
-32
-30
-39
-51
-88
-92
-76
-47
-45
-35
-3
-23
-38
-47
-70
-83
-75
-71
-64
-35
-34
-78
-53
-65
-103
-106
-94
-77
-58
-7
-35
-38
-57
-62
-94
-95
-70
-62
-50
-36
-13
-31
-56
-61
-93
-90
-95
-51
-45
-18
-17
-11
-33
-28
-87
-112
-61
-63
-43
-46
-38
-45
-100
-78
-108
-99
-92
-68
-60
-24
-39
-30
-84
-91
-78
-88
-71
-60
-55
-16
-26
-34
-66
-79
-94
-77
-62
-60
-22
-40
-40
-45
-49
-79
-90
-70
-80
-56
-28
-25
-43
-71
-85
-67
-109
-96
-70
-68
-36
-25
-39
-55
-55
-82
-85
-99
-69
-59
-41
-1
-25
-51
-71
-64
-86
-82
-57
-66
-17
7
-42
-53
-48
-73
-91
-83
-57
-32
-19
-12
-9
6
-43
-73
-51
-57
-44
-32
21
12
2
-38
-34
-45
-62
-39
-38
-27
17
-5
-10
-23
-19
-62
-68
-36
-34
-31
-3
-13
-13
-35
-76
-90
-99
-103
-52
-49
-16
-13
-46
-63
-63
-78
-106
-118
-42
-52
2
-17
-56
-59
-62
-83
-106
-104
-73
-48
-30
-21
-32
-51
-74
-104
-94
-67
-56
-45
-36
-47
-38
-50
-65
-101
-123
-58
-68
-52
-11
-31
-41
-51
-77
-95
-83
-78
-71
-76
-22
-47
-36
-30
-37
-85
-87
-83
-69
-54
-18
-27
-37
-76
-68
-87
-87
-59
-79
-51
-25
-37
-50
-36
-55
-103
-90
-66
-66
-24
-25
-35
-10
-38
-71
-79
-72
-67
-63
-46
-22
-33
-44
-43
-85
-75
-76
-85
-52
-28
-5
-23
-20
-67
-83
-101
-88
-81
-52
-12
-27
-37
-45
-64
-95
-75
-69
-69
-62
-37
9
-32
-66
-66
-97
-81
-85
-70
-77
-22
-42
-14
-18
-56
-76
-75
-43
-55
-33
11
26
7
-60
-68
-90
-82
-65
-58
-52
-29
-43
-62
-87
-79
-96
-98
-80
-78
-61
-27
-34
-23
-45
-69
-88
-99
-91
-92
-27
-37
-33
-22
-36
-51
-71
-83
-82
-58
-40
-21
-20
-49
-59
-36
-84
-75
-91
-40
-16
-18
-16
-20
-38
-62
-79
-68
-65
-59
-45
-8
-15
-70
-46
-80
-78
-53
-57
-46
-20
-9
-20
-25
-41
-43
-78
-64
-43
-32
-17
-7
12
-22
-17
-41
-66
-63
-33
-12
-19
28
6
-2
-29
-18
-43
-35
-12
-7
15
52
35
4
-9
-36
-39
-43
-44
-27
1
55
0
1
-12
-27
-51
-64
-41
-14
3
5
-7
-13
-47
-100
-61
-63
-45
-24
1
-15
-20
-34
-39
-82
-63
-61
-47
-54
-7
-11
-25
-34
-46
-72
-81
-75
-49
-50
-13
8
-28
-18
-55
-90
-89
-87
-35
-26
3
-2
-4
-24
-35
-51
-68
-68
-50
-57
-6
-3
7
-38
-48
-77
-76
-63
-28
-37
-9
-14
-27
-34
-40
-66
-57
-61
-26
-12
-20
0
-17
-32
-34
-77
-71
-59
-28
-27
1
-22
-13
-29
-54
-64
-59
-47
-41
-24
-18
-13
-17
-33
-55
-71
-51
-39
-22
-8
-5
-20
-11
-24
-54
-76
-65
-38
-20
-24
14
1
-23
-41
-55
-78
-59
-38
-23
-28
12
-14
-27
-27
-21
-59
-59
-46
-16
8
10
-17
-16
-35
-63
-50
-52
-39
-33
-12
10
18
-41
-43
-71
-41
-56
-46
-13
-3
12
-10
-30
-44
-66
-58
-51
-32
-54
-48
-16
2
4
10
-51
-43
-37
-16
13
44
61
47
36
14
-26
-35
-28
-25
-26
2
-23
-44
-46
-53
-82
-91
-57
-36
-30
-14
-22
-25
0
-26
-57
-75
-40
-28
-9
23
16
5
-21
-25
-49
-61
-46
-19
-16
10
19
11
-16
-30
-70
-58
-61
-38
3
36
33
35
-23
-26
-41
-51
-28
-10
5
33
6
17
8
-27
-36
-27
-33
-25
-9
-19
3
27
6
-15
-46
-50
0
2
5
29
39
29
11
-21
-40
-36
-22
35
35
61
52
64
-4
-4
-7
6
14
32
55
84
58
28
36
11
-4
4
13
24
53
54
49
50
19
6
-17
-18
-9
1
33
34
17
20
2
-21
-35
-23
8
-6
-2
34
30
13
-3
-16
-42
-32
-13
-8
13
16
27
9
-25
-38
-27
-49
-35
-14
18
4
45
23
-11
-46
-19
-9
-7
5
19
24
23
3
3
-44
-34
-38
-4
3
46
41
19
6
-5
-17
-21
-33
-2
-4
27
35
26
12
-13
-29
-24
-35
-43
-17
31
65
18
13
5
-18
-6
-6
15
13
46
55
17
4
8
-24
-33
-21
7
8
16
27
36
15
-27
-21
-44
-2
18
-22
30
34
16
22
5
-22
-18
-1
6
29
35
41
28
-6
-2
-20
-22
-15
-1
36
45
43
-3
-23
4
-8
-15
14
28
33
71
49
24
4
-7
-12
-12
-2
28
36
49
36
22
-4
-38
-30
15
-10
37
41
45
35
22
6
-16
-26
-13
13
5
24
36
9
-17
25
-11
-4
6
-2
22
62
57
60
39
27
10
23
40
38
82
126
63
47
45
39
14
-17
-33
-22
-11
10
20
10
17
8
-20
-11
-3
2
9
54
61
34
8
13
-11
14
5
19
12
48
57
29
24
6
-18
-32
-4
26
40
47
42
57
34
1
0
-3
-14
6
53
54
66
42
28
28
4
4
7
23
46
69
69
40
31
32
2
14
23
24
37
48
50
66
22
43
26
12
20
48
59
69
72
48
31
37
22
12
35
65
93
113
79
86
73
49
38
49
42
59
87
102
112
86
78
59
51
32
54
71
91
97
105
73
54
39
28
12
-2
23
80
80
65
42
46
26
17
-8
9
38
72
80
84
55
20
-5
12
16
18
19
51
59
69
41
11
-7
7
0
32
39
76
74
65
44
26
7
0
-3
20
55
64
78
51
37
32
-3
12
-24
10
56
84
93
87
48
35
16
18
19
51
37
73
77
61
45
26
-8
19
18
33
56
69
72
72
36
46
10
8
33
36
48
89
67
62
48
14
10
-3
24
53
31
61
80
89
54
46
10
20
21
79
55
75
71
56
52
52
19
22
10
47
92
75
66
76
59
44
22
21
37
56
62
89
73
57
43
44
9
12
-7
33
74
86
77
68
52
34
24
19
28
52
63
81
73
66
36
26
10
7
66
59
77
93
103
72
59
41
55
50
76
120
122
144
112
98
66
44
24
10
28
12
22
55
47
41
27
25
25
13
37
46
74
79
85
77
49
21
35
28
50
58
71
83
76
54
31
7
21
47
58
74
91
99
83
69
75
18
22
51
70
59
48
90
95
72
65
47
40
42
63
69
90
102
82
54
83
12
29
67
75
55
118
84
83
73
61
48
40
51
85
80
106
116
121
101
83
47
53
78
89
105
139
112
110
104
73
59
100
98
125
119
132
136
114
123
101
77
73
101
108
136
145
113
120
87
72
26
53
69
83
116
107
103
105
77
64
36
31
47
65
86
76
65
78
92
51
42
40
70
85
79
100
105
103
78
48
44
37
59
79
91
83
92
94
72
52
37
32
55
77
77
104
92
86
74
52
44
43
72
81
96
97
74
81
69
55
41
69
74
90
104
118
102
68
69
32
48
54
74
102
105
128
97
63
76
44
56
65
64
65
120
133
125
77
73
40
58
60
74
73
118
109
97
76
97
38
59
49
77
87
118
123
114
94
86
55
64
65
80
107
109
119
112
91
71
34
51
61
81
75
108
105
111
88
71
35
41
58
65
94
113
111
101
68
40
32
40
60
91
75
101
135
133
110
85
73
74
79
93
147
190
182
151
104
83
58
61
77
84
77
84
76
48
30
48
13
56
59
75
91
104
106
98
91
70
49
44
60
87
120
133
111
99
87
58
45
57
73
95
120
120
133
110
101
52
46
62
77
111
124
112
120
105
76
47
81
75
71
93
125
81
119
83
96
72
88
81
90
94
137
126
112
121
88
61
65
75
100
122
136
138
130
117
108
88
81
99
88
102
154
164
152
132
135
86
80
98
146
179
190
160
152
131
113
109
114
127
109
140
165
163
163
129
95
83
79
85
106
124
129
138
144
102
87
71
61
88
90
112
133
131
113
93
79
63
70
57
109
107
141
131
123
92
87
44
60
63
91
105
118
123
113
93
70
45
60
66
78
105
145
135
122
100
91
31
64
48
63
105
144
123
127
91
84
59
62
74
91
119
129
120
111
93
84
70
81
90
85
122
137
131
114
84
68
53
67
92
98
123
139
133
103
100
81
72
91
97
94
120
146
128
75
91
52
51
80
98
107
151
132
125
118
106
73
76
84
104
117
138
127
117
106
68
51
55
82
82
79
123
118
131
101
83
70
66
79
99
113
128
127
133
104
82
50
56
81
100
112
148
143
132
117
102
82
123
125
146
140
158
151
116
100
83
88
64
41
59
48
114
107
100
93
74
69
56
68
79
84
121
143
131
93
83
71
64
75
101
121
138
140
110
90
90
67
79
89
90
93
126
140
101
85
64
67
79
91
99
116
113
137
121
105
92
76
77
91
110
132
125
141
101
85
95
77
79
71
79
132
181
163
133
117
85
65
73
109
113
153
154
132
104
114
93
87
88
125
146
161
173
167
158
141
122
119
125
141
145
179
177
157
140
123
89
90
110
132
137
182
188
151
133
126
81
77
92
108
108
134
134
121
107
102
63
58
89
64
106
139
118
139
117
95
57
68
77
88
96
123
123
131
107
82
70
70
99
95
110
122
128
140
99
90
68
57
49
92
124
137
145
124
96
81
60
74
86
88
98
147
138
114
96
94
64
71
68
103
125
150
142
114
104
90
70
53
93
87
98
119
153
139
103
64
62
74
84
100
126
148
142
116
107
90
78
80
79
91
123
148
122
104
97
75
81
89
101
113
128
159
158
112
100
88
79
82
105
114
132
138
131
111
94
57
66
76
99
104
130
131
126
97
92
63
61
60
87
111
139
118
122
105
123
74
70
77
58
89
153
147
149
134
108
97
106
122
136
148
162
144
132
111
110
64
44
48
51
64
109
107
110
88
98
64
65
68
88
97
129
133
128
99
82
60
42
74
96
91
130
114
123
99
97
75
75
82
96
117
143
146
124
95
87
54
62
82
92
111
123
143
119
93
83
55
46
90
87
115
156
141
125
112
87
70
68
77
97
107
152
166
132
115
85
79
75
100
102
112
149
144
126
116
93
97
107
104
127
150
158
150
129
135
125
124
118
143
139
145
186
154
150
135
128
101
113
104
123
150
161
149
147
123
97
98
84
96
116
129
138
131
116
93
60
73
56
88
102
151
131
123
80
79
65
64
97
92
82
135
109
117
113
90
56
48
61
88
101
127
120
106
96
91
51
63
66
81
99
129
128
115
88
84
44
49
60
94
99
132
136
121
93
71
78
69
56
79
99
136
124
109
84
86
69
52
63
80
95
120
119
105
79
64
67
36
58
109
115
113
124
108
101
86
50
55
69
103
94
125
131
111
84
92
50
32
79
91
102
119
132
116
108
89
46
64
75
86
113
131
114
99
80
77
52
40
48
60
77
110
110
92
94
73
53
70
59
51
119
121
130
91
82
58
57
56
67
73
113
127
114
98
89
88
75
86
108
94
166
141
122
96
83
81
60
57
63
51
89
102
91
64
55
38
41
51
53
95
109
102
119
119
83
41
58
50
81
82
106
111
111
88
73
53
54
48
64
84
113
108
70
47
34
69
58
84
104
81
112
132
114
84
92
64
46
66
76
89
122
118
91
76
58
49
39
38
87
109
132
138
124
103
91
51
50
80
84
107
140
133
112
110
102
66
51
83
109
125
136
150
138
128
107
81
85
115
105
122
151
148
129
118
116
110
87
96
110
121
117
124
122
131
91
59
70
66
117
108
134
117
101
75
57
59
51
74
99
104
102
107
91
70
44
52
41
73
69
82
118
105
89
82
47
41
28
75
90
121
108
101
80
42
21
39
47
78
85
103
105
97
86
67
43
31
69
97
85
104
98
104
80
57
38
55
63
52
65
97
83
91
118
78
60
65
63
77
89
88
83
108
103
70
44
55
56
66
57
103
125
99
75
72
44
52
40
66
76
107
119
115
86
60
25
27
62
89
99
109
110
94
77
77
65
46
68
80
88
126
109
74
74
71
49
34
35
70
73
99
85
67
14
25
25
74
64
53
58
111
134
93
77
56
50
44
69
67
78
101
113
110
84
54
36
66
97
118
145
151
123
96
63
54
47
25
27
63
69
68
73
71
55
37
21
30
42
73
81
92
86
51
11
15
15
69
70
76
111
130
107
78
90
46
42
47
63
73
86
103
105
82
57
51
58
44
46
50
83
93
104
84
63
42
49
25
76
75
106
119
90
70
75
49
44
57
74
81
104
107
98
80
40
25
63
66
82
94
124
121
98
62
90
71
71
73
81
100
124
121
118
124
111
83
73
89
98
116
149
131
136
115
108
79
101
87
106
104
124
143
130
103
75
74
64
68
78
95
122
112
88
73
63
31
52
48
69
74
99
104
84
63
47
34
30
33
49
65
94
87
85
82
53
1
31
34
72
104
114
87
84
67
44
38
28
46
63
83
89
67
82
67
47
22
36
35
70
81
86
98
72
61
44
39
19
24
57
75
103
109
84
55
41
32
35
35
90
104
86
89
40
54
40
37
30
39
61
106
99
92
74
66
30
27
52
54
65
95
99
84
81
47
41
24
30
61
68
94
88
113
73
54
35
35
40
46
82
101
93
79
61
69
21
58
57
47
78
100
84
95
55
51
19
34
30
41
53
82
109
92
65
52
28
14
52
48
72
72
88
95
73
69
24
32
50
89
102
132
130
110
88
59
19
17
30
37
58
85
60
61
47
22
-21
8
34
58
78
96
87
72
60
50
16
28
46
46
67
93
84
61
50
19
26
23
42
79
74
114
105
74
57
47
15
21
40
60
60
89
86
78
51
39
55
41
49
64
73
100
93
82
70
52
28
41
46
66
93
93
70
46
34
54
50
67
78
84
91
106
104
87
67
53
38
36
62
110
124
130
128
96
83
59
57
71
73
96
122
154
104
114
97
80
78
74
115
92
120
118
101
104
97
56
71
63
47
74
127
101
111
61
74
48
29
49
61
60
101
93
86
71
60
18
26
27
38
70
88
87
70
40
70
24
35
41
56
62
94
95
71
36
38
35
25
57
62
50
81
86
95
74
61
29
22
34
51
56
80
76
74
72
41
13
10
45
53
74
97
87
55
41
28
9
36
29
65
76
82
59
47
49
45
12
35
50
45
79
93
87
93
50
39
-7
37
38
47
56
92
77
60
58
44
19
27
39
55
66
75
98
65
72
46
28
36
37
60
72
81
107
59
48
-4
-8
-3
21
66
100
87
80
64
35
13
9
28
34
47
76
74
63
44
32
5
26
13
31
38
97
86
76
50
63
12
36
43
71
76
105
121
117
69
40
22
16
16
37
42
60
44
37
13
3
-1
8
-6
37
11
58
63
63
43
31
-4
-3
17
37
64
82
74
34
48
52
15
4
11
30
60
74
74
70
25
29
-5
-9
12
52
59
85
85
58
45
38
2
-3
15
8
49
70
55
84
53
42
12
26
29
15
52
81
79
86
34
13
29
20
29
64
63
71
93
89
44
32
12
34
40
58
68
104
76
69
72
36
1
50
55
71
94
112
101
80
90
43
40
48
55
71
89
94
95
71
35
12
-5
25
50
67
96
86
67
60
47
15
9
9
22
30
34
64
61
32
24
10
9
-3
27
18
46
44
26
32
11
-20
-32
-14
11
3
35
66
50
41
34
-13
0
-11
13
38
73
43
61
31
-2
-16
-6
-6
8
26
61
47
42
33
10
-15
-28
-10
-1
28
67
52
20
-12
-10
-8
-14
3
26
30
49
46
57
32
3
-25
-7
-14
15
22
46
40
19
30
19
-23
-16
-13
-2
34
57
39
29
29
9
-12
-29
-10
5
26
41
48
18
-14
-10
8
-6
15
26
34
54
37
26
3
-13
-24
-25
-3
-1
13
29
33
17
0
-23
-34
-27
-12
-2
32
52
49
29
15
-27
-47
-34
-19
12
39
44
15
18
-2
-12
-15
6
-2
32
64
48
84
62
46
-19
-20
-17
2
2
28
-5
-8
-44
-36
-56
-52
-39
-28
-9
24
29
33
19
7
-35
-53
-29
-13
3
21
20
22
14
-25
-40
-20
-13
-21
-5
45
20
46
11
-3
-26
-39
-23
-6
-2
26
16
35
-9
-43
-29
-25
-14
5
14
26
31
14
20
4
-44
-50
-14
15
-5
40
36
34
6
-1
-35
-47
-1
1
26
50
45
10
8
-8
-6
-3
-1
-4
14
84
72
25
35
28
6
-11
3
17
57
69
67
59
40
34
0
14
-3
13
27
84
61
48
48
8
-6
-7
8
15
33
51
40
10
-17
-40
-61
-27
-1
7
23
44
19
13
-4
-13
-46
-40
-30
6
7
22
20
8
-14
-51
-43
-56
-11
3
13
29
9
2
-23
-33
-37
-37
-8
-13
17
17
6
-8
0
-33
-36
-42
-30
7
18
0
6
10
-20
-44
-28
-31
-33
0
34
25
0
9
-2
-32
-46
-44
-31
-8
9
26
18
-5
-28
-40
-18
-31
-18
-10
17
52
6
0
-10
-38
-31
-25
-3
-8
30
20
18
7
-8
-45
-22
-10
-2
-2
19
5
1
8
-19
-67
-50
-8
-5
1
35
24
2
-31
-33
-45
-32
-39
-18
1
38
19
13
-15
-7
-55
-62
-43
-23
-7
7
27
13
-10
-14
-58
-58
-36
29
36
80
90
62
17
-21
-30
-60
-30
2
3
18
-23
-38
-68
-56
-71
-57
-49
-23
-4
2
11
-6
-16
-46
-50
-41
-56
-32
15
42
25
10
-23
-57
-40
-32
-26
-27
-34
39
8
20
4
-19
-41
-21
-19
-6
37
32
25
14
6
-40
-46
-31
3
-3
13
30
15
9
-11
-27
-36
-31
-2
7
29
25
14
-8
-12
-45
-35
-49
-5
-7
3
61
56
23
-25
-6
2
-4
9
25
41
57
42
26
25
-2
-3
-1
16
28
57
76
54
26
35
1
0
24
35
36
77
67
35
17
6
-35
-6
2
17
9
48
46
34
15
-12
-56
-48
-22
-13
-23
25
25
12
-1
-6
-23
-50
-49
-28
-33
18
36
-7
-13
-28
-40
-45
-32
-25
4
25
34
6
-6
-24
-29
-9
-42
-17
0
22
32
10
-9
-29
-32
-34
-34
-5
6
27
11
-3
-37
-36
-41
-57
-31
-36
7
45
25
-15
7
-10
-46
-40
-16
-11
0
37
45
25
1
-13
-24
-26
-27
-25
5
9
14
10
-9
9
-38
-27
-33
5
39
33
31
4
0
-43
-30
-34
0
13
27
44
30
-1
-10
-25
-56
-55
-22
-7
50
56
-3
-8
7
-39
-66
-29
-16
-15
38
38
17
-30
-27
-46
-40
-31
-12
-5
30
45
34
14
-8
-34
-41
-19
8
26
66
85
66
11
2
-44
-37
-19
-39
-12
30
5
-7
-51
-42
-39
-65
-43
-27
-18
22
30
2
-5
-25
-37
-53
-29
-12
20
31
44
15
-10
-18
-31
-42
-30
-20
-1
13
11
1
-33
-30
-10
-10
-29
6
27
26
33
17
-13
-20
-30
-30
-22
-7
13
29
35
20
-2
-23
-30
-44
-22
-20
10
68
43
33
6
-12
-20
-24
-3
15
25
46
35
6
-8
1
-4
-21
16
41
51
29
39
41
38
-14
-8
30
48
49
70
84
64
56
39
8
-4
18
16
26
71
78
78
49
34
1
-36
-39
-9
51
61
32
7
13
17
11
-10
-14
-10
-2
21
23
18
10
4
-40
-30
-11
-4
10
30
38
18
20
-20
-51
-16
-9
-8
2
37
36
22
-10
-26
-39
-21
-28
1
1
31
35
42
11
-4
-32
-49
-12
-17
-32
39
47
18
-7
-15
-34
-42
-22
1
15
33
27
3
10
17
-20
-19
-33
-8
15
35
27
19
11
-3
-37
-32
-18
10
16
34
32
11
3
-12
-19
-24
-17
1
20
41
28
30
9
-13
-35
-14
-8
12
20
17
24
24
-8
1
-5
-18
-14
20
20
15
39
11
1
0
-37
-24
-7
-12
33
36
22
10
-28
-41
-14
-26
-20
-3
30
51
36
9
8
-13
-26
-29
-25
20
49
55
32
72
69
3
-18
-23
-12
5
27
11
6
-35
-32
-71
-65
-38
-19
5
36
18
10
9
6
-38
-43
-28
-18
-9
25
35
32
18
4
-33
-24
-24
-17
-2
21
29
27
16
11
-36
-25
-28
-12
23
54
19
15
4
-13
-27
-37
-29
0
14
57
49
25
14
-13
-42
-21
-20
7
9
32
27
51
28
19
-22
-39
-17
10
29
38
52
39
19
15
-15
0
9
27
12
55
62
41
38
34
20
13
13
38
41
82
77
60
36
15
-16
-4
14
37
37
83
69
61
39
13
-4
10
20
15
29
33
35
32
1
-10
-27
-35
8
20
35
62
28
23
0
-20
-47
-16
13
29
29
28
4
2
-7
-47
-59
-26
-37
-14
37
44
26
-1
7
-28
-40
-29
-2
7
27
21
18
-1
-10
-32
-32
-30
-9
6
15
23
13
10
-1
-48
-22
-28
-9
-2
35
28
15
4
-9
-27
-6
-31
-20
0
30
23
24
-11
-37
-38
-14
-34
-14
-6
39
31
23
-18
-23
-24
-23
-38
-14
13
43
42
17
5
4
-45
-22
-25
3
7
35
37
27
3
-10
-63
-52
-42
3
22
23
43
11
-2
-18
-54
-43
-27
-15
4
33
21
11
-16
-17
-51
-45
-49
-4
10
36
13
21
-11
-29
-41
-26
-3
-5
6
44
27
25
19
17
-4
8
16
8
-18
58
45
13
-11
-44
-85
-61
-57
-64
-19
0
3
-11
-12
-33
-52
-39
-47
-23
-7
9
17
9
-21
-31
-45
-22
-38
-11
-7
38
24
-1
-27
-42
-46
-56
-23
5
9
23
30
9
-14
-40
-43
-34
-21
-20
11
15
7
11
-4
-10
-22
-32
-31
-13
16
26
23
17
-28
-49
-43
-9
-8
-11
38
41
27
11
-13
-50
-43
-21
3
4
50
48
30
16
-4
-22
-8
16
15
25
62
59
47
35
22
-13
-3
28
23
19
52
58
55
35
17
-14
-14
-2
40
32
41
38
28
20
13
-37
-22
-23
-3
6
27
34
24
-10
-14
-39
-44
-48
-24
-3
4
19
21
-6
-23
-42
-31
-19
-6
-3
17
0
10
0
-8
-59
-53
-6
-7
-4
20
24
-6
-22
-49
-98
-60
-22
4
34
31
9
7
-18
-37
-43
-32
-20
-5
23
21
18
5
-3
-20
-46
-37
-33
-11
17
5
20
7
-30
-28
-43
-35
-16
-31
12
30
19
5
-21
-27
-37
-33
-19
-11
15
-2
8
8
-11
-59
-28
-17
-27
-1
37
27
23
9
-2
-38
-24
-30
-2
7
14
16
22
3
-7
-42
-43
-40
-17
-8
14
28
8
-4
-4
-35
-36
-28
-15
3
31
23
25
1
-16
-41
-65
-37
-31
-14
23
37
14
-9
-5
-31
-32
-21
-9
6
49
35
32
48
46
6
1
-11
-1
0
43
23
-15
-27
-50
-61
-81
-69
-18
-3
10
20
27
-6
-7
-42
-52
-34
6
-6
12
23
0
8
-20
-54
-15
-23
-3
12
23
47
10
-31
-35
-21
-25
-9
11
22
39
24
14
7
-20
-38
-31
-20
24
26
16
15
34
16
-31
-30
-27
-9
13
23
37
33
7
-5
-14
-23
-4
-7
23
28
36
60
37
12
-16
0
-11
27
40
52
43
38
35
32
5
-3
-6
27
55
81
71
74
59
41
9
12
8
41
31
87
70
66
44
21
6
11
16
21
21
47
28
43
41
30
-21
-4
-2
9
11
41
43
43
43
20
-29
-9
-19
6
10
40
33
7
13
-3
-24
-27
-10
12
16
51
31
1
6
13
-23
-28
-26
2
12
42
55
33
-2
-9
-37
-26
-17
17
25
46
31
46
13
-12
-45
-12
5
10
20
48
50
36
20
-4
-28
-8
-15
-10
29
53
35
21
21
-7
-19
-20
-16
12
38
59
54
24
3
-23
-39
-16
-30
1
66
55
49
45
20
2
-13
-11
-1
22
29
55
56
33
13
-3
-2
9
-9
23
32
49
46
27
-6
-9
13
0
2
10
34
39
8
19
39
-10
-7
4
4
28
46
48
34
25
20
2
-28
-18
-15
37
48
67
52
35
14
-11
-5
18
33
23
48
70
94
57
58
28
1
10
1
24
45
38
50
6
-16
-45
-24
-32
8
7
26
57
41
25
21
-28
-27
-9
12
13
43
80
36
30
7
-4
-21
-3
16
10
75
58
42
38
23
-11
-18
20
20
44
73
53
57
29
18
-5
-13
15
29
44
59
60
57
26
14
-19
-7
-4
32
31
74
62
65
33
14
14
10
16
33
52
86
72
66
23
20
2
27
46
53
62
77
85
100
74
53
27
31
30
59
84
110
91
83
73
30
42
53
33
99
101
101
85
81
43
31
26
10
38
80
76
80
92
64
47
32
16
8
22
44
75
74
69
50
29
-2
11
-2
18
36
52
69
47
39
22
2
4
-8
27
37
33
49
54
33
3
20
-13
6
18
46
77
73
49
26
40
8
20
-1
25
26
78
74
59
59
45
3
-14
16
36
37
52
47
50
33
24
-8
-13
11
31
55
80
74
57
37
31
-3
16
25
54
46
72
65
68
33
34
20
7
12
32
41
62
77
59
27
10
-3
8
35
38
57
72
71
63
46
33
13
11
29
57
57
80
84
77
56
25
13
-8
-7
23
61
84
70
61
47
26
2
-5
18
30
50
83
59
68
39
34
15
-7
7
17
49
61
77
46
24
36
22
38
40
44
60
81
117
107
83
53
24
6
25
42
55
61
43
26
-3
-17
-27
-18
8
31
45
73
68
49
38
17
15
-16
8
40
54
63
63
67
36
10
13
29
25
56
72
68
59
28
14
6
22
21
30
47
54
57
78
50
44
7
12
11
41
49
78
56
82
61
20
-7
6
21
34
44
90
87
84
40
41
16
21
19
79
59
76
70
77
53
50
15
24
43
47
65
115
101
89
80
66
45
27
30
86
90
98
102
69
101
96
52
35
56
87
114
109
114
99
74
61
34
33
46
56
95
93
94
71
56
36
11
17
18
23
80
89
78
64
51
28
4
17
23
25
37
79
89
64
32
5
-14
20
35
37
41
73
54
63
40
16
20
25
31
42
72
82
76
59
30
17
-1
0
16
20
62
79
57
54
45
19
16
15
-24
39
98
91
78
52
23
0
-2
31
23
40
63
59
82
56
34
16
15
14
38
40
76
70
66
21
32
5
11
-5
32
38
85
48
47
53
40
-20
7
11
27
52
78
84
68
42
48
3
14
33
38
40
91
86
55
45
40
9
16
20
39
42
70
75
54
39
23
-3
-9
42
58
46
48
43
80
42
35
-3
-21
-7
7
49
100
73
57
34
20
21
11
44
53
68
97
81
76
68
56
47
56
71
56
55
81
99
61
37
-8
-46
-31
-17
0
33
55
52
41
32
18
-15
-17
29
51
61
86
71
51
33
11
2
4
22
33
78
74
61
62
30
17
9
16
34
42
71
73
53
46
19
2
-1
29
20
44
69
76
61
63
48
40
14
-11
43
71
51
85
74
56
46
20
18
24
34
59
99
69
75
72
51
17
15
49
57
72
107
110
64
53
62
38
15
56
71
70
93
109
106
115
109
30
59
54
94
98
113
102
103
100
83
41
54
55
66
70
113
109
101
82
56
29
20
32
43
57
89
92
71
53
37
13
15
-2
21
69
77
78
66
40
48
18
34
33
38
61
69
64
51
55
33
28
17
22
45
56
72
70
45
25
8
26
22
28
59
53
74
67
49
61
30
18
21
22
56
72
83
71
54
32
42
23
22
26
47
71
80
75
47
54
40
-16
11
42
56
79
99
51
31
42
42
22
18
36
61
92
77
73
56
44
0
12
29
37
62
82
72
76
62
39
28
22
51
66
93
64
76
67
43
51
12
-3
35
49
46
89
76
77
46
38
16
23
35
19
53
59
54
79
56
42
22
8
28
52
68
96
103
63
46
32
14
37
79
95
119
142
107
80
74
67
22
10
26
30
6
25
44
37
47
17
-16
18
7
30
30
61
76
59
77
60
31
25
23
54
69
87
78
66
38
37
21
22
34
22
71
120
114
77
57
24
24
24
43
58
78
98
106
63
49
28
31
18
51
62
67
73
95
84
43
35
31
61
49
68
74
113
101
75
63
68
23
21
39
78
89
121
112
87
74
61
68
55
68
97
94
112
121
75
94
85
68
84
107
115
129
129
126
75
92
94
59
73
90
91
113
131
126
99
84
48
58
59
66
70
109
90
77
88
65
19
43
39
47
61
93
92
69
66
46
18
56
50
49
66
89
94
85
63
64
20
30
37
59
73
102
94
80
63
55
26
14
13
46
74
114
108
80
71
51
25
30
46
59
60
92
86
88
61
47
35
58
45
65
59
86
112
89
61
52
22
20
46
91
84
88
94
89
59
49
35
29
36
70
90
116
115
87
68
50
29
30
41
63
84
130
116
85
85
79
34
42
58
65
86
90
104
89
57
42
41
37
43
66
65
111
73
62
80
60
47
37
59
63
87
95
95
66
42
59
32
40
86
62
80
101
126
100
98
65
74
89
104
102
111
102
110
84
56
18
19
-3
19
13
57
76
88
70
78
35
35
25
57
79
117
108
86
85
63
39
37
35
66
61
101
107
98
78
94
28
12
42
79
71
113
120
93
76
66
38
49
57
74
72
122
123
95
84
74
47
68
43
68
71
90
131
102
67
60
58
43
64
88
92
103
119
118
98
88
58
66
90
93
100
117
135
124
101
100
65
77
85
127
121
146
150
129
115
107
79
66
108
115
139
195
148
109
59
104
89
99
95
110
124
133
143
126
105
75
90
62
79
83
126
115
114
92
74
52
42
58
69
81
106
110
109
62
75
50
53
59
60
68
124
130
112
90
60
66
46
50
65
85
81
100
119
96
88
46
49
37
56
88
108
123
96
93
76
45
41
47
53
101
118
112
93
75
68
48
27
28
82
96
100
102
123
88
85
47
62
65
63
82
120
123
124
89
82
37
39
61
73
79
132
140
133
90
55
19
46
59
92
89
126
114
114
75
73
43
40
68
89
81
96
117
87
89
86
36
61
46
84
57
130
125
84
72
60
42
43
70
75
81
111
107
112
85
57
35
23
47
108
118
139
158
139
107
79
58
49
63
82
92
91
65
24
17
53
20
16
48
80
90
107
101
83
62
41
23
35
65
86
100
122
102
65
40
61
55
48
32
85
102
105
122
68
59
49
41
50
55
100
118
124
107
87
72
48
58
66
52
92
130
111
109
71
56
73
69
80
61
58
115
127
107
90
76
39
42
49
80
80
126
128
114
102
84
55
58
61
104
102
144
144
117
93
102
58
80
70
123
142
144
145
125
111
103
78
76
88
110
129
145
137
127
103
86
60
57
65
78
112
131
128
111
97
65
39
37
63
82
75
113
99
103
74
56
31
38
39
71
86
115
109
90
77
54
18
49
58
81
109
117
113
100
83
64
44
48
75
68
87
91
90
83
48
70
31
41
74
78
99
116
108
91
74
57
64
56
36
67
95
98
104
69
79
60
66
48
76
90
111
133
106
69
73
64
66
63
58
85
96
90
122
89
68
48
55
44
105
128
133
100
109
59
67
64
45
44
70
75
89
117
105
88
88
42
45
57
58
74
99
107
93
82
74
47
42
45
62
77
116
106
96
83
71
36
9
29
83
74
153
124
112
149
114
56
57
55
74
77
100
110
85
44
39
7
28
33
46
64
96
117
72
85
67
43
46
55
59
56
114
110
81
66
41
33
36
30
69
96
98
105
99
71
45
42
36
55
58
64
98
106
108
74
61
41
46
49
78
89
92
84
100
81
66
46
38
50
77
100
129
98
86
82
70
60
47
60
65
80
118
113
97
93
89
49
69
56
96
129
130
115
100
81
78
63
77
79
124
124
143
159
131
108
85
72
74
80
84
143
144
138
110
93
67
79
54
47
89
133
112
111
97
75
38
42
59
68
64
92
108
99
83
55
41
36
59
46
80
97
103
95
81
71
34
21
30
75
68
86
90
98
70
68
31
42
29
52
92
110
112
106
70
48
30
47
51
74
60
73
99
96
66
63
34
23
52
93
67
94
87
85
71
88
35
35
49
65
79
113
106
81
66
37
32
29
24
63
94
88
86
109
81
52
37
45
50
69
90
110
112
98
76
57
37
44
48
62
69
117
101
78
60
43
43
52
41
63
84
94
98
65
57
53
13
8
20
62
56
120
116
91
62
42
31
43
58
67
100
113
93
80
82
50
73
76
115
109
134
117
82
87
59
28
9
33
46
42
81
66
68
52
44
13
3
20
47
50
87
90
110
99
57
41
50
36
45
50
88
77
83
100
64
41
40
56
57
59
87
94
89
74
68
41
50
37
42
81
95
100
92
64
78
21
25
51
48
74
85
121
99
73
54
4
34
51
83
81
100
114
100
73
56
56
37
47
79
91
114
119
107
76
75
42
45
64
93
95
128
123
119
121
89
77
53
54
84
96
132
95
111
82
92
74
67
71
84
119
135
138
98
91
83
46
31
76
80
90
111
104
81
60
58
19
47
57
63
87
115
92
80
66
52
8
38
45
57
90
90
84
90
63
44
16
14
39
67
77
86
66
93
57
49
56
45
57
76
92
98
91
66
65
41
31
50
58
15
81
75
45
95
68
39
27
42
54
60
78
86
92
75
70
33
26
31
29
84
108
99
102
72
52
41
43
48
51
60
89
104
82
65
66
30
29
37
59
70
79
95
88
76
78
42
36
33
63
73
101
100
99
57
44
29
28
30
61
71
83
86
91
80
54
28
25
34
66
79
93
90
89
41
41
14
14
34
64
59
106
94
78
53
51
18
48
54
105
121
117
124
97
70
32
5
22
84
65
63
81
70
56
27
20
24
41
29
61
68
103
103
71
34
30
26
15
35
58
73
108
91
60
42
48
39
29
31
44
108
75
79
98
69
52
22
24
47
63
86
93
89
86
56
28
43
55
59
55
72
90
87
65
58
33
36
48
59
70
98
99
92
76
71
14
26
66
52
82
95
105
99
86
75
41
41
48
70
95
115
110
110
103
83
63
76
73
109
105
129
124
117
82
78
81
62
65
87
102
123
120
117
108
71
40
47
46
79
67
93
86
71
50
58
42
16
44
80
110
98
86
77
53
49
49
58
32
60
65
91
77
71
58
47
15
27
34
52
71
101
102
50
44
63
22
31
33
55
51
79
86
51
47
40
21
17
28
44
67
123
96
64
44
36
32
25
42
56
82
99
100
48
59
44
24
11
53
52
62
78
86
61
70
16
0
2
45
98
88
70
74
62
35
42
10
26
28
53
70
84
82
72
42
27
36
37
48
57
94
94
80
43
53
27
21
33
54
65
100
73
70
68
34
8
27
33
40
76
80
73
70
55
31
16
-3
32
16
62
97
78
64
50
36
-1
22
23
46
44
83
100
79
55
32
29
32
25
43
69
98
106
96
81
96
31
25
54
55
47
82
84
35
29
30
-3
-6
0
13
35
71
48
72
69
35
9
13
31
47
58
74
81
58
53
48
9
34
8
34
54
79
97
55
47
