-12
-7
8
10
5
14
22
23
46
72
91
96
97
80
52
30
23
-5
-16
-32
-41
-34
-25
-26
-26
-40
-44
-47
-41
-28
-10
-1
11
5
2
-11
-12
-21
-12
-1
9
17
17
16
4
2
-4
-16
-8
3
9
17
26
22
13
1
-10
-9
0
7
18
19
29
22
7
3
2
-5
-1
16
23
23
29
25
17
7
9
4
11
16
25
25
35
31
23
16
9
8
17
24
39
38
46
40
29
27
23
20
33
43
50
54
56
54
48
35
35
34
43
54
60
63
69
59
46
40
33
38
47
49
55
57
59
51
39
32
26
24
27
37
44
39
38
32
23
9
-1
1
8
18
21
29
26
16
8
2
-12
0
4
18
15
22
19
10
2
1
-12
-7
3
9
16
27
23
12
-3
-6
-10
1
7
16
15
23
20
13
5
0
-3
-2
5
17
15
24
21
17
9
4
-5
-1
9
19
25
32
25
18
10
3
-4
4
11
18
21
31
26
19
8
4
-3
4
12
23
25
31
20
16
10
-1
-6
0
5
19
23
28
22
15
5
5
-6
2
7
20
22
28
25
11
1
-1
2
8
9
16
22
28
23
15
6
1
-6
3
15
26
26
35
23
8
13
6
3
11
16
25
29
35
31
14
5
3
6
14
25
34
33
35
27
21
13
7
6
14
22
26
35
29
24
10
4
-2
-1
4
16
23
27
24
17
8
3
-7
-3
11
16
18
30
29
15
6
2
-6
4
4
17
18
25
21
10
0
-7
-18
-11
-2
17
24
44
56
67
73
83
92
104
101
104
74
70
66
40
10
-11
-43
-36
-32
-20
-12
-2
-5
-10
-17
-12
-17
-5
6
22
25
35
27
22
9
7
3
14
19
26
37
41
32
26
18
18
4
14
24
33
36
43
38
30
23
19
14
18
24
36
38
44
37
29
23
23
12
24
31
38
44
50
41
35
29
26
19
27
37
47
53
59
52
44
34
35
32
40
54
61
67
67
60
52
53
45
49
56
67
77
80
78
72
62
63
56
59
67
76
83
87
81
75
66
63
50
55
61
71
75
83
77
64
60
49
40
40
46
51
54
62
57
42
32
27
17
26
32
39
37
54
38
33
26
18
11
14
25
34
41
46
34
32
11
12
4
13
17
31
34
42
35
29
17
18
11
19
24
34
36
42
40
34
20
20
11
20
22
39
37
44
40
37
20
17
11
24
32
40
37
46
42
32
27
22
16
23
33
38
38
47
42
33
24
19
12
22
31
41
42
53
39
28
23
18
16
17
31
44
39
46
40
28
19
14
15
21
28
39
42
43
42
29
19
19
14
21
33
41
40
43
40
27
18
15
20
23
38
43
47
47
39
34
25
18
18
31
45
51
58
51
37
34
32
21
23
33
50
49
56
52
45
40
33
19
27
33
41
42
50
43
41
27
23
17
21
34
40
39
44
41
31
22
20
12
20
27
37
44
47
42
32
22
22
12
26
30
36
35
40
31
22
14
9
-3
9
25
44
58
86
95
96
109
120
125
122
112
100
78
81
63
31
7
-19
-33
-32
-17
0
6
16
17
14
9
5
0
11
23
38
41
52
43
32
28
28
19
28
37
46
50
54
48
43
34
27
25
32
38
53
58
53
48
38
34
28
26
35
47
55
61
61
53
37
34
30
27
43
47
56
64
61
54
52
42
32
38
46
58
66
72
66
60
57
52
44
44
54
70
71
83
83
75
69
69
65
58
67
80
86
100
94
89
77
79
69
78
86
91
98
107
94
90
79
74
65
71
82
93
93
92
85
80
63
62
45
50
57
70
70
75
67
61
46
36
29
36
46
50
53
59
52
43
34
32
23
26
32
41
48
59
54
46
34
33
25
26
35
45
46
53
44
35
32
30
24
28
39
48
54
55
47
40
30
33
21
27
38
47
49
55
49
38
32
28
23
31
39
45
50
57
49
39
32
22
23
33
43
52
54
54
49
38
37
27
29
37
48
44
54
51
44
39
31
25
29
34
44
51
56
61
45
32
28
20
24
29
37
45
54
54
46
31
31
16
27
36
44
49
57
49
48
35
28
23
27
36
44
48
54
50
44
35
34
23
31
41
54
49
61
60
50
38
38
24
31
40
57
58
64
54
45
34
36
26
34
40
50
51
57
51
41
34
31
21
26
36
47
44
51
41
37
27
29
19
25
34
44
37
48
43
36
30
26
17
22
32
39
46
53
46
34
22
20
12
18
26
29
30
35
37
40
46
56
66
92
115
137
145
144
119
90
73
65
46
36
14
-3
7
7
-1
-4
-7
-18
-19
-4
14
23
34
40
38
31
25
19
19
28
38
48
55
55
48
35
31
23
22
34
45
49
58
58
51
40
35
22
33
39
48
54
61
53
49
39
37
25
32
41
48
61
61
58
53
42
36
33
38
49
59
62
72
66
56
48
45
36
46
51
63
70
78
73
65
60
61
50
60
67
74
82
98
85
77
71
68
68
73
79
87
84
98
95
92
79
73
64
70
78
92
88
96
88
76
68
64
57
68
72
75
70
74
70
59
48
44
40
41
56
48
53
66
52
38
32
27
22
28
34
45
51
58
42
35
27
22
18
27
37
40
43
49
43
34
31
20
19
27
42
47
43
50
46
36
28
23
24
26
43
46
49
53
44
34
31
28
26
35
46
49
52
52
43
40
30
24
24
33
44
43
58
56
42
35
32
29
30
29
41
47
60
51
44
37
30
15
25
35
47
45
57
53
44
33
30
13
23
35
42
50
57
55
47
34
24
18
31
35
45
54
60
51
47
30
33
24
30
32
44
50
56
49
43
36
33
28
37
44
48
55
64
57
45
39
36
24
34
44
52
53
63
52
44
39
38
24
24
30
37
44
50
44
31
24
23
23
21
31
43
41
49
40
36
27
26
20
27
33
38
41
42
32
26
19
10
7
22
38
47
71
84
84
94
109
113
102
103
88
77
83
77
53
18
-11
-30
-24
-11
2
9
12
10
7
-4
5
0
14
20
32
40
46
50
42
32
27
23
23
33
46
39
49
47
46
40
30
25
28
37
42
45
54
58
49
35
31
27
33
38
51
56
61
61
49
37
37
29
31
41
58
59
67
62
50
42
44
28
42
58
60
65
71
67
59
50
50
39
54
61
65
72
79
74
72
62
64
56
67
73
83
90
97
91
84
75
75
70
75
83
85
88
101
97
85
78
68
61
61
66
76
83
91
79
71
56
56
38
47
54
60
63
66
55
49
38
30
27
34
46
49
53
51
45
36
30
25
25
33
38
43
52
53
42
32
29
19
19
26
30
41
47
54
40
36
24
17
21
31
44
39
48
49
43
35
30
23
24
35
41
45
56
53
45
35
37
19
27
36
47
51
57
49
49
42
36
17
29
33
44
48
56
48
42
32
30
21
26
34
45
50
59
52
41
33
28
17
35
38
43
45
56
50
44
33
28
26
31
37
47
50
61
48
38
27
27
21
29
34
42
46
53
47
39
29
35
24
25
38
44
47
56
52
44
35
28
30
43
47
54
51
64
52
46
41
37
28
38
42
52
53
57
53
41
31
27
19
28
39
43
48
53
40
32
24
19
18
28
34
40
50
54
42
35
27
24
19
22
33
45
42
40
37
30
19
4
9
23
42
59
84
92
104
110
115
104
100
90
80
77
76
67
40
6
-17
-23
-17
-9
3
9
15
14
13
10
8
7
17
23
36
48
58
48
41
34
32
19
21
34
46
49
59
52
44
35
31
28
36
37
50
53
60
53
48
33
34
26
39
45
54
52
68
60
52
43
46
31
35
46
56
58
71
62
50
45
47
35
45
54
64
68
73
65
60
50
55
44
53
64
73
81
85
80
77
73
63
60
71
81
88
95
102
96
86
78
75
70
74
84
95
99
101
95
83
77
71
71
70
77
82
85
89
76
67
59
53
45
51
61
65
69
66
62
48
37
32
31
40
51
52
54
54
45
38
35
29
24
29
37
46
51
51
40
33
31
26
24
28
40
44
54
51
41
35
34
19
23
33
42
45
55
47
46
33
31
21
31
40
44
49
59
52
46
36
33
28
26
35
46
53
59
53
50
33
35
23
31
38
45
46
58
51
43
37
32
21
34
37
46
45
61
56
45
37
34
24
28
32
47
49
56
51
40
32
26
23
31
38
42
50
56
49
43
33
26
20
27
39
48
49
58
51
42
32
23
21
29
34
45
50
56
47
43
30
26
23
33
40
51
55
62
48
42
31
29
28
34
49
53
62
57
51
44
33
34
31
35
49
57
63
61
53
44
37
30
26
39
42
51
56
55
45
32
29
26
25
31
41
49
60
46
38
32
32
23
24
35
32
40
51
51
42
32
27
17
26
32
42
48
57
44
33
23
14
7
16
18
28
40
60
60
73
79
91
97
120
133
138
129
108
87
72
50
37
2
-18
-14
-1
7
15
9
6
-2
7
-2
10
16
33
42
53
46
39
28
26
17
29
41
51
49
55
51
43
35
35
24
30
40
53
53
60
54
40
33
36
36
38
45
56
57
58
54
48
38
32
28
37
54
53
63
63
59
51
43
37
39
46
51
61
67
73
72
55
52
43
44
52
64
70
77
72
74
70
64
57
62
67
76
88
90
94
89
78
77
70
72
81
91
92
105
103
94
81
78
71
72
78
91
91
99
96
90
70
63
53
58
61
69
75
78
70
57
49
51
37
48
47
56
54
60
55
48
36
29
21
28
34
45
44
53
45
39
34
29
20
21
35
47
45
54
44
43
30
24
14
25
38
46
47
57
50
44
31
28
25
32
37
45
49
57
50
37
27
32
23
30
42
44
47
54
53
43
37
31
24
35
41
51
51
53
40
41
29
26
23
33
39
52
51
58
52
39
36
27
23
29
41
43
48
57
45
37
27
25
26
30
41
41
50
51
49
32
26
23
19
31
37
46
50
46
43
36
27
22
24
30
35
43
45
54
45
35
28
24
24
27
42
45
47
48
44
34
27
18
22
36
38
40
51
47
42
29
30
25
28
37
46
47
53
51
49
37
29
23
32
40
50
55
57
52
47
35
34
27
33
38
50
54
65
55
43
33
30
19
27
33
42
45
52
48
41
28
23
12
20
28
41
41
48
46
32
23
25
16
26
30
42
40
48
43
35
17
22
13
18
24
30
33
35
27
14
24
31
28
52
74
102
118
142
145
136
118
93
66
66
63
50
34
10
-6
-23
-21
-20
-24
-10
-2
14
24
37
30
25
16
12
15
22
30
41
48
48
40
30
23
21
22
26
36
45
52
52
45
38
25
19
23
32
43
50
55
54
42
40
36
24
26
35
50
57
66
53
40
36
32
23
32
39
50
55
66
56
51
50
37
31
36
44
55
56
69
64
62
52
50
44
51
57
71
78
92
82
75
69
62
53
62
77
82
89
97
94
86
70
73
59
72
81
92
91
93
83
73
65
72
60
64
69
76
73
82
74
61
53
49
37
44
49
53
53
59
54
43
35
31
25
19
36
43
40
50
40
36
22
21
15
20
27
32
36
43
35
27
22
18
10
18
31
35
34
39
36
23
17
15
12
20
34
34
37
44
41
21
16
12
14
18
29
32
40
42
32
21
18
14
9
14
32
39
40
33
32
27
18
7
10
19
35
33
40
35
28
21
17
10
12
20
28
36
41
30
27
23
12
3
14
17
22
29
39
37
26
17
10
6
12
18
28
29
38
33
25
15
9
1
10
15
29
30
35
30
21
12
10
4
10
14
31
33
39
37
20
13
9
-3
6
14
25
27
35
27
19
10
10
2
11
17
28
31
40
33
24
17
12
4
13
18
30
34
40
34
24
17
16
15
22
25
32
39
46
40
20
13
9
8
16
26
30
26
36
28
19
12
3
1
9
13
21
24
28
26
12
6
-3
1
7
19
22
30
34
19
11
7
2
3
3
5
11
17
14
6
-2
-4
-8
9
36
53
69
90
105
111
103
85
62
45
51
51
37
22
-4
-34
-38
-37
-46
-35
-28
-23
-12
3
1
-4
-8
-9
-14
-1
2
16
19
32
22
13
7
10
-1
3
9
20
24
35
31
21
9
10
-1
7
13
24
28
32
30
27
15
14
4
15
25
35
29
40
26
25
18
16
7
13
17
29
29
44
33
28
25
21
10
17
30
35
38
46
41
33
31
24
23
32
41
50
54
65
60
50
46
38
38
45
56
62
72
74
67
61
59
46
43
48
54
66
70
69
61
53
43
39
35
40
49
54
58
55
46
39
34
18
14
21
28
34
35
35
27
14
14
-2
-2
4
9
23
33
30
14
2
-1
-9
-9
-1
6
8
25
15
9
-1
-7
-10
-4
-5
4
10
17
17
12
0
-7
-18
-8
-2
10
12
24
21
9
-6
-4
-9
-8
-3
5
12
27
19
10
-2
-5
-9
-4
-1
17
15
24
17
14
-2
-2
-13
-5
-1
11
14
23
18
7
-4
-5
-9
-4
3
13
14
21
18
2
-4
-10
-17
-10
-2
9
14
23
12
3
-8
-9
-15
-7
-2
9
10
17
11
0
-5
-8
-16
-7
1
10
9
21
9
6
0
-1
-7
-5
1
12
14
16
6
6
-4
-12
-14
-8
0
13
17
21
15
9
2
-4
-8
0
8
18
25
26
12
5
-2
-11
-11
-5
8
9
13
14
0
-4
-8
-15
-13
-7
0
3
6
10
5
-7
-16
-21
-18
-8
0
3
12
12
-1
-8
-20
-30
-23
-20
-15
-9
-4
-3
-4
-1
7
10
29
52
76
91
100
86
62
32
25
10
1
-15
-30
-43
-33
-34
-35
-53
-55
-61
-48
-38
-20
-11
-7
-4
-8
-16
-19
-25
-16
-10
-1
10
16
5
-2
-10
-11
-18
-8
0
7
9
18
16
3
-6
-10
-15
-5
2
11
12
22
13
6
2
-2
-5
-2
3
12
14
24
18
10
6
-1
-5
-1
7
16
24
39
23
9
5
3
-1
10
19
24
33
35
28
23
16
19
17
24
34
42
49
55
54
37
35
33
30
38
48
56
57
58
55
43
38
34
34
37
47
54
59
57
46
38
31
22
22
31
33
32
41
33
27
16
3
0
4
6
19
14
27
23
15
-3
-11
-19
-14
-5
3
9
20
12
0
-7
-13
-18
-12
-11
1
7
13
8
2
-9
-12
-23
-14
-9
4
1
14
9
2
-8
-10
-14
-9
-6
3
6
13
9
11
-1
-11
-19
-8
-4
8
10
20
13
3
-4
-5
-10
-7
-4
6
13
18
13
8
-4
-5
-14
-8
0
10
13
20
12
1
-6
-11
-12
-4
4
8
9
15
9
2
-2
-7
-15
-8
-1
5
9
19
9
1
-7
-12
-15
-5
-2
13
12
13
9
0
-7
-13
-16
-7
1
10
11
15
1
2
-5
-13
-7
-8
4
12
14
19
11
-6
-7
-11
-13
-6
4
12
19
18
13
9
1
-7
-1
3
12
13
23
21
17
9
2
-9
-2
2
14
15
19
16
15
0
-12
-17
-6
-5
5
8
16
13
12
-5
-14
-20
-15
-7
2
10
16
11
1
-8
-10
-17
-10
-2
6
6
15
8
0
-3
-14
-24
-18
-12
-5
-8
5
1
-14
-18
-10
-2
21
40
62
79
105
111
97
79
55
28
31
30
13
3
-14
-43
-47
-51
-51
-52
-41
-32
-17
-13
1
3
-10
-16
-15
-15
-8
-3
14
15
18
15
6
-6
-6
-9
-2
7
20
19
20
14
7
0
-5
-8
-3
9
15
22
23
22
8
2
-5
-3
4
13
26
25
28
20
12
5
0
1
11
20
25
28
30
25
17
18
5
1
13
22
32
44
38
35
26
9
9
19
28
42
44
56
51
45
39
35
31
32
46
50
61
71
64
62
51
45
35
43
53
54
61
72
60
55
45
42
31
37
35
48
53
58
47
43
25
11
5
15
15
26
25
30
28
18
5
-1
-5
-1
3
15
14
24
19
5
-3
-2
-13
-2
3
14
11
16
9
4
-4
-8
-16
-8
2
16
19
23
10
8
-6
-7
-10
-3
2
12
12
19
11
5
-1
-7
-5
-1
7
13
16
22
15
6
3
-7
-12
-5
8
15
18
23
16
5
3
-1
-4
5
7
13
18
20
16
5
0
-11
-10
-2
5
10
21
20
12
7
-5
-9
-9
-3
12
14
20
13
7
-2
-5
-8
-8
-2
7
10
19
19
14
-2
-8
-12
-10
-1
4
13
22
20
10
0
-9
-19
-6
-3
4
10
20
17
9
-6
-4
-20
-9
-6
6
11
18
15
7
-2
-11
-14
-7
-2
11
21
18
19
11
-3
-1
-6
-1
7
14
12
27
22
15
10
7
-8
-2
0
14
18
25
16
9
-3
-5
-12
-2
2
10
13
12
10
0
-9
-14
-21
-11
-4
2
4
12
9
-3
-10
-7
-14
-11
-5
2
7
9
0
-6
-12
-15
-19
-10
-10
-6
5
-2
-8
-15
-22
-22
-20
-1
27
49
70
81
98
98
93
82
64
40
45
41
25
10
-24
-55
-58
-64
-65
-49
-33
-28
-18
-4
-8
-23
-25
-27
-18
-7
0
3
11
13
8
0
-10
-8
-9
-2
1
12
17
19
7
-1
-3
-11
-6
4
11
9
20
16
10
3
-6
-13
6
9
11
13
21
23
14
5
4
-8
2
6
19
25
33
29
23
10
3
-1
6
11
22
28
43
40
21
12
18
12
16
21
32
38
46
48
45
29
29
25
28
38
59
51
63
58
53
42
39
39
43
50
57
58
65
60
52
44
36
32
37
41
50
49
54
44
35
22
21
6
10
21
31
26
31
29
9
2
0
-9
-3
4
11
17
19
13
-1
-10
-8
-13
-12
-4
5
10
12
7
-5
-10
-14
-19
-8
3
12
15
10
6
-6
-16
-17
-24
-10
0
6
12
18
3
-1
-9
-15
-13
-9
1
3
12
16
7
-6
-13
-17
-9
-3
-1
6
16
12
5
-1
-10
-11
-10
1
7
10
19
11
3
-11
-13
-17
-13
-6
3
8
20
10
0
-10
-10
-19
-16
-10
3
9
18
13
7
-7
-11
-18
-11
-1
-1
3
14
8
1
-9
-12
-19
-16
-7
6
5
13
8
-1
-13
-17
-20
-12
-6
8
9
11
3
-4
-9
-12
-23
-12
-1
9
10
19
3
-10
-14
-10
-16
-16
-5
7
9
15
6
1
-6
-10
-16
-9
5
10
10
14
11
-1
-4
-6
-8
3
0
8
14
16
11
1
-3
-9
-14
-13
-1
5
3
11
8
-6
-19
-19
-21
-15
-6
2
5
8
-2
-9
-17
-21
-22
-12
-13
-1
12
6
-7
-13
-20
-23
-18
-14
-1
1
5
0
-12
-21
-31
-38
-32
-17
-3
15
31
47
48
56
70
71
74
68
52
46
54
36
11
-19
-57
-77
-67
-55
-42
-42
-29
-31
-41
-47
-37
-39
-30
-21
-9
0
12
9
-7
-9
-9
-24
-10
-1
-1
7
15
7
0
-8
-13
-16
-9
-6
7
10
14
16
6
-6
-6
-15
-3
3
13
15
22
19
10
-4
-8
-8
-1
4
17
14
28
23
17
5
-3
-1
4
12
23
21
32
30
19
10
6
1
14
25
31
35
39
39
25
23
19
20
28
40
47
51
59
52
48
39
34
32
40
50
55
64
64
56
42
41
28
25
36
47
48
52
50
46
26
27
13
9
17
25
29
31
29
16
7
-3
-9
-8
0
10
15
15
13
8
-6
-6
-18
-18
-15
1
3
15
7
4
-6
-12
-22
-23
-8
0
4
8
7
-1
-13
-13
-19
-13
-9
-1
2
10
5
-7
-4
-10
-19
-14
-10
-3
8
17
12
1
-4
-7
-18
-10
-5
4
3
19
13
7
-8
-5
-11
-13
-3
4
14
22
13
8
-3
-9
-18
-13
0
9
11
22
8
1
-5
-8
-22
-16
-2
4
9
18
11
3
-9
-11
-13
-10
0
1
6
17
16
5
-8
-7
-10
-7
-1
10
13
18
11
3
-8
-18
-17
-4
11
8
13
21
12
6
-3
-11
-13
-5
10
11
21
23
16
6
-3
-5
-2
4
11
18
17
20
12
3
-8
-11
-11
-6
2
1
21
11
2
-4
-9
-20
-15
-1
-1
6
12
17
0
-11
-12
-20
-11
-7
1
1
9
7
-4
-15
-19
-27
-25
-15
-9
2
24
24
35
39
49
56
78
86
98
88
65
50
48
13
-5
-37
-53
-40
-37
-29
-23
-29
-36
-42
-38
-45
-26
-17
-1
2
20
7
4
-6
-7
-16
-12
0
14
14
22
17
5
0
-3
-7
2
11
11
14
26
14
6
-1
-1
-5
0
6
15
18
27
21
15
0
2
-4
6
13
19
24
29
21
14
11
5
2
12
22
28
33
35
32
20
18
14
5
21
29
33
45
47
40
32
30
22
24
36
47
48
57
62
59
47
39
36
39
46
57
62
72
65
62
57
42
42
43
54
49
53
69
62
53
41
31
19
17
25
35
36
47
37
23
21
11
5
4
10
23
20
30
24
12
3
-2
-6
-2
3
18
15
22
16
5
-2
-9
-14
-4
0
9
12
19
18
6
-1
-7
-18
-2
9
12
8
18
14
6
-5
-5
-13
-8
3
14
20
25
15
11
6
0
-3
-2
8
15
22
24
20
11
4
2
-3
4
11
19
20
26
18
13
6
2
-7
-4
12
16
27
32
20
5
3
-1
-1
2
13
12
18
27
19
13
1
2
-4
1
9
17
24
26
17
7
0
-4
-3
-2
11
19
24
24
18
5
-3
3
1
3
15
20
28
25
13
14
9
-6
-3
12
11
15
30
30
23
15
5
-2
2
12
21
23
36
31
24
13
10
-2
4
14
25
22
30
26
18
7
4
-7
1
4
17
15
23
22
15
7
-2
-12
0
5
12
14
21
20
14
5
-2
-13
-7
4
10
14
17
15
0
-5
-8
-23
-13
6
24
41
61
69
76
93
92
91
83
79
59
53
55
35
7
-26
-44
-52
-43
-27
-25
-13
-6
-8
-11
-16
-12
-16
-8
2
16
17
28
21
12
1
-1
-3
4
14
21
31
34
22
16
8
9
7
7
12
25
31
32
24
20
14
10
7
8
21
28
32
33
26
17
11
7
9
18
27
37
45
41
38
26
19
13
17
25
30
33
54
47
37
32
27
21
26
35
46
53
60
50
58
46
34
38
39
46
58
64
73
70
62
54
54
42
52
57
65
67
81
73
63
54
53
43
46
55
63
67
76
63
54
47
39
25
25
26
40
39
46
41
32
23
18
7
7
15
23
24
37
29
19
9
6
-2
6
14
20
27
35
29
21
7
8
-5
2
10
21
24
34
25
17
10
7
0
6
20
26
27
29
23
19
13
7
0
6
16
21
32
36
28
22
12
8
6
9
19
25
32
37
31
22
13
7
4
10
19
23
37
36
28
22
9
6
3
16
24
32
35
37
27
17
1
4
6
9
20
21
28
34
32
16
13
5
14
10
19
28
32
31
26
20
12
2
7
14
23
31
30
29
22
17
9
3
7
10
21
23
41
30
21
12
5
7
9
12
21
31
40
37
27
10
14
7
19
19
27
33
46
36
22
14
17
14
14
16
34
33
44
37
28
20
16
0
14
22
29
28
32
22
19
9
13
3
3
8
20
30
30
29
20
10
10
-1
8
15
18
20
31
28
15
3
14
-1
3
16
23
27
32
19
10
-1
-7
-9
-5
7
14
31
42
52
66
70
82
89
104
115
113
102
79
59
43
17
-6
-29
-46
-39
-22
-16
-8
-9
-14
-16
-18
-8
0
10
16
27
26
25
18
14
-10
3
15
21
28
36
37
32
14
11
4
6
15
30
34
39
37
32
19
14
8
15
27
34
33
38
42
38
21
21
8
17
20
32
39
47
50
36
27
26
19
29
28
41
44
51
48
40
39
36
22
39
39
45
55
67
60
55
50
41
36
48
55
75
69
87
77
68
60
64
53
58
72
81
78
88
84
81
63
61
56
65
59
77
77
83
78
68
51
50
43
42
53
57
60
62
57
43
30
23
18
28
30
37
40
44
36
25
16
12
9
8
15
30
32
36
27
18
16
1
1
8
18
29
31
34
29
20
9
7
6
11
19
28
38
38
24
16
11
5
8
18
23
30
34
33
29
19
8
13
4
14
23
29
34
36
30
17
10
9
11
16
23
27
35
37
34
19
11
8
11
15
25
31
44
30
25
11
13
3
1
13
26
32
38
32
26
14
11
2
16
16
27
28
38
30
24
7
14
5
12
14
24
29
38
28
22
12
11
1
7
15
25
26
39
34
27
9
9
1
12
20
26
25
34
29
26
14
13
8
15
24
34
33
42
35
31
18
14
4
13
20
34
39
46
33
30
17
19
12
16
22
31
33
40
28
22
14
7
9
7
15
24
27
32
29
15
10
5
0
10
19
20
28
33
26
17
6
1
-4
10
16
21
29
26
16
3
-3
-8
-7
0
6
23
43
58
61
66
76
86
100
112
105
95
79
76
57
31
8
-29
-46
-36
-20
-17
-9
-10
-16
-23
-16
-21
-11
2
14
15
28
24
16
9
7
1
6
17
22
24
37
27
26
14
12
5
15
20
27
31
34
33
27
14
14
5
14
20
31
34
42
36
26
16
14
11
21
24
35
36
45
41
32
19
20
12
22
29
39
42
50
42
39
29
25
20
27
41
53
55
60
58
51
41
37
38
43
57
68
66
75
68
62
56
55
46
60
71
72
76
83
72
65
63
50
47
50
64
71
66
74
63
52
46
37
36
38
43
50
49
51
43
35
22
16
19
24
31
29
37
31
23
20
9
7
6
14
21
27
34
32
23
11
5
-1
-3
5
18
22
29
30
20
10
7
4
5
9
19
21
32
30
24
8
12
-2
3
7
22
29
35
31
23
14
9
4
9
14
22
25
42
33
25
18
14
5
10
16
18
25
35
33
22
8
10
1
11
20
30
29
38
31
16
9
8
2
12
16
26
31
32
28
22
9
10
5
8
18
21
25
32
29
17
13
10
3
7
17
31
34
37
28
18
10
8
8
4
20
31
34
40
34
19
14
13
1
12
22
29
34
39
30
23
19
13
10
17
25
32
38
38
31
20
14
11
12
14
24
29
36
26
22
7
3
1
-2
6
14
22
32
29
22
10
4
-5
1
8
19
20
32
32
24
15
4
-8
-4
1
9
11
14
18
17
13
24
24
43
62
87
109
119
109
95
61
49
32
28
15
3
-18
-18
-19
-22
-27
-32
-42
-36
-24
-10
-1
17
16
14
-2
3
-8
0
15
25
28
34
23
25
13
12
3
13
22
30
29
37
34
23
15
15
0
11
19
34
31
40
33
29
11
23
9
22
29
33
39
43
39
32
23
22
14
19
27
35
42
49
43
37
30
21
22
32
39
48
49
58
54
45
43
43
35
39
53
61
68
69
66
59
55
46
49
55
66
76
83
79
75
66
63
57
55
61
72
74
86
82
67
61
54
43
42
46
57
58
63
58
50
37
30
20
28
34
33
34
46
40
29
18
16
7
14
18
29
36
36
32
26
16
7
-1
7
13
24
27
31
28
20
11
11
-1
7
14
25
26
37
33
23
9
10
4
11
13
24
26
36
31
23
14
13
3
12
18
31
37
44
34
23
18
17
6
12
20
29
32
44
35
25
17
16
11
10
21
29
37
38
34
31
20
18
6
12
20
30
37
40
28
21
12
10
7
19
22
32
37
39
29
23
16
12
6
16
25
30
42
46
32
22
18
11
12
21
26
32
36
42
35
27
16
13
9
20
32
32
43
40
34
27
22
15
17
27
34
40
44
47
38
26
22
12
20
23
34
36
42
38
32
19
19
7
14
20
26
28
34
31
27
17
14
3
7
18
25
34
41
32
25
16
9
2
8
15
20
24
29
20
15
7
10
9
29
36
61
78
107
122
123
110
97
73
57
62
65
49
38
4
-19
-29
-30
-31
-21
-13
-6
-1
11
16
12
13
10
6
14
20
29
29
41
33
32
17
14
11
21
27
34
38
44
41
33
20
18
17
24
35
39
38
48
43
38
24
23
17
26
37
43
45
51
44
33
26
26
25
32
39
45
53
58
45
39
33
27
31
39
51
52
55
58
60
46
38
36
40
46
55
62
77
75
69
63
56
54
60
68
74
82
91
88
80
73
67
61
63
69
85
82
89
87
73
72
65
59
60
63
71
73
79
73
58
48
45
34
38
44
47
49
59
50
42
30
34
21
20
23
35
35
46
38
37
25
20
9
18
26
34
39
45
35
27
19
18
11
18
24
32
39
46
36
26
21
16
13
15
24
31
38
46
34
25
25
22
13
17
29
37
35
47
44
31
20
21
15
22
30
38
40
46
45
30
27
23
19
25
35
39
45
47
43
33
21
17
19
23
37
36
41
47
41
29
24
21
18
15
31
35
40
41
34
26
23
18
15
24
36
41
43
39
34
22
21
11
18
23
30
36
45
48
40
32
23
9
13
24
35
38
47
42
36
27
24
16
20
24
35
41
50
47
39
26
28
22
24
33
40
41
55
48
40
33
31
17
19
30
38
42
49
41
33
25
19
9
14
21
31
32
41
34
27
14
21
7
14
21
30
35
46
34
24
16
14
8
11
17
24
27
28
29
18
7
6
4
24
39
65
87
111
114
118
117
112
91
68
57
59
50
37
15
-15
-38
-36
-37
-25
-9
2
6
16
14
11
7
7
5
13
19
31
37
41
34
27
22
13
10
16
31
36
33
42
35
32
16
11
19
25
28
39
44
41
38
27
23
18
20
27
35
43
50
46
39
34
27
16
19
28
37
50
57
54
41
35
26
21
28
35
47
50
65
56
51
43
40
28
37
49
56
59
71
75
65
56
58
47
56
63
80
73
88
83
71
65
65
57
61
71
80
82
92
84
79
66
62
56
65
68
68
70
77
66
58
48
41
39
41
45
51
45
58
56
33
21
21
10
16
23
30
37
41
35
26
17
15
5
12
19
29
30
38
29
24
12
11
7
10
19
22
33
37
30
22
12
10
7
12
19
27
33
38
30
22
11
9
5
9
19
25
33
37
28
20
9
7
5
14
22
28
30
35
30
23
15
7
6
14
24
32
35
35
31
19
14
3
7
14
23
28
41
39
32
16
13
-1
5
17
23
30
36
28
21
13
11
5
6
10
20
30
37
32
25
15
10
-3
10
14
20
27
35
31
23
13
10
-3
1
9
22
26
33
25
18
7
7
0
11
17
20
29
31
30
25
3
5
-4
1
11
21
23
33
28
22
13
7
4
2
15
28
29
38
31
21
11
8
2
7
15
31
31
39
33
28
12
18
5
10
17
27
28
34
26
12
5
3
-1
8
14
18
20
28
19
9
5
-4
-2
5
11
15
21
22
17
7
1
-4
-3
4
12
19
23
22
9
8
-2
-9
-11
-6
-1
1
6
7
5
10
12
20
36
61
77
106
119
121
106
75
49
43
27
18
8
-17
-31
-24
-30
-34
-33
-42
-39
-28
-13
-11
4
6
3
-1
-4
-13
-6
2
11
16
24
19
12
4
4
-8
0
8
15
26
30
24
16
11
9
-5
-1
7
22
18
32
23
19
10
8
4
4
13
22
26
36
33
20
6
12
2
4
12
27
25
38
31
27
15
14
7
17
27
32
33
42
37
35
27
20
17
25
40
48
55
59
52
45
39
38
39
41
46
54
68
66
65
53
45
44
39
48
57
70
63
65
57
50
45
36
33
36
40
45
47
49
44
30
19
14
15
18
20
22
30
28
17
9
4
-1
-3
1
8
15
27
20
11
2
0
-9
-8
-1
8
14
22
21
3
-4
-9
-12
-10
-4
3
11
17
14
7
-5
-5
-17
-10
-2
6
12
18
18
8
-3
-9
-15
-14
6
4
12
16
14
4
-7
-4
-10
-5
5
12
14
23
18
8
3
2
-15
-3
1
11
10
27
23
10
-7
-6
-12
-6
-2
7
10
21
21
9
-2
-7
-10
-9
1
12
12
20
14
7
-5
-4
-9
-4
-2
12
19
23
17
12
-2
-2
-9
-3
4
16
21
24
20
13
3
5
-6
1
8
14
20
23
21
9
2
3
-7
0
18
24
30
33
19
13
9
6
-7
4
15
20
24
26
20
5
1
-9
-6
2
7
5
13
22
16
1
-6
-15
-11
-1
6
11
14
10
10
2
-3
-7
-1
0
0
8
19
14
8
-11
-13
-29
-23
-16
-1
10
35
52
55
62
74
88
98
97
95
79
70
58
40
6
-15
-48
-55
-47
-33
-24
-17
-18
-25
-28
-30
-24
-13
-10
4
13
20
16
5
-1
-3
-3
-7
8
14
15
25
21
16
4
4
-6
1
9
19
21
27
18
17
12
8
-4
-2
10
19
18
32
29
20
13
8
0
4
18
30
31
35
27
19
12
10
6
13
23
25
32
42
35
30
18
20
14
21
32
43
47
52
45
39
30
32
32
37
52
60
65
69
60
57
48
45
44
57
58
65
73
72
67
59
54
45
41
50
61
63
68
65
55
47
38
35
25
30
35
40
43
42
25
18
13
5
2
12
16
22
28
20
18
-2
1
-10
0
4
8
9
21
10
-1
-4
-2
-12
-9
-3
5
9
20
10
5
-6
-10
-16
-10
0
13
21
19
9
3
-3
-8
-19
-10
0
9
15
19
12
5
-4
-6
-15
-5
-1
10
13
18
14
12
3
-3
-11
-4
8
13
11
16
17
12
-5
-4
-10
-1
3
13
10
21
14
5
2
-7
-11
-4
0
9
21
14
17
0
-3
-6
-16
-4
9
11
12
17
15
0
-7
-9
-12
-5
3
16
18
21
7
-3
-6
-13
-13
-7
-2
7
13
19
10
1
-5
-12
-10
-5
6
6
19
12
7
-6
-7
-16
-11
-4
2
7
13
15
7
1
-3
-13
-9
-3
3
12
22
17
9
-2
-2
-5
-4
5
15
12
27
18
10
-1
1
-8
0
5
17
21
20
23
13
1
1
-8
-11
-1
10
10
17
11
7
-3
-13
-19
-10
-7
-1
3
14
12
2
-7
-10
-24
-14
-3
3
7
16
9
-2
-8
-10
-21
-14
-7
3
1
10
2
-14
-20
-22
-32
-23
-9
13
32
55
63
72
83
93
84
83
78
61
55
56
27
-7
-39
-65
-74
-64
-52
-35
-26
-19
-29
-27
-28
-33
-36
-25
-6
3
7
8
9
-2
-6
-17
-16
-14
-4
6
11
12
5
-6
-9
-10
-12
-10
-1
8
14
17
10
4
-3
-12
-12
-4
5
15
18
16
11
4
0
-6
-7
3
13
16
25
18
9
12
1
-8
-4
4
16
21
28
27
20
12
12
2
9
13
26
30
44
41
33
26
19
12
21
34
42
47
58
53
50
44
39
35
38
39
55
55
68
58
48
40
37
30
35
43
48
50
62
47
40
28
24
15
15
20
33
32
35
30
17
7
1
-7
3
5
9
14
20
13
5
-8
-11
-17
-10
-3
6
9
17
5
-3
-12
-14
-20
-10
-2
-3
2
13
5
-3
-13
-18
-21
-14
-8
1
4
14
6
0
-11
-14
-22
-17
-6
2
8
12
6
-4
-10
-16
-15
-9
-1
-4
10
9
0
-2
-9
-17
-17
-11
-2
2
9
11
4
-3
-11
-15
-15
-7
2
3
15
8
2
-3
-11
-10
-23
-11
1
0
12
6
4
-1
-11
-21
-21
-11
3
5
11
12
2
-11
-8
-22
-21
-13
-3
1
10
10
-6
-11
-14
-25
-17
-13
-1
0
14
7
-2
-18
-16
-29
-19
-8
3
0
7
1
-6
-11
-14
-23
-19
-11
-2
1
8
10
-4
-5
-11
-26
-19
-9
2
4
13
9
-2
-5
-9
-19
-13
-2
5
13
19
13
4
-10
-10
-18
-10
-2
6
8
13
3
-3
-10
-23
-22
-11
-5
0
1
3
0
-9
-16
-21
-28
-15
-9
-3
1
6
0
-7
-19
-23
-19
-8
-9
-4
1
3
-6
-10
-17
-23
-28
-30
-18
-9
-11
-11
-6
-11
1
10
22
44
71
92
98
88
69
39
21
10
4
-14
-28
-45
-44
-43
-46
-54
-57
-64
-57
-47
-35
-25
-5
-7
-18
-20
-23
-27
-19
-14
-7
4
13
2
-3
-5
-15
-21
-11
-13
5
7
12
9
6
-8
-11
-19
-9
-9
4
7
9
11
0
-1
-6
-20
-11
-3
7
15
22
13
7
-5
-7
-13
-7
-1
10
13
17
17
10
2
2
0
3
7
21
18
31
24
15
13
11
8
12
17
32
40
49
46
27
24
21
20
28
35
48
51
55
48
42
35
30
32
37
38
46
47
46
45
32
26
18
15
16
35
34
40
37
23
10
3
-3
-2
-3
6
9
16
17
10
-2
-15
-18
-19
-17
-6
-1
5
6
-2
-10
-16
-24
-24
-16
-6
2
3
2
-4
-13
-21
-30
-26
-22
-7
-2
6
-1
-7
-15
-17
-29
-24
-14
-7
-6
1
0
-8
-13
-13
-25
-19
-16
-6
-2
9
1
-5
-10
-15
-22
-16
-8
-2
4
14
10
7
-11
-15
-24
-15
-8
4
3
12
6
1
-14
-11
-23
-18
-4
5
4
8
3
-3
-11
-12
-20
-18
-9
-3
2
15
4
-9
-13
-17
-19
-14
-8
-4
2
15
2
-10
-13
-17
-22
-20
-11
-1
5
9
3
-8
-13
-10
-22
-14
-5
3
7
13
6
0
-8
-21
-18
-15
-9
1
6
10
8
0
-7
-11
-16
-6
3
8
11
15
7
2
-4
-13
-11
-7
2
10
15
18
4
-7
-15
-20
-19
-16
-6
-3
4
3
-2
-9
-15
-29
-23
-15
-2
-4
8
6
-1
-11
-14
-23
-21
-17
-7
-2
5
-3
-13
-22
-25
-31
-38
-20
-3
15
35
44
53
57
72
66
67
66
48
42
48
34
11
-23
-53
-68
-61
-52
-44
-34
-25
-34
-36
-40
-37
-41
-30
-19
-9
-1
11
3
-4
-13
-13
-18
-16
-11
0
7
16
14
3
-8
-10
-19
-10
-3
10
11
14
14
2
-5
-4
-13
-8
-1
8
12
21
22
3
-1
-1
-8
-2
4
15
16
25
20
8
0
3
-6
0
12
22
25
32
19
13
9
12
10
7
18
33
38
41
36
26
25
24
26
30
38
51
57
60
52
44
37
34
36
46
58
57
62
59
56
53
39
33
35
41
46
50
57
52
40
33
23
15
13
19
34
28
35
26
22
7
6
-5
-7
-2
11
12
20
18
7
-7
-5
-21
-14
-6
3
3
18
9
1
-8
-7
-25
-15
-6
5
4
16
11
-2
-12
-12
-23
-16
-6
2
9
21
9
-2
-10
-10
-21
-16
-6
3
3
16
7
5
-10
-7
-17
-7
0
15
16
19
12
2
-9
-5
-13
-9
1
11
11
17
17
4
-4
-5
-12
-2
5
15
15
18
14
2
-6
-3
-14
-6
3
11
11
21
5
3
-1
-4
-5
-8
-1
6
16
23
11
-1
-5
-11
-13
-7
1
12
14
14
8
0
-5
-10
-13
-8
2
5
13
15
10
0
-6
-12
-12
-7
3
10
13
15
11
0
-10
-16
-13
-6
7
10
16
15
6
-2
-6
-9
-14
-9
5
16
17
20
6
-5
-7
-11
-5
1
10
15
24
23
15
-1
1
-10
1
7
20
20
27
23
13
4
1
-5
1
3
5
11
22
14
9
-6
-9
-16
-12
-6
2
6
18
8
3
-3
-7
-14
-10
-5
5
8
15
12
3
-3
-9
-20
-11
-5
6
12
18
9
-7
-13
-15
-21
-18
-13
-7
0
12
23
29
43
53
57
79
99
107
102
87
52
35
23
-6
-21
-39
-51
-42
-34
-27
-25
-26
-32
-33
-38
-24
-11
-3
1
10
5
-1
-8
-11
-9
-3
4
9
17
21
13
3
0
-6
-9
2
9
17
22
24
19
6
3
-8
-3
5
6
20
26
22
16
6
1
-10
0
4
14
21
32
19
13
9
7
0
4
14
16
27
33
27
24
16
8
6
10
17
29
34
44
40
32
26
23
13
20
33
43
51
60
50
44
43
38
36
43
48
57
61
73
67
60
50
49
37
47
46
63
62
64
56
53
41
36
29
31
36
46
45
49
40
31
24
20
1
11
18
28
26
30
21
11
0
0
-9
-1
6
14
14
18
17
7
-3
-5
-7
-4
0
9
16
21
14
8
-6
-4
-12
-10
0
14
15
22
14
6
-1
-3
-13
-2
5
12
13
21
15
4
-4
-12
-4
-2
8
15
16
21
12
7
-4
-7
-8
0
8
14
17
18
9
5
-2
-9
-8
4
12
14
22
17
11
5
-2
-8
-6
1
13
15
28
27
13
1
-4
-14
-7
4
13
18
24
20
12
4
1
-10
-7
1
7
12
24
16
10
-1
1
-7
-1
0
8
19
20
16
12
-5
-4
-11
-8
0
15
16
25
16
10
-1
0
-18
-9
2
17
17
22
18
8
-2
-3
-6
-2
2
12
15
25
18
9
2
2
-9
1
14
22
20
24
23
13
2
4
-3
1
9
19
25
32
27
16
7
5
-3
8
15
22
20
27
22
9
2
3
-9
-5
11
16
20
20
13
0
-6
-7
-14
-4
9
14
21
20
12
3
0
-10
-9
0
-3
15
21
17
10
0
-4
-12
-11
-8
-5
1
6
7
2
-3
2
2
12
25
63
79
105
109
96
77
50
30
29
23
17
6
-12
-31
-37
-43
-45
-50
-41
-38
-23
-15
2
1
-7
-7
-7
-15
-7
1
16
17
24
14
15
4
4
-2
2
8
19
21
35
26
25
5
8
-1
5
7
16
22
37
24
18
11
3
2
9
14
24
26
35
28
21
11
7
-2
11
17
23
27
38
32
24
18
18
7
15
34
42
31
39
33
25
20
20
19
28
35
46
54
53
50
48
33
36
33
39
53
66
70
72
66
56
47
44
45
46
59
67
72
73
67
58
52
40
39
47
45
56
58
57
48
41
29
20
17
23
29
36
39
39
34
16
17
5
-1
4
19
21
32
25
20
16
3
-8
0
5
16
17
21
28
15
6
-2
-7
-5
3
14
15
24
22
12
3
3
-9
-9
3
10
14
27
19
11
8
7
-10
1
9
18
22
23
16
14
4
-1
-2
10
11
14
20
29
28
10
6
6
-5
-2
9
22
23
30
29
19
12
4
-1
14
11
21
19
28
25
13
8
9
3
5
10
23
28
30
25
12
11
6
-2
1
8
26
24
29
28
17
2
6
2
5
10
21
26
29
20
16
9
4
5
6
9
22
24
31
22
12
11
2
-2
5
13
20
28
32
23
17
4
-3
8
10
15
24
30
29
25
17
15
2
6
14
20
28
35
35
27
20
18
11
8
15
27
31
40
39
34
24
17
9
13
22
33
29
39
35
29
21
11
-1
7
14
26
25
35
23
22
14
9
-7
2
13
26
25
31
27
18
17
11
3
13
13
23
25
30
34
21
10
6
-2
7
10
22
23
32
22
18
18
31
30
53
70
91
109
127
118
98
71
42
24
21
12
8
-7
-14
-26
-35
-36
-23
-33
-17
2
2
11
28
21
20
11
13
5
13
21
31
33
38
31
26
20
12
11
21
21
32
40
46
38
27
21
6
11
19
24
32
36
46
38
28
19
16
16
25
27
39
47
50
38
29
19
15
15
27
35
43
53
57
50
37
28
24
25
33
30
51
59
58
50
44
38
31
35
48
54
65
76
72
63
48
54
47
50
59
72
75
85
78
73
65
60
60
55
58
76
81
89
84
79
67
56
47
48
61
64
66
72
67
61
44
38
29
32
37
48
45
49
42
30
22
20
11
16
27
36
39
54
29
28
19
19
7
19
22
32
33
38
34
26
19
20
11
15
21
34
32
39
31
22
21
17
16
13
22
30
31
34
41
21
14
17
13
15
21
34
34
44
38
23
19
19
13
18
28
36
46
43
36
31
20
13
7
18
24
35
40
45
32
28
21
16
19
21
31
36
39
36
38
25
18
17
10
18
31
29
39
41
35
25
21
16
15
23
31
34
37
39
36
24
19
17
21
12
24
34
44
43
33
19
13
14
12
20
31
40
43
36
35
19
12
11
15
22
33
39
39
37
29
19
19
12
17
24
31
34
40
41
34
20
16
12
18
23
29
25
44
41
32
25
20
15
22
27
38
38
49
45
37
27
27
19
26
34
45
43
48
43
37
31
30
17
18
32
38
44
50
40
25
16
18
14
18
27
35
38
36
32
22
19
18
9
11
20
34
33
42
33
30
18
11
14
15
32
42
38
38
31
17
11
8
10
11
24
37
49
59
63
69
84
82
102
116
120
114
101
77
60
39
17
-7
-23
-33
-33
-15
-7
-1
-1
-7
-8
-9
-2
14
20
29
36
38
31
23
25
11
16
25
36
43
48
44
38
34
26
13
18
33
47
43
48
45
42
31
27
15
27
36
46
48
57
47
41
36
33
22
34
40
50
50
61
57
48
40
42
29
32
41
54
57
64
57
58
45
44
34
46
50
63
62
72
73
66
57
54
45
53
69
79
79
86
82
75
70
72
62
73
79
90
92
103
92
88
77
74
68
75
84
89
86
90
87
85
66
62
69
57
68
74
77
75
64
54
47
42
40
47
52
53
58
60
48
42
37
25
23
30
38
44
51
54
41
34
22
23
21
32
35
39
52
48
38
37
28
22
23
32
37
41
50
47
42
37
24
21
13
33
46
55
56
55
39
31
33
26
28
37
47
45
56
51
43
31
31
26
36
41
54
50
53
51
51
29
27
23
38
38
45
60
55
53
46
37
36
28
30
41
43
44
59
53
48
35
25
14
27
32
47
48
66
60
52
26
36
24
29
42
52
51
58
50
43
37
36
23
28
40
49
51
54
45
41
37
31
27
28
39
44
47
56
46
37
29
24
23
28
38
43
47
53
48
40
35
22
25
29
39
47
53
50
42
38
34
33
24
32
46
53
57
59
55
45
40
38
32
41
49
51
56
54
54
45
42
36
38
41
52
54
60
58
48
41
36
26
31
38
42
46
56
47
46
31
27
26
29
40
42
44
53
47
38
31
32
14
18
34
42
43
54
49
42
35
32
19
25
24
29
36
46
43
32
23
13
27
42
62
83
108
131
136
140
129
119
86
70
70
67
46
37
2
-29
-35
-29
-31
-23
-16
-3
5
18
22
20
16
16
9
23
30
43
44
52
54
38
34
35
24
34
41
51
55
60
52
43
31
35
25
35
45
52
55
60
53
45
41
33
26
38
48
55
58
63
52
52
49
33
33
44
51
57
63
66
62
51
47
41
42
52
65
65
72
73
66
57
55
52
50
62
69
79
87
81
75
72
72
60
66
73
86
93
104
104
90
91
82
66
76
85
96
96
99
105
97
82
81
67
68
77
82
89
96
85
78
64
61
49
52
54
64
67
72
67
61
43
38
32
33
44
51
50
60
51
49
39
25
16
26
33
40
41
47
43
30
32
32
25
26
33
49
46
55
45
37
29
29
21
18
30
39
48
53
47
38
30
30
20
30
37
50
56
57
48
35
32
25
26
32
34
43
50
52
53
41
30
27
24
32
36
43
47
54
46
39
30
26
22
30
40
47
49
53
46
38
24
27
22
31
41
45
46
54
42
40
28
21
23
28
35
46
50
50
48
32
32
25
30
29
39
45
50
48
39
36
24
21
20
30
46
43
53
48
37
32
30
20
28
37
41
49
54
41
40
36
26
21
28
33
40
42
56
59
46
42
31
24
35
35
47
50
59
53
46
41
33
28
35
43
47
43
53
51
40
31
34
22
21
24
36
40
49
43
33
28
29
14
15
29
35
34
42
42
33
25
15
15
18
26
37
40
45
34
32
16
12
11
16
24
31
35
60
69
74
80
95
107
122
118
117
98
85
75
52
29
-2
-34
-43
-32
-14
-6
-6
-6
-14
-20
-19
-11
1
15
22
25
34
33
28
18
14
18
27
27
34
45
46
33
31
20
21
22
32
35
43
51
50
41
31
27
21
22
30
44
41
55
45
43
39
29
20
26
36
45
45
54
57
49
36
33
23
31
41
49
55
64
57
52
43
42
35
43
44
57
67
75
70
62
51
54
51
59
64
72
81
87
84
81
74
66
62
68
82
92
85
97
93
82
70
70
61
66
