-24
-29
-31
-20
-5
2
-4
-5
-11
-11
-17
-4
-23
-34
-17
-13
-11
-13
-18
-18
-25
-25
-19
-18
-22
-8
-6
12
-7
-21
-32
-29
-14
-27
-4
-10
-18
-15
-21
-26
-23
-22
-18
-10
-6
-10
-19
-14
-18
-27
-32
-34
-30
-21
-13
-12
-2
-4
-8
-6
-29
-27
-16
-32
-27
-13
-6
-15
-33
-37
-38
-37
-25
-20
-12
-1
-12
-2
-8
-39
-35
-28
-21
-23
-16
3
-27
-26
-30
-38
-27
-22
-21
-16
-18
-14
-4
-3
-23
-27
-16
-18
-46
-30
-21
-15
-8
-10
-16
-27
-20
-5
-18
-29
-14
-9
-1
-2
-19
-21
-22
-5
-18
-6
5
-8
5
-5
-27
-41
-36
-31
-27
-15
-2
5
-21
-22
-27
-31
-45
-27
-25
-17
-11
-2
-20
-20
-32
-39
-31
-35
-26
-11
-21
-29
-10
-22
-35
-47
-52
-40
-31
-44
-38
-29
-37
-29
-17
0
18
52
90
114
153
156
184
183
165
129
117
85
52
46
47
21
-21
-34
-37
-39
-43
-37
-43
-29
-20
-19
-29
-31
-43
-43
-34
-32
-29
-21
-14
-15
-15
-21
-27
-33
-46
-30
-25
-14
-19
-11
-17
-13
-10
-15
-20
-43
-35
-23
-19
-14
-23
-23
-30
-30
-31
-27
-22
-15
-4
5
6
-7
-29
-21
-12
-21
-21
-11
-8
1
1
8
-16
-6
-22
-11
4
7
19
21
12
0
-15
-1
9
3
6
23
32
43
33
41
20
5
21
22
31
49
57
55
53
34
13
26
28
28
26
30
34
35
27
11
4
8
1
3
7
12
12
12
2
-12
-4
-15
-22
-21
-25
-11
-1
-16
-20
-32
-39
-32
-22
-15
-21
-3
-2
-6
-7
-45
-48
-38
-35
-30
-19
-26
-14
-22
-33
-32
-33
-38
-43
-35
-25
-12
-11
-25
-26
-32
-36
-31
-38
-28
-22
-18
-13
-15
-18
-23
-38
-37
-21
-30
-31
-23
-13
-16
-22
-31
-32
-40
-32
-34
-19
-1
-14
-21
-29
-32
-31
-31
-37
-26
-25
-27
11
-5
-34
-30
-46
-40
-27
-19
-26
2
-13
-10
-24
-39
-51
-52
-39
-33
-30
-22
-14
-17
-26
-34
-34
-45
-29
-33
-22
-3
0
-18
-21
-25
-27
-47
-59
-33
-32
-27
-22
-17
3
-20
-58
-53
-37
-22
-32
-18
-4
-34
-47
-48
-44
-47
-37
-29
-29
-22
-22
-26
-37
-45
-45
-41
-23
-12
-24
-18
-3
-24
-28
-49
-59
-42
-42
-29
-16
-27
-26
-31
-39
-45
-35
-43
-37
-30
-17
-12
-27
-24
-25
-21
-20
-24
-46
-34
-24
3
-30
-28
-35
-42
-50
-40
-33
-9
-10
-16
-27
-29
-30
-27
-31
-30
-25
-23
-11
-15
-20
-28
-37
-45
-61
-56
-35
3
-26
-22
-44
-37
-46
-34
-34
-49
-46
-38
-25
-23
-17
-30
-28
-41
-60
-58
-46
-37
-31
-26
-51
-60
-54
-70
-73
-54
-40
-6
32
37
66
96
105
129
141
159
166
171
158
121
75
46
10
-27
-46
-60
-48
-49
-37
-48
-53
-55
-50
-70
-64
-56
-37
-30
-35
-35
-44
-38
-51
-41
-39
-58
-39
-21
1
-15
-34
-38
-68
-39
-42
-43
-39
-42
-31
-31
-40
-44
-51
-49
-51
-34
-29
-26
-11
-14
-33
-33
-41
-32
-33
-45
-28
-3
6
-33
-18
-34
-54
-41
-40
-27
1
-5
-14
-14
-12
-19
-14
-23
-12
-2
-4
-3
16
2
3
-8
-20
-8
10
11
15
34
33
22
16
20
29
25
21
28
41
30
32
42
15
-4
4
8
2
12
30
30
18
19
21
-21
-31
-28
-22
-19
-21
-12
-3
6
-29
-42
-34
-15
-37
-46
-38
-32
-25
-22
-38
-45
-42
-29
-12
-45
-40
-36
-26
-30
-40
-47
-50
-35
-47
-43
-23
-19
-22
-25
-41
-42
-44
-45
-43
-39
-34
-23
-12
-25
-42
-42
-38
-40
-25
-40
-35
-36
-28
-32
-36
-48
-47
-40
-40
-22
-20
-24
-15
-37
-35
-56
-57
-44
-34
-30
-18
-19
-13
-3
-59
-58
-45
-48
-41
-33
-19
-25
-29
-35
-22
-41
-51
-46
-38
-20
-32
-26
-33
-46
-51
-53
-49
-48
-42
-30
-20
-24
-20
-10
-29
-54
-44
-40
-43
-23
-9
-15
-43
-32
-40
-52
-60
-50
-41
-21
-13
-35
-30
-53
-57
-48
-52
-49
-32
-25
-30
-27
-26
-28
-52
-58
-47
-47
-30
-19
-34
-30
-28
-21
-18
-54
-67
-56
-45
-32
-32
-30
-34
-35
-36
-45
-44
-23
-31
-34
-34
-28
-33
-37
-34
-39
-48
-49
-29
-17
-22
-3
-19
-27
-37
-39
-58
-49
-28
-21
-20
-18
-26
-30
-45
-42
-43
-28
-22
-25
-23
-23
-26
-31
-40
-51
-68
-50
-41
-41
-32
-31
-23
-43
-57
-47
-54
-35
-30
-42
-14
-34
-51
-60
-64
-56
-57
-61
-60
-61
-54
-51
-43
-39
-22
2
40
77
117
157
156
164
166
167
128
100
54
30
21
2
-4
-35
-55
-50
-65
-69
-72
-75
-74
-62
-48
-53
-47
-52
-55
-53
-37
-48
-42
-33
-34
-22
-36
-45
-59
-71
-55
-43
-50
-48
-35
-36
-35
-9
-24
-73
-59
-52
-40
-23
-16
-24
-26
-63
-67
-56
-45
-37
-39
-37
-22
-16
-32
-41
-55
-55
-39
-29
-25
-21
-21
-21
-21
-32
-42
-35
-26
-14
12
-14
-13
-4
11
-7
-28
-27
0
7
30
16
14
8
-5
-27
-11
-2
3
12
29
38
27
18
21
14
6
0
-6
11
21
23
19
-3
-1
7
23
15
-25
-26
-19
-17
-20
-23
-31
-29
-27
-23
-27
-16
-24
-21
-35
-47
-51
-51
-56
-64
-55
-48
-31
-22
-27
-37
-41
-47
-50
-39
-48
-27
-41
-35
-31
-39
-29
-69
-39
-59
-51
-33
-36
-30
-30
-42
-54
-57
-54
-50
-31
-16
-30
-33
-40
-43
-50
-52
-55
-41
-34
-40
-26
-24
-40
-37
-46
-64
-56
-42
-38
-27
-37
-3
-26
-50
-53
-48
-40
-50
-51
-41
-23
-33
-30
-19
-50
-58
-43
-23
-38
-29
-39
-39
-35
-55
-61
-56
-39
-41
-54
-27
-40
-35
-39
-49
-52
-54
-50
-23
-41
-38
-38
-32
-31
-34
-43
-23
-67
-63
-50
-34
-32
-32
-36
-47
-51
-61
-69
-44
-45
-33
-36
-38
-31
-40
-50
-48
-46
-42
-19
-19
-26
-26
-43
-58
-64
-62
-58
-51
-38
-33
-24
-23
-31
-47
-57
-51
-39
-35
-33
-32
-25
-28
-32
-37
-41
-37
-41
-34
-18
14
-30
-19
-47
-45
-52
-60
-68
-51
-30
-19
-42
-25
-30
-31
-55
-66
-64
-55
-52
-47
-39
-42
-46
-47
-55
-50
-53
-34
-21
1
-30
-59
-48
-60
-71
-91
-82
-72
-46
-23
2
22
45
57
94
121
122
127
139
139
108
72
25
-3
-21
-43
-56
-57
-63
-59
-44
-45
-46
-58
-56
-59
-81
-67
-47
-46
-31
-46
-44
-59
-68
-59
-51
-45
-35
-25
-26
-27
-42
-54
-69
-53
-49
-48
-35
-25
-18
-35
-34
-51
-50
-33
-35
0
-36
-45
-34
-43
-44
-51
-48
-47
-39
-35
-26
-20
-9
-11
-22
-39
-42
-44
-34
-21
-20
-4
3
-1
-25
-34
-12
-1
-32
-19
-5
4
1
-3
-5
-18
-10
-3
3
10
14
21
23
23
10
1
1
1
20
35
29
32
39
29
5
-1
2
11
23
31
-8
-8
1
-2
-14
-16
-2
2
-26
-26
-22
-13
-16
-28
-39
-50
-45
-36
-27
-39
-36
-28
-30
-43
-41
-45
-47
-49
-42
-33
-38
-34
-27
-38
-41
-21
-30
-14
-29
-35
-51
-38
-32
-44
-50
-54
-50
-41
-40
-34
-33
-17
-23
-43
-51
-51
-38
-48
-26
-16
-23
-30
-33
-46
-46
-56
-31
-43
-34
-22
-11
-6
-34
-44
-43
-42
-45
-49
-49
-36
-25
-29
-31
-41
-47
-43
-22
-29
-36
-33
-27
-19
-33
-36
-48
-42
-38
-32
-40
-39
-22
-30
-30
-36
-39
-48
-38
-26
-37
-27
-25
-33
-20
-30
-54
-58
-36
-42
-48
-25
-25
-22
-27
-37
-39
-47
-44
-42
-44
-25
-15
-2
-32
-39
-39
-37
-33
-25
-33
-21
17
-10
-51
-44
-45
-49
-39
-31
-27
-17
-11
-11
-16
-26
-41
-36
-48
-40
-38
-22
-22
-32
-40
-40
-44
-45
-54
-37
-32
-47
-44
-31
-42
-45
-51
-51
-42
-18
-41
-31
-34
-28
-47
-71
-64
-61
-59
-57
-52
-51
-49
-58
-68
-64
-46
-25
23
4
46
61
64
107
113
113
116
111
98
74
42
34
17
-17
-45
-63
-65
-60
-52
-49
-58
-55
-48
-60
-59
-69
-68
-63
-49
-43
-37
-17
-30
-33
-50
-60
-55
-56
-52
-39
-33
-35
-20
-21
-45
-52
-43
-43
-47
-50
-41
-31
-32
-33
-45
-51
-45
-41
-27
-26
-18
-7
-26
-31
-49
-54
-49
-45
-41
-30
-24
-11
-10
-26
-27
-38
-41
-36
-30
-23
-16
-8
-12
-16
-15
-17
-13
-13
-10
-3
2
2
6
14
0
0
0
3
6
18
36
56
33
8
10
1
-2
-4
10
14
22
28
23
6
-3
2
-22
-14
-3
-1
7
-4
-18
-16
-27
-42
-25
-15
-22
-29
-36
-33
-25
-32
-45
-42
-45
-45
-38
-19
-23
-25
-11
-31
-49
-52
-58
-47
-42
-40
-37
-38
-33
-10
-20
-53
-60
-47
-31
-37
-30
-22
-29
-45
-53
-50
-41
-19
-43
-42
-28
-28
-38
-41
-32
-30
-43
-43
-48
-14
-24
-21
-34
-36
-35
-59
-52
-42
-30
-37
-29
-18
-25
-42
-48
-40
-35
-28
-21
-37
-21
-26
-25
-37
-42
-52
-45
-34
-32
-35
-18
-15
-42
-47
-41
-46
-40
-41
-35
-22
-18
-13
-26
-46
-48
-45
-33
-40
-43
-31
-21
-23
-12
-28
-47
-44
-43
-34
-21
-26
-23
-17
-16
-37
-48
-47
-41
-32
-34
-27
-12
-12
-18
-35
-44
-34
-23
-15
-15
-12
-5
-16
-30
-33
-38
-29
-35
-27
-28
-9
-9
-35
-39
-42
-38
-42
-41
-29
-15
-26
-23
-24
-43
-58
-53
-45
-42
-26
-28
-38
-27
-29
-31
-32
-35
-44
-52
-43
-31
-39
-39
-46
-44
-60
-69
-64
-58
-41
-22
1
31
54
59
87
97
124
169
153
140
155
121
71
39
21
4
-22
-28
-40
-39
-35
-31
-43
-36
-51
-63
-60
-45
-40
-30
-26
-21
-9
-24
-48
-44
-44
-50
-45
-28
-25
-30
-25
-37
-40
-36
-25
-24
-42
-41
-31
-32
-29
-27
-39
-44
-41
-31
-31
-24
-20
-16
-11
-23
-41
-37
-29
-38
-34
-23
-9
-11
-20
-25
-30
-29
-14
-7
-21
-17
3
-6
-13
-31
-8
-29
-17
-9
-7
1
7
15
14
-1
-11
-4
3
12
24
26
31
29
19
11
3
11
17
21
19
48
52
16
13
7
-1
16
16
5
11
17
29
6
-14
-9
-24
-8
-19
-15
-25
-22
-14
-18
-25
-34
-40
-29
-22
-24
-19
-9
-9
-29
-51
-57
-49
-41
-40
-32
-25
-20
-29
-27
-46
-47
-45
-43
-32
-30
-26
-21
-16
-3
-30
-51
-59
-47
-38
-32
-33
-28
-27
-14
-16
-14
-41
-60
-34
-32
-30
-39
-33
-37
-37
-36
-43
-36
-22
-3
-30
-30
-16
-13
-1
-68
-55
-43
-46
-35
-28
-27
-33
-34
-26
-34
-37
-29
-18
-24
-24
-20
-13
-16
-41
-58
-44
-42
-41
-23
-26
-20
-9
-18
-28
-46
-42
-54
-35
-26
-21
-12
-25
-28
-28
-37
-44
-37
-41
-38
-36
-33
-27
-35
-46
-44
-26
-38
-42
-34
-15
-10
-27
-25
-48
-48
-37
-24
-27
-26
-34
-25
-23
-30
-42
-44
-41
-21
-11
-31
-13
-4
-15
-21
-35
-47
-40
-37
-22
-13
-30
-5
8
-22
-43
-36
-51
-49
-36
-19
-17
-9
-26
-25
-61
-62
-53
-45
-34
-32
-20
-27
-18
-33
-48
-52
-38
-29
-38
-22
-26
-34
-35
-53
-63
-68
-70
-65
-52
-45
-33
-14
-3
15
42
71
78
112
138
154
156
157
153
124
87
39
24
17
-4
-3
-3
-31
-27
-40
-46
-52
-54
-58
-44
-38
-34
-29
-37
-47
-53
-60
-50
-31
-24
-13
-10
-27
-21
-29
-39
-39
-47
-47
-45
-36
-29
-29
-29
-34
-44
-40
-30
-36
-1
22
-31
-41
-44
-45
-46
-44
-39
-30
-30
-22
-5
-9
-11
-20
-36
-26
-18
-13
-29
0
-9
-18
-16
-27
-29
-13
-24
-11
-11
7
12
-1
-5
-5
2
18
11
-2
3
16
33
31
22
6
3
8
15
36
37
33
37
42
28
24
18
7
10
6
11
22
21
18
14
0
-13
-2
-6
-7
0
4
-7
-22
-19
-28
-35
-34
-22
-16
-2
-27
-32
-44
-37
-44
-28
-31
-18
-18
-19
-29
-32
-46
-48
-38
-25
-39
-34
-23
-27
-24
-27
-45
-39
-41
-30
-20
-31
-31
-25
-25
-39
-44
-41
-38
-28
-21
-35
-18
-16
-19
-25
-46
-55
-43
-36
-25
-16
-11
-31
-24
-29
-46
-42
-36
-23
-13
-27
-8
-9
-37
-46
-44
-40
-30
-38
-26
-23
-31
-20
-25
-32
-44
-48
-41
-30
-31
-19
-10
-12
-17
-37
-49
-52
-34
-33
-37
-23
-11
-17
-29
-35
-34
-32
-27
-27
3
-27
-28
-18
-30
-48
-48
-46
-48
-35
-22
-13
-26
-39
-33
-33
-46
-50
-48
-32
-22
-27
-28
-28
-37
-41
-45
-42
-39
-36
-24
-17
-17
-18
-27
-31
-29
-27
-49
-44
-8
6
-8
-45
-49
-53
-51
-53
-42
-32
-26
-22
-21
-27
-35
-32
-38
-37
-38
-44
-31
-29
-22
-33
-38
-48
-50
-42
-31
-22
-12
-18
-21
-22
-19
-42
-28
-32
-44
-33
-10
15
-3
-44
-37
-41
-36
-38
-30
-29
-20
-11
-9
-14
-25
-41
-43
-39
-21
-13
-13
-9
-18
-24
-41
-42
-53
-22
-38
-34
-33
-15
-20
-44
-34
-55
-44
-36
-34
-18
-23
-30
-33
-37
-28
-43
-45
-50
-53
-49
-48
-43
-42
-46
-45
-33
-22
-12
26
71
92
140
166
167
184
140
134
123
96
82
37
23
11
-20
-45
-43
-30
-41
-49
-41
-40
-28
-27
-43
-50
-61
-54
-52
-42
-29
-27
-25
-29
-32
-37
-38
-35
-40
-37
-7
-16
-40
-34
-34
-41
-50
-49
-36
-23
-30
-13
-14
-23
-7
-23
-46
-45
-33
-32
-40
-26
-16
-26
-28
-35
-50
-41
-29
-16
-14
-11
-4
-10
-21
-16
-26
-37
-30
-20
-11
0
-5
-4
2
-16
-8
3
2
0
8
35
35
6
18
12
6
2
13
23
21
23
33
41
37
6
13
21
26
43
36
49
32
31
16
9
0
2
6
7
4
10
15
7
-7
-13
1
-12
-15
-23
-14
-7
-16
-27
-34
-35
-39
-34
-28
-17
-13
-20
-30
-26
-32
-39
-41
-37
-33
-15
-25
-24
-21
-26
-33
-44
-41
-35
-31
-34
-19
-23
-17
-24
-18
-42
-35
-20
-38
-31
-18
-20
-15
-34
-23
-42
-33
-47
-36
-31
-17
-1
-14
-36
-39
-39
-37
-38
-30
-27
-23
-11
-7
-11
-46
-35
-32
-42
-32
-37
-29
-20
-24
-24
-34
-28
-23
-23
-36
-30
-7
-20
-27
-32
-32
-42
-38
-39
-33
-27
-10
-9
-28
-29
-37
-46
-36
-29
-29
-14
-26
-18
-28
-33
-34
-45
-45
-33
-23
-23
-8
-34
-24
-32
-45
-45
-26
-28
-39
-27
-25
-24
-28
-30
-14
-57
-48
-33
-35
-28
-8
-15
-30
-31
-48
-49
-49
-40
-36
-33
-22
-17
-22
-27
-38
-42
-46
-44
-38
-31
-16
-18
-35
-37
-27
-32
-29
-20
-38
-34
-25
-21
-28
-47
-45
-41
-41
-31
-20
-32
-15
-12
-41
-52
-44
-39
-43
-38
-40
-28
-19
-14
-27
-44
-38
-46
-53
-34
-31
-30
-15
-25
-24
-29
-30
-31
-41
-41
-27
-36
-23
-24
-30
-32
-40
-40
-37
-13
-23
-15
-13
-27
-39
-50
-46
-29
-46
-42
-25
-18
-3
-13
-26
-27
-32
-31
-14
-17
-20
-20
-15
-8
-25
-41
-36
-36
-35
-28
-22
-18
-8
-7
-11
-31
-54
-40
-42
-43
-28
-26
-21
-39
-36
-40
-47
-46
-41
-25
-34
-23
-4
-31
-28
-39
-41
-49
-45
-48
-37
-48
-33
-47
-62
-66
-63
-43
-11
7
46
76
101
132
143
147
159
148
154
144
103
70
49
34
9
-27
-38
-58
-66
-49
-36
-44
-45
-42
-37
-52
-50
-52
-48
-37
-34
-28
-11
-20
-53
-45
-49
-49
-47
-36
-14
-11
-32
-39
-32
-35
-36
-28
-45
-39
-39
-31
-30
-33
-36
-39
-44
-36
-16
-24
-19
-1
-29
-35
-26
-38
-43
-25
-42
-31
-20
-16
-14
-18
-25
-27
-30
-22
-15
3
12
6
-15
-19
-26
-23
-20
-5
-15
0
5
22
22
0
-2
1
5
39
46
25
21
29
28
26
18
11
11
13
30
23
33
45
42
26
11
52
39
-12
1
14
12
1
10
0
-20
-21
-21
-14
-8
-7
0
3
12
-28
-28
-37
-35
-28
-31
-18
-9
-26
-32
-33
-30
-28
-9
-34
-62
-32
-26
-23
-32
-33
-40
-47
-45
-31
-34
-23
-20
-16
-28
-39
-40
-39
-46
-35
-21
-19
-29
-8
-21
-30
-35
-27
-28
-33
-26
-7
-33
-27
-27
-31
-25
-37
-40
-24
-26
-19
-4
-28
-17
-33
-31
-31
-35
-27
-33
-25
-14
-20
-23
-30
-42
-32
-22
-13
-26
-30
-4
-5
-23
-50
-43
-45
-30
-24
-40
-25
-17
-18
-25
-37
-44
-50
-41
-33
-30
-23
-14
-11
-23
-44
-53
-43
-35
-16
-16
-24
-22
-31
-17
-34
-66
-50
-28
-30
-33
-26
-12
-35
-31
-38
-46
-47
-41
-35
-29
-22
-27
-20
-24
-40
-34
-35
-21
-34
-24
-24
0
-38
-55
-51
-50
-46
-39
-29
-25
-8
-23
-31
-40
-35
-48
-55
-53
-41
-22
-25
-15
-29
-36
-45
-46
-38
-32
-27
-34
-24
-23
-20
-24
-38
-40
-22
-32
-46
-28
-17
-14
-33
-37
-42
-33
-33
-20
-35
-27
-13
-7
15
-11
-45
-49
-36
-33
-21
-19
-20
-22
-25
-37
-36
-30
-14
-22
-27
-29
-34
-28
-36
-45
-54
-47
-41
-34
-29
2
-28
-38
-39
-41
-44
-55
-37
-47
-40
-16
-28
-18
-25
-46
-44
-66
-61
-55
-51
-47
-40
-25
-8
5
34
50
74
124
141
136
151
160
133
96
53
30
3
-6
-12
-36
-29
-35
-48
-70
-68
-76
-57
-52
-40
-26
-28
-23
-23
-51
-60
-54
-37
-35
-24
-27
-27
-18
-21
-37
-54
-61
-44
-37
-24
-8
-7
-13
-39
-58
-52
-45
-44
-31
-29
-22
-16
-15
-16
-26
-40
-35
-24
-29
-18
-6
-5
-17
-34
-40
-40
-30
-33
-12
-7
10
-3
1
-17
-35
-26
-19
-22
-13
5
12
10
6
5
1
27
18
-7
11
8
16
26
23
8
7
10
19
24
52
46
27
51
41
16
0
13
7
16
30
34
42
28
21
18
-13
-20
-9
0
-6
1
12
-1
-5
-26
-27
-26
-29
-26
-9
-12
-8
1
-14
-33
-49
-49
-40
-18
-7
-7
-16
-36
-35
-40
-47
-47
-39
-34
-20
-20
-18
-19
-22
-27
-23
-38
-46
-40
-23
-19
-11
-17
-26
-19
-53
-37
-25
-26
-11
-10
-21
-10
-28
-40
-29
-52
-48
-42
-35
-25
-21
-13
-10
-29
-34
-36
-41
-39
-15
-22
-20
-19
-12
-40
-36
-33
-20
-13
-23
-23
-18
-16
-42
-29
-35
-31
-28
-36
-23
-17
-11
-23
-26
-37
-44
-21
-40
-32
-24
-13
-6
-11
-30
-48
-41
-39
-36
-22
-8
-1
1
-14
-26
-36
-43
-41
-24
-27
-43
-30
-22
-25
-4
-43
-48
-38
-34
-29
-10
-13
-3
-21
-20
-19
-39
-32
-28
-25
-20
-4
10
-17
-56
-45
-22
-31
-29
-1
-26
-12
-12
-17
-12
-30
-39
-26
-11
-6
16
1
-2
-3
-7
-45
-51
-50
-40
-33
-26
-21
-12
6
-35
-49
-35
-43
-30
-23
-11
-18
-16
-14
-44
-44
-22
-34
-34
-27
-17
0
-12
-52
-51
-52
-61
-47
-44
-16
-6
22
24
27
51
59
98
123
140
143
131
114
92
48
17
30
-8
-19
-29
-53
-48
-48
-42
-48
-33
-19
-49
-41
-38
-22
-23
-24
-21
-35
-53
-42
-36
-20
-27
-27
-14
-20
5
1
-18
-40
-44
-29
1
-15
-33
-29
-20
-23
-35
-34
-27
-11
-22
-3
4
-11
-17
-22
-30
-14
9
-7
-39
-16
-12
-7
-4
-14
-22
-10
11
-18
-19
-10
-13
-7
-4
-2
6
-16
1
17
6
7
12
9
14
10
5
12
19
11
26
31
36
34
28
28
25
10
17
21
25
37
43
49
49
24
13
19
19
29
11
25
28
20
7
5
-8
-17
-17
17
7
-2
2
30
-28
-21
-16
-22
-34
-31
-20
-22
-19
-6
11
-11
-44
-20
-31
-47
-30
-10
-10
-19
-21
-29
-34
-21
-23
-23
-9
-16
-16
-11
-15
-20
-36
-36
-27
-15
-17
24
52
-28
-45
3
-15
-46
-57
-39
-25
-19
-20
-14
-25
-25
-19
-33
-24
-17
-18
-13
-11
-9
-12
4
-26
-69
-34
-23
-16
-6
-10
-11
-22
-23
-18
-33
-35
-15
3
12
-12
-21
-32
-35
-34
-11
-13
-28
-27
-20
-4
6
-38
-26
-25
-23
-12
-31
-21
-6
-11
-14
-26
-31
-28
-5
-24
-9
7
-5
-20
-27
-28
-24
-16
14
1
43
-2
-45
-12
33
19
-46
-43
-25
-13
-18
6
-13
-30
-25
-33
-35
-35
-37
-26
-12
-22
-9
-9
2
14
-53
-58
-34
-36
-34
-25
-16
-17
-14
-21
-31
-28
-5
-26
-43
-31
-23
-33
-38
-48
-46
-43
-41
-51
-23
-24
4
10
39
39
43
77
107
131
157
110
108
104
69
55
-4
-15
-5
-29
-35
-44
-29
-38
-40
-66
-60
-53
-53
-40
-33
-28
-24
-26
-5
2
-37
-50
-43
-19
-37
-36
-25
-26
-12
-15
-48
-46
-30
-35
-28
-12
-22
-16
-28
-23
-27
-28
-30
-22
-25
-29
-18
-12
-15
-22
3
-23
-41
-39
-10
-6
-19
-1
-33
-33
-34
-25
-29
-14
-7
-7
11
-3
-6
-11
1
7
-19
-13
-7
8
11
5
5
2
31
43
-2
15
11
17
18
17
15
19
0
7
18
33
48
25
19
27
10
5
14
22
21
14
5
9
9
-1
-12
-14
-20
-8
-6
-4
-4
4
2
-4
-33
-38
-39
-14
-24
-14
-20
-19
-13
-30
-35
-37
-34
-31
-32
-26
-24
-9
-23
-18
-21
-47
-40
-27
-13
-27
-10
-16
-29
-40
-45
-45
-41
-36
-42
-25
-10
-5
-26
-31
-35
-32
-23
-25
-32
-27
-23
-24
-26
-34
-36
-36
-39
-30
-21
25
14
2
-16
-48
-63
-57
-45
-41
-29
-22
-20
-17
-3
-14
-39
-23
-34
-29
-34
-30
-22
-20
-11
-9
-26
-42
-20
-41
-36
-34
-24
-19
-17
-23
-35
-12
-42
-28
-25
-2
1
-35
-32
-30
-40
-39
-40
-25
-23
-16
-8
-8
-23
-24
-10
-28
-35
-21
0
-19
7
-19
-27
-24
-27
-33
-37
-27
-20
-16
-3
0
14
-3
-64
-68
-39
-40
-33
-26
-24
-17
-18
-31
-33
-17
-59
-55
-32
-32
-25
-27
-29
-38
-38
-39
-32
-31
-25
-18
-31
-26
-40
-49
-54
-57
-54
-48
-40
-24
10
26
-12
-3
29
59
85
103
137
152
120
123
99
80
40
22
-2
-1
-25
-24
-16
-27
-37
-47
-45
-22
-21
-53
-41
-38
-36
-31
-34
-42
-53
-46
-35
-19
-19
-13
-16
-30
-30
-48
-49
-47
-34
-16
-23
-25
-11
-25
-31
-30
-38
-38
-25
-29
-32
-19
-18
-29
-29
-40
-45
-40
-18
-16
-7
-4
-15
-5
-4
-30
-36
-29
-26
-33
-17
-9
-4
-14
-12
-15
-23
-11
2
-10
5
0
2
-4
-1
-7
-7
6
10
22
53
38
15
0
5
6
6
17
17
23
33
49
33
16
22
1
20
17
5
12
3
8
11
1
-3
-10
-21
-6
-5
0
-7
-10
-10
-24
-30
-33
-38
-39
-28
-23
-15
-5
4
-34
-45
-35
-43
-49
-32
-10
-9
-11
-30
-39
-41
-42
-34
-34
-30
-17
0
-17
-29
-44
-56
-49
-46
-37
-36
-32
-26
-11
-8
-15
-9
-42
-45
-49
-40
-7
-25
-31
-23
-35
-40
-30
-43
-38
-40
-31
-20
-14
-16
-31
-38
-47
-46
-33
-16
-21
-25
-11
-26
-34
-34
-36
-40
-30
-24
-26
-23
-12
-15
-18
-35
-34
-26
-26
-32
-25
-31
-36
-38
-35
-44
-48
-42
-33
-25
-16
-8
-8
-24
-35
-43
-41
-27
-16
-34
-26
-18
-27
-35
-40
-45
-26
4
-52
-45
-11
-34
-15
-27
-48
-52
-47
-47
-33
-23
-19
4
-4
-29
-27
-57
-58
-49
-41
-28
-21
-18
-22
-27
-20
17
-20
-79
-36
-26
-35
-22
-26
-31
-28
-19
-25
-29
-22
-33
-32
-25
-19
-26
-34
-37
-31
1
-15
-21
-3
-10
-12
-23
-38
-44
-22
-27
-27
-9
-6
-31
-39
-37
-47
-45
-17
-31
-24
-24
-36
-27
-27
-31
-49
-55
-49
-50
-39
-38
-30
-23
-27
-31
-38
-36
-42
-11
-41
-65
-52
-42
-35
-19
-28
-25
-5
32
62
96
108
120
135
129
128
108
92
67
50
56
34
-1
-27
-47
-57
-53
-43
-42
-34
-25
-35
-34
-24
-33
-22
-40
-31
-39
-42
-29
-20
-29
-41
-42
-41
-35
-54
-35
-26
-28
-26
-25
-22
-35
-38
-29
-28
-29
-4
-20
-37
-36
-23
-38
-44
-41
-37
-29
-23
-11
-12
-9
-25
-22
-41
-26
-22
-22
1
0
-3
-26
-24
-29
-32
-25
-36
-24
-6
-3
13
12
-11
-20
-17
-1
9
20
7
15
30
22
18
7
-13
-5
8
12
22
19
34
35
31
21
6
18
18
15
30
31
37
29
13
4
-3
1
-7
-1
16
2
24
-15
-14
-10
-27
-22
-35
-14
-26
-14
-5
-12
-27
-31
-36
-45
-45
-35
-28
-18
-20
-23
-22
-38
-42
-30
-6
-13
-29
-22
-46
-25
-36
-43
-37
-46
-33
-15
-22
-18
-20
-20
-37
-43
-41
-10
-17
-38
-28
-24
-21
-23
-36
-43
-26
-35
-33
-20
-28
-20
-22
-17
-32
-48
-37
-36
-36
-30
-16
-9
-13
-31
-28
-36
-44
-35
-32
-32
-18
-11
-10
-23
-22
-42
-35
-31
-21
-21
-43
-23
-25
-23
-41
-49
-38
-39
-41
-24
-9
10
-4
-22
-28
-32
-49
-38
-44
-30
-24
-27
-27
-28
-30
-46
-52
-44
-36
-30
-24
-16
-10
-23
-39
-36
-16
-36
-25
-41
-24
-31
-16
-23
-42
-45
-44
-39
-43
-32
-24
-23
-25
-28
-28
-30
-39
-45
-43
-36
-26
-24
-24
-24
-45
-46
-48
-41
-37
-28
-25
-15
-18
-13
-33
-25
-26
-57
-55
-24
-21
-23
-36
-39
-53
-50
-36
-41
-16
-9
-15
-14
-36
-37
-53
-52
-37
-39
-34
-25
-35
-19
-34
-41
-46
-52
-45
-40
-24
-1
-27
-18
-25
-28
-49
-54
-37
-36
-34
-25
-15
-16
-19
-42
-50
-45
-55
-42
-35
-29
-29
-25
-36
-36
-39
-40
-33
-30
-28
-24
-5
-14
-29
-46
-37
-51
-60
-41
-32
-35
-20
3
-28
-45
-51
-52
-37
-44
-35
-29
-20
2
-19
-19
-45
-55
-49
-37
-32
-24
-10
-10
-8
-27
-35
-13
5
-30
-44
-21
-23
-15
-22
-20
-45
-42
-39
-28
-26
-25
-22
-19
-22
-32
-53
-48
-37
-36
-41
-40
-27
-16
-29
-33
-53
-39
-45
-47
-35
-29
-23
-22
-29
-18
-46
-60
-57
-53
-48
-39
-39
-58
-58
-58
-42
-15
10
45
77
114
117
131
146
131
137
143
111
80
44
26
31
5
-21
-30
-15
-50
-53
-28
-28
-45
-28
-41
-42
-49
-57
-54
-49
-36
-21
-32
-20
-24
-34
-44
-59
-34
-44
-33
-28
-31
-26
-31
-35
-43
-33
-51
-52
-30
-16
-36
-31
-36
-40
-40
-23
-49
-39
-29
-27
-12
-8
-27
-31
-41
-43
-46
-36
-23
-22
-8
-4
-30
-37
-39
-37
-39
-26
-12
-11
-2
4
-1
13
-30
-29
-13
-5
0
17
21
33
-5
-23
-10
1
-2
19
10
20
47
30
-2
3
18
3
4
28
33
26
22
37
28
9
-12
-7
-7
-3
9
32
21
9
-5
-11
-21
-27
-25
-10
-33
-26
-15
-20
-28
-26
-38
-24
-44
-36
-40
-31
-19
-15
-33
-37
-37
-34
-56
-46
-26
-24
-4
-30
-47
-54
-44
-46
-40
-42
-17
-37
-27
-27
-20
-44
-31
-35
-35
-19
-20
-27
-33
-46
-38
-45
-44
-22
-34
-36
-32
-29
-21
-18
-39
-44
-40
-53
-43
-23
-35
-29
-7
-26
-35
-35
-43
-43
-19
-42
-52
-33
-26
-25
-32
-48
-51
-46
-39
-27
-3
14
-5
-36
-38
-53
-58
-56
-47
-32
-9
-6
-32
-40
-30
-42
-60
-55
-52
-35
-30
-29
-21
-30
-37
-56
-51
-54
-41
-40
-25
-15
-16
-28
-32
-42
-47
-56
-50
-37
-21
-18
-30
-37
-39
-41
-39
-43
-46
-45
-41
-32
-26
-36
-48
-53
-47
-43
-37
-27
-39
-34
-26
-33
-36
-52
-44
-59
-45
-38
-31
-33
-31
-29
-46
-38
-51
-58
-45
-30
-7
-5
-40
-49
-39
-47
-49
-46
-44
-38
-28
-30
-23
-29
-55
-47
-41
-50
-48
-34
-34
-24
-31
-42
-55
-51
-56
-52
-43
-31
-31
-27
-22
-29
-38
-46
-39
-65
-55
-38
-35
-17
-34
-44
-54
-55
-39
-51
-41
-38
-26
-11
-27
-40
-68
-56
-45
-46
-42
-43
-38
-34
-39
-38
-32
-54
-51
-32
-27
-40
-22
-17
-29
-19
-62
-55
-45
-32
-37
-14
-12
-20
-13
-44
-50
-41
-43
-36
-27
-29
-25
-25
-28
-31
-32
-45
-34
-39
-33
-31
-19
-35
-45
-48
-37
-45
-52
-32
-51
-42
-38
-30
-45
-54
-55
-49
-45
-39
-29
-29
-30
-33
-51
-48
-57
-62
-61
-48
-52
-57
-56
-47
-48
-41
-41
-17
24
39
74
109
140
157
158
140
143
115
93
65
43
18
7
-14
-34
-37
-50
-61
-65
-65
-36
-46
-40
-50
-53
-59
-52
-43
-47
-35
-43
-45
-38
-36
-44
-51
-51
-58
-40
-40
-22
-28
-27
-28
-38
-53
-69
-57
-48
-42
-21
-21
-27
-33
-39
-34
-44
-59
-38
-28
-32
-30
-17
-6
-20
-53
-60
-48
-46
-31
-15
6
-19
-25
-22
-40
-27
-51
-29
-18
-13
-9
-15
-12
-13
-24
-10
-7
8
-2
-3
9
9
12
8
1
1
15
16
12
28
48
66
20
1
-2
6
14
16
17
32
22
24
22
8
6
5
-8
2
14
-9
5
10
-1
-27
-33
-32
-24
-17
-17
-15
-15
-11
-18
-12
-29
-44
-59
-53
-25
-24
-28
-38
-42
-45
-48
-33
-40
-42
-38
-32
-35
-33
-38
-49
-59
-37
-36
-21
-37
-38
-16
-32
-40
-52
-57
-45
-35
-39
-34
-37
-19
-19
-39
-45
-54
-40
-46
-52
-37
-25
-29
-32
-40
-41
-40
-33
-34
-28
-42
-23
-12
-30
-44
-55
-55
-53
-47
-35
-31
-26
-22
-21
-11
-46
-58
-49
-47
-44
-39
-27
-22
-22
-32
-42
-50
-45
-47
-40
-30
-19
-29
-21
-16
-28
-45
-54
-55
-47
-33
-24
-18
-31
-44
-50
-44
-24
-26
-51
-49
-25
-24
-35
-39
-48
-52
-33
-14
-46
-47
-22
-35
-38
-40
-54
-47
-40
-42
-50
-30
-31
-29
-34
-34
-35
-41
-53
-46
-6
-32
-45
-30
-33
-58
-59
-55
-47
-49
-37
-26
-8
-2
-35
-51
-55
-68
-41
-49
-48
-32
-21
-12
-22
-37
-51
-61
-58
-48
-30
-31
-40
-38
-33
-41
-68
-51
-45
-34
-34
-14
-16
-31
-30
-56
-51
-45
-54
-50
-39
-30
-31
-16
-28
-62
-55
-43
-31
-26
-39
-27
-38
-32
-42
-47
-48
-46
-48
-37
-33
-28
-18
-18
-32
-41
-29
-34
-47
-46
-45
-33
-19
-16
-33
-40
-42
-40
-29
-17
-28
-15
-4
-17
-26
-42
-32
-46
-32
-49
-34
-29
-32
-35
-40
-48
-46
-48
-28
-11
-20
-22
-40
-50
-53
-62
-55
-54
-42
-37
-34
-24
-23
-21
-48
-61
-59
-47
-60
-57
-41
-32
-35
-59
-58
-49
-32
-28
10
40
71
96
124
137
146
138
150
126
83
50
41
17
1
-30
-46
-59
-61
-67
-54
-65
-64
-48
-44
-37
-45
-51
-40
-46
-50
-32
-17
-23
-40
-55
-57
-61
-49
-45
-46
-21
-21
-18
-31
-42
-44
-52
-48
-40
-17
-31
-22
-16
-28
-43
-52
-51
-51
-41
-36
-36
-17
-26
-26
-22
-27
-35
-36
-15
-4
-18
-42
-29
-25
-31
-28
-29
-26
-22
-22
-16
-11
-6
-7
-8
-12
-21
-4
-7
-3
-2
10
18
13
8
3
1
33
5
9
31
39
23
15
8
10
6
10
25
27
25
38
58
38
6
-4
-5
-10
1
-3
0
5
3
-4
-13
-20
-24
-17
-11
-19
1
-7
-9
-22
-4
-41
-46
-50
-36
-37
-23
-16
-20
-36
-38
-38
-40
-36
-33
-49
-37
-31
-24
-38
-44
-50
-43
-48
-37
-34
-27
-25
-6
-25
-24
-35
-47
-33
-42
-31
-44
-45
-41
-41
-38
-36
-32
-29
-49
-34
-7
-10
-37
-38
-45
-47
-47
-40
-32
-16
-12
-26
-14
-26
-42
-57
-46
-34
-36
-31
-26
-6
-34
-38
-26
-24
-37
-45
-50
-30
-25
-22
-18
-35
-33
-46
-49
-35
-25
-30
-32
-17
-22
-30
-50
-48
-47
-37
-37
-22
-29
7
-29
-53
-52
-51
-43
-41
-29
-10
-32
-23
-22
-27
-28
-51
-53
-40
-38
-34
-32
-29
-31
-33
-34
-44
-57
-44
-40
-30
-22
-14
-22
-33
-25
-57
-51
-49
-42
-31
-20
-23
-34
-34
-38
-30
-2
-22
-52
-48
-37
-36
-32
-41
-42
-44
-39
-28
-21
-23
-33
-18
-23
-35
-44
-41
-37
-34
-16
-23
-4
-15
-22
-22
-36
-41
-36
-14
-16
-13
-25
-33
-37
-33
-43
-46
-39
-42
-19
-9
-24
-27
-26
-38
-52
-58
-51
-39
-33
-15
-27
-9
-44
-46
-49
-56
-49
-34
-31
-38
-22
0
-17
-43
-78
-84
-69
-64
-53
-27
-17
-7
10
40
44
64
89
114
127
137
149
125
84
31
18
16
-19
-39
-44
-51
-49
-47
-43
-56
-45
-58
-49
-55
-58
-41
-32
-37
-40
-53
-52
-43
-39
-41
-29
-33
-22
-18
-34
-37
-34
-38
-43
-30
-37
-24
-14
-8
-31
-32
-54
-49
-40
-28
-7
-8
-16
-24
-29
-38
-37
-42
-41
-27
-26
-29
-12
-16
-23
-18
-5
-15
-40
-29
-22
-11
3
0
-16
-8
-37
-20
-21
-4
-1
0
4
3
-10
-5
1
-1
0
16
19
29
20
20
11
12
10
43
41
29
17
25
31
32
19
30
17
4
17
28
20
34
12
13
-7
-14
-23
-11
-11
-17
-11
9
-4
-12
-27
-34
-37
-34
-32
-23
-16
12
-1
-33
-56
-51
-36
-41
-41
-27
-13
2
-22
-34
-33
-60
-62
-42
-28
-30
-26
-23
-28
-19
-41
-50
-50
-34
-22
-21
-20
2
-25
-40
-53
-53
-42
-49
-31
-20
-22
-28
-22
-23
-25
-36
-47
-38
-46
-30
-12
-13
-23
-23
-19
-42
-51
-42
-33
-17
-9
-28
-31
-24
-34
-28
-37
-47
-38
-27
-15
-18
-28
-36
-35
-35
-44
-33
-38
-38
-24
-23
-19
-24
-38
-36
-27
-34
-21
-25
-13
-39
-32
-28
-45
-42
-46
-29
-20
-23
-15
-25
-24
-28
-42
-36
-38
-36
-22
-26
-19
-9
-23
-25
-34
-29
-40
-34
-33
-25
-5
-16
-23
-24
-35
-9
-13
-23
-28
-31
-8
-8
-18
-25
-39
-35
-28
-20
-19
-31
-27
-15
-25
-44
-46
-43
-43
-29
-36
-26
-23
-19
-21
-29
-29
-60
-44
-42
-35
-28
-26
-20
-24
-40
-46
-49
-48
-47
-36
-42
-13
-25
-69
-53
-49
-51
-31
-6
21
53
91
94
94
125
118
116
119
94
70
43
3
6
-22
-44
-64
-46
-52
-44
-44
-52
-42
-53
-56
-54
-44
-38
-42
-43
-38
-26
-15
-19
-23
-53
-50
-34
-30
-31
-10
-19
-31
-34
-29
-44
-52
-52
-17
-14
-13
-9
-11
-30
-55
-47
-47
-37
-31
-31
-21
-16
-8
-14
-26
-34
-16
-25
-34
-30
-25
1
-17
-9
-8
-35
-34
-36
-17
-14
-13
5
4
-6
-9
-11
14
0
-29
-9
3
10
17
21
12
-1
3
11
26
2
22
34
28
31
14
31
17
23
32
34
31
31
15
11
7
8
-8
-10
7
2
17
22
-2
-12
-12
-14
-4
-23
-29
-19
-18
-12
-19
-25
-30
-33
-29
-22
-31
-31
-22
-28
-22
-25
-39
-48
-29
-39
-24
-21
-19
-24
-35
-27
-39
-36
-42
-44
-36
-28
-25
-19
-23
-14
-49
-53
-47
-26
-26
-29
-18
-23
-34
-26
-34
-45
-49
-37
-30
-32
-15
-4
-19
-22
-33
-40
-15
-23
-57
-33
-18
-23
-28
-28
-51
-48
-47
-34
-28
-32
-19
-21
-22
-19
-16
-57
-51
-36
-21
-27
-20
-6
-9
-31
-22
-35
-55
-40
-41
-32
-17
-1
5
-11
-62
-47
-51
-42
-38
-20
-19
-14
-28
-32
-41
-32
-47
-30
-11
-20
-6
-16
-30
-30
-20
-33
-38
-20
-17
-17
-6
-11
-11
-20
-30
-32
-49
-31
-25
-13
-7
-19
-14
-15
-30
-26
-32
-50
-24
-11
-21
-27
-37
-49
-53
-42
-41
-34
-21
-19
-25
-10
-10
-34
-76
-61
-50
-41
-20
-32
-15
-12
-27
-29
-35
-53
-63
-50
-45
-37
-38
-32
-36
-30
-48
-14
6
41
70
97
125
164
160
133
98
86
60
41
35
31
5
-15
-41
-33
-42
-39
-57
-52
-40
-32
-36
-30
-35
-38
-38
-45
-41
-13
-16
-35
-31
-31
-32
-19
-57
-60
-29
-18
-11
-14
-32
-24
-25
-40
-64
-40
-42
-33
-17
-23
-27
-35
-38
-33
-31
-38
-29
-13
-30
-24
-6
8
-41
-34
-27
-35
-33
-26
-11
-13
-2
9
-19
-24
-42
-36
-24
-25
-9
-6
-10
-11
-15
-17
-18
-6
2
11
12
24
36
41
21
-1
-4
-8
6
30
37
35
25
21
19
16
-5
1
14
24
22
28
30
23
14
-12
-19
-16
-7
-2
-2
4
0
5
-27
-32
-19
-9
-1
-27
-21
-16
-18
-26
-19
-45
-52
-49
-41
-23
-27
-22
-20
-8
-26
-61
-49
-35
-36
-38
-32
-26
-32
-30
-37
-49
-33
-29
-42
-32
-31
-28
-26
-34
-38
-48
-44
-34
-28
-26
-25
-9
-26
-28
-20
-57
-35
-33
-51
-38
-27
-28
-28
-40
-39
-43
-40
-31
-20
-23
-27
-28
-39
-41
-38
-37
-54
-39
-32
-20
-4
-14
-20
-27
-51
-45
-34
-35
-18
-16
-26
-30
-34
-29
-37
-42
-48
-37
-38
-38
-14
-23
-35
-40
-41
-36
-37
-35
-41
-12
-1
-22
-40
-44
-53
-47
-53
-35
-23
-25
-17
-21
-29
-34
-34
-33
-33
-46
-27
-18
-17
-20
-32
-42
-36
-31
-34
-29
-25
-26
-17
-11
-12
11
-22
-46
-13
-31
-37
-28
-22
-18
-23
-27
-30
-35
-34
-25
-26
-18
-18
-19
-25
-41
-35
-44
-60
-40
-29
-23
-16
-29
-29
-19
-27
-56
-52
-30
-33
-34
-13
-16
-40
-37
-58
-53
-54
-42
-43
-38
-42
-52
-62
-66
-61
-42
-14
4
47
77
96
111
122
124
134
130
140
135
110
41
36
32
-6
-35
-56
-53
-51
-34
-34
-43
-34
-27
-43
-50
-52
-33
-36
-58
-43
-29
-26
-25
-51
-50
-45
-48
-41
-19
-18
-25
-29
-27
-38
-32
-41
-62
-48
-29
-10
-31
-25
-30
-42
-43
-48
-41
-45
-24
-16
-29
-24
-26
-27
-44
-31
-37
-39
-26
-8
-20
-17
-29
-36
-42
-28
-14
-5
-5
-16
-5
-7
-14
-25
-22
-23
-17
1
4
11
8
22
-2
5
-12
-6
1
17
25
24
24
35
17
5
3
9
17
28
26
26
37
51
39
8
3
-6
-12
-4
8
9
1
5
-2
-9
-9
-25
-32
-24
-23
-7
4
-15
-32
-44
-49
-52
-47
-43
-32
-28
-21
-16
-26
-45
-39
-32
-44
-38
-38
-35
-20
-24
-38
-53
-44
-45
-41
-39
-31
-28
-19
-12
-6
-42
-58
-49
-46
-24
-22
-28
-40
-39
-41
-40
-42
-54
-48
-35
-28
-24
-1
-14
-38
-46
-63
-51
-36
-35
-27
-10
-21
-30
-32
-39
-50
-38
-26
-37
-33
-11
-21
-28
-37
-48
-47
-42
-39
-40
-23
-12
-29
-24
-34
-50
-39
-26
-44
-35
-35
-31
-21
-31
-50
-54
-48
-35
-37
-31
-34
-25
-27
-22
-40
-51
-40
-46
-42
-32
-23
-31
-23
-1
-35
-57
-45
-52
-31
-35
-38
-15
-12
-37
-40
-54
-53
-48
-38
-37
-33
-21
-26
-27
-36
-44
-56
-49
-33
-31
-15
-9
-18
-50
-38
-40
-38
-37
-37
-37
-38
-20
-9
-16
-21
-34
-29
-48
-35
-19
-22
-22
-18
-15
-27
-39
-44
-38
-23
-20
-17
-19
-30
-34
-51
-54
-53
-45
-30
-33
-14
-20
-29
-53
-45
-48
-55
-48
-35
-7
1
-48
-36
-42
-52
-56
-47
-53
-44
-37
-33
-32
-56
-63
-73
-77
-66
-38
-13
9
34
74
79
107
139
145
144
131
145
144
109
50
40
17
-19
-39
-51
-44
-36
-30
-30
-32
-43
-55
-50
-53
-51
-50
-41
-41
-29
-31
-43
-46
-45
-49
-47
-38
-29
-33
-23
-13
-17
-41
-41
-60
-56
-39
-32
-41
-21
-21
-21
-37
-35
-42
-52
-46
-29
-36
-29
-19
-32
-48
-37
-18
-41
-25
-21
-38
-31
-27
-23
-24
-35
-35
-27
-7
24
9
-24
-10
-18
-26
-27
-26
-19
-14
19
22
-11
4
7
1
-8
-2
2
13
29
34
29
23
23
17
5
6
9
15
25
39
40
28
46
12
23
5
-1
1
13
13
19
22
-4
-21
-26
-25
-18
-10
-6
-7
-6
-28
-32
-34
-39
-66
-46
-32
-25
-26
-28
-30
-27
-31
-25
-56
-57
-33
-35
-14
-5
-46
-62
-57
-40
-55
-60
-38
-35
-30
-26
-26
-35
-43
-54
-60
-41
-37
-33
-30
-32
-32
-37
-51
-52
-57
-47
-29
-24
-22
-31
-45
-44
-49
-47
-56
-52
-31
-8
-15
-33
-49
-41
-48
-67
-56
-48
-28
-25
-19
-37
-41
-45
-48
-58
-53
-51
-39
-32
-34
-31
-41
-42
-48
-49
-46
-48
-39
-25
-17
-26
-28
-55
-41
-46
-59
-48
-18
-27
-33
-48
-50
-54
-59
-58
-45
-48
-46
-50
-39
-35
-38
-42
-47
-39
-45
-59
-47
-40
-37
-43
-48
-52
-58
-43
-43
-33
-42
-52
-27
-35
-18
-57
-68
-72
-62
-44
-29
-38
-44
-38
-48
-52
-60
-54
-55
-47
-46
-41
-38
-26
-41
-53
-54
-55
-52
-53
-47
-36
-35
-37
-44
-60
-50
-51
-41
-54
-44
-42
-42
-26
-32
-59
-61
-67
-57
-47
-48
-35
-33
-33
-23
-39
-67
-57
-43
-41
-41
-30
-26
-29
-39
-52
-55
-44
-33
-28
-22
-28
-24
-36
-51
-58
-39
-29
-47
-33
-37
-31
-43
-47
-40
-64
-71
-59
-47
-40
-49
-49
-44
-47
-51
-55
-51
-46
-37
-52
-53
-43
-26
-42
-60
-69
-56
-64
-70
-64
-65
-65
-57
-63
-47
-44
-18
6
40
86
110
130
131
139
135
148
127
79
42
26
24
10
-19
-52
-69
-56
-62
-71
-68
-47
-39
-42
-68
-65
-75
-76
-65
-55
-44
-42
-30
-46
-34
-56
-70
-66
-60
-58
-61
-50
-32
-29
-33
-41
-57
-63
-66
-55
-54
-52
-38
-23
-21
-38
-61
-45
-55
-38
-42
-49
-36
-37
-37
-49
-62
-50
-42
-42
-48
-30
-24
-33
-14
-27
-53
-56
-46
-38
-24
-21
-21
-6
9
-23
-49
-29
-34
-22
-8
-4
-4
8
-2
3
-3
-8
-2
-6
9
29
46
29
10
3
9
-2
14
18
6
-2
18
21
8
-11
-17
-6
-15
-1
-16
-19
-19
-16
-10
-23
-40
-46
-39
-27
-25
-26
-16
-29
-37
-29
-40
-50
-47
-61
-60
-52
-47
-36
-36
-41
-57
-50
-60
-50
-39
-20
-35
-45
-54
-62
-65
-50
-61
-53
-56
-50
-35
-22
-32
-40
-63
-67
-62
-45
-38
-43
-37
-43
-59
-50
-52
-61
-49
-34
-46
-37
-22
-31
-47
-68
-51
-57
-65
-57
-28
-30
-40
-31
-42
-58
-52
-56
-53
-42
-40
-47
-29
-34
-55
-61
-65
-56
-58
-43
-27
-38
-30
-17
-33
-68
-74
-67
-48
-52
-40
-24
-32
-52
-51
-59
-59
-57
-47
-43
-23
-55
-39
-31
-49
-59
-59
-50
-55
-46
-50
-45
-37
-39
-32
-62
-73
-59
-50
-55
-49
-44
-39
-45
-37
-12
-48
-52
-55
-70
-46
-40
-34
-53
-54
-67
-67
-42
-27
-44
-53
-37
-49
-64
-53
-48
-57
-45
-52
-49
-10
-35
-45
-46
-46
-55
-57
-61
-51
-51
-35
-32
-30
-36
-38
-48
-50
-49
-35
-42
-38
-18
-34
-29
-52
-58
-34
-63
-51
-41
-35
-40
-46
-51
-40
-41
-58
-60
-61
-57
-45
-29
-24
-43
-64
-75
-66
-61
-47
-52
-21
-35
-55
-45
-19
-65
-72
-68
-63
-54
-66
-71
-73
-65
-60
-58
-33
-6
10
37
57
94
120
132
107
92
87
66
22
11
14
-2
-40
-64
-55
-62
-95
-83
-70
-70
-59
-41
-56
-65
-53
-54
-71
-62
-44
-50
-45
-35
-60
-58
-61
-57
-51
-55
-50
-42
-26
-25
-19
-43
-74
-68
-63
-43
-49
-37
-39
-41
-29
-39
-55
-64
-49
-36
-40
-26
-25
-35
-25
-60
-74
-64
-41
-48
-55
-32
-16
-14
-30
-32
-49
-63
-46
-42
-26
-20
7
2
-30
-44
-38
-36
-31
-20
-12
-12
9
6
-12
-1
17
-3
-3
-10
-5
-5
4
7
5
-4
-11
19
9
2
15
27
8
26
0
-7
-20
-26
-25
-15
5
-12
-14
12
-21
-45
-65
-54
-38
-28
-32
-32
-19
-22
-22
-44
-51
-59
-68
-44
-39
-46
-42
-42
-53
-55
-47
-34
-45
-36
-21
-46
-50
-38
-43
-55
-60
-63
-54
-52
-44
-35
-35
-35
-27
-79
-70
-45
-58
-48
-43
-47
-40
-36
-47
-38
-29
-51
-57
-42
-45
-31
-29
-40
-44
-57
-64
-59
-51
-38
-43
-21
-35
-46
-55
-58
-60
-56
-50
-42
-39
-35
-33
-34
-44
-76
-59
-55
-50
-49
-34
-23
4
14
-63
-77
-66
-65
-45
-54
-44
-33
-34
-41
-47
-57
-62
-42
-53
-49
-42
-29
-25
-54
-50
-53
-54
-44
-39
-45
-46
-30
6
-7
-33
-62
-79
-57
-52
-42
-31
-23
-35
-37
-55
-53
-55
-46
-22
-28
-44
-30
-22
-39
-38
-44
-34
-46
-39
-15
-9
-31
-18
-34
-55
-52
-39
-51
-48
-44
-45
-42
-27
-48
-55
-63
-64
-58
-48
-15
-34
-33
-28
-23
-54
-71
-71
-58
-53
-47
-12
3
-55
-54
-60
-71
-75
-68
-63
-56
-53
-19
-21
-39
-20
2
22
52
75
108
122
96
86
77
54
22
14
5
-17
-36
-31
-33
-55
-67
-80
-64
-68
-59
-63
-58
-45
-38
-35
-37
-62
-55
-31
-18
-21
-63
-57
-38
-39
-40
-39
-66
-55
-32
-34
-40
-38
-26
-37
-41
-57
-50
-44
-35
-21
-6
-31
-25
-45
-50
-55
-55
-48
-42
-40
-21
4
-29
-32
-36
-48
-34
-32
-32
-33
-26
-7
-21
-14
-23
-35
-41
-30
-25
1
-6
-10
4
4
-20
-31
-19
-9
-10
-1
17
15
18
6
9
-6
-3
-2
-5
9
24
41
31
37
14
-19
-2
3
0
20
21
19
17
-4
-18
-18
2
19
-16
-21
-10
-20
-10
-24
-47
-39
-26
-36
-44
-39
-33
-25
-27
-34
-44
-51
-48
-36
-24
-40
-31
-27
-28
-30
-48
-54
-53
-42
-33
-15
-26
-27
-36
-50
-51
-53
-43
-43
-39
-36
-14
3
-24
-53
-60
-61
-57
-46
-43
-31
-29
-23
-35
-42
-46
-55
-39
-34
-33
-40
-10
-7
-46
-48
-55
-60
-57
-47
-43
-37
-28
-15
-5
-17
-22
-54
-68
-54
-51
-46
-31
-23
-34
-37
-42
-41
-43
-54
-46
-42
-41
-22
-34
-44
-52
-50
-51
-44
-25
-2
-6
-43
-43
-45
-60
-61
-62
-51
-39
-39
-29
-23
-24
-20
-40
-65
-54
-29
-43
-26
-15
-41
-51
-46
-57
-40
-43
-47
-34
-15
-22
-11
-41
-41
-47
-69
-54
-37
-17
-29
-9
-11
-50
-67
-49
-50
-43
-34
-6
-24
-37
-19
-29
-37
-53
-32
-40
-39
-23
-24
-1
-29
-36
-59
-65
-51
-49
-54
-53
-32
-27
-38
-47
-60
-70
-57
-54
-47
-36
-32
-46
-47
-47
-54
-53
-36
-38
-29
-51
-51
-46
-58
-58
-74
-79
-92
-80
-57
-34
-13
11
21
58
71
119
112
115
130
135
150
135
83
46
12
0
5
-27
-15
-27
-35
-46
-47
-64
-58
-71
-69
-62
-48
-34
-38
-36
-59
-59
-67
-61
-53
-57
-47
-45
-42
-34
-35
-46
-64
-51
-52
-49
-12
-32
-30
-38
-49
-64
-59
-59
-56
-56
-24
-52
-46
-34
-37
-55
-54
-43
-53
-54
-50
-51
-32
-28
-36
-39
-38
-42
-40
-10
24
-28
-59
-42
-38
-50
-44
-35
-25
-27
-14
-8
2
-3
-5
-32
-12
-13
-16
-1
2
5
13
10
-5
-14
6
-3
2
33
50
9
32
8
9
16
1
-3
12
8
-5
-3
-14
-18
-19
-17
-20
-31
-31
-21
-15
-27
-27
-35
-47
-55
-59
-56
-40
-21
23
3
-71
-67
-54
-58
-64
-57
-64
-54
-47
-42
-40
-44
-43
-44
-45
-49
-70
-56
-51
-48
-50
-51
-55
-53
-66
-70
-65
-46
-35
-39
-6
2
-54
-73
-71
-59
-66
-59
-49
-46
-35
-23
-63
-76
-53
-52
-54
-54
-50
-39
-39
-48
-39
-58
-60
-49
-43
-42
-41
-45
-52
-54
-56
-67
-60
-40
-28
-36
-51
-45
-43
-41
-61
-69
-67
-65
-55
-45
-48
-43
-30
-37
-50
-61
-64
-59
-50
-34
-32
-33
-60
-56
-57
-60
-62
-67
-59
-47
-33
-26
-26
-38
-70
-70
-62
-49
-46
-53
-54
-41
-39
-45
-58
-66
-65
-54
-27
-44
-37
-21
-16
-30
-59
-64
-49
-33
-43
-42
-40
-41
-43
-50
-43
-59
-63
-63
-62
-58
-47
-31
-33
-60
-74
-65
-63
-64
-54
-37
-30
-50
-54
-54
-68
-71
-73
-64
-63
-54
-40
-28
-32
-64
-96
-95
-94
-89
-76
-60
-45
-2
18
19
44
66
100
131
149
177
172
151
120
93
40
0
6
-20
-52
-59
-64
-59
-63
-62
-78
-67
-75
-81
-59
-40
-55
-66
-56
-50
-81
-71
-62
-64
-56
-42
-53
-46
-53
-56
-65
-56
-47
-48
-59
-35
-33
-36
-61
-53
-69
-76
-58
-40
-66
-53
-41
-28
-41
-52
-66
-60
-60
-50
-46
-36
-30
-24
-60
-65
-56
-51
-54
-46
-33
-20
-17
-27
-44
-41
-41
-41
-40
-35
-28
-15
-1
0
-18
-25
-12
-15
-19
0
-7
-9
2
7
5
-7
-15
-4
1
4
7
13
20
19
12
21
24
4
-19
-18
-10
-6
-1
-6
-20
-32
-32
-33
-36
-27
3
11
-10
-46
-32
-31
-63
-77
-64
-41
-45
-45
-46
-54
-61
-58
-62
-58
-58
-46
-32
-23
-37
-67
-55
-52
-79
-69
-63
-58
-44
-43
-37
-43
-50
-69
-68
-67
-44
-54
-25
-7
-23
-35
-38
-87
-83
-72
-61
-53
-49
-45
-55
-54
-61
-63
-63
-63
-56
-37
-24
-39
-37
-44
-49
-72
-64
-65
-56
-45
-37
-42
-54
-34
-59
-64
-65
-54
-45
-27
-20
-3
-44
-64
-64
-64
-71
-66
-65
-48
-54
-47
-51
-54
-70
-63
-51
-55
-60
-43
-26
-19
-44
-37
-51
-61
-60
-74
-51
-46
-54
-37
-43
-43
-69
-68
-62
-71
-66
-47
-49
-40
-37
-42
-47
-62
-60
-45
-24
-49
-41
-51
-56
-52
-58
-64
-63
-58
-49
-41
-33
-26
-14
13
-46
-76
-71
-56
-37
-43
-33
-37
-33
-56
-80
-77
-61
-64
-60
-51
-40
-33
-16
-13
-60
-87
-73
-73
-65
-58
-58
-42
-38
-56
-50
-47
-79
-64
-40
-35
-28
-53
-53
-71
-87
-95
-92
-90
-71
-43
-11
2
20
35
52
87
102
126
152
115
114
101
51
9
-12
-28
-48
-46
-66
-67
-55
-25
-36
-80
-98
-93
-71
-61
-61
-59
-48
-58
-59
-65
-65
-69
-64
-54
-46
-47
-32
-13
-44
-61
-42
-56
-64
-48
-50
-50
-34
-31
-48
-68
-63
-59
-63
-35
-35
-38
-30
-24
-29
-47
-57
-58
-49
-53
-38
-30
-29
-49
-54
-59
-46
-47
-37
-29
-1
-8
-25
-29
-38
-44
-38
-46
-30
-7
-6
9
-4
-11
-11
-20
-17
-18
-21
7
24
2
6
13
8
-3
-14
-3
6
13
12
32
20
24
3
-11
-3
14
9
-2
-3
2
11
12
-18
-34
-26
-27
-8
-24
-34
-8
-18
-28
-35
-42
-45
-39
-35
-36
-37
-14
-31
-44
-37
-57
-54
-46
-42
-25
-19
-15
-29
-41
-46
-62
-52
-56
-40
-40
-35
-21
-20
-38
-44
-51
-47
-38
-44
-35
-29
-23
-26
-32
-42
-30
-46
-41
-41
-39
-33
-36
-27
-24
-31
-30
-40
-46
-52
-26
-37
-20
-31
-33
-36
-53
-46
-41
-40
-30
-35
-25
-24
-33
-38
-41
-42
-42
-34
-30
-14
-13
-5
-15
-65
-53
-40
-52
-32
-35
-28
-22
-22
-27
-32
-47
-36
-48
-35
-26
-20
3
-14
-46
-54
-60
-42
-48
-37
-29
-22
-11
-8
-21
-33
-30
-19
-24
-53
-30
-30
-26
-27
-35
-39
-41
-34
-30
-20
-12
-8
-3
-7
-14
-31
-40
-31
-29
-4
-18
-12
-17
-29
-41
-46
-39
-25
-38
-26
-29
-36
-20
-27
-36
-41
-29
-36
-45
-37
-11
-10
-32
-53
-52
-46
-45
-39
-30
-34
-30
-16
-39
-48
-53
-61
-64
-45
-46
-44
-27
-4
11
36
52
62
89
118
121
125
136
131
121
58
33
0
-20
-40
-49
-46
-53
-44
-39
-36
-58
-68
-58
-58
-44
-26
-21
-35
-39
-41
-44
-41
-40
-43
-37
-23
-15
-29
-35
-34
-35
-49
-54
-40
-33
-17
-3
-27
-24
-20
-46
-44
-34
-31
-29
-20
-11
-26
-27
-24
-38
-45
-41
-50
-22
-27
-27
-14
-12
-28
-29
-28
-32
-30
-13
-5
12
-1
-9
-19
-22
-33
-22
-15
-18
-14
-3
4
8
7
-6
-8
13
9
17
13
21
21
22
12
10
4
6
16
19
15
31
35
24
19
16
13
-10
4
17
3
14
27
8
-9
-14
-13
-26
-23
-16
-12
-9
-1
-8
-32
-36
-25
-30
-44
-42
-31
-20
-17
-9
-31
-41
-44
-34
-32
-43
-39
-25
-30
-35
-41
-45
-45
-51
-41
-30
-9
-8
-14
-20
-50
-45
-60
-51
-43
-41
-32
-25
-17
-25
-41
-49
-39
-44
-42
-30
-30
-27
-22
-23
-31
-46
-45
-46
-34
-14
19
-9
-56
-33
-45
-44
-45
-42
-39
-32
-18
-12
-15
-31
-33
-53
-59
-49
-44
-31
-24
-25
-29
-16
-11
-19
-73
-50
-47
-42
-36
-32
-22
