-73
-74
-65
-63
-61
-49
-65
-70
-63
-60
-61
-61
-66
-61
-67
-66
-63
-63
-81
-62
-60
-60
-77
-58
-53
-111
-74
-67
-42
-44
-68
-82
-82
-71
-69
-77
-68
-59
-62
-78
-59
-49
-68
-81
-44
-76
-73
-57
-58
-60
-61
-57
-61
-64
-72
-70
-62
-61
-73
-59
-59
-61
-80
-64
-73
-60
-64
-76
-73
-49
-65
-76
-77
-77
-50
-57
-72
-64
-45
-54
-58
-70
-79
-54
-59
-78
-63
-74
-67
-58
-57
-65
-63
-68
-56
-52
-53
-70
-55
-60
-50
-47
-62
-66
-67
-65
-67
-54
-66
-65
-51
-59
-54
-62
-56
-56
-49
-52
-41
-73
-69
-59
-64
-44
-66
-69
-64
-64
-71
-76
-78
-86
-57
-71
-68
-67
-61
-74
-69
-71
-58
-75
-76
-46
-61
-69
-72
-64
-70
-73
-75
-79
-59
-72
-63
-82
-70
-62
-45
-73
-70
-76
-79
-98
-97
-101
-93
-65
-52
-42
-7
20
43
48
68
80
84
74
54
33
-15
-21
-42
-67
-70
-64
-44
-61
-73
-67
-67
-71
-67
-63
-95
-73
-54
-68
-77
-71
-69
-79
-84
-71
-57
-77
-68
-86
-79
-69
-74
-83
-73
-82
-80
-66
-59
-62
-83
-63
-68
-72
-79
-70
-65
-58
-67
-67
-73
-67
-68
-91
-85
-67
-77
-70
-73
-66
-65
-60
-60
-79
-62
-84
-69
-49
-88
-44
-55
-54
-63
-97
-65
-55
-81
-81
-59
-60
-65
-72
-66
-45
-63
-55
-75
-70
-59
-71
-59
-71
-66
-67
-57
-62
-58
-56
-54
-42
-49
-51
-50
-70
-61
-46
-49
-47
-30
-38
-36
-31
-48
-51
-54
-47
-40
-14
-36
-38
-40
-44
-47
-27
-36
-54
-36
-37
-50
-61
-66
-50
-46
-56
-68
-57
-50
-45
-62
-58
-52
-55
-72
-65
-70
-53
-84
-67
-60
-70
-37
-67
-68
-71
-76
-77
-72
-82
-55
-67
-66
-69
-72
-79
-71
-66
-69
-73
-66
-69
-74
-77
-77
-66
-65
-74
-70
-71
-69
-76
-65
-76
-65
-75
-80
-73
-65
-57
-68
-68
-59
-75
-92
-61
-61
-75
-66
-65
-76
-78
-74
-58
-71
-57
-76
-91
-59
-62
-76
-72
-81
-73
-73
-73
-66
-50
-63
-68
-61
-74
-85
-76
-75
-75
-74
-74
-66
-55
-75
-64
-84
-69
-68
-66
-73
-85
-55
-66
-77
-66
-63
-56
-58
-79
-65
-55
-66
-77
-67
-62
-88
-79
-73
-70
-67
-63
-59
-57
-74
-64
-74
-82
-62
-59
-76
-50
-54
-55
-75
-71
-71
-62
-75
-73
-61
-75
-72
-78
-68
-42
-78
-94
-54
-52
-67
-54
-66
-76
-79
-71
-57
-69
-58
-69
-70
-56
-63
-75
-73
-63
-49
-60
-60
-59
-72
-65
-63
-75
-56
-68
-74
-76
-70
-80
-67
-78
-82
-62
-60
-70
-64
-67
-63
-74
-79
-83
-78
-73
-69
-65
-78
-85
-74
-63
-84
-53
-69
-91
-77
-86
-69
-76
-84
-75
-76
-64
-65
-121
-101
-71
-83
-83
-66
-26
-14
14
23
47
66
87
105
71
38
6
-36
-51
-41
-54
-81
-61
-76
-73
-76
-57
-69
-68
-66
-67
-75
-81
-81
-84
-63
-76
-85
-86
-75
-70
-92
-76
-80
-77
-71
-72
-74
-82
-75
-85
-68
-76
-75
-100
-79
-72
-70
-92
-77
-67
-76
-78
-80
-64
-61
-74
-71
-77
-73
-81
-80
-84
-75
-82
-91
-71
-59
-69
-69
-81
-75
-71
-95
-77
-80
-86
-73
-51
-72
-79
-64
-61
-88
-87
-73
-71
-64
-65
-79
-74
-65
-65
-72
-67
-74
-68
-66
-68
-39
-59
-56
-39
-58
-60
-50
-48
-50
-63
-64
-49
-39
-49
-60
-54
-42
-41
-42
-50
-40
-52
-32
-35
-50
-57
-51
-47
-43
-26
-47
-51
-46
-35
-55
-56
-71
-66
-47
-63
-65
-76
-53
-59
-86
-68
-74
-50
-68
-64
-83
-71
-65
-81
-71
-64
-63
-81
-90
-66
-67
-63
-57
-75
-100
-88
-71
-73
-71
-70
-66
-75
-74
-64
-91
-80
-73
-73
-68
-80
-60
-70
-76
-78
-84
-80
-69
-74
-83
-73
-85
-82
-77
-62
-74
-86
-72
-73
-71
-66
-90
-87
-76
-69
-75
-85
-75
-71
-76
-69
-41
-82
-85
-80
-81
-73
-57
-74
-61
-70
-100
-90
-64
-86
-69
-52
-78
-79
-79
-68
-78
-76
-70
-86
-52
-57
-78
-88
-66
-69
-73
-86
-65
-72
-79
-100
-79
-70
-57
-60
-68
-66
-74
-85
-82
-68
-68
-78
-74
-65
-65
-79
-74
-73
-56
-88
-96
-87
-89
-68
-70
-82
-71
-80
-83
-50
-82
-89
-70
-76
-70
-78
-72
-70
-80
-61
-78
-63
-71
-84
-75
-64
-90
-76
-63
-75
-78
-73
-68
-68
-62
-70
-58
-64
-89
-76
-66
-59
-56
-71
-67
-74
-74
-91
-80
-80
-78
-71
-72
-87
-70
-63
-78
-83
-56
-71
-77
-92
-81
-77
-68
-74
-98
-87
-66
-63
-96
-85
-82
-77
-79
-71
-67
-75
-89
-76
-75
-88
-72
-89
-95
-70
-90
-100
-106
-122
-95
-79
-73
-57
-11
16
8
31
48
60
64
67
53
44
-13
-31
-47
-71
-81
-78
-64
-74
-74
-79
-78
-60
-60
-77
-99
-64
-78
-82
-57
-74
-89
-84
-75
-85
-101
-93
-87
-77
-78
-86
-82
-71
-78
-82
-104
-76
-83
-89
-85
-86
-60
-73
-95
-106
-61
-67
-98
-75
-85
-86
-93
-70
-66
-75
-91
-84
-74
-61
-69
-95
-86
-61
-84
-86
-81
-79
-77
-79
-94
-76
-89
-73
-78
-75
-94
-97
-55
-81
-74
-68
-66
-63
-73
-75
-76
-99
-91
-54
-68
-74
-59
-89
-65
-51
-64
-67
-62
-60
-47
-70
-71
-59
-48
-61
-61
-58
-46
-45
-49
-47
-52
-42
-48
-57
-47
-58
-48
-34
-63
-54
-40
-54
-60
-49
-38
-48
-65
-49
-54
-73
-71
-72
-67
-69
-61
-62
-69
-68
-61
-73
-73
-72
-64
-67
-89
-95
-62
-69
-70
-62
-74
-81
-80
-77
-71
-91
-77
-57
-61
-61
-62
-91
-104
-73
-66
-65
-83
-80
-80
-74
-87
-88
-80
-81
-91
-90
-72
-73
-80
-62
-73
-74
-84
-74
-70
-71
-71
-78
-78
-77
-78
-86
-72
-86
-81
-60
-89
-54
-87
-83
-76
-77
-65
-47
-76
-73
-90
-70
-82
-75
-72
-83
-64
-65
-77
-101
-96
-65
-67
-75
-70
-77
-58
-54
-69
-84
-72
-69
-71
-71
-73
-70
-90
-66
-63
-74
-80
-74
-66
-78
-82
-74
-63
-64
-77
-86
-69
-71
-77
-76
-76
-72
-68
-82
-80
-72
-54
-74
-67
-64
-79
-84
-82
-83
-86
-75
-58
-64
-73
-58
-71
-74
-77
-90
-66
-85
-87
-51
-42
-63
-76
-60
-65
-76
-87
-78
-49
-61
-58
-63
-69
-70
-54
-64
-72
-62
-54
-70
-78
-80
-69
-88
-69
-73
-88
-76
-66
-74
-72
-74
-75
-78
-79
-74
-73
-67
-57
-62
-91
-87
-69
-66
-79
-83
-75
-74
-87
-85
-73
-78
-80
-72
-78
-73
-73
-94
-81
-84
-71
-84
-102
-111
-96
-93
-96
-69
-70
-51
-29
-1
10
36
49
75
71
64
65
27
-8
-42
-38
-43
-72
-60
-69
-77
-75
-56
-60
-67
-73
-90
-80
-89
-83
-69
-85
-99
-73
-88
-81
-82
-79
-82
-77
-65
-91
-90
-82
-81
-93
-84
-75
-90
-84
-78
-75
-59
-88
-87
-69
-76
-60
-81
-82
-72
-69
-67
-92
-78
-86
-65
-95
-91
-75
-68
-65
-81
-73
-79
-79
-65
-81
-78
-65
-82
-87
-77
-75
-89
-87
-86
-72
-61
-59
-59
-68
-72
-78
-74
-84
-71
-65
-63
-51
-55
-59
-60
-53
-70
-77
-62
-60
-55
-75
-68
-65
-44
-50
-44
-54
-54
-60
-57
-32
-42
-40
-47
-45
-49
-33
-41
-52
-55
-57
-52
-40
-48
-30
-55
-61
-57
-54
-47
-30
-52
-49
-45
-57
-66
-58
-47
-68
-77
-64
-69
-62
-66
-67
-72
-57
-60
-66
-83
-76
-78
-66
-68
-79
-85
-82
-75
-63
-71
-72
-61
-69
-74
-74
-83
-82
-59
-63
-68
-65
-72
-78
-65
-64
-71
-78
-75
-70
-78
-68
-69
-79
-81
-78
-88
-69
-63
-79
-79
-76
-67
-76
-70
-76
-87
-80
-65
-69
-55
-47
-61
-84
-72
-80
-99
-89
-74
-86
-62
-55
-86
-59
-70
-57
-60
-63
-63
-70
-77
-75
-66
-60
-70
-66
-60
-58
-67
-74
-71
-71
-64
-70
-69
-68
-76
-66
-67
-71
-69
-73
-66
-66
-77
-50
-54
-79
-70
-58
-41
-52
-75
-66
-51
-75
-82
-90
-84
-58
-54
-50
-74
-62
-87
-73
-75
-65
-64
-63
-63
-62
-67
-52
-54
-71
-88
-79
-55
-62
-77
-69
-51
-64
-64
-63
-72
-63
-52
-69
-64
-65
-60
-60
-64
-77
-70
-56
-57
-59
-51
-61
-67
-67
-86
-79
-75
-60
-75
-73
-60
-63
-64
-70
-66
-78
-80
-74
-71
-75
-51
-62
-73
-81
-67
-74
-64
-74
-85
-71
-77
-83
-88
-62
-43
-52
-76
-83
-83
-55
-65
-77
-93
-97
-93
-89
-71
-60
-48
-23
2
15
51
65
83
92
71
46
26
7
-21
-49
-72
-70
-76
-67
-67
-72
-74
-60
-61
-74
-62
-64
-57
-68
-83
-90
-76
-78
-68
-65
-66
-68
-70
-81
-71
-78
-86
-72
-80
-89
-71
-70
-63
-68
-86
-73
-80
-65
-42
-67
-73
-68
-69
-73
-83
-90
-78
-69
-56
-78
-79
-74
-71
-66
-92
-75
-66
-60
-57
-57
-69
-87
-73
-66
-64
-69
-89
-72
-63
-77
-86
-72
-87
-76
-70
-82
-75
-57
-51
-49
-47
-49
-72
-67
-68
-67
-52
-42
-51
-65
-38
-44
-70
-57
-49
-47
-58
-59
-38
-33
-44
-29
-58
-55
-41
-36
-54
-48
-45
-44
-39
-30
-33
-55
-56
-36
-29
-44
-44
-45
-43
-58
-47
-48
-27
-46
-60
-50
-69
-56
-52
-74
-51
-49
-58
-67
-59
-62
-76
-80
-61
-63
-57
-53
-65
-55
-83
-74
-81
-56
-61
-58
-67
-66
-73
-69
-70
-61
-59
-77
-86
-58
-63
-63
-75
-75
-74
-66
-64
-64
-63
-72
-76
-68
-61
-66
-73
-50
-57
-62
-86
-76
-65
-88
-92
-96
-70
-74
-84
-80
-67
-70
-72
-59
-81
-76
-77
-77
-52
-43
-57
-67
-65
-65
-67
-62
-48
-71
-67
-63
-71
-82
-63
-68
-58
-51
-67
-71
-64
-73
-65
-59
-74
-64
-64
-75
-79
-72
-58
-52
-69
-89
-68
-61
-67
-62
-64
-74
-49
-62
-66
-71
-73
-64
-79
-72
-67
-62
-74
-62
-61
-84
-68
-74
-76
-52
-65
-52
-64
-71
-66
-65
-85
-57
-61
-74
-73
-58
-54
-59
-55
-67
-61
-66
-84
-61
-52
-63
-45
-61
-50
-68
-64
-60
-74
-62
-65
-59
-60
-73
-67
-74
-66
-70
-74
-72
-63
-57
-66
-66
-86
-62
-67
-70
-105
-64
-60
-67
-70
-72
-71
-77
-74
-70
-73
-63
-62
-56
-63
-67
-68
-69
-53
-64
-73
-70
-61
-90
-96
-108
-91
-95
-89
-82
-65
-53
-20
-2
22
38
50
94
102
74
56
29
15
-2
-25
-45
-66
-75
-71
-64
-61
-61
-68
-61
-48
-57
-79
-80
-73
-76
-67
-65
-65
-83
-72
-75
-91
-84
-65
-63
-71
-63
-73
-68
-74
-69
-77
-76
-87
-83
-107
-62
-56
-75
-69
-65
-70
-76
-78
-77
-75
-74
-63
-70
-83
-65
-87
-82
-77
-67
-70
-65
-68
-52
-72
-75
-83
-73
-74
-71
-86
-47
-76
-64
-42
-60
-83
-69
-60
-71
-57
-56
-74
-80
-59
-75
-80
-61
-48
-63
-61
-56
-51
-52
-61
-65
-62
-55
-52
-66
-51
-46
-45
-38
-54
-61
-56
-54
-36
-37
-45
-39
-47
-32
-49
-38
-42
-53
-46
-47
-42
-38
-47
-50
-52
-32
-31
-42
-57
-57
-48
-40
-48
-56
-41
-57
-49
-59
-69
-58
-60
-58
-51
-57
-70
-71
-73
-62
-64
-78
-64
-62
-69
-63
-53
-82
-68
-62
-78
-70
-73
-75
-79
-58
-65
-85
-66
-73
-78
-66
-60
-72
-72
-64
-62
-50
-67
-72
-93
-82
-57
-69
-73
-68
-80
-75
-67
-62
-60
-66
-68
-67
-73
-69
-51
-68
-73
-80
-80
-83
-65
-71
-88
-60
-56
-65
-80
-75
-68
-79
-77
-66
-58
-67
-66
-64
-48
-74
-77
-70
-77
-53
-69
-71
-61
-66
-69
-74
-75
-70
-53
-62
-64
-64
-56
-71
-65
-79
-86
-63
-59
-53
-68
-74
-77
-79
-75
-74
-80
-76
-65
-62
-75
-75
-67
-71
-59
-69
-68
-87
-63
-79
-56
-53
-68
-62
-58
-59
-62
-81
-81
-93
-83
-50
-56
-62
-67
-63
-62
-55
-53
-60
-69
-50
-72
-66
-42
-35
-57
-59
-67
-74
-72
-77
-78
-63
-86
-73
-76
-77
-67
-75
-73
-77
-72
-72
-73
-77
-81
-81
-75
-73
-62
-60
-70
-87
-81
-80
-82
-83
-78
-69
-73
-74
-77
-75
-69
-85
-89
-82
-72
-68
-81
-82
-95
-77
-86
-73
-18
-27
-3
22
29
47
67
81
56
53
12
-2
-30
-35
-71
-78
-66
-72
-80
-68
-83
-78
-72
-63
-80
-83
-81
-92
-102
-83
-55
-83
-78
-85
-65
-76
-75
-80
-90
-90
-81
-86
-89
-81
-74
-85
-95
-74
-84
-83
-81
-87
-85
-88
-79
-84
-78
-69
-93
-91
-83
-83
-101
-84
-52
-58
-73
-87
-92
-84
-76
-66
-80
-86
-73
-81
-85
-62
-93
-89
-87
-91
-82
-78
-83
-92
-79
-87
-62
-76
-61
-77
-82
-78
-76
-76
-84
-75
-78
-56
-51
-61
-57
-88
-75
-56
-65
-71
-64
-60
-65
-60
-58
-62
-65
-62
-56
-47
-40
-48
-43
-42
-53
-49
-49
-67
-52
-66
-41
-46
-56
-49
-69
-76
-60
-59
-64
-58
-46
-75
-65
-50
-70
-73
-54
-68
-84
-68
-72
-72
-78
-86
-89
-79
-66
-72
-66
-72
-76
-83
-84
-80
-70
-71
-89
-85
-79
-80
-86
-80
-86
-101
-69
-63
-89
-94
-86
-85
-78
-72
-76
-83
-95
-98
-89
-88
-86
-82
-91
-93
-89
-94
-79
-74
-89
-92
-94
-87
-75
-81
-90
-93
-78
-90
-86
-90
-78
-88
-93
-112
-87
-66
-81
-64
-71
-89
-99
-77
-78
-93
-103
-102
-87
-74
-74
-83
-87
-91
-91
-75
-78
-71
-67
-97
-93
-88
-98
-67
-71
-77
-84
-76
-88
-107
-88
-55
-68
-92
-81
-94
-93
-88
-90
-106
-105
-87
-80
-84
-74
-79
-83
-74
-85
-92
-85
-80
-92
-84
-72
-62
-73
-74
-62
-79
-78
-93
-103
-96
-81
-82
-73
-71
-73
-81
-80
-74
-81
-51
-91
-67
-83
-80
-83
-73
-90
-88
-99
-76
-73
-79
-82
-100
-89
-87
-92
-75
-95
-84
-82
-86
-89
-92
-101
-91
-103
-92
-76
-68
-84
-92
-94
-92
-102
-98
-90
-82
-85
-69
-94
-98
-90
-85
-89
-99
-105
-107
-96
-103
-113
-116
-124
-96
-69
-68
-49
-13
15
22
45
61
70
68
52
36
-19
-40
-67
-80
-84
-83
-58
-62
-94
-85
-87
-84
-101
-81
-77
-90
-106
-93
-84
-88
-102
-112
-107
-94
-98
-103
-79
-87
-103
-93
-88
-99
-114
-91
-88
-86
-90
-87
-86
-99
-95
-92
-92
-82
-73
-95
-108
-109
-98
-83
-96
-84
-85
-76
-92
-102
-97
-83
-87
-86
-82
-88
-72
-83
-90
-93
-101
-93
-70
-81
-89
-92
-90
-94
-89
-81
-71
-98
-91
-91
-84
-83
-83
-86
-86
-74
-84
-76
-76
-77
-88
-84
-66
-85
-78
-65
-62
-66
-72
-73
-64
-78
-65
-59
-71
-78
-69
-62
-51
-66
-50
-66
-63
-50
-57
-61
-46
-59
-58
-62
-60
-54
-63
-71
-60
-62
-55
-57
-71
-62
-80
-90
-63
-68
-81
-71
-75
-75
-80
-86
-88
-76
-65
-68
-93
-81
-79
-79
-82
-84
-68
-79
-70
-77
-78
-99
-105
-88
-89
-93
-102
-84
-88
-83
-63
-69
-75
-97
-93
-95
-93
-99
-91
-70
-72
-70
-97
-100
-94
-87
-79
-71
-91
-101
-95
-64
-87
-97
-83
-92
-88
-92
-72
-80
-85
-84
-82
-91
-81
-74
-84
-80
-72
-81
-64
-66
-84
-90
-79
-88
-100
-82
-83
-73
-76
-75
-79
-98
-74
-68
-68
-75
-73
-98
-76
-44
-70
-77
-85
-88
-80
-80
-87
-91
-77
-65
-68
-83
-89
-83
-94
-85
-72
-82
-86
-87
-84
-81
-85
-72
-95
-69
-75
-87
-69
-82
-96
-100
-68
-73
-68
-72
-65
-60
-61
-74
-81
-62
-90
-78
-83
-66
-77
-73
-63
-54
-68
-66
-82
-83
-58
-49
-65
-70
-67
-75
-73
-65
-57
-80
-111
-95
-71
-69
-77
-73
-72
-84
-69
-53
-87
-93
-89
-80
-77
-82
-78
-93
-83
-81
-76
-72
-82
-76
-72
-83
-87
-87
-75
-79
-86
-87
-89
-98
-104
-110
-91
-88
-94
-81
-51
-6
-1
13
41
58
58
80
81
49
35
8
-12
-44
-55
-64
-72
-64
-71
-76
-74
-65
-66
-69
-71
-58
-77
-77
-81
-64
-78
-81
-90
-75
-88
-68
-76
-80
-85
-96
-90
-89
-82
-70
-74
-80
-71
-82
-82
-81
-72
-79
-81
-67
-57
-67
-82
-82
-81
-81
-72
-54
-71
-82
-77
-63
-74
-71
-84
-72
-76
-66
-73
-109
-66
-81
-70
-73
-74
-74
-56
-67
-80
-61
-80
-74
-81
-60
-72
-67
-76
-69
-56
-54
-52
-65
-79
-84
-56
-55
-62
-55
-63
-66
-71
-66
-72
-29
-29
-49
-57
-46
-58
-46
-70
-52
-43
-57
-37
-32
-37
-25
-43
-45
-42
-46
-36
-42
-45
-42
-38
-32
-36
-36
-44
-48
-38
-54
-63
-43
-29
-49
-37
-58
-53
-61
-58
-53
-51
-54
-61
-70
-65
-49
-71
-87
-55
-54
-77
-78
-61
-59
-46
-56
-67
-58
-69
-59
-83
-65
-39
-57
-75
-77
-75
-66
-64
-66
-63
-73
-48
-54
-59
-72
-77
-73
-66
-64
-67
-54
-49
-58
-62
-85
-71
-74
-73
-71
-63
-52
-57
-64
-54
-62
-63
-64
-70
-70
-76
-59
-47
-76
-67
-65
-69
-60
-53
-51
-52
-65
-69
-71
-65
-66
-59
-75
-57
-50
-67
-57
-54
-54
-63
-69
-69
-68
-50
-34
-46
-53
-38
-55
-68
-45
-64
-76
-83
-60
-56
-29
-47
-63
-64
-65
-50
-58
-65
-51
-66
-77
-57
-49
-59
-61
-62
-64
-27
-51
-55
-49
-37
-48
-51
-40
-60
-57
-49
-62
-55
-45
-53
-48
-53
-46
-61
-59
-60
-51
-49
-59
-63
-56
-61
-48
-52
-67
-63
-70
-62
-60
-61
-57
-68
-77
-70
-60
-47
-47
-65
-59
-65
-71
-50
-30
-42
-53
-53
-53
-55
-45
-50
-54
-59
-66
-66
-68
-65
-85
-80
-79
-89
-77
-76
-72
-55
-14
18
23
50
76
99
112
97
80
62
21
1
-15
-39
-46
-61
-36
-63
-66
-50
-50
-42
-56
-62
-55
-52
-57
-44
-56
-62
-71
-64
-62
-63
-51
-48
-53
-82
-62
-67
-83
-55
-55
-53
-51
-36
-68
-59
-61
-54
-57
-62
-68
-43
-60
-66
-54
-60
-72
-67
-60
-61
-48
-44
-49
-64
-65
-61
-62
-57
-57
-54
-63
-54
-42
-54
-46
-20
-56
-71
-51
-37
-34
-54
-80
-58
-49
-55
-56
-56
-64
-59
-50
-33
-42
-43
-50
-51
-43
-50
-48
-55
-48
-34
-39
-33
-35
-42
-41
-13
-24
-28
-34
-41
-22
-15
-25
-36
-17
-22
-14
-33
-34
-20
-6
-12
-25
-33
-9
-20
-36
-26
-15
-36
-37
-31
-14
-34
-49
-24
-37
-39
-34
-40
-27
-21
-31
-58
-38
-2
-26
-63
-61
-37
-50
-51
-34
-55
-63
-51
-52
-43
-51
-55
-61
-56
-47
-37
-49
-41
-63
-48
-40
-51
-38
-53
-50
-50
-45
-50
-62
-63
-46
-31
-52
-44
-39
-48
-64
-59
-34
-61
-37
-49
-60
-56
-48
-55
-42
-33
-36
-66
-35
-41
-42
-49
-67
-54
-32
-46
-51
-54
-43
-32
-57
-48
-41
-45
-43
-39
-38
-44
-40
-56
-59
-34
-29
-50
-52
-50
-57
-49
-26
-48
-48
-45
-36
-53
-48
-45
-50
-58
-39
-43
-51
-45
-61
-40
-42
-42
-43
-48
-41
-41
-45
-51
-46
-39
-44
-30
-29
-34
-51
-32
-35
-32
-14
-50
-35
-37
-45
-46
-47
-31
-45
-31
-43
-44
-30
-29
-59
-49
-29
-35
-35
-41
-51
-47
-45
-19
-30
-50
-38
-36
-64
-54
-34
-40
-49
-47
-47
-35
-46
-49
-37
-38
-53
-67
-43
-47
-48
-47
-50
-49
-49
-49
-46
-52
-48
-45
-55
-41
-52
-45
-33
-52
-67
-67
-64
-55
-61
-46
-49
-29
-7
34
43
62
94
95
102
118
101
71
49
27
2
-21
-40
-41
-46
-26
-44
-44
-42
-25
-21
-45
-28
-40
-71
-78
-50
-36
-45
-50
-61
-57
-57
-43
-44
-53
-51
-51
-34
-58
-60
-31
-41
-49
-48
-61
-37
-38
-41
-49
-58
-27
-56
-46
-47
-41
-46
-51
-54
-44
-35
-45
-51
-46
-39
-43
-36
-41
-46
-32
-50
-51
-44
-31
-38
-30
-47
-53
-52
-48
-57
-41
-54
-34
-31
-28
-43
-23
-34
-47
-37
-23
-11
-49
-17
-9
-27
-59
-46
-36
-40
-44
-22
-29
-26
-25
-17
-14
-7
-23
-33
-18
-23
-25
-12
-17
-20
-16
-13
-7
-18
-20
2
-10
-4
6
-4
-24
-22
-4
-6
-9
-19
-23
-31
-33
-20
-14
-18
-26
-31
-22
-18
-38
-43
-15
-13
-28
-33
-32
-48
-46
-45
-33
-37
-29
-31
-33
-43
-33
-45
-48
-43
-67
-23
-28
-40
-48
-22
-17
-27
-37
-40
-37
-43
-27
-34
-41
-47
-55
-55
-26
-49
-36
-25
-24
-44
-40
-53
-54
-34
-25
-29
-24
-42
-65
-40
-44
-51
-46
-38
-45
-21
-30
-47
-45
-37
-42
-42
-51
-37
-36
-37
-49
-34
-42
-31
-40
-45
-21
-42
-43
-43
-33
-44
-36
-26
-23
-16
-49
-42
-21
-40
-29
-22
-17
-21
-29
-39
-41
-29
-37
-32
-24
-16
-54
-40
-48
-42
-48
-44
-34
-38
-42
-39
-25
-34
-47
-38
-50
-42
-44
-52
-16
-11
-28
-18
-24
-28
-26
-17
-10
-31
-33
-25
-28
-44
-8
-10
-11
-32
-45
-41
-33
-40
-44
-33
-43
-45
-28
-32
-33
-45
-42
-43
-34
-47
-36
-42
-27
-34
-45
-31
-37
-32
-35
-12
-22
-49
-50
-54
-36
-47
-36
-19
-39
-40
-42
-51
-35
-34
-29
-42
-46
-71
-76
-65
-46
-50
-18
-1
18
45
79
90
101
127
133
94
78
56
15
-2
-11
-27
-20
-35
-29
-40
-45
-32
-39
-42
-28
-29
-17
-34
-43
-47
-38
-43
-54
-39
-31
-37
-49
-46
-35
-36
-33
-36
-32
-50
-34
-45
-42
-35
-35
-55
-42
-48
-51
-29
-39
-48
-35
-50
-44
-49
-42
-34
-45
-40
-49
-34
-35
-31
-46
-44
-51
-40
-41
-40
-23
-40
-39
-37
-36
-37
-43
-39
-40
-31
-21
-36
-37
-30
-45
-41
-30
-19
-36
-36
-33
-23
-8
-31
-19
-46
-34
-28
-21
-27
-19
-18
-13
-18
-14
-21
-2
-2
-18
-10
-21
-21
-12
4
3
-4
-7
-9
-23
-14
-23
-12
4
-4
-13
-14
-6
-1
-9
-10
-13
-18
-28
-25
-17
-20
-14
-5
-11
-30
-23
-19
-24
-18
-23
-23
-30
-30
-29
-29
-29
-37
-32
-39
-37
-30
-39
-33
-41
-33
-20
-19
-30
-45
-52
-38
-18
-21
-23
-42
-37
-34
-20
-36
-49
-19
-20
-29
-34
-31
-32
-34
-20
-36
-32
-24
-36
-64
-40
-35
-34
-36
-40
-33
-49
-32
-34
-38
-35
-25
-62
-37
-45
-38
-32
-35
-39
-39
-46
-41
-27
-23
-35
-45
-41
-40
-31
-38
-33
-44
-54
-29
-22
-23
-39
-13
-13
-32
-20
-19
-48
-53
-21
-21
-46
-40
-33
-27
-38
-32
-26
-26
-38
-30
-31
-30
-40
-24
-23
-29
-45
-16
-31
-19
-5
0
-34
-27
-17
-43
-21
-31
-40
-36
-50
-24
-27
-34
-35
-27
-38
-21
-25
-28
-17
-33
-22
-24
-22
-23
-24
-26
-35
-14
-40
-50
-38
-39
-36
-32
-28
-28
-34
-33
-32
-49
-39
-46
-33
-29
-34
-38
-33
-28
-35
-39
-31
-23
-35
-43
-32
-32
-29
-53
-43
-57
-19
-8
-27
-26
-36
-53
-38
-67
-67
-61
-35
-64
-54
-23
4
19
56
67
93
101
120
133
137
87
70
23
22
-15
-12
-43
-31
-18
-27
-31
-35
-39
-41
-42
-37
-32
-36
-47
-34
-51
-36
-26
-52
-57
-38
-38
-41
-38
-34
-30
-38
-38
-28
-41
-39
-27
-38
-32
-29
-12
-42
-34
-4
-17
-53
-61
-50
-42
-37
-49
-1
-32
-26
-47
-41
-45
-44
-32
-26
-21
-24
-29
-38
-50
-59
-48
-35
-33
-36
-50
-38
-26
-40
-39
-33
-32
-35
-41
-37
-28
-29
-28
-18
-21
-27
-17
-27
-21
-22
-26
-19
-26
-38
-19
-14
-12
-7
-4
-15
-24
1
-9
-20
-7
-1
-8
-7
-6
6
-16
-4
-9
-9
-14
0
5
-4
-13
-8
-4
-5
15
2
-34
-20
-2
19
-9
-34
-36
-18
-12
-36
-24
-12
-22
-18
-37
-36
-34
-29
-24
-21
-30
-31
-27
-27
-34
-23
-21
-44
-30
-43
-48
-35
-20
-44
-34
-33
-27
-30
-18
-32
-28
-27
-27
-44
-38
-27
-14
-30
-43
-44
-16
-23
-34
-31
-31
-37
-38
-41
-39
-31
-27
-41
-49
-36
-30
-32
-48
-29
-59
-31
-29
-34
-48
-36
-16
-26
-45
-27
-30
-48
-34
-38
-44
-46
-29
-21
-38
-29
-47
-28
-24
-23
-25
-25
-38
-31
-37
-28
-47
-32
-24
-30
-46
-23
-31
-29
-28
-31
-33
-23
-35
-44
-53
-37
-44
-14
-19
-22
0
-34
-30
-23
-33
-36
-18
-10
-26
-20
-20
-39
-18
-28
-32
-49
-32
-22
-15
-15
-28
-31
-29
-32
-22
-4
2
-14
-37
-22
-9
-26
-21
-23
-33
-28
-19
-19
-23
-29
-46
-40
-35
-41
-34
-36
-34
-30
-38
-38
-35
-36
-23
-25
-25
-37
-21
-46
-16
-33
-23
-35
-48
-28
-21
-42
-31
-29
-20
-39
-36
-34
-56
-24
-15
-47
-53
-56
-64
-53
-67
-52
-31
-43
-10
-6
25
68
92
119
120
137
112
97
79
50
30
11
-12
-29
-36
-30
-29
-35
-32
-31
-24
-30
-30
-46
-52
-43
-31
-51
-35
-39
-34
-38
-42
-43
-47
-44
-64
-43
-6
-11
-62
-44
-38
-36
-41
-40
-35
-37
-27
-30
-51
-51
-46
-45
-52
-26
-19
-43
-54
-32
-35
-37
-30
-34
-46
-40
-53
-50
-36
-44
-29
-24
-36
-44
-40
-38
-41
-36
-33
-32
-40
-27
-21
-34
-37
-51
-20
-22
-31
-32
-20
-21
-32
-42
-37
-19
-23
-31
-11
-3
-19
-28
-22
-26
-9
-6
-17
-28
-17
-9
-2
-20
-15
-11
6
5
-18
-10
8
7
9
2
-3
0
-8
-17
-11
-12
-13
-4
-2
-4
5
-23
-2
-17
-11
-16
-19
-16
-15
-18
-24
-17
-20
-26
-17
-26
-23
-17
-25
-24
-24
-37
-15
-18
-19
-35
-27
-13
-26
-25
-39
-41
-22
-29
-36
-28
-35
-39
-26
-35
-30
-21
-27
-47
-53
-33
-28
-31
-25
-16
-27
-27
-37
-30
-40
-41
-37
-33
-31
-23
-29
-27
-29
-37
-39
-27
-23
-35
-38
-31
-36
-34
-27
-23
-34
-44
-33
-37
-35
-39
-30
-29
-32
-32
-25
-31
-28
-32
-37
-19
-39
-43
-39
-26
-22
-10
-2
-30
-35
-29
-41
-28
-21
-19
-48
-48
-41
-22
-22
-20
-29
-21
-27
-32
-42
-24
-43
-36
-39
-25
-38
-36
-22
-24
-23
-15
-43
-32
-27
-30
-41
-37
-35
-34
-26
-24
-31
-31
-33
-30
-30
-25
-28
-39
-31
-19
-10
-35
-45
3
-17
-23
-44
-33
-29
-16
-41
-50
-35
-42
-28
-31
-29
-19
-24
-46
-51
-45
-47
-39
-32
-32
-47
-50
-37
-29
-41
-40
-52
-59
-52
-49
-56
-32
-6
-10
-34
-48
-58
-48
-81
-70
-62
-59
-19
5
13
46
59
100
90
125
140
122
86
75
33
11
-20
-39
-45
-33
-37
-52
-32
-40
-41
-34
-35
-45
-46
-54
-60
-48
-20
-41
-27
-40
-44
-54
-37
-40
-40
-47
-37
-31
-34
-30
-40
-22
-24
-51
-54
-51
-78
-47
-24
-33
-40
-48
-44
-35
-48
-61
-19
-26
-47
-39
-45
-48
-51
-46
-33
-51
-55
-53
-46
-44
-43
-40
-36
-23
-41
-39
-33
-39
-46
-40
-35
-39
-42
-48
-43
-41
-39
-46
-42
-26
-24
-43
-43
-29
-38
-31
-19
-35
-26
-27
-25
-18
-23
-27
-34
-15
-8
2
-15
-7
-39
-36
-1
-20
-40
-4
-16
-27
-20
-19
-21
-5
0
-4
-10
-34
-20
-17
-25
-26
-36
-11
-23
-29
-31
-21
-21
-25
-23
-23
-16
-33
-25
-50
-45
-47
-40
0
-41
-40
-39
-40
-43
-41
-38
-48
-34
-27
-37
-60
-41
-34
-31
-57
-60
-33
-38
-48
-41
-33
-50
-54
-34
-53
-62
-41
-53
-48
-49
-26
-34
-62
-62
-48
-50
-32
-53
-66
-54
-53
-60
-47
-52
-47
-48
-40
-56
-37
-52
-70
-54
-52
-37
-43
-59
-47
-61
-50
-51
-66
-50
-51
-57
-48
-44
-56
-61
-56
-57
-48
-50
-51
-57
-62
-48
-58
-69
-56
-59
-56
-58
-58
-66
-75
-83
-80
-73
-76
-74
-84
-76
-85
-69
-72
-84
-92
-86
-83
-77
-82
-90
-87
-73
-91
-91
-70
-92
-82
-84
-103
-106
-106
-87
-91
-102
-96
-91
-108
-87
-104
-122
-104
-97
-109
-73
-91
-111
-104
-107
-111
-123
-95
-91
-94
-96
-84
-79
-108
-104
-97
-95
-87
-112
-89
-71
-96
-95
-90
-83
-86
-105
-101
-105
-101
-102
-88
-104
-111
-84
-87
-94
-94
-100
-115
-101
-101
-110
-102
-119
-131
-138
-123
-83
-91
-80
-67
-31
16
47
36
46
76
58
36
10
-9
-29
-64
-79
-96
-104
-98
-89
-103
-107
-90
-95
-96
-88
-83
-94
-119
-105
-110
-99
-120
-122
-118
-121
-116
-114
-132
-124
-130
-128
-118
-122
-119
-121
-130
-122
-123
-130
-116
-120
-132
-119
-128
-122
-116
-130
-123
-131
-129
-132
-114
-121
-124
-128
-148
-153
-137
-130
-143
-129
-129
-135
-139
-142
-150
-146
-151
-150
-140
-134
-134
-127
-128
-132
-149
-160
-128
-153
-138
-114
-117
-138
-127
-125
-120
-126
-136
-129
-113
-104
-116
-123
-112
-96
-121
-90
-94
-119
-121
-114
-100
-89
-84
-88
-85
-86
-100
-104
-93
-60
-74
-58
-58
-78
-87
-81
-66
-84
-87
-74
-72
-69
-51
-62
-72
-94
-93
-82
-76
-88
-79
-87
-69
-93
-66
-65
-96
-100
-80
-61
-78
-100
-91
-94
-88
-71
-79
-100
-84
-68
-89
-92
-106
-102
-83
-82
-94
-95
-69
-80
-88
-77
-80
-73
-87
-78
-85
-84
-77
-73
-57
-81
-71
-88
-76
-76
-91
-69
-81
-82
-66
-68
-73
-71
-56
-78
-97
-90
-75
-54
-78
-83
-80
-90
-74
-83
-66
-75
-91
-57
-46
-59
-87
-74
-80
-56
-85
-72
-52
-63
-73
-56
-77
-71
-68
-78
-70
-97
-67
-49
-72
-69
-74
-81
-79
-64
-65
-58
-67
-72
-64
-68
-77
-68
-46
-55
-72
-72
-58
-59
-62
-57
-58
-57
-56
-61
-82
-60
-63
-59
-53
-55
-57
-69
-59
-48
-53
-67
-48
-21
-50
-62
-63
-59
-67
-64
-43
-43
-58
-60
-48
-62
-75
-64
-77
-75
-85
-65
-59
-54
-46
-54
-56
-59
-54
-71
-69
-63
-77
-71
-74
-77
-50
-66
-83
-83
-67
-58
-61
-61
-67
-58
-66
-78
-65
-60
-77
-75
-62
-85
-75
-76
-80
-82
-55
-43
-35
4
37
34
62
72
91
94
89
60
39
15
1
-17
-34
-64
-77
-38
-34
-47
-40
-53
-56
-77
-76
-73
-36
-70
-55
-69
-68
-72
-70
-70
-56
-51
-45
-46
-56
-66
-63
-60
-79
-60
-73
-59
-63
-65
-68
-72
-59
-55
-65
-62
-60
-59
-53
-53
-67
-67
-54
-51
-46
-56
-60
-57
-52
-61
-57
-60
-65
-51
-22
-25
-60
-70
-66
-43
-60
-44
-54
-57
-54
-54
-51
-71
-69
-65
-52
-49
-43
-53
-42
-44
-57
-40
-39
-34
-42
-60
-48
-48
-36
-22
-27
-19
-42
-45
-44
-50
-51
-32
-12
-37
-31
-18
-30
-30
-26
-36
-31
-15
-31
-31
-19
-35
-29
-25
-32
-28
-22
-15
-20
-32
-42
-28
-32
-31
-34
-29
-24
-27
-29
-19
-41
-34
-33
-34
-37
-43
-47
-59
-53
-38
-51
-44
-34
-58
-39
-49
-52
-45
-57
-59
-46
-57
-51
-30
-45
-54
-17
-40
-62
-57
-49
-45
-56
-43
-42
-51
-50
-49
-60
-46
-34
-53
-50
-48
-53
-61
-52
-47
-50
-52
-55
-55
-50
-50
-48
-64
-49
-60
-64
-62
-33
-33
-35
-45
-45
-51
-35
-41
-37
-34
-49
-58
-42
-44
-52
-54
-40
-41
-50
-29
-34
-42
-52
-38
-42
-36
-18
-27
-65
-66
-21
-54
-62
-40
-17
-38
-41
-36
-56
-54
-38
-36
-36
-46
-47
-54
-35
-25
-54
-57
-47
-28
-53
-19
-37
-55
-44
-29
-45
-54
-48
-44
-38
-40
-46
-36
-36
-31
-44
-44
-36
-41
-24
-19
-40
-42
-38
-18
-34
-37
-29
-47
-31
-48
-52
-38
-51
-55
-44
-37
-51
-51
-34
-60
-63
-49
-21
-44
-44
-41
-34
-39
-57
-49
-29
-40
-60
-60
-43
-34
-53
-47
-45
-52
-57
-40
-42
-40
-53
-43
-41
-77
-78
-56
-80
-64
-37
-42
-24
-10
16
46
81
95
109
108
106
84
63
37
16
-10
-22
-36
-41
-46
-51
-45
-46
-31
-39
-37
-37
-32
-45
-47
-52
-53
-53
-65
-53
-39
-53
-54
-44
-35
-48
-42
-63
-67
-54
-34
-51
-46
-38
-49
-35
-40
-52
-62
-64
-45
-41
-28
-62
-14
-40
-45
-41
-48
-53
-31
-59
-63
-55
-47
-46
-61
-48
-49
-51
-44
-46
-49
-40
-25
-36
-35
-50
-46
-49
-49
-35
-40
-45
-42
-50
-40
-47
-41
-36
-32
-30
-46
-49
-31
-28
-33
-36
-35
-20
-24
-15
-33
-37
-32
-20
-34
-19
-20
-26
-19
-21
-5
-16
-14
6
-23
-22
0
26
14
-31
-38
-15
-10
-16
-34
-31
-4
-15
-17
-14
-24
-24
-19
-22
-21
-27
-32
-26
-30
-26
-22
-19
-20
-37
-54
-48
-44
-40
-39
-34
-34
-35
-63
-42
-30
-36
-44
-39
-26
-34
-52
-48
-51
-39
-43
-28
-32
-17
-44
-65
-65
-42
-35
-36
-41
-38
-40
-47
-37
-31
-33
-36
-33
-38
-26
-47
-48
-56
-41
-39
-48
-32
-35
-31
-37
-39
-40
-26
-33
-66
-46
-64
-62
-36
-44
-52
-39
-22
-42
-37
-33
-23
-10
-30
-54
-55
-45
-17
-31
-51
-38
-23
-48
-44
-35
-25
-26
-27
-34
-37
-44
-45
-48
-33
-44
-41
-40
-17
-12
-40
-53
-45
-29
-38
-32
-43
-42
-50
-42
-37
-28
-27
-25
-29
-42
-31
-30
-29
-23
-42
-39
-37
-49
-36
-18
-14
-36
-25
-33
-37
-14
-21
-37
-27
-36
-26
-23
-34
-44
-29
-12
-35
-21
-36
-27
-28
-51
-42
-35
-44
-44
-48
-45
-42
-44
-22
-26
-41
-46
-45
-27
-31
-34
-35
-41
-42
-40
-48
-53
-45
-42
-40
-41
-33
-37
-36
-35
-32
-29
-43
-40
-40
-32
-35
-48
-73
-41
-56
-58
-42
-38
-17
-6
10
20
67
50
63
112
118
109
90
76
39
29
-18
-13
-31
-35
-44
-44
-20
-29
-5
-16
-36
-53
-43
-27
-30
-33
-52
-41
-45
-48
-54
-62
-50
-56
-32
-40
-68
-44
-37
-33
-17
-29
-28
-43
-31
-36
-31
-19
-35
-49
-61
-49
-46
-35
-46
-31
-34
-38
-32
-41
-43
-24
-21
-41
-37
-27
-44
-39
-36
-27
-41
-45
-50
-58
-24
-38
-37
-28
-42
-25
-29
-39
-31
-34
-20
-26
-36
-35
-25
-31
-55
-34
-28
-32
-22
-7
-16
-12
-18
-34
-19
-35
-25
-12
-16
-17
-13
-18
-21
-20
-8
10
-7
-9
-2
-5
-2
-8
-23
-11
-9
3
-7
-7
6
2
-3
-12
4
-7
-3
-14
-15
-19
-14
-21
-17
-20
-13
-17
-29
-8
-9
-17
-38
-21
-21
-19
-24
-30
-25
-21
-38
-10
-6
-50
-38
-34
-48
-38
-22
-33
-38
-40
-29
-35
-25
-33
-30
-19
-25
-51
-32
-32
-31
-34
-41
-21
-36
-39
-37
-25
-26
-40
-47
-25
-26
-27
-46
-35
-25
-36
-31
-36
-40
-28
-16
-32
-45
-39
-36
-26
-34
-27
-34
-31
-27
-16
-15
-23
-34
-36
-31
-22
-34
-38
-35
-26
-32
-29
-25
-35
-26
-34
-12
-21
-14
-39
-38
-38
-33
-28
-39
-26
-17
-30
-27
-26
-28
-35
-17
-24
-30
-28
-18
-28
-33
-24
-35
-42
-21
-23
-30
-16
-26
-33
-25
-24
-42
-1
-41
-21
-32
-34
-17
-14
-22
-39
-35
-19
-20
-15
-27
3
-16
-44
-40
-16
-23
-20
1
-18
-9
-17
-18
-23
-25
-41
-41
-22
-12
-12
-20
-28
-27
-28
-17
-28
-35
-31
-43
-54
-31
-26
-26
-23
-16
-13
-30
-33
-37
-41
-26
-32
-18
-15
-28
-46
-33
-31
-26
-43
-28
-12
-29
-23
-30
-57
-42
-50
-56
-51
-58
-47
-39
-12
2
12
35
58
82
103
125
131
115
99
81
56
24
-4
-24
-31
-32
-33
-25
-10
-16
-31
-24
-23
-32
-38
-27
-12
-14
-49
-35
-20
-31
-47
-35
-48
-38
-41
-41
-29
-34
-40
-41
-32
-28
-41
-34
-29
-26
-25
-32
-40
-31
-16
-25
-31
-42
-47
-43
-27
-38
-28
-31
-40
-33
-44
-28
-32
-31
-32
-44
-24
-28
-35
-33
-28
-20
-26
-23
-28
-46
-37
-37
-36
-34
-34
-18
-20
-27
-29
-17
-11
-26
-23
-8
-14
-24
4
-9
-11
-11
-20
-23
-26
-26
-27
-9
5
-11
-14
-11
-24
-7
-2
-8
-9
-5
-14
-7
-7
-2
8
-11
-8
11
-6
-16
-3
-7
-3
-2
8
23
10
-4
-9
-6
-4
-5
-24
-11
-15
-14
-16
-11
-17
-10
-15
-18
-15
-21
-24
-13
-24
-42
-26
-18
-25
-26
-31
-20
-32
-26
-37
-28
5
-8
-31
10
-32
-53
-26
-32
-26
-31
-24
-10
-23
-37
-44
-50
-35
-35
-37
-36
-40
-41
-33
-6
-18
-30
-12
-9
-24
-34
-29
-37
-38
-32
-31
-27
-29
-21
-39
-34
-27
-22
-26
-29
-17
-14
-24
-30
-33
-35
-29
-14
-15
-21
-32
-33
-22
-23
-31
-23
-27
-33
-35
-19
-31
-23
-18
-13
-38
-42
-41
5
0
-7
-28
-5
-14
-47
-34
-52
-23
-15
-33
-32
-29
-38
-28
-19
-36
-38
-38
-18
-18
-22
-11
-9
-33
-36
-30
-20
-33
-19
-28
-11
-15
0
-11
-22
-32
-20
-16
-10
-15
-26
-24
-16
-26
-28
-33
-29
-31
-26
-23
-23
-16
-20
-29
-23
-41
-27
-30
-31
-26
-31
-32
-34
-37
13
-24
-32
-32
-37
-21
-28
-31
-30
-29
-26
-19
-48
-47
-40
-31
-16
-20
-48
-24
-21
-32
-37
-38
-31
-64
-52
-51
-36
-28
-23
8
26
46
66
68
90
133
118
113
101
84
56
34
3
-19
-31
-39
-37
-43
-28
-29
-17
-22
-21
-30
-27
-34
-40
-33
-42
-19
-18
-38
-41
-31
-40
-23
-40
-31
-49
-40
-36
-29
-11
-27
-47
-30
-35
-32
-33
-40
-26
-30
-49
-39
-27
-28
-39
-31
-46
-48
-33
-36
-20
-41
-19
-37
-36
-45
-40
-37
-44
-39
-24
-35
-40
2
-28
-49
-33
-30
-29
-27
-23
-21
-39
-48
-38
-31
-36
-37
-36
-12
-21
-20
-21
-18
-9
-26
-30
-13
-29
-29
-33
-14
-12
-17
-20
-29
-12
-9
7
-6
-11
0
-9
-33
-16
1
-1
-13
-10
-6
-16
2
20
-6
-4
-23
-16
-4
8
-23
-13
-4
-11
-20
-10
-13
-19
-23
-15
-7
3
-18
-6
-41
-31
-24
-27
-25
-34
-23
-29
-35
-33
-45
-39
-35
-37
-26
-39
-42
-27
-19
-27
-42
-39
-35
-30
-29
-25
-33
-34
-30
-44
-46
-48
-36
-30
-23
-33
-24
-34
-52
-48
-35
-29
-40
-45
-19
-26
-9
-32
-32
-31
-36
-44
-38
-43
-41
-12
-16
-36
-26
-21
-48
-35
-36
-33
-35
-40
-28
-44
-41
-21
-19
-31
-39
-28
-35
-55
-42
-36
-36
-42
-36
-28
-35
-39
-11
-25
-33
-39
-30
-30
-29
-41
-39
-24
-19
-39
-34
-27
-30
-26
-21
-35
-27
-20
-28
-25
-32
-29
-22
-39
-18
-34
-40
-31
-34
-45
-28
-22
-25
-29
-36
-32
-24
-26
-27
-38
-35
-30
4
-1
-44
-18
-23
-19
-36
-30
-2
-20
-15
-22
-45
-58
-50
-44
-32
-34
-36
-41
-38
-35
-56
-45
-40
-32
-29
-32
-40
-38
-39
-38
-35
-31
-32
-38
-33
-28
-41
-43
-45
-29
-33
-25
-41
-45
-37
-33
-33
-25
-44
-67
-65
-62
-54
-52
-34
-34
4
28
51
87
84
113
126
133
114
98
71
24
15
4
-31
-30
-26
-25
-31
-43
-37
-28
-34
-28
-53
-39
-34
-28
-32
-52
-44
-45
-61
-59
-52
-44
-30
-36
-46
-41
-40
-34
-48
-41
-32
-45
-50
-37
-27
-37
-28
-38
-39
-45
-39
-41
-47
-31
-50
-41
-23
-36
-46
-40
-43
-45
-35
-41
-46
-23
-25
-43
-51
-34
-18
-20
-22
-42
-62
-40
-32
-39
-36
-17
-10
-40
-42
-42
-43
-52
-26
-22
-43
-37
-38
-39
-31
-20
-17
-39
-67
-33
-12
-15
-19
-29
-19
-24
-29
-31
-22
-21
-24
-14
-7
-11
-7
2
-3
-17
-10
-12
-14
-17
-2
8
-18
-8
-12
-9
-4
-19
-25
-9
-14
-31
-27
-8
-12
-21
-29
-13
0
-1
-41
-41
-21
-14
-11
-27
-46
-42
-33
-30
-24
-27
-22
-34
-32
-37
-46
-42
-38
-14
-42
-42
-36
-52
-45
-34
-34
-38
-33
-28
-30
-45
-39
-39
-50
-40
-38
-47
-50
-45
-46
-41
-22
-25
-30
-38
-37
-48
-36
-36
-36
-43
-24
-26
-44
-49
-35
-39
-48
-33
-33
-47
-37
-31
-24
-32
-59
-52
-43
-36
-41
-22
-49
-38
-42
-17
-41
-39
-40
-45
-46
-40
-31
-35
-49
-31
-31
-38
-40
-43
-10
-23
-34
-37
-46
-29
-34
-39
-63
-46
-35
-40
-18
-31
-47
-37
-44
-47
-25
-37
-43
-53
-41
-16
-30
-44
-41
-39
-38
-35
-28
-18
-47
-41
-26
-19
-25
-33
-46
-38
-26
-41
-16
-23
-44
-20
-26
-38
-38
-33
-30
-42
-38
-11
-29
-34
-35
-39
-32
-60
-72
-40
-33
-38
-21
-41
-37
-32
-37
-46
-55
-53
-36
-34
-49
-48
-50
-41
-51
-51
-43
-44
-30
-51
-44
-46
-39
-36
-40
-45
-50
-46
-56
-58
-72
-75
-74
-61
-47
-21
-18
4
27
61
59
86
97
114
101
80
71
26
12
-10
-38
-41
-41
-34
-44
-23
-44
-49
-42
-16
-36
-43
-53
-46
-34
-40
-38
-50
-56
-43
-53
-46
-44
-46
-64
-49
-46
-33
-25
-36
-66
-61
-55
-55
-40
-35
-51
-58
-44
-44
-38
-24
-57
-82
-58
-41
-35
-56
-57
-44
-28
-40
-52
-56
-43
-50
-39
-29
-55
-44
-55
-51
-39
-34
-19
-43
-34
-41
-35
-26
-34
-36
-43
-61
-38
-29
-33
-28
-39
-52
-24
-36
-35
-35
-11
-34
-45
-19
-25
-42
-31
-22
-36
-24
-34
-6
-16
-19
-16
-18
-21
-23
-33
-23
-23
-28
-19
-16
-2
0
10
-7
-10
-25
-18
-6
-1
-7
-4
-9
-30
-24
-31
-31
-55
-29
-29
-23
-14
-30
-28
-27
-43
-25
-21
-32
-29
-38
-40
-19
-28
-44
-35
-59
-47
-48
-24
-46
-43
-39
-33
-58
-7
-11
-56
-44
-36
-42
-44
-57
-28
-38
-51
-40
-34
-40
-30
-32
-25
-46
-41
-35
-44
-41
-55
-42
-29
-43
-37
-39
-45
-55
-49
-58
-56
-48
-43
-37
-29
-38
-43
-40
-50
-34
-44
-49
-45
-44
-41
-45
-52
-44
-40
-39
-34
-28
-29
-28
-52
-35
-36
-32
-30
-38
-44
-41
-34
-37
-34
-36
-52
-36
-40
-44
-42
-26
-37
-52
-27
-48
-38
-47
-30
-41
-34
-25
-47
-48
-45
-43
-19
-25
-41
-39
-41
-31
-34
-42
-41
-38
-39
-57
-36
-38
-38
-27
-26
-44
-27
-19
-31
-32
-37
-33
-31
-26
-40
-45
-34
-29
-33
-37
-24
-34
-47
-21
-46
-26
-50
-39
-60
-56
-44
-30
-21
-38
-23
-34
-45
-42
-56
-31
-40
-43
-58
-49
-51
-34
-30
-43
-39
-31
-50
-53
-59
-45
-40
-49
-48
-41
-58
-75
-50
-47
-43
-65
-68
-54
-27
-8
-13
17
35
51
70
106
117
131
84
63
23
5
8
-17
-21
-42
-32
-44
-29
-38
-47
-22
-43
-57
-45
-23
-36
-44
-38
-44
-64
-48
-49
-50
-32
-33
-60
-52
-49
-41
-54
-45
-53
-64
-43
-49
-26
-43
-15
-33
-66
-46
-50
-42
-53
-57
-28
-35
-23
-25
-55
-67
-46
-36
-33
-47
-31
-37
-47
-49
-41
-46
-47
-38
-35
-26
-46
-61
-54
-32
-27
-29
-44
-44
-24
-41
-41
-38
-44
-46
-46
-46
-28
-26
-47
-42
-45
-28
-24
-32
-30
-36
-38
-31
-19
-25
-20
32
-6
-16
-22
-36
-29
-41
-15
-13
-7
-3
-12
-18
-15
-10
-15
-11
-14
-12
-20
-18
-30
-38
-30
-21
-28
-12
-2
-21
-6
-31
-22
-13
-26
-32
-38
-26
-30
-10
-28
-47
-50
-43
-50
-51
-49
-41
-32
-23
-44
-28
-43
-65
-55
-32
-34
-36
-36
-36
-33
-46
-30
-41
-61
-58
-46
-33
-29
-54
-43
-41
-43
-45
-51
-34
-48
-43
-33
-29
-25
-36
-68
-45
-33
-38
-45
-58
-50
-57
-32
-27
-34
-23
-67
-52
-48
-57
-55
-51
-52
-65
-46
-42
-47
-54
-49
-32
-42
-37
-30
-46
-40
-49
-45
-40
-48
-47
-34
-35
-35
-33
-38
-43
-48
-45
-33
-33
-38
-54
-30
-41
-55
-46
-40
-44
-50
-49
-39
-47
-35
-38
-42
-44
-16
-50
-46
-40
-40
-47
-44
-34
-55
-45
-26
-27
-33
-49
-27
-37
-35
-43
-49
-45
-42
-27
-33
-28
-46
-34
-27
-28
-37
-37
-47
-40
-35
-34
-45
-50
-43
-53
-45
-41
-42
-33
-50
-49
-50
-43
-51
-45
-41
-35
-39
-55
-54
-41
-53
-37
-44
-15
-55
-37
-58
-53
-24
-47
-56
-62
-53
-54
-38
-56
-64
-52
-52
-54
-51
-58
-66
-74
-60
-29
-25
2
24
51
76
79
94
90
92
78
41
19
-1
-28
-38
-37
-41
-36
-26
-19
-46
-69
-48
-44
-48
-37
-53
-54
-54
-49
-31
-37
-66
-48
-49
-57
-44
-50
-48
-46
-51
-35
-41
-59
-60
-14
-26
-52
-44
-40
-54
-87
-57
-58
-49
-56
-65
-59
-60
-52
-27
-52
-49
-45
-65
-40
-39
-47
-42
-54
-44
-55
-44
-53
-60
-44
-49
-52
-50
-51
-42
-59
-31
-7
-13
-58
-69
-58
-55
-48
-49
-41
-29
-35
-41
-29
-37
-31
-39
-42
-37
-37
-46
-36
-37
-28
-22
-24
-23
-34
-37
-32
-22
-21
-10
-16
-21
-30
-15
-24
-22
-21
-25
5
-7
-14
-26
-12
-19
-24
-19
-22
-5
-11
-11
-42
-36
-29
-34
-41
-46
-30
-25
-20
-29
-39
-47
-45
-26
-42
-39
-47
-38
-48
-36
-27
-45
-26
-48
-53
-46
-48
-43
-56
-44
-51
-47
-41
-43
-35
-62
-55
-54
-46
-37
-36
-50
-52
-41
-49
-46
-54
-56
-53
-40
-34
-39
-32
-19
-56
-71
-54
-40
-35
-47
-43
-54
-50
-47
-29
-28
-28
-28
-60
-51
-45
-59
-54
-29
-51
-53
-48
-46
-50
-50
-47
-51
-48
-48
-41
-34
-45
-36
-37
-40
-26
-52
-35
-48
-43
-37
-56
-40
-24
-35
-46
-48
-52
-46
-24
-41
-36
-45
-46
-45
-40
-60
-53
-45
-39
-41
-33
-30
-28
-42
-48
-47
-41
-41
-38
-44
-38
-40
-27
-39
-43
-39
-31
-29
-13
-30
-37
-18
-13
-38
-40
-43
-54
-52
-50
-28
-37
-58
-50
-51
-53
-57
-42
-37
-45
-46
-39
-42
-35
-42
-68
-62
-34
-43
-51
-68
-67
-62
-55
-46
-52
-52
-42
-50
-43
-33
-40
-59
-50
-44
-46
-56
-58
-51
-65
-73
-59
-78
-62
-46
-38
-18
10
31
48
51
86
109
99
85
77
45
51
-17
-31
-33
-31
-48
-56
-40
-47
-43
-45
-43
-51
-47
-50
-57
-48
-40
-52
-63
-55
-54
-64
-41
-31
-50
-51
-48
-45
-49
-54
-55
-58
-44
-39
-44
-37
-36
-62
-63
-63
-53
-50
-53
-60
-57
-55
-53
-52
-37
-43
-44
-48
-49
-49
-50
-55
-48
-32
-43
-56
-56
-54
-49
-53
-42
-40
-47
-31
-29
-36
-25
-59
-61
-44
-53
-37
-49
-60
-52
-33
-34
-44
-45
-41
-41
-38
-37
-30
-36
-40
-37
-36
-26
-32
-42
-22
-13
-30
-28
-33
-28
-21
-22
-41
-22
-11
-21
-32
-30
-26
-23
-11
0
-25
-4
-16
-22
-20
-10
-18
-38
-33
-33
-25
-35
-32
-43
-45
-41
-22
-32
-37
-22
-29
-28
-63
-51
-39
-40
-43
-25
-31
-33
-43
-55
-51
-57
-52
-64
-27
-26
-40
-41
-54
-51
-55
-53
-58
-57
-53
-46
-48
-37
-41
-35
-48
-44
-58
-46
-32
-64
-58
-37
-53
-60
-51
-40
-54
-56
-53
-59
-49
-44
-52
-42
-40
-40
-51
-44
-48
-57
-54
-45
-45
-35
-50
-59
-55
-46
-42
-50
-55
-56
-48
-40
-13
-50
-72
-47
-49
-53
-43
-44
-38
-46
-42
-56
-53
-31
-59
-43
-56
-50
-41
-43
-59
-60
-18
-19
-34
-32
-37
-42
-37
-44
-38
-36
-50
-43
-43
-53
-56
-47
-38
-45
-46
-50
-46
-42
-41
-38
-47
-36
-50
-45
-39
-34
-42
-40
-39
-47
-45
-49
-42
-45
-46
-39
-53
-49
-47
-59
-53
-45
-40
-32
-35
-67
-58
-52
-46
-43
-40
-46
-27
-37
-53
-61
-44
-49
-55
-33
-63
-69
-56
-38
-44
-52
-48
-50
-59
-49
-49
-53
-68
-67
-81
-75
-64
-42
-8
5
29
51
63
87
107
100
81
64
36
15
-7
-14
-35
-36
-44
-45
-41
-36
-49
-49
-46
-52
-46
-41
-52
-46
-46
-61
-62
-52
-41
-47
-44
-57
-65
-58
-46
-46
-54
-58
-53
-39
-53
-38
-45
-47
-51
-42
-53
-38
-44
-48
-44
-47
-59
-50
-61
-55
-66
-56
-48
-55
-42
-52
-57
-54
-48
-55
-56
-52
-57
-51
-44
-45
-44
-45
-27
-60
-64
-42
-37
-45
-41
-53
-54
-37
-39
-54
-57
-51
-43
-28
-22
-41
-53
-36
-31
-26
-29
-25
-26
-25
-38
-34
-21
-49
-47
-41
-22
8
-18
-14
-28
-29
-14
-18
-18
-20
-25
-2
-17
-33
-22
-23
-31
-18
-17
-19
-26
-30
-28
-23
-30
-30
-31
-42
-38
-42
-28
-33
-37
-34
-38
-38
-39
-36
-40
-40
-39
-19
-23
-46
-62
-50
-45
-42
-43
-47
-31
-41
-42
-22
-21
-40
-65
-64
-64
-46
-51
-39
-37
-51
-43
-44
-40
-48
-42
-34
-40
-61
-53
-40
-40
-55
-57
-60
-54
-51
-37
-47
-48
-36
-34
-49
-48
-47
-70
-57
-25
-60
-62
-59
-31
-32
-57
-41
-44
-37
-42
-57
-61
-39
-34
-66
-53
-36
-39
-38
-38
-53
-37
-30
-36
-52
-46
-48
-47
-58
-55
-35
-39
-28
-45
-49
-29
-34
-35
-47
-48
-58
-41
-45
-30
-21
-31
-33
-54
-40
-45
-53
-38
-35
-22
-56
-36
-35
-42
-40
-38
-37
-48
-32
-41
-42
-46
-51
-43
-47
-39
-37
-29
-32
-24
-40
-51
-52
-55
-50
-33
-39
-47
-47
-52
-40
-45
-58
-45
-44
-46
-25
-39
-47
-42
-44
-19
-39
-68
-44
-30
-45
-43
-49
-38
-45
-52
-60
-57
-31
-54
-39
-47
-48
-47
-57
-58
-54
-72
-58
-60
-62
-56
-33
-23
3
29
73
68
97
104
105
96
83
49
19
-3
-13
-37
-44
-63
-46
-33
-16
-33
-38
-47
-55
-55
-54
-55
-32
-56
-50
-44
-37
-58
-69
-55
-49
-41
-53
-56
-52
-53
-49
-42
-53
-50
-44
-45
-50
-50
-52
-59
-42
-48
-54
-46
-42
-50
-60
-40
-36
-42
-55
-54
-43
-39
-41
-49
-44
-53
-49
-61
-51
-37
-64
-64
-28
-34
-44
-19
-27
-44
-55
-62
-49
-48
-42
-35
-46
-49
-25
-30
-44
-62
-44
-47
-39
-23
-50
-45
-32
-27
-42
-35
-32
-28
-27
-19
-30
-27
-18
-29
-43
-28
-14
-18
-25
-16
-20
-35
-32
-29
-6
-22
-14
-14
-27
-43
-8
-7
-9
-32
-27
-22
-24
-17
-12
-45
-28
-32
-23
-17
-31
-57
-39
-31
-43
-37
-41
-40
-45
-46
-45
-45
-36
-24
-38
-26
-48
-48
-44
-46
-39
-44
-64
-63
-24
-52
-27
-41
-73
-53
-63
-68
-58
-32
-19
-33
-41
-44
-45
-48
-49
-54
-50
-42
-44
-56
-53
-32
-42
-34
-48
-40
-38
-46
-43
-40
-45
-48
-71
-57
-56
-50
-54
-45
-37
-46
-48
-48
-54
-43
-34
-56
-45
-36
-47
-68
-63
-42
-60
-59
-40
-55
-54
-46
-53
-68
-64
-50
-52
-41
-40
-55
-50
-40
-38
-53
-53
-35
-48
-35
-50
-60
-49
-47
-53
-32
-42
-51
-60
-59
-37
-31
-23
-27
-43
-44
-41
-45
-62
-49
-57
-49
-26
-34
-41
-28
-49
-40
-56
-55
-58
-40
-49
-53
-45
-47
-23
-37
-53
-50
-48
-40
-41
-50
-29
-46
-62
-58
-59
-49
-46
-51
-64
-54
-37
-36
-55
-59
-60
-56
-51
-51
-49
-41
-36
-45
-39
-53
-58
-39
-50
-51
-48
-56
-53
-49
-38
-74
-57
-44
-43
-74
-56
-45
-64
-75
-70
-59
-61
-69
-33
-14
10
21
41
64
89
97
93
74
55
27
4
-15
-31
-35
-42
-44
-46
-54
-61
-64
-38
-45
-57
-46
-48
-46
-47
-62
-59
-64
-47
-61
-66
-50
-43
-39
-57
-47
-49
-74
-51
-55
-48
-54
-59
-61
-54
-39
-64
-57
-46
-53
-62
-61
-60
-57
-65
-67
-43
-45
-44
-53
-59
-61
-45
-63
-45
-64
-50
-51
-60
-44
-71
-48
-54
-44
-56
-59
-57
-61
-42
-41
-53
-60
-66
-63
-48
-28
-44
-42
-43
-50
-43
-36
-34
-61
-33
-44
-41
-42
-50
-22
-38
-38
-32
-45
-34
-38
-32
-32
-32
-11
-23
-50
-45
-24
-29
-28
-31
-25
-26
-22
-4
-35
-20
-32
-24
-25
-30
-33
-24
-16
-16
-35
-36
-29
-42
-44
-40
-35
-31
-40
-46
-33
-54
-40
-47
-26
-52
-63
-42
-32
-29
-54
-48
-52
-55
-52
-54
-55
-51
-26
-51
-54
-47
-46
-54
-53
-44
-71
-43
-51
-41
-47
-50
-51
-54
-49
-64
-53
-48
-64
-47
-50
-55
-55
-47
-55
-54
-50
-49
-52
-59
-49
-72
-69
-60
-60
-48
-49
-57
-52
-40
-40
-53
-52
-58
-55
-56
-51
-56
-51
-44
-60
-73
-58
-35
-46
-63
-50
-36
-55
-60
-34
-51
-67
-70
-49
-57
-38
-57
-44
-9
-59
-62
-58
-55
-55
-49
-38
-50
-56
-41
-50
-51
-55
-60
-55
-43
-35
-47
-51
-50
-58
-53
-42
-44
-37
-40
-60
-52
-36
-58
-63
-58
-34
-37
-43
-35
-39
-44
-52
-44
-40
-45
-53
-39
-38
-30
-27
-25
-25
-36
-51
-43
-50
-58
-62
-60
-47
-57
-51
-40
-38
-64
-46
-53
-61
-43
-38
-31
-57
-61
-44
-64
-46
-47
-60
-52
-57
-52
-65
-38
-44
-39
-40
-56
-66
-60
-57
-62
-53
-40
-53
-57
-72
-59
-65
-84
-77
-53
-58
-44
-32
-8
7
30
51
67
85
111
109
77
59
16
5
-19
-31
-27
-36
-44
-47
-40
-61
-48
-43
-34
-60
-53
-43
-27
-41
-48
-68
-67
-47
-39
-57
-49
-56
-45
-61
-48
-59
-65
-64
-44
-54
-42
-41
-48
-52
-71
-61
-51
-53
-53
-49
