-104
-112
-113
-108
-98
-84
-80
-86
-87
-90
-101
-104
-111
-105
-98
-90
-81
-85
-90
-96
-103
-106
-113
-105
-94
-90
-84
-86
-90
-95
-103
-110
-113
-106
-98
-88
-80
-83
-86
-93
-97
-100
-108
-101
-93
-85
-76
-88
-91
-85
-92
-95
-102
-94
-84
-76
-71
-73
-78
-83
-85
-90
-95
-84
-76
-69
-68
-71
-76
-85
-96
-105
-109
-103
-92
-86
-92
-96
-99
-109
-114
-114
-118
-112
-100
-85
-91
-95
-96
-107
-112
-111
-120
-117
-103
-87
-92
-98
-95
-107
-113
-111
-121
-114
-103
-88
-97
-103
-102
-108
-100
-91
-73
-42
-5
24
44
56
66
61
40
-10
-50
-67
-91
-119
-142
-135
-114
-115
-121
-121
-115
-104
-90
-80
-86
-91
-93
-97
-107
-112
-110
-101
-91
-79
-87
-91
-94
-102
-106
-112
-108
-96
-87
-77
-85
-86
-91
-94
-97
-108
-103
-88
-80
-74
-82
-79
-85
-95
-100
-103
-92
-87
-82
-73
-80
-80
-83
-87
-92
-98
-86
-82
-75
-67
-69
-74
-74
-83
-84
-90
-84
-71
-63
-59
-61
-67
-71
-78
-77
-84
-75
-67
-57
-50
-57
-58
-66
-72
-71
-77
-67
-60
-51
-45
-47
-51
-59
-67
-71
-75
-64
-55
-42
-44
-54
-57
-66
-74
-72
-79
-77
-67
-62
-70
-72
-79
-88
-88
-96
-103
-96
-85
-83
-81
-83
-93
-103
-109
-116
-113
-104
-92
-85
-90
-91
-96
-105
-109
-113
-114
-109
-102
-87
-92
-96
-99
-106
-112
-116
-117
-108
-98
-88
-89
-94
-99
-107
-114
-120
-116
-106
-101
-82
-88
-97
-101
-103
-106
-115
-110
-101
-93
-86
-94
-96
-97
-99
-106
-114
-115
-105
-97
-83
-87
-93
-97
-104
-111
-118
-113
-103
-91
-87
-91
-93
-97
-108
-112
-117
-111
-105
-93
-88
-92
-90
-102
-111
-107
-118
-114
-105
-97
-87
-91
-96
-100
-104
-111
-115
-112
-99
-94
-90
-90
-91
-102
-107
-106
-112
-105
-90
-83
-80
-88
-89
-98
-101
-100
-108
-100
-87
-72
-70
-74
-78
-82
-94
-95
-101
-94
-76
-65
-69
-69
-75
-83
-92
-100
-106
-102
-94
-86
-88
-88
-95
-106
-111
-111
-117
-111
-102
-85
-83
-86
-93
-105
-109
-110
-115
-108
-93
-87
-88
-92
-97
-102
-110
-117
-117
-103
-99
-87
-89
-90
-97
-105
-112
-119
-110
-89
-61
-24
2
25
39
50
67
77
67
21
-10
-37
-72
-108
-136
-147
-146
-139
-127
-114
-108
-94
-93
-95
-97
-100
-101
-107
-105
-96
-88
-77
-89
-87
-91
-99
-106
-112
-99
-93
-86
-77
-85
-88
-90
-96
-102
-105
-99
-86
-81
-72
-79
-75
-86
-93
-98
-101
-95
-83
-77
-69
-72
-76
-82
-88
-89
-95
-91
-81
-77
-65
-67
-74
-80
-83
-86
-98
-87
-68
-56
-52
-61
-66
-74
-76
-77
-83
-72
-55
-44
-43
-54
-50
-62
-66
-63
-69
-62
-49
-40
-40
-48
-49
-46
-60
-59
-63
-53
-47
-34
-37
-39
-41
-51
-57
-61
-68
-60
-58
-45
-45
-48
-57
-75
-75
-79
-84
-78
-68
-62
-70
-70
-81
-89
-97
-104
-101
-86
-77
-71
-73
-82
-91
-94
-99
-105
-106
-95
-88
-80
-86
-89
-88
-94
-96
-107
-105
-95
-86
-75
-86
-88
-91
-95
-102
-104
-101
-92
-83
-77
-81
-81
-88
-94
-100
-112
-99
-88
-85
-73
-79
-84
-89
-91
-101
-103
-98
-90
-85
-72
-76
-80
-85
-93
-98
-101
-97
-90
-81
-75
-84
-82
-87
-94
-99
-111
-101
-88
-80
-77
-91
-82
-86
-95
-97
-108
-104
-89
-85
-77
-83
-82
-90
-96
-96
-107
-99
-82
-71
-69
-74
-79
-89
-95
-98
-106
-91
-75
-61
-64
-67
-72
-80
-80
-89
-95
-86
-72
-58
-58
-59
-64
-75
-84
-86
-96
-93
-86
-69
-75
-81
-87
-92
-100
-108
-109
-97
-89
-73
-78
-81
-87
-98
-105
-103
-105
-99
-84
-75
-82
-86
-90
-98
-105
-107
-108
-101
-86
-74
-79
-85
-89
-94
-98
-104
-108
-96
-79
-60
-45
-19
-1
14
32
41
52
77
72
41
0
-42
-79
-116
-144
-157
-140
-119
-102
-92
-97
-98
-98
-102
-102
-98
-93
-85
-77
-68
-75
-74
-84
-90
-95
-102
-103
-84
-75
-68
-75
-77
-81
-84
-88
-96
-89
-77
-71
-64
-68
-70
-79
-83
-81
-93
-86
-72
-69
-58
-69
-69
-71
-75
-81
-89
-78
-68
-60
-54
-59
-62
-73
-77
-79
-83
-75
-60
-49
-47
-52
-53
-60
-62
-70
-78
-67
-46
-37
-37
-35
-42
-51
-51
-50
-56
-52
-35
-22
-25
-33
-31
-39
-46
-47
-50
-39
-30
-16
-22
-25
-29
-37
-45
-48
-53
-39
-31
-26
-33
-40
-46
-56
-61
-67
-73
-65
-54
-46
-57
-61
-63
-71
-85
-88
-93
-82
-68
-58
-67
-78
-79
-85
-89
-98
-95
-87
-74
-63
-74
-78
-83
-90
-92
-102
-92
-89
-81
-66
-72
-76
-80
-88
-94
-99
-96
-87
-76
-66
-72
-75
-84
-90
-93
-102
-92
-84
-69
-60
-69
-74
-78
-80
-89
-100
-96
-85
-74
-62
-70
-78
-74
-82
-92
-95
-89
-79
-73
-67
-73
-74
-73
-83
-89
-97
-93
-77
-70
-64
-73
-79
-83
-85
-88
-97
-90
-77
-68
-68
-72
-74
-80
-86
-90
-97
-87
-74
-66
-65
-63
-67
-76
-84
-88
-95
-82
-71
-61
-59
-59
-57
-71
-80
-81
-89
-72
-56
-48
-51
-54
-51
-65
-76
-78
-83
-72
-64
-56
-69
-71
-75
-84
-89
-94
-99
-84
-74
-63
-68
-73
-78
-88
-92
-92
-95
-84
-75
-68
-71
-80
-79
-87
-91
-97
-93
-82
-75
-67
-71
-78
-81
-87
-91
-97
-100
-86
-77
-64
-62
-46
-22
-6
11
27
43
67
89
92
48
5
-35
-66
-111
-142
-131
-107
-83
-71
-76
-77
-77
-83
-90
-93
-83
-72
-65
-60
-65
-70
-76
-79
-84
-91
-86
-77
-64
-59
-69
-72
-73
-79
-81
-87
-86
-72
-60
-52
-61
-66
-70
-74
-79
-81
-69
-63
-62
-53
-55
-63
-67
-71
-73
-80
-72
-60
-48
-48
-54
-54
-62
-66
-68
-78
-71
-53
-43
-41
-43
-43
-54
-61
-65
-64
-59
-46
-33
-34
-35
-41
-48
-50
-51
-56
-46
-34
-21
-24
-28
-27
-38
-42
-44
-47
-38
-29
-17
-20
-23
-26
-38
-46
-44
-47
-35
-28
-17
-26
-33
-38
-47
-58
-66
-65
-56
-47
-41
-44
-50
-59
-70
-72
-76
-84
-77
-71
-65
-58
-61
-69
-76
-82
-93
-90
-79
-67
-59
-62
-67
-74
-81
-84
-92
-86
-76
-68
-60
-65
-72
-76
-81
-83
-87
-87
-74
-67
-63
-70
-63
-69
-76
-84
-91
-83
-71
-64
-59
-62
-64
-70
-83
-88
-92
-83
-72
-66
-62
-59
-61
-69
-78
-82
-90
-85
-70
-62
-59
-60
-65
-72
-78
-81
-88
-79
-72
-67
-63
-65
-67
-76
-84
-86
-96
-83
-72
-59
-58
-66
-70
-76
-84
-86
-91
-81
-70
-59
-59
-57
-57
-73
-79
-80
-85
-79
-66
-50
-52
-56
-55
-60
-71
-73
-78
-67
-53
-47
-50
-43
-50
-57
-67
-73
-76
-69
-60
-54
-62
-64
-75
-84
-87
-89
-90
-84
-75
-66
-69
-76
-75
-77
-86
-90
-89
-82
-72
-63
-71
-77
-75
-83
-91
-94
-93
-87
-71
-61
-66
-68
-77
-84
-92
-96
-93
-83
-74
-62
-61
-40
-13
1
14
36
56
83
106
115
73
20
-20
-55
-96
-136
-133
-109
-91
-74
-75
-70
-74
-75
-79
-85
-78
-72
-66
-51
-58
-65
-70
-77
-78
-84
-83
-70
-63
-60
-62
-61
-63
-75
-74
-81
-77
-66
-58
-52
-58
-54
-63
-70
-79
-78
-70
-60
-48
-43
-50
-50
-63
-69
-68
-72
-68
-53
-35
-43
-45
-52
-60
-62
-63
-70
-61
-45
-37
-42
-40
-40
-48
-57
-56
-57
-52
-37
-26
-29
-31
-38
-42
-38
-42
-51
-31
-17
-22
-21
-23
-23
-27
-30
-44
-39
-32
-15
-9
-13
-17
-17
-28
-37
-40
-41
-33
-23
-13
-16
-25
-31
-39
-46
-56
-55
-46
-41
-36
-46
-49
-49
-62
-68
-78
-78
-62
-54
-53
-56
-62
-68
-77
-78
-87
-76
-66
-61
-56
-63
-66
-70
-71
-76
-85
-81
-72
-65
-53
-57
-62
-73
-76
-79
-83
-77
-68
-57
-50
-60
-64
-71
-74
-77
-87
-80
-72
-59
-56
-58
-64
-69
-69
-81
-91
-85
-69
-55
-58
-58
-65
-76
-74
-75
-81
-79
-66
-63
-57
-61
-64
-79
-75
-77
-90
-79
-68
-60
-61
-60
-63
-73
-72
-82
-85
-78
-67
-59
-57
-66
-59
-73
-79
-78
-88
-79
-72
-54
-57
-65
-65
-73
-77
-77
-84
-74
-61
-46
-53
-59
-62
-71
-71
-78
-78
-74
-58
-47
-48
-50
-48
-60
-67
-65
-67
-64
-50
-35
-32
-40
-53
-51
-55
-67
-71
-70
-54
-45
-55
-58
-71
-71
-78
-88
-85
-78
-68
-59
-64
-64
-72
-74
-81
-90
-87
-69
-58
-54
-60
-67
-75
-78
-73
-83
-84
-73
-66
-52
-61
-68
-70
-79
-91
-93
-82
-81
-62
-48
-36
-14
2
24
46
55
86
106
120
98
33
-7
-47
-81
-123
-146
-121
-96
-84
-71
-76
-68
-71
-75
-75
-77
-72
-62
-56
-49
-54
-65
-71
-67
-77
-78
-75
-63
-50
-47
-47
-60
-66
-64
-71
-79
-71
-53
-45
-42
-49
-47
-62
-60
-66
-76
-66
-49
-47
-46
-43
-50
-50
-59
-58
-66
-59
-44
-33
-39
-36
-40
-55
-59
-60
-65
-56
-41
-28
-32
-32
-41
-41
-48
-50
-54
-46
-37
-22
-20
-24
-27
-34
-41
-39
-38
-30
-11
-7
-15
-16
-22
-23
-26
-36
-32
-23
-13
-4
-13
-8
-16
-27
-32
-36
-31
-24
-19
-9
-17
-19
-30
-35
-41
-50
-46
-40
-38
-31
-34
-36
-49
-53
-65
-66
-66
-66
-53
-45
-57
-55
-60
-59
-63
-72
-73
-62
-58
-50
-57
-57
-61
-72
-75
-75
-67
-64
-57
-46
-54
-57
-62
-71
-67
-78
-72
-65
-56
-46
-52
-53
-60
-59
-65
-81
-72
-57
-50
-53
-55
-49
-58
-67
-68
-75
-70
-60
-50
-49
-52
-54
-61
-66
-67
-74
-77
-52
-46
-43
-47
-51
-68
-69
-70
-80
-73
-57
-52
-46
-52
-53
-64
-69
-68
-82
-72
-62
-51
-49
-55
-58
-63
-66
-71
-80
-69
-59
-47
-51
-53
-61
-64
-73
-75
-76
-65
-55
-50
-53
-50
-50
-60
-70
-74
-71
-60
-45
-38
-46
-42
-50
-62
-65
-62
-60
-50
-41
-33
-35
-36
-39
-38
-48
-61
-52
-42
-33
-35
-37
-47
-55
-61
-64
-79
-75
-66
-55
-52
-55
-55
-63
-63
-74
-80
-77
-70
-69
-48
-55
-59
-55
-68
-70
-76
-75
-64
-54
-50
-52
-53
-60
-70
-79
-85
-69
-62
-55
-46
-55
-51
-52
-43
-30
-13
14
44
80
114
116
122
102
43
-6
-52
-78
-96
-115
-93
-84
-82
-80
-74
-77
-81
-70
-54
-40
-36
-49
-51
-54
-67
-66
-73
-68
-50
-44
-45
-42
-44
-62
-63
-59
-70
-62
-45
-39
-36
-43
-50
-55
-57
-63
-65
-54
-44
-33
-34
-36
-30
-51
-56
-60
-63
-53
-41
-27
-34
-31
-38
-42
-47
-46
-50
-42
-30
-20
-27
-31
-30
-39
-44
-47
-45
-33
-19
-11
-21
-22
-22
-24
-29
-39
-32
-22
-9
-6
-13
-10
-12
-20
-27
-28
-21
-15
-5
4
-2
-4
-11
-15
-25
-24
-17
-10
-4
3
-5
-7
-13
-20
-30
-33
-34
-26
-18
-9
-21
-28
-29
-35
-44
-56
-54
-47
-41
-27
-36
-43
-46
-53
-62
-67
-60
-50
-47
-39
-43
-48
-55
-60
-61
-65
-65
-54
-45
-43
-47
-46
-51
-55
-61
-71
-64
-50
-44
-38
-43
-47
-55
-60
-62
-66
-61
-49
-41
-37
-45
-48
-56
-57
-60
-66
-61
-50
-40
-38
-42
-46
-54
-61
-63
-71
-68
-48
-32
-37
-46
-47
-53
-63
-64
-64
-60
-45
-33
-38
-50
-52
-54
-59
-64
-71
-57
-45
-36
-43
-48
-51
-59
-65
-71
-79
-69
-43
-35
-45
-51
-54
-54
-61
-70
-66
-55
-45
-33
-34
-38
-44
-55
-58
-70
-62
-51
-41
-31
-29
-35
-39
-42
-44
-45
-47
-40
-32
-24
-26
-30
-32
-33
-40
-47
-43
-34
-29
-22
-34
-30
-47
-57
-65
-66
-66
-55
-43
-37
-46
-49
-47
-59
-63
-65
-63
-54
-45
-37
-41
-43
-51
-54
-63
-64
-57
-54
-45
-39
-42
-44
-53
-57
-62
-69
-59
-53
-47
-35
-40
-28
-19
0
19
44
76
102
129
152
146
104
50
2
-35
-74
-96
-97
-78
-65
-67
-60
-74
-69
-67
-66
-57
-41
-27
-35
-33
-30
-44
-48
-54
-61
-58
-48
-27
-32
-39
-37
-49
-51
-51
-52
-49
-42
-19
-25
-28
-37
-42
-49
-50
-49
-39
-31
-29
-23
-13
-16
-18
-18
-21
-33
-36
-32
-27
-11
3
0
-10
-14
-24
-18
-23
-21
-8
-1
11
6
2
-2
-5
-14
-18
-16
-6
3
12
8
5
-2
-3
-10
-18
-11
1
7
14
5
-1
2
-11
-18
-28
-23
-17
-8
-4
-13
-20
-23
-35
-39
-50
-42
-29
-29
-28
-29
-27
-37
-44
-50
-55
-51
-41
-39
-29
-34
-37
-42
-44
-55
-66
-49
-39
-38
-30
-37
-43
-49
-47
-52
-62
-51
-38
-33
-28
-33
-39
-45
-44
-51
-54
-50
-36
-26
-29
-31
-33
-43
-46
-50
-57
-43
-33
-27
-32
-33
-34
-46
-41
-51
-53
-47
-33
-22
-32
-38
-34
-41
-43
-49
-55
-49
-34
-25
-32
-31
-35
-46
-51
-55
-57
-42
-31
-24
-29
-26
-33
-38
-47
-49
-46
-37
-27
-22
-29
-23
-31
-31
-35
-42
-33
-25
-22
-17
-18
-18
-22
-30
-32
-38
-31
-29
-17
-7
-18
-22
-29
-39
-51
-59
-51
-39
-35
-30
-31
-30
-34
-50
-55
-60
-50
-45
-36
-31
-30
-31
-40
-44
-54
-57
-52
-44
-36
-30
-35
-41
-39
-47
-50
-55
-53
-39
-34
-25
-30
-39
-37
-25
-16
2
30
70
96
116
132
142
112
60
19
-22
-53
-67
-79
-79
-70
-61
-67
-67
-66
-73
-59
-40
-24
-21
-23
-26
-34
-37
-43
-51
-43
-30
-19
-22
-20
-22
-37
-36
-39
-47
-37
-24
-16
-17
-20
-23
-33
-44
-37
-43
-24
-20
-7
-14
-14
-17
-30
-36
-39
-35
-23
-10
-3
-14
-14
-11
-20
-32
-28
-32
-18
-2
6
-6
-11
-12
-14
-19
-23
-21
-13
-2
6
3
7
3
-5
-9
-9
-10
-3
11
22
17
18
13
9
2
-3
1
15
20
26
21
27
18
11
8
3
0
6
22
34
23
12
9
3
-10
-14
-6
-1
3
12
6
-1
-14
-17
-24
-28
-33
-25
-19
-3
-10
-20
-25
-30
-36
-45
-43
-29
-16
-15
-24
-25
-30
-36
-38
-51
-44
-31
-23
-15
-21
-23
-34
-35
-37
-46
-44
-32
-16
-10
-20
-19
-38
-41
-37
-47
-43
-29
-14
-10
-16
-23
-31
-34
-36
-44
-42
-25
-15
-14
-13
-19
-27
-33
-37
-41
-34
-29
-10
-14
-24
-24
-35
-39
-38
-40
-36
-22
-12
-15
-18
-25
-30
-38
-38
-41
-31
-19
-10
-15
-18
-17
-26
-35
-44
-35
-18
-14
-5
-8
-8
-17
-21
-23
-35
-33
-24
-4
6
-1
-8
-12
-15
-30
-36
-32
-31
-21
-11
-20
-27
-32
-34
-43
-51
-44
-37
-20
-13
-15
-24
-34
-34
-45
-53
-43
-38
-20
-17
-21
-25
-25
-42
-49
-48
-41
-34
-26
-17
-23
-23
-29
-39
-50
-47
-38
-16
12
37
50
63
73
76
80
86
83
54
16
-6
-28
-54
-77
-72
-69
-69
-56
-28
-23
-11
-16
-19
-28
-33
-34
-42
-32
-21
-8
-12
-18
-20
-29
-31
-33
-37
-38
-24
-10
-10
-18
-18
-22
-28
-29
-38
-29
-17
-3
-5
-9
-20
-26
-29
-24
-31
-22
-11
-6
-7
-7
-14
-25
-25
-31
-27
-18
-7
-4
-7
-7
-6
-10
-15
-28
-31
-9
2
8
5
2
3
-7
-9
-12
-16
-6
8
19
16
13
6
6
0
-6
-4
7
19
27
22
21
17
13
-1
-6
-1
11
18
29
16
21
11
4
-2
-13
-4
5
7
17
7
4
-1
-14
-19
-23
-23
-20
-11
-6
-9
-12
-19
-25
-31
-37
-40
-27
-16
-11
-18
-17
-23
-28
-34
-43
-33
-26
-19
-16
-16
-19
-25
-34
-37
-45
-37
-34
-28
-13
-17
-19
-27
-26
-30
-47
-43
-27
-18
-8
-15
-20
-37
-33
-35
-43
-37
-26
-20
-15
-17
-18
-28
-34
-40
-41
-38
-20
-10
-10
-18
-18
-28
-33
-37
-42
-33
-20
-12
-12
-18
-16
-23
-30
-32
-35
-29
-17
-5
-14
-14
-13
-21
-27
-34
-36
-18
-2
-1
0
-7
-13
-20
-28
-24
-24
-12
-1
4
4
-4
-11
-19
-28
-35
-41
-30
-23
-16
-16
-21
-30
-32
-37
-47
-46
-39
-25
-13
-18
-22
-27
-35
-43
-43
-49
-37
-19
-18
-19
-24
-32
-40
-43
-43
-44
-33
-25
-17
-26
-34
-40
-37
-43
-32
8
34
54
82
97
114
120
112
76
28
4
-8
-22
-35
-47
-45
-37
-37
-45
-50
-44
-25
-16
-6
-14
-17
-22
-27
-35
-42
-33
-27
-22
-11
-13
-18
-23
-28
-35
-36
-32
-22
-14
-6
-10
-15
-22
-26
-27
-36
-27
-15
-4
-2
-11
-10
-18
-25
-25
-30
-23
-11
-2
-3
-6
-11
-13
-17
-23
-32
-17
-3
5
2
0
1
-9
-14
-14
-23
-14
4
14
11
7
6
1
-10
-13
-17
2
11
22
18
17
15
10
5
-1
-1
5
19
30
26
22
13
10
3
1
1
7
18
31
26
17
14
4
-6
-12
-15
-6
2
12
4
-2
-9
-20
-26
-36
-31
-20
-14
-8
-13
-19
-24
-29
-34
-43
-37
-34
-30
-13
-9
-18
-23
-36
-38
-44
-34
-29
-23
-14
-15
-21
-25
-33
-41
-47
-38
-31
-24
-14
-15
-24
-27
-27
-35
-43
-37
-27
-20
-10
-13
-23
-28
-32
-33
-43
-38
-29
-17
-9
-15
-16
-25
-29
-37
-43
-29
-26
-23
-8
-14
-16
-29
-38
-35
-37
-33
-23
-13
-11
-19
-19
-31
-37
-38
-40
-34
-22
-9
-9
-14
-15
-21
-33
-33
-38
-33
-15
-7
-12
-11
-7
-13
-18
-20
-25
-23
-12
2
-1
3
5
-10
-16
-24
-29
-16
-13
-5
-11
-17
-26
-32
-37
-47
-47
-34
-26
-19
-20
-24
-28
-33
-43
-44
-41
-35
-26
-20
-24
-30
-22
-36
-44
-48
-46
-33
-27
-20
-29
-35
-27
-36
-43
-48
-49
-41
-31
-8
5
29
43
62
81
98
121
146
142
106
53
4
-39
-68
-94
-104
-94
-68
-42
-34
-37
-34
-32
-34
-38
-45
-38
-30
-21
-8
-14
-21
-25
-31
-35
-42
-38
-29
-20
-11
-15
-19
-25
-27
-32
-40
-34
-24
-15
-10
-6
-14
-18
-29
-30
-40
-35
-19
-5
2
-7
-10
-17
-21
-21
-30
-26
-13
-2
-2
-3
-1
-13
-20
-22
-29
-14
0
6
5
5
1
-3
-11
-6
-14
-7
2
17
14
16
12
7
1
-5
-8
-3
14
23
24
25
14
8
6
3
-1
11
23
35
30
24
18
13
5
4
-2
10
20
34
22
15
7
-3
-9
-19
-12
-11
7
13
0
-5
-7
-19
-27
-32
-31
-29
-16
-2
-6
-12
-21
-27
-34
-41
-35
-30
-22
-8
-13
-13
-19
-29
-36
-45
-38
-22
-17
-5
-8
-20
-21
-26
-33
-40
-37
-25
-17
-4
-14
-15
-20
-26
-33
-39
-31
-18
-14
-12
-16
-17
-17
-23
-30
-34
-35
-25
-18
-2
-10
-15
-22
-24
-26
-36
-36
-22
-15
-7
-14
-19
-28
-27
-29
-42
-31
-26
-19
-11
-10
-19
-27
-27
-32
-41
-35
-20
-13
-12
-17
-16
-30
-36
-37
-43
-30
-22
-8
-10
-15
-18
-27
-28
-33
-31
-24
-12
-8
-5
-8
-15
-25
-27
-24
-30
-17
6
17
7
0
-4
-9
-9
-9
-15
-6
1
11
6
0
-9
-20
-27
-39
-36
-31
-20
-7
-16
-20
-21
-30
-35
-40
-36
-27
-18
-9
-14
-14
-22
-30
-33
-42
-34
-28
-20
-5
-16
-21
-24
-27
-31
-42
-35
-23
-15
-9
-16
-18
-14
-7
13
32
63
99
134
158
163
172
148
87
39
-19
-46
-64
-80
-73
-61
-52
-49
-50
-52
-51
-40
-26
-13
-2
-8
-13
-14
-20
-31
-38
-30
-15
-9
-3
-8
-12
-19
-24
-24
-34
-26
-15
-8
1
-2
-6
-13
-18
-24
-29
-19
-11
-3
5
-1
0
-6
-11
-18
-24
-14
-3
6
11
9
4
-5
-9
-17
-20
-12
2
10
17
14
10
-2
-5
-7
-9
-1
13
22
22
21
20
12
5
0
-1
11
22
31
30
26
22
15
15
15
8
18
28
39
37
35
31
20
15
12
11
23
36
36
34
33
30
18
11
2
8
15
21
23
15
9
11
4
-4
-8
-12
-5
2
9
0
-9
-7
-11
-21
-30
-23
-17
-8
2
-2
-11
-15
-25
-23
-35
-26
-16
-10
1
-6
-11
-11
-22
-27
-31
-27
-16
-14
-2
-5
-5
-11
-20
-30
-30
-22
-17
-9
5
-4
-8
-11
-17
-25
-25
-22
-9
-2
4
-4
-10
-15
-19
-22
-30
-22
-11
-7
1
-3
-6
-13
-20
-23
-32
-24
-17
-5
1
-3
-7
-15
-23
-24
-32
-25
-12
-5
-2
-10
-14
-14
-24
-27
-38
-21
-10
-1
-4
-6
-9
-19
-25
-27
-35
-26
-10
-2
-1
0
0
-12
-16
-22
-30
-16
-3
7
3
3
4
-3
-6
-5
-9
-3
4
20
19
19
15
5
-1
-6
-13
-4
3
12
3
1
-6
-17
-24
-30
-30
-22
-12
-2
-4
-3
-9
-19
-30
-30
-28
-17
-6
-3
-10
-10
-14
-21
-31
-40
-26
-17
-10
-5
-4
-8
-15
-19
-21
-32
-28
-16
-12
9
17
35
55
73
93
116
141
159
186
184
132
81
34
-13
-52
-81
-84
-65
-40
-26
-26
-27
-28
-30
-31
-34
-26
-12
-5
13
1
-5
-13
-14
-16
-26
-22
-10
-1
6
-5
-4
-11
-14
-17
-21
-12
-8
3
4
10
7
-3
-9
-13
-19
-15
1
12
8
7
10
-1
-10
-8
-14
-4
7
16
21
12
11
4
1
-3
-13
-1
16
23
24
22
19
8
3
2
-5
10
26
32
29
26
24
21
14
11
6
19
30
37
37
42
32
31
24
21
17
21
33
45
42
40
35
25
24
16
14
30
42
48
40
35
29
20
9
0
4
11
20
30
21
15
7
-1
-12
-19
-17
-7
-2
8
3
2
-12
-20
-18
-21
-22
-16
-5
4
-3
-3
-12
-21
-24
-28
-23
-13
-7
10
0
-2
-10
-20
-25
-33
-22
-14
-2
8
-1
-8
-13
-21
-17
-32
-20
-7
1
3
-6
-5
-11
-15
-24
-27
-24
-12
-6
5
2
0
-14
-17
-21
-31
-21
-4
3
6
0
-6
-15
-18
-19
-31
-26
-7
7
4
-1
-4
-15
-19
-20
-28
-22
-9
1
-1
-7
-6
-17
-26
-23
-21
-9
-4
6
8
5
-1
-8
-16
-16
-21
-9
3
17
14
12
6
0
-10
-13
-17
-4
10
22
23
16
5
-2
-10
-18
-28
-17
-10
-1
-2
-7
-12
-19
-25
-33
-31
-23
-10
1
-5
-9
-14
-19
-21
-28
-32
-22
-12
0
-9
-9
-14
-22
-27
-33
-28
-21
-12
-2
-6
-7
-10
-17
-24
-28
-16
12
41
71
94
115
128
136
146
140
111
74
50
23
-19
-44
-66
-70
-66
-68
-54
-39
-32
-15
-18
-7
-9
-19
-19
-22
-17
-8
2
6
0
-4
-7
-11
-16
-25
-20
-7
3
11
5
3
-2
-8
-12
-22
-13
-1
11
17
11
8
-2
-8
-12
-9
-7
5
21
20
13
12
6
1
-9
-8
0
15
27
26
20
17
8
6
3
-4
4
21
32
26
26
29
23
11
9
6
19
31
37
41
41
40
29
26
22
25
32
36
58
52
49
43
35
30
21
25
33
47
61
57
47
43
34
32
24
25
27
37
45
38
34
28
17
10
-4
0
8
15
22
15
9
4
0
-10
-19
-15
-6
5
10
2
2
-5
-7
-18
-27
-24
-10
5
10
4
-2
-8
-10
-15
-23
-16
-6
-1
8
3
1
-6
-11
-19
-24
-21
-6
4
9
7
-1
-9
-9
-18
-27
-18
-10
-2
13
8
1
-7
-10
-18
-25
-15
-9
-1
13
6
1
-9
-16
-14
-19
-17
-9
2
2
4
4
-3
-13
-17
-24
-15
-5
7
4
1
3
-11
-16
-11
-16
-12
-2
11
8
4
3
-6
-11
-8
-8
0
9
19
14
13
10
-1
-3
-4
-4
5
15
25
17
15
13
1
-10
-18
-22
-13
-6
-4
-2
-4
-8
-16
-23
-26
-26
-15
-8
2
-2
-4
-9
-11
-22
-32
-27
-16
-9
0
-4
-10
-14
-24
-24
-34
-28
-13
-5
4
-1
-8
-12
-18
-22
-22
7
43
70
103
124
138
145
155
152
110
68
46
24
5
-37
-57
-54
-45
-42
-48
-34
-21
-12
-3
-2
4
-5
-11
-16
-25
-20
-11
-2
9
3
-1
-5
-11
-15
-23
-17
-6
1
7
-2
8
0
-5
-14
-21
-10
1
6
15
10
9
0
-12
-14
-17
-6
3
15
21
16
8
1
-5
-4
-9
0
14
24
20
17
16
11
8
3
-4
5
21
30
30
28
24
21
15
9
12
18
32
44
43
43
39
31
29
23
17
27
36
47
55
46
44
38
28
24
23
39
48
51
50
50
42
33
23
19
13
23
34
41
28
25
21
11
4
-1
0
5
9
17
5
8
1
-8
-11
-20
-17
-5
4
10
2
-2
-7
-13
-14
-22
-19
-13
-5
7
-5
-7
-8
-11
-17
-26
-20
-6
1
9
1
-4
-10
-16
-20
-27
-15
-6
-1
7
5
-1
-8
-11
-18
-25
-15
-8
0
9
4
3
-8
-9
-20
-23
-16
-13
2
9
9
4
-4
-10
-20
-25
-20
-5
3
7
4
-2
-6
-15
-22
-27
-10
-3
13
9
6
2
-7
-11
-15
-20
-14
0
14
16
11
6
1
3
3
-13
-3
8
17
10
9
19
9
2
-1
-14
-3
14
18
14
12
3
-15
-24
-29
-25
-14
-10
5
-3
-5
-8
-14
-20
-26
-26
-19
-7
1
-2
-6
-14
-17
-24
-26
-24
-22
-8
1
-2
-6
-10
-14
-21
-28
-26
-21
-11
-3
2
3
19
36
52
71
98
128
158
186
185
154
106
61
18
-10
-37
-54
-42
-19
-17
-13
-23
-26
-24
-24
-16
-2
4
11
1
4
-4
-9
-17
-24
-20
-5
0
3
1
7
0
-12
-21
-21
-11
-5
1
10
8
5
-2
-4
-15
-19
-8
0
8
16
16
8
1
-6
-6
-13
-7
6
20
21
16
17
4
1
-6
-9
6
15
28
24
22
23
15
8
11
2
15
24
32
29
29
31
28
23
20
19
26
38
46
46
46
41
31
27
22
22
32
42
59
52
44
46
38
30
29
26
34
43
50
47
44
36
26
21
9
6
10
23
32
24
19
11
5
-5
-15
-15
-7
1
16
10
2
-2
-11
-19
-21
-20
-8
-2
7
-2
-1
-5
-10
-19
-29
-23
-12
0
10
0
-5
-4
-12
-19
-31
-26
-12
2
10
-5
-1
-12
-13
-11
-21
-21
-10
-2
4
2
1
-4
-6
-14
-26
-19
-5
1
7
2
0
-5
-11
-15
-24
-18
-9
-1
6
2
-5
-10
-12
-19
-23
-17
-6
-6
3
6
-1
-8
-12
-19
-24
-8
0
13
17
5
-1
-5
-13
-14
-13
-11
-2
15
19
15
15
7
0
-6
-13
-6
10
20
23
21
23
11
0
-5
-10
-8
7
15
12
2
-5
-14
-23
-24
-31
-21
-7
2
-2
-7
-6
-13
-17
-21
-28
-15
-9
-6
-6
-7
-11
-12
-16
-28
-29
-17
-5
1
-1
-6
-11
-17
-21
-24
-25
-18
-11
5
7
20
38
58
72
93
113
141
172
180
148
95
58
21
-14
-51
-68
-63
-33
-18
-22
-25
-27
-21
-21
-27
-20
-11
0
9
5
2
-8
-13
-16
-27
-24
-12
3
13
8
6
-4
-13
-14
-18
-7
-8
-2
15
12
5
1
-6
-8
-17
-8
3
8
13
14
7
-4
0
-4
-9
-5
8
19
22
21
15
8
1
-1
-8
0
14
22
28
24
27
14
10
12
4
11
28
37
38
35
34
30
25
21
18
25
41
49
44
44
45
40
35
27
28
37
46
54
53
54
48
38
33
24
19
44
52
55
47
41
38
29
18
16
12
12
21
29
28
15
17
6
-8
-10
-7
-6
1
13
2
6
2
-3
-15
-23
-20
-7
2
10
4
-2
-5
-9
-16
-22
-22
-13
-3
7
2
-3
-4
-12
-17
-26
-21
-10
-2
10
6
0
-6
-11
-17
-26
-11
-4
-4
11
4
-1
-8
-17
-11
-19
-15
-7
6
12
7
3
2
-5
-9
-20
-12
-7
7
12
10
4
-1
-4
-16
-24
-15
0
1
10
6
4
-5
-10
-15
-22
-17
-3
11
13
7
0
-6
-7
-14
-22
-8
4
14
18
10
3
-4
-8
-6
-16
-10
3
19
19
24
15
0
1
2
-7
0
19
29
25
20
16
5
-2
-5
-18
-5
3
7
6
3
-2
-11
-21
-21
-25
-19
-4
3
-3
-2
-3
-12
-21
-21
-28
-14
-5
5
2
-3
-6
-12
-19
-27
-27
-8
-4
5
0
-5
-11
-18
-25
-30
-31
-20
5
29
46
64
86
106
117
128
150
166
141
108
69
30
-4
-42
-62
-62
-42
-19
-16
-5
-12
-11
-10
-5
-15
-23
-16
-7
3
7
3
5
-4
-9
-14
-26
-16
-7
3
11
9
2
-2
-11
-11
-18
-10
1
7
15
11
11
-1
-7
-10
-18
-12
1
17
24
16
9
2
-7
-8
-6
1
9
19
21
19
14
7
3
4
-3
7
12
26
25
27
25
12
6
11
9
15
27
44
37
31
37
30
19
16
14
24
38
45
48
47
43
36
26
23
20
34
42
52
47
44
37
35
32
25
24
28
33
43
36
36
24
16
12
4
1
7
13
21
15
9
5
-2
-5
-16
-14
-7
-2
10
6
4
-1
-14
-20
-20
-24
-13
-1
5
2
-2
-10
-19
-24
-27
-22
-9
-2
8
0
-8
-16
-21
-16
-25
-23
-15
-6
13
5
-6
-2
-8
-16
-24
-17
-9
-4
6
-3
1
-4
-14
-14
-19
-17
-10
2
7
3
1
-5
-15
-25
-26
-16
-6
0
8
0
1
-6
-18
-14
-24
-20
-6
0
5
-1
-3
-8
-15
-15
-24
-16
-5
5
4
3
1
-17
-24
-17
-28
-20
-7
12
3
-1
-1
-12
-20
-21
-25
-23
-6
1
0
2
1
-14
-24
-24
-27
-22
1
10
7
4
1
-9
-17
-18
-20
-8
-2
13
8
3
2
-5
-5
-9
-11
3
11
22
15
13
6
1
0
-5
-1
8
14
21
19
14
4
-14
-21
-26
-21
-15
-8
5
0
-2
-9
-13
-21
-26
-23
-16
-5
5
-1
-3
-8
-15
-23
-27
-24
-15
-9
4
-5
-3
-10
-17
-24
-33
-17
-10
-5
2
-2
-10
-15
-26
-26
-13
13
45
75
113
131
150
158
165
156
111
78
49
26
-4
-33
-43
-31
-25
-24
-36
-25
-7
0
8
-1
9
7
-5
-11
-16
-11
-2
8
10
5
0
-2
-8
-12
-18
-11
2
13
13
11
5
-2
-7
-8
-14
-7
8
19
20
16
12
4
0
2
-7
-5
14
21
21
20
13
5
-2
-2
-2
6
15
26
19
22
24
17
11
6
0
10
27
37
32
28
29
21
13
13
10
23
33
38
46
44
39
32
27
21
16
34
46
54
51
50
44
40
33
28
28
38
51
54
52
53
45
35
31
22
25
33
41
45
38
31
21
11
11
3
6
9
15
21
16
12
10
4
-5
-18
-15
0
4
9
10
8
0
-7
-16
-21
-15
-6
2
11
9
0
-8
-9
-10
-19
-18
-5
4
10
3
-1
-2
-6
-11
-19
-11
-5
4
10
4
5
2
-4
-16
-22
-11
-3
6
16
9
5
-5
-7
-11
-22
-18
2
12
13
8
4
-6
-6
-14
-19
-7
4
12
7
5
3
-4
-11
-12
-20
-11
7
8
10
0
3
-3
-11
-12
-16
-6
3
12
8
5
5
-6
-13
-15
-18
-11
1
10
7
7
1
-9
-12
-18
-20
-11
0
15
9
4
1
-3
-11
-20
-19
-9
2
3
4
7
-10
-6
-5
-19
-20
-8
2
12
6
-1
-7
-8
-11
-15
-15
-8
0
12
9
7
-6
-10
-17
-22
-17
-8
1
11
6
5
-1
-7
-13
-19
-13
-1
7
11
5
4
-1
4
-9
-14
-12
3
10
22
19
17
15
4
3
-7
0
9
21
32
25
19
17
14
7
-7
-1
7
16
23
11
2
-5
-8
-16
-29
-21
-3
0
14
9
3
-9
-13
-18
-30
-14
7
8
5
1
-2
-6
-11
-16
-19
-12
-2
6
7
6
3
-10
-13
-17
-21
-16
-7
2
-3
3
10
15
37
55
79
116
145
175
184
190
158
103
59
29
-11
-41
-46
-27
-13
-5
-1
-12
-14
-17
-16
-2
11
19
12
9
2
-6
-9
-12
-12
2
12
16
9
9
10
2
-4
-13
-12
0
13
23
20
16
8
2
-4
-5
-2
5
20
25
20
17
9
6
3
0
2
4
14
30
23
17
16
10
4
4
9
15
24
37
29
22
21
16
3
6
23
27
31
44
39
35
31
28
20
15
25
35
45
59
53
41
43
45
39
28
33
45
53
64
55
56
49
44
37
34
39
45
56
64
56
53
39
39
25
19
32
38
47
46
41
36
25
12
10
-2
9
19
25
21
16
16
0
1
-2
-12
-6
8
17
14
15
11
-2
-9
-15
-20
-5
5
15
11
11
9
-4
-11
-12
-17
-12
2
18
12
8
5
3
-9
-13
-15
0
10
18
13
9
8
0
-10
-18
-19
-1
11
20
17
12
4
-3
-10
-17
-9
1
6
19
14
7
3
-3
-6
-12
-11
-5
3
17
15
7
6
-4
-6
-12
-11
-3
9
17
8
5
4
-8
-11
-10
-11
-4
8
17
12
10
5
-7
-17
-17
-14
-2
5
12
6
9
3
-2
-10
-20
-9
-2
2
11
4
8
1
-3
-9
-14
-11
-1
4
11
4
4
-1
-6
-15
-15
-9
-4
1
18
7
6
-6
-4
-10
-20
-10
0
10
9
8
3
-5
-9
-9
-16
-8
4
16
10
15
14
-1
-5
-7
-8
-8
6
21
19
15
12
-1
-3
3
-6
5
18
28
25
25
18
10
7
8
2
12
25
34
30
24
17
8
1
-8
-13
-4
0
16
10
7
-4
-8
-14
-16
-8
-4
6
14
10
5
1
-4
-12
-19
-16
-6
2
14
10
6
0
-3
-9
-18
-15
-5
7
17
8
-2
-2
-3
-19
-23
-23
-5
17
49
67
87
105
128
139
151
168
165
132
112
66
28
-5
-34
-51
-48
-35
-14
-3
0
-4
-6
0
2
-4
-9
-2
4
9
18
15
12
0
3
-2
-7
0
10
18
21
16
14
9
5
1
-11
-1
9
19
27
21
16
11
6
1
-4
2
13
27
26
22
22
12
7
9
1
7
21
33
35
27
27
15
13
15
12
15
24
37
42
41
36
20
20
23
15
26
39
52
47
45
43
36
33
34
30
35
47
64
60
54
54
50
44
36
37
46
61
70
64
58
51
50
47
45
39
47
55
62
56
51
47
37
28
17
17
30
36
43
34
30
25
11
7
-4
-3
10
18
23
18
12
7
3
-2
-15
-9
1
9
18
11
4
1
-5
-13
-15
-15
-2
7
17
10
4
0
-5
-7
-13
-8
0
6
15
8
8
7
-1
-10
-12
-7
0
7
16
16
13
2
-1
-3
-14
-11
2
10
13
14
14
4
-2
-3
-14
-8
4
13
18
10
5
3
-1
-5
-16
-4
6
17
14
5
13
0
-4
-3
-11
-6
6
16
12
8
12
0
-6
-6
-9
-5
4
14
10
9
4
-7
-9
-7
-18
-5
8
14
9
5
-1
1
-7
-12
-13
-6
3
12
9
11
7
-3
-10
-11
-20
-8
-1
14
10
7
-2
-8
-4
-12
-12
-1
5
16
10
8
6
1
-4
-7
-6
2
12
21
16
17
7
1
-2
-7
-3
8
16
25
23
20
17
11
12
2
4
15
22
21
21
23
13
6
-4
-15
-10
-7
0
15
10
2
1
-6
-10
-14
-3
2
9
14
12
7
-1
-11
-17
-23
-15
-4
4
10
6
2
-3
-10
-13
-28
-15
2
2
11
6
4
-4
-7
-20
-24
-13
1
26
58
74
97
116
124
141
148
158
136
106
79
43
8
-30
-55
-48
-37
-21
-10
6
7
3
5
-7
-12
-6
-8
-4
12
21
17
14
14
6
-2
-8
-12
-1
13
21
15
16
15
7
-1
-3
-9
4
20
32
21
21
18
10
2
-1
0
4
10
21
15
24
27
19
6
2
1
14
26
38
30
29
24
14
9
2
7
19
30
36
33
37
34
26
21
17
16
26
37
50
46
44
36
34
36
22
29
37
49
62
59
62
58
44
37
29
33
45
55
66
61
58
50
41
31
21
27
39
53
59
51
41
32
25
17
9
11
17
25
26
12
9
6
-1
-7
-17
-12
7
5
15
8
0
-8
-13
-22
-21
-14
-2
1
5
1
-2
-13
-17
-18
-27
-23
-13
6
3
-4
7
-4
-11
-15
-31
-20
-5
-2
-3
-3
-6
-12
-17
-21
-21
-16
-7
1
-3
-3
-7
-13
-13
-22
-34
-19
-11
-1
3
2
-8
-9
-20
-25
-23
-13
-7
7
1
3
-8
-13
-20
-29
-23
-14
-7
5
-4
-7
-10
-18
-20
-24
-26
-20
-8
5
-3
-9
-16
-18
-22
-31
-24
-12
-6
5
-2
-7
-11
-16
-22
-29
-24
-17
-14
-8
-6
-7
-12
-18
-27
-31
-26
-16
-14
-4
-8
-5
-9
-19
-28
-37
-28
-13
-9
-1
-6
-11
-14
-17
-26
-34
-23
-17
-2
2
-1
-9
-15
-16
-20
-25
-19
-12
-4
6
-1
-3
-10
-9
-17
-29
-10
-3
1
16
10
9
2
-3
-4
-10
1
5
10
20
17
13
2
-9
-15
-21
-25
-13
-1
-5
-6
-8
-14
-22
-26
-30
-21
-10
-1
-2
-8
-11
-22
-25
-21
-29
-27
-10
-2
-7
-8
-10
-19
-25
-20
-26
-26
-13
-2
-14
-1
-10
-18
-32
-39
-38
-28
-13
14
31
55
76
93
107
120
138
156
162
128
89
49
17
-25
-61
-70
-51
-28
-15
-5
-7
-7
-9
-12
-17
-19
-14
-8
0
11
6
-3
-9
-10
-13
-22
-19
-8
-1
7
6
6
-4
-11
-11
-21
-9
-2
11
14
7
3
0
-6
-11
-14
-5
0
7
21
16
10
2
2
-1
-9
-1
5
13
21
20
14
6
4
-5
-6
3
13
19
28
26
22
17
15
9
1
11
22
32
43
38
38
32
28
20
14
16
35
42
51
49
42
35
30
34
31
34
48
57
56
55
54
44
32
31
23
33
48
52
50
45
44
33
26
20
16
20
31
36
26
22
18
9
4
-10
-15
-4
5
14
10
10
5
-2
-10
-16
-15
-4
1
8
2
1
-3
-7
-7
-10
-11
-7
1
10
8
6
-4
-10
-13
-22
-18
-8
3
17
8
5
-2
-16
-17
-17
-16
-5
2
9
-2
-7
-5
-5
-8
-21
-14
-4
7
11
6
8
0
-10
-16
-23
-13
-7
-6
3
5
2
-7
-9
-20
-20
-12
0
6
3
-2
3
-8
-20
-16
-17
-15
-5
-1
10
4
-1
-4
-8
-18
-22
-16
-5
1
7
-4
-11
-8
-11
-21
-25
-16
-14
-5
8
8
3
1
-6
-13
-20
-18
-3
8
6
4
3
-10
-13
-14
-15
-10
-2
5
10
7
3
-5
-14
-20
-28
-9
-2
14
12
5
5
-8
-7
-10
-22
-10
1
10
9
6
11
-3
-2
-2
-7
1
11
19
18
22
18
4
0
-5
-2
-5
10
22
7
5
-4
-12
-17
-25
-21
-17
-10
1
2
-2
-9
-10
-14
-24
-22
-18
-2
5
-5
-10
-11
-20
-19
-30
-22
-12
-3
-1
-2
-1
-10
-13
-13
-24
-20
-13
-7
7
-3
-12
-18
-1
1
23
49
81
117
143
161
168
182
149
98
55
24
18
-7
-25
-30
-22
-15
-17
-22
-29
-20
-9
4
16
17
8
0
-3
-8
-16
-11
-8
-1
12
12
6
-7
-10
-16
-21
-20
-2
3
19
20
9
-3
-1
-4
-13
-9
5
14
16
11
8
6
1
2
-9
-3
6
16
20
22
21
6
3
6
-2
3
18
30
28
28
23
16
8
9
4
15
26
38
35
35
37
27
18
22
21
32
37
50
44
40
39
32
34
26
30
38
52
60
57
52
45
44
35
38
38
47
59
61
58
57
51
40
32
24
28
41
40
52
44
32
23
19
13
9
12
16
21
25
16
14
13
7
-3
-12
-10
-2
10
16
8
3
0
-4
-7
-14
-11
0
10
15
10
8
2
-4
-11
-14
-13
-5
1
10
12
7
6
3
-9
-21
-16
-1
8
12
11
3
-2
-11
-9
-13
-11
-4
5
18
11
10
4
-1
-8
-13
-8
9
16
16
13
8
4
-3
-11
-19
-2
5
18
17
19
15
8
-8
-8
-15
-11
2
8
10
7
7
0
-4
-5
-15
-7
6
18
12
3
2
-1
-5
-9
-16
-6
8
16
7
8
4
-7
-8
-13
-18
-7
8
19
14
14
9
3
-4
-11
-13
-4
4
23
17
21
17
8
4
-5
-3
11
16
27
26
23
22
16
9
2
4
11
15
25
16
9
1
-4
-12
-20
-16
-4
5
13
7
4
3
-5
-8
-11
-7
-1
4
15
13
5
1
-7
-12
-19
-14
-8
4
14
5
4
0
-6
-11
-16
-7
-5
0
15
6
4
-5
-2
7
21
43
77
117
148
154
162
169
147
95
52
31
12
-12
-19
-25
-14
-8
-9
-16
-21
-13
1
14
21
22
14
7
-2
-5
-15
-6
5
16
11
7
16
5
1
-6
-7
-1
10
24
18
20
19
6
-1
-4
-11
0
20
23
23
22
19
5
4
7
5
10
23
30
27
29
26
12
10
6
2
17
22
30
33
33
32
21
18
12
15
25
35
42
41
37
30
22
16
20
37
45
50
60
54
55
49
42
38
36
41
46
57
66
63
56
53
53
46
41
44
49
58
68
65
59
58
46
35
26
34
40
44
54
47
35
32
25
18
1
6
18
22
34
17
8
13
8
-3
-11
-9
4
16
19
11
6
8
-1
-9
-21
-11
2
12
20
18
10
6
-2
-4
-15
-9
0
5
25
18
9
0
-12
-13
-16
-3
10
16
19
15
7
0
-10
-11
-13
-11
-5
8
21
16
14
2
-4
-1
-14
-6
4
15
18
15
9
-7
-16
-14
-10
-1
16
27
21
21
11
-1
-4
-5
-5
2
7
21
17
14
10
-1
-6
-16
-16
-3
7
16
11
3
0
-11
-9
-15
-13
-4
9
22
15
7
6
0
-1
-11
-9
2
7
20
15
6
-2
-1
-8
-8
1
15
22
28
21
14
16
11
5
-3
8
19
26
31
24
17
17
7
-7
-12
-9
-5
4
7
-5
-5
-2
-5
-14
-20
-13
-7
4
11
3
1
-2
-8
-13
-18
-15
-6
4
12
9
4
-5
-6
-20
-22
-14
-3
2
6
5
2
-1
-8
-12
-26
-20
-4
17
48
63
83
94
108
130
143
165
191
168
111
69
34
-7
-48
-59
-65
-42
-13
-4
-4
0
2
-2
-2
-5
-10
0
9
20
17
11
9
-1
-3
-6
-8
-1
9
23
21
14
17
7
-3
-2
-8
-2
11
21
11
19
14
9
3
-4
-3
9
17
33
23
21
23
21
10
2
3
7
20
35
30
25
21
18
6
3
8
24
33
39
35
33
27
20
18
19
20
28
42
50
48
41
40
38
32
23
36
43
47
61
58
52
46
49
36
38
43
53
56
69
58
50
52
57
47
34
37
54
60
67
55
51
35
33
30
11
20
32
35
43
28
24
13
15
9
-6
2
8
16
23
19
14
5
-4
-9
-16
-5
17
13
12
1
8
0
-2
-4
-18
-1
6
20
19
13
12
1
-5
-9
-19
-7
9
19
16
15
14
3
-4
-3
-12
-1
11
18
15
17
11
-1
-8
-5
-9
-2
8
20
16
13
9
4
-9
-14
-6
6
14
21
16
23
8
-2
-6
-10
-2
5
11
15
12
17
10
-1
-8
-14
-10
-4
7
25
18
13
6
2
-3
-10
-10
-7
3
16
14
18
12
-3
-7
-14
-14
6
15
15
13
11
8
-4
-6
-14
-12
2
17
26
23
18
12
3
-4
-14
-2
9
17
32
25
21
12
14
5
-3
8
22
26
37
34
32
26
17
11
4
11
17
25
21
18
10
0
-6
-5
-18
-11
11
16
16
9
1
-6
-6
-5
-12
-11
-2
12
15
14
8
-2
-8
-7
-19
-7
6
13
14
10
11
-4
-11
-7
-17
-7
0
10
14
21
26
32
50
72
90
120
146
180
193
190
143
86
41
15
-23
-45
-44
-27
-13
-7
-9
-12
-12
-8
-8
4
12
22
19
21
10
1
5
-7
-9
6
14
24
21
17
15
5
-1
-9
-4
14
23
29
22
20
13
10
8
4
5
16
25
31
25
24
15
15
4
3
8
22
27
32
32
33
27
16
14
9
12
18
38
44
38
35
30
27
19
8
19
35
39
54
48
44
38
33
35
25
34
44
53
63
58
56
52
42
42
37
41
51
60
71
66
61
52
50
48
39
46
55
62
66
63
62
49
43
39
22
36
46
49
51
42
41
28
19
17
7
8
22
31
28
24
22
9
6
0
-11
-1
15
22
19
22
18
5
-3
-5
-13
-1
13
22
19
18
14
7
-5
-7
-11
3
17
22
17
19
10
1
-2
-2
-2
2
12
21
14
15
17
8
1
-7
-9
7
17
26
24
17
13
2
0
-13
-6
0
10
22
20
17
14
3
-5
-7
-4
1
8
20
16
13
4
0
0
-11
-3
5
13
22
15
11
6
7
-2
-13
-11
-1
12
18
13
15
7
5
-4
-14
-7
2
13
19
11
12
5
4
1
-14
2
10
17
24
21
20
14
4
5
1
12
20
27
37
29
22
17
14
14
7
18
28
35
41
35
25
16
9
10
-5
-4
0
10
11
17
13
0
-6
-10
-19
-8
1
17
11
15
16
5
-4
-12
-16
-7
2
10
18
14
9
-6
-9
-11
-23
-3
5
20
12
7
8
-2
-10
-14
-18
2
24
55
75
92
114
132
152
165
180
185
159
124
79
32
-1
-33
-57
-55
-38
-23
-6
5
0
7
10
3
-5
-11
0
12
9
24
16
15
13
8
1
-10
-3
3
16
28
24
17
10
3
3
-5
-3
9
15
24
25
25
14
14
7
-1
5
12
24
35
25
24
23
12
8
6
9
12
25
40
30
27
24
15
10
9
15
28
35
40
44
37
33
28
26
16
21
40
48
55
48
43
42
45
32
24
39
48
52
64
60
62
43
39
43
31
46
56
69
74
66
62
50
46
38
31
38
54
62
63
50
49
39
35
26
16
26
39
43
34
35
30
17
9
-3
-4
10
19
22
17
20
11
2
-3
-8
-6
-4
5
23
12
13
7
1
-3
-12
-13
2
9
19
15
13
9
1
-9
-9
-9
3
11
22
19
20
14
3
-6
-10
-8
3
11
24
18
12
7
3
-2
-8
-8
6
7
13
7
15
13
8
2
-8
-10
3
10
23
16
9
7
3
-5
-13
-3
4
12
21
14
10
1
3
5
-11
-9
5
16
20
12
8
3
0
-4
-14
-2
9
16
27
22
14
10
11
-1
-13
-9
10
24
31
29
29
19
15
3
-2
-2
18
29
40
35
29
20
16
8
5
10
17
23
19
13
8
-2
-8
-10
-17
-5
4
16
18
11
13
0
-11
-10
-14
-9
4
21
15
10
9
-4
-11
-14
-12
-7
8
15
13
12
8
-4
-8
-12
-12
-6
13
21
16
21
28
47
63
85
110
132
159
186
184
153
105
65
20
-22
-51
-53
-45
-19
-10
-19
-15
-22
-21
-23
-13
6
13
23
21
18
9
7
-2
-10
-4
9
22
29
20
20
14
7
6
0
3
13
23
34
30
24
21
17
4
2
9
19
27
36
25
23
16
17
14
6
10
25
32
43
37
34
28
22
20
13
17
23
36
46
36
37
29
30
23
25
30
41
48
59
50
47
45
38
36
33
43
52
53
65
64
64
55
49
44
44
49
58
72
72
70
69
56
57
49
45
53
62
72
68
65
62
52
43
39
31
35
44
52
51
44
37
25
15
16
15
21
27
31
30
20
18
11
7
2
-4
8
19
28
25
20
17
6
1
-5
-8
4
13
24
25
17
10
1
5
-5
-7
4
16
32
24
21
15
8
-2
-5
2
9
18
26
23
23
17
7
-2
-9
-3
8
19
24
24
19
16
12
4
-2
3
10
18
22
21
16
15
10
8
-6
2
12
15
25
19
14
14
7
1
-10
-1
8
16
23
19
23
11
4
-2
-10
3
13
22
28
24
23
14
7
6
0
2
12
22
33
27
25
21
17
11
4
10
23
35
41
37
36
28
22
18
6
8
16
31
28
16
13
3
-3
-3
-9
-6
5
17
10
14
24
11
1
-3
-8
-3
12
22
16
8
13
4
-6
-6
-10
-7
8
21
16
13
8
3
0
-2
-5
0
10
21
21
32
41
56
66
80
102
127
146
168
161
127
78
36
7
-30
-45
-42
-18
6
10
3
1
7
5
-3
0
10
20
25
26
23
14
0
-2
5
1
13
20
33
24
19
16
10
5
5
8
13
23
28
28
25
19
15
7
-2
12
19
30
37
28
28
23
18
13
0
9
19
33
39
33
33
28
22
18
4
14
27
37
46
39
37
31
29
23
16
26
40
48
50
48
46
41
38
34
29
35
47
58
64
58
53
46
41
45
36
42
53
65
64
59
68
51
42
40
38
44
59
66
64
62
53
43
34
31
21
25
36
47
43
36
33
16
8
5
6
18
23
33
27
24
20
7
-1
3
-3
2
17
27
28
20
14
5
-4
-6
-4
7
15
22
21
23
15
6
-1
-7
-4
6
10
21
19
19
14
8
-6
-4
2
11
18
29
20
19
11
7
6
-6
-1
7
12
23
27
23
15
11
8
-9
-3
7
21
29
27
17
9
6
-2
-11
0
12
18
26
21
14
10
6
0
-9
2
9
17
23
22
20
16
7
4
-5
0
10
21
28
24
16
20
15
12
7
19
27
32
40
30
27
28
21
17
16
19
27
33
40
30
26
19
10
1
-9
-3
5
19
19
13
13
4
-5
-7
-13
-1
14
21
15
14
14
-6
-7
1
-13
-9
8
22
18
15
10
2
-7
-4
-14
-7
12
24
21
15
11
0
3
16
31
66
101
133
151
162
174
178
152
107
70
34
21
-7
-35
-38
-24
-20
-25
-22
-18
-2
15
25
23
19
14
7
-1
-4
1
10
14
28
26
21
16
7
4
-2
-2
10
17
25
24
27
20
15
8
-5
4
18
26
31
26
26
23
13
15
11
13
22
29
38
28
29
26
19
15
7
13
26
31
44
40
36
29
26
24
10
23
34
38
52
49
41
41
38
35
27
32
42
53
61
57
56
48
45
40
38
50
54
59
71
68
60
51
48
43
37
44
58
66
63
63
61
51
42
38
31
37
52
54
49
46
46
35
24
15
7
16
29
34
30
31
27
12
3
1
-4
10
19
30
23
21
13
3
1
-2
-9
2
14
22
19
20
16
7
1
-7
-9
5
18
23
17
16
7
4
1
-1
-2
11
21
26
24
19
13
6
1
-9
-4
12
22
30
26
19
12
9
7
-9
-2
7
19
28
20
17
15
13
3
-6
2
8
20
26
21
17
13
7
-7
-6
6
9
17
23
16
12
14
6
3
-6
-2
8
12
26
27
18
14
5
3
0
3
14
22
31
25
21
15
11
6
6
15
29
36
40
35
28
19
24
21
15
21
30
29
40
38
30
18
8
-6
-11
2
8
23
23
16
11
0
-6
-1
-15
-5
10
20
18
13
12
1
-2
-5
-15
-6
12
16
14
12
15
3
-4
-5
-16
-3
11
19
17
11
5
-2
8
15
24
60
91
129
150
163
178
186
186
146
92
59
28
10
-27
-48
-45
-33
-30
-32
-25
-11
7
19
18
20
14
9
0
-3
0
5
19
25
15
18
17
12
4
-4
-3
16
29
