-74
-67
-65
-63
-64
-69
-73
-78
-79
-78
-74
-68
-66
-64
-63
-68
-73
-77
-80
-79
-75
-68
-67
-64
-65
-68
-74
-78
-79
-79
-74
-67
-66
-63
-63
-67
-73
-79
-78
-76
-73
-66
-63
-60
-64
-66
-71
-75
-75
-76
-71
-64
-60
-58
-62
-64
-71
-75
-75
-74
-70
-63
-61
-58
-61
-64
-71
-73
-74
-73
-68
-63
-61
-61
-63
-66
-72
-77
-75
-72
-69
-63
-62
-60
-62
-67
-70
-73
-76
-72
-68
-63
-61
-59
-62
-68
-74
-76
-74
-72
-69
-64
-61
-61
-63
-68
-73
-75
-74
-72
-68
-63
-61
-61
-63
-69
-74
-77
-74
-72
-67
-63
-63
-61
-64
-69
-73
-76
-75
-73
-69
-64
-61
-62
-62
-69
-74
-77
-74
-72
-62
-59
-58
-57
-58
-61
-63
-65
-61
-55
-51
-48
-47
-47
-50
-58
-59
-64
-63
-58
-50
-46
-44
-44
-47
-55
-60
-63
-62
-59
-55
-54
-52
-53
-56
-64
-73
-78
-75
-71
-68
-65
-62
-62
-68
-74
-79
-78
-79
-74
-66
-65
-63
-64
-68
-78
-80
-79
-77
-74
-67
-65
-65
-65
-70
-74
-79
-80
-79
-74
-66
-65
-63
-65
-68
-74
-79
-79
-81
-79
-74
-69
-66
-61
-59
-55
-44
-27
-3
19
46
60
70
77
81
73
55
36
21
11
-5
-33
-51
-60
-69
-82
-87
-82
-74
-69
-65
-64
-63
-65
-71
-78
-81
-82
-76
-70
-65
-64
-63
-66
-73
-77
-79
-79
-75
-69
-66
-62
-63
-66
-72
-74
-78
-76
-73
-65
-65
-63
-61
-63
-70
-75
-78
-77
-72
-65
-61
-60
-60
-63
-68
-71
-74
-73
-70
-64
-61
-58
-60
-62
-68
-71
-71
-69
-67
-60
-59
-58
-56
-61
-66
-70
-71
-69
-65
-58
-56
-54
-53
-58
-63
-67
-67
-64
-59
-54
-52
-49
-48
-51
-56
-62
-60
-56
-53
-46
-42
-39
-40
-43
-49
-52
-50
-47
-45
-39
-35
-33
-35
-38
-44
-47
-45
-44
-42
-35
-33
-34
-35
-40
-47
-51
-50
-50
-48
-43
-42
-43
-46
-52
-60
-64
-68
-64
-59
-55
-54
-55
-58
-62
-71
-75
-76
-75
-67
-63
-61
-62
-65
-69
-75
-78
-78
-76
-71
-66
-64
-63
-68
-74
-77
-81
-79
-77
-71
-68
-66
-65
-68
-75
-78
-82
-81
-79
-73
-70
-68
-70
-73
-78
-79
-83
-84
-78
-74
-69
-68
-68
-71
-78
-81
-83
-82
-76
-70
-66
-66
-66
-68
-75
-79
-81
-80
-75
-66
-65
-62
-63
-67
-75
-76
-77
-75
-73
-66
-64
-61
-62
-65
-73
-76
-75
-73
-70
-64
-65
-63
-62
-65
-72
-75
-75
-74
-70
-64
-61
-61
-62
-65
-72
-76
-75
-72
-71
-64
-62
-60
-64
-67
-73
-77
-78
-74
-71
-66
-62
-63
-63
-65
-72
-78
-77
-72
-71
-64
-62
-63
-66
-66
-74
-76
-77
-77
-70
-62
-61
-60
-63
-67
-73
-76
-77
-73
-69
-62
-61
-60
-64
-67
-72
-74
-75
-72
-68
-61
-60
-61
-63
-70
-73
-76
-76
-71
-65
-62
-60
-60
-63
-67
-72
-74
-73
-69
-65
-64
-61
-61
-62
-70
-73
-75
-73
-72
-64
-61
-59
-62
-64
-69
-71
-73
-72
-67
-60
-55
-52
-53
-53
-59
-61
-62
-60
-56
-50
-48
-46
-47
-50
-58
-63
-64
-63
-57
-49
-47
-44
-44
-46
-54
-60
-62
-62
-58
-53
-51
-52
-52
-54
-62
-69
-73
-74
-70
-64
-62
-60
-63
-66
-73
-78
-79
-73
-70
-64
-64
-61
-64
-68
-73
-79
-78
-75
-72
-67
-65
-63
-64
-67
-74
-80
-78
-73
-71
-64
-62
-61
-63
-67
-75
-80
-82
-78
-74
-68
-60
-54
-44
-34
-23
-7
15
36
57
73
85
92
90
73
49
27
12
-5
-28
-46
-51
-58
-64
-69
-72
-74
-73
-71
-67
-63
-59
-61
-63
-70
-73
-78
-76
-72
-66
-63
-61
-60
-62
-71
-73
-75
-75
-71
-66
-63
-60
-58
-63
-68
-72
-74
-74
-68
-62
-59
-57
-57
-61
-67
-71
-73
-71
-67
-61
-58
-55
-57
-60
-67
-71
-71
-70
-66
-62
-58
-55
-56
-59
-64
-68
-72
-68
-64
-58
-56
-53
-54
-55
-62
-66
-67
-66
-61
-54
-50
-47
-48
-52
-58
-64
-62
-58
-54
-48
-46
-43
-43
-46
-53
-54
-53
-51
-47
-40
-36
-34
-35
-38
-44
-47
-45
-43
-39
-32
-29
-29
-29
-33
-41
-44
-43
-42
-35
-30
-29
-30
-32
-38
-42
-47
-48
-45
-44
-41
-37
-37
-43
-47
-54
-59
-60
-58
-54
-52
-50
-51
-53
-58
-64
-68
-68
-67
-62
-58
-55
-57
-58
-65
-68
-72
-71
-66
-61
-59
-59
-58
-59
-65
-71
-74
-72
-66
-63
-62
-57
-57
-61
-69
-71
-74
-75
-71
-63
-60
-60
-59
-61
-70
-72
-75
-75
-70
-64
-62
-60
-62
-64
-71
-74
-74
-72
-70
-63
-60
-58
-60
-61
-68
-74
-74
-71
-68
-61
-58
-56
-58
-62
-66
-70
-70
-69
-64
-59
-56
-54
-56
-59
-65
-70
-68
-66
-64
-57
-56
-56
-56
-58
-65
-71
-70
-66
-63
-58
-58
-56
-57
-59
-67
-71
-71
-69
-66
-60
-58
-56
-59
-63
-70
-73
-73
-70
-65
-61
-59
-57
-60
-65
-70
-74
-72
-68
-65
-61
-58
-55
-59
-62
-67
-72
-71
-67
-65
-61
-60
-59
-59
-63
-69
-73
-72
-69
-63
-59
-58
-57
-59
-67
-68
-72
-71
-69
-63
-59
-57
-58
-60
-67
-71
-72
-71
-69
-62
-58
-57
-58
-63
-68
-71
-72
-72
-67
-61
-59
-57
-58
-60
-66
-69
-72
-72
-67
-60
-57
-56
-57
-59
-66
-70
-72
-69
-65
-58
-54
-51
-51
-54
-59
-61
-60
-58
-54
-47
-45
-41
-42
-44
-50
-58
-57
-58
-52
-44
-42
-39
-41
-44
-51
-54
-55
-51
-49
-44
-45
-43
-47
-49
-56
-59
-62
-61
-63
-63
-59
-58
-61
-64
-70
-72
-73
-72
-68
-62
-60
-59
-61
-63
-70
-74
-72
-70
-67
-62
-59
-60
-59
-65
-71
-74
-71
-70
-66
-59
-57
-56
-56
-61
-68
-70
-70
-69
-68
-63
-58
-53
-47
-46
-37
-25
-9
18
42
63
80
89
95
93
82
60
42
30
16
-3
-27
-39
-50
-60
-68
-69
-65
-59
-54
-52
-50
-51
-53
-60
-63
-68
-67
-62
-56
-55
-53
-51
-51
-58
-61
-67
-65
-61
-56
-52
-51
-51
-53
-59
-63
-66
-63
-60
-53
-51
-48
-48
-50
-59
-63
-63
-62
-59
-51
-50
-46
-47
-50
-57
-62
-63
-59
-56
-49
-48
-45
-46
-50
-54
-61
-61
-57
-52
-46
-46
-42
-43
-47
-53
-57
-58
-54
-50
-45
-43
-40
-37
-44
-51
-54
-51
-50
-44
-39
-36
-37
-35
-37
-42
-46
-44
-42
-38
-32
-28
-27
-28
-30
-35
-37
-37
-33
-29
-23
-19
-18
-20
-24
-29
-32
-29
-26
-23
-18
-16
-17
-19
-23
-30
-34
-35
-32
-28
-23
-23
-24
-32
-37
-40
-45
-47
-42
-39
-37
-36
-35
-39
-46
-51
-55
-55
-52
-47
-45
-44
-43
-47
-53
-57
-60
-59
-56
-51
-46
-45
-45
-47
-55
-58
-62
-60
-56
-51
-47
-47
-47
-50
-56
-61
-64
-61
-57
-52
-48
-45
-49
-50
-59
-64
-64
-61
-57
-51
-49
-47
-47
-51
-58
-61
-62
-60
-56
-50
-47
-45
-45
-50
-56
-59
-60
-59
-54
-48
-46
-42
-44
-48
-52
-59
-60
-56
-50
-44
-43
-40
-42
-46
-52
-56
-57
-53
-50
-43
-40
-39
-43
-46
-51
-56
-57
-52
-48
-41
-41
-41
-43
-46
-52
-56
-55
-53
-49
-43
-41
-40
-42
-46
-52
-58
-55
-52
-49
-44
-43
-42
-43
-46
-52
-55
-56
-52
-48
-45
-41
-40
-41
-47
-54
-55
-55
-52
-45
-41
-39
-39
-41
-49
-53
-54
-53
-51
-46
-41
-40
-40
-42
-47
-52
-55
-53
-50
-44
-41
-41
-41
-42
-48
-51
-54
-53
-50
-44
-41
-39
-40
-42
-48
-51
-55
-53
-49
-42
-39
-38
-39
-43
-49
-52
-55
-53
-48
-40
-39
-38
-39
-42
-48
-52
-54
-51
-48
-42
-40
-37
-39
-41
-46
-47
-48
-44
-38
-32
-28
-27
-27
-29
-35
-36
-35
-36
-31
-25
-22
-22
-26
-28
-34
-37
-37
-34
-30
-23
-20
-20
-23
-27
-33
-40
-39
-39
-34
-29
-28
-27
-32
-40
-47
-55
-55
-51
-45
-41
-38
-38
-40
-43
-49
-53
-53
-50
-46
-41
-40
-39
-40
-44
-51
-54
-52
-51
-48
-42
-39
-38
-41
-45
-50
-53
-52
-50
-44
-41
-40
-42
-45
-51
-54
-52
-43
-32
-13
7
28
50
65
72
82
89
98
102
99
84
66
48
26
-3
-32
-44
-49
-53
-46
-42
-37
-36
-39
-48
-50
-53
-52
-47
-42
-41
-41
-39
-42
-49
-52
-53
-53
-48
-42
-39
-37
-39
-42
-49
-51
-53
-52
-47
-39
-37
-35
-36
-38
-46
-49
-53
-49
-43
-37
-36
-33
-36
-37
-43
-48
-49
-45
-42
-35
-35
-32
-32
-34
-42
-47
-48
-44
-40
-34
-32
-31
-30
-32
-39
-42
-44
-41
-36
-29
-27
-26
-29
-30
-37
-40
-40
-35
-32
-26
-23
-21
-23
-26
-30
-34
-34
-31
-24
-19
-15
-14
-14
-19
-24
-26
-24
-21
-17
-9
-6
-6
-7
-11
-15
-19
-18
-16
-10
-4
-2
-3
-5
-9
-13
-19
-18
-17
-11
-6
-6
-4
-10
-17
-23
-26
-26
-24
-20
-16
-15
-18
-21
-29
-37
-39
-38
-33
-29
-27
-27
-27
-30
-37
-42
-44
-45
-41
-35
-32
-30
-29
-33
-40
-43
-46
-45
-42
-36
-33
-32
-32
-34
-40
-47
-48
-45
-42
-36
-33
-31
-32
-35
-44
-48
-48
-47
-42
-37
-34
-34
-36
-37
-42
-49
-48
-44
-41
-33
-30
-29
-32
-34
-41
-45
-44
-42
-38
-31
-30
-30
-29
-32
-40
-43
-42
-39
-37
-31
-26
-25
-28
-31
-37
-40
-42
-39
-33
-26
-24
-25
-27
-31
-37
-39
-40
-36
-32
-27
-26
-23
-25
-28
-34
-40
-39
-36
-33
-27
-25
-23
-26
-31
-36
-40
-40
-37
-33
-28
-25
-24
-26
-30
-38
-41
-39
-36
-31
-27
-26
-25
-27
-32
-37
-41
-40
-39
-32
-26
-24
-27
-28
-34
-37
-41
-41
-39
-32
-29
-27
-25
-28
-34
-39
-41
-41
-38
-31
-27
-25
-27
-29
-37
-38
-39
-38
-35
-31
-27
-26
-26
-29
-35
-41
-42
-40
-36
-30
-28
-26
-26
-28
-34
-39
-41
-39
-38
-31
-26
-25
-26
-28
-36
-42
-42
-40
-34
-29
-26
-25
-26
-30
-36
-42
-41
-37
-33
-28
-22
-19
-21
-23
-29
-30
-30
-26
-21
-13
-12
-11
-12
-17
-26
-29
-29
-25
-21
-15
-12
-9
-11
-14
-19
-23
-24
-22
-22
-17
-20
-17
-16
-20
-28
-33
-38
-39
-35
-31
-28
-29
-32
-35
-40
-44
-45
-42
-36
-32
-30
-29
-30
-37
-42
-45
-44
-42
-37
-32
-29
-31
-34
-37
-42
-45
-45
-41
-35
-31
-30
-30
-32
-38
-45
-51
-50
-45
-32
-24
-16
-1
13
24
39
57
75
91
104
116
121
112
90
63
46
24
2
-20
-25
-29
-33
-33
-37
-41
-41
-42
-42
-38
-33
-30
-28
-31
-34
-40
-44
-44
-44
-38
-33
-32
-29
-30
-33
-39
-40
-44
-43
-40
-33
-31
-27
-30
-29
-36
-40
-43
-40
-34
-28
-27
-25
-27
-27
-35
-39
-40
-36
-34
-26
-25
-24
-26
-27
-33
-37
-35
-34
-30
-25
-22
-18
-21
-25
-31
-36
-35
-32
-30
-25
-18
-17
-20
-21
-28
-33
-32
-30
-24
-16
-14
-14
-14
-20
-25
-29
-26
-21
-19
-11
-8
-8
-8
-10
-16
-19
-18
-15
-8
-2
0
2
-1
-3
-7
-11
-11
-4
1
3
5
7
5
-2
-6
-9
-8
-5
2
4
4
4
2
-7
-12
-14
-13
-11
-6
-5
-3
-5
-9
-16
-22
-27
-25
-23
-20
-17
-18
-16
-17
-28
-32
-35
-34
-31
-23
-22
-20
-22
-29
-33
-36
-36
-38
-34
-26
-24
-22
-22
-28
-34
-38
-39
-35
-32
-26
-25
-24
-24
-28
-35
-40
-40
-39
-33
-30
-25
-24
-25
-27
-35
-40
-38
-37
-31
-25
-25
-21
-24
-27
-34
-35
-35
-35
-31
-25
-22
-20
-21
-26
-31
-36
-33
-32
-27
-21
-18
-19
-20
-22
-30
-32
-33
-30
-29
-19
-16
-14
-20
-23
-29
-32
-33
-27
-23
-19
-17
-15
-19
-23
-31
-32
-33
-29
-24
-17
-18
-16
-18
-23
-28
-31
-29
-28
-23
-20
-18
-17
-19
-27
-30
-32
-30
-28
-23
-20
-19
-18
-19
-25
-31
-33
-34
-28
-24
-20
-19
-17
-22
-27
-32
-34
-30
-27
-21
-21
-18
-19
-23
-29
-29
-30
-31
-28
-22
-18
-17
-18
-22
-28
-31
-32
-30
-28
-22
-19
-17
-18
-21
-32
-29
-26
-20
-17
-16
-16
-19
-26
-29
-27
-23
-16
-10
-8
-6
-5
-7
-14
-15
-17
-14
-11
-5
-2
-2
-3
-8
-13
-17
-15
-13
-8
-1
1
3
-1
-6
-12
-17
-18
-17
-16
-10
-6
-7
-12
-20
-30
-34
-34
-29
-25
-18
-15
-17
-20
-22
-28
-32
-31
-27
-22
-20
-18
-18
-19
-24
-28
-32
-31
-29
-23
-18
-16
-15
-20
-24
-30
-31
-29
-25
-20
-18
-18
-19
-23
-25
-26
-25
-25
-7
15
36
53
70
84
95
97
101
110
107
97
81
71
58
33
-1
-21
-30
-34
-36
-32
-26
-20
-19
-18
-21
-24
-28
-32
-27
-20
-17
-15
-17
-19
-26
-29
-29
-26
-28
-22
-17
-14
-16
-18
-26
-29
-31
-26
-24
-19
-19
-12
-14
-18
-26
-30
-27
-24
-21
-15
-12
-11
-11
-17
-21
-26
-26
-24
-22
-16
-11
-9
-10
-14
-21
-25
-25
-22
-18
-11
-11
-10
-10
-12
-19
-25
-24
-20
-16
-9
-7
-8
-9
-12
-16
-19
-19
-14
-12
-5
-5
-1
-1
-6
-10
-14
-14
-9
-5
3
6
6
5
2
-1
-4
-5
0
5
11
12
13
11
7
4
0
0
5
11
13
16
17
15
8
4
0
0
3
6
8
12
11
5
1
-6
-11
-11
-9
-6
-4
-4
-3
-7
-15
-20
-24
-23
-19
-12
-13
-12
-12
-17
-24
-27
-32
-29
-26
-20
-18
-17
-18
-22
-27
-31
-33
-32
-29
-22
-22
-19
-18
-22
-28
-33
-35
-33
-31
-24
-21
-18
-19
-23
-29
-35
-35
-33
-27
-20
-19
-18
-20
-22
-26
-33
-33
-31
-27
-20
-18
-16
-18
-21
-28
-30
-28
-29
-26
-18
-16
-13
-16
-19
-26
-30
-28
-27
-22
-17
-12
-11
-14
-18
-23
-29
-29
-26
-20
-15
-15
-14
-16
-19
-24
-29
-29
-27
-23
-18
-15
-15
-17
-23
-27
-31
-33
-28
-23
-20
-16
-15
-18
-23
-27
-30
-31
-28
-21
-17
-16
-17
-20
-27
-28
-31
-31
-28
-22
-18
-17
-17
-20
-26
-29
-31
-30
-26
-20
-19
-16
-15
-19
-27
-27
-34
-32
-28
-22
-17
-17
-18
-21
-28
-30
-32
-30
-26
-22
-19
-18
-19
-21
-26
-29
-31
-31
-28
-21
-18
-18
-16
-20
-26
-31
-33
-29
-25
-20
-19
-17
-19
-20
-26
-30
-32
-30
-26
-18
-15
-11
-13
-15
-19
-23
-23
-19
-12
-6
-4
-1
-4
-6
-13
-19
-20
-19
-15
-6
-4
-3
-5
-6
-10
-13
-14
-13
-10
-4
-2
-3
-8
-12
-19
-22
-22
-22
-22
-20
-20
-20
-23
-25
-31
-34
-33
-31
-29
-23
-20
-19
-22
-26
-30
-36
-36
-31
-30
-22
-19
-19
-22
-28
-32
-37
-35
-30
-24
-22
-19
-20
-21
-28
-36
-40
-40
-36
-27
-17
-10
-5
7
16
29
45
62
82
99
110
119
122
112
92
69
53
36
16
-6
-11
-16
-20
-27
-32
-32
-33
-34
-31
-23
-19
-17
-17
-21
-29
-32
-35
-33
-29
-23
-19
-20
-20
-23
-30
-31
-34
-32
-28
-20
-19
-18
-18
-22
-27
-31
-29
-28
-24
-19
-19
-13
-15
-19
-23
-29
-30
-27
-25
-17
-15
-14
-14
-15
-22
-28
-27
-24
-21
-15
-12
-10
-14
-16
-22
-25
-26
-23
-21
-13
-10
-9
-11
-13
-20
-24
-22
-18
-15
-8
-7
-6
-9
-10
-16
-19
-17
-13
-10
-2
-1
1
0
-2
-8
-11
-10
-5
-1
5
9
9
7
5
0
-4
0
4
9
13
13
16
14
11
5
1
3
5
9
14
17
15
13
5
0
-4
-3
-2
1
6
7
6
0
-8
-10
-15
-15
-13
-10
-9
-6
-7
-12
-19
-23
-26
-25
-22
-15
-13
-14
-12
-16
-21
-27
-31
-30
-24
-19
-16
-15
-13
-18
-25
-27
-29
-28
-25
-20
-18
-17
-16
-21
-28
-32
-32
-30
-26
-19
-20
-17
-19
-21
-27
-32
-33
-30
-27
-22
-19
-16
-18
-21
-28
-32
-32
-30
-26
-22
-18
-16
-17
-20
-28
-33
-31
-27
-24
-19
-16
-13
-16
-22
-27
-30
-29
-25
-23
-18
-15
-13
-15
-21
-26
-29
-28
-26
-20
-16
-13
-12
-14
-18
-24
-29
-29
-23
-20
-16
-15
-14
-16
-19
-25
-28
-28
-24
-21
-17
-16
-16
-17
-21
-26
-28
-30
-25
-21
-18
-15
-16
-18
-23
-27
-31
-30
-26
-21
-17
-17
-16
-19
-25
-28
-31
-31
-25
-23
-18
-17
-16
-20
-25
-31
-34
-30
-25
-20
-16
-15
-17
-19
-28
-31
-33
-31
-27
-21
-19
-18
-18
-20
-28
-29
-32
-33
-27
-20
-18
-16
-17
-20
-30
-31
-32
-30
-27
-21
-19
-17
-17
-19
-27
-30
-30
-25
-21
-11
-9
-7
-5
-7
-11
-14
-16
-16
-12
-8
-7
-4
-6
-10
-15
-18
-16
-14
-10
-3
1
1
-1
-6
-14
-20
-24
-23
-16
-8
-6
-9
-14
-21
-29
-33
-33
-30
-28
-24
-20
-19
-22
-26
-31
-34
-35
-32
-27
-22
-20
-20
-20
-25
-34
-36
-35
-31
-27
-23
-21
-21
-24
-28
-30
-34
-32
-31
-28
-25
-26
-25
-26
-28
-26
-25
-13
5
26
50
71
89
101
106
112
114
115
106
93
80
65
47
16
-13
-24
-30
-34
-34
-25
-18
-16
-16
-23
-30
-31
-34
-34
-31
-26
-23
-22
-19
-25
-32
-33
-34
-34
-30
-22
-21
-19
-19
-24
-29
-33
-35
-32
-29
-22
-20
-17
-18
-21
-27
-30
-33
-33
-28
-20
-19
-16
-18
-20
-28
-31
-33
-29
-24
-18
-17
-15
-16
-19
-25
-31
-30
-27
-22
-17
-14
-10
-15
-18
-23
-26
-26
-23
-20
-14
-10
-9
-12
-13
-19
-22
-24
-20
-16
-9
-6
-6
-8
-10
-15
-17
-18
-14
-9
-2
2
4
1
-1
-5
-9
-7
-4
2
7
10
12
7
5
-1
-2
0
3
7
10
12
12
10
6
2
-4
-3
-1
5
9
9
8
3
-3
-9
-14
-15
-12
-8
-5
-5
-5
-10
-17
-21
-26
-26
-24
-20
-16
-15
-15
-20
-25
-30
-32
-35
-29
-24
-20
-18
-17
-21
-29
-33
-34
-33
-30
-23
-21
-21
-21
-22
-28
-35
-38
-34
-30
-23
-22
-20
-22
-24
-31
-35
-35
-33
-32
-26
-24
-22
-23
-25
-34
-37
-39
-36
-31
-25
-24
-21
-22
-27
-33
-37
-37
-34
-32
-24
-21
-19
-21
-25
-31
-33
-34
-32
-30
-24
-20
-18
-20
-23
-30
-33
-32
-29
-26
-18
-18
-16
-20
-23
-28
-32
-31
-29
-25
-19
-18
-17
-19
-20
-26
-33
-33
-29
-24
-19
-18
-17
-18
-22
-28
-32
-32
-30
-24
-19
-17
-17
-19
-25
-29
-32
-31
-28
-23
-19
-17
-17
-19
-26
-30
-35
-33
-30
-23
-18
-18
-19
-18
-26
-32
-34
-31
-28
-21
-20
-17
-18
-20
-26
-33
-33
-32
-30
-22
-17
-16
-18
-20
-28
-31
-32
-30
-25
-19
-16
-12
-12
-14
-19
-19
-21
-18
-14
-6
-5
-2
-3
-6
-12
-17
-18
-15
-11
-6
-2
0
0
0
-6
-13
-15
-15
-12
-7
-7
-5
-8
-10
-16
-23
-30
-31
-26
-19
-20
-16
-18
-20
-27
-33
-31
-30
-25
-21
-20
-17
-18
-21
-29
-33
-32
-31
-27
-20
-18
-18
-20
-21
-28
-32
-32
-31
-27
-19
-17
-16
-18
-23
-32
-37
-38
-34
-28
-18
-8
2
16
26
42
60
81
97
114
128
138
140
123
98
76
56
33
10
-5
-9
-13
-19
-21
-23
-26
-28
-30
-27
-22
-19
-16
-16
-19
-24
-30
-33
-32
-29
-23
-22
-20
-18
-20
-25
-28
-29
-31
-27
-21
-18
-15
-15
-18
-24
-27
-31
-29
-25
-19
-17
-16
-16
-16
-22
-26
-29
-28
-23
-17
-15
-12
-10
-12
-23
-27
-29
-25
-21
-15
-13
-10
-11
-15
-21
-27
-25
-23
-17
-10
-11
-8
-8
-11
-18
-22
-21
-19
-17
-9
-7
-6
-7
-8
-14
-18
-17
-13
-10
-3
0
1
3
-1
-7
-11
-10
-7
-5
5
11
11
9
7
3
0
1
3
8
12
17
18
17
12
5
4
3
5
10
14
15
17
10
5
1
-3
-5
-4
0
4
5
4
-2
-8
-12
-19
-18
-18
-12
-10
-10
-10
-14
-19
-22
-29
-28
-26
-21
-17
-16
-16
-19
-24
-27
-30
-30
-27
-21
-19
-17
-17
-17
-25
-30
-32
-30
-29
-22
-20
-17
-16
-22
-27
-29
-32
-31
-29
-22
-21
-17
-19
-21
-29
-32
-35
-33
-29
-22
-21
-20
-19
-22
-30
-34
-33
-32
-28
-24
-20
-17
-17
-21
-27
-32
-35
-33
-29
-22
-19
-14
-16
-19
-26
-30
-31
-29
-24
-18
-17
-16
-17
-18
-25
-28
-30
-27
-23
-18
-15
-13
-15
-19
-25
-29
-31
-27
-24
-16
-14
-12
-15
-19
-25
-30
-29
-27
-24
-17
-16
-15
-14
-17
-26
-31
-29
-28
-23
-16
-17
-18
-17
-17
-26
-31
-29
-30
-27
-18
-14
-14
-20
-23
-27
-29
-30
-27
-24
-18
-15
-15
-18
-24
-29
-32
-31
-27
-22
-19
-15
-18
-20
-25
-30
-33
-30
-27
-20
-14
-13
-14
-16
-18
-21
-24
-21
-17
-10
-5
-2
-1
-1
-11
-16
-19
-18
-14
-8
-5
-3
-2
-2
-6
-12
-15
-13
-11
-7
-6
-5
-5
-10
-19
-20
-25
-30
-29
-22
-20
-18
-18
-22
-31
-34
-35
-32
-31
-26
-23
-18
-21
-24
-32
-36
-36
-34
-30
-24
-23
-22
-22
-24
-31
-37
-36
-34
-28
-23
-22
-20
-20
-24
-30
-37
-38
-41
-38
-32
-27
-20
-16
-11
-1
9
28
54
77
99
115
122
129
131
115
92
73
61
42
24
-1
-11
-20
-28
-37
-40
-35
-31
-26
-20
-22
-20
-23
-26
-33
-36
-37
-33
-30
-25
-22
-19
-22
-28
-32
-36
-34
-31
-27
-22
-20
-20
-23
-28
-31
-33
-33
-33
-23
-22
-18
-19
-20
-28
-31
-34
-32
-28
-23
-18
-18
-16
-21
-27
-30
-33
-28
-25
-21
-15
-15
-14
-17
-24
-26
-31
-27
-22
-16
-13
-12
-12
-14
-21
-23
-25
-24
-21
-14
-10
-10
-7
-10
-16
-22
-22
-19
-15
-7
-4
-1
-1
-3
-12
-16
-12
-7
-5
2
5
9
8
5
0
-3
-2
0
2
12
16
17
16
12
6
2
2
4
8
13
14
16
15
12
6
-3
-5
0
2
4
4
5
2
-1
-10
-15
-17
-16
-15
-9
-8
-9
-11
-15
-22
-27
-29
-26
-22
-15
-14
-13
-16
-20
-27
-32
-31
-26
-24
-18
-17
-13
-16
-22
-29
-32
-30
-28
-22
-17
-17
-15
-21
-24
-30
-30
-31
-29
-25
-17
-14
-16
-20
-27
-30
-34
-32
-28
-23
-21
-20
-17
-19
-25
-30
-33
-32
-29
-20
-18
-17
-16
-20
-24
-28
-31
-30
-25
-20
-14
-14
-14
-19
-24
-24
-27
-27
-26
-18
-15
-12
-14
-14
-23
-27
-29
-29
-24
-18
-14
-11
-13
-19
-23
-27
-29
-24
-22
-17
-13
-12
-13
-18
-22
-26
-28
-26
-22
-18
-16
-15
-14
-16
-24
-29
-31
-28
-22
-16
-16
-14
-13
-17
-26
-31
-30
-27
-23
-16
-17
-16
-17
-21
-26
-28
-29
-26
-24
-17
-15
-15
-16
-19
-24
-28
-27
-24
-20
-12
-9
-8
-6
-9
-15
-18
-17
-12
-8
-4
-1
-4
-7
-8
-13
-16
-13
-14
-7
1
4
4
0
-7
-13
-19
-20
-17
-13
-8
-6
-10
-18
-23
-28
-33
-30
-28
-22
-16
-15
-16
-18
-25
-29
-32
-30
-28
-22
-17
-17
-16
-19
-26
-29
-31
-28
-26
-22
-18
-18
-18
-18
-26
-27
-31
-30
-25
-22
-18
-17
-16
-17
-27
-34
-34
-33
-26
-15
-5
10
25
42
54
66
84
97
107
120
127
121
103
81
61
40
14
-10
-19
-19
-22
-24
-27
-28
-31
-30
-27
-24
-21
-15
-15
-14
-14
-16
-25
-31
-30
-28
-25
-16
-13
-10
-14
-18
-25
-28
-28
-27
-23
-15
-13
-12
-14
-16
-22
-27
-27
-24
-19
-13
-13
-11
-14
-18
-24
-27
-26
-21
-21
-13
-10
-10
-12
-15
-21
-25
-25
-21
-17
-12
-9
-9
-10
-15
-19
-22
-22
-19
-14
-8
-6
-7
-8
-13
-19
-21
-20
-18
-8
-3
-2
0
-3
-8
-12
-14
-11
-8
-2
5
6
4
4
-1
-4
-5
-2
1
10
14
14
16
15
8
6
3
4
10
16
19
20
21
18
11
6
4
6
8
15
17
17
17
13
4
-2
-5
-4
-3
0
0
2
0
-7
-16
-21
-23
-22
-17
-12
-13
-11
-16
-17
-25
-28
-30
-28
-26
-19
-18
-16
-17
-22
-30
-35
-33
-31
-27
-21
-19
-17
-20
-23
-31
-35
-36
-33
-30
-22
-22
-18
-23
-26
-32
-37
-37
-34
-30
-26
-24
-23
-23
-29
-35
-38
-35
-32
-30
-23
-21
-20
-24
-27
-30
-34
-35
-33
-25
-21
-19
-18
-20
-23
-28
-32
-32
-28
-24
-19
-16
-14
-18
-21
-27
-29
-29
-26
-22
-17
-15
-12
-15
-21
-27
-31
-29
-26
-19
-15
-15
-13
-16
-21
-25
-29
-28
-25
-19
-16
-14
-13
-14
-23
-28
-31
-30
-28
-20
-16
-15
-15
-17
-24
-28
-30
-29
-25
-19
-17
-15
-14
-17
-25
-30
-30
-28
-25
-20
-18
-15
-15
-20
-25
-28
-31
-29
-24
-18
-18
-16
-15
-19
-24
-27
-30
-27
-26
-18
-17
-14
-15
-21
-27
-30
-30
-29
-23
-14
-14
-11
-11
-14
-19
-22
-21
-16
-11
-5
-2
-1
-3
-6
-15
-20
-22
-17
-12
-3
-1
1
0
-1
-8
-15
-18
-17
-13
-8
-8
-7
-9
-14
-21
-28
-31
-30
-25
-18
-16
-17
-18
-22
-29
-34
-34
-29
-25
-20
-18
-17
-21
-24
-29
-33
-33
-30
-23
-19
-17
-19
-21
-24
-29
-34
-32
-29
-24
-19
-18
-17
-19
-25
-32
-36
-35
-35
-31
-26
-21
-17
-13
-11
0
14
33
58
82
102
117
123
129
125
113
94
77
64
55
34
7
-5
-13
-25
-33
-34
-28
-24
-19
-15
-15
-16
-18
-25
-29
-32
-31
-27
-19
-18
-14
-15
-20
-27
-30
-32
-29
-23
-18
-16
-14
-13
-17
-24
-27
-27
-27
-24
-18
-16
-12
-12
-15
-22
-26
-26
-25
-23
-15
-12
-12
-12
-16
-22
-23
-26
-24
-20
-13
-12
-10
-10
-13
-18
-24
-22
-19
-17
-12
-8
-7
-8
-10
-17
-20
-20
-18
-12
-5
-3
-3
-5
-7
-13
-17
-14
-12
-7
-3
2
4
0
-3
-7
-9
-7
-2
3
6
11
12
9
6
1
-1
1
7
12
17
21
23
19
15
9
4
5
10
15
19
21
23
18
11
6
1
3
8
13
12
12
10
7
-1
-6
-11
-12
-8
-2
-1
0
-1
-4
-13
-17
-20
-21
-19
-11
-7
-6
-8
-11
-17
-22
-23
-22
-17
-13
-13
-11
-9
-12
-16
-23
-25
-22
-19
-15
-13
-8
-10
-12
-20
-24
-25
-23
-20
-13
-12
-9
-10
-14
-21
-25
-26
-25
-22
-16
-13
-12
-13
-15
-22
-26
-26
-22
-20
-15
-11
-10
-12
-15
-22
-25
-26
-23
-20
-13
-12
-10
-12
-12
-19
-25
-25
-23
-18
-10
-8
-7
-10
-12
-18
-25
-24
-20
-16
-10
-8
-7
-9
-13
-18
-21
-22
-19
-14
-8
-6
-4
-6
-12
-17
-23
-22
-18
-13
-8
-6
-4
-6
-13
-20
-23
-19
-15
-11
-8
-5
-6
-8
-13
-20
-23
-21
-17
-13
-9
-7
-7
-9
-12
-20
-22
-22
-17
-11
-8
-7
-6
-8
-15
-18
-22
-22
-18
-11
-9
-7
-6
-11
-17
-23
-23
-20
-17
-11
-9
-8
-6
-11
-18
-21
-22
-23
-18
-12
-8
-7
-8
-11
-19
-22
-21
-22
-17
-13
-9
-7
-7
-10
-17
-21
-21
-19
-15
-8
-4
-1
-3
-4
-8
-9
-11
-6
-1
2
3
6
4
2
-4
-11
-11
-7
-3
5
8
11
10
6
-3
-8
-10
-7
-7
-2
2
1
1
-1
-11
-22
-22
-20
-16
-11
-8
-9
-10
-13
-20
-24
-26
-21
-16
-10
-10
-9
-14
-16
-22
-23
-25
-22
-16
-10
-7
-8
-12
-16
-21
-24
-25
-21
-17
-11
-11
-9
-10
-15
-20
-25
-29
-26
-19
-15
-7
2
5
14
26
42
62
86
108
127
137
146
147
136
117
94
80
62
47
21
9
1
-7
-15
-17
-19
-19
-17
-11
-10
-7
-9
-11
-18
-22
-24
-25
-20
-11
-9
-10
-8
-11
-19
-23
-24
-22
-18
-13
-9
-9
-9
-11
-18
-21
-22
-20
-17
-13
-10
-7
-7
-8
-16
-20
-21
-19
-16
-9
-6
-3
-5
-9
-15
-18
-19
-21
-15
-8
-3
-3
-6
-8
-15
-19
-18
-16
-12
-5
-3
-2
-4
-5
-13
-15
-16
-14
-10
-5
-1
3
1
-3
-9
-14
-11
-6
-5
2
5
7
5
2
-1
-6
-5
-1
4
12
15
17
17
12
7
3
4
11
15
19
23
25
21
17
12
10
11
14
16
22
26
26
20
15
11
6
7
10
14
15
17
15
9
3
-3
-8
-7
-5
-1
4
3
1
-2
-9
-16
-17
-16
-13
-9
-4
-2
-3
-8
-16
-19
-21
-20
-18
-10
-7
-5
-5
-10
-20
-23
-21
-19
-14
-10
-8
-5
-7
-10
-17
-19
-20
-19
-17
-11
-9
-7
-8
-10
-19
-23
-22
-22
-17
-11
-9
-7
-8
-10
-18
-23
-26
-22
-18
-13
-11
-8
-10
-13
-20
-23
-26
-22
-21
-13
-9
-7
-12
-13
-20
-23
-24
-21
-16
-12
-10
-8
-9
-12
-18
-24
-23
-19
-15
-10
-7
-6
-9
-12
-17
-21
-20
-18
-13
-9
-6
-4
-8
-13
-18
-21
-19
-18
-14
-11
-7
-4
-6
-11
-17
-22
-21
-18
-13
-8
-5
-4
-7
-13
-19
-21
-20
-17
-13
-7
-7
-5
-9
-14
-20
-22
-21
-19
-12
-7
-6
-6
-9
-15
-19
-21
-22
-17
-12
-11
-12
-5
-5
-14
-18
-21
-23
-20
-11
-9
-6
-6
-9
-17
-20
-22
-21
-17
-10
-9
-5
-7
-9
-17
-22
-22
-22
-17
-12
-11
-7
-7
-11
-18
-22
-23
-21
-15
-10
-12
-7
-6
-10
-17
-27
-25
-20
-16
-12
-10
-8
-7
-10
-16
-19
-20
-19
-13
-5
-2
1
1
-2
-6
-10
-8
-6
-3
0
2
3
3
0
-8
-11
-9
-4
0
6
7
8
4
1
-9
-13
-14
-12
-11
-3
-1
-1
-8
-14
-22
-27
-26
-23
-20
-14
-11
-9
-12
-17
-23
-27
-26
-23
-18
-14
-12
-10
-14
-18
-25
-29
-27
-23
-19
-14
-13
-13
-14
-20
-24
-28
-27
-23
-16
-14
-13
-10
-14
-25
-31
-34
-34
-27
-16
-7
0
14
26
39
56
74
92
112
128
143
150
146
124
97
76
53
34
9
2
-2
-7
-10
-15
-18
-20
-22
-26
-22
-17
-14
-13
-14
-16
-24
-28
-28
-28
-23
-18
-14
-13
-14
-16
-26
-27
-28
-24
-20
-14
-13
-11
-11
-14
-23
-27
-26
-24
-20
-14
-11
-10
-14
-15
-21
-25
-25
-24
-21
-13
-11
-10
-10
-13
-21
-23
-24
-22
-21
-12
-7
-6
-6
-11
-19
-22
-21
-19
-15
-10
-6
-5
-5
-10
-15
-21
-19
-16
-9
-5
-4
1
0
-7
-14
-15
-14
-9
-4
1
3
3
4
1
-4
-7
-6
-2
2
10
13
15
12
8
6
4
6
6
12
18
21
20
16
13
8
6
7
10
15
19
23
21
17
8
4
0
0
1
5
11
12
9
6
-2
-8
-12
-13
-12
-6
-6
-1
-3
-7
-14
-17
-22
-21
-17
-11
-11
-7
-9
-12
-19
-23
-25
-25
-21
-16
-14
-12
-11
-15
-20
-24
-29
-25
-20
-15
-14
-10
-11
-14
-23
-26
-26
-24
-22
-15
-13
-12
-13
-18
-25
-28
-29
-26
-22
-18
-14
-13
-13
-17
-23
-27
-29
-26
-19
-16
-14
-13
-15
-17
-25
-29
-27
-24
-21
-17
-13
-14
-15
-15
-23
-27
-25
-23
-21
-13
-14
-11
-13
-15
-20
-26
-27
-23
-18
-11
-7
-7
-13
-16
-22
-25
-24
-20
-16
-12
-9
-7
-9
-15
-23
-25
-25
-20
-15
-11
-8
-10
-11
-16
-19
-28
-23
-20
-16
-14
-9
-10
-10
-22
-23
-24
-23
-21
-13
-11
-10
-7
-13
-17
-24
-24
-23
-19
-17
-12
-10
-10
-12
-20
-22
-25
-24
-20
-16
-10
-9
-11
-14
-18
-25
-26
-24
-20
-13
-11
-9
-10
-16
-20
-23
-23
-22
-20
-16
-13
-11
-10
-10
-19
-22
-27
-24
-18
-15
-11
-10
-10
-12
-20
-25
-29
-23
-17
-12
-9
-8
-8
-10
-12
-17
-18
-11
-5
-1
1
4
3
-2
-10
-13
-10
-8
-5
1
2
5
3
2
-3
-9
-11
-8
-4
-3
0
0
-2
-7
-14
-17
-21
-22
-20
-14
-11
-12
-12
-16
-27
-27
-27
-22
-21
-16
-13
-11
-13
-17
-25
-29
-27
-24
-18
-15
-12
-13
-15
-17
-24
-27
-29
-25
-20
-15
-12
-14
-15
-21
-25
-27
-28
-24
-20
-21
-18
-17
-16
-17
-17
-11
5
26
48
69
91
108
113
115
117
114
102
87
80
68
52
25
0
-16
-24
-32
-37
-34
-20
-16
-8
-10
-15
-21
-24
-26
-25
-20
-15
-15
-13
-12
-16
-23
-27
-26
-22
-20
-15
-12
-10
-12
-14
-21
-26
-26
-23
-23
-15
-10
-7
-8
-12
-21
-25
-25
-22
-15
-12
-8
-6
-9
-9
-16
-23
-23
-19
-15
-9
-7
-6
-7
-11
-17
-22
-23
-18
-15
-9
-5
-3
-7
-9
-15
-17
-19
-16
-12
-5
-1
-2
-3
-7
-11
-14
-15
-12
-7
0
2
5
5
-1
-8
-9
-6
-1
2
10
12
13
11
10
5
0
4
8
13
18
20
23
20
15
10
8
9
12
17
20
24
25
23
16
12
5
6
10
15
16
16
16
12
5
-2
-5
-7
-4
1
2
2
0
-4
-10
-15
-20
-19
-17
-10
-7
-6
-5
-12
-18
-22
-25
-23
-20
-15
-12
-10
-10
-13
-20
-25
-27
-25
-20
-14
-13
-9
-13
-17
-24
-28
-26
-25
-23
-17
-15
-13
-15
-17
-24
-30
-32
-29
-22
-17
-15
-11
-13
-16
-23
-26
-28
-26
-25
-17
-14
-10
-13
-16
-22
-25
-26
-22
-20
-11
-7
-6
-11
-13
-19
-24
-22
-20
-17
-12
-10
-6
-9
-9
-19
-22
-22
-19
-15
-7
-6
-5
-6
-11
-17
-21
-22
-20
-14
-9
-7
-6
-9
-13
-18
-21
-20
-18
-13
-8
-6
-6
-10
-14
-20
-25
-21
-18
-11
-10
-9
-8
-8
-14
-19
-25
-23
-19
-15
-11
-8
-6
-10
-17
-20
-22
-22
-18
-13
-8
-6
-6
-10
-18
-21
-23
-23
-18
-13
-11
-8
-6
-11
-18
-20
-23
-21
-19
-14
-10
-6
-7
-10
-20
-21
-24
-22
-19
-12
-9
-6
-7
-10
-18
-23
-23
-21
-18
-12
-10
-6
-7
-11
-17
-19
-20
-17
-13
-6
-3
1
-2
0
-4
-8
-9
-5
-3
1
2
4
3
1
-7
-10
-10
-7
-1
6
10
10
4
3
-5
-13
-12
-11
-6
0
1
2
-1
-9
-20
-25
-24
-22
-17
-11
-9
-9
-11
-14
-20
-22
-24
-22
-18
-12
-11
-8
-10
-15
-21
-25
-25
-20
-18
-12
-9
-8
-11
-15
-21
-26
-24
-21
-17
-11
-7
-9
-11
-18
-26
-31
-31
-26
-17
-3
3
17
31
41
57
71
91
108
119
130
141
137
119
93
75
54
35
10
1
-2
-6
-10
-14
-17
-17
-20
-20
-18
-11
-9
-8
-7
-10
-18
-19
-22
-22
-20
-16
-12
-8
-7
-12
-20
-23
-23
-21
-17
-14
-10
-7
-9
-13
-19
-21
-23
-23
-19
-9
-5
-6
-6
-9
-17
-21
-21
-18
-15
-7
-7
-4
-4
-9
-13
-18
-21
-16
-13
-7
-5
0
-3
-6
-14
-17
-17
-14
-10
-5
-1
1
-3
-4
-12
-16
-15
-10
-7
-1
2
4
3
-1
-7
-12
-9
-5
0
3
7
9
9
5
0
-3
-2
4
8
14
19
19
16
15
8
7
9
12
15
23
25
27
24
20
13
10
11
15
18
22
25
24
22
16
10
5
6
8
11
14
15
13
6
1
-3
-7
-7
-6
-1
3
2
2
-3
-9
-14
-18
-19
-12
-8
-5
-3
-2
-5
-11
-17
-20
-19
-16
-10
-5
-4
-5
-9
-14
-19
-23
-19
-15
-9
-8
-5
-6
-9
-16
-20
-22
-19
-16
-10
-8
-6
-8
-11
-18
-23
-23
-20
-17
-11
-9
-7
-7
-13
-18
-23
-23
-20
-18
-12
-8
-7
-9
-10
-16
-24
-22
-17
-14
-10
-7
-7
-6
-10
-16
-19
-20
-18
-15
-7
-5
-3
-5
-9
-15
-17
-19
-17
-12
-6
-2
-3
-5
-7
-13
-18
-18
-15
-11
-4
-3
0
-3
-9
-13
-17
-19
-16
-11
-4
-2
0
-4
-9
-15
-18
-18
-12
-9
-3
-2
-3
-6
-11
-15
-18
-17
-14
-10
-5
-4
-2
-5
-11
-17
-18
-17
-13
-9
-5
-2
-4
-6
-12
-15
-19
-17
-14
-9
-4
-2
-4
-7
-12
-14
-17
-16
-13
-7
-2
-1
-3
-6
-14
-15
-18
-17
-14
-7
-4
-2
-2
-5
-12
-14
-17
-16
-11
-5
-4
-2
-3
-6
-14
-18
-18
-15
-12
-6
-5
-2
-4
-6
-11
-15
-18
-16
-10
-4
-1
3
2
1
-6
-9
-6
-2
3
10
12
13
11
8
0
-4
-5
-2
3
9
12
14
12
12
5
-1
-2
-1
2
7
10
10
7
3
-3
-9
-13
-15
-14
-6
-4
-5
-6
-8
-16
-20
-18
-15
-12
-7
-4
-4
-6
-11
-16
-20
-20
-16
-12
-7
-7
-8
-6
-10
-15
-21
-20
-16
-11
-7
-5
-3
-7
-13
-17
-20
-23
-22
-16
-11
-6
-2
0
-2
11
25
46
68
91
111
126
137
142
140
130
111
92
78
69
52
25
10
0
-9
-16
-19
-16
-13
-9
-7
-5
-7
-7
-14
-17
-21
-22
-16
-9
-8
-7
-5
-7
-14
-18
-22
-20
-15
-8
-7
-6
-7
-10
-14
-17
-17
-18
-13
-9
-6
-4
-6
-7
-14
-19
-19
-16
-13
-9
-6
-1
-3
-6
-14
-17
-17
-17
-12
-6
-4
-1
-3
-9
-13
-17
-16
-12
-9
-5
-2
-1
-4
-4
-10
-14
-16
-12
-6
0
3
3
1
0
-8
-11
-10
-5
-1
6
8
11
8
4
-1
-4
-4
2
6
12
17
18
16
14
8
5
8
10
15
20
21
26
25
19
14
11
11
15
21
25
27
25
24
17
13
9
11
12
16
19
21
20
14
7
4
-1
-2
-1
5
7
8
6
4
-4
-7
-13
-12
-9
-5
-2
2
0
-4
-11
-17
-20
-18
-11
-7
-5
-3
-3
-6
-12
-16
-18
-16
-13
-6
-5
-2
-4
-9
-15
-17
-19
-17
-13
-7
-7
-8
-7
-9
-15
-19
-19
-18
-16
-12
-8
-7
-5
-7
-13
-19
-21
-17
-13
-8
-3
-1
-3
-7
-13
-18
-17
-15
-11
-5
-3
-2
-2
-5
-13
-16
-17
-9
-7
-1
1
3
2
-2
-10
-13
-12
-9
-5
0
2
2
1
-2
-7
-12
-12
-8
-4
2
4
1
1
-2
-8
-13
-10
-7
-3
1
4
4
2
-3
-8
-13
-12
-9
-5
0
2
4
1
-4
-10
-13
-13
-10
-5
0
0
1
0
-6
-11
-15
-14
-8
-4
-1
3
4
-2
-6
-11
-15
-14
-10
-3
1
1
2
0
-7
-11
-14
-13
-12
-3
0
3
3
-1
-9
-12
-13
-13
-11
-3
0
2
0
-2
-10
-13
-14
-14
-11
-3
1
2
1
-1
-11
-17
-16
-12
-8
-2
-2
0
-1
-2
-7
-13
-15
-12
-7
-2
0
2
2
0
-6
-11
-12
-9
-3
6
8
11
11
10
6
0
1
3
5
9
12
14
13
9
3
-1
3
5
8
17
17
18
15
9
2
-4
-4
1
4
10
9
7
2
-5
-12
-16
-16
-13
-9
-2
-1
0
0
-5
-14
-17
-18
-11
-9
-5
-5
-2
-3
-8
-14
-18
-15
-14
-8
-3
0
-1
-5
-10
-12
-15
-15
-12
-5
-4
-1
-3
-8
-15
-17
-21
-15
-6
4
20
38
57
77
90
104
119
126
136
151
151
136
114
96
70
48
14
2
-4
-1
-1
-3
1
1
-8
-13
-16
-16
-11
-6
-2
0
-2
-4
-12
-16
-19
-17
-10
-7
-3
1
-1
-4
-13
-15
-14
-16
-13
-4
-2
1
1
-3
-11
-14
-17
-11
-7
-3
0
0
-2
-3
-7
-12
-15
-11
-8
-2
3
2
0
-1
-8
-7
-10
-8
-6
2
4
4
5
3
-4
-10
-10
-4
-2
3
6
9
7
3
-3
-6
-6
-2
0
7
12
11
8
6
1
1
-2
3
7
15
18
19
18
14
8
4
8
13
19
25
29
28
28
24
19
15
17
20
28
31
31
32
31
25
21
17
19
23
29
32
31
31
28
20
15
10
12
14
18
21
25
20
15
8
1
-2
-2
-1
4
9
10
7
6
-3
-7
-11
-10
-5
-1
1
4
2
-1
-5
-12
-13
-12
-12
-3
1
1
4
-1
-10
-11
-14
-14
-11
-2
-2
2
2
-2
-9
-14
-15
-14
-9
-3
-2
1
-2
-2
-11
-16
-16
-13
-10
-4
-5
-1
-3
-3
-10
-14
-18
-12
-10
-4
-1
0
-1
-6
-13
-15
-16
-11
-10
0
2
1
-2
-2
-7
-11
-17
-11
-5
1
5
2
0
-1
-9
-13
-12
-10
-6
1
3
3
4
-1
-8
-10
-12
-6
-1
3
3
4
3
-2
-6
-9
-9
-8
-3
2
6
5
3
-3
-9
-11
-9
-5
-1
2
5
8
4
-2
-11
-13
-10
-7
1
4
5
6
2
-4
-5
-9
-9
-7
1
4
6
7
4
-3
-9
-11
-11
-5
1
4
4
5
1
-4
-9
-11
-8
-3
-1
2
5
4
2
-4
-8
-12
-7
-1
6
7
5
7
6
1
-1
-3
2
9
16
21
22
20
16
9
3
1
4
8
17
18
21
22
20
11
9
8
11
11
16
18
18
12
8
4
-2
0
-2
-3
3
5
6
2
0
-7
-9
-10
-8
-5
1
4
7
1
-3
-7
-12
-13
-10
-6
2
1
5
2
0
-11
-14
-12
-7
-5
2
4
5
1
-3
-7
-12
-13
-11
-7
-3
0
3
1
2
4
13
26
48
71
92
112
127
133
133
132
125
110
96
86
78
58
28
9
-6
-11
-19
-20
-13
-5
2
4
6
3
-5
-7
-11
-9
-6
-2
0
4
6
3
-5
-8
-9
-10
-6
1
5
6
7
3
-5
-8
-9
-7
-3
2
3
7
6
5
-2
-7
-7
-6
-2
4
8
9
9
8
-1
-6
-8
-3
1
7
9
10
8
7
1
-2
-6
-1
3
8
12
14
13
8
2
-1
-1
2
6
11
14
17
18
12
5
2
2
5
9
18
21
23
22
19
13
7
11
14
19
26
28
30
28
26
19
16
18
25
30
36
38
40
39
34
27
24
26
29
33
39
45
42
40
35
27
25
25
26
28
35
35
34
28
20
16
11
9
11
14
19
18
19
14
6
3
-2
-2
0
6
10
10
9
7
-1
-5
-11
-8
-5
2
2
2
5
3
-1
-6
-10
-10
-6
0
2
2
4
1
-7
-8
-14
-13
-10
-1
2
3
2
-1
-9
-12
-13
-11
-8
0
0
3
2
-1
-7
-10
-11
-8
-7
-1
-1
2
5
4
-4
-10
-11
-10
-5
5
4
7
7
2
-3
-9
-8
-7
-2
3
5
11
9
6
-3
-8
-9
-5
0
6
6
8
5
4
-3
-5
-9
-4
0
7
11
9
6
5
-5
-10
-7
-4
-1
6
6
8
6
2
-5
-7
-7
-8
-2
4
7
7
4
1
-6
-10
-9
-4
-1
7
7
4
5
0
-6
-8
-8
-8
-1
4
5
2
3
-2
-6
-8
-8
-5
-1
5
7
5
3
-1
-5
-8
-6
-5
2
4
7
8
8
0
-2
-3
-3
2
11
15
19
21
15
9
7
5
6
8
14
19
18
20
16
12
8
7
11
13
16
20
23
22
15
7
3
0
3
6
11
4
5
4
-1
-7
-11
-12
-8
-5
2
2
5
3
-1
-8
-10
-11
-7
-6
-1
0
2
0
-2
-8
-11
-14
-12
-6
2
2
3
3
0
-8
-14
-10
-7
-4
0
-2
-4
-5
-7
-7
-4
2
15
37
59
80
99
115
126
125
129
136
137
126
113
99
84
63
29
5
-6
-12
-11
-5
0
5
6
4
0
-7
-12
-11
-10
-4
1
4
3
1
-2
-11
-13
-12
-9
-4
1
2
4
1
-3
-9
-13
-13
-9
-1
0
4
3
3
-4
-8
-11
-9
-7
-2
5
5
6
4
-4
-8
-10
-9
-4
3
6
7
6
4
-2
-5
-9
-6
-5
2
6
9
9
6
-1
-3
-5
-4
-1
8
9
11
11
8
2
-2
-4
-1
5
10
12
15
17
15
9
6
0
2
11
19
21
22
22
21
16
12
10
15
21
28
31
32
33
29
22
20
18
22
26
34
34
37
34
29
23
18
18
21
24
27
29
26
26
23
15
8
8
9
9
13
14
16
11
6
-3
-5
-6
-5
-2
3
4
6
3
-2
-9
-12
-14
-11
-7
-2
1
2
-1
-6
-12
-17
-14
-12
-5
-2
0
-3
-6
-13
-22
-10
-12
-10
-8
-4
1
-2
-9
-14
-10
-15
-15
-12
-7
-4
-2
-2
-8
-17
-17
-16
-17
-11
-7
-5
-1
0
-4
-9
-16
-17
-17
-13
-6
-4
-2
-1
-3
-10
-14
-16
-15
-10
-5
-1
1
1
-2
-10
-13
-15
-13
-11
-4
0
-2
-1
-5
-11
-12
-13
-13
-8
-3
0
1
-3
-4
-10
-15
-16
-13
-9
-4
-4
-1
-3
-4
-10
-15
-17
-14
-9
-4
-2
-1
-4
-6
-13
-17
-17
-14
-11
-7
-3
-3
-5
-8
-13
-16
-16
-14
-10
-6
-4
-3
-5
-7
-12
-18
-17
-14
-11
-5
-6
-5
-5
-7
-15
-18
-19
-15
-9
-5
-5
-2
-5
-10
-17
-19
-19
-15
-13
-8
-3
-3
-5
-10
-15
-20
-16
-14
-10
-6
-4
-3
-6
-10
-16
-17
-12
-10
-4
0
1
3
5
-1
-2
-6
-4
-1
4
5
6
7
6
-1
-3
-7
-6
-3
6
11
14
12
7
-2
-4
-8
-8
-6
0
2
4
4
-4
-17
-20
-22
-21
-19
-13
-9
-6
-8
-11
-18
-20
-23
-23
-20
-10
-10
-7
-10
-12
-18
-21
-23
-21
-18
-11
-10
-9
-9
-11
-18
-24
-23
-19
-17
-12
-10
-8
-12
-18
-23
-26
-21
-13
-3
14
34
53
74
89
98
109
116
130
140
141
127
109
89
70
42
11
-6
-11
-11
-8
-7
-2
-4
-10
-17
-22
-23
-18
-16
-8
-8
-7
-9
-13
-19
-22
-22
-22
-17
-11
-8
-9
-10
-12
-17
-22
-23
-17
-12
-9
-6
-6
-7
-13
-18
-21
-21
-18
-12
-5
-4
-5
-8
-13
-18
-20
-17
-14
-10
-5
-4
-3
-5
-10
-14
-18
-17
-13
-7
-3
-2
-2
-5
-12
-14
-16
-15
-11
-5
-1
0
2
-1
-8
-12
-15
-14
-8
-1
3
6
5
-1
-5
-4
-7
-4
0
7
10
12
12
10
3
-1
1
3
8
16
19
23
21
18
12
9
8
12
16
22
25
28
26
23
15
11
10
11
14
20
23
23
22
20
9
2
1
5
7
12
12
13
10
5
0
-6
-9
-8
-5
0
1
3
-1
-4
-11
-16
-16
-13
-10
-4
-2
-2
-4
-8
-14
-17
-18
-14
-11
-8
-5
-1
-4
-9
-17
-20
-18
-14
-10
-6
-2
-4
-6
-10
-15
-21
-21
-16
-10
-4
-4
-4
-7
-12
-17
-20
-18
-16
-11
-6
-5
-3
-7
-14
-18
-20
-20
-16
-8
-4
-4
-3
-4
-9
-13
-17
-16
-13
-6
-3
-2
-1
-4
-9
-14
-17
-15
-12
-7
-3
0
0
-5
-12
-15
-17
-13
-8
-4
-2
1
2
-3
-10
-13
-16
-14
-9
-3
-3
0
-1
-2
-9
-13
-15
-15
-9
-5
-2
0
1
-3
-11
-15
-19
-15
-9
-4
-4
1
0
-3
-9
-15
-15
-14
-12
-3
-1
0
-2
-5
-14
-17
-18
-15
-9
-5
0
-2
-3
-5
-16
-20
-16
-14
-12
-4
-5
-5
-5
-6
-12
-16
-18
-15
-12
-5
-3
-2
-5
-9
-13
-18
-18
-13
-8
-3
0
-3
-2
-8
-11
-13
-14
-10
-6
1
5
6
6
2
0
-3
0
2
6
9
12
13
9
6
-2
-5
-3
1
7
11
14
16
14
7
1
-4
-4
-3
2
5
9
9
5
-7
-15
-20
-19
-16
-11
-5
-3
-4
-6
-14
-19
-20
-17
-16
-10
-7
-6
-5
-9
-13
-19
-24
-21
-17
-10
-8
-5
-4
-11
-17
-17
-22
-20
-16
-9
-9
-4
-6
-11
-20
-27
-27
-25
-14
-1
5
19
35
52
66
82
100
114
124
141
148
144
124
103
80
55
34
10
-1
-2
-4
-6
-7
-9
-14
-18
-20
-18
-14
-9
-6
-5
-8
-12
-17
-22
-22
-19
-16
-11
-8
-7
-6
-10
-16
-19
-22
-20
-15
-7
-4
-4
-5
-8
-17
-19
-16
-14
-10
-8
-4
-3
-4
-9
-13
-19
-18
-13
-8
-4
-1
-1
-4
-7
-14
-16
-16
-12
-6
-2
0
-3
-6
-8
-9
-12
-10
-9
-2
-1
3
4
0
-5
-9
-11
-10
-5
1
5
6
5
3
-3
-6
-8
-5
-2
5
9
12
12
11
6
5
3
3
7
15
18
23
22
22
15
10
9
12
16
23
26
30
28
27
20
16
12
17
20
26
26
29
28
24
17
8
8
10
14
16
14
17
14
10
1
-5
-7
-4
0
4
5
3
3
-3
-11
-14
-15
-9
-8
-3
-3
-1
-2
-6
-14
-18
-18
-17
-11
-4
-3
-3
-4
-7
-12
-15
-17
-14
-13
-4
-1
0
-3
-6
-14
-19
-20
-15
-11
-4
-1
-4
-7
-10
-16
-20
-18
-15
-12
-7
-3
-5
-6
-11
-18
-22
-18
-15
-11
-8
-5
-3
-6
-10
-14
-19
-19
-14
-9
-5
-3
-5
-8
-11
-15
-14
-14
-10
-5
-5
-2
1
-2
-9
-11
-15
-13
-9
-5
-4
-4
-1
-1
-9
-13
-14
-14
-11
-5
-2
-2
-2
-3
-10
-13
-15
-15
-9
-3
0
0
1
-3
-9
-14
-16
-16
-12
-2
0
2
0
-4
-11
-12
-16
-13
-8
-5
-3
-1
1
-3
-11
-17
-17
-15
-10
-3
-2
-2
1
-5
-11
-15
-16
-14
-10
-2
1
5
-1
-2
-6
-10
-8
-3
3
10
14
13
13
9
0
-4
-4
2
5
11
12
15
13
12
5
-1
3
5
6
12
11
8
6
1
-5
-8
-9
-14
-10
-4
-3
-1
-4
-7
-12
-18
-17
-10
-7
-4
-1
-3
-6
-12
-16
-20
-17
-14
-10
-5
-5
-5
-5
-12
-15
-18
-18
-13
-6
-5
-5
-3
-6
-12
-16
-18
-17
-16
-13
-12
-9
-6
-7
-7
-6
0
15
40
61
84
102
118
122
126
124
121
107
93
85
72
56
26
4
-10
-17
-26
-28
-23
-12
-7
-2
-2
-5
-13
-16
-18
-15
-12
-6
-3
-1
-3
-4
-12
-19
-18
-15
-11
-4
-4
-1
-3
-4
-12
-16
-17
-13
-9
-2
0
3
0
-3
-11
-12
-12
-10
-5
0
3
4
5
-1
-6
-10
-9
-7
-3
4
6
6
3
4
-4
-5
-7
-4
0
5
9
9
7
5
-2
-7
-6
0
4
9
12
15
13
8
2
-2
1
5
8
15
18
19
15
13
9
6
8
12
19
23
27
28
29
22
21
17
20
23
31
35
40
40
34
31
28
23
26
30
35
37
41
40
39
32
26
21
25
28
30
32
34
34
28
16
12
9
5
8
13
14
15
13
9
0
-4
-6
-5
-2
2
4
5
5
0
-6
-10
-12
-10
-8
0
1
4
3
-2
-11
-16
-12
-11
-10
-2
1
2
1
-4
-12
-15
-16
-12
-12
-4
-1
0
-5
-6
-12
-17
-18
-14
-11
-5
-2
1
-3
-5
-12
-16
-13
-11
-8
-3
-2
1
0
-2
-11
-15
-11
-10
-5
4
6
5
2
-1
-7
-10
-11
-5
-2
3
6
8
5
2
-3
-11
-10
-5
1
3
6
7
3
0
-4
-8
-8
-7
-2
3
7
8
6
-2
-6
-9
-7
-3
1
5
9
7
4
-1
-5
-10
-8
-4
0
4
5
6
4
-5
-7
-10
-8
-5
2
5
5
7
2
-6
-8
-13
-11
-5
1
3
4
3
0
-5
-10
-11
-10
-6
-1
1
5
4
1
-6
-8
-10
-9
-5
2
6
8
6
7
0
-2
-2
3
8
14
18
19
18
13
6
1
2
3
7
14
16
20
22
19
12
7
5
6
10
13
15
16
14
14
2
-1
-4
-10
-6
1
3
4
4
0
-8
-11
-12
-9
-5
4
6
7
7
2
-5
-8
-10
-6
1
6
7
9
6
2
-7
-9
-11
-6
-6
2
4
6
5
1
-6
-11
-9
-9
-5
-3
0
2
0
1
4
13
27
52
77
100
120
133
138
141
143
136
121
107
98
85
64
36
19
6
-5
-12
-12
-6
3
7
6
6
4
-4
-7
-9
-8
-4
1
5
6
3
0
-6
-9
-10
-8
-4
3
6
7
6
3
-3
-8
-9
-7
-3
5
6
8
8
5
-3
-7
-6
-3
0
5
9
10
9
6
0
-5
-7
-4
0
8
9
11
9
7
-1
-3
-3
-1
4
9
13
14
11
9
3
0
0
2
4
11
14
16
16
13
6
2
3
6
10
17
19
20
19
17
11
8
10
15
19
25
30
30
29
25
19
16
20
25
32
38
41
44
39
36
30
25
24
28
35
