117
120
105
103
84
82
75
75
88
93
88
89
85
75
64
59
60
68
72
85
87
81
57
54
53
44
29
29
53
68
75
72
61
52
47
42
43
52
60
62
65
71
60
55
40
25
33
44
58
61
68
63
59
45
36
35
43
41
60
63
69
70
72
58
29
23
42
45
55
60
70
68
61
48
45
41
41
52
61
74
69
72
67
42
43
39
40
48
50
67
66
62
60
46
42
38
40
45
49
71
76
76
57
35
45
41
46
50
63
69
71
63
58
45
37
43
42
43
58
65
64
63
60
48
30
37
47
49
59
69
64
55
53
37
40
40
46
46
65
60
66
58
55
36
38
41
46
53
69
71
66
65
47
33
35
24
42
50
55
56
64
58
49
42
34
28
41
56
57
65
56
51
48
36
37
37
40
50
60
61
63
56
32
30
29
33
54
63
64
81
73
62
53
45
38
37
41
64
59
70
67
66
60
51
47
41
44
58
72
75
78
74
44
39
37
32
42
58
64
69
66
53
36
31
30
38
42
52
59
59
61
55
37
33
33
36
33
43
56
52
50
47
30
27
28
29
46
51
57
58
46
32
31
35
25
27
33
48
48
50
48
38
22
24
26
33
74
99
106
113
113
129
132
161
167
166
163
170
170
152
125
91
61
33
1
-5
22
31
42
39
39
45
38
32
38
53
52
71
66
56
53
41
29
33
37
45
51
59
67
62
61
46
37
32
29
36
43
63
72
66
72
49
37
28
34
48
57
64
67
65
63
60
43
41
44
53
64
67
72
74
54
50
42
40
39
55
74
77
82
77
65
52
46
54
53
65
79
93
91
84
79
67
55
57
63
71
82
94
98
102
97
87
73
77
82
86
99
109
109
104
92
85
87
94
90
95
114
120
113
99
96
87
81
82
94
107
112
111
105
96
94
80
68
67
64
73
87
86
78
73
70
63
50
37
39
43
61
66
71
53
47
35
37
27
38
53
64
66
54
45
40
33
32
30
32
45
46
59
62
59
51
17
5
22
35
48
57
44
43
46
40
31
26
21
32
48
50
54
45
50
37
36
26
32
47
51
55
56
55
48
30
28
29
31
42
56
62
61
52
43
33
26
30
33
35
40
49
67
63
48
29
23
25
30
38
48
60
66
66
40
34
31
25
22
32
53
57
59
56
45
36
25
25
29
41
51
59
61
51
42
25
22
21
31
38
52
60
55
45
41
28
17
19
32
34
47
52
54
45
39
31
22
29
34
48
42
55
57
55
41
25
26
28
30
45
46
52
58
48
33
23
13
21
33
37
51
55
43
32
38
34
30
29
34
35
44
62
65
50
35
31
19
26
27
34
42
45
49
37
34
25
23
22
33
44
50
53
55
46
38
29
20
36
35
45
56
51
57
47
41
22
21
31
48
56
58
70
75
66
39
33
36
27
34
54
62
60
54
59
40
35
37
34
39
48
52
51
49
38
32
24
11
32
39
38
38
48
46
33
26
26
33
25
30
34
46
46
38
37
28
17
17
22
29
43
50
47
44
41
28
30
21
10
16
35
39
43
29
25
23
34
41
59
72
93
107
132
152
168
163
157
152
145
152
140
121
106
73
39
14
-1
-12
12
26
32
36
49
51
39
29
21
22
35
36
47
57
57
56
40
19
19
27
26
38
45
55
61
46
25
18
26
38
44
43
46
46
53
57
44
31
23
19
35
56
69
68
59
50
42
37
28
27
40
41
56
62
64
55
41
41
46
43
35
50
69
62
67
57
47
45
40
54
56
63
72
91
86
74
59
53
58
59
66
78
94
98
85
81
78
73
81
80
82
94
96
84
95
100
85
77
80
82
87
100
111
108
112
96
68
70
74
77
89
99
94
92
83
77
62
53
58
49
60
66
62
65
61
55
39
24
39
37
42
53
54
58
46
47
34
30
24
31
34
42
50
54
56
44
16
16
19
24
38
41
52
45
43
35
20
15
16
25
39
37
44
39
43
41
18
16
20
23
37
48
50
50
41
26
30
28
26
28
41
45
50
55
40
25
30
25
24
31
34
52
53
53
39
28
19
18
26
38
49
52
49
40
37
24
21
22
24
30
44
55
43
37
29
19
17
34
38
41
42
50
46
37
33
26
24
27
28
36
34
45
53
41
37
32
28
23
26
37
55
52
45
41
35
26
10
7
14
30
38
52
47
43
42
25
14
17
21
30
43
49
48
45
42
33
21
20
18
28
41
56
45
29
26
31
29
23
31
39
46
52
53
43
21
21
18
18
28
38
54
60
48
37
23
19
17
27
33
50
58
62
49
46
35
29
26
27
33
44
48
52
58
47
34
33
34
27
34
48
56
50
41
41
39
33
39
33
28
33
46
69
64
52
40
36
35
42
43
56
61
58
66
69
47
36
37
36
48
58
68
76
73
61
48
35
36
37
45
60
54
56
55
41
37
31
23
20
33
57
58
55
53
53
31
24
22
31
40
52
52
51
42
44
44
35
25
28
27
51
61
58
47
41
23
26
35
39
37
48
39
27
30
22
26
18
27
53
75
85
97
107
118
129
139
157
162
161
159
164
155
139
109
72
31
5
1
2
18
28
39
38
45
46
42
32
29
14
30
46
49
50
40
31
17
20
24
35
39
44
46
45
51
36
28
28
29
26
35
65
60
54
55
38
37
30
29
30
52
63
60
59
62
52
34
30
34
39
47
57
60
60
70
48
35
39
42
45
58
66
66
65
64
39
21
28
52
49
70
82
82
74
57
56
54
46
60
64
78
84
86
87
81
73
68
54
69
78
86
95
102
92
89
75
71
75
77
85
103
101
104
100
98
77
70
69
76
85
95
100
93
83
74
60
49
48
57
58
69
69
60
63
52
34
18
29
46
54
41
38
46
46
38
23
17
19
25
20
30
41
42
34
29
9
20
20
22
41
38
38
41
31
27
22
8
-2
7
25
43
51
38
34
25
8
9
19
23
32
41
44
40
28
14
3
-5
11
21
36
48
48
47
20
12
8
13
13
21
36
35
47
44
35
25
18
5
7
19
34
46
45
31
28
27
14
13
13
23
37
37
38
31
37
21
14
4
11
22
38
43
44
35
28
17
7
14
19
24
35
36
32
32
26
5
9
17
16
20
29
30
38
28
24
3
2
23
17
32
35
40
33
23
16
8
11
8
20
26
31
30
29
33
25
6
11
-5
8
21
23
27
33
33
17
0
1
4
12
27
35
41
37
22
13
4
0
6
8
21
37
45
30
21
17
7
8
1
3
23
28
29
28
23
17
5
-1
-3
6
20
24
28
35
19
2
1
-2
10
6
22
26
35
38
30
14
4
-6
1
13
26
32
26
26
19
2
10
2
6
14
27
27
26
27
24
0
3
8
-1
7
35
33
29
36
28
13
-1
-5
2
10
28
33
36
33
33
17
13
11
22
33
42
38
39
33
29
21
16
9
11
20
26
36
22
16
14
6
5
4
-4
1
17
19
20
22
15
4
-2
4
8
20
20
13
19
20
7
-5
-6
-13
2
8
17
27
22
18
20
10
-8
-6
6
13
14
16
19
10
-3
-6
-21
-8
0
14
29
50
66
69
61
53
72
117
134
149
154
152
137
115
79
52
28
17
-3
-5
-2
9
3
5
-6
1
-3
-2
5
19
28
35
26
25
5
-15
-12
-1
4
17
21
28
27
25
9
9
-4
7
13
17
22
32
23
6
5
3
9
-4
12
32
37
35
22
13
3
13
19
7
9
31
36
40
32
21
18
10
9
6
18
39
38
32
33
31
21
13
12
16
32
49
44
51
43
39
22
20
23
34
45
43
52
56
59
46
37
38
44
52
56
64
78
76
70
53
45
45
52
58
66
84
86
83
71
56
57
49
52
60
70
79
77
77
69
49
39
45
43
40
56
65
48
45
41
31
19
13
12
17
24
30
37
38
21
10
2
-9
-4
11
18
25
24
27
19
5
-2
-20
-6
-1
12
14
11
20
9
-3
-4
-4
-6
-2
-3
11
20
12
1
-7
-7
-7
-4
5
11
21
12
13
12
-6
-9
-14
-5
-8
11
20
20
12
13
-1
-18
-18
-5
0
18
19
20
9
3
-6
-12
-15
-9
0
9
14
14
10
4
-6
-9
-9
-5
10
21
14
16
9
5
-7
-14
-18
-10
7
17
8
6
4
4
-11
-5
-12
-4
7
5
18
11
3
2
-9
-12
-25
-27
-5
12
11
11
4
-11
-18
-19
-18
-11
-1
12
9
8
3
2
-12
-25
-26
-11
-5
1
5
3
6
-13
-14
-19
-17
-10
0
0
8
6
-6
-15
-25
-32
-25
-13
-2
3
5
3
-1
-8
-25
-32
-27
-18
-7
7
14
11
-3
-18
-31
-30
-28
-14
2
7
8
-8
-4
-21
-28
-28
-26
-20
-1
6
10
11
-3
-18
-24
-32
-26
-23
-16
-5
-1
4
-6
-20
-31
-25
-23
-14
-2
4
1
-8
-14
-18
-26
-26
-22
-12
-6
7
1
-12
-15
-18
-25
-35
-31
-11
-3
-2
1
-10
-16
-25
-29
-29
-23
-11
-4
4
3
-7
-22
-29
-27
-17
-12
-2
5
4
8
5
-7
-16
-30
-17
-12
0
7
15
9
2
-5
-15
-18
-14
-8
-21
0
13
12
3
-7
-15
-27
-28
-23
-12
-4
3
-2
-11
-26
-47
-34
-27
-17
1
5
-2
-10
-14
-26
-32
-39
-39
-29
-15
-13
-6
-9
-9
-18
-37
-49
-30
-23
-11
-1
-3
-12
-16
-30
-36
-42
-39
-32
-23
-20
-26
-23
-11
-5
-1
2
22
27
42
54
77
112
126
116
106
97
95
80
73
55
29
-3
-26
-56
-72
-56
-41
-43
-25
-10
-1
0
-12
-22
-29
-36
-29
-18
-8
-7
-5
-13
-7
-24
-33
-29
-29
-13
0
-7
-8
-5
-11
-28
-40
-43
-19
-10
-3
-1
-2
-9
-13
-26
-26
-23
-16
-10
2
2
6
0
-6
-19
-24
-22
-25
-15
1
4
6
7
-9
-16
-17
-25
-20
-6
0
9
15
4
0
-6
-13
-11
-2
2
14
27
22
17
5
4
-2
-3
2
16
31
42
34
31
29
24
17
12
19
31
47
45
50
36
22
14
23
32
36
41
40
53
51
34
28
21
15
17
16
33
41
37
36
30
14
5
3
7
5
7
15
11
18
6
-16
-22
-23
-16
-15
-3
-12
-5
-2
-18
-23
-31
-29
-28
-19
-10
1
0
-9
-28
-30
-39
-37
-32
-24
-11
-7
-4
-7
-15
-34
-45
-42
-31
-24
-14
-9
-11
-9
-18
-37
-34
-36
-30
-20
-21
-11
0
-3
-16
-30
-36
-32
-31
-25
-11
-2
-8
-14
-24
-29
-38
-33
-31
-18
-12
-10
-10
-8
-19
-22
-30
-33
-34
-17
-13
-1
-3
-19
-22
-31
-34
-37
-28
-17
-9
-8
-8
-15
-19
-27
-32
-38
-29
-23
-8
-1
-9
-20
-30
-35
-28
-33
-27
-24
-9
-5
-7
-18
-27
-32
-39
-30
-29
-21
-13
-9
-13
-20
-23
-34
-41
-39
-33
-22
-13
-3
-3
-34
-37
-32
-34
-28
-26
-18
-12
-9
-23
-26
-28
-31
-32
-32
-22
-16
-11
-2
-8
-26
-32
-47
-44
-40
-38
-20
-6
-13
-18
-22
-32
-37
-39
-36
-20
-11
-13
-7
-14
-26
-44
-45
-40
-29
-22
-16
-13
-16
-19
-24
-31
-40
-38
-32
-31
-10
-6
-5
-19
-20
-35
-42
-41
-34
-23
-18
-15
-11
-16
-29
-40
-40
-33
-30
-29
-18
-8
-5
-24
-28
-32
-34
-31
-36
-26
-19
-15
-17
-13
-13
-34
-36
-41
-29
-13
-4
-3
-5
-19
-23
-29
-33
-34
-27
-15
0
-2
-1
-8
-18
-22
-23
-20
-13
-6
-12
-2
1
-8
-18
-24
-28
-36
-37
-20
-3
-9
-10
-16
-31
-39
-38
-36
-30
-19
-14
-11
-14
-25
-32
-33
-39
-35
-33
-21
-7
-16
-18
-23
-34
-49
-48
-39
-32
-23
-19
-14
-10
-20
-43
-48
-48
-37
-31
-25
-18
-16
-24
-33
-42
-43
-37
-26
-5
20
26
40
54
66
79
86
93
95
98
96
77
59
40
8
-30
-61
-69
-54
-44
-33
-28
-23
-17
-16
-37
-49
-48
-28
-18
-11
-9
-13
-20
-21
-39
-46
-32
-29
-21
-15
-18
-10
-13
-22
-37
-39
-33
-24
-13
-11
-7
-4
-8
-16
-25
-31
-39
-43
-21
1
10
-4
-5
-29
-32
-31
-32
-16
-7
5
5
-11
-4
-15
-24
-33
-30
-10
5
10
6
-2
-4
2
-9
-11
-17
-10
9
16
20
15
-5
5
-5
-13
-3
0
14
25
24
26
19
19
6
-1
4
8
29
46
45
35
36
30
16
14
28
30
44
48
51
50
38
18
22
26
32
21
29
40
40
34
25
7
6
1
3
12
18
23
26
12
0
-16
-17
-24
-24
-13
-2
0
1
0
-19
-22
-27
-31
-29
-23
-13
-8
-4
-12
-17
-34
-40
-33
-23
-20
-20
-9
-7
-10
-11
-33
-45
-39
-27
-22
-10
-6
-13
-9
-21
-26
-34
-43
-34
-23
-11
-18
-17
-19
-26
-33
-40
-29
-26
-18
-12
-2
-19
-20
-27
-35
-38
-34
-35
-16
-1
3
-5
-23
-30
-29
-34
-23
-19
-11
-11
-1
-5
-15
-27
-32
-30
-32
-24
-11
-9
-6
-6
-9
-24
-32
-34
-31
-20
-3
-21
-11
-9
-25
-24
-37
-37
-27
-23
-10
-8
-8
0
-13
-35
-36
-37
-32
-29
-15
1
-6
-11
-21
-35
-36
-32
-26
-20
-14
-5
-5
-13
-14
-36
-42
-48
-41
-24
-8
-6
-4
-13
-18
-33
-37
-50
-39
-21
-13
-7
-3
-11
-22
-42
-36
-36
-29
-21
-14
-11
-6
-12
-22
-39
-34
-29
-23
-18
-17
-11
-15
-21
-24
-32
-33
-31
-25
-33
-12
-5
-10
-16
-24
-27
-34
-33
-29
-24
-8
-5
-10
-19
-28
-34
-41
-40
-27
-13
-4
-1
-8
-14
-29
-38
-35
-33
-17
2
-12
-20
-13
-14
-29
-40
-45
-38
-26
-21
-8
-7
-9
-14
-27
-38
-34
-27
-27
-13
-5
-5
1
-14
-21
-33
-36
-31
-22
-10
-3
7
6
-2
-15
-19
-27
-25
-8
2
9
12
-2
-21
-20
-26
-29
-21
-20
-8
-7
-6
-15
-17
-26
-31
-38
-32
-30
-13
-11
-3
-2
-21
-37
-43
-41
-31
-21
-13
-7
-11
-19
-23
-38
-37
-38
-30
-21
-14
-18
-14
-13
-22
-34
-37
-51
-37
-24
-13
-11
-22
-30
-35
-41
-40
-28
0
21
30
36
48
52
64
85
101
104
104
102
108
92
72
55
18
-16
-36
-57
-58
-35
-21
-12
-11
-13
-27
-38
-31
-28
-25
-11
-6
-1
-2
-10
-21
-19
-28
-20
-15
-15
-15
-7
-8
-19
-19
-22
-29
-26
-15
-7
-2
7
3
-1
-7
-16
-32
-27
-16
-8
-3
2
-3
-1
-9
-21
-32
-21
-8
4
10
8
2
-5
-11
-19
-15
-20
-27
-2
16
20
7
1
-5
-19
-21
-10
3
20
26
30
16
12
1
-3
4
4
12
22
38
42
28
24
16
12
17
22
27
38
46
46
42
42
30
25
29
32
31
50
51
55
48
35
30
25
22
25
41
53
59
40
26
27
16
13
4
9
22
31
28
15
7
-2
-11
-21
-15
-16
-12
8
19
11
-1
-17
-22
-33
-34
-29
-15
0
-5
-13
-16
-30
-33
-22
-34
-32
-21
-14
-11
-11
-15
-22
-27
-39
-45
-34
-15
1
9
-12
-22
-21
-26
-36
-33
-34
-13
-5
-10
-14
-13
-20
-30
-51
-41
-19
-8
-4
2
-22
-28
-28
-38
-38
-36
-24
-9
-2
-5
-15
-18
-27
-41
-42
-28
-20
-7
-3
-4
-16
-20
-33
-39
-35
-34
-24
-13
-8
-5
-10
-19
-32
-35
-38
-35
-25
-12
-7
-5
-4
-19
-34
-30
-34
-38
-22
-11
4
-2
-10
-22
-37
-29
-42
-38
-30
-17
-11
-10
-13
-28
-35
-40
-41
-30
-19
-16
-7
-6
-16
-28
-33
-29
-31
-28
-20
-13
-10
-9
-9
-16
-32
-32
-36
-38
-30
-18
-14
-16
-20
-28
-38
-33
-30
-34
-17
-9
0
-4
-16
-27
-39
-36
-32
-32
-14
-6
-6
-5
-9
-20
-27
-27
-37
-39
-21
-15
-8
-8
-21
-28
-31
-36
-37
-29
-14
-6
-4
-10
-21
-29
-32
-34
-33
-28
-13
-14
-9
-7
-19
-27
-31
-32
-31
-26
-18
-9
-11
-4
-8
-18
-23
-32
-29
-28
-17
-5
1
10
-9
-17
-20
-21
-18
-14
-1
-2
-3
-6
-1
-23
-31
-31
-23
-6
2
-1
10
2
-10
-43
-42
-44
-31
-15
-15
-18
-8
-2
-25
-35
-32
-33
-33
-17
-6
-13
-7
-10
-18
-37
-37
-35
-29
-18
-9
-7
-14
-17
-19
-31
-39
-38
-31
-26
-15
-9
-10
-20
-29
-41
-44
-47
-38
-29
-12
10
11
16
25
26
35
48
76
101
122
133
129
110
78
50
20
2
-14
-26
-28
-34
-33
-36
-46
-39
-44
-37
-23
-10
-5
-6
-2
-9
-20
-32
-33
-20
-18
-6
-11
-13
-16
-14
-23
-26
-22
-16
-9
4
2
-8
-11
-13
-16
-25
-31
-22
-17
-1
-2
-6
-2
-15
-26
-24
-24
-25
-20
2
14
11
7
-2
-7
-18
-21
-21
-13
6
14
15
6
-5
-15
-15
-15
-2
6
14
18
20
18
13
-4
-11
-2
6
12
29
26
18
4
11
6
11
11
14
13
29
40
42
35
24
15
19
21
28
37
53
56
54
47
36
18
27
26
33
45
48
49
49
45
31
13
14
14
22
25
31
38
31
25
-3
-13
-3
-7
-10
-9
5
6
2
1
-19
-23
-27
-24
-20
-10
-4
6
-13
-18
-26
-22
-21
-26
-24
-4
-14
-6
3
0
-21
-41
-43
-29
-20
-12
-15
-12
-11
-10
-22
-36
-23
-24
-14
-2
-3
-9
-19
-22
-30
-36
-38
-34
-22
-4
1
-8
-23
-18
-19
-22
-33
-31
-23
-2
1
-6
-16
-22
-35
-31
-26
-26
-28
-18
-5
1
-9
-8
-20
-30
-30
-26
-16
-4
-1
-7
-11
-18
-34
-31
-25
-28
-22
-4
-12
4
-11
-21
-32
-24
-30
-18
-22
-10
-8
-6
-8
-18
-34
-41
-35
-44
-20
-9
-5
-7
-7
-20
-34
-36
-41
-27
-18
-11
-10
-9
-24
-27
-25
-28
-28
-33
-23
-13
-9
-11
-16
-18
-39
-32
-30
-23
-22
0
-4
-24
-16
-30
-45
-44
-29
-26
-18
-12
-12
-11
-20
-26
-31
-37
-37
-26
-14
-18
-8
-7
-15
-33
-39
-38
-25
-24
-24
-10
-10
-19
-16
-35
-33
-36
-35
-29
-14
-10
-14
-14
-20
-38
-36
-35
-32
-29
-10
-13
-12
-8
-14
-27
-28
-33
-34
-26
-7
-6
6
-2
-19
-41
-35
-41
-28
-18
-5
2
-6
-20
-28
-20
-22
-29
-32
-22
-8
2
5
-5
-21
-30
-36
-40
-35
-31
-17
-11
-5
-18
-28
-38
-42
-43
-36
-29
-17
-14
-13
-17
-28
-33
-38
-44
-36
-26
-18
-11
-12
-26
-33
-35
-41
-45
-39
-27
-21
-10
-15
-23
-37
-47
-51
-50
-37
-33
-33
-25
-14
-6
-5
1
11
23
43
75
103
126
121
112
95
79
55
41
26
21
2
-16
-31
-47
-55
-59
-50
-37
-29
-12
0
3
-5
-16
-36
-43
-42
-37
-31
-8
-9
-10
-17
-17
-26
-32
-33
-37
-25
-14
-9
-10
-8
-11
-18
-36
-28
-25
-30
-14
-10
1
-9
-20
-23
-30
-34
-31
-20
-3
6
3
-6
-10
-28
-32
-26
-24
-18
-1
3
9
-5
-7
-20
-24
-24
-16
-5
6
10
-10
-4
0
1
-10
-13
-8
1
19
20
23
7
-1
-10
-15
10
19
8
25
38
38
28
24
12
17
14
24
35
38
43
34
34
33
17
13
18
27
49
54
59
47
35
26
15
9
-3
5
23
26
31
17
9
4
-7
-15
-14
-10
-1
3
11
-2
-7
-16
-28
-31
-27
-38
-18
-9
-2
-13
-19
-22
-35
-37
-34
-35
-24
-11
-17
-20
-17
-30
-50
-54
-42
-32
-16
-15
-10
-13
-26
-41
-45
-43
-35
-27
-15
-18
-10
-21
-26
-37
-49
-52
-32
-10
-12
-8
-13
-11
-16
-24
-28
-43
-47
-35
-19
-9
-8
-12
-19
-31
-43
-31
-25
-25
-14
-10
-14
-15
-19
-34
-34
-38
-30
-17
-1
5
-9
-13
-23
-39
-45
-34
-25
-18
-9
-5
-14
-17
-20
-37
-38
-37
-30
-23
-7
-8
-9
-19
-24
-24
-32
-36
-31
-24
-25
-22
-20
-15
-31
-30
-37
-43
-37
-18
-16
-13
-12
-17
-32
-33
-38
-31
-29
-14
-7
-11
-8
-21
-31
-48
-53
-46
-40
-27
-19
-9
-5
-21
-36
-52
-54
-45
-35
-13
-8
-12
-12
-13
-26
-33
-36
-48
-55
-15
-3
-5
-17
-24
-36
-37
-40
-38
-33
-19
-14
-16
-19
-15
-12
-38
-38
-38
-28
-24
-18
-13
-26
-25
-31
-37
-36
-34
-25
-8
-3
-7
-13
-20
-39
-37
-37
-30
-23
-18
-3
-3
-7
-9
-28
-34
-28
-17
-9
-2
-4
4
1
-16
-30
-31
-34
-31
-31
-15
-9
-13
-15
-9
-38
-45
-56
-54
-33
-11
-11
-9
-18
-27
-37
-32
-44
-30
-23
-24
-16
-13
-14
-26
-42
-48
-52
-42
-23
-22
-12
-3
-15
-26
-38
-54
-59
-42
-28
-23
-30
-30
-25
-39
-42
-32
-12
5
27
59
70
86
100
112
108
111
104
91
86
72
69
32
-2
-30
-52
-66
-54
-45
-30
-20
-13
-11
-19
-21
-24
-43
-31
-29
-17
-4
-3
-6
-6
-20
-30
-32
-33
-23
-14
-7
-6
-7
-17
-25
-26
-42
-33
-16
-1
-2
-2
0
-14
-23
-24
-20
-21
-19
-2
-2
5
-6
0
-10
-23
-25
-15
-7
3
3
12
3
-5
-10
-11
-10
-14
-23
2
12
11
5
6
-16
-17
-6
5
12
22
24
24
18
12
-2
-1
-2
6
29
43
35
36
25
29
17
8
25
23
32
44
54
48
50
39
29
28
32
32
40
49
45
60
53
47
21
8
14
29
35
45
48
38
34
14
17
11
1
-2
15
17
18
17
9
4
0
-24
-37
-26
4
6
13
13
0
-6
-18
-32
-30
-21
-13
-4
9
1
-16
-37
-44
-33
-23
-14
-2
-1
4
-5
-13
-19
-29
-24
-20
-20
-10
-14
-1
-2
-6
-10
-13
-29
-34
-23
-4
-4
1
-2
-10
-23
-22
-26
-34
-14
-7
-1
6
6
1
-21
-27
-25
-20
-17
7
14
14
3
-21
-21
-28
-30
-19
-11
-4
-1
9
7
-1
-26
-21
-27
-30
-11
10
8
5
-13
-16
-27
-19
-22
-19
-6
8
6
7
-6
-12
-18
-22
-23
-18
-5
-4
4
7
-7
-8
-18
-24
-23
-11
-11
-6
3
7
3
-1
-19
-27
-21
-16
-11
-3
-3
0
-6
-4
-16
-14
-6
-6
-11
-4
-1
6
-5
-19
-35
-32
-25
-12
-6
-7
-2
10
-4
-17
-28
-26
-21
-20
-6
-3
14
-9
-18
-17
-22
-22
-24
-18
5
5
6
7
-8
-13
-20
-17
-21
-21
-8
-4
5
1
3
-11
-7
-8
-8
1
4
11
12
15
7
-15
-17
-28
-20
-5
6
23
17
9
7
-4
-11
-8
-12
-7
7
24
20
12
4
-7
-13
-21
-8
-1
1
1
13
1
-17
-28
-26
-17
-18
-18
1
10
4
-3
-20
-19
-24
-22
-21
-11
-7
-12
-2
6
-5
-19
-26
-32
-22
-7
0
-7
1
-3
-8
-9
-18
-37
-35
-23
-1
3
-2
-13
-26
-13
-11
0
11
33
61
82
110
127
134
132
120
124
114
117
103
87
61
26
-4
-37
-50
-47
-32
-14
1
3
8
-3
-8
-17
-10
-15
-21
-8
17
16
7
-9
-22
-17
-22
-18
-17
1
4
16
6
0
-4
-19
-21
-19
-9
4
6
8
16
13
-3
-11
-10
-5
-2
6
14
19
20
6
-9
-14
-24
-14
-16
10
16
26
23
14
-3
-11
-10
2
3
15
27
24
20
22
-1
-5
6
7
22
31
39
39
32
24
14
8
3
11
26
37
52
42
39
35
32
29
31
35
53
51
53
67
62
48
31
32
38
43
49
66
75
73
72
56
41
30
31
40
43
47
44
46
41
35
24
13
18
24
24
25
23
22
26
11
-12
-13
-13
-6
7
9
8
7
5
-11
-20
-23
-25
-16
-12
6
10
4
-1
-18
-14
-22
-21
-26
-8
-7
-2
1
-11
-11
-22
-38
-26
-21
1
-6
-4
-8
-12
-16
-26
-27
-16
-14
-7
-4
-6
-7
-15
-10
-16
-19
-19
-24
-18
3
8
9
0
-18
-25
-21
-28
-15
-3
4
8
-4
-14
-19
-23
-17
-18
-16
-18
-3
-1
11
1
-14
-26
-23
-15
-10
0
4
4
1
-6
-21
-34
-30
-24
-6
6
1
3
0
-12
-26
-24
-27
-21
-2
3
11
-1
-7
-14
-36
-19
-24
-19
-12
-6
0
1
-2
-16
-26
-22
-22
-17
-10
-15
5
3
-6
-19
-27
-32
-30
-21
-9
-3
-5
2
-7
-10
-27
-30
-25
-14
-3
-7
-1
10
-6
-12
-30
-38
-25
-17
-7
-4
1
0
-6
-22
-26
-24
-26
-22
-10
-4
-2
0
-13
-19
-28
-26
-23
-17
-6
1
5
2
3
-11
-14
-19
-16
-20
-3
6
11
13
10
-14
-14
-18
-13
-4
-1
7
13
5
0
-8
-9
-17
-16
-11
-4
10
5
-4
-22
-30
-32
-27
-24
-9
0
5
7
1
-13
-23
-29
-31
-28
-31
-20
-13
2
-3
-16
-22
-26
-26
-23
-22
-12
-14
-15
-10
-18
-27
-30
-36
-32
-27
-5
-8
-10
-23
-25
-35
-40
-35
-29
-13
12
32
51
57
66
78
93
122
141
146
156
147
134
108
68
27
-5
-32
-42
-35
-21
-18
-9
-28
-25
-25
-33
-29
-23
-7
0
6
5
-10
-27
-27
-30
-26
-15
-9
-5
-3
-6
-9
-17
-19
-23
-16
-13
-10
-7
10
4
-15
-27
-16
-17
-21
-16
-19
5
12
6
-2
-14
-18
-20
-14
-7
14
13
14
13
8
-16
-22
-25
-17
-9
15
17
26
12
0
0
-1
-15
0
8
29
20
24
18
9
2
-6
-4
2
16
29
38
37
35
27
17
13
15
21
33
51
54
55
44
41
34
26
31
40
39
62
71
64
53
53
46
33
31
36
41
58
69
43
35
28
25
17
1
8
20
22
34
40
26
23
-10
-22
-15
-11
-2
21
18
9
-2
-6
-27
-29
-28
-16
-1
9
7
3
-11
-13
-27
-33
-27
-19
-9
-4
3
-3
-11
-27
-31
-28
-31
-28
-18
-10
-8
-6
-5
-18
-33
-21
-21
-22
-14
-6
-11
0
-2
-17
-29
-28
-25
-14
-2
4
6
4
-2
-16
-28
-23
-24
-26
-14
2
-3
-1
-8
-17
-20
-22
-22
-13
-4
-8
-9
-9
-12
-18
-22
-27
-15
-4
0
5
0
1
-3
-14
-28
-26
-26
-18
-6
-10
-11
4
-15
-24
-33
-28
-22
-25
-5
1
3
-11
-18
-25
-33
-36
-27
-20
-10
0
-3
-17
-25
-23
-21
-22
-15
-9
-10
-10
-7
-5
-7
-18
-36
-28
-27
-22
-10
-7
-8
-17
-28
-37
-29
-23
-26
-9
1
-4
-3
-17
-29
-35
-31
-30
-21
-22
-19
-7
-11
-20
-22
-33
-31
-29
-14
-8
-5
-9
-6
-11
-33
-33
-38
-39
-23
-9
-10
-10
-2
-12
-27
-29
-26
-30
-26
-12
-9
-7
3
2
-5
-12
-36
-44
-40
-12
-6
-3
-2
-5
-10
-26
-20
-16
-14
-4
5
9
6
-5
-16
-26
-18
-7
-12
0
-13
-15
-9
-9
-21
-23
-26
-25
-15
-5
-15
-19
-15
-23
-35
-35
-39
-35
-29
-10
-6
-6
-15
-19
-28
-35
-30
-30
-35
-16
-10
-7
-10
-20
-29
-44
-49
-34
-18
-10
-18
-15
-24
-32
-34
-38
-40
-31
-31
-22
-4
9
20
26
28
34
52
87
114
136
147
136
119
81
48
34
15
-5
-12
-23
-28
-27
-33
-44
-45
-42
-45
-24
-11
2
6
-3
-13
-18
-27
-30
-30
-23
-8
2
-11
-5
-8
-23
-38
-39
-23
-13
-2
0
6
3
-5
-17
-34
-29
-18
-11
0
4
0
-5
-9
-17
-21
-26
-18
-13
10
14
1
-4
-1
-14
-32
-28
-12
-7
5
10
16
4
3
-3
-5
-11
-7
-1
3
16
27
18
7
-5
-9
-4
3
6
25
21
30
34
24
5
0
10
17
18
37
47
49
40
39
31
13
19
28
21
42
47
55
51
44
33
37
36
21
23
43
48
49
40
34
16
-5
11
18
33
41
33
14
10
2
-7
-7
-10
-9
3
13
12
9
-8
-20
-24
-22
-26
-23
-8
-6
-7
-9
-8
-16
-20
-32
-33
-24
-16
-9
-6
-13
-19
-29
-37
-30
-34
-38
-24
-6
1
-8
-11
-17
-30
-42
-34
-23
-10
-7
-12
-8
-15
-25
-31
-34
-35
-28
-19
-11
8
-3
-10
-25
-29
-28
-30
-26
-10
-7
-2
-11
-11
-21
-27
-29
-19
-15
4
3
-10
-14
-16
-23
-28
-34
-26
-20
-14
-1
2
-3
-14
-28
-29
-34
-21
-11
-5
-3
-2
-17
-20
-21
-25
-23
-22
-18
-5
-9
1
-1
2
-28
-40
-39
-20
-14
-2
-8
-15
-18
-21
-22
-25
-31
-29
-22
-5
-3
-2
-8
-24
-33
-34
-38
-33
-17
-10
-1
5
-13
-22
-27
-32
-29
-21
-23
-8
-15
-4
-12
-29
-22
-26
-39
-25
-17
-8
-6
-3
-12
-25
-23
-33
-41
-34
-16
-9
-6
-2
-13
-25
-28
-30
-25
-23
-11
-6
2
-3
-12
-14
-30
-36
-32
-24
15
5
2
0
-2
-21
-22
-12
-15
-15
2
6
2
4
0
-33
-32
-23
-17
-25
-9
-5
0
-4
-20
-31
-34
-37
-43
-27
-2
-7
1
-8
-18
-28
-36
-39
-34
-28
-8
-6
-4
-13
-15
-24
-30
-24
-26
-24
-21
-6
-9
-22
-31
-36
-37
-44
-36
-20
-13
-1
-13
-23
-31
-40
-51
-41
-5
13
24
42
55
60
75
86
100
107
106
110
102
95
76
55
21
-12
-35
-42
-40
-28
-22
-10
-4
-5
-9
-28
-29
-27
-30
-19
-9
5
-5
-8
-18
-15
-16
-31
-25
-9
8
5
-9
-9
-17
-24
-27
-34
-19
-1
3
6
1
-2
-13
-16
-17
-24
-15
-18
6
6
11
-21
-33
-15
-16
-21
-13
2
15
21
20
8
-17
-17
-15
-12
-3
2
9
14
13
5
-22
-14
-6
0
8
13
19
15
20
13
3
13
-8
1
12
29
34
34
34
28
16
16
16
28
34
49
44
46
52
39
33
26
27
31
40
52
46
58
59
52
28
16
21
16
33
52
40
47
40
25
6
4
5
5
19
18
24
24
11
-1
-16
-19
-13
-5
3
5
9
16
1
-6
-21
-23
-32
-20
-4
6
1
-3
-4
-24
-33
-49
-43
-25
-18
-3
5
8
-2
-18
-15
-31
-48
-28
-13
-2
-2
-8
-6
-13
-30
-38
-28
-26
-19
-12
-2
5
-2
-19
-20
-26
-26
-16
-9
-7
-1
0
-4
-17
-30
-31
-22
-25
-5
3
7
6
6
-16
-29
-22
-25
-32
-19
-2
-1
-5
-8
-23
-31
-30
-22
-24
-12
5
10
-6
-16
-30
-32
-29
-28
-16
-4
-3
-1
4
-2
-29
-32
-35
-22
-8
-6
2
1
-7
-12
-23
-24
-35
-37
-19
-8
0
-6
-8
-14
-23
-36
-35
-24
-21
-8
-7
-10
-6
-12
-23
-19
-24
-23
-20
-9
-2
2
-11
-27
-35
-30
-32
-18
-8
-3
0
-14
-13
-17
-30
-32
-21
-20
-15
-12
-4
-4
-16
-27
-31
-34
-32
-23
-12
-2
-1
-4
-5
-10
-22
-30
-24
-14
3
-2
1
0
-15
-12
-14
-24
-9
-14
2
-5
0
9
-2
-10
-14
-17
-15
-10
-2
11
13
8
-7
-25
-20
-30
-33
-24
-12
-5
3
0
-18
-22
-25
-32
-31
-23
-7
-8
-5
-1
-17
-18
-26
-20
-32
-33
-10
-10
-12
-12
-16
-24
-25
-35
-37
-22
-20
-7
-2
-6
-19
-26
-39
-29
-31
-23
-13
-7
-12
-19
-31
-38
-36
-21
4
18
52
61
82
91
110
115
129
124
105
106
110
85
68
36
0
-29
-45
-46
-38
-34
-8
-2
-1
-8
-10
-20
-31
-36
-21
-15
-5
3
4
-6
-16
-14
-23
-12
-10
-13
-4
1
3
-5
-7
-7
-28
-16
-20
-4
-9
0
5
2
-8
-22
-23
-20
-11
-2
4
9
12
7
-1
-15
-16
-25
-14
-4
10
14
13
1
-14
-9
-16
-15
-5
11
17
19
17
14
1
5
10
-8
-4
10
14
24
34
19
5
6
7
10
22
32
46
61
43
34
28
30
20
20
28
42
50
50
48
46
34
34
34
50
45
52
58
60
51
41
27
20
34
37
42
44
42
50
42
39
19
13
6
1
1
15
25
15
23
7
-3
-13
-6
-10
-2
8
7
2
-2
-4
-13
-29
-39
-25
-18
-14
3
-1
-9
-2
-16
-16
-26
-29
-23
-6
3
4
-13
-23
-23
-42
-40
-22
-15
2
16
-7
-10
-25
-26
-29
-34
-34
-20
1
8
0
-6
-19
-14
-26
-27
-24
-20
2
10
-2
-9
-16
-21
-13
-32
-23
-8
5
15
5
-4
-17
-18
-21
-32
-17
-1
6
-4
-4
-14
-23
-18
-20
-26
-29
-9
-5
-4
6
-1
-24
-34
-34
-19
-6
1
3
3
1
0
-21
-22
-29
-30
-14
-9
-2
-7
-6
-16
-28
-24
-20
-17
-24
-10
3
-4
-11
-16
-29
-28
-31
-29
-25
-7
1
0
-1
-6
-23
-23
-36
-31
-22
-12
3
11
-10
-10
-21
-26
-36
-28
-18
-12
-11
-4
-7
-9
-40
-38
-31
-31
-20
-4
-1
2
-15
-11
-21
-33
-30
-28
-19
-6
-2
-2
-17
-22
-33
-29
-25
-22
-17
-4
-3
-3
-7
-17
-35
-27
-27
-19
-9
-9
-6
3
3
-13
-21
-28
-14
-7
0
15
15
12
-1
-10
-18
-16
-18
-12
1
12
10
9
-3
-17
-21
-21
-37
-31
-11
-1
-5
-3
-4
-16
-37
-29
-30
-26
-16
-4
3
-7
-13
-27
-31
-34
-24
-29
-16
-13
-2
-7
-22
-32
-34
-29
-25
-20
-23
-23
-10
-14
-12
-28
-36
-38
-35
-37
-28
-30
-16
-13
-19
-26
-20
-4
11
33
61
79
101
120
140
149
133
113
108
113
108
89
52
17
-18
-45
-47
-45
-38
-27
-18
-7
0
-2
-15
-21
-24
-26
-18
-13
0
0
-16
-7
-7
-23
-32
-33
-22
-21
1
13
7
2
-14
-26
-27
-17
-10
-16
-20
-7
-1
4
-3
-18
-21
-23
-16
3
5
14
10
-5
-14
-31
-30
-11
-11
-1
8
16
3
13
-13
-9
-11
-5
5
25
32
7
11
11
2
-15
-12
-13
-27
2
31
42
26
-4
-3
18
4
5
20
29
49
45
0
41
40
26
14
21
39
47
57
65
60
50
23
7
25
31
33
41
71
65
56
48
37
32
23
7
15
46
51
55
42
35
20
4
-5
0
17
16
20
17
14
-1
-14
-20
-20
-22
-8
2
2
-5
-8
-9
-32
-40
-28
-26
-15
-12
-13
-6
-15
-19
-31
-33
-37
-20
-21
-12
-4
-13
-7
-21
-32
-36
-38
-24
-11
-3
-2
-10
-13
-14
-30
-37
-26
-28
-21
-22
-17
3
0
-17
-40
-30
-29
-26
-10
-8
-7
2
-7
-15
-34
-31
-31
-18
-6
0
-1
-8
-13
-25
-30
-38
-32
-23
-6
8
6
-1
-1
-18
-31
-36
-37
-28
-17
-3
2
-1
-14
-21
-22
-26
-21
-17
-5
-4
2
-16
-14
-30
-30
-27
-32
-17
-7
-3
0
-6
-17
-26
-27
-36
-35
-20
-6
5
0
-5
-8
-20
-30
-31
-29
-25
-10
5
6
-12
-13
-28
-28
-37
-31
-13
-23
-18
-5
-5
-9
-24
-37
-34
-34
-17
-8
-2
-5
-12
-17
-29
-22
-24
-20
-23
-27
-10
1
-8
-17
-29
-30
-32
-26
-15
-12
-3
0
-13
-20
-31
-45
-44
-34
-19
-8
-2
-2
-12
-18
-31
-32
-31
-20
-19
-2
11
-4
-13
-24
-21
-27
-23
-18
-10
6
15
7
-6
-24
-22
-23
-27
-12
-2
7
11
2
-1
-8
-22
-33
-10
-7
0
10
17
8
-2
-17
-17
-30
-25
-18
-6
-3
-9
-14
-20
-15
-25
-39
-32
-18
-10
-11
-7
-6
-20
-23
-35
-29
-17
-21
-2
-14
-16
-10
-16
-30
-42
-38
-41
-24
7
-4
-21
-9
-17
-36
-37
-30
-34
-30
-23
-13
-9
-8
-29
-39
-29
-23
4
14
45
74
78
94
118
134
136
145
129
130
123
104
83
52
9
-17
-52
-62
-38
-12
-15
-12
-4
-4
-21
-24
-17
-25
-16
-15
-16
-13
-4
-15
-20
-21
-18
-17
-11
-15
-5
-5
-1
-5
-14
-21
-22
-28
-13
-7
0
4
8
3
-7
-19
-18
-17
-13
3
10
14
7
0
-17
-12
-18
-14
-16
-1
10
17
15
6
-7
-10
-9
-6
2
3
8
25
9
-1
-2
-7
-9
-2
3
15
27
26
24
25
18
10
9
12
25
42
49
49
43
33
25
21
18
34
37
46
55
59
59
55
45
37
35
46
48
57
60
58
56
49
43
35
39
30
32
56
52
51
45
33
26
15
13
9
19
25
33
27
18
11
-11
-11
-3
-7
-2
-2
4
16
8
-5
-18
-25
-26
-22
-11
10
7
3
-4
-10
-22
-24
-24
-22
-18
-5
0
-2
-3
-22
-27
-24
-19
-13
-6
-9
-23
-1
-3
-9
-16
-25
-29
-32
-20
-4
4
8
-4
-17
-24
-26
-21
-17
-9
-6
1
13
-3
-16
-14
-18
-24
-23
-8
-2
-1
-2
-11
-21
-22
-22
-26
-20
0
11
4
5
-6
-18
-23
-27
-15
-10
-9
-16
-5
1
-4
-22
-29
-28
-24
-17
-9
3
13
1
-25
-31
-35
-36
-28
-15
3
-2
-1
-12
-17
-25
-19
-26
-23
-21
-11
-2
-9
-17
-6
-19
-21
-28
-21
-18
-6
10
2
0
-20
-35
-45
-36
-40
-37
1
5
2
4
-15
-32
-27
-25
-16
-20
-14
-14
-8
-16
-30
-26
-21
-26
-23
-13
-1
2
0
-3
-18
-31
-27
-28
-18
-11
1
10
-8
-15
-34
-41
-28
-29
-24
-17
-15
-7
0
-13
-22
-24
-33
-31
-14
-20
-3
3
5
1
-13
-26
-37
-17
-2
0
-17
1
-1
-5
-6
-18
-15
-19
-17
7
16
23
12
-2
-19
-18
-25
-27
-17
-9
3
2
-16
-12
-26
-39
-28
-20
-16
-5
-11
-11
-4
-17
-17
-32
-35
-34
-22
-12
-16
-17
-17
-10
-24
-21
-38
-40
-21
-14
-13
-4
-16
-18
-31
-38
-33
-22
-19
-14
-16
-18
-21
-26
-33
-41
-38
-27
-33
3
27
24
34
50
48
59
87
116
124
139
141
125
98
85
51
28
8
-26
-37
-28
-16
-23
-32
-29
-36
-32
-29
-19
-13
-11
4
1
-9
-15
-26
-38
-29
-18
1
6
4
-7
-9
-14
-21
-29
-25
-22
-7
0
9
4
-4
-27
-26
-28
-26
-13
0
3
5
17
1
-14
-20
-22
-11
-8
2
9
16
14
1
-11
-14
-19
-21
-13
5
18
25
14
5
2
-8
-11
1
8
18
17
12
13
6
-1
2
7
1
11
27
36
40
37
29
19
20
13
9
19
43
54
58
54
46
34
26
24
32
39
51
62
60
60
58
36
35
30
30
41
45
52
46
49
35
30
24
8
8
23
23
33
37
23
15
-1
-10
-16
-8
3
22
6
8
14
-2
-29
-15
-8
-5
-18
-15
14
2
-14
-17
-19
-21
-24
-30
-22
3
-3
4
-11
-28
-24
-36
-33
-18
-21
-6
-4
5
-2
-23
-31
-39
-22
-6
-9
13
1
4
-3
-22
-29
-37
-29
-19
-12
-2
-7
2
2
-8
-19
-21
-29
-18
-9
2
2
-5
-15
-20
-22
-34
-20
-9
0
6
18
14
-12
-24
-37
-29
-21
-28
-6
13
1
-1
-1
-10
-28
-47
-35
-10
1
16
-3
-4
-9
-21
-28
-35
-28
-18
-3
2
7
7
-4
-18
-19
-30
-27
-31
-11
-10
-4
-6
-11
-23
-31
-33
-21
-13
-3
4
-10
-9
-22
-23
-31
-39
-19
-14
-6
-5
0
-12
-25
-27
-26
-22
-25
-16
-12
-9
-18
-18
-14
-26
-28
-25
-21
-15
-5
8
-4
-10
-20
-24
-36
-33
-21
-19
-3
-6
-4
4
-12
-34
-34
-37
-21
-11
5
0
2
-7
-19
-20
-21
-37
-8
-7
-1
2
-2
-6
-24
-20
-20
-14
-8
2
9
10
19
0
-13
-10
-16
-30
-14
6
12
7
4
-3
-7
-20
-34
-30
-22
-10
-1
-4
-4
-12
-22
-33
-44
-38
-21
-3
0
-4
-10
-3
-14
-22
-36
-24
-27
-16
-13
-9
-17
-13
-25
-38
-33
-29
-33
-12
3
-1
1
-17
-35
-43
-55
-46
-27
-10
-9
-25
-21
-16
-10
-5
2
21
43
69
94
116
143
154
129
128
117
96
72
76
58
33
9
-30
-45
-38
-40
-35
-37
-10
0
4
-8
-14
-22
-26
-28
-14
-10
-3
4
11
-8
-31
-35
-35
-26
-21
-17
-11
3
7
-8
-22
-30
-29
-21
-12
0
8
18
10
-2
-5
-21
-19
-17
-12
-5
12
9
-7
-7
-7
-9
-15
-24
-6
11
12
5
5
-8
-7
-13
-14
-12
1
3
-3
10
26
18
9
-5
5
3
0
18
27
35
25
25
14
10
-2
10
21
29
35
44
39
39
28
26
20
29
39
58
54
53
58
49
38
40
26
31
36
41
53
65
61
43
31
17
30
36
39
52
47
42
21
25
10
4
-11
0
8
20
34
20
9
3
-7
-18
-35
-20
-14
-9
4
9
-5
-14
-24
-42
-35
-18
-19
-9
-6
-1
-2
-18
-37
-36
-26
-37
-22
-4
-1
-6
-2
-21
-30
-36
-32
-29
-18
-16
-12
5
-12
-28
-36
-36
-46
-18
-23
-13
-3
-1
-6
-17
-31
-36
-35
-29
-8
6
2
-2
-1
-27
-35
-24
-20
-26
-22
0
-2
-8
-16
-23
-27
-32
-35
-22
4
1
3
-6
3
-14
-30
-37
-37
-16
-11
-20
4
-5
-18
-29
-47
-28
-26
-27
-6
-8
-2
-4
-4
-25
-27
-32
-30
-27
-25
-9
-1
5
-7
-29
-33
-38
-22
-20
-4
-3
-12
-6
-6
-28
-28
-29
-21
-23
-24
2
-8
-11
-18
-31
-34
-33
-18
-20
3
-9
-3
-12
-34
-38
-34
-36
-15
-30
-18
7
-5
-7
-15
-34
-32
-32
-29
-17
-10
-9
-12
-14
-21
-29
-32
-37
-43
-24
13
5
-4
-13
-13
-12
-33
-37
-20
-11
-5
-2
-12
-3
-18
-21
-19
-27
-3
2
9
8
-7
-5
-18
-21
-15
-18
0
8
9
0
-2
2
-20
-35
-33
-28
-18
-8
-13
-13
-26
-23
-36
-47
-26
-28
-26
-16
-9
-9
-22
-20
-20
-28
-42
-43
-34
-25
-11
1
-16
-27
-32
-36
-33
-25
-31
-25
-6
-5
-29
-30
-36
-40
-43
-43
-37
-31
-29
-14
-5
-3
-3
4
18
40
51
89
129
152
160
150
147
132
109
82
62
46
18
6
-10
-31
-52
-56
-51
-30
-31
-12
-3
-3
-14
-25
-25
-33
-26
-24
-22
-6
-4
-6
-16
-24
-26
-27
-27
-17
-14
-10
-4
-11
-18
-18
-23
-26
-33
-24
-23
1
5
7
3
-7
-19
-39
-29
-6
-20
-9
8
6
-3
-9
-11
-19
-16
-12
-11
-1
10
14
1
0
-16
-16
-17
-18
3
12
22
17
12
8
-11
-10
-13
2
10
28
39
32
19
11
7
7
17
20
31
33
42
46
38
32
21
29
33
47
43
51
59
46
40
30
34
31
31
43
50
53
59
40
41
20
23
22
29
24
31
46
50
38
17
-5
7
-5
7
2
4
-1
21
24
4
-14
-15
-30
-25
-15
-2
-3
-5
-13
-13
-17
-18
-38
-41
-23
-5
5
7
2
-13
-25
-38
-39
-31
-20
-14
-5
1
1
-20
-35
-40
-42
-16
-15
-3
-6
-4
-11
-22
-33
-44
-35
-38
-20
-2
3
-5
-10
-15
-29
-33
-33
-22
-14
-16
-12
-5
-10
-16
-35
-36
-24
-20
-10
-2
4
-2
-15
-16
-22
-29
-32
-23
-19
-5
-4
-8
-10
-27
-45
-38
-29
-21
-9
-1
4
2
-10
-18
-29
-27
-27
-23
-23
-17
-11
-6
-15
-26
-32
-39
-33
-14
-10
-7
-12
-7
-24
-33
-28
-34
-40
-23
-8
2
-14
0
2
-33
-42
-37
-30
-28
-15
-6
3
-16
-28
-22
-33
-29
-30
-32
-17
-13
-4
-7
-11
-25
-26
-33
-31
-30
-20
-7
-5
-14
-23
-26
-35
-33
-35
-25
-22
-20
-18
-9
-12
-29
-33
-32
-27
-13
-3
1
5
-6
-13
-26
-43
-26
-18
-2
7
5
0
-5
-15
-10
-18
-13
-11
-5
-2
1
1
-2
-12
-23
-32
-30
-30
-22
-15
-12
-10
-15
-24
-25
-31
-39
-30
-29
-19
-9
-11
-19
-33
-36
-34
-35
-28
-19
-12
-3
-13
-18
-18
-40
-45
-36
-27
-25
-16
-14
-15
-12
-42
-38
-43
-44
-39
-29
-11
-12
-21
-26
-34
-42
-39
-17
7
31
53
68
89
114
118
108
109
109
103
93
81
71
47
0
-35
-53
-56
-62
-49
-34
-26
-13
-8
-14
-21
-27
-35
-27
-27
-3
-2
-12
-16
-24
-29
-29
-31
-22
-26
-18
-5
4
3
-5
-28
-31
-34
-26
-14
-7
-1
-6
-7
-18
-22
-35
-36
-19
-18
-6
6
21
8
-24
-40
-29
-20
-21
-8
-5
1
10
8
-5
-17
-19
-16
-12
-2
14
10
6
3
2
0
-17
-11
-3
8
13
23
18
23
6
-1
-1
-3
14
28
33
37
45
36
20
5
6
11
26
37
41
46
50
46
30
32
28
21
30
46
54
62
56
38
15
3
16
23
45
52
40
35
35
28
21
1
-9
-3
6
18
20
22
17
5
-19
-23
-20
-17
-15
-2
2
7
-1
3
-27
-31
-38
-23
-21
-20
-21
-6
-3
-16
-22
-28
-25
-28
-20
-8
-23
-9
-13
-28
-35
-38
-31
-23
-17
-8
-12
-17
-18
-12
-27
-39
-44
-31
-24
-5
6
1
-11
-23
-24
-34
-37
-26
-18
-6
-6
-9
-7
-20
-22
-28
-41
-28
-18
-7
6
-7
-16
-20
-39
-35
-19
-20
-20
-3
-2
-7
-16
-31
-26
-38
-34
-12
-12
-10
-1
-1
-10
-17
-36
-37
-41
-24
-1
-7
-2
-2
-14
-17
-21
-34
-39
-36
-18
6
-3
-7
-4
-25
-30
-22
-15
-22
-23
-10
-3
-6
-17
-21
-25
-29
-15
-25
-23
-7
-11
-18
-16
-31
-38
-29
-26
-24
-13
-8
-5
-4
-17
-36
-30
-30
-27
-17
-7
-7
-2
-5
-18
-31
-41
-41
-34
-18
1
9
8
-14
-21
-26
-23
-20
-15
-11
-1
-2
-1
-6
-17
-25
-21
-29
-22
-12
15
16
19
8
-6
-19
-23
-23
-21
-14
0
14
12
-9
-11
-27
-40
-55
-26
-17
-6
-1
-1
-6
-14
-27
-33
-33
-24
-11
-13
-12
-7
-17
-30
-29
-38
-33
-21
-19
-5
0
-19
-17
-18
-41
-40
-29
-25
-15
-17
-12
-10
-10
-21
-37
-49
-49
-39
-23
-25
-18
5
7
7
8
19
32
54
93
120
139
141
132
100
84
75
62
53
45
25
-3
-34
-36
-46
-37
-32
-33
-28
-2
2
4
-5
-12
-17
-25
-37
-30
-16
1
10
4
-12
-11
-20
-26
-35
-27
-14
-2
1
5
2
-5
-25
-37
-40
-31
-15
2
0
6
1
-3
-16
-18
-23
-23
-12
8
9
15
4
-9
-26
-19
-12
-2
5
3
10
10
-3
-1
-10
-10
-3
2
17
14
20
25
15
0
-12
-11
-11
8
27
35
37
39
31
14
8
3
13
14
32
45
52
46
31
41
19
13
27
40
49
56
58
57
56
44
41
35
28
27
38
47
59
59
49
34
22
18
17
16
32
43
34
17
24
18
3
1
-5
-7
4
15
6
9
7
-3
-14
-16
-14
-11
2
-2
-3
18
-1
-30
-18
-36
-27
-11
-4
-2
-5
-11
-3
-5
-7
-25
-36
-35
-12
-15
-8
-3
-8
-29
-35
-28
-27
-15
-8
-3
-1
-11
-12
-20
-24
-26
-28
-29
-20
-3
2
4
-13
-21
-24
-22
-27
-25
-9
0
-7
-5
-13
-16
-33
-36
-20
-7
-2
3
6
1
2
-25
-30
-30
-29
-9
2
3
10
-2
-20
-28
-29
-23
-31
-15
-3
4
3
-10
-13
-24
-39
-38
-27
-9
-2
10
4
-7
-18
-34
-34
-34
-27
-19
-5
-14
-6
-3
-15
-31
-40
-24
-13
-14
-17
-2
-2
-11
-20
-29
-35
-19
-7
-5
-4
1
1
-9
-15
-25
-32
-33
-28
-16
-4
-2
2
-3
-7
-29
-33
-34
-26
-15
-8
-5
-5
-7
-14
-17
-25
-19
-9
-5
0
10
8
2
-12
-28
-32
-12
-4
11
-6
7
3
3
-11
-18
-19
-17
-8
2
-1
-6
-6
-5
-19
-31
-36
-29
-22
-7
2
2
-12
-11
-19
-28
-30
-23
-15
-10
-16
-11
-5
-19
-32
-37
-30
-15
-10
-18
-11
-5
-6
-24
-27
-23
-23
-21
-20
-8
1
9
12
-14
-36
-45
-50
-45
-29
-19
4
13
13
14
14
28
37
72
105
130
153
153
134
107
90
68
50
40
26
17
-6
-22
-18
-24
-28
-33
-26
-23
-12
2
10
18
2
-17
-11
-29
-26
-26
-19
-8
2
9
4
-14
-24
-28
-24
-16
2
18
13
10
-6
-13
-32
-27
-15
6
13
10
7
-5
-3
-16
-20
-22
-8
-2
7
10
15
1
-1
-9
-6
-14
-4
3
19
26
23
18
11
-4
-13
-7
-6
18
32
25
16
28
20
13
-3
-4
7
18
38
27
29
37
32
12
11
29
35
39
52
53
52
50
49
29
28
33
36
49
65
75
76
57
49
47
41
32
35
40
58
63
64
52
46
35
34
31
36
42
48
42
35
31
25
7
-1
-8
0
11
24
29
24
9
2
-6
-7
-12
-16
0
8
13
12
1
-17
-19
-20
-20
-16
-7
9
3
4
-3
-13
-18
-27
-20
-16
-6
6
9
12
-3
-27
-29
-29
-28
-28
-1
8
7
6
-1
-7
-18
-16
-19
-5
19
4
-5
-8
-6
-13
-18
-22
-18
-8
7
3
14
8
-2
-16
-22
-20
-12
-8
-3
12
3
-1
-6
-8
-14
-3
-10
-20
-3
-3
4
1
-15
-21
-28
-21
-15
-6
5
19
22
-3
-10
-17
-19
-12
-17
-7
-1
0
-1
0
0
-11
-21
-21
-21
-20
-10
-4
8
5
-3
-13
-32
-29
-12
-6
9
13
15
7
-13
-16
-30
-30
-17
-14
-4
8
13
3
-9
-22
-40
-22
-11
3
4
5
1
-8
-23
-27
-12
-25
-16
-13
-6
0
9
-10
-20
-22
-22
-25
-22
-9
5
13
8
8
2
-9
-25
-24
1
-4
8
19
10
5
1
-2
-11
-19
-5
19
21
19
9
4
-16
-28
-19
3
2
-5
6
-1
6
-8
-16
-19
-28
-24
-13
-9
13
14
-13
-13
-33
-32
-19
-23
-14
3
6
3
-4
-6
-19
-19
-25
-31
-18
-2
10
4
-2
-5
-20
-30
-31
-24
-16
-11
-8
1
-7
-20
-35
-30
-43
-32
0
26
43
57
66
82
90
104
108
122
127
128
116
101
78
63
29
-12
-58
-59
-42
-11
-3
-1
-10
-17
-25
-27
-19
-7
-3
-2
11
11
12
-4
-22
-19
-24
-17
-8
12
8
11
0
7
-6
-26
-4
-12
-7
7
5
8
-1
-3
-13
-23
-15
0
5
14
17
12
7
6
3
-10
-10
0
8
16
14
18
4
3
-2
-8
4
12
18
16
25
27
23
1
-18
0
8
7
25
30
36
27
26
18
8
2
3
4
33
50
56
39
36
32
24
26
27
38
49
60
74
61
46
34
30
34
35
46
63
65
74
67
57
38
23
17
20
38
49
51
51
43
37
21
12
15
14
14
30
36
27
13
10
-15
-17
-4
3
5
12
16
15
13
-1
-12
-10
-24
-8
0
12
21
10
-2
-15
-24
-25
-24
-14
-7
6
13
7
1
-10
-21
-24
-11
-5
5
-7
1
4
-2
-21
-26
-20
-25
-22
-5
20
17
15
2
-3
-19
-17
-17
-6
0
14
11
17
-3
-10
-20
-22
-22
-15
-6
12
16
12
6
-5
-15
-18
-12
-3
7
10
15
8
-6
-14
-25
-18
-15
-2
8
17
14
4
-7
-15
-20
-20
-13
-10
9
4
3
3
1
-9
-23
-14
-11
-5
1
14
17
4
