27
12
-17
-47
-67
-61
-22
18
81
133
157
172
163
128
110
108
126
159
157
101
74
57
12
-31
-70
-67
-59
-16
33
31
1
25
-13
-37
-73
-63
-47
-3
27
33
32
23
-21
-44
-63
-71
-63
-44
13
46
43
33
-25
-53
-59
-63
-69
-27
19
38
28
4
-13
-51
-79
-68
-63
-5
14
37
41
14
-8
-54
-67
-50
-46
-6
33
37
29
19
-17
-56
-69
-57
-58
-8
26
36
45
21
-22
-68
-64
-42
-32
5
33
46
42
34
-15
-54
-63
-43
-28
8
43
34
20
27
6
-44
-56
-47
-23
-1
37
67
53
36
2
-35
-45
-40
-7
26
59
57
47
46
2
-30
-36
-15
4
46
72
82
67
42
1
-23
-17
-17
10
34
83
86
68
47
15
-19
-31
-22
27
47
64
90
60
10
-35
-35
-40
-28
0
34
59
52
38
8
-32
-60
-62
-50
-27
26
49
36
22
-6
-55
-69
-71
-63
-34
23
44
33
12
-21
-54
-69
-72
-73
-33
20
38
31
21
-15
-50
-58
-66
-64
-35
14
45
38
25
-22
-58
-74
-67
-58
-19
19
19
16
13
-21
-70
-56
-41
-42
-5
19
33
24
1
-43
-61
-73
-61
-54
-2
34
31
30
20
-20
-67
-69
-53
-49
-3
19
41
21
0
-35
-69
-77
-61
-40
-5
2
13
12
19
-30
-65
-75
-70
-37
10
19
21
20
12
-36
-63
-72
-59
-29
4
36
21
9
8
-31
-62
-74
-57
-27
9
32
26
17
-5
-31
-58
-83
-63
-30
-2
38
37
-2
5
-48
-69
-65
-53
-32
9
37
34
12
-11
-44
-62
-65
-72
-29
22
25
38
32
-10
-54
-73
-70
-60
-12
11
37
27
16
-26
-47
-66
-64
-59
-22
17
39
17
16
-14
-47
-74
-58
-55
-19
10
34
28
19
-27
-53
-68
-49
-38
-3
28
39
32
27
-25
-49
-69
-52
-51
-10
25
48
44
20
-32
-59
-68
-69
-49
-14
13
36
20
-12
-36
-60
-67
-63
-45
-17
15
17
16
1
-33
-68
-73
-82
-59
-5
17
26
5
2
-26
-82
-95
-79
-30
1
20
19
15
7
-42
-68
-82
-64
-40
-6
6
-5
-6
-6
-64
-74
-59
-19
16
75
138
167
175
161
123
101
101
109
128
114
73
52
29
-2
-42
-75
-76
-83
-35
31
42
45
34
-2
-45
-66
-77
-72
-36
5
31
26
29
-5
-51
-77
-62
-62
-27
11
30
21
8
-18
-61
-81
-73
-63
-32
-3
11
21
20
-4
-43
-66
-51
-52
-18
1
21
34
26
-11
-46
-83
-69
-47
-16
13
27
21
11
-15
-46
-58
-53
-65
-13
30
40
25
14
-35
-73
-80
-72
-47
-4
40
49
42
22
-22
-63
-65
-51
-59
17
52
52
37
24
-9
-45
-53
-44
-27
4
27
55
46
27
-4
-39
-43
-29
-8
33
59
69
53
33
4
-39
-29
-19
-16
41
80
79
69
45
7
-11
-18
-19
-5
81
90
84
65
48
4
-8
-19
-11
12
44
70
65
60
26
-17
-43
-52
-45
-2
31
46
43
18
4
-55
-61
-50
-47
-14
22
36
22
20
-5
-53
-63
-58
-74
-45
15
23
39
9
-15
-63
-79
-59
-59
-28
5
23
25
21
-26
-52
-69
-75
-64
-19
13
26
16
8
-36
-59
-86
-62
-67
-34
11
27
10
15
-29
-55
-77
-87
-71
-10
5
16
28
9
-20
-54
-85
-80
-70
-16
21
29
19
3
-26
-69
-85
-74
-59
-14
14
14
19
8
-50
-72
-59
-68
-51
-18
21
47
20
-7
-36
-69
-81
-73
-46
3
29
31
18
1
-49
-80
-76
-77
-62
-2
30
40
24
9
-28
-72
-78
-63
-40
-5
17
-3
22
-8
-30
-61
-79
-70
-40
3
32
18
7
0
-44
-66
-62
-62
-41
-1
32
39
20
-13
-56
-68
-82
-58
-24
7
22
28
16
-11
-48
-71
-75
-65
-34
22
48
19
16
-18
-63
-72
-74
-60
-26
2
12
18
25
-13
-44
-79
-76
-75
-22
25
31
18
18
-13
-50
-75
-70
-58
-27
13
35
24
1
-24
-51
-69
-59
-48
-16
19
36
30
24
-16
-43
-70
-71
-50
4
32
33
35
15
-27
-54
-52
-59
-42
2
30
31
32
19
-30
-76
-80
-54
-36
0
2
23
16
1
-41
-68
-83
-70
-56
-14
15
17
7
-4
-44
-81
-70
-69
-41
-6
18
35
28
0
-32
-85
-94
-66
-39
1
26
8
6
-4
-42
-72
-76
-56
-37
-13
4
3
-10
-30
-55
-67
-45
-18
21
96
149
189
182
173
135
113
94
99
126
123
88
70
49
4
-45
-97
-70
-38
-15
24
38
33
24
-5
-47
-72
-77
-67
-27
-1
21
19
8
-18
-60
-76
-76
-56
-12
18
37
30
15
-27
-79
-81
-76
-65
-24
15
24
15
22
-6
-62
-70
-88
-63
-17
16
39
34
10
-15
-55
-73
-69
-62
-25
23
32
20
26
-23
-64
-88
-82
-57
-5
20
29
29
18
-25
-51
-61
-57
-44
-2
16
39
24
30
-28
-64
-74
-70
-35
18
29
35
35
18
-18
-50
-58
-52
-31
11
42
35
36
17
-17
-58
-49
-33
-9
22
54
51
35
24
-3
-39
-25
-20
-5
42
72
60
54
38
0
-15
-34
-31
3
51
57
48
78
55
3
-21
-23
-22
-3
39
58
56
43
26
-17
-37
-45
-42
-9
32
40
31
16
4
-31
-61
-59
-53
-21
3
16
27
10
-29
-72
-68
-76
-66
-26
7
46
22
19
-16
-67
-77
-57
-49
-26
4
20
24
12
-24
-60
-79
-65
-54
-26
5
28
24
7
-22
-63
-80
-73
-63
-33
-6
25
30
16
-28
-57
-78
-77
-60
-23
11
32
34
14
-34
-72
-82
-73
-59
-20
22
18
15
16
-39
-69
-83
-76
-46
-10
10
17
11
14
-24
-84
-92
-83
-49
-8
8
25
17
8
-41
-78
-86
-83
-58
-9
17
23
11
-5
-59
-93
-91
-59
-21
4
21
12
16
-5
-45
-77
-95
-70
-58
-18
3
40
16
-13
-55
-68
-71
-61
-50
-10
24
30
5
-29
-54
-88
-74
-72
-48
7
33
15
6
-21
-62
-70
-80
-69
-51
3
18
20
0
-32
-77
-99
-97
-53
-7
14
26
21
12
-21
-66
-98
-92
-75
-44
17
37
19
12
-24
-63
-81
-79
-77
-45
1
15
5
10
-19
-71
-77
-88
-70
-31
-5
12
8
-1
-39
-74
-80
-79
-62
-9
14
15
32
28
-22
-63
-69
-66
-68
-14
16
27
11
-5
-25
-61
-75
-51
-46
-7
14
33
22
-1
-36
-81
-92
-80
-68
-34
12
26
1
-7
-38
-80
-85
-76
-66
-25
1
4
-2
7
-38
-85
-100
-86
-63
-23
11
18
7
-11
-56
-91
-83
-82
-67
-24
14
21
12
-14
-50
-84
-96
-93
-70
-32
-9
-9
-14
-30
-48
-44
-29
2
44
107
187
193
187
172
135
109
101
97
74
66
48
43
30
-5
-50
-74
-69
-70
-44
-4
17
28
3
-19
-46
-68
-82
-69
-38
-7
17
31
27
-16
-52
-84
-82
-66
-25
3
33
18
7
-20
-71
-89
-72
-60
-22
8
19
24
17
-21
-69
-88
-76
-76
-25
10
24
24
3
-34
-68
-79
-68
-66
-21
20
33
14
-2
-40
-66
-79
-78
-71
-16
20
30
5
8
-24
-61
-73
-71
-47
-12
17
28
24
1
-36
-73
-78
-71
-53
-15
21
19
26
6
-43
-48
-58
-57
-27
14
39
34
36
14
-30
-61
-63
-47
-33
15
49
66
38
20
-17
-41
-42
-40
-14
33
56
58
48
27
-6
-33
-46
-40
5
44
63
56
36
35
6
-52
-52
-23
-8
22
47
38
44
18
-42
-68
-58
-43
-30
3
26
29
18
-17
-61
-90
-87
-71
-39
-6
14
-1
-5
-27
-77
-100
-83
-74
-39
-8
10
3
-3
-41
-81
-92
-103
-85
-54
2
16
-3
-4
-41
-82
-114
-104
-89
-40
-3
20
17
-8
-60
-88
-100
-88
-77
-43
4
7
0
-11
-55
-85
-100
-95
-82
-36
-12
6
1
-5
-53
-80
-99
-93
-62
-27
-4
8
-7
-14
-68
-103
-103
-88
-79
-32
-9
0
2
-15
-60
-78
-99
-98
-75
-20
7
14
-2
-20
-82
-124
-96
-81
-61
-20
8
9
-4
-26
-67
-102
-101
-83
-67
-30
-7
0
-12
-30
-67
-101
-105
-95
-69
-26
-8
-12
-20
-25
-74
-111
-94
-84
-63
-26
-8
-3
-10
-35
-82
-118
-119
-111
-68
-19
11
9
1
-25
-84
-112
-110
-84
-47
-20
-3
1
-20
-49
-88
-96
-100
-89
-52
-17
-2
-5
-16
-33
-90
-108
-101
-88
-56
-13
5
-5
-11
-48
-96
-104
-122
-105
-68
-37
-1
7
-3
-56
-91
-105
-103
-86
-42
-5
-6
-11
-21
-61
-90
-109
-109
-93
-46
-15
-8
-5
-10
-42
-96
-98
-80
-78
-41
-11
0
-14
-17
-44
-83
-96
-99
-76
-26
3
14
0
-24
-67
-94
-113
-109
-75
-30
-6
-8
-7
-21
-62
-94
-111
-88
-87
-46
-15
-4
-17
-29
-87
-99
-108
-105
-87
-49
-11
-6
-29
-34
-67
-106
-112
-109
-79
-48
-24
-20
-26
-30
-90
-118
-119
-108
-87
-52
-17
-8
-27
-54
-89
-113
-104
-107
-96
-55
-37
-27
-33
-42
-76
-69
-35
7
59
120
160
166
158
130
106
79
54
4
7
16
19
5
-19
-46
-91
-92
-88
-92
-60
-24
-8
-22
-18
-48
-81
-112
-103
-103
-58
-25
-12
-12
-19
-60
-100
-117
-123
-104
-55
-21
-5
-24
-40
-70
-104
-112
-113
-105
-63
-21
16
11
-25
-87
-122
-121
-116
-103
-59
-33
-3
-10
-9
-67
-105
-107
-104
-96
-65
-27
-21
-25
-41
-80
-98
-117
-109
-88
-42
-10
-11
-26
-35
-71
-111
-125
-101
-64
-48
-9
-7
-26
-45
-86
-113
-104
-93
-102
-51
13
12
-1
-52
-81
-112
-106
-81
-60
-14
5
0
-26
-39
-75
-99
-88
-69
-53
-26
-6
-2
0
-22
-64
-89
-101
-77
-40
-2
31
24
6
-25
-80
-78
-81
-61
-18
9
17
14
5
-28
-58
-84
-89
-74
-56
-11
0
-4
-1
-43
-79
-117
-108
-91
-57
-31
-9
-16
-36
-70
-111
-138
-144
-114
-69
-44
-28
-24
-36
-83
-115
-145
-137
-117
-80
-58
-28
-33
-48
-100
-117
-118
-127
-121
-70
-51
-39
-55
-54
-85
-118
-134
-142
-117
-79
-51
-38
-49
-72
-103
-137
-130
-124
-96
-66
-37
-38
-37
-51
-94
-123
-146
-138
-103
-75
-39
-6
-35
-40
-91
-118
-137
-136
-115
-70
-39
-19
-35
-52
-88
-131
-127
-114
-101
-56
-48
-40
-32
-51
-85
-120
-132
-118
-100
-57
-22
-24
-48
-71
-101
-120
-124
-112
-115
-78
-22
-10
-14
-60
-100
-123
-148
-130
-102
-62
-29
-5
-29
-51
-84
-126
-121
-113
-81
-43
-21
-31
-33
-65
-107
-132
-119
-108
-73
-30
-11
-17
-35
-70
-106
-127
-121
-114
-91
-45
-29
-24
-31
-60
-98
-121
-122
-102
-75
-48
-25
-21
-40
-69
-111
-117
-101
-103
-64
-34
-4
-14
-22
-64
-100
-137
-128
-118
-72
-34
-30
-22
-20
-64
-112
-128
-112
-104
-71
-34
-7
-28
-42
-83
-115
-124
-111
-94
-64
-29
-10
-23
-26
-78
-114
-113
-104
-102
-60
-29
-33
-32
-25
-72
-107
-106
-92
-78
-29
-1
-6
-14
-34
-80
-100
-110
-106
-87
-62
-24
-18
-15
-38
-90
-104
-100
-106
-90
-61
-23
-20
-30
-56
-103
-117
-120
-119
-96
-59
-35
-34
-43
-64
-83
-99
-111
-105
-99
-71
-30
-3
-21
-55
-98
-119
-116
-103
-92
-54
-35
-34
-39
-71
-98
-118
-117
-136
-117
-68
-46
-39
-21
-38
-48
-53
-27
10
71
124
168
166
163
156
115
91
55
-17
-30
-8
-5
-5
-10
-59
-102
-114
-110
-106
-76
-41
-23
-33
-28
-75
-130
-133
-116
-104
-74
-48
-38
-34
-24
-67
-110
-115
-121
-111
-71
-34
-30
-28
-35
-79
-112
-123
-115
-110
-74
-46
-33
-32
-33
-92
-128
-135
-131
-106
-69
-46
-25
-28
-60
-90
-127
-131
-122
-101
-66
-41
-29
-51
-47
-77
-119
-123
-113
-103
-68
-26
-23
-18
-30
-79
-114
-126
-113
-96
-53
-26
-30
-38
-51
-88
-109
-111
-103
-69
-43
-15
-17
-34
-59
-114
-132
-107
-88
-64
-36
12
5
-10
-33
-74
-110
-113
-107
-82
-36
8
15
10
-23
-62
-87
-77
-73
-67
-13
36
33
17
-6
-45
-80
-64
-71
-18
20
34
21
19
-20
-62
-84
-80
-87
-61
-18
4
-2
9
-36
-70
-93
-94
-87
-59
-34
-11
-11
-21
-72
-108
-124
-117
-112
-80
-43
-20
-15
-33
-60
-112
-131
-122
-110
-76
-27
-30
-43
-49
-78
-118
-129
-120
-104
-66
-32
-22
-37
-49
-77
-131
-134
-120
-108
-73
-42
-27
-28
-39
-88
-125
-122
-118
-116
-59
-29
-18
-23
-48
-89
-114
-107
-109
-116
-89
-30
-14
-14
-40
-81
-108
-126
-123
-106
-62
-30
-16
-25
-51
-88
-105
-117
-110
-102
-65
-19
-7
-18
-41
-79
-112
-112
-105
-79
-44
-24
-24
-30
-40
-82
-106
-116
-110
-93
-47
-25
-21
-7
-56
-96
-129
-120
-119
-77
-42
-21
-35
-26
-56
-94
-130
-124
-125
-91
-54
-30
-32
-34
-69
-120
-123
-123
-116
-107
-38
-46
-30
-36
-82
-102
-118
-112
-128
-84
-45
-13
-38
-37
-74
-110
-143
-127
-115
-84
-41
-21
-34
-39
-64
-115
-135
-127
-119
-91
-59
-34
-57
-62
-89
-111
-114
-115
-110
-66
-42
-24
-39
-29
-74
-122
-140
-116
-110
-74
-47
-33
-34
-37
-74
-109
-120
-124
-106
-66
-10
-1
-32
-38
-74
-107
-114
-99
-93
-47
-30
-12
-24
-36
-83
-111
-123
-120
-92
-45
-18
-23
-37
-51
-96
-126
-133
-131
-102
-50
-22
-16
-46
-65
-108
-133
-126
-115
-97
-52
-37
-32
-38
-60
-91
-114
-123
-136
-94
-51
-29
-21
-19
-63
-111
-124
-118
-106
-83
-46
-25
-26
-45
-73
-119
-138
-147
-127
-92
-39
15
47
61
72
66
71
80
97
136
175
216
197
138
25
-65
-95
-98
-103
-63
-41
-32
-12
-23
-58
-93
-108
-124
-114
-77
-45
-31
-33
-31
-67
-95
-123
-118
-107
-77
-51
-21
-32
-24
-62
-103
-121
-110
-100
-65
-34
-18
-28
-31
-71
-104
-126
-126
-113
-72
-38
-5
-27
-23
-57
-113
-135
-109
-114
-60
-23
-6
-18
-22
-64
-106
-116
-102
-79
-43
-7
6
-8
-27
-82
-109
-107
-99
-85
-54
-22
2
0
-28
-68
-97
-110
-104
-80
-36
2
17
-1
-16
-64
-95
-96
-86
-62
-33
-28
2
1
3
-39
-78
-87
-83
-57
11
34
32
20
15
-27
-76
-52
-57
-34
12
37
40
31
-6
-32
-54
-55
-36
-8
24
55
58
51
12
-17
-45
-32
-20
20
31
47
49
44
2
-24
-38
-38
-50
-6
14
37
35
7
-17
-64
-87
-93
-62
-23
1
18
29
8
-29
-54
-67
-90
-78
-43
-15
-12
3
-17
-30
-80
-97
-85
-75
-37
-10
5
2
-7
-40
-80
-89
-90
-84
-43
5
16
1
3
-36
-83
-97
-96
-84
-37
8
15
24
-9
-54
-86
-96
-86
-64
-25
15
14
-3
-4
-43
-77
-87
-86
-82
-29
-2
3
-5
-10
-57
-73
-81
-85
-84
-34
-14
0
0
-23
-71
-96
-111
-87
-60
-18
16
20
-4
-14
-76
-89
-83
-87
-70
-31
6
27
-2
-42
-72
-98
-103
-92
-64
-36
-5
10
-6
-29
-71
-95
-97
-91
-71
-40
-7
-9
-44
-44
-81
-100
-100
-97
-61
-15
7
-3
-30
-42
-86
-105
-104
-98
-73
-33
-2
-7
-7
-25
-76
-104
-102
-95
-61
-21
-4
-19
-1
-25
-98
-118
-99
-92
-75
-31
-8
-16
-23
-61
-79
-94
-101
-90
-67
-19
0
-12
-25
-64
-97
-109
-94
-81
-56
-18
6
16
-17
-48
-80
-100
-85
-70
-45
-11
7
-23
-36
-60
-88
-89
-73
-72
-38
-9
6
4
-10
-59
-107
-115
-110
-104
-50
-17
-17
-12
-21
-62
-96
-104
-100
-95
-54
-4
-16
-27
-26
-73
-136
-146
-96
-82
-42
-17
-16
-24
-34
-80
-125
-121
-93
-84
-55
-23
-25
-33
-51
-79
-120
-122
-98
-94
-66
-40
-46
-35
-61
-82
-96
-63
-32
21
95
149
183
167
167
138
128
129
109
83
52
37
22
5
-28
-61
-97
-109
-78
-58
-38
-20
-36
-29
-49
-75
-109
-120
-111
-59
-43
-13
-14
-19
-50
-98
-114
-125
-94
-74
-42
-19
-22
-19
-38
-91
-117
-112
-99
-72
-33
-2
-9
-23
-55
-89
-114
-107
-108
-73
-24
2
7
-25
-60
-108
-116
-105
-94
-55
-27
-19
-18
-8
-52
-98
-120
-105
-92
-56
-36
-18
-9
-27
-57
-86
-99
-91
-88
-43
-23
2
3
-28
-62
-95
-111
-90
-66
-25
-8
-7
-24
-11
-77
-105
-121
-100
-70
-26
10
17
1
-10
-64
-71
-88
-83
-46
-17
6
-3
11
-7
-62
-95
-90
-77
-50
2
28
32
20
5
-29
-59
-59
-55
-31
7
36
20
16
-9
-51
-76
-74
-58
-38
2
12
5
-7
-38
-95
-100
-67
-65
-50
-18
12
16
-8
-45
-76
-102
-105
-95
-78
-49
-11
-11
-18
-63
-107
-121
-108
-101
-73
-44
-17
-22
-34
-52
-102
-139
-123
-104
-62
-30
-28
-28
-26
-60
-95
-119
-119
-110
-79
-56
-41
-23
-22
-69
-125
-131
-133
-117
-78
-35
-21
-20
-32
-83
-112
-127
-127
-119
-70
-44
-21
-37
-45
-78
-108
-131
-132
-121
-71
-36
-24
-28
-40
-81
-119
-133
-113
-108
-69
-46
-39
-39
-52
-96
-105
-127
-108
-93
-54
-45
-19
-48
-54
-91
-123
-131
-114
-114
-54
-29
-32
-38
-59
-95
-114
-130
-136
-107
-73
-53
-27
-34
-48
-95
-125
-153
-126
-113
-77
-51
-46
-29
-43
-90
-120
-128
-125
-102
-68
-41
-27
-53
-69
-102
-140
-143
-120
-110
-57
-33
-22
-34
-68
-111
-134
-129
-121
-96
-67
-42
-32
-53
-76
-117
-139
-133
-125
-89
-67
-31
-34
-42
-79
-110
-133
-132
-105
-75
-49
-35
-24
-35
-65
-125
-129
-115
-125
-71
-29
-19
-25
-35
-73
-122
-125
-113
-120
-78
-22
-22
-37
-55
-101
-126
-151
-143
-125
-83
-58
-54
-62
-79
-103
-132
-160
-132
-130
-104
-71
-28
-30
-69
-136
-146
-169
-139
-122
-59
-30
-40
-43
-61
-99
-125
-141
-123
-129
-72
-45
-40
-33
-54
-79
-104
-127
-137
-117
-89
-70
-56
-59
-67
-99
-104
-83
-45
-2
29
126
166
179
182
136
111
119
106
49
21
4
-10
-23
-38
-83
-120
-116
-101
-88
-45
-22
-16
-18
-25
-79
-117
-130
-121
-96
-39
-17
-1
-17
-48
-87
-119
-120
-119
-90
-50
-24
-23
-36
-62
-103
-106
-103
-97
-67
-31
-18
-20
-33
-70
-96
-121
-112
-97
-71
-52
-24
-22
-32
-68
-101
-121
-126
-109
-61
-40
-20
-25
-25
-60
-98
-105
-109
-112
-71
-28
-4
-2
-19
-66
-105
-110
-106
-103
-51
-16
-10
-14
-23
-59
-94
-116
-113
-97
-47
-28
-3
-8
-27
-71
-106
-93
-96
-86
-46
-12
1
-17
-8
-42
-81
-90
-86
-73
-31
2
3
18
-2
-44
-78
-81
-69
-38
-11
-5
22
1
1
-36
-67
-82
-55
-35
-3
26
33
7
-16
-53
-81
-91
-77
-44
1
18
6
-3
-24
-67
-93
-91
-76
-79
-28
-11
1
-20
-49
-78
-116
-123
-107
-78
-46
-32
-20
-38
-61
-85
-116
-122
-118
-86
-56
-25
-19
-33
-61
-96
-133
-128
-120
-90
-55
-52
-28
-33
-80
-104
-126
-126
-117
-73
-61
-39
-39
-31
-67
-113
-137
-155
-124
-80
-62
-37
-13
-32
-66
-102
-133
-125
-123
-89
-52
-31
-35
-48
-78
-112
-135
-122
-114
-86
-58
-38
-47
-51
-91
-130
-132
-129
-130
-74
-46
-40
-42
-62
-96
-118
-136
-132
-120
-82
-58
-42
-43
-60
-99
-130
-137
-135
-124
-94
-64
-39
-36
-61
-103
-128
-139
-133
-115
-81
-68
-42
-56
-68
-107
-134
-141
-124
-114
-80
-38
-31
-51
-70
-107
-136
-137
-146
-105
-69
-40
-37
-57
-62
-117
-140
-137
-133
-107
-66
-40
-35
-45
-62
-111
-135
-143
-128
-107
-57
-36
-44
-62
-69
-98
-112
-121
-108
-86
-42
-23
-28
-42
-80
-113
-131
-131
-110
-76
-51
-33
-30
-37
-74
-123
-124
-132
-127
-92
-60
-50
-40
-47
-83
-122
-143
-150
-147
-107
-57
-37
-59
-63
-87
-108
-115
-126
-124
-88
-53
-36
-43
-53
-81
-124
-135
-141
-140
-91
-55
-40
-40
-46
-84
-113
-137
-125
-123
-91
-66
-51
-54
-67
-95
-115
-123
-83
-53
-1
39
77
94
124
92
47
59
72
47
12
5
4
-16
-43
-86
-113
-128
-111
-105
-77
-43
-33
-26
-25
-98
-142
-129
-109
-98
-60
-35
-32
-28
-52
-100
-118
-126
-124
-107
-78
-40
-33
-40
-78
-106
-118
-119
-115
-86
-52
-37
-28
-38
-59
-94
-122
-119
-116
-96
-58
-35
-40
-38
-62
-102
-132
-152
-105
-81
-48
-35
-40
-34
-44
-98
-123
-129
-109
-89
-52
-33
-35
-49
-66
-100
-127
-133
-120
-84
-49
-19
-27
-30
-51
-83
-109
-122
-103
-69
-40
-22
-16
-32
-56
-88
-106
-105
-104
-72
-16
-5
-13
-16
-53
-84
-105
-102
-85
-50
-17
6
-9
-23
-50
-85
-86
-90
-91
-40
-3
12
10
-4
-40
-64
-80
-77
-63
-19
15
29
14
8
-48
-91
-95
-77
-74
-51
-12
13
10
-23
-54
-94
-105
-98
-96
-57
-16
-15
-31
-48
-90
-124
-117
-116
-106
-63
-33
-30
-39
-59
-104
-127
-139
-126
-125
-63
-47
-26
-30
-54
-97
-125
-129
-133
-110
-62
-34
-41
-48
-60
-105
-153
-145
-125
-96
-56
-32
-30
-41
-70
-118
-134
-127
-121
-94
-62
-50
-40
-55
-55
-96
-123
-135
-124
-98
-53
-27
-27
-39
-69
-119
-141
-131
-120
-90
-57
-40
-36
-40
-80
-106
-121
-122
-120
-96
-64
-43
-46
-47
-71
-107
-132
-124
-113
-80
-61
-29
-21
-38
-69
-106
-128
-141
-123
-90
-44
-40
-53
-66
-88
-105
-140
-126
-119
-89
-51
-22
-42
-45
-80
-123
-142
-124
-120
-95
-60
-44
-47
-59
-96
-112
-129
-146
-139
-86
-37
-20
-25
-50
-83
-126
-147
-137
-101
-61
-35
-20
-17
-33
-74
-109
-124
-109
-101
-69
-42
-33
-40
-57
-97
-131
-137
-141
-127
-87
-44
-44
-55
-63
-91
-131
-130
-125
-119
-75
-54
-41
-43
-66
-121
-147
-148
-138
-125
-77
-28
-30
-47
-73
-102
-122
-133
-139
-119
-70
-52
-40
-60
-83
-97
-134
-137
-118
-105
-66
-44
-48
-59
-89
-142
-169
-146
-134
-105
-48
0
7
35
44
36
39
51
67
92
134
147
128
78
-5
-80
-104
-108
-114
-85
-60
-47
-35
-44
-89
-117
-140
-132
-113
-84
-46
-35
-31
-53
-78
-121
-139
-139
-131
-83
-60
-39
-46
-67
-89
-116
-138
-135
-127
-96
-61
-35
-43
-65
-85
-120
-134
-132
-123
-79
-52
-45
-49
-52
-90
-129
-141
-133
-121
-87
-60
-34
-37
-51
-88
-117
-133
-129
-107
-72
-46
-22
-36
-61
-93
-112
-129
-128
-109
-77
-34
-30
-50
-63
-85
-108
-123
-120
-99
-62
-44
-31
-35
-43
-86
-126
-133
-106
-83
-55
-25
-27
-28
-46
-81
-115
-109
-102
-84
-42
-22
-29
-13
-34
-64
-93
-94
-92
-65
-18
13
-8
0
-28
-70
-96
-96
-73
-48
-17
-1
9
-2
-25
-65
-78
-86
-78
-46
-13
0
7
-20
-37
-72
-98
-109
-88
-58
-44
-21
-17
-41
-70
-118
-124
-131
-122
-84
-47
-35
-38
-46
-73
-110
-133
-132
-125
-95
-59
-35
-35
-41
-87
-127
-153
-134
-119
-90
-58
-41
-48
-54
-78
-111
-149
-136
-132
-90
-58
-37
-41
-50
-90
-122
-137
-134
-120
-95
-56
-45
-55
-52
-90
-122
-140
-134
-111
-70
-37
-35
-50
-51
-98
-142
-150
-132
-113
-75
-48
-29
-47
-59
-81
-124
-133
-127
-112
-84
-51
-27
-36
-62
-104
-140
-132
-119
-111
-72
-43
-32
-45
-64
-115
-124
-122
-118
-116
-66
-48
-41
-53
-77
-79
-130
-142
-124
-104
-69
-35
-40
-42
-67
-109
-127
-127
-131
-104
-59
-43
-41
-45
-65
-97
-126
-139
-121
-99
-60
-32
-22
-29
-76
-96
-127
-117
-108
-92
-58
-23
-26
-48
-79
-103
-119
-122
-97
-77
-38
-14
-30
-49
-75
-114
-126
-124
-109
-85
-50
-27
-44
-56
-83
-121
-129
-123
-131
-84
-56
-49
-53
-56
-74
-122
-127
-127
-121
-91
-58
-42
-36
-49
-95
-122
-129
-122
-119
-94
-60
-33
-43
-55
-90
-121
-140
-128
-128
-90
-52
-44
-44
-54
-93
-128
-149
-140
-128
-88
-62
-55
-70
-69
-101
-103
-96
-78
-42
29
86
124
149
138
114
70
63
80
48
16
14
9
-19
-45
-81
-124
-120
-116
-103
-63
-35
-35
-38
-53
-95
-117
-131
-125
-97
-72
-37
-31
-44
-75
-114
-131
-142
-123
-97
-61
-36
-37
-42
-65
-108
-150
-130
-112
-97
-53
-30
-40
-32
-71
-95
-114
-122
-121
-93
-54
-22
-32
-47
-63
-104
-133
-126
-111
-89
-60
-42
-39
-42
-73
-107
-119
-110
-106
-75
-45
-25
-30
-40
-78
-120
-111
-95
-102
-77
-37
-16
-11
-40
-78
-109
-116
-118
-84
-54
-27
-14
-24
-18
-42
-90
-111
-113
-104
-51
-18
-2
0
-14
-60
-85
-99
-87
-70
-31
-3
8
9
2
-42
-79
-92
-75
-59
-29
17
21
8
9
-19
-58
-73
-68
-46
-11
12
13
17
14
-29
-57
-67
-70
-67
-24
10
10
5
-23
-53
-75
-89
-84
-64
-37
-12
-3
-20
-34
-76
-119
-122
-100
-75
-53
-22
-18
-32
-44
-71
-111
-111
-98
-89
-36
-19
-35
-36
-33
-75
-122
-114
-103
-84
-49
-17
-6
-25
-38
-79
-107
-116
-100
-68
-34
-17
-16
-32
-55
-90
-108
-115
-96
-68
-35
-10
0
-21
-46
-78
-103
-109
-97
-80
-55
-11
-7
-16
-50
-94
-105
-105
-94
-77
-38
-23
-7
-19
-51
-87
-103
-105
-111
-76
-25
1
-2
-21
-48
-87
-111
-103
-97
-53
-15
-5
-5
-15
-56
-98
-108
-96
-84
-57
-25
-3
-3
-11
-47
-87
-101
-93
-81
-49
-5
12
0
-28
-55
-108
-115
-106
-83
-34
-9
5
0
-27
-54
-86
-102
-99
-75
-43
-14
-8
-23
-25
-56
-92
-95
-92
-77
-41
-2
13
4
-18
-72
-93
-97
-94
-78
-30
5
2
-10
-34
-59
-89
-105
-87
-70
-42
-8
5
-8
-26
-72
-97
-101
-90
-85
-33
2
-3
-15
-28
-72
-76
-75
-73
-50
-24
6
8
-7
-17
-61
-79
-83
-68
-46
-4
35
6
-8
-35
-42
-71
-72
-65
-40
1
25
20
2
-11
-52
-72
-78
-77
-52
-12
6
1
-9
-35
-65
-81
-83
-69
-41
-7
12
7
6
-45
-77
-91
-85
-73
-45
-12
15
23
6
-33
-75
-92
-65
-72
-43
-2
12
10
-1
-34
-81
-104
-96
-77
-43
2
21
11
9
-38
-71
-83
-87
-75
-47
-17
7
-5
-1
-15
-25
-16
15
44
118
192
209
202
197
165
140
121
75
23
20
34
44
34
16
-23
-62
-77
-71
-49
-2
24
20
18
-9
-53
-68
-76
-58
-38
-15
19
18
7
-1
-38
-68
-90
-70
-50
-16
19
18
16
-7
-45
-79
-79
-66
-45
-19
13
25
16
-1
-53
-74
-75
-69
-48
-1
25
16
11
4
-45
-70
-68
-59
-39
-6
19
20
-8
-31
-69
-62
-65
-47
-46
-4
46
42
22
1
-54
-77
-65
-46
-20
12
28
27
29
6
-42
-61
-65
-55
-9
21
45
36
24
-1
-37
-47
-49
-40
-10
16
42
37
26
5
-15
-29
-33
-18
7
31
49
55
42
18
-10
-12
-19
8
40
73
72
64
56
26
-8
-27
-11
0
41
72
84
78
73
27
-16
-22
-7
-8
39
60
69
58
42
-14
-42
-42
-28
-19
12
29
40
45
34
-15
-53
-51
-45
-44
5
24
30
4
8
-33
-69
-67
-53
-45
0
11
27
4
-1
-31
-68
-73
-59
-52
-16
20
28
28
10
-52
-70
-59
-35
-51
-13
18
32
22
-5
-45
-80
-70
-53
-42
7
32
30
12
-9
-45
-74
-81
-68
-44
0
24
30
25
-4
-51
-72
-67
-57
-39
6
17
25
16
-10
-48
-80
-62
-58
-29
17
32
34
19
-10
-45
-71
-75
-68
-23
3
20
21
14
-22
-66
-80
-73
-72
-31
14
39
18
10
-20
-62
-85
-75
-57
-25
13
26
33
19
-21
-63
-72
-70
-61
-14
20
17
17
2
-26
-70
-82
-54
-55
-10
26
34
18
6
-33
-62
-73
-74
-62
-19
7
20
7
5
-37
-63
-75
-74
-44
-13
19
26
18
9
-32
-66
-75
-65
-48
-23
14
26
7
12
-27
-61
-78
-66
-48
-10
12
19
13
6
-32
-66
-75
-68
-71
-15
14
19
14
12
-35
-57
-58
-47
-33
-2
22
33
30
0
-29
-60
-65
-57
-35
6
36
26
19
-2
-50
-73
-76
-54
-17
15
25
23
11
-12
-53
-80
-73
-66
-38
9
26
23
3
-27
-62
-78
-62
-71
-32
-2
16
18
1
-11
-57
-79
-88
-83
-41
3
13
12
7
-20
-53
-77
-70
-62
-35
12
23
33
6
-44
-76
-94
-91
-88
-52
-11
30
49
62
58
52
55
92
121
176
212
230
229
206
142
35
-16
-39
-43
-10
18
20
10
17
-38
-58
-63
-54
-57
-26
14
20
5
-7
-24
-68
-94
-66
-56
-21
28
32
10
-4
-39
-62
-80
-64
-33
0
21
22
15
11
-42
-69
-72
-57
-39
-10
5
26
20
0
-42
-68
-63
-59
-39
-2
29
26
16
1
-43
-67
-70
-62
-49
0
26
28
15
-14
-46
-55
-50
-59
-28
8
40
45
40
13
-41
-70
-64
-47
-32
15
57
41
27
4
-41
-53
-42
-34
-7
23
52
44
37
14
-29
-52
-45
-41
3
33
62
49
49
22
-13
-26
-31
-21
22
58
68
65
54
21
-9
-14
-4
-10
17
58
76
82
73
35
3
-11
-13
-5
38
73
85
77
72
41
-1
-28
-13
-14
19
53
74
63
45
4
-29
-43
-40
-33
-2
24
41
35
25
-24
-33
-48
-49
-43
-2
28
26
20
2
-41
-67
-78
-54
-43
1
17
31
28
9
-31
-79
-85
-68
-34
-15
20
32
35
11
-26
-60
-74
-59
-40
0
31
28
14
6
-36
-77
-81
-68
-35
-4
31
43
21
8
-46
-69
-70
-54
-39
0
22
30
14
-7
-44
-79
-60
-63
-49
-1
25
38
18
-11
-41
-72
-70
-64
-45
-6
36
36
10
-30
-65
-77
-66
-62
-30
-2
20
26
20
-13
-61
-54
-55
-48
-24
-2
23
28
18
-19
-55
-82
-72
-63
-25
4
34
23
20
-23
-51
-64
-70
-63
-31
11
16
21
7
-28
-55
-77
-69
-58
-13
8
21
22
11
-38
-62
-84
-71
-48
-16
20
40
21
14
-33
-59
-74
-64
-58
-22
6
19
18
17
-20
-62
-71
-66
-59
2
25
14
20
7
-42
-72
-80
-65
-53
-5
22
26
19
-6
-40
-65
-81
-71
-40
-4
16
35
15
0
-30
-72
-77
-63
-43
-7
37
33
30
5
-33
-68
-62
-54
-36
14
41
40
23
3
-27
-58
-71
-61
-20
18
34
36
39
9
-44
-58
-55
-70
-10
17
24
26
12
-19
-50
-71
-72
-48
-23
5
12
19
6
-17
-47
-71
-66
-69
-22
6
29
16
12
-18
-53
-79
-62
-60
-32
9
26
16
23
-16
-41
-70
-68
-56
-30
12
25
21
12
-40
-75
-101
-87
-69
-32
8
45
70
66
54
52
65
93
119
178
210
231
230
210
130
37
-19
-31
-35
-7
29
42
27
20
-22
-53
-79
-60
-42
1
25
31
33
6
-31
-66
-80
-72
-46
0
37
39
18
-3
-39
-69
-71
-49
-48
-10
39
44
16
5
-35
-62
-50
-47
-41
6
32
38
20
0
-32
-58
-68
-42
-40
-6
27
27
11
2
-25
-46
-62
-61
-23
10
42
34
24
-6
-31
-46
-46
-34
-15
15
49
39
33
1
-33
-59
-53
-37
-13
25
48
57
40
12
-26
-58
-51
-44
-8
22
41
45
49
26
-6
-31
-34
-23
-7
40
67
53
50
26
-15
-28
-14
-10
18
62
77
70
66
39
9
-13
-8
4
34
61
87
89
87
31
4
-29
-5
9
53
88
101
86
77
42
-2
-17
-18
0
29
58
73
51
36
11
-11
-37
-23
-28
9
50
63
39
28
-13
-37
-50
-49
-46
1
43
51
39
38
-14
-50
-60
-46
-30
7
29
43
33
13
-16
-45
-67
-57
-33
11
28
31
27
13
-19
-54
-56
-45
-33
10
42
49
28
5
-30
-49
-57
-59
-31
11
41
42
31
2
-34
-63
-65
-47
-26
14
44
52
29
1
-50
-66
-58
-47
-18
6
43
48
28
5
-35
-50
-42
-34
-24
7
37
32
25
15
-29
-58
-47
-46
-24
18
33
36
33
6
-45
-62
-76
-58
-21
15
46
39
14
-22
-48
-66
-59
-62
-16
23
44
50
3
-10
-36
-61
-54
-42
-19
26
32
31
30
-9
-40
-54
-52
-60
-17
43
49
34
22
-22
-55
-72
-46
-58
-18
24
40
31
24
-8
-52
-71
-56
-43
2
39
30
21
16
-33
-58
-69
-52
-34
-5
20
29
17
3
-31
-47
-56
-46
-35
11
38
48
34
27
-11
-45
-57
-42
-21
18
50
54
46
27
-17
-35
-49
-48
-28
19
45
41
29
13
-15
-44
-51
-51
-26
9
36
36
38
11
-47
-73
-69
-60
-36
4
38
44
30
-6
-51
-58
-37
-49
-28
-5
19
21
22
3
-33
-69
-65
-53
-22
27
44
36
20
-5
-43
-62
-59
-59
-24
7
33
33
11
-22
-55
-88
-71
-38
11
62
83
118
152
130
125
117
138
147
171
206
204
147
75
10
-32
-40
-36
-47
-9
28
43
36
31
0
-22
-54
-49
-46
-10
26
36
26
30
0
-41
-61
-46
-32
5
32
39
31
10
-24
-48
-53
-46
-28
-6
11
35
36
18
-18
-45
-52
-49
-29
11
44
40
17
15
-26
-43
-59
-43
-30
9
29
34
32
14
-22
-52
-52
-38
-23
9
32
46
38
25
-7
-42
-48
-39
-17
17
44
52
46
16
-23
-45
-55
-30
-8
24
52
54
38
19
-32
-45
-44
-35
-17
19
52
69
50
18
-13
-28
-30
-26
9
44
69
63
57
27
-14
-29
-19
-7
17
52
74
79
66
43
15
-12
-13
-1
29
69
76
65
69
39
8
-20
-3
7
55
61
71
65
69
32
-11
-32
-13
2
18
53
62
49
48
8
-26
-43
-39
-35
6
38
45
34
30
-3
-51
-75
-59
-42
0
36
31
19
13
-8
-40
-62
-41
-39
-2
30
31
44
35
-14
-46
-53
-51
-40
-9
39
46
32
18
-26
-52
-71
-54
-26
8
36
52
37
17
-14
-52
-63
-45
-31
10
48
47
38
24
-22
-43
-55
-52
-37
8
49
51
35
14
-48
-77
-57
-26
-11
16
28
27
43
22
-30
-48
-41
-50
-23
7
23
40
40
14
-29
-67
-64
-41
-22
19
43
38
36
8
-43
-69
-66
-48
-17
17
34
37
38
24
-31
-59
-51
-52
-15
22
46
37
19
-26
-32
-57
-53
-41
-11
23
59
44
36
-7
-42
-57
-63
-47
-12
8
31
38
30
2
-38
-60
-42
-32
-5
17
53
48
36
-9
-34
-55
-52
-46
-4
38
48
49
28
-10
-43
-66
-56
-38
-2
39
56
40
25
2
-39
-56
-51
-28
21
61
57
55
30
-11
-36
-43
-47
-32
19
52
61
53
45
11
-31
-44
-30
-30
9
43
54
46
35
-16
-40
-47
-46
-36
21
47
43
24
14
-19
-43
-53
-40
-33
-1
38
54
52
26
-12
-59
-66
-49
-25
8
47
54
37
15
-29
-60
-50
-46
-24
24
37
49
37
4
-36
-63
-63
-62
-26
1
23
25
47
27
11
14
34
69
136
189
226
225
216
203
172
132
83
25
25
57
68
64
40
4
-19
-45
-42
-31
-2
25
47
44
17
3
-28
-51
-44
-38
-4
25
52
41
29
6
-33
-46
-37
-43
-1
33
42
33
10
-3
-29
-58
-47
-32
-7
22
56
46
44
7
-35
-55
-52
-46
9
36
41
41
27
9
-35
-49
-41
-33
7
46
49
34
36
-2
-41
-42
-37
-28
15
60
52
39
19
2
-31
-49
-35
-20
20
59
52
48
40
-4
-39
-46
-24
-1
30
65
71
48
36
2
-19
-26
-17
-8
43
65
82
68
71
17
-6
-10
-17
20
57
77
80
79
63
28
8
-2
12
43
83
91
91
94
60
27
-2
9
15
48
77
92
79
72
77
29
-3
1
22
39
64
93
73
66
35
-12
-19
-9
-10
18
48
70
54
44
22
-18
-43
-39
-48
4
36
60
49
43
2
-33
-50
-47
-47
7
37
47
49
53
6
-35
-49
-38
-35
-1
31
48
40
41
-1
-44
-53
-38
-37
-6
37
47
40
18
-13
-37
-51
-49
-33
14
39
45
46
26
-14
-39
-42
-38
-22
12
44
47
45
23
-10
-42
-63
-50
-23
17
50
52
39
27
-12
-40
-60
-44
-27
12
37
57
32
20
-19
-49
-56
-38
-16
18
37
44
31
20
-17
-40
-44
-36
-16
25
49
43
33
16
-20
-42
-56
-51
-24
22
48
48
31
12
-19
-60
-53
-35
-7
30
47
33
39
5
-30
-42
-51
-39
-19
2
53
51
39
9
-20
-54
-51
-47
-5
21
48
40
30
6
-20
-42
-48
-46
-7
27
43
37
19
-8
-47
-40
-42
-42
-13
28
46
33
12
-26
-34
-46
-38
-30
-2
17
52
46
26
-9
-47
-58
-49
-35
2
39
62
51
36
-2
-52
-39
-30
-30
14
42
53
48
40
5
-43
-58
-49
-32
25
43
55
50
38
-5
-39
-48
-35
-29
13
57
43
31
19
-22
-42
-56
-47
-23
10
38
43
41
24
-19
-50
-54
-61
-37
8
31
42
36
11
-23
-55
-56
-52
-24
3
25
35
12
12
-22
-50
-61
-42
-24
18
26
36
29
-15
-25
-55
-67
-58
-27
22
60
84
88
93
83
78
91
114
149
193
226
236
209
147
35
-11
-46
-37
-3
34
48
45
47
22
-22
-45
-37
-38
-14
6
33
27
17
17
-9
-41
-43
-42
-13
47
55
41
27
1
-37
-67
-71
-41
-1
33
44
56
36
-9
-42
-59
-48
-53
2
28
44
44
34
-8
-45
-47
-39
-39
-3
12
48
34
35
4
-50
-46
-40
-42
3
32
41
46
16
-11
-34
-49
-48
-28
11
39
53
38
34
-1
-43
-50
-33
-20
9
36
67
52
40
-21
-43
-38
-19
-8
27
49
52
46
44
-1
-23
-30
-16
-12
30
60
70
60
41
-1
-15
-19
-12
-2
37
85
91
75
47
25
-1
-1
15
22
61
92
88
66
59
21
-13
-11
16
40
54
81
85
77
48
13
-29
-30
6
27
55
74
81
66
34
-13
-53
-53
-34
-13
25
54
70
56
21
-27
-50
-43
-40
-7
15
36
46
37
7
-33
-60
-52
-35
-5
23
37
46
35
-3
-32
-51
-52
-41
3
22
36
39
32
2
-38
-69
-58
-34
3
44
50
38
30
0
-36
-62
-48
-36
1
27
40
20
25
-7
-32
-53
-49
-43
15
40
50
48
27
-9
-44
-58
-49
-49
-5
45
56
36
33
-14
-47
-52
-37
-50
-3
33
44
36
26
-18
-48
-45
-38
-26
-1
40
53
34
10
-20
-56
-55
-39
-28
11
24
53
37
26
-16
-51
-52
-43
-27
20
35
46
37
10
-23
-48
-46
-32
-31
15
39
46
33
11
-15
-51
-53
-40
-12
17
47
41
30
14
-34
-73
-64
-52
-17
31
31
38
31
2
-20
-45
-47
-26
-10
25
44
41
36
-5
-34
-58
-51
-34
-11
44
63
68
45
12
-23
-36
-38
-39
-3
32
63
54
47
18
-23
-44
-37
-25
12
38
53
56
47
2
-33
-52
-53
-40
8
37
46
48
35
-11
-53
-50
-38
-44
-2
38
49
35
27
-1
-33
-46
-55
-44
4
33
40
34
32
-11
-38
-56
-53
-33
6
36
52
39
35
-12
-42
-39
-38
-21
0
30
27
20
10
-49
-68
-61
-49
-29
35
96
126
132
138
120
101
112
124
131
180
235
197
120
50
-3
-52
-40
-32
-16
15
44
43
36
31
-9
-47
-44
-46
-17
29
41
49
34
10
-29
-47
-46
-54
-19
13
35
38
40
25
-23
-48
-50
-35
-14
21
40
42
38
6
-32
-57
-57
-42
-10
39
47
40
16
0
-17
-51
-55
-30
-5
42
55
55
34
8
-38
-57
-50
-23
-4
11
50
60
42
20
-19
-52
-38
-32
4
26
43
61
49
15
-15
-27
-44
-22
8
49
59
57
55
8
-15
-35
-25
-13
16
40
70
59
50
21
-15
-33
-12
-17
31
65
86
62
68
29
-15
-17
3
4
46
71
77
70
55
30
1
-7
10
15
45
77
99
93
73
30
13
0
-1
27
63
88
89
88
68
24
-20
-31
-10
7
43
68
71
57
30
-5
-36
-38
-36
-8
24
46
39
29
33
-9
-35
-44
-47
-26
15
37
41
40
21
-23
-49
-49
-41
-29
25
51
50
43
13
-34
-57
-55
-57
-12
19
49
50
40
9
-24
-56
-56
-41
-10
38
47
30
26
6
-43
-66
-56
-30
-1
42
53
47
38
5
-28
-36
-32
-33
-10
33
53
46
48
-3
-29
-38
-50
-38
5
31
58
48
48
9
-30
-55
-34
-23
3
34
60
41
43
-16
-37
-57
-27
-21
9
32
40
54
21
-12
-40
-41
-42
-32
4
42
60
40
23
-13
-29
-44
-39
-23
13
35
45
52
35
-11
-48
-47
-51
-35
8
47
61
50
21
-27
-50
-53
-33
-11
23
48
50
37
31
-13
-42
-47
-38
-12
15
34
42
34
20
-9
-35
-36
-22
-10
26
54
47
34
20
-15
-42
-57
-35
9
38
47
50
54
20
-34
-44
-53
-38
-1
26
52
44
50
29
-10
-41
-20
-18
4
43
63
52
47
18
-13
-28
-33
-39
8
44
65
59
59
22
-14
-46
-30
-25
-1
29
54
46
43
-1
-40
-41
-34
-38
-8
37
49
32
34
9
-14
-45
-41
-41
-4
37
50
42
41
-2
-41
-56
-50
-45
16
51
48
40
26
10
-32
-51
-51
-37
14
51
51
44
31
-18
-58
-66
-51
-40
41
89
127
152
166
147
128
128
140
172
209
242
225
158
84
31
-13
-31
-19
-20
6
48
55
42
42
1
-24
-34
-13
-23
18
52
61
50
28
-11
-34
-40
-41
-2
37
53
48
46
27
-12
-51
-42
-26
4
30
59
52
40
29
-7
-37
-38
-34
-14
28
61
54
28
3
-13
-33
-31
-33
-2
42
71
68
56
14
-28
-46
-26
-12
7
40
61
67
52
26
-14
-36
-29
-20
14
38
79
62
63
41
-4
-23
-22
-5
13
52
62
68
67
42
-2
-16
-13
-11
24
72
90
74
69
39
7
-11
-9
1
43
93
96
93
80
38
10
13
15
15
61
92
109
102
107
66
26
21
19
33
78
110
114
117
96
58
32
26
27
30
78
113
111
102
85
50
5
-9
8
27
65
92
96
78
61
24
-10
-13
5
3
39
82
80
68
51
-1
-19
-28
-11
-3
36
72
81
72
57
1
-38
-40
-24
-4
40
64
72
48
31
10
-20
-21
-14
4
38
67
66
55
34
-1
-23
-25
-37
-10
30
62
74
69
37
-13
-27
-21
-23
10
36
59
49
53
27
-12
-29
-28
-37
5
50
71
56
48
26
-5
-12
-18
-21
9
46
64
57
56
20
-20
-44
-29
-14
17
51
61
60
55
26
-25
-39
-40
-23
19
51
73
52
38
7
-26
-35
-26
-22
14
56
68
55
49
9
-38
-38
-28
-29
4
31
59
52
30
-16
-56
-47
-27
-25
24
36
58
48
39
-11
-45
-46
-44
-33
11
53
49
46
33
-14
-35
-37
-38
-18
19
43
39
42
18
-9
-41
-60
-56
-30
18
46
49
44
30
-3
-55
-52
-40
-21
23
44
33
36
13
-27
-53
-58
-43
-12
36
51
41
44
14
-15
-35
-51
-55
-17
31
51
48
46
24
-19
-38
-28
-16
-5
37
58
52
57
24
-11
-47
-36
-43
-19
52
73
64
49
16
-20
-43
-50
-35
-7
26
44
43
37
13
-22
-47
-53
-47
6
22
49
50
38
2
-32
-48
-56
-40
-7
32
38
37
28
2
-31
-45
-43
-36
-1
28
55
48
28
-2
-39
-56
-53
-37
10
36
55
50
37
-17
-55
-75
-65
-34
13
36
73
90
107
106
92
110
133
150
212
248
258
246
213
112
19
-13
-18
-10
35
59
58
52
49
2
-23
-31
-32
-19
20
54
62
48
39
-4
-32
-40
-35
-4
27
54
49
49
42
-7
-48
-38
-15
-2
28
45
53
46
33
-9
-37
-36
-30
2
31
55
49
44
31
-11
-28
-32
-19
3
41
65
50
56
23
-11
-43
-43
-21
5
41
59
61
58
28
-9
-44
-46
-12
17
50
63
84
67
25
-8
-33
-37
-29
14
64
83
77
52
15
-11
-27
-14
1
29
63
80
72
55
27
-5
-4
-3
15
35
69
94
79
78
41
12
-6
1
4
51
87
104
91
93
49
16
2
7
24
73
99
108
97
90
64
23
15
20
25
75
103
115
96
84
38
3
-5
1
14
46
90
96
82
68
30
-4
-22
-26
-3
34
65
70
68
55
1
-22
-23
-35
-27
17
57
67
59
37
-8
-36
-48
-38
-16
28
60
63
46
22
-27
-28
-35
-22
-12
22
60
59
46
12
-4
-26
-39
-29
-2
36
57
57
40
24
-17
-46
-45
-25
9
34
61
54
49
29
0
-46
-52
-24
11
45
67
59
49
10
-19
-43
-40
-39
-2
40
77
66
58
11
-36
-43
-40
-31
17
43
59
52
45
14
-31
-33
-26
-19
5
40
56
58
47
15
-16
-31
-39
-27
8
41
60
53
42
4
-31
-38
-33
-30
7
56
62
51
31
3
-22
-34
-34
-25
-2
38
63
50
37
3
-29
-45
-39
-17
18
45
54
51
53
5
-45
-54
-33
-20
20
56
60
54
37
-11
-40
-40
-46
-26
19
55
61
65
43
2
-32
-44
-35
-16
17
52
59
51
27
0
-21
-41
-40
-19
19
39
45
55
31
-13
-41
-44
-35
-19
12
50
60
63
40
-24
-47
-58
-31
-11
26
69
73
70
18
-13
-41
-28
-32
-2
33
60
67
62
39
-2
-28
-36
-18
10
43
61
64
61
24
-7
-32
-39
-32
9
46
67
53
36
11
-19
-42
-45
-34
9
39
59
55
41
-3
-26
-47
-48
-35
-10
34
32
39
37
8
-29
-42
-39
-38
1
30
45
38
44
12
-28
-49
-56
-44
5
40
47
55
34
-3
-51
-64
-59
-41
3
35
45
37
33
-1
-14
-7
24
64
122
198
233
225
211
188
155
156
145
89
62
76
78
69
47
-7
-34
-39
-24
-11
17
43
52
44
27
-13
-41
-41
-41
-14
23
49
50
41
26
-21
-41
-51
-33
-15
30
57
55
40
27
-15
-51
-45
-50
-34
12
46
60
60
28
-30
-43
-48
-39
-11
22
58
54
59
29
-17
-46
-55
-44
-9
34
68
66
51
25
-16
-41
-43
-33
-1
32
50
60
42
16
-18
-44
-56
-30
-5
42
63
60
66
36
-21
-37
-33
-15
14
43
67
75
63
31
-5
-28
-39
-13
29
60
71
77
59
20
-8
-10
-15
2
40
70
93
84
61
29
-2
-4
3
20
37
89
105
122
90
48
14
2
12
25
58
89
118
107
83
52
22
7
6
6
48
85
103
93
75
33
8
-15
-12
3
36
67
70
77
43
3
-30
-32
-40
-21
22
46
51
42
37
-8
-33
-43
-41
-20
33
64
68
39
27
-17
-47
-39
-37
-18
19
60
61
49
10
-22
-43
-42
-26
-7
29
52
49
49
23
-15
-51
-46
-37
-14
18
53
58
33
7
-25
-33
-56
-25
2
37
56
64
42
12
-19
-34
-37
-27
-2
36
56
57
40
10
-13
-36
-41
-30
-1
32
58
69
45
8
-24
-53
-52
-41
6
48
57
42
39
-7
-34
-62
-38
-30
12
44
60
40
28
-1
-40
-62
-46
-28
6
32
33
54
39
7
-23
-41
-30
-21
3
30
47
49
46
17
-46
-56
-52
-23
15
48
57
36
43
-3
-30
-44
-42
-19
12
50
61
50
37
-5
-42
-54
-46
-29
10
36
51
39
37
-2
-32
-55
-40
-18
12
47
54
48
26
-34
-49
-38
-30
-13
36
54
61
45
29
-13
-53
-41
-30
-12
30
59
59
48
28
-13
-39
-49
-27
-21
19
50
59
44
21
-6
-32
-33
-28
-9
30
59
57
52
36
-17
-25
-23
-13
18
48
74
55
61
28
-13
-36
-27
-31
15
51
68
60
54
35
3
-30
-38
-15
17
52
54
59
40
16
-24
-49
-43
-35
6
41
60
44
31
4
-19
-32
-59
-53
15
43
60
49
58
14
-29
-44
-27
-42
8
51
61
52
40
-7
-33
-42
-42
-37
16
51
66
52
42
-2
-44
-54
-55
-51
-22
32
51
78
87
63
52
66
100
144
206
248
263
256
235
185
103
26
12
13
43
58
64
43
36
7
-25
-47
-35
-8
28
52
60
52
33
-16
-37
-47
-28
-21
17
52
65
49
23
-11
-55
-44
-31
-5
32
65
65
54
29
-16
-49
-48
-39
-23
19
42
50
53
31
-18
-49
-45
-32
-3
43
61
48
41
24
-15
-48
-49
-38
-10
11
44
62
53
23
-6
-36
-34
-18
-5
26
58
58
37
14
-16
-46
-44
-26
14
56
68
62
59
15
-31
-36
-26
-12
33
58
66
71
54
30
-12
-20
-21
-7
16
60
73
79
75
32
-6
-19
0
10
33
70
86
94
81
36
2
-4
11
12
44
82
107
106
92
41
5
-7
15
30
55
78
97
89
82
47
5
-9
11
23
54
85
88
74
57
19
-19
-27
-26
-7
14
50
49
40
41
-6
-37
-38
-35
-19
16
58
50
42
6
-28
-32
-44
-45
-18
-6
28
54
46
27
-16
-55
-46
-42
-37
20
43
43
40
6
-36
-58
-47
-27
-15
29
45
40
38
18
-35
-58
-62
-35
-17
20
46
47
34
15
-26
-49
-51
-40
-11
25
49
44
42
10
-32
-48
-56
-51
-19
31
44
42
42
5
-34
-42
-43
-44
-3
26
41
20
30
0
-51
-56
-48
-32
-5
30
48
45
38
-3
-45
-53
-43
-44
-15
32
42
36
22
-13
-51
-72
-39
-29
6
32
22
34
18
-12
-47
-62
-57
-32
3
28
50
40
22
-13
-41
-54
-59
-50
5
35
38
29
17
-27
-66
-76
-59
-37
-8
27
33
19
3
-26
-54
-48
-50
-36
0
36
45
33
6
-34
-59
-64
-64
-31
18
43
37
19
13
-23
-56
-61
-61
-41
6
41
27
15
13
-33
-54
-77
-51
-28
13
34
15
35
-15
-36
-62
-52
-41
-6
27
52
50
34
7
-32
-48
-52
-35
4
33
49
47
42
2
-44
-66
-51
-43
-5
19
44
37
27
-7
-36
-68
-72
-66
-23
9
46
32
20
-10
-52
-58
-60
-45
-14
21
34
29
28
-12
-61
-66
-60
-54
-20
9
28
25
21
-37
-62
-65
-61
-64
-17
25
47
43
20
-21
-55
-90
-65
-48
-3
27
22
17
7
-21
-53
-47
-25
5
58
112
166
179
180
144
117
106
126
140
146
108
82
48
25
-16
-41
-51
-43
-42
12
46
34
21
3
-30
-59
-47
-46
-26
9
47
53
30
22
-11
-53
-65
-48
-28
8
34
42
38
16
-32
-61
-57
-45
-32
11
35
42
21
0
-44
-76
-70
-56
-18
20
47
46
38
16
-31
-54
-53
-43
-32
38
52
41
35
5
-33
-70
-51
-49
-33
30
66
42
31
13
-22
-47
-44
-28
-11
36
50
51
39
3
-34
-45
-40
-32
6
46
58
54
41
22
-16
-46
-27
-19
22
48
71
69
64
39
-15
-26
-21
-12
24
58
76
68
61
35
-3
4
0
3
49
79
86
77
70
30
-6
1
-3
-9
40
85
105
99
92
41
-8
-5
0
20
56
79
92
76
65
14
-17
-32
-12
-7
36
65
72
56
32
-8
-46
-39
-29
-4
24
45
55
38
18
-15
-49
-51
-51
-38
-8
30
51
40
20
-18
-44
-41
-33
-18
20
42
46
36
16
-27
-71
-59
-51
-12
32
41
45
35
13
-30
-60
-60
-30
-13
27
41
54
38
21
-24
-65
-62
-44
-7
26
57
48
35
-7
-43
-60
-49
-46
-2
39
66
35
34
5
-26
-58
-53
-43
-8
30
54
33
32
6
-23
-47
-56
-37
5
37
69
57
48
3
-32
-60
-37
-38
-20
34
60
43
30
-4
-39
-56
-51
-27
14
49
44
35
36
-3
-43
-65
-53
-48
-2
26
59
63
36
-7
-47
-54
-45
-29
18
54
52
42
32
-25
-63
-49
-40
-21
6
36
68
53
32
-26
-46
-47
-41
-17
29
48
37
18
25
-16
-38
-44
-43
-30
8
31
49
41
21
-13
-31
-39
-46
-22
24
57
65
33
29
4
-35
-48
-19
12
40
