74
38
13
9
14
9
51
66
59
76
39
40
35
2
0
23
31
57
77
62
51
59
24
-9
0
31
24
76
62
78
61
41
32
10
-24
17
36
71
49
59
52
43
29
10
-2
29
15
61
59
79
64
30
27
1
1
32
46
64
65
74
55
21
-7
5
10
13
35
67
90
59
35
26
-6
-17
12
27
35
76
70
75
40
19
11
6
-7
32
42
91
62
55
41
18
-2
-19
-7
29
57
60
66
62
43
15
11
21
9
3
25
75
107
78
45
34
5
2
14
40
51
60
82
47
39
4
44
-3
1
21
68
62
60
74
42
53
31
-1
35
37
48
62
59
57
43
14
26
-1
-3
15
41
55
92
29
24
24
-14
-10
32
12
28
67
82
55
27
22
6
-21
-11
25
43
46
72
55
41
10
-5
-1
5
15
35
58
75
55
29
8
-14
-26
19
23
23
76
62
36
22
3
-8
0
46
67
68
116
127
131
121
118
107
133
143
185
177
180
185
142
94
47
10
-28
-32
26
47
57
35
12
12
17
1
7
25
37
37
68
67
58
8
-10
22
-6
16
46
41
59
57
63
15
19
8
-3
17
59
62
45
65
62
26
3
9
22
11
55
45
63
80
77
43
9
-2
9
24
60
68
81
39
40
17
1
18
38
54
45
51
100
71
44
22
15
16
17
66
44
74
95
58
53
55
16
-9
20
37
74
87
107
89
72
60
35
15
32
64
84
121
117
71
82
60
38
14
22
85
140
107
95
111
91
48
43
30
57
79
96
106
77
49
43
54
54
33
44
64
90
92
78
58
47
53
29
11
11
45
70
79
68
43
71
29
1
5
-4
40
35
40
61
61
18
11
29
-13
7
20
54
72
81
53
14
18
-9
-4
17
48
44
51
46
40
35
22
-15
4
18
26
37
68
58
36
27
36
-33
-13
52
51
58
68
70
56
23
2
-18
4
20
35
64
80
50
83
16
6
-14
2
27
43
65
86
55
57
14
5
-8
29
30
63
71
52
32
32
36
-15
11
25
41
55
50
77
70
52
23
-8
-34
13
51
31
74
96
70
39
11
-7
-26
9
50
61
77
78
39
29
12
-14
-21
21
49
52
55
63
51
40
19
0
-37
5
54
52
27
77
70
27
40
18
-10
23
36
32
57
63
48
26
21
-1
-15
14
35
54
51
67
39
40
17
-9
-48
-13
61
58
65
98
52
35
-10
-18
-21
12
60
69
60
77
61
37
-1
-25
-26
9
43
65
66
73
59
33
9
-19
-7
27
47
59
90
89
59
35
6
20
18
11
31
89
64
61
32
35
53
4
-4
38
51
64
81
60
71
30
-4
-21
19
36
54
63
70
36
28
37
5
-13
-1
31
42
54
83
33
30
29
17
-10
11
24
43
49
78
44
37
4
-17
-13
-3
35
47
71
70
47
29
8
4
-9
23
11
48
73
88
42
24
9
-21
-19
-12
17
49
59
77
82
60
37
61
50
48
80
133
190
229
200
178
164
128
116
117
132
77
89
108
53
2
-16
-8
2
3
47
54
51
81
69
35
-2
13
2
34
36
25
37
92
49
29
20
-17
-6
20
51
64
72
75
67
24
10
3
11
28
48
61
69
83
68
31
-2
-8
6
40
13
64
94
71
65
33
27
11
24
8
41
69
89
69
44
38
41
21
8
37
63
80
85
79
66
53
15
-4
17
28
47
107
100
87
63
49
36
20
33
67
94
77
128
103
72
63
46
46
51
82
81
103
112
87
79
68
49
18
51
104
103
119
130
115
82
60
33
4
52
74
101
118
104
101
82
43
38
35
35
49
69
76
90
68
63
17
27
11
26
24
65
59
60
50
31
44
25
-5
26
26
59
62
96
53
28
33
-10
-8
20
27
50
49
65
69
37
24
22
-10
-8
20
40
64
91
71
20
7
12
-2
25
40
52
46
65
58
51
-7
14
-2
-18
28
65
63
65
50
38
18
-19
2
22
56
68
70
54
48
34
32
12
-5
10
60
68
42
43
44
24
6
16
4
36
72
61
58
65
47
12
-9
7
31
23
63
85
57
34
51
29
15
1
6
21
39
49
76
41
40
2
-8
-2
31
37
32
70
63
52
51
6
6
5
22
17
49
71
73
59
34
30
1
-13
-1
-13
57
87
70
27
28
7
-9
3
15
22
62
83
97
56
26
15
22
-7
15
23
51
42
71
50
30
5
-27
-17
15
55
47
67
43
30
0
-4
19
-7
29
53
65
65
64
30
24
31
27
7
22
46
54
56
73
44
19
12
-8
16
24
26
32
46
84
75
33
11
10
27
41
42
64
79
72
51
11
14
10
4
45
62
55
64
67
44
32
-25
-6
-4
17
46
37
47
77
54
24
-3
-21
-17
10
30
81
68
49
37
25
30
-37
2
15
42
15
65
63
34
25
17
-22
-15
20
20
43
96
74
57
13
-32
-38
-2
35
55
36
63
28
41
23
33
6
30
72
83
132
180
152
169
161
143
123
152
132
129
138
138
71
61
37
-8
-27
-31
5
47
32
79
48
45
5
-12
2
4
16
51
70
86
54
41
26
12
8
25
34
58
45
65
27
16
32
20
14
27
35
53
71
67
31
47
28
-18
-4
10
42
54
75
96
69
41
-8
-20
16
23
38
82
97
88
56
29
1
-8
-25
23
70
80
64
83
75
33
14
17
9
43
67
72
83
79
52
34
26
26
45
37
65
71
99
94
81
57
33
-11
14
89
113
104
116
109
85
67
49
33
44
44
74
75
114
107
99
85
43
52
32
43
76
103
99
85
87
40
40
33
60
53
62
61
87
76
61
39
23
9
0
43
66
78
75
58
56
10
3
-26
3
39
17
54
95
78
31
13
-2
-27
3
36
60
74
80
50
29
25
-11
-20
-17
20
56
76
99
55
25
-3
-18
-10
21
18
22
72
85
49
47
-1
-4
7
12
30
60
65
70
57
32
14
10
-14
11
40
52
70
63
45
35
17
-7
9
24
44
35
31
93
61
19
-10
12
22
13
74
64
74
72
61
23
6
-8
-28
-9
66
75
73
92
39
10
-4
-51
-22
54
69
76
58
62
53
25
6
-7
7
27
41
56
59
46
61
37
11
-18
-18
-10
58
46
50
69
71
35
18
-8
-6
6
44
55
90
74
18
12
7
-20
-8
20
45
87
74
57
27
25
-22
-30
10
37
25
42
91
57
39
14
-11
7
-1
37
62
48
70
47
31
14
-8
13
20
23
38
84
61
50
39
33
9
-4
21
18
36
72
60
77
43
22
30
15
12
50
62
79
83
38
31
2
24
20
34
61
53
84
75
42
-2
17
-7
-1
5
35
74
42
69
37
30
18
-25
-3
36
45
57
69
61
27
21
0
-21
-20
18
48
80
58
67
31
28
-1
-3
-23
21
40
34
63
45
41
36
3
-13
-15
22
22
34
75
66
38
26
-30
-19
-12
34
42
74
95
92
107
127
118
78
107
154
191
202
187
193
158
110
88
51
44
36
38
43
51
48
14
-28
-22
-18
26
33
39
65
84
62
57
26
6
-3
6
25
30
19
74
92
47
19
-2
-4
20
25
45
61
67
31
32
15
32
4
17
19
39
76
80
70
44
24
14
-10
23
46
44
59
73
64
45
28
15
-3
22
31
57
62
77
73
39
2
21
21
25
33
70
85
98
84
46
18
5
-7
23
78
78
77
129
63
60
38
47
41
40
72
86
95
108
90
38
21
40
36
71
94
101
104
115
55
62
59
43
46
69
101
102
102
109
85
69
40
14
22
49
63
89
127
83
62
44
22
6
8
24
58
55
81
107
74
21
23
11
12
26
49
59
55
75
50
28
5
-7
8
15
30
33
90
98
46
3
-21
-14
14
24
42
42
59
60
51
20
-31
13
31
28
66
58
66
57
58
29
8
-32
1
15
24
10
71
75
39
21
14
5
7
23
42
68
73
42
35
17
1
18
20
39
55
74
85
60
42
4
30
-20
-12
25
50
61
66
51
28
-1
-7
-6
31
60
61
39
81
54
40
13
6
-20
22
60
47
76
70
46
35
12
18
-8
19
33
47
68
50
44
15
-8
-4
14
19
26
50
67
95
30
37
-1
-10
-19
12
58
55
76
83
50
23
3
-22
-16
17
28
42
60
86
67
4
8
-5
3
4
37
57
49
71
51
19
-2
-36
-30
22
57
59
81
62
39
34
-15
-10
-12
12
36
42
86
58
24
9
5
-2
30
38
27
56
69
33
21
29
10
-5
-17
3
43
68
75
33
35
19
8
-16
11
27
37
68
77
51
30
10
-3
-18
19
55
67
60
72
43
46
23
21
-20
4
29
56
67
89
88
59
18
5
-5
40
32
24
50
81
63
18
-3
-14
-4
8
21
26
37
70
66
16
10
9
-16
4
23
59
73
65
54
6
-10
-7
-20
-4
25
33
57
60
52
21
1
-12
-9
17
13
30
59
65
38
-12
6
2
-4
-2
17
50
57
63
33
-2
-28
0
21
38
55
72
107
122
99
86
119
141
112
154
189
177
179
162
152
106
37
13
-16
-22
7
20
60
58
48
14
-15
-19
18
32
33
29
48
44
37
17
29
-1
21
19
28
24
41
81
60
32
7
2
12
8
-33
59
106
73
31
24
11
-5
7
30
41
56
69
56
28
-3
-4
-6
26
45
49
46
68
56
43
36
16
11
29
25
38
59
85
66
56
5
1
22
39
57
63
81
58
38
45
49
-1
6
43
59
72
68
76
81
63
33
37
44
53
68
74
92
88
112
72
41
28
26
44
76
99
98
111
85
73
76
53
40
53
98
82
99
84
66
64
46
7
21
66
46
52
89
125
103
50
63
26
1
16
34
48
65
82
60
36
26
11
-7
16
24
77
91
54
41
11
13
-18
-14
22
55
43
62
46
18
-13
-8
19
5
35
47
65
70
55
27
7
4
-12
-25
20
37
59
73
78
37
13
0
-3
0
-1
45
76
73
29
29
6
10
-2
39
40
19
42
74
52
45
11
-7
-14
-12
17
73
65
79
36
40
2
17
9
-11
-7
39
116
86
58
43
24
17
-12
13
40
47
56
56
29
21
9
-2
2
17
47
55
66
62
47
24
26
-7
-9
22
26
41
79
86
57
16
18
5
-13
15
19
25
64
76
53
24
-26
-25
-3
21
29
46
63
53
58
24
23
12
-17
15
25
65
70
69
59
24
10
-8
-36
-6
14
59
83
73
41
18
2
-43
-48
5
39
66
70
83
51
22
-16
-5
10
-9
26
62
54
59
47
12
-1
-5
10
22
24
66
91
73
39
16
-7
-46
-33
33
36
58
81
35
38
24
2
-25
-35
16
47
57
82
75
43
34
11
-31
19
19
41
48
68
72
35
38
23
-5
12
15
52
42
50
52
42
28
13
8
28
44
52
51
76
72
43
-1
32
7
-4
20
40
67
104
69
38
0
-7
-4
-6
9
34
55
59
21
16
22
-13
-25
9
16
63
59
56
48
41
-27
-18
0
1
56
82
52
51
32
14
-4
-22
-25
40
27
45
72
49
32
25
-14
-5
-19
-13
12
42
44
57
27
-2
2
3
22
34
76
97
143
188
185
170
157
132
131
135
152
169
140
140
89
36
1
-46
-54
-23
9
40
52
50
36
14
6
-3
-29
17
33
40
74
71
29
21
-1
-9
3
28
11
55
65
73
42
30
5
-10
9
25
58
51
70
55
27
-26
-25
14
16
53
61
49
82
59
38
27
-2
23
23
19
39
66
60
60
46
19
13
-5
4
23
73
69
81
59
59
15
-4
-7
34
47
48
85
107
42
27
34
46
14
39
45
74
95
93
84
97
29
8
11
53
59
94
125
119
89
70
41
35
11
67
80
81
98
102
99
73
31
44
18
33
73
109
124
118
91
49
11
15
29
19
63
94
83
81
61
46
46
33
5
27
40
45
72
80
35
25
-13
-27
20
-5
26
37
63
106
53
22
-1
-6
-21
13
44
75
42
43
48
33
9
-23
-7
22
22
48
50
58
43
24
14
-10
-25
1
20
34
60
65
64
30
7
-11
-2
5
11
76
59
60
50
6
15
-3
-21
0
25
65
90
64
38
42
24
-25
11
36
23
48
61
50
51
20
-7
-22
14
16
35
48
78
80
55
11
0
-21
-32
48
53
43
75
28
47
20
-14
-15
11
14
70
70
69
51
39
6
0
-8
24
19
26
37
43
65
47
-2
15
3
-8
10
23
49
73
33
31
2
-2
-6
21
25
33
56
70
34
14
5
-3
-17
-15
4
45
87
80
51
11
-1
5
-13
2
18
61
40
47
40
18
16
4
-22
-9
18
42
53
44
22
1
7
3
-18
11
30
50
80
79
43
28
-22
-20
-11
1
25
65
59
55
39
28
36
1
-6
26
44
60
60
46
29
12
5
-14
2
29
58
63
82
71
46
26
8
-18
7
19
35
39
65
46
48
19
1
-6
-3
17
52
63
60
43
-10
-18
-18
-11
13
27
33
40
62
40
50
18
-11
-15
12
-2
18
53
67
66
14
1
-15
-38
-3
15
45
47
44
59
40
-3
-25
-32
-15
5
61
65
55
32
-16
-1
-17
-3
-3
24
75
108
129
87
90
131
93
103
145
170
159
190
176
143
108
43
0
-2
0
6
0
4
29
-1
7
17
12
-14
-1
20
47
64
48
51
24
6
-7
-20
-28
45
55
66
69
41
10
-5
-21
-18
22
37
37
35
79
56
41
2
-9
-20
3
39
52
67
64
32
21
7
-6
-2
18
41
35
73
84
48
13
1
-2
-4
-9
46
79
85
59
38
55
17
19
24
12
36
50
68
75
53
27
5
6
26
37
72
93
82
81
67
66
17
5
3
41
72
101
118
85
69
59
44
38
37
68
88
93
108
96
82
50
47
18
23
38
59
117
118
55
69
29
26
29
43
75
62
76
86
55
36
53
36
11
16
34
58
62
82
55
28
3
-4
-27
-10
10
59
64
66
54
30
5
-6
-21
2
33
41
50
57
53
12
3
-5
-24
-14
25
53
60
60
58
40
-12
-44
-19
21
35
55
67
74
39
7
-4
-37
-49
33
50
35
66
79
48
26
7
-12
-2
4
32
45
40
67
39
10
21
-2
22
24
38
62
58
54
18
15
7
6
21
13
25
56
71
37
39
22
1
-17
-19
35
45
44
52
76
39
26
-18
-4
23
19
29
35
52
54
44
24
-10
-13
15
7
31
57
49
27
45
25
-4
-22
-10
10
25
34
86
86
26
4
-1
-14
6
14
29
46
67
44
31
-1
-5
-6
1
26
27
49
83
45
12
10
-2
-34
4
27
34
52
54
58
36
5
-10
-27
-7
24
50
39
61
51
3
4
-2
-17
12
24
52
54
48
33
12
-22
-8
-15
14
27
51
75
60
17
9
7
8
-28
-2
30
46
41
51
49
12
18
17
-1
7
36
49
62
59
39
10
18
2
-42
6
56
60
78
75
40
39
47
20
-33
2
39
62
60
64
47
17
-13
16
-19
41
61
64
48
60
34
10
8
-12
-11
-8
26
31
62
71
59
36
13
-20
4
7
39
53
61
49
22
-34
-26
20
29
8
52
45
58
48
37
9
3
-36
-15
-13
1
38
71
65
36
2
20
-4
-4
8
48
43
40
-4
31
13
3
14
37
68
79
99
134
106
154
134
131
140
125
139
172
189
161
106
76
40
-17
-40
-32
-1
5
50
51
46
32
17
8
-4
5
26
38
55
55
40
-15
1
-4
-2
6
51
48
66
76
20
-2
1
5
-8
4
38
63
55
56
63
34
29
-1
-34
4
33
47
66
62
33
38
1
13
1
7
32
66
70
79
47
-7
16
20
3
30
31
69
81
76
52
37
3
10
17
2
48
59
64
80
62
44
23
-8
37
48
67
71
72
83
68
20
33
22
39
49
86
80
117
110
78
59
50
28
28
48
75
98
111
91
97
65
48
34
48
52
61
97
93
98
94
51
23
5
26
49
63
76
89
67
73
33
-11
-7
22
45
50
46
74
87
47
10
-2
-3
20
27
33
67
57
52
24
2
-6
-14
-3
25
61
69
84
45
25
14
-1
-27
-4
19
64
44
59
35
13
11
26
-33
6
36
59
71
71
49
32
9
-14
-27
-9
-2
13
78
90
55
35
5
22
17
-4
28
36
60
68
47
7
1
2
8
26
48
42
65
73
42
21
18
-30
-4
4
26
58
96
77
29
16
25
-5
-7
21
40
56
53
14
43
35
26
20
6
16
34
48
53
64
50
19
16
-8
-16
-9
25
51
65
62
36
29
28
-15
10
-6
38
66
38
35
18
-4
58
-20
2
36
30
69
75
50
39
19
2
-7
-8
26
26
43
77
46
28
29
-24
-31
38
24
33
45
49
36
31
0
5
-10
22
21
54
56
63
46
30
31
0
-18
5
25
28
50
71
41
28
-7
8
-14
5
39
45
91
63
31
12
-10
23
13
-7
8
56
86
90
49
34
9
9
1
10
13
24
39
57
68
55
14
1
15
13
32
70
65
86
49
24
16
9
-9
20
40
61
58
62
57
16
11
-15
-15
-3
13
39
38
54
60
32
20
-2
-18
-1
22
43
78
57
10
14
-6
-21
-8
26
40
58
66
38
36
-5
-29
-31
9
13
10
44
80
41
26
23
6
-17
-9
14
44
34
52
44
29
-4
3
10
53
60
70
90
135
136
141
124
115
136
163
152
169
150
149
90
56
42
20
-13
-26
-4
55
24
30
23
9
3
10
-13
9
30
42
33
63
64
41
-8
-28
-28
-2
43
49
50
68
43
38
18
-34
-5
41
3
51
83
58
52
18
-7
-1
-6
14
35
52
46
59
46
38
9
-22
-36
3
70
60
66
72
75
33
5
8
-8
39
60
53
71
53
57
42
31
18
-18
22
46
51
70
85
70
36
26
14
19
35
21
49
98
88
64
59
63
37
36
65
76
99
75
98
90
80
44
31
51
56
77
85
89
109
78
82
33
35
40
45
79
98
97
69
84
49
31
4
18
40
50
81
110
95
60
30
36
7
29
38
51
44
57
42
27
23
-4
18
30
37
48
36
63
41
26
35
19
5
3
32
32
45
49
32
6
37
6
-24
32
53
55
70
69
37
28
16
-4
-15
27
27
25
42
46
25
34
10
14
9
16
41
58
71
63
36
20
-2
-15
-5
17
50
75
58
78
44
33
-3
-13
-11
20
56
52
60
45
49
37
-2
-5
6
31
52
46
51
52
41
21
-15
-15
-6
5
26
72
64
71
62
28
16
5
-11
15
48
45
66
59
37
24
-12
-41
-12
25
41
57
51
63
26
28
42
5
-4
10
26
31
64
57
41
15
-11
-7
2
12
51
56
57
57
57
14
-6
-9
-1
17
22
24
47
41
34
9
24
-8
2
13
27
36
62
72
31
-2
11
-8
-5
21
51
66
66
57
21
3
10
-14
14
41
27
57
82
44
23
33
1
-23
-18
32
67
72
96
61
35
30
9
-12
-19
20
68
63
52
45
20
13
-3
-14
-3
38
48
58
71
40
0
2
-15
-3
29
12
33
46
55
18
20
2
-20
-38
16
19
52
50
49
33
1
-6
-1
-34
18
23
43
51
53
45
18
7
-14
-31
21
2
-7
10
46
63
39
-4
-31
-31
-3
29
32
77
115
66
50
43
58
75
108
168
185
197
196
181
149
102
72
67
71
53
47
46
8
-2
-15
-21
-28
-22
-7
32
58
59
32
54
15
-16
-13
-23
13
54
63
51
45
35
11
14
-23
20
17
34
49
57
47
41
23
21
2
1
22
44
52
82
40
11
-3
16
-7
1
43
28
55
84
47
31
-7
-14
-31
8
38
77
72
82
64
38
9
1
-19
22
64
64
73
70
46
41
18
-17
16
35
64
93
82
68
58
55
9
-20
-4
42
52
60
79
95
83
64
46
42
45
49
62
67
97
100
73
75
67
43
34
50
65
95
91
105
61
63
34
5
3
41
72
110
105
82
74
40
12
14
26
21
43
53
60
56
9
-11
29
24
14
57
49
42
68
66
42
9
-23
-19
-13
21
31
47
82
79
51
24
-5
-31
-48
9
34
32
61
66
46
4
-4
-8
-17
0
41
39
72
39
32
12
14
-8
0
5
18
59
80
50
37
32
11
-1
13
6
17
26
54
38
29
24
13
12
8
12
32
39
82
75
36
-6
8
-3
25
19
24
58
76
74
36
11
-2
-10
22
31
47
44
69
50
14
-12
-9
-2
-1
40
53
40
43
45
19
16
6
12
10
25
38
48
64
53
18
-2
-9
9
-5
24
55
26
36
49
21
21
17
-2
-7
39
57
31
35
17
22
16
-9
-6
22
34
23
53
65
45
32
3
-26
-6
21
32
40
31
31
56
56
1
-11
-5
-1
38
36
56
51
39
13
-28
-8
-20
19
45
53
69
56
35
-18
19
7
8
21
44
70
58
47
28
12
2
-19
-3
28
54
73
85
50
37
40
15
-13
6
38
57
61
83
52
33
9
18
-2
15
22
15
42
61
49
39
-1
-8
15
-17
-4
30
52
57
45
30
9
0
-9
-7
17
35
52
76
51
37
7
-5
-49
-7
17
34
53
68
42
16
-14
-17
-46
7
23
49
59
61
45
27
21
-25
-49
-12
20
36
37
52
34
17
23
24
18
44
63
105
144
177
184
171
161
141
121
132
133
143
117
92
57
11
-61
-36
-14
6
24
27
20
24
45
49
12
-7
-9
-10
32
45
50
84
40
1
14
3
-6
5
4
50
72
58
52
25
-3
-24
-28
-3
15
51
63
50
49
26
2
-7
-12
27
26
57
72
63
40
9
17
-18
-20
12
66
61
61
60
50
29
4
-9
15
17
54
47
68
57
49
27
4
12
21
34
49
66
71
70
43
24
-4
12
51
65
73
88
85
86
37
-6
42
52
45
68
89
97
99
73
82
58
29
23
47
54
46
118
122
85
68
53
32
19
38
55
78
77
82
53
80
56
35
6
32
54
95
85
68
61
29
14
14
15
10
19
61
43
51
50
40
-6
-23
-40
33
39
37
40
49
45
22
17
1
-20
24
64
43
54
65
19
-3
-5
-34
-29
-13
15
49
76
81
57
15
-9
-8
-29
-21
12
43
33
79
53
31
15
-33
-7
9
28
32
69
57
39
14
-2
-28
-17
24
15
51
56
44
5
-2
3
-9
-20
24
36
61
70
52
39
-5
-2
-17
-14
24
30
52
77
44
-3
10
18
-13
-7
7
35
43
56
51
10
-8
-3
-29
4
29
12
49
57
40
-1
-2
1
-4
8
3
34
49
61
42
39
26
-2
-18
-7
10
19
32
44
35
25
-9
-28
-38
-16
32
53
23
63
22
19
8
1
-21
-4
14
37
59
58
25
15
4
15
-31
-10
19
16
24
36
33
30
-16
-28
-8
7
-2
23
56
53
32
23
0
-30
-31
-6
24
53
49
50
38
24
1
-7
-8
5
31
33
28
63
36
14
3
-17
-15
7
37
57
71
64
36
-7
-30
-31
10
35
59
52
55
53
34
11
-11
-35
-5
5
6
49
63
41
25
19
-11
-23
-16
-1
20
42
48
39
1
1
-14
-24
-46
-6
24
47
36
22
51
-18
-32
-29
-14
17
24
29
36
43
18
-29
-30
-19
-16
31
29
37
51
19
5
-31
-36
-27
-42
-21
4
52
43
31
58
39
47
44
45
74
123
170
195
201
156
139
103
87
99
109
85
67
60
15
-21
-37
-20
-63
-1
2
13
35
44
28
-10
14
-15
-16
3
25
57
36
32
12
20
-7
-7
-22
3
34
21
32
72
39
8
0
-1
-37
-7
18
59
38
26
40
18
-41
-30
-18
10
40
55
82
60
47
18
8
-11
-23
-1
25
41
70
74
56
10
-32
-25
-13
33
18
60
68
76
36
32
10
-4
-13
23
48
63
66
90
68
36
16
18
30
26
55
69
107
91
63
39
48
5
18
39
80
73
98
90
98
54
34
28
37
54
95
80
83
82
35
40
50
49
30
44
81
94
101
82
61
48
20
-21
22
46
47
102
121
70
52
49
26
-18
7
23
55
78
61
38
31
25
7
-19
14
9
48
70
75
30
0
5
7
-4
23
24
54
62
79
53
49
6
-12
-22
2
51
65
71
60
48
46
15
-28
-32
19
42
65
87
70
48
36
16
-20
-38
6
21
30
124
76
46
52
10
1
8
15
32
63
80
94
66
8
14
9
19
13
25
45
72
74
56
41
9
-1
-3
30
50
57
66
66
14
39
23
1
6
20
45
38
61
83
73
51
5
-2
20
41
63
43
81
61
43
8
0
-5
-3
15
40
62
85
73
39
11
17
-4
-13
10
36
62
92
45
23
33
33
3
13
26
51
71
81
61
48
20
-5
-22
4
-2
37
50
82
58
56
18
4
-22
4
10
47
68
117
66
41
15
-15
-10
0
35
76
89
67
43
32
20
37
1
20
47
50
62
61
39
31
34
23
-24
-15
67
43
64
95
73
55
37
24
5
27
44
70
92
49
58
57
32
6
0
22
38
57
70
37
64
35
5
-15
13
2
31
80
65
41
36
50
29
-32
8
21
18
25
66
95
65
22
-9
-3
-2
16
30
31
52
52
41
21
4
13
9
37
67
45
59
65
33
-13
-4
-27
-2
-6
44
75
87
52
17
29
38
36
51
79
108
127
184
213
186
187
165
155
117
123
124
123
104
82
42
-5
-21
-24
-34
0
33
23
69
36
48
22
-5
-27
-1
46
28
47
90
52
49
21
15
-10
27
33
62
90
77
58
53
31
14
10
14
25
59
81
78
56
23
20
18
-24
10
27
48
77
85
69
58
3
-9
23
29
31
66
98
84
68
54
28
17
0
22
42
74
88
90
69
36
22
14
3
34
73
85
95
92
53
45
32
16
35
69
70
74
108
121
93
61
54
80
26
41
106
100
112
118
83
50
50
29
44
58
78
79
69
127
103
69
63
30
60
86
68
93
95
97
83
76
65
31
31
51
49
101
82
88
68
39
24
7
-2
20
60
52
76
78
48
25
17
12
-11
19
48
79
91
74
44
43
15
-23
37
56
47
60
68
44
24
6
11
-6
11
29
41
58
67
65
44
31
7
7
20
39
31
56
77
37
37
20
17
15
44
50
66
63
67
61
34
15
33
1
4
35
53
81
78
66
55
34
2
-2
4
10
62
81
85
42
42
44
13
2
39
27
70
94
78
62
19
13
-3
37
33
40
59
73
76
62
42
12
-15
-6
38
38
58
62
87
48
49
10
2
10
4
48
56
51
54
54
48
25
6
8
21
37
38
48
75
57
34
32
12
6
44
58
43
58
68
22
14
14
14
2
9
15
49
69
64
27
52
32
-4
13
16
43
66
89
51
38
26
21
8
16
20
45
63
65
55
36
12
40
15
20
13
39
82
98
66
44
31
24
16
14
42
54
74
92
58
31
24
9
14
33
47
40
46
75
46
43
8
-14
-38
-4
-8
52
83
84
33
44
22
-5
-6
31
38
59
60
54
16
24
34
21
-11
-17
-1
71
77
63
49
32
0
-9
-38
11
35
62
79
52
46
13
8
-9
-22
15
10
38
52
64
59
46
34
30
20
64
103
149
185
201
186
134
124
113
91
109
107
96
104
103
54
8
-22
-36
-31
-1
19
46
61
45
45
22
2
3
3
16
37
70
60
46
20
16
12
10
2
33
49
64
80
65
55
26
17
3
-23
11
56
51
47
63
60
33
-18
-26
11
45
60
70
82
59
13
36
26
10
6
41
61
65
90
74
45
24
0
3
20
38
61
65
71
74
49
22
9
-4
28
59
58
64
98
78
76
18
22
53
31
36
84
90
97
73
56
83
63
28
44
68
84
91
90
54
80
63
35
31
44
45
76
92
125
99
82
57
31
18
48
59
90
79
84
58
70
31
37
-1
26
79
70
74
81
53
29
14
-5
19
33
38
67
68
70
51
28
1
-1
2
17
16
53
53
59
48
34
5
-21
-40
4
44
56
69
42
45
22
4
-12
-2
-6
30
63
71
75
26
17
6
-43
-4
34
30
61
67
51
35
1
-11
-10
-23
-10
49
67
91
48
26
40
7
-2
12
14
15
44
50
40
52
58
15
-50
-16
35
44
55
84
61
47
25
-5
-44
0
34
36
33
82
68
38
3
16
-1
4
20
28
22
73
57
47
3
-10
6
8
30
47
48
91
67
39
0
-37
-14
6
33
75
63
76
43
19
5
-21
2
15
27
38
52
71
44
23
24
6
-22
6
-2
58
57
68
73
44
0
-18
-7
2
33
59
56
94
67
4
-31
-31
5
23
45
54
54
88
60
4
1
8
-23
12
17
48
59
59
63
25
5
-30
-33
9
31
57
62
63
48
18
-5
8
36
18
22
39
75
71
56
36
-2
-4
28
22
50
61
86
91
42
25
-1
4
10
30
32
51
81
28
50
47
5
-27
9
29
64
75
80
71
47
14
-13
-17
7
22
58
51
55
50
32
7
-2
5
22
9
32
29
46
40
26
9
21
-8
21
14
44
55
67
40
66
26
9
-8
-5
17
51
50
66
52
36
-2
-16
-30
-6
20
23
24
46
56
52
27
44
42
80
72
115
150
180
152
159
117
105
94
94
110
91
93
63
44
19
-17
-10
-31
-6
22
32
55
70
46
27
4
0
-13
11
67
54
45
56
47
36
8
9
-3
18
41
52
44
43
57
52
29
28
12
24
16
32
52
49
45
34
33
22
-2
34
37
59
77
58
47
48
-8
-10
16
13
63
52
50
60
68
44
19
0
-17
17
60
72
89
90
69
33
19
17
19
44
58
75
87
51
57
66
32
13
29
49
59
84
101
90
83
41
27
7
1
90
84
95
121
100
64
63
70
36
46
60
94
116
109
88
76
55
43
34
24
53
76
95
87
75
43
35
15
19
32
42
56
100
80
54
34
18
14
26
37
21
52
72
94
46
62
24
12
-6
6
10
44
29
65
77
38
-9
-5
4
23
43
51
48
62
41
-1
14
5
1
6
36
55
68
45
37
12
15
8
-14
7
30
87
78
65
37
7
14
1
-19
4
32
68
61
56
40
36
13
-12
-25
20
62
70
75
66
58
33
-11
-11
-19
-9
36
89
74
83
51
34
2
-13
-7
16
32
49
46
62
49
30
15
3
9
16
28
38
41
38
44
30
17
-12
0
22
41
44
47
52
63
24
11
-18
6
24
49
52
90
43
51
15
8
-11
10
22
46
18
41
61
37
24
5
0
31
21
44
56
69
27
-2
10
4
5
32
24
39
52
68
55
33
39
1
0
21
20
25
27
62
57
30
3
-3
-7
16
26
51
76
59
40
30
14
-1
-19
12
48
59
50
62
60
56
20
-2
-2
11
20
59
42
65
36
66
30
-5
-14
15
24
56
86
107
76
38
29
16
0
10
39
57
57
49
52
40
-14
-9
0
35
27
43
76
84
56
17
3
10
15
-12
28
89
76
65
67
29
3
-34
-15
19
53
60
65
57
57
47
23
-22
-6
3
41
54
44
66
47
9
9
-7
13
16
23
77
53
1
21
37
14
-6
12
30
54
80
121
111
91
61
78
99
112
163
188
187
176
162
139
101
47
28
24
28
42
42
32
10
1
21
30
14
13
29
49
74
76
55
39
18
0
0
-2
15
50
36
66
68
48
43
5
10
24
32
40
50
53
42
33
21
19
-25
18
59
72
43
74
85
52
18
-1
-11
26
34
68
85
65
61
30
26
6
12
40
48
56
47
69
64
66
25
-13
6
50
77
40
85
107
64
40
36
21
-1
48
61
83
91
87
87
66
17
32
46
64
61
87
85
118
86
49
48
31
28
70
90
98
112
116
108
74
76
35
15
47
77
78
105
123
95
54
50
20
26
20
76
102
82
95
64
50
45
14
12
51
64
66
89
63
47
8
3
2
30
47
67
61
72
52
40
5
-23
-21
19
54
59
59
69
50
9
-17
25
31
12
15
37
82
98
69
55
24
-6
-31
-11
5
45
85
75
61
25
15
-16
-19
15
25
63
70
50
57
51
33
7
-14
12
18
28
39
82
88
43
29
8
9
34
42
49
64
81
50
28
1
-19
-24
17
46
41
43
91
70
28
9
9
1
39
40
22
68
97
46
18
40
24
2
27
40
56
86
71
70
30
-1
-12
-2
3
30
59
86
82
50
16
7
6
-3
29
48
51
75
94
66
39
5
-14
-25
-18
56
57
81
75
34
27
22
3
-35
6
65
77
81
77
60
28
2
-15
9
26
25
64
75
53
51
27
12
-11
19
23
39
69
87
43
54
1
0
1
20
25
49
73
60
38
29
40
31
2
20
32
37
37
52
70
40
26
10
-2
11
37
41
82
66
85
99
49
26
5
26
36
65
48
37
73
61
51
34
2
24
34
28
53
119
85
57
39
18
1
11
33
70
85
93
71
44
-7
5
-19
14
55
61
77
53
60
40
5
-15
2
7
57
59
88
68
55
50
0
-13
-16
6
41
61
72
83
62
32
22
13
-8
2
46
45
52
57
44
18
2
8
-32
4
65
75
78
69
38
39
9
-14
-14
-1
47
73
95
120
107
54
32
93
91
117
167
198
199
208
189
146
115
82
64
86
69
62
73
81
59
33
2
-21
14
38
63
99
100
79
77
29
0
-5
44
32
35
56
99
69
65
33
36
3
24
35
84
99
100
76
53
36
13
5
25
34
67
98
91
81
59
40
22
2
36
46
57
92
112
76
62
51
29
13
37
57
98
103
84
54
37
36
42
3
37
78
87
104
111
88
62
41
39
22
50
65
109
117
121
96
80
56
32
25
54
78
106
100
102
106
95
86
64
47
68
93
111
108
109
146
101
44
43
54
73
116
121
127
133
116
91
46
41
28
51
85
113
125
103
88
85
47
19
61
74
89
87
96
76
94
61
3
-9
15
37
51
47
84
106
95
42
13
-13
18
40
51
84
74
75
59
41
23
8
19
50
67
85
78
55
54
24
52
16
11
37
52
61
79
46
10
24
32
66
54
32
60
70
95
85
60
15
25
9
7
29
76
58
104
73
60
35
15
30
40
45
68
64
72
26
30
38
44
30
33
41
53
95
125
82
38
34
13
-14
-1
22
71
79
93
70
65
14
-6
-5
17
49
68
92
98
56
46
34
16
7
10
39
63
86
83
43
70
33
-14
5
26
64
76
86
80
54
38
11
5
2
34
39
60
69
99
59
30
23
14
-4
22
36
51
47
66
93
48
20
12
19
25
41
64
80
79
57
22
16
15
0
29
51
73
91
37
89
36
23
3
2
28
44
79
78
72
50
27
27
4
-7
29
69
86
82
54
47
47
27
11
30
42
59
45
66
82
79
49
17
-7
31
35
63
85
113
97
62
26
28
16
11
65
82
79
128
80
51
39
1
-8
25
46
58
70
74
67
51
26
12
-2
-3
28
66
81
84
75
57
27
0
8
12
28
64
76
72
69
49
-3
3
6
27
20
39
69
92
71
19
-11
38
34
17
34
60
84
80
50
14
33
-2
-17
17
45
41
63
86
66
54
34
25
35
73
97
114
170
188
215
213
152
149
145
139
132
152
150
106
62
44
-30
-37
-19
-4
26
52
87
94
55
30
24
-4
-7
28
84
57
66
69
70
57
15
19
18
55
79
68
106
56
52
38
13
14
9
26
72
86
68
32
38
59
39
4
21
46
70
76
93
71
52
27
36
28
-7
31
75
85
117
107
62
52
28
2
25
58
67
79
94
77
78
51
26
6
24
63
85
95
102
82
64
39
45
47
64
77
91
104
115
109
69
61
77
54
76
77
75
82
99
112
85
52
75
93
77
70
99
127
112
77
70
55
77
48
49
88
91
116
124
96
71
52
33
34
59
80
106
97
102
73
77
35
15
17
43
42
64
102
95
69
40
12
2
9
19
53
64
79
86
83
25
31
17
12
25
30
59
80
105
58
36
47
32
-13
14
52
82
67
90
72
35
37
-6
-1
17
34
64
74
89
72
18
40
22
42
41
49
73
90
94
39
9
34
38
15
26
53
65
90
92
76
31
18
12
23
35
65
64
84
69
45
21
23
3
-6
13
102
101
82
56
64
24
15
22
41
57
58
72
81
45
41
25
17
28
35
55
50
60
91
62
33
5
13
17
24
23
59
61
63
49
41
52
49
-23
13
60
60
82
85
56
30
11
-9
-44
40
77
84
75
90
60
30
20
11
-14
27
45
68
79
61
58
41
36
17
11
34
47
53
64
57
29
42
13
-7
7
45
63
48
70
76
53
9
26
19
22
25
27
54
70
106
58
62
46
2
-5
27
48
43
57
67
63
16
49
30
17
33
60
72
59
62
34
16
27
18
41
51
57
99
122
89
49
40
15
0
18
39
48
82
90
88
84
42
8
5
8
42
53
58
68
46
71
17
11
-6
5
39
77
63
87
61
39
26
21
-4
-3
31
61
51
71
78
39
25
-1
-10
14
25
26
49
92
74
50
56
25
-47
18
21
56
64
81
66
32
23
7
-12
4
17
36
74
121
122
83
85
69
91
118
166
177
209
215
197
119
103
67
27
30
47
52
59
52
39
6
-17
-24
-18
29
-10
52
81
86
50
33
-3
-22
-1
26
37
68
85
83
61
37
10
5
23
40
41
49
90
108
31
8
11
3
9
41
54
72
66
83
54
21
13
-20
-18
35
101
108
95
74
62
50
4
-6
19
27
81
71
82
77
46
23
23
2
34
37
78
78
108
78
67
36
24
23
29
60
60
72
77
75
79
36
42
36
49
55
88
102
105
94
77
57
61
11
54
86
104
114
84
101
85
61
51
29
46
37
80
113
127
85
67
41
16
20
66
65
79
84
123
90
49
22
14
2
37
40
84
104
104
55
39
15
15
-4
9
40
68
63
80
55
42
18
-4
-10
8
24
20
40
96
58
46
38
47
6
1
28
68
79
64
51
40
5
-11
11
29
29
38
87
95
40
33
18
7
-5
10
60
73
74
73
66
49
-2
20
23
34
51
52
42
52
55
36
28
34
24
30
47
75
79
93
41
34
30
-3
5
33
42
73
67
64
65
35
7
19
19
32
56
70
64
37
47
71
12
19
27
21
45
81
55
71
56
29
17
-12
51
33
32
49
91
79
49
33
11
-12
-5
14
26
50
84
77
39
31
28
-8
21
32
50
54
58
67
59
34
24
-8
22
29
40
48
90
70
31
3
-37
-28
54
83
53
43
87
81
23
4
23
0
30
56
52
47
73
54
56
9
2
-4
35
48
59
53
69
56
31
17
17
1
23
41
65
98
96
50
46
34
4
1
24
29
55
86
123
55
41
40
-1
-2
4
0
33
60
86
51
43
11
-6
6
14
49
52
58
56
64
30
-18
-24
-11
31
58
67
73
70
34
-2
-3
-6
-14
55
58
58
57
34
51
38
9
20
-6
-4
45
53
65
55
56
-1
-22
-15
-12
3
26
54
96
66
63
57
51
43
44
52
145
191
198
181
151
98
97
77
77
62
77
64
89
42
7
-13
-37
-34
-14
19
55
78
87
65
33
2
19
-15
-4
23
55
80
71
36
28
10
0
-5
21
22
49
73
59
47
39
-2
-3
-2
29
41
44
101
96
39
30
3
12
8
11
27
66
77
64
44
29
24
3
-2
32
25
73
88
56
40
35
2
27
21
30
51
58
91
88
68
43
21
5
2
61
72
60
104
104
66
29
30
34
26
12
16
78
110
104
70
80
33
36
26
68
79
71
79
112
109
87
39
12
21
57
94
104
94
103
81
65
41
34
13
59
70
75
74
75
82
84
62
14
27
30
38
57
73
75
76
39
-44
-30
0
69
61
61
88
69
44
20
4
-33
26
39
28
59
63
57
39
-1
-2
-15
6
-6
72
69
71
63
36
-8
-12
-29
-19
15
59
77
70
50
49
28
11
-16
-2
47
52
60
86
55
33
-8
-11
-19
-3
33
49
71
61
69
43
11
23
-3
-3
4
51
73
78
63
34
-3
7
13
20
24
35
65
73
52
28
-23
-3
15
32
23
37
58
59
45
14
-17
-18
27
-1
52
78
67
57
30
25
8
9
-9
8
47
55
69
62
23
0
-19
-11
4
34
53
52
51
41
22
0
6
-1
-5
31
59
71
76
42
19
-3
-11
-4
-3
2
45
59
70
45
27
42
27
-5
-29
0
6
78
76
72
58
20
4
-17
-4
11
41
61
88
47
50
26
7
-25
1
22
40
54
81
73
63
38
14
-15
11
17
63
76
58
53
41
18
-2
-16
9
43
36
59
84
55
24
14
0
-27
-28
26
66
61
71
37
12
-23
1
5
17
30
48
45
42
43
22
-27
-6
-6
-22
18
40
45
61
48
28
7
-18
-28
-4
3
25
70
83
58
23
6
-32
-29
11
16
37
38
66
45
5
1
19
46
70
107
130
150
187
196
162
120
100
133
118
149
154
118
104
69
-1
-6
-45
-41
-8
-7
9
56
69
57
22
11
-9
-12
7
30
43
62
46
43
22
12
2
6
34
28
44
50
24
32
18
15
13
15
15
-3
58
96
83
39
21
12
-27
2
17
54
52
70
58
51
17
-2
-10
11
34
42
59
55
45
46
38
10
-2
17
26
55
77
73
57
56
22
29
5
7
37
81
48
51
71
62
70
27
40
38
23
67
89
105
96
65
33
34
21
26
56
88
106
80
95
71
37
28
44
63
43
86
122
112
96
86
48
46
28
49
38
79
82
78
101
67
25
18
17
31
54
77
80
84
36
25
13
14
-10
14
39
81
79
55
44
18
0
0
-15
4
30
45
65
74
32
10
8
-10
-17
4
36
48
68
59
30
0
-11
-14
-29
0
48
42
53
96
45
11
27
-12
-16
5
39
53
62
53
37
18
15
-29
-21
18
46
52
68
40
3
3
-10
-10
1
27
27
53
79
45
44
35
7
-29
1
32
21
22
65
54
33
25
1
-20
5
10
28
46
44
-16
-7
26
-9
6
28
19
29
57
43
29
31
3
-22
-7
5
43
48
47
46
32
10
6
-11
-48
-9
35
45
42
58
38
34
5
-17
-36
-19
-27
-12
55
98
48
15
-21
3
-5
0
16
46
61
71
33
10
0
-6
-42
-79
28
66
81
82
41
-2
-1
0
-5
-9
21
49
74
70
38
32
22
5
-21
8
40
71
58
57
35
25
11
-12
-31
-20
-44
10
69
88
51
20
-17
-24
-19
-25
22
48
40
29
63
22
-13
-22
-31
2
20
41
55
53
25
1
-28
-43
-37
-24
34
43
55
44
13
19
-47
-41
-16
-16
25
42
48
28
34
20
14
-39
-35
-1
14
27
52
28
4
34
25
34
51
74
103
148
191
198
171
165
147
97
102
106
99
64
79
56
6
-24
-20
-34
-32
-41
33
52
69
33
2
1
-2
-47
9
7
17
51
86
15
15
3
-18
-20
4
16
52
36
41
54
33
9
0
-23
-6
3
54
53
50
20
18
1
-4
-24
25
24
40
59
53
2
22
4
-15
-14
7
37
67
69
73
48
33
-14
-1
-11
18
38
42
67
74
38
27
11
12
8
13
29
53
69
68
54
36
26
13
25
51
50
77
84
106
60
49
32
20
33
43
50
82
97
103
69
39
51
16
12
36
81
76
102
102
79
58
26
-8
11
23
84
77
96
82
62
55
37
9
16
24
12
39
74
73
37
45
20
-7
1
5
41
41
58
62
39
2
-12
-4
-11
-32
54
58
74
47
20
29
14
-35
1
5
33
42
16
28
44
32
4
-11
2
30
34
50
76
25
10
-19
-11
-31
-6
26
41
55
66
54
39
0
-8
-14
-4
18
11
30
87
45
2
13
1
-11
-1
43
46
53
74
51
19
3
-29
-28
-18
-2
45
80
82
42
15
-15
-3
-12
3
37
21
38
64
32
16
12
-6
-8
-5
24
64
48
39
38
9
-2
5
-7
-1
23
51
59
61
33
-4
-40
-13
-28
-6
37
67
63
63
36
11
-5
-21
0
10
29
61
33
69
64
22
8
-23
-4
-2
14
40
63
70
61
24
-1
-5
14
36
45
7
56
69
74
31
6
1
19
26
36
58
71
57
37
-1
-29
-6
33
9
35
33
69
47
42
13
-27
-30
-15
1
24
45
81
81
35
7
-22
-23
2
25
41
34
76
39
8
-22
-37
-36
0
20
39
69
85
33
8
-5
8
-6
-15
34
36
32
51
11
17
18
-9
-27
11
15
19
66
75
74
46
29
26
64
104
159
176
214
214
180
137
94
91
68
41
43
99
49
35
25
-10
-8
-18
-41
-17
25
44
79
43
24
31
-3
-15
-4
-7
27
16
41
68
48
13
-7
-30
-1
21
43
54
54
67
13
16
6
15
-2
5
39
26
41
69
65
12
4
-15
16
15
13
50
115
56
41
17
-23
-52
-17
39
57
48
74
81
53
28
-9
6
33
38
54
50
99
61
58
41
16
-12
15
46
61
59
100
85
61
32
13
17
36
31
67
107
109
99
75
68
43
18
38
67
105
104
115
86
63
58
35
35
13
76
95
79
103
94
72
49
20
11
26
53
84
75
97
94
76
30
-9
6
19
52
72
70
76
53
30
17
5
2
10
34
72
58
68
55
35
3
-30
-8
21
47
54
54
57
15
4
12
4
12
25
49
73
58
45
25
52
-3
3
-7
3
33
66
45
49
35
29
18
6
-11
-2
39
57
53
59
27
27
22
2
0
27
33
37
46
79
65
31
20
3
-13
26
54
47
63
73
41
25
12
1
1
19
56
60
41
48
19
18
29
-24
29
19
27
60
84
61
52
30
-31
-8
8
12
50
66
56
62
37
27
16
-5
25
19
26
34
46
56
39
12
-17
8
3
22
61
77
80
65
9
7
7
0
1
32
61
60
78
84
35
9
-11
-21
3
32
57
75
62
74
31
-9
-4
1
25
49
68
64
96
72
26
-6
1
-1
13
27
41
46
60
62
15
-10
-20
-16
24
46
72
60
73
58
30
9
-20
-23
-26
-14
32
83
82
37
41
6
3
-10
-3
28
36
78
54
11
-1
1
-31
-6
10
48
42
50
76
51
11
7
0
-15
-25
6
49
48
69
70
26
28
20
39
66
107
148
175
193
184
168
141
118
128
100
127
124
117
56
17
-11
-28
-24
-9
-8
32
70
79
55
31
8
-3
-4
-16
-8
14
47
59
71
53
16
-2
-13
23
8
50
49
58
80
37
8
5
-19
14
24
42
57
40
35
80
26
-5
11
5
24
33
53
78
65
57
8
7
-8
13
23
38
57
92
66
45
34
3
-26
5
39
74
83
83
68
30
16
0
-6
21
30
86
92
84
61
54
37
2
18
25
53
69
113
94
76
68
78
25
11
30
77
104
86
112
105
54
20
-10
-13
65
80
95
100
106
98
70
19
-5
27
64
108
78
91
96
74
34
17
-9
17
44
56
59
73
72
49
31
-5
-28
-8
15
32
55
80
59
34
38
-1
-5
9
7
26
48
69
70
28
2
8
14
-1
26
35
26
55
18
-1
48
33
-27
4
9
32
44
58
38
60
3
-4
-21
7
16
53
55
61
30
28
-13
13
-2
22
29
36
71
74
41
-3
-24
-16
12
38
38
20
60
77
41
27
10
-3
-24
-13
4
79
69
72
55
29
6
-2
-20
-7
31
29
34
68
52
18
19
5
-11
17
33
42
48
43
40
31
-5
-19
-27
25
50
42
50
47
17
55
18
-18
-16
25
25
8
22
64
52
30
-2
-23
-37
-19
20
56
91
97
50
-5
-28
-23
-13
12
16
47
41
25
73
57
5
-24
-17
11
11
11
64
108
48
15
-11
-39
-16
24
46
47
72
83
39
10
18
-7
25
14
9
38
69
84
44
22
9
-30
-10
13
52
69
54
34
31
-22
-23
16
2
-6
48
44
60
42
29
2
-17
-6
-29
-18
30
25
55
23
33
58
14
2
-5
-1
13
45
40
12
10
0
0
-25
5
