-134
-94
-84
-42
-39
-61
-72
-83
-113
-113
-117
-104
-72
-52
-55
-76
-76
-96
-116
-101
-103
-89
-87
-57
-61
-62
-102
-95
-124
-130
-94
-82
-70
-49
-37
-54
-78
-86
-129
-114
-105
-84
-72
-62
-64
-63
-66
-79
-110
-121
-100
-79
-72
-63
-44
-75
-84
-86
-108
-101
-92
-73
-73
-53
-63
-69
-91
-97
-111
-106
-95
-82
-78
-55
-44
-62
-86
-98
-124
-114
-98
-89
-70
-28
-40
-74
-105
-103
-117
-123
-96
-82
-57
-31
-55
-80
-91
-99
-114
-116
-101
-77
-74
-53
-55
-71
-79
-103
-122
-117
-99
-95
-83
-58
-53
-74
-93
-100
-132
-134
-86
-69
-60
-51
-47
-65
-87
-115
-110
-105
-99
-85
-68
-70
-59
-82
-88
-104
-106
-110
-93
-75
-55
-54
-63
-89
-101
-117
-129
-96
-83
-62
-53
-51
-62
-59
-85
-122
-119
-88
-83
-78
-51
-53
-58
-55
-77
-100
-91
-80
-67
-62
-23
-40
-61
-88
-86
-107
-95
-82
-75
-69
-44
-61
-66
-78
-93
-111
-119
-113
-83
-92
-61
-60
-73
-102
-104
-125
-138
-107
-93
-87
-97
-54
-55
-77
-105
-102
-113
-109
-90
-78
-58
-65
-85
-122
-119
-142
-152
-128
-108
-101
-70
-39
-31
-22
13
33
66
112
162
201
222
196
165
150
146
91
52
-7
-16
-14
-32
-54
-87
-97
-111
-123
-123
-107
-92
-80
-58
-64
-85
-102
-143
-138
-122
-92
-96
-75
-60
-78
-92
-99
-121
-129
-120
-105
-99
-75
-63
-70
-79
-87
-115
-132
-107
-104
-98
-74
-65
-62
-83
-97
-120
-126
-113
-101
-94
-74
-75
-79
-84
-85
-114
-120
-116
-126
-73
-54
-60
-71
-83
-72
-118
-130
-124
-90
-85
-54
-64
-67
-65
-94
-115
-102
-113
-89
-80
-55
-51
-65
-72
-79
-109
-105
-102
-104
-69
-50
-38
-51
-66
-84
-112
-103
-103
-80
-55
-39
-42
-50
-64
-78
-89
-103
-76
-48
-53
-36
-48
-45
-52
-74
-83
-70
-70
-47
-52
-29
-32
-43
-67
-72
-75
-83
-83
-67
-56
-43
-48
-58
-80
-112
-125
-94
-90
-84
-60
-45
-49
-86
-101
-105
-94
-106
-107
-86
-68
-61
-55
-78
-93
-112
-109
-113
-103
-83
-76
-53
-64
-108
-129
-137
-114
-88
-82
-77
-60
-45
-52
-86
-108
-141
-115
-104
-96
-92
-70
-47
-52
-95
-102
-117
-123
-127
-83
-73
-57
-64
-62
-77
-90
-121
-137
-120
-96
-85
-61
-51
-69
-79
-86
-123
-116
-111
-101
-80
-65
-67
-66
-74
-92
-118
-114
-102
-91
-86
-55
-66
-68
-83
-104
-131
-122
-103
-87
-95
-55
-53
-66
-74
-92
-121
-109
-89
-87
-84
-59
-54
-72
-83
-99
-121
-106
-106
-80
-78
-51
-49
-73
-87
-98
-128
-121
-92
-85
-71
-49
-61
-75
-98
-112
-115
-121
-94
-92
-82
-53
-49
-71
-83
-86
-109
-115
-112
-115
-85
-55
-58
-72
-82
-108
-117
-99
-89
-91
-73
-70
-66
-74
-83
-98
-112
-108
-106
-97
-70
-63
-65
-92
-98
-88
-115
-109
-87
-74
-63
-70
-75
-75
-96
-115
-117
-111
-89
-83
-97
-52
-54
-77
-107
-111
-113
-101
-86
-73
-58
-62
-66
-78
-93
-123
-110
-107
-99
-75
-57
-77
-60
-88
-96
-127
-107
-103
-81
-78
-65
-61
-66
-84
-89
-114
-102
-103
-96
-93
-84
-60
-46
-57
-88
-105
-106
-92
-73
-69
-45
-57
-47
-63
-69
-94
-90
-90
-79
-64
-48
-63
-33
-52
-81
-123
-104
-73
-74
-60
-37
-47
-54
-98
-96
-102
-127
-121
-91
-94
-53
-59
-72
-92
-104
-119
-119
-112
-83
-75
-66
-70
-82
-93
-92
-129
-112
-109
-84
-95
-74
-70
-76
-124
-132
-136
-147
-143
-117
-59
-29
-6
0
15
36
53
96
130
186
227
233
240
191
164
121
67
0
-38
-37
-39
-63
-67
-85
-106
-127
-128
-118
-79
-75
-63
-54
-63
-90
-104
-120
-125
-108
-100
-82
-69
-55
-66
-74
-122
-124
-121
-105
-86
-108
-77
-65
-67
-65
-97
-111
-108
-106
-94
-78
-63
-65
-75
-85
-109
-104
-109
-109
-99
-96
-46
-52
-66
-84
-81
-118
-128
-114
-102
-76
-39
-38
-75
-92
-70
-113
-104
-108
-82
-83
-54
-45
-49
-68
-85
-99
-92
-109
-96
-79
-58
-64
-58
-58
-73
-86
-87
-86
-78
-85
-55
-54
-13
-61
-67
-91
-79
-71
-48
-51
-35
-28
-51
-61
-70
-74
-71
-64
-51
-51
-15
0
-26
-46
-62
-64
-67
-55
-55
-37
-17
-17
-33
-60
-69
-82
-74
-55
-45
-31
-23
-41
-48
-70
-76
-91
-89
-80
-61
-53
-47
-42
-67
-101
-107
-112
-90
-83
-66
-67
-28
-46
-71
-74
-103
-107
-110
-93
-81
-70
-66
-50
-50
-74
-93
-111
-94
-82
-66
-48
-60
-62
-69
-90
-116
-100
-102
-97
-70
-48
-39
-61
-73
-87
-103
-99
-95
-78
-90
-63
-58
-52
-67
-82
-110
-97
-92
-85
-61
-63
-57
-45
-74
-76
-105
-106
-115
-94
-47
-53
-52
-59
-78
-86
-103
-102
-92
-85
-73
-40
-45
-51
-71
-81
-111
-106
-106
-80
-72
-58
-41
-56
-74
-88
-97
-80
-87
-80
-80
-50
-48
-57
-75
-91
-100
-100
-77
-66
-78
-55
-62
-91
-76
-67
-87
-97
-93
-82
-64
-45
-58
-51
-75
-91
-106
-116
-99
-79
-58
-46
-52
-59
-88
-85
-101
-105
-94
-86
-51
-55
-55
-67
-83
-101
-107
-100
-91
-76
-66
-61
-55
-87
-75
-89
-105
-107
-94
-82
-72
-46
-44
-68
-67
-87
-102
-91
-91
-75
-55
-68
-73
-62
-84
-85
-127
-111
-71
-68
-44
-53
-64
-52
-69
-119
-146
-102
-86
-54
-47
-55
-70
-74
-81
-83
-100
-110
-82
-69
-62
-54
-76
-72
-73
-99
-94
-95
-72
-66
-57
-50
-59
-79
-87
-118
-109
-82
-76
-72
-39
-58
-65
-85
-101
-131
-112
-77
-81
-67
-51
-40
-67
-74
-80
-106
-113
-90
-73
-58
-46
-30
-55
-73
-82
-98
-104
-89
-80
-37
-35
-35
-47
-71
-73
-82
-76
-65
-28
-61
-55
-22
-44
-56
-66
-84
-85
-73
-67
-75
-31
-28
-41
-66
-80
-107
-105
-102
-72
-60
-40
-48
-80
-84
-89
-117
-120
-108
-89
-73
-41
-36
-67
-97
-98
-108
-115
-87
-81
-63
-44
-53
-70
-89
-133
-148
-137
-118
-97
-73
-46
-30
-25
-13
-2
24
63
128
173
238
232
228
202
159
146
116
102
63
30
2
-10
-48
-89
-84
-94
-103
-108
-99
-73
-70
-41
-58
-62
-91
-100
-102
-102
-127
-89
-70
-52
-64
-64
-79
-105
-96
-96
-76
-89
-68
-47
-65
-72
-86
-108
-112
-94
-72
-69
-51
-54
-62
-76
-81
-103
-108
-89
-76
-77
-51
-48
-61
-85
-84
-114
-100
-88
-79
-66
-44
-43
-62
-84
-82
-89
-87
-85
-81
-69
-40
-36
-64
-72
-77
-83
-81
-82
-65
-50
-43
-31
-42
-81
-89
-74
-90
-78
-72
-46
-38
-24
-33
-53
-64
-71
-73
-57
-33
-45
-12
-15
-39
-38
-59
-69
-74
-52
-40
-18
2
-21
-23
-29
-58
-61
-52
-43
-34
-2
-4
-8
-17
-41
-74
-65
-57
-54
-52
-37
7
-6
-38
-34
-61
-76
-78
-61
-45
-25
-33
-30
-43
-69
-92
-89
-89
-70
-63
-43
-32
-34
-44
-66
-105
-125
-82
-65
-66
-55
-59
-59
-49
-66
-92
-83
-88
-70
-66
-35
-33
-48
-70
-80
-91
-94
-91
-60
-48
-42
-46
-51
-68
-62
-91
-105
-71
-65
-79
-70
-51
-43
-52
-62
-93
-84
-60
-64
-66
-43
-48
-58
-77
-66
-94
-92
-75
-77
-56
-46
-47
-50
-74
-62
-83
-82
-74
-46
-54
-27
-54
-52
-51
-70
-87
-89
-87
-70
-70
-64
-7
-33
-60
-69
-85
-100
-88
-67
-24
-12
-46
-51
-59
-79
-89
-74
-68
-73
-31
-26
-28
-61
-75
-91
-80
-85
-77
-72
-41
-30
-32
-47
-79
-101
-99
-78
-56
-52
-38
-29
-30
-52
-79
-100
-101
-78
-59
-67
-36
-19
-46
-59
-66
-83
-74
-72
-76
-85
-58
-42
-42
-55
-55
-82
-91
-70
-69
-48
-37
-46
-33
-56
-73
-87
-90
-97
-77
-60
-23
-31
-47
-57
-70
-85
-88
-63
-49
-56
-27
-31
-48
-61
-56
-104
-95
-94
-87
-63
-20
-25
-55
-47
-72
-81
-61
-66
-60
-56
-32
-33
-41
-56
-65
-79
-90
-88
-58
-52
-32
-34
-44
-78
-69
-77
-81
-68
-54
-50
-35
-36
-46
-56
-64
-93
-87
-69
-57
-45
-29
-19
-37
-74
-76
-94
-92
-50
-60
-40
-27
-22
-32
-48
-66
-84
-84
-74
-63
-47
-25
-37
-48
-57
-66
-87
-88
-83
-50
-25
-28
-12
-38
-62
-73
-66
-78
-70
-40
-41
-32
1
-8
-47
-65
-65
-52
-34
-29
-6
5
-9
-25
-42
-60
-69
-65
-59
-42
-2
5
-20
-57
-55
-65
-76
-73
-58
-42
-22
-37
-43
-67
-71
-96
-96
-87
-55
-50
-36
-30
-25
-38
-57
-93
-77
-75
-69
-58
-26
-25
-49
-75
-74
-107
-124
-105
-82
-82
-28
-32
5
5
19
45
86
114
169
227
262
263
243
222
194
135
107
75
46
30
18
7
-29
-55
-72
-102
-94
-78
-65
-61
-27
-2
-43
-57
-57
-92
-101
-91
-61
-43
-24
-23
-42
-62
-75
-101
-81
-79
-54
-47
-31
-39
-39
-57
-69
-94
-81
-63
-48
-42
-18
-31
-36
-53
-71
-91
-88
-68
-56
-41
-45
-50
-60
-59
-70
-76
-62
-51
-40
-30
-20
-27
-45
-58
-77
-83
-76
-55
-52
-19
-11
-12
-40
-64
-76
-72
-61
-53
-36
-27
-7
-22
-49
-56
-72
-66
-80
-61
-28
-4
5
-8
-21
-36
-56
-48
-41
-36
-54
-20
-10
22
-3
-27
-49
-51
-37
-16
-3
27
3
-3
-4
-22
-39
-45
-33
-20
-3
14
6
-1
2
-14
-38
-30
-35
-11
-7
11
-11
-8
-23
-39
-63
-56
-30
-41
-31
-13
2
-20
-38
-50
-69
-73
-56
-39
-34
-18
-19
-21
-45
-47
-66
-104
-91
-33
-30
-5
-5
-13
-38
-48
-72
-63
-68
-50
-28
-13
-26
-37
-53
-65
-81
-65
-57
-43
-36
-8
-17
-27
-46
-58
-74
-76
-57
-41
-31
-12
-12
-44
-68
-60
-63
-50
-52
-35
-28
-16
-26
-43
-43
-53
-66
-68
-62
-40
-23
-15
-23
-46
-52
-69
-73
-72
-32
-45
-41
-5
-13
-26
-46
-66
-71
-59
-49
-27
-21
-21
-22
-50
-45
-60
-65
-59
-41
-25
-16
-9
-13
-34
-55
-77
-78
-58
-53
-31
-43
0
-9
-30
-45
-75
-71
-68
-49
-23
-2
-11
-19
-34
-41
-69
-66
-71
-67
-37
-6
-6
-25
-42
-47
-74
-69
-58
-47
-47
-19
-31
-22
-50
-29
-62
-68
-50
-41
-32
-8
-25
-23
-29
-58
-89
-89
-47
-42
-43
-20
-7
-8
-38
-47
-74
-68
-54
-56
-44
-9
-18
-16
-26
-49
-75
-73
-64
-55
-36
-18
-11
-29
-47
-56
-58
-58
-72
-34
-28
-10
-14
-21
-37
-59
-78
-73
-54
-42
-22
-8
-4
-29
-42
-75
-80
-74
-48
-35
-20
-7
-16
-33
-41
-63
-79
-71
-55
-51
-18
3
-3
-29
-32
-57
-78
-68
-61
-26
-19
-12
-27
-36
-35
-54
-55
-60
-61
-42
-17
-7
-8
-35
-44
-66
-72
-68
-34
-27
-17
-10
-14
-31
-51
-72
-76
-57
-49
-31
4
10
-4
-28
-42
-58
-51
-52
-42
-22
8
7
14
-4
-27
-74
-55
-29
-24
-11
19
6
-3
-29
-36
-59
-57
-35
-45
-26
1
-22
-49
-56
-39
-62
-68
-54
-48
-28
1
-15
-21
-46
-48
-85
-73
-61
-50
-38
1
-27
-46
-44
-49
-101
-81
-73
-58
-47
-36
-38
-50
-75
-83
-85
-32
18
55
91
154
175
195
226
235
217
207
221
206
206
222
156
79
4
-12
-50
-82
-75
-69
-52
-16
-23
-35
-52
-78
-73
-83
-83
-27
-28
-23
-18
-34
-56
-72
-68
-87
-62
-50
-26
-19
-17
-45
-45
-85
-79
-56
-44
-37
-16
-20
-43
-44
-55
-87
-86
-66
-38
-47
0
-1
-20
-34
-50
-79
-80
-78
-72
-27
-16
-23
-36
-36
-38
-67
-61
-56
-59
-38
-9
-3
-22
-35
-35
-54
-53
-58
-52
-49
-1
-17
-12
-42
-38
-50
-50
-56
-39
-25
-4
-26
-4
-37
-32
-56
-54
-32
-11
-9
12
-4
-1
-10
-13
-41
-38
-26
-15
-3
20
26
6
-9
-6
-29
-33
-56
4
20
30
26
10
14
-10
-40
-20
-3
-5
6
15
30
16
-11
-20
-40
-54
-35
-22
-22
-6
-1
-13
-25
-45
-62
-42
-27
-30
-16
-1
-8
-42
-71
-77
-44
-61
-53
-16
-10
-12
-15
-41
-48
-63
-74
-46
-60
-49
-41
-18
-22
-35
-43
-60
-68
-57
-21
-34
-24
-17
-37
-19
-23
-37
-78
-85
-55
-37
-42
-40
-13
-8
-10
-31
-44
-71
-67
-39
-34
-55
-28
-30
-34
-29
-47
-71
-62
-55
-51
-25
-17
-21
-31
-39
-25
-71
-66
-54
-39
-46
-19
-5
-1
-26
-56
-77
-70
-50
-51
-37
-6
0
-10
-23
-40
-66
-63
-64
-28
-44
-12
7
-26
-35
-48
-68
-68
-57
-43
-24
-2
-27
-29
-55
-50
-67
-55
-52
-27
-34
-2
2
-27
-26
-55
-74
-75
-67
-54
-31
2
1
-22
-29
-53
-74
-73
-53
-42
-25
-15
-4
-33
-33
-50
-83
-69
-56
-49
-30
13
1
-18
-46
-58
-66
-59
-55
-33
-35
-12
-23
-33
-59
-63
-65
-52
-52
-40
-33
-1
-22
-30
-32
-58
-68
-61
-59
-36
-15
-8
-14
-16
-25
-64
-78
-65
-9
-5
-9
-1
5
-12
-27
-57
-42
-36
-32
-21
-4
-2
-1
-5
-20
-53
-47
-38
-30
-41
-11
-2
-23
-45
-57
-85
-67
-61
-36
-36
-24
-14
-12
-23
-37
-69
-56
-68
-50
-24
-19
-41
-22
-31
-29
-72
-69
-60
-52
-45
-25
-33
-58
-71
-65
-84
-71
-50
-3
16
68
108
130
145
170
171
201
206
210
212
243
227
178
102
34
-32
-54
-56
-45
-33
-10
-34
-44
-52
-61
-80
-80
-50
-43
-20
-8
-14
-30
-27
-51
-70
-72
-42
-34
-12
-17
-22
-32
-39
-50
-55
-56
-48
-50
-19
-19
-3
-8
-37
-52
-81
-75
-54
-26
-12
18
7
-21
-43
-46
-60
-47
-49
-50
-30
5
5
-10
-23
-39
-41
-51
-52
-21
4
13
-10
-28
-57
-45
-23
-23
-20
-13
28
33
-3
-11
-15
-52
-49
-48
-45
-21
8
40
10
-4
5
-25
-21
-31
-27
-26
47
43
26
4
25
-17
-12
-5
-12
2
44
55
41
12
3
-20
-29
8
35
41
67
57
46
16
5
3
24
8
23
39
57
56
31
8
4
-6
-12
-3
15
11
44
31
19
-5
-1
-27
-42
-29
-25
-11
-6
35
21
-10
-13
-33
-41
-21
-6
-11
11
18
5
-12
-11
-49
-30
-24
-5
-9
13
8
4
-13
-20
-27
-43
-32
-28
5
0
16
1
-8
-34
-63
-54
-13
14
17
43
23
15
-10
-28
-33
-38
-15
1
21
33
38
-3
-37
-52
-44
-19
-4
3
20
26
27
15
-1
-26
-24
-18
-4
2
27
36
24
-4
10
-34
-25
-31
2
20
38
47
31
18
0
-20
-15
-1
4
15
47
42
30
-12
-20
-36
-27
-6
6
24
32
40
52
23
4
-15
-10
-21
-2
15
24
41
33
18
10
-7
6
-13
3
21
43
28
9
21
9
-14
-27
-28
-8
41
54
56
41
36
7
-22
-8
8
8
14
42
45
36
18
11
-11
-22
3
14
29
56
36
31
31
1
-19
-19
-12
39
47
43
36
34
40
20
-3
0
31
57
66
69
71
59
45
14
-3
3
19
33
52
59
54
45
47
19
1
17
15
18
28
41
41
21
-6
-4
-3
3
10
23
40
52
54
30
16
6
-8
2
7
16
46
44
39
20
4
-6
-16
-8
-6
-18
6
13
53
59
60
75
101
133
169
223
257
281
314
294
249
225
232
214
207
172
123
103
62
35
12
-10
-8
-12
0
9
37
56
66
32
23
-2
2
9
24
25
50
61
57
30
21
-22
-18
-12
30
45
73
59
57
54
35
8
11
18
36
44
59
62
39
18
29
28
14
35
49
57
67
69
56
39
26
5
10
23
42
56
69
64
51
37
14
28
30
44
48
67
83
77
75
54
45
27
18
40
56
70
83
76
57
54
55
36
43
47
72
89
95
99
85
59
56
46
29
39
77
103
131
107
91
84
65
51
57
89
92
122
133
107
99
89
52
54
57
89
115
139
132
116
114
103
74
61
74
88
97
109
115
107
69
58
38
57
61
74
88
89
82
90
70
56
54
40
35
47
67
89
88
75
68
40
41
48
46
71
75
86
88
84
74
62
31
25
32
43
63
98
98
86
72
63
30
28
44
61
69
88
76
64
71
59
28
28
62
72
71
94
90
93
60
58
39
34
61
74
69
96
99
86
59
52
34
45
51
68
86
87
105
80
67
45
42
40
59
58
80
120
104
89
51
44
36
55
62
89
112
113
95
74
63
45
33
68
66
78
82
99
83
90
63
54
50
69
69
96
105
110
110
75
62
49
29
22
76
96
112
118
105
88
77
50
50
62
73
84
102
99
108
77
71
41
50
54
80
83
105
101
103
79
67
42
53
63
68
87
95
98
78
93
81
56
59
50
64
94
119
109
94
76
82
52
62
47
71
79
104
103
74
95
81
58
51
62
91
90
109
103
99
101
88
59
63
67
78
87
121
110
90
100
84
68
79
102
112
118
132
128
110
90
101
66
73
81
84
99
127
112
95
89
58
57
75
75
67
97
120
96
83
73
44
40
70
74
91
94
107
94
88
90
62
48
51
55
84
94
115
108
83
64
35
16
12
40
53
60
102
105
140
154
160
191
220
261
314
362
375
374
378
341
290
291
274
228
182
166
151
144
99
59
37
61
69
81
84
95
102
90
72
84
63
63
70
73
80
113
98
80
83
61
46
63
75
84
80
103
113
98
70
73
51
59
65
63
94
128
101
83
81
82
66
50
59
82
78
101
113
101
74
96
73
55
63
81
79
121
118
107
87
71
58
65
67
84
108
141
141
108
86
75
65
62
63
85
113
132
126
95
85
81
70
55
98
110
112
136
129
127
96
94
78
88
110
111
121
145
146
119
100
115
73
93
122
130
148
159
146
143
120
110
94
80
83
123
162
168
149
154
128
102
93
92
105
126
146
148
121
112
103
104
91
95
95
95
114
128
107
114
100
77
71
68
93
103
118
129
117
102
93
55
60
58
56
97
135
124
118
112
94
64
60
67
75
83
133
126
112
99
94
64
61
69
75
77
114
105
122
91
76
76
86
82
96
109
144
105
103
82
77
59
58
71
92
108
121
123
112
92
97
90
56
49
61
91
125
108
89
105
91
69
66
75
100
101
123
126
108
81
84
65
63
57
91
93
125
121
109
89
73
66
51
56
71
107
125
137
117
94
78
61
56
59
79
101
123
105
111
98
80
67
63
72
106
120
114
104
95
84
62
55
29
94
105
111
114
109
96
79
75
66
81
81
79
112
112
109
91
73
43
59
73
84
108
117
123
115
85
98
61
44
57
74
95
108
113
102
82
64
51
65
76
68
74
112
118
136
104
67
47
65
73
84
88
111
112
105
86
70
57
69
83
83
102
110
107
112
85
77
56
51
48
82
88
114
118
115
97
76
51
55
65
76
74
102
126
120
90
76
38
55
70
71
100
118
123
116
81
72
55
54
63
96
101
110
114
109
99
83
62
64
74
82
105
133
126
95
83
94
105
99
94
96
96
112
137
124
98
74
74
67
89
112
118
110
119
78
83
75
63
54
76
91
83
99
111
95
79
59
40
34
44
38
109
127
108
99
87
60
53
55
66
73
91
107
76
48
54
23
30
26
39
64
111
143
168
176
221
220
235
273
330
362
389
384
360
328
319
253
224
169
144
133
143
107
78
73
56
31
65
74
75
83
114
97
86
80
73
52
43
54
62
64
88
111
96
75
66
22
32
46
58
81
112
116
97
74
68
43
53
54
68
75
100
84
63
69
77
58
62
65
73
65
93
88
89
80
66
43
56
60
92
89
101
97
77
51
61
52
38
72
93
85
103
101
114
88
57
40
43
65
87
98
114
111
97
77
67
38
53
104
104
102
128
131
109
90
69
55
50
57
100
115
140
122
124
104
86
84
88
102
112
136
147
135
121
103
77
81
75
88
117
132
134
155
131
118
90
80
86
116
114
135
101
91
71
59
49
95
75
80
88
109
121
102
89
77
41
46
59
68
79
100
101
80
74
73
44
56
59
70
70
105
97
95
66
60
32
45
57
86
66
60
102
96
72
68
46
44
44
67
90
97
79
77
63
71
49
36
46
60
78
109
102
89
69
66
50
43
44
65
83
95
101
78
67
55
26
26
26
81
87
95
115
96
66
57
33
31
57
53
66
104
94
69
57
61
40
56
46
66
98
116
95
90
69
40
21
33
46
67
94
98
85
76
77
41
47
45
56
67
88
101
88
73
59
43
34
28
40
81
103
99
86
77
54
33
49
35
57
65
91
88
86
67
46
24
40
32
49
48
113
102
84
61
44
21
35
39
65
73
89
75
69
69
55
32
33
35
48
66
72
75
95
64
67
31
35
40
62
44
76
84
75
51
52
40
29
24
37
56
103
94
74
66
61
53
31
42
53
50
86
89
80
47
37
13
28
53
60
53
84
82
81
69
46
28
17
35
51
65
100
91
73
44
36
32
37
29
38
60
85
101
77
51
55
27
29
44
60
74
82
82
64
60
46
12
21
43
47
63
77
80
55
56
43
26
24
46
57
62
72
48
78
71
40
31
36
43
65
77
81
74
66
55
37
30
39
48
35
84
91
96
69
55
38
38
46
74
86
100
91
79
62
29
36
53
79
74
75
89
107
86
73
64
36
37
34
44
54
74
76
64
49
46
29
23
31
49
42
59
77
55
52
46
22
19
13
12
41
66
71
52
53
58
23
2
4
36
37
44
24
40
45
52
42
65
110
164
202
249
287
324
319
330
308
289
271
284
278
252
207
141
100
78
39
-2
2
26
41
49
73
62
51
46
30
19
10
29
53
62
64
65
44
25
-5
4
36
45
38
67
66
55
37
32
18
7
24
44
66
68
63
56
33
20
8
12
16
43
57
59
57
62
37
36
20
15
32
55
54
65
62
36
34
18
15
10
31
34
70
86
70
62
51
24
35
31
42
63
83
77
64
51
36
16
17
24
39
54
59
77
74
51
74
42
45
46
56
75
92
92
66
69
63
31
38
48
57
71
95
106
101
86
77
55
49
66
74
90
122
116
109
80
61
52
51
62
55
100
116
104
91
74
50
22
24
72
70
65
79
91
65
57
57
38
27
22
33
33
62
64
42
62
48
9
20
23
30
56
82
84
74
54
31
36
11
21
31
58
72
65
49
38
14
3
11
41
45
66
73
55
52
35
25
13
23
36
39
57
62
65
63
46
15
13
5
30
44
69
64
71
42
43
20
19
26
38
33
50
62
55
47
36
20
-6
11
43
49
54
66
50
44
39
6
19
33
42
30
45
68
53
55
32
21
23
20
35
41
70
62
60
39
36
7
16
25
50
57
70
64
63
41
41
14
11
23
27
21
78
74
72
54
34
6
8
-4
30
44
69
62
62
53
41
5
-7
-1
26
45
58
68
45
37
42
22
14
23
32
41
60
57
46
33
29
12
5
-10
25
45
58
70
55
28
17
18
-5
8
46
60
77
69
49
22
4
2
3
13
30
51
82
73
42
9
-9
16
-7
29
50
62
66
50
42
20
-10
-4
19
37
43
62
72
58
46
35
11
-3
10
17
36
63
58
57
39
26
12
-4
18
16
34
54
55
55
13
11
-19
12
21
46
37
49
72
62
43
20
8
2
16
34
49
58
48
46
35
21
-5
15
29
27
40
55
59
32
24
31
36
16
21
36
40
63
53
45
25
30
13
20
18
45
52
88
86
78
55
56
32
28
40
59
41
70
82
63
35
7
-3
38
30
47
52
58
59
48
52
21
-4
-8
14
25
21
47
51
32
0
7
2
5
7
33
33
68
63
47
25
5
-21
-5
15
21
25
44
17
3
-6
-23
-20
0
54
84
128
193
216
220
235
254
288
297
290
296
289
297
275
209
140
64
26
20
27
24
22
45
41
31
23
0
-4
-2
21
26
37
41
34
28
18
-10
-16
-21
12
15
45
50
42
34
20
1
-7
8
15
10
30
46
47
34
13
-11
10
13
18
25
42
47
48
19
-1
-13
-4
-2
24
35
64
53
34
12
25
-3
9
15
9
16
33
20
30
56
34
15
16
10
27
47
70
50
42
37
22
3
-1
9
34
32
60
67
50
49
42
5
3
10
32
64
71
53
55
66
46
28
22
33
47
51
66
63
57
72
61
42
45
52
75
61
90
91
72
64
46
33
29
45
54
69
76
106
87
67
29
6
23
29
34
54
92
71
42
28
2
-10
-2
25
25
34
60
59
40
12
-3
-10
-4
12
31
37
50
43
25
13
-1
-6
-6
-13
21
48
54
41
29
20
-16
-18
-2
7
32
53
62
43
23
15
-23
-25
-1
19
13
32
47
42
25
7
-28
-13
3
20
31
55
47
38
13
16
-28
-44
-12
33
24
44
47
39
8
-1
-1
-8
1
18
24
51
47
34
21
9
-18
-6
6
14
38
43
25
31
27
9
-26
-2
12
33
40
50
44
33
9
3
-11
-10
10
16
34
60
60
28
2
3
-10
-6
3
25
30
55
56
25
4
-8
-18
0
5
21
29
45
44
16
5
8
1
-11
-8
25
22
59
42
27
20
2
-13
-39
-4
23
37
45
13
20
12
21
-8
-8
7
21
38
55
58
17
-4
-13
-21
-7
-5
4
55
60
28
13
-1
-16
-8
-12
-5
12
26
49
41
15
28
-10
-12
-14
16
17
34
30
28
33
15
-9
-7
-2
8
2
51
39
21
15
23
-9
-21
-24
0
2
52
42
39
27
8
-26
-36
-32
9
22
52
49
25
25
23
-21
-7
2
22
16
33
31
29
3
-2
-28
-29
2
16
18
42
49
36
-4
-3
-25
-9
8
16
14
43
30
45
18
22
-14
-18
20
20
24
54
64
42
38
24
3
1
21
27
23
48
65
50
32
22
5
-2
7
4
28
63
52
31
15
-12
-28
-40
-14
17
27
60
43
23
12
-30
-37
-31
-11
-11
13
45
44
30
5
-29
-50
-2
4
4
22
19
11
15
-30
-51
-42
-34
-21
1
33
88
103
115
130
141
176
217
282
300
316
313
272
254
219
174
117
72
53
47
65
48
23
3
-2
-28
-15
-16
-6
-6
32
22
35
12
-3
-37
-18
-10
-1
5
34
27
13
-1
-10
-31
-31
-9
3
15
52
44
7
5
-12
-44
-37
-32
-13
22
52
39
13
-12
-2
-26
-30
-11
20
16
33
22
6
1
10
-7
-22
-15
7
10
34
29
25
17
-7
-19
-4
5
19
23
36
30
14
14
3
-14
-11
-10
12
28
43
36
33
2
-15
-6
4
-9
13
25
43
59
38
16
26
2
-3
12
15
40
88
68
36
27
27
9
4
19
41
61
80
75
53
38
8
5
1
33
52
52
64
86
60
30
0
1
22
25
39
66
57
40
29
17
-13
-14
-13
6
27
46
41
40
23
-12
-27
-25
-17
-1
0
36
32
17
3
7
-36
-27
-22
-8
8
36
29
18
25
-6
-24
-19
-19
-9
5
37
19
25
17
2
-27
-32
-14
5
7
40
22
11
-1
4
-22
-12
-14
-14
-8
26
40
28
5
1
-8
-13
-23
-5
15
28
30
21
12
-16
-38
-23
-17
8
15
28
35
10
-1
-20
-19
-19
-1
5
14
27
30
28
9
-6
-20
-24
-13
10
20
37
41
22
0
-12
-29
-17
-14
6
20
30
16
4
8
1
-10
-16
-8
4
35
28
33
17
-6
-29
-33
-36
-3
-1
17
37
40
25
0
-26
-34
-16
-7
3
23
29
23
14
-3
-23
-20
-25
-13
-1
33
33
26
10
-10
-20
-19
-24
-9
5
20
26
15
-7
-15
-34
-8
-2
-4
9
41
39
33
-8
-15
-37
-47
-31
6
11
29
15
7
13
1
-21
-20
-21
5
11
33
29
18
-7
1
-24
-27
-20
3
5
20
21
20
4
-10
-37
-13
-13
1
4
30
17
5
13
-5
-22
-21
-27
-2
8
28
32
18
-3
-18
-42
-32
-12
5
1
23
30
9
-5
1
-31
-33
-26
-13
9
45
30
7
3
-5
-24
-32
-20
23
22
30
34
12
-20
-20
-38
-1
8
26
30
39
38
26
-6
-3
-21
-23
-6
1
21
37
54
27
13
-8
-7
-14
-3
7
2
11
3
-8
-37
-32
-33
-25
-11
-8
18
24
11
-1
-25
-53
-45
-46
-24
-24
11
18
4
-17
-28
-41
-37
-37
-32
-14
-15
-28
-19
-42
-43
-55
-23
-9
44
68
125
148
194
216
233
223
247
246
248
238
253
228
172
107
47
-5
-27
-26
-11
-12
6
12
-15
-18
-18
-64
-83
-22
1
5
10
15
-11
-30
-26
-45
-49
-45
-30
-29
3
10
-6
-25
-28
-48
-49
-29
-17
-12
16
-9
-10
-20
-40
-71
-47
-30
-23
-11
9
-9
-3
-28
-41
-54
-29
-18
-1
-8
13
-3
-13
-14
-27
-45
-40
-28
-10
4
25
21
-30
-43
-41
-38
-30
-19
1
26
18
15
-13
-47
-67
-29
-24
-18
0
12
32
6
-11
6
-11
-28
-31
-12
-6
31
28
13
7
7
-4
-13
-4
18
16
36
52
52
34
30
7
1
34
41
76
110
105
87
73
55
26
23
15
29
36
70
57
65
51
30
6
-18
-16
15
17
44
43
34
15
7
-22
-36
-14
0
-12
13
30
35
-9
-11
-35
-32
-21
-8
5
25
8
-5
-11
-13
-50
-49
-28
-11
32
22
3
1
-16
-21
-37
-34
-19
-21
-17
17
10
-3
-7
-20
-50
-22
-29
-23
-4
12
18
-9
-15
-14
-42
-47
-20
-10
-2
4
5
-17
-18
-18
-26
-22
-22
-12
1
11
12
-9
-21
-40
-48
-45
-17
0
-5
8
6
-1
-16
-35
-56
-41
-2
-4
14
13
6
3
-5
-39
-37
-26
-20
-18
6
26
10
-13
-22
-50
-17
-29
-22
-10
5
23
11
-13
-5
-37
-28
-23
-18
-21
4
-3
14
4
-2
-33
-38
-36
-30
-13
2
13
21
-3
-15
-45
-38
-27
-18
2
13
24
10
-19
-14
-38
-30
-37
-27
-12
8
3
-9
7
-16
-26
-48
-34
-21
-33
3
5
19
14
-24
-57
-59
-56
-18
-13
9
12
-2
3
-1
-30
-50
-30
-11
-11
16
13
15
-17
-23
-56
-44
-29
-4
-5
17
4
-13
-14
-13
-47
-50
-35
-6
-7
3
-7
-25
-13
-39
-47
-27
-19
-20
14
29
13
-4
-9
-19
-45
-39
-22
-21
-2
4
8
-7
-4
-24
-55
-39
-33
-19
7
14
14
-2
-14
-36
-40
-23
-35
-38
-20
43
29
0
-11
-26
-45
-43
-16
0
10
24
23
-1
-23
-37
-39
-34
-5
-9
22
46
36
24
6
-20
-29
-23
-10
-1
29
39
29
13
-6
-49
-57
-37
22
14
29
25
21
2
-29
-48
-38
-52
-28
-18
19
6
-6
-5
-28
-64
-63
-48
-24
-14
12
12
6
2
-26
-51
-64
-66
-41
-22
6
-5
-22
-28
-46
-56
-41
-30
-18
39
79
109
140
152
174
209
248
259
263
250
253
240
222
164
87
19
-28
-20
-26
-18
17
18
-15
-50
-47
-72
-53
-50
-26
-1
14
21
15
-15
-37
-53
-48
-28
-18
-22
-2
-3
-31
-30
-48
-65
-30
-32
-27
4
7
-1
-10
-31
-39
-40
-42
-38
-17
-15
0
19
-5
-25
-42
-63
-53
-39
-11
7
27
3
-6
-20
-39
-41
-37
-33
-19
6
13
15
-2
-10
-37
-39
-43
-35
-23
24
15
18
-4
3
-43
-57
-47
-16
18
26
14
13
-4
-28
-41
-11
-11
-4
7
37
35
25
3
14
-27
-4
-9
-4
5
42
40
26
37
25
-19
3
2
22
28
61
53
45
24
15
-9
-4
-6
3
30
75
74
36
29
27
2
-1
-6
22
16
29
33
12
-6
-18
-41
-40
0
3
3
20
25
6
-8
-27
-30
-42
-53
-19
5
11
-1
-1
-5
-41
-54
-57
-45
-11
10
23
20
13
-17
-35
-51
-45
-31
-10
-4
-7
-12
2
-13
-38
-47
-46
-38
-3
14
2
3
-8
-18
-27
-47
-40
-31
-32
-16
-13
10
-10
-13
-21
-48
-39
-23
-12
11
15
-13
-37
0
-38
-38
-40
-19
-15
1
8
16
-18
-19
-41
-45
-31
-17
-8
2
9
-11
-13
-19
-50
-35
-25
-20
-11
7
5
20
-4
-19
-60
-58
-23
1
-13
9
14
-4
-12
-5
-52
-48
-40
-27
-5
11
4
-5
-18
-14
-57
-60
-38
-10
-1
-2
-1
2
-12
-39
-63
-68
-39
-1
-11
14
5
7
-5
-21
-41
-49
-55
-18
-10
16
15
-12
-38
-35
-38
-54
-42
-26
-27
3
11
3
-8
-24
-41
-52
-51
-35
-31
15
16
17
-33
-40
-42
-43
-50
-42
-21
21
23
-3
-24
-38
-45
-33
-28
-28
-16
11
1
-6
-9
-38
-52
-35
-10
-5
20
14
2
-3
-15
-47
-64
-45
0
2
20
31
23
6
-2
-25
-34
-38
-33
9
28
27
11
2
-6
-33
-40
-33
-30
-29
-7
8
-2
-13
-20
-54
-47
-52
-26
-22
4
-4
-27
-59
-68
-50
-56
-43
-9
-18
4
4
3
-15
-43
-70
-80
-43
-43
-42
-10
-17
-28
-35
-56
-44
-7
31
83
128
191
219
231
247
227
177
164
164
182
180
154
90
34
-14
-46
-62
-63
-69
-47
-42
-22
-11
-28
-40
-44
-69
-43
-34
-30
-28
-19
-10
-7
-13
-24
-59
-43
-45
-40
-21
-5
-11
-19
-47
-34
-50
-61
-27
-20
-23
-25
-18
-6
-10
-42
-51
-37
-35
-24
-4
0
-7
-27
-31
-42
-59
-42
-33
-24
-28
-18
-13
-21
-41
-31
-37
-39
-34
-3
2
13
3
-17
-28
-50
-63
-59
-54
-56
10
48
26
-9
-19
-33
-23
-26
-25
-11
20
12
7
-11
-22
-30
-30
-22
-5
-11
27
27
16
12
2
-8
-15
-12
2
5
33
46
34
25
10
0
-14
-4
16
22
52
56
38
25
11
-8
2
10
2
15
44
45
30
16
9
-24
-42
-30
-1
-3
26
23
14
-9
-31
-49
-55
-55
-32
-15
5
6
8
-7
-33
-57
-43
-45
-36
-26
0
39
12
-18
-38
-52
-54
-45
-34
-6
3
10
-7
-27
-40
-63
-52
-32
-17
-14
9
16
-11
-30
-42
-54
-71
-46
-28
-4
-10
-15
-15
-25
-55
-59
-47
-33
-13
-7
8
13
2
-27
-28
-49
-51
-32
-20
-10
0
-9
-23
-34
-50
-69
-41
-39
-21
19
15
1
-8
-15
-46
-56
-59
-55
-32
0
5
9
-5
-29
-41
-47
-36
-17
-10
-11
13
-4
-9
-19
-49
-52
-52
-32
-11
3
7
-5
-18
-34
-36
-35
-46
-31
-15
16
6
3
-6
-27
-48
-29
-30
-24
-25
-18
7
1
27
-3
-27
-25
-26
-11
4
40
26
34
18
-4
-19
-20
-22
-9
-22
21
24
18
7
0
-20
-26
-17
6
13
41
32
10
1
-15
-49
-56
-28
5
8
40
47
20
9
-3
-42
-38
-18
3
8
37
38
11
-1
-27
-34
-20
-23
-26
-2
29
35
19
0
-18
-42
-47
-27
-6
18
31
13
-23
-45
-31
-14
-19
-7
-10
0
28
22
-1
-10
-35
-48
-30
-24
-13
1
25
32
11
-10
2
-10
-18
6
0
18
25
29
11
-6
-15
-27
-17
-16
-6
4
5
-16
8
-8
-31
-35
-44
-40
-8
7
8
1
-8
-18
-47
-44
-37
-24
-32
5
-5
-20
-35
-38
-47
-41
-38
-30
-11
11
-9
-19
-42
-54
-76
-69
-59
-49
-23
19
40
56
45
66
103
116
170
210
256
293
290
250
213
175
173
128
95
79
46
48
40
5
-23
-31
-54
-59
-54
-20
-24
-6
-4
-14
-16
-17
-42
-49
-54
-25
4
4
-13
-21
-46
-22
-58
-50
-26
-21
-20
5
-2
-19
-39
-44
-67
-64
-38
-44
2
15
1
-21
-31
-41
-41
-46
-45
-11
-3
21
20
7
-30
-53
-56
-62
-55
-23
1
15
-3
1
-25
-49
-42
-36
-30
-10
3
4
8
-5
-21
-43
-57
-55
-37
-18
15
15
12
-11
-20
-39
-31
-29
-5
4
28
27
18
-13
-28
-57
-53
-7
13
9
26
34
16
13
0
-12
-23
-8
9
17
42
45
33
25
-9
-17
-9
-3
16
22
50
39
40
16
7
-42
-49
11
-5
14
48
44
27
7
-10
-41
-44
-32
-31
-34
39
25
5
-1
-26
-41
-37
-39
-23
0
15
15
7
-29
-35
-66
-70
-44
-21
3
17
11
-8
-19
-40
-47
-54
-53
-51
-78
-21
43
18
-8
-23
-55
-45
-37
-25
-9
14
11
-8
-25
-52
-66
-50
-36
-32
-17
-25
1
-8
-13
-42
-48
-53
-39
-28
-1
14
6
-13
-32
-58
-70
-46
-42
-15
-7
3
-2
-17
-26
-54
-53
-43
-24
-36
-1
14
-14
-22
-20
-46
-58
-60
-50
-33
2
11
-9
-9
-28
-50
-36
-35
-53
-39
-2
16
-5
-14
-20
-57
-55
-49
-40
-26
13
16
3
-22
-56
-49
-44
-50
-47
-32
18
5
0
-21
-32
-52
-50
-45
-35
-30
-7
-1
-5
-19
-39
-68
-71
-43
-28
-14
7
8
0
-19
-43
-85
-58
-38
-32
-24
-12
-5
-14
-18
-38
-54
-70
-46
-31
-26
-7
3
3
-12
-38
-62
-62
-48
-27
-28
-5
-3
-8
-43
-50
-58
-65
-37
-18
-25
-1
-14
-17
-22
-46
-64
-56
-42
-16
-12
-9
-9
-20
-30
-53
-68
-67
-38
-39
-9
-2
11
1
-22
-38
-70
-68
-48
-24
-10
-20
-16
-27
-42
-33
-47
-40
-31
-25
-5
0
-3
-18
-38
-56
-64
-64
-48
-19
-1
13
-7
-14
-25
-40
-41
-45
-30
-22
9
-1
-16
-18
-24
-32
-18
-22
-3
11
28
27
14
-2
-13
-47
-32
-35
-18
-9
3
23
18
0
-21
-46
-47
-48
-44
-37
-4
5
-7
-16
-2
-49
-68
-60
-55
-38
-26
2
-6
-9
-19
-56
-77
-72
-30
0
12
14
-8
-23
-49
-79
-91
-75
-58
-24
-13
3
9
11
30
27
83
105
137
209
255
248
304
281
245
203
186
181
143
97
74
48
22
-15
-44
-72
-65
-33
-10
-25
-1
13
-1
-20
-37
-47
-54
-26
-25
-10
-10
5
-16
-26
-50
-50
-42
-40
-16
-7
11
8
-11
-30
-49
-65
-30
-24
-12
15
12
-3
-13
-21
-47
-54
-55
-29
-14
-4
5
3
-2
-10
-20
-27
-33
-13
-13
0
18
16
-3
-42
-72
-35
-15
-14
-3
25
30
22
-4
-10
-26
-33
-21
-13
-11
21
19
16
6
-4
-20
-21
-14
-1
18
36
38
34
11
5
-7
-2
-11
-10
17
49
42
33
25
20
-15
4
10
30
24
67
76
56
50
15
-5
1
20
26
33
76
85
67
46
22
4
6
22
30
47
58
80
44
5
23
0
-21
-12
14
29
45
46
35
19
1
-24
-27
-18
11
29
25
42
22
-4
-29
-41
-9
-9
-6
20
49
34
24
12
7
-22
-25
-18
0
17
25
38
30
4
-2
-21
-19
-5
6
28
24
33
32
15
-5
-14
-19
-17
-3
14
38
36
28
20
-11
-30
-19
10
-1
24
33
55
18
3
-13
-17
-2
3
18
24
33
36
40
6
-16
-22
-5
15
10
41
44
38
15
8
-28
-12
3
10
17
46
52
65
39
8
-10
-30
-14
8
18
53
51
29
13
18
-2
0
5
18
19
47
58
45
15
6
-10
10
6
8
24
46
45
44
24
7
-21
1
-4
12
21
62
65
51
26
27
9
-5
11
26
35
43
33
12
14
14
-1
9
9
28
30
60
46
27
34
3
-14
-8
0
31
46
54
53
40
25
14
6
9
15
27
50
53
61
38
7
-1
-20
12
6
40
35
52
45
47
47
13
-3
-3
20
29
29
50
58
58
23
5
7
22
27
39
46
67
70
55
37
25
27
47
19
11
51
92
93
53
45
31
24
29
41
58
73
83
74
62
44
32
9
14
35
47
67
64
65
36
22
-10
-7
10
17
36
71
60
59
51
24
-13
4
10
26
44
64
47
53
30
23
-1
10
15
27
34
51
53
14
8
4
-30
2
28
57
94
151
174
202
221
243
255
273
296
291
297
322
290
256
183
118
48
22
31
34
29
44
55
50
35
23
11
7
21
31
37
57
68
43
25
13
15
22
15
30
41
60
65
52
27
27
11
17
28
50
40
48
58
62
28
21
24
14
30
56
60
67
54
53
52
30
5
29
39
44
66
70
63
53
46
28
15
21
51
46
57
78
97
79
34
21
31
26
27
51
81
81
70
82
47
24
33
37
54
54
88
90
96
72
58
41
44
47
54
61
101
117
108
84
64
32
54
59
66
97
108
122
105
81
90
67
67
80
85
104
133
111
86
79
87
88
74
78
99
105
126
126
105
99
80
54
44
63
70
89
120
116
99
65
70
40
34
64
58
64
81
94
85
56
42
33
45
45
60
68
85
81
79
55
49
30
31
47
51
58
86
89
74
59
46
22
37
48
57
75
91
89
71
54
43
46
35
38
54
68
73
66
54
70
56
38
42
57
63
77
88
79
50
50
45
25
35
42
58
86
92
98
71
57
38
41
30
37
55
84
75
84
69
59
41
39
43
52
70
79
101
90
78
62
37
37
46
59
67
85
81
80
63
39
38
42
30
59
80
104
99
79
80
73
44
39
34
54
75
99
89
89
65
50
30
37
32
60
80
80
65
77
68
45
41
30
44
62
84
91
99
87
67
52
26
30
43
55
59
92
98
69
64
66
39
28
48
67
73
90
85
75
53
53
27
26
50
79
63
86
92
59
39
65
44
56
58
61
54
95
79
68
65
58
51
48
43
72
61
81
85
73
58
56
39
35
58
58
74
88
85
72
50
25
37
47
59
71
68
79
101
90
64
44
42
38
42
66
83
88
89
69
44
33
41
51
55
59
78
101
94
75
76
38
53
52
62
71
96
113
92
74
61
48
46
52
74
87
103
105
102
77
98
67
46
61
80
90
111
112
103
76
70
44
51
54
69
60
73
78
84
69
62
39
28
50
62
65
90
94
83
78
63
21
28
41
59
61
86
83
69
50
86
42
35
22
38
25
55
77
70
60
62
70
109
136
176
231
303
339
353
353
342
307
283
266
303
293
254
195
138
102
73
40
39
41
72
76
86
79
79
57
47
30
33
34
46
99
99
92
82
65
47
33
36
48
60
70
89
83
82
51
44
32
27
44
67
70
93
108
94
58
40
38
45
53
77
84
85
78
69
58
55
44
46
62
66
88
107
96
75
44
21
42
62
65
83
86
98
102
75
76
50
51
51
69
82
86
89
74
82
70
51
60
79
88
93
106
82
100
99
69
52
59
60
68
91
113
124
104
93
89
72
62
65
85
123
145
138
113
103
102
74
70
83
107
120
134
119
120
130
95
74
67
93
98
100
131
127
124
105
92
80
63
76
75
67
92
117
93
68
75
50
54
73
77
84
101
100
83
58
53
45
48
66
77
64
95
81
79
67
66
30
30
55
74
87
101
100
85
58
52
39
21
43
77
78
93
93
78
74
55
34
39
62
57
81
95
79
70
66
50
43
46
66
65
84
87
79
64
71
42
43
51
56
48
69
93
102
74
60
34
26
36
66
68
86
100
77
73
56
39
60
54
60
62
91
104
95
73
64
21
34
42
61
67
86
93
88
80
62
26
36
48
44
50
93
103
80
75
61
41
23
42
74
76
86
91
84
62
62
29
23
27
48
67
95
97
79
67
51
22
28
31
78
70
88
108
74
46
42
19
28
31
61
58
79
83
87
69
48
24
11
49
62
72
97
87
83
54
34
19
-2
27
58
77
111
91
63
59
46
21
21
28
41
61
83
98
66
51
33
39
30
44
62
74
79
80
64
47
28
20
17
57
70
86
84
83
80
66
53
47
47
56
74
85
84
80
72
43
58
45
47
44
68
76
76
86
78
60
26
22
27
28
47
58
58
58
69
42
10
19
28
30
38
72
77
65
49
22
7
2
21
43
48
72
70
58
31
9
-36
-24
-15
10
28
75
86
90
101
108
131
154
214
265
302
352
344
305
266
268
226
198
157
108
84
87
66
52
21
12
-7
-7
2
35
32
59
64
58
45
40
5
14
29
26
27
63
51
48
32
11
-15
-1
1
49
61
72
69
46
35
24
3
-1
-4
23
53
58
66
54
29
15
7
6
32
48
44
68
53
35
32
12
9
14
23
38
58
76
53
18
18
29
23
21
33
40
48
81
74
50
15
6
23
18
35
50
67
82
83
46
36
14
2
21
38
49
78
89
85
61
50
14
18
7
45
84
90
81
63
69
52
41
43
50
71
81
98
102
67
61
58
55
55
63
69
80
94
103
97
72
47
49
54
37
54
59
78
91
54
54
62
27
34
32
38
46
68
62
55
39
13
1
21
20
23
36
48
63
59
35
24
5
9
9
24
35
64
67
40
22
12
-8
-9
-4
16
44
54
68
52
21
17
11
-15
3
36
49
51
70
50
35
2
-24
3
11
23
33
28
71
49
17
0
7
-2
17
29
43
29
35
47
24
17
21
-3
6
31
33
42
31
63
36
7
-3
4
13
31
25
53
70
52
38
15
3
13
5
18
56
70
53
32
24
-1
3
7
20
33
69
69
50
41
39
8
-8
25
22
10
35
67
51
38
34
-7
3
12
24
30
57
61
45
33
17
2
4
5
20
25
41
60
32
29
19
24
19
22
4
30
59
60
38
21
14
-20
1
26
20
32
57
51
46
31
22
5
5
9
23
14
31
39
48
39
13
9
6
12
18
38
54
69
43
15
1
-22
-6
30
18
25
64
49
49
25
23
4
1
9
24
37
60
54
51
21
5
12
12
24
30
44
42
39
26
36
22
-5
8
38
31
54
64
49
42
24
14
14
-5
18
21
47
69
60
62
53
29
29
26
45
66
78
85
63
50
34
25
20
27
36
42
52
64
44
47
32
19
18
15
29
35
60
53
46
24
18
-1
-2
-7
16
40
47
49
53
46
32
10
10
28
12
24
59
39
41
15
-3
-27
-13
-2
8
19
52
79
106
126
168
175
185
222
265
302
326
325
297
254
238
206
166
118
93
71
80
62
34
30
28
3
12
4
28
47
46
64
46
38
20
-1
5
28
21
28
69
56
42
33
35
12
6
23
35
31
50
56
50
34
19
2
-23
10
53
75
70
76
63
21
22
3
-1
1
54
70
81
73
57
40
35
24
22
39
45
71
71
44
28
56
43
16
24
46
51
61
56
62
51
49
32
37
46
57
67
84
85
83
78
57
48
37
39
61
83
89
86
99
86
73
52
58
66
79
86
102
105
97
84
96
55
63
67
70
88
131
151
149
116
92
76
75
81
86
96
116
108
117
116
103
80
70
90
101
92
106
106
119
79
78
51
42
39
90
106
113
113
94
65
73
34
47
57
73
82
93
109
93
79
67
40
43
48
56
84
103
100
79
78
72
43
47
54
68
80
120
112
90
76
71
45
51
58
79
90
101
106
91
86
73
52
51
52
66
97
109
117
110
92
66
57
57
82
83
98
113
113
102
98
75
54
69
66
94
114
119
112
85
91
88
61
70
87
93
100
125
133
106
93
67
71
93
78
99
136
140
126
115
97
69
73
79
92
107
127
130
133
116
109
94
71
77
97
112
132
143
135
123
110
76
79
72
89
108
134
145
141
124
101
79
92
93
94
113
135
127
131
124
135
89
85
101
108
109
127
146
143
121
126
94
86
100
102
122
156
144
141
120
112
93
87
102
100
114
152
146
148
114
112
97
103
106
125
138
149
161
139
119
104
90
99
99
112
122
162
169
139
132
119
79
96
115
128
149
159
157
145
121
111
91
100
116
120
155
151
158
139
129
120
96
109
120
141
152
171
168
148
147
123
101
108
123
132
153
181
177
159
144
133
128
135
151
150
167
183
182
169
156
131
120
147
155
155
170
196
182
159
136
103
94
117
143
125
144
173
186
148
142
105
114
117
125
123
157
166
168
147
128
101
114
125
148
155
169
172
151
126
124
99
96
89
104
126
154
158
177
188
206
203
231
293
342
368
436
453
460
441
425
360
361
323
296
247
256
241
197
167
138
120
127
131
138
152
170
183
176
153
145
119
112
138
139
145
187
179
150
149
145
124
118
156
163
171
184
181
162
152
137
133
102
136
156
177
190
177
167
162
148
133
119
133
153
167
192
192
170
169
139
133
118
135
171
170
172
168
169
164
144
150
148
169
172
169
201
202
182
159
144
131
124
162
178
205
209
195
185
167
155
142
142
172
179
198
204
218
203
187
154
145
155
183
175
225
227
217
200
193
176
173
178
199
211
229
239
226
208
198
175
180
191
204
225
252
251
229
200
200
168
183
189
199
214
217
230
203
217
201
159
166
172
184
177
216
218
189
173
170
148
149
174
188
194
208
202
192
181
174
144
151
173
171
192
207
219
200
175
150
135
141
165
182
190
203
207
201
180
171
149
147
154
173
184
224
207
203
181
173
151
160
166
174
189
203
195
181
181
184
154
148
172
180
198
206
206
200
183
163
141
144
148
178
198
221
222
203
168
158
155
159
177
179
191
202
202
164
168
158
152
165
182
192
217
228
201
205
168
161
162
158
182
190
200
216
191
158
171
158
159
170
181
201
228
205
196
182
184
159
154
151
168
182
196
186
175
207
186
164
186
174
166
181
206
196
200
186
178
148
151
161
182
178
182
193
199
187
174
132
144
170
187
189
210
211
201
187
171
147
145
164
180
173
178
159
181
201
186
153
152
157
171
184
208
206
204
191
181
141
140
175
194
192
203
196
185
189
172
142
153
164
183
185
193
197
199
184
165
156
163
164
192
185
190
190
160
154
176
157
155
176
200
202
205
206
190
176
174
151
163
157
180
211
217
200
184
157
142
130
157
171
180
197
211
202
195
192
166
157
151
175
178
184
209
191
154
128
128
175
173
200
201
212
221
194
187
