-28
-21
-30
-31
-12
-12
-23
-28
-20
-22
-25
-23
-23
-21
-26
-19
-21
-19
-18
-21
-22
-13
-25
-22
-24
-28
-25
-20
-21
-22
-15
-16
-17
-14
-18
-23
-27
-21
-20
-26
-26
-20
-21
-24
-22
-18
-29
-19
-21
-24
-21
-17
-18
-23
-17
-22
-29
-21
-20
-25
-36
-24
-26
-26
-16
-18
-20
-25
-25
-19
-13
-23
-39
-32
-17
-17
-27
-29
-22
-25
-20
-19
-24
-28
-21
-29
-25
-28
-19
-25
-33
-30
-29
-35
-23
-27
-23
-26
-22
-25
-27
-28
-23
-22
-24
-14
-28
-23
-30
-24
-32
-33
-29
-28
-23
-30
-29
-18
-21
-28
-26
-24
-24
-23
-8
-18
-18
-21
-21
-23
-21
-22
-18
-24
-14
-15
-17
-17
-22
-20
-13
-10
-17
-25
-19
-22
-33
-39
-39
-29
-29
-26
-27
-32
-27
-20
-28
-25
-24
-28
-24
-29
-37
-34
-28
-30
-35
-38
-27
-29
-34
-26
-34
-33
-24
-29
-28
-29
-31
-39
-28
-33
-29
-33
-32
-37
-40
-34
-33
-45
-55
-45
-46
-34
-13
7
22
57
82
109
120
138
137
129
109
99
99
79
44
5
-15
-27
-15
-15
-20
-14
-18
-15
-17
-21
-20
-33
-22
-15
-22
-23
-24
-19
-21
-22
-27
-18
-18
-21
-24
-16
-18
-19
-22
-20
-11
-16
-26
-19
-23
-16
-22
-16
-16
-17
-16
-16
-16
-16
-16
-12
-12
-9
-20
-19
-26
-27
-12
-8
-18
-17
-7
-11
-1
-1
-3
-6
-12
-10
-6
-1
2
-1
0
8
-2
-3
10
11
-1
2
3
1
5
12
12
22
23
28
25
25
22
15
19
26
24
22
27
42
41
31
34
29
34
33
22
26
32
37
32
34
30
22
19
22
26
10
6
16
11
9
17
10
4
4
3
4
-1
0
-3
1
0
-12
-21
-22
-10
-12
-12
-19
-31
-27
-18
-17
-21
-25
-26
-24
-21
-20
-20
-20
-14
-24
-25
-25
-25
-22
-23
-27
-29
-39
-23
-25
-22
-35
-24
-23
-14
-16
-21
-18
-24
-26
-27
-33
-32
-20
-17
-27
-28
-22
-23
-18
-23
-25
-22
-25
-23
-16
-17
-22
-18
-18
-16
-26
-27
-21
-24
-21
-22
-23
-29
-21
-16
-24
-23
-21
-20
-12
-13
-21
-21
-23
-14
-14
-17
-15
-9
-21
-20
-20
-26
-21
-19
-26
-26
-17
-13
-29
-27
-22
-18
-18
-19
-15
-18
-23
-22
-24
-26
-25
-22
-14
-11
-22
-27
-13
-18
-25
-19
-23
-24
-22
-25
-20
-21
-13
-17
-19
-23
-29
-25
-30
-18
-16
-18
-27
-23
-29
-27
-23
-28
-26
-21
-19
-22
-20
-19
-24
-18
-25
-29
-19
-28
-28
-22
-18
-16
-24
-22
-26
-21
-22
-20
-20
-16
-13
-19
-22
-21
-29
-34
-25
-39
-21
-22
-17
-22
-21
-18
-18
-22
-19
-24
-26
-35
-24
-15
-24
-26
-23
-27
-25
-19
-20
-9
-13
-11
-20
-16
-21
-19
-23
-13
-17
-12
-13
-12
-17
-10
-9
-7
-10
-10
-18
-8
-6
-8
-12
-27
-22
-18
-27
-28
-34
-31
-16
-26
-21
-24
-17
-21
-22
-25
-24
-31
-24
-25
-22
-20
-20
-32
-24
-15
-18
-21
-23
-29
-32
-29
-19
-19
-22
-27
-29
-21
-19
-18
-14
-21
-26
-25
-32
-35
-44
-39
-42
-37
-38
-22
-13
1
20
55
78
107
138
155
154
154
131
110
98
82
55
19
3
-4
-5
6
2
-6
-4
-6
-14
-13
-10
-18
-18
-12
-10
-17
-18
-12
-14
-10
-13
-14
-14
-16
-16
-10
-8
-15
-21
-17
-20
-21
-13
-10
-11
-5
-15
-12
1
-8
-18
-15
-12
-9
-11
-11
-12
-7
-10
-9
-9
-5
-4
0
-6
-8
-10
-5
-5
7
-2
-5
-7
2
3
-3
-5
7
7
7
9
10
11
6
9
17
17
19
10
15
15
26
12
7
25
35
30
36
40
43
32
32
36
37
34
34
31
46
38
40
42
41
48
46
41
33
27
29
35
42
33
23
26
23
31
32
22
13
11
11
6
12
11
4
5
-3
-4
-3
1
4
-1
-5
-6
-12
-16
-13
-13
-12
-8
-17
-21
-13
-13
-21
-14
-12
-8
-16
-11
-12
-12
-19
-21
-11
-15
-14
-19
-17
-16
-18
-17
-14
-8
-24
-29
-18
-21
-17
-4
-10
-10
-14
-8
-20
-24
-21
-23
-26
-10
-8
-15
-10
-20
-19
-21
-15
-16
-16
-12
-11
-10
-11
-22
-21
-9
-16
-21
-9
-14
-10
-12
-19
-15
-16
-18
-13
-8
-16
-9
-6
-10
-8
-14
-19
-16
-17
-18
-29
-18
-9
-7
-4
-4
-9
-14
-16
-19
-7
-4
-13
-13
-9
-10
-23
-16
-20
-22
-18
-15
-8
-14
-11
-11
-14
-16
-17
-15
-14
-4
-16
-27
-13
-14
-26
-15
-18
-15
-12
-8
-15
-23
-22
-11
-11
-8
-7
-16
-17
-18
-20
-17
-12
-14
-27
-19
-17
-24
-19
-27
-20
-13
-14
-19
-14
-10
-7
-13
-23
-21
-15
-15
-17
-14
-18
-15
-19
-23
-26
-18
-19
-19
-23
-20
-14
-14
-19
-19
-18
-17
-9
-6
-14
-12
-22
-17
-22
-31
-16
-17
-28
-20
-18
-30
-13
-7
-13
-20
-9
-17
-12
-18
-25
-23
-20
-25
-32
-15
3
-15
-29
-16
-11
-22
-32
-25
-22
-27
-14
-16
-20
-26
-25
-21
-16
-28
-22
-15
-10
-12
-15
-21
-17
-16
-9
-15
-6
-12
-12
-9
-10
-14
-14
-16
-3
-7
-6
-4
1
-2
-4
-12
-16
-26
-23
-21
-23
-22
-26
-21
-19
-24
-14
-19
-17
-15
-20
-16
-25
-24
-24
-23
-22
-40
-29
-16
-24
-24
-19
-13
-13
-27
-29
-27
-27
-24
-18
-16
-16
-18
-21
-27
-26
-25
-31
-29
-32
-30
-36
-43
-38
-43
-36
-30
-20
-6
10
36
68
88
121
140
142
136
137
126
99
92
69
43
13
10
7
2
0
-3
-6
6
-2
-14
-13
-19
-20
-24
-17
-21
-18
-14
-9
-17
-12
-15
-21
-16
-9
-11
-22
-20
-23
-18
-14
-11
-17
-19
-9
-15
-14
-17
-30
-10
-10
-8
-15
-8
-20
-17
-7
-11
-20
-10
4
-3
-20
-11
-18
-6
-5
-9
-5
-8
-13
-17
-9
-10
-3
2
-3
-3
-1
-9
-4
3
3
7
10
8
9
11
3
12
2
5
16
22
23
17
23
28
28
25
27
32
27
23
25
26
24
46
41
35
39
36
38
28
29
32
44
35
32
28
37
28
26
26
13
11
9
14
13
19
14
4
-2
-8
0
0
5
-1
-6
-17
-9
-11
-11
-18
-15
-18
-18
-13
-22
-19
-21
-9
-14
-23
-21
-25
-22
-15
-26
-22
-20
-23
-32
-34
-25
-13
-14
-26
-23
-23
-24
-24
-23
-19
-21
-28
-29
-19
-19
-25
-24
-21
-31
-17
-25
-29
-19
-18
-13
-27
-26
-30
-29
-26
-16
-27
-20
-16
-20
-27
-29
-25
-23
-15
-22
-24
-18
-19
-23
-35
-25
-21
-19
-14
-19
-31
-19
-21
-22
-16
-25
-32
-22
-14
-17
-24
-14
-17
-21
-19
-15
-22
-21
-16
-21
-29
-26
-21
-23
-25
-21
-16
-24
-28
-25
-17
-15
-18
-17
-21
-20
-22
-22
-24
-26
-26
-14
-23
-31
-27
-14
-19
-29
-27
-27
-27
-23
-19
-30
-18
-21
-19
-25
-28
-25
-21
-26
-28
-23
-27
-25
-29
-22
-25
-32
-20
-25
-22
-16
-29
-22
-25
-24
-19
-23
-22
-23
-23
-29
-25
-26
-35
-22
-27
-31
-25
-20
-20
-30
-26
-23
-34
-28
-23
-27
-24
-16
-23
-27
-20
-25
-35
-31
-27
-28
-28
-29
-20
-27
-29
-32
-25
-12
-15
-28
-24
-16
-32
-28
-23
-28
-23
-25
-29
-38
-33
-34
-33
-20
-24
-25
-23
-28
-30
-24
-24
-14
-19
-28
-27
-31
-29
-28
-23
-29
-21
-27
-22
-16
-31
-27
-29
-23
-23
-27
-21
-20
-20
-23
-35
-35
-32
-24
-25
-30
-27
-28
-26
-26
-22
-26
-36
-25
-29
-26
-18
-21
-20
-15
-14
-16
-14
-18
-14
-19
-23
-22
-6
-4
-15
-12
-15
-18
-15
-13
-12
-12
-17
-17
-20
-20
-23
-21
-27
-19
-17
-19
-34
-31
-27
-28
-27
-22
-28
-28
-24
-28
-19
-29
-42
-27
-29
-32
-25
-23
-25
-24
-35
-29
-32
-36
-32
-26
-26
-25
-25
-25
-23
-25
-30
-31
-28
-32
-45
-39
-40
-50
-53
-46
-37
-23
-10
-3
27
54
85
112
137
149
137
123
107
91
89
66
37
8
0
-2
-6
-9
-5
2
-7
-13
-23
-30
-26
-36
-29
-21
-25
-18
-24
-15
-15
-13
-13
-15
-24
-33
-28
-20
-38
-31
-17
-12
-6
-20
-27
-27
-16
-19
-20
-19
-13
-14
-16
-19
-21
-22
-17
-6
-21
-15
-19
-23
-21
-5
-15
-18
-2
-9
-19
-10
-10
-4
-6
-11
-12
-6
-16
-16
-14
10
-4
-3
-8
-1
1
-1
0
-2
3
11
0
4
7
9
12
12
13
16
21
31
26
17
20
31
13
34
40
27
26
39
37
34
39
32
34
27
23
24
33
32
31
27
20
24
17
24
19
7
5
9
9
8
5
-3
-5
-4
-7
-5
-6
-9
-11
-16
-16
-16
-15
-18
-14
-22
-19
-8
-26
-24
-30
-26
-20
-20
-22
-27
-28
-20
-27
-22
-11
-29
-32
-31
-34
-26
-27
-33
-14
-19
-23
-33
-33
-28
-23
-29
-23
-25
-21
-27
-25
-22
-27
-20
-6
-21
-23
-29
-36
-29
-23
-16
-16
-17
-26
-32
-19
-16
-20
-25
-25
-30
-27
-22
-22
-28
-26
-25
-15
-22
-21
-23
-30
-15
-31
-11
-15
-16
-27
-21
-16
-25
-22
-26
-16
-18
-13
-14
-9
-14
-11
-29
-18
-14
-27
-28
-17
-23
-14
-18
-22
-26
-26
-22
-36
-21
-10
-23
-26
-19
-20
-24
-29
-28
-21
-22
-17
-21
-17
-27
-18
-20
-20
-21
-21
-24
-22
-31
-14
-16
-26
-23
-24
-27
-24
-19
-15
-20
-23
-14
-28
-22
-25
-21
-29
-23
-9
-24
-29
-26
-22
-22
-16
-18
-23
-22
-19
-17
-27
-30
-25
-21
-19
-18
-25
-21
-27
-26
-21
-18
-18
-23
-25
-41
-41
-25
-19
-24
-15
-18
-16
-20
-22
-26
-16
-20
-23
-19
-23
-21
-23
-25
-23
-33
-21
-17
-23
-28
-25
-17
-26
-19
-19
-22
-25
-19
-19
-25
-15
-34
-41
-21
-13
-24
-27
-23
-15
-19
-21
-18
-27
-23
-29
-24
-21
-23
-31
-23
-21
-19
-20
-22
-18
-22
-28
-31
-21
-16
-25
-21
-18
-13
-15
-22
-32
-19
-11
-15
-4
1
-3
-3
-9
-14
-15
-4
-8
-18
-17
-6
-18
-23
-12
-18
-14
0
-3
-5
-9
-6
-28
-37
-26
-25
-27
-24
-28
-16
-18
-20
-27
-14
-22
-24
-22
-26
-24
-26
-26
-28
-14
-20
-24
-25
-19
-18
-20
-29
-21
-21
-23
-23
-30
-28
-22
-17
-26
-28
-32
-30
-36
-38
-45
-56
-36
-27
-16
5
21
41
83
111
117
132
138
142
129
113
98
71
52
30
7
-6
3
6
-1
-2
-6
-7
-19
-21
-21
-21
-18
-14
-19
-16
-12
-10
-25
-12
-13
-27
-17
-16
-19
-18
-5
-10
-32
-21
-21
-8
1
-4
-13
-16
-18
-13
-13
-7
-9
-11
-6
-12
-9
-17
-10
-12
-9
-7
-17
-14
-10
-12
-4
-11
-4
-4
2
1
-6
2
0
0
-9
1
2
-4
-3
2
4
6
20
3
0
12
23
15
12
17
16
11
19
30
29
28
30
24
29
27
36
32
42
39
38
39
30
41
42
41
37
36
47
34
44
48
50
46
25
25
32
31
39
30
26
27
22
16
21
17
13
7
10
7
6
-2
-4
-11
-4
-6
-12
-6
-7
-5
-10
-11
-2
-3
-10
-12
-13
-18
-17
-17
-18
-18
-14
-15
-14
-16
-23
-22
-11
-14
-14
-13
-18
-13
-13
-20
-20
-20
-17
-13
-18
-19
-23
-22
-23
-16
-14
-21
-17
-21
-13
-23
-15
-19
-19
-15
-17
-15
-11
-8
-11
-14
-12
-20
-19
-16
-11
-12
-16
-3
-6
-15
-14
-23
-15
-10
-10
-13
-11
-11
-15
-13
-12
-17
-14
-10
-17
-21
-14
-9
-11
-8
-10
-18
-16
-5
-9
-15
-15
-9
-4
-9
-14
-15
-11
-10
-15
-23
-15
-21
-15
-4
-6
-11
-15
-16
-20
-11
-8
-12
-8
-17
-5
-9
-13
-23
-25
-15
-1
-16
-19
-12
-11
-16
-16
-17
-18
-9
-13
-12
-14
-13
-21
-9
-13
-18
-13
-14
-9
1
-15
-20
-25
-19
-8
-16
-15
-9
-9
-8
-9
-12
-19
-13
-16
-13
-14
-16
-10
-18
-13
-10
-18
-17
-12
-14
-11
-14
-12
-10
-6
-17
-18
-20
-21
-9
-7
-16
-20
-17
-15
-4
-5
-11
-10
-4
-14
-14
-13
-8
-6
-22
-14
-2
-8
-14
-15
-12
-15
-11
-12
-4
-13
-16
-15
-27
-19
-17
-19
-20
-12
-5
-8
-7
-12
-12
-11
-11
-8
-12
-9
-9
-11
-14
-7
-6
-7
-14
-1
10
14
9
4
9
-1
-19
-16
-1
-1
-6
1
10
8
8
6
0
7
1
-9
-11
-8
-5
-11
-16
-9
-20
-19
-12
-10
-10
-12
-6
-8
-5
-12
-13
-11
-15
-26
-15
-12
-12
-5
-7
-13
-10
-6
-15
-15
-17
-9
-7
-12
-9
-16
-19
-10
-13
-18
-20
-24
-34
-29
-35
-23
-15
-2
12
33
65
92
121
141
153
162
152
130
114
99
81
71
28
4
8
5
10
-1
4
3
0
2
-5
-4
-6
-11
-11
-8
-14
-15
6
1
-10
-14
2
-4
-15
-13
2
-3
-3
4
7
3
-3
-12
-2
4
9
-6
6
8
5
1
-6
-5
-3
5
10
-1
3
-1
3
4
11
1
8
8
9
9
10
12
13
3
2
4
16
14
26
17
17
18
17
16
20
22
25
28
19
26
28
23
25
37
44
36
38
40
43
34
38
50
47
47
51
54
50
56
62
59
63
60
54
52
49
58
56
57
50
46
57
61
60
50
52
44
44
31
34
39
45
29
29
29
24
25
24
16
12
17
12
8
19
20
11
-3
1
5
-8
0
7
4
0
2
3
-2
2
-1
-3
0
2
-7
6
1
1
-10
2
9
-1
-2
-1
-6
-2
1
-5
-12
-10
-3
2
-3
2
3
-4
-10
-6
1
-15
-13
-10
2
10
-6
-2
5
-4
-4
-3
-2
-8
-1
12
3
2
0
-5
3
10
-2
1
10
3
-8
-6
5
2
2
10
2
8
16
-6
-10
-5
2
6
6
3
0
-1
4
2
3
3
3
7
7
1
4
-1
-3
8
3
1
0
6
-2
5
8
-5
-6
4
-9
-1
7
5
2
4
3
4
3
-6
-12
-15
0
7
6
-3
14
1
1
-1
-5
-2
4
-2
-2
4
-1
2
-2
-4
-1
5
-4
-3
9
2
0
3
-2
-1
-5
4
2
2
10
-3
-10
-11
9
3
0
3
-2
1
-5
5
-4
-1
-1
-7
3
6
1
3
-6
-7
-3
-6
-1
0
-1
1
7
5
-4
-8
-2
1
5
7
1
-1
-1
-3
-3
-3
-4
1
8
8
-3
-3
-4
-7
-4
-5
1
1
3
1
6
-9
4
-2
-3
5
9
5
3
3
6
9
8
2
3
10
13
18
11
13
18
12
3
0
5
9
15
18
20
12
14
12
4
13
9
3
-1
-1
6
9
8
-1
-4
-1
1
2
-2
-3
-5
2
-3
2
-3
-7
-2
-4
-5
-4
-2
7
10
-3
-1
-9
-8
-11
-7
-2
-5
2
-4
-7
-2
-2
-11
-11
-9
-8
-4
-14
-24
-20
-19
8
7
26
48
80
121
141
156
166
167
151
131
132
121
93
71
45
25
6
3
7
10
2
9
9
8
6
11
8
3
0
2
4
16
2
-3
9
14
4
-1
4
7
2
0
5
4
12
5
10
8
6
12
9
12
8
13
11
12
9
10
10
16
6
15
18
16
20
13
6
16
11
17
13
18
17
7
19
30
16
17
27
27
20
21
25
19
28
34
34
34
32
35
32
40
43
42
36
36
39
52
45
55
51
50
47
53
65
56
52
52
67
67
60
68
64
63
65
66
66
68
60
58
56
63
56
62
62
57
50
44
58
54
53
54
42
38
36
32
21
32
27
29
26
20
21
21
14
26
11
10
13
17
17
12
-1
8
7
13
3
8
3
0
2
5
9
6
6
0
-4
9
11
7
9
6
-1
6
6
5
1
-2
7
-7
-6
6
4
11
12
3
1
-7
2
7
11
10
-2
-2
14
18
14
9
6
9
10
5
-4
6
-6
3
8
13
-4
4
11
17
13
3
12
16
-4
5
8
7
6
4
0
6
13
10
6
11
9
6
7
11
9
9
5
3
5
7
4
6
17
11
6
-1
0
5
5
-1
3
-4
11
6
-5
-4
12
9
5
-4
-1
4
12
10
6
2
0
-17
10
8
0
3
5
8
1
0
5
2
-4
0
9
-1
1
6
3
-5
2
7
2
-5
-4
0
1
5
2
-1
7
-6
-3
3
-2
-5
-1
-2
3
2
7
7
0
-1
-1
4
7
-5
5
-1
-2
5
1
-2
-3
8
11
7
4
5
7
5
9
4
2
12
16
13
14
13
9
4
8
13
10
10
12
2
-3
1
1
0
-6
-1
-2
2
4
-4
-6
0
-2
-1
4
3
-7
-9
0
1
-4
-9
-6
-3
-6
-9
-2
5
3
-9
-11
-11
-9
5
0
-7
-10
-10
7
2
-2
-7
-7
-6
-10
-18
-6
-23
-5
-7
3
21
39
59
78
104
136
152
141
126
105
117
110
93
78
46
24
7
-9
-4
-6
-12
-8
11
14
10
3
-5
2
2
1
-3
-2
0
6
0
-1
-3
4
7
11
-2
9
1
5
1
5
9
11
12
11
11
3
1
7
14
13
19
13
11
12
12
13
9
14
12
7
12
19
15
13
13
12
14
9
20
27
25
23
38
30
15
18
24
29
21
27
26
28
34
37
37
34
34
47
46
38
42
42
54
55
44
50
50
51
53
62
59
52
52
56
63
60
68
75
67
63
67
64
65
65
63
57
57
52
46
54
55
59
51
52
44
47
38
38
34
43
32
30
26
25
18
15
12
20
14
17
16
16
14
24
13
3
4
3
5
12
7
4
-7
5
13
6
7
12
2
4
2
-4
-5
-4
0
2
13
4
3
-6
-2
-1
6
0
-12
-7
8
1
2
7
8
6
5
3
-2
-3
3
-1
-9
-6
6
8
10
16
6
1
4
3
14
15
16
11
4
3
-4
9
4
5
4
4
8
7
5
17
3
0
10
9
3
5
13
7
8
3
10
9
8
1
6
11
5
7
11
11
-2
4
8
5
10
14
11
5
11
11
0
-7
-1
-1
3
1
10
13
9
3
4
7
11
9
12
5
3
-1
1
0
0
7
2
3
8
4
3
4
-1
9
4
14
11
3
5
3
5
0
-1
-2
6
6
1
2
15
15
-3
-1
0
1
0
4
6
7
11
13
3
2
1
11
20
12
10
15
17
14
13
10
9
14
16
16
11
8
12
9
-2
6
10
0
0
4
0
0
-7
-2
2
2
0
7
6
3
-1
6
7
3
2
-2
-3
-9
-5
3
6
-3
9
8
8
3
3
4
5
5
9
3
-5
-3
2
-1
-5
-10
-17
-17
-19
-7
5
8
20
47
77
104
129
150
154
160
149
136
127
110
97
65
56
23
15
13
9
0
2
14
22
16
19
9
4
2
18
16
9
6
8
3
3
6
13
11
13
10
11
9
8
11
19
11
9
17
17
4
3
4
12
13
12
10
10
19
13
11
18
19
23
22
26
23
22
23
20
18
20
21
18
27
25
22
13
22
29
32
26
27
16
27
38
41
38
37
34
44
41
42
34
43
50
36
37
43
40
53
56
59
54
54
56
69
72
74
68
64
62
56
59
61
72
64
65
66
59
73
65
57
62
64
64
50
51
53
56
56
55
44
47
41
36
32
27
27
32
27
21
19
19
15
25
16
17
25
20
17
7
10
12
15
5
2
3
21
13
5
7
5
3
8
8
7
5
8
3
8
0
-1
5
13
2
0
8
4
4
3
10
9
1
6
10
3
9
6
9
9
7
10
-9
-1
-6
5
6
10
10
14
0
1
9
16
3
11
11
20
11
14
8
12
14
15
8
6
9
12
12
12
9
3
14
8
6
7
12
8
8
9
18
11
21
6
8
0
12
8
21
9
4
1
1
14
12
7
12
10
11
7
9
5
5
7
7
11
9
7
11
11
10
0
11
8
7
16
17
10
11
6
6
6
10
10
3
9
10
13
14
-1
-3
10
9
6
9
9
17
12
9
13
13
9
13
11
3
0
12
9
20
18
16
22
26
23
15
10
21
19
13
11
9
9
8
11
-2
11
8
10
12
10
3
1
1
0
-1
1
9
-1
5
6
9
7
8
15
6
0
1
-2
-3
6
-6
3
15
13
16
10
11
12
8
12
2
4
4
-5
-7
-7
-11
-21
-29
-5
4
19
30
61
89
119
148
166
168
158
156
150
143
122
107
84
35
14
27
23
22
14
15
11
20
18
23
18
23
17
11
5
10
15
15
10
17
9
11
8
12
10
16
13
8
14
15
13
20
22
20
16
16
18
16
15
15
10
13
15
9
22
24
23
16
27
39
28
15
19
19
20
23
15
27
28
33
24
28
33
28
26
28
29
32
32
30
34
42
39
36
38
45
39
42
50
41
55
56
51
46
47
58
59
60
55
60
59
69
71
67
55
66
71
68
74
77
71
73
62
61
65
58
57
59
62
59
59
69
57
53
51
46
43
43
56
46
39
43
38
29
32
26
18
18
30
19
19
26
23
15
12
12
14
12
13
20
25
15
8
12
5
9
9
4
18
9
9
19
12
12
8
7
4
6
11
11
17
8
12
16
18
11
6
8
5
11
12
14
8
-6
7
11
7
23
14
12
16
17
16
2
7
13
14
20
21
17
12
9
15
15
13
8
13
18
22
20
18
10
7
13
16
16
11
12
20
16
14
12
6
16
23
13
13
20
14
15
22
19
12
15
21
11
13
12
17
16
17
8
9
18
12
14
12
16
14
11
15
17
6
14
18
6
10
11
12
11
11
19
13
9
16
15
6
13
19
13
19
12
13
11
13
0
8
15
21
19
17
17
13
20
18
18
17
15
18
16
26
21
25
30
21
14
20
24
19
25
29
11
13
18
19
14
11
6
6
7
4
8
3
10
19
11
15
10
16
21
15
6
12
9
2
3
14
10
12
10
20
10
3
0
8
13
9
8
10
14
15
16
5
8
2
7
3
-7
-12
-11
-7
-9
-6
14
36
55
78
110
137
158
181
177
179
163
146
134
115
95
71
39
28
27
28
21
23
19
19
17
5
18
17
16
19
22
16
15
10
20
21
15
17
18
16
14
14
25
20
22
18
21
25
14
18
13
15
12
20
22
23
16
18
29
24
10
15
24
27
24
20
23
30
24
25
29
27
22
28
35
24
13
23
32
33
30
37
35
31
32
35
41
42
40
35
40
32
41
47
48
45
45
53
47
50
58
50
61
65
62
58
67
68
62
66
70
72
73
67
71
74
66
65
79
72
67
65
69
69
62
61
57
53
52
43
56
50
49
47
47
40
29
33
37
37
38
29
30
23
25
20
20
18
22
19
19
13
15
11
13
19
12
6
5
8
7
10
8
3
16
14
7
7
13
21
21
8
-1
0
10
3
6
7
7
13
8
11
9
8
4
2
13
13
13
5
0
8
12
3
13
10
10
11
8
2
10
13
9
13
9
11
2
7
3
14
15
15
15
6
1
18
12
10
13
7
4
7
15
12
8
19
10
7
7
5
10
6
10
14
7
16
11
5
9
5
5
10
5
5
5
12
9
10
19
7
4
10
7
3
11
5
-3
13
16
7
5
7
5
6
5
4
-3
-2
-5
1
6
6
11
-1
2
9
3
-4
-4
2
1
1
5
9
10
6
1
-2
7
2
3
2
6
10
3
7
12
13
15
15
15
17
18
6
0
3
-10
-1
-8
4
10
10
6
-4
-9
2
-11
-5
-7
1
0
-2
-11
-5
-5
-8
-8
-14
-9
-2
3
-3
-3
-10
-14
-5
-4
-8
-10
-2
0
8
0
-6
-13
-5
-8
-10
-14
-13
-18
-15
-15
-19
-27
-26
-24
-10
2
20
48
80
103
143
161
165
157
162
142
117
111
93
54
28
11
9
11
11
1
-2
-6
5
2
-1
-2
1
-3
-8
-2
0
-8
-3
-4
-10
-1
5
0
1
-9
-8
-2
6
2
2
-3
-7
-5
-7
-16
-12
2
8
-4
-2
1
3
4
-4
-4
-3
7
7
-3
-5
1
5
-3
10
1
0
5
8
6
7
11
3
-1
7
13
7
12
16
14
14
11
19
24
26
13
13
21
21
18
21
28
27
40
34
31
36
37
33
38
38
40
40
36
52
53
44
39
40
50
51
44
41
42
43
39
44
43
34
33
42
40
27
27
28
25
24
30
19
16
17
16
6
0
2
-2
-7
7
0
-2
-6
-11
-8
-10
-6
-20
-18
-13
-6
-17
-22
-11
-12
-11
-14
-17
-18
-21
-25
-13
-8
-17
-23
-13
-14
-19
-21
-16
-15
-17
-10
-11
-15
-20
-23
-29
-24
-19
-7
-12
-19
-17
-18
-17
-10
-23
-24
-35
-23
-23
-20
-15
-34
-18
-21
-13
-7
-11
-21
-15
-11
-14
-21
-15
-12
-18
-16
-21
-21
-14
-18
-16
-18
-17
-15
-20
-14
-13
-16
-21
-19
-17
-23
-18
-21
-21
-21
-11
-15
-18
-15
-21
-27
-15
-18
-18
-24
-20
-17
-21
-26
-30
-16
-15
-24
-32
-21
-16
-10
-25
-28
-26
-25
-21
-37
-32
-11
-17
-23
-29
-35
-30
-21
-22
-21
-21
-20
-28
-25
-33
-30
-26
-22
-22
-31
-37
-41
-17
-18
-29
-23
-21
-26
-36
-31
-26
-26
-23
-29
-32
-29
-33
-25
-29
-25
-29
-34
-32
-32
-27
-26
-24
-27
-32
-36
-25
-26
-25
-16
-22
-23
-30
-22
-14
-21
-22
-20
-17
-12
-17
-26
-28
-22
-20
-41
-38
-33
-35
-30
-28
-36
-41
-42
-22
-29
-35
-40
-39
-36
-37
-34
-30
-32
-40
-34
-37
-32
-37
-35
-41
-39
-37
-39
-41
-38
-30
-29
-37
-32
-34
-33
-40
-46
-37
-37
-46
-45
-42
-54
-67
-58
-55
-60
-50
-35
-16
-2
19
49
76
106
124
132
136
126
107
94
77
56
19
-9
-19
-20
-12
-24
-25
-20
-23
-24
-23
-30
-36
-38
-39
-33
-34
-35
-33
-33
-28
-36
-38
-36
-33
-49
-39
-31
-26
-27
-30
-34
-37
-29
-22
-30
-28
-40
-41
-42
-34
-34
-34
-35
-43
-29
-22
-34
-30
-27
-29
-27
-26
-28
-31
-30
-21
-23
-22
-29
-30
-32
-28
-23
-22
-21
-15
-10
-20
-18
-17
-24
-21
-11
-21
-22
0
-9
-14
-9
-10
-3
2
8
2
-3
8
3
17
15
8
9
9
13
16
17
15
19
18
13
23
18
22
13
9
12
13
23
10
11
14
5
7
-3
0
-3
-2
-4
-3
-3
-15
-19
-12
-21
-25
-24
-21
-22
-28
-25
-34
-32
-34
-41
-44
-38
-39
-35
-32
-45
-48
-41
-46
-49
-46
-38
-28
-40
-45
-48
-46
-49
-47
-45
-43
-40
-36
-38
-49
-47
-43
-47
-49
-53
-53
-49
-59
-47
-45
-44
-46
-44
-40
-46
-47
-39
-43
-56
-57
-46
-47
-41
-56
-52
-53
-44
-48
-51
-42
-40
-41
-46
-44
-41
-48
-42
-45
-50
-45
-39
-51
-52
-53
-47
-40
-36
-40
-48
-37
-37
-48
-44
-39
-53
-48
-45
-49
-43
-44
-45
-53
-52
-42
-44
-44
-45
-47
-46
-41
-47
-51
-45
-44
-46
-52
-51
-43
-49
-53
-54
-48
-41
-48
-55
-45
-41
-45
-49
-50
-51
-55
-54
-44
-43
-48
-49
-53
-55
-54
-59
-55
-55
-50
-58
-50
-57
-51
-42
-42
-51
-54
-48
-52
-53
-44
-46
-56
-53
-46
-50
-52
-51
-56
-55
-55
-47
-48
-56
-49
-50
-53
-46
-52
-57
-53
-54
-48
-54
-52
-52
-54
-47
-51
-50
-46
-44
-45
-49
-53
-54
-67
-63
-50
-56
-60
-55
-41
-43
-46
-43
-44
-48
-45
-45
-42
-33
-42
-42
-43
-48
-48
-48
-43
-41
-31
-44
-33
-29
-40
-41
-33
-36
-47
-57
-53
-47
-40
-53
-55
-50
-55
-50
-51
-44
-46
-56
-52
-46
-48
-46
-53
-41
-49
-46
-47
-51
-49
-53
-48
-57
-60
-60
-52
-54
-41
-39
-55
-52
-43
-50
-45
-47
-54
-49
-51
-52
-58
-58
-72
-68
-71
-67
-63
-42
-49
-26
-14
15
54
73
98
122
120
121
130
95
77
70
51
14
-14
-30
-22
-21
-27
-27
-29
-30
-39
-50
-37
-41
-40
-35
-38
-42
-40
-37
-42
-46
-32
-40
-35
-39
-31
-40
-43
-38
-46
-36
-37
-42
-36
-41
-39
-32
-35
-44
-32
-29
-39
-33
-25
-25
-36
-35
-33
-20
-23
-31
-31
-23
-33
-36
-26
-30
-30
-22
-33
-20
-19
-22
-23
-18
-26
-21
-22
-16
-15
-22
-18
-16
-15
-9
-6
-6
-2
-8
-14
-20
-2
0
0
2
11
5
6
11
10
12
17
19
9
17
17
18
21
25
8
9
26
30
28
23
21
16
10
19
9
11
9
9
7
8
1
2
-6
4
3
0
-9
-24
-21
-15
-19
-24
-17
-23
-30
-29
-27
-34
-37
-35
-34
-34
-31
-38
-41
-32
-24
-37
-38
-42
-39
-30
-35
-42
-45
-42
-39
-46
-32
-37
-35
-37
-36
-32
-33
-35
-38
-42
-41
-32
-32
-41
-44
-44
-34
-40
-39
-47
-41
-32
-40
-40
-34
-35
-38
-36
-31
-42
-36
-32
-39
-38
-33
-40
-35
-38
-33
-27
-34
-39
-38
-34
-37
-37
-38
-35
-35
-34
-29
-28
-30
-26
-29
-24
-25
-47
-43
-43
-38
-32
-30
-28
-26
-32
-44
-41
-34
-32
-41
-27
-33
-31
-32
-34
-35
-33
-38
-41
-21
-30
-44
-38
-37
-36
-27
-30
-34
-39
-32
-40
-38
-37
-30
-29
-26
-32
-39
-38
-39
-48
-43
-34
-29
-41
-38
-38
-34
-33
-34
-35
-36
-36
-37
-43
-34
-35
-39
-36
-36
-35
-34
-44
-44
-42
-40
-43
-36
-29
-28
-34
-41
-36
-30
-39
-38
-40
-39
-34
-37
-38
-38
-32
-41
-45
-38
-36
-33
-42
-36
-32
-38
-39
-32
-31
-34
-37
-37
-43
-29
-39
-38
-37
-34
-47
-43
-38
-39
-33
-36
-33
-35
-35
-32
-33
-39
-38
-40
-37
-33
-37
-38
-38
-34
-33
-36
-31
-34
-34
-34
-37
-36
-41
-40
-31
-31
-30
-28
-29
-32
-43
-33
-24
-32
-30
-28
-24
-30
-31
-30
-21
-32
-23
-21
-21
-21
-28
-27
-25
-27
-30
-45
-41
-34
-37
-34
-39
-37
-32
-29
-35
-44
-33
-39
-45
-37
-40
-44
-39
-33
-34
-35
-33
-31
-42
-46
-45
-38
-37
-39
-40
-39
-37
-38
-44
-32
-45
-45
-45
-35
-31
-36
-42
-51
-43
-54
-61
-68
-70
-58
-41
-31
-13
1
38
67
89
118
140
140
140
120
98
75
72
46
4
-15
-23
-14
-11
-16
-22
-29
-17
-27
-28
-35
-34
-35
-43
-41
-33
-41
-34
-31
-39
-38
-29
-33
-35
-31
-34
-33
-38
-41
-38
-36
-24
-21
-32
-35
-30
-36
-28
-31
-38
-33
-28
-32
-27
-42
-29
-23
-28
-24
-25
-28
-22
-22
-22
-18
-22
-22
-22
-20
-23
-27
-16
-20
-16
-13
-18
-11
-13
-16
-15
-12
-7
-17
-6
-7
-7
-7
-6
-1
-6
12
8
-3
2
2
16
19
18
18
21
22
21
17
26
30
22
12
14
22
16
24
28
32
32
31
25
26
23
20
16
12
9
-1
7
7
5
7
6
0
-3
-3
-2
-13
-13
-18
-27
-21
-19
-25
-17
-12
-27
-18
-26
-28
-36
-40
-36
-27
-37
-37
-37
-25
-32
-29
-29
-38
-41
-34
-36
-30
-34
-41
-40
-41
-42
-30
-34
-37
-35
-39
-44
-39
-30
-34
-39
-39
-40
-39
-39
-39
-36
-35
-40
-45
-38
-43
-42
-35
-44
-34
-38
-39
-36
-41
-37
-41
-30
-26
-32
-36
-39
-41
-34
-40
-45
-39
-35
-40
-27
-31
-31
-32
-36
-43
-35
-35
-33
-36
-30
-31
-33
-32
-39
-23
-36
-45
-47
-25
-22
-32
-37
-35
-35
-29
-36
-43
-36
-43
-39
-40
-40
-40
-39
-36
-32
-42
-41
-36
-27
-36
-38
-43
-48
-35
-29
-35
-36
-34
-29
-35
-37
-44
-45
-43
-38
-34
-29
-34
-30
-36
-45
-47
-38
-39
-38
-37
-44
-41
-39
-47
-36
-44
-41
-43
-36
-43
-43
-39
-33
-27
-34
-46
-49
-47
-40
-35
-37
-46
-37
-33
-43
-42
-39
-47
-45
-42
-37
-40
-34
-41
-37
-36
-37
-46
-47
-47
-47
-42
-39
-48
-39
-37
-42
-40
-36
-37
-43
-44
-38
-41
-45
-41
-32
-44
-32
-38
-50
-52
-42
-31
-41
-44
-46
-46
-37
-37
-43
-39
-35
-37
-30
-37
-49
-48
-45
-47
-54
-39
-31
-43
-40
-33
-36
-46
-45
-48
-51
-43
-35
-36
-32
-45
-43
-38
-40
-44
-41
-38
-36
-39
-40
-37
-37
-35
-39
-30
-25
-24
-29
-28
-32
-24
-24
-27
-29
-37
-31
-23
-32
-38
-40
-40
-37
-35
-38
-50
-52
-47
-47
-50
-45
-39
-39
-36
-35
-43
-35
-32
-36
-52
-49
-47
-41
-43
-43
-48
-40
-36
-40
-42
-43
-42
-49
-58
-42
-43
-44
-40
-36
-39
-48
-41
-42
-50
-57
-58
-53
-53
-62
-60
-51
-53
-40
-21
-8
25
52
80
98
124
140
128
120
93
80
72
49
19
-9
-15
-17
-27
-26
-23
-19
-33
-31
-36
-35
-36
-29
-33
-37
-40
-40
-35
-31
-34
-36
-34
-33
-29
-38
-37
-33
-44
-36
-31
-37
-43
-36
-39
-37
-27
-23
-39
-40
-23
-24
-28
-30
-33
-36
-32
-23
-29
-27
-27
-25
-28
-26
-29
-25
-24
-31
-23
-18
-18
-24
-20
-15
-27
-23
-15
-21
-13
-12
-20
-15
-8
-11
-17
-12
-19
-19
-2
-3
-8
-1
3
6
6
2
3
5
16
15
8
13
17
23
22
23
17
14
24
29
18
22
27
28
29
32
17
12
18
21
20
16
13
9
15
5
9
4
2
10
2
-3
-3
-11
-8
-19
-16
-16
-14
-16
-20
-19
-27
-29
-29
-26
-25
-31
-23
-28
-36
-42
-23
-31
-41
-30
-33
-40
-34
-27
-33
-33
-39
-36
-36
-33
-36
-34
-12
-31
-47
-44
-36
-35
-32
-33
-39
-37
-34
-32
-28
-22
-38
-46
-32
-30
-44
-46
-39
-24
-29
-37
-39
-35
-36
-34
-32
-34
-46
-36
-33
-34
-28
-32
-27
-39
-32
-27
-23
-20
-25
-39
-34
-31
-36
-32
-21
-28
-25
-27
-25
-16
-14
-24
-33
-27
-28
-24
-34
-30
-31
-22
-22
-38
-32
-19
-26
-28
-23
-28
-34
-31
-25
-34
-23
-19
-26
-28
-24
-22
-22
-27
-19
-33
-42
-30
-30
-41
-29
-41
-24
-26
-24
-22
-23
-24
-26
-28
-25
-31
-23
-22
-30
-38
-36
-26
-21
-24
-33
-26
-28
-31
-25
-27
-32
-34
-30
-28
-20
-28
-26
-26
-31
-41
-31
-30
-33
-27
-37
-28
-33
-26
-32
-28
-32
-27
-17
-25
-20
-23
-36
-30
-28
-27
-23
-24
-31
-27
-27
-23
-31
-27
-26
-29
-29
-30
-26
-28
-24
-22
-31
-33
-23
-24
-31
-35
-27
-30
-28
-29
-24
-26
-36
-27
-21
-23
-37
-27
-34
-32
-31
-30
-23
-18
-22
-27
-32
-19
-24
-29
-22
-20
-20
-24
-27
-37
-38
-25
-18
-19
-20
-22
-27
-22
-25
-24
-29
-25
-15
-19
-30
-21
-21
-22
-19
-7
-15
-12
-11
-10
-12
-21
-18
-16
-14
-12
-17
-13
-12
-16
-17
-12
-17
-16
-9
-20
-23
-25
-16
-20
-26
-20
-28
-27
-27
-27
-32
-31
-31
-34
-20
-19
-25
-23
-26
-25
-22
-23
-30
-30
-23
-18
-36
-23
-25
-32
-22
-10
-23
-30
-26
-22
-28
-31
-35
-30
-31
-34
-43
-44
-48
-45
-49
-40
-21
-5
21
47
71
98
120
138
151
135
126
113
103
92
66
36
10
-8
-16
-13
-15
-3
-6
-13
-18
-25
-18
-15
-19
-18
-17
-21
-26
-14
-14
-14
-10
-9
-11
-24
-25
-22
-14
-13
-23
-10
-7
-14
-18
-16
-14
-17
-19
-12
-12
-7
-9
-19
-17
-10
-14
-11
-21
-3
-12
-7
-3
-5
1
8
-4
-11
-12
-3
1
-1
-5
1
-1
-5
-4
-5
-8
-1
9
6
11
4
12
2
6
1
8
7
16
28
28
19
21
24
20
25
30
22
34
35
44
39
47
40
31
31
39
43
45
36
41
49
40
41
39
44
49
42
41
41
36
24
25
29
30
27
25
17
22
28
23
6
10
3
-1
-1
-2
-8
2
8
-4
-24
-13
-9
-4
-12
-18
-19
-22
-17
-17
-14
-22
-15
-23
-21
-20
-20
-20
-27
-28
-30
-20
-20
-23
-30
-21
-28
-19
-27
-30
-28
-24
-16
-25
-21
-15
-23
-14
-24
-26
-17
-20
-18
-28
-37
-20
-27
-23
-24
-21
-24
-22
-13
-28
-28
-27
-18
-25
-28
-26
-25
-6
-14
-16
-18
-17
-15
-20
-19
-21
-25
-22
-19
-21
-18
-14
-11
-21
-22
-17
-15
-18
-15
-21
-17
-21
-29
-21
-15
-17
-14
-22
-15
-20
-15
-23
-25
-39
-19
-10
-15
-17
-17
-17
-14
-18
-17
-17
-22
-40
-21
-16
-16
-12
-17
-22
-16
-20
-19
-20
-11
-17
-24
-25
-19
-15
-17
-22
-19
-20
-24
-19
-25
-26
-16
-25
-19
-26
-24
-26
-25
-25
-30
-23
-17
-11
-25
-34
-17
-23
-23
-18
-23
-23
-17
-10
-17
-14
-20
-29
-28
-23
-16
-20
-21
-30
-19
-19
-23
-23
-19
-14
-21
-25
-23
-11
-22
-30
-19
-21
-17
-27
-27
-30
-20
-21
-24
-18
-21
-25
-25
-19
-17
-25
-23
-14
-21
-21
-23
-22
-33
-23
-17
-21
-21
-15
-12
-16
-23
-19
-16
-22
-22
-13
-9
-8
-19
-14
-16
-10
-3
-8
-15
-12
-11
-17
-8
-2
-14
-17
-12
-20
-16
-18
-9
-11
-10
-14
-21
-22
-20
-17
-20
-10
-21
-18
-18
-29
-26
-18
-13
-16
-17
-13
-25
-27
-28
-26
-19
-22
-33
-27
-13
-20
-22
-22
-22
-20
-21
-13
-14
-23
-26
-16
-29
-25
-20
-23
-25
-25
-22
-30
-37
-24
-28
-30
-21
-10
3
24
43
55
93
111
125
122
111
100
98
88
66
51
29
8
-9
-24
-26
-30
-20
-21
-22
-11
-6
-8
-13
-12
-18
-11
-12
-23
-22
-17
-17
-15
-13
-6
-4
-15
-12
-6
-1
-5
-2
-3
-2
-6
-19
-11
-8
-3
-5
-12
-7
-10
-13
-8
-6
-2
-9
0
-3
-3
1
2
-6
-9
2
3
2
6
0
-4
5
5
-1
8
14
9
9
-1
-1
6
18
11
6
12
17
9
14
12
12
25
34
29
29
27
28
37
34
37
34
40
46
42
42
44
56
54
50
40
33
51
59
53
45
39
56
46
29
51
46
42
51
41
41
38
39
40
36
33
20
30
22
21
19
18
23
16
10
5
9
7
5
9
0
-6
-1
-13
-9
1
-6
-11
-5
-5
-2
-1
-5
-13
-12
-9
-16
-21
-14
-9
-14
-22
-10
-12
-13
-4
-21
-11
-7
-14
-22
-7
-11
-12
-15
-11
-13
-18
-9
-19
-17
-8
-19
-10
-10
-20
-23
-18
-15
-14
-7
-8
-8
-12
-23
-12
-2
-3
-11
-4
-9
-3
-5
-12
-9
-7
-17
-6
-3
-1
-2
-4
-3
-11
-19
-8
-2
-2
0
-8
-11
-8
-6
-4
2
-3
-7
-8
-11
-4
-2
-7
-12
-10
-8
-7
-5
-3
-1
-8
-5
-10
-3
-6
-16
-12
0
9
-8
-12
-8
-13
-13
-1
-4
-4
-12
-3
-5
-4
-9
-5
-1
-10
-10
-17
-6
-1
-9
-11
-4
-5
-8
-4
-9
-11
-9
-2
-13
-9
-5
-12
1
0
1
-6
-22
-10
-6
-7
-9
-2
-9
-9
-3
-9
-7
-13
-12
-3
-4
-2
-11
-15
-17
-11
-10
-8
-5
-1
0
-5
-14
-8
-7
-8
-19
-8
-4
-9
-9
-13
-20
-14
-8
-9
-5
-3
-1
0
-6
-7
-16
-12
-14
-6
-11
-9
-2
-5
-5
0
3
-8
7
2
6
9
-3
-1
3
2
7
-2
-13
-2
7
1
-2
0
5
3
0
4
-4
-8
-5
-9
-3
0
-10
-16
-11
-9
-11
-12
-11
0
-3
-7
-7
-15
-6
-9
-5
1
2
-9
-13
-19
-2
-6
-14
-9
-13
-8
-10
-5
0
1
-9
-13
-11
-17
-15
-7
-7
-3
-9
-8
-18
-30
-27
-17
3
0
17
40
70
102
118
138
147
141
132
122
121
107
93
75
46
14
-7
6
9
-2
-13
-2
17
5
13
8
-10
-1
-3
-15
7
-3
2
11
7
14
10
-5
-4
6
10
8
-2
7
12
5
11
7
7
9
9
8
2
6
17
11
1
12
12
13
20
9
7
13
16
4
11
15
6
21
18
18
21
20
9
8
26
22
9
18
22
23
23
21
15
18
21
32
28
27
30
37
25
22
47
61
33
39
40
49
41
45
49
51
56
57
62
59
54
58
66
74
55
59
69
65
67
60
55
65
62
60
59
59
49
56
54
54
55
52
51
38
41
45
35
33
31
37
35
41
30
28
27
22
20
18
13
15
15
15
20
14
11
7
5
3
10
9
1
18
9
3
3
2
-2
7
15
1
1
8
6
3
6
5
2
1
-2
1
5
-2
13
7
9
10
4
2
-5
-2
5
4
-4
0
7
9
1
7
-2
-2
4
6
6
9
11
8
1
3
3
-8
3
10
11
7
12
14
6
5
6
2
2
6
-1
1
15
9
9
14
9
6
8
3
9
14
14
8
6
8
5
7
11
16
-2
4
11
9
10
8
6
1
1
7
7
12
14
15
9
3
4
0
5
4
7
7
9
3
0
5
14
10
6
9
14
11
12
10
8
9
2
5
1
8
1
4
10
10
4
6
8
1
7
10
7
10
6
7
8
6
7
17
12
5
-2
8
2
-5
2
2
-4
1
6
8
13
14
4
4
4
2
-4
6
12
5
7
13
9
5
15
-3
1
11
6
2
0
1
7
4
1
5
5
18
15
-7
4
7
10
1
3
9
13
9
12
10
3
11
20
1
15
16
19
16
8
18
21
19
22
14
16
20
23
17
12
2
11
28
7
1
-10
5
10
8
8
12
9
1
0
0
6
18
3
1
4
7
18
10
3
3
1
-2
-4
2
11
9
9
3
0
4
14
7
5
12
4
1
3
5
3
-3
-7
-5
-6
-5
-3
-13
-9
10
23
39
57
82
112
135
162
180
171
150
142
130
110
99
76
56
24
15
18
26
27
32
23
21
18
15
4
2
23
11
1
15
11
19
18
23
20
16
18
15
15
7
17
18
19
14
9
21
17
23
13
17
20
18
14
21
24
22
21
21
18
18
18
20
25
30
27
22
23
32
16
21
24
19
24
28
31
30
33
32
28
32
24
27
34
36
36
34
43
39
32
41
35
36
49
54
47
55
54
55
48
59
58
51
62
61
62
66
66
65
66
70
81
73
68
70
68
78
72
61
63
74
72
77
81
71
72
72
72
72
61
49
56
51
53
57
46
38
38
38
44
32
35
33
31
37
27
28
33
23
21
21
19
23
25
16
18
14
11
25
20
17
7
13
18
20
12
16
19
10
17
15
18
15
15
20
19
13
6
16
14
15
13
10
17
17
14
14
16
14
16
13
25
10
15
24
17
16
3
13
25
23
14
8
9
18
19
18
19
13
21
24
18
8
7
17
16
17
20
19
13
19
14
13
10
22
23
25
14
12
15
22
22
21
32
24
16
20
23
16
27
25
13
10
27
26
17
15
13
17
24
15
12
15
18
20
24
34
23
7
8
21
12
17
24
23
15
27
30
24
12
12
13
24
26
21
16
18
15
16
13
16
13
14
22
18
23
15
18
22
21
7
12
22
26
13
20
21
19
19
18
18
9
15
25
26
12
17
15
20
17
24
23
16
16
18
21
17
15
25
18
11
16
15
17
21
23
16
14
9
1
13
14
16
11
14
26
38
26
28
23
13
27
33
21
38
27
26
24
18
32
27
29
30
31
34
33
39
27
26
23
17
24
27
21
18
18
22
21
19
16
9
17
18
7
26
15
9
18
22
22
21
11
17
17
17
15
19
23
14
16
11
10
14
17
14
27
26
25
24
11
17
17
20
12
8
-1
-2
9
7
9
13
16
23
49
61
97
124
147
179
190
184
192
169
141
136
121
94
54
32
39
44
36
40
37
40
30
33
24
30
29
18
23
23
25
24
23
17
23
24
30
20
25
33
28
25
32
31
32
28
28
29
26
27
33
28
30
30
33
27
27
25
32
42
39
40
35
25
30
28
33
23
38
35
36
31
36
41
45
45
46
44
35
33
36
38
49
39
46
50
51
48
42
47
57
55
55
52
51
51
53
58
60
61
69
63
70
68
77
77
69
74
77
83
72
75
77
74
86
78
71
88
81
80
87
88
77
78
82
85
72
78
76
66
64
63
55
50
59
51
48
52
54
48
50
43
35
32
42
42
30
37
32
40
41
33
22
20
28
30
29
31
34
29
27
27
24
19
17
23
28
29
38
30
19
16
20
26
18
17
7
29
26
21
21
26
25
8
23
29
23
21
26
23
16
27
26
27
28
28
24
20
19
22
33
34
20
25
26
24
22
34
33
31
24
22
32
28
23
19
29
21
25
28
14
29
30
30
30
24
17
25
32
29
37
33
31
36
36
25
23
32
26
28
35
28
28
30
25
27
30
33
29
31
35
33
30
25
23
24
30
32
32
25
30
29
26
30
27
32
23
28
29
34
25
26
24
35
29
24
25
34
32
24
26
30
33
25
29
27
31
34
36
30
24
22
34
30
30
29
24
38
36
34
33
32
28
20
31
25
28
34
32
30
33
37
34
28
31
30
27
35
40
32
34
32
25
30
25
20
27
46
31
35
42
43
45
43
39
33
33
37
44
49
48
38
41
40
41
41
45
43
46
47
39
40
35
38
35
30
30
31
38
35
40
31
39
35
28
33
40
36
40
26
38
39
37
36
35
28
34
36
34
38
33
30
43
37
32
31
40
38
32
42
28
29
42
31
30
20
22
24
24
24
34
45
57
84
111
131
164
187
204
206
205
186
171
157
141
118
92
70
69
69
65
64
57
54
54
52
50
44
47
41
52
48
46
51
42
43
57
57
53
55
52
47
49
46
43
48
61
62
51
53
54
44
48
54
46
60
60
63
58
64
55
61
55
58
56
60
60
70
69
56
57
57
63
61
58
68
65
58
66
71
66
62
70
71
69
78
75
75
83
83
78
73
81
83
82
84
88
82
88
101
94
96
100
92
93
106
110
104
108
106
110
107
108
112
104
119
119
121
115
114
110
115
115
116
110
112
112
108
104
109
107
97
99
104
97
102
95
92
93
88
81
84
84
74
70
72
62
77
86
75
62
63
62
66
64
57
64
61
64
64
66
57
67
56
59
59
62
54
64
60
55
60
60
53
58
56
63
60
62
61
52
48
61
61
60
66
55
60
58
69
62
53
60
57
63
55
71
61
61
65
64
67
61
57
61
62
59
59
61
65
61
63
64
62
65
64
61
55
69
59
68
67
66
53
56
60
63
73
67
69
69
66
67
66
63
67
70
65
70
66
65
65
76
79
69
57
59
69
71
67
67
65
64
71
72
66
61
63
68
67
56
58
65
58
66
67
62
62
62
66
64
62
70
69
82
71
65
73
63
68
62
66
65
65
68
71
66
67
69
59
63
58
59
70
72
67
61
60
60
64
64
57
62
71
64
66
66
65
67
59
65
65
60
60
61
66
67
73
73
69
72
62
57
64
65
63
74
67
69
65
77
65
67
79
78
73
72
76
78
77
80
82
77
79
75
72
77
78
66
56
70
77
68
66
69
64
68
67
62
59
55
70
72
74
67
64
69
73
66
65
62
57
59
66
61
68
65
64
58
58
55
61
65
74
71
62
68
69
67
71
71
64
57
57
49
43
47
43
37
47
76
93
99
127
152
175
212
234
240
234
221
203
186
182
157
124
92
84
83
81
84
79
79
78
77
71
70
72
70
70
78
69
76
78
75
81
72
69
64
68
74
63
70
74
70
74
70
66
68
70
77
70
69
70
72
78
80
81
76
78
74
75
82
92
80
80
81
77
69
72
77
82
81
81
81
87
88
84
81
80
82
80
88
87
94
93
92
75
85
86
89
99
94
99
105
110
106
100
100
103
106
105
96
113
122
127
118
115
113
119
116
126
124
126
114
126
127
118
117
131
123
118
122
118
120
122
123
112
113
114
108
105
115
110
101
96
96
93
92
91
86
82
81
90
88
77
73
78
73
63
67
64
75
72
70
69
66
66
62
66
64
56
62
65
61
59
57
63
60
44
64
58
66
62
61
60
60
62
57
57
46
46
56
71
66
59
64
60
64
62
66
59
53
66
55
56
61
62
55
58
50
64
64
65
68
60
59
61
64
63
64
57
60
61
59
70
63
54
65
61
64
57
67
57
56
66
66
59
67
52
51
58
60
61
66
62
64
65
69
53
54
58
61
64
68
65
63
61
55
47
52
51
55
63
63
70
66
61
57
54
53
56
51
48
61
63
68
63
65
54
45
50
57
52
50
64
58
56
57
55
51
60
54
48
47
50
49
56
50
56
65
60
59
53
46
55
52
54
53
54
51
58
49
53
47
52
54
55
53
49
46
54
50
51
40
57
53
49
40
45
52
54
49
55
47
61
60
56
53
57
61
61
55
59
62
65
70
56
67
57
56
56
57
58
53
57
48
44
48
48
46
50
40
40
38
51
52
54
44
29
39
48
48
44
40
50
39
52
51
50
59
48
46
40
39
45
49
48
49
48
46
54
48
46
52
47
46
48
31
19
32
26
19
21
39
64
76
96
124
155
180
206
211
212
206
188
184
162
150
123
90
68
53
43
57
54
50
60
64
53
53
47
40
44
63
56
56
51
57
54
53
56
47
44
48
57
50
54
50
49
48
57
53
55
58
53
54
54
48
47
70
64
61
55
60
62
56
70
65
56
58
55
56
70
62
64
58
64
65
60
64
69
76
72
70
62
70
68
65
70
74
68
75
89
84
73
81
82
69
91
98
97
91
91
94
90
93
93
98
99
104
101
120
107
106
113
119
107
104
108
102
109
113
106
107
107
104
114
106
104
107
105
104
94
93
89
91
98
88
92
88
77
79
80
73
68
67
69
72
70
71
62
64
58
50
51
57
59
47
50
49
61
57
55
45
56
46
45
37
47
55
51
39
34
50
50
53
49
36
49
46
39
40
44
46
45
43
44
51
50
50
54
48
44
42
47
51
51
43
43
45
54
55
49
48
47
45
46
46
50
48
49
40
49
51
49
45
47
54
45
58
60
51
50
55
43
46
47
45
55
59
54
52
52
44
44
34
46
42
41
44
48
57
61
52
32
