21
11
2
-6
-2
-6
5
18
23
18
19
12
-1
0
-3
-6
-10
11
22
11
15
9
-13
0
5
7
5
12
18
20
19
13
2
-9
-8
2
0
8
15
23
11
10
-3
4
-2
-7
1
13
18
18
11
9
-1
-12
-12
-7
-5
5
12
17
12
7
4
-4
-8
-8
-5
9
14
17
9
2
-4
-10
-7
-4
-3
11
16
7
-6
-5
-3
-8
-15
-13
-9
12
22
1
8
-7
-22
-25
-24
-12
-1
10
14
15
7
-4
-12
-15
-15
-18
-13
6
13
12
9
-4
-19
-27
-23
-4
4
10
6
9
-5
-17
-20
-17
-18
-16
-8
-5
4
7
-5
-19
-13
-25
-22
-10
-1
9
7
-3
0
-13
-19
-24
-17
-20
-2
4
0
6
4
-10
-25
-25
-20
-17
3
0
0
-4
9
-3
-12
-16
-11
-7
8
17
20
6
4
-7
-5
-11
-6
2
8
22
24
22
9
-6
-5
5
11
9
23
18
26
23
17
-1
-5
-3
0
7
12
17
25
15
8
-10
-12
-30
-10
-11
-3
-1
-8
-9
-15
-28
-28
-27
-27
-16
-2
5
0
1
-14
-31
-29
-43
-39
-22
-9
-12
-5
-16
-21
-45
-47
-51
-54
-46
-31
-27
-22
-28
-33
-29
8
31
61
99
130
166
191
206
202
184
169
159
137
123
116
92
64
16
-16
-29
-37
-40
-36
-39
-33
-29
-47
-44
-54
-51
-52
-63
-48
-38
-28
-22
-20
-33
-49
-38
-43
-37
-28
-22
-24
-18
-23
-19
-23
-31
-39
-32
-38
-18
-10
-10
-17
-21
-25
-31
-39
-31
-28
-20
-13
-12
-19
-16
-29
-32
-36
-27
-21
-15
-8
-6
-11
-15
-24
-32
-33
-30
-23
-8
-6
-1
-5
-8
-24
-33
-26
-22
-28
-3
5
3
-1
-2
-17
-16
-20
-13
-8
6
10
14
13
-6
-7
-5
-6
-1
15
28
26
20
23
17
6
-3
14
13
16
37
39
40
34
26
13
11
17
26
36
45
44
42
38
21
21
11
17
23
22
31
36
40
22
10
-8
-2
-6
-2
-27
4
6
0
-12
-19
-30
-35
-33
-26
-19
-17
-6
-15
-21
-27
-42
-45
-41
-34
-34
-22
-26
-18
-20
-31
-46
-44
-40
-36
-25
-16
-10
-23
-31
-37
-40
-42
-42
-39
-30
-18
-22
-30
-34
-44
-49
-55
-49
-40
-27
-25
-22
-23
-37
-47
-53
-57
-54
-36
-26
-15
-18
-17
-22
-38
-56
-70
-49
-33
-25
-26
-25
-27
-34
-50
-45
-42
-41
-41
-31
-33
-25
-22
-25
-50
-51
-46
-43
-37
-29
-23
-30
-32
-47
-56
-60
-60
-52
-45
-34
-28
-24
-25
-33
-54
-57
-55
-51
-43
-30
-26
-36
-41
-45
-57
-56
-58
-46
-36
-33
-37
-35
-31
-49
-57
-69
-51
-56
-51
-39
-38
-33
-43
-53
-59
-58
-53
-45
-43
-39
-35
-31
-40
-46
-65
-70
-68
-49
-45
-28
-28
-42
-44
-47
-60
-74
-61
-57
-49
-41
-45
-39
-42
-57
-61
-64
-66
-60
-50
-50
-35
-41
-47
-60
-70
-65
-60
-60
-50
-44
-40
-37
-49
-55
-68
-67
-62
-54
-39
-33
-36
-36
-40
-52
-59
-61
-52
-46
-43
-44
-35
-40
-45
-59
-59
-52
-42
-42
-29
-23
-19
-20
-32
-50
-42
-47
-35
-36
-22
-22
-12
-22
-29
-49
-46
-43
-41
-40
-29
-32
-28
-40
-53
-64
-72
-69
-56
-57
-44
-42
-42
-47
-55
-64
-63
-65
-67
-61
-48
-47
-45
-53
-56
-73
-62
-61
-54
-56
-56
-60
-58
-63
-77
-85
-93
-99
-96
-85
-82
-75
-70
-69
-74
-58
-40
-3
33
67
106
127
148
154
143
134
118
101
85
65
50
39
13
-29
-51
-59
-68
-75
-84
-72
-64
-62
-69
-76
-89
-94
-97
-92
-78
-71
-58
-58
-55
-61
-71
-79
-77
-69
-62
-72
-63
-62
-55
-60
-71
-76
-79
-77
-68
-54
-48
-54
-59
-57
-72
-67
-70
-66
-66
-52
-52
-40
-45
-48
-69
-70
-74
-68
-64
-50
-44
-35
-41
-48
-60
-65
-71
-63
-62
-47
-41
-40
-40
-38
-47
-66
-74
-63
-52
-45
-41
-34
-37
-45
-59
-58
-52
-52
-40
-30
-27
-25
-24
-30
-35
-43
-37
-32
-25
-16
-11
3
-1
-22
-22
-22
-25
-25
-15
-3
3
5
3
-1
-17
-19
-21
-30
-10
10
4
2
5
-6
-21
-27
-27
-23
-13
1
-2
-15
-19
-29
-47
-56
-51
-38
-38
-27
-27
-27
-44
-46
-55
-67
-69
-63
-58
-45
-43
-40
-44
-60
-82
-75
-71
-62
-52
-51
-53
-54
-55
-65
-61
-66
-70
-73
-57
-53
-49
-53
-62
-66
-72
-71
-78
-73
-54
-48
-42
-45
-49
-70
-74
-80
-72
-70
-52
-49
-49
-57
-52
-70
-78
-76
-72
-68
-57
-50
-61
-53
-64
-78
-74
-68
-70
-61
-54
-51
-47
-55
-59
-69
-66
-71
-76
-63
-55
-55
-50
-49
-55
-71
-69
-67
-67
-63
-50
-40
-37
-54
-76
-81
-77
-78
-69
-60
-54
-62
-52
-48
-61
-68
-75
-84
-77
-66
-54
-53
-47
-52
-62
-76
-75
-75
-73
-63
-53
-48
-55
-58
-63
-78
-78
-74
-65
-65
-53
-52
-54
-60
-70
-77
-75
-75
-69
-59
-58
-52
-50
-59
-74
-79
-78
-68
-65
-59
-57
-49
-57
-62
-59
-74
-71
-79
-78
-71
-56
-49
-56
-55
-59
-75
-81
-77
-71
-60
-54
-53
-48
-58
-67
-70
-81
-78
-73
-60
-49
-43
-56
-59
-73
-71
-75
-60
-59
-56
-46
-49
-49
-51
-55
-72
-72
-65
-63
-49
-35
-33
-40
-55
-58
-69
-74
-56
-57
-36
-32
-27
-30
-34
-52
-52
-49
-44
-41
-30
-30
-23
-32
-30
-56
-57
-60
-49
-43
-34
-32
-30
-39
-42
-62
-64
-69
-66
-63
-45
-47
-48
-47
-56
-67
-72
-77
-65
-55
-54
-53
-51
-59
-54
-64
-74
-82
-78
-62
-54
-54
-55
-61
-77
-91
-87
-98
-92
-83
-83
-83
-80
-81
-83
-90
-69
-41
-14
27
50
88
112
128
144
134
129
133
117
106
100
77
62
36
-12
-53
-61
-65
-65
-61
-57
-70
-71
-77
-93
-92
-102
-95
-82
-76
-54
-53
-59
-59
-67
-78
-80
-76
-65
-57
-47
-55
-58
-63
-69
-65
-67
-73
-56
-57
-40
-46
-56
-55
-68
-64
-69
-75
-71
-61
-52
-38
-38
-41
-57
-73
-80
-70
-63
-42
-44
-43
-43
-52
-69
-63
-65
-59
-60
-43
-43
-32
-39
-44
-61
-57
-57
-52
-55
-40
-34
-25
-34
-39
-44
-50
-51
-43
-40
-28
-23
-17
-21
-24
-48
-45
-38
-37
-27
-13
-5
-11
-13
-6
-22
-29
-18
-12
-8
3
7
1
-4
-1
-9
-11
-8
-6
-6
7
13
9
0
-3
-15
-15
-18
-9
-14
2
-5
2
-4
-8
-28
-37
-38
-31
-22
-30
-26
-21
-31
-34
-55
-55
-54
-41
-45
-35
-36
-33
-35
-43
-55
-59
-57
-49
-48
-39
-40
-45
-46
-46
-65
-69
-52
-54
-47
-43
-36
-29
-46
-54
-66
-69
-62
-58
-54
-44
-36
-33
-43
-58
-64
-65
-58
-58
-42
-35
-34
-36
-48
-52
-53
-57
-65
-61
-55
-34
-36
-37
-46
-53
-68
-65
-68
-52
-41
-41
-29
-35
-45
-71
-65
-66
-62
-51
-40
-37
-34
-38
-43
-55
-58
-56
-55
-51
-47
-36
-35
-47
-55
-62
-60
-51
-52
-51
-36
-34
-31
-34
-47
-56
-71
-72
-64
-46
-41
-36
-41
-50
-43
-54
-52
-54
-58
-64
-46
-42
-36
-39
-47
-66
-57
-63
-57
-51
-37
-29
-27
-42
-53
-67
-59
-61
-57
-47
-46
-34
-41
-44
-50
-63
-62
-66
-62
-51
-45
-36
-34
-47
-49
-57
-65
-61
-61
-52
-37
-26
-34
-40
-45
-60
-68
-68
-63
-49
-37
-40
-47
-35
-52
-60
-65
-61
-57
-47
-44
-35
-35
-45
-56
-65
-61
-63
-56
-39
-39
-33
-38
-40
-49
-68
-69
-55
-47
-41
-28
-26
-29
-35
-45
-48
-56
-50
-38
-20
-21
-24
-26
-26
-34
-45
-35
-33
-23
-18
-11
-5
-10
-7
-25
-32
-35
-25
-16
-11
-9
-9
-9
-14
-38
-30
-35
-34
-19
-18
-16
-24
-25
-34
-58
-60
-54
-52
-35
-23
-18
-27
-38
-36
-64
-64
-51
-59
-48
-33
-28
-33
-35
-48
-51
-46
-59
-57
-43
-37
-38
-35
-50
-58
-68
-74
-74
-79
-75
-70
-65
-51
-47
-51
-47
-17
20
56
88
126
157
177
178
169
158
143
134
111
100
65
54
27
-9
-46
-54
-60
-64
-64
-57
-56
-56
-53
-63
-75
-77
-82
-83
-68
-54
-36
-32
-42
-60
-63
-64
-67
-58
-66
-48
-39
-37
-36
-53
-66
-68
-74
-60
-52
-43
-33
-35
-32
-42
-55
-60
-65
-61
-53
-43
-31
-33
-36
-47
-51
-57
-54
-53
-55
-38
-24
-20
-22
-40
-53
-60
-51
-45
-44
-30
-22
-16
-33
-39
-49
-56
-49
-43
-41
-17
-17
-21
-26
-18
-31
-27
-24
-32
-42
-33
-10
-5
-16
-18
-30
-31
-30
-20
-10
-2
-2
6
-1
-6
-11
-12
-13
-3
6
11
13
19
18
7
-19
3
-4
7
2
15
24
24
14
4
-4
-10
-12
-1
-3
8
8
13
2
-13
-24
-24
-24
-29
-27
-18
-11
-19
-21
-43
-48
-52
-48
-38
-32
-26
-30
-26
-33
-40
-51
-54
-49
-48
-49
-35
-29
-30
-33
-43
-52
-50
-51
-53
-45
-48
-31
-21
-35
-40
-53
-66
-61
-50
-41
-33
-28
-39
-42
-35
-52
-51
-49
-49
-38
-26
-18
-28
-36
-64
-50
-54
-56
-41
-31
-39
-30
-29
-45
-59
-59
-59
-49
-44
-38
-29
-26
-37
-35
-49
-49
-53
-46
-49
-41
-32
-30
-28
-40
-55
-49
-59
-53
-38
-29
-28
-26
-32
-37
-51
-54
-49
-58
-46
-31
-39
-28
-34
-39
-50
-53
-53
-49
-41
-36
-28
-28
-35
-36
-54
-54
-59
-66
-57
-30
-23
-28
-33
-33
-63
-61
-51
-49
-38
-39
-38
-30
-24
-42
-58
-58
-60
-52
-45
-32
-30
-30
-34
-44
-57
-67
-61
-51
-44
-38
-30
-29
-40
-51
-58
-55
-59
-58
-44
-23
-29
-39
-36
-45
-51
-51
-62
-43
-29
-43
-37
-36
-46
-51
-64
-61
-50
-48
-40
-37
-30
-28
-31
-48
-63
-67
-60
-46
-37
-24
-30
-26
-47
-53
-61
-68
-57
-44
-30
-20
-22
-20
-28
-43
-49
-49
-49
-43
-28
-24
-22
-27
-24
-36
-35
-35
-23
-20
-16
-12
-2
-6
-20
-33
-27
-34
-29
-30
-19
-17
-1
-9
-16
-28
-35
-40
-44
-25
-14
-24
-22
-33
-30
-49
-55
-46
-48
-40
-33
-33
-23
-34
-46
-52
-53
-55
-64
-49
-35
-34
-41
-39
-50
-58
-58
-62
-52
-44
-40
-38
-35
-46
-70
-74
-82
-83
-83
-81
-62
-59
-44
-29
-34
-21
10
38
80
115
151
171
192
183
169
148
102
88
86
66
55
30
-7
-36
-47
-65
-62
-69
-65
-64
-56
-66
-67
-57
-72
-77
-82
-71
-67
-58
-47
-38
-42
-42
-50
-60
-61
-61
-51
-53
-41
-32
-41
-42
-48
-63
-70
-67
-60
-37
-32
-25
-40
-47
-54
-65
-60
-49
-47
-48
-38
-32
-24
-40
-42
-58
-61
-54
-47
-42
-37
-19
-25
-35
-55
-47
-45
-42
-39
-32
-34
-32
-29
-25
-34
-39
-45
-47
-42
-22
-15
-10
-17
-22
-34
-47
-37
-30
-23
-20
-19
2
-4
-15
-24
-23
-26
-24
-12
11
14
10
3
1
-17
-8
-15
-10
1
25
27
21
10
16
-1
0
5
4
7
22
17
16
18
16
-5
-10
-13
-13
5
16
8
8
3
-15
-23
-31
-27
-20
-19
-16
-7
-3
-23
-28
-39
-44
-46
-44
-37
-16
-21
-28
-31
-46
-49
-56
-54
-50
-37
-31
-22
-30
-34
-50
-44
-55
-56
-46
-34
-28
-30
-34
-40
-43
-53
-46
-47
-45
-35
-31
-27
-39
-40
-39
-51
-52
-39
-37
-32
-37
-32
-30
-41
-47
-47
-60
-53
-41
-39
-26
-29
-30
-35
-38
-49
-64
-54
-44
-25
-36
-29
-33
-39
-49
-49
-50
-58
-40
-27
-27
-18
-26
-37
-56
-49
-51
-49
-44
-38
-33
-17
-26
-29
-51
-62
-51
-38
-41
-38
-36
-32
-34
-45
-48
-46
-56
-47
-38
-34
-29
-34
-34
-40
-56
-60
-55
-51
-38
-22
-29
-34
-40
-45
-53
-53
-52
-50
-46
-36
-30
-28
-33
-50
-61
-65
-57
-47
-32
-30
-33
-22
-25
-46
-62
-60
-65
-54
-38
-26
-31
-32
-45
-50
-56
-56
-55
-51
-40
-31
-32
-35
-33
-54
-56
-54
-59
-49
-41
-34
-28
-32
-36
-50
-57
-63
-56
-32
-43
-58
-69
-60
-46
-48
-38
-32
-21
-25
-38
-53
-51
-55
-52
-36
-31
-31
-18
-24
-26
-52
-55
-52
-43
-36
-25
-24
-12
-23
-22
-30
-30
-37
-30
-26
-18
-8
-5
-17
-17
-27
-31
-40
-31
-25
-12
-20
-18
-10
-25
-29
-33
-39
-39
-35
-28
-28
-30
-28
-44
-52
-71
-54
-53
-49
-35
-30
-29
-44
-36
-55
-65
-68
-55
-55
-33
-33
-30
-39
-42
-54
-59
-67
-63
-52
-39
-37
-54
-63
-75
-90
-91
-87
-78
-65
-54
-26
1
15
38
62
85
119
158
166
180
175
171
151
118
82
57
39
0
-26
-38
-41
-46
-43
-58
-78
-92
-85
-80
-76
-62
-54
-51
-67
-76
-76
-76
-71
-68
-53
-42
-38
-51
-50
-57
-55
-63
-51
-62
-54
-44
-34
-40
-40
-54
-74
-62
-61
-54
-36
-41
-36
-36
-40
-57
-62
-59
-63
-51
-39
-36
-26
-37
-43
-55
-54
-61
-50
-46
-35
-32
-28
-35
-39
-48
-48
-51
-49
-43
-29
-23
-16
-29
-30
-47
-46
-45
-39
-33
-30
-22
-17
-18
-26
-33
-26
-24
-21
-18
-13
-11
-3
3
-12
-25
-17
-13
-14
-12
6
8
12
6
-2
-9
-13
-5
-6
0
19
16
24
10
13
-6
0
3
9
15
23
18
13
11
-4
-12
-14
-14
-5
1
-1
6
8
-2
-21
-32
-28
-36
-28
-28
-20
-16
-18
-33
-36
-60
-56
-59
-43
-32
-35
-27
-45
-33
-38
-53
-66
-51
-48
-41
-38
-33
-37
-28
-45
-59
-61
-57
-55
-38
-29
-33
-27
-39
-50
-58
-63
-47
-40
-36
-40
-30
-41
-45
-66
-50
-60
-53
-54
-37
-35
-33
-36
-44
-43
-64
-65
-61
-52
-40
-26
-27
-32
-39
-55
-66
-59
-59
-48
-35
-27
-30
-40
-46
-50
-47
-50
-53
-44
-34
-30
-27
-38
-39
-46
-64
-66
-51
-36
-39
-45
-40
-42
-45
-60
-51
-57
-60
-50
-37
-31
-34
-48
-48
-60
-65
-64
-50
-41
-31
-34
-38
-46
-51
-63
-55
-62
-50
-35
-32
-25
-23
-41
-49
-61
-62
-65
-63
-55
-36
-27
-31
-43
-54
-66
-63
-67
-65
-50
-37
-36
-36
-45
-43
-57
-69
-55
-55
-46
-43
-37
-40
-53
-58
-61
-59
-67
-55
-55
-37
-34
-39
-41
-55
-72
-59
-61
-61
-45
-42
-39
-36
-42
-55
-65
-56
-63
-64
-44
-38
-29
-38
-48
-57
-62
-62
-54
-51
-47
-51
-45
-46
-49
-56
-56
-57
-53
-50
-52
-34
-29
-37
-43
-54
-53
-65
-43
-43
-38
-33
-25
-36
-34
-47
-46
-47
-42
-40
-13
-10
-11
-11
-23
-35
-39
-38
-31
-28
-16
-8
-10
-22
-33
-42
-43
-42
-38
-36
-21
-17
-25
-31
-46
-66
-66
-64
-51
-37
-41
-31
-37
-43
-54
-68
-74
-62
-53
-48
-44
-38
-36
-44
-53
-62
-68
-67
-66
-58
-44
-39
-41
-54
-61
-73
-87
-89
-87
-81
-71
-66
-62
-60
-69
-56
-28
-5
30
54
98
132
159
183
173
156
137
125
111
100
76
61
26
-4
-43
-68
-77
-73
-68
-63
-64
-60
-69
-77
-86
-92
-105
-90
-81
-64
-48
-46
-49
-54
-78
-74
-74
-77
-69
-61
-50
-39
-50
-55
-62
-69
-78
-70
-69
-50
-46
-39
-44
-45
-67
-75
-75
-67
-63
-46
-41
-39
-43
-47
-61
-72
-74
-68
-63
-44
-37
-37
-39
-44
-58
-62
-63
-58
-50
-53
-39
-38
-49
-43
-64
-58
-59
-57
-46
-30
-27
-34
-32
-40
-63
-58
-50
-48
-37
-26
-15
-14
-16
-22
-38
-42
-38
-26
-22
-11
1
0
-10
-21
-22
-22
-22
-4
4
0
3
3
3
-2
-16
-16
-15
-19
-3
11
11
6
-2
-4
-12
-20
-17
-11
-5
-9
-2
5
-12
-27
-42
-38
-52
-50
-34
-31
-15
-20
-38
-48
-56
-62
-63
-61
-54
-35
-40
-50
-48
-61
-65
-71
-69
-62
-53
-55
-45
-44
-69
-69
-67
-72
-79
-68
-53
-47
-34
-52
-57
-66
-67
-72
-68
-71
-63
-61
-52
-64
-56
-63
-74
-77
-73
-70
-59
-51
-49
-53
-62
-72
-70
-89
-83
-71
-64
-55
-55
-63
-55
-68
-74
-89
-81
-74
-60
-50
-53
-60
-61
-71
-77
-76
-71
-74
-61
-47
-48
-56
-62
-81
-82
-86
-73
-76
-71
-61
-53
-62
-69
-82
-81
-82
-73
-68
-62
-60
-58
-62
-70
-86
-93
-89
-74
-59
-57
-61
-58
-66
-69
-82
-81
-79
-75
-80
-60
-60
-68
-74
-77
-99
-83
-90
-84
-67
-69
-63
-62
-62
-75
-80
-86
-89
-89
-75
-66
-69
-76
-70
-94
-81
-85
-89
-81
-78
-63
-60
-71
-74
-86
-94
-92
-88
-89
-78
-61
-62
-62
-71
-81
-91
-90
-87
-91
-74
-69
-66
-61
-66
-91
-95
-94
-83
-80
-69
-66
-63
-61
-67
-89
-101
-92
-90
-77
-67
-70
-73
-75
-71
-77
-87
-88
-82
-89
-80
-66
-57
-58
-67
-74
-89
-82
-79
-75
-63
-59
-49
-48
-56
-65
-70
-75
-59
-49
-39
-41
-42
-42
-48
-69
-67
-68
-66
-69
-56
-43
-45
-54
-59
-71
-73
-79
-75
-74
-60
-55
-56
-68
-83
-90
-88
-99
-92
-82
-71
-63
-66
-77
-79
-88
-88
-101
-95
-86
-77
-60
-62
-72
-78
-94
-100
-102
-94
-92
-83
-82
-82
-93
-117
-117
-121
-113
-98
-76
-44
-20
3
34
48
69
87
107
117
124
128
114
96
66
33
0
-24
-50
-64
-80
-69
-67
-82
-94
-105
-112
-120
-117
-108
-86
-81
-87
-87
-80
-90
-92
-100
-100
-88
-81
-77
-65
-74
-75
-90
-92
-91
-96
-93
-80
-71
-67
-69
-75
-90
-99
-102
-92
-82
-69
-74
-72
-64
-72
-92
-91
-93
-91
-82
-64
-62
-59
-62
-70
-91
-89
-76
-78
-69
-62
-58
-60
-53
-62
-77
-83
-78
-80
-74
-63
-53
-54
-58
-62
-79
-67
-68
-84
-54
-42
-57
-53
-54
-52
-60
-64
-69
-68
-59
-39
-29
-27
-34
-34
-49
-52
-50
-44
-36
-34
-19
-12
-23
-22
-39
-39
-37
-35
-23
-8
-6
-9
-9
-14
-31
-30
-39
-31
-27
-22
-10
-19
-24
-32
-46
-46
-47
-59
-48
-36
-44
-39
-36
-49
-61
-72
-62
-59
-64
-43
-54
-64
-63
-71
-83
-81
-77
-77
-71
-60
-48
-58
-65
-70
-87
-86
-78
-82
-76
-62
-58
-59
-70
-84
-76
-83
-86
-71
-63
-63
-65
-60
-64
-76
-84
-82
-80
-76
-70
-52
-56
-64
-70
-75
-83
-84
-78
-80
-72
-63
-57
-52
-63
-79
-83
-82
-80
-80
-67
-61
-57
-56
-64
-70
-84
-86
-73
-70
-53
-62
-57
-65
-60
-74
-80
-78
-76
-68
-61
-58
-61
-47
-66
-76
-82
-76
-76
-65
-63
-52
-54
-56
-75
-81
-71
-69
-82
-71
-57
-56
-57
-59
-64
-76
-81
-78
-70
-73
-64
-58
-50
-53
-65
-81
-81
-76
-71
-75
-67
-49
-51
-56
-65
-86
-80
-74
-72
-62
-62
-57
-56
-55
-73
-86
-78
-84
-77
-69
-52
-57
-58
-60
-75
-78
-83
-80
-76
-66
-50
-53
-56
-63
-70
-71
-78
-80
-68
-70
-59
-57
-54
-61
-70
-77
-79
-78
-72
-69
-53
-52
-58
-59
-70
-77
-85
-73
-69
-59
-58
-56
-60
-56
-63
-71
-70
-73
-70
-57
-46
-36
-41
-60
-67
-76
-73
-68
-60
-46
-40
-34
-41
-46
-53
-53
-52
-43
-46
-31
-32
-13
-24
-31
-54
-56
-57
-53
-44
-32
-27
-31
-35
-36
-55
-64
-55
-51
-43
-45
-37
-38
-41
-57
-65
-71
-72
-76
-64
-57
-51
-52
-62
-65
-70
-72
-75
-72
-67
-61
-48
-57
-59
-64
-87
-83
-82
-76
-62
-59
-64
-58
-73
-90
-99
-118
-103
-98
-84
-57
-40
-17
-3
21
38
68
103
129
153
170
161
163
138
106
84
57
16
11
-8
-26
-37
-51
-57
-71
-91
-91
-93
-90
-82
-75
-71
-74
-66
-75
-90
-91
-72
-71
-67
-57
-59
-55
-60
-67
-80
-74
-76
-74
-61
-55
-53
-54
-61
-71
-76
-82
-74
-68
-54
-48
-52
-53
-54
-63
-73
-67
-69
-69
-51
-47
-49
-57
-62
-62
-61
-59
-73
-67
-47
-41
-37
-43
-48
-60
-62
-68
-64
-52
-37
-41
-33
-47
-48
-53
-63
-64
-50
-43
-47
-34
-29
-27
-34
-44
-45
-50
-51
-39
-22
-26
-17
-22
-24
-30
-34
-28
-24
-24
-8
0
1
-1
-2
-14
-24
-21
-14
-4
8
5
4
9
-3
-16
-22
-9
-4
-1
1
10
6
5
-15
-28
-23
-31
-33
-27
-14
-9
-13
-25
-31
-50
-45
-46
-52
-38
-33
-36
-34
-42
-47
-49
-55
-53
-55
-46
-33
-30
-36
-47
-65
-62
-70
-65
-58
-44
-39
-34
-44
-48
-62
-67
-56
-57
-59
-54
-45
-45
-40
-45
-60
-68
-74
-70
-59
-43
-40
-36
-44
-48
-60
-63
-70
-62
-49
-54
-41
-40
-42
-45
-55
-60
-64
-60
-54
-41
-43
-45
-42
-45
-58
-63
-63
-64
-55
-37
-34
-37
-37
-43
-57
-65
-67
-60
-53
-34
-33
-38
-39
-42
-56
-55
-60
-61
-59
-36
-37
-38
-46
-54
-58
-61
-64
-54
-47
-43
-42
-33
-40
-48
-54
-59
-66
-55
-42
-36
-47
-37
-44
-62
-71
-61
-61
-63
-51
-43
-34
-38
-52
-50
-51
-64
-73
-62
-51
-41
-37
-39
-51
-51
-59
-69
-61
-60
-49
-32
-33
-32
-46
-60
-66
-67
-59
-50
-46
-41
-42
-37
-51
-59
-67
-68
-77
-62
-39
-34
-39
-36
-45
-54
-67
-71
-61
-54
-52
-33
-35
-37
-43
-63
-74
-61
-66
-51
-43
-49
-42
-38
-47
-57
-64
-60
-60
-55
-50
-36
-33
-38
-42
-48
-55
-59
-54
-54
-37
-21
-32
-31
-31
-46
-52
-54
-47
-33
-25
-31
-21
-34
-26
-38
-40
-31
-23
-31
-20
-13
-7
-6
-21
-32
-36
-30
-29
-36
-26
-21
-13
-15
-30
-30
-44
-57
-46
-36
-32
-28
-33
-36
-40
-56
-60
-61
-69
-53
-40
-40
-37
-37
-49
-62
-59
-65
-57
-61
-39
-34
-33
-55
-52
-58
-71
-64
-61
-73
-53
-54
-55
-61
-74
-91
-92
-92
-68
-65
-43
-10
12
35
48
67
114
125
146
171
169
178
167
135
95
63
41
14
-17
-31
-31
-34
-36
-47
-65
-89
-84
-84
-78
-79
-58
-50
-56
-62
-61
-64
-76
-69
-72
-51
-45
-45
-46
-55
-70
-73
-74
-67
-66
-44
-38
-47
-39
-50
-68
-68
-67
-52
-52
-39
-39
-41
-43
-45
-51
-58
-61
-56
-50
-43
-34
-28
-28
-45
-54
-54
-58
-41
-36
-39
-38
-28
-48
-43
-52
-54
-56
-54
-46
-32
-23
-22
-33
-35
-44
-44
-43
-32
-27
-23
-26
-13
-6
-24
-33
-42
-31
-18
-20
2
-3
3
-8
-12
-15
-19
-20
-9
-3
3
6
18
11
9
-6
-7
-4
1
15
26
22
22
16
-7
-14
-16
-1
8
11
17
24
21
16
6
-13
-24
-25
-7
-4
6
9
3
-12
-20
-29
-36
-33
-27
-19
-14
-18
-20
-27
-37
-44
-43
-47
-54
-32
-24
-15
-19
-30
-49
-57
-57
-51
-42
-46
-37
-33
-27
-35
-40
-54
-64
-55
-53
-36
-27
-22
-37
-29
-46
-50
-51
-57
-49
-34
-34
-24
-24
-32
-47
-54
-56
-56
-49
-36
-28
-22
-26
-21
-46
-62
-51
-48
-40
-30
-39
-25
-25
-34
-53
-47
-54
-60
-45
-42
-24
-25
-31
-40
-51
-51
-50
-45
-40
-28
-30
-29
-22
-32
-45
-48
-52
-44
-36
-27
-21
-23
-29
-32
-46
-53
-50
-43
-38
-23
-24
-29
-40
-38
-47
-41
-59
-46
-39
-34
-29
-20
-36
-38
-46
-47
-52
-53
-46
-33
-31
-27
-29
-40
-51
-49
-49
-45
-42
-26
-21
-23
-36
-46
-52
-53
-52
-43
-36
-29
-28
-30
-30
-46
-50
-52
-55
-40
-33
-33
-29
-30
-36
-41
-60
-52
-46
-49
-36
-37
-37
-28
-39
-45
-52
-58
-57
-52
-34
-22
-18
-30
-36
-46
-46
-57
-49
-44
-33
-25
-31
-27
-28
-38
-55
-42
-46
-38
-35
-31
-18
-22
-24
-32
-47
-52
-41
-31
-34
-18
-19
-23
-25
-38
-35
-43
-44
-35
-14
-10
-5
-2
-13
-33
-40
-37
-25
-17
4
9
7
-5
-8
-22
-26
-24
-16
-1
1
8
12
-9
-20
-23
-32
-29
-9
-1
-1
-1
-9
-10
-15
-33
-50
-40
-33
-28
-18
-15
-24
-30
-28
-41
-46
-46
-42
-37
-25
-27
-25
-22
-34
-48
-47
-48
-40
-38
-26
-24
-20
-28
-35
-53
-62
-68
-69
-60
-57
-47
-41
-38
-34
-37
-13
6
40
78
122
153
177
197
189
164
164
152
135
114
95
78
46
3
-25
-42
-50
-53
-53
-43
-36
-32
-36
-45
-54
-71
-73
-58
-46
-39
-22
-24
-34
-38
-44
-42
-46
-45
-48
-37
-27
-29
-29
-34
-36
-39
-46
-58
-46
-26
-22
-17
-19
-26
-44
-44
-58
-49
-52
-35
-17
-20
-16
-18
-35
-35
-41
-41
-31
-22
-19
-13
-27
-18
-30
-42
-41
-27
-32
-18
-11
-7
-7
-28
-32
-34
-34
-42
-31
-10
-8
0
-6
-14
-32
-28
-30
-15
-15
1
-1
2
6
3
-9
-7
-13
-4
3
16
12
26
16
13
1
1
7
6
11
18
30
40
27
26
11
5
5
17
31
37
41
47
30
17
-1
6
5
13
22
34
27
21
13
-4
-6
-15
-13
-15
0
10
17
15
2
-20
-27
-26
-34
-27
-14
-11
-17
-18
-21
-33
-32
-34
-33
-30
-25
-17
-5
-14
-20
-36
-43
-47
-41
-28
-14
-13
-13
-15
-19
-35
-41
-50
-41
-31
-26
-22
-16
-15
-23
-30
-35
-45
-41
-35
-20
-13
-11
-22
-27
-28
-37
-29
-35
-43
-20
-18
-19
-22
-24
-34
-40
-35
-34
-37
-13
-17
-9
-18
-22
-30
-36
-44
-37
-37
-20
-18
-13
-14
-26
-33
-39
-38
-39
-35
-17
-12
-11
-18
-24
-32
-41
-31
-28
-20
-22
-17
-11
-15
-28
-39
-47
-35
-37
-28
-12
-14
-15
-21
-27
-37
-42
-38
-36
-35
-20
-17
-24
-28
-21
-44
-48
-40
-45
-22
-14
-17
-15
-20
-32
-49
-46
-35
-28
-27
-18
-18
-13
-24
-30
-41
-36
-43
-40
-32
-13
-13
-22
-29
-25
-38
-43
-36
-37
-30
-29
-24
-13
-14
-30
-46
-46
-38
-41
-31
-10
-8
-15
-34
-37
-44
-41
-45
-34
-20
-12
-15
-19
-21
-40
-36
-44
-35
-34
-26
-20
-16
-14
-18
-32
-39
-34
-44
-24
-24
-10
-11
-20
-29
-25
-32
-32
-38
-28
-16
-11
-5
-6
-16
-28
-26
-23
-15
-22
-10
1
14
5
-4
-16
-20
-23
0
6
7
7
20
24
5
-15
-12
-21
-23
-12
6
1
0
-3
-1
-13
-28
-36
-34
-28
-14
-12
-10
-11
-24
-35
-37
-34
-40
-32
-19
-16
-17
-23
-24
-34
-35
-41
-38
-26
-14
-15
-15
-23
-27
-43
-51
-49
-59
-40
-36
-37
-43
-48
-66
-76
-71
-50
-36
-1
22
53
93
113
127
141
162
179
173
191
193
160
132
102
65
35
1
-28
-28
-29
-26
-22
-35
-47
-60
-62
-67
-76
-68
-48
-45
-37
-35
-40
-50
-49
-46
-46
-43
-32
-18
-18
-28
-35
-36
-41
-44
-42
-45
-29
-9
-15
-31
-36
-46
-46
-43
-45
-38
-19
-18
-18
-26
-26
-35
-39
-44
-40
-32
-15
-11
-6
-20
-28
-32
-40
-38
-36
-28
-14
-12
-13
-6
-15
-27
-27
-31
-30
-35
-7
-6
7
-2
-9
-15
-20
-23
-34
-14
7
2
2
2
-14
-29
-17
-13
-6
2
12
23
23
21
13
7
3
0
11
21
32
39
42
30
24
15
13
15
21
30
42
45
35
31
34
19
16
17
16
27
38
41
27
25
27
-1
-5
-1
1
11
20
9
10
3
-2
-17
-25
-32
-30
-8
-13
-4
-12
-14
-33
-34
-31
-30
-27
-20
-20
-12
-11
-33
-43
-39
-44
-46
-36
-26
-19
-11
-18
-36
-47
-30
-35
-34
-28
-29
-16
-14
-21
-32
-37
-35
-49
-40
-32
-22
-20
-15
-22
-24
-40
-41
-41
-39
-36
-25
-21
-17
-19
-24
-48
-48
-60
-47
-28
-12
-14
-20
-32
-39
-42
-47
-44
-38
-32
-19
-17
-14
-19
-27
-40
-48
-43
-47
-25
-18
-24
-17
-33
-35
-42
-51
-38
-42
-42
-26
-15
-18
-21
-38
-47
-53
-53
-40
-43
-20
-18
-23
-24
-39
-49
-49
-51
-42
-33
-22
-26
-25
-36
-47
-48
-42
-53
-50
-28
-35
-32
-33
-31
-42
-56
-56
-57
-51
-41
-28
-28
-23
-37
-52
-51
-49
-51
-48
-36
-31
-21
-29
-38
-45
-55
-56
-50
-43
-44
-41
-35
-30
-31
-49
-53
-63
-62
-53
-41
-26
-23
-37
-38
-51
-59
-55
-57
-53
-35
-29
-35
-38
-43
-55
-54
-58
-50
-49
-43
-29
-29
-34
-37
-48
-51
-52
-48
-44
-34
-30
-23
-37
-42
-58
-53
-46
-41
-35
-30
-19
-16
-21
-27
-30
-34
-39
-34
-20
-22
-11
-6
-14
-21
-24
-35
-49
-39
-29
-15
-8
-23
-24
-31
-46
-49
-43
-46
-40
-31
-33
-31
-34
-47
-51
-64
-66
-60
-48
-37
-43
-27
-24
-47
-65
-54
-61
-57
-54
-45
-43
-41
-43
-51
-60
-65
-64
-62
-55
-48
-52
-57
-73
-88
-94
-101
-100
-77
-50
-41
-28
-1
29
55
69
99
125
155
166
166
160
141
121
85
38
14
-3
-20
-24
-44
-32
-38
-50
-68
-88
-91
-90
-85
-82
-59
-59
-62
-60
-81
-79
-78
-69
-66
-53
-46
-49
-49
-50
-60
-71
-72
-72
-65
-56
-49
-39
-41
-45
-60
-64
-65
-70
-59
-42
-34
-36
-54
-61
-65
-61
-63
-62
-56
-41
-29
-36
-43
-52
-62
-64
-66
-54
-56
-46
-37
-31
-34
-34
-48
-53
-63
-54
-45
-39
-30
-22
-28
-52
-66
-58
-57
-50
-31
-16
-21
-15
-21
-27
-42
-41
-43
-29
-23
-10
-12
-4
-2
-25
-17
-28
-17
-22
-9
8
4
17
8
-3
-9
-9
-8
-2
12
15
18
24
8
5
-6
-13
-12
4
7
17
19
23
12
-10
-28
-24
-24
-11
-25
-5
-9
-13
-21
-33
-47
-48
-47
-39
-29
-24
-23
-26
-32
-42
-55
-54
-50
-56
-48
-37
-37
-33
-40
-53
-66
-61
-54
-65
-54
-40
-38
-36
-40
-57
-60
-67
-63
-57
-43
-45
-34
-42
-42
-50
-56
-61
-56
-54
-47
-38
-29
-44
-41
-59
-68
-63
-58
-51
-44
-43
-37
-39
-51
-59
-60
-63
-59
-51
-47
-37
-51
-36
-38
-55
-60
-59
-69
-58
-43
-36
-34
-42
-47
-56
-50
-57
-60
-49
-40
-42
-38
-42
-55
-62
-57
-55
-56
-51
-39
-36
-40
-42
-56
-57
-61
-65
-63
-53
-37
-33
-38
-40
-45
-54
-74
-62
-56
-57
-42
-41
-40
-41
-48
-57
-60
-65
-57
-61
-28
-24
-42
-49
-54
-67
-63
-69
-56
-47
-44
-40
-40
-49
-55
-56
-73
-62
-59
-49
-45
-44
-51
-43
-55
-61
-62
-61
-52
-45
-47
-43
-35
-40
-52
-61
-65
-62
-42
-42
-38
-41
-40
-42
-52
-57
-58
-62
-64
-55
-36
-40
-39
-50
-60
-62
-68
-65
-54
-47
-36
-30
-36
-42
-51
-57
-61
-59
-51
-36
-32
-23
-29
-36
-50
-56
-53
-44
-41
-27
-23
-22
-22
-25
-36
-43
-34
-38
-24
-8
-8
-12
-8
-13
-31
-39
-51
-30
-30
-18
-9
-13
-21
-31
-33
-36
-48
-40
-37
-28
-33
-22
-27
-31
-45
-52
-61
-55
-41
-38
-30
-29
-34
-45
-54
-57
-54
-53
-49
-36
-43
-32
-39
-53
-53
-57
-54
-64
-58
-46
-47
-42
-52
-72
-90
-86
-94
-76
-59
-40
-15
8
35
51
67
96
117
148
175
181
169
154
132
101
78
48
32
5
-13
-24
-26
-29
-38
-56
-79
-84
-79
-68
-57
-52
-44
-43
-53
-64
-73
-62
-53
-59
-43
-36
-32
-42
-43
-50
-58
-68
-57
-51
-47
-36
-33
-30
-28
-46
-53
-58
-49
-56
-44
-27
-28
-33
-33
-43
-51
-59
-52
-46
-33
-21
-18
-20
-26
-46
-48
-47
-56
-40
-25
-23
-20
-18
-32
-40
-45
-41
-29
-31
-9
-17
-10
-25
-28
-38
-49
-36
-31
-24
-14
-11
-6
-4
-9
-21
-37
-32
-22
-14
-4
5
13
8
2
-3
-8
-8
-20
-6
4
27
20
22
14
5
5
2
10
22
29
23
33
33
24
4
-3
3
12
26
36
34
27
19
6
-1
-8
-9
-6
1
0
11
15
6
-19
-27
-32
-25
-23
-16
-15
-8
-8
-12
-27
-46
-51
-47
-43
-28
-21
-7
-19
-23
-32
-42
-49
-41
-39
-24
-14
-19
-27
-23
-29
-42
-46
-45
-46
-27
-18
-12
-15
-20
-46
-50
-49
-36
-37
-27
-23
-15
-19
-35
-45
-51
-49
-49
-30
-23
-20
-13
-19
-30
-34
-39
-52
-57
-38
-34
-26
-19
-25
-27
-49
-52
-46
-41
-36
-25
-17
-19
-17
-29
-45
-38
-40
-33
-35
-17
-15
-17
-14
-29
-40
-42
-47
-46
-36
-24
-19
-20
-20
-27
-42
-40
-44
-41
-37
-33
-28
-20
-29
-31
-39
-50
-57
-48
-31
-14
-18
-24
-22
-34
-47
-51
-52
-38
-34
-27
-19
-20
-30
-39
-47
-42
-46
-43
-27
-17
-18
-15
-19
-27
-54
-48
-53
-43
-47
-29
-19
-14
-23
-36
-46
-49
-45
-31
-21
-18
-21
-26
-26
-43
-48
-52
-55
-41
-27
-17
-16
-26
-22
-34
-50
-50
-47
-38
-31
-20
-13
-18
-27
-43
-43
-43
-48
-39
-28
-10
-18
-41
-29
-30
-34
-44
-45
-34
-29
-18
-17
-20
-20
-31
-40
-43
-31
-29
-19
-15
-9
-6
-11
-18
-29
-36
-28
-27
-15
-11
4
3
2
-15
-25
-19
-8
-6
6
-6
13
8
-3
-16
-27
-21
-17
-7
-1
11
5
-4
-14
-22
-22
-22
-21
-23
-15
-13
-10
-16
-24
-39
-45
-41
-37
-33
-20
-15
-11
-21
-36
-48
-45
-41
-41
-35
-19
-8
-30
-30
-27
-50
-40
-44
-58
-37
-39
-38
-52
-55
-63
-74
-66
-54
-39
-21
19
48
75
106
123
146
160
179
172
183
187
173
147
117
81
50
15
-12
-21
-24
-13
-13
-31
-41
-49
-60
-63
-54
-59
-57
-44
-30
-26
-33
-41
-46
-46
-59
-48
-37
-34
-25
-19
-23
-32
-43
-52
-45
-42
-27
-23
-18
-23
-22
-34
-42
-49
-42
-29
-19
-22
-16
-18
-27
-39
-31
-38
-33
-34
-26
-19
-11
-10
-14
-27
-34
-38
-38
-30
-13
-15
-4
-9
-16
-28
-26
-22
-25
-18
-8
-14
-4
-9
-13
-28
-31
-24
-25
-16
-4
5
18
14
5
-6
-21
-16
-13
-11
17
18
26
16
14
-1
0
-1
5
26
31
32
35
38
29
13
15
17
14
21
46
38
47
42
25
15
17
15
23
27
32
41
39
33
9
-1
-8
2
11
13
20
17
15
7
-9
-21
-19
-17
-15
-10
-1
-5
-5
-10
-19
-28
-21
-28
-29
-23
-12
-10
-5
-7
-35
-38
-34
-34
-25
-17
-19
-6
-12
-19
-34
-33
-35
-43
-31
-24
-13
-4
-1
-14
-35
-41
-36
-34
-24
-14
-17
-9
-9
-22
-31
-34
-38
-30
-28
-13
-9
-7
-12
-16
-25
-39
-39
-38
-28
-19
-8
-7
-6
-13
-30
-31
-34
-23
-25
-18
-11
-5
-8
-18
-37
-33
-30
-30
-15
-7
-8
-4
0
-13
-36
-40
-40
-32
-26
-6
-6
-5
-13
-13
-34
-39
-34
-23
-22
-6
0
-5
-11
-18
-33
-42
-40
-29
-16
-5
-8
-6
-15
-24
-36
-39
-42
-30
-17
0
-9
-18
-16
-26
-31
-35
-34
-37
-24
-10
1
-7
-13
-20
-29
-34
-39
-44
-28
-3
-7
-13
-16
-24
-32
-39
-33
-36
-20
-7
-5
-11
-16
-23
-28
-44
-39
-39
-17
-9
-9
-6
-20
-19
-27
-28
-33
-33
-24
-26
-9
-1
-21
-30
-30
-33
-25
-23
-17
-16
-8
-13
-13
-31
-30
-30
-35
-34
-19
-20
-8
-16
-16
-33
-30
-35
-29
-20
-9
-8
1
-9
-16
-34
-28
-30
-18
-19
-4
-2
-2
1
-4
-16
-20
-18
-11
-5
9
20
22
15
9
-5
-9
-9
-1
2
8
14
9
9
-1
-14
-9
-7
-4
3
1
5
9
-6
-14
-27
-35
-27
-21
-26
-14
-8
-12
-17
-18
-29
-22
-24
-37
-32
-16
-14
-16
-22
-23
-30
-30
-26
-32
-20
-18
-19
-14
-29
-31
-50
-52
-51
-58
-48
-41
-41
-44
-33
-31
-17
5
35
72
109
154
191
209
213
192
185
155
151
131
116
99
76
42
8
-22
-42
-39
-34
-38
-45
-34
-33
-37
-42
-58
-59
-51
-47
-44
-38
-22
-8
-13
-37
-46
-43
-40
-38
-32
-18
-18
-14
-13
-24
-37
-42
-38
-27
-25
-19
-19
-11
-15
-23
-29
-34
-39
-31
-30
-6
1
-5
-10
-19
-31
-38
-37
-31
-23
-10
-3
-4
-11
-12
-20
-29
-26
-25
-18
-8
-7
2
-2
-6
-15
-17
-20
-14
-13
3
13
16
-1
-12
-14
-12
-8
-5
2
7
16
22
17
5
-2
-2
0
15
19
22
30
34
26
16
17
17
18
21
25
48
52
47
48
36
17
23
26
27
35
47
56
52
43
24
20
21
16
28
38
37
31
36
31
17
-3
-6
-9
-9
6
15
8
5
-1
-2
-22
-25
-25
-17
-9
-2
-3
-3
-14
-28
-28
-30
-34
-42
-14
-11
-4
-10
-13
-29
-37
-37
-34
-36
-26
-19
-12
-15
-13
-24
-36
-53
-30
-34
-24
-22
-23
-21
-26
-36
-41
-48
-50
-37
-21
-14
-8
-18
-32
-41
-45
-45
-33
-32
-22
-30
-20
-16
-23
-40
-48
-54
-47
-32
-23
-26
-11
-21
-29
-45
-44
-51
-41
-24
-18
-24
-29
-23
-30
-46
-48
-46
-39
-35
-24
-23
-17
-25
-39
-48
-52
-58
-49
-41
-27
-29
-26
-29
-38
-52
-62
-61
-56
-39
-28
-28
-30
-28
-39
-57
-64
-51
-49
-50
-32
-27
-22
-35
-45
-49
-53
-64
-57
-48
-36
-33
-33
-37
-50
-53
-55
-52
-44
-38
-31
-34
-38
-34
-43
-58
-54
-50
-40
-35
-27
-28
-35
-29
-34
-52
-54
-46
-45
-35
-25
-27
-27
-31
-34
-40
-56
-45
-36
-29
-24
-20
-17
-20
-36
-45
-52
-49
-36
-36
-23
-19
-24
-19
-35
-57
-55
-60
-41
-33
-31
-18
-18
-26
-46
-39
-46
-44
-26
-26
-27
-21
-23
-22
-30
-40
-41
-32
-30
-21
-13
-9
-23
-29
-33
-28
-31
-23
-16
-9
-5
-7
-5
-7
-25
-17
-20
-20
-8
16
22
19
-11
-11
-12
-12
-13
-15
-10
8
6
-6
-5
-6
-14
-14
-20
-35
-23
-8
-10
-9
-15
-28
-35
-33
-41
-31
-29
-10
-14
-19
-19
-21
-32
-38
-36
-43
-32
-17
-16
-20
-24
-29
-40
-38
-44
-30
-30
-24
-20
-21
-33
-46
-61
-64
-76
-67
-50
-30
-17
10
11
33
58
86
108
144
178
204
209
205
193
154
125
96
75
45
32
12
-2
-6
-19
-40
-54
-65
-67
-56
-64
-43
-37
-33
-40
-47
-52
-47
-43
-42
-27
-16
-16
-21
-22
-35
-42
-40
-41
-32
-22
-7
-8
-7
-23
-42
-44
-44
-39
-27
-21
-12
-5
-8
-13
-39
-37
-38
-29
-29
-26
-10
-7
-14
-13
-23
-27
-27
-22
-18
-10
-5
3
-2
-12
-21
-28
-28
-28
-16
-9
2
-1
4
0
-19
-22
-18
-11
-4
9
15
22
9
7
-13
-24
-5
4
3
11
24
26
19
11
2
2
13
14
28
38
43
37
42
30
19
17
21
34
41
52
50
53
45
38
37
26
34
35
49
55
43
50
49
38
24
16
14
27
40
39
35
22
12
5
-3
-9
-5
-3
1
13
22
14
6
-5
-15
-29
-22
-18
-9
1
-5
-1
1
-11
-25
-31
-26
-20
-13
-3
1
-2
-17
-24
-25
-29
-34
-23
-14
-1
5
-6
-6
-24
-30
-30
-29
-23
-12
-9
9
-4
-12
-25
-25
-29
-26
-21
-9
-5
2
-5
-13
-22
-28
-28
-16
-11
-7
-15
-4
-9
-13
-26
-37
-21
-18
-13
-9
-5
4
-7
-21
-28
-30
-37
-30
-20
-11
-11
3
-6
-11
-28
-27
-29
-18
-15
-6
-2
2
-9
-20
-39
-30
-27
-25
-17
-8
-11
-9
-13
-16
-26
-20
-18
-26
-15
-1
-4
-4
-17
-22
-33
-30
-22
-23
-22
-17
-11
-9
-12
-22
-41
-41
-38
-27
-20
-9
-9
-13
-15
-25
-31
-30
-28
-23
-26
-17
-10
-14
-11
-27
-31
-34
-30
-43
-18
-9
-8
-1
-22
-27
-36
-35
-30
-27
-18
-7
-7
-9
-16
-22
-28
-33
-28
-30
-20
-12
-7
-9
-19
-25
-35
-41
-31
-33
-23
-23
-11
-11
-17
-32
-36
-41
-31
-28
-19
-7
-3
-13
-18
-35
-39
-38
-32
-25
-9
-8
-4
-6
-13
-19
-28
-26
-22
-20
-17
5
12
-13
-20
-28
-28
-21
-16
-12
6
11
6
8
-3
-12
-7
-14
-10
-6
5
13
7
-7
-9
-7
-8
-14
-9
-4
6
5
0
-5
-15
-27
-31
-36
-33
-22
-12
-15
-18
-22
-29
-39
-44
-44
-36
-20
-16
-13
-11
-20
-30
-38
-42
-45
-36
-24
-17
-10
-15
-21
-38
-49
-66
-61
-63
-52
-43
-42
-37
-49
-47
-32
-10
24
64
101
129
161
188
197
181
170
162
142
120
109
96
75
45
16
-25
-43
-52
-48
-42
-42
-36
-40
-47
-54
-63
-64
-66
-59
-49
-43
-25
-20
-30
-38
-51
-52
-51
-50
-41
-22
-18
-16
-26
-37
-42
-49
-46
-39
-31
-22
-24
-22
-25
-24
-37
-46
-52
-44
-41
-19
-9
-9
-15
-24
-35
-43
-43
-44
-34
-19
-16
-10
-13
-21
-33
-40
-43
-35
-27
-19
-9
-4
-14
-25
-32
-32
-33
-27
-19
-11
-7
7
-10
-14
-34
-34
-29
-18
-12
3
5
2
5
0
-14
-15
-10
-9
2
26
30
29
19
9
2
4
0
11
29
36
32
37
31
24
17
9
13
20
17
31
45
39
36
18
6
0
-1
6
11
25
25
15
9
-8
-9
-17
-17
-17
-13
-8
-8
-7
-8
-26
-27
-38
-40
-29
-24
-16
-13
-11
-11
-40
-38
-45
-40
-44
-35
-24
-19
-24
-29
-45
-50
-47
-42
-45
-30
-25
-17
-22
-27
-44
-45
-39
-38
-31
-23
-36
-27
-27
-31
-47
-55
-46
-49
-40
-29
-23
-26
-26
-35
-55
-52
-53
-53
-36
-22
-12
-15
-23
-46
-46
-46
-46
-44
-31
-27
-19
-25
-39
-41
-36
-43
-49
-35
-31
-26
-21
-21
-25
-34
-48
-46
-44
-45
-31
-18
-17
-23
-26
-42
-41
-43
-39
-41
-37
-22
-20
-23
-26
-34
-42
-45
-50
-41
-33
-28
-23
-21
-33
-43
-51
-55
-48
-50
-31
-21
-18
-20
-23
-32
-49
-50
-47
-44
-36
-27
-21
-23
-36
-40
-44
-45
-54
-39
-32
-23
-21
-31
-34
-37
-49
-50
-45
-40
-35
-19
-19
-30
-29
-37
-42
-46
-50
-48
-41
-43
-27
-30
-32
-35
-44
-49
-48
-39
-27
-24
-25
-26
-34
-38
-49
-52
-51
-45
-31
-28
-24
-22
-25
-39
-48
-47
-44
-35
-24
-19
-21
-25
-26
-40
-42
-38
-46
-45
-26
-23
-17
-13
-24
-41
-40
-45
-32
-16
-21
-9
-16
-17
-22
-32
-24
-26
-28
-20
6
2
-2
-10
-13
-18
-19
-27
-22
-12
-10
-8
-2
-5
-20
-22
-25
-27
-21
-11
-15
-11
-13
-24
-34
-43
-44
-41
-45
-36
-17
-10
-27
-30
-35
-41
-35
-43
-44
-43
-31
-25
-16
-28
-44
-51
-46
-45
-42
-41
-27
-28
-35
-50
-63
-65
-70
-75
-79
-57
-44
-29
-26
-14
7
32
63
88
117
147
180
189
175
174
141
117
96
79
65
57
39
17
-20
-19
-40
-48
-56
-61
-59
-47
-41
-31
-43
-39
-59
-64
-60
-52
-44
-30
-21
-31
-26
-33
-45
-47
-49
-42
-36
-23
-23
-26
-23
-25
-53
-53
-39
-33
-35
-25
-7
-13
-15
-23
-33
-36
-43
-32
-26
-20
-17
-14
-24
-22
-29
-38
-32
-29
-19
-9
-7
-10
-19
-25
-27
-35
-32
-28
-18
-1
-17
-15
-11
-16
-24
-30
-31
-24
-10
-3
0
9
-6
-9
-18
-19
-19
-8
1
12
15
21
15
5
1
-1
2
9
18
31
37
37
26
24
15
9
15
22
31
39
47
46
42
29
16
7
21
33
33
30
43
39
26
18
18
13
13
18
26
25
24
21
11
3
-5
-12
-19
-5
2
6
-2
4
-1
-16
-23
-30
-36
-31
-14
-5
2
-5
-10
-22
-29
-40
-27
-24
-10
-13
-10
-4
-9
-34
-37
-46
-32
-18
-19
-23
-1
-10
-9
-23
-29
-27
-31
-18
-13
-10
-6
-9
-18
-30
-32
-37
-32
-26
-16
-13
-6
-12
-19
-27
-35
-30
-32
-22
-16
-7
0
-9
-23
-35
-32
-33
-23
-12
-3
-1
-2
-23
-21
-33
-33
-38
-24
-17
-16
-2
2
-9
-27
-26
-27
-38
-30
-18
-9
-6
0
-8
-20
-36
-41
-31
-33
-23
-3
7
-6
-13
-18
-34
-35
-34
-27
-20
-9
-12
-5
-11
-23
-24
-26
-26
-35
-26
-9
-3
-9
-11
-28
-32
-29
-29
-21
-17
-15
-7
-6
-12
-19
-36
-43
-25
-22
-18
-12
-6
-13
-6
-20
-35
-44
-37
-29
-16
1
-1
-16
-21
-18
-31
-33
-28
-28
-14
-4
4
-12
-13
-37
-40
-34
-36
-31
-17
-16
-7
-9
-6
-28
-35
-28
-33
-29
-17
-6
1
-6
-12
-24
-30
-30
-31
-25
-7
-6
-10
-13
-19
-22
-28
-26
-20
-21
-11
-14
-4
-1
-9
-22
-20
-28
-19
-14
1
3
6
1
-7
-22
-23
-21
-20
-5
5
18
14
21
11
0
-10
-10
-9
10
17
25
20
17
8
-4
-13
-11
-2
9
18
28
28
6
-5
-7
-21
-28
-18
-6
-8
-5
3
-2
-14
-24
-24
-26
-20
-12
-15
0
3
-6
-18
-26
-34
-37
-26
-14
-4
1
-1
-7
-34
-31
-32
-34
-34
-34
-33
-26
-31
-27
-46
-53
-50
-48
-27
12
49
72
102
121
140
160
178
197
190
209
209
173
152
131
90
55
23
3
-8
-8
-6
-7
-19
-31
-41
-51
-57
-50
-42
-28
-20
-19
-26
-30
-35
-35
-31
-33
-28
-18
-14
-3
-17
-17
-33
-36
-35
-28
-21
-8
-2
-2
-4
-11
-28
-36
-38
-22
-5
0
-6
-3
-8
-14
-27
-29
-32
-26
-21
-8
-4
1
-8
-14
-24
-23
-26
-17
-13
4
0
-3
-2
-11
-17
-16
-10
-21
-4
11
11
3
-3
-7
-19
-23
-17
-2
10
15
18
19
4
4
0
1
3
9
28
25
25
32
18
21
6
9
11
17
32
52
47
36
31
28
17
13
27
32
44
51
53
50
42
38
26
25
25
32
36
45
51
49
29
19
13
19
25
23
28
21
27
23
16
1
-12
-15
-11
-4
-3
7
11
4
0
-16
-20
-32
-23
-10
1
3
-1
-1
-1
-27
-23
-24
-29
-19
-11
-8
-1
-11
-7
-19
-32
-25
-14
-17
-9
-4
0
-6
-21
-28
-20
-20
-26
-14
-5
-1
5
-3
-13
-26
-28
-24
-19
-13
-5
-3
-6
-7
-12
-22
-27
-19
-8
-11
-11
-6
-6
-9
-12
-21
-27
-25
-21
-19
-5
2
5
-6
-24
-33
-19
-21
-21
-14
5
-2
1
-10
-12
-23
-25
-28
-18
-4
2
3
0
-6
-15
-20
-37
-34
-26
-11
-9
-4
2
-7
-11
-18
-33
-36
-26
-26
-6
12
13
7
-19
-35
-39
-31
-31
-17
-9
-14
3
-3
-19
-28
-30
-25
-27
-11
-2
2
-5
-12
-34
-38
-26
-18
-22
-11
-8
1
-6
-12
-21
-20
-20
-31
-34
-13
-3
-6
-11
-11
-26
-22
-29
-23
-20
-12
-5
-1
-8
-13
-31
-18
-26
-31
-26
-4
-7
-7
-7
-15
-22
-26
-27
-22
-23
-10
-7
2
-5
-8
-20
-27
-28
-23
-24
-7
-7
2
-2
-14
-26
-23
-25
-19
-11
-4
1
3
-6
-14
-17
-20
-20
-18
-11
-3
2
2
-3
-12
-16
-14
-13
-15
-11
-6
10
16
9
5
-3
-8
0
7
14
30
32
29
11
9
5
2
-5
-1
4
9
19
26
17
11
-6
-7
2
-1
2
15
6
4
2
-13
-38
-36
-27
-14
-15
-3
0
-2
-11
-23
-27
-22
-24
-21
-22
-4
-1
-3
-7
-21
-17
-22
-26
-32
-26
-21
-20
-31
-34
-49
-62
-66
-51
-46
-32
-16
16
39
58
72
100
126
160
184
208
209
211
201
173
134
106
93
70
42
25
5
2
-1
-10
-31
-45
-47
-43
-42
-36
-26
-21
-27
-34
-43
-40
-40
-32
-21
-13
-9
-14
-14
-18
-34
-34
-35
-35
-27
-9
2
-6
-17
-21
-25
-34
-33
-19
-13
-5
0
-2
-1
-12
-33
-34
-22
-19
-14
1
-1
0
-6
0
-15
-27
-32
-15
-11
0
-2
3
5
-7
-17
-21
-17
-14
-5
6
11
6
1
-11
-6
-12
-18
-10
11
10
16
22
18
2
-14
-11
-7
3
22
26
27
30
30
21
14
9
21
26
30
47
43
47
41
25
25
30
34
33
48
50
53
52
53
39
38
37
41
40
52
43
52
43
41
23
18
24
16
20
31
40
35
35
29
7
2
-2
5
7
3
11
23
18
12
-16
-15
-16
-13
-11
8
7
12
5
-3
-13
-15
-18
-14
-10
-2
7
5
2
-15
-18
-22
-23
-9
-10
0
2
4
8
-3
-24
-29
-23
-14
-11
-1
3
2
-2
-6
-14
-8
-16
-19
-18
1
3
6
-8
-4
-19
-23
-21
-11
-5
8
14
11
1
-13
-15
-18
-23
-16
-9
7
14
5
0
-12
-24
-15
-13
-14
-4
3
5
11
11
-8
-27
-20
-33
-12
-4
-4
15
18
3
-12
-27
-29
-12
-10
5
14
15
1
1
-13
-21
-22
-18
-6
2
2
9
8
8
-6
-35
-30
-28
-22
-2
6
4
6
5
-8
-24
-22
-19
-11
-9
1
8
4
-10
-23
-23
-21
-17
-12
1
4
7
2
-5
-8
-22
-21
-16
-13
-5
1
0
-4
2
-13
-21
-20
-16
-14
3
6
9
3
-5
-16
-33
-24
-5
-8
-1
7
13
8
-17
-22
-21
-19
-23
-14
9
5
2
-5
-7
-18
-16
-25
-14
-10
-1
10
8
-3
-9
-19
-24
-23
-6
-7
-7
0
4
13
-2
-13
-15
-21
-17
-3
6
13
17
11
0
-15
-15
-12
-4
2
8
5
18
18
8
-11
-11
-5
0
13
22
31
33
21
21
18
-6
3
6
12
13
39
29
29
19
2
3
0
11
25
31
34
29
14
4
-6
-10
-11
-10
5
10
14
7
4
-14
-12
-15
-22
1
6
7
-1
7
8
-12
-28
-33
-26
-23
5
14
10
1
-6
-13
-27
-42
-31
-38
-25
-18
-22
-31
-33
-34
-28
-26
-6
29
65
100
139
164
178
189
204
200
202
197
190
166
140
112
87
45
8
-16
-19
-11
-11
-18
-11
-15
-27
-40
-39
-35
-43
-43
-23
-15
-10
-6
-7
-25
-30
-20
-17
-22
4
4
-3
-6
-15
-21
-23
-19
-14
-10
-5
1
4
-3
-10
-19
-22
-23
-17
-6
6
15
14
4
-2
-11
-16
-15
-16
-16
-1
6
17
10
0
-9
-16
-9
-15
-8
5
17
18
8
7
-4
-3
1
1
0
10
27
22
16
7
-6
4
9
17
22
26
31
27
23
10
9
19
18
17
28
37
53
49
50
28
24
30
29
29
42
60
57
54
60
38
34
45
47
50
55
58
64
66
58
44
38
34
47
41
58
62
61
53
42
23
23
29
18
23
41
34
33
34
21
-4
6
6
5
11
16
17
12
9
16
0
-5
-18
-4
0
9
18
19
-2
6
-10
-14
-11
-7
0
0
13
8
6
-5
-13
-12
-20
-9
-9
3
12
11
-2
-3
-13
-7
-7
-13
-3
7
14
12
3
-4
-9
-11
-15
-16
-8
9
12
7
10
3
-11
-18
-9
-3
5
23
13
7
5
-2
-11
-13
-14
-13
-6
6
22
17
10
3
-9
-14
-11
-12
-10
7
8
7
10
-2
-20
-19
-18
-2
6
17
16
13
10
-2
-13
-14
-23
-1
8
6
10
3
2
-10
-11
-17
-9
-4
8
11
13
6
1
-24
-17
-20
-10
-13
1
5
9
13
10
-18
-19
-13
-15
-15
5
11
7
6
5
-10
-21
-18
-6
-5
7
1
6
8
0
-13
-16
-13
-10
-11
2
11
10
-3
-6
-16
-18
-19
-18
-5
10
10
17
7
5
-16
-27
-26
-18
-10
5
8
1
4
-3
-15
-13
-14
-10
-4
5
8
10
6
-9
-13
-18
-15
-8
-5
3
11
13
3
-7
-14
-18
-20
-6
-2
16
17
12
9
-2
-21
-17
-13
-5
5
9
23
25
20
8
-2
-5
0
5
20
34
40
36
39
27
1
3
2
15
25
29
25
27
19
5
-2
-7
4
8
28
24
23
17
10
0
-13
-14
-11
-11
2
7
7
9
6
-15
-23
-22
-19
-10
-2
7
7
-5
-5
-14
-19
-11
-9
-10
-13
5
5
-5
-16
-33
-36
-42
-56
-46
-23
-26
-16
-15
-17
-6
4
27
63
106
151
188
202
217
209
191
176
168
153
133
117
87
64
32
4
-16
-17
-27
-29
-30
-20
-20
-26
-34
-40
-44
-51
-47
-40
-23
-9
4
-7
-15
-25
-29
-28
-27
-32
-19
-6
-6
-1
-7
-12
-23
-38
-35
-20
-11
-4
-3
7
-7
-16
-19
-22
-25
-19
-8
3
3
5
-1
-5
-15
-15
-27
-11
-5
7
8
14
7
-6
-14
-19
-22
-13
8
21
16
-1
-8
-6
-10
-15
-19
-6
7
15
24
23
13
-9
0
5
3
-7
12
32
29
34
34
18
11
22
19
27
36
48
51
44
44
34
31
27
38
40
55
63
62
60
62
42
22
29
36
43
56
67
57
50
48
43
