-12
-11
-13
-21
-30
-20
-21
-17
-13
-20
-14
-21
-18
-9
-24
-28
-19
-9
-29
-29
-19
-19
-21
-15
-20
-24
-21
-20
-27
-9
-15
-23
-27
-22
-16
-9
-32
-17
-22
-25
-29
-21
-19
-23
-29
-25
-22
-33
-22
-19
-27
-26
-23
-17
-23
-15
-15
-21
-8
-12
-16
-20
-15
-17
-4
-4
-8
-8
-6
-3
-7
-5
-2
-15
-14
-10
-5
-6
-16
-9
-13
-15
-23
-33
-36
-31
-32
-17
-19
-29
-31
-37
-26
-44
-38
-19
-25
-34
-32
-29
-25
-19
-23
-32
-29
-35
-30
-23
-29
-33
-31
-37
-33
-21
-26
-26
-19
-9
-37
-53
-30
-43
-49
-50
-35
-25
-17
4
25
62
102
148
186
211
234
231
221
192
152
109
66
32
-20
-74
-77
-67
-50
-59
-66
-66
-65
-64
-55
-58
-46
-37
-39
-36
-28
-19
-20
-22
-30
-19
-3
-14
-18
-36
-19
-3
-15
-10
-27
-19
-23
-13
-19
-13
-10
-25
-19
-14
-16
-8
-18
-6
2
-2
-6
-13
-11
-22
-11
-9
5
-6
-6
-2
-8
-10
-14
1
5
2
7
7
5
-6
5
4
7
7
10
-5
12
8
27
26
17
19
23
15
31
17
30
32
30
32
29
23
35
33
37
45
41
43
27
38
45
49
46
41
38
32
62
55
44
41
38
32
33
34
46
30
33
26
32
28
30
20
14
19
15
8
8
15
12
3
7
-4
6
-1
-3
-6
-5
-4
-5
-10
-2
-6
-15
0
-2
-14
-4
-3
-17
-22
-17
-11
-15
-14
-14
2
-13
-15
-13
-9
-11
-11
-1
-13
-16
-13
-12
-10
0
-4
-20
-17
-8
-19
-18
-7
-12
-16
-11
-5
-15
-10
5
-13
-8
-16
-8
-13
-17
-6
-3
-10
-7
-12
-16
-23
-12
-4
-9
-13
-17
-18
-5
-16
-5
-8
-1
-7
-6
-16
-25
-17
-19
-6
-12
-13
-19
-15
-11
-9
-18
-19
-10
-18
-24
-10
-3
-17
-13
-11
-15
-24
-13
-16
-20
-11
-9
-8
-10
0
-3
-26
-15
-14
-10
-5
-8
-13
-7
-1
-7
-6
-6
-3
-3
3
1
14
0
5
24
-2
6
4
-6
-8
-13
-5
-18
-11
-26
-24
-23
-23
-20
-24
-20
-10
-26
-16
-8
-16
-14
-17
-14
-13
-12
-24
-22
-22
-22
-25
-25
-14
-18
-20
-18
-20
-20
-25
-15
-21
-22
-31
-24
-27
-34
-35
-36
-34
-27
-24
-22
-12
3
38
80
124
165
200
225
244
250
230
216
182
134
88
48
15
-32
-56
-71
-62
-47
-48
-68
-67
-57
-63
-55
-52
-31
-35
-23
-23
-27
-18
-8
-18
-27
-26
-21
-19
-18
-22
-25
-18
-13
-8
-18
-18
-7
-23
-18
-11
-9
-8
-9
-11
-18
-7
-6
-16
-13
-9
-13
2
-4
-13
-4
-13
-7
-10
6
3
-10
-4
1
-2
-3
-8
-1
6
9
4
7
12
11
4
14
10
22
16
28
12
18
18
28
39
30
24
20
25
30
31
25
33
32
28
34
27
39
43
42
38
42
47
46
42
37
41
36
45
44
42
44
36
40
32
17
21
33
33
33
36
34
24
12
-2
5
11
3
5
18
-1
-7
0
2
-4
-6
-11
-6
-7
-6
1
-3
-6
-13
-19
-14
-9
-13
-12
-6
-8
-2
-9
-15
-10
-19
-19
-17
-10
3
-9
-19
-5
-5
-11
-10
-22
-12
-13
-14
-11
0
-7
-13
-10
-1
-13
-22
-7
-10
-13
-21
-16
-7
-14
-11
-10
-17
-14
-1
-4
-2
-11
-5
-29
-21
-13
-11
-15
-12
-12
-19
-13
-7
-3
-5
-5
-9
-4
-10
-15
-13
-15
-19
-24
-14
-16
-18
-3
-1
-6
-17
-14
-5
-2
-8
-20
-23
-7
-13
-12
-14
-16
-15
-13
-16
-11
-9
-3
-10
1
-5
-6
-12
-10
-8
-9
0
-2
-6
5
0
3
4
8
12
10
7
11
14
6
8
1
1
0
4
-8
3
-5
-5
-17
-19
-7
-9
-8
-20
-21
-11
-10
-6
-10
-6
-9
-26
-27
-21
-18
-21
-27
-18
-10
-11
-10
-18
-17
-15
-19
-14
-9
-20
-19
-15
-24
-30
-21
-29
-18
-25
-29
-23
-24
-23
-30
-26
10
27
66
110
157
197
225
260
268
273
246
214
175
117
74
16
-32
-54
-59
-59
-62
-64
-58
-52
-47
-51
-48
-42
-31
-34
-26
-37
-31
-11
-23
-14
-12
-9
-37
-27
-19
-22
-21
-20
-9
-18
-12
-14
-13
-24
-7
-9
-19
-14
-11
-8
-7
-9
-13
-19
-15
-3
-12
-14
-13
-8
1
5
-17
-22
-6
1
-3
8
-9
6
1
-7
-14
-1
5
-5
0
9
6
5
14
13
7
11
11
15
16
15
19
24
29
23
14
24
23
18
34
41
35
29
46
42
56
44
42
47
39
35
37
41
27
35
37
33
44
46
38
34
37
37
39
32
28
41
32
22
23
22
16
13
14
14
3
-2
2
4
8
3
2
1
11
-2
-13
-11
-11
-7
-1
-5
-13
-17
-15
-11
-22
-5
-27
-18
-1
-16
-16
-14
-19
-22
-18
-3
-12
-12
-12
-12
-21
-20
-25
-26
-16
-14
-16
-12
-7
-12
-6
-11
-15
-19
-14
-17
-13
-16
-12
-19
-29
-11
-25
-17
-3
-19
-22
-23
-12
-24
-22
-20
-19
-20
-21
-14
-19
-20
-17
-9
-4
-19
-17
-18
-31
-21
-23
-24
-11
-14
-12
-16
-13
-21
-23
-20
-20
-21
-17
-6
-14
-14
-7
-17
-10
-15
-29
-25
-23
-22
-21
-31
-25
-29
-22
-19
-32
-27
-13
-16
-13
-14
-7
-9
-12
-9
-8
-1
-10
-25
-19
-10
-13
-3
-1
-12
5
15
0
-2
5
-2
7
-8
-11
-2
-15
-11
-6
-5
-17
-24
-27
-25
-25
-25
-21
-22
-25
-31
-29
-21
-24
-35
-31
-21
-26
-36
-27
-21
-26
-37
-32
-31
-28
-25
-34
-23
-21
-26
-32
-43
-43
-33
-27
-21
-38
-48
-45
-45
-37
-32
-30
-34
-16
3
31
50
90
128
170
218
237
235
213
201
169
123
78
42
-14
-66
-93
-85
-80
-77
-89
-77
-78
-82
-73
-64
-69
-64
-50
-34
-33
-28
-36
-41
-25
-32
-38
-38
-37
-42
-22
-19
-31
-38
-48
-36
-28
-30
-34
-35
-28
-25
-27
-32
-30
-32
-34
-29
-37
-27
-15
-25
-30
-36
-33
-29
-21
-18
-20
-41
-27
-8
-14
-22
-29
-23
-20
-12
-22
-18
-26
-19
-12
-15
-1
-11
-20
-16
4
-4
-8
1
4
9
1
-4
-9
3
3
6
16
19
14
9
11
19
2
12
10
6
5
22
18
27
25
25
12
10
15
17
21
19
17
12
8
2
2
13
8
5
12
-3
-4
-9
-7
-19
-14
-15
-19
-29
-10
-22
-29
-20
-26
-27
-35
-39
-33
-31
-34
-37
-40
-40
-34
-32
-46
-40
-24
-43
-34
-25
-23
-38
-43
-49
-39
-36
-38
-41
-50
-38
-35
-46
-35
-37
-46
-36
-32
-29
-33
-42
-28
-37
-30
-43
-39
-46
-41
-40
-31
-23
-37
-39
-43
-40
-33
-45
-46
-45
-52
-47
-24
-30
-43
-41
-27
-41
-37
-31
-37
-32
-29
-41
-36
-27
-37
-33
-36
-26
-27
-36
-39
-47
-34
-36
-33
-33
-37
-37
-35
-44
-43
-35
-33
-49
-28
-36
-33
-36
-32
-40
-38
-36
-45
-37
-29
-29
-29
-35
-42
-37
-43
-29
-34
-29
-29
-36
-34
-21
-30
-34
-30
-30
-29
-26
-21
-18
-33
-34
-22
-21
-25
-24
-20
-18
-23
-37
-26
-26
-38
-36
-46
-34
-34
-35
-47
-37
-45
-40
-35
-45
-42
-35
-47
-40
-47
-39
-49
-52
-54
-51
-42
-38
-37
-43
-52
-41
-49
-36
-39
-42
-44
-40
-54
-48
-40
-44
-44
-45
-51
-51
-48
-34
-31
-35
-23
-2
25
67
109
146
169
195
201
182
177
149
105
63
17
-38
-76
-99
-92
-86
-87
-91
-81
-81
-86
-80
-80
-70
-65
-62
-54
-56
-41
-30
-44
-36
-40
-45
-47
-41
-42
-41
-35
-28
-27
-28
-38
-31
-45
-43
-36
-38
-38
-34
-33
-37
-23
-30
-37
-29
-44
-37
-22
-22
-20
-16
-20
-23
-31
-30
-33
-33
-29
-19
-26
-21
-20
-23
-22
-15
-19
-11
-15
-17
-18
-20
-19
-11
-16
-8
-5
-8
-5
-4
2
6
8
4
-13
-5
-6
-3
12
7
8
13
20
16
10
17
11
15
27
19
-4
13
20
11
11
17
17
21
19
13
13
14
11
10
0
-3
0
-2
8
-12
-4
-15
-12
-11
-14
-18
-22
-27
-15
-15
-29
-30
-29
-32
-30
-31
-30
-25
-27
-28
-35
-32
-30
-42
-32
-35
-31
-39
-46
-37
-28
-22
-33
-32
-39
-39
-38
-44
-38
-36
-34
-40
-36
-30
-39
-28
-44
-41
-45
-31
-33
-33
-34
-38
-41
-26
-42
-26
-21
-46
-47
-28
-23
-38
-27
-26
-39
-30
-34
-36
-37
-37
-37
-39
-38
-34
-39
-40
-35
-34
-32
-26
-25
-30
-36
-40
-34
-32
-23
-38
-40
-38
-32
-36
-31
-24
-40
-45
-29
-40
-43
-27
-33
-28
-38
-30
-31
-33
-28
-38
-30
-27
-36
-33
-41
-35
-30
-35
-30
-25
-28
-26
-27
-24
-29
-20
-17
-17
-17
-15
-15
-6
-13
-14
-14
-15
-18
-24
-26
-21
-28
-28
-36
-33
-34
-26
-24
-34
-35
-29
-31
-33
-32
-28
-39
-38
-39
-37
-35
-29
-27
-30
-35
-29
-37
-39
-44
-45
-37
-30
-37
-33
-36
-44
-32
-33
-31
-33
-34
-40
-36
-48
-48
-50
-47
-49
-43
-44
-23
-22
3
33
62
103
156
178
214
234
223
204
181
140
97
57
7
-51
-74
-80
-87
-76
-64
-73
-68
-75
-78
-71
-66
-55
-44
-42
-42
-35
-34
-28
-39
-37
-35
-30
-23
-36
-32
-42
-40
-17
-25
-35
-27
-30
-28
-23
-27
-31
-31
-28
-28
-31
-23
-26
-24
-20
-14
-18
-25
-30
-23
-29
-22
-12
-17
-20
-21
-24
-14
-8
-8
-20
-15
-8
-11
1
1
-20
-8
-3
-14
-12
-10
-2
5
1
4
0
7
-2
-2
10
15
12
13
7
8
11
16
24
19
22
31
16
17
24
29
32
33
26
26
23
31
32
31
33
27
12
29
17
26
11
12
10
11
23
15
11
4
-4
0
1
-13
-11
-7
-4
-5
-10
-20
-11
-10
-14
-20
-25
-23
-12
-21
-31
-31
-21
-14
-21
-27
-22
-18
-24
-30
-31
-34
-35
-29
-21
-24
-17
-25
-38
-24
-26
-20
-33
-33
-30
-27
-27
-36
-32
-27
-26
-16
-27
-34
-38
-27
-25
-29
-24
-29
-21
-20
-26
-30
-22
-17
-10
-17
-33
-47
-28
-31
-30
-32
-42
-17
-10
-25
-23
-22
-22
-28
-34
-36
-28
-27
-27
-28
-17
-28
-36
-29
-24
-33
-20
-27
-25
-31
-18
-31
-30
-21
-29
-36
-22
-18
-41
-40
-23
-22
-20
-24
-35
-39
-21
-27
-35
-36
-23
-29
-22
-31
-34
-27
-12
-21
-24
-20
-30
-22
-20
-21
-26
-27
-18
-15
-16
-13
-7
-13
-7
-7
-8
-7
-5
-15
-17
-19
-17
-23
-17
-21
-32
-34
-34
-29
-32
-38
-33
-31
-27
-36
-39
-34
-35
-29
-31
-27
-36
-31
-33
-35
-35
-37
-25
-35
-38
-35
-34
-31
-34
-35
-30
-33
-37
-34
-36
-37
-38
-42
-49
-43
-52
-49
-38
-41
-48
-27
-12
25
59
104
138
190
227
249
244
235
216
166
127
74
31
-22
-57
-61
-58
-59
-72
-81
-72
-80
-74
-74
-65
-61
-56
-48
-45
-46
-43
-44
-39
-30
-35
-42
-46
-41
-36
-40
-39
-41
-45
-29
-33
-32
-34
-34
-33
-41
-37
-45
-40
-32
-36
-35
-35
-22
-31
-37
-27
-31
-22
-16
-39
-36
-36
-35
-30
-27
-28
-32
-23
-24
-27
-32
-20
-17
-17
-16
-18
-21
-19
-23
-24
-15
-13
-7
-11
-17
-22
-16
-6
-9
4
-4
2
-1
-21
-26
-13
0
-14
2
-3
1
-7
0
-3
-11
-9
-1
-9
-11
-1
-14
3
6
2
4
-1
-6
-6
-2
-4
-4
-9
-23
-26
-26
-29
-30
-23
-16
-24
-32
-31
-40
-44
-49
-36
-42
-48
-42
-42
-55
-54
-49
-67
-64
-64
-59
-62
-55
-51
-68
-74
-70
-64
-58
-69
-70
-66
-74
-77
-76
-60
-68
-69
-80
-90
-75
-87
-90
-84
-82
-87
-86
-91
-93
-100
-109
-102
-94
-113
-111
-106
-112
-129
-126
-128
-139
-126
-129
-126
-127
-128
-133
-130
-137
-143
-146
-146
-153
-150
-158
-169
-161
-166
-167
-159
-161
-195
-205
-206
-220
-199
-214
-215
-217
-223
-223
-224
-222
-223
-225
-211
-211
-221
-208
-202
-212
-181
-181
-155
-153
-142
-128
-122
-116
-107
-104
-101
-103
-94
-95
-89
-87
-79
-91
-83
-74
-59
-66
-52
-58
-53
-57
-66
-67
-57
-64
-58
-64
-61
-65
-59
-64
-66
-67
-55
-49
-64
-71
-66
-71
-66
-71
-68
-67
-65
-63
-58
-51
-54
-57
-69
-58
-63
-61
-51
-58
-63
-53
-69
-56
-51
-58
-58
-47
-46
-49
-54
-58
-62
-64
-66
-72
-66
-60
-56
-53
-48
-22
5
54
84
121
169
216
250
252
238
216
180
132
90
45
-3
-56
-87
-87
-81
-83
-81
-89
-78
-70
-80
-65
-57
-48
-49
-48
-36
-47
-38
-37
-41
-36
-32
-39
-34
-32
-32
-27
-39
-36
-39
-28
-28
-26
-26
-36
-41
-29
-21
-23
-27
-30
-25
-23
-27
-22
-21
-17
-24
-16
-21
-12
-5
-11
-6
-22
-24
-16
-13
-4
3
-1
-6
-14
-14
3
1
-4
-4
-4
2
16
11
6
12
18
3
2
13
18
16
29
24
18
30
32
25
16
32
25
36
38
42
44
33
42
34
43
40
37
28
41
42
42
49
51
37
41
39
37
37
40
39
32
31
19
12
20
14
23
23
17
17
16
16
11
2
6
-3
-4
2
9
-2
-18
-2
-16
0
-12
-6
0
-18
-8
-1
-7
-12
-15
-12
-11
-13
-5
-9
-11
-12
-21
-14
-9
-12
-13
-2
-13
-5
0
-7
-3
-4
-6
-1
-1
-10
-10
-9
-7
-12
-8
-12
-8
-3
-9
-13
-8
3
1
-13
-8
0
-13
-2
-9
-4
-1
-5
-3
-6
-7
0
-8
-7
-2
-10
-12
-5
-9
-3
-2
4
-2
3
2
-8
-15
-4
1
-5
6
-4
-3
-4
-12
-4
-1
-2
-6
-5
0
-1
-3
-7
0
-2
-12
-9
4
-3
-11
1
3
-6
-9
-12
-2
4
1
1
0
6
13
1
-3
-5
7
8
7
12
10
10
27
27
16
10
18
24
18
17
12
11
13
0
5
13
8
2
0
5
-9
-11
-18
-5
-12
-4
-3
-6
-3
-14
-5
-13
-7
-7
-8
-4
-3
-8
-6
-13
-10
-8
-13
-5
-2
-8
-3
-2
-3
-10
-9
-23
-13
-10
-24
-19
-17
-5
-24
-10
-4
-3
18
56
67
92
140
189
236
256
272
246
223
213
162
109
74
26
-25
-59
-65
-53
-47
-57
-58
-57
-51
-44
-32
-30
-26
-20
-21
-16
-10
-1
-2
-1
-8
1
-15
-7
-5
-2
8
-12
-14
3
0
-4
-4
2
-13
-11
0
11
10
9
16
-14
-10
-2
0
7
5
10
12
9
3
5
15
8
15
6
9
18
10
9
17
25
10
6
8
24
11
17
28
27
23
30
31
19
23
27
31
35
34
43
47
39
40
48
47
45
42
40
56
55
46
48
48
51
48
60
54
53
58
65
61
65
53
50
49
50
55
62
59
55
47
50
50
41
46
40
41
44
27
32
38
36
22
15
22
14
21
18
16
11
6
-2
1
8
5
5
6
-1
-8
-4
-5
0
-9
1
0
-6
-5
0
-7
-11
-6
0
2
-1
-6
-4
-9
-11
-8
-7
5
-9
-16
-6
-1
-9
-11
-11
-10
-4
2
1
-18
-9
-18
-13
-10
-7
-11
-21
-6
-5
-12
-24
-15
5
-3
-4
-12
-11
-16
-6
-2
-8
-11
-22
-18
-11
-17
0
-6
-6
-14
-15
-17
-17
-15
-10
-7
-15
-15
-2
-10
-24
-18
-7
3
-11
-25
-17
-8
-20
-26
-20
-22
-19
-13
-9
-9
-13
-11
-14
-6
-11
-19
-18
-14
-2
6
-10
-4
-17
-25
-3
-1
-2
-1
6
14
6
-8
-9
2
-1
4
2
6
3
5
1
-4
5
9
17
-1
-4
-3
-2
-7
-16
-14
-6
-8
-20
-19
-21
-5
-7
-23
-12
-10
-21
-21
-12
-13
-9
-11
-9
-15
-21
-13
-20
-19
-23
-12
-14
-7
-11
-9
-12
-5
-15
-18
-21
-26
-15
-17
-11
-22
-18
-11
-15
7
24
48
89
125
157
188
232
237
235
217
184
148
96
71
18
-28
-63
-72
-77
-61
-49
-54
-58
-56
-54
-53
-46
-38
-46
-23
-15
-17
-16
-16
-8
-6
-14
-9
-10
-7
-14
-26
-2
7
-5
-8
1
4
-1
4
-10
-8
-4
-4
-1
2
-5
6
-2
0
7
5
7
1
2
7
11
4
-8
4
9
4
7
9
5
0
6
9
3
1
2
8
17
13
18
28
21
23
18
15
23
18
39
43
28
40
21
17
32
41
37
38
45
46
39
41
46
33
43
51
51
50
48
43
48
60
48
49
50
43
39
52
48
46
43
36
46
39
48
38
27
31
35
33
17
28
37
19
21
23
12
7
19
14
2
5
8
-1
4
13
5
6
4
0
0
2
0
-2
-4
-4
-6
-2
4
0
-5
3
1
-6
-8
-8
-6
0
-4
-9
-2
1
-1
-5
-2
-5
4
8
1
-3
2
-4
1
4
10
3
-14
-7
3
1
3
9
10
-5
1
-4
-3
-3
0
7
15
4
-6
0
4
-5
3
-8
2
1
4
7
-1
-1
-2
2
-4
5
-1
-4
3
6
0
-3
-1
-1
-2
11
12
2
-6
2
-4
8
3
-2
-12
-5
0
13
3
9
-1
0
0
5
6
1
2
4
11
3
-8
4
14
10
10
12
15
19
20
20
14
23
20
16
23
28
31
11
6
19
12
17
16
5
-1
9
6
7
0
0
-6
-11
-1
-1
-3
3
1
2
-3
-9
-11
-3
-9
-4
2
3
0
-5
-4
8
10
-10
0
-3
8
3
-2
-6
-4
-13
-4
-9
-5
-9
-15
-7
-7
-1
5
29
52
76
98
136
179
217
240
262
253
228
192
146
116
77
32
-16
-50
-53
-40
-44
-64
-50
-38
-43
-41
-30
-23
-23
-20
-14
-16
-2
-2
-2
4
10
-3
13
12
0
-2
2
0
3
11
8
-7
-4
6
-4
-4
7
13
9
4
1
8
4
12
13
15
13
8
4
17
17
9
15
16
11
24
9
11
19
27
24
15
27
29
15
21
22
18
35
35
24
28
35
37
31
39
38
30
36
44
39
45
35
50
35
49
65
52
58
58
62
67
59
60
57
58
52
58
65
62
68
61
57
55
55
62
60
61
56
53
61
57
53
49
42
45
44
43
33
45
30
35
39
19
22
36
26
18
20
24
16
15
19
18
18
13
9
3
11
11
12
1
2
8
4
19
14
9
4
4
9
19
7
10
5
2
-3
-9
6
11
15
5
12
15
2
2
10
4
8
9
3
9
11
10
2
9
9
10
12
4
12
17
9
4
6
14
14
13
13
10
10
5
8
10
6
5
2
13
13
18
19
10
0
20
10
15
13
8
3
5
5
10
7
4
6
16
13
6
9
13
20
13
0
3
10
10
14
13
18
14
3
10
1
12
3
8
7
4
22
18
16
5
11
10
17
12
12
12
14
20
15
20
21
1
20
33
22
18
26
31
32
33
37
33
35
37
32
34
46
39
27
15
11
27
22
4
9
21
17
10
11
9
8
6
2
8
6
12
8
17
19
8
-4
3
12
16
8
8
6
7
12
8
13
10
8
13
3
6
13
15
5
-3
5
-1
2
2
-5
-8
-6
5
9
30
54
90
124
175
218
257
287
284
284
256
234
181
148
97
48
9
-27
-40
-18
-22
-32
-24
-27
-28
-14
-21
-20
-10
-2
-1
6
4
6
2
-1
-4
8
12
9
11
10
9
17
11
19
16
8
8
7
10
-1
1
18
24
19
7
7
21
14
23
16
17
16
7
17
23
21
21
16
28
24
20
33
29
8
17
22
22
20
26
41
26
17
27
36
41
36
37
35
35
37
41
48
41
51
52
47
44
58
51
46
44
51
60
63
66
64
62
70
67
51
59
56
61
66
61
59
56
64
57
69
58
55
51
56
65
62
53
52
51
49
49
42
37
43
43
29
37
34
22
22
27
29
18
19
38
14
13
15
13
2
10
19
5
9
21
23
7
1
0
1
5
6
1
14
12
9
4
7
9
7
5
2
-4
14
12
9
11
0
5
6
2
4
14
14
7
-3
2
8
10
5
5
6
3
14
12
6
8
-2
-3
3
4
-1
7
8
7
7
10
17
6
6
5
3
6
2
3
-3
-1
7
1
3
6
3
4
19
17
5
4
-3
0
5
-3
6
13
27
2
-2
-5
2
-11
5
2
-7
-5
14
1
4
3
1
1
-2
-1
1
0
2
2
-1
14
-4
1
13
10
5
9
13
12
19
-6
5
3
9
9
15
21
20
19
21
22
28
23
30
37
8
15
20
19
15
8
5
-1
0
5
-4
-3
-5
-4
0
-1
-7
-10
-5
-2
-10
-3
-1
-8
-4
-4
-10
-12
4
-8
-11
-4
-7
-12
-10
-10
-9
-6
10
6
-13
-14
-13
-11
-11
-5
-14
-13
-23
-21
-10
-25
-8
10
24
68
112
155
193
223
264
270
256
248
233
186
135
91
48
-27
-55
-48
-50
-54
-54
-50
-50
-46
-53
-43
-41
-30
-19
-6
-4
-11
-9
-11
-15
-10
-9
-8
-12
0
6
0
-10
-12
-10
-1
-3
5
-6
-11
2
0
-13
-4
-8
-11
-7
-3
0
5
-1
-5
7
11
6
1
11
1
-1
-7
-2
2
12
9
11
14
10
14
10
1
10
9
5
15
12
11
14
20
23
27
35
17
17
20
24
22
29
40
34
33
39
27
39
40
56
38
40
43
40
37
47
42
42
44
50
52
42
45
50
46
49
50
48
44
36
34
41
24
27
41
37
24
26
24
24
13
18
18
23
17
6
6
6
2
7
-4
-3
-4
-3
2
1
-4
-6
-5
2
-22
1
-15
-7
-8
-3
-18
-15
-13
-16
-6
1
-1
-4
-19
-15
-24
-19
-12
-24
-7
-3
-5
-8
-1
-6
-5
-15
-10
-5
-9
-13
-11
-15
-7
-16
-7
-7
-7
-5
-6
-2
-1
4
-14
-20
-14
-11
-12
-6
-15
-13
-9
-17
-10
-7
-12
-10
-11
-19
-16
-6
-9
-7
-13
-14
-21
-7
-14
-9
-5
-12
-9
-11
-10
-11
-15
-14
-11
-11
-7
-7
-9
-18
-13
-14
-22
-12
-3
-12
-15
-23
-16
-19
-15
-20
-10
-19
-21
-16
-3
-24
-17
-17
-19
-14
-12
-15
-14
-21
-10
-10
-7
-14
-15
-19
-15
-17
-9
-6
2
1
-3
2
0
-1
-2
-5
-7
7
5
-6
-11
-9
-8
-22
-15
-18
-13
-16
-16
-28
-31
-26
-26
-28
-22
-28
-30
-32
-34
-30
-21
-24
-25
-18
-23
-34
-36
-29
-27
-31
-21
-20
-21
-34
-24
-30
-34
-39
-32
-14
-22
-32
-30
-39
-37
-39
-38
-36
-21
-29
-25
-11
15
48
66
110
147
188
220
228
205
199
170
128
83
44
-5
-49
-78
-81
-92
-93
-80
-84
-76
-71
-72
-78
-66
-67
-53
-40
-35
-45
-40
-29
-29
-39
-24
-25
-28
-36
-31
-33
-35
-22
-31
-38
-21
-16
-32
-32
-33
-23
-30
-34
-34
-22
-23
-22
-20
-23
-21
-33
-36
-27
-24
-29
-24
-20
-11
-26
-30
-30
-5
-29
-24
-24
-5
-7
-15
-10
-8
-11
-10
-27
-8
-4
-6
-7
-4
-6
-1
0
-1
-2
12
13
9
9
3
12
13
9
20
11
9
27
26
21
25
28
19
10
14
25
41
26
25
26
27
21
21
27
20
24
20
28
22
16
19
17
24
10
3
4
3
5
4
3
-5
-6
-12
-12
-14
-17
-17
-21
-18
-10
-9
-9
-26
-37
-26
-26
-16
-37
-38
-14
-20
-26
-37
-27
-31
-30
-11
-29
-32
-20
-20
-24
-37
-28
-44
-33
-26
-21
-26
-33
-23
-19
-38
-37
-34
-36
-16
-19
-26
-26
-28
-23
-30
-36
-40
-33
-30
-26
-25
-34
-37
-35
-27
-31
-29
-34
-12
-19
-26
-26
-29
-34
-24
-34
-32
-39
-21
-22
-21
-24
-29
-36
-27
-26
-29
-33
-31
-28
-26
-30
-24
-33
-27
-33
-37
-30
-27
-29
-29
-36
-36
-22
-30
-27
-31
-28
-34
-31
-31
-37
-33
-32
-30
-29
-37
-27
-25
-27
-30
-32
-28
-33
-22
-25
-23
-18
-16
-17
-14
-16
-28
-29
-14
-20
-10
-12
-8
-13
-12
-8
-5
-16
-21
-22
-24
-20
-26
-28
-22
-19
-30
-39
-37
-35
-31
-32
-27
-26
-33
-31
-32
-33
-26
-24
-46
-37
-35
-31
-31
-32
-34
-37
-28
-36
-39
-38
-35
-31
-38
-32
-31
-26
-32
-41
-32
-42
-30
-35
-52
-33
-26
-19
-3
7
31
78
118
159
189
203
207
207
198
171
125
69
31
-10
-50
-82
-87
-87
-83
-77
-81
-81
-75
-73
-71
-73
-58
-40
-48
-46
-36
-21
-25
-33
-28
-38
-41
-34
-25
-29
-35
-21
-25
-32
-23
-36
-38
-43
-31
-18
-14
-25
-25
-18
-19
-22
-20
-26
-33
-23
-21
-13
-12
-21
-21
-27
-20
-18
-20
-25
-28
-22
-7
-7
-5
-10
-19
-18
-8
-8
-10
-2
-1
-6
-14
-15
-6
3
6
-7
-5
10
2
10
9
10
11
27
16
-1
9
20
25
26
21
24
26
20
24
20
20
38
36
34
18
17
22
31
23
11
25
30
22
27
24
13
14
16
18
17
17
10
7
12
8
-6
8
-1
-6
-19
-14
-5
-5
-11
-11
-11
-27
-26
-29
-29
-26
-19
-18
-19
-14
-22
-20
-27
-32
-28
-18
-25
-33
-43
-29
-26
-28
-24
-25
-26
-30
-23
-23
-18
-23
-32
-23
-25
-24
-28
-23
-24
-28
-29
-30
-29
-27
-22
-29
-34
-28
-24
-19
-23
-33
-31
-20
-19
-12
-20
-26
-29
-30
-27
-29
-31
-28
-31
-28
-16
-17
-23
-40
-28
-26
-27
-21
-35
-28
-29
-35
-13
-15
-18
-28
-34
-30
-31
-26
-25
-20
-22
-27
-30
-25
-30
-27
-32
-33
-20
-24
-16
-25
-35
-43
-32
-19
-19
-24
-34
-27
-26
-23
-23
-26
-26
-29
-27
-21
-21
-12
-19
-17
-24
-31
-30
-22
-10
-9
-6
6
-2
-3
-11
-17
-10
0
-12
-19
-3
-12
-11
-10
-21
-25
-28
-27
-19
-32
-27
-27
-27
-26
-23
-34
-31
-37
-39
-38
-19
-19
-27
-30
-37
-38
-36
-23
-30
-42
-25
-15
-23
-21
-23
-29
-28
-24
-33
-33
-34
-27
-29
-30
-37
-48
-48
-32
-29
-24
-1
12
51
78
114
156
191
219
229
215
214
187
143
89
65
-3
-53
-81
-87
-68
-63
-66
-66
-73
-70
-72
-69
-61
-56
-44
-39
-32
-33
-30
-27
-33
-29
-20
-32
-37
-19
-31
-18
-19
-29
-37
-28
-23
-15
-28
-30
-23
-11
-22
-17
-19
-16
-19
-20
-14
-13
-17
-18
-17
-20
-8
-21
-13
-8
-10
-17
-16
-12
-12
-12
-15
-8
-15
-9
-3
7
-3
0
2
3
-5
-2
7
3
4
7
6
11
12
10
9
11
10
11
12
30
23
24
17
23
33
19
13
25
28
46
37
34
35
32
24
36
35
46
44
29
30
31
31
25
22
32
34
21
27
32
19
16
13
11
12
9
0
-1
6
0
-11
-8
-16
-6
-4
-7
-12
-13
-8
-4
-13
-21
-19
-23
-24
-18
-24
-21
-13
-20
-32
-23
-18
-17
-18
-21
-23
-14
-12
-20
-33
-24
-27
-34
-23
-19
-15
-22
-20
-27
-26
-16
-17
-21
-18
-14
-25
-26
-24
-26
-14
-28
-20
-21
-15
-19
-25
-24
-20
-30
-23
-23
-17
-21
-22
-23
-18
-23
-19
-18
-16
-18
-23
-30
-24
-20
-28
-30
-27
-15
-18
-15
-21
-25
-26
-32
-24
-26
-22
-30
-25
-23
-15
-13
-13
-22
-30
-34
-30
-24
-26
-23
-23
-23
-7
-20
-14
-25
-27
-24
-27
-24
-23
-27
-29
-32
-31
-29
-23
-13
-13
-17
-13
-30
-19
-12
-18
3
-2
-6
-10
-5
-4
-3
-12
-7
-10
-4
10
-1
-5
-5
-15
-22
-18
-20
-22
-17
-18
-29
-26
-10
-20
-32
-32
-26
-31
-40
-30
-24
-23
-29
-33
-33
-25
-29
-21
-33
-24
-25
-21
-32
-34
-30
-29
-26
-28
-18
-23
-24
-30
-36
-30
-27
-41
-45
-35
-34
-36
-30
-34
-19
-4
20
51
78
123
170
199
236
244
239
216
179
129
85
45
2
-53
-82
-84
-82
-78
-79
-79
-67
-66
-66
-59
-57
-43
-37
-43
-35
-33
-22
-17
-22
-36
-22
-22
-27
-33
-37
-32
-26
-23
-19
-15
-18
-26
-23
-35
-18
-16
-20
-13
-17
-23
-19
-4
-10
-16
-16
-20
-16
-25
-15
-12
-2
-9
-9
-14
-15
-14
-14
-21
-13
4
-8
4
1
0
-4
-2
-6
-2
8
13
4
9
-1
4
20
20
18
21
16
14
14
18
17
18
21
32
26
30
31
35
35
27
34
28
33
35
27
30
33
38
40
36
31
42
43
34
33
35
30
28
31
31
23
19
21
27
20
21
18
12
8
3
3
5
13
-1
-1
-7
-3
-3
-4
-11
-11
-15
-20
-21
-19
-6
-10
-15
-17
-11
-22
-18
-28
-29
-12
-13
-6
-21
-19
-17
-25
-18
-13
-18
-20
-12
-24
-20
-12
-14
-18
-16
-14
-17
-9
-11
-20
-28
-18
-18
-21
-28
-15
-20
-15
-17
-13
-15
-11
-14
-17
-24
-31
-27
-23
-24
-21
-22
-17
-16
-26
-22
-9
-17
-11
-17
-22
-17
-14
-19
-19
-9
-16
-25
-24
-12
-8
-13
-19
-15
-28
-23
-23
-21
-17
-12
-10
-29
-20
-20
-16
-20
-24
-28
-17
-11
-20
-11
-11
-19
-24
-23
-21
-21
-20
-7
-16
-19
-10
-19
-13
-20
-15
-15
-4
-16
-6
-3
2
-6
-5
-7
-12
-3
5
11
-7
-4
5
-6
-6
-14
-7
0
1
-6
-15
-12
-11
-21
-20
-20
-27
-11
-25
-25
-26
-19
-25
-35
-28
-28
-13
-23
-9
-10
-20
-22
-22
-26
-17
-22
-29
-25
-10
-12
-14
-28
-19
-9
-8
-16
-24
-23
-16
-12
-25
-34
-26
-31
-18
-8
9
39
63
99
139
190
224
253
249
233
202
182
140
93
29
-14
-58
-73
-67
-67
-64
-58
-49
-58
-57
-52
-66
-52
-39
-39
-32
-20
3
-13
-12
-24
-19
-26
-19
-11
-13
-16
-15
-12
-11
-9
-14
-15
-14
-19
-14
-10
-9
-15
-7
4
-16
-17
-15
-14
-11
-10
-11
-2
-19
3
-10
-14
-8
-17
-13
-3
3
1
2
6
4
3
3
2
7
14
11
11
9
9
10
13
13
7
14
18
19
23
22
28
29
28
15
23
32
20
34
33
26
35
36
33
32
41
43
45
29
38
41
46
45
42
39
51
29
38
39
54
43
32
38
38
33
29
27
33
33
10
18
22
19
17
-3
0
11
10
2
9
6
5
0
5
6
-1
-16
-16
-8
-6
2
5
-10
-5
-10
-10
-8
-5
-10
-3
-3
-16
-7
-10
-20
-24
-11
-6
-10
-1
2
-20
-14
-6
-7
4
-10
-13
-10
-16
-9
-11
-5
-7
-6
-8
-6
-3
-3
-4
-9
-17
-4
-11
-9
-4
-4
5
-5
-6
-12
-19
-12
-2
-6
-7
-12
-11
-9
-1
-9
-16
-16
0
-8
-10
-6
5
1
-3
-16
-18
-10
-18
-7
-1
-5
-1
-3
8
-5
-20
-16
-2
-14
-17
-2
-6
-6
-12
-9
-1
4
-7
-19
-12
0
-5
-8
-12
-7
-9
-12
-16
-18
-1
-6
-11
-1
0
-1
-3
3
-5
-4
5
7
0
11
19
23
16
16
1
1
7
14
11
14
10
5
-4
-19
-12
-17
-25
-7
-9
-10
-16
-6
-13
-14
-15
-15
-13
-10
-9
-12
-8
-5
-17
-9
-13
-10
-8
-15
-9
-13
-11
-16
-8
-19
-8
-11
-2
1
-6
-11
-18
-24
-22
-11
-20
-24
-20
-11
1
12
44
81
117
168
213
233
274
284
257
250
210
157
104
73
24
-27
-41
-47
-40
-34
-44
-42
-36
-37
-41
-36
-31
-12
-10
-8
8
1
10
4
1
6
8
5
4
2
9
9
7
5
0
10
4
1
11
12
23
11
18
10
3
13
11
11
19
23
23
12
10
12
30
22
23
22
16
30
23
21
18
29
10
24
29
38
29
25
29
15
24
53
48
46
49
36
41
29
34
36
45
51
43
47
51
48
53
57
49
55
54
52
66
61
58
61
69
54
60
53
51
63
60
57
76
72
62
59
61
60
70
58
47
55
65
44
50
48
33
33
50
47
37
39
32
35
13
28
30
17
14
23
28
14
6
15
8
6
7
5
17
2
0
17
5
-4
1
5
8
5
9
1
6
2
0
3
1
5
-4
-2
1
-2
3
0
-3
10
21
2
-10
2
1
-1
-1
5
-1
1
0
8
-2
-4
-1
0
1
10
5
7
7
-1
0
-5
-6
-2
2
9
13
9
-3
-2
-2
-2
4
-3
4
-1
8
8
-1
-1
-10
0
7
7
0
0
4
-3
4
0
-1
-2
5
-5
-2
-6
-5
5
-1
0
-3
2
-3
-11
-2
2
9
13
-11
-21
1
-3
-6
1
9
8
4
-4
-1
4
12
4
5
1
9
9
3
14
10
6
14
25
29
16
13
22
13
16
14
7
-2
-2
1
-15
-11
-4
-9
-6
-23
-16
-16
-17
-9
-7
-3
-15
-25
-17
-22
-16
-15
-22
-21
-23
-15
-11
-16
-19
-14
-15
-26
-28
-20
-22
-21
-10
-10
-32
-18
-22
-31
-40
-40
-33
-34
-28
-24
-13
9
45
81
126
165
207
244
257
247
234
216
164
111
67
18
-40
-77
-81
-84
-76
-75
-81
-87
-84
-68
-66
-56
-46
-45
-53
-31
-35
-40
-31
-28
-32
-46
-43
-29
-39
-41
-41
-35
-40
-39
-30
-41
-36
-38
-36
-37
-46
-34
-36
-30
-25
-36
-33
-28
-21
-28
-39
-33
-29
-27
-36
-31
-34
-35
-23
-23
-25
-28
-27
-21
-31
-10
-10
-16
-21
-22
-20
-19
-16
-17
-17
-11
-12
-10
-11
-3
-7
-6
-2
-3
1
14
10
16
4
5
13
8
12
13
15
27
18
20
19
28
20
19
24
20
16
12
11
28
35
29
16
26
18
15
27
28
26
22
2
11
15
14
15
0
9
2
1
-10
-16
-1
-7
-13
-6
-12
-18
-19
-22
-20
-20
-28
-26
-24
-28
-27
-29
-23
-27
-19
-19
-25
-29
-30
-31
-32
-18
-32
-33
-25
-26
-35
-34
-32
-32
-26
-22
-25
-31
-25
-24
-30
-36
-28
-22
-21
-23
-30
-30
-29
-29
-32
-25
-35
-35
-37
-12
-22
-15
-26
-25
-26
-32
-31
-33
-34
-25
-29
-38
-38
-29
-29
-23
-25
-31
-30
-32
-36
-39
-26
-27
-30
-20
-20
-34
-25
-22
-32
-29
-28
-30
-31
-30
-34
-49
-22
-17
-30
-36
-28
-28
-34
-36
-29
-32
-29
-37
-37
-27
-27
-26
-32
-28
-31
-37
-21
-13
-20
-28
-25
-22
-28
-25
-33
-33
-16
-5
-2
0
8
-6
-8
-9
-12
-11
-8
-9
-11
-13
-14
-19
-30
-27
-29
-37
-23
-26
-29
-30
-31
-39
-25
-27
-36
-44
-39
-34
-31
-38
-47
-36
-37
-40
-32
-33
-31
-37
-34
-34
-34
-40
-44
-33
-33
-42
-32
-28
-26
-24
-35
-42
-49
-50
-50
-41
-34
-32
-24
0
34
51
87
129
174
215
251
249
232
213
181
128
73
23
-29
-77
-97
-98
-96
-89
-84
-83
-86
-73
-86
-82
-66
-58
-45
-36
-32
-32
-37
-44
-42
-33
-26
-33
-35
-25
-25
-34
-44
-24
-30
-35
-37
-37
-30
-22
-27
-40
-27
-27
-26
-30
-21
-22
-21
-24
-24
-21
-21
-21
-26
-25
-23
-27
-27
-23
-16
-26
-13
-15
-15
-3
2
-12
-17
-10
-5
-10
-10
-14
-18
-10
-7
-9
-2
2
2
-3
11
5
8
12
15
18
10
8
0
11
14
24
17
25
23
25
15
35
30
11
24
15
14
21
31
31
27
24
22
22
24
26
21
26
34
27
15
11
15
15
4
4
2
4
7
-6
-20
-13
-9
-11
-18
-28
-11
-20
-15
-20
-27
-28
-25
-31
-29
-33
-28
-26
-27
-29
-39
-29
-32
-38
-32
-32
-38
-30
-29
-35
-35
-35
-35
-36
-34
-34
-37
-27
-31
-37
-36
-27
-30
-35
-46
-41
-35
-27
-23
-38
-44
-33
-34
-32
-37
-32
-30
-35
-36
-24
-11
-26
-47
-40
-35
-35
-33
-33
-43
-38
-32
-30
-36
-39
-31
-36
-31
-38
-38
-38
-31
-32
-30
-34
-34
-37
-36
-39
-33
-34
-40
-33
-38
-38
-36
-37
-37
-19
-31
-32
-38
-41
-37
-41
-39
-35
-35
-23
-25
-35
-26
-30
-22
-22
-26
-26
-22
-25
-27
-24
-16
-22
-7
-24
-20
1
1
-18
-19
-13
-19
-14
-23
-25
-24
-36
-24
-29
-35
-41
-33
-42
-35
-37
-46
-41
-42
-43
-35
-40
-28
-38
-50
-46
-40
-40
-37
-36
-40
-39
-40
-49
-32
-39
-42
-43
-37
-32
-34
-37
-45
-48
-44
-45
-55
-50
-41
-34
-36
-43
-38
-18
11
40
88
126
160
191
226
231
221
197
165
119
71
22
-31
-83
-99
-99
-96
-98
-106
-113
-101
-100
-85
-83
-80
-65
-67
-57
-53
-45
-46
-36
-43
-46
-38
-31
-35
-35
-36
-34
-36
-39
-35
-40
-24
-21
-24
-37
-30
-34
-31
-42
-21
-21
-24
-27
-25
-25
-26
-26
-21
-16
-11
-12
-22
-15
-19
-8
-17
-23
-26
-11
-16
-15
-17
-8
-15
-19
-13
-13
7
-5
-11
-11
-3
-3
-3
-6
-2
5
1
8
5
6
2
5
6
4
14
13
17
22
21
20
20
14
16
24
14
14
20
24
22
26
16
15
13
19
21
23
-2
16
18
28
13
7
16
10
4
5
2
-1
4
1
-13
-15
-20
-23
-24
-24
-25
-22
-28
-26
-27
-28
-29
-29
-32
-31
-47
-45
-46
-46
-33
-42
-48
-45
-49
-46
-42
-36
-41
-42
-39
-38
-51
-46
-41
-51
-48
-42
-44
-41
-38
-42
-44
-45
-43
-48
-42
-44
-44
-45
-40
-41
-35
-31
-46
-52
-44
-42
-42
-47
-33
-37
-39
-45
-44
-48
-47
-42
-42
-41
-33
-37
-40
-38
-33
-43
-36
-40
-33
-30
-35
-38
-32
-38
-36
-27
-36
-33
-40
-46
-42
-41
-33
-38
-43
-43
-44
-27
-28
-40
-30
-28
-33
-32
-34
-41
-35
-29
-20
-27
-23
-26
-26
-32
-35
-31
-25
-19
-9
-16
-13
-15
-11
-5
-17
-7
-8
-8
-8
-3
-19
-20
-14
-25
-22
-26
-30
-23
-25
-34
-44
-50
-36
-34
-35
-37
-35
-40
-35
-40
-29
-35
-46
-43
-42
-38
-41
-38
-42
-42
-40
-41
-36
-41
-36
-40
-38
-37
-34
-42
-46
-41
-41
-40
-38
-49
-46
-50
-33
-32
-35
-15
12
46
77
128
170
197
231
244
230
200
180
125
77
26
-14
-64
-109
-107
-103
-102
-98
-97
-98
-90
-89
-80
-76
-69
-61
-51
-52
-40
-41
-36
-42
-41
-40
-35
-41
-36
-39
-41
-39
-37
-29
-35
-25
-34
-34
-36
-31
-40
-42
-31
-32
-30
-35
-33
-32
-19
-25
-27
-18
-13
-22
-33
-38
-26
-19
-22
-29
-30
-31
-14
-19
-11
-16
-9
-12
-15
-12
-11
-9
-8
-2
-3
-5
3
-13
-9
1
-7
-1
8
-2
0
6
9
7
16
10
7
16
26
25
7
11
12
11
22
25
18
21
25
25
27
22
20
21
33
33
18
11
23
17
16
15
17
8
15
13
3
7
2
6
13
-7
-14
-12
-3
-19
-20
-23
-12
-21
-23
-24
-25
-27
-28
-26
-34
-32
-30
-25
-30
-34
-40
-36
-32
-46
-28
-35
-29
-40
-41
-28
-36
-42
-44
-39
-35
-35
-32
-29
-28
-48
-46
-39
-39
-41
-42
-34
-35
-40
-32
-32
-37
-35
-50
-42
-51
-43
-33
-29
-37
-38
-44
-35
-38
-41
-47
-42
-40
-46
-48
-32
-42
-30
-34
-45
-36
-39
-38
-35
-31
-46
-47
-44
-41
-45
-44
-36
-35
-35
-40
-34
-38
-43
-50
-53
-57
-55
-45
-39
-32
-36
-39
-44
-44
-45
-38
-35
-31
-32
-32
-37
-34
-37
-42
-33
-31
-17
-29
-25
-16
-16
-32
-34
-27
-22
-25
-23
-21
-32
-20
-26
-32
-38
-35
-47
-43
-43
-54
-47
-43
-44
-56
-47
-46
-46
-55
-50
-54
-46
-43
-50
-55
-53
-52
-49
-43
-37
-47
-61
-61
-47
-48
-50
-50
-58
-45
-45
-42
-51
-56
-56
-54
-51
-64
-58
-54
-54
-47
-40
-16
6
25
74
117
157
198
222
218
200
186
145
88
33
-11
-52
-95
-121
-115
-111
-107
-110
-103
-104
-100
-97
-89
-83
-76
-73
-59
-58
-44
-49
-56
-45
-45
-39
-47
-49
-45
-48
-53
-51
-52
-46
-27
-38
-39
-47
-47
-47
-54
-45
-47
-37
-34
-34
-39
-35
-34
-44
-44
-39
-39
-31
-28
-40
-30
-25
-32
-39
-34
-27
-37
-37
-24
-30
-29
-26
-20
-21
-20
-24
-25
-13
-17
-13
-10
-13
-16
-13
-6
-14
-18
-9
8
4
-6
-11
3
11
7
3
14
9
9
10
7
13
7
9
7
11
17
10
14
12
19
17
15
7
5
3
7
14
19
11
10
0
-1
3
0
-15
-6
5
-11
-20
-19
-22
-9
-23
-19
-23
-22
-27
-18
-25
-35
-27
-31
-39
-38
-41
-36
-39
-34
-35
-37
-37
-46
-43
-35
-44
-38
-42
-34
-33
-30
-39
-52
-43
-35
-37
-44
-40
-40
-40
-41
-36
-43
-49
-40
-41
-35
-35
-31
-36
-44
-39
-46
-40
-36
-39
-43
-29
-32
-41
-44
-43
-36
-37
-39
-49
-49
-28
-24
-37
-32
-43
-52
-46
-38
-39
-31
-25
-39
-51
-39
-30
-37
-41
-43
-44
-43
-30
-36
-45
-40
-42
-39
-40
-43
-37
-37
-33
-43
-42
-41
-40
-44
-31
-33
-27
-32
-27
-35
-28
-31
-41
-34
-24
-27
-15
-17
-14
-16
-19
-23
-21
-27
-27
-27
-34
-30
-29
-31
-27
-36
-38
-40
-40
-47
-43
-44
-40
-60
-62
-47
-47
-54
-55
-55
-47
-41
-48
-49
-49
-54
-51
-46
-44
-50
-53
-52
-46
-48
-45
-49
-53
-59
-51
-54
-55
-53
-52
-52
-53
-58
-44
-34
-44
-33
-7
28
65
108
146
175
196
213
212
188
164
121
74
19
-24
-76
-107
-107
-114
-118
-115
-93
-98
-104
-98
-90
-90
-81
-73
-69
-59
-46
-51
-45
-42
-51
-55
-56
-44
-41
-48
-41
-42
-45
-45
-51
-54
-39
-35
-43
-52
-44
-49
-32
-37
-52
-55
-45
-38
-36
-34
-33
-31
-43
-48
-46
-29
-37
-41
-35
-39
-36
-28
-24
-28
-27
-26
-23
-30
-26
-27
-26
-25
-25
-21
-21
-24
-17
-13
-20
-15
-8
-7
-4
-3
-8
-11
-5
-3
-1
-4
4
-3
-4
-1
0
10
8
14
13
11
16
23
15
11
12
11
12
8
9
10
12
-3
12
9
13
-1
5
8
-5
1
3
-12
-8
-7
-16
-19
-14
-23
-29
-19
-22
-21
-41
-24
-29
-32
-33
-33
-38
-34
-36
-34
-34
-49
-52
-44
-42
-46
-40
-49
-44
-26
-44
-36
-51
-40
-54
-52
-52
-45
-41
-43
-46
-47
-51
-48
-42
-48
-46
-46
-41
-44
-42
-36
-47
-39
-43
-48
-41
-49
-50
-40
-42
-37
-44
-33
-49
-47
-52
-47
-48
-47
-33
-32
-38
-40
-46
-41
-38
-39
-40
-43
-51
-46
-47
-42
-38
-40
-47
-37
-38
-40
-42
-47
-42
-38
-49
-45
-45
-30
-58
-53
-42
-39
-34
-35
-36
-29
-24
-27
-47
-26
-27
-29
-45
-34
-24
-31
-19
-15
-17
-23
-24
-27
-22
-17
-11
-18
-33
-25
-24
-23
-33
-34
-40
-45
-36
-39
-44
-42
-40
-50
-46
-47
-47
-39
-42
-58
-41
-41
-40
-41
-46
-46
-42
-45
-48
-40
-41
-41
-55
-46
-41
-41
-47
-42
-43
-49
-43
-38
-48
-40
-46
-59
-57
-53
-48
-49
-46
-29
-12
22
52
85
136
171
204
231
240
220
186
151
95
39
-2
-44
-101
-109
-97
-97
-89
-95
-87
-98
-85
-75
-94
-77
-59
-47
-49
-48
-38
-41
-44
-46
-47
-42
-37
-35
-36
-44
-41
-47
-34
-29
-39
-29
-32
-44
-42
-45
-31
-35
-35
-34
-37
-37
-30
-27
-27
-28
-26
-25
-19
-34
-38
-32
-31
-27
-21
-17
-23
-19
-12
-11
-24
-17
-9
-15
-26
-21
-15
-17
-16
-19
-14
-12
-5
-9
2
6
2
5
-3
-8
-3
1
12
4
9
11
20
14
19
21
6
19
27
18
11
25
22
20
21
27
23
22
24
23
25
32
25
13
18
18
11
7
15
9
8
11
2
1
-3
-11
-8
-6
-2
-11
-14
-19
-29
-26
-14
-17
-23
-20
-27
-32
-15
-32
-37
-31
-30
-27
-32
-34
-34
-32
-27
-37
-39
-39
-38
-33
-38
-38
-34
-28
-30
-28
-41
-38
-40
-35
-37
-26
-29
-44
-35
-35
-37
-37
-32
-37
-34
-28
-33
-30
-36
-30
-29
-44
-42
-37
-33
-22
-33
-27
-29
-38
-38
-37
-33
-43
-32
-34
-32
-32
-34
-39
-51
-38
-23
-31
-38
-34
-32
-29
-32
-40
-43
-41
-31
-38
-41
-38
-38
-37
-37
-35
-37
-33
-30
-34
-31
-24
-30
-43
-29
-22
-16
-20
-18
-28
-27
-29
-25
-23
-14
-3
-18
-15
-17
-8
-13
-10
-13
-23
-13
-23
-25
-37
-41
-40
-39
-34
-24
-35
-37
-52
-48
-35
-43
-36
-28
-36
-41
-45
-41
-44
-37
-40
-49
-41
-31
-33
-42
-43
-42
-46
-48
-38
-36
-49
-41
-43
-39
-42
-30
-40
-42
-46
-53
-51
-56
-40
-53
-38
-13
8
42
83
129
161
201
238
241
224
217
170
119
65
20
-21
-83
-101
-91
-93
-96
-97
-101
-90
-96
-83
-70
-71
-61
-60
-46
-50
-46
-37
-33
-41
-34
-33
-36
-40
-38
-54
-43
-32
-37
-33
-28
-38
-35
-34
-34
-46
-32
-33
-36
-36
-28
-32
-30
-25
-31
-36
-31
-21
-31
-24
-18
-23
-32
-24
-24
-28
-16
-29
-30
-18
-16
-13
-12
-10
-15
-16
-13
-11
-23
-9
-5
-8
-4
-2
-11
-13
-3
7
-15
-3
19
13
3
11
18
16
13
11
15
24
27
24
14
17
19
15
18
21
22
37
28
29
32
18
13
19
28
14
10
18
16
28
12
11
6
-5
0
-3
-2
0
4
-1
-5
-2
-12
-9
-23
-31
-26
-14
-24
-21
-20
-25
-31
-27
-26
-31
-40
-35
-31
-28
-26
-42
-38
-35
-34
-40
-34
-42
-39
-29
-33
-40
-37
-44
-35
-36
-34
-41
-40
-39
-26
-24
-31
-38
-40
-33
-19
-25
-29
-32
-29
-35
-42
-35
-32
-20
-29
-29
-29
-35
-30
-43
-27
-35
-39
-37
-31
-24
-22
-29
-27
-37
-44
-39
-31
-27
-26
-22
-22
-23
-24
-30
-30
-31
-31
-25
-24
-27
-27
-18
-24
-44
-28
-28
-30
-29
-27
-30
-23
-12
-19
-30
-26
-19
-29
-21
-18
-31
-26
-23
-17
-12
-11
-2
-12
-19
-4
0
-1
-4
-2
-7
-10
-8
3
-17
-9
-9
-12
-22
-24
-24
-27
-28
-30
-26
-26
-27
-30
-39
-35
-43
-40
-30
-34
-47
-35
-25
-27
-30
-34
-36
-33
-24
-45
-46
-34
-31
-33
-36
-39
-40
-32
-39
-41
-32
-35
-44
-43
-50
-46
-54
-52
-41
-35
-32
1
22
44
92
137
168
206
228
231
227
205
168
113
64
15
-31
-87
-100
-101
-102
-90
-91
-90
-88
-89
-86
-87
-80
-70
-52
-47
-51
-60
-41
-26
-43
-44
-36
-45
-43
-28
-35
-35
-33
-37
-45
-42
-46
-39
-38
-40
-39
-37
-39
-23
-34
-34
-34
-28
-24
-26
-39
-42
-32
-31
-40
-33
-23
-19
-21
-18
-23
-26
-20
-22
-21
-27
-19
-21
-13
-16
-18
-14
-13
-8
-15
-10
-12
-5
5
-2
-3
2
2
-11
-9
5
16
3
14
17
17
15
18
14
18
31
23
28
20
22
21
22
25
28
22
30
23
18
31
33
28
17
17
18
26
25
16
8
12
14
14
12
10
-4
2
-1
-10
-9
-2
-14
-11
-19
-14
-23
-10
-17
-25
-22
-13
-15
-32
-33
-24
-32
-41
-31
-28
-32
-34
-34
-30
-32
-24
-35
-33
-43
-30
-33
-29
-37
-30
-36
-42
-47
-35
-24
-36
-34
-27
-29
-29
-27
-28
-36
-38
-37
-42
-38
-28
-34
-33
-32
-23
-37
-28
-38
-36
-32
-30
-27
-26
-30
-30
-41
-42
-36
-40
-32
-27
-30
-42
-34
-36
-28
-32
-36
-46
-36
-28
-26
-35
-32
-39
-31
-28
-32
-34
-31
-38
-42
-30
-31
-35
-29
-31
-34
-36
-25
-26
-25
-37
-31
-19
-18
-26
-33
-29
-18
-30
-24
-18
-17
-23
-26
-21
-9
-12
-10
-10
-5
-12
-14
-22
-21
-10
-25
-22
-26
-25
-21
-27
-27
-41
-41
-32
-43
-41
-31
-30
-34
-40
-33
-35
-38
-42
-40
-41
-39
-36
-40
-39
-46
-43
-37
-38
-37
-38
-32
-42
-40
-37
-35
-42
-40
-44
-41
-37
-51
-50
-56
-41
-28
-49
-38
-13
7
42
77
126
175
216
226
238
238
200
176
131
82
29
-27
-81
-108
-105
-98
-87
-97
-91
-85
-88
-81
-70
-75
-64
-52
-47
-40
-38
-40
-38
-37
-39
-34
-37
-35
-50
-38
-31
-25
-27
-28
-32
-33
-36
-25
-37
-24
-21
-25
-27
-29
-32
-26
-30
-31
-22
-23
-19
-9
-14
-14
-15
-25
-26
-20
-15
-14
-10
-18
-21
-23
-13
-18
-11
-22
-16
-9
3
-2
-3
-4
-10
-4
-5
-5
-1
2
2
3
13
11
13
-4
3
13
15
16
14
15
18
29
19
15
23
15
12
24
19
18
17
21
16
25
34
34
24
24
31
22
24
28
17
6
18
14
13
5
-1
0
4
3
0
-8
-7
-2
-5
-15
-11
-9
-17
-20
-18
-18
-21
-27
-34
-39
-33
-31
-28
-25
-27
-35
-28
-31
-35
-24
-22
-32
-30
-33
-42
-49
-38
-33
-32
-37
-33
-30
-27
-42
-45
-36
-25
-28
-27
-19
-33
-31
-32
-31
-39
-38
-34
-32
-40
-33
-38
-45
-32
-31
-38
-26
-35
-37
-31
-33
-32
-30
-29
-25
-33
-37
-40
-42
-36
-31
-30
-34
-32
-30
-38
-36
-29
-35
-29
-30
-33
-36
-36
-37
-34
-38
-38
-45
-39
-31
-35
-35
-31
-31
-40
-37
-39
-39
-47
-38
-33
-31
-19
-18
-36
-40
-29
-33
-28
-21
-17
-19
-24
-27
-29
-27
-11
-12
-18
-16
-17
-21
-15
-15
-22
-17
-20
-22
-21
-17
-20
-29
-30
-35
-32
-40
-43
-46
-50
-38
-39
-50
-39
-45
-47
-44
-37
-40
-38
-43
-41
-47
-49
-47
-37
-34
-36
-34
-41
-34
-38
-42
-45
-48
-47
-39
-41
-42
-36
-55
-63
-59
-62
-45
-44
-41
-18
1
35
79
124
159
195
223
232
217
203
189
138
97
33
-16
-68
-93
-101
-103
-101
-104
-93
-86
-89
-93
-82
-76
-65
-58
-55
-53
-40
-39
-41
-32
-32
-50
-48
-45
-43
-46
-31
-36
-40
-41
-34
-38
-39
-41
-46
-37
-46
-35
-38
-35
-29
-32
-32
-40
-33
-27
-23
-28
-25
-28
-29
-35
-35
-23
-23
-31
-25
-20
-20
-20
-21
-14
-20
-21
-13
-21
-13
-16
-11
-13
-8
-10
-17
-8
-10
-6
1
-5
5
4
5
3
0
2
3
12
23
23
10
13
18
24
10
7
6
17
20
30
16
20
20
10
17
26
18
23
28
22
17
16
12
16
9
16
7
5
6
5
0
-13
-16
-6
-1
-15
-17
-21
-18
-23
-27
-35
-37
-26
-33
-26
-32
-35
-39
-32
-29
-41
-41
-46
-43
-34
-45
-42
-35
-37
-38
-34
-41
-46
-38
-41
-44
-38
-52
-35
-40
-37
-39
-35
-38
-43
-42
-38
-45
-36
-35
-33
-41
-32
-32
-36
-33
-35
-33
-33
-26
-24
-26
-28
-29
-26
-18
-17
-23
-26
-24
-15
-15
-5
-8
-22
-17
-16
-10
-11
-6
-8
-8
-4
-10
-11
-12
-9
-1
2
-8
-8
-12
-16
-5
-10
-6
-8
-3
-1
-5
-4
-10
-4
-6
-6
0
0
5
-3
4
5
-6
-1
-3
-1
2
4
5
6
0
8
17
11
16
16
15
17
24
30
20
10
10
6
14
12
4
-6
-7
-4
-7
-10
-18
-10
-6
-6
-11
-20
-19
-15
-16
-14
-17
-19
-20
-21
-17
-16
-20
-18
-18
-29
-28
-24
-22
-30
-16
-16
-20
-22
-22
-31
-26
-26
-35
-35
-21
-26
-51
-44
-44
-33
-26
-13
21
43
87
140
161
195
240
245
240
223
198
149
101
49
0
-54
-91
-103
-86
-92
-97
-97
-96
-94
-81
-81
-73
-68
-54
-41
-50
-42
-39
-33
-31
-38
-41
-37
-29
-36
-33
-28
-37
-37
-43
-34
-34
-33
-20
-27
-33
-34
-20
-25
-42
-32
-23
-19
-27
-28
-32
-30
-17
-23
-29
-27
-19
-22
-23
-19
-13
-12
-21
-20
-17
-9
-7
-12
-16
-11
-10
-15
-5
-3
2
8
0
-11
-5
-6
6
6
8
16
8
11
12
11
10
25
19
15
25
28
28
26
30
26
30
18
18
40
35
22
35
38
26
19
27
31
26
21
26
29
27
29
27
18
21
21
6
5
13
9
10
-1
