-3
-7
-12
-12
-15
-12
-10
-15
-19
-11
-5
-5
-11
-12
-10
-1
-9
-18
-13
-3
-4
-4
-1
-6
-9
-3
-5
-2
3
-6
-16
-16
-13
-7
-8
-10
-9
-11
1
-11
-11
-5
-1
-5
-1
-4
-7
-7
4
0
2
-1
-6
-9
-10
-15
-10
2
0
0
0
-1
-4
-9
-5
-8
-6
-9
-1
5
3
4
-4
-7
1
-1
-4
-8
-5
-2
-2
-3
-19
-10
-7
0
-8
-10
3
8
1
4
-2
-5
-5
-4
-4
-3
-6
4
2
-6
-3
-7
-7
-10
-9
3
6
2
-11
-16
-16
-13
-10
-9
-7
-2
2
3
-1
-5
-10
-15
-6
-4
-4
1
3
-1
-5
-2
-9
-6
-4
-4
-5
-4
8
-2
-6
-4
-7
-13
-4
1
-8
-5
-7
-4
0
-2
-8
-9
-13
-12
-6
-1
-2
-7
-13
4
3
-2
-15
-11
-3
10
-4
-7
-1
4
-14
-11
-5
2
-8
0
-3
-3
-4
-5
-6
-8
-7
-12
-4
10
1
-11
-7
-5
-12
-8
-6
-5
-5
-2
-6
-9
-2
-3
-8
-16
-12
-2
3
1
0
5
-1
-6
-4
-8
-8
-9
-5
4
-2
-6
-11
-7
-1
-6
-4
-2
4
6
-7
-6
-5
-5
-12
-3
-2
-7
-1
10
-1
0
2
-9
-10
0
-2
-6
1
11
4
0
0
-8
-5
-13
-7
-3
2
-2
-4
-3
2
2
4
9
-2
-3
4
4
-6
-8
-2
-7
0
3
0
1
11
8
2
4
11
1
2
7
7
7
12
14
8
13
12
13
12
12
13
8
12
12
8
8
20
20
14
12
14
9
4
7
11
1
-2
0
-2
3
6
4
7
4
9
4
0
1
6
1
-5
0
15
12
10
11
3
0
3
8
5
1
13
8
3
4
8
-2
4
10
4
10
16
12
17
27
30
22
19
29
33
47
55
61
68
64
72
67
62
69
65
55
26
-9
-40
-49
-62
-79
-83
-73
-64
-51
-33
-22
-22
-10
-10
-4
-9
-5
-4
7
10
10
19
4
0
1
15
13
12
21
23
16
16
12
13
8
8
15
7
10
17
22
20
20
23
24
23
17
18
22
23
22
20
19
19
26
25
25
39
29
18
12
10
19
19
13
22
22
26
32
34
21
22
23
21
26
27
30
33
38
31
29
32
28
25
36
33
34
34
49
33
37
40
44
42
45
41
45
48
49
49
51
54
49
44
53
54
57
62
70
62
61
66
67
68
65
71
72
73
81
70
69
75
67
69
75
72
77
77
78
84
84
80
72
60
64
72
70
69
70
69
58
52
43
47
47
44
39
40
42
38
31
32
32
22
26
28
26
23
19
11
18
22
22
16
20
11
8
21
26
24
17
20
21
21
20
16
14
25
26
22
19
9
14
17
11
13
16
21
15
21
21
25
14
12
16
14
9
13
18
20
18
20
17
19
15
17
23
23
21
24
22
22
19
13
15
13
9
14
22
25
22
23
18
33
30
33
28
26
20
22
19
25
17
20
18
18
24
32
24
27
23
19
16
25
33
26
28
35
31
27
20
25
16
22
17
20
19
24
19
26
34
27
19
19
24
23
22
26
30
28
30
27
24
21
16
19
27
31
21
22
24
23
18
12
19
13
24
34
28
26
21
30
20
20
23
23
29
30
27
24
23
22
16
11
14
10
20
34
36
30
29
23
27
22
13
24
29
26
26
24
24
25
17
21
22
18
25
34
28
18
17
24
26
22
22
16
27
28
28
26
17
18
18
20
25
26
32
31
21
25
26
17
16
20
22
27
23
31
36
22
18
16
20
23
31
28
29
30
27
17
17
19
26
26
30
22
25
22
21
22
24
18
20
26
18
20
28
28
23
23
21
27
22
24
23
22
30
24
15
25
27
27
23
24
24
23
23
29
17
29
22
15
20
25
25
26
21
23
26
26
15
17
16
17
20
22
25
12
28
21
23
20
23
19
14
19
27
22
16
21
28
21
26
18
15
23
21
19
24
27
24
27
24
27
29
34
29
30
30
40
31
31
30
22
27
35
29
22
31
43
36
33
29
31
24
28
24
23
31
26
19
20
22
16
8
24
28
18
22
26
18
13
4
11
26
24
24
28
26
23
19
17
18
14
19
25
22
12
19
15
14
20
23
15
16
16
17
20
28
26
25
25
25
32
38
47
53
63
69
77
78
77
76
55
54
64
56
32
-2
-23
-40
-43
-50
-55
-52
-48
-34
-31
-27
-7
-13
-9
2
3
6
8
14
20
18
21
13
19
18
19
17
25
32
34
23
19
13
18
27
22
26
31
27
24
26
20
20
29
39
32
40
37
25
29
32
22
24
26
28
32
33
30
24
22
38
38
32
26
29
29
24
34
43
37
33
27
25
27
35
38
40
38
33
28
35
38
39
41
43
46
43
53
48
41
43
39
44
53
46
51
59
55
48
52
59
56
49
59
59
62
56
67
72
67
64
66
65
66
62
72
79
79
77
78
73
65
68
78
84
85
87
79
81
87
80
68
71
73
59
68
73
69
52
48
59
55
50
49
43
39
44
40
36
37
32
27
30
19
15
18
26
22
20
23
17
20
19
19
15
12
11
17
17
28
13
4
10
13
10
13
2
4
17
16
23
11
6
6
6
11
12
18
13
7
0
5
5
7
13
11
16
7
10
19
2
7
9
11
13
15
14
11
11
13
4
10
10
6
7
14
19
12
8
9
12
18
6
10
14
21
4
12
17
15
9
9
10
14
12
24
24
9
7
7
0
2
9
10
21
24
22
19
19
0
6
11
6
5
15
17
11
14
15
11
12
21
22
5
0
10
13
10
19
17
7
13
14
3
10
19
16
24
16
4
-5
4
11
8
10
18
16
8
14
19
15
12
13
8
9
12
16
12
16
9
16
10
-1
5
13
17
19
17
8
17
7
5
8
7
11
14
17
6
8
9
18
17
8
-8
4
12
15
8
8
7
10
18
11
6
17
21
6
7
10
8
10
4
6
11
16
13
14
16
9
6
9
8
3
7
16
14
19
11
12
14
13
14
17
18
26
23
16
13
12
13
18
11
13
31
25
17
19
21
22
12
10
14
14
20
30
31
22
20
19
12
7
1
4
7
13
7
11
15
14
8
11
8
-3
7
10
7
7
5
11
7
6
4
10
15
10
9
6
4
2
6
4
6
11
13
13
7
6
15
15
16
17
21
19
21
33
36
52
54
54
56
59
60
59
62
49
48
31
13
-20
-48
-55
-67
-77
-71
-51
-49
-39
-29
-18
-15
-14
-15
-15
-2
2
-1
6
7
9
3
10
11
11
13
16
20
25
11
7
8
12
20
22
20
13
11
11
17
20
16
16
14
22
20
15
14
13
13
21
26
17
19
23
24
17
13
17
28
23
26
22
18
18
25
28
29
27
27
24
19
24
20
21
28
29
27
32
39
23
25
32
33
28
33
35
38
38
34
29
41
37
36
27
40
45
43
45
56
43
50
49
43
54
56
66
68
67
63
62
61
59
55
55
69
70
63
67
69
70
72
72
76
74
81
81
70
68
66
68
67
61
61
62
59
52
54
49
39
39
41
36
39
36
46
35
17
9
16
22
24
26
14
13
20
16
10
16
10
0
0
8
8
14
9
-1
10
15
11
9
5
8
11
13
12
5
7
6
-5
0
5
4
9
0
-4
0
5
8
1
-3
5
9
3
4
1
-4
-1
11
1
4
6
9
9
10
5
1
4
4
1
7
9
8
11
13
1
-6
0
6
1
-5
2
9
9
11
2
2
7
4
0
10
11
7
8
13
6
9
15
9
1
-3
5
11
16
9
11
5
8
7
10
8
2
-2
2
16
14
11
9
9
10
15
9
2
0
7
9
4
11
11
3
2
10
12
14
14
6
6
6
3
2
8
6
5
18
15
11
2
6
3
-1
0
2
4
5
3
0
6
12
7
6
6
5
4
10
6
10
12
8
5
4
10
2
0
-1
16
8
1
2
-6
1
3
0
-1
11
5
0
7
12
9
0
3
1
6
15
10
7
7
8
3
9
7
5
6
11
7
9
9
5
-1
-2
-4
1
5
6
9
8
15
11
0
2
5
0
-5
6
10
7
6
6
9
8
8
3
16
15
13
6
15
18
10
15
11
13
20
23
15
19
23
17
15
16
9
8
13
19
15
15
26
14
11
21
14
10
22
20
10
7
6
7
-3
7
5
0
5
3
1
-4
13
14
2
-2
2
4
9
6
7
9
12
4
2
-1
2
5
10
13
5
7
7
4
7
5
4
4
20
23
20
16
21
27
32
50
48
55
63
67
70
60
59
58
62
46
14
-11
-34
-49
-59
-69
-81
-73
-58
-46
-44
-35
-19
-5
-15
-11
1
-9
-3
3
8
10
15
20
11
-1
7
10
10
15
15
11
20
12
11
10
9
7
17
19
10
15
21
14
16
16
14
14
9
15
12
17
20
22
14
14
11
11
17
18
13
20
24
24
32
26
34
14
21
21
13
24
30
26
22
19
15
22
29
24
27
32
32
26
32
36
34
20
26
30
25
36
42
32
32
35
42
43
42
37
42
40
48
52
61
62
50
48
46
54
51
67
65
54
60
62
62
61
58
62
70
68
68
70
70
63
69
75
79
69
66
69
67
65
66
62
52
48
52
43
39
49
47
32
31
32
27
27
24
22
16
31
25
17
10
13
5
18
14
10
6
13
12
5
2
4
4
5
2
-2
4
9
9
11
7
4
2
5
8
4
8
3
2
1
-2
6
4
0
2
-4
1
4
7
11
3
3
2
3
-2
-4
8
12
4
2
6
1
-10
-3
5
1
-2
1
4
-1
2
0
2
-3
-6
-7
1
6
-3
-1
-3
-3
-8
3
5
-1
4
6
-7
1
6
3
-1
-1
-2
-1
2
6
10
15
18
10
1
2
7
6
6
1
6
6
8
4
0
3
3
4
6
8
8
0
1
4
1
-2
-8
-5
9
7
13
9
6
3
-7
-1
3
2
12
8
3
1
1
4
3
-1
2
4
6
11
4
4
5
1
1
2
4
4
4
5
6
4
-4
1
-3
-9
-3
6
8
5
6
8
3
-3
-5
-2
-6
3
9
9
-2
-5
-1
0
-3
0
1
-8
-1
-1
7
11
6
0
2
0
1
2
1
-2
2
4
-4
-9
-1
-1
0
0
4
-3
0
1
-6
-7
1
-4
-5
3
-2
-3
-4
4
-2
-9
-6
-16
-13
-6
-6
-5
-1
6
2
4
3
0
-4
6
-4
-10
-6
-12
-3
0
0
-1
-2
-2
-5
-11
-8
4
-3
-7
-10
-10
-13
-6
-3
-1
-2
-2
-12
-6
-9
-8
0
10
1
-3
-11
0
4
-3
2
-2
-6
2
16
16
15
6
-5
-5
-1
2
-1
6
7
5
5
6
2
3
-2
-7
-12
-2
-4
-8
-9
-13
-17
-8
-9
-16
-21
-7
-10
-17
-13
-10
-12
-20
-11
-12
-10
-10
-20
-9
-16
-14
-11
-15
-8
-20
-15
-6
-14
-13
-14
-17
-12
-11
-16
-20
-16
-7
-4
-2
7
-1
3
10
12
-90
-93
-82
-90
-83
-66
-46
-39
-29
-26
-22
-25
-24
-23
-16
-17
-18
-8
-12
-7
-8
-12
-5
-12
-10
-3
0
-7
-5
-9
-16
-17
-11
-8
-7
-1
8
-1
-3
-5
-9
-14
-10
5
5
1
-3
-4
2
-3
-6
-11
-14
-8
-2
-3
-1
-2
-1
1
-3
2
4
1
2
9
11
7
4
3
2
7
5
-8
4
6
5
5
5
7
9
13
18
14
11
20
21
13
17
13
13
16
21
19
19
26
20
23
22
23
22
26
39
40
43
45
45
42
39
39
32
35
48
43
48
53
51
46
46
48
50
48
46
51
54
46
49
45
42
37
34
35
36
29
33
38
28
21
12
6
12
12
9
11
14
6
-9
-12
-6
-1
-2
0
-10
-17
-17
-12
-14
-9
-7
-17
-22
-16
-15
-20
-18
-15
-24
-16
-20
-23
-23
-20
-18
-20
-10
-17
-14
-20
-19
-21
-21
-17
-23
-23
-16
-17
-16
-14
-19
-31
-28
-22
-15
-17
-15
-18
-20
-20
-20
-26
-30
-18
-15
-12
-14
-19
-22
-26
-26
-23
-19
-21
-26
-20
-15
-16
-11
-18
-15
-20
-23
-8
-23
-17
-10
-20
-15
-19
-15
-24
-23
-20
-16
-6
-3
-21
-21
-19
-18
-14
-12
-21
-24
-9
-9
-12
-17
-15
-15
-20
-17
-14
-11
-21
-9
-1
-21
-21
-17
-14
-9
-15
-22
-22
-13
-11
-15
-8
-6
-18
-13
-19
-20
-16
-14
-22
-14
-10
-11
-19
-23
-15
-13
-9
-10
-13
-10
-18
-15
-20
-11
-11
-18
-18
-15
-22
-16
-16
-26
-15
-7
-11
-17
-13
-14
-15
-8
-5
-12
-13
-16
-18
-17
-11
-13
-8
-16
-16
-22
-17
-13
-21
-20
-10
-11
-20
-21
-12
-22
-14
-15
-11
-12
-8
-19
-16
-12
-14
-19
-12
-14
-19
-18
-16
-16
-19
-25
-10
-12
-7
-15
-15
-7
-14
-17
-19
-18
-19
-18
-16
-21
-23
-22
-13
-10
-21
-25
-16
-14
-10
-9
-11
-20
-12
-12
-8
-9
-9
-21
-15
-8
-16
-15
-17
-13
-13
-8
-9
-6
-3
2
-2
-3
-6
-17
-13
-3
3
-3
-3
-17
-16
-14
-8
-9
-2
-4
6
3
-2
-14
-7
2
-4
-6
-7
-6
-12
-20
-17
-19
-20
-19
-14
-13
-15
-16
-18
-12
-21
-17
-11
-9
-7
-11
-14
-9
-13
-21
-17
-20
-20
-9
-5
-12
-18
-21
-15
-13
-18
-12
-12
-10
-19
-17
-14
-7
-3
-1
0
-11
-8
6
20
29
32
41
40
42
44
49
45
45
38
19
-6
-26
-60
-77
-86
-80
-90
-81
-78
-71
-52
-44
-36
-27
-29
-20
-25
-15
-18
-17
-11
-9
-11
-14
-13
-18
-14
3
-4
-10
-11
-12
-12
-3
-1
-4
-2
1
-9
-8
-3
-4
-9
-8
-4
-5
-3
1
0
6
0
-5
-1
0
0
-8
-4
7
6
1
8
0
2
4
2
-5
-3
9
10
1
3
-3
-5
3
5
2
11
11
8
8
9
4
1
17
17
17
19
20
18
7
14
17
11
13
9
14
20
24
24
25
22
17
28
31
33
32
42
37
29
29
33
37
38
45
42
43
49
54
51
46
44
44
45
53
55
52
53
52
54
47
40
47
49
51
50
43
39
33
36
35
24
10
15
26
19
14
15
11
9
12
14
-3
-3
2
0
9
4
-1
-1
-7
-9
-13
0
-6
-14
-4
7
-5
-6
-14
-13
-12
-10
-9
-2
-4
0
-8
-13
-8
-16
-19
-13
-7
-17
-14
-14
-13
-17
-13
-3
-7
-8
-5
-14
-15
-8
-7
-12
-6
-11
-15
-7
-10
-12
-16
-1
-9
-11
-9
-13
-10
-10
-10
-12
-8
-8
-7
-6
-8
-17
-17
-11
-12
-15
-10
-16
-11
1
-4
-5
-9
-14
-10
-12
-4
4
-2
-2
-5
-10
-8
-12
-16
-13
-1
-2
-4
-5
-1
-4
-3
-7
-11
-11
-10
-14
1
-1
1
-6
-11
-8
-7
-3
-5
-4
-10
-9
-6
-1
-7
-9
-14
-6
4
1
-3
-4
-9
-8
-13
-9
-15
-12
-5
-5
-6
-1
3
4
-4
-5
-4
-11
-10
-1
0
3
-4
-10
-5
3
-4
-12
-3
-8
-4
1
-3
-7
-9
-7
-4
-6
-8
-13
-2
1
1
-6
-4
-3
-15
-9
-5
-4
-2
3
2
0
-5
-7
3
-4
-5
-4
-4
0
-1
-6
-3
-9
-11
-4
-5
-4
-7
-6
-1
-13
-2
0
-6
-8
-3
0
-3
-2
-8
-16
-12
0
-4
2
1
-2
-5
-9
-4
-9
-7
-4
-7
3
4
-2
-3
2
1
-6
-4
-4
-9
4
-3
-3
-10
6
-7
-13
-14
-6
-4
-5
-2
-1
-5
4
-10
-13
-12
-1
2
2
-3
-9
-5
-3
-3
-1
-2
-9
-7
3
6
0
6
1
-7
-9
-10
-7
-10
-3
-3
4
-4
-11
-9
-4
-3
-10
-2
0
-3
-7
3
-2
-10
0
-6
-10
-11
2
-1
-3
1
2
-5
-1
4
1
-1
-4
-9
-1
-9
-4
-3
-2
-3
-2
-1
3
-5
-2
-5
0
3
0
-10
-8
0
-1
4
8
3
-3
-6
7
4
7
9
8
14
19
18
8
2
-2
-3
1
2
16
10
9
8
11
10
14
10
8
2
6
2
2
3
-11
-17
-11
-2
2
5
-10
-10
-5
-6
-6
2
1
2
-1
-8
-4
0
-7
-3
-3
0
2
-13
-8
0
-1
1
2
1
-6
-1
3
-3
-11
0
3
1
2
6
5
11
11
8
11
24
35
39
51
63
57
64
62
59
51
58
52
27
-5
-29
-47
-50
-68
-91
-88
-64
-54
-47
-33
-30
-24
-14
-9
-18
-14
-6
-5
-5
-3
-4
-6
-8
-1
2
-3
0
6
10
-3
5
-1
4
5
-1
1
-1
6
7
4
10
7
6
5
1
3
11
10
3
2
4
4
14
13
6
4
15
9
19
13
11
12
14
15
3
6
9
11
12
10
19
18
10
13
14
16
16
17
12
13
13
11
18
19
17
20
24
19
24
30
27
22
25
27
18
25
29
30
34
43
45
38
31
35
34
41
46
53
45
50
42
46
45
50
57
64
60
55
56
62
60
55
45
55
66
68
63
63
56
53
59
58
45
45
55
57
50
47
46
38
32
27
29
22
20
32
21
23
17
13
11
6
5
0
2
8
6
8
7
10
6
-1
0
0
-7
-2
-5
-2
-5
-1
1
1
-7
-13
-10
-9
-10
-3
0
-6
-11
-9
-12
-9
-7
0
2
-5
-15
-7
2
0
-7
-10
-8
-2
2
-9
-4
-4
-10
1
-6
-6
-1
11
4
-4
-23
-26
-11
-2
-5
-2
2
1
-15
-11
10
-3
-4
-10
-8
-7
-2
-14
-24
-16
-9
10
11
12
10
17
-8
-13
9
8
3
8
13
12
10
-7
3
28
25
-6
-23
-12
13
25
17
17
19
22
6
-2
21
30
7
26
25
18
37
38
36
35
35
37
47
46
52
42
50
33
15
22
43
54
48
47
59
76
56
46
42
51
58
44
51
53
55
62
86
98
98
72
74
77
76
78
55
55
92
79
84
84
97
99
73
67
61
72
64
64
68
59
103
116
146
134
126
98
98
86
94
90
92
106
88
101
98
94
89
114
134
157
82
61
57
57
80
106
136
130
140
152
139
118
129
118
117
130
114
91
116
123
133
123
105
113
113
128
145
137
114
114
117
136
112
116
119
115
138
158
128
103
93
123
109
84
99
129
137
109
106
98
135
123
128
158
104
109
114
121
131
157
140
145
149
128
104
101
90
142
162
135
112
150
147
116
135
150
150
144
103
98
116
108
98
113
152
196
174
130
122
129
176
108
82
127
130
114
113
124
159
170
163
144
154
153
148
143
147
137
138
134
166
179
169
158
162
176
141
164
173
143
123
158
159
145
151
173
218
227
198
165
179
197
183
174
195
167
167
180
174
197
163
162
178
211
196
189
198
183
183
194
227
182
175
201
189
207
201
188
195
198
194
195
190
205
215
213
216
198
200
188
214
185
184
191
201
204
214
216
223
211
207
211
208
198
196
192
215
211
207
212
207
202
211
213
217
210
205
198
205
212
212
208
207
209
210
215
202
215
215
216
222
214
207
211
213
207
207
201
205
207
207
224
223
218
224
221
215
217
225
232
212
223
213
212
226
219
212
212
229
218
221
223
226
231
231
229
232
221
216
217
208
210
214
212
216
209
211
221
210
209
212
215
222
218
225
215
210
211
223
220
213
205
212
219
223
216
207
214
220
215
216
220
208
219
219
221
229
224
216
222
218
212
213
216
227
225
210
211
221
227
239
244
261
266
267
264
267
269
263
256
258
264
229
207
176
143
131
126
117
121
133
146
160
177
183
185
177
185
194
191
192
188
195
208
206
203
202
201
191
195
200
203
202
215
213
211
200
201
205
220
200
202
208
214
204
204
199
197
199
201
198
194
192
194
196
195
202
209
207
199
193
190
193
195
196
190
194
202
199
190
194
197
199
201
200
207
207
200
195
199
199
195
204
212
206
205
211
203
198
204
205
201
204
204
203
207
202
200
201
198
209
209
218
214
209
212
215
212
210
213
216
217
218
217
217
225
226
225
222
226
229
224
221
226
221
227
238
233
226
230
230
233
229
229
230
223
222
217
212
212
216
206
207
202
197
193
193
186
182
188
187
183
179
185
175
171
171
162
161
151
144
149
152
157
162
166
165
153
143
140
150
149
152
149
161
154
151
145
146
153
150
144
151
145
139
148
149
144
146
144
144
149
148
147
147
145
138
133
143
143
142
146
144
142
141
141
134
133
142
139
142
143
147
142
134
138
134
132
140
142
135
125
137
142
140
151
143
129
132
128
129
139
136
134
131
133
133
131
129
132
129
136
137
138
133
129
129
117
123
127
132
135
138
131
135
136
130
126
125
124
126
136
140
130
131
128
122
125
127
125
126
128
135
128
122
120
125
125
122
123
125
119
129
125
122
117
108
108
111
113
124
127
118
123
115
122
112
118
123
123
118
116
110
117
120
115
109
109
117
118
107
114
111
119
123
117
112
115
119
110
110
114
118
117
115
113
107
107
108
114
111
115
116
115
115
114
97
103
108
100
101
114
109
114
118
110
104
111
109
104
108
108
103
98
105
111
106
105
108
107
102
106
106
107
109
112
106
100
104
106
109
112
107
105
99
102
100
102
98
96
102
103
98
105
103
96
96
96
100
102
93
99
100
101
99
96
101
98
90
94
99
101
100
94
100
104
96
97
94
89
91
100
97
101
101
99
92
85
87
93
97
95
92
81
90
88
87
92
88
89
97
101
94
87
89
91
91
90
86
91
91
84
86
91
93
86
84
86
93
86
94
93
86
89
93
82
88
96
94
91
92
86
90
92
89
77
77
80
82
87
91
93
91
91
92
88
85
88
81
82
84
79
83
89
89
80
83
85
86
79
86
87
91
99
85
76
86
79
84
88
81
84
84
86
84
76
80
87
86
84
89
90
90
87
80
80
86
89
91
87
88
83
78
93
92
88
89
92
89
85
89
92
87
92
96
91
92
92
87
85
90
95
82
82
81
70
75
77
70
75
83
76
74
75
71
70
79
76
71
79
75
74
65
71
71
73
80
75
71
77
78
77
73
76
71
75
80
79
71
67
71
75
74
74
63
63
73
87
86
85
83
86
94
95
108
118
129
127
126
136
136
137
124
122
125
96
67
34
7
16
9
-11
-8
2
5
21
32
42
54
52
51
54
56
59
61
62
65
69
74
77
69
68
66
76
74
75
78
71
73
80
81
88
82
76
71
76
80
71
72
77
74
78
67
76
75
78
72
65
76
98
84
74
72
73
71
82
78
73
77
81
76
74
81
79
81
88
79
70
78
89
83
78
75
71
74
85
80
91
96
94
87
93
88
77
82
97
97
85
86
92
102
99
89
90
91
97
99
96
98
98
94
103
114
112
107
107
111
113
116
119
124
115
112
110
114
118
121
120
128
131
125
126
125
122
118
125
129
127
123
118
118
114
111
108
109
109
96
91
92
92
87
88
83
74
75
75
70
68
71
75
81
75
71
62
55
59
58
58
62
55
54
57
64
59
49
52
46
51
63
57
50
46
52
47
49
49
42
50
61
55
47
47
51
43
59
51
42
45
47
42
47
50
47
49
52
48
46
46
57
51
47
49
47
38
45
48
55
53
54
46
44
49
44
42
48
47
42
43
46
51
48
46
40
43
46
48
43
50
56
46
42
47
42
45
47
48
48
54
55
54
51
53
46
41
45
47
50
53
52
50
46
45
45
39
43
39
42
50
54
50
45
53
47
41
50
39
42
41
45
49
47
54
44
40
47
46
49
47
45
44
40
38
43
53
46
44
42
54
53
47
46
44
43
42
44
41
36
42
45
35
41
39
46
48
43
37
39
43
45
43
40
36
42
47
47
44
44
34
40
40
48
39
40
40
39
32
33
48
47
40
39
32
35
42
41
37
40
41
37
41
52
40
38
35
38
40
40
49
48
42
40
38
42
34
31
29
40
49
44
41
35
34
29
37
37
38
42
46
37
36
36
34
27
36
46
35
37
37
32
40
43
35
37
41
35
31
35
44
30
32
39
36
40
44
37
31
41
46
38
40
37
31
30
25
32
33
36
34
42
42
33
27
28
35
36
33
32
37
39
35
39
35
39
38
35
32
42
37
28
28
37
30
26
35
37
41
40
35
32
22
24
31
36
32
33
34
39
33
33
41
35
28
37
31
36
40
39
29
31
31
32
27
27
35
34
32
32
36
45
42
40
37
46
34
31
42
44
33
38
41
41
43
44
32
39
42
43
37
37
43
41
42
45
46
49
50
51
47
52
45
38
36
35
31
26
33
31
31
28
26
24
23
22
31
32
40
34
31
28
39
36
30
25
30
29
38
35
34
29
28
25
36
37
26
28
24
31
21
32
31
26
29
36
28
23
30
37
38
38
45
42
46
53
61
68
80
92
93
98
102
95
86
83
81
73
51
18
-11
-29
-42
-49
-45
-52
-42
-26
-9
0
-6
6
13
17
17
16
19
20
33
34
33
40
34
22
30
32
26
29
40
39
33
32
32
28
37
34
31
39
43
40
39
42
40
29
35
37
33
39
41
38
40
35
33
41
46
39
36
41
44
43
40
37
37
38
43
43
42
43
45
45
49
44
44
44
46
50
47
46
49
49
47
47
43
42
42
43
58
64
65
50
55
63
60
54
56
52
63
64
67
56
60
71
75
77
80
76
73
72
87
86
86
86
82
85
78
77
80
89
90
86
89
96
92
95
93
91
86
86
90
96
89
91
80
76
80
73
67
86
77
70
67
63
52
54
58
53
51
50
47
42
40
41
44
41
39
26
29
30
31
25
27
24
28
35
23
18
23
24
19
20
22
24
18
21
27
27
25
14
14
25
23
17
27
18
15
17
21
16
24
28
25
19
12
17
22
19
19
24
23
17
18
15
20
20
19
15
15
21
18
12
12
8
17
21
21
19
22
21
16
14
16
11
23
24
23
20
20
19
16
17
27
22
18
22
18
12
22
24
22
16
20
21
20
20
13
18
28
21
24
19
20
23
26
20
18
13
19
22
21
19
20
20
25
24
14
15
14
15
15
25
22
21
18
22
19
19
26
28
24
15
15
16
14
19
18
16
21
25
24
14
20
17
14
19
21
23
26
15
18
19
19
19
20
17
23
24
18
24
23
17
12
11
20
14
11
12
17
18
18
15
22
21
23
13
15
21
17
22
25
20
22
12
13
18
11
12
19
17
16
19
14
8
13
16
19
18
25
22
16
17
7
11
16
19
18
16
24
16
13
19
18
14
19
13
10
9
18
14
20
20
16
17
8
7
11
18
23
16
12
16
18
16
16
11
10
12
11
12
18
17
17
13
8
9
13
19
17
16
12
10
9
11
21
10
14
20
14
17
13
17
11
10
11
9
12
16
9
11
12
18
11
12
15
24
14
15
8
6
8
14
11
18
17
7
10
13
15
15
6
5
14
12
8
14
14
20
15
11
15
13
9
10
10
7
9
15
20
19
17
20
15
17
13
10
23
17
14
19
20
15
15
19
9
-2
10
14
15
18
14
22
25
24
8
11
17
23
28
16
15
15
12
16
18
15
17
22
25
25
19
17
18
21
24
20
19
20
22
20
25
28
27
19
17
14
27
32
14
8
7
-5
8
4
5
4
18
21
12
17
11
8
4
10
11
9
11
5
4
9
22
24
8
1
9
17
14
11
10
5
3
1
7
10
7
6
13
10
14
13
16
16
23
25
13
17
32
41
51
55
58
66
72
83
77
65
69
80
58
16
-13
-32
-47
-52
-71
-77
-65
-59
-45
-31
-26
-25
-13
-11
-9
-2
0
2
6
10
7
3
9
7
5
7
16
13
13
11
14
15
14
15
10
16
17
16
15
19
15
15
24
21
13
14
12
17
20
20
14
4
13
20
19
24
29
16
24
24
12
21
17
20
24
29
34
26
22
23
20
26
21
27
25
30
32
23
24
32
29
28
27
25
22
31
37
37
36
38
41
37
38
32
32
47
42
44
49
48
39
37
35
51
61
54
55
62
67
62
59
59
67
70
66
62
66
73
72
73
66
75
76
64
71
82
86
86
73
74
74
74
64
65
67
70
67
67
65
59
51
43
45
43
45
45
38
38
37
35
17
19
23
21
20
19
24
20
18
19
14
14
9
9
15
9
9
-3
1
1
6
7
11
3
6
15
11
3
7
6
3
7
10
11
0
6
3
8
8
-1
3
2
-3
-15
0
1
-2
2
4
4
10
12
10
1
2
4
5
9
1
4
-4
3
4
-3
7
8
3
6
15
13
4
4
-8
-2
1
8
10
8
12
10
6
8
-3
0
-1
16
12
7
3
-4
5
14
11
7
15
14
13
10
14
15
15
9
13
17
17
14
7
10
14
7
12
11
8
11
13
12
10
11
5
1
6
5
5
9
14
16
12
4
11
11
4
7
7
10
14
14
5
10
7
5
1
12
6
13
19
19
10
6
11
7
4
6
6
5
10
7
14
22
20
10
11
6
3
6
6
2
8
8
6
3
6
-2
-6
7
16
21
17
11
12
4
9
12
8
15
14
5
4
7
2
5
6
12
10
2
12
7
0
0
-3
6
4
0
8
18
14
7
5
8
5
5
4
4
4
8
3
1
1
3
2
6
9
5
13
21
4
2
9
10
3
-1
3
4
7
12
10
12
8
2
-1
5
10
12
8
12
4
9
9
4
0
8
6
0
-7
9
16
3
9
13
4
6
8
7
6
8
7
6
8
8
5
1
3
8
12
9
8
8
10
7
13
11
-1
0
9
14
3
2
9
2
-2
5
4
4
-1
13
12
15
13
15
9
12
10
-1
0
4
11
13
6
9
1
-1
6
5
10
10
8
14
11
7
4
10
13
5
13
9
5
8
6
10
2
4
7
8
14
15
12
11
7
8
18
10
4
3
16
23
17
16
13
14
12
10
12
18
18
25
19
21
28
25
11
18
15
17
24
27
27
16
12
7
7
8
16
6
5
11
15
8
9
4
7
8
2
4
15
5
5
5
14
4
0
8
9
6
14
9
9
10
7
0
-2
-1
0
2
5
14
16
20
23
12
1
0
11
12
8
10
24
22
24
19
32
44
52
64
73
75
70
74
75
59
68
58
26
-6
-31
-45
-63
-74
-78
-79
-66
-50
-43
-28
-20
-10
-4
-7
2
-1
-4
-4
-2
14
24
11
9
2
5
8
9
4
3
9
13
19
14
14
15
10
10
6
13
14
20
20
22
21
17
21
7
9
8
15
23
14
9
12
16
18
17
10
11
18
21
14
11
20
18
18
20
16
17
23
20
21
16
15
18
19
14
23
22
30
35
22
26
26
16
30
36
31
25
33
32
27
24
33
37
37
38
42
46
44
46
37
38
43
39
40
53
46
50
59
66
60
61
61
53
53
58
56
58
66
65
68
71
63
64
66
69
70
73
73
65
67
63
57
61
48
40
43
51
52
42
37
47
38
27
28
24
17
17
20
27
22
19
13
11
14
3
2
4
9
1
-1
-1
-1
-5
-6
-9
3
5
-1
-6
-1
-2
-3
-1
-8
-2
-11
2
-2
-4
-5
5
4
-6
-7
-6
-3
-1
0
1
-9
-8
-7
-5
-11
-9
-10
2
-11
-9
-4
-7
-13
-13
-8
-2
-9
-9
0
-2
0
-1
-3
-8
-7
-9
-9
-3
-8
-7
-12
-4
-3
-5
0
-3
-13
-5
-4
-3
-2
0
-7
-8
2
-9
-15
-11
-3
2
-4
-1
-10
-9
-11
-13
-7
-1
-3
-2
-5
-2
-6
-4
-4
-7
-10
-4
6
-3
-4
-4
-3
-6
-10
-6
-5
-2
-2
-3
-1
-4
-7
-9
-3
-6
-3
-1
-4
-3
-9
-9
-5
-6
-11
-12
-8
-1
2
2
-3
-10
-11
-2
-5
-9
-8
-11
-4
-1
-3
-5
-5
1
3
-5
-7
-5
-7
-12
-8
-6
-13
-8
-9
-8
-1
-2
-7
-3
-4
-10
-13
-4
-6
-6
-3
1
-6
-5
-8
-15
-11
-9
-13
-16
-3
2
2
1
-7
-8
-2
-8
-7
-10
-1
-5
-7
-9
-10
-15
-12
-9
-7
-7
-4
-2
-8
-6
-2
-6
-6
-10
-10
-9
-3
-6
-4
-9
-3
-5
-6
-6
-10
-14
-5
-6
-2
-8
-4
-10
-8
-7
-2
-6
-3
-1
-7
-3
-9
-6
-3
-1
-14
-16
-3
2
0
-9
-8
-6
-7
-3
-7
-10
-4
-4
-7
-1
-4
-7
-2
-7
-10
-6
-5
-9
-15
-12
-4
-5
-14
-11
-5
4
2
-5
-4
-5
-6
-16
-4
-4
-9
-7
-1
-14
-5
-4
-7
-1
-10
-14
-8
-7
-4
-7
-4
-2
-2
-1
-6
-6
-4
-4
2
5
0
-3
0
4
11
11
-3
-4
2
2
13
9
2
5
5
6
11
5
0
-1
2
15
12
5
2
4
7
5
-5
-4
-5
-1
-5
-14
-6
-4
-6
1
2
-4
-6
1
-6
-7
-15
-11
-10
5
-1
-9
-14
-11
-8
1
-3
-3
-4
-4
-10
-7
-4
-5
-7
-6
-6
-11
-2
1
-5
-8
-5
-6
-1
3
4
4
7
18
26
33
41
55
48
54
64
65
57
55
48
49
19
-2
-34
-59
-66
-81
-90
-80
-79
-68
-55
-46
-42
-36
-25
-22
-15
-5
-10
-16
-7
3
-5
-8
-5
-3
0
3
9
-2
1
7
2
6
2
-1
1
7
6
-1
-1
4
5
7
-1
-1
1
-1
1
10
18
8
2
2
6
8
9
11
8
9
8
9
11
11
11
6
8
21
21
17
12
10
13
21
14
4
13
15
14
15
23
16
9
16
16
28
30
20
26
23
22
23
27
19
26
25
26
31
36
42
39
37
36
32
40
39
50
56
43
52
57
58
57
51
54
57
57
62
68
71
70
53
61
67
66
61
73
70
64
68
73
66
74
68
64
61
65
59
61
57
47
43
43
44
39
40
43
40
31
30
24
25
25
25
21
24
26
24
14
6
9
3
10
13
8
12
18
7
1
-1
-2
7
11
8
-3
2
8
2
4
2
6
3
4
4
5
4
3
5
16
12
3
3
0
-2
-6
8
9
13
10
3
8
8
8
10
-1
8
8
8
11
2
-1
1
-1
0
6
15
6
4
-2
4
9
7
10
8
7
14
11
2
9
17
3
2
18
11
8
13
17
4
5
3
12
18
15
16
18
20
15
11
10
15
12
10
14
8
11
13
9
17
11
9
12
12
13
13
19
25
23
18
11
1
8
15
18
15
17
20
19
19
19
15
12
7
20
14
17
28
18
27
19
13
8
17
15
22
20
19
10
14
25
11
14
19
16
18
21
22
18
17
18
17
16
19
17
17
15
16
15
12
15
13
11
14
28
18
20
19
22
14
18
17
10
21
26
21
15
25
23
12
10
10
12
18
20
12
14
12
21
23
22
23
18
15
19
18
23
21
27
34
21
13
23
21
17
19
19
12
16
16
24
15
12
14
16
23
21
22
20
19
19
7
19
24
28
24
25
23
22
17
21
11
15
16
10
18
39
31
29
20
25
22
22
24
20
18
21
26
16
15
18
13
14
18
21
25
30
34
19
24
21
17
28
18
19
23
25
29
17
18
11
22
26
20
18
24
19
23
20
13
6
25
33
33
20
22
28
27
19
23
17
13
20
19
16
22
34
30
27
25
14
18
24
24
28
27
29
29
29
32
26
29
28
25
22
32
35
36
38
43
40
38
36
32
28
35
32
34
38
42
36
33
34
25
29
42
46
52
39
31
32
23
24
27
18
22
30
29
23
18
15
23
22
23
25
30
33
28
19
24
20
23
22
19
19
24
23
23
17
23
20
16
22
24
18
26
32
31
27
30
19
28
30
31
33
39
35
41
34
49
57
65
79
89
98
103
101
94
97
90
83
58
26
-17
-39
-39
-55
-74
-72
-62
-58
-39
-18
-13
-15
2
7
9
5
21
13
17
29
22
32
33
31
29
34
33
24
27
32
35
31
38
33
34
40
34
35
38
40
36
35
43
44
49
44
43
34
41
42
36
36
43
49
42
47
48
42
42
48
46
49
50
55
58
54
44
48
52
51
46
55
66
55
50
64
58
53
53
53
51
60
70
66
61
66
61
70
61
60
61
72
77
73
75
80
70
77
80
70
59
72
87
101
93
91
94
94
95
104
105
103
100
102
106
106
97
100
110
114
115
111
105
108
112
108
109
120
123
121
110
106
105
104
94
97
99
102
96
92
90
94
87
72
68
67
60
69
62
62
59
54
49
52
48
49
49
48
44
36
38
43
36
25
32
31
19
32
36
22
29
41
34
31
33
32
30
28
27
26
31
34
46
34
27
20
18
19
21
27
29
29
28
28
32
28
13
29
25
28
27
30
18
15
24
29
26
27
25
19
28
32
27
31
30
23
25
25
25
23
33
27
27
33
30
29
26
25
26
19
28
29
26
32
30
28
29
25
26
28
28
32
33
31
26
14
29
36
27
26
35
33
29
22
25
19
28
30
19
34
36
36
29
25
28
28
32
29
26
25
31
31
26
35
33
30
29
26
27
24
27
33
28
31
32
25
28
31
35
31
30
32
29
32
27
24
31
25
25
22
31
33
26
21
26
27
28
29
31
29
31
32
29
25
23
27
35
36
34
26
21
23
32
27
29
26
36
32
23
24
33
35
32
27
32
24
23
22
24
27
25
24
36
34
21
20
25
25
25
30
31
32
28
24
23
26
36
23
20
29
37
28
23
32
24
27
29
25
26
30
30
32
26
30
31
32
32
33
26
33
35
39
31
25
28
35
38
44
41
43
40
42
38
40
40
46
43
33
42
53
51
49
48
40
45
42
37
43
43
49
38
32
32
21
16
26
23
32
25
31
33
23
21
32
26
25
23
27
29
26
21
19
31
22
16
23
27
29
24
29
30
32
29
24
23
32
29
29
24
27
24
27
26
35
39
35
33
43
59
77
76
87
91
103
102
108
101
91
88
94
58
23
-7
-45
-54
-65
-83
-77
-77
-60
-41
-32
-17
-10
-6
-5
0
9
26
26
23
22
20
22
26
23
21
24
28
24
31
33
21
26
30
29
29
33
43
43
39
30
33
23
33
36
35
23
30
31
32
31
36
29
41
38
42
41
41
37
39
37
40
40
39
43
43
38
40
43
43
42
40
41
47
49
43
47
47
43
52
57
51
47
50
52
51
59
58
52
60
59
47
52
64
69
67
68
66
64
72
72
73
69
71
75
77
84
99
85
82
90
101
89
92
100
98
105
114
107
106
101
108
109
107
102
107
111
114
112
110
105
104
100
103
105
97
93
92
85
91
89
84
79
80
73
62
59
63
58
52
50
39
36
39
36
38
39
37
29
30
35
20
22
28
27
25
24
28
26
25
19
14
12
18
14
12
20
22
27
19
23
17
12
10
13
13
13
21
14
8
16
8
14
7
12
7
6
16
18
19
16
10
5
9
20
17
16
16
20
19
8
4
11
18
11
13
21
19
22
17
15
6
14
14
2
23
15
22
18
15
9
1
6
10
6
13
27
15
9
12
12
17
19
5
10
25
28
10
19
8
3
6
7
12
12
17
23
27
19
16
16
6
19
22
12
14
19
12
16
15
19
6
11
21
16
17
20
15
17
21
12
8
16
18
16
18
26
19
19
23
20
17
22
16
13
19
24
22
20
9
17
25
25
21
14
21
21
15
16
13
19
14
21
26
21
18
16
17
20
30
29
21
19
19
22
23
24
23
22
26
21
22
16
25
21
29
25
24
24
18
18
33
30
25
28
21
25
34
43
37
31
30
36
33
31
29
35
39
37
27
30
31
42
40
34
40
43
42
46
39
36
46
52
45
40
50
47
38
42
39
33
36
35
31
29
32
29
30
33
29
18
22
26
23
31
30
31
33
40
32
29
36
35
30
33
29
28
24
27
26
30
45
39
41
44
41
36
42
43
39
41
40
46
49
50
46
48
49
63
77
92
100
114
120
125
132
133
127
115
114
87
58
19
-13
-13
-34
-43
-46
-32
-30
-27
-8
13
28
40
42
46
47
54
50
51
55
57
65
73
67
75
71
76
71
73
76
73
78
88
79
69
77
87
89
93
96
93
90
90
87
88
89
93
96
101
101
100
100
104
105
102
103
102
91
100
98
100
101
106
113
112
115
113
116
116
114
111
111
118
112
118
125
128
117
130
130
124
125
129
128
133
135
134
140
145
146
148
154
162
159
148
152
152
144
149
150
158
162
166
162
171
185
175
167
169
166
175
180
174
179
185
187
181
179
181
179
183
190
199
205
205
193
186
185
189
178
167
180
195
197
189
157
143
151
162
157
143
147
148
134
134
137
127
119
128
123
108
122
122
113
110
102
87
93
99
92
82
93
94
95
90
82
80
79
76
76
69
76
82
79
83
83
79
81
84
71
73
80
86
81
71
76
79
80
71
72
72
79
71
71
73
77
70
73
76
73
69
77
73
63
66
77
66
61
47
47
66
97
73
79
75
67
61
72
72
68
73
78
74
66
73
77
72
70
70
70
78
70
76
67
68
71
66
68
70
67
67
78
75
72
70
62
59
63
71
72
71
73
72
67
68
67
68
67
75
69
61
65
69
69
64
63
61
66
70
68
64
60
65
75
70
73
64
61
57
61
68
73
72
72
66
63
63
68
65
59
67
68
56
60
69
59
62
62
61
70
70
69
65
68
73
74
71
55
52
49
61
71
67
70
68
66
60
69
64
59
60
58
59
66
66
59
58
63
59
65
67
67
64
71
62
57
62
64
67
63
73
66
67
62
72
67
66
71
70
73
82
69
64
62
59
61
68
70
70
72
66
64
70
68
66
70
73
70
73
67
63
61
54
55
54
52
55
57
61
65
55
51
49
49
52
55
61
60
61
59
56
60
57
63
54
48
54
55
48
53
62
55
62
55
50
51
57
54
50
61
65
70
68
68
68
84
68
86
90
103
111
106
112
107
107
102
105
103
95
61
40
14
-2
-6
-15
-22
-23
-18
-7
16
23
30
30
33
23
33
45
43
44
48
44
41
50
49
48
46
53
47
43
53
50
49
51
55
45
49
45
42
44
51
48
46
52
61
48
51
43
42
39
51
48
45
50
50
40
47
53
51
41
51
50
54
43
45
49
47
41
36
41
48
48
43
54
45
35
47
49
45
55
56
49
43
44
48
41
53
60
47
51
55
52
50
62
61
52
50
49
52
61
67
68
64
69
67
65
61
67
68
71
84
69
69
72
76
69
79
78
75
82
76
78
82
78
76
74
74
79
84
85
84
76
82
73
68
65
61
65
65
66
63
50
48
49
44
41
43
40
34
39
34
32
34
28
21
23
28
16
21
29
22
16
20
18
18
14
11
14
14
15
16
17
16
20
17
19
13
6
8
19
7
9
17
16
17
13
17
12
12
16
12
13
17
22
14
12
6
11
7
20
16
8
13
14
14
12
12
15
11
14
13
11
18
16
14
21
24
20
25
17
20
16
17
25
25
20
29
20
21
27
25
27
29
33
29
34
27
31
35
33
29
37
35
27
30
23
24
25
38
41
41
42
33
35
25
35
36
35
35
43
32
34
37
39
26
30
34
39
42
44
38
35
40
43
31
29
29
28
38
39
38
40
44
35
37
38
35
34
35
36
39
35
41
39
45
34
24
36
46
50
35
38
40
41
31
46
47
34
38
46
44
36
40
37
44
48
41
43
52
50
51
46
43
43
46
59
52
44
44
46
57
55
45
38
34
36
38
36
34
43
44
35
38
28
41
31
39
41
38
51
39
38
38
26
29
31
33
35
34
36
35
33
28
28
38
41
38
35
36
37
38
40
29
33
39
32
29
26
39
45
39
37
33
37
42
42
50
72
84
78
73
77
73
71
79
71
58
56
34
12
-7
-11
-30
-44
-41
-39
-25
-15
-1
1
5
15
13
14
19
17
23
30
33
27
16
26
34
32
30
34
37
40
37
36
32
29
31
34
48
44
29
27
36
34
30
33
29
34
41
33
31
35
36
39
31
37
34
38
38
35
31
40
38
34
39
38
37
38
32
34
38
46
40
40
39
34
35
38
35
32
48
48
47
44
36
38
39
44
42
45
50
46
46
48
50
50
52
53
47
47
49
53
52
62
58
57
59
64
65
65
63
72
71
72
70
73
69
69
84
76
69
77
82
78
78
75
81
82
79
78
80
86
82
73
69
74
63
63
61
58
62
58
52
53
55
45
44
46
39
34
34
34
32
27
28
25
21
22
19
22
25
32
23
21
24
19
14
18
17
12
21
22
14
19
19
12
10
10
18
17
16
16
14
15
15
9
10
16
17
12
21
17
6
10
10
7
7
7
15
13
17
18
12
7
9
9
7
5
4
6
16
13
15
14
9
13
9
8
7
2
13
20
14
15
15
8
8
1
4
4
14
21
19
22
23
9
3
10
5
8
16
11
14
13
13
11
7
3
13
16
20
11
8
6
9
4
10
11
9
11
12
11
14
19
15
11
14
14
10
7
15
10
6
10
11
7
11
7
7
12
18
16
11
7
5
11
20
7
7
13
12
8
15
16
11
3
6
5
10
20
19
17
13
10
10
7
11
16
16
18
13
10
8
11
9
17
20
10
11
20
22
18
21
16
12
17
18
13
15
21
28
23
25
29
23
19
18
8
15
19
19
13
14
10
4
9
12
8
14
19
14
13
11
12
12
9
5
11
5
6
17
13
6
8
6
7
9
10
15
16
8
15
11
12
7
8
8
14
16
19
19
11
10
17
9
19
30
25
23
23
28
36
44
55
62
68
65
66
71
77
69
62
69
60
30
6
-24
-45
-53
-54
-69
-66
-39
-28
-26
-10
-7
-8
-1
7
8
2
-3
3
7
15
14
15
20
26
22
12
10
11
19
23
24
14
9
15
17
18
23
14
14
24
19
20
28
25
22
23
21
15
21
21
18
19
29
26
26
19
27
25
22
19
27
23
25
24
24
19
23
25
34
28
22
26
28
23
22
28
33
29
29
29
34
33
34
35
33
36
37
26
33
35
32
37
41
39
41
48
45
45
46
41
41
48
53
57
54
54
55
51
54
56
63
65
66
61
62
69
68
63
66
68
70
69
75
79
74
65
65
62
69
71
55
55
66
62
54
58
45
43
47
42
37
45
48
39
34
34
32
28
20
18
11
18
25
21
19
18
16
16
15
12
12
20
18
14
16
14
8
4
7
12
8
11
15
16
9
11
3
5
11
4
4
14
19
11
5
8
10
11
8
1
-1
11
12
10
7
12
9
9
11
14
11
11
8
7
13
15
8
4
5
7
3
15
19
10
9
12
6
5
8
3
13
20
-4
3
11
14
10
14
4
5
5
16
9
1
7
19
10
4
1
6
14
25
18
5
10
14
11
14
11
8
7
12
21
13
12
11
8
9
7
8
7
11
10
14
10
7
11
14
12
7
10
20
17
14
12
9
-1
6
8
6
14
15
16
20
16
10
12
13
11
5
11
17
14
14
10
10
10
11
9
11
19
19
13
10
10
12
9
8
2
8
12
9
15
17
11
7
11
9
9
12
15
15
15
10
10
12
11
9
9
4
13
15
10
9
9
8
11
17
16
6
8
14
18
13
7
7
8
11
8
11
15
13
14
8
13
11
5
3
5
9
15
9
10
13
14
14
5
5
7
10
17
10
11
11
8
1
13
11
8
10
13
8
7
5
11
10
13
11
11
8
13
9
15
16
14
9
10
5
5
13
16
14
10
12
13
6
12
8
10
8
7
16
14
16
8
-3
-1
13
6
