-94
-86
-85
-86
-85
-90
-91
-90
-89
-86
-85
-89
-95
-95
-91
-90
-93
-91
-95
-94
-91
-89
-90
-90
-89
-88
-89
-87
-88
-85
-88
-91
-92
-89
-85
-91
-93
-90
-87
-89
-89
-92
-92
-94
-91
-92
-91
-82
-85
-89
-91
-89
-91
-88
-90
-94
-87
-88
-88
-88
-91
-96
-89
-83
-87
-88
-93
-91
-87
-90
-89
-87
-91
-91
-91
-90
-88
-79
-85
-87
-89
-92
-89
-92
-95
-95
-83
-83
-91
-90
-91
-89
-85
-88
-89
-90
-95
-88
-91
-90
-94
-87
-86
-91
-88
-89
-84
-86
-90
-85
-89
-90
-94
-89
-94
-92
-89
-86
-85
-80
-83
-83
-81
-78
-69
-74
-74
-72
-66
-73
-75
-74
-77
-76
-75
-73
-75
-74
-79
-80
-85
-87
-88
-88
-85
-89
-86
-90
-95
-94
-92
-89
-91
-94
-96
-87
-87
-94
-87
-89
-93
-92
-88
-91
-95
-88
-88
-90
-93
-94
-99
-110
-124
-136
-137
-135
-125
-104
-83
-67
-44
-23
-7
8
24
42
61
80
81
96
95
94
79
34
-54
-109
-116
-113
-101
-111
-104
-94
-89
-90
-88
-88
-87
-87
-89
-88
-97
-95
-95
-91
-89
-97
-88
-89
-84
-86
-93
-92
-90
-90
-86
-92
-89
-85
-85
-92
-89
-85
-90
-86
-85
-91
-88
-84
-87
-88
-84
-85
-90
-89
-90
-88
-84
-81
-83
-83
-83
-86
-87
-82
-84
-77
-79
-81
-84
-85
-84
-83
-81
-81
-77
-78
-79
-78
-77
-84
-85
-82
-86
-84
-83
-84
-79
-78
-79
-81
-78
-82
-80
-81
-78
-77
-80
-81
-80
-83
-81
-76
-78
-83
-82
-80
-76
-77
-77
-78
-81
-77
-81
-84
-83
-75
-75
-76
-76
-79
-80
-83
-83
-78
-77
-78
-75
-78
-83
-79
-81
-81
-82
-79
-82
-83
-86
-83
-77
-82
-82
-81
-87
-83
-78
-85
-87
-87
-90
-87
-84
-83
-84
-86
-89
-94
-90
-88
-88
-90
-87
-86
-87
-88
-90
-88
-84
-88
-85
-90
-91
-83
-85
-87
-89
-87
-90
-88
-83
-84
-84
-84
-86
-88
-89
-89
-80
-82
-83
-87
-91
-85
-85
-87
-90
-88
-87
-85
-78
-83
-89
-92
-89
-87
-84
-85
-84
-85
-91
-91
-89
-87
-83
-84
-87
-85
-88
-85
-83
-84
-90
-86
-92
-89
-90
-84
-80
-79
-84
-89
-92
-86
-87
-88
-85
-83
-85
-86
-91
-91
-87
-87
-82
-84
-85
-88
-88
-84
-87
-89
-86
-88
-89
-85
-86
-86
-78
-80
-89
-90
-87
-90
-86
-87
-83
-84
-86
-84
-86
-83
-86
-89
-93
-91
-85
-83
-82
-88
-87
-85
-85
-87
-91
-86
-79
-81
-84
-94
-90
-90
-89
-85
-85
-83
-80
-81
-85
-83
-84
-86
-87
-87
-83
-81
-80
-82
-82
-77
-74
-74
-79
-75
-71
-65
-62
-65
-64
-71
-70
-66
-70
-72
-73
-73
-73
-75
-79
-85
-79
-84
-85
-87
-86
-83
-86
-87
-82
-82
-87
-91
-84
-82
-84
-82
-80
-81
-79
-81
-82
-84
-89
-85
-81
-83
-86
-88
-96
-109
-112
-127
-128
-123
-110
-86
-69
-48
-22
-12
7
20
33
45
71
89
102
105
103
86
66
8
-87
-117
-112
-102
-98
-90
-85
-86
-88
-78
-79
-81
-83
-80
-83
-80
-82
-86
-89
-90
-86
-83
-83
-85
-84
-82
-81
-82
-82
-85
-76
-80
-85
-83
-78
-78
-83
-84
-78
-75
-77
-76
-81
-82
-78
-81
-79
-74
-74
-78
-75
-76
-79
-75
-77
-76
-77
-77
-74
-75
-78
-77
-76
-76
-75
-73
-73
-75
-73
-72
-75
-74
-70
-71
-73
-75
-74
-73
-75
-73
-70
-72
-73
-70
-68
-70
-72
-77
-75
-73
-77
-73
-75
-67
-71
-69
-73
-71
-75
-69
-70
-68
-68
-67
-73
-75
-72
-68
-72
-74
-70
-69
-71
-73
-68
-61
-67
-67
-71
-73
-73
-66
-71
-75
-69
-67
-72
-71
-74
-78
-71
-69
-74
-72
-75
-81
-80
-68
-73
-79
-77
-75
-76
-78
-78
-80
-79
-73
-78
-78
-78
-78
-77
-77
-76
-75
-79
-83
-83
-83
-80
-80
-79
-79
-78
-82
-82
-85
-83
-74
-76
-76
-78
-76
-77
-74
-77
-78
-77
-80
-80
-74
-76
-78
-71
-74
-82
-81
-79
-78
-78
-75
-72
-78
-83
-82
-78
-77
-79
-78
-81
-79
-79
-78
-80
-81
-80
-77
-77
-74
-75
-77
-81
-82
-73
-76
-76
-77
-74
-77
-80
-80
-77
-80
-79
-82
-77
-82
-76
-79
-77
-75
-77
-84
-80
-74
-80
-80
-75
-77
-78
-77
-76
-77
-77
-76
-76
-82
-79
-78
-76
-76
-76
-73
-75
-76
-82
-80
-78
-79
-77
-78
-77
-78
-77
-81
-78
-73
-78
-75
-78
-79
-78
-75
-75
-75
-75
-76
-77
-78
-75
-76
-82
-75
-75
-75
-75
-75
-73
-67
-64
-63
-63
-60
-56
-62
-61
-60
-60
-60
-60
-61
-60
-61
-68
-66
-72
-75
-71
-71
-80
-78
-76
-81
-83
-78
-81
-80
-83
-78
-73
-72
-79
-75
-79
-82
-82
-77
-80
-80
-83
-81
-71
-72
-76
-83
-85
-93
-110
-118
-121
-123
-112
-94
-73
-55
-31
-17
8
27
34
49
68
85
92
107
110
103
85
45
-42
-99
-109
-105
-103
-94
-86
-82
-79
-75
-74
-69
-71
-69
-71
-68
-72
-82
-83
-79
-77
-83
-81
-75
-77
-79
-83
-80
-75
-72
-71
-70
-69
-67
-68
-75
-78
-78
-78
-75
-76
-76
-71
-68
-70
-75
-78
-70
-72
-68
-73
-66
-66
-72
-74
-71
-68
-70
-76
-71
-64
-69
-66
-68
-66
-67
-73
-74
-71
-67
-66
-65
-65
-67
-71
-70
-67
-67
-68
-68
-70
-65
-69
-67
-69
-69
-61
-67
-66
-66
-65
-65
-65
-64
-65
-67
-63
-62
-68
-70
-64
-64
-64
-65
-65
-65
-64
-63
-69
-67
-66
-66
-66
-65
-66
-62
-63
-62
-61
-69
-67
-64
-61
-66
-67
-69
-69
-69
-70
-68
-65
-65
-69
-68
-69
-69
-71
-66
-70
-75
-70
-72
-69
-74
-76
-76
-79
-75
-76
-75
-75
-73
-72
-72
-72
-76
-80
-84
-76
-71
-75
-74
-79
-74
-75
-77
-77
-76
-75
-76
-73
-75
-73
-69
-66
-71
-76
-74
-77
-76
-75
-69
-77
-76
-74
-67
-72
-76
-72
-72
-78
-76
-71
-74
-70
-71
-64
-74
-81
-77
-70
-71
-73
-75
-71
-74
-72
-73
-76
-75
-75
-73
-69
-74
-70
-72
-77
-72
-75
-78
-77
-79
-74
-70
-76
-70
-70
-67
-74
-74
-74
-73
-75
-76
-75
-78
-79
-76
-73
-70
-72
-73
-73
-73
-73
-75
-75
-72
-72
-75
-70
-72
-73
-78
-80
-76
-67
-71
-70
-74
-72
-73
-68
-75
-74
-77
-79
-73
-72
-68
-66
-71
-73
-68
-71
-71
-66
-67
-63
-58
-52
-50
-51
-55
-60
-62
-58
-55
-55
-56
-56
-61
-62
-69
-68
-74
-77
-72
-73
-67
-72
-75
-76
-70
-72
-74
-76
-76
-74
-73
-75
-72
-71
-77
-78
-76
-79
-74
-73
-74
-75
-74
-73
-79
-89
-95
-107
-116
-121
-112
-98
-81
-64
-43
-20
-3
21
34
47
58
77
94
105
108
106
101
79
8
-76
-104
-104
-96
-95
-91
-81
-76
-73
-69
-68
-66
-69
-68
-75
-80
-75
-75
-79
-78
-73
-74
-73
-72
-77
-67
-70
-73
-74
-74
-77
-73
-71
-70
-70
-71
-73
-72
-72
-70
-70
-67
-70
-67
-70
-70
-69
-64
-63
-70
-68
-67
-65
-71
-68
-69
-65
-68
-63
-68
-71
-65
-60
-59
-68
-66
-63
-66
-69
-65
-60
-64
-67
-66
-58
-59
-65
-63
-60
-58
-62
-60
-66
-69
-65
-60
-62
-64
-65
-60
-58
-59
-59
-61
-60
-61
-64
-61
-60
-59
-58
-60
-61
-58
-59
-61
-68
-60
-63
-59
-59
-62
-64
-59
-64
-61
-57
-55
-58
-61
-56
-62
-58
-64
-67
-69
-70
-65
-69
-65
-63
-63
-64
-69
-71
-70
-69
-70
-72
-71
-66
-64
-73
-75
-75
-76
-76
-76
-77
-77
-74
-72
-66
-66
-73
-80
-81
-71
-65
-72
-72
-73
-70
-75
-82
-75
-71
-71
-76
-73
-71
-75
-73
-76
-70
-67
-70
-78
-74
-62
-71
-79
-71
-70
-74
-76
-73
-71
-74
-72
-70
-72
-70
-62
-71
-73
-68
-72
-77
-72
-74
-72
-74
-75
-70
-67
-68
-70
-76
-72
-64
-69
-73
-75
-75
-70
-72
-72
-77
-69
-67
-71
-69
-76
-73
-72
-73
-72
-70
-68
-71
-71
-67
-71
-72
-73
-78
-72
-72
-71
-76
-75
-68
-71
-68
-70
-70
-77
-74
-68
-66
-66
-68
-69
-68
-68
-74
-70
-64
-64
-71
-75
-74
-71
-64
-62
-65
-64
-61
-53
-50
-48
-51
-56
-52
-52
-53
-53
-56
-57
-59
-59
-56
-58
-67
-70
-68
-72
-70
-71
-67
-75
-70
-77
-76
-70
-74
-78
-71
-69
-72
-70
-78
-73
-70
-69
-72
-72
-69
-71
-72
-73
-71
-76
-84
-99
-110
-122
-113
-105
-94
-73
-58
-40
-22
-3
15
32
48
66
82
105
106
110
115
103
76
14
-70
-105
-104
-100
-92
-86
-83
-74
-71
-70
-63
-62
-67
-70
-67
-72
-74
-75
-72
-73
-73
-69
-71
-72
-76
-73
-73
-68
-65
-70
-74
-70
-66
-70
-74
-68
-65
-71
-69
-66
-69
-67
-60
-69
-65
-66
-67
-70
-70
-66
-63
-67
-60
-61
-60
-67
-63
-68
-68
-62
-64
-62
-58
-59
-62
-66
-64
-62
-63
-59
-60
-62
-60
-61
-62
-64
-61
-60
-56
-58
-57
-56
-59
-55
-60
-65
-59
-58
-59
-62
-56
-56
-51
-58
-62
-58
-57
-55
-60
-60
-56
-53
-57
-57
-55
-61
-65
-59
-55
-55
-52
-51
-58
-56
-60
-58
-57
-56
-58
-57
-59
-62
-59
-58
-63
-61
-60
-61
-59
-62
-59
-64
-66
-66
-67
-72
-68
-66
-69
-68
-67
-60
-66
-70
-69
-69
-70
-69
-69
-77
-74
-66
-65
-65
-72
-74
-74
-72
-66
-66
-69
-70
-69
-70
-71
-69
-65
-72
-72
-71
-71
-61
-60
-67
-71
-69
-70
-70
-69
-67
-69
-68
-68
-72
-71
-72
-67
-68
-66
-68
-69
-68
-67
-67
-69
-66
-70
-70
-64
-68
-63
-62
-66
-73
-72
-68
-61
-67
-68
-69
-68
-65
-63
-67
-70
-70
-73
-69
-64
-64
-65
-69
-72
-70
-69
-70
-73
-69
-65
-63
-66
-66
-70
-71
-73
-73
-71
-68
-61
-61
-61
-66
-67
-70
-66
-70
-71
-68
-56
-64
-71
-70
-70
-67
-69
-66
-65
-65
-65
-67
-64
-59
-56
-55
-57
-56
-47
-47
-49
-45
-48
-49
-51
-47
-45
-57
-60
-59
-66
-69
-64
-61
-59
-65
-65
-67
-73
-70
-65
-68
-71
-69
-71
-68
-70
-68
-68
-65
-69
-71
-69
-63
-68
-73
-67
-68
-71
-67
-73
-76
-90
-100
-115
-111
-108
-96
-77
-53
-29
-13
5
26
39
47
71
87
100
116
118
116
110
80
5
-80
-103
-100
-92
-90
-83
-72
-60
-63
-69
-67
-65
-65
-67
-69
-63
-69
-72
-70
-67
-69
-61
-65
-69
-67
-66
-67
-68
-71
-70
-68
-72
-66
-64
-62
-65
-66
-64
-64
-64
-67
-67
-63
-61
-57
-64
-70
-65
-57
-64
-61
-59
-63
-65
-58
-61
-56
-63
-66
-61
-54
-58
-61
-60
-58
-57
-57
-61
-62
-60
-57
-57
-55
-60
-61
-58
-56
-59
-61
-61
-54
-57
-53
-54
-57
-56
-60
-54
-52
-54
-56
-57
-51
-54
-51
-51
-50
-55
-53
-54
-52
-58
-58
-51
-50
-52
-56
-59
-56
-52
-54
-54
-50
-55
-57
-50
-50
-55
-57
-57
-52
-54
-55
-62
-64
-60
-49
-53
-57
-54
-58
-62
-62
-62
-65
-63
-60
-64
-62
-65
-62
-66
-67
-59
-60
-61
-67
-68
-71
-70
-69
-63
-68
-60
-63
-65
-64
-69
-66
-64
-67
-65
-67
-68
-64
-66
-65
-64
-65
-59
-62
-62
-68
-67
-60
-63
-64
-67
-66
-65
-66
-66
-64
-60
-62
-62
-61
-63
-57
-59
-62
-61
-61
-62
-65
-68
-61
-64
-61
-64
-66
-57
-59
-60
-56
-55
-57
-63
-63
-62
-61
-61
-60
-60
-54
-60
-65
-61
-61
-60
-57
-61
-63
-60
-61
-62
-62
-61
-60
-57
-65
-68
-59
-61
-63
-60
-58
-56
-59
-58
-53
-61
-61
-63
-61
-56
-58
-65
-58
-55
-62
-67
-60
-58
-58
-53
-57
-60
-60
-58
-50
-51
-50
-47
-49
-46
-46
-42
-42
-42
-44
-41
-38
-39
-40
-38
-44
-45
-53
-53
-57
-58
-57
-59
-56
-60
-56
-56
-58
-58
-59
-60
-55
-59
-52
-60
-64
-58
-50
-54
-58
-66
-63
-67
-57
-55
-58
-61
-64
-71
-75
-88
-100
-104
-99
-89
-67
-49
-26
-7
17
38
48
50
72
91
107
117
125
133
118
89
20
-74
-101
-98
-96
-95
-88
-80
-68
-60
-57
-55
-53
-58
-64
-65
-60
-57
-56
-53
-48
-56
-61
-59
-56
-52
-57
-56
-56
-55
-59
-52
-58
-56
-57
-53
-51
-52
-48
-49
-53
-55
-53
-55
-50
-50
-49
-48
-54
-52
-48
-45
-53
-52
-51
-33
-37
-55
-52
-43
-39
-45
-45
-41
-43
-43
-49
-49
-42
-41
-39
-38
-51
-43
-39
-43
-39
-39
-40
-42
-41
-42
-44
-44
-40
-36
-42
-38
-37
-35
-34
-37
-35
-33
-41
-45
-36
-31
-35
-35
-36
-35
-39
-37
-40
-37
-33
-33
-35
-35
-38
-40
-41
-37
-37
-41
-37
-35
-38
-41
-39
-40
-43
-42
-40
-42
-47
-50
-50
-44
-37
-45
-53
-58
-53
-52
-49
-51
-53
-53
-55
-59
-54
-51
-53
-47
-50
-51
-49
-48
-58
-57
-55
-56
-49
-54
-61
-51
-53
-49
-49
-49
-58
-61
-58
-55
-59
-52
-55
-52
-53
-51
-53
-50
-48
-48
-50
-55
-56
-51
-49
-50
-54
-50
-51
-53
-48
-52
-49
-50
-51
-47
-47
-54
-55
-51
-49
-51
-49
-47
-52
-51
-51
-50
-51
-52
-52
-53
-46
-49
-55
-54
-52
-53
-53
-52
-49
-50
-50
-50
-53
-55
-57
-52
-55
-57
-55
-56
-54
-50
-50
-56
-59
-58
-53
-51
-52
-52
-57
-55
-56
-55
-51
-57
-54
-54
-58
-62
-54
-53
-50
-47
-53
-56
-59
-50
-43
-40
-43
-40
-43
-40
-33
-31
-31
-32
-32
-40
-38
-33
-39
-41
-42
-46
-50
-46
-41
-38
-41
-48
-53
-44
-51
-55
-57
-54
-53
-48
-51
-54
-53
-54
-55
-59
-60
-49
-54
-54
-53
-53
-48
-50
-53
-55
-65
-69
-74
-78
-91
-97
-85
-70
-65
-35
-17
-1
22
48
52
48
64
90
104
117
122
119
98
61
-35
-97
-100
-94
-93
-87
-78
-69
-64
-59
-56
-55
-53
-53
-52
-49
-49
-49
-51
-49
-48
-52
-55
-54
-54
-44
-52
-51
-44
-41
-46
-46
-47
-49
-57
-52
-54
-51
-49
-47
-45
-48
-43
-48
-47
-47
-40
-45
-42
-46
-45
-43
-43
-43
-40
-40
-40
-35
-40
-39
-44
-43
-39
-38
-38
-35
-35
-36
-39
-36
-36
-40
-39
-36
-36
-34
-31
-37
-35
-28
-30
-36
-39
-43
-40
-29
-28
-31
-30
-29
-30
-31
-31
-31
-35
-37
-33
-24
-27
-30
-27
-27
-30
-34
-30
-29
-27
-29
-27
-24
-20
-26
-31
-30
-29
-32
-30
-31
-35
-31
-32
-30
-34
-33
-38
-41
-43
-36
-38
-37
-39
-40
-45
-49
-48
-44
-39
-46
-48
-44
-45
-49
-48
-44
-45
-51
-49
-48
-50
-44
-45
-52
-46
-43
-45
-48
-52
-50
-48
-46
-49
-52
-45
-47
-49
-52
-40
-37
-44
-46
-48
-44
-38
-40
-53
-50
-43
-45
-42
-47
-47
-46
-42
-44
-42
-48
-42
-39
-41
-47
-47
-48
-47
-48
-45
-45
-40
-45
-39
-43
-40
-41
-45
-50
-45
-46
-43
-43
-45
-46
-47
-46
-44
-46
-46
-41
-42
-41
-41
-43
-46
-45
-49
-46
-42
-46
-43
-46
-46
-44
-44
-44
-44
-47
-38
-30
-39
-45
-46
-48
-46
-46
-41
-44
-43
-37
-32
-32
-30
-32
-32
-31
-31
-33
-34
-30
-25
-28
-34
-29
-32
-46
-43
-44
-47
-44
-44
-43
-47
-42
-43
-45
-43
-49
-53
-53
-50
-46
-42
-39
-45
-54
-51
-48
-49
-46
-46
-51
-50
-46
-51
-52
-55
-62
-66
-76
-80
-88
-78
-71
-57
-32
-12
1
17
46
58
58
69
93
102
105
112
118
112
89
40
-42
-74
-84
-78
-79
-62
-58
-51
-44
-40
-41
-41
-43
-48
-47
-46
-41
-40
-47
-42
-44
-49
-41
-46
-47
-41
-46
-46
-43
-41
-31
-41
-45
-48
-42
-31
-41
-41
-42
-41
-35
-38
-39
-38
-48
-42
-37
-34
-37
-39
-40
-36
-36
-32
-36
-34
-43
-41
-35
-37
-40
-32
-31
-35
-35
-30
-34
-34
-30
-31
-33
-30
-35
-35
-28
-27
-29
-30
-25
-29
-22
-25
-26
-28
-27
-26
-29
-23
-23
-18
-22
-26
-23
-17
-15
-22
-32
-27
-15
-7
-20
-26
-29
-25
-25
-27
-22
-17
-17
-23
-21
-23
-24
-22
-19
-19
-27
-28
-25
-24
-24
-23
-30
-27
-27
-35
-35
-35
-37
-37
-34
-38
-32
-39
-44
-46
-37
-34
-35
-37
-36
-33
-39
-40
-37
-36
-41
-43
-34
-39
-34
-36
-36
-40
-37
-36
-36
-37
-32
-33
-38
-46
-44
-37
-33
-38
-35
-33
-39
-35
-35
-38
-37
-34
-33
-41
-42
-39
-34
-30
-29
-36
-30
-32
-41
-40
-32
-29
-26
-30
-32
-33
-31
-34
-34
-34
-32
-33
-27
-23
-28
-30
-27
-29
-26
-33
-39
-31
-33
-28
-24
-31
-28
-33
-29
-34
-34
-38
-28
-26
-25
-25
-27
-29
-33
-35
-31
-30
-30
-29
-28
-30
-31
-28
-24
-23
-31
-19
-25
-22
-21
-25
-26
-18
-19
-17
-22
-26
-23
-20
-19
-21
-31
-34
-32
-36
-38
-36
-37
-44
-38
-41
-37
-39
-33
-34
-37
-34
-35
-34
-41
-42
-44
-44
-43
-41
-40
-36
-36
-35
-39
-39
-35
-41
-51
-53
-62
-78
-81
-76
-62
-38
-25
-3
12
25
47
63
72
86
94
109
106
115
121
109
75
26
-39
-70
-61
-58
-59
-49
-43
-35
-34
-33
-36
-38
-36
-43
-48
-36
-31
-31
-35
-36
-30
-30
-31
-38
-35
-50
-47
-37
-38
-39
-31
-37
-28
-32
-36
-41
-32
-33
-34
-32
-33
-36
-30
-33
-32
-36
-41
-28
-29
-30
-30
-35
-34
-29
-34
-35
-30
-26
-32
-28
-27
-24
-30
-29
-34
-37
-42
-28
-29
-24
-27
-33
-26
-22
-29
-34
-31
-31
-24
-27
-29
-28
-24
-30
-38
-30
-27
-26
-26
-30
-19
-30
-29
-25
-25
-22
-20
-24
-26
-26
-22
-21
-20
-22
-19
-19
-23
-23
-26
-22
-16
-22
-22
-24
-19
-23
-21
-22
-26
-28
-25
-33
-34
-26
-30
-32
-34
-33
-34
-30
-31
-36
-35
-34
-40
-37
-35
-40
-49
-47
-42
-38
-36
-42
-40
-39
-39
-42
-41
-49
-44
-47
-43
-38
-39
-43
-42
-42
-52
-48
-43
-38
-42
-37
-46
-47
-44
-43
-43
-44
-44
-45
-46
-42
-43
-35
-39
-46
-45
-47
-44
-38
-44
-46
-40
-36
-38
-45
-36
-37
-39
-47
-47
-51
-49
-47
-45
-38
-41
-36
-35
-41
-43
-46
-45
-42
-43
-39
-37
-32
-35
-45
-43
-45
-43
-42
-43
-41
-38
-39
-36
-38
-39
-45
-40
-40
-44
-42
-46
-42
-46
-49
-37
-42
-38
-45
-36
-37
-41
-40
-42
-41
-44
-51
-43
-42
-45
-41
-46
-41
-40
-40
-33
-37
-40
-44
-36
-33
-31
-37
-36
-35
-41
-35
-34
-35
-41
-43
-47
-46
-47
-42
-43
-47
-55
-50
-51
-51
-58
-51
-49
-58
-56
-51
-54
-60
-56
-54
-56
-50
-54
-56
-55
-61
-52
-64
-59
-57
-60
-65
-67
-77
-76
-84
-93
-87
-80
-64
-51
-32
-16
0
21
27
34
45
57
58
78
79
68
56
27
-28
-81
-94
-83
-80
-75
-74
-66
-66
-63
-62
-59
-65
-60
-52
-64
-71
-65
-63
-59
-60
-63
-71
-64
-61
-64
-52
-64
-67
-62
-57
-63
-68
-67
-68
-55
-59
-62
-63
-59
-64
-67
-66
-57
-57
-57
-59
-58
-57
-55
-54
-60
-56
-54
-63
-66
-64
-59
-52
-53
-60
-60
-61
-53
-56
-50
-53
-51
-57
-58
-58
-59
-54
-56
-57
-59
-50
-57
-58
-47
-55
-59
-52
-45
-51
-49
-47
-46
-50
-47
-54
-53
-57
-55
-51
-51
-52
-53
-60
-52
-45
-62
-59
-46
-51
-52
-54
-51
-51
-52
-53
-54
-56
-54
-54
-61
-52
-52
-46
-53
-64
-60
-59
-58
-55
-60
-63
-63
-65
-62
-62
-59
-59
-68
-70
-71
-77
-78
-71
-72
-69
-71
-62
-68
-65
-64
-69
-77
-72
-67
-73
-73
-78
-77
-69
-68
-73
-69
-68
-78
-80
-79
-74
-74
-71
-70
-72
-78
-80
-78
-80
-79
-77
-72
-75
-75
-70
-67
-71
-77
-76
-76
-66
-71
-77
-79
-78
-74
-72
-70
-75
-74
-71
-77
-67
-71
-69
-73
-77
-79
-70
-72
-71
-73
-74
-73
-75
-79
-78
-73
-73
-68
-71
-69
-70
-73
-76
-76
-82
-80
-69
-66
-61
-65
-70
-75
-75
-79
-75
-72
-74
-76
-70
-72
-71
-70
-72
-78
-77
-73
-72
-72
-78
-76
-74
-73
-74
-77
-79
-75
-72
-74
-73
-74
-73
-73
-70
-65
-76
-76
-76
-75
-73
-74
-78
-77
-74
-69
-79
-80
-72
-76
-76
-71
-72
-68
-76
-72
-74
-76
-74
-70
-77
-70
-79
-73
-67
-69
-73
-70
-67
-76
-69
-72
-67
-63
-73
-82
-80
-75
-68
-67
-68
-71
-74
-70
-71
-74
-67
-67
-68
-68
-59
-69
-72
-68
-65
-74
-77
-76
-74
-76
-71
-70
-68
-67
-70
-73
-67
-60
-58
-72
-76
-73
-69
-64
-72
-66
-70
-72
-66
-57
-63
-66
-63
-71
-65
-58
-55
-58
-64
-65
-57
-59
-60
-66
-61
-45
-51
-55
-56
-55
-58
-62
-59
-61
-67
-68
-64
-69
-71
-71
-70
-68
-70
-64
-61
-65
-69
-71
-67
-70
-69
-69
-71
-73
-68
-68
-73
-70
-66
-68
-70
-73
-74
-69
-78
-92
-102
-106
-101
-90
-73
-60
-45
-21
-2
4
18
25
40
47
53
66
79
76
66
45
3
-55
-90
-93
-92
-83
-78
-78
-69
-71
-66
-62
-62
-68
-67
-71
-69
-69
-71
-70
-67
-71
-73
-69
-71
-68
-68
-71
-68
-68
-64
-74
-61
-66
-66
-65
-64
-67
-67
-58
-62
-63
-63
-68
-65
-64
-64
-64
-64
-68
-64
-59
-64
-66
-60
-68
-67
-58
-61
-60
-65
-60
-69
-67
-63
-59
-56
-59
-60
-66
-65
-63
-58
-61
-66
-63
-66
-60
-58
-61
-64
-63
-64
-61
-63
-65
-61
-62
-61
-64
-59
-59
-62
-61
-56
-52
-60
-68
-64
-60
-64
-66
-63
-60
-58
-50
-54
-63
-65
-59
-53
-56
-56
-59
-58
-53
-56
-59
-58
-59
-50
-54
-56
-53
-52
-57
-61
-60
-63
-59
-59
-58
-62
-60
-63
-66
-67
-67
-67
-66
-65
-65
-61
-64
-61
-63
-72
-68
-65
-67
-65
-68
-64
-65
-71
-68
-67
-71
-67
-67
-56
-64
-73
-70
-69
-68
-69
-69
-69
-69
-67
-69
-66
-66
-65
-70
-66
-64
-66
-64
-67
-65
-65
-67
-68
-67
-71
-67
-67
-64
-58
-62
-73
-69
-70
-71
-69
-65
-64
-68
-70
-64
-62
-61
-70
-71
-72
-70
-66
-63
-59
-61
-66
-57
-63
-69
-68
-69
-66
-65
-66
-65
-68
-67
-63
-65
-63
-61
-67
-65
-67
-57
-63
-61
-64
-69
-64
-64
-65
-58
-66
-71
-61
-56
-65
-67
-70
-66
-65
-66
-62
-62
-61
-66
-68
-65
-71
-66
-63
-64
-64
-65
-61
-64
-69
-65
-62
-62
-67
-73
-66
-61
-61
-61
-63
-65
-67
-65
-59
-64
-58
-63
-66
-68
-66
-63
-58
-63
-71
-63
-64
-66
-63
-58
-67
-65
-63
-64
-62
-59
-62
-64
-66
-69
-65
-61
-63
-67
-64
-63
-68
-65
-60
-61
-66
-64
-64
-64
-68
-65
-59
-61
-59
-70
-59
-60
-65
-66
-60
-61
-62
-63
-60
-56
-69
-67
-63
-60
-61
-69
-65
-62
-60
-58
-61
-58
-67
-68
-60
-58
-60
-54
-59
-65
-64
-70
-66
-60
-62
-62
-64
-57
-61
-61
-60
-59
-67
-65
-58
-62
-64
-63
-60
-58
-63
-62
-58
-63
-59
-62
-60
-59
-59
-66
-67
-64
-61
-61
-63
-58
-55
-57
-62
-59
-51
-65
-66
-65
-63
-62
-56
-53
-59
-57
-56
-54
-58
-61
-57
-57
-56
-55
-61
-56
-49
-54
-59
-61
-58
-50
-50
-47
-48
-49
-51
-47
-43
-39
-42
-39
-39
-38
-38
-44
-47
-43
-46
-43
-45
-51
-63
-54
-49
-57
-57
-53
-58
-59
-55
-55
-57
-51
-53
-52
-57
-63
-56
-61
-64
-52
-58
-64
-59
-57
-55
-57
-61
-57
-57
-61
-64
-67
-80
-90
-103
-104
-90
-74
-57
-37
-22
0
21
37
37
51
60
74
90
103
106
97
75
34
-32
-75
-88
-86
-87
-81
-81
-74
-63
-61
-50
-57
-55
-56
-60
-58
-59
-58
-60
-63
-57
-59
-63
-57
-54
-56
-55
-57
-58
-62
-63
-57
-54
-59
-54
-55
-54
-51
-56
-61
-59
-52
-52
-52
-51
-50
-53
-54
-53
-55
-58
-61
-55
-49
-50
-45
-49
-50
-50
-59
-54
-57
-51
-50
-51
-54
-51
-51
-50
-53
-52
-52
-50
-47
-44
-48
-49
-50
-53
-51
-41
-46
-53
-51
-50
-48
-47
-48
-51
-51
-53
-53
-53
-53
-44
-45
-49
-54
-50
-47
-44
-50
-51
-50
-48
-48
-49
-50
-50
-52
-49
-48
-42
-51
-48
-49
-46
-44
-47
-45
-49
-50
-50
-43
-49
-51
-50
-52
-52
-47
-53
-51
-50
-48
-54
-53
-55
-53
-56
-57
-58
-50
-56
-55
-52
-50
-56
-55
-57
-60
-57
-59
-60
-57
-56
-53
-56
-57
-62
-57
-59
-53
-60
-56
-57
-59
-63
-61
-59
-55
-55
-56
-53
-52
-55
-62
-55
-53
-59
-54
-54
-61
-61
-57
-60
-54
-60
-59
-57
-59
-59
-57
-56
-59
-55
-51
-48
-59
-58
-60
-60
-63
-59
-51
-54
-51
-56
-58
-60
-57
-55
-52
-58
-59
-59
-53
-53
-53
-60
-61
-58
-55
-53
-59
-49
-54
-57
-57
-57
-56
-56
-56
-54
-57
-56
-52
-55
-55
-56
-61
-59
-53
-54
-58
-55
-57
-50
-57
-53
-53
-62
-53
-49
-52
-56
-51
-57
-60
-55
-55
-53
-54
-53
-54
-58
-57
-50
-52
-56
-58
-56
-53
-55
-57
-55
-50
-48
-49
-57
-53
-56
-54
-53
-54
-58
-56
-56
-60
-56
-55
-59
-56
-55
-55
-53
-54
-52
-57
-58
-56
-57
-55
-52
-48
-56
-54
-56
-54
-50
-48
-55
-62
-59
-58
-56
-55
-57
-62
-55
-50
-57
-57
-60
-51
-52
-54
-59
-59
-57
-59
-62
-51
-56
-62
-55
-56
-56
-57
-57
-56
-55
-55
-58
-52
-47
-46
-55
-49
-44
-53
-57
-44
-36
-38
-40
-40
-39
-44
-42
-44
-45
-42
-44
-47
-50
-51
-49
-54
-56
-59
-60
-57
-57
-59
-58
-58
-57
-62
-58
-61
-59
-57
-53
-52
-55
-57
-62
-60
-61
-59
-61
-59
-58
-58
-60
-62
-72
-86
-97
-104
-96
-84
-62
-43
-22
-5
11
31
41
49
63
87
94
102
113
112
100
76
22
-62
-90
-91
-84
-81
-74
-75
-67
-62
-60
-53
-55
-55
-50
-54
-60
-61
-54
-58
-60
-58
-62
-61
-64
-55
-52
-55
-55
-53
-57
-55
-54
-57
-57
-55
-53
-51
-56
-54
-59
-58
-52
-53
-48
-49
-54
-52
-52
-49
-48
-53
-51
-52
-49
-51
-49
-53
-50
-48
-45
-48
-49
-50
-45
-50
-49
-50
-50
-52
-45
-45
-45
-44
-39
-48
-43
-46
-47
-48
-44
-48
-43
-49
-44
-44
-44
-47
-49
-45
-41
-33
-44
-46
-44
-41
-42
-44
-40
-41
-41
-39
-43
-42
-40
-39
-41
-42
-44
-45
-39
-39
-39
-41
-41
-38
-36
-36
-40
-42
-41
-44
-40
-43
-37
-44
-46
-45
-50
-48
-49
-52
-48
-41
-41
-50
-50
-53
-55
-51
-52
-54
-51
-52
-47
-53
-54
-57
-61
-54
-56
-55
-56
-53
-50
-52
-55
-62
-58
-58
-55
-56
-52
-58
-57
-60
-55
-57
-56
-55
-57
-57
-50
-51
-53
-58
-57
-58
-55
-57
-56
-55
-52
-59
-55
-54
-56
-51
-53
-56
-56
-55
-53
-54
-55
-55
-50
-52
-55
-57
-54
-54
-52
-55
-50
-51
-55
-55
-50
-51
-54
-51
-53
-52
-50
-53
-54
-52
-54
-50
-52
-53
-53
-52
-57
-57
-55
-54
-56
-54
-52
-50
-48
-51
-55
-48
-56
-56
-56
-53
-52
-57
-48
-48
-53
-58
-53
-52
-55
-53
-52
-48
-57
-55
-53
-49
-52
-57
-58
-58
-56
-53
-53
-52
-49
-52
-57
-51
-49
-55
-52
-57
-54
-52
-53
-51
-51
-54
-57
-55
-52
-53
-57
-51
-51
-55
-58
-54
-51
-50
-50
-53
-52
-51
-54
-52
-51
-55
-58
-59
-58
-50
-52
-51
-53
-56
-60
-59
-54
-50
-54
-51
-47
-49
-57
-57
-55
-55
-53
-52
-53
-54
-52
-54
-55
-50
-52
-52
-53
-55
-46
-45
-43
-44
-41
-39
-40
-34
-38
-35
-38
-42
-42
-39
-36
-37
-40
-39
-46
-42
-43
-47
-53
-56
-51
-52
-56
-62
-59
-51
-52
-54
-50
-52
-46
-55
-60
-53
-56
-56
-50
-51
-55
-55
-55
-55
-56
-52
-60
-63
-70
-78
-90
-101
-97
-93
-73
-45
-27
-6
14
31
49
62
75
88
104
107
120
129
129
108
62
-29
-77
-82
-78
-76
-69
-64
-51
-54
-53
-52
-52
-54
-51
-51
-52
-56
-56
-56
-58
-59
-60
-56
-57
-57
-58
-53
-51
-48
-51
-50
-57
-58
-59
-53
-54
-55
-51
-53
-58
-56
-50
-53
-54
-51
-52
-48
-47
-49
-46
-48
-53
-54
-52
-49
-50
-49
-53
-53
-51
-48
-47
-48
-52
-51
-48
-48
-46
-48
-43
-43
-45
-47
-48
-46
-47
-53
-54
-47
-45
-41
-45
-51
-48
-50
-55
-52
-48
-44
-45
-46
-46
-54
-50
-47
-44
-44
-46
-44
-43
-42
-43
-47
-50
-46
-41
-42
-43
-42
-44
-44
-47
-44
-42
-41
-44
-40
-43
-41
-36
-43
-45
-43
-43
-49
-51
-42
-46
-46
-49
-47
-47
-50
-48
-49
-48
-50
-50
-52
-48
-53
-57
-56
-53
-56
-51
-54
-46
-51
-49
-55
-58
-59
-55
-59
-61
-54
-54
-54
-57
-58
-62
-61
-60
-52
-54
-56
-52
-55
-57
-57
-56
-61
-57
-47
-51
-63
-59
-51
-53
-52
-57
-55
-54
-57
-54
-54
-54
-54
-50
-49
-53
-57
-54
-55
-56
-57
-59
-55
-52
-56
-55
-55
-54
-55
-53
-56
-59
-52
-53
-47
-53
-56
-50
-55
-51
-50
-54
-55
-58
-54
-54
-53
-50
-51
-56
-55
-55
-54
-50
-50
-54
-58
-60
-53
-52
-53
-50
-53
-50
-58
-59
-57
-54
-57
-56
-53
-55
-51
-48
-56
-58
-56
-58
-56
-57
-54
-53
-51
-52
-52
-52
-55
-56
-50
-50
-56
-53
-54
-50
-54
-56
-55
-55
-56
-51
-55
-55
-53
-52
-58
-55
-58
-58
-59
-51
-54
-52
-45
-55
-60
-52
-51
-55
-55
-55
-54
-60
-58
-57
-50
-55
-58
-54
-49
-54
-52
-51
-48
-59
-56
-48
-55
-55
-52
-53
-53
-48
-51
-47
-50
-51
-45
-45
-44
-40
-38
-32
-34
-35
-37
-42
-45
-39
-38
-37
-35
-33
-45
-43
-45
-48
-57
-52
-51
-52
-47
-56
-57
-52
-53
-55
-55
-52
-49
-50
-55
-56
-55
-59
-56
-60
-57
-54
-58
-56
-52
-49
-54
-62
-67
-75
-85
-100
-103
-96
-82
-59
-38
-18
-1
16
32
47
64
85
104
116
125
131
138
133
107
44
-43
-83
-79
-71
-67
-61
-61
-50
-41
-48
-55
-57
-58
-54
-50
-53
-55
-54
-53
-52
-51
-51
-51
-47
-52
-57
-52
-59
-59
-54
-51
-44
-49
-50
-55
-52
-55
-54
-53
-49
-45
-46
-47
-51
-47
-46
-46
-52
-49
-44
-43
-46
-47
-45
-51
-57
-53
-49
-41
-39
-44
-44
-39
-40
-39
-48
-51
-44
-41
-39
-42
-44
-42
-39
-39
-41
-44
-44
-45
-42
-38
-38
-40
-37
-40
-39
-37
-40
-37
-39
-43
-44
-40
-41
-39
-39
-41
-42
-38
-36
-36
-30
-34
-36
-39
-37
-37
-34
-32
-34
-40
-33
-35
-32
-32
-30
-27
-29
-37
-37
-30
-36
-30
-29
-31
-35
-34
-40
-36
-38
-41
-34
-40
-39
-37
-38
-43
-42
-42
-41
-40
-37
-44
-47
-46
-44
-44
-41
-41
-36
-42
-48
-43
-43
-53
-45
-42
-45
-44
-42
-42
-41
-45
-47
-46
-47
-50
-46
-45
-50
-44
-37
-42
-46
-48
-49
-47
-44
-43
-43
-41
-47
-41
-41
-42
-44
-47
-44
-47
-42
-41
-43
-42
-38
-43
-44
-42
-45
-41
-45
-46
-44
-39
-43
-42
-44
-43
-43
-45
-44
-48
-43
-42
-42
-38
-41
-46
-40
-36
-49
-44
-37
-44
-44
-37
-42
-43
-42
-43
-44
-45
-39
-42
-43
-42
-40
-36
-43
-45
-46
-41
-40
-40
-39
-44
-46
-41
-41
-37
-38
-40
-41
-46
-45
-38
-38
-42
-41
-42
-40
-43
-40
-43
-38
-41
-42
-39
-38
-41
-41
-39
-41
-40
-41
-40
-38
-35
-40
-40
-39
-38
-40
-33
-36
-36
-41
-52
-48
-35
-29
-35
-38
-35
-40
-36
-34
-30
-25
-22
-20
-19
-25
-25
-20
-19
-20
-24
-24
-23
-25
-25
-27
-33
-33
-33
-38
-39
-32
-36
-39
-44
-44
-44
-44
-40
-36
-39
-39
-40
-43
-46
-38
-41
-43
-45
-45
-40
-36
-34
-42
-50
-43
-42
-51
-61
-69
-82
-87
-85
-65
-47
-29
-1
17
35
54
67
79
95
112
129
139
145
145
137
112
48
-41
-75
-78
-64
-60
-57
-53
-44
-36
-39
-34
-35
-37
-37
-38
-39
-43
-42
-41
-40
-43
-36
-42
-42
-37
-37
-41
-43
-39
-41
-41
-37
-33
-34
-33
-38
-41
-35
-34
-33
-34
-38
-42
-35
-31
-32
-35
-38
-28
-32
-39
-39
-27
-28
-38
-32
-31
-36
-34
-34
-26
-29
-31
-28
-30
-35
-35
-31
-33
-35
-25
-17
-27
-27
-27
-32
-29
-34
-33
-31
-29
-32
-25
-20
-29
-30
-30
-31
-25
-25
-24
-14
-22
-25
-28
-25
-25
-24
-24
-25
-19
-14
-19
-24
-20
-19
-23
-22
-21
-17
-16
-17
-16
-15
-19
-27
-26
-25
-21
-22
-18
-16
-19
-24
-24
-28
-29
-19
-21
-29
-30
-27
-28
-33
-31
-34
-29
-33
-35
-29
-30
-31
-29
-30
-34
-36
-37
-40
-41
-36
-32
-31
-34
-36
-40
-39
-35
-37
-36
-33
-34
-36
-28
-32
-36
-39
-38
-37
-36
-31
-32
-39
-37
-36
-35
-37
-33
-31
-33
-37
-40
-36
-34
-33
-29
-28
-36
-37
-35
-38
-38
-28
-32
-27
-33
-40
-36
-36
-36
-36
-33
-39
-33
-36
-33
-31
-32
-33
-41
-35
-35
-33
-32
-34
-35
-34
-31
-34
-34
-37
-34
-30
-29
-31
-34
-35
-34
-32
-36
-33
-34
-38
-35
-37
-33
-37
-33
-35
-29
-35
-39
-30
-30
-35
-38
-32
-34
-37
-38
-29
-27
-30
-36
-36
-40
-34
-33
-35
-34
-35
-37
-35
-29
-30
-29
-35
-38
-32
-27
-37
-40
-31
-32
-30
-36
-34
-34
-30
-28
-29
-25
-23
-21
-16
-19
-18
-14
-15
-17
-15
-13
-12
-14
-18
-16
-21
-29
-33
-33
-33
-29
-29
-30
-29
-39
-44
-38
-31
-32
-36
-34
-34
-39
-37
-30
-34
-36
-36
-34
-37
-34
-34
-35
-35
-37
-38
-45
-44
-49
-56
-63
-75
-79
-70
-60
-42
-22
5
25
43
68
73
72
85
103
112
126
135
139
124
80
-6
-70
-81
-79
-74
-72
-68
-58
-50
-40
-32
-33
-34
-32
-32
-34
-34
-33
-34
-38
-36
-38
-39
-35
-38
-31
-30
-29
-28
-30
-36
-32
-32
-38
-37
-35
-26
-28
-30
-28
-28
-24
-30
-27
-27
-29
-32
-31
-28
-24
-25
-25
-19
-28
-29
-32
-21
-18
-22
-25
-25
-22
-19
-23
-25
-25
-26
-26
-20
-23
-19
-20
-20
-19
-26
-21
-17
-12
-18
-17
-15
-18
-19
-17
-15
-16
-17
-17
-15
-10
-10
-12
-12
-16
-14
-11
-8
-10
-10
-9
-9
-8
-9
-14
-14
-12
-10
-5
-4
-3
-6
-11
-5
-2
-9
-11
-12
-12
-10
-8
-13
-10
-13
-14
-16
-19
-18
-14
-18
-28
-23
-23
-24
-23
-25
-25
-24
-23
-24
-26
-26
-27
-28
-30
-30
-32
-30
-35
-32
-28
-29
-36
-28
-31
-26
-29
-30
-28
-28
-30
-30
-33
-24
-29
-35
-29
-26
-31
-32
-32
-28
-35
-31
-37
-34
-27
-27
-23
-25
-26
-28
-33
-31
-28
-27
-29
-30
-28
-28
-28
-25
-28
-28
-31
-30
-29
-26
-28
-24
-29
-28
-24
-25
-27
-27
-31
-29
-24
-26
-24
-26
-30
-29
-26
-29
-29
-27
-24
-20
-25
-28
-33
-27
-24
-26
-28
-26
-30
-35
-36
-24
-25
-25
-26
-31
-21
-21
-26
-31
-30
-29
-26
-27
-27
-33
-31
-24
-22
-27
-27
-26
-30
-25
-25
-22
-23
-25
-17
-16
-21
-18
-16
-14
-10
-9
-8
-7
-9
-10
-10
-12
-10
-13
-18
-18
-21
-23
-19
-20
-24
-29
-23
-24
-26
-29
-28
-27
-23
-30
-29
-30
-25
-30
-32
-32
-28
-23
-22
-28
-34
-35
-29
-23
-32
-32
-30
-36
-37
-51
-61
-64
-61
-51
-26
-4
6
32
45
66
72
72
86
95
111
109
116
130
108
72
-4
-58
-67
-64
-57
-54
-47
-41
-28
-26
-26
-25
-26
-25
-26
-25
-30
-29
-26
-28
-28
-32
-29
-28
-27
-31
-25
-27
-21
-17
-24
-29
-27
-24
-26
-25
-21
-16
-21
-20
-21
-23
-23
-21
-26
-21
-19
-23
-21
-21
-20
-22
-23
-22
-24
-15
-18
-15
-15
-20
-17
-19
-22
-17
-20
-19
-12
-16
-15
-17
-13
-16
-12
-15
-10
-14
-12
-12
-7
-12
-18
-16
-16
-13
-14
-8
-10
-4
-6
-14
-18
-14
-8
0
-1
-5
-4
1
-7
-10
-9
-5
-1
-5
-6
-5
-3
-7
-2
-5
-6
-3
-1
-9
-7
-2
-1
-7
-7
-6
-12
-15
-12
-18
-12
-14
-10
-18
-21
-16
-16
-28
-26
-24
-22
-23
-20
-19
-27
-27
-28
-24
-24
-30
-27
-32
-37
-24
-28
-30
-26
-30
-30
-30
-33
-34
-32
-28
-30
-38
-40
-33
-33
-29
-26
-24
-28
-28
-34
-39
-32
-36
-32
-31
-33
-25
-25
-31
-34
-37
-33
-33
-36
-32
-22
-30
-28
-19
-23
-26
-29
-27
-27
-28
-29
-27
-29
-30
-30
-28
-29
-30
-28
-24
-27
-29
-26
-27
-33
-30
-33
-29
-30
-30
-30
-24
-26
-25
-23
-21
-27
-36
-30
-32
-28
-31
-29
-25
-23
-27
-27
-32
-30
-32
-29
-26
-21
-24
-25
-22
-28
-26
-16
-12
-16
-20
-17
-15
-13
-13
-15
-16
-10
-13
-11
-16
-16
-22
-23
-25
-30
-24
-27
-22
-17
-22
-17
-24
-34
-30
-21
-22
-26
-28
-40
-31
-28
-25
-28
-28
-29
-31
-34
-29
-31
-27
-29
-27
-29
-41
-41
-52
-61
-69
-63
-47
-35
-27
-6
18
37
53
60
69
79
99
104
112
114
119
114
84
39
-25
-57
-66
-61
-52
-40
-35
-28
-23
-28
-27
-24
-21
-20
-23
-29
-31
-30
-26
-28
-21
-29
-31
-30
-23
-19
-23
-24
-27
-28
-21
-21
-22
-23
-24
-27
-23
-29
-26
-17
-21
-17
-26
-15
-21
-17
-21
-27
-22
-23
-18
-13
-12
-14
-18
-16
-23
-18
-16
-11
-11
-15
-15
-16
-22
-15
-13
-16
-18
-16
-13
-10
-17
-13
-16
-20
-14
-14
-13
-16
-15
-11
-15
-12
-12
-10
-10
-13
-17
-6
-7
-5
-12
-9
-8
-11
-17
-11
-22
-10
3
1
-4
-11
-4
-8
-4
-2
-2
1
-5
-9
-10
-13
-4
-9
-7
-7
-10
-12
-7
-7
-12
-10
-9
-12
-18
-22
-18
-22
-16
-13
-25
-16
-17
-23
-16
-21
-18
-17
-18
-23
-20
-26
-24
-16
-21
-19
-26
-25
-32
-28
-18
-17
-24
-22
-21
-25
-24
-19
-32
-30
-27
-27
-27
-31
-23
-35
-25
-30
-24
-25
-25
-25
-29
-29
-29
-29
-30
-28
-28
-13
-10
-24
-27
-29
-29
-28
-21
-25
-27
-30
-24
-30
-24
-18
-22
-28
-25
-30
-30
-25
-9
-21
-29
-27
-30
-25
-24
-20
-19
-23
-21
-22
-23
-22
-24
-28
-22
-15
-7
-25
-34
-27
-26
-23
-17
-19
-24
-27
-25
-13
-13
-18
-11
-10
-14
-22
-15
-13
-13
1
-10
-12
-1
-11
-15
-13
-12
-17
-23
-22
-12
-13
-12
-10
-23
-24
-27
-24
-23
-30
-30
-29
-22
-22
-10
-8
-13
-21
-24
-18
-16
-11
-19
-30
-28
-26
-28
-29
-26
-29
-33
-46
-56
-54
-55
-36
-19
4
19
35
55
68
78
75
87
90
102
105
112
119
96
66
10
-46
-52
-44
-45
-40
-33
-24
-7
-20
-16
-12
-17
-16
-22
-21
-19
-23
-29
-21
-24
-17
-20
-19
-18
-24
-21
-17
-24
-20
-14
-20
-14
-18
-14
-13
-19
-18
-12
-22
-17
-21
-20
-16
-13
-15
-14
-10
-19
-21
-19
-16
-15
-15
-12
-21
-10
-13
-14
-13
-12
-11
-16
-9
-15
-13
-18
-17
-15
-14
-17
-16
-9
-12
-12
-10
-14
-13
-7
-4
-9
-20
-15
-9
-7
-9
-12
-18
-12
-9
-15
-19
-8
-8
-11
-3
-7
-11
-11
-3
0
-1
-8
-4
1
3
-7
2
-1
4
0
-6
3
-4
-4
-6
-4
-10
-11
-10
-10
-8
-11
-13
-16
-7
-2
-7
-10
-21
-19
-20
-21
-26
-20
-16
-16
-12
-21
-23
-26
-17
-8
-18
-15
-22
-26
-17
-20
-20
-20
-28
-29
-22
-20
-16
-14
-21
-26
-30
-27
-29
-19
-25
-19
-18
-20
-16
-25
-25
-27
-31
-30
-24
-23
-25
-25
-22
-16
-22
-23
-23
-26
-23
-23
-26
-20
-17
-32
-26
-29
-24
-26
-25
-21
-28
-13
-16
-15
-13
-24
-26
-21
-22
-27
-22
-26
-23
-22
-21
-29
-22
-19
-17
-17
-15
-15
-18
-19
-18
-25
-33
-17
-19
-20
-17
-20
-22
-23
-26
-26
-22
-18
-15
-11
-15
-10
-22
-29
-28
-23
-24
-17
-19
-12
-27
-28
-24
-15
-10
-17
-22
-24
-25
-23
-16
-21
-22
-10
-16
-2
-12
-16
-12
-12
-7
-11
-10
-8
-3
-6
-11
-11
-9
-15
-12
-15
-12
-15
-19
-16
-22
-21
-27
-24
-18
-11
-19
-22
-21
-15
-16
-16
-17
-25
-29
-36
-26
-25
-30
-21
-18
-20
-23
-25
-26
-21
-22
-42
-39
-44
-50
-58
-49
-41
-34
-16
13
25
37
46
69
74
76
75
82
90
100
99
87
64
16
-43
-56
-41
-36
-42
-41
-28
-25
-26
-29
-29
-25
-22
-28
-28
-24
-31
-31
-29
-25
-21
-22
-21
-27
-23
-26
-26
-21
-24
-28
-27
-28
-23
-16
-20
-25
-19
-26
-19
-26
-30
-21
-20
-23
-20
-19
-27
-28
-21
-20
-22
-16
-12
-11
-30
-22
-23
-24
-22
-18
-14
-17
-17
-12
-15
-22
-27
-24
-26
-21
-20
-20
-13
-18
-23
-18
-24
-15
-18
-19
-18
-14
-10
-18
-17
-19
-25
-22
-17
-13
-18
-8
-13
-7
-15
-12
-8
-17
-19
-12
-12
-9
-16
-8
-10
-10
-12
-15
-13
-18
-10
-14
-17
-13
-6
-7
-7
-15
-15
-19
-18
-11
-12
-18
-23
-21
-17
-14
-20
-26
-20
-25
-10
-24
-32
-28
-23
-26
-26
-18
-22
-20
-22
-26
-29
-25
-27
-35
-29
-30
-24
-20
-24
-26
-26
-27
-27
-22
-33
-28
-24
-29
-31
-30
-18
-27
-29
-27
-29
-28
-29
-32
-30
-32
-32
-33
-27
-28
-30
-28
-21
-17
-20
-22
-24
-23
-27
-31
-31
-21
-8
-15
-21
-29
-28
-26
-29
-28
-22
-25
-27
-26
-27
-30
-34
-28
-22
-28
-24
-23
-31
-25
-26
-24
-26
-26
-24
-25
-23
-22
-24
-26
-20
-19
-24
-25
-24
-30
-22
-20
-29
-28
-21
-15
-26
-19
-27
-35
-38
-32
-21
-21
-16
-23
-24
-24
-30
-24
-23
-28
-27
-27
-23
-22
-25
-31
-21
-23
-34
-27
-28
-25
-27
-16
-22
-22
-28
-30
-28
-23
-23
-27
-27
-20
-21
-22
-34
-31
-30
-24
-25
-28
-33
-31
-29
-33
-26
-21
-10
-17
-26
-31
-28
-28
-31
-28
-26
-27
-33
-20
-16
-24
-25
-28
-34
-35
-25
-25
-27
-26
-25
-28
-27
-28
-30
-28
-30
-27
-28
-30
-20
-17
-28
-27
-32
-28
-23
-32
-27
-18
-21
-22
-31
-32
-32
-29
-24
-20
-24
-27
-26
-30
-30
-31
-35
-31
-27
-27
-29
-23
-25
-25
-20
-28
-33
-25
-30
-28
-27
-26
-31
-30
-29
-31
-29
-27
-23
-28
-28
-29
-30
-23
-24
-29
-35
-31
-30
-29
-24
-32
-29
-24
-18
-23
-26
-27
-29
-28
-26
-29
-26
-29
-29
-29
-27
-23
-27
-27
-27
-29
-23
-26
-28
-23
-27
-27
-26
-24
-31
-27
-28
-30
-31
-35
-30
-31
-27
-17
-18
-26
-18
-24
-27
-28
-29
-26
-25
-27
-29
-27
-20
-22
-21
-16
-15
-17
-24
-22
-17
-14
-14
-11
-13
-22
-11
-6
-8
-11
-11
-6
-3
-8
-11
-16
-14
-18
-23
-23
-23
-27
-20
-23
-24
-24
-20
-24
-25
-26
-17
-23
-24
-23
-31
-32
-31
-39
-37
-20
-20
-21
-22
-27
-36
-38
-47
-57
-61
-59
-55
-42
-16
-3
15
28
40
51
70
83
98
106
120
127
129
123
94
63
-1
-44
-48
-48
-45
-45
-42
-35
-34
-28
-26
-28
-25
-24
-25
-29
-32
-33
-32
-31
-25
-25
-27
-22
-25
-27
-24
-29
-34
-29
-28
-24
-28
-29
-23
-21
-23
-18
-23
-25
-24
-22
-19
-11
-18
-25
-27
-26
-25
-22
-23
-22
-16
-17
-22
-29
-28
-22
-24
-27
-22
-18
-19
-20
-22
-23
-23
-25
-24
-25
-24
-16
-14
-21
-19
-20
-20
-18
-17
-20
-16
-21
-21
-21
-21
-21
-18
-18
-26
-21
-20
-21
-21
-25
-26
-26
-26
-23
-23
-16
-18
-21
-18
-17
-24
-28
-25
-25
-22
-21
-19
-15
-15
-22
-23
-21
-19
-20
-24
-18
-12
-11
-1
-15
-17
-22
-21
-17
-17
-17
-21
-20
-25
-17
-21
-14
-19
-27
-25
-18
-14
-18
-21
-21
-23
-26
-26
-27
-23
-26
-24
-23
-21
-15
-25
-27
-26
-29
-24
-19
-17
-23
-28
-19
-18
-20
-21
-28
-26
-27
-21
-23
-25
-24
-27
-22
-22
-30
-30
-22
-16
-20
-20
-26
-23
-23
-26
-21
-21
-24
-20
-19
-17
-22
-20
-15
-27
-24
-21
-29
-24
-20
-18
-19
-22
-25
-19
-26
-21
-18
-18
-25
-22
-18
-19
-24
-27
-22
-22
-26
-29
-20
-16
-23
-24
-24
-24
-23
-26
-20
-19
-21
-25
-22
-26
-25
-22
-23
-23
-21
-26
-24
-21
-17
-22
-26
-25
-21
-16
-15
-22
-21
-19
-28
-26
-24
-24
-27
-23
-20
-25
-20
-24
-23
-21
-25
-26
-23
-23
-24
-23
-24
-21
-29
-31
-29
-16
-14
-18
-22
-21
-22
-23
-19
-22
-22
-25
-24
-24
-25
-18
-22
-28
-21
-21
-21
-27
-21
-27
-24
-21
-22
-22
-24
-27
-25
-22
-24
-18
-20
-21
-20
-29
-27
-24
-21
-20
-31
-23
-20
-18
-21
-26
-32
-23
-18
-24
-20
-24
-28
-18
-20
-22
-24
-22
-21
-24
-26
-21
-18
-18
-25
-21
-26
-28
-23
-19
-20
-17
-19
-19
-18
-21
-26
-27
-18
-19
-28
-26
-19
-23
-26
-24
-25
-20
-23
-23
-23
-19
-20
-20
-19
-23
-21
-25
-26
-20
-21
-22
-17
-22
-21
-20
-15
-12
-17
-24
-24
-18
-18
-19
-11
-9
-10
-13
-9
-4
-4
-4
-7
-8
-6
-8
-9
-3
0
-1
-2
-2
-8
-5
-6
-16
-20
-21
-22
-24
-20
-17
-26
-26
-23
-22
-23
-19
-15
-24
-28
-25
-22
-27
-21
-16
-20
-20
-25
-27
-28
-26
-28
-37
-44
-60
-63
-53
-36
-16
1
20
33
52
72
75
80
94
110
126
133
131
130
110
80
11
-49
-56
-53
-54
-41
-33
-27
-26
-23
-22
-20
-26
-28
-23
-24
-25
-22
-19
-22
-25
-23
-26
-26
-21
-18
-22
-27
-26
-21
-24
-21
-22
-26
-22
-18
-21
-13
-23
-25
-21
-19
-21
-19
-21
-19
-16
-18
-20
-18
-19
-20
-14
-17
-19
-16
-16
-18
-15
-19
-19
-21
-16
-13
-20
-16
-14
-12
-14
-15
-18
-22
-16
-14
-12
-15
-19
-15
-14
-20
-15
-19
-17
-18
-19
-15
-14
-16
-17
-21
-19
-18
-20
-21
-17
-12
-17
-18
-24
-22
-20
-16
-14
-19
-20
-19
-18
-19
-17
-15
-14
-18
-15
-24
-28
-20
-17
-16
-17
-19
-14
-13
-18
-24
-14
-9
-16
-24
-25
-22
-18
-17
-24
-25
-21
-15
-15
-24
-26
-19
-25
-20
-21
-20
-19
-20
-25
-24
-27
-25
-26
-22
-23
-21
-22
-28
-23
-15
-23
-27
-27
-28
-30
-27
-21
-22
-22
-24
-24
-22
-24
-29
-30
-28
-18
-22
-17
-18
-25
-24
-24
-24
-25
-20
-29
-19
-16
-25
-20
-16
-26
-28
-29
-25
-22
-16
-19
-19
-25
-25
-20
-17
-23
-22
-22
-23
-23
-18
-26
-20
-18
-28
-30
-24
-20
-20
-15
-20
-16
-21
-30
-29
-25
-23
-19
-18
-23
-18
-16
-25
-19
-22
-26
-24
-18
-21
-19
-21
-23
-25
-23
-24
-25
-15
-15
-20
-27
-25
-23
-23
-23
-25
-19
-23
-21
-20
-21
-20
-21
-23
-24
-24
-25
-16
-18
-24
-20
-22
-20
-18
-25
-28
-27
-23
-20
-18
-15
-21
-21
-19
-21
-26
-19
-21
-18
-17
-19
-18
-24
-24
-24
-26
-26
-27
-22
-18
-16
-16
-20
-18
-20
-21
-16
-19
-19
-18
-20
-26
-24
-19
-18
-25
-24
-16
-14
-19
-20
-16
-19
-13
-18
-20
-21
-19
-17
-19
-21
-22
-23
-19
-12
-20
-20
-16
-17
-22
-23
-25
-20
-19
-18
-20
-20
-15
-17
-13
-12
-18
-15
-18
-25
-22
-18
-14
-17
-14
-16
-18
-20
-16
-12
-10
-7
-5
-2
0
-1
-3
-3
0
-1
-2
0
-7
6
2
-1
-4
-8
-11
-11
-13
-18
-12
-10
-13
-15
-17
-17
-15
-20
-17
-21
-22
-26
-15
-15
-17
-17
-20
-22
-19
-15
-16
-14
-15
-19
-23
-31
-44
-55
-54
-49
-46
-34
-13
5
24
42
61
81
82
86
112
134
142
151
156
147
129
85
5
-35
-43
-41
-47
-31
-28
-27
-18
-8
-6
-9
-17
-12
-11
-12
-21
-19
-12
-17
-19
-11
-12
-13
-15
-16
-12
-13
-14
-14
-15
-12
-11
-8
-13
-14
-8
-10
-6
-9
-14
-13
-12
-10
-9
-10
-11
-13
-12
-6
-11
-12
-13
-7
-9
-6
-5
-13
-15
-10
-11
-10
-6
-9
-7
-4
-11
-11
-14
-5
-5
-10
-11
-10
-9
-11
-4
-11
-10
-8
-10
-7
-1
-2
0
-10
-12
-14
-15
-14
-13
-4
-9
-12
-12
-6
-11
-8
-7
-5
-12
-6
-7
-12
-10
-9
-17
-8
-9
-7
-7
-5
-5
-3
-6
-7
-6
-9
-6
-6
-6
-9
-6
-3
-4
-11
-12
-13
-11
-11
-10
-12
-8
-8
-13
-11
-12
-12
-13
-9
-10
-13
-11
-15
-18
-17
-20
-21
-14
-17
-17
-17
-18
-17
-16
-18
-19
-18
-21
-20
-18
-16
-15
-21
-18
-19
-18
-19
-22
-19
-18
-19
-16
-15
-18
-21
-23
-14
-12
-14
-14
-19
-21
-17
-19
-19
-15
-17
-18
-18
-10
-13
-16
-14
-15
-16
-17
-15
-19
-17
-13
-12
-15
-15
-12
-15
-21
-18
-15
-11
-15
-12
-12
-14
-12
-14
-18
-17
-18
-13
-8
-8
-13
-14
-19
-16
-12
-12
-13
-19
-14
-15
-18
-14
-12
-12
-15
-14
-17
-12
-10
-13
-9
-16
-17
-14
-15
-13
-13
-14
-13
-10
-11
-11
-16
-15
-14
-14
-14
-17
-11
-7
-11
-13
-8
-10
-14
-17
-12
-12
-13
-13
-13
-11
-15
-12
-12
-12
-12
-12
-13
-14
-13
-11
-13
-14
-16
-14
-12
-14
-16
-14
-9
-5
-13
-13
-18
-18
-18
-7
-6
-6
-2
-8
-9
-5
-7
-9
-4
0
2
4
6
6
4
5
0
4
4
1
0
-5
-5
-5
-9
-9
-10
-14
-9
-11
-10
-10
-12
-12
-10
-9
-11
-14
-11
-12
-17
-15
-6
-1
-12
-15
-19
-15
-12
-15
-13
-8
-19
-26
-31
-49
-63
-53
-40
-27
-1
19
34
58
75
85
96
99
117
132
139
151
154
138
121
73
-7
-43
-41
-36
-33
-30
-23
-19
-12
-20
-16
-10
-9
-8
-13
-15
-8
-16
-19
-16
-18
-12
-13
-17
-16
-13
-15
-17
-11
-12
-11
-13
-9
-1
-6
-13
-10
-14
-8
-11
-11
-13
-9
-10
-6
-4
-11
-8
-4
-6
-13
-13
-5
-5
-12
-6
-5
-6
-7
-8
-9
-6
-3
-6
-5
-3
-6
-8
-5
-9
-12
-3
-1
-4
3
-3
-4
-5
0
-1
2
-4
-4
-1
-11
-6
6
0
1
-4
-7
-6
4
4
4
4
-6
-2
0
7
7
8
3
0
0
5
9
3
3
1
4
9
4
3
4
8
6
4
3
1
3
0
3
10
4
0
-4
-5
-2
-9
-5
-4
-1
3
-4
-5
-8
-12
-11
-11
-5
-6
-8
-11
-10
-12
-9
-7
-10
-13
-12
-8
-15
-12
-8
-8
-9
-11
-14
-15
-10
-11
-8
-8
-8
-10
-9
-15
-17
-19
-11
-14
-17
-18
-17
-7
-8
-13
-11
-11
-8
-8
-10
-7
-12
-9
-12
-11
-9
-6
-14
-12
-12
-12
-13
-10
-8
-7
-6
-12
-13
-10
-2
-5
-7
-14
-9
-11
-14
-11
-13
-10
-9
-11
-8
-8
-9
-17
-11
-14
-16
-10
-13
-13
-8
-4
-13
-13
-7
-11
-10
-8
-10
-13
-10
-10
-14
-17
-17
-15
-10
-9
-7
-15
-15
-10
-8
-9
-13
-14
-15
-16
-16
-14
-14
-15
-18
-16
-17
-19
-16
-12
-9
-12
-16
-14
-12
-15
-15
-15
-14
-13
-15
-18
-18
-10
-12
-14
-19
-16
-15
-14
-15
-6
-8
-15
-16
-21
-17
-12
-11
-18
-15
-15
-15
-15
-11
-11
-12
-7
-9
-7
-8
2
-1
-2
-2
1
-6
-6
2
-2
-7
-16
-12
-9
-12
-15
-23
-21
-18
-20
-22
-23
-24
-26
-24
-25
-20
-20
-21
-21
-17
-20
-18
-17
-19
-20
-23
-23
-25
-23
-26
-25
-35
-44
-59
-67
-66
-57
-39
-19
4
22
39
54
68
83
100
115
128
135
147
151
148
128
96
20
-37
-48
-47
-42
-32
-30
-28
-21
-18
-19
-16
-19
-22
-22
-23
-18
-21
-25
-25
-24
-24
-24
-16
-22
-27
-25
-23
-22
-16
-19
-20
-24
-27
-19
-20
-17
-18
-19
-20
-20
-22
-20
-18
-22
-18
-17
-17
-19
-17
-20
-25
-17
-14
-13
-21
-17
-11
-14
-18
-17
-18
-18
-12
-12
-15
-18
-17
-16
-19
-20
-19
-14
-14
-14
-14
-11
-20
-19
-11
-14
-15
-17
-17
-11
-13
-14
-21
-22
-18
-11
-11
-17
-13
-10
-14
-14
-14
-16
-14
-15
-19
-18
-15
-7
-7
-8
-11
-14
-8
-13
-15
-16
-9
-9
-11
-12
-11
-12
-9
-4
-7
-10
-6
-11
-14
-17
-14
-15
-13
-12
-16
-14
-10
-13
-13
-15
-22
-17
-20
-20
-18
-18
-19
-20
-20
-24
-20
-21
-20
-22
-21
-18
-20
-21
-17
-19
-19
-17
-16
-26
-20
-18
-13
-15
-18
-19
-20
-18
-15
-13
-16
-21
-16
-15
-13
-14
-17
