-8
0
11
23
27
20
16
3
-19
-13
-12
-3
11
28
32
24
10
2
-17
-12
-6
10
16
32
27
20
9
6
-11
-13
-7
8
17
37
32
24
21
10
-11
-8
-5
6
16
33
27
20
16
3
-13
-8
-4
7
12
33
28
24
15
5
-15
-12
-3
11
17
31
30
19
5
2
-15
-17
-7
8
16
35
30
20
11
3
-13
-11
-4
7
14
27
26
20
4
2
-16
-10
-1
7
12
32
28
13
4
3
-17
-17
-9
6
13
28
25
14
-2
-8
-16
-10
1
10
15
34
30
17
6
-7
-22
-13
-4
10
19
29
26
16
3
-11
-19
-9
-3
8
21
30
28
18
0
-12
-16
-13
0
12
24
28
29
21
10
-13
-17
-11
5
14
26
31
21
9
1
-16
-13
-14
-2
13
24
28
21
15
3
-17
-13
-9
-4
3
27
25
18
9
3
-12
-9
-10
9
14
32
29
21
7
-1
-17
-7
-9
4
16
32
29
23
10
1
-21
-15
-3
3
5
25
26
21
11
7
-17
-10
-4
8
15
30
32
25
10
5
-14
-12
-5
12
22
38
31
19
12
13
-5
0
3
16
18
41
41
38
20
15
-1
3
6
15
18
35
33
28
21
10
-1
-9
7
19
21
34
28
14
5
-3
-8
-13
-12
14
24
28
25
16
2
-3
-14
-16
-7
14
18
32
28
20
3
-8
-17
-11
-9
2
7
19
16
6
-3
-13
-3
12
36
67
97
121
135
130
119
95
79
52
53
50
28
11
-20
-38
-48
-60
-54
-47
-33
-17
7
13
14
3
-1
-18
-15
-10
-1
12
30
27
27
12
2
-13
-8
-5
11
21
39
31
32
18
7
-19
-8
-7
6
18
38
34
31
19
13
-12
1
3
12
19
39
40
32
23
14
-10
-3
1
19
22
36
33
29
19
14
-3
-1
11
21
28
49
48
36
24
11
-9
-3
13
26
29
54
51
34
32
25
9
4
17
27
35
54
57
51
38
32
14
14
28
38
48
60
59
47
41
38
22
24
35
50
63
76
70
61
45
42
27
34
44
48
63
81
78
65
46
32
28
33
41
58
71
73
62
58
41
26
16
18
33
39
50
50
40
30
23
6
7
2
12
27
34
37
35
20
9
-7
-8
-7
-3
13
36
31
22
15
9
-11
-7
-6
12
13
24
23
17
10
-4
-22
-17
-5
7
7
31
27
24
7
0
-18
-18
-11
-4
2
25
22
20
10
-2
-23
-14
-2
6
15
32
35
24
18
15
-6
-11
1
10
14
28
29
24
12
4
-14
-13
2
19
20
33
34
23
13
6
-9
-8
-5
4
17
34
36
29
14
11
-11
-3
6
13
26
42
39
22
10
8
-9
-8
4
17
18
34
29
22
10
1
-13
-9
4
13
17
31
29
21
10
0
-8
-6
4
16
25
39
30
21
7
-4
-10
-9
0
15
30
40
37
25
7
-9
-16
-18
-6
11
27
30
26
13
6
-12
-12
-6
5
14
29
33
25
16
-7
-9
-9
-4
7
16
28
34
32
20
12
-14
-8
-6
5
17
37
31
25
12
0
-24
-14
-10
6
16
33
31
29
16
8
-14
-12
-8
9
13
36
28
23
11
7
-11
-8
1
8
16
34
35
27
10
-3
-22
-18
-7
5
14
33
30
26
19
9
-9
-4
2
9
19
34
31
22
11
3
-12
-8
-2
12
21
35
33
25
15
2
-19
-7
-3
8
11
33
32
25
12
10
-10
-7
0
11
24
35
32
20
9
1
-12
-6
8
17
23
38
32
22
10
1
-11
-9
1
14
24
35
39
22
11
-1
-7
0
9
26
26
41
32
30
15
4
-7
-1
9
31
43
55
49
32
21
8
3
0
11
24
40
44
38
23
13
-2
-2
0
9
23
35
39
29
13
4
-19
-15
-3
4
15
41
29
28
23
6
-14
-11
-10
3
17
31
37
29
12
2
-12
-12
-8
6
12
29
21
15
-2
1
-20
-11
6
23
36
84
101
114
113
117
117
114
98
91
79
81
49
18
-15
-42
-63
-54
-40
-24
-11
8
18
10
-3
2
-20
-13
-4
12
17
37
30
22
10
1
-13
-9
0
15
22
37
38
26
19
13
-3
-4
2
19
27
42
42
34
20
16
-3
-7
8
15
28
43
36
22
15
4
-5
2
12
28
37
40
38
33
19
12
-1
5
12
27
35
45
48
32
18
10
1
10
24
35
46
55
52
39
30
18
14
12
26
32
45
60
56
43
33
18
18
18
34
45
61
62
57
46
42
23
26
27
44
61
73
73
68
54
49
33
39
46
59
64
86
79
73
61
55
27
31
40
50
53
74
75
63
51
43
21
25
29
41
47
63
56
48
40
32
16
17
19
32
35
55
45
29
20
15
-11
-6
4
14
22
32
34
29
15
3
-9
-14
-7
9
24
35
34
25
13
5
-11
-7
1
11
9
28
34
19
4
0
-14
-3
2
10
18
38
30
14
4
-2
-16
-13
-6
8
16
36
35
26
14
-3
-12
-4
1
15
27
37
36
22
2
-5
-4
-6
6
17
27
40
30
16
8
-5
-10
-6
4
17
33
32
33
20
8
0
-2
1
10
22
32
31
27
14
7
-8
-10
-2
15
21
37
42
31
19
6
-8
-6
-5
3
17
36
31
28
5
6
-12
-1
-6
9
10
35
32
29
12
2
-10
-7
-2
11
15
28
29
21
11
14
-19
-14
-2
10
18
46
33
22
17
7
-13
-13
-6
13
11
27
24
25
14
-1
-20
-12
-1
10
13
29
32
21
9
7
-12
-14
-3
5
14
31
27
21
11
6
-14
-12
-4
7
18
34
29
16
9
3
-13
-10
-4
5
19
25
23
18
4
1
-15
-15
3
21
25
36
34
19
5
-8
-17
-14
-4
13
22
31
27
19
1
-8
-13
-11
-1
11
27
34
28
22
7
-9
-11
-6
-2
4
20
31
32
16
2
-13
-7
-4
6
16
34
28
24
12
3
-18
-17
-7
4
15
35
36
29
15
6
-11
-8
-4
2
9
30
32
31
16
4
-12
-11
-14
3
17
36
36
35
21
3
-12
-6
-3
11
22
43
48
42
25
18
-1
-3
4
17
23
41
44
32
24
16
-7
-5
4
17
18
38
35
27
16
1
-9
-11
-2
10
15
36
34
19
6
2
-14
-12
-3
17
16
29
31
19
9
0
-16
-14
0
12
16
33
27
18
8
-6
-24
-22
-19
-2
10
21
18
13
14
15
35
53
87
114
143
159
148
130
89
55
37
27
8
0
-17
-22
-25
-31
-40
-46
-45
-34
-21
3
13
22
24
20
8
-10
-9
-8
-4
15
30
34
32
17
11
-3
-7
-5
5
24
34
32
35
19
12
-9
-5
-2
7
14
38
37
33
22
13
-5
3
3
13
23
48
42
29
19
15
-5
2
3
18
30
44
40
43
29
17
-4
2
13
27
33
48
47
34
32
24
-5
5
12
27
34
51
59
46
30
32
15
14
21
36
43
60
55
46
42
41
25
25
30
41
55
72
65
59
46
52
31
32
43
49
57
74
73
67
60
49
37
38
44
59
64
77
76
67
56
46
28
30
41
50
52
71
68
56
41
36
25
19
29
44
51
58
54
39
25
13
-1
7
18
28
36
44
38
24
11
4
-2
-5
2
18
31
21
29
20
8
-10
-13
-9
3
13
33
35
30
17
4
-12
-12
-6
3
17
34
31
25
16
8
-7
-10
-6
4
11
35
30
16
18
11
-7
-9
-5
8
16
35
31
27
13
4
-13
-6
0
6
15
43
33
28
13
15
-5
-4
-1
14
17
37
41
27
21
10
-11
-3
3
12
14
40
40
27
16
9
-10
-5
6
22
21
42
36
23
12
3
-9
-8
1
13
22
36
34
27
8
8
-12
-9
-2
12
23
42
31
18
10
2
-8
-7
5
18
25
39
32
17
7
-4
-8
-10
-1
16
26
37
30
19
9
-1
-8
-14
-2
10
20
34
33
21
4
-11
-17
-6
7
18
30
40
34
20
9
-10
-18
-8
1
14
28
39
32
15
7
-11
-10
-10
6
15
31
31
26
13
9
-8
-8
-9
6
14
33
34
38
15
5
-10
-7
-2
7
12
36
34
33
15
6
-14
-10
-3
7
14
36
34
32
16
6
-11
-9
-2
10
12
28
32
22
5
2
-16
-14
3
12
18
35
35
25
14
10
-12
-7
-7
8
18
33
32
20
10
6
-11
-3
1
9
18
32
33
24
8
9
-9
-5
3
18
25
42
37
24
18
12
-2
4
11
16
27
41
40
25
16
18
2
8
14
25
34
35
34
22
11
1
-9
-14
-5
17
22
38
33
19
5
-6
-17
-17
-4
12
22
36
33
20
4
-9
-19
-16
-4
15
25
32
30
17
6
-14
-16
-14
1
9
21
26
14
2
-6
-24
-23
-7
20
44
69
92
101
111
121
110
98
83
65
57
71
48
26
-18
-45
-65
-59
-50
-34
-27
-10
-12
-13
-13
-19
-32
-25
-13
0
4
32
31
27
16
9
-11
-9
-3
10
14
35
29
21
19
11
-8
-7
-2
14
26
42
40
33
15
7
-15
-5
3
13
17
35
30
21
16
18
-6
-4
9
18
19
43
44
28
18
15
-2
4
15
25
30
47
43
36
22
21
8
6
17
31
31
44
44
38
21
19
10
3
21
33
45
56
50
44
33
21
13
25
36
50
60
68
63
52
40
31
23
31
44
46
60
74
67
56
52
36
37
38
50
55
66
80
71
54
49
35
33
32
43
55
68
76
74
60
45
28
30
33
44
48
59
56
47
34
30
10
12
12
20
23
40
40
35
17
9
-11
-6
0
2
13
32
31
23
13
-1
-20
-20
-10
4
3
28
29
28
16
4
-10
-12
-16
-1
10
27
25
15
0
-10
-25
-23
-10
-1
9
31
31
25
6
-2
-19
-15
-9
-3
8
28
20
19
9
4
-12
-11
-2
11
14
38
35
22
9
-1
-18
-10
-3
9
15
31
30
20
5
-3
-14
-16
-4
6
19
36
35
22
7
2
-18
-17
-9
1
10
20
29
27
14
1
-10
-11
1
11
11
23
26
15
5
-13
-18
-16
-3
15
26
31
26
9
-2
-17
-20
-16
-3
11
28
25
20
3
-4
-20
-18
-13
-5
12
29
30
19
9
-1
-18
-12
-15
-5
8
24
19
20
11
-1
-14
-12
-12
-5
8
26
23
15
5
-1
-20
-16
-22
0
8
28
13
15
9
0
-25
-22
-20
1
6
30
23
15
15
4
-16
-13
-13
-3
9
24
22
13
3
-3
-22
-19
-10
4
9
25
22
12
1
-4
-27
-22
-12
1
4
23
22
14
0
-8
-16
-13
-6
6
9
32
26
18
7
-4
-16
-18
-5
13
14
28
28
17
10
2
-15
-17
0
13
26
40
33
21
12
-4
-3
-2
4
13
19
32
31
11
-2
-11
-16
-19
-5
7
18
31
21
11
-4
-18
-26
-24
-12
4
8
21
16
4
-5
-22
-18
-19
-8
0
21
23
21
4
-11
-33
-25
-18
-2
7
17
9
5
-5
-11
-33
-25
-22
3
23
57
78
92
100
109
97
99
97
88
65
73
55
25
-4
-44
-77
-74
-62
-55
-35
-8
-10
-9
-14
-17
-36
-28
-22
-2
4
31
28
24
13
-4
-31
-23
-14
0
7
28
28
18
9
-3
-20
-15
-8
7
18
31
32
22
8
-2
-20
-20
-6
8
10
23
26
22
9
11
-10
-13
-2
6
19
36
34
23
19
7
-11
-10
-3
13
25
43
39
29
21
15
3
2
11
31
40
51
45
30
16
10
5
7
20
29
49
54
53
38
37
27
21
22
32
48
58
63
59
48
37
18
18
25
44
59
71
66
62
56
43
23
23
28
37
47
67
63
57
47
39
17
17
17
31
39
48
46
45
23
15
0
6
8
13
24
39
38
30
9
2
-15
-20
-11
4
8
25
27
17
4
-1
-15
-18
-15
-4
4
24
22
18
-3
-12
-27
-18
-17
1
7
27
26
20
-1
-9
-28
-20
-18
-8
0
25
25
11
-1
-1
-23
-25
-9
5
5
14
16
11
3
-3
-23
-17
-6
4
9
21
23
17
4
-4
-20
-19
-5
10
15
23
21
17
3
-7
-18
-15
-4
9
13
25
22
12
0
-10
-21
-15
-7
3
17
30
28
16
-1
-17
-17
-9
-4
1
2
30
26
9
-1
-12
-18
-11
-2
4
17
19
18
11
-2
-14
-16
-18
-1
11
16
16
11
-3
-9
-21
-18
-12
-6
14
30
19
14
0
-6
-19
-15
-13
-1
9
26
27
7
-5
-8
-25
-18
-11
-1
2
29
19
12
4
-11
-26
-21
-9
3
4
23
22
11
4
-3
-20
-22
-15
-2
7
26
24
14
3
0
-23
-20
-13
-2
4
28
26
15
5
-4
-22
-20
-10
6
7
31
25
8
-1
0
-31
-27
-19
-7
-3
15
29
14
-1
-7
-20
-14
-5
5
9
21
26
17
-2
-13
-17
-14
-6
6
9
21
19
15
-4
-15
-25
-25
-10
5
14
19
21
12
0
-10
-19
-20
-7
9
22
30
23
7
-2
-12
-25
-15
-5
13
22
24
19
11
-1
-15
-24
-11
3
14
30
29
23
17
1
-14
-10
-3
13
19
33
35
34
24
7
-5
-8
-7
10
24
37
35
28
13
6
-17
-14
-9
2
7
28
24
19
9
-4
-25
-22
-21
-6
0
25
21
17
7
-1
-23
-18
-13
0
4
26
27
25
7
-6
-28
-21
-19
0
3
14
5
14
-5
-17
-29
-30
-16
10
29
62
83
97
105
116
101
104
94
90
66
73
56
26
-14
-43
-72
-73
-59
-42
-29
-8
-5
-8
-14
-13
-34
-25
-5
-1
4
19
14
12
-4
-7
-16
-19
-11
10
18
28
27
12
0
-11
-22
-20
-6
15
26
34
34
27
14
-6
-22
-16
-4
5
21
28
25
22
10
-3
-10
-2
9
15
28
32
28
17
5
-12
-13
-12
1
24
42
44
34
23
16
-4
-4
-1
16
31
45
43
38
20
15
-3
-1
4
19
23
42
42
41
23
15
2
7
14
26
38
56
52
47
35
27
17
19
23
35
39
65
64
60
47
49
25
26
32
45
53
71
70
62
52
42
19
19
27
37
40
55
55
60
48
41
13
15
25
35
44
57
55
40
25
25
-3
-5
4
18
19
40
35
18
9
5
-10
-10
1
12
7
36
33
14
1
-8
-25
-19
-7
6
8
20
24
10
-4
-10
-22
-16
-11
4
13
26
26
15
3
-8
-22
-23
-8
3
13
26
17
7
1
-7
-17
-18
-7
6
11
26
24
15
3
-14
-20
-16
2
14
21
16
18
17
6
-8
-14
-7
6
13
28
31
20
9
3
-13
-10
-14
1
11
29
32
34
23
6
-15
-13
-5
6
8
27
32
19
14
4
-17
-16
-7
0
4
21
31
31
12
4
-15
-15
-3
7
13
33
28
16
1
-4
-22
-21
-11
-1
7
29
30
23
5
4
-17
-13
-6
3
0
24
26
13
9
0
-21
-15
-8
-3
12
33
25
13
4
-1
-19
-18
-9
4
9
29
28
13
-1
-4
-19
-15
-3
8
6
23
17
8
-5
-3
-20
-20
-11
-1
16
26
18
17
1
-6
-20
-16
-8
6
18
31
25
9
-2
-8
-21
-17
-5
4
18
26
26
15
-1
-11
-22
-21
-4
13
16
23
14
7
-5
-21
-26
-21
-9
7
25
30
21
11
4
-11
-15
-16
-5
4
21
22
16
7
-4
-21
-20
-12
-4
10
22
19
14
4
1
-13
-12
-9
0
8
27
29
20
-1
-8
-19
-19
-8
6
6
29
23
21
6
-1
-19
-12
-6
6
13
35
31
27
17
7
-6
-8
-2
9
17
40
40
31
14
16
-13
-8
1
11
15
39
37
22
11
5
-15
-13
-11
7
17
29
26
13
-4
-1
-21
-17
-8
5
8
22
18
13
-4
-10
-17
-15
-6
1
13
29
24
18
2
-6
-24
-19
-11
7
13
19
14
3
-9
-19
-28
-28
-10
11
29
50
65
84
82
93
101
109
116
112
98
78
67
39
-5
-27
-60
-73
-58
-44
-22
-8
3
1
-9
-29
-26
-23
-9
8
17
27
23
6
-5
-15
-20
-19
1
12
18
27
26
10
4
-11
-11
-17
-4
16
31
28
25
10
2
-13
-14
-9
5
13
35
34
27
14
4
-10
-8
-7
4
20
35
29
20
18
9
-6
-9
-3
16
22
45
35
18
15
9
-17
-11
1
11
26
47
45
33
22
19
-2
1
5
16
25
46
48
42
32
25
6
5
15
24
32
60
63
44
29
25
14
20
26
40
49
63
64
53
44
37
24
29
32
49
58
71
72
60
49
38
21
27
38
46
52
71
66
53
42
34
23
24
34
41
52
55
55
36
21
10
0
4
8
23
29
42
30
23
11
0
-12
-11
3
12
25
30
22
14
3
-11
-21
-12
1
2
21
23
17
4
-7
-19
-15
-19
-13
3
14
19
16
5
-7
-20
-20
-17
-3
6
28
31
24
5
-7
-25
-22
-11
-8
-1
20
18
11
4
-7
-24
-15
-14
-2
10
25
19
16
-1
-8
-25
-20
-9
3
11
26
22
14
4
4
-20
-17
-10
0
12
36
28
19
7
-5
-27
-27
-14
-1
6
23
21
16
1
-1
-15
-13
-11
6
0
19
19
7
-2
0
-14
-10
-4
6
11
20
21
20
3
-4
-18
-19
-6
5
2
18
13
2
0
-7
-24
-20
-8
6
0
19
19
10
-7
-16
-14
-17
-7
2
16
25
18
9
-4
-15
-26
-21
-11
1
13
23
24
11
-2
-14
-15
-15
-12
-1
15
18
10
-6
-13
-14
-16
-17
-8
4
21
25
14
1
-7
-24
-19
-14
-2
-1
18
25
12
-1
-6
-25
-19
-18
-7
2
25
24
16
4
-6
-29
-18
-23
0
-2
17
13
14
0
-9
-24
-11
-18
-8
1
22
15
7
3
-4
-27
-21
-16
-4
3
24
23
15
2
-2
-25
-24
-18
-1
3
18
17
13
0
-10
-22
-18
-12
-2
12
30
23
17
0
-9
-22
-19
-13
-5
6
28
21
16
8
0
-14
-5
5
16
14
33
34
14
6
-2
-14
-14
0
16
20
33
29
17
12
5
-17
-11
-9
5
14
28
24
13
3
-8
-22
-19
-11
-5
11
19
18
7
-2
-18
-27
-22
-8
3
19
28
19
3
-15
-23
-21
-18
-15
0
13
24
19
10
-8
-27
-29
-26
-14
-11
6
8
20
16
18
26
47
72
99
124
147
146
125
83
51
23
5
-19
-36
-46
-31
-28
-29
-35
-40
-57
-46
-42
-29
-6
26
18
13
0
-1
-24
-23
-19
-6
4
22
27
20
6
-5
-23
-17
-13
1
9
29
27
22
3
1
-17
-16
-10
12
17
32
31
18
9
1
-23
-8
-4
11
21
36
27
15
2
-4
-12
-9
1
18
25
36
33
27
13
9
-7
-10
1
14
22
40
34
28
16
13
-4
-1
14
20
30
42
45
34
18
11
4
5
19
30
33
53
56
42
31
21
11
17
25
45
55
60
66
49
38
29
26
26
33
46
60
65
68
51
41
33
28
31
48
46
63
73
66
43
33
23
20
33
44
52
70
62
55
43
36
13
14
11
24
31
41
45
39
23
13
-6
-4
-9
1
20
45
38
22
8
-1
-23
-16
-11
1
1
24
27
23
7
4
-18
-16
-10
-2
6
27
24
11
-2
-6
-20
-19
-12
5
10
23
12
16
0
-6
-23
-18
-10
-1
6
29
22
13
6
1
-9
-15
-6
6
5
28
29
17
5
-5
-30
-16
-5
11
15
33
34
11
7
-7
-20
-20
-6
6
10
26
23
8
2
5
-7
-15
-7
15
21
35
31
21
-1
-9
-16
-7
-3
4
17
34
24
12
1
-12
-18
-13
-2
10
23
31
28
8
-6
-20
-24
-24
-16
7
25
33
25
15
3
-12
-14
-15
-4
5
21
25
22
10
-7
-14
-13
-13
-1
8
22
29
20
-1
-2
-23
-23
-18
-5
4
25
23
20
3
-8
-24
-15
-8
3
10
23
25
25
9
0
-20
-18
-5
1
1
25
27
18
10
0
-22
-17
-15
2
8
18
12
5
-1
-10
-16
-17
-12
2
9
30
31
23
9
2
-22
-18
-13
-2
7
27
19
10
7
-1
-17
-18
-9
5
9
22
19
15
7
-5
-19
-21
-11
0
8
23
29
15
-1
-2
-15
-19
-8
3
15
28
24
15
4
-3
-20
-16
-6
7
12
30
32
23
8
-11
-24
-16
4
10
22
36
30
16
8
-3
-3
-2
5
19
34
40
34
22
8
-3
-9
-7
8
18
31
37
30
18
8
-8
-15
-12
-7
3
18
27
24
9
-5
-14
-16
-12
0
9
28
20
18
5
-3
-20
-22
-14
1
6
21
27
23
14
2
-16
-16
-14
-7
0
18
14
8
-2
-6
-27
-24
-16
10
49
76
91
93
97
111
104
95
87
76
67
79
56
28
-12
-54
-86
-73
-55
-36
-32
-8
-7
-16
-22
-21
-28
-22
-14
5
8
30
32
17
4
1
-14
-12
-7
10
12
32
34
27
15
4
-16
-12
-2
10
27
37
33
25
17
9
-13
-5
8
17
27
39
35
28
12
6
-10
-6
3
23
35
45
44
26
18
5
-3
-6
13
25
36
48
41
31
20
6
-3
3
16
33
46
57
54
37
29
16
7
7
24
37
50
59
54
45
33
17
17
25
33
50
56
57
53
44
36
28
28
32
43
55
71
74
75
52
51
32
34
36
53
61
76
77
73
58
50
30
40
43
49
52
74
72
62
53
45
27
25
30
40
50
63
56
50
39
34
9
6
12
25
30
53
44
37
14
12
-14
-2
1
15
23
41
41
26
14
5
-19
-14
-10
3
6
18
25
24
11
3
-18
-12
-2
14
19
29
24
20
8
3
-16
-17
-5
7
11
31
24
10
2
-3
-12
-10
6
18
26
31
26
13
2
2
-15
-5
3
11
17
34
37
23
2
0
-9
-9
1
17
28
36
33
18
3
-7
-12
-8
1
14
31
33
31
24
3
-12
-15
-7
1
14
35
36
33
19
2
-14
-5
-5
10
13
30
30
21
19
6
-14
-12
-10
4
16
34
28
24
10
-1
-15
-11
-6
6
14
29
30
25
12
-1
-15
-14
-11
-1
9
31
32
27
10
8
-17
-13
-13
5
7
32
24
21
12
6
-19
-12
-6
4
10
34
28
22
8
1
-18
-9
-3
12
15
31
29
20
10
7
-15
-11
-4
10
17
34
36
32
15
13
-8
-5
2
15
22
34
36
31
20
10
-5
-4
10
24
31
43
39
23
10
-2
-16
-12
-3
7
19
29
24
11
4
-6
-16
-10
-1
8
18
33
24
14
-2
-12
-17
-20
-8
5
17
28
26
12
0
-13
-19
-15
-1
8
20
28
21
12
-3
-15
-22
-22
-14
-3
18
14
7
5
6
9
27
50
83
108
141
143
137
101
65
32
31
19
10
-14
-28
-29
-37
-43
-50
-60
-51
-49
-30
-14
8
13
14
5
1
-15
-11
-2
7
11
33
30
24
7
-2
-19
-15
-10
8
16
36
35
25
13
7
-15
-11
-7
12
15
39
32
24
12
10
-4
-5
-1
20
18
38
39
30
22
13
-3
-2
4
13
19
41
39
32
19
10
-5
0
4
21
32
46
48
41
24
17
3
8
18
33
38
51
46
35
26
15
9
11
25
40
42
57
54
46
35
27
18
25
35
53
58
71
67
55
45
35
32
31
41
57
71
83
76
63
50
39
34
39
47
55
69
72
68
55
42
36
32
32
44
55
67
67
61
47
40
23
16
16
32
35
49
57
42
24
17
-2
-2
-1
14
20
31
35
26
8
-3
-17
-10
-7
-2
8
31
31
24
9
4
-20
-15
-9
1
8
32
25
20
8
0
-17
-17
-17
-2
4
25
25
20
11
2
-27
-20
-12
0
6
21
26
21
8
0
-24
-21
-12
8
13
28
30
20
11
5
-16
-11
-2
9
21
32
28
21
13
3
-15
-9
-4
9
15
33
26
15
5
-2
-17
-18
-6
9
21
35
29
15
-2
-5
-14
-15
-5
15
23
30
26
15
1
-9
-14
-11
-4
10
24
27
30
11
0
-8
-14
-14
0
-2
14
24
22
12
-6
-15
-16
-12
-2
11
25
29
22
13
-2
-15
-17
-17
-7
8
27
18
19
14
3
-18
-15
-11
-1
7
22
25
21
9
-6
-29
-17
-12
-3
11
28
26
16
6
-3
-20
-17
-20
-5
8
26
27
20
2
-7
-22
-19
-9
0
12
33
28
18
6
-3
-20
-21
-17
4
8
24
26
14
4
2
-20
-13
-6
7
10
36
37
25
11
4
-15
-14
-4
14
11
36
39
27
13
3
-13
-13
0
11
22
32
29
14
0
-8
-24
-16
-10
-1
10
25
17
10
-6
-10
-24
-18
-14
4
2
20
22
6
-4
-11
-25
-21
-10
-1
11
24
16
3
-8
-18
-29
-23
-11
3
9
8
7
-6
-15
-25
-29
-31
-15
10
35
57
75
81
95
97
96
103
96
91
81
74
52
15
-20
-62
-77
-74
-54
-42
-17
-14
-14
-18
-18
-34
-34
-25
-2
-1
20
20
7
4
0
-22
-16
-7
-1
6
18
18
15
6
-1
-25
-16
-11
-4
0
25
25
23
11
1
-19
-15
-12
1
8
25
26
22
11
-2
-18
-17
-10
-1
2
38
33
24
12
5
-11
-13
-5
9
16
35
35
23
9
1
-12
-6
1
13
20
39
37
27
10
10
-1
1
7
18
27
44
45
26
16
13
8
8
18
25
34
56
54
48
29
23
12
15
28
36
46
58
58
52
40
24
22
27
35
45
53
72
71
54
36
22
18
16
35
42
56
63
58
52
37
24
11
12
23
34
49
47
41
32
14
-1
-1
3
8
22
28
36
27
10
0
-19
-19
-13
-5
7
24
24
17
7
-5
-24
-19
-19
-8
-8
12
17
14
-1
-7
-29
-25
-17
-3
4
21
9
8
-5
-16
-25
-15
-12
-7
1
21
11
5
-7
-11
-28
-25
-15
-3
5
26
23
4
-6
-10
-29
-18
-15
3
3
19
15
13
-1
-11
-23
-20
-15
-2
-3
22
25
10
3
-7
-22
-17
-4
9
8
20
20
9
-2
-6
-20
-15
-8
8
10
18
18
10
2
-9
-27
-21
-10
5
11
19
18
9
-5
-9
-26
-17
-13
2
10
23
18
4
-8
-21
-26
-17
-9
6
16
26
23
5
-7
-19
-26
-26
-6
11
22
15
10
2
-14
-27
-28
-20
-4
6
21
25
18
1
-14
-25
-24
-19
-10
4
13
20
14
2
-10
-23
-26
-13
-3
4
19
13
12
0
-10
-21
-22
-19
-7
-2
16
19
10
-4
-13
-28
-20
-20
-5
1
22
18
11
-1
-14
-27
-28
-26
-6
0
21
18
15
7
-7
-26
-27
-19
-8
2
23
12
6
-6
-15
-31
-28
-19
-3
-1
24
25
10
-1
-12
-33
-34
-25
-4
0
20
18
11
-4
-10
-26
-23
-16
-4
5
15
12
1
-7
-15
-27
-17
-17
-6
3
15
10
0
-11
-13
-23
-16
-3
1
-2
13
14
9
0
-9
-16
-14
-5
6
14
25
23
13
3
-11
-20
-14
2
13
19
20
22
9
-4
-10
-11
-10
-3
6
22
26
21
5
-11
-22
-25
-25
-13
-4
14
16
11
-1
-16
-22
-23
-28
-13
-2
14
13
3
-9
-12
-31
-36
-23
-19
-2
17
14
4
2
-11
-38
-27
-21
-12
-10
1
-1
-6
-20
-24
-28
-7
17
51
71
106
120
124
119
103
63
38
35
38
19
15
-13
-46
-60
-64
-75
-59
-44
-35
-20
8
9
5
-10
-15
-29
-27
-18
-8
-3
21
16
5
-5
-8
-27
-25
-13
-1
4
29
17
7
-2
-10
-29
-24
-17
1
5
29
28
8
0
-4
-19
-22
-9
-2
8
22
24
18
6
-10
-17
-16
-5
2
8
24
23
15
1
-5
-13
-12
-1
10
20
27
23
16
11
0
-14
-11
3
16
28
36
35
13
8
4
-4
1
13
20
34
42
36
27
16
1
4
8
19
31
51
59
46
33
28
14
14
16
24
35
51
59
58
42
41
28
23
24
35
50
62
57
55
46
35
21
14
21
36
39
56
50
47
35
25
5
12
13
16
31
47
43
30
15
10
-11
-6
2
14
16
28
24
15
6
-9
-29
-21
-14
-6
-2
26
25
13
0
-12
-28
-29
-21
-10
-1
9
18
11
3
2
-27
-30
-19
-7
1
18
16
8
-3
-8
-29
-31
-16
0
2
19
17
0
-10
-18
-27
-28
-20
-8
9
21
16
8
1
-14
-23
-22
-9
-4
7
21
21
10
-5
-11
-24
-18
-15
4
11
27
26
8
-14
-21
-25
-26
-11
1
20
32
21
5
0
-19
-27
-21
-6
1
17
22
19
-1
-16
-20
-19
-19
-7
11
23
17
13
0
-8
-18
-20
-21
-6
-4
15
19
9
4
-5
-20
-15
-20
-8
-4
9
16
11
-3
-6
-21
-21
-19
2
8
19
15
5
-7
-10
-26
-21
-18
-3
-2
13
11
11
-3
-9
-36
-31
-12
1
8
24
25
8
-6
-10
-26
-23
-17
1
0
22
22
3
-13
-9
-29
-20
-14
0
1
20
18
7
-6
-14
-33
-32
-16
3
11
20
22
8
-8
-10
-23
-22
-9
2
1
17
15
2
-14
-15
-32
-26
-13
4
6
19
21
4
-13
-19
-24
-25
-16
5
12
15
17
15
-13
-17
-26
-25
-17
-2
11
25
16
6
-6
-27
-26
-21
-14
2
18
25
15
10
-7
-24
-23
-22
-5
-8
11
23
15
12
4
-22
-20
-11
-1
11
31
29
24
16
2
-25
-24
-8
5
13
34
30
23
11
2
-18
-11
-8
9
19
25
12
16
2
-10
-25
-25
-15
-6
5
19
16
19
3
-12
-30
-26
-22
-5
1
20
17
8
-5
-13
-32
-28
-14
2
13
19
16
3
-8
-16
-34
-28
-15
-2
-4
12
11
-1
-22
-22
-31
-19
2
39
58
90
98
107
103
98
63
54
36
46
48
48
18
-28
-60
-65
-82
-74
-60
-49
-34
-15
-6
-11
-18
-25
-30
-29
-19
-1
5
25
20
4
-6
-13
-23
-18
-13
4
17
25
15
5
-3
-7
-15
-17
-2
9
17
24
24
13
-2
-11
-15
-15
-2
18
28
30
21
10
4
-13
-16
-12
5
15
31
31
22
14
6
-8
-14
-7
8
19
37
39
31
19
7
-11
-10
-5
7
24
42
37
34
27
17
-5
5
7
17
29
48
44
40
28
25
3
9
13
24
38
59
56
52
39
27
12
14
20
43
49
69
64
52
40
37
20
24
32
43
55
68
64
56
48
44
23
27
32
39
44
65
59
44
38
35
17
18
22
32
43
52
47
31
20
14
-1
-6
7
14
22
29
29
27
8
7
-9
-13
-6
5
14
21
18
7
-6
-18
-31
-27
-17
-3
11
25
17
7
-4
-15
-24
-18
-9
0
11
18
10
10
-8
-22
-20
-19
-12
-10
13
18
13
0
-9
-21
-20
-17
-3
3
16
21
16
5
-7
-31
-22
-19
-7
5
34
33
17
7
1
-19
-25
-20
-2
8
26
26
18
6
-4
-37
-21
-20
-4
9
25
24
20
10
0
-22
-24
-12
-3
-3
26
20
17
6
2
-20
-21
-14
-6
4
22
15
17
1
-8
-29
-22
-19
-13
-2
24
17
8
-6
-12
-33
-28
-19
1
12
25
25
14
-5
-5
-30
-26
-18
-4
5
25
21
11
0
-11
-27
-26
-20
-5
2
21
10
2
-5
-16
-31
-28
-13
-3
1
17
15
6
-8
-13
-17
-22
-17
4
7
16
12
4
-5
-16
-23
-22
-11
-2
12
22
22
4
-13
-26
-27
-25
-12
2
9
16
18
-1
-13
-25
-27
-25
-18
3
14
25
17
13
-9
-25
-28
-23
-12
0
23
20
12
2
-11
-34
-31
-23
-7
9
20
21
19
1
-7
-20
-16
-8
5
9
28
29
19
13
-2
-21
-16
-12
-3
17
31
24
21
15
8
-15
-13
-12
-3
1
26
20
9
-3
-6
-28
-23
-18
-4
-3
19
16
3
-7
-11
-31
-24
-17
-6
-1
13
13
11
-4
-11
-34
-31
-16
-10
-5
16
13
5
-9
-18
-35
-29
-22
-8
-3
10
-2
-12
-26
-21
-36
-23
-1
27
52
87
104
113
110
106
81
63
45
49
50
39
1
-32
-67
-76
-82
-73
-55
-35
-25
-9
-7
-8
-17
-26
-36
-25
-11
3
13
19
10
0
-14
-20
-30
-33
-11
5
22
32
21
8
-15
-23
-25
-19
-12
0
21
27
14
3
0
-20
-23
-16
-6
3
21
23
20
9
-6
-25
-26
-17
1
13
25
27
20
7
-4
-15
-13
-10
4
15
32
24
18
6
2
-16
-7
-4
5
7
31
33
26
19
6
-9
-6
2
14
18
37
34
34
17
13
-5
-6
5
26
38
52
52
42
38
33
8
9
17
30
34
53
59
51
33
29
21
22
29
43
48
65
63
53
37
34
17
21
20
29
37
60
52
45
34
28
11
10
22
28
33
48
41
27
11
1
-13
-13
-3
6
16
27
24
13
-1
-13
-24
-24
-16
1
12
17
15
2
-12
-20
-31
-25
-14
-5
5
13
10
4
-9
-19
-28
-30
-18
-1
10
8
7
-5
-16
-31
-27
-26
-15
-9
1
16
7
-9
-14
-29
-26
-28
-13
-3
13
10
8
-8
-12
-28
-29
-20
-6
3
13
14
11
-3
-3
-23
-31
-26
-19
-11
19
18
9
-5
-9
-26
-27
-18
-5
2
17
12
5
-8
-10
-28
-24
-17
-5
0
23
17
10
-1
-11
-35
-23
-17
-7
-2
20
10
2
-11
-12
-30
-27
-21
-9
-6
25
19
10
-4
-12
-36
-34
-24
-9
-2
14
15
4
-13
-23
-38
-29
-22
-9
0
21
10
-8
-7
-20
-27
-30
-13
-4
4
15
9
-8
-15
-25
-41
-41
-19
1
5
21
18
6
-14
-30
-40
-36
-22
-8
4
12
8
-4
-19
-30
-33
-27
-17
-8
8
9
5
-1
-16
-35
-32
-31
-19
-9
2
10
6
-7
-15
-34
-38
-34
-17
-7
4
5
3
-3
-14
-33
-35
-30
-18
-8
10
8
3
-11
-20
-39
-44
-30
-8
5
12
6
-1
-12
-19
-42
-38
-31
-24
-18
6
6
4
-11
-13
-31
-37
-29
-14
-4
11
7
4
-11
-18
-38
-40
-26
-22
-17
9
12
8
-12
-23
-45
-38
-31
-20
-7
10
13
9
-9
-17
-32
-32
-26
-16
-2
11
9
4
-7
-17
-33
-29
-22
-13
-9
13
12
4
0
-14
-39
-31
-21
-3
2
18
17
11
2
-9
-25
-25
-26
-9
1
16
7
-1
-14
-25
-39
-41
-24
-15
-6
3
3
-6
-20
-33
-40
-37
-28
-17
-4
3
4
-13
-24
-41
-34
-37
-23
-17
-2
-2
-2
-21
-28
-37
-36
-40
-30
-22
-7
-4
-5
-11
-17
-27
1
28
57
85
104
128
128
107
95
50
31
19
15
-3
-2
-31
-46
-60
-58
-70
-57
-54
-40
-29
-8
-6
-1
-19
-23
-42
-43
-25
-14
-6
17
14
8
-8
-11
-23
-16
-15
-13
-5
18
15
7
-9
-18
-36
-23
-10
-2
2
24
25
14
-1
-14
-44
-26
-23
-6
-4
33
27
19
4
-8
-18
-18
-8
7
12
24
14
-7
-6
-5
-19
-20
-7
7
18
34
31
17
3
0
-17
-12
5
17
24
42
35
23
10
4
-5
-5
4
21
34
49
43
31
15
7
-3
-3
8
24
40
49
49
37
25
19
16
21
21
38
52
60
55
50
34
32
18
10
32
53
66
63
56
48
31
13
23
26
37
45
58
55
53
42
24
2
9
13
24
31
46
46
38
21
10
-9
-9
-10
-1
13
27
21
17
3
3
-14
-18
-24
-6
1
21
22
17
6
-4
-20
-24
-22
-5
0
20
15
9
-1
-9
-32
-27
-23
-12
-1
16
16
9
-5
-12
-30
-23
-20
-11
-2
17
16
15
-1
-6
-25
-22
-15
-1
0
20
20
14
-1
-12
-28
-27
-21
-6
5
19
19
9
-3
-12
-24
-26
-15
4
10
21
14
4
-9
-14
-16
-17
-12
1
12
25
20
7
-1
-12
-25
-24
-9
10
22
20
15
5
-5
-23
-26
-25
-17
-1
18
25
18
7
-8
-20
-28
-24
-12
-3
15
28
17
4
-3
-15
-23
-22
-13
1
17
21
14
5
-10
-16
-24
-26
-9
-2
19
12
9
-4
-14
-26
-21
-14
-7
5
21
22
9
-6
-12
-30
-27
-23
-15
-7
16
22
15
2
-1
-25
-25
-14
-4
-1
16
14
-4
-3
-8
-30
-28
-11
3
5
22
8
4
-6
-11
-28
-19
-19
-10
0
17
15
8
-10
-18
-30
-19
-16
-3
4
26
22
11
-3
-9
-28
-28
-15
-1
6
21
18
10
-8
-18
-29
-22
-20
-6
6
25
18
7
-8
-11
-27
-28
-20
-7
9
19
14
6
-7
-17
-24
-22
-15
-2
6
24
22
8
-18
-19
-30
-23
-10
7
17
19
18
2
-12
-16
-20
-17
-9
0
7
19
15
0
-13
-22
-28
-21
-7
8
19
22
13
7
-2
-17
-17
-13
-9
3
16
24
20
13
7
-15
-18
-14
8
14
29
32
23
12
7
-14
-17
-12
5
12
27
24
20
6
-3
-19
-14
-12
2
7
19
16
8
-2
-11
-31
-24
-17
4
3
15
15
3
-7
-17
-38
-26
-16
0
1
23
22
7
-4
-17
-37
-31
-27
-13
-6
17
19
5
-12
-16
-37
-35
-32
-11
5
35
49
54
62
74
84
96
101
99
86
74
67
48
10
-22
-68
-84
-66
-55
-50
-31
-32
-35
-40
-42
-50
-44
-25
-8
6
21
17
7
-7
-18
-33
-29
-19
-6
9
18
24
13
3
-13
-18
-17
-4
11
15
24
22
12
-3
-16
-27
-26
-3
4
20
30
20
11
-8
-19
-21
-16
-6
5
17
24
27
17
2
-13
-16
-8
6
10
31
36
35
14
7
-13
-16
-15
4
10
30
31
30
19
14
-8
-11
-8
10
18
41
40
30
21
13
-9
-10
4
21
21
50
55
48
32
21
8
13
21
30
36
54
51
47
34
28
8
15
28
38
41
62
56
50
32
29
15
11
22
38
41
57
49
47
37
33
10
11
18
23
28
47
46
37
27
21
3
-9
-5
8
10
28
24
9
-3
-8
-22
-17
-10
0
10
19
14
4
-12
-20
-32
-35
-26
-11
-6
14
10
5
-12
-24
-35
-33
-24
-13
-1
9
8
-1
-8
-24
-35
-30
-19
-8
0
7
-2
-7
-17
-32
-32
-30
-18
-6
10
13
6
-4
-6
-24
-36
-30
-15
-7
9
15
7
-9
-18
-31
-30
-23
-14
0
19
21
10
-5
-15
-34
-31
-24
-14
-7
11
13
12
0
-15
-25
-28
-23
-14
-5
13
13
8
-9
-19
-37
-28
-22
-6
-5
13
8
9
2
-13
-36
-35
-28
-15
-7
9
9
3
-15
-24
-42
-35
-25
-17
-4
15
15
4
-10
-17
-39
-39
-30
-9
-1
14
6
-2
-11
-18
-39
-35
-17
-8
-8
6
0
-3
-15
-25
-44
-40
-25
-11
-5
7
5
-2
-13
-18
-33
-31
-20
-10
-6
5
5
-7
-20
-21
-32
-32
-26
-13
1
10
3
-5
-22
-25
-33
-31
-24
-14
-7
10
3
-6
-21
-29
-31
-34
-23
-3
11
9
4
0
-5
-18
-27
-26
-14
1
16
24
19
1
-8
-26
-26
-24
-9
-2
13
14
14
3
-20
-32
-35
-26
-16
-12
9
6
-1
-9
-23
-37
-34
-31
-19
-9
10
5
-5
-14
-26
-41
-45
-37
-17
-11
10
6
-5
-16
-21
-49
-41
-27
-23
-15
2
-3
-6
-25
-24
-47
-44
-41
-27
-29
-4
-6
-19
-24
-16
-19
8
30
60
79
116
128
116
86
55
9
8
7
-8
-25
-38
-54
-59
-71
-67
-75
-73
-66
-50
-35
-17
-17
-14
-20
-30
-46
-43
-33
-19
3
16
8
-9
-20
-22
-34
-34
-26
-16
-7
9
16
-1
-11
-24
-36
-32
-23
-11
-2
12
8
-7
-16
-19
-29
-25
-17
-3
7
11
14
4
-16
-25
-32
-28
-13
-5
14
24
15
4
-7
-28
-28
-23
-13
-2
15
19
14
2
-6
-18
-20
-19
-1
8
25
31
30
13
-1
-18
-15
-4
4
8
28
29
26
11
8
-9
-5
-2
18
25
43
46
34
23
18
2
7
5
20
23
48
52
45
36
38
21
24
24
36
38
53
44
44
35
27
4
4
13
28
28
44
42
40
26
15
-5
-7
-6
12
17
29
23
16
1
-3
-25
-25
-15
-3
0
12
8
-2
-15
-19
-38
-33
-21
-9
-12
8
5
-3
-15
-26
-45
-41
-33
-16
-10
4
-2
-9
-19
-27
-37
-38
-32
-18
-17
4
-1
-8
-27
-35
-48
-38
-23
-15
-3
7
3
-6
-17
-35
-43
-38
-31
-23
-5
2
-1
-8
-19
-27
-33
-38
-25
-18
-1
6
6
-1
-15
-27
-34
-34
-26
-14
4
4
3
-10
-18
-33
-34
-33
-20
-11
2
1
0
-6
-12
-29
-30
-31
-19
-12
1
-2
-6
-18
-22
-40
-39
-34
-18
-8
7
10
3
-13
-24
-43
-40
-29
-21
-16
5
2
-14
-18
-22
-44
-40
-32
-22
-14
4
-5
-8
-18
-20
-39
-42
-31
-17
-15
6
9
-7
-21
-24
-40
-40
-37
-26
-17
4
-1
-5
-21
-33
-52
-43
-31
-23
-15
5
1
-5
-25
-30
-45
-42
-33
-16
-13
5
-1
-8
-21
-27
-40
-39
-31
-15
-12
-2
0
-13
-31
-34
-43
-41
-30
-16
-14
-1
0
-13
-28
-37
-45
-42
-30
-10
6
13
3
-8
-20
-33
-47
-33
-22
-10
2
16
12
-1
-12
-29
-36
-31
-23
-13
5
9
5
-14
-15
-29
-32
-32
-23
-6
8
9
-3
-18
-30
-46
-46
-40
-23
-14
3
1
-5
-22
-32
-50
-44
-43
-28
-18
3
0
-7
-20
-28
-54
-47
-42
-28
-21
0
-10
-13
-23
-23
-47
-46
-42
-37
-30
-9
-9
-13
-24
-22
-24
1
30
59
88
123
124
111
89
60
11
5
-1
-17
-35
-43
-52
-57
-66
-64
-72
-67
-62
-43
-30
-7
-5
-10
-22
-25
-41
-45
-30
-20
-18
-1
-3
-3
-14
-20
-42
-41
-27
-17
-10
6
3
-7
-23
-29
-42
-37
-21
-13
-4
13
1
-8
-16
-27
-40
-35
-19
-14
-1
16
10
-6
-18
-27
-35
-29
-20
-2
-2
5
7
-2
-14
-24
-31
-26
-14
-6
9
18
15
4
-8
-21
-33
-27
-16
1
20
15
18
8
-4
-17
-19
-16
-7
6
22
27
22
10
4
-20
-13
-4
10
20
35
33
31
21
7
2
0
4
18
30
44
43
43
23
15
-2
2
10
24
29
47
45
38
26
22
1
3
8
13
24
49
42
36
19
12
-9
-12
-11
2
9
24
17
9
-8
-14
-29
-20
-22
-17
-7
8
-2
-3
-15
-29
-43
-41
-30
-14
-15
3
0
-8
-25
-24
-46
-46
-33
-15
-13
3
2
-8
-28
-40
-52
-46
-33
-18
-21
3
1
-13
-23
-26
-40
-38
-35
-24
-18
1
3
-11
-26
-32
-48
-47
-40
-18
-6
10
0
-16
-19
-29
-45
-39
-26
-20
-13
3
5
-12
-20
-28
-45
-41
-24
-14
-3
1
-5
-11
-28
-38
-35
-31
-24
-11
-3
5
0
-14
-29
-39
-40
-39
-22
-13
-1
5
-5
-22
-32
-45
-39
-38
-31
-21
8
1
-2
-16
-23
-43
-46
-41
-19
-19
1
-5
-8
-17
-21
-46
-45
-40
-26
-19
1
1
-7
-22
-30
-48
-44
-41
-33
-18
5
2
-6
-17
-26
-46
-46
-39
-25
-17
3
-5
-15
-30
-32
-50
-52
-39
-22
-12
6
4
-6
-17
-30
-50
-44
-36
-26
-19
-1
-1
-16
-27
-26
-42
-49
-40
-22
-18
-2
1
-10
-25
-36
-51
-46
-34
-26
-21
-4
1
-5
-19
-31
-51
-48
-35
-19
-17
-2
-2
-15
-26
-32
-44
-45
-41
-28
-9
0
-4
-16
-30
-44
-51
-41
-33
-20
-10
-4
-6
-13
-26
-41
-48
-46
-23
-13
4
4
-4
-12
-18
-35
-43
-37
-23
-10
4
13
4
-10
-25
-42
-41
-35
-13
-6
14
10
-1
-16
-23
-32
-35
-31
-20
-13
1
-2
-3
-22
-29
-45
-39
-37
-20
-20
-3
-4
-14
-23
-29
-51
-56
-45
-35
-24
-5
-4
-8
-22
-25
-49
-43
-37
-29
-23
-7
-6
-14
-36
-34
-57
-59
-52
-28
-26
-18
-12
-20
-21
-17
-24
-3
26
59
80
114
122
110
83
53
10
7
-2
-19
-35
-46
-59
-64
-68
-72
-85
-77
-67
-37
-34
-11
-6
-13
-28
-39
-52
-42
-27
-19
-13
0
-5
-13
-22
-31
-48
-42
-34
-16
-6
6
1
-11
-12
-29
-50
-45
-36
-17
-10
2
5
-4
-22
-32
-35
-37
-27
-17
2
9
6
-5
-21
-33
-30
-31
-19
-7
5
5
0
-5
-12
-33
-37
-26
-23
-8
10
19
8
-3
-8
-23
-26
-20
-9
2
17
21
11
3
-5
-28
-19
-23
-8
-2
23
26
26
15
4
-19
-14
-9
3
16
37
32
33
25
10
-5
6
14
25
33
52
50
34
28
21
-2
9
13
21
34
50
48
40
27
22
-1
10
8
19
27
42
48
41
28
15
-8
-8
-8
11
17
34
22
18
5
-2
-24
-25
-18
-9
-7
8
10
4
-10
-22
-42
-32
-28
-18
-18
-3
6
-4
-15
-21
-43
-42
-27
-17
-9
3
5
-4
-19
-24
-43
-39
-25
-18
-13
6
-2
-4
-20
-37
-45
-46
-32
-25
-10
4
5
0
-16
-33
-43
-39
-26
-19
-2
7
5
-15
-29
-34
-37
-32
-22
-11
7
4
1
-8
-17
-33
-34
-33
-24
-8
2
1
-3
-17
-26
-40
-36
-39
-27
-9
14
4
7
-9
-21
-41
-40
-36
-21
-16
9
7
3
-8
-22
-38
-38
-27
-23
-23
10
6
-5
-21
-21
-39
-39
-36
-26
-14
5
0
-9
-20
-18
-39
-43
-37
-19
-10
3
0
-9
-21
-31
-46
-44
-33
-17
-9
9
5
0
-13
-21
-44
-42
-36
-26
-23
0
-3
-7
-15
-23
-42
-40
-29
-10
-16
4
0
-16
-25
-28
-45
-41
-35
-19
-9
1
5
-10
-24
-31
-43
-36
-28
-20
-11
-1
-2
-9
-14
-30
-41
-36
-29
-16
-10
2
-4
-9
-20
-31
-42
-38
-26
-15
-6
4
-2
-10
-23
-28
-38
-38
-21
-12
0
8
1
-6
-20
-30
-34
-41
-25
-15
0
3
8
-3
-9
-27
-32
-28
-13
-1
14
21
12
-1
-10
-29
-32
-24
-11
2
19
8
0
-11
-21
-33
-34
-31
-20
-11
2
2
-7
-18
-27
-34
-38
-34
-18
-15
5
-4
-6
-8
-21
-45
-42
-36
-23
-17
6
1
-3
-12
-19
-43
-41
-33
-25
-18
1
-2
-10
-29
-37
-58
-47
-38
-24
-9
21
24
29
39
51
51
69
81
90
77
63
54
41
10
-25
-71
-95
-91
-63
-52
-34
-32
-40
-50
-56
-69
-58
-45
-25
-18
3
1
-11
-17
-29
-44
-39
-27
-17
-12
3
12
3
-19
-27
-38
-35
-22
-15
-9
13
7
-5
-13
-23
-34
-30
-17
-5
7
14
11
-1
-7
-28
-33
-33
-26
-16
-2
15
15
1
-13
-26
-32
-30
-10
1
15
19
12
3
-10
-20
-26
-21
-5
12
27
27
21
4
-10
-26
-24
-20
-4
5
16
22
22
11
4
-12
-12
-9
5
13
33
34
31
19
13
-6
0
-1
12
21
44
46
39
28
28
11
7
8
22
29
47
43
40
33
30
9
4
14
24
32
55
44
37
23
16
0
-3
15
20
28
45
42
30
10
3
-23
-19
-11
2
4
21
12
4
-7
-14
-34
-33
-26
-12
-10
11
3
-7
-21
-22
-37
-35
-27
-19
-13
7
0
-12
-31
-37
-48
-42
-29
-16
-10
3
0
-1
-21
-37
-43
-44
-37
-25
-14
2
-4
-12
-30
-33
-43
-40
-31
-14
2
1
-1
-6
-11
-32
-42
-39
-29
-17
-6
2
-4
-13
-21
-28
-29
-32
-27
-15
-2
5
4
-6
-19
-40
-34
-29
-23
-8
13
11
5
-9
-22
-40
-43
-38
-22
-14
10
6
-1
-10
-20
-39
-37
-32
-25
-16
5
6
0
-11
-25
-42
-35
-29
-21
-13
10
2
-4
-19
-23
-42
-39
-36
-18
-13
3
5
-7
-18
-26
-42
-45
-34
-22
-14
7
-1
-3
-18
-27
-43
-44
-33
-18
-17
7
8
-4
-16
-23
-37
-32
-28
-24
-14
6
0
-8
-21
-30
-48
-40
-31
-21
-16
4
4
-4
-26
-26
-43
-42
-34
-21
-16
2
-1
-9
-18
-27
-39
-37
-27
-17
-10
7
3
-9
-28
-33
-44
-44
-33
-21
-4
6
0
-13
-25
-35
-43
-39
-30
-18
-6
0
2
-15
-23
-34
-42
-40
-27
-15
-2
7
1
-8
-21
-38
-41
-45
-32
-19
-5
4
0
-10
-21
-40
-34
-33
-23
-10
9
10
9
-2
-16
-32
-30
-30
-19
-6
17
16
12
-9
-16
-33
-33
-29
-14
-12
7
9
3
-15
-26
-47
-45
-35
-22
-10
8
2
-8
-14
-27
-48
-40
-32
-26
-14
2
-2
-6
-21
-31
-43
-39
-39
-23
-19
-2
-3
-10
-27
-36
-51
-48
-39
-28
-24
1
-10
-20
-32
-35
-49
-37
-14
5
36
73
86
89
95
93
70
58
42
37
35
27
0
-35
-67
-82
-94
-89
-75
-48
-30
-16
-17
-21
-36
-36
-48
-48
-34
-21
-17
2
0
-5
-17
-22
-35
-36
-29
-20
-8
7
10
-8
-24
-30
-37
-34
-25
-11
-1
12
11
-1
-20
-32
-38
-37
-24
-12
0
6
3
-7
-15
-32
-32
-31
-19
-6
15
16
13
-2
-12
-29
-33
-30
-18
-7
9
17
11
-2
-8
-18
-23
-26
-10
-4
18
20
14
4
-6
-19
-18
-20
-9
3
29
24
20
4
0
-15
-7
1
9
15
36
39
26
12
8
-11
-5
8
16
21
47
41
37
26
22
0
1
7
27
34
52
47
33
23
19
3
3
12
24
31
53
48
40
18
12
-13
-17
2
15
14
32
21
20
2
-2
-29
-26
-16
-5
6
21
16
2
-13
-20
-38
-37
-27
-15
-9
2
4
-6
-21
-28
-39
-40
-33
-21
-15
2
-1
-12
-27
-31
-41
-40
-31
-19
-12
0
-3
-12
-36
-37
-47
-38
-32
-18
-8
7
2
-10
-22
-32
-41
-41
-29
-24
-9
3
-6
-7
-21
-37
-45
-39
-23
-11
4
2
-7
-18
-28
-41
-38
-35
-24
-17
-5
2
7
-9
-24
-45
-34
-30
-23
-13
3
9
1
-18
-23
-40
-40
-40
-23
-10
12
7
-4
-20
-23
-42
-44
-41
-23
-17
3
-2
-3
-17
-28
-43
-37
-36
-26
-18
0
-2
-6
-21
-22
-43
-43
-32
-19
-16
8
4
-9
-27
-32
-51
-40
-34
-28
-19
3
2
-6
-20
-22
-43
-47
-42
-20
-20
-1
-6
-13
-21
-30
-50
-41
-34
-21
-12
4
-4
-10
-25
-31
-48
-42
-29
-19
-15
0
-4
-17
-31
-31
-43
-39
-32
-23
-22
0
-1
-10
-24
-34
-47
-40
-31
-23
-16
3
-5
-14
-27
-38
-40
-39
-27
-15
-11
0
-7
-13
-30
-37
-38
-38
-37
-21
-2
2
-6
-14
-26
-46
-43
-43
-29
-16
-3
1
-7
-23
-31
-40
-38
-40
-28
-20
-1
-3
-3
-17
-27
-42
-44
-43
-26
-11
3
6
1
-12
-28
-47
-45
-43
-27
-26
-9
1
-5
-12
-20
-42
-35
-33
-22
-11
9
5
2
-11
-17
-29
-31
-32
-18
-6
9
9
12
-11
-21
