-55
-64
-63
-58
-60
-60
-56
-64
-67
-66
-62
-58
-57
-54
-56
-61
-53
-47
-52
-56
-60
-63
-63
-63
-65
-64
-62
-63
-65
-63
-54
-47
-57
-59
-55
-51
-63
-69
-64
-64
-67
-65
-60
-66
-65
-56
-49
-57
-68
-58
-56
-69
-75
-77
-77
-76
-74
-59
-56
-61
-63
-66
-68
-64
-66
-66
-67
-67
-69
-73
-63
-66
-64
-63
-64
-65
-76
-74
-75
-68
-65
-62
-63
-71
-83
-78
-77
-74
-70
-78
-80
-78
-77
-68
-70
-70
-66
-63
-66
-68
-68
-65
-77
-84
-76
-77
-75
-80
-72
-66
-64
-72
-72
-79
-77
-74
-74
-74
-72
-74
-72
-70
-70
-71
-69
-73
-67
-73
-82
-81
-79
-73
-68
-61
-70
-74
-68
-69
-72
-71
-67
-75
-76
-83
-79
-76
-71
-68
-74
-74
-77
-80
-78
-80
-77
-76
-66
-68
-66
-68
-72
-72
-69
-66
-64
-67
-72
-70
-76
-80
-70
-73
-64
-66
-73
-70
-71
-78
-81
-70
-71
-72
-61
-64
-74
-72
-73
-76
-77
-75
-81
-73
-66
-71
-70
-68
-68
-71
-70
-78
-72
-66
-69
-73
-68
-59
-56
-62
-64
-71
-66
-71
-70
-71
-72
-77
-69
-71
-70
-69
-68
-60
-71
-73
-71
-67
-74
-60
-62
-64
-64
-62
-61
-64
-65
-73
-86
-75
-71
-83
-81
-72
-65
-67
-70
-65
-68
-68
-66
-67
-67
-60
-68
-70
-74
-62
-57
-66
-70
-70
-72
-70
-63
-62
-60
-62
-62
-60
-64
-73
-72
-71
-73
-68
-68
-68
-62
-63
-58
-53
-61
-66
-79
-71
-67
-68
-70
-69
-66
-61
-55
-64
-67
-58
-62
-69
-66
-64
-66
-68
-64
-67
-71
-68
-71
-69
-55
-62
-65
-58
-56
-61
-60
-61
-58
-64
-64
-47
-42
-44
-38
-39
-45
-52
-56
-57
-54
-55
-62
-62
-59
-58
-51
-51
-47
-47
-45
-45
-56
-66
-48
-57
-60
-61
-69
-62
-65
-62
-62
-66
-66
-66
-65
-59
-53
-46
-46
-52
-66
-74
-73
-77
-77
-79
-63
-62
-64
-61
-62
-55
-52
-53
-60
-68
-71
-67
-63
-68
-72
-64
-55
-48
-52
-53
-45
-38
-19
0
31
80
122
170
184
199
210
198
183
165
138
115
91
68
47
30
-2
-44
-74
-84
-86
-80
-76
-75
-81
-73
-65
-60
-67
-70
-67
-65
-66
-62
-56
-57
-65
-62
-60
-60
-54
-54
-56
-55
-50
-54
-62
-57
-56
-57
-48
-52
-47
-49
-52
-46
-46
-44
-42
-33
-46
-55
-53
-49
-53
-53
-53
-52
-45
-43
-53
-49
-44
-39
-48
-43
-41
-47
-47
-44
-44
-31
-37
-39
-42
-39
-32
-23
-26
-27
-28
-27
-31
-23
-21
-20
-17
-16
-15
-18
-14
-17
-18
-24
-20
-13
-11
-7
-2
-3
-1
5
-1
-2
-1
7
8
9
15
11
14
8
9
5
7
13
18
11
12
14
17
11
17
14
7
18
19
13
16
14
18
19
14
15
19
18
14
8
12
19
14
8
0
-4
-6
-13
-21
-28
-25
-16
-23
-23
-20
-20
-27
-35
-35
-34
-33
-30
-37
-38
-40
-35
-36
-49
-43
-37
-41
-53
-55
-49
-71
-64
-55
-49
-56
-46
-41
-47
-48
-44
-46
-46
-48
-51
-58
-53
-39
-41
-47
-41
-41
-45
-44
-44
-43
-46
-54
-47
-45
-36
-40
-43
-47
-38
-38
-43
-45
-45
-41
-40
-41
-36
-34
-41
-44
-50
-50
-59
-55
-56
-56
-60
-62
-60
-59
-52
-49
-47
-40
-42
-51
-49
-43
-44
-52
-45
-42
-46
-55
-65
-61
-56
-51
-49
-44
-42
-47
-49
-52
-49
-46
-43
-45
-44
-48
-48
-49
-54
-56
-60
-57
-59
-63
-61
-60
-55
-59
-54
-45
-47
-54
-55
-50
-54
-57
-49
-52
-61
-60
-51
-59
-50
-52
-56
-47
-54
-50
-52
-57
-59
-60
-61
-60
-60
-53
-48
-50
-54
-51
-51
-51
-51
-58
-59
-60
-61
-59
-57
-57
-52
-55
-50
-52
-65
-63
-60
-64
-59
-50
-51
-54
-57
-56
-57
-58
-48
-58
-54
-50
-61
-55
-47
-50
-56
-55
-57
-61
-58
-59
-51
-54
-58
-61
-49
-42
-54
-48
-42
-55
-63
-61
-63
-59
-60
-57
-56
-60
-57
-61
-48
-61
-71
-68
-66
-52
-51
-50
-54
-55
-60
-60
-56
-54
-49
-51
-40
-40
-49
-52
-50
-46
-48
-48
-56
-51
-42
-35
-34
-32
-38
-40
-39
-39
-37
-29
-25
-29
-44
-46
-55
-61
-48
-33
-36
-38
-36
-42
-42
-44
-42
-42
-47
-42
-47
-38
-37
-52
-60
-59
-51
-63
-58
-51
-52
-50
-53
-49
-51
-56
-57
-56
-51
-48
-49
-51
-53
-52
-45
-48
-54
-56
-58
-56
-60
-66
-79
-70
-64
-51
-46
-35
-20
-7
1
18
64
102
130
155
176
186
181
161
153
133
101
80
61
40
17
-1
-27
-49
-78
-82
-76
-77
-86
-88
-85
-81
-76
-71
-62
-63
-62
-62
-63
-56
-55
-49
-44
-45
-30
-32
-35
-41
-57
-61
-58
-58
-60
-56
-55
-52
-52
-53
-53
-59
-58
-56
-55
-43
-38
-27
-29
-25
-31
-38
-36
-38
-37
-41
-39
-40
-40
-39
-38
-40
-40
-41
-51
-39
-34
-39
-23
-22
-25
-29
-29
-27
-25
-26
-27
-24
-24
-24
-13
-14
-20
-17
-14
-12
-19
-27
-18
-9
-12
-16
-8
-9
-6
2
-2
4
3
5
0
-3
4
10
21
13
4
8
6
15
25
27
27
24
21
25
22
19
19
22
23
30
23
19
18
13
13
29
27
16
18
22
16
27
21
14
8
3
-2
-2
-4
-7
-10
-17
-14
-15
-16
-19
-17
-16
-7
-8
-31
-42
-38
-44
-46
-45
-42
-48
-42
-33
-36
-38
-37
-33
-28
-38
-49
-52
-43
-51
-50
-50
-54
-43
-34
-35
-35
-39
-33
-28
-28
-29
-38
-45
-38
-37
-44
-41
-41
-41
-36
-33
-33
-30
-29
-34
-45
-48
-56
-43
-40
-38
-40
-41
-36
-38
-47
-33
-33
-41
-35
-31
-34
-43
-46
-43
-45
-49
-47
-45
-44
-44
-43
-37
-35
-34
-40
-43
-36
-32
-43
-45
-45
-50
-50
-43
-42
-52
-51
-51
-47
-44
-43
-42
-43
-51
-52
-51
-46
-43
-45
-51
-48
-52
-54
-36
-33
-35
-41
-44
-47
-45
-50
-50
-53
-45
-46
-51
-51
-43
-45
-40
-43
-45
-47
-47
-52
-57
-55
-48
-60
-53
-46
-49
-56
-48
-49
-49
-44
-47
-51
-42
-45
-51
-43
-47
-52
-50
-57
-54
-46
-47
-36
-39
-45
-53
-56
-51
-53
-52
-44
-31
-31
-48
-59
-54
-54
-48
-53
-55
-46
-46
-48
-48
-48
-58
-56
-54
-52
-57
-59
-44
-49
-50
-51
-51
-52
-51
-47
-45
-45
-42
-42
-37
-40
-46
-36
-29
-37
-38
-40
-43
-48
-39
-37
-40
-38
-32
-39
-40
-36
-35
-44
-46
-44
-42
-45
-49
-51
-51
-49
-49
-51
-55
-50
-40
-38
-44
-45
-53
-54
-51
-54
-59
-55
-58
-58
-59
-56
-55
-55
-51
-41
-41
-37
-42
-44
-58
-64
-56
-48
-58
-58
-60
-64
-74
-77
-67
-59
-45
-33
-20
-5
5
23
50
77
116
145
181
201
196
183
174
162
152
126
104
80
62
60
34
-13
-53
-78
-86
-83
-78
-75
-63
-57
-55
-50
-54
-50
-44
-52
-59
-55
-43
-39
-43
-56
-43
-35
-39
-45
-54
-60
-51
-44
-43
-43
-43
-43
-45
-40
-41
-41
-45
-47
-37
-20
-28
-36
-33
-43
-43
-34
-43
-43
-39
-42
-39
-39
-34
-34
-35
-40
-38
-32
-26
-22
-24
-22
-22
-27
-28
-27
-22
-24
-23
-21
-25
-26
-29
-20
-17
-16
0
-9
-23
-18
0
-1
-6
-3
-1
-3
-1
5
8
0
-10
-6
-3
-5
10
18
9
16
21
21
31
26
26
24
20
25
28
29
34
33
34
31
38
47
46
35
34
37
36
38
33
28
29
27
33
29
28
35
31
32
34
30
22
18
10
-13
-13
8
-1
0
-12
-14
-20
-20
-20
-29
-28
-20
-22
-30
-31
-28
-32
-37
-37
-28
-33
-36
-31
-36
-26
-28
-30
-29
-38
-44
-33
-36
-41
-45
-48
-37
-37
-35
-42
-37
-31
-33
-37
-33
-32
-32
-29
-33
-34
-39
-38
-34
-38
-35
-38
-43
-37
-32
-32
-31
-30
-32
-29
-36
-42
-37
-29
-32
-32
-36
-37
-38
-40
-32
-25
-27
-29
-36
-34
-28
-37
-44
-35
-38
-46
-43
-45
-46
-28
-34
-41
-37
-42
-44
-52
-53
-54
-56
-54
-52
-49
-49
-46
-58
-63
-63
-59
-57
-56
-44
-44
-49
-48
-46
-45
-51
-49
-44
-38
-41
-39
-44
-42
-50
-67
-63
-49
-48
-48
-47
-46
-45
-40
-43
-50
-53
-48
-48
-39
-38
-24
-15
-34
-52
-68
-74
-66
-59
-52
-45
-48
-49
-50
-42
-38
-42
-46
-46
-44
-36
-36
-41
-45
-49
-57
-51
-52
-61
-55
-52
-47
-46
-49
-47
-53
-52
-43
-44
-37
-38
-48
-52
-41
-44
-56
-46
-40
-50
-49
-47
-44
-47
-49
-47
-43
-43
-45
-44
-49
-46
-49
-49
-50
-56
-56
-45
-43
-40
-38
-48
-38
-39
-48
-50
-60
-59
-61
-55
-56
-59
-46
-42
-47
-40
-43
-43
-35
-32
-42
-37
-39
-41
-39
-46
-44
-38
-39
-31
-31
-31
-29
-39
-35
-32
-35
-37
-45
-42
-34
-29
-25
-29
-38
-36
-42
-51
-56
-47
-43
-46
-41
-41
-51
-57
-60
-53
-45
-45
-40
-41
-45
-48
-50
-53
-53
-50
-53
-49
-47
-37
-44
-43
-54
-52
-50
-55
-57
-50
-47
-57
-59
-62
-63
-69
-66
-57
-46
-22
-7
4
5
23
38
69
110
146
175
187
199
199
184
178
164
136
123
111
85
50
32
5
-27
-55
-74
-72
-63
-58
-59
-56
-59
-57
-51
-53
-45
-34
-31
-33
-41
-39
-41
-42
-51
-51
-44
-42
-46
-45
-45
-41
-35
-34
-33
-33
-42
-37
-37
-38
-37
-44
-47
-44
-46
-47
-45
-30
-20
-22
-22
-21
-24
-23
-30
-35
-34
-37
-38
-37
-34
-27
-31
-29
-31
-21
-27
-15
-8
0
-11
-11
-18
-27
-23
-23
-23
-26
-17
-14
-13
-16
-13
-10
0
12
5
4
6
11
12
11
7
2
6
7
6
8
14
15
16
18
12
12
16
37
29
33
34
41
37
34
32
36
39
32
35
41
41
35
27
27
38
47
55
63
61
46
34
30
32
34
38
31
23
21
24
23
22
14
16
9
5
12
7
5
9
5
-3
-13
-18
-25
-27
-34
-36
-27
-25
-25
-22
-24
-25
-30
-25
-24
-28
-22
-10
-19
-31
-33
-39
-42
-33
-42
-37
-41
-32
-36
-35
-30
-31
-29
-30
-28
-25
-25
-24
-29
-22
-37
-35
-30
-26
-35
-34
-36
-29
-27
-21
-29
-27
-32
-43
-37
-34
-20
-17
-27
-34
-38
-30
-20
-27
-25
-25
-24
-27
-44
-39
-37
-33
-40
-33
-23
-27
-29
-36
-34
-37
-34
-37
-36
-31
-37
-40
-37
-39
-38
-34
-30
-41
-50
-56
-35
-31
-37
-33
-32
-29
-26
-29
-35
-33
-36
-38
-46
-39
-46
-45
-50
-43
-43
-38
-36
-44
-39
-43
-49
-49
-43
-32
-35
-34
-35
-31
-39
-46
-46
-56
-45
-44
-45
-37
-33
-35
-46
-46
-49
-42
-41
-39
-37
-47
-45
-46
-50
-55
-40
-42
-29
-26
-31
-45
-44
-46
-53
-48
-44
-39
-42
-46
-50
-43
-41
-45
-36
-31
-33
-34
-36
-37
-40
-45
-48
-49
-43
-46
-44
-49
-55
-49
-42
-42
-39
-41
-38
-47
-36
-33
-34
-41
-39
-49
-48
-45
-42
-47
-51
-49
-28
-41
-37
-32
-43
-43
-42
-46
-44
-38
-37
-38
-42
-42
-53
-53
-40
-47
-40
-38
-38
-42
-45
-42
-45
-46
-45
-56
-45
-41
-38
-43
-40
-41
-39
-38
-42
-39
-37
-42
-53
-48
-42
-44
-40
-38
-38
-44
-40
-41
-37
-36
-37
-49
-50
-44
-44
-41
-35
-40
-41
-42
-36
-32
-49
-57
-48
-43
-47
-54
-49
-46
-42
-39
-40
-32
-26
-30
-27
-30
-28
-24
-26
-33
-31
-39
-35
-38
-37
-38
-29
-29
-23
-18
-16
-24
-23
-26
-32
-34
-36
-22
-32
-37
-38
-44
-39
-37
-44
-42
-46
-41
-37
-37
-37
-38
-42
-42
-43
-47
-51
-44
-39
-38
-37
-35
-38
-36
-41
-45
-46
-42
-42
-47
-42
-39
-34
-35
-31
-38
-58
-60
-74
-66
-53
-51
-36
-13
-6
1
18
37
68
111
153
182
204
224
226
206
201
198
165
147
127
89
70
57
17
-33
-48
-51
-67
-49
-47
-49
-59
-63
-57
-60
-46
-38
-43
-41
-51
-39
-31
-32
-37
-34
-37
-34
-28
-31
-33
-34
-31
-22
-32
-32
-30
-23
-18
-24
-31
-35
-29
-21
-27
-23
-19
-22
-18
-21
-15
-7
-10
-9
-11
1
-5
-13
-12
-16
-16
-9
-7
-6
2
-1
-5
-9
-11
0
11
16
12
-1
6
9
7
9
6
16
19
24
21
17
17
22
31
39
37
30
34
36
37
38
40
49
50
40
34
41
37
44
52
49
46
48
44
52
46
39
31
29
36
41
41
41
40
41
39
32
25
20
19
17
20
18
9
3
6
13
5
-8
-4
4
-1
-3
-5
-9
-14
-19
-18
-21
-27
-25
-16
-11
-20
-30
-16
-15
-21
-17
-22
-31
-29
-26
-33
-30
-21
-28
-25
-23
-27
-28
-30
-33
-29
-18
-10
-20
-28
-22
-19
-28
-17
-14
-12
-17
-22
-20
-22
-25
-27
-34
-23
-22
-23
-16
-15
-19
-20
-17
-18
-19
-16
-18
-22
-28
-31
-29
-29
-21
-26
-30
-32
-32
-22
-25
-38
-22
-17
-22
-25
-24
-26
-26
-31
-33
-40
-41
-19
-27
-35
-36
-26
-31
-29
-28
-24
-35
-34
-37
-36
-37
-30
-35
-41
-38
-28
-33
-24
-26
-36
-43
-48
-33
-31
-29
-22
-29
-33
-47
-42
-37
-43
-36
-27
-31
-35
-38
-41
-32
-31
-29
-37
-36
-37
-37
-40
-27
-32
-41
-35
-44
-44
-44
-21
-25
-29
-34
-35
-31
-36
-42
-41
-41
-38
-40
-38
-36
-36
-34
-35
-36
-37
-38
-43
-40
-45
-32
-31
-39
-42
-19
-22
-24
-22
-33
-39
-48
-43
-37
-28
-32
-34
-31
-28
-28
-36
-38
-35
-23
-25
-25
-37
-42
-49
-45
-40
-42
-46
-38
-47
-35
-36
-38
-29
-27
-26
-33
-39
-29
-16
-25
-18
-19
-23
-26
-29
-23
-18
-17
-22
-24
-34
-32
-26
-24
-26
-33
-39
-33
-26
-25
-28
-22
-16
-21
-28
-36
-36
-37
-46
-27
-22
-28
-34
-34
-44
-48
-37
-23
-29
-33
-36
-44
-33
-28
-40
-37
-36
-41
-45
-37
-35
-35
-33
-36
-33
-31
-39
-48
-48
-42
-40
-42
-55
-54
-47
-40
-22
-5
8
24
38
52
77
118
153
167
167
190
204
192
177
155
138
102
81
58
55
44
20
-16
-40
-57
-58
-48
-46
-45
-43
-37
-46
-42
-49
-41
-41
-36
-33
-24
-20
-24
-27
-29
-26
-33
-45
-34
-28
-30
-31
-33
-39
-35
-32
-24
-36
-34
-24
-27
-19
-29
-27
-22
-21
-23
-23
-26
-28
-29
-28
-19
-14
-26
-27
-21
-27
-30
-27
-27
-27
-23
-21
-28
-24
-25
-18
-20
-11
-12
-7
-9
-2
-2
-4
-12
-14
-4
-6
-4
-13
-10
-10
-1
8
4
18
14
11
12
15
6
9
8
8
20
23
30
26
23
27
19
20
24
28
32
35
30
29
38
39
44
45
46
42
39
38
47
47
43
50
46
45
47
53
51
47
44
44
37
42
38
29
29
28
19
10
8
30
27
16
12
6
6
6
4
-5
2
-4
-17
-15
-21
-13
-14
-18
-17
-19
-22
-28
-45
-34
-3
-2
-15
-24
-33
-33
-30
-30
-25
-23
-17
-20
-22
-21
-23
-28
-29
-31
-43
-43
-30
-31
-17
-20
-15
-18
-17
-18
-25
-27
-22
-18
-23
-19
-24
-31
-38
-33
-30
-25
-25
-32
-33
-30
-36
-12
-9
-9
-13
-20
-21
-25
-24
-19
-20
-23
-27
-28
-27
-29
-21
-25
-30
-28
-21
-29
-26
-17
-13
-10
-14
-23
-38
-42
-42
-31
-28
-23
-24
-25
-25
-30
-35
-38
-38
-37
-37
-40
-32
-31
-27
-32
-38
-40
-29
-17
-14
-21
-28
-29
-34
-34
-36
-35
-36
-36
-37
-31
-32
-30
-44
-55
-24
-16
-14
-27
-22
-25
-29
-30
-30
-34
-33
-34
-24
-26
-36
-39
-34
-33
-47
-39
-36
-32
-34
-32
-34
-39
-41
-30
-34
-30
-23
-30
-35
-32
-38
-37
-36
-35
-36
-30
-37
-36
-24
-27
-24
-20
-28
-25
-20
-17
-21
-26
-26
-33
-22
-19
-20
-25
-24
-21
-22
-19
-13
-16
-17
-12
-17
-24
-28
-23
-23
-25
-30
-39
-36
-22
-13
-20
-19
-13
-19
-33
-37
-22
-20
-30
-31
-31
-30
-29
-31
-28
-34
-31
-41
-43
-39
-41
-35
-30
-33
-40
-38
-34
-37
-38
-43
-37
-37
-32
-36
-37
-43
-48
-59
-42
-42
-31
-21
-6
9
27
42
58
79
116
164
187
205
209
214
186
177
165
137
117
95
76
63
38
9
-26
-50
-54
-58
-58
-52
-48
-53
-63
-38
-25
-39
-32
-27
-28
-34
-29
-28
-28
-26
-28
-30
-33
-37
-31
-29
-21
-22
-27
-19
-11
-20
-19
-15
-20
-21
-26
-24
-24
-20
-19
-23
-24
-25
-26
-23
-26
-28
-34
-27
-15
-20
-3
2
-3
-5
-10
-18
-15
-14
-9
-16
-15
-10
-5
-5
-15
-14
-11
-1
15
4
-1
4
4
5
-5
-11
3
3
14
5
14
20
23
27
26
30
21
15
13
10
14
21
17
25
33
32
36
36
50
48
52
54
56
52
55
45
38
39
45
49
52
44
49
53
51
61
56
59
52
43
42
46
47
49
47
56
48
51
43
38
42
37
36
35
28
23
13
-1
-6
4
4
4
-5
-11
-9
-7
-3
-2
-3
-8
-3
-6
-14
-16
-16
-20
-27
-26
-24
-18
-25
-21
-18
-19
-17
-19
-9
-15
-5
-16
-27
-24
-12
-7
-2
-15
-15
-22
-25
-29
-23
-17
-19
-16
-13
-14
-23
-20
-6
-15
-13
-12
-23
-17
-19
-19
-18
-16
-16
-20
-17
-17
-14
-12
-17
-16
-2
-13
-8
-23
-25
-15
-18
-19
-16
-11
-14
-16
-19
-18
-21
-13
-11
-19
-23
-27
-35
-30
-27
-18
-19
-18
-10
-10
-11
-14
-15
-14
-20
-27
-31
-29
-23
-31
-36
-30
-41
-35
-31
-25
-20
-18
-5
-6
-14
-13
-13
-13
-13
-20
-22
-28
-37
-40
-23
-22
-27
-22
-19
-22
-37
-30
-24
-27
-36
-28
-19
-21
-22
-18
-21
-23
-24
-17
-21
-30
-27
-23
-33
-39
-28
-26
-25
-8
-20
-27
-22
-17
-22
-31
-30
-23
-21
-21
-26
-33
-27
-19
-20
-26
-23
-19
-19
-28
-27
-21
-13
-26
-21
-26
-27
-32
-28
-24
-19
-19
-23
-25
-21
-22
-21
-17
-10
-13
-14
-13
-10
-21
-9
-2
-2
-8
-14
-19
-17
-13
-8
6
-3
-8
-18
-19
-28
-20
-17
-15
-17
-20
-19
-11
-10
-16
-23
-23
-16
-22
-23
-29
-29
-29
-33
-33
-31
-33
-26
-27
-26
-24
-24
-32
-20
-20
-24
-22
-27
-24
-22
-26
-26
-24
-24
-38
-40
-46
-51
-54
-46
-32
-18
-6
9
27
37
49
79
105
143
174
201
205
220
209
192
178
160
139
118
93
76
54
30
-3
-20
-44
-45
-45
-41
-49
-48
-44
-41
-30
-23
-26
-19
-18
-11
-8
-10
-25
-23
-20
-19
-25
-23
-17
-31
-27
-27
-27
-29
-22
-19
-19
-19
-18
-20
-18
-19
-17
-11
-4
-6
-9
-22
-32
-24
-18
-9
-14
-14
-12
-10
-12
-14
-16
-8
-15
-11
-1
-6
-2
-3
-4
3
0
-1
15
-1
-2
4
4
0
11
10
9
12
16
9
10
14
13
12
14
18
9
14
15
16
20
25
22
24
20
31
33
44
41
42
36
39
44
46
52
60
53
51
51
50
52
58
58
56
46
50
60
60
53
57
61
62
59
58
59
58
61
54
54
59
43
41
43
46
45
48
44
41
37
20
24
27
18
17
5
4
5
4
-1
-4
-7
1
11
8
10
-4
-4
-4
-7
-11
-19
-19
-22
-16
-11
-16
-24
-18
-18
-12
-4
1
-2
-4
0
-14
-22
-20
-14
-16
-15
-13
-22
-18
-15
-2
-14
-13
-13
-11
-8
-18
-20
-18
-18
-11
-5
-8
-3
-6
-6
-3
-4
-9
-14
-11
-24
-21
-8
-3
-11
-17
-14
-14
-12
-17
-24
-25
-24
-13
-16
-14
-16
-18
-21
-19
-13
-23
-21
-28
-24
-20
-18
-11
-19
-21
-24
-22
-26
-19
-29
-32
-18
-18
-23
-21
-20
-13
-12
-14
-28
-22
-20
-19
-26
-25
-22
-11
-19
-19
-28
-23
-17
-30
-30
-28
-34
-33
-29
-30
-24
-24
-19
-27
-32
-20
-21
-22
-24
-35
-37
-32
-32
-28
-23
-31
-34
-31
-23
-25
-28
-18
-18
-23
-22
-19
-22
-24
-27
-24
-33
-30
-39
-46
-31
-29
-20
-17
-12
-22
-28
-21
-28
-27
-30
-28
-23
-25
-29
-17
-19
-26
-30
-38
-29
-33
-35
-36
-36
-33
-28
-13
-16
-20
-19
-12
-12
-26
-36
-34
-22
-13
-23
-21
-21
-18
-26
-32
-25
-32
-23
-27
-25
-25
-26
-24
-25
-21
-20
-23
-31
-25
-21
-26
-36
-25
-25
-32
-32
-20
-27
-28
-21
-27
-26
-30
-27
-24
-26
-30
-21
-15
-15
-22
-25
-25
-18
-19
-26
-31
-24
-26
-34
-29
-26
-29
-27
-27
-26
-23
-27
-29
-23
-20
-27
-29
-22
-20
-27
-26
-28
-25
-29
-30
-26
-18
-14
-23
-23
-26
-17
-21
-23
-19
-23
-27
-33
-28
-23
-14
-23
-24
-17
-17
-23
-20
-22
-19
-22
-23
-9
0
-4
-5
2
-1
-16
-11
-15
-6
-6
-4
-8
-13
-5
-14
-13
-12
-14
-9
0
0
-5
-4
-6
-15
-19
-18
-20
-16
-13
-10
-17
-16
-20
-23
-28
-23
-18
-18
-25
-20
-14
-15
-19
-22
-20
-22
-20
-27
-21
-19
-26
-27
-29
-25
-21
-26
-22
-21
-24
-21
-24
-22
-39
-40
-34
-31
-17
-6
10
27
45
61
95
134
177
206
233
241
239
236
232
214
187
158
143
110
95
68
39
-2
-21
-38
-47
-42
-39
-31
-35
-34
-35
-28
-25
-25
-23
-17
-17
-15
-19
-11
0
-9
-16
-11
-17
-19
-16
-21
-13
-16
-10
-17
-21
-20
-17
-16
-16
-13
-6
-13
-4
-4
-5
0
2
-7
-13
-11
-12
-5
-1
-3
-9
-10
0
-7
-3
-6
-12
2
11
8
5
-2
1
9
9
15
12
-1
-13
1
26
15
11
15
21
17
19
22
33
36
25
19
22
16
20
20
18
20
31
38
34
37
37
50
44
47
49
49
53
58
53
49
49
46
48
67
65
61
58
61
62
61
68
67
61
63
70
64
67
72
70
65
66
77
80
71
61
68
71
69
66
59
47
32
38
43
41
38
43
38
38
31
28
27
28
24
26
17
12
13
10
7
8
9
14
7
-6
-7
-1
9
7
8
9
13
-3
-3
8
2
5
-7
-8
-16
-11
-10
-11
0
-3
0
-1
-2
-3
-5
-4
-5
-5
-4
-5
2
7
-3
-9
1
-14
-15
-5
-3
0
-7
-16
-10
4
-12
-20
-14
-14
-15
-11
-9
-6
-2
-13
-12
-10
-7
-13
-1
-3
-10
-24
-22
-25
-22
-18
-22
-20
-18
-19
-14
-17
-20
-15
-12
-19
-24
-16
-15
-18
-19
-15
-16
-24
-16
-18
-19
-22
-23
-25
-23
-18
-21
-17
-17
-20
-23
-33
-22
-13
-19
-21
-13
-22
-21
-12
-13
-11
-13
-15
-24
-34
-37
-35
-40
-37
-30
-31
-31
-28
-28
-28
-33
-27
-27
-34
-29
-34
-31
-23
-19
-23
-23
-30
-21
-20
-18
-19
-26
-33
-26
-26
-25
-28
-26
-15
-26
-27
-17
-28
-28
-24
-28
-30
-25
-27
-32
-44
-36
-28
-25
-22
-20
-27
-36
-38
-30
-23
-28
-31
-27
-24
-30
-27
-22
-32
-39
-44
-32
-28
-19
-19
-24
-20
-19
-25
-25
-26
-30
-33
-33
-35
-34
-43
-46
-34
-16
-25
-28
-28
-33
-34
-44
-45
-39
-26
-24
-30
-29
-28
-28
-32
-34
-35
-31
-34
-27
-24
-23
-25
-27
-25
-26
-28
-25
-32
-41
-45
-37
-40
-31
-36
-30
-25
-26
-23
-24
-20
-15
-28
-33
-33
-31
-31
-26
-16
-20
-21
-16
-8
-7
-14
-13
-16
-19
-17
-12
-15
-18
-12
-23
-23
-21
-23
-18
-20
-23
-24
-21
-15
-11
-11
-31
-36
-30
-31
-35
-38
-35
-24
-29
-34
-33
-25
-28
-26
-27
-30
-30
-29
-22
-27
-32
-31
-40
-32
-24
-17
-22
-27
-31
-31
-30
-40
-43
-52
-57
-45
-40
-23
-10
-2
14
20
44
64
91
130
176
215
236
252
246
222
214
193
171
152
112
102
84
60
25
-19
-50
-70
-57
-50
-41
-39
-37
-25
-31
-24
-27
-26
-32
-27
-24
-24
-26
-32
-21
-17
-18
-29
-24
-19
-27
-22
-19
-20
-13
-12
-3
-12
-15
-29
-27
-19
-21
-26
-13
-15
-10
-10
-12
-16
-14
-4
-3
-12
-7
5
6
-10
-11
-5
-11
-13
-10
-6
-5
-5
9
14
5
5
10
-5
0
4
2
10
8
3
17
24
18
22
30
28
20
24
24
24
24
27
30
28
28
29
30
27
31
32
32
40
43
43
39
45
47
44
43
51
60
53
50
54
65
65
66
66
71
77
78
68
61
63
65
82
75
65
68
66
70
66
67
71
66
67
66
60
74
72
55
59
57
50
35
32
28
27
32
37
32
33
30
31
23
17
12
23
14
20
11
18
13
10
1
-6
3
16
19
8
9
11
3
-4
-2
-7
-10
-2
-1
-5
-5
-7
2
16
6
11
10
12
12
11
-1
-8
-11
2
11
4
3
19
11
3
4
-3
9
8
2
3
4
2
2
1
-9
-1
2
-8
-8
-18
-16
13
30
17
-1
-6
-11
-15
-11
-9
-11
6
7
6
1
-1
-4
-9
-16
-25
-8
-1
-7
-8
-3
-3
-11
-12
-2
-4
1
-3
4
-2
-4
-11
0
-5
-4
-2
-1
-15
-14
-9
-7
-1
-7
-13
-17
-14
-8
-9
-12
-7
-3
0
3
4
6
-1
-4
-6
-10
-11
-6
-3
-3
-3
-3
-10
-15
-6
-5
-7
-7
-7
-9
-10
-15
-6
-4
17
8
2
4
-2
-6
-12
-5
-8
-12
-13
7
-3
-7
0
-1
-2
-9
-7
-11
-11
-7
-8
-6
1
-7
0
-9
-19
-10
-7
1
-1
8
6
6
3
-7
-9
-7
-11
-16
-14
-5
-7
-1
0
3
-2
9
4
-4
-11
-10
-12
-8
-8
1
-1
4
4
-3
-6
-2
6
-1
-1
6
4
-1
1
-1
18
10
18
13
20
28
26
8
13
11
15
10
13
4
6
4
9
9
5
3
7
8
15
13
10
5
0
-3
-13
-8
-9
-8
-1
1
-1
2
8
2
0
1
-8
-10
1
2
-4
-1
1
1
-16
-14
8
-14
-26
-6
4
5
-4
-12
-11
-12
-19
-6
8
21
27
45
64
93
110
147
175
217
256
262
255
238
229
200
172
149
122
101
76
53
31
-1
-21
-30
-33
-21
-23
-28
-41
-29
-19
-16
-16
-10
14
2
9
14
6
5
13
10
6
-5
-11
-3
11
11
14
19
15
12
5
-2
-1
8
13
20
23
25
17
18
14
17
6
2
11
17
28
27
23
15
13
-1
-2
14
26
30
39
34
23
17
24
28
33
30
32
33
30
34
27
31
38
39
44
52
41
25
35
42
44
45
41
48
42
47
61
56
57
60
53
53
56
50
58
64
65
63
84
70
71
75
73
67
62
80
88
84
86
82
86
82
64
77
73
73
80
81
92
100
90
82
74
73
75
94
71
61
61
72
62
73
75
76
66
75
72
76
71
58
51
52
44
45
41
37
36
20
18
19
22
13
19
31
29
37
29
19
10
4
8
14
10
10
6
13
20
21
24
26
11
5
1
7
28
33
18
12
7
26
29
24
10
21
25
10
1
12
22
11
3
7
26
25
17
22
12
5
12
18
12
12
15
11
8
13
20
25
16
7
8
21
18
11
0
16
24
16
0
7
16
11
10
14
10
13
17
5
-1
5
4
-2
-4
7
17
10
8
13
16
6
5
17
9
10
12
10
0
1
-7
-2
3
19
14
8
8
5
12
14
6
5
12
11
8
1
-6
-14
-8
4
21
17
8
1
-6
-7
4
5
5
8
4
4
2
-7
-5
7
11
11
13
15
12
4
0
4
12
8
0
-3
3
9
17
12
13
6
-4
-5
-7
-7
4
19
12
8
14
21
25
31
31
37
24
6
5
-1
7
6
14
11
9
18
19
23
35
25
20
17
15
7
12
8
6
10
5
-2
8
6
19
12
8
10
6
8
4
-1
6
1
-2
-2
2
7
7
9
-3
6
13
12
-5
-1
4
1
6
0
0
1
-7
-12
-18
-34
-12
-4
17
20
42
69
71
73
82
103
133
176
200
203
232
242
238
219
196
176
164
149
133
107
73
54
21
-4
-21
-26
-13
-9
-13
-14
-1
2
6
0
19
24
8
0
-2
3
2
0
4
15
13
2
1
2
5
23
25
16
32
28
11
4
8
12
7
1
11
9
17
16
25
29
32
18
10
8
0
1
6
8
14
16
20
30
30
18
23
26
31
26
26
28
21
27
28
27
33
31
30
33
32
44
42
42
36
30
40
35
24
34
38
40
57
61
60
43
50
53
53
54
51
57
65
66
66
65
78
72
70
77
83
88
83
81
75
71
78
77
79
74
87
92
78
79
83
87
94
93
82
77
84
82
76
74
76
80
75
67
41
25
64
81
74
59
53
46
43
41
41
41
40
34
32
35
23
20
7
1
1
-3
-5
6
12
-2
-1
10
9
9
11
12
10
9
5
6
5
2
-2
0
4
6
6
6
0
12
15
9
8
4
7
18
14
4
-5
-10
-18
-15
-15
-13
-10
-14
-10
-8
18
17
15
23
12
10
6
6
0
-13
-6
-9
-9
-7
-13
-13
-13
-11
-5
-1
-2
4
7
9
18
1
-8
-10
-15
-16
-15
-10
-17
-18
-9
-17
-13
2
-2
0
-5
-19
-23
-12
-6
-9
-10
-13
-8
-10
-14
-18
-10
-13
-12
-9
-2
-5
-8
-10
-19
-19
-26
-24
-11
-11
-2
0
14
5
-7
-16
-29
-25
-24
-20
-20
-13
-10
-10
-13
-7
-7
-3
-4
-3
-7
-3
3
10
-3
-3
7
6
0
-6
-6
-12
-10
-6
-8
-15
7
9
10
9
6
-2
-5
-7
-18
-18
-16
-25
-25
-18
-20
-20
-23
-23
-7
-10
-11
-15
-12
-9
-17
-27
-21
-22
-22
-28
-20
-29
-19
-15
-19
-23
-20
-8
-12
-18
-21
-17
-17
-12
-15
-11
-12
5
19
38
67
83
118
167
207
227
237
240
228
215
198
173
161
129
99
63
38
19
-1
-25
-43
-43
-40
-36
-35
-31
-29
-24
-27
-24
-22
-8
-5
-4
-4
-1
-15
-10
-15
-14
-17
-26
-15
-17
-14
-7
-8
-12
-11
-11
-10
-3
-5
-7
-6
3
-14
-10
-22
-17
-1
2
0
3
-1
4
2
0
-2
-1
7
10
9
-8
1
14
6
17
20
-3
-3
1
3
4
19
16
10
5
11
8
11
11
16
16
16
23
25
21
26
32
31
32
30
29
33
34
29
34
35
34
39
41
37
52
49
57
62
58
55
55
61
61
62
53
47
50
58
65
65
66
72
69
65
68
66
71
72
70
67
62
66
63
59
62
60
54
52
47
45
49
45
39
37
39
34
26
34
25
29
15
3
-1
9
7
1
2
7
9
2
-1
0
8
-2
0
-1
-3
-3
0
-5
-5
-3
1
0
-8
-6
-11
-5
-10
-8
1
2
6
-3
-7
-7
-7
-11
-1
2
6
-1
2
0
-10
-12
-13
-14
-14
-11
1
3
9
10
3
-13
-9
-6
-4
-5
-3
-10
-7
-3
-9
-11
-6
1
-3
-4
-8
-15
-6
2
-4
-8
-6
-17
-17
-3
-14
-7
-5
-21
-23
-22
-3
-5
-19
-22
-15
-25
-13
-12
-18
-13
6
1
-6
-18
-20
-16
-13
-12
-21
-16
-28
-33
-15
-9
-18
-16
-20
-13
-9
-19
-16
-9
-14
-9
-19
-18
-10
-35
-33
-25
-14
-20
-17
-12
-4
-5
-16
-12
-12
-20
-21
-19
-22
-22
-19
-22
-25
-23
-10
-9
-12
-20
-26
-27
-20
-15
-26
-30
-23
-19
-14
-11
-9
-11
-14
-8
-9
-23
-33
-27
-24
-24
-20
-24
-21
-15
-14
-14
-16
-19
-17
-19
-23
-29
-20
-17
-16
-20
-16
-33
-22
-8
-11
-23
-13
-11
-21
-26
-17
-11
-8
-14
-29
-23
-23
-20
-22
-21
-28
-21
-18
-17
-16
-15
-22
-21
-20
-13
-8
-16
-23
-23
-21
-16
-18
-21
-25
-29
-28
-19
-27
-14
-14
-18
-26
-16
-11
-24
-22
-25
-26
-26
-19
-14
-16
-26
-28
-26
-22
-10
-11
-14
-10
-14
-16
-14
4
-8
-8
-6
-3
1
5
5
-5
-12
-6
-13
-15
-14
-12
-8
-8
-4
-7
-1
-5
-8
-5
-1
2
-5
-25
-29
-23
-24
-24
-16
-18
-21
-25
-19
-13
-15
-9
-17
-34
-31
-30
-25
-18
-15
-16
-24
-19
-20
-20
-14
-13
-8
-5
-10
-22
-30
-26
-37
-36
-48
-46
-44
-34
-25
-1
19
31
59
68
79
102
147
191
218
236
244
242
225
208
187
160
136
113
109
83
54
12
-16
-35
-41
-37
-28
-32
-32
-25
-32
-40
-35
-41
-34
-29
-10
-1
4
-7
-22
-30
-24
-15
-13
-17
-16
-21
-29
-25
-28
-29
-7
5
5
0
-11
-17
-11
-11
-7
-8
-7
-10
-13
-20
-13
-4
-5
-3
-15
-8
-15
-14
2
-2
-3
-7
-6
-3
-3
0
0
17
21
12
1
6
5
9
13
9
9
8
11
4
-7
11
22
23
28
26
28
24
24
25
25
24
25
26
24
31
32
25
26
34
37
39
42
41
41
41
46
48
51
53
56
52
54
54
64
67
53
46
44
58
72
68
57
56
62
62
60
55
68
68
67
63
55
54
52
52
59
59
57
41
31
33
44
38
33
44
30
18
11
20
20
9
13
11
13
15
12
18
11
7
7
-4
2
6
-3
1
2
-2
2
6
6
10
11
3
-6
-9
-11
-21
-17
-6
-5
-3
-1
-11
-16
-12
-5
-3
7
6
6
6
9
11
4
3
0
-2
-3
-6
1
15
15
2
-2
2
4
-4
9
10
3
-1
1
-3
-3
-3
4
-10
-7
-8
-17
-25
-14
-7
-10
-20
-13
-8
-8
0
-9
6
4
-5
-4
-8
-4
-7
-14
-4
-3
-6
-1
-1
-3
-1
-16
-12
-10
-10
5
-1
2
-2
-5
-6
-12
-14
-10
-5
-20
-16
-11
-15
-16
-16
-8
-6
-11
-18
-15
-7
-7
-11
-17
-20
-25
-19
-11
-14
-13
-13
-14
-20
-9
-7
-5
-7
-3
-4
-8
-16
-21
-12
-13
-17
-21
-15
-11
-11
-16
-15
-11
-13
-17
-14
-19
-18
-23
-20
-19
-19
-6
-13
-14
-19
-16
-5
-7
-17
-17
-9
-4
-16
-19
-25
-13
-9
-5
4
-2
-8
-12
-14
-10
-12
-13
-12
-8
-10
-17
-27
-30
-31
-25
-10
-8
-9
-14
-13
-13
-15
-9
-12
-17
-18
-14
-5
-9
-12
-26
-46
-8
8
13
24
5
1
3
8
7
0
-3
2
-4
-2
-1
-7
-8
-6
-4
-3
-3
6
-15
-7
-5
-9
-14
-10
2
-1
-3
-5
-2
-6
-6
-10
-17
-13
-12
-16
-22
-11
-4
11
-1
-17
-12
-15
-17
-15
-20
-20
-14
-14
-15
-13
-12
-4
-10
-22
-17
-26
-25
-5
-9
-20
-22
-30
-25
-34
-33
-27
-23
-15
2
17
29
47
60
89
132
175
211
234
243
239
222
205
187
166
142
120
103
84
68
31
-9
-30
-42
-39
-43
-44
-35
-35
-28
-30
-14
-5
1
5
3
3
-9
-19
-32
-24
-14
-16
-15
-14
-22
-21
-18
-23
2
18
20
18
3
-7
-19
-11
-10
-17
-16
-8
-2
-2
-3
-9
-11
-14
-11
3
30
33
23
11
6
3
0
-4
2
0
5
1
-5
-18
-14
6
16
23
31
19
25
22
9
9
11
11
12
19
23
17
14
16
10
12
27
39
30
35
38
33
33
37
40
37
32
39
45
46
36
44
59
53
58
56
51
55
54
56
60
60
50
52
78
67
47
60
51
54
54
60
60
61
59
64
64
70
66
59
63
58
55
51
52
57
51
41
46
43
38
34
37
29
30
32
26
20
15
11
11
12
9
9
12
14
14
12
3
-9
2
10
9
1
1
-9
-3
-3
-9
-6
-1
-1
-5
-8
-5
-5
0
1
7
17
2
3
4
-9
-7
-11
-3
5
11
14
-4
6
12
3
4
-3
-8
-12
-7
4
8
-2
13
7
10
13
16
1
-6
-2
-5
-12
-12
2
-1
-9
-13
-6
0
1
-7
-4
-5
-9
-7
-4
-4
0
10
-1
-3
-2
-9
-6
-8
-7
-8
-11
-8
-9
-16
-9
1
1
-19
-9
-8
-4
-4
-8
-14
-14
-14
-9
-9
-10
-15
-4
-8
-7
-16
-20
-2
-9
-19
-24
-15
-14
-7
-13
-11
-5
-10
-19
-23
-16
-8
-8
-1
-10
-19
-25
-22
-5
-15
-16
-17
-11
-9
-20
-23
-18
-14
-12
-9
-4
-1
-8
-11
-4
-8
-17
-11
-7
-8
-10
-11
-16
-16
-8
-7
-17
-12
-11
3
-11
-13
-23
-25
-17
-9
-11
-9
-18
-12
-8
-8
-10
-6
-12
-17
-14
-14
-15
-19
-23
-13
-13
-14
-9
-7
-14
-8
-6
-6
-12
-15
-16
-9
-11
-4
-7
-12
3
-5
-23
-21
-15
-12
-14
-6
-14
-15
-12
-6
-4
0
-13
-9
-11
-3
-5
-14
-12
-12
-28
-34
-23
-12
-10
-11
-3
-11
-7
-4
-5
1
-6
-3
1
-1
-11
-12
-11
-9
-4
11
3
-5
1
-2
-2
-1
5
13
4
11
3
-5
-15
-5
6
-2
-1
2
3
-1
-2
-6
7
5
0
2
-4
-12
-11
-4
-15
-12
-12
-14
-7
-5
-5
-8
-14
-10
-4
-2
0
-8
-4
-8
-11
-14
-8
-7
-13
-19
-5
-7
-9
-18
-22
-15
-13
-15
-17
-27
-26
-20
-19
-20
-4
10
19
33
55
70
85
131
177
216
237
246
245
235
225
207
191
174
145
125
108
87
62
24
-6
-30
-38
-30
-25
-26
-27
-27
-20
-14
-14
-6
-8
-15
-5
13
6
-5
-4
-7
-13
-3
-1
0
-4
-3
-8
-12
-21
-18
2
9
12
17
16
13
3
-1
-7
-6
-12
-10
2
10
11
16
12
11
13
0
-12
-4
20
21
21
7
3
8
11
13
17
19
14
16
17
14
19
15
22
29
25
28
34
16
11
29
37
40
35
26
26
25
24
35
45
49
45
45
49
51
51
54
52
43
40
42
49
57
60
61
63
57
62
67
69
72
72
74
75
68
71
69
69
74
76
73
73
75
74
76
72
74
80
89
98
82
66
72
56
53
61
60
57
53
52
52
54
54
46
47
50
35
35
29
25
7
19
33
28
24
22
18
27
16
18
18
7
1
-9
-3
4
9
10
15
16
1
6
16
17
13
20
22
17
5
-12
-7
1
5
3
6
15
9
9
9
18
14
6
14
0
8
9
8
10
14
18
17
11
11
19
22
16
8
20
6
7
9
15
9
5
8
0
-2
2
12
13
8
6
6
6
3
6
8
-6
1
-6
0
-5
-4
10
8
7
3
4
6
0
5
7
0
-18
-4
6
4
3
-3
-3
-6
9
13
9
6
-4
-4
1
-3
-1
-8
6
5
-3
-14
-5
-3
-1
8
5
4
-7
-5
-6
-7
-1
-9
-4
-1
-6
-13
-2
4
-1
-3
-2
-5
-9
-6
-2
4
-4
1
-7
5
7
9
15
13
6
-5
-12
-6
4
3
-1
-5
-4
-5
-18
-13
-11
-17
-1
10
13
16
8
2
-10
-14
-10
-7
-18
-12
-11
-9
-12
-5
1
-1
9
19
6
-7
-1
-4
-4
-4
1
-7
-3
6
4
5
-3
6
0
3
-9
-12
-14
-6
6
-5
-14
4
-9
-9
-6
3
7
7
4
3
-3
1
4
-4
-8
-3
-8
-11
-3
-8
1
14
4
5
0
-5
-9
-10
-3
-7
-11
-10
-7
2
2
8
7
-3
-4
-2
-5
-6
-1
5
-2
0
-2
2
0
-8
-1
1
3
4
3
3
5
6
-1
-4
-1
-4
-7
-9
-4
-4
-5
-4
-2
-7
-5
-6
3
8
1
3
-4
3
17
16
6
5
-2
0
-1
-1
0
-2
3
6
-2
-5
1
-6
-11
-12
-7
-9
5
6
11
0
-3
-3
-5
-9
-3
-1
-4
3
0
9
1
7
15
19
13
12
10
3
9
16
17
6
9
14
7
11
6
15
25
25
10
12
8
7
0
8
10
7
14
14
16
19
20
22
21
21
11
9
-1
2
-1
-7
-2
-2
-2
-2
-2
-10
2
8
8
4
-1
2
4
8
4
-7
5
-1
-10
2
2
-4
-4
-2
2
16
17
9
5
-4
-10
-7
-7
-7
8
23
37
52
80
104
135
169
202
237
255
266
263
255
239
215
187
169
147
117
96
68
41
18
-5
-22
-14
0
-3
-5
-8
-10
-3
9
1
-8
7
8
8
22
15
-5
-2
2
-4
-5
3
-1
11
20
9
5
10
12
7
1
0
13
9
14
16
23
25
17
21
15
-1
4
16
13
24
35
26
24
14
19
19
19
27
23
20
19
18
21
40
37
30
29
19
20
24
33
34
33
32
32
31
34
35
34
46
45
53
40
46
48
45
46
55
49
49
52
53
50
62
53
58
71
70
72
75
73
65
64
74
68
76
81
81
74
81
77
83
95
86
85
86
87
88
91
84
85
93
94
85
80
83
89
82
81
82
86
89
87
82
75
71
70
71
68
62
65
63
61
53
64
59
56
43
38
31
39
49
38
30
27
20
9
16
14
27
29
33
30
35
27
14
12
17
15
13
22
21
16
20
18
18
19
18
20
21
21
13
17
18
14
15
30
23
28
32
24
16
12
25
24
22
16
17
9
10
29
25
35
35
23
17
21
18
16
10
11
7
14
16
21
20
16
18
19
23
21
11
13
13
13
14
5
5
16
13
23
18
16
24
14
9
9
12
18
17
8
14
10
-1
-2
-2
12
16
21
10
7
15
3
6
7
5
8
13
19
16
8
4
5
2
3
0
4
-3
3
4
2
2
25
16
1
6
12
9
0
7
4
7
16
12
5
7
11
2
-4
-5
13
11
11
8
-3
2
5
-4
9
8
3
6
4
4
-2
3
17
12
14
12
7
-5
-4
-7
8
13
18
13
13
11
9
0
-3
-3
3
1
10
7
11
11
12
17
19
14
1
4
11
-2
-1
6
6
8
0
-1
1
2
2
6
3
3
15
15
4
5
12
10
5
7
12
9
8
2
8
6
6
14
19
16
17
1
-1
-3
-5
6
7
-2
0
5
12
11
5
1
11
5
-1
5
4
1
-1
-4
4
4
8
8
7
6
21
29
25
10
2
1
0
4
2
14
15
13
9
6
-2
4
2
-2
3
7
0
3
9
1
8
18
13
4
14
10
2
5
1
10
8
7
2
5
3
-2
2
6
18
20
28
17
4
-3
4
4
1
2
5
12
16
-3
-4
3
10
13
13
10
13
5
9
10
8
3
-1
-2
-4
-2
-1
-10
3
13
18
15
13
15
23
14
5
1
-1
8
14
8
16
19
11
7
26
29
22
21
10
15
20
7
15
13
11
10
11
20
23
22
15
16
18
15
13
7
18
25
31
27
19
11
3
2
4
14
10
12
12
14
12
9
12
10
6
7
-2
3
1
-3
5
11
-3
3
-3
10
2
5
-2
-8
2
0
4
7
3
1
6
2
-14
-22
-15
-6
-13
0
21
46
52
71
98
129
154
189
233
260
274
282
274
254
237
212
199
169
157
123
103
67
36
6
-18
-20
-19
-17
-14
-10
-12
2
0
2
13
15
11
7
14
12
12
-2
17
34
29
12
3
6
13
18
20
15
21
16
16
24
13
16
12
19
20
18
16
16
10
18
24
25
25
24
21
20
18
23
17
16
18
21
30
37
32
34
36
40
29
34
26
31
29
36
35
30
48
59
61
46
53
37
43
39
38
50
48
48
51
54
52
55
57
59
54
58
57
58
55
65
77
73
75
79
85
84
86
83
82
80
81
81
74
83
89
90
87
97
109
103
107
110
102
101
102
98
89
94
92
102
100
100
101
96
94
92
90
82
82
79
84
81
86
81
81
75
67
65
68
66
54
58
58
49
50
43
46
51
40
42
45
42
46
45
37
35
22
23
26
32
36
39
39
29
26
21
23
28
30
39
27
36
43
29
23
30
24
25
24
26
29
34
35
27
32
41
27
16
25
36
33
33
27
32
32
33
37
32
31
33
29
29
27
34
37
27
24
22
25
17
26
30
21
13
22
30
25
14
14
17
29
27
46
42
34
29
24
17
20
23
33
28
19
12
21
21
11
17
21
19
16
16
27
25
21
21
17
17
26
22
21
13
9
8
7
11
19
22
28
35
21
16
20
18
15
14
16
17
16
10
24
16
17
19
15
15
21
24
30
18
8
7
9
11
12
22
17
14
16
27
20
12
13
16
14
15
10
20
12
15
18
16
11
21
19
18
23
22
21
25
22
14
15
12
16
15
15
21
16
31
34
23
6
14
12
3
9
7
17
19
20
26
20
13
18
17
15
14
10
13
12
22
12
2
3
9
19
25
18
20
25
23
25
22
13
23
35
28
12
11
5
3
11
14
21
26
19
19
20
22
10
12
15
17
12
7
7
14
23
21
21
13
18
19
22
15
15
15
13
16
12
17
13
22
12
15
20
16
16
18
21
18
9
12
18
16
12
20
25
26
16
13
14
16
23
22
15
15
21
21
22
18
14
7
12
16
14
20
30
28
25
24
18
18
21
21
23
23
30
36
40
27
31
33
35
19
26
30
30
23
19
26
27
28
28
25
27
30
34
34
29
26
37
27
13
27
23
26
21
16
19
17
21
26
24
12
8
10
15
20
17
10
27
24
10
14
19
21
16
13
14
15
11
8
11
9
19
25
22
6
5
9
14
25
31
49
49
62
91
107
146
182
224
259
284
287
277
255
234
209
182
157
127
107
86
55
26
1
-16
-12
-1
0
-6
-13
-13
-1
3
3
17
19
19
17
11
21
16
24
26
22
19
15
16
20
20
17
19
22
24
26
25
30
32
36
30
21
27
35
39
45
33
33
23
17
27
34
27
30
37
29
36
36
43
41
35
38
49
36
39
38
46
33
36
41
39
44
46
41
45
51
44
54
56
54
54
55
52
49
56
59
65
60
65
70
73
71
67
67
69
66
62
58
74
90
92
83
77
88
88
82
93
91
89
87
84
84
85
86
101
112
112
106
104
105
102
96
88
88
91
95
97
92
98
105
107
98
88
99
89
77
75
85
88
94
86
81
78
73
58
63
57
56
59
48
55
52
43
45
48
45
45
43
44
41
36
32
26
30
30
24
29
27
25
32
38
35
28
30
36
29
33
24
28
34
35
38
36
37
33
28
28
36
30
26
28
25
33
30
29
31
33
42
45
32
26
27
30
27
20
32
29
28
41
48
36
30
26
25
25
28
32
31
27
25
23
28
27
22
26
27
21
18
22
22
30
37
35
25
31
28
24
22
23
25
16
13
18
21
20
24
26
24
26
30
27
23
22
24
15
14
16
19
20
15
20
18
18
13
28
29
25
23
16
17
19
18
23
14
13
7
12
19
24
23
21
21
19
25
20
24
26
21
15
22
24
19
29
28
14
17
21
22
18
21
13
16
14
7
14
16
14
14
22
38
35
29
21
12
16
20
16
18
14
12
16
12
12
27
40
35
25
21
12
13
4
18
20
12
6
15
24
13
16
18
19
23
26
20
16
14
15
18
22
21
24
14
13
21
22
15
17
23
28
31
43
49
34
25
12
2
8
4
4
14
8
10
18
17
24
33
27
37
29
26
20
19
20
14
15
14
10
6
3
21
20
20
20
12
22
22
28
31
23
28
31
28
22
21
24
33
40
32
28
29
32
27
26
32
40
34
32
25
24
31
25
26
31
33
25
17
22
23
34
44
47
45
31
29
18
24
21
18
18
8
12
13
15
21
26
21
20
24
23
20
18
25
28
16
18
16
17
22
21
20
20
25
30
20
10
-2
-14
-4
-6
10
15
29
44
62
70
92
107
135
174
218
254
279
290
276
254
244
216
208
191
169
143
123
95
67
32
19
-6
-13
-4
10
9
-4
12
20
10
6
13
21
34
31
31
22
19
24
25
23
25
27
31
35
33
32
33
30
25
23
25
31
33
36
32
31
35
44
35
35
38
36
31
29
43
38
29
37
40
41
50
49
46
44
38
45
55
61
49
47
42
48
48
44
49
53
54
59
62
62
56
57
52
59
63
65
67
65
62
63
67
62
68
73
67
67
77
85
91
86
81
87
78
75
76
86
94
104
107
95
100
111
115
108
101
103
104
100
100
108
104
104
105
113
122
130
135
124
128
126
112
103
107
111
105
96
93
100
98
102
107
99
93
101
99
96
90
73
67
72
73
61
60
55
56
50
62
52
52
64
61
52
44
40
47
43
39
32
30
34
41
36
32
35
41
38
35
33
32
38
42
39
34
33
37
37
42
34
43
46
43
40
39
44
48
39
36
33
30
29
44
45
43
44
43
31
38
48
51
40
48
48
42
34
40
34
35
26
31
33
36
45
39
40
38
28
40
43
42
41
39
38
33
33
34
47
49
44
34
29
25
26
23
25
26
30
24
23
29
27
37
38
32
34
39
41
37
30
28
25
29
29
39
36
27
23
28
29
32
25
34
31
32
25
18
35
32
24
21
25
22
24
25
33
38
22
20
26
22
31
39
31
37
33
24
20
26
23
27
29
21
19
28
31
29
33
30
23
32
27
14
21
25
20
23
27
27
36
30
27
29
27
35
31
22
22
24
35
36
24
25
18
23
27
24
29
29
24
26
25
40
27
29
37
27
23
32
33
19
16
31
33
26
14
25
26
28
36
24
32
39
25
25
18
26
27
24
28
30
30
31
28
30
28
26
30
26
24
25
24
27
35
25
24
21
33
28
35
35
21
17
33
37
31
31
31
29
15
16
25
25
24
31
26
23
17
21
36
37
27
27
30
24
22
20
15
16
24
27
29
30
38
40
39
31
33
43
42
37
38
34
31
31
31
41
41
51
50
47
37
31
31
27
39
43
34
33
28
30
34
36
41
51
40
22
15
23
32
36
33
23
29
22
20
15
13
31
40
33
33
29
23
26
16
16
15
15
17
9
12
20
24
26
28
26
21
17
2
2
6
18
24
42
47
62
88
109
133
163
211
260
291
287
285
289
277
260
233
213
187
165
140
123
103
59
27
9
-4
-14
-2
10
20
25
22
13
15
15
22
27
31
27
32
39
37
43
27
37
37
26
25
34
26
21
23
17
20
31
33
41
42
40
42
38
41
36
33
37
35
28
22
28
33
45
50
39
41
33
43
47
46
42
48
53
46
35
37
48
54
52
56
47
67
69
59
47
43
44
52
65
73
58
58
70
59
61
63
64
70
60
56
71
78
74
78
87
89
86
95
99
92
83
89
73
81
91
96
93
108
108
106
111
108
112
112
110
106
103
123
122
115
108
102
111
118
113
114
120
112
95
99
122
118
115
116
122
126
127
107
99
85
83
88
92
83
81
76
81
68
63
60
62
61
55
50
44
35
35
40
