23
26
26
46
51
33
26
19
30
34
25
24
31
40
31
18
21
31
41
37
26
29
43
31
25
18
17
19
33
19
16
28
37
33
45
29
30
24
14
29
35
30
34
35
41
39
35
33
13
18
27
28
45
17
18
24
27
31
32
49
44
18
27
27
30
34
37
30
29
16
6
14
29
35
32
24
25
33
24
21
26
27
32
34
38
23
6
5
11
33
39
41
33
39
32
23
29
19
20
25
30
36
45
15
9
14
23
32
27
31
12
24
28
31
24
18
19
14
4
5
25
48
46
41
23
24
19
16
13
22
20
14
22
21
22
42
38
34
46
43
30
28
25
22
15
11
12
10
1
13
23
35
33
41
37
36
25
21
25
33
24
21
23
20
23
32
38
35
23
30
35
28
32
13
6
13
17
28
37
26
29
30
37
30
53
32
43
39
37
33
33
40
47
47
42
50
48
30
36
41
35
30
35
55
45
39
38
30
29
26
18
10
11
5
22
39
41
36
44
35
28
25
24
28
16
18
20
11
16
8
14
33
29
13
20
34
28
30
28
21
16
30
37
35
19
15
27
24
29
10
13
26
30
47
15
12
7
4
25
32
25
24
11
6
0
5
20
32
54
73
90
112
140
176
206
229
241
251
253
229
200
166
147
127
84
67
44
40
41
23
10
6
15
5
-2
29
57
72
34
38
17
30
43
32
29
32
28
30
32
24
23
30
31
22
18
29
27
29
21
34
33
32
28
21
26
38
41
42
29
26
38
50
58
54
12
12
16
25
30
32
38
42
30
26
7
3
26
60
55
45
42
48
29
26
38
57
49
35
32
35
19
35
59
59
56
44
44
34
39
47
58
54
53
51
64
44
52
54
48
52
64
69
77
80
90
81
78
72
73
81
84
91
87
99
104
96
98
90
84
115
114
92
98
106
100
111
108
112
112
110
115
110
101
72
61
94
108
99
79
73
81
81
65
69
71
38
24
34
59
56
45
47
48
44
46
44
38
25
13
23
20
27
19
25
20
15
6
13
31
54
57
38
29
27
25
26
13
9
24
37
54
50
34
22
20
15
27
30
27
24
24
27
32
36
25
24
32
17
18
23
33
29
26
37
18
10
16
18
23
31
29
17
20
32
23
24
31
31
27
25
19
22
33
34
20
30
41
28
29
38
45
18
17
19
18
24
21
16
27
43
27
33
30
12
-5
23
59
47
40
29
33
25
30
36
30
22
21
23
15
19
20
41
58
20
-2
14
36
23
17
28
34
29
30
29
19
10
29
47
48
32
19
27
13
14
18
17
39
46
40
30
31
19
9
0
5
12
22
17
24
35
25
31
25
19
30
44
11
23
30
25
29
22
28
30
24
26
27
29
30
26
20
24
19
12
12
-3
29
48
49
29
25
32
43
30
12
-9
12
44
78
28
-3
18
15
8
18
17
24
15
29
38
27
26
25
17
3
24
46
45
28
25
28
29
28
27
25
25
37
32
36
17
5
4
22
39
33
31
27
33
32
19
19
30
23
20
23
34
24
29
33
40
39
38
42
52
44
32
42
63
67
46
24
42
64
56
55
37
37
33
41
38
19
12
5
5
11
23
25
24
26
31
21
20
12
22
37
35
30
25
29
41
45
29
18
4
15
28
41
4
-1
9
18
11
21
28
25
33
31
38
35
23
31
22
19
22
22
20
30
32
12
17
13
13
18
24
32
35
29
11
-6
-2
7
26
41
61
80
93
114
155
188
203
230
232
231
243
222
184
151
121
93
70
63
50
35
12
-6
5
28
55
43
39
56
35
18
18
31
25
27
29
28
25
28
36
28
17
5
16
35
52
60
33
15
23
24
27
37
33
25
20
15
20
34
35
21
6
5
35
66
73
53
22
19
16
38
28
26
22
24
35
31
42
64
52
32
20
22
28
24
29
46
56
50
37
40
39
51
52
51
38
38
45
52
53
39
43
47
39
49
51
57
49
51
56
67
63
68
62
70
66
68
71
78
83
87
109
79
73
89
91
82
96
126
115
94
106
99
90
93
105
99
102
115
115
110
111
105
103
109
111
92
81
100
105
93
89
76
61
68
74
58
57
70
62
73
56
42
29
35
40
27
25
38
45
43
39
37
48
56
17
-2
4
19
26
24
27
24
6
11
23
35
18
31
41
43
34
23
15
23
18
24
38
32
19
15
32
32
30
38
40
25
22
11
17
21
20
23
26
25
32
31
24
25
25
19
19
22
22
21
14
22
43
44
34
29
28
18
1
28
49
47
35
34
48
30
14
12
25
18
9
13
29
35
30
23
27
22
42
29
14
1
24
30
28
26
25
17
11
17
32
30
20
17
28
29
27
26
18
36
32
32
27
20
20
24
24
14
20
19
26
15
31
40
41
21
22
31
34
32
18
-4
15
17
12
14
17
23
21
38
48
43
21
7
23
21
19
20
18
21
15
19
23
30
15
1
34
34
26
24
29
39
41
36
14
-4
-16
4
29
42
32
27
24
8
19
25
28
28
11
28
36
24
28
9
10
24
27
15
16
22
31
27
17
19
26
31
26
14
19
18
9
8
27
39
38
28
-3
9
15
24
24
22
21
19
18
23
23
19
21
18
4
12
23
25
21
23
24
21
20
29
27
29
20
17
17
17
17
30
29
26
24
29
16
21
55
39
40
42
28
36
47
37
36
26
40
49
39
32
27
26
27
36
33
27
37
43
42
40
40
37
32
13
0
10
24
19
19
14
26
27
18
3
3
28
42
53
31
31
8
13
13
19
15
29
21
21
26
17
8
17
27
38
12
10
16
18
16
13
17
21
20
13
7
12
28
35
32
42
31
9
12
4
-8
0
33
27
6
7
26
33
32
49
66
98
127
161
179
213
239
245
239
228
183
159
139
113
84
60
44
36
33
20
17
29
41
20
20
31
10
3
25
28
18
13
16
50
40
27
10
21
35
16
12
31
44
28
24
35
40
41
26
19
13
19
33
6
21
26
21
20
45
32
22
17
22
27
35
20
23
30
38
31
25
20
29
29
24
30
36
34
33
28
32
40
33
38
20
16
25
27
20
46
68
52
36
11
37
43
51
45
37
35
44
48
28
28
69
83
59
56
80
89
83
27
45
56
64
78
84
91
64
54
51
67
71
92
97
99
86
95
96
95
93
93
94
98
93
87
99
103
105
100
110
121
113
100
112
121
87
72
67
57
60
68
61
60
58
61
62
67
47
45
34
16
30
23
18
36
30
23
24
23
37
39
51
36
48
38
25
-6
-3
6
22
19
18
22
13
-1
3
42
34
30
31
17
3
2
4
1
-6
-2
23
36
22
21
20
22
26
38
30
16
19
30
11
1
4
23
34
28
23
19
10
1
8
25
28
23
16
17
32
29
23
3
12
10
21
34
26
22
24
7
18
26
7
5
13
7
13
43
41
20
23
33
30
30
16
20
28
21
17
20
4
6
17
18
11
29
22
18
24
34
33
24
5
14
2
3
16
21
31
30
31
10
6
5
17
4
6
22
29
11
10
24
32
19
7
10
17
25
20
21
16
18
20
13
19
16
13
14
31
32
2
12
21
15
24
26
11
14
10
14
18
-12
-12
14
25
23
16
11
24
18
5
14
27
20
14
14
8
23
26
19
-9
8
23
19
13
10
13
5
11
12
17
28
17
17
21
32
5
8
12
8
12
15
19
13
20
14
5
9
5
6
30
27
25
25
26
22
21
10
2
24
32
48
25
31
25
32
34
30
26
25
29
39
44
29
43
23
13
26
16
6
14
12
11
18
21
22
15
13
6
7
11
17
14
27
25
14
12
9
8
12
5
11
1
0
-3
18
24
27
30
25
11
7
8
19
11
4
22
13
2
1
1
2
4
11
21
34
27
17
-3
-8
-3
14
16
15
18
21
13
-10
-15
-17
-19
9
59
77
87
111
138
166
186
213
224
220
211
180
159
144
103
54
41
16
-2
-6
19
18
10
15
16
24
30
38
36
22
4
17
18
14
6
15
15
16
18
14
15
24
21
17
18
19
24
26
17
10
5
-6
-9
12
44
59
34
26
21
37
34
39
10
20
19
13
8
16
28
32
30
38
41
29
12
12
25
35
16
19
13
14
36
44
38
28
24
31
30
37
36
34
22
9
19
27
31
36
39
36
49
50
54
40
50
44
42
51
63
59
56
66
50
44
58
55
65
79
76
80
73
81
81
89
83
72
85
105
93
94
94
79
94
104
101
112
113
98
107
94
81
104
119
112
95
83
82
81
75
77
70
57
48
58
73
79
55
55
56
41
36
32
26
36
29
26
22
15
6
23
35
36
35
28
22
27
19
-3
-7
3
22
36
40
30
9
-4
10
17
26
1
1
16
23
19
14
-1
5
13
13
21
19
31
23
10
-2
1
2
17
10
-10
16
34
24
10
13
17
23
20
17
8
35
26
29
12
19
11
5
17
21
16
14
13
12
3
18
22
5
3
-3
8
25
20
19
16
9
23
13
15
15
17
25
29
21
16
-1
9
11
13
22
19
14
14
22
20
22
16
3
10
2
-6
2
28
36
26
19
21
29
5
9
8
1
-12
5
27
27
22
15
22
6
-4
5
-4
26
31
15
-8
0
18
33
14
5
2
5
26
29
23
9
22
5
7
5
19
21
20
9
3
9
12
3
14
25
18
-9
-14
5
26
24
24
10
0
-1
9
13
21
29
31
7
10
15
17
8
13
14
15
19
25
20
11
-3
11
14
11
10
3
4
13
17
21
5
-12
1
6
24
33
28
11
27
-14
5
26
29
29
31
40
36
42
31
12
11
29
30
46
39
41
34
15
21
23
24
21
24
22
22
20
21
10
-7
-8
-20
-6
15
20
25
18
11
-10
15
10
19
28
14
12
9
6
4
4
13
11
7
4
7
22
5
6
14
18
23
13
-10
2
14
17
4
-4
5
-6
-3
1
0
30
39
28
10
-9
-8
-11
-16
-7
10
-10
5
18
37
49
47
67
98
130
160
201
224
234
228
217
190
166
147
121
71
46
32
22
7
2
-1
16
11
-4
10
21
22
-2
-15
6
42
37
36
7
-8
6
13
16
14
6
-4
3
9
16
15
18
21
24
24
25
17
24
8
7
16
12
-4
1
4
23
28
23
9
11
24
39
33
35
36
1
-18
3
15
25
25
13
14
20
30
30
29
23
15
24
37
34
3
4
29
38
28
46
24
20
22
28
28
31
34
40
37
42
47
54
43
16
45
57
48
47
43
37
54
60
59
68
59
44
61
65
69
55
74
74
86
88
94
96
90
80
83
107
95
87
80
84
81
89
101
95
100
102
101
93
90
86
81
83
61
66
63
59
72
63
54
50
54
51
31
27
26
27
26
22
16
15
24
23
21
19
39
36
26
29
22
16
-3
-11
-1
0
2
14
20
24
22
20
13
1
0
1
11
11
15
-3
6
8
11
15
6
6
16
15
16
20
22
23
2
-8
-8
-2
-5
15
10
5
21
20
15
20
24
21
18
-1
9
10
13
14
22
15
10
6
-10
10
15
12
13
16
19
16
12
17
30
13
-3
10
12
15
5
5
-2
-4
16
11
2
18
34
19
-12
-3
-6
9
34
14
-2
-1
2
8
15
27
22
15
14
11
-4
-5
-3
-18
-4
21
26
15
16
20
6
5
5
6
11
19
24
21
-12
-20
-17
-13
6
13
23
28
16
6
8
10
4
2
-7
-10
2
15
12
13
36
29
23
-5
6
14
8
-4
-15
8
8
-20
-13
-2
8
8
10
-9
-11
4
16
27
5
3
17
15
20
3
2
-3
6
8
-3
3
1
-2
10
7
4
-2
12
16
16
29
14
-9
5
2
10
7
22
2
-6
-12
-3
-2
15
21
39
32
30
12
31
49
48
21
10
11
13
13
26
10
16
18
18
25
27
15
7
12
11
-5
12
15
24
3
11
-4
-8
-28
-12
-11
-1
1
-8
13
33
16
5
-13
-2
-6
-17
-4
1
-1
13
17
26
4
10
0
5
25
-6
-10
-2
-9
-18
-26
-15
5
3
10
9
14
7
6
1
-2
1
-11
-13
-8
-11
-5
13
26
46
65
86
113
137
180
221
233
236
221
200
170
124
102
67
55
49
53
49
10
-25
-21
17
7
-3
7
1
7
23
8
1
-9
-10
-17
-3
2
3
20
31
3
-9
-3
12
7
-23
-12
18
18
10
8
6
5
3
14
13
0
13
22
26
24
-6
-3
11
-3
7
11
26
28
25
25
20
20
4
17
19
19
3
8
19
18
9
10
9
11
19
27
39
24
25
21
29
15
-2
-17
-4
15
29
32
24
23
30
32
40
19
32
50
48
37
24
38
42
55
54
55
64
54
43
55
61
76
77
44
40
46
64
80
80
85
74
78
79
86
82
77
84
86
83
97
90
75
90
95
92
95
82
81
69
64
72
64
64
59
52
49
57
57
41
28
24
15
19
12
3
14
14
16
14
9
6
7
4
-2
-15
-6
9
16
12
12
2
15
-6
2
5
19
26
-4
-21
-17
-4
19
29
32
6
-7
-3
-8
-10
-6
1
-6
9
9
-4
-3
-2
-10
-7
-5
0
-5
-6
-8
-2
4
12
15
11
5
2
1
13
-3
-3
-2
-9
-20
1
17
11
0
-9
0
12
7
2
24
24
15
17
32
7
-24
-33
-13
3
-7
13
3
-2
1
12
13
14
8
8
8
-9
-10
-12
-7
3
-1
-7
2
7
14
17
1
-7
-5
0
-2
-11
5
11
1
-5
-14
-15
-11
-14
-15
-14
12
43
23
15
-17
-20
0
16
2
1
9
-5
-11
-1
12
-1
-7
-11
-16
-2
16
13
0
-8
-7
2
5
11
8
1
1
1
3
-1
-1
-3
-7
-7
-9
-4
0
6
16
17
23
11
-12
1
-6
3
-10
-15
-4
-14
-7
10
23
17
17
17
13
14
2
-14
14
20
16
14
14
29
42
27
12
5
2
5
-8
-6
5
9
5
2
12
2
-15
-15
-7
-2
7
7
-1
-9
-9
-9
-4
-5
-5
-10
-6
-5
1
0
-4
-4
-6
0
0
-6
-11
-7
-1
-4
-19
-7
9
-6
-8
10
34
23
-4
-34
-10
0
4
-1
-9
-14
-8
0
-2
8
-10
-16
-11
-9
-11
1
18
45
66
85
107
125
155
175
186
191
192
182
145
91
66
45
30
-9
-14
-22
-17
-20
-20
-15
-10
-7
7
7
10
3
-16
-7
2
12
15
8
8
23
25
5
-33
-8
5
8
12
3
9
-3
-21
-1
6
-3
-1
8
10
7
7
15
30
-1
-7
3
12
0
-3
-4
3
6
3
13
6
14
20
21
0
-8
21
18
20
14
16
20
16
11
15
1
-5
4
18
8
22
25
24
28
7
9
12
28
29
27
22
17
27
49
48
23
28
31
34
40
49
46
38
42
48
41
41
45
55
70
70
62
69
88
73
77
75
84
77
78
89
90
78
70
68
69
89
79
84
96
113
113
107
88
78
76
76
69
64
58
47
49
53
56
47
27
20
28
29
33
34
18
14
20
20
13
12
15
4
1
-7
-3
9
16
1
2
13
22
-5
-1
6
0
1
3
8
3
-4
-2
-16
-19
-4
15
10
-5
-5
-5
1
9
9
16
3
-20
-21
-1
-2
-11
-14
-7
0
2
0
-4
-3
-1
16
17
9
7
1
-6
-8
-4
11
19
12
9
6
3
4
2
-4
5
10
7
-9
-1
19
4
-5
-4
-15
-7
-19
-10
17
15
13
13
7
8
7
2
1
-2
-2
3
6
3
1
5
-2
-5
0
0
-6
-10
-9
-12
-6
13
12
6
-3
9
7
-6
7
9
9
18
23
5
-9
-10
-21
-16
-7
6
4
3
8
-6
1
1
4
1
18
16
-3
-30
-19
-8
5
4
-8
-5
-5
-2
5
-11
20
41
2
-2
-12
15
20
8
-16
-29
-7
3
3
-2
0
-1
0
-8
3
22
11
-1
4
-9
-12
-9
-1
13
8
18
19
12
17
19
12
-2
-11
4
41
18
-8
13
36
32
18
34
24
11
28
24
0
-24
-12
-10
-2
10
0
-5
9
0
-1
-3
1
-1
1
0
-1
3
4
4
-5
-8
-4
8
28
13
1
-18
-23
-15
-7
4
7
6
3
-8
-7
-18
-21
-10
-8
0
4
-4
-18
10
13
9
9
3
-3
-4
-1
0
-2
-11
-5
-1
-3
-9
-12
10
36
53
75
105
135
164
195
213
214
203
190
183
163
133
88
66
48
34
20
-2
-5
-15
-6
-2
-1
10
14
8
14
12
6
5
2
-8
0
0
8
10
24
3
-7
-17
0
13
22
2
-7
-16
-12
-7
-10
-5
-3
-2
4
10
14
-2
-11
-13
2
11
10
15
11
16
18
23
12
-2
0
2
2
13
11
12
23
34
8
15
10
-2
-10
-16
-4
3
-10
13
21
13
16
15
7
-1
15
44
46
36
1
-3
12
20
19
21
24
22
31
20
42
47
48
41
31
30
38
51
59
54
57
55
67
85
90
49
62
70
63
69
72
75
77
79
81
78
82
76
87
86
88
71
64
70
58
59
73
65
71
69
67
70
62
43
24
8
23
50
53
41
36
28
19
11
15
5
11
21
18
13
8
3
-7
-13
-14
-5
30
18
-12
-15
3
-2
-1
1
19
26
29
16
-4
-9
-15
-14
2
2
-4
-4
-3
-1
-5
-4
7
12
14
-3
-3
-3
-1
0
-6
8
0
-3
-11
-13
-21
-11
3
10
-4
-5
-10
-12
4
16
11
13
15
-4
-16
-15
-8
8
6
-5
-9
1
16
13
-3
-9
-5
2
1
3
25
23
4
-3
-4
10
14
4
-11
-6
9
2
-10
-2
3
5
-3
-20
-18
-18
-13
-3
20
26
5
-15
-10
-2
-1
-7
0
12
20
19
6
-21
-20
-20
-11
-5
-13
-16
13
18
15
10
-2
-21
-18
-9
1
5
-7
-4
4
10
8
15
10
-11
-11
-1
6
9
-2
-8
4
14
20
11
1
-36
-27
-14
-13
1
-9
-2
-16
3
9
10
8
-2
-18
-17
-2
7
3
-8
-9
-7
-5
-9
0
-2
-6
-9
7
15
18
-3
-1
-5
-14
21
35
31
30
27
20
5
13
6
7
22
18
22
14
11
23
18
24
10
1
-3
-14
-23
-11
8
1
-23
-1
-2
-2
5
3
-4
4
1
-4
4
-3
-11
-14
-19
-27
4
6
3
-7
1
-4
0
7
23
6
-7
-29
-40
-37
-28
-5
6
1
-4
-9
-8
-3
-3
-5
11
3
-17
-7
0
-16
-10
-4
-12
-22
-35
-20
-16
-5
7
21
38
63
83
107
124
138
179
198
213
235
220
175
157
126
89
61
47
36
24
19
-33
-32
-26
-19
-10
3
6
-6
-6
-1
-19
18
21
10
5
11
-9
-22
-14
10
9
8
4
16
-1
0
12
6
-7
-7
-13
-11
-8
7
-1
4
0
-1
-2
4
-6
-6
-1
8
18
18
8
8
6
11
2
-20
-14
-12
-8
18
22
10
7
5
-3
5
15
23
22
11
20
6
-9
-11
-18
9
37
42
39
26
3
13
11
4
7
15
19
27
27
21
21
47
31
33
38
49
57
33
42
50
52
39
36
34
45
63
75
66
65
64
67
68
72
74
81
86
75
76
79
81
86
84
79
77
85
71
68
76
72
68
67
46
27
41
72
76
53
40
29
32
44
35
28
22
0
8
7
11
9
14
6
13
-7
14
6
0
2
10
18
-2
-4
-7
4
-2
-16
-17
-13
-21
-13
-13
-14
-16
15
19
10
-9
-8
-5
-7
-10
-5
-4
-2
0
0
-2
-2
3
-5
-3
-1
1
-12
-17
-16
-7
9
7
-1
-8
-5
-9
-11
-2
17
11
7
-2
10
20
5
-10
-36
-41
-30
-25
-7
12
11
-5
-24
0
8
0
-3
-4
1
14
7
-5
-19
-24
-8
5
13
3
-2
-7
-9
1
7
-2
-2
-14
-12
-6
-3
1
-2
3
1
-1
-5
10
-7
-15
-10
-9
-4
0
-22
-32
-22
-26
-25
2
3
0
-10
1
11
3
-15
-11
5
11
10
-4
2
2
-6
-4
17
-9
-17
-7
-12
-13
-23
-31
-14
1
0
-8
-9
-9
-16
-8
-1
4
-2
-12
-13
-20
-8
-18
-9
-11
-8
-5
-4
5
6
-15
-17
-13
-4
2
-8
-5
-15
-12
-2
-11
-9
-3
-10
-6
4
0
-4
-19
-24
-8
-3
7
5
4
-17
-15
-28
-38
-24
-18
0
11
6
2
-5
-1
-8
-6
-5
17
27
21
12
10
-2
15
5
-6
12
15
16
20
14
12
6
6
13
9
0
-9
-9
2
11
-5
-12
-20
-17
0
-22
-19
-15
-10
-19
-9
-11
-14
-11
2
13
-8
-24
-4
-16
-11
-1
9
-15
-26
-8
-12
-1
-10
-14
-14
-20
-19
-16
-18
-2
8
10
5
-30
-18
9
22
-2
-10
-38
-41
-9
1
-6
-24
-26
-23
-28
-24
-16
-4
7
24
31
52
88
128
160
188
215
219
221
226
191
152
114
97
80
17
0
8
-10
-14
-5
-13
-16
-5
-3
6
9
8
-4
2
10
6
-5
-10
-4
-7
-19
-15
-6
-8
-8
0
-5
-21
-20
-24
-3
13
14
5
-7
-14
-25
-13
0
7
18
25
17
-23
-9
-2
2
-4
-2
-3
-1
-8
-7
2
9
1
-3
2
0
5
2
-2
18
22
9
7
-4
1
-16
0
-11
-7
11
28
17
9
10
8
-2
0
13
12
10
10
29
34
26
18
21
14
8
10
25
43
50
48
33
30
28
24
41
59
62
56
40
39
33
42
73
81
73
68
75
73
70
79
80
86
82
67
68
78
96
74
71
89
95
77
57
42
58
48
41
59
52
37
44
53
18
10
14
9
-1
20
25
21
10
15
1
-4
15
21
25
10
-7
3
-12
-14
-11
-19
-5
-1
-4
-10
-21
-17
-13
-19
-9
-12
1
5
-3
-6
-7
-9
-11
-8
3
-3
-6
-22
3
-2
-3
-5
-9
-3
-11
-16
-12
-16
-12
-12
-10
-22
-12
17
0
-9
-6
-11
-2
-7
-16
-9
-3
-10
-21
-13
4
1
-3
14
24
-11
-38
-22
-6
-10
-17
-20
-9
-2
-10
-9
-24
-10
-7
-8
-18
-15
-9
-15
-17
-14
-11
2
1
-8
-6
1
-11
-14
-1
11
6
-18
-13
6
-20
-26
-15
-11
-9
-25
-34
-9
9
-9
-13
-5
2
-5
6
-13
-22
-19
-5
-15
-15
-17
-3
6
-8
-27
-43
-31
-6
-5
-4
1
-7
-7
8
13
4
-4
-27
-11
-31
-32
-24
-11
2
2
-7
-27
-16
-23
-26
1
9
-12
-14
-18
-3
-3
-26
-24
-16
-14
-12
-13
-2
9
6
6
-22
-14
-9
-12
-15
-42
-55
-28
11
9
-14
0
12
-15
0
-9
-12
-30
-41
-18
7
-3
11
3
-3
-19
-16
2
-9
-12
-18
6
6
5
-6
-1
-6
-9
7
11
-5
10
28
34
6
-18
-6
-1
-5
-14
-7
-11
-15
-18
-17
-25
-28
-27
-1
13
-5
-6
-10
-13
-2
10
-26
-36
-41
-18
-19
-20
-10
-13
-20
0
-7
-23
-40
-20
-8
-19
-17
-11
-10
-22
-15
-14
-13
-2
2
-14
-13
-8
-9
-6
4
-12
-50
-44
-44
-23
-7
1
0
-9
-22
-30
-32
-31
-9
15
28
62
69
71
96
153
193
202
190
193
167
120
77
43
31
24
-1
-5
-12
-9
-26
-26
-35
-15
-16
-16
-6
2
7
1
-8
-24
-27
-10
0
-10
-7
0
-20
-23
-1
-5
-7
-14
0
-6
-11
-17
-19
-14
-15
-3
-11
-16
-5
5
-22
-15
-28
-12
5
8
11
-10
-16
-8
-15
-14
-16
-1
22
24
13
-6
3
-5
3
7
-14
-15
6
-2
-6
-4
-5
6
10
8
6
-2
-1
-2
-7
-1
7
10
18
20
11
26
14
17
9
7
15
22
33
32
13
30
40
34
23
18
47
68
71
32
41
41
40
42
42
55
52
57
61
63
81
83
82
88
94
87
79
61
61
74
72
74
77
75
76
57
58
57
61
54
45
37
32
27
38
33
22
34
36
33
22
14
13
11
8
-5
-11
-10
-10
-14
-14
11
8
3
4
4
-4
3
-18
-17
-11
-21
-24
-29
-38
-28
-24
-15
1
10
-1
-21
-25
-6
-12
-18
-14
-16
-10
-3
9
-3
-21
-36
-27
-13
-8
-16
-8
-18
-13
-9
-6
-11
-5
-17
-17
-8
-22
-33
-46
-6
22
23
7
-8
-22
-25
-23
-9
-6
-6
3
2
-2
-24
-35
-26
-22
-27
-30
-25
-12
4
5
-6
-8
-8
-7
-17
-11
4
-12
-21
-42
-49
-13
2
6
-3
-19
-21
5
2
-14
-13
-2
1
0
-21
-20
-11
-26
-33
-25
-8
-13
-11
-6
-1
-3
-9
-8
-18
-28
-24
-19
-16
-9
-4
-12
-20
-19
-19
-10
-11
1
-13
-35
-37
-1
-8
-14
-26
-28
-20
-16
-18
-12
1
2
-17
-12
-28
-19
-13
-18
-14
-8
2
-4
-7
-15
-10
-12
-16
-30
-10
-4
-16
-24
-22
-24
-17
-25
-28
-13
-11
-10
-16
-4
-7
-8
-4
3
0
2
-4
2
-3
0
-5
-5
5
13
7
13
-1
-1
6
4
12
25
2
-25
-19
-19
-21
-23
-36
-52
-35
2
28
1
6
-4
-29
-19
-12
-14
-22
-29
-33
-40
-27
-7
-15
-13
-9
-6
0
4
3
-17
-38
-32
-18
-25
-16
-15
-16
-24
-8
-7
-31
-42
-66
-50
-2
15
-21
-28
-2
-9
-17
-12
-13
-12
-1
1
-27
-36
-42
-65
-59
-29
1
5
18
49
76
99
137
163
190
197
204
193
209
165
126
96
56
45
35
8
-11
-8
-14
-24
-19
-10
-6
4
10
22
22
-33
-27
-24
-28
-17
-13
-10
-3
-8
-11
-20
-20
-12
-13
-1
-21
-22
-18
-22
3
2
-3
-5
-15
-8
-14
-16
-19
-20
-22
-23
-2
12
2
-12
-13
-7
-5
-5
-13
-10
0
-6
0
2
-2
-15
-9
-2
0
-18
-17
-2
11
28
19
-4
-17
-12
-27
-18
-11
-4
3
9
9
4
4
4
12
14
7
16
12
9
14
34
35
13
27
32
2
3
6
33
49
34
34
37
45
37
46
46
37
57
63
60
56
64
54
47
53
63
77
75
79
62
54
65
65
71
76
63
47
46
59
62
59
41
55
56
49
40
30
32
35
41
31
25
-6
-10
4
12
7
-9
-3
8
7
16
-19
-18
-7
-3
-5
-15
-18
-25
-27
-30
-20
-17
-4
9
8
-16
-31
-2
-3
-12
-26
-41
-27
-15
-7
-17
-16
-6
-19
-15
-17
-16
-9
-3
9
-17
-11
-18
-19
-18
-12
-6
6
1
-3
-5
-19
-18
-30
-20
-6
-4
-11
-21
-20
-22
-9
-4
-11
-26
-12
-10
-18
-22
-21
-15
-17
-24
-20
-27
-20
-17
-9
-12
2
-2
5
2
-5
-9
-10
-6
-16
-24
-19
-15
-14
-12
-8
-13
-16
-12
-22
-14
-2
-7
-16
-18
-12
-16
-19
-16
-13
-14
-15
1
-4
-22
-23
-16
-10
-10
-9
-8
-14
-14
-33
-30
-17
-1
-2
-3
-19
-15
-22
-36
-38
-14
5
6
9
4
-4
-19
-11
-6
-21
-23
-33
-39
-8
10
-9
-22
-27
-23
-12
10
-21
-26
-6
7
-25
-30
-14
9
-5
-12
3
-14
-19
-16
-25
-19
-13
-4
-13
-30
-25
5
-6
-7
-14
-10
-3
-6
-11
-18
-15
-15
-13
-17
7
7
7
8
15
25
6
-20
-10
8
25
9
-3
5
7
8
0
16
14
-11
-32
-36
-14
3
-7
-20
2
-13
-22
-23
-27
-12
3
-24
-11
9
-7
-20
-23
-32
-22
0
-11
-11
-2
-7
-4
-12
-19
-22
-18
-14
-19
-22
-15
-12
-18
-17
-3
-5
-2
-10
-22
-28
-24
-10
-16
-25
-21
-25
-21
-10
-8
-7
9
-1
-30
-48
-46
-28
-14
14
29
39
30
49
97
127
157
183
206
227
217
188
162
135
109
97
32
10
3
-5
-6
-12
-9
-11
-13
-7
-14
-11
-4
0
4
-1
-11
-24
-7
11
17
2
-5
-17
-8
-16
-15
-17
-8
-11
-1
-20
-16
-10
-7
-24
-20
-7
-18
-3
8
4
-10
1
23
-6
-6
-12
-11
-10
-5
-9
6
-8
-7
6
0
-25
-24
0
1
12
15
13
10
14
-7
-4
2
-1
-3
-1
13
4
12
-4
11
4
9
9
8
12
17
10
10
18
11
24
39
35
24
3
21
15
12
27
27
20
29
45
47
47
62
53
38
39
47
54
71
64
66
48
50
67
65
85
97
84
49
76
65
70
76
74
74
72
82
69
70
62
63
73
64
59
53
53
37
36
54
40
34
28
12
19
20
8
-9
-3
16
23
23
18
15
-2
2
-2
-16
-18
0
0
-14
-13
-19
-22
-22
-17
-6
-11
14
23
9
-16
-16
-10
-24
-17
-8
-20
-11
-15
6
-2
-13
-28
-12
-4
-6
-1
-11
0
4
1
2
-4
1
-20
-24
-12
-6
-11
9
6
0
-23
-23
-17
-21
-13
-5
-6
-7
4
-4
-15
-15
-20
-18
7
9
12
-5
19
-6
-32
-11
-14
-16
-11
-8
-1
3
3
-6
-10
-15
-7
-13
-13
-17
-8
-6
-6
-9
-9
-3
2
-18
-18
-9
-9
-12
-5
-8
-13
-13
-2
10
1
-4
1
1
-12
-36
-25
-1
-4
3
0
4
-7
2
9
-13
-18
-20
-14
-9
-3
-9
-34
-35
-12
2
-14
-28
-22
-8
3
-2
-2
13
5
-5
-19
-26
-11
-17
-20
-10
-12
-3
-18
4
10
6
-21
-8
2
-13
-22
-18
-15
-30
-21
-7
-11
-5
-22
-9
-10
-17
-9
-14
-17
-8
14
8
13
4
-19
-30
-14
4
4
10
14
17
1
-1
6
13
6
-4
-16
-14
6
18
17
6
13
14
7
9
6
-4
-10
-8
-3
9
-11
-16
-24
-36
-37
-13
12
12
2
-8
-10
-24
-26
-12
-5
-18
-21
-20
-7
-13
-15
-3
-8
-24
-29
-21
-19
-15
-10
9
8
1
-9
-22
-30
-21
-18
-30
-25
-22
-9
5
-7
-7
4
-9
3
-11
-12
-6
6
-21
-29
-47
-54
-54
-37
-9
15
44
65
73
85
115
113
144
191
214
210
203
172
148
84
70
56
25
-9
-15
-4
-3
-15
-7
-5
-16
-22
-9
-1
21
8
0
-8
-14
-11
-19
-20
-12
-1
20
-7
-19
-22
-26
-32
-8
7
0
-17
4
17
8
-12
-8
-15
-13
-14
-6
-4
-1
4
16
-8
-17
-29
-4
-4
-8
-10
-10
-15
-10
7
15
21
13
-4
-4
-13
-9
8
0
-11
7
-3
-6
11
30
32
-8
-9
-18
-4
0
-2
-11
-11
3
25
40
30
22
9
13
9
29
23
18
24
35
25
13
0
17
38
62
66
35
21
40
47
50
47
40
50
46
44
51
72
62
67
81
85
76
48
33
54
70
82
81
78
69
82
82
69
76
67
59
57
52
46
40
41
25
5
8
44
44
34
18
25
25
11
1
-5
2
5
-1
-4
-7
-8
-13
-24
-14
0
-11
-18
-26
-19
-10
0
12
5
-7
-21
-21
-1
-32
-22
-16
-17
-16
-21
-30
-8
-10
-14
-23
-13
-3
5
2
-2
3
9
1
-14
-23
-19
-7
-8
-20
-15
-13
-17
-18
-16
-16
-12
-10
-8
-2
-18
-18
1
-11
-15
-17
-24
-13
-13
-22
-35
-22
22
16
-19
-17
-10
0
-9
-3
-21
-19
-16
-16
-22
-24
-31
-1
4
-8
-12
-16
-23
-2
7
5
-12
-11
-8
-22
-10
-7
-6
-3
-15
-24
-17
-9
-11
-10
-10
-11
-16
-27
-17
-16
-19
-7
4
4
-24
-29
-13
1
-11
-25
-24
-11
-11
-24
-16
4
7
-19
-27
-16
-2
-1
0
-20
-23
-28
-59
-35
-7
-6
-5
-4
-2
6
-7
-32
-29
-35
-19
8
6
-24
-28
-10
-6
-8
-20
-11
-9
7
3
3
4
1
1
-1
8
7
20
19
20
-3
-3
5
-3
-11
-18
-13
-16
-12
4
0
-23
-16
-2
-13
-15
-15
-14
-29
-19
-25
-16
-14
-9
-12
-15
-10
-23
-29
-23
-7
-17
-18
-24
-12
-7
-19
-41
-25
-5
-12
-13
-18
-27
-25
-21
-8
-15
-18
-3
-16
-16
-14
-12
-15
-14
-8
-3
-24
-14
-13
2
-11
-21
-9
-30
-20
-23
-32
-51
-33
-11
1
11
33
63
105
120
156
173
187
184
184
166
154
124
75
43
37
-3
-21
-26
-12
-5
-5
-32
-41
-29
-21
-17
8
-7
-14
-8
-7
-20
-20
-9
-15
-8
-12
-10
0
-11
-12
-11
-10
-9
-5
-7
-11
-19
-22
-12
-1
-6
-12
-8
-4
-5
1
-14
-5
-3
-25
-6
3
2
5
7
9
-16
-15
-2
-5
-2
2
4
9
-17
-24
-7
0
3
8
3
-14
-2
4
9
8
10
26
22
23
-19
-5
-9
-11
-13
-13
2
3
3
15
27
21
34
38
31
32
29
21
10
32
35
26
39
52
56
46
46
29
46
58
74
65
65
75
67
26
57
74
74
74
60
60
72
85
74
79
77
69
70
86
66
63
68
52
42
56
63
43
32
46
47
47
32
9
12
22
13
24
26
27
7
8
-11
-24
-13
-10
-15
-19
-27
-3
2
-5
-14
-23
-27
-8
-11
-23
-12
2
-10
-16
1
7
-15
-8
-3
2
14
2
-8
-13
-39
-16
-14
-8
-11
-6
-13
-17
-15
-21
-22
-12
-14
-7
-11
-17
-15
-15
-10
-26
-7
-7
-4
1
-19
-14
-12
-12
-23
-30
3
21
1
-18
-17
-24
-32
-26
-17
7
-4
-7
-5
-13
-6
-9
5
-1
-3
-22
-22
-10
-2
-12
-27
-26
-9
14
-2
-5
-8
-9
-12
-28
-22
-15
-9
-8
-3
4
11
-2
-14
-20
-29
-28
0
10
12
0
-6
-29
-28
-14
-15
-14
-11
-5
-7
-23
-42
-22
3
2
-14
-26
-30
-22
-14
-24
-14
-2
-1
-3
-13
5
6
-16
-14
-20
-16
-9
-6
-7
-5
-5
-29
-37
-30
-22
-18
-16
-8
-7
-8
-18
-18
-6
-1
1
-21
-24
-24
-24
-25
-21
-22
-4
-6
4
2
-1
-5
14
12
-17
-19
-24
-27
-28
3
-1
-6
4
18
10
3
-3
-12
-26
-13
34
25
8
2
-3
-4
1
2
1
12
-3
-5
-12
-14
8
-22
-32
-24
-19
-16
-24
-25
-18
-17
-10
-13
-15
-8
6
13
-9
-22
-18
-32
-23
-18
-18
-25
-32
-24
-22
-17
-15
-10
-4
-13
-16
6
-8
-14
-25
-23
-26
-39
-37
-35
-30
-8
2
-11
-5
28
-15
-31
-31
-17
-30
-29
-24
-22
-12
-22
-5
26
57
80
108
157
183
203
219
204
185
162
138
105
80
54
34
22
8
-11
-11
0
-11
-29
-6
-1
-12
-13
6
7
-9
-18
-18
-24
-20
-6
4
-22
-19
-16
-8
-17
-23
-14
-10
-15
8
-3
-15
-23
-23
-17
-18
-19
-9
-13
-22
-16
6
6
-8
-17
-13
-4
-10
-16
5
5
0
-4
-12
-14
-10
-9
-3
2
6
14
10
-3
-22
-15
1
6
5
-46
-23
4
6
1
2
4
-11
-10
-15
-22
-2
27
26
16
19
26
12
-8
15
23
31
19
6
22
17
14
37
38
31
19
25
51
55
60
47
27
39
52
52
52
60
53
52
53
42
44
55
58
62
76
73
79
80
71
82
65
59
57
56
50
56
64
49
32
34
40
52
52
32
23
9
20
16
6
22
17
20
-4
-9
-10
-14
-10
-7
7
16
3
-42
-19
4
-3
-15
-12
-5
-2
-8
-11
-9
-20
-22
-13
5
-1
-13
-12
-11
-11
-9
2
9
5
-1
-11
-23
-28
-18
-14
-13
-6
-5
-22
-15
-19
-6
8
-16
-10
-4
-16
-28
-37
-8
14
9
-8
4
-8
-24
-22
-28
-16
-9
-3
-3
4
-2
5
-18
-13
-8
-14
-22
-12
-9
-20
-21
-18
-13
-24
-21
-8
9
15
-10
-16
-12
-17
-13
-3
3
-5
-34
-23
-1
-4
-12
-2
15
1
-14
-21
-18
-26
-20
-29
-16
-29
-31
-9
11
4
2
4
-31
-43
-35
-3
-1
5
8
6
-10
-28
-26
-19
-12
-9
-28
-20
-18
-13
-6
-14
-16
-14
-12
10
3
-7
-1
-16
-18
-12
-19
-25
-14
-21
-36
-8
-16
-10
-10
-14
-19
-19
-21
-14
-27
-17
7
-3
-10
-25
-29
-19
-16
-2
-5
-17
-4
-16
-28
-45
-40
-28
-10
-4
-1
-2
-9
-18
-21
-12
10
16
1
-1
-5
10
17
20
4
-9
-19
4
22
3
9
-6
-8
-10
1
5
-11
-14
-17
-18
-16
-14
-14
-9
-5
-7
-18
-25
-8
-10
-11
-12
-3
-20
-15
-18
-24
-25
2
10
9
-9
-13
-39
-40
-18
-10
-6
-22
-24
-19
-8
-18
-26
-17
-39
-35
-21
-5
-2
-3
-2
-10
-11
-26
-22
-19
5
4
-16
-28
-14
-6
-18
-25
-17
-45
-35
-14
-13
10
40
74
98
105
127
151
171
188
190
179
162
133
104
80
47
33
-6
-15
-27
-44
-24
-4
-6
-27
-24
-6
23
8
12
21
6
-3
-11
-24
-11
-29
-23
-24
-24
-18
-21
-10
-1
-3
-11
-5
-10
-16
-5
20
10
-15
7
-39
-30
-18
-11
3
2
6
12
-19
-13
-21
-10
-11
-16
-8
-11
-10
-9
-1
15
10
5
2
2
-14
10
15
-6
-7
2
-1
-6
-8
-1
-2
8
1
-7
-12
-13
-6
5
10
21
27
31
19
13
7
7
9
13
22
21
23
51
71
42
30
25
30
35
26
27
23
43
44
44
60
64
59
58
71
61
42
61
72
65
66
83
80
52
43
60
71
75
77
70
68
69
72
68
62
52
53
41
43
42
34
30
48
47
35
31
21
15
8
10
24
18
5
-13
-11
-16
-20
-23
-6
-2
0
-7
-5
-8
-8
-11
-22
-12
-12
-18
-1
-15
-9
-19
-29
-14
-14
-16
-5
7
15
11
-28
-14
5
7
-16
-12
-9
-23
-19
-16
-22
-7
-2
0
-11
-9
-10
-15
-26
-4
16
-13
-13
-13
-25
-17
-28
-16
-7
4
7
0
-8
-13
-20
-15
-11
-6
-5
0
-20
-21
-20
-21
-12
0
-15
-20
-16
-8
-8
-14
-12
-10
0
2
-2
-2
-4
-9
-12
10
8
-9
-19
-11
-2
3
-8
-19
-12
-23
-19
-9
-10
-2
-2
0
-10
-26
-11
-22
-18
-9
2
4
-4
-26
-18
-3
-6
-9
-16
-19
-3
-9
-12
-13
-20
-17
-31
-1
0
-6
-15
-20
-26
-27
-24
-10
1
8
-6
2
11
-6
-33
-24
-26
-22
-22
-23
-12
-23
-20
-6
3
-4
-11
-18
-11
-4
-15
-19
-31
-16
-4
-2
-20
-22
-25
-13
-9
18
34
-6
-32
-12
-11
-16
-10
-9
8
14
-1
0
-6
-3
-6
10
24
23
-6
-10
0
7
0
-3
4
0
5
7
-3
-7
-30
-20
-1
10
-25
-16
-6
-7
-21
-38
-28
-2
19
11
-15
-36
-28
-37
-28
-23
-11
-7
-18
-18
-10
-10
-8
2
-6
-6
-15
-27
-27
-17
-15
-10
-15
-10
-14
4
-8
-19
-28
-34
-25
-7
-14
-13
-12
-13
-20
-20
-13
-9
-25
-30
-18
-20
-25
-3
17
34
62
101
117
142
181
198
212
196
187
174
146
120
78
46
20
24
-1
-14
-31
-40
-31
-16
2
-6
7
0
-3
2
-2
-3
6
13
4
-14
-28
-18
-20
-24
-9
-11
-5
-3
-9
-7
-20
-9
-15
-18
-21
-18
-16
-19
-18
-10
-27
-25
-17
-5
-1
-7
-6
-5
-18
-8
18
30
0
-5
-2
11
-9
-14
-21
-14
-4
-1
8
-1
-24
-17
-5
3
12
15
4
-14
-13
-13
-18
-13
8
11
3
5
37
28
20
21
15
-17
-18
-1
5
16
13
10
20
34
17
16
22
25
18
13
19
16
46
43
29
39
56
48
45
49
40
54
60
70
54
56
59
51
55
69
75
85
77
57
53
49
57
50
50
63
62
41
53
60
46
32
41
40
25
20
22
14
-3
-17
-3
3
6
-1
10
23
-10
-9
-19
-18
-19
-24
-18
-18
-12
-14
-9
-11
-8
5
3
-12
-39
-27
-33
-21
-26
-23
-8
-7
-14
-24
-12
10
3
-42
-47
-37
-9
5
3
-6
-15
-7
-15
-21
-21
-11
-6
-6
-26
-25
-5
5
-13
-31
-43
-39
-39
-32
-1
5
3
-7
-6
6
-14
-26
-8
-7
-26
-24
-5
-2
-20
-29
-14
-19
-10
-19
-17
-12
-13
-12
-26
-27
-16
-7
-5
-20
-11
-3
-16
-22
-25
-44
-20
14
16
11
2
-14
-33
-29
-23
-20
-14
-9
-14
-22
-18
-17
-7
10
-12
-12
-7
-21
-20
-19
-23
-31
-33
-16
-18
-22
-11
-10
-14
-20
-6
12
-17
-18
-31
-28
-22
-9
0
-10
-29
-41
-36
-24
-23
-14
-13
-12
-10
-3
3
-8
-31
-24
-10
1
-2
-1
-16
-22
-31
-25
1
2
-9
17
1
0
-4
-19
-19
-3
6
22
21
21
-4
-9
5
6
-5
-18
-10
-8
-15
-30
-35
-23
-6
-10
-20
10
15
-2
-36
-31
-30
-17
-4
-3
-16
-5
-22
-27
-25
-23
-29
-46
-29
1
-10
-16
-24
-16
0
12
4
-18
-17
-14
-22
-24
-34
-24
-18
-25
-20
-16
-18
-10
-8
-13
-19
-19
-13
-13
-16
-13
-10
-20
-22
-31
-34
-27
-34
-35
-28
-19
-16
8
33
54
57
68
88
116
153
174
186
193
179
150
129
85
48
30
20
4
-5
-21
-33
-27
-18
-19
1
-8
-1
-3
-4
-3
-17
-14
-7
-6
-16
-9
-2
-14
-20
-19
-13
-1
-3
-8
-23
-20
-15
-3
-9
-16
-18
-26
-25
-19
-14
-4
-5
-4
6
-9
-14
-12
-18
-29
-28
-1
2
8
-3
-14
-10
-4
7
5
6
-8
-12
-7
-8
-7
-27
-8
17
15
-4
-21
-7
-4
-15
3
-9
-7
-3
3
13
2
3
5
8
11
7
12
13
8
8
8
27
30
21
19
14
26
50
47
32
46
55
66
71
47
41
46
36
57
40
46
46
51
43
48
54
63
72
65
53
64
74
77
69
66
66
56
56
60
67
65
61
62
47
44
41
43
46
28
26
24
24
22
21
13
5
-11
-18
-5
-20
-34
-39
-9
-9
6
8
1
-9
-17
-13
-9
-2
2
-2
-9
-29
-34
-30
-25
-19
-4
9
-4
-25
-26
-23
-14
-8
-21
-34
-25
-26
-7
-1
8
-12
-53
-51
-33
-25
-24
-18
-15
-16
-25
-26
-33
-11
-6
-8
-13
-20
-25
-34
-34
-32
-33
-21
-17
-21
-22
-24
-13
-4
-11
-19
-19
-17
-13
-19
-15
-11
-22
-23
-18
-20
-18
-9
-9
-8
-10
-21
-6
-21
-21
-16
-3
-14
-16
-19
-21
-33
-16
-23
-23
-18
-12
-15
-9
-32
-25
-15
-23
-24
-29
-32
-43
-34
-29
-20
-21
-24
-29
-23
-4
6
-11
-36
-36
-27
-18
-15
-16
-17
-19
-17
-20
-16
-10
17
14
-6
-25
-30
-28
-46
-25
-10
-25
-24
-26
-18
-21
-12
-12
-4
-28
-26
-21
-23
-13
-22
-30
-34
-31
-33
-25
-14
-25
-22
-20
-11
-13
-10
-18
-18
-22
-28
-20
-15
-7
-6
-12
-11
-8
-5
-4
-7
-11
6
12
11
-3
-19
-6
-14
-6
-4
-1
10
-7
-10
1
-6
-13
-12
-13
-26
-44
-29
-19
-11
-13
-17
-26
-17
7
-4
-10
-35
-39
-32
-30
-26
-28
-29
-23
-18
-24
-19
-22
-25
-27
-30
-26
-23
-28
-25
-41
-28
-18
-24
-20
-23
-24
-14
-13
-7
-9
-9
-5
-17
-20
-37
-36
-27
-22
-23
-20
-36
-36
-39
-20
7
34
66
80
93
115
140
178
203
210
205
182
146
107
91
55
34
14
3
-8
-27
-37
-31
-38
-31
-21
-6
-7
-6
-16
-18
-14
-11
-7
-13
-21
-17
-8
-7
-16
-17
-29
-28
-25
-27
-21
-9
-1
-11
-14
-13
-13
3
11
-3
-16
-20
-14
-8
-15
-26
-22
-17
-13
-17
7
-4
2
-2
0
-10
-7
-16
-21
-24
-19
-13
-13
-24
-26
-23
-11
-3
-8
-6
1
0
7
-1
-1
-11
7
9
-5
-13
-8
-2
8
14
7
6
3
10
11
20
30
28
22
24
22
23
17
14
10
12
23
30
37
28
29
18
40
52
48
61
56
45
54
56
62
66
70
50
50
60
74
71
79
67
69
53
56
67
82
57
53
62
53
32
28
35
34
42
31
21
5
1
9
29
41
12
-5
-1
-7
-8
1
-4
-6
-7
6
-18
-27
-10
-11
-19
-30
-18
-12
-8
-17
-15
-23
-24
-25
-14
-10
-8
-3
-7
-22
-22
-17
-22
-23
-24
-17
-14
-17
-14
-11
-17
-17
-18
-19
-17
-14
-9
-11
-10
-15
-14
-14
-4
-18
-18
-16
-9
-3
-9
-16
-15
-8
-16
-20
-10
-21
-26
-26
-17
-23
-23
-19
-11
-2
-10
-26
-21
-24
-22
-21
-24
-27
-18
-24
-34
-21
2
1
-11
-13
-18
-29
-26
-16
-12
-9
-17
-19
-7
-19
-8
7
11
9
20
5
-10
-23
-27
-29
-30
-18
-10
-2
-17
-15
-6
-19
-20
-18
-10
-2
-20
-29
-11
-28
-22
-9
-8
5
5
-6
-33
-31
-19
-17
-15
-11
-20
-12
-14
-24
-34
-41
-23
-20
-16
-10
-17
-24
-28
-16
-5
-6
-14
-9
-11
-11
-21
-15
-14
-11
-5
-9
-12
-11
-5
0
-4
-26
-42
-27
-18
-14
-3
2
15
-10
-17
-12
-12
-8
-11
-6
-5
-4
3
4
-2
-2
-10
-2
-2
5
0
-11
-10
-3
-11
-17
-19
-15
-13
-19
-19
-18
-30
-22
-6
-10
-14
-9
0
-3
-13
-14
-7
-19
-35
-40
-37
-29
-23
-7
-7
-1
-14
-17
-15
-34
-33
-19
-19
-10
-9
-29
-27
-22
-22
-22
-27
-25
-25
-14
-12
-9
-13
-15
-2
-1
-22
-19
-27
-28
-20
-17
-21
-28
-38
-44
-26
-21
-24
24
59
57
81
108
128
158
181
204
199
186
170
133
105
75
46
37
13
0
-18
-26
-45
-33
-17
-10
-2
-1
1
-17
-20
-29
-21
-3
5
-8
-12
-13
-18
-14
-6
-11
-14
-20
-28
-15
-7
12
-14
-12
-7
-9
-24
-22
-21
-30
-36
-22
-6
-12
-12
-7
-9
-9
-14
-11
-17
-13
-1
5
-2
-2
-3
-6
-3
-4
-14
-10
-10
-3
2
7
2
1
-2
11
-3
1
5
-2
-12
-7
9
3
-1
10
10
1
24
12
-2
-5
0
2
25
26
34
24
14
13
25
34
33
32
37
43
40
42
25
37
48
58
61
60
53
46
49
50
59
53
62
63
77
65
58
68
81
71
62
63
75
90
90
78
60
60
63
51
48
39
40
62
52
54
46
40
15
13
19
28
19
13
-3
-10
21
30
1
-3
-16
-9
-10
-19
-12
-4
-10
-9
8
6
1
8
-10
-1
-27
-15
-10
-9
-7
-11
-8
-6
0
4
-11
-17
-20
-25
-19
-9
-10
-11
-4
-12
-17
-11
-16
-16
-6
-2
-7
-20
-15
0
4
8
-9
-17
-17
-10
-20
-12
-7
11
9
-7
-8
17
-19
-36
-10
-22
-9
-11
-4
-4
-5
-2
1
-12
-19
-16
-8
-33
-10
3
2
-3
-3
-6
-7
3
-15
-4
1
20
-17
-19
-20
-9
-9
-5
-8
-4
18
4
-6
-30
-23
-18
-13
-8
4
-4
-15
-17
-21
-13
-5
-5
-9
-14
-14
15
-7
-15
-18
-7
-8
-7
-9
-15
-25
-19
-13
4
4
-5
-8
-13
-15
-13
-3
-18
-19
-17
0
-1
-8
-19
-15
5
5
-2
-8
-12
-13
-19
-19
-8
-9
-16
-24
-23
-8
-7
-16
-12
-4
-5
-6
-3
7
16
-11
-17
-23
-15
-13
2
10
9
10
4
22
11
13
9
23
14
2
3
-3
-3
-5
-5
-9
0
19
20
9
0
0
-6
-7
-11
-22
-23
-8
-8
-2
-12
-8
-9
-9
0
-13
-20
-19
-31
-20
-19
-24
-3
2
-12
-14
-4
0
7
4
-5
2
-36
-33
-17
-9
-24
-21
-8
-17
-20
-12
-14
-15
-10
-3
2
-7
-19
-25
-19
-9
-10
-7
-3
-14
-15
-30
-61
-51
-26
0
27
36
55
64
100
125
131
169
194
211
215
206
175
147
117
92
75
46
12
-1
-10
-21
-25
-23
-12
-8
-2
11
7
-7
4
-2
1
-3
-7
-19
-17
-7
-10
-20
-11
3
0
-15
-12
1
-20
-17
-7
-2
6
8
1
-20
-19
-12
0
4
4
-8
-7
8
-2
-9
-14
-1
17
20
27
14
-6
-16
-3
0
-6
2
1
2
-9
-8
-7
-11
-7
-11
5
14
23
26
1
-4
16
6
3
20
25
12
-5
-7
-9
-11
6
20
28
43
36
39
18
19
29
32
32
33
34
22
19
25
18
21
43
64
63
44
66
80
55
48
65
65
75
82
83
75
71
69
82
83
64
60
78
93
95
66
71
79
84
75
69
66
59
57
52
47
52
47
43
26
36
30
21
4
20
7
-2
-6
4
26
10
-13
1
14
20
1
-18
-7
-4
-7
3
6
-3
-11
-22
-9
-7
-1
-3
-6
-3
6
3
20
15
-9
-13
0
7
-9
-24
-9
4
0
-12
-13
-8
-17
-9
9
14
-4
-11
-39
-33
-9
9
15
-2
-3
-7
-9
-8
-10
8
-1
-6
-7
-13
-13
-8
8
12
4
-23
-24
-4
3
-11
-19
-28
-31
-21
12
16
16
8
9
10
-34
-20
-8
-1
3
-9
-8
-4
-3
-5
-4
-1
6
-1
-4
-8
1
9
20
8
-3
-2
-15
-29
-19
-10
-10
-5
-1
-11
2
-12
-11
-5
3
9
-1
-3
-17
-18
-1
-1
1
-11
-4
-3
-20
-15
-11
-5
-4
-16
-13
-18
-9
3
7
2
8
10
7
-4
-18
-18
-22
-24
-31
-13
1
3
-1
-4
-9
2
10
-5
-21
-16
7
11
10
-6
-6
-9
-18
-22
-26
-5
7
-1
6
10
10
-1
12
11
3
0
4
11
21
13
2
19
19
6
-4
-8
9
5
20
14
2
0
3
0
-15
-11
6
10
14
-2
-10
-17
-4
-22
-6
-23
-13
0
3
-10
-6
-8
-11
-16
-16
-10
-12
-9
3
6
-23
-28
-29
-18
-3
-9
-9
5
12
-1
-25
-24
-16
-10
2
-7
-8
-5
6
3
-2
-4
-28
-30
-12
-14
-20
-21
-17
-14
-12
3
22
39
52
79
112
144
184
203
200
218
227
215
180
132
91
61
14
14
5
7
6
2
-8
-12
-7
-5
-7
-5
-2
-2
-4
-2
-14
-6
-9
-2
3
-2
2
9
4
-9
-13
-8
5
2
-13
-4
-13
-9
-1
5
10
-1
-15
2
21
30
26
23
-23
-7
-3
-10
-11
-11
-1
5
8
4
2
11
10
5
0
11
20
4
-2
10
5
-3
-15
-12
11
10
6
-11
1
19
11
15
26
21
10
8
7
7
15
5
4
1
21
37
35
27
28
36
39
37
27
33
42
49
41
40
46
47
56
58
56
50
44
47
61
71
77
75
84
80
75
76
71
76
83
79
82
104
