-31
-32
-41
-47
-41
-46
-43
-41
-49
-42
-42
-45
-51
-54
-49
-30
-28
-42
-41
-36
-41
-45
-35
-31
-32
-41
-41
-46
-35
-29
-31
-34
-29
-49
-48
-42
-39
-36
-47
-41
-44
-51
-52
-35
-33
-41
-41
-41
-35
-32
-39
-41
-46
-48
-37
-36
-36
-33
-34
-37
-40
-41
-40
-35
-24
-18
-25
-44
-50
-48
-44
-36
-35
-37
-18
-35
-38
-56
-67
-64
-63
-54
-45
-43
-45
-35
-35
-38
-44
-33
-29
-34
-32
-37
-50
-45
-42
-47
-35
-30
-31
-44
-41
-33
-38
-53
-50
-43
-42
-39
-43
-40
-43
-38
-37
-51
-38
-35
-38
-41
-41
-40
-40
-32
-32
-32
-34
-33
-30
-34
-41
-42
-43
-46
-47
-51
-50
-38
-46
-52
-57
-44
-40
-56
-53
-56
-45
-50
-53
-44
-47
-40
-43
-41
-44
-49
-51
-52
-59
-57
-44
-30
-26
-41
-37
-44
-54
-48
-47
-57
-49
-43
-39
-34
-19
-4
9
25
35
38
38
30
31
44
39
41
56
68
54
52
47
41
18
-10
-32
-68
-89
-61
-56
-35
-32
-31
-21
-16
-27
-18
-29
-33
-35
-35
-36
-44
-49
-38
-30
-35
-30
-29
-38
-35
-31
-40
-35
-33
-29
-36
-34
-25
-18
-29
-30
-33
-38
-33
-26
-26
-15
-6
-11
-10
-13
-41
-53
-41
-48
-37
-33
-27
-29
-39
-34
-27
-16
-17
-20
-25
-11
0
-15
-9
-23
-24
-18
-18
-18
-27
-21
-14
-7
-6
-15
-20
-7
-3
0
-7
-2
1
3
11
-7
-8
-5
7
4
-10
6
-1
4
12
9
6
9
9
4
11
21
28
26
21
19
15
27
46
42
25
44
47
40
15
6
13
11
18
18
20
28
10
11
19
15
12
10
15
-2
-3
10
4
-11
-11
-14
-15
-17
-25
-14
-7
-1
-20
-38
-35
-31
-28
-19
-19
-28
-36
-34
-35
-44
-40
-34
-42
-37
-38
-32
-37
-39
-36
-36
-29
-37
-30
-25
-26
-31
-27
-35
-44
-54
-55
-46
-57
-40
-35
-25
-20
-31
-24
-26
-35
-45
-42
-37
-40
-44
-35
-26
-35
-34
-38
-42
-19
-33
-40
-25
-28
-32
-39
-28
-32
-25
-19
-23
-25
-33
-39
-36
-31
-37
-32
-29
-32
-44
-38
-38
-38
-35
-31
-34
-41
-37
-35
-29
-35
-41
-27
-38
-39
-31
-35
-36
-23
-17
-16
-16
-18
-25
-44
-39
-34
-39
-30
-32
-31
-29
-38
-34
-39
-38
-42
-43
-38
-41
-38
-31
-29
-31
-38
-38
-35
-32
-35
-32
-40
-38
-26
-29
-36
-27
-30
-33
-43
-41
-36
-18
-11
-15
-16
-21
-24
-17
-15
-30
-49
-46
-32
-24
-30
-40
-48
-39
-33
-25
-33
-33
-34
-38
-45
-36
-31
-27
-29
-31
-42
-49
-37
-36
-40
-44
-41
-39
-33
-27
-37
-34
-35
-42
-40
-51
-32
-34
-34
-34
-40
-45
-44
-52
-49
-48
-51
-44
-37
-25
-18
-28
-30
-15
-1
17
34
41
62
53
45
64
72
60
41
59
78
77
72
66
43
39
18
-19
-62
-76
-62
-52
-36
-33
-32
-23
-23
-29
-25
-26
-22
-26
-26
-5
-14
-23
-8
-17
-31
-42
-29
-26
-31
-41
-40
-19
-21
-27
-18
-9
-10
-19
-16
-25
-27
-22
-27
-29
-13
-14
-11
-20
-14
-16
-16
-11
-9
-7
-30
-24
-21
-20
-26
-23
-13
-13
-19
-19
-9
-5
-7
-11
-11
-8
-12
-9
-4
-6
-2
-4
-2
3
-12
-12
-7
2
11
4
14
9
-5
-1
9
11
8
10
15
18
23
22
24
24
20
11
15
20
12
6
11
16
36
27
31
33
35
32
33
36
49
49
33
25
23
26
26
32
25
31
39
32
22
27
28
22
27
20
5
13
14
14
5
12
2
1
-1
-11
-22
-25
-8
-3
6
3
-13
-24
-16
-25
-32
-34
-23
-13
-26
-30
-28
-12
-12
-23
-25
-27
-36
-52
-45
-29
-28
-22
-19
-13
-12
-14
-30
-40
-45
-44
-42
-39
-29
-18
-14
-17
-29
-23
-12
-15
-17
-17
-18
-19
-28
-34
-22
-11
-17
-23
-24
-24
-32
-42
-46
-26
-13
-25
-12
-14
-11
-6
4
-16
-15
-24
-29
-29
-31
-29
-31
-35
-33
-29
-23
-28
-26
-23
-26
-27
-24
-11
-21
-28
-28
-26
-11
-10
-12
-10
-12
-23
-27
-32
-38
-35
-35
-37
-27
-27
-31
-29
-29
-25
-16
-19
-24
-22
-16
-31
-32
-28
-27
-32
-25
-26
-29
-29
-30
-35
-40
-28
-27
-39
-29
-19
-21
-24
-30
-32
-44
-34
-29
-17
-16
-15
-17
-15
-14
-23
-35
-34
-21
-27
-31
-26
-32
-29
-23
-41
-47
-35
-37
-41
-33
-23
-27
-36
-31
-37
-36
-30
-27
-29
-30
-28
-35
-41
-18
-28
-33
-22
-12
-11
-17
-15
-13
-10
-11
-12
-32
-28
-18
-29
-40
-38
-43
-34
-27
-18
-28
-19
-26
-38
-20
-26
-29
-32
-23
-29
-32
-29
-40
-49
-49
-37
-44
-37
-43
-35
-19
-18
-18
-12
-15
-31
-47
-39
-39
-42
-41
-38
-39
-30
-26
-23
-18
-33
-45
-39
-34
-36
-29
-35
-30
-26
-14
15
36
54
55
58
47
39
44
48
47
76
90
88
99
83
59
41
11
-18
-39
-52
-64
-57
-36
-26
-23
-18
-20
5
-7
-15
-24
-24
-22
-15
-7
6
4
-7
-27
-30
-28
-28
-24
-18
-20
-12
-14
-11
-15
-20
-24
-20
-8
-3
-8
-15
-17
-24
-23
-18
-22
-29
-18
-13
-16
-15
-13
-10
-8
-13
-6
2
-5
-8
-11
-5
1
0
-9
-11
-6
-6
9
11
-1
8
6
9
5
7
2
5
10
7
25
31
5
8
28
32
20
10
11
17
16
18
21
25
33
39
41
30
35
37
31
27
27
31
37
33
33
29
38
36
36
47
46
47
54
51
44
27
35
53
52
64
64
49
46
49
47
41
49
44
34
23
14
23
27
23
16
19
9
8
-2
-4
1
19
19
11
1
15
10
2
1
6
-12
-37
-19
-6
-1
1
-10
-14
-25
-18
-24
-22
-9
1
-8
-2
-1
-7
-26
-24
-16
-17
-19
-14
-3
-12
-14
-19
-16
-17
-15
-15
-14
-9
-23
-30
-20
-13
-2
3
-5
-6
-9
-20
-17
-7
-26
-17
-8
-11
-28
-23
-22
-22
-16
-10
-22
-26
-5
2
1
0
-7
-14
-16
-24
-10
-15
-11
-10
-11
-3
-1
-2
-14
-17
-9
-12
-5
-10
-16
-12
-13
-14
-18
-14
-21
-18
-11
-15
-22
-17
-4
-4
-7
-11
-13
-21
-28
-24
-23
-21
-22
-30
-20
-29
-11
-8
-13
-18
-15
-21
-17
-21
-13
-23
-34
-32
-24
-18
-16
-12
-5
-18
-12
-7
-11
-15
-16
-9
-11
-19
-40
-20
-30
-36
-29
-23
-25
-22
-21
-15
-12
-8
-15
-15
-20
-17
-24
-30
-17
-9
-22
-21
-12
-3
0
3
-11
-21
-23
-35
-36
-37
-31
-30
-30
-31
-28
-28
-24
-8
-16
-23
-24
-18
-27
-32
-32
-22
-21
-28
-33
-34
-35
-25
-30
-30
-21
-24
-2
2
-19
-25
-34
-21
-19
-22
-21
-27
-40
-30
-34
-35
-18
-10
-18
-20
-14
-30
-30
-38
-42
-43
-37
-36
-36
-27
-21
-15
-18
-29
-20
-20
-16
-19
-26
-12
3
-22
-35
-25
-31
-46
-42
-40
-42
-30
-31
-29
-26
-26
-28
-23
-8
-22
-25
-27
-35
-29
-23
-18
-27
-38
-30
-32
-33
-29
-17
-9
-23
-24
-23
-29
-31
-41
-32
-33
-33
-34
-37
-34
-13
-12
-25
-30
-26
-34
-33
-21
-13
-21
-27
-30
-30
-28
-25
-29
-32
-31
-23
-33
-34
-38
-31
-25
-25
-27
-31
-27
-21
-23
-26
-17
-21
-33
-29
-23
-28
-30
-32
-38
-32
-20
-14
-30
-30
-21
-18
-20
-23
-24
-26
-31
-25
-18
-21
-32
-36
-33
-30
-21
-13
-9
-19
-37
-33
-36
-33
-31
-22
-16
-14
-10
-1
-17
-18
-15
-30
-25
-15
-18
-17
-12
-7
-1
-13
-18
-13
-12
-11
-5
3
-7
-15
-17
-22
-22
-17
-14
-4
-11
-24
-20
-23
-23
-28
-24
-23
-12
-10
-12
0
5
6
-11
-18
-18
-27
-32
-39
-37
-40
-36
-33
-24
-25
-30
-24
-22
-28
-29
-30
-34
-29
-24
-18
-27
-30
-35
-27
-22
-16
4
8
22
42
59
73
77
68
67
83
82
87
104
109
111
119
118
104
75
46
13
-21
-52
-52
-38
-22
-11
-8
-4
-1
-4
-3
-1
-6
-13
-10
2
-5
-28
-23
-12
-9
-10
-8
2
10
-2
-10
-23
-23
-20
-11
-14
-12
-6
0
-6
-7
-3
-5
-2
1
0
-6
-5
-4
-5
-10
-14
-19
-16
-9
-10
-1
8
-4
-1
-1
-4
-11
-14
-10
3
13
9
6
6
2
2
7
10
21
13
2
6
9
7
1
-4
1
15
14
23
30
15
11
23
21
29
27
16
17
19
18
21
23
20
20
31
23
19
27
26
27
21
32
26
26
36
25
39
40
16
29
30
28
29
33
34
27
29
30
36
46
43
37
20
18
24
20
27
31
34
35
31
14
7
13
27
16
8
17
20
4
8
18
-1
-3
-11
-8
-9
-12
-5
-8
-19
-16
-8
-15
-15
-7
-5
-5
-6
-18
-25
-33
-22
-23
-22
-21
-7
-11
-15
-13
-12
-15
-21
-20
-10
-13
-9
-21
-21
-36
-33
-27
-21
-1
-4
-6
-12
-20
-10
-15
-28
-23
-11
-15
-15
-15
-15
-9
-9
-7
-9
-13
-5
-19
-19
-19
-22
-20
-10
-19
-20
-20
-28
-23
-16
-14
-14
-10
2
-1
-14
0
-7
-12
-21
-21
-26
-32
-16
-7
-11
-15
-17
-27
-17
-8
-16
-20
-20
-15
-15
-18
-29
-29
-28
-28
-25
-22
-28
-25
-26
-25
-28
-31
-24
-27
-21
-22
-22
-11
-13
-34
-24
-14
-19
-24
-12
-9
-20
-12
-22
-32
-37
-34
-31
-23
-20
-31
-31
-39
-26
-20
-18
-25
-26
-29
-27
-23
-22
-26
-24
-33
-16
-21
-24
-12
-6
4
-25
-40
-37
-30
-20
-29
-33
-38
-31
-19
-28
-29
-28
-30
-35
-37
-34
-35
-17
-5
-17
-14
-13
-24
-25
-25
-38
-31
-26
-26
-29
-30
-23
-23
-22
-5
-3
-7
-4
-17
-27
-22
-24
-31
-20
-17
-9
-6
-16
-14
-13
-17
-6
-7
-25
-28
-22
-23
-35
-37
-28
-22
-28
-47
-58
-52
-33
-26
-16
-17
-28
-34
-27
-35
-33
-40
-48
-42
-29
-30
-29
-30
-38
-36
-36
-24
-28
-35
-31
-32
-38
-30
-44
-53
-38
-25
-22
-1
11
24
33
56
70
72
56
63
64
52
64
83
93
103
93
84
67
36
14
-27
-68
-68
-58
-45
-23
-20
-13
-14
-21
-24
-27
-20
-9
-23
-19
-9
-14
-25
-25
-29
-32
-32
-23
-25
-27
-13
-13
-10
-23
-24
-14
-29
-28
-23
-17
-20
-8
-10
-8
-6
9
-4
-7
-7
-26
-30
-13
-8
-11
-18
-14
-9
-7
-9
-15
-17
-13
-14
-28
-7
2
-9
-22
-10
-7
-9
-7
-3
-7
9
8
5
11
7
1
-6
-13
-9
-11
4
20
17
16
12
1
3
7
4
11
20
22
6
15
15
18
10
19
22
23
30
23
24
33
25
23
37
33
19
23
23
41
59
61
42
42
43
32
26
37
43
36
27
26
19
13
13
23
27
26
22
21
22
13
19
9
6
2
-6
0
3
0
-13
-10
-3
-6
-11
-21
-24
-10
-11
-12
-14
-24
-27
-27
-31
-16
-14
-8
-11
-14
-21
-34
-39
-48
-44
-47
-30
-27
-25
-24
-20
-18
-23
-32
-27
-28
-25
-38
-39
-23
-14
-9
-15
-17
-16
-20
-28
-25
-28
-24
-30
-31
-40
-24
-15
-16
-17
-12
-18
-35
-32
-22
-28
-20
-9
-17
-25
-13
-20
-17
-15
-23
-42
-30
-23
-26
-23
-22
-27
-27
-22
-22
-21
-25
-20
-18
-18
-15
-20
-30
-28
-26
-41
-25
-16
-12
-12
-12
-25
-15
-13
-11
-21
-34
-34
-44
-41
-39
-38
-35
-22
-35
-46
-42
-39
-28
-27
-15
-20
-17
-17
-21
-17
-25
-25
-24
-27
-28
-28
-30
-28
-16
-24
-38
-32
-34
-24
-23
-25
-17
-25
-21
-16
-19
-24
-30
-18
-17
-26
-33
-30
-35
-28
-37
-32
-27
-29
-26
-27
-32
-33
-22
-11
-10
-15
-21
-25
-17
-29
-38
-31
-30
-16
10
-2
-18
-8
-13
-17
-14
-16
-25
-21
-32
-24
-33
-38
-27
-26
-22
-30
-44
-39
-27
-27
-36
-36
-31
-23
-22
-23
-31
-31
-40
-28
-28
-30
-32
-37
-43
-42
-36
-35
-32
-26
-8
15
41
63
61
67
63
64
68
66
53
65
90
82
76
74
62
38
29
9
-22
-49
-61
-54
-47
-21
-3
-9
-23
-16
-9
-8
-17
-23
-25
-13
-3
-20
-19
-27
-26
-28
-26
-30
-21
-12
-22
-31
-41
-36
-30
-30
-26
-5
-5
0
-5
-12
-4
0
-3
-7
-16
-13
-12
-11
-11
-11
-16
-2
-14
-20
-9
-13
3
-7
-20
-10
-20
-13
-7
0
-1
-14
-4
0
-1
6
10
-1
-13
-1
4
-5
3
-3
1
2
4
6
9
10
5
-2
5
10
16
11
10
8
6
28
31
29
36
20
12
23
40
35
19
25
30
41
46
46
40
44
41
31
38
44
37
44
44
39
28
30
35
39
48
37
28
32
28
27
15
14
10
22
39
33
27
7
9
11
3
-3
4
8
7
-3
-16
-13
-30
-28
-21
-12
-7
-3
0
-7
-14
-12
-10
-9
-19
-23
-12
-14
-24
-34
-38
-34
-21
-23
-25
-23
-24
-15
-20
-27
-24
-30
-32
-34
-27
-30
-27
-31
-34
-32
-22
-14
-7
-22
-26
-20
-21
-24
-21
-23
-21
-18
-21
-17
-21
-11
-3
-3
-13
-26
-31
-28
-23
-32
-18
-16
-17
-12
-13
-14
-12
-9
-3
-12
-25
-31
-38
-26
-22
-22
-29
-24
-26
-25
-26
-21
-15
-26
-27
-31
-11
-7
-22
-37
-39
-31
-23
-11
-17
-14
-13
-11
-22
-16
-17
-32
-32
-28
-15
-17
-27
-32
-28
-24
-27
-33
-28
-24
-25
-30
-33
-29
-24
-23
-25
-23
-21
-39
-46
-40
-28
-21
-16
-22
-14
-18
-30
-44
-31
-16
-19
-16
-10
-14
-19
-29
-36
-31
-21
-27
-33
-36
-31
-31
-26
-23
-24
-30
-26
-36
-36
-34
-34
-25
-18
-12
-14
-22
-24
-21
-17
-15
-8
-20
-23
-24
-23
-26
-28
-26
-27
-35
-34
-24
-23
-21
-32
-34
-25
-15
-16
-24
-31
-23
-32
-39
-37
-29
-25
-11
-16
-18
-11
-30
-44
-37
-36
-27
-30
-39
-31
-32
-35
-31
-31
-36
-30
-31
-28
-14
-32
-39
-48
-49
-50
-47
-40
-24
-11
-2
25
39
55
59
63
60
65
68
68
67
93
99
99
90
75
64
43
27
-8
-32
-47
-51
-37
-23
-15
-7
-6
-8
-11
-12
-5
-9
-11
-18
-20
-32
-30
-25
-24
-3
-12
2
-21
-27
-25
-20
-8
-3
4
-15
-34
-30
-20
-21
-14
-13
-7
-5
-10
-7
-8
-15
-9
-9
-15
-17
-11
-12
-9
-12
-9
-9
-12
-23
-25
-14
-4
-3
5
8
3
4
6
-6
-12
-13
-10
-3
-2
19
12
8
0
5
10
8
4
1
3
5
11
21
22
6
15
24
22
18
21
21
24
15
24
32
24
40
30
29
28
26
34
28
32
39
44
50
39
31
37
37
31
25
27
35
37
56
48
45
41
30
35
38
45
43
30
29
31
32
37
20
14
11
16
3
5
8
5
11
0
-3
-6
-4
-6
-9
-3
-12
-5
-12
0
-3
1
-18
-19
-38
-26
-18
-14
-9
-9
-16
-19
-38
-32
-33
-40
-24
-18
-17
-22
-31
-32
-29
-31
-30
-28
-26
-20
-27
-24
-24
-26
-32
-30
-23
-13
-15
-6
-9
-19
-31
-23
-10
-9
-12
-18
-10
-15
-10
-8
-23
-27
-29
-32
-21
-7
-29
-21
-10
-6
-9
-14
-15
-14
-11
-18
-9
-7
-11
-16
-31
-24
-14
-19
-18
-33
-30
-19
-18
-14
-14
-28
-27
-18
-22
-34
-31
-13
-35
-33
-25
-31
-31
-17
-24
-23
-26
-24
-14
-24
-28
-37
-24
-19
-22
-24
-4
0
-7
-15
-24
-22
-21
-15
-26
-25
-31
-37
-36
-45
-35
-23
-25
-22
-23
-24
-23
-31
-18
-17
-19
-23
-45
-46
-39
-23
-24
-36
-27
-15
-28
-31
-42
-32
-28
-20
-25
-31
-25
-34
-29
-31
-23
-28
-24
-19
-21
-15
-24
-15
-17
-25
-31
-32
-33
-37
-33
-30
-24
-22
-27
-30
-19
-28
-38
-34
-28
-28
-30
-24
-14
-9
-9
-20
-27
-32
-33
-36
-8
-12
-22
-15
-2
-10
-15
-9
-11
-29
-29
-28
-37
-37
-38
-33
-22
-27
-27
-30
-18
-17
0
-24
-27
-32
-35
-21
-20
-17
-35
-46
-39
-40
-35
-33
-30
-29
-34
-37
-10
-19
-23
-26
-35
-36
-35
-34
-29
-40
-37
-36
-38
-38
-42
-40
-31
-18
1
19
34
48
54
59
66
82
85
85
78
99
99
103
103
84
59
53
24
1
-28
-51
-46
-37
-21
0
-3
6
-13
-15
-22
-19
-21
-17
-18
-15
-15
-8
-19
-19
-13
-17
-19
-25
-30
-25
-10
-21
-31
-33
-18
-7
0
-4
-12
-14
-14
-8
-10
-2
-1
6
19
7
-11
-16
-26
-25
-23
-13
-3
-1
-6
-11
-14
-14
-10
-10
1
9
11
0
0
-12
-7
2
-5
-1
12
-2
1
-8
-4
0
2
4
6
7
7
7
18
16
8
20
22
26
18
18
12
13
17
32
41
42
38
29
23
31
31
29
20
26
33
36
43
52
46
33
32
27
26
32
41
50
41
34
40
50
47
44
38
43
40
37
39
28
30
33
34
27
20
16
19
27
23
28
31
14
11
4
1
1
7
-3
-4
-3
-4
-15
-12
-16
-9
-13
-12
-23
-23
-19
-19
-19
-9
-2
-11
-20
-26
-18
-23
-23
-19
-18
-4
-10
-6
-21
-10
-6
-15
-14
-14
-17
-18
-10
-17
-31
-22
-26
-13
-12
-17
-19
-17
-19
-15
-14
-19
-8
-5
-16
-17
-18
-6
-11
-10
-6
-19
-16
-10
-19
-17
-4
-2
-14
-14
-14
-10
-8
-14
-17
-12
-7
-15
-13
-2
1
-4
-7
-5
-22
-23
-22
-14
-8
-19
-16
-9
8
2
-11
-19
-16
-11
-24
-43
-30
-17
-11
-25
-22
-22
-31
-35
-26
-19
-16
-30
-22
-24
-18
-13
-7
-5
-19
-14
-10
-16
-12
-17
-11
-8
-13
-23
-13
-13
-23
-24
-16
-15
-31
-26
-25
-23
-18
-17
-18
-26
-22
-17
-25
-17
-27
-29
-21
-24
-18
-15
-14
-11
3
6
-1
-18
-35
-40
-38
-37
-23
-16
-18
-16
-18
-29
-35
-28
-19
-23
-26
-27
-25
-24
-32
-34
-36
-29
-22
-18
-12
-22
-27
-24
-28
-27
-35
-45
-38
-34
-36
-20
-16
3
5
-22
-26
-21
-29
-18
-12
-19
-35
-28
-28
-19
-28
-11
6
1
-19
-19
-28
-18
0
-10
-13
-22
-29
-28
-33
-30
-19
-17
-18
-32
-34
-27
-24
-6
-12
-17
-25
-29
-21
-1
-3
-19
-26
-25
-29
-26
-25
-32
-28
-30
-25
-23
-19
-15
-19
-17
-20
-8
-5
-26
-36
-24
-17
-23
-38
-44
-28
-34
-35
-28
-20
-25
-24
-24
-29
-31
-39
-48
-43
-33
-33
-45
-39
-34
-31
-22
-1
9
25
50
68
75
68
61
79
87
76
68
88
99
105
95
83
66
44
33
6
-31
-44
-36
-32
-16
-1
-10
-5
-6
-6
-6
-8
-9
-15
-13
-1
3
-15
-32
-36
-29
-22
-26
-20
-11
-16
-13
-9
-11
-12
2
-1
-4
-2
-1
-6
1
-10
-7
-10
-23
-12
-5
-8
10
6
-3
-16
-10
-4
-9
-10
2
-11
-11
2
-2
-14
-23
-10
2
-3
7
8
15
10
14
20
4
-9
-6
0
6
5
1
5
12
13
21
25
20
26
18
17
12
12
14
9
26
19
24
33
33
35
25
31
30
29
40
41
39
41
40
40
48
61
54
54
42
34
24
31
35
41
41
43
42
42
46
36
39
45
40
35
40
35
37
43
29
29
33
26
26
28
23
21
13
7
3
-7
-8
-2
-1
-4
-8
-15
-2
4
-8
-17
-4
-3
3
-8
-17
-10
-16
-26
-20
-14
-11
-2
-8
-15
-4
-9
-4
-8
-30
-42
-31
-8
-6
-13
-23
-25
-30
-28
-28
-19
-5
-5
-12
-19
-15
-24
-19
-5
-16
-26
-19
-16
-13
3
-12
-23
-32
-46
-46
-25
-10
-5
-12
-5
-4
5
-8
-15
-12
-11
3
10
2
-5
-3
-17
-31
-23
-21
-25
-15
-11
-27
-14
-12
-4
-10
-16
2
-19
-23
-28
-27
-27
-15
-15
-19
-23
-17
-9
-10
-18
-21
-24
-19
-24
-18
-21
-22
-18
-26
-26
-28
-19
-10
-16
-19
-24
-26
-26
-26
-16
-17
-9
-13
-21
-28
-24
-18
-15
-19
-22
-21
-23
-28
-27
-16
-5
-10
-15
-22
-36
-34
-24
-21
-16
-17
5
-4
-14
-17
-34
-25
-14
-9
-18
-18
-29
-29
-22
-20
-21
-13
-10
-3
-3
-9
-27
-36
-34
-21
-10
-14
-9
-8
-11
-11
-9
-23
-32
-26
-20
-8
-28
-23
-27
-26
-11
-12
-15
-12
-16
-24
-19
-21
-22
-15
0
-2
-32
-42
-29
-18
-8
6
-3
-9
-13
-10
-8
-11
-21
-26
-32
-28
-28
-20
-26
-33
-8
11
-7
-11
1
-9
-19
-34
-33
-30
-24
-12
-18
-19
-9
-10
-19
-17
-16
-19
-23
-20
-33
-36
-20
-25
-27
-17
-7
-16
-20
-20
-11
3
-2
-23
-32
-34
-18
-21
-12
-1
-15
-25
-17
-11
-6
-12
-19
-23
-21
-15
-12
-20
-22
-17
-15
-14
-13
-1
-3
-5
-8
-7
-20
-19
-16
-14
-14
-18
-13
-1
-5
0
-3
-15
-17
-19
-17
-25
-14
-13
-17
-16
-14
-18
-24
-28
-14
-18
-27
-17
-27
-28
-24
-21
-13
-16
-9
-14
-24
-26
-25
-30
-26
-21
-14
-19
-19
-23
-35
-28
-25
-30
-23
-31
-25
-38
-37
-40
-42
-35
-28
-7
13
37
60
93
96
98
99
101
107
88
88
110
124
128
103
89
68
43
24
-11
-39
-43
-30
-16
0
-3
7
-4
-15
-16
-21
-10
-8
-10
-7
-3
-5
-4
0
1
-13
-15
5
-1
-10
-16
-10
-10
-16
-14
-16
-18
-5
-2
-15
-11
0
13
9
3
10
0
-15
-8
-11
-8
-4
1
6
7
10
-4
5
15
12
9
1
-6
0
2
2
6
12
16
7
2
-13
0
-8
0
2
7
18
10
8
12
12
5
6
6
12
20
26
24
23
19
25
24
29
28
29
33
27
26
32
34
51
46
41
42
44
44
40
41
43
41
45
46
52
41
36
51
67
66
51
26
26
48
41
38
29
30
34
29
30
37
47
57
45
34
29
46
31
36
27
25
29
24
19
8
9
4
15
11
6
-7
-27
-8
-4
6
-3
-5
-17
-14
-17
-12
-14
-13
-10
0
-5
-7
4
-12
-11
-14
-20
-17
-18
-9
-5
-15
-14
-14
-18
-4
-15
-7
-20
-26
-28
-26
-13
-7
10
15
14
3
2
-9
-18
-8
-17
-26
-17
-9
-14
-18
-13
-18
-15
-4
-2
-9
-9
-6
-9
-24
-23
-10
-16
-17
-4
-1
-25
-13
-9
-13
-15
-14
-5
-8
-11
-11
-10
-15
-18
-17
-26
-11
1
1
-5
-4
0
-11
-15
-17
-12
2
3
-17
-21
-23
-22
-15
-22
-27
-28
-27
-15
-13
-12
-8
-20
-25
-35
-30
-17
-14
-19
-22
-27
-26
-8
-1
-16
-31
-38
-34
-26
-22
-14
-13
-4
-14
-15
-9
-18
-25
-17
-33
-35
-22
-11
-14
-31
-25
-22
-35
-36
-43
-27
-10
1
-5
-6
-4
-10
-8
-8
-7
-27
-30
-38
-42
-51
-42
-15
-9
-19
-26
-28
-7
-1
-27
-22
-16
-35
-37
-34
-28
-25
-23
-16
-22
-28
-30
-23
-28
-23
-23
-22
-29
-28
-33
-15
-9
-10
-13
-28
-39
-30
-27
-23
-15
-1
-10
-28
-34
-27
-20
-16
-20
-19
-24
-24
-39
-34
-29
-26
-23
-27
-31
-31
-31
-20
-10
-8
-12
-2
-20
-31
-31
-25
-30
-30
-30
-28
-21
-21
-10
-16
-19
-33
-25
-21
-18
-10
-10
-13
-6
-12
-7
-9
-9
-25
-19
-17
-31
-30
-17
-7
-15
-31
-42
-37
-28
-22
-23
-29
-35
-31
-29
-30
-16
-20
-29
-24
-32
-19
-19
-10
-5
-5
-19
-37
-44
-32
-31
-25
-29
-22
-24
-35
-44
-34
-19
-31
-17
-19
-33
-41
-51
-41
-13
10
27
39
59
78
79
58
65
62
67
68
89
101
103
118
96
70
49
22
-12
-41
-56
-51
-46
-33
-9
-6
-10
-10
-11
-11
-9
-5
-5
-2
-4
-18
-16
-21
-23
-24
-26
-31
-25
-10
-2
-3
-7
-5
-10
-16
-23
-24
-18
-9
-9
-9
-19
-22
-19
-15
-10
-9
-12
-12
-19
-7
-7
-5
-10
-11
-8
-6
-12
-9
-1
3
13
3
-9
11
17
10
4
-5
-8
-1
2
-1
-6
12
8
12
14
3
9
9
13
8
-1
8
5
15
7
8
17
26
25
23
27
29
26
11
1
12
23
13
18
24
31
25
31
46
46
41
49
38
44
37
43
53
44
38
40
46
51
49
32
47
48
51
36
45
42
37
29
31
26
34
40
42
31
22
7
8
5
9
12
12
13
9
-7
-8
-10
-9
-5
-8
-13
-8
-13
-26
-16
-14
-20
-16
-14
-9
-18
-17
-18
-13
-18
-26
-29
-37
-28
-20
-19
-3
-7
-11
-16
-16
-5
-17
-7
-15
-28
-33
-30
-32
-20
-25
-19
-7
-11
-14
-21
-24
-25
-28
-20
-10
-7
-6
-7
-27
-38
-38
-21
-22
-17
-10
-11
-13
-11
-3
-24
-21
-22
-33
-31
-29
-9
2
-2
-5
-7
-6
-15
-23
-26
-15
-17
-14
-26
-23
-25
-19
-18
-17
-24
-28
-22
-20
-20
-16
-10
-11
-10
-15
-26
-28
-25
-16
-13
-13
-19
-16
-6
-7
-18
-17
-17
-27
-27
-30
-29
-32
-22
-26
-38
-36
-19
-12
-14
-21
-25
-28
-19
-20
-26
-10
-21
-34
-36
-21
-25
-16
-8
-15
-18
-20
-28
-33
-22
-26
-32
-29
-30
-36
-32
-27
-33
-28
-26
-31
-32
-24
-33
-39
-18
-33
-31
-15
-14
-23
-23
-16
-22
-30
-37
-33
-30
-37
-32
-12
-15
-16
-18
-27
-18
-16
-25
-33
-27
-19
-18
-15
-20
-22
-16
-8
-26
-32
-40
-32
-37
-42
-27
-23
-29
-23
-22
-20
-27
-33
-32
-35
-28
-26
-24
-25
-31
-28
-21
-18
-12
-14
-14
-15
-13
-16
-20
-16
-11
-24
-28
-26
-23
-23
-24
-24
-24
-9
-18
-16
-19
-28
-32
-41
-25
-26
-30
-23
-34
-29
-31
-35
-34
-34
-27
-25
-29
-31
-36
-31
-4
-9
-12
-9
-13
-20
-28
-39
-36
-44
-37
-15
-23
-59
-58
-45
-30
-36
-42
-34
-20
-9
-4
7
31
44
58
57
60
53
69
78
62
81
103
110
100
91
93
67
43
21
-17
-43
-50
-37
-29
-20
-23
-20
-6
-12
-10
-16
-24
-26
-19
-20
-12
-9
-27
-36
-35
-25
-22
-19
-19
-20
-22
-25
-11
-18
-17
-14
-22
-25
-30
-29
-19
-23
-16
-7
-19
-15
-14
-21
-23
-28
-20
-26
-30
-19
-5
-10
-25
-15
-3
-12
-8
-16
-19
-6
-6
-10
-2
-3
0
-8
-8
-6
1
-1
-23
-16
2
14
-1
-10
-4
-1
0
1
6
-12
-21
-16
-1
20
26
13
19
17
20
26
22
23
27
25
5
26
27
26
19
19
11
16
22
14
22
35
39
34
27
30
37
33
36
37
40
45
36
35
33
34
35
31
23
13
14
22
26
13
9
11
12
16
8
1
-4
-22
-29
-14
-5
3
-1
-11
-11
-14
-5
2
-11
-26
-21
-19
-29
-31
-32
-27
-39
-46
-40
-30
-35
-45
-31
-14
-28
-32
-31
-22
-42
-47
-40
-31
-35
-33
-41
-47
-40
-30
-28
-32
-34
-34
-38
-42
-39
-38
-42
-39
-29
-6
-21
-27
-20
-17
-17
-20
-19
-17
-28
-37
-49
-50
-39
-43
-24
-25
-28
-32
-33
-28
-22
-26
-41
-40
-45
-43
-29
-32
-33
-31
-30
-34
-21
-35
-36
-28
-21
-44
-42
-19
-27
-36
-36
-39
-34
-44
-37
-41
-31
-34
-34
-30
-31
-32
-26
-17
-32
-21
-26
-30
-33
-29
-40
-38
-42
-35
-23
-28
-29
-19
-16
-39
-48
-41
-40
-27
-37
-36
-23
-22
-18
-24
-26
-26
-34
-35
-36
-41
-44
-44
-40
-40
-45
-31
-28
-39
-42
-50
-50
-48
-41
-37
-45
-40
-33
-34
-35
-50
-60
-47
-38
-44
-34
-31
-37
-50
-47
-44
-29
-25
-30
-31
-29
-26
-37
-39
-36
-39
-52
-31
-17
-30
-38
-37
-41
-38
-48
-52
-47
-53
-54
-45
-45
-46
-48
-37
-42
-45
-34
-36
-29
-27
-32
-35
-37
-38
-54
-51
-41
-40
-43
-43
-29
-28
-36
-46
-42
-38
-25
-21
-28
-26
-20
-33
-37
-36
-32
-39
-36
-35
-36
-35
-37
-40
-44
-29
-24
-35
-26
-27
-34
-38
-31
-46
-47
-40
-54
-54
-34
-18
-35
-41
-40
-43
-34
-15
-27
-20
-31
-36
-43
-40
-47
-48
-45
-55
-54
-43
-42
-45
-40
-37
-51
-58
-68
-61
-60
-47
-35
-11
9
21
49
54
69
64
73
79
65
65
85
102
100
101
78
71
42
2
-21
-46
-56
-54
-46
-41
-34
-26
-18
-12
-11
-12
-15
-9
2
-9
-29
-22
-21
-16
-14
-23
-39
-43
-38
-32
-37
-45
-48
-43
-40
-43
-27
-16
-9
-27
-31
-29
-27
-20
-25
-28
-28
-31
-24
-18
-14
-21
-31
-20
-11
-10
-10
-17
-22
-16
-18
-13
-30
-33
-31
-22
-2
-4
-16
-25
-17
-19
-9
2
4
-17
-12
-1
-2
-11
0
-5
1
-6
-5
2
-6
-4
7
26
20
14
8
8
26
10
-3
17
25
20
30
24
18
20
19
14
23
30
31
35
35
20
21
27
23
20
24
24
22
30
32
33
27
26
25
25
20
20
17
26
31
23
27
26
18
21
11
2
4
1
-2
3
3
2
-6
-16
-18
-18
-15
-29
-21
-15
-40
-38
-42
-24
-20
-32
-33
-36
-28
-33
-28
-22
-14
-26
-23
-27
-31
-42
-69
-48
-38
-38
-41
-35
-33
-34
-40
-47
-40
-41
-44
-37
-33
-29
-38
-34
-44
-49
-43
-32
-39
-31
-34
-32
-21
-28
-30
-35
-36
-36
-37
-40
-32
-31
-29
-31
-35
-33
-30
-31
-31
-23
-37
-30
-29
-38
-34
-38
-32
-24
-31
-35
-40
-22
-25
-33
-51
-52
-48
-49
-40
-48
-41
-25
-33
-43
-43
-39
-31
-40
-47
-40
-35
-37
-44
-46
-25
-13
-28
-43
-44
-38
-45
-46
-34
-43
-37
-49
-54
-50
-36
-43
-39
-44
-33
-35
-41
-36
-36
-41
-37
-41
-45
-39
-42
-29
-36
-48
-45
-43
-36
-38
-35
-41
-31
-45
-52
-41
-44
-46
-43
-52
-56
-55
-47
-46
-50
-56
-59
-51
-55
-42
-35
-39
-29
-32
-34
-38
-43
-37
-39
-39
-44
-39
-50
-47
-32
-38
-34
-23
-25
-34
-41
-43
-52
-50
-43
-34
-31
-36
-31
-32
-27
-21
-28
-54
-53
-47
-47
-38
-35
-36
-38
-29
-37
-36
-41
-45
-44
-54
-54
-54
-52
-45
-56
-47
-43
-45
-43
-37
-33
-36
-37
-40
-44
-50
-44
-53
-45
-46
-49
-53
-42
-43
-40
-55
-53
-51
-50
-58
-63
-59
-61
-54
-44
-34
-17
-3
15
35
49
46
42
44
40
36
18
24
59
78
84
77
70
51
27
4
-18
-49
-68
-64
-57
-48
-39
-35
-32
-32
-32
-40
-37
-39
-40
-24
-20
-23
-20
-27
-27
-29
-35
-41
-34
-29
-37
-40
-32
-26
-29
-33
-31
-33
-25
-35
-23
-23
-30
-39
-41
-41
-39
-33
-10
-8
-16
-28
-22
-28
-23
-20
-21
-19
-15
-20
-23
-30
-26
-18
-15
-9
-8
-7
-13
-15
-12
-10
-21
-30
-24
-31
-13
-12
-14
-5
8
0
-17
-10
-2
-6
5
2
-2
1
10
9
6
-3
1
4
2
5
4
1
1
-1
14
29
25
30
34
34
21
13
12
16
23
25
27
25
29
30
28
25
27
30
14
23
20
24
22
24
16
24
24
24
21
23
17
15
9
-2
5
6
7
-4
-3
-4
-10
-3
-15
-23
-34
-33
-38
-26
-26
-34
-38
-34
-36
-39
-41
-30
-28
-30
-32
-34
-39
-44
-44
-37
-35
-34
-20
-18
-38
-53
-45
-24
-22
-21
-44
-35
-27
-37
-23
-29
-32
-18
-25
-40
-47
-46
-37
-37
-37
-32
-34
-26
-30
-19
-32
-34
-35
-33
-30
-30
-35
-39
-49
-43
-40
-40
-34
-30
-25
-9
-20
-22
-34
-25
-27
-31
-38
-34
-32
-31
-30
-21
-25
-28
-31
-27
-34
-40
-29
-35
-25
-20
-24
-28
-32
-44
-44
-30
-34
-30
-32
-36
-30
-35
-40
-34
-34
-36
-30
-30
-33
-28
-24
-37
-31
-37
-31
-33
-31
-33
-42
-43
-39
-34
-46
-34
-38
-36
-30
-45
-38
-33
-34
-44
-44
-31
-29
-34
-42
-49
-56
-42
-28
-34
-21
-16
-27
-41
-39
-41
-48
-42
-30
-24
-26
-40
-37
-31
-30
-34
-35
-49
-39
-24
-31
-39
-49
-50
-34
-37
-31
-35
-30
-20
-16
-19
-16
-27
-27
-34
-19
-19
-32
-37
-35
-42
-42
-36
-39
-40
-30
-25
-37
-39
-32
-31
-29
-20
-20
-44
-44
-47
-53
-41
-26
-37
-43
-39
-45
-49
-51
-47
-47
-45
-44
-36
-31
-37
-43
-36
-38
-35
-38
-39
-32
-35
-44
-42
-47
-42
-34
-31
-28
-10
-3
8
33
34
50
53
40
46
66
64
64
91
100
95
80
74
57
44
19
-4
-25
-65
-69
-60
-45
-53
-30
-19
-16
-14
-12
-13
-25
-18
-19
-27
-31
-39
-28
-25
-18
-9
-21
-35
-19
-25
-29
-22
-25
-20
-25
-26
-27
-22
-25
-27
-26
-29
-30
-18
-19
-19
-11
-10
-12
-27
-28
-36
-36
-29
-5
3
5
20
2
-16
-9
-19
-25
-20
-16
-18
-17
-7
-5
-5
-6
-8
-9
-12
-3
-9
-5
1
-3
-1
2
13
13
-1
-4
-7
-7
0
7
11
14
9
12
21
16
11
15
17
14
12
7
7
23
34
38
42
47
50
28
20
20
13
27
30
30
35
37
30
35
36
36
35
44
40
32
31
27
27
39
30
32
22
13
18
11
9
23
16
15
13
-6
-15
-11
-15
-20
-20
-24
-14
-10
-6
-13
-26
-26
-22
-19
-18
-19
-23
-19
-32
-18
-7
-18
-22
-28
-26
-35
-30
-46
-50
-42
-30
-32
-34
-35
-30
-18
-5
-15
-19
-25
-48
-39
-28
-28
-28
-25
-32
-29
-29
-19
-19
-23
-27
-24
-22
-25
-26
-34
-20
-16
-18
-20
-11
-12
-24
-39
-42
-38
-36
-33
-16
-20
-13
-17
-17
-27
-27
-26
-12
-14
-30
-25
-31
-25
-17
-22
-34
-35
-25
-22
-33
-43
-16
-16
-10
-18
-28
-18
-2
-30
-25
-24
-35
-37
-15
-17
-31
-38
-36
-35
-31
-26
-31
-29
-24
-32
-38
-40
-30
-28
-26
-26
-35
-31
-35
-30
-27
-18
-21
-22
-26
-25
-28
-30
-29
-26
-20
-31
-27
-14
-26
-41
-40
-38
-32
-32
-42
-42
-42
-36
-26
-25
-28
-25
-35
-35
-32
-29
-20
-17
-18
-23
-36
-37
-31
-48
-50
-40
-29
-28
-34
-28
-22
-22
-22
-13
-30
-30
-22
-16
-21
-38
-39
-45
-31
-15
-16
-32
-38
-38
-32
-31
-35
-37
-43
-40
-36
-31
-45
-35
-33
-35
-30
-28
-33
-31
-20
-29
-30
-25
-26
-16
-12
-19
-27
-30
-40
-49
-37
-41
-23
-26
-37
-34
-21
-21
-27
-21
-18
-30
-34
-39
-44
-33
-28
-6
-14
-16
-16
-25
-25
-34
-37
-33
-26
-19
-28
-28
-19
-17
-21
-16
-13
-12
-16
-32
-28
-29
-24
-26
-19
-24
-36
-34
-34
-35
-32
-20
-16
-17
-31
-42
-39
-27
-32
-30
-21
-20
-32
-40
-49
-43
-46
-45
-35
-30
-32
-31
-33
-38
-34
-47
-34
-21
-28
-30
-37
-45
-37
-43
-34
-21
-17
-10
-2
21
48
63
54
50
51
63
80
82
73
73
108
104
97
94
70
42
25
12
-11
-42
-55
-50
-27
-12
-13
-27
-32
-14
-31
-27
-22
-16
-19
-25
-10
-6
-13
-38
-32
-22
-11
-15
-6
-6
-11
-18
-14
-25
-27
-11
-15
-18
-13
-20
-26
-15
-17
-12
-7
-10
-15
-8
-25
-22
-15
-19
-15
-8
-14
-22
-25
-25
-15
-9
-7
8
9
1
-6
-17
3
-6
-9
-4
-10
-16
-10
0
1
-2
-6
-5
-2
4
6
6
10
2
5
7
3
10
17
19
20
17
20
14
12
12
18
21
31
32
37
18
25
19
20
38
45
27
28
27
29
37
33
29
31
31
28
25
31
29
35
40
46
42
38
34
41
45
39
38
30
19
20
13
29
31
16
6
13
13
3
2
6
1
2
-3
-10
-10
8
4
-2
-3
-8
-10
-11
0
-13
-14
-11
-15
-26
-22
-21
-23
-20
-30
-23
-17
-13
-13
1
-21
-41
-47
-42
-40
-35
-35
-22
-18
-23
-15
-8
-21
-29
-35
-26
-20
-16
-14
-15
-18
-22
-17
-20
-21
-21
-23
-23
-18
-13
-19
-14
-14
-14
-11
-19
-14
-9
-16
-22
-21
-17
-28
-36
-21
-16
-18
-10
-11
-20
-13
-18
-30
-25
-16
-13
-6
-19
-25
-24
-20
-29
-38
-32
-23
-20
-21
-18
-20
-16
-26
-28
-16
-21
-20
-21
-19
-21
-35
-24
-13
-6
-29
-24
-23
-30
-20
-19
-20
-27
-29
-21
-24
-19
-30
-36
-35
-29
-35
-31
-26
-21
-31
-35
-41
-37
-32
-19
-27
-32
-17
-18
-20
-25
-31
-34
-31
-19
-16
-26
-40
-32
-12
-20
-14
-13
-17
-19
-26
-39
-32
-33
-29
-34
-35
-28
-18
-18
-16
-31
-25
-35
-17
-25
-31
-33
-33
-46
-38
-31
-26
-25
-20
-30
-27
-24
-28
-23
-34
-23
-33
-33
-26
-33
-35
-21
-16
-23
-28
-20
-24
-36
-32
-19
-35
-48
-34
-29
-30
-27
-27
-11
-26
-25
-19
-24
-13
-19
-27
-25
-29
-20
-14
-21
-38
-37
-36
-31
-24
-26
-28
-30
-32
-33
-34
-38
-27
-28
-20
-29
-27
-24
-19
-27
-28
-14
-18
-22
-26
-35
-39
-36
-30
-38
-32
-27
-33
-24
-19
-13
-12
-12
-15
-18
-19
-19
-13
-12
-17
-22
-35
-28
-15
-7
-19
-18
-27
-27
-25
-31
-18
-31
-32
-33
-14
-27
-30
-28
-18
-10
-26
-35
-42
-30
-27
-36
-33
-32
-37
-29
-31
-20
-25
-27
-29
-29
-42
-42
-33
-30
-35
-27
-31
-28
-39
-41
-34
-37
-48
-39
-11
3
21
32
46
59
64
51
59
74
82
77
66
84
97
103
95
91
79
53
30
5
-19
-45
-46
-37
-29
-26
-9
1
-4
-11
-15
-25
-25
-5
-8
-21
-5
-10
-17
-20
-24
-12
-11
-21
-16
-13
-1
7
6
-7
-13
-28
-38
-35
-34
-18
-17
-15
-11
-16
-15
-4
-9
-3
-17
-18
-12
-24
-7
-5
-6
-7
-10
-5
-11
-13
2
9
1
-5
10
4
-12
-6
0
-3
-5
-6
-6
1
5
-1
14
19
13
9
11
10
6
4
10
0
6
24
25
26
31
22
22
11
18
24
22
18
12
8
17
22
30
43
44
30
26
32
27
36
45
36
36
34
38
47
49
44
40
42
39
31
31
36
39
45
37
45
50
51
46
32
20
26
25
29
26
19
18
19
17
12
11
14
9
2
-1
4
-3
-3
-10
-9
-9
0
-26
-29
-26
-12
-14
5
-4
-16
-16
-5
-30
-31
-22
-29
-40
-22
-8
-13
-14
-7
-4
0
-13
-16
-32
-32
-28
-35
-20
-20
-18
-26
-26
-15
-19
-15
-11
-12
-15
-12
-14
-15
-4
4
-13
-15
-10
-4
-10
-13
-12
-13
-11
-16
-17
-6
-13
-13
-6
-10
-16
-19
-29
-27
-17
-12
-23
-5
-6
-8
-3
-2
-11
-21
-24
-28
-28
-26
-23
-5
-21
-10
-6
-8
-11
-9
-10
-11
3
-4
-20
-8
-11
-21
-23
-25
-42
-34
-1
-8
-16
-14
-17
-16
-23
-25
-24
-12
-8
-14
-8
-9
-4
-16
-33
-33
-32
-34
-24
-26
-13
-16
-20
-27
-27
-33
-26
-15
-18
-22
-25
-30
-32
-26
-14
-3
4
-25
-34
-12
-17
-22
-16
-24
-24
-29
-27
-4
-13
-22
-25
-32
-25
-23
-21
-16
-22
-9
-11
-15
-32
-25
-13
-24
-27
-14
-8
-6
-11
-22
-17
-22
-29
-39
-42
-44
-31
-26
-32
-28
-14
-14
-25
-25
-32
-25
-12
-18
-22
-25
-17
-22
-24
-31
-35
-12
4
-11
-18
-25
-27
-17
-18
-22
-23
-19
-23
-19
-18
-25
-32
-32
-38
-32
-24
-26
-26
-25
-29
-25
-19
-11
-6
-5
-15
-21
-19
-35
-37
-40
-22
-28
-25
-16
-16
-25
-25
-27
-17
-23
-22
-22
-24
-18
-10
-19
-25
-20
-22
-21
-14
-18
-16
-20
-18
-23
-27
-29
-23
-15
-15
-19
-25
4
0
-15
-23
-18
-9
-13
-24
-31
-37
-28
-29
-21
-11
-8
-5
-2
5
6
-21
-36
-29
-24
-22
-25
-38
-14
-17
-23
-22
-11
-16
-18
-17
-31
-36
-31
-25
-21
-24
-33
-31
-40
-35
-8
-10
-20
-25
-37
-21
-25
-26
-24
-33
-38
-33
-26
-33
-35
-28
-32
-35
-21
-2
12
34
50
70
75
75
65
69
78
89
88
107
123
128
111
89
75
54
24
10
-21
-30
-23
-34
-30
-20
-12
-13
-6
-10
-7
-5
0
0
-8
-13
-13
-30
-24
-28
-26
-29
-28
-5
-1
-14
-9
-11
-7
0
-3
-11
-8
1
0
-6
-15
-12
-20
-27
-17
-19
0
7
8
9
-6
-17
-13
0
4
-3
0
7
-4
-2
5
-2
-6
2
-1
-5
-6
-8
-4
9
12
22
25
18
6
-6
7
7
1
1
-6
-7
13
21
12
10
17
17
11
16
13
22
25
23
25
26
47
31
26
28
34
37
40
35
27
37
36
31
28
31
37
38
45
54
50
52
42
40
47
46
47
54
54
42
32
40
45
25
42
49
34
37
37
28
28
25
21
24
23
11
16
15
13
11
8
9
-1
1
-2
-3
-16
-16
-8
-6
-1
6
5
-3
-5
-16
-17
-16
-15
-18
-23
-14
-12
-23
-13
-21
-27
-30
-25
-22
-7
5
-2
-21
-30
-17
-11
-15
-14
-18
-13
-4
-12
-17
-13
-9
-16
-12
-25
-22
-28
-15
-20
-18
-16
-18
-23
-23
-9
-10
-11
-8
-22
-23
-14
-16
-8
-4
-8
-12
-17
-6
-12
-23
-26
-13
-17
-27
-11
-13
-27
-25
-17
-15
-7
-8
-9
-5
-13
-6
-13
-14
-18
-16
-12
-12
-13
-16
-18
-24
-41
-25
-14
-18
-26
-25
-22
-28
-28
-27
-21
-11
-6
3
-12
-24
-22
-25
-34
-14
-9
-16
-13
-26
-35
-33
-31
-25
-24
-20
-14
-22
-15
-14
-16
-26
-33
-26
-29
-27
-26
-26
-22
-24
-13
-18
-18
-28
-21
-24
-24
-19
-17
-13
-15
-22
-18
-15
-20
-25
-26
-26
-32
-44
-41
-34
-20
-22
-21
-12
-22
-29
-24
-28
-30
-24
-28
-34
-24
-30
-35
-32
-27
-28
-29
-12
-29
-36
-23
-14
-16
-5
-16
-10
-14
-14
-14
-31
-42
-36
-34
-33
-27
-31
-32
-12
-8
-2
-17
-21
-26
-30
-25
-34
-35
-30
-12
-22
-26
-26
-34
-37
-51
-38
-31
-34
-29
-12
-22
-32
-33
-24
-28
-37
-27
-27
-25
-30
-30
-19
-17
-30
-22
-19
-17
-14
-20
-21
-21
-19
-26
-40
-38
-44
-28
-17
-10
-10
-6
-16
-22
-23
-22
-19
-24
-25
-26
-27
-13
-12
-21
-44
-30
-12
-12
-14
-26
-28
-30
-25
-22
-19
-29
-6
-15
-17
-21
-32
-35
-18
-14
-13
-11
-6
-22
-34
-28
-28
-28
-28
-39
-38
-33
-18
-16
-34
-38
-33
-16
-31
-26
-33
-24
-29
-38
-31
-28
-29
-29
-25
-24
-31
-26
-30
-31
-30
-28
-23
-30
-40
-41
-43
-35
-30
-17
-11
16
39
54
67
78
67
80
88
63
62
84
95
96
108
106
84
51
38
8
-22
-44
-53
-34
-16
7
1
-6
-12
-19
-22
-12
-17
4
2
-21
-22
-16
-25
-22
-17
-25
-30
-22
-10
-10
-11
-13
-16
-7
-2
-30
-22
-12
-23
-18
-15
-14
-10
-9
-4
-7
-13
-19
-3
-6
-12
-12
-21
-13
2
4
6
7
-11
-15
-12
-12
-6
-4
0
-5
-4
-3
-8
7
9
-6
-9
-2
0
1
10
25
22
7
1
11
4
-2
12
17
18
13
25
20
17
27
27
22
18
23
17
23
22
18
19
25
32
55
44
39
49
43
32
33
29
32
35
42
43
38
55
42
40
33
47
34
39
42
42
46
51
45
40
29
39
37
41
21
26
41
40
26
7
9
6
1
9
13
5
3
-3
-7
-1
3
2
-8
-13
-6
-2
-20
-23
-28
-14
-11
-9
-9
-4
-5
-12
-21
-27
-29
-30
-32
-15
-22
-24
-31
-27
-22
-27
-21
-10
-15
-21
-25
-21
-6
-13
-6
-2
-9
-13
-8
2
-16
-30
-30
-36
-24
-11
-22
-13
-21
-36
-27
-16
-21
-18
-25
-28
-12
-13
-11
-22
-27
-23
-18
-4
-18
-14
-25
-27
-21
-18
-8
-10
-15
-18
-17
-7
-8
-13
-28
-23
-22
-17
-14
-23
-31
-25
-18
-15
-31
-16
-6
-17
-22
-13
-12
-13
-10
-14
-19
-22
-33
-29
-30
-36
-45
-30
-21
-15
-6
-7
-2
-3
-22
-33
-18
-23
-35
-37
-22
-31
-33
-30
-34
-33
-32
-29
-36
-33
-32
-34
-22
-22
-30
-24
-24
-28
-27
-24
-24
-20
-24
-27
-26
-26
-28
-14
-12
-19
-10
-24
-38
-34
-24
-22
-22
-22
-20
-31
-32
-25
-34
-37
-24
-14
-24
-29
-22
-22
-29
-30
-33
-43
-49
-35
-30
-22
-7
-1
-22
-17
-27
-34
-33
-35
-39
-41
-37
-28
-28
-30
-30
-26
-29
-29
-33
-25
-30
-23
-23
-22
-27
-17
-22
-29
-27
-14
-23
-33
-35
-36
-23
-27
-33
-37
-27
-27
-30
-39
-28
-27
-20
-16
-18
-20
-12
-22
-35
-26
-24
-27
-33
-29
-41
-25
-21
-9
-7
-17
-23
-23
-12
-16
-24
-21
-14
-21
-26
-19
-26
-27
-13
-25
-30
-23
-34
-32
-25
-22
-33
-33
-32
-26
-27
-22
-22
-32
-35
-36
-20
-27
-34
-26
-26
-20
-32
-37
-34
-28
-34
-28
-18
-21
-32
-39
-32
-36
-39
-30
-35
-36
-40
-35
-24
-19
-29
-33
-34
-11
-1
1
17
33
58
61
64
52
79
78
77
62
88
101
101
97
90
85
60
35
5
-28
-59
-56
-52
-38
-12
-1
-3
1
-13
-13
-25
-18
-24
-12
-12
-5
-7
-17
-19
-31
-32
-32
-17
-9
-15
-22
-28
-36
-29
-16
-16
-20
-13
-5
0
-10
-19
-16
-3
-20
-11
-15
-9
-11
-8
-10
-8
-16
-20
-17
-11
-9
-3
4
1
-2
-13
-7
-9
-6
-10
-1
-6
-16
-15
7
8
0
-4
13
4
-9
-5
3
1
9
13
10
-2
1
2
0
0
2
-1
16
16
18
36
25
15
12
26
39
41
37
20
37
32
35
33
31
34
42
40
34
39
34
32
35
36
32
40
52
38
25
30
36
38
53
66
57
49
47
37
40
33
34
27
26
29
28
33
28
23
0
-9
-23
-16
3
-8
-4
-9
-23
-18
-23
-24
-12
-21
-13
-7
-10
-12
-8
0
-21
-27
-26
-34
-33
-32
-29
-16
-15
-34
-23
-16
-27
-23
-13
-16
-30
-14
-14
-25
-27
-25
-16
-19
-24
-16
-21
-25
-40
-39
-29
-32
-24
-16
-10
-28
-39
-17
-18
-24
-23
-15
-9
-23
-32
-25
-4
-10
-24
-27
-23
-24
-27
-22
-29
-34
-23
-15
-33
-26
-23
-13
-15
-14
-6
-5
-17
-17
-14
-17
-24
-9
-20
-27
-33
-22
-18
-22
-25
-25
-30
-21
-38
-39
-30
-31
-35
-25
-22
-26
-29
-13
-20
-23
-13
-11
-16
-30
-29
-27
-23
-23
-15
-21
-34
-39
-38
-28
-34
-39
-34
-30
-29
-22
-22
-23
-22
-37
-33
-21
-27
-26
-27
-35
-29
-29
-29
-27
-33
-36
-40
-27
-8
-6
-21
-33
-34
-30
-27
-34
-30
-29
-38
-32
-35
-30
-35
-39
-28
-20
-21
-17
-14
-14
-21
-34
-33
-24
-29
-26
-28
-25
-30
-39
-47
-44
-39
-38
-32
-27
-26
-27
-28
-19
-19
-26
-30
-31
-34
-37
-40
-24
-32
-26
-22
-32
-31
-28
-46
-22
-32
-33
-25
-30
-22
-18
-29
-26
-21
-21
-29
-32
-21
-24
-29
-31
-32
-32
-27
-24
-19
-10
-22
-25
-20
-20
-18
-20
-11
-25
-36
-36
-23
-30
-21
-14
-16
-19
-23
-24
-19
-8
-13
-14
-35
-33
-19
-31
-31
-26
-26
-40
-43
-38
-29
-27
-28
-16
-18
-32
-36
-26
-33
-45
-32
-23
-23
-21
-17
-24
-33
-42
-36
-35
-36
-23
-28
-36
-40
-40
-36
-39
-41
-33
-26
-24
0
8
14
20
33
49
68
62
47
64
75
79
82
96
105
109
109
78
60
55
32
-8
-46
-57
-42
-39
-26
-17
-2
-14
-10
-15
-12
-13
-10
-13
-14
-19
-17
-9
1
6
-7
-16
-20
-22
-13
-24
-27
-30
-18
-15
-5
-6
-2
-9
-12
-9
-13
-8
-8
-10
-11
-7
-13
-17
-20
-5
-1
4
-9
-11
-1
-2
-19
-11
-18
-11
-3
-5
-13
-5
-3
-8
-3
5
1
7
4
4
-4
7
13
6
7
2
-4
4
6
4
9
2
8
14
34
37
34
25
-5
7
16
10
23
22
29
28
28
21
25
24
28
33
33
28
27
33
41
30
35
40
41
35
32
20
12
30
40
36
47
52
43
46
46
49
42
45
44
51
37
32
27
18
23
22
26
33
31
24
19
8
3
-9
-7
-6
-6
-4
-7
-7
-7
-16
-13
-22
-27
-22
-15
-14
-12
-15
-26
-31
-27
-29
-45
-40
-27
-36
-37
-21
-16
-23
-29
-13
-11
-23
-14
-21
-24
-21
-25
-25
-42
-33
-27
-22
-23
-17
-16
-19
-24
-25
-33
-20
-24
-20
-20
-19
-12
-24
-23
-16
-23
-21
-16
-26
-22
-21
-22
-26
-28
-20
-10
-7
-22
-30
-30
-35
-26
-8
-14
-27
-24
-19
-24
-32
-30
-22
-15
-15
-16
-26
-32
-19
-17
-26
-33
-28
-13
-9
-24
-10
-12
-27
-27
-29
-31
-38
-32
-24
-30
-20
-16
-18
-22
-16
-21
-29
-43
-41
-36
-43
-33
-28
-16
-15
-20
-23
-16
-14
-27
-25
-31
-31
-40
-33
-35
-28
-36
-30
-20
-27
-24
-22
-15
-16
-22
-37
-34
-35
-35
-24
-28
-32
-14
-22
-24
-25
-29
-27
-34
-38
-30
-26
-27
-26
-26
-27
-25
-30
-33
-30
-35
-33
-26
-29
-29
-32
-43
-40
-26
-27
-23
-26
-20
-15
-13
-10
-8
-4
-13
-22
-27
-33
-42
-32
-37
-27
-26
-25
-14
-21
-22
-14
-9
-6
-23
-27
-25
-34
-38
-33
-24
-31
-25
-23
-20
-10
-23
-44
-46
-29
-24
-28
-30
-25
-25
-36
-37
-39
-43
-48
-40
-37
-31
-27
-19
-22
-28
-33
-43
-45
-37
-38
-34
-34
-43
-40
-24
2
23
24
36
48
52
51
47
50
82
77
62
81
99
104
99
86
67
39
18
2
-27
-51
-65
-54
-30
-11
-20
-8
-1
-24
-24
-6
-3
6
15
21
14
-30
-52
-44
-41
-33
-38
-30
-19
-15
-18
-11
-18
-20
-22
-22
-21
-27
-16
-13
-17
-7
-17
-20
-26
-12
-8
-8
-7
-10
-20
-15
-23
-14
-6
-7
-3
-1
-7
-10
-11
-18
-15
-11
-18
-7
3
12
26
29
13
2
-6
-14
-14
-11
-14
6
19
10
8
8
15
7
-5
-4
-1
6
15
19
19
14
20
13
10
8
8
10
12
19
28
37
43
42
38
40
42
36
32
31
41
36
37
39
35
42
32
42
51
47
37
41
45
43
35
40
52
63
56
48
49
56
39
16
16
17
15
6
-5
-2
10
13
11
7
-1
-18
-25
-20
-10
-8
-19
-30
-29
-31
-22
-19
-5
-22
-17
-31
-34
-34
-26
-18
-16
-5
-15
-26
-14
-15
-12
-17
-26
-24
-26
-19
-24
-22
-19
-18
-24
-26
-7
0
-10
-15
-16
-22
-18
-25
-36
-25
-20
-28
-22
-23
-23
-26
-27
-25
-25
-17
-22
-24
-22
-27
-22
-27
-33
-31
-14
-7
-9
-22
-14
-20
-14
-14
-10
-12
-17
-29
-21
-19
-14
-14
-15
-18
-16
-3
1
-20
-26
-16
-21
-23
-29
-33
-18
-27
-27
-21
-22
-26
-21
-18
-15
-5
-17
-27
-31
-31
-29
-30
-31
-34
-40
-30
-22
-15
-12
-17
-27
-27
-30
-34
-23
-13
-27
-20
-20
-24
-21
-28
-23
-17
-18
-13
-20
-23
-22
-23
-15
-19
-34
-37
-33
-28
-35
-19
-25
-22
-22
-24
-19
-24
-15
-21
-24
-19
-13
-25
-31
-31
-32
-34
-46
-36
-7
-20
-36
-36
-31
-24
-25
-17
-18
-35
-37
-18
-21
-25
-25
-32
-29
-14
-11
-17
-26
-35
-23
-24
-26
-23
-31
-37
-35
-32
-28
-9
-13
-17
-20
-20
-29
-27
-29
-41
-38
-25
-13
-7
-27
-25
-18
-19
-25
-18
-7
-22
-31
-26
-21
-14
-14
-9
-10
-23
-27
-31
-41
-38
-22
-6
-18
-30
-37
-31
-25
-35
-27
-24
-27
-33
-28
-23
-21
-18
-27
-29
-33
-24
-27
-23
-34
-42
-30
-31
-29
-26
-23
-24
-29
-39
-41
-38
-26
-17
-26
-41
-32
-36
-35
-22
-9
13
41
41
36
56
54
59
68
80
79
67
83
90
89
90
80
60
36
34
10
-19
-40
-38
-35
-28
-15
-13
-9
-11
-15
-15
-13
-20
-15
-14
-14
-15
-15
-23
-20
-20
-20
-23
-15
-18
-19
-23
-20
-9
1
11
9
-3
-33
-35
-26
-18
-20
-21
-24
-18
-9
2
-9
-14
-16
-20
-4
-6
-10
1
0
-1
3
-12
-14
-13
-7
-10
-9
-4
-6
-6
-14
-6
-8
-11
-4
2
2
5
13
13
4
0
12
12
14
8
15
