25
12
14
17
22
38
44
50
42
36
23
12
11
18
24
36
47
47
34
31
23
13
11
14
20
33
45
49
43
38
21
8
7
17
21
34
41
45
43
29
19
13
8
13
16
35
42
40
39
30
15
6
8
13
18
29
37
41
32
27
7
0
9
18
26
36
40
40
36
26
13
12
13
17
28
42
47
40
36
26
17
11
14
22
38
51
56
54
46
36
20
11
10
14
23
32
33
36
25
10
3
1
2
6
15
31
33
23
22
14
-2
-5
1
13
21
29
34
31
24
13
-2
-8
-2
6
19
31
34
28
21
6
-6
-9
-4
6
20
25
29
25
18
3
-11
-11
-14
-8
7
20
31
41
49
42
46
67
86
118
156
190
218
214
205
181
159
131
113
89
72
49
26
-4
-8
-15
-15
-13
0
10
29
34
38
34
23
7
-1
-3
2
15
35
39
41
32
29
1
-8
-1
7
13
31
37
34
28
20
6
0
0
9
17
39
39
41
28
22
13
8
8
14
23
39
49
48
36
30
19
8
14
26
30
45
47
41
37
27
24
21
25
34
46
58
60
55
48
37
23
19
24
32
46
57
65
70
58
52
40
35
31
38
67
78
87
93
80
70
59
59
63
75
90
101
101
94
88
76
64
67
75
79
91
99
100
92
71
59
59
56
63
69
81
76
85
80
70
48
28
28
29
34
45
51
55
50
37
23
18
16
11
21
39
42
40
34
21
6
2
-2
-5
-5
3
20
26
32
26
13
1
-1
4
3
18
22
22
19
16
4
1
-11
-2
10
22
29
20
10
1
-13
-13
-9
5
11
26
31
23
14
11
-3
-7
-4
2
7
15
18
33
19
8
-11
-16
-16
7
3
8
11
23
18
25
7
2
-1
5
4
22
27
35
26
19
8
-9
1
-3
9
20
27
24
19
6
-4
-11
-8
9
25
29
37
40
26
17
2
-14
-14
-3
13
16
19
27
24
12
-13
-19
-17
-9
1
13
17
14
6
-2
-13
-17
-19
-11
6
4
5
-1
2
-8
-16
-23
-26
-24
-3
4
11
6
0
-10
-20
-19
-16
-11
6
4
13
18
7
-12
-26
-32
-25
-27
-1
6
-2
-12
-22
-26
-31
-26
4
16
50
70
93
101
121
118
140
151
159
153
146
134
120
85
50
2
-35
-46
-43
-34
-16
-4
-2
-5
-9
-16
-18
-16
-10
-2
12
18
14
-6
-11
-20
-21
-28
-14
-1
14
20
24
18
5
-9
-25
-25
-19
-4
11
15
8
3
-1
-9
-10
-9
-11
6
27
25
23
17
4
-6
-8
-4
-2
10
20
32
28
22
15
10
7
5
11
11
16
26
27
30
14
0
1
2
19
35
45
47
40
33
19
10
13
19
27
44
58
65
62
54
44
36
33
35
38
59
60
67
68
68
55
47
45
42
43
57
68
66
65
65
49
45
40
34
45
59
62
73
64
49
28
18
15
12
16
34
41
39
35
19
1
-2
-5
0
8
19
25
24
18
13
-8
-17
-19
-12
-6
3
14
15
7
-3
-17
-21
-21
-13
-8
0
-3
3
8
-4
-18
-25
-25
-26
-13
6
10
11
5
-6
-23
-27
-26
-24
-11
6
6
10
5
-5
-16
-22
-28
-20
-12
2
8
10
5
-4
-16
-18
-22
-18
-8
0
7
9
6
-7
-26
-32
-27
-8
-6
2
9
8
3
-18
-33
-30
-25
-21
-8
6
12
5
-1
-12
-22
-31
-28
-18
-6
8
10
10
5
-12
-22
-23
-20
-12
-1
7
11
12
-8
-28
-20
-20
-13
-6
3
18
20
19
13
-1
-17
-20
-14
-4
7
18
18
15
7
-14
-22
-28
-26
-21
-4
4
-4
-6
-5
-14
-17
-25
-23
-18
-6
-4
-1
-4
-11
-24
-41
-35
-24
-17
-5
6
7
-4
-22
-31
-34
-38
-31
-22
-2
-2
-6
-13
-19
-33
-30
-29
-29
-20
-5
-6
-11
-21
-24
-35
-46
-50
-33
-12
20
42
50
61
59
59
72
99
142
165
178
177
157
126
85
48
20
-8
-24
-25
-17
-14
-12
-19
-26
-33
-28
-25
-18
-3
6
9
3
-3
-17
-30
-29
-24
-17
0
6
7
6
-3
-17
-31
-27
-19
-13
7
15
17
13
-2
-13
-22
-32
-22
-13
2
13
18
10
6
-9
-19
-21
-17
-11
1
12
12
12
4
-6
-15
-20
-13
-6
12
24
20
13
5
-10
-15
-22
-4
3
21
31
29
27
14
2
-10
-2
5
15
33
35
36
34
35
19
10
-4
11
23
38
53
57
55
42
24
14
23
37
37
55
55
58
53
50
36
28
31
37
42
49
64
55
45
38
17
2
6
10
15
34
31
33
21
9
-5
-10
-14
-13
0
3
13
15
8
-10
-22
-29
-29
-19
-9
1
0
-1
-8
-19
-33
-31
-30
-27
-15
-1
4
0
-3
-23
-44
-42
-39
-28
-15
-9
-4
-1
-6
-21
-29
-33
-29
-22
-15
-15
-10
-5
-14
-21
-27
-30
-25
-28
-12
-4
0
-1
-12
-23
-31
-37
-34
-23
-12
-7
0
2
-3
-22
-33
-34
-31
-24
-7
-1
1
-9
-13
-28
-34
-29
-28
-21
-6
0
-1
-7
-13
-19
-34
-36
-31
-32
-11
2
1
-6
-19
-29
-36
-37
-23
-17
-4
-1
2
3
0
-28
-36
-25
-19
-8
8
12
9
8
-3
-15
-20
-22
-18
-9
5
14
8
-6
-13
-28
-33
-39
-37
-26
-16
-9
-9
-17
-21
-31
-42
-35
-25
-17
-7
-4
-7
-20
-29
-40
-45
-42
-34
-17
-9
-10
-17
-24
-27
-43
-53
-46
-36
-22
-15
-10
-15
-25
-35
-43
-40
-41
-35
-32
-19
-11
-19
-20
-33
-47
-53
-49
-32
-10
10
23
32
49
50
69
80
112
135
152
159
143
117
85
46
10
-23
-45
-54
-52
-33
-29
-23
-28
-38
-38
-41
-36
-25
-16
-13
-6
-5
-15
-30
-44
-39
-34
-32
-19
-7
-13
-16
-18
-31
-41
-45
-38
-32
-20
-11
-4
-9
-19
-32
-38
-32
-25
-23
-11
-5
0
2
-8
-26
-36
-34
-27
-26
-7
1
0
-4
-6
-23
-29
-30
-23
-11
4
15
11
0
-5
-14
-20
-23
-11
-3
9
19
17
13
8
-2
-11
-14
3
16
34
38
36
27
24
13
4
9
14
24
37
41
45
40
34
20
17
20
29
39
51
58
56
49
37
29
22
22
28
35
46
51
49
36
23
8
-8
-6
9
18
27
24
19
10
-5
-15
-24
-20
-15
-3
8
7
1
-8
-20
-26
-32
-32
-26
-13
-5
-4
-9
-18
-31
-43
-46
-41
-32
-17
-9
-11
-18
-22
-36
-43
-42
-39
-35
-22
-10
-7
-9
-19
-33
-44
-43
-37
-35
-17
-10
-4
-12
-20
-32
-39
-42
-37
-28
-14
-6
-5
-8
-18
-34
-37
-43
-41
-32
-15
-5
-6
-14
-21
-36
-43
-43
-37
-29
-14
-6
-11
-18
-27
-38
-43
-45
-35
-27
-13
-7
-8
-15
-23
-34
-42
-41
-34
-28
-19
-9
-9
-13
-27
-41
-49
-49
-39
-28
-18
-12
-14
-23
-23
-36
-43
-42
-32
-21
-10
-5
-4
-15
-26
-36
-38
-33
-27
-14
-5
0
-4
-10
-20
-30
-36
-35
-28
-16
-8
-7
-10
-18
-33
-45
-51
-48
-39
-26
-16
-13
-17
-25
-39
-49
-53
-49
-42
-28
-20
-17
-20
-25
-39
-49
-52
-53
-45
-32
-24
-19
-19
-26
-43
-53
-55
-50
-43
-29
-22
-20
-23
-29
-45
-55
-58
-56
-51
-37
-24
-25
-32
-41
-53
-52
-41
-22
-3
25
53
71
85
105
117
123
123
121
115
106
88
62
25
-13
-51
-75
-84
-73
-61
-41
-27
-20
-23
-34
-48
-53
-55
-46
-38
-24
-21
-22
-26
-34
-48
-54
-54
-46
-37
-25
-17
-18
-24
-35
-47
-51
-51
-44
-34
-20
-14
-18
-24
-32
-42
-49
-49
-41
-31
-18
-14
-13
-21
-29
-39
-47
-46
-38
-26
-15
-9
-8
-16
-26
-36
-41
-39
-31
-19
-7
-4
-7
-13
-23
-33
-33
-33
-24
-8
0
7
5
-2
-11
-20
-20
-18
-10
6
16
19
22
14
4
-5
-6
-2
8
21
32
37
33
26
14
5
4
9
17
32
39
40
37
27
14
5
1
3
10
22
30
30
23
12
-5
-15
-21
-18
-14
-1
5
3
-4
-14
-31
-40
-40
-37
-31
-19
-15
-13
-20
-29
-44
-52
-54
-49
-42
-27
-21
-19
-30
-40
-52
-59
-62
-52
-47
-30
-28
-25
-31
-38
-53
-59
-61
-54
-42
-29
-21
-24
-33
-39
-54
-59
-57
-51
-41
-28
-22
-23
-29
-40
-54
-59
-57
-51
-40
-27
-21
-23
-30
-43
-55
-59
-56
-47
-40
-28
-23
-24
-31
-42
-53
-58
-56
-49
-37
-27
-26
-27
-34
-45
-58
-61
-59
-53
-40
-28
-26
-28
-34
-49
-60
-65
-61
-55
-40
-31
-26
-31
-38
-50
-62
-65
-64
-59
-39
-32
-28
-33
-38
-50
-56
-59
-63
-56
-39
-29
-25
-31
-39
-54
-62
-62
-58
-50
-36
-26
-27
-33
-39
-50
-55
-57
-52
-43
-27
-20
-16
-21
-30
-44
-51
-54
-50
-45
-32
-22
-25
-37
-45
-58
-66
-69
-63
-59
-43
-34
-34
-40
-49
-64
-71
-71
-65
-55
-43
-38
-38
-45
-51
-67
-75
-76
-69
-58
-46
-39
-39
-46
-55
-73
-76
-77
-68
-58
-44
-38
-39
-46
-56
-72
-76
-79
-71
-62
-52
-48
-50
-59
-67
-73
-68
-52
-33
-7
18
44
64
78
97
110
113
118
113
105
89
66
38
-3
-45
-82
-101
-99
-85
-70
-53
-43
-39
-45
-56
-64
-66
-65
-58
-47
-36
-34
-38
-44
-58
-67
-70
-64
-55
-46
-37
-31
-34
-43
-55
-63
-66
-65
-55
-42
-31
-29
-36
-39
-51
-63
-64
-60
-52
-37
-27
-23
-28
-34
-51
-60
-59
-55
-48
-33
-26
-18
-27
-32
-45
-56
-54
-47
-41
-26
-15
-13
-19
-26
-40
-47
-46
-41
-31
-14
-6
-4
-9
-15
-28
-33
-36
-28
-15
2
9
11
6
0
-14
-20
-17
-10
0
17
25
25
18
11
-1
-8
-8
1
11
23
31
31
22
12
-3
-9
-8
-2
7
15
20
17
7
-8
-22
-29
-33
-27
-19
-8
-4
-7
-17
-30
-44
-52
-52
-46
-38
-27
-23
-27
-35
-48
-61
-64
-64
-56
-45
-37
-32
-34
-42
-55
-68
-72
-67
-60
-47
-37
-33
-34
-40
-54
-66
-70
-68
-61
-48
-35
-31
-34
-43
-55
-64
-65
-63
-56
-42
-34
-29
-35
-42
-55
-64
-64
-61
-57
-39
-33
-30
-33
-42
-54
-64
-69
-62
-54
-41
-31
-31
-38
-43
-55
-65
-69
-65
-55
-39
-32
-31
-37
-45
-56
-68
-71
-63
-55
-41
-34
-35
-40
-47
-59
-67
-70
-63
-57
-42
-36
-34
-44
-47
-62
-68
-72
-67
-56
-41
-35
-34
-43
-52
-67
-72
-73
-64
-55
-41
-34
-35
-43
-52
-70
-77
-77
-67
-59
-42
-36
-39
-47
-57
-69
-75
-74
-68
-55
-43
-38
-37
-47
-55
-68
-71
-65
-59
-49
-35
-35
-33
-38
-54
-66
-71
-69
-63
-49
-38
-34
-35
-42
-52
-63
-63
-59
-48
-35
-28
-22
-25
-34
-47
-60
-67
-61
-56
-46
-39
-39
-42
-50
-63
-74
-74
-71
-64
-49
-38
-39
-44
-51
-63
-74
-76
-73
-66
-51
-42
-42
-42
-50
-66
-76
-79
-70
-67
-51
-45
-42
-46
-54
-68
-74
-79
-75
-67
-50
-44
-42
-46
-58
-73
-81
-81
-78
-73
-58
-53
-51
-46
-41
-39
-31
-18
7
29
69
105
133
138
137
116
94
74
52
34
19
-10
-34
-62
-80
-92
-91
-88
-77
-65
-40
-34
-35
-40
-49
-64
-70
-71
-65
-55
-40
-34
-34
-41
-52
-64
-69
-69
-62
-51
-37
-31
-33
-41
-49
-62
-63
-59
-54
-47
-33
-31
-30
-37
-45
-59
-63
-60
-50
-42
-29
-23
-24
-31
-46
-55
-59
-57
-47
-34
-22
-19
-20
-25
-38
-50
-54
-46
-36
-23
-15
-11
-13
-20
-31
-41
-42
-39
-32
-15
-4
0
-2
-8
-21
-26
-29
-21
-12
4
13
18
15
12
-2
-10
-12
-7
1
19
31
31
22
18
5
-4
-3
4
8
26
-11
-5
0
13
18
19
11
-1
-18
-30
-33
-27
-22
-10
-5
-4
-15
-25
-39
-51
-52
-47
-43
-28
-21
-24
-32
-42
-54
-62
-60
-56
-46
-33
-31
-30
-36
-44
-59
-62
-64
-59
-49
-35
-28
-30
-39
-47
-58
-65
-65
-56
-45
-33
-30
-30
-37
-48
-59
-66
-65
-54
-44
-34
-28
-28
-37
-45
-57
-63
-62
-54
-42
-28
-23
-29
-38
-45
-59
-64
-62
-51
-41
-30
-25
-30
-36
-48
-61
-62
-61
-53
-41
-31
-29
-32
-39
-51
-62
-64
-63
-56
-43
-31
-27
-30
-39
-52
-63
-63
-59
-56
-42
-34
-33
-34
-42
-55
-64
-68
-65
-57
-41
-34
-32
-37
-42
-57
-65
-68
-64
-59
-44
-31
-32
-37
-47
-60
-70
-69
-68
-61
-43
-34
-34
-40
-46
-62
-67
-67
-65
-59
-44
-36
-33
-40
-46
-63
-70
-71
-64
-56
-41
-35
-34
-39
-45
-60
-69
-71
-65
-55
-38
-35
-36
-40
-48
-63
-70
-70
-61
-53
-39
-32
-32
-41
-50
-64
-66
-65
-57
-49
-35
-30
-30
-39
-48
-60
-67
-63
-54
-44
-33
-30
-31
-38
-49
-60
-66
-61
-52
-38
-27
-20
-20
-28
-38
-51
-56
-55
-47
-37
-26
-24
-29
-36
-51
-65
-66
-68
-60
-49
-37
-32
-35
-46
-58
-68
-71
-70
-62
-49
-36
-34
-38
-46
-59
-71
-73
-71
-63
-48
-39
-36
-41
-45
-59
-69
-72
-69
-64
-50
-40
-37
-42
-50
-63
-73
-77
-74
-67
-52
-47
-47
-52
-59
-74
-77
-70
-47
-26
0
23
47
61
77
92
108
120
124
120
118
99
74
41
3
-42
-76
-95
-91
-78
-63
-52
-46
-46
-48
-59
-67
-70
-62
-54
-41
-38
-34
-41
-49
-62
-69
-68
-61
-51
-35
-31
-31
-38
-48
-59
-67
-65
-59
-53
-36
-27
-29
-37
-47
-59
-63
-64
-53
-41
-27
-26
-26
-34
-43
-53
-62
-59
-47
-37
-23
-19
-23
-28
-38
-45
-53
-54
-45
-31
-21
-15
-14
-23
-33
-43
-46
-42
-34
-19
-10
-6
-10
-13
-24
-32
-35
-29
-21
-6
8
13
10
2
-5
-13
-15
-11
-3
13
21
27
26
19
6
-4
-6
-1
10
25
31
36
32
24
10
-1
-3
1
8
20
27
27
24
12
-4
-14
-18
-16
-11
4
6
5
-5
-14
-30
-42
-47
-43
-37
-22
-19
-18
-25
-33
-51
-59
-60
-53
-49
-36
-30
-30
-38
-44
-59
-66
-67
-61
-52
-40
-33
-31
-38
-45
-58
-67
-68
-57
-51
-36
-29
-31
-39
-45
-59
-64
-67
-60
-50
-35
-29
-31
-39
-45
-59
-65
-64
-58
-45
-34
-28
-29
-38
-48
-59
-62
-62
-56
-43
-32
-26
-28
-36
-47
-60
-64
-63
-53
-43
-32
-27
-32
-41
-51
-63
-67
-63
-56
-44
-35
-30
-30
-37
-49
-63
-69
-67
-62
-45
-34
-29
-34
-39
-56
-66
-68
-63
-58
-44
-35
-32
-38
-45
-58
-66
-71
-66
-58
-45
-34
-31
-36
-42
-59
-68
-71
-67
-58
-44
-35
-31
-36
-43
-60
-66
-71
-65
-59
-43
-34
-34
-38
-47
-62
-68
-70
-65
-60
-45
-35
-35
-38
-47
-61
-68
-71
-66
-57
-39
-33
-36
-44
-50
-64
-72
-75
-65
-58
-44
-35
-34
-41
-46
-64
-70
-71
-63
-56
-41
-34
-33
-39
-51
-67
-72
-69
-63
-53
-41
-32
-31
-38
-49
-63
-68
-69
-59
-46
-35
-30
-30
-38
-48
-60
-67
-62
-54
-42
-27
-20
-21
-27
-41
-52
-54
-57
-49
-36
-31
-29
-30
-39
-53
-65
-70
-67
-62
-48
-40
-35
-36
-44
-57
-66
-69
-70
-64
-49
-40
-34
-39
-46
-59
-69
-73
-72
-64
-51
-40
-34
-38
-45
-62
-70
-71
-71
-61
-46
-37
-35
-37
-45
-60
-69
-76
-72
-67
-53
-42
-42
-47
-55
-64
-67
-50
-33
-18
18
44
62
83
107
115
118
117
116
108
102
85
58
22
-18
-58
-89
-97
-87
-75
-56
-42
-35
-35
-41
-55
-60
-64
-57
-51
-35
-31
-26
-35
-41
-55
-63
-63
-57
-46
-32
-24
-24
-32
-38
-54
-59
-59
-50
-44
-27
-22
-23
-32
-38
-53
-56
-54
-48
-38
-26
-20
-19
-25
-35
-44
-50
-51
-46
-33
-19
-13
-14
-21
-31
-44
-46
-43
-39
-25
-12
-7
-6
-13
-26
-38
-38
-34
-28
-13
-5
3
3
-4
-16
-25
-29
-23
-14
2
13
18
16
8
0
-8
-10
-7
4
19
30
34
31
26
14
3
1
5
15
30
36
38
37
32
18
6
3
7
11
26
34
37
29
18
1
-11
-16
-15
-9
1
8
7
0
-10
-25
-39
-45
-37
-33
-27
-16
-13
-20
-25
-45
-56
-57
-54
-46
-32
-26
-23
-29
-39
-52
-60
-63
-55
-50
-36
-28
-27
-34
-42
-55
-61
-62
-61
-51
-32
-28
-27
-34
-44
-56
-62
-60
-55
-44
-31
-26
-25
-34
-40
-51
-58
-61
-52
-41
-30
-25
-28
-32
-41
-52
-57
-57
-53
-46
-29
-19
-25
-31
-44
-55
-61
-59
-51
-42
-29
-25
-27
-34
-47
-58
-61
-59
-52
-42
-32
-30
-26
-35
-47
-57
-62
-59
-53
-40
-31
-25
-25
-37
-50
-63
-65
-62
-53
-41
-31
-25
-31
-38
-53
-62
-65
-62
-55
-39
-30
-28
-33
-42
-56
-66
-67
-64
-56
-41
-32
-31
-33
-42
-56
-63
-70
-62
-58
-42
-31
-31
-34
-48
-60
-66
-66
-62
-56
-42
-33
-32
-36
-41
-54
-65
-67
-66
-61
-41
-33
-33
-35
-45
-62
-69
-70
-61
-58
-40
-30
-29
-37
-45
-63
-69
-72
-65
-55
-40
-32
-29
-38
-48
-62
-70
-68
-62
-51
-37
-32
-30
-35
-47
-60
-64
-65
-58
-46
-31
-26
-24
-32
-44
-56
-60
-63
-56
-46
-31
-24
-24
-32
-41
-53
-53
-52
-42
-33
-23
-19
-18
-29
-42
-55
-63
-62
-57
-47
-34
-28
-28
-41
-54
-67
-70
-68
-57
-42
-37
-31
-36
-47
-55
-64
-70
-67
-61
-50
-33
-34
-37
-46
-58
-68
-70
-68
-64
-48
-39
-34
-35
-42
-58
-70
-77
-69
-61
-44
-39
-35
-42
-50
-64
-76
-80
-74
-63
-37
-15
2
10
18
19
28
46
78
108
129
137
129
110
78
38
3
-24
-50
-70
-70
-65
-64
-64
-67
-77
-79
-74
-64
-54
-40
-31
-23
-36
-44
-61
-65
-66
-59
-50
-38
-30
-26
-33
-42
-57
-62
-64
-56
-45
-32
-27
-24
-30
-38
-56
-63
-60
-54
-44
-28
-22
-21
-27
-38
-51
-55
-56
-49
-40
-26
-15
-17
-26
-36
-51
-53
-54
-43
-31
-18
-11
-15
-19
-29
-43
-47
-43
-34
-24
-10
-5
-8
-14
-24
-31
-36
-36
-25
-11
1
9
8
3
-11
-16
-19
-20
-10
8
16
26
26
16
1
-5
-6
-3
6
23
33
35
34
25
13
1
-1
4
11
21
30
33
28
20
5
-6
-11
-10
-4
9
15
15
10
-2
-18
-30
-34
-30
-26
-14
-8
-6
-13
-23
-37
-44
-51
-49
-45
-27
-22
-23
-25
-33
-49
-58
-62
-54
-47
-34
-30
-26
-30
-39
-53
-60
-64
-57
-50
-33
-25
-25
-31
-38
-52
-61
-60
-56
-47
-32
-28
-25
-29
-36
-54
-60
-60
-53
-43
-28
-22
-24
-28
-38
-50
-56
-57
-50
-38
-23
-21
-24
-30
-37
-54
-58
-57
-50
-38
-26
-20
-22
-28
-39
-53
-57
-57
-49
-36
-23
-19
-20
-30
-41
-52
-59
-58
-47
-37
-28
-23
-24
-29
-44
-51
-57
-55
-48
-36
-26
-22
-24
-32
-44
-58
-59
-58
-49
-35
-26
-20
-25
-33
-47
-57
-59
-58
-49
-34
-28
-27
-29
-35
-47
-57
-60
-56
-50
-35
-26
-23
-27
-35
-50
-59
-61
-56
-46
-34
-25
-23
-26
-32
-48
-56
-61
-55
-47
-31
-24
-24
-28
-37
-51
-59
-63
-54
-45
-30
-23
-21
-31
-38
-51
-59
-61
-55
-46
-31
-25
-25
-32
-35
-51
-57
-59
-52
-40
-26
-20
-19
-27
-35
-50
-55
-54
-46
-38
-25
-19
-19
-25
-33
-45
-50
-51
-42
-35
-19
-11
-9
-16
-27
-38
-46
-46
-39
-32
-20
-17
-19
-27
-36
-48
-58
-58
-49
-39
-29
-24
-23
-31
-40
-53
-58
-60
-52
-40
-30
-24
-24
-30
-46
-57
-61
-59
-50
-39
-28
-22
-26
-33
-47
-58
-62
-58
-51
-37
-28
-26
-28
-34
-48
-60
-64
-62
-56
-43
-33
-30
-37
-40
-45
-41
-31
-19
3
35
58
83
103
124
130
120
113
105
94
82
64
41
12
-25
-62
-83
-80
-71
-60
-40
-29
-19
-22
-24
-42
-50
-51
-50
-44
-30
-22
-17
-21
-30
-45
-50
-52
-45
-39
-25
-19
-17
-23
-30
-42
-46
-49
-42
-35
-19
-14
-12
-18
-25
-37
-45
-46
-40
-28
-14
-6
-8
-15
-23
-34
-40
-40
-32
-21
-9
-2
-2
-8
-16
-31
-39
-33
-25
-16
-2
3
1
-2
-11
-23
-28
-26
-18
-6
9
15
17
9
0
-10
-15
-13
-5
9
20
31
30
26
14
5
1
5
16
30
42
49
45
42
30
20
16
19
25
41
51
57
54
50
33
20
16
15
24
36
45
47
41
31
12
3
-4
-2
3
15
20
22
17
5
-12
-23
-26
-25
-23
-9
-1
1
-5
-13
-27
-39
-42
-37
-32
-18
-11
-9
-13
-22
-36
-47
-45
-43
-38
-21
-13
-13
-16
-25
-40
-47
-50
-44
-35
-19
-13
-11
-18
-25
-39
-47
-49
-43
-36
-18
-11
-12
-16
-24
-41
-47
-47
-39
-33
-17
-13
-8
-15
-26
-37
-46
-46
-40
-30
-16
-11
-10
-15
-24
-36
-43
-44
-38
-29
-15
-7
-11
-17
-27
-43
-47
-46
-36
-27
-17
-12
-10
-21
-28
-44
-47
-47
-36
-27
-16
-9
-10
-20
-32
-42
-49
-52
-40
-28
-20
-12
-11
-19
-36
-46
-50
-46
-39
-29
-18
-13
-15
-20
-37
-46
-49
-47
-39
-26
-17
-14
-18
-25
-38
-47
-50
-48
-37
-24
-12
-11
-17
-24
-40
-49
-51
-46
-38
-23
-16
-13
-18
-22
-37
-47
-48
-44
-38
-24
-17
-11
-17
-22
-36
-47
-47
-43
-32
-17
-12
-8
-15
-21
-35
-45
-48
-38
-31
-14
-6
-7
-8
-13
-28
-37
-37
-32
-23
-10
-3
-3
-10
-20
-35
-45
-48
-42
-34
-21
-16
-14
-19
-27
-44
-50
-52
-44
-37
-23
-16
-16
-23
-32
-47
-52
-52
-43
-36
-22
-18
-16
-23
-33
-50
-56
-54
-44
-33
-24
-17
-18
-24
-35
-42
-52
-52
-47
-35
-25
-20
-23
-32
-47
-58
-61
-55
-37
-12
13
31
43
51
62
72
95
124
135
151
150
140
113
82
44
3
-31
-53
-63
-53
-36
-31
-29
-31
-36
-42
-45
-42
-36
-22
-13
-11
-14
-19
-32
-44
-49
-43
-35
-22
-12
-8
-13
-21
-34
-42
-45
-38
-29
-16
-8
-7
-11
-15
-32
-39
-39
-35
-29
-13
-3
0
-6
-12
-28
-37
-39
-33
-22
-7
1
7
-2
-10
-23
-32
-32
-26
-20
0
10
11
7
-3
-17
-22
-23
-16
-10
5
15
19
13
6
-7
-15
-12
-3
5
23
29
36
30
21
7
4
8
19
27
43
50
52
47
38
26
21
23
31
44
57
63
63
54
44
34
28
25
34
45
55
62
58
48
34
18
12
13
17
24
35
35
32
17
4
-8
-12
-17
-11
2
7
11
8
-1
-18
-30
-36
-34
-26
-15
-5
0
-7
-13
-27
-42
-41
-39
-34
-21
-12
-8
-11
-20
-34
-41
-47
-41
-35
-21
-11
-8
-14
-21
-35
-44
-45
-41
-32
-18
-11
-9
-13
-19
-34
-43
-43
-38
-31
-17
-9
-7
-12
-20
-33
-39
-43
-37
-29
-15
-10
-7
-12
-19
-34
-40
-43
-35
-30
-13
-5
-5
-11
-19
-35
-41
-43
-36
-29
-17
-10
-7
-16
-23
-36
-44
-47
-40
-32
-14
-10
-9
-16
-28
-38
-47
-45
-38
-29
-15
-11
-10
-19
-26
-39
-48
-48
-40
-28
-15
-14
-13
-17
-28
-41
-47
-42
-39
-34
-20
-15
-14
-22
-31
-47
-51
-49
-39
-29
-18
-12
-15
-20
-32
-42
-47
-45
-34
-23
-12
-7
-9
-17
-29
-39
-40
-42
-33
-19
-10
-7
-9
-15
-25
-33
-38
-34
-26
-11
-3
3
-2
-9
-21
-31
-33
-34
-27
-15
-6
-4
-12
-20
-34
-45
-50
-48
-39
-27
-15
-12
-17
-23
-38
-48
-50
-46
-37
-22
-14
-13
-18
-27
-45
-51
-52
-45
-38
-23
-17
-14
-19
-26
-42
-50
-52
-47
-40
-26
-18
-16
-23
-29
-48
-56
-58
-51
-45
-32
-29
-23
-27
-25
-23
-19
-6
18
42
77
113
141
158
157
144
126
111
91
72
61
35
4
-27
-55
-71
-72
-67
-57
-43
-24
-10
-10
-17
-26
-40
-47
-47
-40
-27
-17
-8
-9
-16
-26
-37
-45
-41
-32
-24
-13
-6
-9
-14
-21
-37
-42
-41
-30
-20
-10
-4
-5
-11
-23
-36
-37
-34
-29
-15
-4
0
-1
-10
-22
-29
-31
-32
-25
-9
4
6
4
-3
-15
-25
-26
-21
-14
-3
7
16
14
6
-4
-16
-19
-13
-2
12
22
23
24
18
7
0
-5
3
14
28
36
42
41
35
23
16
15
22
32
49
58
61
57
51
35
29
27
36
44
53
61
67
61
56
39
31
25
30
32
46
53
52
40
29
12
3
1
5
8
21
24
23
13
5
-13
-22
-23
-17
-10
3
9
7
-4
-15
-30
-39
-38
-32
-25
-10
-4
-5
-15
-26
-33
-40
-42
-35
-25
-11
-6
-8
-15
-25
-37
-42
-42
-35
-21
-7
-5
-4
-11
-22
-36
-40
-40
-29
-18
-7
-2
-5
-14
-26
-34
-38
-37
-28
-17
-3
0
-3
-8
-21
-33
-36
-33
-30
-16
-7
-3
-3
-10
-25
-33
-35
-37
-29
-12
-3
0
-5
-11
-27
-39
-37
-35
-31
-11
-2
0
-8
-13
-25
-34
-38
-33
-30
-13
-4
-3
-8
-14
-31
-37
-41
-36
-26
-12
-5
-6
-9
-14
-31
-38
-42
-36
-29
-13
-5
-4
-8
-13
-27
-37
-38
-33
-28
-15
-5
-3
-10
-15
-29
-35
-34
-28
-21
-7
3
3
-6
-13
-29
-34
-33
-27
-14
1
6
9
1
-7
-20
-28
-27
-20
-11
5
9
6
-3
-14
-30
-37
-34
-29
-21
-12
-5
-7
-14
-25
-36
-41
-42
-33
-24
-13
-6
-7
-14
-24
-39
-48
-45
-36
-22
-10
-9
-9
-15
-27
-40
-46
-44
-34
-24
-13
-10
-11
-19
-30
-42
-46
-43
-36
-25
-16
-13
-16
-26
-42
-56
-55
-45
-26
1
26
42
55
66
77
89
115
139
151
168
164
151
119
83
44
3
-30
-50
-56
-43
-31
-24
-21
-24
-34
-41
-39
-35
-26
-12
-3
-5
-12
-17
-31
-37
-40
-35
-27
-13
-4
-1
-7
-14
-23
-34
-38
-30
-25
-11
1
3
-3
-10
-25
-33
-34
-27
-18
-3
4
3
-3
-8
-22
-28
-29
-24
-13
5
14
13
2
-4
-15
-21
-24
-16
-5
8
14
17
13
3
-9
-17
-16
-6
5
16
24
25
18
15
-2
-3
-3
5
18
32
38
40
35
27
14
11
13
25
36
49
57
58
48
41
29
27
29
36
50
61
68
68
62
48
36
27
31
41
52
61
62
56
50
33
19
13
16
19
26
32
37
32
22
2
-8
-15
-11
-6
8
14
14
9
0
-15
-25
-29
-27
-23
-9
3
3
-3
-10
-26
-35
-37
-34
-27
-9
-2
-4
-6
-13
-28
-36
-36
-33
-27
-9
-2
-1
-6
-14
-27
-33
-39
-33
-25
-10
-1
-4
-7
-11
-26
-36
-37
-32
-23
-8
0
3
-4
-11
-26
-35
-34
-28
-18
-5
0
1
-6
-14
-26
-32
-35
-28
-19
-6
3
2
-8
-16
-29
-36
-36
-30
-20
-4
0
0
-8
-17
-30
-38
-37
-27
-18
-8
-1
-1
-10
-18
-31
-40
-38
-32
-19
-6
2
0
-8
-22
-34
-40
-38
-31
-20
-7
-1
-3
-12
-23
-36
-40
-39
-32
-18
-7
-4
-5
-11
-27
-39
-42
-41
-34
-17
-7
-4
-9
-13
-21
-33
-35
-31
-22
-12
-2
1
0
-11
-25
-33
-36
-30
-21
-8
5
8
6
-4
-19
-28
-30
-21
-18
0
4
5
-1
-9
-24
-35
-42
-36
-29
-17
-6
-4
-10
-20
-33
-44
-44
-37
-34
-19
-10
-8
-13
-23
-34
-45
-47
-37
-32
-15
-13
-12
-16
-24
-39
-46
-48
-41
-34
-15
-9
-9
-19
-25
-40
-47
-47
-41
-35
-20
-18
-17
-27
-38
-52
-56
-43
-23
-1
24
44
64
74
88
101
122
144
151
157
156
139
114
80
42
-6
-37
-60
-63
-50
-33
-25
-22
-22
-27
-35
-39
-38
-30
-23
-11
-6
-10
-12
-25
-40
-44
-38
-29
-17
-7
-5
-5
-13
-23
-35
-41
-39
-29
-17
-9
-2
-1
-10
-22
-30
-35
-35
-25
-12
0
5
0
-7
-21
-30
-33
-27
-21
-2
2
5
6
-3
-18
-25
-28
-22
-14
4
9
13
12
4
-12
-18
-21
-16
-5
13
20
23
19
11
-1
-10
-10
0
9
25
34
37
34
26
14
7
9
18
25
43
52
57
50
44
28
24
25
31
38
57
63
62
56
48
36
27
26
33
38
53
55
56
47
36
14
7
8
13
19
30
31
31
22
12
-8
-19
-22
-14
-7
6
9
5
-4
-14
-30
-34
-34
-27
-17
-3
0
-3
-11
-20
-36
-40
-40
-31
-22
-7
-5
-7
-15
-26
-39
-45
-42
-33
-22
-13
-8
-7
-14
-29
-39
-44
-40
-31
-22
-11
-5
-9
-17
-28
-38
-42
-41
-31
-16
-8
-5
-8
-17
-27
-36
-40
-38
-30
-16
-7
-7
-7
-17
-29
-40
-41
-38
-30
-17
-9
-6
-12
-20
-33
-41
-46
-38
-29
-16
-9
-5
-8
-15
-35
-44
-45
-37
-31
-20
-11
-5
-14
-22
-36
-44
-45
-39
-32
-16
-9
-11
-15
-22
-38
-46
-49
-38
-35
-17
-11
-10
-17
-27
-41
-48
-50
-42
-33
-18
-12
-12
-20
-29
-43
-45
-47
-40
-31
-21
-15
-14
-20
-29
-43
-49
-48
-39
-32
-20
-11
-14
-26
-32
-44
-50
-50
-42
-28
-15
-11
-10
-17
-27
-40
-43
-42
-37
-23
-11
-6
-9
-16
-27
-37
-40
-39
-32
-19
-3
2
0
-9
-18
-28
-32
-32
-26
-17
-7
-2
-8
-17
-29
-43
-48
-46
-42
-26
-18
-11
-13
-20
-36
-49
-50
-42
-39
-26
-19
-14
-19
-27
-41
-50
-52
-48
-40
-26
-18
-15
-20
-25
-40
-48
-49
-45
-39
-25
-16
-13
-20
-24
-40
-49
-51
-50
-46
-31
-24
-22
-29
-36
-49
-59
-52
-33
-10
19
42
59
70
89
100
121
137
146
148
145
130
107
74
37
-16
-47
-66
-71
-57
-42
-29
-24
-25
-25
-41
-48
-44
-37
-31
-16
-11
-12
-18
-24
-40
-45
-44
-38
-28
-15
-6
-7
-16
-25
-39
-43
-41
-36
-26
-10
-3
-6
-12
-19
-35
-40
-40
-30
-18
-6
-2
-2
-9
-19
-30
-36
-34
-23
-12
0
4
3
-5
-17
-27
-30
-28
-20
-6
2
9
10
1
-11
-22
-24
-21
-11
4
13
21
20
11
-3
-7
-11
-7
3
17
26
30
31
26
14
4
6
11
21
37
46
48
46
42
33
23
19
24
33
46
55
59
55
47
33
22
20
28
31
46
52
52
46
35
16
9
-1
7
13
25
26
29
19
12
-9
-19
-19
-18
-12
-1
5
5
-2
-12
-28
-33
-37
-33
-26
-11
-7
-6
-14
-22
-38
-44
-44
-36
-27
-16
-12
-10
-16
-24
-40
-44
-47
-37
-31
-17
-10
-8
-21
-27
-40
-47
-46
-37
-26
-15
-9
-8
-15
-25
-39
-45
-43
-36
-26
-10
-8
-8
-18
-26
-37
-42
-40
-34
-22
-11
-7
-9
-16
-28
-40
-44
-43
-35
-20
-13
-7
-12
-19
-28
-40
-45
-39
-33
-20
-13
-12
-14
-24
-35
-42
-44
-44
-38
-22
-14
-10
-14
-20
-34
-45
-47
-45
-38
-22
-14
-14
-16
-23
-37
-47
-48
-45
-38
-23
-16
-10
-16
-22
-39
-45
-48
-44
-38
-22
-13
-10
-18
-24
-40
-48
-48
-45
-38
-25
-19
-13
-17
-27
-41
-49
-50
-48
-38
-22
-16
-16
-20
-25
-42
-51
-51
-45
-38
-24
-18
-14
-21
-28
-43
-52
-50
-44
-35
-18
-10
-10
-17
-25
-40
-44
-46
-39
-28
-20
-12
-8
-19
-27
-39
-45
-42
-37
-24
-9
-2
-2
-11
-16
-30
-35
-33
-27
-23
-9
-7
-8
-15
-28
-44
-49
-50
-42
-30
-21
-19
-20
-27
-38
-48
-52
-51
-43
-35
-22
-18
-19
-27
-41
-50
-55
-52
-47
-31
-23
-19
-24
-27
-40
-50
-54
-52
-48
-36
-22
-18
-24
-31
-44
-50
-54
-51
-45
-35
-28
-24
-30
-39
-53
-67
-64
-53
-37
-5
14
29
43
54
59
77
101
128
142
160
156
142
109
77
39
-7
-39
-59
-72
-57
-42
-35
-34
-38
-47
-46
-51
-41
-35
-19
-12
-14
-20
-28
-43
-48
-49
-42
-34
-19
-13
-10
-15
-24
-36
-44
-45
-39
-32
-16
-8
-8
-13
-21
-35
-42
-44
-37
-27
-10
-6
-5
-11
-19
-34
-37
-37
-30
-21
-7
-4
1
-6
-16
-28
-31
-31
-21
-15
0
5
4
-2
-9
-26
-29
-25
-16
-4
10
14
13
6
-2
-13
-16
-13
-3
9
21
29
27
24
15
4
-1
2
14
29
45
47
46
42
28
18
12
18
28
41
52
57
54
47
36
24
20
24
28
41
52
55
51
41
24
9
7
6
9
20
30
31
23
16
2
-12
-16
-14
-12
0
7
8
1
-8
-23
-33
-37
-34
-26
-14
-6
-4
-11
-20
-36
-45
-45
-38
-33
-16
-12
-10
-16
-23
-40
-46
-45
-39
-33
-18
-12
-9
-15
-24
-39
-44
-46
-40
-34
-16
-12
-12
-23
-23
-38
-47
-45
-37
-30
-15
-9
-8
-16
-23
-39
-47
-47
-38
-28
-12
-9
-10
-13
-24
-38
-41
-43
-37
-28
-15
-7
-10
-20
-28
-41
-44
-47
-37
-25
-14
-7
-10
-18
-29
-44
-50
-47
-36
-26
-15
-9
-12
-19
-31
-42
-50
-44
-37
-24
-16
-13
-14
-21
-34
-45
-49
-46
-38
-26
-17
-10
-15
-25
-37
-46
-51
-51
-40
-25
-17
-14
-17
-25
-39
-47
-52
-46
-41
-28
-18
-15
-21
-26
-38
-49
-54
-47
-40
-26
-16
-15
-18
-27
-43
-50
-52
-47
-40
-24
-16
-13
-24
-27
-41
-49
-50
-46
-37
-25
-19
-14
-19
-27
-43
-50
-51
-42
-36
-22
-16
-14
-19
-28
-47
-56
-51
-44
-35
-20
-11
-9
-16
-25
-39
-49
-46
-38
-29
-13
-6
-5
-16
-23
-37
-43
-42
-35
-25
-11
-2
-3
-5
-13
-27
-35
-34
-29
-20
-8
-2
-3
-15
-25
-40
-47
-47
-40
-30
-21
-14
-11
-22
-31
-43
-46
-48
-37
-29
-19
-15
-15
-22
-34
-47
-52
-49
-42
-31
-21
-15
-19
-26
-39
-49
-54
-52
-43
-33
-19
-15
-19
-25
-38
-49
-53
-50
-43
-31
-23
-21
-22
-33
-46
-61
-62
-56
-38
-15
7
22
33
45
47
65
84
115
142
158
169
157
134
101
62
23
-15
-34
-54
-50
-40
-34
-34
-35
-42
-46
-46
-39
-33
-19
-10
-10
-15
-21
-36
-44
-46
-40
-33
-15
-10
-10
-13
-19
-33
-43
-45
-34
-27
-11
-7
-4
-10
-19
-35
-40
-39
-34
-23
-9
-4
-4
-7
-17
-32
-34
-32
-29
-17
-2
2
3
-5
-12
-26
-32
-29
-21
-12
1
9
9
1
-6
-18
-24
-22
-14
-1
13
21
17
9
1
-9
-15
-9
-1
11
22
32
33
28
18
7
4
7
17
29
41
51
51
41
32
24
20
25
32
48
58
62
60
53
40
28
24
26
35
50
55
61
55
47
32
20
14
16
21
29
38
35
33
23
6
-5
-10
-6
-4
5
13
15
9
0
-16
-27
-32
-28
-20
-9
-1
0
-1
-11
-31
-37
-40
-39
-29
-13
-7
-6
-10
-20
-34
-41
-41
-33
-30
-16
-10
-7
-13
-18
-31
-41
-43
-36
-28
-15
-7
-8
-10
-16
-35
-39
-41
-35
-27
-14
-6
-4
-9
-18
-32
-39
-37
-30
-24
-7
0
1
-8
-17
-35
-40
-40
-32
-25
-8
0
0
-8
-19
-33
-36
-39
-31
-22
-11
-4
-3
-12
-23
-35
-41
-41
-30
-20
-9
-4
-7
-15
-25
-36
-41
-40
-33
-24
-9
-5
-7
-12
-28
-39
-45
-38
-34
-22
-11
-6
-10
-15
-30
-44
-45
-42
-34
-22
-12
-7
-12
-18
-32
-44
-46
-40
-36
-21
-12
-11
-10
-18
-34
-41
-45
-40
-36
-20
-12
-10
-12
-20
-34
-43
-45
-40
-34
-20
-12
-8
-13
-21
-34
-42
-45
-44
-34
-18
-10
-6
-12
-18
-31
-41
-46
-42
-33
-18
-11
-10
-15
-22
-39
-44
-46
-40
-31
-15
-11
-7
-15
-20
-35
-46
-47
-39
-30
-18
-8
-9
-14
-23
-36
-43
-42
-37
-30
-15
-8
-8
-15
-20
-35
-39
-37
-31
-25
-12
-4
-3
-8
-20
-35
-41
-39
-30
-22
-8
0
1
-4
-14
-25
-30
-30
-21
-10
4
7
5
-4
-16
-30
-39
-36
-31
-22
-9
-5
-8
-18
-28
-41
-44
-41
-32
-22
-12
-7
-11
-19
-29
-41
-46
-45
-37
-24
-11
-8
-11
-20
-32
-45
-49
-47
-34
-23
-16
-11
-14
-17
-35
-46
-46
-46
-38
-22
-13
-11
-18
-25
-41
-51
-56
-53
-48
-33
-20
-8
0
6
5
11
25
50
79
118
154
170
171
163
140
107
77
56
35
16
-4
-24
-41
-46
-59
-60
-56
-45
-30
-12
-3
-2
-9
-15
-30
-39
-38
-35
-29
-11
-5
-3
-9
-15
-30
-37
-40
-28
-23
-8
-1
1
-7
-15
-29
-33
-32
-22
-15
-6
2
3
-4
-9
-25
-34
-32
-24
-16
1
8
6
0
-9
-21
-27
-26
-20
-6
7
9
13
5
-7
-19
-20
-18
-7
3
13
21
19
13
3
-9
-13
-12
-4
12
26
31
31
25
15
4
3
8
15
28
42
48
49
43
28
21
17
21
35
50
61
64
61
54
42
37
30
34
40
56
69
66
63
57
45
31
28
29
34
47
54
53
46
38
20
11
1
4
8
23
26
29
21
9
-7
-17
-21
-19
-14
0
5
5
1
-5
-19
-28
-36
-28
-26
-6
-2
0
-6
-15
-28
-34
-40
-33
-28
-12
-2
-5
-9
-16
-30
-37
-37
-30
-25
-9
-3
-1
-8
-16
-31
-36
-37
-30
-19
-5
0
2
-4
-13
-27
-35
-33
-25
-18
-8
-1
0
-7
-16
-32
-35
-34
-27
-17
-4
2
2
-5
-16
-30
-36
-36
-30
-15
-3
3
0
-10
-20
-33
-37
-33
-27
-17
-5
0
-2
-10
-24
-33
-37
-37
-29
-17
-7
0
-7
-12
-25
-36
-42
-38
-31
-21
-6
0
-4
-13
-28
-38
-41
-35
-26
-15
-6
-2
-8
-14
-30
-39
-41
-38
-30
-17
-9
-6
-10
-15
-30
-39
-44
-38
-33
-18
-5
-3
-11
-16
-33
-40
-42
-38
-31
-16
-7
-5
-10
-22
-32
-39
-43
-38
-32
-17
-7
-6
-12
-17
-32
-42
-43
-37
-31
-16
-9
-6
-14
-22
-36
-44
-46
-36
-28
-15
-6
-5
-14
-21
-34
-41
-46
-39
-29
-16
-10
-8
-18
-22
-33
-42
-45
-33
-23
-9
-4
-3
-14
-23
-36
-35
-36
-28
-16
-10
-2
-5
-11
-20
-30
-35
-35
-28
-13
0
7
7
1
-11
-25
-31
-29
-23
-15
-4
-2
-4
-11
-24
-37
-43
-41
-34
-23
-13
-10
-11
-18
-33
-42
-48
-47
-35
-23
-16
-14
-13
-20
-33
-44
-49
-45
-39
-24
-14
-11
-15
-20
-34
-47
-49
-46
-36
-22
-14
-10
-12
-20
-38
-47
-51
-50
-43
-28
-19
-18
-22
-34
-46
-48
-39
-18
-1
28
54
76
87
106
120
134
142
148
142
139
119
97
63
28
-18
-52
-71
-71
-57
-37
-25
-21
-18
-19
-29
-37
-38
-36
-30
-18
-8
-7
-12
-19
-35
-43
-41
-35
-26
-8
-2
-3
-13
-19
-33
-38
-37
-30
-21
-5
1
0
-7
-15
-31
-37
-36
-23
-13
0
5
2
-5
-13
-26
-30
-31
-24
-13
3
7
7
1
-10
-24
-27
-24
-16
-5
10
12
14
10
-4
-12
-17
-17
-9
5
19
24
26
20
9
-4
-10
-8
3
20
29
38
38
33
22
17
10
19
28
40
51
58
56
49
40
30
27
33
41
55
63
69
65
55
45
34
31
32
40
54
60
62
60
52
33
17
11
13
17
31
36
36
31
19
3
-6
-10
-12
-3
10
12
11
7
-3
-22
-30
-32
-26
-20
-5
0
2
-4
-12
-29
-37
-38
-31
-23
-9
-2
-5
-11
-14
-34
-41
-42
-34
-25
-11
-5
-8
-13
-18
-35
-40
-41
-31
-23
-11
-5
-4
-10
-16
-30
-37
-37
-32
-25
-9
-3
-1
-10
-16
-31
-39
-40
-30
-20
-3
-2
-2
-10
-17
-32
-35
-37
-31
-17
-5
1
-2
-10
-22
-34
-40
-37
-30
-19
-8
-2
-4
-14
-22
-33
-42
-40
-30
-18
-9
-5
-4
-13
-26
-39
-43
-37
-33
-20
-10
-6
-9
-16
-28
-39
-42
-41
-32
-20
-11
-6
-11
-16
-28
-40
-43
-41
-33
-18
-12
-6
-11
-17
-30
-44
-44
-39
-31
-16
-10
-7
-10
-17
-29
-43
-44
-39
-34
-18
-8
-9
-13
-17
-32
-41
-46
-39
-31
-15
-11
-8
-13
-20
-32
-41
-45
-38
-31
-14
-10
-7
-13
-22
-35
-42
-44
-38
-31
-15
-10
-8
-15
-22
-36
-44
-44
-37
-31
-15
-8
-5
-10
-14
-28
-38
-41
-34
-25
-10
-2
0
-7
-18
-31
-36
-37
-31
-18
-4
0
2
-4
-14
-19
-23
-24
-21
-11
4
7
7
-2
-14
-30
-36
-34
-31
-21
-11
-7
-9
-19
-24
-39
-45
-44
-36
-24
-12
-9
-11
-17
-28
-42
-47
-44
-37
-23
-12
-9
-13
-18
-30
-41
-48
-40
-33
-20
-12
-12
-14
-19
-32
-40
-44
-43
-35
-21
-16
-10
-18
-23
-40
-53
-55
-47
-43
-25
-5
14
21
25
27
40
53
80
112
155
181
181
175
154
112
80
51
28
2
-10
-28
-29
-33
-38
-49
-52
-44
-34
-26
-9
-2
0
-8
-17
-31
-39
-35
-32
-22
-6
-2
-1
-8
-14
-27
-33
-33
-27
-21
-4
5
6
0
-9
-26
-31
-32
-25
-13
-1
5
6
0
-5
-21
-26
-25
-18
-8
6
10
11
6
-1
-15
-22
-21
-12
-3
13
19
18
11
2
-11
-17
-15
-6
3
19
25
24
19
9
-3
-6
-3
6
20
33
37
40
35
23
15
12
13
23
37
50
60
58
53
41
31
27
31
41
54
68
73
72
62
50
39
37
42
48
63
74
72
68
60
44
31
28
32
37
48
54
56
48
37
20
11
3
4
9
22
27
30
23
16
-4
-15
-20
-18
-11
3
9
12
6
-2
-21
-30
-31
-27
-20
-5
0
3
0
-9
-25
-32
-34
-30
-23
-6
1
1
-5
-11
-26
-30
-31
-27
-20
-5
0
0
-5
-12
-25
-31
-33
-27
-21
-3
2
4
-5
-12
-25
-32
-34
-27
-17
1
3
-1
0
-9
-26
-34
-32
-23
-13
1
5
4
-8
-14
-26
-29
-30
-23
-13
-4
5
4
-2
-12
-26
-30
-33
-26
-12
-1
4
4
-5
-16
-28
-33
-33
-24
-14
-3
3
1
-6
-20
-30
-35
-31
-28
-15
0
0
0
-6
-20
-33
-35
-32
-24
-10
-1
1
-2
-11
-23
-34
-37
-34
-26
-10
-2
1
-4
-13
-24
-33
-35
-32
-26
-10
-5
2
-1
-11
-26
-32
-34
-32
-23
-10
-3
1
-4
-8
-25
-36
-33
-28
-24
-9
-2
-1
-6
-13
-27
-36
-35
-31
-25
-7
2
0
-6
-13
-26
-35
-37
-30
-21
-6
3
3
-4
-9
-23
-33
-33
-26
-17
0
10
8
2
-8
-23
-32
-33
-23
-13
2
11
11
6
0
-14
-19
-20
-12
-2
13
17
15
5
-4
-19
-26
-28
-21
-9
0
3
3
-4
-17
-33
-35
-33
-26
-18
-3
0
-3
-8
-15
-28
-35
-34
-28
-17
-7
0
-1
-10
-21
-32
-36
-36
-26
-18
-3
0
-6
-12
-22
-31
-38
-35
-26
-13
-5
-5
-6
-15
-29
-41
-45
-43
-36
-17
-4
12
25
31
31
40
56
84
116
155
181
192
186
164
131
95
63
41
15
0
-14
-27
-28
-29
-40
-45
-42
-27
-19
-4
3
8
0
-9
-22
-27
-28
-22
-17
-1
4
7
1
-7
-19
-25
-26
-23
-15
4
11
12
2
-3
-20
-25
-24
-17
-10
8
11
13
4
0
-17
-23
-21
-16
-6
9
15
19
11
2
-10
-16
-16
-9
2
16
19
19
17
9
-5
-12
-10
0
10
23
30
28
21
13
1
-5
2
10
21
34
40
40
37
29
18
13
17
28
39
51
58
59
55
46
34
30
33
40
56
66
73
72
63
54
45
41
43
48
62
72
78
73
65
51
40
35
35
41
52
58
57
53
42
25
13
6
7
10
23
32
34
29
18
2
-12
-16
-14
-8
6
13
17
9
-1
-14
-27
-30
-25
-17
-4
4
7
2
-9
-21
-29
-32
-26
-20
-7
0
1
0
-7
-22
-31
-32
-24
-20
-6
5
5
-2
-10
-24
-31
-32
-25
-16
-1
6
8
0
-7
-22
-29
-28
-24
-15
1
8
11
2
-8
-23
-27
-28
-23
-14
1
5
9
3
-8
-25
-28
-27
-20
-12
3
8
8
2
-8
-25
-31
-30
-22
-9
1
8
8
-1
-12
-24
-32
-28
-21
-11
3
5
2
-3
-14
-28
-33
-31
-23
-13
-1
4
5
-3
-20
-28
-35
-31
-25
-10
-1
2
0
-8
-18
-29
-34
-32
-25
-8
-2
4
0
-9
-21
-29
-35
-32
-27
-10
-3
5
1
-8
-22
-31
-34
-31
-24
-10
-4
2
-3
-8
-23
-32
-36
-30
-21
-10
-1
1
-4
-11
-26
-34
-37
-30
-21
-5
-2
-1
-3
-10
-24
-29
-29
-25
-17
-2
5
5
1
-4
-19
-24
-26
-21
-17
-2
3
8
6
0
-17
-23
-23
-12
-6
10
18
17
15
6
-12
-22
-23
-19
-10
3
9
10
0
-11
-26
-34
-32
-24
-13
-1
2
1
-8
-13
-28
-34
-35
-27
-18
-5
1
-2
-6
-16
-32
-35
-34
-27
-18
-5
1
1
-8
-18
-30
-40
-35
-29
-16
-2
2
-1
-11
-22
-34
-40
-39
-30
-18
-11
-9
-8
-12
-12
-9
-1
16
40
76
100
128
154
176
172
161
148
139
123
107
87
65
26
-7
-40
-55
-56
-47
-35
-18
-2
6
5
-1
-15
-25
-31
-25
-19
-3
4
7
2
-2
-19
-23
-26
-20
-17
-3
7
10
4
-2
-16
-22
-26
-20
-10
3
8
12
6
1
-15
-22
-25
-17
-7
8
15
17
12
4
-10
-16
-18
-12
-4
14
20
21
18
6
-8
-12
-15
-5
3
19
26
28
20
13
0
-5
-4
3
13
30
37
37
32
24
13
9
11
20
34
49
53
57
52
46
33
29
27
39
50
65
72
73
65
55
45
40
42
47
63
76
82
80
69
57
47
40
42
46
58
69
71
64
51
38
26
17
20
21
35
39
41
35
25
11
-1
-7
-5
-2
10
21
23
17
6
-8
-17
-22
-18
-16
-1
7
10
2
-2
-16
-25
-29
-25
-17
-2
2
6
0
-7
-20
-27
-31
-27
-17
-3
4
2
-2
-4
-21
-28
-31
-27
-19
-2
7
8
2
-3
-20
-24
-26
-22
-14
2
7
8
3
-3
-17
-27
-26
-19
-13
0
8
9
4
-3
-20
-27
-27
-19
-13
4
8
10
4
-7
-22
-29
-28
-19
-9
5
9
7
1
-8
-19
-28
-28
-21
-9
3
8
8
0
-10
-25
-30
-28
-20
-10
1
4
9
-2
-13
-23
-30
-29
-21
-11
2
6
4
0
-13
-27
-33
-29
-20
-10
0
4
7
-4
-15
-27
-33
-30
-22
-10
1
3
1
-7
-17
-30
-33
-33
-21
-6
4
5
4
-6
-18
-30
-31
-28
-20
-4
2
5
0
-5
-19
-27
-32
-26
-20
-4
2
7
2
-4
-18
-29
-28
-21
-14
6
11
11
3
0
-15
-21
-25
-20
-13
2
10
15
10
4
-11
-20
-18
-11
-2
12
22
25
15
8
-8
-17
-17
-14
-10
2
7
10
2
-8
-22
-29
-31
-25
-18
0
6
6
1
-8
-24
-33
-31
-25
-16
-2
3
8
-2
-14
-31
-30
-34
-26
-17
-3
2
1
-4
-16
-27
-32
-33
-26
-14
-2
3
0
-7
-20
-34
-38
-39
-31
-22
-12
-9
-7
-6
-4
-2
3
19
42
74
108
140
169
183
179
168
150
133
116
107
90
60
26
-6
-38
-51
-53
-45
-33
-19
0
8
7
0
-13
-21
-28
-23
-17
-1
9
10
6
-2
-17
-21
-23
-19
-15
3
10
13
8
2
-11
-21
-23
-18
-10
5
14
17
10
3
-9
-19
-23
-11
-4
11
18
23
17
8
-5
-13
-14
-9
-1
14
22
24
17
13
-2
-6
-8
-2
8
23
28
30
24
20
7
-3
-2
9
18
34
39
43
39
31
23
17
19
23
35
51
58
61
54
47
36
34
36
43
57
70
76
80
73
64
52
48
48
56
65
80
82
89
79
66
51
42
45
50
62
73
73
70
60
45
28
22
23
25
34
45
46
41
31
16
3
-6
-3
1
13
22
25
22
13
-3
-10
-19
-19
-12
0
10
11
10
2
-9
-23
-25
-22
-15
-2
9
10
7
-4
-16
-22
-26
-21
-14
0
9
10
9
2
-14
-22
-24
-18
-13
3
11
13
9
2
-9
-20
-23
-17
-10
3
10
13
8
5
-11
-20
-22
-18
-6
8
12
18
10
3
-11
-20
-24
-16
-6
6
13
15
5
-1
-12
-22
-23
-13
-7
5
13
14
8
2
-10
-21
-23
-16
-9
6
11
13
4
-3
-17
-23
-24
-16
-4
6
13
9
4
-4
-18
-23
-23
-16
-6
5
13
11
3
-5
-18
-22
-23
-19
-5
7
11
9
-2
-11
-19
-24
-23
-17
-10
2
9
7
0
-10
-23
-27
-25
-18
-6
6
9
3
3
-11
-22
-26
-26
-15
-3
8
10
9
1
-12
-20
-21
-19
-11
3
13
17
11
5
-4
-16
-19
-14
-6
9
19
21
15
9
-4
-12
-16
-13
-6
3
10
14
7
-3
-18
-29
-32
-24
-15
-2
4
8
1
-5
-17
-27
-30
-30
-18
-5
2
4
0
-9
-23
-33
-36
-30
-21
-4
4
6
0
-9
-27
-34
-34
-25
-19
-8
3
3
-5
-13
-25
-32
-36
-30
-24
-10
-2
-5
-12
-18
-29
-26
-13
12
36
68
92
117
132
154
161
157
158
151
145
133
113
85
45
4
-34
-55
-55
-46
-33
-16
-5
4
-3
-12
-23
-27
-25
-21
-10
3
10
8
1
-9
-20
-27
-23
-16
-4
6
10
10
3
-7
-19
-22
-21
-11
1
14
17
15
7
-9
-20
-23
-17
-6
4
16
18
16
8
-5
-15
-18
-13
-4
9
20
24
23
13
1
-8
-12
-7
3
19
28
30
29
22
8
0
-1
4
15
29
39
43
35
31
19
10
11
18
27
45
54
58
55
49
38
32
30
39
48
60
75
73
74
67
52
44
48
50
56
76
81
82
77
70
55
48
44
49
58
70
73
73
66
54
34
27
22
26
30
44
48
43
33
23
5
-3
-4
1
10
21
26
24
12
2
-11
-18
-18
-12
-5
9
9
8
1
-8
-21
-25
-26
-20
-10
0
5
7
-1
-10
-24
-25
-27
-20
-10
3
7
7
-3
-10
-21
-27
-23
-17
-3
7
11
8
-1
-8
-22
-24
-22
-15
-2
7
12
7
0
-9
-22
-25
-19
-12
-2
9
14
12
3
-9
-20
-23
-18
-10
-1
9
14
9
1
-13
-21
-25
-21
-14
0
10
11
8
-1
-15
-23
-25
-22
-13
3
11
12
7
-2
-16
-25
-26
-21
-15
0
7
10
3
-8
-22
-26
-29
-23
-16
0
6
5
-1
-8
-22
-31
-26
-23
-14
2
6
7
0
-7
-22
-29
-32
-28
-16
-1
6
6
-4
-14
-23
-29
-30
-24
-15
1
8
7
0
-6
-22
-31
-30
-23
-11
2
11
7
-1
-10
-22
-24
-26
-18
-11
1
9
5
-3
-8
-18
-24
-21
-14
-3
10
13
10
4
-6
-17
-21
-20
-11
-2
13
19
18
11
0
-9
-17
-14
-6
8
19
22
20
13
-4
-15
-15
-14
-10
3
8
11
8
-3
-17
-28
-30
-26
-19
-2
3
5
-2
-7
-21
-25
-28
-27
-20
-5
1
1
-5
-7
-23
-31
-33
-30
-21
-4
1
6
-1
-7
-26
-31
-33
-29
-22
-6
3
4
-6
-12
-29
-39
-39
-35
-30
-15
-7
-2
-1
5
4
9
26
56
77
117
148
179
185
177
161
140
121
100
84
71
40
17
-15
-35
-47
-49
-46
-35
-21
0
8
9
4
-6
-17
-25
-26
-21
-11
0
9
6
0
-11
-22
-27
-25
-16
-6
6
12
10
1
-8
-19
-24
-22
-12
-1
12
16
13
6
-7
-16
-19
-19
-9
4
14
20
15
10
-2
-13
-16
-12
-7
10
18
23
21
15
2
-10
-15
-6
2
16
25
32
28
22
10
1
-2
4
12
28
40
45
42
34
20
13
12
21
30
45
55
61
58
52
39
33
35
39
47
64
70
77
70
67
51
44
44
51
58
73
77
78
74
64
48
44
41
47
50
62
65
65
53
44
27
18
16
21
23
36
40
36
24
16
-2
-9
-10
-5
0
10
