-32
-17
6
-7
-17
-30
-42
-52
-45
-30
-22
-14
-1
-1
-16
-23
-33
-47
-48
-35
-21
-8
-3
-11
-30
-34
-46
-52
-45
-31
-18
-5
-8
-12
-16
-23
-36
-49
-45
-32
-28
-11
-9
-12
-31
-35
-53
-46
-37
-25
-8
2
-1
-4
-22
-31
-48
-53
-46
-23
-14
7
3
-1
-23
-32
-48
-43
-39
-33
-27
-4
-2
-13
-22
-34
-50
-47
-35
-19
-13
10
-4
-3
-16
-25
-39
-40
-32
-17
-10
15
5
0
-14
-24
-47
-53
-38
-26
-22
3
-2
-11
-29
-34
-44
-45
-48
-23
-12
0
-6
-18
-38
-45
-61
-51
-44
-20
-15
-5
-7
-14
-35
-40
-50
-55
-42
-19
-14
-8
-6
-22
-40
-54
-72
-80
-78
-61
-29
-16
-9
-7
5
21
46
74
109
154
192
218
236
232
222
213
188
162
148
129
99
72
31
1
-17
-30
-41
-33
-28
-16
-4
-10
-13
-37
-42
-53
-49
-39
-37
-31
-16
-13
-23
-34
-39
-50
-56
-57
-34
-24
-13
-13
-15
-30
-40
-61
-60
-52
-30
-26
-11
-14
-25
-36
-45
-63
-51
-40
-25
-18
-2
-9
-13
-33
-52
-58
-53
-52
-37
-24
2
-3
-13
-21
-33
-52
-40
-42
-36
-18
-2
-16
-14
-25
-29
-50
-45
-33
-21
-13
6
0
-12
-26
-26
-43
-32
-26
-13
-2
7
9
-7
-17
-19
-35
-26
-15
1
10
21
14
14
0
-15
-35
-26
-15
-1
8
27
26
16
-3
-7
-21
-24
-17
-2
10
16
14
7
-11
-21
-34
-32
-14
-4
4
16
14
0
-20
-36
-39
-32
-19
-12
-2
7
5
-12
-29
-47
-51
-48
-36
-20
-10
-1
-4
-18
-28
-40
-44
-46
-34
-21
-4
-4
-11
-24
-25
-38
-44
-46
-29
-18
-3
1
-6
-22
-38
-46
-54
-41
-24
-23
0
5
-6
-22
-25
-47
-45
-37
-33
-28
-4
-3
-10
-20
-31
-46
-45
-39
-20
-20
-7
0
-5
-21
-31
-49
-46
-33
-17
-12
12
4
-6
-27
-31
-52
-40
-32
-25
-19
2
5
-10
-31
-41
-57
-42
-31
-20
-13
7
0
-7
-23
-28
-42
-48
-38
-17
-12
6
5
-10
-24
-30
-47
-41
-36
-13
-5
7
1
-15
-17
-28
-39
-33
-28
-9
-6
9
1
-8
-14
-16
-36
-27
-24
-15
-2
9
12
-1
-13
-30
-47
-49
-35
-22
-12
2
1
-17
-24
-29
-36
-39
-27
-16
-15
-3
0
-19
-28
-33
-43
-40
-27
-15
-7
-7
-10
-21
-28
-50
-57
-49
-36
-33
-10
-11
-15
-28
-31
-53
-64
-69
-61
-46
-29
-10
-2
-11
12
31
54
75
112
152
194
208
215
212
200
163
140
130
127
98
80
53
22
-15
-32
-48
-42
-48
-27
-11
10
2
-3
-19
-33
-49
-44
-48
-34
-27
-5
-3
-7
-15
-42
-61
-52
-48
-39
-25
-3
-14
-16
-33
-49
-52
-54
-45
-33
-28
-8
-10
-18
-31
-34
-48
-49
-41
-22
-17
4
-3
-12
-24
-33
-46
-41
-31
-18
-18
-2
-2
-10
-26
-38
-48
-55
-43
-24
-13
-3
-11
-25
-37
-37
-48
-47
-29
-19
-5
13
7
1
-9
-17
-36
-33
-18
-11
-3
5
4
-3
-6
-23
-31
-31
-14
4
11
27
25
10
-8
-19
-13
-8
-5
2
15
29
17
3
-11
-22
-29
-25
-6
-1
20
26
15
-2
-10
-21
-20
-16
-6
-6
9
10
5
-11
-15
-38
-40
-35
-23
-15
1
0
-6
-23
-39
-42
-39
-32
-22
-14
-5
-9
-6
-24
-30
-51
-45
-42
-27
-17
3
-1
-13
-16
-28
-54
-54
-41
-23
-14
6
3
-12
-25
-33
-57
-51
-41
-19
-13
6
0
-7
-17
-25
-44
-45
-32
-21
-14
1
7
-5
-35
-45
-58
-50
-36
-22
-13
9
-2
-16
-25
-21
-43
-44
-40
-26
-17
-2
-3
-12
-24
-34
-49
-48
-29
-13
-3
7
-1
-12
-23
-34
-49
-46
-27
-13
-6
10
6
-6
-23
-30
-42
-44
-29
-15
-8
6
-7
-17
-29
-37
-44
-37
-28
-13
1
7
6
-5
-21
-23
-39
-42
-30
-16
-4
2
15
1
-13
-27
-27
-29
-19
-13
5
10
0
-17
-21
-45
-53
-44
-27
-16
-2
2
-11
-24
-32
-52
-47
-42
-26
-9
2
-10
-18
-32
-29
-48
-42
-43
-26
-11
5
-1
-10
-23
-24
-47
-38
-40
-27
-31
-14
-26
-38
-58
-67
-67
-50
-38
-13
15
64
87
105
116
136
145
173
195
223
233
245
215
173
133
105
54
32
10
1
-1
10
7
-2
-15
-23
-44
-38
-28
-14
-23
-13
-16
-20
-36
-42
-59
-51
-41
-32
-24
-2
-8
-25
-31
-37
-52
-48
-34
-18
-16
-2
-6
-16
-30
-48
-54
-52
-39
-26
-13
1
2
-14
-30
-35
-46
-49
-42
-28
-15
0
-9
-26
-29
-36
-48
-48
-33
-23
-10
-2
-5
-21
-37
-53
-45
-43
-33
-19
-4
9
5
-7
-13
-30
-32
-28
-14
-13
-5
9
2
-14
-14
-27
-31
-31
-13
-5
11
15
14
-5
-16
-31
-29
-19
-5
5
19
27
16
0
-3
-18
-21
-16
-2
0
23
22
20
3
-5
-25
-20
-14
6
4
20
14
11
-5
-15
-34
-34
-19
-7
3
17
7
2
-9
-16
-51
-45
-31
-20
-13
4
-1
-17
-29
-34
-59
-48
-34
-18
-12
0
-6
-13
-26
-31
-48
-42
-36
-19
-5
7
5
-6
-26
-40
-54
-51
-39
-22
-15
-6
-1
-8
-28
-31
-41
-39
-37
-24
-17
-1
-2
-14
-35
-44
-42
-47
-32
-19
-6
8
-1
-10
-28
-36
-52
-46
-26
-22
-18
-3
-2
-15
-30
-39
-46
-45
-37
-19
-6
8
9
-7
-24
-34
-39
-33
-24
-18
-5
0
0
-13
-20
-32
-43
-33
-26
-21
-1
1
-8
-21
-28
-42
-50
-46
-28
-19
-3
0
0
-15
-26
-39
-30
-29
-25
-22
3
6
0
-6
-14
-27
-26
-31
-17
-7
13
6
8
-4
-12
-44
-40
-43
-24
-15
3
4
-2
-19
-23
-47
-44
-37
-15
-13
3
-4
-12
-26
-34
-48
-49
-34
-16
-11
12
-4
-8
-19
-27
-53
-52
-48
-28
-23
-14
-17
-14
-37
-49
-72
-74
-75
-53
-26
-6
-1
5
16
38
48
78
124
167
195
232
238
228
224
218
190
161
137
109
75
66
36
10
-15
-25
-36
-39
-25
-9
-7
5
6
-21
-33
-43
-51
-56
-46
-28
-17
0
-4
-16
-39
-47
-49
-52
-46
-30
-15
-10
-8
-28
-35
-52
-54
-57
-40
-20
-8
-2
2
-23
-32
-36
-45
-39
-32
-25
-6
-1
-3
-18
-20
-44
-50
-43
-31
-26
-2
-8
-18
-23
-32
-41
-47
-38
-21
-21
-8
-11
-8
-15
-28
-47
-41
-44
-21
-8
18
12
-4
-19
-26
-39
-29
-26
-9
-3
14
5
0
-13
-16
-37
-32
-19
-2
0
20
19
18
7
-1
-19
-21
-12
-5
-1
26
28
16
7
2
-23
-16
-5
2
7
21
21
7
-6
-17
-39
-28
-25
-10
-3
17
15
-5
-21
-27
-48
-36
-25
-19
-5
12
3
-9
-22
-29
-47
-42
-33
-16
-5
7
-7
-20
-32
-37
-44
-52
-41
-23
-12
-7
-6
-11
-26
-29
-43
-42
-35
-24
-12
0
0
-16
-24
-35
-44
-45
-29
-13
-10
4
-4
-15
-27
-42
-45
-37
-24
-14
-1
0
-5
-21
-33
-44
-43
-33
-27
-18
3
-1
-8
-16
-33
-41
-43
-42
-22
-20
-8
-4
2
-22
-30
-46
-47
-44
-34
-28
-7
-4
-3
-16
-27
-41
-34
-39
-15
-11
15
16
1
-15
-31
-57
-47
-34
-22
-11
8
-1
-9
-30
-32
-50
-46
-39
-25
-14
11
10
-4
-23
-21
-44
-43
-34
-17
-1
13
16
-5
-15
-26
-46
-31
-24
-14
-4
10
8
-6
-16
-26
-54
-48
-34
-19
-3
0
-2
-13
-29
-36
-47
-40
-33
-19
-14
-8
0
-18
-35
-34
-45
-45
-38
-23
-14
-4
-2
-8
-29
-41
-51
-45
-33
-21
-8
3
-8
-29
-48
-60
-79
-76
-55
-34
-14
4
24
39
60
76
91
125
167
202
232
257
254
245
221
177
144
127
98
72
49
31
11
-12
-25
-37
-44
-43
-25
-19
-11
1
4
-20
-39
-54
-48
-44
-24
-24
-12
-7
-13
-27
-43
-57
-54
-50
-35
-21
-4
-4
-16
-27
-36
-47
-51
-37
-26
-14
6
2
-16
-32
-41
-63
-54
-52
-39
-19
-4
-13
-14
-34
-38
-54
-50
-43
-32
-19
-7
-10
-15
-32
-37
-53
-50
-43
-28
-17
3
-5
-5
-29
-27
-53
-40
-30
-19
-7
13
11
-2
-15
-27
-43
-35
-24
-12
-8
16
13
0
-10
-21
-30
-25
-20
-4
7
22
21
5
-11
-22
-27
-20
-18
-5
3
18
21
6
-4
-16
-23
-25
-14
3
17
21
15
7
-11
-28
-39
-29
-16
-8
-1
11
5
-12
-26
-35
-46
-43
-25
-16
-2
14
2
-11
-26
-46
-54
-46
-39
-26
-8
2
5
-12
-27
-42
-48
-52
-37
-24
-9
-14
-21
-21
-28
-49
-46
-44
-20
-13
-3
4
-9
-30
-36
-50
-51
-48
-33
-17
-3
-2
-15
-28
-39
-57
-46
-39
-26
-23
-4
-4
-13
-22
-28
-50
-45
-33
-17
-18
-1
-6
-13
-26
-28
-53
-52
-46
-29
-19
0
-3
-9
-32
-35
-57
-51
-39
-23
-19
9
6
-6
-27
-26
-50
-50
-36
-28
-24
0
-3
-17
-27
-37
-51
-41
-32
-21
-13
1
-8
-17
-36
-36
-52
-50
-34
-21
-11
3
-3
-7
-20
-25
-36
-37
-29
-12
2
15
9
-1
-20
-28
-41
-38
-24
-10
1
5
2
-22
-40
-49
-54
-45
-31
-16
-10
1
-6
-20
-30
-47
-51
-47
-35
-18
-9
-6
-10
-17
-32
-48
-53
-45
-31
-23
-14
-3
-12
-24
-33
-49
-47
-46
-22
-19
-14
-27
-44
-63
-75
-84
-67
-55
-23
2
42
75
98
113
134
150
184
202
233
251
267
247
221
176
132
80
49
20
10
8
20
5
-3
-22
-27
-46
-44
-42
-27
-21
-2
-12
-17
-34
-35
-64
-55
-49
-44
-36
-16
-22
-21
-44
-47
-62
-54
-42
-28
-24
-5
-9
-21
-35
-50
-61
-54
-49
-22
-19
-4
-12
-19
-35
-46
-63
-57
-46
-27
-20
-11
-5
-20
-27
-39
-53
-55
-45
-29
-26
-4
-16
-17
-31
-37
-51
-53
-37
-11
-15
-6
-6
-19
-32
-45
-48
-44
-28
-10
7
10
6
-13
-26
-32
-39
-36
-22
-9
4
7
8
-5
-8
-24
-27
-27
-15
4
15
16
9
3
-9
-31
-33
-29
-15
-2
11
21
18
2
-10
-31
-32
-26
-13
0
16
20
6
-10
-19
-37
-38
-37
-21
-7
8
12
6
-14
-26
-42
-40
-36
-20
-12
-8
-16
-18
-31
-43
-60
-49
-43
-28
-20
2
-3
-15
-24
-35
-49
-49
-48
-35
-22
1
-8
-11
-22
-39
-56
-54
-39
-29
-21
-1
4
-6
-25
-21
-43
-41
-43
-31
-27
-3
-9
-21
-32
-35
-52
-47
-42
-21
-22
1
3
-14
-36
-41
-55
-50
-38
-27
-17
-3
-4
-16
-28
-38
-50
-48
-27
-28
-19
-2
-1
-12
-24
-33
-46
-46
-39
-23
-9
-3
-8
-21
-22
-32
-44
-33
-28
-20
-13
-8
-14
-24
-31
-40
-42
-40
-32
-17
-6
4
7
-8
-20
-33
-40
-38
-22
-12
-8
3
0
-9
-20
-38
-42
-42
-22
-12
-2
-4
-5
-23
-33
-47
-45
-42
-24
-14
6
18
9
-13
-29
-44
-52
-50
-41
-31
-8
-9
-8
-28
-33
-48
-37
-33
-30
-21
-9
-11
-10
-27
-36
-55
-48
-55
-34
-27
-21
-31
-37
-51
-43
-54
-44
-12
33
67
107
121
137
162
178
176
188
195
208
199
185
155
113
58
17
-27
-37
-34
-24
-20
-1
-1
-7
-24
-40
-59
-51
-33
-29
-31
-9
-9
-17
-30
-32
-51
-46
-37
-26
-18
-9
-7
-26
-37
-43
-61
-52
-37
-24
-19
-3
-7
-20
-28
-39
-52
-52
-44
-30
-17
-2
3
-10
-29
-48
-59
-51
-35
-18
-14
4
-3
-27
-33
-43
-52
-42
-29
-17
-4
1
-8
-16
-29
-41
-44
-39
-24
-20
-4
4
-11
-19
-33
-35
-33
-27
-15
-9
7
16
15
-10
-20
-34
-37
-32
-16
-3
14
15
2
-1
-6
-29
-17
-9
-8
3
31
25
19
-3
-7
-26
-21
-16
1
10
23
18
12
-2
-13
-35
-29
-27
-16
-9
12
7
1
-11
-16
-42
-38
-29
-13
-10
15
5
-9
-26
-9
-34
-36
-55
-53
-37
-20
-15
-1
-11
-12
-26
-40
-57
-40
-35
-20
-17
2
-3
-14
-19
-34
-54
-50
-37
-26
-21
-7
-10
-23
-37
-40
-61
-51
-38
-28
-17
-2
-3
-18
-31
-39
-56
-48
-40
-27
-13
-10
-8
-14
-29
-39
-52
-43
-32
-19
-5
-1
-6
-15
-34
-44
-49
-50
-40
-23
-8
0
3
-3
-16
-30
-43
-37
-31
-26
-10
-12
-15
-26
-37
-47
-52
-40
-21
-20
-6
-4
-6
-18
-31
-45
-43
-29
-13
-6
5
12
3
-17
-26
-37
-35
-36
-23
-14
-3
-6
-10
-21
-34
-49
-44
-39
-24
-19
-6
-14
-20
-35
-38
-54
-47
-42
-27
-24
-4
-10
-19
-34
-38
-59
-47
-41
-29
-26
-7
-2
-9
-23
-32
-56
-54
-53
-48
-49
-34
-40
-49
-59
-47
-60
-38
-6
43
88
122
149
172
187
197
197
201
210
206
181
169
143
94
51
6
-21
-32
-31
-19
-10
1
-3
-19
-32
-47
-60
-55
-41
-32
-23
-6
-13
-24
-46
-60
-67
-59
-45
-41
-28
-14
-11
-25
-43
-51
-62
-55
-42
-30
-16
-8
-19
-38
-38
-42
-56
-58
-47
-38
-27
-14
-15
-25
-37
-44
-45
-47
-32
-28
-13
-7
-14
-28
-34
-56
-52
-44
-35
-25
-24
-17
-16
-21
-32
-52
-47
-43
-29
-14
3
-1
-11
-26
-29
-45
-45
-42
-24
-18
-3
-4
-4
-20
-29
-38
-22
-21
-12
-8
12
1
3
-9
-11
-27
-16
-15
5
10
23
17
8
-2
-10
-31
-27
-23
-8
-1
21
18
7
-7
-13
-31
-30
-23
-10
-6
13
11
-7
-21
-26
-49
-47
-31
-23
-16
1
3
-8
-27
-32
-52
-48
-41
-30
-27
-13
-13
-21
-35
-41
-51
-54
-39
-26
-9
0
-3
-21
-27
-33
-52
-52
-37
-22
-15
-13
-17
-18
-29
-41
-58
-59
-39
-24
-21
-9
0
-20
-36
-42
-58
-57
-39
-26
-14
-7
-13
-26
-44
-54
-52
-50
-36
-23
-19
-10
-5
-24
-32
-47
-52
-47
-30
-17
-4
1
-5
-23
-33
-46
-49
-41
-34
-23
-5
-1
-12
-29
-33
-47
-50
-46
-27
-19
-1
1
3
-13
-24
-40
-32
-21
-7
-7
6
-2
-4
-24
-25
-52
-47
-34
-13
-13
8
2
-10
-20
-29
-52
-49
-42
-28
-14
8
2
-17
-29
-37
-58
-55
-40
-34
-26
-3
-4
-19
-24
-31
-58
-50
-46
-32
-22
-7
-13
-14
-24
-37
-56
-54
-38
-22
-22
-9
-12
-27
-55
-65
-79
-84
-72
-59
-39
-10
-2
7
10
42
54
85
118
165
203
242
251
248
230
210
169
138
123
98
73
54
24
-3
-19
-34
-45
-36
-32
-25
-18
-8
-15
-32
-39
-49
-61
-55
-42
-29
-20
-9
-17
-41
-52
-58
-63
-52
-38
-43
-27
-15
-16
-31
-44
-55
-64
-62
-51
-38
-24
-20
-16
-37
-45
-56
-59
-56
-27
-17
-6
-5
-18
-25
-38
-60
-63
-58
-53
-35
-9
-5
-7
-22
-34
-58
-54
-51
-36
-22
-5
-7
-8
-23
-34
-54
-46
-40
-28
-23
-6
-8
-12
-24
-30
-52
-43
-31
-19
-19
12
7
-5
-19
-27
-48
-31
-22
-7
1
16
5
0
-16
-16
-35
-33
-24
-5
3
21
21
3
-15
-20
-36
-31
-18
-4
-2
19
13
5
-19
-29
-45
-42
-28
-11
-14
1
-5
-18
-24
-34
-56
-54
-40
-22
-16
-2
-5
-18
-32
-44
-54
-48
-36
-25
-12
-6
-15
-19
-34
-47
-63
-57
-43
-25
-13
-4
-11
-22
-25
-37
-66
-63
-46
-36
-30
-10
-10
-24
-36
-45
-57
-53
-33
-30
-21
-8
-19
-29
-36
-48
-56
-52
-29
-22
-4
-12
-6
-18
-34
-55
-58
-52
-36
-27
-9
-11
-11
-19
-32
-54
-57
-50
-37
-23
-8
-15
-12
-27
-34
-51
-42
-36
-22
-23
-10
-14
-16
-29
-39
-52
-48
-50
-25
-13
1
-8
-11
-23
-24
-45
-43
-38
-19
-11
13
8
-3
-21
-23
-48
-53
-43
-31
-26
-2
0
-25
-37
-42
-59
-54
-42
-30
-25
-10
-13
-24
-35
-39
-58
-50
-38
-33
-29
-9
-20
-28
-36
-38
-53
-58
-45
-35
-23
-12
-11
-21
-50
-55
-76
-81
-79
-56
-41
-13
-6
1
15
33
47
72
116
155
187
222
232
225
208
180
143
112
87
61
40
22
1
-13
-24
-43
-55
-49
-46
-28
-24
-13
-21
-36
-44
-63
-61
-52
-39
-42
-24
-20
-26
-43
-45
-66
-65
-57
-45
-32
-22
-14
-20
-37
-49
-62
-63
-59
-37
-20
-7
-9
-20
-33
-37
-62
-64
-60
-39
-30
-13
-11
-25
-26
-36
-55
-55
-54
-38
-26
-9
-9
-15
-34
-41
-56
-55
-44
-32
-24
-5
-9
-13
-33
-33
-48
-49
-50
-31
-22
-1
-12
-16
-26
-27
-44
-40
-37
-26
-15
14
11
0
-16
-22
-39
-33
-30
-16
-1
12
14
6
-14
-20
-34
-21
-15
-8
1
17
14
3
-15
-21
-37
-36
-24
-7
9
18
15
2
-22
-26
-41
-38
-29
-14
-4
1
1
-18
-31
-44
-54
-53
-36
-22
-12
-11
-13
-26
-36
-48
-70
-47
-41
-33
-21
-10
-12
-29
-35
-45
-58
-53
-38
-33
-12
2
-9
-29
-39
-57
-58
-54
-40
-30
-18
-9
-11
-27
-40
-51
-61
-62
-42
-28
-15
-9
-13
-31
-40
-55
-52
-46
-36
-35
-15
-8
-13
-33
-39
-57
-57
-52
-42
-27
-8
-12
-21
-35
-41
-52
-51
-50
-27
-25
-4
-9
-8
-28
-34
-51
-48
-39
-26
-24
2
-2
-6
-23
-36
-60
-46
-38
-22
-18
-1
-3
-12
-22
-28
-44
-36
-31
-13
-13
8
5
-9
-20
-30
-55
-55
-48
-36
-25
-7
-15
-26
-41
-49
-66
-55
-49
-35
-27
-8
-1
-16
-30
-32
-51
-53
-40
-28
-24
-7
-10
-22
-29
-47
-51
-48
-42
-34
-24
-20
-20
-34
-56
-68
-78
-81
-68
-43
-18
-2
5
11
21
35
51
78
120
160
192
217
219
210
181
148
122
95
74
57
37
20
-2
-22
-33
-49
-54
-49
-30
-28
-14
-10
-16
-33
-42
-56
-55
-61
-42
-28
-16
-9
-20
-43
-54
-64
-58
-52
-36
-24
-16
-29
-32
-42
-49
-68
-69
-62
-41
-29
-8
-13
-20
-33
-41
-60
-59
-56
-38
-30
-18
-19
-26
-36
-38
-57
-49
-45
-26
-20
-12
-20
-23
-36
-39
-63
-55
-43
-29
-25
-6
-11
-24
-38
-46
-60
-53
-37
-18
-17
-3
-14
-12
-27
-34
-49
-41
-29
-20
-12
6
6
0
-15
-19
-33
-34
-28
-14
-6
13
16
4
-4
-20
-31
-36
-21
-12
2
18
16
6
-11
-23
-36
-36
-23
-9
9
13
5
-4
-18
-29
-33
-30
-20
-11
-2
11
2
-17
-29
-38
-51
-52
-36
-32
-21
-10
-8
-27
-37
-54
-61
-56
-41
-27
-16
-4
-9
-27
-39
-52
-58
-52
-35
-30
-18
-12
-26
-30
-35
-55
-53
-39
-28
-22
-7
-3
-9
-23
-35
-49
-50
-44
-28
-27
-13
-14
-21
-34
-40
-62
-58
-56
-36
-27
-9
-10
-15
-23
-39
-61
-56
-50
-34
-20
-8
-10
-14
-32
-39
-64
-59
-50
-30
-28
-5
-5
-8
-25
-34
-52
-48
-38
-21
-13
3
-9
-11
-25
-27
-43
-46
-41
-19
-18
-3
8
-4
-19
-27
-50
-48
-41
-20
-10
0
-2
-10
-27
-37
-57
-55
-45
-13
-18
-6
-5
-18
-24
-38
-52
-49
-42
-27
-28
-14
-13
-24
-38
-48
-64
-55
-43
-28
-16
-12
-18
-27
-40
-50
-56
-52
-32
-22
-13
-13
-28
-50
-73
-83
-93
-80
-57
-36
-3
36
55
75
89
104
122
149
183
215
238
242
226
191
157
119
90
55
25
9
6
0
-5
-20
-29
-47
-53
-53
-35
-28
-11
-14
-19
-35
-40
-56
-59
-46
-40
-37
-21
-21
-23
-42
-53
-72
-67
-63
-37
-28
-9
-15
-18
-36
-38
-66
-66
-60
-39
-33
-16
-19
-24
-34
-40
-64
-65
-53
-46
-28
-7
-16
-17
-36
-39
-62
-56
-43
-30
-18
-11
-19
-20
-36
-42
-57
-53
-47
-46
-22
-7
-11
-22
-34
-33
-48
-39
-23
-16
-5
3
-13
-17
-36
-40
-49
-37
-31
-16
-10
4
1
-10
-16
-19
-34
-24
-15
-5
-6
6
14
4
-14
-27
-36
-26
-14
-1
3
14
13
-3
-13
-21
-32
-26
-12
-10
-5
7
4
0
-16
-33
-37
-48
-27
-11
-2
1
-5
-23
-38
-47
-56
-42
-33
-22
-7
-9
-16
-30
-41
-48
-51
-49
-41
-26
-14
-10
-12
-23
-30
-52
-48
-48
-32
-21
-10
-7
-16
-27
-42
-60
-52
-47
-36
-20
1
-10
-11
-25
-42
-57
-56
-46
-37
-35
-7
-6
-12
-20
-33
-58
-56
-47
-32
-23
-10
-20
-17
-36
-37
-58
-56
-50
-37
-28
-8
-16
-17
-34
-35
-55
-59
-42
-22
-8
13
10
-3
-24
-34
-52
-57
-51
-30
-23
-4
-2
-16
-29
-33
-54
-51
-47
-34
-29
-4
-1
-4
-23
-37
-43
-35
-23
-11
-9
4
1
-6
-16
-30
-40
-40
-26
-14
-6
-1
-3
-13
-30
-45
-56
-53
-40
-22
-17
-7
-4
-20
-35
-49
-63
-52
-41
-24
-11
3
-10
-23
-34
-44
-55
-55
-36
-28
-21
-12
-17
-28
-41
-65
-63
-54
-38
-29
-27
-20
-33
-57
-72
-83
-75
-57
-28
-7
30
59
87
91
105
113
162
186
220
233
246
248
220
174
143
97
64
34
15
5
7
2
-5
-26
-31
-46
-47
-40
-25
-20
-3
-7
-18
-37
-52
-71
-66
-60
-41
-34
-14
-15
-24
-36
-45
-68
-62
-53
-33
-27
-9
-11
-19
-36
-45
-70
-64
-51
-36
-30
-10
-19
-30
-47
-56
-72
-59
-48
-36
-29
-10
-10
-27
-41
-42
-63
-56
-48
-33
-25
-5
-10
-19
-29
-37
-53
-53
-48
-24
-25
-9
-13
-15
-18
-34
-55
-51
-36
-23
-11
2
-6
-22
-36
-36
-49
-40
-29
-8
-1
9
8
-5
-16
-25
-34
-26
-14
3
11
20
11
-1
-11
-28
-35
-22
-14
1
8
15
7
-9
-11
-25
-35
-31
-16
-11
6
19
11
-12
-24
-46
-49
-42
-24
-17
3
9
1
-16
-22
-43
-46
-50
-45
-30
-10
-9
-21
-30
-44
-62
-56
-40
-30
-21
-9
-12
-13
-27
-37
-54
-46
-38
-30
-26
-12
-8
-7
-23
-36
-62
-51
-55
-37
-24
-5
-3
-16
-32
-39
-55
-56
-47
-30
-29
-11
-8
-19
-29
-26
-49
-51
-50
-30
-23
-6
-14
-16
-31
-35
-57
-50
-36
-24
-17
-6
-5
-10
-35
-43
-56
-45
-33
-21
-11
0
-1
-15
-30
-43
-54
-51
-37
-34
-18
-3
-5
-18
-30
-38
-42
-44
-39
-25
-4
8
-5
-14
-23
-34
-51
-50
-43
-28
-17
-10
-17
-19
-25
-30
-40
-40
-18
-12
-8
6
1
-14
-23
-33
-31
-32
-21
-14
2
4
-1
-14
-30
-35
-40
-38
-33
-22
-3
-6
-6
-20
-30
-48
-50
-50
-36
-23
-5
-2
-4
-21
-35
-54
-48
-35
-30
-23
-5
-8
-3
-26
-42
-52
-46
-42
-29
-25
-5
-5
-16
-34
-38
-63
-63
-60
-48
-43
-18
-22
-14
-20
-5
8
36
65
102
148
189
200
211
202
192
164
144
128
120
90
72
43
8
-22
-36
-50
-49
-36
-22
-9
8
4
-19
-37
-49
-63
-53
-49
-34
-17
0
-11
-18
-36
-48
-70
-61
-42
-34
-33
-7
-9
-17
-20
-41
-50
-42
-36
-24
-16
-9
-12
-15
-31
-41
-51
-54
-38
-30
-16
-8
-13
-24
-33
-46
-51
-45
-30
-19
-14
-5
-8
-21
-38
-48
-54
-46
-36
-22
-7
1
-2
-13
-21
-38
-46
-37
-24
-13
-2
2
2
-11
-27
-35
-38
-33
-22
-7
4
5
6
-8
-19
-32
-27
-18
5
11
12
22
17
-1
-8
-31
-23
-20
-1
8
26
22
11
-4
-12
-25
-19
-19
-2
8
18
10
8
-3
-15
-32
-25
-24
-14
-4
15
13
-4
-19
-25
-46
-41
-30
-11
-3
9
-2
-18
-33
-36
-58
-55
-39
-21
-13
0
-11
-7
-22
-40
-55
-51
-46
-31
-13
-4
0
-7
-28
-37
-53
-43
-36
-23
-17
-6
1
-11
-34
-37
-55
-53
-39
-20
-15
-3
0
-18
-30
-39
-50
-50
-43
-23
-13
-3
-6
-22
-31
-43
-50
-47
-39
-23
-13
-4
-10
-16
-32
-38
-42
-37
-24
-18
-16
-5
-5
-19
-30
-45
-40
-38
-31
-17
-7
-3
-9
-19
-30
-48
-47
-41
-26
-11
-11
-6
-11
-18
-32
-43
-40
-41
-33
-25
-13
-9
-10
-19
-28
-45
-44
-38
-20
-11
-6
-4
-8
-26
-32
-49
-51
-47
-36
-20
2
2
-9
-21
-24
-40
-43
-38
-26
-17
3
-4
-9
-21
-34
-42
-32
-25
-10
-6
18
11
-5
-27
-34
-44
-50
-45
-30
-23
1
-1
-10
-28
-38
-48
-44
-33
-22
-23
-5
-7
-17
-33
-48
-54
-50
-39
-19
-21
-7
-17
-23
-34
-40
-54
-54
-39
-22
-19
-7
-14
-40
-61
-66
-76
-67
-49
-34
-15
23
47
71
89
103
117
151
176
198
226
237
222
189
159
125
84
51
37
24
17
17
5
-15
-30
-43
-53
-43
-36
-21
-11
-1
-8
-28
-44
-57
-70
-52
-43
-32
-10
-2
-4
-20
-34
-52
-53
-51
-46
-36
-19
-15
-18
-35
-30
-49
-49
-40
-29
-27
-10
-4
-15
-22
-35
-52
-61
-49
-31
-30
-7
-11
-11
-21
-29
-50
-44
-46
-38
-30
-13
-3
-6
-29
-39
-58
-50
-40
-27
-20
5
-1
-12
-22
-26
-51
-46
-36
-19
-14
5
2
-10
-21
-29
-45
-39
-29
-6
-5
23
16
-3
-14
-18
-31
-30
-18
-1
12
23
20
13
-1
-4
-26
-23
-18
-1
9
22
18
4
-8
-11
-20
-22
-14
-8
3
20
14
2
-19
-27
-31
-30
-20
-5
-1
12
5
-9
-26
-38
-51
-39
-27
-16
-7
-5
-5
-13
-24
-42
-60
-53
-43
-29
-16
-5
-3
-18
-32
-44
-52
-45
-36
-24
-6
-1
-10
-23
-31
-47
-51
-39
-32
-18
-3
-2
2
-24
-34
-54
-60
-50
-42
-30
-6
0
-5
-25
-39
-51
-52
-40
-30
-26
-2
-7
-10
-22
-26
-44
-44
-42
-34
-31
-9
-7
-9
-23
-35
-59
-52
-50
-24
-17
1
-2
-9
-19
-29
-55
-45
-40
-33
-23
-9
-12
-15
-25
-29
-45
-48
-39
-27
-24
-3
-7
-18
-37
-30
-46
-43
-40
-23
-17
5
0
-12
-21
-33
-52
-46
-26
-19
-18
3
-8
-23
-26
-27
-47
-57
-45
-24
-15
0
-10
-17
-21
-31
-46
-43
-32
-16
-12
4
6
-4
-21
-31
-49
-51
-36
-25
-14
0
4
-3
-19
-29
-36
-30
-20
-16
-5
-1
-4
-8
-31
-42
-53
-47
-35
-9
-6
-8
-12
-21
-39
-46
-51
-44
-29
-17
2
6
-4
-26
-40
-51
-52
-47
-36
-21
-7
0
-6
-25
-27
-45
-56
-46
-34
-30
-14
-6
-20
-51
-69
-85
-84
-70
-47
-30
-4
18
36
53
67
84
125
167
204
231
263
263
256
231
191
142
118
79
61
42
40
19
3
-13
-22
-38
-34
-37
-22
-23
2
-7
-19
-36
-43
-60
-56
-52
-37
-32
-20
-15
-12
-35
-39
-61
-54
-42
-31
-39
-14
-16
-28
-40
-43
-60
-52
-42
-32
-28
-8
-12
-20
-36
-46
-55
-48
-33
-25
-14
-6
-8
-17
-32
-48
-65
-46
-40
-27
-23
-9
-14
-20
-32
-43
-54
-53
-43
-32
-16
0
-1
-23
-34
-38
-49
-50
-34
-24
-18
-4
-3
-10
-20
-35
-39
-32
-22
-3
8
12
5
-4
-14
-30
-42
-29
-8
-8
11
11
13
8
-5
-22
-28
-21
-5
6
18
16
15
1
-9
-32
-26
-17
-6
-3
15
15
5
-6
-21
-49
-42
-27
-17
-15
5
2
-7
-19
-26
-43
-38
-35
-24
-25
-8
-7
-15
-27
-37
-54
-49
-46
-35
-21
5
-4
-12
-29
-43
-55
-50
-43
-23
-17
6
-1
-20
-29
-28
-47
-56
-50
-33
-21
0
0
-14
-28
-41
-56
-54
-43
-26
-23
-10
-10
-19
-25
-35
-48
-43
-31
-25
-21
-9
-18
-21
-37
-46
-56
-51
-39
-20
-12
5
-5
-17
-32
-40
-51
-51
-38
-23
-17
-10
-8
-18
-39
-40
-46
-45
-32
-17
-3
11
4
-13
-30
-41
-64
-57
-36
-30
-18
-5
-8
-18
-33
-42
-50
-50
-33
-22
-8
1
-3
-22
-28
-46
-52
-45
-34
-25
-9
-1
-6
-24
-23
-43
-39
-33
-24
-23
-10
-6
-15
-30
-33
-46
-42
-35
-29
-20
3
2
0
-11
-21
-46
-45
-41
-21
-13
3
2
-9
-17
-26
-44
-33
-33
-23
-11
7
-5
-21
-34
-35
-49
-40
-35
-25
-13
2
-2
-13
-26
-37
-57
-50
-45
-28
-21
-4
-5
-16
-31
-33
-54
-48
-33
-15
-14
1
-3
-15
-28
-34
-52
-55
-45
-44
-47
-33
-39
-47
-45
-43
-57
-40
-13
38
72
114
137
157
162
176
172
173
186
190
169
163
142
96
51
15
-24
-26
-14
-11
-9
-2
2
-12
-33
-47
-51
-56
-41
-26
-15
-12
-13
-26
-40
-48
-54
-58
-43
-25
-15
-4
-8
-23
-32
-42
-53
-46
-35
-30
-17
-11
-13
-28
-31
-45
-36
-36
-30
-24
-10
-9
-12
-22
-32
-45
-41
-45
-28
-17
0
1
-2
-28
-45
-54
-47
-42
-37
-26
-9
-10
-9
-23
-36
-50
-54
-39
-23
-11
1
-2
-5
-6
-14
-33
-32
-34
-26
-12
6
-1
0
-11
-21
-35
-26
-23
-7
-4
23
25
14
1
-6
-25
-14
-11
8
9
28
26
14
-5
-10
-29
-27
-11
0
7
25
24
10
7
-1
-22
-28
-24
-5
1
16
10
4
-10
-15
-31
-31
-22
-13
-11
1
-6
-10
-18
-35
-58
-51
-35
-21
-13
-4
-5
-14
-25
-41
-46
-38
-32
-19
-9
2
-5
-14
-31
-42
-55
-63
-39
-19
-11
-2
-12
-19
-26
-39
-47
-47
-30
-17
-15
-4
-6
-19
-32
-40
-44
-34
-26
-13
-3
-4
-10
-22
-36
-50
-47
-44
-29
-24
-8
-3
-15
-31
-38
-47
-50
-37
-25
-15
-1
1
-2
-17
-25
-51
-53
-47
-34
-22
-5
-6
-5
-17
-27
-56
-43
-30
-26
-23
0
-4
-7
-12
-26
-48
-44
-41
-27
-15
4
1
-4
-23
-38
-55
-53
-43
-22
-13
8
2
-13
-24
-32
-47
-44
-41
-24
-14
-1
-4
-13
-27
-37
-58
-56
-40
-28
-20
-1
-7
-11
-23
-34
-50
-44
-42
-23
-4
7
5
-1
-19
-27
-37
-29
-21
-7
-3
6
-1
-13
-26
-29
-45
-43
-33
-17
-9
2
-11
-26
-45
-33
-51
-50
-35
-22
-14
-8
-16
-24
-36
-44
-58
-49
-39
-19
-5
5
-2
-17
-31
-40
-46
-44
-22
-16
-5
-2
-11
-14
-26
-48
-56
-65
-49
-44
-41
-33
-31
-35
-30
-35
-25
7
54
88
132
160
184
194
198
189
184
181
176
160
153
123
80
43
14
-23
-38
-40
-27
-22
-1
-3
-5
-19
-29
-48
-46
-48
-28
-16
-6
-13
-20
-35
-39
-65
-55
-53
-32
-20
-6
-4
-15
-32
-36
-66
-53
-44
-36
-31
-15
-19
-22
-34
-41
-56
-53
-45
-35
-26
-5
-4
-10
-32
-36
-58
-51
-39
-24
-8
1
-8
-19
-35
-33
-51
-48
-40
-33
-21
-12
-11
-23
-36
-42
-57
-53
-41
-23
-17
-4
-15
-20
-16
-19
-38
-35
-23
-13
0
8
0
-5
-19
-27
-38
-30
-20
-6
11
23
25
-6
-17
-26
-37
-24
-9
1
16
31
26
12
-3
-20
-32
-26
-10
-1
15
31
16
1
-11
-33
-35
-25
-19
-11
0
5
3
-12
-33
-44
-43
-46
-29
-22
-7
-4
-8
-24
-39
-50
-47
-48
-25
-18
2
-8
-11
-26
-34
-54
-49
-45
-29
-19
-3
-7
-16
-31
-41
-61
-47
-39
-21
-14
1
-3
-11
-18
-24
-54
-49
-40
-31
-21
-6
-14
-20
-35
-45
-57
-48
-32
-20
-25
-3
-8
-25
-38
-45
-61
-55
-50
-34
-22
-4
-9
-19
-32
-39
-55
-45
-40
-32
-23
-3
-6
-19
-28
-37
-54
-48
-36
-26
-23
-6
-3
-25
-35
-43
-54
-42
-32
-15
-14
-6
-5
-23
-28
-36
-46
-42
-33
-19
-8
-1
-7
-21
-37
-46
-60
-55
-43
-35
-22
-16
-16
-19
-25
-38
-55
-46
-32
-18
-7
-5
-11
-27
-35
-49
-55
-49
-35
-30
-20
-9
-10
-24
-31
-46
-51
-44
-28
-18
-8
-6
-10
-22
-30
-44
-43
-39
-27
-14
-5
-2
-10
-23
-25
-46
-55
-46
-35
-20
4
6
0
-21
-35
-55
-61
-43
-27
-24
-7
-9
-14
-27
-33
-52
-47
-35
-30
-28
-7
-11
-15
-31
-45
-61
-57
-54
-43
-34
-14
-19
-24
-45
-65
-87
-89
-77
-59
-38
-7
-7
0
13
35
52
80
117
174
195
240
252
248
229
210
169
144
124
103
67
57
31
6
-13
-23
-41
-45
-34
-25
-20
-7
-15
-22
-41
-47
-60
-58
-41
-39
-33
-18
-18
-32
-40
-52
-60
-51
-42
-30
-25
-15
-18
-27
-41
-48
-62
-57
-45
-38
-27
-16
-18
-24
-31
-42
-54
-52
-42
-32
-20
-6
-11
-24
-39
-59
-63
-52
-43
-35
-28
-12
-21
-34
-42
-53
-48
-52
-33
-28
-14
-12
-14
-30
-36
-49
-45
-34
-25
-13
3
-6
-6
-21
-28
-46
-49
-39
-23
-16
-2
-2
0
-14
-20
-32
-24
-18
-3
0
8
0
-2
-9
-19
-38
-28
-17
0
5
17
13
10
-7
-15
-36
-37
-26
-6
-3
11
9
4
-16
-21
-31
-35
-23
-13
-12
8
0
-11
-18
-32
-54
-46
-32
-19
-17
4
0
-16
-35
-41
-54
-50
-37
-29
-22
-7
-28
-32
-40
-48
-51
-48
-41
-29
-18
-4
-11
-23
-34
-49
-59
-51
-39
-26
-20
-11
-11
-30
-39
-45
-55
-53
-42
-30
-18
-14
-11
-26
-38
-45
-53
-50
-34
-19
-11
-6
-16
-32
-38
-49
-58
-49
-34
-22
-11
-12
-10
-27
-41
-48
-48
-33
-24
-18
-15
-10
-20
-34
-36
-56
-58
-51
-34
-37
-15
-16
-20
-18
-33
-57
-59
-47
-28
-25
-9
-6
-17
-25
-31
-53
-54
-51
-31
-22
-6
-10
-12
-20
-33
-56
-48
-41
-30
-23
-4
-11
-22
-29
-34
-58
-44
-37
-19
-19
-2
2
-6
-25
-29
-48
-42
-45
-18
-13
11
1
-3
-21
-23
-46
-49
-44
-26
-26
-3
-5
-15
-28
-37
-65
-49
-40
-31
-19
-6
-10
-21
-33
-37
-63
-53
-42
-24
-15
1
-8
-19
-33
-35
-52
-53
-51
-35
-18
-3
-7
-22
-39
-43
-55
-65
-66
-64
-58
-41
-38
-35
-40
-38
-22
11
53
83
118
157
177
188
190
187
178
169
154
144
136
108
69
21
-10
-34
-54
-47
-30
-24
-16
-5
-9
-26
-30
-57
-55
-45
-32
-24
-14
-13
-29
-41
-53
-62
-59
-55
-41
-37
-22
-16
-23
-39
-47
-60
-57
-56
-46
-29
-8
-14
-16
-24
-37
-60
-59
-53
-38
-35
-14
-13
-18
-28
-39
-58
-54
-53
-31
-21
4
-5
-13
-28
-42
-65
-57
-39
-32
-19
-9
-15
-25
-33
-40
-59
-54
-41
-30
-25
-1
-6
-18
-25
-31
-48
-49
-36
-19
-13
0
2
-5
-16
-22
-36
-32
-27
-12
-5
13
6
9
-3
-11
-24
-17
-17
-3
3
20
14
0
-12
-24
-35
-35
-15
-1
9
25
15
-4
-11
-26
-37
-32
-24
-18
-11
3
1
-15
-25
-34
-41
-38
-29
-19
-14
0
-5
-29
-35
-53
-60
-58
-38
-27
-13
-4
-11
-30
-40
-59
-64
-56
-44
-32
-19
-11
-12
-29
-36
-49
-56
-52
-43
-39
-19
-9
-13
-28
-35
-50
-51
-54
-41
-27
-10
-18
-20
-29
-38
-53
-49
-48
-33
-30
-17
-15
-22
-38
-44
-62
-65
-52
-30
-25
-4
-12
-26
-39
-41
-57
-56
-41
-26
-29
-13
-12
-21
-34
-47
-60
-61
-48
-29
-26
-7
-5
-21
-34
-40
-54
-46
-46
-38
-28
-4
-9
-19
-34
-42
-62
-56
-49
-31
-16
2
-13
-20
-37
-45
-59
-53
-40
-24
-21
-7
-5
-21
-36
-46
-48
-49
-45
-33
-20
-6
-13
-21
-33
-39
-39
-44
-36
-12
-9
3
-1
-6
-29
-46
-54
-52
-35
-23
-17
-12
-19
-36
-45
-58
-63
-52
-37
-27
-16
-9
-18
-32
-40
-59
-65
-57
-37
-30
-15
-10
-17
-36
-45
-58
-63
-55
-37
-35
-16
-16
-24
-39
-52
-81
-85
-87
-70
-46
-17
-12
6
3
29
40
63
92
135
165
200
210
209
193
173
133
112
100
81
52
44
17
-8
-27
-38
-63
-51
-43
-33
-27
-11
-21
-29
-46
-42
-61
-63
-59
-49
-35
-11
-18
-31
-43
-47
-69
-57
-49
-34
-25
-12
-23
-34
-44
-47
-61
-56
-50
-39
-37
-17
-19
-30
-45
-55
-67
-62
-55
-33
-28
-13
-17
-29
-43
-53
-66
-64
-53
-37
-24
-12
-15
-26
-32
-45
-61
-53
-43
-32
-28
-6
-4
-21
-38
-48
-64
-57
-37
-17
-8
2
-6
-17
-27
-38
-59
-55
-34
-21
-6
-1
-5
-14
-19
-25
-37
-34
-19
-3
7
9
3
-17
-26
-38
-34
-22
-11
-1
15
17
6
-8
-14
-39
-42
-28
-15
-13
-2
3
-3
-16
-19
-37
-32
-25
-15
-12
-2
-9
-14
-33
-44
-54
-48
-48
-34
-24
-7
-9
-14
-29
-38
-64
-59
-52
-42
-34
-14
-17
-23
-38
-44
-66
-56
-51
-36
-37
-19
-17
-18
-38
-43
-62
-59
-53
-41
-39
-15
-16
-21
-32
-47
-63
-52
-51
-35
-29
-11
-19
-27
-40
-48
-63
-52
-52
-34
-35
-11
-14
-25
-34
-44
-64
-54
-52
-34
-35
-21
-24
-28
-41
-44
-57
-52
-43
-34
-28
-7
-2
-23
-36
-46
-66
-64
-50
-37
-34
-24
-13
-27
-40
-44
-53
-49
-41
-30
-20
-3
-12
-33
-46
-44
-51
-48
-39
-29
-20
-8
-11
-24
-37
-55
-59
-59
-54
-27
-6
0
-2
-20
-31
-46
-48
-42
-32
-22
-10
-7
-5
-23
-25
-41
-49
-36
-22
-27
-17
-18
-21
-39
-41
-65
-64
-61
-37
-18
-6
-9
-17
-35
-46
-63
-54
-51
-41
-26
-12
-20
-23
-34
-42
-57
-44
-45
-37
-39
-15
-21
-28
-39
-54
-68
-58
-57
-56
-53
-44
-43
-41
-41
-48
-59
-32
-4
45
74
123
148
174
191
201
196
202
203
199
185
174
137
87
43
10
-25
-35
-38
-13
-5
6
-2
-14
-35
-48
-68
-70
-55
-34
-28
-15
-23
-35
-44
-51
-64
-57
-51
-42
-33
-19
-25
-30
-44
-58
-74
-70
-48
-45
-35
-21
-26
-34
-47
-56
-65
-63
-54
-46
-31
-14
-19
-29
-43
-53
-62
-56
-41
-29
-17
-8
-17
-23
-26
-46
-60
-63
-35
-38
-26
-20
-24
-31
-41
-63
-62
-61
-41
-25
-8
-17
-17
-24
-41
-53
-51
-47
-28
-24
-11
-4
-9
-31
-33
-49
-40
-33
-18
-11
8
13
7
-11
-18
-39
-32
-27
-17
-8
11
4
1
-11
-19
-35
-27
-22
-15
-5
10
6
0
-15
-19
-39
-31
-29
-13
-9
3
-2
-9
-26
-35
-54
-44
-40
-28
-20
-6
-4
-16
-30
-34
-54
-54
-48
-35
-27
-18
-23
-28
-41
-45
-66
-61
-49
-36
-34
-19
-22
-34
-42
-49
-61
-58
-44
-22
-13
-2
-8
-26
-38
-46
-62
-61
-47
-41
-29
-13
-14
-30
-42
-48
-53
-49
-37
-34
-23
-13
-10
-30
-46
-49
-55
-52
-47
-35
-12
-6
-17
-34
-41
-58
-58
-55
-50
-43
-25
-12
-16
-25
-35
-51
-53
-55
-40
-34
-17
-7
-22
-33
-37
-58
-60
-49
-32
-24
-4
-1
-10
-27
-43
-59
-58
-55
-41
-28
-14
-15
-21
-37
-45
-59
-56
-52
-36
-29
-15
-19
-21
-32
-39
-50
-37
-36
-19
-14
0
-12
-15
-24
-42
-60
-45
-38
-26
-13
3
-1
-10
-30
-33
-47
-50
-48
-29
-25
-1
-10
-24
-31
-39
-56
-53
-51
-36
-33
-17
-21
-32
-43
-39
-56
-51
-39
-36
-29
-13
-15
-30
-42
-44
-69
-65
-47
-28
-22
-11
-14
-24
-41
-38
-60
-79
-70
-65
-60
-50
-43
-41
-50
-55
-48
-22
21
68
99
141
169
184
199
207
200
206
196
185
174
155
121
75
27
-9
-30
-35
-26
-16
-5
-2
-14
-31
-46
-67
-73
-62
-50
-39
-19
-14
-22
-48
-53
-59
-68
-60
-46
-36
-23
-25
-25
-41
-41
-57
-56
-46
-40
-38
-22
-21
-29
-45
-45
-68
-61
-57
-48
-38
-13
-20
-23
-38
-52
-65
-59
-56
-43
-35
-16
-23
-28
-42
-44
-62
-58
-53
-39
-31
-10
-17
-22
-34
-37
-54
-50
-51
-34
-28
-3
-13
-19
-28
-33
-56
-48
-38
-18
-16
1
1
-8
-17
-21
-39
-37
-38
-21
-13
-1
1
-12
-19
-19
-31
-35
-25
-7
2
19
12
-2
-18
-20
-32
-38
-20
-4
-1
9
7
-5
-15
-24
-36
-39
-26
-11
-3
9
3
-17
-27
-37
-51
-50
-40
-30
-19
-6
-8
-22
-30
-48
-61
-56
-44
-26
-19
-6
-18
-22
-34
-45
-58
-62
-43
-34
-13
-11
-19
-30
-38
-54
-57
-56
-36
-22
-14
-14
-24
-31
-37
-54
-55
-48
-36
-23
-12
-16
-21
-38
-46
-64
-57
-55
-41
-37
-16
-12
-18
-33
-36
-52
-46
-53
-45
-38
-18
-13
-18
-32
-37
-64
-54
-47
-32
-27
-8
-18
-18
-27
-40
-54
-54
-44
-32
-23
-1
-8
-15
-27
-37
-55
-53
-41
-30
-26
-11
-15
-24
-31
-34
-59
-59
-46
-37
-30
-13
-15
-23
-35
-43
-58
-52
-44
-35
-32
-13
-14
-20
-32
-41
-57
-68
-53
-31
-18
-2
-3
-5
-29
-34
-45
-42
-28
-19
-16
-1
-2
-15
-33
-42
-56
-48
-37
-22
-17
4
0
-16
-35
-52
-64
-56
-49
-38
-24
-9
-6
-20
-42
-56
-64
-60
-43
-30
-15
-12
-15
-27
-45
-60
-62
-58
-38
-25
-10
-1
-8
-27
-41
-56
-62
-55
-47
-37
-31
-32
-49
-67
-70
-82
-66
-51
-13
13
58
91
104
114
134
138
153
168
184
193
197
168
139
99
61
14
-13
-27
-28
-27
-6
-9
-15
-33
-36
-56
-57
-50
-43
-24
-6
-18
-30
-44
-51
-67
-65
-60
-50
-40
-17
-16
-29
-47
-49
-68
-58
-48
-38
-34
-13
-14
-25
-39
-43
-64
-68
-53
-38
-48
-20
-17
-26
-40
-50
-65
-65
-55
-35
-22
-9
-11
-21
-35
-50
-65
-58
-46
-33
-25
-16
-19
-35
-38
-39
-47
-48
-44
-33
-12
-5
-17
-25
-45
-54
-57
-55
-36
-22
-15
2
-5
-13
-23
-37
-44
-43
-24
-12
-5
5
1
-15
-18
-20
-24
-27
-22
-10
1
11
9
-7
-17
-33
-33
-23
-11
-1
15
17
6
-16
-30
-38
-44
-34
-16
-13
-4
6
3
-18
-30
-45
-49
-40
-26
-19
-6
-6
-9
-25
-36
-62
-60
-47
-35
-32
-13
-9
-15
-36
-47
-55
-53
-57
-44
-27
-9
-17
-14
-36
-51
-71
-61
-54
-37
-36
-21
-26
-30
-38
-42
-63
-55
-43
-33
-27
-9
-13
-25
-46
-49
-70
-65
-50
-38
-29
-5
-4
-21
-35
-41
-63
-63
-56
-45
-40
-18
-18
-26
-41
-42
-57
-57
-41
-33
-24
-10
-6
-27
-50
-57
-66
-65
-56
-36
-23
-18
-14
-19
-39
-43
-56
-55
-42
-28
-20
-9
-16
-22
-34
-43
-59
-61
-52
-39
-23
-11
-18
-30
-45
-54
-57
-53
-33
-24
-17
-13
-21
-31
-45
-54
-61
-56
-37
-31
-20
-13
-18
-31
-43
-62
-64
-55
-43
-30
-18
-10
-5
-22
-36
-52
-56
-45
-34
-24
-2
4
-3
-22
-32
-50
-49
-42
-31
-25
-7
-10
-14
-40
-50
-64
-52
-43
-26
-20
-9
-15
-27
-47
-55
-67
-55
-50
-39
-33
-7
-11
-23
-37
-45
-64
-60
-56
-44
-33
-12
-18
-24
-40
-47
-58
-58
-52
-46
-51
-36
-44
-55
-68
-60
-68
-59
-39
-4
37
81
100
116
134
159
163
185
204
226
214
218
189
158
105
61
17
-8
-17
-25
-15
4
-3
-20
-38
-55
-67
-57
-42
-37
-31
-14
-17
-35
-50
-63
-76
-65
-50
-39
-34
-27
-24
-29
-38
-54
-64
-60
-44
-33
-29
-21
-30
-45
-61
-61
-72
-59
-42
-34
-24
-20
-21
-35
-46
-63
-67
-63
-46
-36
-22
-15
-20
-38
-56
-61
-61
-57
-45
-37
-22
-25
-26
-41
-53
-65
-58
-41
-30
-19
-8
-10
-14
-28
-42
-63
-64
-55
-40
-24
-17
-15
-12
-22
-37
-53
-47
-44
-25
-18
0
1
0
-13
-25
-34
-39
-31
-15
-4
18
12
0
-14
-25
-51
-46
-37
-17
-14
10
8
-4
-14
-18
-30
-30
-25
-15
-8
8
-10
-25
-37
-44
-65
-52
-37
-23
-20
-7
-7
-16
-34
-44
-70
-71
-58
-36
-32
-9
-6
-20
-37
-45
-61
-68
-58
-40
-31
-14
-20
-31
-41
-53
-56
-54
-41
-24
-20
-17
-18
-33
-49
-58
-69
-63
-44
-29
-20
-16
-22
-36
-43
-55
-73
-58
-49
-33
-18
-16
-27
-32
-42
-55
-66
-65
-46
-35
-22
-17
-16
-30
-44
-63
-69
-62
-43
-32
-10
-10
-17
-34
-41
-54
-61
-55
-22
-23
-13
-8
-20
-35
-42
-69
-68
-60
-40
-30
-26
-15
-22
-36
-51
-63
-56
-51
-36
-27
-13
-6
-21
-35
-43
-64
-56
-53
-43
-30
-11
-9
-21
-36
-44
-62
-64
-54
-40
-35
-9
-15
-18
-38
-40
-60
-58
-44
-31
-33
-9
-12
-15
-28
-37
-54
-48
-37
-24
-12
1
-6
-8
-25
-31
-46
-46
-48
-34
-37
-25
-18
-31
-47
-53
-64
-61
-50
-32
-23
-16
-14
-23
-36
-44
-60
-57
-52
-29
-18
-13
-18
-30
-39
-56
-71
-61
-51
-39
-29
-20
-25
-32
-50
-54
-67
-71
-70
-66
-63
-53
-45
-39
-45
-40
-24
10
49
94
137
177
205
214
217
210
210
211
205
191
168
143
101
45
9
-28
-39
-39
-27
-9
-3
-8
-18
-38
-43
-62
-65
-66
-54
-40
-21
-15
-32
-43
-49
-64
-64
-62
-45
-40
-21
-25
-33
-43
-50
-65
-58
-54
-48
-41
-17
-23
-33
-41
-49
-70
-59
-54
-35
-28
-16
-26
-28
-38
-51
-70
-58
-59
-44
-40
-12
-19
-27
-42
-47
-63
-69
-43
-31
-34
-9
-20
-33
-48
-49
-67
-61
-50
-22
-27
-13
-15
-23
-36
-42
-57
-49
-40
-22
-15
0
-1
-12
-18
-36
-52
-39
-29
-12
0
8
0
-7
-24
-35
-46
-40
-29
-16
-4
12
7
-11
-24
-22
-42
-37
-31
-12
-1
8
7
-3
-19
-33
-43
-39
-24
-19
-14
1
-5
-21
-30
-41
-49
-49
-30
-25
-16
-10
-18
-32
-40
-52
-58
-57
-43
-30
-10
-9
-16
-31
-42
-56
-62
-52
-32
-25
-12
-18
-20
-34
-45
-60
-62
-58
-35
-25
-11
-16
-24
-35
-33
-56
-49
-44
-43
-41
-30
-34
-37
-41
-36
-51
-51
-48
-28
-29
-24
-23
-23
-41
-45
-56
-48
-50
-36
-30
-5
-5
-14
-38
-54
-77
-64
-56
-40
-25
-14
-19
-35
-45
-48
-66
-55
-44
-40
-31
-12
-19
-24
-38
-38
-53
-52
-44
-30
-23
-16
-17
-25
-40
-45
-56
-49
-41
-36
-31
-6
-15
-24
-39
-54
-62
-59
-51
-38
-30
-8
-11
-22
-48
-56
-52
-47
-41
-35
-14
-2
-6
-14
-23
-39
-56
-51
-36
-28
-15
-11
-14
-25
-31
-33
-47
-52
-37
-18
-12
-5
-16
-23
-37
-57
-63
-53
-46
-31
-20
-12
-15
-29
-36
-49
-50
-50
-36
-28
-9
-4
-18
-29
-41
-71
-57
-53
-40
-32
-16
-18
-23
-38
-53
-63
-59
-53
-37
-28
-17
-26
-34
-54
-66
-89
-88
-82
-62
-45
-17
-3
13
24
39
46
81
133
169
188
225
224
229
202
173
135
106
77
61
28
14
0
-18
-31
-43
-60
-57
-44
-34
-30
-15
-14
-27
-39
-42
-60
-61
-52
-41
-36
-17
-13
-26
-42
-48
-61
-66
-50
-36
-33
-13
-17
-31
-47
-55
-64
-61
-45
-33
-32
-19
-16
-28
-43
-52
-60
-56
-45
-33
-26
-9
-19
-32
-49
-56
-60
-53
-41
-33
-20
-14
-19
-30
-31
-43
-47
-40
-32
-18
-8
-2
-16
-27
-37
-46
-54
-55
-39
-30
-19
-18
-31
-27
-35
-43
-44
-34
-13
-7
14
18
13
-7
-18
-35
-34
-35
-20
-5
10
9
1
-11
-17
-31
-33
-25
-13
2
17
23
17
-3
-12
-26
-21
-27
-18
1
12
9
1
-15
-29
-39
-38
-27
-18
-14
8
1
-9
-24
-41
-63
-50
-43
-25
-17
2
-2
-16
-32
-43
-66
-60
-50
-33
-32
-5
-7
-11
-31
-37
-61
-58
-39
-26
-22
-18
-14
-26
-36
-51
-67
-64
-53
-39
-31
-9
-7
-24
-39
-39
-55
-57
-49
-29
-31
-13
-13
-27
-34
-40
-56
-51
-43
-37
-29
-10
-9
-26
-43
-61
-68
-58
-41
-24
-19
-1
-9
-32
-40
-49
-49
-51
-45
-28
-21
-11
-9
-23
-34
-48
-60
-52
-41
-35
-20
-8
-9
-24
-37
-51
-54
-50
-31
-25
-12
-8
-6
-19
-35
-51
-53
-49
-40
-27
-14
-14
-15
-30
-39
-63
-61
-53
-40
-25
-8
-4
-10
-29
-45
-57
-57
-52
-31
-24
-7
-7
-8
-23
-27
-45
-42
-38
-26
-15
-2
-9
-18
-31
-32
-48
-41
-34
-16
-10
5
-2
-6
-28
-38
-60
-57
-55
-40
-30
-10
-12
-21
-41
-47
-63
-59
-47
-30
-21
-6
-10
-23
-45
-46
-55
-52
-44
-34
-28
-7
-16
-20
-41
-51
-68
-58
-49
-44
-49
-37
-44
-49
-50
-43
-49
-39
-8
40
77
113
137
156
167
179
169
177
187
192
181
171
143
99
47
2
-37
-43
-33
-26
-26
-8
-7
-30
-32
-46
-61
-52
-38
-36
-22
-18
-17
-30
-39
-64
-63
-61
-48
-31
-23
-21
-22
-39
-49
-58
-63
-54
-35
-18
-6
-12
-18
-40
-50
-65
-62
-58
-44
-32
-8
-11
-19
-32
-38
-61
-58
-58
-47
-33
-3
-7
-14
-30
-38
-57
-57
-57
-31
-30
-18
-16
-20
-33
-43
-61
-50
-38
-17
-18
-3
-5
-15
-26
-30
-48
-41
-35
-26
-15
1
-2
-13
-28
-29
-52
-40
-32
-20
-12
16
17
8
-7
-17
-35
-33
-26
-15
-4
12
10
14
4
-12
-33
-32
-27
-8
-1
12
10
4
-9
-17
-31
-34
-27
-10
2
21
19
2
-11
-25
-46
-44
-35
-20
-10
-7
-12
-19
-30
-46
-50
-41
-41
-36
-24
-11
-18
-31
-38
-49
-62
-57
-48
-34
-16
-9
-14
-23
-27
-48
-58
-54
-34
-24
-15
2
-3
-22
-28
-43
-50
-52
-39
-28
-16
-17
-10
-26
-39
-52
-47
-40
-36
-43
-28
-23
-22
-36
-39
-57
-54
-45
-32
-22
-7
-9
-12
-32
-44
-58
-52
-53
-39
-22
-3
1
-13
-18
-31
-55
-51
-42
-29
-23
-1
-14
-22
-31
-36
-53
-44
-38
-31
-28
-12
-7
-18
-33
-38
-56
-56
-48
-30
-24
-3
-9
-17
-25
-32
-61
-56
-45
-31
-25
-5
-9
-16
-26
-37
-48
-41
-28
-10
-12
7
7
-17
-32
-39
-64
-55
-35
-22
-9
11
7
-8
-21
-30
-42
-41
-39
-26
-15
5
-1
-16
-26
-42
-51
-50
-35
-20
-14
-5
-9
-19
-29
-42
-53
-45
-29
-15
-7
-1
-10
-19
-33
-47
-61
-59
-39
-29
-11
-9
-15
-29
-34
-41
-57
-52
-37
-31
-12
-8
-22
-35
-57
-75
-86
-84
-60
-30
-1
15
23
33
57
69
90
124
176
200
238
249
253
236
214
165
137
109
84
52
42
21
4
-12
-23
-42
-33
-26
-20
-16
-4
-22
-21
-39
-42
-55
-54
-52
-39
-31
-12
-12
-12
-29
-39
-57
-56
-48
-36
-27
-11
-12
-21
-36
-39
-54
-51
-44
-29
-21
-15
-16
-30
-45
-46
-60
-51
-42
-24
-14
0
-13
-35
-44
-48
-60
-52
-44
-27
-18
2
-2
-15
-28
-38
-53
-55
-38
-18
-14
-7
-2
-19
-31
-40
-52
-50
-35
-23
-7
4
1
-8
-25
-34
-43
-37
-28
-13
-5
9
15
4
-13
-19
-32
-30
-17
-5
9
13
5
-4
-8
-21
-26
-21
-8
10
25
31
19
2
-12
-26
-29
-34
-20
-4
8
13
9
-5
-7
-31
-39
-36
-24
-15
-2
6
0
-15
-21
-40
-34
-31
-21
-18
2
-2
-12
-31
-42
-55
-47
-42
-31
-23
4
-12
-19
-21
-30
-51
-51
-47
-33
-23
-13
-10
-14
-33
-40
-55
-50
-39
-28
-22
0
-3
-14
-27
-31
-43
-48
-45
-33
-26
2
-4
-19
-27
-33
-54
-48
-38
-28
-24
-9
-10
-25
-36
-38
-53
-49
-34
-28
-14
3
-15
-24
-33
-39
-59
-52
-38
-26
-17
-3
-9
-17
-37
-46
-56
-47
-35
-19
-4
-6
-19
-28
-34
-38
-44
-39
-25
-11
-7
2
-13
-26
-41
-50
-61
-47
-30
-18
-1
4
3
-17
-41
-48
-58
-53
-42
-25
-9
-2
-7
-19
-30
-38
-37
-31
-28
-25
-3
2
2
-15
-22
-38
-38
-33
-22
-12
3
4
-2
-14
-29
-48
-54
-49
-44
-21
-2
-2
-11
-25
-29
-45
-46
-56
-37
-27
-18
-17
-24
-34
-40
-59
-55
-51
-22
-22
-2
-8
-21
-29
-33
-54
-52
-53
-39
-25
-14
-19
-32
-53
-59
-86
-72
-50
-38
-21
12
23
41
55
75
83
126
161
203
230
254
249
237
199
153
109
85
60
33
11
8
0
-10
-18
-19
-36
-34
-43
-33
-23
-13
-15
-33
-40
-47
-62
-56
-47
-31
-17
-6
-12
-22
-37
-51
-64
-59
-52
-33
-23
-15
-14
-26
-39
-50
-50
-50
-49
-30
-28
-16
-17
-27
-36
-44
-54
-47
-47
-35
-17
-9
-14
-32
-38
-53
-56
-52
-41
-28
-28
-10
-13
-21
-32
-45
-47
-44
-29
-19
-15
-17
-13
-25
-37
-47
-43
-34
-22
-14
1
8
-2
-22
-29
-48
-41
-40
-34
-24
0
9
6
-5
-16
-30
-22
-21
-10
-8
10
6
-1
-7
-13
-29
-25
-19
-3
8
33
23
14
5
-16
-34
-25
-20
-8
-5
12
4
-4
-21
-24
-35
-30
-26
-5
-8
3
3
-7
-25
-37
