-69
-74
-82
-103
-114
-124
-116
-107
-89
-67
-68
-73
-82
-100
-121
-126
-111
-104
-89
-81
-68
-79
-84
-97
-122
-122
-119
-106
-89
-77
-69
-79
-92
-107
-122
-121
-119
-106
-83
-69
-83
-84
-92
-108
-126
-125
-116
-112
-89
-82
-75
-78
-86
-116
-136
-125
-117
-106
-92
-83
-86
-87
-92
-118
-132
-129
-125
-111
-91
-77
-82
-85
-100
-123
-133
-130
-122
-105
-88
-84
-84
-89
-99
-121
-136
-136
-124
-106
-89
-81
-82
-94
-110
-122
-134
-132
-124
-100
-88
-82
-84
-93
-104
-125
-134
-128
-119
-111
-83
-82
-91
-97
-112
-128
-137
-138
-126
-106
-89
-81
-84
-88
-114
-128
-134
-137
-120
-108
-85
-80
-86
-96
-115
-128
-133
-133
-122
-114
-92
-83
-86
-97
-109
-128
-136
-135
-127
-107
-88
-81
-94
-105
-109
-130
-142
-133
-116
-96
-98
-88
-90
-95
-112
-136
-144
-120
-121
-104
-87
-90
-91
-97
-118
-136
-136
-127
-124
-95
-89
-86
-96
-100
-120
-130
-129
-127
-119
-99
-80
-74
-86
-101
-119
-127
-121
-113
-104
-88
-77
-79
-73
-91
-115
-117
-124
-116
-107
-90
-84
-73
-71
-86
-112
-127
-127
-122
-112
-104
-96
-83
-93
-108
-134
-141
-137
-115
-117
-101
-88
-92
-98
-115
-135
-148
-136
-129
-125
-100
-90
-90
-105
-122
-142
-137
-138
-131
-118
-104
-93
-95
-102
-112
-134
-147
-144
-133
-118
-108
-100
-88
-95
-120
-135
-142
-131
-113
-87
-61
-40
-30
-31
-35
-28
-32
-33
-36
-34
-38
-50
-73
-92
-129
-161
-181
-185
-167
-152
-137
-133
-143
-147
-147
-164
-165
-158
-153
-121
-98
-93
-105
-114
-133
-138
-146
-135
-132
-108
-99
-97
-94
-107
-125
-143
-148
-137
-134
-108
-94
-97
-93
-102
-123
-141
-141
-136
-127
-103
-96
-95
-99
-106
-134
-147
-141
-136
-124
-99
-93
-90
-92
-103
-127
-145
-145
-130
-121
-100
-87
-88
-95
-113
-126
-133
-139
-129
-117
-92
-77
-79
-92
-99
-118
-139
-122
-118
-107
-77
-72
-72
-79
-89
-110
-124
-127
-109
-86
-69
-56
-60
-71
-88
-96
-99
-93
-95
-79
-52
-46
-60
-65
-65
-88
-100
-99
-79
-67
-53
-46
-48
-53
-68
-89
-92
-87
-84
-72
-53
-49
-56
-59
-81
-105
-112
-107
-101
-89
-77
-70
-76
-89
-109
-124
-133
-131
-123
-110
-95
-94
-99
-107
-124
-146
-154
-151
-135
-117
-104
-100
-101
-118
-143
-150
-140
-146
-138
-119
-110
-111
-120
-118
-132
-158
-161
-151
-143
-120
-106
-104
-107
-126
-144
-160
-156
-153
-139
-119
-111
-117
-113
-122
-151
-159
-160
-157
-141
-118
-111
-111
-121
-130
-142
-156
-170
-162
-136
-120
-109
-109
-125
-132
-155
-170
-168
-159
-149
-122
-114
-116
-127
-139
-163
-162
-172
-163
-152
-130
-113
-116
-129
-144
-164
-173
-171
-157
-145
-124
-118
-123
-127
-146
-163
-174
-172
-164
-149
-129
-119
-133
-149
-138
-152
-170
-170
-159
-147
-127
-119
-131
-137
-155
-166
-171
-174
-166
-151
-136
-128
-127
-142
-156
-168
-173
-171
-166
-148
-125
-126
-138
-143
-163
-177
-182
-168
-165
-151
-131
-122
-131
-141
-157
-175
-174
-173
-173
-140
-134
-136
-134
-141
-162
-179
-166
-168
-167
-148
-132
-125
-133
-138
-161
-185
-184
-177
-170
-142
-135
-133
-129
-149
-168
-183
-175
-172
-164
-148
-131
-132
-135
-146
-165
-179
-184
-167
-165
-147
-127
-131
-144
-149
-163
-180
-176
-175
-164
-144
-126
-126
-140
-154
-170
-174
-177
-173
-166
-141
-128
-127
-139
-155
-173
-181
-182
-175
-159
-136
-124
-136
-141
-150
-174
-174
-175
-165
-145
-134
-131
-129
-130
-138
-162
-172
-175
-159
-133
-119
-112
-120
-135
-147
-163
-176
-169
-152
-140
-121
-110
-127
-128
-141
-163
-177
-171
-168
-152
-125
-124
-128
-143
-159
-176
-184
-185
-176
-157
-134
-131
-136
-145
-161
-177
-186
-187
-171
-155
-135
-129
-136
-141
-167
-184
-188
-180
-170
-147
-135
-134
-143
-157
-164
-175
-186
-177
-169
-152
-133
-135
-143
-147
-168
-180
-180
-157
-140
-116
-99
-74
-75
-60
-60
-71
-72
-80
-84
-80
-78
-96
-121
-147
-179
-206
-217
-221
-216
-185
-172
-168
-175
-183
-203
-206
-202
-190
-172
-148
-134
-133
-143
-150
-170
-181
-185
-170
-164
-142
-127
-131
-149
-162
-169
-179
-174
-166
-159
-141
-119
-129
-137
-153
-169
-178
-170
-166
-162
-142
-129
-122
-137
-148
-170
-182
-177
-161
-154
-129
-123
-130
-141
-154
-166
-174
-168
-154
-151
-132
-121
-126
-128
-144
-161
-170
-168
-155
-139
-114
-113
-124
-131
-138
-148
-160
-159
-138
-134
-111
-103
-107
-116
-132
-148
-153
-144
-131
-104
-92
-92
-96
-94
-113
-133
-136
-130
-110
-95
-72
-76
-69
-80
-97
-116
-127
-123
-109
-85
-70
-60
-71
-86
-105
-119
-122
-112
-115
-84
-72
-69
-78
-90
-123
-127
-129
-130
-125
-104
-95
-101
-108
-114
-134
-158
-164
-144
-138
-128
-115
-118
-126
-132
-158
-170
-172
-163
-150
-127
-123
-125
-138
-139
-168
-178
-170
-160
-159
-143
-131
-124
-139
-152
-163
-162
-178
-172
-158
-131
-122
-126
-138
-153
-171
-178
-180
-161
-152
-130
-122
-134
-138
-151
-170
-183
-175
-160
-152
-138
-123
-127
-136
-149
-170
-183
-177
-162
-153
-133
-127
-129
-139
-164
-172
-179
-167
-167
-153
-133
-123
-131
-138
-153
-178
-180
-173
-168
-155
-139
-127
-131
-144
-173
-178
-185
-177
-160
-152
-147
-135
-128
-142
-165
-185
-188
-172
-171
-152
-136
-130
-141
-151
-170
-184
-190
-173
-170
-150
-140
-135
-140
-146
-168
-182
-180
-187
-172
-146
-134
-132
-142
-155
-172
-187
-192
-187
-172
-147
-135
-138
-146
-145
-169
-194
-197
-183
-168
-148
-138
-139
-146
-155
-177
-188
-184
-185
-171
-156
-125
-138
-148
-151
-175
-191
-189
-179
-166
-146
-135
-136
-150
-155
-171
-196
-190
-171
-168
-146
-129
-135
-151
-160
-180
-188
-185
-176
-168
-149
-130
-139
-145
-163
-177
-184
-183
-179
-166
-149
-136
-138
-142
-152
-175
-190
-184
-178
-146
-144
-126
-137
-150
-155
-176
-183
-182
-173
-157
-138
-130
-137
-155
-166
-180
-175
-176
-165
-145
-131
-123
-120
-139
-151
-163
-170
-162
-159
-142
-126
-118
-136
-133
-147
-169
-171
-164
-156
-133
-123
-119
-130
-137
-158
-176
-186
-182
-166
-145
-135
-131
-147
-148
-171
-181
-185
-177
-168
-147
-140
-138
-141
-150
-172
-182
-186
-178
-170
-145
-135
-134
-147
-146
-164
-181
-187
-178
-173
-152
-137
-131
-139
-157
-170
-190
-187
-172
-173
-150
-135
-131
-145
-144
-155
-165
-150
-136
-113
-85
-51
-41
-43
-25
-59
-89
-93
-111
-125
-108
-121
-134
-164
-181
-214
-228
-229
-204
-198
-175
-162
-161
-167
-164
-180
-186
-180
-174
-157
-133
-126
-128
-139
-155
-185
-177
-172
-159
-150
-132
-122
-121
-138
-153
-167
-179
-172
-159
-146
-135
-127
-122
-131
-154
-172
-175
-169
-153
-142
-130
-121
-124
-130
-139
-168
-176
-160
-153
-145
-112
-102
-121
-131
-151
-158
-178
-172
-137
-128
-114
-115
-126
-130
-144
-160
-155
-150
-149
-130
-108
-109
-102
-108
-136
-152
-154
-150
-127
-104
-79
-101
-94
-83
-129
-142
-145
-142
-105
-98
-84
-52
-69
-83
-93
-124
-130
-116
-96
-73
-71
-50
-50
-68
-95
-95
-110
-98
-74
-64
-53
-61
-50
-65
-99
-96
-109
-111
-93
-74
-71
-55
-73
-103
-133
-107
-132
-134
-112
-100
-92
-106
-112
-119
-135
-134
-150
-141
-152
-112
-96
-89
-112
-124
-149
-162
-176
-162
-141
-111
-120
-114
-128
-145
-154
-156
-154
-151
-132
-129
-101
-126
-124
-136
-168
-167
-174
-152
-138
-123
-108
-116
-136
-140
-158
-159
-150
-137
-135
-129
-117
-108
-120
-139
-154
-160
-156
-158
-135
-116
-106
-112
-131
-145
-150
-168
-165
-157
-139
-122
-102
-110
-113
-147
-161
-171
-169
-154
-131
-127
-122
-125
-134
-159
-167
-160
-157
-157
-131
-126
-120
-109
-126
-148
-168
-164
-156
-149
-134
-116
-109
-123
-128
-150
-159
-166
-162
-156
-142
-113
-92
-113
-137
-160
-176
-179
-165
-158
-127
-129
-130
-125
-129
-152
-175
-175
-163
-151
-132
-106
-118
-115
-133
-177
-159
-165
-165
-151
-124
-120
-120
-129
-137
-163
-174
-178
-167
-142
-123
-109
-113
-121
-143
-158
-165
-176
-165
-151
-127
-111
-118
-135
-132
-160
-166
-159
-156
-146
-125
-117
-117
-127
-139
-162
-155
-158
-145
-123
-105
-104
-107
-107
-131
-147
-154
-142
-143
-124
-99
-95
-97
-109
-128
-142
-156
-154
-144
-131
-117
-101
-125
-144
-133
-156
-172
-161
-152
-137
-121
-115
-123
-125
-145
-161
-173
-164
-156
-150
-119
-114
-117
-116
-155
-162
-165
-161
-151
-135
-115
-107
-122
-130
-150
-164
-172
-164
-146
-126
-114
-103
-121
-139
-153
-168
-161
-160
-154
-131
-108
-102
-95
-82
-98
-113
-98
-59
-33
-1
16
9
-23
-56
-90
-118
-131
-148
-164
-146
-150
-152
-159
-160
-190
-201
-199
-184
-174
-136
-129
-118
-130
-131
-149
-161
-160
-149
-136
-119
-108
-98
-113
-126
-141
-160
-152
-157
-135
-114
-112
-102
-107
-120
-146
-163
-149
-145
-130
-108
-98
-94
-108
-117
-137
-149
-151
-128
-119
-97
-94
-100
-111
-119
-139
-146
-147
-140
-118
-105
-103
-95
-84
-111
-123
-143
-134
-121
-121
-100
-94
-94
-89
-110
-140
-132
-121
-111
-93
-82
-73
-79
-82
-109
-115
-116
-110
-101
-82
-69
-65
-62
-83
-85
-108
-104
-103
-85
-77
-54
-27
-47
-59
-68
-87
-88
-82
-74
-46
-32
-19
-35
-42
-59
-74
-80
-66
-67
-42
-31
-32
-45
-52
-71
-87
-98
-90
-74
-54
-48
-57
-65
-70
-101
-118
-119
-109
-105
-85
-76
-76
-92
-98
-127
-123
-139
-142
-117
-101
-75
-79
-83
-109
-123
-135
-139
-129
-114
-102
-97
-92
-104
-125
-131
-143
-137
-120
-118
-100
-89
-96
-95
-109
-126
-138
-139
-130
-120
-94
-95
-95
-102
-120
-127
-145
-135
-130
-120
-102
-86
-88
-101
-110
-136
-140
-131
-127
-114
-85
-79
-94
-110
-125
-123
-130
-136
-130
-118
-101
-84
-85
-98
-122
-142
-139
-143
-136
-108
-102
-93
-109
-109
-118
-144
-144
-136
-129
-114
-100
-87
-96
-110
-128
-139
-146
-145
-124
-117
-91
-87
-105
-105
-121
-144
-141
-146
-130
-113
-88
-93
-110
-120
-133
-147
-148
-143
-135
-108
-99
-84
-113
-118
-128
-150
-152
-126
-133
-100
-102
-95
-89
-106
-126
-139
-138
-129
-116
-95
-95
-89
-92
-95
-117
-141
-137
-128
-119
-93
-89
-90
-99
-112
-138
-144
-149
-146
-133
-114
-108
-103
-109
-129
-142
-159
-160
-142
-126
-115
-106
-113
-118
-131
-153
-154
-151
-153
-135
-123
-113
-107
-121
-127
-163
-163
-160
-160
-124
-125
-109
-119
-137
-135
-155
-168
-166
-150
-136
-109
-112
-122
-138
-150
-158
-174
-177
-163
-134
-113
-90
-85
-82
-103
-96
-76
-57
-33
-9
-1
-11
-30
-72
-101
-130
-159
-189
-192
-168
-182
-169
-155
-185
-198
-204
-206
-202
-192
-162
-148
-131
-131
-135
-153
-183
-180
-161
-153
-128
-135
-135
-131
-144
-147
-166
-169
-155
-154
-143
-125
-124
-128
-133
-145
-179
-171
-173
-172
-133
-114
-127
-135
-134
-164
-169
-169
-166
-171
-135
-121
-119
-134
-140
-158
-183
-175
-162
-158
-127
-121
-122
-134
-144
-162
-168
-165
-163
-148
-136
-127
-126
-140
-140
-159
-176
-162
-157
-146
-119
-102
-103
-119
-129
-158
-156
-152
-140
-134
-111
-89
-101
-107
-130
-140
-142
-137
-124
-120
-92
-79
-87
-101
-106
-119
-131
-126
-120
-101
-79
-72
-74
-93
-105
-125
-126
-116
-120
-111
-86
-75
-89
-110
-124
-152
-141
-140
-137
-119
-109
-104
-116
-130
-154
-166
-188
-163
-155
-153
-143
-130
-141
-154
-169
-187
-204
-190
-187
-163
-153
-141
-159
-173
-190
-208
-204
-199
-198
-156
-151
-152
-164
-171
-197
-195
-214
-197
-197
-176
-160
-158
-161
-177
-194
-205
-217
-203
-186
-173
-164
-158
-165
-174
-203
-217
-208
-206
-194
-179
-162
-163
-171
-179
-200
-211
-215
-200
-204
-176
-161
-169
-172
-201
-209
-213
-221
-216
-199
-175
-170
-171
-181
-190
-213
-220
-214
-213
-199
-186
-172
-156
-179
-188
-213
-219
-232
-213
-199
-178
-178
-170
-172
-184
-209
-218
-213
-208
-190
-169
-163
-172
-183
-188
-210
-219
-211
-203
-194
-169
-146
-161
-162
-186
-200
-202
-194
-190
-179
-163
-156
-156
-162
-179
-207
-211
-212
-198
-190
-163
-170
-174
-178
-219
-220
-208
-203
-206
-201
-177
-168
-186
-186
-185
-220
-230
-217
-212
-192
-184
-166
-165
-186
-203
-211
-218
-210
-204
-189
-173
-166
-177
-186
-199
-217
-220
-217
-212
-155
-152
-164
-160
-183
-204
-212
-215
-214
-216
-193
-176
-171
-160
-159
-182
-183
-172
-147
-137
-86
-61
-32
-49
-64
-94
-123
-151
-152
-164
-167
-180
-177
-195
-214
-239
-249
-251
-232
-220
-190
-186
-187
-190
-187
-206
-203
-200
-187
-185
-150
-139
-148
-177
-172
-184
-195
-181
-184
-174
-148
-132
-141
-168
-168
-189
-184
-181
-174
-152
-143
-133
-134
-140
-151
-181
-181
-166
-170
-152
-111
-116
-116
-133
-145
-165
-171
-164
-142
-136
-107
-103
-105
-125
-128
-154
-166
-145
-136
-120
-102
-101
-103
-93
-109
-133
-133
-140
-118
-102
-94
-86
-76
-89
-104
-110
-114
-112
-104
-76
-60
-53
-60
-67
-80
-105
-94
-83
-77
-62
-51
-23
-26
-53
-62
-65
-63
-63
-53
-33
-17
-7
-3
-11
-40
-54
-65
-58
-46
-32
-8
-1
-6
-15
-39
-72
-61
-56
-39
-30
-16
-24
-26
-33
-53
-77
-86
-73
-55
-55
-28
-35
-50
-55
-74
-91
-88
-81
-71
-46
-43
-44
-55
-58
-78
-84
-78
-77
-67
-39
-54
-45
-39
-47
-79
-83
-80
-70
-61
-43
-32
-40
-34
-44
-66
-71
-60
-56
-52
-36
-18
-22
-20
-41
-71
-73
-67
-52
-37
-22
-12
-20
-21
-45
-65
-63
-57
-49
-38
3
-7
-16
-35
-42
-46
-39
-49
-43
-20
-8
-5
1
-13
-29
-50
-46
-41
-43
-16
1
15
1
-7
-19
-35
-40
-33
-29
-8
5
13
2
1
-11
-23
-35
-36
-8
21
29
23
15
21
-1
-28
-25
-7
1
10
14
29
12
-2
-17
-24
-31
-31
-15
1
18
18
9
5
-24
-52
-36
-9
6
16
20
20
7
4
-21
-33
-36
-28
-1
10
22
20
16
2
-11
-18
-13
-21
7
22
27
27
17
10
-9
-22
-31
-14
13
26
30
28
12
14
-13
-28
-26
-8
12
8
26
42
39
41
35
24
76
98
122
149
184
168
142
119
70
46
49
25
11
24
13
10
-14
-31
-33
-38
-32
-28
-2
14
30
29
20
8
-2
-4
-1
6
25
40
54
53
43
16
16
3
12
32
40
49
54
49
43
26
19
2
14
33
46
64
59
53
35
34
19
18
17
29
53
58
68
58
60
33
18
15
14
44
54
67
67
62
52
30
25
32
36
42
69
84
78
71
61
52
45
35
40
45
77
92
93
67
75
58
50
60
67
78
97
95
94
102
97
78
68
69
79
86
118
129
123
120
106
91
70
100
103
109
130
142
141
129
119
96
92
91
90
111
126
134
125
128
103
82
83
85
81
93
109
106
121
97
86
62
54
50
59
72
93
94
85
79
65
42
54
41
39
61
91
99
81
71
57
35
36
48
38
61
69
94
87
78
55
44
36
34
51
73
89
80
68
65
53
45
36
46
53
65
64
97
82
73
58
43
39
42
53
69
77
87
74
89
54
46
38
38
54
71
79
86
71
79
50
38
34
36
60
70
93
90
89
67
45
39
43
52
60
78
88
82
82
75
65
39
50
49
68
90
98
98
91
85
61
54
54
56
67
91
106
88
88
73
50
42
30
44
63
81
90
82
73
63
49
32
25
36
51
72
75
78
75
57
37
25
34
40
56
73
82
76
62
56
32
13
15
48
63
79
80
85
59
46
36
26
35
45
55
68
78
74
71
49
30
25
22
31
49
70
70
63
62
55
54
66
86
103
130
161
198
204
202
172
137
122
116
95
100
94
74
59
40
13
-11
-21
0
6
29
60
49
52
52
36
26
27
37
51
62
76
88
81
64
48
35
25
48
56
68
82
75
70
87
48
41
30
45
61
82
92
91
77
72
47
42
33
42
63
84
86
89
87
73
56
41
36
47
61
86
93
98
75
73
61
41
48
51
70
98
91
99
80
79
58
42
45
58
68
87
102
101
97
83
51
53
67
82
84
111
125
116
120
103
76
85
81
94
109
130
143
134
137
109
112
111
100
109
133
146
149
155
140
128
109
104
108
125
132
147
149
144
138
119
99
84
93
106
120
129
150
121
128
101
76
70
80
89
119
133
114
113
95
73
51
55
71
69
80
99
102
96
92
75
56
48
58
69
87
89
107
92
95
70
53
51
60
62
84
97
99
87
82
74
56
44
68
65
88
112
113
96
99
78
50
52
64
67
93
101
103
93
82
72
46
55
73
73
97
97
105
92
80
70
55
45
53
73
107
106
100
99
89
62
48
64
62
78
101
126
111
96
85
66
59
60
68
79
101
115
115
107
91
79
66
61
82
97
121
118
118
103
95
72
61
66
83
90
107
109
94
85
78
66
58
56
72
81
93
115
107
95
67
50
46
52
62
79
92
93
90
84
69
52
43
51
56
77
96
106
95
78
68
48
45
51
54
73
91
104
94
75
52
60
39
54
64
84
89
90
82
66
35
39
58
47
53
77
88
119
115
113
112
123
127
162
184
223
226
211
197
176
135
94
80
76
62
66
71
55
42
30
28
1
12
29
49
74
84
91
86
72
49
36
45
56
62
92
89
101
97
71
53
48
50
59
77
90
96
87
83
76
58
38
53
59
66
103
102
98
84
82
59
56
51
62
76
104
90
102
94
74
71
45
47
65
79
106
98
86
84
81
63
55
52
64
83
95
93
97
90
70
49
46
76
75
90
111
125
110
101
88
78
71
75
85
105
123
128
127
115
103
83
90
92
110
133
145
148
137
127
109
103
96
112
124
138
150
155
142
142
125
102
101
108
112
132
146
148
139
126
100
83
76
89
99
119
124
121
113
100
72
65
61
65
82
93
99
100
83
74
60
41
54
55
61
84
100
89
79
58
60
38
50
55
62
86
93
93
76
72
41
40
36
64
69
78
105
84
79
81
53
41
46
39
62
87
93
78
80
77
54
42
51
55
70
89
95
87
76
69
52
31
49
58
54
76
98
88
77
68
44
28
52
52
70
83
99
89
79
55
45
23
39
51
71
82
84
80
81
61
49
37
45
57
75
85
108
74
80
57
44
32
45
44
70
87
95
88
83
54
41
43
62
55
73
102
118
106
84
67
44
49
59
64
82
86
90
83
72
74
49
43
47
54
63
81
104
84
71
43
31
35
54
52
71
85
87
80
70
59
27
29
40
54
73
82
91
80
65
40
27
33
46
52
70
81
89
77
67
44
25
18
44
57
87
92
79
62
65
36
21
28
29
53
71
78
88
87
102
83
96
107
135
166
206
228
211
191
149
118
99
77
69
62
70
58
48
36
15
-4
-6
5
10
32
64
71
67
61
53
40
31
34
51
62
78
94
80
63
54
40
42
36
40
60
71
92
75
63
56
34
42
46
53
68
79
83
88
80
45
20
40
50
50
75
87
90
78
66
47
43
40
50
56
70
80
90
79
71
57
44
42
50
52
72
95
97
81
70
59
40
38
58
64
86
94
93
85
83
67
59
54
62
58
85
115
109
106
95
78
68
63
71
91
117
119
142
108
104
85
72
71
82
103
129
128
130
119
109
90
78
83
93
99
122
130
127
104
106
63
57
67
75
82
93
97
92
89
65
32
39
45
45
61
79
77
73
61
55
31
15
13
30
51
61
68
65
52
36
15
6
19
34
47
61
70
54
43
24
7
5
18
27
36
53
63
57
39
21
-1
5
8
30
44
47
55
61
54
28
18
6
3
10
39
53
54
46
39
15
4
13
11
17
38
40
51
46
35
16
-1
-3
6
16
37
36
46
41
24
11
-11
-19
10
2
27
48
41
37
23
1
-5
-12
3
11
27
34
26
29
32
-3
-20
-9
-8
9
35
35
39
29
7
-13
-23
-21
-10
3
17
29
26
23
4
-16
-19
-17
-14
1
21
29
25
9
12
-14
-24
-16
-13
-24
7
37
22
23
6
-26
-32
-26
-18
-4
10
15
9
3
10
-16
-27
-21
-25
-2
18
25
13
8
-11
-28
-33
-28
-18
13
21
26
17
23
10
-26
-20
-19
-10
-1
24
37
27
11
-11
-15
-34
-15
-14
-5
6
17
13
2
-26
-36
-44
-27
-21
-10
5
9
1
-9
-28
-41
-47
-36
-22
-7
-2
2
2
-1
-27
-42
-36
-40
-25
-9
-2
5
-1
-15
-40
-49
-48
-30
-40
-15
3
10
-7
-9
-37
-51
-53
-49
-32
-12
9
-8
-12
-22
-17
-29
-22
-11
18
56
71
90
102
104
80
53
32
27
32
19
37
2
-17
-42
-74
-77
-88
-83
-68
-41
-32
-34
-38
-49
-62
-70
-61
-49
-42
-15
2
-3
-5
-13
-45
-55
-46
-48
-25
-12
7
-5
-28
-28
-38
-52
-51
-41
-22
-16
17
3
-25
-37
-44
-47
-43
-35
-20
-8
-3
-9
-19
-46
-55
-50
-33
-38
-26
1
5
-13
0
-33
-48
-54
-63
-40
0
3
17
3
-7
-39
-49
-36
-28
-31
-11
-7
15
6
-1
-26
-34
-30
-22
-15
1
20
19
13
5
-7
-22
-23
-20
10
18
28
51
29
19
6
8
-8
-6
7
29
54
59
46
37
16
-2
-7
8
32
51
56
44
32
38
17
2
-3
7
23
32
35
37
17
7
-14
-26
-31
-22
-11
7
19
21
12
-21
-40
-57
-51
-38
-21
-4
11
7
-12
-25
-40
-53
-56
-45
-33
-16
-5
-10
-19
-28
-41
-59
-55
-43
-32
-18
-9
-8
-29
-30
-57
-59
-54
-46
-31
-31
-8
-4
-30
-37
-51
-58
-60
-46
-24
-12
-8
-16
-27
-44
-62
-60
-51
-45
-40
-15
-3
-8
-28
-31
-56
-69
-54
-49
-23
-11
-17
-24
-20
-37
-62
-66
-65
-51
-17
-15
-18
-18
-23
-44
-63
-69
-56
-54
-31
-17
-8
-17
-32
-48
-68
-77
-56
-38
-32
-18
-9
-27
-33
-51
-67
-67
-59
-57
-25
-17
-17
-24
-34
-60
-62
-74
-63
-49
-32
-21
-22
-23
-36
-49
-84
-85
-54
-53
-31
-21
-19
-29
-38
-64
-69
-67
-61
-61
-47
-38
-6
-19
-36
-53
-70
-67
-56
-55
-26
-15
-24
-29
-45
-62
-73
-67
-62
-48
-25
-8
-13
-31
-45
-57
-84
-80
-67
-44
-24
-17
-26
-30
-49
-73
-66
-70
-62
-47
-26
-30
-32
-32
-40
-66
-88
-71
-59
-43
-25
-17
-28
-44
-51
-71
-86
-75
-74
-42
-2
-3
-30
-33
-54
-77
-77
-71
-60
-45
-27
-27
-35
-39
-58
-63
-77
-80
-73
-27
-19
-20
-32
-37
-62
-76
-70
-66
-66
-39
-25
-18
-32
-49
-61
-72
-75
-69
-61
-34
-22
-21
-31
-42
-64
-69
-72
-67
-63
-40
-14
-20
-28
-39
-58
-76
-84
-74
-61
-27
-22
-22
-24
-36
-42
-55
-60
-55
-42
-27
-6
-5
-22
-33
-60
-62
-71
-61
-32
-16
-10
-43
-27
-57
-41
-63
-64
-61
-52
-41
-11
-26
-31
-42
-67
-80
-73
-62
-49
-34
-22
-31
-37
-52
-65
-73
-84
-77
-58
-42
-37
-33
-34
-50
-71
-76
-75
-61
-55
-31
-29
-31
-48
-54
-76
-87
-71
-66
-63
-32
-28
-34
-50
-61
-76
-74
-69
-53
-24
3
19
13
28
23
29
23
51
41
36
36
38
5
-19
-46
-87
-107
-97
-89
-79
-75
-72
-69
-85
-91
-99
-103
-86
-75
-49
-34
-32
-37
-51
-64
-85
-85
-70
-68
-47
-37
-25
-32
-51
-76
-92
-73
-63
-55
-41
-32
-33
-35
-43
-73
-72
-87
-65
-52
-38
-36
-39
-37
-33
-40
-62
-77
-62
-53
-25
-24
-27
-34
-44
-68
-74
-78
-62
-52
-32
-22
-26
-31
-28
-54
-77
-71
-51
-44
-25
-10
-15
-23
-34
-52
-63
-58
-47
-41
-20
-16
-8
-5
-23
-49
-56
-69
-36
-11
26
20
14
9
-5
-29
-32
-33
-22
-3
17
29
19
7
15
-7
-17
-14
-7
2
27
39
29
29
6
-13
-19
-12
-10
9
22
24
17
8
-17
-32
-32
-30
-7
6
12
16
3
-15
-30
-50
-58
-50
-39
-39
-24
-20
-13
-22
-44
-66
-64
-55
-52
-41
-29
-20
-21
-34
-64
-76
-76
-76
-70
-34
-23
-21
-38
-46
-55
-84
-69
-69
-69
-69
-45
0
-19
-39
-59
-73
-75
-67
-61
-41
-28
-25
-35
-48
-62
-81
-83
-72
-67
-43
-13
-30
-37
-44
-71
-77
-79
-70
-58
-37
-29
-29
-43
-55
-70
-82
-80
-73
-58
-39
-31
-30
-48
-69
-78
-66
-75
-63
-62
-37
-23
-32
-42
-53
-77
-87
-83
-71
-66
-67
-29
-13
-32
-65
-79
-79
-88
-71
-58
-45
-40
-40
-42
-62
-82
-95
-89
-75
-61
-43
-42
-38
-37
-71
-92
-85
-84
-72
-57
-44
-42
-36
-54
-67
-84
-88
-92
-80
-64
-46
-40
-49
-65
-78
-78
-90
-96
-75
-56
-41
-39
-52
-55
-79
-78
-95
-82
-68
-61
-45
-41
-49
-55
-76
-102
-84
-88
-75
-54
-41
-38
-46
-63
-84
-89
-92
-84
-78
-51
-43
-39
-48
-65
-81
-91
-89
-85
-77
-55
-40
-42
-51
-54
-77
-77
-81
-78
-64
-41
-44
-37
-51
-34
-60
-76
-93
-72
-61
-29
-35
-31
-46
-50
-73
-77
-80
-77
-77
-52
-45
-41
-52
-64
-82
-97
-88
-86
-77
-58
-51
-48
-54
-64
-101
-92
-102
-84
-68
-57
-42
-49
-61
-84
-92
-97
-97
-81
-73
-48
-43
-48
-59
-81
-101
-99
-90
-90
-82
-72
-51
-38
-52
-77
-100
-95
-101
-88
-80
-64
-52
-59
-70
-79
-87
-85
-74
-41
-10
15
35
47
53
41
9
-8
-26
-29
-28
-14
-34
-72
-93
-124
-139
-154
-141
-127
-107
-90
-84
-79
-88
-106
-112
-115
-107
-92
-68
-56
-53
-51
-54
-89
-105
-118
-86
-76
-76
-56
-55
-58
-70
-98
-106
-97
-95
-75
-63
-51
-36
-63
-71
-85
-101
-101
-87
-82
-63
-50
-49
-55
-72
-86
-88
-97
-86
-81
-55
-41
-47
-60
-70
-84
-94
-86
-87
-76
-58
-46
-41
-51
-60
-91
-95
-98
-93
-69
-57
-46
-44
-27
-52
-67
-91
-91
-73
-56
-31
-24
-36
-37
-50
-70
-82
-78
-55
-43
-24
-11
-13
-22
-39
-58
-39
-56
-50
-26
-5
8
3
-11
-20
-40
-48
-42
-32
-14
3
5
-2
-13
-26
-43
-56
-52
-35
-27
-15
-10
-23
-37
-47
-67
-72
-79
-70
-50
-28
-41
-41
-57
-73
-78
-93
-86
-88
-70
-56
-49
-64
-76
-86
-100
-122
-108
-85
-75
-60
-53
-67
-78
-95
-108
-114
-107
-99
-65
-56
-61
-69
-73
-99
-107
-111
-109
-97
-74
-63
-58
-77
-73
-92
-112
-111
-107
-93
-72
-59
-58
-82
-83
-104
-121
-117
-107
-97
-61
-52
-60
-72
-78
-107
-119
-110
-105
-92
-74
-65
-62
-76
-79
-109
-112
-118
-107
-79
-76
-61
-81
-80
-70
-101
-119
-115
-102
-92
-75
-66
-71
-83
-96
-113
-128
-120
-101
-95
-80
-60
-72
-78
-95
-117
-124
-125
-114
-96
-78
-72
-77
-85
-101
-122
-137
-134
-108
-90
-77
-77
-67
-87
-106
-118
-128
-121
-116
-98
-88
-81
-79
-92
-113
-129
-120
-121
-125
-95
-84
-77
-83
-92
-113
-131
-142
-116
-107
-101
-90
-82
-95
-89
-102
-133
-129
-125
-122
-101
-82
-73
-87
-103
-123
-115
-131
-123
-110
-94
-86
-83
-87
-97
-118
-131
-138
-134
-110
-97
-85
-83
-96
-110
-114
-132
-136
-121
-118
-100
-77
-80
-92
-103
-125
-129
-137
-131
-113
-95
-83
-84
-95
-111
-121
-132
-136
-119
-115
-93
-79
-85
-87
-96
-118
-124
-129
-129
-107
-97
-67
-53
-80
-97
-105
-119
-130
-115
-104
-82
-71
-78
-86
-105
-116
-134
-133
-128
-111
-102
-96
-86
-102
-110
-133
-142
-141
-125
-116
-91
-94
-96
-107
-133
-136
-139
-133
-132
-117
-97
-85
-98
-110
-121
-123
-150
-145
-137
-116
-100
-88
-100
-92
-116
-152
-148
-141
-135
-113
-100
-97
-102
-108
-134
-151
-141
-136
-139
-117
-99
-85
-73
-76
-85
-94
-93
-56
-24
1
19
13
-1
-35
-70
-105
-109
-123
-138
-143
-125
-120
-154
-154
-172
-178
-184
-166
-159
-134
-114
-109
-117
-118
-153
-135
-151
-138
-127
-111
-93
-103
-100
-110
-132
-143
-145
-143
-127
-104
-89
-88
-95
-116
-147
-159
-155
-134
-122
-100
-91
-99
-101
-110
-132
-144
-142
-137
-124
-96
-93
-90
-96
-116
-134
-133
-142
-132
-115
-105
-89
-93
-94
-108
-136
-152
-141
-120
-110
-99
-89
-82
-89
-123
-134
-132
-131
-122
-105
-87
-82
-79
-87
-95
-124
-131
-121
-118
-99
-83
-52
-61
-76
-91
-108
-116
-100
-95
-71
-55
-50
-51
-61
-67
-96
-100
-97
-71
-50
-40
-46
-45
-38
-69
-85
-87
-86
-70
-54
-40
-29
-50
-64
-70
-94
-102
-91
-93
-71
-61
-66
-69
-74
-107
-119
-125
-114
-108
-105
-76
-80
-94
-91
-123
-137
-143
-134
-136
-108
-94
-96
-98
-118
-134
-157
-153
-135
-133
-110
-105
-101
-111
-116
-132
-147
-163
-142
-135
-115
-98
-96
-104
-130
-143
-153
-145
-148
-135
-112
-102
-116
-116
-137
-129
-150
-153
-145
-134
-105
-101
-104
-114
-132
-150
-152
-151
-147
-134
-114
-97
-112
-114
-126
-139
-159
-160
-150
-136
-109
-97
-115
-123
-128
-148
-156
-154
-147
-131
-113
-107
-108
-116
-135
-157
-157
-162
-149
-129
-109
-105
-112
-126
-138
-154
-154
-160
-156
-138
-126
-96
-114
-137
-134
-154
-174
-148
-147
-123
-113
-106
-115
-131
-143
-156
-163
-159
-162
-135
-115
-109
-125
-127
-142
-160
-159
-163
-161
-127
-114
-108
-125
-141
-147
-168
-170
-164
-150
-133
-122
-117
-126
-129
-151
-166
-167
-160
-154
-130
-114
-118
-120
-124
-147
-169
-173
-164
-145
-122
-123
-127
-119
-131
-148
-166
-169
-156
-146
-132
-121
-109
-129
-138
-163
-167
-159
-159
-147
-119
-116
-120
-131
-146
-156
-161
-166
-157
-157
-131
-115
-116
-125
-133
-161
-173
-169
-161
-141
-126
-115
-122
-128
-137
-157
-170
-168
-156
-144
-128
-113
-118
-127
-140
-158
-166
-166
-154
-147
-120
-108
-119
-125
-149
-164
-166
-172
-162
-144
-127
-109
-121
-129
-143
-161
-173
-165
-166
-142
-127
-113
-112
-118
-146
-148
-166
-158
-151
-133
-120
-109
-114
-126
-138
-144
-153
-145
-134
-115
-103
-104
-113
-118
-134
-156
-165
-155
-146
-116
-102
-102
-115
-127
-139
-156
-165
-155
-155
-125
-116
-110
-124
-127
-150
-170
-178
-163
-159
-134
-121
-119
-127
-141
-138
-163
-174
-161
-159
-135
-119
-114
-118
-134
-161
-176
-170
-156
-152
-141
-122
-120
-130
-143
-150
-170
-169
-156
-150
-135
-128
-118
-132
-144
-163
-180
-176
-156
-155
-128
-104
-104
-111
-105
-92
-95
-78
-53
-32
-15
-21
-38
-63
-87
-127
-151
-158
-168
-178
-166
-164
-163
-175
-186
-205
-205
-211
-186
-164
-135
-126
-126
-126
-148
-163
-172
-168
-168
-150
-128
-119
-113
-129
-148
-158
-170
-165
-158
-150
-122
-108
-116
-124
-149
-170
-171
-165
-150
-136
-117
-108
-123
-134
-150
-162
-168
-159
-147
-138
-126
-118
-126
-133
-145
-156
-167
-150
-141
-130
-114
-109
-118
-128
-141
-167
-175
-134
-138
-114
-112
-102
-112
-108
-132
-150
-157
-147
-129
-110
-96
-91
-104
-101
-130
-142
-147
-140
-128
-106
-82
-80
-94
-92
-112
-123
-126
-111
-103
-86
-71
-63
-72
-78
-100
-106
-109
-90
-84
-67
-51
-52
-67
-81
-93
-106
-107
-94
-84
-63
-62
-62
-64
-75
-109
-115
-119
-112
-105
-80
-73
-78
-91
-107
-130
-145
-140
-137
-129
-100
-90
-86
-105
-123
-146
-161
-156
-139
-134
-121
-111
-111
-131
-144
-160
-155
-157
-148
-132
-130
-112
-105
-124
-146
-173
-168
-154
-151
-139
-122
-110
-118
-128
-149
-164
-172
-162
-155
-135
-122
-114
-120
-130
-148
-159
-169
-156
-150
-145
-121
-118
-120
-134
-145
-152
-161
-160
-143
-126
-120
-118
-122
-131
-145
-164
-165
-157
-150
-149
-112
-111
-130
-132
-144
-161
-168
-169
-157
-131
-111
-112
-129
-132
-152
-175
-169
-169
-156
-128
-117
-119
-134
-139
-155
-165
-171
-159
-154
-138
-117
-117
-122
-142
-162
-176
-170
-161
-154
-139
-121
-120
-130
-146
-159
-169
-175
-167
-158
-141
-123
-120
-139
-139
-154
-172
-177
-169
-153
-130
-122
-131
-139
-149
-169
-179
-170
-158
-155
-126
-126
-115
-149
-151
-157
-176
-173
-163
-152
-131
-122
-127
-136
-154
-167
-174
-170
-161
-148
-136
-125
-133
-140
-150
-163
-178
-173
-171
-154
-125
-126
-138
-133
-143
-175
-171
-168
-165
-146
-132
-121
-133
-139
-160
-175
-183
-178
-173
-149
-120
-117
-130
-134
-152
-174
-176
-170
-163
-145
-124
-122
-141
-145
-165
-161
-176
-171
-158
-147
-134
-121
-127
-143
-155
-171
-185
-180
-162
-141
-121
-124
-140
-153
-150
-168
-188
-177
-155
-135
-128
-123
-130
-140
-164
-173
-178
-169
-158
-145
-130
-125
-143
-142
-154
-181
-165
-163
-157
-145
-131
-119
-133
-149
-172
-176
-165
-159
-158
-130
-124
-119
-131
-143
-160
-170
-176
-170
-150
-130
-107
-102
-122
-123
-157
-168
-154
-155
-140
-116
-107
-107
-118
-141
-159
-161
-165
-156
-144
-126
-119
-128
-134
-150
-169
-164
-178
-163
-147
-137
-135
-127
-147
-147
-174
-185
-172
-164
-148
-140
-142
-127
-135
-149
-167
-179
-174
-167
-155
-129
-120
-135
-139
-157
-174
-177
-171
-166
-143
-127
-129
-140
-147
-156
-178
-187
-179
-163
-144
-127
-131
-138
-143
-159
-163
-161
-139
-114
-85
-65
-42
-44
-37
-54
-73
-83
-98
-103
-100
-103
-113
-132
-161
-188
-210
-215
-210
-199
-178
-169
-160
-155
-163
-185
-191
-183
-179
-156
-138
-132
-130
-142
-147
-170
-173
-160
-168
-158
-136
-125
-124
-131
-139
-159
-169
-168
-165
-158
-131
-131
-117
-131
-137
-159
-166
-177
-166
-151
-127
-117
-122
-130
-139
-154
-172
-170
-160
-149
-121
-104
-118
-116
-138
-169
-182
-174
-138
-141
-117
-103
-111
-121
-132
-147
-165
-156
-146
-129
-117
-104
-109
-118
-136
-144
-154
-146
-130
-116
-101
-99
-92
-102
-114
-139
-140
-132
-121
-112
-75
-82
-82
-78
-105
-123
-123
-114
-100
-81
-65
-61
-63
-65
-85
-109
-117
-111
-100
-72
-43
-46
-62
-68
-88
-106
-112
-95
-103
-77
-69
-63
-69
-83
-101
-121
-135
-127
-115
-94
-82
-82
-96
-104
-135
-151
-153
-146
-138
-123
-103
-94
-107
-118
-139
-166
-174
-160
-152
-121
-113
-118
-129
-129
-152
-173
-172
-158
-144
-122
-110
-111
-124
-135
-150
-169
-170
-159
-139
-132
-117
-116
-123
-138
-157
-167
-164
-156
-153
-128
-117
-113
-126
-140
-152
-163
-162
-150
-139
-120
-112
-115
-125
-140
-159
-171
-154
-143
-144
-132
-107
-109
-121
-144
-155
-167
-167
-157
-138
-113
-104
-119
-123
-134
-157
-162
-160
-153
-135
-122
-115
-123
-127
-141
-159
-175
-169
-155
-130
-126
-115
-124
-129
-145
-154
-165
-153
-152
-135
-129
-122
-117
-132
-152
-166
-164
-159
-154
-136
-120
-111
-128
-136
-150
-173
-168
-155
-159
-140
-122
-114
-127
-139
-160
-168
-174
-155
-156
-129
-124
-107
-133
-129
-153
-174
-175
-163
-156
-136
-127
-107
-124
-137
-156
-172
-170
-161
-153
-139
-130
-111
-127
-143
-160
-175
-173
-158
-149
-134
-120
-121
-126
-134
-162
-175
-169
-167
-155
-135
-120
-120
-136
-148
-161
-156
-170
-168
-150
-126
-117
-119
-129
-142
-162
-165
-168
-162
-149
-123
-117
-123
-130
-141
-165
-173
-168
-164
-143
-131
-125
-122
-129
-134
-170
-174
-172
-160
-144
-126
-126
-135
-115
-143
-167
-179
-169
-159
-145
-124
-107
-120
-128
-148
-161
-159
-165
-150
-140
-114
-102
-106
-117
-131
-151
-165
-147
-145
-137
-107
-104
-119
-119
-139
-150
-155
-151
-142
-127
-112
-104
-116
-130
-152
-166
-175
-168
-157
-143
-112
-120
-123
-129
-157
-164
-171
-164
-152
-141
-124
-120
-127
-136
-160
-171
-180
-170
-152
-132
-118
-125
-132
-137
-157
-171
-182
-174
-150
-143
-121
-120
-131
-132
-157
-169
-164
-161
-159
-138
-126
-123
-131
-144
-165
-170
-160
-147
-128
-83
-73
-60
-43
-34
-42
-50
-76
-77
-86
-78
-84
-99
-132
-151
-187
-204
-206
-207
-197
-170
-159
-154
-158
-174
-183
-184
-182
-168
-152
-133
-118
-122
-134
-139
-172
-177
-158
-159
-150
-122
-118
-124
-132
-139
-168
-178
-166
-158
-144
-128
-111
-110
-133
-150
-168
-172
-162
-162
-150
-109
-109
-118
-122
-149
-165
-172
-151
-149
-137
-124
-119
-115
-130
-144
-155
-165
-158
-149
-130
-113
-107
-118
-135
-141
-160
-160
-151
-138
-127
-110
-111
-105
-123
-145
-154
-143
-148
-143
-127
-83
-93
-97
-109
-128
-142
-138
-134
-123
-99
-86
-83
-89
-82
-102
-121
-120
-102
-102
-82
-67
-68
-71
-77
-102
-109
-110
-97
-89
-71
-54
-57
-68
-78
-87
-110
-114
-104
-91
-82
-56
-68
-82
-91
-126
-135
-143
-120
-107
-93
-92
-92
-105
-128
-137
-153
-159
-156
-143
-111
-108
-111
-127
-150
-162
-170
-162
-157
-151
-134
-122
-132
-139
-136
-157
-180
-170
-164
-157
-141
-125
-130
-135
-147
-166
-175
-170
-166
-150
-140
-120
-124
-130
-159
-176
-181
-177
-171
-141
-130
-125
-130
-140
-150
-169
-182
-175
-168
-150
-126
-116
-137
-156
-156
-173
-182
-156
-169
-147
-130
-131
-138
-154
-166
-175
-176
-174
-157
-139
-136
-133
-130
-153
-163
-180
-177
-178
-173
-150
-128
-128
-140
-142
-165
-182
-188
-174
-174
-151
-133
-135
-147
-158
-170
-185
-186
-176
-171
-151
-136
-136
-150
-159
-176
-186
-188
-188
-169
-150
-142
-136
-139
-165
-179
-181
-193
-184
-170
-153
-139
-140
-159
-162
-180
-198
-199
-189
-175
-150
-140
-141
-151
-162
-184
-192
-198
-187
-170
-157
-140
-145
-155
-166
-188
-199
-198
-186
-170
-158
-152
-146
-157
-170
-192
-203
-197
-179
-175
-153
-144
-151
-157
-175
-192
-185
-202
-190
-157
-150
-152
-155
-155
-173
-190
-196
-191
-186
-177
-161
-155
-149
-148
-162
-187
-202
-197
-194
-168
-154
-146
-156
-161
-177
-196
-200
-193
-193
-171
-161
-153
-154
-158
-179
-206
-193
-196
-183
-162
-158
-153
-152
-159
-182
-186
-209
-200
-191
-176
-149
-143
-151
-163
-186
-203
-201
-195
-188
-168
-156
-153
-157
-146
-176
-190
-208
-197
-176
-160
-143
-140
-144
-151
-173
-190
-189
-185
-176
-155
-134
-139
-151
-149
-181
-180
-184
-180
-176
-159
-146
-146
-155
-165
-188
-202
-202
-193
-182
-164
-160
-151
-159
-179
-200
-204
-201
-191
-184
-164
-154
-148
-160
-176
-201
-208
-202
-189
-191
-179
-162
-144
-165
-183
-203
-209
-193
-188
-183
-171
-153
-145
-163
-184
-208
-212
-203
-203
-179
-167
-162
-161
-166
-178
-192
-192
-171
-151
-136
-98
-84
-67
-60
-79
-83
-106
-115
-123
-127
-124
-135
-165
-182
-215
-233
-247
-244
-232
-221
-199
-178
-184
-193
-198
-204
-218
-202
-193
-172
-162
-153
-156
-161
-184
-206
-202
-199
-190
-148
-140
-148
-156
-164
-188
-197
-191
-189
-179
-152
-150
-144
-147
-162
-186
-192
-203
-194
-174
-156
-147
-138
-145
-163
-184
-181
-199
-186
-183
-157
-137
-134
-150
-163
-165
-189
-187
-182
-175
-149
-128
-137
-145
-150
-171
-184
-180
-160
-156
-140
-125
-128
-133
-148
-168
-175
-173
-157
-150
-130
-125
-114
-132
-129
-146
-157
-157
-140
-132
-111
-102
-100
-104
-126
-139
-146
-142
-117
-98
-85
-65
-75
-86
-106
-126
-126
-123
-117
-88
-80
-68
-82
-82
-93
-115
-112
-118
-118
-111
-93
-78
-81
-101
-122
-144
-142
-137
-132
-117
-112
-105
-103
-123
-140
-161
-177
-163
-161
-145
-122
-121
-145
-151
-150
-178
-177
-181
-173
-139
-135
-133
-147
-149
-156
-183
-193
-170
-164
-151
-129
-132
-140
-153
-174
-185
-183
-175
-168
-151
-124
-139
-141
-138
-171
-190
-180
-175
-164
-141
-133
-128
-151
-147
-158
-177
-180
-179
-168
-140
-129
-136
-138
-144
-167
-180
-184
-176
-164
-139
-131
-130
-140
-145
-165
-173
-182
-175
-159
-136
-135
-134
-141
-154
-170
-191
-190
-170
-164
-121
-121
-126
-140
-150
-168
-187
-184
-167
-157
-148
-131
-136
-141
-155
-163
-191
-178
-163
-154
-134
-138
-135
-138
-156
-175
-184
-179
-166
-163
-138
-117
-142
-146
-159
-175
-182
-171
-164
-156
-137
-125
-131
-142
-153
-181
-186
-182
-166
-156
-123
-131
-131
-140
-160
-178
-183
-174
-166
-147
-139
-131
-133
-140
-157
-176
-191
-177
-156
-139
-135
-124
-135
-140
-154
-177
-176
-173
-171
-142
-128
-126
-134
-137
-152
-173
-181
-176
-160
-145
-139
-142
-126
-127
-156
-173
-173
-162
-161
-142
-133
-126
-134
-142
-157
-175
-180
-161
-143
-126
-115
-118
-126
-143
-154
-164
-167
-158
-147
-124
-102
-100
-110
-124
-143
-165
-156
-143
-138
-124
-109
-105
-113
-128
-152
-151
-154
-147
-138
-116
-116
-124
-119
-134
-155
-169
-168
-160
-144
-126
-125
-117
-129
-141
-161
-171
-163
-157
-147
-124
-114
-122
-127
-140
-153
-170
-173
-162
-143
-127
-110
-123
-125
-147
-173
-169
-167
-157
-138
-116
-112
-125
-134
-146
-162
-185
-166
-144
-143
-119
-106
-120
-123
-124
-125
-117
-108
-91
-51
-16
9
3
-17
-44
-84
-96
-113
-107
-117
-124
-133
-145
-162
-186
-202
-206
-196
-191
-162
-144
-132
-136
-147
-155
-156
-158
-156
-149
-132
-111
-107
-122
-122
-142
-157
-161
-155
-143
-123
-102
-105
-112
-121
-131
-154
-162
-147
-141
-118
-99
-98
-109
-122
-141
-148
-146
-139
-141
-119
-101
-93
-107
-120
-141
-145
-150
-152
-133
-103
-100
-88
-100
-123
-132
-145
-142
-138
-137
-95
-86
-93
-94
-106
-132
-140
-136
-127
-118
-96
-81
-72
-96
-111
-120
-127
-118
-115
-105
-77
-73
-56
-83
-88
-102
-114
-105
-103
-77
-54
-45
-48
-62
-75
-84
-105
-86
-69
-50
-37
-26
-36
-37
-56
-75
-75
-79
-57
-52
-31
-29
-37
-48
-55
-81
-81
-79
-72
-60
-33
-34
-49
-59
-81
-103
-113
-102
-95
-79
-68
-63
-83
-98
-110
-129
-141
-125
-107
-93
-89
-79
-85
-99
-109
-136
-141
-128
-130
-99
-97
-95
-107
-105
-122
-148
-131
-133
-124
-101
-90
-78
-96
-106
-117
-137
-149
-134
-118
-101
-96
-91
-93
-102
-130
-141
-147
-132
-126
-105
-90
-89
-101
-93
-137
-147
-142
-131
-116
-91
-82
-85
-109
-98
-121
-141
-138
-130
-115
-104
-84
-101
-96
-116
-106
-140
-140
-132
-114
-100
-93
-87
-100
-117
-128
-143
-134
-128
-113
-103
-94
-100
-100
-96
-128
-134
-136
-131
-123
-96
-87
-95
-106
-114
-140
-150
-147
-131
-106
-79
-85
-101
-106
-114
-143
-159
-149
-124
-111
-97
-96
-98
-99
-120
-142
-142
-150
-142
-122
-103
-84
-102
-115
-120
-137
-151
-140
-139
-116
-106
-102
-111
-115
-132
-124
-142
-147
-136
-116
-91
-89
-100
-105
-129
-140
-140
-139
-129
-107
-82
-83
-100
-93
-117
-114
-121
-134
-128
-102
-93
-90
-90
-95
-122
-132
-140
-135
-128
-110
-92
-92
-107
-118
-142
-160
-154
-148
-139
-110
-102
-102
-112
-121
-146
-159
-150
-146
-133
-110
-102
-104
-121
-126
-149
-164
-150
-148
-139
-121
-103
-110
-115
-128
-155
-146
-151
-145
-148
-119
-88
-115
-126
-123
-156
-160
-160
-149
-141
-119
-116
-129
-134
-129
-140
-128
-118
-91
-66
-33
12
4
12
-9
-41
-76
-99
-95
-96
-98
-108
-135
-159
-181
-203
-208
-203
-195
-186
-172
-141
-130
-137
-159
-180
-176
-148
-149
-129
-117
-118
-123
-131
-147
-156
-172
-163
-138
-125
-114
-108
-113
-129
-143
-162
-175
-157
-148
-130
-113
-105
-120
-128
-158
-163
-161
-153
-146
-124
-115
-96
-110
-118
-138
-157
-164
-153
-145
-126
-113
-114
-122
-129
-145
-158
-153
-149
-142
-123
-115
-106
-104
-120
-142
-154
-160
-146
-137
-119
-108
-100
-106
-112
-135
-145
-136
-125
-124
-104
-96
-87
-99
-109
-122
-129
-129
-115
-109
-87
-57
-68
-88
-83
-106
-110
-105
-86
-75
-64
-55
-58
-55
-70
-93
-98
-95
-89
-77
-55
-43
-60
-69
-92
-106
-104
-106
-95
-86
-79
-78
-82
-95
-105
-121
-136
-140
-127
-117
-112
-95
-96
-110
-125
-151
-159
-158
-155
-145
-116
-113
-136
-133
-138
-167
-172
-176
-166
-142
-122
-123
-136
-139
-154
-171
-182
-171
-162
-141
-126
-123
-135
-143
-169
-174
-176
-167
-159
-141
-141
-121
-128
-140
-148
-182
-187
-177
-169
-138
-125
-124
-136
-146
-144
-168
-186
-171
-164
-143
-131
-121
-133
-140
-169
-183
-184
-169
-164
-137
-131
-132
-135
-144
-167
-189
-189
-171
-162
-146
-130
-131
-145
-157
-177
-199
-180
-169
-167
-132
-138
-136
-144
-151
-181
-197
-185
-171
-156
-143
-130
-125
-144
-158
-183
-195
-191
-164
-162
-149
-141
-130
-148
-167
-183
-200
-189
-168
-166
-140
-138
-143
-138
-157
-183
-192
-181
-169
-162
-143
-131
-145
-147
-164
-190
-192
-171
-158
-139
-116
-124
-126
-144
-150
-175
-177
-170
-167
-146
-131
-129
-127
-128
-160
-182
-190
-181
-175
-155
-148
-142
-149
-156
-171
-189
-197
-187
-182
-158
-144
-145
-147
-148
-172
-198
-196
-184
-178
-163
-147
-138
-150
-161
-172
-185
-199
-192
-174
-158
-148
-139
-150
-161
-179
-176
-196
-187
-172
-153
-138
-140
-158
-158
-172
-189
-195
-190
-187
-162
-149
-133
-142
-143
-155
-146
-136
-110
-95
-42
-9
1
-2
-32
-66
-102
-127
-124
-133
-139
-157
-157
-176
-195
-219
-227
-233
-216
-207
-178
-167
-152
-154
-160
-182
-187
-186
-167
-161
-133
-129
-132
-139
-148
-163
-174
-173
-178
-151
-135
-126
-132
-149
-137
-156
-175
-170
-153
-153
-125
-116
-118
-131
-145
-160
-168
-166
-155
-132
-133
-116
-111
-121
-147
-168
-173
-150
-148
-134
-117
-109
-117
-120
-132
-152
-161
-146
-135
-119
-102
-96
-112
-122
-138
-148
-143
-144
-135
-106
-93
-93
-104
-108
-118
-135
-141
-117
-112
-96
-72
-72
-75
-84
-103
-125
-116
-95
-98
-76
-74
-62
-49
-55
-72
-94
-97
-76
-73
-53
-36
-37
-51
-53
-70
-85
-85
-64
-60
-43
-27
-25
-43
-55
-84
-90
-95
-86
-78
-61
-51
-56
-66
-81
-98
-116
-119
-91
-95
-85
-80
-75
-84
-102
-129
-130
-118
-126
-116
-99
-82
-91
-97
-114
-130
-121
-129
-131
-124
-98
-87
-93
-96
-109
-128
-138
-141
-130
-118
-99
-95
-94
-97
-114
-103
-128
-125
-124
-108
-107
-91
-81
-89
-103
-123
-132
-126
-119
-101
-84
-77
-80
-99
-104
-120
-131
-124
-111
-100
-79
-69
-79
-99
-111
-119
-123
-122
-122
-97
-78
-69
-83
-100
-126
-114
-117
-114
-106
-101
-79
-60
-73
-88
-111
-121
-117
-115
-110
-95
-79
-64
-76
-87
-112
-121
-124
-121
-99
-90
-74
-75
-76
-83
-113
-126
-122
-111
-109
-92
-61
-64
-74
-93
-107
-114
-116
-109
-105
-82
-73
-61
-72
-89
-105
-114
-112
-104
-95
-79
-62
-52
-67
-81
-96
-98
-101
-99
-83
-60
-50
-54
-68
-60
-84
-97
-97
-95
-80
-61
-54
-55
-72
-84
-107
-107
-108
-110
-95
-67
-60
-66
-79
-82
-93
-120
-107
-92
-87
-72
-62
-55
-73
-91
-92
-106
-105
-101
-88
-69
-57
-63
-72
-81
-97
-121
-112
-102
-83
-70
-56
-60
-65
-84
-101
-113
-111
-100
-78
-67
-60
-64
-83
-99
-92
-109
-105
-100
-73
-41
-26
-23
-24
-26
-20
-11
22
41
59
56
64
36
-5
-33
-72
-91
-104
-111
-104
-96
-92
-108
-114
-127
-139
-141
-125
-109
-83
-71
-59
-64
-63
-96
-99
-102
-90
-84
-64
-44
-48
-42
-58
-72
-89
-94
-96
-88
-51
-34
-36
-55
-55
-75
-89
-91
-85
-72
-49
-34
-43
-54
-53
-80
-101
-89
-59
-68
-45
-34
-27
-41
-52
-74
-84
-78
-78
-62
-36
-32
-36
-34
-55
-79
-91
-79
-53
-55
-32
-16
-22
-27
-43
-66
-73
-69
-53
-26
-8
-5
-14
-22
-35
-50
-47
-37
-48
-25
-1
1
5
9
-7
-24
-25
-28
-12
3
17
26
21
15
12
-5
-18
-9
-1
19
41
53
30
37
16
-11
-10
0
19
15
30
30
35
20
-1
-19
-23
-29
-15
-6
7
21
18
0
-28
-51
-59
-49
-40
-18
-9
-9
-15
-21
-33
-59
-64
-51
-47
-30
-20
-18
-21
-36
-45
-59
-63
-61
-56
-32
-12
-4
-23
-34
-52
-52
-53
-44
-48
-35
-17
-12
-16
-26
-44
-65
-60
-55
-34
-23
-8
-13
-19
-23
-39
-63
-50
-48
-37
-16
-12
-5
-12
-26
-45
-52
-49
-39
-39
-20
3
-4
-9
-19
-42
-52
-55
-49
-44
-2
5
-6
-25
-3
-31
-53
-52
-46
-9
0
-2
3
-8
-14
-35
-57
-40
-33
-30
-1
14
5
-12
-21
-42
-49
-39
-33
-22
-5
11
-1
0
-18
-35
-49
-47
-37
-15
7
11
2
-1
-22
-30
-36
-31
-28
-7
10
19
8
-5
-17
-16
-36
-17
-4
10
37
30
21
19
-8
-20
-20
-19
-8
1
27
35
21
9
-8
-21
-32
-28
-14
9
16
21
14
5
-17
-22
-32
-24
-14
7
22
30
14
-1
-24
-29
-29
-16
-3
8
27
24
13
7
-9
-20
-29
-23
-3
20
27
22
14
7
-12
-23
-24
-26
-11
16
24
27
14
10
-7
-24
-36
-27
-12
17
18
17
17
20
12
12
32
49
68
119
157
162
159
130
103
67
54
39
36
38
29
5
-13
-35
-57
-58
-57
-46
-37
-10
16
8
7
5
-11
-12
-18
-12
7
26
38
34
30
12
-2
-15
-9
3
28
39
45
34
28
17
-11
-19
-5
10
29
43
52
35
24
8
14
-3
0
11
30
42
51
43
36
15
5
0
11
15
36
55
53
45
50
25
11
14
14
24
48
58
59
54
44
35
24
10
14
31
53
64
68
63
65
40
26
27
39
51
79
82
91
90
82
52
39
35
55
77
95
106
104
95
93
72
57
69
79
82
106
131
117
113
102
93
78
76
80
92
122
127
125
121
105
81
62
62
69
74
92
103
110
88
74
52
44
39
38
64
82
90
76
65
64
31
25
24
35
51
77
65
65
56
52
34
19
22
30
44
60
58
53
56
57
31
14
24
31
45
68
74
62
58
53
34
21
26
34
48
72
72
67
64
50
34
26
22
33
64
79
72
72
56
32
29
30
35
32
60
74
83
73
71
47
41
23
29
44
65
78
79
76
63
54
37
21
25
39
68
76
77
72
61
44
41
22
41
51
55
76
84
76
66
43
28
37
44
42
59
78
77
65
65
41
25
23
31
51
65
75
70
72
56
43
35
26
43
50
67
76
78
71
53
30
29
35
51
57
72
78
83
72
63
41
28
33
41
53
79
85
82
68
68
42
36
33
49
57
81
86
80
72
71
54
40
37
67
80
87
99
98
85
69
59
43
48
46
71
101
91
86
80
60
33
33
44
43
72
79
88
76
71
46
30
38
46
39
56
81
94
78
71
47
37
24
41
47
64
77
89
73
78
50
34
31
39
48
73
85
79
71
55
37
56
34
39
48
71
79
85
74
71
43
23
24
36
43
70
78
83
85
86
83
82
83
106
151
187
221
213
198
186
144
108
82
74
60
61
68
57
38
21
3
-9
-8
7
23
45
72
69
64
58
34
23
33
50
51
80
98
88
77
54
45
46
35
46
65
82
93
84
81
70
48
32
43
53
75
94
96
91
100
72
43
35
44
50
63
89
96
87
78
69
52
49
54
61
74
87
96
87
69
83
57
48
53
62
82
99
107
94
92
77
57
54
63
66
73
108
113
107
112
87
61
67
70
81
103
123
137
124
108
86
85
93
94
93
120
137
148
138
134
117
100
101
109
118
133
146
155
143
138
137
113
107
116
127
145
143
157
142
138
121
102
90
107
110
129
138
132
122
108
81
65
72
79
86
93
104
106
97
85
74
51
46
58
70
85
99
100
87
76
65
39
41
48
60
89
102
107
78
63
46
43
45
54
64
73
90
86
81
69
66
47
40
58
58
78
84
88
83
60
47
34
36
44
54
84
88
76
96
74
38
41
44
53
64
80
93
85
77
67
47
44
35
52
78
81
94
92
75
70
44
33
37
44
65
82
88
86
76
59
36
23
46
58
68
89
88
88
60
45
29
35
37
48
65
82
85
79
72
51
31
33
30
59
66
77
73
76
73
45
32
31
36
45
72
78
72
58
74
49
33
38
35
51
72
78
76
65
59
43
28
30
41
41
59
68
73
82
69
49
38
27
40
56
65
84
81
64
61
47
33
33
40
57
71
95
94
81
69
58
47
36
44
63
76
86
102
86
63
42
38
40
49
63
81
89
90
81
47
26
42
37
36
47
73
76
64
58
47
29
27
33
33
44
61
73
69
54
38
30
27
21
38
47
69
75
60
56
41
27
22
17
37
49
66
69
61
50
34
21
27
33
34
48
69
70
60
46
30
15
3
11
45
75
97
112
117
120
116
127
133
152
173
164
160
162
130
96
61
17
12
-7
2
9
14
23
