-278
-263
-255
-259
-254
-248
-255
-260
-263
-262
-256
-258
-247
-254
-259
-272
-263
-248
-232
-238
-240
-218
-210
-224
-235
-226
-227
-255
-243
-226
-227
-214
-216
-220
-219
-212
-214
-197
-194
-187
-185
-189
-227
-209
-205
-194
-203
-176
-162
-186
-170
-177
-151
-165
-171
-168
-167
-162
-173
-193
-181
-172
-169
-182
-191
-166
-170
-163
-162
-168
-167
-169
-154
-141
-146
-135
-138
-154
-171
-190
-189
-172
-196
-179
-184
-184
-179
-186
-172
-178
-174
-163
-169
-179
-160
-155
-156
-168
-170
-175
-185
-181
-181
-171
-174
-166
-174
-179
-158
-159
-161
-156
-166
-166
-158
-148
-147
-124
-126
-133
-142
-137
-148
-167
-152
-157
-178
-184
-185
-171
-175
-191
-186
-176
-179
-193
-191
-176
-173
-167
-151
-167
-166
-178
-165
-187
-190
-170
-176
-171
-161
-163
-178
-174
-173
-183
-187
-189
-166
-160
-184
-185
-177
-162
-155
-155
-126
-110
-100
-71
-47
-7
-5
1
12
9
-25
-62
-111
-195
-231
-251
-258
-240
-235
-252
-250
-228
-221
-212
-178
-158
-170
-171
-165
-150
-155
-181
-182
-168
-173
-170
-175
-173
-146
-149
-138
-150
-165
-158
-176
-180
-167
-158
-156
-159
-154
-142
-139
-139
-142
-147
-148
-145
-145
-156
-152
-155
-162
-157
-147
-141
-139
-133
-138
-136
-134
-129
-128
-131
-145
-142
-142
-122
-123
-124
-110
-136
-139
-138
-127
-127
-138
-123
-131
-134
-134
-139
-137
-130
-120
-120
-114
-114
-107
-108
-103
-105
-106
-107
-99
-110
-89
-97
-94
-93
-99
-94
-85
-94
-106
-101
-97
-85
-82
-97
-92
-82
-82
-68
-61
-78
-93
-81
-60
-71
-62
-64
-76
-77
-77
-76
-82
-84
-77
-62
-73
-86
-84
-58
-77
-100
-93
-85
-92
-101
-98
-91
-103
-101
-106
-107
-104
-93
-103
-86
-91
-99
-107
-102
-113
-108
-121
-103
-99
-104
-102
-123
-111
-111
-105
-108
-109
-101
-99
-99
-95
-92
-86
-92
-77
-84
-73
-76
-84
-97
-111
-93
-109
-98
-83
-87
-94
-99
-89
-95
-92
-86
-87
-66
-74
-84
-74
-70
-72
-101
-115
-104
-100
-90
-99
-85
-89
-69
-83
-77
-71
-72
-81
-65
-55
-66
-71
-70
-73
-82
-58
-68
-79
-75
-70
-72
-66
-63
-52
-41
-35
-65
-79
-87
-87
-55
-54
-56
-58
-55
-56
-59
-66
-55
-47
-48
-54
-60
-60
-64
-55
-55
-54
-60
-54
-56
-33
-36
-57
-61
-61
-59
-71
-48
-45
-52
-50
-56
-53
-66
-51
-48
-42
-38
-47
-54
-36
-48
-41
-36
-36
-39
-28
-27
-28
-40
-31
-40
-33
-31
-30
-27
-23
-29
-34
-6
-3
-18
-15
-18
-11
-8
-7
-23
-27
-46
-27
-18
-21
-18
-16
-33
-40
-32
-42
-37
-31
-27
-41
-42
-39
-33
-32
-17
-16
-20
-41
-51
-53
-31
-31
-35
-24
-38
-50
-52
-42
-46
-31
-25
-31
-33
-41
-36
-11
2
7
48
91
105
132
159
157
157
153
155
107
62
0
-56
-65
-90
-89
-86
-84
-85
-74
-55
-52
-60
-59
-74
-18
-13
-30
-30
-33
-27
-19
-28
-18
-18
-17
-5
-2
-4
-19
-16
-6
-13
-17
-11
-15
-17
0
-9
-21
-2
-10
-10
-10
2
-5
-5
-2
-15
-23
-9
4
-3
-7
-7
1
11
7
8
4
8
14
14
2
5
0
0
3
12
10
27
15
0
8
16
16
22
3
9
24
20
20
20
20
30
47
20
7
27
21
21
37
42
38
45
44
45
52
60
31
47
46
47
59
69
75
55
73
42
41
55
64
52
54
63
64
75
77
76
82
73
67
62
42
47
59
55
57
44
39
56
50
44
49
41
37
35
37
21
32
49
38
39
41
37
26
28
42
22
27
16
22
12
17
19
22
14
34
32
24
32
37
41
49
42
37
31
5
6
22
21
29
34
26
27
21
14
20
25
45
30
31
29
28
34
54
47
35
25
39
26
21
25
32
46
27
13
29
27
36
46
43
35
29
43
37
34
48
49
43
32
33
29
47
46
49
55
58
58
42
34
35
42
50
40
40
45
49
32
46
44
46
39
46
44
42
57
50
41
44
44
41
49
61
73
52
47
46
39
48
63
60
53
43
46
48
36
55
37
38
35
49
43
54
56
62
69
58
69
53
54
51
61
55
36
47
59
53
47
45
46
49
68
70
54
49
68
58
64
68
66
66
63
58
57
61
66
74
64
65
58
59
74
65
59
86
92
79
75
78
74
78
87
78
69
84
90
73
60
63
73
91
83
88
81
66
60
55
45
40
48
39
48
60
64
82
74
67
56
49
54
51
55
51
57
73
84
69
65
66
67
53
64
52
40
36
39
52
70
87
119
159
194
214
237
280
281
262
237
228
196
153
80
34
20
-1
-1
9
18
14
15
12
29
43
55
53
54
45
60
68
72
63
70
82
72
60
75
83
62
60
66
72
86
76
70
55
80
65
68
79
61
48
61
67
76
79
67
54
67
74
76
84
88
78
64
68
74
74
79
84
80
80
90
91
81
67
62
61
71
87
85
70
65
81
59
69
90
102
88
95
104
96
105
113
98
77
88
86
95
92
109
117
109
107
103
104
106
123
129
126
105
101
115
113
126
125
121
119
122
127
112
113
122
123
129
124
110
116
127
133
137
118
120
126
123
132
124
118
125
112
108
113
120
139
133
136
107
81
90
106
110
101
102
110
101
104
94
110
100
97
95
107
107
123
113
103
91
104
85
74
81
87
78
80
81
89
95
98
83
78
80
91
96
102
93
91
86
95
93
98
86
89
88
97
99
108
92
90
103
97
100
98
111
102
91
89
87
93
102
106
103
107
95
115
104
87
88
96
110
106
109
91
83
101
96
92
104
96
102
113
106
102
96
95
97
107
101
95
103
108
102
120
117
100
100
93
111
107
114
108
117
119
116
125
109
95
107
99
86
91
105
119
115
102
106
104
123
126
105
104
108
91
93
103
103
96
112
106
105
108
116
101
112
98
102
112
118
114
114
111
98
105
107
112
108
97
107
113
124
122
98
94
110
108
103
97
110
115
107
105
104
128
111
114
116
100
103
96
100
99
117
116
111
111
129
127
127
126
120
115
108
126
124
139
125
103
129
115
123
117
129
130
123
129
156
156
140
150
146
130
140
129
133
123
120
105
107
114
109
118
120
122
125
123
113
102
109
106
90
111
116
130
124
121
117
113
129
111
103
103
104
125
111
114
111
109
113
106
112
121
120
115
116
124
117
132
163
189
207
254
292
324
320
323
312
307
275
227
181
126
83
48
45
55
50
40
65
77
66
97
104
115
120
123
109
104
105
119
128
124
120
117
127
128
130
121
127
141
134
133
131
123
135
148
135
125
134
130
116
118
127
116
110
133
136
118
120
144
153
152
143
144
135
132
126
131
124
137
146
146
140
132
142
152
149
146
160
133
139
158
160
156
154
152
165
163
160
142
138
145
166
176
179
158
181
192
164
154
160
157
169
157
160
169
171
175
174
178
199
216
183
179
190
201
190
203
203
204
204
188
198
205
210
209
198
199
200
205
205
196
208
206
211
201
197
207
207
186
207
196
181
181
194
187
177
183
187
180
184
184
180
166
175
167
161
167
153
156
174
183
172
174
179
175
173
174
158
161
172
171
172
173
160
143
152
171
162
138
165
181
156
152
160
137
139
138
148
148
151
145
141
149
158
148
162
157
140
131
141
148
133
145
140
132
150
142
142
138
150
162
150
153
157
143
149
144
135
150
149
151
148
152
144
141
154
167
152
147
159
154
147
163
155
145
131
142
133
141
146
140
135
153
153
147
144
143
136
126
122
131
138
137
134
134
150
117
112
125
115
124
137
146
146
138
134
148
148
114
112
127
139
129
121
123
125
134
122
128
130
122
122
130
131
132
137
128
129
130
150
130
131
129
127
126
116
132
105
120
127
112
107
114
112
108
118
119
136
119
127
126
127
110
111
107
108
112
109
119
109
111
115
121
111
132
134
116
125
127
127
131
138
140
136
154
131
130
115
112
135
139
139
148
141
143
133
126
117
139
152
147
111
104
100
114
120
111
120
123
104
109
114
111
108
103
111
102
108
113
113
112
99
98
106
114
117
111
116
114
109
114
102
102
110
114
100
97
93
116
93
82
88
91
79
97
118
132
149
189
220
236
266
276
277
285
284
249
218
195
129
61
29
27
29
21
12
32
42
36
54
65
84
87
100
105
98
101
108
92
96
97
98
99
96
91
91
104
106
111
108
121
115
111
86
95
94
96
95
117
111
115
129
127
129
135
111
109
115
111
99
89
112
102
109
121
127
135
122
126
119
101
114
102
102
107
122
122
108
117
122
121
124
124
121
120
112
115
130
124
112
115
116
142
139
132
140
148
133
118
109
133
135
127
135
142
131
136
141
144
140
135
147
153
154
158
163
148
161
162
159
167
180
158
138
129
132
154
167
151
139
162
152
158
152
158
148
143
150
145
144
135
136
140
138
141
118
116
132
141
133
127
122
129
113
121
127
126
122
121
117
115
119
113
125
121
104
112
115
105
105
137
133
127
114
109
95
92
90
97
88
120
111
96
102
109
110
112
121
130
104
114
122
101
118
121
96
98
109
118
117
134
107
105
121
114
114
112
126
107
124
132
126
123
120
116
115
126
105
114
129
142
111
101
111
123
124
120
118
113
112
123
123
130
119
109
104
116
102
104
116
113
111
112
115
113
123
114
121
130
131
122
114
124
131
117
115
119
109
104
120
126
118
114
124
127
128
121
120
116
105
98
107
111
107
104
111
114
127
124
136
119
95
119
111
124
119
102
101
102
101
107
114
127
117
119
112
112
99
112
132
123
127
134
127
127
130
110
104
111
120
129
119
104
106
106
114
99
110
107
120
106
105
116
118
116
125
125
124
123
127
123
136
133
114
108
114
131
134
146
152
134
134
147
148
140
145
134
130
128
136
133
126
115
116
119
125
121
118
114
124
125
123
140
123
104
112
105
117
111
114
109
114
125
118
107
119
110
110
110
100
101
110
119
105
108
122
101
102
94
105
98
104
102
106
140
181
187
208
218
235
280
297
293
303
305
274
244
181
120
77
53
42
34
30
33
43
57
67
66
80
106
94
94
102
106
114
105
119
104
101
108
116
100
99
107
103
118
120
109
101
100
109
118
101
118
129
121
116
127
125
134
123
118
122
108
127
116
107
103
125
126
134
133
135
137
123
121
144
139
109
99
126
129
117
138
123
114
109
116
120
133
135
133
125
121
142
137
136
134
125
127
130
137
135
132
122
146
145
161
166
166
138
131
139
147
146
142
137
149
143
157
173
161
164
169
178
164
152
145
150
158
176
148
152
169
154
155
173
167
155
163
164
154
158
168
169
161
150
147
153
143
133
140
132
138
140
146
141
148
154
145
144
125
133
128
125
114
135
143
137
130
107
100
116
126
115
130
161
168
140
108
110
102
103
105
114
110
112
109
103
104
109
129
120
128
134
111
115
122
118
110
112
114
105
114
107
112
131
130
138
132
114
125
142
125
114
125
132
112
128
117
105
108
122
126
136
128
124
135
125
124
127
131
121
114
105
110
120
107
142
140
141
125
118
114
118
112
129
126
120
138
137
108
123
125
114
128
133
130
108
111
139
123
129
142
126
133
122
114
105
86
91
106
116
131
118
115
124
118
113
121
114
114
125
109
113
114
135
146
121
130
128
100
102
110
109
110
129
122
110
120
122
116
105
93
104
113
132
132
123
121
130
129
115
109
101
120
125
131
130
132
124
123
129
123
133
131
139
146
140
144
149
123
129
128
131
130
136
139
134
136
144
119
123
123
113
119
108
119
120
127
121
115
108
118
109
122
135
116
104
101
114
117
121
119
113
121
115
116
114
116
121
128
131
140
111
81
97
105
95
97
112
116
89
107
100
100
120
143
157
186
196
203
230
264
300
302
296
295
277
248
185
128
84
68
41
56
53
53
49
53
60
73
77
86
98
120
103
90
98
126
115
107
112
108
95
116
102
98
102
107
116
104
112
122
115
118
121
121
124
127
134
128
120
117
101
107
107
109
112
105
114
126
137
128
129
119
120
102
95
93
101
114
117
152
138
116
126
137
142
117
107
113
124
123
141
131
128
133
125
116
116
119
136
133
118
135
146
150
153
139
138
134
148
142
144
147
136
130
126
141
129
149
163
161
162
166
149
163
154
166
158
172
160
158
156
154
146
157
161
168
159
143
144
149
148
149
154
155
155
159
158
164
163
174
162
141
131
139
147
155
136
120
127
126
119
115
135
113
122
129
130
139
141
131
126
111
110
123
116
101
99
121
116
117
99
133
122
111
125
126
125
129
124
123
123
115
97
101
111
99
111
116
114
114
112
121
110
127
123
131
128
128
124
123
120
106
104
119
135
127
128
115
109
113
124
120
116
127
119
114
98
98
107
111
105
116
123
118
126
128
130
120
107
110
116
126
111
129
124
120
120
115
128
120
119
102
101
101
107
118
113
117
114
117
137
126
123
123
123
131
123
118
122
131
128
114
110
117
126
121
130
123
93
109
102
96
106
113
102
116
122
107
89
90
92
99
116
121
117
118
110
106
99
90
101
106
120
106
113
118
109
120
117
129
130
117
129
137
121
112
115
116
120
141
134
136
133
141
139
139
136
131
122
134
143
131
128
147
148
140
109
105
107
107
119
105
98
102
87
108
118
108
100
103
99
97
103
112
91
104
98
94
85
100
101
93
92
99
98
92
115
98
87
96
111
109
108
109
104
89
103
88
98
89
70
74
103
126
161
172
202
237
252
275
274
281
275
269
234
189
144
80
52
35
43
45
20
13
42
31
43
42
66
72
96
79
88
89
102
101
95
81
88
92
92
86
100
100
96
103
102
87
75
102
98
96
100
90
110
112
106
91
96
93
96
85
92
88
82
92
89
80
89
118
91
81
102
91
99
106
103
87
95
97
93
114
94
100
105
104
108
106
101
104
105
100
89
82
90
97
105
99
106
102
103
105
100
92
105
122
124
112
120
117
114
121
116
120
116
118
124
125
124
127
114
127
145
148
159
129
119
128
128
134
124
131
132
124
134
142
136
127
137
127
121
123
152
145
130
95
104
104
123
113
89
93
87
98
108
112
107
110
98
90
85
100
109
104
79
85
83
79
93
90
94
84
82
80
87
84
96
78
72
89
75
74
68
64
73
82
93
75
77
72
80
92
83
75
75
83
76
67
60
82
95
74
65
81
78
68
62
70
69
53
54
72
67
66
77
80
89
83
84
83
72
86
92
89
73
74
83
71
68
75
70
68
71
70
94
95
90
78
89
81
50
57
54
81
65
73
77
66
58
69
65
79
73
88
82
68
58
71
71
63
92
76
68
68
62
72
83
71
62
73
73
76
87
99
92
67
58
63
64
52
68
77
74
65
63
57
49
45
58
63
70
66
58
69
70
58
57
66
74
68
78
66
91
91
84
83
68
68
66
62
64
62
77
71
81
66
81
100
102
94
100
92
102
89
76
69
79
70
88
90
77
66
82
92
73
69
69
64
54
47
49
66
65
56
57
57
65
69
70
64
68
61
61
49
59
47
39
43
48
54
68
64
62
48
32
35
55
49
46
50
56
53
54
64
50
42
28
45
55
61
84
104
121
158
169
177
209
221
230
208
205
187
174
108
25
-12
-19
-27
-26
-46
-39
-25
-31
-21
12
24
23
23
36
53
49
51
59
52
35
37
33
38
36
56
57
65
82
63
51
51
42
47
36
48
56
58
54
53
45
60
56
56
69
62
63
53
63
62
43
55
67
68
69
72
53
32
36
51
37
50
44
51
72
77
46
63
57
68
52
64
72
62
64
63
31
43
49
73
64
57
68
70
74
89
84
69
67
70
76
77
68
62
69
80
85
92
89
85
91
76
86
77
69
73
79
100
103
103
95
79
74
91
85
92
89
97
93
105
88
94
96
108
97
94
86
82
92
86
72
69
83
94
92
73
78
82
53
33
41
44
52
43
33
50
51
67
63
29
38
64
69
41
46
50
38
30
34
33
54
35
37
41
54
53
41
39
23
25
43
59
56
49
44
40
40
48
50
40
38
44
44
54
50
43
44
40
44
54
48
41
46
58
53
39
21
38
43
52
62
47
40
41
57
61
49
55
52
31
23
34
44
52
49
48
53
53
59
43
39
46
59
55
47
41
48
44
45
42
58
55
50
42
51
47
38
38
54
50
51
38
28
50
57
43
45
39
47
47
43
33
31
23
37
35
47
47
37
34
26
37
50
57
53
49
54
51
51
65
44
37
36
40
47
37
46
61
51
47
43
32
45
56
45
48
53
68
66
50
50
49
62
77
63
49
45
51
43
49
58
56
68
68
56
46
38
53
63
46
58
54
37
45
49
52
36
38
34
30
30
43
49
56
38
43
42
26
9
14
13
26
30
27
23
27
32
26
28
27
35
19
34
43
32
36
35
22
39
24
8
19
29
41
64
91
106
133
158
175
204
218
207
210
206
169
124
78
-2
-40
-52
-38
-49
-34
-41
-42
-32
-19
-20
-3
3
18
33
33
32
25
22
22
23
26
20
19
12
22
18
32
43
56
64
34
36
17
18
26
22
32
28
32
26
37
46
42
42
40
40
26
33
37
44
37
33
36
34
35
31
53
52
62
41
28
41
41
49
47
38
41
35
24
43
51
46
60
45
39
42
32
35
40
47
29
51
38
53
58
59
68
60
69
73
47
61
63
75
79
71
69
71
71
72
74
72
74
85
94
97
99
83
90
97
73
90
74
72
83
94
88
68
72
84
67
58
62
63
75
79
77
75
72
73
73
60
68
58
68
66
60
63
50
35
41
44
30
65
74
68
40
57
49
38
40
46
50
27
38
37
26
31
26
38
36
34
60
64
43
31
34
39
22
30
27
27
29
31
40
39
32
15
28
39
52
49
36
31
48
40
47
40
35
37
39
43
51
33
34
33
41
24
20
34
46
40
29
28
33
47
68
73
55
46
54
67
49
23
21
28
32
39
34
30
27
34
42
40
51
57
45
41
35
29
34
44
43
36
33
42
54
23
34
47
37
43
68
42
16
35
30
17
36
45
34
44
42
45
48
53
45
41
39
53
57
48
47
52
48
34
29
39
30
23
27
34
45
50
49
53
47
44
48
43
47
32
44
40
46
55
55
55
52
51
51
49
54
68
62
42
43
47
61
56
42
51
53
59
54
60
47
47
44
41
47
56
51
48
35
30
27
25
33
22
18
31
35
19
31
32
32
50
42
35
39
41
40
35
32
38
36
32
33
26
19
26
16
15
15
8
25
14
14
17
52
79
92
110
139
167
197
216
209
205
211
209
183
133
72
29
4
-25
-32
-24
-19
-11
-26
-13
-20
0
4
0
11
15
27
48
50
40
28
43
23
7
-1
9
20
33
21
25
47
40
28
41
28
21
18
33
47
32
33
30
35
56
40
24
24
36
46
48
57
66
38
37
33
36
42
33
45
39
50
52
29
41
55
36
37
36
50
56
51
50
44
43
48
47
45
54
51
53
49
56
48
47
38
36
50
60
87
76
65
52
51
77
85
67
64
78
76
66
82
82
78
83
74
77
81
85
92
96
95
94
76
67
95
97
101
95
79
84
76
89
88
83
77
76
91
92
75
62
77
66
57
68
56
64
79
82
74
56
46
51
70
50
49
47
38
38
34
33
57
47
46
41
51
44
52
56
38
44
50
53
54
60
53
52
59
65
43
33
40
39
26
24
37
44
50
54
42
47
41
27
32
41
44
55
55
34
42
52
36
33
37
48
32
41
40
46
52
49
52
37
36
41
47
48
53
28
40
60
60
63
56
62
41
38
51
56
71
63
33
39
57
41
28
42
62
49
57
53
38
35
49
51
43
52
60
41
49
73
60
32
58
50
36
57
72
65
52
63
63
59
60
52
35
42
65
59
48
50
52
57
48
53
49
51
55
44
55
66
82
69
47
46
52
54
54
55
52
53
54
52
47
54
49
54
42
38
49
54
75
69
51
57
56
65
63
71
75
77
55
54
62
63
94
82
82
88
74
76
83
65
50
70
66
76
77
62
62
64
55
57
60
63
67
73
51
65
57
41
47
61
48
42
61
63
64
65
58
57
37
43
54
44
65
61
26
47
48
46
45
48
52
50
42
51
39
37
46
44
35
47
55
71
85
113
150
182
196
231
261
261
257
245
237
165
103
44
26
10
-1
12
14
3
7
14
23
21
32
36
35
38
39
43
59
53
53
48
49
53
54
46
50
56
63
42
41
34
56
62
54
62
44
62
58
45
53
60
65
59
53
52
67
56
70
68
56
62
60
62
56
48
78
75
93
98
93
81
61
51
49
60
48
41
50
64
49
49
83
77
79
78
79
90
84
74
63
65
66
66
72
59
62
85
79
80
84
78
85
80
87
92
84
96
103
98
84
89
101
107
96
91
103
99
105
121
118
115
113
103
115
104
106
113
119
121
115
121
114
99
109
110
102
101
112
102
103
93
86
89
89
81
63
86
81
74
59
74
97
91
55
65
61
67
65
73
63
56
63
61
67
66
72
65
78
80
53
42
60
47
41
40
54
69
58
62
56
56
54
61
70
72
60
78
45
50
50
45
50
51
60
60
58
66
58
55
46
57
50
65
69
66
58
63
77
43
40
39
54
72
75
51
49
57
78
76
47
53
68
74
63
57
51
47
64
57
37
35
53
43
64
69
52
73
71
68
59
73
56
44
48
55
51
64
72
71
59
66
79
87
57
46
54
68
62
37
53
61
60
68
74
69
72
95
74
60
43
50
43
40
59
62
61
58
32
50
60
63
60
63
53
52
53
54
58
48
49
50
47
56
43
47
64
74
63
58
57
56
73
60
68
78
51
50
49
49
60
47
40
48
47
52
77
68
67
59
70
61
58
65
74
61
55
63
62
54
61
73
46
62
76
69
76
91
91
93
96
88
67
61
66
63
67
89
64
50
59
63
53
65
44
50
76
72
78
48
68
75
64
62
49
39
50
41
41
30
31
43
23
46
67
43
56
45
38
41
39
54
54
44
55
57
42
35
36
40
57
81
99
123
150
174
200
217
231
238
235
231
199
151
112
49
26
-6
-1
12
-27
-53
-12
-11
-24
0
1
19
37
39
30
35
64
48
39
54
65
47
37
42
43
46
50
50
45
55
61
68
57
58
58
54
51
54
57
39
50
73
76
62
54
46
44
51
57
59
67
70
74
50
43
46
40
51
59
53
56
55
84
77
77
47
47
78
51
62
59
49
62
78
71
80
70
72
67
68
74
55
77
86
73
58
56
67
69
79
92
91
98
97
81
88
71
70
73
103
111
89
89
92
96
94
96
117
110
119
110
96
97
94
96
100
109
114
107
107
115
108
104
95
78
97
108
96
81
90
75
88
84
75
71
80
78
71
79
85
94
87
78
64
48
49
49
63
74
77
73
63
71
63
53
62
63
57
47
44
50
45
48
46
48
64
78
74
62
45
44
44
48
55
58
56
48
42
45
52
59
51
58
67
66
50
51
59
47
59
56
64
75
68
53
27
43
47
50
66
66
69
73
62
63
69
69
50
58
79
66
66
47
44
58
55
52
82
76
54
53
59
65
54
68
78
57
56
51
59
57
61
56
60
62
55
56
63
57
48
82
96
69
73
58
67
66
59
67
62
57
60
64
67
64
59
62
67
64
55
54
53
66
68
72
59
49
46
60
54
56
84
71
52
61
64
52
49
51
56
55
64
59
59
49
54
64
60
57
69
81
92
84
59
52
52
50
64
58
53
59
73
67
56
51
57
52
65
65
68
70
66
65
46
67
62
73
67
51
60
76
83
78
49
71
65
64
60
70
66
78
98
79
83
86
86
82
86
82
87
83
83
77
80
95
83
82
84
91
67
61
72
66
72
74
74
52
59
71
68
78
70
70
66
70
54
42
65
55
50
57
55
62
62
46
42
55
79
75
67
69
71
67
61
66
64
51
37
57
49
44
50
51
62
76
78
103
146
175
202
216
227
242
240
242
228
194
155
110
27
14
-10
4
-3
-23
-21
-19
4
21
27
32
30
45
61
51
49
57
59
64
65
50
50
58
73
68
68
66
63
46
52
46
62
66
64
63
64
77
89
77
68
74
65
64
77
74
62
62
79
88
80
72
79
64
69
70
55
49
68
58
66
70
61
61
67
73
81
81
81
83
86
90
83
77
78
67
67
85
84
67
75
88
83
91
82
83
85
88
104
120
113
99
106
93
87
90
87
89
106
111
104
103
115
107
116
105
97
106
105
106
115
123
119
121
107
108
109
111
131
127
123
116
104
105
101
117
122
123
113
107
94
105
74
94
98
97
92
99
89
82
80
78
84
83
88
79
75
86
79
79
72
69
79
71
40
48
62
63
56
69
74
81
78
63
68
58
66
62
65
69
68
71
66
73
58
69
65
56
49
62
61
63
59
51
58
63
64
71
71
86
74
69
63
68
57
51
56
71
64
75
65
51
43
69
82
77
69
66
67
69
69
74
78
56
52
66
78
71
67
68
75
81
61
68
69
76
76
72
81
79
60
63
73
68
69
71
76
81
84
62
67
69
71
61
52
50
57
73
64
71
74
63
71
66
67
62
74
77
78
56
68
65
83
76
71
59
63
65
72
57
60
69
96
88
61
47
72
64
69
62
79
58
63
77
62
61
71
72
68
67
66
63
66
67
72
69
65
54
64
60
64
67
58
80
66
64
55
82
77
91
89
90
61
61
64
47
64
77
82
83
60
48
63
62
67
82
86
67
65
81
78
64
71
69
70
74
81
84
85
97
89
94
88
87
86
78
78
69
89
102
93
83
77
79
90
93
93
81
81
91
80
86
88
57
56
76
88
83
76
63
78
82
70
73
70
49
47
66
75
73
73
60
76
63
58
63
63
61
61
76
60
54
46
57
59
74
67
60
67
74
65
63
81
103
129
159
189
200
233
253
234
238
261
240
178
142
88
47
31
22
-1
12
-2
18
17
19
41
65
61
69
72
52
56
50
57
74
76
78
80
70
45
53
49
43
53
70
62
67
74
71
71
73
52
69
62
94
79
74
87
80
83
80
72
70
50
70
79
76
86
79
63
80
104
88
71
66
57
66
58
62
86
95
92
68
88
93
74
75
78
71
70
75
79
80
105
94
84
90
76
78
70
68
77
95
90
81
101
90
104
106
98
90
108
103
124
115
113
114
117
111
110
96
129
135
134
138
121
123
125
99
107
120
102
102
105
140
128
116
102
112
120
112
114
127
127
107
107
97
97
100
114
94
79
75
91
87
100
85
68
100
91
82
80
86
92
96
68
79
77
59
61
74
72
65
72
82
82
89
70
63
63
63
61
68
97
82
56
53
78
60
59
58
71
70
69
71
71
70
83
57
65
79
68
59
80
72
60
67
77
74
68
63
71
77
61
64
69
80
79
68
79
68
69
76
81
67
80
65
53
56
58
69
68
66
65
67
72
66
63
57
75
90
79
65
88
80
75
68
72
77
81
84
79
89
81
55
48
47
73
96
96
91
83
92
89
72
60
70
80
70
70
71
75
77
72
73
57
48
33
55
82
70
87
82
70
60
44
75
79
88
85
58
87
88
82
75
64
85
80
66
50
66
66
66
71
81
85
81
72
73
79
75
76
76
75
73
71
55
57
58
60
54
47
60
69
64
70
73
79
67
67
76
74
80
74
74
91
90
65
72
73
71
81
110
92
83
65
69
51
58
71
73
62
75
59
71
73
76
83
97
84
75
79
94
79
82
82
78
84
87
85
93
105
108
96
88
85
87
90
93
80
82
80
95
89
79
80
90
96
88
69
85
92
82
67
71
79
84
70
81
85
74
80
75
75
85
91
78
70
53
34
34
61
63
50
51
63
75
94
78
67
80
63
60
55
38
53
62
59
52
63
74
104
127
151
183
210
233
250
255
255
270
253
213
179
110
55
33
34
31
41
26
13
1
5
16
45
44
45
48
29
52
72
67
66
65
62
63
63
66
66
70
80
76
73
93
78
76
84
63
60
76
64
51
57
71
69
82
92
79
78
68
83
60
49
72
82
80
71
66
77
80
74
71
71
86
87
71
59
53
68
67
76
80
89
95
99
76
84
89
90
83
79
95
99
94
78
66
79
90
100
81
83
79
80
90
101
97
95
92
95
90
102
117
99
88
93
109
108
114
115
114
126
119
110
104
78
103
129
125
119
114
119
123
123
129
121
134
146
131
112
121
117
113
110
90
96
100
105
99
109
103
94
101
104
94
99
106
77
62
71
81
76
87
90
94
85
57
52
37
52
69
61
69
77
78
59
67
79
73
61
65
77
70
69
68
74
75
62
42
71
88
69
72
59
61
61
76
73
68
64
70
52
50
61
81
80
65
67
65
82
76
73
71
68
60
55
73
62
60
48
61
64
53
50
80
74
74
86
58
75
75
57
62
62
50
73
67
55
61
79
64
77
70
71
62
70
74
61
63
72
73
76
77
73
84
64
64
80
62
76
69
90
76
62
69
62
60
47
49
61
75
85
79
75
71
70
68
83
60
59
51
64
65
65
67
75
70
49
54
65
52
52
77
69
63
73
56
63
71
76
68
56
63
66
49
66
77
74
73
67
66
71
81
76
67
68
72
64
49
45
48
52
76
75
75
67
63
72
74
52
63
60
57
69
53
57
48
49
50
69
67
73
73
69
67
54
61
65
70
79
77
77
80
82
85
69
59
47
73
70
70
71
103
85
74
74
83
94
93
91
90
94
74
74
93
71
52
76
84
91
94
83
75
78
72
75
98
79
77
75
73
62
62
66
64
59
56
56
59
46
46
70
80
73
72
59
48
53
48
61
54
57
56
62
79
76
41
64
64
48
70
57
35
22
38
62
72
84
107
123
131
164
206
236
234
242
214
214
223
195
143
83
46
12
-11
-1
3
-9
5
3
-6
5
14
32
39
30
14
22
35
61
67
68
81
77
55
66
60
73
72
57
62
67
54
44
49
55
72
75
54
47
63
64
56
52
56
69
61
66
57
73
64
91
85
53
57
66
71
65
57
70
60
48
82
71
74
66
59
68
65
73
54
74
70
71
71
69
66
59
69
61
64
74
65
59
75
85
92
86
80
91
93
88
86
97
90
79
98
97
101
92
92
90
81
98
97
93
107
106
98
101
109
109
96
99
97
99
101
112
113
99
106
102
115
118
105
98
99
111
112
94
99
89
89
90
103
84
101
102
91
87
77
86
86
78
84
76
80
74
53
46
55
73
67
64
70
62
69
69
60
51
44
64
38
45
53
60
59
66
52
46
55
65
56
57
61
56
34
47
58
60
60
68
68
55
50
48
58
59
49
44
65
68
56
64
51
70
70
70
49
68
63
38
42
46
54
52
51
50
40
45
58
57
51
48
49
57
58
58
51
57
62
71
58
51
62
68
68
59
59
48
54
56
45
59
80
55
56
62
37
55
77
76
78
70
32
52
63
41
35
58
49
47
19
23
45
40
46
55
43
39
52
50
55
58
59
59
57
57
58
75
74
56
54
33
29
27
41
47
50
46
47
45
65
58
64
48
68
40
47
62
69
70
38
41
35
37
37
21
28
49
42
32
40
39
36
54
51
45
39
25
55
50
67
68
60
53
36
45
60
50
42
45
39
46
47
43
49
54
44
37
39
49
49
49
33
44
72
66
69
67
61
62
68
67
53
65
62
64
62
73
72
49
66
68
56
56
66
69
74
66
51
39
33
19
19
37
34
24
35
35
50
58
65
64
61
45
27
26
38
28
30
39
25
32
34
26
30
27
18
24
32
36
40
28
31
46
35
23
25
34
19
47
78
91
94
127
151
190
196
205
214
231
204
173
108
67
11
-2
-20
-26
-35
-34
-42
-40
-20
-8
-8
-7
17
33
14
9
22
33
37
23
11
8
18
29
22
31
43
36
24
33
52
38
21
23
23
31
26
32
22
22
40
39
30
12
40
44
38
24
21
49
42
35
36
38
45
42
38
30
36
32
35
31
35
43
40
47
46
37
25
28
54
48
24
28
30
29
39
27
30
36
34
33
46
39
49
46
53
33
26
44
56
48
58
53
45
57
69
80
101
96
78
76
71
61
51
44
61
72
70
70
62
66
75
65
70
59
65
70
71
73
71
68
69
70
62
73
57
48
46
45
70
67
69
65
51
69
56
38
47
53
65
63
55
30
32
17
28
34
18
15
11
14
14
24
17
11
10
19
22
22
28
25
8
14
15
18
20
-3
23
12
18
38
16
27
34
34
14
29
30
18
16
35
8
8
5
-4
5
7
3
20
23
32
34
32
19
16
14
8
-9
9
6
8
16
16
5
12
21
15
16
9
14
20
9
12
31
18
6
19
21
13
8
10
12
-2
16
18
12
27
23
29
16
27
21
9
14
22
18
13
12
9
12
9
16
14
17
28
17
17
19
7
-7
-5
-11
-6
-1
10
13
4
8
3
-7
18
-1
3
-2
9
21
25
11
20
9
14
2
14
15
14
8
20
10
-4
4
8
-4
13
14
8
0
-15
1
11
30
21
-1
-4
-20
-12
-2
5
6
-16
8
-2
1
3
-22
-1
-7
1
8
27
9
23
24
8
11
0
-10
2
11
14
1
3
3
18
19
19
24
24
15
27
17
17
8
9
2
9
24
34
24
25
28
26
30
31
28
20
9
5
6
14
19
22
4
5
14
2
10
14
18
2
10
6
-18
-18
-6
-15
-15
-1
-7
-2
-7
-12
-7
10
2
-18
-4
-3
-14
-18
-8
-11
-23
-15
-6
-4
-6
-8
-17
2
-7
7
34
56
77
100
119
152
173
174
166
190
187
184
137
49
-33
-55
-71
-74
-69
-72
-91
-79
-70
-51
-32
-36
-23
-21
-19
-16
-1
-23
-14
6
16
-2
-10
-18
2
-19
-8
-11
-18
-11
-4
30
4
4
3
1
7
11
-12
-19
-14
-13
-11
-16
-1
4
2
11
1
12
-6
-9
-13
-5
2
-3
10
0
8
6
2
0
7
0
-8
-6
5
12
20
19
10
12
7
10
-2
-11
11
10
23
22
17
24
10
-6
-4
9
6
-4
-9
6
16
-3
28
28
32
40
25
14
17
35
55
56
56
50
55
45
44
28
39
37
38
31
40
52
43
45
56
51
30
43
56
47
44
41
36
32
30
24
33
43
32
24
13
22
10
19
20
5
12
19
4
10
13
17
3
3
7
9
11
-13
-3
11
7
4
1
-10
-3
14
13
15
7
7
-1
1
-8
-14
1
7
6
16
9
-4
-7
-18
-26
-25
-14
-5
-8
-13
-20
-2
-2
-16
-4
-14
-14
-2
9
9
2
-4
-4
3
-1
2
5
-6
-6
-10
1
-6
-3
-6
-9
-7
-1
2
6
21
-7
-11
7
2
6
3
6
-11
-2
9
-13
2
9
-2
-19
-2
2
-4
-1
0
1
10
2
-11
-18
-3
-14
-9
14
1
-5
9
2
-11
7
2
-11
0
6
-2
1
6
4
-14
7
-1
-5
-18
-13
-19
-7
-7
-5
-13
11
-1
-11
-4
1
10
5
-10
4
3
-11
-11
1
-21
-8
-3
-16
-5
-15
-6
-4
6
4
-4
8
6
7
-10
2
-1
-1
8
17
12
23
24
21
-6
-2
15
29
37
25
33
12
5
13
3
13
36
35
29
23
18
18
22
5
4
9
25
7
6
-26
-16
-5
5
-6
-9
-25
1
7
0
-6
-19
15
8
-3
-8
-10
-2
-24
-12
-7
5
13
6
5
13
19
11
-4
-15
-30
-29
-3
-6
-30
-22
-19
-28
-21
3
18
50
59
85
118
160
166
183
176
176
176
158
122
63
11
-25
-54
-64
-55
-64
-68
-45
-57
-37
-35
-12
-17
-23
-9
-5
-20
-13
-15
-35
-11
5
-1
-12
-1
-9
2
3
-1
-5
22
2
10
13
-5
-17
-15
-2
11
21
3
11
13
-19
-12
-8
1
4
7
7
19
20
13
-1
-4
10
7
15
6
6
5
6
3
20
25
13
16
20
23
22
10
-5
0
-4
12
11
3
10
16
16
23
42
16
27
32
25
20
21
31
31
49
45
34
44
37
26
39
41
27
32
40
43
43
47
61
51
51
58
45
51
53
36
44
62
71
54
56
36
50
45
51
56
62
54
39
55
48
54
45
50
45
35
32
35
26
14
34
39
21
17
31
32
27
14
2
-11
2
13
17
15
24
26
17
14
-6
-6
0
4
10
-5
-3
13
10
-5
14
2
5
5
11
22
3
3
3
1
2
-3
1
0
5
15
11
11
4
-1
-6
6
8
2
-20
-10
-2
-5
8
2
12
16
33
12
-9
6
-15
-14
-9
0
11
12
11
25
-4
-18
6
15
7
14
7
1
10
8
5
13
15
21
16
4
-2
15
18
-5
-8
9
12
-5
7
3
9
11
13
9
2
9
13
1
9
12
-1
5
17
5
1
7
10
4
-3
9
17
25
18
4
-1
11
22
4
18
15
-2
8
18
19
13
18
20
-4
-22
-4
-14
-4
7
-5
1
10
-8
0
2
6
2
19
16
0
14
15
9
16
22
30
25
27
11
8
0
4
12
9
15
27
30
31
45
45
22
38
18
15
28
31
29
28
12
23
20
20
21
25
24
28
12
14
6
9
18
20
13
3
3
11
8
10
6
0
2
-4
-2
12
20
10
13
16
1
-7
-3
-5
1
2
-7
-25
-5
20
22
-1
3
0
-2
5
-4
-23
-25
-17
-6
15
30
34
72
95
115
151
175
187
188
181
178
151
113
69
-2
-42
-58
-49
-52
-66
-65
-58
-52
-55
-45
-40
-20
-33
-28
-14
0
-1
-3
-6
-5
8
15
8
16
-6
-3
8
-12
-3
15
14
-3
-2
15
21
14
-3
-17
16
19
11
12
7
14
12
19
0
7
22
7
-4
10
9
19
20
14
-9
2
19
40
41
27
8
-5
-5
19
34
20
20
-6
17
22
0
2
10
15
18
17
13
14
28
43
27
21
31
25
20
33
34
23
20
40
32
34
50
63
40
17
26
31
33
43
29
42
42
66
59
52
58
67
59
65
62
74
65
58
52
63
56
66
56
54
51
59
54
44
42
30
50
56
20
38
43
41
43
47
39
53
42
27
-1
-1
-7
-11
14
13
5
15
20
13
33
26
18
11
26
-2
13
21
15
13
7
19
7
5
11
4
19
18
17
3
-1
13
7
-2
2
8
6
7
-2
0
2
11
21
10
16
11
7
-7
-16
-8
-4
5
0
10
-2
3
17
9
8
11
12
22
21
16
18
6
3
1
10
20
27
43
22
1
5
9
13
24
32
28
19
4
3
22
15
14
10
17
15
7
20
9
14
0
11
8
16
15
20
21
27
17
8
13
20
21
17
15
13
17
17
11
26
43
28
25
18
2
-1
12
22
10
5
17
13
1
12
19
14
23
23
-6
-6
19
11
3
26
19
11
28
27
20
10
15
38
24
7
17
10
32
32
30
21
30
28
43
50
39
7
21
39
18
28
48
50
36
22
20
20
30
33
47
43
17
28
17
24
15
2
26
22
12
15
15
23
21
11
15
21
31
21
29
25
5
16
21
7
2
12
11
11
2
8
0
7
6
-14
-2
3
9
13
14
20
11
7
2
9
11
13
37
41
56
85
122
140
165
176
173
197
192
165
128
102
35
-25
-55
-58
-59
-69
-58
-40
-42
-60
-52
-26
-9
-31
-11
0
-5
3
1
12
-6
-8
6
12
18
7
12
-2
8
20
13
15
22
21
25
15
15
6
18
11
12
6
13
14
16
10
10
5
22
19
17
32
53
31
21
15
18
6
17
25
19
21
25
13
13
24
23
21
22
27
29
27
12
3
18
29
33
25
22
12
26
27
30
43
30
20
17
17
44
43
49
56
46
57
56
53
54
54
43
40
42
43
46
55
66
56
52
49
57
72
55
54
73
73
72
72
76
69
60
51
65
62
58
61
71
54
63
67
50
44
39
29
39
25
17
43
43
26
14
37
13
22
30
19
25
13
12
22
10
13
10
14
9
5
12
30
13
24
5
28
29
16
18
15
7
-11
-5
7
-2
2
-12
-10
10
11
22
12
-1
12
15
10
-9
-4
13
-7
-4
-2
-12
-8
9
10
4
1
18
20
0
8
-9
3
5
-5
-16
0
1
-1
0
8
8
-4
10
7
18
33
17
6
10
2
22
5
10
8
16
22
16
7
-8
6
-13
-15
12
6
0
-7
8
11
22
5
5
16
11
10
1
-4
-12
-1
3
6
-4
21
20
8
-1
1
-7
-10
-1
4
10
-5
-15
-19
-2
14
15
10
2
-4
6
-1
23
21
4
14
11
1
13
14
14
9
16
21
-3
-9
-8
-2
-8
7
14
1
10
24
-1
17
23
7
8
20
16
27
7
17
13
49
28
14
0
9
2
20
6
-17
-8
-3
3
-2
5
21
12
25
5
-6
-8
-17
-31
-19
-15
-20
-12
-5
0
-9
-22
1
9
8
-15
-14
-14
-16
-26
-39
-19
-15
-15
-20
-17
-17
-12
-19
-23
-9
18
25
60
92
102
131
154
165
168
159
169
143
92
49
-25
-51
-67
-58
-65
-74
-87
-85
-69
-74
-51
-23
-21
-8
-26
-22
-17
-11
-8
-31
-31
-28
-23
-9
-14
-22
-8
-25
-26
-20
-10
-22
-47
-25
-12
-9
-10
-21
-25
-16
-9
-14
-27
-22
-20
-15
-9
-16
-18
-1
-26
-15
4
-6
-8
-18
-17
-21
-19
-6
12
13
6
2
-16
-36
-41
-22
-18
-12
-20
-19
-6
0
-12
-4
1
-23
-16
2
-3
-11
-2
9
1
-7
-1
-10
-7
12
30
32
17
18
13
5
18
13
-4
5
15
-2
7
11
13
20
24
10
4
34
29
28
39
39
24
26
23
29
30
34
9
17
39
10
20
21
17
8
5
5
13
25
18
13
-3
-8
6
-12
-9
-15
-18
-12
-4
-12
-6
-28
-28
-31
-17
-28
-37
-38
-34
-34
-37
-27
-50
-42
-22
-33
-21
-16
-6
-24
-44
-48
-36
-44
-49
-50
-52
-38
-32
-32
-46
-23
-21
-22
-13
-16
-26
-34
-42
-39
-24
-25
-36
-30
-43
-43
-31
-31
-35
-50
-37
-32
-49
-39
-21
-23
-35
-55
-59
-47
-39
-49
-54
-45
-41
-29
-38
-45
-31
-36
-41
-36
-67
-48
-42
-27
-29
-22
-16
-48
-39
-31
-20
-30
-27
-30
-29
-31
-50
-64
-44
-28
-33
-25
-25
-42
-44
-32
-25
-34
-26
-25
-28
-28
-39
-33
-36
-40
-46
-46
-33
-47
-39
-49
-37
-43
-51
-46
-56
-56
-44
-53
-47
-55
-49
-46
-51
-37
-43
-46
-22
-14
-25
-31
-34
-30
-49
-40
-40
-34
-37
-19
-35
-17
-13
-20
-28
-12
-15
-14
-6
-9
-9
-19
12
-13
-32
-37
-44
-35
-33
-30
-44
-41
-59
-57
-45
-37
-40
-41
-26
-26
-52
-50
-53
-57
-37
-56
-67
-53
-58
-52
-51
-52
-51
-45
-42
-56
-74
-55
-41
-32
-47
-61
-53
-34
-40
-50
-53
-57
-59
-54
-54
-33
-27
6
41
63
99
131
152
150
147
158
127
95
29
-33
-81
-94
-102
-95
-85
-116
-121
-102
-67
-61
-66
-63
-52
-52
-58
-61
-67
-79
-69
-48
-41
-39
-38
-49
-25
-46
-46
-52
-31
-49
-49
-58
-55
-54
-47
-43
-47
-46
-36
-51
-54
-47
-53
-48
-43
-40
-54
-68
-55
-60
-62
-53
-32
-53
-48
-50
-58
-52
-66
-52
-51
-47
-37
-36
-33
-38
-45
-31
-40
-42
-45
-47
-41
-55
-30
-25
-48
-38
-24
-34
-24
-23
-35
-30
-37
-33
-31
-17
-24
-24
-9
-1
-22
-21
-16
-22
-12
-21
-23
-21
-27
-22
-7
-1
-7
-23
-12
-4
8
-3
12
18
1
0
10
-17
-17
-16
-12
-9
6
-5
-23
-23
-15
-15
-9
-15
-11
-9
8
-14
-9
-10
-25
-35
-22
-3
-16
-47
-49
-50
-65
-60
-59
-49
-49
-47
-38
-54
-60
-55
-57
-64
-59
-48
-43
-32
-31
-43
-58
-59
-47
-36
-50
-48
-68
-55
-51
-59
-58
-52
-29
-34
-25
-33
-54
-62
-50
-63
-61
-58
-67
-48
-45
-45
-40
-44
-46
-57
-57
-50
-47
-44
-43
-63
-63
-71
-63
-64
-66
-59
-65
-54
-46
-39
-62
-60
-58
-45
-42
-43
-50
-56
-46
-45
-51
-75
-71
-56
-58
-46
-49
-51
-29
-29
-37
-43
-62
-72
-65
-48
-40
-30
-48
-53
-49
-78
-74
-57
-67
-52
-47
-45
-47
-44
-28
-28
-44
-65
-61
-46
-48
-46
-42
-33
-48
-48
-59
-58
-67
-53
-54
-58
-46
-62
-54
-64
-63
-57
-68
-52
-61
-49
-40
-40
-41
-46
-53
-37
-32
-50
-51
-56
-54
-52
-44
-52
-43
-33
-44
-46
-53
-51
-49
-34
-36
-34
-46
-50
-30
-38
-44
-34
-47
-29
-11
-17
-16
-34
-26
-30
-43
-31
-33
-36
-26
-28
-32
-33
-39
-40
-59
-46
-48
-31
-26
-46
-45
-48
-43
-48
-46
-52
-56
-56
-54
-61
-69
-45
-48
-61
-61
-39
-27
-55
-54
-62
-49
-45
-59
-56
-48
-45
-55
-57
-84
-89
-71
-58
-67
-52
-23
-10
14
33
72
129
153
155
149
136
133
110
69
22
-34
-55
-96
-96
-104
-115
-104
-87
-77
-89
-77
-58
-53
-52
-49
-52
-53
-44
-61
-90
-71
-50
-56
-52
-44
-48
-52
-51
-46
-43
-45
-54
-40
-35
-38
-37
-35
-47
-60
-64
-64
-60
-48
-46
-36
-34
-23
-26
-19
-11
-32
-62
-59
-37
-55
-50
-35
-30
-26
-46
-35
-32
-20
-27
-38
-54
-63
-39
-50
-50
-31
-28
-28
-23
-22
-12
-31
-35
-23
-26
-20
-12
-19
-17
-22
-16
-22
-24
-46
-30
-13
-10
-3
-13
-31
4
1
-8
0
6
6
3
9
9
-1
10
15
4
5
3
-5
1
12
26
27
19
5
17
13
35
30
13
7
15
-4
5
18
5
-4
-3
7
0
-9
-16
-5
-16
-23
-24
-19
-21
-27
-20
-19
-37
-28
-17
-28
-30
-39
-28
-28
-12
-33
-18
-18
-1
-10
-27
-30
-19
-6
-1
-27
-37
-44
-39
-38
-31
-25
-46
-61
-34
-45
-40
-28
-40
-40
-22
-33
-34
-38
-39
-51
-45
-39
-46
-45
-44
-34
-30
-22
-20
-36
-38
-29
-20
-36
-40
-38
-39
-24
-20
-32
-16
-16
-23
-20
-13
-25
-33
-22
-12
-11
-30
-46
-35
-28
-18
-28
-33
-40
-42
-53
-49
-39
-38
-31
-32
-21
-12
-11
-29
-35
-32
-28
-17
-28
-29
-24
-18
-26
-32
-25
-17
0
-10
-23
-38
-38
-44
-35
-34
-35
-18
-16
-8
-10
-38
-35
-21
-40
-25
-32
-34
-13
-7
-30
-39
-35
-23
-26
-34
-36
-24
-21
-23
-25
-26
-16
-21
-23
-25
-28
-27
-41
-33
-17
-24
-29
-17
-29
-25
-31
-35
-25
-25
-35
-7
1
-21
0
-6
-13
-27
-26
-6
1
-6
-16
-10
-20
-5
10
-1
-21
-19
-8
17
24
-11
4
-8
-13
-3
2
-3
-19
-2
-19
-32
-33
-28
-31
-22
-6
-24
-23
-20
-26
-30
-28
-22
-19
-25
-28
-32
-20
-16
-18
-22
-29
-29
-39
-13
-17
-37
-49
-44
-30
-40
-41
-24
-27
-28
-27
-28
-36
-44
-48
-50
-26
6
27
48
75
97
116
164
184
167
160
155
136
97
47
-26
-52
-63
-54
-76
-90
-75
-55
-66
-63
-48
-43
-31
-56
-50
-42
-46
-47
-36
-24
-14
-16
-22
-22
-30
-13
-19
-32
-26
-19
-23
-16
-32
-15
-33
-24
-30
-42
-36
-19
-23
-24
-6
-12
-17
-22
-20
-27
-32
-13
-7
-18
-25
-22
-18
-7
-5
-21
-22
-4
-15
-5
-16
-22
-26
-19
-9
-14
-8
3
-2
17
1
-16
-32
-15
-37
-17
-5
0
3
4
4
2
14
-1
-3
-3
-2
-13
-2
-8
-9
-13
20
27
10
24
41
30
12
11
3
9
38
24
23
26
35
44
38
56
54
39
21
23
8
12
32
32
35
57
54
40
28
19
23
19
16
