-3
-10
-6
-2
1
-9
-8
-6
-14
-13
-12
-18
-12
-3
-7
-17
-18
-18
-16
-15
-10
-17
-13
-12
-17
-13
-10
-23
-29
-28
-28
-22
-15
-17
-29
-28
-22
-24
-25
-28
-22
-24
-22
-22
-25
-24
-29
-24
-24
-20
-24
-24
-23
-22
-20
-27
-25
-23
-16
-22
-29
-42
-41
-28
-23
-31
-22
-20
-37
-25
-33
-35
-29
-24
-33
-42
-41
-35
-33
-28
-26
-28
-34
-36
-31
-31
-32
-34
-31
-34
-30
-31
-30
-35
-33
-37
-37
-39
-38
-29
-34
-31
-30
-35
-30
-26
-29
-35
-41
-37
-36
-32
-31
-36
-32
-37
-36
-41
-37
-32
-36
-35
-34
-32
-34
-34
-41
-37
-35
-34
-31
-38
-33
-29
-32
-38
-39
-35
-40
-38
-32
-30
-39
-36
-32
-33
-34
-33
-32
-35
-32
-26
-26
-28
-26
-25
-26
-33
-30
-27
-27
-32
-25
-24
-26
-26
-18
-11
-11
-13
-12
-16
-17
-16
-14
-12
-16
-18
-15
-17
-20
-14
-18
-20
-14
-16
-19
-19
-18
-23
-20
-26
-33
-30
-32
-28
-28
-35
-39
-32
-31
-34
-28
-33
-33
-28
-30
-34
-31
-27
-32
-32
-34
-37
-34
-35
-34
-36
-37
-33
-16
-24
-21
-20
-13
-8
6
24
41
53
69
98
114
124
134
142
133
119
107
92
47
18
-2
-15
-27
-63
-85
-79
-68
-63
-54
-43
-36
-35
-36
-37
-36
-31
-26
-26
-26
-26
-26
-29
-23
-35
-40
-29
-28
-24
-28
-28
-24
-26
-29
-30
-28
-24
-25
-22
-23
-22
-22
-28
-22
-26
-25
-18
-20
-23
-21
-16
-11
-14
-14
-21
-23
-14
-13
-10
-9
-9
-9
-14
-8
-4
-10
-8
-5
-5
-7
-12
-7
-1
1
4
-3
-1
4
-2
6
6
9
10
11
13
15
12
19
25
26
23
24
23
30
32
34
37
39
42
45
51
53
55
56
59
53
60
60
60
64
60
62
64
62
58
60
62
56
59
61
57
56
55
50
51
43
38
33
27
21
19
17
17
21
17
12
7
7
8
4
-4
-5
-5
-8
-13
-15
-16
-12
-12
-19
-15
-16
-18
-17
-17
-14
-19
-24
-15
-17
-19
-20
-20
-27
-24
-18
-22
-24
-16
-13
-19
-19
-20
-23
-24
-23
-20
-22
-18
-24
-25
-16
-15
-21
-21
-13
-12
-15
-20
-14
-23
-22
-20
-17
-18
-17
-22
-18
-15
-17
-21
-18
-13
-13
-16
-20
-15
-15
-18
-20
-16
-15
-15
-9
-13
-19
-14
-14
-14
-11
-11
-16
-13
-15
-14
-20
-12
-13
-15
-11
-6
-14
-15
-13
-15
-13
-16
-18
-17
-8
-10
-12
-7
-7
-8
-11
-9
-11
-15
-16
-19
-13
-6
-7
-14
-9
-9
-14
-10
-11
-14
-12
-8
-9
-19
-16
-14
-8
-4
-11
-10
-11
-8
-17
-12
-13
-12
-9
-9
-14
-7
-4
-6
-8
-16
-10
-9
-4
0
-9
-12
-2
-11
-13
-4
-15
-2
-10
-19
-12
-17
-5
-4
-15
-7
-14
-11
-11
-11
-5
-8
-10
-11
-13
-4
-2
0
2
7
-2
0
-5
-3
3
1
-8
-4
5
7
8
8
10
7
6
4
7
9
5
6
7
12
13
18
16
25
31
20
19
18
22
20
18
18
20
19
22
18
13
22
20
14
19
13
15
15
16
11
12
9
8
7
-6
5
8
0
5
-4
-1
-3
-3
4
1
-2
-1
2
3
3
6
1
4
2
8
3
3
-1
4
8
3
12
15
22
47
62
79
93
116
142
156
176
188
208
210
199
182
166
136
94
66
43
22
-1
-37
-46
-35
-28
-12
3
5
15
15
10
12
23
23
32
30
27
35
29
28
30
42
36
38
39
31
33
37
37
39
33
33
32
36
39
45
35
42
38
42
45
43
44
42
44
41
42
55
49
47
51
52
49
53
57
54
62
60
63
58
53
52
58
55
58
62
63
74
66
66
70
74
73
72
83
86
82
84
87
78
81
83
88
99
105
106
115
100
104
102
115
116
118
120
128
123
125
131
134
139
141
146
143
140
145
145
150
148
147
147
147
149
148
148
146
146
142
137
139
133
128
130
125
122
116
111
109
103
105
102
95
86
86
85
81
76
75
70
72
67
63
63
60
61
53
60
59
51
47
49
45
54
53
52
57
43
54
54
42
44
52
41
48
45
46
53
49
47
52
53
56
48
35
43
49
51
44
48
39
46
49
55
49
51
54
58
57
55
54
52
52
47
51
54
58
52
55
56
61
55
57
54
54
54
53
59
59
51
58
64
67
61
58
68
62
66
72
66
65
69
69
65
66
68
74
69
71
69
69
70
65
72
74
76
72
78
80
77
73
80
75
74
77
73
74
75
76
77
73
77
72
71
74
79
74
77
76
78
77
80
79
70
67
75
75
75
75
72
73
76
64
73
78
74
74
68
71
72
61
67
60
66
67
68
67
64
69
70
72
72
75
70
72
84
79
82
75
91
79
84
79
86
85
87
90
97
106
102
91
98
95
96
98
94
87
87
90
86
86
88
88
88
86
90
83
85
80
76
73
75
71
67
71
70
68
68
63
64
67
67
67
64
65
59
62
69
64
63
66
66
61
59
69
62
65
64
70
69
70
71
68
70
78
87
107
132
156
177
212
242
273
305
328
344
332
311
290
243
194
147
106
71
22
-6
-8
-4
-2
6
22
36
49
66
74
65
58
75
78
75
68
73
73
78
70
71
75
72
77
80
79
76
75
74
75
79
74
76
82
80
83
80
84
88
92
84
82
84
88
86
83
87
89
90
91
92
90
97
99
96
91
94
93
96
97
105
107
106
105
100
104
105
107
106
113
112
116
120
119
118
117
121
125
127
129
135
139
134
131
137
141
142
151
153
156
155
163
162
162
166
169
171
172
177
184
179
181
183
185
185
186
184
183
185
183
184
189
187
192
182
176
182
175
170
177
169
161
160
152
147
139
140
133
131
124
117
123
112
110
115
101
97
100
97
89
97
84
85
83
83
87
82
78
75
76
78
82
76
75
78
75
72
76
78
72
73
75
68
73
75
78
77
78
69
68
74
74
71
76
73
72
72
71
73
72
74
72
72
71
75
72
72
73
74
73
73
75
76
73
73
74
76
80
82
77
80
78
75
69
67
71
78
78
74
71
68
73
76
72
71
70
65
71
71
72
73
69
68
64
70
71
69
62
69
68
72
70
64
62
69
70
62
65
67
67
59
68
70
71
70
62
57
55
62
60
66
68
56
61
58
59
59
61
64
62
58
64
62
56
68
66
62
68
66
64
67
70
70
70
67
70
69
70
80
72
73
82
79
79
88
89
88
89
81
87
84
82
79
81
77
79
78
72
70
74
75
78
65
71
70
65
64
60
56
57
63
58
51
52
53
47
56
53
53
57
59
58
58
57
49
54
56
55
50
56
54
52
51
55
51
56
56
61
61
62
70
81
106
127
150
173
203
243
271
293
304
315
306
287
248
205
151
121
89
52
8
-34
-28
-25
-4
-1
15
35
37
48
48
58
55
60
63
60
60
66
65
65
54
62
60
68
50
60
62
60
55
62
60
62
61
64
67
70
69
67
62
69
69
67
67
72
71
74
76
74
74
78
68
73
75
80
82
78
78
77
85
78
80
78
84
84
86
83
82
84
92
95
92
100
100
96
97
99
105
102
101
107
112
108
117
119
123
117
122
128
126
130
135
129
131
134
146
146
146
143
152
158
156
155
156
155
157
154
164
159
156
164
157
156
155
153
151
149
152
143
143
142
135
127
126
117
111
110
111
109
104
97
93
86
87
87
76
71
73
67
69
69
61
55
62
58
49
50
62
58
57
50
47
46
51
45
46
50
47
48
43
48
46
50
50
39
43
48
50
44
43
45
47
47
46
39
48
47
45
47
42
44
36
49
49
47
46
40
46
36
39
43
39
40
38
42
39
39
37
41
43
42
46
39
39
38
37
40
40
39
40
37
36
40
42
33
40
36
34
37
36
37
35
34
31
30
36
40
30
31
39
43
34
36
38
35
35
35
30
34
34
37
34
34
34
25
34
35
32
33
35
32
30
39
35
36
36
32
35
40
39
39
33
36
37
36
41
43
51
51
58
57
49
47
55
49
49
48
43
45
49
47
43
43
44
41
44
46
39
45
34
34
32
27
24
23
26
27
27
25
23
19
14
25
25
23
19
24
26
22
25
21
20
19
15
17
18
20
20
22
21
23
27
24
30
37
50
66
87
106
123
136
163
189
200
205
212
198
186
173
148
98
73
51
13
-8
-37
-45
-40
-26
-19
-9
4
12
16
14
16
26
27
27
23
25
23
21
18
18
21
20
23
28
24
18
22
25
21
19
30
26
25
26
30
27
24
27
28
32
31
27
32
34
34
26
31
37
32
31
36
35
29
39
40
36
38
40
40
40
46
46
45
43
41
43
42
51
50
54
53
50
55
52
57
55
58
59
65
64
66
62
70
76
69
73
78
83
82
88
88
84
90
90
87
95
100
97
100
108
105
106
110
109
104
109
109
108
110
108
107
111
107
104
98
94
91
89
87
89
83
80
78
80
69
63
62
53
56
53
51
41
42
46
45
39
31
29
34
32
29
26
28
29
27
24
19
21
18
21
21
13
14
19
21
19
18
20
14
16
18
22
23
16
13
24
21
21
19
18
13
13
20
21
20
25
18
13
17
20
16
18
18
18
17
21
21
17
16
17
16
20
26
18
16
17
22
17
20
20
17
16
18
20
15
23
26
26
21
24
23
21
19
19
20
18
19
15
16
15
16
16
22
20
17
15
14
13
15
16
15
20
20
11
11
17
18
16
14
18
19
22
21
20
22
25
26
19
16
22
19
20
25
31
28
32
32
31
33
34
30
30
31
35
27
27
31
31
28
25
25
26
23
28
28
26
12
16
15
17
17
14
9
4
1
8
9
10
11
10
8
10
3
4
6
8
4
4
4
7
6
9
4
5
9
4
5
8
8
10
19
25
36
49
68
82
110
126
144
167
187
189
192
176
160
151
122
79
54
26
0
-23
-42
-49
-46
-31
-33
-14
-7
-5
2
2
1
9
13
7
11
9
7
10
9
15
6
-3
-1
5
11
10
7
7
9
11
10
9
9
9
9
12
15
14
13
15
10
13
17
19
19
14
18
12
16
18
14
25
24
20
22
22
23
26
25
25
23
25
31
31
25
34
31
29
35
31
38
38
36
36
39
39
46
49
51
50
50
51
56
57
61
60
64
64
67
68
73
76
80
77
77
82
82
81
87
91
91
92
94
85
96
96
90
90
92
92
92
89
85
87
83
80
77
77
74
60
64
62
58
55
50
46
41
41
41
34
29
25
25
19
19
20
13
18
19
15
10
14
7
7
6
8
9
6
6
3
2
4
3
-2
-3
11
7
7
0
3
2
-1
-3
-1
3
7
4
-3
3
-1
-1
-2
-4
-1
3
3
4
1
-2
3
1
4
3
-2
1
3
3
0
1
4
-1
0
-1
0
0
4
4
3
8
-3
-1
-4
7
2
2
-1
2
0
4
5
8
5
10
3
4
-1
1
-1
5
3
2
3
0
4
3
3
2
4
2
4
6
8
3
6
12
16
9
9
9
7
4
5
9
13
16
14
16
20
21
17
14
13
18
20
20
14
11
18
15
17
18
9
18
13
10
9
10
11
5
3
6
-3
-6
-4
-5
-9
-4
-4
-6
-5
-5
-7
-6
-3
-7
-8
-8
-2
-5
-8
-5
-5
0
4
-3
-9
-3
-1
-3
-5
3
17
19
39
56
74
90
111
132
157
164
170
174
165
157
145
114
76
48
27
1
-21
-44
-51
-43
-43
-35
-20
-19
-13
-2
-6
-5
3
2
0
-2
0
0
0
-2
-3
0
9
3
-4
-5
3
6
6
-5
0
3
3
3
4
7
5
7
4
1
5
9
12
13
3
7
7
5
8
17
15
11
9
6
13
18
18
15
13
16
18
20
20
20
19
22
27
23
23
25
24
27
28
24
32
34
32
31
34
38
43
42
48
49
51
52
54
54
59
63
60
65
70
70
71
77
82
76
79
78
82
88
89
85
87
90
85
83
80
86
88
88
80
84
81
74
72
66
65
66
66
60
53
50
44
34
35
35
30
29
27
25
17
20
24
21
14
15
11
12
6
5
9
9
7
9
0
1
-4
6
3
2
7
1
-6
-2
0
2
-8
-3
5
1
0
-1
7
1
-3
-2
-3
1
-2
-4
0
-2
-5
1
2
-1
-2
-2
4
0
-1
-5
-1
4
9
3
1
-3
-3
0
2
2
4
4
2
2
3
1
2
5
3
2
3
5
1
5
6
7
3
0
1
12
5
2
7
11
8
0
4
5
8
8
10
10
12
11
13
15
10
13
15
14
11
14
16
17
18
18
13
15
20
15
21
22
26
22
17
11
20
22
18
17
22
18
23
24
20
24
19
24
20
15
12
15
9
3
4
4
4
1
0
-2
-2
1
1
5
2
2
0
-1
-6
-5
5
3
-4
-2
0
-2
3
-3
-4
-4
3
3
1
4
8
17
25
46
60
75
95
111
133
152
168
174
181
168
162
151
123
84
51
31
11
-2
-30
-47
-39
-35
-23
-15
-9
-7
-1
0
-3
3
4
6
5
12
11
5
0
3
6
8
7
11
3
4
5
10
3
8
5
4
7
10
14
14
11
12
8
9
14
14
15
15
14
14
16
16
15
18
17
19
19
22
22
23
25
18
18
23
27
23
29
27
20
20
32
34
32
31
37
35
37
36
33
41
42
40
47
46
53
49
54
54
54
59
60
63
68
71
74
71
72
78
83
84
81
81
88
90
93
90
93
92
93
93
92
89
92
90
86
90
83
79
74
76
77
70
65
65
63
63
53
50
43
41
41
38
35
33
27
23
26
27
21
15
17
19
14
14
14
13
9
11
12
8
8
8
7
8
10
8
7
14
7
5
8
6
5
3
5
12
9
10
8
6
9
5
3
2
9
3
7
6
5
5
11
7
5
6
5
6
3
8
7
7
8
6
7
5
4
8
12
10
4
9
7
4
3
1
9
12
13
10
10
5
10
9
3
4
2
6
4
7
5
5
1
2
9
11
5
6
7
4
5
9
8
4
7
7
5
5
8
6
5
3
1
1
0
7
6
4
2
5
0
4
1
2
7
6
10
9
11
6
6
8
10
4
8
8
13
12
11
8
5
7
15
16
13
17
15
18
22
16
16
18
16
18
17
16
12
16
18
15
12
8
8
11
13
14
11
4
3
-1
-9
-4
-2
-6
-13
-4
-2
-4
-10
-10
-3
-5
-3
-8
-9
-6
-8
-4
-4
-10
-11
-9
-6
-8
-4
-6
-4
-1
-1
3
11
26
41
62
84
98
122
145
160
167
174
179
163
158
143
106
71
38
18
9
-8
-40
-48
-47
-46
-38
-28
-13
-9
-9
-5
-9
-8
-1
-2
-4
-3
-5
-10
-10
-6
1
2
-1
-3
-4
-7
-1
2
0
-5
-2
4
-1
-2
1
4
-2
0
2
2
1
5
1
5
2
6
9
7
1
4
5
5
7
12
13
15
10
12
10
16
17
14
16
16
18
19
18
23
23
18
23
25
28
27
33
33
39
35
32
40
43
43
39
41
45
55
56
55
53
60
61
61
65
73
69
78
78
72
73
82
79
79
82
87
81
94
90
83
77
85
85
80
82
76
71
68
71
68
66
61
56
51
51
45
42
42
41
35
33
24
18
23
22
16
15
15
20
17
14
12
8
6
10
5
8
6
9
7
10
4
5
0
5
8
5
10
2
1
6
9
5
8
4
0
2
9
7
3
8
9
8
6
11
4
7
8
6
3
10
7
6
3
9
5
6
5
13
12
4
6
7
7
9
6
4
6
6
5
9
5
5
6
3
5
3
9
13
8
6
3
3
6
10
11
12
6
7
7
9
7
4
12
9
9
9
6
6
9
9
6
9
9
11
4
8
13
9
1
5
8
4
2
7
2
8
7
5
3
8
5
4
7
5
4
6
5
5
0
3
3
5
7
3
1
0
-3
2
5
6
2
2
0
1
-1
3
6
4
3
2
-1
6
4
4
0
3
1
3
9
4
-2
-2
3
5
6
8
5
0
3
-1
0
3
5
-1
0
3
7
4
2
2
0
0
3
1
2
1
-1
-3
1
7
2
0
0
0
5
3
2
-3
1
1
3
5
4
6
9
7
5
6
4
11
9
8
11
10
14
8
9
14
16
21
25
25
22
24
24
24
21
19
17
10
15
14
15
12
14
21
20
14
9
9
10
11
5
3
6
5
3
3
-1
-1
1
1
0
-3
-3
-1
-3
0
3
1
-4
-3
-1
2
0
-1
-5
1
3
-5
-2
2
-3
-2
4
4
1
10
18
28
54
67
85
95
122
147
168
178
181
181
177
169
153
121
83
53
37
26
-2
-29
-41
-36
-31
-20
-7
2
0
2
-1
-4
1
7
8
6
8
2
3
2
2
1
4
3
4
7
5
5
0
8
8
5
9
14
10
8
12
10
10
10
10
13
8
15
15
17
10
12
14
19
16
16
19
15
19
23
15
18
22
22
20
20
21
28
24
28
30
27
29
28
30
31
33
36
39
40
37
37
39
41
46
52
50
54
47
56
60
61
59
63
62
69
74
71
72
76
84
82
85
87
90
87
87
92
92
94
96
92
92
94
93
96
99
90
90
90
87
86
84
82
73
71
67
67
65
65
56
53
48
45
42
39
39
34
34
29
30
26
24
22
24
22
18
18
20
20
16
14
17
16
14
16
15
12
14
14
13
11
9
11
17
13
15
12
6
13
14
8
15
15
11
8
12
12
14
13
12
14
13
9
7
9
4
7
17
13
9
8
10
11
9
8
8
12
7
9
8
4
12
7
11
12
11
9
7
9
8
10
10
10
9
10
5
11
10
10
4
9
12
12
17
14
12
12
16
11
8
14
16
6
12
8
7
12
12
15
10
9
12
11
12
13
15
11
9
12
10
10
10
10
14
7
8
8
13
8
8
8
7
8
8
10
7
10
9
12
10
5
10
6
6
9
13
12
9
10
5
7
10
10
7
13
10
7
8
6
11
9
5
8
11
11
8
10
9
8
8
12
11
10
7
10
9
5
10
7
4
13
6
8
9
10
9
9
9
13
5
8
8
6
9
10
7
7
7
10
11
12
7
5
5
8
13
14
11
8
7
10
8
9
17
17
17
18
17
13
15
19
20
16
17
22
23
29
34
36
27
25
24
27
32
29
24
25
23
24
24
22
20
19
23
17
24
22
23
23
15
15
15
12
10
13
13
12
13
8
7
10
8
11
9
9
12
12
5
9
8
6
7
7
7
3
7
11
11
7
8
6
6
11
11
12
11
12
13
16
23
39
55
75
91
112
133
149
171
185
195
193
187
180
164
130
89
64
45
34
14
-23
-37
-26
-21
-19
-3
9
15
10
8
9
13
16
18
14
17
14
17
16
17
17
13
17
20
16
17
22
23
17
16
17
16
16
21
29
26
18
20
20
25
18
21
22
20
21
36
33
27
25
27
29
30
28
26
31
38
34
38
32
32
37
37
38
40
39
40
39
41
39
38
43
43
45
58
45
57
60
59
57
62
68
66
70
72
75
75
80
82
84
83
84
89
94
97
96
98
102
105
99
105
108
108
110
116
116
115
112
115
110
113
109
108
114
101
109
108
108
104
97
95
89
86
87
80
68
71
73
62
60
56
56
51
51
45
44
42
44
38
38
37
36
36
33
33
31
30
27
29
31
30
28
22
29
31
30
32
27
28
30
29
24
26
28
28
25
24
27
27
27
23
23
27
27
22
25
23
25
24
28
25
22
21
25
26
25
26
24
27
25
21
25
24
27
24
24
24
26
24
20
30
25
25
28
26
27
27
25
27
28
26
24
30
31
29
28
27
26
27
29
31
26
34
29
28
30
30
26
17
28
29
30
29
27
25
28
30
27
28
29
22
27
27
28
23
24
29
32
29
22
20
21
30
34
30
27
22
32
28
27
28
22
26
26
25
24
28
28
24
26
24
25
27
26
25
27
30
27
32
24
24
22
26
27
26
28
29
28
24
24
26
22
33
32
29
27
24
24
28
26
25
25
29
23
26
26
25
24
21
25
25
25
26
25
23
25
26
28
31
26
26
22
26
25
28
30
25
25
26
24
23
27
25
25
25
26
28
29
26
25
26
28
24
25
26
27
24
25
25
20
28
33
28
25
29
26
23
23
33
26
25
25
28
32
35
35
37
35
30
30
29
31
30
35
41
40
41
42
45
44
43
44
48
48
49
48
45
43
43
40
39
40
40
44
47
43
44
40
40
32
34
34
32
25
27
29
26
30
26
30
27
29
29
22
30
27
24
23
25
25
23
24
24
26
31
27
25
22
21
20
22
26
22
25
26
24
28
29
25
28
29
37
47
66
86
102
114
136
161
185
193
204
213
200
191
183
154
122
80
63
59
39
2
-17
-19
-6
1
5
17
22
26
27
26
25
33
39
39
35
32
28
30
32
30
31
37
31
31
35
32
33
33
40
36
31
36
38
37
38
40
39
40
39
39
41
45
41
44
45
39
40
46
41
47
45
44
43
44
43
45
44
53
55
50
44
48
55
52
57
54
56
55
55
55
56
60
65
66
63
63
65
68
68
70
75
75
79
82
88
87
89
89
94
93
101
97
104
97
101
113
113
111
112
117
119
118
119
119
120
120
120
122
122
121
128
122
119
119
118
111
111
109
106
103
94
86
92
90
90
84
76
75
75
67
63
60
59
58
53
55
52
50
49
45
43
46
42
39
40
38
38
41
36
35
35
40
36
33
31
36
38
41
34
38
37
35
33
39
34
33
27
34
35
37
35
37
33
36
31
31
31
33
35
33
35
39
31
33
34
34
35
31
33
37
34
33
31
31
34
36
35
36
35
38
37
39
37
38
38
36
38
37
36
42
36
31
38
39
41
39
41
37
35
44
41
39
44
38
35
38
42
42
38
42
35
41
36
41
36
36
41
38
34
37
35
35
38
41
38
37
36
37
33
37
39
42
39
39
36
35
40
38
36
30
36
38
39
34
30
32
37
30
37
38
37
34
39
32
35
37
35
31
36
38
32
33
37
37
35
35
37
32
35
37
34
31
35
30
27
32
37
37
34
33
34
31
29
35
30
31
32
34
39
35
34
33
35
32
24
32
32
34
34
30
33
35
35
33
34
35
35
35
36
30
33
35
31
26
32
34
34
36
37
40
28
23
32
29
32
34
40
32
35
30
33
33
35
33
29
28
32
30
38
37
35
31
33
31
30
27
32
33
35
36
35
34
30
31
37
39
38
35
40
39
36
35
37
36
41
43
41
46
48
52
52
52
48
51
48
53
50
49
48
48
45
43
45
44
44
45
43
45
42
42
39
38
37
33
33
32
25
24
29
31
28
31
28
28
25
26
27
25
23
29
31
27
27
23
28
28
23
30
27
21
21
21
28
24
25
25
30
27
28
32
43
60
69
88
107
125
154
170
188
202
208
212
200
196
180
144
107
76
60
48
19
-14
-26
-15
-7
3
13
24
28
22
23
28
29
28
32
30
29
35
35
29
32
31
30
26
31
32
35
36
36
36
34
33
31
34
38
37
40
36
37
35
41
40
37
43
44
38
43
43
45
44
39
47
47
46
48
46
45
50
46
52
54
46
48
52
52
52
51
53
58
57
60
64
63
62
65
60
65
70
68
69
68
67
74
79
80
80
82
87
90
93
96
99
98
98
103
107
107
110
111
112
120
118
116
120
124
119
123
126
123
117
125
129
129
124
116
117
112
120
116
112
108
100
97
96
98
92
89
85
76
76
74
70
68
65
60
59
58
56
52
43
47
47
46
45
41
43
41
37
40
40
36
38
34
41
40
35
32
35
39
38
38
36
36
32
35
33
34
33
33
37
32
33
34
35
33
37
33
34
35
34
32
32
35
38
33
34
37
39
35
32
37
40
34
33
37
34
38
36
35
36
34
35
36
39
38
39
37
39
42
38
39
34
37
39
37
36
36
36
37
40
47
39
41
38
39
45
43
41
33
35
38
41
39
38
37
39
40
40
36
39
36
34
39
37
35
40
39
37
33
32
35
35
41
40
39
38
41
34
31
35
34
34
35
36
35
33
36
39
37
31
34
36
32
35
35
36
34
40
33
32
32
36
35
40
37
36
36
35
34
35
35
37
35
36
36
35
36
33
34
33
32
38
38
35
35
35
40
29
33
36
35
33
35
33
35
37
40
36
31
37
34
39
34
38
38
38
36
34
35
41
36
36
33
32
36
34
36
32
31
39
36
35
33
36
40
42
33
31
34
36
39
34
38
38
34
40
38
36
37
34
38
40
44
37
33
30
35
33
36
39
38
36
39
36
38
43
37
35
37
35
34
32
38
38
40
42
34
31
36
37
41
41
40
38
37
42
40
41
43
41
42
43
47
45
42
44
43
53
56
58
58
57
52
57
61
60
58
61
57
54
51
51
50
52
55
55
53
48
50
49
42
46
47
43
41
34
34
34
41
36
34
33
34
34
35
33
36
41
41
35
32
32
34
41
42
35
27
34
34
36
33
36
33
37
40
39
36
45
50
61
79
101
111
134
162
189
203
215
221
223
214
204
192
162
123
93
70
52
34
2
-10
1
5
15
24
29
35
38
30
36
38
47
45
49
44
39
43
44
41
44
46
43
44
49
41
44
45
48
47
47
44
44
48
55
54
48
50
50
51
54
55
51
55
53
57
55
57
50
55
52
54
61
56
62
64
62
55
59
64
66
62
66
64
66
69
70
69
68
70
68
68
74
80
73
74
84
83
80
83
84
91
93
89
91
97
99
97
103
104
105
105
112
113
117
119
119
124
123
125
128
133
132
131
134
136
133
132
138
135
135
134
136
135
133
132
129
121
122
121
117
116
113
109
107
104
94
92
90
80
80
76
73
76
79
72
69
59
60
58
57
62
54
54
56
53
52
46
48
44
39
48
47
50
54
52
46
50
50
46
42
43
50
42
42
48
44
40
43
44
39
42
45
43
53
49
44
40
40
40
43
47
41
46
47
45
45
48
49
46
46
45
49
49
48
47
48
49
47
45
43
45
49
50
52
48
47
49
49
48
50
52
49
47
48
47
48
50
50
44
50
50
51
51
51
46
48
49
47
47
49
48
47
49
49
48
45
51
44
45
45
48
44
49
47
41
44
46
49
47
45
45
42
44
50
46
43
45
43
44
44
48
45
48
44
41
46
45
46
43
42
43
41
47
45
43
40
41
42
44
43
39
43
42
37
44
42
43
42
44
45
40
41
46
49
43
44
44
35
37
37
39
44
42
40
38
43
44
42
35
38
42
39
41
44
38
42
41
42
40
41
42
38
39
38
39
41
39
41
42
43
37
41
41
46
43
43
39
35
39
44
41
43
40
42
39
41
36
41
36
42
42
46
40
37
35
40
39
43
43
44
43
36
43
44
38
37
43
38
44
44
42
42
39
42
44
44
44
47
50
51
50
52
49
51
43
46
49
48
56
60
55
64
67
60
65
64
61
57
57
59
58
62
57
54
54
54
59
59
56
55
53
50
50
43
43
41
34
39
44
37
35
44
44
35
38
40
42
37
35
39
41
41
37
35
39
40
34
37
32
31
42
37
39
40
43
43
45
56
69
81
99
117
133
150
180
201
204
211
216
202
194
184
154
114
86
61
38
24
-5
-13
-11
-2
1
19
31
34
28
32
40
38
42
42
40
40
44
42
40
39
40
40
40
46
44
42
45
44
43
47
45
47
49
47
49
49
50
46
47
53
49
51
53
53
50
50
54
51
53
53
53
56
54
56
57
58
62
59
53
56
61
62
65
63
64
63
67
72
67
68
72
69
71
75
75
74
79
76
79
80
82
81
88
94
90
91
96
92
97
103
104
107
113
110
107
114
118
124
124
120
125
129
130
132
134
135
135
130
134
136
129
135
141
130
129
133
127
125
121
121
120
116
109
104
99
102
96
87
88
87
81
84
78
69
72
68
66
64
62
57
56
60
49
51
54
54
53
50
48
53
48
48
48
45
43
50
45
43
43
44
43
43
44
43
42
41
45
49
47
49
43
40
44
44
41
43
39
40
40
42
44
42
42
40
44
43
43
44
47
50
45
43
45
46
44
41
43
45
45
45
45
45
47
47
44
45
45
46
49
50
49
48
48
42
42
47
48
47
52
48
47
46
47
46
47
47
44
43
43
42
44
47
46
46
43
41
39
44
50
45
42
44
45
46
43
47
41
37
43
40
39
46
49
46
41
43
39
40
40
40
41
45
42
44
41
40
37
41
42
43
42
40
44
40
35
34
37
41
41
41
43
41
39
36
34
35
38
40
38
38
37
42
40
31
36
37
38
39
42
38
36
37
37
35
36
34
40
39
37
36
36
39
38
35
36
39
34
36
35
35
36
37
35
35
35
35
35
40
38
32
35
39
33
36
36
32
37
31
30
34
35
35
33
33
40
37
32
34
34
36
36
37
33
35
34
34
35
40
37
33
37
36
35
31
41
33
33
33
35
34
36
38
35
35
38
36
33
36
37
36
35
35
34
37
37
34
34
36
30
36
39
39
40
39
36
42
40
41
44
40
50
46
45
44
46
46
48
49
51
54
53
56
59
56
59
56
53
53
50
50
50
50
50
55
51
45
48
54
51
43
45
45
42
40
41
36
31
36
38
35
35
35
29
36
33
31
31
30
36
36
35
33
32
33
29
31
33
35
33
34
39
36
32
39
49
50
73
95
113
121
144
165
186
201
209
216
207
192
181
163
124
91
64
51
33
-3
-16
-18
-7
-1
12
21
23
29
34
29
33
37
36
37
40
37
34
40
37
33
35
39
38
39
35
40
36
40
38
40
40
42
46
38
37
41
41
42
41
44
44
46
45
51
51
45
39
40
45
49
56
54
50
49
51
48
54
52
50
51
56
57
57
60
59
57
59
63
60
57
61
61
65
70
67
69
71
74
79
75
71
81
83
82
86
87
91
89
87
89
97
97
100
110
108
109
114
113
115
114
121
120
122
125
120
125
126
128
122
128
129
121
127
125
123
120
121
120
117
114
115
108
103
99
97
90
89
86
82
78
74
71
67
72
67
62
60
58
55
52
56
53
47
49
46
43
46
44
40
41
39
41
41
41
42
39
42
40
38
38
39
38
36
38
34
28
43
35
34
35
37
39
41
40
38
36
37
37
36
33
33
36
41
41
35
41
29
32
38
34
37
38
44
43
37
38
37
35
35
39
38
34
42
38
40
38
39
38
35
38
38
41
43
38
38
44
38
39
38
39
34
37
41
39
38
41
39
35
35
37
37
38
41
36
32
38
36
33
34
38
36
34
33
35
38
37
33
34
34
32
37
36
38
34
33
34
33
32
36
35
30
34
34
30
32
34
28
27
31
37
33
32
35
34
34
29
32
29
28
32
31
29
31
35
33
31
28
30
29
28
30
29
31
35
33
36
29
23
26
28
32
32
31
28
29
26
27
33
32
24
32
26
32
29
30
31
30
29
26
26
27
30
29
32
29
27
27
32
28
28
28
32
28
35
31
31
31
29
26
32
27
29
32
30
30
34
25
24
27
31
29
29
27
28
28
29
27
28
27
24
24
29
29
27
30
28
28
29
31
34
33
30
27
30
37
32
29
29
28
23
29
32
26
28
28
24
31
26
33
34
33
36
34
31
36
34
38
34
38
36
39
42
40
36
45
47
49
50
54
47
47
55
54
52
51
48
48
45
52
48
46
41
42
41
43
43
35
39
38
36
36
30
27
26
26
32
27
30
27
31
31
29
25
27
24
26
27
28
23
24
25
26
29
27
27
25
24
31
28
29
34
43
46
67
82
97
125
145
163
180
196
199
204
199
189
176
153
112
80
53
41
24
-11
-33
-26
-20
-10
3
12
20
24
21
21
24
25
29
32
32
31
27
29
34
33
33
31
24
28
28
29
33
36
33
32
33
32
32
32
36
34
31
34
38
35
38
39
38
37
38
36
38
39
47
40
43
43
45
44
48
45
42
47
44
47
47
51
52
49
48
50
58
53
57
56
59
56
57
57
61
60
62
64
71
67
66
69
74
77
79
82
81
86
85
90
96
95
90
95
103
106
105
107
110
106
111
111
111
120
123
119
119
120
119
120
120
115
117
119
116
120
113
115
113
107
102
99
95
93
92
93
82
80
75
70
66
66
62
57
56
59
58
51
48
45
43
40
38
41
40
34
37
33
35
38
34
29
29
32
36
33
31
27
32
36
31
27
24
32
32
28
25
27
26
30
28
22
25
28
29
30
33
29
29
31
31
29
26
25
26
32
29
27
24
37
36
29
30
29
22
32
36
31
25
32
31
23
30
31
33
28
23
29
31
33
34
28
27
34
34
30
29
32
24
29
31
30
31
33
30
30
31
29
27
28
26
25
28
29
31
30
28
28
27
28
28
25
22
28
30
22
21
30
29
25
20
24
26
31
27
28
27
26
25
26
25
28
25
25
19
26
27
23
18
23
25
22
20
21
24
31
26
19
21
25
26
20
22
22
18
23
21
21
15
21
21
28
23
22
18
21
22
26
22
20
15
19
25
21
20
22
20
23
23
20
20
20
22
24
23
23
21
22
23
22
19
20
17
20
21
19
22
20
22
17
20
20
21
24
20
21
21
20
17
17
20
24
18
20
23
22
20
22
18
21
25
23
20
18
23
17
24
20
19
22
17
19
19
22
23
25
28
21
25
28
23
31
32
27
27
29
29
28
24
33
32
32
31
30
41
45
41
41
43
45
39
40
38
39
37
38
33
40
37
31
38
43
40
37
34
31
29
30
27
27
25
26
18
24
20
23
21
19
18
17
15
18
22
20
22
23
13
12
15
12
15
15
19
23
21
18
20
16
15
18
22
18
21
23
35
40
55
75
87
100
124
146
169
181
192
202
194
172
161
145
103
75
51
25
4
-23
-38
-38
-34
-24
-14
-1
2
12
18
15
21
24
25
20
23
25
24
23
23
21
19
28
27
23
21
20
21
26
29
27
27
31
31
27
24
31
32
29
30
30
29
32
32
33
34
36
33
31
34
30
35
39
41
38
38
40
39
40
45
43
42
40
40
42
45
44
44
49
50
53
54
54
53
51
59
59
62
62
62
63
64
67
67
67
77
76
81
84
80
81
93
93
90
88
94
98
101
104
103
105
109
108
111
110
114
114
113
119
119
116
113
119
116
112
111
114
112
110
108
103
100
99
89
87
86
89
82
79
73
65
63
58
56
53
53
51
50
45
47
46
38
37
35
32
30
32
30
31
28
28
35
33
26
24
22
24
29
23
27
21
22
27
24
24
22
23
24
24
23
22
23
26
25
22
25
24
24
23
26
26
23
25
27
23
21
22
22
22
25
23
28
30
21
24
26
29
29
33
24
23
26
26
27
28
26
22
24
23
26
28
28
30
26
27
25
27
27
30
24
27
29
25
28
20
25
25
29
29
22
27
20
25
26
23
25
29
22
20
23
23
18
20
28
26
21
19
25
25
24
21
22
19
23
25
20
22
23
23
23
21
22
22
18
16
16
28
28
21
17
19
21
20
24
18
22
18
20
22
19
20
23
15
16
16
16
20
20
19
19
17
20
19
19
21
20
24
22
20
18
21
23
17
16
18
19
20
20
18
25
22
21
17
22
23
23
17
17
15
18
19
24
13
19
19
18
24
23
19
20
15
14
18
19
21
18
17
21
22
22
23
21
18
24
21
17
21
26
27
26
25
27
21
28
26
28
31
30
31
30
25
30
36
39
43
43
46
45
41
37
42
39
31
37
41
40
43
39
33
34
36
32
36
34
37
29
34
32
24
29
24
20
22
17
21
18
22
22
21
18
15
18
14
13
14
14
19
21
19
14
16
16
16
11
15
20
19
17
17
17
23
25
25
32
41
58
75
89
105
126
146
165
183
191
195
189
177
165
143
104
73
45
20
8
-17
-37
-42
-34
-20
-12
3
10
10
16
17
14
25
25
17
23
28
25
24
21
23
23
22
21
19
27
26
25
23
23
27
28
22
29
27
27
24
24
29
27
30
29
37
34
31
32
33
33
29
31
33
32
42
40
38
40
39
38
42
39
36
37
47
46
40
39
44
45
50
45
49
55
51
52
55
60
56
57
59
61
62
69
67
67
66
69
73
81
81
81
83
87
88
89
88
98
100
99
103
105
103
106
111
110
109
111
112
110
113
118
116
113
115
115
114
111
106
105
106
102
98
100
93
92
87
82
78
80
76
71
66
64
59
61
56
50
46
41
39
42
41
42
41
38
35
29
30
33
28
26
26
30
32
32
26
22
24
27
29
23
20
22
22
22
24
28
22
23
23
23
24
22
23
17
22
26
19
16
24
26
25
24
20
17
25
23
28
26
27
29
28
29
26
23
26
24
25
23
25
28
25
28
24
27
27
27
27
23
24
26
26
27
26
27
25
26
25
27
24
24
27
27
24
22
30
26
23
24
22
21
26
26
22
26
26
23
22
24
31
25
23
24
23
21
19
21
25
22
23
22
22
21
22
24
21
18
18
18
18
22
23
22
23
21
17
18
19
17
22
20
21
20
18
19
18
17
21
22
17
19
21
19
19
20
20
19
13
16
19
22
21
17
15
16
19
18
22
20
16
17
20
22
17
9
12
11
13
19
18
19
17
16
18
15
17
18
17
19
13
19
19
11
17
22
17
15
15
20
21
14
17
17
15
16
18
10
16
16
21
18
18
21
19
23
20
23
27
29
23
22
26
25
19
27
24
26
27
30
35
35
39
42
42
42
39
34
34
34
36
37
36
32
26
39
32
33
29
30
32
30
25
30
27
27
23
19
16
22
21
19
16
10
13
14
14
12
11
14
18
16
15
10
16
13
11
15
11
13
14
20
14
12
12
17
17
18
20
31
38
55
71
88
108
122
149
169
176
190
196
188
175
158
138
100
65
42
22
6
-28
-46
-39
-31
-20
-15
-4
7
8
8
16
22
20
16
20
24
20
18
20
15
13
18
20
19
18
25
22
23
25
19
18
22
24
22
23
24
25
21
29
24
27
27
29
26
25
35
31
35
32
30
28
34
29
36
37
36
32
38
36
36
35
41
38
45
45
45
43
42
44
44
45
50
50
52
53
51
53
57
60
63
59
62
61
58
68
71
72
76
77
77
81
87
87
84
84
88
99
98
101
99
106
107
100
106
108
103
110
112
114
112
114
111
112
111
106
104
101
108
106
98
98
98
95
89
80
79
76
74
69
60
67
64
58
54
49
43
42
40
45
43
39
36
33
33
39
27
30
30
25
26
28
26
23
24
24
25
24
16
20
23
26
23
17
20
17
22
19
20
20
23
23
24
23
24
21
22
22
22
16
23
21
22
23
24
22
22
23
25
22
22
23
24
27
27
22
25
25
22
19
26
25
26
27
28
20
24
24
26
21
26
22
22
23
27
30
26
24
25
23
23
27
28
26
24
23
25
24
26
23
24
23
20
21
23
19
21
20
24
25
29
21
22
21
19
16
22
21
19
20
26
21
21
21
16
15
20
25
16
16
21
24
24
23
22
16
19
23
18
20
22
22
18
18
17
17
15
18
22
16
21
21
15
13
19
15
19
18
20
22
20
14
14
18
16
14
15
17
15
19
19
13
18
18
18
17
18
22
14
17
20
18
15
18
15
17
17
22
17
15
12
19
20
15
20
20
19
23
18
15
20
15
14
16
13
21
20
19
18
22
20
18
27
34
29
29
28
24
21
27
30
29
29
35
35
36
42
39
35
35
38
41
37
34
38
37
41
33
37
37
34
31
31
30
30
27
26
24
25
23
23
18
15
15
20
16
18
16
13
22
21
14
15
18
12
14
16
21
20
19
16
14
13
16
19
14
18
22
22
25
32
36
54
72
89
103
123
144
170
182
189
197
191
176
164
142
106
70
43
20
6
-22
-43
-39
-39
-26
-13
-4
1
13
12
13
18
19
22
22
18
20
20
22
27
22
16
20
19
21
22
20
24
24
24
21
22
23
23
26
23
24
26
25
26
25
29
27
25
31
31
28
33
36
28
30
33
33
31
34
37
37
38
39
31
36
38
40
40
45
46
42
46
46
47
43
50
45
48
55
57
51
58
59
60
60
61
61
66
68
71
72
71
77
80
80
83
84
85
88
90
95
98
95
100
102
105
103
105
106
114
113
113
114
108
104
106
108
109
111
109
103
105
102
100
98
95
87
84
82
77
80
74
67
60
60
64
54
50
48
47
46
45
39
39
37
32
30
37
26
28
30
27
27
29
27
23
21
22
24
20
22
21
20
20
19
19
16
16
23
19
20
21
22
14
18
16
17
23
20
19
20
22
20
21
24
25
19
17
20
16
23
22
22
16
16
24
21
24
23
19
20
24
23
16
17
19
24
24
22
21
21
25
21
22
20
19
22
22
18
20
20
22
19
20
22
19
17
21
21
22
24
22
18
13
21
25
19
19
24
19
18
20
17
17
22
17
18
12
17
20
20
18
14
15
14
16
15
16
19
15
19
19
17
18
14
14
18
15
18
17
17
15
17
9
10
11
13
16
17
16
21
17
15
14
17
8
15
10
9
15
20
16
13
20
18
16
15
15
13
12
15
13
13
7
15
16
14
19
11
14
12
14
12
11
13
12
16
14
9
13
18
17
16
15
15
13
13
16
15
11
12
12
12
12
19
20
18
17
21
19
18
18
23
25
22
23
21
21
22
23
26
27
29
34
33
32
36
40
35
33
30
38
32
35
36
32
31
31
35
34
28
26
26
30
27
24
25
20
20
21
19
15
11
11
11
10
17
13
12
13
15
15
10
13
11
7
11
14
13
14
13
13
11
7
9
14
17
16
23
27
37
48
65
82
94
120
137
157
175
183
192
189
175
165
149
114
74
50
25
10
-15
-45
-44
-39
-36
-24
-10
-1
9
11
9
12
20
21
20
17
18
21
12
20
14
15
18
20
20
20
22
20
21
24
18
20
26
24
27
23
27
25
21
22
24
24
27
28
24
28
29
30
32
31
32
31
31
35
36
36
30
31
34
37
34
37
42
47
40
37
47
44
45
43
47
47
48
54
53
52
58
55
54
60
61
64
68
66
66
71
76
74
77
78
81
84
87
86
85
92
95
94
91
104
100
106
107
108
109
112
105
113
114
113
115
110
111
113
111
106
103
103
104
107
104
93
93
87
84
82
79
71
71
70
64
59
59
52
49
52
47
44
42
38
40
37
35
32
28
34
30
27
27
30
26
23
21
19
18
23
19
23
27
24
23
23
18
20
22
19
18
20
20
13
25
21
23
22
22
23
22
22
24
18
18
19
21
23
24
22
19
25
22
17
14
23
22
27
19
22
25
24
23
18
22
23
23
18
21
25
27
24
24
23
18
15
21
21
19
20
22
24
25
21
23
22
18
15
17
22
23
23
23
16
16
14
19
21
19
16
20
14
22
16
14
20
20
21
19
15
13
18
17
19
17
17
12
15
15
14
12
19
20
14
12
15
18
13
8
13
13
16
10
10
17
13
9
9
14
12
13
12
16
11
13
12
15
12
11
10
10
11
16
13
12
10
13
12
20
13
12
15
11
7
10
12
10
9
13
11
9
12
14
9
12
14
11
10
16
9
10
10
14
12
11
14
8
11
14
10
11
17
14
6
12
6
9
11
16
12
13
14
17
17
16
20
20
24
25
18
22
25
22
16
24
22
25
30
34
35
37
35
34
30
30
31
29
30
28
33
30
31
28
27
26
24
26
28
27
23
21
19
19
14
14
13
11
9
11
11
14
11
9
10
12
7
7
17
16
5
9
12
8
1
8
5
12
7
18
11
10
17
18
14
22
30
50
69
86
100
120
139
161
178
186
190
184
171
158
135
97
64
37
11
-2
-31
-49
-49
-40
-32
-21
-9
-5
3
9
9
11
13
12
11
18
19
12
13
11
16
11
18
13
15
17
18
16
18
18
16
17
18
20
19
19
16
14
19
26
26
23
29
22
19
29
26
22
26
25
26
26
29
30
27
30
30
29
33
30
31
36
36
38
39
38
36
38
42
43
45
43
43
46
50
50
52
51
50
51
55
58
63
58
63
65
67
70
71
72
78
83
84
79
85
85
89
89
93
94
96
96
102
107
105
108
108
104
108
106
109
107
109
106
105
103
103
97
95
92
102
92
88
84
81
76
75
70
69
60
56
52
48
49
50
45
46
41
37
36
33
29
30
27
26
26
25
23
23
23
25
18
19
22
17
18
19
12
16
18
18
17
14
16
23
19
23
18
15
11
18
17
18
17
12
22
17
16
15
17
19
18
15
18
20
16
17
21
17
12
14
19
19
22
17
19
15
20
19
16
18
20
19
19
18
16
16
17
21
22
19
17
18
16
18
24
18
11
16
15
18
19
15
18
16
14
13
16
23
15
19
18
18
17
17
15
15
12
11
10
13
14
11
17
16
12
18
10
9
13
14
14
10
13
10
14
14
16
14
8
9
16
13
14
12
13
12
12
14
13
15
8
9
13
13
15
3
10
11
13
9
8
7
10
11
14
8
14
7
4
7
13
12
11
10
9
9
9
7
10
9
6
12
15
14
7
13
11
6
9
10
9
6
11
11
14
9
4
11
15
11
10
11
10
7
9
12
12
8
9
10
9
9
13
16
12
16
17
17
16
24
21
13
18
18
17
17
21
22
30
30
30
33
38
35
23
26
25
24
23
29
27
31
27
28
28
25
30
29
20
20
20
24
22
20
14
9
8
12
14
12
6
8
12
9
11
10
10
9
7
11
13
11
13
7
7
5
1
9
12
11
13
16
15
13
12
21
27
42
60
81
95
115
128
151
172
186
193
194
175
167
153
120
80
58
28
3
-21
-50
-50
-41
-37
-27
-12
-2
4
4
5
14
13
12
14
19
17
16
14
15
18
15
18
14
16
16
18
14
17
19
17
16
18
19
20
23
21
17
24
20
21
20
27
23
21
24
25
26
29
30
27
32
33
28
31
28
30
31
34
35
34
38
36
36
38
42
36
38
39
36
45
46
50
51
48
47
49
52
51
57
57
60
64
66
65
68
65
69
75
75
75
76
82
85
91
91
93
95
95
99
97
103
106
102
106
104
108
108
104
110
111
111
111
106
111
112
100
95
98
99
98
93
92
86
84
77
74
71
70
63
60
60
58
53
50
48
40
38
36
35
32
33
30
26
30
25
23
25
24
20
