22
23
18
15
18
7
18
18
17
20
17
14
19
16
18
16
11
15
14
14
15
16
19
13
15
13
10
12
21
24
24
25
30
23
20
21
19
21
22
33
35
31
33
36
28
26
37
22
28
28
31
33
29
28
30
32
32
31
46
40
42
47
43
43
32
22
27
23
26
23
17
20
20
21
12
10
11
14
17
19
20
19
17
16
19
16
14
17
13
22
18
15
14
12
15
15
17
20
27
26
31
31
47
59
74
82
95
117
130
149
149
157
156
133
119
111
78
36
25
-3
-30
-50
-78
-81
-68
-60
-44
-34
-20
-13
-4
4
0
2
7
10
6
6
6
6
14
10
11
13
12
9
15
14
14
13
13
15
18
16
22
21
16
22
21
18
18
29
25
23
19
32
30
28
27
31
29
27
31
31
30
35
33
33
37
40
47
44
48
40
44
46
51
49
47
58
52
59
61
57
59
67
71
75
70
74
83
84
90
88
87
81
87
90
93
95
98
96
96
98
96
98
97
98
90
88
89
88
87
93
88
86
77
76
74
66
68
65
64
61
59
61
54
53
56
48
44
42
39
35
33
31
28
29
26
30
28
31
30
27
25
28
31
26
26
28
28
18
15
17
25
23
20
23
22
16
25
24
20
16
24
24
23
21
21
22
18
21
21
20
27
16
21
20
21
19
20
21
24
22
22
20
19
16
18
24
17
13
13
16
16
25
20
12
19
18
14
17
16
16
19
20
15
17
11
12
12
18
23
15
19
15
16
15
24
24
22
23
16
21
22
21
19
26
26
29
28
32
29
24
28
33
30
31
31
29
28
26
26
31
27
26
33
35
39
32
44
34
27
27
27
27
28
14
12
18
18
14
17
16
8
4
6
14
8
9
5
13
12
12
12
8
9
8
5
10
15
13
16
8
10
7
14
18
19
19
25
34
40
61
72
81
100
116
130
149
160
150
145
129
113
95
65
34
14
-19
-38
-60
-83
-81
-67
-62
-55
-35
-31
-19
-11
-8
-4
4
7
7
5
13
11
16
13
0
6
12
10
10
5
14
10
11
17
13
10
16
12
17
17
17
19
17
22
18
19
18
22
20
27
27
29
27
24
31
28
29
29
31
42
35
32
38
34
34
41
42
41
46
52
48
52
50
55
52
58
61
61
64
68
68
70
74
75
79
84
85
84
87
93
87
95
91
97
98
99
100
94
86
98
96
92
91
95
88
88
85
76
79
84
70
71
74
70
58
62
63
59
54
52
51
50
42
36
37
43
36
33
31
28
24
29
29
26
14
22
24
23
24
24
20
19
15
22
20
21
16
22
20
16
19
24
22
21
21
25
17
17
16
20
23
22
22
17
16
18
21
19
18
20
21
26
22
19
17
21
19
13
16
15
19
15
15
19
13
16
22
20
17
19
12
14
13
17
5
13
12
15
16
17
15
16
15
14
6
8
13
16
17
21
18
23
21
24
21
25
14
19
22
24
28
27
22
22
25
23
33
38
27
23
27
34
31
29
24
25
24
21
29
30
31
34
32
29
35
37
37
33
22
25
32
28
20
15
17
14
15
22
20
15
9
15
12
16
6
11
13
19
21
15
10
10
12
7
13
16
13
11
15
17
14
21
24
26
26
32
46
62
71
89
112
120
138
154
162
159
155
138
120
105
73
38
23
-12
-29
-48
-79
-77
-65
-68
-49
-36
-26
-13
-4
-1
8
5
3
9
12
18
10
8
14
5
7
10
11
7
15
21
13
11
14
13
15
17
16
23
25
24
19
14
18
22
23
22
28
27
25
28
33
26
30
31
31
37
34
34
40
42
40
37
41
43
42
47
47
43
51
52
50
57
56
59
63
60
61
64
64
72
76
79
79
86
85
87
89
91
96
95
97
96
95
92
97
91
97
99
100
92
94
93
95
93
88
90
89
87
82
84
73
80
78
74
71
58
59
54
62
55
48
52
49
43
40
46
44
34
32
33
32
37
25
28
32
31
25
30
35
31
22
25
29
28
20
23
20
23
27
26
29
30
29
32
29
25
19
24
23
27
22
19
20
24
28
24
23
17
20
29
29
24
24
21
24
28
27
26
17
20
22
16
17
25
26
24
21
20
16
19
23
18
18
18
17
22
20
26
22
13
15
17
13
15
20
24
21
18
27
26
29
25
22
30
26
27
29
24
28
30
33
35
45
37
32
30
35
33
36
27
27
31
29
35
33
36
40
42
40
34
41
31
32
34
24
22
18
18
19
13
20
22
17
13
17
8
12
17
15
12
13
14
14
16
15
14
9
12
9
16
12
11
15
17
20
20
25
29
27
28
29
53
65
87
101
118
129
150
164
168
170
145
131
115
88
53
37
14
-21
-40
-68
-79
-71
-62
-55
-39
-32
-16
-10
-2
0
6
4
6
10
6
14
15
12
8
12
10
7
14
10
13
15
19
13
22
12
19
14
18
21
24
26
19
24
28
25
24
24
26
26
25
32
31
30
34
26
30
31
33
36
39
43
38
35
42
46
42
49
46
44
48
52
58
55
59
57
63
60
60
69
71
79
77
75
83
85
85
88
90
89
88
97
101
97
95
89
98
97
99
98
101
101
94
97
93
91
86
88
90
84
79
77
72
69
73
71
69
65
67
62
55
56
58
50
46
42
45
43
42
37
34
34
29
28
30
33
30
32
32
27
30
34
27
25
24
24
29
26
26
17
33
32
19
23
30
28
25
28
33
32
29
26
26
25
25
21
25
37
32
28
24
26
32
36
26
28
20
27
28
29
31
25
22
22
25
20
25
21
24
24
29
28
17
22
20
17
21
26
25
21
26
21
20
18
24
24
28
33
27
30
29
29
32
27
29
34
35
34
30
35
40
35
37
43
39
33
36
35
34
36
37
39
34
43
38
43
49
45
46
45
46
43
41
37
32
30
27
26
22
21
26
22
15
18
24
23
21
23
18
17
16
18
17
15
17
23
27
26
16
12
14
14
16
21
24
15
18
25
24
35
42
50
63
78
96
112
130
150
161
174
173
164
146
127
108
81
52
31
-3
-27
-42
-73
-78
-71
-59
-44
-30
-20
-10
-5
-1
-2
7
10
15
9
13
18
7
12
10
11
19
14
17
14
11
12
16
21
22
22
25
22
20
19
20
21
20
27
24
27
28
28
31
31
28
30
39
35
33
41
39
35
31
37
40
44
48
39
47
49
45
52
49
53
50
55
59
58
60
62
63
65
68
73
80
80
81
86
84
86
86
85
88
92
95
97
102
108
106
103
97
98
96
96
98
100
97
98
98
98
95
93
84
84
79
79
74
75
77
72
66
68
60
55
58
52
53
52
43
39
39
43
44
37
42
36
29
35
33
32
33
32
29
30
35
28
31
30
29
31
29
27
38
29
26
24
29
28
26
22
26
31
27
31
29
25
25
23
31
31
27
27
27
26
26
27
27
21
24
27
30
31
23
22
33
27
25
26
19
26
31
20
22
26
23
23
26
20
22
24
25
21
25
23
17
22
28
25
24
26
29
32
27
31
31
33
32
30
34
30
37
28
32
42
46
46
46
37
39
42
47
34
36
41
34
42
43
38
41
41
45
51
48
43
41
36
40
38
35
30
24
26
20
24
23
24
23
26
29
29
22
14
25
26
26
23
26
21
23
24
20
22
25
27
28
29
30
27
35
37
36
41
46
50
64
83
94
107
119
139
161
177
169
167
151
146
133
103
78
49
17
-10
-37
-62
-70
-61
-44
-35
-22
-16
-2
11
11
20
28
25
26
27
31
28
25
23
30
33
31
26
28
30
32
33
38
32
35
39
39
32
30
35
40
44
45
40
40
41
45
49
51
53
47
43
40
43
52
52
50
55
58
60
61
62
53
57
57
64
63
62
67
70
72
70
79
76
80
80
79
83
90
86
94
111
102
104
111
103
105
107
117
119
122
117
108
116
125
118
116
120
125
119
122
119
119
117
117
113
115
112
107
101
94
93
93
101
99
92
91
84
84
78
77
74
71
69
61
58
61
68
60
54
54
51
52
54
45
51
50
51
47
47
47
47
46
37
48
56
49
48
44
45
49
45
40
47
49
48
53
50
43
43
50
46
49
43
48
49
42
46
45
44
49
48
48
46
49
51
50
45
50
54
49
45
44
39
42
46
47
47
42
41
44
36
44
43
45
59
51
53
52
55
49
47
51
51
54
58
53
48
46
50
52
54
60
59
60
68
62
48
45
60
52
51
43
50
55
62
59
52
56
55
58
52
59
67
52
50
49
42
45
44
42
39
45
43
40
43
44
45
36
48
40
34
35
45
44
42
45
42
50
49
37
39
33
49
43
50
51
50
56
64
58
68
82
92
96
104
125
139
148
160
151
140
133
118
104
74
62
46
25
-11
-38
-54
-35
-29
-17
-7
-3
0
4
19
27
36
31
35
32
42
47
44
42
43
40
41
55
45
47
50
45
48
50
46
40
48
56
58
55
60
60
52
46
50
50
55
57
58
57
59
64
60
64
61
56
63
68
62
70
68
67
65
62
67
76
85
88
78
79
81
80
76
96
97
83
87
89
94
101
91
103
106
103
114
124
109
118
122
121
129
126
124
122
126
127
125
138
135
133
130
139
127
123
122
120
120
123
123
108
109
106
114
104
103
94
94
102
99
92
85
82
77
77
71
79
73
78
72
68
65
61
61
57
56
59
56
64
57
48
57
62
60
58
48
50
52
52
60
56
50
53
54
49
49
57
57
59
54
58
64
54
54
61
51
54
54
64
57
53
54
47
46
42
41
44
44
44
54
51
51
41
44
44
50
46
41
39
48
48
54
50
52
50
58
52
36
50
57
54
56
47
50
52
52
58
54
56
58
57
62
54
52
57
53
56
52
55
50
54
52
48
51
49
51
60
51
58
55
46
49
47
44
45
41
40
41
39
32
45
47
47
41
37
38
31
31
34
42
44
45
37
43
43
38
35
43
35
40
48
31
40
47
55
50
56
60
66
82
86
99
110
126
135
141
139
130
122
111
99
85
59
43
29
1
-11
-24
-33
-18
-10
-8
4
9
12
24
22
35
34
36
41
33
37
34
39
40
44
48
49
46
46
40
40
43
48
48
47
38
45
49
54
56
49
52
44
50
53
56
53
52
54
56
55
54
47
47
55
61
69
65
58
62
63
68
64
62
60
64
67
70
68
71
75
77
81
83
79
84
86
87
90
94
95
101
92
101
108
107
106
120
116
110
115
116
115
125
127
119
119
129
122
113
109
109
117
114
115
110
104
109
103
105
102
100
95
87
87
79
85
82
75
72
75
78
70
68
66
63
64
61
62
60
54
49
44
42
47
50
52
51
46
46
53
47
47
41
54
48
54
49
56
51
43
47
50
49
45
50
55
50
50
52
45
47
49
57
49
47
54
55
46
43
41
48
47
60
55
50
50
47
58
54
47
47
49
56
56
56
53
51
51
52
52
55
56
57
61
59
55
60
67
57
55
50
51
60
51
59
56
51
54
58
51
55
51
48
55
58
62
60
60
51
50
51
51
46
38
43
40
42
44
39
36
39
38
37
39
35
41
36
42
42
41
41
41
45
42
37
36
46
49
44
48
53
48
46
49
62
69
78
91
106
110
119
137
141
138
138
124
120
106
87
70
51
36
9
-5
-26
-26
-21
-15
-8
13
14
22
32
34
35
37
37
42
52
42
45
48
47
48
44
41
53
52
54
50
52
65
68
59
50
45
55
55
55
54
57
60
63
59
59
64
61
62
62
55
62
62
65
61
67
66
69
67
69
71
72
70
68
72
73
66
69
77
78
79
83
81
81
78
95
92
93
99
98
100
98
99
101
106
113
114
113
116
120
116
116
120
114
116
118
124
122
120
118
124
123
113
116
112
111
102
111
116
109
98
94
91
97
97
86
85
88
88
86
77
72
75
73
76
68
62
63
68
68
64
65
61
60
56
55
56
58
55
57
59
51
47
52
56
57
48
50
47
50
58
59
60
59
55
49
55
48
50
54
55
43
50
55
53
51
57
47
52
51
49
49
54
54
53
50
54
52
44
50
52
49
45
55
53
56
56
57
58
51
58
54
57
64
66
62
57
57
54
58
67
62
62
62
62
64
69
67
58
55
60
63
61
58
63
52
56
56
49
49
61
65
57
58
66
67
58
60
52
52
49
50
53
50
50
42
45
50
50
45
48
46
47
45
45
43
44
48
50
41
51
46
42
41
50
49
46
46
40
45
52
63
52
60
65
75
95
105
114
129
134
151
162
155
141
132
127
119
94
69
60
42
18
6
-16
-19
-2
-1
-5
4
15
22
29
35
36
39
39
40
43
46
41
43
36
41
45
47
45
43
41
45
50
48
49
49
46
49
49
47
43
51
50
57
52
55
53
52
51
53
51
58
60
50
55
60
63
60
56
60
61
67
62
67
64
62
69
71
66
67
67
65
71
80
76
72
84
83
85
88
92
90
95
100
101
101
106
105
104
108
113
106
114
112
116
122
116
121
119
117
113
111
112
110
108
113
103
103
102
100
97
89
88
90
95
81
81
84
81
70
79
76
66
65
69
68
61
56
59
59
54
57
59
52
51
52
51
57
54
56
48
48
45
51
48
51
52
51
48
46
47
44
43
49
54
52
46
48
49
47
47
52
52
48
50
52
47
56
49
42
43
49
43
50
53
48
46
51
50
52
53
55
42
44
44
52
57
52
46
45
45
45
50
49
53
49
42
51
50
50
53
53
54
54
50
49
49
59
61
54
52
60
66
58
60
56
63
63
58
54
57
54
50
48
49
54
58
60
58
51
56
54
54
59
61
59
61
57
47
42
37
44
42
47
48
49
39
42
38
41
43
44
42
43
40
45
37
44
38
37
40
36
42
47
45
43
38
38
42
52
55
58
62
73
90
94
105
122
136
147
153
155
158
144
135
123
108
76
60
54
26
13
-14
-17
-16
-5
-5
4
12
16
22
20
25
34
30
39
41
39
35
37
40
35
43
45
36
39
45
46
44
45
40
47
46
39
44
45
49
46
46
42
49
51
41
44
45
47
47
53
48
49
50
49
56
54
56
61
51
57
59
59
61
60
62
64
61
62
66
66
69
73
75
74
79
83
83
87
84
80
87
95
93
92
98
103
102
103
108
106
111
112
108
106
116
112
110
112
109
115
105
107
102
104
107
104
106
104
99
98
92
85
78
81
76
77
70
74
78
71
70
71
70
64
62
57
56
53
51
50
51
49
47
50
52
49
42
43
45
43
41
36
38
49
51
46
45
40
43
38
43
48
43
42
39
35
48
50
43
38
52
41
41
45
48
53
39
37
38
38
36
43
42
35
39
50
41
42
47
45
45
47
36
39
42
39
41
41
47
42
38
42
43
44
38
36
41
44
44
39
38
36
40
40
45
36
40
47
38
36
40
43
42
42
50
52
50
45
43
41
43
43
48
53
48
51
55
50
54
55
57
52
47
46
45
45
51
49
53
45
39
46
50
51
57
58
52
42
39
36
43
44
40
41
38
35
36
37
37
34
32
35
32
35
37
35
40
38
36
37
36
36
34
40
39
38
36
37
39
46
49
48
42
50
58
69
81
104
116
125
135
160
166
164
156
152
144
129
110
72
50
32
25
13
-23
-31
-25
-12
-7
-6
2
7
21
31
30
34
35
31
30
34
36
29
37
34
31
37
37
32
34
38
35
32
38
45
41
35
39
35
38
36
36
40
44
38
36
44
47
45
41
42
46
47
54
47
50
52
49
45
46
52
49
59
53
55
58
61
59
55
60
65
62
68
77
77
68
71
69
75
81
85
83
83
82
89
96
101
101
96
100
103
109
100
99
112
107
105
107
112
107
102
100
105
107
101
96
101
99
96
96
94
86
87
89
85
80
72
73
69
72
70
68
64
62
57
55
58
54
56
52
53
50
42
45
44
42
37
34
44
42
44
40
38
46
45
41
40
45
35
31
32
36
41
43
42
43
38
28
30
42
41
37
41
42
39
36
38
30
29
38
33
46
36
35
34
36
36
36
36
33
38
37
35
38
33
40
40
31
31
35
32
35
30
33
33
33
41
37
35
28
30
36
36
32
31
40
42
39
40
36
35
40
47
50
48
48
45
42
43
40
45
45
43
48
51
58
53
48
39
44
51
56
54
51
47
51
55
52
48
48
56
57
52
52
63
61
46
38
43
45
47
44
45
50
55
59
61
58
56
50
56
50
41
42
43
47
42
34
33
39
42
31
34
38
43
41
50
43
45
46
39
42
41
38
41
43
38
38
42
38
37
41
45
49
53
61
70
78
92
106
116
126
145
163
173
172
171
155
150
138
122
85
65
49
27
10
-17
-25
-21
-16
-13
-9
4
14
18
23
20
27
34
40
34
33
39
35
35
42
34
33
40
39
38
39
36
36
34
31
36
43
43
44
38
45
49
45
49
47
45
42
43
47
45
48
49
44
51
53
51
53
58
55
49
49
58
57
52
60
57
63
64
61
63
69
65
65
71
70
67
68
77
77
77
79
82
86
89
89
95
100
97
98
97
103
106
104
107
109
109
106
108
103
111
110
111
106
108
109
105
102
99
98
101
102
97
91
87
86
81
86
80
76
73
71
67
66
65
66
59
61
60
56
58
58
48
46
51
49
45
47
48
43
45
45
44
43
46
48
42
42
44
39
37
42
40
39
36
38
43
51
40
41
47
41
39
35
37
34
37
40
44
39
45
44
40
42
44
44
41
37
40
40
39
40
40
40
33
36
36
39
43
38
36
39
40
39
41
40
35
33
33
46
45
33
28
32
34
32
31
39
34
33
33
35
36
40
38
37
33
30
36
41
38
40
37
35
33
34
29
34
31
32
40
37
37
28
28
35
42
37
37
42
45
44
47
46
42
42
42
49
50
47
51
43
43
45
48
44
48
52
45
49
45
41
41
40
45
50
53
55
50
53
49
52
44
42
39
30
40
37
39
29
26
32
34
36
36
39
30
36
30
30
33
31
31
31
36
27
35
33
34
36
39
34
35
34
35
37
39
41
44
48
57
73
85
94
111
128
149
163
171
166
164
147
154
127
107
74
57
32
11
1
-30
-42
-33
-27
-19
-13
1
2
12
21
23
24
27
30
27
22
26
24
29
27
28
37
36
30
39
34
30
32
33
35
39
37
35
38
37
35
31
43
40
43
41
46
42
48
43
41
49
50
46
40
40
50
51
52
55
53
52
53
57
52
57
56
56
51
55
59
66
58
59
63
72
78
78
81
80
79
83
86
91
97
91
86
96
94
96
99
101
100
103
105
108
108
103
106
100
103
106
106
102
103
94
98
103
102
93
96
98
95
87
82
80
80
81
78
80
78
72
67
62
66
61
52
56
49
51
51
51
46
46
47
41
45
45
44
38
38
32
32
42
44
44
41
41
40
45
40
38
39
40
41
36
45
41
41
30
34
39
36
41
37
38
42
44
37
38
33
33
36
33
39
29
39
39
35
42
39
33
29
40
41
36
40
32
34
35
42
35
39
37
32
35
36
35
37
33
42
38
37
42
29
30
32
31
37
31
31
27
30
29
28
38
37
32
30
30
30
26
30
28
27
34
34
32
27
25
27
25
30
38
30
26
39
38
46
41
42
36
40
39
37
39
38
43
44
41
43
46
44
47
44
51
42
40
38
45
42
40
38
38
44
50
55
48
45
44
48
44
40
41
42
34
33
30
30
35
28
24
30
33
26
24
25
25
17
25
16
22
30
27
30
33
35
28
27
24
31
30
29
30
31
35
36
37
36
44
56
73
89
100
119
137
159
170
176
179
167
156
153
140
105
67
44
17
-4
-25
-50
-50
-39
-31
-26
-20
-12
1
6
11
18
18
16
21
20
15
20
22
24
21
18
19
26
34
22
23
27
30
28
28
29
34
32
37
36
33
40
44
41
43
38
45
45
47
39
57
60
56
59
58
52
55
62
61
66
61
65
59
60
65
66
64
70
71
77
77
83
81
81
82
76
85
92
94
98
93
95
98
101
107
100
106
114
112
115
123
119
116
116
116
116
124
126
125
128
126
119
122
121
115
122
118
121
117
111
107
111
108
105
103
98
103
98
103
84
88
77
75
75
70
77
76
80
73
75
70
72
63
60
60
62
66
59
60
60
55
60
54
51
56
58
55
61
64
63
60
55
52
51
54
56
64
57
59
60
58
62
66
67
63
53
54
55
58
62
66
64
64
70
61
55
60
58
65
70
63
57
59
59
61
65
67
68
65
67
69
63
65
71
66
59
62
70
66
69
65
76
64
62
60
60
66
68
63
65
62
52
63
65
68
70
64
61
60
64
65
66
66
63
59
59
67
65
61
59
64
64
62
61
55
65
67
67
71
73
66
65
58
68
73
69
74
75
70
72
76
78
78
78
82
76
73
71
73
81
82
78
74
70
73
73
72
74
86
83
75
79
83
83
82
77
71
66
70
60
58
65
58
54
57
64
57
53
65
61
61
57
59
60
58
53
58
53
61
59
61
53
54
53
56
59
57
60
67
68
63
67
73
87
99
124
140
153
158
183
194
208
207
212
189
180
170
150
105
78
56
33
16
-20
-29
-23
-9
-1
5
15
29
42
34
35
46
54
54
52
56
56
52
47
52
62
55
48
52
55
58
54
50
58
52
57
62
63
55
66
61
53
62
59
66
67
66
69
62
65
68
69
65
80
74
68
74
77
76
76
76
74
79
74
73
77
82
83
87
90
92
86
82
86
91
98
98
101
106
109
96
104
111
115
108
114
120
127
116
123
125
125
132
123
131
130
131
135
131
141
134
135
132
134
133
129
126
124
124
131
127
126
117
111
107
110
108
104
102
104
95
89
92
95
94
86
90
86
76
73
73
68
70
73
74
74
67
63
66
72
66
67
70
71
73
63
61
59
57
58
65
68
63
56
58
65
68
56
57
59
58
55
72
65
59
58
58
61
62
62
66
63
68
58
58
62
57
60
62
62
61
64
57
56
62
57
56
62
55
57
53
55
59
57
55
57
56
56
57
57
57
51
59
59
60
58
53
53
55
49
52
57
56
52
50
50
58
51
57
55
65
51
54
57
53
51
57
51
52
54
58
56
47
47
48
55
62
66
61
54
53
63
66
64
59
60
69
62
65
62
72
72
67
67
65
72
67
65
65
65
62
70
71
69
62
64
72
77
76
66
63
70
64
48
50
52
54
49
49
49
45
48
52
47
47
50
46
44
47
47
54
52
50
40
50
47
42
42
50
49
46
44
49
56
55
56
58
66
73
98
111
125
138
158
174
190
202
204
203
185
174
161
138
95
73
49
16
9
-16
-44
-38
-20
-14
-15
5
13
28
38
32
38
38
39
41
41
41
44
47
45
46
47
41
41
44
45
43
43
48
48
48
47
49
45
43
47
56
57
59
52
51
55
58
56
53
50
55
62
66
62
64
60
59
66
67
63
67
65
72
77
75
78
76
77
77
83
83
82
81
78
88
95
91
88
96
91
101
105
102
108
115
113
115
120
116
114
117
125
130
125
122
126
128
125
120
126
132
129
123
121
125
128
123
120
117
112
117
109
110
107
101
103
101
98
93
93
92
84
89
82
80
70
76
71
63
63
70
72
66
70
66
56
60
55
55
60
63
69
60
60
60
53
60
58
55
55
59
64
63
53
59
50
60
65
55
53
57
53
56
54
52
57
55
59
58
54
61
49
56
54
48
50
57
53
58
67
62
48
51
49
47
54
52
55
65
55
50
51
47
54
49
51
52
53
51
50
57
50
49
48
49
53
47
49
45
50
52
52
50
53
50
48
45
38
49
48
48
52
55
56
53
51
50
51
45
45
53
52
50
52
56
56
63
66
45
61
64
58
62
63
65
64
64
62
63
64
66
69
66
58
60
54
65
63
65
62
66
64
67
73
71
66
61
61
55
51
52
53
48
46
46
40
40
49
46
44
49
45
48
44
44
43
40
46
45
44
41
44
43
48
44
47
47
55
51
54
53
56
70
74
94
118
122
141
159
185
196
212
205
194
180
179
162
136
94
68
47
25
8
-24
-39
-38
-31
-14
-6
11
16
20
37
37
37
40
36
34
43
47
44
39
45
46
39
40
41
43
42
43
35
42
45
52
54
55
54
53
57
53
51
55
52
53
56
55
48
51
64
64
61
61
68
58
64
59
62
62
66
64
66
63
70
70
76
80
82
78
83
91
89
82
86
92
90
91
97
93
89
99
105
111
109
109
114
120
121
119
121
127
128
131
123
126
125
124
125
131
132
124
124
127
121
123
125
119
109
113
116
110
110
113
116
103
102
94
95
91
86
88
82
81
82
78
76
74
70
72
74
70
64
66
65
60
54
61
62
58
58
53
56
59
55
57
61
58
52
54
56
56
51
55
55
51
51
52
56
56
55
55
59
59
54
53
55
50
49
55
55
54
57
49
52
47
54
55
51
57
59
46
53
55
50
44
36
51
45
58
57
57
52
46
49
53
57
46
48
46
51
50
48
50
46
42
45
50
45
50
51
53
47
43
44
50
52
47
43
45
47
54
58
58
49
54
57
55
50
49
54
54
63
65
62
62
64
58
60
72
69
60
65
59
60
57
60
66
64
61
57
66
69
66
62
68
73
68
64
60
67
61
53
51
52
46
44
54
51
59
60
52
45
41
45
45
47
45
45
49
54
60
54
47
45
46
48
57
53
53
53
56
61
59
58
62
65
80
96
111
122
129
149
169
186
196
195
197
187
166
153
122
92
74
39
7
-18
-44
-38
-23
-9
-2
8
11
22
29
38
38
46
49
43
48
50
49
45
46
48
48
58
57
49
52
55
65
58
53
52
49
58
63
59
57
55
61
63
56
64
54
63
62
69
65
60
60
71
67
73
68
75
67
71
72
72
75
70
79
81
89
74
79
79
82
85
90
83
85
89
90
92
95
108
108
110
117
108
107
113
116
116
120
126
125
127
123
123
132
133
136
136
131
128
134
135
134
130
133
128
122
129
124
122
126
120
120
119
108
112
107
99
101
103
100
99
97
94
89
83
84
79
72
67
72
71
65
68
65
66
63
67
62
67
68
61
55
59
60
59
61
55
61
66
51
51
60
60
59
56
62
62
58
57
54
57
58
60
63
58
57
58
63
59
56
55
62
61
57
51
46
52
49
55
56
57
57
54
53
52
53
58
52
50
58
58
51
57
59
53
49
50
55
50
48
48
48
56
57
55
50
49
46
54
49
53
61
60
56
61
60
58
54
59
60
61
62
60
61
63
68
68
63
70
68
55
60
63
67
67
65
57
56
59
60
61
59
70
67
74
71
61
65
55
56
54
57
46
51
43
47
44
47
46
43
48
50
43
41
44
40
44
53
50
48
50
50
53
47
46
46
42
46
53
53
57
58
57
61
69
81
94
107
116
124
136
157
173
178
167
155
142
140
128
89
58
46
16
-5
-21
-39
-43
-34
-21
-6
-2
6
20
24
25
39
44
43
49
51
33
40
38
37
41
39
37
41
47
46
41
47
42
48
45
55
52
48
50
50
42
45
43
54
61
60
47
56
48
52
59
58
60
63
62
59
63
65
58
58
59
71
69
65
64
71
68
73
72
74
78
77
78
85
83
74
82
87
88
90
94
94
98
101
104
104
107
109
118
119
121
115
114
118
119
118
117
121
113
114
117
118
123
125
124
116
112
110
114
110
110
102
101
98
95
93
90
85
86
80
77
80
80
74
63
63
65
64
57
60
62
62
52
53
59
49
55
55
57
59
54
56
48
56
50
54
50
51
51
51
49
51
47
53
49
50
53
48
54
49
49
51
52
53
50
49
53
49
48
46
50
52
52
51
49
49
48
51
45
46
48
46
45
46
43
44
55
55
52
45
48
39
44
49
43
50
53
44
42
46
47
44
51
47
47
51
47
55
53
48
52
53
50
56
55
60
53
60
60
61
63
65
60
59
65
63
58
52
48
53
55
58
58
56
54
54
57
62
61
58
61
54
57
55
48
43
43
38
37
44
45
42
42
47
49
41
42
39
41
45
34
33
38
47
39
41
45
43
44
47
41
41
46
49
56
60
53
62
81
98
108
126
137
147
165
172
168
166
145
140
129
104
73
50
27
0
-7
-32
-48
-41
-31
-19
-9
1
9
21
19
28
39
32
21
32
40
40
39
42
45
39
34
47
42
39
47
43
46
41
31
39
50
51
52
46
45
50
47
45
48
46
48
44
47
48
51
52
56
58
57
54
56
58
58
54
61
65
59
61
66
65
65
67
69
70
71
75
71
74
73
74
80
86
87
90
87
93
93
94
100
101
103
112
112
111
107
106
112
108
114
121
124
111
114
120
113
114
111
112
110
111
112
109
103
103
103
103
100
96
96
81
77
86
79
76
77
74
69
72
68
64
66
60
55
54
56
64
64
58
45
41
46
52
58
50
45
44
48
54
49
48
46
49
47
52
48
48
48
44
43
44
45
48
45
47
51
48
50
53
49
40
37
44
51
52
50
49
54
40
41
42
46
48
45
48
46
44
50
47
49
46
52
46
46
45
40
40
45
55
44
45
49
42
49
49
55
52
60
48
50
53
51
44
47
56
56
56
63
58
64
58
58
62
62
58
53
51
57
55
55
46
57
60
52
54
60
62
68
62
54
57
51
43
48
49
44
44
40
44
37
35
33
36
43
41
41
40
43
40
46
42
40
39
37
36
42
41
41
44
39
43
46
50
49
48
58
64
68
82
94
114
127
136
151
165
175
174
163
141
137
126
84
52
36
21
0
-22
-47
-45
-39
-25
-18
-4
10
16
20
24
35
37
39
43
35
37
41
42
43
42
47
42
42
35
37
42
45
42
44
45
45
45
43
41
47
52
51
49
47
50
48
41
45
49
46
53
61
64
68
63
63
53
58
56
60
60
64
64
63
66
73
72
69
68
67
63
81
87
79
86
87
87
89
83
86
87
90
97
102
101
110
108
112
106
116
123
114
110
121
122
117
113
120
121
121
123
123
103
112
114
111
113
116
110
101
104
103
98
93
93
94
89
91
82
75
71
73
68
75
71
65
61
57
63
57
53
54
56
49
47
49
51
47
47
49
51
45
46
46
46
47
48
45
49
43
46
51
45
51
54
47
47
50
49
46
42
48
49
44
54
52
43
50
52
43
44
43
41
45
45
39
45
56
46
46
48
51
52
52
39
36
45
36
47
40
40
43
49
54
55
47
45
55
51
49
56
51
59
50
49
46
55
60
56
55
53
56
61
67
64
57
56
55
54
54
52
55
57
56
59
61
61
54
56
62
64
59
53
61
56
55
46
46
39
41
41
48
45
42
37
40
43
44
44
42
46
41
31
39
37
42
45
48
46
45
46
44
44
46
45
46
53
58
61
61
70
85
102
119
127
143
165
171
176
170
151
139
131
109
73
51
19
2
-6
-32
-45
-43
-28
-22
-7
2
15
19
23
31
41
36
42
28
36
32
41
41
37
41
36
30
34
46
40
42
49
53
47
46
49
47
43
51
47
45
49
51
49
50
48
47
56
56
60
57
57
53
51
63
63
58
55
56
57
57
61
72
71
71
63
70
74
73
75
73
76
79
80
82
83
85
88
91
97
94
98
104
111
104
103
110
113
111
109
108
112
119
114
119
122
124
119
122
115
115
116
113
112
112
114
110
114
107
102
110
104
97
99
91
87
84
82
80
78
79
78
77
63
65
57
60
58
58
51
55
56
58
54
51
50
42
45
47
53
46
41
51
44
44
46
42
47
46
41
53
50
50
50
49
47
49
47
48
47
44
41
43
46
43
43
48
47
45
39
35
36
47
50
54
47
50
41
40
43
46
41
36
48
51
48
45
41
38
40
42
47
45
47
48
47
50
55
47
45
49
51
51
47
50
54
56
57
56
52
58
59
59
54
50
55
58
63
52
51
50
47
52
58
53
60
55
64
62
58
50
56
58
47
42
42
44
41
41
44
36
39
44
40
37
38
36
35
34
34
37
36
36
34
37
37
34
30
33
35
40
32
38
41
44
45
51
47
56
62
85
101
105
126
149
174
186
185
184
174
156
144
132
100
70
43
8
-8
-21
-46
-57
-47
-35
-23
-4
4
12
14
19
21
30
39
43
32
33
36
38
42
34
38
33
31
31
37
36
42
41
39
33
42
50
44
41
41
43
45
48
46
47
45
45
51
54
55
50
54
56
56
51
59
61
56
60
58
59
65
66
67
63
65
73
75
68
66
72
81
79
78
85
88
86
84
87
96
92
100
103
103
102
101
106
109
115
118
117
117
115
122
130
122
116
118
125
124
124
118
118
122
117
114
113
111
107
104
108
106
100
100
96
94
89
85
82
78
80
84
84
68
65
68
70
67
72
65
58
58
60
56
54
60
60
51
60
50
53
52
51
47
51
50
52
51
57
52
54
53
53
56
50
50
50
47
49
48
60
66
62
52
43
48
51
56
60
58
57
56
50
47
48
49
54
56
45
54
48
55
51
55
52
50
51
57
53
53
52
51
50
53
46
47
49
51
57
64
66
64
58
47
55
58
61
60
61
64
66
59
57
73
74
74
64
64
67
59
64
67
66
56
56
60
63
64
67
65
67
66
72
71
67
61
59
62
55
52
57
53
47
52
51
52
52
46
47
57
46
45
50
49
50
50
50
53
48
49
48
52
57
50
47
45
56
55
58
63
66
69
81
96
114
124
137
156
169
180
184
179
169
156
142
115
93
75
49
19
-11
-42
-46
-30
-20
-18
-1
8
20
33
38
44
37
38
44
43
46
43
47
48
38
44
44
46
49
53
46
46
56
57
57
56
54
49
54
54
55
54
57
55
56
67
57
66
64
62
66
65
63
63
61
63
64
62
71
67
68
76
72
69
74
73
72
74
78
72
78
85
83
83
88
90
87
93
97
99
98
109
107
107
111
112
115
117
116
120
118
129
126
127
130
125
129
126
126
131
135
127
127
124
115
116
120
115
113
113
115
111
106
107
102
97
97
100
93
89
84
80
85
84
72
71
76
73
70
65
66
64
65
61
65
60
58
58
57
60
59
61
59
60
62
61
51
51
52
52
56
54
57
64
54
56
54
48
51
62
60
58
54
53
48
55
62
62
57
54
51
56
53
54
57
61
53
54
59
60
54
49
54
57
56
56
55
54
51
59
60
58
59
59
54
54
54
62
56
54
57
53
57
57
61
62
66
65
63
66
70
62
61
66
61
60
62
63
61
60
62
60
61
66
67
67
66
71
64
60
64
50
53
55
49
49
48
46
47
52
45
43
39
43
36
41
48
36
40
49
45
47
45
39
46
46
45
42
48
48
48
48
51
55
56
56
65
67
87
104
115
132
143
158
161
156
159
140
127
125
99
71
56
36
6
-12
-32
-38
-37
-19
-15
-6
4
14
23
31
39
40
35
34
30
38
43
48
45
42
38
39
41
45
43
43
47
52
39
38
36
49
52
56
52
52
48
49
52
48
49
51
52
59
58
55
62
62
58
56
53
59
61
64
62
58
67
60
58
67
71
70
72
79
73
71
75
75
77
88
81
85
89
96
94
96
89
94
101
98
105
110
119
123
115
116
111
116
119
119
123
118
118
122
124
118
115
119
121
120
120
114
110
118
105
103
99
99
102
100
89
88
90
86
80
80
74
69
73
72
70
61
59
63
62
59
57
54
52
52
51
49
49
42
44
45
45
50
51
45
46
47
40
42
51
49
43
44
41
41
40
47
49
50
47
49
50
47
41
46
46
43
37
40
45
45
37
41
42
50
43
40
42
45
44
42
40
49
48
43
46
45
44
41
39
38
45
47
38
46
46
47
50
55
50
50
40
41
50
47
54
50
53
56
53
57
59
56
54
50
49
54
58
49
49
48
50
44
48
56
52
56
56
55
46
52
47
42
48
45
42
35
38
34
44
36
31
27
33
34
29
30
33
30
35
39
46
41
37
33
37
32
37
36
37
38
35
38
43
41
46
50
52
58
76
98
106
118
135
149
165
168
167
159
145
132
116
81
61
33
8
-10
-23
-45
-46
-39
-38
-22
-12
2
13
17
16
26
32
25
28
30
25
27
30
28
28
28
29
31
34
39
32
27
31
33
42
37
35
39
38
36
36
39
40
42
38
41
47
38
41
46
41
41
42
50
49
52
51
45
42
47
52
50
51
59
58
60
54
47
59
65
64
64
71
73
70
70
72
82
76
81
87
87
93
98
94
98
99
98
102
104
106
107
106
115
115
113
112
105
103
112
113
109
104
104
102
106
108
108
91
96
96
94
99
92
87
87
84
76
72
69
67
73
68
66
63
55
54
51
50
53
46
45
47
44
44
38
44
42
39
29
35
46
38
35
35
35
46
41
39
37
38
38
44
45
37
36
37
40
39
40
33
41
42
42
39
42
37
37
44
41
40
38
42
34
37
44
41
42
39
44
41
39
39
41
43
40
35
39
40
39
42
39
36
36
44
43
38
44
43
41
42
48
43
35
42
54
52
45
44
43
39
47
59
51
57
57
54
43
46
51
54
52
55
59
53
49
53
44
59
58
53
54
53
55
54
57
53
48
42
42
46
49
41
37
33
32
27
37
37
32
45
50
44
44
47
42
36
33
39
32
34
39
41
36
34
36
41
35
39
41
47
52
61
62
75
89
108
125
139
159
178
195
201
207
190
172
165
143
106
72
54
24
4
-27
-49
-45
-37
-29
-17
-5
5
13
18
24
25
29
26
25
25
27
33
39
25
28
33
35
39
38
34
35
32
29
34
32
35
38
42
46
42
42
42
48
47
47
46
50
42
49
48
47
50
47
53
55
50
51
51
56
59
58
62
68
62
60
69
65
65
67
69
63
68
72
75
75
85
81
77
91
97
91
86
101
106
106
106
106
110
105
110
108
112
118
115
118
117
119
116
119
120
123
123
118
115
115
112
109
108
112
115
96
91
97
100
95
91
89
79
85
79
78
66
66
67
75
63
64
66
62
56
53
55
57
58
49
49
50
42
46
50
46
45
48
44
48
48
48
44
47
38
40
47
50
44
39
49
43
50
41
39
45
46
45
46
50
48
42
44
49
51
50
46
45
42
45
49
44
39
47
44
50
44
47
47
47
44
44
48
40
38
45
51
51
45
42
48
47
45
44
47
50
50
44
45
49
41
40
44
50
45
49
47
46
52
50
51
47
52
53
52
55
55
56
47
50
55
55
59
59
68
72
63
65
57
53
53
52
60
56
61
51
61
62
63
67
60
63
63
60
53
61
57
54
54
51
45
42
45
39
41
47
50
41
38
48
48
37
40
42
44
50
48
44
43
36
41
47
51
45
47
51
54
55
53
60
60
64
81
98
108
132
147
166
185
203
204
202
184
175
172
155
116
77
61
28
9
-14
-31
-33
-26
-7
-5
3
15
29
29
26
30
35
41
42
41
42
43
42
32
38
40
46
49
46
43
44
54
52
42
55
53
47
44
46
63
50
48
50
54
52
46
50
60
59
56
61
57
63
65
61
61
56
57
61
63
71
73
73
71
75
66
64
71
77
80
77
80
81
83
92
87
86
93
100
99
98
105
94
94
104
104
108
121
121
117
116
116
118
130
124
121
123
125
128
122
119
123
123
117
113
111
114
111
111
102
108
105
97
105
99
95
90
93
99
91
90
86
85
81
75
70
71
71
67
64
70
75
68
60
60
60
61
56
60
62
65
62
52
51
55
61
62
63
51
53
63
64
66
53
55
57
57
58
59
58
56
53
53
58
59
63
63
65
62
61
62
61
51
52
53
66
60
59
53
55
67
58
60
55
57
52
52
54
57
49
55
63
54
60
60
56
49
51
52
61
58
55
56
61
53
49
55
52
52
61
62
64
63
53
56
55
62
70
62
62
63
71
70
71
66
63
69
69
62
59
69
68
57
58
63
63
62
68
68
61
69
69
66
60
69
67
60
61
61
59
64
54
47
51
52
55
54
55
54
55
54
48
52
50
47
47
56
56
50
51
52
54
53
54
55
48
59
60
67
73
75
73
84
98
108
116
127
139
159
173
169
166
162
148
129
118
98
77
58
34
12
-12
-21
-16
-10
4
17
18
20
23
38
44
39
37
39
42
45
50
50
45
42
43
48
55
44
51
60
58
53
51
43
44
53
45
57
48
45
58
54
55
53
58
50
54
51
51
62
64
55
57
64
59
66
59
63
67
60
64
70
65
66
71
73
71
68
76
78
75
76
85
85
74
75
79
83
96
93
98
101
106
106
101
105
114
113
117
118
114
116
117
114
125
126
122
119
121
119
120
112
126
121
109
112
116
116
112
108
107
102
100
100
96
98
87
90
87
87
87
87
79
81
75
67
67
61
64
59
65
69
69
62
48
55
55
51
53
51
48
55
57
50
44
45
49
52
51
49
55
52
48
55
52
53
57
46
52
51
48
51
49
54
47
53
52
47
52
59
52
46
51
54
49
53
55
56
53
52
56
53
51
55
52
47
44
53
56
52
52
47
50
48
54
54
51
46
47
46
46
50
52
54
51
51
57
61
58
55
57
55
56
53
58
56
53
57
59
56
53
51
51
51
54
52
49
47
52
51
53
49
44
45
47
49
48
49
61
55
52
45
41
36
38
41
44
37
40
40
36
39
35
32
29
34
37
37
37
33
33
38
35
31
36
29
26
30
34
34
35
36
42
42
41
41
47
50
53
56
71
83
102
104
117
132
149
156
150
150
133
126
119
97
76
49
34
9
-4
-28
-32
-21
-18
-13
-6
0
4
14
27
27
24
29
32
35
35
28
38
32
32
33
31
34
40
32
37
41
36
41
33
29
36
36
44
38
35
30
31
39
38
43
44
44
42
43
43
40
45
44
47
47
50
42
46
54
57
47
42
52
52
61
55
52
55
64
61
53
64
68
67
71
65
72
72
79
76
79
76
83
80
95
95
90
93
98
101
98
106
107
111
109
103
109
109
111
106
105
107
105
106
107
105
100
98
93
96
92
88
85
86
81
80
74
70
69
68
64
63
66
62
67
66
53
47
51
51
45
44
42
38
43
45
43
45
37
32
38
41
37
38
39
34
37
40
39
29
38
35
31
35
39
38
35
38
39
38
35
36
39
38
41
43
38
35
37
38
39
44
39
34
35
40
44
41
41
30
30
39
42
40
43
43
36
33
36
42
37
37
40
40
38
35
28
30
36
34
37
35
33
30
31
36
38
38
34
35
34
39
41
43
40
36
34
37
49
44
39
41
43
44
43
46
44
46
50
46
43
46
52
46
49
47
42
36
40
45
46
37
43
41
49
52
49
47
46
39
42
40
38
39
42
33
29
32
26
24
27
35
26
33
35
32
22
29
32
34
33
32
33
36
36
33
29
24
30
37
37
34
39
44
38
41
57
67
76
93
108
122
128
150
161
162
162
158
142
134
125
98
62
53
32
16
-1
-29
-37
-30
-11
-4
-12
4
13
17
20
23
29
32
32
24
19
33
32
33
36
32
24
26
31
35
32
36
31
29
34
39
34
30
39
43
47
38
34
31
34
40
43
37
41
43
47
49
48
45
47
45
47
49
48
53
49
53
54
53
52
56
57
56
50
60
64
72
66
65
67
69
74
79
80
77
83
84
85
84
85
91
94
100
103
102
106
107
103
108
113
108
103
110
105
103
109
108
100
105
105
99
104
99
95
96
99
93
88
87
84
81
78
79
77
68
71
66
68
63
64
61
60
56
60
55
52
49
44
43
43
42
46
50
41
44
41
42
42
38
41
41
41
43
44
41
38
38
38
35
38
40
46
33
45
40
43
40
41
44
47
43
37
39
38
37
40
41
40
38
38
38
40
35
32
29
33
34
39
46
40
42
37
36
35
35
37
37
35
34
36
38
42
35
32
37
47
42
28
29
40
40
34
40
34
31
29
33
35
38
29
28
33
33
28
40
41
40
40
39
41
45
40
38
36
46
40
47
42
38
42
54
55
56
53
45
47
42
37
40
42
42
40
44
46
42
40
36
40
50
49
42
42
48
44
40
35
34
31
27
32
31
33
32
33
33
37
29
29
34
35
35
33
28
30
31
32
27
29
26
30
30
34
33
32
33
42
49
44
50
51
64
81
96
110
117
131
150
167
172
164
152
147
140
124
94
67
50
24
2
-15
-36
-36
-26
-19
-11
-7
-3
6
13
19
20
28
22
23
30
32
28
32
31
30
33
30
28
28
25
31
31
29
32
35
38
36
27
36
41
43
41
37
39
39
36
41
42
39
39
41
39
39
46
48
47
43
41
47
47
49
52
54
53
48
48
52
48
59
62
66
60
59
66
66
68
72
72
77
78
75
73
79
79
77
90
94
97
93
97
98
99
101
104
103
103
102
106
113
108
106
106
100
102
97
99
96
97
96
94
88
89
89
85
85
84
83
79
69
67
65
67
65
64
55
52
56
61
54
45
44
44
40
42
46
48
43
40
45
39
39
39
36
42
40
39
41
38
35
36
36
42
42
35
39
30
39
39
41
32
29
29
36
38
42
42
42
39
39
40
42
33
35
38
41
43
38
40
44
41
26
36
37
35
29
35
38
40
40
41
40
40
34
33
34
38
39
40
37
36
38
36
33
41
33
38
38
39
37
39
32
30
38
35
36
39
37
41
37
27
34
42
36
30
37
36
39
38
40
37
44
39
46
44
42
45
45
51
48
47
46
54
50
53
47
48
48
45
41
39
47
47
43
43
48
48
50
50
50
56
50
51
47
41
34
38
42
38
34
29
34
32
33
36
28
38
34
30
27
30
36
38
34
39
34
37
34
40
38
29
26
35
35
38
38
37
41
42
46
51
55
66
92
101
111
124
144
164
164
167
165
146
141
128
107
68
47
32
13
4
-29
-42
-36
-25
-14
-9
-8
8
11
17
29
32
28
28
31
31
26
32
31
31
34
32
33
32
31
32
33
37
36
37
42
43
35
37
35
31
39
40
42
35
