-37
-49
-44
-43
-40
-48
-43
-38
-37
-43
-45
-36
-35
-47
-39
-44
-35
-36
-43
-41
-45
-47
-42
-38
-38
-38
-38
-43
-39
-44
-38
-46
-31
-32
-43
-38
-43
-50
-45
-38
-32
-30
-34
-46
-45
-44
-28
-34
-40
-40
-39
-40
-51
-44
-39
-39
-36
-43
-42
-42
-47
-41
-41
-38
-40
-37
-50
-45
-34
-43
-44
-40
-33
-39
-29
-31
-40
-53
-52
-44
-48
-42
-33
-44
-45
-42
-36
-35
-43
-50
-54
-54
-42
-35
-42
-40
-29
-44
-37
-37
-40
-37
-42
-49
-48
-45
-36
-36
-38
-35
-50
-46
-35
-37
-46
-46
-48
-54
-37
-29
-33
-44
-39
-35
-39
-40
-43
-37
-30
-22
-38
-41
-42
-33
-44
-39
-27
-27
-26
-32
-35
-34
-35
-31
-33
-31
-44
-39
-33
-35
-34
-26
-27
-33
-40
-36
-51
-42
-33
-36
-45
-47
-53
-58
-51
-39
-38
-46
-43
-46
-62
-47
-31
-37
-58
-47
-39
-41
-40
-29
-33
-47
-50
-39
-46
-59
-64
-63
-63
-68
-74
-91
-100
-91
-67
-48
-19
7
18
44
75
111
143
167
207
248
274
293
301
292
247
206
169
96
39
-7
-42
-56
-55
-65
-63
-59
-49
-50
-54
-41
-43
-56
-52
-47
-37
-37
-36
-45
-46
-43
-55
-53
-34
-47
-46
-39
-41
-46
-38
-47
-46
-36
-41
-39
-34
-38
-29
-33
-37
-32
-36
-31
-37
-42
-26
-27
-32
-29
-24
-31
-28
-19
-31
-37
-32
-23
-17
-22
-19
-26
-20
-15
-20
-22
-15
-7
-13
-6
-15
-25
-16
-13
-6
-6
-13
-7
-4
19
33
13
15
26
29
17
15
21
26
32
31
23
30
35
31
39
39
33
32
35
36
28
19
20
26
25
26
29
11
7
16
8
9
10
8
-8
-1
-10
-21
-26
-16
-12
-14
-28
-37
-30
-20
-27
-34
-31
-36
-40
-39
-43
-41
-40
-36
-43
-46
-41
-30
-44
-44
-38
-45
-55
-42
-44
-39
-52
-38
-35
-51
-57
-45
-41
-39
-36
-33
-43
-39
-36
-42
-36
-51
-53
-46
-42
-47
-50
-40
-44
-39
-42
-42
-39
-35
-46
-50
-51
-40
-43
-45
-44
-41
-41
-35
-50
-33
-34
-35
-38
-37
-46
-48
-39
-33
-44
-40
-48
-46
-46
-37
-38
-40
-44
-39
-38
-43
-42
-35
-46
-42
-46
-61
-47
-28
-32
-41
-44
-37
-40
-34
-46
-44
-35
-31
-36
-38
-39
-50
-49
-44
-40
-46
-31
-31
-47
-43
-40
-55
-57
-41
-42
-44
-46
-27
-30
-50
-59
-46
-48
-33
-49
-58
-44
-46
-53
-37
-44
-44
-41
-48
-49
-60
-52
-35
-40
-44
-40
-43
-47
-42
-37
-45
-45
-45
-45
-44
-43
-50
-48
-46
-47
-46
-35
-36
-39
-35
-29
-32
-36
-37
-40
-49
-45
-40
-41
-32
-33
-39
-40
-30
-28
-30
-28
-37
-40
-45
-36
-40
-41
-37
-48
-41
-27
-34
-36
-32
-39
-37
-39
-49
-44
-50
-51
-50
-52
-54
-46
-55
-42
-39
-47
-57
-43
-49
-50
-58
-53
-63
-57
-57
-66
-55
-37
-53
-56
-50
-71
-79
-88
-84
-80
-72
-31
-18
-3
10
33
64
96
127
148
175
214
243
267
280
276
253
219
176
124
50
7
-29
-48
-51
-56
-57
-53
-42
-43
-53
-52
-52
-53
-51
-33
-43
-42
-49
-46
-39
-48
-52
-50
-34
-38
-40
-45
-48
-51
-49
-41
-45
-47
-45
-36
-42
-42
-34
-43
-41
-39
-34
-44
-20
-34
-36
-32
-27
-45
-30
-27
-30
-35
-27
-27
-33
-27
-30
-44
-31
-24
-27
-23
-19
-29
-20
-14
-11
-6
-18
-25
-21
-12
-6
-8
3
11
-4
-8
-6
6
2
3
-1
-2
22
19
7
19
24
21
27
14
28
27
27
29
28
24
17
14
24
23
24
13
3
7
8
9
9
-7
-2
8
5
-23
-19
-20
-29
-33
-27
-20
-18
-26
-36
-38
-36
-49
-46
-33
-36
-41
-41
-37
-50
-46
-39
-44
-49
-46
-53
-45
-50
-56
-48
-47
-48
-46
-46
-45
-54
-52
-43
-38
-41
-44
-48
-52
-61
-57
-45
-34
-27
-47
-51
-47
-49
-54
-52
-43
-49
-49
-50
-46
-46
-50
-47
-47
-54
-52
-43
-41
-39
-40
-50
-54
-48
-46
-54
-40
-42
-46
-56
-38
-42
-51
-49
-45
-52
-46
-50
-48
-61
-41
-43
-42
-42
-48
-44
-46
-52
-37
-33
-44
-61
-54
-54
-51
-45
-29
-31
-51
-54
-46
-40
-42
-47
-53
-47
-43
-37
-36
-51
-48
-48
-52
-54
-50
-45
-39
-47
-54
-37
-38
-49
-41
-44
-45
-50
-40
-39
-54
-65
-51
-54
-45
-43
-52
-53
-39
-27
-35
-57
-59
-45
-43
-33
-54
-55
-41
-51
-50
-43
-42
-48
-49
-44
-36
-38
-39
-41
-43
-34
-38
-44
-40
-46
-46
-50
-37
-34
-28
-32
-26
-39
-47
-39
-46
-47
-39
-28
-38
-40
-34
-39
-40
-36
-46
-47
-36
-38
-47
-43
-48
-52
-47
-49
-56
-48
-46
-49
-48
-54
-59
-51
-41
-54
-59
-46
-46
-57
-53
-52
-70
-64
-40
-45
-51
-62
-75
-78
-83
-77
-87
-74
-61
-54
-29
2
10
33
67
106
125
148
181
213
245
260
268
261
241
214
165
115
50
10
-16
-43
-53
-46
-56
-60
-55
-25
-40
-56
-52
-51
-47
-37
-41
-48
-52
-40
-45
-44
-47
-47
-46
-50
-45
-41
-50
-48
-47
-48
-39
-29
-33
-42
-35
-50
-44
-42
-42
-35
-44
-30
-45
-47
-34
-39
-36
-44
-44
-45
-30
-27
-34
-28
-24
-23
-22
-18
-31
-33
-24
-20
-17
-20
-16
-23
-18
-19
-18
-12
-3
0
-3
-4
-3
-13
-9
1
7
9
5
0
-11
7
21
9
7
13
26
19
26
31
28
25
29
24
18
31
29
19
24
17
19
15
8
-15
-11
9
9
2
1
-2
-6
-17
-16
-19
-25
-21
-15
-25
-26
-27
-35
-44
-42
-43
-36
-39
-50
-53
-48
-47
-31
-33
-45
-56
-56
-38
-39
-60
-50
-38
-37
-43
-44
-52
-55
-51
-42
-49
-46
-47
-48
-47
-45
-51
-44
-46
-48
-52
-50
-49
-57
-56
-45
-38
-40
-42
-46
-49
-49
-46
-42
-43
-42
-52
-51
-54
-53
-43
-34
-42
-48
-52
-44
-50
-50
-45
-54
-58
-35
-45
-51
-48
-44
-44
-49
-47
-43
-40
-40
-45
-44
-47
-50
-49
-52
-55
-50
-46
-41
-38
-41
-39
-43
-53
-49
-40
-45
-44
-45
-47
-48
-47
-46
-34
-45
-57
-50
-52
-46
-49
-51
-52
-47
-41
-49
-47
-61
-52
-46
-41
-48
-41
-49
-47
-49
-49
-51
-50
-48
-39
-45
-49
-47
-40
-43
-49
-51
-41
-44
-52
-50
-44
-47
-52
-54
-47
-48
-50
-53
-55
-51
-46
-49
-47
-40
-51
-59
-48
-46
-42
-44
-47
-58
-48
-44
-47
-48
-47
-48
-46
-36
-26
-36
-36
-39
-38
-38
-32
-25
-35
-42
-41
-48
-45
-39
-46
-52
-42
-44
-41
-27
-36
-43
-36
-42
-44
-43
-44
-46
-41
-49
-40
-53
-57
-56
-48
-46
-40
-50
-49
-48
-52
-53
-56
-50
-47
-67
-47
-42
-56
-61
-53
-59
-53
-54
-58
-60
-61
-69
-73
-81
-87
-86
-77
-71
-58
-37
-5
4
9
44
75
114
135
168
201
224
253
268
280
270
234
189
153
103
42
-5
-24
-48
-46
-45
-53
-62
-49
-59
-62
-56
-48
-51
-41
-24
-43
-45
-47
-41
-44
-38
-38
-40
-47
-54
-53
-45
-53
-52
-47
-47
-47
-49
-51
-49
-47
-38
-35
-45
-47
-48
-47
-40
-42
-33
-43
-35
-37
-41
-44
-35
-27
-36
-41
-34
-35
-35
-30
-20
-32
-29
-15
-30
-27
-18
-26
-17
-14
-16
-29
-19
-11
-10
-10
-5
-3
-1
-9
-4
-1
5
2
5
6
12
6
3
8
18
13
21
11
20
21
29
23
28
25
23
13
17
21
15
12
22
12
10
4
1
0
-2
-3
-10
-16
-18
-18
-18
-20
-21
-42
-41
-36
-37
-37
-32
-42
-47
-48
-44
-44
-44
-45
-54
-58
-53
-45
-39
-47
-48
-39
-43
-53
-46
-46
-48
-54
-56
-51
-47
-46
-45
-53
-55
-50
-45
-51
-46
-43
-52
-44
-35
-45
-50
-47
-61
-59
-55
-54
-62
-50
-44
-39
-37
-39
-50
-45
-35
-40
-60
-48
-42
-41
-48
-57
-48
-42
-42
-49
-62
-56
-56
-43
-46
-43
-46
-38
-44
-57
-61
-45
-40
-45
-48
-47
-50
-50
-52
-54
-52
-48
-48
-55
-56
-46
-43
-38
-43
-51
-46
-43
-38
-43
-48
-51
-49
-47
-48
-50
-55
-50
-50
-54
-50
-33
-42
-51
-57
-50
-50
-42
-45
-54
-46
-43
-54
-49
-48
-51
-56
-47
-47
-49
-53
-54
-53
-58
-51
-57
-53
-45
-50
-55
-45
-52
-54
-54
-54
-45
-49
-48
-47
-49
-51
-50
-64
-58
-42
-41
-51
-52
-60
-63
-45
-39
-54
-60
-53
-43
-57
-46
-51
-63
-48
-41
-50
-48
-48
-49
-49
-51
-48
-48
-47
-59
-57
-50
-47
-56
-52
-46
-55
-61
-55
-49
-46
-39
-55
-53
-56
-49
-46
-51
-52
-53
-45
-51
-49
-47
-50
-48
-56
-52
-50
-48
-49
-40
-52
-50
-36
-34
-39
-40
-49
-60
-56
-44
-37
-41
-41
-44
-39
-38
-34
-44
-42
-46
-46
-40
-36
-40
-48
-43
-45
-49
-47
-37
-37
-49
-42
-44
-48
-52
-49
-47
-63
-50
-47
-50
-51
-49
-48
-50
-52
-56
-47
-44
-52
-58
-51
-60
-53
-56
-61
-56
-53
-60
-54
-53
-49
-49
-64
-68
-76
-80
-80
-98
-92
-83
-66
-56
-34
-14
19
43
72
98
127
155
190
225
252
280
294
284
272
235
194
152
80
28
-11
-37
-55
-65
-58
-58
-64
-59
-41
-40
-49
-38
-32
-40
-48
-54
-55
-53
-53
-46
-43
-39
-41
-37
-48
-48
-50
-50
-43
-47
-47
-32
-45
-53
-52
-47
-50
-40
-41
-46
-36
-42
-46
-43
-46
-35
-43
-38
-26
-31
-43
-38
-41
-41
-33
-31
-39
-31
-12
-17
-22
-26
-25
-21
-18
-25
-16
1
-5
-12
-16
-15
-19
-12
-5
-14
-4
7
6
10
12
11
3
2
7
7
9
25
28
6
17
23
21
27
27
24
16
15
15
30
29
28
22
30
22
18
17
29
21
17
12
9
-6
-14
-11
-17
-16
-11
-14
-30
-27
-25
-27
-31
-31
-31
-31
-27
-26
-35
-46
-40
-52
-44
-52
-45
-38
-31
-44
-38
-43
-39
-49
-46
-36
-41
-48
-40
-47
-53
-48
-38
-44
-56
-56
-50
-38
-26
-34
-33
-42
-51
-57
-40
-28
-42
-44
-43
-35
-42
-44
-47
-45
-44
-45
-47
-47
-43
-46
-36
-29
-31
-47
-43
-40
-40
-42
-44
-46
-38
-40
-40
-45
-45
-41
-37
-42
-35
-34
-34
-32
-43
-34
-48
-51
-43
-34
-40
-49
-45
-33
-38
-40
-46
-39
-35
-35
-28
-43
-44
-41
-50
-43
-29
-29
-45
-43
-47
-48
-44
-38
-39
-47
-35
-37
-46
-37
-35
-38
-37
-34
-37
-46
-39
-37
-43
-36
-39
-43
-44
-47
-50
-26
-36
-37
-41
-35
-40
-30
-30
-37
-44
-38
-38
-44
-42
-34
-37
-37
-35
-32
-42
-43
-37
-35
-39
-38
-37
-38
-42
-38
-38
-41
-34
-40
-41
-37
-32
-39
-37
-23
-36
-41
-45
-42
-39
-38
-40
-49
-40
-42
-43
-38
-26
-34
-41
-35
-38
-39
-43
-34
-44
-44
-36
-27
-27
-32
-36
-35
-37
-39
-47
-43
-40
-41
-39
-39
-47
-49
-35
-34
-35
-36
-36
-36
-35
-33
-34
-40
-39
-39
-38
-33
-34
-36
-32
-39
-42
-45
-34
-33
-39
-32
-33
-35
-41
-42
-39
-36
-29
-30
-34
-37
-39
-37
-41
-42
-34
-34
-34
-44
-33
-33
-27
-34
-40
-43
-38
-31
-24
-27
-44
-33
-30
-30
-22
-26
-28
-26
-30
-29
-25
-30
-31
-35
-29
-30
-19
-24
-19
-26
-27
-34
-36
-28
-30
-25
-25
-25
-23
-29
-26
-39
-34
-41
-20
-26
-30
-21
-27
-39
-32
-34
-32
-34
-28
-33
-48
-47
-39
-32
-25
-30
-40
-35
-27
-38
-39
-45
-34
-33
-35
-37
-42
-46
-50
-46
-55
-71
-79
-82
-75
-56
-43
-25
6
29
57
77
107
132
167
198
235
273
301
309
311
295
257
215
165
93
41
2
-22
-35
-42
-34
-34
-38
-39
-42
-45
-42
-34
-31
-31
-31
-29
-30
-29
-37
-46
-31
-19
-22
-29
-34
-39
-37
-34
-33
-46
-36
-23
-18
-26
-26
-26
-23
-24
-22
-25
-19
-28
-32
-33
-17
-28
-19
-25
-30
-20
-19
-22
-15
-16
-16
-20
-17
-15
-16
-17
-4
-6
-16
0
-4
0
6
14
-1
-5
12
14
23
19
19
9
21
25
23
22
33
31
25
30
39
28
36
33
35
33
38
43
41
40
40
41
47
52
45
46
42
33
30
30
25
21
18
15
15
16
5
-3
7
3
-6
2
2
0
-10
-11
-21
-28
-16
-16
-17
-23
-33
-33
-28
-22
-34
-42
-29
-33
-34
-38
-30
-28
-28
-23
-32
-36
-31
-38
-38
-31
-24
-31
-26
-31
-32
-43
-38
-24
-26
-22
-32
-33
-32
-34
-34
-35
-31
-37
-39
-32
-20
-24
-32
-31
-27
-28
-31
-32
-33
-24
-33
-29
-21
-13
-26
-34
-30
-33
-39
-29
-16
-21
-28
-25
-30
-26
-18
-27
-26
-28
-27
-35
-34
-17
-12
-16
-24
-25
-36
-29
-26
-25
-27
-27
-28
-26
-28
-25
-22
-27
-24
-28
-26
-22
-27
-24
-12
-22
-28
-17
-22
-23
-33
-35
-24
-22
-25
-29
-33
-16
-22
-28
-28
-22
-29
-26
-30
-24
-27
-23
-25
-21
-27
-14
-21
-25
-39
-25
-27
-26
-26
-32
-22
-18
-29
-27
-30
-29
-33
-23
-28
-27
-27
-28
-27
-33
-15
-24
-34
-19
-22
-25
-20
-17
-30
-20
-21
-31
-27
-26
-34
-35
-27
-17
-22
-21
-16
-12
-26
-35
-24
-19
-20
-23
-30
-25
-27
-34
-32
-25
-22
-26
-20
-30
-37
-25
-16
-22
-28
-16
-16
-20
-31
-36
-33
-32
-23
-36
-34
-17
-14
-28
-22
-25
-25
-18
-22
-18
-29
-29
-34
-34
-30
-31
-36
-30
-14
-18
-18
-25
-25
-28
-24
-26
-32
-24
-23
-26
-23
-15
-15
-21
-21
-16
-20
-10
-11
-26
-14
-18
-20
-25
-12
-16
-10
-13
-18
-19
-19
-19
-14
-15
-7
-18
-28
-16
-23
-24
-16
-19
-26
-27
-15
-20
-18
-18
-25
-23
-27
-26
-22
-32
-27
-32
-36
-27
-23
-37
-27
-31
-35
-34
-29
-27
-27
-31
-33
-33
-31
-27
-35
-42
-52
-67
-62
-72
-74
-61
-53
-37
-10
22
39
47
78
112
139
158
196
241
288
307
323
321
314
279
234
190
121
49
12
-11
-25
-39
-35
-32
-35
-35
-24
-23
-31
-24
-22
-28
-27
-27
-38
-31
-24
-26
-24
-27
-25
-21
-24
-22
-29
-36
-24
-34
-34
-27
-26
-17
-22
-25
-21
-17
-14
-12
-18
-18
-27
-20
-14
-17
-31
-20
-9
-11
-10
-10
-20
-9
-18
-16
-14
2
-11
-13
-11
-10
-5
-2
-7
2
11
4
6
7
5
10
13
4
16
26
21
17
22
26
30
37
25
28
28
29
30
34
32
38
43
39
38
46
51
47
44
53
43
46
45
42
45
36
39
42
32
30
27
29
28
20
11
15
22
20
5
5
2
-1
1
5
-12
-10
-11
-18
-22
-22
-20
-16
-18
-27
-28
-19
-24
-31
-23
-24
-26
-30
-34
-30
-34
-29
-30
-31
-27
-26
-18
-20
-22
-21
-32
-31
-31
-33
-23
-19
-31
-36
-26
-24
-35
-30
-24
-28
-26
-30
-30
-20
-19
-30
-33
-37
-33
-29
-24
-29
-33
-28
-16
-30
-30
-26
-25
-29
-25
-25
-29
-24
-30
-28
-32
-43
-32
-27
-22
-19
-19
-21
-7
-21
-33
-31
-27
-34
-34
-28
-24
-31
-32
-26
-30
-28
-24
-27
-23
-29
-35
-30
-24
-28
-36
-21
-19
-27
-21
-23
-23
-21
-25
-28
-29
-37
-29
-33
-30
-33
-28
-27
-22
-22
-33
-29
-19
-18
-23
-22
-24
-28
-30
-37
-34
-28
-33
-26
-28
-28
-23
-17
-8
-28
-33
-37
-26
-36
-26
-23
-25
-31
-27
-30
-25
-24
-32
-32
-23
-30
-31
-26
-27
-37
-38
-26
-21
-22
-17
-17
-23
-29
-30
-20
-21
-23
-31
-33
-31
-33
-34
-32
-27
-27
-30
-27
-28
-35
-28
-25
-21
-19
-30
-36
-25
-32
-34
-37
-28
-29
-21
-13
-22
-36
-24
-26
-31
-36
-35
-31
-22
-21
-23
-30
-29
-22
-20
-20
-34
-39
-32
-26
-25
-22
-26
-24
-31
-21
-28
-34
-16
-27
-31
-25
-22
-21
-21
-12
-13
-15
-15
-9
-21
-21
-17
-18
-22
-15
-20
-22
-22
-22
-19
-25
-16
-20
-24
-12
-12
-16
-18
-14
-23
-12
-25
-40
-42
-21
-22
-22
-22
-26
-36
-39
-31
-19
-28
-31
-35
-31
-34
-27
-29
-41
-34
-21
-39
-34
-26
-26
-31
-28
-39
-43
-48
-53
-55
-61
-63
-72
-69
-48
-34
-10
16
34
47
68
107
146
185
211
245
287
310
310
310
303
266
220
169
91
39
12
-16
-33
-25
-25
-37
-34
-44
-41
-33
-37
-24
-26
-34
-22
-26
-20
-23
-41
-45
-31
-28
-29
-31
-22
-20
-24
-25
-31
-32
-18
-17
-24
-24
-24
-33
-29
-10
-18
-30
-18
-21
-21
-17
-14
-21
-28
-17
-12
-14
-18
-14
-13
-18
-14
-16
-13
-4
-4
-7
4
3
-9
-5
1
-3
-4
-6
-4
4
2
15
16
20
16
20
21
17
13
23
20
25
26
26
36
37
37
48
31
44
47
42
43
47
43
39
45
50
53
43
43
49
46
48
37
28
27
35
30
33
35
34
32
30
14
10
2
2
-1
-2
-7
-7
-10
-10
-11
-13
-12
-20
-30
-25
-24
-18
-19
-23
-21
-27
-30
-24
-26
-24
-29
-34
-29
-23
-28
-27
-22
-26
-35
-27
-27
-34
-32
-24
-27
-28
-25
-23
-30
-28
-23
-22
-23
-18
-20
-29
-29
-35
-28
-20
-27
-30
-28
-18
-13
-15
-24
-31
-15
-17
-23
-30
-27
-24
-22
-15
-16
-24
-15
-11
-24
-24
-26
-30
-26
-19
-16
-24
-23
-22
-23
-16
-21
-18
-20
-19
-12
-20
-16
-9
-15
-23
-21
-13
-16
-15
-17
-19
-21
-18
-21
-30
-24
-16
-17
-18
-26
-15
-14
-13
-22
-24
-16
-22
-21
-26
-17
-24
-29
-16
-19
-14
-19
-19
-22
-25
-21
-11
-13
-18
-22
-28
-27
-15
-4
-12
-22
-13
-17
-15
-18
-26
-17
-8
-13
-23
-23
-23
-22
-15
-12
-23
-21
-24
-16
-19
-12
-12
-22
-10
-12
-16
-10
-10
-8
-12
-8
-2
-2
-5
-17
-9
4
3
-5
-12
-8
-7
-5
-14
-11
-7
1
-7
-9
-6
-6
-12
-13
-10
-12
-11
-7
-15
-23
-16
0
-2
1
-6
-14
-9
-11
-3
-6
-1
7
-4
-3
-6
-3
3
2
-2
1
9
0
-1
10
16
15
20
15
17
14
22
26
21
24
34
23
23
33
31
31
25
27
31
35
41
39
46
57
53
50
47
53
46
40
50
45
55
58
48
51
53
54
56
56
53
53
54
63
64
62
67
62
57
57
56
53
53
53
54
45
49
44
40
37
21
-2
-2
1
13
30
48
60
87
118
141
173
209
240
258
297
345
367
383
371
364
340
298
253
186
108
71
38
18
17
17
9
27
27
21
18
15
12
16
20
22
17
12
14
13
28
25
16
15
16
17
19
17
15
18
20
15
7
10
7
10
19
26
27
17
16
15
16
15
10
13
11
19
19
23
22
21
25
25
19
13
17
29
26
24
27
25
13
12
23
24
33
33
36
30
32
37
32
38
34
35
36
43
44
45
46
45
45
49
51
59
62
52
53
61
65
60
57
67
66
58
64
64
67
68
68
62
61
58
51
56
71
68
56
51
47
42
37
32
30
24
27
24
26
13
15
9
-2
-7
2
5
3
-6
-2
-8
-6
-12
-11
-14
-16
-11
-11
-11
-13
-10
-16
-24
-22
-24
-23
-31
-20
-6
-9
-18
-15
-19
-21
-20
-25
-19
-20
-26
-29
-23
-18
-40
-29
-21
-14
-12
-22
-37
-33
-23
-21
-24
-15
-18
-28
-29
-28
-18
-23
-25
-23
-24
-28
-28
-24
-34
-21
-23
-29
-28
-21
-32
-34
-24
-26
-26
-26
-28
-30
-25
-23
-25
-23
-28
-37
-26
-21
-25
-22
-26
-31
-24
-22
-29
-34
-26
-15
-34
-42
-34
-31
-34
-38
-33
-38
-35
-18
-31
-33
-28
-30
-45
-41
-43
-47
-26
-21
-34
-37
-31
-30
-33
-34
-42
-45
-22
-25
-38
-38
-35
-41
-34
-35
-24
-38
-33
-32
-40
-45
-49
-39
-37
-36
-37
-40
-40
-40
-43
-39
-35
-39
-35
-39
-46
-44
-31
-43
-44
-44
-45
-44
-39
-38
-35
-32
-31
-36
-46
-55
-52
-45
-42
-36
-49
-54
-42
-36
-40
-44
-43
-41
-27
-35
-42
-46
-51
-49
-49
-41
-46
-43
-30
-37
-46
-49
-45
-44
-43
-33
-27
-38
-44
-43
-44
-36
-27
-32
-38
-36
-29
-33
-47
-47
-54
-44
-41
-37
-36
-29
-35
-37
-36
-41
-43
-43
-52
-53
-43
-46
-47
-62
-60
-49
-51
-45
-44
-50
-49
-51
-53
-45
-56
-57
-59
-61
-58
-42
-53
-58
-60
-61
-47
-60
-77
-87
-92
-89
-83
-87
-76
-58
-41
-15
16
29
41
65
113
157
178
205
252
275
285
283
277
228
188
132
61
-3
-40
-49
-62
-62
-63
-64
-48
-53
-77
-71
-58
-52
-57
-51
-46
-53
-58
-51
-50
-49
-40
-51
-47
-42
-49
-53
-51
-53
-59
-54
-43
-52
-49
-42
-42
-45
-50
-43
-48
-47
-48
-48
-50
-37
-37
-36
-39
-44
-42
-41
-48
-46
-38
-20
-24
-42
-39
-33
-31
-25
-22
-35
-46
-28
-19
-16
-10
-13
-36
-21
-14
-26
-17
2
-8
-5
-3
-5
-10
-10
-6
-1
8
15
18
-1
-6
9
20
29
20
16
29
28
29
26
23
13
23
35
41
19
25
23
9
18
2
5
5
4
1
8
-6
-4
-8
-18
-33
-33
-38
-31
-29
-35
-36
-32
-48
-39
-45
-51
-52
-43
-41
-45
-53
-47
-51
-58
-52
-55
-49
-53
-57
-58
-59
-49
-56
-50
-49
-60
-59
-59
-47
-65
-64
-50
-54
-56
-52
-47
-47
-48
-56
-62
-53
-49
-56
-61
-52
-47
-58
-56
-52
-64
-58
-48
-51
-52
-46
-55
-55
-54
-55
-69
-55
-48
-45
-39
-52
-62
-47
-52
-55
-56
-50
-61
-56
-53
-54
-53
-47
-46
-43
-54
-46
-58
-58
-59
-57
-59
-63
-52
-40
-47
-52
-58
-58
-57
-52
-58
-44
-43
-47
-64
-57
-61
-57
-62
-55
-50
-43
-53
-47
-47
-43
-50
-47
-53
-58
-74
-53
-45
-50
-54
-54
-57
-47
-61
-67
-59
-53
-52
-57
-54
-42
-56
-56
-48
-46
-49
-50
-44
-60
-62
-64
-48
-65
-61
-62
-48
-46
-57
-63
-61
-48
-52
-53
-47
-46
-52
-44
-50
-63
-51
-56
-59
-48
-53
-57
-58
-47
-40
-58
-56
-48
-55
-47
-47
-59
-65
-62
-51
-59
-45
-47
-43
-37
-40
-54
-43
-48
-54
-53
-41
-38
-39
-51
-55
-47
-51
-58
-60
-58
-52
-35
-38
-43
-44
-42
-46
-47
-59
-53
-48
-48
-62
-61
-57
-62
-63
-53
-56
-51
-53
-62
-62
-63
-59
-60
-62
-60
-57
-59
-53
-51
-61
-65
-69
-73
-62
-71
-84
-95
-83
-88
-84
-88
-75
-47
-16
-6
-6
22
62
98
122
141
177
220
255
260
273
267
251
216
169
113
41
-15
-41
-71
-87
-84
-69
-55
-54
-53
-60
-65
-57
-48
-54
-58
-50
-47
-53
-49
-52
-56
-53
-57
-50
-55
-61
-53
-63
-56
-52
-65
-57
-48
-50
-55
-43
-49
-42
-50
-50
-53
-56
-56
-58
-59
-36
-32
-49
-54
-42
-38
-40
-55
-47
-35
-33
-34
-31
-31
-29
-43
-39
-34
-38
-33
-42
-32
-23
-18
-24
-19
-18
-17
-23
-23
-20
-16
-13
-12
-2
3
1
-1
7
9
6
6
4
9
2
14
25
24
16
17
18
6
12
22
22
17
19
20
16
10
8
9
1
-1
3
0
-11
-22
-9
-5
-15
-30
-29
-25
-34
-44
-36
-29
-34
-41
-51
-43
-51
-49
-54
-48
-48
-48
-57
-56
-49
-51
-49
-53
-56
-60
-59
-57
-69
-54
-56
-53
-50
-50
-52
-53
-54
-51
-55
-60
-56
-58
-48
-59
-56
-49
-41
-45
-57
-56
-67
-59
-45
-53
-52
-47
-47
-61
-71
-63
-60
-50
-51
-33
-44
-46
-54
-58
-59
-53
-49
-46
-50
-45
-49
-46
-50
-57
-49
-51
-60
-56
-40
-47
-49
-51
-46
-56
-59
-47
-48
-58
-49
-45
-40
-44
-46
-59
-50
-43
-47
-47
-54
-51
-55
-48
-39
-46
-45
-55
-56
-55
-45
-41
-49
-39
-40
-52
-52
-51
-50
-49
-46
-54
-49
-43
-44
-40
-42
-54
-48
-39
-38
-53
-55
-62
-53
-52
-57
-52
-46
-48
-38
-48
-39
-39
-54
-48
-53
-60
-63
-55
-46
-43
-50
-40
-38
-60
-50
-43
-45
-49
-48
-49
-53
-54
-63
-48
-35
-39
-45
-52
-50
-52
-42
-39
-54
-56
-44
-46
-38
-44
-38
-39
-42
-43
-50
-48
-38
-41
-30
-33
-35
-45
-39
-41
-45
-50
-36
-32
-40
-36
-44
-45
-44
-41
-44
-39
-30
-39
-43
-45
-50
-54
-44
-57
-48
-34
-38
-41
-52
-48
-49
-52
-61
-60
-52
-50
-52
-47
-53
-45
-44
-45
-40
-52
-54
-55
-49
-58
-71
-64
-83
-88
-86
-94
-85
-56
-30
-20
-6
27
48
69
105
141
152
202
238
261
283
290
279
259
226
182
113
53
19
-15
-33
-35
-49
-57
-57
-57
-59
-46
-31
-43
-45
-39
-39
-44
-50
-42
-39
-39
-45
-49
-46
-40
-39
-50
-45
-51
-51
-40
-41
-32
-36
-28
-34
-37
-41
-41
-36
-33
-28
-33
-36
-25
-30
-43
-36
-37
-38
-36
-26
-25
-34
-29
-30
-28
-27
-30
-24
-16
-3
-20
-21
-19
-25
-17
-8
-12
-13
-6
-4
-10
-18
-5
-1
5
8
6
-2
18
6
15
17
19
24
33
23
14
14
21
23
25
36
37
32
36
37
32
29
24
26
35
33
29
22
22
20
23
12
9
2
-2
3
5
-7
-2
-15
-26
-15
-19
-16
-20
-28
-30
-32
-24
-25
-39
-34
-31
-39
-34
-30
-39
-50
-50
-41
-48
-51
-37
-32
-28
-24
-30
-35
-38
-43
-47
-25
-27
-36
-38
-42
-45
-39
-45
-34
-47
-46
-38
-34
-33
-37
-42
-47
-41
-43
-42
-46
-42
-46
-47
-36
-42
-41
-26
-33
-40
-36
-40
-42
-49
-33
-41
-40
-35
-36
-41
-42
-37
-28
-35
-34
-37
-35
-42
-46
-39
-36
-34
-40
-37
-30
-35
-34
-31
-42
-43
-32
-26
-42
-42
-40
-41
-38
-35
-28
-41
-41
-44
-42
-37
-31
-35
-33
-32
-35
-37
-37
-41
-44
-43
-33
-33
-26
-42
-48
-43
-36
-38
-38
-32
-32
-33
-44
-33
-27
-43
-39
-26
-37
-30
-34
-45
-51
-47
-40
-38
-43
-34
-29
-36
-38
-41
-46
-40
-25
-19
-28
-41
-45
-36
-40
-44
-36
-39
-43
-39
-38
-39
-42
-45
-37
-38
-29
-31
-38
-34
-32
-34
-38
-38
-41
-45
-37
-37
-41
-31
-24
-34
-36
-26
-38
-40
-40
-35
-42
-41
-36
-29
-48
-48
-33
-32
-28
-36
-36
-28
-39
-28
-24
-25
-38
-35
-36
-34
-26
-27
-23
-29
-40
-23
-26
-30
-28
-26
-27
-28
-29
-27
-28
-31
-39
-29
-22
-32
-37
-24
-22
-33
-38
-25
-31
-29
-40
-31
-30
-32
-34
-30
-44
-43
-50
-40
-30
-40
-46
-41
-33
-31
-35
-38
-42
-41
-40
-39
-43
-40
-36
-38
-40
-46
-58
-57
-77
-88
-79
-71
-68
-52
-31
-9
7
16
47
69
98
138
167
202
237
269
284
299
304
273
245
209
159
78
26
-3
-33
-38
-39
-42
-47
-30
-42
-47
-38
-40
-28
-33
-27
-25
-30
-25
-35
-39
-26
-29
-34
-29
-32
-41
-37
-30
-33
-30
-35
-34
-37
-38
-37
-44
-36
-35
-30
-25
-23
-24
-27
-31
-27
-33
-30
-22
-27
-26
-21
-31
-32
-14
-9
-17
-14
-11
-21
-18
-5
-18
-24
-6
1
-12
-11
-3
-3
-17
-10
4
1
-4
3
4
10
6
9
18
17
4
19
15
23
25
40
27
26
25
28
28
21
27
32
36
47
45
34
32
43
37
35
45
26
22
31
23
19
17
8
10
18
1
3
-2
6
-8
-12
-4
-13
-25
-17
-20
-28
-27
-22
-35
-36
-22
-22
-34
-35
-27
-37
-32
-31
-36
-37
-31
-34
-43
-44
-38
-37
-28
-29
-43
-40
-38
-35
-41
-44
-33
-39
-45
-39
-31
-28
-28
-34
-38
-41
-29
-41
-39
-29
-35
-42
-32
-31
-33
-42
-36
-33
-42
-43
-37
-36
-31
-34
-50
-38
-33
-44
-39
-31
-28
-40
-31
-33
-32
-35
-36
-50
-39
-34
-37
-36
-36
-37
-35
-32
-41
-46
-34
-47
-38
-28
-34
-36
-28
-40
-42
-39
-31
-36
-38
-29
-34
-37
-31
-30
-39
-56
-39
-30
-31
-35
-32
-36
-34
-43
-43
-40
-30
-28
-39
-40
-40
-37
-33
-36
-39
-45
-49
-38
-36
-37
-36
-35
-40
-33
-32
-40
-36
-39
-47
-47
-49
-40
-39
-37
-44
-45
-35
-33
-30
-34
-39
-44
-33
-34
-37
-38
-37
-42
-38
-38
-33
-33
-27
-40
-42
-39
-41
-43
-36
-40
-36
-45
-41
-42
-45
-41
-32
-38
-39
-42
-36
-33
-30
-36
-42
-42
-41
-40
-45
-35
-27
-40
-45
-43
-38
-38
-40
-37
-35
-32
-38
-42
-39
-35
-27
-37
-39
-43
-42
-38
-36
-37
-32
-37
-45
-34
-27
-28
-43
-46
-41
-35
-35
-36
-36
-30
-36
-42
-41
-32
-34
-28
-30
-32
-35
-36
-39
-32
-23
-27
-25
-27
-23
-25
-31
-32
-37
-35
-34
-24
-26
-24
-31
-31
-40
-38
-20
-32
-32
-26
-27
-26
-25
-39
-37
-33
-27
-33
-39
-36
-36
-39
-35
-44
-47
-44
-41
-43
-45
-42
-36
-43
-38
-49
-53
-49
-32
-21
-37
-37
-44
-41
-47
-64
-65
-58
-67
-69
-74
-73
-75
-48
-34
-11
4
18
52
90
117
149
177
210
249
275
293
311
297
273
230
194
119
55
9
-23
-38
-35
-40
-46
-43
-38
-48
-36
-33
-50
-38
-43
-44
-26
-31
-30
-33
-33
-35
-37
-37
-28
-37
-38
-28
-31
-38
-36
-37
-38
-33
-38
-34
-29
-31
-34
-36
-35
-31
-39
-36
-26
-18
-32
-20
-29
-23
-24
-25
-24
-27
-21
-22
-24
-19
-20
-15
-11
-9
-16
-23
-16
-16
-8
-12
-16
-18
-14
1
-2
7
4
-2
7
10
5
9
18
27
21
14
16
22
26
27
22
33
30
36
30
34
37
31
28
34
31
45
36
32
33
32
28
24
29
29
18
22
26
19
8
11
11
4
-3
-2
-9
-9
-20
-18
-20
-14
-17
-29
-30
-24
-26
-26
-29
-31
-29
-36
-40
-30
-30
-32
-33
-38
-31
-39
-48
-38
-37
-39
-40
-41
-48
-46
-36
-39
-45
-30
-40
-46
-40
-36
-40
-37
-36
-42
-35
-30
-33
-34
-44
-36
-36
-38
-42
-40
-39
-34
-35
-34
-34
-28
-41
-45
-46
-52
-51
-45
-37
-30
-29
-36
-38
-39
-39
-34
-31
-38
-29
-39
-40
-33
-29
-48
-43
-41
-41
-36
-33
-34
-39
-41
-36
-32
-39
-44
-42
-40
-37
-47
-35
-31
-37
-33
-30
-41
-49
-47
-46
-28
-28
-32
-40
-41
-36
-34
-33
-39
-41
-41
-32
-25
-32
-48
-48
-48
-38
-34
-41
-44
-46
-40
-40
-35
-36
-35
-39
-46
-41
-41
-37
-33
-39
-41
-44
-45
-42
-44
-47
-51
-33
-42
-49
-53
-46
-30
-39
-34
-33
-36
-32
-34
-41
-47
-47
-48
-45
-40
-48
-46
-34
-42
-36
-43
-41
-41
-40
-42
-43
-35
-35
-37
-34
-39
-45
-43
-36
-33
-42
-45
-49
-45
-42
-42
-48
-44
-40
-43
-39
-35
-37
-43
-47
-45
-43
-43
-44
-37
-23
-40
-46
-46
-38
-36
-43
-43
-42
-38
-37
-47
-46
-47
-40
-32
-31
-44
-43
-43
-41
-43
-42
-43
-44
-39
-46
-47
-31
-41
-47
-38
-38
-44
-41
-41
-48
-47
-35
-41
-41
-38
-40
-43
-43
-48
-42
-31
-42
-46
-39
-43
-46
-38
-34
-35
-44
-36
-29
-25
-40
-42
-41
-42
-41
-30
-32
-29
-33
-24
-17
-28
-42
-43
-37
-38
-35
-29
-21
-30
-34
-35
-23
-26
-33
-35
-46
-40
-37
-35
-31
-28
-30
-28
-25
-29
-39
-39
-38
-33
-34
-39
-43
-43
-43
-38
-53
-45
-39
-43
-43
-35
-39
-47
-49
-49
-44
-32
-38
-37
-36
-42
-52
-51
-48
-53
-64
-60
-72
-82
-75
-74
-86
-47
-26
-9
14
33
59
100
133
156
181
221
248
279
305
317
297
260
223
185
108
38
-2
-22
-31
-50
-48
-41
-38
-41
-46
-47
-38
-33
-29
-29
-45
-50
-42
-40
-42
-27
-28
-43
-35
-36
-39
-29
-33
-35
-38
-32
-36
-46
-39
-39
-35
-34
-32
-26
-29
-30
-27
-21
-29
-29
-26
-33
-37
-34
-23
-28
-30
-34
-32
-22
-12
-5
-17
-24
-17
-10
-14
-24
-16
-11
-18
-19
-9
-3
-7
-8
-6
-8
-5
0
11
14
13
7
6
0
8
13
21
22
25
25
22
23
16
33
36
31
30
27
31
32
42
45
44
35
34
41
40
28
33
31
38
38
24
17
8
12
18
13
3
0
-3
-17
-11
-11
-15
-13
-11
-21
-16
-23
-32
-35
-31
-35
-43
-37
-23
-20
-33
-34
-26
-34
-42
-45
-37
-42
-48
-37
-34
-32
-33
-40
-48
-47
-45
-44
-46
-45
-37
-30
-29
-44
-35
-40
-39
-33
-33
-33
-42
-36
-34
-38
-44
-35
-47
-45
-41
-43
-41
-25
-30
-42
-44
-40
-44
-38
-33
-45
-37
-37
-45
-47
-39
-31
-33
-34
-33
-35
-41
-42
-43
-41
-39
-38
-37
-31
-37
-43
-39
-41
-40
-35
-36
-36
-40
-37
-35
-33
-35
-35
-40
-36
-42
-42
-44
-38
-33
-31
-32
-31
-37
-34
-39
-40
-40
-36
-47
-37
-30
-28
-46
-52
-40
-43
-32
-25
-36
-45
-42
-45
-46
-43
-39
-39
-41
-40
-39
-32
-33
-37
-46
-45
-55
-43
-45
-40
-29
-40
-35
-34
-43
-46
-41
-45
-44
-36
-45
-38
-41
-43
-44
-46
-42
-40
-40
-39
-38
-45
-45
-42
-51
-32
-34
-50
-49
-27
-36
-42
-40
-47
-46
-42
-46
-51
-51
-48
-42
-43
-39
-28
-32
-33
-38
-49
-55
-43
-39
-40
-39
-47
-47
-40
-44
-39
-41
-41
-42
-48
-42
-43
-42
-46
-43
-52
-42
-45
-44
-33
-37
-43
-49
-39
-45
-53
-60
-47
-29
-36
-39
-44
-38
-34
-31
-41
-37
-38
-42
-43
-30
-40
-36
-47
-52
-47
-35
-31
-33
-35
-30
-30
-22
-27
-38
-39
-34
-30
-29
-25
-28
-42
-46
-46
-41
-39
-40
-27
-26
-28
-29
-36
-38
-39
-48
-37
-28
-26
-32
-40
-36
-40
-45
-41
-35
-38
-42
-46
-42
-41
-35
-43
-51
-46
-42
-49
-50
-47
-46
-48
-43
-33
-44
-46
-47
-45
-49
-57
-67
-75
-80
-89
-77
-80
-62
-43
-13
11
25
42
76
99
119
158
197
233
266
293
306
301
283
251
207
163
82
22
-8
-30
-44
-45
-47
-49
-44
-49
-49
-47
-50
-43
-36
-31
-34
-42
-38
-55
-52
-54
-46
-35
-31
-29
-38
-36
-29
-33
-45
-48
-40
-38
-31
-27
-35
-38
-32
-30
-37
-34
-33
-35
-34
-34
-34
-32
-32
-29
-30
-22
-22
-26
-25
-31
-27
-19
-26
-31
-27
-21
-15
-16
-4
-10
-16
-21
-12
-9
-13
-3
2
-6
0
1
-3
6
2
3
11
22
20
20
19
25
25
28
25
23
28
37
31
30
26
31
33
35
37
34
30
44
42
39
46
29
27
29
20
20
18
22
25
17
-3
4
12
6
-4
-5
-13
-16
-18
-21
-20
-28
-28
-17
-23
-31
-33
-30
-31
-33
-34
-30
-41
-40
-37
-38
-39
-31
-28
-32
-44
-37
-49
-40
-42
-41
-45
-39
-29
-33
-33
-24
-40
-38
-43
-51
-38
-37
-34
-39
-38
-29
-41
-38
-35
-44
-43
-42
-46
-37
-37
-43
-32
-33
-34
-43
-38
-27
-38
-40
-38
-34
-28
-37
-35
-41
-37
-41
-50
-40
-35
-36
-35
-24
-27
-34
-30
-39
-40
-37
-33
-34
-39
-33
-31
-40
-35
-32
-39
-41
-44
-42
-31
-27
-28
-33
-22
-32
-39
-34
-24
-33
-40
-41
-37
-45
-43
-23
-30
-27
-29
-31
-33
-26
-34
-39
-39
-35
-28
-46
-41
-31
-23
-30
-32
-34
-34
-38
-28
-34
-43
-35
-38
-37
-31
-30
-29
-34
-38
-35
-28
-36
-48
-38
-28
-39
-39
-30
-30
-30
-25
-34
-47
-34
-38
-42
-35
-38
-38
-36
-35
-33
-37
-40
-29
-36
-36
-21
-31
-35
-27
-39
-38
-34
-32
-33
-33
-32
-37
-29
-40
-40
-38
-32
-37
-41
-34
-34
-33
-32
-35
-38
-28
-26
-34
-31
-37
-41
-42
-38
-33
-35
-26
-27
-37
-29
-24
-30
-42
-34
-36
-37
-36
-25
-32
-36
-34
-37
-34
-28
-38
-32
-29
-32
-38
-30
-28
-24
-24
-24
-20
-32
-25
-28
-27
-28
-30
-27
-24
-20
-30
-28
-18
-16
-22
-17
-22
-18
-24
-24
-32
-35
-33
-39
-31
-15
-22
-23
-26
-20
-30
-23
-23
-24
-36
-31
-17
-21
-33
-35
-29
-31
-35
-38
-30
-30
-34
-38
-35
-32
-40
-36
-30
-34
-40
-34
-30
-39
-41
-36
-35
-32
-50
-65
-65
-76
-77
-72
-73
-59
-37
-13
8
27
37
60
106
137
167
207
229
267
301
305
309
306
283
237
192
118
62
19
-13
-17
-27
-41
-36
-37
-41
-36
-30
-24
-30
-41
-28
-24
-28
-30
-28
-24
-30
-19
-27
-39
-31
-25
-21
-28
-27
-20
-29
-21
-23
-16
-6
-20
-21
-14
-20
-19
-26
-26
-15
-10
-6
-1
-11
-13
-11
-8
-2
0
-1
-10
-4
-9
-9
-4
2
-6
-1
4
-1
-2
12
11
5
3
12
13
10
18
24
7
13
21
18
18
32
32
30
37
30
26
32
42
43
49
45
36
48
56
62
57
45
50
51
47
50
47
50
54
48
50
57
51
49
43
42
35
36
33
27
22
28
29
19
21
15
9
-4
2
4
-2
-7
-10
-9
-15
-11
-14
-17
-16
-11
-20
-22
-20
-8
-10
-18
-21
-19
-13
-27
-40
-23
-13
-25
-28
-21
-19
-25
-37
-36
-31
-16
-14
-15
-23
-18
-26
-21
-15
-21
-24
-25
-16
-21
-25
-26
-29
-26
-21
-29
-31
-23
-13
-20
-19
-24
-26
-18
-19
-29
-19
-22
-33
-30
-14
-13
-19
-25
-21
-27
-20
-20
-28
-26
-16
-18
-20
-21
-19
-25
-22
-20
-11
-18
-21
-9
-11
-17
-13
-27
-21
-24
-29
-28
-29
-22
-11
-27
-22
-16
-15
-19
-16
-15
-21
-21
-20
-19
-17
-34
-21
-7
-22
-19
-14
-18
-21
-16
-17
-24
-19
-21
-26
-24
-21
-23
-18
-15
-26
-24
-19
-10
-19
-25
-15
-18
-19
-31
-33
-28
-29
-21
-19
-10
-13
-22
-19
-21
-15
-16
-20
-26
-24
-20
-24
-21
-19
-11
-19
-21
-12
-29
-31
-19
-21
-25
-10
-6
-14
-19
-24
-25
-23
-28
-20
-22
-22
-16
-16
-21
-13
-18
-23
-26
-27
-23
-11
-13
-16
-20
-15
-19
-19
-7
-19
-42
-26
-19
-25
-28
-15
-18
-12
-13
-5
-8
-27
-25
-27
-19
-20
-25
-21
-16
-17
-21
-13
-18
-21
-20
-16
-20
-20
-5
-10
-15
-8
-9
-11
-8
-16
-17
-3
5
-7
-13
-11
-13
-23
-13
-3
-2
-12
-18
-11
-3
-8
-11
-10
-6
-6
-8
0
-3
-16
-14
-17
-15
-17
-21
-22
-7
-17
-19
-24
-20
-12
-1
-11
-11
-21
-20
-20
-16
-16
-16
-12
-19
-14
-18
-23
-24
-36
-35
-50
-57
-57
-61
-59
-34
-13
4
30
45
62
95
132
156
189
222
254
281
312
331
327
310
278
236
185
109
51
19
-6
-13
-30
-25
-31
-24
-10
-15
-15
-18
-20
-17
-22
-5
-13
-23
-17
-14
-15
-20
-18
-14
-16
-19
-14
-12
-14
-14
-21
-17
-10
-11
-20
-15
-11
-12
1
-12
-16
-7
-5
-1
-8
-8
0
-7
-14
-8
2
-6
-5
-4
-2
0
-4
5
5
0
-1
14
2
11
8
16
15
6
13
16
17
12
21
23
28
36
35
26
31
18
25
42
48
42
38
39
45
40
53
55
55
61
56
39
45
65
65
63
59
68
60
66
62
50
47
51
53
50
50
40
47
45
47
42
28
34
19
14
21
5
-6
-4
13
12
7
1
-6
-12
-4
-1
-5
-7
-10
-17
-15
-13
-7
-3
-1
-7
-23
-13
-4
-20
-19
-21
-18
-21
-17
-13
-8
-10
-21
-17
-15
-11
-12
-13
-8
-18
-23
-23
-13
-20
-14
-17
-21
-19
-22
-19
-17
-9
-12
-21
-11
-5
-8
-12
-5
-4
-19
-17
-11
-15
-14
-12
-7
-14
-15
-13
-12
-9
-18
-28
-22
-21
-15
-17
-16
-10
-9
-11
-15
-14
-5
-17
-15
-13
-10
-16
-26
-13
-7
-11
-5
-8
-15
-9
-11
-12
-12
-12
-18
-11
-15
-14
-9
-9
-12
-17
-15
-12
-15
-16
-7
-5
-11
-10
-8
-16
-22
-19
-14
-9
-3
-10
-21
-16
-10
-14
-12
-10
-17
-14
-10
-15
-25
-29
-21
-7
-9
-14
-14
-18
-12
-7
-12
-12
-27
-32
-21
-16
-7
5
-2
-10
-24
-14
-12
-18
-20
-8
-13
-22
-27
-19
-8
-1
-14
-18
-16
-15
-14
-13
-11
-1
-19
-20
-12
-15
-13
-17
-29
-30
-16
-17
-16
2
1
-17
-27
-3
-4
-5
-10
-15
-23
-20
-14
-11
-6
-6
-13
-5
0
1
2
1
-2
-3
-2
-13
-8
-7
-6
-6
-14
-8
2
-13
-9
-7
-3
-11
-5
-7
-5
-1
-10
-18
-10
-7
-11
-18
-15
-21
-19
-14
-19
-17
-22
-25
-16
-16
-20
-25
-15
-15
-16
-27
-12
-18
-15
-9
-16
-24
-21
-21
-40
-36
-48
-59
-58
-58
-52
-39
-15
14
29
45
77
115
149
169
192
225
276
314
322
335
328
297
266
222
161
91
44
8
-19
-28
-39
-38
-18
-14
-13
-24
-20
-15
-7
-9
-3
-19
-17
-16
-15
-18
-20
-19
-14
-17
-18
-20
-11
-9
-17
-16
-15
-22
-22
-9
-1
-14
-12
-5
-8
-14
-6
-12
-11
-11
-4
-13
-7
0
-7
-7
-1
-4
-4
10
12
3
-8
-9
-4
-3
9
16
23
18
5
9
11
11
21
12
20
11
0
22
29
27
26
40
41
35
41
40
34
42
52
37
38
42
43
58
67
61
60
70
73
60
55
43
54
63
65
58
74
61
52
48
45
48
50
49
46
33
28
33
25
29
18
9
6
3
20
14
12
3
-1
-6
-8
-9
-5
-10
-2
-5
-10
-5
-8
-19
-24
-8
-7
-4
0
-12
-19
-26
-21
-18
-8
-7
-27
-18
-9
-17
-17
-12
-23
-25
-23
-19
-18
-4
-9
-11
-12
-16
-22
-37
-16
-12
-11
-6
-15
-20
-18
-15
-13
-7
-17
-14
-18
-10
-15
-12
-9
-7
-26
-23
-1
-4
-16
-3
-11
-19
-17
-4
-14
-20
-16
-20
-23
-17
-10
-11
-17
-9
-18
-16
-11
-10
-13
-16
-19
-9
-2
-11
-11
-15
-17
-22
-20
-8
-9
-10
-18
-7
-19
-12
-9
-16
-8
-2
-12
-21
-17
-17
-19
-18
-13
-12
-9
-7
-15
-19
-16
-11
-7
-3
-14
-13
-23
-22
-17
-23
-14
-13
-19
-15
-18
-27
-20
-12
-11
-6
-9
-19
-17
-10
-11
-14
-17
-9
-13
-13
-10
-25
-22
-20
-18
-21
-9
-11
-19
-12
-18
-16
-16
-17
-23
-28
-19
-8
-16
-15
-14
-9
-12
-21
-19
-21
-3
-10
-7
-7
-17
-17
-6
-3
-7
-17
-8
-7
-6
-1
-8
-5
-1
-12
-18
-24
-9
1
9
-1
-8
-7
-12
-15
-18
-20
-19
-4
-15
-17
-14
-15
-13
-14
-18
-25
-27
-24
-17
-22
-15
-20
-18
-14
-13
-16
-17
-22
-26
-23
-17
-32
-22
-19
-19
-29
-32
-35
-43
-51
-69
-62
-47
-42
-24
-6
33
47
69
100
130
147
166
220
260
289
307
318
309
298
262
204
145
95
33
-3
-23
-31
-30
-35
-37
-33
-16
-21
-20
-29
-28
-22
-14
-6
-3
-16
-14
-15
-23
-19
-18
-25
-17
-7
-9
-18
-15
-9
-23
-8
-10
-15
-20
-18
-18
-10
-10
-9
-2
-4
-9
-18
-17
-12
-9
-5
7
7
-1
-4
4
3
1
-4
-10
7
8
1
7
17
2
1
15
17
15
13
21
22
20
26
21
24
29
22
27
28
33
38
35
43
57
41
50
52
40
34
54
62
50
62
69
66
54
59
56
61
69
60
59
64
71
68
52
51
51
54
45
50
45
42
32
30
26
24
25
28
18
10
1
6
2
-2
1
-3
-3
5
11
-10
-16
6
8
-10
-21
-22
-17
-17
-14
-15
-13
-16
-11
-12
-21
-4
-9
-14
-12
-13
-10
-8
-17
-9
-18
-16
-14
-12
-8
-17
-15
-13
-6
-13
-17
-14
-6
-13
1
-23
-15
-13
-16
-18
-21
-15
-11
-17
-15
-7
-9
-12
-12
-18
-17
-18
-14
-8
-8
-21
-22
-16
-12
-13
-14
-11
-14
-19
-21
-18
-2
2
-9
-7
-8
-13
-18
-19
-12
-17
-7
5
-15
-15
-2
-12
-11
-9
-8
-11
-7
-16
-16
-6
-13
-21
-22
-15
-13
-12
-6
-7
-12
-8
-8
-19
-25
-12
-12
2
-8
-11
8
-13
-18
-21
-23
-15
-12
-14
-8
-12
-15
-18
-11
-6
-8
-16
-11
-12
-8
-16
-16
-19
-11
-12
1
-2
-18
-21
-15
-11
-9
-15
-15
-2
-13
-13
-12
-9
-7
-12
-21
-12
0
-9
-17
-21
-13
-14
-17
-23
-33
-12
-2
-10
-3
0
-11
-13
-9
-16
-21
-10
-5
-2
0
-7
-13
-11
-10
1
-1
-5
-4
-11
-3
-5
-6
-10
-8
-3
-1
-2
-13
-9
4
-8
-14
-18
-15
7
11
-5
0
-7
5
1
-4
-11
-4
-13
-10
-13
-15
-22
-17
-19
-24
-24
-20
-8
7
-2
-30
-33
-18
-19
-12
-9
-4
-27
-23
-5
-9
-21
-38
-45
-48
-37
-41
-49
-28
-18
3
18
48
64
78
124
159
178
197
240
270
298
308
301
287
276
245
191
123
65
28
-6
-26
-33
-27
-17
-15
-26
-21
-15
-22
-18
-10
2
9
-6
-20
-19
-10
-19
-12
-4
-20
-20
-16
-9
-16
-8
-3
-11
-23
-19
-8
-10
-12
-2
2
-8
-14
-8
9
3
-3
5
-7
-4
-2
-9
-1
7
1
-4
3
3
-3
4
7
6
-4
12
11
10
11
5
12
24
23
23
22
26
29
22
21
15
22
32
32
37
52
37
27
46
43
48
38
47
48
46
57
58
54
55
63
61
52
65
63
44
53
66
68
59
60
62
61
61
48
53
52
46
40
34
12
8
33
35
28
29
23
15
-4
-1
-1
-5
-6
-7
-13
-3
1
-2
-5
-13
-14
-15
-4
1
-4
-7
4
-8
-15
-10
-4
-15
-12
-6
-14
-17
-7
-7
-13
-16
-15
-8
8
5
-11
-19
-14
-10
-8
-14
-18
-12
-5
-8
-17
-11
-2
2
4
-15
-10
-20
-8
-12
-15
-1
-1
-14
-17
-6
-8
-6
-9
-12
-17
-4
-5
-15
-8
-4
-12
-7
-6
-6
-4
-8
-16
-11
-5
-11
-14
-11
2
6
-7
-5
-8
-13
-7
-6
-12
-8
0
-4
-14
-11
-7
-10
-1
-3
-15
-9
-4
-1
3
-9
-12
-7
5
-10
-18
-18
-8
-7
-4
-11
-11
-8
-16
-23
-9
-6
4
-6
-10
-10
-17
-3
-2
-6
-6
-12
-16
-5
-7
-13
-10
-3
-4
-19
-18
-7
-6
-3
1
-4
-12
-15
-21
-7
-10
3
3
-1
-15
-15
-13
-7
-13
-30
-12
-3
-6
2
-9
-17
-16
-11
1
-3
-4
-1
-8
-6
0
-5
-6
-6
-9
-7
-4
-6
4
9
6
14
9
4
-8
-12
-11
2
3
0
-4
-2
-9
-9
-9
-3
-4
7
1
-4
-2
-1
-5
-15
-3
-10
-17
-7
-6
-4
-10
-11
-11
-9
-14
-14
-20
-12
-15
-27
-12
-10
-17
-19
-22
-33
-16
2
-15
-19
-27
-38
-45
-43
-48
-52
-35
-10
-10
12
37
51
69
96
126
151
180
207
241
277
293
311
312
291
254
218
177
110
60
12
4
10
-15
-22
-14
-10
-6
-9
-26
-29
-19
-7
-12
-18
-14
-8
-6
-13
-15
-13
-17
-8
-11
-17
-15
-10
-7
-7
-10
-15
-5
-2
-12
-8
-1
-7
-14
-8
-10
-8
-2
-11
0
-3
-6
0
-1
3
-3
-7
-8
-5
-11
7
12
4
1
2
6
4
16
9
9
14
15
16
20
17
14
17
16
20
20
29
23
12
27
36
31
38
63
47
43
46
52
51
53
54
53
52
54
55
50
51
58
66
76
64
75
76
81
70
82
87
76
62
69
67
61
51
51
50
47
41
38
33
36
19
19
17
11
18
24
16
13
9
2
6
6
-1
9
6
5
1
12
7
9
-9
-21
-8
-1
-4
-12
-3
-13
-20
-2
-7
1
4
-7
-19
-16
-1
7
-1
-6
-10
-9
-9
-2
-10
-18
-19
-11
-3
-9
-15
-11
-8
-12
-15
-4
-8
-20
-9
-7
-12
-11
-21
-24
-12
-5
-7
-7
-13
-10
-9
-13
-12
-15
-17
-16
-11
-6
-14
-14
-12
-26
-20
-20
-5
-3
-6
-11
-14
-7
-25
-24
-11
-10
-22
-16
-17
-12
-8
-13
-23
-29
-19
-11
-10
-13
-13
-22
-18
-9
-14
-23
-12
-16
-17
-20
-19
-16
-14
-14
-23
-35
-17
-18
-20
-22
-7
-11
-20
-32
-22
-20
-21
-20
-18
-26
-18
-27
-26
-22
-27
-16
-27
-29
-19
-17
-28
-28
-27
-19
-22
-22
-21
-30
-17
-19
-27
-25
-28
-20
-19
-27
-25
-22
-24
-16
-27
-31
-26
-28
-22
-28
-23
-18
-27
-32
-37
-31
-31
-37
-21
-22
-19
-21
-33
-25
-29
-28
-22
-32
-38
-22
-25
-37
-22
-17
-27
-20
-16
-17
-23
-20
-34
-27
-19
-21
-18
-14
-11
-19
-27
-22
-19
-19
-33
-30
-13
-18
-24
-21
-22
-18
-25
-22
-24
-23
-19
-20
-18
-9
-18
-31
-39
-42
-33
-28
-37
-29
-27
-30
-34
-32
-35
-37
-36
-36
-38
-39
-39
-29
-31
-21
-34
-43
-38
-40
-45
-38
-34
-31
-50
-55
-71
-77
-81
-79
-72
-50
-27
-12
11
34
49
80
119
141
151
213
248
264
279
295
298
270
238
206
141
74
33
-12
-29
-38
-44
-28
-37
-40
-43
-31
-30
-33
-33
-36
-35
-36
-35
-39
-34
-31
-31
-38
-29
-34
-46
-39
-34
-34
-29
-30
-40
-35
-34
-29
-39
-38
-29
-24
-22
-17
-29
-38
-39
-29
-27
-29
-41
-36
-15
-14
-14
-20
-25
-24
-25
-34
-22
-18
-21
-14
-18
-18
-17
-11
-11
-16
-17
-10
-17
-1
-1
-5
-3
6
10
-3
-4
3
8
8
9
17
12
20
28
27
15
19
25
31
26
25
37
35
35
40
35
19
23
25
20
16
30
36
28
32
32
26
26
16
1
5
9
-1
-7
-11
-11
-14
-15
-17
-29
-17
-12
-19
-28
-22
-33
-39
-32
-32
-32
-41
-41
-36
-41
-38
-35
-42
-38
-39
-40
-53
-43
-39
-15
-35
-58
-62
-48
-41
-36
-43
-50
-47
-38
-35
-38
-42
-39
-34
-38
-42
-45
-48
-39
-42
-44
-50
-41
-38
-56
-46
-29
-38
-43
-41
-39
-42
-42
-43
-44
-44
-48
-37
-35
-37
-43
-47
-43
-45
-39
-40
-43
-43
-41
-43
-64
-49
-33
-43
-45
-48
-43
-41
-43
-41
-38
-42
-32
-34
-34
-39
-53
-56
-48
-49
-51
-43
-33
-41
-42
-39
-39
-39
-41
-46
-49
-38
-33
-41
-42
-35
-49
-51
-43
-42
-53
-37
-35
-42
-50
-56
-45
-46
-28
-40
-56
-41
-46
-52
-48
-51
-42
-51
-48
-40
-43
-43
-43
-41
-43
-47
-45
-45
-43
-38
-45
-41
-47
-51
-47
-47
-59
-53
-48
-39
-41
-48
-50
-57
-45
-35
-46
-47
-50
-44
-59
-44
-36
-48
-64
-50
-54
-46
-50
-41
-42
-41
-46
-46
-43
-48
-52
-56
-45
-44
-47
-35
-47
-52
-53
-46
-47
-34
-33
-47
-48
-49
-53
-63
-59
-45
-54
-44
-40
-43
-53
-40
-48
-62
-48
-38
-43
-43
-52
-54
-47
-39
-50
-44
-42
-43
-45
-49
-43
-49
-46
-40
-50
-50
-44
-37
-46
-43
-43
-45
-44
-45
-53
-43
-48
-40
-45
-47
-42
-50
-39
-39
-38
-29
-32
-23
-29
-46
-48
-46
-52
-47
-44
-36
-34
-38
-42
-37
-34
-42
-37
-31
-35
-37
-44
-50
-43
-44
-48
-54
-57
-44
-47
-46
-54
-47
-47
-57
-54
-57
-47
-48
-43
-50
-58
-65
-40
-36
-57
-60
-41
-56
-61
-63
-68
-81
-78
-74
-87
-86
-63
-47
-31
-8
3
23
51
93
122
152
184
231
266
281
298
293
284
253
210
156
89
26
-6
-32
-45
-46
-53
-48
-60
-54
-50
-48
-40
-38
-38
-34
-42
-51
-56
-45
-38
-41
-43
-50
-50
-49
-39
-51
-52
-53
-42
-35
-35
-42
-39
-56
-42
-43
-51
-36
-35
-29
-25
-33
-36
-33
-43
-41
-37
-34
-26
-27
-29
-31
-42
-42
-32
-30
-27
-30
-24
-30
-27
-21
-22
-18
-21
-18
-15
-10
-7
-10
-15
-11
-4
-1
0
6
-8
-7
0
0
6
8
14
8
16
18
26
22
26
20
21
32
34
20
24
32
31
25
32
19
29
28
23
25
34
25
19
19
21
17
4
5
7
-8
-10
-3
-11
-17
-19
-12
-17
-12
-27
-39
-33
-38
-38
-33
-31
-30
-33
-36
-36
-39
-49
-49
-46
-48
-37
-40
-42
-40
-40
-45
-51
-47
-47
-40
-42
-45
-44
-32
-50
-44
-46
-52
-51
-39
-41
-34
-38
-46
-52
-48
-49
-45
-41
-35
-43
-52
-48
-34
-47
-42
-39
-47
-50
-44
-45
-38
-42
-42
-42
-43
-37
-37
-45
-37
-33
-31
-37
-49
-42
-42
-33
-36
-42
-42
-43
-51
-42
-38
-42
-33
