36
36
38
40
38
40
39
40
42
43
44
44
52
46
42
49
47
45
41
45
40
33
49
44
42
43
45
41
42
48
43
40
45
47
45
41
38
39
44
40
39
35
35
34
50
49
48
41
43
41
43
42
50
46
43
43
43
41
43
39
42
42
44
42
36
46
44
45
40
39
42
31
34
34
41
39
43
46
41
43
47
42
42
44
38
48
49
45
41
45
42
40
43
46
44
42
46
46
46
42
46
47
51
52
46
49
53
53
51
45
47
47
45
45
46
41
44
40
37
37
37
38
37
41
40
39
43
36
34
42
40
39
42
39
32
46
41
42
36
34
32
32
35
34
28
34
40
39
27
29
28
35
44
44
69
96
110
122
130
129
126
125
119
105
79
44
7
-8
-15
-8
-5
-9
-1
-1
4
2
3
4
8
15
12
18
24
28
32
33
36
35
39
33
34
41
41
36
35
40
39
39
38
42
38
43
42
41
41
40
40
43
41
36
42
43
39
36
34
49
50
51
47
44
45
48
45
51
52
50
50
52
50
49
52
57
54
52
53
58
56
55
58
54
59
66
62
63
65
66
62
65
69
82
80
82
79
79
84
87
93
91
87
91
89
92
97
92
93
99
96
99
94
94
93
91
90
89
87
81
82
84
87
78
74
75
71
74
73
73
67
68
69
62
62
58
57
55
60
53
54
60
58
55
52
53
50
50
49
45
42
45
56
44
47
49
40
42
47
44
51
51
45
44
46
49
47
46
50
50
47
44
50
52
47
48
50
41
46
47
47
44
39
41
41
46
51
46
50
45
46
48
43
34
43
43
44
41
43
44
48
46
53
45
49
43
39
46
57
53
52
51
49
43
49
48
54
50
49
46
42
51
48
44
50
43
52
48
48
41
46
45
42
48
46
52
47
52
51
51
48
48
44
47
49
45
43
48
54
46
40
47
42
44
46
51
49
52
49
49
47
47
44
43
47
46
39
47
47
45
44
48
44
40
50
54
49
51
55
43
50
51
43
38
52
50
46
49
54
50
49
49
52
54
49
53
42
48
50
52
63
60
54
53
53
55
52
58
51
41
43
44
37
36
40
36
38
42
46
45
44
41
45
45
43
36
38
45
44
41
45
44
38
38
35
35
36
40
36
35
35
38
33
33
30
36
41
59
67
84
99
112
125
132
134
137
125
119
97
69
35
0
-10
-7
-4
-7
-6
2
-1
7
6
3
5
21
21
19
30
33
33
34
32
35
32
36
33
38
37
36
40
40
32
36
44
45
48
39
49
52
47
44
44
47
40
39
45
42
51
49
41
45
47
45
48
53
51
42
48
45
50
50
47
47
51
52
53
57
59
59
57
51
56
54
57
57
53
49
67
71
61
65
71
65
73
78
74
72
79
79
71
74
92
84
85
86
86
91
92
92
89
90
93
88
85
93
90
89
93
86
87
87
81
80
83
83
82
76
80
72
69
67
63
61
64
64
58
58
60
57
49
56
56
52
50
51
47
45
50
47
40
46
46
41
46
40
41
49
53
48
46
47
44
47
43
43
43
39
41
46
50
50
42
44
45
46
42
41
41
39
42
47
42
39
38
35
36
47
43
42
38
41
45
37
42
41
41
43
41
37
41
41
45
41
44
49
43
44
48
43
42
37
43
43
38
38
39
49
36
46
44
47
41
39
41
37
50
42
35
43
44
43
36
41
38
36
37
45
47
45
44
44
39
41
41
38
42
46
46
43
32
39
43
37
36
48
43
39
43
38
40
36
32
39
40
30
36
47
43
39
39
35
31
40
40
43
40
42
40
40
41
39
32
31
45
38
36
35
33
39
38
32
37
37
38
31
38
38
40
39
40
37
33
37
35
36
34
39
36
34
39
36
37
40
41
45
38
37
35
34
33
37
35
37
40
39
37
42
39
38
36
41
34
37
54
47
45
50
46
40
46
44
44
44
40
36
38
39
35
29
36
34
34
32
33
33
32
33
27
33
31
28
28
28
29
31
38
35
33
31
28
25
34
29
27
30
34
30
28
26
28
25
34
55
81
99
107
119
128
129
127
121
117
95
60
26
-9
-16
-18
-20
-18
-25
-19
-12
-8
-11
-2
4
3
11
11
14
19
19
17
22
30
23
28
28
30
27
29
29
24
21
24
30
35
31
31
28
29
25
17
33
40
33
35
35
32
25
33
41
36
29
41
34
33
37
34
31
36
34
29
35
41
36
35
35
37
36
28
29
42
47
53
47
46
52
48
43
44
46
54
49
55
57
55
58
62
57
60
60
60
74
77
72
66
74
73
72
73
72
73
76
70
72
77
84
75
70
75
71
65
75
71
67
64
63
55
64
63
60
56
56
54
51
51
48
45
42
40
38
35
40
40
34
35
32
31
35
32
30
29
35
33
28
33
30
25
29
17
23
30
32
32
27
29
33
25
25
26
32
24
31
32
32
32
30
23
25
25
27
28
30
27
24
27
32
27
22
21
25
33
34
22
28
28
25
34
32
24
27
24
25
25
28
31
26
20
36
31
29
26
30
29
29
28
29
28
32
30
27
31
31
30
26
28
27
29
29
28
22
27
32
31
30
31
29
26
24
21
37
36
34
27
25
34
28
25
34
31
26
27
34
25
26
31
20
26
26
30
29
29
28
25
24
30
25
23
25
34
30
32
28
26
27
29
24
28
30
27
28
32
26
26
29
32
24
28
28
26
24
25
22
22
21
27
18
31
26
20
28
25
18
25
26
36
25
26
27
27
26
26
26
27
22
25
24
25
25
26
26
23
21
21
23
21
20
25
27
28
25
26
27
20
23
25
19
19
24
22
21
20
25
26
26
28
26
23
17
27
38
29
26
17
25
27
25
29
26
24
24
27
25
23
24
22
21
18
26
23
26
27
28
29
30
32
24
24
32
29
31
30
21
39
36
34
28
30
33
29
40
40
37
32
29
28
36
40
32
30
33
38
28
25
23
19
21
17
17
19
19
18
24
27
26
24
22
25
26
17
26
21
20
29
24
18
19
29
19
19
21
18
19
15
13
15
18
28
37
61
79
93
110
122
122
115
117
108
90
68
36
-3
-25
-33
-30
-35
-28
-25
-22
-15
-13
-12
-6
-6
0
3
5
8
11
13
12
9
16
19
12
15
14
16
14
13
15
15
16
17
24
20
19
21
19
18
21
25
24
23
24
25
26
26
27
26
31
16
26
34
28
26
29
30
25
29
31
30
29
35
28
28
33
29
27
39
42
41
41
43
35
38
40
46
43
45
50
46
49
50
46
46
55
57
52
67
63
61
59
65
66
62
67
66
77
75
77
71
71
74
75
72
72
69
71
70
70
65
62
71
65
65
65
57
54
56
55
56
50
50
49
41
38
37
31
41
48
36
35
38
36
32
34
32
33
37
28
22
29
24
26
32
33
26
26
30
32
28
24
21
26
28
30
30
28
27
21
20
38
34
30
31
28
27
29
30
25
29
25
27
26
25
27
33
32
32
24
29
27
26
23
28
28
27
24
26
27
18
31
31
26
28
30
25
26
33
31
32
32
31
27
26
32
31
32
30
28
29
29
29
29
27
28
26
28
25
30
30
29
27
26
26
28
23
27
32
21
22
35
25
25
22
27
28
23
27
25
38
27
26
23
26
23
26
28
33
32
31
30
29
24
19
28
29
29
27
30
30
28
30
32
29
28
31
34
33
31
26
30
23
34
27
24
33
29
33
31
30
27
22
38
28
27
26
31
28
31
28
23
27
32
34
30
30
31
32
31
28
34
29
32
32
32
34
34
31
32
34
29
30
33
29
31
32
37
27
32
35
28
28
30
30
28
28
32
34
28
25
41
31
32
31
32
27
29
36
37
37
33
25
36
40
35
36
36
35
39
34
33
30
37
35
33
38
41
43
38
38
43
34
38
34
35
36
29
33
40
32
42
43
44
38
52
47
47
43
44
46
42
48
43
42
44
46
38
40
40
37
31
31
32
31
30
33
35
30
29
25
29
35
38
35
31
33
34
29
30
29
31
29
32
30
19
37
30
28
29
35
35
45
58
85
102
120
131
132
131
126
119
103
83
48
14
-8
-9
-20
-17
-17
-16
-13
-8
-13
-10
7
14
16
18
22
22
18
20
26
31
29
23
28
24
22
36
35
35
32
34
37
35
32
31
31
33
32
28
27
33
41
38
38
35
33
34
38
45
35
35
41
31
34
41
46
41
37
45
42
40
37
37
41
44
43
43
44
48
45
48
50
50
47
47
50
50
50
49
49
60
63
57
55
58
58
61
72
73
67
64
80
81
76
73
74
73
77
76
85
89
81
80
77
80
79
82
79
79
75
70
77
80
75
77
68
66
68
64
63
59
57
55
56
50
49
53
49
41
40
45
50
48
43
42
39
37
31
32
44
43
41
35
34
35
35
35
31
31
42
39
38
30
34
37
27
29
33
36
40
41
35
25
41
38
35
36
34
29
31
37
41
33
36
34
35
36
34
29
30
38
32
38
38
33
29
27
37
35
33
31
30
26
30
39
40
32
36
32
37
36
33
33
32
32
36
40
31
29
35
36
36
32
37
37
33
36
34
32
33
36
36
26
26
36
36
39
35
32
38
38
36
33
36
36
31
30
30
36
41
31
30
29
36
35
33
31
30
34
33
38
27
33
35
32
33
35
31
27
32
34
30
30
33
30
29
30
31
32
34
31
33
33
33
32
28
32
36
38
35
33
33
35
34
30
23
34
34
32
34
41
36
30
30
28
25
31
36
36
39
34
35
33
35
36
31
31
31
35
39
33
34
36
33
35
34
33
27
34
38
32
32
37
32
30
34
32
30
33
34
33
34
33
34
26
34
33
29
40
35
28
41
32
31
39
34
35
35
31
39
38
39
34
43
37
38
38
42
38
40
38
39
41
42
40
47
43
42
51
48
47
47
40
36
43
43
43
43
38
33
32
29
31
26
26
24
21
33
39
31
28
30
35
35
33
35
33
26
32
41
30
34
35
28
27
29
24
26
28
26
23
31
48
50
70
86
105
112
123
123
125
120
112
94
69
30
-10
-21
-17
-18
-15
-17
-13
-15
-15
-6
-5
-2
5
5
5
20
25
19
22
19
16
25
33
32
30
28
29
29
29
31
30
31
35
32
29
31
36
24
39
34
31
42
44
34
32
29
38
36
35
37
38
37
37
31
41
42
39
39
44
39
41
44
42
42
40
43
44
47
39
45
47
49
52
50
52
57
55
56
57
57
60
60
64
68
62
64
74
70
70
71
71
82
81
78
85
84
84
81
90
84
86
70
66
68
79
63
59
61
61
57
51
52
50
45
47
47
43
42
45
51
43
45
41
44
43
34
33
40
39
38
38
40
35
36
35
32
32
38
34
38
33
31
32
35
41
38
35
44
34
30
33
30
30
43
41
36
30
35
37
31
40
36
36
37
35
35
34
37
32
27
34
38
37
33
34
32
35
39
36
40
38
35
32
35
36
40
37
38
35
35
37
34
35
33
30
31
30
36
36
43
42
32
30
34
34
30
39
39
34
34
33
43
33
27
41
39
42
39
38
37
38
37
32
37
36
31
34
41
35
34
34
33
34
35
32
33
34
31
33
34
32
33
35
37
36
32
35
36
35
37
36
32
33
30
27
37
38
42
30
33
41
36
35
33
26
28
36
39
37
33
32
37
36
36
34
34
36
38
32
36
33
31
34
35
32
36
36
29
33
42
37
32
37
39
36
37
40
39
38
38
36
37
37
39
36
39
41
38
39
40
37
37
41
47
40
42
56
42
41
46
45
39
38
34
39
34
41
32
24
26
31
31
31
36
31
31
29
30
33
34
32
26
33
37
32
29
28
28
24
30
28
28
27
25
20
27
36
36
53
72
82
96
109
113
114
108
102
105
90
56
19
-12
-22
-21
-18
-12
-13
-15
-12
-6
-23
-2
-12
-6
12
13
14
14
18
21
22
27
26
28
26
32
29
29
28
33
26
30
29
24
22
31
37
31
32
33
30
33
36
41
39
38
35
36
40
38
36
37
37
43
45
45
41
38
41
42
31
42
38
37
39
46
39
42
41
41
45
48
58
49
53
58
52
49
57
58
57
64
63
62
63
66
73
71
76
74
71
75
78
75
78
83
78
88
80
79
86
85
84
77
91
85
84
85
87
81
77
81
77
75
75
72
66
64
68
68
61
59
57
55
60
60
55
50
45
42
46
42
41
34
42
40
37
36
37
36
38
36
35
31
36
36
34
34
36
28
27
39
30
29
33
38
38
30
32
33
31
30
33
31
34
33
35
31
28
26
32
31
30
33
37
32
25
24
28
30
31
35
30
30
34
31
29
34
33
32
32
34
34
29
34
34
35
32
33
25
25
41
29
26
36
37
37
34
32
36
38
40
37
30
35
31
29
36
30
32
32
31
38
35
37
34
31
30
30
31
35
34
29
32
37
37
30
29
30
29
32
35
32
32
32
31
27
31
33
39
38
36
36
31
36
32
26
32
34
33
34
30
31
35
34
34
34
29
24
27
39
38
32
33
36
30
26
34
33
32
37
39
39
39
33
27
33
40
34
38
37
38
36
36
35
36
36
35
38
49
43
41
44
44
40
40
50
42
34
32
32
34
30
30
28
28
31
33
30
28
34
18
32
38
31
32
32
30
31
30
35
32
29
34
29
29
28
27
31
26
30
27
25
26
26
31
40
54
78
83
107
113
117
114
108
95
95
94
57
17
-11
-20
-17
-18
-13
-10
-12
-10
-9
-10
-7
-10
0
13
12
14
17
23
20
25
24
28
24
30
29
27
25
24
27
27
31
30
33
29
31
41
31
34
35
33
26
35
40
37
39
38
38
34
32
29
28
40
40
39
41
39
39
35
37
38
36
42
43
42
40
34
45
46
42
45
43
41
48
55
50
49
55
50
54
56
56
61
68
61
54
55
80
69
70
73
72
75
79
78
74
78
83
83
83
82
80
84
87
81
80
83
82
76
76
74
74
75
73
71
68
63
59
61
56
51
59
57
60
51
49
50
47
45
40
40
50
43
34
35
37
36
43
34
32
31
29
40
36
34
35
29
31
32
37
30
33
31
32
27
26
31
32
34
27
24
28
30
37
33
33
28
25
30
32
29
30
31
31
30
34
34
29
29
25
32
33
32
30
27
23
28
25
20
31
30
30
29
33
31
21
25
27
34
36
30
31
34
31
33
33
29
24
27
31
33
31
34
36
33
33
35
31
28
26
32
33
28
30
33
29
29
26
28
28
26
30
36
33
19
31
37
30
35
29
30
29
30
31
30
30
27
25
29
37
28
35
38
31
36
33
32
32
28
33
36
32
33
34
35
31
35
35
33
42
33
35
48
41
37
40
40
34
33
37
33
27
29
24
24
31
31
28
24
26
25
26
25
23
24
21
25
25
32
24
18
24
25
23
24
25
31
27
28
25
26
17
22
21
20
27
24
25
30
37
44
65
80
96
109
120
111
106
108
100
87
56
24
-6
-21
-20
-24
-23
-23
-24
-24
-13
-8
-12
-9
-3
-1
0
8
9
12
18
22
18
14
11
15
24
23
24
30
30
29
28
27
30
21
26
32
32
26
29
29
28
23
25
27
29
29
32
31
28
32
29
27
29
34
33
31
36
35
38
39
35
31
30
31
38
40
38
42
43
39
40
43
40
36
39
44
51
45
48
56
55
53
56
61
59
61
58
69
71
66
67
67
72
70
71
71
81
78
72
76
73
71
76
78
74
76
77
78
80
76
71
73
71
63
60
59
54
55
60
55
51
48
46
46
46
48
41
31
39
40
40
35
29
32
40
35
30
25
29
29
37
30
33
33
28
29
25
26
26
27
31
30
31
28
27
30
28
29
31
29
29
28
25
24
25
26
25
28
26
21
24
31
23
25
25
27
26
28
21
26
31
25
23
26
29
25
24
30
31
25
23
25
23
30
23
19
29
30
22
25
29
32
28
29
30
21
24
33
25
23
28
25
28
30
31
28
26
27
28
28
26
27
23
25
29
32
28
29
26
23
29
28
23
29
28
28
27
27
20
28
30
25
24
28
25
16
19
34
39
36
33
27
25
27
26
31
26
29
25
20
29
32
33
33
28
25
33
36
30
40
41
41
35
28
36
29
31
36
30
19
20
27
20
24
24
20
20
21
20
21
25
24
24
20
21
19
19
34
31
19
21
17
20
27
22
17
18
20
13
17
23
18
11
19
21
20
29
32
39
59
76
92
98
117
119
117
112
101
91
56
28
-12
-30
-32
-33
-28
-27
-24
-24
-25
-25
-20
-9
-6
-2
1
8
12
16
12
8
12
15
21
18
20
17
21
27
23
22
16
19
25
20
17
24
23
24
25
21
21
21
29
32
32
27
28
33
28
30
27
30
29
25
29
33
27
25
34
38
34
32
39
36
36
37
32
30
31
38
36
41
41
34
48
48
47
49
47
47
46
57
54
59
65
65
62
59
63
63
63
67
68
63
72
76
73
75
77
72
72
76
71
65
73
80
71
75
77
69
68
69
64
64
66
57
55
64
59
48
47
49
54
47
54
49
47
44
44
36
34
37
35
36
35
34
25
24
30
26
30
35
33
36
35
29
31
28
28
30
26
25
27
30
32
32
29
29
27
27
31
28
27
32
39
31
30
27
29
26
26
27
26
25
28
26
29
32
27
23
26
25
34
27
28
29
25
28
26
27
28
27
27
27
37
32
26
20
26
23
25
27
28
28
29
26
28
26
26
25
26
26
26
25
30
24
22
26
27
27
31
22
27
36
28
22
25
33
27
25
30
27
27
22
30
26
23
24
27
25
23
23
26
29
21
23
23
27
20
19
22
25
25
28
31
26
28
29
25
22
18
24
23
26
29
22
25
29
28
27
27
34
31
34
35
32
33
33
31
39
30
26
18
27
30
20
17
19
17
18
16
17
23
23
18
22
19
17
17
17
19
16
20
22
26
18
20
17
14
16
16
18
15
14
14
14
16
13
11
15
23
28
35
54
65
81
108
116
117
114
106
98
88
63
26
-13
-25
-37
-32
-41
-38
-35
-32
-27
-23
-18
-21
-13
-14
-6
9
5
6
13
4
10
13
12
14
13
12
10
14
17
14
14
14
16
17
16
13
12
19
12
22
17
19
17
22
23
22
13
16
21
16
29
24
21
19
20
24
21
23
23
20
19
21
17
26
24
22
20
24
26
20
32
32
28
30
39
33
31
36
39
40
42
40
34
48
43
48
47
51
51
49
49
52
51
56
58
60
57
56
51
63
65
60
56
57
64
68
64
62
60
58
56
50
53
53
49
44
40
28
45
40
36
32
33
31
29
26
29
28
21
20
23
16
15
19
19
14
14
16
23
18
11
13
20
16
14
11
13
19
15
9
15
15
6
12
16
11
11
13
13
11
11
10
6
14
12
10
10
13
12
15
13
13
15
10
9
10
15
10
12
5
16
14
9
9
12
10
11
9
7
7
5
3
6
18
15
14
13
12
14
13
7
13
17
15
14
12
12
18
6
7
10
9
8
11
14
14
12
15
11
15
16
13
10
16
8
12
14
13
9
10
12
11
12
10
14
15
13
15
13
10
10
6
10
13
7
8
18
16
13
6
9
14
7
13
9
12
12
10
5
9
22
16
9
10
14
12
8
15
15
17
15
13
14
14
13
12
19
13
9
14
15
14
12
12
10
8
14
16
11
12
13
8
13
13
15
16
16
17
18
13
18
22
20
20
25
27
22
20
13
17
14
14
0
12
15
16
8
6
8
12
7
3
8
7
6
8
9
7
10
10
10
5
5
9
14
10
11
6
3
0
3
4
7
5
4
2
2
5
17
43
54
68
87
104
106
106
105
93
85
67
35
-5
-36
-43
-44
-35
-38
-43
-36
-33
-29
-28
-28
-20
-19
-13
-8
-7
-4
-2
-2
0
3
0
-1
5
4
4
1
0
7
10
10
5
7
7
6
7
6
5
5
8
9
5
3
11
10
12
9
8
11
12
13
7
11
19
8
11
17
13
9
14
7
6
24
22
17
18
22
19
16
11
20
22
24
28
25
22
26
31
23
28
37
37
38
39
36
39
41
38
38
45
46
45
51
57
52
46
54
57
55
57
56
50
53
56
56
54
55
56
55
48
48
49
45
47
45
37
36
40
29
29
34
14
31
31
28
23
21
16
12
14
24
20
12
15
18
17
14
8
9
16
11
11
11
9
5
6
5
4
5
7
5
1
6
5
6
1
4
9
10
2
3
4
5
4
1
2
3
5
4
7
2
5
9
5
4
8
7
1
7
4
-3
-7
-4
8
12
5
6
2
5
5
-1
-1
7
9
11
9
7
6
5
5
6
9
9
7
3
2
5
6
6
5
0
5
5
7
1
6
3
5
4
7
8
7
9
8
4
5
4
6
6
5
2
9
8
-5
1
2
-3
1
9
8
2
2
6
9
5
7
6
2
4
8
8
5
9
4
5
3
2
-1
4
6
3
5
3
4
5
5
2
3
1
3
-1
13
14
8
6
8
2
4
9
7
6
8
7
9
4
4
6
7
13
15
8
10
12
9
12
15
10
14
10
12
13
6
1
3
0
4
1
2
0
0
2
-1
-4
5
1
0
4
1
2
2
0
1
3
-1
-4
-3
-9
8
6
6
1
4
1
-8
-7
-5
-9
-6
0
4
6
23
37
53
66
81
95
90
95
89
86
74
40
7
-32
-50
-48
-46
-45
-52
-34
-32
-35
-34
-35
-34
-33
-21
-21
-20
-4
-6
-11
-15
-3
-2
-4
2
-2
-1
-3
0
1
-4
0
-1
-3
-3
-4
0
3
6
6
2
6
1
1
0
9
4
6
7
8
5
4
3
8
12
15
7
12
16
12
8
11
2
8
10
7
11
26
17
18
16
17
14
22
21
22
22
29
29
25
26
27
26
28
32
36
41
42
44
43
42
44
48
48
54
57
57
61
53
56
58
59
53
52
56
57
56
57
56
45
45
47
43
43
45
44
40
43
37
35
36
30
26
26
27
27
28
32
24
21
19
18
12
8
14
21
19
15
12
13
12
13
5
8
4
4
7
7
9
7
4
6
10
9
5
13
11
14
8
7
3
4
2
8
8
7
8
5
2
5
5
5
3
3
0
-4
3
10
4
10
7
1
1
1
4
3
2
6
7
7
6
3
1
4
6
7
9
6
-1
7
9
1
4
9
2
2
7
6
1
1
1
5
3
3
3
4
5
4
2
0
-4
-2
2
5
4
1
-1
-2
9
4
4
5
5
0
-4
-4
6
6
3
-2
-1
3
1
1
-3
0
3
4
3
-3
0
-5
-1
0
-5
-1
-1
-1
-7
-7
-2
1
1
3
-5
-6
-4
-5
1
2
3
-1
-2
-2
-5
-2
2
-4
-8
-2
-3
-6
-4
6
2
7
9
3
-1
3
1
-4
4
6
2
4
4
3
5
3
4
2
2
2
8
6
11
13
4
11
13
5
5
5
1
6
10
11
2
2
-2
-2
-3
-3
-8
-9
-7
-4
-3
-2
-2
-1
-1
-2
-4
-3
-4
-2
-2
-6
-9
-9
-4
-3
-4
-4
-5
-8
-6
-11
-19
-14
-10
-16
-8
19
31
44
62
77
87
86
85
86
77
70
48
13
-19
-42
-52
-56
-55
-49
-58
-54
-43
-42
-40
-37
-36
-27
-26
-23
-22
-15
-17
-16
-14
-10
-9
-8
-9
-11
-10
-7
-8
-2
-3
-16
-10
-4
-8
-13
-7
-4
-3
-5
-6
-4
-4
-9
-10
-6
-6
-10
-4
-3
0
-3
6
-1
0
-1
-3
5
3
6
3
1
-5
1
7
0
1
3
7
6
3
8
11
10
8
8
11
13
17
14
17
19
17
20
23
23
28
28
26
25
26
32
37
33
39
42
38
41
40
33
36
45
42
46
44
42
41
43
38
35
31
31
30
28
30
25
30
29
20
15
23
18
18
18
16
14
13
9
3
3
1
1
2
-1
1
-2
6
3
0
-3
-5
-8
-2
-4
-3
-1
2
-3
-2
-3
-6
-15
-7
-1
-2
-6
-2
-5
-13
-8
-5
-10
-8
-6
-6
-4
-1
-2
-9
-11
-7
-9
-6
-4
-7
-3
1
-9
-9
-9
-11
-11
-11
-9
-8
1
-1
-5
-8
-4
-3
-7
-7
-9
-8
-6
1
-2
-7
-9
-9
-2
-5
-9
-7
-4
-5
-2
-7
-6
-5
-12
-13
-7
0
-5
-3
-4
-8
-4
-5
-6
-6
-10
-10
-4
-1
-7
-4
-10
-12
-14
-4
-2
1
-3
4
-3
-7
1
-5
-9
-8
-1
-2
-8
-6
-4
-2
-4
-2
-3
-7
-4
-7
-2
-6
-8
-13
-8
-5
-8
-3
-8
-19
-11
-5
-7
-13
-8
-13
-7
-2
-4
-7
-1
-3
-10
-4
-14
-5
-3
-3
-1
-6
-4
0
-2
-5
-6
-9
-8
-7
-5
-9
-2
-3
-10
-9
-11
-11
-11
-8
-4
-2
1
-4
-4
1
-5
-6
-5
-3
-7
-3
2
-2
-5
-12
-10
-12
-5
-1
-3
-2
0
-4
-5
-6
-4
-6
-7
-8
-3
-3
-4
-4
-5
-7
-7
-7
-4
-4
-2
3
2
3
4
-2
-2
1
0
0
-1
2
2
0
-2
-4
-6
-6
2
-3
-6
-2
1
3
4
6
6
2
2
7
1
7
9
7
7
10
5
1
0
-2
-8
-7
1
-4
-5
-2
-5
-3
-2
-3
-4
-6
-1
-12
-8
-3
-5
-2
6
4
1
2
2
-6
-11
-11
-3
-5
-3
1
2
-7
1
9
17
32
49
67
84
94
100
107
112
107
90
64
30
-5
-21
-34
-34
-25
-29
-30
-21
-16
-13
-9
-2
-6
-1
8
12
11
12
12
14
17
18
18
15
19
14
8
14
22
25
27
25
21
23
31
32
32
34
38
35
39
39
43
38
38
40
42
50
53
54
54
57
61
63
67
70
71
75
72
73
72
73
78
101
106
96
96
103
99
95
100
106
103
105
107
107
113
117
115
122
119
120
118
126
130
130
133
134
130
133
136
137
137
144
148
149
151
148
151
147
147
150
152
149
162
162
158
157
158
152
158
159
153
151
152
144
146
147
141
137
133
135
134
136
131
132
133
128
128
126
122
121
118
114
123
121
123
130
131
126
119
117
118
117
116
109
110
110
111
114
115
110
110
113
110
108
104
105
106
100
104
104
105
112
106
100
105
107
108
113
110
110
106
113
111
108
108
108
104
109
106
107
111
109
112
111
109
107
101
104
106
98
101
100
101
102
100
102
101
105
104
101
101
100
100
108
110
107
103
101
102
103
109
112
109
107
105
103
99
101
102
99
91
90
87
89
92
91
90
85
91
90
91
93
91
90
88
89
85
86
86
82
81
83
77
80
81
78
83
80
77
75
77
76
69
80
79
78
73
70
70
76
81
73
74
72
73
71
71
76
74
69
69
74
75
71
75
72
81
77
72
67
72
69
68
65
66
65
67
64
68
63
67
64
57
56
53
46
50
55
58
61
66
60
58
54
52
49
45
52
53
59
63
62
59
57
55
56
56
54
51
54
53
51
48
49
51
50
45
46
41
41
44
45
45
45
47
43
42
38
33
39
50
52
46
48
50
47
41
33
36
37
43
44
37
38
39
34
38
30
26
37
39
34
30
13
11
5
6
5
7
6
14
10
12
10
11
6
7
9
11
11
10
14
12
14
8
13
5
8
5
3
1
-4
-5
-4
-5
-8
-4
-6
-8
-9
-5
-3
-6
-12
-13
-11
-13
-5
-9
-3
-7
-4
-3
-7
-10
-13
-11
-13
-12
-16
-12
-13
-15
-1
6
24
45
62
74
92
90
94
91
86
73
50
20
-18
-41
-41
-40
-43
-50
-57
-53
-50
-49
-44
-43
-42
-35
-35
-34
-25
-21
-25
-25
-19
-20
-17
-18
-19
-12
-17
-21
-25
-20
-20
-19
-10
-13
-13
-18
-10
-11
-12
-14
-18
-14
-8
-13
-11
-7
-9
-13
-14
-14
-8
-7
-3
-6
-5
-10
-11
-14
-12
-7
-5
-3
-2
-4
-7
-4
-5
-9
-4
-2
-2
6
10
9
-4
2
9
1
2
2
2
4
10
15
15
16
15
14
18
23
20
20
24
30
31
29
28
27
30
34
29
33
38
32
32
35
32
28
33
34
34
32
34
28
29
31
23
19
14
14
17
20
10
7
7
1
1
-1
-1
5
4
2
1
-5
-7
-3
-6
-7
-4
0
-5
-7
-4
-7
-12
-12
-16
-13
-8
-10
-9
-3
-9
-12
-10
-14
-15
-17
-17
-23
-21
-15
-9
-11
-14
-12
-13
-13
-11
-12
-12
-9
-10
-14
-11
-14
-12
-12
-9
-12
-15
-15
-14
-12
-12
-12
-14
-8
-10
-12
-12
-16
-11
-13
-11
-13
-11
-10
-8
-13
-13
-7
-7
-9
-11
-14
-12
-10
-11
-10
-6
-4
-9
-8
-5
-5
-9
-5
-7
-9
-8
-6
-7
-11
-5
-9
-12
-9
-8
-8
-9
-14
-10
-11
-13
-10
-9
-8
-11
-7
-5
-2
-10
-7
-8
-6
-10
-7
-9
-7
-4
-7
-9
-6
-11
-11
-11
-11
-16
-15
-5
-5
-11
-11
-11
-7
-6
-10
-12
-11
-10
-8
-9
-5
-8
-14
-11
-9
-11
-15
-13
-13
-13
-11
-11
-14
-13
-15
-14
-12
-11
-13
-12
-11
-12
-20
-21
-14
-8
-2
-2
-1
-3
-4
-12
-6
0
-6
-11
-12
-6
-6
-11
-5
-4
-11
-13
-2
-4
-11
-9
-5
-4
1
0
-5
0
-2
-5
-6
0
-2
-1
1
-6
-12
-17
-12
-15
-12
-5
-18
-12
-13
-13
-16
-14
-15
-14
-9
-8
-11
-12
-17
-18
-17
-13
-15
-15
-12
-9
-11
-17
-16
-16
-16
-16
-15
-22
-23
-19
-14
-6
10
27
45
65
74
89
86
81
78
75
59
22
-13
-41
-53
-53
-52
-49
-54
-51
-43
-44
-51
-46
-43
-45
-36
-29
-24
-18
-16
-20
-20
-16
-13
-10
-8
-8
-9
-12
-9
-9
-14
-5
-7
-10
-4
-4
-9
-6
-8
-8
-5
-7
-7
-4
-1
-6
-5
-1
-6
-5
-5
-4
-8
-6
-1
3
-1
0
-2
-5
-1
-3
-4
0
3
4
2
0
2
2
6
8
5
6
14
13
12
12
15
15
17
16
20
18
22
19
18
21
20
22
28
34
32
39
42
43
38
38
42
38
41
45
44
50
52
45
44
44
43
40
43
40
36
35
37
31
34
32
31
23
19
20
19
16
14
12
16
13
9
2
7
6
5
10
7
2
2
-2
-2
-7
-3
-2
-6
-5
-1
-4
-7
3
0
-5
-4
-6
-9
-7
-4
-5
-4
-3
-3
-6
-8
-2
-7
-2
-2
-5
-4
-3
-11
-11
-8
-7
-9
-9
-8
-10
-7
-7
-3
-13
-11
-8
-7
-5
-6
-9
-15
-7
-8
-5
-2
-5
-8
-2
1
-6
-5
-5
-4
-2
-5
-7
-8
-4
-4
-5
-6
-8
-10
-12
-12
-12
-7
-3
-4
-6
-4
-3
-10
-6
-4
-7
-6
-5
-7
-8
-5
-4
-5
-2
-6
-8
-5
1
-7
-9
-7
-8
-10
-8
-9
-9
-4
-8
-13
-8
-12
-8
-9
-8
-4
-9
-10
-3
-5
-10
-6
-6
-5
-2
-3
-4
-6
-4
-10
-7
-10
-8
-12
-9
-4
-4
-5
-4
-7
-6
-5
-4
-8
-3
-7
-6
-7
-4
-8
-3
2
0
-6
-2
2
-1
3
-3
-5
-5
-5
0
0
-4
-3
3
7
6
4
2
-1
-5
-5
-10
-8
-7
-9
-10
-9
-8
-12
-18
-12
-7
-2
-7
-12
-10
-5
-10
-11
-13
-13
-10
-10
-7
-5
-9
-10
-8
-12
-15
-14
-12
-17
-15
-14
-11
-7
0
7
21
38
56
68
79
87
84
86
80
74
52
22
-21
-38
-49
-54
-55
-53
-52
-49
-52
-51
-47
-47
-40
-32
-29
-24
-23
-16
-19
-18
-18
-21
-11
-9
-12
-12
-11
-12
-15
-17
-10
-9
-11
-9
-3
-8
-10
-9
-10
-5
-5
-7
-6
-2
-3
-10
-7
-8
-8
-6
-7
-7
-3
3
1
-2
-4
-6
-5
-3
1
-3
1
1
-2
0
-2
-3
-4
3
3
3
4
8
7
11
15
10
9
14
9
10
18
21
24
19
23
24
29
32
31
32
34
36
33
35
35
34
35
34
42
38
42
41
42
41
43
39
34
35
36
34
35
35
33
28
27
22
21
21
14
21
21
17
12
9
7
0
3
7
2
-4
-2
1
-3
-2
-4
-7
-10
-6
-9
-4
-1
-5
-6
-9
-9
-8
-9
-10
-4
-6
-5
-5
-10
-11
-12
-14
-7
-6
-10
-7
-8
-6
-7
-6
-8
-13
-14
-8
-6
-9
-6
-9
-13
-14
-18
-15
-12
-12
-13
-13
-8
-7
-7
-7
-9
-13
-12
-10
-10
-6
-5
-8
-6
-6
-9
-16
-9
-10
-9
-15
-11
-11
-10
-10
-8
-7
-5
-8
-9
-11
-14
-10
-10
-13
-9
-7
-7
-9
-11
-13
-5
-9
-6
-7
-12
-13
-11
-9
-12
-8
-7
-8
-10
-6
-10
-13
-10
-6
-12
-11
-8
-14
-11
-7
-10
-13
-5
-9
-10
-8
-9
-10
-10
-11
-18
-15
-11
-10
-7
-8
-4
-8
-9
-10
-13
-5
-9
-8
-11
-9
-9
-15
-12
-10
-9
-10
-9
-11
-9
-7
-2
-7
-9
-10
-11
-11
-11
-15
-11
-6
-7
-3
-1
1
-4
-4
0
-7
-1
2
3
2
-4
1
-6
-4
-5
-9
-5
-8
-10
-6
-12
-11
-19
-15
-17
-17
-14
-12
-11
-11
-18
-17
-16
-13
-11
-12
-12
-11
-14
-14
-11
-10
-15
-19
-20
-16
-18
-15
-21
-20
-21
-19
-23
-17
-14
-6
7
26
46
56
72
84
81
81
81
68
46
21
-14
-43
-55
-61
-61
-57
-62
-63
-58
-54
-58
-53
-49
-47
-42
-40
-32
-27
-18
-19
-17
-21
-23
-24
-23
-19
-16
-21
-20
-14
-15
-18
-16
-19
-21
-23
-22
-19
-16
-18
-20
-17
-18
-14
-13
-18
-15
-13
-10
-11
-15
-15
-16
-13
-14
-14
-11
-15
-9
-10
-8
-6
-9
-11
-5
0
-5
-8
-3
-4
-9
-5
-4
-3
-2
2
1
6
5
5
4
8
9
5
7
9
9
12
19
16
17
20
20
24
27
32
26
27
29
27
30
35
34
34
35
35
29
28
26
27
28
27
25
21
25
21
18
15
18
12
11
8
9
3
3
6
3
-2
6
1
-4
-7
-10
-10
-8
-13
-15
-18
-14
-15
-20
-14
-13
-14
-11
-13
-12
-8
-13
-14
-12
-13
-16
-21
-15
-16
-14
-18
-15
-20
-22
-17
-18
-19
-18
-20
-18
-14
-17
-19
-22
-21
-18
-19
-21
-22
-22
-23
-13
-15
-18
-15
-19
-20
-19
-17
-18
-12
-10
-15
-20
-21
-21
-19
-14
-15
-15
-15
-17
-15
-12
-15
-19
-17
-15
-20
-18
-15
-15
-13
-18
-18
-19
-16
-18
-22
-27
-21
-16
-16
-19
-20
-18
-15
-17
-19
-15
-15
-12
-16
-11
-12
-17
-12
-12
-16
-16
-13
-13
-16
-19
-21
-16
-16
-19
-16
-14
-13
-18
-19
-20
-23
-29
-28
-24
-23
-20
-13
-13
-18
-17
-19
-14
-14
-13
-13
-17
-16
-10
-15
-17
-15
-19
-17
-11
-18
-17
-15
-18
-15
-13
-19
-19
-14
-19
-24
-22
-14
-18
-21
-17
-16
-18
-12
-8
-14
-8
-4
-10
-9
-5
-7
-13
-5
-5
-5
-9
-7
-9
-13
-10
-15
-15
-16
-17
-18
-17
-25
-21
-27
-23
-24
-21
-20
-20
-22
-16
-18
-23
-21
-20
-22
-18
-18
-19
-19
-18
-22
-27
-23
-21
-27
-28
-21
-26
-30
-24
-23
-26
-23
-17
-14
6
22
42
61
84
85
83
78
74
59
32
3
-44
-64
-67
-73
-72
-69
-66
-69
-67
-65
-63
-58
-51
-48
-46
-43
-38
-39
-34
-30
-30
-29
-29
-31
-25
-25
-31
-33
-25
-22
-23
-23
-20
-23
-23
-22
-23
-23
-22
-22
-23
-21
-16
-18
-21
-20
-23
-18
-19
-18
-20
-19
-21
-17
-18
-18
-19
-23
-19
-15
-14
-12
-12
-15
-17
-15
-16
-16
-12
-11
-10
-6
-3
-5
-5
-3
-1
-4
-3
-2
-1
4
8
3
1
4
6
1
8
14
14
21
21
17
16
23
20
20
23
26
22
28
34
31
30
27
24
25
26
25
22
23
17
14
18
15
9
10
9
6
8
5
0
-2
-3
-4
-10
-16
-12
-13
-9
-5
-10
-14
-16
-11
-19
-18
-8
-18
-14
-13
-16
-20
-16
-16
-20
-21
-22
-20
-17
-19
-21
-18
-18
-20
-19
-23
-19
-21
-21
-25
-25
-28
-27
-21
-25
-22
-23
-24
-21
-20
-21
-19
-21
-25
-25
-17
-20
-20
-21
-19
-24
-26
-21
-22
-27
-23
-23
-25
-22
-19
-21
-27
-26
-24
-26
-22
-29
-26
-25
-23
-27
-22
-22
-24
-26
-23
-20
-25
-24
-19
-20
-23
-22
-22
-23
-24
-19
-23
-21
-21
-23
-21
-19
-23
-24
-20
-21
-24
-20
-19
-22
-24
-28
-24
-24
-24
-24
-24
-24
-23
-30
-28
-24
-25
-20
-21
-25
-20
-17
-18
-22
-22
-24
-24
-24
-24
-25
-22
-21
-24
-27
-29
-24
-23
-27
-24
-23
-27
-23
-26
-26
-26
-30
-30
-29
-31
-26
-19
-24
-29
-27
-29
-27
-30
-25
-23
-24
-27
-18
-20
-20
-21
-29
-30
-29
-24
-23
-26
-19
-21
-22
-25
-27
-19
-14
-19
-21
-16
-14
-19
-18
-13
-13
-18
-18
-16
-20
-19
-19
-24
-26
-27
-30
-31
-33
-31
-31
-34
-27
-28
-30
-32
-28
-29
-29
-31
-36
-26
-24
-23
-25
-27
-28
-28
-29
-28
-31
-33
-31
-32
-32
-35
-34
-33
-35
-38
-31
-22
-11
4
22
40
53
67
76
77
70
62
45
22
-7
-50
-73
-78
-86
-77
-70
-72
-72
-68
-69
-65
-61
-57
-50
-46
-42
-37
-37
-35
-35
-35
-36
-32
-37
-33
-31
-31
-27
-25
-29
-30
-35
-30
-30
-32
-24
-26
-27
-31
-30
-26
-30
-28
-22
-26
-29
-23
-20
-22
-24
-27
-26
-20
-23
-24
-21
-13
-12
-17
-19
-18
-19
-19
-23
-15
-13
-16
-18
-11
-18
-20
-17
-10
-11
-12
-10
-9
-9
-10
-5
-5
-9
-2
0
-2
2
10
10
12
12
10
12
18
20
24
23
24
23
22
26
25
20
24
28
27
26
26
27
24
23
22
20
19
16
13
15
14
11
9
8
9
0
2
-1
-4
-6
-2
-3
-7
-6
-7
-12
-15
-12
-15
-16
-14
-13
-12
-14
-16
-24
-18
-17
-18
-16
-16
-22
-21
-18
-20
-21
-22
-22
-25
-23
-18
-21
-23
-24
-28
-29
-23
-22
-22
-21
-14
-15
-17
-19
-26
-20
-25
-26
-25
-18
-22
-29
-25
-21
-22
-21
-24
-25
-25
-21
-22
-20
-18
-18
-25
-23
-21
-24
-27
-21
-19
-26
-19
-17
-24
-25
-25
-30
-26
-18
-25
-26
-23
-23
-25
-25
-22
-24
-24
-21
-21
-26
-22
-22
-30
-23
-17
-26
-22
-23
-24
-25
-21
-21
-29
-26
-23
-23
-23
-20
-20
-22
-25
-27
-31
-26
-23
-26
-25
-20
-25
-30
-25
-22
-29
-37
-26
-22
-23
-19
-25
-25
-25
-29
-29
-21
-26
-27
-25
-23
-25
-31
-28
-30
-33
-29
-30
-30
-30
-31
-27
-24
-26
-29
-30
-32
-27
-34
-30
-37
-26
-20
-25
-26
-24
-25
-27
-24
-21
-26
-29
-28
-26
-28
-28
-22
-21
-24
-20
-25
-25
-22
-20
-24
-23
-20
-22
-21
-16
-16
-18
-19
-17
-23
-23
-22
-26
-32
-25
-25
-27
-33
-30
-33
-35
-29
-29
-34
-32
-27
-34
-29
-29
-30
-31
-31
-33
-36
-32
-31
-33
-33
-36
-39
-35
-31
-33
-34
-33
-37
-44
-39
-36
-36
-25
-13
-2
17
39
52
60
61
60
66
64
49
27
-4
-43
-70
-70
-71
-71
-75
-74
-71
-69
-64
-62
-65
-60
-55
-53
-49
-46
-40
-40
-37
-29
-35
-34
-30
-28
-29
-29
-26
-28
-29
-23
-22
-30
-27
-26
-26
-26
-29
-32
-19
-16
-24
-22
-23
-22
-22
-19
-18
-23
-23
-21
-21
-17
-17
-18
-21
-16
-16
-18
-17
-13
-18
-16
-18
-16
-16
-17
-21
-20
-6
-8
-13
-12
-9
-7
-7
-6
1
-2
-3
-4
0
6
3
6
10
10
13
16
16
15
12
16
25
19
20
19
24
33
28
28
24
26
25
27
29
27
22
18
21
28
25
20
15
14
19
18
11
11
11
4
1
4
3
-4
1
-4
-3
-12
-16
-13
-5
-7
-10
-15
-15
-15
-21
-20
-17
-20
-23
-20
-21
-26
-22
-22
-22
-18
-23
-20
-21
-21
-23
-28
-26
-22
-21
-20
-23
-27
-22
-24
-30
-29
-27
-22
-25
-25
-19
-23
-25
-27
-27
-28
-25
-25
-28
-20
-20
-23
-22
-25
-28
-27
-26
-19
-25
-21
-21
-24
-22
-23
-24
-21
-19
-19
-21
-17
-20
-21
-22
-21
-22
-21
-19
-21
-22
-19
-15
-22
-23
-22
-24
-22
-23
-18
-22
-22
-21
-24
-24
-19
-22
-22
-20
-21
-27
-18
-8
-22
-25
-20
-20
-21
-20
-22
-24
-21
-19
-24
-29
-21
-26
-23
-24
-20
-25
-23
-27
-19
-21
-21
-23
-23
-20
-18
-21
-21
-21
-20
-23
-26
-24
-14
-18
-21
-21
-17
-16
-22
-18
-17
-20
-21
-17
-24
-24
-21
-19
-21
-19
-19
-22
-20
-23
-20
-18
-14
-18
-13
-19
-15
-10
-13
-8
-14
-16
-10
-10
-7
-12
-13
-21
-21
-23
-24
-20
-20
-26
-21
-24
-23
-24
-24
-26
-25
-20
-19
-22
-24
-24
-22
-24
-23
-25
-24
-25
-24
-22
-26
-29
-26
-28
-31
-33
-28
-28
-32
-21
-14
-6
6
20
42
57
66
66
66
59
56
48
25
-13
-56
-73
-62
-66
-65
-67
-70
-67
-66
-61
-61
-63
-62
-50
-49
-46
-47
-40
-34
-38
-30
-30
-31
-23
-23
-32
-32
-31
-29
-31
-28
-26
-22
-24
-25
-20
-25
-26
-24
-21
-23
-23
-20
-13
-19
-21
-22
-18
-20
-17
-16
-21
-22
-13
-18
-21
-17
-11
-24
-14
-9
-12
-13
-11
-14
-16
-18
-12
-9
-9
-9
-10
-11
-4
-12
-14
4
-1
-3
-1
-5
1
6
12
12
11
12
15
17
16
20
17
20
24
28
25
24
30
30
29
26
25
31
31
27
27
25
25
24
24
26
25
24
23
18
16
11
8
5
11
8
5
5
9
4
-2
-3
-7
-7
-8
-11
-16
-12
-7
-14
-16
-16
-14
-17
-12
-11
-14
-15
-15
-19
-26
-16
-23
-23
-23
-21
-25
-22
-22
-22
-14
-24
-28
-21
-22
-24
-26
-18
-21
-21
-23
-27
-29
-22
-20
-21
-21
-17
-20
-22
-21
-23
-29
-26
-22
-23
-21
-15
-18
-19
-21
-24
-25
-22
-19
-24
-25
-25
-21
-23
-24
-20
-26
-20
-20
-21
-16
-14
-19
-20
-19
-19
-22
-20
-18
-21
-18
-17
-16
-19
-19
-18
-19
-20
-20
-20
-21
-18
-23
-24
-26
-27
-19
-16
-22
-22
-22
-20
-19
-26
-20
-15
-18
-21
-19
-23
-23
-21
-14
-20
-14
-16
-18
-20
-18
-23
-16
-13
-23
-24
-15
-20
-20
-21
-12
-13
-12
-10
-14
-20
-13
-16
-17
-18
-17
-18
-14
-11
-15
-13
-12
-16
-16
-11
-13
-8
-5
-4
-9
-5
-9
-17
-9
-14
-16
-19
-18
-17
-19
-25
-20
-20
-25
-22
-23
-19
-17
-23
-25
-23
-17
-24
-19
-16
-20
-22
-23
-21
-21
-21
-21
-21
-19
-21
-26
-25
-23
-29
-26
-28
-29
-32
-27
-24
-11
6
24
39
53
68
73
70
73
69
59
43
10
-30
-59
-69
-72
-74
-70
-71
-71
-63
-58
-61
-62
-58
-52
-51
-44
-37
-37
-32
-34
-28
-22
-25
-27
-30
-27
-24
-28
-27
-26
-30
-34
-26
-23
-24
-20
-21
-26
-21
-18
-18
-17
-19
-23
-27
-19
-17
-17
-15
-18
-17
-18
-22
-19
-14
-17
-17
-17
-16
-9
-15
-14
-16
-17
-20
-11
-13
-11
-11
-5
-7
-10
-9
-9
-8
-5
-5
2
2
2
1
1
3
-1
5
9
9
14
19
16
20
26
24
18
26
24
28
25
28
29
27
27
31
27
22
23
31
24
25
28
21
19
14
18
12
11
9
9
14
6
2
5
1
-4
-4
-6
-10
-10
-8
-13
-12
-15
-13
-21
-16
-15
-22
-17
-13
-17
-23
-23
-21
-22
-21
-24
-29
-18
-17
-21
-24
-24
-22
-24
-23
-25
-28
-24
-19
-24
-29
-28
-25
-27
-24
-27
-26
-20
-20
-25
-30
-29
-24
-27
-26
-21
-24
-24
-20
-23
-23
-18
-25
-26
-25
-24
-26
-25
-23
-22
-23
-26
-23
-24
-21
-25
-23
-23
-20
-20
-23
-20
-22
-28
-22
-17
-23
-20
-17
-22
-20
-17
-20
-22
-20
-17
-17
-27
-28
-11
-17
-21
-21
-24
-22
-23
-18
-17
-18
-17
-22
-21
-21
-22
-24
-23
-21
-18
-16
-20
-21
-22
-26
-25
-25
-21
-21
-25
-23
-24
-23
-19
-24
-22
-21
-18
-23
-25
-22
-20
-20
-23
-26
-22
-24
-28
-22
-20
-24
-24
-18
-21
-25
-24
-22
-24
-19
-16
-22
-18
-22
-25
-27
-17
-16
-24
-21
-13
-17
-21
-20
-18
-24
-19
-17
-21
-17
-10
-10
-11
-12
-11
-14
-14
-17
-14
-13
-14
-17
-18
-18
-23
-25
-26
-26
-28
-28
-21
-23
-24
-23
-25
-23
-22
-25
-25
-24
-21
-25
-25
-21
-23
-26
-26
-22
-27
-26
-29
-33
-27
-21
-29
-30
-26
-26
-24
-15
-5
8
32
50
61
71
80
77
72
68
51
27
-9
-50
-73
-76
-73
-77
-74
-75
-67
-62
-64
-60
-54
-51
-48
-46
-38
-27
-31
-32
-28
-27
-28
-26
-26
-25
-25
-22
-21
-23
-24
-24
-27
-25
-23
-21
-21
-19
-23
-23
-19
-19
-21
-16
-17
-18
-20
-15
-18
-18
-16
-16
-22
-15
-8
-17
-16
-15
-13
-14
-11
-5
-10
-7
-10
-12
-7
-6
-8
-11
-7
-8
-5
-5
-5
-4
-4
-4
-1
-7
-1
7
5
7
8
8
12
19
12
12
18
17
17
23
24
23
26
32
26
26
27
26
26
31
33
31
31
31
26
28
29
25
24
24
25
22
20
17
11
4
14
13
8
5
2
4
3
3
-3
-5
-6
-3
-10
-11
-10
-12
-9
-6
-13
-11
-5
-9
-16
-11
-11
-13
-12
-12
-8
-14
-13
-18
-19
-14
-15
-14
-11
-15
-14
-17
-17
-20
-18
-14
-20
-20
-15
-16
-18
-13
-10
-14
-13
-18
-24
-11
-9
-15
-16
-13
-16
-21
-17
-14
-15
-12
-13
-14
-19
-14
-14
-16
-15
-19
-15
-16
-12
-14
-17
-20
-22
-24
-21
-12
-13
-20
-14
-15
-19
-10
-12
-16
-12
-15
-12
-13
-13
-13
-15
-12
-16
-20
-16
-14
-17
-17
-11
-18
-10
-14
-16
-16
-19
-14
-15
-14
-16
-15
-16
-20
-19
-20
-15
-21
-20
-19
-12
-15
-14
-15
-17
-20
-14
-14
-13
-10
-10
-16
-16
-22
-20
-13
-18
-14
-15
-15
-15
-17
-17
-18
-19
-16
-16
-16
-19
-16
-11
-17
-18
-21
-16
-20
-20
-17
-11
-13
-12
-9
-12
-12
-16
-15
-15
-18
-18
-14
-10
-13
-12
-12
-11
-14
-12
-9
-11
-3
-2
-6
-9
-10
-11
-8
-8
-8
-11
-7
-10
-13
-13
-17
-21
-18
-18
-20
-18
-16
-19
-22
-16
-21
-20
-18
-19
-17
-20
-16
-16
-21
-20
-16
-17
-17
-16
-22
-24
-23
-24
-26
-19
-15
-23
-25
-24
-21
-14
-2
13
33
50
65
76
86
88
79
70
62
43
13
-26
-59
-73
-72
-68
-73
-70
-64
-61
-58
-51
-46
-44
-37
-37
-29
-34
-24
-26
-26
-23
-23
-24
-22
-18
-19
-20
-14
-21
-19
-19
-17
-18
-14
-17
-14
-11
-11
-11
-11
-14
-17
-15
-10
-10
-10
-10
-10
-13
-13
-11
-11
-14
-10
-11
-8
-8
-5
-10
-7
-5
-11
-10
-7
-8
-7
-2
-4
-4
-4
-4
0
-1
-1
-1
0
8
10
4
5
9
2
7
12
9
17
17
17
21
26
28
29
31
28
31
31
32
32
29
34
34
37
35
39
33
30
41
39
30
35
32
28
28
27
25
23
23
24
21
17
12
12
12
15
11
8
13
9
3
1
4
0
-1
-3
-4
-5
-3
-8
-7
-7
-6
-14
-12
-6
-8
-7
-6
-6
-11
-12
-11
-16
-9
-3
-4
-10
-6
-10
-7
-10
-7
-11
-9
-10
-11
-11
-10
-11
-11
-13
-10
-16
-13
-12
-14
-10
-7
-8
-11
-13
-12
-12
-19
-9
-12
-16
-9
-11
-16
-7
-10
-13
-11
-9
-9
-11
-9
-14
-11
-9
-13
-13
-14
-7
-13
-11
-7
-15
-12
-10
-9
-11
-11
-13
-11
-11
-10
-13
-8
-11
-13
-14
-12
-14
-10
-6
-7
-10
-15
-12
-9
-13
-11
-12
-10
-7
-10
-16
-13
-12
-10
-13
-14
-14
-12
-12
-12
-6
-21
-15
-5
-15
-13
-12
-10
-8
-9
-9
-9
-15
-13
-14
-11
-14
-14
-13
-14
-14
-7
-11
-12
-11
-13
-13
-9
-9
-12
-12
-14
-16
-14
-12
-15
-21
-7
-10
-10
-13
-14
-14
-16
-10
-9
-15
-10
-11
-9
-8
-8
-13
-18
-12
-10
-9
-10
-8
-13
-11
-10
-9
-17
-7
-7
-10
-9
-8
-11
-10
-10
-11
-12
-10
-9
-10
-9
-4
-6
-10
-9
-11
-10
-9
-3
0
-7
3
1
0
1
-2
-4
-1
-4
-6
-10
-11
-14
-15
-12
-12
-12
-18
-12
-10
-13
-11
-11
-11
-13
-16
-17
-16
-12
-11
-11
-9
-18
-18
-16
-20
-22
-18
-24
-22
-11
-15
-17
-18
-22
-20
-10
0
11
33
51
69
80
85
90
88
84
72
52
22
-16
-48
-61
-68
-68
-71
-63
-61
-61
-57
-53
-48
-43
-42
-39
-39
-25
-21
-22
-25
-16
-18
-19
-21
-20
-15
-14
-14
-21
-18
-15
-11
-17
-16
-15
-17
-13
-18
-14
-11
-10
-12
-14
-14
-13
-16
-13
-12
-13
-14
-10
-11
-16
-18
-14
-14
-8
-10
-14
-3
-3
-7
-5
-5
-5
-9
-4
1
-3
-3
-1
-5
-3
-1
0
4
8
4
1
7
12
8
10
11
7
9
12
