57
61
37
37
31
2
-20
-13
27
42
46
50
53
40
15
12
-5
1
32
47
51
65
41
29
17
14
0
7
30
47
52
49
45
33
11
4
17
-11
33
53
56
64
55
32
17
12
1
-3
33
50
46
62
45
25
6
1
-1
2
16
38
38
60
39
21
4
-5
-10
7
27
38
47
42
25
20
20
-6
-5
11
31
41
57
49
37
17
-6
-21
0
13
23
36
63
58
33
22
11
-16
-4
13
33
41
46
47
36
18
3
3
6
14
27
42
54
52
37
32
25
25
40
53
66
91
111
110
81
48
41
35
49
47
67
60
67
31
9
-4
-9
-27
-18
11
26
40
57
33
19
16
5
-8
12
22
40
44
54
48
41
14
5
-8
2
20
37
47
53
50
34
14
17
-6
10
31
38
50
64
46
26
17
19
-3
8
12
39
48
50
53
37
12
9
-2
11
26
46
50
60
48
36
13
19
0
5
37
55
54
60
62
37
24
20
7
20
41
56
56
71
69
51
25
14
16
41
38
58
80
90
65
45
41
15
20
34
53
74
83
86
77
56
35
42
49
40
62
77
86
94
78
49
50
39
41
54
76
84
88
90
69
54
39
27
40
41
61
70
79
84
64
24
7
0
14
36
48
56
67
59
34
24
15
-6
-3
17
30
34
64
48
24
10
15
-9
5
4
31
50
59
47
27
11
10
-8
-2
11
31
47
57
44
32
12
7
0
2
18
38
57
63
48
32
24
11
-11
3
17
31
50
58
51
19
3
1
9
20
30
45
41
57
54
34
12
12
0
6
15
37
50
54
45
32
13
9
2
7
22
41
46
56
46
27
7
4
-4
5
37
52
52
48
31
20
9
3
-17
10
35
48
55
60
45
33
12
-15
13
12
31
48
63
65
45
29
-6
0
-5
15
44
47
68
64
37
11
17
3
4
28
43
36
56
57
35
20
8
-2
-9
7
23
38
54
56
33
20
5
-15
-5
12
19
38
51
35
26
20
8
-20
-9
8
24
46
60
37
23
3
14
-9
7
9
40
33
56
31
15
17
4
-12
-7
20
31
16
48
38
35
11
5
-8
1
8
24
36
60
48
36
19
5
-7
13
39
59
79
91
77
72
72
61
45
57
68
71
87
102
76
58
22
2
-11
-8
7
41
28
49
36
13
7
-8
-13
12
26
43
44
54
51
18
1
-5
-3
4
18
48
55
57
44
21
15
-14
-12
17
24
39
43
45
40
29
9
2
-10
15
40
54
49
44
36
16
9
7
21
12
28
42
49
63
47
22
18
-3
0
33
38
51
64
60
34
24
19
-3
15
18
44
46
74
60
44
27
24
4
16
27
49
51
75
69
51
29
24
13
30
44
53
68
91
79
68
48
31
22
38
38
70
79
95
72
66
42
46
27
41
57
79
81
98
92
74
55
42
24
34
51
57
74
90
71
46
32
21
24
12
34
51
45
61
57
41
18
13
-3
-9
21
39
48
39
53
41
2
-1
-17
7
25
37
51
55
27
17
-1
-8
-4
-1
28
53
35
40
43
13
-1
-6
-5
4
20
36
38
42
38
12
18
13
-9
11
16
30
48
38
36
21
-2
-21
-3
10
23
31
40
54
37
19
3
-1
3
9
20
41
53
56
40
26
8
-9
-19
4
22
44
61
49
39
20
11
-9
-3
8
29
37
48
46
35
14
-3
-24
-8
20
23
35
56
51
24
14
8
-20
-3
17
26
29
50
44
13
9
6
-11
11
10
27
42
63
50
16
25
14
-3
0
20
35
44
59
43
29
6
-2
-11
5
6
19
50
57
44
33
16
6
-13
-7
17
31
32
52
33
29
13
-1
-16
-4
19
31
39
49
36
23
16
-2
-31
-15
20
26
31
56
40
10
6
-8
-16
-3
18
34
41
55
29
19
-3
5
-18
0
17
28
36
53
37
19
0
-18
-28
1
21
40
41
50
46
11
-1
3
-10
-2
24
45
65
73
73
40
33
35
51
72
79
77
102
99
95
60
55
38
21
22
39
37
38
30
24
11
0
-26
-12
-4
21
33
56
44
29
13
-6
-9
-2
-9
21
48
52
28
19
12
6
-20
-2
9
31
43
43
50
37
15
2
-23
-10
11
31
44
45
25
38
7
-2
-4
2
21
38
29
41
46
17
20
8
-20
2
7
34
46
61
49
37
14
5
-22
-5
33
43
41
59
47
23
13
20
-1
11
22
49
47
55
42
39
28
26
9
13
30
58
58
67
67
56
28
22
0
29
40
65
69
78
47
52
47
31
32
48
56
71
77
81
71
45
46
45
19
28
52
76
81
89
58
50
22
10
10
25
30
55
51
45
44
17
9
6
-7
1
22
30
35
41
33
15
-5
-13
-20
-1
10
26
35
32
27
16
4
-15
-25
-9
2
16
52
45
28
5
-12
-13
-13
-3
33
29
33
44
19
-5
-3
-19
-10
-3
25
34
49
22
18
4
-3
-20
-13
0
20
40
50
37
22
3
8
-17
-12
-5
17
33
44
35
31
-3
1
-15
-5
11
28
30
48
37
33
11
1
-14
-11
12
29
37
50
28
15
-2
-2
-17
1
14
24
27
44
37
24
1
-2
-18
-8
7
27
38
52
31
15
7
-13
-27
-12
13
26
28
44
43
20
2
-5
-14
-6
21
30
37
43
39
16
-5
-9
-10
-9
7
28
44
39
38
22
12
6
-21
-1
20
36
40
52
37
19
3
-6
-10
3
31
30
45
41
40
11
0
0
-8
-2
16
43
34
37
24
8
-10
-18
-15
11
18
1
34
51
37
9
-22
-11
-9
-6
24
26
34
34
28
7
6
-25
-21
7
17
37
47
38
17
-14
-8
-5
-15
2
15
33
45
34
10
11
0
-22
-18
-7
17
21
44
45
25
9
0
-23
-20
10
21
42
69
41
45
52
56
32
48
73
105
107
111
76
68
58
49
26
20
30
28
26
35
30
16
-2
-1
-20
-17
8
26
39
45
27
22
-4
-17
-17
-6
11
28
42
40
19
30
7
7
-13
-14
0
23
44
41
35
20
-3
-3
-11
-11
12
38
39
43
41
34
20
7
-18
-12
12
35
34
44
35
16
7
-11
-12
14
32
24
43
47
33
21
1
-6
-17
1
22
51
48
54
48
23
6
-6
0
17
35
47
51
39
31
26
17
12
9
9
44
59
66
69
55
35
25
14
23
35
41
62
74
75
46
49
52
21
22
36
58
53
65
77
64
53
42
13
33
42
63
62
89
78
57
42
25
8
25
35
35
56
62
49
37
19
7
-5
7
11
39
25
45
46
29
3
-3
-7
-1
9
34
29
46
35
21
5
-7
-23
-32
4
12
22
42
25
18
5
7
-20
-23
16
23
32
42
26
15
4
-5
-14
-6
10
22
31
42
29
18
-3
-7
-21
-8
2
16
47
37
30
13
-1
-4
-17
-19
6
29
35
32
17
12
6
-2
-22
-3
16
23
32
35
35
20
1
-3
-11
-7
5
22
42
42
33
5
-8
-19
-18
-4
4
20
28
27
21
0
-13
-26
-14
-1
8
32
30
35
11
-8
-15
-27
-20
-13
16
37
50
29
17
-4
-13
-30
-24
-13
26
36
52
38
16
2
-12
-26
-17
1
14
22
42
35
9
-7
-11
-25
-24
2
22
21
35
14
4
0
1
-20
-6
4
23
32
51
30
0
-12
-12
-24
-2
24
37
28
50
35
26
4
4
-21
-17
8
32
19
32
38
17
0
1
-25
-11
-4
-5
21
35
24
5
0
-19
-28
-27
-4
24
26
37
25
8
-17
-17
-27
-7
3
23
17
32
33
3
-14
-24
-23
-24
15
17
35
32
15
15
-9
-16
-28
-12
0
20
29
38
19
14
1
-18
-29
-5
0
14
34
44
33
22
19
8
8
23
61
80
93
108
85
61
42
45
31
34
39
43
57
40
15
-6
-23
-23
-35
-23
17
31
38
32
3
-7
-15
-27
-11
8
18
25
50
45
15
-1
-15
-38
-22
-5
4
22
41
25
16
1
-9
-21
-15
-3
25
37
38
30
3
-3
-3
-37
-8
6
12
30
44
31
21
4
-20
-33
-12
8
19
17
46
47
3
5
-10
-18
-8
10
22
32
36
36
24
8
2
-10
-10
0
43
31
39
32
29
14
-3
-13
0
22
36
45
58
44
38
17
8
3
8
24
51
54
63
59
39
19
18
14
23
43
57
45
68
64
46
29
19
16
24
46
59
49
77
65
50
39
18
9
15
20
45
52
58
45
30
12
-7
-10
0
18
33
46
47
20
10
-7
-38
-16
-18
5
22
27
32
17
-7
-14
-27
-35
-20
21
27
22
36
11
-10
-14
-23
-28
0
-2
4
29
26
5
-8
-17
-38
-27
-12
3
15
35
23
9
-13
-21
-41
-29
-13
19
20
24
20
5
-15
-23
-35
-29
-6
2
18
31
26
3
-12
-13
-25
-14
-10
18
16
28
21
4
-13
-18
-37
-14
-2
6
17
35
18
6
-21
-20
-37
-23
-18
8
20
25
28
7
-11
-19
-47
-20
4
9
6
23
18
0
-29
-20
-20
-16
-1
9
23
30
23
-3
-7
-21
-31
-24
1
24
18
22
18
6
-13
-18
-28
-6
5
9
15
30
24
9
-11
-25
-24
-3
8
9
26
29
11
4
-10
-22
-30
-19
-12
17
24
24
16
-13
-31
-35
-33
-29
5
23
14
14
7
1
-5
-25
-25
-12
11
7
20
19
10
0
-12
-34
-35
-24
2
10
27
28
11
-15
-27
-36
-34
-24
5
18
30
20
4
-10
-20
-29
-33
-12
7
18
22
22
5
-17
-12
-33
-19
1
19
36
49
46
53
32
16
4
23
41
64
79
77
57
42
10
-3
-6
-7
-8
2
6
28
19
-9
-28
-30
-37
-32
-18
5
7
22
22
2
-21
-12
-31
-17
-2
17
-2
41
21
14
0
-8
-27
-20
-4
24
32
31
32
10
-16
-20
-23
-10
3
12
16
32
26
10
-7
-13
-27
-14
7
16
21
42
39
13
-8
-15
-28
-17
2
27
41
25
12
15
-4
-13
-16
-16
14
18
42
55
35
20
3
-14
-7
12
24
48
46
51
31
16
-9
-9
-3
18
28
36
46
58
51
28
17
-1
12
18
48
58
68
73
41
24
24
-4
20
49
54
58
68
64
49
28
25
17
16
35
49
53
72
65
38
36
15
2
6
23
37
37
48
42
32
7
-2
-16
-6
2
20
24
38
26
3
-5
-7
-39
-23
8
14
12
23
32
3
3
-14
-29
-28
-3
18
18
27
19
10
-3
-11
-32
-15
-3
5
12
35
17
4
-14
-10
-29
-19
12
18
22
28
10
1
-17
-10
-18
-16
-6
13
28
35
20
11
3
-19
-33
-22
2
18
20
34
30
13
-6
-9
-19
-13
5
34
30
37
25
6
-3
-25
-19
-16
0
29
28
34
20
9
-2
-21
-36
-21
2
17
24
40
28
4
-10
-13
-23
-13
9
31
30
27
15
-3
-7
-18
-20
2
20
28
35
44
37
5
1
-10
-17
-7
18
27
43
35
22
10
-10
-28
-15
0
5
13
24
30
16
5
-7
-41
-40
-12
5
12
33
24
4
-6
-29
-43
-24
3
13
23
44
25
-4
-1
-17
-29
-22
-5
12
18
36
20
11
-7
-17
-36
-23
-7
14
19
22
23
15
-17
-15
-34
-18
-15
9
23
42
21
7
-10
-16
-31
-15
5
17
29
37
31
9
12
8
-11
3
24
51
72
91
87
53
25
25
13
20
33
34
40
38
10
-12
-28
-26
-42
-24
-15
15
26
26
14
0
-4
-8
-29
-15
-3
22
31
40
13
-7
-15
-16
-21
-17
10
29
34
18
22
1
2
-5
-19
-7
14
26
22
36
22
-4
-5
-23
-22
1
8
16
29
29
18
-3
-6
-17
-7
2
19
27
44
32
24
1
-3
-26
-9
-1
18
26
41
48
23
-5
3
-13
-15
22
23
36
58
50
20
13
14
-9
-1
11
34
48
63
45
34
21
9
-10
11
25
35
55
71
64
47
26
24
13
16
40
60
54
67
70
56
23
25
6
19
39
53
68
73
69
43
25
23
2
18
15
40
35
62
42
30
6
-9
-11
4
9
22
17
33
48
15
-6
-16
-25
-16
3
29
34
36
33
8
-22
-19
-28
-14
-5
8
18
19
16
0
-14
-22
-27
-10
2
15
33
34
13
2
-16
-17
-36
-25
-5
20
29
31
18
-9
-16
-20
-22
-19
1
17
20
29
23
13
-22
-16
-28
-7
3
18
39
42
16
10
-18
-27
-26
-12
6
24
29
28
24
9
-10
-39
-9
-6
14
11
34
37
16
-4
-20
-29
-23
-6
13
19
34
28
19
1
-8
-33
-14
3
20
34
50
27
22
3
-4
-29
-6
-2
16
34
52
30
2
-3
4
-16
-12
-6
12
18
38
33
16
-3
-13
-39
-24
-12
14
19
35
29
13
-14
-10
-31
-24
-11
17
14
37
23
10
-4
-17
-32
-25
9
19
24
23
13
4
-10
-22
-25
-24
-11
7
33
33
16
7
-6
-23
-27
-19
-5
14
23
33
19
4
-13
-21
-43
-14
9
7
23
40
29
6
-8
-22
-31
-6
1
34
33
52
49
42
19
11
14
33
78
73
78
81
77
36
17
2
8
5
17
0
29
24
9
-10
-21
-30
-31
-13
1
22
31
30
16
6
-12
-21
-19
-10
6
24
24
13
16
-3
-20
-16
-17
-6
8
22
35
33
29
2
-5
-26
-17
0
13
13
25
21
32
3
0
-16
-10
14
19
22
26
22
12
-1
-8
-19
-10
10
14
22
37
23
17
5
-6
-38
-15
7
20
43
56
38
23
20
-8
-23
-3
20
40
48
53
39
12
1
7
-3
13
31
39
43
54
47
33
18
26
-3
11
48
59
55
65
59
52
30
22
11
23
42
65
65
61
53
42
32
31
19
8
34
63
67
61
46
33
26
13
7
24
26
44
39
53
33
28
8
-20
-10
-6
8
17
23
51
41
8
-18
-24
-21
-4
-1
21
19
43
18
-7
-23
-25
-17
-12
6
14
18
35
23
3
-17
-21
-16
-15
-6
20
30
29
16
-3
-18
-33
-20
-3
20
14
25
21
12
3
-4
-34
-18
-8
15
27
35
30
20
-3
-20
-31
-19
-12
17
18
33
32
15
-13
-14
-32
-15
9
24
28
32
20
27
5
-11
-30
-30
-5
26
28
35
29
14
-5
-11
-29
-12
-4
18
21
45
25
8
12
-15
-17
-39
13
37
35
41
46
6
-14
-8
-36
-11
13
24
26
40
31
16
5
-3
-22
-15
5
15
26
32
33
17
-10
-21
-32
-16
-3
14
16
30
31
3
-18
-26
-30
-23
4
16
20
45
20
-11
-6
-21
-34
-25
16
24
15
32
25
4
-13
-23
-25
-15
7
21
30
34
14
-8
-11
-14
-28
-18
1
18
27
35
21
-4
-21
-26
-7
-8
11
13
25
29
11
4
-5
-14
-31
-10
18
39
62
64
40
37
18
25
32
57
93
89
77
74
71
52
37
0
-14
7
-5
21
28
13
3
-16
-1
-14
-17
-13
-3
17
29
30
13
-5
-19
-36
-13
-15
8
13
33
39
21
-2
-8
-42
-31
0
19
22
43
19
8
1
-25
-30
-17
10
17
25
41
34
10
-12
-13
-18
-24
-7
21
30
43
29
6
-7
-6
-30
-4
2
29
25
45
43
13
1
-9
-31
-12
14
25
33
44
36
16
14
-12
-18
-11
22
31
37
53
43
25
9
-12
-4
10
28
45
49
54
50
32
27
11
11
9
40
55
77
68
69
40
24
10
4
27
41
56
71
67
59
48
23
14
24
29
35
47
65
70
52
36
14
-1
1
5
31
39
45
38
26
7
2
-7
-8
6
8
24
42
26
21
3
-11
-28
-25
-10
14
22
45
35
10
-17
-19
-27
-2
4
17
14
35
27
5
6
-16
-31
-19
-16
3
12
39
24
12
-4
-6
-36
-24
-29
14
31
38
26
8
-5
-20
-30
-23
-4
17
21
45
29
13
9
-12
-23
-34
2
31
19
40
35
15
-8
-19
-27
-27
1
19
17
30
32
14
-1
-18
-30
-26
2
19
27
42
28
13
-17
-19
-20
-15
-8
21
40
38
24
20
-17
-5
-21
-19
3
17
30
41
31
1
-11
-17
-28
-20
6
13
28
48
29
10
-6
-16
-26
-3
16
28
38
36
32
7
-10
-17
-19
-5
17
24
29
30
24
17
-4
-32
-29
-13
14
28
31
37
15
-2
-26
-31
-34
-26
15
27
34
30
21
-10
-21
-16
-25
-9
8
11
27
34
11
-7
-20
-29
-17
-12
9
14
38
24
35
-11
-27
-29
-18
-14
-3
23
30
22
11
-13
-24
-33
-16
-6
15
25
30
17
19
0
-19
-32
-21
-5
3
17
27
37
8
7
5
-9
-3
27
50
68
87
88
79
55
49
26
24
43
73
76
75
57
24
1
-18
-29
-23
-9
11
24
28
10
-10
-21
-11
-13
-1
1
19
32
42
20
1
-22
-14
-18
-16
-2
21
23
27
22
8
-9
-10
-25
-9
11
23
28
40
20
5
-6
-12
-25
-8
2
15
36
33
8
0
-9
-8
-13
-15
24
30
26
24
25
3
4
-24
-15
1
22
29
36
31
31
5
-2
-23
-16
4
6
33
45
42
28
13
2
-14
-2
9
29
30
55
47
33
21
21
3
0
20
38
45
62
57
43
37
22
5
23
37
46
58
86
46
37
23
33
23
32
39
57
58
67
71
46
37
17
10
5
20
42
60
65
49
33
14
8
-6
11
9
27
39
56
46
17
-6
-2
-20
-15
-11
14
24
47
33
14
6
-4
-32
-36
2
21
26
37
20
17
-21
-10
-29
-25
-3
9
16
37
27
-3
-9
-13
-27
-18
-4
16
12
22
12
7
-8
-15
-16
-15
0
26
17
42
23
3
-10
-24
-35
-12
6
23
31
31
27
-3
-4
-6
-13
-22
3
23
42
22
11
-2
-15
-26
-13
-14
3
21
30
37
25
8
-13
-24
-38
-11
11
24
35
36
14
-2
-2
-27
-19
-9
5
19
40
39
17
2
-8
-26
-26
-22
15
22
34
30
18
-3
-14
-32
-21
-15
8
-3
28
30
14
10
-17
-38
-1
-6
16
27
38
24
22
3
2
-14
-24
0
16
27
26
28
22
6
-3
-36
-16
17
21
22
50
38
23
-2
-18
-29
-8
-2
12
8
25
25
-9
-1
-9
-29
-15
1
12
11
37
25
12
-7
-14
-33
-13
-6
11
27
28
21
5
-3
-24
-34
-16
-1
15
13
36
15
-2
-13
-17
-29
-17
0
20
22
30
26
-6
-13
-14
-26
-15
1
17
13
32
13
6
-15
-25
-28
-2
12
29
30
20
16
-1
-22
-25
-10
3
33
69
68
61
65
55
43
45
45
63
64
79
79
81
64
33
6
-7
-21
-6
10
21
26
29
11
-8
-17
-44
-32
-15
22
17
39
33
20
-1
-17
-23
-17
-5
16
31
35
24
1
-11
-3
-18
-22
-17
14
21
41
18
-4
-8
-17
-24
-16
1
9
26
50
22
20
-2
-14
-19
-19
-1
17
23
34
27
7
-21
-24
-30
-22
-3
19
2
47
48
26
7
-8
-18
-20
6
13
26
43
29
25
-6
-7
-10
-3
9
31
36
41
46
31
4
3
-2
9
22
34
40
64
47
16
3
6
5
12
22
45
44
63
65
47
30
23
9
31
35
55
70
61
64
46
31
18
9
13
31
46
63
59
47
34
11
-4
-10
16
24
35
56
55
29
-6
-10
-21
-18
-2
4
18
31
35
19
-2
-6
-29
-25
-9
6
13
22
16
17
4
-15
-28
-29
-12
10
15
33
24
8
-8
-23
-41
-18
4
3
23
42
32
14
-9
-25
-37
-22
-19
2
21
38
25
17
2
-13
-27
-22
-9
17
8
32
29
-1
-4
-24
-36
-20
-5
-3
10
31
41
17
-4
-9
-34
-16
-8
13
17
45
25
1
-16
-11
-23
-11
4
13
17
36
30
12
-2
-16
-32
-9
-6
21
13
32
21
3
-13
-20
-28
-19
-1
16
20
31
14
5
-16
-18
-31
-20
-3
18
21
47
16
5
-31
-27
-30
-1
17
15
33
24
13
6
-16
-24
-30
-21
4
15
32
32
23
-5
-23
-26
-25
-14
1
15
34
35
20
-1
-4
-21
-36
-20
13
32
38
38
22
7
-1
-25
-34
-3
29
35
42
21
2
-3
-3
-36
-17
-6
9
16
30
22
8
2
-22
-36
-27
-9
10
20
28
19
7
-14
-22
-42
-28
-7
10
32
25
3
-3
-3
-18
-27
-29
-7
18
14
32
30
8
-18
-10
-31
-16
-6
3
14
30
22
17
0
-16
-35
-21
-9
21
12
35
27
12
-11
-18
-35
-26
1
13
30
52
44
21
6
29
10
43
65
87
83
107
78
58
31
36
18
14
27
34
16
36
23
1
-17
-14
-28
-24
11
20
27
31
16
6
-27
-17
-28
-9
4
-2
15
34
26
9
-16
-26
-17
-11
8
16
26
41
34
-5
-23
2
-30
-20
1
29
29
28
30
5
-12
-11
-17
-16
4
21
38
37
25
3
-15
-23
-16
-12
15
29
31
27
19
8
-2
-13
-9
-5
17
26
34
41
19
-9
-14
-18
1
6
17
31
40
57
47
15
-8
-22
-1
14
32
41
64
55
37
18
2
-5
15
22
42
58
75
62
48
28
17
3
25
34
50
54
76
64
61
29
32
12
10
39
52
55
76
66
53
34
6
-1
12
20
37
45
60
47
28
4
5
-30
-10
9
35
34
50
37
3
-4
-10
-35
-15
6
18
20
29
23
11
3
-8
-25
-13
-1
-2
22
39
15
3
-14
-13
-18
-17
1
21
32
31
11
-2
-10
-15
-28
-15
0
20
30
32
18
4
-8
-27
-35
-11
8
19
22
31
26
-2
-14
-20
-21
-9
1
28
34
32
25
-6
-8
-25
-19
-6
12
31
36
37
26
-1
-16
-21
-23
-11
4
10
48
38
7
-6
-8
-28
-14
1
16
10
30
44
26
2
-12
-20
-26
-11
20
18
33
23
11
5
-21
-33
-21
5
14
23
46
30
14
-11
-15
-24
-25
-3
16
26
34
19
20
-6
-10
-36
-19
-5
17
24
40
19
8
-5
-15
-33
-28
-9
14
34
32
32
17
-2
-25
-19
2
2
18
28
49
34
5
-11
-6
-33
-9
3
34
30
52
35
15
-3
-12
-29
-12
-3
25
18
44
29
7
-24
-23
-38
-17
1
22
17
29
19
5
-12
-24
-12
-14
4
3
15
32
2
12
-15
-24
-43
-19
12
25
22
37
25
-5
-19
-18
-21
-2
6
18
22
26
11
4
-25
-31
-28
-20
2
26
48
33
13
2
-26
-17
-24
-13
14
24
37
37
37
9
9
-7
1
40
82
81
100
106
72
52
35
26
27
25
36
43
65
41
16
-16
-19
-33
-31
-8
-2
27
30
30
17
-8
-22
-32
-6
-10
13
24
41
40
15
-1
-8
-34
-14
2
18
21
36
28
19
-4
-34
-32
-9
-10
18
29
35
33
3
4
-11
-17
-6
6
21
20
25
22
14
0
-4
-22
-19
3
23
30
34
15
0
1
-3
-7
-10
9
24
19
35
34
18
0
0
-18
-10
14
43
46
46
33
21
-2
-3
-13
1
17
39
42
44
43
19
11
16
-2
24
20
57
62
70
58
34
31
9
21
22
31
47
60
72
65
38
33
8
22
27
46
59
71
59
49
40
20
4
-4
23
40
49
54
56
49
36
15
-12
-8
-3
18
31
51
38
31
-1
-10
-30
-23
2
9
18
37
30
18
-5
-13
-24
-13
-7
22
26
31
23
19
-5
-20
-46
-21
-5
17
13
27
34
16
-12
-19
-45
-25
-5
19
24
53
38
17
-15
-9
-39
-18
-15
12
24
39
24
6
-15
-19
-22
-13
-3
23
23
38
25
0
-3
-9
-35
-26
1
20
31
38
37
13
-12
-23
-27
-15
14
17
18
37
42
4
-6
-5
-32
-17
3
18
38
48
27
-12
-13
-22
-19
-8
-4
10
24
27
34
0
-8
-20
-25
-8
2
9
27
41
31
15
-17
-19
-17
-16
3
19
30
36
14
-3
-13
-22
-23
5
6
29
21
51
35
-5
-20
-29
-22
5
21
29
40
38
29
2
-15
-14
-17
-15
12
28
33
41
24
-2
-16
-28
-25
-6
22
20
35
28
10
-5
-18
-33
-19
-2
3
10
43
17
15
-4
-31
-27
-8
-3
1
11
25
28
13
-4
-9
-32
-15
3
16
19
29
21
12
-4
-7
-26
-28
1
14
24
42
26
5
2
-15
-30
-14
-4
12
21
41
29
6
7
2
-14
20
30
46
53
80
76
71
38
48
9
13
44
58
46
35
47
29
-11
-33
-29
-26
-12
12
20
25
22
8
-10
-12
-23
-19
-8
21
36
38
32
10
-8
-15
-19
-10
-2
26
29
31
12
7
-5
-20
-23
-5
8
19
31
32
23
10
1
-8
-25
-4
21
23
37
35
29
13
-13
-20
-31
-16
29
29
47
38
38
16
-4
-19
-26
1
24
31
42
43
21
9
5
-4
-2
2
20
29
40
38
33
14
2
-9
-6
15
37
53
53
66
42
23
15
-5
14
19
37
58
63
59
37
29
29
13
25
40
50
63
73
72
61
40
20
22
24
38
48
70
98
73
45
22
16
7
33
41
59
70
66
48
25
14
17
2
0
24
30
31
39
36
14
-8
1
-10
-17
5
28
22
51
27
2
-21
-24
-26
2
11
22
24
33
32
3
-2
-6
-31
-15
1
12
23
37
20
19
-1
-15
-23
-10
2
14
30
34
27
10
-9
-22
-28
-14
8
17
28
27
15
0
-28
-28
-3
5
8
32
46
33
18
2
-7
-5
-19
-11
7
29
38
45
30
7
-2
-14
-18
-2
10
24
45
36
22
-9
-11
-17
-21
-2
7
20
36
37
22
-6
-12
-25
-17
-8
28
17
37
35
22
-5
5
-9
-11
2
19
23
44
51
30
5
-6
-22
-8
-2
17
29
56
34
14
-7
-12
-18
-9
-2
19
29
42
31
15
0
-25
-44
-30
-7
28
31
38
41
20
4
-6
-24
-31
-19
13
25
35
23
1
1
-13
-20
-26
-7
21
17
35
25
4
-14
-12
-29
-24
-3
27
25
26
16
-5
-14
-15
-23
-29
-7
25
32
44
29
4
6
-15
-33
-6
-2
29
36
45
30
14
21
21
-6
13
29
54
74
102
79
62
39
29
13
30
36
47
50
47
22
-7
-23
-30
-34
-5
9
9
20
28
11
1
-12
-25
-21
-11
-2
31
39
36
13
2
-2
-15
-21
-10
6
21
46
32
9
-1
0
-31
-30
-8
13
39
52
43
25
12
-12
-21
-29
1
16
22
43
30
27
-10
-7
-22
-10
1
21
28
44
34
25
1
-18
-17
-6
11
22
30
37
42
20
9
10
-18
-5
8
25
50
56
35
14
2
15
-6
7
26
43
43
64
50
39
26
8
-8
6
23
39
61
68
63
43
28
12
20
33
36
70
65
84
63
46
39
20
9
27
40
66
63
67
63
37
21
19
21
27
22
45
52
63
48
29
21
5
-21
-6
15
38
45
54
42
4
-7
-16
-24
-15
-3
22
46
38
35
21
-14
-32
-24
0
13
24
29
36
3
-20
-33
-17
-31
-20
14
29
36
40
27
2
-7
-18
-26
-8
12
17
29
34
25
1
-7
-22
-17
0
10
37
27
25
26
-2
-7
-27
-25
6
13
16
35
25
11
12
1
-21
-24
-1
7
30
47
30
20
3
-24
-24
-15
2
20
28
50
37
15
2
-6
-19
-14
5
21
34
40
39
13
-11
-19
-12
-12
0
18
29
48
37
29
1
-20
-16
-16
7
22
29
54
41
20
9
-1
-15
-4
11
27
22
38
42
25
2
-5
-11
-14
6
32
32
38
25
4
-14
-19
-37
-7
3
24
28
34
26
14
-14
-14
-38
-21
-9
21
23
44
25
-1
-13
-17
-26
-16
-3
31
23
31
16
5
-6
-20
-13
-6
8
16
30
28
17
6
-2
-26
-22
-12
4
17
23
26
13
-5
4
-20
-18
1
8
46
55
57
46
32
23
27
46
60
70
88
94
86
66
56
34
20
11
2
15
8
26
18
13
-3
-25
-40
-22
2
5
20
22
23
18
3
0
-19
-21
-5
10
24
43
23
1
5
-9
-29
-8
-1
16
20
30
33
24
-10
-15
-15
-3
-5
8
22
31
29
10
-7
-8
-25
-9
21
22
12
32
21
13
-3
-6
-10
-3
1
24
34
47
36
16
-5
-6
-31
-9
13
37
28
47
33
23
15
2
-10
-2
19
34
42
46
33
20
14
3
-2
4
27
40
47
52
53
46
21
12
8
6
32
53
49
76
64
47
43
33
15
26
45
63
70
66
47
44
38
20
18
34
52
49
59
68
54
31
20
0
-4
12
15
32
46
56
42
26
8
-15
-17
-6
12
18
33
42
30
3
-13
-19
-20
-14
-3
21
26
17
10
0
0
-25
-20
-1
2
24
16
30
9
2
-10
-34
-22
-2
8
15
35
22
18
-1
-15
-30
-29
-11
8
29
37
28
18
-10
-17
-42
-29
-14
17
32
42
18
3
-6
4
-27
-27
-11
12
34
34
22
5
-2
-4
-16
-14
-16
11
28
40
21
11
-2
-2
-29
-27
4
30
23
28
6
8
-6
-17
-30
-18
-2
24
26
39
16
0
-2
-23
-16
-3
11
21
28
37
27
2
-2
-12
-16
-2
5
14
37
44
34
7
4
-12
-24
-16
-1
17
34
38
11
-7
-15
-24
-27
-17
4
11
25
19
16
-5
-17
-26
-37
-22
12
15
36
21
21
-8
-9
-38
-29
-19
3
24
33
25
12
3
-13
-29
-17
-5
22
18
34
25
3
-14
-20
-38
-29
-11
0
18
28
26
9
-8
-33
-36
-18
-7
19
27
31
33
12
-7
-4
-14
2
22
48
49
76
77
67
74
64
35
50
59
64
63
84
58
41
8
-3
-43
-35
-14
8
17
30
21
5
-13
-21
-47
-14
-7
8
21
40
25
16
-10
1
-21
-24
-6
8
22
37
26
14
-15
-16
-24
-19
-19
23
20
37
28
19
-9
-11
-10
-12
4
2
21
43
35
5
-11
-12
-21
-5
9
19
32
42
30
9
-6
-17
-19
-9
-1
21
33
39
22
13
-2
-8
-16
-1
19
29
39
34
29
18
6
-6
-13
-1
19
37
64
61
35
18
5
-9
2
12
37
49
62
58
46
38
6
16
15
37
50
50
75
58
55
39
22
14
19
31
43
64
85
70
56
39
25
13
32
30
41
54
59
49
39
24
8
-8
3
17
26
30
41
46
30
9
-9
-24
-17
-12
20
21
30
28
9
-6
-14
-19
-21
-8
27
18
35
31
21
6
-20
-31
-11
-8
13
16
38
20
3
-16
-14
-31
-14
7
26
27
35
18
9
-15
-15
-25
-24
-7
8
21
37
22
12
-1
-35
-30
-16
8
28
37
41
19
0
-11
-19
-12
-10
5
14
26
38
19
7
-6
-15
-22
-21
19
26
32
28
21
3
-9
-21
-23
-10
-2
28
28
35
25
9
-10
-26
-27
-16
6
18
25
25
17
-1
-8
-24
-33
-5
23
30
56
46
21
-6
6
-12
-14
-2
19
32
52
47
29
1
-6
-13
-21
-13
14
38
39
22
5
-8
-7
-27
-32
-9
6
5
30
36
16
-11
-18
-41
-4
-19
5
24
39
32
14
-6
-25
-33
-19
4
11
18
34
30
16
-6
-15
-30
-17
-7
17
20
29
28
7
-18
-17
-29
-26
-3
11
11
35
25
13
-12
-14
-41
-17
4
13
20
45
27
13
-14
-17
-10
10
11
39
65
70
78
72
62
61
52
53
49
58
60
89
65
27
5
-13
-27
-21
-4
11
11
28
18
9
-9
-28
-21
-14
13
27
24
38
29
2
-22
-29
-20
-17
3
23
20
32
26
5
-5
-17
-18
-11
-3
15
39
30
13
8
-16
-19
-16
-4
12
18
31
37
25
1
4
-14
-9
-11
10
21
33
38
22
4
-18
-28
-19
6
19
29
41
36
25
8
-2
-22
-15
9
21
37
47
38
24
15
-4
-27
-23
-1
39
46
47
40
37
25
20
5
7
22
39
49
61
51
42
36
27
2
8
28
50
58
69
61
49
25
18
10
18
26
53
63
72
62
45
38
25
2
16
35
46
51
70
56
35
10
7
-13
9
4
48
24
32
34
15
2
-7
-18
-13
-5
14
38
44
34
7
-21
-21
-24
-7
-4
17
25
35
19
6
-17
-20
-23
-23
9
21
24
39
5
5
-9
-30
-29
-20
9
31
17
33
16
-1
-12
-26
-33
-10
5
13
32
32
12
2
-12
-7
-8
-2
0
18
35
36
15
12
-16
-29
-16
4
7
33
39
30
19
-10
-17
-26
-26
-10
13
31
31
43
23
-4
-20
-38
-26
-10
4
19
44
32
18
0
-4
-20
-26
-14
7
11
39
36
30
0
-12
-26
-19
2
20
26
45
20
11
-14
-9
-21
-23
-1
21
32
44
14
7
-11
-8
-13
-18
-6
24
29
43
38
25
7
-4
-18
-27
-12
20
25
30
21
8
-5
-8
-30
-21
-5
23
23
21
27
6
-20
-23
-40
-25
-18
14
17
44
21
-2
-8
-23
-42
-21
-8
18
23
14
25
-3
1
-7
-27
-27
6
9
13
38
14
-3
-10
-25
-32
-19
-1
17
37
25
22
-11
-23
-16
-27
-10
6
29
17
28
11
-7
-15
-9
-10
11
24
51
70
79
72
56
55
56
46
36
57
73
84
66
51
20
8
-29
-21
-23
-2
1
23
27
12
5
-26
-22
-14
1
14
17
46
27
17
2
-19
-35
-19
-8
15
17
36
28
16
2
-15
-30
-9
9
23
21
44
33
14
-1
-16
-27
-12
-5
14
22
38
32
6
-3
-3
-25
-17
-2
18
19
58
34
28
-1
-16
-17
4
11
21
27
41
35
14
-4
-2
-23
-16
17
29
36
49
37
16
8
6
-5
3
19
46
52
53
32
12
15
22
-9
9
24
42
55
65
55
55
29
21
16
24
52
61
68
73
66
52
25
22
17
32
44
64
69
67
58
41
34
19
13
27
35
63
62
64
60
25
11
2
5
10
39
30
39
43
42
21
5
-12
-18
0
21
29
27
33
18
1
-12
-20
-15
5
15
30
40
29
18
-4
-7
-23
-25
-18
5
23
38
31
17
-7
-20
-28
-13
-6
8
22
43
35
17
-19
-18
-22
-12
2
12
19
50
34
28
-12
-13
-26
-16
2
21
29
45
33
13
-4
-9
-22
-12
-1
15
33
40
37
19
-6
-9
-37
-9
3
27
24
32
15
16
-10
-8
-27
-10
16
16
37
35
27
15
0
-8
-33
-23
-10
13
30
49
17
3
-18
-6
-25
-4
6
21
31
46
34
19
-4
-9
-28
-17
9
29
38
40
31
3
-10
-11
-17
-5
14
31
41
53
29
16
5
-11
-31
-30
-3
25
26
36
21
23
-5
-16
-26
-16
-11
7
40
30
28
10
5
-10
-13
-11
9
15
32
33
20
-6
-6
-30
-27
-10
7
23
31
29
18
0
-17
-30
-19
2
7
29
29
31
21
4
-9
-29
-21
-18
17
24
36
34
26
-3
-5
-29
-21
-2
22
28
41
21
28
4
-5
-21
4
18
50
49
73
69
52
43
42
37
48
66
52
75
88
59
54
17
0
-8
-32
-26
3
18
32
21
20
-10
-12
-21
-25
5
25
26
32
42
19
-6
-5
-20
-23
10
22
28
44
37
14
-7
0
-10
-9
15
29
22
48
25
19
-6
-5
-28
4
31
22
33
32
27
25
0
-10
-16
0
8
18
45
52
46
26
2
-4
-15
-5
18
42
45
42
38
25
10
-2
8
3
15
41
36
46
42
23
7
2
4
11
37
49
57
63
57
31
17
7
11
21
42
49
73
79
54
31
23
14
26
47
58
64
69
76
60
50
28
16
34
42
58
73
81
80
62
40
29
14
36
36
50
65
75
76
60
26
15
5
14
15
39
46
58
51
39
20
-3
-20
-19
14
24
28
44
29
39
22
3
-13
-4
1
28
29
43
41
15
1
1
-26
-17
3
12
23
50
43
21
0
-10
-25
-9
9
14
26
41
21
18
5
2
-10
-9
8
14
22
32
24
11
-9
-1
-9
-4
19
34
31
39
51
20
-6
-7
-17
-17
16
32
50
50
33
8
-1
1
-21
-10
20
49
42
47
32
24
4
-11
-20
-7
8
25
34
42
36
23
3
-5
-16
3
28
37
48
47
41
19
8
-14
-6
11
24
41
43
50
43
24
14
1
1
-2
6
21
44
34
33
24
-7
-18
-17
-3
7
19
36
25
17
6
-13
-25
-10
0
24
31
46
44
23
-4
-4
-28
-21
3
32
34
38
39
26
-1
-8
-29
-9
-10
10
15
43
32
16
2
-4
-26
-13
-8
20
28
39
40
12
-3
-2
-14
-11
-1
19
22
42
20
26
0
-2
-17
-1
22
43
47
68
49
51
29
37
19
16
63
73
69
64
60
50
33
32
-2
-12
-14
-1
11
23
29
6
-5
-15
-26
-14
11
24
36
43
32
17
-9
-2
-23
-8
19
19
29
39
36
19
3
-14
-25
-13
3
35
39
31
43
16
-8
-3
-18
-11
16
29
31
46
48
17
-11
-6
-16
-2
34
25
42
60
39
6
-3
-10
-4
7
33
38
52
43
34
17
0
-6
-5
3
33
44
45
56
41
15
4
-9
9
27
45
33
63
44
38
24
10
-18
15
37
58
64
78
73
45
33
25
13
12
51
67
62
71
90
67
44
32
17
34
42
70
67
93
77
64
37
28
25
32
52
74
64
78
67
45
33
30
4
14
33
47
44
57
29
31
16
11
-11
5
12
30
32
34
43
22
5
-2
-23
0
11
11
37
46
41
11
-8
1
-19
-8
-2
25
27
26
44
20
-6
-10
-11
-20
-2
26
49
49
17
7
0
-13
-17
-7
6
16
32
35
23
8
0
-1
-10
-3
19
31
44
55
39
15
-13
-23
-18
-8
28
35
38
39
20
9
4
-9
-11
8
9
12
42
32
11
-18
-24
-44
-56
-51
-36
-38
-34
-56
-57
-70
-71
-82
-61
-36
-30
-9
11
-7
-12
-18
-38
-55
-41
-23
-14
10
22
25
7
-9
-21
-34
-37
-14
-7
1
26
10
-4
-22
-41
-55
-36
-10
-2
-7
29
11
-5
-7
-24
-54
-48
-18
-11
-15
12
-3
-9
-24
-41
-41
-32
-30
-8
0
11
23
-6
-29
-37
-46
-31
-19
-12
0
26
14
-12
-29
-25
-36
-48
-11
21
22
23
17
-19
-32
-27
-33
-26
-3
17
13
16
15
-5
-35
-17
-7
-10
13
33
52
61
51
37
35
43
46
41
49
66
67
73
53
23
2
-15
-45
-30
-10
12
9
23
11
10
-7
-30
-22
-15
1
4
29
25
19
2
-16
-21
-39
-17
-5
30
31
42
22
0
-10
-16
-15
-12
18
34
38
34
19
-10
-19
-21
-23
-6
3
25
32
36
14
8
-2
-35
-10
-14
13
42
49
47
12
-6
-3
-16
-28
-5
24
33
43
37
27
12
6
-16
-7
17
31
32
49
51
28
15
10
-10
-2
6
38
39
66
47
43
10
12
3
10
24
54
52
64
62
49
35
19
12
28
49
59
62
79
80
44
40
29
20
38
46
51
63
78
71
54
28
16
10
32
43
57
68
72
42
42
28
19
-3
14
23
43
50
54
48
29
2
-19
-12
-1
9
37
34
48
42
9
-2
-6
-11
-7
8
33
34
37
23
12
0
-13
-32
-8
7
19
44
49
22
-6
-10
-20
-11
-17
9
27
30
34
20
11
9
-15
-15
0
25
35
40
32
23
13
2
-11
-15
-1
15
24
39
37
25
24
2
-21
-16
1
20
33
47
47
28
19
-3
-14
-11
-4
21
31
41
39
27
7
-5
-40
-11
9
27
40
52
41
30
8
7
-20
10
18
25
31
52
35
33
16
6
-15
-1
24
23
38
54
38
40
13
-4
-27
-13
8
28
44
55
42
10
-5
-5
-22
-6
7
17
23
37
27
23
16
-11
-32
-20
7
24
28
43
12
19
3
-9
-20
-12
0
14
30
33
29
15
-2
-6
-28
-21
9
32
34
32
24
9
-8
-13
-15
-14
10
13
27
48
28
17
-6
-11
-9
-1
6
25
41
46
18
3
-8
-19
-17
-5
21
58
74
85
73
54
41
66
62
78
70
80
81
82
75
42
17
-2
-8
-1
10
29
36
39
12
-5
-24
-19
-5
-5
0
35
37
27
25
7
0
-30
-21
9
28
33
36
43
28
10
-8
-27
-15
0
25
30
46
45
25
17
3
-20
-4
4
22
41
51
31
20
-2
-10
-22
-18
3
25
34
36
43
15
9
0
-20
2
16
24
48
57
37
32
4
6
-1
9
19
29
50
55
48
31
8
0
-8
4
22
57
47
54
55
38
19
18
2
-4
24
46
69
70
67
32
43
40
20
23
44
66
77
72
55
54
37
28
27
32
55
64
80
86
77
53
39
34
29
37
43
62
62
63
90
34
11
-4
-3
7
32
43
56
44
40
16
7
-10
-8
-1
24
31
43
47
23
10
-11
-9
-11
-7
18
23
49
40
16
5
4
-20
-10
5
24
20
39
28
27
13
0
-22
-10
6
24
22
40
33
26
-13
-12
-20
-7
5
20
17
44
51
27
-4
-6
-38
-16
15
12
23
43
35
24
-6
0
-18
-5
11
22
32
45
41
25
6
-8
-28
-10
5
24
38
45
27
14
-6
0
-23
2
7
16
24
35
31
12
2
0
-12
-18
9
30
34
44
30
29
-3
-10
-16
5
20
34
26
38
34
14
0
-13
-6
1
19
30
42
50
35
15
5
-16
-18
-13
10
24
21
49
31
17
-5
-27
-11
-7
-4
26
38
28
20
10
-12
-32
-13
-1
-1
11
25
37
30
5
-8
-14
-19
-6
-3
22
30
36
23
9
-4
-27
-25
-13
11
22
31
32
19
1
-1
-28
-29
-7
8
27
32
33
21
-7
4
-11
-13
-21
16
20
39
37
28
2
-8
-13
-4
32
57
76
86
86
89
77
70
42
41
48
64
70
79
54
31
11
-23
-30
-13
-5
12
20
38
19
6
-4
-15
-18
-13
0
26
22
44
26
9
-3
-23
-30
-3
-4
27
39
36
30
6
-7
-3
-19
-8
10
20
23
38
34
17
12
8
-17
-24
4
21
38
39
26
11
-1
-8
-20
-19
9
31
27
46
38
11
6
1
-8
-7
7
21
38
50
35
20
-1
-11
-15
-16
19
38
46
46
22
8
2
7
2
12
26
38
65
54
52
32
13
1
6
14
36
45
58
60
55
32
17
9
11
16
47
62
70
78
61
40
31
37
10
31
43
60
66
64
41
23
29
8
11
25
43
58
70
71
41
-11
6
-3
2
11
22
28
46
42
35
9
-9
-18
-12
-11
15
16
35
33
25
0
-19
-28
-14
-1
19
7
31
12
-1
-2
-13
-28
-18
0
7
19
37
5
-8
-7
-10
-28
-29
2
8
19
41
37
4
-10
-16
-33
-20
-2
19
23
34
13
10
4
-2
-29
-9
3
18
10
33
16
10
-15
-13
-24
-16
-3
22
34
14
16
6
-22
-12
-24
-16
-3
23
28
43
21
10
-9
-17
-36
-18
9
24
26
32
19
4
-3
-5
-8
-13
2
24
28
39
27
7
-3
-16
-27
-4
14
23
41
38
38
18
-4
-10
-15
-13
17
20
31
28
28
5
-7
-22
-42
-8
3
22
23
14
16
0
-24
-18
-14
-5
3
19
53
39
5
-1
-9
-27
-27
-16
17
26
33
20
4
-11
-10
-23
-16
-7
16
26
42
43
42
-6
-27
-15
-7
16
15
19
33
34
23
-12
-28
-37
-22
-1
28
31
41
25
12
3
5
-14
-7
10
43
63
79
55
51
40
36
23
38
45
42
60
67
49
26
7
3
-36
-33
-27
-6
16
26
31
6
-1
-20
-26
-20
7
20
23
41
36
7
10
-14
-21
-9
14
30
34
49
33
19
-10
-23
-35
-12
17
24
32
39
36
18
-2
-6
-14
-6
11
9
47
47
31
3
-3
-6
-6
-5
15
30
45
47
21
1
-9
-27
-12
-4
23
39
46
52
27
19
5
-4
-13
9
25
30
47
48
44
20
15
-6
-16
8
20
25
55
59
39
24
1
-3
13
23
39
44
68
53
47
34
8
-3
-17
7
31
39
64
59
40
27
21
3
29
43
45
47
72
63
46
27
24
5
26
32
52
55
50
55
26
3
18
-14
-11
17
41
28
52
53
26
-1
1
-22
-17
3
19
17
29
35
18
-10
-3
-41
-23
2
25
16
36
22
16
6
-12
-38
-34
4
19
14
42
28
11
-21
-18
-27
-22
7
18
27
36
13
4
-22
-19
-18
-19
-4
-3
23
46
32
4
-11
-26
-27
-23
-3
19
37
36
22
7
-18
-31
-22
-4
5
29
36
49
26
9
-10
-2
-12
-7
11
26
45
36
19
21
15
-13
-12
-16
3
34
38
49
24
22
12
-6
4
11
19
29
37
38
7
-3
-6
-28
-23
-6
11
18
45
42
35
13
-22
-29
-26
-19
6
1
16
2
-16
-40
-43
-59
-67
-47
-21
-14
-20
-28
-55
-81
-89
-98
-117
-100
-92
-75
-73
-91
-115
-154
-177
-209
-223
-209
-176
-152
-138
-130
-133
-153
-138
-146
-142
-123
-76
-72
-82
-87
-100
-118
-97
-109
-78
-81
-65
-57
-36
-42
-60
-57
-58
-66
-58
-38
-16
-12
19
15
-13
-10
-26
-45
-27
-23
-7
-2
6
-16
-43
-65
-62
-90
-71
-48
-34
-29
10
-34
-30
-47
-53
-56
-52
-17
-27
-5
18
4
-27
-32
-49
-67
-33
-19
-12
-3
6
3
-11
-36
-47
-39
-23
-16
-6
26
30
9
-17
-26
-58
-32
-27
-6
-9
21
23
3
-12
-29
-52
-38
-18
-3
15
24
26
4
-11
-15
-24
-30
-10
8
20
44
42
13
9
-9
-36
-19
-4
19
23
37
41
22
4
-1
-19
-4
-9
25
36
50
40
32
12
0
-5
13
30
38
45
58
61
46
35
26
5
12
26
47
58
76
68
55
32
23
5
16
33
56
63
69
57
37
21
10
-4
10
30
29
49
46
51
32
4
-2
-18
2
6
27
27
40
40
23
-5
11
-32
-13
11
29
23
35
12
14
2
-30
-29
-8
6
27
25
31
13
6
-11
-17
-31
-18
-4
16
28
36
19
8
-7
-25
-32
-16
12
17
39
39
22
-1
-3
-16
-22
-2
-7
20
34
47
25
18
-5
-30
-21
-10
17
32
35
39
27
7
-3
-23
-16
-6
16
26
43
46
27
9
-3
-21
-4
4
27
40
45
37
27
12
-1
-15
-7
-5
12
29
68
51
32
7
14
-14
2
8
26
24
48
34
23
-6
-8
-28
-11
-6
25
23
43
24
20
-19
1
-31
-8
4
14
36
51
35
13
-2
-20
-39
-17
-3
11
27
40
31
24
4
-6
-13
-12
-1
29
28
41
26
8
-7
4
-27
-5
0
27
33
37
29
9
-9
-12
-15
-18
8
21
25
33
30
19
8
3
6
4
23
59
69
74
70
60
58
58
42
41
53
74
80
87
69
37
14
-3
-22
-6
13
28
35
27
16
-2
-9
-24
-38
-2
14
9
39
37
26
6
5
-11
-25
-5
-2
17
43
41
33
16
-5
-26
-11
13
26
30
44
39
26
2
6
-18
-19
-7
19
33
51
38
32
5
-13
-16
-12
0
8
25
36
41
32
9
-9
-29
-12
31
15
37
60
43
20
4
-18
-23
-1
10
29
45
54
36
32
18
9
-8
-1
19
38
50
59
37
37
13
17
-5
12
23
39
53
71
56
43
26
22
-2
9
27
52
54
84
74
57
49
20
19
23
56
59
66
61
66
38
28
9
12
18
45
45
53
70
55
37
19
12
-3
5
26
41
51
54
35
11
-1
-5
-6
8
24
23
32
47
39
24
15
1
-5
-6
15
21
41
53
35
12
-2
-5
-18
7
0
25
52
50
41
25
4
-6
-15
-3
17
26
45
53
28
7
-6
-12
-13
2
22
42
50
48
30
22
0
-16
-4
14
25
39
50
46
30
23
5
-9
-4
10
31
42
53
61
57
29
7
-8
2
17
36
48
63
61
46
41
21
11
15
27
53
46
64
54
32
13
13
-8
-6
10
28
34
62
44
29
7
5
-9
0
24
37
41
43
55
30
1
5
-15
15
30
46
48
59
42
24
7
8
-11
5
28
40
44
60
61
38
11
4
-7
7
23
36
52
48
42
23
10
9
-3
-1
21
38
54
68
26
30
18
7
7
10
43
51
66
82
68
54
48
55
57
68
87
106
130
121
114
84
59
46
43
43
52
44
53
54
36
12
3
-4
-1
7
29
39
58
65
56
35
27
8
7
15
44
46
64
67
40
30
19
12
4
24
38
39
54
71
45
17
18
3
-4
24
46
76
75
58
35
33
22
-2
11
23
39
54
66
65
41
31
23
8
16
32
51
69
80
71
44
48
49
12
18
17
47
57
67
76
60
30
30
21
26
43
61
70
80
67
52
48
31
28
30
54
78
79
95
86
70
53
53
30
46
66
74
91
108
105
85
72
65
33
50
70
92
103
108
98
91
61
49
34
62
69
82
90
95
93
73
52
31
26
40
53
69
66
70
75
45
29
27
11
36
46
63
67
77
71
37
16
15
6
34
46
57
79
60
49
34
15
13
4
20
28
44
61
69
47
20
20
10
14
23
47
50
74
64
48
35
26
0
22
40
48
54
63
77
62
29
26
12
13
27
42
48
68
69
62
30
20
19
22
27
42
55
74
64
62
35
29
10
27
46
68
68
88
73
71
45
31
16
11
61
68
72
87
78
78
48
44
21
33
36
62
64
88
70
50
37
29
13
29
33
48
61
81
65
46
29
36
24
21
46
61
55
74
73
56
34
23
6
21
33
50
54
73
61
55
30
21
38
23
34
57
63
62
55
49
29
27
21
36
31
49
55
69
61
47
34
27
19
38
38
70
55
69
62
53
27
21
18
25
41
60
86
71
81
75
73
61
63
74
118
136
159
152
127
112
86
63
58
69
78
82
85
73
61
61
39
13
26
36
57
69
87
72
62
49
34
