153
145
123
121
109
99
100
118
135
143
151
133
124
113
108
103
98
109
129
144
159
142
125
111
105
103
104
117
138
144
156
145
126
120
103
98
109
122
137
149
155
141
127
105
96
98
109
140
141
156
153
136
126
118
108
106
107
136
140
157
150
143
124
114
106
106
120
129
141
152
155
141
131
115
106
111
115
129
129
152
150
141
121
109
94
104
122
136
142
148
146
134
121
122
100
98
113
125
131
139
152
136
127
106
92
98
122
140
141
156
146
133
117
115
100
107
113
129
147
146
139
130
110
101
91
101
115
130
130
145
145
134
119
107
93
100
123
125
142
137
138
123
111
103
98
98
118
135
141
154
142
131
112
108
97
96
121
133
136
143
142
125
105
102
93
107
121
133
144
144
139
134
110
98
92
96
118
127
139
145
140
128
99
94
90
111
117
125
137
139
135
121
117
101
91
98
120
134
155
138
132
119
111
93
96
103
119
135
152
145
133
113
106
91
99
108
126
138
148
143
137
121
118
99
98
107
119
134
152
152
138
123
115
94
101
116
126
141
161
153
138
126
116
97
105
114
136
136
157
145
136
125
109
91
105
118
127
135
151
147
129
119
110
88
91
111
124
127
141
130
116
99
98
95
87
105
122
129
139
127
125
106
90
86
92
107
113
124
139
142
122
105
83
82
80
101
115
113
123
118
102
102
105
124
148
168
209
236
255
254
236
213
174
150
160
165
148
128
110
87
66
57
53
53
62
74
104
115
121
118
98
87
92
89
81
107
117
129
131
123
107
101
86
82
92
119
121
133
130
128
104
101
82
87
100
112
116
135
130
124
102
100
76
82
97
112
130
133
120
118
102
94
75
78
94
107
121
144
134
120
109
103
85
79
96
112
118
134
142
124
109
105
85
95
102
123
130
146
142
127
115
105
92
93
115
138
137
153
150
145
117
110
100
107
118
135
145
155
163
147
133
126
113
116
137
151
157
172
174
154
145
134
125
130
140
170
172
177
178
156
135
127
116
129
139
147
172
171
161
145
135
119
109
102
123
132
133
147
133
124
105
91
88
96
109
126
129
129
125
120
107
93
81
84
108
116
127
135
123
98
96
81
75
88
99
114
128
121
120
102
96
84
84
87
103
107
126
127
113
102
83
79
75
93
108
112
121
124
108
97
85
79
77
88
115
118
127
121
110
100
88
81
83
82
97
104
122
124
109
94
89
70
83
86
109
108
124
120
115
90
90
70
78
89
103
115
124
128
118
94
80
72
77
84
100
107
130
119
110
103
89
75
77
91
112
111
126
127
111
92
88
76
82
91
112
118
135
124
113
88
81
72
79
93
106
121
129
114
108
95
82
71
82
93
104
124
128
123
100
90
77
74
78
91
108
122
132
124
102
86
82
78
93
94
110
122
123
115
105
93
79
76
80
89
109
126
125
119
107
90
79
76
84
96
99
125
120
109
111
90
77
78
90
105
109
125
126
109
87
98
85
78
88
97
105
117
120
107
102
85
72
79
83
106
110
120
121
102
88
91
72
71
80
99
99
126
129
112
94
87
71
78
85
109
114
118
115
112
91
81
70
75
85
102
114
124
121
102
86
85
68
73
88
104
111
129
119
104
79
76
63
74
85
99
103
127
119
103
89
83
65
70
93
106
107
120
113
97
91
76
65
74
89
101
112
121
112
103
83
83
63
71
84
98
116
120
111
98
82
67
63
74
93
108
113
123
117
94
83
63
70
76
84
98
116
124
113
98
76
68
67
79
95
103
119
120
112
90
80
72
67
84
107
118
122
122
116
104
97
84
79
86
99
117
127
128
116
88
79
75
87
89
101
113
129
117
109
91
83
67
66
78
91
102
120
116
101
85
80
63
61
80
94
99
109
107
100
86
84
56
69
73
93
106
118
112
98
78
73
60
69
80
85
91
111
98
79
62
64
45
56
82
112
140
172
183
191
197
197
183
180
182
169
164
170
133
101
77
47
26
21
44
55
73
86
85
77
61
60
46
52
75
92
99
120
104
90
82
72
65
71
79
100
108
121
110
95
70
62
58
67
81
96
113
114
110
92
80
73
66
71
92
105
110
114
112
97
79
63
63
68
96
105
113
120
118
94
83
64
69
83
94
103
114
133
130
93
86
63
72
80
98
112
124
119
114
95
83
71
87
85
96
110
131
123
116
99
93
78
91
92
115
130
144
133
127
111
109
83
92
116
125
129
154
145
137
117
123
99
103
122
143
152
156
154
140
122
106
96
102
118
132
144
154
152
134
122
114
91
86
111
122
119
132
129
122
104
89
73
79
88
99
107
123
110
102
79
81
68
63
78
94
105
109
104
89
72
60
53
63
77
93
109
111
104
93
74
61
60
53
72
94
97
105
100
87
72
69
58
63
76
85
97
105
93
89
77
62
56
71
82
89
102
106
95
78
62
62
52
58
84
90
106
107
97
75
66
59
62
61
77
88
109
103
97
83
75
62
58
70
79
90
100
115
96
73
65
60
57
69
84
95
109
106
98
79
77
57
57
69
86
92
100
107
102
82
74
56
52
66
90
95
119
109
89
78
65
57
62
76
96
92
108
99
101
81
73
55
57
77
91
97
117
108
84
77
64
50
53
58
89
99
109
99
91
83
72
56
58
65
88
94
98
100
90
72
57
48
55
73
93
95
109
100
84
74
70
50
60
80
85
99
102
96
86
69
58
48
58
71
89
93
102
95
87
69
66
47
59
72
88
99
104
101
80
65
56
54
58
71
93
96
95
103
82
59
65
53
58
70
85
107
105
96
71
64
49
55
61
74
82
97
105
80
70
59
50
59
61
77
86
101
102
90
81
65
47
61
56
79
87
93
96
91
68
64
49
47
57
78
92
101
103
85
72
68
49
51
61
80
87
105
100
90
84
59
42
55
67
80
86
100
90
84
69
59
42
59
65
82
88
100
100
83
65
61
42
55
67
74
88
101
93
78
67
64
55
57
69
85
82
101
94
81
69
62
56
62
65
86
93
103
95
81
67
64
57
61
77
89
108
108
100
88
69
60
57
63
70
89
103
106
105
86
69
63
59
53
79
86
95
98
90
65
64
55
49
48
72
83
93
97
80
78
58
57
47
57
64
80
89
92
85
68
55
51
45
55
66
77
87
100
90
63
49
36
33
37
56
68
77
92
76
66
73
73
94
126
163
190
231
222
199
159
119
109
107
92
83
78
74
47
41
23
21
10
18
26
39
54
82
86
75
56
57
40
48
53
66
78
91
91
81
69
58
48
46
63
76
80
97
90
69
70
57
54
49
67
82
88
115
94
84
67
69
45
53
64
86
92
97
89
81
66
57
58
59
68
85
83
106
96
93
72
57
41
53
65
88
101
104
99
84
81
68
60
60
65
95
100
109
105
97
76
68
65
63
80
96
109
114
112
90
81
71
72
88
97
111
111
127
126
105
90
76
75
94
102
116
128
133
123
115
96
84
92
94
107
124
138
145
126
111
101
90
82
94
114
123
127
128
120
94
85
69
71
80
89
100
109
102
98
73
65
47
52
61
80
79
91
94
77
71
51
34
39
53
72
74
92
89
77
54
54
38
39
55
75
73
91
78
71
59
51
39
41
47
66
75
94
84
69
53
46
27
35
46
66
76
92
86
84
57
49
26
36
48
66
71
81
93
70
53
41
30
40
53
74
85
83
83
72
61
54
41
44
61
75
85
95
87
82
58
57
39
44
66
75
87
93
86
72
61
53
40
46
64
79
86
92
86
72
61
54
42
59
72
78
86
96
91
71
55
41
47
54
64
76
87
99
86
71
50
43
52
54
75
78
90
94
89
77
56
38
37
45
70
80
93
92
79
64
53
43
35
49
68
78
100
92
82
65
52
41
42
58
69
84
99
93
69
66
58
29
42
54
74
82
98
89
74
62
55
38
50
60
71
77
82
84
79
58
50
33
39
62
74
78
92
89
65
54
56
41
52
56
73
85
85
81
75
55
53
36
39
56
76
75
102
85
70
53
54
46
37
57
72
79
85
81
69
62
44
42
44
54
74
91
84
80
61
51
37
34
36
65
76
84
91
79
65
48
43
44
47
67
78
81
90
82
62
51
41
52
52
57
75
81
87
85
64
53
41
30
39
62
72
92
92
75
62
55
39
39
52
75
70
86
90
83
62
54
38
38
54
66
80
93
87
86
67
54
46
49
54
57
79
95
94
88
70
57
41
45
47
64
87
89
92
83
70
62
49
56
71
76
77
92
72
72
64
47
34
43
44
59
79
96
81
61
46
46
30
38
54
60
71
87
82
68
45
38
25
35
49
53
73
83
79
70
42
41
36
35
43
69
53
61
60
56
33
34
38
52
81
120
148
171
193
196
170
146
112
99
109
115
98
98
64
17
-8
-13
-17
-3
14
26
47
42
57
39
25
26
13
21
52
66
73
80
67
67
45
48
24
34
57
74
82
87
80
60
42
37
32
49
63
66
82
78
76
68
50
44
36
44
67
73
82
88
78
63
50
37
42
47
62
75
82
87
74
62
57
37
37
48
73
73
93
90
81
69
64
49
46
61
75
76
97
89
87
68
59
42
50
61
80
75
102
105
87
76
61
57
61
68
97
100
109
105
94
77
78
62
61
78
97
108
136
124
100
93
86
74
72
96
107
110
127
113
106
96
78
67
77
93
108
114
121
110
105
84
66
56
63
72
88
103
111
94
77
63
51
37
40
68
83
83
90
83
64
54
42
32
35
57
72
79
84
73
57
50
32
20
41
44
68
72
79
66
49
37
28
24
35
52
57
73
76
75
50
42
26
35
39
50
57
75
67
65
59
45
33
25
34
59
60
70
80
77
47
41
20
32
37
52
65
74
86
65
51
44
34
38
45
60
72
84
78
61
70
39
22
29
44
62
64
87
77
69
57
47
24
33
54
65
65
85
83
66
49
44
30
31
36
64
70
89
84
77
53
47
35
34
46
63
72
81
75
64
56
56
33
39
49
57
65
80
74
61
49
39
27
31
58
71
70
89
85
61
46
42
22
30
49
59
74
82
71
64
44
44
25
42
40
70
79
79
71
51
38
35
32
39
50
62
83
81
73
55
44
34
32
33
45
67
70
85
75
53
42
28
30
47
50
65
69
79
82
61
41
22
24
36
50
71
66
75
71
61
48
31
34
33
56
60
79
82
73
51
34
23
24
36
52
59
82
74
62
56
38
24
32
42
56
59
85
83
59
43
43
24
26
38
53
67
81
81
62
55
48
30
34
50
70
65
87
87
70
57
46
32
39
51
67
61
93
90
65
64
43
30
36
47
64
77
90
81
67
53
42
31
36
43
62
65
79
83
50
41
31
14
27
36
50
67
83
66
57
48
25
15
24
39
55
68
76
67
38
34
23
18
27
48
61
67
72
45
41
23
18
10
3
31
66
92
112
125
130
127
137
138
140
152
139
139
129
113
74
43
5
-20
-30
-2
1
24
35
23
17
10
1
7
14
43
54
67
62
52
44
33
21
10
27
44
57
73
68
52
48
34
18
27
31
48
57
67
68
62
51
32
23
33
36
56
71
81
74
58
49
41
19
30
42
58
60
79
72
60
39
55
18
23
44
57
64
81
76
61
44
48
19
46
48
56
66
87
85
61
46
44
26
43
52
77
77
95
96
75
61
50
38
51
56
73
80
94
88
84
65
54
48
70
79
84
101
100
105
94
83
70
61
74
77
108
119
124
118
103
82
71
59
65
78
97
114
117
115
94
73
65
57
70
78
90
98
103
90
69
63
41
32
41
66
66
69
77
74
58
48
34
39
28
50
56
71
75
63
54
31
20
27
22
43
51
71
70
61
40
32
19
17
35
49
64
63
68
50
43
33
16
9
30
50
55
67
57
49
36
33
20
20
27
44
55
65
64
53
36
20
10
31
34
44
52
69
67
52
31
34
8
24
37
43
54
76
70
53
41
31
18
16
33
51
59
65
68
56
46
31
29
27
39
51
62
71
65
50
41
33
21
27
35
58
64
77
63
49
33
27
25
23
32
47
58
82
73
53
39
31
26
28
44
51
64
78
66
56
37
22
28
27
41
59
68
67
65
51
38
28
21
31
42
50
57
69
65
47
40
23
13
23
41
61
60
70
58
46
31
24
16
43
44
44
66
61
57
42
32
20
22
26
44
54
64
61
63
44
32
12
21
30
42
51
73
69
59
44
35
14
12
36
38
57
69
59
62
38
34
2
20
34
52
47
70
68
47
34
24
10
24
33
42
48
68
67
45
40
33
1
24
28
49
56
67
65
50
34
29
10
15
31
52
53
74
63
59
32
26
9
6
30
56
57
66
63
51
41
34
19
26
35
54
61
74
66
53
39
30
23
22
37
52
71
79
64
49
37
21
15
20
37
51
52
70
65
40
30
19
13
3
31
45
44
57
56
36
29
17
3
3
24
43
49
59
58
49
21
16
-2
14
21
49
45
57
38
22
15
1
1
0
30
53
64
82
95
98
99
108
125
140
162
159
154
125
123
85
54
19
-8
-24
-16
-7
10
14
15
-12
-8
-26
-9
3
25
38
48
47
45
28
29
21
16
18
52
41
64
65
48
34
17
10
11
27
46
41
65
58
53
35
24
8
19
24
39
45
67
61
45
27
27
8
4
37
40
48
66
65
55
39
31
14
20
30
45
50
67
64
58
40
27
15
20
32
51
53
78
66
45
43
41
30
33
39
56
66
84
77
58
47
43
22
44
52
75
86
89
86
73
53
48
41
40
66
87
91
101
93
84
62
54
43
51
76
95
105
105
101
89
78
65
60
75
74
86
106
107
100
89
70
55
49
60
70
86
91
101
88
73
53
37
36
39
45
77
67
69
66
37
26
10
18
27
51
33
75
65
37
36
19
8
9
25
36
45
64
57
41
35
28
5
3
24
33
44
55
55
37
22
33
17
13
20
39
49
60
53
35
37
21
5
7
28
40
40
53
54
46
23
18
3
12
25
39
52
58
48
38
25
26
5
16
22
49
45
61
61
39
31
29
-2
11
28
46
50
74
60
48
32
15
9
13
27
55
58
68
64
41
30
21
6
25
29
49
54
70
65
41
15
24
17
23
40
43
63
58
56
34
18
12
14
22
32
48
63
67
56
30
21
21
14
19
37
44
59
65
45
44
33
7
9
5
29
40
59
54
49
36
30
-1
2
18
39
42
52
57
51
38
32
13
11
10
37
41
56
55
52
38
30
0
9
28
44
51
63
56
52
26
29
13
18
29
42
45
63
64
55
43
32
12
27
29
43
53
72
62
57
37
28
14
17
23
39
48
57
48
51
28
28
4
15
23
34
38
59
42
26
8
14
-2
11
20
35
40
48
43
31
21
18
2
6
18
38
44
49
38
31
11
-2
-18
-10
8
24
27
41
58
72
74
70
87
110
138
169
178
172
141
110
84
62
26
8
-8
-28
-17
-4
-4
-15
-16
-33
-27
-18
-3
16
41
45
33
18
14
10
6
13
20
30
45
50
47
24
10
9
5
17
24
47
45
47
42
20
23
4
5
12
34
44
55
62
51
31
11
5
1
16
33
48
54
54
49
34
21
9
14
35
35
47
63
73
35
26
20
5
22
29
34
46
62
56
47
41
34
11
18
33
53
63
81
60
51
45
42
26
39
39
62
64
95
70
65
41
51
38
42
58
76
75
84
86
71
68
60
45
49
71
91
102
112
106
94
76
64
45
57
78
87
107
103
104
80
67
59
45
49
65
73
87
90
83
72
47
27
19
27
45
59
70
70
63
46
24
16
12
16
37
43
45
55
52
41
24
11
-2
7
19
50
44
54
36
27
20
4
0
15
29
41
51
54
42
21
16
5
-5
15
33
40
46
53
34
24
9
-1
7
7
26
41
45
46
37
18
13
2
6
12
29
34
54
47
42
32
21
-1
10
11
38
35
57
44
62
24
19
0
15
17
32
41
58
51
42
41
28
12
0
14
39
39
60
54
44
35
14
4
3
20
41
41
63
65
42
25
14
-2
13
26
43
43
50
48
37
30
22
3
18
25
42
46
60
52
32
34
22
4
12
33
41
40
53
49
42
20
25
2
8
27
37
47
68
47
31
14
5
8
12
20
37
48
52
52
36
12
13
9
10
32
34
60
56
59
34
18
21
0
10
22
49
45
56
51
28
19
15
11
16
28
38
57
64
55
36
26
8
20
18
35
40
59
79
47
37
20
8
9
20
31
35
52
60
45
32
14
-7
-4
20
33
33
42
42
32
25
11
-3
4
7
21
28
46
42
31
16
7
-10
-9
3
26
26
47
49
30
15
0
-8
-14
-6
11
20
44
31
17
10
15
11
36
72
104
128
167
181
163
149
109
68
53
75
59
37
40
12
-18
-27
-32
-44
-44
-26
-6
6
20
28
13
2
4
-18
-6
9
23
38
50
39
29
12
12
5
3
16
30
33
39
55
37
10
-4
2
3
13
29
42
61
51
32
20
10
1
-1
27
35
43
57
44
32
21
5
0
12
33
32
53
55
51
38
13
8
7
18
30
34
53
62
46
31
10
4
5
8
28
60
55
73
54
21
22
14
6
28
38
51
72
69
55
50
39
24
29
39
50
62
79
84
73
50
50
34
38
50
69
74
96
91
76
70
63
39
41
57
65
77
90
95
76
64
55
43
40
47
70
76
87
75
58
51
40
22
19
30
49
66
73
62
55
29
14
2
8
16
37
38
44
42
34
7
-4
-6
-9
2
15
26
46
42
18
11
3
-5
-10
2
21
21
40
44
21
15
1
-15
-9
6
19
40
37
36
23
6
-7
-13
-15
16
31
28
39
36
7
2
-6
-15
-6
2
24
26
36
26
15
-3
-6
-22
-4
13
22
35
44
22
14
-1
-8
-11
1
16
20
33
44
38
24
0
-10
-6
-2
9
22
43
35
21
10
9
-5
-1
8
22
19
35
45
42
13
2
-20
0
13
27
24
37
39
30
14
3
-11
-6
4
18
28
41
40
30
16
1
-25
-14
6
18
32
44
31
27
11
1
-10
-8
0
23
27
43
42
20
8
0
-16
-11
2
17
35
43
47
23
8
-2
-17
-10
-5
12
27
33
38
16
7
-2
-20
-11
9
16
29
49
42
24
9
-4
-8
-7
5
17
29
37
45
23
3
4
-9
-1
11
24
50
44
39
24
10
1
-2
-1
18
30
41
55
41
30
13
1
-6
3
9
21
28
42
29
16
10
4
1
-3
9
22
33
38
31
4
9
4
-21
-9
5
20
34
28
34
6
-7
-12
-21
-10
14
19
39
35
19
7
-9
-16
-20
-19
16
16
33
35
7
-3
-11
-43
-24
-7
18
36
70
77
89
97
111
107
123
122
115
92
103
102
62
14
-8
-44
-70
-56
-41
-28
0
3
-21
-26
-28
-37
-29
-20
7
27
40
40
20
-1
-9
-21
-13
-6
30
26
45
43
26
2
-1
-8
-3
7
27
35
43
34
36
7
8
-6
-11
4
22
23
43
45
30
21
11
-12
-5
13
30
40
47
51
35
14
1
0
4
11
30
38
53
36
28
14
6
5
12
19
35
51
54
42
23
14
10
6
6
25
57
57
54
48
34
26
11
15
22
46
49
69
72
59
43
26
26
26
35
52
68
82
78
72
54
47
40
39
36
63
75
89
93
70
59
51
38
26
56
71
72
86
77
80
66
50
16
14
40
51
50
66
64
47
34
19
9
2
11
27
30
47
49
29
15
9
-14
-4
6
19
21
43
44
23
6
15
-26
-8
-5
23
27
40
36
24
10
1
-19
-12
1
15
26
37
16
11
2
-3
-14
-15
1
21
17
42
39
18
2
-1
-13
-16
4
11
19
32
30
18
-1
-9
-15
-11
5
17
35
34
29
11
6
-16
-18
-8
4
9
22
27
24
13
0
-6
-24
-14
3
18
40
37
43
26
-2
-5
0
-6
14
20
34
26
30
17
5
-17
-11
-7
4
29
32
42
33
14
6
-8
-13
-2
16
16
33
33
24
14
-5
-11
-6
-4
8
29
44
37
22
17
4
-14
-10
2
22
18
40
34
16
6
6
-3
-19
-8
6
15
36
30
20
12
2
-15
-11
1
24
24
34
33
12
0
-4
-27
-7
4
8
22
29
35
27
9
-6
-25
-8
-3
18
24
44
22
10
-2
-7
-26
-9
7
18
21
32
34
22
6
9
-9
-17
9
20
40
45
25
32
8
1
-22
-10
3
25
42
46
38
25
7
-5
-13
0
12
33
33
37
21
15
2
-8
-20
-5
-2
4
21
18
29
16
0
-12
-13
-17
1
16
19
24
28
6
-16
-26
-23
-22
-2
11
23
32
21
2
-8
-19
-21
-22
11
12
18
17
8
-14
-29
-37
-38
-26
4
24
50
73
86
86
96
99
108
119
113
103
105
84
68
28
1
-54
-64
-57
-45
-27
-12
-19
-17
-36
-26
-39
-38
-23
-1
9
27
20
16
6
-4
-25
-17
-10
7
17
35
35
20
2
-5
-29
-13
-6
4
10
26
25
12
2
-2
-20
-18
7
15
18
37
34
12
-2
-9
-21
-3
-5
15
20
37
28
31
9
-3
-12
-10
10
28
25
39
36
21
5
-4
-20
-4
12
26
33
42
46
22
9
3
-12
-5
14
28
33
40
36
33
9
12
-8
3
21
40
49
53
53
37
17
5
11
31
34
46
57
74
70
53
31
24
24
30
46
55
80
76
55
53
41
30
24
33
52
49
68
75
64
37
22
18
11
13
30
35
52
47
32
24
17
-4
-2
4
14
26
39
33
24
5
-7
-25
-24
-4
3
-5
34
42
9
-3
-11
-24
-30
-15
7
16
35
18
-1
-7
-23
-32
-22
-23
10
8
34
21
15
-12
-10
-31
-18
-20
14
16
24
20
4
0
-17
-34
-32
-8
11
7
28
12
13
-6
-19
-34
-37
-10
-1
13
37
15
-6
-1
-21
-35
-21
-10
6
8
23
21
13
-10
-19
-36
-17
-13
3
8
24
29
10
-8
-20
-29
-26
-8
10
13
30
27
-6
-12
-14
-22
-18
-5
11
15
20
14
1
-8
-22
-23
-29
0
16
20
24
16
6
-11
-18
-21
-15
-12
11
21
35
14
-3
-9
-18
-20
-21
-4
11
17
22
19
-2
-14
-24
-27
-12
4
9
23
23
24
1
-19
-30
-21
-13
0
12
38
36
7
-15
-11
-31
-31
-14
-7
6
22
26
12
-6
-4
-24
-21
-13
-4
20
25
17
7
-6
-11
-24
-21
-16
2
15
28
23
15
-1
-15
-31
-30
-10
4
16
23
26
-1
-7
-15
-27
-26
-6
7
2
23
14
6
-8
-21
-29
-29
-14
1
16
13
14
2
-16
-14
-29
-18
-13
4
11
17
9
15
-1
-17
-27
-21
-10
7
11
20
29
0
-9
-19
-23
-20
-6
8
21
24
17
7
-6
-20
-27
-15
-10
6
17
28
20
21
3
-15
-18
-18
5
19
14
22
18
10
-11
-17
-20
-21
-8
3
12
26
16
-2
-16
-23
-29
-26
-2
8
7
10
9
-4
-14
-32
-41
-22
-9
-1
17
9
-4
-4
-21
-36
-32
-28
-8
-1
18
24
17
-4
-26
-42
-42
-34
-25
-9
0
-2
-6
-6
-4
5
28
64
94
109
140
124
106
72
40
23
26
0
10
-8
-14
-42
-54
-58
-58
-78
-74
-54
-29
-18
0
5
-10
-23
-32
-52
-35
-14
-13
5
25
22
-8
-13
-25
-29
-32
-15
-2
5
17
15
-7
-8
-20
-38
-24
0
4
14
21
14
-4
-9
-17
-25
-9
-5
5
18
29
22
8
-15
-24
-37
-23
-7
14
19
27
21
0
-8
-13
-28
-26
-13
6
12
33
17
4
-8
-17
-26
-9
9
6
19
23
14
3
-2
-10
-14
-7
1
28
39
40
43
28
13
-1
-5
1
24
36
48
47
45
23
26
14
2
22
46
50
57
63
62
35
30
19
8
24
42
45
70
59
48
40
38
9
8
23
45
46
61
50
42
23
9
-16
-4
10
16
13
38
35
26
2
-4
-28
-23
-11
13
25
27
12
11
-9
-9
-29
-33
-22
0
9
23
14
4
-12
-18
-34
-26
-11
4
3
15
16
3
-16
-15
-24
-22
-17
0
12
18
13
5
-12
-24
-24
-36
-16
2
-1
18
21
-4
-24
-29
-36
-32
-15
-5
10
12
10
-5
-18
-23
-26
-24
-10
-2
10
23
24
8
-30
-31
-43
-28
-8
6
17
17
14
5
-15
-30
-37
-29
-14
-4
18
26
9
9
-22
-24
-29
-21
-7
7
22
18
3
-9
-21
-26
-31
-32
-2
15
17
20
6
-8
-10
-22
-21
-20
-4
0
20
23
12
-1
-14
-40
-26
-21
0
-2
25
12
1
-11
-13
-30
-23
-20
-10
0
16
16
6
-14
-25
-34
-29
-15
0
7
32
11
-2
-17
-20
-34
-27
-11
-4
0
26
15
21
-16
-18
-29
-29
-24
-1
5
22
13
4
-16
-21
-43
-39
-3
7
5
12
23
3
-12
-23
-33
-23
-11
-5
2
21
12
-4
-16
-19
-39
-18
-9
10
4
6
11
-2
-20
-25
-35
-28
-22
-9
9
22
10
-6
-8
-27
-37
-26
-3
15
14
20
15
1
-10
-28
-35
-26
-14
1
15
15
6
-5
-24
-26
-31
-23
-5
5
14
22
3
-4
-13
-24
-31
-22
-5
-1
20
24
12
1
-14
-30
-24
-10
5
4
27
31
18
-2
-17
-27
-23
-14
-1
15
33
34
10
3
-12
-20
-16
-14
8
9
16
20
6
-9
-14
-40
-29
-24
-1
2
20
15
1
-11
-15
-42
-31
-17
-9
-8
13
11
3
-14
-25
-37
-33
-20
-19
2
20
10
7
-14
-19
-44
-37
-18
-12
-14
7
2
-5
-22
-27
-33
-9
21
59
83
117
135
126
109
88
51
35
39
42
22
29
-13
-41
-59
-66
-83
-66
-41
-34
-10
1
-7
-26
-20
-43
-47
-47
-21
7
10
25
6
-4
-19
-30
-30
-35
-13
-1
23
24
14
-5
-21
-27
-28
-30
-9
-4
18
16
10
1
-11
-19
-11
-20
-1
12
16
22
17
-2
-7
-28
-27
-15
11
-3
12
20
12
5
-8
-27
-27
-16
6
14
17
28
17
1
-16
-22
-18
-9
8
24
33
27
24
7
-3
-18
-23
-1
13
22
40
24
19
10
8
-13
-9
3
19
30
46
31
23
16
19
5
1
19
38
41
63
65
49
31
32
11
7
27
43
46
62
61
46
31
27
8
13
19
38
52
74
48
31
18
4
-2
5
3
19
23
40
42
30
7
-16
-21
-27
-10
-2
13
32
19
4
-10
-18
-33
-28
-14
-3
9
26
8
-1
-13
-14
-34
-30
-18
-8
1
10
-3
1
-22
-34
-32
-34
-9
1
10
10
15
-3
-17
-34
-34
-29
-27
1
5
12
7
1
-18
-31
-40
-18
-16
-3
13
8
5
-16
-24
-32
-23
-32
-19
2
10
13
4
-13
-26
-27
-43
-29
-17
2
14
18
1
-8
-17
-32
-28
-17
-15
-5
18
9
1
-15
-12
-33
-34
-23
-13
9
23
18
2
-11
-34
-33
-25
-25
-4
3
14
14
8
-17
-8
-37
-28
-31
1
6
12
16
8
-13
-18
-34
-33
-11
-3
2
22
16
1
-13
-24
-35
-33
-17
3
1
20
18
1
-21
-20
-33
-44
-15
-2
2
23
9
5
-9
-18
-28
-25
-15
-7
-1
10
10
-19
-16
-24
-36
-27
-8
-1
6
17
14
-8
-26
-29
-34
-26
-17
-2
6
15
11
-3
-17
-24
-38
-23
-9
1
2
17
13
-10
-20
-32
-35
-35
-14
-5
0
17
7
-7
-26
-36
-35
-36
-18
-10
7
15
2
-18
-31
-42
-50
-17
-15
4
16
9
4
2
-24
-33
-33
-24
-6
-3
9
15
2
-13
-21
-36
-35
-26
-6
-9
14
16
10
-17
-24
-50
-39
-24
-3
4
19
14
-1
-18
-20
-35
-34
-26
-6
4
16
1
2
-26
-23
-35
-32
-17
2
-1
11
23
6
-8
-22
-33
-21
-17
-2
4
24
16
12
-8
-17
-31
-21
-14
6
18
37
27
6
-16
-16
-26
-25
-13
8
12
31
20
11
0
-9
-23
-26
-10
5
9
19
11
-2
-14
-20
-41
-31
-9
-1
3
16
15
-7
-15
-29
-26
-28
-13
-13
10
7
-1
-10
-22
-34
-39
-30
-12
0
6
9
3
-4
-27
-38
-42
-40
-17
-9
-4
2
-1
-19
-29
-31
-13
9
49
68
103
128
124
114
86
60
32
43
46
16
17
2
-41
-54
-77
-83
-85
-71
-51
-35
8
-1
-20
-22
-29
-41
-37
-24
-6
4
20
6
3
-9
-17
-42
-33
-22
-13
-3
11
16
5
-11
-24
-28
-18
-20
-8
2
23
15
7
-14
-21
-39
-17
-14
3
8
34
20
20
-9
-14
-23
-30
-15
6
17
25
19
17
-6
-13
-31
-20
-6
6
17
32
28
1
-10
-15
-21
-15
-3
7
19
36
33
15
-1
-6
-13
-14
9
17
33
38
29
22
11
-2
-5
-7
8
29
35
42
33
27
13
10
0
12
26
57
54
60
53
52
31
15
14
23
41
45
58
67
57
41
24
20
14
22
33
40
53
66
45
23
21
8
3
8
13
26
39
42
26
5
-12
-9
-22
-13
4
16
21
20
7
0
-14
-24
-18
-17
-8
7
25
17
-3
-25
-12
-32
-32
-21
-7
7
18
14
5
-14
-20
-38
-24
-28
-6
2
14
11
4
-12
-16
-40
-26
-16
-19
2
11
12
7
-6
-11
-36
-33
-22
-2
-1
14
6
4
-19
-24
-35
-27
-23
-13
2
22
2
-6
-17
-23
-42
-35
-20
-1
-2
21
19
4
-11
-25
-28
-35
-14
0
5
20
11
5
-13
-19
-28
-29
-18
-6
12
18
15
1
-13
-20
-28
-24
-20
5
14
23
6
-12
-19
-28
-33
-20
-8
3
19
19
17
2
-22
-28
-32
-26
-14
-2
19
26
23
2
-18
-20
-37
-31
-6
-2
4
9
6
-6
-18
-32
-35
-28
-10
-1
12
9
5
-13
-19
-35
-35
-18
-1
2
18
17
18
-11
-14
-46
-32
-21
-6
6
21
14
7
-5
-21
-41
-31
-14
-6
14
11
17
0
-16
-13
-37
-28
-17
-11
-3
15
17
-3
-27
-26
-33
-25
-21
-4
-1
16
16
1
-7
-22
-39
-32
-13
-6
2
18
12
3
-9
-15
-36
-38
-16
4
3
23
14
2
-14
-33
-50
-30
-14
-14
8
20
14
-4
-19
-21
-34
-29
-13
3
0
13
8
-14
-30
-32
-40
-31
-21
3
0
14
14
-13
-17
-33
-44
-30
-22
1
4
22
8
-8
-20
-31
-38
-14
-15
-4
2
12
5
-13
-23
-31
-38
-31
-17
8
3
10
1
-4
-20
-22
-23
-22
-10
15
14
16
10
-2
-14
-30
-27
-26
-10
1
12
18
10
-2
-6
-25
-25
-19
-14
4
17
18
6
-13
-23
-41
-28
-27
-13
-6
16
9
-3
-25
-30
-52
-41
-20
-8
-1
15
12
-4
-18
-29
-56
-47
-29
-13
-17
14
7
-4
-23
-35
-50
-37
-32
-14
-29
-7
-8
-18
-35
-37
-46
-29
-7
32
61
106
110
113
93
84
55
36
35
56
34
29
6
-34
-67
-81
-97
-93
-68
-42
-36
-22
-25
-34
-43
-44
-42
-41
-30
-14
-2
11
3
-14
-11
-29
-40
-34
-21
-6
5
16
3
-10
-23
-33
-33
-31
-11
1
11
13
3
-14
-17
-19
-40
-31
-20
-6
10
24
7
5
-13
-26
-28
-27
-12
11
16
13
15
3
-11
-19
-30
-29
-7
5
15
25
15
-4
-8
-28
-28
-14
4
6
25
25
26
7
-10
-22
-22
-18
0
15
38
23
28
10
-3
-19
-6
-4
24
30
47
34
29
20
8
-6
-4
7
23
40
53
49
49
35
24
1
-1
14
39
48
67
65
51
25
24
6
13
20
36
48
58
52
39
24
11
-6
-2
10
19
35
49
35
18
7
-4
-38
-30
-7
6
-3
22
19
4
-9
-16
-33
-26
-11
-4
18
16
5
0
-16
-23
-37
-29
-13
0
1
16
5
-6
-16
-28
-26
-28
-16
-7
5
14
2
-2
-21
-40
-48
-32
-13
-1
1
13
10
-8
-25
-31
-36
-37
-17
-6
10
14
4
-5
-5
-24
-35
-28
-15
-1
12
10
11
-7
-13
-27
-35
-28
-10
-1
14
15
17
-10
-15
-30
-39
-29
-5
7
19
18
8
-13
-13
-28
-29
-21
-3
-4
22
22
12
-5
-24
-38
-19
-11
2
6
29
25
7
-8
-21
-31
-23
-10
-1
7
22
20
8
-8
-11
-32
-30
-16
0
-1
14
11
12
-17
-17
-36
-23
-17
6
9
20
26
0
-13
-18
-33
-16
-21
0
6
19
16
-4
-17
-21
-35
-31
-14
7
11
22
21
-5
-21
-22
-39
-27
-14
3
0
26
19
6
-4
-17
-36
-28
-7
4
6
20
12
-7
-13
-22
-32
-33
-6
7
12
26
19
-3
-10
-36
-41
-33
-12
5
9
12
13
-1
-15
-27
-35
-23
-10
6
17
19
12
-7
-17
-24
-28
-22
-9
8
13
14
13
-5
-21
-30
-33
-26
-12
-1
19
26
11
-10
-10
-18
-35
-25
-7
4
16
22
12
-11
-20
-27
-25
-13
6
11
21
18
11
1
-7
-22
-24
-12
13
15
29
27
12
0
1
-20
-21
-15
6
16
37
30
13
-2
5
-24
-13
-4
9
11
27
12
6
-17
-15
-29
-24
-13
2
6
15
18
4
1
-15
-28
-29
-22
-10
0
19
14
12
-12
-18
-32
-26
-18
-6
5
17
9
-12
-13
-17
-39
-30
-28
-12
-6
6
2
-6
-20
-21
-25
2
41
72
91
121
123
119
94
83
47
37
46
45
39
28
-9
-42
-64
-55
-70
-63
-46
-28
-20
-8
-7
-21
-26
-37
-32
-24
-11
4
11
19
18
5
-1
-21
-33
-26
-10
1
23
31
13
-2
-7
-20
-26
-22
0
13
23
22
22
7
-2
-19
-20
-13
-1
22
19
33
15
-3
-13
-18
-15
-10
11
24
35
30
19
6
-7
-20
-15
-8
8
19
35
31
27
6
-5
-19
-16
-7
15
26
42
53
35
12
0
-6
0
2
19
23
43
54
33
18
5
-3
7
14
37
44
49
46
57
33
20
9
14
19
42
58
68
65
55
52
32
25
18
37
44
51
77
71
64
52
43
17
32
32
51
57
77
63
40
27
20
10
18
30
40
39
47
48
27
19
-1
-18
-15
18
22
32
29
31
1
-6
-22
-25
-19
2
19
28
35
17
-1
-3
-15
-15
-24
-7
5
24
44
15
2
-7
-17
-21
-21
-9
6
19
27
19
-2
-9
-15
-22
-17
-6
18
27
19
18
6
-9
-17
-22
-24
0
9
23
19
15
4
-2
-18
-20
-10
0
20
23
21
16
-8
-12
-30
-25
-15
0
14
25
18
13
-2
-10
-19
-8
9
11
14
33
31
9
-1
-12
-24
-13
0
2
13
38
19
14
14
-6
-26
-12
-8
8
20
30
27
-2
1
-3
-19
-14
-9
1
7
29
22
11
5
-3
-22
-17
3
8
16
21
22
19
2
-8
-18
-17
-4
7
16
29
17
5
0
-22
-38
-14
-6
14
23
23
30
0
-4
-20
-28
-30
6
16
27
34
28
17
-7
-21
-31
-25
-2
10
17
30
19
3
-1
-13
-28
-21
-4
9
17
22
24
12
-7
-19
-25
-14
-6
7
14
30
15
4
-5
-17
-15
-8
-2
8
26
20
22
2
-6
-21
-23
-22
6
16
20
16
11
-3
-14
-28
-27
-16
-1
13
21
27
24
2
-8
-24
-23
-7
6
9
15
29
17
-1
-6
-18
-23
-14
6
18
25
21
17
1
1
-27
-23
-17
3
6
30
23
20
8
-7
-24
-12
-13
-1
13
21
16
24
7
-17
-18
-25
-1
8
10
28
17
12
-10
0
-33
-18
-15
4
12
18
25
16
0
-11
-28
-19
-1
14
15
38
23
7
1
-10
-28
-19
-4
20
24
38
28
16
-3
-3
-20
-11
-1
15
29
40
28
16
1
-10
-20
-12
13
13
21
40
35
13
-2
-5
-13
-17
-2
3
19
39
25
20
3
-15
-25
-22
-11
13
12
28
12
5
-6
-21
-31
-16
-5
2
16
20
17
-2
-21
-25
-30
-19
-7
11
16
13
8
-2
-20
-42
-37
-20
-7
3
28
48
51
54
64
57
92
115
126
129
120
98
75
49
29
-13
-28
-56
-53
-40
-16
-22
-15
-34
-40
-63
-43
-30
-3
1
27
19
-3
-3
-12
-27
-23
-15
15
15
29
20
13
-8
-9
-20
-14
-7
7
17
27
30
14
-4
-5
-22
-20
16
20
16
33
35
16
-2
-13
-15
-26
3
21
33
42
37
9
-7
-9
-17
-9
-3
21
27
31
34
22
-2
-9
-15
-9
5
19
26
39
36
19
13
5
-4
-1
11
22
36
47
29
8
5
-10
-4
7
15
36
43
48
48
35
19
14
2
13
25
40
52
70
54
50
36
29
18
29
46
68
62
70
63
54
41
32
19
26
54
57
71
65
61
46
35
15
25
29
40
50
64
62
44
34
18
5
6
19
30
27
50
38
29
7
7
-17
-12
-4
12
21
42
29
30
5
-4
-21
-22
-8
5
2
27
24
14
-2
-2
-15
-24
-4
7
16
26
25
13
0
-9
-25
-24
-8
7
10
24
23
11
4
-17
-25
-21
-10
15
13
37
30
15
-7
6
-28
-20
-12
6
13
23
16
15
3
-19
-30
-14
-2
16
20
28
24
13
-6
-9
-11
-20
-7
9
13
25
29
13
-4
-17
-23
-15
2
11
26
34
27
9
-6
-9
-18
-14
1
21
21
33
12
-1
-9
-6
-15
-8
-5
13
34
27
12
9
-13
-27
-24
-12
5
13
30
26
23
2
-6
-12
-20
-14
-1
11
22
32
14
3
-7
-20
-10
-11
2
5
24
31
15
-2
-17
-16
-21
-15
0
4
26
26
14
8
-10
-34
-25
-15
9
17
30
22
13
-3
-25
-25
-22
-13
6
23
27
26
3
-11
-11
-27
-20
-10
5
8
28
21
11
-4
-9
-24
-23
-14
3
8
37
19
9
-5
-22
-27
-27
-9
4
9
26
18
8
-11
-12
-19
-33
-15
8
10
24
21
4
-19
-23
-30
-22
-9
3
12
17
20
7
-17
-31
-27
-18
-4
11
19
14
21
-1
-17
-29
-26
-30
-3
8
21
24
17
4
-22
-29
-37
-23
-15
7
21
18
5
-12
-20
-32
-26
-19
-7
4
28
20
10
-2
-13
-27
-36
-26
-12
2
17
16
10
-5
-15
-31
-24
-14
-5
11
24
26
7
-2
-12
-29
-41
-16
9
4
25
29
17
-2
-8
-28
-21
-8
8
17
30
27
14
-1
-5
-23
-13
-6
12
14
32
20
17
-6
-12
-24
-26
-13
1
6
8
2
-13
-22
-18
-40
-26
-15
-3
-6
12
2
-4
-18
-18
-39
-40
-16
0
6
21
-2
-14
-21
-29
-35
-38
-20
-8
-3
20
20
9
-11
-19
-45
-45
-32
-12
1
3
-1
-8
-16
-15
1
22
54
85
112
139
131
110
84
50
39
26
26
18
9
-5
-32
-45
-56
-62
-74
-58
-42
-18
-22
0
-1
-12
-25
-32
-29
-14
3
12
13
17
17
6
-8
-22
-25
-16
-5
15
20
19
19
-1
-3
-19
-17
-9
2
14
29
30
13
5
-4
-14
-18
-15
2
20
30
28
25
3
1
-27
-4
-5
16
20
33
28
30
11
-8
-15
-27
-11
10
24
40
33
28
8
-1
-13
-11
11
22
29
41
42
22
2
7
1
3
19
19
36
43
38
37
13
24
-5
15
21
32
41
58
54
37
26
23
9
3
31
44
46
71
70
61
35
31
16
26
42
58
60
75
70
66
35
27
19
36
38
55
51
65
62
43
23
19
6
8
20
27
39
55
46
26
12
-5
-15
-11
-5
10
20
29
29
18
-3
-15
-16
-17
0
7
15
30
21
-2
-13
-15
-29
-20
-1
17
10
14
1
-2
-20
-24
-25
-22
-15
5
14
18
9
-6
-17
-35
-33
-25
-11
3
13
2
-5
-10
-21
-36
-24
-13
-8
15
18
20
8
-4
-17
-32
-30
-21
-5
1
11
15
1
-16
-19
-37
-24
-10
-8
4
20
10
6
-6
-16
-42
-22
-18
-12
11
34
24
10
-12
-16
-29
-23
-15
1
7
22
26
9
-1
-10
-29
-22
-18
-1
3
19
17
11
-9
-19
-29
-26
-27
2
2
16
16
7
-17
-16
-38
-29
-10
7
4
39
26
5
-4
-16
-28
-24
-15
3
15
18
14
4
-13
-29
-31
-17
-16
-6
8
18
9
3
-25
-18
-33
-30
-18
0
16
23
10
0
-9
-16
-21
-22
-5
14
15
28
6
-5
-15
-27
-29
-24
-12
5
19
15
9
-9
-17
-31
-27
-21
1
9
26
10
14
1
-19
-32
-38
-25
-11
10
17
19
8
-9
-22
-31
-30
-15
-5
14
22
16
5
-8
-19
-30
-18
-17
-8
-1
19
22
-1
-8
-8
-33
-33
-17
-9
5
26
17
3
-7
-21
-27
-25
-19
-2
9
15
16
4
-14
-18
-33
-25
-20
-3
-2
22
8
6
-5
-9
-33
-25
-8
3
10
26
11
12
-9
-19
-33
-28
-6
8
16
19
20
12
-5
-8
-28
-29
-12
14
0
33
24
14
-8
-24
-33
-28
-10
1
4
23
-3
-9
-11
-22
-31
-23
-15
-10
-1
16
17
-9
-29
-39
-40
-37
-20
-10
7
17
3
-7
-21
-34
-42
-29
-17
-6
7
13
-3
-18
-32
-40
-43
-36
-27
-7
3
34
40
47
61
47
64
91
108
104
104
79
74
47
1
-21
-39
-59
-62
-51
-32
-30
-34
-50
-67
-68
-64
-36
-30
-11
9
8
7
-13
-22
-48
-32
-30
-9
5
19
10
7
-16
-18
-37
-23
-13
-8
11
17
13
1
-10
-11
-40
-36
-25
-12
12
31
19
10
-7
-25
-24
-19
-16
-4
7
14
14
12
-2
-15
-29
-19
-11
-5
1
23
32
21
-3
0
-18
-15
-5
6
15
42
28
12
-7
-5
-21
-17
2
21
27
37
35
21
5
-6
-11
0
6
18
34
49
41
35
13
2
2
6
26
35
50
56
60
40
23
21
8
10
29
47
68
58
63
50
47
29
10
31
36
50
59
66
64
39
34
29
9
15
31
41
57
56
42
13
13
0
-1
5
10
20
22
42
36
10
-11
-21
-26
-13
9
12
21
24
16
7
-13
-12
-34
-25
-7
4
16
18
4
-4
2
-24
-27
-21
-6
5
23
18
10
-4
-15
-33
-30
-17
2
8
25
28
14
-12
-5
-32
-15
-25
1
7
19
12
13
-16
-28
-29
-30
-15
3
6
34
11
10
-18
-19
-26
-27
-16
2
17
28
15
4
-13
-20
-28
-20
-11
10
6
32
23
5
4
-8
-27
-22
-8
9
15
24
13
10
6
-11
-25
-18
-7
7
11
27
20
7
-14
-11
-22
-11
-1
2
32
26
22
5
-15
-19
-21
-21
-5
8
20
23
18
18
-7
-19
-18
-21
-8
7
14
22
21
-1
-16
-28
-25
-26
-5
20
12
37
18
0
5
-9
-23
-26
2
9
16
23
8
-10
-13
-25
-22
-25
-12
6
15
27
20
3
-19
-31
-25
-27
-8
2
21
25
17
3
-11
-25
-28
-13
3
9
29
19
16
-11
-16
-38
-32
-21
-4
7
32
17
8
-13
-15
-36
-25
-14
-2
15
23
16
-1
0
-11
-37
-17
-13
7
15
24
24
12
-8
-22
-32
-29
-17
3
15
28
31
7
-9
-5
-25
-33
-10
0
4
15
14
6
-2
-22
-30
-31
-10
17
17
33
12
6
-10
-13
-25
-21
-1
16
14
21
24
6
3
-17
-21
-28
-7
10
17
20
20
9
-2
-14
-22
-15
4
14
20
28
16
3
1
-17
-18
-7
3
16
28
41
25
9
-2
-6
-18
-16
1
21
17
25
20
5
-6
-25
-33
-14
-8
14
25
11
10
-2
-14
-25
-38
-29
2
5
18
24
7
-18
-17
-35
-34
-17
-3
1
16
22
6
-9
-20
-37
-30
-23
-7
-6
16
22
25
12
33
30
52
75
120
133
149
134
98
45
44
19
7
-11
-14
-39
-28
-27
-41
-50
-46
-66
-62
-43
-29
-12
10
12
3
-13
-16
-34
-30
-20
-8
12
36
26
18
-3
-14
-25
-27
-10
9
18
25
18
17
-19
-23
-34
-18
-11
12
23
30
21
14
-11
-16
-27
-8
-6
14
26
22
23
12
-3
-15
-33
-20
1
17
22
30
26
17
6
-3
-19
-8
5
19
24
34
30
19
-6
-7
-19
-6
3
17
29
36
40
24
4
-6
-10
6
16
32
51
41
44
33
16
2
-16
6
30
37
52
60
48
31
28
17
18
34
45
51
65
65
57
43
35
26
28
28
45
55
67
84
61
41
32
14
19
26
49
57
65
59
42
29
21
6
7
10
21
31
36
31
35
11
-4
-17
-32
-16
16
1
37
29
19
3
-9
-29
-26
-13
4
6
33
18
13
-9
-10
-28
-26
-18
-2
6
14
16
-2
-17
-5
-28
-27
-15
1
11
24
16
13
-10
-26
-26
-29
-15
0
27
19
15
5
-17
-14
-33
-29
-1
-1
6
15
2
1
-20
-19
-22
-18
-1
4
11
17
18
3
-8
-39
-30
-28
0
16
17
27
15
-1
-13
-23
-27
-28
-3
8
19
27
17
1
-19
-28
-20
-28
-7
15
26
31
16
0
-14
-28
-20
-19
-8
17
21
32
11
-4
-7
-15
-23
-13
-5
8
29
23
9
-11
-14
-20
-27
-13
-6
6
16
26
8
-5
-12
-24
-10
-31
-3
8
32
26
17
-7
-19
-34
-29
-9
3
8
29
21
3
-8
-12
-32
-19
-21
-6
9
21
21
6
1
-12
-28
-23
-11
-1
4
23
27
6
-7
-13
-31
-27
-20
1
2
23
16
1
-7
-12
-30
-19
-9
5
9
23
17
19
-10
-14
-38
-23
-12
-8
18
17
11
17
-6
-23
-34
-35
-8
5
3
28
17
15
-19
-18
-29
-30
-9
-3
8
34
11
6
-13
-27
-30
-21
-6
1
16
20
1
-1
-14
-25
-28
-15
-10
8
9
14
10
-7
-19
-14
-31
-21
-3
7
15
15
4
-4
-21
-34
-32
-24
-7
9
14
21
12
-5
-14
-25
-23
-22
-9
-4
8
21
11
-7
-13
-32
-25
-19
-5
-6
16
16
-1
-3
-14
-43
-28
-23
-6
0
22
18
12
-8
-15
-31
-17
-11
-9
12
25
20
7
-3
-18
-26
-18
-9
7
11
28
24
11
0
-13
-37
-21
-10
4
21
31
22
9
1
-9
-24
-11
-9
12
12
20
15
-1
-12
-15
-33
-29
-15
-7
-7
28
13
-3
-17
-21
-31
-44
-26
-11
11
19
18
2
-17
-32
-39
-20
-21
-11
-3
3
20
1
-29
-34
-44
-37
-34
-14
2
14
-1
-19
-29
-28
-26
4
27
69
89
113
127
124
99
78
52
34
47
52
31
25
-12
-53
-69
-84
-80
-79
-56
-36
-24
-11
-18
-19
-28
-33
-42
-28
-2
5
4
10
-1
-8
-18
-39
-28
-30
-8
4
8
17
2
-12
-20
-38
-29
-15
-11
5
17
16
6
-9
-14
-29
-36
-11
-6
4
12
15
7
-7
-9
-27
-35
-22
-1
14
24
24
9
-6
-13
-28
-26
-8
1
12
18
18
6
-14
-18
-32
-24
-14
10
19
37
25
21
-4
-7
-17
-13
-3
3
19
41
32
22
-4
-4
-8
-14
2
15
25
33
38
35
20
11
-3
-6
13
35
44
63
49
39
24
26
11
15
25
42
51
68
54
39
24
25
12
33
26
43
56
63
56
41
10
-2
-5
8
11
27
40
42
23
10
5
-15
-15
-28
8
20
24
25
9
-2
-9
-30
-40
-31
-9
9
6
17
-2
-9
-17
-22
-26
-22
-6
-2
10
11
4
-11
-14
-31
-25
-27
-8
-5
-1
12
1
-22
-16
-30
-43
-22
-17
-1
14
15
-2
-24
-33
-46
-41
-32
-11
1
16
10
0
-21
-34
-41
-30
-28
-12
-8
10
4
3
-18
-27
-43
-36
-28
-4
-15
11
-8
8
-18
-25
-34
-33
-23
-2
3
19
7
6
-17
-24
-37
-39
-22
-13
-1
22
15
-2
-18
-27
-30
-38
-14
-8
-4
13
18
0
-25
-28
-39
-39
-23
-4
2
23
15
5
-13
-25
-34
-29
-13
1
-2
19
12
-7
-13
-34
-38
-27
-16
-10
7
13
17
-6
-16
-35
-48
-42
-17
-3
9
12
4
-1
-20
-34
-38
-31
-28
7
15
12
5
5
-21
-27
-34
-27
-19
-5
7
17
6
-14
-26
-30
-18
-20
-7
-5
-3
7
-1
-19
-27
-44
-35
-25
-15
-6
12
12
8
-17
-25
-35
-41
-38
-2
1
14
20
4
-14
-17
-36
-37
-30
-11
3
24
21
2
-17
-30
-39
-43
-26
-7
1
16
8
-3
-14
-21
-42
-35
-24
-8
9
19
7
-4
-16
-25
-44
-36
-29
-13
10
14
11
-3
-10
-18
-47
-30
-15
-2
1
10
6
9
-16
-17
-47
-33
-25
-3
-17
14
16
0
-20
-29
-40
-33
-9
0
-5
7
6
1
-21
-22
-40
-26
-26
-14
8
23
17
-8
-17
-29
-33
-42
-21
-1
5
24
9
-4
-18
-50
-39
-40
-17
-5
13
22
5
-7
-23
-35
-45
-29
-20
6
7
15
6
-2
-6
-24
-38
-36
-19
13
19
19
13
-7
-17
-28
-31
-20
3
12
22
23
14
-13
-16
-27
-24
-5
-2
6
19
18
9
4
-8
-25
-24
-13
1
0
7
15
12
4
-9
-33
-34
-32
-7
-6
8
16
3
-6
-13
-34
-35
-14
-11
-3
0
2
-10
-25
-22
-48
-33
-26
-11
-1
13
11
1
-25
-17
-41
-33
-25
