23
12
8
2
-13
0
16
14
42
33
32
16
16
-11
-29
28
39
38
30
43
76
37
32
14
2
10
15
25
49
69
63
50
24
2
-5
18
42
36
70
68
50
50
23
27
20
26
48
58
50
93
66
30
20
25
40
14
47
77
67
63
71
56
40
33
9
16
34
44
65
76
53
48
33
1
-27
18
43
57
53
46
32
25
26
4
6
-6
15
26
56
47
23
14
-2
-41
-17
3
25
21
48
57
31
32
-5
10
1
3
28
36
51
50
10
23
-13
-17
-14
17
24
35
50
55
34
25
-23
-34
15
-15
7
46
55
32
18
13
6
-21
3
21
42
50
71
44
9
16
-17
-11
2
4
9
57
60
58
26
7
21
-15
5
17
11
57
36
32
15
25
-2
1
4
-22
11
54
64
33
42
39
-16
-15
-7
25
50
65
28
9
11
18
-20
-9
9
31
44
61
66
42
21
14
-5
-15
-25
7
27
29
22
29
17
15
-10
-6
20
24
6
35
58
37
25
4
-28
-42
-4
10
64
68
52
24
36
0
-10
-3
27
18
49
72
61
48
7
-7
-13
-7
24
43
49
42
58
32
38
20
-13
8
30
31
55
52
43
39
5
-6
-3
10
26
22
43
30
30
15
17
-10
-22
-5
30
27
47
50
48
38
27
3
-19
-12
20
28
65
44
31
47
21
-25
-3
14
31
42
70
93
109
89
74
80
87
107
138
174
209
185
157
112
96
20
5
-7
-6
41
48
31
14
12
13
-1
8
16
27
35
58
47
44
29
8
-15
-10
-9
12
28
50
51
35
23
-13
-26
-18
1
64
1
29
55
50
-1
9
-5
-1
19
37
29
55
72
58
30
17
-7
7
17
15
45
46
55
24
21
15
8
4
17
45
52
71
51
59
31
3
-5
-3
21
31
47
65
72
50
-2
37
13
-1
32
33
70
93
75
61
49
11
23
36
46
63
59
64
73
64
51
19
10
24
42
46
86
92
79
63
69
37
45
19
71
68
87
104
77
69
49
22
18
21
65
50
78
79
74
56
46
10
32
16
11
60
67
70
66
49
35
11
3
4
22
21
31
38
66
40
18
22
11
23
14
28
53
55
32
39
33
31
6
1
32
25
40
53
33
11
5
-11
8
18
36
39
77
71
47
18
30
-9
-22
16
17
17
65
53
48
47
22
-6
-13
-7
30
34
74
57
33
29
25
-9
2
8
38
56
52
49
58
46
22
10
-1
17
31
27
73
28
32
39
12
3
20
16
47
47
57
64
35
54
15
9
-15
46
56
60
67
30
18
24
-5
-11
-5
12
36
80
23
44
58
2
12
28
8
25
44
31
33
29
35
29
-6
-2
13
27
43
65
50
53
30
19
4
-1
10
31
39
48
44
46
43
2
-19
16
24
12
36
61
55
38
29
7
10
4
14
11
34
30
51
57
46
21
6
23
20
33
42
88
76
85
68
21
-13
0
14
27
38
62
77
43
32
35
19
-22
22
41
60
63
70
43
11
6
-3
18
10
42
38
55
66
27
31
8
6
7
18
28
44
70
49
32
25
-4
-5
-12
26
39
56
96
81
78
112
100
130
140
168
177
196
196
181
147
90
23
-4
-1
7
30
58
85
32
40
9
24
-20
20
17
-10
43
64
82
44
22
-2
2
-2
37
49
46
59
65
18
16
17
-2
5
4
4
60
76
53
22
32
25
11
0
15
24
73
40
65
18
34
-11
21
-15
-6
46
49
69
50
56
33
3
-3
14
33
46
63
80
52
39
26
15
-8
18
32
37
58
67
54
60
35
23
-5
26
52
38
76
64
59
54
13
19
28
32
61
72
94
68
73
59
41
34
19
15
79
50
86
100
75
49
60
28
23
33
66
65
86
70
74
63
79
53
44
41
78
39
90
94
62
68
22
17
1
22
38
40
106
75
43
60
30
-8
20
17
19
47
58
56
47
28
22
-8
0
12
44
44
55
46
30
24
11
6
21
41
17
32
41
26
15
24
2
-10
8
42
35
60
65
62
42
18
0
17
-6
10
25
52
55
60
31
0
-13
2
2
38
9
61
57
66
54
16
6
-8
21
12
37
61
59
47
24
24
15
7
10
37
45
36
59
43
24
34
5
4
1
29
40
40
67
66
45
2
-2
2
18
12
28
35
46
48
53
33
-1
11
9
23
34
58
56
27
25
-1
-2
-4
9
36
18
79
64
65
33
3
-21
-2
15
44
37
44
64
30
38
14
3
12
48
21
46
30
32
9
24
8
6
27
17
44
70
28
68
24
19
-11
-16
13
28
32
53
55
64
47
15
1
1
-3
17
60
33
33
29
25
34
1
2
-5
10
48
44
66
74
31
43
11
14
16
35
37
54
79
48
37
36
24
15
23
28
34
58
95
64
32
24
-16
-4
4
22
29
58
28
41
41
28
-18
-5
7
3
37
60
54
52
27
19
-4
-11
-1
29
-4
40
43
51
44
29
13
62
64
58
99
121
158
210
194
166
163
169
117
77
69
58
51
23
13
25
-7
-5
7
28
4
59
40
62
14
7
9
-22
-13
11
27
37
40
33
20
45
3
1
17
4
34
46
35
30
11
1
-20
-1
-2
29
47
48
86
54
28
28
2
-25
6
32
53
61
10
52
28
-7
2
15
23
41
-2
35
25
32
33
20
10
5
8
13
29
59
75
39
38
-8
0
11
24
35
40
61
90
56
44
22
26
2
20
31
33
49
58
38
62
39
26
19
39
45
69
67
68
38
29
26
23
44
67
68
68
76
65
46
47
18
30
38
37
68
51
81
81
56
40
27
27
19
58
29
47
61
48
36
25
2
-13
32
45
34
49
52
56
17
21
-16
0
-8
19
33
58
57
31
26
17
-29
3
11
24
3
56
48
36
13
-10
-2
-2
-5
24
28
35
49
15
17
18
-18
-28
9
34
44
44
40
31
35
6
-11
-30
2
7
42
62
54
38
5
1
35
20
15
32
38
67
41
12
25
-5
-8
6
-2
27
63
71
20
33
-2
13
-13
-1
16
26
42
60
50
29
17
7
-16
11
30
29
64
73
39
20
20
5
-8
14
21
37
25
61
43
28
19
-1
2
7
7
13
63
44
34
39
34
-11
4
-11
1
36
68
57
23
40
32
-4
-8
15
24
24
65
19
51
41
28
-13
-7
-10
-9
16
40
49
54
26
21
6
-10
5
-10
36
47
53
37
15
40
-2
-7
12
20
28
61
50
30
0
0
-5
-4
-20
28
37
42
53
21
16
33
27
1
-7
22
43
51
54
41
35
10
23
33
30
40
22
73
67
19
31
29
19
-5
16
56
65
55
58
30
29
9
-15
2
14
-4
29
60
61
37
35
-4
-10
-17
-1
25
32
48
48
33
5
-9
-16
-6
7
24
30
37
19
24
38
18
22
29
79
103
123
142
167
157
181
148
119
104
108
93
61
54
28
16
25
-4
-22
-16
25
21
17
23
22
19
16
-34
-4
6
23
44
41
46
30
24
3
-24
-4
0
5
24
50
46
27
14
8
-27
-5
-6
-3
29
37
35
47
4
-1
-13
-25
-16
42
33
50
51
36
30
15
-48
-18
11
25
24
23
45
23
21
32
3
-8
-12
10
22
60
58
27
23
13
-7
-4
23
41
58
80
87
27
22
11
-4
7
21
24
31
58
53
47
39
9
8
13
28
60
35
64
58
34
40
34
3
-15
-2
42
69
82
71
74
50
64
28
21
24
57
74
77
32
62
36
22
17
16
31
31
29
45
35
42
40
8
17
17
-11
33
39
51
42
11
1
-21
-2
6
9
27
39
33
18
20
19
-31
-31
4
-11
11
32
36
20
13
14
-45
-13
4
-9
5
56
49
54
26
3
-16
-28
-24
-8
8
32
22
11
12
19
-15
-23
-42
3
10
43
48
25
13
-1
-30
-30
-14
-10
19
33
32
36
-11
14
-7
-4
-9
21
12
40
33
27
27
2
3
-6
-30
-12
9
18
23
10
5
15
-15
-20
-3
10
12
40
26
4
-5
-36
-54
-36
-11
12
38
56
39
36
10
0
-8
-19
1
0
9
31
25
20
-1
12
-15
-14
-21
21
19
24
15
7
36
-15
-27
-22
-18
-12
21
36
37
4
0
-33
-29
-9
0
16
19
31
13
-1
-14
-2
-32
-54
-24
14
20
21
26
30
-6
-27
-16
0
-12
24
48
43
26
-3
-19
-38
-25
1
16
13
-7
-15
-3
7
8
-35
-2
-23
-24
26
12
30
34
20
-2
-22
9
5
10
18
53
43
41
46
5
-33
-22
-5
19
28
40
42
51
3
-6
-16
-19
-29
8
19
12
20
28
19
6
-48
-26
-15
-10
11
36
17
22
-10
3
-9
-29
-6
-12
4
45
30
1
6
1
-18
-13
17
42
49
137
126
88
90
133
151
157
159
144
129
99
76
29
-11
-16
-41
-27
-19
1
17
13
17
37
27
6
-21
-22
-31
-12
-14
33
9
-3
0
4
-27
-46
-35
21
40
45
37
11
-4
-21
-21
-19
5
18
38
47
63
29
-10
15
-15
-3
-17
-11
-11
37
33
15
29
-4
-15
-42
-1
19
11
55
50
5
-9
-18
-45
-10
-6
27
54
50
46
13
2
-23
-1
13
2
23
45
37
39
12
7
-8
-14
1
21
41
40
56
26
52
19
13
8
27
25
7
50
61
68
22
8
-12
43
14
22
27
72
80
39
32
22
-1
-4
22
34
58
51
73
62
39
-8
-5
4
-5
35
46
56
70
44
32
16
-18
1
-4
9
4
28
11
14
-4
-20
-39
-23
14
12
-9
26
40
33
-3
-10
-41
-40
-9
24
33
45
41
-16
-18
-39
-29
-35
-15
-8
-7
17
-6
0
-2
-7
-28
1
-6
-1
14
43
25
-12
-16
-42
-27
-52
-26
21
25
33
20
-5
6
-2
8
-10
-22
-24
-26
16
13
11
6
-21
-27
0
18
0
31
35
10
20
-14
-24
-46
-17
-28
-39
10
47
27
-14
-13
-39
-29
3
11
9
29
11
-28
-5
14
-43
-36
3
4
6
41
32
20
-1
-29
-38
-33
-22
7
25
11
6
7
-6
-20
35
-31
-24
-16
-11
40
5
16
-14
-25
-40
-43
-31
-13
-27
9
26
26
29
4
-39
-34
-31
-6
-11
27
26
-5
-1
-10
-49
-51
-22
-13
30
37
17
-4
-17
-34
-26
-39
-8
22
30
41
-8
-2
-32
-37
-36
-41
-28
-20
-15
18
7
22
3
-11
-26
-22
-9
-19
-5
15
4
7
-2
-24
-35
-8
1
-4
16
40
55
14
-13
-17
-5
-18
-6
-15
30
19
34
2
-4
-1
-40
-8
-14
-1
5
29
23
-35
-16
-31
-47
-35
-18
-24
17
28
-7
7
-10
-50
-36
-48
-49
-16
25
6
16
11
19
-41
-49
-28
-28
-1
19
18
23
31
13
10
27
49
83
116
187
167
145
127
99
35
7
-13
-8
-10
-13
-2
15
-3
-26
-56
-56
-45
-19
-12
3
29
18
4
-20
-24
-37
-33
-34
1
16
16
-13
-23
-12
-51
-59
-29
-17
-24
-1
5
-6
-25
-50
-53
-34
-41
13
14
26
25
-8
-33
-39
-66
-65
-51
-22
4
25
17
11
7
-46
-49
-57
-27
-13
14
28
-11
2
9
-55
-55
-48
-56
-18
-2
35
11
-12
-14
-11
-23
-13
-16
-14
34
31
35
-16
-2
-17
-33
-39
-26
-8
14
24
13
-2
0
-26
-25
-3
-26
3
19
41
34
26
-14
-24
-5
-10
-5
26
45
39
44
32
16
-34
-10
-9
6
25
37
28
15
14
0
-5
-53
-35
-34
-4
30
26
22
-32
-36
-56
-51
-39
-35
-5
21
28
5
-7
-37
-51
-30
-31
-21
-21
1
8
-24
-25
-16
-42
-51
-48
-37
0
0
-11
-21
-49
-13
-39
-45
-13
-3
-2
-2
25
6
-27
-38
-73
-55
-36
-27
-36
-16
17
-3
7
-41
-75
-81
-54
-56
-21
0
-1
-10
-28
-58
-52
-55
-29
-30
-6
29
-4
-21
-38
-53
-66
-38
-29
7
3
14
15
3
-24
-55
-73
-29
-24
-18
0
18
-6
-11
-43
-43
-50
-55
-12
-21
-16
-2
-8
-33
-39
-67
-47
-52
-53
-9
-6
0
3
-35
-47
-68
-43
-45
-56
-56
-19
-1
-19
-19
-39
-33
-25
-44
-18
-36
1
-18
-12
-19
-46
-52
-73
-53
-26
-12
5
-6
-9
-43
-29
-56
-69
-39
-28
-40
6
-23
-7
-25
-46
-48
-58
-36
-28
-18
-12
15
-23
-31
-33
-64
-83
-59
-34
-32
14
-3
-2
-17
-50
-92
-56
-57
-23
-17
17
5
-11
-33
-12
-50
-47
-30
-31
19
30
6
23
-20
-24
-42
-40
-45
-54
-27
4
12
-2
-42
-46
-70
-93
-61
-34
-38
-17
8
-22
-48
-38
-48
-61
-30
-35
-19
0
-24
-41
-45
-42
-75
-69
-52
-31
-20
7
20
0
-13
-31
-9
-11
69
74
132
163
147
129
90
64
23
5
-31
-34
-45
-29
-25
-47
-47
-47
-62
-55
-44
-40
-14
-29
-40
-16
-39
-75
-70
-42
-40
-42
-23
-23
-24
-56
-22
-70
-43
-53
-40
-35
-1
-23
-4
-6
-24
-61
-54
-26
-25
-28
-4
-3
2
-45
-40
-66
-48
-69
-47
-32
-6
-10
-53
-41
-53
-72
-71
-63
-31
-18
8
17
-3
-17
-22
-93
-82
-44
-38
-58
-25
-14
-20
-31
-7
-21
-34
-12
-15
-6
21
-13
-15
-15
-40
-69
-53
-42
-23
-7
14
13
5
1
-14
-38
-30
-36
-9
1
29
22
0
-10
-26
-20
-42
-4
-10
3
19
4
-7
-18
-8
-29
-18
-5
20
7
15
-2
-17
-4
-37
-43
-53
-31
-11
-4
-11
-5
-10
-38
-46
-54
-64
-36
-44
4
18
9
-2
-35
-61
-59
-56
-53
-51
-14
3
-16
-36
-39
-57
-50
-62
-41
-62
-13
-18
14
-19
-23
-76
-73
-62
-66
-67
-35
0
0
-12
-22
-43
-64
-50
-61
-25
-7
-3
-30
-46
-70
-70
-66
-46
-14
-25
22
-1
-7
-49
-63
-45
-57
-57
-47
-36
-16
-21
-31
-33
-37
-54
-75
-50
-54
-58
-18
6
-10
-34
-24
-57
-51
-60
-20
-11
1
14
-41
-21
-31
-69
-68
-62
-48
-39
-20
-4
-37
-13
-15
-62
-66
-41
-21
-46
-25
-27
-40
-51
-56
-54
-67
-75
-64
-13
-13
-14
-37
-47
-58
-49
-54
-71
-55
-18
3
-14
-40
-39
-68
-55
-60
-63
-39
-21
-6
-5
-40
-17
-54
-63
-78
-63
-43
-24
-1
-13
-30
-43
-61
-79
-63
-53
-61
-37
1
-22
-43
-40
-53
-36
-32
-25
-10
-14
9
-6
-24
-31
-51
-68
-45
-34
-23
21
-11
5
-37
-64
-81
-62
-69
-68
-30
17
3
-22
-47
-63
-74
-81
-94
-63
-48
-26
-13
-31
-32
-24
-50
-62
-60
-86
-33
-23
-18
-15
-19
-38
-37
-38
-8
33
43
77
99
111
108
88
40
67
35
19
-24
-6
-25
-36
-56
-50
-88
-67
-45
-49
-58
-39
-33
-40
-63
-59
-67
-74
-78
-42
-45
-15
-5
1
-61
-74
-58
-78
-66
-42
-31
10
-25
-37
-57
-56
-86
-96
-62
-54
-17
-13
-18
-34
-35
-47
-87
-75
-52
-46
-24
-24
-41
-13
-51
-54
-57
-71
-60
-48
-26
-15
-30
-12
-32
-70
-63
-56
-66
-51
-14
-19
-20
-30
-44
-53
-61
-54
-39
-14
-1
-7
-10
-29
-30
-58
-67
-59
-44
-18
-23
6
18
-15
-49
-54
-24
-38
-27
-27
34
35
-1
-30
-49
-59
-27
-32
-22
-16
19
-2
3
-8
-37
-61
-49
-39
-6
-15
23
-5
5
-10
-11
-52
-45
-41
-35
-13
3
4
-13
-43
-47
-69
-46
-51
-31
-42
-3
-13
-40
-22
-43
-80
-96
-41
-48
-30
-28
-28
-39
-61
-48
-81
-75
-76
-55
-38
-24
-19
-30
-35
-66
-92
-57
-39
-44
-57
-22
-15
-37
-48
-75
-98
-94
-62
-61
-50
-21
-36
-43
-49
-50
-79
-74
-69
-47
-14
-25
-15
-33
-60
-56
-92
-71
-61
-45
-12
-21
-10
-11
-56
-88
-127
-88
-51
-41
-11
-16
-19
-38
-54
-67
-89
-77
-66
-54
-36
-15
-39
-35
-44
-96
-82
-49
-81
-62
-14
-29
-39
-42
-67
-88
-71
-81
-55
-46
2
-20
-29
-65
-75
-93
-84
-80
-60
-40
-24
-32
-17
-35
-52
-65
-60
-64
-68
-66
-42
-24
-28
-61
-65
-87
-48
-90
-73
-47
-3
-14
-64
-46
-54
-88
-99
-79
-52
-56
-31
-25
-16
-31
-40
-92
-75
-83
-57
-55
-2
-10
-16
-34
-47
-65
-53
-69
-61
-43
-15
-30
6
-21
-40
-66
-70
-58
-60
-48
-16
-11
-23
-46
-56
-94
-105
-72
-77
-71
-13
-38
-30
-73
-64
-75
-79
-66
-48
-39
-34
-36
-52
-57
-58
-89
-72
-94
-72
-23
2
-3
-29
10
-9
-21
3
38
79
111
157
139
87
75
33
-34
-67
-84
-88
-53
-44
-48
-66
-72
-83
-92
-64
-32
-38
-35
-23
-22
-47
-68
-77
-89
-67
-51
-56
-45
-35
-35
-42
-62
-74
-90
-82
-82
-56
-45
-14
-19
-18
-55
-79
-89
-66
-68
-49
-8
-26
-25
-94
-68
-89
-93
-60
-37
-50
-21
-7
-9
-65
-63
-78
-74
-53
-52
-46
-17
-35
-41
-56
-47
-70
-76
-73
-31
-41
-12
-22
-46
-39
-40
-69
-48
-62
-40
-29
12
-4
-24
-55
-37
-64
-111
-56
-23
-11
-18
-7
-9
-43
-42
-59
-54
-33
-13
-20
3
-5
-16
-16
-32
-36
-46
-27
-31
-9
-9
18
-6
-15
-39
-49
-63
-33
-26
-14
-7
-17
-26
-37
-17
-63
-49
-42
-41
-36
-17
12
-47
-46
-77
-67
-73
-81
-40
-37
-27
-18
-24
-59
-41
-63
-75
-65
-40
-41
-37
-39
-39
-58
-59
-67
-91
-72
-45
-24
-29
-35
-34
-46
-97
-87
-45
-61
-57
-21
-19
-58
-52
-63
-91
-94
-60
-48
-28
-36
-14
-22
-57
-63
-77
-77
-63
-46
-34
-40
-37
-29
-32
-47
-46
-69
-94
-71
-43
-19
-20
-26
-45
-57
-74
-74
-54
-54
-40
-33
-13
-27
-60
-66
-84
-75
-59
-47
-24
-10
-29
-48
-52
-36
-77
-85
-78
-46
-44
-27
-13
-37
-39
-60
-96
-63
-65
-47
-29
-8
-34
-18
-32
-53
-66
-59
-64
-89
-37
-24
-28
-59
-49
-64
-69
-88
-58
-52
-22
-11
-15
-51
-35
-14
-65
-67
-53
-42
-21
9
7
-16
-38
-46
-73
-64
-22
-15
-22
-3
-8
-6
-28
-64
-72
-74
-69
-39
-27
-26
-37
-33
-28
-49
-68
-65
-54
-56
-32
-29
-29
-51
-61
-60
-82
-73
-70
-59
-17
6
-34
-34
-46
-71
-107
-74
-41
-7
20
52
46
55
55
45
84
91
108
107
98
109
38
-26
-44
-88
-86
-68
-38
-46
-35
-31
-56
-47
-32
-49
-73
-69
-52
-30
-23
-9
-26
-33
-50
-88
-71
-44
-41
-38
-6
-28
-37
-33
-65
-89
-95
-70
-51
-11
-1
-26
-25
-19
-36
-73
-72
-56
-34
-39
-17
-14
-25
-37
-36
-72
-62
-56
-45
-18
-11
-22
-24
-39
-29
-46
-50
-53
-34
-13
-21
9
-25
-25
-32
-47
-52
-37
-36
-8
13
1
-4
-41
-42
-31
-59
-12
-27
-33
-1
-12
5
-24
-43
-60
-35
-12
-23
5
14
25
7
-2
-14
-40
-25
-17
14
22
22
25
7
-19
-39
-15
-29
-18
8
7
15
7
31
6
-43
-44
-30
-28
-20
8
15
12
1
-39
-22
-57
-61
-34
-13
20
33
-7
-26
-35
-44
-45
-50
-53
-20
-26
-16
-12
-27
-45
-78
-47
-46
-41
-11
5
11
-24
-36
-44
-66
-64
-63
-45
-26
-13
-12
2
-2
-38
-74
-51
-29
-33
-38
-12
-8
-3
-45
-23
-74
-46
-62
-25
-41
7
-5
-6
-27
-22
-69
-64
-45
-37
-33
6
10
-16
-38
-30
-60
-65
-42
-22
-25
-12
1
-14
-11
-29
-65
-32
-78
-46
-12
-1
7
0
-9
-26
-47
-51
-57
-50
-38
12
13
-22
-35
-34
-63
-55
-33
-38
-9
-18
3
-16
-34
-46
-53
-48
-44
-47
-25
1
-10
-14
-20
-43
-46
-42
-63
-6
-9
17
-17
-22
-18
-50
-53
-47
-17
5
15
14
0
-5
-20
-39
-42
-56
-28
-7
-31
-4
-16
-42
-35
-59
-61
-61
-34
-29
-8
-2
-3
-40
-18
-45
-59
-43
-32
-34
-4
-9
-13
-46
-59
-78
-73
-74
-43
-26
-21
13
6
-15
-8
-6
-10
-15
39
54
101
126
125
130
87
55
22
-31
-33
-40
-7
-27
-37
-37
-58
-63
-61
-75
-52
-28
-7
-22
-32
-57
-50
-72
-66
-66
-30
-30
-6
15
-28
-44
-52
-75
-55
-53
-28
-36
-2
7
-22
-64
-56
-50
-47
-53
-41
-8
-12
-13
-14
-27
-42
-41
-68
-71
-38
-38
-11
15
-15
-42
-52
-57
-61
-48
-41
-2
5
-22
-43
-29
-48
-73
-48
-28
-29
-7
-1
1
-8
-24
-50
-63
-68
-73
-19
-22
0
19
-12
-8
-34
-57
-28
-18
-31
-8
8
6
25
-19
-42
-39
-33
-31
-3
17
14
7
0
-21
-61
-34
-32
-28
-6
18
15
18
12
-19
-48
-59
-40
-25
13
6
16
5
-11
-14
-43
-19
-26
-38
-6
18
-2
-8
-40
-53
-90
-90
-59
-53
-36
11
-5
-12
-50
-38
-62
-56
-68
-46
-37
-21
-11
-48
-18
-40
-63
-71
-82
-64
-42
-14
-15
-5
-37
-60
-80
-74
-77
-29
-34
-23
-22
-21
-26
-47
-92
-78
-65
-53
-31
-25
-13
-18
-48
-53
-84
-95
-76
-50
-58
-30
-26
-16
-29
-17
-41
-76
-66
-56
-31
-28
-15
-14
-35
-73
-59
-66
-76
-35
-28
-41
-28
-25
-38
-54
-69
-95
-58
-21
-29
-25
-31
-16
-32
-66
-71
-64
-78
-52
-43
-21
-33
-43
-58
-64
-82
-63
-45
-46
-31
-17
-20
-44
-52
-87
-86
-69
-85
-38
-37
-31
-44
-25
-37
-73
-53
-77
-69
-52
-5
-14
-23
-50
-67
-74
-87
-78
-53
-34
-23
-23
-30
-28
-55
-46
-44
-72
-35
3
1
-25
-3
-37
-49
-78
-93
-86
-50
-48
-4
-9
-31
-42
-54
-74
-97
-110
-63
-57
-7
-15
-49
-51
-52
-83
-90
-91
-61
-49
-9
-21
-33
-62
-44
-91
-78
-80
-45
-28
3
16
11
15
28
-8
17
53
112
98
116
101
59
53
-18
-71
-88
-76
-63
-69
-40
-34
-30
-66
-65
-101
-88
-66
-73
-54
-24
-29
-48
-34
-70
-95
-92
-73
-53
-51
-6
-4
-25
-54
-80
-105
-75
-90
-64
-53
-33
-32
-29
-39
-79
-70
-92
-82
-76
-26
-5
-47
-62
-61
-59
-64
-92
-78
-55
-42
-8
-29
-40
-55
-58
-84
-72
-76
-69
-30
-32
-33
-55
-53
-70
-83
-71
-48
-60
-31
-6
-28
-45
-59
-97
-87
-61
-66
-39
-25
-13
-34
-39
-47
-97
-70
-54
-41
-23
-17
-1
-27
-18
-42
-61
-44
-57
-45
-34
4
-13
-27
-33
-56
-77
-51
-39
-27
-16
1
-20
-21
-33
-52
-51
-56
-68
-28
-52
-17
-20
-28
-43
-49
-87
-76
-62
-60
-62
-24
-18
-44
-38
-43
-55
-78
-110
-50
-57
-45
-57
-39
-47
-57
-88
-86
-71
-57
-67
-23
-34
-43
-52
-86
-86
-89
-115
-84
-53
-48
-53
-41
-54
-70
-87
-86
-71
-59
-50
-29
-38
-55
-70
-84
-84
-96
-109
-53
-53
-54
-37
-35
-48
-88
-94
-98
-89
-55
-39
-40
-34
-46
-73
-81
-74
-80
-74
-64
-32
-26
-24
-45
-51
-86
-102
-75
-87
-76
-47
-28
-54
-56
-58
-97
-112
-85
-78
-71
-40
-48
-51
-47
-70
-84
-87
-93
-64
-64
-31
-40
-49
-47
-73
-79
-99
-99
-56
-49
-32
-51
-65
-72
-69
-101
-103
-80
-52
-58
-55
-58
-33
-73
-74
-97
-122
-85
-79
-56
-17
-28
-34
-53
-80
-110
-106
-74
-48
-29
-25
-27
-33
-57
-47
-91
-68
-94
-62
-61
-34
-38
-52
-62
-70
-103
-100
-104
-97
-81
-35
-43
-54
-97
-88
-91
-78
-79
-73
-81
-37
-25
-57
-77
-74
-107
-94
-97
-75
-77
-33
-40
-47
-48
-51
-78
-45
-22
5
19
46
69
93
96
98
14
13
14
4
-42
-67
-44
-78
-90
-93
-94
-78
-70
-71
-55
-47
-37
-66
-109
-100
-116
-103
-123
-77
-46
-30
-46
-43
-63
-94
-98
-87
-77
-65
-55
-60
-69
-88
-69
-102
-110
-90
-103
-86
-15
-47
-58
-81
-66
-94
-90
-76
-69
-67
-53
-52
-56
-65
-70
-114
-92
-79
-86
-63
-44
-47
-50
-68
-60
-92
-86
-87
-81
-63
-31
-30
-54
-64
-63
-80
-90
-86
-80
-53
-31
-42
-66
-77
-74
-88
-68
-59
-48
-87
-20
-35
-77
-38
-48
-83
-93
-78
-63
-46
-29
-47
-36
-32
-38
-49
-53
-54
-27
-45
-20
-32
-26
-40
-48
-84
-78
-73
-57
-36
-35
-12
-43
-35
-56
-75
-74
-104
-56
-70
-36
-32
-61
-81
-58
-94
-89
-91
-75
-63
-38
-19
-64
-96
-86
-76
-104
-79
-50
-60
-38
-54
-78
-97
-93
-113
-115
-97
-74
-58
-26
-48
-70
-87
-96
-130
-133
-78
-84
-66
-67
-33
-73
-75
-86
-95
-78
-74
-69
-49
-48
-70
-59
-73
-93
-91
-108
-83
-81
-52
-49
-31
-62
-59
-93
-103
-89
-79
-79
-43
-59
-65
-71
-88
-86
-101
-114
-110
-77
-58
-41
-58
-67
-62
-94
-98
-98
-100
-90
-43
-49
-44
-75
-83
-108
-69
-92
-81
-73
-52
-29
-54
-84
-80
-97
-102
-86
-61
-89
-49
-56
-86
-67
-75
-93
-105
-92
-69
-83
-39
-40
-52
-61
-89
-94
-80
-99
-88
-75
-73
-45
-77
-93
-57
-118
-124
-90
-86
-79
-64
-57
-52
-67
-68
-83
-93
-79
-68
-57
-38
-20
-37
-54
-67
-100
-90
-73
-43
-37
-33
-44
-37
-72
-91
-95
-109
-95
-101
-57
-47
-65
-86
-78
-103
-109
-83
-73
-92
-35
-41
-54
-63
-86
-118
-131
-103
-81
-68
-54
-53
-31
-55
-62
-93
-100
-122
-93
-52
-25
-6
-32
-17
-20
-6
-8
52
77
95
119
79
65
13
-31
-83
-108
-115
-106
-89
-46
-37
-48
-95
-89
-108
-97
-114
-68
-59
-36
-55
-62
-77
-96
-99
-91
-89
-100
-52
-46
-27
-44
-66
-71
-122
-100
-91
-76
-71
-55
-62
-47
-68
-77
-119
-96
-90
-82
-72
-29
-63
-48
-86
-73
-110
-103
-85
-50
-80
-55
-37
-41
-59
-92
-111
-75
-96
-75
-67
-36
-32
-29
-54
-82
-87
-90
-83
-56
-68
-39
-37
-59
-63
-61
-86
-89
-68
-70
-62
-34
-41
-39
-41
-51
-96
-77
-82
-45
-39
-10
-25
-33
-55
-73
-79
-67
-73
-54
-15
7
-4
-33
-63
-50
-72
-83
-41
-25
-27
-11
-10
-22
-57
-74
-59
-60
-70
-43
-12
-11
-37
-30
-66
-93
-78
-80
-68
-80
-24
-28
-47
-22
-75
-99
-75
-78
-89
-64
-43
-36
-42
-74
-52
-94
-84
-101
-106
-79
-46
-32
-54
-46
-61
-105
-88
-95
-92
-70
-36
-26
-47
-84
-74
-112
-112
-88
-94
-67
-39
-50
-61
-60
-91
-103
-70
-82
-80
-71
-34
-31
-46
-63
-91
-97
-80
-93
-62
-44
-53
-55
-54
-64
-63
-89
-94
-84
-69
-91
-56
-14
-42
-57
-70
-97
-87
-85
-85
-78
-41
-29
-42
-59
-83
-81
-92
-71
-105
-63
-41
-41
-52
-63
-62
-88
-109
-101
-91
-56
-39
-35
-82
-77
-77
-82
-71
-89
-57
-48
-32
-32
-55
-56
-94
-81
-88
-55
-66
-73
-44
-26
-88
-79
-74
-97
-78
-98
-79
-62
-42
-38
-75
-65
-92
-83
-75
-99
-68
-53
-54
-40
-41
-83
-117
-129
-91
-76
-88
-38
-44
-38
-52
-60
-81
-102
-73
-94
-67
-27
-20
-13
-32
-45
-74
-82
-88
-72
-64
-25
-43
-37
-74
-58
-106
-111
-71
-75
-67
-37
-35
-75
-56
-72
-87
-108
-110
-45
-70
-70
-51
-56
-77
-65
-92
-96
-83
-66
-61
-43
-56
-43
-79
-83
-118
-95
-58
-45
-3
35
23
45
44
68
61
69
83
77
49
47
11
-47
-91
-104
-138
-101
-76
-85
-78
-55
-26
-60
-70
-64
-99
-94
-88
-71
-64
-56
-51
-56
-75
-74
-122
-107
-90
-70
-65
-32
-61
-43
-56
-99
-103
-112
-92
-56
-50
-34
-21
-49
-76
-89
-104
-67
-96
-74
-40
-48
-40
-65
-78
-97
-87
-94
-61
-63
-45
-39
-36
-46
-73
-86
-101
-106
-68
-80
-34
-12
-43
-62
-94
-73
-95
-110
-71
-23
-27
-23
-43
-73
-54
-73
-95
-88
-85
-23
-21
-13
-25
-44
-33
-68
-86
-53
-53
-35
-26
-26
-9
-43
-28
-39
-89
-70
-61
-42
-15
-61
-32
-22
-56
-74
-45
-63
-34
-37
-22
-11
-2
-26
-33
-71
-76
-70
-42
-32
0
-37
-24
-36
-51
-90
-72
-74
-45
-61
-44
-26
-64
-69
-63
-94
-82
-86
-68
-80
-39
-37
-40
-66
-83
-94
-99
-100
-54
-68
-9
-14
-41
-80
-74
-85
-82
-74
-56
-75
-39
-40
-61
-62
-55
-88
-87
-70
-79
-55
-47
-32
-37
-44
-82
-84
-87
-93
-71
-41
-53
-50
-82
-56
-80
-86
-98
-68
-35
-32
-29
-29
-60
-64
-67
-84
-78
-62
-49
-67
-34
-30
-30
-61
-82
-80
-70
-66
-84
-48
-18
-72
-51
-39
-63
-102
-80
-82
-68
-40
-24
-37
-52
-65
-95
-100
-92
-79
-64
-45
-13
-37
-23
-69
-86
-102
-94
-57
-59
-23
-38
-44
-58
-65
-109
-103
-94
-60
-55
-21
-38
-50
-44
-57
-86
-97
-97
-62
-57
-31
-44
-65
-59
-73
-90
-78
-63
-82
-44
-16
-11
-49
-75
-64
-109
-92
-78
-78
-50
-33
-45
-50
-55
-78
-101
-84
-71
-45
-65
-31
-21
-44
-45
-62
-99
-70
-84
-48
-33
-18
-32
-23
-52
-60
-63
-75
-48
-38
-22
-14
-32
-45
-62
-69
-85
-95
-86
-62
-54
-40
-5
-57
-51
-57
-80
-93
-82
-73
-32
-29
-38
-37
-58
-75
-76
-98
-89
-89
-63
-57
-29
-66
-78
-49
-60
-50
-34
-10
20
65
60
73
60
69
60
73
82
71
46
36
-9
-54
-75
-92
-84
-84
-63
-62
-30
-31
-45
-66
-60
-62
-86
-69
-62
-42
-43
-31
-27
-44
-59
-93
-78
-68
-53
-39
-17
-1
-42
-42
-65
-89
-115
-81
-58
-39
-51
-16
-30
-45
-43
-63
-86
-92
-77
-62
-40
-24
-23
-42
-35
-64
-80
-42
-38
-48
-42
-16
-20
-31
-37
-78
-66
-63
-40
-40
-18
-4
-35
-23
-39
-63
-54
-57
-70
-60
-4
-8
-16
-39
-43
-64
-70
-41
-21
-24
-6
-14
-25
-25
-24
-86
-66
-52
-16
2
16
15
-5
-36
-39
-42
-38
-12
-7
-4
34
16
-6
-13
-27
-52
-60
-55
-23
12
46
7
-11
-2
-48
-54
-45
-38
-13
-8
21
-11
-4
-42
-35
-48
-54
-29
-33
-20
-24
-8
-26
-38
-76
-68
-65
-48
-44
-47
9
-24
-24
-34
-55
-58
-71
-74
-44
-32
-28
-13
-35
-13
-45
-72
-82
-35
-41
-31
-20
13
-25
-42
-63
-82
-90
-61
-50
-15
-27
-28
-30
-41
-80
-56
-45
-36
-36
-12
-30
-14
-43
-49
-54
-65
-55
-50
-34
-7
-14
-13
-13
-29
-77
-58
-63
-24
-15
-27
-22
-16
-66
-37
-48
-63
-60
-47
-15
0
-26
-15
-30
-39
-68
-59
-66
-67
-37
25
-8
-49
-28
-20
-61
-62
-56
-32
-20
-9
-10
-13
-73
-56
-71
-61
-66
-53
-63
-31
-1
-24
-25
-51
-76
-74
-63
-52
-43
-19
2
-24
-46
-34
-41
-63
-67
-36
-21
-18
-15
-21
-38
-41
-64
-60
-28
-41
-53
-3
-1
-15
-24
-67
-78
-74
-72
-41
-17
-6
-28
-17
-30
-40
-59
-58
-44
-28
-3
2
-5
-25
-31
-34
-36
-42
-29
-18
-17
-36
-34
-34
-29
-70
-68
-45
-44
-21
2
2
-19
-33
-42
-69
-77
-69
-58
-28
1
6
-25
-22
-46
-87
-76
-44
-38
-26
-14
-10
-25
-35
-53
-84
-28
-41
-7
15
53
57
83
89
79
96
73
97
81
71
69
18
-21
-51
-70
-94
-115
-70
-43
-31
-18
-5
-9
-45
-49
-54
-74
-50
-25
-30
-9
-5
-32
-34
-46
-59
-66
-56
-22
-22
-2
-17
-27
-46
-35
-61
-71
-45
-16
-43
-18
4
-2
-52
-45
-78
-83
-42
-4
-14
0
-7
-29
-15
-37
-72
-89
-69
-32
-5
18
-6
-8
-43
-34
-51
-64
-35
-28
1
13
3
-12
-5
-43
-81
-62
-37
-29
-24
0
11
-11
-26
-36
-56
-49
-35
-25
-6
8
2
0
-22
-25
-26
-47
-27
-6
12
29
27
9
-5
-37
-19
-6
-27
18
32
38
23
8
-9
-37
-39
-41
-13
-1
14
35
-2
-5
-22
-63
-33
-11
-3
2
18
-22
-11
-14
-20
-55
-50
-41
-55
-24
12
9
16
-8
-22
-43
-59
-58
-22
-11
-11
2
-9
-31
-26
-78
-72
-76
-16
-35
-12
1
-18
-19
-44
-54
-83
-69
-46
-22
-3
-16
-11
-47
-54
-75
-57
-46
-36
-27
1
6
-45
-55
-39
-57
-86
-40
-38
-29
21
-1
-23
-44
-34
-62
-61
-61
-28
-44
4
7
-12
-48
-40
-80
-38
-69
-55
-20
11
15
-22
-13
-45
-54
-50
-52
-66
0
-11
-13
-28
-37
-53
-54
-65
-45
-36
-9
12
0
-23
-41
-31
-80
-53
-60
-26
-19
-18
-21
-37
-18
-48
-57
-68
-58
-32
-2
10
0
-25
-44
-43
-68
-80
-71
-23
-20
-7
-27
-25
-49
-51
-84
-66
-31
-29
-11
11
-28
-12
-49
-68
-64
-48
-49
-23
7
-22
-15
-20
-36
-65
-66
-83
-60
-23
-7
-1
-20
-30
-35
-60
-34
-48
-64
-45
-24
-7
-13
-25
-30
-61
-68
-54
-44
-11
4
9
-8
-5
-30
-63
-33
-37
-27
10
3
-2
-7
-44
-37
-75
-64
-56
-36
-54
-18
-3
-14
-43
-36
-82
-71
-57
-38
-25
-9
-4
-26
-31
-56
-64
-56
-48
-21
-26
-31
-57
-6
-43
-27
-55
-41
1
17
26
46
64
74
71
75
90
78
80
66
32
66
57
2
-27
-58
-62
-70
-49
-42
-26
-12
-24
-36
-54
-56
-54
-62
-39
-35
-33
-19
-21
-22
-25
-64
-58
-72
-51
-39
-27
-10
-38
-37
-60
-78
-67
-65
-55
-46
-40
-10
-10
-30
-11
-30
-44
-51
-45
-28
-34
-24
-20
-28
-46
-68
-67
-36
-26
-20
-2
0
-6
-22
-49
-92
-58
-55
-30
-25
-12
-12
-5
-35
-31
-62
-58
-39
-25
-24
-2
-12
-16
-12
-46
-48
-63
-53
-39
-2
17
18
-17
-25
-17
-39
-38
-33
-11
-7
26
4
0
-4
-10
-35
-41
-27
-8
-14
12
7
9
-9
-12
-32
-49
-5
-10
19
9
-1
21
9
-29
-62
-41
-42
-27
-15
0
11
6
-14
-20
-35
-68
-34
-14
-12
9
10
-11
-39
-49
-66
-68
-67
-68
-21
-23
-2
-19
-23
-56
-70
-74
-59
-44
-24
-8
-16
-10
-77
-80
-81
-69
-45
-27
-35
9
7
-31
-44
-67
-85
-74
-59
-37
-17
-4
-28
-29
-38
-53
-75
-60
-52
-36
-46
-15
-11
-29
-52
-65
-74
-52
-35
-15
-14
-32
-37
-20
-59
-64
-61
-49
-29
-25
-10
-12
-14
-42
-31
-44
-53
-67
-38
-45
-24
-8
-27
-32
-36
-59
-50
-36
-40
-44
-3
-6
-5
-37
-63
-73
-82
-52
-26
-11
-6
-7
-30
-50
-50
-64
-69
-54
-24
-35
-28
-14
-28
-19
-50
-74
-60
-56
-61
-43
4
9
-10
-34
-31
-64
-45
-51
-42
-26
-10
-11
-8
-36
-35
-103
-66
-59
-59
-25
-4
1
-45
-70
-61
-71
-80
-56
-50
-11
-13
11
-47
-45
-59
-77
-62
-51
-20
-8
-17
-8
-18
-51
-24
-53
-56
-55
-61
-18
-13
-24
-53
-31
-43
-56
-67
-58
-34
-24
1
22
-19
-48
-71
-77
-67
-53
-41
-24
4
11
-37
-30
-43
-54
-36
-55
-32
-37
-35
-37
-29
-19
-50
-80
-60
-41
-40
-25
-30
-40
-26
-47
-73
-59
-83
-71
-35
-26
-20
-28
-38
-2
-64
-56
-53
-5
18
60
88
124
127
121
83
69
74
63
-11
-13
-4
-31
-57
-62
-76
-62
-43
-70
-35
-18
4
-22
-36
-50
-62
-78
-74
-36
-48
-25
-44
-16
-27
-38
-65
-83
-68
-39
-43
-16
-10
-57
-49
-43
-56
-63
-79
-57
-51
-27
-34
-21
-34
-49
-78
-36
-49
-48
-28
-13
-21
-24
-36
-43
-68
-73
-57
-34
-32
-9
-6
-25
-40
-62
-55
-68
-60
-33
-19
-19
-10
-6
-31
-71
-36
-44
-31
-28
-11
4
2
-4
-20
-69
-66
-66
-58
-11
-17
27
-20
-20
-23
-28
-48
-44
-28
-15
-6
5
5
-1
-42
-23
-32
-31
-36
-23
-7
18
16
14
12
-31
-2
-18
-31
-19
20
-3
6
20
-12
-45
-38
-25
-30
-13
-16
0
-9
-20
-22
-38
-51
-60
-46
-24
-30
-16
-28
-6
-43
-65
-90
-91
-20
-50
-16
-23
-14
-14
-38
-62
-65
-70
-47
-38
-44
-21
-19
-33
-52
-69
-70
-40
-44
-19
-13
-11
-25
-58
-54
-82
-98
-62
-42
-31
-37
-45
-22
-63
-36
-64
-81
-53
-36
-13
-26
-17
-29
-51
-60
-76
-73
-57
-41
-27
-9
0
-9
-52
-68
-67
-86
-92
-45
-29
-6
-31
-17
-29
-67
-78
-63
-53
-64
-21
-25
-17
-44
-56
-56
-54
-85
-61
-40
-30
10
-16
-38
-29
-49
-86
-85
-59
-4
-25
-17
-2
-30
-62
-87
-82
-56
-69
-50
-39
-25
-17
-36
-34
-66
-50
-72
-58
-33
-51
-32
-1
-49
-37
-52
-57
-63
-66
-70
-50
-37
-31
-33
-41
-76
-70
-56
-42
-53
0
9
-38
-62
-52
-84
-79
-81
-56
-62
-31
4
-18
-31
-32
-71
-78
-68
-66
-25
-19
-37
-32
-19
-42
-64
-81
-47
-48
-50
-6
-46
-30
-56
-40
-86
-85
-65
-24
-24
6
-2
-10
-14
-26
-93
-66
-85
-29
-46
1
10
-16
-32
-42
-62
-56
-43
-61
-52
-23
-21
-46
-45
-46
-77
-79
-79
-37
-48
-2
-25
-33
-38
-81
-82
-62
-45
-44
-37
-11
-23
-44
-69
-73
-90
-68
-76
-44
21
26
25
24
22
41
53
68
94
143
113
120
80
44
-21
-84
-75
-80
-83
-50
-26
-26
-26
-35
-34
-56
-74
-61
-60
-52
-55
-48
-37
-25
-43
-51
-49
-52
-50
-43
-49
-34
-25
-54
-58
-82
-65
-81
-58
-40
-14
-1
-27
-14
-50
-85
-47
-56
-59
-45
-12
3
-46
-48
-39
-60
-82
-54
-69
-42
-16
-17
-32
-33
-8
-65
-58
-70
-48
-29
-21
5
-15
-35
-44
-80
-89
-84
-35
-29
-16
16
-15
-19
-17
-57
-47
-53
-44
-24
-25
27
-11
6
-31
-66
-73
-36
-23
-17
-13
17
-2
-38
-37
-53
-43
-39
-8
7
16
36
12
9
-20
-56
-68
-51
-8
1
8
24
-4
-19
-19
-23
-24
-42
-25
-35
16
15
-10
-35
-28
-44
-76
-25
-22
-16
14
-6
-24
-54
-47
-58
-36
-63
-30
-17
-19
-24
-29
-44
-61
-78
-59
-42
-20
-45
-29
-11
-39
-44
-82
-77
-53
-69
-40
-29
-35
-49
-14
-65
-45
-36
-81
-30
-48
-24
-24
-40
-29
-45
-59
-57
-87
-62
-53
-39
-3
-25
-57
-62
-67
-73
-73
-46
-26
-4
6
-46
-44
-53
-72
-75
-61
-57
-38
-30
13
-16
-39
-46
-70
-92
-70
-26
-31
-18
-19
0
-24
-52
-90
-68
-63
-59
-40
-28
-46
-37
-41
-52
-84
-67
-60
-31
-44
-19
-31
-27
-42
-55
-71
-70
-58
-55
-32
-20
-15
-35
-48
-42
-75
-90
-65
-50
-43
-54
-15
-19
-37
-31
-32
-80
-59
-42
-50
-30
-24
-54
-51
-62
-86
-87
-87
-51
-48
-15
4
-37
-65
-46
-82
-82
-72
-39
-36
-28
-17
8
-46
-60
-92
-92
-67
-50
-31
-11
0
-26
-45
-47
-87
-82
-68
-63
-32
-23
-8
-28
-18
-45
-56
-75
-74
-40
-11
4
-9
-47
-39
-57
-75
-69
-52
-29
-26
-2
-6
-27
-29
-80
-87
-81
-81
-41
-52
-30
-15
-32
-53
-71
-105
-74
-66
-29
-48
-13
-22
-37
-45
-66
-83
-101
-66
-46
0
22
47
0
5
22
18
34
82
99
131
96
82
55
3
-63
-78
-80
-87
-61
-16
-15
-20
-32
-65
-81
-83
-72
-50
-55
4
-21
-15
-59
-46
-89
-96
-80
-48
-61
-14
-28
-33
-39
-54
-70
-75
-67
-67
-19
-14
-15
-36
-27
-46
-78
-77
-71
-33
-26
-12
-38
-37
-73
-51
-74
-62
-29
-31
-37
0
16
-47
-56
-63
-71
-86
-49
-30
-44
-3
-45
-18
-54
-64
-90
-61
-52
-43
-22
-26
-7
-27
-41
-36
-53
-35
-43
-34
-13
-8
-10
-31
-26
-39
-40
-67
-42
-21
-6
15
-2
-22
-7
-48
-41
-35
-44
-24
9
5
2
8
-12
-33
-18
-40
-21
-9
17
19
9
7
-17
-36
-48
-54
-32
-42
-9
-20
6
11
-15
-46
-53
-19
-32
-39
4
10
-29
-37
-19
-68
-81
-51
-58
-42
9
-17
-24
-19
-80
-34
-82
-69
-47
-39
-18
15
0
-70
-46
-91
-89
-75
-62
-54
-22
-60
-21
-51
-48
-85
-82
-66
-46
-23
-30
-15
-21
-22
-45
-42
-77
-44
-33
-57
-36
-30
-14
-68
-45
-76
-59
-71
-58
-42
-20
0
-31
-23
-50
-78
-71
-58
-45
-38
-10
-12
-18
-41
-43
-70
-78
-81
-63
-40
8
-27
-20
-30
-30
-81
-87
-74
-33
-28
-20
-2
-35
-36
-59
-61
-68
-39
-50
-44
5
-3
-26
-33
-63
-77
-86
-80
-39
-51
-21
-17
-26
-37
-52
-77
-76
-43
-40
-22
0
-50
-58
-66
-55
-67
-74
-47
-48
-24
-15
-7
-41
-52
-71
-78
-58
-53
-49
-25
-21
-30
-44
-61
-58
-82
-72
-58
-57
-3
-24
-18
-43
-43
-69
-55
-42
-22
-31
-10
-14
-14
-7
-18
-67
-62
-42
-14
-37
6
-26
-42
-56
-35
-85
-77
-57
-43
-42
-29
-16
-9
-62
-43
-88
-72
-86
-69
-41
-8
-12
-41
-51
-50
-86
-67
-58
-43
-40
-7
-25
-56
-57
-60
-94
-83
-30
0
-2
46
60
51
42
45
39
39
84
115
69
116
97
59
-4
-45
-84
-101
-79
-57
-59
-12
-53
-42
-38
-46
-71
-72
-54
-40
-39
-18
-18
-37
-46
-62
-70
-79
-56
-46
-46
-23
-21
-44
-40
-35
-74
-79
-69
-37
-36
-32
7
-23
-60
-45
-69
-97
-70
-41
-45
-24
7
-23
-40
-53
-82
-83
-63
-58
-27
-3
-9
-32
-62
-67
-83
-83
-57
-54
-18
-3
20
-21
-55
-41
-80
-68
-61
-29
-21
0
8
-33
-49
-46
-45
-50
-39
-28
-9
-10
1
-19
-22
-39
-41
-51
-49
-25
-12
-7
-16
-28
-50
-63
-59
-32
0
-1
-2
9
20
1
-10
-39
-26
-32
-14
-3
-15
18
-4
-15
7
-20
-38
-52
-20
-2
1
-8
-15
-29
-38
-60
-73
-51
-35
-9
-2
-9
-16
-52
-50
-76
-74
-78
-64
-43
11
1
-37
-45
-65
-63
-69
-65
-52
-40
-46
13
6
-45
-77
-96
-70
-63
-46
-17
-8
-29
-37
-56
-46
-68
-102
-70
-57
-38
-41
-39
-54
-39
-52
-48
-73
-52
-48
-26
-34
-22
-48
-63
-70
-61
-79
-51
-42
-26
-1
-14
-26
-55
-53
-72
-76
-84
-65
-24
-7
-12
-26
-32
-52
-89
-97
-81
-41
-43
-18
-7
-40
-18
-60
-56
-60
-42
-48
-30
-22
-5
-50
-63
-95
-89
-83
-86
-55
-2
-24
-28
-26
-16
-57
-63
-94
-55
-47
-34
-23
-19
-50
-62
-77
-74
-63
-57
-53
2
-12
-30
-58
-48
-90
-81
-74
-34
-38
-9
-11
-24
-48
-46
-64
-90
-85
-71
-46
-15
-23
-27
-58
-50
-79
-80
-63
-32
-39
-16
-18
-39
-61
-62
-69
-65
-68
-44
-48
17
-15
-20
-37
-53
-50
-65
-39
-37
-47
-37
-9
-13
-29
-24
-73
-86
-71
-77
-54
-27
-9
-21
-31
-62
-76
-94
-62
-27
-47
-52
-31
-38
-53
-61
-75
-87
-55
-46
-56
-11
-9
-3
-50
-66
-69
-68
-50
-53
-12
12
28
13
-3
0
9
38
96
119
140
126
111
52
1
-63
-108
-87
-66
-45
-17
-20
-52
-30
-45
-79
-71
-66
-55
-36
-30
-17
-30
-43
-69
-73
-97
-59
-32
-51
-25
-34
-29
-44
-33
-54
-71
-66
-68
-60
-13
-16
-34
-40
-52
-61
-74
-69
-61
-49
4
-39
-16
-41
-46
-103
-97
-81
-56
-24
5
13
-14
-21
-46
-80
-58
-53
-37
-63
-32
-10
-14
-32
-43
-74
-64
-45
-30
-33
-19
-19
-16
-29
-62
-84
-41
-28
-44
-26
2
1
-1
-19
-48
-93
-75
-38
-35
15
34
7
-11
-21
-18
-51
-49
-32
-21
-29
12
2
8
-17
-49
-27
-23
-33
-27
8
20
15
-12
-31
-20
-70
-41
-38
-7
-14
15
13
-8
-2
-9
-52
-61
-59
-20
-34
-25
-1
-6
-40
-30
-73
-46
-41
-36
-29
-27
-11
-49
-70
-78
-107
-70
-26
-47
-12
5
-1
-37
-52
-75
-96
-101
-78
-61
6
-15
-45
-16
-31
-57
-70
-71
-69
-59
-14
-8
-21
-40
-38
-68
-70
-79
-51
-57
-22
-37
-19
-32
-25
-75
-57
-76
-62
-58
-4
7
-29
-54
-66
-80
-72
-69
-30
-9
-17
-25
-19
-43
-39
-77
-58
-73
-36
-54
-24
-21
-28
-29
-55
-73
-87
-40
-41
-23
-20
-13
-22
-41
-49
-82
-84
-66
-51
-41
-26
-24
-57
-46
-47
-80
-89
-95
-36
-17
-10
-19
-36
-48
-73
-100
-52
-48
-29
-9
-19
-35
-23
-74
-74
-98
-84
-71
-41
-19
-38
-11
-38
-47
-69
-85
-72
-56
-59
-45
-33
-5
-26
-40
-41
-60
-69
-64
-53
-28
-31
-22
-33
-74
-89
-74
-34
-48
-16
-11
6
-16
-17
-42
-53
-82
-68
-53
-17
-16
0
3
-22
-41
-93
-82
-64
-79
-33
-20
-12
-14
-59
-41
-61
-94
-75
-64
-48
-28
-48
-18
-40
-67
-79
-93
-71
-58
-46
-2
-10
-28
6
-49
-89
-106
-101
-63
-83
11
13
8
18
20
7
6
49
73
105
128
141
110
69
32
-54
-71
-78
-64
-38
-11
-21
-49
-31
-37
-79
-73
-80
-39
-30
-25
-23
-34
-48
-46
-78
-67
-56
-30
-72
-21
-36
-42
-49
-71
-90
-72
-54
-18
-30
-3
-28
-34
-32
-71
-77
-64
-69
-32
-45
-29
-24
-21
-16
-35
-70
-71
-46
-56
-31
-4
-12
-25
-36
-53
-65
-56
-73
-57
-34
-13
-21
-24
-27
-71
-64
-57
-62
-67
-1
19
-4
-26
-19
-53
-77
-73
-47
-24
-4
10
-11
-20
-22
-69
-40
-49
-26
-16
-16
12
-6
8
-21
-48
-56
-32
-26
-53
7
15
15
-11
-14
-30
-44
-30
-17
-18
31
-6
25
-2
-34
-53
-32
-36
-25
-44
27
24
4
-16
-8
-41
-47
-39
-50
-27
-1
5
-15
-6
-41
-54
-68
-41
-40
-32
-18
-26
-26
-36
-30
-81
-76
-53
-38
-47
-46
-25
-8
-45
-69
-70
-64
-55
-49
-38
-21
-30
-1
-41
-82
-89
-78
-80
-44
-40
-1
14
-21
-38
-84
-89
-56
-72
-59
-33
-12
-21
-14
-44
-73
-84
-60
-47
-34
1
-9
-42
-52
-74
-46
-60
-86
-64
-41
-20
-11
-34
-22
-42
-67
-74
-72
-61
-37
-20
-11
-9
-63
-53
-75
-57
-82
-60
-54
-22
1
-7
-6
-27
-34
-77
-67
-59
-45
-16
-21
-7
-29
-61
-57
-63
-63
-49
-45
-38
-32
-11
-58
-68
-84
-88
-58
-39
-26
-17
-23
-52
-39
-62
-56
-66
-51
-62
-39
-30
-10
-31
-22
-40
-83
-64
-65
-40
-36
0
-21
-32
-43
-38
-64
-85
-73
-46
-31
-11
-30
-14
-40
-69
-54
-41
-58
-49
-31
7
11
-28
-40
-36
-56
-63
-54
-44
-20
-30
-22
-32
-62
-66
-95
-80
-47
-41
-33
-17
-22
-39
-62
-49
-81
-85
-59
-30
-17
-22
-41
-28
-60
-67
-86
-91
-63
-57
-55
-18
-13
-17
-37
-15
-36
-21
-5
14
37
92
68
83
87
83
39
34
17
0
-40
-34
-37
-46
-67
-66
-83
-62
-83
-68
-54
-45
-32
-42
-55
-48
-61
-60
-55
-67
-28
-29
-28
-47
-33
-64
-74
-73
-76
-37
-36
-27
-35
-30
-56
-67
-73
-73
-63
-38
-32
-26
-36
-31
-52
-75
-63
-69
-46
-37
-20
-38
-36
-27
-45
-70
-72
-58
-50
-50
5
10
-1
-34
-42
-90
-70
-62
-49
-57
-2
-12
-17
-37
-26
-36
-46
-63
-22
-51
-38
-5
-7
-30
-56
-62
-53
-40
-22
-31
-31
-7
12
-5
-34
-60
-74
-51
-15
-17
34
27
16
-7
-11
-38
-46
-43
-3
-28
19
2
5
-33
-19
-65
-43
-24
-16
-2
15
21
16
1
-51
-56
-71
-38
-14
-11
-6
-8
-34
-17
-38
-35
-76
-64
-68
-42
-27
2
-14
-30
-39
-72
-71
-36
-37
-42
-7
-13
-38
-51
-62
-103
-79
-62
-68
-26
-15
-24
-18
-59
-63
-94
-68
-41
-41
-31
-32
-32
-29
-57
-84
-74
-78
-85
-46
-27
-11
-28
-42
-52
-75
-82
-74
-67
-45
-30
-19
-32
-56
-41
-34
-78
-86
-60
-55
-20
2
-10
-37
-52
-77
-68
-76
-67
-46
-3
-18
-22
-40
-56
-86
-90
-77
-67
-72
-36
-32
-34
-24
-43
-59
-44
-30
-46
-40
-4
-32
-37
-33
-68
-100
-81
-64
-71
-65
-26
-24
-36
-57
-56
-68
-64
-61
-78
-60
-28
-23
-7
-37
-49
-83
-83
-103
-81
-53
-9
-2
-47
-61
-50
-75
-91
-61
-33
-32
-22
-40
-41
-57
-69
-85
-95
-65
-41
-38
-13
-19
-23
-52
-47
-99
-64
-59
-30
-23
14
15
8
-19
-67
-123
-47
-65
-47
-40
-2
-14
-36
-73
-78
-83
-77
-77
-58
-24
-24
-28
-49
-51
-57
-86
-96
-71
-42
-52
-38
-28
-56
-21
-65
-79
-80
-70
-56
-29
-43
-49
-53
-23
-41
-45
-33
-29
33
21
61
63
102
94
64
62
54
68
37
21
-10
-22
-53
-69
-74
-96
-89
-56
-50
-30
-24
-41
-47
-76
-81
-92
-71
-61
-58
-11
-24
-17
-51
-47
-67
-70
-60
-50
-26
-40
-41
-59
-35
-49
-66
-59
-76
-65
-54
-15
-30
-41
-46
-74
-78
-71
-65
-45
-48
-13
-15
-32
-37
-42
-82
-76
-62
-74
-44
-12
-3
-27
-33
-34
-53
-65
-67
-48
-32
-14
-8
-23
-44
-68
-75
-65
-71
-33
-42
-17
8
-19
-33
-30
-55
-64
-43
-33
-15
-8
-26
-18
-10
-32
-66
-54
-42
-23
-7
19
-4
-6
-24
-19
-43
-44
-32
-18
-15
-2
1
-1
9
-22
-32
-47
-11
-26
-7
19
-8
-12
-19
-11
-51
-70
-32
-36
-34
1
-7
-26
-35
-46
-54
-66
-27
-30
-34
2
-4
-23
-48
-73
-61
-49
-68
-37
-39
-37
-25
-32
-37
-83
-91
-91
-52
-55
-21
-31
-21
-29
-55
-71
-90
-73
-41
-47
-41
-43
-46
-52
-39
-65
-77
-59
-55
-33
-16
-28
-45
-54
-48
-73
-111
-70
-46
-43
-1
-1
-17
-43
-57
-76
-64
-72
-68
-43
-20
-32
-22
-54
-65
-99
-80
-74
-69
-48
-24
-1
-17
-48
-43
-77
-67
-86
-61
-56
-30
-23
-28
-32
-58
-65
-80
-62
-35
-50
-36
-22
-13
-48
-54
-82
-69
-71
-62
-51
-26
-10
-26
-56
-53
-86
-56
-73
-42
-27
-9
-54
-54
-65
-76
-98
-103
-55
-41
-34
-28
-39
-73
-65
-49
-68
-82
-66
-42
-22
-43
-53
-34
-51
-77
-94
-64
-50
-46
-28
-4
-19
-36
-52
-73
-72
-85
-71
-53
-45
-4
-4
-39
-60
-88
-88
-79
-59
-42
-19
-28
-28
-33
-28
-68
-51
-57
-48
-45
-21
-7
-18
-46
-23
-87
-98
-85
-83
-37
-16
-22
-3
-30
-47
-55
-101
-91
-78
-56
-35
-25
-48
-44
-39
-85
-97
-94
-87
-54
-28
-32
-63
-62
-35
-82
-88
-69
-49
-9
4
13
-8
4
6
2
19
54
64
113
123
113
91
56
-19
-100
-92
-110
-72
-39
8
-33
-55
-48
-81
-83
-71
-70
-74
-62
-15
-27
-51
-72
-63
-81
-83
-70
-56
-45
-21
-39
-50
-53
-59
-80
-78
-87
-73
-52
-24
-15
-32
-49
-68
-60
-51
-88
-50
-44
-33
-42
-51
-40
-50
-75
-81
-76
-36
-48
-6
-29
-51
-44
-47
-58
-89
-72
-69
-15
-37
-28
-57
-72
-67
-58
-11
-53
-51
-20
-26
-23
-40
-55
-86
-73
-69
-77
-43
-20
-11
-39
-31
-3
-36
-38
-63
-47
-50
-7
2
-18
1
-6
-49
-68
-28
-37
-30
-6
-11
4
10
-23
-54
-72
-51
-51
-36
6
10
7
4
-27
-45
-45
-62
-51
-42
6
20
-1
-19
-34
-54
-89
-58
-37
-24
-31
-23
-17
-39
-42
-73
-64
-52
-43
-52
-19
-8
-9
-44
-63
-79
-84
-73
-71
-62
-26
-24
-37
-60
-73
-90
-89
-66
-33
-60
-57
-25
-36
-58
-71
-71
-70
-77
-47
-47
-10
-26
-42
-56
-49
-56
-103
-85
-58
-42
-9
-20
-34
-77
-84
-92
-59
-60
-68
-32
-33
-38
-43
-58
-67
-67
-72
-71
-69
-33
-10
-12
-21
-47
-77
-118
-94
-67
-64
-29
-18
-38
-29
-38
-47
-76
-70
-67
-59
-16
-9
-23
-70
-85
-59
-76
-78
-60
-46
-49
-41
-42
-36
-31
-52
-88
-105
-68
-38
-24
-33
-42
-52
-42
-103
-69
-95
-48
-51
-29
-41
-41
-68
-48
-74
-51
-36
-34
-42
-35
-52
-37
-57
-59
-93
-87
-106
-7
-62
-17
-30
-18
-24
-70
-98
-105
-69
-43
-49
-45
-34
-53
-49
-46
-69
-77
-70
-65
-45
-19
-38
-48
-74
-77
-92
-100
-88
-63
-50
-16
-3
-36
-43
-30
-88
-79
-74
-46
