22
23
5
-8
-23
-31
-35
-24
-2
17
24
21
6
-3
-19
-37
-35
-22
-2
11
22
25
10
-7
-25
-31
-23
-20
-4
15
26
27
15
-2
-19
-27
-22
-11
7
22
35
32
24
-5
-22
-27
-24
-12
12
27
34
24
17
-7
-27
-33
-29
-22
1
20
27
21
6
-19
-35
-41
-31
-18
4
26
24
20
5
-19
-36
-40
-33
-20
7
21
20
20
3
-21
-37
-39
-32
-22
3
16
21
12
-2
-26
-42
-49
-47
-30
-9
4
15
16
17
14
13
26
45
76
108
121
116
91
59
35
17
4
-6
-24
-33
-18
-12
-24
-36
-55
-67
-69
-54
-37
-11
7
13
5
-9
-26
-33
-34
-24
-9
15
24
24
13
4
-18
-31
-29
-17
1
17
30
27
16
-4
-18
-28
-30
-15
3
18
29
26
21
1
-17
-28
-22
-15
6
27
39
34
19
1
-18
-20
-19
-10
16
32
38
35
22
3
-15
-23
-17
-4
19
32
43
40
26
6
-12
-16
-10
-5
30
47
47
44
34
11
4
-5
-2
10
37
56
61
53
46
32
9
9
16
26
52
71
75
74
58
43
30
16
21
38
65
85
89
84
71
44
27
23
28
40
62
78
79
72
59
30
13
8
13
19
43
54
51
41
29
2
-15
-23
-14
2
22
36
31
23
5
-18
-32
-39
-27
-13
13
23
26
14
-3
-26
-41
-40
-33
-18
7
17
20
3
-7
-36
-43
-42
-29
-17
5
15
15
2
-13
-33
-44
-48
-36
-9
7
10
14
10
-9
-27
-41
-38
-32
-18
3
20
19
7
-11
-33
-43
-40
-31
-9
8
18
12
3
-13
-30
-42
-37
-24
-4
10
18
16
4
-19
-34
-42
-36
-24
-6
15
20
19
5
-20
-34
-43
-38
-27
-5
13
19
13
1
-21
-33
-38
-38
-25
-5
12
19
10
0
-25
-36
-40
-36
-24
-2
14
19
10
-3
-26
-40
-46
-38
-25
-3
12
15
9
-6
-31
-37
-45
-39
-27
-7
14
14
11
-4
-31
-44
-47
-35
-22
3
13
14
8
-2
-31
-38
-41
-34
-18
6
20
21
13
0
-25
-37
-39
-29
-17
7
20
23
12
-2
-27
-41
-37
-30
-17
7
16
16
2
-14
-37
-41
-44
-40
-20
-2
15
14
0
-16
-34
-49
-49
-36
-19
1
8
9
-1
-16
-40
-51
-49
-34
-17
0
9
4
-9
-23
-35
-48
-48
-36
-18
-3
-1
-5
-17
-37
-56
-62
-53
-32
-2
33
59
73
74
74
67
68
63
58
59
70
78
54
21
-31
-77
-83
-80
-66
-40
-21
-11
-17
-24
-42
-55
-60
-52
-40
-9
11
16
13
2
-27
-42
-46
-37
-26
0
18
19
10
-2
-27
-34
-38
-33
-23
0
18
21
16
-1
-23
-37
-37
-35
-19
4
20
22
10
1
-23
-34
-34
-25
-16
7
17
23
17
5
-14
-26
-33
-22
-6
18
27
30
20
8
-19
-26
-28
-18
-6
22
28
34
26
12
-9
-24
-20
-5
6
29
41
45
35
22
-3
-11
-11
-1
14
43
54
56
48
37
12
5
8
17
35
55
62
69
58
37
19
14
13
27
45
64
69
69
60
39
19
9
8
18
38
52
58
52
40
22
-1
-12
-14
-7
9
30
31
29
15
-10
-27
-38
-34
-24
-1
12
16
15
1
-18
-39
-49
-43
-30
-6
9
22
10
0
-27
-44
-52
-44
-32
-11
6
11
9
-3
-28
-43
-50
-44
-31
-8
8
12
2
-8
-31
-44
-50
-42
-30
-4
9
11
9
-4
-32
-50
-44
-42
-31
-1
11
18
6
-8
-29
-45
-44
-39
-24
-1
13
16
10
-7
-29
-39
-44
-37
-23
2
12
13
5
-9
-29
-37
-41
-31
-19
5
15
17
8
-6
-29
-42
-43
-33
-17
6
12
17
6
-4
-31
-42
-39
-31
-17
9
13
14
7
-7
-29
-41
-42
-31
-19
10
20
20
8
-15
-41
-38
-41
-27
-9
9
16
16
2
-14
-34
-42
-45
-32
-10
8
17
17
4
-20
-34
-42
-41
-29
-9
9
11
13
0
-18
-36
-44
-38
-27
-10
9
18
10
-1
-20
-37
-42
-40
-23
0
12
21
12
1
-22
-36
-40
-37
-26
-4
13
20
15
2
-16
-30
-35
-29
-19
8
21
28
18
7
-14
-26
-35
-25
-18
3
16
26
16
5
-21
-36
-37
-31
-17
2
14
18
15
-4
-28
-39
-44
-35
-24
2
13
15
6
-4
-30
-45
-49
-35
-22
4
11
18
7
-10
-33
-45
-45
-39
-27
4
15
15
6
-10
-33
-46
-48
-45
-33
-12
-1
4
-8
-16
-32
-27
-12
14
54
93
117
128
122
95
60
26
24
29
29
31
11
-20
-33
-53
-73
-79
-71
-57
-40
-11
8
3
-3
-20
-34
-42
-37
-27
-10
8
22
19
6
-15
-33
-36
-34
-25
0
16
22
18
9
-12
-31
-37
-32
-23
0
18
29
20
11
-9
-26
-33
-28
-16
4
22
23
22
14
-6
-23
-29
-26
-14
13
27
30
26
12
-9
-20
-27
-27
-9
15
29
34
32
16
-6
-18
-22
-20
-4
21
37
43
35
24
-1
-14
-12
-7
6
31
48
53
47
37
12
0
4
9
22
47
59
62
61
50
25
14
11
23
34
57
67
73
64
57
35
19
20
32
41
64
75
76
65
52
21
10
7
18
28
52
60
60
48
29
2
-14
-14
-5
8
27
34
30
21
3
-20
-28
-30
-19
-7
12
21
18
8
-13
-36
-41
-36
-20
-9
7
11
15
3
-12
-36
-44
-42
-30
-10
8
14
12
3
-16
-34
-48
-35
-28
-10
5
12
10
5
-21
-37
-43
-39
-28
-5
13
14
12
7
-19
-35
-42
-37
-24
-3
12
20
13
3
-21
-34
-41
-33
-23
1
14
23
15
5
-16
-35
-42
-32
-20
1
21
26
16
4
-18
-34
-37
-32
-22
4
23
26
19
4
-18
-34
-39
-30
-14
8
19
26
16
3
-23
-37
-41
-33
-20
7
21
24
11
-5
-32
-34
-40
-32
-17
3
18
19
7
-5
-27
-38
-41
-27
-16
7
17
19
9
-5
-27
-42
-37
-30
-13
11
16
19
10
-11
-30
-38
-42
-32
-14
13
20
19
3
-10
-32
-37
-39
-29
-13
7
17
18
13
-5
-27
-38
-38
-26
-11
9
19
17
6
-11
-30
-38
-36
-26
-7
10
17
16
8
-11
-26
-38
-33
-25
-3
8
11
9
3
-10
-39
-40
-35
-22
0
17
24
17
3
-16
-34
-37
-33
-24
1
15
18
15
6
-16
-34
-40
-34
-21
3
19
20
21
8
-15
-31
-37
-27
-16
11
21
27
25
14
-11
-31
-32
-27
-15
12
24
25
13
8
-19
-32
-42
-29
-18
7
20
22
10
-1
-22
-36
-46
-40
-20
6
13
20
8
-7
-29
-37
-43
-33
-20
6
15
18
8
-9
-31
-40
-40
-30
-19
2
11
13
5
-10
-31
-47
-45
-37
-25
-3
7
14
15
8
1
11
27
52
84
120
140
133
102
65
34
23
7
-4
-12
-24
-20
-19
-32
-43
-54
-62
-59
-44
-18
2
14
15
3
-13
-30
-38
-34
-22
1
16
25
19
12
-9
-21
-29
-27
-15
3
21
26
27
14
-9
-27
-30
-26
-13
4
21
36
29
20
-10
-24
-31
-22
-6
11
28
33
29
16
-1
-19
-29
-21
-7
13
31
36
30
21
-2
-16
-22
-16
-1
23
38
39
38
27
5
-12
-16
-12
0
33
40
50
41
37
11
-4
-4
5
19
43
60
63
58
44
18
5
6
17
33
57
71
79
69
55
32
20
19
30
45
70
83
87
73
57
40
27
23
37
52
75
83
82
76
59
32
18
20
25
38
59
63
61
44
30
6
-4
-5
-3
12
31
42
37
27
13
-11
-25
-26
-17
-1
21
30
30
18
1
-20
-29
-31
-19
1
15
26
26
15
-1
-20
-35
-33
-22
-1
21
28
22
12
-5
-26
-35
-28
-18
0
24
29
25
15
-4
-22
-36
-25
-17
3
22
29
24
11
-11
-24
-30
-21
-9
8
26
27
24
17
-4
-24
-25
-24
-13
14
31
35
30
15
-6
-22
-26
-21
-9
18
32
36
32
23
-6
-23
-26
-15
-9
15
27
33
27
14
-10
-27
-27
-23
-7
23
34
34
22
10
-14
-25
-29
-19
-6
21
29
27
20
13
-9
-25
-26
-20
-4
18
29
31
23
13
-9
-19
-26
-15
-1
20
29
33
27
16
-5
-21
-23
-9
11
31
42
43
34
14
-4
-20
-15
-6
12
31
40
40
31
19
-8
-13
-17
-6
7
30
45
45
35
15
-9
-14
-17
-6
16
39
41
39
32
13
-10
-15
-11
-5
20
34
45
42
31
8
-11
-17
-12
-2
21
41
43
33
27
11
-6
-15
-15
2
24
36
42
38
30
6
-8
-14
-11
-1
24
44
50
45
31
7
-7
-12
-6
7
30
46
46
42
41
13
-4
-8
-3
10
33
43
55
50
40
5
-3
-8
2
14
33
50
52
48
37
10
-6
-14
-5
8
34
51
53
40
29
1
-11
-12
-3
10
32
46
44
31
21
-2
-15
-18
-3
13
36
41
46
32
18
-5
-13
-13
-6
11
31
43
50
36
18
-4
-15
-18
-16
6
23
37
32
29
18
9
11
31
56
93
123
148
153
138
109
64
50
48
40
43
39
17
5
-3
-18
-35
-45
-45
-31
-7
17
34
32
27
13
-2
-11
-8
4
24
45
52
46
38
20
0
-1
-4
15
32
49
55
51
38
21
2
-9
7
18
38
52
56
55
43
20
3
-1
7
12
41
53
64
54
43
28
11
4
7
18
46
62
67
61
46
28
13
3
9
28
53
67
70
63
49
31
16
10
20
29
63
68
76
73
63
39
24
19
25
40
64
84
85
76
72
47
36
31
39
54
80
94
97
88
80
56
49
45
55
72
92
106
105
101
84
64
54
52
64
82
98
105
104
97
79
53
45
41
49
66
80
95
86
77
56
28
21
16
27
41
55
69
67
54
35
4
0
-2
10
25
46
53
51
39
22
0
-9
-10
0
22
41
49
47
34
16
-7
-12
-9
1
19
40
50
41
30
10
-12
-19
-12
-1
22
39
43
44
30
9
-4
-12
-14
-3
24
40
47
43
29
14
-11
-16
-8
9
25
44
51
44
30
6
-7
-14
-7
5
27
46
47
41
30
9
-9
-8
-4
6
30
51
51
45
34
11
-6
-15
-1
10
41
46
47
44
31
8
-8
-8
-7
7
28
48
50
40
27
-2
-19
-8
0
11
33
46
48
36
28
5
-8
-14
-4
7
33
48
47
35
25
2
-6
-12
-5
10
35
48
50
35
20
-1
-10
-13
-1
11
30
44
45
34
21
-4
-15
-15
2
17
36
43
44
31
13
1
-13
-21
-3
14
37
46
44
34
9
-7
-17
-14
-2
17
35
46
47
30
17
-8
-18
-13
4
21
37
41
44
27
9
-11
-18
-12
3
21
38
48
44
32
12
-8
-15
-7
5
24
43
47
46
30
8
-5
-19
0
11
30
44
51
47
42
12
0
-5
0
13
36
51
50
53
33
16
-6
-12
-3
11
34
48
48
40
30
3
-15
-17
-7
-1
23
42
46
38
23
-2
-15
-18
-10
3
27
34
41
33
19
-2
-16
-23
-6
2
26
39
45
31
21
-4
-19
-17
-13
2
22
30
28
19
11
-4
-8
0
26
55
94
120
140
137
128
96
70
51
57
68
73
62
38
-2
-26
-46
-49
-44
-28
-10
8
24
26
20
11
-8
-18
-15
-6
18
37
51
45
33
17
-4
-9
-9
4
25
37
48
48
36
19
2
-7
-6
13
26
45
52
51
40
18
3
-5
-2
12
30
47
54
47
40
17
-2
-7
-3
13
35
51
58
52
46
24
5
0
6
15
41
55
63
58
47
29
8
4
9
19
48
63
67
59
50
30
17
8
19
30
55
74
77
70
61
38
20
21
30
44
69
83
88
87
74
50
44
41
47
58
83
96
100
92
85
57
49
45
55
71
92
104
109
94
79
59
44
37
43
61
82
90
89
73
62
33
15
15
23
40
60
68
68
49
30
7
-4
-6
0
19
39
50
49
35
22
-5
-15
-12
2
13
35
46
44
28
14
-1
-11
-18
0
19
32
44
43
32
10
-9
-16
-13
0
14
35
43
42
32
9
-6
-13
-14
-4
14
38
47
41
34
9
-9
-17
-13
-3
21
39
48
42
32
10
-4
-14
-12
4
32
47
48
45
39
8
-6
-11
-7
2
30
47
50
46
31
3
-10
-13
-7
6
35
44
46
44
34
8
-6
-13
-8
2
32
41
48
45
24
7
-4
-13
-3
9
30
52
49
41
32
3
-14
-15
-4
6
31
42
47
38
24
-2
-13
-15
-8
5
34
44
45
34
23
-3
-17
-16
-9
7
31
41
45
33
20
-5
-13
-21
-4
8
33
41
52
32
18
-5
-15
-14
-6
4
31
40
36
32
20
-3
-13
-15
-3
11
34
41
44
30
11
-9
-17
-14
-5
12
33
41
41
27
8
-11
-15
-14
-5
15
35
37
40
30
13
-8
-16
-11
-2
16
31
42
37
27
7
-7
-21
-15
-3
19
38
45
38
31
6
-9
-16
-8
-5
21
39
44
46
30
6
-12
-17
-8
2
25
39
45
41
31
15
-1
-7
-7
6
31
45
53
45
34
14
-2
-9
-4
5
33
46
47
37
29
3
-12
-12
-6
0
29
39
43
32
22
-2
-19
-20
-17
-1
24
34
36
29
22
-9
-20
-23
-16
-1
23
39
38
29
17
-10
-22
-23
-15
-3
23
32
34
24
11
-12
-26
-30
-19
-10
12
21
33
26
22
12
21
38
58
92
137
145
148
125
90
47
39
27
13
15
-1
-12
-8
-20
-31
-48
-55
-51
-32
-11
16
25
29
24
1
-16
-24
-19
-10
10
34
41
41
28
8
-13
-18
-18
-4
12
33
46
40
28
7
-9
-17
-13
-3
18
36
44
45
31
8
-11
-18
-8
2
22
39
45
39
32
9
-7
-14
-10
2
24
43
45
38
33
10
-8
-11
-4
9
32
48
51
42
32
10
-3
-7
-1
13
46
59
63
51
41
15
5
1
13
22
46
67
70
63
53
29
16
16
21
35
65
76
83
73
62
40
28
27
40
50
76
90
94
83
73
47
33
36
43
55
79
89
92
78
65
41
27
21
29
44
71
73
70
58
41
17
3
-4
6
20
39
43
45
34
11
-8
-17
-19
-4
10
25
34
33
21
7
-14
-29
-27
-20
3
24
30
29
18
-1
-24
-33
-26
-16
4
20
23
26
18
-1
-23
-33
-30
-11
3
20
27
25
16
-9
-23
-31
-28
-18
8
25
32
29
14
-3
-19
-28
-22
-8
10
26
27
24
17
-5
-27
-30
-24
-14
14
28
35
26
17
-10
-27
-26
-24
-12
13
27
33
26
19
-10
-22
-29
-21
-13
18
31
30
27
12
-12
-26
-29
-20
-7
16
28
32
24
12
-19
-22
-28
-22
-12
13
26
29
21
9
-14
-24
-29
-24
-8
19
29
27
19
7
-21
-24
-23
-20
-4
18
27
30
20
11
-22
-31
-32
-24
-4
18
30
32
20
4
-20
-30
-33
-21
-5
20
29
28
18
3
-18
-31
-26
-15
-2
24
30
29
21
4
-18
-30
-29
-17
6
22
28
29
19
4
-20
-33
-26
-16
4
20
23
23
12
-6
-31
-29
-27
-16
3
19
24
28
14
-3
-26
-35
-30
-17
3
18
27
27
13
-10
-21
-29
-26
-14
11
26
29
25
12
-7
-24
-29
-22
-15
8
28
33
29
12
-5
-19
-24
-20
-6
20
35
36
32
19
-1
-18
-21
-10
-6
25
39
40
32
19
-1
-13
-22
-14
-6
20
32
34
25
14
-11
-26
-30
-21
-8
16
26
29
21
11
-14
-25
-28
-25
-11
11
24
27
18
6
-15
-28
-29
-24
-12
17
30
36
17
2
-21
-29
-29
-18
-5
17
20
24
11
-9
-31
-33
-26
-1
31
66
91
112
121
119
104
85
66
54
62
82
81
56
19
-29
-62
-66
-62
-48
-26
-8
-1
11
2
-9
-26
-29
-24
-13
5
29
39
37
29
9
-8
-21
-19
-5
18
34
41
38
27
13
-11
-19
-12
-1
24
41
44
42
29
7
-9
-16
-11
-2
27
41
50
45
34
11
-9
-13
-8
0
31
46
54
46
36
10
-2
-8
-8
6
34
50
59
47
36
12
-2
-4
1
19
43
55
62
51
41
17
6
5
8
22
50
65
69
64
49
24
14
12
21
35
59
81
79
77
64
44
31
29
39
56
82
93
100
87
76
47
39
35
48
64
89
101
104
92
76
50
40
34
53
61
80
89
85
78
55
30
17
19
26
39
56
66
58
52
35
11
-1
-4
4
24
44
47
49
32
15
-5
-16
-16
-7
10
37
40
36
26
8
-11
-22
-19
-10
9
26
36
32
20
-1
-16
-21
-30
-9
13
28
31
28
21
1
-17
-26
-15
-10
8
27
34
33
20
-2
-19
-21
-18
-2
14
31
39
32
25
-1
-18
-25
-17
-6
21
36
39
38
27
5
-11
-23
-17
-6
21
34
38
31
22
6
-12
-20
-14
-4
22
38
40
32
20
-2
-17
-20
-12
-2
20
36
37
35
18
-4
-22
-22
-13
-2
22
37
35
31
13
-12
-23
-18
-16
-3
22
31
35
27
15
-10
-19
-19
-13
5
26
35
38
24
17
-10
-25
-27
-15
-2
23
33
32
23
11
-13
-22
-23
-15
3
22
33
29
17
9
-12
-27
-23
-10
5
24
37
34
20
7
-14
-22
-24
-10
9
24
34
34
20
4
-20
-27
-25
-13
8
27
34
32
21
6
-13
-21
-19
-7
15
32
40
36
26
10
-12
-18
-15
-4
18
35
38
35
24
6
-9
-20
-16
-6
13
31
43
33
18
0
-21
-26
-23
-12
10
27
29
24
17
-8
-21
-30
-23
-16
11
28
29
24
13
-6
-27
-30
-23
-13
13
28
33
26
11
-11
-26
-34
-20
-10
7
17
21
16
4
-25
-40
-43
-23
2
40
66
90
100
106
94
89
79
79
65
79
88
77
47
8
-50
-74
-76
-65
-50
-19
-6
0
-7
-13
-36
-39
-38
-27
-9
12
30
27
19
8
-13
-25
-25
-18
0
24
37
32
24
10
-15
-24
-24
-14
6
28
34
32
22
8
-10
-19
-25
-11
10
28
40
37
26
9
-11
-19
-21
-6
12
32
44
43
29
8
-7
-11
-11
2
24
40
47
45
35
15
-3
-10
-6
4
26
42
54
52
42
18
2
-3
2
15
34
54
63
56
44
23
9
4
10
25
47
64
63
64
59
39
26
23
29
38
66
81
87
81
71
46
33
27
31
47
72
85
88
83
74
47
33
28
38
48
69
79
81
70
55
27
11
7
11
23
39
54
50
40
28
1
-16
-21
-10
1
25
31
36
24
15
-10
-25
-34
-25
-13
17
28
22
18
4
-22
-33
-35
-24
-11
14
26
24
14
3
-21
-36
-34
-25
-12
15
27
25
15
-4
-28
-34
-33
-23
-5
14
29
27
12
1
-20
-33
-33
-18
-6
18
27
23
13
-1
-25
-33
-31
-14
3
23
29
29
21
-2
-19
-32
-24
-17
4
21
32
26
15
-2
-21
-28
-27
-15
10
26
31
26
15
-7
-28
-35
-26
-9
7
23
30
22
12
-7
-24
-33
-28
-19
9
22
31
26
12
-14
-29
-35
-31
-17
8
25
26
21
9
-15
-27
-30
-25
-20
8
21
23
19
4
-21
-34
-32
-25
-8
10
22
26
16
2
-17
-33
-38
-28
-17
14
25
30
17
4
-21
-33
-34
-29
-17
16
20
24
17
9
-21
-36
-35
-25
-7
12
25
27
16
4
-18
-30
-32
-22
-5
14
28
29
21
0
-13
-26
-22
-18
4
21
39
37
22
4
-11
-21
-21
-11
5
22
33
32
26
5
-15
-28
-28
-19
-2
22
29
26
12
-7
-28
-37
-33
-24
-4
13
20
17
4
-10
-28
-41
-37
-22
-5
12
17
16
4
-13
-31
-40
-37
-24
-1
12
18
14
2
-14
-36
-42
-38
-28
-10
4
13
3
2
-6
-5
15
32
56
98
131
142
139
112
63
34
26
26
6
5
-15
-23
-25
-37
-55
-67
-67
-63
-46
-16
5
14
12
0
-22
-33
-41
-31
-19
11
26
29
21
11
-19
-29
-31
-23
-9
17
34
33
27
16
-13
-25
-31
-19
-1
21
29
34
26
11
-13
-25
-22
-19
-4
25
40
36
25
12
-12
-29
-28
-15
5
28
38
40
28
12
-9
-19
-25
-8
9
30
36
38
26
19
-3
-7
-14
-5
17
36
45
46
42
25
3
-9
-4
10
29
47
54
55
48
30
8
8
7
24
42
63
76
69
59
44
27
17
19
36
59
77
83
82
70
52
31
28
35
46
65
80
87
83
69
45
27
22
21
32
53
65
66
60
42
22
1
-8
-6
2
22
35
40
32
20
-7
-25
-32
-22
-13
13
21
29
22
10
-16
-32
-35
-33
-14
5
21
26
15
4
-19
-34
-39
-31
-22
2
18
24
14
1
-23
-37
-42
-33
-18
8
20
19
13
1
-23
-37
-40
-30
-20
5
25
25
16
6
-21
-37
-37
-27
-15
9
21
25
23
-1
-23
-34
-36
-26
-10
14
25
24
15
2
-19
-32
-30
-21
-6
16
27
28
17
0
-23
-34
-32
-22
-2
16
26
26
20
-3
-27
-39
-32
-22
-2
15
24
24
17
-4
-25
-33
-33
-27
-5
16
27
22
13
-4
-28
-35
-35
-24
-2
17
23
20
10
-11
-38
-44
-36
-18
0
14
19
16
8
-13
-35
-41
-38
-26
-7
15
20
14
-2
-12
-33
-37
-35
-22
4
17
19
20
8
-16
-31
-31
-26
-15
9
24
31
23
12
-10
-26
-35
-22
-11
13
28
32
28
13
-12
-27
-31
-24
-13
14
25
23
13
7
-14
-28
-39
-28
-21
4
15
20
11
1
-26
-38
-40
-33
-20
10
19
21
11
-2
-27
-40
-42
-31
-16
5
16
17
7
-6
-23
-39
-39
-29
-21
7
19
8
-2
-23
-42
-53
-48
-34
-11
19
49
67
80
75
73
74
83
79
79
76
80
77
49
7
-42
-82
-85
-66
-46
-25
-14
-11
-23
-36
-51
-51
-47
-32
-15
6
15
18
9
-10
-27
-35
-31
-22
1
24
24
26
12
-6
-22
-27
-28
-17
7
22
30
25
16
-3
-20
-29
-23
-12
11
28
36
29
16
-4
-18
-27
-18
-9
16
33
38
33
19
0
-17
-20
-17
-5
23
39
40
36
27
1
-16
-16
-10
2
30
43
48
41
33
7
-12
-15
-6
11
36
51
56
51
37
17
2
-4
10
20
48
63
65
58
50
25
13
16
24
37
59
79
77
73
61
36
27
26
31
47
73
85
87
77
63
35
22
20
31
49
74
75
75
61
44
22
6
2
9
24
41
52
49
34
19
-4
-19
-20
-12
3
20
27
26
20
3
-23
-34
-31
-20
-7
11
21
23
13
-5
-30
-39
-38
-28
-3
14
25
18
2
-15
-30
-39
-38
-29
0
14
21
17
2
-20
-37
-35
-32
-23
0
11
22
22
5
-19
-36
-41
-36
-29
-1
14
24
16
5
-19
-34
-40
-32
-24
0
13
22
16
7
-17
-34
-40
-32
-26
5
12
21
19
3
-17
-29
-33
-35
-22
2
16
20
19
3
-19
-35
-40
-33
-23
7
17
22
11
1
-25
-39
-44
-31
-16
9
15
21
10
-1
-28
-44
-43
-36
-14
14
22
18
9
-7
-29
-33
-43
-32
-9
8
19
18
9
-2
-23
-37
-38
-28
-14
16
20
16
9
-5
-26
-33
-34
-18
-5
15
23
24
15
-8
-25
-34
-31
-23
-7
17
29
26
14
-6
-33
-38
-32
-27
-15
4
16
14
4
-13
-31
-45
-42
-30
-10
4
13
10
-1
-19
-39
-46
-42
-30
-9
6
17
12
-3
-13
-36
-46
-47
-35
-6
7
15
13
1
-21
-40
-46
-47
-36
-17
3
4
-2
-9
-35
-47
-45
-26
1
39
62
81
90
96
79
55
33
18
20
43
42
33
-5
-41
-72
-80
-86
-76
-62
-36
-21
-16
-21
-29
-45
-53
-54
-47
-34
-8
11
14
11
-1
-24
-43
-45
-36
-22
4
21
20
10
-1
-24
-40
-41
-34
-16
10
18
24
8
2
-18
-35
-38
-26
-12
11
18
21
16
1
-19
-33
-31
-26
-4
19
24
23
18
7
-19
-30
-31
-19
-13
14
32
32
18
4
-18
-25
-25
-16
2
25
30
39
26
10
-10
-17
-15
-6
19
36
46
49
32
18
-1
-5
-5
11
29
52
58
56
46
30
12
1
12
20
46
65
73
70
60
40
19
11
15
29
52
70
72
68
56
32
17
9
10
18
42
59
52
54
37
9
-8
-12
-13
-9
15
26
31
22
14
-14
-33
-37
-33
-20
0
13
23
7
-1
-27
-40
-46
-42
-33
-3
11
10
6
-6
-31
-52
-51
-46
-33
-8
6
11
2
-11
-37
-50
-53
-44
-30
-9
3
7
-2
-13
-35
-51
-53
-41
-32
-6
3
6
2
-12
-36
-47
-49
-42
-28
-2
13
11
-2
-14
-36
-44
-46
-43
-28
0
8
8
0
-13
-36
-49
-50
-38
-23
-3
7
8
-1
-18
-39
-52
-56
-36
-17
-3
5
3
-6
-26
-41
-51
-54
-39
-21
-1
4
2
-8
-26
-44
-54
-51
-45
-22
-2
3
3
-9
-35
-45
-55
-53
-37
-22
-4
2
-1
-12
-32
-51
-53
-48
-38
-21
-3
4
-3
-12
-32
-46
-54
-51
-34
-9
5
8
5
-8
-30
-45
-48
-45
-34
-13
5
8
3
-5
-31
-42
-50
-52
-45
-20
-1
0
-2
-18
-45
-57
-59
-55
-45
-18
-6
-2
-8
-20
-46
-60
-59
-54
-43
-18
-6
-3
-11
-23
-47
-57
-57
-59
-43
-18
-7
-5
-15
-26
-51
-61
-65
-55
-43
-24
-13
-13
-28
-45
-63
-78
-77
-62
-34
3
37
52
58
57
50
48
49
45
38
46
58
50
23
-19
-75
-102
-96
-85
-69
-45
-35
-29
-41
-53
-61
-77
-69
-57
-39
-13
0
-4
-11
-27
-47
-62
-57
-44
-25
-3
6
3
-8
-25
-42
-53
-51
-38
-19
2
11
2
-10
-27
-44
-50
-46
-36
-11
7
10
8
-5
-18
-42
-49
-43
-36
-8
9
17
10
0
-20
-39
-44
-40
-25
-5
12
19
11
1
-20
-32
-40
-33
-19
6
21
25
17
8
-15
-34
-37
-28
-16
13
29
32
31
20
-4
-20
-25
-13
-2
23
39
45
39
27
2
-2
-8
5
16
40
56
57
48
39
15
8
0
13
21
43
56
61
52
40
12
-4
-7
6
16
34
41
43
37
19
-8
-27
-31
-21
-11
12
18
14
5
-9
-34
-47
-54
-41
-26
-7
4
0
-7
-21
-46
-59
-61
-50
-37
-14
-2
-7
-10
-29
-53
-61
-62
-55
-41
-16
-1
-5
-16
-34
-54
-63
-63
-52
-31
-13
-5
-10
-19
-37
-57
-65
-66
-54
-33
-17
-4
-7
-17
-34
-56
-67
-63
-51
-29
-14
-5
-4
-17
-35
-57
-65
-63
-45
-24
-3
-1
-7
-15
-38
-55
-63
-54
-44
-21
-7
-2
-6
-17
-42
-52
-60
-57
-43
-16
0
0
-6
-16
-36
-58
-63
-58
-39
-15
-5
-4
-8
-21
-40
-58
-62
-53
-43
-22
-10
-3
-4
-14
-44
-60
-64
-56
-43
-22
-2
-1
-8
-23
-44
-58
-60
-55
-41
-17
-4
-7
-12
-19
-48
-57
-63
-55
-39
-17
-6
-2
-11
-19
-46
-62
-60
-50
-40
-18
-4
-2
-6
-21
-45
-58
-60
-53
-32
-9
5
3
-11
-23
-45
-55
-52
-42
-27
-4
3
6
0
-19
-43
-52
-55
-36
-23
-2
5
6
-12
-22
-45
-54
-55
-45
-25
-8
-2
-4
-12
-32
-55
-59
-62
-52
-32
-10
-4
-10
-18
-33
-57
-66
-62
-50
-29
-11
-6
-10
-19
-34
-58
-64
-65
-53
-25
-9
-3
-10
-24
-46
-61
-67
-62
-55
-27
-16
-14
-24
-34
-51
-71
-72
-63
-38
6
40
64
73
74
69
57
48
41
33
45
54
46
19
-18
-74
-100
-100
-91
-78
-47
-24
-25
-25
-32
-50
-64
-68
-57
-38
-13
-4
-1
-2
-16
-43
-57
-55
-45
-35
-7
5
9
-2
-16
-44
-53
-53
-46
-31
-6
5
9
1
-14
-36
-49
-49
-39
-25
3
17
12
4
-8
-32
-47
-48
-34
-13
4
14
15
11
-8
-33
-38
-38
-28
-14
10
24
20
9
-7
-30
-38
-38
-27
-5
18
27
26
16
1
-26
-32
-28
-16
3
21
34
35
17
1
-12
-16
-19
-4
27
38
48
45
33
17
-2
-8
1
10
35
48
62
54
51
31
15
9
12
15
39
57
70
64
53
33
13
3
5
12
36
54
53
44
35
8
-13
-22
-12
-4
11
26
30
19
7
-18
-32
-40
-36
-21
-6
10
13
5
-5
-25
-44
-51
-45
-34
-10
4
3
-4
-10
-35
-54
-59
-48
-33
-6
9
7
3
-8
-36
-54
-59
-43
-36
-14
6
9
-2
-16
-39
-50
-49
-43
-32
-4
6
7
-2
-17
-40
-52
-50
-44
-33
-6
9
9
-1
-20
-36
-49
-55
-38
-24
-4
11
6
-2
-21
-37
-49
-50
-46
-28
1
11
10
-4
-15
-38
-51
-48
-40
-19
4
10
9
-1
-16
-35
-49
-44
-37
-17
5
9
9
0
-19
-42
-49
-49
-35
-17
-1
12
7
-5
-26
-39
-46
-45
-37
-18
0
9
11
-6
-21
-41
-50
-45
-34
-6
2
9
8
-2
-24
-44
-49
-45
-34
-13
3
13
9
0
-25
-42
-47
-45
-35
-12
8
10
7
-2
-27
-38
-48
-43
-33
-11
12
15
3
-3
-31
-44
-47
-42
-31
-7
10
15
6
-9
-28
-43
-45
-39
-26
-2
15
18
5
-8
-26
-37
-43
-34
-24
5
22
24
8
-4
-22
-37
-40
-29
-15
7
17
26
12
-2
-28
-32
-38
-25
-16
12
23
22
7
-9
-29
-42
-47
-42
-15
5
8
8
3
-12
-33
-43
-47
-36
-23
0
10
12
-1
-23
-32
-46
-48
-36
-17
-2
9
12
1
-20
-40
-48
-45
-32
-18
3
10
6
-1
-24
-49
-58
-55
-42
-28
-12
2
13
14
13
8
8
30
58
91
117
112
94
61
32
13
-6
-17
-34
-43
-37
-27
-30
-38
-55
-74
-80
-68
-54
-24
-12
4
1
-9
-28
-43
-48
-41
-31
-6
8
16
10
0
-24
-36
-41
-40
-27
2
16
20
14
0
-17
-35
-43
-35
-25
4
16
20
16
6
-19
-36
-34
-30
-19
8
22
23
13
4
-17
-29
-39
-28
-14
9
23
28
21
7
-14
-30
-29
-20
-7
13
32
38
24
9
-12
-22
-23
-9
5
25
37
34
31
15
-7
-15
-21
-5
14
36
48
51
40
28
12
-4
0
15
31
60
63
61
53
39
24
15
12
25
38
64
75
78
67
49
25
15
14
28
43
61
71
67
56
36
11
5
4
15
32
45
50
44
34
10
-16
-21
-20
-9
6
19
31
25
11
-14
-29
-33
-35
-27
-4
8
18
16
2
-19
-39
-45
-41
-30
-9
10
14
6
-3
-24
-44
-47
-42
-31
-6
10
12
9
-2
-27
-46
-48
-43
-31
-10
12
22
8
-5
-26
-42
-45
-42
-28
-1
13
16
7
-8
-26
-42
-42
-29
-26
-1
12
17
9
-6
-32
-47
-45
-36
-20
5
14
17
4
-8
-29
-43
-39
-34
-22
4
22
19
10
-3
-28
-42
-38
-36
-22
4
13
20
8
-6
-32
-42
-45
-30
-20
6
20
16
7
-8
-29
-43
-42
-32
-16
2
17
16
3
-13
-31
-39
-43
-31
-16
4
15
14
2
-12
-36
-44
-41
-30
-14
1
17
8
-2
-18
-38
-45
-44
-34
-10
6
10
13
1
-20
-36
-40
-42
-31
-8
6
12
8
-5
-20
-36
-47
-42
-33
-10
7
16
14
-4
-26
-43
-48
-42
-33
-10
9
15
9
1
-26
-45
-50
-37
-31
-9
7
15
7
-3
-23
-39
-45
-37
-26
-3
12
17
9
-3
-25
-41
-44
-32
-21
-1
19
23
21
5
-23
-35
-39
-31
-21
5
19
19
11
-2
-26
-33
-44
-39
-24
-1
10
14
6
-7
-33
-44
-47
-37
-25
0
12
10
1
-13
-33
-44
-50
-39
-24
-3
5
12
0
-10
-36
-48
-50
-40
-23
1
10
8
-4
-15
-36
-47
-45
-42
-30
-11
0
3
-5
-28
-51
-55
-42
-17
16
52
78
94
97
91
74
52
36
29
46
62
47
29
-10
-56
-75
-85
-84
-68
-39
-20
-10
-14
-19
-30
-46
-52
-49
-34
-10
6
10
9
-1
-21
-34
-40
-38
-29
-9
11
17
13
2
-16
-36
-43
-33
-24
-1
15
21
20
5
-18
-29
-35
-34
-22
6
17
24
20
8
-19
-35
-34
-30
-17
5
17
29
23
10
-14
-29
-33
-27
-13
9
23
33
28
15
-10
-23
-27
-19
-7
17
30
38
28
17
-9
-16
-14
-12
1
25
41
47
39
29
5
-11
-9
-3
16
39
51
53
45
36
17
3
4
12
29
57
65
72
60
45
19
9
10
22
35
57
70
72
61
44
21
7
12
19
32
51
59
54
41
22
-4
-14
-16
-4
10
30
33
32
19
-3
-25
-36
-36
-24
-6
11
15
19
1
-15
-38
-46
-37
-30
-16
1
11
10
0
-21
-43
-52
-48
-34
-15
2
10
6
-5
-25
-48
-36
-42
-32
-8
7
15
9
-5
-23
-41
-48
-38
-31
-8
12
14
7
-1
-27
-43
-46
-43
-29
-6
11
18
14
-2
-24
-41
-46
-43
-29
0
15
19
13
1
-25
-38
-46
-41
-25
2
16
20
17
7
-25
-38
-46
-35
-22
1
17
15
7
-5
-22
-39
-42
-32
-23
6
21
18
11
-4
-24
-38
-44
-33
-19
7
21
19
10
-4
-27
-41
-42
-34
-18
3
15
18
7
-12
-29
-41
-40
-27
-13
5
16
15
3
-10
-30
-41
-41
-31
-15
4
16
15
2
-12
-34
-41
-43
-33
-12
5
17
18
7
-8
-34
-45
-39
-26
-8
12
16
14
1
-11
-30
-44
-36
-24
-6
14
20
16
2
-15
-38
-42
-36
-27
-5
10
20
17
3
-16
-32
-40
-38
-23
1
15
17
19
5
-18
-35
-42
-34
-22
2
11
16
13
2
-23
-37
-39
-37
-26
-3
15
22
17
2
-22
-34
-39
-31
-23
1
15
20
15
3
-19
-36
-41
-34
-19
3
16
20
12
4
-21
-34
-40
-37
-22
4
20
23
17
5
-16
-38
-38
-30
-17
14
21
18
19
7
-12
-29
-30
-23
-8
16
26
25
19
2
-15
-23
-29
-20
-4
17
24
26
15
-2
-20
-33
-37
-26
-16
9
15
18
6
-9
-33
-43
-38
-33
-15
6
16
19
2
-12
-37
-45
-40
-33
-13
5
16
13
-3
-16
-36
-48
-45
-33
-13
6
11
15
5
-21
-42
-49
-51
-41
-25
-8
3
1
-7
-15
-27
-21
6
30
70
105
128
128
113
80
43
20
23
23
20
19
-7
-30
-41
-62
-74
-74
-67
-52
-20
2
5
5
-9
-26
-39
-41
-34
-25
-2
13
24
16
2
-20
-36
-39
-34
-20
2
15
21
15
2
-20
-32
-34
-29
-17
9
20
25
18
5
-20
-35
-39
-25
-12
12
23
25
19
6
-15
-25
-34
-20
-9
18
34
36
17
9
-9
-30
-28
-17
-2
20
29
34
30
14
-6
-20
-22
-13
6
27
42
45
34
21
-3
-14
-15
-2
16
41
50
51
46
32
7
0
0
12
30
49
65
66
57
40
23
12
13
24
45
69
76
72
63
46
30
21
19
34
55
70
78
77
64
49
24
17
16
28
42
56
64
59
46
25
1
-11
-10
2
19
32
35
34
25
-2
-21
-31
-30
-20
3
23
28
22
12
-14
-32
-39
-34
-20
3
13
20
16
-2
-17
-37
-44
-35
-22
0
14
16
15
0
-26
-40
-47
-33
-23
-1
15
24
14
0
-24
-38
-40
-34
-29
-2
17
22
17
1
-24
-36
-39
-30
-19
7
19
22
15
3
-24
-37
-44
-31
-16
7
24
25
15
-1
-23
-36
-40
-29
-14
11
17
20
13
3
-29
-39
-33
-25
-10
14
23
22
10
-6
-26
-37
-39
-27
-12
12
20
28
15
-5
-27
-40
-37
-30
-13
8
19
23
11
-7
-29
-37
-36
-29
-10
13
22
17
9
-10
-30
-40
-36
-26
-12
10
18
17
7
-16
-32
-40
-34
-25
-8
11
20
18
4
-14
-32
-39
-38
-24
-4
20
22
14
2
-15
-35
-38
-34
-25
-3
15
25
18
5
-17
-34
-37
-38
-22
4
15
20
16
7
-17
-33
-41
-36
-21
4
21
26
17
0
-20
-29
-30
-28
-22
1
18
25
16
5
-16
-30
-39
-32
-19
5
18
25
22
7
-21
-34
-40
-31
-16
9
17
23
15
5
-22
-37
-36
-28
-13
10
18
28
16
3
-22
-40
-40
-30
-14
9
22
26
18
-2
-28
-32
-38
-29
-9
13
28
26
14
0
-27
-37
-36
-25
-8
12
25
23
10
2
-21
-34
-36
-26
-7
16
27
26
16
-2
-25
-35
-32
-22
-5
17
21
29
18
-5
-20
-28
-29
-17
0
21
32
29
16
5
-19
-26
-25
-16
5
18
34
26
12
-4
-19
-31
-31
-19
6
18
21
21
7
-11
-29
-38
-35
-25
-6
14
25
22
4
-15
-31
-37
-35
-23
0
13
19
15
8
-16
-31
-40
-35
-25
10
21
24
17
1
-18
-37
-39
-41
-28
-8
5
12
3
-12
-27
-30
-18
5
36
72
102
125
129
111
70
40
24
30
38
39
37
8
-26
-39
-65
-72
-75
-56
-46
-17
2
8
2
-11
-35
-41
-45
-27
-17
6
19
25
14
4
-23
-31
-27
-19
1
17
27
32
22
2
-16
-23
-30
-20
-5
22
29
33
22
4
-17
-24
-22
-20
0
25
34
32
24
8
-12
-24
-22
-12
9
27
40
37
26
11
-11
-20
-21
-4
11
34
42
41
31
16
-7
-17
-13
2
21
37
49
46
42
22
1
-9
-3
11
35
54
58
57
42
25
15
7
13
25
47
67
73
67
55
37
24
23
23
34
60
79
81
83
74
47
35
24
35
41
67
85
85
79
69
44
34
22
30
37
57
74
73
62
52
22
4
10
11
10
38
47
48
36
27
1
-16
-21
-14
-8
20
31
31
21
15
-16
-27
-26
-20
-13
14
28
26
15
8
-20
-31
-29
-17
-5
13
20
20
17
4
-20
-34
-37
-24
-14
14
21
28
16
-4
-23
-38
-36
-26
-10
10
24
28
16
-3
-24
-34
-35
-23
-6
16
28
29
19
2
-23
-33
-30
-15
1
18
29
28
14
-4
-20
-32
-27
-18
4
25
29
27
14
-8
-24
-30
-28
-13
3
25
34
27
18
-9
-24
-28
-27
-16
0
25
26
21
16
-7
-24
-32
-25
-18
6
22
24
23
13
-8
-31
-35
-27
-13
4
21
27
19
8
-12
-28
-35
-22
-18
3
26
33
24
14
-11
-27
-37
-25
-14
12
28
28
21
11
-10
-21
-33
-25
-11
13
25
30
21
9
-14
-31
-35
-28
-13
12
29
34
21
9
-19
-30
-28
-21
-14
16
27
23
19
11
-18
-26
-31
-21
-2
13
26
29
22
9
-15
-31
-35
-20
-1
19
29
31
17
8
-22
-28
-30
-19
-5
19
24
34
23
7
-17
-27
-27
-14
-1
15
25
31
24
3
-6
-25
-26
-13
7
24
34
35
22
7
-10
-20
-17
-7
12
27
34
34
19
4
-13
-26
-25
-13
3
25
34
24
19
-2
-23
-31
-25
-17
8
21
29
23
16
-5
-25
-31
-27
-14
11
24
27
24
17
-13
-25
-34
-23
-11
6
23
34
22
7
-12
-28
-30
-24
-24
8
19
19
13
1
-22
-25
-20
1
27
61
88
110
116
107
78
52
31
27
34
53
59
33
-9
-32
-52
-61
-64
-52
-45
-20
2
-1
0
-11
-32
-39
-36
-31
-12
18
31
34
22
13
-9
-18
-28
-13
-2
26
36
40
29
17
-12
-26
-20
-13
3
22
36
40
30
16
-8
-18
-18
-11
7
31
40
38
30
11
-8
-18
-17
-6
19
32
42
42
29
14
-5
-12
-14
-2
18
38
48
47
35
15
-7
-11
-7
6
25
41
52
53
38
21
-1
-4
9
11
34
50
61
59
50
33
12
6
15
24
43
62
75
71
61
43
28
21
28
39
58
83
91
86
75
51
36
27
37
48
69
87
93
87
82
51
29
27
33
41
65
76
78
69
61
29
11
5
7
24
45
53
52
46
27
3
-13
-15
-11
-3
22
36
39
34
14
-9
-23
-27
-16
-7
20
29
34
24
15
-15
-27
-28
-22
-12
12
36
29
17
12
-19
-29
-25
-22
-9
17
23
34
25
6
-17
-26
-27
-17
-2
16
26
31
24
11
-14
-26
-27
-15
-4
23
29
34
27
7
-15
-22
-27
-11
10
27
29
36
24
8
-12
-22
-22
-11
10
25
35
34
22
8
-16
-22
-20
-12
8
27
36
29
16
-1
-18
-28
-22
-13
7
29
32
28
19
0
-20
-28
-27
-15
12
25
33
27
22
-6
-24
-31
-21
-9
17
31
37
28
16
-10
-21
-27
-19
-14
13
29
33
30
21
-2
-20
-25
-22
-7
12
29
34
28
12
-7
-21
-26
-20
-9
18
29
35
25
13
-7
-20
-30
-20
-5
19
30
36
28
15
-7
-22
-28
-21
-5
24
32
36
25
13
-4
-15
-19
-9
4
31
37
38
32
16
-3
-15
-16
-2
14
31
37
39
36
19
-6
-16
-21
-10
9
19
37
36
24
9
-13
-25
-27
-16
-3
27
34
32
21
5
-17
-25
-25
-15
1
20
29
30
19
-1
-17
-29
-25
-17
2
23
33
29
20
2
-24
-29
-28
-20
6
17
20
20
8
-19
-36
-38
-27
-2
33
62
91
99
107
99
85
72
60
51
66
86
81
54
12
-39
-62
-63
-53
-44
-21
-3
4
1
-7
-24
-34
-37
-27
-17
12
29
31
26
17
-5
-19
-25
-16
-6
20
35
40
33
24
-1
-16
-21
-16
-2
21
35
43
40
21
2
-14
-22
-12
1
27
47
45
37
24
-1
-12
-12
-4
6
35
46
49
41
25
1
-11
-13
-4
10
34
50
54
45
33
6
-7
-10
0
22
44
54
57
44
33
10
-2
-6
4
26
50
60
62
52
38
21
9
7
20
40
60
76
73
66
51
25
22
25
40
56
76
88
86
74
59
41
32
35
47
70
87
96
94
84
60
39
30
34
45
60
80
86
82
60
41
25
14
12
19
39
54
63
54
37
13
-4
-9
-10
1
20
37
42
33
27
3
-18
-29
-22
-12
15
31
36
28
15
-5
-16
-25
-23
-13
12
35
33
23
15
-5
-24
-32
-24
-14
13
32
30
24
6
-6
-25
-33
-25
-14
13
25
31
24
12
-9
-25
-27
-23
-9
14
29
34
22
11
-9
-20
-24
-20
-4
17
29
37
23
8
-12
-24
-23
-19
-1
27
31
37
31
19
-16
-29
-26
-14
3
20
37
37
27
12
-13
-26
-25
-17
4
22
31
29
21
13
-9
-21
-27
-15
1
23
34
31
22
6
-19
-24
-22
-9
5
24
28
31
21
3
-20
-29
-25
-13
4
24
28
25
14
8
-18
-27
-26
-12
9
22
30
25
16
-2
-21
-25
-23
-16
7
24
29
27
17
-4
-19
-33
-25
-10
11
24
32
30
15
-5
-24
-22
-25
-7
14
28
33
33
17
-3
-21
-28
-18
-6
18
32
38
32
22
-1
-15
-20
-15
0
24
39
45
41
24
0
-13
-14
-7
-1
20
42
46
36
20
0
-19
-20
-16
-4
25
39
44
27
11
-8
-24
-28
-18
-9
13
29
30
20
10
-16
-29
-28
-23
-9
17
30
31
20
7
-11
-24
-23
-17
-5
18
24
27
17
3
-16
-33
-41
-31
-19
3
21
35
29
24
20
27
45
70
107
134
142
134
101
65
48
33
8
3
-16
-17
-14
-6
-17
-31
-44
-49
-47
-31
-9
16
27
28
21
2
-17
-29
-25
-10
8
27
34
35
24
6
-12
-24
-20
-6
14
36
40
31
24
7
-15
-16
-12
-5
18
36
38
40
26
5
-11
-14
-8
1
21
37
45
43
30
7
-9
-13
-12
2
30
43
48
42
34
9
-5
-11
-2
13
33
52
55
51
35
11
-2
-8
3
16
41
57
62
52
41
21
3
2
17
31
56
68
71
68
55
31
21
17
26
38
68
82
85
78
62
39
30
29
45
53
76
91
92
87
71
50
37
32
48
58
79
92
90
81
62
36
26
23
33
46
67
72
74
59
39
14
4
2
6
22
38
50
49
36
19
-6
-17
-17
-5
10
28
37
36
22
8
-15
-19
-21
-11
8
26
32
29
20
3
-14
-21
-26
-12
8
26
31
31
22
-3
-19
-25
-21
-11
10
28
32
36
20
2
-20
-23
-21
-10
12
24
32
33
20
-5
-22
-22
-16
-8
17
32
34
33
17
-2
-16
-24
-15
-6
21
35
36
29
16
-2
-20
-24
-15
-6
17
35
40
33
21
-3
-16
-25
-8
-3
19
35
43
32
19
-6
-20
-23
-14
-4
20
32
34
24
17
-4
-22
-27
-14
-2
21
35
38
28
14
-9
-27
-27
-18
-1
20
36
34
27
12
-12
-22
-19
-16
-4
24
31
34
30
9
-13
-25
-24
-13
0
23
31
28
20
2
-17
-30
-29
-13
3
25
30
32
24
4
-16
-25
-22
-13
8
18
30
33
20
0
-19
-27
-23
-15
8
26
34
30
16
-1
-13
-24
-22
-12
8
33
35
31
29
4
-15
-22
-18
-8
13
29
34
38
26
9
-13
-22
-10
3
21
37
48
39
24
2
-14
-19
-18
-6
18
35
32
30
19
-6
-21
-30
-24
-13
14
25
29
24
16
-11
-28
-30
-23
-13
11
25
30
20
11
-11
-26
-33
-23
-11
11
25
32
22
11
-13
-20
-34
-22
-13
7
19
22
12
0
-24
-38
-30
-11
14
59
88
107
114
119
101
90
74
62
56
82
83
61
30
-15
-58
-70
-72
-55
-39
-8
0
11
4
-8
-25
-33
-32
-19
-2
23
32
33
24
6
-15
-27
-23
-9
5
25
37
33
25
7
-11
-21
-24
-11
7
28
34
35
30
9
-10
-22
-22
-6
16
36
41
37
25
6
-11
-16
-17
-10
17
36
43
36
30
17
-12
-18
-10
2
22
35
45
45
36
14
-2
-10
-10
7
29
46
52
51
37
17
1
-6
1
15
38
52
61
61
47
27
12
6
15
24
52
70
81
76
59
42
26
22
29
43
73
86
91
82
71
52
34
35
42
49
78
90
97
86
75
47
32
30
35
49
74
83
87
74
61
31
16
10
15
27
47
57
59
43
31
9
-7
-15
-5
8
30
41
40
28
18
-10
-23
-25
-25
5
22
30
33
22
7
-17
-28
-29
-17
0
20
30
27
19
3
-19
-33
-30
-13
0
19
30
32
19
0
-20
-27
-25
-14
2
22
33
28
16
-2
-15
-25
-21
-12
2
24
31
29
17
-3
-20
-25
-20
-12
5
26
36
29
20
-3
-18
-25
-21
-7
11
25
33
30
22
0
-17
-25
-17
-8
15
36
39
30
22
0
-17
-25
-19
-13
13
29
41
36
20
-4
-16
-25
-16
-13
13
34
43
36
20
-4
-22
-25
-19
-10
20
33
34
28
19
-12
-23
-21
-16
-7
21
35
36
27
16
-5
-22
-27
-23
-9
17
30
37
24
12
-14
-21
-29
-21
-7
17
29
29
23
7
-10
-27
-31
-17
-6
20
29
29
24
14
-12
-24
-28
-19
-3
21
31
31
19
6
-15
-24
-24
-15
0
24
38
35
28
5
-15
-20
-21
-16
6
29
41
38
31
13
-7
-21
-19
-6
10
36
42
38
23
9
-12
-17
-22
-6
15
28
34
31
23
8
-16
-25
-22
-12
8
28
34
28
16
-3
-20
-29
-26
-15
8
22
27
23
15
-3
-26
-25
-23
-14
9
24
35
29
15
-7
-26
-32
-25
-12
8
23
29
18
5
-20
-34
-32
-15
12
52
80
98
112
122
103
88
68
58
50
73
87
73
46
-1
-49
-65
-66
-57
-41
-17
5
4
1
-7
-26
-38
-36
-23
-7
17
31
36
30
14
-10
-21
-21
-10
1
24
44
45
31
19
-6
-20
-21
-11
1
38
40
42
31
19
-6
-16
-16
-7
10
31
46
49
33
23
1
-13
-15
-8
15
39
49
47
37
25
4
-9
-12
-4
18
43
52
49
39
24
5
-6
-5
10
28
46
57
57
46
28
12
-1
10
14
35
55
66
68
57
38
21
12
17
31
52
73
82
82
69
47
33
27
30
45
66
83
95
89
82
61
41
36
39
50
78
93
98
95
86
61
42
34
43
50
71
89
92
86
70
41
23
13
18
24
45
59
63
56
42
17
1
-9
-4
7
32
48
43
42
30
2
-16
-24
-16
0
21
33
39
37
22
-10
-20
-23
-19
-4
18
31
35
28
15
-12
-24
-27
-17
0
21
31
34
29
14
-11
-21
-24
-17
-3
20
35
36
28
12
-10
-23
-25
-7
2
25
35
36
24
9
-8
-18
-17
-12
-1
25
38
39
27
13
-14
-22
-18
-7
2
30
36
38
24
6
-14
-19
-16
-7
6
26
32
34
27
3
-17
-26
-25
-14
12
27
33
34
20
2
-17
-26
-25
-17
10
26
34
29
21
1
-22
-21
-18
-9
8
25
31
33
19
-7
-23
-28
-27
-23
20
32
33
28
20
-6
-22
-27
-25
-15
19
28
33
30
14
-6
-22
-26
-26
-11
15
28
34
31
21
-2
-17
-22
-16
-8
15
35
41
33
21
-3
-14
-17
-11
0
25
40
46
37
26
2
-15
-20
-9
5
27
37
39
25
22
-5
-19
-26
-16
-4
21
35
36
30
14
-13
-28
-25
-16
-6
18
26
33
22
11
-14
-26
-28
-20
-3
18
32
28
20
5
-15
-28
-25
-15
4
20
31
35
20
-3
-30
-41
-31
-27
-11
6
22
32
39
33
26
31
48
74
109
128
130
116
79
57
37
11
-4
-26
-34
-19
-7
-7
-12
-27
-55
-63
-58
-42
-16
5
20
17
9
-3
-22
-28
-23
-13
12
25
32
35
22
2
-18
-23
-24
-9
14
32
39
33
22
0
-14
-24
-21
-7
19
37
41
37
26
2
-11
-16
-14
1
21
39
44
38
28
0
-13
-12
-6
7
27
45
49
39
32
8
-7
-11
-2
6
35
49
55
45
36
11
-5
-9
2
15
38
56
60
51
38
17
5
4
17
28
53
67
71
63
47
28
20
20
26
38
67
83
83
78
70
44
31
22
47
59
83
94
93
83
71
51
36
34
45
58
82
89
90
78
67
38
21
20
30
44
61
69
64
52
36
6
-4
-8
0
16
39
43
45
34
8
-17
-21
-20
-8
8
23
33
34
20
-4
-19
-29
-28
-20
4
26
33
28
14
-5
-25
-34
-29
-15
6
21
29
23
14
-11
-25
-32
-31
-18
5
22
31
30
11
-13
-26
-30
-28
-15
10
25
27
24
16
-7
-22
-26
-23
-14
12
27
34
26
14
-9
-26
-31
-24
-13
12
27
33
26
18
-6
-24
-24
-21
-6
20
31
36
29
15
-8
-24
-27
-16
-5
21
31
35
28
13
-10
-24
-26
-17
-6
20
29
32
26
14
-14
-24
-27
-22
-9
19
34
31
26
12
-13
-23
-22
-17
-4
21
32
38
20
11
-16
-24
-30
-14
3
22
32
35
24
11
-10
-26
-25
-15
-1
28
36
34
22
3
-14
-20
-23
-12
8
24
36
37
27
13
-10
-16
-12
-6
11
34
47
44
28
9
-10
-20
-19
-8
13
34
41
35
24
2
-14
-24
-19
-9
11
24
31
33
19
-3
-23
-29
-27
