30
35
35
34
28
23
21
22
24
28
30
26
23
28
29
29
28
31
32
32
32
29
31
34
34
28
22
28
32
31
28
35
34
26
28
28
32
30
22
27
31
41
36
35
21
26
25
28
33
40
38
46
51
36
31
26
29
29
25
22
23
18
22
32
25
27
32
30
35
30
23
21
27
25
30
41
37
35
29
30
27
27
29
23
21
23
32
37
38
40
40
38
39
24
14
8
21
32
28
22
23
18
26
27
23
24
28
25
29
18
24
30
35
34
21
30
33
23
11
17
24
21
22
24
28
28
26
21
19
23
27
25
20
19
38
28
24
25
31
30
31
22
26
23
26
21
13
16
22
23
31
31
32
31
31
29
22
30
33
36
40
32
12
2
18
21
17
15
20
23
25
30
29
38
31
26
24
21
27
29
28
31
37
35
31
16
17
18
20
15
16
25
26
21
26
26
22
29
26
29
32
32
25
18
22
26
31
28
29
35
37
36
29
21
22
17
14
21
26
31
35
26
22
28
24
27
19
25
32
23
21
24
25
25
28
24
16
26
33
29
32
33
31
25
26
31
28
25
24
27
31
25
28
26
32
18
15
22
28
30
37
39
47
39
23
16
19
25
28
23
19
22
20
23
33
28
23
27
28
34
30
26
27
26
24
19
24
22
20
18
17
20
34
32
29
31
27
27
22
27
31
28
30
33
31
39
33
32
34
22
22
27
22
24
33
34
32
35
34
22
28
33
32
35
31
17
20
31
39
51
44
48
40
40
30
22
25
35
36
34
29
19
26
27
28
35
37
35
26
27
28
26
33
32
31
27
31
29
26
19
23
24
28
25
16
25
23
33
30
32
34
26
18
19
21
19
18
22
25
26
26
31
29
30
29
30
18
14
11
24
40
58
88
103
111
120
117
119
142
144
136
132
158
165
163
154
146
125
111
90
58
23
3
4
13
25
36
39
44
42
38
41
46
42
42
38
30
34
41
37
48
35
36
35
35
40
33
32
35
37
42
38
45
41
38
46
35
29
39
38
35
30
32
36
40
33
49
47
46
42
39
41
44
44
50
52
52
45
45
50
50
47
50
58
50
43
47
48
48
50
49
56
57
52
57
69
53
50
49
54
67
64
57
58
61
68
68
70
74
73
74
84
76
77
77
83
91
96
87
81
76
79
86
83
89
88
91
86
91
93
93
82
89
96
98
97
99
96
98
92
91
91
85
91
84
93
90
76
76
68
66
55
54
55
56
54
52
65
64
57
43
48
42
46
46
44
44
38
45
47
44
42
38
36
33
40
34
26
27
25
28
34
36
28
28
33
37
39
41
38
35
30
18
22
26
31
32
35
39
33
40
37
36
35
40
48
36
36
30
32
28
25
29
41
33
39
40
33
33
32
29
34
34
35
32
34
29
34
38
38
35
38
32
28
27
39
41
35
38
35
36
40
34
33
40
39
33
26
34
39
35
39
34
36
43
43
42
37
35
31
29
33
30
36
33
43
31
35
28
24
29
34
34
30
32
33
36
44
37
40
38
25
28
29
26
24
31
41
33
27
27
34
37
36
35
42
32
27
21
25
25
25
30
28
29
31
29
29
35
33
29
27
27
35
35
35
34
29
28
28
24
16
22
23
16
25
29
40
39
36
32
28
27
32
28
23
25
27
30
36
37
36
32
32
26
23
26
21
22
25
26
36
33
26
35
36
37
38
35
34
39
27
20
23
20
22
27
39
24
22
21
18
33
37
35
27
30
27
21
14
28
29
32
27
31
30
36
30
19
24
28
28
30
33
33
22
36
35
25
15
27
32
24
27
31
31
25
27
31
33
26
24
21
28
33
35
43
40
28
30
31
34
29
29
32
32
40
31
19
7
17
24
25
25
26
33
36
24
19
18
23
28
26
37
36
36
36
31
27
21
24
27
25
26
28
23
26
29
37
29
22
26
40
34
28
24
30
34
36
24
21
24
29
41
35
37
45
43
35
38
23
28
27
22
32
35
31
29
26
24
24
27
32
31
26
30
27
25
30
32
37
29
29
33
36
30
21
19
28
33
30
34
40
34
32
42
51
39
32
34
34
27
34
37
38
38
41
45
37
36
40
45
44
33
34
41
44
44
35
30
30
25
26
23
20
21
25
33
36
36
18
27
25
20
21
22
21
24
32
31
24
18
25
23
26
32
35
26
12
13
14
22
26
30
31
42
42
59
76
103
109
117
128
129
147
160
144
142
162
170
181
171
159
142
111
88
53
26
7
13
20
28
34
36
44
38
38
33
36
38
33
36
39
40
46
44
36
28
33
36
37
44
47
40
43
51
50
51
40
45
56
47
31
26
32
41
38
43
38
45
46
52
51
47
38
31
33
44
53
58
53
57
56
54
46
39
36
37
49
51
53
52
60
60
58
57
51
57
57
55
58
58
56
51
62
58
68
62
61
64
66
65
78
82
84
84
84
81
75
71
79
87
83
86
93
86
80
81
88
88
82
77
81
95
98
100
93
99
101
95
88
94
97
96
102
91
80
79
89
95
92
86
85
85
77
69
69
71
64
62
67
60
56
59
54
51
54
49
54
49
47
41
41
33
46
41
49
40
31
30
24
29
38
34
36
40
47
45
35
32
32
41
31
33
41
34
27
25
20
22
23
33
46
43
41
36
34
29
24
27
23
27
31
37
38
33
31
34
40
35
34
31
33
36
43
46
37
39
31
32
38
36
34
30
36
40
35
27
29
33
34
40
43
34
39
36
41
44
33
32
41
49
45
31
31
33
36
41
31
36
32
22
28
42
46
42
41
29
25
22
33
41
42
35
36
40
47
42
38
28
37
33
25
28
33
29
27
39
30
36
35
32
38
31
32
25
25
37
31
33
37
28
26
25
28
26
25
28
37
42
43
46
44
36
27
23
23
27
37
39
36
18
14
31
34
29
34
33
34
38
34
16
26
32
35
32
30
24
31
30
32
30
25
31
28
27
30
30
25
22
29
31
29
30
32
37
30
23
17
21
30
25
37
40
31
30
33
29
37
35
30
31
33
32
28
28
24
23
28
34
31
25
32
35
38
37
34
32
31
38
31
29
25
22
14
9
18
27
37
35
31
25
28
28
24
24
38
43
39
32
33
35
34
32
34
31
30
23
28
26
31
26
33
38
43
40
37
39
43
33
12
18
25
32
24
20
32
38
35
38
37
35
34
30
30
32
28
29
36
41
44
34
34
44
46
36
36
39
39
44
27
33
33
34
32
40
38
36
35
40
38
41
42
40
41
42
37
39
42
52
46
45
41
36
34
42
47
43
38
30
22
27
24
30
33
32
31
32
43
39
33
32
27
31
36
34
32
38
41
34
35
35
35
25
11
23
27
21
30
36
31
21
23
19
27
26
34
37
53
66
88
109
122
126
136
133
142
135
132
148
166
175
172
159
145
133
106
78
63
33
4
9
16
25
38
44
50
47
42
45
47
56
45
44
45
50
48
46
47
52
49
43
43
44
44
31
39
45
48
40
51
49
48
51
57
65
75
61
47
38
43
46
45
47
47
48
43
51
48
46
49
52
55
56
65
57
53
56
51
52
52
56
56
57
64
63
72
63
69
65
69
71
66
67
69
65
69
64
66
66
71
77
82
81
88
84
83
91
87
88
96
80
77
88
95
102
91
90
91
87
94
92
88
87
97
97
98
101
110
119
128
121
112
109
112
101
96
106
107
95
97
98
91
86
87
81
81
87
96
93
86
78
64
62
62
68
67
71
61
48
50
53
57
51
45
47
47
43
48
44
41
42
44
44
55
51
50
48
42
32
32
34
37
40
41
35
28
34
35
42
47
39
40
43
49
38
46
52
40
36
40
37
36
38
46
51
45
45
36
40
46
41
38
35
34
35
41
41
43
41
46
43
41
43
49
45
50
51
46
44
37
31
48
43
45
41
40
42
46
48
51
53
53
57
53
49
44
30
33
34
38
37
33
36
40
43
44
44
53
63
63
51
50
44
29
31
39
38
34
34
42
52
46
44
41
37
42
48
43
45
42
37
33
38
38
44
50
46
33
46
41
35
34
35
37
35
41
42
41
39
33
33
41
41
41
51
52
32
39
37
51
46
41
44
40
40
41
27
33
33
39
38
38
36
35
29
28
36
41
44
48
46
43
39
41
29
34
32
36
38
37
37
35
34
34
32
41
44
39
31
40
36
29
37
41
42
43
45
37
31
39
47
46
34
30
33
38
31
34
38
44
41
42
40
41
45
46
41
38
36
35
31
30
23
36
32
32
40
48
47
48
34
36
39
41
35
35
33
31
38
42
44
47
30
31
31
28
30
41
43
42
41
43
39
37
43
36
32
41
42
34
37
41
24
27
35
45
45
38
35
43
44
46
38
32
35
39
40
46
47
45
39
41
34
32
37
35
31
35
46
42
44
37
35
41
43
32
32
33
26
32
36
27
35
44
44
31
37
45
49
50
49
35
34
40
39
45
48
43
39
35
30
35
38
40
45
40
32
35
44
40
42
49
46
50
63
57
48
47
38
40
47
50
47
45
44
39
40
47
51
51
54
51
31
34
31
36
42
40
38
30
33
35
29
38
45
32
31
39
39
32
38
33
36
32
39
43
32
45
38
34
43
42
33
33
38
35
33
30
32
33
37
47
62
78
97
109
126
134
121
139
161
160
147
161
177
182
173
170
150
133
124
94
52
13
10
24
38
46
46
46
50
36
47
56
48
44
48
43
39
41
41
48
59
54
47
54
49
47
38
38
43
44
48
45
45
50
55
51
55
56
41
47
42
45
46
44
43
46
49
46
48
47
55
56
57
55
56
65
62
57
51
44
49
58
57
53
62
63
63
59
60
70
69
63
59
57
67
67
62
77
81
84
77
74
72
70
78
77
77
87
88
85
57
69
73
81
91
104
91
86
86
85
95
91
97
104
102
95
99
110
117
108
110
116
106
106
95
94
96
97
95
95
102
105
107
105
92
88
86
87
84
97
90
82
79
74
73
77
65
60
53
56
61
63
60
62
66
62
62
62
57
42
35
36
37
39
38
40
44
48
39
34
39
43
40
39
46
42
43
38
38
39
43
30
32
34
38
45
46
41
40
37
38
39
43
46
46
41
41
42
34
33
40
46
44
44
47
55
54
37
29
39
41
40
39
35
38
39
56
44
43
47
47
48
37
33
30
36
48
41
44
54
56
57
48
41
32
26
33
27
29
40
40
43
45
36
44
46
50
37
48
46
39
37
41
40
45
42
40
39
44
41
46
48
56
47
33
5
21
31
35
37
37
38
34
31
34
31
31
31
34
35
37
43
44
36
48
46
29
29
31
26
33
35
37
35
49
52
47
34
16
23
22
36
37
36
34
30
28
30
28
33
39
42
44
44
33
36
34
40
39
32
33
26
34
42
35
28
30
27
27
18
25
35
35
36
32
31
27
27
31
34
36
37
36
38
32
30
34
38
27
36
33
33
27
34
45
35
34
36
37
39
30
30
35
38
34
36
46
43
42
33
37
31
32
32
26
25
27
30
31
36
35
23
32
44
41
38
31
30
24
23
29
32
29
30
36
33
32
34
30
30
32
32
32
33
31
29
36
31
34
34
34
42
39
39
36
38
43
38
32
38
37
34
39
32
12
28
49
47
40
42
42
39
25
32
22
27
34
34
23
23
29
28
28
31
36
37
31
26
24
36
36
32
35
32
36
37
35
38
43
37
35
33
29
34
34
31
33
42
34
36
38
44
41
34
40
46
42
42
47
47
42
46
57
52
32
33
44
49
46
44
53
49
47
41
29
35
30
27
26
35
38
32
38
37
33
23
24
31
21
34
34
30
29
35
36
38
32
24
29
28
34
31
27
29
30
33
31
26
30
40
37
43
35
24
25
11
20
21
26
44
59
77
105
124
135
129
125
124
138
150
145
138
159
168
172
177
166
151
121
101
78
44
13
5
10
23
34
45
49
40
38
38
40
52
44
39
33
38
39
44
46
47
44
43
46
45
43
43
50
62
54
56
53
50
49
44
43
33
37
42
32
33
39
41
45
50
50
48
55
56
47
43
47
48
52
51
49
56
57
60
56
51
55
53
55
42
56
57
64
60
61
62
59
56
49
52
65
63
63
68
77
74
70
70
77
71
77
77
70
70
85
85
73
73
72
80
80
79
83
94
102
95
93
96
102
96
94
104
97
91
95
98
102
104
103
103
94
93
96
97
95
97
95
94
100
94
89
80
80
91
80
79
74
77
84
77
59
55
64
65
61
66
56
52
48
42
55
45
42
35
32
38
34
34
24
24
38
35
45
42
43
34
38
35
32
32
40
42
38
40
39
34
31
34
31
34
40
37
46
41
53
40
33
40
41
38
41
31
35
35
39
35
27
41
40
41
38
34
34
34
40
43
34
37
36
29
27
33
33
34
38
45
35
29
35
39
42
43
39
37
38
38
39
38
34
23
25
33
39
44
45
39
42
40
51
46
49
50
51
56
49
23
27
29
28
29
34
40
33
42
41
39
40
37
32
30
33
33
32
37
38
29
30
32
39
29
25
32
38
36
34
30
33
24
30
30
32
40
42
36
41
44
37
29
33
31
26
24
27
32
39
42
43
48
27
24
37
44
40
38
42
47
34
25
26
23
30
34
27
21
26
28
28
22
20
23
29
28
29
31
21
35
33
41
36
34
34
38
41
24
33
29
31
29
25
29
33
33
35
45
38
47
45
25
16
26
36
42
43
41
35
29
25
17
6
21
21
27
28
23
33
37
42
38
29
32
41
30
23
26
29
18
11
25
34
41
33
29
22
35
39
38
33
28
31
35
36
33
34
39
34
31
42
40
39
31
35
27
23
34
42
42
39
31
33
33
29
37
35
39
35
31
37
41
43
39
40
41
41
37
45
48
50
51
37
32
27
26
43
50
42
34
25
29
31
26
31
38
35
30
34
32
36
35
30
28
32
29
19
24
22
25
28
28
35
41
32
27
37
30
26
13
20
15
6
28
31
31
33
28
43
49
60
75
90
116
135
137
141
145
132
122
134
165
179
181
175
161
142
100
61
41
17
-9
7
15
16
30
40
46
49
40
43
39
41
35
34
33
38
48
53
48
40
43
40
46
57
53
49
43
35
32
38
37
37
38
47
51
51
46
50
53
53
46
35
37
43
40
42
50
52
55
54
56
59
50
41
44
53
50
53
54
56
54
55
59
56
64
71
65
59
52
53
60
59
62
61
67
68
67
70
81
76
68
61
71
73
74
74
76
71
72
74
69
94
86
85
84
83
81
88
98
98
101
104
104
89
92
93
87
89
95
95
103
96
98
97
100
93
101
94
92
96
88
96
101
96
92
83
79
85
83
74
73
77
71
74
78
65
47
43
47
49
42
35
46
46
51
48
34
32
44
41
37
37
39
41
50
41
25
21
25
23
25
28
36
34
32
24
23
27
29
39
42
38
35
28
32
36
38
30
29
24
35
41
32
30
40
39
37
30
29
27
38
34
39
39
34
46
45
51
58
46
44
34
30
15
21
28
22
28
36
42
36
24
22
30
43
47
35
30
27
31
34
37
36
36
37
35
32
33
34
41
38
40
41
30
22
23
27
34
39
33
32
34
38
44
41
35
35
41
40
42
35
43
38
43
45
37
36
31
32
31
33
32
33
32
28
32
24
19
15
21
38
38
34
26
33
20
20
32
38
33
35
33
32
29
25
27
20
24
31
41
28
36
37
36
36
40
39
34
38
32
36
38
34
35
32
34
32
22
26
33
22
19
23
26
22
24
30
27
33
32
41
40
32
32
38
36
36
32
40
36
37
24
29
31
36
34
22
29
33
36
38
37
40
46
38
39
44
50
43
42
46
44
38
28
30
25
36
39
40
39
32
40
37
38
36
28
25
31
33
31
26
21
30
31
25
18
23
25
25
25
25
29
41
41
30
27
27
23
18
31
42
36
33
20
13
8
13
19
21
24
23
39
60
78
102
116
130
133
129
133
135
137
127
146
160
173
164
156
154
135
107
78
44
5
-5
-2
14
31
45
47
44
45
32
24
22
31
46
47
40
37
38
37
51
45
40
35
37
41
42
32
37
42
44
48
53
53
49
51
50
47
42
45
45
44
45
46
45
42
47
48
44
43
50
47
48
44
51
42
43
51
51
62
54
41
47
60
52
54
59
67
62
53
47
52
59
57
58
66
73
70
65
64
67
69
68
70
72
69
77
88
79
77
77
86
80
85
75
76
78
90
91
95
94
92
91
90
98
98
99
95
108
110
105
96
101
98
96
96
94
102
96
107
101
103
99
97
99
94
84
80
76
71
79
79
72
68
62
58
56
69
62
63
51
48
47
48
59
47
48
46
29
37
37
29
36
44
46
47
45
28
41
36
28
27
32
29
30
46
43
40
32
32
32
22
25
31
32
34
34
32
42
45
41
45
42
37
34
30
33
37
40
37
39
38
28
35
52
46
45
42
49
40
32
42
38
35
36
38
49
51
55
59
62
42
27
16
19
26
27
42
39
48
47
46
40
36
38
43
45
44
37
31
33
41
34
39
52
47
46
39
38
25
29
35
44
43
49
53
50
44
37
38
22
31
39
41
38
37
37
34
36
40
53
63
49
49
52
35
29
26
35
38
35
26
29
22
24
29
39
39
41
51
48
43
35
38
41
32
29
37
35
29
27
31
34
30
38
37
48
44
42
31
30
32
38
34
40
43
36
33
42
41
36
31
25
25
28
32
38
39
37
38
39
43
35
35
33
33
30
33
35
44
46
42
46
36
31
27
26
33
37
33
31
33
37
38
50
41
33
40
36
32
36
37
41
49
45
45
45
54
32
24
28
40
36
24
32
35
35
33
37
39
33
32
33
33
39
47
47
41
32
27
34
39
31
28
34
33
36
31
34
42
34
43
44
44
37
31
30
33
34
34
39
48
42
45
37
37
47
42
38
37
35
38
44
42
41
38
32
37
31
28
39
36
35
38
42
42
40
33
41
48
43
46
43
47
47
46
48
43
46
34
39
42
40
44
47
46
47
48
47
48
48
44
31
31
33
43
44
42
41
46
42
45
43
50
48
36
51
40
40
37
31
40
44
40
41
30
26
36
33
31
37
32
26
24
28
33
45
46
38
40
39
30
29
15
18
22
36
65
73
88
114
129
136
136
135
152
156
146
143
164
179
177
180
180
164
138
114
83
45
14
15
20
28
41
45
48
54
53
47
46
51
60
55
53
57
57
41
32
29
32
36
41
50
41
49
45
45
50
52
55
49
52
53
51
59
58
53
40
44
41
40
43
48
61
60
46
45
58
54
59
59
59
57
58
58
63
58
57
58
58
56
62
68
65
66
64
67
59
63
51
46
50
60
67
71
77
79
82
78
72
66
66
68
74
73
73
78
77
78
77
82
91
101
101
89
97
98
89
89
97
99
103
104
105
101
104
106
102
97
102
107
102
93
114
109
112
96
88
98
101
100
95
99
101
95
93
84
85
79
69
53
62
73
73
64
63
63
62
56
53
55
58
62
56
53
56
60
52
44
38
35
43
54
53
55
54
37
32
41
39
40
47
47
49
41
44
44
41
57
52
48
49
43
63
50
40
37
50
37
41
34
32
34
37
42
43
38
37
38
49
46
48
44
39
38
42
50
57
51
46
45
50
48
53
52
53
52
52
43
42
45
41
39
38
40
49
55
60
59
57
63
54
35
40
50
45
38
36
37
50
47
48
58
58
49
42
33
38
44
42
35
40
51
40
40
46
49
44
47
43
41
34
40
46
46
45
39
38
53
49
49
53
56
52
54
57
47
48
44
48
47
53
56
50
46
37
44
45
49
43
44
44
33
29
33
38
48
51
53
60
55
39
30
31
38
36
39
43
51
45
39
38
44
42
39
45
44
41
40
38
38
38
40
45
46
46
48
46
52
46
39
51
48
43
48
51
44
45
47
49
36
36
40
48
38
44
44
44
41
38
44
50
37
39
31
38
39
42
45
37
41
39
37
38
41
47
37
45
45
49
47
48
47
54
47
41
44
45
37
40
50
53
50
45
40
38
33
37
38
34
42
54
56
57
58
51
27
21
27
32
46
51
50
51
52
29
30
39
47
41
40
52
46
43
40
36
30
35
42
44
50
49
49
53
44
34
34
41
41
53
54
52
53
47
45
44
43
42
50
49
46
61
64
54
58
53
52
53
44
42
44
41
45
59
59
47
45
48
45
44
57
52
57
61
57
54
48
33
30
35
38
38
36
36
38
41
28
34
47
58
53
44
38
34
45
34
35
42
41
41
48
46
51
52
50
51
37
25
25
35
32
27
32
33
44
54
73
97
128
135
144
144
146
158
161
152
153
178
178
183
177
172
155
127
104
69
41
23
22
37
58
60
47
42
42
36
52
51
53
57
57
58
55
58
54
50
51
52
47
57
63
50
51
58
52
51
46
52
50
47
56
53
50
52
48
55
54
56
60
61
56
58
52
58
54
61
51
47
58
62
67
66
64
69
62
60
64
65
67
63
63
69
76
75
68
66
69
67
61
73
82
80
77
74
84
98
92
75
86
87
79
75
69
79
84
84
73
76
79
94
95
101
102
103
103
100
103
104
102
98
107
116
121
109
101
107
105
121
112
103
105
103
109
109
104
99
98
96
92
89
92
90
102
99
109
104
103
94
89
88
80
72
72
77
78
77
70
60
55
68
52
48
62
56
57
47
55
56
46
41
37
47
53
52
45
50
51
50
42
47
44
41
46
44
44
50
46
47
52
48
51
49
48
67
53
38
41
52
46
54
52
54
53
44
50
57
59
52
55
58
47
49
45
39
43
42
57
45
38
50
48
44
42
45
51
48
51
58
64
56
46
54
48
49
50
37
37
40
50
48
63
61
58
49
54
56
52
43
49
53
56
55
52
58
56
57
51
51
46
45
50
51
42
38
47
51
46
47
43
43
36
45
39
37
40
39
44
43
45
50
51
50
39
41
45
40
41
35
33
48
49
60
53
42
40
41
32
29
37
50
50
47
46
42
46
51
50
58
46
32
31
30
31
43
39
41
40
45
50
49
56
51
37
23
31
43
42
49
54
48
38
49
43
40
23
24
37
36
41
37
45
43
26
39
44
40
44
43
44
44
41
42
33
27
31
41
54
52
51
41
41
45
33
30
33
34
41
36
42
54
47
47
35
34
38
32
35
50
53
39
40
39
46
43
37
34
37
40
43
41
47
40
40
45
51
34
37
38
39
29
49
44
42
42
43
40
37
32
45
46
36
44
35
40
50
49
51
54
49
48
34
27
31
34
41
44
36
35
37
45
48
46
45
61
55
48
43
40
36
35
36
50
51
54
53
45
41
62
60
58
53
53
54
58
60
64
53
47
45
48
53
49
46
36
39
39
48
53
47
48
51
51
54
46
40
44
48
34
33
44
41
34
37
35
32
34
42
39
40
48
41
41
44
38
38
38
41
52
46
46
40
30
25
23
34
47
43
49
51
42
53
74
106
121
125
141
143
147
153
173
173
169
177
174
179
181
176
156
140
124
73
41
9
12
26
43
56
58
53
56
44
43
42
45
43
52
54
55
60
66
63
50
51
50
50
59
62
60
64
67
61
56
69
73
57
46
48
50
52
47
47
49
71
60
65
62
55
45
45
62
58
65
72
66
62
61
68
59
55
61
64
73
72
62
70
65
67
72
79
75
74
75
76
67
62
68
69
71
85
86
97
93
85
87
88
101
97
90
91
96
97
93
86
92
90
96
94
96
102
95
95
107
112
104
104
104
108
102
100
121
112
104
108
113
116
122
129
127
121
114
104
111
110
114
109
110
111
98
100
95
96
100
90
91
81
87
92
88
82
72
74
71
81
82
78
51
44
53
50
51
52
55
57
50
47
49
50
50
51
52
58
52
57
51
52
51
51
50
58
57
58
64
62
55
49
53
52
56
55
60
59
56
50
34
40
51
58
63
52
48
43
47
54
63
59
54
48
51
51
58
59
56
57
48
39
61
70
77
73
61
54
51
44
54
50
50
51
57
53
50
43
41
45
56
58
76
61
61
56
41
47
52
55
55
51
50
55
63
58
55
54
57
55
57
50
44
51
49
53
50
51
53
54
59
54
39
45
45
47
32
32
41
45
66
63
58
65
65
61
59
56
51
44
40
43
50
49
47
37
55
50
55
46
43
39
47
45
42
51
48
48
52
53
53
46
53
56
59
50
46
36
30
31
38
42
46
39
41
50
63
58
48
46
54
58
50
51
60
60
50
38
48
51
52
56
48
45
48
48
48
54
51
48
38
43
44
54
43
31
40
43
42
45
48
54
40
44
48
47
42
42
35
42
54
50
48
50
47
54
53
48
46
42
51
47
36
41
47
46
44
41
45
39
47
58
53
53
50
52
50
50
54
46
41
43
47
58
57
54
45
53
51
59
55
55
44
38
31
25
37
50
50
52
55
58
60
49
43
48
57
59
56
51
51
37
46
55
53
65
69
75
63
55
51
48
51
54
53
60
55
57
53
49
62
66
60
51
50
53
49
51
43
43
43
45
45
47
59
59
57
63
58
48
46
42
38
38
44
42
41
40
41
40
42
45
51
53
52
53
51
33
38
37
27
25
28
33
36
49
71
84
101
114
132
149
163
159
151
165
177
159
172
178
190
187
184
168
146
128
100
67
30
34
45
40
45
54
48
49
59
61
63
51
50
46
44
50
46
49
63
62
60
54
67
64
66
64
66
63
57
56
47
59
72
72
58
65
60
60
65
63
69
73
87
75
58
51
54
54
61
73
77
78
80
66
57
66
61
59
55
55
61
73
70
61
65
70
68
85
90
74
71
68
83
82
86
86
87
95
87
73
69
73
88
91
94
94
99
96
93
92
96
102
111
98
93
101
107
118
114
120
114
111
113
113
121
129
125
119
109
104
105
108
104
109
114
98
103
108
102
105
112
106
105
107
110
112
103
104
102
95
100
104
84
83
81
76
76
71
78
76
75
74
66
60
59
57
62
75
71
70
66
50
46
51
53
54
50
51
58
50
45
43
57
64
61
63
72
69
50
44
48
47
45
51
41
37
43
53
49
56
50
48
58
57
53
58
59
60
59
62
61
52
51
57
55
48
41
39
43
46
54
61
61
59
58
69
66
69
72
72
46
50
55
61
60
52
50
50
64
60
50
55
51
52
59
63
51
56
55
53
59
54
47
54
60
65
53
50
41
47
52
57
56
60
64
64
57
49
58
50
53
50
44
42
53
57
61
56
55
55
51
53
62
59
54
59
56
57
46
36
47
47
55
41
42
50
48
45
51
50
46
59
52
41
42
48
43
39
45
52
56
53
53
64
59
54
59
50
45
56
56
45
48
53
55
67
56
41
49
56
58
57
45
40
45
46
44
57
62
79
83
71
62
52
52
51
52
55
54
51
48
47
50
52
46
51
58
64
47
47
47
52
52
51
48
56
51
42
43
41
39
37
46
48
48
62
65
59
60
48
43
29
39
52
46
45
46
45
35
39
45
44
46
36
35
39
30
26
35
48
62
75
87
105
123
143
145
154
153
153
148
138
154
174
172
178
177
167
145
115
89
63
20
9
17
26
35
54
51
63
64
57
52
52
57
58
57
58
49
51
62
61
55
64
64
63
60
55
69
63
56
63
56
54
64
66
61
70
61
65
62
55
65
65
57
54
57
55
60
74
62
52
55
72
60
59
64
62
70
74
71
67
74
78
77
69
69
63
62
81
88
82
75
84
91
77
71
82
84
84
78
84
84
89
96
94
90
88
96
100
97
99
110
107
108
100
105
115
105
96
103
99
114
123
119
110
106
114
126
119
115
117
123
123
126
127
118
121
120
115
117
111
110
112
109
107
106
104
106
101
99
91
85
86
89
92
89
72
83
80
75
72
59
56
62
69
71
70
57
54
62
65
54
38
43
47
50
55
60
54
64
49
48
52
62
61
64
56
54
40
43
49
49
50
60
58
56
47
65
47
56
60
52
52
51
51
51
59
58
53
48
55
51
57
61
55
60
64
67
58
54
59
59
56
54
48
42
43
46
54
63
62
53
59
66
63
56
59
65
68
65
61
60
44
41
54
71
67
66
54
46
58
56
58
55
60
66
63
51
51
57
55
52
55
59
51
52
64
56
50
45
50
55
58
55
52
58
63
50
58
54
52
62
50
53
53
57
55
57
63
61
45
46
49
55
54
52
54
58
62
54
53
47
38
43
63
68
55
48
51
56
53
52
45
54
52
56
61
49
43
40
42
49
63
62
56
56
59
54
59
65
56
59
65
64
60
63
66
69
66
57
56
64
61
65
40
43
48
44
49
47
54
58
63
58
56
44
45
44
59
67
50
48
46
34
38
40
45
51
46
43
39
44
54
52
43
46
48
54
44
39
45
39
39
36
42
42
46
59
77
100
117
127
136
149
158
160
157
164
159
178
185
198
194
176
171
149
126
100
62
26
5
20
41
51
64
64
54
48
53
52
48
58
64
51
55
63
59
52
62
55
63
65
66
60
52
57
50
50
60
58
56
68
61
70
74
77
71
56
68
79
79
80
72
61
64
51
47
57
67
72
67
54
60
62
68
70
88
89
82
62
64
65
66
65
60
60
72
83
82
74
74
77
86
74
75
84
96
93
88
79
84
93
86
93
98
106
108
107
107
110
100
96
99
90
106
104
107
110
107
103
110
125
114
121
123
120
106
115
120
114
109
109
110
109
119
120
112
117
111
111
109
111
105
103
104
94
96
107
101
97
88
79
70
73
77
78
67
70
74
80
77
83
70
65
66
52
52
52
44
43
54
52
52
52
50
43
47
48
66
62
62
67
63
60
52
52
47
46
47
53
55
58
59
56
59
54
52
58
63
58
44
40
57
54
48
52
63
62
63
50
53
55
56
60
60
51
54
56
61
64
58
56
47
57
65
68
75
63
47
46
62
58
50
52
53
54
55
60
62
64
71
70
61
57
63
54
50
54
53
54
49
55
52
55
56
43
58
58
52
61
58
59
61
54
54
60
61
63
57
44
36
43
44
50
60
67
67
71
62
50
51
47
47
55
51
49
53
53
47
43
49
49
48
56
52
56
63
61
58
44
45
43
49
55
54
52
52
61
52
50
48
49
52
50
45
51
59
59
66
63
55
64
54
51
48
47
42
45
46
39
46
44
43
46
39
44
56
52
53
52
48
54
45
48
56
60
71
54
49
58
50
54
52
42
43
45
56
52
53
49
56
54
47
48
46
58
64
57
50
51
56
51
51
60
73
67
59
52
47
56
49
56
58
50
52
57
59
45
41
53
68
61
65
68
68
63
65
58
57
57
54
56
46
53
56
57
53
53
56
52
38
36
40
44
50
48
50
46
52
59
54
54
56
49
49
46
41
37
47
47
54
56
34
25
31
36
38
43
45
62
65
72
97
121
139
146
146
141
160
173
167
164
184
197
197
193
180
160
142
111
89
58
29
29
35
43
55
63
63
62
66
71
71
63
64
77
75
80
68
56
38
41
56
52
49
58
55
60
64
61
70
65
62
55
59
49
50
56
61
64
64
71
73
71
57
62
68
63
63
64
65
68
64
58
69
72
81
74
68
65
67
67
65
72
78
80
74
79
73
74
71
72
77
82
88
92
88
85
79
70
85
99
89
74
77
90
92
83
81
90
92
95
100
105
111
112
112
117
103
88
91
99
98
98
107
110
117
118
114
106
115
118
123
118
123
119
110
114
113
113
117
113
116
108
103
97
108
100
95
100
96
94
92
95
94
87
80
74
70
69
71
78
79
81
75
75
65
65
53
46
50
60
61
58
60
53
49
57
67
56
61
67
58
54
54
60
62
64
67
59
49
52
47
53
62
60
67
67
58
45
47
53
53
57
68
65
59
56
49
55
60
65
63
71
79
72
68
65
52
44
50
56
51
50
55
57
63
56
47
58
54
47
48
52
69
66
61
67
57
58
58
60
66
64
66
59
61
59
58
62
61
64
59
53
52
62
65
71
74
79
66
42
41
46
51
59
67
63
57
43
52
52
55
50
55
67
68
65
63
54
52
44
50
51
52
53
59
59
59
68
59
53
53
50
46
45
51
47
45
53
54
58
48
46
49
52
59
52
49
51
54
55
56
50
48
63
64
63
60
62
52
55
44
51
62
60
50
54
52
57
57
57
41
35
42
36
42
53
54
51
54
48
58
55
46
49
46
48
54
56
50
51
53
51
52
46
52
59
50
42
47
50
53
52
47
48
50
54
44
55
61
61
59
52
47
41
43
46
54
54
63
64
60
67
64
52
47
43
44
40
45
47
47
45
41
49
55
53
56
49
43
43
54
56
56
51
52
52
44
48
56
43
41
53
53
52
60
51
56
56
48
47
47
51
47
53
58
49
39
47
52
56
57
67
68
60
43
48
42
41
45
47
56
55
59
64
59
58
43
42
46
42
49
48
43
40
51
49
50
50
51
49
53
53
52
51
49
44
55
63
59
50
45
45
50
59
59
45
48
51
50
53
69
60
46
38
46
64
59
59
52
57
57
48
45
43
47
52
52
60
70
73
69
50
46
51
55
52
45
58
66
66
59
54
66
62
62
62
64
55
43
46
47
44
60
59
55
53
50
37
35
47
43
48
49
39
41
54
51
60
50
55
53
52
43
33
49
44
40
43
44
59
40
32
39
42
42
41
40
42
49
62
82
107
126
138
150
156
178
182
182
170
185
181
171
181
170
166
143
121
95
66
40
29
39
51
59
62
59
45
60
54
50
57
62
61
56
50
49
53
54
63
48
53
57
58
65
65
58
62
52
58
55
43
49
48
49
64
71
74
70
74
66
49
45
58
61
64
67
71
76
63
46
56
64
64
58
47
53
70
67
70
70
68
64
71
71
66
60
64
74
74
75
64
79
88
78
83
71
83
93
91
90
85
87
74
86
78
80
80
83
89
97
91
93
84
92
98
92
90
93
112
108
104
101
102
103
99
95
96
90
90
99
101
114
111
105
105
107
99
93
83
94
106
108
106
95
96
94
93
95
108
92
89
95
95
73
69
77
73
72
77
77
69
66
65
54
54
57
48
48
57
52
46
46
49
57
50
49
46
54
45
44
50
58
63
61
48
50
52
46
46
45
49
49
47
47
52
51
48
50
59
58
56
53
51
58
52
47
50
56
56
64
59
59
53
52
45
42
36
37
50
55
59
63
62
61
54
55
57
48
46
46
54
50
56
47
53
60
64
55
49
52
46
41
47
54
51
55
62
60
54
52
55
52
54
60
51
53
67
59
53
61
51
53
44
46
40
43
40
48
48
41
50
59
60
60
49
47
56
55
57
45
44
40
41
46
43
50
52
41
50
49
45
48
46
47
44
45
40
45
42
49
39
49
53
54
55
59
59
56
52
48
37
30
39
37
36
36
37
41
56
54
47
33
46
54
64
52
41
42
44
43
30
32
36
42
42
44
44
43
42
46
45
44
53
54
48
45
53
52
49
51
49
45
40
31
36
41
53
56
61
46
47
50
55
49
47
43
42
40
34
35
42
45
54
60
62
61
56
60
51
47
45
45
48
40
47
56
58
64
61
49
49
51
53
52
39
54
55
54
51
54
54
53
40
28
35
37
45
52
48
47
38
36
40
32
39
41
37
39
56
60
47
38
43
42
43
49
39
25
27
25
26
23
28
31
36
45
60
76
94
116
136
144
145
144
141
146
147
154
165
181
171
161
156
140
106
74
57
27
12
14
23
40
60
61
54
53
48
51
51
49
55
60
62
53
62
64
51
47
40
35
43
50
57
55
59
55
51
51
55
49
57
58
59
74
68
67
59
58
62
61
54
51
41
54
61
67
60
57
61
58
62
65
63
63
73
71
76
67
65
69
67
67
69
69
81
77
80
67
60
69
70
65
58
75
78
75
81
86
94
86
88
82
90
101
98
91
88
95
99
93
90
79
82
87
91
87
88
109
114
117
119
109
102
107
113
115
112
103
107
110
117
115
111
111
114
116
117
99
92
109
117
118
97
94
86
91
96
103
83
81
87
86
74
67
69
64
62
64
65
64
61
62
56
50
57
52
49
47
50
45
45
45
47
47
39
43
40
41
59
67
62
52
45
60
46
33
38
53
51
55
50
51
54
50
50
57
51
50
43
54
57
50
58
62
55
54
54
45
41
41
51
50
52
51
49
55
49
52
49
55
59
47
39
46
51
44
44
57
52
55
61
56
62
50
57
55
52
50
47
51
53
52
46
51
54
60
57
52
44
48
55
54
55
61
53
49
52
44
46
54
59
54
63
54
44
37
35
42
46
50
59
52
53
64
50
44
45
45
54
54
55
57
60
60
52
39
40
46
44
46
54
40
51
33
35
40
45
43
43
55
56
55
50
49
59
46
40
37
42
40
42
54
54
68
54
44
51
47
46
50
44
46
44
45
47
43
37
43
51
49
57
51
52
56
60
66
65
57
65
71
58
59
43
49
46
40
46
56
65
58
48
46
57
43
47
47
48
35
38
36
46
60
46
37
41
50
46
41
40
40
40
43
41
35
31
33
39
40
45
52
52
51
41
44
50
52
42
44
42
36
34
22
26
38
44
60
71
89
111
131
134
157
142
131
132
136
130
133
153
173
168
161
154
136
109
81
58
23
14
22
30
34
46
49
51
50
47
47
53
45
41
54
56
56
59
65
71
63
59
55
49
44
41
43
50
57
54
64
70
62
58
64
60
55
53
48
52
61
58
58
54
59
61
61
62
71
66
59
54
57
67
75
63
61
58
60
54
58
63
66
70
74
70
67
64
64
67
69
67
72
77
89
81
81
79
80
81
86
86
87
93
88
80
83
81
84
94
95
93
101
100
89
80
101
99
107
106
105
108
106
108
112
111
102
110
110
111
117
107
101
103
108
112
106
114
117
109
102
104
99
98
99
91
79
81
83
91
96
95
86
88
83
74
71
77
73
61
42
49
60
64
65
55
48
42
47
49
43
43
46
56
65
52
48
42
44
41
40
46
48
50
56
51
57
57
58
50
40
41
49
43
41
51
45
44
46
50
50
59
56
48
49
45
40
49
53
56
57
53
57
54
45
41
46
55
41
35
48
47
49
52
50
57
62
60
56
55
62
49
37
49
42
59
61
64
47
46
60
68
64
58
51
46
45
46
44
55
62
68
69
58
52
43
37
41
44
41
54
53
52
54
55
48
41
40
45
50
53
57
49
48
46
56
46
54
52
54
42
43
52
57
52
55
51
43
44
56
61
62
52
45
48
48
49
50
48
46
39
43
53
58
51
44
51
50
49
45
43
50
49
57
47
41
31
37
43
47
40
39
44
41
38
50
53
51
36
35
47
53
62
66
52
45
46
51
54
44
37
35
41
52
47
49
48
48
45
57
57
59
45
33
44
46
48
43
46
54
59
58
58
59
60
48
54
51
47
29
41
47
54
56
51
48
44
53
57
55
59
60
58
56
60
49
46
48
59
58
52
47
42
55
50
49
58
55
55
52
43
46
55
54
49
48
56
42
37
32
41
43
55
47
38
46
54
49
49
53
42
47
58
58
44
41
37
35
37
38
36
43
38
33
33
35
41
45
48
62
79
99
118
129
140
143
131
148
159
141
141
177
188
181
172
157
147
125
109
79
39
25
29
28
42
54
51
52
52
50
53
56
59
50
58
57
45
51
70
74
70
58
54
54
49
54
46
42
53
55
54
58
56
59
53
53
56
66
67
67
68
58
52
50
53
57
50
46
56
58
64
62
57
67
65
61
55
61
68
68
61
66
66
66
70
67
62
67
81
75
72
71
74
70
82
93
73
87
78
71
78
81
83
75
73
79
80
75
85
90
97
93
97
95
105
101
89
84
91
100
112
110
106
99
103
95
97
101
114
113
108
102
97
96
108
110
104
108
112
112
112
102
112
111
108
96
90
94
95
97
87
83
86
80
83
61
60
59
64
63
72
70
61
68
75
64
62
58
68
63
52
30
38
51
49
42
41
47
47
41
47
48
51
48
53
51
46
44
45
61
59
54
51
50
45
53
56
54
53
56
61
62
46
47
43
45
51
52
52
51
47
45
55
57
62
65
74
75
55
42
44
52
51
57
37
40
48
49
50
56
50
52
56
51
46
48
54
58
56
60
66
49
50
45
49
47
56
53
49
47
53
58
58
57
61
55
51
50
53
58
52
55
57
56
64
64
47
48
44
44
48
57
56
64
45
36
37
44
47
51
58
56
58
57
49
47
42
46
45
51
51
48
49
52
52
45
45
47
50
49
47
44
43
48
47
39
40
49
47
47
46
50
52
54
55
44
47
50
51
53
50
46
45
45
39
41
40
42
48
52
51
55
58
64
64
68
43
25
30
36
37
42
51
61
54
48
43
36
45
49
28
25
38
48
42
45
43
44
49
54
35
34
36
46
42
43
45
43
46
54
40
42
51
51
40
55
55
67
63
66
50
34
34
38
49
43
43
43
39
32
37
50
46
40
40
42
52
49
42
40
48
47
42
52
47
49
47
43
42
45
39
42
47
41
49
49
43
41
46
39
40
43
47
49
54
55
54
41
40
49
52
59
58
41
44
48
45
37
27
46
60
53
50
48
29
31
34
36
44
48
48
41
38
38
38
40
48
45
47
55
51
40
41
37
40
50
54
43
40
40
38
54
50
48
51
45
54
39
37
33
38
55
63
61
68
70
59
51
54
43
42
40
47
44
41
49
55
57
56
57
56
39
36
45
51
49
46
39
42
44
47
56
50
42
38
40
46
47
40
40
38
41
42
40
47
48
47
45
47
37
33
33
34
49
42
47
43
37
49
48
49
57
57
40
27
24
20
26
35
45
63
79
88
101
123
133
141
152
170
166
149
144
167
173
181
170
148
143
131
102
75
50
30
28
41
55
53
58
64
56
57
56
57
58
57
56
49
48
47
45
46
55
53
46
49
58
63
66
66
64
62
50
43
47
47
56
53
58
50
49
56
70
55
50
51
52
52
54
52
55
54
65
70
62
62
58
59
65
72
72
71
64
52
53
61
60
58
66
65
69
75
75
67
74
78
68
67
73
73
80
78
74
78
90
86
86
92
96
90
69
68
79
81
85
91
96
99
95
95
100
104
96
101
101
104
103
100
100
107
99
97
100
107
102
99
101
104
108
98
104
104
106
105
98
113
99
95
102
96
80
78
87
98
95
81
78
73
73
73
77
69
72
67
67
57
57
61
66
63
59
68
59
58
57
52
54
48
44
51
47
48
48
66
57
50
53
59
55
53
50
38
41
41
42
44
46
51
57
57
59
56
63
62
66
64
58
50
52
53
49
53
46
53
54
68
62
62
68
55
45
51
40
50
62
47
46
57
58
71
66
64
58
44
47
47
47
56
53
52
57
52
45
44
46
55
45
50
67
61
57
51
56
67
60
64
64
65
54
58
63
49
43
44
46
47
49
55
57
58
65
64
68
64
57
39
32
33
33
48
55
50
50
49
57
58
49
51
59
52
51
53
39
37
41
54
50
45
46
55
56
46
49
51
51
44
35
40
38
51
48
54
52
59
58
53
56
54
47
40
40
41
45
50
49
50
46
50
53
47
52
46
43
46
49
40
42
44
35
44
46
45
52
45
57
53
48
50
50
43
42
49
54
54
52
47
45
44
57
53
47
41
41
34
45
49
44
44
44
43
46
53
51
45
48
46
48
46
38
44
46
50
45
51
54
47
46
49
49
38
43
56
69
55
60
64
42
42
43
48
37
28
30
43
48
53
53
54
51
53
45
53
57
49
50
43
41
45
45
45
42
49
46
45
47
43
38
43
41
47
45
47
49
59
61
54
42
42
46
52
52
48
56
53
51
36
50
48
49
52
44
52
46
50
47
46
43
55
52
56
51
55
59
52
45
49
50
47
47
51
47
51
50
57
49
41
42
48
42
47
42
45
42
45
50
57
56
56
64
62
47
48
57
58
62
61
61
56
59
49
51
53
48
51
56
65
63
48
56
58
51
48
47
51
52
49
48
63
53
56
53
35
34
34
38
47
52
48
54
57
49
49
33
33
39
33
46
46
37
34
29
39
44
37
35
46
50
50
41
46
74
83
105
113
123
142
144
140
161
175
154
157
181
189
190
186
173
159
145
101
64
44
25
23
37
58
64
64
68
65
57
52
48
52
58
59
55
53
46
62
56
53
59
44
65
71
61
60
66
68
73
70
65
49
50
44
48
59
51
49
56
64
72
67
60
63
63
68
60
59
68
73
72
68
60
60
57
63
57
56
58
64
66
69
69
59
72
74
75
71
75
71
71
73
75
70
66
66
74
80
78
81
84
92
92
99
109
109
97
84
84
83
74
85
93
92
89
97
101
107
112
114
112
110
113
101
85
102
117
113
106
104
106
105
112
116
119
111
103
96
106
108
106
105
104
103
98
104
104
98
98
100
93
77
77
74
79
83
88
79
85
83
89
80
74
74
64
51
55
44
46
47
48
52
54
48
46
49
58
57
53
60
60
54
47
59
58
59
59
46
45
59
61
57
45
55
43
46
59
57
52
51
54
61
50
61
56
56
52
48
47
44
53
63
66
59
61
66
76
70
56
36
36
56
53
51
46
48
51
52
53
47
61
60
67
65
71
63
54
51
54
45
54
59
49
48
52
50
49
53
57
52
58
60
56
55
60
60
60
59
57
61
59
45
41
41
57
56
59
61
57
