-23
-12
-6
-11
-22
-36
-29
-13
11
9
0
-13
9
-20
-15
-1
14
-22
-27
-13
-1
-9
-27
-17
-30
-30
-18
-11
0
-6
-21
-5
5
-3
-22
-17
-6
3
-10
-12
-22
-20
-36
-9
9
-7
-4
-7
-9
-16
-29
-35
-26
-27
3
-25
-3
2
-6
-16
-17
-12
-15
-10
-15
-13
-11
-10
-21
-18
-23
-28
-4
-12
-11
-14
-14
-12
-22
-24
-23
-17
-24
-12
-7
-34
-12
3
-7
-21
-4
-5
-11
-12
-12
-16
-12
10
7
-12
-26
-25
-14
-7
-9
-5
-3
-7
-19
-21
-20
-25
-42
-27
-12
-3
-9
-4
1
-10
-30
-33
-31
-8
-15
-24
-22
-26
-24
-13
-14
-26
-27
-8
-19
-7
-9
2
-24
-15
-15
-29
-26
-13
-18
-9
-12
-10
-7
-1
2
14
-12
-4
-18
-12
-17
-14
-21
-33
-27
-30
-28
-11
-12
-20
-24
-20
-8
-13
-25
-30
-23
-11
-26
-9
-5
6
-13
-36
-26
-16
-24
-22
-10
2
-8
-7
-30
-22
-18
-11
-19
1
-2
3
-2
-20
-34
-16
-12
-9
-3
-16
-5
6
9
10
8
-15
-6
-25
-12
14
-4
-5
11
-5
7
7
-10
-15
-18
6
2
-23
-15
-6
-24
-26
-32
-2
3
-28
-20
-9
-12
-10
-36
-32
-16
-9
5
-2
-3
-4
-11
-19
-5
-17
-51
-51
-18
4
-18
-21
-11
1
-8
-4
-8
-16
-6
2
-2
-15
-31
-23
-18
-25
-15
-23
-9
-5
13
6
-14
-27
-19
-22
-22
-37
-42
-15
-1
-4
8
19
27
39
69
106
129
144
158
148
134
131
123
69
32
13
4
1
-3
-22
-26
-47
-45
-27
-18
-10
-6
-9
8
0
0
12
5
-27
-22
-18
6
4
-20
-27
-10
2
-19
-11
-21
-3
-2
2
3
-11
-12
-11
-8
0
-5
3
6
22
8
-29
-9
0
-8
-18
-7
-7
-26
-13
1
-1
-2
-8
-3
9
9
3
1
-3
10
11
-13
-20
-3
-1
-14
-15
5
-1
1
13
3
15
1
0
15
10
0
-5
17
-3
0
12
8
23
23
14
11
16
12
3
13
19
26
18
21
19
37
54
54
47
35
13
18
44
42
44
49
40
44
50
54
57
69
68
65
62
73
67
56
64
57
63
70
81
81
62
63
80
78
82
65
72
60
51
55
58
46
39
35
28
22
30
26
20
6
3
12
10
22
11
-13
6
2
11
5
-26
-17
1
-5
-12
-5
-12
-13
-11
3
2
-18
-21
-7
5
-16
-14
-4
-15
-20
-5
-6
-7
-22
-16
-19
-4
-9
-3
-17
-25
-22
-2
-2
-15
-21
-23
-24
-13
-3
-2
-10
0
-5
-11
-22
-28
-18
-28
-16
-18
-4
3
-6
13
-7
-4
-5
-15
-19
-8
-8
-16
-22
-14
-7
-28
-39
-2
0
-33
-17
7
-2
-23
-24
-12
-14
-3
11
4
8
-15
-1
-7
-28
-6
-14
-4
4
-19
-9
-1
5
-20
-29
-19
-5
-3
1
4
8
-12
-17
-28
-29
-17
-12
-17
8
10
-18
-28
-28
-17
-16
-15
-7
-23
-23
-16
3
-6
-13
-31
-13
5
-7
-18
-11
-15
-8
5
-20
-3
3
-6
-18
-13
-29
-21
-10
-24
-12
-11
-1
-4
-21
-21
1
-3
-8
-7
-7
-11
-18
-17
-24
-22
-33
-23
-4
2
-9
-11
12
-1
-8
-19
-23
-23
-28
-30
-20
-13
-14
-27
-24
2
2
-10
1
2
4
7
10
7
-27
-18
0
-4
-7
2
-9
-1
-6
6
11
-8
-2
-1
-11
6
13
-5
-20
-8
-5
-11
13
7
7
-2
3
-18
-19
-23
2
-12
-10
-13
-10
-17
-13
-11
-9
-24
-35
-16
-10
-9
-27
-17
-25
-26
-19
-12
7
12
-1
-5
-9
-13
-24
-29
-23
-27
-26
-1
-5
-5
-32
-33
-25
-4
9
3
-2
-23
-38
-22
-25
-15
-21
-2
-17
-24
-26
-9
-14
-19
-3
-23
-32
-3
11
27
37
68
93
116
143
168
150
168
185
151
114
86
50
6
11
9
8
-1
-12
2
-19
0
8
-3
-27
0
-1
2
-15
-15
-23
-8
-10
-19
-16
3
-10
-4
-25
-26
-12
-9
11
28
14
-18
-26
-9
-23
-38
4
3
-2
-32
-14
-19
-4
4
3
1
-7
-7
-8
-20
-33
-16
-2
-1
0
-1
4
-8
-5
-5
-5
2
-17
-21
-12
-15
-7
-4
-8
-5
-9
15
1
-2
-6
-3
-8
0
-21
-1
3
3
0
6
-4
1
12
-1
1
3
7
20
28
12
16
2
17
31
7
13
26
33
16
12
6
12
37
33
30
40
40
42
33
36
46
58
38
56
57
63
73
61
60
64
64
62
71
63
66
67
73
63
62
53
48
46
30
37
62
43
49
38
25
24
5
-3
20
15
16
12
8
9
8
-12
-8
2
-4
-22
-17
-8
-9
-19
-26
-14
-17
-26
-19
-6
3
4
-8
-15
-20
-13
-5
-21
-19
-21
-14
-11
-10
-14
-7
-7
-26
-45
-15
-1
-13
-22
-19
-20
-16
-21
-14
2
-24
-32
-15
-14
-25
-14
-28
-13
-5
0
0
-19
-26
-36
-46
-33
-10
-23
-27
-13
-12
-20
-10
11
11
-9
-28
-17
-14
-32
-28
-6
-12
-23
-21
-19
-14
-19
-21
1
-10
-28
-25
-23
-17
-20
-18
-6
-20
-7
-4
-5
-7
-13
-2
-5
-37
-36
-23
-9
-11
-7
-16
-2
-28
-20
-14
-12
-22
-25
-27
-23
-15
-15
-15
-11
-4
1
-3
-14
-30
-22
-24
-26
-21
-11
-28
-23
1
-12
-18
-29
-17
-18
-18
2
9
-12
-15
-12
-10
-19
-36
-28
-12
0
-23
-18
-6
-18
-30
-18
-16
-20
-7
-18
-20
-17
-29
-21
-20
-16
-20
-31
-27
-12
-21
-14
-5
6
-19
-37
-35
-37
-22
-16
-13
-22
-18
5
-4
1
-1
-11
-3
-16
-15
-32
-23
-15
-13
-30
-30
-21
-22
-12
-12
-12
-11
4
1
-10
-4
-13
-9
-17
-19
-18
-28
-5
-7
5
-2
2
-3
2
-9
-24
-6
-5
1
-4
7
2
-4
-16
-5
1
8
0
-1
-14
-8
-23
-18
-9
-10
-4
-3
-12
11
-27
-30
-31
-25
-34
-18
-22
-21
-32
-4
-33
-29
-22
-29
-9
-6
-4
2
-5
-10
-23
-28
-21
-2
-40
-38
-31
-10
-12
-1
-14
-12
-12
-17
-22
-26
-31
-3
-8
8
5
-3
-29
-44
-32
-45
-42
-35
-22
-11
11
32
47
64
93
122
139
155
176
186
186
166
136
93
72
30
22
36
13
0
2
-37
-39
-12
-9
-4
13
-11
4
4
-3
2
-18
-3
-8
-14
-10
-3
-4
-3
-15
-37
-15
-30
-23
-7
-9
-14
-22
-19
-2
-12
-32
-10
-6
-6
10
-13
-11
-13
-15
-11
-1
-11
-14
-19
-14
-6
-17
-12
-15
-3
-8
3
0
-23
-21
-1
0
7
7
7
11
15
9
-8
-12
-22
-21
-25
-14
-14
-17
-13
-16
-20
0
-14
-14
-11
18
2
3
14
18
14
13
-1
6
-1
-4
20
25
34
9
14
16
44
43
19
31
40
33
35
39
44
36
28
35
36
37
45
51
54
46
45
54
52
58
55
58
60
54
54
58
52
76
65
63
72
61
50
71
50
43
47
55
49
33
25
18
23
24
62
31
1
-6
-14
-6
0
-22
-25
-27
-10
16
-2
-10
-22
-10
-3
3
7
-28
-20
-4
-16
-16
5
9
10
-30
-20
-19
-34
-7
-8
-11
-16
-21
-20
-14
-10
-24
-33
-25
-27
-36
-23
-14
-17
-34
-4
-9
10
-5
-13
-11
-25
-3
4
-26
-21
-19
-13
-14
-7
-21
-32
-24
-30
-26
-38
-32
-16
-9
-5
-1
-10
-4
0
-12
-22
-22
-21
-15
5
-8
-28
-22
-15
-24
-13
-14
-11
-31
-14
-11
-5
-13
-11
-11
-20
-15
-8
-22
-31
-20
-3
-15
-28
-14
-3
15
-7
1
-20
-15
-24
-25
-7
-16
-26
-27
-13
-13
-13
-12
-21
-26
-35
-41
-25
-24
-21
-12
-15
-9
-1
-18
-44
-29
0
17
9
3
-19
-30
-13
-3
-7
-3
2
-32
-31
-33
7
0
-3
-10
-29
-23
-31
-23
-24
-6
-10
-14
-14
-12
-48
-22
-7
-15
-15
-4
-29
-34
-29
-8
-1
-9
-16
-22
-16
-13
-17
-16
-33
-33
-32
-10
-12
-22
-23
-12
-16
-15
-12
-25
-13
-11
9
-4
-16
-19
-33
-11
-23
-2
-17
-24
-24
-23
-5
-12
-3
-19
-22
-15
-21
-25
-27
-17
-14
7
8
2
6
11
0
-13
3
-1
3
6
3
1
-11
-5
-8
-17
-12
-1
-3
5
-32
-33
-21
-9
-16
-23
-23
-32
-29
-10
13
11
-22
-21
-28
-10
-4
-30
-30
-14
-8
-4
-11
-29
-29
-6
-30
-29
-26
-3
-23
-20
-16
-32
-30
-18
-9
-24
-35
-32
-12
-13
-20
-41
-27
-11
-13
-38
-32
-25
-1
14
0
-20
-30
-39
-31
-22
6
17
25
21
41
60
67
98
125
142
133
133
135
116
81
54
29
9
6
-2
-10
-32
-36
-30
-37
-44
-26
1
-11
-4
-6
-17
-19
-15
5
9
-9
-6
-17
-16
-15
-20
-25
-27
-21
-20
-21
-14
-17
-26
-12
1
-4
-3
-11
-34
-30
-16
-22
-4
-7
-2
8
-16
-10
-17
-8
-10
10
-5
-9
-15
-15
-34
-19
-14
-6
4
-9
-17
-16
-15
-22
-15
-6
3
-4
-5
-18
15
21
4
0
8
14
12
4
12
-1
2
-6
-6
9
14
10
4
-15
10
-8
17
6
1
-1
14
6
5
7
22
30
27
29
13
28
46
55
53
36
28
26
38
32
21
38
47
44
62
73
70
67
68
43
48
49
59
44
50
87
68
56
70
81
44
58
50
41
61
60
52
30
47
30
29
30
27
15
6
4
4
0
10
7
-4
0
19
13
-8
-22
-28
-14
-13
-8
-9
-17
-11
-36
-39
-19
-14
2
3
4
-19
-17
-17
-27
-34
-46
-22
-15
-5
-6
-13
-15
-20
-12
-10
-15
-25
-16
-7
-15
-12
-15
-32
-24
-31
-44
-37
-24
-9
-7
-11
4
-11
-10
-13
-14
-5
7
-6
-10
-29
-29
-9
-8
-13
-28
-21
-16
-32
-26
-27
-7
1
-21
-28
-19
-17
-18
-8
-26
-21
-8
-2
-4
-8
3
-12
-16
-17
-2
-25
-16
-29
-26
-31
-38
-20
-12
-19
-5
-8
-9
-11
-10
-1
-4
-26
-39
-38
-27
-12
-12
-7
-1
-17
-22
-25
-29
-3
0
-20
-27
-3
-29
-3
-13
-1
-10
-34
-20
-30
-19
-12
-9
-15
-5
4
-12
-30
-19
-7
-12
-40
-26
-19
-40
-45
-15
4
11
-3
-17
-32
-36
-32
-8
-7
-21
-33
-28
-29
-19
-14
-5
-20
-24
-33
-19
2
-8
-16
-31
-36
-18
-1
-12
-14
10
-10
1
-2
0
-21
-4
-7
10
-22
-14
-16
-12
7
6
1
-12
-18
-3
-9
-9
-8
-14
-10
6
11
9
-3
-13
-21
-38
-33
-39
-10
-14
-26
-21
2
-13
-9
-22
-29
-21
-23
-9
-11
-17
-13
-30
-25
-13
-20
-31
-27
-34
-21
-23
-29
-26
-12
-30
-17
-20
-19
-31
-20
-29
-29
-17
-18
-18
-18
-22
-5
-4
-8
16
-11
-5
-27
-41
-18
-18
-46
-41
-14
1
-2
11
21
46
49
70
105
120
138
157
140
128
110
62
33
11
-1
-7
-35
-40
-29
-27
-6
-14
-35
-15
-11
-12
5
-11
-13
-2
5
-6
-8
-17
-29
-15
-10
-25
-33
-17
-4
-25
-34
-33
-12
-20
-37
-35
-3
4
12
-21
-8
3
-25
-29
-21
-23
-5
-4
-1
-13
-10
-5
8
3
-6
-13
-8
0
0
-31
-28
-15
-4
-10
-16
-17
-3
-2
-10
-9
-9
9
6
-3
-7
-20
-8
10
4
-2
-10
-4
-7
-8
-10
-10
-8
1
9
9
8
5
5
8
8
20
21
10
2
16
14
6
28
20
21
12
24
43
56
40
18
19
30
37
45
40
34
45
58
57
58
72
69
65
58
44
41
60
63
50
52
65
62
70
59
58
50
55
62
58
42
31
44
32
31
27
23
22
32
0
-17
5
-6
-3
-6
-3
6
10
-11
-13
2
-5
-36
-26
-17
-32
-7
-9
-25
-28
-9
14
1
-22
-16
-15
-30
-20
-29
-16
-16
-5
-18
-46
-22
-6
1
-32
-32
0
-6
-23
-10
-18
-8
-24
-28
-36
-13
-10
-15
-25
-25
-36
-27
-18
-16
-34
-23
-6
-6
12
-3
-25
-12
-15
-14
-20
-25
-41
-29
-14
-10
-15
-10
-3
4
-1
4
-33
-19
-6
-11
-26
-9
0
-25
-11
-6
-13
-31
-25
-25
-25
-14
-10
-11
-17
-16
-23
-22
-8
-17
-16
-24
-13
-12
-18
-15
2
-12
-28
-31
-18
-20
1
-4
1
-7
-23
-38
-19
-29
-35
-20
-9
-12
-26
-25
-8
-3
-3
-29
-18
-2
-29
-39
-26
-3
-5
-13
-1
-11
-17
-10
-32
-38
-30
-11
-18
-19
-10
-20
-16
-21
-12
-10
-6
-12
-27
-22
-36
-29
-9
3
2
-8
-17
-20
-12
-15
-17
-15
6
7
-4
-5
12
4
13
6
4
0
-20
-5
-3
10
1
-4
-6
-18
-3
1
-12
-19
-26
-31
-29
-26
-11
-22
-44
-40
-29
-12
-4
-19
-26
-16
-23
-22
-15
-17
-17
-8
-4
-2
-9
-16
-30
-31
-17
-27
-17
-18
-12
-13
-21
-28
-18
-5
-15
-32
-41
-12
-6
-25
-18
-24
-28
-34
-29
-17
-5
-8
-7
-27
-27
-27
-24
-27
-18
-5
36
50
44
41
79
110
134
147
150
167
140
123
97
67
35
31
-1
-19
-16
-16
-15
-30
-30
-16
20
-8
-13
3
2
-7
6
2
-4
-20
-34
-19
-20
-15
-4
-14
-26
-14
-12
-5
-8
-14
-20
-12
-31
-30
-10
-3
-17
-20
-30
-26
-18
-10
-15
3
-15
-13
-9
-7
10
15
-15
-26
-14
-12
3
-9
-9
3
-16
-10
-1
4
-13
-15
-5
-10
-5
-1
-7
-14
-22
0
-11
13
7
-5
-12
-14
-23
-4
-14
-9
-8
16
-1
3
26
22
12
6
-16
-7
-3
12
32
34
5
4
7
22
11
16
7
20
38
26
37
26
28
38
49
42
37
46
62
56
61
49
51
69
54
34
66
74
52
56
60
69
55
54
51
48
49
34
37
58
55
57
51
48
51
27
17
15
27
24
36
21
10
4
-7
-21
-6
-14
-4
-7
2
-27
-13
-8
-20
-34
-19
-29
-28
-21
-34
0
-6
2
-14
-16
-8
5
2
-13
-13
-23
-10
-25
-21
-17
-23
-12
-10
-16
-13
-14
6
8
-16
-29
-31
-18
-15
-19
-19
-11
-17
-18
-11
-21
-4
-15
-16
-1
4
-15
-32
-33
-18
-15
-31
-32
-29
-23
-14
-26
-18
-4
5
-13
-18
-19
-16
-38
-28
-12
-8
-7
-11
1
1
-28
0
-8
-5
-12
-17
-6
-8
-12
-5
-2
-28
-20
-26
-14
-2
-11
-23
-5
-10
-12
-22
-18
-20
-7
-22
-18
-35
-40
-12
-9
-31
-14
0
-10
-26
-17
-22
-35
-15
-11
-15
2
19
-11
-2
-27
-19
-34
-24
-21
-30
-29
-16
1
6
-6
-41
-32
-20
-2
-4
-21
-10
-22
-11
-12
-17
-24
-13
-12
-11
-15
-22
-29
-18
-8
-20
-6
-11
-16
-14
-13
-17
-28
0
-16
-31
-32
-25
-16
-27
-29
-20
-2
18
-16
-16
-21
-23
-6
-9
-2
-5
3
-21
-30
-27
-26
-5
-2
-2
-3
-1
-20
-23
-3
7
5
-28
-29
-18
-22
-33
-11
-3
-1
4
-5
-9
-12
-2
-8
-1
10
18
-4
-15
-1
5
-9
-15
-14
-18
-16
-10
-14
-19
-6
-10
-6
3
-10
-34
-47
-31
-7
6
-14
-23
-9
-19
-18
-12
-29
-28
-39
-26
-14
0
-19
-44
-25
-25
-19
-32
-31
-38
-26
-11
-22
-11
1
-7
-29
-13
-16
-19
-18
-24
-25
-13
-19
-29
-26
-11
-4
5
-19
-46
-17
1
20
36
62
83
96
115
147
161
179
190
147
128
98
87
42
18
33
19
-10
-8
-21
-8
-13
-8
9
-47
-32
8
22
8
6
-16
-20
-22
-9
-5
-20
-26
3
-15
-28
-35
-20
-8
-6
-15
0
-16
-26
-26
-8
-4
-14
-20
-7
-18
-9
-7
-5
-12
-1
-8
-10
23
6
-16
-1
-35
-17
-2
-5
-8
-19
-14
-10
-10
-16
-5
-26
-17
15
3
-4
2
-30
-26
-16
8
3
1
1
-24
2
5
-8
-16
4
2
-2
26
11
4
-6
5
12
0
-4
19
41
27
-13
-6
-9
-2
15
33
26
23
13
9
9
10
12
33
51
51
35
39
45
36
30
38
47
51
68
60
71
65
48
57
51
50
58
52
54
66
57
67
53
61
52
60
53
55
21
27
15
25
28
19
24
14
8
6
7
27
23
4
-8
6
-8
-5
-3
-5
-12
-5
-6
-9
-1
-29
-42
-21
-10
-6
-3
-11
-9
-10
-20
2
2
-17
-2
-10
-16
-47
-32
-12
-11
-26
-37
-36
-19
-8
8
7
4
4
-16
-21
-18
-4
-22
-11
-25
-23
-19
3
-5
-15
-13
-9
-15
-10
-5
-8
-22
-9
-21
-25
-26
-15
-15
-26
-12
6
-6
4
-15
-24
-22
-15
-7
-13
-7
-3
-29
-19
-19
-32
-21
-9
9
16
11
-5
-37
-16
-4
-5
-16
-30
-11
-18
-2
-16
-13
-11
-12
-22
-14
-17
-23
-10
-14
-9
-14
-16
-3
-10
-14
-27
-38
-31
-21
-26
-25
-28
2
-18
-11
2
16
-23
0
-12
-22
-15
3
-18
-17
-11
-22
-11
-15
-10
-16
-25
-21
-16
-15
-18
-15
-11
-13
-20
-21
-10
-7
-17
-35
-18
1
-2
-13
-14
-13
-13
-5
8
-9
-35
-28
-7
-5
2
0
-30
-13
-13
-12
-28
-14
-25
-24
-35
-28
-23
-38
-32
-5
5
-22
-22
-7
17
5
-11
-18
-25
-33
-28
-28
-15
-10
-11
-3
8
-20
-9
-10
-21
-19
-13
-8
-14
-4
-2
-14
-7
15
14
-42
-29
-17
-12
-16
-2
-8
-18
-17
-26
-10
10
-5
9
22
26
22
-22
-22
-10
3
11
0
7
-7
-5
-6
-14
-5
4
-7
-8
-13
-8
-19
-23
-20
15
3
-36
-30
-22
-17
-20
-16
-17
-13
-26
-18
-6
10
-5
-21
-17
-13
-18
-10
-21
-26
-21
-16
-25
-15
-14
-17
-9
-25
-14
-27
-29
-40
-29
-11
1
-7
-3
-3
-7
0
-4
9
-12
-26
-23
-24
-33
-20
-15
-8
-22
-7
20
57
88
112
138
162
169
190
182
163
151
123
95
68
21
13
23
-19
-12
20
-1
-14
-12
15
-1
-7
-14
1
5
2
6
0
-12
-19
-11
3
-1
-14
-13
-3
-15
-11
3
-7
-27
-12
-13
-18
-8
11
11
12
-17
-6
3
-14
-20
-27
-27
-6
-20
-37
-24
6
25
-4
-13
-4
8
3
-14
-32
-1
-1
-12
-9
2
7
5
34
29
8
1
-1
5
-6
-6
-10
-12
-8
-6
-7
-17
-9
14
12
11
3
-3
1
9
4
18
6
15
23
9
1
4
27
22
22
17
15
17
2
5
8
25
36
46
53
57
59
52
37
48
40
52
65
56
74
42
38
47
55
57
59
60
74
105
92
48
53
45
55
64
49
47
42
56
67
50
42
37
54
52
55
24
18
33
21
34
29
24
8
24
4
-8
-10
-14
-10
0
4
10
-2
-4
-23
-11
7
10
3
-15
-6
-7
-9
-22
-8
-32
-29
-18
-10
-16
-15
-16
-9
0
9
1
8
16
15
4
-31
-4
-18
-18
-11
-5
-33
-31
3
11
-2
-15
-12
-17
-29
-17
-14
-18
-21
-20
-17
-10
9
9
-6
3
2
1
25
-7
-27
-17
-24
-24
-19
-37
-15
-15
-28
-19
-1
19
12
3
-5
-17
-15
-19
-24
5
-5
-7
-25
-16
-17
-22
-12
-15
-3
0
-2
-9
-22
-16
-5
-8
-20
3
15
12
-11
-22
-22
-9
-21
-12
5
-17
-22
-14
-5
-4
-13
2
-29
-16
-15
-6
-13
-10
-11
-15
-10
-6
-19
-7
-15
-36
-22
-17
-9
-28
-6
7
-4
-16
-13
-31
-27
-19
-28
-8
2
-9
-8
-8
-16
-5
14
14
-32
-32
-18
-6
-19
-15
-14
-15
-15
-7
-5
-1
-14
-12
-25
-29
-9
3
5
-15
-18
-17
-26
-18
-13
-12
-7
4
-16
-17
-17
-21
-28
-1
-1
12
-9
-22
-27
-27
-32
-31
-20
4
-3
-18
-6
-12
-7
-21
-19
-21
-16
-17
2
-14
4
10
-8
-17
-17
-30
-14
-14
3
11
4
23
2
-15
-37
-14
-18
-26
-14
-2
5
15
14
1
1
-4
8
15
15
10
-14
-11
-5
7
2
5
-6
-4
-5
-20
-8
-12
-20
-30
-31
-14
-4
-6
-16
-16
-18
-4
-30
-38
-14
-14
-31
-18
8
10
-8
-12
-14
-20
-24
-27
-26
-23
-14
-6
3
-25
-34
-14
-27
-27
-23
-26
-18
-9
9
-20
-28
-19
-16
-13
-7
-23
-12
-20
-37
-39
-50
-41
-7
-10
7
36
42
60
92
123
146
155
144
164
170
171
149
115
79
40
24
7
6
-2
-24
-38
-39
-20
-10
-6
-11
-5
1
4
4
-14
-19
-13
-6
-23
-14
-17
-34
-16
-6
-9
-11
-15
-21
0
11
-5
-18
-15
-22
-21
6
-7
-17
-4
-29
-34
-17
-17
-24
-2
-7
-8
2
9
11
14
-15
0
-3
-16
-16
-11
-15
-2
-1
-6
-5
17
8
-21
-16
-43
-45
-11
0
-1
-3
0
1
9
-5
-12
7
2
12
-17
-1
1
-9
-13
-19
-8
14
7
21
32
9
5
8
0
19
23
31
24
10
21
13
47
37
36
33
45
44
26
26
30
39
41
31
32
23
52
58
72
74
75
80
38
26
86
74
60
69
42
32
47
51
68
66
50
61
43
62
40
40
51
28
30
40
42
27
25
21
8
1
2
0
-11
7
16
9
-10
2
4
3
-26
-30
-21
-23
-19
-1
-7
-41
-20
-1
-20
-23
-19
-27
4
5
-15
-33
-54
-43
8
-4
-41
-18
-2
-1
-7
-25
-22
-14
-23
-35
-29
-30
-11
12
6
0
-16
-9
-6
-41
-25
-19
-42
-34
-9
-6
1
-9
-8
-1
0
-28
-11
-25
-13
-20
-32
-22
-5
-14
-14
-6
-19
-8
-4
-14
-10
-27
-26
-15
-18
0
1
-21
5
-3
-24
-31
-27
-11
-12
-7
-1
-26
-5
3
-9
-43
-39
-26
2
6
10
-9
4
-11
-24
-17
-5
-29
-19
-16
-20
-4
2
-27
-27
-12
-27
-16
4
-24
-30
-49
-28
-26
-1
-14
-2
-6
4
-2
-27
-47
-30
-15
-15
-4
3
-5
-11
-16
-14
-18
-20
-13
-1
1
-19
0
6
-14
-28
-6
11
-15
-31
-19
-11
-21
8
-10
-40
-36
-23
-14
-7
-13
-28
-24
-26
-18
-13
-2
0
6
-12
-27
-3
-3
-2
-7
-22
-7
1
2
2
12
4
6
15
15
6
4
-7
-13
-4
3
-2
-1
10
3
-7
-19
-15
-11
-17
1
-21
-9
-23
-21
-11
-17
-9
-27
-23
-23
-19
-16
-14
-27
-10
-21
-14
-10
-14
-9
0
-7
-40
-40
-12
-12
-30
-38
-15
-12
-31
-20
-23
-20
-14
-6
-22
-17
-9
-9
-18
-23
-6
5
-22
-5
-30
-20
-30
-28
-31
-35
-15
-8
12
25
34
52
50
70
106
135
152
175
176
151
143
125
100
51
4
0
22
7
-14
-17
-27
-31
-40
-25
-16
-5
-7
-5
3
6
8
-6
-10
-12
-23
-3
-22
-17
-4
-12
-14
1
6
3
-5
-15
-11
-25
-18
-16
-19
-24
-26
-9
9
2
9
-5
-23
-18
-7
-4
-9
5
-1
-18
-8
3
-17
-17
2
-1
1
-13
-10
4
-7
-15
-5
1
-7
-8
-18
1
-7
-19
-30
-17
-6
-7
9
19
12
-25
9
10
19
19
11
6
-6
3
11
-4
-5
-5
7
36
34
6
4
19
19
16
18
23
24
24
22
17
29
43
54
46
46
59
46
46
34
28
54
43
54
49
52
65
79
89
90
84
77
61
66
40
70
76
68
66
60
48
59
64
69
51
37
34
32
62
38
17
34
33
17
14
18
19
14
-1
-10
-8
-26
-3
-1
-8
-6
-3
-14
3
-23
-30
-33
-12
-21
-23
-4
-18
-27
-17
-5
2
-3
-22
-14
-15
-23
-14
-7
-3
5
-9
1
0
-7
-18
-32
-24
-32
-22
-8
-2
-22
-13
-16
-17
-14
-25
-20
-19
-10
-20
-24
-24
-8
-41
-23
2
-2
-18
-27
-24
-17
-6
-18
-24
-32
-12
-10
0
-21
-42
-15
-17
-16
-26
-16
-24
-15
-10
0
1
7
9
-12
-27
-23
-27
-6
6
-7
-24
-16
-7
-1
-20
-11
8
17
-13
-13
-20
-29
-13
-1
-27
-30
-33
-17
-15
-12
-10
-33
-20
-22
-26
-20
-9
-13
-18
-30
-22
-20
-32
-13
1
-1
-4
-14
-19
-9
-13
-19
-20
-20
-10
-13
-14
-12
-26
-31
-25
-18
-18
-17
-28
-9
0
-15
-10
-7
-3
-8
-21
-39
-11
-11
-16
-12
-27
-31
-30
-32
-2
-10
-16
-20
-25
-21
2
-10
-5
-26
-34
-45
-16
-6
25
-6
1
-10
-31
-19
-22
1
-9
-34
-35
-19
-8
0
-5
-5
4
16
6
-12
-12
-10
-18
-8
-3
1
2
8
5
15
15
-8
-11
-2
10
-25
-15
3
6
2
-6
-1
-12
-19
-24
-28
-27
-13
0
-22
-13
-15
-45
-55
-43
-26
-13
1
6
-12
-9
-7
-14
-24
-12
-6
-21
-25
-15
-28
-6
-6
-19
-15
-3
-16
-21
-16
-22
-9
-6
-6
-11
-2
-41
-34
-23
-23
-23
-21
-23
-19
-8
-18
-33
-40
-35
-28
-32
-6
-5
2
30
36
53
67
123
152
155
173
170
180
153
117
90
86
43
13
11
-2
-13
-9
-14
-21
-23
-18
-5
5
-12
-12
4
5
-12
-9
-10
-20
-15
-18
-16
-12
-30
-17
-22
-35
-26
-27
-5
4
-8
4
4
-5
-28
4
-6
-34
-21
-25
-10
0
14
-3
-15
-10
-1
-6
-10
-33
-7
9
-3
-19
-14
-19
-2
3
-1
-3
-10
-12
-29
-4
-16
-20
-17
3
-8
1
-12
-2
-1
3
-1
-10
-11
-10
-12
-10
-13
4
9
-5
3
15
10
7
7
31
18
10
7
5
6
6
22
18
12
19
23
28
35
22
18
28
32
38
34
32
46
47
46
56
46
61
52
34
58
45
55
66
52
61
48
51
47
67
85
75
93
79
61
41
49
57
67
53
56
49
47
42
25
7
10
16
15
29
17
14
-1
-10
-3
-3
-1
-16
-9
-5
-22
-22
-9
-3
2
-5
-31
-36
-18
-23
-21
-13
-18
0
-10
-20
-21
-15
-18
-29
-32
-6
8
2
-12
-38
-8
13
-20
-30
-20
2
-24
-27
-12
-17
11
-21
-15
-12
1
-16
-16
-27
-29
-38
-18
-9
-18
-19
-6
4
-8
-47
-28
-30
-43
-27
-12
-11
6
-10
-18
-7
-19
-5
-16
-32
-23
-19
-12
-1
-17
-22
-21
-25
-26
-3
-18
-24
-12
-1
-14
-15
-6
0
-11
-45
-36
-13
-10
-12
-9
0
-23
-12
2
0
-2
-23
-38
-20
-15
-13
-2
7
14
-4
-20
-14
-32
-31
-30
-20
-8
-21
-7
-8
-11
-13
-28
-12
-21
-33
-32
-22
-4
-14
-23
-21
-11
-17
-31
-5
22
14
-21
-37
-34
-26
-20
-18
-22
-18
-18
-11
-7
-24
-16
-12
-11
-10
-20
-21
-28
-28
-22
-15
-14
-15
-11
-11
-9
-4
-16
-34
-32
-21
-23
-22
-10
-13
4
-27
-28
-6
-9
-23
-22
-10
3
-10
-3
-11
-10
-15
-2
-24
-4
6
9
-13
-9
-15
-4
-17
-8
-10
-5
2
-6
-6
-9
12
8
-4
-16
-17
-4
20
10
0
-3
-5
-6
-18
-18
-14
-5
-14
-12
-1
-9
-6
-31
-34
-37
-30
-2
-6
-19
-32
-13
-33
-12
-12
-2
-14
-29
-25
-23
-31
-11
-21
-29
-8
-17
-11
-1
-7
-21
-32
-12
-23
-30
-32
-21
-9
-3
-4
-14
-24
-20
-23
-35
-20
-13
-31
-31
-30
-13
-26
-14
10
21
36
56
84
116
148
160
182
195
182
164
115
68
64
52
35
18
0
-1
-15
-19
-23
-32
-18
-13
-6
-2
-11
-14
-25
-21
-21
-6
6
-1
-9
-23
-22
-28
-26
-6
0
-8
-25
-11
1
-14
-23
8
-5
-25
-16
13
-11
-13
-20
-12
-10
-10
-15
-7
16
7
-15
-25
-19
-28
-27
-15
-7
-11
-4
4
-5
-12
-27
-6
-2
13
10
-1
-2
-12
-10
-17
0
4
3
2
-13
-1
5
5
8
-3
-14
-3
1
-6
10
8
-2
2
8
5
5
7
15
13
23
4
15
18
33
35
18
34
31
51
32
33
26
36
42
38
26
39
44
45
47
68
67
63
47
48
62
80
67
52
59
44
49
71
73
62
67
67
66
75
72
56
54
50
69
58
49
59
60
42
21
10
4
23
15
24
20
4
-15
7
-7
-9
12
6
-7
-23
-24
-9
-8
-5
1
-8
-2
-3
-26
-46
-13
-2
-4
-16
-13
-12
-20
-23
-10
-7
-2
-11
-8
-16
-23
-17
-19
-19
-11
-14
-9
-25
-23
-11
-19
-4
0
2
10
-11
1
-11
-18
-17
-10
-15
-24
-8
-13
-12
-35
-31
-9
-11
-15
-15
-21
-11
-4
-6
-13
-4
-6
-30
-15
-7
-22
-17
1
-6
-21
-6
-20
-7
-13
-17
-20
-5
-11
-10
-7
-6
-17
-10
-27
-8
-4
-7
-12
-14
-18
-18
-9
-16
-9
-19
-16
2
6
-21
-26
-10
-21
-27
-13
-3
-15
-18
-16
-8
-1
-8
-31
-22
-8
-17
-39
-22
-23
-19
-14
10
-15
-21
-19
-11
-5
-7
-22
-4
-19
-5
-17
-19
-33
-7
-11
-20
-23
-9
-3
-19
-16
-16
-14
-15
-12
-6
1
-26
-9
-13
-38
-29
-21
-22
-22
-10
-7
-9
0
-10
-28
-15
-26
-40
-24
7
-7
-17
-13
-12
0
0
-12
-5
-1
6
15
-7
-32
-12
-8
-11
-10
5
16
9
-5
1
-14
-14
-3
-6
4
-3
-6
9
9
3
11
13
0
-26
-24
-17
-19
3
-8
8
-11
-26
-11
-26
-34
-28
-5
-7
-26
-20
-8
-11
-29
-41
-18
-24
-20
-20
-24
-10
-4
-15
-22
-25
-10
-9
0
-11
-16
-13
-29
-32
0
-7
0
-6
-10
11
-20
-22
-22
-23
-21
-15
-19
-15
-14
-34
-32
-25
-7
24
50
21
32
59
103
109
132
140
133
134
152
129
106
74
64
0
-3
-18
-14
-32
-34
-39
-25
-39
-27
-22
-3
5
8
-23
-17
-6
-12
1
21
4
-10
-5
16
26
-1
9
18
-1
15
6
-11
-5
21
-4
-22
-11
-8
-6
7
4
15
-2
3
2
11
16
-1
-7
11
13
3
6
15
12
6
-16
-11
9
21
23
-5
-8
-1
9
29
17
24
17
11
21
25
15
5
7
16
12
10
-6
-16
4
40
61
29
20
2
7
12
20
30
30
15
22
25
32
25
35
37
49
38
39
37
36
42
50
57
63
55
62
67
69
53
47
68
62
87
85
81
64
54
67
90
96
92
90
83
96
78
67
79
81
83
75
72
75
68
56
68
77
81
59
36
39
47
48
39
31
2
10
19
39
41
32
21
28
7
10
22
17
-23
8
6
3
-14
-1
0
-3
-9
0
-3
-2
10
9
4
19
0
-5
-2
21
12
0
2
-12
-27
-2
3
19
12
16
6
-27
-23
-12
-18
-8
2
-16
-3
6
0
5
4
-9
-11
10
8
8
0
-19
-6
-21
0
3
4
2
-3
7
9
-18
-11
12
-22
-10
10
-6
-5
3
11
15
5
0
11
12
12
-7
-11
-15
-6
-4
2
-5
-6
3
10
2
4
10
8
3
-8
-16
-8
5
8
-7
-13
8
13
7
-7
-8
-1
1
9
25
5
-7
10
-12
-4
-12
-5
-4
-15
-24
-6
-9
10
9
5
18
-2
-3
-3
13
-8
-9
-2
-2
-26
-22
-32
-26
12
3
12
10
11
16
28
12
-3
-2
2
-2
-4
-10
0
7
14
16
-5
-24
-6
4
22
8
-7
-1
0
7
8
-1
3
4
10
17
7
1
3
19
25
17
22
1
7
7
1
14
-4
-17
3
14
19
3
6
-6
3
-1
11
5
-8
-22
-23
-17
-22
-19
-8
7
23
7
-10
-7
-7
5
-9
-11
-6
-3
-1
4
-4
-19
-17
-4
-7
-10
-2
-3
-8
6
1
-11
-9
-11
-14
-7
-13
-19
-17
8
-21
-16
-13
-4
2
6
-9
20
47
61
69
99
111
127
122
146
162
158
138
132
110
65
25
6
20
30
9
11
-25
-26
-30
-15
1
-1
5
21
19
13
9
5
-1
9
1
3
10
-1
-5
-15
-37
-26
5
11
2
-1
8
16
-6
-14
-10
-11
-8
9
32
24
-10
-20
-19
-10
-7
7
0
20
27
24
33
12
-16
-11
-3
2
-19
0
22
16
-4
-1
-6
13
3
-3
6
15
9
0
13
15
5
13
-12
15
25
12
11
2
14
14
6
4
2
34
44
20
15
-1
11
23
34
30
28
28
22
29
28
19
34
22
32
33
36
51
75
61
39
48
49
46
66
71
64
69
77
81
62
55
67
69
91
98
63
49
72
82
77
63
81
63
74
57
71
49
54
57
60
50
52
41
16
44
36
37
21
-14
2
22
28
22
9
-4
5
-5
-12
7
20
14
-9
-6
8
-1
-20
-19
3
-6
-13
-4
-14
9
12
11
-5
-26
-3
10
16
16
-3
-18
-29
-17
-17
-17
5
-2
-14
-14
4
-1
-6
2
-20
-12
-4
-7
5
-17
-1
-10
-13
-20
-15
-7
6
13
8
10
-16
-28
-14
2
4
-10
-4
-13
-19
-22
-15
16
0
-1
5
-4
-10
-1
-4
9
2
2
3
2
-14
-34
-32
-9
-14
-4
-1
-3
12
6
-4
-10
-15
-8
-1
9
0
17
-19
-1
-3
-6
-4
0
6
3
-5
1
-6
-6
-8
-9
-2
7
9
-2
-20
-17
-4
-7
-6
-16
-17
-15
11
18
7
-27
-23
-31
-33
-5
6
-13
-15
2
9
-8
-19
-4
4
14
12
-7
-64
-18
-5
0
-11
12
-7
-11
-11
-14
6
9
2
4
2
-1
-32
-8
-13
-9
-1
-11
-3
1
-4
-12
-26
-20
-1
8
5
10
-4
-4
-4
-1
-15
-13
-5
-3
3
10
-2
8
11
23
17
12
6
8
-3
1
-18
-7
5
29
31
20
14
6
14
0
28
2
-18
-14
-32
-18
-11
-14
-17
-7
-8
-8
5
-6
-19
-14
-6
-13
-16
-11
0
-8
-17
-15
-19
-18
-12
-15
-1
6
6
1
-9
-22
-3
10
-3
-18
-26
-18
-10
-12
-12
-3
-15
-9
-11
-7
-2
-6
-5
-3
-19
-33
-30
-24
-22
-1
18
26
45
47
76
117
119
142
155
171
188
168
157
117
75
45
27
34
28
21
-1
6
-1
0
-8
7
12
9
9
-8
5
-12
-19
-4
-1
-15
-8
3
3
-4
0
-7
-9
-6
-2
5
6
1
-19
-9
-9
-22
-4
-17
-25
-6
5
5
1
-4
0
-6
1
9
-4
5
-9
-3
-6
-1
4
-2
-2
0
-2
-6
1
10
2
10
23
0
5
0
-5
-21
-7
7
1
11
-7
9
7
3
9
3
5
6
7
12
-9
2
33
29
-2
22
6
13
0
19
33
17
7
8
25
44
22
18
32
28
34
48
45
56
44
30
48
45
69
50
52
71
69
53
64
63
67
64
64
63
67
62
71
51
65
63
48
69
59
68
67
42
72
83
56
39
33
41
38
61
50
32
21
4
15
9
30
17
8
12
11
-4
-2
-13
-9
-11
3
1
-6
-8
-4
-6
7
-11
-11
-8
-2
-27
-25
-9
7
9
12
19
-10
-22
-28
-23
-21
-7
-20
-12
-17
-8
-14
-13
8
11
2
-4
-18
-9
-8
-8
-22
-26
0
1
-4
-3
-7
-15
6
-1
-1
-7
-28
-12
-7
-12
10
9
18
-3
-29
-26
-26
-31
-28
-19
0
-11
-6
1
-16
-9
-4
3
-9
1
4
-14
-11
-3
-3
-13
-12
-4
-5
3
-16
-4
-1
-12
-11
-22
-8
-9
-19
-10
4
-6
-12
-16
-20
-24
-8
-9
2
-2
6
-6
-10
-21
-15
-17
-12
-2
-14
-5
-20
-4
-1
-18
0
1
14
-12
-2
-7
-14
-20
-25
-11
-4
-2
-1
-3
-2
-5
-34
-4
1
-12
-10
-16
-15
-16
-22
-7
-6
-3
-16
-4
-10
-12
-31
-25
-18
-14
-7
-3
1
-8
-8
-13
-19
-16
-10
-7
0
-10
-23
-19
-4
-7
-3
-6
-20
-9
-7
-6
-2
-20
2
4
-8
-43
-11
-8
-12
-17
-16
-12
-13
-2
2
-2
-10
-12
-7
0
0
-14
-12
0
22
7
1
-15
2
0
0
-18
-25
-1
-1
2
5
3
12
18
16
-19
-28
-6
15
18
17
14
0
-10
-6
-1
-7
-16
-15
4
16
9
10
-22
-20
-20
-30
-10
-4
5
-7
-10
0
-20
-13
5
2
-22
-14
-8
-14
-11
-35
-19
-10
-14
-6
-27
-25
-5
-17
-19
-10
-9
-4
-5
-17
-15
-28
-20
-20
-20
1
16
9
-4
-7
-13
3
-4
-19
-16
-23
-27
-26
-1
9
25
33
75
95
122
145
173
170
171
164
148
141
130
103
77
54
24
1
-20
-18
-13
-16
-11
-8
7
-21
-9
2
7
4
-3
-14
-3
11
-17
-42
-26
7
27
16
2
-16
-4
-11
-6
-3
6
-3
-15
-9
-7
-6
5
-5
0
16
-12
-8
-13
-22
-12
-17
-12
-4
-21
-21
-3
9
-5
23
2
-8
-12
2
3
-1
-1
-6
12
8
3
14
12
12
3
3
-1
6
-2
-27
-16
-7
-3
3
9
3
-2
-4
8
9
3
-1
21
-2
1
8
8
8
5
8
16
23
15
22
34
36
44
46
10
2
20
29
50
59
63
69
48
44
37
38
64
73
59
49
66
69
63
55
52
69
66
70
74
70
55
51
70
70
61
64
64
64
57
60
47
30
26
42
27
22
31
24
24
39
10
-8
-3
12
2
-1
-4
13
13
0
-6
0
-11
-6
-10
-11
2
-2
-16
-14
-13
-14
-23
-21
-7
-17
-16
-11
-11
-3
-16
4
-21
-23
-7
-24
-13
-9
-12
-21
-17
-11
-8
-13
-12
-6
-12
5
9
0
-3
6
-11
-16
-22
-27
4
-2
-26
0
17
-8
-32
-26
-7
-11
7
-1
-15
-16
-26
-27
-6
14
-13
-29
-24
-10
-1
-17
-15
-23
-13
-24
-12
-13
-1
-14
-12
-15
-34
-22
-9
-5
-22
-19
-4
-11
-12
7
19
7
-6
-19
-10
-1
2
-5
-13
-9
-23
-20
-23
-28
-19
-12
-25
-8
-13
-33
-33
-22
1
0
-13
-17
-4
0
-11
-1
-6
-15
-29
-39
-19
0
0
-6
-6
-28
-26
-19
-15
1
-3
-13
0
6
-9
-8
-18
-8
-5
-23
-30
-5
-10
-18
-21
-25
-19
-6
6
-2
-4
-19
-15
-17
-5
-18
-39
-8
-23
-28
-24
-17
-6
-2
-8
5
-8
-37
-50
-34
-10
10
3
-15
-19
-10
-7
-17
-12
2
-22
11
12
18
-20
-50
-21
-16
-11
-28
-19
-12
-20
-25
-20
4
4
-17
-7
-2
-11
-6
-9
-12
5
13
1
2
-12
-10
-4
17
12
0
-6
1
-1
7
-16
-4
-3
5
1
-3
-4
-9
-4
-24
-23
-26
-24
-19
-14
4
0
-1
-31
0
-12
-6
-22
-25
-14
-12
8
-18
-31
-16
-18
-26
-24
-4
-17
-15
-3
-25
-22
-16
-4
-8
-14
-15
-23
-32
-32
-36
-19
-20
-19
-22
-18
5
0
15
6
-14
-20
-20
-28
-19
8
-5
-31
-40
-34
-19
-20
5
31
24
56
82
95
121
143
146
143
125
119
100
94
52
25
-6
0
-12
-17
-18
-43
-38
-21
-17
-20
-16
-34
-22
-12
1
-6
-13
-22
-24
-17
4
2
-22
-14
11
8
-11
-31
-27
-19
-11
-9
-5
-8
8
-11
-14
-15
-6
-8
0
-4
-9
-7
-8
1
-16
-13
-3
-3
5
-8
-19
-16
14
25
-1
0
-6
-12
4
6
3
0
3
-11
-20
-21
-5
1
5
4
-2
-7
-10
-2
-14
14
11
0
9
18
17
3
3
24
25
0
7
2
-3
11
12
-5
18
15
15
15
19
22
32
43
30
15
27
40
39
27
40
75
68
63
40
31
45
43
59
81
75
77
75
58
65
61
58
61
77
79
70
75
69
52
40
63
68
55
46
55
37
50
30
20
23
25
24
20
33
23
17
0
5
-20
-13
1
-10
-5
-23
-4
-7
5
4
-6
-2
2
-10
-16
-13
-15
0
6
-11
-5
-8
-19
-19
-30
-13
-15
-31
-20
-44
-38
-35
-34
-23
-23
-8
2
-5
-4
-5
-16
-35
-18
-2
-3
-3
-13
-20
-7
-3
-22
-27
-9
-11
-21
-14
-25
-7
-13
-14
-30
-38
-25
-26
-23
-10
-21
-12
-13
-2
-10
-3
-25
-28
-12
-19
-25
-8
-11
-4
0
-5
-14
-19
8
12
-11
-43
-45
-37
-29
-19
-4
-19
-18
-21
-11
3
5
1
-13
-14
-16
-8
-17
-16
-17
-21
-19
-7
2
11
-14
-36
-31
-20
-15
-2
-10
-24
-38
-37
-22
-17
-6
-14
-9
2
10
-11
-28
-7
-17
-28
-22
-1
-2
-4
-4
-18
0
-19
-33
-52
-46
-37
-17
-21
-22
-9
-15
-27
-25
-20
-19
7
1
-12
-10
-22
-23
-14
-10
-14
-17
-41
-22
-22
-18
-15
1
-2
-15
-7
-3
-14
-12
-28
-13
-4
-6
-29
-18
-19
-28
-12
-5
-9
-8
-4
-7
-3
-24
-13
-15
-20
0
1
27
11
1
-12
-18
-20
-10
-16
-13
-13
-3
13
8
-15
-27
-3
-8
-16
2
1
-6
-1
-2
-9
-16
-16
-13
-15
-18
-22
-34
-27
-15
-15
-3
-23
-11
-27
-46
-27
-13
-21
-24
-14
-17
-28
-17
-24
-22
-20
-32
-15
-12
-28
-28
-28
-9
-15
-2
-15
-9
-26
-28
3
10
-23
-27
-16
-15
-2
-20
-24
-25
-35
-34
-26
-26
-20
6
19
36
55
53
71
117
143
149
159
161
149
118
85
57
24
-5
4
1
-2
-28
-23
-21
-13
-6
-10
-13
-21
-19
-22
-3
-20
-23
-16
-33
-6
4
7
-7
-8
14
-15
-22
1
-11
-12
-16
-8
-17
-22
-19
-11
-7
-13
-17
3
-3
-13
4
-30
-27
-21
-16
-7
-4
-1
-7
-19
-8
-1
5
2
-17
-34
-8
-15
-26
-4
9
-8
-11
-8
-7
-5
0
3
-2
-16
-3
-10
-7
18
6
6
10
6
-13
6
8
-5
-2
8
-7
4
18
5
-2
-2
9
-1
3
4
20
39
21
6
0
3
21
31
31
25
22
42
36
59
50
41
48
49
48
28
57
86
70
41
58
76
71
54
52
67
72
67
62
58
68
77
63
60
62
54
55
50
39
28
31
38
35
21
20
26
10
11
13
-7
-14
-11
-1
14
5
-3
-7
3
7
-7
6
8
-7
-8
0
-25
-13
-7
-17
-28
-11
-15
-12
-2
-14
-22
-21
-22
-19
-12
-19
-13
-12
-23
-8
-7
-7
-29
-20
-27
-17
-16
-25
-8
-12
-19
-13
-23
-29
-23
-13
-7
-10
-24
-32
-34
-12
-9
-19
-8
-5
-15
-6
0
-7
-14
4
5
-9
-46
-38
-16
-15
0
-29
-23
-22
-3
-13
-6
-15
-15
-12
-5
-15
-7
-15
-14
-27
-33
-9
-12
-14
2
-11
-7
-4
-13
-8
-12
-16
-25
-18
-13
-12
-7
-3
-6
-25
-5
-4
-14
-21
-11
-9
-8
-11
-9
3
-23
-22
-20
-18
-13
-28
-19
-17
-9
-2
-1
-5
-29
-19
-13
-26
-34
-10
2
-14
-16
-9
-22
-11
-11
-12
-21
-16
1
5
-15
-32
-28
-33
-13
-4
-7
-14
-18
-21
-9
-15
-17
-7
0
-22
-15
-11
-2
-17
-36
-44
-33
-14
-23
-4
-5
8
7
-18
-15
-31
-19
5
-11
-29
-14
-31
-26
-33
-25
-20
-4
7
-15
-23
-19
-7
-26
-21
-20
-14
-5
-10
-5
-12
-15
-18
-10
-8
0
4
-2
0
-15
-1
8
-13
-11
-7
-2
2
2
-6
3
9
5
0
-8
-3
-14
-17
-6
3
-2
-13
-6
-6
-17
-20
-16
-11
-15
-18
-14
-26
-27
-19
-8
-14
-22
-23
-10
-20
-16
-16
-27
-35
-23
-27
-20
-31
-13
-5
-8
3
-17
-26
-24
-9
-7
-6
-13
-23
0
-20
-17
-10
-20
-13
10
-24
-19
-12
-23
-7
-27
-25
-26
-24
-30
-38
-33
-39
-19
-16
-1
29
36
47
40
66
107
136
156
166
175
170
142
136
94
75
41
31
19
7
-1
-6
-15
-28
-36
-21
-4
2
-4
6
-1
-11
-3
8
-16
-13
-3
7
-7
-11
-28
-25
-10
-21
1
-14
-4
-13
-7
-25
-29
-34
-27
-7
-2
-21
-27
-6
-16
-26
-24
-14
3
-9
-14
-14
-5
0
-18
-9
4
-19
-6
1
0
-18
-5
-2
-17
-6
-16
-8
-18
-17
-11
-5
-1
-9
-3
-5
-17
-15
4
16
28
17
8
-19
-13
-10
-4
-5
-16
-1
7
10
-3
11
40
24
5
10
2
4
-6
10
17
22
14
17
12
7
44
45
64
32
19
23
37
52
44
42
64
73
63
35
42
39
38
47
54
60
62
65
72
82
67
68
76
75
52
55
24
12
32
53
52
43
31
49
26
19
17
16
2
4
10
11
-4
5
-7
-6
10
11
5
-6
-6
-7
-7
-8
-8
-19
-10
-15
-18
-20
-19
-23
-17
-23
-26
-2
-12
-12
-26
-31
-6
-4
-20
-17
-21
-27
-33
-32
-16
-8
0
-5
-5
-15
-17
-13
-28
-27
-13
1
1
-17
-31
-25
-23
-11
-19
-20
-16
-16
-17
-13
-13
-12
-11
-10
-8
-19
-18
-5
-12
-14
-18
-22
-19
-4
-5
-2
-9
-35
-22
-12
-18
-17
-15
-18
-12
-17
-15
-9
-24
-21
-10
-7
-13
-11
-22
-19
7
-2
-13
-39
-15
3
7
-5
-39
-24
-15
-17
-11
-14
-34
-28
-2
-5
-30
-21
-9
6
1
-8
-2
-1
-11
-14
-8
-32
-28
-24
-30
-23
-25
-14
-31
-7
-8
-5
-2
0
-17
-19
-26
-16
-17
-3
-17
-34
-45
-13
1
1
-22
-5
-9
-5
-22
-37
-17
-24
-31
-15
-5
-13
-12
-1
-9
-30
-19
-14
-19
-32
-19
-19
-6
0
-7
-8
-13
-5
-23
-19
-17
-23
-18
-5
-14
-26
-17
-11
-14
-30
-26
-16
-8
-19
-27
-33
-10
-18
-26
-38
-26
-20
-4
-17
-28
-21
-26
-20
-10
-24
-14
-12
-12
-2
-17
-12
2
-4
-18
-19
-13
-18
-21
-18
-21
-12
-13
-19
-11
1
-6
-16
-8
10
13
3
15
8
-27
-16
-14
-23
-31
10
-7
0
19
-8
1
5
17
5
-18
-8
-7
24
5
-8
-14
-6
-15
-18
-14
-1
-23
-17
-23
-20
-11
-24
-13
-15
-17
-23
-13
-7
-6
-9
-6
-11
-28
-21
-30
-34
-18
-10
-14
-12
-11
-8
-8
-21
-34
-20
-17
-24
-25
-29
-7
-4
-12
-24
-4
-16
-20
-23
-7
-20
-23
-31
-16
-8
-28
-20
-31
-39
-38
-33
-22
1
-1
18
38
51
69
77
113
144
159
184
187
169
149
129
105
72
55
62
45
-13
-14
-24
-18
-29
-20
-9
-11
-2
-5
-10
-13
-7
-10
-15
-10
-7
-6
-17
-31
-36
-27
-7
2
5
-7
-6
-9
-19
-1
-9
-12
-17
-10
-10
-6
-27
0
-8
-2
5
-29
-16
-10
-3
-12
-31
-20
-11
-14
-9
-7
-6
-4
-10
0
4
-14
-29
-20
5
-5
-6
-3
-6
-10
0
0
-4
-12
-18
6
26
1
-2
-4
-2
9
4
-2
-6
-5
-9
6
-7
4
4
4
-6
2
17
23
8
16
12
19
28
15
16
16
28
25
30
16
26
40
42
38
47
40
43
45
52
40
36
49
56
48
59
62
56
67
73
64
71
73
64
56
78
72
59
52
56
53
51
56
52
42
38
39
36
17
17
10
15
15
26
7
-11
-3
13
0
1
9
-27
-13
-11
-11
2
-1
-13
-9
-16
-24
-21
5
-13
-23
-19
-7
-21
-31
-12
-2
3
7
-9
0
-10
-11
-33
-26
-20
-17
-35
-26
-18
-9
-7
-6
-22
-8
-16
-8
-12
-21
-24
-7
-5
-15
-24
-32
-22
1
6
-28
-20
-25
-32
-21
-6
-11
2
6
-4
-1
-15
-20
-6
-14
-19
-11
-7
-21
-16
-31
-32
-14
-2
-1
-13
-13
-16
-13
-26
-16
-17
-18
-4
-7
-19
-23
-23
-13
-20
-19
-20
-8
5
-2
3
-12
-21
-7
-3
-5
-15
-28
-16
-7
-22
-19
-17
-13
4
-12
-25
-20
-21
-14
-14
-24
-12
-17
-26
-20
-16
-23
-15
-14
-7
0
-6
-29
-26
-6
-16
-11
-3
-9
-20
-29
-48
-48
-5
15
0
-5
1
-13
-10
4
-34
-20
-4
-10
-11
-2
-13
-15
-10
-8
-14
-20
-24
-15
-17
-14
-9
-26
-36
-37
-14
-21
-11
-5
-22
-26
-22
-19
-26
-15
-13
0
-5
-17
-16
-16
-13
-10
-18
-29
-31
-15
-6
-22
-10
-12
-11
-32
-25
-9
-8
-10
-10
-32
-28
-4
-11
-26
-18
-10
-16
-11
-5
-12
-28
-19
-4
-8
1
1
-4
-7
-3
-11
-23
-5
4
13
20
-12
6
6
-1
-12
1
-1
-16
-8
-7
-11
-5
-1
7
8
-6
-22
-28
-22
-13
-13
-14
-13
-10
-20
-8
-6
-13
-30
-14
-5
-11
-14
-13
-9
-29
-6
-8
-7
-16
-35
-12
-20
2
-16
-29
-17
-30
-22
-8
-16
-33
-16
-25
-42
-17
-8
-7
-20
-6
-27
-25
-21
-38
-20
-10
5
9
-14
-21
-15
-21
-25
-38
-36
-17
-13
2
26
32
63
85
106
130
148
158
140
132
109
81
69
45
16
-16
-19
-14
-20
-29
-21
-12
-22
-26
-24
-25
-22
-18
-13
-18
-10
-7
-8
-13
-11
-30
-14
-3
-4
-17
-6
-13
-13
1
9
-10
-14
-16
-8
-10
-5
5
12
-10
-31
-39
-9
-7
-2
2
-10
-22
-22
-18
-11
-16
-9
0
4
-8
-8
-4
-1
-15
4
4
-5
-12
-27
-20
2
4
-6
-9
-6
-4
-1
5
12
22
19
-4
-24
-7
16
12
3
-12
8
0
-7
-7
11
12
21
10
17
-3
3
-3
-3
-4
-4
26
35
33
23
27
28
35
50
29
29
24
30
42
33
45
59
66
64
83
75
55
62
76
77
67
62
77
64
50
57
61
58
56
69
58
49
41
37
46
69
63
37
37
31
56
54
24
11
9
30
40
30
11
-7
-1
5
-6
-15
-20
9
3
0
2
-6
-8
-8
-7
-1
-19
-16
-19
-13
-6
-15
-37
-44
-18
7
6
-11
-14
-28
-13
-5
-22
-38
-22
-22
-28
-9
-15
-19
-20
-12
-25
-37
-22
-18
-14
0
2
-6
-19
-28
-25
-18
-20
-1
0
-2
4
23
-5
-26
-20
-25
-23
-11
-8
-15
-16
-7
-13
-30
-46
-30
5
-13
-23
-14
-21
-19
-10
-19
-30
-30
-7
-24
-14
-2
-3
-21
-15
-8
-6
-4
-2
-5
-15
-16
-6
-11
-7
3
-5
4
-4
-14
-16
-19
-4
-15
-22
-29
0
-17
-36
-13
6
-17
-30
-49
-16
-12
1
10
-8
-31
-28
-7
5
7
-16
-32
-18
-32
-23
-19
-11
-6
-11
-23
-13
-19
-8
-21
-12
-4
-9
-27
-17
-11
-20
-17
-27
-9
-15
-27
-14
9
7
-20
-19
-43
-23
-17
5
-2
-32
-27
-20
-13
-21
-25
-32
-2
-11
-11
-34
-22
-15
-14
-24
-25
-21
-21
-8
-9
-4
-9
-13
-5
-3
1
9
-7
-11
-14
-14
3
9
4
2
-16
-9
-13
-18
3
7
22
11
-11
-8
-10
4
-10
-17
-12
-7
-2
-11
-18
-26
-23
-18
-3
-13
-3
-21
-22
-18
-9
-7
-15
-32
-22
-25
-27
-27
-10
-12
-2
-11
-31
-32
-19
-12
-20
-21
-28
-19
-18
-29
-26
-25
-26
-17
-9
-10
-5
-11
7
-13
-25
-25
-21
-10
-10
0
-36
-16
-15
-21
-30
-19
-25
-36
-23
-19
-13
1
26
32
32
54
97
96
115
134
148
146
133
125
97
69
29
16
-14
-15
-17
-15
-22
-29
-24
-8
6
-3
-17
9
2
-8
-13
4
3
-1
-15
-21
-24
-25
-31
-15
-7
-17
-13
-5
-9
-7
-16
-10
-8
-10
-11
-10
-23
-9
-30
-35
-13
3
-7
-4
-6
-8
-8
0
-16
-9
-16
-4
-22
-16
-6
-16
3
14
7
4
-19
-14
-7
-6
-10
0
0
7
-7
24
1
-11
-41
-12
2
-1
8
0
-6
-19
-13
-7
18
12
-1
-9
2
11
-5
-32
-20
20
25
23
22
25
35
20
13
16
13
26
21
28
25
41
41
43
37
35
44
43
48
41
44
47
34
53
56
62
58
58
59
76
85
64
64
74
48
72
80
68
58
59
56
60
81
62
63
53
35
25
38
15
6
3
16
24
12
12
6
1
-6
-7
2
-12
-4
3
-9
1
-8
-7
-19
-37
-22
-23
-10
7
-5
-13
-11
-15
-20
-13
-17
-25
-11
-11
-5
-9
7
-1
-12
-23
-18
-34
-23
-10
-11
-15
-27
-17
-19
-21
-3
-28
-14
7
-17
-25
-22
-20
-11
-21
-31
-23
-12
-4
-13
-24
-21
-5
-16
-22
