35
62
48
15
-29
5
25
-51
-17
11
12
-10
-2
-9
-18
-35
-20
-18
-5
-5
28
73
56
6
-32
-50
-46
-33
0
15
3
1
4
-20
-25
-33
-11
8
21
9
-14
14
16
-3
-26
-59
-31
10
45
43
63
51
31
7
-16
-34
-39
-66
-57
-43
-61
-78
-94
-115
-126
-145
-144
-106
-84
-48
-30
-6
-14
-47
-44
-46
-24
-36
-24
2
44
44
4
-16
-71
7
9
10
33
33
24
-11
-14
-21
-13
-20
-4
-6
21
25
57
29
-2
-10
-10
-5
-10
2
20
25
33
35
11
2
16
-16
-32
0
52
42
52
32
26
-3
-9
-13
12
26
72
13
40
25
-2
-16
5
5
0
19
41
29
53
50
47
39
27
20
19
62
57
37
66
66
21
26
-6
27
39
66
68
65
83
63
46
47
42
18
37
83
103
99
45
25
9
-3
-11
-2
39
42
46
22
43
35
13
-15
-28
-6
35
33
41
34
24
10
-9
-10
-26
-23
-31
2
-6
32
24
-5
-15
-16
-20
-25
-17
35
27
-8
-8
-18
-31
-19
-29
-5
1
-4
-2
6
36
6
-19
-13
-34
-6
-18
3
9
23
10
8
-16
-26
-79
-36
-6
32
6
38
32
-22
-68
-72
-74
-27
14
32
-2
16
29
6
-16
-16
-24
-5
9
18
-9
18
16
9
-1
-48
-44
3
39
15
-11
8
-7
-9
-32
-52
-57
-35
-3
26
3
26
10
-19
-25
-42
-46
-20
18
17
29
15
22
-1
-47
-40
-22
-30
18
8
2
30
13
-38
-35
13
-2
-27
-10
-12
3
16
7
-2
-2
-32
-54
-31
-17
0
-6
17
20
-13
-21
-42
-21
25
-3
10
9
8
-6
-22
-31
-34
-8
0
10
8
19
-15
16
-15
-22
-22
-68
-39
-6
16
35
36
-7
-25
-29
-23
-12
-1
28
37
46
39
-9
-36
-17
-9
-25
12
32
10
22
22
23
-30
-30
-22
3
-26
9
8
12
7
-29
-45
-40
-25
-6
-38
-15
5
49
12
-33
-31
-19
-23
-22
-9
5
10
27
14
7
-3
-24
-45
-36
-29
24
1
29
62
48
-5
18
3
-18
-14
2
-5
-2
-26
-66
-73
-104
-133
-147
-132
-119
-99
-99
-63
-78
-90
-57
-55
-68
-48
-26
14
30
3
-21
-11
-20
-26
-10
14
31
6
13
17
-9
-49
-35
-11
-22
-10
-6
0
19
23
-4
1
-22
-39
-2
23
49
36
39
20
-3
-6
-9
-12
13
19
6
25
53
46
21
-7
-7
0
-16
19
3
35
36
24
19
18
-25
-30
15
22
13
41
48
31
7
-2
-11
25
40
19
30
65
70
60
42
27
-6
10
37
79
61
82
80
92
76
39
16
46
40
22
26
52
78
41
31
-2
-20
8
19
49
35
55
45
42
41
20
-8
-13
14
6
19
48
44
22
1
-19
-29
2
26
34
27
10
34
-17
-16
-12
-26
-34
5
43
4
-25
-26
-20
-22
-8
-13
3
8
1
6
7
-9
-34
-42
-4
-23
-8
0
7
6
21
17
-7
-33
-27
-49
-58
7
41
28
24
23
11
-1
-40
-59
-19
30
18
14
-4
-25
-24
-20
2
3
-16
-7
41
52
-7
-29
-30
-44
-20
2
9
5
-19
12
33
2
-4
-25
-42
-7
-29
-11
24
66
79
23
-23
-66
-14
-26
-38
-15
16
16
27
14
-9
-20
-29
-22
-6
5
16
19
15
-4
-38
-44
-61
-36
6
21
8
-5
5
45
-5
-20
-24
-23
-15
37
28
3
11
7
11
-52
-52
-22
29
49
15
18
18
0
-4
-4
-31
-65
-49
1
21
43
46
-6
-27
-39
-57
-51
-28
17
17
17
22
11
-15
-7
-23
-25
16
42
13
11
24
18
22
40
-8
-4
-9
2
-12
8
44
0
-43
-53
-53
-19
6
22
12
8
-14
3
-19
-25
-56
-34
9
20
4
13
16
0
-20
-33
-48
-27
8
12
16
29
5
-5
-7
-6
22
40
47
32
53
49
17
-25
-56
-74
-72
-67
-64
-68
-100
-103
-104
-119
-131
-140
-132
-109
-32
-24
-14
-20
-11
-5
-15
-50
-47
-29
2
18
7
21
25
-3
12
-31
-21
-6
31
9
7
20
-2
-14
-23
-8
-15
-14
-5
39
48
39
26
-8
-15
-25
-16
29
39
30
18
24
32
-12
-23
-1
14
25
32
27
16
26
2
12
11
-10
7
4
19
28
43
32
37
21
11
8
20
25
43
57
78
66
54
36
4
-26
21
31
52
74
59
77
67
24
4
33
31
59
29
41
87
93
58
30
26
12
42
22
30
46
45
58
59
21
23
21
29
45
41
52
64
65
-13
-21
-31
-20
-32
14
54
17
42
49
11
-3
-36
-26
-55
-16
8
22
17
11
-1
-13
-25
-20
-35
1
9
25
22
29
8
-7
-28
-37
-16
15
-4
9
23
15
-40
-45
-13
10
-7
-5
25
49
35
-20
-31
-28
-26
-39
-37
-10
16
35
40
13
-8
-26
-39
-17
-21
-14
1
55
21
5
-19
-21
-33
-11
-6
16
3
52
33
-1
-18
-21
-32
3
-1
-2
15
33
5
-4
-36
-45
-63
-42
-19
15
47
20
10
23
1
-12
-37
-30
-20
-21
3
32
2
6
35
-6
-19
-38
-17
14
11
7
0
-4
-12
1
-44
-16
-40
-12
22
29
0
-10
-16
-4
-13
-31
-7
23
31
14
7
4
-17
-21
-29
-25
-6
22
37
40
18
5
11
2
-20
-33
17
35
31
32
15
-7
-51
-53
-51
-21
-16
5
15
-8
2
-3
-18
-43
-37
-14
20
15
29
15
11
3
7
-47
-54
-14
6
0
12
19
43
-6
-5
-22
-41
-29
-5
22
33
39
13
1
-11
0
-29
3
31
24
42
24
-30
-53
-58
-106
-83
-70
-76
-106
-94
-96
-88
-101
-122
-129
-76
-85
-42
-15
19
24
8
8
-24
-46
-28
-4
15
27
39
7
-21
-14
-34
-39
-36
0
43
18
30
41
1
-32
-29
-20
20
11
30
29
40
11
21
-22
-17
1
-23
29
50
39
52
51
4
-39
-13
1
-3
-7
16
37
59
63
22
9
27
-8
15
0
12
35
46
25
17
3
31
40
42
49
17
53
69
94
53
15
4
15
31
31
39
65
87
64
62
34
16
33
43
58
73
80
69
81
71
45
44
49
28
15
41
72
78
63
22
3
6
12
-1
28
32
60
47
28
37
-5
-12
15
10
4
22
24
25
-5
-5
-38
-23
20
13
29
37
34
26
4
0
-13
-41
-26
-12
51
55
56
-33
-49
-15
-7
-31
-59
-46
8
16
49
20
9
-5
-1
-17
-12
0
8
20
54
39
-1
-32
-29
-15
-5
2
6
33
33
7
1
36
17
-21
7
19
6
27
29
-4
-13
-31
-32
-48
-27
0
31
34
17
18
8
-8
3
-18
-13
16
35
28
36
25
23
16
-11
-33
-26
-23
50
104
42
2
-6
-19
-15
-33
-7
15
28
17
16
19
25
11
-3
-19
-4
-19
16
30
14
25
19
1
-15
-9
10
30
31
47
44
57
20
-7
-41
-23
-17
14
34
42
49
15
-4
-23
-7
16
10
17
33
17
29
9
-23
-45
3
-34
-51
-4
33
36
37
-7
-6
-14
-6
11
6
13
3
24
36
19
-2
-19
-35
-11
36
57
43
60
57
35
25
1
-5
-49
-11
-38
-58
-65
-73
-76
-47
-112
-152
-134
-90
-54
-26
-30
-30
-11
-31
-39
-82
-77
-26
22
38
36
37
38
-14
-11
-7
9
3
11
8
33
16
19
14
5
5
15
34
21
31
58
43
2
-8
-3
-9
11
39
65
38
25
46
25
9
13
0
16
26
17
30
40
44
51
37
15
12
7
-9
38
92
87
52
33
7
19
29
28
25
36
68
66
71
53
50
31
36
22
72
70
95
106
73
47
64
49
34
69
67
70
73
82
71
47
33
36
56
58
79
86
103
81
37
37
42
19
6
18
50
77
70
59
59
42
25
5
24
28
40
61
54
50
23
-3
-5
-6
3
-4
6
39
29
36
37
34
6
-15
-43
4
30
26
28
7
8
2
-33
-48
-3
38
29
15
13
17
22
-6
-32
2
16
5
52
30
37
24
11
2
-10
-24
4
11
20
20
30
37
18
-11
-24
-23
-23
-5
3
46
26
4
11
-9
-22
-24
-2
3
28
26
29
25
48
35
6
-28
-10
33
32
28
43
33
8
-14
-14
-18
11
34
31
19
43
53
22
0
-16
-19
-16
15
22
52
31
-9
-27
-20
-4
-18
-5
18
14
35
23
29
36
23
1
-54
4
36
55
35
53
44
1
9
3
-28
-9
30
60
56
49
26
8
26
1
-10
9
41
43
28
13
17
3
-23
-27
37
14
27
43
31
-5
7
5
-4
-20
-22
-5
17
16
-2
22
30
-21
-23
-23
12
-9
-7
38
82
63
27
28
10
-18
8
26
45
38
45
54
52
41
-12
-37
-27
-43
-33
-35
-41
-63
-89
-96
-84
-95
-91
-65
-55
-52
-43
-61
-18
8
2
-17
5
46
56
26
13
-14
-15
6
-15
-46
-21
18
50
46
34
44
37
10
-5
-13
18
24
24
50
48
58
31
-34
-33
-14
15
40
63
46
78
78
57
-11
4
8
31
45
39
39
40
35
33
34
19
-14
24
22
42
59
63
70
17
-2
11
28
12
38
65
55
58
62
58
63
65
49
54
83
76
79
64
67
25
42
40
56
48
49
79
89
91
59
54
39
55
55
51
37
75
76
79
53
50
27
12
2
54
55
34
52
64
34
30
18
1
45
77
55
36
71
51
25
0
-10
-4
-21
4
16
36
46
61
29
-23
-44
-41
-37
10
36
24
9
28
37
7
-34
-31
-2
13
30
36
44
20
-2
-20
-23
-10
-13
25
77
48
64
30
17
-1
-1
-20
-44
25
21
29
46
19
1
-15
-4
8
-6
7
-9
27
52
20
-2
-17
-14
-14
-23
21
51
60
63
28
-6
21
-8
-13
-3
32
72
32
19
-22
-1
1
-7
-18
1
28
23
44
47
16
19
8
-42
-42
-20
-1
42
55
59
34
6
-10
22
-11
-7
42
56
9
21
14
3
1
13
-1
0
19
56
55
26
14
-6
-7
9
38
26
12
17
45
42
34
-8
-6
-22
-45
-11
24
24
31
57
52
14
-12
-23
-4
-1
32
30
19
5
31
17
9
-15
10
-4
22
27
19
50
40
11
-1
-22
-13
0
27
8
11
34
40
36
32
-1
8
12
15
62
79
29
-28
-50
-46
-82
-85
-80
-68
-56
-64
-72
-78
-82
-69
-83
-63
-64
-46
9
64
35
15
10
-13
-26
0
8
57
43
32
53
63
27
-42
-50
-22
7
28
33
37
47
56
18
18
6
-20
15
23
56
71
58
31
-15
4
-5
17
30
43
24
65
70
47
50
29
11
13
20
76
58
39
3
30
49
28
20
17
38
50
41
90
75
30
33
20
23
40
43
50
55
86
78
66
21
24
30
53
68
70
67
91
83
80
71
61
57
73
71
72
73
98
96
78
29
6
12
73
64
82
92
54
27
45
48
6
12
24
17
57
98
61
28
-9
-18
25
30
28
37
46
30
49
46
-5
4
-1
2
-8
5
45
60
41
40
-6
-4
-32
-25
22
17
21
35
36
18
25
-7
-27
18
32
5
-9
43
37
40
5
14
-7
-3
8
31
40
38
30
28
18
31
-1
-5
-8
17
29
57
28
9
32
4
23
-15
-28
8
24
52
35
23
-8
-21
-25
-18
-11
42
69
44
38
14
-1
-4
19
23
22
25
50
45
30
4
17
-11
-10
25
56
13
13
31
30
33
-15
-15
3
1
6
32
41
58
51
45
6
-38
-9
27
36
29
13
27
44
12
7
2
-11
11
31
51
53
25
33
18
12
28
18
4
22
43
59
46
23
8
26
5
8
8
26
40
43
43
57
12
-6
-30
1
-15
5
6
50
60
36
2
-2
2
-34
3
12
17
36
59
28
22
2
-21
-13
7
33
33
50
45
36
15
26
31
50
40
44
45
102
59
-23
-46
-24
-73
-89
-83
-123
-122
-69
-79
-63
-95
-90
-77
-48
-9
8
20
26
21
28
5
-14
-11
-17
5
38
53
54
40
14
26
-8
-44
-5
89
115
70
94
76
16
-28
-27
-8
-6
1
38
46
46
44
30
1
-2
2
19
23
49
61
58
61
24
-4
-4
19
34
47
56
68
75
73
41
-9
-8
35
56
36
76
110
110
35
24
12
-7
32
55
79
83
76
84
55
59
34
36
43
32
51
96
84
84
79
46
62
62
52
55
65
75
103
88
113
79
40
40
42
41
66
55
64
61
62
24
5
19
30
77
56
45
51
55
26
11
2
-11
14
33
42
45
54
43
24
16
15
2
-4
6
15
24
53
47
15
8
0
-10
-9
11
45
91
47
43
26
9
-27
-44
-36
6
42
11
39
28
7
13
26
-4
-6
-6
26
17
62
41
22
-2
-3
-26
5
37
32
28
39
28
9
-20
-11
3
37
41
14
14
30
35
5
8
-3
-29
-2
23
34
39
48
39
30
13
-7
-15
7
45
66
59
31
28
17
-5
-3
-10
6
-24
-14
43
36
36
47
21
4
-9
-1
13
42
67
57
32
11
5
-39
-38
-15
25
37
66
53
48
14
1
-20
19
31
56
49
19
20
5
-3
-26
-32
25
31
33
39
40
33
29
8
18
2
24
30
36
37
53
34
41
14
-22
-5
19
10
1
14
46
35
25
7
6
-5
23
5
5
24
42
39
28
2
2
-34
-17
29
19
49
55
15
-12
4
5
-19
0
14
23
36
33
41
73
29
26
-2
29
41
45
33
45
-3
-41
-36
-14
-70
-117
-110
-92
-94
-72
-69
-80
-79
-54
-73
-25
-8
-15
-10
41
36
8
2
2
-2
3
21
28
41
22
35
18
14
31
17
21
16
51
51
70
52
36
11
-3
0
30
41
31
15
33
37
12
15
2
4
9
26
15
27
63
88
60
61
13
-5
10
49
53
55
62
20
30
35
34
-3
27
53
51
60
89
50
48
44
40
20
16
45
78
98
93
81
46
33
-4
16
43
76
100
104
89
75
73
59
39
67
48
62
112
116
87
74
7
23
35
25
45
99
93
107
54
32
22
22
29
56
27
45
61
56
34
24
3
9
-10
20
35
5
58
57
49
26
-11
-33
-26
37
32
47
50
55
12
-32
-2
-27
-19
-6
13
44
27
29
38
36
-5
-48
-48
-12
30
45
52
57
26
-13
11
-2
-14
-5
5
22
41
39
28
14
36
11
-30
-24
5
31
49
35
53
0
-35
2
-16
-12
16
18
29
46
44
9
-19
-34
-19
10
15
18
44
39
41
8
-23
-18
-24
-14
13
83
116
54
30
11
-43
-51
-16
7
8
51
47
35
39
7
-41
-11
15
7
18
29
46
40
15
-20
-2
-13
-30
-19
20
34
26
43
24
16
8
23
17
-6
9
28
46
45
55
0
-50
-33
-3
24
8
15
21
56
49
-13
-21
-25
-11
8
34
53
56
47
24
4
13
11
9
5
-13
30
79
89
63
12
-9
-34
-27
3
39
33
14
40
34
17
-2
0
-27
-19
-9
-20
24
36
24
14
-17
-26
-5
11
21
44
42
23
12
-18
-14
5
11
26
10
1
47
88
55
20
12
-2
34
58
56
21
29
23
-34
-58
-81
-116
-98
-107
-91
-78
-73
-54
-80
-62
-49
-51
-57
-18
-8
15
37
24
15
4
5
-9
-34
-14
20
37
40
55
32
28
5
35
8
24
41
73
56
36
25
16
-12
-13
-8
31
60
77
43
47
38
1
-5
19
32
27
57
57
35
26
29
40
20
17
24
64
59
58
61
89
55
38
54
30
33
57
42
61
101
120
81
54
31
4
11
59
36
69
84
68
52
47
43
35
55
68
64
117
89
53
79
46
32
49
50
47
66
79
81
63
44
38
26
50
62
42
42
109
75
21
40
47
41
40
71
41
22
38
40
16
-19
15
8
24
12
0
15
30
12
8
-18
-22
-6
0
18
47
29
25
18
14
-15
15
-7
-15
25
42
55
68
52
-17
-11
-16
-10
-6
18
39
52
26
-3
9
16
20
-28
-34
-36
-33
29
37
27
1
-6
-18
-21
-16
22
31
31
35
11
6
-28
9
18
8
15
43
53
23
2
15
3
-40
10
20
19
7
30
39
17
-6
-3
-15
-6
8
8
32
57
58
3
-16
-29
-25
-8
9
19
4
69
43
29
-1
3
-13
-4
-3
11
43
29
21
29
-16
-23
1
-2
-1
19
32
33
24
27
0
-5
-17
11
44
32
35
38
24
2
20
-2
-40
-43
13
36
24
38
41
21
-15
-15
-31
-16
-5
35
44
43
25
-14
-16
6
-1
7
17
18
50
51
21
24
-9
-4
17
16
34
47
10
42
36
9
-23
-28
-47
15
20
14
11
46
36
31
1
-16
-21
-12
3
14
21
39
29
7
-30
-2
7
-20
-14
32
18
3
-7
11
32
-11
-9
31
11
35
42
68
35
23
13
-8
-16
-10
-6
7
-23
-65
-77
-92
-137
-118
-129
-86
-70
-49
-28
-25
-27
-43
-39
-43
-20
-12
13
24
38
39
-25
-1
-8
-28
-9
24
34
24
28
23
51
5
-30
-16
-11
13
24
11
27
43
53
1
-22
-13
30
30
16
31
49
73
46
17
11
-6
9
15
4
19
36
24
26
21
10
1
-23
29
60
72
64
52
55
47
12
-20
12
60
57
30
47
59
70
44
26
6
25
37
78
71
89
56
24
9
17
30
63
76
88
79
98
88
49
-5
33
43
67
77
70
68
53
55
50
16
0
2
38
65
59
49
64
60
37
18
-9
-26
4
27
52
55
95
83
-3
-37
-22
-28
-22
-12
29
21
46
26
-6
-27
-25
-18
-20
-5
33
29
34
9
5
2
-37
-16
1
-1
44
25
21
12
-20
-20
-10
-11
-21
31
69
70
15
-4
11
-11
-11
0
8
26
10
41
40
-6
-40
-32
-41
-7
0
16
16
2
23
7
-11
1
7
-10
1
26
47
63
20
-1
-18
-25
-26
-13
19
31
28
39
57
43
26
-14
-23
-2
6
9
37
42
27
6
10
-13
-19
-3
15
7
16
43
42
28
-12
8
-42
-41
-10
-10
-10
57
119
47
-12
-29
-41
-16
9
33
48
29
9
15
4
-12
-29
-43
-3
31
4
58
22
8
-5
-8
-28
4
22
27
16
16
5
21
22
-1
-13
-2
31
31
18
42
50
2
-1
8
-5
-2
7
51
49
76
24
-4
14
2
-22
-43
6
24
34
31
43
58
7
-30
-12
-25
-8
18
38
37
29
19
-4
-35
-32
-5
71
57
32
-7
-45
-16
-34
-26
-8
-1
-5
-2
15
26
2
-2
-21
-13
-24
-5
25
19
34
78
63
44
54
29
19
16
14
-5
-16
-6
-57
-100
-96
-144
-149
-104
-42
-64
-58
-47
-50
-30
-42
-57
-59
-39
-20
-2
20
-11
-11
-10
-4
-22
-15
-4
28
48
24
13
-25
-13
7
19
1
8
39
36
36
15
17
10
0
-9
3
15
19
46
58
23
18
6
7
-2
-19
-14
24
56
55
57
26
-36
-24
-25
2
31
20
42
32
44
28
12
7
-2
1
36
94
80
66
44
19
19
2
29
27
57
84
79
72
55
23
33
7
17
41
75
105
110
64
75
11
28
22
-4
37
55
58
75
68
55
42
16
14
31
67
67
44
37
50
49
40
11
2
-2
0
23
60
64
54
21
-6
14
8
-15
-30
-6
24
41
-14
3
-1
-34
-54
-50
13
17
0
36
54
28
-35
-36
-34
-7
1
9
3
9
15
10
-8
-17
-20
-24
-11
16
21
42
15
12
3
37
6
-77
-41
-9
-20
3
27
-1
-29
-12
-16
-12
9
26
30
14
5
36
-25
-42
-30
-13
-10
15
17
40
61
-10
-27
-30
-31
-15
11
12
14
30
12
0
1
-11
-49
-27
12
16
-3
-16
10
23
8
-26
-26
-18
-8
25
38
49
9
-1
-11
-39
-43
-32
-3
17
35
28
17
7
-21
-42
2
-8
28
34
21
9
4
-14
-14
-40
-18
-22
-18
6
19
29
24
7
10
-17
-7
-9
-3
39
48
43
33
11
-4
-27
3
15
13
16
23
25
18
-4
-11
-24
-22
-12
7
15
20
11
16
13
-21
-33
-35
-8
26
-2
1
17
1
20
9
-24
-40
-3
3
8
22
30
15
-9
-20
-39
-16
6
13
10
19
-3
-12
-17
-14
-2
-6
18
34
48
87
67
46
-6
-33
-63
-79
-76
-96
-83
-75
-109
-84
-102
-114
-91
-98
-102
-75
-47
16
0
-11
-41
-41
-40
-38
-22
17
8
22
26
13
2
-26
-47
-11
8
61
16
33
29
6
-6
-14
-10
-55
-15
27
26
23
26
12
20
2
-12
-19
2
42
48
34
27
29
-18
-7
17
26
36
31
6
16
30
15
8
-9
21
25
30
49
60
61
51
30
-11
10
2
7
42
63
49
67
70
25
24
28
30
26
71
61
59
79
72
63
41
28
30
43
46
65
65
80
93
57
34
41
49
50
43
55
58
73
64
39
16
-13
30
41
42
33
47
33
60
47
-12
-18
-17
12
27
36
50
28
0
-26
-30
-52
2
11
2
35
52
32
-22
-31
-6
-27
-27
18
64
23
-8
-1
-15
-22
-23
-23
-25
-18
-15
9
12
16
31
6
-28
-40
-32
-9
32
50
29
-5
-2
-2
-6
-18
-30
-5
10
0
17
18
-1
-16
-6
10
17
2
-3
7
44
43
4
-12
-77
-52
-17
-1
7
35
53
39
-4
-30
-26
-29
-18
-2
20
25
18
20
-1
-41
-43
-10
20
35
15
44
0
1
-31
-40
-22
-13
-11
-20
24
10
28
27
-15
-19
-23
-27
-8
-7
-1
36
35
12
-7
-18
-17
-34
0
12
0
12
42
1
-3
-18
-17
-2
8
16
-2
10
6
29
-11
-10
2
-26
-18
-35
-18
20
45
19
-19
-5
-22
-11
-6
21
58
62
26
35
15
-16
-43
-34
-18
22
5
40
1
-4
-21
-34
-6
17
24
5
-4
-18
1
-11
-24
-14
-54
-38
1
8
-2
18
21
-14
-3
-13
-7
-28
8
21
6
28
56
-3
-36
-4
21
27
32
46
61
68
43
-27
-81
-106
-77
-38
-80
-81
-98
-97
-113
-116
-123
-124
-112
-81
-54
-43
-39
9
25
-21
-7
-30
-27
9
10
18
49
27
17
-10
-8
-15
-15
-1
14
38
60
23
0
-20
-36
-43
3
24
14
22
38
21
5
-10
-2
-24
-5
28
27
31
31
49
62
-4
-4
-20
-10
8
28
15
36
62
50
31
29
10
11
-10
-1
13
50
63
55
6
13
12
7
15
40
22
52
34
37
41
40
33
7
35
70
64
87
87
72
52
63
32
38
47
30
49
79
79
51
52
49
26
51
32
25
35
87
39
29
10
-6
-5
15
37
53
44
49
23
6
-6
7
-4
4
14
55
30
36
31
21
2
-13
-27
-25
-18
-13
5
-23
-21
4
4
19
-13
-27
-9
5
18
33
16
-21
-41
-8
-25
-21
-9
6
-5
-4
-6
15
41
12
-27
-20
0
34
69
42
-9
-52
-38
-23
-18
4
-5
-4
18
30
14
-32
-51
-2
5
-6
30
42
45
21
2
-8
-23
-4
-9
-10
4
26
48
35
25
-14
-12
8
6
-5
7
-12
31
22
29
-11
-5
-41
-27
8
23
3
27
31
27
-1
-16
-1
-21
-16
23
47
51
24
18
4
-5
-32
1
5
8
37
19
26
-6
4
10
-5
-14
1
17
38
10
-2
4
33
15
-25
10
19
15
22
33
26
23
3
3
-6
-3
8
38
23
55
13
18
4
-16
-25
2
25
30
27
71
51
12
-30
-26
-9
4
35
22
17
54
33
11
2
-9
-12
-34
-19
25
10
41
47
9
-12
-10
-20
15
7
20
59
41
17
-26
-27
-22
-31
4
12
10
40
39
53
13
28
11
4
4
31
27
33
42
-13
-81
-80
-87
-125
-91
-80
-74
-75
-47
-28
-44
-80
-96
-75
-60
-27
-14
32
54
20
-6
-19
-7
-24
-18
-11
-10
45
51
20
-18
-10
-21
-24
14
61
35
33
14
45
52
13
-16
4
2
26
37
39
41
30
21
27
-8
8
3
24
44
56
52
29
5
15
-4
11
1
35
60
56
44
2
-19
1
15
27
39
58
49
60
51
37
24
22
12
23
43
84
80
75
72
74
33
-1
11
33
87
128
69
50
51
42
20
12
12
62
68
75
86
81
84
54
44
39
20
15
55
74
62
69
44
22
37
30
1
41
52
31
14
53
40
-9
-19
22
9
1
-14
12
47
46
0
7
-9
-45
-23
10
10
27
54
57
13
12
0
-7
-21
-30
11
19
21
-4
8
-6
-22
-24
-41
-15
26
43
55
31
16
5
-31
-56
-31
-1
21
29
20
16
23
17
-17
-12
1
2
25
27
3
12
25
7
-18
-13
-13
8
28
30
-12
16
4
-22
-13
0
-2
-1
26
50
64
33
2
1
-27
-33
-2
-2
2
22
51
38
24
37
5
-29
-20
-15
-7
15
30
39
0
8
-10
-33
7
20
-8
30
40
26
12
-4
-25
-38
-17
16
27
25
60
39
-3
-24
-23
-7
27
34
45
49
42
19
53
7
14
-10
2
-15
17
38
26
39
31
25
52
8
13
26
49
59
70
37
14
-11
-23
-43
-30
13
37
52
83
41
25
0
-11
-25
1
36
41
5
-3
24
21
-4
-14
2
13
10
9
37
34
21
14
2
-10
12
-2
35
56
48
58
39
39
18
-9
-3
-4
34
11
-4
-24
-43
-61
-101
-121
-136
-95
-70
-54
-43
-33
-58
-60
-30
-66
-58
-20
27
57
37
33
26
11
-9
2
10
9
16
37
53
21
35
-11
-10
6
4
6
48
48
76
87
23
-20
-27
-18
13
32
24
42
54
50
25
0
4
-4
14
35
60
47
55
42
51
21
29
14
9
23
70
76
50
40
47
26
31
21
20
31
53
40
46
32
51
57
45
13
28
31
59
58
95
100
64
46
20
-6
51
74
83
99
98
92
68
33
43
33
44
63
68
82
100
73
33
28
35
37
58
57
52
61
73
48
31
58
41
7
-3
-7
40
57
56
31
15
14
-14
-15
13
37
46
39
52
33
11
10
-20
-23
-3
20
34
68
65
31
22
13
-47
-36
25
26
12
23
37
67
11
-23
-33
-34
11
18
33
65
51
21
-15
-5
14
2
11
21
9
29
59
19
2
10
-12
-20
7
27
28
45
34
33
-35
-43
-22
4
14
39
19
41
5
16
2
-1
-14
-11
16
29
40
55
45
2
-16
-2
16
11
28
52
47
35
15
8
-17
-13
-1
4
2
19
38
48
35
30
-8
8
6
-14
3
14
24
19
18
0
-1
29
10
5
18
28
17
40
40
21
-3
-31
-39
-10
24
60
59
49
36
30
3
-19
-38
0
1
33
45
39
32
21
5
0
-9
15
26
54
61
51
29
0
-1
6
-64
-14
-5
33
88
87
20
17
15
-19
-6
-6
26
28
29
9
23
31
12
-8
-27
-10
14
44
29
23
18
-12
-2
-18
-12
13
28
26
37
16
-11
-6
17
23
54
32
26
50
77
58
27
3
-1
-30
-45
-34
-46
-51
-49
-57
-100
-110
-87
-67
-39
-15
-24
-57
0
15
-7
-13
-11
-19
-14
-7
2
7
9
-9
-13
14
6
-13
18
40
62
87
89
72
44
7
14
1
16
28
101
147
121
71
58
44
28
-7
32
59
88
83
65
18
18
35
33
17
6
27
72
63
53
54
28
32
28
20
27
58
90
82
82
57
53
50
51
28
33
66
73
74
130
91
60
36
32
9
20
56
95
119
97
111
52
21
37
60
27
61
102
118
103
77
77
43
39
64
48
56
78
96
95
85
42
19
15
24
52
71
86
73
89
86
53
36
18
6
28
36
50
58
67
43
30
23
0
23
28
39
39
76
58
31
17
3
-11
11
48
49
47
50
26
17
21
60
61
59
62
52
22
16
0
11
13
11
14
36
46
27
34
51
44
18
-14
6
15
6
-12
39
70
61
55
66
25
-7
-26
30
12
60
57
56
44
-3
8
-1
-6
22
43
52
18
30
19
19
-7
-9
-21
-11
9
48
44
46
47
21
11
15
-3
-1
-9
15
30
61
77
27
6
6
-18
1
11
16
50
55
54
8
-22
6
-2
4
19
39
39
34
53
47
33
12
-24
-5
-18
10
73
53
47
35
5
-1
13
25
43
64
32
45
50
24
38
38
12
21
42
69
102
95
64
40
10
7
19
27
57
70
80
65
46
31
34
27
18
22
52
80
77
79
43
34
19
19
21
52
42
45
49
61
48
12
-3
12
43
62
57
71
76
71
60
39
21
18
44
27
42
71
82
58
31
36
33
23
33
55
77
100
108
94
84
71
48
12
6
-28
-6
-14
3
-54
-79
-59
-59
-72
-77
-16
9
26
20
-19
8
19
26
45
6
45
75
49
49
52
61
41
29
14
20
59
90
83
56
40
51
26
15
19
23
51
68
64
67
55
33
41
23
18
44
94
89
52
42
60
50
50
51
47
84
51
56
67
109
94
65
61
50
31
40
59
57
77
111
89
69
32
52
55
49
77
102
122
99
72
69
54
55
82
58
60
118
146
136
82
46
47
83
80
72
82
106
123
105
96
75
79
77
102
98
96
102
126
112
99
77
71
66
65
86
105
96
102
65
56
70
24
10
34
12
15
66
101
101
67
38
16
12
30
46
45
94
85
74
52
17
4
14
25
37
85
53
63
63
35
31
33
26
22
36
51
54
91
92
44
4
2
2
16
38
64
67
71
79
62
25
16
22
46
40
44
50
99
97
54
26
17
6
8
63
54
65
53
72
74
50
-3
-13
18
36
67
48
59
47
64
42
54
35
31
51
72
67
73
51
36
34
37
28
49
52
54
73
80
77
46
29
10
5
20
49
74
87
94
88
49
-5
11
12
12
63
69
88
66
80
49
16
18
34
24
40
34
50
66
71
31
17
21
55
54
41
68
99
107
83
36
14
-2
5
30
70
69
66
94
94
74
50
13
14
39
58
52
50
70
72
51
46
-5
6
13
36
68
55
86
43
21
27
27
32
53
76
76
67
59
40
40
4
-17
-6
43
94
88
69
72
47
51
56
26
38
63
81
106
99
91
50
-13
-66
-63
-51
-23
10
-11
-15
-37
-53
-46
-59
-71
-32
-12
22
39
81
79
38
21
-10
1
3
30
67
82
64
40
27
38
44
44
27
60
76
84
92
55
31
44
47
34
14
42
87
108
100
97
79
70
64
54
74
85
50
44
57
50
22
32
46
35
21
58
94
84
85
75
58
47
19
23
86
122
124
118
110
63
56
61
42
61
90
86
98
123
139
110
69
55
64
87
94
55
85
128
136
110
106
80
57
51
72
85
101
152
122
84
107
99
81
74
72
90
109
116
110
114
78
51
63
58
60
78
90
108
99
86
47
49
40
28
47
62
53
69
62
29
22
33
17
44
57
60
64
73
61
39
18
31
21
29
60
86
49
82
63
20
2
14
23
37
39
66
61
69
85
65
44
17
6
35
52
53
57
79
58
16
24
37
15
30
36
72
77
79
28
28
21
56
52
27
44
56
58
86
68
34
33
21
30
41
51
51
47
59
71
51
39
12
31
54
53
54
47
65
49
71
23
-5
27
38
39
80
88
66
73
31
33
27
9
43
55
83
74
87
68
23
27
21
15
28
49
60
63
60
62
40
35
21
30
38
67
64
82
68
51
45
26
18
-2
32
62
69
71
55
47
36
27
3
13
22
71
91
100
66
50
39
40
3
25
97
100
72
71
47
44
38
17
10
14
44
41
71
98
80
64
53
39
26
36
41
56
63
83
87
60
33
41
7
39
76
54
49
59
77
53
28
28
-9
0
43
99
70
65
54
55
33
32
33
23
37
36
60
83
63
33
12
33
43
23
42
64
80
78
61
63
49
51
49
47
68
81
59
36
20
-27
-49
-63
-71
-86
-53
-32
-13
-21
-11
-28
-17
-4
-18
-20
10
39
85
72
62
35
18
27
40
57
52
49
64
63
84
73
51
18
20
32
42
68
81
72
76
30
53
55
31
22
60
95
100
56
57
41
40
45
42
53
74
77
105
97
70
42
47
33
28
78
95
85
80
56
75
74
61
27
25
59
81
97
94
77
83
69
46
39
97
93
109
113
118
118
85
52
70
60
57
88
126
107
113
118
87
75
60
90
90
86
106
90
108
128
105
86
76
48
64
77
107
110
117
96
64
65
74
84
67
42
33
79
78
57
39
59
80
49
53
48
49
61
74
67
41
26
29
27
17
52
59
55
53
75
32
40
19
25
17
30
62
107
92
33
42
38
15
12
10
41
59
77
82
57
30
24
25
26
23
49
50
66
84
64
44
28
16
33
31
44
64
66
60
49
42
18
9
26
45
66
41
70
71
40
14
36
47
38
33
32
54
68
67
82
50
37
19
22
14
29
52
46
76
65
42
22
20
34
51
62
48
60
64
61
39
4
-7
49
58
72
82
78
68
38
37
39
-16
24
34
45
54
58
73
45
2
29
40
-2
12
25
51
68
20
12
12
8
-16
-25
10
43
33
36
4
-10
-8
8
-24
-48
-13
12
-27
9
12
-11
-38
-75
-71
-42
-39
-30
-44
-46
-45
-70
-89
-70
-85
-102
-81
-47
-61
-54
-61
-73
-89
-76
-68
-61
-18
-23
-6
-3
-25
-37
-49
-45
-23
-12
-18
-1
20
23
8
-14
-28
-64
-81
-30
0
20
30
16
-2
-18
-17
-6
-12
-11
5
24
36
4
-4
15
-1
-13
-41
-19
29
51
43
65
39
-2
-5
6
22
54
72
71
20
25
24
3
-24
-48
-49
-39
-11
-17
-44
-86
-85
-86
-108
-118
-99
-91
-18
27
26
29
15
6
44
5
-5
13
35
33
43
46
45
23
12
10
7
50
73
31
-16
30
31
30
11
17
21
57
69
64
52
30
23
22
39
18
12
31
65
49
80
88
72
31
10
3
36
35
50
51
78
77
72
45
19
25
36
41
68
97
99
73
57
43
35
-9
18
32
75
79
84
122
72
23
60
80
73
85
101
119
88
94
52
44
41
56
70
95
95
123
122
90
65
82
64
88
70
76
73
58
102
104
77
35
45
81
69
45
42
71
80
71
48
29
29
14
42
52
48
50
67
38
47
26
17
35
53
49
39
56
66
45
25
-6
-44
-10
25
52
45
70
60
43
29
8
-18
17
30
36
53
67
88
48
3
6
9
29
48
40
34
45
60
57
20
23
4
5
23
34
28
65
43
39
31
33
18
35
7
36
52
65
48
30
31
34
-32
-9
45
68
87
79
52
13
13
34
-26
14
59
91
109
56
23
-6
-1
1
-2
17
44
61
71
71
64
23
43
19
-36
0
29
39
59
84
66
43
27
13
-1
10
49
40
73
71
51
21
21
3
34
-6
46
81
78
57
42
30
11
14
2
8
33
53
44
47
56
63
25
-15
-6
19
28
37
51
77
76
21
6
9
17
50
62
18
34
40
33
49
66
7
-15
21
52
56
33
41
57
9
-3
16
27
26
55
63
81
49
32
31
35
10
14
29
53
42
80
92
72
41
26
25
30
34
31
37
60
66
42
-5
-10
-36
52
50
42
36
49
48
61
42
28
1
9
34
72
65
75
40
46
23
-2
-5
5
10
29
49
47
56
57
51
29
25
22
53
66
57
18
2
20
36
40
30
49
73
83
78
83
30
12
6
-19
-61
-63
-52
-63
-52
-40
-42
-50
-47
-55
-48
-30
12
19
40
53
50
44
22
-1
-24
7
44
36
46
62
59
39
28
21
41
38
43
64
80
110
78
31
4
21
24
18
54
70
105
90
86
38
18
13
22
18
56
68
53
89
80
54
41
27
36
40
68
85
92
76
59
35
17
22
44
51
57
91
103
73
71
57
80
51
41
56
90
108
107
93
72
46
59
38
53
65
104
103
120
124
107
69
60
60
75
106
111
97
103
107
95
75
58
37
62
68
96
115
105
120
88
74
57
38
82
57
44
76
78
46
41
34
45
31
44
41
38
50
67
57
21
25
25
14
17
50
40
79
105
63
10
12
3
-12
30
53
39
42
82
46
22
9
-7
18
15
54
45
48
34
42
32
15
23
-6
9
40
52
62
65
56
53
26
17
12
1
29
60
61
54
44
50
0
9
22
27
31
60
39
28
23
2
16
29
39
26
30
40
60
49
47
49
40
29
28
28
50
46
53
70
67
36
-1
-16
6
27
56
42
49
43
28
10
24
2
-11
-1
43
43
78
66
43
62
57
19
21
34
32
37
68
62
23
-4
6
5
20
45
45
56
63
49
30
22
-3
-9
14
24
43
68
81
67
55
5
-13
-2
19
37
31
49
86
65
41
18
30
33
17
22
47
57
67
61
48
7
5
-13
25
32
45
45
49
44
52
14
12
20
30
40
43
38
98
69
48
28
3
-1
50
54
51
57
67
79
53
16
30
32
12
18
38
50
55
55
43
-8
-4
11
29
50
59
52
67
38
28
7
3
-3
30
47
41
62
69
60
59
22
9
-7
-2
57
69
88
89
61
-18
-21
3
26
28
61
63
73
81
87
55
-1
7
-17
-36
-20
-8
-27
-31
-19
-53
-84
-94
-93
-67
-12
2
30
29
13
-25
-29
-17
22
35
44
59
56
51
22
38
30
4
18
48
63
48
72
68
60
35
9
17
39
49
75
66
76
70
46
49
44
8
8
42
74
80
73
59
48
24
20
11
34
56
69
82
75
68
54
25
42
27
52
49
67
73
95
82
71
67
56
37
45
73
98
88
90
87
70
69
51
46
37
39
68
90
115
97
65
75
109
73
49
66
123
117
117
99
79
58
34
41
65
84
118
135
121
76
60
56
49
49
38
81
107
95
69
68
48
21
31
17
32
43
58
69
79
67
43
15
-16
-2
40
32
53
78
62
48
32
-11
-17
15
41
52
64
78
59
42
18
3
-9
13
34
58
24
44
19
10
7
35
15
32
39
37
56
64
81
75
12
-2
-25
-9
9
58
49
71
69
42
25
7
-16
39
33
35
46
40
40
48
14
14
31
43
11
18
43
71
64
49
26
5
13
8
47
68
53
47
41
57
25
21
15
10
15
41
54
65
40
37
42
16
-2
8
31
48
54
77
51
18
4
6
2
41
45
57
57
77
58
47
39
-14
-3
-11
26
55
71
64
47
37
32
-13
-28
-2
28
64
78
40
31
28
42
18
4
30
15
67
69
63
50
29
12
17
-16
0
60
77
60
64
46
20
26
-5
13
19
41
48
70
56
21
14
6
2
-5
15
44
64
60
67
40
20
9
12
24
29
37
52
54
70
47
20
12
16
28
32
25
54
76
81
34
17
36
20
10
12
26
70
71
65
42
32
22
-1
16
25
38
44
65
54
36
20
19
5
7
30
54
61
56
34
44
-6
9
-2
4
16
47
41
31
40
35
31
22
8
-5
25
74
48
88
94
72
16
44
56
15
12
1
4
3
-10
-45
-66
-91
-104
-91
-56
-40
-15
-2
5
-8
-18
-29
-27
-28
-1
14
51
80
42
20
34
2
-19
15
17
56
70
81
60
45
17
19
4
29
44
54
80
91
76
30
19
3
22
28
37
73
69
67
71
46
54
43
17
44
30
46
47
43
42
26
35
29
23
33
51
61
87
96
78
50
41
52
29
24
70
94
107
87
48
34
63
56
57
56
72
81
89
104
94
60
68
78
70
60
49
50
95
80
81
59
48
65
76
58
81
108
117
113
106
76
55
50
53
54
98
98
100
85
59
37
44
21
20
28
48
51
63
72
25
-13
-12
-5
19
35
29
37
103
52
10
12
31
30
49
55
42
53
66
53
21
-5
5
15
21
44
19
37
50
42
36
6
-5
-8
-7
-23
-3
39
46
54
36
5
4
-18
14
30
39
50
98
92
57
25
22
-19
-1
44
50
54
40
46
26
17
33
23
9
49
39
57
62
62
19
10
-12
-7
-15
32
53
66
65
51
6
15
-6
12
5
27
45
64
64
44
19
1
-11
14
42
21
27
65
65
48
22
13
5
16
23
56
66
89
78
40
33
8
-39
-6
16
68
74
58
48
32
-3
11
0
-6
12
61
51
63
41
26
17
9
20
9
35
41
24
44
52
49
22
14
11
62
103
33
41
55
29
24
24
34
28
15
50
47
61
63
71
32
11
5
-9
7
5
15
26
76
56
15
8
21
6
11
45
45
52
56
45
16
14
2
-2
22
28
66
36
57
40
68
8
-27
-25
2
46
73
51
33
34
13
-7
8
22
50
42
43
85
78
71
59
25
18
24
-12
6
-3
11
14
-26
-94
-86
-65
-68
-49
-43
-35
-3
-24
-21
-30
-24
-39
-17
-15
15
32
41
56
44
35
12
-1
15
29
40
61
63
48
50
41
38
29
22
23
62
65
66
82
40
-7
29
9
6
3
84
76
67
49
54
24
15
18
33
63
54
51
57
60
70
52
44
18
31
32
65
72
102
103
52
45
40
32
23
46
55
89
100
79
65
26
6
18
90
93
78
94
104
103
80
44
76
41
42
87
108
124
113
102
85
59
77
88
57
77
99
88
102
73
84
63
36
51
39
79
107
80
76
66
57
43
19
-27
6
42
41
46
50
42
69
47
10
-20
-7
16
50
102
83
65
43
32
11
-5
3
10
58
13
60
40
23
3
-9
-36
2
6
52
38
20
22
-7
10
-12
-17
16
38
39
42
47
17
-4
-1
8
-22
-13
19
33
65
64
56
24
3
-13
1
0
-2
29
49
52
32
-10
-12
-7
-20
5
34
10
18
42
38
6
-33
-43
8
28
27
70
45
27
18
26
21
-13
-20
6
44
45
27
33
5
-8
9
-11
-9
9
44
36
58
23
4
-13
-49
-28
26
13
25
42
52
21
15
13
0
-4
-21
-5
44
73
54
50
22
2
-6
-4
3
9
20
0
47
44
11
17
3
-30
-12
21
32
11
27
23
24
1
-8
-2
-5
2
54
50
39
42
4
-1
19
7
13
9
28
41
50
32
13
15
6
-14
-13
23
60
80
74
34
11
-19
-35
-36
-19
5
21
35
22
26
19
13
-40
-46
-12
2
38
39
35
42
8
-9
-27
-22
-8
9
27
43
26
15
0
-4
-27
-14
13
12
2
29
47
16
-13
-3
-1
14
40
29
13
61
40
42
-17
-89
-98
-81
-86
-56
-61
-58
-79
-61
-85
-97
-85
-73
-51
-58
-25
3
17
-13
-40
-38
-42
-11
-4
16
18
35
27
7
-10
-10
-27
-8
12
24
22
26
-5
-7
-7
-45
-4
-18
-45
2
55
63
37
12
5
5
-1
-20
11
20
43
40
25
25
-1
-7
-26
-17
26
29
32
55
40
38
4
9
-27
-14
12
21
23
36
46
27
21
-2
-6
-6
23
48
54
57
32
17
22
18
-1
35
64
56
66
73
71
57
8
7
30
39
62
79
107
84
33
24
38
8
-18
18
57
51
47
59
55
25
28
9
4
24
20
52
64
55
25
3
-10
-31
-5
-6
17
35
50
29
28
-7
3
-30
-6
-12
8
-1
25
19
-8
-23
-24
-31
-19
8
0
0
15
-5
12
4
-13
-21
-5
-31
4
49
30
19
2
-1
-3
-28
-28
-12
-10
30
31
30
26
5
-46
-34
-15
-9
5
1
12
13
29
9
-7
-30
-25
-7
14
22
46
50
23
-44
-34
-51
-1
3
4
24
31
29
26
-3
3
-22
-36
-15
24
24
40
40
25
0
-15
-46
-22
21
31
31
57
34
-13
-12
-24
-20
-10
3
41
30
8
-9
-2
4
3
-17
-27
-3
18
30
53
28
-3
-29
-2
11
-26
-3
8
39
29
19
-14
-2
-12
-23
-14
10
33
53
54
15
-24
-18
-11
-5
23
6
29
39
16
-1
-1
-30
-39
-22
-8
13
26
19
35
42
-7
-19
-6
-6
7
23
28
56
37
11
15
13
0
-22
-1
32
27
20
25
1
1
9
-29
-37
-4
21
30
34
26
9
-23
-23
-22
1
-36
18
37
30
13
-3
2
0
7
-24
-25
-15
20
61
54
19
-15
-28
-37
0
2
45
63
42
29
30
15
-19
-47
-57
-44
-60
-56
-34
-15
-70
-109
-114
-110
-76
-89
-55
-61
-41
-7
-10
-35
-50
-19
-6
-19
-3
0
18
27
6
-11
-18
-28
-10
7
35
39
30
26
7
-4
-19
-30
-17
-9
24
42
25
46
33
-10
-24
-32
-2
31
35
25
29
24
23
1
-16
-1
2
14
52
21
42
40
17
6
-10
-17
14
19
40
58
72
66
45
7
-15
-20
-4
20
63
69
68
2
-15
20
17
-2
33
57
59
60
72
41
43
40
18
5
28
68
99
75
61
55
40
42
28
11
16
55
71
80
80
73
49
25
2
26
39
29
36
54
55
36
-14
-1
-4
1
20
24
11
29
11
15
0
-12
-46
-27
4
27
7
63
62
9
-24
-14
-19
0
-10
-11
14
44
24
12
-14
-26
-40
-27
-6
36
38
41
21
-3
-7
-25
-34
-29
6
29
0
-19
24
3
-7
10
-21
-14
31
45
34
14
10
1
-8
-11
-20
-19
24
30
14
21
14
26
-1
-13
-27
8
15
12
26
65
36
-9
-19
-20
-36
-21
50
62
35
47
34
-6
-24
-15
34
14
28
21
2
18
10
8
-8
-35
-27
-16
5
31
31
39
23
13
7
-11
-10
-3
-6
26
45
17
9
-5
0
29
30
-4
15
26
62
27
4
-15
-20
-12
-16
6
18
22
28
38
40
22
-5
-16
-30
-4
7
25
54
45
14
-1
-4
28
24
-2
10
26
38
34
33
3
-21
-2
-10
44
33
31
72
67
19
-28
-39
-25
14
-6
11
41
50
20
3
-11
-3
-1
6
13
-1
47
86
43
17
-9
-7
-17
-19
-6
-4
14
15
40
71
39
2
-22
4
17
42
33
46
44
-11
-24
-6
1
-7
7
43
43
61
68
50
-3
-7
-33
-48
-87
-196
-137
-120
-114
-145
-157
-139
-139
-132
-102
-39
-35
-3
5
-33
-25
-10
-26
-12
20
21
27
26
6
-4
-20
-27
-43
-24
17
33
32
48
49
7
-18
-10
-15
5
20
-13
27
28
38
1
0
-23
-18
-8
43
73
62
27
23
54
30
-4
24
22
24
45
46
37
10
28
49
5
-4
5
2
53
62
44
31
18
34
13
-16
11
48
43
72
70
60
22
14
54
46
38
29
57
79
66
28
28
47
36
52
53
77
79
96
61
69
57
39
41
49
35
46
76
100
83
53
20
3
-2
11
12
59
34
50
48
55
46
26
-32
-17
-20
16
58
62
37
23
2
-11
-27
3
23
38
46
66
39
8
-21
-25
-8
-27
2
25
17
16
33
36
-10
-31
-32
7
-10
19
11
43
27
-4
-19
-17
-9
9
18
25
33
51
30
11
-4
-10
-4
17
4
-8
32
39
15
9
-7
-26
-12
-38
3
27
38
41
7
-13
-39
-8
0
-7
14
14
16
-2
33
40
0
-53
-40
-7
37
32
42
56
43
-11
-13
-19
-7
7
33
43
24
21
34
-3
-18
-38
-32
-10
6
33
47
25
29
-1
-49
-31
-41
-44
-1
12
27
21
13
-20
-14
-25
-15
-11
12
24
41
30
15
7
10
-38
-55
-18
51
42
19
27
-4
6
-46
-55
-21
-15
11
26
9
19
19
10
11
-27
-44
-45
4
32
47
32
14
-2
-14
-19
-14
-10
30
32
44
44
31
37
21
-12
2
30
41
12
17
12
-2
0
-14
-12
-4
0
38
17
24
24
-3
-28
8
24
17
2
8
30
52
15
-20
-14
-19
-30
-13
21
29
31
26
24
20
28
18
23
-1
18
16
46
48
36
13
-10
3
7
3
6
-21
-26
-39
-57
-91
-120
-86
-119
-145
-83
-46
-7
-9
-26
-30
-23
-31
-32
-27
24
58
53
36
17
-3
-9
-32
-11
26
16
34
58
34
4
31
8
-1
21
5
26
33
53
38
25
20
9
6
7
-13
14
41
77
68
31
19
2
-8
9
37
49
54
49
53
60
16
25
-13
9
37
63
47
48
56
52
18
11
2
50
59
50
69
76
60
48
25
40
-1
6
32
61
84
86
93
51
37
46
45
44
61
101
109
113
73
63
64
38
29
49
63
93
89
88
81
60
57
56
50
44
63
76
94
89
50
18
-4
10
17
20
26
-7
27
58
54
30
20
-9
-27
17
35
39
49
66
41
1
-20
-19
8
21
19
42
59
28
40
28
3
-9
-19
9
60
66
61
51
2
-33
-40
-19
-14
2
14
22
33
14
-1
3
17
3
-10
3
42
57
44
54
16
4
-7
-20
4
9
10
33
64
62
36
-2
-1
-6
11
27
78
46
18
27
0
3
-7
-23
-13
0
44
33
16
32
50
20
12
-35
-23
36
47
22
35
32
11
18
-4
-22
-13
17
51
33
33
20
-22
-5
34
-7
5
11
44
28
55
50
10
-15
-12
-9
-9
16
50
35
65
37
-3
-8
1
-11
-6
5
51
50
50
22
-3
9
10
-21
-14
25
25
64
59
35
17
-28
-34
-14
-21
22
11
1
28
42
24
-3
-5
3
10
16
49
58
63
21
9
-22
9
14
13
28
52
67
46
22
28
24
28
16
24
35
41
18
11
18
4
-24
-56
-49
0
20
35
36
58
36
17
-8
1
6
18
27
39
43
31
20
22
2
-33
-6
23
73
52
43
49
20
-30
-13
-9
-16
-11
19
66
62
44
59
42
17
