-77
-69
-76
-89
-106
-122
-125
-117
-108
-84
-70
-62
-70
-80
-98
-114
-119
-111
-99
-82
-66
-63
-75
-85
-89
-108
-113
-104
-91
-71
-58
-54
-62
-75
-95
-106
-112
-100
-91
-74
-63
-59
-70
-83
-106
-122
-125
-116
-103
-83
-71
-69
-79
-90
-113
-126
-128
-118
-108
-85
-72
-70
-84
-97
-120
-132
-128
-121
-108
-85
-74
-73
-86
-97
-119
-133
-130
-119
-105
-85
-76
-72
-83
-94
-117
-131
-128
-116
-104
-81
-70
-77
-93
-105
-126
-139
-139
-127
-117
-88
-72
-61
-63
-63
-71
-64
-52
-10
22
68
96
92
75
50
14
-16
-31
-41
-55
-65
-83
-101
-115
-123
-139
-144
-135
-113
-95
-76
-62
-69
-83
-100
-120
-129
-121
-108
-88
-71
-65
-72
-84
-101
-116
-126
-112
-100
-86
-69
-62
-69
-77
-97
-117
-121
-113
-101
-82
-67
-61
-69
-80
-101
-116
-118
-108
-92
-75
-61
-54
-64
-74
-95
-109
-114
-106
-91
-71
-56
-52
-61
-72
-92
-105
-109
-99
-88
-65
-51
-46
-58
-69
-92
-97
-101
-90
-77
-56
-41
-35
-44
-54
-74
-84
-86
-74
-63
-35
-24
-19
-31
-39
-54
-68
-72
-54
-45
-23
-8
-9
-22
-32
-55
-66
-66
-56
-45
-25
-13
-16
-31
-42
-68
-81
-83
-76
-61
-40
-33
-38
-51
-67
-90
-102
-103
-92
-81
-61
-55
-58
-69
-80
-107
-119
-115
-103
-88
-69
-62
-69
-81
-97
-116
-124
-119
-109
-92
-77
-62
-69
-82
-98
-119
-125
-118
-109
-91
-72
-69
-73
-84
-102
-121
-128
-120
-112
-93
-75
-66
-75
-82
-103
-120
-129
-117
-103
-85
-70
-66
-72
-80
-99
-119
-123
-115
-102
-83
-67
-61
-70
-80
-100
-117
-124
-111
-103
-80
-66
-56
-68
-81
-103
-117
-121
-110
-98
-77
-64
-61
-70
-84
-106
-121
-118
-107
-97
-75
-64
-61
-73
-83
-103
-120
-123
-109
-101
-75
-66
-62
-73
-84
-107
-122
-123
-109
-100
-78
-65
-66
-77
-87
-108
-118
-123
-111
-102
-77
-65
-65
-78
-88
-111
-124
-123
-108
-99
-79
-62
-65
-76
-86
-112
-123
-118
-107
-97
-74
-62
-63
-76
-92
-114
-123
-119
-108
-95
-75
-66
-69
-79
-93
-115
-122
-118
-107
-92
-73
-63
-66
-78
-94
-117
-122
-117
-104
-92
-68
-60
-65
-74
-90
-111
-116
-109
-98
-82
-64
-60
-65
-75
-93
-109
-116
-107
-94
-75
-58
-51
-55
-67
-86
-100
-107
-100
-86
-67
-55
-50
-57
-70
-91
-109
-114
-107
-95
-80
-68
-66
-73
-79
-97
-116
-118
-113
-100
-80
-67
-64
-73
-85
-105
-120
-124
-113
-104
-83
-69
-65
-76
-84
-108
-120
-123
-110
-101
-80
-65
-62
-71
-82
-106
-120
-124
-112
-103
-82
-69
-64
-71
-85
-109
-125
-124
-114
-106
-88
-77
-70
-79
-76
-89
-83
-74
-50
-25
16
50
75
91
93
61
45
31
25
19
19
4
-26
-67
-105
-135
-135
-130
-116
-101
-72
-55
-55
-67
-80
-105
-112
-111
-100
-87
-62
-55
-58
-69
-83
-103
-113
-111
-91
-82
-62
-52
-56
-68
-85
-105
-112
-104
-85
-74
-55
-47
-53
-66
-81
-100
-106
-100
-88
-72
-55
-45
-50
-62
-78
-90
-98
-91
-81
-64
-45
-37
-46
-58
-79
-90
-98
-87
-77
-59
-43
-35
-41
-53
-71
-81
-86
-78
-65
-46
-32
-26
-30
-42
-61
-73
-75
-64
-50
-29
-13
-10
-18
-20
-38
-51
-58
-43
-33
-10
7
7
-3
-12
-32
-46
-47
-39
-28
-1
9
9
-3
-14
-37
-53
-54
-46
-37
-17
-10
-3
-22
-35
-59
-74
-77
-70
-62
-37
-30
-34
-42
-56
-79
-95
-96
-85
-77
-56
-45
-46
-56
-69
-93
-103
-103
-92
-79
-56
-45
-50
-62
-75
-97
-109
-102
-92
-79
-56
-49
-53
-65
-76
-100
-104
-104
-94
-79
-45
-44
-50
-59
-75
-94
-104
-98
-86
-73
-53
-44
-50
-61
-75
-93
-102
-98
-85
-69
-51
-43
-48
-59
-75
-93
-101
-94
-81
-63
-47
-40
-47
-58
-76
-92
-99
-92
-79
-63
-47
-39
-48
-59
-76
-94
-100
-92
-81
-62
-46
-40
-50
-62
-84
-98
-99
-84
-77
-61
-48
-41
-51
-61
-82
-94
-101
-91
-78
-59
-44
-41
-51
-61
-82
-97
-102
-93
-79
-56
-43
-42
-52
-64
-87
-100
-102
-92
-73
-54
-42
-40
-49
-60
-82
-96
-97
-88
-77
-51
-41
-39
-51
-61
-87
-99
-99
-84
-72
-51
-39
-38
-53
-65
-89
-96
-96
-81
-71
-50
-43
-39
-51
-62
-85
-93
-92
-78
-65
-43
-35
-37
-47
-58
-80
-91
-91
-73
-60
-40
-32
-36
-44
-58
-76
-85
-81
-68
-52
-31
-23
-26
-38
-51
-73
-85
-76
-65
-48
-32
-28
-35
-47
-65
-90
-98
-93
-80
-58
-43
-38
-44
-55
-74
-91
-95
-89
-80
-63
-45
-38
-46
-52
-74
-93
-98
-88
-78
-60
-42
-38
-48
-58
-76
-93
-99
-88
-79
-62
-47
-39
-47
-57
-77
-93
-100
-92
-82
-65
-43
-39
-50
-61
-85
-99
-105
-97
-82
-56
-33
-15
-12
-11
-15
-15
4
37
75
115
125
127
108
81
41
8
-15
-34
-54
-58
-62
-62
-69
-72
-93
-100
-94
-82
-67
-43
-34
-34
-45
-58
-79
-90
-92
-82
-68
-36
-28
-32
-44
-54
-74
-85
-86
-74
-63
-39
-27
-27
-40
-55
-74
-84
-83
-70
-57
-34
-26
-28
-37
-50
-73
-82
-78
-67
-52
-31
-22
-26
-39
-52
-68
-74
-73
-62
-47
-25
-16
-16
-30
-42
-62
-71
-67
-55
-41
-19
-6
-10
-24
-39
-57
-60
-50
-37
-21
-3
6
-2
-10
-22
-38
-45
-37
-25
-8
15
29
22
10
-7
-26
-30
-21
-11
10
27
34
23
12
-7
-25
-29
-19
-10
10
22
26
18
4
-18
-36
-44
-39
-31
-9
2
7
-8
-24
-39
-57
-64
-56
-47
-27
-19
-15
-27
-39
-61
-77
-78
-73
-62
-42
-23
-23
-37
-46
-68
-79
-86
-77
-66
-43
-30
-29
-41
-51
-74
-85
-89
-78
-68
-42
-29
-30
-42
-53
-75
-88
-85
-71
-60
-41
-30
-30
-41
-52
-71
-85
-84
-73
-61
-37
-28
-31
-39
-51
-75
-85
-85
-73
-61
-38
-24
-30
-42
-54
-76
-83
-82
-69
-58
-33
-25
-29
-41
-56
-76
-83
-80
-70
-56
-36
-27
-30
-43
-57
-76
-86
-78
-65
-50
-34
-28
-31
-44
-59
-81
-89
-82
-69
-49
-36
-28
-32
-44
-62
-80
-86
-83
-74
-49
-31
-27
-35
-49
-64
-80
-89
-82
-70
-51
-35
-28
-37
-50
-70
-85
-90
-82
-68
-48
-34
-32
-40
-50
-70
-84
-87
-78
-69
-50
-33
-28
-39
-50
-71
-84
-89
-77
-66
-43
-29
-26
-35
-47
-66
-77
-85
-68
-58
-38
-24
-22
-33
-45
-62
-74
-78
-64
-50
-30
-17
-15
-29
-40
-59
-72
-73
-61
-50
-31
-20
-23
-37
-43
-68
-85
-84
-71
-64
-40
-30
-31
-40
-53
-78
-88
-84
-75
-66
-41
-33
-38
-43
-58
-79
-86
-89
-78
-66
-41
-35
-34
-48
-61
-82
-91
-89
-78
-65
-40
-33
-37
-49
-59
-82
-90
-87
-74
-61
-39
-30
-38
-51
-67
-87
-96
-94
-88
-69
-44
-29
-28
-25
-32
-39
-31
-8
24
70
107
127
121
101
69
44
14
0
-6
-16
-30
-50
-68
-82
-94
-104
-105
-91
-72
-49
-32
-26
-33
-45
-67
-79
-86
-77
-65
-47
-32
-28
-36
-46
-65
-80
-80
-71
-63
-41
-27
-24
-31
-45
-63
-79
-83
-71
-58
-39
-26
-21
-30
-39
-62
-73
-77
-65
-54
-31
-19
-17
-29
-38
-60
-71
-74
-62
-51
-29
-17
-14
-28
-34
-55
-69
-70
-58
-45
-21
-7
-7
-21
-29
-50
-57
-58
-45
-33
-8
4
4
-10
-16
-39
-46
-43
-25
-14
10
18
19
16
4
-22
-31
-28
-15
-1
23
32
28
19
6
-17
-27
-26
-14
1
20
28
23
6
-6
-29
-42
-39
-30
-17
-1
5
-1
-13
-31
-54
-63
-61
-50
-34
-24
-17
-18
-32
-48
-71
-78
-72
-63
-50
-35
-20
-26
-45
-60
-79
-86
-76
-67
-48
-33
-27
-38
-48
-67
-83
-88
-79
-68
-51
-36
-31
-38
-49
-71
-84
-85
-77
-68
-51
-33
-29
-40
-49
-73
-84
-89
-75
-65
-46
-31
-26
-38
-47
-69
-82
-87
-77
-65
-41
-29
-25
-38
-48
-70
-84
-86
-75
-64
-42
-30
-27
-37
-49
-70
-83
-86
-75
-67
-48
-28
-23
-40
-50
-72
-83
-88
-78
-62
-37
-29
-28
-41
-52
-77
-88
-85
-73
-63
-38
-31
-32
-45
-50
-76
-87
-86
-75
-62
-39
-31
-33
-46
-57
-81
-91
-89
-76
-64
-41
-33
-34
-49
-63
-83
-85
-86
-76
-64
-43
-31
-37
-52
-62
-86
-93
-89
-76
-60
-40
-32
-37
-49
-66
-85
-92
-86
-74
-58
-40
-34
-42
-53
-71
-89
-95
-85
-73
-56
-38
-31
-39
-46
-66
-82
-86
-80
-68
-51
-37
-30
-34
-48
-69
-83
-89
-78
-67
-42
-27
-24
-31
-42
-64
-77
-82
-70
-57
-38
-26
-24
-35
-46
-69
-84
-88
-80
-72
-52
-41
-40
-47
-57
-81
-94
-94
-85
-75
-56
-43
-39
-53
-57
-79
-93
-98
-88
-80
-58
-47
-44
-54
-65
-85
-99
-101
-88
-79
-54
-39
-42
-54
-65
-91
-103
-103
-90
-80
-58
-47
-48
-59
-71
-92
-106
-107
-93
-84
-64
-53
-53
-56
-57
-66
-68
-52
-26
-1
54
81
104
109
95
69
47
37
30
24
24
6
-31
-70
-95
-117
-119
-113
-96
-73
-51
-37
-41
-52
-67
-87
-96
-91
-80
-63
-44
-37
-44
-54
-69
-88
-96
-87
-76
-59
-40
-34
-42
-54
-70
-86
-90
-87
-71
-55
-35
-30
-36
-48
-66
-83
-88
-80
-69
-50
-35
-26
-35
-48
-66
-81
-86
-78
-66
-41
-28
-22
-31
-43
-63
-76
-81
-70
-60
-38
-25
-20
-28
-37
-59
-70
-72
-62
-50
-30
-15
-10
-19
-28
-47
-61
-62
-49
-35
-13
0
5
1
-7
-31
-41
-41
-29
-17
4
15
16
10
2
-21
-33
-32
-22
-12
9
21
20
7
-5
-28
-43
-44
-33
-24
2
7
3
-13
-30
-53
-67
-67
-55
-43
-27
-18
-24
-38
-48
-73
-85
-82
-72
-62
-43
-33
-36
-50
-59
-83
-90
-90
-77
-66
-47
-39
-45
-50
-67
-86
-95
-90
-80
-67
-46
-36
-40
-53
-70
-90
-97
-89
-79
-63
-47
-37
-43
-52
-70
-90
-94
-87
-75
-59
-41
-35
-43
-55
-73
-91
-91
-87
-77
-57
-42
-33
-43
-56
-72
-89
-96
-87
-73
-52
-39
-37
-39
-55
-75
-90
-95
-87
-73
-54
-41
-34
-46
-55
-79
-94
-95
-88
-75
-53
-42
-36
-48
-59
-80
-92
-97
-88
-78
-57
-39
-38
-48
-61
-85
-97
-97
-87
-78
-52
-42
-42
-51
-60
-85
-97
-98
-83
-75
-54
-44
-40
-55
-67
-86
-98
-98
-86
-76
-52
-43
-41
-54
-63
-90
-98
-97
-88
-75
-55
-43
-45
-56
-67
-91
-102
-99
-88
-72
-51
-43
-47
-57
-71
-95
-98
-96
-85
-75
-53
-40
-45
-58
-70
-88
-97
-94
-84
-68
-41
-34
-38
-50
-66
-87
-98
-90
-78
-61
-38
-30
-36
-49
-64
-80
-89
-84
-73
-54
-36
-31
-37
-48
-68
-88
-96
-87
-80
-64
-49
-42
-53
-65
-86
-101
-102
-90
-80
-65
-50
-44
-52
-67
-86
-102
-107
-100
-90
-67
-52
-49
-57
-70
-92
-107
-108
-101
-89
-66
-54
-52
-61
-70
-93
-108
-110
-99
-90
-69
-55
-51
-61
-70
-95
-110
-113
-105
-97
-75
-65
-65
-74
-81
-99
-103
-85
-62
-43
-7
19
45
51
67
70
64
56
55
52
57
48
28
-10
-50
-101
-130
-137
-119
-103
-76
-59
-54
-61
-71
-93
-100
-101
-89
-81
-57
-48
-51
-62
-74
-97
-104
-100
-88
-79
-60
-45
-45
-51
-70
-93
-100
-96
-86
-72
-50
-41
-47
-61
-74
-93
-99
-93
-81
-67
-47
-39
-43
-53
-69
-89
-97
-91
-78
-63
-45
-33
-37
-50
-67
-85
-94
-81
-71
-55
-38
-28
-35
-45
-59
-76
-83
-75
-63
-43
-26
-19
-29
-39
-58
-65
-68
-54
-46
-27
-12
-5
-12
-21
-39
-50
-55
-43
-30
-6
6
12
0
-2
-25
-42
-44
-30
-21
-1
10
15
8
-8
-30
-43
-49
-41
-32
-12
0
-2
-14
-29
-50
-67
-71
-62
-50
-32
-22
-24
-34
-51
-69
-82
-87
-80
-72
-46
-37
-37
-50
-61
-82
-95
-95
-85
-74
-52
-43
-42
-55
-67
-89
-101
-102
-89
-71
-55
-44
-47
-57
-69
-92
-103
-101
-88
-77
-55
-43
-45
-58
-74
-96
-102
-91
-83
-72
-53
-42
-46
-55
-72
-95
-101
-92
-82
-69
-48
-40
-46
-59
-72
-93
-102
-97
-84
-70
-50
-39
-49
-62
-76
-92
-98
-94
-81
-65
-47
-39
-47
-59
-77
-95
-99
-94
-82
-65
-50
-39
-48
-58
-79
-93
-103
-97
-79
-65
-47
-43
-50
-62
-80
-97
-104
-95
-85
-66
-52
-46
-56
-69
-85
-99
-102
-93
-83
-62
-48
-45
-55
-68
-90
-101
-103
-94
-83
-62
-50
-47
-56
-67
-91
-105
-106
-96
-84
-64
-51
-48
-60
-65
-89
-102
-104
-94
-83
-62
-51
-50
-62
-71
-95
-106
-104
-88
-79
-56
-47
-47
-57
-67
-83
-98
-100
-85
-76
-51
-39
-41
-55
-67
-87
-99
-98
-83
-69
-47
-37
-37
-50
-62
-82
-91
-86
-75
-65
-43
-37
-33
-47
-64
-85
-97
-97
-85
-75
-56
-51
-43
-60
-77
-97
-106
-102
-91
-74
-54
-48
-53
-66
-82
-102
-109
-102
-90
-78
-58
-52
-55
-67
-87
-102
-107
-101
-92
-74
-57
-49
-54
-69
-87
-104
-112
-104
-93
-71
-55
-50
-57
-72
-85
-104
-112
-107
-95
-80
-65
-58
-68
-72
-87
-87
-81
-59
-36
-1
27
52
69
80
73
58
46
44
38
42
33
16
-25
-64
-111
-138
-138
-121
-106
-78
-61
-53
-59
-69
-90
-106
-98
-92
-82
-61
-49
-48
-56
-66
-92
-102
-105
-94
-81
-60
-44
-46
-55
-66
-87
-103
-101
-91
-81
-54
-46
-42
-53
-65
-89
-100
-98
-86
-77
-54
-42
-39
-52
-65
-85
-97
-92
-79
-68
-46
-35
-37
-50
-61
-76
-90
-87
-74
-63
-40
-29
-30
-43
-55
-76
-84
-80
-66
-52
-31
-21
-20
-29
-44
-64
-69
-62
-46
-33
-13
-2
-5
-20
-34
-50
-56
-47
-33
-15
2
10
3
-8
-26
-41
-48
-37
-30
-10
5
10
5
-7
-28
-45
-55
-47
-38
-22
-10
-6
-14
-29
-50
-69
-73
-70
-58
-42
-31
-25
-37
-52
-75
-88
-90
-85
-77
-57
-44
-39
-48
-61
-82
-98
-103
-99
-87
-60
-50
-46
-56
-69
-88
-104
-105
-94
-83
-62
-52
-48
-54
-69
-90
-103
-104
-92
-84
-62
-49
-48
-60
-70
-90
-102
-106
-92
-80
-58
-47
-47
-59
-70
-92
-100
-102
-91
-81
-57
-47
-45
-58
-70
-91
-100
-102
-90
-78
-54
-43
-46
-58
-73
-97
-98
-97
-89
-80
-50
-42
-46
-58
-73
-94
-103
-99
-84
-72
-53
-42
-48
-60
-75
-94
-104
-100
-88
-75
-56
-48
-54
-64
-79
-100
-102
-98
-86
-74
-53
-45
-51
-61
-81
-102
-108
-100
-88
-69
-53
-46
-54
-59
-82
-101
-109
-103
-86
-72
-55
-48
-58
-67
-86
-100
-109
-99
-90
-71
-56
-53
-57
-69
-87
-102
-109
-98
-85
-65
-49
-45
-53
-63
-85
-98
-98
-94
-83
-65
-50
-43
-52
-64
-83
-94
-97
-87
-74
-49
-39
-38
-47
-57
-78
-89
-92
-82
-76
-54
-37
-35
-52
-65
-90
-104
-105
-98
-88
-65
-48
-51
-65
-76
-96
-100
-106
-94
-86
-62
-49
-51
-65
-78
-98
-110
-109
-95
-87
-64
-51
-54
-66
-78
-101
-111
-110
-96
-84
-63
-51
-57
-69
-81
-101
-110
-108
-95
-82
-62
-52
-58
-73
-90
-110
-118
-118
-107
-95
-61
-54
-46
-43
-49
-58
-52
-30
4
39
84
110
106
89
59
26
-4
-20
-25
-39
-50
-70
-90
-100
-110
-125
-128
-116
-93
-73
-53
-46
-53
-66
-85
-102
-110
-100
-87
-69
-54
-46
-54
-65
-83
-95
-104
-97
-87
-66
-46
-43
-52
-63
-80
-96
-102
-91
-80
-61
-46
-39
-50
-61
-82
-89
-96
-87
-77
-59
-45
-39
-47
-57
-81
-93
-92
-80
-70
-51
-34
-35
-44
-54
-75
-86
-91
-80
-68
-40
-25
-25
-35
-46
-66
-78
-78
-66
-54
-32
-18
-18
-23
-34
-54
-67
-68
-52
-35
-14
-3
0
-12
-22
-43
-53
-51
-38
-23
1
10
8
-2
-16
-40
-54
-44
-32
-22
0
7
6
-10
-23
-50
-63
-58
-48
-35
-19
-12
-16
-31
-50
-72
-85
-83
-71
-59
-40
-35
-36
-53
-72
-90
-99
-96
-84
-69
-51
-43
-50
-62
-80
-97
-106
-99
-89
-71
-53
-47
-53
-65
-82
-102
-108
-102
-89
-71
-55
-48
-56
-68
-86
-101
-107
-100
-89
-67
-53
-46
-56
-66
-86
-98
-105
-97
-88
-63
-49
-48
-56
-60
-82
-99
-104
-94
-82
-60
-46
-41
-54
-65
-87
-101
-102
-95
-83
-61
-46
-45
-55
-66
-89
-103
-104
-88
-82
-61
-46
-43
-53
-64
-86
-102
-105
-94
-78
-57
-46
-44
-54
-66
-88
-104
-105
-93
-84
-60
-50
-50
-60
-72
-94
-104
-103
-93
-82
-58
-47
-48
-57
-71
-98
-109
-107
-96
-83
-62
-44
-50
-62
-74
-96
-108
-105
-92
-79
-57
-46
-48
-60
-78
-100
-103
-99
-88
-77
-58
-49
-54
-58
-75
-98
-106
-101
-89
-74
-54
-45
-48
-59
-75
-94
-101
-95
-84
-67
-49
-42
-49
-62
-78
-94
-101
-96
-80
-64
-46
-38
-44
-54
-71
-89
-93
-86
-72
-54
-41
-33
-41
-53
-73
-89
-99
-92
-82
-63
-51
-48
-58
-70
-89
-104
-107
-101
-87
-66
-54
-52
-57
-71
-90
-106
-113
-101
-89
-70
-57
-52
-62
-72
-95
-109
-114
-99
-90
-67
-55
-52
-65
-73
-92
-108
-109
-101
-91
-63
-52
-51
-63
-73
-95
-112
-116
-104
-92
-70
-62
-63
-74
-81
-97
-95
-85
-60
-38
2
34
49
62
77
73
56
54
51
48
50
40
14
-27
-61
-114
-137
-133
-113
-97
-67
-50
-50
-62
-72
-94
-104
-103
-90
-76
-56
-48
-51
-64
-78
-97
-103
-101
-90
-73
-50
-44
-48
-58
-75
-92
-101
-95
-82
-67
-48
-38
-44
-53
-72
-92
-100
-92
-80
-63
-46
-40
-46
-54
-70
-90
-97
-87
-75
-60
-43
-30
-38
-49
-68
-84
-90
-82
-70
-51
-37
-28
-33
-45
-64
-77
-84
-74
-62
-43
-27
-16
-23
-33
-52
-65
-67
-58
-45
-24
-12
-2
-11
-21
-42
-58
-53
-42
-30
-6
8
11
4
-7
-27
-42
-45
-31
-22
-1
12
14
3
-8
-33
-45
-48
-41
-33
-12
-3
-5
-17
-27
-57
-69
-75
-63
-54
-37
-25
-24
-38
-53
-77
-88
-92
-81
-70
-51
-40
-44
-56
-62
-89
-100
-100
-85
-76
-52
-45
-47
-59
-73
-95
-105
-104
-91
-77
-56
-47
-48
-62
-73
-95
-106
-100
-88
-76
-53
-43
-50
-60
-72
-97
-106
-101
-89
-74
-54
-46
-50
-62
-72
-96
-104
-97
-84
-70
-50
-42
-46
-60
-75
-93
-101
-97
-85
-71
-49
-43
-48
-61
-76
-95
-101
-94
-83
-65
-50
-41
-49
-61
-80
-97
-101
-93
-83
-66
-51
-42
-46
-60
-82
-95
-102
-91
-84
-63
-50
-47
-55
-63
-83
-100
-102
-95
-86
-60
-48
-41
-53
-64
-88
-101
-105
-94
-85
-65
-50
-45
-54
-64
-87
-103
-103
-95
-84
-60
-49
-49
-59
-69
-94
-107
-103
-94
-84
-60
-49
-48
-58
-70
-94
-103
-104
-92
-82
-50
-38
-43
-54
-62
-85
-96
-98
-84
-74
-52
-41
-42
-53
-66
-85
-96
-89
-80
-61
-40
-31
-34
-46
-59
-83
-94
-91
-79
-68
-47
-37
-44
-56
-71
-95
-103
-100
-88
-75
-54
-45
-50
-62
-80
-101
-109
-102
-91
-76
-57
-50
-52
-62
-81
-102
-108
-103
-92
-75
-56
-46
-56
-69
-83
-100
-110
-103
-93
-75
-56
-52
-60
-68
-86
-104
-111
-102
-90
-75
-61
-55
-63
-78
-99
-114
-122
-105
-90
-60
-35
-17
-12
-8
-15
-13
4
41
74
105
113
107
81
51
11
-23
-51
-71
-89
-82
-76
-70
-72
-79
-99
-106
-103
-92
-78
-57
-47
-45
-56
-65
-85
-98
-101
-92
-80
-59
-45
-42
-52
-62
-84
-96
-96
-89
-81
-58
-38
-40
-53
-60
-82
-94
-93
-82
-70
-48
-38
-37
-49
-62
-85
-95
-94
-78
-69
-47
-34
-36
-48
-58
-82
-90
-88
-77
-61
-39
-29
-30
-40
-54
-77
-85
-83
-69
-52
-31
-24
-28
-34
-44
-65
-75
-68
-56
-40
-13
-8
-9
-21
-36
-53
-54
-50
-40
-21
1
11
3
-7
-21
-42
-44
-37
-26
-10
12
18
11
-2
-18
-37
-43
-39
-29
-11
3
7
-3
-17
-38
-57
-66
-60
-50
-34
-20
-16
-25
-40
-59
-78
-85
-77
-70
-53
-41
-34
-45
-60
-79
-92
-97
-89
-77
-60
-47
-42
-54
-65
-85
-97
-105
-95
-85
-64
-48
-47
-60
-68
-88
-97
-104
-91
-83
-62
-48
-46
-58
-69
-91
-104
-104
-93
-84
-58
-45
-45
-53
-64
-88
-103
-100
-90
-78
-56
-47
-47
-57
-64
-90
-100
-100
-87
-77
-52
-42
-43
-56
-66
-87
-98
-99
-85
-75
-56
-42
-43
-54
-66
-89
-101
-98
-84
-71
-51
-40
-46
-57
-71
-94
-101
-97
-82
-69
-50
-41
-47
-60
-74
-94
-103
-101
-86
-69
-50
-43
-49
-62
-76
-96
-103
-99
-88
-71
-52
-43
-51
-62
-78
-99
-105
-99
-85
-69
-51
-45
-50
-62
-77
-98
-102
-94
-79
-63
-47
-40
-48
-59
-77
-90
-100
-88
-79
-57
-43
-39
-45
-57
-76
-89
-96
-84
-73
-51
-36
-32
-42
-54
-74
-87
-90
-78
-71
-53
-40
-37
-49
-64
-86
-100
-104
-95
-84
-65
-52
-49
-58
-67
-90
-102
-105
-97
-86
-64
-53
-51
-64
-73
-97
-110
-108
-99
-84
-63
-50
-50
-63
-74
-94
-109
-108
-98
-83
-65
-53
-55
-63
-72
-94
-106
-109
-99
-86
-63
-51
-55
-70
-83
-105
-114
-115
-105
-93
-64
-47
-39
-36
-37
-45
-41
-20
16
56
96
112
106
81
55
15
-11
-26
-40
-57
-61
-72
-83
-89
-101
-117
-124
-111
-92
-76
-53
-43
-47
-65
-79
-95
-104
-99
-86
-71
-52
-45
-50
-61
-79
-96
-101
-94
-83
-67
-50
-37
-44
-58
-75
-92
-100
-93
-80
-61
-46
-38
-44
-55
-74
-89
-95
-85
-77
-56
-42
-35
-42
-56
-72
-87
-91
-81
-68
-49
-36
-30
-40
-52
-67
-84
-84
-75
-65
-42
-30
-23
-33
-43
-62
-73
-76
-61
-51
-29
-16
-12
-19
-27
-46
-61
-60
-48
-36
-12
3
6
-4
-14
-35
-49
-49
-35
-24
-1
9
17
3
-10
-31
-44
-44
-33
-24
2
7
5
-8
-23
-45
-57
-61
-52
-46
-19
-14
-18
-33
-47
-72
-84
-81
-69
-58
-42
-33
-37
-48
-64
-88
-95
-93
-82
-69
-48
-43
-48
-58
-75
-94
-101
-99
-88
-75
-55
-46
-49
-59
-76
-98
-107
-101
-87
-74
-56
-46
-51
-66
-79
-95
-104
-99
-87
-73
-49
-45
-55
-64
-77
-97
-102
-96
-82
-62
-50
-43
-50
-61
-79
-96
-101
-96
-83
-65
-49
-43
-50
-60
-82
-93
-99
-92
-82
-59
-46
-42
-48
-61
-81
-95
-100
-92
-82
-61
-47
-44
-51
-65
-85
-99
-102
-93
-83
-63
-48
-44
-56
-66
-88
-102
-107
-84
-82
-60
-46
-45
-57
-66
-87
-100
-102
-92
-83
-61
-49
-47
-59
-68
-91
-103
-103
-94
-83
-58
-48
-47
-60
-71
-93
-100
-103
-93
-84
-60
-45
-46
-63
-74
-94
-106
-104
-94
-82
-60
-49
-51
-62
-74
-93
-100
-99
-87
-74
-53
-42
-48
-62
-67
-91
-100
-98
-87
-71
-50
-37
-39
-54
-63
-85
-95
-90
-77
-62
-44
-34
-41
-53
-70
-89
-100
-95
-83
-71
-55
-48
-54
-67
-83
-99
-107
-102
-92
-71
-55
-48
-56
-69
-86
-105
-109
-104
-94
-76
-60
-53
-57
-71
-91
-108
-111
-103
-92
-73
-60
-52
-62
-71
-91
-107
-113
-105
-92
-73
-61
-52
-63
-74
-96
-111
-117
-106
-97
-77
-63
-58
-71
-87
-106
-116
-104
-83
-59
-21
6
21
25
44
44
56
57
63
63
72
66
50
17
-20
-72
-112
-133
-126
-107
-81
-66
-60
-65
-68
-92
-103
-104
-94
-85
-62
-49
-50
-60
-71
-93
-108
-102
-90
-78
-55
-46
-46
-58
-69
-92
-103
-100
-88
-74
-55
-42
-44
-57
-65
-87
-98
-96
-84
-69
-49
-40
-43
-55
-66
-88
-97
-94
-78
-64
-44
-37
-41
-51
-66
-86
-93
-88
-76
-59
-40
-27
-35
-47
-62
-80
-87
-81
-67
-48
-29
-22
-29
-39
-48
-64
-74
-64
-52
-33
-15
-5
-7
-17
-35
-53
-58
-48
-33
-16
-1
6
1
-8
-27
-41
-46
-38
-27
-6
10
13
3
-7
-29
-47
-52
-42
-31
-15
-5
-3
-16
-28
-50
-68
-75
-64
-57
-38
-28
-26
-38
-49
-70
-88
-93
-85
-74
-54
-39
-40
-48
-63
-87
-94
-99
-91
-80
-58
-47
-46
-59
-68
-91
-103
-104
-96
-82
-61
-50
-49
-58
-71
-95
-105
-104
-94
-83
-61
-46
-47
-61
-74
-97
-108
-109
-94
-79
-59
-48
-48
-59
-71
-94
-105
-101
-90
-78
-57
-46
-49
-64
-75
-97
-107
-101
-87
-75
-54
-46
-45
-59
-75
-98
-104
-98
-84
-72
-53
-45
-48
-62
-77
-96
-104
-98
-84
-70
-52
-44
-51
-63
-79
-94
-105
-100
-87
-69
-51
-45
-49
-61
-80
-100
-106
-98
-87
-69
-53
-45
-53
-65
-84
-103
-110
-100
-88
-71
-51
-45
-55
-65
-84
-100
-106
-100
-89
-69
-51
-51
-59
-67
-91
-104
-106
-97
-87
-66
-52
-47
-56
-64
-85
-99
-103
-95
-83
-58
-45
-43
-52
-64
-85
-99
-100
-91
-79
-56
-41
-38
-49
-60
-80
-93
-93
-80
-69
-49
-37
-38
-49
-62
-85
-96
-98
-91
-83
-59
-44
-49
-65
-75
-99
-112
-100
-93
-85
-62
-51
-54
-65
-78
-101
-111
-109
-95
-86
-62
-50
-55
-68
-83
-104
-113
-110
-99
-84
-66
-55
-58
-71
-83
-105
-114
-111
-99
-88
-60
-54
-60
-71
-84
-107
-114
-111
-99
-87
-68
-60
-67
-83
-97
-110
-107
-91
-58
-34
-2
20
30
40
55
59
58
59
61
64
64
52
26
-15
-61
-106
-133
-133
-114
-90
-68
-58
-65
-69
-85
-102
-106
-98
-89
-70
-55
-50
-60
-70
-89
-103
-109
-99
-89
-66
-52
-48
-57
-64
-88
-103
-106
-96
-83
-64
-47
-43
-53
-66
-84
-101
-96
-92
-79
-56
-45
-43
-53
-64
-85
-99
-96
-86
-77
-50
-40
-38
-48
-59
-82
-96
-96
-77
-72
-47
-36
-33
-45
-56
-79
-87
-87
-69
-59
-37
-24
-24
-36
-44
-65
-74
-73
-58
-44
-21
-7
-9
-21
-33
-49
-56
-55
-43
-32
2
9
5
-7
-19
-39
-49
-48
-34
-22
0
11
3
-9
-24
-45
-57
-53
-44
-31
-13
-6
-13
-30
-45
-69
-77
-72
-67
-52
-35
-28
-37
-50
-68
-88
-99
-95
-85
-69
-49
-44
-51
-63
-80
-98
-109
-103
-90
-73
-57
-51
-60
-70
-92
-107
-116
-99
-92
-75
-58
-51
-58
-71
-89
-109
-112
-102
-92
-73
-57
-54
-62
-73
-93
-110
-113
-99
-89
-70
-58
-53
-57
-71
-91
-105
-108
-100
-87
-67
-54
-51
-61
-72
-94
-106
-109
-99
-86
-66
-54
-51
-61
-73
-94
-108
-111
-98
-85
-62
-52
-47
-58
-70
-94
-110
-107
-97
-86
-65
-52
-53
-64
-79
-95
-105
-109
-97
-87
-60
-51
-54
-64
-76
-98
-110
-109
-98
-85
-64
-54
-55
-66
-80
-103
-115
-112
-98
-85
-62
-52
-56
-70
-85
-105
-113
-110
-96
-84
-63
-55
-56
-71
-83
-106
-112
-106
-94
-82
-57
-51
-56
-64
-77
-98
-105
-99
-87
-72
-54
-46
-53
-64
-80
-95
-104
-95
-83
-67
-48
-42
-46
-60
-77
-94
-98
-96
-82
-64
-51
-47
-53
-68
-88
-105
-111
-104
-94
-72
-59
-53
-61
-73
-95
-111
-112
-103
-88
-72
-60
-57
-65
-76
-98
-111
-115
-105
-96
-72
-61
-58
-67
-81
-102
-113
-116
-106
-92
-73
-59
-57
-68
-78
-101
-114
-118
-108
-92
-74
-62
-60
-73
-86
-107
-119
-126
-113
-103
-81
-65
-56
-56
-53
-67
-68
-53
-22
11
58
95
108
95
75
39
13
-4
-15
-22
-30
-50
-72
-95
-110
-124
-131
-125
-109
-90
-64
-54
-51
-64
-77
-100
-110
-107
-96
-83
-57
-48
-50
-63
-78
-96
-105
-101
-88
-76
-55
-47
-52
-65
-80
-99
-103
-99
-88
-72
-53
-45
-47
-58
-76
-94
-100
-94
-82
-66
-48
-43
-50
-56
-74
-95
-97
-90
-79
-60
-44
-35
-42
-53
-73
-88
-92
-86
-72
-53
-37
-29
-37
-45
-67
-83
-90
-68
-60
-37
-24
-20
-25
-34
-51
-65
-69
-57
-46
-24
-8
-3
-10
-19
-38
-53
-55
-43
-33
-10
1
6
-1
-10
-33
-48
-51
-40
-30
-10
-1
2
-10
-21
-44
-60
-65
-57
-47
-28
-18
-21
-32
-45
-70
-86
-90
-80
-70
-49
-40
-38
-53
-68
-84
-101
-100
-92
-81
-55
-47
-47
-60
-72
-98
-108
-108
-95
-87
-63
-51
-55
-67
-81
-103
-112
-110
-96
-84
-62
-53
-57
-69
-81
-103
-112
-110
-98
-87
-66
-54
-56
-67
-84
-103
-112
-108
-96
-77
-59
-52
-54
-70
-83
-102
-112
-107
-94
-78
-60
-44
-57
-69
-85
-99
-103
-102
-91
-74
-54
-47
-54
-66
-84
-102
-106
-101
-88
-71
-56
-50
-56
-70
-89
-106
-108
-103
-91
-71
-55
-47
-60
-70
-90
-107
-111
-102
-89
-69
-57
-52
-61
-72
-94
-106
-110
-102
-90
-68
-56
-54
-65
-74
-95
-109
-113
-106
-94
-71
-58
-55
-64
-76
-98
-110
-114
-103
-90
-69
-57
-56
-69
-79
-98
-108
-110
-99
-91
-68
-57
-58
-66
-77
-100
-111
-113
-99
-90
-66
-56
-56
-66
-78
-101
-112
-112
-98
-85
-62
-51
-52
-65
-75
-94
-106
-103
-91
-77
-58
-46
-51
-64
-77
-95
-98
-98
-86
-72
-50
-38
-44
-57
-72
-89
-95
-93
-85
-63
-48
-44
-48
-62
-77
-99
-109
-107
-95
-80
-60
-53
-58
-69
-87
-107
-115
-109
-98
-81
-63
-55
-63
-75
-93
-107
-114
-110
-97
-80
-65
-60
-66
-73
-92
-109
-118
-108
-100
-82
-62
-57
-63
-77
-94
-109
-116
-108
-98
-79
-64
-58
-67
-80
-102
-119
-124
-118
-105
-88
-68
-53
-47
-52
-61
-61
-51
-31
4
47
89
115
102
89
54
27
4
-6
-19
-26
-43
-61
-89
-101
-113
-125
-123
-108
-94
-70
-55
-52
-63
-73
-97
-113
-111
-103
-89
-67
-56
-51
-63
-74
-98
-108
-107
-99
-85
-61
-49
-51
-65
-79
-91
-107
-107
-93
-82
-59
-48
-46
-60
-73
-95
-106
-103
-88
-75
-58
-46
-44
-57
-72
-95
-100
-98
-84
-71
-50
-39
-43
-57
-69
-88
-95
-93
-81
-62
-40
-34
-38
-49
-61
-80
-88
-83
-65
-49
-30
-21
-25
-34
-50
-67
-72
-64
-50
-31
-13
-5
-12
-23
-29
-48
-54
-46
-35
-16
0
7
1
-7
-26
-47
-54
-47
-35
-17
3
5
-5
-15
-37
-55
-64
-59
-49
-31
-22
-19
-30
-42
-64
-81
-85
-80
-71
-52
-41
-39
-49
-60
-82
-100
-106
-95
-83
-60
-49
-46
-57
-70
-94
-105
-108
-99
-88
-65
-52
-50
-62
-71
-97
-108
-105
-97
-88
-64
-51
-52
-63
-72
-96
-109
-110
-102
-83
-64
-53
-51
-62
-71
-96
-105
-107
-97
-87
-59
-50
-47
-61
-72
-97
-107
-106
-94
-84
-59
-50
-51
-61
-75
-97
-107
-105
-92
-79
-58
-48
-50
-62
-74
-96
-106
-105
-90
-76
-60
-50
-52
-63
-77
-97
-106
-102
-91
-75
-55
-46
-52
-67
-83
-98
-110
-105
-92
-75
-57
-49
-56
-67
-82
-101
-111
-103
-92
-70
-58
-52
-56
-68
-85
-100
-112
-105
-92
-72
-57
-50
-60
-69
-88
-105
-110
-100
-90
-73
-59
-52
-61
-71
-90
-105
-109
-104
-93
-68
-57
-54
-62
-73
-95
-111
-109
-102
-89
-71
-56
-53
-62
-73
-94
-107
-111
-100
-89
-69
-54
-50
-62
-73
-93
-106
-107
-95
-85
-65
-52
-48
-58
-70
-92
-106
-108
-95
-86
-57
-48
-45
-56
-64
-87
-99
-99
-87
-77
-52
-41
-41
-52
-65
-90
-99
-100
-89
-77
-58
-51
-52
-70
-84
-103
-117
-107
-98
-84
-64
-54
-56
-68
-82
-105
-114
-112
-98
-84
-62
-54
-59
-72
-84
-106
-116
-114
-103
-88
-66
-56
-62
-73
-87
-110
-116
-111
-99
-84
-65
-60
-62
-74
-87
-110
-117
-111
-102
-84
-72
-63
-68
-77
-98
-118
-127
-119
-101
-77
-50
-30
-27
-26
-27
-29
-14
14
52
93
111
113
89
62
26
-11
-42
-62
-81
-86
-83
-78
-81
-88
-107
-116
-114
-101
-90
-68
-54
-51
-62
-72
-92
-106
-110
-98
-84
-65
-52
-43
-55
-66
-89
-103
-106
-96
-85
-63
-48
-45
-54
-65
-89
-99
-102
-90
-79
-56
-49
-49
-52
-59
-82
-96
-95
-83
-71
-51
-40
-41
-51
-55
-81
-94
-94
-81
-70
-47
-36
-35
-45
-57
-79
-90
-89
-73
-63
-40
-28
-28
-39
-49
-70
-80
-76
-62
-49
-27
-11
-14
-25
-34
-54
-61
-58
-44
-26
-3
4
3
-8
-20
-40
-46
-44
-32
-16
7
16
13
0
-16
-40
-44
-42
-30
-15
1
6
4
-12
-31
-52
-66
-58
-51
-35
-19
-15
-24
-39
-57
-77
-86
-80
-70
-54
-41
-36
-47
-60
-78
-93
-98
-94
-83
-64
-49
-43
-52
-65
-85
-99
-105
-97
-85
-67
-51
-46
-59
-69
-87
-103
-106
-98
-87
-67
-54
-47
-59
-70
-89
-103
-106
-97
-85
-64
-51
-47
-56
-70
-93
-103
-110
-92
-84
-62
-49
-47
-59
-68
-90
-103
-105
-91
-82
-58
-45
-44
-57
-66
-88
-101
-102
-90
-81
-57
-45
-45
-56
-69
-91
-101
-103
-88
-78
-55
-45
-48
-53
-66
-90
-99
-99
-86
-77
-53
-40
-46
-57
-69
-95
-103
-100
-90
-75
-49
-41
-46
-58
-75
-93
-102
-102
-84
-72
-51
-42
-49
-60
-74
-98
-104
-100
-87
-73
-55
-46
-50
-62
-79
-99
-106
-101
-91
-72
-50
-46
-52
-61
-78
-100
-109
-98
-89
-71
-52
-42
-53
-66
-81
-99
-105
-100
-83
-67
-52
-45
-54
-66
-88
-99
-106
-99
-88
-71
-55
-49
-55
-63
-84
-97
-103
-91
-81
-62
-49
-42
-51
-61
-82
-96
-101
-89
-77
-56
-41
-34
-42
-52
-75
-87
-89
-82
-70
-48
-35
-32
-43
-57
-75
-92
-95
-85
-73
-53
-44
-42
-57
-69
-90
-104
-106
-93
-82
-60
-47
-46
-60
-69
-94
-106
-104
-95
-86
-59
-51
-51
-64
-71
-95
-106
-106
-95
-84
-62
-51
-52
-62
-76
-97
-109
-108
-94
-82
-61
-48
-52
-64
-76
-99
-109
-106
-92
-82
-61
-53
-58
-72
-87
-111
-119
-111
-99
-81
-52
-32
-26
-27
-30
-31
-27
3
42
78
108
116
99
74
40
2
-28
-43
-65
-74
-78
-80
-81
-87
-101
-114
-114
-101
-87
-69
-49
-42
-51
-64
-83
-96
-105
-97
-84
-62
-48
-44
-51
-59
-80
-96
-100
-93
-81
-60
-43
-37
-48
-59
-79
-91
-99
-91
-78
-58
-42
-39
-47
-57
-77
-90
-93
-85
-72
-52
-37
-35
-42
-53
-73
-86
-91
-78
-68
-47
-33
-30
-39
-52
-71
-83
-83
-74
-58
-36
-26
-21
-31
-42
-64
-73
-76
-61
-50
-25
-9
-11
-16
-28
-47
-59
-58
-45
-33
-6
4
6
-5
-15
-35
-46
-45
-32
-15
8
17
15
3
-9
-31
-43
-39
-29
-17
3
14
6
-7
-22
-46
-55
-56
-46
-35
-17
-10
-18
-33
-49
-68
-81
-80
-69
-52
-35
-29
-35
-42
-63
-85
-94
-89
-78
-64
-46
-38
-43
-56
-75
-92
-100
-94
-82
-65
-48
-42
-49
-61
-79
-95
-102
-95
-85
-68
-47
-43
-50
-61
-80
-96
-103
-94
-84
-63
-47
-42
-52
-63
-82
-96
-102
-93
-79
-59
-46
-42
-51
-62
-76
-94
-99
-91
-78
-55
-40
-38
-44
-57
-79
-92
-96
-88
-74
-50
-37
-37
-46
-57
-81
-92
-94
-85
-76
-53
-40
-38
-48
-61
-84
-94
-93
-85
-75
-52
-38
-39
-50
-62
-83
-99
-92
-84
-73
-50
-40
-40
-51
-63
-88
-97
-97
-85
-75
-52
-43
-41
-54
-68
-87
-100
-100
-89
-70
-50
-41
-44
-55
-70
-92
-102
-94
-85
-72
-48
-41
-48
-57
-71
-94
-101
-100
-89
-71
-46
-41
-44
-57
-72
-92
-101
-97
-82
-69
-51
-46
-44
-59
-72
-92
-102
-95
-81
-68
-49
-41
-49
-60
-79
-96
-100
-94
-85
-66
-50
-43
-49
-60
-80
-95
-101
-93
-79
-63
-49
-41
-49
-60
-81
-91
-95
-90
-79
-62
-48
-40
-49
-58
-77
-94
-100
-91
-81
-57
-42
-37
-46
-56
-77
-93
-92
-83
-71
-52
-39
-34
-47
-56
-79
-91
-93
-81
-69
-45
-31
-29
-39
-51
-69
-84
-86
-75
-63
-42
-29
-27
-41
-53
-77
-91
-92
-83
-74
-52
-40
-42
-54
-64
-87
-99
-99
-88
-77
-55
-40
-42
-55
-65
-89
-101
-100
-89
-79
-56
-46
-49
-54
-72
-95
-101
-99
-84
-77
-50
-42
-47
-56
-68
-92
-102
-97
-86
-75
-52
-42
-46
-60
-73
-94
-104
-102
-91
-77
-57
-49
-57
-70
-83
-97
-95
-78
-53
-28
7
30
43
54
60
68
69
70
74
79
79
66
38
-2
-37
-88
-116
-118
-102
-78
-59
-46
-47
-55
-71
-88
-95
-88
-77
-56
-44
-38
-46
-58
-74
-89
-96
-87
-76
-55
-39
-34
-39
-53
-73
-86
-92
-83
-70
-51
-36
-31
-39
-50
-72
-86
-89
-79
-67
-45
-32
-27
-40
-52
-67
-80
-86
-74
-61
-40
-28
-24
-37
-47
-66
-79
-81
-68
-59
-36
-22
-20
-32
-41
-63
-74
-73
-61
-49
-25
-12
-11
-20
-29
-54
-65
-60
-46
-32
-9
2
4
-5
-12
-35
-47
-45
-26
-14
12
23
21
10
-1
-22
-33
-29
-17
-4
18
27
25
13
1
-24
-35
-30
-21
-10
8
15
7
-3
-19
-46
-56
-54
-45
-33
-15
-9
-13
-28
-46
-68
-79
-75
-63
-49
-31
-25
-33
-43
-58
-81
-86
-83
-69
-53
-37
-31
-40
-53
-70
-83
-91
-85
-74
-58
-40
-34
-44
-50
-72
-88
-93
-87
-76
-57
-41
-37
-42
-52
-73
-89
-92
-84
-72
-52
-39
-34
-44
-52
-73
-88
-93
-83
-72
-50
-37
-33
-43
-53
-74
-85
-88
-77
-67
-45
-33
-31
-41
-49
-75
-88
-91
-78
-68
-47
-35
-33
-45
-57
-75
-90
-86
-77
-67
-46
-30
-31
-42
-57
-78
-89
-90
-79
-66
-41
-30
-30
-44
-57
-77
-89
-89
-77
-65
-44
-34
-36
-49
-56
-80
-92
-86
-75
-64
-40
-32
-34
-47
-60
-82
-92
-90
-78
-63
-42
-36
-42
-49
-63
-84
-93
-89
-79
-67
-38
-35
-39
-49
-66
-86
-95
-89
-81
-64
-44
-34
-39
-51
-67
-87
-94
-86
-76
-61
-41
-33
-40
-50
-67
-83
-93
-84
-73
-55
-40
-33
-41
-54
-73
-88
-94
-88
-72
-56
-39
-33
-41
-53
-72
-88
-96
-83
-73
-55
-39
-33
-43
-54
-78
-84
-93
-83
-71
-51
-37
-34
-44
-57
-76
-88
-91
-83
-72
-51
-36
-34
-44
-55
-75
-87
-87
-75
-60
-43
-30
-26
-37
-47
-72
-84
-86
-73
-66
-42
-30
-26
-34
-42
-66
-77
-76
-65
-54
-33
-21
-20
-31
-38
-64
-77
-78
-68
-59
-37
-28
-30
-42
-57
-80
-91
-90
-79
-66
-42
-33
-33
-46
-59
-86
-95
-93
-79
-57
-40
-36
-39
-48
-63
-86
-94
-91
-79
-65
-43
-36
-43
-49
-67
-87
-92
-89
-78
-62
-43
-35
-41
-52
-69
-89
-98
-90
-77
-64
-46
-40
-45
-59
-76
-98
-104
-99
-84
-58
-28
-7
-6
-3
-5
-13
3
32
70
117
131
132
110
86
46
11
-17
-37
-55
-67
-69
-60
-59
-69
-83
-94
-95
-82
-70
-47
-33
-28
-38
-50
-70
-82
-87
-79
-69
-47
-31
-27
-37
-46
-70
-83
-87
-75
-66
-43
-26
-26
-35
-45
-68
-82
-85
-76
-54
-37
-23
-21
-33
-44
-66
-79
-80
-69
-61
-37
-23
-21
-33
-44
-65
-78
-75
-67
-55
-33
-20
-19
-28
-37
-59
-71
-71
-57
-44
-19
-11
-10
-23
-33
-52
-64
-60
-47
-34
-11
0
2
-8
-17
-39
-47
-43
-30
-12
7
19
19
8
-6
-26
-38
-27
-10
3
23
30
30
15
4
-19
-31
-26
-15
-2
19
32
22
5
-12
-28
-40
-39
-31
-16
2
7
-2
-17
-35
-56
-67
-61
-53
-36
-19
-16
-24
-38
-59
-75
-81
-74
-65
-48
-32
-29
-36
-48
-67
-82
-88
-81
-70
-51
-36
-31
-41
-52
-73
-87
-92
-83
-74
-50
-36
-35
-41
-52
-74
-87
-89
-80
-68
-48
-33
-30
-39
-50
-73
-86
-90
-82
-69
-43
-32
-29
-40
-50
-73
-85
-88
-77
-67
-45
-31
-30
-38
-47
-71
-83
-87
-76
-65
-40
-29
-29
-41
-54
-77
-88
-87
-74
-65
-41
-29
-30
-40
-53
-75
-87
-86
-75
-62
-40
-31
-32
-45
-57
-79
-89
-88
-77
-64
-38
-26
-32
-45
-60
-80
-87
-88
-76
-62
-40
-30
-33
-48
-62
-83
-92
-89
-74
-62
-40
-31
-38
-50
-63
-82
-91
-88
-73
-61
-39
-34
-40
-51
-67
-84
-93
-85
-74
-58
-41
-35
-41
-52
-69
-85
-91
-84
-72
-56
-42
-35
-39
-53
-72
-89
-95
-86
-75
-57
-34
-32
-43
-53
-74
-88
-93
-87
-75
-53
-40
-34
-46
-57
-74
-93
-98
-82
-73
-54
-40
-36
-46
-58
-77
-92
-95
-86
-74
-53
-39
-35
-45
-55
-77
-87
-91
-80
-69
-50
-31
-28
-40
-51
-71
-84
-83
-71
-62
-41
-27
-27
-37
-45
-65
-78
-79
-67
-57
-35
-25
-17
-33
-46
-67
-79
-81
-68
-60
-42
-31
-34
-47
-61
-84
-93
-93
-81
-70
-46
-37
-38
-52
-64
-85
-96
-96
-84
-70
-47
-40
-43
-55
-63
-89
-99
-95
-83
-69
-47
-39
-43
-57
-69
-92
-98
-92
-83
-65
-46
-38
-43
-56
-70
-92
-98
-93
-82
-67
-50
-44
-51
-64
-80
-96
-99
-81
-56
-26
3
20
29
35
42
46
55
68
74
82
83
68
39
11
-31
-75
-102
-115
-108
-84
-63
-54
-60
-64
-77
-90
-94
-84
-70
-54
-36
-32
-42
-51
-73
-83
-90
-78
-68
-47
-34
-30
-38
-51
-72
-85
-85
-76
-64
-45
-32
-25
-35
-49
-70
-85
-86
-73
-59
-40
-26
-25
-36
-47
-69
-78
-79
-68
-59
-33
-21
-21
-33
-45
-69
-76
-75
-62
-51
-29
-16
-14
-28
-40
-59
-72
-69
-55
-42
-19
-6
-6
-18
-31
-53
-53
-53
-41
-28
-6
9
7
-1
-13
-33
-39
-38
-24
-9
17
27
24
11
-1
-20
-31
-20
-11
4
26
32
27
14
-1
-19
-28
-26
-13
0
16
22
16
3
-17
-40
-51
-47
-38
-22
-7
-2
-12
-26
-44
-64
-75
-69
-58
-41
-25
-21
-28
-41
-62
-80
-87
-76
-67
-52
-29
-26
-36
-47
-67
-84
-89
-82
-69
-51
-37
-33
-42
-50
-73
-84
-91
-80
-70
-50
-36
-34
-41
-52
-71
-83
-87
-79
-69
-47
-35
-30
-41
-51
-73
-87
-90
-80
-68
-44
-32
-29
-41
-51
-73
-84
-86
-75
-63
-44
-30
-30
-42
-50
-72
-83
-88
-78
-66
-42
-17
-25
-41
-47
-75
-87
-86
-74
-60
-40
-30
-30
-38
-53
-74
-85
-86
-73
-62
-39
-30
-34
-45
-58
-79
-90
-86
-74
-62
-40
-33
-35
-46
-60
-82
-91
-87
-72
-61
-40
-33
-37
-44
-61
-83
-93
-85
-75
-60
-39
-31
-34
-48
-67
-86
-92
-89
-73
-59
-39
-31
-37
-50
-66
-86
-93
-86
-71
-57
-40
-26
-37
-48
-65
-83
-91
-84
-72
-53
-37
-32
-39
-50
-70
-85
-90
-82
-71
-52
-37
-31
-39
-50
-73
-88
-92
-81
-63
-44
-33
-26
-36
-46
-69
-81
-84
-77
-65
-44
-32
-27
-39
-46
-67
-78
-79
-70
-58
-36
-22
-20
-30
-39
-59
-71
-77
-66
-55
-33
-21
-22
-34
-45
-70
-85
-90
-80
-70
-48
-35
-36
-46
-55
-80
-93
-89
-76
-68
-46
-36
-37
-47
-59
-82
-92
-94
-82
-70
-47
-37
-40
-53
-66
-86
-99
-91
-82
-66
-45
-38
-40
-52
-64
-86
-95
-94
-80
-69
-44
-36
-41
-54
-71
-91
-101
-97
-89
-76
-51
-36
-29
-29
-34
-41
-36
-20
12
51
94
130
127
110
81
45
20
7
-4
-10
-23
-43
-66
-83
-94
-106
-108
-96
-79
-58
-37
-27
-34
-47
-66
-82
-89
-82
-69
-53
-35
-29
-38
-44
-64
-81
-89
-79
-66
-50
-33
-25
-35
-44
-65
-82
-88
-80
-64
-43
-29
-25
-36
-44
-66
-83
-84
-73
-62
-41
-27
-22
-34
-44
-59
-76
-79
-68
-55
-33
-22
-19
-31
-41
-59
-74
-73
-60
-49
-27
-13
-11
-23
-31
-54
-68
-67
-54
-40
-16
-2
-2
-13
-21
-39
-50
-51
-37
-24
2
14
15
6
-4
-26
-35
-32
-18
-8
14
28
33
19
8
-18
-29
-27
-14
-4
19
26
23
10
1
-23
-38
-38
-29
-16
8
10
3
-14
-31
-52
-61
-61
-53
-38
-19
-14
-20
-35
-47
-71
-81
-74
-64
-51
-32
-22
-31
-43
-60
-80
-88
-81
-69
-52
-36
-30
-37
-48
-67
-81
-88
-84
-71
-54
-38
-34
-43
-48
-62
-84
-87
-80
-70
-50
-36
-31
-35
-47
-66
-81
-88
-81
-68
-49
-33
-30
-37
-45
-66
-82
-87
-78
-66
-44
-31
-28
-35
-46
-69
-82
-87
-78
-68
-44
-29
-26
-37
-49
-73
-88
-88
-73
-63
-41
-29
-27
-38
-47
-69
-84
-84
-75
-64
-41
-29
-26
-40
-47
-74
-83
-87
-73
-62
-42
-29
-29
-42
-54
-77
-89
-89
-79
-64
-39
-30
-28
-42
-54
-77
-87
-86
-75
-66
-40
-28
-31
-46
-56
-79
-90
-86
-76
-62
-41
-31
-32
-47
-61
-83
-92
-88
-74
-63
-38
-31
-38
-51
-63
-82
-90
-85
-73
-59
-39
-32
-35
-49
-66
-86
-94
-83
-74
-58
-42
-34
-39
-49
-63
-84
-88
-82
-72
-55
-37
-28
-36
-49
-63
-81
-88
-80
-68
-50
-33
-27
-33
-45
-64
-82
-86
-74
-62
-43
-28
-19
-25
-37
-58
-73
-78
-68
-56
-35
-24
-21
-33
-45
-64
-82
-80
-77
-69
-48
-35
-35
-43
-52
-74
-89
-90
-81
-71
-50
-39
-38
-49
-54
-80
-88
-92
-83
-75
-52
-41
-39
-50
-56
-81
-95
-99
-85
-71
-50
-40
-39
-49
-61
-84
-96
-96
-84
-75
-49
-38
-38
-52
-64
-87
-100
-99
-86
-77
-57
-49
-51
-57
-63
-72
-70
-52
-31
-4
35
65
87
101
106
80
65
53
52
44
48
39
2
-41
-80
-117
-123
-109
-96
-76
-47
-34
-35
-48
-58
-80
-87
-86
-73
-58
-39
-31
-36
-45
-64
-84
-90
-83
-71
-54
-35
-26
-31
-45
-59
-80
-86
-80
-69
-51
-34
-20
-33
-45
-63
-78
-84
-76
-67
-47
-31
-24
-30
-39
-59
-74
-80
-72
-58
-39
-24
-20
-29
-37
-54
-70
-74
-66
-51
-30
-16
-11
-22
-32
-53
-65
-69
-57
-47
-22
-8
-3
-11
-19
-40
-52
-55
-42
-30
-8
9
14
3
-6
-27
-31
-35
-22
-12
13
24
27
17
8
-15
-29
-28
-13
-4
20
30
33
20
6
-17
-29
-32
-21
-12
9
19
14
-2
-17
-43
-55
-55
-44
-36
-18
-10
-13
-26
-39
-65
-75
-76
-65
-55
-36
-19
-26
-41
-54
-77
-85
-85
-70
-59
-38
-29
-33
-45
-60
-82
-90
-85
-74
-60
-40
-32
-39
-47
-66
-86
-89
-81
-74
-60
-39
-30
-37
-49
-66
-82
-89
-83
-71
-56
-36
-31
-39
-50
-65
-84
-93
-83
-72
-55
-37
-30
-36
-50
-68
-84
-87
-80
-71
-50
-35
-30
-39
-49
-69
-84
-86
-80
-71
-48
-34
-28
-40
-53
-73
-85
-89
-80
-70
-50
-38
-32
-37
-51
-73
-87
-90
-77
-67
-46
-34
-30
-42
-51
-75
-86
-86
-76
-69
-46
-32
-32
-44
-53
-74
-86
-88
-79
-69
-45
-32
-33
-43
-54
-77
-90
-90
-80
-69
-46
-35
-33
-45
-57
-81
-90
-89
-81
-63
-46
-32
-33
-47
-59
-81
-94
-93
-79
-61
-41
-32
-36
-50
-61
-83
-92
-89
-76
-64
-41
-33
-38
-47
-60
-83
-90
-84
-72
-58
-38
-31
-33
-46
-59
-77
-84
-82
-69
-55
-36
-26
-30
-44
-56
-75
-79
-73
-62
-47
-29
-17
-23
-36
-56
-75
-80
-69
-60
-48
-32
-25
-36
-51
-68
-86
-89
-85
-73
-54
-37
-33
-40
-53
-73
-88
-95
-88
-76
-55
-39
-34
-45
-58
-76
-91
-95
-87
-76
-56
-43
-37
-47
-58
-78
-94
-95
-86
-76
-56
-44
-39
-48
-60
-79
-95
-97
-86
-75
-55
-42
-43
-54
-64
-89
-103
-104
-90
-68
-37
-10
0
1
7
-2
8
33
65
93
113
118
103
76
45
2
-30
-59
-73
-89
-74
-64
-61
-65
-73
-91
-96
-92
-77
-64
-40
-30
-34
-46
-57
-85
-94
-93
-77
-58
-36
-29
-30
-43
-58
-79
-87
-86
-75
-58
-35
-27
-29
-42
-57
-77
-86
-81
-67
-51
-32
-24
-30
-40
-57
-74
-84
-76
-64
-49
-28
-22
-24
-35
-54
-71
-80
-74
-60
-44
-22
-14
-21
-33
-47
-65
-72
-64
-51
-31
-17
-9
-15
-25
-42
-56
-62
-53
-39
-19
-4
5
-2
-12
-30
-43
-48
-37
-24
-3
16
19
9
0
-19
-30
-32
-22
-6
15
26
28
19
8
-13
-28
-30
-22
-9
12
21
22
8
-4
-22
-40
-46
-38
-31
-11
1
-2
-12
-25
-50
-65
-71
-59
-50
-31
-20
-20
-34
-44
-68
-82
-84
-71
-63
-41
-27
-27
-42
-54
-77
-86
-86
-73
-64
-42
-32
-33
-45
-57
-82
-92
-89
-79
-66
-43
-35
-30
-44
-59
-78
-90
-90
-79
-56
-38
-29
-33
-42
-58
-79
-87
-86
-73
-59
-37
-28
-32
-43
-57
-79
-86
-77
-71
-56
-36
-24
-30
-44
-60
-79
-86
-81
-67
-53
-34
-25
-32
-43
-61
-77
-88
-81
-68
-49
-32
-27
-36
-47
-60
-83
-84
-79
-65
-47
-33
-27
-36
-48
-67
-81
-88
-79
-71
-51
-32
-29
-36
-48
-70
-83
-90
-82
-70
-49
-30
-28
-39
-51
-72
-84
-90
-81
-70
-46
-35
-32
-41
-55
-74
-89
-87
-78
-66
-45
-33
-31
-41
-49
-70
-83
-86
-74
-61
-40
-28
-25
-35
-47
-68
-82
-83
-68
-58
-36
-24
-25
-32
-48
-65
-81
-78
-64
-49
-27
-15
-18
-32
-42
-64
-78
-77
-66
-56
-34
-28
-27
-43
-57
-82
-87
-87
-78
-63
-38
-32
-34
-45
-60
-83
-94
-88
-77
-62
-42
-33
-37
-50
-65
-84
-94
-89
-78
-63
-41
-34
-39
-48
-67
-87
-92
-89
-78
-58
-47
-35
-39
-49
-67
-86
-95
-87
-77
-62
-44
-37
-45
-59
-77
-96
-103
-90
-73
-41
-9
7
10
16
13
17
38
65
85
102
106
102
75
44
3
-33
-66
-83
-92
-80
-65
-54
-57
-64
-79
-90
-90
-80
-67
-46
-32
-30
-40
-52
-67
-85
-88
-81
-65
-46
-32
-24
-37
-47
-68
-82
-85
-74
-61
-38
-26
-24
-38
-44
-65
-77
-78
-68
-58
-35
-24
-19
-32
-43
-66
-76
-76
-65
-55
-27
-14
-17
-29
-41
-62
-74
-73
-62
-49
-25
-14
-14
-26
-35
-56
-69
-67
-50
-38
-16
-5
-5
-17
-28
-47
-57
-54
-39
-24
0
9
7
2
-12
-33
-38
-35
-25
-9
12
28
24
13
-2
-23
-28
-25
-9
6
24
32
28
15
-1
-22
-33
-24
-14
0
18
24
17
2
-17
-39
-46
-40
-34
-18
-1
1
-12
-26
-43
-65
-73
-69
-58
-41
-20
-19
-26
-41
-62
-76
-84
-78
-66
-49
-33
-29
-37
-45
-66
-82
-87
-78
-68
-47
-34
-30
-39
-49
-69
-81
-88
-80
-71
-53
-27
-29
-39
-52
-71
-87
-91
-81
-69
-47
-35
-32
-41
-50
-71
-87
-89
-77
-64
-40
-24
-25
-36
-46
-71
-85
-85
-76
-65
-43
-31
-30
-40
-49
-74
-82
-83
-73
-62
-33
-28
-26
-39
-52
-72
-85
-80
-69
-57
-38
-24
-26
-37
-51
-71
-85
-83
-70
-60
-37
-27
-32
-44
-57
-79
-88
-85
-73
-60
-35
-26
-31
-43
-55
-79
-89
-84
-73
-55
-34
-26
-33
-45
-59
-79
-84
-83
-70
-53
-35
-28
-35
-43
-59
-80
-86
-81
-70
-54
-37
-30
-39
-51
-65
-82
-86
-77
-67
-46
-31
-25
-31
-40
-59
-77
-81
-76
-65
-47
-28
-23
-32
-41
-60
-72
-77
-69
-56
-35
-20
-17
-25
-38
-58
-69
-75
-68
-60
-39
-25
-22
-27
-40
-62
-78
-82
-76
-65
-44
-30
-27
-39
-51
-74
-87
-91
-79
-65
-45
-34
-32
-44
-56
-78
-90
-93
-78
-70
-47
-37
-37
-51
-55
-77
-91
-91
-79
-67
-47
-34
-34
-44
-57
-79
-92
-93
-79
-69
-46
-37
-37
-47
-60
-85
-100
-100
-85
-74
-48
-25
-18
-19
-20
-31
-25
-9
27
64
101
128
118
99
72
35
8
-7
-17
-33
-36
-49
-61
-70
-80
-101
-104
-94
-78
-58
-32
-23
-32
-44
-61
-81
-88
-85
-75
-57
-35
-24
-32
-44
-61
-78
-84
-78
-64
-49
-32
-25
-30
-37
-57
-77
-82
-75
-62
-41
-26
-20
-28
-37
-54
-71
-79
-71
-61
-36
-23
-17
-25
-35
-56
-70
-76
-66
-53
-32
-19
-11
-19
-31
-51
-66
-70
-58
-46
-25
-8
-6
-15
-25
-45
-59
-60
-46
-35
-11
1
4
-2
-4
-32
-44
-44
-30
-18
7
21
25
15
4
-17
-28
-28
-18
-6
17
34
33
21
10
-13
-26
-26
-15
-2
19
30
29
13
3
-22
-37
-39
-30
-21
4
10
4
-11
-24
-47
-57
-58
-48
-37
-17
-11
-14
-29
-44
-67
-76
-76
-64
-50
-29
-19
-23
-34
-49
-72
-80
-76
-62
-53
-32
-25
-32
-42
-59
-81
-88
-81
-63
-53
-33
-27
-34
-46
-58
-80
-86
-82
-69
-53
-31
-24
-31
-44
-60
-75
-84
-74
-62
-45
-29
-23
-29
-39
-60
-75
-78
-74
-62
-43
-29
-24
-31
-39
-59
-75
-81
-70
-57
-38
-25
-18
-27
-41
-61
-76
-81
-69
-59
-38
-25
-22
-30
-42
-62
-75
-79
-70
-58
-37
-25
-21
-32
-36
-62
-79
-82
-71
-62
-38
-23
-23
-33
-44
-68
-78
-78
-70
-59
-36
-25
-23
-34
-46
-69
-80
-81
-70
-58
-35
-26
-24
-35
-46
-68
-84
-81
-69
-59
-36
-21
-22
-33
-42
-64
-76
-76
-66
-53
-30
-21
-20
-35
-49
-63
-81
-75
-60
-39
-21
-12
-14
-26
-38
-59
-70
-66
-55
-38
-18
-11
-14
-28
-46
-68
-80
-74
-64
-52
-32
-26
-31
-42
-57
-79
-87
-81
-69
