-1
5
5
0
1
4
1
-4
-4
-2
-2
1
6
-1
-1
2
-4
-5
-2
-2
-3
-1
3
5
4
4
-2
-4
0
1
-2
6
8
5
5
5
1
5
4
2
0
8
6
3
4
1
-4
-2
-2
1
3
10
8
9
8
10
0
0
2
2
2
6
3
0
1
5
1
2
-1
4
3
5
4
5
3
6
-2
-2
1
1
3
8
7
5
0
3
1
1
1
-1
-2
2
-1
1
3
4
1
2
2
0
-1
6
7
5
4
6
4
5
2
3
6
10
-1
-4
-5
0
-3
1
-1
-3
1
5
6
3
2
1
0
1
2
1
6
12
9
9
13
14
13
12
12
7
15
22
16
14
12
11
13
14
17
17
19
23
21
23
24
13
9
11
11
9
16
14
10
9
14
11
7
2
0
-2
-1
3
6
4
3
-8
-2
-4
-5
-5
4
4
-5
-5
-3
-1
-1
1
0
-7
1
4
6
2
-1
-6
-2
-1
0
-5
1
0
-2
-1
-1
-3
7
9
22
33
54
80
100
110
122
123
136
146
143
124
112
98
82
60
29
5
-4
-8
-6
-7
1
3
-1
-1
3
-2
-1
-6
-4
0
1
-1
-1
-3
-1
-4
-2
-2
-5
-1
3
2
1
3
-1
-6
0
0
-5
1
4
-1
-3
0
7
0
0
2
-2
1
7
7
6
6
1
-4
2
3
0
5
10
5
5
7
2
1
-1
-2
-1
5
10
9
7
8
3
2
5
7
3
12
13
9
11
10
5
7
10
10
8
15
19
18
20
24
15
10
13
18
20
25
26
25
24
27
21
22
27
27
24
32
35
33
32
35
29
27
27
29
30
30
34
36
30
31
28
26
28
26
22
26
24
26
18
14
11
15
13
12
9
13
12
9
9
10
1
5
4
3
1
4
3
3
-1
3
-5
-1
-1
0
1
5
1
0
3
7
-1
0
-4
-6
-2
4
0
-2
-4
-2
-6
-3
-3
-4
-3
-1
-2
-2
-2
-1
-10
-9
-1
-1
1
4
1
-2
-1
-4
-7
-4
-3
-7
-1
3
-3
-2
1
-2
-6
-5
-4
-2
4
6
4
3
2
-2
-6
-5
1
0
2
5
1
-3
1
3
1
3
0
-1
6
5
-1
0
3
-2
-4
0
2
-4
4
4
1
1
1
-2
-1
-3
-1
-2
5
6
4
2
3
-8
-6
-3
0
-2
3
3
3
2
3
-5
-8
-4
1
-2
6
2
0
-2
3
-2
-4
-3
-2
-4
1
1
1
-5
-4
-9
-4
-3
-3
-5
1
3
2
2
2
-5
-4
-5
-2
-4
2
-2
-4
-1
2
-6
-2
-5
-6
-2
7
6
5
3
7
3
5
10
11
9
18
16
17
15
8
4
5
7
6
10
18
17
18
19
14
12
15
13
7
9
12
11
6
6
7
4
-1
-4
-6
-4
-2
-7
-7
-2
-6
-10
-9
-7
-9
-5
-4
-3
-2
-5
-6
-9
-7
-8
-11
-5
0
-4
-9
-6
-11
-8
-3
-5
-9
-5
-5
-10
-9
-6
-8
-4
5
15
25
46
64
80
94
115
121
133
142
146
126
113
97
79
61
32
-7
-14
-7
-11
-17
-5
-3
-2
-5
-3
-6
-3
-7
-7
-6
-1
-5
-8
-9
-7
-13
-11
-6
-7
-8
-3
-4
-6
-6
-2
-5
-5
-7
-7
-4
3
2
1
-3
-4
-8
-7
-5
-8
-11
-3
-2
-3
-3
0
-7
-4
-3
-6
-2
5
3
0
1
1
-2
-2
-3
-1
0
7
2
4
2
-1
-5
-2
2
1
3
10
11
10
11
11
3
6
2
0
7
15
12
13
13
5
7
15
12
13
22
24
16
21
26
25
20
23
23
21
27
29
27
32
32
27
25
27
29
27
30
34
30
30
29
24
23
27
21
16
22
23
21
22
20
16
10
9
9
8
12
13
11
5
5
4
-2
2
3
-1
6
6
4
-2
-3
-5
-4
-4
-8
-6
-2
-1
-5
-5
1
-1
-7
-10
-4
-7
-2
-2
-2
-5
-2
-5
-8
-8
-6
-6
-3
-6
-6
-9
-9
-7
-7
-6
-2
-6
-2
-1
-2
-6
-5
-10
-5
-3
-4
-5
4
2
-1
-2
-4
-9
-5
-5
-7
-4
3
-1
0
-3
-1
-5
-2
-2
1
1
5
-1
2
1
2
-4
-5
-3
-1
-3
0
0
2
0
-2
-4
-2
-1
0
2
9
2
-3
0
1
-3
0
-4
-5
-1
4
-2
0
3
-2
-7
-4
-7
-8
-1
4
-2
-2
1
-1
-4
0
1
-3
1
0
-3
-2
-3
-6
-5
-1
1
-6
-1
2
-5
-3
2
-6
-6
-6
-6
-7
-1
3
-1
-1
0
-5
-6
-2
-2
-5
-1
-1
1
-2
1
-3
-5
-3
-4
-2
12
14
12
12
17
14
13
9
6
5
18
15
13
7
10
7
9
11
16
19
21
19
13
9
14
10
7
3
3
9
14
10
5
-8
-4
-8
-8
-5
-6
-6
-1
-2
-3
-2
-3
-9
-10
-6
-5
-5
-2
0
-1
-6
-7
-13
-10
-8
-8
-4
1
-2
-1
-4
-4
-9
-8
-10
-9
-4
2
1
6
13
21
27
42
64
82
100
118
123
133
140
133
112
97
85
68
49
25
1
-5
-11
-18
-19
-12
-5
-8
-4
1
-3
-6
-3
-5
-5
-4
-5
-7
-1
1
-5
-6
-2
-7
-8
-8
-6
-7
2
4
0
1
-2
-7
-3
1
-2
2
2
-2
-4
-2
3
-1
-5
-4
-3
-2
2
4
2
0
0
-3
-2
-1
-1
0
3
3
6
5
3
-3
-3
-4
-3
2
8
4
6
4
5
7
8
4
6
7
15
12
9
5
6
0
6
14
14
16
22
18
18
17
18
13
18
19
18
23
32
30
28
24
26
24
29
29
24
24
32
30
31
29
32
26
28
28
27
29
31
27
24
22
27
22
22
20
20
18
24
21
16
12
17
10
6
4
1
7
11
7
6
2
-1
-2
2
-4
-8
-4
3
4
2
1
-5
-7
-5
-7
-9
0
1
-4
-2
-1
-6
-6
-5
-8
-10
-3
-3
-1
-1
-3
-14
-11
-6
-6
-9
-4
-2
-5
-4
-3
-9
-9
-8
-5
-6
-1
4
3
-3
0
-8
-8
-3
-7
-7
2
0
0
1
2
-8
-3
-1
-1
-3
4
4
1
0
3
-3
-1
1
2
3
8
6
3
-3
-2
-5
-1
0
-4
-4
5
4
3
0
1
-3
-4
-3
-2
-5
3
2
1
-3
-1
-3
-1
-1
-1
0
1
-2
0
-1
-1
-6
-8
-3
-3
-4
2
0
2
0
-2
-6
-3
-2
-5
1
5
0
0
-1
-6
-10
-7
-6
-6
-3
3
1
-2
-2
-1
-8
-7
0
0
-2
-2
-2
-3
0
-3
-3
-5
-5
-7
-1
1
-3
-4
-6
-6
-3
-2
-1
-5
2
6
0
-5
0
-3
-5
-3
-3
-4
1
2
-1
-2
4
2
3
4
8
5
10
13
11
14
14
8
6
10
14
9
4
8
9
10
17
12
11
10
12
11
16
15
10
6
5
3
7
13
15
5
-1
-2
-6
-8
-7
-12
-12
-12
-10
-9
-2
-2
-4
-4
-3
-9
-5
-4
-5
-6
-3
-4
-9
-1
-2
-8
-3
-6
-7
-2
-3
-6
-7
-10
-9
-13
-11
-9
0
5
17
29
42
60
81
93
113
123
130
138
147
136
115
100
81
59
32
5
-3
-3
-2
-8
-8
-3
-5
-9
-7
-9
-10
-6
2
0
-4
-4
-9
-7
-4
-8
-7
0
-1
-3
-1
-2
-3
-10
-11
-9
-9
-1
6
3
2
1
-6
-7
-6
-3
-6
-2
1
-2
-2
1
-4
-6
-3
1
-2
0
0
3
6
7
-2
-3
0
2
-2
2
6
5
5
5
-4
-6
-3
4
4
6
6
8
8
11
8
7
8
6
0
7
11
8
4
8
9
11
16
16
16
24
25
18
18
21
20
20
24
22
21
30
29
29
25
28
25
27
29
27
28
34
34
36
30
28
24
29
32
29
21
28
31
29
22
17
13
19
14
13
14
17
17
16
7
8
1
6
6
3
2
9
5
5
-1
0
-4
-5
-2
-1
-1
5
-1
1
1
-3
-6
-1
-3
-4
-2
3
1
1
1
-5
-7
-2
-3
-7
-3
1
-3
-3
-4
-7
-11
-7
-4
-3
-3
0
-7
-6
-1
-3
-4
-5
-6
-9
-2
2
1
-2
-3
-6
-7
-3
-4
-7
-1
-1
5
11
9
0
-1
-1
-1
-3
3
5
1
0
0
-5
-4
2
3
-1
3
6
3
2
3
-1
-3
-1
4
1
5
4
0
-1
4
-1
1
1
2
1
4
4
1
-2
2
-1
0
-1
-1
-1
3
4
3
1
1
-2
-1
-2
-1
-5
0
5
3
1
4
-2
1
3
4
4
6
3
-2
-2
4
-2
-2
-3
-3
-1
6
2
0
0
0
-2
-2
-2
-2
0
8
5
4
1
2
-4
-1
1
-3
1
6
3
2
1
-1
-2
2
2
0
2
4
0
1
3
1
-4
2
2
-3
6
12
7
6
9
7
9
18
13
14
20
22
19
15
11
11
11
13
11
9
19
21
20
18
23
22
16
15
14
10
14
19
18
16
13
7
7
4
1
-3
2
0
5
5
1
-5
-5
-1
-4
-3
4
4
3
1
1
-2
-1
-3
-3
-3
1
1
1
2
3
-1
-2
2
1
-4
1
-2
-1
-2
0
-2
4
12
27
41
62
78
91
107
121
126
136
146
145
136
125
107
88
65
38
11
3
1
-3
-10
2
8
5
4
6
1
3
-1
0
2
5
3
0
-4
-1
-4
-5
-1
1
2
6
6
5
1
-1
-5
2
8
5
8
12
9
4
3
-2
-7
-1
-1
-1
5
12
9
6
7
5
1
5
4
4
8
10
8
9
9
5
3
4
9
8
9
8
4
9
11
3
4
8
10
11
17
18
16
16
16
12
11
11
10
13
22
22
16
17
21
18
14
18
23
22
30
31
29
27
32
26
27
30
34
31
37
40
41
36
39
32
31
37
36
34
38
34
31
38
41
36
34
31
34
32
36
39
32
29
26
23
23
18
17
18
23
24
18
12
11
7
8
8
9
6
13
9
7
7
6
5
3
4
7
8
17
12
5
4
5
1
5
8
3
1
7
5
1
2
5
2
2
2
-2
0
10
8
9
6
2
-4
1
7
2
1
7
5
-1
3
3
1
5
3
5
8
5
1
-2
3
8
5
5
6
3
9
12
10
9
12
10
5
8
6
2
9
13
9
8
10
3
-1
4
8
4
9
15
10
10
12
8
6
8
7
4
11
15
13
10
10
7
4
6
7
9
14
13
11
6
11
5
6
6
7
4
7
10
10
8
11
5
4
8
9
10
15
16
12
4
4
2
1
-1
-2
3
15
14
10
6
7
2
2
3
8
4
6
10
9
3
5
4
9
6
5
9
12
12
11
10
8
3
6
3
-2
5
11
10
8
8
6
3
6
7
2
7
11
9
11
10
6
5
5
6
9
6
14
8
4
4
8
5
7
10
9
18
26
25
25
25
21
19
20
21
17
18
25
22
23
21
21
19
24
26
22
28
28
23
19
18
13
12
18
18
16
13
12
6
8
8
7
5
4
5
2
5
4
7
9
7
-1
-1
0
0
-1
2
6
7
8
8
2
2
7
6
5
9
9
9
4
2
-1
-4
-3
3
5
15
19
28
39
61
77
93
110
127
135
150
162
158
137
124
101
92
72
44
12
5
7
3
-2
3
3
3
2
-1
4
10
9
5
9
11
1
1
0
0
3
8
6
4
3
6
-1
5
5
7
5
6
3
3
2
13
9
8
11
6
1
3
5
3
9
15
12
8
8
8
4
6
9
9
12
12
11
11
6
5
8
11
10
9
15
18
15
13
13
10
10
15
17
14
15
22
20
15
16
13
15
22
19
15
26
28
27
26
29
26
27
32
27
30
40
39
36
35
37
35
37
40
34
34
40
44
41
37
40
38
38
38
40
35
37
37
36
32
34
30
31
29
24
18
26
29
28
25
26
22
17
13
12
11
17
13
10
8
10
7
7
8
9
6
14
13
10
8
6
4
7
4
1
2
9
8
6
7
7
2
5
4
2
3
9
6
7
6
1
-1
5
9
3
5
15
5
5
6
4
-5
0
2
2
2
8
6
7
4
2
1
5
5
9
11
13
8
6
3
4
-2
1
3
6
10
18
14
13
12
4
2
4
2
4
9
6
6
13
11
8
5
11
14
9
10
10
8
8
11
7
3
8
8
8
12
12
14
13
11
5
3
2
8
10
15
7
8
14
15
8
2
4
2
2
9
8
6
3
7
9
5
4
7
6
10
6
9
2
10
3
6
9
8
5
6
6
5
3
6
2
6
7
6
6
11
8
14
16
20
9
5
3
3
1
8
8
8
2
4
3
1
5
-1
-1
2
11
9
1
2
7
6
4
7
10
21
18
18
17
21
15
18
22
16
10
23
22
22
22
23
22
18
18
19
23
28
26
21
19
20
12
14
15
12
18
26
15
11
8
1
0
0
10
6
10
15
12
10
7
4
1
5
0
0
4
8
11
11
12
8
4
8
4
-1
5
9
6
3
3
2
2
3
2
-3
8
12
9
8
19
22
32
51
71
87
105
120
128
136
140
136
128
114
98
80
69
46
19
4
4
-5
-10
-7
-2
1
7
9
11
11
13
4
8
5
1
1
11
7
7
6
5
5
2
3
6
9
16
11
5
4
7
0
4
9
15
12
17
11
15
11
11
5
8
6
5
7
13
13
14
10
15
11
12
7
9
8
17
15
11
12
11
9
15
18
13
13
19
12
16
21
22
14
12
16
13
16
21
19
18
19
20
17
23
23
20
29
35
28
30
29
31
28
27
30
31
36
44
41
42
41
38
36
37
40
34
42
47
51
47
44
41
40
45
46
42
49
47
43
39
42
37
36
39
36
29
38
37
35
31
30
20
17
21
27
18
23
21
19
21
16
10
10
11
9
6
13
14
14
10
12
5
5
8
8
7
17
14
11
4
7
3
5
3
3
-1
4
12
13
8
6
4
6
8
3
3
11
10
8
4
6
2
7
6
3
3
10
6
11
10
6
8
10
8
8
8
16
14
13
11
12
8
10
11
9
13
18
16
15
13
13
5
5
15
13
12
18
16
13
14
12
9
12
10
8
14
22
16
13
16
15
11
12
13
8
15
23
16
11
14
10
1
3
10
10
12
18
13
9
12
12
10
11
8
6
13
15
13
13
12
9
7
10
12
10
15
16
11
8
10
9
9
7
8
7
13
15
12
14
15
10
9
7
8
4
12
14
13
13
13
5
6
6
6
5
15
15
14
12
12
7
9
8
8
7
9
11
11
14
16
5
8
10
11
13
20
21
21
18
21
18
21
23
19
21
29
29
24
19
20
17
23
27
25
24
30
29
28
27
30
19
20
25
21
20
26
24
22
21
20
9
6
3
1
6
11
7
10
15
13
4
6
6
9
10
14
10
10
9
6
2
5
9
6
9
14
9
8
9
8
3
8
10
9
8
10
6
4
4
12
15
26
43
57
75
94
107
124
138
140
146
153
149
131
118
99
81
64
33
15
4
6
1
0
12
14
13
12
13
7
4
8
8
4
10
11
8
5
6
2
3
7
6
3
9
13
11
8
8
3
2
7
8
9
16
13
10
12
13
9
11
9
8
4
10
12
10
8
11
9
11
9
6
9
18
16
15
17
17
13
9
8
9
13
15
15
16
14
14
11
14
14
14
15
17
15
17
19
20
16
16
22
22
20
27
27
23
22
22
21
26
28
27
24
32
32
36
33
35
29
35
39
37
41
45
45
41
39
39
36
40
41
41
40
37
39
41
41
38
35
39
36
34
36
40
35
30
29
28
27
27
22
21
27
27
21
19
18
16
11
9
15
17
13
15
17
17
18
6
2
8
3
2
11
13
11
12
12
5
4
7
11
9
13
16
13
11
11
7
7
5
6
4
10
12
10
11
12
3
2
2
4
3
9
13
8
9
11
6
11
14
12
9
13
11
9
7
6
3
3
6
8
7
13
13
8
9
10
5
7
12
11
10
17
14
13
13
12
3
5
9
13
12
16
15
15
15
18
11
12
8
9
9
17
16
15
13
13
8
10
9
8
12
18
17
15
9
13
10
10
8
14
19
17
12
13
12
10
7
12
13
9
12
15
12
13
14
13
7
10
10
7
9
18
17
9
12
11
5
8
11
8
13
12
11
13
14
10
8
11
10
9
14
19
16
14
15
7
10
12
13
9
17
16
7
10
9
7
8
10
9
4
8
14
17
15
14
9
8
11
14
11
14
17
14
13
16
7
8
13
13
15
23
28
28
26
29
23
22
25
25
24
31
33
26
25
26
26
26
27
28
29
38
34
25
21
22
17
17
18
20
19
25
23
16
10
10
8
6
7
6
6
14
12
9
6
10
10
7
9
7
8
13
10
11
11
10
6
7
6
6
7
16
13
11
13
12
3
5
6
2
6
14
18
20
24
30
40
61
82
96
117
139
145
157
168
162
144
122
103
87
74
51
27
16
8
3
2
6
6
7
12
14
13
12
12
0
0
3
8
8
10
12
8
9
9
4
3
6
7
5
7
9
8
9
9
6
6
7
8
8
15
18
11
11
13
6
3
3
6
7
15
16
12
12
11
7
9
9
11
10
15
14
14
13
15
13
11
9
12
10
17
17
12
12
16
11
12
14
17
15
20
23
20
17
17
18
21
20
16
19
29
29
28
24
27
24
22
28
30
31
40
40
37
34
39
39
38
38
36
34
41
42
47
46
41
33
38
39
39
42
47
43
40
39
40
34
37
35
31
31
34
31
34
29
26
21
25
24
19
20
23
18
16
16
14
8
10
8
10
16
21
10
7
13
12
7
8
8
5
9
14
12
9
7
4
4
6
4
7
16
14
13
15
12
5
4
9
10
7
11
13
6
7
2
0
4
4
8
4
10
11
11
7
4
4
8
8
7
6
7
8
7
4
5
3
5
7
8
8
12
11
9
8
8
5
8
10
8
8
14
12
12
9
8
3
6
13
11
11
14
15
12
10
13
7
9
12
11
10
19
14
10
9
8
6
8
9
10
10
10
10
12
10
11
9
8
4
9
9
14
10
7
7
12
9
10
13
13
11
14
11
9
6
6
4
8
10
7
9
16
15
10
12
8
0
6
13
11
10
10
7
8
9
5
4
8
10
8
8
12
11
9
10
10
8
5
5
4
12
17
15
9
9
8
2
3
10
4
8
18
18
14
12
8
5
7
9
8
13
17
12
11
8
7
8
8
9
1
10
16
12
10
12
6
9
15
15
13
20
22
24
25
20
23
21
25
22
22
29
25
23
21
22
16
20
27
28
27
33
29
27
26
27
20
22
19
18
14
21
21
14
7
8
4
5
6
6
6
12
11
11
10
11
6
4
4
6
6
13
10
6
6
9
6
7
4
1
4
16
12
8
6
9
5
7
5
5
4
9
5
8
15
22
35
48
65
87
106
128
141
145
154
159
149
134
121
108
91
75
43
19
12
7
-1
3
7
5
9
13
13
10
10
3
1
3
3
5
10
11
9
9
11
3
2
4
7
4
11
11
8
9
11
6
4
2
4
8
14
18
15
10
11
7
8
9
10
5
15
16
10
12
13
8
6
10
10
9
16
17
14
12
13
7
7
10
13
10
14
17
24
23
13
10
13
13
16
13
19
22
20
19
18
16
20
20
20
25
28
29
27
23
27
21
21
24
26
28
38
37
36
37
34
28
37
38
39
43
51
47
45
42
44
38
41
41
40
38
41
43
44
40
39
30
35
41
38
37
38
36
32
29
28
24
28
22
17
23
27
22
22
17
14
9
8
15
14
15
21
12
12
13
11
8
12
12
11
17
19
10
7
8
3
2
7
10
3
10
15
10
10
12
7
7
10
11
6
8
10
10
11
12
7
3
2
11
6
8
13
14
11
12
8
2
5
7
5
9
9
9
12
14
7
5
7
8
6
14
13
12
11
13
12
11
10
14
11
12
9
12
10
12
12
10
11
11
10
14
17
16
16
19
14
11
17
18
18
20
12
9
0
6
7
14
13
11
10
13
13
16
16
13
7
11
14
14
14
17
16
15
12
8
4
6
8
5
12
17
14
13
13
13
8
10
14
10
11
17
14
14
14
10
5
5
8
9
12
10
14
14
13
8
5
8
11
10
17
18
12
14
14
5
3
11
10
6
10
14
12
11
12
10
8
8
7
8
15
18
12
9
14
11
9
5
7
7
13
17
12
7
8
6
5
9
13
9
13
14
12
10
12
9
8
9
8
9
14
19
18
15
16
16
16
19
24
23
26
29
29
24
27
18
15
18
23
21
29
31
31
28
28
25
27
26
28
27
27
23
25
20
23
17
14
15
11
5
13
10
9
11
8
2
6
9
7
9
17
11
7
4
6
4
8
7
8
9
15
8
7
5
6
4
6
7
6
5
12
12
10
7
5
1
4
6
6
14
25
34
47
61
80
96
114
128
137
149
163
159
145
125
105
87
67
37
12
15
15
7
3
8
8
5
10
11
1
5
11
11
11
10
10
13
11
4
-3
6
10
9
9
9
5
3
5
6
-1
8
10
6
4
6
1
8
12
12
9
13
9
9
12
13
8
4
7
10
11
18
19
17
14
13
4
5
10
9
10
15
14
12
13
13
9
9
10
14
10
19
24
21
15
20
14
12
13
16
15
20
18
20
21
23
17
19
20
21
21
30
32
32
34
34
27
30
33
30
32
42
39
37
40
43
36
40
42
41
44
48
44
38
37
42
39
39
39
37
40
50
43
41
38
36
30
31
34
30
25
30
27
26
24
23
18
21
20
19
19
21
14
13
12
12
7
9
8
9
13
11
10
11
14
10
6
10
9
10
16
14
9
10
8
3
2
6
7
5
14
16
12
9
6
0
1
8
6
0
14
14
11
11
13
7
3
6
10
8
12
10
8
4
8
6
6
5
7
6
10
13
11
12
13
7
9
11
13
8
11
9
11
13
13
8
10
8
8
7
20
17
14
13
16
7
8
10
10
9
16
18
16
15
16
11
12
10
8
10
18
16
16
13
13
7
11
12
13
12
17
17
17
11
12
7
8
9
11
16
22
16
14
11
12
9
7
7
10
12
15
11
12
13
11
4
5
9
12
12
18
14
12
13
12
6
6
8
8
15
15
14
11
13
11
8
10
13
9
8
12
15
15
15
11
4
7
10
9
12
13
10
11
11
7
11
9
9
5
13
18
12
14
11
7
8
10
12
10
14
15
13
12
15
9
8
7
8
5
14
19
14
14
20
18
19
16
21
17
24
22
22
26
27
22
21
22
23
20
25
27
27
25
27
22
21
22
26
24
37
31
27
26
23
20
20
22
24
22
23
20
11
10
11
3
4
6
6
8
13
12
10
15
16
11
13
6
5
5
9
7
7
5
7
6
6
5
5
3
12
15
12
10
9
2
5
5
5
6
12
12
22
29
40
49
67
87
103
123
140
145
154
163
149
127
112
99
82
62
35
19
8
4
1
2
7
12
9
12
12
15
14
16
7
1
4
8
3
9
14
10
4
10
3
5
11
12
6
10
12
12
8
10
7
12
14
12
9
13
13
8
7
8
6
9
16
11
8
19
20
20
13
14
10
9
11
10
11
19
18
15
14
17
14
14
13
16
12
19
19
21
20
19
10
14
20
18
17
23
24
21
23
21
17
21
25
24
22
32
30
34
32
31
28
31
32
32
32
36
38
42
38
39
35
39
41
41
45
52
47
50
48
48
41
42
39
39
44
49
47
43
40
40
35
34
34
33
37
43
38
30
25
27
26
25
29
25
25
26
23
21
20
15
9
12
13
9
14
18
19
15
15
14
12
15
13
7
14
15
12
14
18
9
7
10
7
6
12
17
12
13
14
8
8
8
2
2
13
15
12
12
11
9
5
7
13
7
12
15
15
18
16
7
10
9
13
11
16
17
13
11
14
12
10
11
13
11
17
17
18
16
18
12
12
11
13
11
20
21
20
20
15
10
10
15
15
11
17
21
22
18
21
14
13
18
17
16
20
20
15
14
15
9
13
16
14
12
20
18
18
16
16
14
16
16
13
10
17
17
14
16
18
13
12
11
10
13
18
14
15
15
12
5
13
20
14
12
18
15
15
15
15
9
13
11
7
10
19
19
15
16
12
7
6
11
11
15
20
16
15
14
11
8
12
9
11
14
16
14
17
17
15
12
11
11
15
22
28
27
25
27
25
20
21
23
25
30
33
27
27
28
25
23
24
25
23
34
31
34
36
30
18
18
16
20
21
28
25
24
16
14
9
11
14
12
5
14
11
10
5
9
7
6
5
7
10
15
14
13
10
6
4
7
6
4
2
12
12
7
8
15
4
6
6
4
7
13
8
7
10
11
10
16
20
35
46
70
87
108
125
134
134
142
143
137
123
114
101
76
49
24
7
4
1
-7
-5
7
10
11
12
13
7
8
9
9
8
11
11
13
7
6
1
6
7
2
6
16
18
15
18
14
1
6
7
7
11
12
11
12
14
18
9
9
8
8
14
17
14
9
12
10
12
17
14
10
15
21
19
20
14
9
11
15
13
12
17
19
19
20
21
15
15
18
21
20
25
28
23
19
20
20
19
19
22
21
27
30
26
26
29
27
32
34
30
29
37
39
39
35
36
36
38
38
42
43
47
48
46
44
47
45
43
43
50
48
51
48
49
46
48
43
41
37
32
38
51
46
42
32
37
30
30
28
26
25
32
26
27
25
22
13
17
15
13
15
20
16
14
12
16
9
10
13
11
12
19
14
19
15
10
7
9
9
7
10
17
11
6
8
6
0
7
7
6
13
17
15
11
9
7
6
9
10
3
7
13
13
10
12
10
6
7
9
9
10
14
13
16
13
9
10
10
13
12
17
16
13
14
19
14
13
14
11
13
22
24
20
12
12
10
12
14
15
11
18
20
18
19
18
12
13
14
18
17
23
23
22
16
15
12
11
11
14
11
16
16
14
16
19
10
9
9
14
13
17
18
18
15
14
13
10
12
11
11
18
17
14
13
15
8
14
12
11
9
14
15
16
12
16
10
11
15
15
16
19
16
14
15
16
9
12
13
15
11
15
12
9
14
12
8
9
11
14
16
20
19
17
21
19
14
17
19
21
26
33
23
21
26
33
27
34
33
26
28
34
29
29
28
28
25
29
26
23
29
34
29
25
26
24
23
20
10
5
14
17
13
11
12
8
9
13
7
3
11
12
13
8
6
7
11
15
10
6
11
13
12
13
13
6
8
9
8
9
12
10
7
8
12
7
5
8
6
3
11
11
16
20
34
42
58
72
93
108
129
140
149
149
153
141
129
114
96
79
61
29
21
8
6
-2
2
9
13
13
18
14
13
10
12
8
8
9
11
8
14
20
13
3
9
10
9
10
12
8
12
11
13
13
13
13
14
13
15
15
19
16
14
12
16
11
14
17
13
15
21
16
17
11
11
12
15
15
11
15
19
19
18
19
16
13
14
19
18
23
24
21
22
20
17
15
14
17
15
25
26
23
22
24
22
24
23
24
24
33
39
36
32
38
34
28
29
34
34
43
42
42
42
43
40
38
41
43
46
54
54
50
42
45
44
41
45
45
42
48
48
43
41
45
44
44
43
38
30
40
40
39
32
33
24
25
26
24
18
25
27
25
23
27
17
14
15
10
14
20
18
13
15
19
12
12
16
16
17
23
16
15
13
13
10
9
10
11
9
14
13
13
10
13
9
12
13
14
10
15
12
12
10
12
8
8
9
12
8
12
12
17
16
15
10
11
11
8
8
16
12
16
18
13
13
15
13
10
17
23
20
17
16
15
11
11
12
11
16
20
21
20
19
11
9
14
18
14
17
21
19
19
19
16
18
21
15
10
17
20
21
18
19
11
15
16
16
13
16
21
20
18
15
11
12
13
13
11
24
25
20
17
17
12
13
14
16
13
19
18
16
14
16
13
13
14
13
11
17
16
12
13
14
11
13
14
15
12
18
17
14
13
16
12
13
12
13
11
15
20
20
17
22
24
21
13
5
1
14
18
16
14
17
11
10
12
20
19
24
25
23
20
21
20
23
22
25
27
34
34
33
33
32
28
32
35
28
32
30
31
34
32
33
22
25
27
27
27
35
36
26
14
7
4
3
6
9
15
16
12
17
16
13
11
12
10
9
11
16
14
13
11
14
9
12
14
12
16
16
9
10
12
10
8
10
12
5
9
11
7
9
15
15
9
11
11
12
17
22
30
46
62
78
96
115
129
141
158
167
167
159
139
119
105
87
63
32
23
15
14
14
16
16
15
10
12
7
10
11
9
12
15
8
8
7
12
12
15
15
13
10
12
9
13
14
13
11
16
17
15
12
15
9
13
13
11
10
21
22
21
18
19
10
9
10
14
16
23
19
14
13
15
12
17
18
18
18
22
18
19
19
21
18
17
17
19
19
25
23
24
24
23
18
17
17
17
22
29
26
26
26
23
22
27
29
26
31
35
32
32
36
35
35
39
37
34
41
48
47
39
42
41
37
43
49
46
50
56
48
48
51
47
46
47
45
42
43
45
44
46
49
42
36
37
37
34
35
36
36
34
32
24
22
24
24
25
32
29
21
17
18
16
19
22
17
11
20
18
15
16
19
15
13
16
13
9
14
17
16
14
19
10
11
10
11
11
19
21
17
12
13
8
13
14
12
10
17
18
15
15
15
7
10
12
10
8
13
10
9
13
16
9
16
13
11
10
16
15
10
10
16
10
12
12
12
13
18
18
15
14
14
10
11
13
14
19
21
20
19
18
14
9
15
14
10
15
23
19
16
17
14
9
15
17
13
17
19
17
17
18
15
11
9
7
12
20
25
22
19
18
15
12
13
12
11
17
20
14
17
19
11
8
11
15
12
17
16
17
18
23
21
14
11
10
2
15
16
16
16
15
10
8
11
17
11
21
14
12
8
15
13
15
15
16
11
15
15
17
14
17
13
11
10
11
13
21
23
12
6
10
8
11
13
13
12
22
22
20
15
22
17
19
20
20
24
36
39
35
33
35
28
30
27
24
26
32
33
32
30
32
28
28
22
22
23
26
27
22
17
16
9
11
13
13
15
17
10
7
9
9
2
8
9
8
9
17
15
13
11
10
1
6
8
7
9
12
10
13
12
11
10
6
7
5
10
14
11
8
6
11
8
10
8
10
13
14
24
23
35
50
65
88
106
118
138
153
159
166
168
147
124
109
93
70
44
27
13
7
7
6
7
10
13
11
17
11
10
10
12
6
9
13
13
7
12
11
10
8
9
7
8
5
8
7
14
14
13
11
14
13
6
5
7
5
10
9
12
12
9
8
14
15
12
10
17
16
12
9
14
9
11
8
10
13
21
19
14
14
14
10
13
17
15
14
24
22
18
10
12
8
11
12
14
15
21
21
19
22
25
19
22
24
24
23
28
30
30
26
29
23
27
31
27
32
36
32
36
44
41
35
41
45
40
40
48
44
44
44
40
40
44
43
39
44
48
44
43
40
37
32
35
37
36
35
32
27
30
28
22
22
23
23
19
23
23
21
16
17
13
12
11
13
13
17
17
12
12
16
8
8
10
10
9
11
15
12
11
11
7
9
6
6
8
17
15
6
4
4
3
4
4
5
7
15
12
9
6
5
1
8
7
7
2
9
11
5
5
6
6
7
7
6
4
7
10
8
12
12
7
8
11
8
6
11
12
11
8
10
6
9
10
9
7
15
12
11
12
10
9
11
10
9
10
18
15
10
12
14
9
8
8
9
14
22
14
9
11
10
4
7
9
5
7
17
18
13
13
10
3
8
11
6
13
16
15
12
13
11
6
9
9
5
8
14
11
10
11
5
1
-2
9
15
16
19
13
13
15
8
8
8
13
9
11
7
5
6
11
9
6
8
9
5
11
14
7
7
11
5
4
7
9
6
14
15
10
8
8
1
4
7
8
2
8
15
15
13
16
9
7
14
14
16
20
17
14
16
21
16
20
22
26
23
31
33
33
29
27
21
27
21
18
21
30
29
24
22
17
17
18
20
18
13
17
17
7
3
5
-2
4
3
7
7
13
9
8
7
5
1
3
3
0
4
9
7
6
7
4
2
6
6
-4
3
15
8
3
6
4
-4
0
7
3
7
9
8
7
1
0
-1
4
11
14
21
43
57
79
96
110
125
137
148
156
161
151
133
115
98
73
46
20
9
6
10
8
8
11
10
6
2
1
3
-2
2
8
9
4
3
3
3
2
3
2
7
6
1
4
10
5
3
2
5
7
14
13
12
5
5
1
3
6
7
5
10
13
12
12
14
6
7
8
7
9
9
7
10
10
8
5
9
11
12
12
18
18
14
12
12
6
12
14
11
12
18
15
16
7
15
12
16
15
17
20
26
20
20
22
24
18
22
25
22
21
25
28
25
26
27
26
36
36
33
32
36
38
42
39
39
36
40
41
39
42
46
44
40
39
38
33
36
38
35
41
47
43
39
33
32
30
28
28
25
23
29
20
15
24
18
10
13
16
17
19
20
17
17
9
8
5
8
4
4
10
8
5
7
11
7
5
6
6
1
4
7
6
8
12
5
5
5
4
4
9
9
8
7
4
0
4
5
6
-4
-2
10
10
5
9
3
2
3
0
4
12
12
9
3
9
3
6
6
4
0
5
10
14
15
18
5
5
12
13
8
12
15
16
11
10
1
8
6
7
6
15
15
14
15
15
9
5
9
8
10
16
15
9
7
9
8
10
9
9
10
15
12
15
15
12
8
10
9
9
12
14
8
11
14
14
7
5
8
7
8
14
12
13
11
6
4
8
8
3
8
16
9
9
9
6
5
6
7
6
11
12
12
13
13
10
8
5
7
5
10
13
7
7
12
13
8
9
4
2
11
10
4
10
13
6
5
5
3
4
10
13
8
9
7
1
5
7
10
8
13
19
13
10
11
5
8
10
15
14
21
22
22
21
25
23
21
23
25
28
36
33
30
26
23
19
21
17
18
19
22
24
27
22
19
11
15
12
4
3
8
10
11
11
8
5
8
9
6
4
8
8
5
1
4
1
2
7
5
4
12
11
10
4
5
3
3
1
-2
0
9
9
5
6
6
1
0
6
6
6
9
2
3
2
7
11
16
27
47
65
83
97
112
123
131
139
147
144
125
113
104
83
63
38
16
3
1
-4
-7
-3
7
8
8
8
6
3
4
3
1
3
4
12
10
7
2
-1
3
7
0
8
10
9
8
11
7
8
5
4
3
9
11
12
9
11
7
4
8
5
3
13
13
12
6
6
6
8
10
9
10
12
17
9
7
11
9
9
11
11
10
16
15
16
13
14
6
6
11
14
13
17
18
17
13
16
14
18
16
22
23
26
25
23
21
25
22
22
24
25
25
28
27
32
33
34
34
39
38
35
33
40
41
39
35
39
37
39
41
40
40
44
44
43
40
38
33
36
35
37
38
40
39
36
36
34
25
18
17
20
22
28
21
17
14
14
11
9
12
10
10
15
13
12
8
6
4
7
7
5
8
13
10
6
4
2
1
0
1
-5
10
16
15
8
9
3
1
3
1
-3
2
4
3
5
7
-1
-2
3
3
4
9
6
4
4
7
4
2
4
3
0
9
8
7
5
4
-1
2
7
9
3
3
11
16
15
12
7
6
6
3
6
11
11
10
11
14
4
8
12
11
10
7
11
13
10
8
8
7
8
6
5
12
14
13
12
9
5
7
14
5
3
10
9
9
8
9
3
2
3
10
15
13
9
8
5
4
1
2
5
3
6
14
10
10
6
5
5
6
2
2
4
11
9
9
5
5
0
4
6
5
9
9
6
7
5
4
1
5
8
6
6
10
9
9
6
2
-5
2
7
2
6
10
9
7
6
3
1
7
8
6
9
11
7
3
7
7
3
9
8
7
14
17
15
15
16
14
16
18
17
22
27
28
21
22
24
19
13
19
26
17
24
23
22
21
18
13
15
17
15
11
14
9
5
5
3
0
1
3
3
3
5
5
2
0
4
-2
-3
-5
-1
0
9
6
2
2
4
-2
-2
-3
-1
1
5
1
2
7
8
-1
1
2
1
1
4
1
-1
-4
1
-3
3
8
13
20
44
51
68
87
102
110
122
133
139
145
142
123
102
88
73
47
23
10
1
0
3
3
6
6
4
-4
-3
-3
-4
0
3
1
13
10
5
1
1
-1
-2
1
9
6
5
4
2
0
3
3
-2
2
12
9
8
8
6
1
1
2
2
7
10
7
6
5
2
0
6
4
2
12
12
9
6
7
3
2
5
7
3
13
14
11
11
13
7
6
6
8
4
13
16
16
14
13
7
10
14
17
14
17
17
17
18
20
19
18
24
24
20
22
25
25
21
26
27
24
24
28
30
37
38
40
38
39
35
34
30
32
34
39
40
36
33
37
32
35
39
36
35
38
36
34
26
29
25
25
23
19
24
27
24
22
14
15
9
8
10
7
8
15
12
9
8
10
0
2
2
1
3
10
7
4
3
5
-1
0
-1
1
5
7
5
7
5
3
0
3
5
2
0
4
3
-1
-2
-4
-7
-1
-5
-7
4
8
3
2
0
1
1
5
7
0
4
6
4
2
0
-3
-7
-3
-2
-4
1
8
8
4
6
0
0
4
3
3
10
10
15
5
4
1
3
3
3
0
8
10
7
9
12
5
2
1
3
4
7
7
9
10
10
3
4
9
6
6
12
9
4
4
8
4
6
7
7
5
6
6
6
7
9
5
6
6
3
5
8
6
7
7
7
2
5
7
6
2
8
7
11
11
10
1
3
2
-1
3
12
9
7
2
-4
-3
8
13
7
5
12
10
10
5
6
4
8
6
4
5
9
6
7
8
9
4
8
9
6
5
10
11
8
7
5
1
9
11
5
2
10
10
6
7
5
0
7
5
6
13
16
13
8
-1
-4
4
7
7
10
16
15
14
13
15
12
11
16
15
10
18
21
18
18
25
24
24
26
24
19
29
33
31
32
35
21
16
17
21
18
24
28
21
14
17
12
9
9
4
2
8
12
8
6
6
3
3
6
5
8
15
14
10
3
5
2
2
4
4
2
8
7
7
6
10
5
4
7
5
4
11
6
8
4
3
0
2
-1
-1
-1
7
7
8
7
18
18
28
39
56
73
92
111
125
139
148
151
154
147
129
112
102
81
57
27
17
8
4
1
5
13
16
11
6
8
4
0
5
8
6
4
9
8
5
5
5
1
7
8
5
6
15
9
5
9
7
1
2
6
7
11
14
8
5
11
6
5
6
10
13
13
15
12
11
14
6
5
6
10
11
16
17
14
9
10
5
4
9
11
7
14
18
16
13
12
9
11
13
14
13
20
17
16
15
16
14
17
19
20
17
22
28
28
24
27
18
15
20
25
28
32
34
34
33
35
30
31
36
33
34
40
39
36
38
44
37
35
39
35
35
48
45
42
41
42
37
40
34
32
34
39
38
37
33
33
26
23
20
23
23
27
23
19
18
17
14
19
18
16
14
18
14
13
13
11
3
6
11
11
11
16
12
12
10
11
8
8
8
6
7
13
11
9
10
8
5
5
7
7
7
12
9
11
13
7
5
7
7
4
11
16
16
9
7
5
2
8
6
4
11
14
10
11
12
6
6
6
3
2
14
16
13
11
15
12
9
7
4
4
9
10
8
8
12
10
8
12
13
11
14
15
11
10
7
8
13
12
13
12
18
12
12
9
12
10
12
15
17
10
10
12
14
9
13
11
11
8
9
9
15
12
10
11
12
11
13
10
5
7
12
13
14
12
11
8
11
9
8
10
18
15
11
10
12
8
11
9
3
1
10
11
9
9
7
2
9
9
7
11
18
15
15
12
8
0
10
9
3
6
13
10
12
9
6
4
5
10
10
13
16
15
14
11
6
4
8
9
7
12
14
16
14
10
5
1
2
8
7
11
13
13
12
14
10
8
14
14
12
17
18
18
18
21
18
16
19
24
24
31
30
29
29
33
29
22
21
26
23
23
29
27
25
26
25
29
24
23
12
10
8
9
8
10
3
5
7
7
4
10
13
10
9
12
7
8
7
6
5
10
11
10
5
10
3
0
4
6
6
14
10
10
9
9
3
4
4
3
10
8
9
8
4
3
-5
1
9
18
24
36
44
62
82
102
117
132
138
138
149
163
152
133
114
96
76
54
26
11
5
10
13
13
15
13
6
7
5
9
11
7
4
-1
3
13
9
6
3
0
6
11
9
9
14
10
1
5
8
7
12
16
10
2
5
3
2
12
15
9
9
11
9
13
17
11
3
11
15
8
11
11
10
13
14
7
6
4
6
7
20
22
19
12
15
15
10
9
15
13
16
18
17
16
14
9
11
16
18
16
24
29
28
32
30
18
12
17
21
21
29
31
31
31
35
34
33
32
32
30
35
40
48
45
40
39
43
44
44
39
44
45
46
45
43
38
44
44
42
36
44
44
46
45
47
41
37
35
27
30
37
37
37
30
26
27
29
24
22
26
29
23
18
18
19
14
17
18
20
22
30
25
18
19
19
14
18
21
19
15
14
16
19
19
22
19
21
15
8
17
21
20
19
20
22
16
19
16
15
20
21
23
26
27
13
8
8
6
9
18
25
22
22
22
15
13
16
13
17
25
25
22
22
16
9
9
12
19
17
24
24
23
27
29
15
11
16
19
13
18
23
21
19
19
19
25
23
18
13
20
21
22
21
25
18
18
19
17
16
22
21
24
17
20
17
22
24
24
19
22
25
25
22
23
13
10
17
17
16
19
22
22
23
29
16
15
18
15
14
19
18
17
17
16
17
24
21
19
16
21
23
22
15
14
10
22
21
24
20
22
21
17
14
13
11
15
14
13
17
28
23
19
18
22
15
19
14
15
21
26
22
17
17
16
11
17
18
14
16
18
18
14
13
18
15
27
26
16
22
28
21
21
25
21
19
19
20
17
18
28
31
30
36
31
31
38
40
36
37
40
34
34
37
31
28
32
28
29
37
36
33
32
31
24
19
18
15
10
17
20
24
22
17
11
15
16
18
15
18
18
15
16
17
10
9
10
13
10
19
20
19
18
19
15
16
13
12
12
17
16
18
12
15
15
17
15
15
12
19
16
17
21
28
23
39
57
71
84
108
124
133
139
145
143
137
122
108
95
85
62
30
20
15
11
7
10
14
14
17
19
19
16
16
12
17
16
10
15
24
20
14
15
14
11
13
17
12
12
20
19
18
16
16
13
17
21
10
12
17
20
15
14
14
10
10
11
8
15
18
16
21
22
19
15
18
16
13
17
23
18
15
17
11
12
17
13
10
22
23
20
17
16
14
17
18
22
21
24
26
23
26
31
29
25
27
19
13
22
27
28
30
31
28
28
26
34
40
44
38
41
41
43
40
40
39
41
42
49
51
49
46
48
39
40
42
46
48
56
56
52
48
49
41
44
43
45
40
44
44
39
38
39
31
31
29
29
27
30
29
30
23
22
20
21
18
19
19
22
18
17
16
16
11
15
17
13
13
21
19
13
15
17
16
15
11
7
10
18
17
12
13
18
15
19
14
7
11
16
12
16
16
13
9
11
10
7
11
17
12
9
13
14
11
15
16
12
14
22
19
18
16
14
10
14
17
14
20
21
17
20
20
14
15
20
20
19
27
28
21
18
17
16
19
20
23
22
23
20
19
19
20
18
17
18
19
15
21
22
20
20
19
16
19
21
21
15
19
19
18
18
20
15
17
17
16
13
18
21
18
16
18
13
11
14
16
16
23
21
16
16
15
15
15
15
13
14
20
19
20
19
18
12
13
14
19
18
21
20
14
14
18
11
13
16
17
17
20
14
15
13
18
15
11
13
14
13
17
16
15
14
15
12
16
17
19
21
27
23
21
20
22
15
19
22
21
25
32
29
33
34
38
35
32
31
30
35
38
35
31
34
30
22
25
29
26
28
30
26
19
19
17
13
7
10
8
15
18
14
11
18
11
10
13
16
16
21
19
13
13
13
8
3
7
8
7
17
17
15
15
19
12
10
10
9
13
20
20
16
14
17
12
7
9
8
6
17
29
36
43
58
67
90
104
126
138
152
161
171
168
153
131
117
105
79
54
38
27
16
16
17
13
15
19
15
14
20
18
21
22
21
14
14
16
13
15
19
17
17
15
16
15
17
19
17
18
23
17
22
23
22
15
18
18
17
24
25
22
24
19
21
14
18
20
16
17
26
25
21
19
23
20
23
18
17
18
29
25
25
23
23
18
18
19
18
23
28
23
24
24
22
16
24
26
20
28
34
30
31
32
30
31
31
30
21
26
34
32
35
34
29
33
41
41
40
41
44
44
41
44
40
39
44
42
46
50
56
55
53
54
50
48
48
47
43
51
52
47
41
46
46
39
39
36
40
46
44
43
41
41
33
29
26
25
21
26
25
23
15
22
14
16
22
20
18
22
23
22
17
14
10
14
14
16
15
19
17
15
15
17
11
17
18
13
12
17
17
15
13
13
6
11
15
14
13
16
16
15
14
14
8
10
12
10
11
17
18
19
14
12
9
15
13
9
14
17
17
11
13
12
10
14
17
13
14
21
18
15
11
15
11
10
10
16
17
17
17
17
17
13
10
15
16
10
20
24
21
21
16
12
11
10
13
12
18
19
20
15
14
13
10
20
16
10
20
19
15
18
16
13
10
9
11
8
16
13
14
20
21
13
13
17
15
10
15
16
15
12
13
11
9
11
10
7
17
17
12
11
16
8
8
13
12
12
17
16
11
11
10
4
8
6
7
11
15
14
15
11
11
7
8
7
8
11
21
23
16
14
18
11
13
14
16
17
21
24
22
22
24
22
24
30
30
31
37
33
36
34
31
24
23
26
22
20
30
30
27
25
18
8
5
5
5
9
15
9
6
8
10
5
7
9
6
11
18
16
13
10
2
-2
2
5
3
4
13
10
6
7
6
2
6
10
6
7
10
11
10
12
6
6
4
3
5
8
5
2
9
20
19
26
45
65
81
107
128
138
147
156
160
160
147
132
118
98
80
50
21
10
1
-1
1
6
6
12
12
11
10
10
8
3
5
6
5
9
4
3
8
10
6
6
11
10
10
13
12
9
7
8
4
7
7
9
7
12
12
11
9
12
8
7
9
9
13
12
12
8
8
11
8
10
9
8
8
15
14
14
17
18
15
17
16
12
15
12
10
9
8
13
8
15
16
14
16
24
19
21
20
19
12
20
21
21
26
32
28
27
26
25
20
25
28
26
29
31
36
39
40
38
35
35
40
41
46
54
46
41
40
41
39
39
41
41
45
52
49
