-34
-33
-46
-48
-26
-30
-26
-24
-36
-47
-39
-33
-31
-31
-45
-43
-43
-40
-42
-40
-34
-46
-48
-39
-34
-41
-55
-43
-28
-43
-47
-38
-39
-41
-38
-36
-41
-33
-27
-21
-37
-37
-44
-42
-46
-44
-42
-27
-39
-26
-29
-37
-40
-33
-40
-44
-47
-37
-38
-42
-39
-36
-39
-38
-42
-44
-38
-48
-31
-48
-37
-37
-39
-32
-35
-35
-33
-43
-51
-31
-39
-41
-34
-44
-41
-43
-37
-38
-33
-26
-37
-52
-45
-41
-22
-28
-36
-37
-33
-32
-38
-28
-21
-18
-10
-19
-29
-20
-26
-31
-28
-36
-22
-21
-20
-28
-31
-32
-33
-40
-43
-49
-39
-40
-50
-50
-27
-34
-36
-38
-44
-48
-57
-45
-49
-55
-48
-41
-48
-41
-32
-36
-49
-45
-46
-47
-43
-47
-40
-45
-47
-47
-49
-48
-45
-45
-44
-51
-42
-49
-61
-56
-63
-63
-56
-57
-34
-25
-16
-8
20
50
48
64
83
91
79
60
49
35
-1
-32
-39
-60
-81
-87
-93
-80
-79
-64
-62
-65
-57
-43
-45
-43
-52
-45
-49
-51
-42
-37
-46
-39
-43
-61
-49
-24
-34
-49
-41
-53
-29
-39
-35
-39
-35
-40
-37
-41
-30
-33
-36
-33
-41
-29
-32
-39
-48
-35
-36
-31
-31
-44
-36
-39
-27
-29
-33
-33
-32
-32
-29
-36
-33
-25
-23
-18
-21
-33
-29
-19
-25
-28
-27
-27
-13
-24
-31
-5
3
-7
-9
-3
-9
-5
-9
-1
-5
-6
0
-1
19
28
23
14
15
18
16
18
22
28
24
24
20
24
38
26
39
38
35
39
42
30
24
29
13
18
14
22
17
0
-3
9
3
5
-1
-5
-16
-14
-3
-18
-26
-27
-23
-30
-30
-28
-35
-33
-37
-35
-40
-25
-37
-36
-34
-25
-31
-37
-51
-42
-48
-23
-32
-40
-35
-40
-44
-47
-38
-30
-47
-48
-47
-64
-43
-31
-51
-47
-48
-50
-42
-50
-62
-60
-47
-50
-42
-33
-50
-46
-47
-37
-30
-41
-41
-47
-53
-50
-46
-39
-41
-44
-43
-36
-29
-42
-44
-44
-35
-38
-36
-31
-46
-42
-41
-45
-42
-40
-36
-40
-38
-35
-42
-45
-32
-34
-41
-41
-39
-35
-45
-33
-39
-45
-35
-33
-46
-45
-44
-39
-41
-24
-25
-35
-33
-46
-39
-50
-47
-47
-48
-34
-20
-24
-38
-36
-40
-27
-43
-24
-22
-33
-33
-29
-34
-24
-32
-39
-24
-24
-25
-14
-25
-19
-27
-21
-26
-27
-26
-35
-35
-37
-30
-27
-30
-40
-38
-40
-37
-50
-34
-45
-48
-40
-41
-38
-43
-40
-43
-45
-44
-49
-39
-38
-39
-43
-51
-53
-34
-40
-46
-33
-35
-46
-42
-42
-44
-37
-45
-50
-38
-51
-46
-54
-59
-39
-41
-45
-60
-53
-38
-27
-18
-8
9
27
49
53
74
80
74
63
46
22
-1
-21
-32
-58
-84
-102
-105
-85
-86
-74
-68
-61
-58
-54
-50
-49
-43
-40
-35
-27
-44
-38
-39
-39
-40
-42
-41
-40
-38
-44
-44
-54
-23
-29
-36
-38
-33
-46
-30
-38
-29
-36
-20
-30
-32
-19
-28
-32
-39
-36
-34
-40
-36
-27
-25
-33
-30
-31
-30
-30
-30
-32
-29
-23
-31
-27
-33
-12
-21
-30
-33
-23
-34
-22
-16
-9
-20
-29
-20
-10
4
-13
-12
-12
-12
-7
-6
-5
0
13
10
18
7
4
22
19
15
10
28
29
33
39
26
29
31
36
27
37
26
32
25
22
36
47
34
21
13
29
14
15
17
17
12
3
-3
-11
-19
-30
-28
-9
-17
-26
-26
-30
-23
-34
-36
-30
-35
-33
-26
-25
-43
-46
-41
-42
-37
-37
-45
-38
-39
-37
-50
-58
-52
-21
-33
-37
-39
-32
-42
-43
-41
-39
-38
-42
-44
-48
-50
-50
-31
-38
-39
-53
-46
-36
-32
-48
-39
-43
-38
-36
-27
-44
-35
-27
-40
-53
-48
-38
-47
-38
-43
-40
-31
-48
-38
-33
-37
-32
-47
-44
-31
-34
-36
-40
-46
-45
-36
-42
-40
-42
-40
-43
-47
-41
-47
-39
-37
-39
-27
-42
-24
-27
-38
-44
-36
-19
-45
-39
-34
-49
-34
-40
-38
-34
-42
-38
-33
-29
-38
-50
-34
-34
-42
-48
-36
-43
-44
-36
-34
-32
-40
-38
-35
-43
-49
-37
-40
-36
-45
-41
-39
-36
-49
-35
-29
-34
-34
-38
-33
-37
-41
-33
-37
-31
-26
-18
-18
-33
-8
-12
-21
-19
-28
-37
-31
-33
-23
-28
-25
-20
-35
-42
-47
-33
-39
-31
-41
-40
-28
-39
-44
-41
-42
-41
-40
-33
-38
-40
-49
-46
-50
-49
-41
-45
-32
-34
-38
-36
-45
-36
-41
-42
-28
-46
-37
-31
-44
-57
-38
-36
-43
-42
-53
-54
-66
-58
-51
-35
-21
-16
-11
12
28
41
59
68
71
66
58
26
29
19
-11
-17
-49
-57
-67
-88
-68
-68
-58
-54
-40
-48
-29
-22
-47
-46
-39
-50
-37
-41
-44
-33
-39
-39
-37
-44
-37
-40
-40
-40
-39
-36
-39
-35
-34
-40
-44
-33
-32
-40
-32
-35
-41
-38
-36
-32
-34
-31
-38
-43
-43
-31
-27
-28
-31
-31
-38
-27
-32
-30
-22
-32
-29
-26
-46
-36
-34
-47
-27
-24
-25
-21
-27
-28
-15
-12
-22
-17
-20
-39
-19
-9
-14
1
-8
-11
-14
-13
-18
2
-3
0
-1
11
11
8
12
16
17
17
16
19
21
16
21
19
17
16
37
27
17
28
25
20
13
17
20
23
19
0
4
-15
-13
-7
1
-6
-17
-25
-17
-20
-25
-21
-26
-16
-24
-33
-29
-24
-33
-29
-41
-34
-32
-34
-28
-34
-41
-40
-35
-29
-42
-41
-35
-31
-37
-36
-31
-27
-31
-43
-41
-43
-45
-45
-34
-36
-32
-34
-32
-33
-39
-45
-31
-45
-31
-37
-44
-49
-33
-46
-23
-25
-37
-31
-32
-35
-36
-36
-33
-37
-35
-30
-36
-51
-43
-39
-45
-38
-29
-34
-40
-42
-30
-42
-47
-34
-30
-43
-31
-40
-43
-45
-36
-36
-38
-34
-30
-46
-26
-33
-52
-44
-32
-38
-53
-30
-31
-22
-28
-38
-39
-40
-41
-44
-53
-29
-30
-38
-35
-38
-32
-29
-32
-45
-34
-42
-45
-41
-33
-44
-44
-47
-47
-43
-32
-47
-34
-36
-44
-33
-36
-38
-38
-24
-34
-26
-31
-24
-35
-38
-43
-35
-28
-32
-30
-19
-14
-33
-34
-22
-20
-13
-13
-26
-17
-19
-19
-31
-24
-25
-29
-31
-35
-30
-31
-33
-36
-38
-47
-42
-54
-37
-37
-38
-35
-37
-41
-47
-38
-39
-44
-38
-33
-42
-45
-49
-49
-46
-36
-39
-57
-39
-35
-37
-41
-27
-38
-37
-44
-33
-28
-47
-52
-60
-54
-48
-52
-59
-52
-50
-22
-11
-6
21
31
44
58
70
86
75
62
45
35
13
-15
-32
-54
-56
-66
-78
-78
-80
-57
-52
-51
-51
-38
-42
-54
-40
-19
-42
-37
-40
-35
-39
-39
-42
-42
-37
-37
-34
-48
-44
-43
-32
-32
-41
-40
-28
-30
-38
-39
-34
-43
-47
-38
-22
-26
-37
-39
-29
-40
-33
-34
-37
-31
-36
-26
-30
-30
-34
-22
-40
-53
-34
-32
-20
-30
-27
-25
-22
-23
-21
-23
-21
-20
-28
-17
-17
-17
-22
-20
-24
-21
-21
-1
-5
-9
-14
-6
-6
5
1
4
12
7
8
12
6
13
26
23
22
23
22
16
33
37
46
32
29
35
21
21
26
15
11
33
32
25
26
13
13
3
6
-7
-1
1
-3
-12
-4
-21
-21
-22
-18
-26
-33
-18
-22
-21
-20
-29
-37
-31
-23
-31
-44
-28
-38
-28
-40
-46
-41
-39
-43
-45
-43
-34
-40
-27
-44
-39
-43
-23
-28
-27
-33
-43
-40
-45
-49
-49
-36
-31
-33
-35
-42
-44
-42
-33
-33
-46
-42
-36
-42
-50
-38
-27
-44
-30
-33
-38
-32
-35
-43
-40
-43
-33
-43
-39
-50
-40
-22
-31
-35
-40
-36
-46
-30
-53
-41
-39
-36
-41
-37
-47
-44
-33
-32
-40
-30
-32
-30
-37
-36
-56
-42
-35
-39
-34
-38
-49
-38
-34
-49
-37
-36
-37
-41
-33
-35
-52
-34
-38
-41
-40
-48
-39
-45
-31
-28
-40
-40
-42
-45
-36
-28
-41
-38
-29
-27
-34
-31
-39
-39
-43
-44
-28
-35
-35
-29
-42
-34
-28
-17
-19
-23
-24
-22
-25
-27
-33
-24
-25
-25
-34
-30
-23
-17
-36
-35
-44
-55
-43
-47
-41
-46
-32
-40
-46
-50
-47
-38
-49
-46
-53
-54
-42
-52
-43
-39
-42
-46
-49
-44
-41
-41
-49
-54
-35
-38
-43
-53
-51
-47
-49
-42
-52
-46
-55
-54
-54
-61
-60
-64
-59
-52
-41
-36
-22
2
33
51
69
84
86
94
82
53
38
8
-15
-21
-56
-57
-71
-86
-83
-80
-76
-67
-63
-63
-38
-47
-44
-35
-36
-39
-54
-47
-47
-38
-49
-46
-45
-43
-47
-49
-44
-46
-30
-36
-34
-35
-40
-30
-35
-40
-40
-35
-37
-41
-28
-43
-45
-38
-38
-46
-62
-35
-17
-25
-27
-31
-37
-40
-31
-25
-25
-29
-32
-29
-36
-27
-22
-24
-26
-31
-26
-31
-10
-22
-31
-30
-24
-28
-22
-12
-15
-8
-16
-8
0
-10
-7
0
-6
4
-1
-4
7
15
18
9
19
15
30
26
23
29
26
25
28
33
23
31
30
37
35
33
32
31
31
31
29
23
24
25
27
22
8
-7
1
0
-5
-7
0
-7
-20
-26
-22
-23
-31
-34
-34
-27
-29
-33
-35
-38
-38
-35
-33
-40
-55
-42
-44
-38
-37
-45
-41
-40
-35
-44
-38
-35
-46
-50
-47
-49
-41
-39
-45
-59
-42
-42
-43
-46
-41
-35
-43
-51
-47
-53
-36
-58
-33
-32
-42
-29
-41
-38
-36
-47
-43
-42
-42
-37
-52
-51
-48
-52
-55
-34
-34
-39
-41
-36
-32
-23
-30
-42
-46
-46
-44
-47
-36
-41
-40
-42
-44
-44
-41
-43
-43
-40
-46
-39
-44
-35
-38
-47
-44
-40
-36
-39
-38
-48
-43
-44
-33
-36
-23
-36
-52
-42
-36
-34
-42
-40
-40
-39
-29
-34
-29
-31
-27
-31
-18
-3
-24
-27
-15
-27
-26
-25
-21
-23
-47
-37
-29
-25
-31
-36
-31
-33
-35
-50
-42
-42
-37
-41
-41
-47
-47
-45
-44
-54
-48
-43
-32
-40
-47
-48
-47
-41
-55
-60
-37
-49
-40
-43
-50
-51
-54
-52
-50
-46
-48
-40
-39
-55
-53
-57
-40
-38
-46
-49
-58
-51
-44
-48
-42
-23
-28
-7
6
23
52
65
72
94
84
61
39
17
-10
-30
-52
-64
-98
-113
-116
-103
-90
-90
-80
-80
-75
-57
-60
-64
-52
-52
-50
-40
-45
-55
-45
-39
-42
-48
-44
-31
-40
-45
-39
-36
-38
-45
-45
-48
-51
-50
-43
-42
-46
-38
-34
-43
-47
-34
-33
-43
-36
-44
-32
-37
-37
-39
-27
-26
-31
-44
-39
-34
-25
-25
-20
-22
-35
-32
-33
-26
-31
-30
-19
-14
-15
-11
-22
-27
-21
-6
-11
-1
-20
3
-15
-10
-6
-10
-10
5
9
15
4
18
20
12
21
31
18
18
28
34
29
37
39
38
39
48
42
39
40
35
34
36
22
16
37
38
29
19
24
24
19
10
1
-5
-4
-13
-6
-7
-13
-18
-19
-29
-31
-23
-33
-44
-32
-39
-34
-47
-34
-42
-43
-32
-38
-46
-44
-48
-44
-45
-41
-38
-36
-39
-47
-42
-44
-39
-44
-50
-44
-54
-42
-45
-42
-30
-47
-45
-46
-49
-41
-42
-51
-50
-35
-35
-53
-50
-19
-32
-48
-54
-49
-43
-41
-44
-47
-50
-34
-34
-31
-30
-42
-44
-41
-43
-46
-37
-36
-38
-34
-45
-44
-46
-49
-46
-47
-28
-45
-33
-38
-51
-56
-32
-33
-38
-39
-42
-36
-36
-48
-49
-49
-48
-49
-44
-35
-30
-44
-38
-32
-47
-33
-43
-48
-34
-38
-30
-41
-38
-34
-21
-34
-27
-18
-18
-27
-40
-18
-24
-30
-36
-38
-37
-32
-39
-33
-35
-47
-38
-51
-50
-45
-49
-47
-43
-50
-41
-48
-55
-47
-51
-37
-48
-51
-40
-32
-40
-56
-49
-42
-44
-37
-50
-58
-52
-53
-41
-48
-34
-55
-52
-48
-43
-36
-49
-45
-39
-53
-53
-59
-62
-63
-63
-59
-61
-42
-35
-24
-7
12
35
44
56
84
99
91
69
48
39
0
-27
-38
-66
-82
-93
-77
-81
-83
-91
-75
-74
-62
-49
-43
-42
-48
-46
-39
-49
-47
-39
-42
-51
-56
-39
-42
-45
-46
-52
-49
-40
-33
-40
-46
-57
-44
-47
-47
-41
-49
-42
-45
-40
-44
-37
-47
-51
-35
-32
-31
-27
-48
-49
-37
-35
-30
-41
-36
-40
-36
-38
-43
-39
-28
-39
-37
-33
-37
-24
-25
-34
-25
-40
-29
-25
-21
-34
-29
-23
-18
-7
5
9
9
11
1
15
20
17
19
18
24
17
17
28
29
20
24
25
32
33
20
29
12
18
16
16
9
15
3
-1
8
3
-18
-10
-16
-22
-28
-20
-19
-47
-23
-35
-35
-42
-35
-37
-46
-45
-44
-39
-43
-45
-41
-37
-44
-47
-46
-48
-38
-46
-54
-47
-45
-39
-43
-43
-41
-52
-33
-35
-40
-56
-58
-54
-56
-50
-46
-42
-49
-46
-36
-35
-45
-55
-42
-46
-45
-44
-48
-53
-47
-39
-40
-39
-47
-40
-43
-44
-47
-41
-43
-44
-40
-41
-41
-37
-28
-34
-49
-39
-33
-38
-51
-43
-44
-37
-49
-46
-36
-45
-38
-30
-38
-42
-41
-31
-45
-41
-47
-46
-50
-35
-42
-39
-35
-30
-33
-44
-42
-36
-31
-34
-31
-16
-23
-25
-30
-35
-22
-33
-26
-17
-23
-17
-17
-38
-48
-44
-42
-38
-44
-43
-40
-34
-44
-47
-48
-51
-49
-51
-38
-32
-36
-35
-50
-53
-53
-51
-35
-52
-56
-50
-43
-32
-41
-50
-49
-50
-37
-51
-49
-49
-53
-46
-49
-57
-49
-50
-44
-42
-42
-45
-55
-65
-63
-57
-60
-66
-56
-29
-26
-15
-16
3
48
49
66
82
99
94
62
48
31
1
-23
-48
-71
-78
-87
-82
-77
-81
-69
-63
-69
-52
-53
-48
-44
-45
-49
-52
-45
-53
-46
-47
-31
-32
-42
-46
-64
-47
-42
-32
-37
-38
-43
-39
-43
-45
-40
-36
-34
-60
-37
-41
-40
-31
-40
-38
-34
-40
-32
-29
-38
-39
-35
-36
-22
-35
-41
-38
-32
-29
-19
-31
-34
-34
-39
-35
-36
-28
-32
-17
-32
-31
-27
-33
-19
-28
-29
-20
-5
-14
-19
-24
-18
-18
-13
-9
0
7
4
1
5
11
13
18
18
13
5
16
22
28
19
29
26
38
29
31
37
23
19
23
33
30
12
2
23
24
25
16
16
-4
-14
-3
-4
-8
-8
-15
-25
-23
-16
-19
-20
-31
-32
-31
-36
-29
-36
-32
-41
-49
-37
-31
-35
-35
-49
-49
-44
-33
-37
-44
-36
-37
-53
-43
-38
-44
-53
-41
-32
-40
-37
-42
-41
-51
-55
-42
-27
-29
-33
-32
-37
-46
-51
-43
-37
-33
-32
-34
-45
-50
-40
-34
-47
-44
-35
-45
-48
-42
-41
-37
-39
-35
-50
-52
-41
-32
-27
-37
-44
-45
-41
-35
-41
-53
-35
-30
-39
-30
-35
-48
-52
-46
-51
-39
-33
-32
-36
-34
-37
-36
-31
-49
-46
-45
-46
-49
-39
-37
-31
-40
-44
-41
-33
-38
-42
-37
-31
-35
-29
-36
-37
-15
-20
-19
-22
-25
-35
-26
-26
-23
-30
-30
-30
-34
-38
-33
-51
-42
-35
-50
-40
-36
-36
-46
-49
-42
-42
-42
-48
-52
-47
-45
-45
-47
-54
-53
-46
-49
-46
-44
-45
-46
-41
-54
-54
-45
-35
-37
-40
-36
-39
-48
-50
-46
-49
-35
-40
-46
-58
-72
-67
-76
-57
-51
-40
-31
-30
-9
19
32
60
71
95
127
94
70
57
32
2
-20
-53
-68
-80
-85
-79
-79
-72
-59
-53
-67
-63
-46
-48
-57
-43
-44
-41
-53
-37
-39
-47
-28
-31
-33
-44
-46
-45
-34
-50
-37
-34
-38
-40
-32
-32
-35
-31
-44
-32
-32
-42
-49
-37
-32
-27
-36
-47
-37
-29
-28
-32
-30
-43
-29
-31
-36
-38
-31
-42
-24
-25
-26
-35
-37
-32
-28
-27
-14
-20
-33
-11
-14
-29
-12
-20
-31
-30
-19
-11
-12
-10
-8
-5
-6
8
8
2
7
-1
7
8
9
10
13
18
24
27
20
21
21
26
31
29
26
34
27
31
27
30
28
27
29
35
30
14
22
7
21
10
1
-4
-10
-18
-8
-2
-3
-15
-16
-20
-19
-26
-28
-31
-28
-21
-33
-20
-40
-39
-36
-39
-50
-39
-34
-26
-41
-38
-25
-41
-52
-38
-36
-25
-38
-46
-26
-27
-34
-39
-35
-45
-54
-30
-48
-57
-28
-35
-30
-42
-51
-37
-48
-34
-28
-41
-36
-26
-34
-38
-48
-40
-43
-27
-34
-47
-38
-35
-34
-36
-55
-37
-28
-31
-31
-51
-30
-35
-35
-41
-51
-44
-44
-36
-35
-37
-31
-52
-60
-33
-39
-50
-46
-50
-35
-36
-45
-47
-42
-41
-42
-41
-48
-37
-43
-47
-43
-46
-52
-46
-46
-36
-31
-41
-47
-44
-45
-40
-56
-45
-45
-44
-27
-41
-27
-25
-31
-34
-29
-29
-33
-23
-32
-24
-35
-41
-34
-38
-47
-44
-35
-41
-39
-47
-44
-55
-49
-53
-49
-51
-52
-40
-48
-50
-53
-46
-64
-41
-43
-55
-57
-65
-40
-54
-49
-49
-51
-56
-52
-47
-51
-44
-46
-58
-55
-49
-40
-38
-39
-50
-59
-54
-43
-62
-64
-74
-83
-72
-74
-63
-57
-57
-26
13
21
44
54
68
85
115
116
90
60
44
7
-13
-33
-67
-69
-73
-96
-102
-85
-74
-63
-50
-47
-51
-58
-61
-57
-53
-56
-60
-53
-35
-47
-47
-42
-45
-54
-56
-45
-58
-40
-40
-35
-39
-45
-43
-37
-45
-50
-47
-46
-46
-43
-34
-40
-39
-37
-42
-48
-37
-45
-39
-34
-37
-46
-30
-34
-37
-49
-47
-49
-38
-29
-33
-34
-25
-28
-31
-30
-29
-37
-47
-28
-21
-15
-21
-15
-26
-25
-27
-12
-17
-20
-22
-19
-10
7
-8
4
-6
6
8
15
5
-1
11
4
22
23
19
18
28
37
22
22
22
26
36
35
42
25
26
9
5
47
31
14
17
19
14
11
-1
10
-3
-16
1
-7
-13
-21
-23
-31
-29
-15
-37
-34
-26
-33
-27
-34
-31
-31
-30
-30
-32
-44
-41
-49
-46
-45
-39
-47
-36
-39
-32
-45
-39
-43
-49
-36
-34
-34
-43
-54
-53
-41
-45
-41
-50
-50
-32
-32
-34
-44
-35
-36
-33
-50
-32
-46
-34
-30
-37
-45
-30
-38
-49
-33
-35
-42
-34
-31
-39
-41
-34
-47
-43
-36
-43
-34
-46
-42
-39
-36
-36
-30
-40
-45
-39
-34
-27
-30
-34
-44
-45
-33
-46
-39
-40
-44
-40
-42
-33
-24
-39
-31
-42
-45
-47
-38
-22
-19
-31
-36
-43
-33
-29
-37
-22
-33
-42
-28
-37
-35
-29
-31
-23
-21
-15
-21
-17
-20
-27
-17
-7
-3
-17
-26
-21
-33
-25
-20
-28
-24
-37
-53
-40
-31
-40
-43
-36
-42
-46
-43
-33
-43
-48
-47
-44
-55
-52
-30
-38
-47
-53
-45
-47
-53
-42
-36
-43
-38
-40
-39
-37
-42
-43
-46
-44
-38
-40
-45
-40
-46
-53
-52
-63
-66
-62
-62
-67
-63
-54
-35
-24
1
38
47
59
75
103
129
130
97
83
63
29
-14
-41
-39
-68
-75
-72
-70
-68
-73
-64
-54
-50
-47
-45
-40
-42
-36
-42
-55
-32
-45
-52
-44
-42
-43
-52
-41
-40
-44
-33
-39
-32
-40
-43
-37
-33
-24
-39
-49
-36
-36
-48
-43
-23
-34
-31
-38
-41
-23
-40
-27
-28
-35
-39
-34
-32
-38
-35
-44
-34
-20
-43
-46
-28
-17
-32
-30
-26
-28
-28
-27
-16
-23
-18
-20
-22
-28
-37
-19
-1
-13
-15
-8
4
-13
-3
15
-3
-8
4
11
7
5
7
13
26
35
24
17
15
16
9
24
36
30
33
28
38
28
30
27
33
33
23
23
27
31
5
0
15
13
-1
-7
-2
-9
-10
-9
-20
-13
-13
-23
-26
-31
-26
-32
-37
-45
-17
-28
-29
-47
-24
-33
-40
-33
-31
-35
-51
-42
-34
-38
-35
-39
-41
-38
-36
-45
-46
-42
-55
-40
-31
-30
-33
-52
-42
-44
-44
-40
-32
-46
-45
-37
-43
-37
-46
-34
-40
-43
-47
-40
-40
-37
-38
-49
-35
-32
-36
-44
-35
-44
-44
-37
-17
-38
-54
-48
-40
-45
-44
-44
-42
-39
-37
-32
-48
-43
-56
-44
-44
-33
-47
-46
-46
-44
-36
-47
-35
-40
-38
-47
-42
-48
-39
-38
-45
-42
-36
-35
-44
-53
-48
-41
-54
-36
-43
-45
-31
-39
-36
-32
-32
-34
-30
-38
-39
-34
-26
-30
-20
-36
-30
-21
-22
-16
-13
-27
-36
-9
1
-15
-21
-32
-32
-38
-38
-31
-33
-34
-41
-46
-35
-45
-50
-36
-44
-46
-36
-36
-39
-42
-45
-48
-42
-46
-47
-31
-40
-44
-36
-43
-33
-39
-42
-48
-45
-39
-44
-38
-36
-44
-39
-34
-33
-38
-32
-43
-38
-45
-60
-60
-59
-61
-52
-50
-45
-29
-19
2
44
65
88
98
116
127
133
109
83
71
32
3
-21
-50
-64
-86
-75
-59
-58
-56
-60
-34
-37
-44
-40
-35
-37
-35
-41
-29
-33
-26
-31
-42
-32
-36
-33
-34
-25
-34
-32
-34
-27
-21
-31
-26
-33
-37
-32
-25
-31
-30
-25
-23
-22
-31
-23
-28
-26
-14
-19
-25
-23
-28
-20
-21
-12
-30
-27
-27
-26
-11
-27
-14
-17
-19
-26
-17
-17
-6
-8
-11
-22
-14
-11
-5
-11
-9
-12
-2
15
5
1
9
18
8
3
7
14
12
17
21
9
8
35
34
34
25
29
40
40
32
37
41
46
39
42
40
39
55
46
40
41
38
38
28
18
41
11
18
19
7
14
24
12
10
-2
-3
-12
-7
1
-3
-6
-31
-15
-21
-34
-17
-24
-29
-30
-27
-29
-26
-36
-36
-34
-35
-21
-40
-39
-23
-24
-21
-34
-33
-34
-30
-39
-29
-26
-26
-34
-33
-31
-35
-27
-33
-33
-45
-44
-14
-28
-25
-43
-21
-20
-37
-48
-36
-18
-29
-29
-36
-31
-40
-41
-32
-34
-33
-36
-31
-28
-32
-30
-36
-39
-33
-27
-39
-35
-28
-31
-35
-38
-35
-32
-35
-39
-36
-19
-34
-37
-31
-26
-25
-48
-43
-37
-31
-32
-30
-27
-38
-33
-31
-32
-29
-23
-43
-25
-25
-34
-35
-24
-24
-33
-31
-27
-32
-27
-11
-21
-21
-11
-15
-25
-16
-18
-15
-16
-23
-21
-27
-29
-33
-33
-43
-34
-38
-39
-40
-40
-34
-34
-39
-44
-32
-35
-39
-34
-43
-33
-29
-37
-33
-48
-40
-38
-31
-40
-37
-48
-53
-41
-36
-36
-44
-45
-34
-29
-29
-35
-29
-39
-48
-50
-44
-34
-42
-60
-50
-54
-47
-57
-64
-58
-31
-20
11
18
42
54
68
84
89
89
82
70
47
9
-14
-35
-52
-62
-93
-100
-93
-83
-71
-75
-63
-57
-56
-40
-46
-42
-34
-58
-50
-35
-40
-44
-44
-35
-35
-38
-45
-35
-33
-36
-47
-51
-39
-28
-33
-41
-39
-31
-24
-36
-30
-41
-36
-39
-34
-29
-26
-37
-41
-29
-30
-35
-25
-21
-32
-36
-36
-32
-27
-17
-27
-37
-29
-33
-34
-22
-28
-33
-26
-17
-24
-24
-20
-13
-26
-20
-12
-14
-10
-13
-8
-12
-16
-6
-4
-10
6
6
9
13
14
13
23
17
25
21
17
34
36
35
33
22
30
39
45
35
45
39
43
42
42
30
19
30
26
35
33
21
8
2
3
5
7
-7
-8
-8
-3
-13
-23
-23
-30
-7
-13
-33
-26
-26
-26
-29
-22
-33
-42
-35
-30
-42
-39
-35
-32
-39
-36
-29
-33
-31
-27
-30
-34
-34
-45
-47
-45
-41
-42
-48
-33
-32
-39
-33
-28
-41
-47
-50
-36
-30
-35
-37
-40
-43
-26
-41
-42
-34
-45
-45
-33
-31
-31
-29
-38
-26
-30
-36
-47
-41
-33
-38
-34
-47
-51
-31
-30
-28
-30
-29
-43
-25
-30
-30
-28
-26
-40
-46
-44
-29
-40
-37
-28
-51
-32
-36
-34
-29
-23
-34
-37
-33
-35
-30
-29
-26
-26
-30
-32
-28
-27
-25
-41
-26
-14
-18
-33
-24
-13
-9
-10
-15
-36
-17
-12
-11
-27
-24
-27
-32
-16
-18
-32
-34
-33
-37
-26
-32
-39
-38
-30
-30
-42
-42
-30
-34
-32
-28
-35
-37
-32
-30
-29
-32
-44
-37
-46
-30
-28
-34
-33
-36
-44
-33
-30
-31
-26
-31
-39
-38
-29
-36
-36
-20
-26
-45
-57
-57
-55
-50
-38
-21
-21
-10
8
29
51
72
86
91
106
104
84
62
55
30
4
-30
-54
-58
-61
-71
-67
-47
-53
-36
-34
-35
-31
-34
-38
-20
-23
-24
-29
-25
-18
-31
-30
-14
-19
-24
-25
-24
-20
-21
-26
-14
-18
-17
-27
-23
-18
-19
-13
-21
-16
-13
-7
-23
-23
-13
-7
-18
-7
-6
-16
-7
-9
-6
-15
-2
-5
-17
-12
-7
-5
-9
-5
-4
4
-4
6
-3
5
2
0
4
-4
0
-1
20
20
2
-1
8
24
27
16
19
21
31
20
31
31
31
35
32
42
52
47
43
41
45
57
48
57
60
58
46
62
62
70
59
65
71
60
62
70
69
61
51
52
35
41
37
22
30
57
42
31
25
26
24
31
7
3
21
20
14
13
8
2
8
10
16
6
1
1
8
-1
0
1
27
22
8
8
10
8
2
3
13
9
13
14
25
18
16
14
5
4
14
10
12
20
15
8
23
23
19
11
24
17
20
27
19
18
25
23
27
23
26
19
13
14
12
20
19
25
24
27
25
31
22
36
44
26
14
23
21
22
32
26
29
27
21
27
22
31
29
39
37
34
35
19
20
34
34
39
35
32
27
32
35
35
34
35
37
27
34
31
34
34
45
36
37
36
41
38
37
35
35
49
45
42
47
55
49
47
56
64
61
56
58
47
52
45
51
46
43
46
54
45
36
44
48
43
41
31
39
45
47
35
41
39
41
37
38
42
49
30
51
38
36
48
48
41
45
36
42
46
51
38
39
53
47
51
54
43
46
46
57
51
51
41
41
40
28
30
25
38
41
61
66
86
100
125
140
158
177
189
193
179
153
152
100
95
74
49
37
20
22
27
28
25
38
48
55
44
59
58
56
60
78
64
64
61
71
67
67
73
67
67
55
56
67
62
65
72
72
70
68
65
77
67
67
74
66
75
72
73
82
78
77
74
81
81
77
75
87
83
86
74
78
83
85
70
76
96
85
81
92
79
85
100
103
92
88
90
107
103
92
96
97
101
94
109
113
108
125
117
113
115
123
113
131
122
121
134
134
136
143
136
140
134
138
149
150
160
158
155
150
143
166
162
167
155
146
148
158
154
151
153
129
133
131
134
138
144
130
125
119
110
119
115
115
111
111
109
117
103
90
90
111
119
109
103
94
95
105
114
108
110
110
105
106
102
102
101
100
99
114
114
101
102
105
106
103
108
110
100
101
113
119
117
103
97
100
117
118
98
104
119
120
111
99
118
116
109
110
115
110
110
116
103
119
122
116
118
111
102
116
119
114
113
109
115
121
122
114
106
114
120
117
114
126
110
121
126
116
118
124
127
115
119
116
128
125
115
115
131
120
119
121
116
124
123
127
118
128
126
130
128
112
124
123
124
124
135
129
124
127
137
128
123
119
120
125
124
128
126
128
136
132
130
119
119
135
131
129
123
143
132
118
129
133
131
142
133
127
134
140
143
141
129
131
144
131
141
145
150
144
150
142
143
137
145
156
141
137
147
150
138
141
140
135
128
137
139
139
133
129
129
127
143
129
136
142
132
129
134
136
129
132
136
123
126
144
136
125
126
143
138
141
133
134
141
139
125
136
136
131
142
136
133
139
140
132
128
128
118
108
124
120
137
164
171
175
203
215
235
256
273
272
278
265
239
220
174
161
136
109
118
123
107
108
124
116
122
143
139
140
149
150
137
135
139
145
141
145
142
142
144
155
151
149
153
147
155
155
155
163
141
165
158
144
144
142
168
155
154
162
154
150
165
149
153
159
166
163
155
154
157
149
156
155
151
154
161
163
160
165
163
165
155
159
159
159
174
175
174
172
168
173
163
165
181
177
191
174
180
165
186
191
185
187
194
200
192
197
196
193
206
208
202
219
208
211
220
223
217
207
217
224
217
221
217
223
222
217
222
220
218
213
205
216
218
221
213
202
198
211
194
182
178
194
182
179
179
183
177
169
167
171
164
169
180
164
159
163
163
166
170
162
169
153
160
174
168
171
165
156
155
157
173
177
166
160
164
154
165
161
169
155
160
169
173
153
169
163
165
167
160
169
170
166
170
162
159
167
172
160
166
161
167
168
168
179
161
162
163
171
177
165
162
166
173
169
163
160
164
170
174
170
168
170
169
179
168
162
177
160
168
163
165
163
178
177
170
165
170
175
168
164
161
168
170
166
172
180
172
160
177
176
178
182
189
177
167
157
175
171
177
173
164
174
159
193
172
170
185
174
171
180
180
173
171
173
181
181
177
180
179
168
163
177
175
170
185
179
179
176
167
176
183
171
168
178
169
176
175
179
183
177
180
173
174
180
182
180
175
179
179
189
178
173
181
188
186
195
196
195
193
194
190
182
196
197
189
183
197
188
191
191
189
191
185
177
166
177
170
178
180
174
171
167
170
169
173
182
182
170
177
188
185
166
169
177
186
178
169
185
181
185
185
187
179
171
174
177
180
177
184
181
169
182
177
163
153
162
165
174
174
178
185
199
211
254
271
267
283
291
302
321
322
279
268
245
216
200
184
175
161
165
146
147
151
173
174
181
184
186
183
191
183
183
185
192
186
180
188
190
191
182
183
202
189
198
193
194
194
175
197
196
193
195
199
198
201
187
193
192
192
192
211
198
210
211
200
207
202
212
207
205
193
193
207
195
203
204
214
210
204
194
210
206
214
220
215
215
208
211
210
220
221
223
232
222
229
238
233
220
234
230
232
232
243
246
249
242
238
263
253
253
260
261
268
255
266
267
262
262
282
282
279
275
280
276
277
276
280
269
270
272
273
271
270
268
262
262
257
246
248
247
233
233
237
237
237
239
228
212
228
228
214
225
221
216
208
228
231
215
209
213
218
220
225
216
212
206
188
207
222
228
225
219
215
214
215
207
213
209
222
218
219
219
203
206
216
212
202
202
220
222
215
214
224
206
208
211
207
219
205
218
215
212
217
207
208
222
224
208
199
214
209
218
220
211
212
212
220
213
211
215
215
215
210
216
225
216
215
210
210
205
220
219
210
211
219
206
208
203
220
213
208
217
218
211
219
215
218
215
214
215
218
217
220
213
209
210
212
217
213
208
213
219
222
218
216
209
207
205
213
198
223
221
216
215
214
213
228
209
222
220
215
220
216
197
203
221
221
208
218
220
219
227
209
215
217
223
209
219
229
231
226
221
214
217
243
236
231
229
237
230
227
242
231
222
215
225
223
221
220
220
222
210
210
214
219
215
206
220
214
211
208
222
217
206
200
217
210
205
201
211
215
215
196
210
213
213
208
211
213
214
202
213
208
213
221
210
212
203
211
200
202
202
193
190
194
201
211
224
236
270
299
305
320
327
347
361
351
325
312
283
252
226
216
196
176
164
173
181
196
186
193
207
216
203
207
213
204
197
222
222
218
215
221
218
222
205
213
222
216
219
205
203
218
215
210
219
218
226
223
206
204
207
227
224
227
215
233
223
221
228
214
217
211
220
221
221
229
222
235
231
230
229
223
227
235
238
224
230
241
234
233
230
232
237
241
230
238
235
233
244
255
246
258
250
247
258
255
262
256
261
265
276
270
277
273
280
284
284
285
299
297
281
284
290
291
292
287
290
292
305
299
296
300
289
286
282
281
281
280
296
270
281
277
259
262
258
269
250
247
245
250
243
240
240
251
243
234
228
230
236
239
232
230
222
225
239
235
229
230
227
226
227
220
220
235
239
236
229
240
225
226
227
229
219
220
236
226
226
239
234
233
230
231
233
230
231
227
240
240
232
240
228
234
229
229
241
232
222
218
250
238
244
233
238
240
228
229
236
234
228
234
238
235
233
228
234
232
232
240
233
237
240
235
238
232
230
232
226
233
245
230
233
237
237
240
229
239
243
237
243
241
236
237
230
236
239
238
237
239
238
239
238
242
238
247
238
237
236
240
239
232
232
237
240
232
238
239
244
240
244
237
246
246
247
239
238
242
241
228
247
242
257
253
240
243
256
261
255
256
261
263
262
259
258
259
259
253
253
259
261
243
247
257
254
247
235
244
239
241
236
238
235
236
235
234
235
244
248
236
234
231
231
233
226
256
244
248
251
230
239
236
231
230
241
238
238
240
241
229
239
246
248
247
235
233
219
222
229
214
219
224
234
245
269
284
308
327
352
368
392
414
397
370
347
328
290
270
244
229
200
176
172
180
189
201
200
196
217
224
224
219
227
221
242
247
238
234
236
237
235
241
243
240
238
233
236
246
235
235
249
260
249
244
243
247
248
244
238
241
238
241
246
250
243
247
252
249
236
245
250
247
238
247
259
268
243
248
248
249
238
265
255
259
258
256
256
260
259
270
259
267
266
262
274
279
275
265
279
277
270
274
285
292
286
290
299
292
296
296
291
308
306
310
306
309
314
318
307
319
320
314
321
328
326
315
314
320
334
322
313
318
328
315
300
291
299
303
297
290
274
278
278
280
272
274
269
269
270
261
248
246
249
241
247
258
255
260
254
259
251
256
246
242
243
240
241
246
251
249
244
247
244
242
245
245
244
249
249
246
249
240
234
238
241
239
252
251
255
245
240
240
240
234
241
253
246
254
250
243
239
254
250
249
246
248
241
227
241
248
248
254
250
242
244
253
240
255
256
248
250
251
247
241
245
248
246
245
240
249
248
248
245
258
245
243
247
247
250
237
235
253
237
248
254
248
250
240
237
247
260
244
239
252
239
229
266
256
240
262
261
248
234
244
250
251
248
249
256
253
258
253
246
263
266
261
265
279
261
262
258
254
247
255
257
259
260
251
246
242
238
233
241
245
241
242
247
230
238
238
233
233
246
243
248
243
245
249
233
234
231
239
234
227
243
246
243
239
238
231
243
233
235
244
244
242
233
232
235
237
230
216
220
223
230
227
250
259
270
291
308
327
348
350
384
392
370
350
332
308
274
261
233
211
194
193
192
208
221
215
216
231
234
231
234
233
251
243
246
246
234
238
239
238
243
257
247
241
244
248
243
235
243
238
257
256
250
242
243
245
251
248
235
236
247
245
239
241
250
253
247
250
242
248
248
249
257
259
256
250
253
253
253
257
259
253
252
253
244
246
253
272
262
255
256
252
257
268
282
279
276
281
284
272
281
279
277
274
277
286
283
299
304
302
304
300
302
304
311
310
310
310
319
321
316
304
320
316
316
311
321
321
314
323
315
318
305
294
300
303
293
296
295
290
281
275
275
280
271
255
261
264
252
250
258
250
244
256
257
258
258
249
252
243
253
231
246
248
255
236
245
252
245
243
248
262
250
236
231
248
249
242
239
243
254
230
250
250
235
241
240
244
241
246
244
238
243
236
230
254
258
248
252
244
251
245
242
244
231
243
242
246
241
248
247
248
240
247
246
239
235
234
243
251
245
245
242
254
239
245
247
253
244
238
246
233
242
248
245
233
248
242
235
248
260
250
239
239
245
245
247
237
250
237
236
239
241
239
250
237
244
238
244
240
241
241
240
239
253
241
237
246
248
235
253
239
240
265
256
253
265
269
262
251
253
254
248
262
252
244
250
251
250
239
235
241
229
232
234
238
237
243
242
235
232
233
234
234
220
242
247
240
229
235
227
217
239
233
231
229
229
231
234
231
237
230
231
238
238
224
224
231
224
229
241
234
229
229
221
209
208
210
205
217
227
240
262
287
303
316
335
356
374
368
358
330
306
296
270
237
218
207
208
197
194
193
201
195
207
219
221
229
234
234
226
221
232
231
229
221
228
235
224
231
230
228
238
238
234
235
225
220
232
235
231
226
234
241
238
231
221
234
230
220
222
220
239
241
233
236
228
229
224
234
239
239
246
248
240
230
230
231
228
236
247
244
243
237
233
240
238
239
249
241
239
255
253
250
253
253
254
249
259
259
262
258
250
268
278
282
275
280
280
282
288
291
294
284
283
285
290
290
293
294
309
299
294
285
295
300
303
304
301
282
286
277
280
276
269
257
269
253
260
265
255
255
247
240
243
246
243
234
231
226
234
237
227
222
227
225
224
221
232
229
235
233
232
218
215
225
215
212
235
232
221
222
232
233
235
225
209
209
215
232
226
216
229
208
220
221
213
237
221
221
219
226
234
221
212
217
224
219
227
231
220
223
222
218
212
215
216
226
218
225
222
228
229
224
215
213
220
213
217
219
218
214
213
216
220
214
226
213
214
212
229
223
231
218
210
204
223
224
223
220
233
231
219
210
222
224
221
232
223
215
220
207
204
219
222
222
220
214
208
213
213
217
216
209
219
216
220
232
216
220
209
219
227
218
222
215
213
216
230
229
231
217
230
232
233
231
228
233
233
232
229
225
230
229
227
217
210
219
232
224
220
217
221
212
201
211
217
221
209
196
220
216
211
207
201
206
206
201
203
214
207
203
206
211
202
210
210
209
213
204
200
215
214
211
209
203
211
217
202
200
199
201
195
189
200
188
179
193
214
216
235
258
286
298
321
344
355
360
352
308
303
279
244
213
206
182
171
165
159
169
169
180
179
191
193
199
197
199
211
210
206
207
207
206
192
204
209
207
198
205
214
206
207
192
212
216
207
217
212
205
212
204
200
214
212
204
207
219
216
209
201
202
217
213
206
222
214
211
217
213
209
213
215
211
214
215
210
210
215
215
217
222
212
226
225
212
206
229
221
234
242
237
229
237
219
239
240
239
239
251
255
248
250
246
255
265
260
257
267
275
267
268
271
267
263
271
287
280
281
274
283
271
281
278
274
278
276
272
271
266
258
265
253
257
248
249
250
241
256
246
223
223
217
213
211
212
223
211
220
213
205
207
206
208
205
198
208
203
208
205
204
191
202
200
208
200
196
200
201
209
201
210
205
210
200
200
197
192
189
198
203
200
193
192
198
203
197
191
200
200
199
210
203
198
196
195
204
187
207
200
198
214
202
214
210
199
189
205
198
200
201
210
205
199
197
199
202
204
204
194
197
192
198
202
205
202
200
192
205
206
195
198
194
199
196
193
193
202
197
195
200
196
189
198
199
201
201
188
195
197
209
202
199
193
202
205
203
190
195
202
207
211
203
196
202
195
212
211
210
213
208
208
222
219
219
224
215
211
207
216
213
207
203
192
207
202
208
202
207
203
197
190
190
184
193
190
195
191
180
180
193
198
198
202
198
195
198
198
193
187
186
191
182
195
193
189
191
187
191
193
190
192
193
191
193
188
182
181
182
171
176
171
177
190
193
210
227
247
271
292
302
324
334
340
311
282
268
233
231
200
182
147
143
149
149
137
144
170
172
173
179
174
187
185
183
188
181
186
193
194
190
188
191
185
188
194
192
197
195
187
188
205
202
188
183
195
192
187
197
194
188
187
188
197
200
190
201
199
189
186
191
191
193
200
193
195
203
205
193
202
200
196
203
209
209
211
201
204
204
204
205
207
199
206
205
215
226
219
217
209
209
222
223
227
232
236
234
224
241
239
240
237
257
258
252
249
256
251
255
259
251
250
261
265
260
261
255
257
267
262
264
248
252
269
248
247
242
246
239
231
223
226
223
223
228
218
209
206
202
203
205
192
204
191
193
190
187
190
182
186
185
187
194
186
188
191
170
182
177
180
176
188
191
185
184
180
179
178
178
193
178
170
190
191
183
177
177
182
176
186
184
188
182
183
187
182
175
179
185
184
179
180
180
174
181
185
180
181
184
183
169
174
185
183
175
172
179
186
191
184
185
181
178
190
168
165
177
189
195
183
182
180
181
185
179
178
182
189
179
177
168
200
189
168
180
188
178
179
183
179
180
181
179
166
180
181
174
174
175
171
181
177
184
189
177
175
171
173
168
169
180
177
170
171
167
172
186
178
171
179
176
175
175
185
186
187
183
180
177
183
182
178
175
187
197
194
192
196
192
187
194
189
185
189
191
192
179
183
178
179
173
162
174
177
173
175
161
143
168
193
169
166
162
161
164
170
161
169
177
172
159
157
171
166
173
164
158
160
168
167
166
175
174
155
163
166
166
164
165
162
158
140
152
166
146
150
142
160
177
202
224
239
255
260
284
300
310
284
259
253
235
208
180
150
146
138
137
131
127
134
145
128
149
161
148
145
169
164
155
156
177
169
150
160
165
169
157
157
165
168
161
173
174
164
152
156
172
158
169
170
159
165
152
168
181
167
162
158
163
165
165
163
160
166
183
172
176
156
162
158
179
170
169
171
173
166
163
172
169
170
166
180
179
179
167
174
174
183
170
178
181
180
181
184
177
189
188
198
197
197
199
204
201
204
203
198
202
211
208
220
217
224
213
241
227
225
228
226
222
211
224
229
216
222
236
218
220
219
216
200
201
208
196
193
194
190
186
179
174
182
177
163
169
176
181
169
158
160
167
165
157
159
143
151
144
142
152
156
149
142
153
145
168
158
154
141
149
146
139
152
159
157
155
157
150
143
148
152
150
155
151
150
140
144
141
149
145
147
140
143
152
141
144
149
151
146
150
145
147
143
151
141
138
146
149
142
137
148
147
137
142
142
147
148
136
150
141
143
141
147
151
140
135
144
153
133
138
143
140
140
144
141
140
140
144
152
149
141
134
148
138
138
136
143
140
142
141
138
133
140
145
144
146
134
135
137
135
139
133
140
141
142
143
148
142
138
149
139
128
129
139
148
131
136
140
140
135
141
135
129
135
142
137
138
131
134
137
141
137
140
140
144
143
142
144
149
134
137
133
149
136
130
137
137
141
161
152
152
155
157
152
161
157
141
140
151
140
136
144
139
131
124
133
130
131
137
138
132
126
125
139
130
131
132
129
134
119
119
130
131
127
137
129
124
124
120
119
119
133
134
124
110
134
131
127
129
130
122
125
119
117
112
102
99
106
108
117
113
131
151
166
182
209
222
226
251
259
271
248
227
206
181
151
127
116
105
83
87
93
98
85
97
121
119
114
123
122
128
129
126
117
128
125
122
120
107
116
118
123
122
124
122
123
127
125
134
114
136
131
126
125
127
130
121
122
130
125
122
127
123
130
132
125
118
128
126
120
125
133
124
138
144
134
133
120
130
125
133
132
132
133
137
137
136
131
137
131
135
139
137
134
135
152
156
153
150
157
155
156
145
147
161
163
157
177
170
171
165
170
174
178
175
179
183
191
185
182
175
185
198
193
191
180
177
190
186
182
193
172
171
176
173
175
158
157
143
150
161
150
142
140
142
142
133
131
132
130
114
122
129
128
119
121
124
112
116
113
124
114
115
124
123
123
114
110
117
109
116
112
117
114
115
109
116
113
113
112
124
118
114
106
116
107
115
113
108
117
115
116
108
91
106
119
105
116
118
111
114
108
116
116
94
113
124
107
92
110
107
114
122
121
116
104
113
109
115
109
109
113
108
107
104
98
106
106
110
106
109
118
105
100
105
107
103
109
107
110
99
104
107
110
115
105
102
103
109
105
103
107
105
99
115
111
103
111
118
114
103
111
109
95
106
114
102
87
105
107
109
107
108
104
100
104
97
99
102
109
101
95
101
104
111
98
99
99
98
103
98
105
97
106
106
99
107
106
104
116
107
120
109
102
104
101
107
115
105
113
107
105
110
109
115
123
113
116
111
113
116
115
115
106
109
116
114
108
94
102
105
108
103
98
99
97
95
97
92
92
99
88
96
92
99
93
103
92
112
91
93
92
81
71
95
108
94
99
96
93
98
96
93
90
87
104
93
84
85
85
77
73
83
82
81
85
99
112
132
157
170
180
199
218
227
243
216
191
184
155
130
113
95
76
64
61
60
58
61
71
70
76
86
98
88
85
91
94
92
90
87
95
96
92
103
89
80
92
99
99
92
93
97
81
83
103
108
94
94
90
97
98
97
103
103
86
96
98
96
96
100
93
96
100
100
92
96
105
99
100
105
102
93
97
99
102
97
97
97
102
113
108
103
97
105
118
118
109
110
121
117
108
115
125
116
127
119
128
127
133
126
143
144
132
130
145
146
146
145
152
156
165
150
154
153
164
155
154
160
160
156
162
165
149
157
150
148
147
155
158
131
127
134
118
119
131
121
126
114
108
106
106
92
96
103
105
99
99
97
85
94
89
89
91
95
93
90
95
95
93
81
87
83
88
80
80
85
86
89
84
77
87
80
89
72
77
100
82
84
91
81
88
89
92
101
87
80
82
76
92
83
90
84
92
90
91
88
82
80
83
83
82
92
90
85
76
70
86
80
80
89
83
91
90
81
80
88
83
89
83
73
82
83
76
86
78
77
82
83
76
80
91
85
95
94
84
70
83
98
92
86
81
76
80
68
78
74
80
89
84
77
77
83
85
79
80
82
89
73
69
71
77
80
75
68
83
85
84
78
79
78
70
84
87
87
95
86
82
83
80
79
83
81
78
73
90
93
90
88
89
92
102
85
93
92
95
85
82
94
94
83
86
73
80
81
76
77
77
73
70
72
61
81
75
72
72
71
76
68
68
67
79
72
73
73
56
80
76
68
68
69
71
62
66
69
69
71
72
70
79
77
68
58
68
54
62
70
61
57
55
71
105
97
119
156
151
151
178
185
190
178
158
145
129
103
70
62
47
28
14
29
22
27
43
36
43
61
48
43
72
89
67
67
77
68
58
57
66
64
64
80
78
71
67
60
70
72
79
69
74
66
68
65
74
68
64
79
81
75
65
83
72
82
79
75
65
59
84
72
79
78
83
76
72
84
79
71
80
86
80
79
75
78
82
84
82
79
81
87
100
83
83
89
98
94
94
95
96
98
105
104
100
107
112
111
125
123
125
124
120
123
127
125
129
121
132
138
145
139
142
136
130
145
139
156
146
129
139
137
136
123
141
127
121
118
110
121
119
100
93
88
94
90
83
92
73
73
81
79
79
65
59
81
66
68
69
66
60
66
64
61
55
62
61
65
60
54
56
55
60
75
67
72
69
64
57
65
62
59
57
56
51
55
53
51
59
61
54
59
56
55
65
56
58
62
56
66
55
52
56
60
54
67
47
49
51
47
51
69
71
57
51
56
58
61
63
66
53
54
50
51
57
57
58
47
46
72
62
52
67
61
58
44
57
47
51
48
54
62
59
56
55
42
47
52
51
49
62
57
58
48
42
51
52
53
48
61
45
37
47
41
37
46
52
49
43
48
55
50
34
38
53
60
45
47
41
31
47
48
46
52
54
38
49
45
45
50
51
42
44
51
51
46
46
59
48
45
58
61
55
57
66
56
49
45
45
44
50
50
49
41
37
28
38
38
41
36
45
45
41
32
30
37
38
43
44
35
30
27
37
26
38
30
41
32
28
28
33
36
32
34
34
30
39
34
33
36
22
30
35
18
32
23
18
31
26
26
15
38
53
69
96
110
109
118
137
145
153
143
131
113
101
68
35
47
28
-14
-4
-5
-19
-12
1
17
10
19
18
26
21
27
23
32
29
13
39
33
29
25
35
31
27
29
35
34
34
38
52
29
27
31
27
26
41
34
22
27
39
36
39
33
26
33
39
44
34
38
29
26
29
40
33
36
39
39
39
23
44
42
41
43
43
42
42
39
37
41
35
57
49
47
48
48
43
62
52
51
61
62
64
58
56
55
66
72
78
77
82
77
89
79
76
76
83
86
73
114
107
101
104
101
104
110
102
92
88
98
99
92
101
89
92
83
77
75
63
73
73
66
66
53
50
55
42
48
48
39
30
24
33
33
29
29
21
36
31
22
16
23
26
24
32
23
15
11
31
27
26
22
20
16
20
25
26
23
28
15
11
35
30
24
17
16
14
19
28
21
25
17
18
18
23
19
17
23
22
11
22
10
8
11
18
26
20
24
26
24
16
13
15
17
27
14
-5
-2
30
20
25
14
17
30
23
12
8
13
25
15
18
16
22
21
20
14
17
16
23
15
9
15
23
8
8
17
10
5
22
22
20
17
11
16
27
16
24
20
9
5
14
16
16
16
17
15
10
6
31
21
26
19
27
26
7
15
27
-1
4
5
8
21
25
20
31
26
20
13
16
17
22
26
15
18
13
18
18
19
25
28
11
21
34
30
25
24
26
39
35
25
25
24
21
28
21
14
16
16
10
14
13
-1
-3
7
10
8
13
14
6
13
15
5
18
-1
-4
-8
-8
16
17
17
12
4
9
2
10
1
5
5
7
15
14
10
5
5
8
2
-6
1
-3
-21
-17
0
9
14
23
29
62
67
86
91
101
116
132
128
105
74
75
47
31
11
-7
-14
-18
-5
-37
-28
-1
-4
-4
0
7
6
2
4
-1
6
2
10
11
17
9
20
10
7
12
11
-6
1
7
11
10
7
-9
5
21
3
11
11
9
6
17
9
11
9
17
15
5
13
16
7
8
25
7
2
12
16
5
-5
10
14
19
16
8
4
18
20
15
19
23
13
26
18
10
11
32
22
25
28
23
28
31
25
29
39
36
35
39
28
32
50
50
55
52
50
54
46
60
56
63
59
59
71
68
60
47
72
69
57
61
66
56
59
53
46
59
57
53
48
40
46
47
42
38
36
23
26
19
14
22
17
8
9
12
10
1
5
9
-1
-5
6
17
7
4
-3
1
-1
-7
-4
7
8
5
-2
1
-5
-20
0
25
8
-8
6
8
-7
7
-4
-7
-10
5
4
23
6
-9
-16
-2
2
-1
-10
-6
-1
-12
-7
1
-2
-3
-3
-5
1
-5
-4
-7
-9
-2
-1
-10
-5
-11
-5
-3
3
-11
-10
-14
-10
-11
-4
-2
-4
3
-11
-5
-5
-21
-5
-13
-16
2
-5
