-13
-10
0
14
27
32
27
19
5
-11
-9
-5
4
18
32
32
30
22
4
-6
-7
-1
9
25
35
35
29
21
8
-1
-3
4
12
29
37
39
34
23
11
6
3
8
19
38
43
46
43
32
15
9
11
18
29
47
53
56
50
43
21
22
23
30
43
62
65
69
70
59
40
38
40
48
58
79
82
84
78
71
54
48
51
60
68
86
88
91
81
73
57
51
50
57
63
81
80
78
68
56
37
34
29
35
43
56
53
52
45
29
11
5
7
12
21
36
35
33
25
10
-7
-10
-8
-2
12
28
27
25
15
3
-13
-14
-13
-5
9
22
21
20
10
-1
-16
-14
-12
-4
11
24
23
22
14
-1
-14
-13
-12
-4
12
24
23
21
14
-1
-11
-10
-9
1
17
27
27
26
18
-1
-10
-13
-8
2
18
26
26
21
10
-5
-8
-10
-7
5
23
26
26
22
12
-6
-12
-13
-5
3
21
22
26
17
8
-7
-14
-14
-10
2
22
25
25
18
8
-12
-17
-16
-9
0
17
21
22
15
5
-13
-13
-14
-8
1
19
21
20
13
6
-14
-18
-19
-11
-2
18
21
21
14
2
-16
-18
-17
-11
1
20
23
21
12
-1
-18
-19
-20
-11
-1
17
21
21
13
2
-13
-15
-12
-3
8
21
28
25
15
5
-11
-12
-10
-3
14
30
31
32
21
11
-3
-3
-2
7
23
33
35
31
21
9
-9
-8
-9
-3
11
21
22
18
7
-9
-22
-23
-19
-10
6
16
19
15
5
-14
-22
-21
-18
-9
8
14
15
12
0
-18
-22
-25
-23
-11
6
14
12
10
-2
-19
-25
-26
-21
-9
8
13
11
9
-1
-17
-26
-28
-25
-15
1
5
5
-3
-15
-27
-31
-19
0
24
54
72
91
102
119
129
154
172
179
184
187
175
150
117
79
26
-7
-31
-35
-23
4
10
8
5
2
-13
-17
-13
-5
3
22
23
23
15
4
-12
-15
-15
-6
4
21
25
23
17
7
-10
-14
-12
-3
10
25
27
26
17
7
-7
-8
-6
0
11
32
31
31
23
10
-6
-5
-1
4
21
34
35
36
25
12
-1
-1
1
12
28
41
41
40
32
17
6
6
11
19
36
49
50
48
39
24
19
20
23
34
54
63
65
65
57
43
35
36
43
55
73
80
82
77
72
55
49
49
55
66
82
88
89
84
74
54
50
48
52
64
77
77
74
71
60
39
31
31
32
38
53
55
51
43
29
9
3
4
10
18
33
34
32
25
15
-6
-11
-11
-6
5
23
23
25
18
7
-12
-15
-17
-8
2
20
22
21
12
4
-13
-15
-16
-11
2
21
25
23
11
5
-14
-16
-14
-5
8
23
23
23
11
2
-14
-14
-14
-6
6
24
25
26
17
4
-12
-12
-12
-2
9
27
27
23
14
-3
-11
-13
-10
0
15
27
26
20
12
-2
-14
-15
-12
-2
14
22
27
24
10
-3
-14
-16
-12
-4
12
23
23
20
11
-5
-15
-18
-13
-4
12
21
22
20
9
-11
-17
-19
-13
-4
13
20
17
15
6
-11
-18
-18
-13
-5
15
18
18
13
4
-14
-19
-18
-13
-4
15
19
18
14
4
-15
-20
-19
-14
-4
19
20
20
14
3
-18
-19
-19
-9
-2
18
20
20
14
7
-13
-14
-12
-7
3
24
26
23
16
5
-13
-13
-13
-5
9
29
30
30
24
14
-3
-2
-4
4
17
33
33
30
19
8
-8
-11
-11
-4
6
20
17
17
9
-6
-21
-22
-20
-12
2
15
17
13
6
-10
-24
-24
-22
-12
1
12
13
11
3
-12
-26
-25
-24
-12
2
12
13
12
1
-14
-24
-25
-22
-13
0
10
12
10
0
-17
-28
-28
-28
-18
-5
-1
-1
-4
-11
-21
-13
-1
17
38
75
96
117
135
160
173
177
174
168
165
164
142
112
78
36
-10
-35
-45
-31
-16
6
15
19
14
8
-8
-14
-15
-9
-1
18
23
20
17
8
-12
-15
-14
-9
1
22
25
25
19
6
-12
-14
-9
-3
7
24
26
30
22
10
-8
-9
-7
-1
9
29
32
33
25
13
-4
-8
-4
4
16
32
34
33
26
15
-1
0
4
10
22
40
42
43
34
24
8
9
9
20
38
51
53
53
48
34
20
19
25
37
54
65
68
69
62
50
40
40
45
55
72
83
82
84
75
60
48
50
56
67
81
90
92
87
76
61
49
48
51
59
73
78
77
71
58
38
28
26
24
32
48
50
50
41
29
8
0
3
3
11
27
31
30
25
15
-1
-14
-12
-7
2
18
19
25
15
7
-10
-17
-18
-12
-1
20
20
22
15
5
-13
-17
-18
-12
-1
17
21
22
17
3
-15
-16
-17
-9
1
18
23
22
15
4
-11
-13
-16
-7
3
22
23
24
18
3
-8
-14
-13
-6
7
24
26
26
17
5
-11
-13
-14
-7
8
23
27
24
14
3
-13
-17
-13
-4
7
21
22
19
12
-1
-16
-15
-13
-6
11
24
23
18
11
-6
-19
-16
-16
-4
10
21
20
16
9
-4
-15
-18
-15
-8
10
19
20
17
6
-9
-18
-18
-16
-7
9
19
20
16
4
-10
-20
-17
-15
-5
11
18
19
15
3
-13
-19
-19
-15
-3
10
18
19
13
3
-14
-22
-19
-14
-4
10
15
19
11
3
-16
-20
-20
-13
-3
17
22
24
20
9
-12
-16
-15
-7
2
22
26
25
17
8
-11
-13
-10
-2
11
31
32
32
24
13
-3
-4
-4
4
12
26
32
34
24
10
-9
-16
-17
-9
1
19
18
17
11
-4
-20
-22
-21
-11
2
18
16
17
6
-2
-18
-21
-21
-13
3
14
16
14
4
-9
-23
-26
-24
-11
5
15
18
16
6
-8
-22
-23
-20
-12
4
14
15
12
0
-17
-29
-30
-28
-21
-6
1
6
8
11
10
12
26
45
73
111
145
177
202
202
187
168
152
135
119
108
86
55
25
-6
-33
-35
-29
-22
-7
13
25
26
19
12
-4
-11
-13
-10
0
17
24
25
21
8
-7
-11
-12
-6
2
23
28
28
21
14
-5
-10
-8
-3
7
28
31
28
24
16
-3
-5
-1
0
13
31
35
35
28
19
2
-3
-2
6
16
36
38
38
34
24
4
4
5
13
26
45
47
47
38
30
13
12
14
22
39
56
57
58
51
40
25
28
31
39
56
75
75
76
67
59
45
46
50
60
75
91
90
88
81
68
56
54
58
68
80
93
92
88
77
63
50
50
50
57
70
78
76
69
60
41
23
23
24
28
43
50
50
45
32
15
1
2
3
10
26
34
31
28
16
-2
-12
-14
-8
2
20
26
23
20
10
-8
-14
-17
-9
0
17
25
23
18
8
-11
-14
-16
-10
2
23
25
23
18
8
-10
-13
-12
-7
1
21
25
30
20
11
-6
-10
-13
-4
7
24
28
29
21
12
-8
-10
-10
-3
6
27
29
27
21
12
-11
-11
-11
-6
7
22
27
27
18
7
-10
-13
-10
-2
10
23
26
24
17
4
-15
-14
-13
-3
10
24
26
27
15
3
-13
-14
-11
-3
10
24
23
24
15
0
-13
-15
-14
-6
10
20
22
21
11
-3
-15
-18
-14
-5
10
21
19
18
10
-5
-18
-16
-14
-5
12
20
21
19
9
-7
-15
-17
-14
-5
15
21
22
15
7
-9
-17
-16
-11
-3
15
21
22
16
8
-11
-17
-19
-14
-4
12
18
21
16
7
-9
-13
-11
-6
1
22
28
27
21
11
-4
-10
-10
-5
5
23
30
31
27
17
1
-4
-1
3
14
34
39
38
30
20
-1
-3
-5
1
8
26
26
24
12
4
-19
-19
-16
-11
3
20
21
20
13
0
-17
-18
-18
-12
-2
17
21
18
9
-1
-18
-19
-22
-13
1
16
20
17
9
-3
-20
-22
-19
-10
1
15
18
15
6
-3
-19
-22
-21
-18
-4
10
11
7
-5
-19
-26
-14
-1
23
50
76
95
112
131
142
159
175
178
184
183
173
153
119
82
36
0
-24
-35
-24
-4
9
15
14
10
-1
-8
-6
-3
2
21
27
26
21
13
-5
-13
-10
-9
2
21
29
27
23
12
-1
-7
-8
-2
6
27
29
31
24
18
-3
-5
-7
2
10
29
32
35
31
22
2
-3
-1
6
16
33
36
39
33
25
5
3
2
10
21
46
45
44
38
30
12
9
10
18
31
51
53
56
49
40
21
23
24
33
46
64
68
73
63
54
40
40
40
53
65
85
86
87
80
68
55
52
52
65
77
92
94
92
82
69
55
54
53
62
72
87
86
80
68
54
38
33
32
40
50
56
58
51
39
24
10
7
10
16
30
40
36
31
19
3
-7
-7
-5
3
17
26
28
23
14
-2
-12
-12
-10
-1
19
23
26
21
11
-7
-14
-12
-9
-4
15
24
27
19
12
-6
-13
-12
-8
1
20
25
24
22
11
-6
-12
-12
-6
4
23
26
30
22
14
-5
-9
-7
-2
8
26
29
29
22
11
-5
-8
-10
-4
7
26
32
26
18
12
-6
-10
-12
-2
7
25
30
25
20
10
-8
-11
-11
-4
7
24
24
23
15
8
-11
-11
-10
-5
8
24
25
25
15
2
-12
-16
-12
-2
6
23
27
23
13
1
-14
-14
-13
-5
9
23
21
21
15
-1
-14
-16
-14
-5
9
21
22
22
11
-5
-13
-16
-14
-5
11
21
23
22
12
0
-13
-15
-10
3
17
27
29
26
16
0
-8
-9
-4
6
23
27
31
28
20
6
0
-3
4
12
30
35
34
31
21
4
-4
-8
-5
5
21
28
26
18
7
-12
-17
-17
-12
-3
16
21
21
13
5
-13
-17
-16
-11
-2
15
20
21
11
1
-19
-23
-23
-15
-1
20
16
14
9
0
-17
-24
-22
-16
-6
16
15
15
9
1
-17
-21
-20
-14
-5
11
10
9
-1
-12
-26
-25
-12
9
35
59
77
94
107
120
132
157
169
176
180
183
163
139
101
65
18
-12
-30
-29
-17
-1
8
11
7
-2
-8
-9
-5
1
15
26
27
25
17
2
-12
-12
-8
3
19
28
28
28
21
4
-6
-8
-4
6
22
30
30
29
21
5
-6
-7
-1
6
25
34
34
33
24
8
0
0
5
13
30
38
40
36
28
11
3
2
8
18
39
47
46
44
35
20
14
13
18
30
49
55
52
51
44
28
23
22
31
43
61
68
70
66
61
45
42
43
50
62
79
86
85
80
72
60
54
54
63
73
92
93
94
87
77
58
54
53
59
69
85
83
83
75
55
36
35
29
34
43
58
58
56
44
30
11
7
6
12
25
37
37
35
25
13
-3
-8
-6
1
13
27
27
29
18
5
-10
-14
-11
-4
9
24
23
21
14
-2
-14
-15
-12
-2
11
25
24
25
15
0
-12
-12
-7
0
16
25
26
25
15
-1
-10
-12
-7
3
18
28
27
25
15
-2
-10
-6
-3
6
22
26
28
24
16
-2
-10
-11
-6
7
22
28
30
24
13
-6
-8
-8
-4
5
24
26
27
21
12
-6
-11
-11
-5
3
20
25
27
20
10
-8
-14
-11
-5
4
20
25
24
20
6
-9
-13
-13
-6
3
22
24
24
15
6
-11
-14
-14
-7
2
19
23
26
17
4
-14
-14
-15
-7
5
22
23
21
13
1
-17
-15
-14
-7
5
22
23
22
14
3
-15
-17
-16
-5
5
21
21
21
13
1
-13
-13
-10
1
14
29
28
27
17
1
-11
-14
-6
0
16
29
31
30
22
8
-4
-2
0
9
25
37
35
34
24
6
-6
-5
-5
3
18
25
25
21
12
-5
-15
-18
-15
-9
15
20
21
16
3
-12
-18
-19
-16
-4
11
16
19
11
4
-15
-22
-22
-16
-7
11
15
17
11
2
-18
-21
-20
-16
-6
12
15
16
12
-3
-18
-22
-23
-18
-10
6
8
7
-3
-9
-28
-26
-14
5
27
56
77
95
104
119
127
155
181
184
193
196
181
157
123
82
35
1
-21
-25
-13
11
15
18
12
4
-10
-11
-7
-3
12
25
26
21
17
6
-11
-12
-13
-3
10
23
26
28
20
5
-10
-13
-10
-1
18
29
30
28
20
8
-5
-7
-6
3
17
31
33
32
21
8
-3
-2
-1
8
22
35
37
33
25
12
3
2
5
15
32
41
43
38
30
19
9
10
14
24
44
52
53
52
43
30
22
20
29
39
58
64
67
65
60
43
37
38
46
60
77
83
86
82
74
59
52
55
57
73
92
95
94
88
79
60
55
56
62
70
87
88
86
76
66
43
36
33
35
46
61
59
58
48
38
16
9
10
15
22
37
41
37
28
17
-3
-5
-8
-3
7
29
27
28
19
10
-8
-12
-14
-7
5
25
26
26
18
6
-13
-15
-14
-4
7
24
24
23
14
4
-8
-13
-12
-2
8
25
27
25
16
3
-9
-13
-9
-2
12
24
30
26
18
1
-11
-11
-9
2
15
27
29
27
18
4
-8
-8
-6
2
18
29
29
25
16
2
-8
-11
-4
3
18
25
25
24
14
-1
-13
-8
-9
2
20
25
26
23
12
-7
-10
-11
-9
2
20
26
25
21
10
-7
-11
-14
-8
2
18
24
24
19
9
-8
-13
-12
-10
-1
17
23
23
20
7
-13
-14
-16
-8
0
19
22
21
17
7
-11
-17
-16
-9
1
20
21
22
17
8
-11
-17
-14
-8
2
21
27
28
19
7
-8
-11
-7
0
8
27
29
27
19
9
-8
-8
-5
6
18
33
35
36
28
17
0
0
1
10
22
34
35
34
22
6
-8
-9
-9
-3
12
21
22
18
9
-4
-17
-15
-15
-8
8
21
21
17
8
-5
-18
-18
-15
-9
6
15
19
16
5
-10
-19
-19
-17
-7
8
19
18
15
7
-10
-21
-20
-16
-7
7
17
16
12
2
-16
-25
-27
-25
-19
1
8
15
20
26
21
26
43
65
94
138
172
203
217
204
181
161
143
123
100
93
65
37
8
-11
-26
-23
-23
-13
2
23
29
30
26
14
-8
-13
-12
-8
4
27
27
26
21
12
-7
-9
-9
-1
8
24
33
31
23
14
-6
-6
-7
2
13
30
31
30
26
16
0
-4
-3
5
17
33
36
36
29
16
0
0
2
12
25
42
42
42
34
23
8
7
10
18
30
46
47
49
38
29
17
17
17
28
43
57
61
61
53
42
30
31
33
47
63
76
78
76
71
58
47
48
53
64
82
93
94
92
82
66
53
58
64
73
88
96
96
92
82
63
52
50
50
58
72
73
74
67
56
36
23
23
24
32
47
50
47
38
27
8
2
0
4
11
28
34
30
25
15
-4
-8
-12
-7
2
22
25
24
18
8
-9
-14
-16
-8
3
19
26
26
15
7
-10
-14
-12
-8
2
21
23
23
18
8
-12
-14
-13
-4
5
23
27
26
19
11
-9
-10
-11
-2
9
25
28
29
20
10
-8
-11
-9
-1
11
28
26
26
19
8
-10
-12
-8
1
15
27
26
25
17
9
-7
-8
-11
-3
15
28
31
23
16
3
-10
-12
-9
-3
16
27
26
27
15
0
-11
-14
-13
-2
14
25
27
22
13
-3
-13
-13
-13
-4
15
24
26
22
14
-7
-13
-14
-10
-1
14
23
22
18
9
-9
-15
-16
-12
-2
18
22
21
17
10
-8
-14
-16
-11
0
14
23
24
17
7
-11
-16
-15
-5
0
19
24
28
19
10
-9
-14
-10
-3
6
26
31
30
25
14
-7
-9
-9
3
10
31
31
34
29
19
1
0
-2
5
15
36
36
36
26
11
-8
-10
-12
-5
4
20
20
21
14
2
-15
-16
-13
-9
3
18
20
21
9
-4
-18
-18
-21
-7
1
18
18
16
9
-4
-20
-21
-17
-10
4
18
21
16
8
-8
-20
-19
-17
-8
8
17
20
16
6
-10
-25
-27
-23
-17
-2
9
12
23
23
22
21
33
60
85
123
157
185
202
195
177
157
140
117
103
94
64
41
9
-13
-25
-30
-28
-22
-9
19
29
26
24
17
-3
-9
-10
-10
1
22
29
26
21
11
-6
-5
-5
-4
8
27
24
30
25
14
3
-7
-7
2
9
31
34
35
25
17
-3
-5
-3
5
17
36
41
37
31
24
2
4
-4
2
20
39
43
43
36
26
10
8
8
16
29
45
46
47
41
28
13
12
15
26
39
56
58
59
54
46
28
28
30
42
56
73
74
74
68
59
45
43
47
58
74
85
84
86
79
65
53
51
56
62
73
89
88
84
74
60
47
44
45
50
65
72
68
66
53
36
22
18
18
27
40
46
43
39
32
15
3
-2
0
8
24
31
32
28
15
-3
-10
-13
-9
1
22
27
27
24
10
-12
-16
-7
-5
1
19
24
25
21
8
-15
-13
-11
-9
1
21
26
34
19
5
-12
-19
-13
-7
8
21
29
31
18
10
-5
-8
-10
-3
8
22
30
33
22
16
-6
-11
-10
-6
9
25
25
32
24
12
-7
-9
-8
-4
6
25
31
29
18
10
-11
-11
-12
1
12
27
26
25
17
4
-12
-9
-7
0
9
26
26
24
16
2
-11
-10
-12
-2
12
25
26
24
12
1
-15
-15
-13
-4
12
26
26
22
17
-5
-16
-15
-14
-6
10
20
22
22
13
-5
-16
-13
-10
-8
7
19
26
21
11
-6
-15
-12
-8
3
18
26
28
23
13
-3
-14
-10
-7
3
22
26
27
23
12
-3
-4
-7
-2
10
26
33
35
33
21
4
-3
-4
-4
9
30
24
25
19
6
-10
-18
-17
-12
-3
19
23
21
14
6
-14
-19
-15
-11
-1
15
16
20
13
5
-17
-21
-21
-9
-1
16
20
19
10
-2
-20
-23
-19
-13
0
18
17
18
8
-2
-19
-24
-25
-11
2
18
17
16
8
-10
-25
-30
-29
-20
-6
23
35
45
49
49
49
64
84
120
158
183
178
166
146
120
86
64
45
27
14
10
5
-1
-1
-8
-18
-16
-11
2
17
29
24
22
13
0
-11
-13
-9
3
18
27
26
24
16
3
-8
-10
-6
2
26
34
33
26
17
5
-3
-3
-1
11
27
32
35
31
24
5
0
1
5
15
30
36
38
37
26
10
6
1
9
17
38
42
43
31
24
16
11
11
17
28
48
49
53
47
37
18
14
19
26
38
56
62
74
73
57
37
41
41
47
61
79
85
84
83
73
57
55
55
63
76
94
98
96
93
80
57
58
58
65
78
94
91
92
84
69
51
45
43
51
63
73
72
66
58
44
29
25
20
31
37
51
52
53
46
23
10
12
13
18
30
44
47
41
31
17
5
4
5
12
28
38
37
37
26
14
4
4
2
11
29
37
38
35
26
7
0
0
1
9
29
37
38
36
24
9
2
1
5
14
31
38
37
36
26
12
5
2
9
18
37
41
38
33
28
7
0
1
9
17
36
40
40
35
25
8
5
4
8
18
37
40
39
33
25
7
5
4
9
18
37
41
39
34
24
4
1
2
8
18
37
41
39
32
23
3
-2
-3
11
18
36
38
40
32
19
-1
-2
-2
6
20
37
38
36
27
18
2
-1
1
8
17
32
35
34
25
14
-2
-3
-1
6
17
34
33
33
25
14
0
-1
2
14
28
41
42
39
33
20
4
2
4
13
29
39
40
37
27
16
8
10
12
22
38
53
50
47
38
21
11
12
13
21
33
44
42
35
24
8
-2
-5
2
10
24
34
34
27
19
5
-2
-5
1
9
26
32
31
25
17
-2
-7
-7
-1
7
23
28
32
25
15
-4
-11
-9
-2
7
26
27
29
19
13
-4
-7
-8
0
7
26
27
25
17
4
-14
-19
-19
-11
0
30
45
57
62
66
64
76
104
136
176
219
220
220
201
175
133
106
77
54
39
33
20
19
15
9
-4
-5
-2
10
23
37
34
36
31
18
0
1
0
8
22
33
40
37
26
17
1
-2
5
16
29
42
42
41
30
19
5
2
5
16
30
40
43
41
34
18
7
7
10
19
34
44
43
43
35
23
12
12
16
25
41
47
46
45
35
24
24
20
22
33
47
57
56
57
48
29
28
27
33
41
64
73
75
71
62
47
42
44
53
62
85
91
87
84
76
63
59
60
65
74
93
99
101
98
91
71
63
63
70
79
94
98
98
88
76
54
48
46
53
64
78
75
74
63
49
28
24
21
26
34
49
50
48
39
26
7
1
2
9
19
37
35
36
27
14
-5
-3
-2
5
12
27
30
31
22
10
-5
-6
-4
3
13
28
28
29
20
9
-5
-6
-6
3
15
31
32
31
22
8
-6
-6
-5
5
19
31
30
27
23
10
-3
-3
-1
8
21
30
33
31
21
9
-1
-6
-3
7
24
31
33
29
17
5
-6
-7
-1
7
25
29
30
28
20
1
-5
-5
-3
8
25
31
31
27
16
-2
-8
-8
-5
4
23
27
27
23
15
-3
-9
-7
1
8
22
26
26
22
13
-5
-10
-12
-5
5
24
28
27
20
12
-8
-12
-13
-5
3
25
28
28
21
7
-11
-16
-12
-6
5
24
25
25
19
5
-13
-12
-14
-3
8
23
25
23
19
7
-9
-12
-13
-7
4
22
27
23
14
5
-12
-11
-11
-6
7
18
21
20
10
1
-6
-7
-6
4
16
29
31
29
19
5
-7
-7
-5
1
16
26
30
30
22
12
2
-3
-1
10
28
40
42
37
29
12
2
0
0
7
19
28
30
26
15
-5
-12
-18
-12
-4
12
18
23
20
9
-6
-8
-13
-12
-3
15
18
19
14
7
-14
-21
-21
-11
-3
14
21
20
14
2
-14
-22
-23
-15
-4
14
20
16
11
3
-14
-21
-19
-14
-7
12
15
14
4
-6
-27
-34
-27
-19
4
37
54
66
74
81
85
107
136
174
202
214
210
194
170
134
86
56
24
4
-9
2
6
10
5
0
-12
-12
-8
1
13
27
22
21
14
6
-6
-7
-7
2
15
28
28
27
17
8
-9
-9
-6
0
15
26
33
28
20
7
-4
-2
-3
7
19
31
29
27
19
6
0
1
2
9
23
37
37
36
27
14
4
0
4
11
32
37
42
40
34
18
8
12
14
24
37
47
50
46
39
24
17
16
27
38
55
60
64
65
57
39
35
33
40
51
73
81
82
78
70
57
48
50
57
67
87
91
95
85
77
61
55
50
59
68
87
88
87
78
65
46
39
36
41
51
65
62
61
47
36
16
15
10
15
23
44
41
38
28
18
-3
-4
-8
-4
7
22
29
28
20
9
-12
-12
-12
-5
5
23
23
22
11
0
-15
-15
-15
-6
7
23
24
22
13
-1
-17
-18
-12
-2
11
23
22
20
14
0
-10
-12
-10
-1
13
21
27
25
12
-1
-11
-10
-7
1
16
26
26
22
12
-5
-13
-11
-8
0
17
25
24
21
13
-3
-14
-14
-14
-3
17
26
27
21
10
-6
-11
-14
-8
-1
16
23
22
17
8
-11
-15
-16
-10
0
16
21
21
15
4
-10
-18
-19
-13
-3
10
18
21
16
7
-11
-18
-20
-13
-2
18
21
19
13
4
-16
-18
-17
-10
-4
13
16
16
14
2
-16
-18
-20
-11
-3
15
17
16
8
-1
-18
-21
-22
-13
-5
16
19
18
9
-2
-19
-22
-22
-14
-3
13
18
16
6
-7
-25
-23
-24
-12
0
22
18
15
6
-5
-22
-20
-20
-10
2
14
14
15
6
-9
-21
-21
-20
-10
5
15
16
16
4
-13
-25
-26
-22
-10
8
15
16
12
3
-12
-23
-21
-18
-9
6
16
16
12
1
-14
-24
-21
-17
-4
13
21
21
17
7
-11
-17
-15
-12
-1
16
19
24
17
8
-10
-12
-13
-6
5
23
28
28
24
18
-3
-11
-9
-1
6
23
25
25
16
5
-15
-20
-25
-16
-7
12
14
12
8
-2
-20
-24
-24
-17
-7
13
16
12
7
-5
-25
-25
-22
-17
-8
11
12
12
3
-7
-24
-25
-25
-18
-7
11
12
8
1
-10
-28
-25
-23
-16
-7
8
6
3
-5
-14
-33
-30
-31
-26
-12
6
21
33
38
34
37
56
74
110
153
194
209
208
191
162
130
103
79
56
37
22
2
-6
-12
-23
-31
-29
-20
-7
9
21
23
19
8
-8
-18
-20
-17
-8
9
18
19
16
6
-9
-17
-18
-13
-4
16
26
25
22
10
-7
-15
-13
-10
1
19
26
30
22
14
-4
-7
-8
-3
6
22
29
28
22
13
-3
-7
-4
5
12
27
36
36
31
21
3
2
0
5
18
38
40
43
37
28
11
12
12
21
29
50
55
57
49
39
23
22
28
32
47
68
72
73
69
57
42
41
41
49
61
78
86
85
77
68
50
48
50
60
69
84
84
81
74
58
43
42
37
44
57
71
68
64
53
36
18
17
14
22
29
41
41
36
27
14
-1
-7
-5
1
17
27
29
27
16
-1
-11
-14
-13
-6
6
20
18
18
8
-10
-19
-15
-11
-4
11
19
17
12
6
-6
-15
-15
-13
-7
12
19
20
19
9
-8
-17
-17
-10
-5
15
18
20
15
10
-5
-15
-17
-11
1
17
21
20
15
10
-10
-15
-13
-4
3
20
23
20
15
9
-9
-16
-14
-11
0
16
22
21
14
3
-14
-16
-17
-8
3
18
19
20
11
-1
-16
-16
-14
-11
-1
15
24
21
14
2
-15
-21
-22
-13
1
16
17
19
10
-4
-18
-19
-22
-12
0
15
17
17
8
-5
-21
-23
-21
-15
-1
16
17
13
5
-6
-22
-21
-21
-10
1
16
16
12
7
-4
-19
-21
-20
-12
4
16
17
14
6
-12
-24
-22
-22
-13
2
14
13
13
6
-11
-22
-21
-21
-13
5
15
15
13
3
-14
-21
-23
-17
-12
6
15
13
11
2
-14
-23
-23
-18
-7
9
10
9
8
4
-14
-22
-23
-18
-10
10
15
15
15
5
-10
-15
-14
-13
-3
19
23
24
16
6
-8
-12
-13
-7
3
21
29
29
19
11
-2
-10
-12
-1
9
28
28
29
20
10
-13
-17
-16
-12
0
17
18
19
10
-1
-18
-19
-18
-13
-2
14
13
15
6
-3
-22
-25
-26
-20
-13
5
10
17
9
-8
-22
-22
-22
-12
-3
14
12
13
4
-10
-23
-25
-22
-15
-3
16
17
13
2
-15
-27
-30
-27
-19
-6
2
7
15
13
14
16
26
45
72
108
141
166
186
184
165
146
128
109
94
86
68
38
9
-18
-37
-45
-41
-35
-18
6
16
20
17
9
-6
-12
-13
-11
0
16
21
21
13
6
-8
-14
-12
-2
7
23
25
26
24
14
-5
-14
-13
-7
5
25
32
34
25
14
-3
-7
-6
4
10
27
29
33
26
16
2
3
2
8
18
35
39
38
31
22
7
4
5
14
21
40
45
45
41
31
12
11
16
23
36
52
54
55
53
44
25
30
30
40
55
72
74
77
69
57
44
46
45
55
69
82
83
85
86
71
56
54
58
68
79
91
91
90
81
67
53
50
49
56
66
79
77
72
56
40
26
27
28
33
44
51
49
44
30
16
6
3
5
13
24
30
31
25
21
6
-4
-5
-4
2
15
25
27
24
14
0
-11
-12
-8
1
21
25
26
20
6
-16
-18
-14
-1
7
21
23
24
22
16
-4
-11
-13
-8
4
20
23
19
10
4
-11
-1
-1
6
7
18
24
26
29
21
0
-9
-9
-4
4
21
19
19
14
13
1
-1
-9
-7
2
23
17
26
18
7
-9
-9
-10
-5
12
32
20
13
5
-12
-22
-2
-10
-13
-9
15
4
-1
-8
-1
-10
6
8
-1
9
22
16
7
16
11
0
-5
-4
1
16
16
15
16
-4
-13
-32
-44
-36
-11
-9
29
18
21
27
6
-20
-22
-2
8
27
41
30
29
28
7
-5
-12
-11
0
15
14
15
23
12
-8
-12
-17
-14
-17
-2
19
27
41
23
-3
-13
-11
-8
-6
3
20
32
29
17
-4
-18
-26
-17
-9
13
33
33
37
31
2
-9
-19
11
4
20
18
27
43
22
4
5
5
3
12
29
32
36
40
31
15
10
-6
10
16
37
43
33
33
21
2
2
10
11
-3
22
24
35
27
9
-21
-22
-11
-5
0
32
52
40
26
11
-24
-20
-6
3
5
32
22
19
14
2
-13
-12
-12
29
14
18
26
42
29
9
-10
-3
0
-3
1
35
35
34
19
-2
-22
6
4
-1
6
13
15
19
29
30
27
41
57
83
110
144
193
207
216
209
189
169
154
143
146
126
91
55
24
-9
-17
-22
-1
3
-3
20
61
61
49
23
10
11
11
25
37
25
17
29
44
28
22
11
19
24
43
35
36
45
44
27
4
-3
18
32
44
44
50
39
34
12
20
19
11
25
54
47
51
56
38
28
23
32
32
38
56
59
48
37
42
15
13
39
46
55
66
65
60
50
54
34
39
29
41
52
68
55
64
67
55
58
57
50
66
67
83
107
102
89
73
73
69
68
80
91
101
86
96
111
101
83
66
58
86
108
105
117
107
103
104
83
78
72
77
88
104
98
94
83
65
46
47
52
58
69
75
73
65
56
50
24
19
22
33
45
59
54
53
45
25
13
8
11
19
37
54
52
46
35
17
6
2
12
20
32
45
48
44
29
14
15
11
18
29
40
48
44
37
25
16
8
16
16
26
42
47
45
42
36
21
14
13
18
23
45
49
51
44
33
16
12
12
17
31
50
55
51
44
35
18
16
17
20
28
46
53
52
44
32
15
14
14
23
27
45
49
46
37
30
12
9
17
21
32
50
48
50
37
24
8
7
11
21
32
46
48
44
36
24
9
8
12
18
30
47
47
43
34
23
11
7
10
16
34
43
43
43
34
23
5
4
10
19
30
41
41
38
32
23
6
4
3
13
30
44
41
39
31
15
5
7
8
18
34
42
41
39
31
16
5
5
9
16
31
33
39
44
34
17
10
9
12
23
44
48
46
38
29
13
10
15
17
29
49
54
53
48
41
22
17
17
21
31
51
58
60
53
39
18
12
10
13
21
36
46
42
32
24
7
0
0
5
13
34
41
42
34
25
0
-3
0
8
16
35
36
38
28
16
-2
-4
-2
5
18
34
37
35
23
11
-1
-3
-2
10
20
36
36
37
25
14
-5
-9
-11
-2
14
25
21
20
16
12
6
19
33
56
86
118
138
159
182
197
197
192
191
179
172
162
135
104
65
24
-10
-24
-15
7
26
35
39
39
30
14
2
5
11
20
35
40
42
38
31
16
4
4
5
16
35
39
46
43
31
16
5
8
11
22
40
42
44
43
35
15
9
7
14
26
45
49
55
50
36
18
13
11
18
30
48
53
58
47
37
21
19
21
27
36
55
58
61
56
45
27
24
25
33
48
67
69
69
61
52
39
42
43
50
61
81
79
83
79
71
54
56
58
70
80
103
106
104
95
85
71
67
68
75
87
111
112
108
99
87
67
65
65
71
83
97
92
87
81
62
47
47
47
47
58
70
72
68
55
37
24
20
15
22
36
46
48
39
33
19
11
7
7
14
27
39
38
38
27
10
2
0
3
9
24
32
30
32
21
6
2
7
6
12
27
34
35
34
22
4
-7
-6
2
16
36
40
39
35
22
4
2
1
6
13
31
35
37
36
28
9
3
-1
2
13
33
40
41
33
21
2
4
2
6
19
38
39
38
32
22
1
6
4
8
17
34
28
31
30
22
6
2
1
5
17
33
36
34
24
19
3
-3
-2
2
18
34
33
27
22
11
0
2
5
4
15
29
30
31
19
16
-1
-3
-4
11
26
34
35
34
26
8
-9
-2
1
7
14
27
23
31
30
12
0
-3
-5
9
22
34
31
27
23
7
-3
-1
0
7
21
30
25
24
22
7
0
-2
1
12
26
37
41
36
27
10
5
1
9
22
37
41
41
35
25
16
8
0
19
24
36
44
47
42
35
15
11
6
9
12
33
33
36
28
21
-1
-8
-5
-4
5
25
33
39
28
17
-5
-10
-1
3
9
24
29
29
24
10
-4
-8
-13
-5
6
32
34
36
26
12
-8
-8
-6
2
9
31
28
31
24
13
-10
-18
-15
-6
2
30
23
15
10
8
2
18
26
51
79
111
127
148
165
187
184
180
176
172
159
153
131
108
70
27
-10
-23
-22
-13
8
24
34
32
24
14
3
10
8
17
30
43
42
38
31
17
2
3
4
14
29
43
47
44
34
16
7
7
8
20
34
43
38
34
22
21
21
16
19
26
42
45
44
44
35
17
8
8
16
29
54
54
53
50
39
31
22
21
25
32
51
55
57
55
49
32
24
23
27
47
66
71
77
68
57
41
34
41
52
61
81
85
86
80
73
59
55
56
67
74
92
98
102
96
87
71
66
65
75
83
104
107
107
100
90
71
70
64
72
83
96
92
85
82
72
48
44
46
48
55
68
68
61
52
36
25
20
18
25
37
50
46
46
37
24
8
10
8
16
32
43
41
38
28
16
2
1
0
14
26
39
37
38
28
14
1
-1
1
5
23
35
40
37
25
13
2
-1
1
9
27
37
41
36
24
12
4
2
6
16
31
38
39
34
24
11
3
4
7
15
29
32
41
38
27
10
5
-2
9
17
34
35
38
32
22
3
-2
1
7
18
33
35
38
28
18
-2
-4
0
6
13
32
35
36
26
16
5
0
-3
3
12
30
31
28
25
17
0
-6
-5
1
10
30
33
32
23
11
-6
-7
-8
3
14
28
33
31
22
11
-4
-9
-7
2
17
32
34
28
18
13
-5
-4
-2
4
19
34
33
33
23
16
-1
-3
-3
-1
21
40
42
33
30
19
1
3
7
15
31
44
41
44
33
17
5
6
6
13
30
36
37
32
19
4
-8
-10
-8
-5
17
33
30
25
15
-4
-14
-13
-7
3
15
25
32
19
5
-6
-8
-8
-7
1
18
24
23
20
11
-8
-16
-15
-11
4
25
26
22
19
7
-10
-20
-17
-8
2
18
19
21
14
-1
-21
-25
-19
-11
4
32
49
63
67
76
76
97
122
158
185
210
205
192
166
130
95
67
38
16
1
5
5
12
7
-1
-19
-17
-11
2
18
34
34
29
21
9
-5
-10
-5
4
14
29
35
33
25
12
-4
-6
-6
-3
15
34
37
40
31
14
-3
-4
-3
4
22
38
39
36
31
18
3
1
2
14
27
40
38
36
29
19
5
5
4
12
30
47
48
46
36
24
11
12
10
24
43
59
57
58
48
33
22
24
28
38
55
65
66
60
54
42
39
38
46
54
74
80
84
80
72
62
56
56
59
71
84
95
92
91
81
60
55
56
63
72
84
86
84
81
70
52
40
35
35
46
63
61
60
51
40
16
15
12
15
20
43
43
43
33
22
3
-2
-4
0
8
23
26
30
22
11
-8
-9
-11
-5
6
24
25
22
9
6
-12
-12
-11
-4
6
26
24
27
17
2
-16
-15
-9
0
7
20
25
23
15
3
-15
-13
-8
-3
10
22
18
28
19
5
-10
-11
-13
-2
13
24
24
23
19
2
-8
-6
-4
0
17
28
28
24
16
-2
-14
-13
-8
1
18
27
27
22
13
-1
-13
-17
-10
2
14
21
20
22
12
-3
-15
-10
-7
3
19
25
24
19
10
-10
-13
-10
-8
-2
14
21
23
14
6
-10
-18
-14
-5
3
19
21
20
15
4
-12
-17
-16
-9
1
17
20
21
15
3
-11
-15
-17
-9
-2
19
22
20
13
0
-16
-18
-15
-6
0
17
21
19
13
3
-11
-13
-10
-3
6
22
23
26
20
11
-10
-13
-11
-5
3
22
26
26
20
11
-5
-6
-7
2
16
33
37
34
25
14
-4
-1
-4
1
13
21
20
23
13
8
-11
-16
-15
-7
8
19
15
13
9
-8
-21
-14
-13
-5
8
16
16
14
3
-11
-20
-19
-17
-8
6
11
12
8
1
-11
-21
-22
-16
-8
5
15
16
12
4
-15
-26
-25
-22
-12
2
13
12
7
-3
-24
-34
-34
-26
-7
23
43
51
63
72
70
84
107
147
182
207
211
204
183
150
112
80
51
26
12
6
5
13
9
4
-13
-17
-14
-7
6
23
24
27
20
7
-11
-13
-18
-8
5
23
26
27
19
11
-9
-9
-8
-4
5
24
25
26
27
15
-5
-4
-6
1
10
27
29
27
26
14
-5
-4
-3
3
18
35
37
37
31
15
0
0
2
10
23
37
41
40
32
20
5
5
10
17
32
44
46
52
44
32
18
17
21
30
47
60
60
62
56
43
30
34
35
46
63
77
82
81
73
59
51
52
52
60
80
90
90
89
80
65
54
56
58
68
84
88
85
80
71
51
40
37
39
48
62
64
60
47
40
21
18
17
16
21
40
39
39
33
21
1
-5
-5
-2
10
27
26
28
18
8
-7
-13
-14
-9
-1
19
24
23
18
8
-13
-16
-18
-9
1
17
20
23
20
9
-12
-16
-13
-9
3
20
24
21
12
8
-13
-18
-15
-5
4
26
27
26
19
7
-12
-10
-9
-2
8
20
25
27
19
5
-10
-14
-10
2
11
27
25
26
18
8
-11
-13
-8
-1
13
25
26
24
15
3
-10
-14
-11
1
13
27
25
22
13
3
-11
-12
-10
-1
12
23
22
20
13
1
-10
-13
-11
-3
12
22
20
21
12
-4
-13
-14
-9
-2
13
20
21
15
7
-6
-12
-16
-12
-8
15
25
23
17
7
-8
-17
-17
-11
-5
14
14
11
14
6
-8
-8
-12
-10
1
15
19
19
13
4
-12
-16
-14
-7
5
25
26
26
19
10
-6
-8
-10
-9
2
21
25
25
19
15
-7
-8
-5
3
13
33
37
35
30
20
1
-1
-2
3
13
27
28
25
17
5
-14
-17
-17
-9
2
16
18
20
13
2
-20
-19
-18
-10
2
22
21
21
9
-5
-21
-24
-21
-10
2
15
17
14
5
-8
-20
-20
-20
-13
2
14
13
12
5
-9
-21
-24
-22
-15
9
17
16
12
-1
-16
-28
-31
-30
-21
-4
11
25
37
36
36
46
64
85
120
163
202
222
213
195
166
141
115
91
70
53
36
15
-1
-6
-19
-20
-18
-11
2
21
29
27
17
11
-7
-11
-12
-7
1
15
27
30
21
12
-7
-11
-6
-4
5
24
28
27
22
14
-4
-10
-8
1
5
25
28
31
29
17
1
-4
-5
3
12
34
37
37
30
24
-1
0
0
7
18
38
41
40
30
24
10
7
8
16
29
47
47
49
38
27
13
19
19
31
41
58
58
59
52
43
29
32
36
48
65
79
78
79
70
64
51
51
53
62
76
91
94
93
84
74
56
57
60
68
82
90
86
85
80
65
48
48
48
54
65
72
68
68
55
33
21
16
22
28
39
45
43
33
28
9
0
-4
1
9
25
31
30
24
12
-3
-10
-10
-7
1
14
24
24
17
11
-6
-13
-14
-13
-3
17
21
28
21
7
-9
-13
-14
-7
6
20
24
23
16
9
-8
-17
-13
-6
2
21
25
27
21
9
-8
-15
-12
-6
5
26
33
32
19
7
-10
-13
-11
-4
12
29
27
26
21
11
-10
-12
-8
-2
10
28
25
26
21
12
-8
-12
-10
-4
7
28
25
25
18
3
-10
-12
-13
-5
9
26
27
25
15
1
-15
-12
-13
-2
10
20
20
23
13
-1
-12
-11
-12
-5
11
24
21
19
14
-3
-16
-18
-13
-1
12
22
22
19
9
-5
-14
-16
-10
-6
10
22
23
20
10
-5
-16
-16
-14
-4
14
19
18
16
7
-9
-17
-18
-10
-3
14
18
18
17
6
-11
-20
-19
-12
-2
17
22
24
18
9
-9
-14
-9
-8
3
20
27
29
21
8
-6
-10
-9
-4
7
25
31
32
25
20
-1
-3
-7
1
10
29
35
34
26
14
-7
-10
-10
-4
3
19
17
20
10
4
-16
-16
-17
-9
0
19
19
17
9
1
-20
-19
-20
-13
1
17
15
14
7
-6
-21
-24
-23
-14
-4
17
19
19
7
-7
-21
-25
-23
-11
3
16
18
14
5
-9
-22
-24
-22
-14
-3
11
9
4
-4
-15
-13
-7
10
32
61
87
105
126
142
159
163
165
167
160
156
140
117
89
51
2
-25
-40
-35
-22
-5
7
11
16
12
-1
-12
-12
-7
-3
17
29
28
23
12
-6
-7
-8
-3
4
25
29
26
19
12
-4
-8
-8
-4
8
26
28
27
22
13
-2
-9
-5
-3
18
36
35
35
27
19
1
-3
0
5
17
34
36
37
31
24
7
3
5
11
22
39
40
43
35
30
16
14
17
20
33
52
57
57
51
42
25
24
24
37
50
68
67
69
68
56
45
43
43
53
67
83
87
86
80
72
59
53
57
65
73
89
92
89
86
71
55
55
53
60
73
83
78
75
66
48
31
28
25
34
49
57
55
50
39
21
7
4
6
16
27
35
34
30
18
2
-7
-10
-5
1
21
28
27
23
14
-5
-8
-8
-6
3
20
23
25
20
7
-7
-13
-13
-10
-1
18
23
28
21
13
-6
-15
-12
-4
4
22
25
24
18
10
-7
-7
-6
-3
9
26
28
28
20
12
-8
-12
-9
2
12
29
30
28
22
14
-7
-9
-8
1
9
30
31
32
22
12
-7
-11
-11
-5
9
26
28
31
21
8
-9
-11
-12
-7
6
25
26
28
22
9
-7
-9
-11
-1
9
25
24
22
16
1
-11
-15
-12
-3
10
25
27
25
16
3
-13
-13
-12
-2
11
20
21
19
13
-1
-13
-14
-11
-4
13
24
23
20
10
-2
-13
-17
-12
-3
15
24
23
20
13
-3
-15
-14
-12
-5
13
24
24
17
6
-11
-11
-15
-6
3
17
23
22
18
11
-7
-13
-14
-11
0
16
19
21
17
7
-8
-15
-13
-6
4
22
28
27
20
13
-5
-7
-10
-2
10
30
31
28
21
13
-2
-3
1
7
16
34
38
40
32
24
4
1
-1
6
14
30
32
30
23
11
-7
-13
-13
-11
2
18
19
21
14
4
-13
-17
-17
-11
6
21
22
22
12
1
-17
-20
-20
-8
4
21
20
19
11
-4
-19
-20
-20
-9
3
18
16
15
6
-5
-20
-18
-16
-6
6
18
18
14
4
-13
-25
-27
-25
-19
-6
9
16
24
31
29
31
46
67
96
132
167
195
206
194
169
149
125
106
89
76
50
28
5
-12
-27
-30
-26
-18
-3
21
29
30
24
15
-4
-12
-9
-5
3
19
25
30
24
16
-2
-9
-9
-3
5
22
25
29
26
14
-2
-6
-3
0
7
26
30
35
28
19
0
-5
-4
2
16
32
36
35
28
18
1
3
0
9
20
39
40
39
31
22
7
7
8
12
26
43
49
49
38
28
15
18
19
27
38
54
58
62
53
46
29
26
29
39
54
74
76
77
71
60
48
47
49
60
72
89
88
87
82
69
54
55
58
66
78
90
88
84
80
65
48
48
49
52
65
72
72
66
56
39
26
21
21
26
36
44
41
39
33
19
7
2
5
11
23
32
30
24
16
1
-10
-9
-5
2
18
28
23
19
12
-4
-12
-13
-8
1
19
23
21
17
8
-6
-14
-14
-9
-2
15
23
26
20
8
-9
-13
-13
-7
2
21
26
24
15
5
-7
-13
-13
-7
2
19
24
26
20
8
-9
-12
-6
-2
5
24
23
27
20
11
-5
-9
-11
-3
7
22
26
30
22
10
-7
-9
-12
-3
8
28
26
26
15
4
-10
-9
-12
-6
7
23
26
27
14
2
-12
-13
-12
-2
10
21
24
24
13
-1
-16
-17
-13
0
9
23
24
22
12
-2
-17
-17
-13
-5
11
20
20
17
9
-5
-16
-17
-15
-5
7
19
19
16
5
-12
-16
-14
-13
-2
11
18
21
17
4
-7
-17
-17
-15
-4
8
15
19
14
3
-14
-19
-20
-14
-2
16
17
18
13
5
-12
-19
-21
-13
-5
12
19
21
16
4
-11
-19
-21
-12
-5
14
16
17
13
3
-14
-18
-19
-11
-3
16
23
21
18
10
-10
-12
-12
-8
1
19
20
19
19
15
-6
-7
-7
-2
11
30
33
30
22
14
-2
-6
-5
1
13
30
29
27
15
7
-14
-15
-14
-9
2
16
15
13
7
-1
-17
-21
-19
-10
-3
14
15
15
6
-6
-20
-20
-20
-11
-2
10
14
11
3
-11
-22
-22
-23
-14
0
13
12
9
-1
-14
-24
-23
-22
-14
2
13
13
9
-3
-20
-33
-35
-30
-21
-5
7
9
10
12
7
13
29
49
78
114
142
177
198
200
181
164
145
129
114
108
87
58
25
-4
-30
-28
-26
-18
-5
15
23
25
19
7
-7
-10
-22
-13
-2
17
20
20
13
4
-13
-14
-12
-7
2
20
22
23
16
7
-8
-11
-10
-4
5
23
22
27
20
12
-7
-11
-11
-5
5
29
31
29
23
14
-7
-6
-4
4
15
32
36
34
25
15
-2
0
0
10
23
38
44
43
33
23
9
9
10
19
35
49
52
51
45
38
24
24
28
35
49
66
66
70
61
50
41
43
45
56
70
84
87
87
80
67
55
55
57
61
82
89
90
87
76
60
50
48
48
54
70
76
72
66
52
35
21
19
23
24
43
47
44
39
26
7
-5
-3
0
7
23
27
27
20
13
-8
-14
-14
-12
-4
15
19
18
11
0
-16
-23
-23
-16
-5
15
17
18
10
0
-17
-22
-19
-13
-4
14
16
16
6
-1
-20
-19
-17
-9
-3
17
17
17
11
3
-16
-19
-18
-12
-5
15
17
17
12
4
-16
-19
-15
-7
3
21
20
18
13
2
-16
-15
-18
-8
4
19
21
19
14
2
-18
-19
-17
-7
5
20
22
21
11
-1
-18
-17
-17
-7
6
19
19
18
10
-5
-19
-19
-19
-10
4
14
16
16
7
-6
-18
-16
-20
-11
8
15
17
14
5
-17
-25
-24
-18
-8
1
7
12
10
1
-24
-44
-52
-46
-23
-3
13
37
35
15
2
-6
-9
-27
-27
-11
-3
10
25
8
-25
-31
-27
-25
-7
13
18
28
23
7
-16
-31
-35
-29
-10
-6
-3
0
-29
-30
-34
-55
-70
-54
-15
13
18
18
32
30
9
-2
-15
-1
15
31
6
-6
-16
-35
-33
-30
-17
0
8
20
16
14
9
-1
-22
-27
-17
-14
0
27
18
1
-10
-5
-13
6
9
19
17
33
27
29
9
3
0
25
37
49
49
52
47
39
29
15
-4
-18
16
29
58
65
53
43
44
29
7
16
5
8
37
60
35
26
14
12
8
23
37
33
35
51
67
80
53
-4
-25
-4
1
14
41
47
52
80
89
33
18
14
6
19
37
63
54
50
29
7
12
30
44
48
53
51
47
30
35
35
37
23
14
37
69
73
72
69
58
25
25
31
52
82
103
99
107
127
119
122
142
166
194
237
233
214
212
173
135
128
127
67
67
50
59
77
60
56
49
35
47
54
54
53
92
101
73
78
59
32
29
27
34
48
69
58
56
51
41
8
13
47
51
73
74
67
64
53
43
8
16
25
41
39
65
62
62
72
67
46
37
46
59
69
71
86
78
61
49
46
52
47
19
24
42
49
55
83
71
52
47
44
51
70
88
72
88
79
53
58
62
92
106
84
92
102
85
99
85
71
66
65
71
79
88
110
137
128
122
96
83
70
70
104
130
135
114
110
92
90
79
110
155
148
135
150
160
112
60
51
53
66
75
82
68
96
77
68
44
46
43
35
31
58
78
72
32
29
26
21
9
19
36
54
56
45
40
32
7
7
6
16
22
36
41
43
36
29
9
1
12
13
25
25
40
33
29
21
3
0
1
6
13
34
35
37
32
19
2
-2
-2
14
22
39
36
32
29
12
-4
-5
-2
14
22
34
23
21
23
5
3
3
-3
1
13
30
27
29
19
6
-11
-11
-4
9
20
27
31
15
12
1
-10
-11
-5
3
16
22
23
15
10
-2
-8
-12
-7
-3
11
22
23
20
8
-13
-11
-9
-6
-1
12
22
23
17
15
-3
-15
-23
-12
1
14
18
18
13
6
-13
-16
-20
-17
-1
10
14
12
6
0
-14
-22
-22
-14
-7
9
17
11
8
2
-20
-23
-21
-18
-10
9
12
14
2
-9
-25
-24
-28
-16
-7
11
17
18
1
-12
-22
-24
-24
-17
-7
2
13
12
8
2
-14
-20
-22
-13
-6
17
20
21
9
-10
-19
-21
-20
-8
3
21
26
18
10
0
-14
-18
-11
-1
11
22
23
21
9
-1
-16
-18
-16
-12
-2
9
11
9
-5
-12
-27
-29
-24
-19
0
10
10
5
1
-15
-23
-25
-25
-18
0
6
12
0
-3
-17
-41
-34
-18
-12
1
7
9
2
-4
-20
-26
-23
-22
-14
0
9
10
5
-13
-23
-31
-25
-29
-17
0
2
-1
3
-1
-6
8
15
36
61
96
126
149
161
167
155
142
126
119
108
94
74
46
11
-10
-42
-45
-37
-28
-18
4
13
16
13
1
-14
-16
-14
-14
-7
15
19
19
3
-3
-15
-16
-14
-9
0
19
19
22
16
4
-13
-13
-13
-5
9
23
23
19
16
5
-9
-12
-9
-2
9
23
25
27
16
5
-8
-10
-7
3
13
27
29
27
20
10
-2
0
-3
8
15
37
41
37
27
19
5
-6
6
20
35
44
46
47
40
30
15
21
27
33
48
59
61
61
52
40
33
39
40
44
64
76
76
74
64
56
37
38
39
53
81
82
82
78
64
51
39
37
41
47
64
66
55
48
41
26
16
12
14
21
36
39
35
22
14
-2
-7
-12
-5
5
18
16
19
15
5
-15
-26
-23
-17
-5
11
4
9
13
0
-21
-23
-25
-18
-15
7
14
13
6
-8
-28
-23
-22
-16
-9
6
11
11
2
-6
-21
-24
-26
-13
-3
10
13
3
-9
-6
-21
-25
-19
-16
-2
12
14
10
5
-4
-22
-22
-20
-14
-2
13
15
8
4
-5
-19
-17
-13
-14
0
16
20
14
7
-5
-16
-15
-12
-12
-1
12
15
7
-1
-9
-20
-18
