-1
-1
-1
-1
-1
-1
-1
-1
-1
-1
-1
-1
-1
-1
-1
-1
-1
-1
-1
-1
-1
-1
-1
-1
-1
-1
-1
-1
-1
-1
-1
-1
-1
-1
-1
-1
-1
-1
-1
-1
-1
-1
-1
-1
-1
-1
-1
-1
-1
-1
-1
-1
-1
-1
-1
-1
-1
-1
-1
-1
-1
-1
-1
-1
-1
-1
-1
-1
-1
-1
-1
-1
-1
-1
-1
-1
-1
-1
-1
-1
-1
-1
-1
-1
-1
-1
-1
-1
-1
-1
-1
-1
-1
-1
-1
-1
-1
-1
-1
-1
-1
-1
-1
-1
-1
-1
-1
-1
-1
-1
-1
-1
-1
-1
-1
-1
-1
-1
-1
-1
-1
-1
-1
-1
-1
-1
-1
-1
-1
-1
-1
-1
-1
-1
-1
-1
-1
-1
-1
-1
-1
-1
-1
-1
-1
-1
-1
-1
-1
-1
-1
-1
-1
-1
-1
-1
-1
-1
-1
-1
-1
-1
-1
-1
-1
-1
-1
-1
-1
-1
-1
-1
-1
-1
-1
-1
-1
-1
-1
-1
-1
-1
-1
-1
-1
-1
-1
-1
-1
-1
-1
-1
-1
-1
-1
-1
-1
-1
-1
-1
-1
-1
-1
-1
-1
-1
-1
-1
-1
-1
-1
-1
-1
-1
-1
-1
-1
-1
-1
-1
-1
-1
-1
-1
-1
-1
-1
-1
-1
-1
-1
-1
-1
-1
-1
-1
-1
-1
-1
-1
-1
-1
-1
-1
-1
-1
-1
-1
-1
-1
-1
-1
-1
-1
-1
-1
-1
-1
-1
-1
-1
-1
-1
-1
-1
-1
-1
-1
-1
-1
-1
-1
-1
-1
-1
-1
-1
-1
-1
-1
-1
-1
-1
-1
-1
-1
-1
-1
-1
-1
-1
-1
-1
-1
-1
-1
-1
-1
-1
-1
-1
-1
-1
-1
-1
-1
-1
-1
-1
-1
-1
-1
-1
-1
-1
-1
-1
-1
-1
-1
-1
-1
-1
-1
-1
-1
-1
-1
-1
-1
-1
-1
-1
-1
-1
-1
-1
-1
-1
-1
-1
-1
-1
-1
-1
-1
-1
-1
-1
-1
-1
-1
-1
-1
-1
-1
-1
-1
-1
-1
-1
-1
-1
-1
-1
-1
-1
-1
-1
-1
-1
-1
-1
-1
-1
-1
-1
-1
-1
-1
-1
-1
-1
-1
-1
-1
-1
-1
-1
-1
-1
-1
-1
-1
-1
-1
-1
-1
-1
-1
-1
-1
-1
-1
-1
-1
-1
-1
-1
-1
-1
-1
-1
-1
-1
-1
-1
-1
-1
-1
-1
-1
-1
-1
-1
-1
-1
-1
-1
-1
-1
-1
-1
-1
-1
-1
-1
-1
-1
-1
-1
-1
-1
-1
-1
-1
-1
-1
-1
-1
-1
-1
-1
-1
-1
-1
-1
-1
-1
-1
-1
-1
-1
-1
-1
-1
-1
-1
-1
-1
-1
-1
-1
-1
-1
-1
-1
-1
-1
-1
-1
-1
-1
-1
-1
-1
-1
-1
-1
-1
-1
-1
-1
-1
-1
-1
-1
-1
-1
-1
-1
-1
-1
-1
-1
-1
-1
-1
-1
-1
-1
-1
-1
-1
-1
-1
-1
-1
-1
-1
-1
-1
-1
-1
-1
-1
-1
-1
-1
-1
-1
-1
-1
-1
-1
-1
-1
-1
-1
-1
-1
-1
-1
-1
-1
-1
-1
-1
-1
-1
-1
-1
-1
-1
-1
-1
-1
-1
-1
-1
-1
-1
-1
-1
-1
-1
-1
-1
-1
-1
-1
-1
-1
-1
-1
-1
-1
-1
-1
-1
-1
-1
-1
-1
-1
-1
-1
-1
-1
-1
-1
-1
-1
-1
-1
-1
-1
-1
-1
-1
-1
-1
-1
-1
-1
-1
-1
-1
-1
-1
-1
-1
-1
-1
-1
-1
-1
-1
-1
-1
-1
-1
-1
-1
-1
-1
-1
-1
-1
-1
-1
-1
-1
-1
-1
-1
-1
-1
-1
-1
-1
-1
-1
-1
-1
-1
-1
-1
-1
-1
-1
-1
-1
-1
-1
-1
-1
-1
-1
-1
-1
-1
-1
-1
-1
-1
-1
-1
-1
-1
-1
-1
-1
-1
-1
-1
-1
-1
-1
-1
-1
-1
-1
-1
-1
-1
-1
-1
-1
-1
-1
-1
-1
-1
-1
-1
-1
-1
-1
-1
-1
-1
-1
-1
-1
-1
-1
-1
-1
-1
-1
-1
-1
-1
-1
-1
-1
-1
-1
-1
-1
-1
-1
-1
-1
-1
-1
-1
-1
-1
-1
-1
-1
-1
-1
-1
-1
-1
-1
-1
-1
-1
-1
-1
-1
-1
-1
-1
-1
-1
-1
-1
-1
-1
-1
-1
-1
-1
-1
-1
-1
-1
-1
-1
-1
-1
-1
-1
-1
-1
-1
-1
-1
-1
-1
-1
-1
-1
-1
-1
-1
-1
-1
-1
-1
-1
-1
-1
-1
-1
-1
-1
-1
-1
-1
-1
-1
-1
-1
-1
-1
-1
-1
-1
-1
-1
-1
-1
-1
-1
-1
-1
-1
-1
-1
-1
-1
-1
-1
-1
-1
-1
-1
-1
-1
-1
-1
-1
-1
-1
-1
-1
-1
-1
-1
-1
-1
-1
-1
-1
-1
-1
-1
-1
-1
-1
-1
-1
-1
-1
-1
-1
-1
-1
-1
-1
-1
-1
-1
-1
-1
-1
-1
-1
-1
-1
-1
-1
-1
-1
-1
-1
-1
-1
-1
-1
-1
-1
-1
-1
-1
-1
-1
-1
-1
-1
-1
-1
-1
-1
-1
-1
-1
-1
-1
-1
-1
-1
-1
-1
-1
-1
-1
-1
-1
-1
-1
-1
-1
-1
-1
-1
-1
-1
-1
-1
-1
-1
-1
-1
-1
-1
-1
-1
-1
-1
-1
-1
-1
-1
-1
-1
-1
-1
-1
-1
-1
-1
-1
-1
-1
-1
-1
-1
-1
-1
-1
-1
-1
-1
-1
-1
-1
-1
-1
-1
-1
-1
-1
-1
-1
-1
-1
-1
-1
-1
-1
-1
-1
-1
-1
-1
-1
-1
-1
-1
-1
-1
-1
-1
-1
-1
-1
-1
-1
-1
-1
-1
-1
-1
-1
-1
-1
-1
-1
-1
-1
-1
-1
-1
-1
-1
-1
-1
-1
-1
-1
-1
-1
-1
-1
-1
-1
-1
-1
-1
-1
-1
-1
-1
-1
-1
-1
-1
-62
-54
-37
-22
2
1
-26
-45
-53
-64
-61
-48
-39
-7
6
12
-10
-43
-62
-65
-62
-39
-16
-5
5
9
-19
-20
-48
-57
-73
-63
-33
5
12
-2
-13
-29
-60
-58
-46
-31
-27
-2
-1
-7
-22
-35
-70
-46
-22
-11
-5
19
11
6
-7
-22
-41
-28
-35
-11
4
30
31
21
-16
-25
-42
-30
-29
-6
13
37
32
19
-2
-7
-32
-19
-25
0
10
28
21
19
-16
-18
-42
-50
-37
-20
-16
6
20
14
0
-6
-57
-63
-48
-15
-10
11
1
-4
-25
-55
-78
-81
-68
-36
-23
-7
-1
-13
-28
-46
-66
-62
-58
-43
-30
-12
-6
-21
-42
-58
-70
-74
-54
-32
-25
-7
-8
-30
-40
-48
-51
-61
-51
-37
-22
-20
-15
-22
-35
-58
-59
-57
-52
-40
-17
-5
-8
-20
-37
-68
-67
-78
-48
-35
-15
-6
-2
-16
-33
-63
-69
-68
-50
-27
-9
0
4
-31
-36
-79
-75
-71
-44
-25
-4
0
-4
-47
-50
-49
-50
-57
-39
-34
-13
-1
-11
-37
-49
-75
-69
-58
-43
-31
-4
-6
-24
-38
-39
-63
-61
-58
-40
-29
0
3
-14
-39
-44
-68
-72
-56
-53
-45
-13
2
-25
-33
-46
-81
-59
-41
-35
-27
4
-5
-27
-37
-46
-54
-61
-61
-45
-27
-13
9
-8
-27
-49
-66
-64
-50
-42
-18
0
-5
-29
-38
-52
-72
-64
-48
-36
-34
-5
-17
-32
-38
-59
-73
-66
-47
-45
-23
-1
1
-15
-25
-66
-78
-70
-42
-28
-4
-5
3
-23
-40
-59
-71
-66
-36
-35
0
-4
-8
-20
-36
-54
-63
-62
-50
-37
-23
-6
-15
-20
-31
-61
-76
-61
-51
-39
-4
-8
-1
-5
-31
-76
-60
-50
-36
4
15
11
-3
-3
-13
-45
-52
-42
-27
-30
0
10
8
-33
-41
-73
-70
-65
-39
-39
-3
-4
-28
-31
-41
-82
-68
-66
-42
-27
-5
2
-10
-28
-37
-73
-82
-72
-45
-29
-24
12
-11
-15
-34
-53
-46
-31
3
28
58
55
50
18
-7
-21
-21
-27
-43
-58
-50
-31
-26
-26
-28
-53
-60
-60
-60
-39
-10
-10
-28
-39
-58
-60
-61
-60
-45
-17
0
4
-23
-47
-56
-69
-53
-45
-16
-3
-1
2
-16
-41
-62
-61
-63
-50
-25
5
13
11
-17
-33
-59
-67
-59
-34
-18
-2
7
-10
-24
-21
-47
-55
-49
-25
-9
4
9
-7
-42
-29
-60
-46
-35
-9
-9
-7
22
-2
-25
-21
-42
-38
-52
-36
-18
-3
-5
-2
-6
-8
-35
-54
-57
-25
1
15
10
10
-3
-22
-41
-35
-34
-7
9
33
33
21
6
-8
-32
-34
-29
-13
11
36
35
22
5
0
-11
-9
-7
6
12
37
35
16
-6
-19
-27
-28
-24
19
26
42
56
40
9
-21
-40
-25
-9
2
26
43
33
15
-8
-24
-46
-37
-37
-27
-8
20
20
4
-22
-44
-47
-61
-51
-33
-20
-11
-8
-16
-23
-51
-67
-46
-34
-32
-25
5
11
-15
-30
-54
-54
-55
-46
-27
-9
1
1
-17
-30
-69
-46
-44
-25
-21
4
8
-2
-18
-30
-63
-62
-54
-41
-27
2
-2
-3
-23
-44
-60
-57
-45
-26
-12
4
2
-9
-39
-43
-49
-46
-47
-32
-24
0
-4
4
-21
-31
-48
-57
-59
-27
-19
6
12
3
-24
-26
-58
-46
-44
-29
-19
5
-4
-12
-24
-40
-55
-59
-39
-20
-23
-9
-10
-18
-35
-42
-54
-52
-34
-30
-22
-1
7
-12
-48
-58
-71
-75
-45
-28
-5
11
6
-23
-35
-45
-25
-54
-48
-30
-17
4
-6
-9
-27
-39
-55
-58
-38
-26
-14
-9
-16
-27
-39
-46
-46
-46
-36
-18
-13
4
10
-18
-38
-56
-75
-83
-49
-31
-11
5
2
-6
-13
-54
-63
-51
-31
-35
2
7
8
-41
-60
-47
-56
-55
-47
-31
6
2
-6
4
-20
-52
-53
-52
-33
-28
4
14
9
-14
-18
-42
-50
-61
-35
-14
7
7
0
-19
0
-43
-57
-47
-17
-23
14
17
4
-23
-35
-62
-70
-51
-27
-24
5
4
-17
-33
-45
-62
-61
-67
-50
-19
11
11
-6
-20
-35
-76
-68
-51
-23
-16
7
6
-5
-10
-13
-27
-23
-10
5
26
56
52
32
39
24
-23
-63
-60
-58
-33
16
30
15
10
-9
-67
-72
-59
-48
-2
9
0
-12
-44
-48
-58
-52
-40
-16
-12
0
8
-18
-39
-41
-54
-50
-40
-25
0
8
1
-18
-20
-56
-65
-44
-37
-16
10
16
10
-11
-23
-39
-51
-50
-37
-28
12
12
3
-18
-33
-46
-45
-38
-25
-15
5
-8
11
-16
-16
-55
-45
-39
-26
-21
14
14
7
-18
-25
-53
-59
-35
-15
4
27
26
17
3
-2
-44
-56
-36
-18
-6
24
34
-4
-26
-25
-32
-36
-12
15
8
32
33
26
15
10
-30
-34
-33
7
21
36
33
25
9
1
-26
-22
-5
18
25
47
40
26
16
1
-22
-20
-10
14
28
46
47
26
9
-8
-26
-31
-19
6
17
24
6
1
-8
-28
-38
-53
-26
-21
-8
-4
9
-10
-26
-45
-64
-62
-38
-32
-13
22
8
-10
-23
-51
-53
-53
-42
-39
3
10
-2
-23
-25
-50
-49
-47
-32
-31
9
11
3
-11
-9
-45
-67
-69
-65
-25
16
8
4
-8
-24
-48
-56
-50
-35
-24
10
11
6
-20
-41
-66
-61
-50
-33
-16
15
10
4
-17
-35
-55
-47
-51
-33
-26
7
8
1
-11
-29
-54
-61
-38
-22
-24
-9
11
1
1
-8
-49
-78
-56
-30
-20
0
12
1
-29
-44
-68
-70
-62
-25
3
22
11
1
-19
-35
-55
-60
-41
-33
-18
15
10
-1
-20
-31
-49
-60
-39
-28
-15
1
5
-11
-39
-39
-53
-51
-35
-22
-2
15
11
-11
-39
-62
-71
-61
-35
-22
-1
12
4
-13
-24
-40
-45
-67
-58
6
16
18
11
-12
-20
-53
-48
-52
-36
-20
0
5
3
-14
-20
-70
-77
-60
-33
-31
5
10
0
-18
-27
-57
-55
-50
-18
-18
-14
-8
-7
-28
-46
-47
-44
-40
-25
-5
22
16
7
-13
-31
-64
-68
-51
-25
-5
17
10
-3
-15
-17
-34
-39
-17
-7
-16
9
6
-5
-1
-22
-54
-51
-31
-15
-11
24
22
12
-17
-31
-57
-65
-52
-17
-5
17
10
7
-20
-29
-50
-61
-49
-47
-29
5
22
-8
-20
-44
-62
-56
-46
-29
-3
16
21
-8
-32
-41
-59
-55
-25
-1
12
30
44
28
23
15
1
-3
11
22
42
36
9
-31
-48
-42
-53
-34
2
4
13
10
-2
-14
-29
-46
-54
-53
-42
-36
-3
18
18
-7
-15
-40
-50
-43
-32
-12
8
15
15
1
-26
-59
-59
-52
-30
-19
16
11
0
-17
-13
-44
-57
-52
-37
-20
3
16
8
-5
-17
-46
-42
-26
-17
-15
9
0
-5
0
-11
-36
-35
-30
-13
-15
27
21
10
1
-17
-44
-41
-39
-16
-15
11
21
9
0
-3
-36
-44
-47
-17
0
24
17
5
-20
-4
-14
-27
-16
-2
22
51
40
29
15
-5
-34
-31
-12
3
4
44
52
20
13
13
0
-7
2
19
35
38
38
20
4
-7
-14
-7
0
13
38
56
46
20
16
-2
-22
-30
7
10
24
51
48
22
-6
-26
-22
-16
-11
5
29
18
13
17
-7
-30
-47
-51
-24
4
24
36
14
3
-27
-56
-51
-60
-42
-23
1
9
8
-13
-30
-48
-53
-47
-31
-29
-3
2
12
-4
-29
-43
-42
-54
-37
-14
20
20
14
2
-17
-55
-48
-38
-23
-16
10
22
0
-8
-9
-43
-53
-43
-28
-19
12
19
6
-9
-13
-51
-63
-41
-28
-9
11
25
3
-19
-29
-55
-45
-60
-38
-3
2
6
13
7
-2
-46
-51
-41
-27
-3
12
18
-3
-29
-37
-46
-53
-33
-16
-2
8
-7
-10
-19
-35
-64
-52
-19
-7
0
23
13
-8
-28
-47
-51
-32
-29
-30
-8
12
20
-11
-33
-36
-65
-61
-45
-26
7
12
5
9
-6
-29
-43
-42
-31
-34
-5
13
11
-11
-22
-41
-56
-43
-24
-24
-1
-10
7
-1
-22
-47
-52
-33
-27
-25
10
15
28
-6
-31
-56
-47
-46
-31
-27
6
5
14
12
5
-32
-56
-43
-32
-15
16
13
11
-4
-13
-27
-29
-28
-7
-4
16
26
8
-2
-8
-59
-46
-24
-21
-15
10
19
0
-13
-26
-73
-69
-35
-9
-10
19
16
5
-16
-39
-58
-59
-41
-27
-11
-7
-13
-6
-32
-38
-41
-48
-26
-15
0
32
25
19
12
-2
-14
-11
19
40
68
71
69
35
-1
-31
-85
-73
-56
-30
7
32
31
7
-36
-62
-69
-63
-32
-20
3
12
18
-6
-8
-33
-67
-67
-47
-26
8
24
17
6
-13
-54
-53
-34
-28
-5
15
25
28
5
-24
-48
-45
-38
-26
-18
25
34
32
8
-5
-34
-43
-38
-21
-17
17
13
18
-10
-27
-40
-28
-23
-8
-5
22
28
15
-2
-7
-23
-37
-43
-12
5
13
6
21
15
-3
-32
-25
-14
-15
0
33
33
26
10
8
-18
-32
-11
4
14
45
40
32
12
4
-12
-18
-2
-2
16
50
45
33
18
21
-18
-15
-1
24
38
72
66
40
31
-1
-15
-11
11
28
26
47
49
46
29
18
0
-4
24
42
43
63
59
22
15
-2
-24
-26
12
21
29
37
34
11
-4
-30
-34
-38
-10
-8
13
26
18
-3
-19
-35
-43
-43
-22
-20
4
22
13
-11
-20
-40
-38
-33
-28
-28
25
35
12
-11
-18
-42
-37
-28
-18
-4
18
23
24
8
-8
-43
-45
-33
-19
-10
10
18
21
-11
0
-20
-35
-33
-20
-9
11
12
6
-20
-34
-43
-33
-27
-12
-5
27
32
23
-12
-22
-46
-43
-28
-18
1
28
25
20
1
-19
-44
-42
-20
1
-1
20
11
7
-10
-18
-48
-38
-18
-12
-1
20
16
7
-17
-23
-39
-38
-26
-10
-11
14
12
5
-1
-23
-34
-41
-26
-14
-7
10
22
10
-5
-17
-45
-38
-19
-18
4
28
26
12
-10
-39
-39
-34
-30
-15
6
7
3
-8
-9
-27
-30
-33
-16
1
21
3
6
0
-3
-32
-31
-29
-28
6
34
27
26
10
-5
-34
-31
-47
-27
1
34
46
36
8
-2
-31
-29
-31
-13
0
19
12
6
-9
-16
-48
-33
-26
-19
-11
15
10
8
1
-12
-33
-40
-37
-46
-32
22
19
8
-5
-35
-49
-45
-36
-24
-15
25
39
41
32
25
-3
-2
18
35
66
67
59
55
24
-15
-56
-74
-65
-34
-10
28
31
17
-8
-42
-57
-59
-47
-26
-12
17
9
14
9
-10
-33
-39
-36
-20
-12
25
25
15
3
-31
-50
-50
-30
-6
4
22
25
11
-7
-25
-31
-32
-2
6
18
26
21
13
-9
-50
-42
-33
-25
-13
4
22
27
9
4
-29
-33
-37
-23
-7
32
34
26
7
-4
-19
-26
-30
-12
4
15
40
35
16
8
-35
-37
-12
2
6
33
47
33
11
14
-20
-22
-14
-18
-24
29
37
40
34
19
1
-11
1
12
24
36
54
40
17
13
-9
-3
1
27
29
52
60
52
28
32
3
-11
4
28
29
54
68
66
23
30
10
2
19
16
27
47
60
48
24
3
-7
-14
-11
8
12
34
29
17
7
12
-28
-31
-20
-6
9
28
27
9
-10
-27
-39
-34
-26
-10
-3
25
22
7
-11
-32
-65
-60
-33
4
17
22
14
15
5
-22
-38
-39
-26
-13
13
34
11
4
-14
-39
-47
-45
-17
-7
12
23
27
0
-15
-33
-37
-39
-26
-9
21
23
9
-5
-13
-25
-34
-41
1
15
19
14
-6
-11
-21
-33
-28
-28
-6
-5
27
33
30
5
-29
-52
-49
-42
-25
-17
26
32
19
-8
-7
-34
-40
-44
-25
-4
35
23
6
-8
-15
-39
-40
-28
-8
3
22
24
12
-19
-33
-41
-31
-20
-16
0
14
27
17
-14
-35
-60
-48
-27
-28
-1
34
40
9
-16
-38
-46
-26
-19
-4
10
27
20
10
-9
-22
-39
-44
-33
-5
4
24
22
1
-15
-42
-51
-43
-23
-15
7
29
21
0
-17
-46
-46
-52
-24
-13
-18
9
13
5
-9
-28
-36
-34
-33
-32
-8
10
2
-4
-12
-43
-45
-42
-16
-5
13
12
3
-9
-23
-43
-29
-28
-24
-20
-10
-1
1
8
-11
-42
-49
-35
-40
-8
24
30
-1
-13
-8
-41
-33
-27
-7
-13
2
8
11
-7
-14
-42
-35
-24
-23
-16
13
26
10
-15
-19
-49
-61
-49
-26
-4
16
13
-8
-21
-33
-62
-50
-28
-18
-14
5
11
3
-17
-27
-45
-40
-27
-21
-17
11
5
14
-15
-16
-39
-21
-12
12
26
69
79
51
34
11
-9
-17
-18
-16
-12
7
13
-1
8
-3
-16
-26
-40
-27
-16
9
17
2
-13
-32
-43
-26
-27
-22
2
24
26
-7
-15
-32
-35
-36
-31
-20
2
21
10
-8
-13
-43
-50
-54
-27
-12
5
9
16
-2
-4
-33
-37
-37
-28
-13
26
31
18
-3
-17
-37
-43
-40
-23
-12
26
28
15
5
-6
-38
-24
-37
-14
-9
20
27
21
0
8
-14
-20
-25
-27
7
15
20
23
8
-8
-36
-42
-37
-23
4
34
44
31
7
8
-33
-38
-21
5
16
44
55
47
20
-5
-13
-7
-9
14
30
59
53
33
20
16
3
-1
4
14
30
49
60
37
20
1
-18
-3
7
21
36
56
50
41
21
-8
-29
-18
1
9
22
47
45
34
6
-19
-35
-30
-17
0
25
23
23
1
-2
-24
-38
-38
-25
0
19
28
18
6
-3
-32
-57
-42
-22
-15
10
20
9
-12
-19
-31
-30
-31
-24
-14
-2
15
15
-6
-21
-33
-37
-32
-21
-14
18
21
14
-9
-7
-37
-35
-29
-7
-9
11
11
6
5
-8
-30
-37
-34
5
-10
10
8
19
-3
-31
-49
-28
-35
-18
3
29
26
17
-2
-17
-31
-34
-28
-19
-16
17
32
7
-12
-15
-32
-44
-38
-21
-6
15
22
14
-7
-18
-50
-41
-27
-8
3
17
17
2
-11
-34
-41
-33
-34
-16
9
11
11
11
-3
-7
-39
-35
-19
-4
12
21
11
1
-13
-26
-52
-53
-35
-10
9
26
24
11
-16
-49
-43
-44
-37
-14
16
22
20
-5
-12
-23
-37
-50
-29
-8
4
26
26
6
-13
-47
-41
-33
-26
-8
3
5
24
1
-10
-32
-44
-46
-22
0
18
23
14
-2
-18
-49
-45
-46
-17
5
26
16
5
-3
-18
-42
-27
-24
-8
-5
16
28
17
-5
-4
-14
-32
-20
-20
-3
24
35
20
-4
-14
-38
-45
-23
7
9
40
23
13
0
-13
-42
-55
-31
-23
-8
9
13
0
-4
-16
-28
-41
-33
-29
-4
11
12
9
-8
-36
-55
-61
-45
-15
2
23
33
20
5
-25
-37
-35
-2
31
59
64
76
69
42
42
0
-17
-39
-38
-22
20
22
27
21
7
-17
-58
-48
-31
-6
13
18
-5
-28
-39
-33
-40
-25
-12
12
15
25
9
-30
-46
-65
-60
-22
-13
29
27
20
4
-17
-29
-43
-42
-22
-5
20
27
16
8
-1
-25
-15
-30
-17
-14
12
10
19
-3
-13
-32
-30
-26
-1
-2
33
40
15
-8
-17
-43
-39
-26
-10
0
30
18
24
-4
-9
-43
-43
-27
-2
19
44
41
23
7
12
-30
-27
-22
1
14
51
49
42
-3
10
-4
-31
-4
15
22
37
35
23
24
26
-4
-14
-6
8
20
55
51
40
20
11
-2
-9
-5
30
39
65
60
46
37
8
-11
-2
-1
17
42
67
69
40
36
11
-11
-13
6
26
47
56
43
18
-10
-19
-31
-28
-16
-8
10
28
24
6
-1
-24
-46
-35
-18
-12
4
6
5
-1
-7
-42
-28
-18
-29
-1
3
15
17
-16
-12
-35
-27
-24
-22
-8
21
22
17
-2
-15
-35
-28
-31
-15
-2
22
11
11
-3
-16
-40
-45
-35
-7
0
23
30
22
-14
-17
-31
-35
-36
-27
-11
23
27
15
0
-26
-38
-23
-23
-10
-16
20
14
3
1
-10
-42
-35
-21
-6
9
24
20
6
-6
-11
-37
-51
-39
-29
0
29
29
22
3
-16
-37
-32
-22
-9
-10
19
24
-7
-13
-23
-46
-47
-29
-2
13
31
31
3
-2
-38
-40
-51
-35
-13
5
17
17
18
-7
-41
-60
-47
-33
-16
9
27
32
6
-9
-42
-45
-47
-34
-1
16
20
28
-1
-13
-31
-41
-40
-20
-11
8
17
7
-22
-10
-20
-30
-48
-29
-21
13
20
19
0
-2
-51
-34
-26
-6
6
36
21
25
11
-12
-40
-44
-43
-23
-2
29
38
31
9
-1
-33
-42
-33
-11
9
31
40
32
-4
-20
-32
-41
-23
-18
-19
14
25
4
-20
-26
-58
-59
-35
-20
-2
19
33
6
-10
-12
-41
-48
-35
-22
-7
14
22
11
-11
-20
-34
-26
-18
9
25
43
53
46
40
22
13
3
-5
41
48
22
9
-23
-67
-62
-51
-32
-9
15
4
-2
4
-11
-14
-41
-61
-57
-35
-15
14
26
18
-1
-14
-36
-40
-34
-20
-12
-6
3
7
13
6
-29
-36
-30
-17
-6
35
28
13
-2
-19
-59
-32
-21
-22
-11
32
26
16
16
5
-31
-39
-26
-12
-2
29
33
30
11
-11
-44
-40
-37
-20
-6
35
40
17
-1
-11
-43
-26
-19
0
13
27
39
21
6
4
-24
-20
-8
-1
9
28
37
32
16
7
-38
-20
5
24
21
37
39
31
21
12
-11
-18
-5
33
48
69
52
51
26
22
-6
-10
4
21
37
59
64
40
20
21
-1
4
18
37
47
81
63
54
42
12
-10
-28
4
36
39
47
45
36
20
2
-17
-19
5
6
16
33
31
13
4
-25
-43
-26
-6
0
13
27
34
7
2
-27
-47
-35
-26
-29
5
13
11
1
-14
-31
-11
-39
-24
-6
14
25
27
8
-21
-40
-51
-48
-37
-23
16
25
17
13
-2
-37
-27
-35
-21
0
22
18
8
-8
-12
-22
-32
-34
-8
-12
28
23
18
4
-3
-35
-51
-41
-21
-5
31
16
17
12
3
-37
-44
-25
-10
-17
6
9
-3
-9
-14
-39
-40
-30
-13
0
26
31
22
-4
-19
-33
-21
-27
-11
2
24
25
3
-20
-28
-41
-31
-22
-19
-3
26
8
8
1
-19
-46
-48
-37
-11
-18
6
28
24
-5
-30
-42
-35
-27
-5
10
31
18
-2
-14
-37
-43
-32
-22
-18
9
26
21
5
-8
-29
-40
-38
-26
-13
4
24
20
-5
-5
-45
-35
-42
-40
-16
16
24
10
-8
-1
-43
-29
-30
-23
-9
8
12
5
7
-3
-28
-33
-34
-29
-13
23
21
12
-6
-13
-43
-39
-30
-3
2
23
33
36
11
7
-29
-50
-38
1
0
27
32
22
5
-5
-31
-56
-23
-23
-21
21
22
8
3
-7
-24
-45
-36
-31
-24
13
-3
5
-10
-22
-48
-40
-31
-27
-15
13
14
8
-12
-22
-43
-40
-33
-4
6
32
47
33
30
26
17
18
23
54
46
58
49
20
-13
-46
-59
-54
-28
9
14
44
36
-6
-9
-23
-37
-50
-33
-24
-5
18
29
-8
-14
-38
-45
-41
-21
-10
3
20
13
-1
-11
-37
-27
-30
-12
0
18
10
18
5
-9
-46
-49
-39
-18
-6
19
21
16
4
-12
-10
-26
-29
3
-13
30
36
22
-4
-22
-44
-33
-35
-19
-1
29
24
25
10
0
-26
-31
-24
-13
3
30
37
22
13
0
-33
-33
-11
12
5
38
33
20
10
8
-32
-20
-6
7
3
36
30
33
23
3
-9
-21
-2
16
46
58
69
47
20
-3
-16
-20
-13
18
39
54
43
42
35
13
-1
11
16
25
43
60
61
45
37
18
-14
-17
3
20
27
45
46
37
18
1
-15
-18
-1
7
20
36
39
-2
-25
-23
-32
-35
-1
7
24
35
32
12
-8
-43
-39
-51
-32
-9
8
11
21
8
-15
-41
-52
-44
-29
-6
12
23
19
-3
-15
-45
-32
-39
-26
7
41
29
8
-10
-16
-41
-53
-41
-14
-16
14
35
43
2
-17
-42
-29
-26
-18
-13
23
8
11
0
-13
-44
-38
-25
-6
-8
27
21
2
-13
-13
-40
-44
-27
-15
0
17
25
5
1
2
-25
-41
-42
-20
-6
13
23
5
-10
-17
-37
-36
-34
-2
5
23
19
21
0
-17
-37
-38
-22
-10
1
19
25
7
-6
-12
-36
-45
-32
-6
11
23
25
6
-17
-25
-29
-44
-32
-11
1
31
21
8
-13
-40
-62
-47
-10
-8
8
15
28
18
3
-34
-42
-31
-12
8
16
28
23
-4
-19
-37
-33
-28
-10
-2
21
26
27
3
-10
-44
-47
-38
-25
7
23
36
14
3
-16
-37
-34
-36
-27
-8
20
40
24
-8
-23
-39
-21
-39
-27
-22
20
28
19
15
-6
-30
-18
-5
8
22
42
28
13
-23
-16
-39
-38
-18
3
19
46
46
38
-3
1
-26
-35
-20
-1
16
40
36
26
1
-24
-51
-47
-56
1
28
33
32
16
-10
-19
-46
-46
-27
-18
-2
32
25
17
9
-16
-49
-57
-37
-25
8
32
24
5
-2
-24
-41
-44
-30
9
39
55
35
27
21
13
14
24
32
40
66
74
47
34
1
-43
-70
-29
16
29
51
64
43
-12
-25
-41
-49
-53
-31
-7
15
37
40
12
-14
-20
-26
-22
-3
0
6
12
17
-7
-2
-20
-40
-25
-1
-37
-3
30
36
-4
-20
-26
-9
-23
-18
-3
42
44
27
9
9
-25
-25
-23
-2
-11
23
29
33
10
2
-26
-28
-33
-13
7
32
30
20
11
6
-11
-20
-8
4
15
28
29
31
12
1
-25
-22
-25
4
37
55
46
53
6
2
-19
-27
-10
25
44
54
47
37
33
22
0
2
4
16
41
55
62
40
21
5
4
20
25
33
50
69
61
48
32
13
1
0
20
36
56
70
65
49
23
4
-2
7
25
49
77
65
59
36
24
6
1
-1
11
15
37
48
46
25
10
-26
-29
-18
5
10
32
39
20
12
-7
-33
-25
-26
-5
7
33
22
12
6
-5
-36
-15
-19
-22
-17
3
16
9
4
-10
-24
-19
-11
4
12
40
31
30
3
-5
-41
-37
-27
-5
5
38
42
28
13
-6
-19
-27
-18
0
5
23
31
22
3
-6
-26
-42
-31
1
10
31
35
21
10
-8
-34
-41
-31
-10
11
39
35
43
16
-12
-45
-40
-29
-4
12
39
47
23
-3
-15
-39
-28
-15
8
17
36
38
15
-4
-27
-37
-19
-11
-2
15
38
26
20
14
-16
-36
-43
-29
-13
6
40
32
7
12
-14
-13
-19
-10
5
11
16
21
18
2
-31
-33
-30
-9
3
28
46
31
5
-14
-32
-30
-36
-17
3
33
29
23
14
-3
-28
-16
-39
-17
-7
7
13
7
8
-5
-31
-25
-12
-10
-2
21
30
26
8
13
-24
-38
-34
-11
1
26
32
20
8
-3
-36
-31
-17
-9
5
26
21
12
2
-2
-34
-43
-7
-5
4
34
28
17
11
1
-28
-33
-9
8
20
26
22
11
-2
0
4
-7
-7
5
21
41
46
19
12
-1
-29
-27
-3
-3
14
31
25
12
1
-19
-36
-50
-34
-6
6
31
31
21
21
-4
-22
-31
-20
-12
1
28
35
11
3
-23
-31
-17
-22
14
68
78
88
71
57
21
1
8
8
4
0
-12
9
4
7
-14
-12
-13
-4
-15
2
3
14
14
-5
-32
-43
-31
-13
0
38
25
13
19
9
-24
-30
-27
-11
-19
12
40
48
9
-7
-33
-44
-33
-14
-1
41
43
36
17
-1
-25
-30
-35
8
7
39
37
27
6
-7
-34
-41
-25
-4
15
34
42
35
10
3
-25
-29
-17
4
9
16
43
50
19
0
-24
-13
-17
3
21
46
38
25
14
2
0
-7
7
26
24
48
58
33
6
7
-11
-31
-9
19
30
53
67
59
31
15
-8
-9
16
30
43
53
71
56
43
39
8
8
21
37
64
80
75
56
40
7
5
18
29
36
66
72
53
39
26
0
0
-9
20
54
67
64
50
37
26
-5
-13
-16
12
21
32
30
30
19
-1
-28
-19
-23
-12
-13
22
30
31
12
11
-16
-27
-25
-8
8
34
40
19
3
-7
-22
-30
-25
17
10
31
21
5
-4
-10
-38
-39
-32
-1
4
33
28
26
-2
4
-23
-28
-18
-2
-2
24
40
28
12
-11
-44
-32
-19
0
25
36
29
26
1
-20
-22
-19
-11
7
12
30
24
18
-5
-3
-10
-28
-27
-6
22
27
25
19
3
-15
-33
-37
-7
2
19
34
19
13
-4
-16
-25
-36
-14
-4
12
15
24
6
3
-22
-37
-26
-33
-15
18
32
27
11
8
-23
-28
-33
-15
-4
7
32
26
3
0
-17
-21
-25
-3
1
19
6
7
-5
-4
-38
-28
-32
-14
-9
15
20
23
8
-1
-30
-40
-33
-8
-12
33
22
15
-6
-12
-38
-33
-36
-11
14
40
41
13
-3
0
-35
-32
-37
-15
-2
21
23
7
-17
-31
-50
-34
-18
-13
-11
36
40
19
1
-2
-29
-44
-36
-26
-3
27
24
16
0
-1
-34
-44
-35
-7
12
23
22
19
-2
-11
-34
-36
-3
-1
12
23
27
21
-5
-27
-33
-27
-13
-13
9
40
42
28
8
-9
-37
-24
-12
2
11
14
21
14
-5
-39
-37
-43
-30
-2
14
16
11
10
-9
-46
-34
-44
-23
-8
18
24
14
-9
-20
-23
-25
-17
3
21
41
50
55
53
51
24
21
12
31
43
54
39
10
-30
-33
-51
-29
-5
10
13
21
12
4
-8
-31
-50
-43
-32
-10
-11
29
25
9
-5
4
-29
-36
-37
-33
-12
17
17
6
-3
-4
-29
-31
-25
1
11
41
38
25
6
-8
-53
-56
-22
-13
-3
28
30
12
3
-9
-41
-33
-17
-6
-4
12
27
12
1
-31
-43
-11
2
12
10
25
36
21
2
-12
-46
-41
-7
4
15
32
46
27
9
-4
-19
-15
2
12
27
38
27
17
17
-4
-26
-15
4
10
33
43
33
19
18
-1
-9
-13
2
34
51
63
45
40
31
6
2
2
20
18
50
61
54
30
21
4
4
12
37
51
59
69
57
45
25
-4
-2
-4
18
26
38
49
37
17
16
-4
-8
-11
3
20
29
29
30
6
-14
-40
-36
-21
-7
5
36
39
22
-7
-16
-41
-49
-34
-18
-11
18
26
8
-10
-7
-35
-41
-28
-22
2
21
25
19
0
-16
-36
-39
-25
-16
-3
23
39
21
-11
-19
-39
-49
-24
-4
6
21
32
15
-14
-17
-25
-35
-10
3
9
29
27
20
20
3
-29
-52
-43
-24
28
34
20
-5
-14
-35
-37
-28
-15
-9
6
21
19
2
-6
-35
-38
-36
-16
1
11
19
28
5
-13
-59
-54
-40
-28
8
36
37
16
6
-11
-38
-35
-31
-13
-9
29
18
12
0
-11
-46
-42
-35
-26
-10
14
19
24
-1
-12
-29
-37
-34
-22
-2
22
35
29
4
-7
-45
-47
-44
-22
-13
4
10
18
13
-3
-34
-36
-26
-12
-1
16
19
13
-6
-7
-40
-30
-42
-22
-1
28
28
10
-4
-17
-43
-47
-36
-25
-9
18
21
14
4
-16
-36
-42
-39
-11
14
38
38
12
-13
-31
-53
-57
-33
-20
5
32
22
11
-7
-23
-49
-33
-21
-13
4
14
22
6
-20
-24
-47
-44
-20
-16
5
33
27
5
-14
-38
-25
-21
-3
4
14
23
11
-1
-1
-23
-27
-34
-13
-12
27
37
38
17
4
-21
-41
-38
-22
-3
24
24
22
-14
-22
-45
-50
-43
-23
-8
22
18
2
-11
-20
-37
-54
-38
-28
-19
23
34
30
-3
11
-14
-11
6
37
51
72
72
57
43
26
-11
-29
-39
-11
12
47
58
48
26
8
-41
-62
-40
-17
-4
21
36
15
-2
-7
-36
-49
-33
-22
-8
12
13
6
-12
-23
-51
-52
-25
-6
13
34
26
3
-5
-19
-40
-32
-29
-11
2
24
14
4
8
-12
-34
-36
-23
1
5
26
33
16
-6
-14
-18
-28
-27
-15
4
25
21
8
-6
-27
-34
-37
-26
-3
8
42
37
5
3
-24
-44
-46
-18
13
32
28
48
12
4
-17
-29
-25
4
7
43
41
39
38
16
-11
-16
-17
6
19
43
44
46
28
19
-1
-9
-19
8
9
49
55
63
45
25
-18
1
2
14
34
64
59
40
31
28
-2
6
10
28
33
53
50
27
0
13
2
-16
-2
24
26
49
55
36
4
-1
-34
-40
-21
-5
0
29
30
7
-9
-23
-39
-50
-17
5
9
31
27
4
-4
-22
-33
-48
-30
-15
4
18
14
-1
-22
-17
-46
-42
-25
-10
11
21
32
9
-23
-29
-35
-32
-24
-12
17
24
23
10
-8
-41
-53
-38
-27
-10
7
12
27
1
-11
-35
-25
-27
-15
-9
18
24
22
-8
-16
-27
-45
-30
-21
-16
11
24
27
-11
-23
-39
-31
-37
-24
-3
24
22
16
3
-7
-26
-35
-36
-24
-12
8
19
14
-7
-16
-28
-30
-29
-21
-23
6
12
21
2
-18
-49
-36
-28
-18
-14
18
23
10
-10
-5
-33
-42
-31
-9
-4
21
21
14
-14
-9
-46
-52
-45
-9
-3
22
37
20
-13
-19
-51
-61
-41
-14
1
26
26
19
-2
-19
-43
-38
-29
-13
0
16
13
10
-7
-26
-50
-48
-30
-14
-3
16
29
12
-2
-13
-39
-42
-30
-27
-6
17
30
4
-9
-37
-43
-47
-24
2
19
22
16
-12
-19
-51
-42
-28
-20
-3
13
18
15
-4
-13
-28
-40
-41
-23
-7
17
16
16
1
-12
-36
-47
-28
-17
-21
11
24
17
-4
-12
-43
-41
-40
-14
-2
38
39
12
-17
-18
-45
-50
-48
-13
9
22
14
2
-8
-25
-48
-34
-35
-18
-6
11
11
11
2
-7
-32
-37
-33
-20
-4
21
16
14
8
-28
-44
-19
-15
-5
11
35
43
32
8
8
-39
-45
-33
-21
-5
34
42
36
-2
-24
-44
-67
-41
-18
-7
16
34
21
1
-24
-42
-47
-22
-12
-13
6
8
1
-12
-36
-53
-47
-28
-9
38
47
46
39
34
22
17
13
21
25
60
74
53
18
-17
-36
-36
-8
14
27
47
42
3
-16
-26
-37
-50
-33
-27
-9
9
24
26
4
-23
-38
-34
-25
-9
5
24
18
17
-9
-16
-48
-46
-41
-16
-11
11
23
23
5
-11
-35
-36
-52
-18
5
11
12
15
5
4
-39
-47
-25
3
2
23
26
22
12
-4
-28
-32
-8
-20
-8
25
38
21
-6
-3
-23
-32
-23
-5
3
26
28
28
19
1
-25
-33
-21
-1
14
30
31
29
21
-22
-31
-8
-12
4
12
49
48
46
18
10
5
1
3
23
35
50
50
31
24
4
-6
-6
11
31
29
49
61
40
23
10
-6
6
16
21
48
65
76
49
31
21
-19
-8
4
16
47
46
33
20
12
7
2
-9
6
10
45
54
41
13
-11
-36
-40
-25
1
11
28
22
15
0
-4
-32
-40
-26
-2
-6
7
16
3
-4
-15
-35
-36
-46
-36
-5
40
34
15
-2
-25
-47
-34
-24
-7
-1
21
20
16
2
-20
-42
-44
-27
4
3
21
18
23
-9
-14
-32
-32
-33
-10
-4
21
24
17
2
-6
-43
-41
-35
-19
-4
17
22
23
-11
-15
-46
-47
-36
1
-1
4
20
22
-8
-5
-34
-36
-35
-2
5
20
25
16
1
-16
-45
-46
-31
-13
1
30
22
4
-11
-26
-37
-34
-34
-24
0
26
10
8
-10
-27
-43
-50
-37
-19
-1
26
22
5
-9
-36
-51
-39
-24
-1
22
43
31
17
-9
-27
-35
-33
-19
-5
4
4
6
0
4
-30
-38
-30
-17
-6
23
30
19
-3
-21
-40
-44
-47
-11
-14
1
17
26
-2
-29
-72
-47
-30
-28
-10
12
30
16
4
-5
-36
-47
-40
-19
-15
2
15
7
-11
-4
-32
-45
-35
-19
-9
26
23
15
4
-13
-35
-33
-31
-8
-14
10
13
7
-12
-18
-38
-40
-47
-7
2
30
22
-6
-20
-45
-58
-16
-17
-1
10
20
19
5
-1
-13
-33
-31
-15
-1
2
33
28
20
0
-18
-24
-18
-14
9
15
33
36
9
-11
-31
-43
-37
-21
-10
9
14
7
-19
-5
-35
-53
-48
-28
-16
1
18
10
-12
-20
-28
-38
-40
-15
12
23
53
49
27
4
-10
-3
5
35
71
78
68
53
14
-27
-78
-81
-73
-34
-7
31
33
11
-21
-47
-57
-51
-37
-25
-31
13
16
3
-12
-21
-65
-49
-36
-15
18
32
37
12
2
-12
-44
-30
-25
-5
0
32
34
16
9
-2
-31
-36
-27
2
8
35
35
27
13
5
-36
-47
-33
-4
25
40
38
27
8
-3
-36
-28
-27
-10
1
38
42
26
26
-6
-27
-22
-17
9
18
44
50
32
16
-2
-15
-19
-3
11
19
34
32
13
7
0
-8
-11
11
25
39
41
53
49
27
15
-2
-6
-3
9
35
44
49
61
47
23
11
5
24
43
57
74
66
57
46
14
3
10
32
51
70
74
66
49
39
17
6
7
30
54
50
66
71
51
39
10
-6
3
8
20
42
38
41
22
11
-16
-37
-22
5
14
40
36
31
2
-9
-17
-27
-24
-15
-10
20
20
15
-2
-19
-35
-39
-21
9
4
13
15
19
-5
-16
-32
-22
-16
-5
-5
19
20
32
4
-11
-28
-39
-30
-2
6
10
25
16
3
-7
-32
-30
-35
-9
4
23
28
15
-1
-8
-37
-38
-31
3
5
19
36
14
11
-22
-35
-42
-16
8
24
32
21
-3
-2
-9
-37
-36
-17
-16
14
46
26
8
-4
-37
-47
-31
-3
12
27
27
10
-2
-1
-36
-51
-49
-15
11
24
27
20
7
-3
-28
-33
-33
-20
-2
19
15
24
17
2
-40
-25
-19
-8
-7
0
11
12
3
-5
-34
-31
-26
-17
-4
35
30
19
15
-23
-81
-38
-19
0
10
40
29
13
-4
-27
-42
-38
-23
-1
0
25
12
10
3
-2
-39
-41
-27
-6
-1
27
20
22
5
-16
-37
-38
-24
-7
-1
29
24
-3
-4
-13
-39
-43
-34
-17
-15
10
9
15
28
4
-27
-31
-14
-1
7
16
31
15
-3
-32
-43
-42
-32
-9
11
39
39
22
5
-17
-33
-20
-15
0
16
30
28
11
3
-13
-21
-25
-5
21
33
42
23
-7
-13
-17
-40
-32
-5
-1
20
28
25
-1
-16
-39
-38
-26
-13
-4
12
12
23
7
-6
-33
-33
-38
-11
-3
19
24
24
13
14
-2
6
7
31
50
80
85
73
53
31
-22
-50
-66
-52
-7
32
43
25
29
12
-34
-46
-46
-15
-3
26
13
5
5
-5
-44
-24
-4
-5
0
41
29
18
5
-14
-41
-39
-38
-24
-4
34
25
18
8
-11
-37
-33
-17
4
10
32
28
8
4
-4
-35
-35
-26
-11
11
39
40
28
9
-12
-41
-44
-24
-7
17
33
30
18
9
-10
-23
-20
-13
3
18
32
31
15
9
7
-22
-26
-9
11
21
37
42
19
6
-11
-20
-23
2
4
44
52
58
50
26
-12
-8
-7
12
6
24
31
54
46
29
12
15
1
11
33
61
53
60
49
26
-5
1
9
29
40
71
56
50
32
32
-2
-1
-5
16
23
68
69
66
36
23
-5
-12
5
22
27
56
52
38
16
5
-12
-16
-9
-2
7
34
24
14
2
-1
-27
-39
-28
-11
-6
19
22
26
-8
-11
-40
-36
-15
3
2
11
30
16
-8
-11
-24
-36
-29
-13
6
28
20
0
-17
-38
-36
-22
-1
-2
12
25
33
16
-8
-25
-39
-33
-22
-7
6
33
28
11
3
-18
-39
-37
-29
-2
20
30
25
18
-3
-29
-52
-39
-20
-4
19
19
31
3
-2
-15
-30
-36
-10
1
15
27
8
5
-21
-37
-31
-24
-13
-8
22
24
19
12
-1
-33
-33
-35
-17
5
22
20
15
2
-13
-37
-30
-30
-23
-2
24
24
19
-4
-19
-40
-41
-26
-6
11
32
32
26
0
-5
-39
-43
-30
-3
-5
25
27
13
-8
-22
-46
-51
-36
-11
-2
29
31
23
3
-3
-36
-43
-35
-14
-1
26
32
26
4
-23
-47
-44
-40
-3
9
18
34
10
-11
-22
-42
-29
-15
-4
6
30
32
18
-4
-10
-37
-41
-25
-4
-2
13
22
14
-7
-28
-41
-46
-22
-5
5
22
28
6
-5
-35
-32
-31
-7
0
3
25
31
17
-5
-32
-45
-39
-12
-5
21
28
20
1
-17
-32
-22
-26
-21
-5
18
24
14
-10
-3
-28
-31
-21
-2
12
39
29
22
14
-5
-37
-27
-16
-5
6
35
33
28
25
9
-31
-26
-19
-8
-1
25
33
22
-7
-13
-39
-50
-35
-19
-7
19
31
17
1
-17
-44
-43
-28
-23
-2
26
28
20
6
-1
-22
-24
-3
21
42
75
75
82
52
32
18
16
16
-3
-10
-3
9
22
13
6
0
-19
-27
-14
-8
25
41
18
-8
-22
-42
-42
-25
-17
-1
25
29
15
6
-17
-36
-31
-19
-2
5
35
38
12
-7
-32
-41
-43
-25
-3
12
21
30
12
1
-32
-37
-33
-3
5
22
33
24
12
-3
-31
-35
-35
-4
1
22
31
31
17
0
-25
-29
-24
-5
0
33
33
27
8
-6
-18
-13
-26
-6
11
29
38
42
33
7
-20
-29
-16
-4
0
36
45
39
4
16
-6
-32
-25
4
28
51
54
43
24
22
-9
-9
10
34
35
61
62
53
36
18
-7
-6
-5
31
39
69
78
50
30
19
6
-9
8
22
38
72
65
54
38
30
3
-8
5
19
31
44
41
25
-2
-4
-23
-39
-6
9
18
48
31
23
-1
-19
-31
-22
-12
-3
4
27
34
12
0
-26
-44
-41
-33
1
18
37
23
2
-8
-30
-29
-29
-10
-13
15
23
16
7
-6
-26
-39
-46
-22
-8
8
14
14
11
-5
-32
-53
-44
-13
0
18
25
26
1
-1
-37
-43
-34
-8
-8
24
22
26
6
-5
-32
-35
-35
-9
-3
17
23
16
3
-9
-31
-37
-28
-7
-5
16
30
18
-19
3
-39
-38
-32
-21
-3
22
21
19
-10
-15
-47
-41
-25
0
10
17
30
18
-1
-11
-38
-28
-29
-19
-12
18
24
11
-6
-21
-39
-42
-27
-10
-4
19
22
1
-10
-36
-28
-30
-17
-10
1
18
21
0
4
-20
-38
-40
-24
-18
-6
29
28
8
-14
-30
-43
-42
-28
-8
7
26
22
10
-9
-29
-32
-29
-23
-13
2
17
14
0
-8
-32
-39
-37
-17
-11
12
32
20
4
-21
-43
-34
-28
-14
-10
20
13
14
-4
-11
-41
-31
-40
-13
-5
24
28
22
11
-9
-37
-36
-21
11
19
29
34
31
13
0
-31
-31
-27
-14
-6
19
18
7
9
-13
-32
-36
-32
-13
-9
16
29
4
-25
-28
-57
-47
-25
-16
-21
11
30
29
-4
-10
-36
-35
-22
10
21
50
59
52
29
17
12
12
31
37
43
63
30
-8
-55
-49
-65
-56
-25
1
10
24
10
-5
-33
-35
-60
-68
-36
-9
5
16
14
0
-13
-23
-35
-49
-28
-8
12
25
33
18
10
-15
-35
-36
-22
3
10
20
20
2
7
-21
-41
-33
-23
-15
17
32
37
13
-1
-30
-31
-38
-24
-6
20
31
27
2
-12
-36
-33
-33
-20
-3
27
46
25
5
13
-21
-27
-28
-24
-7
39
31
32
10
3
-23
-27
-9
7
16
48
44
34
17
14
-16
-17
-7
15
17
39
49
40
20
19
-7
-3
-9
2
24
52
44
46
30
19
-2
2
7
21
27
66
61
43
53
42
5
4
11
27
37
72
78
66
48
30
-2
-6
10
34
49
62
66
56
23
-9
-17
-8
-6
11
21
36
38
22
13
0
-33
-46
-31
-5
12
14
29
21
-9
-25
-50
-34
-20
-7
14
16
13
8
-11
-33
-38
-29
-17
-10
16
24
22
7
-6
-27
-37
-34
-18
7
21
31
11
-2
-19
-51
-42
-43
-19
-4
23
18
9
6
-10
-40
-40
-27
-16
-9
19
29
26
5
-12
-41
-40
-40
-18
-8
21
24
13
-3
-5
-30
-35
-34
-11
6
31
28
6
-2
-8
-34
-30
-20
-18
-7
19
21
7
-5
-16
-46
-46
-39
-15
-2
32
15
7
10
-11
-42
-51
-25
-15
-13
14
26
8
-8
-14
-36
-40
-32
-8
8
14
19
15
0
-14
-44
-44
-34
-14
9
28
18
5
-16
-20
-36
-43
-32
-13
7
29
23
12
-16
-37
-42
-39
-12
-4
5
23
24
4
-16
-37
-49
-51
-26
-13
1
27
16
4
-13
-44
-47
-30
-11
-4
4
22
7
-7
-20
-35
-37
-35
-26
-8
22
37
24
5
-2
-32
-38
-27
-11
-2
22
35
18
-7
-3
-22
-17
-11
-1
4
17
32
11
-4
-8
-41
-39
-44
-18
-5
21
26
-1
-18
-37
-59
-62
-46
-16
-3
17
14
0
-3
0
-42
-51
-32
-9
7
41
50
48
25
20
3
11
16
29
47
64
41
29
-5
-52
-70
-56
-23
9
15
57
39
-1
-22
-43
-53
-36
-26
-16
-6
13
29
12
-11
-23
-56
-40
-29
-3
12
20
29
7
-15
-46
-54
-46
-32
-18
14
29
26
1
-8
-22
-34
-43
-28
-10
1
17
22
10
-20
-50
-47
-31
-10
14
31
42
18
3
-2
-33
-38
-23
-14
-11
16
34
26
6
-3
-28
-17
-12
-5
2
29
29
21
18
-4
-33
-46
-31
-5
-4
41
49
19
6
-12
-41
-30
-8
15
11
42
48
35
23
13
-24
-27
11
18
29
57
50
42
26
18
-17
-12
10
18
41
60
60
49
22
19
3
-5
0
25
40
61
57
43
17
16
-5
5
19
29
42
61
67
52
26
15
-13
-40
-26
4
6
29
42
19
-8
-18
-41
-35
-14
-13
10
33
31
10
-6
-18
-45
-46
-33
-16
-1
23
31
5
-13
-32
-50
-41
-27
-17
5
20
15
4
-5
-30
-34
-37
-14
-19
2
9
5
-19
-11
-28
-38
-45
-20
12
22
28
24
2
-20
-43
-53
-49
-19
-4
19
30
25
6
-13
-35
-40
-42
-24
-18
23
26
12
6
-9
-44
-50
-39
-15
-10
33
35
14
2
-21
-55
-52
-34
-18
-4
27
13
6
1
-8
-39
-37
-40
-13
-4
13
16
9
-12
-31
-52
-46
-38
-15
10
24
24
24
-8
-22
-38
-39
-35
-13
0
25
25
0
-19
-20
-37
-42
-29
-17
-5
18
23
6
-15
-34
-55
-56
-31
-12
3
28
18
7
1
-26
-39
-38
-38
-26
-8
35
21
6
-13
-26
-40
-38
-32
-1
6
21
9
6
-17
-41
-42
-42
-13
-12
7
16
15
-2
-16
-40
-41
-43
-27
-8
20
37
20
-4
-8
-39
-48
-42
-16
-11
22
35
37
16
-9
-45
-30
-25
0
9
39
40
31
10
-11
-34
-46
-41
-30
-19
17
15
13
-6
-23
-51
-47
-35
-28
-17
17
15
-4
-25
-36
-63
-56
-29
-15
0
31
36
25
4
7
-12
-24
2
20
44
81
69
70
38
41
1
-16
-47
-30
-4
47
59
33
25
6
-50
-53
-30
-15
-14
5
12
1
-16
-24
-42
-39
-31
-8
3
20
31
-5
-21
-28
-44
-44
-24
-17
-2
14
30
18
-11
-35
-36
-52
-33
3
11
18
23
24
-20
-29
-48
-37
-21
-4
17
32
28
3
-9
-30
-48
-41
-13
-2
16
28
21
-1
-10
-32
-38
-29
-25
-4
29
36
9
-13
6
-21
-53
-12
3
18
38
31
33
7
-9
-36
-25
-16
6
10
46
40
30
10
2
-13
-19
-15
22
11
34
40
31
17
17
-12
-14
0
27
32
62
52
31
13
10
-9
-2
3
27
36
66
57
35
23
17
-7
-4
9
23
22
53
57
43
25
15
-13
-7
-1
21
27
35
31
28
26
-8
-28
-31
-25
-9
4
34
34
9
-9
-23
-44
-49
-20
-15
2
24
33
6
-11
-28
-39
-43
-32
-4
10
13
22
6
-6
-29
-51
-49
-35
-13
-2
25
23
-2
-18
-48
-48
-48
-16
-7
4
16
25
0
-23
-38
-42
-31
-24
-10
17
28
13
-5
-9
-24
-34
-37
-2
14
28
36
17
-13
-43
-67
-37
-35
-21
-5
22
15
18
5
-17
-41
-44
-38
-20
-18
19
28
16
-14
-23
-46
-40
-44
-36
-9
25
35
18
-10
-27
-46
-41
-38
-17
-13
28
23
15
-8
-18
-47
-40
-29
-13
15
42
18
6
-13
-26
-46
-38
-43
-26
-22
-1
16
18
3
-19
-41
-47
-33
-12
2
19
12
6
-4
-26
-49
-48
-33
-21
-20
16
31
20
-10
-27
-51
-54
-35
-14
-2
21
25
6
-12
-27
-51
-44
-26
0
10
28
3
15
-12
-29
-35
-33
-37
-16
6
14
13
-5
-17
-33
-33
-48
-42
-12
11
16
10
-4
-12
-30
-38
-40
-20
-14
1
11
14
0
-3
-25
-33
-24
-9
4
31
31
13
0
-3
-38
-39
-40
-8
7
34
28
22
12
-2
-37
-40
-37
-21
-16
13
20
6
-4
-18
-38
-48
-48
-40
-10
10
8
12
-5
-17
-41
-40
-36
-20
2
6
17
6
-11
-13
-19
-28
-17
6
23
64
70
67
55
38
5
0
18
-7
-25
-22
-12
-9
-10
-14
-30
-40
-34
-38
-21
-8
-6
-2
-25
-40
-54
-39
-20
-20
-1
15
25
13
-13
-32
-33
-59
-26
-6
19
19
19
18
2
-30
-52
-38
-18
-5
6
20
12
3
-8
-25
-36
-37
-27
-13
17
25
12
6
-12
-30
-44
-35
-9
0
17
23
16
-1
-17
-47
-44
-23
-5
-1
21
35
29
4
1
-23
-26
-26
-7
-2
28
31
16
6
0
-14
-17
-10
-5
3
38
49
49
24
14
-36
-31
-14
3
16
46
45
33
11
13
-16
-14
-6
17
32
56
59
40
24
14
-6
-12
2
16
24
60
63
65
50
21
0
-10
2
6
24
56
64
64
39
15
5
9
10
21
23
40
38
32
17
7
-19
-31
-21
1
20
37
35
13
-8
-15
-30
-42
-27
-19
-1
24
19
17
-9
-26
-43
-45
-19
-14
5
10
22
9
-36
-38
-29
-20
-20
-9
3
14
13
-8
-14
-30
-47
-43
-25
-8
17
17
12
-7
-16
-35
-52
-44
-12
-1
25
33
22
-9
-7
-45
-44
-40
-23
-18
16
22
12
-8
-21
-39
-30
-33
-7
-4
33
16
21
4
-13
-42
-39
-32
-26
-15
6
8
12
-4
-16
-43
-47
-30
-6
4
20
23
6
-14
-8
-57
-57
-37
-5
-9
12
11
4
-7
-2
-42
-40
-30
-18
-6
22
25
25
0
-23
-43
-44
-34
-12
0
23
12
2
-14
-28
-51
-43
-27
5
16
21
15
-2
-5
-29
-51
-56
-46
-21
11
34
36
2
-7
-20
-43
-40
-34
-10
6
31
26
11
-2
-22
-35
-41
-19
-1
3
16
21
3
-5
-11
-18
-16
-3
14
11
6
3
-3
-17
-35
-38
-39
-20
-15
10
12
16
-9
-41
-44
-58
-60
-33
-19
13
24
13
-3
-15
-42
-34
-36
-27
-23
10
14
15
4
2
-19
-16
-12
16
19
51
68
67
43
25
9
4
-16
-28
-37
-20
-9
8
4
-1
-29
-39
-47
-45
-35
17
16
-6
-21
-20
-50
-44
-31
-1
