239
245
248
268
272
309
316
300
285
272
251
257
265
280
279
305
297
294
280
269
254
254
257
269
275
301
305
307
289
281
248
254
259
271
282
311
297
296
287
276
247
250
263
272
278
300
297
284
269
265
254
248
261
268
275
301
303
297
278
271
240
241
263
281
283
303
299
280
269
264
258
268
274
289
298
313
314
299
286
275
265
257
269
283
290
317
319
302
296
281
258
251
265
284
310
335
330
318
302
280
270
265
267
276
297
311
320
297
279
260
258
255
267
280
306
312
309
291
277
253
251
243
251
264
288
292
290
267
257
234
237
238
261
269
282
278
270
264
260
232
243
235
243
249
270
273
274
265
254
225
223
220
243
257
286
271
275
248
236
216
214
225
233
253
287
288
279
259
244
215
213
216
231
251
276
269
257
252
243
217
216
224
239
237
257
259
254
243
240
211
222
223
232
242
268
259
252
254
242
218
209
219
233
243
265
275
261
243
230
214
211
225
239
240
259
268
257
233
226
205
210
223
237
235
256
261
247
239
224
206
214
215
231
246
262
262
238
224
202
193
199
209
219
245
270
271
246
229
214
214
219
229
228
245
263
254
230
224
202
198
202
224
235
247
252
251
230
232
201
207
205
211
225
256
259
259
238
231
201
193
196
206
206
243
246
244
223
212
190
195
196
216
223
239
242
235
216
220
190
192
206
217
217
249
242
229
214
208
183
186
205
218
227
244
235
226
214
213
195
191
195
206
207
235
237
228
214
213
180
187
200
218
210
220
221
222
223
216
193
182
192
202
204
234
233
221
213
207
185
185
195
203
212
234
230
214
204
198
172
167
183
196
203
225
236
216
201
198
176
171
194
216
222
228
231
227
217
201
181
174
191
202
227
246
226
211
202
186
174
180
191
201
219
227
230
208
198
183
182
185
187
202
216
218
206
196
207
191
181
181
192
200
216
212
206
206
213
186
186
178
186
206
229
229
233
213
201
178
178
176
195
217
238
242
248
221
205
172
171
173
198
213
236
223
216
204
198
167
163
171
195
192
215
219
207
199
198
161
158
164
184
195
216
211
208
198
185
157
171
160
171
193
217
218
202
185
184
159
151
143
169
184
210
224
210
200
187
166
159
172
195
204
212
215
195
194
193
175
189
194
195
203
220
207
181
163
164
140
132
144
170
186
207
209
202
185
166
150
153
158
168
190
207
208
191
182
162
147
147
163
176
199
209
208
202
200
170
151
160
177
179
189
198
207
197
180
154
153
154
173
187
209
218
214
202
197
169
157
157
172
181
199
212
199
191
191
155
142
164
191
192
220
226
211
190
182
155
159
171
188
194
215
212
216
195
189
165
175
178
192
199
231
219
217
210
208
176
173
172
185
193
227
238
225
214
219
190
181
196
222
210
227
234
227
202
191
173
177
190
204
217
240
228
220
206
194
160
148
159
186
204
215
206
194
182
164
147
151
161
179
189
210
205
186
164
157
150
146
156
162
173
191
189
181
171
161
142
123
139
161
176
194
194
178
158
144
133
128
145
162
172
193
196
184
171
145
145
148
154
159
172
186
191
175
154
124
120
130
152
174
194
203
201
176
157
142
139
136
148
162
182
182
183
175
160
130
132
131
140
149
169
174
172
165
156
133
143
148
162
164
194
196
191
178
155
127
140
137
152
155
160
171
178
164
162
134
127
133
154
163
191
186
186
167
145
123
128
140
157
165
188
189
172
150
151
140
141
147
161
168
190
184
180
174
167
140
129
148
163
166
188
190
187
174
156
131
126
138
149
160
186
189
177
175
161
147
145
155
164
178
203
201
176
158
143
126
139
149
157
179
193
188
180
174
156
130
123
137
156
164
189
194
190
171
155
142
146
154
165
179
194
185
167
164
139
136
134
153
170
192
203
208
190
169
148
139
128
154
173
190
199
195
182
176
153
145
140
152
166
196
206
202
183
169
147
140
145
168
174
200
202
193
160
150
139
144
155
170
172
200
194
189
172
160
148
153
146
168
181
214
207
198
186
175
142
134
137
159
179
201
213
205
184
167
140
150
164
178
181
196
196
196
189
186
162
160
165
172
178
213
218
213
201
196
170
166
167
183
195
215
217
206
192
180
150
160
156
155
181
214
210
194
183
171
161
163
177
188
197
204
209
209
193
176
160
152
160
176
178
209
208
200
184
170
173
162
177
190
206
217
219
217
201
178
164
173
191
201
228
241
228
208
188
166
151
147
164
162
170
173
178
168
153
125
126
139
151
155
182
192
192
179
177
154
155
150
176
181
208
210
195
180
168
147
146
155
171
180
212
217
210
187
179
159
153
144
168
180
204
199
196
187
171
143
145
147
172
186
208
203
190
173
175
138
139
156
183
175
204
224
216
183
172
146
152
171
181
183
201
211
205
191
194
166
156
160
181
206
221
215
203
192
184
160
158
180
197
201
231
227
204
183
170
147
156
183
208
209
220
219
210
199
181
166
168
187
188
192
210
212
217
194
176
167
166
182
184
192
214
207
186
182
166
148
153
162
170
177
185
180
166
151
132
114
122
150
167
178
185
186
170
160
134
118
127
143
156
170
187
187
160
153
136
144
140
150
158
171
186
180
169
159
136
126
136
159
161
176
171
174
176
164
123
120
135
144
153
179
176
171
148
131
110
125
139
149
157
184
183
182
157
138
126
145
148
163
156
180
185
183
165
162
124
133
143
152
162
185
191
188
173
177
143
134
148
171
167
184
179
169
160
154
124
126
146
167
169
189
193
174
156
150
137
142
150
169
167
183
186
179
176
163
141
132
147
163
173
191
197
175
159
149
145
155
158
176
187
182
177
176
152
138
136
144
156
165
177
188
187
180
167
138
119
135
148
163
183
198
191
175
162
149
136
140
150
163
192
201
211
207
195
155
126
117
135
136
156
195
193
180
167
145
138
120
145
167
191
192
187
163
156
140
138
136
148
159
190
190
181
169
157
139
146
147
145
157
195
194
185
167
167
143
126
131
155
155
179
184
199
170
171
142
126
139
162
157
186
190
184
179
157
122
130
151
175
176
195
192
185
171
170
151
148
154
167
182
202
193
184
177
173
153
151
162
171
173
191
195
175
168
166
151
154
153
172
192
217
206
191
173
160
145
148
159
165
184
190
187
174
163
165
144
140
156
165
173
195
185
179
167
147
135
127
143
159
174
196
195
175
156
137
130
112
113
135
171
187
177
171
151
131
124
115
137
155
185
192
180
161
156
132
119
129
144
160
190
192
197
180
164
140
155
148
147
153
174
158
136
130
134
103
90
95
122
136
171
171
163
159
146
119
117
130
138
133
163
161
149
142
134
95
99
113
135
145
173
170
160
142
143
117
118
130
140
151
174
177
169
141
135
115
121
130
133
142
178
175
163
153
138
119
115
120
129
146
179
178
154
141
143
124
126
133
138
141
166
162
151
143
142
129
126
142
153
156
172
179
171
151
142
135
137
152
176
188
208
207
186
163
140
125
133
169
171
183
196
193
187
171
164
160
151
160
180
202
199
191
175
169
159
138
142
160
163
190
187
200
192
181
137
118
131
153
157
182
180
175
161
154
123
124
138
139
146
174
173
166
156
152
114
105
112
121
117
147
155
159
142
132
105
109
104
119
132
170
179
176
147
134
95
110
120
121
120
155
166
161
137
135
101
109
115
119
127
162
155
143
138
123
92
102
101
122
131
149
150
139
124
114
91
94
100
108
117
148
147
140
132
125
99
102
128
145
137
149
159
144
132
120
102
110
114
130
148
154
160
144
129
112
88
81
107
118
133
149
155
136
138
129
115
102
108
114
133
145
140
124
122
115
108
103
114
135
143
154
149
133
115
93
91
105
122
127
144
160
153
138
127
107
87
85
97
112
139
153
147
133
145
121
104
105
118
124
163
164
146
115
105
89
93
107
127
142
171
165
149
134
118
94
106
100
118
128
155
161
149
133
119
81
92
111
122
133
163
153
135
123
120
99
106
107
116
119
148
153
150
129
129
114
109
119
138
137
158
150
144
145
129
99
101
100
120
134
156
168
158
137
137
108
99
111
131
140
161
162
148
131
117
103
99
110
127
145
167
158
142
133
125
105
108
124
148
144
162
163
156
142
130
103
109
122
133
137
152
156
147
154
139
119
122
123
141
153
162
171
165
157
133
114
111
122
136
154
154
153
148
136
119
119
130
142
151
163
173
159
143
131
107
91
91
112
130
160
167
155
148
132
104
105
107
126
126
159
167
155
132
127
105
108
110
121
125
147
155
153
129
129
104
103
117
130
128
157
148
148
138
138
125
123
128
140
153
183
184
184
168
154
111
96
97
119
122
145
135
112
102
106
88
95
119
129
134
154
157
149
139
131
99
104
115
130
134
168
169
152
128
121
93
91
113
128
132
154
166
164
155
137
105
93
122
139
146
170
163
143
137
125
104
105
120
126
138
155
166
154
134
117
91
102
115
133
146
159
155
147
133
114
105
108
121
126
137
158
160
145
134
123
118
113
125
135
160
161
148
141
131
119
119
118
134
144
172
177
181
163
145
117
108
114
132
152
179
178
186
172
161
123
134
141
155
154
174
177
179
150
139
114
123
128
136
143
165
155
154
135
125
97
89
98
110
119
151
157
144
132
123
80
77
86
113
116
142
137
136
120
103
81
81
88
111
131
141
139
126
108
111
85
72
84
96
104
127
133
133
117
103
76
76
81
104
110
139
136
125
107
105
82
77
86
111
115
136
138
118
94
77
74
78
89
105
114
137
144
127
108
93
81
88
99
103
121
134
125
117
106
89
76
86
107
110
118
133
132
111
101
80
76
75
88
105
124
135
137
113
106
79
73
75
89
106
117
128
128
118
108
87
83
88
105
105
121
137
132
113
100
71
67
69
79
91
118
129
128
107
89
67
64
73
84
95
130
128
123
113
93
59
64
81
93
99
126
123
121
101
108
75
64
75
88
90
124
130
107
99
92
64
73
85
93
91
114
117
116
96
83
62
60
72
95
99
128
123
119
108
97
65
68
81
84
98
132
128
116
105
103
82
81
83
92
96
124
118
109
104
94
80
71
84
106
113
116
118
116
89
89
97
93
95
106
120
135
128
120
111
89
71
73
85
104
126
140
143
129
121
93
77
80
86
99
120
132
129
106
96
86
85
85
99
106
126
142
137
116
124
91
75
79
93
116
139
146
138
114
108
90
80
80
91
103
125
124
120
107
96
71
70
74
98
110
131
120
108
91
89
67
72
67
86
92
114
128
123
105
92
66
67
69
91
92
108
117
121
118
115
80
75
82
107
120
147
140
115
99
109
97
93
107
120
111
133
140
110
77
73
52
42
60
78
88
118
129
107
76
79
71
62
70
100
118
142
139
129
109
102
76
67
78
108
124
139
140
123
97
89
86
90
98
111
125
142
146
138
119
111
93
89
96
99
111
143
148
134
117
108
100
87
96
109
129
141
135
124
112
100
93
94
112
124
133
146
139
124
132
117
103
102
114
127
136
145
147
140
137
116
104
109
122
130
145
161
164
147
154
134
118
112
127
141
170
174
176
156
148
124
117
117
129
130
156
157
173
164
155
135
122
116
139
140
172
181
171
151
139
117
108
113
128
134
147
153
157
144
123
91
112
125
130
125
152
158
149
131
119
104
101
106
131
133
153
157
143
124
123
106
109
121
142
153
171
168
157
146
137
118
107
118
137
145
174
164
152
136
137
111
113
141
160
158
176
184
170
147
130
112
112
122
138
160
179
183
171
160
142
128
125
142
152
159
177
172
161
156
142
130
123
137
144
164
178
173
157
153
133
127
133
147
150
166
174
173
156
149
124
128
139
152
152
173
180
181
166
151
131
135
138
151
154
164
166
178
170
153
125
122
131
147
152
183
194
179
172
151
108
110
126
154
163
178
175
172
170
145
106
122
136
153
167
193
186
180
156
160
123
127
135
145
158
189
186
176
153
147
131
137
137
153
154
183
185
181
169
159
127
126
138
146
156
192
184
176
156
137
116
115
134
149
156
179
191
183
163
143
132
136
143
159
179
187
195
182
171
154
123
130
158
169
190
206
203
191
175
159
138
141
150
159
176
193
190
175
165
150
135
141
153
158
166
180
187
175
163
137
107
119
146
165
184
191
178
177
166
144
133
124
144
167
191
199
186
166
154
131
133
140
149
153
174
182
187
165
162
142
143
150
168
174
190
188
197
184
172
148
165
178
192
184
190
170
147
141
149
121
111
109
127
133
168
176
168
152
155
136
129
139
164
167
197
202
187
164
150
123
130
137
153
160
181
180
178
162
158
149
145
157
172
169
192
194
189
164
142
124
133
143
159
169
195
194
185
163
150
137
142
154
169
186
210
207
190
183
170
154
154
167
176
183
191
202
194
181
169
152
160
173
183
196
221
223
209
180
173
154
155
171
192
208
224
220
204
187
178
174
180
183
198
214
229
225
213
203
186
173
188
207
217
250
245
232
216
214
194
184
174
193
202
224
222
218
208
190
165
172
167
178
190
214
221
202
188
172
153
150
159
173
174
202
210
195
175
175
151
157
155
164
159
192
207
209
187
171
148
151
141
158
165
187
190
182
173
160
136
136
147
159
173
206
198
187
170
157
127
145
147
162
171
192
183
178
163
159
135
133
146
167
169
190
193
186
172
158
139
141
160
182
186
202
195
173
154
140
127
144
157
171
179
184
187
178
172
172
145
145
151
168
182
200
201
179
165
149
134
143
158
162
176
186
178
177
180
168
157
153
167
174
189
202
200
174
158
144
142
134
153
166
186
204
200
190
176
156
153
155
167
172
191
195
192
178
169
151
155
154
169
175
200
193
198
183
175
158
161
163
167
167
190
200
197
194
190
157
160
168
191
190
213
212
215
199
181
152
158
170
177
182
219
225
231
218
208
169
169
181
187
185
216
232
219
199
189
169
173
180
198
211
232
227
215
196
197
172
174
192
205
203
231
238
229
210
199
157
168
187
195
208
242
240
225
205
202
175
180
189
195
217
243
241
228
215
197
175
178
192
208
224
233
230
222
202
197
190
189
192
211
224
244
254
244
223
209
203
199
206
215
228
239
238
224
223
191
181
192
212
217
242
254
246
240
229
206
195
200
218
228
236
249
246
243
240
211
195
202
221
230
251
258
251
231
225
186
182
202
229
237
252
247
233
226
216
194
193
187
198
216
243
247
241
220
214
195
192
196
203
204
236
231
244
221
212
187
189
198
209
208
228
238
249
241
226
203
200
203
220
224
252
263
250
227
234
200
193
193
213
215
235
233
212
201
186
134
135
157
189
200
235
235
210
208
189
157
157
173
191
197
217
224
207
192
179
163
159
173
202
210
224
220
210
190
179
167
163
180
204
217
236
236
227
206
191
180
178
193
209
219
235
246
237
212
197
180
179
194
222
242
245
239
229
215
216
211
215
226
231
244
255
252
240
235
219
211
216
225
245
267
265
262
252
242
214
209
203
219
239
270
282
272
253
246
226
227
240
249
254
281
276
281
268
254
223
231
241
256
266
290
295
287
271
263
236
242
247
260
259
277
270
277
267
252
221
227
229
241
249
272
273
263
247
233
202
204
206
228
233
252
260
264
245
229
200
201
206
227
233
264
267
240
222
223
199
200
220
236
233
247
253
246
224
218
198
202
224
225
228
244
250
248
236
213
189
192
200
215
232
256
268
251
225
213
193
188
203
227
227
239
240
237
221
207
204
208
208
215
227
250
250
243
222
201
189
192
205
216
228
240
247
238
246
214
194
183
205
220
239
243
227
220
216
199
192
184
218
237
249
250
248
240
226
189
182
204
232
235
246
252
241
231
222
198
203
197
215
218
233
249
252
233
220
192
188
188
207
211
249
255
248
225
226
192
199
202
212
231
255
241
231
213
204
188
199
208
215
231
251
254
239
224
225
191
187
183
209
223
247
260
251
231
220
190
171
181
209
217
251
256
243
222
214
185
180
183
200
210
245
245
213
204
205
185
186
202
212
215
236
248
230
211
194
179
194
198
210
217
238
243
231
210
199
183
181
196
211
221
237
234
215
195
179
181
190
203
218
234
243
222
200
193
175
167
175
189
209
227
245
228
201
204
184
182
186
196
208
227
230
217
217
206
176
170
181
192
202
226
225
217
196
200
180
180
181
190
191
218
224
219
214
206
178
169
173
187
200
225
216
216
223
215
181
177
174
197
217
237
237
224
214
205
176
162
171
192
196
222
235
216
195
183
149
162
164
187
196
216
218
216
195
190
147
158
173
188
193
215
210
193
182
185
159
161
167
180
200
225
223
194
170
169
154
143
160
182
200
219
219
202
203
196
175
166
184
202
216
229
219
208
196
176
153
155
167
181
183
197
187
162
140
126
120
130
150
159
191
218
211
196
171
154
142
138
155
167
177
191
191
177
176
164
148
143
165
177
182
199
185
169
156
142
134
123
145
166
185
195
180
174
174
145
136
144
162
175
194
192
169
148
150
135
134
131
139
154
186
187
181
164
155
125
127
132
153
167
186
192
189
166
152
117
117
127
150
158
185
184
185
168
156
125
114
122
135
159
185
192
173
165
162
129
129
136
152
155
183
204
185
154
146
122
124
134
168
172
187
181
169
151
146
114
104
125
136
144
167
166
156
137
129
102
102
115
122
130
145
150
135
123
100
77
77
89
104
110
136
134
131
123
82
67
68
76
95
99
118
116
88
96
82
71
66
83
96
105
113
111
97
87
68
54
63
82
82
99
109
103
83
65
62
59
48
67
86
97
89
86
87
77
57
50
42
65
83
92
97
100
81
64
36
35
32
52
72
94
85
75
67
50
16
21
29
47
59
84
84
66
53
57
33
28
38
50
53
79
85
70
41
20
-4
9
24
46
48
72
79
76
62
38
18
16
18
36
48
77
74
66
45
32
-3
-7
-6
19
38
55
62
50
28
28
2
-9
5
30
29
45
58
53
28
7
-21
-19
-1
18
13
26
22
18
23
16
-15
-13
3
17
17
34
28
22
9
-13
-27
-26
-20
-1
14
21
21
7
-6
-17
-34
-38
-19
-14
0
23
9
10
8
-16
-42
-41
-35
-20
1
8
-3
-13
-22
-40
-40
-32
-21
-24
1
23
19
-1
-20
-43
-55
-57
-41
-37
-17
-1
-5
-13
-23
-61
-61
-45
-39
-37
-16
-14
-14
-29
-52
-69
-55
-56
-46
-32
-10
-10
-22
-34
-32
-64
-67
-65
-50
-46
-26
-18
-18
-37
-52
-77
-75
-65
-55
-55
-30
-29
-32
-55
-58
-74
-63
-59
-53
-54
-27
-30
-41
-61
-71
-99
-97
-93
-77
-65
-43
-49
-63
-68
-66
-97
-87
-83
-74
-65
-43
-47
-60
-73
-84
-108
-105
-90
-79
-64
-45
-50
-52
-67
-86
-105
-114
-96
-78
-76
-54
-52
-72
-75
-89
-116
-110
-82
-57
-59
-50
-45
-40
-57
-81
-99
-86
-75
-58
-54
-43
-46
-76
-90
-117
-130
-120
-112
-106
-96
-94
-94
-100
-97
-110
-121
-115
-106
-98
-78
-58
-65
-88
-95
-111
-120
-122
-120
-115
-84
-76
-65
-81
-95
-113
-124
-135
-115
-99
-78
-74
-78
-88
-94
-116
-119
-122
-114
-124
-88
-79
-82
-93
-101
-131
-136
-129
-112
-104
-89
-83
-84
-106
-108
-128
-127
-129
-122
-121
-88
-99
-90
-92
-109
-144
-141
-129
-118
-99
-72
-71
-88
-107
-111
-132
-135
-136
-115
-103
-80
-65
-84
-103
-114
-136
-127
-121
-103
-101
-64
-60
-77
-88
-100
-136
-134
-106
-88
-93
-62
-60
-81
-87
-90
-111
-109
-104
-81
-88
-69
-60
-76
-94
-102
-129
-133
-116
-103
-98
-78
-78
-90
-111
-123
-140
-140
-132
-114
-109
-92
-103
-125
-149
-149
-160
-161
-141
-120
-115
-102
-104
-122
-141
-153
-165
-163
-155
-142
-111
-104
-114
-134
-143
-158
-164
-159
-144
-132
-123
-117
-127
-132
-151
-182
-188
-168
-146
-142
-123
-122
-125
-122
-146
-177
-188
-173
-161
-157
-137
-136
-139
-157
-162
-181
-179
-171
-161
-152
-127
-120
-126
-142
-150
-171
-179
-185
-172
-158
-129
-137
-124
-146
-154
-169
-176
-175
-157
-151
-132
-139
-153
-161
-161
-193
-202
-185
-155
-152
-133
-135
-149
-153
-161
-184
-186
-184
-164
-163
-145
-139
-152
-175
-172
-185
-190
-187
-172
-163
-133
-129
-140
-161
-177
-202
-193
-182
-172
-157
-136
-141
-151
-177
-184
-201
-199
-183
-167
-162
-148
-142
-154
-174
-197
-207
-199
-193
-178
-165
-160
-157
-172
-176
-184
-199
-191
-191
-178
-166
-150
-155
-171
-197
-214
-222
-214
-197
-187
-174
-162
-164
-171
-182
-192
-209
-215
-197
-179
-163
-155
-158
-184
-203
-220
-222
-212
-194
-194
-173
-157
-159
-168
-181
-223
-225
-220
-198
-197
-184
-177
-177
-185
-195
-226
-240
-227
-212
-201
-178
-168
-184
-202
-211
-239
-226
-219
-216
-214
-189
-189
-187
-197
-192
-224
-237
-232
-227
-213
-185
-180
-182
-203
-215
-244
-241
-251
-239
-230
-182
-182
-194
-216
-225
-246
-245
-248
-226
-226
-201
-203
-196
-208
-222
-253
-244
-231
-219
-218
-201
-195
-217
-230
-240
-280
-269
-244
-226
-219
-204
-201
-204
-220
-230
-257
-256
-257
-245
-227
-199
-197
-216
-237
-234
-250
-253
-251
-235
-210
-195
-201
-217
-223
-236
-253
-255
-246
-235
-220
-204
-206
-219
-233
-252
-265
-258
-234
-227
-219
-212
-217
-225
-231
-253
-257
-258
-248
-232
-216
-203
-198
-219
-223
-255
-259
-256
-241
-221
-197
-189
-196
-215
-223
-237
-242
-257
-243
-229
-208
-211
-214
-222
-226
-252
-262
-268
-252
-246
-231
-214
-230
-259
-247
-261
-274
-258
-243
-241
-224
-221
-215
-243
-255
-277
-273
-280
-257
-239
-210
-201
-211
-235
-241
-266
-272
-263
-249
-246
-214
-213
-223
-244
-250
-263
-260
-259
-246
-235
-197
-206
-211
-213
-221
-257
-275
-276
-269
-267
-223
-223
-247
-270
-278
-293
-292
-278
-251
-242
-231
-239
-246
-262
-270
-284
-280
-273
-249
-228
-215
-205
-222
-247
-254
-274
-287
-269
-248
-244
-234
-228
-241
-259
-273
-290
-282
-260
-253
-249
-232
-228
-246
-263
-264
-280
-290
-275
-251
-238
-227
-222
-244
-262
-278
-295
-284
-263
-246
-235
-227
-224
-231
-247
-276
-279
-273
-255
-242
-216
-201
-210
-234
-252
-275
-287
-281
-255
-247
-230
-215
-220
-239
-241
-254
-262
-257
-245
-235
-220
-216
-218
-230
-235
-249
-242
-247
-233
-217
-191
-194
-197
-216
-223
-240
-232
-221
-210
-214
-176
-177
-197
-213
-213
-233
-234
-234
-217
-205
-178
-179
-190
-209
-212
-241
-243
-236
-224
-225
-200
-189
-198
-217
-234
-261
-256
-258
-244
-234
-207
-208
-228
-231
-222
-248
-247
-246
-237
-232
-202
-196
-219
-234
-240
-264
-265
-242
-224
-228
-206
-212
-217
-229
-244
-266
-270
-258
-232
-232
-219
-206
-208
-230
-252
-266
-258
-243
-219
-210
-204
-206
-218
-233
-246
-269
-255
-241
-235
-226
-205
-205
-210
-224
-250
-269
-272
-243
-230
-211
-197
-201
-218
-221
-250
-266
-261
-246
-234
-204
-189
-201
-222
-228
-250
-258
-254
-233
-225
-221
-195
-191
-211
-229
-251
-270
-255
-226
-206
-189
-185
-192
-216
-226
-256
-261
-252
-235
-229
-210
-207
-211
-216
-230
-254
-256
-248
-242
-235
-206
-195
-196
-220
-232
-260
-255
-258
-243
-234
-206
-207
-205
-217
-224
-256
-258
-256
-229
-223
-200
-202
-210
-222
-230
-264
-271
-263
-237
-211
-178
-173
-195
-222
-239
-257
-251
-244
-219
-214
-191
-171
-192
-201
-196
-231
-231
-214
-198
-195
-172
-172
-185
-191
-203
-223
-228
-219
-205
-200
-175
-174
-189
-199
-198
-224
-235
-215
-188
-184
-169
-178
-195
-202
-224
-241
-230
-226
-205
-184
-178
-172
-173
-196
-210
-229
-231
-212
-205
-191
-175
-170
-178
-198
-222
-237
-245
-224
-205
-183
-166
-156
-173
-198
-214
-230
-227
-212
-210
-190
-170
-176
-184
-193
-213
-223
-226
-210
-199
-175
-170
-168
-180
-201
-228
-235
-237
-220
-210
-191
-180
-178
-195
-215
-239
-226
-219
-207
-207
-180
-172
-171
-188
-205
-228
-239
-237
-200
-191
-161
-161
-175
-195
-199
-223
-217
-222
-206
-201
-181
-186
-187
-201
-207
-237
-225
-217
-203
-185
-164
-176
-190
-206
-204
-230
-229
-221
-199
-200
-173
-166
-185
-210
-223
-244
-235
-216
-206
-204
-179
-176
-179
-200
-214
-230
-221
-210
-211
-197
-180
-184
-192
-214
-226
-250
-258
-243
-217
-215
-193
-194
-203
-205
-217
-240
-241
-231
-224
-213
-196
-188
-202
-214
-232
-253
-250
-234
-225
-219
-208
-211
-211
-222
-242
-265
-272
-257
-233
-209
-204
-222
-230
-240
-253
-265
-262
-250
-232
-215
-209
-226
-244
-260
-273
-277
-280
-257
-246
-232
-216
-216
-220
-236
-270
-276
-276
-261
-242
-217
-213
-217
-235
-241
-255
-251
-253
-236
-239
-215
-202
-196
-218
-229
-251
-256
-251
-245
-236
-226
-240
-242
-255
-272
-308
-300
-306
-290
-272
-240
-229
-224
-237
-250
-280
-273
-269
-260
-248
-218
-221
-233
-250
-246
-281
-280
-263
-256
-253
-231
-234
-241
-251
-260
-289
-284
-272
-268
-253
-230
-226
-238
-256
-263
-280
-286
-278
-251
-241
-216
-222
-227
-245
-254
-271
-273
-261
-242
-240
-221
-223
-231
-246
-255
-269
-265
-245
-245
-240
-215
-202
-225
-247
-258
-264
-255
-252
-241
-234
-215
-218
-230
-234
-240
-270
-259
-236
-224
-207
-187
-189
-212
-233
-237
-250
-254
-239
-222
-194
-184
-185
-195
-205
-229
-239
-241
-229
-216
-207
-197
-195
-205
-218
-235
-236
-235
-227
-228
-208
-204
-208
-206
-208
-237
-242
-253
-251
-242
-215
-220
-221
-237
-258
-273
-266
-261
-248
-227
-212
-211
-228
-244
-266
-288
-288
-285
-272
-258
-222
-223
-228
-256
-256
-278
-280
-276
-259
-251
-223
-221
-227
-235
-256
-287
-295
-276
-268
-267
-226
-218
-235
-243
-252
-292
-286
-278
-262
-259
-238
-236
-246
-253
-254
-290
-290
-275
-267
-264
-233
-229
-244
-255
-251
-269
-273
-278
-271
-258
-227
-226
-238
-252
-264
-284
-278
-267
-261
-248
-221
-226
-241
-257
-266
-279
-290
-275
-250
-243
-236
-233
-247
-257
-256
-271
-280
-270
-247
-231
-226
-226
-236
-245
-264
-282
-279
-262
-249
-229
-216
-224
-245
-266
-269
-284
-283
-257
-247
-227
-222
-226
-242
-260
-275
-287
-278
-252
-251
-236
-229
-223
-244
-248
-266
-272
-284
-269
-256
-235
-230
-233
-241
-235
-258
-275
-282
-267
-244
-220
-218
-226
-244
-258
-273
-266
-275
-269
-259
-236
-231
-242
-249
-261
-271
-278
-276
-258
-247
-226
-217
-229
-243
-259
-276
-275
-275
-253
-242
-214
-220
-226
-250
-253
-280
-290
-284
-268
-262
-224
-218
-214
-238
-249
-270
-264
-254
-246
-256
-229
-225
-237
-259
-266
-297
-292
-274
-240
-240
-220
-214
-236
-251
-243
-268
-275
-268
-251
-236
-221
-218
-229
-250
-258
-277
-281
-271
-251
-240
-222
-213
-220
-238
-257
-281
-283
-276
-259
-244
-218
-232
-242
-258
-272
-283
-282
-266
-245
-231
-212
-214
-233
-246
-263
-277
-275
-257
-253
-239
-213
-219
-230
-246
-262
-271
-259
-244
-245
-223
-221
-222
-240
-244
-281
-288
-282
-267
-255
-228
-227
-228
-236
-253
-271
-261
-265
-251
-247
-233
-225
-225
-242
-240
-264
-272
-264
-242
-241
-208
-205
-204
-222
-242
-263
-258
-260
-246
-230
-196
-205
-213
-232
-238
-257
-255
-254
-242
-239
-214
-217
-231
-243
-249
-281
-283
-272
-246
-236
-215
-218
-226
-248
-253
-273
-274
-262
-258
-246
-219
-219
-229
-244
-249
-278
-271
-254
-241
-234
-223
-233
-241
-246
-253
-271
-269
-255
-236
-235
-206
-206
-217
-236
-254
-267
-257
-249
-239
-219
-185
-190
-200
-219
-232
-251
-258
-250
-251
-248
-237
-230
-242
-263
-285
-295
-279
-266
-252
-231
-217
-208
-222
-244
-267
-276
-278
-264
-243
-232
-210
-209
-231
-241
-259
-267
-268
-259
-246
-225
-212
-211
-227
-235
-246
-253
-255
-248
-249
-232
-220
-222
-238
-238
-251
-263
-252
-238
-236
-218
-209
-206
-215
-212
-244
-251
-254
-253
-240
-203
-203
-216
-227
-231
-254
-258
-242
-220
-209
-185
-189
-196
-212
-224
-245
-248
-257
-244
-225
-187
-182
-195
-214
-219
-241
-239
-225
-202
-197
-181
-181
-204
-212
-204
-222
-219
-219
-202
-190
-165
-165
-172
-186
-187
-210
-208
-203
-192
-186
-162
-166
-174
-184
-201
-225
-221
-203
-183
-193
-168
-161
-171
-192
-212
-240
-247
-231
-208
-202
-183
-189
-199
-196
-218
-243
-237
-232
-224
-211
-191
-190
-203
-214
-229
-256
-254
-241
-226
-212
-197
-194
-200
-211
-225
-251
-252
-232
-216
-208
-196
-190
-212
-227
-248
-251
-246
-233
-212
-199
-185
-196
-204
-219
-240
-246
-252
-240
-233
-207
-189
-197
-205
-211
-243
-250
-248
-227
-215
-193
-191
-199
-219
-221
-241
-235
-232
-226
-216
-190
-172
-182
-211
-217
-247
-241
-243
-231
-213
-177
-177
-191
-211
-216
-237
-232
-225
-208
-198
-189
-181
-188
-208
-221
-237
-239
-246
-219
-199
-180
-178
-180
-200
-223
-250
-244
-229
-211
-197
-168
-170
-186
-195
-214
-243
-231
-222
-206
-206
-182
-177
-177
-189
-209
-239
-247
-229
-215
-204
-181
-185
-186
-200
-201
-228
-229
-216
-193
-191
-174
-187
-202
-204
-205
-226
-225
-225
-212
-195
-174
-177
-184
-195
-199
-222
-226
-220
-208
-191
-179
-183
-200
-200
-210
-220
-218
-211
-200
-196
-175
-168
-180
-192
-203
-234
-239
-224
-203
-178
-161
-162
-180
-196
-205
-225
-217
-210
-206
-191
-182
-174
-181
-188
-215
-226
-216
-201
-198
-180
-164
-173
-175
-194
-217
-218
-218
-206
-201
-171
-152
-152
-173
-185
-209
-220
-231
-208
-202
-166
-163
-158
-171
-181
-213
-213
-213
-198
-185
-160
-171
-181
-191
-201
-225
-227
-217
-197
-183
-155
-160
-164
-179
-192
-223
-226
-220
-206
-193
-162
-157
-160
-171
-184
-202
-203
-205
-196
-195
-161
-149
-156
-168
-190
-227
-217
-206
-188
-185
-164
-156
-158
-178
-195
-223
-217
-209
-194
-191
-164
-155
-166
-188
-203
-212
-214
-207
-185
-180
-157
-154
-163
-187
-194
-204
-202
-192
-179
-156
-136
-144
-167
-176
-186
-195
-201
-183
-170
-169
-158
-143
-150
-166
-181
-204
-193
-176
-171
-165
-148
-139
-148
-167
-185
-201
-197
-178
-170
-167
-159
-161
-171
-176
-199
-202
-207
-192
-176
-147
-125
-122
-151
-174
-196
-208
-208
-199
-192
-157
-136
-144
-167
-176
-195
-200
-192
-179
-178
-153
-141
-147
-157
-159
-187
-186
-184
-166
-157
-133
-128
-130
-154
-170
-186
-178
-183
-170
-149
-125
-128
-135
-155
-169
-197
-188
-193
-195
-198
-156
-158
-170
-167
-169
-200
-197
-194
-176
-167
-136
-138
-140
-161
-172
-201
-204
-190
-159
-147
-126
-127
-126
-157
-158
-175
-185
-179
-168
-152
-125
-128
-149
-164
-167
-187
-192
-171
-145
-133
-121
-129
-144
-158
-172
-182
-178
-168
-156
-145
-124
-123
-140
-151
-174
-191
-191
-177
-159
-147
-126
-122
-138
-152
-159
-176
-172
-160
-139
-125
-110
-113
-135
-147
-155
-161
-162
-149
-148
-129
-111
-104
-114
-129
-160
-166
-164
-153
-130
-101
-88
-94
-112
-127
-149
-162
-151
-129
-121
-93
-88
-90
-114
-123
-142
-145
-143
-128
-121
-92
-95
-95
-105
-120
-138
-138
-149
-143
-137
-112
-109
-114
-139
-157
-169
-170
-158
-134
-134
-125
-118
-113
-143
-146
-175
-183
-177
-151
-136
-112
-115
-130
-149
-155
-180
-174
-167
-157
-151
-122
-117
-125
-144
-143
-172
-183
-176
-146
-139
-118
-117
-125
-149
-164
-186
-176
-164
-154
-151
-129
-131
-141
-156
-155
-178
-171
-164
-145
-138
-112
-122
-135
-147
-142
-163
-178
-182
-163
-139
-109
-110
-131
-138
-150
-168
-169
-157
-140
-125
-112
-116
-119
-133
-148
-166
-165
-156
-154
-138
-113
-114
-122
-144
-162
-171
-165
-141
-133
-126
-111
-115
-131
-142
-149
-156
-159
-143
-133
-110
-99
-106
-121
-130
-154
-168
-163
-149
-139
-109
-106
-118
-139
-142
-159
-164
-147
-139
-130
-100
-107
-128
-135
-134
-158
-162
-161
-150
-134
-106
-113
-102
-117
-140
-176
-163
-150
-143
-132
-103
-99
-107
-130
-143
-161
-147
-145
-125
-123
-104
-112
-111
-122
-134
-161
-158
-149
-142
-131
-110
-110
-114
-130
-133
-155
-156
-142
-134
-116
-84
-95
-114
-129
-140
-163
-161
-154
-136
-130
-104
-92
-101
-117
-116
-146
-165
-154
-130
-124
-100
-99
-107
-120
-132
-161
-156
-144
-127
-117
-101
-96
-108
-118
-123
-149
-158
-149
-121
-107
-87
-93
-110
-121
-139
-165
-166
-143
-125
-102
-90
-96
-109
-130
-147
-150
-140
-125
-122
-104
-101
-106
-118
-129
-137
-147
-144
-127
-105
-94
-80
-96
-108
-127
-145
-156
-153
-137
-130
-101
-85
-86
-101
-116
-139
-152
-150
-128
-109
-93
-83
-77
-90
-99
-132
-134
-132
-113
-94
-70
-79
-90
-100
-115
-143
-143
-142
-134
-118
-101
-99
-106
-116
-111
-149
-148
-141
-127
-116
-86
-83
-90
-106
-114
-150
-152
-151
-125
-116
-86
-84
-94
-112
-120
-148
-158
-154
-129
-116
-91
-96
-102
-123
-117
-130
-127
-124
-108
-99
-83
-73
-76
-100
-101
-116
-123
-115
-99
-85
-50
-51
-71
-100
-112
-149
-144
-153
-139
-120
-93
-112
-121
-143
-157
-162
-158
-137
-118
-109
-87
-84
-94
-106
-119
-144
-141
-122
-105
-98
-83
-88
-95
-108
-119
-139
-129
-123
-103
-85
-73
-87
-102
-113
-120
-128
-126
-113
-105
-91
-72
-75
-89
-105
-114
-129
-120
-102
-102
-89
-70
-69
-86
-96
-117
-120
-116
-114
-103
-88
-75
-80
-85
-81
-109
-114
-115
-105
-98
-72
-64
-53
-72
-90
-107
-115
-105
-88
-76
-42
-59
-70
-74
-75
-100
-97
-86
-64
-58
-40
-39
-43
-56
-58
-83
-84
-78
-74
-67
-32
-34
-37
-56
-58
-77
-76
-73
-63
-41
-15
-15
-26
-59
-63
-78
-82
-82
-63
-61
-36
-31
-35
-50
-66
-110
-100
-95
-83
-74
-42
-38
-54
-75
-76
-98
-105
-105
-99
-87
-60
-68
-77
-93
-98
-117
-119
-110
-87
-84
-70
-62
-68
-81
-87
-109
-119
-104
-95
-89
-66
-64
-73
-91
-95
-115
-110
-101
-89
-76
-46
-57
-81
-103
-117
-130
-120
-108
-101
-79
-60
-59
-81
-92
-107
-111
-116
-98
-83
-73
-63
-59
-81
-99
-112
-117
-107
-96
-87
-66
-52
-66
-79
-85
-112
-115
-110
-101
-100
-71
-48
-47
-73
-79
-104
-95
-104
-86
-88
-65
-60
-61
-86
-86
-114
-116
-111
-94
-87
-60
-50
-55
-68
-74
-104
-110
-102
-94
-91
-64
-60
-56
-72
-79
-117
-116
-102
-81
-79
-54
-58
-62
-80
-88
-108
-113
-119
-104
-88
-55
-56
-52
-71
-77
-107
-95
-97
-80
-69
-50
-58
-56
-79
-91
-123
-128
-105
-89
-79
-58
-49
-58
-74
-90
-113
-100
-91
-72
-77
-59
-56
-55
-73
-86
-110
-113
-106
-91
-78
-50
-53
-67
-75
-92
-122
-115
-99
-74
-71
-50
-46
-67
-82
-95
-110
-108
-88
-76
-60
-39
-49
-57
-75
-97
-111
-115
-86
-70
-59
-44
-49
-61
-69
-97
-107
-108
-88
-76
-54
-37
-41
-56
-74
-102
-101
-101
-80
-65
-48
-35
-49
-65
-64
-95
-117
-121
-88
-64
-61
-59
-47
-64
-67
-90
-102
-88
-71
-67
-38
-42
-46
-54
-66
-87
-83
-79
-69
-64
-28
-23
-37
-57
-66
-81
-78
-82
-59
-51
-22
-25
-43
-54
-57
-75
-69
-72
-65
-63
-46
-53
-57
-66
-66
-92
-94
-87
-75
-67
-46
-52
-48
-45
-59
-94
-89
-76
-60
-63
-41
-42
-43
-64
-74
-93
-97
-96
-68
-56
-30
-17
-33
-59
-62
-98
-95
-67
-57
-51
-24
-20
-25
-39
-52
-77
-83
-59
-40
-30
-13
-9
-30
-61
-76
-91
-104
-105
-99
-85
-66
-60
-57
-68
-75
-78
-86
-73
-63
-49
-30
-30
-34
-56
-72
-84
-75
-66
-62
-50
-22
-29
-44
-41
-64
-81
-79
-57
-46
-33
-26
-17
-25
-32
-48
-65
-64
-51
-39
-21
-13
-17
-36
-46
-71
-64
-54
-33
-33
-22
-23
-26
-34
-34
-56
-61
-54
-29
-25
2
9
-5
-23
-37
-59
-60
-56
-37
-21
2
3
-1
-18
-21
-58
-57
-54
-32
-15
20
6
0
-4
-5
-34
-35
-32
-25
-20
19
30
13
4
5
-29
-37
-27
4
8
42
40
32
10
9
-5
-21
-17
-2
11
36
32
12
-7
-7
-26
-19
-7
2
4
23
23
11
-18
-22
-52
-57
-34
-20
-12
13
18
11
-11
-30
-45
-42
-22
-15
12
48
56
47
56
66
78
97
128
148
146
155
152
117
90
61
30
30
38
44
51
63
58
44
26
12
-5
-16
-3
2
20
34
41
16
8
-15
-33
-29
-15
-1
17
29
27
9
1
-31
-40
-35
-29
-10
14
20
9
-10
-15
-43
-40
-32
-11
-12
11
23
13
0
-3
-34
-38
-39
-21
8
53
85
118
107
105
62
43
39
50
44
60
48
48
33
26
-9
-9
-4
3
-4
25
35
37
26
6
-26
-27
-22
-4
10
27
24
7
-9
-21
-45
-29
-17
-8
-8
12
19
13
0
-10
-41
-42
-40
-19
-7
23
24
13
-9
-32
-51
-45
-38
-27
-8
17
12
-6
-32
-44
-41
-36
-34
-21
-12
0
0
0
-12
-24
-47
-49
-41
-19
-7
9
11
-12
-34
-40
-56
-52
-28
-12
-13
1
-4
-14
-34
-40
-47
-40
-28
-19
-4
8
7
1
-17
-42
-57
-45
-29
-32
-4
1
-7
-28
-24
-32
-49
-52
-36
-20
1
9
-3
-15
-26
-43
-49
-49
-36
-26
-4
3
-1
-12
-21
-39
-41
-42
-26
-14
9
12
8
-7
-22
-41
-42
-42
-35
-36
-10
-7
2
-5
-18
-52
-41
-38
-27
-14
8
14
3
-15
-26
-55
-58
-56
-40
-19
19
22
12
-8
-21
-49
-50
-46
-29
-25
0
17
6
-14
-18
-32
-32
-26
-5
-4
16
14
5
-12
-15
-40
-37
-29
-5
-2
23
25
4
-13
-15
-37
-43
-33
-8
-6
16
14
-8
-19
-21
-40
-47
-37
-20
-2
14
7
-6
-19
-24
-40
-34
-19
-11
-5
11
14
-6
-16
-33
-51
-52
-33
-25
-9
10
6
-10
-11
-33
-38
-32
-14
-9
7
21
10
4
-2
-12
-17
-20
-15
-4
30
43
26
-4
-9
-48
-59
-57
-46
-27
-17
-16
-16
-25
-28
-53
-61
-36
-23
-16
6
1
-3
-8
-18
-44
-35
-37
-17
-20
11
13
11
-3
-15
-31
-34
-49
-32
-10
17
23
12
-6
-11
-38
-34
-33
-22
-9
16
23
24
4
-9
-39
-38
-29
-15
-9
26
30
14
3
-6
-32
-37
-30
-18
-14
17
22
16
0
-9
-29
-33
-25
-1
19
52
46
25
15
10
-17
-23
-19
5
25
53
36
20
-1
-2
-7
-6
6
30
31
40
49
46
31
23
-1
7
15
30
36
56
55
46
38
26
14
2
12
31
47
62
57
40
21
14
-11
-22
1
10
39
52
49
30
20
4
-3
-8
-5
9
25
32
31
18
-3
-18
-23
-28
-4
5
16
25
17
6
-5
-21
-21
-21
-2
7
30
36
23
-3
-11
-35
-36
-30
-19
-8
18
27
28
3
-2
-27
-29
-25
-8
-12
11
8
11
6
-4
-27
-25
-22
-6
-2
33
34
24
-1
2
-30
-31
-6
4
-4
21
25
13
3
-4
-18
-23
-23
-13
-7
33
32
25
3
-9
-37
-39
-21
8
14
45
37
24
13
3
-41
-35
-18
0
6
30
35
19
0
-10
-31
-25
-6
3
7
33
32
11
7
7
-23
-31
-15
6
18
42
36
10
-2
2
-27
-21
-12
8
12
27
22
19
5
-15
-36
-30
-5
12
18
42
40
25
7
-20
-31
-11
-1
-2
8
24
33
12
-12
-27
-32
-15
10
21
38
44
32
15
6
-25
-29
-20
-5
6
35
36
27
18
7
-17
-17
-20
-2
-1
23
31
34
19
1
-23
-12
-17
-11
14
37
27
42
22
17
-13
-17
-25
-15
-1
27
26
34
21
11
-28
-27
-23
3
19
42
31
24
12
12
-19
-22
3
13
6
24
35
32
25
12
-23
-28
-7
12
15
42
41
23
8
8
-17
-17
-14
2
18
32
24
22
5
6
-18
-17
-7
10
18
31
29
15
1
-11
-37
-26
0
13
24
36
24
24
9
-1
-16
-23
-3
15
25
42
33
30
18
7
-7
-13
5
12
11
33
36
32
24
6
-4
3
14
26
29
53
49
28
4
-2
-10
-10
19
30
41
54
40
19
20
-1
-9
-2
10
26
44
41
34
19
14
-12
-32
-27
-9
7
33
41
33
17
8
-28
-30
-16
11
25
43
39
35
18
17
-10
-8
-12
10
22
51
41
29
14
-2
-31
-15
0
21
19
44
50
62
48
42
12
4
10
35
47
67
55
53
27
12
-14
-17
-22
-28
-1
16
12
12
-11
-14
-24
-14
-5
20
21
52
51
35
14
20
1
-5
7
11
15
34
38
28
16
26
-1
-17
5
16
19
40
42
42
32
20
2
-12
-10
-1
30
50
54
45
26
9
-10
-11
4
27
31
57
60
47
31
13
-8
-14
-2
22
41
58
51
35
29
19
0
7
17
26
46
65
56
50
36
1
1
26
32
29
54
61
62
45
30
21
20
21
27
37
67
77
83
61
51
29
31
31
50
58
81
87
92
74
62
37
42
45
51
49
74
82
80
65
72
38
37
35
47
49
77
64
64
57
46
8
1
14
34
32
62
79
74
50
35
2
-6
5
24
32
55
63
57
27
15
-11
-8
4
20
23
43
50
47
36
29
1
2
14
30
42
64
51
43
22
-1
-7
0
11
25
27
47
51
37
25
19
0
-3
2
20
33
50
43
41
30
22
4
-2
17
27
28
46
51
45
38
33
4
9
26
29
32
39
28
29
33
23
12
19
29
30
48
73
70
48
26
4
-12
1
15
21
51
55
55
44
39
19
8
2
20
22
47
56
62
45
30
10
0
4
23
42
65
71
63
48
33
1
3
5
32
43
59
65
48
28
20
3
3
2
20
35
54
51
55
39
29
-1
-1
4
23
31
47
57
62
44
29
8
0
10
15
31
58
58
55
38
34
19
18
12
25
36
68
62
50
37
27
1
8
19
34
35
59
57
46
21
18
-4
-1
10
27
41
65
69
50
33
30
0
-4
20
15
30
71
75
62
48
28
16
17
15
30
47
62
63
48
41
29
1
3
21
41
57
76
72
61
42
37
25
17
24
30
53
82
73
58
44
27
9
13
26
34
39
55
67
55
46
28
6
19
42
39
46
55
51
31
28
10
6
2
19
32
41
54
45
40
34
10
6
2
28
41
57
57
59
43
28
-3
1
10
31
34
62
77
70
60
55
28
27
34
44
62
83
89
88
62
51
11
9
12
23
25
44
47
32
-2
-9
-35
-20
-6
19
37
62
78
78
54
31
-2
-2
16
27
27
55
57
52
43
38
17
15
27
39
45
77
82
70
39
30
6
-1
11
38
53
59
67
67
55
34
22
13
24
34
49
71
69
52
45
51
19
18
29
47
59
73
63
58
48
45
26
19
22
45
67
77
65
50
41
33
34
38
47
52
64
90
98
79
51
32
36
34
43
59
86
96
96
81
68
51
42
39
54
67
102
117
110
94
78
57
54
55
67
82
107
106
109
93
73
53
36
39
75
82
95
98
93
77
75
50
42
40
47
55
75
76
67
55
49
28
37
39
50
56
80
70
52
34
27
11
14
26
42
40
64
70
68
45
30
11
19
31
49
52
71
73
59
50
42
6
6
14
31
37
62
57
53
45
47
22
14
25
39
44
69
65
53
40
29
10
13
18
46
55
68
75
67
40
19
13
16
21
40
50
78
85
68
44
25
17
21
26
36
52
78
80
62
42
21
15
16
18
36
64
71
70
52
44
35
20
24
36
46
56
68
72
54
32
15
20
23
35
43
72
81
79
63
54
34
16
13
27
43
57
73
76
48
41
11
7
9
24
38
70
79
66
55
48
22
21
15
23
30
54
70
81
55
42
23
27
29
32
36
69
64
60
47
37
10
13
26
49
53
71
65
64
50
42
18
16
16
29
38
73
71
67
56
51
20
13
19
39
34
52
62
58
45
44
20
14
23
38
41
62
69
52
43
41
18
17
31
58
60
75
76
71
47
28
8
8
16
35
50
71
66
53
40
42
30
32
46
49
48
74
77
62
34
18
0
4
20
48
62
81
84
57
41
19
15
23
28
41
61
85
91
72
56
33
11
5
30
42
63
69
71
55
52
28
22
11
38
54
72
78
63
50
41
26
29
25
42
58
73
73
66
49
51
27
26
24
29
40
78
81
72
64
63
31
27
34
49
51
79
89
94
67
45
27
26
27
44
65
88
72
66
54
48
29
33
30
38
49
75
62
62
60
48
7
4
15
38
49
71
72
57
38
24
9
22
42
45
35
59
69
62
45
40
17
16
25
45
51
80
95
91
71
54
27
37
43
64
78
98
97
77
66
48
25
25
27
39
38
62
58
34
16
4
-7
2
26
38
53
70
58
47
50
35
14
12
26
48
66
82
77
58
55
32
19
29
46
67
73
84
81
66
52
36
30
34
55
55
72
76
64
49
61
46
30
36
53
55
67
77
74
58
43
23
23
30
38
49
77
98
88
66
64
38
36
40
47
42
73
75
82
80
69
44
45
45
64
85
109
104
96
80
63
36
52
54
61
69
103
100
96
78
74
48
52
70
89
82
111
106
104
92
82
54
44
64
81
90
114
111
110
97
91
59
60
68
76
90
109
116
109
86
66
38
39
54
67
80
97
98
77
57
55
43
39
46
54
62
83
87
76
64
47
20
21
37
54
55
81
77
71
60
38
20
23
36
49
59
81
84
67
46
28
14
22
44
52
74
89
77
65
56
25
-3
10
44
51
77
83
79
64
51
39
29
28
39
51
69
72
75
64
56
30
21
15
33
55
70
66
62
50
49
28
34
38
59
65
88
82
75
57
55
24
34
24
44
50
73
77
74
50
48
31
32
37
48
48
71
76
78
60
45
12
25
32
48
50
74
73
69
53
51
31
26
29
52
53
79
79
64
59
48
12
12
30
52
60
89
76
64
51
43
21
27
40
52
52
73
68
52
39
35
19
22
35
43
46
68
75
66
46
42
27
23
25
32
54
81
77
66
57
43
27
26
32
34
43
68
57
52
54
52
25
18
40
52
67
83
78
57
45
28
14
16
31
49
61
78
74
59
35
8
16
10
30
64
76
85
79
59
44
30
28
19
46
56
71
71
62
44
38
14
13
15
43
58
77
80
69
50
44
22
20
29
44
50
74
72
61
39
25
8
16
16
37
61
87
85
79
57
35
-2
6
25
49
58
81
86
71
52
37
6
4
25
41
47
72
57
57
47
38
25
26
23
37
50
75
63
53
42
46
28
17
22
37
56
81
82
67
50
47
30
23
36
42
50
71
75
64
60
60
42
25
20
40
45
61
70
62
49
41
37
27
39
56
76
85
75
56
61
52
29
30
38
53
63
80
77
65
53
37
25
23
28
41
51
71
71
59
53
28
20
15
32
48
64
77
73
49
40
21
11
6
29
42
77
84
67
55
45
7
16
27
41
56
80
81
81
63
46
23
37
58
67
73
93
94
83
68
62
43
44
49
47
45
64
63
48
24
3
-16
-5
13
38
35
66
70
70
49
30
12
21
32
48
46
69
78
60
48
47
29
29
35
61
67
93
102
78
60
52
20
21
17
33
53
86
86
85
70
54
27
24
25
43
64
71
73
76
56
35
25
39
52
61
66
79
83
71
61
55
40
36
52
65
66
92
97
82
66
50
46
44
56
66
72
96
101
81
74
57
40
37
63
77
90
106
102
81
78
64
50
51
69
91
100
101
104
96
90
70
63
73
85
88
112
120
114
104
98
72
63
63
82
89
112
111
104
84
74
60
53
52
67
82
108
103
88
74
75
50
41
36
58
79
96
77
63
50
60
36
35
43
54
50
83
77
72
64
47
23
14
34
54
55
87
82
82
68
51
18
29
41
59
60
86
88
83
54
49
23
24
37
53
61
71
86
82
54
38
12
22
36
52
55
79
83
71
56
44
16
15
27
43
44
61
80
71
58
52
34
19
42
70
85
102
94
67
54
42
26
22
46
58
63
91
95
88
70
50
34
34
42
57
78
91
88
73
65
31
19
15
29
49
69
95
91
74
63
34
26
32
49
57
80
80
79
84
67
46
42
41
52
58
73
86
81
75
60
31
43
53
63
60
84
90
78
47
36
24
30
35
51
51
72
85
86
59
48
36
47
44
63
66
90
89
83
63
56
28
42
47
63
59
76
78
67
48
52
31
36
43
56
52
79
87
83
70
51
24
27
33
54
56
88
102
83
54
43
20
28
32
51
64
99
100
89
73
57
35
32
42
58
68
85
87
81
77
63
40
28
35
48
53
67
63
66
63
55
41
47
50
63
77
81
84
76
55
40
25
33
51
61
73
101
104
84
70
54
37
31
45
67
87
98
92
90
82
60
37
38
65
73
86
91
89
80
67
37
30
38
53
52
63
90
94
70
57
39
31
37
52
66
78
84
78
69
62
31
33
31
54
60
81
87
85
72
64
31
35
39
54
62
83
77
76
52
56
47
51
60
67
77
94
98
97
76
62
47
56
70
84
86
105
102
91
79
67
26
15
12
41
40
54
53
46
33
50
24
21
40
59
54
90
96
80
67
52
28
33
36
55
66
92
84
76
66
61
26
26
41
67
86
91
98
83
60
43
25
34
55
73
78
87
96
104
78
