-180
-182
-174
-165
-166
-181
-173
-181
-192
-193
-185
-187
-171
-159
-157
-160
-165
-180
-191
-186
-177
-179
-167
-165
-154
-165
-176
-186
-181
-182
-190
-179
-167
-157
-163
-170
-183
-190
-186
-188
-193
-185
-174
-157
-177
-178
-191
-181
-196
-185
-178
-182
-155
-148
-169
-181
-186
-194
-206
-193
-180
-171
-182
-168
-173
-162
-172
-203
-199
-189
-187
-182
-166
-163
-185
-183
-197
-192
-190
-194
-186
-175
-184
-171
-165
-181
-188
-186
-194
-200
-181
-173
-166
-171
-181
-180
-188
-196
-197
-188
-194
-183
-176
-169
-173
-180
-192
-195
-190
-184
-189
-177
-171
-161
-171
-171
-184
-183
-189
-183
-192
-168
-153
-159
-163
-170
-181
-190
-187
-190
-184
-170
-154
-177
-183
-170
-192
-204
-199
-185
-184
-178
-157
-174
-184
-183
-201
-212
-204
-189
-182
-176
-172
-180
-187
-180
-193
-202
-197
-198
-195
-175
-175
-180
-184
-198
-201
-210
-204
-202
-209
-192
-179
-179
-191
-187
-192
-201
-176
-160
-139
-105
-84
-76
-65
-72
-116
-138
-148
-144
-160
-170
-198
-222
-237
-238
-232
-248
-227
-212
-209
-184
-185
-184
-186
-189
-199
-203
-200
-203
-205
-181
-172
-173
-178
-188
-201
-207
-198
-195
-193
-175
-161
-185
-178
-192
-192
-195
-197
-179
-183
-172
-175
-186
-178
-178
-198
-199
-196
-195
-181
-168
-171
-174
-186
-187
-205
-208
-182
-187
-174
-159
-170
-174
-176
-182
-197
-193
-181
-189
-175
-163
-160
-167
-173
-177
-189
-198
-185
-183
-167
-155
-159
-162
-158
-176
-186
-181
-173
-174
-164
-160
-154
-158
-153
-169
-182
-180
-164
-157
-150
-128
-135
-164
-170
-161
-175
-165
-161
-160
-144
-138
-144
-168
-156
-170
-170
-166
-162
-166
-156
-146
-156
-151
-171
-166
-195
-172
-162
-175
-156
-155
-166
-167
-169
-175
-202
-201
-187
-180
-179
-178
-179
-195
-200
-192
-203
-196
-191
-189
-184
-179
-181
-186
-196
-214
-221
-205
-208
-199
-173
-173
-178
-187
-188
-225
-213
-198
-193
-195
-192
-174
-185
-195
-191
-208
-207
-207
-196
-185
-177
-184
-200
-203
-194
-200
-200
-206
-199
-186
-183
-176
-183
-193
-190
-213
-209
-205
-200
-187
-177
-182
-180
-178
-193
-210
-214
-198
-190
-180
-187
-186
-182
-184
-195
-216
-213
-199
-203
-186
-166
-173
-176
-194
-197
-205
-210
-202
-193
-196
-196
-190
-184
-178
-198
-203
-208
-195
-212
-196
-172
-186
-197
-193
-199
-207
-206
-200
-200
-185
-186
-182
-188
-200
-216
-222
-205
-195
-202
-191
-187
-188
-180
-181
-211
-213
-205
-197
-201
-196
-191
-194
-181
-181
-207
-230
-212
-213
-185
-179
-181
-190
-204
-200
-211
-225
-221
-202
-198
-185
-176
-191
-195
-205
-208
-207
-205
-212
-197
-190
-188
-188
-184
-199
-217
-214
-203
-201
-196
-203
-189
-180
-192
-199
-210
-205
-213
-206
-191
-199
-191
-196
-181
-193
-208
-211
-203
-198
-187
-184
-169
-178
-184
-199
-212
-214
-206
-201
-189
-175
-172
-180
-188
-188
-206
-206
-204
-209
-215
-175
-172
-191
-186
-207
-216
-208
-212
-201
-202
-185
-197
-191
-199
-200
-207
-216
-204
-201
-198
-196
-182
-191
-200
-201
-217
-227
-217
-207
-190
-183
-193
-181
-204
-221
-221
-227
-222
-215
-215
-182
-175
-163
-155
-143
-137
-123
-109
-98
-89
-111
-119
-135
-150
-184
-207
-245
-255
-249
-246
-233
-225
-226
-226
-241
-247
-234
-220
-202
-191
-200
-192
-187
-201
-212
-213
-204
-203
-200
-197
-186
-179
-193
-198
-213
-214
-206
-203
-202
-187
-180
-183
-192
-210
-214
-209
-211
-205
-193
-182
-181
-181
-174
-204
-190
-199
-204
-215
-196
-186
-183
-182
-181
-202
-205
-210
-203
-192
-181
-181
-178
-181
-183
-193
-206
-202
-201
-191
-185
-173
-177
-183
-184
-188
-201
-182
-185
-192
-174
-168
-162
-163
-170
-172
-190
-195
-185
-179
-179
-163
-155
-158
-165
-176
-191
-187
-184
-168
-165
-150
-154
-158
-161
-176
-187
-176
-177
-171
-166
-167
-155
-155
-156
-180
-175
-185
-175
-168
-155
-163
-154
-167
-163
-183
-193
-206
-184
-186
-182
-165
-169
-180
-186
-199
-213
-210
-215
-200
-179
-182
-172
-190
-195
-207
-233
-211
-202
-192
-193
-192
-176
-192
-198
-224
-220
-220
-212
-203
-193
-186
-194
-209
-201
-221
-218
-211
-212
-206
-198
-191
-198
-195
-202
-216
-226
-210
-200
-202
-194
-195
-180
-189
-196
-207
-209
-212
-211
-202
-197
-184
-196
-191
-199
-205
-211
-206
-209
-191
-192
-192
-192
-202
-221
-216
-205
-204
-204
-194
-188
-186
-188
-201
-210
-213
-219
-212
-197
-203
-193
-180
-199
-191
-204
-209
-215
-216
-213
-214
-189
-190
-202
-198
-222
-220
-216
-219
-202
-201
-191
-193
-186
-184
-209
-230
-224
-221
-207
-214
-192
-194
-194
-191
-207
-230
-220
-231
-216
-196
-197
-204
-215
-203
-200
-216
-224
-218
-212
-195
-194
-194
-204
-211
-220
-223
-217
-215
-213
-193
-194
-204
-202
-192
-210
-232
-225
-215
-220
-189
-184
-194
-207
-205
-221
-228
-227
-214
-226
-197
-184
-195
-202
-207
-219
-224
-224
-211
-209
-205
-183
-202
-203
-195
-219
-223
-229
-202
-202
-203
-195
-194
-207
-221
-221
-219
-213
-213
-199
-195
-179
-188
-204
-204
-217
-219
-215
-204
-203
-189
-190
-186
-206
-203
-212
-225
-218
-219
-217
-188
-184
-187
-198
-212
-217
-229
-223
-212
-205
-202
-208
-206
-203
-214
-225
-233
-220
-214
-224
-197
-192
-200
-208
-220
-230
-222
-231
-219
-216
-208
-196
-220
-214
-235
-235
-248
-235
-225
-223
-207
-197
-192
-184
-172
-179
-155
-149
-123
-107
-109
-124
-145
-158
-177
-204
-232
-259
-271
-264
-243
-241
-243
-256
-255
-269
-267
-255
-242
-203
-225
-212
-225
-211
-223
-225
-233
-221
-221
-219
-199
-192
-201
-206
-236
-238
-227
-221
-216
-206
-197
-202
-209
-205
-207
-234
-235
-216
-214
-204
-200
-215
-207
-210
-218
-232
-220
-210
-208
-203
-198
-204
-205
-205
-201
-226
-230
-213
-212
-195
-191
-199
-202
-205
-216
-227
-218
-224
-205
-205
-189
-188
-198
-203
-214
-230
-211
-218
-206
-187
-179
-198
-193
-201
-216
-207
-195
-208
-200
-193
-183
-179
-181
-204
-203
-203
-194
-193
-187
-173
-166
-187
-178
-186
-194
-193
-192
-197
-189
-181
-168
-170
-185
-187
-199
-204
-202
-200
-189
-182
-186
-182
-194
-200
-210
-215
-205
-205
-208
-203
-190
-191
-194
-212
-228
-229
-227
-220
-208
-200
-197
-213
-216
-220
-239
-229
-239
-239
-222
-220
-211
-219
-223
-236
-241
-239
-230
-228
-225
-217
-224
-221
-224
-245
-250
-237
-228
-229
-226
-212
-199
-212
-223
-237
-238
-251
-239
-228
-221
-209
-219
-223
-225
-236
-235
-248
-232
-222
-219
-203
-213
-217
-218
-236
-237
-229
-235
-220
-220
-197
-209
-223
-220
-228
-235
-246
-218
-213
-209
-194
-216
-220
-225
-245
-250
-240
-241
-232
-221
-216
-218
-209
-213
-239
-234
-236
-236
-230
-215
-214
-215
-216
-230
-240
-243
-242
-237
-229
-221
-208
-209
-219
-227
-236
-249
-252
-244
-223
-214
-214
-213
-235
-227
-247
-244
-246
-240
-226
-216
-214
-212
-228
-229
-244
-239
-238
-243
-224
-221
-216
-228
-228
-241
-252
-241
-240
-232
-229
-219
-220
-227
-214
-222
-241
-239
-227
-246
-239
-217
-215
-220
-221
-233
-245
-250
-243
-235
-218
-211
-219
-220
-223
-233
-245
-244
-235
-235
-226
-207
-225
-235
-227
-230
-247
-247
-237
-220
-211
-214
-219
-220
-233
-234
-241
-234
-247
-243
-219
-215
-218
-213
-219
-236
-248
-236
-226
-224
-219
-194
-213
-220
-221
-230
-237
-218
-226
-218
-207
-199
-208
-209
-220
-236
-234
-240
-232
-231
-213
-223
-224
-217
-217
-232
-249
-242
-243
-235
-229
-223
-210
-231
-231
-240
-255
-239
-230
-235
-219
-204
-229
-228
-230
-235
-244
-248
-237
-225
-221
-226
-244
-239
-236
-256
-255
-245
-235
-214
-190
-179
-168
-155
-144
-144
-150
-137
-150
-162
-159
-138
-179
-191
-242
-284
-292
-285
-274
-265
-256
-241
-248
-243
-244
-256
-245
-238
-243
-225
-216
-216
-224
-223
-225
-239
-246
-226
-228
-218
-208
-209
-208
-212
-229
-235
-243
-236
-230
-220
-208
-207
-212
-209
-226
-231
-237
-227
-236
-207
-206
-203
-213
-218
-238
-232
-228
-226
-223
-203
-196
-201
-211
-216
-221
-231
-231
-227
-229
-205
-208
-206
-205
-214
-212
-240
-225
-210
-211
-206
-203
-202
-200
-208
-217
-224
-215
-219
-210
-199
-184
-190
-195
-194
-199
-211
-219
-205
-195
-189
-181
-187
-192
-190
-199
-203
-207
-208
-184
-167
-168
-174
-175
-190
-200
-197
-204
-183
-190
-178
-164
-183
-184
-180
-190
-206
-207
-188
-181
-191
-178
-183
-186
-201
-206
-220
-214
-205
-209
-190
-207
-217
-209
-200
-225
-230
-224
-220
-211
-208
-197
-209
-206
-208
-232
-238
-224
-225
-224
-211
-201
-208
-211
-233
-238
-235
-236
-227
-221
-214
-212
-212
-218
-229
-243
-239
-231
-225
-223
-209
-204
-225
-209
-219
-227
-229
-225
-235
-208
-212
-202
-209
-208
-217
-218
-231
-233
-224
-204
-199
-207
-199
-223
-241
-226
-226
-209
-211
-203
-200
-195
-201
-201
-213
-227
-232
-232
-214
-195
-195
-198
-203
-211
-225
-234
-219
-215
-214
-215
-192
-203
-202
-213
-245
-216
-211
-212
-213
-204
-191
-194
-202
-203
-224
-229
-234
-222
-207
-217
-199
-206
-199
-204
-225
-238
-232
-224
-213
-208
-198
-203
-205
-212
-219
-237
-230
-231
-213
-189
-196
-200
-198
-212
-224
-222
-222
-220
-212
-204
-198
-188
-208
-209
-226
-233
-218
-211
-217
-202
-200
-210
-204
-221
-222
-224
-228
-215
-216
-202
-201
-197
-192
-208
-231
-228
-218
-215
-214
-191
-193
-203
-202
-218
-223
-224
-218
-209
-212
-201
-190
-190
-215
-224
-221
-239
-206
-218
-209
-191
-188
-197
-213
-210
-225
-215
-225
-222
-201
-205
-190
-195
-197
-210
-230
-228
-219
-215
-214
-197
-189
-196
-188
-234
-223
-222
-218
-211
-192
-180
-207
-195
-201
-217
-208
-225
-214
-211
-203
-193
-186
-191
-188
-203
-234
-214
-205
-198
-192
-188
-186
-187
-188
-202
-204
-214
-208
-193
-182
-177
-170
-200
-201
-202
-199
-199
-207
-211
-195
-184
-186
-191
-212
-216
-224
-213
-201
-196
-197
-189
-188
-193
-195
-206
-221
-223
-226
-203
-185
-179
-179
-195
-197
-221
-218
-218
-211
-205
-189
-191
-205
-207
-217
-235
-215
-222
-201
-195
-169
-136
-116
-110
-114
-112
-100
-106
-119
-133
-126
-139
-157
-173
-214
-252
-259
-243
-245
-224
-202
-201
-194
-198
-201
-206
-208
-207
-201
-186
-194
-169
-179
-190
-211
-205
-201
-201
-194
-194
-182
-158
-173
-181
-194
-208
-204
-199
-216
-189
-180
-165
-180
-171
-188
-193
-194
-197
-180
-187
-165
-180
-168
-167
-181
-201
-195
-190
-190
-188
-151
-170
-174
-173
-192
-195
-199
-182
-185
-186
-179
-167
-166
-163
-181
-203
-196
-178
-173
-158
-164
-160
-161
-165
-179
-190
-186
-186
-161
-149
-150
-153
-169
-160
-163
-169
-179
-177
-168
-148
-139
-141
-146
-147
-166
-171
-159
-159
-160
-137
-125
-132
-145
-146
-151
-160
-166
-156
-152
-139
-136
-140
-145
-141
-153
-174
-166
-159
-151
-137
-139
-141
-144
-149
-176
-183
-175
-162
-167
-165
-148
-154
-159
-170
-199
-179
-174
-176
-174
-166
-170
-165
-157
-185
-192
-190
-188
-194
-175
-167
-153
-163
-169
-187
-193
-197
-202
-181
-171
-163
-162
-177
-180
-173
-190
-194
-192
-179
-188
-162
-165
-168
-170
-178
-195
-192
-176
-194
-161
-171
-166
-173
-166
-169
-185
-192
-184
-179
-182
-156
-155
-159
-177
-186
-178
-190
-182
-179
-166
-166
-156
-158
-163
-176
-185
-185
-180
-185
-158
-131
-160
-167
-160
-176
-168
-184
-181
-172
-164
-162
-153
-171
-168
-178
-184
-181
-177
-165
-165
-167
-158
-159
-169
-184
-183
-180
-178
-162
-152
-150
-162
-160
-163
-183
-188
-193
-172
-164
-155
-146
-156
-157
-169
-178
-185
-182
-172
-164
-166
-168
-154
-177
-167
-166
-187
-177
-168
-159
-155
-150
-147
-164
-181
-175
-185
-180
-166
-159
-145
-146
-156
-160
-163
-176
-178
-173
-184
-153
-156
-157
-158
-163
-162
-187
-185
-176
-169
-165
-160
-143
-148
-151
-165
-171
-174
-166
-164
-154
-154
-150
-153
-165
-167
-177
-180
-183
-168
-158
-142
-139
-146
-150
-162
-187
-172
-170
-175
-156
-145
-142
-143
-154
-173
-177
-173
-166
-161
-157
-146
-149
-151
-146
-166
-186
-167
-170
-169
-147
-142
-142
-149
-145
-172
-181
-170
-174
-170
-148
-139
-140
-151
-153
-166
-169
-185
-171
-158
-144
-141
-140
-142
-160
-164
-164
-170
-165
-159
-141
-140
-138
-145
-140
-159
-170
-166
-155
-157
-144
-137
-130
-138
-155
-157
-165
-154
-152
-153
-135
-131
-122
-142
-140
-165
-164
-152
-152
-140
-133
-123
-145
-147
-143
-160
-163
-156
-158
-160
-138
-132
-142
-149
-148
-157
-159
-162
-156
-158
-149
-137
-140
-177
-169
-165
-149
-143
-128
-121
-124
-115
-91
-78
-60
-40
-26
-27
-48
-81
-105
-123
-141
-161
-181
-193
-185
-166
-168
-167
-163
-184
-171
-171
-166
-134
-136
-134
-127
-148
-150
-164
-151
-160
-148
-140
-128
-134
-135
-131
-153
-159
-149
-158
-137
-128
-133
-125
-142
-139
-145
-161
-156
-139
-138
-129
-120
-121
-127
-137
-135
-148
-159
-156
-136
-143
-104
-113
-120
-121
-151
-158
-136
-141
-141
-126
-111
-128
-122
-123
-131
-137
-144
-144
-135
-123
-117
-107
-114
-125
-135
-137
-132
-135
-131
-107
-101
-96
-102
-123
-123
-140
-139
-113
-107
-103
-88
-92
-115
-110
-119
-129
-111
-112
-108
-91
-81
-87
-93
-97
-112
-122
-115
-105
-107
-97
-76
-76
-88
-103
-111
-105
-111
-115
-92
-80
-86
-91
-108
-109
-126
-118
-124
-112
-105
-108
-98
-101
-113
-120
-128
-127
-129
-122
-111
-114
-115
-129
-120
-131
-147
-155
-152
-140
-129
-118
-113
-117
-113
-124
-145
-152
-139
-138
-124
-121
-123
-115
-123
-135
-150
-152
-153
-133
-136
-114
-109
-123
-127
-140
-136
-150
-147
-141
-116
-113
-109
-115
-123
-142
-143
-148
-142
-124
-114
-105
-115
-114
-123
-135
-145
-132
-127
-139
-119
-103
-113
-120
-118
-132
-134
-145
-138
-117
-120
-97
-105
-119
-121
-140
-142
-139
-127
-130
-121
-103
-105
-117
-123
-133
-131
-132
-130
-129
-113
-126
-108
-110
-120
-125
-126
-130
-125
-111
-116
-97
-106
-119
-128
-128
-144
-142
-132
-125
-98
-98
-117
-117
-115
-147
-142
-131
-128
-126
-107
-89
-101
-116
-119
-139
-150
-126
-126
-132
-125
-102
-103
-114
-119
-111
-140
-137
-135
-125
-113
-107
-105
-114
-126
-129
-156
-124
-125
-115
-108
-108
-122
-124
-124
-130
-133
-129
-132
-115
-103
-104
-121
-116
-124
-122
-145
-131
-124
-110
-103
-105
-113
-112
-128
-133
-125
-131
-120
-116
-99
-109
-114
-116
-136
-138
-137
-124
-115
-125
-106
-107
-101
-111
-129
-148
-139
-127
-117
-107
-95
-108
-108
-119
-124
-138
-134
-133
-133
-113
-102
-114
-115
-115
-134
-153
-129
-131
-111
-100
-105
-97
-113
-114
-124
-139
-136
-121
-117
-109
-101
-106
-111
-110
-124
-136
-134
-122
-115
-102
-98
-107
-115
-113
-133
-134
-132
-118
-131
-109
-101
-101
-107
-109
-108
-116
-117
-118
-116
-101
-93
-87
-102
-104
-118
-123
-124
-108
-100
-96
-83
-102
-99
-115
-123
-120
-108
-108
-111
-91
-92
-99
-96
-112
-125
-130
-129
-122
-125
-104
-85
-102
-108
-118
-121
-127
-125
-111
-115
-112
-96
-107
-108
-116
-114
-132
-121
-108
-109
-103
-100
-94
-112
-131
-142
-132
-146
-139
-121
-101
-96
-98
-85
-62
-56
-46
-36
-29
-2
-3
-17
-41
-42
-73
-102
-128
-151
-154
-145
-137
-138
-131
-136
-146
-153
-145
-129
-120
-124
-99
-103
-113
-106
-120
-124
-129
-123
-117
-111
-89
-95
-104
-100
-112
-118
-112
-113
-111
-99
-93
-93
-103
-107
-109
-124
-118
-118
-115
-98
-82
-90
-90
-105
-109
-113
-115
-119
-100
-89
-86
-90
-100
-96
-104
-115
-111
-102
-106
-97
-83
-87
-90
-87
-103
-120
-100
-92
-93
-92
-75
-87
-85
-88
-102
-105
-110
-90
-86
-83
-69
-66
-81
-85
-86
-102
-92
-85
-72
-71
-65
-70
-67
-81
-96
-100
-89
-77
-67
-57
-44
-60
-61
-79
-92
-77
-74
-75
-61
-49
-50
-55
-62
-65
-67
-87
-76
-80
-74
-58
-67
-61
-64
-76
-86
-91
-88
-84
-71
-77
-68
-71
-84
-87
-103
-91
-90
-99
-83
-85
-75
-100
-96
-82
-108
-118
-109
-93
-95
-84
-89
-85
-86
-105
-124
-122
-126
-112
-95
-80
-88
-91
-95
-108
-127
-110
-114
-100
-98
-83
-89
-89
-103
-118
-127
-109
-113
-104
-81
-81
-82
-85
-86
-107
-105
-115
-102
-104
-95
-73
-79
-98
-95
-98
-106
-106
-96
-92
-86
-81
-72
-81
-79
-107
-107
-98
-108
-102
-89
-89
-78
-97
-95
-99
-105
-98
-107
-91
-81
-85
-88
-85
-93
-118
-118
-115
-110
-93
-78
-86
-92
-79
-89
-98
-106
-101
-108
-90
-81
-83
-79
-106
-94
-109
-109
-105
-98
-90
-82
-79
-79
-78
-112
-107
-106
-107
-110
-96
-86
-86
-73
-95
-96
-106
-107
-106
-107
-89
-79
-89
-90
-87
-108
-105
-112
-110
-97
-89
-80
-80
-87
-83
-83
-105
-105
-101
-102
-85
-78
-80
-80
-86
-94
-107
-120
-104
-88
-98
-82
-77
-85
-78
-95
-121
-125
-97
-98
-88
-81
-78
-82
-86
-101
-110
-100
-104
-103
-84
-80
-83
-80
-93
-105
-97
-94
-93
-99
-83
-79
-71
-80
-78
-93
-97
-108
-104
-115
-80
-60
-67
-67
-75
-84
-96
-85
-93
-84
-71
-64
-68
-82
-76
-99
-101
-104
-89
-91
-85
-82
-83
-88
-90
-97
-102
-113
-104
-97
-82
-85
-90
-77
-88
-104
-113
-108
-93
-94
-77
-84
-80
-80
-86
-99
-103
-108
-94
-94
-91
-88
-86
-88
-95
-116
-107
-90
-82
-62
-29
-6
-1
-2
-9
-11
-21
-39
-55
-45
-41
-57
-92
-125
-139
-140
-149
-145
-136
-125
-113
-107
-111
-112
-107
-109
-121
-100
-94
-84
-91
-86
-81
-69
-87
-106
-100
-92
-83
-80
-68
-67
-79
-65
-87
-109
-95
-100
-88
-76
-68
-64
-69
-72
-75
-102
-98
-96
-88
-78
-77
-62
-74
-77
-83
-83
-94
-83
-86
-75
-64
-61
-61
-53
-78
-95
-87
-79
-83
-68
-58
-60
-63
-69
-73
-81
-75
-85
-73
-56
-60
-55
-58
-58
-78
-84
-71
-70
-59
-60
-51
-41
-44
-56
-72
-60
-66
-74
-52
-37
-32
-34
-43
-44
-54
-56
-63
-55
-51
-39
-25
-26
-32
-31
-52
-57
-58
-57
-47
-27
-20
-27
-43
-56
-66
-68
-58
-67
-43
-41
-27
-44
-39
-50
-56
-72
-80
-74
-63
-57
-54
-67
-60
-75
-80
-90
-82
-73
-74
-54
-59
-66
-74
-83
-91
-89
-85
-93
-82
-65
-60
-64
-74
-75
-96
-104
-89
-79
-75
-59
-68
-74
-76
-88
-86
-80
-84
-90
-84
-73
-69
-67
-64
-80
-85
-96
-89
-83
-69
-62
-59
-65
-71
-77
-100
-88
-75
-76
-61
-60
-62
-72
-65
-76
-90
-90
-83
-77
-73
-54
-48
-56
-74
-82
-97
-87
-82
-84
-73
-68
-61
-55
-60
-84
-82
-94
-88
-73
-69
-52
-54
-64
-74
-90
-92
-90
-87
-80
-62
-54
-53
-65
-70
-82
-86
-80
-83
-79
-55
-53
-62
-68
-75
-83
-90
-96
-83
-71
-73
-61
-59
-67
-78
-86
-97
-84
-82
-78
-56
-50
-57
-85
-75
-81
-79
-80
-74
-73
-66
-56
-60
-65
-73
-87
-90
-97
-95
-66
-67
-61
-60
-61
-60
-91
-83
-83
-87
-79
-61
-73
-64
-54
-67
-87
-93
-65
-68
-68
-54
-40
-46
-63
-65
-75
-73
-75
-71
-69
-50
-45
-51
-49
-59
-87
-82
-69
-72
-61
-57
-56
-60
-56
-60
-78
-87
-92
-79
-71
-51
-59
-68
-75
-73
-82
-86
-78
-77
-59
-61
-60
-70
-65
-71
-81
-97
-87
-80
-78
-63
-51
-65
-73
-76
-90
-87
-90
-87
-76
-59
-65
-75
-64
-61
-50
-40
-36
2
36
44
41
22
8
-15
-43
-42
-52
-73
-98
-96
-93
-97
-107
-127
-132
-119
-106
-97
-68
-61
-68
-76
-69
-86
-85
-84
-82
-67
-60
-65
-63
-64
-71
-71
-81
-80
-80
-81
-50
-37
-57
-44
-62
-80
-76
-73
-72
-70
-54
-42
-51
-49
-51
-76
-79
-81
-77
-53
-50
-52
-54
-56
-67
-66
-75
-69
-71
-59
-42
-28
-56
-48
-66
-68
-76
-75
-62
-60
-34
-38
-28
-54
-52
-73
-67
-60
-59
-51
-36
-35
-29
-46
-55
-60
-51
-65
-51
-43
-43
-33
-19
-31
-41
-61
-50
-55
-43
-30
-25
-16
-24
-29
-34
-37
-37
-47
-41
-21
-20
-4
-22
-30
-32
-37
-52
-46
-36
-36
-30
-11
-15
-23
-44
-59
-49
-48
-57
-37
-36
-40
-35
-47
-58
-58
-62
-63
-62
-56
-46
-53
-49
-48
-71
-82
-80
-67
-69
-68
-59
-60
-59
-55
-84
-85
-83
-69
-73
-62
-62
-64
-63
-74
-81
-93
-86
-79
-66
-60
-58
-53
-63
-70
-85
-93
-81
-87
-81
-52
-47
-57
-58
-58
-88
-91
-80
-77
-70
-67
-56
-47
-56
-72
-75
-82
-80
-73
-65
-60
-57
-52
-54
-66
-90
-79
-80
-78
-68
-60
-48
-53
-65
-69
-83
-80
-82
-73
-69
-44
-58
-60
-71
-71
-89
-77
-76
-70
-71
-61
-55
-59
-59
-81
-80
-83
-91
-85
-66
-59
-55
-66
-65
-80
-87
-92
-69
-71
-74
-45
-57
-71
-71
-84
-87
-75
-81
-82
-74
-66
-55
-61
-78
-82
-84
-87
-76
-76
-64
-61
-66
-66
-77
-80
-91
-89
-87
-92
-77
-56
-57
-71
-60
-77
-93
-88
-79
-67
-78
-67
-65
-59
-65
-88
-91
-82
-74
-66
-60
-56
-59
-57
-57
-74
-79
-81
-76
-67
-57
-55
-61
-51
-70
-82
-86
-81
-73
-71
-70
-62
-60
-70
-82
-86
-90
-89
-84
-75
-78
-69
-61
-77
-67
-96
-115
-88
-84
-73
-69
-67
-71
-77
-84
-94
-103
-89
-88
-71
-71
-70
-66
-73
-82
-97
-118
-105
-90
-90
-87
-71
-75
-79
-75
-76
-55
-26
-10
12
36
42
29
14
-11
-32
-47
-54
-81
-109
-107
-110
-104
-112
-119
-118
-122
-117
-116
-95
-81
-73
-83
-69
-88
-103
-108
-91
-90
-73
-58
-66
-73
-87
-89
-104
-104
-86
-75
-75
-82
-54
-59
-78
-79
-93
-100
-101
-79
-70
-65
-63
-68
-74
-89
-89
-101
-87
-79
-73
-61
-80
-85
-69
-85
-92
-90
-86
-74
-67
-66
-69
-71
-74
-78
-82
-85
-75
-74
-66
-58
-63
-61
-65
-78
-87
-82
-86
-79
-69
-53
-42
-47
-59
-83
-87
-86
-74
-71
-48
-37
-49
-56
-61
-65
-73
-67
-64
-49
-46
-41
-43
-46
-37
-54
-70
-59
-52
-52
-40
-32
-45
-35
-57
-63
-67
-56
-57
-50
-39
-39
-52
-54
-56
-79
-70
-66
-67
-74
-52
-53
-53
-64
-71
-80
-100
-94
-86
-87
-61
-65
-71
-72
-83
-103
-107
-98
-90
-77
-77
-90
-76
-73
-88
-117
-101
-101
-105
-88
-72
-75
-88
-83
-95
-107
-113
-111
-95
-85
-71
-78
-92
-97
-109
-117
-98
-83
-86
-96
-84
-73
-70
-84
-94
-104
-102
-111
-98
-92
-73
-78
-69
-84
-92
-110
-110
-87
-95
-86
-68
-63
-82
-86
-94
-111
-118
-110
-82
-64
-71
-73
-83
-81
-92
-101
-92
-101
-95
-92
-65
-75
-77
-86
-107
-110
-102
-91
-93
-75
-69
-82
-82
-86
-101
-101
-103
-92
-94
-81
-65
-69
-87
-79
-101
-106
-103
-101
-89
-86
-69
-80
-86
-85
-102
-111
-107
-92
-103
-77
-69
-74
-74
-85
-100
-117
-108
-102
-96
-78
-80
-81
-79
-97
-102
-113
-107
-95
-104
-82
-69
-81
-86
-103
-102
-102
-105
-96
-89
-86
-100
-83
-86
-96
-101
-103
-97
-92
-90
-81
-74
-87
-91
-92
-107
-108
-101
-104
-97
-79
-75
-92
-99
-91
-103
-110
-103
-93
-88
-76
-72
-82
-86
-89
-101
-105
-120
-93
-78
-60
-63
-80
-75
-91
-104
-92
-91
-90
-83
-82
-65
-94
-83
-92
-102
-108
-92
-95
-76
-77
-71
-82
-84
-93
-108
-110
-109
-109
-95
-77
-85
-84
-92
-99
-109
-116
-95
-99
-86
-89
-86
-88
-86
-111
-113
-108
-104
-94
-87
-79
-82
-93
-109
-126
-125
-115
-114
-105
-83
-69
-61
-45
-33
-34
-26
-10
8
9
5
-3
-27
-39
-57
-80
-113
-140
-137
-125
-121
-100
-97
-112
-118
-134
-116
-110
-111
-96
-90
-80
-91
-89
-86
-97
-109
-101
-99
-96
-82
-85
-84
-82
-96
-105
-102
-102
-91
-89
-77
-83
-83
-82
-84
-96
-100
-111
-116
-88
-66
-69
-69
-78
-82
-92
-97
-91
-95
-91
-71
-68
-73
-87
-97
-91
-91
-100
-97
-77
-64
-61
-72
-81
-93
-92
-93
-94
-81
-78
-60
-66
-67
-69
-85
-90
-80
-84
-87
-67
-63
-48
-59
-72
-65
-81
-79
-75
-68
-52
-45
-57
-52
-58
-75
-76
-76
-65
-64
-50
-38
-32
-40
-58
-64
-76
-70
-60
-55
-38
-41
-43
-53
-55
-63
-73
-69
-65
-65
-50
-31
-47
-44
-69
-71
-73
-80
-70
-72
-74
-49
-50
-72
-75
-88
-92
-88
-86
-91
-74
-63
-82
-85
-91
-88
-98
-103
-99
-88
-75
-72
-81
-91
-75
-100
-106
-92
-105
-98
-88
-82
-71
-78
-92
-96
-107
-101
-95
-88
-85
-72
-82
-79
-91
-94
-103
-101
-96
-95
-85
-72
-79
-75
-85
-104
-104
-113
-107
-77
-77
-66
-75
-85
-96
-90
-85
-88
-92
-77
-70
-67
-73
-69
-92
-94
-95
-103
-102
-87
-77
-65
-72
-78
-81
-91
-99
-92
-85
-85
-73
-79
-72
-84
-92
-99
-91
-95
-92
-85
-89
-66
-72
-80
-88
-98
-91
-98
-97
-82
-70
-76
-84
-91
-88
-89
-93
-94
-94
-85
-69
-71
-88
-81
-94
-109
-115
-100
-89
-72
-62
-84
-82
-90
-89
-98
-102
-95
-83
-86
-77
-84
-86
-83
-102
-109
-97
-91
-86
-73
-67
-68
-82
-80
-94
-104
-112
-102
-80
-78
-69
-76
-80
-70
-89
-101
-95
-101
-88
-75
-68
-72
-97
-79
-93
-93
-107
-103
-90
-72
-63
-78
-82
-84
-94
-96
-94
-100
-78
-77
-74
-78
-79
-88
-98
-89
-94
-95
-84
-74
-66
-68
-80
-83
-102
-112
-96
-85
-78
-69
-64
-64
-81
-91
-96
-101
-103
-90
-82
-71
-72
-75
-69
-84
-101
-90
-92
-81
-82
-65
-53
-54
-57
-76
-97
-95
-91
-73
-64
-59
-58
-68
-69
-80
-95
-85
-79
-78
-76
-65
-67
-70
-78
-81
-99
-103
-90
-80
-75
-69
-73
-81
-75
-85
-94
-101
-86
-81
-71
-69
-69
-79
-92
-93
-88
-97
-98
-80
-65
-63
-65
-72
-93
-98
-103
-112
-103
-91
-68
-50
-38
-24
-23
-22
-8
16
19
23
31
3
-16
-30
-35
-72
-111
-129
-124
-121
-105
-98
-90
-89
-88
-86
-105
-94
-101
-70
-78
-63
-48
-63
-80
-86
-92
-84
-81
-80
-64
-51
-64
-71
-69
-77
-95
-85
-81
-70
-59
-60
-65
-71
-60
-82
-85
-80
-83
-66
-47
-57
-59
-63
-73
-78
-81
-84
-74
-65
-60
-54
-52
-69
-71
-80
-79
-77
-72
-72
-51
-48
-53
-51
-62
-75
-80
-79
-59
-58
-56
-44
-46
-51
-57
-69
-72
-75
-72
-49
-35
-37
-38
-51
-53
-60
-65
-57
-56
-51
-25
-19
-44
-34
-43
-62
-58
-56
-41
-36
-24
-14
-24
-41
-40
-45
-47
-43
-43
-31
-17
-16
-29
-30
-48
-59
-51
-49
-42
-24
-21
-22
-25
-47
-49
-60
-66
-48
-40
-37
-32
-45
-57
-64
-67
-62
-65
-80
-64
-58
-45
-53
-64
-59
-70
-78
-78
-81
-70
-60
-51
-63
-60
-70
-74
-73
-81
-79
-73
-61
-50
-59
-69
-64
-73
-90
-91
-77
-67
-58
-53
-66
-57
-74
-89
-76
-77
-71
-71
-52
-44
-58
-55
-64
-77
-84
-88
-87
-78
-54
-45
-62
-57
-57
-70
-74
-79
-65
-52
-48
-51
-69
-58
-61
-70
-74
-83
-74
-54
-54
-34
-47
-52
-60
-67
-68
-94
-67
-60
-46
-47
-61
-61
-59
-76
-88
-67
-57
-58
-45
-40
-44
-56
-67
-80
-78
-86
-61
-61
-52
-44
-49
-51
-61
-80
-87
-80
-66
-51
-47
-44
-60
-45
-64
-77
-77
-72
-64
-63
-53
-42
-49
-48
-74
-85
-75
-66
-65
-49
-49
-65
-56
-56
-64
-68
-77
-77
-67
-49
-51
-51
-49
-61
-71
-64
-92
-81
-68
-43
-44
-52
-58
-56
-69
-75
-82
-69
-73
-47
-49
-56
-46
-42
-84
-89
-74
-61
-64
-61
-44
-55
-58
-57
-75
-82
-71
-56
-67
-57
-40
-48
-47
-57
-77
-82
-71
-69
-70
-54
-46
-40
-49
-58
-64
-73
-61
-75
-52
-53
-48
-49
-57
-60
-61
-70
-70
-73
-60
-53
-42
-55
-43
-54
-78
-77
-76
-63
-56
-47
-42
-53
-53
-62
-69
-68
-66
-66
-63
-46
-40
-49
-52
-50
-62
-80
-72
-63
-52
-40
-37
-40
-56
-57
-67
-68
-72
-67
-61
-43
-32
-38
-53
-41
-58
-61
-60
-56
-45
-32
-29
-35
-39
-54
-62
-67
-52
-50
-41
-27
-36
-48
-42
-54
-67
-67
-52
-58
-50
-47
-33
-40
-49
-70
-78
-75
-58
-59
-48
-47
-41
-43
-42
-57
-79
-66
-56
-59
-40
-37
-45
-47
-48
-60
-77
-72
-69
-74
-60
-53
-47
-47
-48
-51
-60
-31
-4
16
44
56
72
69
45
18
-4
-12
-27
-29
-50
-66
-81
-92
-85
-94
-96
-87
-69
-60
-52
-51
-46
-43
-48
-60
-54
-66
-65
-52
-48
-30
-31
-46
-48
-58
-56
-58
-51
-45
-47
-23
-29
-34
-42
-59
-58
-63
-54
-51
-40
-33
-25
-36
-51
-51
-65
-52
-46
-29
-20
-25
-35
-36
-51
-49
-53
-61
-44
-34
-20
-21
-29
-24
-40
-48
-54
-53
-47
-34
-15
-15
-23
-29
-35
-51
-45
-47
-49
-27
-19
0
-11
-20
-35
-42
-46
-32
-25
-27
-9
-3
-10
-21
-25
-44
-27
-17
-7
-8
7
4
3
-11
-18
-26
-18
-24
-9
2
6
3
7
3
-11
-23
-27
-14
-28
3
12
-6
1
-10
-20
-30
-30
-13
-18
-6
-1
0
-13
-22
-31
-38
-50
-37
-23
-27
-21
-16
-24
-24
-51
-47
-47
-47
-42
-27
-19
-21
-41
-41
-50
-66
-51
-49
-45
-24
-17
-32
-39
-62
-41
-53
-63
-46
-37
-36
-28
-29
-33
-46
-66
-63
-50
-58
-45
-33
-21
-19
-29
-38
-42
-60
-51
-42
-41
-26
-23
-23
-31
-42
-49
-63
-58
-50
-42
-11
-17
-26
-26
-46
-55
-50
-44
-43
-30
-36
-16
-22
-34
-49
-50
-52
-31
-48
-27
-20
-18
-27
-30
-30
-52
-64
-38
-35
-43
-31
-31
-25
-34
-41
-45
-56
-46
-44
-28
-13
-14
-42
-31
-42
-47
-49
-59
-41
-29
-26
-25
-24
-26
-45
-57
-51
-43
-43
-31
-22
-26
-29
-26
-44
-56
-55
-45
-40
-25
-16
-19
-27
-55
-60
-57
-48
-45
-40
-31
-22
-26
-26
-31
-44
-56
-50
-52
-37
-26
-23
-25
-34
-31
-46
-54
-49
-46
-37
-19
-26
-32
-38
-34
-52
-55
-43
-50
-50
-37
-3
-35
-35
-41
-51
-60
-45
-48
-36
-30
-13
-22
-25
-25
-39
-57
-58
-38
-31
-25
-25
-26
-35
-42
-56
-51
-49
-48
-33
-21
-5
-29
-32
-35
-55
-58
-46
-39
-35
-22
-28
-33
-36
-41
-52
-53
-50
-43
-38
-20
-3
-29
-16
-40
-41
-48
-50
-46
-29
-33
-17
-24
-30
-41
-56
-59
-54
-36
-27
-5
-11
-33
-31
-41
-55
-56
-48
-36
-31
-22
-16
-15
-22
-47
-43
-41
-35
-29
-15
-12
-3
-10
-14
-28
-41
-31
-33
-49
-33
0
-5
-10
-12
-35
-47
-43
-36
-38
-36
-13
-20
-26
-22
-34
-51
-42
-37
-40
-22
-22
-19
-18
-30
-42
-51
-44
-44
-33
-36
-20
-17
-29
-33
-46
-48
-34
-43
-35
-24
-19
-34
-46
-32
-46
-62
-53
-27
3
13
37
49
61
61
61
51
34
19
19
33
19
1
-37
-77
-92
-83
-81
-79
-78
-55
-48
-47
-41
-54
-63
-56
-61
-45
-32
-17
-13
-20
-23
-28
-41
-47
-43
-40
-27
-24
-23
-22
-28
-17
-34
-42
-40
-42
-27
-16
-19
-14
-24
-36
-43
-36
-40
-27
-27
-12
-14
-27
-16
-32
-38
-48
-25
-29
-13
-3
-9
-15
-11
-57
-36
-31
-30
-23
-16
-8
-3
-5
-12
-20
-45
-33
-29
-27
-22
4
-1
-5
-16
-17
-31
-27
-22
-9
-14
-3
6
6
-8
-13
-22
-13
-11
-4
8
16
25
3
3
-1
-12
-10
-3
-3
14
18
21
9
7
-1
-11
-5
-6
0
13
20
23
13
8
-19
-18
-23
-4
2
10
19
15
2
1
-20
-24
-14
-17
-9
-4
0
-10
-5
-22
-28
-38
-37
-31
-17
-9
-14
-24
-20
-18
-41
-43
-42
-33
-51
-48
-8
-15
-23
-34
-50
-56
-38
-36
-36
-26
-10
-16
-41
-45
-43
-49
-43
-44
-28
-14
-18
-20
-31
-26
-33
-51
-56
-37
-25
-20
-6
-21
-25
-30
-46
-49
-46
-37
-27
-17
-19
-11
-22
-33
-49
-45
-42
-46
-37
-3
-4
-25
-29
-33
-38
-45
-32
-38
-22
-16
-20
-30
-23
-23
-41
-39
-48
-41
-28
-20
-20
-17
-20
-31
-49
-50
-36
-39
-31
-16
-19
-24
-22
-32
-48
-45
-38
-46
-21
-3
-12
-26
-19
-31
-53
-65
-47
-33
-36
-16
-13
-22
-28
-47
-51
-46
-44
-51
-26
-25
-22
-19
-30
-43
-55
-47
-38
-36
-23
-21
-27
-39
-29
-31
-46
-46
-44
-36
-26
-20
-18
-30
-38
-49
-57
-50
-37
-36
-24
-27
-14
-29
-36
-33
-51
-56
-39
-44
-30
-20
-19
-32
-39
-48
-53
-55
-50
-35
-9
-16
-21
-32
-33
-40
-53
-48
-43
-37
-29
-11
-26
-38
-41
-43
-45
-53
-56
-45
-20
-13
-17
-43
-37
-43
-53
-47
-50
-36
-19
-12
-21
-26
-39
-40
-55
-56
-34
-29
-23
-25
-23
-24
-31
-52
-60
-44
-46
-31
-18
-25
-27
-25
-39
-56
-51
-45
-37
-29
-20
-23
-21
-28
-32
-39
-52
-56
-35
-16
-20
-19
-16
-22
-31
-38
-35
-34
-33
-22
-10
-15
-23
-32
-42
-53
-36
-26
-35
-13
-18
-23
-48
-33
-36
-46
-50
-48
-48
-27
-15
-18
-28
-39
-35
-46
-48
-41
-43
-27
-15
-26
-40
-21
-60
-58
-46
-46
-39
-30
-23
-32
-36
-33
-56
-71
-61
-61
-53
-42
-29
-11
0
5
11
15
25
43
72
85
85
50
21
16
-10
-40
-53
-68
-80
-69
-63
-68
-53
-49
-70
-68
-70
-51
-37
-35
-30
-30
-40
-42
-68
-52
-41
-36
-30
-20
-18
-26
-21
-32
-46
-38
-40
-41
-28
-19
-24
-29
-29
-25
-43
-36
-43
-37
-18
-14
-7
-9
-29
-37
-45
-47
-31
-32
-26
-1
-17
-9
-14
-32
-49
-43
-55
-34
-29
-7
-8
-14
-10
-28
-41
-37
-23
-20
-13
-5
-9
-16
-4
-28
-36
-37
-33
-35
3
6
3
-7
-5
-13
-27
-25
-32
-33
-3
18
10
3
6
-10
-29
-10
-10
0
7
14
25
12
1
-7
-12
-9
-6
7
26
17
11
7
-1
-5
-20
-19
1
0
13
19
8
13
0
-10
-16
-18
-19
-14
-1
2
7
1
-20
-25
-48
-37
-28
-22
-13
-4
-17
-25
-34
-37
-41
-42
-33
-43
-26
-17
-27
-25
-21
-44
-55
-46
-58
-25
-19
-18
-30
-29
-49
-55
-42
-49
-40
-31
-19
-14
-18
-33
-29
-47
-49
-51
-40
-41
-23
-17
-30
-30
-42
-48
-33
-34
-41
-42
-18
-23
-24
-15
-33
-49
-47
-50
-36
-16
-15
-16
-18
-20
-40
-45
-46
-39
-26
-23
-14
-12
-19
-30
-26
-64
-47
-55
-26
-25
-19
-9
-18
-24
-34
-40
-40
-44
-37
-22
-18
-15
-19
-16
-41
-49
-51
-29
-29
-19
-21
-17
-20
-19
-36
-55
-51
-40
-33
-23
-12
-20
-22
-26
-39
-42
-55
-44
-34
-25
-12
-19
-21
-24
-36
-47
-56
-35
-32
-19
-21
-28
-26
-26
-36
-47
-44
-39
-38
-29
-10
-16
-30
-27
-44
-51
-50
-41
-36
-21
-13
-9
-22
-18
-47
-49
-52
-33
-23
-17
-12
-21
-20
-37
-50
-57
-49
-44
-47
-10
-27
-23
-35
-25
-39
-44
-41
-36
-25
-18
-22
-34
-23
-28
-43
-41
-59
-46
-21
-21
-11
-15
-17
-34
-47
-52
-47
-42
-37
-20
-15
-31
-28
-32
-35
-56
-52
-37
-40
-25
-9
-22
-22
-35
-50
-49
-33
-48
-31
-24
-11
-24
-30
-46
-48
-46
-32
-31
-21
-9
-21
-11
-33
-39
-39
-36
-28
-32
-22
-9
-17
-13
-19
-34
-52
-44
-37
-29
-17
3
4
-14
-20
-33
-39
-39
-37
-31
-19
-15
-27
-22
-27
-42
-45
-45
-36
-50
-25
-12
-22
-30
-30
-38
-47
-51
-44
-41
-29
-17
-21
-31
-32
-42
-43
-50
-48
-49
-23
-14
-21
-42
-51
-56
-65
-43
-43
-28
-21
24
33
35
60
56
54
52
60
47
33
45
18
-13
-44
-75
-99
-93
-82
-81
-48
-34
-39
-38
-38
-51
-53
-48
-46
-42
-21
-6
-30
-18
-30
-48
-43
-46
-42
-22
-29
-12
-14
-22
-33
-45
-47
-44
-33
-23
-18
-10
-18
-24
-30
-62
-38
-28
-27
-22
-8
-11
-16
-19
-40
-42
-39
-36
-41
-18
-7
-5
-11
-3
-27
-37
-33
-38
-20
-19
-18
-9
-9
-23
-26
-35
-31
-32
-22
-16
-9
9
-9
-8
-20
-35
-29
-26
-20
-10
2
4
-4
-2
-3
-18
-18
-15
-3
7
13
26
2
4
-16
-22
-5
0
3
13
16
13
16
20
3
-12
-5
5
4
8
6
20
25
15
-6
-16
-5
-5
3
17
28
17
7
-3
-9
-24
-24
-17
-8
-1
11
-9
-10
-4
-17
-30
-31
-32
-30
-4
-13
-19
-27
-23
-32
-40
-36
-40
-33
-33
5
-23
-27
-39
-35
-45
-42
-41
-41
-17
-15
-14
-19
-18
-34
-52
-44
-26
-23
-27
-21
-30
-20
-31
-39
-46
-43
-39
-28
-13
-7
-19
-23
-29
-42
-49
-33
-32
-15
-5
-11
-24
-27
-33
-40
-44
-31
-26
-19
-8
-4
-12
-22
-32
-40
-43
-41
-35
-23
-14
-9
-13
-11
-37
-54
-30
-28
-29
-18
-1
-7
-14
-25
-37
-50
-37
-33
-25
-20
-12
-5
-15
-22
-45
-46
-40
-41
-29
-21
-9
-5
-22
-24
-37
-60
-31
-23
-36
-20
-8
-9
-14
-24
-38
-42
-38
-38
-42
-25
-4
-18
-17
-25
-31
-44
-46
-25
-33
-17
-10
-20
-10
-32
-36
-47
-56
-47
-27
-18
-9
-7
-20
-20
-34
-46
-40
-27
-30
-19
-8
-12
-23
-34
-37
-45
-32
-38
-32
-23
-11
-11
-13
-25
-43
-45
-41
-47
-25
-17
-20
2
-25
-35
-39
-45
-48
-22
-26
-13
-15
-20
-25
-22
-37
-53
-43
-35
-30
-10
-6
-12
-31
-26
-38
-41
-48
-42
-31
-12
-16
-18
-24
-30
-46
-49
-37
-27
-21
-8
-3
-22
-10
-27
-34
-44
-36
-33
-23
-7
4
-27
-7
-23
-21
-39
-30
-21
-11
-3
-1
-6
-13
-21
-37
-36
-28
-26
-22
-8
-23
-15
-16
-30
-44
-39
-31
-32
-27
-11
-9
-25
-22
-38
-54
-33
-41
-29
-18
-20
-17
-28
-30
-43
-40
-44
-24
-37
-21
-8
-11
-22
-27
-44
-61
-50
-48
-33
-18
1
12
28
46
34
40
63
78
78
76
59
43
29
-7
-25
-61
-80
-80
-80
-61
-43
-39
-47
-48
-52
-61
-53
-52
-24
-18
-14
-13
-12
-41
-33
-29
-39
-39
-21
-4
-5
-9
-13
-24
-40
-41
-40
-35
-24
-3
-6
-7
-12
-22
-29
-37
-29
-17
-21
-7
0
-3
-14
-13
-27
-35
-16
-28
-19
-13
-7
6
-10
-24
-37
-27
-17
-16
-12
-5
7
6
-13
-24
-30
-24
-15
-18
-8
-5
-16
4
0
-10
-31
-23
-12
-4
6
11
12
14
0
-10
-14
-9
-12
-7
12
19
21
16
19
3
-7
-13
-1
4
28
27
29
21
19
23
-16
-11
12
10
8
31
25
18
16
10
-6
-7
3
8
23
24
11
15
15
-1
-14
-8
-12
-6
7
18
23
-5
-15
-16
-17
-21
-18
-17
-7
0
-9
-1
-14
-28
-58
-33
-35
-34
-8
-14
-15
-7
-16
-32
-42
-49
-40
-32
-16
-14
-20
-21
-29
-32
-43
-39
-31
-28
-6
-13
-17
-33
-33
-39
-41
-37
-30
-16
-12
-9
-22
-15
-16
-33
-48
-37
-34
-34
-4
-2
-4
-16
-31
-54
-42
-43
-28
-26
-8
1
-18
-20
-26
-36
-43
-33
-37
-30
-19
-13
-9
-12
-19
-36
-40
-37
-30
-17
-5
-7
-19
-15
-24
-43
-43
-43
-47
-19
-10
-8
-19
-18
-35
-48
-44
-26
-32
-19
-15
-17
-25
-22
-33
-30
-46
-38
-30
-21
-6
-10
-17
-24
-31
-38
-52
-38
-27
-19
-23
-15
-13
-25
-45
-45
-35
-30
-42
-20
-23
-16
-20
-29
-40
-51
-46
-34
-38
-27
-16
-12
-22
-21
-51
-48
-39
-34
-33
-28
-12
-19
-21
-34
-45
-58
-47
-39
-38
-20
-16
-12
-22
-31
-52
-48
-36
-35
-32
-19
-17
-22
-18
-42
-41
-49
-40
-39
-30
-18
-20
-28
-29
-24
-41
-42
-50
-47
-35
-21
-9
-13
-29
-41
-45
-52
-45
-36
-18
0
11
-23
-32
-21
-31
-45
-40
-34
-23
-16
-11
-13
-8
-36
-50
-60
-53
-44
-37
-21
-20
-22
-33
-42
-57
-61
-47
-47
-31
-30
-28
-36
-32
-58
-65
-48
-46
-58
-39
-15
-24
-32
-26
-38
-60
-62
-50
-46
-40
-32
-28
-33
-47
-68
-70
-68
-50
-29
-8
19
36
45
48
56
50
26
32
-2
24
18
12
-27
-63
-107
-113
-106
-97
-95
-72
-69
-71
-70
-65
-61
-69
-67
-64
-51
-33
-26
-29
-36
-38
-54
-57
-66
-45
-50
-36
-22
-31
-41
-45
-56
-60
-58
-51
-39
-34
-15
-21
-34
-32
-52
-54
-65
-43
-47
-32
-28
-30
-37
-35
-50
-59
-54
-34
-31
-33
-16
-13
-29
-43
-48
-51
-52
-40
-29
-29
-27
-18
-26
-35
-50
-43
-47
-37
-33
-25
-14
-17
-22
-33
-44
-44
-46
-28
-24
-15
-4
-10
-16
-31
-34
-38
-37
-26
-16
-11
-3
2
-4
-19
-33
-29
-33
-20
-12
10
6
3
-7
-21
-20
-27
-29
-19
1
0
-13
-11
-12
-24
-26
-23
-27
-15
-6
2
-4
-12
-20
-33
-42
-52
-43
-27
-30
-20
-25
-27
-39
-50
-52
-52
-56
-52
-41
-40
-34
-46
-49
-68
-58
-61
-61
-57
-52
-32
-42
-48
-55
-61
-70
-77
-67
-67
-57
-30
-48
-58
-47
-70
-70
-81
-72
-57
-52
-49
-44
-53
-57
-66
-74
-77
-62
-51
-60
-39
-53
-46
-57
-64
-66
-70
-85
-61
-38
-31
-43
-47
-53
-59
-72
-73
-63
-59
-46
-49
-51
-55
-59
-70
-72
-78
-77
-50
-39
-45
-51
-45
-63
-76
-76
-63
-78
-68
-51
-35
-44
-64
-59
-76
-74
-77
-69
-62
-45
-44
-49
-63
-55
-80
-92
-74
-65
-66
-53
-46
-57
-52
-63
-81
-79
-81
-67
-51
-58
-40
-54
-62
-77
-87
-84
-70
-81
-66
-52
-51
-56
-57
-66
-82
-83
-77
-70
-68
-56
-52
-53
-60
-72
-86
-90
-81
-77
-60
-47
-42
-52
-60
-76
-89
-82
-66
-66
-44
-39
-50
-53
-60
-71
-71
-72
-68
-62
-41
-43
-40
-43
-59
-67
-79
-80
-77
-66
-54
-40
-57
-54
-60
-82
-86
-86
-67
-67
-55
-53
-76
-63
-66
-81
-88
-88
-81
-77
-70
-48
-56
-57
-76
-89
-93
-86
-86
-78
-71
-57
-51
-63
-77
-90
-100
-94
-77
-77
-75
-63
-71
-73
-75
-61
-64
-44
-21
9
26
42
32
33
7
-33
-39
-27
-44
-76
-95
-96
-109
-109
-112
-141
-136
-139
-113
-96
-77
-73
-77
-79
-86
-105
-102
-82
-83
-66
-66
-59
-67
-65
-81
-109
-79
-76
-76
-60
-52
-59
-61
-70
-78
-84
-87
-75
-72
-70
-59
-54
-62
-63
-77
-91
-95
-73
-76
-63
-51
-38
-55
-70
-82
-89
-93
-89
-74
-55
-50
-48
-71
-61
-55
-78
-83
-65
-65
-60
-49
-45
-60
-59
-74
-74
-74
-67
-62
-61
-47
-48
-46
-55
-65
-65
-63
-57
-49
-48
-39
-31
-38
-57
-69
-74
-53
-48
-45
-36
-21
-36
-33
-32
-45
-53
-50
-51
-48
-23
-21
-25
-34
-40
-48
-59
-66
-48
-36
-20
-21
-33
-38
-44
-56
-58
-61
-51
-55
-38
-28
-48
-54
-49
-71
-75
-77
-74
-55
-57
-53
-56
-63
-93
-90
-97
-87
-95
-72
-66
-62
-64
-80
-85
-86
-87
-91
-91
-84
-70
-79
-70
-67
-85
-99
-98
-97
-94
-75
-84
-76
-77
-81
-77
-91
-98
-91
-86
-89
-64
-79
-66
-77
-85
-91
-91
-85
-84
-77
-61
-60
-74
-80
-99
-94
-87
-87
-85
-71
-60
-66
-66
-69
-85
-99
-107
-101
-67
-68
-60
-63
-65
-70
-89
-95
-90
-85
-80
-81
-60
-70
-65
-75
-91
-96
-97
-86
-89
-74
-66
-66
-78
-87
-90
-86
-99
-108
-88
-67
-59
-67
-69
-81
-91
-95
-99
-85
-82
-75
-66
-69
-79
-84
-87
-102
-100
-95
-91
-73
-66
-68
-64
-80
-96
-102
-100
-93
-81
-66
-70
-84
-79
-79
-95
-102
-85
-90
-83
-73
-67
-66
-60
-81
-94
-106
-103
-86
-69
-58
-56
-61
-81
-67
-84
-94
-81
-78
-80
-71
-67
-62
-62
-79
-98
-99
-90
-86
-69
-67
-71
-62
-67
-84
-109
-103
-91
-90
-91
-80
-70
-84
-87
-72
-100
-107
-105
-90
-76
-73
-70
-72
-74
-98
-114
-106
-105
-91
-75
-72
-68
-74
-81
-104
-112
-113
-113
-117
-92
-83
-71
-78
-68
-62
-55
-41
-19
3
25
35
28
11
-32
-26
-46
-85
-90
-113
-121
-111
-109
-112
-114
-126
-124
-131
-133
-109
-89
-76
-74
-71
-83
-90
-106
-105
-93
-95
-70
-70
-68
-75
-81
-85
-103
-97
-100
-84
-76
-57
-69
-77
-91
-97
-100
-86
-84
-90
-65
-60
-67
-69
-82
-86
-91
-86
-81
-82
-60
-64
-82
-67
-81
-88
-95
-102
-77
-67
-59
-57
-61
-66
-82
-81
-96
-95
-80
-73
-62
-65
-63
-60
-69
-88
-98
-81
-72
-68
-56
-47
-48
-52
-76
-71
-87
-74
-68
-47
-46
-31
-50
-59
-68
-67
-68
-70
-63
-50
-37
-42
-35
-34
-32
-66
-72
-60
-52
-45
-31
-23
-35
-42
-57
-70
-79
-63
-52
-51
-35
-33
-46
-45
-55
-69
-83
-68
-65
-51
-51
-40
-50
-75
-91
-96
-97
-87
-79
-69
-71
-57
-66
-82
-87
-105
-99
-97
-94
-73
-70
-82
-80
-84
-101
-100
-97
-97
-109
-91
-67
-80
-84
-86
-108
-111
-100
-98
-97
-78
-67
-84
-84
-96
-97
-114
-115
-95
-85
-83
-75
-79
-90
-95
-97
-113
-104
-100
-96
-75
-73
-76
-75
-76
-101
-112
-92
-91
-101
-69
-66
-70
-77
-85
-91
-98
-106
-96
-76
-78
-69
-67
-76
-88
-101
-104
-83
-96
-91
-74
-68
-78
-83
-88
-103
-106
-103
-85
-78
-82
-75
-82
-83
-84
-98
-96
-94
-97
-90
-74
-72
-77
-83
-84
-93
-101
-94
-94
-83
-71
-73
-85
-70
-84
-105
-101
-102
-93
-84
-72
-65
-78
-91
-84
-106
-106
-102
-88
-79
-75
-69
-83
-91
-96
-110
-104
-86
-94
-77
-69
-73
-79
-79
-93
-105
-97
-96
-95
-97
-76
-69
-80
-80
-91
-101
-103
-92
-91
-89
-71
-82
-87
-78
-97
-104
-104
-96
-94
-78
-69
-76
-78
-73
-96
-101
-88
-83
-88
-83
-68
-66
-77
-75
-85
-94
-94
-88
-82
-67
-57
-65
-73
-80
-85
-86
-95
-93
-72
-77
-74
-69
-77
-83
-91
-97
-106
-99
-93
-75
-79
-79
-73
-95
-102
-107
-100
-94
-82
-68
-82
-84
-76
-89
-99
-103
-97
-92
-94
-90
-81
-81
-84
-81
-100
-115
-109
-100
-98
-99
-84
-79
-100
-103
-103
-95
-86
-62
-29
-2
8
25
38
24
-7
-27
-47
-48
-63
-72
-79
-115
-129
-136
-134
-128
-126
-119
-97
-91
-77
-85
-87
-100
-94
-106
-104
-93
-90
-63
-65
-76
-72
-102
-103
-101
-106
-87
-89
-74
-70
-74
-84
-88
-103
-107
-96
-86
-76
-67
-68
-71
-75
-92
-101
-102
-95
-86
-70
-77
-64
-63
-69
-86
-105
-97
-87
-75
-68
-68
-70
-69
-71
-89
-103
-94
-80
-84
-64
-53
-59
-68
-71
-86
-92
-100
-79
-73
-65
-49
-50
-68
-69
-84
-80
-88
-66
-59
-57
-42
-45
-48
-56
-74
-70
-69
-65
-55
-38
-28
-43
-36
-62
-65
-60
-56
-54
-54
-37
-36
-26
-34
-47
-58
-61
-55
-59
-45
-39
-31
-27
-33
-54
-58
-69
-64
-61
-58
-40
-44
-36
-55
-56
-69
-81
-81
-74
-62
-49
-36
-52
-79
-72
-90
-104
-84
-87
-81
-62
-54
-70
-73
-86
-108
-99
-96
-86
-80
-69
-64
-70
-69
-91
-106
-97
-103
-86
-98
-65
-67
-72
-75
-88
-104
-93
-85
-89
-65
-66
-64
-73
-81
-88
-92
-97
-91
-86
-76
-63
-57
-70
-76
-85
-102
-101
-89
-87
-69
-58
-65
-75
-80
-95
-98
-91
-84
-76
-72
-67
-66
-72
-75
-90
-99
-98
-84
-77
-64
-69
-70
-74
-78
-75
-77
-82
-84
-80
-79
-63
-56
-74
-79
-91
-99
-110
-84
-75
-62
-61
-58
-63
-82
-86
-92
-106
-97
-87
-63
-61
-74
-61
-86
-87
-98
-92
-83
-76
-61
-69
-66
-71
-83
-85
-94
-103
-86
-72
-71
-65
-74
-71
-73
-100
-99
-94
-89
-78
-61
-60
-66
-73
-90
-84
-100
-85
-90
-81
-63
-70
-65
-71
-84
-101
-101
-95
-79
-85
-68
-69
-68
-67
-76
-91
-89
-99
-85
-71
-60
-52
-68
-68
-78
-89
-101
-93
-83
-74
-67
-68
-72
-74
-79
-101
-98
-83
-85
-73
-63
-61
-69
-71
-83
-97
-93
-95
-86
-77
-63
-67
-74
-74
-90
-99
-83
-59
-91
-69
-64
-66
-75
-73
-84
-97
-96
-89
-85
-68
-62
-65
-60
-74
-91
-85
-86
-91
-77
-62
-64
-62
-70
-83
-96
-103
-98
-75
-74
-64
-63
-64
-62
-63
-82
-95
-87
-85
-78
-70
-63
-57
-56
-66
-76
-81
-77
-75
-81
-58
-40
-66
-58
-69
-80
-78
-80
-82
-71
-58
-66
-56
-61
-67
-88
-97
-89
-80
-76
-66
-52
-60
-81
-85
-92
-98
-87
-86
-81
-56
-55
-61
-73
-74
-89
-111
-94
-78
-80
-71
-65
-65
-74
-78
-94
-102
-93
-89
-84
-65
-86
-82
-75
-66
-83
-65
-40
-29
-3
23
40
44
36
21
-18
-48
-45
-53
-62
-72
-85
-108
-132
-119
-114
-113
-103
-99
-92
-74
-64
-71
-67
-83
-89
-84
-78
-84
-69
-65
-57
-72
-59
-79
-80
-89
-82
-71
-75
-58
-62
-55
-65
-75
-87
-93
-72
-97
-60
-48
-52
-53
-62
-85
-94
-90
-84
-77
-54
-50
-56
-60
-63
-76
-88
-80
-73
-71
-60
-44
-46
-55
-58
-72
-80
-79
-67
-61
-53
-43
-52
-54
-56
-73
-68
-76
-70
-65
-48
-36
-40
-43
-59
-67
-66
-70
-57
-50
-38
-38
-44
-36
-49
-56
-69
-60
-60
-36
-23
-22
-26
-32
-36
-41
-42
-46
-50
-37
-9
-23
-29
-21
-32
-45
-52
-50
-42
-36
-24
-19
-25
-17
-34
-58
-65
-53
-52
-50
-23
-30
-35
-41
-47
-67
-77
-63
-71
-58
-43
-51
-42
-58
-66
-76
-72
-78
-78
-67
-53
-53
-56
-58
-70
-86
-87
-79
-72
-87
-62
-58
-57
-61
-79
-81
-89
-80
-78
-76
-56
-48
-63
-71
-71
-83
-85
-84
-82
-70
-54
-46
-63
-58
-70
-93
-82
-80
-77
-72
-60
-60
-66
-69
-73
-78
-85
-73
-77
-62
-46
-54
-65
-65
-78
-88
-82
-76
-70
-55
-48
-57
-61
-66
-84
-90
-91
-88
-70
-48
-43
-54
-64
-67
-79
-95
-86
-65
-73
-60
-52
-50
-57
-68
-75
-83
-83
-77
-58
-59
-56
-62
-67
-73
-85
-94
-81
-77
-68
-58
-48
-53
-63
-77
-87
-85
-82
-70
-67
-58
-44
-40
-75
-76
-91
-98
-93
-84
-62
-53
-60
-66
-52
-73
-84
-85
-78
-64
-75
-68
-47
-64
-75
-69
-91
-83
-80
-89
-62
-59
-63
-53
-68
-68
-86
-86
-78
-62
-63
-65
-64
-59
-72
-76
-89
-90
-92
-81
-75
-55
-59
-58
-63
-81
-81
-84
-87
-84
-69
-51
-63
-65
-68
-78
-86
-88
-78
-72
-60
-58
-54
-61
-61
-72
-91
-93
-82
-76
-69
-68
-66
-73
-70
-78
-80
-86
-78
-75
-63
-55
-57
-73
-84
-80
-82
-96
-90
-74
-55
-68
-52
-64
-62
-75
-74
-89
-83
-79
-58
-48
-51
-59
-67
-78
-92
-86
-72
-86
-51
-52
-59
-64
-72
-83
-92
-91
-80
-70
-74
-43
-54
-64
-73
-83
-85
-78
-71
-71
-58
-53
-68
-54
-58
-76
-86
-80
-74
-65
-48
-50
-49
-51
-52
-75
-79
-80
-66
-70
-51
-44
-59
-69
-65
-72
-92
-93
-63
-62
-55
-58
-66
-69
-80
-95
-90
-83
-82
-67
-60
-62
-64
-66
-79
-86
-91
-85
-81
-76
-61
-63
-63
-77
-81
-88
-96
-85
-85
-85
-75
-71
-73
-74
-87
-83
-68
-40
-23
-1
10
50
44
45
21
-20
-37
-33
-37
-51
-68
-93
-106
-104
-129
-133
-114
-106
-104
-93
-76
-81
-74
-74
-85
-94
-100
-88
-81
-78
-55
-60
-65
-72
-86
-82
-86
-80
-88
-68
-52
-49
-70
-72
-79
-93
-91
-80
-72
-70
-56
-63
-63
-62
-94
-100
-76
-77
-77
-66
-63
-56
-70
-71
-86
-79
-88
-82
-72
-59
-55
-53
-64
-69
-79
-91
-97
-72
-65
-58
-56
-50
-58
-67
-71
-75
-69
-82
-64
-51
-48
-50
-61
-72
-70
-82
-58
-68
-59
-51
-42
-42
-43
-67
-69
-70
-67
-52
-44
-46
-26
-33
-39
-54
-68
-64
-58
-53
-36
-27
-22
-45
-35
-51
-59
-58
-65
-50
-38
-33
-26
-29
-46
-38
-71
-64
-55
-57
-49
-42
-48
-42
-62
-70
-91
-86
-75
-64
-70
-45
-51
-59
-73
-92
-99
-94
-78
-88
-83
-75
-63
-69
-82
-104
-104
-106
-108
-93
-79
-65
-72
-77
-83
-98
-103
-109
-104
-93
-77
-95
-85
-83
-86
-104
-112
-115
-105
-93
-83
-73
-79
-84
-94
-91
-102
-107
-100
-101
-90
-78
-74
-92
-92
-99
-107
-106
-99
-99
-79
-76
-75
-80
-87
-111
-116
-110
-103
-94
-84
-81
-77
-85
-95
-93
-116
-105
-98
-109
-87
-85
-90
-99
-104
-106
-107
-110
-104
-88
-90
-82
-86
-101
-101
-110
-117
-109
-97
-103
-91
-77
-88
-94
-102
-107
-110
-114
-111
-108
-96
-82
-86
-95
-113
-121
-116
-103
-104
-108
-96
-93
-93
-91
-132
-130
-127
-119
-102
-93
-92
-88
-91
-102
-102
-128
-125
-117
-123
-100
-94
-87
-96
-98
-118
-125
-129
-116
-109
-106
-108
-96
-97
-105
-115
-134
-131
-111
-120
-108
-93
-95
-105
-96
-118
-129
-128
-135
-123
-98
-95
-106
-103
-106
-121
-129
-117
-111
-124
-104
-101
-97
-105
-109
-117
-134
-131
-136
-122
-104
-104
-109
-103
-113
-123
-135
-125
-125
-125
-109
-103
-100
-105
-110
-128
-149
-130
-122
-113
-111
-100
-113
-114
-108
-134
-140
-125
-126
-117
-105
-97
-102
-109
-122
-124
-146
-132
-129
-120
-90
-97
-104
-116
-101
-113
-134
-127
-116
-120
-102
-90
-98
-104
-107
-126
-131
-125
-122
-111
-105
-88
-94
-110
-120
-137
-134
-130
