30
28
26
17
26
58
58
34
35
49
44
41
34
27
33
33
19
23
20
40
24
36
40
31
21
40
45
38
38
45
25
24
38
21
19
19
36
46
41
18
25
25
42
48
38
31
9
29
40
45
13
8
43
33
30
41
43
57
31
18
30
20
22
15
16
32
33
45
24
36
32
46
26
11
22
21
16
32
30
27
18
14
27
41
37
30
35
33
35
9
4
6
17
21
23
37
46
51
39
37
40
42
25
10
41
28
21
34
36
33
42
42
47
53
63
32
8
24
34
24
34
31
31
25
28
24
26
54
67
39
27
45
31
39
34
34
37
42
44
37
26
4
18
14
19
6
14
23
17
-10
7
34
30
2
23
35
26
21
20
15
-5
14
18
16
26
19
22
11
23
17
10
20
21
10
2
-3
22
43
47
60
86
107
132
167
184
191
177
168
135
102
58
11
-1
-22
-15
-11
-5
20
2
-13
0
0
2
40
24
1
12
14
11
11
20
19
10
24
19
2
20
29
16
21
18
19
17
7
23
38
29
31
28
36
17
22
25
50
53
60
44
17
0
1
17
27
29
11
32
25
41
15
26
33
46
36
31
46
39
34
19
17
18
25
36
37
32
40
43
42
39
47
44
33
31
49
38
25
58
53
42
42
40
34
51
42
41
46
50
37
53
71
53
52
62
60
58
58
65
71
53
48
57
54
73
51
77
63
49
62
65
63
65
65
49
44
58
60
55
62
63
62
54
65
54
50
64
67
78
81
81
61
44
35
48
49
56
48
46
50
49
51
62
51
57
53
47
49
51
52
45
47
48
34
51
50
50
10
17
46
57
58
40
49
53
39
40
44
41
52
57
43
45
34
50
56
49
47
25
37
45
39
27
45
42
32
45
52
51
44
63
37
28
31
37
50
67
48
47
48
57
46
44
51
36
54
59
57
63
52
36
53
48
42
39
51
59
41
50
52
24
34
36
33
38
33
41
41
45
29
37
46
51
39
43
44
50
39
48
39
67
66
44
50
33
40
46
46
40
34
40
51
68
37
32
25
31
43
42
44
37
36
34
41
34
36
37
53
55
56
41
44
43
42
38
37
51
59
52
76
66
70
62
53
63
80
38
27
35
29
40
49
43
48
47
46
52
47
58
45
54
56
50
62
50
45
45
36
38
35
23
19
12
20
18
47
20
29
31
19
23
20
11
14
-1
23
35
30
17
20
6
28
8
26
26
32
49
57
20
-21
-21
-14
-15
-9
2
28
31
39
62
55
81
115
147
180
187
173
150
130
119
65
11
-13
-27
-25
-31
-29
-33
-32
-27
-16
-7
-6
-2
-3
8
18
22
5
1
-2
-9
0
-4
-19
-25
-14
13
16
23
20
18
21
-11
-34
-32
-2
15
6
17
13
17
4
-3
-1
3
14
13
6
21
21
23
6
2
-10
8
25
37
33
29
9
-2
17
13
19
28
24
17
15
13
9
9
11
26
15
17
9
0
19
47
43
18
23
22
24
30
28
28
20
17
17
37
22
41
28
54
57
7
37
22
24
31
27
33
38
29
51
55
40
45
35
44
39
40
23
26
58
46
31
44
43
44
33
31
45
57
46
40
42
46
35
39
48
43
37
31
44
34
33
43
42
35
-11
35
5
26
36
33
35
28
35
12
16
24
12
10
16
13
-4
16
13
14
32
21
21
23
14
-1
17
14
8
-1
10
24
22
25
21
20
25
17
9
14
9
15
15
26
23
27
21
17
26
12
15
21
7
1
2
15
20
35
35
14
18
25
-13
9
10
14
17
6
-4
1
2
21
21
23
24
23
24
30
17
14
-13
-6
23
41
34
29
17
18
10
15
16
14
0
9
20
37
27
14
16
19
27
18
3
22
12
6
-2
11
10
9
1
-7
26
26
12
14
13
26
21
6
10
26
30
25
16
33
14
-7
-24
4
10
4
15
21
17
24
31
15
5
34
40
32
16
34
31
28
23
22
32
52
32
35
27
16
30
31
40
29
34
33
24
27
38
36
40
35
36
19
19
19
26
28
21
18
18
22
13
10
-2
-17
7
2
4
22
17
7
4
-4
3
15
15
14
27
12
9
-19
-7
-9
10
15
8
1
12
13
-20
-8
18
42
35
39
35
85
112
136
156
174
187
169
141
123
99
49
7
-17
-28
-10
-8
-6
-17
-16
2
-8
-2
-18
6
-1
-6
-10
10
20
6
19
21
-1
14
10
1
17
9
0
25
16
10
15
25
22
15
-11
-31
6
10
9
5
23
8
15
25
35
33
-2
14
21
14
24
26
23
19
18
17
8
19
28
33
24
20
20
27
27
30
36
35
47
47
38
42
11
21
9
-14
26
19
29
39
50
61
67
50
40
42
27
26
40
44
23
31
28
32
31
38
42
42
54
38
37
53
53
67
65
39
27
28
44
55
48
52
41
56
63
67
58
53
47
34
50
80
71
53
65
50
57
46
67
54
65
34
30
46
53
50
48
54
60
54
48
58
26
37
34
25
28
43
43
57
27
26
28
33
31
32
33
17
43
30
24
46
41
21
18
36
38
33
38
34
26
31
39
43
32
29
19
31
30
39
42
44
43
21
20
26
33
52
52
39
38
42
28
23
47
40
18
-12
24
51
60
41
58
42
38
51
49
62
73
35
38
32
38
45
40
41
56
45
27
25
52
35
29
30
36
-5
11
21
30
29
37
53
49
42
31
27
34
40
54
37
38
38
36
36
30
31
39
38
40
38
50
46
28
35
33
47
51
46
38
42
28
20
15
36
42
36
38
35
24
23
29
24
42
53
49
36
38
39
37
50
28
32
61
45
41
27
38
50
46
62
53
52
51
53
55
49
39
36
57
43
46
66
51
57
46
42
71
50
45
47
48
35
38
45
29
31
42
37
26
32
13
29
26
33
54
45
42
39
27
36
43
33
22
24
42
43
49
36
31
16
25
31
42
43
42
42
16
18
41
57
59
49
62
99
121
158
190
206
222
217
187
138
87
55
19
0
2
4
13
10
13
6
17
26
33
32
22
53
20
26
23
21
36
34
30
37
30
25
29
52
48
31
55
32
36
49
41
39
41
24
25
24
31
57
54
36
55
50
63
45
40
37
41
45
57
42
48
22
48
40
65
62
57
51
30
40
35
44
55
58
64
41
37
59
53
56
48
62
58
43
71
60
59
50
56
62
63
61
81
78
66
72
58
50
54
71
59
69
65
60
72
71
67
53
49
67
66
66
89
86
60
50
61
67
68
55
74
94
79
66
76
55
83
56
87
52
55
87
103
61
63
70
81
80
68
51
76
70
60
68
68
58
69
77
69
54
69
64
57
55
52
51
53
37
64
59
46
49
34
42
55
63
55
35
59
51
56
59
56
54
33
31
42
42
41
50
46
40
26
41
56
50
53
15
50
51
53
43
48
50
38
36
41
47
44
59
58
54
40
27
43
51
43
26
14
59
61
61
53
55
54
54
46
57
49
30
46
44
30
50
51
46
44
40
49
39
64
44
45
48
30
36
40
48
48
56
49
44
31
29
39
40
38
35
25
33
71
35
31
46
49
34
0
41
35
39
51
38
36
41
18
24
23
25
31
43
44
42
40
35
43
52
45
63
64
43
56
63
76
55
27
37
38
37
40
20
54
58
54
47
62
53
66
73
41
41
41
42
53
52
54
58
56
41
43
47
55
73
53
51
20
55
47
43
28
34
27
35
34
27
21
24
38
15
24
16
18
36
20
20
31
42
31
28
16
21
26
26
21
28
27
26
24
21
16
13
7
22
30
17
28
48
63
81
112
148
160
191
206
178
163
158
133
75
15
-2
-11
1
-10
-12
-30
-13
0
-15
2
11
9
3
8
18
28
5
-9
8
0
23
17
12
34
40
29
20
19
21
11
14
28
27
31
38
39
28
23
23
22
-10
30
24
29
25
16
32
30
30
27
18
33
47
50
25
11
33
40
24
29
49
26
33
27
22
24
47
43
55
57
52
20
-4
37
53
48
44
57
58
41
45
41
33
50
62
59
38
25
41
36
44
43
37
39
53
54
59
71
73
65
62
59
62
58
59
59
64
57
65
63
55
59
58
67
61
67
57
51
73
79
88
66
51
48
61
81
56
52
53
76
78
85
70
65
50
44
46
71
43
51
46
35
40
50
65
52
59
30
27
32
36
44
30
37
38
28
25
41
45
52
31
46
36
35
23
33
38
26
39
38
41
28
12
37
50
41
42
36
42
58
58
42
-4
43
52
45
35
36
34
40
30
33
38
41
36
41
37
56
42
32
23
26
41
42
59
58
36
38
48
43
44
43
28
36
45
42
42
49
58
54
47
44
53
48
29
1
15
52
39
46
54
52
52
40
35
38
44
38
39
28
37
30
29
50
67
67
52
41
19
37
22
23
29
48
46
36
51
38
51
39
23
24
18
46
30
29
30
33
45
53
50
57
60
58
50
56
72
72
56
28
29
61
67
78
60
28
62
71
53
47
51
47
53
39
56
57
37
51
66
64
62
53
49
52
52
41
58
67
63
51
43
34
31
43
41
49
52
46
58
61
35
18
25
21
4
0
25
48
39
35
54
30
22
24
37
37
31
35
31
39
29
30
23
24
20
16
33
44
61
64
75
91
104
122
139
150
171
195
198
193
153
122
88
42
13
26
17
12
24
-3
-1
9
22
14
24
15
43
30
34
39
34
36
2
9
24
43
38
35
43
28
42
39
23
27
32
38
41
49
61
44
26
23
29
31
27
45
43
35
30
65
44
38
31
31
37
31
43
52
62
53
58
30
29
52
38
43
55
63
54
53
47
37
28
35
68
40
57
61
62
55
50
68
61
74
56
55
66
69
63
77
74
80
75
75
64
75
43
69
93
90
73
70
78
90
77
72
67
71
71
86
81
83
72
66
66
79
96
99
93
104
76
78
97
89
80
63
85
104
102
68
80
68
72
73
88
89
73
88
95
78
88
90
70
64
70
67
73
70
76
71
73
75
69
77
75
61
61
70
61
68
82
73
64
57
74
56
40
56
51
35
42
83
84
52
58
69
77
83
63
59
60
68
50
40
46
70
79
70
44
73
69
70
76
61
68
68
62
64
47
36
62
69
70
65
52
47
57
50
52
56
53
53
62
68
72
52
51
60
73
71
62
70
75
64
61
59
48
49
65
78
80
67
67
75
68
65
61
70
55
103
59
58
60
61
64
59
69
74
77
73
49
50
56
28
55
59
56
80
66
50
53
68
83
70
68
48
59
41
51
68
61
55
61
74
63
57
52
61
84
75
63
75
75
69
79
75
82
86
86
81
72
101
60
74
70
65
52
65
87
82
68
68
51
58
66
64
73
79
63
61
42
21
37
54
47
48
49
57
51
58
50
45
48
46
65
68
37
34
43
51
56
55
45
43
49
54
57
94
125
160
156
176
208
213
219
204
175
134
88
60
35
18
2
11
20
9
-1
23
33
32
42
38
38
54
30
14
54
56
53
65
43
43
54
48
41
41
59
60
51
56
60
52
50
42
50
45
61
70
53
79
56
22
26
23
40
49
43
50
84
85
81
41
18
18
43
60
54
52
48
47
28
46
88
73
69
64
89
79
45
25
60
66
56
63
60
69
73
74
66
72
69
70
69
69
67
73
77
77
64
65
89
65
77
94
68
90
87
75
69
60
81
56
71
71
72
76
86
88
86
70
63
68
90
73
76
80
96
85
92
80
70
84
89
95
94
94
85
82
88
81
73
81
64
86
87
85
81
77
68
78
74
71
89
95
69
76
32
70
70
34
43
68
72
53
68
49
46
85
65
59
64
59
57
53
47
64
65
61
63
42
62
56
57
50
65
65
66
65
64
57
38
37
56
65
65
57
54
46
49
39
59
40
47
73
65
61
69
60
70
68
37
56
76
62
63
68
57
34
83
79
63
56
56
61
61
55
63
66
71
75
63
52
55
47
69
73
68
59
64
69
75
65
55
59
40
57
68
63
63
64
66
73
56
67
74
59
39
60
57
55
37
42
43
67
65
62
64
57
54
60
64
70
75
60
71
52
52
60
76
61
58
66
69
62
65
73
83
82
77
78
78
73
66
63
69
79
77
75
75
74
86
80
72
62
64
95
64
85
76
75
79
71
60
57
75
59
80
85
64
38
49
68
43
55
64
61
54
48
63
48
35
24
65
69
69
52
62
52
51
58
52
53
46
59
66
62
66
52
60
58
39
39
49
78
60
76
95
131
106
122
149
174
185
222
228
205
193
164
117
59
15
9
15
16
21
24
31
35
30
23
34
39
31
38
52
51
49
43
38
43
55
54
53
50
49
37
57
55
27
18
48
67
67
59
61
66
60
61
49
44
55
61
53
58
64
82
64
52
57
57
59
65
66
69
61
56
64
52
43
38
68
77
84
45
67
62
49
44
45
48
51
72
58
76
73
65
71
88
101
73
49
37
69
91
72
76
86
76
77
68
76
83
88
70
86
93
90
95
106
85
79
93
72
80
78
104
80
71
89
86
87
95
92
92
101
106
96
84
85
84
70
66
82
92
97
91
86
80
81
89
86
85
90
95
78
69
81
80
83
92
82
78
75
76
89
86
86
81
86
82
72
73
74
79
86
73
65
77
73
67
72
68
63
50
47
52
69
82
72
49
75
77
62
60
61
76
93
79
62
75
71
66
64
65
58
64
60
85
100
78
58
62
70
79
68
74
66
72
56
68
69
67
74
89
88
74
68
65
71
77
59
72
72
71
67
74
66
67
80
86
94
84
92
78
73
80
72
47
66
73
78
73
57
58
85
83
92
76
87
88
80
70
79
79
56
67
67
75
44
75
72
74
84
93
83
64
63
62
71
73
78
75
66
84
76
80
68
71
68
67
66
76
86
88
85
91
66
51
74
80
86
88
76
101
97
89
85
72
73
84
87
84
71
81
88
82
91
80
92
83
80
81
76
76
81
83
95
70
60
50
73
71
69
85
61
63
59
69
56
56
54
45
39
60
66
64
52
54
56
69
60
70
81
69
51
36
51
46
54
50
45
44
58
55
48
52
49
66
72
96
119
127
168
208
216
218
212
212
185
145
109
66
47
28
18
-4
20
8
-4
15
21
53
55
51
50
50
52
49
44
46
52
56
62
48
41
44
71
68
65
61
75
60
72
53
58
54
47
49
56
50
47
47
65
54
55
58
52
43
39
44
47
65
71
69
60
62
56
70
71
69
48
41
60
56
58
61
74
57
37
49
56
61
54
40
52
44
69
64
64
55
57
66
72
66
56
77
57
62
70
69
39
59
68
55
51
55
63
64
63
60
70
70
70
68
58
39
55
72
70
62
56
57
57
61
76
67
65
56
63
81
65
70
63
61
71
76
63
69
62
68
71
68
72
61
70
42
48
51
35
22
75
65
77
65
52
53
49
28
29
29
40
41
58
35
58
57
36
35
25
40
44
38
34
29
28
25
49
30
21
36
46
36
30
40
26
17
29
27
40
35
41
40
50
41
25
33
26
18
30
15
28
39
44
48
22
22
34
37
40
45
15
31
29
16
24
37
29
29
32
27
29
33
32
24
32
35
42
41
24
25
34
38
38
45
26
28
27
27
28
25
35
41
48
27
16
1
10
20
27
21
27
18
23
21
26
23
23
19
31
6
11
22
22
16
11
10
23
6
-2
17
23
25
17
7
24
14
31
36
32
23
41
26
22
9
29
46
32
29
25
35
30
15
43
41
29
23
27
26
5
10
23
31
31
24
29
20
34
12
25
29
37
34
55
3
-3
11
5
6
21
27
5
15
16
8
0
-9
16
24
14
-5
3
6
3
21
15
-3
8
20
-3
-16
-3
4
3
33
12
5
2
17
-1
-3
15
14
13
5
28
57
86
95
100
119
150
150
151
128
104
69
15
-25
-30
-59
-33
-47
-28
-20
-10
-13
-23
-23
-22
-19
-1
-13
1
-7
-4
2
-13
-7
1
21
14
6
-9
-2
-2
4
-4
9
6
5
5
12
2
0
9
12
12
-1
-3
18
23
3
-17
-16
6
19
14
21
1
15
6
14
14
16
3
4
-8
-19
-5
17
-1
5
2
-2
3
15
11
7
7
5
12
24
28
14
12
17
17
18
20
28
27
40
27
25
27
28
34
36
30
51
21
25
47
27
26
32
11
15
25
33
47
42
36
23
31
32
32
38
43
48
33
31
38
28
33
35
46
38
32
32
51
54
55
54
43
48
44
50
58
63
41
31
27
29
39
41
53
38
33
17
19
33
20
19
23
15
21
27
35
35
34
-3
-9
12
15
6
5
26
30
25
31
33
22
20
25
18
23
25
20
37
21
15
9
19
22
18
31
36
26
25
21
35
16
18
25
24
1
12
30
45
32
31
17
7
19
24
31
34
32
23
17
14
17
28
30
34
20
49
57
29
31
21
26
26
28
10
6
28
35
34
31
37
38
24
12
9
24
42
44
48
20
15
14
-1
20
23
28
34
37
4
19
7
16
27
52
31
7
-9
2
20
20
14
12
24
21
32
33
35
31
32
14
25
24
15
14
29
30
30
52
53
37
25
10
14
15
15
35
66
47
25
23
39
29
28
21
21
30
23
27
23
22
34
33
40
37
45
38
14
42
39
30
36
33
37
31
21
14
10
19
15
7
16
24
25
23
30
35
11
18
14
7
15
22
21
14
-5
-8
-2
13
22
25
4
-5
11
17
13
34
33
45
50
61
73
86
152
139
163
159
152
153
134
96
42
-7
-4
-1
-2
8
7
-12
-12
-14
-1
15
18
16
2
7
14
20
8
12
13
11
16
11
7
20
19
36
35
18
21
2
2
21
20
21
18
16
12
1
-3
14
22
25
23
18
27
26
6
3
6
12
18
24
24
21
16
20
9
-6
5
32
43
39
34
16
14
25
21
12
-2
13
15
18
30
32
44
31
34
26
28
17
53
40
35
26
40
34
27
28
43
26
10
28
39
31
22
46
44
25
28
10
39
54
49
52
52
50
49
38
26
26
30
54
68
43
23
24
30
39
36
57
58
46
31
49
62
3
37
64
38
48
41
45
43
40
29
32
22
24
31
31
47
43
24
20
28
28
23
26
15
7
3
7
25
14
13
24
33
26
19
19
33
11
22
17
17
13
35
24
23
16
14
23
32
24
19
25
22
33
26
0
10
9
14
29
27
31
39
28
20
29
7
9
26
36
14
1
2
24
13
10
20
23
33
37
7
6
21
18
16
24
33
39
36
35
21
23
18
26
22
19
17
19
31
32
9
2
0
12
18
24
22
23
20
20
21
25
33
30
26
0
-10
4
16
10
24
42
12
20
30
22
25
2
9
27
30
9
12
19
12
24
26
17
33
21
-2
-6
-5
0
16
24
16
25
22
24
21
16
8
19
25
32
23
25
19
23
27
30
34
26
41
31
42
46
37
39
28
16
3
3
21
24
39
50
66
43
10
30
11
5
6
19
12
13
27
26
8
14
10
25
21
13
26
19
0
6
4
6
9
9
4
20
16
18
19
11
5
10
22
19
19
21
9
14
9
8
17
19
13
31
9
48
75
103
123
145
165
155
163
163
143
89
48
0
8
-10
-26
-39
-22
-13
-23
-5
13
7
-2
6
20
8
2
-10
22
5
32
17
10
21
24
15
13
14
20
25
32
26
34
25
6
16
24
19
12
0
25
29
35
32
28
18
-2
0
33
40
24
24
34
24
44
29
33
26
43
48
50
53
43
30
21
31
32
40
34
30
14
27
30
22
41
20
11
32
51
46
35
40
33
43
53
37
38
47
58
48
43
52
63
56
47
35
51
53
51
55
60
65
71
58
53
30
40
53
62
61
62
71
46
38
64
45
70
68
74
57
59
51
57
55
71
38
29
52
69
59
48
54
58
53
58
72
56
54
50
55
38
44
37
45
59
52
48
46
50
63
50
44
45
33
32
40
48
53
39
37
30
-6
24
53
49
62
52
37
27
51
57
44
39
45
47
60
48
42
47
63
61
39
52
31
15
22
33
46
52
43
46
49
42
29
33
37
57
43
29
26
33
62
68
48
36
35
20
47
67
59
57
42
58
54
52
50
44
57
39
53
53
63
42
47
53
51
52
48
41
43
54
53
62
24
26
41
38
49
56
51
53
52
54
57
31
39
47
45
56
48
39
52
43
58
57
35
30
31
48
60
72
56
46
32
31
33
35
31
34
50
81
82
72
32
1
23
54
54
52
55
57
46
34
43
49
34
34
44
73
74
72
65
48
49
64
59
49
54
58
54
56
65
80
63
54
60
60
55
47
57
62
51
19
41
57
54
44
37
57
45
32
34
20
19
34
26
21
24
40
45
50
31
41
32
36
30
33
37
45
29
55
31
27
20
29
41
49
49
42
39
40
57
105
125
142
161
173
193
184
177
156
116
74
47
27
28
8
8
20
20
-5
7
7
11
19
16
26
19
20
39
35
33
28
39
32
20
23
36
56
54
70
36
17
24
26
48
52
40
33
40
38
27
50
33
33
38
45
63
62
53
47
44
45
47
51
47
53
55
41
40
51
38
38
57
52
55
62
43
50
56
49
51
40
41
54
67
47
59
49
56
62
59
51
59
66
53
55
51
62
67
76
66
43
51
69
66
84
77
53
46
60
49
63
72
98
88
78
75
73
73
74
86
72
90
81
58
72
64
77
90
95
68
59
68
51
48
61
68
69
74
75
74
56
59
67
69
62
69
84
72
80
62
44
57
44
54
46
27
68
69
74
56
64
51
57
61
63
69
73
67
46
41
18
31
57
67
56
39
47
47
45
50
41
41
46
39
57
52
55
42
35
38
55
77
48
32
56
17
25
47
60
37
40
45
46
47
58
49
60
72
70
63
45
58
63
37
65
64
55
46
73
46
49
33
37
60
78
63
46
52
67
59
47
43
47
63
49
59
58
58
61
59
26
30
35
25
38
54
34
47
74
72
60
78
67
60
59
65
71
59
43
38
14
22
53
58
58
82
43
46
52
38
34
61
55
42
51
59
52
42
39
43
49
67
70
74
70
67
68
70
66
70
68
66
58
65
73
74
56
44
59
66
69
64
67
69
62
67
43
58
57
57
69
63
47
53
52
65
57
50
42
32
47
32
68
62
55
52
27
29
38
54
23
15
33
38
36
43
32
14
28
41
28
37
36
36
52
49
49
35
27
18
54
48
53
37
45
49
38
30
40
54
91
122
164
184
204
206
185
160
118
86
42
19
10
9
2
6
14
18
7
17
8
13
10
-3
30
44
44
49
36
17
25
28
43
38
38
24
17
28
26
36
8
29
32
32
19
14
26
32
16
9
24
40
37
49
37
19
21
30
15
30
48
37
42
44
42
38
13
28
46
34
27
41
35
54
47
49
38
42
30
46
36
38
47
42
33
34
41
41
27
36
49
26
38
46
53
59
52
33
46
42
43
56
50
56
54
44
60
50
54
71
63
63
61
53
61
48
50
47
70
73
67
59
60
61
70
62
58
65
57
77
76
74
58
57
48
57
70
70
78
58
63
59
58
55
62
73
63
58
65
68
74
67
40
32
43
52
47
48
57
56
64
57
53
49
31
41
48
40
31
52
41
39
56
60
31
19
52
46
37
59
24
31
36
49
42
39
27
47
41
38
37
39
45
48
50
59
49
39
47
31
19
29
48
44
47
45
58
68
46
35
49
54
49
41
33
65
48
45
30
50
54
53
56
55
63
52
48
64
64
56
68
73
59
53
34
37
54
48
60
75
59
52
58
60
61
54
51
43
54
54
67
46
76
78
60
50
49
32
49
68
59
54
61
52
60
68
57
49
35
52
52
38
29
36
50
60
54
57
70
69
36
67
68
90
74
73
72
64
69
59
83
93
87
94
81
62
57
60
59
70
81
81
87
77
59
62
62
73
78
82
84
67
61
79
68
70
67
74
57
67
67
61
65
74
40
28
37
47
70
50
50
63
65
54
61
37
55
68
60
53
55
54
41
71
75
63
38
26
44
47
57
42
51
56
63
53
51
61
96
110
117
147
169
199
220
222
231
205
174
130
82
61
42
20
18
20
26
24
27
28
34
57
64
44
47
31
39
62
71
49
59
63
64
48
42
53
82
78
51
58
60
75
59
58
51
42
59
66
53
47
51
46
52
71
81
62
65
58
56
58
76
84
75
78
67
60
68
58
39
66
82
60
87
75
100
86
74
74
77
77
74
72
106
83
82
74
58
86
86
81
88
84
83
90
93
87
101
59
50
62
103
113
95
94
106
119
97
83
89
93
108
114
102
116
115
103
93
98
98
80
86
94
90
103
96
119
89
93
103
98
100
97
110
118
112
100
90
81
108
100
106
114
96
116
99
100
108
102
99
115
103
101
99
108
101
97
96
94
93
82
72
101
89
88
102
98
71
56
79
86
90
76
92
74
72
85
92
89
87
76
68
81
86
54
51
85
87
78
77
72
61
67
94
90
91
85
87
81
86
86
100
83
63
82
73
68
63
82
85
81
83
83
90
88
71
64
70
70
81
81
99
76
71
66
88
97
89
70
80
92
102
85
49
84
73
57
72
78
83
82
92
85
54
69
53
54
76
97
74
54
66
77
77
56
62
60
62
58
58
54
76
57
85
86
89
83
87
84
75
68
67
67
84
78
57
75
85
89
88
90
92
102
87
80
82
83
80
80
85
81
85
94
96
98
87
92
96
97
92
94
89
96
94
100
88
78
75
87
83
96
107
89
49
81
75
89
79
81
84
68
68
64
71
73
58
91
75
81
64
69
61
63
66
66
69
71
68
75
85
63
56
53
61
63
55
67
71
84
72
45
51
69
75
77
71
109
110
128
153
189
208
245
257
239
214
185
146
81
65
28
25
25
26
32
36
43
54
59
66
71
34
31
39
53
51
50
70
75
47
55
45
49
77
57
58
73
57
69
85
90
70
64
64
48
74
94
65
73
76
74
69
71
68
68
76
75
58
48
72
94
92
72
56
53
59
78
88
95
91
77
70
73
79
67
76
80
78
89
70
43
44
71
74
87
85
85
83
80
92
83
79
78
80
88
94
94
98
102
97
90
95
90
74
102
78
80
90
89
91
95
98
105
102
101
89
99
101
88
83
94
99
112
105
111
104
91
107
116
94
107
107
92
93
112
108
102
90
96
93
114
109
109
110
104
96
100
100
100
103
93
104
89
78
93
96
99
107
91
90
65
73
100
85
75
74
87
68
82
102
101
85
64
62
76
85
60
71
72
91
100
84
61
74
79
79
104
99
97
106
95
82
71
58
67
75
85
92
92
96
101
84
83
81
94
71
56
77
84
93
81
97
97
106
91
98
56
65
59
77
95
97
86
74
99
87
76
79
97
85
84
80
77
69
61
74
58
77
66
85
81
63
74
82
89
86
83
85
79
80
95
68
77
79
86
75
52
72
79
87
89
77
67
59
75
78
78
80
77
74
85
84
85
113
70
45
60
65
98
95
89
97
112
90
61
84
90
84
84
104
115
99
87
96
91
47
79
95
95
98
93
108
87
78
85
98
77
72
84
89
90
69
80
78
91
74
87
56
65
67
73
79
57
54
54
60
52
52
68
69
53
69
50
40
66
87
84
62
45
69
68
60
59
82
71
38
53
57
68
58
58
83
98
122
163
186
200
217
228
237
231
208
140
121
48
6
9
11
9
13
34
32
40
41
39
38
71
75
54
67
84
49
44
50
56
65
52
55
57
52
58
56
38
56
56
66
38
65
80
63
57
51
55
50
66
70
64
51
65
70
50
51
58
62
75
80
78
69
67
55
60
60
60
55
54
74
73
79
80
78
80
82
79
64
69
65
73
75
75
83
76
64
70
67
85
99
95
91
80
90
77
59
73
89
95
99
86
87
86
87
83
94
101
99
113
100
86
101
82
79
78
80
83
83
89
96
93
94
94
115
117
108
104
84
65
94
118
117
115
105
101
85
89
114
123
104
120
96
95
87
73
84
89
83
79
101
102
94
100
93
79
68
58
80
87
84
98
104
86
112
88
76
76
72
59
81
78
57
62
72
73
73
93
90
79
84
108
79
72
70
72
72
78
96
74
59
70
101
98
91
76
72
100
96
78
83
82
85
67
96
87
86
95
107
93
88
87
102
112
97
83
81
73
63
90
98
83
114
107
87
69
66
73
72
74
75
79
85
83
83
72
84
79
81
76
77
83
88
80
83
89
93
87
64
74
70
82
85
77
84
71
64
91
95
91
97
76
82
78
91
79
89
96
67
86
97
117
110
90
80
83
95
97
93
110
101
113
103
99
124
98
94
99
95
103
100
103
87
81
95
106
107
102
111
113
111
103
96
97
95
86
84
115
96
97
109
108
90
86
70
74
77
84
60
68
68
71
82
91
99
100
106
113
94
63
43
74
74
56
61
71
69
60
63
85
109
89
77
70
57
63
54
74
97
116
143
143
165
196
227
231
239
236
194
163
115
48
23
25
12
16
22
31
34
25
29
53
55
71
63
66
71
71
73
64
63
65
73
62
85
59
53
52
59
75
76
70
70
28
55
52
38
55
58
50
56
73
65
40
59
69
84
75
75
77
94
87
66
70
68
76
73
56
65
63
53
89
109
104
88
90
74
60
65
56
70
66
67
62
67
60
56
65
82
90
93
87
68
52
66
63
99
69
84
88
94
89
65
86
89
94
98
96
99
102
102
92
99
94
98
88
91
96
99
82
97
106
112
102
81
80
108
107
95
98
96
96
103
103
119
112
98
107
102
110
106
104
105
99
100
110
95
113
101
130
138
98
81
82
84
89
88
93
93
91
97
91
79
96
81
59
101
90
86
107
92
70
73
64
83
84
93
98
92
89
88
95
86
88
92
83
84
100
84
72
97
90
83
83
84
80
81
82
99
113
97
86
82
89
84
86
77
99
106
75
88
96
102
91
89
91
95
98
104
91
98
103
94
89
79
85
76
58
46
88
119
120
87
82
68
84
99
102
105
109
104
103
97
93
61
78
73
97
99
101
113
101
76
56
76
72
77
83
80
86
68
84
100
92
88
83
77
84
95
93
116
95
92
83
83
94
108
103
97
102
96
106
97
115
120
98
88
101
109
115
115
111
111
87
92
107
109
103
104
103
96
100
104
98
105
78
100
99
110
125
101
101
81
89
82
81
101
102
101
92
92
76
96
89
87
97
100
73
67
87
96
89
87
95
94
104
102
91
92
92
83
83
62
58
94
83
100
84
109
151
155
177
180
184
228
253
259
255
228
201
160
122
78
69
66
63
61
58
52
77
66
64
67
78
83
76
75
86
88
89
90
99
96
99
82
69
68
86
72
82
90
95
86
88
91
91
72
80
95
95
81
87
100
84
97
89
91
96
93
97
95
70
70
79
102
85
99
105
87
92
85
79
85
93
80
85
92
89
74
101
97
103
91
110
100
92
101
106
101
98
98
117
117
113
106
115
121
116
113
109
107
118
121
123
114
115
123
139
127
116
87
111
132
119
128
132
128
135
133
125
125
120
140
130
129
136
126
121
113
110
116
129
144
148
135
132
88
133
139
133
143
140
139
142
147
121
133
126
128
142
133
122
120
132
113
104
116
115
126
121
118
111
107
111
102
103
102
115
123
124
115
114
124
119
132
109
110
121
131
120
103
107
108
113
126
108
108
126
117
99
100
107
120
115
103
103
112
106
112
111
119
105
116
122
115
109
119
113
117
137
131
125
125
124
128
127
130
134
116
116
101
104
96
98
118
137
124
126
120
131
140
127
119
128
126
116
111
124
128
130
147
120
115
124
115
98
110
105
103
98
107
117
114
109
107
123
132
121
104
106
97
84
107
116
110
120
122
109
115
107
95
100
110
119
127
117
127
139
133
135
114
126
108
98
120
136
121
116
90
132
120
100
91
105
100
93
104
79
39
74
98
77
82
114
87
71
99
135
127
103
82
92
88
84
66
83
81
56
54
81
88
96
100
68
78
136
91
93
84
87
72
58
88
83
56
49
71
41
54
30
40
19
24
46
60
38
63
103
116
112
141
180
202
239
200
187
166
123
61
54
4
-8
5
-6
-19
-18
-5
-9
-11
-14
-32
-38
-31
-14
-29
-52
-32
-30
-37
-57
-43
-27
-41
-73
-65
-64
-72
-75
-75
-79
-64
-57
-58
-65
-83
-81
-92
-93
-94
-97
-96
-90
-104
-86
-124
-119
-103
-127
-138
-131
-130
-137
-147
-162
-176
-158
-152
-135
-124
-143
-169
-177
-160
-124
-154
-160
-161
-169
-163
-149
-130
-144
-163
-176
-197
-185
-155
-147
-172
-183
-155
-145
-153
-165
-147
-157
-158
-151
-160
-158
-144
-139
-143
-142
-145
-133
-138
-143
-152
-167
-167
-148
-147
-140
-117
-127
-159
-147
-133
-127
-130
-133
-147
-133
-133
-130
-137
-134
-117
-111
-136
-125
-129
-149
-158
-151
-137
-128
-111
-113
-132
-137
-134
-144
-148
-131
-119
-126
-151
-155
-148
-133
-127
-127
-134
-138
-143
-138
-152
-147
-138
-153
-158
-166
-163
-154
-145
-148
-143
-141
-149
-151
-151
-143
-151
-135
-153
-167
-146
-162
-162
-175
-164
-169
-140
-162
-159
-157
-147
-144
-144
-145
-144
-149
-148
-145
-149
-154
-117
-131
-163
-152
-134
-145
-141
-150
-153
-162
-146
-146
-153
-122
-119
-139
-129
-143
-146
-126
-116
-131
-152
-156
-135
-119
-119
-133
-129
-112
-138
-155
-143
-147
-132
-119
-116
-119
-124
-138
-150
-135
-133
-114
-127
-135
-135
-132
-110
-126
-118
-118
-115
-116
-109
-120
-131
-122
-117
-123
-137
-129
-128
-112
-112
-127
-125
-107
-122
-132
-132
-114
-122
-112
-100
-110
-124
-125
-128
-139
-137
-109
-104
-80
-92
-97
-103
-101
-99
-101
-102
-112
-123
-128
-102
-81
-105
-104
-95
-98
-92
-89
-110
-109
-76
-98
-93
-111
-121
-108
-101
-124
-133
-144
-156
-132
-118
-117
-117
-106
-123
-131
-132
-124
-106
-90
-111
-124
-134
-140
-114
-101
-103
-101
-98
-123
-129
-117
-112
-116
-122
-126
-96
-90
-78
-66
-74
-35
-7
13
37
60
63
28
-27
-55
-99
-130
-151
-135
-121
-131
-155
-125
-125
-127
-119
-126
-124
-126
-111
-123
-119
-116
-115
-128
-151
-139
-146
-133
-143
-136
-133
-132
-120
-102
-103
-111
-134
-137
-127
-125
-120
-142
-149
-138
-125
-114
-129
-129
-129
-109
-106
-121
-115
-111
-123
-134
-140
-128
-127
-127
-117
-121
-115
-119
-112
-129
-132
-132
-114
-113
-115
-101
-80
-96
-108
-121
-104
-95
-96
-129
-122
-131
-111
-105
-86
-103
-112
-98
-116
-106
-114
-131
-130
-96
-99
-100
-103
-94
-101
-118
-139
-136
-116
-118
-125
-115
-100
-116
-104
-91
-77
-88
-97
-87
-95
-93
-104
-102
-110
-107
-105
-115
-125
-84
-83
-91
-99
-107
-110
-97
-101
-115
-106
-106
-86
-73
-75
-88
-114
-126
-140
-107
-112
-121
-154
-142
-140
-135
-128
-117
-137
-128
-121
-119
-126
-143
-157
-130
-116
-96
-119
-129
-130
-126
-148
-166
-166
-161
-137
-142
-145
-155
-134
-120
-124
-132
-145
-166
-179
-191
-175
-136
-106
-122
-170
-170
-145
-130
-123
-148
-166
-144
-165
-158
-142
-132
-150
-133
-132
-127
-154
-148
-138
-160
-155
-140
-134
-125
-135
-132
-134
-136
-132
-166
-151
-156
-168
-146
-148
-149
-154
-155
-151
-129
-129
-166
-193
-157
-155
-171
-134
-126
-172
-165
-149
-145
-153
-142
-153
-172
-160
-148
-141
-117
-122
-126
-147
-163
-146
-141
-133
-146
-160
-161
-156
-145
-148
-159
-190
-192
-161
-139
-130
-128
-143
-149
-141
-141
-127
-136
-157
-135
-118
-137
-120
-128
-155
-108
-101
-85
-110
-137
-148
-153
-155
-153
-138
-118
-110
-128
-151
-136
-134
-153
-142
-149
-134
-169
-174
-171
-167
-138
-150
-150
-160
-166
-146
-138
-157
-176
-147
-153
-156
-168
-174
-158
-142
-143
-165
-160
-170
-163
-164
-156
-158
-159
-169
-154
-167
-189
-174
-137
-152
-162
-162
-152
-116
-86
-77
-45
-11
24
22
-2
-47
-81
-91
-137
-176
-180
-168
-197
-197
-185
-197
-203
-189
-185
-186
-179
-156
-123
-149
-183
-189
-179
-174
-178
-176
-159
-153
-144
-160
-155
-159
-169
-154
-162
-156
-168
-168
-168
-186
-162
-160
-146
-163
-159
-160
-168
-157
-143
-161
-177
-177
-178
-152
-161
-166
-164
-161
-140
-156
-156
-173
-162
-182
-169
-144
-164
-160
-149
-146
-148
-148
-169
-168
-163
-165
-171
-151
-141
-100
-127
-157
-158
-159
-163
-152
-163
-152
-136
-142
-136
-131
-126
-137
-133
-131
-108
-123
-152
-163
-154
-165
-154
-148
-128
-121
-136
-141
-141
-123
-115
-99
-111
-127
-117
-116
-122
-132
-135
-143
-133
-157
-141
-121
-112
-104
-121
-129
-132
-129
-133
-120
-115
-107
-98
-98
-105
-113
-141
-148
-132
-146
-147
-128
-114
-113
-116
-116
-124
-131
-139
-134
-144
-154
-149
-146
-135
-118
-132
-144
-164
-144
-115
-119
-131
-125
-148
-168
-138
-119
-161
-175
-147
-143
-149
-115
-137
-153
-154
-146
-137
-139
-135
-132
-141
-129
-120
-131
-137
-162
-154
-140
-156
-169
-163
-125
-113
-112
-101
-120
-114
-137
-167
-145
-147
-128
-119
-131
-151
-149
-145
-142
-146
-124
-121
-130
-140
-140
-133
-113
-128
-140
-141
-135
-129
-118
-130
-131
-166
-169
-146
-133
-117
-107
-95
-102
-127
-148
-138
-138
-157
-157
-142
-131
-142
-130
-127
-152
-133
-135
-149
-149
-151
-171
-138
-130
-97
-110
-120
-132
-129
-122
-134
-148
-124
-122
-121
-132
-125
-136
-151
-126
-110
-106
-106
-120
-113
-112
-130
-151
-122
-99
-85
-99
-99
-121
-140
-129
-100
-98
-109
-139
-141
-111
-140
-152
-142
-141
-144
-147
-154
-143
-137
-137
-135
-158
-151
-151
-162
-155
-157
-137
-105
-112
-129
-132
-105
-93
-107
-134
-154
-165
-147
-134
-129
-147
-145
-137
-153
-135
-139
-114
-116
-85
-27
10
9
-6
-3
10
-16
-49
-58
-82
-111
-124
-154
-161
-169
-179
-187
-154
-151
-159
-144
-124
-148
-175
-170
-157
-148
-138
-149
-137
-137
-144
-148
-131
-136
-143
-131
-130
-126
-118
-125
-127
-139
-150
-163
-154
-148
-121
-130
-126
-123
-133
-142
-128
-117
-123
-153
-138
-112
-105
-105
-124
-132
-139
-145
-150
-146
-127
-93
-93
-106
-116
-103
-112
-155
-164
-165
-147
-142
-131
-104
-101
-123
-121
-115
-124
-125
-127
-106
-124
-129
-120
-109
-107
-107
-114
-111
-116
-117
-136
-122
-115
-104
-122
-103
-95
-89
-91
-95
-84
-73
-100
-113
-129
-119
-114
-94
-92
-88
-85
-66
-75
-100
-109
-105
-94
-86
-76
-80
-86
-101
-125
-116
-119
-111
-99
-89
-66
-72
-109
-112
-76
-90
-102
-102
-99
-103
-88
-83
-71
-90
-104
-105
-117
-119
-92
-90
-126
-124
-116
-133
-121
-132
-115
-105
-110
-125
-127
-120
-108
-99
-99
-124
-130
-112
-105
-109
-128
-123
-107
-121
-139
-138
-131
-114
-98
-110
-123
-128
-127
-122
-114
-127
-101
-122
-131
-122
-121
-106
-106
-117
-121
-103
-109
-104
-102
-121
-131
-103
-114
-120
-134
-121
-105
-128
-124
-106
-113
-122
-139
-145
-153
-140
-105
-65
-92
-114
-106
-101
-112
-113
-100
-84
-116
-140
-135
-125
-118
-111
-109
-108
-118
-120
-111
-124
-112
-115
-131
-118
-100
-134
-141
-138
-107
-86
-88
-115
-131
-111
-95
-110
-117
-118
-136
-124
-119
-107
-95
-102
-101
-98
-113
-122
-115
-94
-83
-100
-125
-125
-105
-110
-97
-85
-74
-87
-95
-99
-90
-100
-95
-95
-107
-146
-135
-111
-86
-64
-59
-87
-116
-124
-128
-109
-118
-138
-133
-142
-139
-137
-128
-118
-120
-91
-106
-142
-137
-128
-130
-119
-93
-100
-120
-128
-134
-114
-135
-125
-126
-140
-132
-125
-132
-129
-127
-106
-104
-88
-64
-62
-30
-20
5
43
39
52
58
10
-28
-60
-99
-126
-140
-146
-147
-138
-138
-149
-143
-124
-125
-104
-106
-114
-124
-130
-127
-122
-118
-134
-128
-109
-114
-106
-108
-131
-145
-131
-122
-124
-125
-129
-125
-119
-127
-129
-131
-118
-126
-130
-120
-109
-115
-118
-121
-92
-90
-118
-144
-122
-119
-105
-110
-124
-121
-116
-126
-129
-121
-124
-133
-118
-111
-102
-100
-107
-116
-124
-123
-120
-125
-116
-101
-95
-96
-98
-111
-117
-101
-117
-104
-103
-94
-78
-105
-122
-144
-125
-86
-73
-72
-73
-84
-103
-94
-104
-80
-74
-64
-87
-114
-92
-77
-71
-86
-94
-92
-120
-124
-95
-91
-84
-56
-59
-91
-90
-105
-77
-78
-81
-72
-97
-83
-55
-51
-58
-66
-73
-102
-109
-83
-92
-108
-94
-82
-77
-67
-38
-72
-98
-97
-97
-101
-94
-78
-86
-114
-133
-90
-83
-91
-105
-112
-118
-101
-106
-122
-118
-97
-103
-108
-116
-112
-106
-99
-108
-85
-99
-99
-87
-104
-120
-113
-91
-66
-129
-153
-142
-122
-93
-101
-99
-114
-116
-126
-113
-93
-96
-99
-87
-104
-94
-97
-100
-91
-78
-86
-105
-114
-99
-106
-110
-114
-117
-122
-107
-98
-100
-111
-102
-122
-107
-110
-104
-92
-101
-110
-112
-99
-92
-94
-109
-95
-98
-115
-95
-90
-105
-111
-102
-106
-105
-107
-100
-113
-135
-140
-145
-114
-80
-79
-112
-109
-104
-90
-86
-76
-104
-119
-110
-109
-103
-114
-111
-115
-79
-59
-85
-90
-104
-101
-83
-95
-100
-79
-88
-93
-107
-88
-63
-78
-95
-110
-112
-85
-67
-73
-63
-51
-66
-91
-113
-108
-88
-82
-80
-112
-95
-76
-108
-128
-130
-134
-116
-96
-76
-78
-89
-114
-119
-125
-100
-88
-102
-105
-94
-100
-109
-105
-116
-117
-122
-121
-130
-128
-109
-73
-96
-103
-126
-134
-123
-124
-82
-58
-57
-45
-27
-10
36
44
62
85
63
29
-13
-62
-99
-124
-143
-133
-117
-138
-164
-121
-115
-123
-115
-115
-118
-128
-111
-95
-85
-95
-111
-116
-107
-89
-99
-106
-113
-86
-75
-109
-108
-125
-129
-130
-113
-110
-105
-111
-104
-81
-79
-100
-101
-100
-99
-108
-116
-112
-102
-86
-90
-109
-101
-76
-79
-67
-94
-87
-96
-131
-138
-118
-121
-101
-73
-76
-85
-111
-122
-124
-109
-76
-55
-74
-96
-110
-116
-80
-58
-73
-68
-73
-98
-120
-97
-77
-58
-45
-57
-70
-80
-99
-97
-88
-84
-88
-93
-99
-91
-76
-56
-48
-61
-72
-82
-75
-64
-62
-65
-80
-78
-53
-44
-60
-73
-40
-41
-80
-85
-60
-61
-59
-60
-46
-46
-82
-84
-66
-45
-54
-61
-66
-85
-89
-88
-70
-51
-54
-52
-76
-80
-83
-93
-68
-72
-85
-77
-64
-64
-68
-65
-68
-69
-79
-78
-87
-68
-54
-47
-62
-89
-122
-129
-133
-124
-105
-73
-50
-56
-59
-71
-81
-114
-121
-113
-94
-91
-74
-43
-63
-85
-90
-90
-92
-87
-69
-72
-108
-117
-79
-64
-85
-90
-71
-59
-75
-74
-70
-86
-85
-96
-111
-108
-88
-76
-58
-70
-77
-83
-102
-80
-64
-84
-84
-75
-70
-90
-108
-90
-64
-65
-90
-90
-73
-63
-74
-84
-71
-84
-96
-107
-115
-104
-98
-59
-31
-42
-89
-90
-65
-58
-65
-87
-97
-78
-104
-103
-74
-62
-67
-65
-77
-116
-119
-111
-98
-79
-79
-85
-86
-73
-69
-81
-80
-62
-83
-65
-64
-78
-76
-55
-48
-61
-72
-71
-58
-45
-42
-61
-89
-91
-82
-81
-76
-81
-72
-68
-55
-59
-87
-96
-91
-91
-84
-75
-89
-98
-91
-71
-66
-74
-80
-83
-85
-83
-103
-134
-120
-84
-82
-66
-84
-108
-101
-117
-130
-110
-92
-99
-94
-87
-95
-98
-92
-92
-89
-83
-69
-72
-48
-11
14
31
51
56
83
68
57
31
4
-38
-78
-93
-101
-117
-124
-113
-106
-118
-116
-114
-107
-131
-111
-94
-98
-71
-80
-59
-74
-78
-89
-109
-117
-102
-104
-105
-98
-89
-84
-73
-84
-80
-72
-83
-108
-114
-92
-70
-87
-88
-87
-91
-93
-100
-107
-94
-84
-78
-100
-72
-66
-73
-99
-82
-83
-100
-84
-79
-85
-90
-86
-88
-90
-91
-97
-83
-69
-50
-33
-69
-125
-123
-89
-80
-84
-87
-91
-96
-102
-83
-58
-66
-72
-38
-64
-101
-83
-67
-79
-57
-66
-66
-78
-83
-65
-64
-69
-65
-69
-70
-70
-54
-44
-44
-54
-58
-43
-67
-59
-45
-66
-70
-52
-35
-57
-72
-78
-66
-62
-40
-28
-40
-70
-65
-63
-58
-66
-58
-68
-66
-61
-53
-58
-61
-79
-67
-59
-43
-43
-61
-68
-70
-73
-76
-84
-64
-63
-79
-61
-60
-63
-71
-90
-88
-92
-78
-86
-100
-73
-69
-61
-73
-84
-96
-81
-78
-90
-86
-66
-83
-87
-74
-85
-90
-90
-80
-81
-99
-99
-84
-87
-87
-86
-77
-92
-66
-63
-76
-75
-83
-88
-95
-89
-85
-108
-82
-55
-65
-68
-53
-62
-79
-90
-89
-84
-91
-103
-86
-94
-97
-83
-89
-75
-76
-95
-87
-80
-85
-84
-83
-67
-73
-70
-71
-68
-67
-75
-69
-59
-90
-75
-76
-95
-97
-95
-97
-102
-113
-88
-59
-61
-101
-100
-86
-88
-80
-96
-106
-90
-85
-83
-97
-91
-87
-107
-114
-94
-88
-74
-71
-61
-73
-74
-70
-71
-86
-89
-84
-87
-86
-84
-83
-80
-64
-48
-72
-75
-74
-61
-70
-83
-82
-67
-76
-80
-63
-76
-106
-90
-71
-69
-89
-106
-92
-108
-90
-92
-107
-94
-99
-112
-141
-136
-115
-105
-74
-61
-81
-102
-100
-109
-130
-129
-106
-77
-79
-113
-106
-98
-106
-110
-113
-138
-140
-127
-131
-128
-107
-78
-72
-68
-64
-25
12
41
59
78
38
17
-5
-43
-79
-118
-116
-106
-97
-118
-142
-153
-153
-144
-140
-144
-127
-137
-155
-155
-136
-113
-110
-128
-141
-148
-157
-130
-123
-139
-137
-110
-125
-135
-137
-133
-114
-118
-94
-98
-127
-150
-160
-158
-130
-130
-130
-128
-139
-144
-137
-136
-135
-136
-120
-133
-140
-138
-145
-161
-174
-147
-133
-134
-137
-129
-142
-131
-112
-128
-116
-78
-84
-123
-145
-169
-168
-157
-169
-136
-115
-129
-127
-128
-123
-143
-112
-100
-126
-124
-125
-112
-109
-124
-112
-113
-144
-174
-156
-135
-130
-115
-106
-106
-106
-110
-126
-128
-112
-92
-80
-84
-101
-109
-109
-94
-102
-111
-122
-119
-81
-100
-108
-116
-125
-120
-123
-114
-114
-103
-78
-86
-108
-126
-125
-113
-95
-90
-80
-115
-155
-148
-146
-155
-150
-135
-120
-120
-120
-114
-113
-117
-153
-168
-153
-135
-124
-114
-125
-138
-149
-149
-143
-141
-156
-163
-167
-169
-169
-158
-145
-147
-155
-137
-148
-153
-134
-140
-145
-149
-160
-161
-152
-156
-159
-138
-138
-154
-150
-140
-145
-146
-149
-158
-170
-171
-156
-144
-152
-143
-155
-147
-154
-136
-144
-143
-142
-142
-137
-135
-131
-144
-143
-128
-136
-154
-145
-132
-128
-138
-146
-146
-140
-134
-118
-112
-115
-115
-121
-120
-129
-130
-121
-115
-121
-120
-104
-107
-113
-115
-118
-104
-104
-101
-102
-87
-90
-89
-78
-77
-80
-87
-84
-89
-85
-76
-72
-76
-88
-78
-72
-73
-65
-56
-57
-43
-50
-43
-44
-40
-36
-35
-23
-16
-30
-38
-34
-31
-44
-67
-55
-55
-47
-44
-67
-70
-76
-77
-73
-79
-74
-54
-64
-85
-79
-79
-90
-99
-108
-105
-100
-114
-106
-99
-103
-107
-114
-103
-100
-101
-97
-102
-89
-90
-90
-69
-59
-70
-68
-82
-76
-70
-81
-72
-57
-80
-75
-45
-53
-70
-63
-49
-35
-22
8
35
75
101
115
134
117
97
79
40
-9
-43
-69
-88
-93
-84
-89
-88
-91
-94
-97
-69
-71
-63
-69
-70
-78
-77
-88
-79
-78
-73
-70
-71
-65
-67
-68
-66
-67
-79
-93
-73
-56
-27
-43
-76
-56
-51
-22
-36
-36
-37
-60
-16
-2
-28
-37
-27
-22
-36
-12
-17
-4
20
-8
-26
-11
15
11
23
23
28
44
44
44
42
19
39
42
39
38
21
26
53
26
8
13
-5
-10
-2
-1
-4
6
-3
-7
-10
-10
-11
-13
-4
-11
-16
-21
-9
1
-11
-13
-11
-21
-28
-15
-15
-16
-15
-31
-21
-8
-13
-20
-32
-26
-29
-27
-36
-40
-53
-65
-27
-25
-23
-28
-32
-36
-26
-46
-74
-31
-13
-22
-54
-61
-50
-51
-42
-39
-38
-46
-41
-26
-25
-36
-50
-56
-62
-55
-60
-56
-50
-80
-96
-95
-82
-47
-50
-56
-71
-72
-70
-80
-90
-83
-78
-66
-67
-81
-74
-76
-82
-86
-90
-89
-97
-92
-57
-53
-96
-113
-120
-106
-116
-99
-92
-70
-92
-91
-83
-93
-109
-102
-121
-103
-78
-88
-90
-97
-101
-95
-98
-99
-109
-115
-90
-107
-108
-101
-100
-70
-104
-117
-109
-97
-103
-112
-95
-105
-109
-101
-91
-88
-87
-109
-115
-104
-117
-113
-127
-127
-106
-102
-99
-91
-88
-103
-117
-116
-145
-128
-114
-117
-119
-125
-125
-112
-110
-122
-83
-93
-100
-110
-117
-120
-102
-98
-109
-124
-113
-118
-126
-108
-108
-120
-136
-115
-108
-112
-117
-103
-107
-102
-83
-93
-95
-99
-98
-95
-89
-80
-72
-104
-109
-92
-95
-97
