-44
-55
-58
-49
-49
-51
-41
-36
-38
-30
-39
-59
-63
-53
-50
-47
-45
-39
-34
-42
-38
-46
-50
-45
-53
-50
-27
-35
-34
-36
-44
-51
-51
-50
-37
-45
-29
-13
-38
-61
-36
-36
-37
-43
-48
-37
-22
-32
-36
-32
-39
-31
-47
-45
-41
-29
-16
-14
-27
-41
-28
-34
-42
-41
-34
-26
-21
-29
-25
-38
-46
-49
-56
-54
-51
-44
-32
-30
-33
-44
-40
-49
-48
-54
-51
-40
-40
-42
-41
-41
-54
-55
-55
-52
-50
-24
-25
-28
-30
-40
-54
-53
-46
-68
-38
-30
-46
-45
-37
-44
-79
-101
-86
-78
-66
-50
-21
8
48
72
95
134
147
156
153
135
108
70
29
7
-2
-32
-49
-42
-35
-13
-14
-14
-30
-46
-38
-43
-42
-50
-47
-40
-34
-36
-32
-31
-49
-47
-42
-50
-46
-36
-32
-32
-38
-44
-37
-42
-52
-33
-31
-38
-32
-29
-43
-39
-46
-44
-44
-40
-40
-22
-25
-26
-25
-48
-33
-41
-38
-27
-31
-28
-32
-31
-37
-32
-39
-39
-33
-36
-33
-25
-24
-27
-36
-26
-36
-40
-37
-32
-28
-31
-24
-16
-30
-23
-27
-31
-29
-28
-31
-13
-3
-23
-20
-27
-31
-30
-28
-34
-16
-6
-1
-14
-10
-5
-3
-12
-24
5
-1
1
-5
-6
-8
-14
-10
-9
-9
-5
7
11
8
2
0
-24
-13
-6
0
0
0
23
20
3
0
-8
-18
-17
-14
-18
-5
-6
5
0
-11
-26
-32
-28
-29
-3
8
-7
-3
-4
-15
-29
-12
-14
-26
-22
-18
-25
-12
-6
-12
-23
-22
-32
-37
-20
-9
-8
-7
-17
-27
-23
-20
-14
-15
-23
-6
-14
-4
0
-11
-20
-29
-28
-22
-14
-7
-2
-11
-10
-18
-21
-15
-18
-20
-31
-14
-19
-12
-6
-10
-17
-31
-42
-14
-11
-3
-5
1
6
-8
-7
-17
-23
-21
0
-1
-5
-2
-7
-9
-4
-3
-13
2
3
8
4
-11
6
2
-4
6
-7
-7
0
23
21
-8
-4
-4
-1
-15
-19
-11
-6
1
0
1
-5
-14
-15
-26
-12
-7
0
14
5
-2
-2
-16
-13
-17
-8
-22
-7
-14
2
-4
-11
-23
-14
-5
-7
-17
1
7
3
-12
-15
-24
-33
-47
-54
-46
-26
-31
-10
10
35
78
116
131
169
179
197
195
179
152
117
81
46
24
3
1
11
16
17
1
-2
-10
-19
-14
-8
-1
2
-2
-4
-1
-2
-18
-23
-17
-11
-9
1
-3
0
-12
-14
-9
-17
-25
-20
-14
-1
0
-5
-4
2
-17
-9
-13
-30
-27
8
-8
3
11
2
-33
-20
-11
-14
-14
-6
-2
-6
-3
-1
-18
-18
-16
-5
-5
1
2
-3
-8
-19
-12
-21
-17
-9
14
2
-2
-9
0
-4
-6
-3
2
-5
2
11
7
10
0
-6
-13
-20
-3
5
18
10
-2
10
7
-8
-2
0
-2
7
22
12
10
16
10
7
4
1
2
15
3
17
18
24
9
6
8
12
7
17
10
15
26
6
5
-12
6
1
0
12
7
16
11
4
-7
-12
-17
-12
-4
-2
0
-1
1
-4
-7
3
-7
-25
-26
-1
-9
-11
-3
-12
-7
1
-16
-22
-22
-17
-1
-11
-8
-2
-8
-14
-26
-37
-20
-21
-20
-14
2
-3
-17
-18
-31
-24
-17
-12
-22
-13
-17
-25
-12
-21
-31
-23
-17
-17
-11
-11
-22
-17
-14
-28
-35
-33
-24
-19
-17
-15
-21
-20
-18
-30
-27
-33
-27
-10
-7
-17
-16
-13
-26
-21
-30
-30
-10
-13
17
-17
-21
-7
-14
-26
-30
-28
-17
-4
-6
-9
-10
-14
-21
-19
-23
-18
-26
-24
-31
-31
-19
-21
-29
-38
-42
-40
-34
-27
-28
-23
-32
-38
-32
-27
-35
-30
-36
-43
-30
-21
-26
-28
-41
-41
-45
-42
-39
-37
-35
-26
-33
-42
-46
-52
-59
-74
-81
-70
-50
-41
-39
-24
4
33
70
99
122
155
178
168
138
121
76
37
14
-5
-10
-9
-20
-26
-25
-25
-31
-29
-49
-15
-40
-21
-33
-37
-42
-36
-45
-57
-50
-51
-41
-35
-31
-30
-30
-44
-54
-56
-50
-45
-36
-35
-34
-33
-47
-44
-43
-54
-48
-54
-39
-40
-44
-36
-32
-44
-56
-61
-56
-43
-43
-38
-35
-31
-37
-48
-48
-51
-49
-44
-44
-32
-27
-41
-40
-40
-59
-56
-54
-40
-37
-40
-39
-37
-38
-46
-54
-42
-35
-26
-32
-43
-48
-37
-42
-39
-45
-41
-56
-60
-43
-41
-18
-25
-40
-33
-31
-43
-49
-43
-20
-19
-24
-24
-34
-38
-42
-43
-40
-35
-20
-18
-26
-17
-24
-29
-41
-39
-38
-40
-34
-12
-19
-34
-28
-43
-37
-37
-45
-36
-34
-33
-37
-35
-37
-39
-49
-56
-34
-47
-36
-31
-27
-36
-49
-62
-57
-54
-50
-53
-48
-38
-33
-52
-55
-47
-61
-71
-53
-42
-17
-40
-53
-48
-50
-50
-74
-50
-49
-67
-52
-28
-47
-51
-44
-41
-60
-55
-51
-47
-41
-50
-35
-39
-51
-61
-63
-62
-60
-47
-45
-37
-43
-44
-42
-60
-52
-63
-60
-57
-47
-39
-41
-37
-52
-62
-55
-59
-49
-54
-41
-37
-39
-29
-37
-52
-57
-52
-60
-53
-46
-35
-40
-52
-47
-40
-50
-60
-52
-34
-21
-30
-26
-30
-45
-44
-52
-49
-23
-28
-25
-15
-17
-35
-54
-52
-40
-47
-36
-50
-48
-47
-47
-39
-47
-36
-47
-52
-38
-37
-38
-36
-34
-37
-67
-44
-49
-56
-52
-48
-40
-34
-40
-32
-50
-53
-56
-56
-48
-45
-29
-40
-45
-36
-49
-82
-74
-79
-83
-70
-58
-34
-9
12
57
83
101
131
163
175
162
134
107
56
18
4
-18
-32
-39
-31
-20
-21
-20
-27
-54
-46
-39
-43
-39
-42
-38
-35
-28
-38
-52
-49
-51
-47
-29
-29
-33
-47
-34
-40
-43
-51
-55
-56
-44
-34
-30
-28
-35
-44
-44
-42
-38
-37
-36
-45
-31
-32
-36
-41
-42
-45
-44
-47
-38
-25
-31
-35
-40
-45
-43
-41
-37
-49
-36
-37
-19
-24
-31
-36
-50
-45
-34
-24
-28
-22
-28
-36
-34
-33
-50
-42
-34
-27
-31
-33
-31
-15
-30
-38
-30
-26
-25
-18
-21
-22
-20
-18
-19
-22
-27
-35
-25
-14
-16
-14
-14
-3
-9
-12
-11
-18
-16
-1
-3
-5
-5
-3
6
-15
-12
-10
-12
-13
-10
-8
-4
0
-6
1
-20
-32
-18
-7
-16
-7
-4
-11
-22
-28
-32
-23
-24
-24
-24
-14
-10
-15
-19
-25
-35
-31
-32
-32
-22
-21
0
-13
-14
-29
-36
-30
-18
-18
-17
-13
-18
-12
-15
-14
-29
-15
-25
-19
-19
-18
-15
-13
-25
-26
-34
-35
-24
-15
2
-19
-31
-22
-18
-29
-23
-29
-21
-24
-24
-6
-4
-11
-11
-28
-36
-30
-23
-22
-15
-14
-4
9
-16
-20
-22
-36
-20
-13
-9
-11
-10
-11
-6
-19
-28
-28
-25
-14
-5
-1
12
-8
-15
-15
-16
-17
-11
-8
-4
4
-5
5
-2
-9
-10
-7
-9
-6
0
1
13
16
10
-2
2
4
-3
-4
23
26
20
13
5
-31
-10
10
-7
-1
-1
3
10
4
-4
-10
-12
-13
-9
-6
-10
7
9
-8
-7
-5
-14
-4
-3
-7
5
5
8
-9
0
3
-13
-9
0
7
4
16
3
-21
-28
-37
-40
-40
-25
-2
27
60
84
109
138
155
183
218
211
192
173
146
96
63
34
-2
1
10
5
19
13
10
-3
-6
-1
-28
-7
-16
-9
-2
11
-1
-12
-3
-19
-23
-24
-15
0
8
-4
-4
-3
-8
-22
-21
-17
-18
-5
8
-3
-6
-6
-11
-8
-25
-30
-13
-12
-3
-6
0
-14
-16
-4
-16
-16
-7
-4
0
6
16
0
0
-14
-13
-19
-11
-9
4
2
4
-2
-8
-2
-14
-11
12
6
1
18
32
3
-19
-7
4
-6
-2
11
-1
14
13
10
-1
-2
-1
12
17
6
11
21
18
13
12
1
-7
17
12
19
19
29
16
21
20
0
7
2
17
33
26
27
24
27
15
12
21
22
26
24
32
27
23
17
12
3
12
16
3
20
25
23
30
27
20
11
9
9
15
19
24
24
27
10
9
18
8
20
17
37
37
34
20
13
16
13
0
20
31
42
25
18
23
21
9
22
11
10
22
28
28
31
28
25
21
12
18
19
26
42
54
48
25
29
24
15
18
29
24
30
36
29
31
35
33
27
27
29
30
29
40
38
41
39
36
37
33
28
38
43
51
55
40
34
20
23
28
30
36
53
56
52
46
45
32
22
32
41
45
49
49
44
40
45
33
32
30
37
56
50
53
54
48
51
39
38
34
46
56
64
56
59
63
54
50
41
52
57
75
76
63
64
64
66
75
64
63
65
74
75
67
72
61
62
53
51
64
65
65
61
72
68
62
74
59
53
67
74
72
67
83
85
66
60
68
64
59
55
72
69
88
83
84
60
56
67
70
70
71
66
47
41
43
29
38
68
96
126
169
200
233
259
266
285
285
266
242
210
178
152
131
103
93
97
80
79
94
95
93
95
92
82
91
81
69
79
81
81
78
88
109
105
86
74
71
67
73
87
92
116
81
67
96
99
93
88
91
100
94
91
95
98
97
95
78
83
91
97
95
106
116
106
101
92
82
99
95
86
112
122
103
104
105
92
90
102
99
111
108
108
104
104
107
97
90
96
101
107
111
114
125
125
99
91
97
109
107
112
118
125
114
123
120
117
117
102
122
132
123
126
127
128
116
120
121
125
128
139
138
139
133
130
140
122
112
126
140
132
138
145
147
150
138
121
121
126
132
160
155
135
119
132
133
129
119
118
120
134
140
142
153
135
127
121
116
107
120
129
133
128
120
115
107
121
121
120
122
130
130
126
123
131
108
108
105
120
126
124
123
146
124
117
111
105
117
117
109
116
128
124
127
125
116
113
115
116
122
121
122
120
125
117
103
110
109
124
128
131
123
124
129
122
114
112
111
108
113
124
118
126
135
121
131
112
110
113
119
102
113
138
124
108
112
117
101
117
119
123
132
131
128
121
114
111
106
117
120
117
117
119
135
100
99
110
121
113
123
122
114
110
110
113
117
107
110
116
115
118
118
121
132
108
107
108
111
105
115
125
123
115
120
116
109
117
115
129
120
131
132
126
125
122
111
105
103
117
130
124
110
108
121
115
87
86
103
118
124
114
116
101
103
105
101
82
99
122
132
116
100
111
114
98
89
82
96
95
113
135
117
105
118
114
103
97
98
96
94
74
71
69
74
81
95
134
168
209
239
279
306
314
323
313
284
254
226
187
172
136
132
125
111
115
115
114
115
111
113
124
119
116
102
93
104
108
112
128
124
115
106
103
112
109
100
102
105
114
134
130
130
123
109
92
95
96
102
121
115
111
114
116
116
106
93
96
103
120
122
121
124
113
103
102
107
97
105
116
121
119
115
113
102
112
113
107
118
111
109
116
119
116
115
104
90
102
114
120
123
126
113
111
106
103
105
114
112
128
124
130
125
108
126
124
109
116
115
126
129
126
124
131
120
118
114
123
141
141
136
135
137
140
141
115
111
120
123
136
148
142
124
131
121
122
125
120
136
128
139
132
118
119
110
100
105
125
135
135
126
116
109
104
103
104
100
101
110
116
127
116
96
104
95
89
96
94
104
108
116
116
107
103
95
93
107
112
93
109
115
119
102
109
103
96
99
94
85
100
104
127
111
90
86
101
104
96
111
113
108
103
94
100
88
84
95
99
110
107
104
102
104
101
87
85
92
101
100
109
105
106
98
110
95
90
84
96
104
102
113
108
94
92
89
86
93
100
116
114
109
99
103
101
104
98
98
97
100
108
106
93
112
91
89
95
87
104
115
113
115
101
89
91
88
85
86
107
110
111
99
97
105
95
93
93
99
104
108
96
106
94
106
110
115
102
103
99
91
102
118
117
115
106
108
110
103
89
80
89
89
100
104
104
105
97
96
80
80
89
99
99
104
105
100
99
103
80
79
92
101
94
101
98
100
106
94
93
88
99
98
87
84
86
94
92
56
61
57
68
79
112
151
192
214
244
255
271
300
299
277
262
226
188
154
143
113
93
92
93
103
94
100
105
112
101
94
79
85
88
89
94
93
100
101
89
85
79
89
87
101
99
97
103
108
104
87
78
69
71
87
97
99
95
96
99
105
99
76
71
91
93
98
99
87
84
87
84
82
93
94
105
106
91
96
98
93
77
82
78
95
100
98
99
97
102
100
72
73
85
90
99
100
108
90
98
86
85
77
89
94
105
112
114
93
101
91
93
89
96
89
102
120
114
104
97
110
101
97
95
94
114
112
131
114
114
105
107
94
80
101
124
123
121
127
121
122
98
99
108
111
113
114
116
113
107
94
88
101
97
106
103
111
120
102
81
76
92
102
99
92
93
95
93
100
96
82
86
80
87
84
91
91
92
95
86
86
73
74
91
92
95
98
95
89
81
83
87
80
84
90
95
103
100
87
76
70
74
82
88
81
96
85
87
79
88
75
62
72
86
102
102
95
95
89
76
73
88
90
90
86
89
92
90
85
72
71
80
79
85
104
108
99
89
83
79
71
70
85
90
85
88
93
88
95
85
75
91
81
76
93
90
97
99
91
80
79
86
86
91
91
78
90
94
91
65
77
79
81
80
91
91
92
83
82
76
75
83
96
81
88
100
103
87
95
91
86
86
95
93
89
96
120
103
99
97
81
85
86
98
76
101
112
113
93
85
83
93
95
95
84
94
103
86
78
81
76
77
86
82
89
95
90
84
90
77
72
81
83
89
86
89
93
95
84
82
76
79
85
93
85
84
75
74
74
66
51
41
43
54
68
83
116
132
162
207
233
265
287
319
331
298
264
232
184
141
125
108
100
103
110
106
111
104
90
68
70
86
86
98
94
100
89
85
80
69
87
85
89
90
87
77
114
93
71
64
71
79
85
86
92
84
82
84
73
76
82
83
84
96
90
92
80
82
82
74
84
85
80
94
94
100
93
91
77
71
67
91
90
101
92
85
96
99
76
67
76
89
86
94
96
102
99
102
88
76
83
93
98
104
99
103
94
96
95
87
90
95
100
98
109
110
115
96
95
90
102
102
103
110
104
114
121
108
104
101
99
105
122
123
110
120
108
102
113
105
100
108
120
121
130
126
110
105
101
100
94
103
118
123
116
123
119
92
82
85
87
98
105
100
93
98
106
111
90
67
80
95
102
100
102
95
96
88
73
88
96
82
100
89
100
94
89
86
85
78
84
108
90
93
93
93
86
84
85
83
83
84
95
80
100
95
96
77
71
73
80
85
97
94
92
84
89
93
87
89
89
93
89
99
94
89
96
92
81
80
77
94
97
105
105
92
84
85
79
86
87
89
98
98
88
88
91
85
88
79
84
92
100
113
107
87
90
84
69
87
80
92
97
108
122
95
82
72
76
84
95
89
89
95
97
85
87
90
87
77
77
104
110
100
91
86
88
85
88
94
94
102
110
116
115
109
91
90
91
94
101
103
101
112
115
99
86
87
90
90
93
87
92
97
95
102
93
89
81
80
89
102
104
89
96
91
73
76
78
87
94
96
93
93
88
95
77
67
73
80
89
96
97
105
85
74
53
30
30
33
55
83
99
125
156
206
227
267
291
311
336
323
302
260
215
181
153
121
94
91
107
116
103
104
92
96
96
82
86
82
83
78
103
106
92
84
77
80
83
89
85
87
80
94
109
114
88
50
66
84
92
90
84
84
93
96
77
75
79
78
96
92
95
87
91
91
79
87
92
90
100
94
85
87
86
79
79
86
89
87
85
90
94
97
97
90
92
92
74
83
92
106
105
97
100
96
82
89
81
94
99
101
97
96
98
100
92
101
98
99
101
107
104
110
103
101
89
98
95
102
105
134
137
116
99
107
100
106
125
117
121
116
120
126
123
112
113
113
112
117
123
122
122
121
128
102
107
111
102
102
119
127
125
114
91
107
87
91
100
92
110
112
106
97
90
91
86
95
107
92
87
103
107
103
98
98
80
82
87
94
104
109
105
96
93
85
83
82
94
94
93
94
97
97
101
94
83
86
77
92
94
92
99
105
92
85
84
89
88
78
113
114
94
98
84
79
87
91
92
89
104
100
95
94
93
90
91
86
81
101
98
107
107
95
89
81
75
86
106
104
105
87
90
95
100
97
83
81
85
90
95
102
104
91
93
84
83
86
85
90
103
106
101
96
97
89
77
80
88
98
93
95
99
113
99
84
87
96
94
89
97
93
86
89
110
110
95
83
97
120
120
128
123
107
98
95
97
98
103
113
115
108
97
97
94
78
75
91
92
90
99
102
97
90
81
82
81
80
87
98
109
102
100
86
80
84
76
74
87
90
95
102
105
105
83
71
74
79
87
101
91
80
63
47
39
38
43
73
99
132
176
227
269
287
282
306
322
293
282
267
224
181
150
109
109
92
86
94
99
117
116
109
92
86
93
75
80
88
95
95
94
93
85
79
77
71
84
92
84
93
94
97
88
76
80
83
75
75
84
87
93
97
92
82
87
77
83
83
84
103
99
93
81
89
78
81
88
98
83
87
92
100
91
85
80
82
86
82
81
101
116
108
88
91
88
97
91
88
97
93
79
92
104
107
93
84
79
94
107
113
98
97
112
96
74
96
111
103
106
118
131
113
87
93
100
113
116
112
108
124
121
117
118
94
98
106
116
116
115
124
121
121
114
114
109
106
116
117
119
133
133
127
119
108
103
110
108
102
102
103
107
113
116
93
92
96
96
102
104
118
97
103
106
108
93
75
79
102
104
113
108
102
97
91
80
92
93
101
111
103
114
94
86
91
83
93
100
97
98
107
104
103
94
84
81
87
85
98
98
104
97
97
96
94
88
94
93
84
89
91
105
104
87
87
97
88
88
98
112
104
112
102
96
87
78
91
109
106
106
100
105
102
89
79
66
87
97
108
109
113
100
96
93
95
89
99
88
92
110
107
94
91
101
94
93
88
103
97
99
102
97
104
97
96
84
88
101
105
114
111
91
99
92
88
96
84
77
113
112
110
103
105
105
107
96
99
105
106
113
109
107
103
92
99
107
105
105
112
111
108
100
91
80
87
87
93
92
90
97
98
104
94
76
83
85
92
98
104
104
110
99
81
88
102
91
84
90
110
104
90
91
91
74
74
90
90
84
77
77
66
53
54
61
76
111
139
185
231
264
288
306
319
319
300
265
233
196
162
145
125
111
102
95
91
96
88
102
98
102
102
100
90
80
72
76
86
96
93
99
91
92
87
87
81
73
79
90
112
105
86
78
82
73
68
77
77
86
77
89
99
81
69
91
94
86
85
93
89
86
99
86
87
86
72
84
85
85
92
94
93
94
79
81
87
87
86
94
101
88
92
92
79
81
89
85
85
91
89
100
89
96
86
77
85
89
94
100
102
105
92
83
87
93
101
97
94
106
109
120
116
104
89
80
89
92
95
104
118
123
123
110
99
99
103
111
113
114
115
124
117
110
104
100
99
109
108
111
114
112
104
91
92
91
84
108
106
106
98
91
94
93
91
78
75
85
113
99
95
94
81
74
79
83
79
73
92
92
93
86
82
85
81
84
84
69
75
83
92
89
87
69
68
73
84
78
88
87
84
86
79
82
76
62
69
81
94
93
97
85
79
78
71
67
72
81
83
74
92
101
87
74
78
67
90
86
84
88
79
83
84
78
58
73
68
81
91
87
82
84
80
75
71
69
83
85
85
91
90
82
68
67
85
80
73
68
80
87
89
82
76
85
79
72
74
70
91
81
70
59
73
78
82
71
73
73
86
80
78
77
81
78
81
80
75
84
80
103
106
86
79
74
75
83
85
85
84
95
98
83
79
72
65
70
76
73
76
85
72
69
67
65
67
61
67
81
81
86
68
60
65
53
55
52
65
68
72
75
82
71
67
57
47
50
52
66
76
79
63
55
45
40
34
23
21
44
69
108
133
177
211
234
261
274
293
312
284
241
197
152
124
87
76
76
68
77
81
89
76
65
67
50
57
71
68
66
67
74
80
72
38
35
65
55
50
77
69
57
57
56
59
44
48
50
56
71
69
62
65
65
68
46
56
53
46
66
71
66
65
54
54
49
69
60
62
60
61
59
59
60
55
44
58
77
74
65
65
54
62
62
48
52
50
60
70
67
60
64
67
56
54
55
58
68
59
65
59
64
71
78
60
68
62
73
79
70
84
75
61
69
56
59
59
68
71
72
75
88
76
77
88
86
70
57
69
87
94
87
78
86
71
60
68
75
75
72
75
73
74
68
67
64
58
70
64
74
89
67
66
70
42
54
49
54
67
63
72
64
59
47
24
47
33
45
50
43
54
62
51
25
28
43
47
46
59
73
66
64
51
34
32
22
38
37
60
46
61
50
38
45
34
36
44
43
62
46
41
40
36
34
38
41
36
33
53
52
35
47
51
37
32
25
43
42
47
48
48
51
40
32
38
34
28
36
50
47
53
45
50
39
33
34
34
41
56
52
46
41
37
31
25
31
44
46
51
60
47
37
24
22
25
41
40
58
54
35
24
48
39
33
37
27
39
27
34
53
49
36
31
31
47
38
39
42
57
53
44
53
45
47
49
47
41
56
55
46
51
39
41
25
33
33
48
44
35
40
36
36
33
21
23
26
21
35
33
32
39
39
26
24
29
1
13
25
30
30
36
24
28
3
8
14
13
10
31
28
21
15
4
-16
-10
-31
-21
-23
5
37
59
78
121
164
194
213
258
282
270
233
176
141
98
81
40
33
32
42
43
45
33
23
8
7
7
13
34
39
16
20
5
5
-4
7
0
-2
-3
6
15
6
8
5
3
-8
-5
-4
1
7
10
8
13
5
-2
-11
3
-2
-1
9
8
18
0
10
7
-3
-24
-9
7
5
9
13
14
7
-10
-18
-4
-14
9
22
12
4
-6
3
9
-16
-10
12
22
10
9
11
1
9
-2
-9
-11
-2
16
14
4
0
6
18
6
-2
9
9
12
11
16
22
18
9
9
8
6
15
12
17
22
30
24
13
1
5
6
21
32
33
33
30
28
22
19
2
3
7
23
26
26
27
17
15
10
3
4
12
19
15
26
18
5
6
-2
-5
-4
-2
19
12
19
14
7
-9
-3
-2
-10
0
22
3
-5
4
7
1
-11
-19
-23
-7
-1
0
-4
-5
9
-2
-12
-5
-14
6
0
-1
-13
-12
-11
-6
-26
-5
-1
2
14
4
-8
-8
-10
-15
-25
-7
5
0
-4
-4
-3
2
8
-8
-21
-8
-9
-12
4
4
10
-2
-9
-17
-29
-12
-8
2
9
6
-8
-1
-11
-24
1
-8
-3
0
-1
-11
-3
13
0
-21
-14
-5
-11
-2
1
-4
1
-2
0
-5
-13
-19
-13
-8
-7
11
4
-19
-11
-13
-15
-13
-2
-8
6
9
6
8
-7
6
-13
-4
-8
0
17
18
1
-3
3
-11
-15
-20
1
-3
4
-3
-16
-10
-28
-35
-23
-19
-17
-23
-5
14
-11
-25
-26
-38
-33
-6
-27
-14
-14
-15
-16
-15
-28
-33
-16
-20
-24
-18
-12
-8
-19
-22
-16
-31
-42
-44
-54
-65
-71
-69
-51
-36
-21
11
48
93
132
174
208
227
228
218
186
148
108
69
45
28
-4
-10
-7
0
-17
-12
-24
-25
-29
-12
-19
-15
-16
-25
-30
-32
-42
-32
-14
-13
-20
-24
-35
-32
-32
-41
-31
-24
-25
-32
-27
-22
-21
-37
-37
-37
-35
-21
-15
-16
-16
-49
-40
-31
-40
-30
-38
-37
-40
-34
-21
-23
-17
-22
-39
-28
-46
-38
-22
-24
-20
-18
-30
-33
-33
-42
-32
-20
-32
-19
-16
-14
-15
-27
-34
-35
-29
-36
-15
-10
-19
-40
-35
-20
-28
-20
-23
-28
-25
-19
-17
-7
-16
-11
-30
-40
-21
-16
-8
3
0
-7
4
0
-27
-32
-12
-11
2
2
4
-1
-4
2
-5
-2
-6
-6
-14
18
7
1
-7
-20
-19
-22
-23
-12
-6
-9
-3
-17
-19
-15
-34
-40
-24
-22
-7
-15
-14
-8
-24
-37
-42
-34
-27
-30
-21
-14
-7
-15
-30
-44
-42
-45
-45
-33
-22
-13
-14
-31
-29
-59
-54
-23
-17
-15
-11
-15
-21
-32
-43
-34
-31
-33
-36
-17
-17
-31
-30
-33
-36
-33
-15
-39
-32
-27
-24
-14
-22
-33
-28
-16
-28
-42
-28
-18
-23
-29
-20
-21
-28
-32
-47
-45
-42
-21
-20
-14
-20
-20
-28
-34
-34
-36
-24
-24
-21
-28
-28
-32
-26
-22
-29
-37
-32
-11
-14
-24
-27
-27
-26
-36
-25
-20
-23
-20
-9
-15
-19
-26
-22
-23
-33
-9
1
2
-8
-4
-7
-6
-8
-15
-16
-16
-4
-1
-9
-12
-15
-31
-18
-28
-47
-51
-13
-23
-17
-23
-23
-29
-35
-38
-38
-40
-36
-19
-26
-22
-23
-28
-36
-38
-35
-23
-34
-25
-27
-25
-32
-26
-36
-41
-29
-14
-36
-32
-24
-19
-37
-65
-88
-94
-89
-77
-46
-9
28
73
101
143
153
180
218
217
210
199
142
98
73
36
-5
-9
-18
-18
-5
-7
-13
-18
-15
-24
-31
-35
-28
-36
-26
-26
-19
-23
-26
-34
-37
-42
-39
-28
-27
-26
-31
-37
-27
-36
-47
-37
-41
-43
-30
-24
-17
-24
-31
-42
-42
-42
-31
-18
-18
-23
-22
-20
-33
-37
-32
-35
-42
-30
-26
-14
-23
-20
-19
-26
-28
-33
-44
-38
-25
-9
-14
-9
-28
-39
-20
-30
-42
-24
-11
-19
-25
-20
-22
-25
-35
-41
-31
-20
-7
-9
-7
-15
-14
-21
-28
-29
-36
-15
-1
-1
-10
-5
-9
-11
-15
-17
-21
-4
-1
9
10
-11
-5
-9
-12
-8
-23
-12
2
7
2
2
1
-20
-20
-7
-2
4
0
-11
-10
1
-12
-20
-20
-18
-18
-17
-12
3
-11
-17
-21
-20
-16
-22
-19
-1
-18
-12
0
-21
-17
-37
-30
-24
-21
-16
-23
-22
-17
-19
-29
-24
-40
-38
-32
-27
-9
-20
-25
-18
-25
-31
-26
-22
-18
-20
-21
-20
-16
-23
-20
-31
-43
-33
-20
-18
-25
-23
-21
-21
-29
-37
-35
-39
-28
-24
-14
-20
-23
-30
-28
-34
-34
-31
-32
-16
-10
-35
-34
-26
-35
-37
-40
-34
-35
-31
-33
-4
-14
-25
-41
-31
-31
-28
-39
-20
-12
-17
-20
-33
-45
-50
-25
-22
-22
-29
-30
-16
-13
-23
-28
-22
-33
-30
-18
-4
-10
-13
-17
-16
-33
-40
-22
-19
-28
-28
-30
-26
-22
-31
-36
-29
-39
-38
-38
-28
-26
-26
-25
-28
-37
-35
-33
-44
-36
-24
-14
-20
-26
-18
-29
-32
-51
-40
-36
-21
-39
-24
-22
-41
-36
-32
-43
-45
-53
-38
-53
-69
-74
-59
-47
-34
0
33
65
98
127
161
178
168
145
118
88
46
28
14
-15
-28
-23
-29
-27
-27
-29
-27
-27
-22
-26
-13
-30
-32
-30
-41
-46
-34
-22
-27
-27
-25
-31
-35
-39
-46
-47
-28
-34
-33
-21
-30
-31
-46
-39
-38
-43
-30
-41
-30
-36
-40
-31
-55
-45
-45
-61
-48
-16
-26
-16
-29
-30
-40
-51
-50
-35
-27
-37
-22
-29
-46
-39
-39
-40
-49
-49
-44
-35
-35
-36
-29
-30
-43
-42
-50
-33
-38
-38
-33
-31
-30
-35
-43
-51
-45
-36
-35
-34
-24
-21
-28
-32
-46
-44
-36
-34
-21
-21
-20
-27
-17
-23
-29
-33
-27
-27
-17
-17
-10
-15
-7
-20
-31
-34
-35
-22
-18
-15
-9
-6
-24
-8
-19
-21
-22
-28
-22
-31
-12
-14
-27
-33
-49
-47
-52
-32
-21
-31
-29
-33
-27
-35
-45
-35
-44
-39
-32
-31
-31
-41
-37
-37
-25
-31
-43
-38
-41
-42
-30
-39
-44
-32
-44
-46
-45
-45
-36
-30
-39
-26
-37
-41
-42
-47
-39
-38
-44
-39
-30
-31
-21
-24
-57
-61
-45
-26
-38
-35
-36
-34
-38
-27
-31
-43
-55
-48
-43
-32
-32
-4
-30
-25
-26
-47
-43
-42
-30
-31
-31
-22
-33
-42
-46
-41
-42
-36
-29
-26
-26
-24
-24
-30
-37
-30
-36
-33
-29
-14
-23
-29
-28
-31
-27
-29
-27
-23
-15
-9
-5
-16
-14
-31
-28
-23
-19
-19
-19
-8
-11
-20
-20
-33
-44
-32
-30
-18
-29
-33
-39
-37
-25
-32
-31
-33
-37
-39
-31
-19
-17
-25
-36
-28
-27
-46
-42
-45
-28
-31
-17
-18
-26
-37
-31
-36
-35
-13
-8
-21
-44
-49
-57
-68
-67
-84
-62
-33
-17
17
49
74
95
121
139
158
173
165
154
112
78
35
12
-19
-20
-33
-28
-15
-5
-10
-19
-15
-19
-32
-32
-40
-30
-17
-11
-19
-16
-24
-36
-41
-33
-35
-34
-20
-22
-17
-18
-20
-23
-34
-40
-22
-18
-4
-11
-34
-27
-23
-15
-38
-48
-35
-16
-17
-29
-11
-10
-29
-29
-26
-33
-35
-23
-26
-25
-13
7
5
-20
-28
-32
-23
-18
-17
-12
0
-2
-9
-22
-31
-28
-28
-15
-15
-2
-4
-20
-30
-7
-12
-14
-10
-9
-9
-4
-9
-9
-14
-13
-14
-15
-8
-4
11
7
7
-4
6
-1
-16
-3
-3
-2
3
9
22
16
14
-11
3
4
-4
7
12
18
26
8
1
4
10
6
3
1
10
10
6
17
15
3
-8
-13
5
14
20
6
-11
1
2
-2
-5
-1
-12
-5
7
19
11
6
-7
-17
-19
-6
-9
-10
4
10
6
-11
-13
-2
-10
-3
-7
0
-10
12
13
-12
-4
0
-13
-14
-4
-6
-3
-1
9
9
-5
-6
-27
-12
-6
3
7
-4
1
3
0
-15
-6
-7
5
19
0
4
-1
-3
4
-6
-17
-11
-6
3
0
13
10
15
0
-5
12
-8
-4
16
25
13
18
10
-3
3
0
8
1
15
20
18
8
13
8
12
7
-3
-2
5
19
30
22
13
10
5
8
17
22
16
29
37
25
21
27
1
3
9
24
22
28
34
25
22
1
-15
0
4
8
25
22
10
14
8
11
-6
-1
11
19
17
12
13
15
4
5
7
2
8
5
20
24
16
-6
12
18
22
19
-6
6
22
3
-7
-6
-12
-25
-31
-6
28
56
104
144
181
192
203
220
213
180
162
121
80
65
54
37
19
17
7
20
31
39
31
28
29
13
6
0
2
11
20
22
26
23
20
17
12
3
4
3
10
30
22
31
34
13
7
16
15
17
5
31
34
22
29
45
23
-2
5
22
20
12
37
36
27
19
7
18
3
20
30
29
31
35
20
15
8
10
20
26
29
26
43
41
37
32
37
19
8
11
24
37
35
36
43
37
20
16
14
24
21
28
50
51
47
41
25
26
32
45
48
58
49
57
45
45
48
41
27
45
53
62
67
55
58
56
53
42
52
54
46
70
57
66
60
42
48
52
49
56
63
59
43
62
59
50
43
45
43
44
45
56
69
42
52
42
33
29
30
41
47
59
41
43
44
44
33
23
30
36
42
56
54
46
43
45
39
29
29
34
46
58
49
56
47
34
27
26
39
33
39
49
39
42
46
33
28
32
35
33
40
52
56
48
58
39
37
21
22
43
58
59
53
40
39
38
40
52
39
31
46
52
62
54
44
38
45
52
32
45
51
50
56
51
49
41
38
43
48
44
47
56
57
56
52
46
48
32
41
53
64
67
62
51
55
47
41
41
50
41
53
53
64
81
65
47
51
49
43
56
68
60
68
64
64
77
63
60
52
41
53
67
59
59
47
38
50
53
45
38
65
54
48
50
60
50
44
44
39
44
63
56
63
56
47
34
46
50
53
45
53
62
67
47
46
44
39
31
41
37
36
13
33
24
30
49
76
114
151
186
218
236
266
271
247
215
181
148
110
106
88
82
72
55
48
43
58
59
55
64
78
77
64
51
51
50
36
44
53
61
73
56
55
59
51
57
42
44
46
52
54
54
58
63
55
49
31
41
50
65
81
68
59
57
50
47
58
78
55
48
64
59
60
45
50
44
54
57
67
74
64
63
58
57
59
50
35
50
57
68
69
55
63
77
65
60
56
61
46
68
75
67
63
58
56
59
64
65
64
68
95
80
73
64
67
51
62
72
87
85
86
78
73
84
74
64
67
79
74
80
83
90
96
96
72
95
86
70
80
95
94
109
99
90
72
74
84
89
80
80
93
93
87
64
58
74
68
75
75
76
91
80
73
64
58
61
62
66
68
65
71
79
73
67
68
64
73
61
66
68
75
78
65
64
58
60
58
66
75
81
79
83
75
53
62
59
61
62
70
75
72
76
76
55
62
65
57
53
73
82
83
76
67
60
54
65
78
65
92
67
71
67
62
73
65
58
71
75
84
84
88
79
67
61
61
66
65
75
86
83
65
67
68
70
70
57
51
60
75
86
84
82
68
66
69
72
72
73
68
72
82
74
72
62
61
68
69
77
74
83
94
82
82
71
64
69
72
69
81
90
90
91
84
75
79
67
81
77
81
108
94
79
74
66
76
78
92
95
92
90
83
84
68
60
45
60
64
76
86
87
84
71
69
69
60
60
71
84
91
77
74
76
67
67
63
66
65
77
82
77
78
78
75
65
62
65
70
70
69
62
45
35
32
33
52
79
123
163
189
212
239
268
282
285
255
240
212
176
154
127
104
74
83
83
60
72
90
89
94
85
80
82
77
70
73
78
76
86
76
69
90
77
59
75
67
73
82
89
87
84
85
78
61
61
61
79
89
90
82
84
83
80
69
70
80
86
85
94
93
93
88
75
73
65
72
81
86
104
93
92
84
82
77
80
82
80
91
102
100
91
89
78
69
74
81
74
83
89
89
98
102
104
86
83
79
92
105
102
100
99
92
104
92
92
95
99
104
109
111
108
100
97
99
93
99
108
121
116
114
119
109
107
110
100
95
112
133
136
119
128
129
114
111
105
117
112
120
128
125
137
121
96
90
96
102
106
107
118
126
129
109
95
101
110
116
106
114
109
110
117
102
100
90
108
106
105
109
106
114
124
127
115
97
97
110
111
110
129
128
109
118
126
108
120
117
113
119
126
130
118
120
117
123
110
110
102
111
123
127
120
112
104
105
105
115
128
134
123
124
118
123
110
110
110
110
120
131
131
128
128
116
106
104
125
119
109
121
136
134
122
128
113
110
109
110
113
118
135
127
120
125
113
111
124
120
107
135
144
135
114
118
109
130
118
117
133
125
139
126
135
124
130
124
108
113
126
125
130
125
125
119
128
113
121
115
119
143
145
123
112
106
108
110
112
127
130
137
132
133
116
128
120
113
117
114
127
136
133
138
130
123
119
120
118
127
131
135
135
139
120
123
116
112
123
130
138
128
140
123
124
112
128
110
112
110
114
123
128
130
117
125
111
112
113
114
122
123
123
124
121
110
108
112
110
113
124
125
124
120
120
121
113
113
110
100
110
110
100
93
82
69
87
94
132
182
210
234
268
286
310
325
329
299
280
241
219
198
159
131
125
123
127
122
112
126
126
126
121
116
113
111
112
107
121
128
133
141
133
132
127
125
125
107
124
144
143
149
148
145
140
122
126
134
131
132
141
152
154
145
141
129
130
136
139
146
155
154
147
143
143
145
138
131
137
150
166
152
158
152
146
147
145
143
151
159
162
165
172
160
146
144
142
154
156
164
164
164
176
160
150
159
139
154
170
175
160
169
167
170
154
171
163
160
169
170
170
177
173
170
167
168
172
168
170
183
183
190
194
188
187
174
172
176
177
182
181
193
193
188
182
180
172
176
181
183
182
192
182
174
176
170
169
176
174
175
175
170
187
172
161
157
157
158
159
165
175
175
165
165
157
155
156
162
171
182
161
148
155
165
162
151
152
155
161
163
178
169
160
157
163
153
147
157
169
166
161
181
164
152
158
154
143
142
152
172
179
180
166
147
159
155
161
146
155
154
162
167
173
148
136
144
152
160
175
179
168
170
155
151
149
144
155
157
170
168
164
168
167
165
145
143
155
150
169
168
167
159
164
148
151
150
157
164
171
157
162
166
162
146
151
159
157
155
165
165
157
163
159
161
159
143
159
162
170
167
173
153
161
147
149
157
158
158
146
166
179
169
149
148
140
155
151
152
160
161
169
182
164
154
143
143
149
150
160
158
153
153
155
155
154
133
150
154
164
164
153
164
165
156
150
157
167
163
161
167
173
170
166
149
146
157
168
175
182
178
162
147
140
143
145
149
145
151
152
159
163
158
145
136
136
161
150
155
153
155
149
150
154
139
151
145
143
140
154
155
141
145
151
140
134
142
151
156
158
161
148
134
118
118
113
109
108
130
158
178
198
226
261
280
311
339
354
363
346
325
279
237
196
176
157
150
154
156
153
162
161
154
142
140
139
135
142
147
157
163
140
127
136
122
122
124
141
141
147
142
132
135
130
123
121
141
131
139
147
163
147
127
114
117
154
151
143
136
134
140
146
147
129
130
135
133
133
135
156
149
136
143
133
130
129
144
128
140
135
138
130
141
133
129
136
129
130
134
142
146
140
138
129
133
135
141
139
136
146
147
152
143
126
128
135
131
133
149
158
154
149
139
130
139
152
157
147
150
163
163
150
147
148
149
156
137
160
167
170
168
173
150
153
164
158
148
160
160
164
154
153
148
140
147
146
147
143
152
151
153
147
139
135
139
131
140
149
147
136
137
133
120
119
138
134
140
135
138
138
127
123
118
126
126
128
125
125
130
147
138
132
124
122
123
132
124
133
139
131
138
118
122
125
113
121
116
136
135
129
142
134
119
102
100
127
129
135
137
142
127
124
103
100
118
115
115
130
139
135
122
123
119
115
115
119
130
138
141
130
120
123
118
110
113
124
119
134
132
132
126
148
126
103
106
118
116
124
136
132
120
125
116
117
114
114
115
134
135
137
136
133
121
122
105
119
126
118
120
129
113
123
109
107
130
120
120
128
129
129
115
122
119
120
112
109
122
129
125
128
125
117
126
121
115
115
128
120
123
128
120
117
107
93
105
108
118
117
123
125
115
114
111
116
115
110
137
122
120
124
118
117
111
101
113
117
137
148
131
124
129
129
116
112
121
130
140
136
128
124
130
130
120
107
104
109
109
113
115
112
106
110
110
112
111
99
115
104
109
117
113
116
103
103
106
114
111
107
127
123
116
106
96
104
114
111
115
118
121
109
101
95
104
93
86
88
91
85
85
97
125
149
178
215
251
277
310
330
328
299
291
233
190
155
139
134
137
133
131
119
115
106
95
106
110
119
117
115
114
105
98
87
99
106
112
105
117
107
95
110
111
102
75
95
105
104
116
122
97
92
111
102
94
96
99
102
115
123
105
107
101
100
97
93
88
103
102
115
104
104
100
97
95
101
97
105
105
122
108
98
91
103
93
94
98
109
113
111
108
106
100
88
84
108
107
103
125
110
102
103
96
96
98
104
105
107
111
124
114
109
98
87
107
123
131
123
125
126
119
108
100
122
117
117
127
133
128
127
119
118
117
122
122
120
122
135
132
132
122
122
116
110
104
116
130
128
128
120
115
114
103
94
103
110
119
105
108
112
111
111
103
96
104
100
94
105
110
109
105
101
94
87
91
93
96
104
108
103
103
99
94
83
81
88
109
122
117
104
86
90
85
88
89
94
98
103
92
107
107
94
88
91
88
94
100
107
94
99
100
85
83
87
102
110
101
104
94
97
92
85
89
85
85
100
108
114
105
100
93
70
83
86
85
93
103
100
114
97
94
93
88
76
85
93
108
103
101
99
94
85
77
97
90
95
99
105
113
96
91
81
89
88
94
89
87
105
114
92
85
85
102
97
99
84
87
104
109
82
91
93
91
89
93
99
100
103
96
82
97
97
98
93
87
73
84
95
87
109
98
85
88
80
86
80
91
103
102
96
91
83
89
92
82
92
101
103
99
92
87
80
79
86
103
110
98
98
110
94
101
91
83
100
108
108
108
101
105
100
109
88
87
79
91
87
104
111
91
80
84
83
81
89
79
80
96
106
109
105
80
71
78
81
79
84
89
108
106
87
82
74
81
85
85
86
85
86
92
96
86
82
63
69
68
60
60
58
70
72
81
115
147
178
220
247
288
310
307
296
258
226
181
154
136
121
112
108
100
96
84
90
100
90
88
103
84
80
87
89
82
77
68
77
102
92
89
96
91
97
76
85
89
64
64
96
105
96
97
85
77
70
69
69
79
97
99
88
92
98
74
62
73
89
91
89
84
77
81
85
74
78
70
79
87
89
92
96
96
84
75
73
89
89
80
85
93
93
91
84
89
84
73
79
88
99
101
97
92
82
71
72
85
96
89
95
99
121
103
92
93
80
86
99
108
107
100
121
103
88
101
101
98
99
106
107
116
105
107
112
99
101
97
106
117
132
124
109
112
106
104
96
93
107
112
110
106
106
105
93
87
89
97
102
101
96
97
97
97
81
76
82
88
89
95
103
100
100
99
75
68
71
74
83
90
100
93
87
83
83
73
98
78
85
89
87
90
90
83
87
74
70
69
79
85
93
93
86
84
78
71
75
86
76
93
104
90
84
81
69
76
77
77
95
93
93
82
83
79
74
68
78
83
81
89
94
94
84
73
69
60
67
79
87
89
100
99
87
77
73
77
74
76
90
97
96
88
87
74
76
66
76
84
78
94
98
86
81
86
77
65
80
71
85
103
102
77
83
86
71
70
69
74
77
95
98
91
81
75
72
71
72
81
77
90
91
88
88
72
75
70
63
71
87
92
86
85
87
75
72
70
69
72
88
94
88
89
90
72
73
84
84
73
75
96
90
89
80
73
74
82
82
83
85
102
81
91
89
85
75
71
83
102
98
83
74
82
81
64
53
57
73
77
78
84
72
83
85
81
67
68
74
73
75
78
82
85
80
58
58
63
68
68
74
81
77
83
74
59
56
53
60
60
70
67
53
41
41
45
58
77
105
149
189
222
247
264
272
279
256
233
207
172
142
116
98
89
86
88
77
73
62
65
89
88
87
66
66
58
54
50
62
66
74
75
81
68
67
65
55
66
69
55
74
79
74
66
54
56
51
57
67
71
73
75
67
65
62
57
65
60
66
64
71
71
71
68
59
44
61
55
70
75
84
84
80
63
58
59
57
50
75
77
67
65
61
62
60
65
59
53
71
73
81
73
73
76
67
57
54
64
68
77
81
83
75
65
74
72
71
74
80
82
78
88
90
86
72
68
71
71
86
76
79
95
104
112
88
81
76
81
84
85
90
103
101
98
86
86
83
86
87
87
88
82
87
81
72
68
65
82
75
83
83
97
77
72
68
66
71
72
65
75
72
73
72
55
55
57
53
55
74
73
74
76
67
57
46
47
59
61
66
60
56
61
62
64
60
72
49
58
56
56
61
84
84
55
50
53
58
52
67
61
68
62
71
49
44
48
59
71
60
58
67
67
64
56
63
50
55
64
67
76
60
47
59
68
51
48
58
65
72
67
64
57
52
64
62
58
53
42
58
56
64
79
61
54
52
45
46
56
64
65
78
58
59
58
54
59
62
44
49
63
60
68
55
52
44
40
55
60
80
73
58
61
44
51
65
62
62
70
65
56
64
59
56
46
50
49
53
58
72
65
76
78
62
40
49
49
48
48
59
57
63
68
65
49
50
41
49
58
64
70
79
70
59
49
48
50
55
63
71
75
76
64
66
65
55
47
55
60
71
68
64
65
47
47
43
43
52
56
56
59
52
57
69
51
35
27
55
51
57
67
48
50
41
43
53
51
53
61
50
50
48
53
47
44
37
42
51
49
43
33
34
36
20
27
43
67
77
132
169
189
205
231
250
250
230
218
171
148
109
95
79
59
50
49
47
52
61
71
62
56
67
64
47
37
33
36
39
45
56
59
45
48
42
41
36
36
51
51
54
61
43
40
26
37
39
40
42
46
64
56
58
50
35
44
43
39
26
31
62
77
67
53
46
44
35
43
36
45
48
50
49
45
41
31
47
44
39
60
65
58
44
49
40
22
36
39
48
60
62
54
51
47
55
48
43
50
47
51
55
66
55
48
47
51
51
50
50
47
57
69
67
58
54
64
66
71
63
69
73
59
60
78
58
67
48
61
76
71
69
79
83
73
60
59
70
65
74
78
65
69
61
59
61
44
49
48
60
62
71
67
57
42
41
46
37
46
59
58
50
41
32
38
31
38
44
43
49
48
60
54
42
40
27
30
46
37
44
50
44
43
40
36
35
24
41
39
59
47
53
44
33
34
33
42
28
36
46
56
45
56
51
33
19
37
42
39
47
42
48
48
42
34
30
30
30
42
37
51
60
41
41
37
36
25
31
41
49
57
45
36
34
32
22
41
44
39
46
41
49
40
39
38
43
34
39
40
37
53
52
52
40
43
37
24
21
35
45
51
42
51
42
28
23
31
51
46
51
45
50
36
44
32
34
46
44
37
39
31
58
42
39
39
34
38
38
45
40
48
55
40
35
39
41
39
42
53
55
57
60
55
44
39
40
49
52
51
55
45
47
50
30
35
28
29
40
48
47
53
51
44
34
26
23
26
27
42
48
44
39
35
29
21
21
37
43
37
37
44
46
45
32
27
28
28
27
27
38
43
31
29
19
1
2
5
5
17
39
36
66
96
131
158
184
201
247
267
256
228
191
143
92
76
50
46
30
46
55
53
51
30
20
28
38
39
36
42
44
45
30
31
20
11
18
38
47
45
29
29
38
34
16
14
16
27
38
51
45
28
27
31
27
19
21
23
27
32
39
38
24
13
15
20
25
29
36
40
37
42
37
24
26
22
15
24
27
39
40
45
37
34
22
26
35
38
45
36
31
38
30
25
36
36
31
37
34
32
43
34
37
29
33
31
29
31
44
45
37
48
50
43
34
35
40
44
56
53
58
48
41
42
47
46
55
58
63
59
45
51
61
63
56
43
65
58
57
54
70
69
55
40
34
33
43
48
58
56
60
53
34
45
47
36
49
46
40
43
51
39
34
24
29
22
25
29
33
45
42
47
38
31
20
22
21
33
38
30
40
41
36
32
27
29
22
21
39
36
36
37
21
21
17
28
38
30
37
38
40
34
21
38
31
6
14
35
44
50
43
31
26
40
44
31
23
36
28
33
36
46
28
15
23
23
48
49
50
38
31
35
28
18
26
25
32
31
36
41
34
32
28
32
20
22
31
48
50
43
37
31
31
25
25
30
42
47
37
32
39
47
30
17
13
23
9
36
48
51
39
40
26
36
38
31
29
46
45
38
39
35
30
35
35
36
42
46
48
63
56
50
44
35
38
39
48
47
46
38
33
45
27
16
37
26
37
43
36
33
35
35
28
7
11
20
23
35
44
39
33
25
15
12
24
31
32
39
43
40
29
8
16
22
18
23
37
37
21
34
17
14
-6
0
-15
1
23
58
86
118
150
176
187
196
216
227
213
198
173
141
96
56
41
32
34
32
24
38
44
58
53
24
25
37
29
29
34
32
33
20
31
28
8
-9
11
26
37
35
44
45
26
19
19
26
2
6
34
40
32
24
41
22
-2
9
18
21
27
33
43
30
32
16
17
24
34
21
14
27
43
44
32
11
16
20
25
37
49
47
22
18
31
18
11
21
25
22
26
43
25
38
35
27
25
21
38
34
47
50
34
27
28
37
26
37
37
30
25
35
44
43
37
36
29
41
56
46
46
33
39
45
48
40
51
49
46
44
30
48
55
47
49
44
27
34
41
50
58
58
50
35
30
24
29
25
32
47
51
40
26
33
36
11
1
13
29
18
39
41
31
36
5
20
0
4
25
19
20
24
24
13
21
5
10
13
18
20
22
31
38
28
-2
-11
-6
9
6
20
12
19
18
2
13
7
8
0
6
15
0
17
18
6
10
12
10
13
2
9
15
21
25
3
-16
-10
-5
6
12
22
9
8
12
4
6
17
1
5
7
13
19
22
20
-1
-10
-2
0
14
8
11
21
19
9
-2
17
10
2
6
6
-1
14
34
20
4
-15
-18
8
13
-9
6
10
-3
9
17
5
0
-5
0
0
4
11
15
19
15
7
-5
0
5
12
22
23
31
19
-4
1
-3
6
9
9
16
14
12
1
-6
-13
-12
-9
5
6
7
8
9
4
-12
-11
-12
-5
5
-7
-2
-9
6
-1
-13
