28
22
10
-16
-2
9
15
30
46
31
27
-1
11
-27
-16
6
19
24
38
37
25
6
1
-14
-10
2
18
20
40
34
25
6
-3
-19
-18
0
21
22
38
26
8
-5
-10
-24
-10
9
23
32
34
31
17
2
-10
-17
-21
1
27
33
38
37
20
8
-8
-22
-6
9
25
39
34
35
11
8
0
-21
-7
10
22
29
35
31
21
9
-16
-15
-9
3
28
44
46
34
14
3
-9
-8
7
17
19
40
45
33
17
6
-16
-5
9
20
25
44
46
36
12
4
1
-1
-8
23
29
40
39
30
18
-9
-18
-11
2
22
31
41
40
26
11
8
-17
-13
-2
18
16
47
38
23
13
5
-9
-5
4
15
22
44
43
30
7
-4
-20
-14
-1
11
21
40
39
23
-4
-4
-6
0
3
18
27
34
37
16
10
1
-24
-13
-2
14
26
46
41
21
8
-5
-10
-15
2
16
26
26
29
14
9
-1
-11
-7
6
9
30
43
27
16
3
-7
-12
-16
2
14
31
44
29
11
-2
-3
-1
-5
6
22
31
40
31
11
2
-9
-13
-6
10
25
22
31
26
12
2
-21
-16
-8
9
23
34
38
29
13
4
-20
-13
-12
10
23
36
38
33
15
13
-10
-10
10
15
19
46
46
27
13
8
-19
4
4
24
23
42
38
32
14
6
-20
-4
10
25
30
56
42
30
10
-2
-20
-15
-2
16
23
33
30
25
9
-3
-27
-22
1
15
18
43
29
16
6
2
-22
-16
-7
12
13
36
31
10
2
3
-21
-17
-5
13
7
24
29
15
-4
-3
-12
12
33
67
92
114
131
130
116
103
72
62
67
77
61
49
29
-24
-49
-53
-64
-59
-39
-27
-12
-5
-2
-11
-20
-17
-21
-14
0
15
24
30
29
23
-7
-13
-11
-10
3
21
26
44
34
14
4
-7
-8
-5
22
29
37
36
24
13
8
-11
-12
1
13
26
41
45
37
28
10
-10
-9
4
22
27
49
42
39
24
18
-7
2
8
23
19
45
47
43
25
5
-1
4
13
33
36
54
43
34
27
28
2
9
20
34
42
58
48
42
25
22
10
11
20
42
51
66
63
48
42
33
21
17
50
58
57
76
72
69
59
49
32
33
48
65
71
78
88
68
61
44
38
33
58
69
75
89
74
66
54
42
31
33
47
58
67
68
69
53
22
23
9
21
35
49
49
55
43
21
12
4
-14
3
19
30
35
42
27
19
3
-3
-28
-7
10
17
33
33
34
17
9
-5
-16
1
20
17
29
34
32
18
6
-13
-3
2
8
17
33
33
26
4
8
-10
-16
-9
6
20
33
32
26
6
8
-21
-13
-6
3
19
44
36
37
27
13
-10
-3
-6
20
31
44
38
24
14
-6
-9
-16
7
26
33
52
47
38
22
20
-11
2
5
25
32
49
45
34
12
9
-13
-8
16
23
30
42
39
23
16
12
-2
-2
12
35
33
53
41
29
15
6
-1
0
12
26
40
48
51
21
11
12
-18
-5
9
23
28
45
42
22
12
3
-5
4
9
27
42
54
48
22
12
7
-6
-8
9
21
33
49
38
24
18
1
-14
1
10
35
36
41
30
15
8
-5
0
2
18
19
41
42
25
12
14
-5
-11
-5
21
23
39
38
29
16
13
-8
-11
-2
12
29
34
36
29
16
9
-9
3
3
8
26
40
40
26
17
1
-14
-16
0
20
29
37
36
28
7
8
-3
-11
5
20
29
36
39
31
3
8
-18
-1
-6
18
27
40
40
28
14
4
-16
-9
4
20
21
54
57
36
18
11
-16
-5
11
28
34
55
37
29
20
7
-4
-3
11
30
36
60
51
27
17
6
-9
-10
11
22
30
50
39
24
13
0
-13
-9
6
11
28
37
35
27
11
-3
-10
-6
7
11
15
24
26
27
3
3
-4
-8
2
22
32
44
25
16
0
-12
-16
-9
-2
11
20
22
18
4
-9
-7
-5
13
49
75
108
124
129
135
124
97
84
59
78
78
61
43
10
-29
-47
-61
-53
-47
-22
-11
3
15
5
-9
-25
-28
-25
-1
12
21
36
31
24
8
-3
-14
-11
-10
27
27
38
38
29
12
-3
-12
-7
0
10
30
42
35
21
17
9
-12
-3
6
23
33
48
37
24
8
2
-5
-16
-6
14
24
55
52
36
19
4
-16
-6
8
24
31
43
39
32
23
15
-9
6
15
27
36
49
47
37
12
-1
-12
-1
27
35
41
52
47
40
15
7
4
12
29
35
46
57
52
47
40
33
18
30
37
47
64
75
71
55
42
31
23
34
45
64
69
83
74
59
43
37
39
48
64
76
67
82
69
43
42
23
22
40
51
52
67
68
52
41
19
-2
10
22
29
40
40
45
39
11
12
-14
-8
-4
20
23
40
41
21
13
9
-17
-14
-6
6
22
40
29
7
4
-7
-22
-16
0
9
20
42
26
21
5
-9
-19
-18
-1
11
15
27
32
15
7
-13
-34
-22
-11
5
31
36
29
11
-1
-3
-14
-16
-1
15
19
36
20
8
-1
-5
-23
-14
7
18
20
31
38
17
0
-15
-16
-13
-3
14
20
31
26
20
7
-21
-24
-3
2
17
26
30
25
15
5
-12
-23
-7
12
19
28
35
27
20
8
-8
-26
-24
16
31
22
38
35
17
-1
-14
-23
-18
0
10
24
37
32
19
0
-21
-14
-15
13
18
33
31
19
15
4
-13
-15
-13
3
7
29
26
25
0
-19
-29
-18
-13
8
18
30
32
30
-3
-7
-22
-13
-6
9
16
33
27
15
3
-5
-22
-13
-7
-1
14
30
27
12
-1
-8
-26
-24
-3
8
21
34
27
16
-7
-16
-30
-23
-10
8
21
25
25
12
-6
-7
-20
-24
-11
7
18
35
23
12
-3
-2
-26
-24
-4
13
22
30
22
9
-10
-13
-29
-26
-7
9
12
26
17
7
-8
-19
-26
-21
8
13
12
25
25
16
-8
-21
-28
-22
-6
17
22
44
23
1
-9
-14
-19
-15
-1
7
30
36
23
4
-12
-18
-25
-18
3
18
29
28
23
19
4
-11
-16
-2
10
16
23
27
25
8
-6
-10
-2
2
16
33
37
38
32
10
-6
-24
-13
-13
-1
8
27
24
11
-9
-6
-23
-26
-11
6
6
24
27
19
6
-1
-26
-23
-15
9
9
29
19
4
-18
-2
-30
-22
-17
4
4
11
16
7
-10
-19
-48
-32
-4
17
26
56
73
71
75
88
84
95
100
110
100
98
83
65
32
0
-51
-61
-57
-49
-29
-12
-11
-20
-43
-37
-46
-37
-17
-4
11
25
16
5
-8
-14
-26
-19
-6
13
30
32
19
11
-12
-12
-24
-22
-4
10
20
27
21
16
-2
-6
-23
-15
-3
13
24
23
29
15
1
-10
-22
-15
4
12
21
31
18
8
-1
-11
-15
-9
11
15
30
37
28
14
-3
-14
-17
-14
15
24
28
40
32
15
7
-10
-7
5
21
34
39
45
35
20
12
-2
-2
6
10
31
49
54
28
31
18
-4
12
18
37
46
56
58
49
33
28
21
27
29
46
49
75
69
47
40
33
25
27
37
62
59
72
65
53
39
38
21
31
26
51
58
73
64
40
30
23
-2
2
20
34
28
51
35
27
16
3
-18
-18
5
19
23
30
30
9
0
-13
-26
-13
-2
17
10
23
20
7
-6
-15
-16
-20
-7
6
16
30
15
4
-5
-15
-22
-24
-10
6
13
25
14
-1
-7
-17
-31
-20
3
3
17
26
23
10
-12
-12
-28
-16
-15
0
22
30
11
-2
-11
-36
-12
-10
1
10
16
20
10
8
-6
-18
-24
-16
5
11
26
27
19
11
-8
-24
-19
-18
8
17
38
36
11
4
-6
-25
-20
-10
6
12
22
17
20
-1
-11
-23
-16
-6
8
23
33
28
16
1
-4
-28
-8
-15
5
18
34
27
23
7
-9
-29
-25
-11
3
14
25
21
10
-11
-15
-23
-12
-8
8
15
34
35
15
-6
-6
-15
-20
-8
9
14
28
33
10
-4
-8
-20
-15
-5
12
18
26
24
3
-8
-15
-18
-17
-5
1
14
27
23
15
-4
-16
-29
-24
-8
9
17
29
23
-5
-3
-19
-19
-20
-6
14
20
23
16
8
0
-12
-26
-15
2
11
22
20
13
-3
-6
-15
-22
-31
-2
16
12
25
14
-3
-10
-17
-25
-20
-16
0
21
31
23
-3
-5
-21
-29
-12
-1
7
22
26
14
-6
-13
-25
-23
-19
1
5
26
27
9
2
-20
-40
-36
-9
7
10
24
24
16
-6
-7
-27
-10
-9
10
10
29
25
9
-10
-1
-24
-17
-8
11
25
32
30
19
13
-1
-17
-21
-9
12
20
40
27
22
-9
-10
-21
-11
-9
13
22
41
30
17
-6
-15
-28
-25
-10
6
5
28
23
14
0
-20
-32
-18
-20
-6
12
17
21
11
-7
-23
-26
-26
-12
-3
10
23
9
6
-2
-16
-34
-29
-29
-3
3
14
14
-3
-21
-31
-25
-15
16
54
72
106
104
115
116
107
83
71
64
69
76
65
22
-13
-55
-71
-80
-57
-42
-34
-13
-8
-6
-26
-29
-42
-41
-29
-7
8
7
23
21
4
-6
-24
-18
-12
5
18
26
28
17
0
-9
-31
-26
-12
8
12
30
29
13
1
-1
-29
-28
-3
11
9
30
32
6
-2
-11
-26
-24
-5
5
26
39
31
30
10
2
-15
-19
-3
20
21
42
34
21
4
-8
-14
-12
-1
13
24
23
42
29
4
5
-8
-18
2
29
32
47
41
23
11
-1
-13
-9
12
31
40
48
51
43
22
10
-1
9
16
41
50
65
51
44
26
21
5
19
36
54
61
68
65
53
32
24
18
26
36
53
57
70
70
41
33
25
16
24
43
52
51
59
51
35
20
19
3
6
20
37
37
38
26
7
-4
-13
-15
-8
3
6
20
24
22
0
-11
-30
-24
-11
-2
2
27
20
11
-8
-14
-28
-25
-9
-6
10
22
32
14
-1
-7
-29
-23
-16
-8
6
21
13
13
-9
-20
-29
-28
-14
-4
3
24
25
5
-13
-27
-23
-34
-15
-6
7
30
23
9
-8
-12
-29
-27
-14
0
10
22
18
15
-1
-11
-33
-27
-18
10
17
28
24
9
-3
-12
-23
-23
-8
5
12
27
24
7
-12
-24
-29
-5
-7
7
24
23
22
11
2
-11
-32
-24
-16
12
24
32
18
7
-5
-15
-18
-17
-4
13
21
24
14
5
-3
-10
-26
-11
3
10
17
27
17
0
-7
-22
-27
-28
-2
7
16
24
21
5
-13
-24
-33
-13
-7
3
31
30
20
-2
-11
-27
-18
-17
-10
13
25
26
22
8
-11
-25
-19
-21
5
10
20
19
9
2
-9
-31
-26
-19
-2
0
20
25
15
-2
-12
-30
-22
-16
9
12
25
29
9
1
-3
-31
-22
-7
5
12
27
18
7
-2
-3
-28
-24
-13
3
5
28
21
9
-5
-15
-35
-34
-6
-1
7
29
20
10
-8
-14
-23
-18
-6
4
14
17
28
13
-12
-15
-20
-27
-5
13
18
25
27
15
5
-17
-16
-12
-3
14
18
37
32
21
10
-16
-24
-14
-1
13
33
38
32
17
-1
-18
-28
-20
-15
5
15
27
19
9
-14
-7
-25
-24
-11
-5
13
28
24
-10
-14
-24
-22
-23
-6
10
21
13
14
3
-18
-23
-28
-25
-12
5
19
17
4
-12
-33
-34
-38
-32
-10
2
21
33
41
47
46
50
66
94
107
111
124
90
68
59
37
-7
-27
-47
-49
-46
-27
-22
-40
-46
-54
-77
-53
-45
-20
-14
17
12
12
-6
-13
-36
-29
-13
-7
12
32
25
13
-12
-18
-26
-19
-11
-3
14
27
22
6
-9
-16
-35
-21
-9
-1
19
32
21
8
-9
-4
-23
-17
-2
14
14
31
26
9
4
0
-7
-11
-3
16
28
26
29
7
2
-7
-25
-12
4
17
24
42
35
21
8
-11
-11
-1
14
27
25
37
30
27
17
1
-11
1
7
27
34
50
44
32
14
2
-5
14
27
42
57
61
56
46
26
14
4
29
37
51
60
61
66
53
39
30
26
33
53
62
74
76
59
36
38
20
26
34
50
54
67
63
47
37
29
7
8
14
29
36
36
51
30
9
1
-17
-12
-7
8
21
43
29
14
6
-1
-28
-22
-14
8
13
23
21
17
-7
-19
-36
-23
-27
4
14
22
23
4
-1
-14
-40
-30
-11
-1
5
15
19
3
-11
-11
-33
-31
-17
-1
11
26
13
7
3
-17
-20
-16
-27
8
15
9
13
7
-5
-10
-26
-22
-3
-1
12
17
18
-1
-12
-20
-14
-22
-5
14
18
32
21
5
-8
-29
-30
-23
-9
2
17
30
28
7
-10
-10
-13
-19
-6
6
19
22
21
9
-2
-17
-25
-17
-4
5
13
25
22
7
-5
-25
-21
-13
6
22
30
23
21
3
-14
-24
-29
-13
-3
10
19
18
14
-8
-5
-28
-30
-30
8
14
28
25
11
-7
-16
-24
-23
-11
4
11
23
20
11
-7
-8
-33
-27
-23
1
13
31
21
13
-12
-16
-39
-34
-12
4
4
19
23
11
-8
-19
-36
-23
-16
-1
5
19
15
5
-12
-20
-30
-25
-18
1
6
18
29
6
-8
-6
-32
-28
-18
6
15
41
24
14
-9
-5
-26
-26
-7
9
12
27
29
10
-2
-18
-30
-15
-13
8
28
40
23
1
-4
-19
-26
-27
-25
2
12
16
21
9
-14
-28
-35
-30
-10
3
4
14
3
-5
-19
-25
-29
-29
-12
1
11
10
9
2
-22
-35
-28
-30
-10
-5
6
14
5
-19
-31
-40
-33
-33
-21
-14
18
28
31
27
34
46
72
99
119
124
130
102
86
65
39
-7
-23
-38
-56
-51
-25
-22
-32
-36
-59
-71
-62
-59
-20
5
9
8
-17
-9
-18
-26
-25
-18
-4
9
21
22
14
3
-16
-38
-28
-12
0
15
40
30
12
3
-6
-28
-20
-15
10
13
23
24
12
-2
-4
-22
-14
-16
6
15
28
17
12
-2
-7
-42
-19
4
-1
23
31
35
20
7
-2
-20
-8
7
19
35
30
28
15
6
-3
-15
-13
2
23
25
45
33
15
2
-9
-12
-9
10
27
50
51
43
28
7
5
-6
9
14
39
47
59
58
37
29
16
10
28
29
55
63
70
55
40
29
18
18
24
40
56
70
68
66
54
41
31
24
21
36
44
64
63
51
37
27
3
13
15
20
26
38
36
38
22
6
-15
-20
-8
10
16
23
21
6
6
-4
-27
-23
-16
4
6
23
23
15
-1
-14
-30
-22
-25
0
3
16
6
8
-9
-20
-35
-33
-19
2
15
23
20
4
-13
-18
-44
-35
-18
0
-8
12
19
5
-11
-14
-24
-35
-19
1
4
23
22
3
-14
-20
-41
-34
-27
-1
6
22
21
-5
-14
-15
-34
-29
-18
5
10
27
18
-1
-21
-23
-38
-27
-14
-1
16
38
33
1
-17
-19
-26
-11
-6
10
14
30
25
-1
-11
-10
-28
-18
2
10
15
24
11
3
-6
-8
-20
-19
0
10
16
22
21
-7
-15
-24
-28
-21
0
-2
12
22
25
-2
-10
-27
-20
-14
3
11
25
24
4
-5
-18
-39
-12
-18
0
9
17
25
13
-2
-12
-26
-23
-13
0
5
28
19
5
-1
-15
-31
-25
-16
-2
6
22
20
10
-13
-14
-30
-16
-19
2
2
21
12
3
-7
-16
-32
-17
-6
7
12
27
20
5
-2
-23
-36
-28
-12
-4
12
29
28
2
1
-18
-36
-23
-17
6
14
19
20
2
-6
-19
-12
-21
-6
15
16
17
27
-1
-8
-22
-19
-11
-1
14
26
29
31
12
-4
-15
-23
-13
3
19
26
33
25
12
12
-13
-16
-17
-6
9
23
31
23
18
-3
-17
-19
-21
-4
14
23
27
22
3
-15
-21
-24
-20
-6
-1
20
24
15
-4
-16
-36
-33
-28
-10
3
14
30
4
0
-19
-32
-21
-10
-11
2
23
11
0
-17
-33
-44
-41
-37
-20
-13
10
33
30
26
57
43
57
87
116
123
133
112
79
53
34
-4
-22
-34
-36
-33
-14
-28
-30
-45
-47
-61
-51
-43
-23
-4
12
9
9
-7
-20
-36
-37
-17
-2
14
22
18
6
-5
-8
-40
-27
-13
3
4
21
24
3
-9
-16
-26
-26
-15
5
16
27
26
6
-4
-15
-31
-32
-17
0
15
18
11
10
-1
-7
-14
-19
-10
13
18
31
22
9
-6
-21
-29
-9
6
14
27
37
27
12
-7
-14
-17
-10
-2
5
27
36
19
21
2
-15
-15
-2
15
21
33
41
30
13
8
3
-2
12
19
34
52
49
39
28
13
6
13
17
27
39
72
64
59
44
20
16
24
23
43
54
57
58
59
37
26
12
16
27
40
54
64
62
50
40
27
12
7
17
20
27
48
35
26
5
-9
-19
-10
7
13
18
30
16
11
-10
-19
-31
-36
-10
8
6
25
32
-3
-9
-13
-45
-20
-17
-4
6
15
25
-3
-15
-28
-47
-27
-7
5
7
21
14
-1
-10
-17
-39
-29
-17
1
13
17
20
2
-15
-26
-37
-31
-21
2
12
22
16
9
-19
-30
-36
-38
-14
4
13
26
17
4
-19
-29
-29
-29
-16
10
7
25
16
-2
-13
-27
-36
-21
-12
1
19
12
19
5
-12
-17
-29
-25
-11
5
27
31
23
6
-12
-27
-25
-15
3
2
26
24
15
-9
-3
-29
-19
-19
-3
12
20
8
15
2
-10
-31
-24
-12
-6
10
38
19
11
-7
-15
-36
-32
-10
11
12
18
16
11
2
-5
-31
-27
-16
-3
2
26
16
3
-12
-16
-34
-26
-14
0
11
15
12
1
-11
-5
-27
-19
-7
9
3
20
29
3
-13
-12
-36
-34
-12
8
11
23
20
7
-1
-7
-28
-28
-20
4
13
26
13
1
-14
-24
-40
-26
-18
1
17
16
27
7
-5
-20
-28
-19
-12
1
17
17
17
-8
-20
-25
-34
-28
-5
10
19
20
16
-1
-16
-19
-19
-25
-7
5
10
20
6
-4
-8
-16
-22
-20
-8
7
18
21
7
-6
-9
-21
-25
-18
2
8
15
21
16
4
-6
-22
-11
-5
3
13
20
27
18
1
-12
-17
-14
-10
6
8
35
36
31
6
1
-22
-14
-11
7
17
38
29
17
-4
-10
-21
-16
-11
3
12
24
15
-3
-5
-7
-36
-31
-22
4
10
26
15
15
-3
-11
-30
-26
-10
0
6
24
9
3
-14
-16
-35
-26
-16
-1
6
31
13
12
-17
-33
-39
-41
-24
-2
1
20
29
43
37
53
55
71
93
136
137
139
102
76
58
26
-3
-18
-29
-39
-35
-17
-35
-31
-39
-54
-68
-60
-24
-9
4
18
20
8
-6
-20
-26
-24
-13
9
12
21
8
10
-8
-21
-29
-27
-5
16
16
34
27
-1
-15
-19
-23
-20
6
12
20
22
13
-3
-6
-25
-22
-16
5
19
33
29
23
4
0
-13
-17
-13
1
11
28
19
15
2
-6
-24
-17
-13
14
30
35
31
28
10
-1
-16
-13
-5
15
15
36
31
22
5
3
-7
-9
7
18
28
45
45
31
14
7
-14
-5
17
30
43
46
48
47
39
29
8
13
26
37
43
71
64
52
36
33
16
19
37
46
56
67
64
51
40
33
18
22
36
47
52
53
70
37
23
22
3
2
17
31
43
55
38
17
11
-5
-23
-12
12
13
27
40
30
5
-6
-14
-34
-25
-1
9
17
24
17
9
-14
-20
-34
-28
-9
10
17
14
6
-3
-21
-33
-27
-26
-6
4
14
28
15
5
-11
-23
-34
-34
2
6
22
16
15
2
-8
-38
-26
-16
-2
7
16
15
13
-8
-14
-42
-26
-23
-12
8
24
16
10
-13
-16
-28
-30
-20
-2
4
15
10
6
-12
-19
-34
-25
-15
-2
4
25
25
7
3
-14
-30
-19
-17
-2
15
22
16
8
-9
-14
-29
-18
-12
-1
6
28
12
2
-3
-17
-27
-32
-19
-2
0
33
13
-5
-13
-19
-30
-25
-13
3
8
27
23
17
-6
-13
-34
-25
-7
2
12
25
17
3
-2
-18
-37
-30
-25
3
16
16
15
7
-20
-19
-31
-25
-15
4
13
23
12
-12
-16
-28
-30
-27
-9
10
12
18
20
12
-15
-11
-27
-24
-1
14
18
19
14
4
-14
-27
-31
-24
-13
2
13
19
9
-12
-15
-27
-31
-30
-8
4
20
20
9
-8
-17
-41
-25
-24
-7
14
16
15
15
-7
-19
-35
-26
-10
-5
19
22
18
10
-10
-12
-29
-32
-17
-6
11
25
12
7
-7
-12
-26
-34
-33
-17
0
19
17
4
-7
-20
-38
-24
-19
4
3
11
18
7
-13
-26
-31
-27
-11
5
9
22
11
-5
-17
-11
-38
-35
-18
6
5
21
22
2
-20
-24
-46
-34
-22
-1
-3
24
20
6
-13
-31
-39
-23
-12
-2
4
17
14
-2
-17
-5
-27
-12
-1
9
23
25
21
13
-5
-18
-29
-22
-11
9
20
17
37
14
-9
-15
-23
-14
-8
2
17
22
12
-2
-17
-30
-40
-39
-23
-1
19
18
9
2
-9
-18
-24
-21
-7
1
3
17
9
-13
-15
-30
-26
-23
-11
-3
22
21
4
-12
-23
-38
-36
-32
-21
-12
-1
-1
-10
-17
-29
-26
-6
21
60
77
109
130
134
107
96
53
38
46
53
41
31
7
-37
-53
-63
-79
-79
-66
-40
-39
-5
0
-14
-35
-33
-48
-31
-25
3
-2
14
19
0
-6
-15
-36
-23
-18
6
7
18
19
9
-11
-15
-31
-30
-8
6
7
13
13
5
-9
-12
-38
-26
-10
3
10
26
16
6
-11
-19
-30
-34
-6
14
2
34
24
16
8
-13
-21
-12
-14
4
13
33
31
3
-13
-8
-35
-14
-1
14
26
36
23
6
-3
-9
-11
-8
5
17
26
31
21
13
7
-5
-3
-5
19
25
40
52
47
24
17
3
0
3
25
35
49
56
44
41
32
15
15
26
35
49
62
61
64
36
24
12
24
27
42
48
69
65
47
30
31
16
16
24
40
45
48
44
47
18
1
-11
-4
7
12
25
36
36
12
4
-11
-30
-22
-8
-1
9
25
18
13
-10
-17
-30
-25
-17
0
8
23
15
3
-12
-37
-50
-33
-22
1
-1
8
4
2
0
-16
-36
-29
-18
-4
3
27
10
-11
-14
-20
-40
-33
-17
0
0
15
6
-7
-15
-24
-39
-37
-16
-8
1
12
10
-4
-22
-23
-21
-31
-22
-1
-3
22
23
-4
-20
-26
-37
-25
-13
1
14
24
14
-5
-13
-37
-38
-30
-8
4
14
20
9
-8
-12
-19
-28
-25
-2
5
9
16
7
-6
-19
-26
-21
-25
-16
-3
12
17
3
-4
-13
-34
-30
-23
3
6
18
19
15
-14
-22
-33
-32
-30
-3
2
21
20
14
-3
-12
-30
-24
-14
0
-10
4
25
8
-19
-22
-38
-32
-22
-5
0
17
5
1
-6
-11
-32
-29
-16
-1
8
17
4
4
-11
-30
-43
-34
-18
0
5
19
17
5
-27
-25
-32
-28
-20
2
8
23
12
3
-9
-19
-36
-32
-21
-3
7
31
11
1
-22
-30
-34
-41
-22
0
7
15
14
-1
-12
-17
-34
-30
-16
9
13
19
0
-2
-14
-23
-30
-34
-7
12
15
17
11
-3
-9
-15
-30
-19
-17
10
21
27
27
0
-10
-18
-25
-10
-4
12
30
34
13
-1
-15
-20
-25
-26
-2
19
22
24
12
-2
-10
-29
-36
-23
-10
0
12
4
8
-10
-24
-38
-31
-24
-2
2
14
14
1
-10
-21
-48
-32
-22
-2
0
12
12
-1
-20
-9
-27
-32
-22
-10
-6
8
-1
-6
-22
-27
-44
-44
-31
-5
20
54
62
80
77
88
84
81
82
83
64
81
64
28
-3
-40
-80
-84
-66
-48
-36
-19
-25
-35
-48
-57
-60
-46
-27
-18
-10
15
16
-1
-21
-24
-43
-34
-13
8
3
16
13
7
0
-19
-31
-21
-12
4
17
31
17
-1
-6
-24
-30
-25
-9
3
22
24
21
-1
-18
-22
-32
-21
-3
7
20
20
15
7
-5
-18
-26
-22
-9
10
27
27
20
1
-7
-25
-20
-9
2
24
19
35
24
8
-5
-14
-18
-14
0
17
31
35
31
9
2
-12
-9
-2
23
29
44
37
30
19
8
-9
-1
6
25
34
55
55
49
30
24
14
12
27
45
49
72
51
54
44
31
11
12
28
45
56
71
67
60
35
35
13
19
23
39
39
58
50
51
19
11
-8
0
1
21
27
50
38
21
7
-9
-17
-23
-8
9
12
30
17
12
-17
-18
-32
-36
-15
-2
5
18
26
12
-17
-31
-36
-30
-25
7
17
22
14
-1
-12
-33
-35
-39
-19
-3
17
18
15
-7
-10
-27
-28
-30
-16
-6
11
20
14
-12
-24
-34
-35
-29
-15
-8
6
16
17
-11
-21
-26
-46
-32
-14
0
13
17
9
-13
-23
-20
-28
-14
-7
1
26
18
14
-1
-17
-28
-29
-22
-8
4
20
20
16
-4
-5
-35
-30
-24
-4
14
20
19
2
1
0
-20
-27
-24
0
7
24
26
6
-4
-16
-36
-27
-18
-4
4
27
25
19
-6
-15
-29
-34
-25
-3
15
36
21
21
-7
-24
-35
-21
-8
-1
1
25
7
0
-14
-8
-30
-26
-12
-1
-1
23
20
3
-3
-23
-31
-28
-17
5
11
30
21
3
-14
-17
-23
-32
-16
-5
8
30
12
4
-14
-10
-27
-30
-22
-10
6
22
25
2
-14
-19
-32
-35
-13
0
8
25
16
3
-10
-24
-28
-31
-8
3
14
25
10
-1
-14
-26
-37
-26
-4
18
17
16
19
-3
-14
-29
-37
-39
-11
-1
25
26
16
-8
-14
-30
-24
-25
-2
18
19
26
12
-7
-4
-23
-21
-20
1
3
11
27
14
3
-3
-27
-18
-16
-2
9
32
39
15
-3
-8
-29
-19
-2
7
22
29
30
16
-1
-5
-24
-13
-3
9
17
28
29
19
5
-6
-35
-19
-25
-7
10
35
20
7
-5
-21
-34
-32
-18
-1
2
25
18
5
-12
-16
-37
-29
-15
6
-1
10
9
1
-25
-28
-39
-29
-20
4
-1
14
10
-10
-26
-27
-47
-37
-31
-13
15
24
24
17
34
47
53
74
101
120
133
126
103
66
44
24
8
-11
-33
-45
-33
-20
-26
-44
-50
-51
-56
-43
-22
-7
-3
5
12
-4
-7
-15
-28
-30
-7
14
13
20
1
4
-12
-31
-33
-14
-5
5
23
26
16
0
-11
-28
-27
-16
3
14
25
23
17
14
-2
-23
-24
-14
-6
0
35
30
17
2
2
-22
-22
-4
13
20
33
16
17
3
3
-16
-17
-13
7
14
36
28
24
11
5
-17
-12
-7
13
22
40
30
25
7
6
-12
-9
9
25
31
50
43
31
22
7
-14
-4
14
35
46
53
45
38
28
20
14
27
31
42
47
56
63
46
26
32
14
18
35
48
55
66
74
48
42
25
17
17
29
55
54
67
55
51
26
18
3
11
23
36
39
47
41
28
13
7
-8
0
6
17
23
30
28
10
-12
-14
-22
-16
-5
10
21
25
14
-2
-9
-10
-25
-7
-7
12
18
25
10
0
-10
-13
-12
-23
-7
-7
20
23
13
0
-8
-21
-22
-15
4
12
21
16
16
0
-18
-22
-21
-21
-2
7
24
23
25
-6
-16
-30
-31
-20
5
12
29
22
13
-4
-7
-31
-28
-20
-13
4
15
24
10
4
-8
-22
-27
-11
3
6
26
21
18
-11
-6
-18
-23
-17
3
20
25
24
14
1
-3
-30
-23
-13
10
14
28
21
9
-1
-16
-33
-26
-11
8
20
30
22
11
-10
-3
-24
-20
-4
8
10
23
9
5
-8
-10
-23
-24
-13
6
16
23
29
9
-10
-23
-20
-6
2
10
16
18
21
4
-8
-29
-34
-18
-4
8
22
32
26
6
-11
-34
-39
-11
-7
6
14
20
19
-6
-13
-25
-29
-15
-2
8
23
19
4
-1
-12
-15
-23
-22
-1
12
25
19
15
-1
-1
-19
-23
-28
-10
14
26
14
14
1
-13
-25
-38
-14
1
7
12
22
5
-8
-15
-37
-34
-23
-13
10
23
28
13
-8
-16
-29
-27
-18
-1
14
14
27
12
7
-14
-31
-24
-18
-12
10
28
18
1
-7
-10
-32
-24
-17
10
7
29
21
11
-8
-14
-25
-29
-21
-3
7
25
16
16
-3
-13
-27
-25
1
16
20
24
23
13
-1
-11
-24
-15
3
14
12
30
23
19
1
-8
-28
-13
-3
18
32
37
26
8
-9
-12
-32
-23
-2
5
11
25
21
9
-8
-27
-34
-31
0
13
12
16
9
0
-15
-20
-39
-18
-10
0
12
25
15
-6
-17
-24
-26
-23
-12
-2
12
10
5
-11
-26
-44
-40
-29
-6
13
48
62
82
81
94
88
94
100
109
92
86
81
52
19
-21
-59
-70
-60
-51
-38
-21
-20
-13
-28
-37
-45
-43
-25
-20
5
17
12
14
-4
-12
-30
-29
-15
6
11
29
19
6
-5
-1
-25
-23
-20
-1
9
20
16
23
-5
-15
-22
-30
-19
4
16
30
25
16
-4
-9
-28
-19
-1
10
15
31
32
24
-1
-10
-26
-18
0
18
15
33
25
10
-12
-2
-19
-16
-1
18
25
33
29
19
7
-2
-18
-8
9
20
39
37
42
27
16
3
-2
-4
12
30
31
49
47
27
18
2
-7
2
22
39
54
55
53
36
21
16
17
16
30
45
55
65
61
44
36
21
13
30
40
59
66
67
66
47
35
20
14
22
45
43
60
58
48
31
15
3
3
9
23
32
39
32
25
9
2
-18
-15
-11
9
16
25
22
10
8
-16
-23
-25
-11
4
13
21
19
15
4
-14
-32
-25
-25
-9
4
22
18
2
-9
-11
-31
-28
-15
3
11
27
23
4
-16
-17
-32
-34
-17
-6
8
22
17
7
-9
-20
-36
-34
-16
-4
5
38
16
12
-8
-15
-29
-25
-15
2
5
15
21
5
-2
-7
-28
-28
-17
14
19
22
30
13
-22
-30
-23
-17
1
6
12
28
22
1
-17
-21
-32
-20
-14
9
18
16
23
7
-6
-10
-18
-19
0
17
17
24
9
5
-12
-28
-25
-18
-6
6
20
23
18
-6
-16
-30
-15
-24
-8
16
23
31
10
-1
-9
-27
-25
-26
-2
6
20
17
20
-1
-11
-22
-26
-11
2
2
16
21
19
-8
-12
-28
-24
-27
-3
-6
17
24
9
-1
-9
-33
-31
-18
0
15
25
27
11
-10
-15
-26
-21
-13
-2
7
23
20
6
-5
-15
-35
-24
-19
4
14
24
18
5
-14
-19
-31
-31
-29
-11
5
17
21
8
-9
-12
-29
-33
-9
6
16
28
18
-2
-15
-20
-26
-17
-16
7
16
22
14
6
-18
-21
-35
-31
-9
7
18
31
24
13
-12
-20
-23
-28
-12
9
13
23
20
10
-5
-21
-22
-9
-7
7
16
21
29
11
4
-12
-20
-8
-1
17
23
31
9
-6
-6
-9
-15
-29
-8
-5
16
20
18
11
-6
-27
-36
-28
-12
3
10
6
13
-14
-18
-36
-36
-22
-5
7
11
15
7
-7
-16
-29
-31
-19
-5
-7
21
15
-2
-23
-33
-41
-45
-32
-13
-4
25
39
48
50
57
52
78
100
115
104
91
83
64
52
18
-32
-67
-74
-60
-37
-22
-17
-33
-45
-49
-63
-59
-41
-19
-10
11
7
0
-13
-26
-38
-24
-16
4
3
20
19
5
-12
-13
-22
-21
-10
7
16
26
13
4
-18
-13
-22
-15
-11
1
16
27
26
9
-7
-14
-18
-19
-12
5
15
28
17
14
-10
-12
-22
-20
1
19
17
20
31
8
-15
-26
-28
-13
6
12
20
20
14
4
0
-5
-14
-5
9
24
33
42
33
21
10
-4
-8
-5
18
36
38
49
37
19
7
-3
-1
18
27
36
53
62
54
38
32
9
4
25
40
51
58
73
59
39
30
17
18
29
45
51
66
72
50
49
35
19
17
20
52
54
64
63
54
33
23
-1
7
13
25
37
51
35
22
10
4
-9
3
-9
7
15
30
22
3
0
-22
-29
-24
-7
-1
4
24
22
8
-5
-13
-37
-32
-8
6
9
18
15
-2
-15
-24
-45
-24
-9
-5
-3
22
14
6
-15
-26
-28
-22
-22
1
4
14
15
4
-10
-18
-40
-22
-11
-7
3
12
8
0
-14
-20
-27
-21
-18
5
12
15
17
-2
-13
-18
-34
-32
-16
7
13
27
18
16
1
-21
-31
-16
-16
6
14
20
8
-2
-11
-29
-33
-12
-1
6
16
38
16
5
-9
-33
-31
-25
-9
13
24
32
8
-6
-16
-25
-28
-18
-12
10
17
11
2
0
-14
-25
-20
-13
-5
7
22
7
10
0
-5
-34
-22
-12
-1
5
16
18
13
-10
-15
-29
-16
-18
-9
1
19
17
18
-9
-12
-31
-29
-27
-8
7
22
11
1
-4
-4
-31
-29
-18
-4
6
19
13
7
-13
-21
-36
-23
-14
7
-1
26
7
13
-11
-18
-29
-35
-4
11
9
28
23
12
-5
-19
-24
-25
-8
2
11
22
23
13
6
-1
-20
-22
-4
10
24
31
25
6
-12
-17
-22
-28
-5
18
13
23
31
8
-5
-20
-24
-27
-10
4
10
20
16
-1
-20
-29
-41
-26
-20
-6
1
17
15
-9
-7
-25
-22
-18
-15
9
15
16
8
1
-17
-42
-20
-23
-7
-5
6
14
7
-10
-38
-52
-41
-32
-10
20
37
59
64
73
80
94
91
99
94
88
79
72
65
22
-9
-53
-77
-66
-49
-42
-28
-27
-29
-27
-40
-53
-43
-28
-16
-1
17
14
-4
-21
-1
-27
-21
-9
0
6
28
13
6
-5
-17
-30
-23
-5
9
16
32
24
6
-7
-20
-32
-27
-4
7
17
34
26
18
3
-7
-31
-31
-10
11
7
26
21
8
-3
-15
-26
-17
5
23
25
26
23
19
-2
-9
-21
-23
-12
6
26
36
30
13
7
-14
-17
-1
18
24
31
39
37
13
-2
1
-3
6
19
26
36
41
31
17
13
8
-6
17
32
39
51
54
49
32
23
21
14
27
34
49
62
65
61
45
30
22
12
27
43
56
67
63
59
39
36
11
17
26
42
52
60
51
46
35
18
5
2
11
18
29
39
40
28
6
-5
-24
-16
-2
2
11
24
33
17
6
-7
-33
-13
-13
-4
3
20
23
20
-12
-17
-37
-25
-25
-3
12
18
19
3
-8
-16
-36
-33
-16
3
15
28
4
1
-17
-19
-17
-16
-12
4
6
25
21
2
-16
-18
-29
-35
-12
2
5
21
8
2
-4
-15
-30
-29
-17
-1
2
16
32
6
-12
-19
-30
-15
-8
5
7
21
3
3
-8
-19
-26
-25
-5
6
22
30
21
-2
-10
-18
-24
-22
0
4
21
25
21
8
-10
-25
-31
-18
-2
10
16
25
18
4
-28
-22
-30
-19
-5
9
9
18
10
0
-8
-26
-22
-14
3
8
13
11
6
-7
-18
-32
-27
-16
-10
8
24
27
9
-6
-12
-34
-29
-14
-8
6
13
19
2
-13
-16
-29
-31
-23
-10
9
15
17
7
-11
-15
-42
-29
-21
16
14
26
13
6
-16
-20
-28
-29
-11
0
6
23
23
8
-4
-14
-36
-26
-14
8
21
23
18
12
-7
-19
-38
-28
-10
5
14
28
18
10
-7
-17
-35
-28
-16
-1
12
31
32
11
-5
-22
-30
-16
5
23
21
32
28
13
4
-5
-12
-15
-7
13
26
29
19
13
2
-3
-10
-14
-1
12
16
30
25
7
-6
-19
-27
-31
-9
9
14
19
15
-1
-11
-28
-33
-23
4
3
12
19
18
-10
-11
-30
-36
-30
0
8
7
16
12
-5
-14
-40
-30
-26
-11
-3
11
12
-8
-23
-37
-44
-31
-3
30
50
79
106
104
103
102
89
86
80
71
74
86
43
13
-26
-57
-76
-76
-63
-42
-30
-10
-11
-7
-31
-34
-44
-33
-17
-5
-3
21
21
0
-9
-15
-24
-31
-13
3
8
26
26
2
-6
-17
-36
-32
-20
11
14
27
26
18
7
-10
-28
-23
-17
9
25
28
25
10
-1
-10
-34
-10
0
26
23
32
28
9
0
-5
-16
-16
4
11
23
17
26
10
-3
-4
-16
-14
0
19
20
39
27
25
10
-8
-3
-15
2
26
36
39
39
24
15
-6
-15
-5
16
36
42
49
45
23
23
10
-4
5
23
37
56
61
58
37
32
13
7
30
43
51
65
69
63
44
36
21
30
28
45
45
69
71
63
45
32
15
12
18
28
41
52
67
39
18
24
-10
-6
-1
15
23
40
37
20
1
-12
-29
-25
-11
5
19
28
16
9
-9
-15
-38
-22
-19
-9
-1
21
19
12
-2
-17
-39
-29
-14
0
-2
23
6
6
-16
-30
-28
-30
-17
-6
-1
19
7
-4
-9
-17
-38
-35
-17
-3
-2
12
22
-6
-20
-22
-26
-26
-17
0
10
17
11
-2
-28
-35
-35
-30
-14
-5
12
21
14
11
-16
-32
-47
-39
-19
4
12
18
8
5
-17
-27
-39
-34
-12
13
20
27
18
4
-20
-23
-32
-25
-6
3
21
26
14
1
-15
-31
-24
-26
2
3
13
9
11
-4
-18
-30
-30
-24
-9
-2
12
13
8
-6
-18
-36
-28
-21
-3
3
17
18
11
-11
-17
-30
-31
-23
-6
16
27
29
5
-12
-20
-37
-31
-19
4
6
22
11
-8
-16
-12
-35
-32
-19
-10
9
12
8
7
-2
-15
-39
-31
-25
-12
1
18
14
4
-14
-17
-31
-28
-26
-1
1
17
15
5
-13
-21
-34
-30
-19
-1
8
15
9
4
-17
-18
-34
-41
-24
8
9
13
21
-2
-20
-30
-39
-30
1
-1
7
24
17
5
-12
-24
-35
-35
-15
3
10
14
7
-5
-11
-28
-33
-27
-4
8
20
15
15
0
-18
-34
-30
-24
-9
9
18
24
20
1
-11
-15
-25
-15
0
15
24
28
21
11
-15
-15
-23
-18
1
1
24
23
12
-4
-10
-28
-23
-21
-9
4
18
18
1
-11
-21
-34
-24
-31
-11
5
19
8
3
-7
-25
-33
-36
-19
-18
-3
17
24
-1
-10
-20
-34
-27
-21
-11
-10
10
6
-6
-23
-33
-55
-53
-40
-18
3
31
44
45
49
69
71
88
98
111
105
102
88
67
25
2
-34
-57
-58
-52
-48
-24
-21
-37
-43
-47
-56
-52
-30
-11
-3
15
3
-3
-22
-21
-38
-24
-17
-3
-5
20
14
3
-14
-25
-32
-32
-7
-10
8
28
24
3
-12
-20
-29
-37
-11
5
15
21
11
5
-4
-16
-28
-30
-3
7
19
28
28
7
-16
-17
-33
-15
-2
5
20
31
19
7
-10
-23
-20
-14
-1
13
23
37
21
5
-6
-17
-18
-9
-5
10
32
39
28
13
-2
-22
-14
-12
11
26
39
47
32
18
2
-10
-1
2
15
32
45
48
43
29
20
-5
6
22
29
45
70
62
51
37
37
13
17
29
41
52
67
63
50
33
24
13
14
22
42
46
55
53
42
26
13
3
1
12
17
21
33
33
18
-1
3
-23
-12
-8
14
11
26
24
12
-9
-12
-33
-37
-25
-10
5
24
22
6
-7
-20
-40
-24
-17
-8
2
19
12
-7
-15
-16
-37
-28
-17
-9
1
18
8
-2
-19
-29
-44
-27
-2
8
16
15
13
-3
-10
-28
-37
-24
-5
2
13
12
5
0
-18
-26
-31
-24
-10
-5
10
24
6
6
-18
-31
-34
-31
-8
-2
17
22
10
-5
-14
-34
-33
-18
-2
10
22
25
9
-7
-13
-20
-32
-18
7
14
22
16
15
-4
-14
-30
-30
-15
-2
2
23
13
13
5
-5
-35
-25
-17
-5
17
20
22
14
-4
-7
-33
-31
-13
2
10
23
29
11
-7
-29
-36
-24
-9
1
6
19
13
1
-2
-13
-33
-26
-16
-1
9
21
15
12
-6
-15
-38
-33
-19
-1
14
25
21
8
-10
-14
-32
-31
-7
6
14
17
20
0
-6
-14
-41
-31
-14
6
12
18
18
3
-10
-24
-32
-16
-8
15
9
18
11
4
-15
-30
-30
-30
-20
-2
13
23
10
0
-15
-20
-32
-21
-12
5
10
18
9
-3
-14
-15
-41
-15
-4
14
17
8
14
11
-10
-21
-25
-14
0
11
18
25
20
5
-7
-25
-18
2
4
6
25
31
8
-11
-9
-16
-18
-15
-4
9
25
32
18
-2
-7
-32
-26
-23
-1
2
16
20
8
-4
-12
-38
-22
-21
-13
-5
19
16
5
-16
-21
-25
-31
-25
-8
1
23
16
9
-11
-20
-41
-34
-21
-10
-5
13
9
-9
-24
-32
-36
-24
7
28
67
92
96
122
110
92
61
51
43
51
49
41
23
-17
-54
-71
-82
-73
-67
-49
-34
-17
-8
-20
-45
-37
-43
-40
-24
-7
-1
21
18
7
-10
-29
-35
-23
-9
2
12
18
23
0
-8
-14
-22
-15
-12
11
23
31
18
1
-12
-22
-23
-20
-4
7
25
30
13
15
-6
-24
-22
-23
-9
10
27
37
23
0
-10
-28
-16
-7
11
17
32
26
22
3
-9
-23
-11
-5
10
22
29
33
29
16
5
-9
-5
3
13
24
36
39
29
18
2
-12
-1
6
17
28
50
47
36
30
17
5
9
37
33
48
65
49
43
29
29
14
17
31
47
56
70
79
65
39
34
16
22
30
52
55
70
60
55
46
39
18
20
30
51
41
57
58
39
24
15
-3
2
9
24
32
39
34
24
4
-10
-6
-18
-13
9
16
25
19
14
-15
-9
-21
-17
-11
4
18
27
19
14
-6
-20
-38
-18
-13
0
2
35
27
6
-3
-20
-23
-22
-12
3
12
21
17
-9
-20
-20
-21
-11
-6
3
7
23
17
-7
-26
-30
-33
-22
4
11
10
21
8
0
-8
-29
-27
-16
3
9
16
23
11
6
-14
-24
-14
-18
4
7
16
25
12
1
-9
-27
-15
-19
7
10
23
27
12
-6
-23
-43
-29
-1
6
10
31
29
17
3
-15
-24
-22
-11
2
8
20
22
9
-3
-9
-25
-23
-11
1
14
26
26
14
-6
-17
-33
-30
-13
6
13
26
18
10
-7
-11
-28
-19
-16
1
5
16
25
10
-2
-8
-29
-24
-12
3
16
22
22
7
-13
-24
-25
-15
-9
-7
8
20
17
3
-10
-19
-33
-26
-13
13
17
27
12
-1
-3
-29
-35
-28
-6
-3
9
13
11
0
-6
-15
-27
-18
-13
2
9
14
-3
6
-7
-24
-30
-27
-7
8
25
27
24
5
-3
-23
-24
-16
-6
8
18
30
9
1
-17
-16
-23
-10
4
14
29
23
19
-3
-9
-26
-33
-14
-1
7
28
19
12
-2
-15
-41
-31
-33
-14
1
24
17
-1
-16
-31
-43
-25
-24
-6
-5
13
17
0
-8
-18
-42
-35
-31
-2
2
19
13
-1
-16
-29
-45
-46
-39
-19
-16
8
8
-3
7
11
10
32
61
108
125
148
141
96
52
36
17
-2
-3
-20
-28
-34
-38
-37
-61
-58
-72
-66
-45
-28
-20
5
2
-9
-24
-32
-42
-28
-21
-15
13
19
14
-1
-20
-23
-28
-24
-6
1
5
20
15
2
-6
-11
-31
-29
-13
-1
19
21
18
8
-13
-17
-22
-22
-12
7
30
30
9
1
-4
-21
-29
-18
-5
13
21
31
23
5
-2
-18
-24
-18
-5
14
28
31
19
0
3
-10
-17
-8
14
19
30
31
29
17
-2
-21
-15
3
21
23
32
36
31
13
9
-9
2
10
31
30
49
46
38
20
21
11
11
19
41
45
56
56
46
41
30
3
19
27
33
54
66
62
56
36
21
19
17
26
34
45
61
60
45
28
24
6
19
24
32
39
44
44
25
-6
6
-11
-8
2
12
21
24
19
0
-1
-16
-34
-24
-8
2
10
18
19
4
-11
-23
-37
-18
-13
6
8
18
8
8
-10
-24
-34
-29
-10
13
16
26
16
-6
-17
-8
-22
-24
-4
15
14
14
9
-4
-14
-27
-23
-18
-6
11
24
7
5
-1
-7
-24
-27
-18
-2
2
11
30
19
4
-6
-29
-21
-16
-1
19
13
21
14
-11
-7
-22
-23
-15
0
12
26
22
9
-8
-14
-26
-19
-13
-4
5
23
23
17
3
-9
-31
-19
-13
7
15
29
18
11
-7
-14
-32
-12
-6
14
14
31
19
13
-8
-9
-26
-21
-21
4
11
26
22
-5
-1
-7
-32
-29
-18
0
8
18
13
13
4
-7
-28
-26
-19
-11
17
28
20
7
-2
-17
-26
-27
-12
17
7
24
19
3
-9
-25
-37
-26
-6
9
16
16
18
3
-10
-20
-26
-18
-12
-4
7
19
22
2
5
-25
-26
-28
-3
14
18
26
15
1
-2
-20
-34
-24
-13
10
33
26
22
-1
-12
-26
-36
-29
-12
16
27
27
18
3
-15
-27
-29
-24
-5
7
17
22
17
-1
-17
-35
-30
-5
13
10
27
16
7
3
-15
-25
-28
-10
6
9
24
28
12
9
-2
-21
-9
-16
9
16
32
31
17
3
-5
-21
-20
-17
10
15
40
37
17
5
2
-22
-10
-3
11
14
29
26
15
-2
-12
-30
-16
-12
2
18
30
20
2
-14
-11
-29
-17
-19
1
14
25
25
12
-10
-17
-28
-28
-7
3
12
31
21
0
-9
-15
-41
-32
-13
-14
6
25
12
1
-23
-26
-24
-10
29
49
75
104
114
120
123
105
91
79
62
67
79
55
32
-5
-43
-64
-73
-64
-45
-28
-6
-3
-1
-11
-28
-18
-33
-23
7
6
12
16
9
1
-1
-14
-22
-18
0
14
28
28
15
1
-8
-22
-28
-14
-2
13
32
30
17
-2
-2
-12
-21
-12
0
18
42
42
30
1
-6
-12
-20
0
10
22
26
24
18
5
4
-7
-9
0
11
23
37
29
23
10
0
-16
-5
6
21
25
36
35
24
9
6
-14
-5
-3
17
37
53
50
43
17
7
-7
4
11
21
32
61
49
41
30
21
6
12
22
42
44
59
53
45
41
31
21
26
37
55
61
70
71
56
36
32
18
28
45
52
63
73
65
53
38
28
20
23
25
45
54
64
51
43
18
13
-9
4
13
23
38
45
28
16
1
3
-11
-8
1
10
18
36
21
16
-6
-7
-17
-12
-8
11
19
27
17
8
-8
-25
-26
-17
1
1
23
25
10
-4
-11
-27
-23
-9
3
19
22
18
10
-4
-13
-23
-23
-8
6
7
29
17
9
3
-13
-21
-22
-14
-1
5
24
20
7
-3
-13
-32
-25
-16
4
11
27
20
13
-3
-4
-31
-14
-9
16
12
31
30
13
-6
-4
-26
-25
-13
10
14
25
18
12
-6
0
-18
-22
-1
10
14
30
21
22
-1
-4
-32
-22
-5
25
1
23
18
15
-12
-12
-21
-21
-7
6
10
17
20
11
-11
-13
-23
-14
-5
5
10
23
29
15
-7
-19
-29
-24
-9
1
28
35
28
14
-4
-20
-25
-18
-2
6
16
23
17
5
-14
-25
-32
-21
-6
12
19
28
9
-6
-21
-24
-29
-26
-12
6
18
29
27
3
-10
-24
-25
-17
-4
12
16
22
11
-3
-3
-21
-26
-19
-6
5
22
22
9
1
-12
-33
-28
-23
-8
4
28
20
10
-6
-13
-34
-17
-10
-9
4
26
20
13
-4
-14
-38
-26
-15
-2
4
23
22
14
7
-9
-29
-17
-19
10
2
29
23
4
-9
-16
-30
-30
-19
3
14
28
19
20
-4
-13
-23
-21
-15
-9
7
25
25
5
-6
-4
-16
-25
-10
7
9
23
24
11
-9
-12
-22
-8
-2
16
24
31
25
17
2
-10
-31
-7
3
20
28
33
24
9
1
-9
-14
-12
-2
13
30
29
24
5
-3
-20
-29
-27
-6
8
19
23
27
2
-24
-24
-28
-21
-11
2
20
32
16
3
-12
-20
-29
-26
-3
8
12
11
10
-7
-12
-33
-27
-28
-6
-9
6
15
-1
-8
-2
0
19
43
70
103
138
147
129
101
64
36
35
35
21
4
-8
-38
-38
-43
-58
-73
-61
-61
-33
-12
-4
4
-2
-8
-23
-33
-31
-23
-3
6
25
12
7
-11
-14
-29
-29
-5
8
16
36
25
14
-4
-11
-37
-19
-8
9
9
26
19
9
3
-5
-16
-15
-9
16
17
33
27
9
2
-12
-20
-17
-10
4
16
41
26
18
-3
-12
-22
-16
5
23
29
40
30
18
6
-4
-30
-13
2
22
25
37
37
24
13
-7
-5
10
14
27
36
41
47
32
6
1
-7
-1
7
34
60
59
53
35
25
13
4
13
37
38
57
62
58
40
36
25
23
21
35
51
67
75
65
46
36
22
33
29
43
53
68
65
59
46
38
15
19
21
34
40
58
56
44
22
8
-2
-7
16
22
8
39
26
27
5
-4
-24
-12
-3
18
20
32
33
20
-11
-7
-19
-15
-20
1
8
27
24
16
-5
-9
-23
-22
-11
0
14
29
23
13
-8
-14
-28
-22
-12
13
13
30
16
9
-13
-18
-29
-20
-19
-1
6
23
26
14
0
-13
-25
-23
-16
4
16
21
20
14
-4
-11
-24
-14
-11
19
26
22
18
7
2
-9
-20
-12
-5
8
16
24
37
16
3
-13
-22
-20
-2
19
21
29
21
5
2
-3
-16
-14
4
14
16
30
19
9
-7
-19
-20
-5
3
8
24
23
18
1
-17
-18
-12
-14
10
12
26
26
20
19
-7
-26
-18
-11
1
6
31
27
23
1
-2
-27
-22
-12
2
10
30
23
14
-3
-7
-33
-25
-3
18
11
29
23
13
-1
-7
-25
-23
-5
8
5
16
24
24
7
-12
-25
-28
-11
6
21
30
26
10
-3
-8
-27
-22
-5
7
3
19
18
16
-6
-5
-16
-10
-1
3
20
35
30
11
-4
-9
-22
-16
-2
9
14
34
23
20
2
-6
-15
-5
-3
8
17
27
33
22
-3
-5
-15
-2
3
12
29
43
31
9
-1
-16
-31
-20
-7
13
21
29
22
7
-11
-25
-29
-18
-9
15
17
15
16
8
-18
-23
-31
-18
-7
5
12
20
11
1
-15
-24
-21
-18
-7
1
11
23
14
-11
-23
-30
-35
-29
-14
8
10
14
15
29
31
26
45
65
100
124
154
136
107
70
54
22
-6
-12
-9
-21
-25
-23
-31
-43
-51
-59
-53
-44
-30
-15
8
13
-4
-5
-13
-32
-27
-17
9
19
23
23
15
1
-7
-29
-26
-15
1
4
29
20
27
5
-11
-30
-17
-11
12
21
28
25
7
-3
-6
-21
-15
-1
12
20
32
34
17
1
-4
-13
-20
-8
19
27
22
41
23
5
-5
-24
-11
0
10
29
27
30
24
3
-10
-10
2
16
27
34
34
31
29
12
2
-8
-1
13
35
46
45
52
28
7
9
-4
4
22
36
54
60
62
37
27
8
9
15
37
43
58
64
58
41
41
24
27
32
48
63
72
77
76
50
33
24
29
29
53
56
56
58
64
44
28
12
17
27
32
38
55
47
36
23
14
-9
-8
-3
14
17
30
25
20
6
-16
-24
-18
-5
9
12
22
27
15
0
-16
-33
-24
-19
6
7
25
20
9
-5
-9
-27
-29
-17
0
6
27
20
9
-7
-10
-29
-25
-15
2
14
20
16
11
-12
-24
-43
-31
-15
15
0
20
18
3
-12
-23
-45
-26
-7
11
10
29
16
-1
-14
-18
-25
-17
-7
6
16
22
21
5
-10
-19
-30
-19
-7
18
19
27
18
11
-12
-18
-18
-19
-6
16
13
23
20
11
-3
-17
-30
-24
-4
7
25
31
16
-15
-13
-20
-12
-7
0
16
15
30
22
-1
-6
-20
-17
-22
0
19
12
32
19
3
-11
-35
-31
-23
-2
13
24
19
17
-2
-8
-27
-16
-10
1
8
23
20
12
0
-12
-22
-15
-13
0
5
34
26
11
-4
-1
-27
-18
-10
10
15
30
