8
-24
-58
-37
-24
-23
0
-3
28
19
4
-23
-61
-34
-28
-9
3
5
29
23
5
-24
-60
-24
-20
-3
1
8
38
30
7
-33
-64
-34
-20
-24
13
7
38
30
-4
-40
-55
-20
-29
-14
-1
6
36
19
5
-45
-66
-22
-22
-17
-2
5
39
23
0
-39
-56
-23
-20
-17
-2
-1
20
23
6
-36
-42
-37
-30
-18
-5
14
40
12
-9
-52
-44
-38
-21
-2
-1
5
31
18
2
-59
-44
-42
-25
-18
0
8
40
17
-2
-52
-35
-20
-19
-15
2
20
32
6
-21
-59
-21
-17
-25
9
6
21
26
16
-2
-51
-29
-17
-8
8
2
35
41
15
-18
-53
-25
-25
-23
0
16
34
27
11
-17
-62
-23
-13
-6
8
11
41
35
12
-19
-58
-23
-23
0
7
25
53
39
9
-12
-38
0
-3
0
14
25
47
40
18
-17
-48
-6
12
9
15
33
70
53
23
-5
-33
6
5
14
39
34
62
45
24
-10
-38
3
4
6
19
29
69
41
17
-28
-33
-14
-25
2
20
13
46
23
6
-30
-33
-22
-24
-20
8
12
35
29
12
-39
-36
-25
-10
-2
5
10
39
5
-19
-65
-54
-42
-39
-38
-13
9
33
25
31
11
54
104
132
174
204
228
246
213
194
130
127
108
86
75
68
55
49
18
-13
-59
-43
-43
-45
-31
-19
4
15
-6
-35
-69
-36
-23
-11
-4
3
24
30
10
-21
-61
-25
-23
-27
6
14
17
31
2
-26
-61
-29
-15
-17
-3
7
36
29
7
-21
-56
-22
-15
-8
14
8
29
27
15
-23
-44
-14
-15
-7
13
22
53
36
13
-18
-47
-7
-17
-3
16
33
51
38
23
-9
-45
-15
-3
10
28
31
57
48
24
-7
-26
1
12
24
32
39
66
65
39
-4
-8
26
18
30
48
44
89
68
53
7
3
25
39
43
51
64
99
74
53
19
25
42
43
50
63
67
91
70
53
3
12
33
26
24
42
57
72
45
34
-9
-8
-2
-4
21
29
43
59
35
20
-30
-16
-10
-4
16
23
28
43
29
8
-46
-19
-6
-12
3
12
28
42
7
15
-30
-17
-13
-3
8
13
46
42
18
-13
-50
-29
-14
-15
9
14
43
48
21
-12
-50
-13
-6
-1
18
22
48
41
18
-18
-41
-16
0
4
18
26
45
46
17
-27
-30
4
-6
6
19
27
43
35
5
-10
-31
-8
-9
14
22
12
44
32
15
-21
-47
-14
-5
8
16
16
53
37
10
-16
-39
-6
-4
10
14
15
44
31
7
-28
-36
-22
-17
-4
8
8
35
26
8
-31
-34
-8
-21
-8
9
7
38
20
-5
-38
-33
-20
-19
-8
1
11
65
30
5
-34
-20
-21
-26
-28
14
17
30
28
10
-34
-23
-23
-5
3
11
25
50
24
3
-49
-28
-15
-6
5
19
38
44
18
-2
-53
-19
-15
-14
9
11
34
38
7
-11
-51
-18
-10
-12
12
15
38
39
13
0
-43
-19
-2
4
20
22
42
37
19
-6
-38
-2
-5
14
24
28
46
44
22
-8
-32
4
26
22
31
34
66
59
48
9
-30
1
12
28
39
42
63
56
32
-4
-33
1
-2
5
24
28
59
50
28
-16
-44
-16
-9
1
9
14
37
31
11
-27
-51
-19
-20
2
10
13
38
31
17
-21
-42
-17
-9
-1
0
-2
32
13
-19
-68
-73
-34
-24
-4
23
46
108
117
111
108
127
162
179
176
208
199
211
163
129
62
38
28
3
-10
17
26
29
10
-15
-52
-57
-45
-46
-23
-10
4
23
8
6
-38
-22
-16
-6
8
15
23
45
16
9
-34
-11
2
3
-4
24
41
43
26
8
-32
-4
4
9
17
32
53
46
26
9
-40
-5
9
14
28
38
65
56
31
18
-9
14
7
13
48
54
78
67
36
13
-21
14
27
27
38
54
84
77
50
19
-13
21
35
48
57
53
85
88
75
41
5
29
41
55
60
80
108
102
73
41
35
47
54
61
82
93
118
102
80
55
31
59
59
78
91
89
120
110
85
48
40
63
54
67
83
83
112
91
76
26
21
39
40
43
58
62
89
71
48
0
6
21
19
26
37
44
58
49
37
-3
-12
-8
2
9
39
38
58
39
19
-20
-13
-7
0
8
37
35
52
27
18
-38
-17
0
1
23
31
54
63
32
15
-31
-6
-9
-1
13
34
57
52
27
7
-35
-17
-3
0
23
24
42
45
28
-3
-44
-7
8
-7
12
23
47
44
22
3
-44
-12
1
6
12
16
46
37
23
-9
-52
-10
-10
-14
6
17
53
44
19
-19
-51
-23
-13
7
21
13
38
35
14
-19
-46
-14
-4
-7
19
24
45
49
7
-22
-36
-7
-12
-1
15
18
53
39
18
-31
-48
-10
3
3
17
21
50
45
24
-23
-33
-13
-1
6
22
26
58
42
12
-33
-23
-1
-6
7
17
27
58
34
17
-29
-21
1
-8
12
33
32
61
32
17
-14
-13
1
6
10
38
44
59
41
36
-16
-17
4
15
23
40
52
80
52
44
-7
5
20
21
31
46
68
70
42
29
-21
4
16
17
33
40
54
67
48
21
-17
2
6
14
29
20
48
50
26
4
-32
-15
-5
14
33
34
52
37
17
-3
-35
-18
-8
-5
24
28
54
48
25
-4
-32
-5
-8
-8
16
11
41
31
-1
-35
-77
-34
-19
-11
22
49
98
120
131
125
118
181
196
204
204
199
223
199
147
91
40
44
30
15
26
28
47
29
5
-28
-58
-31
-28
-8
13
13
36
25
8
-25
-36
-11
-4
4
27
21
65
44
12
-18
-30
2
14
10
27
32
39
44
29
-13
-10
6
9
17
32
38
75
48
34
1
1
17
23
34
52
58
81
61
46
1
17
28
34
47
55
53
88
60
50
12
24
35
31
53
64
81
93
73
72
18
41
47
54
64
76
91
107
87
63
31
51
63
71
95
88
103
116
94
70
41
59
76
83
93
104
130
133
119
86
49
69
81
83
104
119
149
141
120
88
53
80
89
94
102
106
137
129
102
65
30
75
77
82
93
87
120
104
78
49
27
55
63
57
59
74
112
100
73
39
12
54
50
58
72
78
111
91
65
23
15
51
44
64
73
77
110
97
74
26
25
55
53
69
84
75
112
91
79
27
27
51
46
53
78
78
105
78
68
33
33
52
54
62
76
74
102
74
54
21
27
31
38
45
68
67
91
67
51
-2
11
29
30
41
50
55
73
56
39
-6
1
16
29
33
53
54
67
53
33
-6
16
20
18
37
52
69
62
49
31
-18
8
20
22
41
52
82
61
48
26
-24
9
17
26
44
34
61
74
46
13
-24
8
15
27
38
39
70
76
36
10
-24
10
18
22
38
43
72
73
39
4
-21
11
23
20
35
43
74
64
44
4
-25
5
10
22
34
26
69
57
40
6
-33
8
3
21
41
37
71
60
37
11
-8
13
-2
12
33
36
57
58
46
-13
-29
17
15
18
42
35
74
61
40
1
-3
18
24
33
50
49
85
72
48
10
15
34
28
36
47
44
80
57
49
2
11
24
24
29
42
50
68
32
22
-24
-11
12
2
3
29
39
59
28
19
-34
-7
0
3
17
34
48
56
28
7
-27
6
-1
0
23
30
37
40
15
-1
-40
-21
-6
-10
8
12
37
59
58
44
42
90
131
168
204
224
250
240
218
175
119
142
117
96
93
76
75
64
21
-3
-33
-24
-12
-11
6
14
43
41
19
-11
-51
5
-1
10
30
36
66
57
37
-2
-32
12
15
10
25
24
55
59
28
-1
-27
2
-8
26
38
43
72
53
36
5
-11
13
8
22
43
45
73
55
37
2
-16
11
11
23
41
40
76
50
32
0
-5
15
17
38
51
49
79
55
34
6
14
14
11
25
46
62
88
58
46
3
16
28
34
34
70
74
90
71
59
11
24
45
55
51
85
84
102
70
63
22
41
48
61
70
81
103
112
89
73
25
48
62
66
86
90
106
104
82
60
15
35
45
45
70
69
81
84
58
41
-1
9
25
23
37
60
67
65
52
22
-15
8
11
17
37
43
84
57
39
12
-21
14
20
26
42
39
70
70
42
12
-19
20
14
26
34
54
83
77
41
3
-24
2
17
27
27
33
60
55
36
6
-19
14
10
16
30
36
70
61
39
2
-14
11
12
29
40
48
78
55
38
-2
-16
9
11
16
36
33
69
64
36
-2
-3
16
17
30
30
47
76
48
31
-17
-4
14
23
13
32
43
78
49
37
-19
-4
15
16
20
37
42
70
45
29
-19
2
15
18
22
39
54
65
52
35
-11
8
8
13
30
46
54
64
41
37
-27
-12
18
22
27
38
52
68
50
16
-19
5
23
27
29
40
67
71
44
13
-23
11
21
6
39
34
45
59
44
8
-33
12
20
16
28
30
52
56
37
5
-28
7
8
4
27
28
59
62
39
-6
-28
9
7
25
49
46
69
64
38
9
-26
14
21
25
38
35
55
64
49
6
-20
18
9
25
46
46
81
67
55
14
1
28
19
27
56
68
99
82
60
22
10
42
34
38
54
59
101
85
61
14
9
25
23
40
52
63
89
67
41
-2
-7
9
17
21
37
41
79
47
32
-26
-5
7
15
12
28
37
55
34
28
-19
-13
-3
-2
13
35
27
59
23
11
-49
-20
-7
-7
-14
10
39
60
53
54
42
93
138
162
199
227
267
273
241
203
149
155
150
129
126
92
86
74
46
22
-21
-3
1
-4
18
25
47
48
24
-4
-30
0
12
20
23
47
70
53
30
0
-18
12
21
27
32
39
65
65
30
10
-24
9
20
20
28
39
70
58
33
9
-22
25
25
32
39
53
80
67
43
14
-16
19
13
21
40
57
82
62
45
9
-9
25
31
40
48
52
78
56
47
17
10
33
28
41
76
73
91
82
75
32
25
41
56
63
75
78
114
99
90
32
47
64
58
87
102
98
122
101
94
56
54
75
67
74
94
105
128
98
89
43
65
75
71
75
86
102
115
97
80
25
43
53
49
63
75
79
111
76
51
12
31
43
44
48
59
73
80
60
26
-4
14
22
35
51
57
71
82
50
17
-5
20
17
20
43
55
80
80
48
15
-10
26
30
34
56
66
79
71
48
17
-5
24
36
49
53
59
92
77
59
22
-3
25
30
39
56
66
83
74
50
27
8
36
34
46
55
60
90
80
58
19
-4
28
22
34
50
53
86
76
57
23
15
38
32
45
49
71
91
77
61
24
11
37
40
53
66
63
98
86
61
23
26
34
39
56
69
63
102
83
65
11
26
31
42
44
66
73
98
86
59
22
34
44
48
55
69
83
102
77
61
13
29
33
45
53
68
81
94
71
59
14
27
40
38
62
67
93
95
70
46
1
30
35
41
66
76
90
93
86
51
14
40
47
51
70
72
92
98
76
45
21
45
50
55
76
86
103
108
81
63
25
52
58
69
91
97
126
112
87
75
37
68
74
80
97
99
125
119
96
63
23
63
69
86
91
75
108
103
77
51
19
59
61
61
78
78
107
97
71
33
13
49
40
57
68
76
104
92
65
30
16
42
36
49
77
76
104
83
57
23
14
16
18
26
41
62
92
78
86
66
101
146
176
27
33
33
31
38
53
62
85
59
46
8
30
35
41
50
70
80
95
71
50
16
44
44
46
60
71
92
103
73
62
24
33
50
60
60
75
100
101
69
48
4
41
50
56
70
81
111
109
88
43
10
38
53
50
76
81
109
102
89
57
25
54
54
67
78
92
108
111
89
66
29
61
69
69
87
89
116
111
97
62
38
66
83
90
101
106
137
123
99
67
46
87
91
102
121
112
150
145
123
86
65
95
100
107
114
129
165
146
119
94
87
105
106
117
132
135
163
146
127
81
82
92
88
102
108
106
140
116
103
52
51
72
67
78
93
92
110
93
77
34
41
59
60
75
86
90
111
75
65
34
33
46
48
51
76
81
105
84
68
29
46
59
55
54
80
90
103
84
65
23
45
58
53
74
83
101
117
74
50
13
39
54
48
63
68
93
99
91
56
13
41
46
49
66
78
107
89
74
45
10
35
37
53
66
76
95
91
61
34
6
35
46
50
64
73
95
95
69
35
11
38
35
56
79
71
105
89
80
42
5
48
47
40
61
66
99
85
66
34
7
32
33
47
70
69
90
89
56
21
0
38
40
45
71
64
97
88
67
35
10
31
25
50
68
50
87
80
62
18
15
29
28
42
58
57
83
70
53
12
21
27
33
55
63
53
80
71
50
10
11
32
32
29
48
60
77
51
60
5
10
18
17
39
49
63
79
54
39
-13
14
21
23
40
54
62
75
50
39
-3
9
0
16
40
49
73
69
62
32
-10
10
18
21
46
51
67
78
57
26
-7
27
37
33
53
62
90
82
77
35
3
35
42
38
50
66
95
85
64
39
6
24
39
44
66
63
89
79
61
29
-23
22
20
21
40
44
72
58
41
12
-21
6
7
18
31
30
67
58
41
-4
-22
8
3
17
34
26
68
54
30
-16
-35
-11
-23
-12
2
12
48
48
32
17
28
76
117
164
206
231
281
269
241
203
180
174
150
132
123
92
99
59
31
-9
-9
-2
-15
0
12
16
42
21
8
-32
-24
-1
7
17
25
19
54
47
29
-26
-6
-1
6
15
35
43
60
27
25
-25
-2
-1
10
14
26
44
55
35
29
-18
-3
11
10
23
47
57
51
19
10
-18
5
10
22
42
45
65
63
34
10
-15
9
21
18
45
49
78
67
40
10
-20
14
17
35
54
50
78
72
54
22
-2
23
31
23
53
60
75
76
47
21
-6
18
27
42
55
61
92
81
59
30
8
40
37
47
56
71
102
96
68
43
19
47
50
61
71
78
107
94
69
31
-1
32
39
52
71
69
81
66
47
12
-9
17
17
16
37
35
71
50
27
-16
-20
-4
5
19
37
32
60
36
25
-20
-25
-9
3
14
23
37
47
35
27
-17
-19
0
9
3
22
32
53
40
25
-20
-9
5
2
9
35
40
55
32
23
-17
-16
-2
-1
15
37
41
51
33
26
-26
-3
6
13
18
32
51
69
43
27
-14
6
11
17
26
39
61
63
38
19
-10
6
6
12
49
48
64
61
46
25
-5
15
18
17
40
53
68
64
41
12
-15
15
12
19
38
40
77
71
42
17
-33
9
7
18
32
39
73
65
41
11
-18
11
2
37
30
34
69
63
43
7
-13
14
12
25
39
36
72
62
40
4
-18
19
8
26
42
35
77
55
36
4
-16
13
19
33
41
45
79
65
44
9
-4
22
25
28
57
52
78
67
52
17
8
36
31
31
57
64
95
73
65
25
21
41
49
51
61
86
106
87
82
16
26
33
37
54
71
80
102
80
54
11
24
33
25
44
47
63
66
47
34
-14
13
16
14
23
43
58
58
57
31
-8
3
15
23
40
46
64
71
43
20
-15
8
12
16
31
33
51
53
11
-13
-48
-12
-1
7
53
74
135
159
168
165
168
219
230
230
246
238
247
204
169
110
60
55
28
25
39
50
76
48
21
-17
-48
-15
-7
6
33
34
72
55
41
4
-23
11
20
25
39
47
80
68
42
9
-14
17
14
29
53
51
82
68
52
2
2
20
35
26
57
58
89
77
59
22
9
38
34
46
49
54
94
79
62
24
29
42
38
56
78
76
101
71
73
24
33
47
39
64
78
93
107
78
64
15
25
48
55
72
91
97
119
95
81
29
45
59
70
81
103
126
131
100
92
60
84
85
99
104
106
126
147
118
98
57
82
94
104
112
120
153
173
122
99
66
76
98
91
115
103
142
134
107
71
41
63
57
59
81
94
112
97
83
48
8
39
40
54
72
70
99
89
66
37
3
35
35
43
57
62
94
88
63
31
-4
35
30
42
65
70
98
86
70
28
-2
24
37
37
56
62
95
87
58
29
0
27
17
65
66
75
105
82
62
23
3
39
43
46
60
75
113
81
68
33
30
45
42
56
74
71
107
90
67
19
35
50
51
66
78
83
115
99
71
35
32
46
61
66
78
93
121
98
78
26
44
49
52
75
112
107
120
78
93
39
52
64
71
80
101
125
127
90
75
35
58
67
77
84
95
116
122
93
74
35
51
66
71
92
98
122
123
94
74
36
61
63
73
95
92
117
115
91
64
30
63
66
79
94
97
120
118
93
53
21
64
73
79
98
111
126
121
91
65
39
64
66
83
93
95
126
111
104
67
32
75
64
85
94
89
127
126
102
60
37
63
65
81
97
91
138
124
100
55
37
80
75
82
105
108
149
130
109
65
69
93
88
93
109
110
147
134
119
68
69
96
91
104
119
124
153
117
104
66
66
90
94
97
111
115
135
127
99
57
57
88
79
78
112
120
133
114
106
56
64
81
81
89
102
103
122
101
95
40
52
61
69
86
94
110
110
82
58
15
42
48
73
102
131
183
214
222
223
203
257
271
269
286
267
280
262
218
161
102
106
94
94
94
99
109
109
80
57
12
29
46
58
85
93
119
111
92
63
38
64
72
74
94
100
127
109
107
74
34
68
65
80
93
103
123
128
102
58
35
79
70
87
102
110
130
114
92
58
36
79
80
83
108
109
138
127
99
68
47
82
87
95
110
114
148
136
123
71
66
93
94
103
116
120
161
144
125
77
84
102
105
122
134
146
156
144
132
101
101
120
121
126
154
165
194
161
156
107
131
134
142
153
163
176
201
175
163
134
142
147
158
163
175
188
206
181
161
112
135
141
152
152
163
177
185
159
140
90
104
119
123
136
147
151
169
136
111
79
96
101
94
108
126
154
148
120
96
55
90
96
110
126
127
154
145
115
91
60
95
96
101
123
121
145
152
139
107
57
90
101
101
122
126
159
149
127
98
73
95
98
110
131
133
164
151
128
95
60
100
106
114
124
129
171
143
123
94
66
96
101
119
118
124
157
152
121
85
76
106
99
104
129
120
180
149
125
88
81
114
113
118
130
136
173
151
139
96
104
114
100
120
142
142
177
144
133
89
92
116
114
122
135
142
165
148
138
83
86
107
116
128
140
143
171
152
135
86
105
109
112
112
147
164
174
152
145
92
111
112
123
141
148
159
174
142
133
97
113
128
126
145
156
165
178
155
136
101
118
116
134
158
157
178
179
164
131
87
123
135
152
164
166
182
189
168
142
112
138
143
148
166
176
200
200
176
143
111
144
149
153
169
168
200
190
170
134
100
135
136
148
155
154
188
179
152
116
94
128
128
144
144
159
191
182
154
121
88
124
122
132
165
150
193
172
147
109
94
118
124
125
139
136
174
166
131
73
91
101
120
149
166
190
258
275
286
277
290
322
315
327
331
333
331
296
250
190
172
155
131
137
156
154
180
142
125
87
90
109
108
112
138
145
168
148
146
98
108
129
131
142
156
173
187
154
135
109
118
130
128
136
155
186
181
157
142
103
122
129
143
147
156
182
194
169
137
109
127
139
137
159
162
187
182
164
148
115
136
143
139
157
164
195
198
176
141
121
148
138
146
174
167
203
205
168
135
113
146
150
152
181
178
200
201
179
149
122
152
161
176
172
174
217
210
184
165
135
165
162
175
193
199
232
222
194
159
136
175
172
183
203
201
239
222
197
161
138
171
167
182
194
179
214
203
181
128
123
146
147
139
165
159
187
167
150
108
101
113
122
131
139
143
172
159
143
92
99
115
109
122
138
135
174
146
128
86
84
109
109
127
140
153
168
150
131
80
86
104
109
107
129
143
166
140
134
85
96
111
106
122
133
154
161
128
126
90
99
106
111
129
150
168
159
143
118
94
120
120
123
137
136
166
167
146
123
82
107
120
125
148
146
178
169
139
116
84
109
122
119
141
150
178
173
152
126
90
122
128
126
148
148
186
173
149
119
96
120
115
127
146
151
183
176
144
112
79
124
114
121
132
145
184
170
139
101
83
116
113
124
134
140
180
166
146
106
86
113
115
123
144
156
184
166
152
105
90
111
113
126
142
139
178
165
141
96
94
118
110
128
141
146
180
153
144
98
100
112
125
127
144
150
170
150
139
87
99
112
127
131
138
151
174
159
139
77
93
123
119
123
145
163
170
134
129
84
104
112
121
134
149
162
174
145
135
88
108
128
130
148
160
181
186
166
145
100
137
144
140
164
168
188
196
170
137
104
134
141
143
151
156
184
185
155
138
104
130
133
140
148
154
178
169
140
111
90
117
111
123
142
147
170
166
134
110
82
113
118
118
135
141
167
159
137
110
85
112
105
108
126
122
145
145
105
71
50
90
101
120
154
179
249
271
281
259
270
320
325
335
353
337
345
326
258
206
169
157
136
140
140
136
166
142
119
75
64
88
102
102
120
125
171
152
128
83
81
97
98
108
126
131
158
145
123
75
88
103
99
107
125
135
156
138
125
69
81
93
105
112
139
138
159
133
113
70
86
116
108
119
125
151
161
133
99
69
104
117
113
122
142
160
164
146
130
69
95
97
107
124
140
159
166
140
119
78
102
115
121
135
129
164
167
147
112
80
109
122
125
141
148
179
174
150
125
87
123
130
134
162
162
188
169
162
127
98
128
137
142
152
159
189
187
155
125
89
120
121
116
134
118
163
154
129
93
57
76
84
88
98
95
142
135
91
53
31
58
56
69
80
76
119
98
79
42
27
42
57
61
72
68
109
89
68
30
23
45
38
53
76
76
94
76
66
16
24
42
41
51
75
81
95
79
66
31
39
48
41
54
74
78
95
79
74
18
37
47
48
57
81
90
106
80
64
22
39
48
45
47
80
97
97
88
63
3
28
40
49
56
63
84
95
81
54
2
36
36
46
70
65
86
92
71
40
-4
30
39
39
48
59
83
82
71
31
-8
17
25
36
60
62
91
81
62
29
-5
26
33
48
64
57
93
84
59
33
-4
34
37
41
51
57
85
91
61
23
-3
33
26
39
59
64
93
80
56
28
-4
32
25
29
51
53
92
75
63
14
-6
34
24
33
44
52
85
65
52
18
2
20
22
32
54
54
85
66
41
-2
-13
22
18
26
51
45
82
65
45
-4
4
22
20
36
51
63
87
54
45
7
11
27
28
37
54
58
89
59
50
9
18
28
26
42
59
63
77
65
64
12
28
41
44
56
76
76
101
77
68
18
40
47
53
68
85
100
100
75
59
9
39
42
42
62
62
91
98
65
41
9
29
36
40
53
53
75
78
57
25
-13
23
26
28
52
49
79
68
44
20
-15
23
26
31
48
50
78
74
56
3
-29
2
5
11
25
23
51
40
23
-1
-16
35
64
102
150
180
257
272
255
240
204
234
216
210
199
174
187
142
80
30
-8
13
9
20
37
34
61
41
25
-19
-31
4
4
17
35
42
73
61
39
-2
-11
16
16
35
52
44
80
69
36
-1
-4
12
18
31
43
51
79
63
47
8
13
18
30
37
49
57
74
59
49
3
14
28
34
41
51
64
78
60
50
1
19
30
25
44
60
77
87
57
43
-2
16
31
34
41
58
80
82
73
53
7
29
49
42
60
71
95
100
73
63
27
43
52
51
82
96
111
117
87
64
33
63
58
57
83
93
126
119
92
65
34
58
70
65
86
93
126
117
90
62
41
67
83
71
93
88
110
98
74
50
12
40
40
46
65
52
88
72
49
16
-11
21
25
32
42
47
79
66
38
16
-16
12
18
24
34
43
79
66
41
3
-18
15
11
24
43
38
76
59
43
0
-12
12
5
20
38
38
74
51
38
-9
-13
1
7
16
35
44
78
54
43
-4
-23
17
12
20
39
44
72
50
37
-9
1
15
19
18
34
59
74
43
26
-12
5
8
9
11
28
42
55
47
19
-28
-10
7
9
20
39
33
54
34
24
-21
-8
3
11
31
22
46
51
33
12
-30
-11
-4
7
25
34
55
53
26
2
-42
-9
-3
-6
19
0
26
35
15
-13
-40
-14
-20
-7
-2
17
49
40
25
-15
-50
-27
-8
-1
3
16
50
39
15
-22
-53
-13
-6
-9
20
15
49
43
13
-25
-37
-12
-16
-5
14
10
41
34
15
-22
-43
-9
-14
1
14
19
57
37
15
-28
-59
-12
-8
-1
15
19
46
33
12
-25
-46
-12
-9
-2
19
22
47
38
14
-15
-22
-4
-9
7
26
31
56
40
31
-25
-23
1
-4
24
34
42
65
49
36
-15
-1
14
7
26
38
48
69
56
43
-1
6
20
35
45
58
67
81
56
46
2
28
37
32
30
55
69
81
56
45
-4
18
28
27
48
43
58
63
35
12
-29
-3
8
9
21
24
52
50
28
4
-39
-2
-4
-4
18
18
46
45
18
-6
-44
-15
-10
-10
8
5
33
16
-8
-25
-77
-52
-36
-30
9
25
79
109
105
98
109
177
204
225
239
235
259
223
177
117
69
88
51
22
15
34
61
41
10
-38
-66
-31
-35
-29
-8
-1
34
22
-1
-33
-50
-15
-20
-7
6
7
44
37
10
-31
-43
-13
-21
-6
14
9
53
29
5
-21
-40
-11
-6
0
28
30
50
27
23
-28
-29
-6
0
-2
29
31
50
34
25
-31
-25
3
11
16
31
39
60
46
20
-27
2
15
8
14
39
43
65
42
36
-9
4
20
27
34
49
70
79
53
41
1
14
28
40
49
49
87
93
73
51
13
29
39
53
71
77
101
101
85
63
30
52
58
70
94
86
108
96
87
60
30
46
53
70
83
86
107
95
81
40
3
31
46
54
51
53
80
74
60
24
-17
17
30
30
41
47
71
60
39
6
-22
3
4
17
34
32
65
65
42
0
-25
6
2
19
26
35
72
60
41
-2
-24
8
-10
12
29
33
72
50
44
-1
-21
4
11
25
39
37
61
49
31
-5
-20
3
5
15
26
38
68
33
18
-24
-19
-4
3
24
30
38
50
28
12
-30
-23
-7
-6
2
19
38
61
38
15
-26
-11
-3
-6
11
23
31
47
26
6
-40
-24
-13
-7
6
18
44
50
21
16
-37
-18
-6
-2
7
18
50
54
23
5
-39
-4
-10
-3
17
20
42
49
21
-3
-32
-3
-10
6
25
21
45
46
16
1
-52
-21
-9
-6
5
14
44
42
18
-11
-51
-23
-2
-3
12
12
43
35
18
-22
-58
-22
-8
-6
10
5
32
23
24
-16
-56
-14
-12
2
12
14
42
36
10
-16
-52
-19
-19
-7
5
16
49
37
9
-31
-43
-16
-25
-4
10
14
54
26
5
-33
-43
-15
-16
-7
6
11
50
28
14
-29
-42
-18
-13
1
25
18
42
26
13
-28
-20
-8
-11
6
20
20
45
29
19
-28
-19
3
-8
12
26
44
69
51
28
-12
1
14
22
26
45
59
69
34
24
-27
-4
9
11
13
33
50
63
42
20
-24
-1
-10
-8
5
20
46
37
26
1
-46
-16
-4
-13
11
7
53
52
17
-8
-43
-21
-13
-9
21
7
52
38
15
-17
-58
-28
-22
-27
-10
-1
20
24
3
-26
-50
1
27
62
113
147
216
236
240
211
168
190
176
168
162
132
154
131
66
-2
-16
7
1
-3
6
5
37
25
-9
-43
-45
-13
-17
6
26
17
54
48
27
-12
-38
0
-2
13
31
35
64
51
31
-15
-23
3
-5
6
21
24
64
46
32
-9
-23
3
4
28
32
30
67
51
32
-15
-15
6
13
20
38
36
67
48
33
-4
-13
15
24
22
36
49
76
46
48
-3
6
23
17
25
49
60
72
57
54
-4
14
34
33
47
59
85
93
68
52
12
26
35
47
70
75
94
105
82
70
21
39
54
72
83
87
114
119
100
71
27
66
83
70
88
95
127
119
94
78
33
53
61
62
85
83
102
95
74
33
-2
28
31
42
48
60
87
73
48
18
-7
25
24
33
49
52
82
79
45
10
-22
20
17
24
40
42
77
64
43
17
-23
7
8
17
32
38
78
67
35
-1
-22
-1
4
8
40
37
65
56
43
-1
-26
5
5
22
36
42
71
54
34
-9
-21
8
9
20
40
36
69
48
26
-1
-11
9
21
16
30
35
66
50
26
-12
1
9
9
32
35
36
75
46
30
-17
-6
11
17
22
35
56
60
47
29
-28
-1
15
17
19
31
50
63
32
30
-22
6
14
5
22
40
56
66
37
28
-23
4
7
14
28
40
58
70
35
17
-22
6
11
17
36
31
57
67
42
7
-35
1
11
15
35
42
68
61
36
8
-34
6
19
9
37
36
74
66
36
8
-25
13
13
19
46
42
65
53
34
6
-17
10
7
27
29
40
62
62
41
11
-15
13
10
20
41
39
78
61
35
4
-24
4
6
29
42
44
74
61
48
4
-5
15
18
34
37
47
80
67
48
6
-6
17
16
36
47
55
85
70
59
16
11
32
37
65
68
73
105
82
58
19
24
35
30
43
66
77
101
83
52
7
26
39
28
41
53
72
98
61
47
1
12
14
24
38
43
68
77
53
34
-13
8
21
19
28
45
66
75
51
28
-19
1
13
21
34
30
56
63
38
9
-44
-12
5
7
27
38
85
110
105
100
99
165
187
209
237
236
256
243
216
150
104
106
102
71
58
54
83
65
38
1
-32
0
1
5
22
27
65
61
28
5
-27
4
21
21
38
43
70
67
35
8
-18
22
15
27
32
48
78
66
42
1
-19
19
16
29
44
54
86
65
39
14
-5
12
20
33
39
51
77
61
52
3
-3
23
22
34
48
56
88
63
54
4
7
32
23
30
52
58
95
83
59
14
13
32
27
44
56
66
93
72
53
32
37
48
42
58
76
86
116
80
71
32
46
48
57
63
81
103
124
92
77
29
49
67
69
83
89
110
129
99
88
43
63
63
66
89
81
116
121
91
62
6
39
50
54
63
64
90
87
68
47
0
25
36
35
48
53
80
74
51
23
-12
5
15
28
42
41
84
76
46
13
-22
12
17
28
44
43
75
67
41
13
-11
6
6
14
33
34
77
78
46
2
-29
15
18
25
39
42
72
55
31
1
-28
6
4
28
35
31
69
56
34
-3
-25
2
-3
8
34
32
66
52
40
-3
-22
6
10
10
27
39
65
50
41
-21
-16
2
4
13
32
40
74
56
37
-5
-7
4
9
28
41
48
74
42
30
-6
-2
12
15
26
49
54
64
48
28
-15
0
15
9
16
35
56
68
46
30
-24
2
8
17
23
33
60
68
42
26
-16
-3
25
16
25
35
61
69
44
23
-24
-3
12
11
34
41
61
55
32
9
-24
4
12
10
28
37
64
64
45
11
-26
2
20
26
39
33
63
61
37
13
-16
12
11
19
39
40
72
62
38
6
-25
4
14
18
28
38
70
63
42
3
-24
8
17
15
43
39
79
71
40
8
-15
22
15
27
47
55
89
73
54
12
-8
29
26
33
58
66
98
89
68
8
15
48
36
45
62
70
99
85
51
17
19
28
30
38
57
68
93
75
56
4
4
21
40
35
38
56
71
48
43
6
5
22
14
22
47
49
83
48
39
13
2
4
12
21
33
49
64
36
21
-30
-15
-12
-7
5
22
56
73
69
74
58
110
151
179
214
237
252
249
222
187
121
125
118
110
94
68
79
56
24
12
-33
-8
3
6
21
20
54
34
18
-5
-33
2
12
23
33
29
62
58
36
4
-29
2
9
9
29
37
69
60
43
11
-26
3
18
20
32
44
68
55
34
6
-25
10
15
19
33
42
78
67
34
-2
-14
25
5
18
38
48
69
63
40
7
-7
32
18
25
38
47
86
68
46
9
1
12
32
35
41
53
93
65
53
20
22
44
35
49
74
74
93
78
69
26
23
41
50
65
87
95
120
84
74
38
50
61
67
72
86
111
121
108
91
39
60
67
69
71
93
107
122
97
84
29
51
53
57
53
72
106
95
71
56
12
31
27
34
44
51
77
84
54
36
2
15
27
28
36
39
74
72
50
22
-12
19
16
33
47
45
72
77
47
13
-13
17
28
40
40
44
74
73
44
22
-16
12
20
25
46
52
73
65
42
19
-16
9
12
28
49
46
77
67
37
13
-12
17
19
30
48
54
71
65
45
6
-26
14
20
27
45
58
67
62
42
4
-20
20
19
26
42
35
73
62
34
-2
-5
23
18
28
40
43
65
49
40
-2
-8
16
19
20
36
45
72
50
32
-11
-9
14
21
16
33
45
70
39
28
-8
-3
11
15
16
28
45
71
46
31
-10
1
5
8
15
26
46
64
45
33
-24
-6
6
5
19
32
50
59
33
29
-31
-13
2
0
19
26
40
50
33
6
-27
-11
6
-2
15
9
45
49
26
0
-40
-14
-10
2
23
24
43
43
25
-5
-42
-15
-1
1
17
23
51
58
21
-9
-37
-8
2
4
13
18
44
40
18
-5
-35
-10
4
6
19
17
49
42
19
-8
-41
-9
7
11
29
28
69
58
33
-5
-28
8
7
14
31
26
62
51
35
-16
-40
-1
-15
9
25
26
56
41
13
-26
-38
-2
-24
-3
19
10
47
20
11
-41
-47
-7
-20
-11
7
-13
44
24
-1
-37
-38
-40
-12
-14
6
15
36
8
-6
-54
-54
-39
-42
-26
-25
-8
19
5
9
-11
22
64
103
142
179
215
248
217
195
146
151
139
123
115
110
103
72
30
1
-42
-31
-26
-42
-28
-18
9
13
-13
-23
-66
-35
-20
-10
-4
-5
33
34
5
-18
-55
-31
-23
-18
-6
10
45
42
10
-20
-60
-28
-23
-22
3
-5
20
30
7
-24
-49
-20
-22
-12
2
6
33
25
8
-21
-52
-27
-25
-12
5
10
33
28
6
-18
-53
-18
-13
-3
8
6
42
37
13
-23
-44
-23
-21
-8
14
9
49
38
4
-21
-33
-20
-8
-4
25
19
60
50
22
-9
-26
5
12
18
33
41
62
60
34
-17
-15
5
13
23
51
47
71
56
42
3
11
18
26
35
45
53
80
52
37
-10
-3
7
8
15
30
33
58
35
14
-29
-23
-3
-11
-4
7
25
37
10
-7
-53
-36
-34
-28
-10
-8
8
25
8
-13
-67
-52
-29
-20
-10
-6
18
20
-3
-17
-63
-46
-31
-23
-13
-21
17
21
-4
-26
-53
-39
-43
-36
-4
-3
19
19
-4
-23
-60
-29
-30
-42
6
0
20
16
-5
-31
-64
-26
-32
-31
-9
-11
18
16
-3
-42
-69
-33
-22
-19
-13
-7
31
20
-1
-35
-70
-33
-51
-32
-5
-6
23
-2
2
-27
-63
-35
-34
-37
-17
-9
22
15
-9
-45
-56
-35
-44
-29
-18
-10
23
6
-11
-63
-72
-36
-42
-32
-16
-14
13
0
-22
-56
-73
-48
-40
-33
-18
-20
12
-16
-21
-64
-60
-45
-49
-30
-21
-22
12
-8
-28
-69
-62
-51
-48
-40
-27
-12
12
-17
-30
-81
-66
-50
-44
-38
-25
-15
-3
-28
-39
-79
-64
-52
-49
-41
-29
0
-1
-34
-40
-76
-64
-55
-62
-42
-29
4
-12
-31
-47
-87
-70
-43
-46
-18
-38
-8
4
-32
-54
-80
-66
-53
-67
-32
-30
-7
-6
-36
-56
-93
-62
-50
-44
-34
-23
9
6
-23
-47
-85
-59
-43
-34
-22
-13
12
23
-5
-44
-70
-39
-31
-25
-5
-5
25
19
-19
-56
-64
-37
-42
-24
-15
-9
23
3
-11
-35
-72
-47
-45
-37
-34
-23
5
-11
-37
-78
-96
-52
-53
-40
-37
-43
-16
-10
-39
-77
-92
-59
-65
-50
-41
-41
-6
-18
-53
-84
-92
-70
-76
-71
-65
-48
-24
-49
-72
-120
-113
-82
-76
-54
-19
30
78
91
104
99
118
148
153
150
158
154
147
103
71
-2
-20
-39
-63
-62
-43
-33
-23
-59
-71
-129
-118
-100
-84
-78
-59
-48
-16
-49
-56
-111
-82
-71
-73
-62
-57
-34
-28
-47
-71
-109
-82
-78
-79
-59
-56
-28
-32
-56
-77
-106
-86
-79
-73
-49
-55
-21
-18
-50
-78
-115
-82
-54
-61
-56
-37
-6
-24
-48
-74
-112
-81
-69
-61
-45
-41
-7
-13
-42
-65
-98
-64
-56
-54
-48
-32
-10
-13
-34
-73
-89
-61
-61
-44
-34
-30
11
-4
-32
-60
-85
-51
-58
-28
-24
-26
22
15
-9
-50
-77
-36
-23
-20
-9
-3
24
11
-11
-41
-53
-24
-29
3
3
-3
40
23
3
-46
-45
-19
-20
-16
0
6
31
-2
-22
-49
-64
-42
-32
-36
-23
-13
7
-10
-30
-81
-76
-59
-54
-57
-42
-29
-6
-21
-36
-89
-78
-68
-63
-58
-42
-28
-18
-39
-45
-96
-85
-74
-67
-49
-44
-21
-12
-37
-53
-103
-65
-68
-60
-46
-45
-20
-17
-38
-52
-94
-84
-77
-59
-39
-41
-14
-14
-38
-58
-99
-66
-72
-70
-41
-39
-14
-22
-37
-71
-104
-76
-67
-60
-44
-39
-9
-11
-33
-72
-97
-76
-70
-61
-44
-38
-14
-23
-40
-71
-108
-79
-66
-59
-40
-36
-10
-25
-44
-81
-113
-69
-70
-55
-49
-46
-21
-38
-50
-78
-105
-77
-73
-69
-50
-39
-13
-38
-58
-89
-109
-75
-71
-67
-50
-51
-18
-35
-48
-88
-99
-75
-81
-68
-57
-48
-18
-33
-51
-97
-98
-68
-72
-72
-58
-46
-20
-46
-60
-95
-96
-83
-80
-66
-52
-41
-17
-37
-49
-93
-98
-65
-75
-70
-55
-36
-17
-53
-60
-95
-88
-70
-64
-57
-46
-31
-18
-43
-55
-86
-72
-71
-74
-55
-50
-26
-15
-39
-55
-98
-86
-67
-65
-67
-53
-27
-27
-41
-63
-105
-82
-69
-62
-51
-46
-16
-13
-41
-67
-101
-69
-67
-62
-45
-35
-22
-12
-44
-64
-100
-73
-67
-44
-23
-25
2
2
-20
-47
-80
-64
-62
-45
-34
-27
3
-6
-34
-54
-90
-68
-55
-42
-25
-25
5
-16
-47
-73
-91
-62
-66
-64
-40
-48
-15
-23
-49
-83
-112
-80
-80
-69
-52
-37
-7
-15
-47
-86
-105
-84
-83
-71
-49
-49
-17
-38
-59
-95
-115
-87
-96
-90
-87
-64
-20
-37
-27
-48
-35
21
52
96
136
166
206
181
164
121
99
88
73
37
51
23
9
-34
-48
-84
-84
-76
-85
-80
-82
-61
-40
-62
-68
-120
-108
-84
-76
-80
-58
-37
-29
-52
-59
-106
-97
-70
-75
-69
-45
-28
-24
-51
-61
-106
-84
-75
-85
-59
-43
-30
-25
-38
-59
-112
-88
-68
-71
-54
-42
-16
-15
-51
-70
-106
-83
-67
-58
-32
-46
-23
-13
-37
-64
-97
-68
-65
-65
-38
-28
-5
-12
-29
-56
-82
-64
-59
-47
-30
-31
-1
-10
-35
-57
-77
-47
-50
-43
-15
-16
20
23
-25
-51
-73
-33
-29
-16
-17
-1
40
36
10
-30
-55
-26
-20
-10
7
14
41
33
17
-31
-57
-19
-15
-9
-1
12
45
33
7
-38
-47
-32
-40
-24
-11
-13
19
1
-12
-64
-69
-49
-46
-35
-37
-32
-2
-21
-33
-81
-81
-65
-68
-53
-38
-34
-4
-28
-47
-92
-90
-75
-76
-59
-53
-40
-25
-32
-52
-93
-92
-77
-67
-64
-41
-25
-8
-33
-44
-92
-88
-70
-58
-49
-45
-24
-8
-31
-49
-95
-72
-62
-61
-47
-38
-29
-20
-29
-41
-98
-76
-68
-64
-41
-44
-15
-6
-30
-60
-89
-71
-64
-59
-44
-47
-12
-14
-20
-57
-91
-63
-59
-47
-41
-38
-7
-9
-35
-65
-93
-64
-59
-52
-37
-34
-10
-10
-35
-65
-86
-74
-63
-54
-46
-35
5
-8
-46
-77
-103
-73
-63
-46
-46
-46
-7
-10
-40
-73
-101
-68
-71
-65
-43
-42
-7
-17
-34
-66
-105
-69
-69
-46
-39
-35
-4
-20
-39
-82
-100
-63
-64
-61
-45
-43
-16
-25
-38
-84
-91
-63
-70
-61
-42
-28
-14
-26
-46
-84
-89
-59
-68
-63
-44
-26
-1
-39
-52
-78
-74
-64
-67
-59
-46
-30
0
-27
-41
-87
-93
-62
-61
-57
-46
-13
-11
-38
-44
-93
-74
-66
-73
-64
-44
-27
-16
-32
-46
-91
-72
-66
-59
-45
-31
-9
-4
-35
-42
-90
-68
-60
-56
-36
-33
1
3
-21
-37
-77
-57
-44
-39
-22
-11
29
7
-15
-58
-81
-49
-54
-44
-23
-19
4
0
-27
-54
-76
-60
-60
-57
-40
-34
-2
-4
-33
-68
-102
-76
-73
-57
-40
-31
-11
-22
-41
-85
-103
-75
-78
-59
-55
-47
-13
-25
-53
-84
-120
-81
-89
-82
-74
-58
-36
-53
-63
-88
-110
-69
-44
-11
37
74
136
148
156
142
122
139
140
135
132
120
112
63
11
-52
-78
-70
-51
-52
-52
-44
-17
-45
-64
-105
-108
-82
-78
-68
-47
-36
-6
-24
-40
-84
-85
-62
-69
-50
-41
-30
5
-20
-40
-82
-75
-64
-60
-46
-34
-25
5
-21
-41
-74
-62
-67
-59
-51
-30
-8
10
-26
-40
-81
-57
-51
-49
-37
-25
-5
6
-18
-34
-82
-58
-55
-44
-23
-12
5
8
-11
-40
-74
-52
-47
-39
-19
-10
14
21
-5
-28
-65
-48
-28
-29
-8
-1
29
29
5
-18
-73
-30
-11
-10
10
17
45
38
14
-2
-30
-14
-3
-5
19
35
67
52
25
2
-32
9
5
18
30
33
70
60
32
-3
-36
-2
-2
8
11
17
54
33
12
-25
-48
-14
-24
-12
-3
1
27
15
-8
-45
-68
-45
-37
-34
-23
-18
19
-5
-24
-50
-63
-46
-42
-35
-28
-13
20
-23
-17
-61
-56
-44
-47
-34
-18
-8
18
-9
-25
-64
-58
-52
-54
-30
-24
-9
10
-8
-25
-63
-64
-37
-40
-37
-15
-6
11
-12
-26
-69
-58
-45
-34
-30
-16
-1
11
-14
-35
-72
-52
-43
-35
-27
-16
5
24
-3
-25
-69
-57
-49
-36
-23
-11
5
9
-11
-38
-61
-56
-41
-33
-17
-11
15
10
-5
-29
-76
-55
-43
-41
-30
-13
26
3
-21
-46
-79
-46
-37
-37
-19
-19
6
8
-23
-45
-67
-49
-42
-34
-22
-9
13
6
-12
-40
-75
-52
-44
-35
-22
-13
17
14
-18
-50
-80
-54
-48
-36
-19
-10
12
1
-16
-58
-78
-49
-46
-30
-27
-20
18
-1
-29
-56
-74
-45
-45
-37
-34
-10
19
9
-9
-70
-74
-52
-49
-26
-23
-15
15
1
-21
-63
-62
-40
-39
-32
-10
-8
22
-6
-22
-60
-60
-42
-40
-27
-14
-9
24
5
-6
-53
-37
-24
-31
-23
-10
11
34
2
-3
-38
-22
-23
-20
-3
9
27
50
28
10
-48
-32
-18
-16
-9
5
29
23
-1
-14
-55
-41
-34
-20
-10
5
9
18
-6
-32
-77
-57
-44
-39
-18
-25
2
7
-19
-34
-75
-55
-49
-43
-23
-20
6
13
-16
-44
-79
-50
-43
-42
-31
-33
-6
-8
-40
-74
-107
-80
-68
-61
-34
-14
33
49
53
54
67
125
146
169
201
191
221
191
140
91
41
56
35
-7
-16
-7
35
18
-17
-66
-94
-66
-65
-60
-37
-20
14
0
-16
-49
-68
-45
-39
-26
-19
-9
24
13
-7
-47
-54
-28
-21
-12
-2
-2
31
18
-7
-47
-54
-27
-31
-25
-2
-5
27
10
-6
-52
-52
-29
-30
-13
-3
1
29
9
-3
-44
-33
-24
-23
-17
7
27
40
13
-6
-48
-37
-7
-4
1
8
25
54
18
6
-41
-21
1
-7
17
22
40
58
31
25
-22
4
8
10
22
43
67
69
48
29
-6
19
28
28
50
65
80
76
67
36
10
29
37
53
66
70
102
84
61
39
9
37
37
41
56
62
79
79
56
22
-5
21
19
25
40
45
69
61
37
9
-18
2
6
7
16
33
60
51
16
-8
-31
5
3
23
20
26
56
49
21
-9
-36
-6
-1
10
17
19
58
38
18
-7
-25
-5
3
8
21
28
57
55
26
-13
-26
-1
1
18
28
14
65
49
36
-2
-10
9
-3
15
33
45
73
52
31
-8
-10
15
10
22
40
45
76
56
34
-12
-2
5
36
17
34
46
59
46
31
-18
-6
14
15
29
22
41
60
45
25
-20
-2
9
18
22
30
60
69
38
30
-20
-2
10
21
28
30
51
63
39
22
-20
-1
8
11
30
28
49
61
47
9
-27
-6
8
19
28
40
69
61
30
8
-29
9
21
16
32
38
68
61
33
1
-21
11
12
14
29
34
66
59
37
6
-22
10
13
12
31
37
69
52
39
18
-18
14
12
17
29
44
71
68
44
4
-14
20
28
37
39
40
84
70
47
6
-5
25
27
47
50
66
104
83
53
19
10
54
33
47
67
68
95
74
68
22
20
43
41
41
41
64
91
68
49
8
4
22
21
30
46
52
76
68
38
-3
5
21
17
29
41
62
75
52
34
3
17
16
17
28
43
56
72
51
39
-23
-2
10
1
6
24
51
69
43
46
33
74
109
141
185
229
265
275
249
229
173
181
148
149
143
122
126
101
58
28
-8
12
12
-3
26
25
54
49
30
12
-22
1
10
25
47
45
67
79
46
20
-19
18
23
33
37
56
92
84
56
19
-7
27
35
43
53
55
77
82
55
21
-1
28
30
44
51
66
101
89
63
25
0
32
35
47
62
65
95
84
61
29
17
42
40
49
62
63
94
83
64
38
28
50
46
54
85
77
99
89
71
37
35
59
61
74
86
92
118
102
89
51
48
72
81
91
102
103
132
118
116
73
68
91
94
110
113
124
142
137
119
70
82
94
97
107
119
134
151
119
105
54
68
77
84
83
84
106
121
100
82
22
44
54
52
61
70
86
92
61
60
13
26
36
40
53
41
84
75
46
23
-5
16
18
25
45
51
69
70
44
27
-19
9
15
23
37
38
65
65
38
11
-22
10
18
12
25
41
69
64
43
11
-26
13
19
19
37
46
70
73
31
9
-25
10
16
28
33
31
61
69
41
8
-24
4
11
21
31
33
72
53
40
6
-10
4
2
25
43
44
78
58
28
-11
-21
4
5
21
28
33
62
59
37
-10
-14
3
-4
13
30
39
66
40
22
-24
-34
-6
-4
8
22
37
60
35
23
-29
-27
-10
-8
6
28
33
54
28
11
-31
-16
1
10
1
17
31
51
35
21
-29
-18
-7
-3
11
22
33
38
27
12
-38
-17
-9
-8
7
18
38
42
18
2
-44
-19
-9
-7
2
15
41
33
20
4
-32
-3
-13
-8
1
23
44
30
22
-9
-50
-18
-21
-11
5
24
59
44
14
-7
-38
-10
-1
-4
22
34
57
49
33
-4
-31
-2
3
7
20
26
55
48
20
-12
-39
-3
-11
-3
10
15
45
32
7
-24
-57
-27
-28
-18
-12
7
26
22
-2
-55
-66
-25
-23
-27
-20
-8
18
5
-22
-47
-73
-41
-38
-25
-14
2
23
-5
-34
-70
-76
-62
-57
-47
-39
-24
3
0
-6
-24
7
57
80
122
171
198
228
199
180
128
124
122
89
77
72
60
51
13
7
-57
-49
-45
-42
-38
-22
-15
1
-9
-40
-67
-35
-38
-32
-26
-11
9
22
-4
-17
-68
-48
-39
-40
-25
-17
13
20
-5
-32
-70
-39
-28
-38
-19
1
19
15
-8
-34
-76
-42
-29
-25
-8
3
23
21
-2
-34
-75
-36
-25
-28
-14
-2
22
19
-8
-29
-60
-33
-31
-24
-11
-2
19
9
-5
-35
-52
-27
-21
-15
1
2
33
24
-2
-30
-53
-31
-4
-7
7
21
49
42
13
-12
-41
-12
0
31
21
28
61
45
22
-7
-27
4
9
15
33
47
65
63
41
-4
-20
13
18
28
38
38
76
54
30
-5
-19
5
2
9
18
16
50
19
18
-31
-32
-14
-14
-11
-1
5
33
11
-5
-52
-53
-41
-27
-20
-5
11
22
-1
-6
-52
-50
-49
-32
-19
-8
10
17
0
-8
-59
-36
-35
-46
-27
-11
14
21
-10
-25
-70
-49
-41
-32
-14
-12
10
19
-9
-31
-71
-50
-49
-39
-24
-16
9
15
-15
-35
-71
-53
-51
-30
-23
-22
2
8
-11
-46
-56
-43
-54
-34
-24
-18
12
-1
-14
-44
-76
-42
-39
-36
-20
-16
13
9
-16
-53
-70
-44
-44
-44
-33
-16
16
7
-19
-46
-77
-35
-43
-32
-10
-12
24
15
-9
-49
-74
-42
-44
-26
-13
-6
31
7
-10
-45
-63
-32
-34
-17
-11
-7
23
5
-11
-52
-64
-34
-31
-30
-17
-7
29
13
-12
-54
-64
-53
-44
-25
-7
-14
7
6
-12
-60
-59
-42
-37
-29
0
4
17
-2
-14
-62
-56
-44
-38
-26
-12
0
18
-11
-27
-56
-46
-24
-29
-26
-6
6
16
-8
-25
-58
-45
-41
-36
-30
-10
7
20
2
-18
-71
-50
-40
-36
-21
-2
12
25
2
-20
-55
-36
-31
-20
-9
3
16
31
11
-8
-41
-16
-16
-4
15
14
43
33
3
-18
-52
-24
-17
-11
-2
8
33
23
1
-29
-55
-35
-22
-22
5
2
17
10
-7
-37
-67
-39
-38
-28
-26
-7
16
12
-11
-42
-65
-37
-44
-28
-15
-6
26
12
-8
-50
-75
-47
-51
-40
-28
-29
2
-11
-26
-57
-77
-27
-19
19
69
104
159
175
174
167
146
161
174
162
153
136
147
110
69
-5
-35
-22
-28
-25
-16
-21
9
-3
-28
-68
-64
-53
-50
-36
-17
-1
29
6
-13
-61
-52
-37
-31
-26
-8
0
22
5
-21
-66
-43
-34
-21
-14
-13
1
22
-2
-11
-64
-40
-25
-19
-23
-13
9
20
-3
-10
-59
-42
-36
-30
-7
-6
26
39
21
-11
-57
-20
-16
-16
0
13
32
39
15
-19
-53
-18
-11
-11
-1
19
40
40
17
-19
-52
-18
-20
-10
8
18
47
40
20
-3
-40
-5
-3
3
19
35
62
50
25
3
-32
