6
8
-8
-6
6
2
15
9
26
9
9
-14
-12
-7
-12
-9
12
17
19
5
-20
4
4
-8
-16
0
13
24
12
1
0
11
25
3
-4
-12
-14
2
0
-13
-8
2
-12
-6
19
23
12
10
-24
-26
-8
-2
3
3
-8
-3
-10
-3
-10
-18
-9
-13
-7
-1
-2
7
16
9
9
19
6
-11
-7
2
36
28
0
16
33
32
16
-2
-4
-2
0
-1
-6
18
33
4
-13
5
14
-14
2
-9
-16
-9
-3
-1
1
-7
5
1
1
23
17
-6
-13
-17
-17
-6
-4
-5
6
7
2
7
16
22
21
24
16
12
22
16
6
8
19
19
12
2
13
16
16
7
-5
-4
12
4
3
-4
-5
-6
-3
-7
3
15
13
16
29
44
18
-11
-15
-9
-7
0
1
-22
-26
-20
-24
-10
1
-14
-22
-11
-17
-26
-16
-10
-1
6
14
2
-12
-12
4
-16
-17
-9
-9
-4
-6
-10
-22
-13
4
5
8
20
14
2
-1
-23
-14
5
3
1
3
27
49
78
94
102
138
173
185
183
184
166
134
101
74
51
29
15
1
-1
-1
-17
-19
-13
-7
11
34
33
15
0
18
-5
-17
-10
7
4
-3
-7
-5
-11
-15
-8
5
-8
-1
-8
-9
-8
1
0
-16
-30
-33
-5
6
0
10
2
2
9
22
9
-1
10
9
10
9
0
-14
-6
-3
-10
-10
-3
3
14
27
21
10
18
27
14
-4
3
2
6
-2
6
8
1
5
5
14
13
16
11
7
7
-5
10
17
5
13
25
33
31
20
26
42
42
28
28
20
42
38
41
22
42
55
47
45
39
30
36
66
83
108
74
78
91
76
72
65
72
86
92
93
85
75
79
89
87
67
73
61
61
74
45
48
46
53
47
43
18
21
22
23
15
15
7
19
2
-4
13
5
-18
-22
-2
3
2
-6
-4
3
-4
14
11
12
-20
-16
-9
-13
-22
-18
-13
5
3
-7
-17
-19
-8
-1
2
-8
-5
-8
-7
-21
-23
-23
-19
-6
-3
-20
-13
-18
-13
-12
-6
1
-1
-3
-9
1
20
-3
-13
-10
-8
-28
-30
-13
3
-1
-4
-18
-16
-5
-13
-10
-13
-5
-3
7
-19
-19
-17
-13
-9
-8
-7
-15
-16
-13
-11
-6
-9
-15
-16
-11
-6
-8
-10
-6
-13
-20
-29
-19
-9
-2
-5
-15
-16
-16
-9
4
37
35
17
1
-11
-19
-17
-15
-13
-10
-5
-8
-8
-14
-30
-23
-12
-1
-3
-10
-16
-16
-13
-17
-13
-15
-16
-9
-10
-11
-18
-13
-7
-6
-19
-13
-11
-13
-21
-11
-9
-4
-6
1
7
-12
-8
-24
-24
-21
-28
-7
-21
-19
-28
-27
5
13
10
1
3
-6
-2
0
6
4
0
6
8
12
2
12
24
16
21
10
3
3
3
3
5
-4
1
-5
-10
-5
-16
-5
0
-6
-16
-15
-16
-19
-12
-9
-12
-13
-17
-21
-25
-12
-12
-12
1
-20
-16
-23
-31
-12
2
0
-14
-14
-29
-23
-16
-18
-17
-15
-13
-5
-1
-9
-14
-10
-7
-3
-11
-21
-14
-12
-26
-23
-27
-30
-27
-31
-36
-38
-29
-9
11
31
52
66
87
125
165
190
207
212
213
203
176
150
119
85
57
46
37
20
-2
-21
-24
-15
-9
2
3
-9
-6
-10
-16
-9
-16
-24
-19
-15
-1
0
-8
-19
-9
-1
10
5
2
1
-3
-15
-24
-15
-16
-25
-27
-16
-8
-5
-4
4
-13
-14
-3
-5
-6
-19
-6
-5
-8
-3
-4
-4
0
10
-9
-1
-5
5
-3
-9
-1
-12
-20
-17
-18
-12
-3
10
8
1
-4
-2
-14
-6
-10
-8
4
8
14
0
13
15
15
5
20
34
15
-11
0
0
3
37
54
39
25
25
30
28
23
22
27
27
36
41
40
42
49
57
68
68
53
56
69
72
81
76
74
72
80
74
82
70
70
82
87
74
42
49
43
39
40
46
48
41
38
33
26
25
35
25
15
19
17
6
7
2
-5
-8
-7
-2
-9
-9
5
-2
-6
-9
-9
-6
-9
-14
-16
-20
-15
-17
-10
-6
-11
-11
-4
3
-7
0
-2
-4
-5
-18
-20
-13
-14
-14
-8
-6
-1
-9
-12
-8
-10
-5
-1
-4
0
-14
-18
-12
-11
-13
-13
-15
-20
-16
-11
-22
-34
-14
-24
-24
-7
-2
10
18
-12
4
-1
-4
-6
-8
-11
-16
-15
-10
-11
-4
-8
-24
-20
-20
-11
-15
-15
-7
-2
-2
-14
-15
-12
-11
-17
-13
-26
-11
-3
-8
-13
-11
-17
-14
-27
-32
-11
1
-6
-8
13
3
3
-4
-8
-3
-2
-18
1
5
-10
-17
-12
-14
-16
-24
-24
-26
-31
-33
-16
2
-4
7
-7
-16
-5
-1
11
2
-13
-10
-5
-10
-7
-19
-17
-8
-15
-18
-21
-22
-10
0
-18
-14
-6
-12
-4
-7
-4
-2
-7
-5
-7
8
-7
5
-9
-20
-38
-23
-17
-5
10
8
-8
-20
-14
-20
-14
-12
-19
-13
-1
-1
-14
-4
-14
-28
-29
-21
-16
-16
-8
-1
-9
-8
-16
-13
-13
-8
6
4
1
17
25
17
0
-34
-11
12
13
10
19
9
8
-9
-12
-16
-13
-3
-6
-7
-2
-16
-19
-14
-9
-5
-6
-9
-6
-7
-21
-25
-32
-30
-28
-28
-17
-21
-5
-12
-16
-24
-30
-27
-12
-18
-13
-1
-5
-13
-43
-40
-25
-16
-18
-21
-33
-16
-7
0
-2
-8
-5
-12
-24
-24
-30
-20
-18
-10
-2
-11
-15
-27
-31
-22
-24
-26
-25
-27
-12
-15
-14
3
16
41
59
79
130
164
196
205
213
216
194
162
137
120
85
52
36
5
-9
-16
-16
-14
-13
4
-2
-14
-15
-41
-29
-11
-11
-15
-11
-7
-5
8
-3
-14
-19
-21
-19
-25
-19
-10
-17
-10
-5
-8
-7
-5
3
-5
-7
-9
-7
2
-18
-35
-24
-19
-15
-7
-8
-5
-21
-19
-27
-26
-10
3
1
0
-11
-7
-6
-16
-16
-23
-11
0
-4
-9
-9
-23
-10
0
8
2
15
26
12
-18
-12
-13
-13
-2
-2
7
14
15
12
13
22
23
20
8
5
10
7
1
2
22
27
23
28
45
45
56
64
13
23
23
24
36
49
51
60
64
72
63
63
68
74
70
85
93
91
47
50
62
56
53
62
63
63
69
46
47
45
31
30
10
30
34
33
29
19
16
19
21
21
25
5
-14
-12
-3
-10
-24
-38
-24
4
3
-8
-16
-18
-10
-9
-10
-4
-21
-21
-14
-14
-21
-23
-26
-17
-14
-17
2
3
1
-19
-24
-30
-25
-17
-16
-10
-1
0
-14
-17
-7
-9
-4
-18
-30
-25
-15
-6
-12
-11
-6
-13
-32
-27
-20
-25
-30
-33
-24
-21
-8
-4
-9
-15
4
-8
-6
-25
-27
-7
6
-13
-28
-22
-18
-8
3
9
-6
-16
-30
-32
-20
-17
-12
-13
-16
-24
-24
-19
-24
-22
-17
-22
-15
-2
13
-4
-11
-33
-25
-17
-9
-1
5
-14
-19
-27
-21
-32
-25
-8
4
1
-31
-27
-24
-15
-9
1
-3
-8
-7
-10
-14
-16
-8
-7
-6
-19
-14
-10
-14
-19
-15
-17
-23
-14
-13
-10
-15
-10
-9
-15
-19
-15
-24
-21
-16
-15
-14
-14
-20
-11
-16
-12
-21
-20
-15
12
-26
-28
1
11
28
11
-21
-40
-42
-26
0
6
-9
-28
-30
-21
-5
10
8
-5
-9
-17
-15
-21
-11
-8
-16
-14
-4
10
8
7
-3
-3
4
4
4
17
22
19
25
23
21
14
34
9
-3
-4
4
2
-2
-1
-4
-6
-15
-6
-5
-16
-27
-32
-10
19
13
-8
-8
-10
-12
-8
-7
6
-7
-9
-26
-15
-8
-2
-4
5
-1
18
24
21
5
-21
-17
-18
4
-2
-30
-42
-32
-30
-23
-22
-17
-16
-9
-18
-5
-7
-5
-3
-1
-5
-7
-4
3
4
-1
-6
-2
-15
-19
-23
-34
-21
-4
9
33
45
65
100
115
140
163
195
192
180
173
142
150
126
79
56
43
41
-22
-32
-20
-27
-16
-10
-18
-17
2
6
-3
7
1
5
-14
-13
2
25
40
7
-33
-5
-6
-17
-3
7
27
0
0
7
-25
-22
-8
-3
12
2
-11
-14
-10
1
18
-1
-5
-2
6
-6
-11
5
10
7
10
10
5
8
-10
-15
-2
10
21
17
15
17
-5
8
14
17
32
15
22
9
18
8
-2
7
8
24
19
10
12
20
9
12
7
18
50
48
37
40
35
22
26
22
32
36
41
28
29
37
38
46
46
57
70
65
64
64
67
97
94
67
55
48
64
86
86
87
101
106
87
87
78
71
88
83
69
81
76
73
69
66
64
62
59
58
61
51
47
56
54
11
0
15
16
16
21
12
14
7
10
18
31
20
19
15
13
-5
-18
-7
-6
-12
2
10
11
7
-8
-15
-14
-13
-12
-6
7
9
19
28
13
-9
-20
-11
-13
-5
-11
-15
0
6
10
19
12
-6
18
8
-4
1
0
10
0
-15
-12
-5
-2
13
16
9
16
7
-11
-32
-17
-1
19
7
5
-7
7
0
-4
1
11
0
-11
-13
1
24
18
-3
-26
-7
4
-6
2
6
12
1
-8
-22
-28
-16
4
6
2
1
-2
1
6
10
3
7
-1
6
10
8
17
-3
-16
-5
-10
-25
-24
-19
-21
-4
-6
-18
-10
10
7
20
27
17
-1
6
11
4
5
4
9
11
8
20
14
16
15
33
-15
-27
-20
-13
-10
8
21
23
-9
-28
-9
-14
-11
-10
-6
-6
-18
-6
-1
4
5
6
1
-4
-4
-3
-3
-19
-14
-10
-1
15
13
5
0
12
13
10
18
23
15
7
-8
0
12
20
35
37
27
31
20
10
5
8
5
4
2
-3
10
9
0
-5
-2
5
11
4
8
7
-8
-11
-5
-15
-24
-9
-13
-12
-4
-9
-8
-1
4
-1
-15
-15
-9
7
2
-6
6
5
-5
-13
-5
6
20
25
0
-10
2
-8
-6
-11
-6
2
-14
-12
-8
-14
-17
-15
-19
-27
-21
13
15
14
17
4
-20
-28
-18
-6
9
37
64
68
83
116
145
179
216
209
201
201
183
151
118
83
54
37
21
8
-4
-9
-17
-14
-7
17
26
-7
-2
13
12
26
34
13
15
13
-14
-8
-13
-2
-6
-11
-4
-3
2
-6
-6
-14
-28
-9
12
12
18
22
18
8
7
4
10
0
-6
-6
5
14
6
3
-8
-7
5
19
16
19
30
46
22
5
-1
-16
-3
1
7
6
-10
-2
7
15
20
20
7
18
32
49
51
6
-13
2
10
13
14
30
28
40
32
12
21
30
36
41
27
28
52
35
35
39
27
54
52
47
46
44
42
60
61
58
52
58
70
79
87
86
77
76
67
74
75
80
77
89
82
58
61
82
92
95
104
89
59
67
63
65
58
58
53
42
50
39
29
28
28
23
26
14
19
21
20
22
28
33
15
1
-11
-1
7
20
6
7
15
-12
-11
7
4
-2
9
7
-2
-8
-10
-13
-11
-8
2
16
7
6
4
-17
-26
-23
-14
6
15
8
7
-6
-5
2
11
14
3
-8
1
7
6
10
-5
-12
-11
-12
1
10
10
-15
-12
-19
-2
5
2
9
10
-3
-5
-11
-13
-7
8
14
5
-4
6
17
20
-9
-10
-4
5
2
-9
-23
-8
-9
-3
5
17
13
8
2
7
9
2
1
-11
-14
-12
-1
6
14
9
5
8
16
29
4
-8
7
-9
-31
-18
-12
-2
10
9
-4
-20
-16
5
6
10
17
5
6
7
12
14
24
8
-3
-4
1
-5
-5
-5
-9
-7
-3
4
15
10
6
-4
-5
-7
-2
13
26
25
17
7
-8
-6
-6
-20
-11
-8
-4
-3
-11
-11
-11
-6
3
8
4
0
-7
-1
7
10
-1
-1
-20
-21
-13
3
23
18
23
22
26
9
-14
-1
-2
9
19
22
15
20
8
-7
6
7
1
7
17
26
39
38
20
11
9
16
25
19
14
10
0
-2
-14
-8
-11
-15
-4
29
11
-8
-14
-11
-15
-16
-13
-12
-25
-16
-13
6
14
12
12
5
-17
-2
11
24
3
-30
-26
-4
3
-1
-11
-6
0
3
3
9
-23
-12
5
10
-3
-4
-3
-7
-6
-10
-25
-16
-14
-18
-10
5
35
67
90
104
137
180
204
196
204
218
206
181
153
118
89
68
51
35
12
5
2
4
11
22
19
17
9
3
6
3
6
11
7
5
-7
-14
-10
-2
-2
-6
3
20
24
18
-6
-6
9
14
11
18
-14
-9
2
14
11
15
3
11
3
0
0
8
12
14
24
27
25
-5
3
19
20
28
18
3
9
2
-5
-2
-4
-1
-4
-9
1
7
17
19
23
4
3
15
18
20
21
19
25
35
46
23
2
27
18
19
32
41
38
29
16
26
42
40
37
37
44
52
25
33
43
51
56
64
54
62
60
63
64
61
68
75
69
67
61
73
75
84
94
103
80
74
87
90
84
80
88
89
88
94
72
73
82
59
58
56
54
36
46
46
33
41
45
39
30
30
26
33
25
25
-9
-22
-13
-12
6
-1
4
10
9
0
13
8
9
13
15
4
-8
5
8
14
-8
-16
4
20
10
-1
2
8
-3
8
2
-8
-12
-1
14
17
8
-2
0
11
15
5
11
-3
-6
5
8
8
16
14
0
-11
-4
-4
4
-12
11
17
0
-2
6
2
0
-3
-1
8
11
1
5
14
10
5
8
-7
11
-3
-17
-22
-14
2
10
10
4
-3
6
16
28
47
24
10
13
10
-24
-6
-2
-5
-8
-2
2
-10
-15
-10
-10
-6
7
28
42
28
27
12
-1
-23
-7
13
29
7
-10
-3
-30
-16
-25
-9
0
-1
2
11
11
4
11
3
-9
6
9
17
3
-8
0
16
16
12
-8
-16
-17
-16
8
15
8
10
21
12
14
-8
-10
-3
1
11
15
20
21
0
-5
-3
-5
-14
-3
-5
-7
1
0
1
-3
7
2
7
-3
2
2
15
9
-1
12
14
9
7
16
18
21
-30
-45
-24
7
20
13
21
26
20
10
18
19
8
13
27
26
21
25
26
20
21
24
14
13
2
15
18
24
8
11
1
-6
-1
5
4
2
34
19
5
-14
-4
1
2
11
9
2
6
17
15
3
2
1
-13
-19
-2
-2
7
15
17
4
6
3
5
16
10
-7
0
0
-6
-18
-29
-28
-18
-11
2
13
18
15
-6
-8
0
5
8
13
6
-3
-10
-24
-21
-7
-6
-6
13
45
57
63
89
118
152
177
202
210
220
221
210
183
147
106
86
75
59
21
11
8
0
8
-17
-6
2
13
13
9
1
0
-11
-5
21
18
14
20
18
13
12
17
-3
5
20
20
1
5
8
-5
5
-13
-3
-1
1
-5
5
9
11
15
8
12
18
12
15
13
18
8
0
1
10
7
14
4
3
3
3
5
20
48
48
23
-5
0
13
12
14
18
20
26
24
25
15
5
18
12
18
19
25
29
33
36
37
30
32
32
25
43
57
55
45
15
29
43
45
37
43
48
45
46
54
57
53
55
57
63
67
76
92
90
69
76
61
57
67
81
94
94
95
85
86
85
83
87
91
98
81
77
74
77
84
80
85
85
53
44
67
64
45
33
45
23
15
22
27
29
24
24
3
5
-2
1
-1
-6
-13
10
21
9
6
1
-1
8
13
8
-1
4
18
17
8
-1
-9
-7
13
8
2
7
14
11
6
7
9
7
2
0
8
23
16
-9
-14
-4
-2
0
-4
-2
14
19
21
-3
-12
-12
6
18
10
13
25
15
6
2
11
10
4
-10
4
19
5
-5
8
22
1
-12
-14
10
20
23
17
-2
-5
-6
14
8
-6
-3
-1
-2
3
5
14
-3
2
15
7
13
14
17
-3
-6
1
20
23
-10
-22
3
23
19
-1
-5
-7
-5
5
7
-2
1
0
4
16
7
13
17
13
6
-7
-2
-11
-12
2
3
6
7
-2
7
19
17
13
18
15
16
-16
-12
-16
12
2
15
12
1
-18
-15
-5
2
15
10
9
6
18
21
6
12
6
1
-10
-8
-7
-2
2
6
2
6
-5
5
3
15
25
33
3
-21
1
5
-4
5
11
0
3
2
2
3
10
-15
-8
8
12
12
12
2
13
24
26
23
15
10
23
27
35
42
33
19
15
15
17
26
21
23
9
-4
-2
6
-2
-6
-9
-12
-1
6
2
3
12
17
12
3
9
16
12
19
-36
-28
-16
-1
12
-8
-25
-22
4
19
21
12
-2
4
0
6
4
9
4
5
4
-9
-7
-1
1
7
6
2
3
-1
-19
-18
1
14
19
-18
-13
-1
1
-6
-17
-7
-2
5
14
44
64
69
101
124
132
161
182
215
222
213
170
131
95
67
48
42
21
6
1
-10
-17
-1
-15
-14
11
18
21
18
-3
0
-1
7
22
8
4
-8
-14
-7
-10
5
18
10
14
22
16
9
23
-1
-9
-5
7
1
7
-1
7
-6
4
4
25
23
11
19
13
19
11
-8
4
13
15
18
9
3
2
6
3
7
25
28
30
20
-7
-13
-10
0
6
10
18
26
18
5
10
24
24
29
26
22
15
20
26
36
30
18
22
20
24
40
34
36
36
42
37
42
39
25
34
60
66
54
53
53
67
72
89
85
69
66
77
77
70
79
78
74
80
82
89
78
64
74
91
88
81
89
89
74
72
74
75
69
79
65
48
39
38
54
66
60
44
28
35
33
24
34
33
18
13
9
14
25
23
14
3
-6
-7
-6
4
14
11
-4
6
21
10
4
1
13
16
-6
-19
-13
0
3
-1
-3
-1
17
11
10
2
5
3
-4
4
-11
-28
-12
5
19
11
0
9
3
2
-5
-13
8
16
7
-8
-19
-12
-6
-15
-8
5
20
16
17
21
8
-5
-4
1
-2
-9
-8
-4
3
-13
6
-7
0
10
12
12
18
23
5
-17
-6
-2
12
2
-5
-6
-5
9
12
3
-12
3
14
15
7
-3
-7
-1
6
4
1
15
9
6
-27
-18
-3
14
5
0
4
3
-10
-8
-3
-13
-16
-5
19
12
8
6
13
2
5
20
23
9
-8
-15
-15
-17
-5
8
2
1
7
4
5
8
10
-4
-19
-9
-2
0
0
11
4
-3
-9
-16
-14
-10
2
-4
1
7
14
16
12
-3
9
26
5
-7
-5
5
9
5
7
17
15
26
21
17
16
7
18
15
16
20
21
8
11
33
18
16
1
-11
-6
18
20
3
-6
12
18
0
0
17
6
-3
-3
-2
-3
0
-6
-11
-12
-9
-14
-3
5
5
17
-7
-9
2
4
11
-1
0
-10
-16
-13
9
8
7
-9
-4
-7
-4
-22
-10
-16
-9
6
13
14
10
14
24
24
30
11
-5
2
-13
-20
-16
-16
-20
-23
-4
0
24
48
58
83
120
150
173
192
215
210
195
167
131
104
73
48
30
28
17
4
0
3
9
10
10
10
9
3
-6
-19
-9
9
15
7
5
-9
0
2
8
3
-6
1
8
7
-9
-18
5
26
23
14
12
13
24
7
0
-4
-7
2
19
8
5
10
17
15
8
12
20
11
5
11
16
9
4
10
17
18
9
19
10
-3
14
32
38
20
17
25
26
19
9
6
7
16
15
12
23
23
18
37
33
29
28
28
27
30
32
39
37
41
37
37
34
37
53
52
40
54
55
61
74
95
70
60
67
64
80
71
77
71
70
74
64
93
84
76
81
84
82
89
94
104
108
98
84
75
75
82
87
87
80
79
71
53
30
26
68
75
59
58
48
42
38
23
21
20
20
18
14
8
10
17
14
8
16
19
16
5
5
9
24
18
5
0
15
8
-14
-4
0
2
14
17
24
5
-2
10
-4
3
8
7
2
-4
-1
-9
4
4
1
1
7
4
4
-3
-9
3
8
11
9
20
13
0
-3
11
20
20
1
-8
-3
8
-3
9
21
18
11
3
8
10
10
7
4
11
16
20
13
0
-3
6
9
4
18
9
10
14
9
2
4
10
-2
9
-5
-3
-3
5
-3
-5
10
24
18
16
12
-10
-26
-14
5
17
15
12
4
16
22
8
-11
-3
-2
-2
6
6
-10
-3
17
12
14
15
10
5
-1
-5
8
8
11
8
2
16
20
23
-2
-3
17
5
7
-3
11
18
9
-3
-10
-16
-13
-1
2
1
7
6
23
12
6
9
9
19
13
11
-2
2
1
3
12
5
4
5
2
20
38
47
43
27
19
18
9
17
32
34
41
38
19
19
14
7
16
21
27
22
8
10
-8
-22
-12
4
9
7
8
6
5
6
-3
5
4
12
20
13
4
0
7
11
9
10
8
4
4
2
1
6
13
8
-7
-15
-5
1
10
13
9
10
15
-2
2
-2
-1
12
-3
6
-7
2
12
18
6
14
18
9
2
-14
-9
-21
-21
-2
6
28
42
56
76
104
132
158
185
209
223
216
211
192
159
131
106
73
45
36
21
22
16
28
19
7
4
3
5
8
-1
4
1
-8
-5
9
13
14
25
23
34
25
14
-4
5
8
8
19
22
13
15
16
0
9
14
15
10
24
22
13
12
15
14
16
21
20
22
28
9
15
13
14
16
28
17
12
2
7
18
17
18
12
19
25
31
28
20
22
23
14
15
26
22
17
19
25
34
32
29
23
20
30
43
46
42
43
47
61
46
3
10
41
49
41
44
45
39
50
57
62
61
63
72
76
81
70
58
73
84
69
63
78
79
82
77
79
84
87
96
85
83
89
96
94
89
87
90
86
81
82
78
68
66
58
57
59
71
69
58
51
49
36
24
20
26
26
26
25
22
19
21
16
12
9
1
7
12
18
11
6
18
17
9
9
13
13
6
0
-5
2
12
19
11
10
35
8
-8
3
8
15
13
-5
-3
10
-1
-2
-6
-2
6
11
5
-6
-3
-5
15
22
18
17
23
29
3
-5
-10
-2
18
6
-1
13
15
-13
-7
12
12
9
14
13
15
23
21
15
11
8
-7
-10
-1
2
5
13
12
8
10
11
14
8
14
16
16
3
-1
11
25
5
-3
6
2
0
-1
7
12
16
27
19
-8
3
-7
-3
14
10
4
2
5
2
9
9
16
-3
-1
-1
5
6
13
18
3
-5
6
18
20
14
6
16
6
1
-9
-22
-21
-4
-4
8
10
14
25
34
-1
1
1
18
26
1
-4
5
12
19
19
17
-16
-6
-2
15
18
20
-2
9
2
6
11
10
7
13
16
18
0
-6
-14
-11
24
46
60
60
41
28
27
26
24
25
29
22
27
15
16
9
7
-6
-1
1
0
23
17
11
3
-9
-11
-7
-9
-7
-4
5
0
-16
-16
8
14
10
15
16
6
22
30
12
8
11
12
6
0
7
1
14
16
1
14
0
-6
-9
-9
-4
-10
-3
2
12
-11
-8
-6
-11
-18
-25
-33
-22
7
20
25
21
6
-1
3
21
48
74
82
80
84
131
174
197
217
215
214
210
179
126
101
68
45
39
29
22
11
2
-7
0
-5
1
6
-1
-10
-1
3
2
13
21
23
18
19
28
20
8
11
10
2
10
14
0
-23
2
16
6
17
-2
-4
10
29
26
6
-6
-8
-1
11
10
5
-10
5
14
3
3
5
8
10
15
26
17
10
18
22
33
18
-8
0
12
23
19
23
28
27
26
19
13
29
30
-4
-2
33
28
26
22
13
10
6
20
22
33
46
50
44
54
27
32
42
41
50
44
42
53
51
50
48
54
71
71
54
53
62
77
81
71
64
61
69
77
83
97
92
80
78
89
89
80
68
91
100
102
87
89
90
93
81
73
68
75
48
50
58
53
68
58
41
24
27
34
29
18
18
28
28
23
17
2
11
-2
-1
23
21
15
10
8
6
9
9
11
-1
12
9
2
6
3
-20
-20
-2
11
6
4
15
8
7
1
5
-7
3
8
9
11
13
21
15
7
-1
1
17
14
17
12
9
17
-13
-10
6
-2
-6
5
8
2
2
11
9
1
8
11
12
8
4
14
2
0
2
-2
0
-4
14
13
16
14
11
14
4
12
-7
-11
3
-1
5
6
10
2
-10
-15
-19
0
13
15
10
13
10
9
3
2
8
9
9
10
13
9
2
9
15
13
5
2
3
-1
-9
-5
5
20
6
3
18
29
12
25
6
-24
-13
-4
5
7
7
-3
-4
-6
7
7
-5
6
9
-6
-6
18
16
19
3
1
-1
-4
4
14
11
3
-10
-4
3
3
7
12
18
9
20
23
28
30
34
13
16
10
13
36
33
35
22
15
17
10
12
12
3
7
12
18
20
24
8
1
-8
-1
8
-3
-16
-3
15
13
12
3
8
-6
-6
-3
-2
5
22
8
4
-4
-5
-9
-12
-3
-8
1
10
11
11
-6
-7
3
-6
-8
-16
2
-3
-1
3
-6
0
1
6
1
10
25
21
10
-8
-9
-8
-11
-10
-11
-10
-3
18
29
38
63
89
104
116
153
188
197
202
189
164
142
123
73
49
40
30
-7
-27
-28
-23
-18
-10
-15
-1
0
6
28
15
14
8
7
14
21
9
8
3
-9
-12
-4
-7
8
6
1
6
11
23
26
33
34
7
9
-26
-14
-10
7
7
14
15
24
33
42
21
1
-6
6
13
18
2
16
9
7
22
9
5
14
25
7
-6
8
18
17
21
31
29
22
18
9
-2
-6
2
2
28
50
41
31
27
29
28
31
35
30
31
30
38
37
41
47
46
33
33
43
45
57
53
46
63
71
66
66
61
57
65
56
62
71
75
78
76
87
89
112
128
137
86
75
85
66
71
77
81
69
83
84
76
81
85
84
78
89
63
60
40
52
46
43
47
45
25
12
12
23
34
34
35
30
12
8
11
24
17
8
21
17
20
-4
-19
-10
-4
-1
9
11
17
-9
-12
-9
2
3
0
-10
-5
4
15
14
2
16
9
3
2
5
-1
0
-4
-8
6
-3
-4
9
17
1
-9
-6
4
13
10
-14
-11
2
18
12
4
2
6
7
11
14
-9
-5
-3
2
0
-7
-11
-5
6
14
9
3
15
18
3
-9
1
12
13
16
6
-3
-5
2
8
4
4
7
10
11
6
2
7
0
-8
2
7
15
6
-14
2
4
11
11
1
5
-12
-7
-7
-13
-4
10
20
8
6
4
3
-3
-19
-21
-13
17
19
8
8
22
13
-1
5
2
0
1
-9
-11
-7
1
14
19
1
4
-3
-6
-16
-15
-10
7
19
29
22
28
30
22
16
20
-2
9
24
22
8
6
8
26
33
24
7
21
13
10
14
11
12
12
6
-6
-10
-4
-15
-16
-16
-18
4
-7
-2
-10
-16
-3
16
26
27
18
-4
7
0
-15
2
4
-9
1
14
-1
-3
2
-9
-6
4
2
3
-5
-1
1
-5
-3
-4
-3
10
2
5
17
13
-29
-21
-9
-10
4
-1
10
-3
-5
-13
-11
-6
-5
-9
15
33
63
93
110
143
177
187
194
192
176
159
128
100
83
61
33
10
3
-6
-8
-5
-11
4
8
20
14
23
10
7
13
27
14
7
-14
-21
-5
2
-3
-5
1
0
-1
5
17
25
23
22
15
20
20
0
-18
-11
-3
-5
-9
0
8
11
6
1
5
8
28
21
15
5
4
0
0
1
6
10
18
9
6
0
20
36
31
27
6
-6
-2
9
11
19
13
19
27
23
26
26
22
30
42
42
-9
-9
18
26
22
24
29
30
36
37
34
35
37
44
47
46
44
48
59
50
49
42
35
48
58
73
80
71
70
78
61
51
71
83
92
87
87
76
85
80
78
82
69
78
80
74
82
82
76
79
85
74
85
57
55
62
58
50
44
47
38
30
15
19
17
4
7
16
25
17
15
11
18
-6
-2
4
8
4
-2
6
-2
4
4
-1
-11
-1
8
7
2
4
3
-1
5
5
8
12
23
23
21
2
-2
-1
15
-1
-15
0
11
-6
-9
5
8
0
4
10
9
8
-5
-12
-14
-13
2
12
29
2
-2
-9
-1
6
14
-3
2
12
17
18
1
6
-5
-4
10
7
0
-8
-4
2
17
16
8
4
10
0
-4
7
-2
-6
-2
-5
-18
-10
-2
-16
-21
-14
10
18
8
11
1
-4
-6
-8
-15
-4
14
18
16
23
33
12
3
-6
16
9
0
0
-3
22
18
-1
3
1
-3
-3
-15
-40
-31
-14
8
15
12
-4
-14
-10
-8
5
1
1
3
2
12
14
30
16
22
0
-37
-12
1
10
3
-10
-12
-4
-15
-22
10
24
18
12
17
19
19
22
13
10
14
20
21
27
30
33
26
27
20
6
-3
5
9
5
4
2
11
10
8
-7
6
3
4
3
-4
-3
0
9
10
13
2
-6
-20
-8
5
-11
-21
-13
9
15
17
27
12
-14
-13
-16
-20
5
3
-10
-10
-14
-5
12
8
3
6
3
7
4
11
-3
-7
-13
-14
-17
-27
-10
16
12
-9
3
2
-14
-20
-17
-13
-2
20
32
43
63
80
120
122
149
177
202
211
207
198
182
156
119
84
39
31
21
-3
1
13
5
-8
-4
3
0
9
20
14
0
9
17
11
13
13
7
5
9
8
15
0
2
14
4
-3
3
11
8
-9
-19
5
13
18
13
5
3
8
3
15
8
7
7
6
-1
-2
4
10
15
23
13
-13
-5
-5
14
19
21
27
28
15
18
20
26
20
7
8
13
3
-1
0
-2
-1
9
22
23
31
27
21
29
35
33
20
9
23
34
39
32
22
31
21
23
35
51
48
40
21
34
58
63
63
80
74
58
53
50
42
50
60
65
68
74
76
78
81
64
65
69
80
80
80
87
75
79
83
82
89
82
78
77
61
68
68
57
53
56
35
29
42
46
41
37
34
26
33
25
23
2
-9
5
9
13
7
-3
-5
-5
1
-2
-11
3
3
12
26
38
19
6
9
3
-3
-8
-2
11
9
-5
10
15
12
18
13
-7
-5
-7
5
10
8
10
10
3
0
-4
5
-2
-13
-7
0
-1
-4
2
-4
5
15
14
6
12
4
9
6
15
12
-1
13
13
12
6
-23
-15
9
15
13
8
12
21
15
2
0
-6
-5
9
8
-1
-5
-6
-6
4
9
-1
-9
-8
-2
-2
-4
9
18
8
9
2
5
8
24
24
10
-8
-1
-2
-1
-1
5
3
-4
14
19
11
16
16
5
22
7
-10
-11
-11
0
8
10
-4
-9
-9
-7
3
1
-11
-2
-5
-8
-6
1
14
8
14
-5
0
12
19
28
29
16
-11
-14
-5
-3
1
17
2
8
21
15
-5
-6
1
10
9
11
25
30
18
5
15
13
18
20
25
30
35
28
13
13
16
14
-9
-2
10
8
4
2
-4
8
12
-10
7
3
7
6
-6
6
12
-2
-10
-4
6
19
8
16
19
1
5
-22
-13
-5
4
17
18
5
-16
-24
-13
-11
-2
12
9
-7
-7
7
21
18
-10
-16
-7
-11
-4
4
-1
0
-16
-17
-3
9
-5
-12
-14
-14
1
19
41
57
68
113
115
147
185
209
221
216
224
199
156
121
102
74
58
44
33
12
-7
-22
-11
-10
-10
10
20
17
15
19
9
10
12
2
1
15
10
6
16
19
-1
6
11
7
1
-7
-8
-3
16
23
15
-4
8
4
11
12
12
1
-17
-29
2
22
14
14
25
32
1
1
13
15
11
18
15
5
1
11
14
19
20
16
20
13
3
16
-4
-5
18
22
24
26
37
34
29
22
15
13
11
13
16
31
23
28
34
26
11
20
21
35
36
46
57
59
57
41
37
35
47
54
64
73
65
61
60
57
80
87
83
80
74
49
63
73
71
79
86
82
88
81
71
85
89
98
100
95
86
89
81
82
88
80
69
60
56
48
49
44
41
40
44
41
51
50
37
21
4
-5
7
22
23
17
5
-1
-1
0
2
6
8
10
9
7
7
10
7
13
-6
-2
8
8
8
4
5
7
7
4
1
1
8
14
12
7
8
3
-16
-18
-8
-11
-26
-15
5
8
12
8
0
7
15
25
26
39
39
18
-16
-21
4
6
4
4
16
11
4
4
-1
2
5
5
3
-4
-15
-8
6
-2
-11
-5
1
13
0
4
10
7
13
16
10
16
11
-16
-13
-21
-10
12
23
18
4
0
14
16
10
21
20
7
-12
-14
-22
-28
-23
-12
10
13
12
9
6
11
4
4
6
2
8
14
2
5
-2
4
2
-6
4
12
9
3
-1
7
15
13
-5
0
-5
4
13
8
10
14
14
-5
-17
-20
-18
-13
-11
-1
7
-3
-12
-8
6
-1
-2
9
-6
-16
-16
-1
13
18
6
2
-6
-4
0
5
11
19
32
25
23
6
0
9
5
11
13
15
18
11
13
21
26
19
8
18
15
27
26
12
8
3
-5
-6
5
4
3
6
-12
0
-7
-7
-10
-1
-6
12
3
-3
-10
-7
-8
-3
4
-1
0
-2
-5
8
-2
-15
-7
-11
-16
-19
-19
-7
6
-1
16
15
-11
11
-2
-17
-16
-4
1
-3
-10
-18
-28
-21
-11
-21
-20
-9
-9
-13
-13
-5
12
27
54
77
89
109
146
198
223
231
226
218
193
163
125
115
95
55
24
21
18
3
4
15
-20
-12
0
8
5
-7
2
-2
-6
-5
-3
-6
-11
-5
3
4
2
-14
-6
-7
-7
1
12
2
5
8
-4
3
17
12
10
23
29
24
11
11
7
-2
-15
-2
13
11
10
17
19
17
1
-6
3
0
-3
7
12
11
8
6
9
11
16
6
-2
8
3
30
29
24
14
12
8
11
30
22
13
16
10
14
16
13
30
39
43
27
35
25
34
26
20
24
37
43
40
33
35
51
59
64
71
70
70
72
70
78
81
78
77
68
72
72
75
78
83
82
71
78
79
76
66
66
60
67
95
100
94
84
85
74
72
64
64
56
53
58
50
51
41
48
59
44
25
8
10
16
12
1
0
22
13
4
10
12
8
-4
-16
-13
-1
9
4
14
10
4
10
25
9
-9
-13
8
4
-1
15
14
6
-13
10
21
6
-16
5
-7
-7
8
0
4
5
-2
5
9
2
-2
-9
-15
4
12
7
4
0
11
9
8
12
6
-16
-13
-5
8
-4
-6
11
20
-2
-18
-12
-7
-8
13
21
14
8
10
4
5
11
4
-7
6
-6
-4
-3
-8
-7
-2
13
8
0
-7
-8
-3
5
3
-6
-7
1
-8
11
14
4
-3
2
3
8
16
5
-12
-15
-10
-16
-8
1
4
2
5
-4
-7
2
-14
-17
-17
-8
-11
-19
-6
-6
-4
15
26
15
12
-11
-10
-28
-9
-5
-10
-3
3
-18
-15
2
11
0
-3
-16
-9
5
6
-6
4
0
-19
-17
-2
-16
-5
-10
-13
15
-8
-1
4
2
2
0
0
7
9
12
6
19
21
21
13
13
13
14
14
8
2
6
-9
8
11
-1
3
-3
-11
4
-8
3
-7
-17
-1
8
-11
-13
-14
-25
-24
-9
-4
-1
7
-2
-10
-9
-10
-17
-13
-23
-32
-20
0
12
-4
-4
-16
-22
-19
-16
-20
-5
12
3
-11
-4
1
-6
-3
-19
-11
-1
1
10
11
3
-10
-13
-6
-12
-34
-26
-25
-23
4
29
38
52
75
86
120
165
182
188
186
174
159
118
93
74
30
13
-1
-12
-23
-13
-17
-12
-4
-11
9
28
-14
-9
-21
-18
-8
1
3
0
-3
-1
-4
1
10
1
-10
0
4
2
0
-1
-11
-1
3
-14
-16
-14
-8
-3
9
5
21
23
6
-17
-12
-6
16
13
6
12
4
-2
-7
-14
-4
9
22
13
15
15
3
22
25
18
7
1
4
12
8
16
23
26
16
-2
-2
7
-9
-22
-15
15
34
35
31
34
28
27
20
17
11
18
28
39
43
44
39
43
42
46
50
61
71
73
67
55
55
57
70
74
56
54
67
73
73
72
68
64
78
89
90
86
82
88
79
94
91
91
94
91
88
61
60
62
56
52
53
55
57
57
36
22
29
25
13
11
15
14
21
25
22
30
17
14
9
-6
-17
-11
8
18
15
6
10
10
10
12
-23
-34
-30
-25
-12
8
10
3
-1
6
-18
-14
-8
5
17
12
-12
-13
-11
5
-1
-11
-10
-8
6
4
-4
13
8
-11
-7
-13
-3
4
11
12
1
-15
-1
-4
-9
-5
6
0
-6
1
11
14
-13
-16
-11
-22
-1
1
7
-4
-16
-15
0
14
10
-18
-23
-18
1
12
1
24
33
4
-10
-4
-3
-10
-5
0
-7
-1
10
10
-2
-3
-15
-13
2
5
-9
7
10
-1
-9
2
2
-2
-13
-13
-5
7
-6
-20
-17
-10
-19
-28
-18
-5
10
8
2
2
-1
-5
-15
-4
4
-9
-2
7
9
7
-1
3
-21
-9
16
5
-2
-9
-8
-15
0
1
8
6
5
11
0
-10
2
0
9
2
2
-4
2
8
10
15
12
19
16
7
6
15
15
29
28
18
-1
-2
7
-7
-17
-6
-5
-6
2
7
7
-5
-11
-1
-8
-3
-7
-1
-7
-6
-21
-28
-24
-13
-20
-9
4
0
4
3
-8
-12
-17
-13
-7
0
-3
-13
-13
-12
-7
2
7
1
-1
-18
3
0
-14
-12
-12
-17
-8
4
9
24
1
-18
-19
-31
-33
-30
-13
1
-2
24
46
62
91
98
110
143
180
191
196
192
176
150
106
81
52
43
33
12
0
-12
-19
-24
-32
-18
-9
0
1
0
4
16
15
2
1
-12
-23
-18
-2
7
7
10
8
0
0
16
21
14
1
11
11
15
6
-8
-4
-7
-3
-10
-9
-2
-3
8
9
5
0
3
5
-1
-18
-28
-20
0
13
17
20
27
21
30
7
-5
-3
3
9
-2
3
5
0
1
8
14
12
20
27
32
32
25
16
1
10
15
15
-1
2
14
33
34
31
27
25
41
34
29
39
35
41
38
28
35
58
55
33
42
61
73
67
42
43
59
62
66
81
82
75
75
77
89
73
63
60
86
76
69
65
66
79
81
63
67
74
71
86
77
47
38
15
13
18
47
37
33
15
20
19
17
20
17
18
21
23
12
22
-3
-19
-3
0
2
3
-5
-10
-13
-6
-3
-3
-4
-3
-12
-9
-4
-7
-10
1
-3
-17
2
-14
-20
-17
-4
10
6
-2
0
-11
-23
-19
-16
-7
-3
5
23
12
-20
-12
-5
-7
-8
-10
-13
-15
-9
2
-2
-3
-1
2
8
8
-11
-23
-14
-9
-8
-15
-19
-13
-6
6
18
2
-17
-15
-5
-2
-9
-6
3
2
-15
-14
2
10
0
-19
-13
7
-2
9
-7
-4
7
-2
-12
-16
-14
-8
-8
-9
-17
-14
-8
-18
-19
-12
-14
-13
0
-1
3
3
-6
-14
-11
-1
-1
-3
-9
-9
-14
-16
-12
-18
-23
0
-1
-3
-8
-7
14
5
-10
-5
2
8
10
-19
-37
-24
-19
-12
-8
0
-3
-16
-19
-10
-3
-7
-3
3
-5
-10
-16
-22
-5
4
-1
7
7
5
12
15
-1
-10
12
13
24
-3
0
0
3
10
12
6
-5
-2
-6
-3
-4
-3
-1
1
1
-11
-11
3
12
-5
-1
4
-9
-13
-11
-11
-13
-8
-20
-23
-24
-21
-15
-10
-5
-4
-3
0
-10
-23
-12
-11
-17
-2
-1
-20
-11
-19
-25
-22
-13
-16
-16
-12
4
7
3
3
-2
-11
-25
-13
1
1
-13
-12
-26
-38
-31
-30
-17
10
30
56
88
100
117
132
161
180
205
215
201
182
160
123
88
58
58
34
11
-13
-9
-9
-15
-22
-21
-12
-8
11
23
11
10
9
16
-1
-21
-11
-10
-12
-14
-15
-7
-7
-8
-9
2
-11
10
-6
-12
1
-13
-7
-5
0
1
12
11
-16
-1
3
-4
-6
-4
3
3
-1
-1
-12
-5
7
-6
2
-2
0
2
8
10
8
-7
-7
-11
-5
16
27
26
5
9
7
11
19
36
24
27
-3
-18
-9
9
11
-2
17
30
4
11
1
3
28
40
35
34
29
29
40
31
31
33
40
33
34
53
55
55
64
69
69
67
66
71
60
64
59
60
58
63
68
59
63
76
79
74
76
83
83
73
71
59
66
70
62
38
43
43
61
67
48
38
39
34
28
30
39
29
14
1
2
13
20
4
1
10
16
-1
4
0
5
4
-2
-21
-16
-10
-12
-18
-22
-10
-14
0
-12
-15
-7
2
16
15
-7
-5
-17
-15
-21
-7
-5
-12
-11
-2
7
9
13
-21
-16
-8
-12
-15
-27
-12
5
3
-4
-11
7
5
16
-3
-10
0
-14
-15
-13
-10
1
3
-3
-3
-9
-6
-19
-15
3
8
-8
-2
-2
-3
-9
-15
-17
-16
-2
0
2
-6
-12
3
3
-12
-8
-2
-1
5
17
17
11
4
-12
-19
0
-7
-9
-18
-9
-16
-20
-15
-20
-16
-15
-6
-7
-9
-1
-9
-7
4
-2
-12
-16
-22
-25
5
18
12
5
-14
1
-1
-15
-34
-25
-8
-6
-14
4
12
-1
-1
4
5
-6
-11
-14
-6
0
-5
-24
-20
-17
-11
-5
-2
-15
-26
-1
8
10
6
3
2
0
12
-7
-14
3
3
-14
-2
10
9
1
0
8
16
31
24
7
6
2
0
0
12
9
9
-14
-14
9
15
15
-2
-16
-16
-14
-21
-9
-10
-15
-5
-13
-11
-15
-1
-7
-19
-7
12
13
-12
-12
-19
-25
-19
-16
-17
-25
-29
-30
-10
-12
-14
-9
2
-1
-3
-9
2
6
2
-12
-22
-34
-37
-32
-32
-9
14
17
8
1
1
-8
-11
-28
-48
-28
-13
-4
1
21
51
90
132
159
183
212
228
208
195
183
155
116
90
60
63
34
22
-9
-10
-2
-3
-15
-11
-14
-3
5
17
13
11
3
5
-16
-14
4
-1
-14
-13
-9
-11
-7
-11
-10
0
-4
-10
-8
-5
2
-2
-4
-13
-20
-24
-18
3
10
11
4
-10
-8
0
-10
-7
-15
-16
6
33
23
4
3
3
4
13
10
2
14
11
15
-3
-13
-12
-10
-14
-6
14
21
27
34
22
1
0
1
-1
-8
9
14
11
21
22
32
17
25
15
20
26
33
22
26
20
27
35
29
31
23
24
12
27
43
54
50
55
70
57
52
65
70
75
77
76
68
65
68
74
80
74
79
71
65
73
76
77
73
84
81
78
85
79
84
54
40
38
40
42
27
15
21
12
12
18
18
20
21
15
1
5
18
16
4
-8
-6
8
-1
-3
-1
-2
4
10
5
0
0
-28
-28
-13
-16
-6
12
2
-19
-1
9
0
-9
-10
-12
-15
-20
6
1
-12
-6
-9
-10
-13
-4
3
-2
-5
-14
-15
-4
4
19
10
-1
-12
-15
-5
20
-5
-27
5
17
5
-13
-14
-19
-26
-24
-21
-17
-17
-13
-3
2
9
8
3
0
-1
-8
-7
-13
0
9
2
-2
9
-1
-3
-12
-19
-18
8
18
-3
-20
-4
-6
-16
-17
-15
-19
-12
-2
-11
-24
-13
-5
6
8
7
-7
-13
-15
-17
-29
-22
-15
-19
-8
12
-8
-11
6
11
-2
-16
-17
-15
-12
15
2
-6
-3
-16
-25
-26
-19
3
1
-7
1
6
-10
-19
-17
-5
-6
-11
-21
-18
-19
-30
-14
0
-9
-10
-1
-5
-4
-6
-8
-7
1
1
1
-7
-7
-18
-12
6
13
-5
-19
7
7
1
1
5
-5
6
23
30
22
16
-24
-5
15
13
5
10
9
14
3
0
-7
-17
-8
-3
-12
-15
-10
-11
-9
3
-1
-16
-23
-4
-13
-20
-26
-5
2
-4
-1
-19
-12
-1
-3
-11
-17
-17
-11
-18
-19
-13
-11
-24
-16
-8
-10
-14
-16
-21
-22
-23
-11
-5
-13
-18
-23
-18
5
15
4
-13
-20
-23
-14
-15
-29
-47
-57
-16
18
6
10
26
59
71
83
138
201
221
223
211
190
147
129
89
92
67
37
9
-3
-2
-10
-32
-26
-43
-29
-3
0
0
-9
17
18
17
23
13
-32
-32
-7
2
-3
1
-5
0
1
-3
-8
-12
-19
-17
-12
-19
-7
-1
-12
-11
-10
-19
-13
19
30
24
7
-10
-33
-46
-21
4
13
16
3
-20
-13
15
3
-24
-17
4
26
25
15
5
4
-6
-21
-14
8
11
4
0
-2
5
16
12
9
19
12
16
14
14
14
17
24
24
20
2
5
7
19
31
28
26
21
29
16
18
39
47
49
52
51
43
41
57
48
51
55
64
71
53
56
47
52
61
61
82
81
83
74
81
77
88
74
51
47
60
82
90
81
68
37
42
49
60
58
51
54
52
35
31
26
23
21
10
-10
-7
-4
-8
-3
4
1
10
23
-13
-16
-6
-12
-2
-15
-13
-14
-26
-25
-22
-25
-20
-8
-9
-12
-2
9
3
-15
-19
-15
-11
-10
-7
-18
-14
-10
-18
-23
-17
-17
-10
16
12
0
-18
-10
-17
-15
-1
4
-10
-5
-10
-16
-18
-9
-2
-2
-15
-18
-3
-2
10
8
12
19
9
-14
-5
-11
-32
-31
-17
-7
-8
-6
-12
-11
-29
-40
-22
-8
6
0
1
-11
-16
-9
-16
-13
-9
-3
-11
-3
-5
-1
-10
2
-10
-11
-17
-8
-10
-34
-34
-13
21
17
8
-10
-3
12
-5
-9
-4
-6
-12
-19
-21
-20
-23
-24
-21
-19
-4
-4
-22
-24
-14
-2
11
7
4
-4
-8
-13
-25
-25
-36
-41
-9
4
-4
2
0
-4
-25
-6
-1
-16
-22
-12
-6
-9
-18
-5
7
-1
-8
1
-8
7
15
24
23
24
22
-9
-11
2
5
0
-6
-7
-2
3
9
11
9
4
-6
-19
-37
-26
-19
-14
-24
-26
-36
-36
-21
-13
-17
-17
-15
-10
-13
-21
-26
-27
-2
14
12
-14
-9
-20
-11
-8
-13
-5
-10
-16
-13
-18
-18
-12
-7
-17
-15
-22
0
12
11
0
-21
-30
-17
-10
-14
-20
-22
-34
-35
-32
-45
-34
-18
6
41
45
56
69
90
115
130
154
170
185
175
157
148
118
96
69
46
27
1
-13
-24
-24
-21
-24
-13
-22
-31
-12
-4
-10
-6
-3
-8
9
12
9
11
-21
-12
-22
-13
-6
-1
-1
7
-5
-7
-23
-31
-9
-9
-7
-15
-3
-10
-12
-11
3
5
3
-6
-7
-9
-4
3
-3
1
-1
-1
5
-2
1
1
14
6
0
1
-3
-7
-7
3
10
8
18
22
34
21
0
-9
-7
-4
-7
-10
0
14
21
14
8
23
12
11
13
18
14
18
24
21
13
15
25
30
48
43
37
49
65
69
82
33
9
37
52
67
60
50
51
49
59
67
67
64
63
70
70
65
63
64
79
87
78
80
96
93
75
62
67
59
61
61
55
59
60
56
52
57
45
27
10
5
6
11
15
14
9
10
9
7
6
-3
4
-6
-15
-13
-10
-16
-13
-14
-11
-16
-26
-20
-5
0
-10
-13
-7
-8
-10
-5
-2
-1
-6
-9
-9
-15
-19
-10
-3
-9
-3
-7
14
16
16
-10
-43
-21
-20
-20
-25
-24
-11
0
-12
-22
-16
-4
-1
-20
-16
-9
3
-11
-14
-11
-4
-8
-11
-15
-22
-11
3
2
-12
-12
-12
-4
12
13
-9
-19
-23
-23
-13
8
5
-10
-6
-4
-19
-9
-9
-11
-15
-21
-15
-18
-15
-8
3
0
5
16
13
1
-4
-9
-21
-17
-14
2
-4
-33
-37
-31
-8
10
0
1
-5
-15
-7
-7
-13
-23
-19
-21
-9
-3
-7
-24
-24
-15
-3
-9
-6
-10
-9
-1
-1
0
-7
-11
-13
-17
-27
-32
-30
-17
-8
-5
-8
-11
-5
-11
15
15
15
5
-9
-6
-22
-19
-1
1
3
19
8
7
6
14
16
16
23
22
6
0
6
2
2
5
2
-4
-6
-12
-9
-8
-4
-17
-21
-2
-13
-2
-5
6
-1
-9
-7
-24
-18
-14
-10
-13
-13
-7
-10
-10
-8
-5
10
2
-8
-6
-29
-24
-19
-20
-8
-12
-16
-13
-27
-26
-24
-16
-18
-10
-17
-26
-10
-5
-4
-4
-7
5
14
-5
-14
-6
-8
-11
-17
-23
-24
-11
-9
-4
8
20
42
63
92
136
159
177
190
212
205
214
180
112
82
63
42
23
9
6
-14
-18
-17
-19
-6
7
-13
-20
-1
12
10
11
20
8
-17
-15
-8
1
-18
-16
-2
-5
-9
-10
-6
-7
-6
-8
-7
0
2
-9
-11
-14
-8
3
20
3
-18
-7
4
0
0
-16
-10
0
16
25
5
-6
-17
-17
-17
-6
1
-6
-5
-1
9
19
19
19
13
-4
-19
-11
0
0
-1
9
8
-4
1
9
23
35
27
17
14
8
-7
-7
17
19
18
20
26
30
34
34
34
51
42
22
37
36
34
30
23
40
41
45
52
53
67
62
61
64
72
68
66
67
68
68
72
73
76
70
93
100
93
80
46
44
60
66
83
88
88
73
40
39
55
51
21
27
43
47
40
40
37
41
40
20
13
2
-16
-6
-5
-6
-12
-13
-11
-8
0
-6
-9
-5
2
-5
-1
4
-4
-11
-22
-21
-7
5
-7
-13
-10
-9
-1
13
14
-11
-17
-9
-5
-18
-10
0
-6
9
3
-4
-24
-33
-6
-1
-3
-3
-2
3
-6
-6
-4
-6
-11
-12
-6
2
4
5
0
3
-6
-5
3
6
-6
-15
-12
-11
-7
-10
-10
-15
0
3
-1
3
8
6
-11
-6
-11
-9
1
-11
-18
-23
-27
-15
-4
-8
-2
15
22
13
1
-5
-5
1
2
-13
-15
-14
-20
-22
-16
-13
-3
9
6
-6
-7
-19
-20
-10
-13
-12
-16
-13
-11
-10
-3
-8
12
-3
5
17
12
10
-3
-17
-12
-18
-19
-5
-9
-21
-19
-9
-4
-11
-8
-4
-5
-15
-11
1
-10
-2
3
-1
2
8
4
3
4
-27
-31
-10
0
-14
-13
-18
-13
-6
-7
-4
-9
-12
-18
-10
8
19
1
1
-2
-2
-4
3
8
15
15
14
5
-4
6
8
14
21
17
13
16
20
1
-13
-14
-2
-4
8
9
-4
8
12
-17
-21
-12
0
-14
-5
-9
-11
-11
-17
-13
-6
-4
4
-24
-33
-27
-22
-19
-9
-12
-6
3
15
14
6
-27
-45
-25
-11
-11
-10
1
7
-3
-27
-33
-26
-16
-11
-25
-10
-9
-6
-13
-16
-11
-9
-10
-12
-22
-24
-12
-15
-9
9
42
86
110
123
133
146
190
213
221
214
201
168
129
87
56
41
31
17
3
-7
-14
-7
-9
-17
-8
-6
1
2
4
-2
-1
0
-22
-23
5
6
5
-5
-16
-18
-21
-6
15
8
0
-11
-9
-10
9
0
-7
-4
0
-5
0
-17
-22
1
29
-5
-3
5
8
4
-8
4
7
10
11
13
14
4
15
11
0
5
-5
-8
1
5
3
0
-11
-8
2
7
10
14
11
16
7
0
2
-7
-3
18
18
15
25
26
19
14
-7
-1
22
46
56
52
39
33
41
31
33
37
33
47
55
60
58
60
58
54
57
53
63
69
72
63
57
52
65
67
70
71
64
73
84
84
91
89
63
73
75
80
69
76
72
72
59
49
36
54
58
