-5
5
24
23
5
-16
-23
-61
-38
-24
-5
-12
10
16
8
-18
-13
-32
-33
-26
-13
-14
16
15
3
-6
-22
-41
-41
-30
-30
-15
9
19
4
-11
-18
-52
-47
-30
-20
1
23
22
4
-10
-34
-42
-43
-32
-11
9
22
3
1
-13
-22
-39
-37
-25
-3
-1
2
7
-4
-6
-23
-47
-48
-20
-14
8
25
19
-2
-17
-33
-43
-42
-23
-5
22
29
13
-8
-9
-38
-40
-26
-16
-8
19
23
18
6
-2
-38
-23
-25
-26
9
26
31
15
-2
6
-35
-25
-21
-1
7
14
3
1
-16
-17
-37
-38
-27
-14
-8
17
16
13
-10
-27
-56
-54
-43
-20
-14
10
16
8
-16
-25
-40
-46
-42
-13
-5
20
26
20
15
1
-15
-18
8
45
51
71
66
53
43
21
-15
-42
-61
-54
-41
4
15
5
-3
-3
-53
-59
-42
-26
-4
14
15
-1
-25
-37
-46
-45
-19
-13
-11
19
30
11
-12
-20
-38
-35
-15
-3
5
23
16
7
-15
-29
-45
-44
-30
-7
-2
17
22
12
-8
-31
-35
-38
-31
-9
18
28
31
10
-19
-41
-29
-27
-9
7
28
28
27
11
-20
-21
-22
-33
-23
5
25
29
28
8
-3
-23
-29
-10
1
19
28
17
18
-1
0
-17
-19
-18
0
11
39
45
30
4
-1
-22
-19
-17
0
20
48
54
45
26
19
-18
-18
-5
12
42
61
70
52
23
29
-1
-9
13
27
35
57
67
35
22
29
-5
9
17
37
41
70
56
40
32
24
-6
-8
0
11
23
41
54
24
19
8
-18
-26
-18
-7
11
23
27
16
-3
-22
-39
-30
-18
-2
3
21
18
-5
-7
-20
-43
-36
-22
-8
21
16
18
9
-18
-38
-48
-35
-14
-12
10
19
20
-4
-20
-39
-39
-35
-24
-13
20
14
9
-10
-5
-32
-44
-37
-5
-3
7
11
3
-4
-17
-35
-39
-41
-29
-3
25
10
16
-2
2
-23
-41
-32
-15
-2
21
17
10
2
0
-35
-36
-41
-9
-19
1
13
7
-12
-1
-34
-50
-30
-6
0
19
27
17
-15
-16
-40
-36
-37
-16
-1
22
10
-7
-15
-15
-36
-41
-42
-14
-2
16
18
14
2
-22
-56
-45
-36
-12
-3
18
10
4
-9
-23
-42
-41
-27
-9
7
15
14
4
-12
-32
-46
-41
-32
-22
10
23
9
-6
-19
-21
-38
-40
-38
-18
13
19
6
-5
-15
-31
-43
-25
-26
-10
7
26
35
9
-13
-45
-52
-37
-27
-16
5
15
-1
-15
-17
-26
-37
-46
-27
-23
6
23
19
-10
-19
-35
-39
-49
-15
-3
14
10
14
-6
-22
-43
-41
-44
-31
-4
8
19
26
4
-22
-39
-34
-28
-13
-8
26
15
7
-15
-23
-46
-39
-19
13
9
27
34
18
3
-15
-31
-41
-27
2
-1
17
10
6
3
-21
-43
-46
-43
-19
-4
25
13
-2
-6
-33
-57
-58
-42
-29
-12
16
36
18
-21
-29
-39
-57
-44
-25
1
25
23
12
-2
-18
-29
-17
-4
18
27
67
73
57
36
21
5
-5
-25
-28
-28
-15
-6
-14
-7
-10
-35
-39
-39
-28
-18
6
-2
-29
-23
-43
-53
-47
-12
-8
16
16
8
-3
-24
-29
-39
-38
-15
-11
10
18
11
6
-1
-31
-36
-35
-17
-4
17
29
18
-11
-10
-34
-51
-34
-5
4
16
16
11
10
-8
-42
-38
-23
-24
-13
24
30
38
4
-11
-37
-34
-32
-15
3
30
30
22
-6
-10
-31
-28
-31
-8
2
32
33
36
9
-6
-21
-27
-25
1
23
49
47
24
2
2
-28
-23
-19
3
31
53
47
53
39
15
-24
-18
-7
5
26
53
56
37
18
10
0
-3
10
26
41
51
57
34
24
29
11
3
22
31
45
63
67
49
33
7
-3
-4
16
16
35
45
43
18
14
-10
-10
-19
-4
-4
25
35
18
-4
-23
-39
-39
-32
-7
-10
18
11
1
-1
-11
-46
-34
-35
-17
-8
11
18
11
-10
-24
-40
-37
-42
-29
-16
13
11
15
-1
-26
-33
-32
-30
-18
-7
13
9
2
-8
-26
-36
-29
-24
-20
-20
17
8
14
-2
-11
-28
-35
-24
-23
-19
1
19
20
-5
-27
-48
-36
-36
-18
-12
22
25
7
-13
-14
-39
-43
-33
-17
-1
15
23
4
-3
-14
-46
-50
-40
-25
-1
14
14
14
-9
-16
-43
-56
-39
-9
10
28
28
15
-6
-14
-42
-51
-21
-10
-3
22
12
2
-2
-36
-58
-57
-42
-18
2
19
9
-3
-12
-41
-47
-42
-23
-17
11
22
3
-16
-24
-39
-44
-52
-34
-9
20
20
15
4
-28
-53
-50
-34
-17
0
12
17
12
-7
-10
-45
-50
-55
-20
-17
19
11
12
-9
-15
-53
-47
-42
-21
-9
17
22
6
-14
-18
-53
-48
-41
-24
-3
18
16
0
-20
-24
-56
-61
-42
-20
-11
10
12
3
2
-11
-38
-44
-39
-26
-15
12
17
3
-11
-27
-50
-45
-26
-4
-7
18
18
-3
-17
-21
-45
-42
-43
-7
6
32
32
-9
-21
-21
-43
-39
-33
-12
1
19
19
1
-7
-17
-57
-51
-21
-8
12
28
32
17
2
-14
-44
-41
-16
-4
9
18
14
2
-13
-39
-53
-37
-27
-13
8
33
21
-17
-23
-31
-43
-40
-38
-9
-3
8
3
-22
-25
-51
-43
-50
-18
-10
7
13
14
-2
-11
-28
-24
-25
-4
8
44
60
65
50
25
0
11
12
29
17
-2
-10
-13
11
6
-22
-18
-13
-10
-28
3
1
-2
-10
-31
-58
-50
-33
-9
-6
11
11
5
-8
-9
-54
-36
-33
-26
-10
17
10
6
-14
-10
-39
-38
-26
-10
-3
19
16
1
0
-19
-47
-34
-18
1
10
22
17
2
-12
-24
-43
-31
-30
-10
1
16
9
12
-13
-20
-31
-25
-16
-5
3
30
25
7
-7
-9
-29
-30
-21
-4
5
23
18
24
8
-14
-21
-21
-8
-3
20
25
35
17
16
-21
-30
-17
-3
6
38
53
51
22
5
-6
-9
-8
10
20
30
43
21
35
34
-3
4
2
19
36
65
45
39
32
21
2
7
8
17
33
56
58
38
22
16
2
-1
8
19
33
61
42
38
9
16
-22
-30
-17
2
6
18
34
26
-1
-3
-32
-34
-35
-15
-6
17
22
1
-7
-12
-36
-44
-43
-4
-8
12
10
23
-1
-20
-45
-47
-50
-24
-1
35
15
-7
0
-12
-39
-43
-28
-13
-2
14
22
5
-13
-15
-42
-46
-24
-10
3
23
19
8
-15
-29
-42
-39
-24
-11
-4
16
2
10
-3
-26
-38
-43
-18
4
17
24
14
4
-2
-32
-29
-32
-5
-8
0
16
23
9
-15
-43
-43
-40
-13
-4
21
28
18
2
-15
-35
-35
-32
-21
-12
22
13
11
-6
-16
-43
-47
-32
-10
-3
17
17
6
-14
-17
-44
-36
-31
-6
-1
20
5
4
1
-5
-33
-43
-25
-5
-6
19
17
4
-6
-18
-40
-30
-39
-21
-13
17
37
18
-9
-9
-39
-42
-36
-20
-10
17
23
19
-3
-17
-48
-48
-33
-23
-6
16
14
-3
-12
-33
-39
-31
-14
-6
1
20
19
2
-9
-28
-45
-44
-21
-11
6
31
27
9
-5
-24
-45
-38
-23
-23
-4
21
21
3
-16
-30
-39
-43
-23
-5
14
28
26
0
-27
-34
-30
-37
-22
-9
4
9
3
-3
-12
-39
-46
-20
0
0
36
38
25
11
3
-29
-38
-20
-14
-5
23
27
19
14
-8
-29
-27
-32
-18
-12
17
16
10
-16
-31
-60
-54
-41
-7
-5
24
35
11
-23
-14
-47
-33
-32
-35
-19
20
21
7
-16
-10
-32
-37
-27
1
10
40
50
41
33
30
20
10
21
37
65
61
37
8
-32
-51
-44
-32
-9
16
23
43
13
-16
-33
-41
-45
-54
-43
-20
-1
17
20
16
-3
-12
-33
-38
-21
-17
2
15
14
0
-15
-17
-46
-39
-18
0
7
27
25
10
-10
-24
-36
-45
-27
3
26
31
18
4
1
-31
-36
-29
-13
5
22
34
38
4
-23
-23
-41
-36
-9
-7
24
28
17
0
1
-21
-21
-23
-7
0
28
33
22
4
-2
-29
-24
-24
-7
14
36
43
27
20
6
-30
-32
-21
5
17
41
41
37
13
10
-28
-22
0
19
31
62
54
47
28
18
-9
-12
-3
28
31
67
69
45
22
21
-2
1
19
35
39
63
72
54
29
17
1
-9
0
24
37
53
63
42
31
8
-32
-28
-1
14
23
36
23
14
-3
-11
-38
-35
-35
2
16
37
29
9
-20
-28
-35
-44
-28
-19
0
14
24
24
7
-27
-46
-47
-24
0
13
25
14
0
-20
-25
-35
-46
-24
2
12
28
21
8
-20
-41
-59
-43
-25
-10
11
15
9
5
-14
-49
-44
-21
-12
-3
26
23
23
5
-8
-32
-26
-42
-22
-17
9
11
18
3
-10
-39
-28
-26
-7
-7
21
32
10
-9
-17
-40
-33
-27
-13
-11
14
25
16
-5
-13
-37
-40
-47
-8
2
25
22
17
-6
-20
-48
-34
-33
-22
-3
15
22
17
-2
-22
-46
-45
-28
-10
0
24
16
14
-10
-18
-37
-37
-29
-13
3
22
30
16
-4
-25
-51
-69
-48
-8
3
20
27
8
-6
-33
-51
-37
-19
-7
6
22
17
7
-11
-30
-47
-37
-30
-13
1
17
12
-2
-18
-33
-36
-40
-20
-1
11
25
13
-5
-12
-30
-34
-39
-12
-6
17
15
10
-12
-19
-31
-38
-31
-25
0
15
23
14
6
-7
-23
-11
-13
-3
-3
12
24
17
5
-9
-27
-30
-13
-9
-1
18
11
12
3
-16
-54
-53
-34
-22
-14
17
8
10
-13
-23
-46
-45
-31
-12
1
14
10
4
-12
-20
-55
-47
-21
-14
-3
42
20
21
1
11
-17
-5
14
32
47
79
64
45
32
-1
-44
-70
-73
-48
-21
9
20
9
0
-30
-65
-60
-40
-33
-7
10
-4
-11
-21
-31
-36
-33
-22
-10
1
25
32
17
-5
-25
-41
-46
-32
-23
2
32
38
17
-13
-36
-46
-38
-27
-5
11
15
15
6
-3
-22
-18
-24
-13
-2
21
29
23
1
-8
-27
-35
-36
-11
5
29
24
23
6
-6
-33
-35
-33
-20
-5
33
35
27
14
6
-32
-31
-20
0
5
33
25
33
17
12
-27
-18
-18
-12
-3
29
36
44
36
19
-14
-13
-7
14
25
55
55
41
22
3
-10
-2
13
35
41
54
59
56
30
22
-3
2
10
23
50
62
57
46
36
23
21
15
31
61
51
54
47
50
18
4
2
-5
2
25
31
50
42
21
13
-8
-25
-29
-18
-4
5
26
35
22
1
-19
-31
-42
-30
-6
1
23
24
-6
-18
-33
-47
-48
-20
-3
14
15
4
-2
-5
-27
-33
-35
-39
-31
2
14
23
-2
-17
-26
-33
-50
-27
-3
27
20
12
-12
-24
-47
-33
-30
-10
2
30
26
19
-8
-15
-45
-45
-25
10
-11
19
16
5
0
-20
-47
-34
-30
-12
0
24
13
7
0
-10
-56
-59
-28
-11
-3
22
18
13
-17
-14
-36
-36
-36
-7
-1
17
14
3
-22
-25
-54
-35
-18
-1
14
24
14
2
-12
-25
-43
-36
-26
-16
-6
16
30
7
-11
-37
-53
-33
-27
-18
-9
12
15
16
-11
-24
-41
-47
-33
-19
8
29
22
10
-1
-20
-57
-46
-34
-16
3
11
11
-9
-11
-39
-38
-41
-18
-4
6
16
15
-7
-20
-35
-47
-44
-22
-13
8
23
18
3
-11
-33
-37
-37
-15
-10
14
10
8
-16
-24
-52
-46
-37
-20
-7
14
11
-9
-2
-13
-49
-49
-45
-18
3
23
25
13
4
-10
-36
-39
-24
-16
3
30
18
11
-2
-9
-45
-29
-27
-8
9
36
37
23
0
-14
-32
-47
-44
-17
-2
11
13
-3
-18
-24
-42
-46
-32
-17
-17
11
0
-4
-16
-39
-53
-52
-40
-23
-6
16
26
10
-2
-23
-49
-40
-15
14
36
62
65
46
40
33
9
4
21
31
27
13
-9
-24
-24
-42
-27
-23
-1
11
4
4
-8
-10
-26
-41
-44
-48
-28
-4
20
21
15
1
-17
-40
-45
-47
-22
-18
11
10
25
5
-23
-45
-37
-37
-9
-6
22
14
21
2
-14
-39
-39
-44
-16
-2
15
20
16
7
-1
-40
-35
-27
-17
-18
16
31
25
4
-9
-43
-31
-25
-14
7
20
32
26
2
-3
-22
-37
-33
-4
0
8
33
24
1
-4
-37
-35
-24
-9
11
33
40
34
18
-9
-34
-40
-11
3
11
40
48
38
32
17
-11
-13
-2
10
17
46
63
50
33
17
-1
-11
5
31
42
44
68
35
11
10
-2
-4
8
23
51
61
53
43
24
2
-14
-18
3
25
35
49
57
35
12
-15
-20
-20
-14
7
22
29
28
6
-4
-29
-36
-33
-15
0
28
26
20
-12
-23
-28
-34
-42
-28
-17
13
27
10
-3
-14
-36
-56
-39
-23
-8
-2
9
16
3
-22
-42
-47
-24
-21
-11
19
13
8
-2
-11
-35
-27
-25
-9
-1
16
25
23
-3
-7
-38
-42
-45
-25
-5
15
27
5
-11
-18
-46
-53
-38
-23
-7
31
31
10
-19
-7
-54
-40
-27
-10
-6
26
21
7
-5
-21
-44
-52
-44
-9
14
22
23
11
1
-19
-47
-44
-24
-11
-9
9
17
16
-11
-27
-41
-35
-20
2
13
25
21
-3
-11
-33
-56
-49
-20
-15
13
31
17
-7
-11
-45
-53
-40
-13
0
10
20
12
-5
-6
-22
-40
-47
-29
-8
7
15
15
-4
-6
-38
-45
-30
-9
-4
20
18
17
-5
-15
-34
-48
-37
-9
9
17
10
12
-6
-14
-42
-46
-39
-16
-8
21
22
16
-14
-18
-47
-48
-41
-13
-12
24
21
-8
-11
-9
-41
-42
-36
-8
2
26
23
4
1
-19
-41
-46
-17
-9
-2
16
32
15
-2
-7
-39
-41
-28
-7
-1
29
25
21
5
-6
-18
-26
-17
6
18
25
27
26
-2
3
-15
-27
-28
-13
13
29
12
-14
-23
-26
-42
-47
-36
-22
-1
11
15
-2
-26
-30
-25
-39
-23
-11
3
18
21
11
-9
-38
-43
-33
-23
-9
11
20
29
16
4
-13
-20
4
19
42
70
85
64
50
53
21
-12
-49
-46
-26
24
42
41
27
24
-20
-56
-51
-34
-20
13
17
6
-8
-10
-39
-41
-29
-15
3
17
23
20
-4
-19
-46
-45
-23
-2
1
24
29
25
-1
-17
-40
-51
-39
-7
6
33
22
10
3
-9
-31
-27
-15
3
-2
22
27
25
13
-11
-39
-48
-27
-3
-1
20
25
19
3
-9
-28
-20
-18
1
5
42
41
20
-4
-5
-30
-31
-23
2
17
43
31
21
5
0
-19
-19
-1
16
21
45
39
23
7
-6
-19
-7
6
21
43
54
41
33
20
4
2
6
10
34
43
59
43
47
32
-11
-5
-3
12
35
61
64
54
36
27
11
7
8
34
42
58
62
62
34
31
-2
4
-21
4
18
40
39
26
23
11
-14
-5
-17
-8
6
30
25
30
9
2
-36
-45
-30
-10
-10
23
27
18
-11
-6
-41
-45
-32
-7
0
24
23
14
-8
-7
-40
-43
-27
-6
5
31
22
-8
-4
-18
-52
-52
-34
-5
0
20
30
8
4
-1
-26
-27
-33
-14
7
21
18
4
4
-18
-44
-43
-22
-7
12
32
26
18
-16
-27
-50
-45
-29
-6
12
17
18
26
8
-27
-42
-48
-18
0
8
21
19
-10
-31
-27
-17
-7
-12
-18
9
25
18
0
-11
-33
-36
-38
-24
2
10
31
20
3
-11
-31
-29
-26
-12
-4
24
21
1
-2
-22
-44
-38
-39
-29
-4
28
30
19
-6
-21
-41
-41
-27
-14
-3
23
6
24
12
-20
-52
-38
-29
-11
11
31
18
14
-4
-21
-38
-42
-38
-14
-9
37
25
12
-1
-8
-31
-37
-33
-30
-5
18
16
1
-17
-21
-40
-37
-33
-14
-4
40
25
3
-11
-11
-37
-45
-27
-10
8
23
30
4
-9
-16
-42
-44
-39
-22
-1
24
18
17
-3
-17
-39
-46
-35
-4
5
16
28
24
7
-11
-38
-30
-16
7
9
27
29
3
-3
-14
-25
-18
-14
1
29
33
31
4
-2
-23
-40
-34
-11
-11
6
24
26
4
-7
-35
-39
-35
-31
-17
11
24
9
-12
-21
-56
-46
-27
-19
-3
24
26
12
-12
-17
-51
-34
-10
0
7
47
59
47
41
34
6
8
19
40
60
78
54
21
-23
-28
-51
-27
3
18
27
30
13
-14
-26
-31
-49
-45
-26
-12
1
31
29
19
-5
-11
-34
-32
-20
-6
-7
22
25
20
3
-11
-21
-37
-27
-6
6
7
21
15
-7
-20
-24
-41
-41
0
24
41
25
19
9
-2
-27
-41
-4
-4
10
33
20
17
8
-10
-27
-25
-14
-2
14
30
28
12
-2
-17
-33
-26
-5
4
20
37
36
21
9
-19
-32
-29
0
29
42
36
26
14
7
-16
-20
1
22
31
56
55
32
17
15
-9
-18
-10
21
40
58
56
62
42
37
2
4
5
24
32
67
69
64
48
45
15
6
2
23
27
69
62
49
27
26
-6
14
21
32
22
64
71
42
16
13
1
-8
-3
18
19
33
43
22
15
-5
-37
-15
-8
9
6
33
35
14
-3
-14
-36
-39
-28
-5
4
29
33
19
-4
-14
-37
-42
-23
1
23
11
34
21
-4
-13
-47
-44
-27
-11
7
19
17
14
-1
-12
-37
-43
-21
-4
15
26
29
14
-4
-21
-33
-26
-13
-4
9
32
15
8
2
-21
-27
-29
-12
-5
28
34
21
13
-1
-30
-43
-23
-15
-5
17
24
14
3
-10
-36
-35
-29
-16
-8
25
30
36
0
-9
-35
-32
-29
-17
-15
11
15
10
15
18
-29
-36
-30
-7
-6
14
17
15
-6
-13
-34
-32
-32
-17
-6
25
21
15
-8
-14
-39
-35
-27
0
11
25
12
12
-14
-14
-52
-45
-22
-11
-2
15
31
13
-15
-15
-36
-40
-26
-7
2
24
28
18
-14
-21
-38
-42
-29
2
27
28
21
6
-10
-29
-44
-44
-16
8
9
25
29
15
-7
-20
-40
-33
-12
7
15
24
17
26
6
-10
-21
-40
-19
-1
21
37
35
-1
-1
-28
-30
-31
-16
-3
23
32
17
7
-12
-43
-44
-28
-18
-14
8
15
10
-10
-21
-38
-36
-33
-12
-7
16
20
19
-2
-14
-40
-37
-31
-10
7
41
46
38
39
31
-3
4
24
35
40
55
42
29
-12
-42
-88
-72
-47
-11
7
33
23
-8
-26
-20
-54
-55
-43
-8
-6
13
14
17
3
-18
-43
-51
-30
-10
1
25
27
16
3
-4
-30
-39
-22
-10
-8
7
13
10
-2
-17
-53
-40
-43
-26
-1
44
47
26
9
0
-33
-30
-14
-3
6
23
29
17
0
-15
-25
-32
-12
-2
15
30
26
24
1
-16
-21
-33
-24
-2
20
34
30
17
-2
-26
-31
-27
-12
21
20
40
51
18
17
-12
-35
-27
7
29
47
63
59
17
0
-16
-11
-5
18
29
62
55
51
43
36
1
-1
0
21
30
64
49
49
41
25
0
12
14
28
42
57
58
59
36
25
-3
5
16
23
52
78
74
46
13
10
-4
-6
-6
22
24
52
52
37
23
-5
-40
-36
-24
-12
-3
31
24
6
-13
-15
-27
-40
-25
-1
6
23
21
3
-8
-17
-36
-42
-32
-19
-2
7
17
2
-5
-12
-41
-37
-32
-4
19
18
16
1
-2
-22
-61
-61
-38
14
25
39
27
-5
-14
-33
-42
-37
-15
-8
9
27
23
6
-15
-35
-43
-33
-10
2
23
25
15
5
-7
-31
-40
-44
-32
-15
21
24
13
-1
-3
-25
-33
-23
-12
-3
25
16
7
-13
-21
-34
-24
-32
-12
-5
7
-1
4
6
-10
-49
-37
-20
-7
-6
21
18
22
2
-10
-42
-38
-27
-24
-11
25
27
5
0
-17
-50
-45
-35
-13
-16
11
13
15
0
-16
-57
-42
-33
-17
-12
17
27
3
-8
-16
-40
-41
-17
-6
-4
20
25
14
2
-23
-39
-28
-21
3
15
35
31
12
0
-10
-22
-14
-15
-2
14
11
12
0
-7
-18
-48
-58
-29
-10
4
15
19
5
-14
-44
-68
-39
-36
-20
4
16
15
-5
-24
-40
-47
-47
-35
-12
16
22
1
-1
-1
-20
-16
-20
3
12
44
53
54
43
44
19
7
8
14
18
8
-6
-28
-38
-32
-37
-24
-17
-19
-45
-7
14
10
-11
-29
-55
-57
-46
-19
-2
19
26
18
2
-18
-44
-41
-31
-6
-7
27
25
16
-3
-21
-42
-39
-36
-7
-5
14
23
12
0
-15
-34
-36
-17
-6
7
30
26
5
-5
-13
-38
-39
-20
-8
3
35
23
17
-8
-31
-49
-28
-22
-16
-13
33
43
26
14
-1
-37
-27
-12
17
4
33
37
24
15
1
-18
-38
-17
0
10
25
29
26
19
-1
-17
-22
-5
13
33
44
36
32
19
6
-6
6
8
23
42
44
54
34
27
2
-13
0
23
33
61
57
61
41
27
4
8
-1
22
50
65
67
59
35
30
-2
7
6
17
31
58
49
33
12
0
-35
-21
-14
3
2
27
32
24
2
-9
-30
-35
-27
-4
5
24
24
3
-12
-11
-47
-50
-47
-21
-8
30
24
5
-13
-11
-32
-42
-31
-21
5
24
17
14
-5
-16
-35
-38
-33
-16
-6
14
20
9
-11
-28
-29
-33
-20
-4
-10
20
17
6
-13
-30
-57
-55
-24
0
-3
25
32
5
-24
-19
-32
-32
-20
-10
5
11
19
4
-11
-33
-43
-42
-27
-15
6
23
12
8
-7
-31
-45
-41
-15
-8
26
28
17
-15
-9
-39
-38
-40
-30
-17
12
25
18
-8
-27
-44
-39
-37
-23
-20
8
21
27
-4
-20
-48
-42
-22
-18
-19
25
38
22
-17
-19
-32
-41
-42
-16
-17
20
19
8
-15
-25
-55
-48
-43
-19
-13
27
20
15
-10
-16
-41
-44
-31
-19
-3
18
17
8
-13
-21
-40
-44
-29
-8
-8
22
25
5
-21
-31
-54
-35
-28
-6
-6
20
24
8
-18
-17
-32
-38
-30
-12
0
21
19
5
-13
-16
-24
-33
-14
2
9
22
18
7
-1
-14
-27
-25
-23
-6
10
29
25
2
-21
-38
-49
-53
-43
-18
11
15
15
6
-13
-43
-50
-43
-30
-29
1
26
25
5
-14
-50
-65
-56
-31
-5
13
27
28
12
3
-26
-24
-20
11
43
61
68
58
56
35
9
10
-9
-22
-54
-14
13
30
21
18
-13
-22
-49
-36
-28
2
15
10
-9
-37
-56
-40
-25
-10
-15
8
30
22
8
-7
-35
-38
-41
-24
-13
12
18
17
21
-13
-52
-47
-23
-14
8
25
19
-7
-12
-15
-28
-30
-26
-2
0
23
30
10
-17
-21
-37
-41
-30
-9
4
25
28
8
1
-13
-46
-52
-36
-4
31
43
27
17
8
-17
-35
-32
-15
3
16
27
42
11
-11
-11
-16
-15
-5
8
21
41
43
32
21
-24
-26
-33
-14
14
41
49
52
18
-1
-9
-10
2
16
28
45
44
46
20
9
-6
7
10
37
20
49
49
48
42
30
7
-2
15
25
33
54
42
43
36
15
11
9
-4
22
25
42
35
29
14
5
-26
-30
-33
-13
-1
36
22
15
-1
-10
-37
-31
-18
-1
6
18
9
-8
-22
-21
-41
-39
-25
-19
-6
20
23
9
-10
-19
-33
-43
-33
-10
3
27
12
21
5
-13
-42
-36
-29
-21
-14
11
29
15
-14
-21
-33
-45
-35
-14
-7
14
16
10
1
-14
-26
-43
-31
-20
1
25
18
3
-1
-23
-37
-35
-11
2
16
27
8
-5
-15
-28
-31
-37
-24
-2
13
27
17
0
-6
-40
-60
-44
-17
-5
8
12
14
3
-13
-36
-35
-31
-24
-14
7
15
16
-9
-20
-44
-31
-26
-11
-9
16
32
24
2
-8
-45
-41
-37
-14
-7
20
16
12
0
-6
-37
-46
-30
-11
-9
20
25
8
-13
-31
-60
-51
-37
-12
-14
12
24
19
5
-16
-45
-39
-35
-21
-4
15
26
15
-3
-24
-41
-36
-29
-15
-2
16
17
6
-4
-15
-36
-31
-30
-22
6
25
12
9
-9
-28
-34
-43
-32
-4
7
25
28
16
-5
-18
-46
-46
-14
-8
6
27
33
20
-2
-19
-28
-32
-23
0
12
16
19
10
-1
-20
-33
-33
-19
-10
4
20
13
-1
-8
-33
-43
-46
-27
-24
6
19
23
9
-20
-54
-44
-49
-18
-5
8
33
29
-6
-19
-35
-31
-31
-2
14
40
40
37
32
27
-3
17
19
33
40
73
58
34
-1
-30
-59
-34
-10
12
20
42
34
2
-18
-17
-53
-53
-43
-21
-5
19
16
8
-1
-9
-33
-39
-41
-19
-7
25
23
5
-16
-12
-37
-41
-17
-3
17
38
33
3
-9
-28
-52
-38
-27
3
27
40
29
18
4
-4
-31
-40
-34
-13
1
24
33
14
-14
-32
-27
-30
-17
0
20
27
28
12
-3
-22
-42
-32
-9
-1
27
44
28
15
3
-10
-29
-31
-13
4
25
34
37
13
4
-25
-27
-13
8
24
39
47
57
37
15
-11
-9
-5
4
21
46
38
52
32
11
0
14
14
12
29
50
62
67
45
23
10
6
4
34
43
60
51
41
32
24
3
-5
-3
8
20
62
51
44
33
29
-5
-16
-7
-4
2
40
39
25
12
-11
-31
-22
-25
2
15
18
29
26
-5
-24
-49
-47
-28
-12
-16
35
28
13
-15
-22
-39
-60
-30
-2
9
19
25
6
-3
-20
-36
-32
-23
-7
3
23
13
2
-14
-21
-44
-33
-17
-5
7
20
18
5
-3
-24
-47
-45
-23
-8
10
30
30
9
1
-30
-51
-33
-31
-16
17
11
23
8
-1
-30
-29
-39
-24
-3
19
8
11
9
-8
-30
-31
-39
-17
-9
19
21
13
-4
-21
-36
-36
-39
-29
0
26
22
12
1
-7
-32
-38
-41
-19
-6
17
13
16
-14
-27
-32
-32
-23
-5
-9
17
30
15
-20
-3
-46
-45
-31
-16
-6
17
18
7
-9
-10
-38
-41
-36
-18
-5
20
19
6
-14
-13
-28
-29
-32
-19
-11
12
21
6
-7
-29
-42
-44
-25
-20
3
35
18
0
-10
-24
-53
-60
-36
-10
11
28
15
20
-5
-23
-25
-39
-32
-25
9
26
24
13
-3
-16
-30
-31
-12
-2
12
30
31
19
-3
-28
-33
-40
-21
-4
23
37
24
5
-5
-31
-50
-35
-23
-4
-4
8
11
-5
-13
-44
-47
-37
-37
-5
18
20
18
-12
-17
-57
-49
-36
-22
-8
14
17
16
-5
-10
-33
-24
-5
13
20
55
58
72
51
30
-9
-7
6
8
-9
-10
-28
-12
-21
-27
-39
-33
-28
-27
-26
-3
9
0
-23
-26
-55
-46
-31
-12
-23
22
18
6
0
-8
-20
-31
-21
-13
-10
15
18
13
-10
-12
-37
-37
-28
-16
-1
29
24
12
-1
-17
-38
-37
-22
-8
5
33
32
19
2
-21
-42
-43
-20
-4
10
31
24
18
-2
-18
-40
-40
-22
-8
26
43
22
5
1
-12
-27
-27
-11
14
34
44
24
11
5
-18
-26
-25
-10
9
36
33
34
23
12
-3
-19
-5
6
22
23
18
40
30
14
-15
-16
-4
22
31
63
63
49
36
25
1
1
3
22
30
55
61
57
35
34
9
8
26
45
36
61
51
41
36
29
0
-5
-2
19
30
50
51
38
10
4
-20
-26
-13
8
12
37
34
19
-10
-22
-28
-30
-25
-8
6
29
21
9
-7
-23
-45
-40
-36
-21
-6
24
28
7
-17
-35
-45
-42
-18
-5
1
16
18
1
0
-23
-42
-28
-25
-1
0
3
14
9
-4
-20
-32
-38
-34
-29
-8
26
27
20
-6
-25
-47
-48
-31
-9
7
26
21
4
-8
-21
-46
-46
-26
2
17
24
20
-3
-1
-28
-36
-25
-15
-9
12
9
24
10
-16
-45
-39
-39
-27
-6
6
20
15
-8
-7
-38
-39
-33
-23
-5
24
31
11
-4
-22
-51
-43
-38
-16
-12
19
20
11
-7
-15
-38
-37
-36
-20
-6
25
26
16
-3
-14
-43
-48
-43
-13
-3
18
14
2
-5
-13
-43
-38
-45
-20
-7
15
13
1
-15
-14
-37
-31
-20
3
22
36
21
10
-9
-24
-46
-50
-23
-2
3
22
35
21
3
-13
-38
-33
-15
-5
1
22
24
12
-13
-22
-51
-53
-29
-7
-3
13
-3
-2
-9
-40
-42
-52
-46
-35
33
27
23
13
-12
-35
-58
-56
-29
-26
11
21
20
-5
-14
-35
-27
-29
-4
17
40
50
53
42
40
17
20
3
26
29
33
-5
-34
-41
-31
-34
-29
-27
-20
-16
0
-10
7
-23
-26
-35
-54
-45
-16
-6
8
24
24
2
-20
-47
-44
-36
-15
-14
20
17
10
-14
-13
-48
-40
-39
-18
-8
18
22
17
-11
-11
-47
-32
-25
-1
14
44
36
9
-17
-33
-46
-38
-27
-16
5
21
23
5
-15
-18
-53
-40
-17
-6
12
23
20
14
5
-19
-32
-29
-23
-5
5
31
33
23
-5
-8
-20
-22
-9
9
18
37
32
14
3
0
-21
-16
-1
11
12
34
33
17
13
-14
-9
-6
12
18
51
56
44
17
8
-10
5
1
12
31
49
57
52
37
26
11
13
5
19
32
52
53
56
37
30
-6
-9
-8
3
23
52
45
36
24
9
-33
-32
-18
7
11
35
37
19
-11
-20
-38
-37
-36
-31
-18
33
19
15
1
-18
-34
-58
-38
-13
-11
13
18
14
-5
-15
-47
-52
-34
-16
-6
13
15
9
-6
-17
-39
-26
-19
-17
-1
17
12
8
-16
-27
-49
-38
-32
-15
-3
33
26
13
-7
-41
-42
-54
-34
-1
12
23
23
14
-6
-9
-40
-53
-34
-21
-1
17
20
6
-8
-36
-48
-38
-24
-13
4
23
32
17
-7
-25
-44
-40
-29
-17
11
20
10
-16
-24
-39
-42
-35
-22
-11
19
16
6
-18
-6
-34
-48
-43
-29
4
19
10
10
-12
-22
-51
-48
-32
-16
-5
21
15
5
-9
-15
-46
-41
-38
-17
-5
17
16
15
2
-6
-39
-44
-35
-19
-16
9
16
10
-12
-18
-51
-52
-44
-11
-2
28
22
6
-5
-20
-46
-51
-41
-22
-17
2
24
9
-13
-14
-38
-32
-33
-27
-13
14
20
13
-10
-30
-51
-52
-32
-16
3
19
18
9
-1
-17
-35
-37
-20
-8
6
30
34
23
-4
-28
-45
-38
-27
-6
22
33
31
9
-15
-21
-45
-57
-35
-8
0
21
16
-13
-25
-44
-58
-43
-9
-6
15
23
5
-21
-22
-52
-58
-45
-17
-9
12
17
-3
-8
-26
-50
-43
-24
-13
7
44
48
39
38
32
7
14
10
35
49
65
43
8
-27
-34
-39
-34
-13
21
23
36
7
-16
-29
-28
-44
-44
-44
-32
-13
17
9
14
3
-6
-41
-39
-34
-16
-7
24
21
-2
-20
-24
-48
-36
-26
-3
-7
18
20
9
0
-15
-40
-44
-37
-14
-6
11
16
17
-11
-32
-42
-36
-25
-3
10
26
32
21
-5
-14
-35
-40
-17
-7
8
25
20
9
-6
-30
-38
-29
-9
2
15
34
31
14
-2
-27
-29
-25
-9
12
19
28
38
34
8
-3
-11
-24
-4
11
35
46
41
16
1
-15
-25
-32
32
28
51
55
51
27
11
-16
-7
-1
14
26
61
54
46
19
18
-1
4
2
26
40
58
61
59
40
27
5
7
2
17
29
53
49
38
27
13
-16
-16
-18
-5
16
34
31
29
7
-6
-39
-29
-17
-5
1
8
25
12
-11
-19
-49
-40
-21
-5
1
19
17
16
-11
-22
-43
-34
-31
-6
14
21
20
-1
-5
-16
-36
-27
-25
-12
-11
25
34
12
-8
-12
-18
-53
-30
-7
13
24
25
9
-17
-22
-39
-42
-20
-10
-5
21
15
19
4
-22
-43
-34
-10
-2
8
27
13
-5
-9
-19
-30
-35
-19
-4
19
36
27
14
-8
-36
-48
-34
-22
2
28
36
21
-2
-9
-40
-39
-34
-25
2
31
33
25
-4
-21
-43
-48
-44
-27
-9
20
21
20
0
2
-31
-37
-32
-13
-3
25
23
14
-6
-21
-46
-35
-27
0
-5
39
31
11
-6
-3
-38
-42
-16
-15
-2
23
25
14
7
-7
-37
-38
-27
-12
-12
23
29
17
-3
-15
-33
-23
-26
-14
-9
27
34
27
-4
-19
-38
-30
-3
2
17
33
34
13
1
-1
-22
-28
-16
-7
4
34
36
15
-15
-34
-34
-44
-30
0
-7
30
27
10
-6
-31
-45
-41
-31
-5
9
15
10
-2
-17
-36
-47
-29
-11
2
27
34
26
17
13
-1
-9
-8
-2
43
72
88
64
41
60
21
7
-23
-27
-31
6
33
41
32
21
-19
-41
-57
-32
-2
18
11
11
0
-15
-35
-28
-31
-13
-4
23
21
19
9
6
-32
-37
-36
-18
-8
33
25
13
9
5
-22
-21
-24
-11
11
21
32
30
-1
-9
-37
-45
-9
2
11
34
33
22
11
2
-28
-41
-27
-4
14
38
36
25
2
-12
-39
-35
-18
7
10
22
35
25
4
-9
-36
-25
-6
3
21
44
40
19
5
-17
-30
-23
3
1
27
52
50
44
19
4
-8
-10
12
10
35
61
43
41
21
7
-5
1
16
31
50
62
55
37
21
10
4
12
25
28
48
62
56
36
25
-4
-5
3
22
41
51
39
57
36
20
1
-5
-13
4
25
47
47
43
20
3
-24
-9
-9
-3
2
25
31
32
3
-9
-29
-31
-34
-15
6
29
20
16
-4
-19
-40
-44
-35
-14
-10
23
41
17
-7
-14
-39
-50
-31
-15
-2
23
9
2
-17
-19
-33
-38
-34
-15
3
27
15
10
-10
-28
-55
-39
-22
-6
12
27
23
18
15
-15
-35
-27
-15
-5
-1
19
19
3
-12
-28
-27
-34
-19
-7
2
13
17
-4
-3
-25
-46
-29
-21
-16
3
14
9
9
-10
-42
-43
-55
-21
4
25
23
16
4
-17
-47
-34
-35
-13
-8
6
20
21
1
-17
-30
-36
-31
-11
-6
12
12
6
-10
-9
-33
-30
-32
-16
-11
13
13
4
-10
-18
-52
-35
-30
-6
-6
34
34
23
-15
-28
-59
-42
-24
-19
-2
28
32
14
-5
-4
-31
-39
-15
-18
-6
25
29
23
4
0
-5
-18
-15
-8
-4
33
25
3
-8
-17
-40
-49
-39
-18
-19
6
12
13
-4
-17
-53
-50
-35
-28
-8
33
25
1
-12
-32
-49
-43
-30
-15
-4
20
25
16
-20
-32
-37
-19
4
19
32
63
74
62
44
13
-8
-8
12
10
-4
-15
-40
-38
-23
-28
-33
-30
-15
-27
-16
13
6
-8
-25
-55
-60
-62
-28
-8
23
25
21
9
-19
-33
-37
-43
-19
-4
30
11
-14
-5
-20
-39
-36
-38
-16
-13
19
23
10
-2
-4
-31
-38
-46
-21
-4
30
19
17
2
-11
-35
-49
-35
-9
1
21
23
20
0
-12
-38
-30
-23
-14
-6
28
33
8
-11
-9
-24
-17
-21
-1
9
31
44
28
10
2
-38
-53
-36
-1
6
29
45
36
12
-1
-25
-24
-6
6
27
48
46
34
17
3
-15
-8
3
18
35
47
50
54
29
11
-8
0
0
25
43
53
63
43
25
22
8
-5
10
15
30
60
58
43
31
18
-6
-10
3
26
45
54
42
28
16
-16
-28
-29
-20
6
28
33
26
-1
-11
-28
-48
-33
-14
-16
11
25
28
-4
-23
-41
-33
-56
-46
-18
23
23
17
-19
-19
-41
-41
-43
-18
2
10
19
14
-9
-13
-49
-51
-40
-21
-9
13
16
6
-12
-20
-42
-40
-35
-16
-6
28
22
8
-12
-24
-56
-45
-34
-26
6
39
31
5
-21
-17
-54
-55
-29
-23
-12
-3
34
20
0
-15
-41
-43
-31
-12
2
16
8
3
-9
-27
-37
-44
-34
-13
-3
19
20
8
-9
-25
-55
-48
-30
-12
10
21
16
2
-14
-42
-60
-55
-34
3
9
21
7
-12
-15
-25
-32
-48
-30
-15
-12
24
15
-10
-11
-35
-39
-40
-27
-13
3
9
15
-11
-10
-29
-42
-36
-30
-20
9
21
16
4
8
-21
-42
-40
-7
-5
16
16
28
7
-9
-36
-31
-33
-22
8
19
7
9
-15
-25
-52
-42
-42
-34
-1
21
27
9
-17
-35
-58
-52
-40
-23
-14
5
6
6
-14
-21
-50
-53
-46
-29
-14
21
8
17
-3
-14
-37
-30
-16
7
27
51
49
61
57
35
-1
8
-8
-9
-15
-21
-7
-5
-13
-8
-20
-22
-33
-36
-23
-2
11
-7
-28
-39
-56
-56
-33
-13
21
29
17
2
-13
-36
-54
-49
-25
-10
3
18
18
0
-13
-34
-48
-70
-36
0
9
24
23
7
0
-19
-35
-43
-17
-2
12
18
10
-5
-5
-32
-37
-33
-22
-11
11
19
17
-2
-13
-38
-39
-28
-12
-5
17
24
27
10
-11
-33
-34
-35
-20
1
25
27
21
5
-9
-44
-42
-35
-5
-1
34
37
30
24
17
-12
-11
-21
0
7
32
42
37
26
14
-16
-18
-4
13
27
58
71
42
10
4
-21
-23
-11
18
32
54
69
61
33
11
-9
0
2
12
32
49
46
44
19
5
-3
-5
-15
1
26
47
61
33
9
-11
-23
-36
-29
0
10
15
13
2
-12
-21
-40
-46
-21
-5
-3
16
22
21
-10
-40
-54
-46
-27
-13
9
15
12
-6
-18
-35
-47
-38
-20
-9
0
29
15
-6
-11
-27
-47
-40
-18
4
10
1
10
-4
-13
-36
-48
-51
-26
-8
16
18
13
-7
-19
-42
-47
-37
-24
-5
19
14
5
-17
-16
-43
-47
-41
-13
-6
23
18
6
-8
-14
-37
-47
-47
-37
-12
30
39
16
-11
-11
-32
-23
-20
-26
-36
-11
11
7
-27
-27
-35
-40
-26
-10
-1
22
11
-2
-11
-22
-45
-48
-36
-20
-9
13
14
6
-13
-26
-48
-57
-35
-12
1
18
15
-1
-14
-23
-47
-46
-32
-33
0
19
8
7
-12
-29
-52
-48
-24
-14
3
9
11
-2
-23
-47
-45
-39
-22
-6
10
29
17
-3
-13
-28
-38
-46
-23
-3
16
21
24
2
-12
-26
-38
-33
-20
-7
21
21
13
9
-4
-36
-38
-24
-14
-8
13
30
-12
-12
-25
-51
-62
-54
-34
-12
24
20
10
-4
-18
-53
-60
-61
-15
-4
16
14
3
-18
-25
-49
-46
-40
-17
1
31
39
34
24
20
2
3
13
33
43
76
68
40
9
-23
-58
-55
-27
-3
13
36
37
12
-26
-26
-51
-60
-38
-10
3
24
16
13
-5
-30
-51
-44
-32
-19
-6
17
29
5
-13
-17
-35
-40
-28
-12
2
19
15
2
-16
-20
-45
-47
-30
-2
17
32
28
2
-16
-32
-39
-28
-11
-7
4
20
13
1
-9
-30
-36
-27
-18
-1
12
24
21
-7
-11
-23
-19
-28
-14
1
26
23
26
8
2
-22
-32
-32
-14
3
36
38
27
7
-13
-25
-22
-29
-6
14
41
36
26
11
19
-11
-17
-8
11
21
46
52
40
28
15
-28
-27
-3
28
39
51
50
24
18
33
8
1
1
18
35
46
47
51
28
13
-1
-4
-1
13
20
45
47
35
24
13
-4
-23
-4
1
4
31
27
19
0
-14
-37
-33
-27
-5
3
29
22
-12
-22
-32
-44
-40
-38
-8
8
16
20
-3
-1
-11
-40
-41
-25
-7
9
23
10
-10
-8
-22
-34
-39
-22
-13
2
16
14
-6
-14
-28
-41
-32
-19
-12
-4
15
22
-1
-11
-36
-43
-39
-30
-3
19
27
13
0
-11
-44
-56
-36
-16
-11
15
25
20
-12
-12
-46
-45
-34
-24
2
14
23
19
-6
-13
-44
-37
-32
-25
-2
17
18
14
-10
-17
-45
-47
-41
-11
-6
32
20
9
-6
-22
-49
-41
-33
-28
-14
19
15
17
-3
-18
-41
-45
-35
-21
-6
19
23
6
-19
-15
-50
-31
-30
-9
-3
18
2
6
-17
-24
-45
-43
-25
-3
2
26
26
15
3
-13
-37
-44
-29
-8
-6
10
14
-1
-8
-29
-63
-55
-39
-14
-1
17
24
16
-12
-29
-41
-33
-20
-13
6
28
11
-6
-11
-29
-41
-57
-15
6
19
29
22
13
-2
-25
-25
-29
-15
4
16
29
20
5
-4
-32
-38
-36
-22
-9
20
20
22
0
-12
-44
-44
-50
-35
-13
19
18
9
-7
-27
-46
-48
-38
-20
-9
26
17
-6
-18
-23
-53
-44
-35
-15
4
42
46
27
24
29
-1
4
19
29
27
57
67
52
27
-9
-73
-72
-38
3
26
56
43
14
-27
-36
-58
-54
-40
-29
-11
19
20
12
-2
-8
-37
-40
-29
-22
-15
23
22
-11
-13
-12
-33
-47
-36
-12
8
22
28
1
-8
-23
-40
-45
-13
-4
-7
13
26
6
-11
-26
-53
-40
-12
-2
9
34
36
5
-13
-16
-37
-36
-13
-9
15
40
30
21
-4
-24
-36
-21
-22
-9
23
35
29
9
-5
-16
-17
-19
-11
-1
18
32
38
23
-1
-25
-19
-12
-10
4
34
41
33
23
7
-25
-35
-4
18
34
52
45
46
39
25
-4
-15
2
20
32
59
57
43
27
34
7
-5
7
15
20
51
67
52
32
35
6
-15
5
15
27
55
52
39
23
21
-7
-15
-7
4
4
25
44
28
1
-6
-45
-37
-25
-6
5
33
36
15
-6
-11
-40
-45
-27
-12
7
16
29
14
-12
-21
-45
-43
-31
-10
-2
18
11
10
-7
-26
-47
-41
-5
-6
2
27
19
6
-9
-16
-47
-44
-25
-12
-4
30
25
5
-19
-23
-28
-19
-12
-7
7
19
20
-6
-11
-30
-45
-38
-17
-9
23
22
30
18
-11
-39
-39
-38
-27
-2
18
19
15
4
-16
-47
-40
-37
-11
-7
17
22
18
-5
-19
-37
-32
-30
-8
-8
19
18
10
-7
-18
-44
-37
-31
-8
0
33
33
19
-17
-21
-42
-36
-24
-19
-4
22
18
19
-4
-7
-43
-50
-42
-23
-4
21
27
5
-17
-15
-37
-40
-30
-13
-2
30
27
13
-5
-21
-48
-50
-33
-15
-6
20
33
17
-10
-31
-45
-37
-24
-9
4
23
24
11
-6
-19
-34
-23
-12
-15
10
34
39
13
-16
-28
-34
-35
-11
0
8
24
27
13
-1
-21
-36
-27
-3
-1
10
24
26
9
-17
-43
-47
-48
-25
-5
30
27
17
3
-16
-37
-38
-43
-38
-11
5
18
17
-5
-7
-27
-41
-45
-36
-4
11
7
11
16
1
-20
-16
-11
8
14
50
58
56
44
39
14
-5
6
13
-7
-2
-24
-37
-34
-15
-38
-33
-33
-14
-23
2
7
-4
-15
-27
-51
-54
-25
1
-14
21
41
13
-3
-11
-39
-33
-28
-7
-6
7
13
-4
-12
-6
-35
-36
-34
-3
18
35
29
15
-10
-23
-35
-27
-15
4
13
25
27
11
-2
-19
-27
-30
-10
-2
3
44
29
22
-10
-29
-42
-29
-23
-4
27
47
32
19
5
-19
-35
-35
-11
3
24
32
33
19
8
-13
-25
-30
4
12
31
42
38
28
9
-7
-9
-14
7
13
47
51
47
32
25
-6
-13
-11
13
29
51
58
54
41
21
-10
-3
1
20
38
67
68
56
32
17
5
9
7
20
26
58
72
50
35
29
18
3
-5
17
27
51
55
37
16
5
-14
-19
-11
4
11
41
42
24
2
-13
-45
-44
-32
-6
3
25
29
14
-3
-26
-48
-34
-26
-9
-3
27
14
-8
-21
-9
-35
-56
-36
-15
-5
40
33
12
3
-17
-36
-42
-29
-20
-4
10
15
5
-2
-17
-38
-36
-14
1
9
28
25
-1
-13
-25
-37
-31
-23
-6
11
30
22
4
-11
-34
-43
-37
-19
-7
38
28
5
-2
-21
-47
-37
-33
-14
-3
10
20
17
-5
-11
-21
-34
-41
-29
-17
19
22
18
0
-16
-44
-34
-32
-13
-2
17
11
14
-2
-19
-35
-35
-41
-17
-3
25
23
-1
-10
-15
-29
-48
-41
-21
-6
29
30
14
-8
-26
-57
-47
-39
-5
-4
19
17
15
-7
-21
-53
-48
-30
-16
-14
8
2
5
-10
-5
-30
-36
-30
-14
-6
29
24
9
-10
-20
-39
-45
-34
-12
9
29
25
11
-1
-11
-37
-37
-19
2
14
36
32
17
-5
-20
-28
-31
-18
-6
19
35
13
5
-8
-28
-35
-46
-29
-14
1
19
10
-20
-36
-48
-53
-47
-23
2
21
20
18
2
-12
-37
-43
-37
-27
-13
17
15
19
-1
-19
-36
-36
-22
2
17
40
46
53
49
33
8
15
15
19
36
32
-3
-15
-31
-23
-43
-34
-15
0
5
13
5
11
-14
-25
-66
-58
-41
-28
-8
7
21
19
-6
-11
-27
-38
-33
-10
4
17
23
15
-9
-21
-33
-38
-31
-21
-8
17
21
11
-7
-16
-43
-42
-27
-17
5
17
25
14
0
-24
-49
-51
-34
-20
2
25
30
15
-5
-10
-31
-33
-24
-1
4
23
21
19
6
-15
-34
-36
-26
-14
13
29
35
16
12
-10
-30
-31
-9
1
27
41
40
26
11
-11
-29
-34
-4
4
42
47
41
19
13
-9
-14
-22
-5
12
33
38
48
26
6
5
10
1
10
33
54
53
40
25
11
-16
-12
2
29
27
54
54
52
43
28
-8
-9
-9
11
22
51
40
36
20
8
-27
-28
-13
-2
8
35
25
11
-2
-15
-41
-40
-32
-8
5
28
31
18
-10
-10
-42
-44
-47
-32
-2
22
20
4
-13
-25
-51
-54
-46
-21
-2
22
26
8
-14
-13
-44
-45
-36
-15
-9
5
38
31
-7
-29
-47
-38
-26
-10
-5
27
29
8
-5
-16
-36
-39
-25
-11
5
24
21
1
-16
-25
-41
-46
-32
-21
1
21
4
-5
-19
-38
-37
-42
-18
-7
-8
19
23
5
-8
-25
-34
-38
-22
-18
-9
13
7
6
-6
-38
-33
-36
-22
-12
21
14
14
6
6
-40
-58
-50
-26
-16
9
15
18
2
-13
-44
-45
-57
-34
-15
17
17
4
-11
-31
-48
-46
-32
-14
4
18
3
6
-8
-26
-46
-48
-37
-9
6
14
19
3
-10
-21
-47
-51
-32
-7
-2
26
36
15
-5
-21
-39
-48
-40
-25
-12
16
11
0
-7
-20
-43
-30
-26
-10
-2
21
24
11
5
-12
-31
-26
-24
-2
-9
15
10
10
-14
-30
-47
-47
-41
-22
6
19
22
4
-14
-36
-41
-52
-23
-25
4
21
12
-10
-19
-35
-46
-42
-33
-28
-8
3
6
6
-8
-19
-24
-34
-11
13
51
66
62
50
28
4
3
-1
8
-5
3
2
0
-6
2
-17
-13
-19
-16
-19
-8
-2
4
-6
-11
-25
-36
-45
-12
3
8
18
8
-6
-14
-43
-39
-28
-15
-8
21
16
1
-12
-15
-48
-38
-19
-17
-28
6
23
8
-4
-10
-50
-57
-41
-12
-3
22
15
9
-6
-21
-44
-48
-31
-7
-12
25
28
6
10
-5
-32
-32
-15
0
13
24
17
18
-3
-23
-36
-38
-17
5
22
32
29
18
5
-10
-28
-29
-10
-9
9
27
26
10
-7
-20
-27
-26
-1
8
25
40
37
27
22
-5
-12
-6
11
19
31
42
44
29
13
-7
2
6
17
19
56
59
61
37
17
-6
-1
-3
17
18
36
49
57
41
30
8
12
2
-6
-11
30
34
18
-2
-4
-19
-42
-22
7
-2
28
24
21
5
-4
-31
-30
-35
-12
-21
5
11
10
4
-4
-45
-38
-30
-12
-16
21
7
-3
-4
-8
-37
-29
-25
-16
-12
17
16
7
-10
-18
-45
-48
-33
-17
-2
13
1
3
0
-12
-41
-38
-27
-32
-11
9
5
13
-2
-19
-39
-44
-25
-8
11
19
16
3
-11
-23
-39
-38
-36
-14
-5
21
32
3
-18
-31
-36
-41
-18
-14
8
18
14
10
-10
-29
-34
-35
-31
-18
8
23
16
-6
-16
-35
-53
-53
-36
-15
12
24
23
6
-13
-47
-52
-43
-30
-6
18
19
16
2
-14
-40
-52
-60
-31
-15
18
23
14
-7
-18
-50
-50
-37
-4
-6
22
18
7
-12
-29
-46
-37
-38
-28
-14
27
17
12
-8
-20
-43
-37
-22
-13
-4
18
13
20
-12
-16
-52
-36
-34
-20
-3
43
26
7
-1
-25
-44
-35
-33
-7
1
30
15
6
-2
-14
-50
-42
-13
-7
-6
20
31
-3
-23
-32
-37
-44
-36
-24
-9
15
18
15
-17
-33
-61
-51
-31
-19
5
23
21
7
-18
-34
-44
-48
-35
-16
9
36
40
20
-2
-14
-5
-4
21
27
51
73
68
41
26
-13
-57
-86
-76
-30
10
14
26
12
-12
-64
-75
-69
-40
-14
6
18
8
-7
-7
-27
-39
-36
-15
-5
13
23
25
0
-9
-35
-39
-30
-18
-15
7
23
20
1
-3
-41
-50
-37
-4
9
28
18
-11
-14
-13
-29
-39
-33
-9
-12
18
11
16
-9
-15
-34
-33
-22
-6
-7
17
32
27
6
-10
-38
-31
-17
2
4
29
36
33
5
-1
-22
-33
-19
1
22
31
31
11
1
-7
-24
-14
1
12
19
32
25
24
14
-9
-28
-19
-7
8
27
50
56
38
27
10
-11
-7
12
30
35
58
73
33
31
7
-8
-6
8
25
48
66
57
45
36
7
6
8
10
25
44
56
55
33
20
-4
-11
-9
1
17
47
44
32
17
1
-36
-29
-25
-16
8
27
21
24
-6
-2
-23
-38
-27
-20
-2
16
10
14
-6
-7
-34
-40
-28
-19
-22
5
19
14
4
-6
-39
-47
-35
-22
-1
24
27
20
-6
-16
-42
-44
-29
-3
5
16
18
7
-13
-11
-44
-40
-19
-6
5
21
31
16
-4
-10
-46
-41
-24
-25
-13
18
22
13
-1
-4
-38
-30
-31
-13
0
15
25
10
-12
-14
-23
-28
-14
-1
12
18
10
-4
-11
-25
-39
-38
-27
-8
12
24
20
0
-11
-33
-52
-41
-24
-8
-1
15
21
0
-9
-25
-47
-46
-26
-7
-4
14
19
5
7
-20
-34
-43
-21
-1
12
17
11
9
-2
-36
-34
-35
-24
-11
25
33
21
-1
0
-24
-23
-24
-15
-5
28
18
20
18
1
-34
-28
-28
-22
-13
11
13
13
-10
-14
-40
-49
-37
-27
-11
16
22
2
-15
-15
-33
-40
-42
-16
1
28
23
8
-17
-27
-55
-54
-44
-17
-10
21
38
18
8
-2
-23
-16
9
34
35
67
73
59
47
23
-14
-41
-52
-60
-38
-1
18
5
5
-7
-41
-53
-47
-31
0
9
4
-15
-18
-25
-44
-37
-21
0
7
2
12
3
-17
-29
-44
-41
-23
10
18
17
8
1
-8
-33
-40
-36
-17
-10
15
27
19
7
-9
-35
-35
-32
-21
-6
16
24
31
4
-11
-54
-45
-20
-14
7
6
12
17
-3
-11
-41
-34
-11
-5
12
26
30
27
8
-4
-40
-20
-24
-1
1
35
35
25
8
5
-16
-24
-17
-5
8
33
41
36
13
4
-33
-23
-6
7
17
60
60
36
15
3
-21
-10
5
15
33
60
57
45
31
28
3
-18
1
38
38
58
65
44
31
28
0
5
2
24
26
56
53
40
25
10
-18
-16
-2
9
23
42
30
17
5
-7
-23
-34
-17
-10
14
23
17
11
-6
-27
-42
-43
-34
-9
3
23
14
-7
-11
-31
-41
-41
-20
-4
14
27
22
-2
-21
-35
-41
-30
-26
-8
15
21
15
1
-18
-38
-43
-33
-21
-7
0
3
8
-4
-13
-39
-33
-32
-12
-6
20
17
13
0
-18
-47
-33
-27
-10
-16
5
19
16
-15
-7
-53
-47
-18
-11
-3
24
21
5
-1
-20
-48
-39
-37
-14
-8
20
23
14
1
-12
-40
-46
-47
-21
-16
0
18
24
-1
-15
-39
-37
-35
0
-2
19
13
1
-15
-28
-51
-45
-24
-16
2
18
23
11
-25
-43
-57
-48
-37
-21
-2
16
25
20
-7
-42
-43
-51
-28
0
8
19
13
0
-8
-14
-27
-38
-26
-13
-6
6
15
6
-8
-29
-40
-41
-21
-1
16
14
17
13
-4
-29
-31
-15
-14
-15
12
21
14
-3
-10
-41
-46
-32
-20
-15
11
23
11
-8
-10
-51
-56
-42
-17
-14
8
2
-8
-3
-10
-39
-44
-31
-13
-10
5
7
-4
-16
-14
-44
-44
-34
2
9
38
40
44
28
16
-10
-10
-5
19
43
62
49
18
-23
-41
-57
-47
-18
12
20
56
33
-4
-27
-25
-53
-52
-38
-11
-16
22
28
26
-9
-35
-55
-48
-33
0
9
16
17
2
-15
-22
-41
-43
-27
-12
-1
21
14
9
-8
-36
-43
-39
-29
-12
-1
25
20
-1
-11
-35
-56
-38
-20
-19
20
32
24
0
-10
-15
-30
-29
-16
5
3
29
20
-4
-12
-27
-35
-30
-10
-4
20
26
33
4
-9
-25
-27
-25
5
16
20
18
21
4
-2
-18
-27
-24
7
11
34
43
33
17
12
