-79
-74
-76
-72
-72
-72
-79
-79
-83
-87
-79
-75
-76
-74
-68
-63
-71
-81
-78
-84
-77
-76
-73
-75
-76
-74
-73
-78
-83
-66
-69
-78
-74
-72
-71
-77
-78
-78
-72
-72
-76
-73
-81
-70
-72
-73
-73
-74
-72
-77
-77
-79
-82
-79
-76
-77
-78
-80
-70
-84
-88
-80
-77
-80
-73
-77
-74
-76
-80
-86
-83
-78
-71
-69
-82
-73
-79
-82
-85
-80
-75
-71
-69
-73
-73
-80
-92
-89
-84
-76
-74
-75
-75
-74
-75
-75
-87
-85
-89
-89
-87
-72
-66
-77
-90
-75
-68
-72
-80
-82
-80
-78
-75
-70
-73
-74
-74
-79
-85
-74
-78
-70
-64
-59
-57
-64
-58
-65
-67
-71
-77
-83
-77
-68
-73
-81
-84
-83
-74
-68
-83
-91
-93
-77
-76
-73
-72
-79
-84
-79
-79
-86
-80
-79
-88
-83
-84
-79
-89
-94
-84
-63
-68
-76
-81
-74
-75
-75
-83
-81
-80
-83
-77
-85
-81
-86
-88
-90
-100
-108
-113
-109
-100
-87
-77
-61
-37
-8
24
43
58
80
96
102
93
82
59
53
34
-7
-40
-51
-46
-45
-62
-54
-57
-62
-62
-71
-91
-84
-84
-76
-77
-71
-76
-79
-83
-83
-84
-81
-76
-74
-74
-69
-77
-77
-81
-82
-80
-77
-75
-79
-70
-70
-85
-72
-74
-75
-77
-73
-69
-63
-72
-77
-71
-80
-86
-74
-59
-64
-61
-61
-68
-63
-71
-78
-64
-69
-65
-64
-66
-63
-54
-53
-60
-67
-66
-62
-62
-57
-53
-59
-51
-55
-45
-45
-53
-47
-44
-34
-37
-50
-43
-47
-47
-35
-22
-26
-34
-36
-23
-26
-32
-37
-31
-35
-33
-32
-35
-26
-28
-29
-32
-37
-39
-40
-44
-43
-36
-42
-53
-46
-54
-42
-58
-57
-51
-47
-52
-61
-63
-67
-69
-77
-72
-73
-75
-74
-73
-70
-68
-70
-76
-77
-71
-67
-78
-85
-81
-78
-75
-81
-80
-80
-82
-86
-79
-83
-72
-65
-73
-72
-84
-88
-85
-84
-75
-76
-84
-77
-77
-85
-84
-83
-81
-84
-83
-80
-78
-78
-86
-87
-79
-74
-82
-86
-81
-77
-70
-75
-82
-84
-77
-82
-83
-75
-74
-85
-83
-83
-71
-67
-77
-78
-80
-78
-79
-74
-72
-74
-78
-80
-66
-77
-74
-76
-75
-73
-76
-77
-81
-75
-79
-82
-87
-85
-89
-91
-84
-80
-79
-84
-79
-84
-85
-84
-87
-89
-91
-89
-88
-83
-94
-93
-94
-74
-83
-87
-97
-93
-94
-91
-96
-89
-92
-91
-90
-95
-86
-80
-94
-95
-91
-93
-103
-90
-99
-98
-92
-92
-88
-96
-98
-90
-86
-90
-94
-96
-89
-96
-96
-94
-91
-94
-84
-81
-92
-94
-89
-87
-78
-76
-81
-89
-94
-85
-82
-77
-73
-84
-95
-95
-87
-93
-95
-101
-98
-92
-96
-91
-88
-92
-97
-97
-97
-96
-91
-96
-100
-98
-98
-93
-100
-106
-98
-86
-93
-89
-96
-104
-110
-94
-80
-78
-92
-105
-99
-92
-93
-98
-104
-103
-104
-94
-98
-98
-106
-112
-108
-118
-115
-122
-133
-119
-107
-85
-63
-27
2
25
55
74
87
74
77
63
46
37
11
-9
-38
-54
-57
-73
-78
-85
-85
-85
-86
-95
-96
-96
-96
-94
-98
-97
-99
-91
-94
-97
-93
-101
-100
-98
-99
-87
-84
-82
-89
-101
-96
-88
-94
-88
-87
-90
-90
-77
-83
-89
-84
-85
-83
-80
-86
-95
-92
-97
-92
-82
-84
-85
-83
-89
-85
-78
-80
-78
-80
-75
-75
-86
-87
-77
-75
-81
-79
-67
-70
-73
-73
-63
-72
-65
-71
-70
-53
-44
-49
-56
-64
-71
-57
-55
-47
-51
-56
-47
-46
-52
-57
-54
-47
-49
-41
-49
-46
-46
-41
-44
-41
-44
-51
-50
-53
-46
-47
-52
-57
-56
-60
-60
-59
-60
-66
-63
-72
-65
-66
-69
-80
-80
-80
-87
-91
-90
-87
-72
-75
-76
-81
-92
-90
-95
-89
-88
-88
-84
-87
-90
-92
-95
-98
-96
-92
-90
-89
-83
-93
-102
-92
-90
-89
-77
-95
-97
-88
-84
-93
-98
-97
-94
-92
-89
-95
-102
-95
-94
-92
-90
-95
-96
-95
-94
-92
-87
-87
-83
-89
-91
-93
-89
-90
-86
-91
-92
-91
-83
-90
-90
-94
-94
-82
-83
-81
-85
-80
-85
-86
-86
-85
-91
-89
-84
-83
-89
-85
-85
-92
-93
-84
-89
-87
-97
-92
-89
-85
-85
-85
-76
-81
-95
-91
-94
-96
-98
-84
-85
-90
-81
-86
-86
-94
-98
-89
-78
-84
-86
-86
-98
-96
-98
-96
-105
-98
-84
-92
-95
-93
-94
-96
-93
-99
-91
-90
-94
-94
-87
-85
-89
-93
-85
-80
-83
-93
-87
-79
-77
-76
-81
-81
-81
-81
-81
-89
-82
-77
-72
-69
-74
-74
-84
-86
-89
-88
-93
-80
-76
-79
-91
-97
-98
-99
-103
-92
-75
-80
-83
-97
-92
-95
-94
-90
-92
-107
-93
-82
-96
-98
-89
-83
-88
-89
-86
-85
-88
-94
-90
-93
-97
-88
-93
-95
-90
-90
-97
-88
-99
-90
-97
-110
-109
-110
-115
-119
-114
-109
-106
-99
-77
-57
-27
12
38
75
100
107
85
67
47
30
25
16
-19
-54
-60
-54
-61
-74
-78
-82
-91
-85
-88
-89
-87
-98
-92
-87
-91
-98
-98
-89
-92
-87
-80
-84
-95
-97
-91
-89
-85
-82
-81
-75
-90
-91
-87
-95
-98
-104
-90
-84
-79
-88
-73
-73
-85
-80
-77
-81
-91
-101
-92
-84
-86
-75
-74
-83
-87
-84
-62
-71
-82
-83
-78
-67
-69
-75
-74
-72
-69
-69
-73
-68
-64
-63
-68
-70
-62
-60
-53
-56
-61
-61
-45
-48
-48
-46
-44
-46
-52
-56
-53
-45
-42
-49
-36
-43
-48
-50
-32
-22
-38
-50
-45
-45
-45
-47
-48
-53
-51
-56
-55
-60
-55
-54
-66
-68
-76
-80
-66
-71
-63
-67
-68
-74
-75
-78
-82
-76
-75
-81
-85
-83
-78
-78
-83
-87
-98
-94
-89
-94
-95
-90
-89
-88
-79
-86
-85
-84
-87
-96
-98
-88
-88
-92
-86
-100
-99
-89
-86
-96
-91
-93
-87
-90
-102
-99
-88
-77
-77
-93
-98
-92
-90
-100
-83
-80
-89
-92
-93
-81
-83
-89
-75
-81
-88
-91
-94
-79
-78
-84
-74
-78
-87
-85
-86
-91
-92
-84
-84
-79
-81
-92
-84
-89
-93
-96
-83
-80
-79
-90
-87
-91
-75
-81
-78
-80
-85
-82
-87
-79
-86
-84
-91
-81
-83
-87
-92
-88
-87
-84
-73
-75
-86
-91
-86
-87
-90
-88
-86
-87
-86
-82
-83
-90
-96
-98
-88
-88
-88
-83
-80
-80
-91
-86
-89
-89
-86
-85
-93
-85
-80
-80
-83
-87
-79
-69
-80
-83
-84
-84
-82
-64
-64
-71
-79
-75
-84
-81
-81
-90
-81
-80
-82
-95
-97
-99
-91
-90
-93
-95
-85
-87
-73
-81
-85
-84
-97
-98
-94
-98
-87
-91
-102
-84
-87
-87
-90
-86
-99
-94
-89
-106
-97
-94
-96
-100
-105
-100
-105
-108
-103
-100
-100
-111
-112
-124
-130
-132
-135
-130
-115
-102
-84
-61
-35
-1
45
63
83
89
72
62
48
35
28
-7
-39
-71
-83
-84
-83
-83
-93
-87
-97
-107
-101
-105
-103
-96
-95
-104
-101
-97
-107
-101
-106
-107
-93
-87
-96
-104
-99
-94
-94
-96
-95
-98
-105
-111
-107
-97
-92
-90
-94
-98
-97
-93
-97
-91
-88
-92
-94
-85
-100
-113
-86
-82
-85
-92
-87
-84
-87
-89
-86
-96
-96
-81
-90
-87
-82
-74
-80
-76
-80
-76
-80
-84
-77
-74
-66
-68
-63
-69
-69
-65
-63
-69
-67
-64
-54
-54
-50
-55
-59
-55
-50
-55
-48
-51
-53
-50
-46
-26
-37
-60
-72
-58
-57
-54
-56
-50
-56
-59
-65
-66
-64
-62
-65
-69
-63
-72
-77
-76
-71
-81
-88
-88
-79
-78
-84
-86
-83
-93
-100
-84
-85
-95
-88
-91
-91
-87
-90
-100
-108
-105
-104
-103
-101
-103
-89
-87
-98
-97
-97
-100
-97
-103
-104
-94
-99
-99
-97
-93
-89
-98
-99
-104
-96
-94
-95
-96
-92
-93
-109
-105
-101
-90
-95
-88
-92
-101
-102
-114
-100
-88
-79
-80
-86
-95
-96
-96
-95
-94
-92
-97
-92
-80
-88
-87
-82
-92
-96
-97
-99
-90
-88
-94
-92
-93
-99
-92
-98
-80
-83
-95
-96
-94
-100
-106
-95
-89
-87
-96
-86
-91
-92
-92
-86
-80
-87
-97
-105
-98
-97
-95
-99
-96
-101
-99
-104
-99
-95
-91
-98
-97
-104
-93
-89
-89
-92
-96
-94
-95
-90
-97
-99
-84
-78
-81
-92
-101
-94
-81
-84
-85
-82
-80
-76
-81
-89
-94
-92
-95
-97
-99
-98
-96
-99
-99
-93
-94
-108
-118
-115
-99
-83
-85
-94
-98
-98
-100
-97
-95
-92
-95
-100
-98
-90
-89
-96
-99
-103
-105
-106
-105
-95
-93
-99
-105
-100
-104
-110
-115
-100
-91
-90
-94
-99
-117
-128
-126
-131
-120
-113
-104
-86
-62
-37
-1
37
54
73
82
85
71
62
52
35
10
-11
-58
-76
-76
-74
-80
-93
-89
-83
-88
-96
-100
-100
-102
-105
-102
-106
-93
-99
-105
-97
-85
-90
-90
-93
-97
-95
-87
-92
-95
-93
-97
-99
-88
-90
-90
-92
-86
-82
-91
-94
-96
-93
-85
-85
-92
-81
-74
-84
-96
-95
-88
-88
-86
-86
-87
-85
-91
-78
-80
-79
-82
-82
-78
-83
-80
-71
-69
-73
-74
-65
-71
-83
-71
-62
-60
-67
-65
-63
-59
-54
-59
-62
-60
-53
-52
-48
-46
-45
-50
-50
-47
-49
-48
-39
-47
-45
-48
-52
-45
-51
-52
-45
-40
-37
-47
-48
-52
-55
-53
-57
-64
-63
-73
-75
-68
-65
-58
-57
-57
-76
-79
-81
-75
-81
-71
-67
-71
-83
-90
-98
-97
-90
-78
-87
-103
-87
-84
-85
-91
-94
-95
-98
-97
-84
-89
-92
-89
-96
-90
-97
-98
-92
-94
-96
-97
-91
-93
-92
-85
-81
-89
-98
-106
-106
-96
-85
-92
-96
-88
-88
-99
-89
-94
-92
-96
-87
-83
-88
-84
-84
-92
-94
-96
-90
-86
-84
-82
-85
-90
-92
-89
-89
-84
-92
-88
-92
-91
-89
-87
-85
-83
-87
-88
-95
-89
-84
-82
-93
-91
-96
-102
-85
-91
-92
-83
-81
-90
-97
-89
-92
-97
-97
-89
-89
-84
-85
-91
-95
-90
-95
-98
-90
-94
-96
-91
-90
-103
-86
-85
-90
-94
-99
-98
-90
-79
-76
-91
-91
-91
-102
-92
-77
-78
-77
-88
-81
-63
-69
-82
-97
-99
-93
-91
-101
-95
-92
-94
-96
-92
-97
-99
-96
-96
-101
-95
-100
-97
-94
-100
-99
-102
-98
-106
-95
-85
-89
-91
-84
-100
-103
-101
-95
-97
-100
-102
-94
-99
-100
-95
-99
-98
-94
-96
-107
-107
-108
-113
-124
-122
-118
-125
-119
-104
-85
-69
-36
-4
21
46
72
87
84
71
69
57
34
16
-18
-57
-82
-82
-77
-79
-92
-81
-74
-80
-99
-107
-107
-106
-102
-99
-93
-87
-92
-92
-104
-108
-97
-97
-82
-93
-93
-92
-97
-103
-103
-91
-95
-94
-91
-92
-88
-83
-91
-91
-91
-99
-103
-100
-86
-86
-85
-77
-82
-83
-85
-90
-88
-91
-94
-81
-83
-83
-84
-80
-81
-83
-86
-82
-79
-81
-74
-76
-73
-64
-77
-80
-76
-75
-70
-68
-60
-61
-55
-56
-65
-62
-58
-53
-53
-53
-46
-50
-55
-51
-57
-59
-60
-47
-38
-41
-48
-52
-52
-52
-47
-53
-45
-46
-52
-58
-54
-52
-60
-65
-62
-59
-67
-70
-72
-62
-75
-83
-79
-62
-70
-78
-88
-77
-85
-79
-82
-90
-93
-91
-97
-96
-104
-99
-79
-86
-88
-93
-83
-81
-90
-108
-94
-89
-94
-97
-95
-97
-108
-99
-96
-101
-98
-89
-101
-99
-99
-102
-101
-93
-104
-90
-89
-95
-93
-99
-92
-91
-93
-93
-92
-98
-93
-92
-96
-88
-85
-93
-96
-93
-97
-92
-95
-85
-84
-78
-86
-91
-95
-94
-89
-82
-97
-99
-95
-88
-86
-85
-87
-94
-90
-93
-97
-91
-87
-87
-88
-89
-89
-93
-96
-94
-88
-83
-92
-87
-82
-90
-97
-96
-88
-87
-85
-90
-87
-85
-89
-96
-102
-98
-90
-78
-87
-100
-90
-75
-89
-103
-102
-93
-105
-93
-82
-88
-89
-86
-87
-87
-83
-85
-91
-90
-91
-85
-88
-74
-63
-72
-74
-81
-88
-82
-89
-90
-94
-90
-92
-87
-87
-92
-96
-96
-92
-98
-97
-91
-95
-106
-101
-103
-95
-92
-96
-94
-93
-92
-95
-94
-96
-99
-103
-96
-94
-88
-94
-99
-97
-88
-93
-96
-104
-101
-101
-103
-94
-96
-105
-104
-116
-124
-126
-121
-116
-117
-98
-92
-72
-48
-11
11
47
72
91
94
91
81
67
48
22
3
-32
-62
-82
-79
-91
-79
-82
-87
-95
-89
-98
-89
-94
-92
-85
-84
-88
-89
-91
-95
-101
-90
-86
-90
-96
-91
-86
-87
-105
-102
-102
-93
-95
-93
-93
-89
-93
-86
-90
-91
-90
-88
-92
-86
-85
-84
-91
-89
-84
-83
-82
-85
-90
-85
-73
-69
-81
-86
-89
-82
-78
-74
-79
-85
-74
-64
-70
-81
-79
-73
-78
-71
-72
-70
-67
-54
-57
-60
-63
-71
-67
-51
-55
-50
-48
-46
-45
-47
-43
-46
-51
-49
-44
-45
-46
-45
-43
-51
-52
-48
-48
-46
-60
-61
-43
-44
-57
-58
-54
-64
-57
-65
-75
-64
-61
-72
-77
-80
-77
-75
-76
-81
-89
-84
-80
-83
-81
-81
-90
-99
-96
-90
-94
-83
-79
-87
-89
-88
-100
-100
-92
-96
-96
-89
-84
-96
-97
-102
-103
-100
-100
-93
-95
-107
-99
-99
-92
-100
-96
-96
-96
-93
-103
-93
-88
-95
-97
-94
-100
-101
-92
-101
-101
-95
-95
-93
-84
-91
-90
-89
-90
-95
-93
-78
-81
-100
-102
-86
-86
-89
-86
-94
-94
-86
-83
-88
-85
-87
-94
-94
-95
-88
-87
-82
-80
-95
-100
-94
-101
-105
-84
-85
-96
-89
-88
-90
-93
-88
-92
-99
-112
-97
-89
-84
-84
-87
-96
-95
-98
-98
-94
-94
-90
-86
-87
-86
-96
-101
-91
-94
-96
-100
-98
-105
-94
-83
-94
-92
-90
-87
-83
-96
-96
-87
-82
-79
-75
-83
-89
-88
-95
-95
-88
-79
-78
-83
-86
-92
-92
-95
-99
-102
-102
-103
-107
-92
-92
-91
-94
-108
-107
-98
-95
-100
-111
-96
-96
-100
-109
-109
-104
-96
-94
-81
-93
-104
-97
-96
-95
-98
-92
-81
-86
-92
-99
-99
-86
-102
-97
-98
-106
-115
-113
-120
-121
-124
-116
-110
-90
-70
-48
-12
30
69
87
102
120
99
81
88
75
56
33
-3
-35
-52
-60
-70
-74
-80
-81
-82
-76
-86
-88
-88
-88
-83
-83
-82
-85
-91
-85
-85
-87
-81
-76
-77
-83
-88
-92
-89
-85
-76
-83
-74
-84
-82
-82
-81
-80
-81
-85
-78
-71
-76
-74
-79
-81
-71
-79
-80
-66
-57
-71
-72
-71
-76
-77
-73
-73
-72
-66
-57
-60
-65
-66
-64
-61
-57
-57
-65
-67
-64
-60
-60
-56
-60
-58
-47
-43
-44
-45
-47
-43
-44
-40
-44
-46
-40
-41
-40
-33
-34
-36
-32
-33
-41
-44
-48
-39
-39
-25
-34
-42
-35
-48
-57
-47
-50
-51
-50
-47
-52
-51
-58
-55
-56
-52
-66
-70
-74
-67
-58
-74
-87
-81
-83
-80
-75
-78
-81
-79
-82
-87
-81
-81
-85
-85
-89
-91
-87
-85
-91
-90
-86
-88
-91
-80
-86
-85
-85
-85
-91
-92
-97
-97
-91
-97
-95
-97
-93
-81
-84
-89
-103
-97
-90
-88
-90
-90
-95
-95
-93
-87
-85
-85
-91
-91
-89
-86
-81
-83
-87
-92
-86
-75
-86
-85
-85
-72
-76
-76
-75
-86
-95
-85
-85
-84
-71
-83
-90
-78
-81
-84
-88
-82
-79
-84
-84
-82
-84
-84
-84
-90
-84
-81
-83
-82
-88
-88
-82
-79
-83
-85
-76
-80
-87
-85
-82
-81
-82
-88
-74
-78
-82
-78
-80
-84
-85
-76
-68
-69
-74
-88
-80
-80
-78
-74
-69
-76
-80
-76
-81
-84
-84
-72
-67
-72
-77
-78
-83
-85
-90
-87
-81
-82
-89
-89
-95
-89
-87
-90
-84
-91
-86
-86
-87
-83
-82
-89
-84
-91
-97
-90
-86
-95
-91
-88
-91
-82
-79
-79
-85
-92
-95
-93
-91
-91
-86
-86
-87
-93
-85
-96
-95
-93
-89
-103
-116
-120
-117
-103
-95
-91
-76
-49
-20
19
53
77
92
93
88
83
73
66
44
23
-3
-34
-54
-76
-88
-89
-78
-84
-79
-79
-86
-90
-69
-76
-89
-91
-95
-95
-92
-94
-82
-78
-77
-91
-95
-92
-92
-84
-87
-92
-81
-83
-87
-83
-88
-91
-84
-81
-80
-84
-76
-80
-82
-83
-77
-81
-73
-78
-76
-84
-84
-77
-73
-81
-71
-71
-73
-78
-74
-71
-63
-69
-65
-66
-75
-68
-64
-69
-65
-51
-51
-62
-66
-53
-61
-51
-52
-55
-50
-50
-48
-49
-45
-42
-38
-37
-39
-41
-41
-38
-40
-36
-46
-41
-45
-51
-43
-30
-33
-35
-38
-38
-39
-37
-45
-48
-44
-51
-44
-45
-47
-45
-49
-71
-77
-66
-61
-67
-65
-65
-66
-61
-63
-73
-82
-84
-77
-75
-83
-80
-75
-78
-85
-87
-89
-90
-82
-88
-93
-86
-80
-76
-89
-88
-89
-91
-85
-85
-95
-96
-88
-79
-91
-87
-91
-88
-89
-94
-94
-97
-94
-86
-91
-78
-81
-85
-94
-91
-89
-86
-78
-79
-90
-88
-85
-82
-90
-78
-84
-82
-77
-80
-86
-74
-78
-85
-83
-77
-78
-75
-79
-65
-65
-74
-90
-83
-88
-73
-71
-75
-70
-69
-70
-77
-87
-88
-83
-80
-74
-73
-76
-74
-70
-73
-75
-81
-85
-86
-90
-87
-76
-65
-75
-88
-84
-69
-69
-74
-71
-80
-79
-83
-75
-74
-78
-80
-71
-73
-77
-75
-78
-69
-65
-70
-77
-79
-71
-72
-66
-56
-61
-77
-71
-72
-62
-62
-70
-73
-72
-74
-76
-80
-81
-82
-83
-84
-83
-86
-78
-74
-77
-80
-75
-76
-82
-86
-77
-75
-87
-85
-81
-88
-87
-79
-74
-83
-87
-87
-89
-80
-85
-81
-74
-81
-82
-74
-79
-71
-88
-81
-73
-76
-84
-100
-96
-105
-109
-105
-108
-104
-96
-86
-73
-49
-23
11
57
82
96
109
110
105
94
83
74
58
23
-11
-33
-54
-62
-65
-66
-72
-66
-72
-84
-88
-82
-79
-76
-76
-77
-77
-80
-85
-79
-75
-73
-76
-79
-70
-75
-69
-72
-73
-78
-86
-68
-68
-68
-64
-75
-65
-79
-76
-68
-69
-65
-66
-66
-73
-70
-58
-63
-63
-68
-72
-76
-66
-65
-57
-60
-69
-74
-76
-68
-78
-62
-46
-51
-52
-53
-51
-60
-51
-51
-55
-59
-58
-43
-41
-43
-50
-50
-37
-38
-38
-38
-28
-33
-31
-32
-33
-31
-31
-29
-21
-27
-31
-23
-19
-28
-31
-36
-37
-32
-26
-26
-29
-31
-29
-35
-46
-51
-46
-51
-33
-40
-44
-50
-51
-50
-53
-56
-57
-52
-58
-62
-60
-63
-62
-64
-64
-60
-63
-77
-79
-74
-74
-78
-64
-73
-70
-73
-74
-86
-85
-76
-79
-75
-74
-80
-87
-80
-77
-74
-70
-74
-76
-80
-81
-82
-89
-88
-81
-77
-81
-80
-80
-78
-86
-87
-76
-80
-75
-71
-76
-80
-83
-75
-76
-81
-79
-78
-87
-74
-75
-78
-68
-72
-74
-81
-74
-64
-73
-77
-70
-70
-74
-70
-76
-80
-85
-88
-74
-61
-62
-64
-66
-70
-74
-70
-73
-70
-80
-81
-63
-58
-70
-67
-73
-72
-73
-75
-70
-64
-68
-70
-75
-75
-71
-75
-79
-74
-69
-69
-71
-75
-73
-73
-77
-85
-83
-76
-61
-55
-70
-76
-70
-74
-83
-86
-79
-77
-67
-68
-71
-68
-65
-61
-62
-68
-72
-74
-78
-68
-71
-63
-56
-54
-54
-66
-68
-60
-63
-63
-68
-70
-73
-64
-74
-78
-84
-79
-76
-78
-67
-71
-79
-72
-80
-82
-67
-65
-69
-70
-70
-65
-74
-82
-81
-76
-75
-79
-76
-74
-76
-70
-75
-77
-77
-72
-79
-71
-68
-77
-77
-75
-67
-73
-90
-89
-91
-78
-93
-101
-102
-105
-99
-91
-88
-71
-49
-15
13
49
91
111
126
130
115
102
92
77
55
30
5
-33
-34
-33
-38
-62
-70
-64
-57
-63
-67
-63
-64
-63
-68
-73
-73
-66
-70
-72
-71
-72
-72
-75
-76
-68
-67
-69
-66
-69
-56
-60
-61
-61
-60
-70
-85
-66
-70
-63
-54
-56
-61
-69
-66
-57
-62
-66
-62
-60
-60
-65
-62
-58
-57
-58
-55
-64
-61
-52
-49
-52
-51
-48
-52
-57
-63
-47
-42
-43
-50
-44
-39
-45
-42
-34
-35
-39
-36
-29
-25
-30
-36
-35
-40
-26
-22
-24
-20
-14
-18
-16
-19
-19
-18
-19
-28
-19
-18
-23
-33
-14
-25
-29
-26
-24
-28
-29
-26
-28
-26
-38
-36
-39
-46
-48
-38
-42
-51
-47
-45
-53
-52
-55
-55
-56
-65
-62
-55
-58
-61
-61
-59
-71
-69
-69
-72
-72
-66
-65
-67
-69
-71
-71
-76
-76
-71
-75
-73
-62
-61
-60
-62
-62
-75
-79
-77
-79
-71
-65
-63
-53
-67
-70
-77
-72
-66
-75
-71
-63
-79
-76
-73
-73
-76
-74
-69
-71
-73
-61
-69
-71
-70
-71
-71
-70
-70
-72
-70
-69
-68
-63
-65
-61
-64
-72
-72
-70
-66
-64
-61
-59
-69
-72
-73
-75
-65
-66
-67
-61
-70
-68
-61
-71
-75
-72
-62
-60
-71
-66
-60
-65
-64
-63
-63
-63
-63
-67
-55
-55
-54
-58
-66
-74
-71
-68
-71
-63
-59
-63
-62
-68
-71
-77
-69
-71
-63
-66
-65
-59
-72
-73
-58
-65
-65
-70
-65
-65
-59
-58
-62
-66
-71
-68
-66
-63
-61
-58
-59
-60
-60
-63
-76
-76
-65
-57
-57
-63
-66
-70
-75
-71
-68
-68
-76
-75
-54
-47
-48
-54
-58
-56
-57
-53
-60
-67
-55
-43
-34
-50
-39
-38
-59
-64
-59
-61
-59
-52
-48
-46
-56
-56
-60
-61
-67
-61
-70
-60
-61
-64
-57
-59
-64
-64
-66
-63
-66
-57
-56
-60
-75
-72
-69
-71
-70
-63
-64
-61
-54
-56
-58
-74
-82
-81
-57
-62
-67
-63
-63
-57
-56
-66
-71
-70
-68
-68
-70
-80
-86
-101
-89
-91
-98
-89
-74
-55
-28
-4
28
62
94
112
131
131
135
120
97
88
61
32
-1
-8
-15
-23
-26
-40
-38
-50
-45
-52
-60
-68
-69
-68
-66
-66
-72
-63
-59
-60
-61
-64
-54
-60
-65
-59
-62
-62
-65
-60
-61
-61
-58
-54
-53
-59
-63
-54
-63
-61
-60
-59
-60
-55
-55
-45
-53
-62
-58
-54
-52
-59
-58
-60
-58
-60
-43
-46
-55
-52
-44
-36
-42
-50
-54
-44
-46
-44
-35
-27
-40
-41
-46
-42
-38
-34
-33
-25
-34
-34
-24
-24
-27
-28
-24
-20
-13
-10
-18
-21
-17
-18
-16
-13
-13
-14
-4
-18
-9
-16
-23
-27
-23
-16
-9
-10
-10
-13
-18
-18
-26
-30
-27
-36
-42
-35
-28
-35
-35
-40
-43
-49
-47
-54
-55
-50
-62
-54
-51
-54
-60
-54
-59
-51
-58
-69
-69
-61
-63
-71
-64
-55
-59
-64
-61
-61
-60
-59
-60
-67
-65
-63
-66
-63
-73
-60
-63
-63
-66
-66
-67
-72
-60
-55
-42
-60
-73
-78
-66
-64
-61
-68
-61
-66
-67
-78
-71
-69
-60
-56
-66
-71
-69
-64
-70
-65
-60
-56
-56
-59
-71
-64
-65
-70
-62
-65
-56
-55
-55
-61
-64
-74
-70
-57
-58
-61
-64
-60
-55
-58
-67
-63
-52
-60
-64
-62
-63
-57
-57
-67
-63
-63
-61
-56
-60
-57
-62
-64
-58
-65
-66
-66
-63
-58
-52
-56
-62
-60
-55
-57
-60
-67
-65
-60
-68
-57
-59
-60
-59
-65
-72
-71
-63
-62
-69
-58
-48
-56
-60
-62
-66
-66
-66
-66
-69
-66
-64
-64
-66
-58
-60
-62
-68
-68
-61
-58
-63
-65
-60
-64
-66
-68
-62
-52
-56
-66
-66
-66
-72
-71
-62
-64
-65
-67
-68
-64
-65
-63
-59
-66
-64
-63
-57
-62
-67
-63
-55
-62
-61
-68
-63
-66
-72
-65
-60
-57
-66
-73
-67
-56
-54
-66
-67
-67
-64
-60
-60
-66
-65
-62
-69
-67
-61
-60
-58
-47
-49
-50
-60
-57
-62
-55
-55
-49
-52
-54
-54
-48
-47
-42
-58
-64
-59
-52
-62
-63
-62
-59
-65
-61
-68
-60
-61
-67
-62
-64
-64
-60
-65
-77
-76
-69
-68
-59
-51
-61
-60
-61
-68
-71
-74
-70
-71
-69
-64
-62
-71
-72
-69
-63
-74
-71
-67
-55
-65
-68
-68
-77
-72
-82
-87
-89
-98
-93
-91
-88
-73
-62
-41
-39
3
41
75
103
130
140
139
114
91
77
68
37
-1
-10
-13
-18
-32
-32
-32
-49
-49
-59
-64
-70
-69
-63
-63
-60
-69
-67
-60
-67
-66
-61
-62
-59
-66
-66
-60
-74
-65
-63
-69
-66
-54
-61
-62
-62
-55
-57
-62
-59
-59
-59
-56
-59
-53
-59
-63
-62
-66
-61
-51
-52
-63
-54
-47
-48
-55
-55
-54
-50
-51
-51
-54
-54
-49
-53
-51
-49
-45
-42
-35
-39
-34
-40
-46
-42
-50
-44
-34
-25
-25
-29
-32
-26
-25
-24
-22
-20
-14
-18
-12
-13
-17
-17
-15
-9
-12
-18
-16
-10
-17
-21
-15
-14
-12
-13
-25
-26
-20
-19
-29
-29
-30
-34
-37
-26
-31
-40
-40
-38
-45
-46
-42
-40
-48
-57
-52
-53
-58
-53
-59
-54
-54
-58
-65
-71
-75
-70
-63
-60
-56
-53
-59
-66
-68
-66
-67
-69
-71
-69
-64
-63
-72
-75
-78
-71
-63
-66
-71
-65
-71
-70
-70
-66
-63
-72
-65
-64
-63
-65
-64
-72
-65
-62
-66
-69
-70
-65
-71
-78
-72
-70
-68
-61
-60
-66
-72
-67
-65
-68
-66
-65
-68
-73
-68
-62
-67
-70
-76
-61
-72
-65
-71
-72
-67
-60
-62
-61
-59
-58
-60
-63
-64
-68
-67
-70
-65
-64
-65
-61
-59
-53
-58
-59
-62
-67
-69
-62
-61
-63
-58
-62
-59
-63
-65
-70
-60
-64
-62
-59
-59
-54
-50
-57
-64
-61
-49
-52
-64
-65
-65
-61
-64
-58
-64
-64
-61
-60
-66
-66
-56
-55
-59
-74
-75
-69
-66
-66
-65
-63
-66
-70
-63
-66
-70
-69
-58
-56
-64
-66
-58
-60
-62
-63
-67
-65
-62
-76
-60
-50
-50
-50
-54
-67
-63
-56
-58
-63
-66
-68
-69
-68
-63
-63
-74
-61
-54
-64
-65
-58
-60
-65
-61
-50
-59
-72
-65
-57
-68
-54
-60
-64
-58
-61
-60
-66
-60
-63
-69
-62
-58
-66
-56
-62
-56
-65
-69
-65
-65
-55
-49
-61
-75
-70
-59
-62
-54
-61
-66
-66
-54
-52
-56
-57
-59
-57
-71
-73
-55
-43
-39
-48
-46
-50
-57
-54
-60
-54
-41
-40
-51
-51
-43
-50
-58
-56
-55
-61
-58
-65
-62
-62
-61
-62
-63
-63
-59
-60
-60
-60
-56
-59
-57
-68
-70
-63
-59
-69
-66
-68
-65
-64
-62
-72
-75
-66
-60
-67
-68
-77
-58
-52
-65
-62
-70
-69
-65
-62
-65
-68
-73
-72
-79
-92
-100
-102
-90
-80
-70
-50
-29
-5
31
51
83
111
130
133
129
112
101
87
67
40
7
-11
-18
-20
-27
-34
-42
-55
-61
-59
-76
-78
-59
-56
-57
-55
-53
-60
-61
-62
-57
-59
-57
-59
-60
-60
-57
-58
-60
-57
-62
-59
-61
-69
-62
-50
-61
-56
-50
-53
-56
-60
-58
-53
-50
-55
-55
-59
-54
-55
-59
-51
-35
-44
-53
-49
-50
-48
-48
-49
-52
-51
-52
-47
-43
-39
-41
-41
-46
-40
-42
-34
-35
-34
-31
-32
-28
-30
-33
-38
-34
-26
-21
-16
-8
-15
-28
-21
-13
-20
-21
-13
-5
10
2
-7
-12
-12
-14
-14
-18
-16
-23
-4
-7
-7
-11
-14
-17
-12
-16
-20
-30
-25
-23
-33
-36
-37
-30
-37
-36
-36
-49
-47
-43
-48
-49
-49
-51
-55
-51
-55
-56
-50
-55
-57
-63
-62
-68
-65
-64
-63
-71
-59
-65
-61
-56
-50
-50
-64
-65
-62
-63
-62
-67
-61
-61
-67
-74
-80
-74
-65
-57
-65
-64
-60
-54
-59
-64
-68
-67
-69
-73
-71
-60
-62
-65
-75
-73
-74
-67
-78
-69
-57
-50
-62
-66
-62
-62
-66
-63
-61
-64
-64
-61
-63
-53
-58
-61
-62
-63
-66
-61
-62
-58
-58
-60
-63
-55
-57
-58
-69
-65
-63
-55
-70
-69
-56
-59
-59
-55
-54
-63
-55
-57
-47
-48
-57
-66
-67
-63
-69
-60
-60
-55
-52
-52
-48
-56
-56
-50
-59
-69
-64
-62
-62
-64
-67
-67
-55
-55
-66
-54
-61
-50
-55
-65
-57
-61
-66
-57
-58
-61
-58
-58
-58
-60
-67
-64
-54
-52
-63
-60
-52
-64
-57
-51
-50
-60
-67
-64
-62
-56
-46
-53
-55
-60
-63
-67
-62
-61
-60
-59
-62
-68
-54
-58
-62
-53
-54
-56
-59
-59
-60
-56
-53
-56
-66
-64
-63
-54
-58
-51
-47
-62
-62
-65
-65
-53
-47
-62
-55
-61
-55
-58
-63
-60
-57
-55
-53
-61
-60
-52
-55
-60
-60
-63
-58
-55
-57
-58
-52
-59
-48
-50
-49
-44
-44
-42
-39
-36
-40
-50
-45
-55
-49
-46
-49
-47
-44
-48
-49
-42
-44
-40
-35
-44
-51
-50
-54
-54
-58
-60
-57
-55
-70
-64
-59
-56
-57
-61
-49
-47
-50
-49
-60
-69
-71
-57
-46
-59
-60
-61
-57
-60
-64
-57
-61
-62
-62
-75
-61
-57
-57
-59
-60
-57
-60
-58
-65
-76
-85
-82
-88
-91
-99
-96
-83
-67
-50
-28
0
22
55
93
118
122
129
130
111
86
85
76
53
26
-4
-18
-17
-34
-40
-50
-51
-52
-50
-49
-61
-66
-64
-62
-62
-59
-59
-55
-55
-49
-52
-69
-76
-64
-45
-49
-65
-55
-54
-64
-63
-58
-60
-64
-61
-60
-56
-56
-56
-68
-53
-53
-48
-58
-59
-50
-49
-49
-52
-47
-53
-56
-49
-50
-57
-59
-43
-36
-26
-44
-55
-46
-40
-37
-48
-43
-45
-44
-42
-42
-36
-40
-36
-40
-32
-29
-22
-28
-28
-27
-22
-24
-25
-15
-11
-9
-17
-11
-7
-3
-2
-7
-5
-6
-5
-8
-8
4
-1
-7
-6
-6
-7
-13
-23
-10
-8
-13
-23
-24
-20
-27
-27
-29
-31
-37
-36
-29
-35
-36
-42
-36
-46
-56
-56
-41
-47
-51
-42
-39
-53
-64
-59
-59
-62
-65
-65
-55
-55
-62
-70
-74
-55
-55
-61
-67
-64
-65
-69
-71
-68
-74
-61
-61
-68
-62
-53
-61
-76
-68
-64
-66
-73
-70
-74
-63
-57
-62
-62
-71
-85
-78
-70
-62
-65
-65
-60
-70
-69
-70
-71
-66
-68
-70
-71
-69
-64
-74
-71
-61
-60
-63
-72
-67
-67
-55
-62
-56
-58
-63
-63
-63
-70
-64
-60
-63
-67
-58
-59
-54
-57
-61
-73
-73
-66
-54
-53
-56
-56
-65
-75
-67
-63
-62
-63
-60
-66
-62
-63
-62
-58
-64
-66
-65
-66
-63
-60
-65
-65
-64
-67
-70
-62
-64
-66
-69
-63
-55
-59
-62
-71
-67
-67
-57
-47
-59
-65
-69
-66
-73
-55
-59
-75
-65
-66
-60
-53
-53
-69
-65
-67
-54
-54
-58
-66
-67
-58
-64
-65
-63
-62
-61
-62
-66
-53
-54
-49
-51
-61
-59
-66
-67
-63
-57
-59
-59
-57
-51
-60
-65
-69
-62
-60
-57
-54
-61
-64
-62
-62
-59
-65
-68
-69
-63
-56
-51
-55
-56
-60
-52
-48
-49
-40
-46
-36
-39
-46
-40
-53
-49
-48
-50
-52
-50
-40
-40
-41
-45
-49
-51
-50
-46
-45
-56
-49
-48
-54
-52
-50
-57
-63
-70
-68
-66
-68
-56
-51
-53
-55
-58
-62
-68
-57
-58
-64
-59
-61
-65
-62
-58
-58
-60
-59
-60
-64
-56
-47
-57
-67
-65
-62
-70
-68
-64
-71
-74
-76
-81
-94
-91
-84
-71
-67
-46
-28
-3
26
58
94
115
107
106
101
102
95
80
57
23
-13
-19
-40
-55
-57
-55
-54
-53
-57
-58
-62
-63
-63
-66
-60
-58
-60
-57
-55
-53
-61
-72
-58
-60
-58
-52
-48
-51
-56
-55
-55
-51
-50
-48
-49
-41
-46
-46
-45
-44
-44
-44
-43
-37
-44
-40
-50
-43
-38
-34
-34
-43
-31
-31
-34
-37
-26
-24
-29
-21
-22
-32
-36
-29
-29
-32
-32
-27
-9
-13
-17
-15
-15
-15
-13
-7
-8
-6
-8
-7
-9
-9
-5
3
6
13
18
20
16
8
6
9
7
13
11
9
11
9
10
9
11
5
9
9
8
7
6
1
14
7
0
-6
-6
-11
-11
-15
-6
-8
-14
-19
-20
-18
-25
-23
-34
-37
-27
-29
-31
-31
-33
-40
-41
-41
-38
-35
-33
-30
-44
-51
-44
-36
-37
-46
-48
-44
-48
-49
-42
-45
-44
-41
-46
-51
-48
-39
-42
-48
-50
-47
-45
-48
-52
-46
-43
-42
-50
-48
-51
-50
-45
-49
-48
-53
-50
-37
-36
-35
-36
-40
-38
-35
-39
-50
-44
-37
-43
-36
-48
-42
-38
-37
-43
-34
-25
-26
-34
-26
-41
-46
-47
-37
-40
-38
-37
-34
-31
-33
-47
-47
-38
-30
-41
-38
-24
-17
-32
-42
-42
-38
-41
-37
-35
-30
-28
-39
-43
-41
-37
-45
-43
-40
-32
-29
-33
-38
-33
-40
-41
-50
-54
-41
-41
-42
-35
-38
-45
-40
-36
-41
-46
-39
-40
-36
-34
-27
-36
-33
-43
-47
-41
-40
-42
-37
-36
-42
-41
-36
-44
-39
-35
-38
-37
-36
-45
-34
-35
-34
-38
-37
-35
-35
-41
-33
-33
-35
-33
-33
-45
-44
-32
-31
-33
-33
-33
-27
-23
-23
-22
-23
-29
-30
-27
-28
-23
-27
-23
-31
-29
-32
-22
-17
-26
-19
-24
-28
-36
-41
-38
-41
-33
-35
-36
-40
-33
-34
-34
-48
-45
-46
-44
-39
-39
-31
-33
-39
-32
-34
-38
-38
-41
-35
-36
-43
-30
-25
-24
-36
-40
-39
-37
-37
-31
-36
-35
-35
-38
-45
-46
-60
-61
-65
-65
-58
-56
-50
-36
-14
8
44
72
109
135
143
142
143
135
121
105
89
66
38
7
-7
-6
-8
-19
-31
-45
-43
-25
-24
-25
-26
-27
-32
-26
-30
-38
-40
-38
-39
-32
-29
-33
-26
-23
-25
-28
-30
-29
-35
-32
-40
-31
-21
-22
-29
-33
-31
-24
-31
-25
-24
-24
-24
-28
-25
-20
-24
-29
-25
-11
-6
-17
-21
-29
-26
-28
-16
-12
-14
-11
-5
-11
-13
-13
-11
-16
-13
-7
-14
-4
-1
0
-3
1
-2
-1
2
5
2
13
18
7
9
18
22
15
15
15
26
21
33
25
18
21
20
18
25
30
34
38
30
23
21
6
18
17
11
16
16
16
8
1
-1
-2
-4
1
-5
-1
-5
-11
-14
-19
-22
-21
-14
-8
-20
-22
-19
-27
-25
-25
-26
-27
-28
-24
-30
-30
-24
-30
-35
-32
-31
-30
-32
-28
-26
-33
-23
-21
-34
-29
-40
-34
-42
-34
-25
-33
-32
-22
-25
-32
-29
-35
-32
-34
-37
-29
-28
-25
-24
-30
-37
-34
-34
-37
-38
-35
-33
-28
-24
-26
-33
-35
-35
-28
-19
-25
-23
-22
-28
-31
-28
-30
-27
-23
-33
-24
-23
-32
-25
-7
-16
-21
-22
-37
-27
-29
-29
-30
-22
-19
-22
-32
-26
-19
-27
-18
-9
-11
-17
-25
-36
-35
-28
-19
-20
-28
-26
-31
-22
-23
-23
-20
-24
-26
-25
-17
-14
-24
-27
-32
-26
-29
-28
-25
-28
-21
-26
-24
-25
-35
-33
-26
-21
-25
-21
-26
-24
-32
-38
-17
-19
-25
-25
-23
-29
-25
-23
-19
-20
-15
-17
-17
-18
-19
-18
-18
-16
-15
-20
-19
-22
-18
-9
2
-6
-16
-9
-3
-2
-2
-18
-24
-15
-3
-22
-29
-32
-32
-28
-23
-26
-35
-30
-23
-14
-22
-27
-31
-27
-18
-20
-26
-30
-35
-27
-23
-25
-22
-27
-34
-28
-23
-28
-25
-32
-29
-26
-20
-14
-18
-16
-12
-22
-40
-36
-33
-32
-34
-48
-60
-57
-54
-50
-44
-33
-15
6
23
53
96
132
148
161
163
160
148
144
129
115
79
44
19
15
12
0
-9
3
2
-15
-26
-30
-27
-24
-18
-21
-28
-27
-30
-13
-21
-22
-26
-18
-14
-19
-24
-21
-27
-25
-15
-19
-20
-19
-22
-21
-24
-19
-10
-19
-21
-16
-16
-17
-17
-13
-9
-10
-13
-18
-12
-13
-19
-15
-16
-13
-8
-4
-8
-11
-11
-18
-8
-10
-13
-6
5
-4
-8
1
-2
-10
0
12
11
11
14
16
13
18
7
2
14
19
27
23
26
38
29
20
25
33
39
34
26
29
30
37
34
26
27
25
29
39
42
30
29
39
36
19
15
8
19
26
11
9
4
10
11
7
2
-2
-5
2
-2
0
-4
-6
-7
-14
-22
-17
-14
-16
-19
-17
-14
-16
-14
-20
-23
-20
-17
-20
-10
-10
-20
-23
-17
-17
-28
-34
-24
-22
-19
-22
-23
-20
-21
-22
-28
-27
-23
-17
-16
-22
-28
-28
-24
-24
-23
-27
-21
-25
-26
-24
-19
-23
-27
-29
-22
-25
-24
-30
-11
-19
-14
-14
-9
-18
-30
-23
-20
-22
-18
-10
-8
-31
-29
-23
-19
-25
-24
-21
-13
-15
-13
-15
-19
-21
-22
-21
-10
-17
-15
-15
-21
-24
-21
-23
-21
-20
-20
-16
-15
-14
-17
-31
-22
-18
-4
-10
-28
-36
-22
-16
-16
-15
-18
-25
-23
-13
-11
-19
-17
-14
-12
-17
-22
-23
-22
-15
-16
-27
-22
-25
-31
-25
-18
-11
-16
-23
-14
-18
-17
-20
-21
-13
-18
-27
-20
-19
-23
-17
-13
-7
-11
-15
-16
-15
-17
-11
-7
-6
-1
3
-6
-6
-4
-7
-18
-20
-17
3
-1
-14
-26
-20
-18
-22
-14
-19
-25
-20
-15
-8
-19
-25
-22
-26
-25
-28
-27
-20
-22
-34
-29
-11
-19
-15
-18
-22
-23
-19
-16
-17
-19
-20
-22
-25
-19
-18
-17
-24
-21
-17
-25
-34
-46
-52
-53
-49
-52
-45
-41
-32
-17
-3
27
51
86
123
146
154
173
174
168
149
128
106
83
56
27
19
24
18
4
-8
-2
-9
-10
-15
-22
-22
-16
-15
-24
-24
-21
-22
-23
-28
-24
-27
-20
-14
-11
-13
-16
-30
-26
-25
-21
-13
-11
-17
-13
-15
-24
-27
-19
-15
-11
-15
-16
-9
-12
-9
-10
-7
-3
-5
-17
-12
-9
-2
-4
-5
-14
-14
-10
-14
-6
-6
-6
0
-2
-2
-3
-6
-9
1
3
6
10
10
17
14
3
2
16
22
23
30
35
17
16
27
23
25
31
35
36
40
35
39
40
37
31
24
30
30
39
39
39
35
33
31
27
26
20
15
14
29
34
21
11
6
-3
-1
1
5
-2
0
2
-6
-7
-11
-13
-15
-14
-8
-10
-13
-11
-13
-16
-17
-20
-20
-26
-24
-9
-14
-25
-13
-13
-22
-29
-25
-23
-23
-23
-17
-12
-15
-14
-24
-26
-27
-20
-22
-26
-23
-26
-15
-21
-18
-27
-27
-19
-30
-23
-25
-21
-23
-28
-25
-29
-28
-34
-33
-26
-6
-10
-24
-32
-21
-23
-21
-21
-18
-12
-20
-22
-29
-31
-20
-17
-13
-24
-21
-11
-13
-19
-24
-19
-17
-20
-20
-21
-21
-21
-19
-15
-11
-19
-20
-22
-25
-20
-18
-22
-15
-23
-22
-17
-17
-18
-19
-29
-32
-17
-15
-25
-20
-20
-23
-20
-22
-20
-12
-5
-10
-20
-20
-20
-23
-29
-30
-33
-26
-10
-19
-19
-14
-18
-22
-17
-15
-23
-17
-15
-22
-22
-29
-13
-13
-19
-20
-23
-12
-15
-18
-18
-16
-8
-5
-20
-10
-2
-14
-14
-7
-14
-14
-5
-12
-12
-10
-9
-9
-6
-12
-12
-18
-20
-18
-27
-19
-26
-26
-17
-10
-19
-23
-26
-29
-27
-16
-26
-20
-16
-17
-18
-21
-12
-22
-30
-33
-33
-24
-14
-4
-6
-29
-31
-24
-15
-18
-21
-30
-33
-25
-21
-24
-30
-26
-27
-26
-32
-38
-54
-61
-51
-48
-47
-43
-23
-3
20
56
103
125
153
166
166
160
155
134
113
102
92
54
20
16
17
-5
-6
-13
-3
-2
-11
-27
-26
-24
-24
-26
-24
-20
-24
-23
-19
-24
-27
-27
-30
-23
-21
-16
-18
-12
-13
-22
-14
-21
-26
-27
-20
-22
-23
-13
-12
-11
-15
-22
-15
-7
-12
-21
-14
-11
-11
-11
-8
-20
-23
-14
-4
-9
-14
-6
-8
-2
-3
-10
-4
-4
-3
-9
3
9
5
-7
-2
0
4
13
3
3
5
10
9
3
8
20
16
23
26
23
22
34
30
30
28
35
33
33
29
32
33
27
34
38
29
31
27
31
29
27
25
27
24
10
5
10
11
13
13
1
-1
0
3
-10
-19
-7
2
-9
-12
-12
-10
-12
-11
-13
-23
-13
-15
-21
-23
-27
-23
-30
-27
-14
-12
-24
-34
-27
-25
-21
-18
-20
-28
-24
-20
-29
-31
-24
-34
-30
-37
-47
-27
-23
-21
-28
-26
-27
-29
-26
-34
-33
-28
-28
-24
-33
-26
-23
-34
-33
-23
-19
-28
-32
-35
-31
-31
-26
-29
-29
-30
-27
-28
-23
-30
-27
-29
-29
-23
-26
-25
-19
-23
-21
-33
-28
-33
-24
-28
-18
-17
-24
-24
-23
-25
-27
-36
-40
-25
-23
-25
-24
-25
-21
-22
-28
-26
-21
-22
-32
-27
-25
-27
-30
-27
-21
-27
-24
-22
-25
-25
-17
-27
-32
-30
-36
-27
-29
-21
-18
-20
-30
-30
-28
-28
-32
-39
-36
-28
-24
-16
-22
-26
-31
-31
-30
-30
-23
-22
-28
-41
-25
-24
-27
-17
-27
-28
-26
-30
-26
-24
-20
-16
-22
-27
-27
-24
-14
-16
-14
-11
-21
-19
-8
-19
-21
-31
-24
-16
-29
-38
-34
-23
-32
-27
-20
-22
-34
-32
-35
-33
-35
-29
-33
-30
-33
-25
-31
-36
-41
-33
-28
-32
-36
-28
-36
-34
-35
-35
-30
-32
-32
-28
-29
-35
-39
-39
-33
-40
-33
-37
-48
-57
-60
-65
-62
-64
-66
-57
-35
-11
21
40
74
107
140
153
162
164
165
153
130
109
85
46
32
11
4
-3
-7
-22
-23
-18
-31
-33
-41
-37
-34
-20
-27
-30
-34
-31
-39
-39
-37
-31
-33
-35
-29
-30
-26
-30
-35
-35
-39
-43
-44
-34
-27
-35
-34
-32
-21
-32
-36
-31
-25
-28
-25
-30
-35
-33
-24
-24
-23
-20
-19
-28
-29
-28
-22
-26
-23
-24
-25
-23
-21
-20
-12
-9
-9
-14
-20
-19
-14
-15
-13
-9
-3
-11
-13
-2
-16
-3
0
-2
8
14
24
19
12
5
15
3
10
15
26
17
7
15
9
12
14
10
11
10
9
13
20
6
3
1
2
6
3
-2
-5
-6
-5
-4
-6
-14
-31
-42
-26
-15
-11
-20
-21
-21
-23
-25
-36
-33
-39
-40
-36
-38
-36
-33
-36
-44
-40
-42
-50
-43
-45
-38
-41
-40
-41
-47
-52
-42
-46
-51
-43
-42
-44
-48
-49
-43
-39
-34
-38
-50
-56
-45
-46
-47
-46
-45
-51
-55
-56
-45
-34
-37
-47
-40
-50
-57
-57
-45
-38
-46
-40
-39
-38
-40
-36
-45
-44
-41
-43
-38
-25
-38
-47
-45
-46
-43
-40
-31
-34
-41
-37
-42
-41
-42
-43
-52
-50
-39
-31
-38
-34
-24
-35
-43
-44
-35
-40
-32
-33
-33
-41
-44
-42
-34
-37
-38
-37
-39
-43
-49
-45
-37
-50
-44
-43
-34
-34
-38
-41
-43
-39
-41
-39
-39
-45
-41
-41
-33
-34
-44
-51
-40
-36
-32
-37
-34
-37
-41
-37
-31
-28
-39
-37
-39
-39
-45
-40
-36
-29
-33
-22
-28
-30
-20
-27
-32
-40
-42
-47
-43
-38
-45
-45
-42
-58
-59
-48
-32
-38
-44
-38
-41
-52
-46
-48
-46
-47
-45
-53
-41
-37
-45
-50
-42
-42
-46
-46
-40
-38
-43
-40
-48
-50
-45
-49
-51
-45
-49
-49
-48
-46
-54
-53
-64
-72
-80
-80
-70
-68
-62
-39
-22
1
34
66
98
125
136
134
132
127
119
108
95
58
18
-10
-20
-28
-32
-35
-39
-40
-39
-39
-46
-36
-33
-47
-46
-40
-47
-45
-55
-50
-51
-44
-38
-36
-33
-41
-48
-53
-42
-36
-35
-49
-36
-32
-39
-37
-37
-34
-38
-43
-36
-35
-35
-38
-38
-35
-38
-33
-31
-32
-41
-28
-22
-20
-30
-40
-33
-25
-24
-27
-25
-28
-26
-22
-21
-13
-25
-7
-7
-19
-18
-20
-9
-14
-14
-7
-6
-9
-4
-10
1
8
1
4
5
0
7
8
10
11
13
11
5
7
8
15
11
10
8
15
23
13
4
9
4
4
-2
6
13
14
0
-16
-20
-10
-12
-11
-9
-4
-20
-24
-22
-28
-27
-26
-31
-29
-29
-37
-33
-34
-37
-35
-38
-37
-35
-44
-36
-37
-47
-52
-43
-40
-37
-39
-41
-50
-40
-39
-36
-45
-44
-49
-48
-53
-54
-48
-49
-45
-46
-52
-41
-47
-46
-43
-39
-43
-43
-39
-47
-50
-54
-47
-50
-46
-44
-46
-46
-45
-38
-43
-42
-46
-46
-33
-34
-38
-36
-32
-42
-40
-40
-39
-44
-40
-33
-41
-37
-34
-41
-38
-39
-37
-34
-32
-36
-45
-37
-39
-42
-38
-41
-44
-41
-36
-37
-34
-34
-39
-41
-36
-39
-39
-37
-39
-44
-42
-39
-44
-39
-37
-38
-35
-42
-44
-43
-49
-47
-43
-41
-43
-45
-46
-37
-34
-35
-41
-43
-40
-40
-40
-44
-41
-35
-32
-33
-37
-39
-38
-44
-43
-42
-39
-32
-31
-21
-24
-32
-37
-30
-29
-32
-35
-32
-35
-42
-42
-44
-43
-46
-44
-43
-51
-43
-34
-34
-39
-43
-42
-49
-58
-58
-45
-51
-33
-43
-43
-40
-46
-49
-47
-48
-47
-45
-43
-46
-44
-47
-48
-49
-53
-52
-57
-52
-39
-40
-35
-44
-46
-56
-55
-62
-62
-69
-77
-81
-69
-59
-47
-11
8
40
77
106
117
134
149
139
120
112
105
92
67
42
7
-11
-20
-21
-34
-38
-37
-41
-36
-36
-45
-48
-51
-46
-47
-46
-43
-48
-50
-40
-39
-43
-38
-46
-45
-45
-49
-57
-44
-33
-42
-27
-24
-32
-34
-33
-40
-50
-40
-35
-35
-39
-43
-46
-40
-34
-36
-32
-27
-20
-28
-29
-39
-35
-37
-37
-30
-25
-20
-25
-24
-32
-35
-30
-31
-18
-21
-18
-10
-13
-29
-22
-10
-13
-14
-8
7
-2
-2
2
1
-1
-4
0
0
-3
-5
-4
7
18
6
13
21
14
5
9
5
11
18
13
4
15
13
5
10
12
-5
-3
4
-1
-5
-7
-15
-12
-14
-12
-14
-17
-14
-19
-20
-19
-33
-37
-34
-25
-28
-29
-36
-38
-35
-35
-38
-43
-45
-39
-37
-42
-57
-48
-38
-39
-39
-40
-43
-38
-48
-44
-37
-46
-41
-47
-51
-51
-48
-40
-42
-42
-38
-33
-47
-56
-55
-42
-45
-42
-45
-48
-45
-40
-56
-56
-48
-38
-29
-31
-39
-49
-51
-47
-44
-52
-52
-37
-43
-44
-40
-42
-40
-41
-49
-39
-36
-44
-47
-38
-37
-40
-36
-42
-39
-41
-45
-43
-33
-32
-44
-43
-28
-37
-38
-38
-46
-33
-40
-48
-45
-39
-39
-32
-38
-37
-40
-37
-41
-35
-33
-39
-37
-41
-39
-40
-40
-43
-38
-39
-33
-42
-39
-42
-43
-37
-37
-41
-33
-39
-49
-43
-34
-34
-40
-40
-47
-42
-42
-35
-41
-37
-32
-40
-36
-35
-41
-31
-34
-32
-30
-26
-27
-27
-29
-35
-33
-27
-29
-29
-24
-22
-26
-25
-21
-32
-44
-45
-46
-53
-46
-31
-35
-44
-46
-48
-43
-44
-45
-48
-37
-37
-45
-50
-40
-35
-37
-38
-44
-43
-38
-40
-39
-37
-45
-49
-44
-42
-42
-47
-43
-32
-35
-38
-40
-49
-50
-45
-50
-47
-47
-47
-57
-69
-74
-77
-81
-58
-40
-24
-6
20
45
81
110
135
154
159
151
139
124
109
88
67
39
1
1
-5
-16
-24
-23
-23
-31
-38
-33
-42
-45
-46
-35
-36
-40
-39
-42
-42
-43
-42
-34
-33
-38
-43
-30
-34
-31
-27
-35
-36
-43
-31
-31
-37
-35
-29
-24
-23
-26
-44
-46
-42
-38
-29
-24
-30
-38
-28
-26
-26
-28
-25
-36
-30
-22
-20
-17
-20
-19
-20
-25
-27
-23
-18
-17
-13
-15
-13
-11
-12
-18
-11
-18
-16
-6
-2
-7
3
4
5
-4
3
4
11
10
13
14
16
12
12
22
12
8
17
27
19
13
8
15
21
18
13
12
8
7
14
17
8
0
-9
-10
-8
-6
-5
-3
-13
-17
-12
-15
-21
-32
-31
-27
-28
-30
-13
-14
-34
-38
-34
-31
-35
-40
-37
-34
-33
-38
-41
-44
-34
-32
-30
-40
-40
-36
-37
-37
-40
-36
-35
-35
-40
-49
-34
-33
-39
-45
-42
-37
-44
-47
-49
-41
-29
-33
-36
-43
-47
-43
-41
-39
-40
-38
-36
-36
-39
-36
-28
-35
-39
-40
-40
-44
-40
-30
-40
-39
-37
-37
-46
-42
-41
-41
-30
-27
-36
-33
-34
-35
-47
-35
-27
-33
-30
-33
-34
-41
-30
-29
-42
-38
-32
-24
-27
-28
-28
-32
-36
-37
-43
-42
-31
-32
-37
-32
-31
-30
-35
-35
-38
-35
-39
-29
-29
-30
-30
-39
-44
-46
-31
-33
-39
-33
-30
-28
-25
-31
-41
-34
-26
-26
-36
-35
-34
-34
-32
-35
-26
-32
-37
-32
-36
-37
-44
-33
-26
-33
-31
-39
-32
-29
-29
-33
-27
-31
-35
-38
-22
-19
-21
-28
-30
-25
-26
-35
-28
-21
-30
-20
-19
-22
-22
-18
-19
-18
-23
-23
-27
-19
-29
-31
-38
-32
-31
-29
-21
-26
-33
-41
-35
-34
-38
-32
-33
-32
-19
-27
-41
-40
-38
-31
-32
-25
-28
-33
-31
-31
-42
-35
-35
-35
-38
-27
-24
-28
-35
-39
-39
-36
-37
-39
-45
-42
-33
-38
-51
-63
-63
-50
-66
-64
-60
-35
-4
0
24
62
98
124
143
162
166
160
160
139
121
92
60
31
17
17
17
4
2
-15
-20
-22
-30
-33
-38
-29
-28
-39
-29
-21
-37
-39
-34
-23
-24
-33
-32
-21
-20
-27
-30
-31
-27
-22
-31
-33
-34
-19
-25
-23
-27
-34
-33
-30
-29
-25
-20
-20
-17
-21
-23
-26
-27
-29
-23
-28
-24
-16
-14
-21
-29
-16
-20
-24
-15
-22
-14
-10
-13
-13
-10
-10
-9
-13
-12
-10
0
-4
-5
-3
2
6
3
5
7
3
14
16
12
16
21
16
10
22
25
18
22
23
23
22
22
21
16
25
25
24
22
23
17
13
12
10
17
9
-1
1
2
6
-3
-8
-4
-10
-12
-3
-11
-16
-21
-16
-15
-26
-32
-16
-15
-21
-22
-21
-21
-22
-25
-25
-32
-26
-27
-36
-31
-39
-37
-31
-25
-27
-37
-36
-35
-33
-29
-28
-31
-29
-35
-38
-30
-34
-38
-35
-37
-24
-28
-23
-30
-35
-37
-28
-25
-35
-39
-35
-29
-29
-29
-34
-38
-39
-38
-29
-32
-33
-35
-35
-34
-29
-36
-45
-35
-36
-39
-32
-25
-38
-39
-43
-27
-27
-25
-31
-33
-32
-31
-29
-31
-33
-26
-35
-33
-30
-28
-29
-28
-23
-30
-31
-26
-28
-32
-37
-28
-30
-27
-26
-33
-41
-27
-36
-27
-30
-29
-26
-31
-33
-25
-27
-28
-29
-30
-30
-29
-24
-23
-34
-29
-36
-34
-26
-34
-36
-35
-30
-28
-28
-31
-33
-33
-37
-41
-49
-41
-28
-28
-35
-31
-29
-34
-29
-28
-35
-36
-32
-30
-32
-37
-38
-31
-29
-34
-30
-32
-31
-32
-30
-28
-39
-36
-29
-27
-29
-32
-28
-28
-29
-33
-30
-31
-31
-36
-37
-32
-25
-27
-26
-29
-33
-31
-31
-22
-23
-20
-18
-26
-32
-22
-25
-27
-28
-14
-27
-30
-18
-18
-18
-15
-17
-23
-29
-29
-34
-26
-28
-27
-25
-32
-32
-34
-31
-39
-30
-30
-28
-32
-40
-31
-37
-32
-32
-35
-32
-32
-35
-38
-33
-35
-46
-47
-33
-26
-23
-27
-28
-38
-34
-39
-36
-24
-31
-33
-31
-38
-42
-50
-61
-71
-59
-59
-48
-47
-31
-14
28
57
82
108
140
169
172
167
153
132
124
100
77
37
17
14
11
8
-12
-18
-20
-14
-11
-22
-38
-29
-23
-26
-40
-34
-29
-33
-31
-28
-23
-27
-33
-30
-23
-32
-27
-23
-22
-35
-28
-30
-34
-24
-32
-36
-24
-25
-21
-25
-29
-23
-25
-23
-17
-19
-23
-25
-25
-13
-27
-28
-17
-22
-20
-10
-16
-22
-13
-17
-16
-22
-26
-13
-5
-5
-5
-5
-11
-15
-10
-2
-5
-9
-1
6
9
8
3
6
5
2
14
15
18
18
25
21
13
15
20
27
28
22
29
23
23
28
34
28
24
26
30
23
19
17
16
12
14
18
13
1
1
11
5
-17
-20
13
11
-7
-9
-18
-19
-10
-7
-7
-1
-10
-16
-31
-28
-32
-27
-27
-22
-26
-20
-22
-25
-34
-28
-29
-34
-22
-22
-27
-42
-38
-33
-35
-28
-26
-15
-25
-31
-28
-27
-29
-32
-40
-34
-20
-28
-31
-19
-27
-29
-23
-35
-30
-34
-30
-34
-30
-29
-30
-24
-22
-29
-30
-33
-38
-38
-42
-31
-27
-31
-33
-32
-35
-38
-40
-39
-26
-18
-24
-27
-25
-28
-34
-33
-31
-30
-20
-24
-29
-34
-40
-26
-27
-21
-15
-27
-29
-21
-22
-20
-20
-28
-28
-23
-25
-23
-20
-18
-25
-27
-28
-28
-32
-25
-29
-33
-28
-29
-25
-21
-32
-32
-31
-27
-28
-34
-32
-27
-35
-18
-25
-25
-33
-35
-24
-25
-26
-28
-30
-27
-15
-38
-35
-31
-24
-27
-24
-20
-24
-29
-35
-34
-32
-33
-32
-32
-32
-35
-28
-23
-30
-31
-32
-24
-25
-31
-32
-31
-28
-25
-29
-37
-34
-27
-31
-32
-27
-33
-33
-28
-21
-24
-17
-25
-25
-28
-31
-28
-29
-33
-23
-23
-28
-34
-31
-28
-18
-25
-26
-18
-17
-20
-18
-20
-23
-18
-21
-17
-18
-16
-13
-22
-25
-15
-15
-11
-20
-23
-20
-25
-30
-29
-29
-27
-38
-35
-23
-22
-28
-27
-22
-17
-30
-41
-37
-33
-20
-29
-43
-31
-34
-35
-45
-27
-29
-31
-29
-32
-29
-37
-38
-31
-30
-35
-35
-35
-32
-23
-28
-31
-26
-37
-33
-44
-53
-56
-64
-70
-72
-61
-57
-51
-22
2
23
69
107
129
153
169
160
164
152
127
132
115
76
48
28
19
16
7
-1
-18
-21
-27
-25
-34
-30
-41
-39
-27
-22
-33
-35
-35
-32
-36
-34
-26
-29
-25
-45
-41
-29
-26
-28
-24
-21
-29
-25
-31
-40
-36
-38
-35
-32
-27
-33
-36
-29
-30
-27
-25
-32
-30
-26
-27
-31
-30
-37
-41
-31
-19
-23
-13
-18
-18
-25
-15
-12
-13
-19
-20
-15
-14
-11
-7
-3
-9
-18
-15
-1
-8
-7
-4
3
4
1
17
17
6
8
3
21
23
8
8
16
18
14
17
25
17
23
25
18
16
18
18
13
14
17
16
6
15
13
6
5
4
-2
6
1
-3
-12
-19
-25
-21
-29
-26
-14
-20
-31
-24
-27
-28
-26
-27
-25
-35
-35
-40
-40
-45
-27
-26
-33
-38
-41
-48
-54
-39
-33
-32
-38
-38
-42
-42
-39
-38
-45
-39
-43
-48
-49
-38
-35
-42
-46
-47
-38
-42
-42
-50
-48
-44
-48
-44
-43
-48
-50
-43
-39
-34
-35
-43
-41
-46
-46
-44
-38
-45
-45
-45
-42
-37
-45
-48
-47
-38
-45
-46
-35
-40
-53
-46
-28
-25
-37
-30
-33
-42
-42
-36
-33
-38
-31
-32
-36
-44
-33
-29
-29
-38
-38
-32
-44
-55
-41
-36
-40
-33
-36
-30
-27
-41
-45
-48
-42
-40
-36
-28
-29
-34
-42
-45
-48
-37
-34
-25
-30
-38
-48
-45
-35
-36
-40
-39
-40
-47
-46
-41
-43
-38
-38
-44
-42
-53
-50
-50
-37
-38
-33
-42
-41
-32
-28
-48
-49
-44
-38
-41
-38
-43
-39
-45
-39
-32
-35
-38
-34
-30
-39
-42
-41
-38
-39
-42
-40
-45
