28
35
57
76
80
80
54
24
19
11
34
38
70
77
86
72
55
24
17
8
21
41
82
77
86
74
50
23
23
20
37
54
72
87
97
89
55
28
22
24
26
51
86
107
100
60
41
33
24
33
26
56
74
83
93
65
39
9
12
25
27
63
82
80
97
67
42
24
12
8
22
56
79
104
91
63
58
29
22
19
33
89
107
125
151
156
134
134
139
149
176
187
185
159
137
98
41
4
-34
-52
-22
3
24
34
26
15
-12
-18
-23
-7
21
44
78
84
85
61
48
35
22
31
46
78
94
102
92
79
36
30
20
44
68
92
101
112
96
73
53
34
19
56
68
92
105
112
107
85
40
36
27
51
82
102
104
114
108
90
54
49
44
54
78
115
114
114
106
86
59
62
52
72
102
130
127
138
122
91
76
77
56
86
99
124
138
144
132
95
79
74
64
86
110
133
123
138
122
87
75
73
62
80
109
124
129
130
103
73
55
48
46
60
91
100
90
100
105
62
38
31
27
54
79
92
92
92
78
41
30
36
35
39
83
100
98
98
84
39
30
33
37
38
67
101
112
96
78
58
52
46
29
47
86
94
112
104
86
46
36
27
29
57
77
99
114
103
70
39
27
34
39
65
88
112
102
104
78
46
29
26
38
58
87
86
94
84
71
35
36
21
50
52
77
96
108
95
79
30
39
36
42
64
95
91
98
86
69
37
39
27
48
79
94
98
93
93
72
51
45
45
56
73
94
94
104
87
60
21
28
28
49
71
95
90
95
88
57
36
28
21
27
65
103
98
91
86
42
29
35
38
54
76
83
102
107
83
53
40
33
35
65
102
122
141
166
159
157
167
177
197
177
185
186
168
140
78
33
-16
-42
-32
-27
8
27
39
43
29
15
0
4
16
33
67
85
99
89
79
52
40
25
25
22
112
110
101
92
77
55
53
47
54
67
99
98
111
84
73
62
57
56
42
56
111
108
96
105
91
61
49
39
58
83
106
114
123
105
78
56
62
44
50
87
134
117
118
114
79
71
62
57
64
91
105
133
145
131
112
86
66
65
78
103
141
139
142
122
105
82
75
71
78
110
125
132
141
115
96
74
64
70
73
105
128
134
126
109
81
45
46
43
82
75
92
118
99
88
31
41
24
28
47
76
87
105
97
77
46
42
25
17
37
63
86
98
95
81
37
22
25
34
62
81
86
88
88
67
44
30
28
32
47
76
85
98
87
67
45
44
25
26
43
72
103
108
91
62
41
34
27
32
56
81
85
90
96
67
42
25
31
28
43
77
81
97
84
78
42
17
8
32
57
92
93
107
85
60
35
24
10
36
57
86
89
101
76
69
39
20
21
32
68
94
96
85
72
64
26
24
30
54
76
92
107
107
86
56
28
26
33
36
75
93
86
85
67
52
24
12
10
23
58
73
92
88
72
55
37
18
15
30
70
92
84
94
63
46
44
18
17
53
80
89
101
126
117
101
102
114
144
174
230
258
252
205
157
108
66
20
-9
-15
-4
15
28
17
2
-29
-33
-35
-23
14
56
66
71
71
74
48
33
26
31
36
80
96
92
77
73
46
21
29
50
66
88
100
105
101
71
38
37
29
44
60
80
81
121
99
84
58
48
40
42
65
91
103
115
118
83
40
37
52
50
69
101
104
120
113
92
58
55
54
69
86
115
125
130
112
94
75
57
61
70
96
130
135
141
131
92
67
72
69
81
101
116
135
134
116
87
66
62
49
70
102
110
121
141
103
62
49
38
45
53
98
106
112
96
79
32
41
24
24
52
69
91
90
98
78
36
22
23
15
39
64
85
86
87
76
41
32
28
21
44
64
78
91
76
73
33
9
22
32
44
73
86
97
73
62
34
32
18
24
35
90
97
104
86
55
42
30
22
28
48
79
87
104
78
69
35
20
17
27
46
82
78
96
71
61
37
25
15
28
53
76
85
91
78
53
35
10
7
45
43
77
86
92
85
57
15
17
16
34
53
71
95
81
71
59
27
28
15
17
53
81
95
91
72
53
26
21
23
37
74
79
87
110
85
53
25
25
22
42
66
82
85
79
69
45
31
22
15
28
66
103
78
78
82
44
18
16
22
33
80
84
100
93
78
47
30
19
24
41
75
95
89
106
102
71
93
106
121
176
233
248
254
220
183
117
97
44
27
28
26
17
16
9
-6
-32
-24
-34
-13
-9
37
59
76
74
55
45
27
9
35
48
71
104
103
80
69
36
24
22
41
54
102
105
97
89
72
34
33
32
37
55
96
92
96
100
76
57
49
25
35
72
106
109
110
94
71
51
34
42
46
83
116
113
116
98
84
50
47
56
73
75
109
129
130
119
92
56
65
57
77
99
106
128
137
117
86
92
72
69
69
103
121
122
124
103
86
60
64
49
75
101
108
128
126
89
76
40
52
45
52
75
117
118
100
65
42
19
26
22
44
78
91
93
91
61
35
16
-7
0
26
78
88
79
93
61
37
29
10
19
45
74
85
89
75
66
24
11
17
32
45
83
86
90
78
58
35
20
7
32
44
84
75
74
82
60
26
30
22
30
45
76
99
101
80
56
20
23
15
29
45
81
82
93
77
53
35
9
15
27
51
81
95
94
70
53
22
17
17
27
54
99
85
83
64
50
25
27
28
39
57
82
95
94
81
58
31
18
31
42
45
74
83
94
87
44
26
18
18
52
77
96
112
101
85
60
36
23
21
33
61
86
86
81
76
44
19
18
19
30
75
91
93
80
72
45
30
20
25
44
88
91
86
84
81
47
28
4
30
53
91
91
113
112
124
99
120
119
160
197
227
228
195
173
135
91
41
2
-17
-15
9
30
26
18
10
-18
-26
-31
-12
27
70
72
80
65
54
33
39
26
34
58
85
90
98
98
65
37
34
38
39
56
105
95
97
76
76
53
35
29
50
68
108
112
111
86
69
43
35
32
51
83
101
113
109
98
64
57
43
38
53
79
117
116
113
86
88
63
45
42
70
100
118
131
124
107
78
60
45
76
94
105
119
119
138
124
76
78
56
63
65
102
125
133
137
102
79
66
57
58
76
104
115
116
112
94
55
44
39
41
54
82
90
93
87
79
47
25
16
30
44
76
87
84
80
79
30
31
14
20
43
74
82
80
83
74
45
22
19
29
49
77
79
92
79
49
23
27
23
30
53
80
92
90
75
60
34
23
13
34
43
73
82
95
85
62
24
31
15
33
44
76
85
87
70
50
38
25
24
38
54
80
76
96
76
49
33
22
18
27
55
92
96
102
78
54
46
24
4
22
55
87
83
93
76
51
30
21
27
34
61
82
87
89
76
52
33
16
36
47
71
97
96
90
79
49
32
32
31
37
73
95
94
91
63
39
25
7
12
39
74
77
95
77
68
32
29
10
28
36
76
90
104
78
68
30
23
15
42
50
83
86
94
93
105
98
116
108
135
171
233
242
213
181
142
82
44
12
-13
-17
17
11
18
4
15
-28
-22
-14
-7
20
55
71
73
75
62
39
23
12
12
69
85
92
81
91
65
26
39
21
32
75
93
93
94
89
79
38
26
36
47
70
108
98
106
96
58
43
44
40
57
74
99
103
111
93
81
33
37
38
64
90
105
103
119
98
74
52
50
51
71
94
121
129
127
104
84
63
58
54
74
112
125
146
130
106
82
81
61
71
80
112
118
120
131
109
67
60
73
59
75
103
119
134
110
94
61
41
27
47
55
83
86
95
86
75
39
19
12
20
41
75
87
97
75
46
23
31
31
30
32
65
78
99
79
55
32
11
9
22
38
71
79
85
75
50
28
32
16
30
44
74
93
93
74
48
36
26
8
27
50
78
78
90
90
55
42
19
21
13
33
65
76
110
75
49
17
25
16
34
49
69
74
85
68
49
21
14
20
24
45
77
87
86
74
45
23
17
7
16
44
72
84
91
81
55
16
17
27
32
43
59
77
81
71
40
31
8
15
31
57
73
82
68
67
28
14
13
14
26
52
86
111
105
77
42
19
22
16
36
63
90
87
77
51
24
20
8
14
33
67
67
78
71
62
21
7
6
10
54
51
62
92
80
49
22
9
3
12
36
68
75
76
65
59
25
43
51
76
114
167
197
230
222
203
163
134
94
82
76
81
55
21
-2
-21
-49
-72
-55
-41
-8
28
45
54
55
19
12
1
4
29
53
72
75
73
66
50
26
22
14
19
57
68
79
87
77
54
31
20
19
22
53
77
74
89
77
44
15
15
25
40
61
83
91
90
70
27
30
34
36
60
77
92
92
99
79
50
38
39
32
45
80
96
113
97
97
64
39
49
52
61
98
111
109
109
102
73
54
44
57
78
105
116
113
111
102
73
49
51
58
65
93
110
117
111
76
57
46
27
30
47
72
93
98
83
68
39
28
19
8
33
55
69
77
66
45
14
1
-16
4
33
62
60
76
66
43
-7
13
6
4
25
63
62
61
63
35
19
11
-9
6
39
65
68
66
62
35
5
11
-2
11
30
57
72
72
41
14
9
-2
5
11
41
66
69
62
47
36
13
8
-18
1
48
91
69
69
46
21
6
-4
-17
11
30
64
72
77
50
23
4
0
3
10
44
58
64
54
46
23
1
-4
-3
17
40
56
57
65
54
11
-3
-5
-4
15
56
66
67
69
46
7
-11
-18
-17
10
53
56
64
70
32
2
-1
-6
-6
17
60
56
59
43
33
7
-10
-11
-9
18
52
63
62
61
34
1
-2
7
9
31
48
45
66
60
52
7
-4
-16
-12
25
52
52
67
60
30
4
-11
-15
-3
16
53
57
56
45
16
-8
-24
-1
14
22
50
67
62
57
32
-1
-21
-14
-3
30
67
70
104
95
108
85
105
124
147
185
195
182
157
129
66
24
-4
-44
-54
-38
-25
-11
-12
-19
-31
-51
-52
-48
-31
12
37
49
51
30
15
-4
-6
-18
15
40
52
77
68
46
6
-3
0
20
26
42
75
66
53
45
17
17
4
0
15
42
71
73
73
51
19
7
14
15
25
58
67
71
73
64
25
15
13
18
39
60
56
110
80
53
29
25
20
23
41
71
88
100
88
76
33
31
28
36
67
86
100
101
87
71
54
37
39
48
56
74
87
95
88
65
26
21
9
33
39
88
94
90
69
51
26
4
-15
15
32
59
72
52
52
39
14
-4
0
-5
28
53
52
60
51
13
7
-10
-17
-6
17
50
51
48
43
10
-14
-10
-8
12
26
49
53
47
30
10
-9
6
-28
1
34
38
44
46
34
17
-13
-15
-28
8
33
44
59
68
54
11
-8
-20
1
5
42
50
53
46
26
6
10
-15
-4
2
28
44
54
54
27
2
41
58
62
52
27
1
-12
-17
3
15
46
41
56
37
26
-6
1
-6
-2
0
31
38
68
58
33
1
-13
-18
0
11
37
53
59
44
26
-6
0
-13
-15
11
55
56
54
42
20
-5
-14
-19
7
37
54
69
76
45
22
-11
0
-8
-9
14
45
54
59
41
7
-12
-18
-20
-1
22
49
47
46
51
13
-15
-19
-23
-3
31
54
37
53
45
6
4
-1
1
11
20
63
85
102
101
96
106
110
134
151
177
164
139
135
115
41
-26
-66
-69
-70
-44
-20
-10
-15
-30
-46
-47
-64
-41
-11
11
39
33
47
45
12
-6
-1
3
8
45
56
62
64
48
14
-3
-4
4
10
42
53
72
69
50
15
-1
5
-3
26
56
68
73
59
29
9
-12
-7
24
32
53
70
85
59
44
44
8
3
14
36
63
66
78
84
62
23
31
14
30
47
83
90
93
85
74
39
36
32
40
72
89
100
100
91
67
33
27
8
40
87
92
82
103
97
61
22
23
22
40
50
86
86
71
49
26
11
7
11
13
41
54
56
61
35
17
-3
-12
-16
-6
18
47
49
53
31
10
-6
-16
-8
-11
12
34
43
47
45
15
-20
-26
-23
5
40
43
46
57
36
3
-12
-20
-10
5
27
41
45
47
36
4
-21
-25
-9
-2
39
38
47
33
29
0
-12
-20
-13
17
38
46
53
38
28
2
-15
-17
-4
-1
23
41
39
39
29
2
-10
-30
-9
9
38
50
50
41
15
-18
-24
-24
-24
6
39
48
45
37
11
-5
-27
-11
-20
2
37
45
50
35
15
-13
-18
-14
-13
4
36
43
36
28
8
-19
-32
-20
-6
31
45
37
50
39
12
-11
-26
-30
-27
12
59
44
40
52
17
-12
-21
-19
0
12
28
45
52
32
9
-31
-31
-21
-15
10
33
52
48
31
2
-31
-38
-27
-5
22
42
43
46
34
-4
-22
-24
-27
-12
22
29
47
51
38
18
27
20
39
82
125
164
195
219
205
132
82
42
34
15
27
-7
-20
-39
-51
-81
-90
-102
-86
-67
-13
-4
10
6
-3
-19
-19
-27
-27
-1
25
23
39
55
20
-6
-31
-38
-17
17
44
51
36
47
30
-2
-23
-29
-11
2
41
55
64
44
29
-2
-10
-14
-4
12
41
49
60
40
36
4
-2
-7
-2
11
41
53
68
54
34
11
5
-5
3
30
57
67
71
56
46
20
18
15
27
55
67
78
87
73
45
40
6
21
19
58
75
84
86
71
35
17
24
23
25
53
73
87
77
38
36
5
20
0
-3
36
47
49
38
23
8
-19
-20
-7
-12
11
36
46
44
32
-13
-49
-27
-17
-11
4
35
40
28
10
-8
-30
-41
-32
-17
22
35
40
25
17
-9
-30
-39
-35
-10
20
40
35
41
0
-30
-25
-36
-33
-21
8
26
30
19
12
-4
-41
-24
-22
-9
18
20
29
17
16
1
-22
-36
-29
-3
30
38
47
19
6
-27
-41
-42
-10
-3
33
30
42
26
-2
-27
-27
-49
-22
7
31
24
33
14
-6
-23
-33
-37
-16
-8
33
33
40
21
-12
-38
-38
-42
-27
-4
26
41
34
12
-8
-41
-45
-40
-21
-5
25
45
35
14
-11
-22
-36
-38
-18
2
23
28
26
17
-4
-29
-16
-34
-29
26
53
50
22
9
-13
-27
-38
-39
-26
7
26
26
10
-1
-21
-43
-45
-38
-17
10
15
27
23
3
-25
-43
-41
-49
-27
6
19
44
22
4
-23
-37
-40
-28
-8
44
56
108
121
103
97
114
124
136
129
130
101
101
69
-1
-62
-90
-115
-109
-83
-64
-41
-31
-32
-44
-68
-76
-75
-62
-30
4
18
30
21
-6
-25
-26
-41
-28
-17
21
38
33
15
-10
-29
-10
-32
-16
-6
29
33
43
30
-10
-15
-24
-35
-20
8
46
30
48
45
11
-17
-27
-24
-9
19
32
48
50
32
9
-17
-25
-20
-6
19
46
53
60
40
15
-5
-13
-3
15
41
64
68
57
53
31
-2
6
14
17
60
72
69
70
59
27
14
5
12
37
53
69
74
51
39
25
9
-19
0
14
36
72
46
50
34
-1
-19
-32
-33
-3
17
20
32
31
13
-11
-36
-45
-42
-23
7
12
21
16
-12
-28
-37
-51
-34
-13
19
7
16
30
1
-32
-39
-54
-54
-18
8
12
32
17
2
-34
-38
-48
-42
-19
15
27
23
26
-4
-38
-57
-57
-26
-23
16
19
41
19
-3
-35
-34
-35
-29
-10
16
25
34
19
-16
-34
-44
-52
-27
-12
28
21
28
8
-11
-48
-45
-43
-29
-12
11
27
25
9
-10
-47
-46
-33
-29
-13
25
16
18
14
-38
-35
-22
-37
-34
-3
11
13
24
6
-12
-34
-42
-45
-29
8
29
29
28
12
-19
-43
-64
-48
-18
0
21
36
33
9
-9
-25
-43
-37
-18
7
18
23
19
4
-25
-41
-47
-41
-28
14
19
16
23
-13
-42
-39
-42
-33
-25
7
16
26
14
-20
-34
-41
-42
-51
-25
18
31
31
33
8
-16
-7
-6
34
72
108
149
171
183
132
77
43
14
6
-1
1
-32
-26
-56
-84
-108
-106
-109
-97
-70
-29
-21
5
-6
-32
-59
-58
-58
-41
-8
21
27
23
19
-6
-29
-41
-41
-21
0
25
28
55
18
-12
-36
-34
-30
-19
9
35
31
44
23
0
-13
-25
-29
-13
18
36
43
34
29
4
-11
-18
-24
-6
7
38
52
44
35
7
-7
-14
10
-4
24
63
60
64
45
18
1
-1
8
17
46
72
70
69
48
22
11
-3
11
26
50
63
74
76
45
23
8
-8
12
30
42
70
60
50
42
5
-16
-27
-8
2
38
41
44
28
10
-18
-56
-46
-25
-17
6
10
37
23
-5
-44
-49
-48
-24
-18
9
7
22
16
-1
-38
-53
-55
-36
-24
4
9
15
1
-7
-30
-39
-49
-57
-30
14
9
7
3
2
-33
-54
-49
-36
-12
18
31
20
7
-24
-35
-38
-47
-37
-9
11
27
21
3
-16
-50
-46
-50
-33
-9
12
11
18
11
-13
-41
-47
-52
-31
-8
3
10
33
-3
-24
-41
-43
-51
-32
-8
-1
17
27
12
-30
-52
-47
-53
-27
-1
12
30
22
-4
-26
-37
-50
-46
-27
0
10
8
18
7
-31
-43
-58
-49
-22
3
14
6
12
-2
-32
-34
-58
-41
-24
-10
8
16
15
13
-31
-41
-63
-45
-9
11
16
31
26
-2
-33
-54
-60
-43
-13
12
17
11
-9
4
-37
-55
-52
-47
-16
10
1
14
2
-5
-35
-47
-49
-43
-18
10
13
24
4
-18
-36
-52
-55
-46
-24
18
25
25
15
-1
-6
1
22
77
101
142
175
204
158
113
64
26
-10
-22
-21
-40
-65
-44
-65
-95
-115
-110
-117
-96
-57
-22
-4
-6
-16
-37
-51
-42
-52
-43
-12
8
22
19
0
-11
-33
-52
-55
-30
1
24
16
20
11
-16
-35
-50
-38
-16
8
20
19
23
18
-3
-20
-31
-32
-15
4
11
26
44
27
-13
-32
-24
-26
-22
20
36
39
38
19
4
-19
-32
-13
3
30
36
61
51
29
-10
-8
-15
0
24
43
57
63
57
34
11
2
-11
1
34
50
57
65
54
36
6
-12
3
3
19
44
62
64
40
11
-31
-23
-22
-27
-3
21
40
41
14
-1
-29
-41
-52
-40
-22
13
17
19
6
-26
-45
-65
-58
-43
-16
-1
9
30
2
-29
-52
-56
-59
-45
-26
11
-5
1
7
-18
-48
-46
-57
-41
-21
2
12
11
-10
-27
-53
-53
-53
-39
-17
2
23
23
-3
-25
-50
-60
-56
-28
-14
-2
9
11
-5
-32
-48
-65
-59
-35
-13
2
9
15
1
-40
-50
-63
-56
-45
6
8
19
13
-1
-36
-56
-60
-48
-29
-2
11
13
8
-2
-33
-50
-63
-61
-34
4
6
10
7
-16
-27
-34
-74
-57
-35
2
6
12
2
-17
-50
-59
-61
-59
-28
-1
-9
26
5
-24
-42
-59
-67
-54
-25
7
12
16
4
-18
-43
-61
-48
-53
-30
3
-3
15
15
-18
-51
-56
-61
-50
-13
10
16
23
6
-10
-43
-46
-48
-22
-11
1
6
18
8
-14
-48
-61
-63
-52
-29
-1
11
15
3
-24
-51
-60
-63
-56
-20
-2
1
27
19
-22
-53
-65
-62
-40
-17
11
14
19
-5
-26
-49
-55
-49
-34
10
49
61
81
99
78
74
89
116
114
117
95
90
72
16
-35
-84
-117
-126
-109
-82
-63
-53
-46
-65
-74
-89
-89
-77
-53
-19
4
11
11
-1
-38
-43
-63
-59
-34
-8
16
22
7
-7
-33
-55
-52
-35
-19
3
14
36
25
0
-41
-46
-43
-33
3
28
16
26
27
6
-35
-43
-41
-30
-1
25
26
37
28
0
-23
-23
-30
-23
-7
21
32
41
33
20
-19
-18
-20
-13
21
42
50
49
51
23
-9
-5
-19
3
35
53
53
64
37
25
3
-4
-14
-8
25
57
50
67
51
28
-12
-25
-8
-2
18
30
37
41
30
-5
-33
-33
-45
-23
1
9
28
21
7
-30
-55
-63
-42
-40
2
-11
12
14
-1
-25
-58
-58
-56
-45
-13
1
7
3
-13
-26
-34
-48
-63
-48
-12
1
12
24
0
-41
-43
-53
-58
-41
-14
6
12
8
2
-44
-43
-66
-42
-45
-16
15
25
10
-15
-42
-44
-59
-57
-24
8
23
16
4
-9
-42
-50
-58
-44
-34
7
3
23
10
-12
-47
-53
-58
-41
-16
12
13
21
13
-14
-43
-45
-67
-48
-25
4
6
14
7
-14
-39
-64
-55
-49
-20
9
12
22
0
-32
-47
-52
-56
-50
-27
-3
7
11
5
-26
-51
-33
-68
-51
-19
15
10
-19
-3
-28
-47
-54
-54
-31
-3
6
23
19
11
-29
-42
-49
-50
-34
-5
18
29
23
-3
-35
-51
-55
-50
-36
-11
-3
5
16
-4
-26
-54
-65
-59
-45
-1
6
26
12
5
-33
-61
-59
-54
-36
-6
13
-6
6
21
-33
-51
-54
-50
-30
-7
8
12
27
32
24
35
50
72
92
159
178
160
107
63
3
-14
-43
-77
-92
-71
-57
-41
-59
-78
-106
-102
-113
-94
-74
-20
-3
-3
-3
-14
-46
-54
-53
-42
-19
13
16
15
2
-21
-19
-49
-46
-26
-23
17
23
23
17
1
-42
-44
-47
-31
-16
29
22
28
19
-5
-32
-40
-48
-18
-7
17
37
24
29
-7
-29
-29
-40
-13
14
27
44
43
34
9
-21
-21
-27
-3
22
30
36
49
40
28
-2
-12
-5
15
37
46
59
66
53
30
7
-9
-6
19
43
33
47
62
50
37
9
-6
-22
13
30
43
48
43
35
-7
-32
-47
-37
-19
25
43
30
16
-6
-31
-33
-49
-46
-28
5
16
8
10
-14
-42
-53
-58
-69
-41
15
16
15
6
-13
-38
-52
-57
-50
-36
-9
4
31
14
-16
-33
-54
-78
-60
-33
-5
3
16
22
-15
-39
-46
-47
-57
-26
6
14
23
3
-9
-44
-50
-45
-53
-25
7
13
22
7
-16
-42
-54
-59
-45
-26
9
2
14
2
-12
-48
-51
-49
-39
-20
7
11
13
8
-14
-55
-53
-59
-43
-26
6
43
20
0
-19
-45
-63
-58
-44
-10
7
15
5
0
-33
-52
-59
-63
-48
-15
-2
18
17
-13
-27
-42
-50
-58
-36
-13
16
19
16
-1
-26
-50
-63
-61
-33
-7
6
12
16
-1
-32
-56
-67
-45
-37
1
22
18
30
4
-30
-35
-39
-50
-29
-5
13
11
-4
-19
-48
-45
-51
-40
-29
4
14
14
11
-24
-43
-44
-54
-49
-25
11
5
16
-2
-6
-31
-55
-63
-41
-24
3
9
24
5
-5
-6
5
1
18
76
127
151
183
176
135
76
46
29
-4
6
9
-30
-50
-70
-83
-115
-124
-122
-87
-71
-47
-27
-15
-14
-28
-42
-55
-51
-34
-12
11
12
10
4
-17
-33
-45
-49
-36
1
15
27
26
12
-16
-34
-48
-37
-27
-2
10
33
27
17
-9
-24
-33
-34
-14
4
22
33
22
13
5
-31
-56
-42
-4
16
49
54
56
27
3
-20
-30
-19
0
28
39
52
53
33
4
-9
-13
-11
5
45
52
56
58
48
16
5
-5
-4
22
57
57
66
64
42
3
-16
-1
4
14
47
62
57
43
42
5
-21
-24
-21
2
31
27
34
22
1
-18
-50
-51
-25
-13
4
8
21
-3
-11
-40
-43
-56
-39
-28
-3
4
22
-4
-8
-44
-53
-54
-53
-19
12
8
9
2
-35
-60
-43
-47
-46
-28
0
16
26
1
-21
-58
-51
-60
-36
-19
10
22
25
7
-31
-51
-52
-59
-38
-6
13
17
9
15
-22
-36
-47
-40
-51
-11
3
23
24
-2
-21
-47
-53
-47
-32
-7
15
8
23
-3
-27
-38
-55
-44
-30
1
16
27
15
0
-41
-45
-67
-53
-40
-9
10
11
12
-3
-39
-37
-52
-40
-28
-6
4
25
7
-12
-38
-45
-44
-42
-22
0
7
9
13
-6
-36
-41
-48
-31
-14
7
17
43
19
1
-36
-47
-50
-49
-41
-3
-3
15
16
4
-35
-48
-62
-56
-26
8
9
16
1
-18
-42
-49
-59
-48
-20
15
11
29
17
-6
-34
-46
-49
-34
-15
8
20
34
18
10
-1
13
33
49
87
144
152
144
116
70
21
0
-15
-45
-52
-44
-43
-46
-62
-70
-105
-108
-117
-94
-63
-31
-23
-13
-22
-26
-50
-53
-40
-21
-3
20
17
21
14
-15
-26
-39
-37
-14
9
26
22
19
6
-15
-34
-36
-36
-14
15
24
31
35
14
-12
-16
-38
-42
-4
26
29
46
38
17
-14
-13
-17
-20
-3
26
32
52
51
27
-1
-13
-29
-13
2
46
50
76
50
38
3
-4
4
3
13
48
58
66
66
59
16
0
-1
8
32
57
73
75
63
49
16
-2
1
0
18
56
53
49
48
25
-8
-15
-23
-14
-5
25
28
31
21
-15
-43
-33
-45
-38
-24
6
10
24
9
-6
-53
-51
-47
-44
-19
9
14
25
8
-11
-33
-45
-48
-41
-25
3
16
17
8
-32
-25
-52
-45
-42
-8
9
26
26
10
-19
-61
-59
-44
-39
-4
20
24
30
7
-29
-45
-61
-48
-33
-15
9
17
30
2
-30
-44
-57
-58
-29
1
13
19
19
5
-20
-38
-47
-46
-38
-14
9
31
16
-9
-24
-30
-51
-54
-24
6
13
8
16
6
-27
-53
-48
-39
-38
-3
21
30
16
-8
-39
-66
-60
-34
-28
1
14
27
17
-4
-41
-47
-50
-49
-29
-3
24
26
22
1
-31
-36
-39
-35
-8
13
7
14
15
-2
-30
-46
-59
-49
-19
14
21
24
-9
-30
-56
-43
-48
-46
-6
9
11
15
10
-24
-43
-48
-52
-32
-19
2
16
10
15
-7
-45
-47
-40
-23
4
51
85
101
103
99
85
101
109
96
107
109
73
58
22
-48
-93
-120
-119
-117
-73
-57
-44
-39
-44
-81
-79
-79
-73
-47
-6
-10
11
16
5
-23
-39
-54
-42
-30
-2
11
36
24
14
-11
-37
-35
-36
-19
1
27
33
21
9
-27
-31
-23
-21
-22
11
34
25
33
14
-17
-34
-23
-21
-4
20
30
48
26
13
-18
-26
-28
-27
4
22
34
51
40
36
2
-11
-17
-8
17
61
52
60
40
33
5
-3
-10
9
21
58
72
82
56
34
7
19
-2
-8
28
59
72
73
62
32
-4
-9
-22
-6
14
41
48
39
8
0
-14
-34
-40
-36
-10
19
26
30
15
-21
-47
-54
-48
-33
-24
4
10
11
-4
-25
-55
-56
-51
-48
-18
24
18
12
-16
-34
-60
-50
-61
-47
-18
28
18
25
14
-17
-52
-50
-48
-33
-12
8
14
13
-12
-18
-48
-35
-55
-44
-6
5
24
19
-4
-44
-43
-43
-51
-26
-6
3
10
13
4
-21
-44
-51
-54
-31
9
14
17
19
-4
-42
-56
-53
-41
-28
-2
12
20
21
-4
-37
-42
-46
-47
-22
2
13
16
11
-16
-44
-54
-45
-44
-29
2
12
4
8
-7
-35
-25
-49
-50
-23
4
8
9
5
-15
-30
-35
-46
-50
-32
11
23
19
13
-12
-35
-44
-58
-39
-6
23
25
21
13
-11
-39
-43
-48
-45
-27
3
9
5
5
-22
-46
-52
-52
-41
-9
9
7
29
-1
-23
-50
-53
-48
-43
-12
9
9
18
7
-36
-47
-44
-56
-28
-9
8
30
51
41
21
18
41
55
99
132
172
177
147
107
60
25
-15
-45
-64
-68
-64
-50
-61
-62
-95
-100
-104
-99
-68
-39
-19
-6
12
-1
-35
-37
-45
-45
-32
1
20
36
25
-6
-41
-43
-37
-34
-18
23
15
25
18
5
-31
-33
-42
-36
-2
13
35
35
27
5
-28
-29
-39
-33
12
15
29
41
28
11
-24
-25
-29
-18
-9
20
38
51
38
15
-13
-19
-17
-9
12
38
51
66
53
20
6
-10
-11
10
34
53
62
69
62
44
-9
-5
-17
2
51
63
59
61
49
43
6
-12
-5
-3
32
42
47
56
32
8
-17
-27
-31
-22
15
18
19
27
1
-27
-39
-62
-40
-25
-5
15
26
14
0
-22
-42
-53
-52
-34
-5
10
24
11
-3
-36
-48
-48
-44
-52
-14
18
11
25
-6
-30
-44
-43
-49
-31
-1
8
18
16
-5
-37
-43
-39
-54
-37
-6
0
24
8
-15
-37
-38
-63
-47
-23
-2
7
15
0
-13
-38
-40
-54
-39
-25
-9
7
37
19
-5
-28
-51
-63
-46
-23
10
13
17
9
-8
-37
-50
-62
-51
-23
4
17
9
6
-11
-46
-49
-47
-39
-24
10
16
22
8
-33
-51
-51
-65
-52
-16
12
7
22
13
-7
-44
-57
-48
-45
-26
5
-3
6
12
-35
-46
-52
-49
-34
-8
9
22
17
7
-18
-37
-51
-40
-19
-6
-1
6
17
-6
-36
-36
-55
-70
-40
-8
10
14
15
5
-27
-49
-62
-53
-38
-10
10
2
4
5
-23
-45
-55
-54
-33
0
14
18
15
5
-14
-14
3
33
60
114
142
168
170
130
78
40
11
-1
-22
-38
-37
-45
-68
-84
-110
-112
-133
-118
-90
-44
-31
-20
2
-20
-51
-54
-46
-43
-21
2
12
23
19
-3
-29
-40
-52
-56
-28
17
18
33
15
-5
-31
-30
-51
-44
-7
5
26
43
25
-5
-29
-43
-45
-32
-16
22
37
37
20
-14
-26
-29
-30
-23
1
30
31
40
46
10
-11
-29
-19
-2
21
37
44
41
27
12
3
-21
-22
-8
38
62
66
67
55
22
2
-7
1
17
40
58
63
59
51
19
-7
0
-2
8
49
44
49
56
38
3
-11
-16
-29
-19
11
27
36
27
6
-20
-41
-42
-38
-20
-4
15
26
-4
-12
-37
-54
-51
-60
-33
-7
11
19
9
-15
-42
-55
-56
-55
-33
2
0
8
14
-6
-40
-54
-59
-53
-34
5
22
20
7
-18
-43
-45
-58
-60
-36
4
10
12
-5
2
-43
-44
-44
-49
-32
-13
18
19
9
-6
-55
-55
-58
-53
-23
13
8
25
12
-14
-50
-61
-65
-42
1
21
8
6
0
-20
-38
-58
-84
-23
-10
4
7
18
6
-22
-42
-53
-44
-44
-22
10
16
5
-1
-23
-51
-52
-56
-39
-18
0
13
9
3
-23
-52
-54
-72
-43
-9
22
8
6
-3
-30
-41
-45
-49
-45
-23
11
21
27
7
-21
-23
-41
-42
-29
-5
-9
-11
5
3
-27
-54
-60
-61
-36
7
12
11
3
-6
-30
-51
-70
-55
-36
-4
6
14
9
-4
-44
-50
-58
-46
-28
5
-6
-4
18
-6
-33
-38
-24
-14
32
90
121
144
148
142
129
88
54
36
33
39
4
5
-56
-86
-125
-138
-139
-112
-85
-39
-42
-19
-32
-36
-60
-62
-69
-48
-11
14
2
4
16
-7
-35
-45
-49
-31
-24
-3
14
22
3
-14
-34
-40
-56
-38
-12
18
33
25
12
-5
-30
-38
-52
-23
-10
12
35
38
11
-14
-33
-34
-46
-23
2
29
41
47
15
-6
-28
-31
-25
2
17
26
52
57
26
-4
-7
-15
0
10
26
48
57
52
46
15
4
5
1
14
38
49
49
66
50
16
3
-12
2
15
31
43
57
59
34
-10
-20
-27
-32
-7
15
14
27
43
6
-18
-36
-57
-50
-32
11
7
15
9
-12
-38
-43
-57
-50
-38
-2
2
21
4
-11
-35
-58
-67
-53
-32
4
-1
4
13
-6
-41
-55
-63
-40
-28
0
-3
-2
-6
-12
-44
-52
-57
-40
-34
-8
2
24
-4
-15
-47
-56
-65
-54
-14
21
18
23
-3
-21
-49
-47
-51
-46
-27
22
7
7
0
-21
-51
-58
-61
-42
-11
0
8
22
5
-28
-35
-47
-48
-45
-23
1
17
10
-7
-38
-37
-50
-57
-40
-6
-7
13
4
5
-30
-45
-58
-61
-32
-17
1
14
15
0
-24
-43
-60
-65
-42
-6
15
26
7
-14
-37
-54
-55
-45
-12
11
14
23
24
6
-37
-55
-57
-57
-25
-2
5
11
11
1
-31
-49
-61
-68
-44
-7
-1
0
13
-13
-43
-59
-56
-56
-33
-8
15
15
20
-6
-39
-45
-64
-41
-39
-10
21
20
18
1
-15
-8
14
51
87
132
169
164
137
105
56
10
-16
-31
-41
-54
-56
-47
-65
-94
-122
-121
-114
-97
-72
-34
-19
-5
-20
-36
-55
-61
-62
-50
-21
5
17
15
1
-3
-47
-57
-42
-31
0
20
14
17
13
-10
-39
-54
-49
-33
10
21
31
21
8
-15
-28
-61
-28
-35
-10
35
29
30
14
-3
-19
-37
-37
-23
13
30
40
38
9
2
-23
-28
-31
-19
24
46
37
47
27
11
-10
-19
-27
4
48
50
50
37
34
16
7
-4
6
17
46
60
62
59
41
7
-1
-9
-7
8
35
42
47
41
17
-23
-34
-20
-36
-6
32
20
13
10
-8
-37
-49
-53
-52
-32
6
3
7
-6
-13
-45
-53
-63
-49
-28
-2
-2
-10
-14
-28
-58
-64
-61
-61
-17
3
7
-1
-6
-42
-51
-47
-61
-52
-32
-7
22
18
3
-28
-45
-52
-42
-37
-36
-2
14
14
7
-27
-59
-62
-65
-43
-20
1
5
1
-16
-22
-51
-65
-57
-50
-8
1
16
9
-1
-34
-52
-63
-65
-42
-24
-3
15
9
-3
-17
-66
-56
-67
-56
-15
-5
-1
24
9
-44
-47
-61
-55
-31
-2
6
8
9
-6
-35
-56
-63
-56
-41
-6
5
10
8
-13
-44
-59
-68
-55
-43
-13
9
10
13
-25
-66
-54
-69
-61
-33
-9
15
-8
0
-11
-22
-25
-55
-65
-21
6
32
14
12
-14
-53
-84
-64
-40
-33
-17
-3
4
16
-4
-41
-53
-63
-56
-33
1
1
7
-3
-24
-52
-64
-60
-46
-22
0
7
10
1
-27
-57
-58
-61
-25
10
75
101
127
132
129
127
114
68
66
44
57
44
8
-46
-87
-111
-132
-132
-131
-92
-53
-38
-33
-45
-78
-81
-79
-75
-58
-13
8
9
11
6
-31
-56
-69
-59
-44
-25
-2
23
25
-6
-24
-43
-50
-46
-35
-7
12
17
17
10
-28
-50
-52
-54
-44
4
22
37
39
6
-16
-40
-36
-29
-18
7
13
18
17
14
-12
-41
-24
-23
-9
15
22
54
42
19
0
-19
-26
-33
5
41
50
56
56
33
-3
-19
-22
3
21
43
50
44
42
38
-2
-9
2
12
16
40
38
45
46
27
-31
-29
-38
-11
14
25
24
38
22
-12
-53
-69
-55
-30
-21
-2
20
10
-17
-33
-54
-58
-48
-65
-8
-1
1
8
-1
-24
-62
-53
-78
-38
-21
9
11
9
-4
-38
-66
-57
-73
-46
-23
-3
4
7
-12
-40
-59
-55
-69
-52
-23
4
1
0
-15
-37
-57
-59
-60
-55
-18
3
-4
11
-7
-34
-50
-59
-68
-45
-3
8
0
5
-13
-22
-58
-55
-61
-35
2
-3
5
10
-12
-55
-63
-65
-57
-37
-22
-1
0
7
-11
-51
-63
-48
-70
-49
-9
-16
7
12
-20
-40
-53
-59
-53
-46
0
11
-4
-9
-13
-46
-51
-58
-54
-44
-8
5
13
-4
-23
-78
-53
-45
-49
-24
0
3
15
7
-11
-57
-57
-57
-72
-24
2
-3
6
-5
-19
-49
-62
-69
-54
-41
-4
-10
9
-9
-38
-68
-63
-60
-49
-26
-1
0
-4
-13
-29
-50
-62
-56
-47
-32
-18
18
8
-5
-33
-30
-25
-16
7
55
94
137
133
143
117
48
39
22
20
14
5
-32
-66
-85
-108
-119
-131
-131
-121
-76
-39
-38
-33
-35
-54
-71
-75
-72
-62
-16
2
13
20
-8
-37
-42
-59
-52
-44
-16
-5
-1
-9
6
-22
-52
-39
-41
-30
13
20
12
14
-1
-25
-44
-55
-60
-13
30
25
13
24
5
-30
-37
-52
-41
-18
15
11
41
21
10
-23
-42
-42
-24
3
31
31
34
41
25
-7
-21
-29
-32
5
57
49
57
46
16
8
-5
-14
-11
10
48
46
74
55
29
-11
-16
-1
1
25
46
48
48
34
5
-30
-31
-34
-35
-5
28
20
24
5
-28
-48
-54
-54
-41
-27
-13
-5
13
-4
-36
-65
-76
-78
-55
-47
-4
2
12
-10
-48
-66
-63
-62
-49
-23
-12
0
10
-9
-45
-64
-63
-67
-53
-27
-10
1
-13
-29
-30
-35
-63
-63
-51
-9
3
7
-2
-21
-56
-62
-63
-64
-43
-12
9
7
2
-17
-47
-64
-71
-63
-46
-21
3
-2
-5
-30
-58
-68
-67
-58
-49
-13
12
-1
-6
-15
-49
-64
-64
-59
-47
-8
13
0
2
-23
-60
-72
-72
-51
-45
-3
-1
11
-1
-22
-54
-55
-72
-73
-45
-7
5
3
-13
-23
-57
-79
-75
-42
-28
-10
-5
6
-7
-32
-48
-68
-78
-58
-30
-4
-1
-10
-15
-31
-48
-63
-67
-29
-30
16
18
7
-8
-24
-54
-60
-72
-57
-42
-12
2
12
-7
-46
-70
-83
-62
-43
-19
-4
-5
-1
-16
-35
-65
-66
-69
-62
-30
-5
18
12
-11
-40
-72
-70
-63
-38
-16
1
29
57
56
54
70
74
98
131
137
122
111
87
38
-25
-72
-99
-131
-128
-111
-64
-66
-67
-73
-97
-115
-108
-82
-70
-23
-14
-2
0
-28
-52
-59
-58
-53
-34
-8
10
20
11
-13
-41
-50
-54
-45
-27
-3
8
19
7
-14
-56
-44
-60
-49
-23
6
8
14
8
-7
-48
-43
-47
-25
-26
-5
-1
15
18
10
-12
-25
-40
-31
6
24
32
37
25
0
-26
-24
-30
-14
0
20
46
49
42
15
-8
-21
-19
-9
21
49
55
57
47
23
-2
-10
-18
-5
18
61
53
45
19
1
-19
-9
-17
-5
10
30
46
38
11
-12
-27
-50
-39
-41
-18
0
14
-1
-3
-39
-59
-62
-58
-50
-28
-9
-3
10
-5
-47
-62
-60
-55
-48
-23
-20
-1
4
-21
-60
-62
-75
-73
-51
-20
-18
-8
3
-21
-47
-60
-67
-64
-53
-23
-7
-6
-16
-18
-54
-57
-64
-77
-47
8
-9
2
5
-17
-56
-71
-75
-60
-42
-12
2
-3
-18
-17
-53
-57
-60
-61
-44
-16
-5
8
-12
-23
-59
-59
-82
-69
-25
-8
-6
-2
-8
-29
-54
-63
-67
-62
-39
-10
-3
5
-10
-29
-59
-70
-74
-55
-36
-9
4
8
-2
-29
-59
-73
-79
-57
-40
-17
7
4
-6
-31
-61
-71
-70
-59
-31
-6
1
5
-7
-34
-57
-66
-78
-62
-27
-8
-1
-4
-18
-38
-55
-64
-72
-47
-25
-11
-2
3
-16
-50
-58
-77
-69
-46
-21
-15
-2
7
-11
-40
-53
-65
-56
-32
-5
12
7
16
-4
-42
-63
-58
-55
-41
-21
-10
-6
-4
-18
-58
-57
-60
-55
-56
-22
-1
6
-11
-21
-51
-65
-68
-54
-40
-6
4
11
4
-25
-58
-79
-64
-52
-22
-6
-2
18
9
11
-10
-6
13
42
79
115
148
160
122
78
31
16
-21
-42
-54
-46
-66
-65
-75
-78
-106
-131
-155
-115
-72
-39
-24
5
-23
-44
-62
-62
-69
-52
-31
-9
3
8
9
-27
-56
-65
-61
-43
-10
8
-3
19
6
-5
-37
-46
-60
-41
-16
-1
-1
33
13
-11
-37
-51
-45
-40
-12
15
22
22
4
-17
-35
-47
-47
-19
7
20
11
21
8
-13
-37
-47
-33
-12
11
32
35
37
24
-5
-24
-20
-18
-5
20
51
58
57
36
1
-7
-13
-19
2
35
37
46
51
35
8
-12
-14
8
21
33
40
38
25
17
-10
-7
-40
-31
-18
9
12
24
16
-5
-49
-68
-72
-62
-45
-1
4
9
17
-19
-53
-57
-63
-55
-39
-11
0
-1
-8
-33
-62
-63
-71
-61
-33
-11
-8
0
3
-22
-59
-62
-68
-61
-38
-8
2
4
-7
-21
-62
-72
-71
-58
-32
-16
3
16
0
-35
-53
-55
-69
-52
-20
3
2
2
-7
-25
-76
-66
-64
-49
-24
5
12
12
-10
-37
-43
-67
-61
-54
-28
-4
18
-1
-14
-36
-66
-68
-66
-46
-19
7
-6
0
-1
-37
-55
-69
-61
-42
-19
-2
8
6
-7
-44
-53
-61
-60
-49
-25
-6
5
-2
-4
-48
-60
-71
-54
-50
-19
0
5
-1
-22
-59
-61
-66
-62
-39
-1
3
8
-7
-24
-55
-63
-77
-53
-35
-9
-14
8
7
-5
-62
-61
-60
-52
-35
-9
-1
-1
-6
-18
-40
-61
-63
-67
-36
0
-11
11
-10
-29
-43
-60
-81
-54
-27
0
7
22
0
-23
-49
-63
-73
-57
-28
6
16
20
12
-19
-40
-46
-68
-47
-27
5
9
19
-6
-27
-50
-57
-65
-56
-29
-9
5
11
4
-29
-63
-55
-54
-46
-8
11
11
12
-19
-39
-41
-55
-63
-45
-12
5
11
9
-5
-28
-40
-29
9
55
94
120
155
173
156
130
67
41
11
3
25
11
-31
-66
-66
-106
-129
-136
-127
-92
-46
-31
-9
-20
-24
-55
-57
-56
-48
-32
3
6
19
21
9
-24
-38
-49
-50
-30
15
16
28
22
5
-21
-35
-46
-28
-18
13
24
37
28
4
-22
-31
-42
-27
-12
10
24
40
30
18
-11
-20
-23
-17
-4
29
43
46
34
19
-15
-21
-21
-7
10
35
42
46
50
16
1
-10
-12
19
33
63
61
65
60
33
17
15
10
24
44
74
63
67
63
61
18
22
8
23
37
64
77
77
61
29
10
-4
7
2
19
32
43
46
33
7
-21
-20
-42
-18
20
33
42
37
15
-6
-37
-31
-45
-27
9
23
36
29
2
-13
-38
-41
-40
-28
15
25
26
30
18
-23
-34
-30
-30
-4
9
20
33
32
14
-23
-39
-38
-27
-11
27
27
35
29
12
-25
-28
-31
-28
-15
17
17
53
41
17
-20
-38
-34
-11
4
41
26
39
42
12
-13
-19
-36
-29
-5
26
42
41
33
15
-12
-19
-38
-12
5
35
37
52
30
19
-12
-24
-34
-19
0
28
31
39
44
10
-27
-26
-27
-12
15
41
29
40
30
12
-13
-18
-27
-27
5
32
33
38
25
7
-13
-9
-27
-7
20
38
48
50
34
12
-13
-24
-19
-5
14
31
44
44
25
2
-19
-19
-17
6
26
39
48
52
46
12
-28
-14
-9
-3
22
21
42
50
43
16
0
-24
-28
10
40
49
46
47
24
3
-8
-16
-21
0
27
45
51
58
39
11
-2
-13
-10
2
48
41
60
51
45
8
1
-9
8
22
46
44
63
54
38
0
-4
-13
-13
11
47
41
58
47
32
-4
-18
-7
-8
12
28
46
66
48
25
17
-10
-20
-3
19
57
66
60
57
34
1
-2
-6
-3
43
86
108
132
137
125
121
141
141
135
129
140
122
104
60
10
-31
-70
-83
-68
-36
-1
-1
1
-15
-10
-43
-39
-29
-11
12
41
60
53
43
22
-3
-6
-10
20
40
54
66
76
48
20
24
5
-3
29
43
67
82
71
64
32
21
-4
-10
22
50
76
81
76
56
25
18
9
6
24
59
76
86
78
74
36
4
-2
12
43
74
92
84
89
72
42
22
32
34
51
92
103
104
103
74
46
43
42
47
62
90
111
117
119
91
59
47
58
35
41
74
122
121
100
86
59
46
39
46
61
84
83
97
85
49
20
20
14
15
34
57
59
88
69
48
16
0
-22
-2
27
55
57
51
54
18
1
3
-4
11
26
56
53
61
54
19
-10
-9
-10
-1
21
47
37
50
42
31
-1
-7
-4
7
40
53
57
56
46
22
-3
-8
-7
-1
33
61
68
59
52
23
-8
-8
13
12
30
54
54
51
35
16
3
-8
-4
16
42
51
60
56
36
12
-2
-19
-8
23
28
45
68
67
50
16
8
-9
-11
16
40
43
55
42
30
0
-11
-14
-8
10
46
56
62
61
31
5
0
-14
-17
13
61
50
56
40
39
8
-7
-15
-5
11
35
38
60
59
26
7
-9
-19
-6
17
39
48
57
63
39
10
1
-19
-11
2
49
52
55
50
27
-11
-10
-9
0
21
45
56
59
46
16
5
-21
-10
-11
23
49
42
61
49
32
-5
-18
-17
-1
20
47
59
62
39
25
1
2
-2
5
24
50
56
54
50
30
3
-10
-6
0
22
55
47
56
35
14
2
-17
-17
-1
21
46
52
52
41
7
-5
-24
-23
4
23
47
51
41
40
6
-2
-16
-6
8
37
85
87
111
117
109
115
130
136
163
172
168
129
112
88
22
-21
-58
-85
-66
-45
-24
-7
-9
-25
-46
-52
-34
-39
-23
18
40
49
60
35
-5
-16
-26
-13
11
52
37
47
54
49
10
-2
-7
-1
15
52
55
66
59
39
3
2
-1
9
27
51
55
68
51
31
11
-4
-13
20
21
73
69
72
61
38
20
9
9
8
33
58
73
83
71
53
24
14
16
34
44
77
85
94
76
56
42
33
23
42
65
100
101
99
97
64
41
24
17
30
70
102
94
97
77
51
40
45
23
26
63
75
77
68
58
41
17
2
11
19
48
58
46
48
40
11
-22
-28
-12
1
13
28
41
48
32
4
-15
-20
-17
-10
25
34
46
36
20
-19
-17
-36
-19
3
27
34
42
29
8
3
-15
-34
-30
-9
27
27
39
38
15
-7
-20
-24
-24
3
20
35
44
42
25
-13
-23
-45
-28
1
43
40
40
29
18
-5
-11
-26
-21
0
37
30
45
33
13
-25
-11
-26
-22
-3
32
43
45
31
10
-13
-22
-38
-25
6
37
30
30
26
4
-11
-21
-26
-13
-4
32
40
45
33
1
-20
-19
-34
-18
2
29
39
26
15
14
-21
-30
-31
-12
21
38
37
35
23
4
-34
-24
-27
-14
14
29
23
30
22
6
-33
-24
-33
-9
14
45
45
43
23
-14
-32
-32
-36
-16
5
39
39
32
23
-16
-19
-25
-13
1
33
36
45
41
18
-10
-21
-25
-30
-15
12
28
34
24
22
-26
-23
-34
-34
-11
34
31
30
37
18
-18
-33
-35
-26
-9
17
23
44
31
16
-24
-27
-20
-24
2
36
34
66
72
74
59
55
66
105
160
185
158
144
130
87
32
-12
-60
-81
-76
-50
-31
-42
-49
-53
-80
-81
-82
-70
-32
9
12
35
24
-2
-42
-39
-25
-17
1
34
45
56
32
7
-16
-24
-23
-12
10
33
50
49
26
8
-9
-31
-25
-7
11
45
56
54
32
21
-8
-14
-28
-7
15
54
53
59
33
23
-2
0
-8
12
30
58
57
71
53
19
2
-1
6
18
55
75
73
73
66
35
27
19
19
32
68
82
92
86
65
39
22
22
29
39
66
77
88
94
73
37
25
-8
17
42
71
80
76
65
46
5
-16
-25
12
19
30
41
47
38
23
-2
-21
-27
-33
1
25
33
42
17
-4
-15
-33
-44
-44
-13
25
23
36
29
12
-26
-40
-41
-31
-12
32
23
23
15
8
-29
-39
-32
-30
17
34
32
28
19
2
-38
-43
-30
-22
-9
20
29
45
20
-3
-31
-35
-42
-28
-1
24
33
23
17
-11
-25
-30
-30
-11
0
22
34
35
25
-11
-27
-30
-38
-27
9
16
37
38
27
-8
-30
-40
-48
-10
14
39
41
32
7
-15
-33
-32
-33
-10
12
11
39
25
-2
-1
-20
-43
-27
-20
11
15
24
29
16
-16
-28
-32
-24
-14
9
31
36
28
-4
-22
-24
-30
-38
-24
20
24
20
15
15
-21
-27
-39
-24
-11
16
29
28
30
17
-29
-38
-34
-31
-13
26
25
30
25
1
-28
-31
-51
-25
-9
16
21
44
19
21
-12
-28
-39
-13
16
30
25
27
33
-1
-25
-28
-32
-38
-12
2
30
33
18
3
-21
-43
-38
-32
9
30
19
16
24
1
-18
-32
-49
-26
-4
27
24
32
13
-9
-25
-35
-36
0
32
64
96
126
108
96
109
119
110
102
100
101
81
69
19
-50
-90
-115
-104
-86
-66
-36
-28
-29
-34
-70
-61
-76
-57
-39
-11
25
40
28
4
-15
-26
-38
-29
-14
18
29
40
41
17
-19
-30
-30
-34
-13
30
35
30
27
28
-1
-16
-27
-14
1
26
38
31
54
7
-5
-16
-18
-24
0
39
53
53
57
29
3
-10
-16
-11
10
50
52
73
56
35
15
-8
-13
8
24
62
71
73
69
59
12
7
8
21
35
65
78
74
70
58
28
27
8
23
52
79
77
85
67
41
1
23
7
9
36
69
61
50
47
21
0
-19
-28
-13
13
33
28
28
16
9
-21
-30
-31
-22
-2
11
14
29
9
-17
-32
-32
-46
-32
-8
23
29
31
15
-17
-43
-46
-39
-19
-3
13
33
23
14
-14
-30
-35
-42
-16
-5
17
12
30
17
-22
-39
-38
-41
-29
16
32
34
28
6
-30
-35
-45
-46
-23
17
31
43
29
8
-24
-34
-37
-38
-26
13
23
44
26
9
-20
-22
-33
-27
-21
9
49
36
28
12
-21
-38
-40
-40
-15
23
27
30
22
0
-15
-36
-35
-37
-8
11
32
29
34
2
-20
-38
-43
-31
-12
17
28
44
34
5
-33
-39
-40
-26
-9
22
35
25
25
-4
-35
-41
-34
-19
-2
20
22
38
23
-21
-33
-39
-25
-12
4
17
24
27
15
-3
-32
-42
-37
-9
10
31
21
21
24
3
-31
-38
-31
-27
1
17
29
35
24
-6
-26
-38
-43
-20
14
40
42
47
20
-7
-19
-24
-29
-29
5
21
33
35
12
-19
-26
-30
-28
-14
0
23
30
27
-13
-36
-44
-21
-20
-18
21
43
41
37
18
-14
-33
-32
-30
-14
16
25
26
31
12
1
2
12
35
74
139
152
175
171
132
75
55
33
19
-6
14
-6
-39
-65
-68
-87
-102
-95
-85
-63
-25
-25
-1
7
-14
-51
-47
-55
-30
8
36
35
34
26
11
-16
-27
-35
-23
-2
27
44
41
30
11
-7
-27
-38
-22
18
38
36
37
33
24
-8
-16
-38
-26
14
52
54
53
32
16
-1
-22
-21
-2
27
48
54
58
38
24
-6
-9
-10
-3
42
60
63
57
60
27
10
-3
15
26
41
71
76
73
56
48
23
14
18
32
74
74
96
78
60
38
17
9
24
48
64
74
70
59
55
20
10
-2
7
19
40
52
55
40
25
1
-9
-29
-27
-4
15
30
42
23
5
-28
-50
-57
-36
-5
21
32
33
26
5
-21
-31
-47
-37
-7
17
2
21
18
6
-27
-39
-39
-31
-15
21
32
20
24
-4
-24
-40
-50
-37
-9
15
26
34
11
4
-23
-30
-39
-28
-16
20
14
27
18
0
-41
-34
-47
-27
-10
32
25
26
22
-3
-43
-6
-40
-31
-13
16
33
35
21
-6
-33
-34
-47
-19
2
29
33
30
10
-6
-37
-38
-57
-24
-3
28
32
23
8
-18
-28
-33
-46
-27
-1
21
45
27
6
-26
-42
-41
-33
-26
5
32
31
30
12
-9
-26
-36
-46
-14
16
12
26
25
4
-29
-34
-34
-36
-17
13
25
13
25
21
-19
-28
-40
-32
-20
9
15
21
24
14
-30
-41
-43
-14
-20
3
16
43
32
7
-26
-43
-35
-34
-12
20
22
27
20
8
-13
-28
-43
-25
-11
22
33
44
36
27
-27
-47
-49
-15
-11
18
22
25
23
-7
-31
-40
-50
-34
-12
27
19
21
22
12
-33
-36
-39
-23
-11
22
16
19
24
-12
-34
-35
-35
-25
-7
28
38
34
32
22
10
31
43
79
112
148
200
191
141
79
44
22
-3
-30
-29
-23
-42
-45
-52
-77
-98
-101
-94
-63
-37
-18
6
5
-10
