19
18
20
15
37
4
-13
-10
-44
-11
-8
6
57
47
19
-9
5
-26
-27
-3
9
13
25
43
43
13
5
-25
9
8
11
21
34
22
25
2
1
-22
-21
-22
7
37
47
56
31
31
14
-23
8
5
25
57
82
43
48
28
-6
-14
-2
-10
15
22
45
33
-6
-2
-13
-5
-1
12
14
3
13
12
25
-10
-25
-25
7
-3
-4
16
42
18
12
-4
-36
-37
-24
-9
-1
28
36
13
-9
1
-22
-44
-30
-10
5
42
56
57
18
3
-15
-17
-37
-25
-23
28
43
25
-15
-20
-39
-30
-12
-6
15
41
32
27
3
26
3
23
55
97
134
168
191
175
143
105
65
80
103
104
89
91
33
13
2
6
-39
-43
-38
-6
-8
47
39
-27
5
-12
-21
-9
-46
-23
-3
31
18
19
-4
-17
-42
-30
-25
21
32
59
66
12
1
-15
-42
-37
-5
7
5
11
32
34
10
4
-27
-18
2
22
9
26
27
24
14
14
-21
-10
9
10
-4
22
27
3
4
-1
-42
-24
1
2
15
42
23
29
27
3
-32
8
-4
19
29
47
31
30
33
13
13
12
22
19
58
53
39
38
27
19
8
18
33
42
66
81
79
70
57
57
59
44
36
42
59
90
89
53
50
41
45
43
23
30
61
51
70
53
21
11
22
8
22
34
46
60
47
48
35
1
-15
0
11
6
35
40
24
25
22
-1
-6
-46
4
18
48
40
24
15
2
-33
2
-24
-8
-8
25
40
28
-9
-10
-30
-24
-22
1
5
34
10
20
8
-9
-50
-20
0
21
9
21
21
16
12
14
-30
-36
-24
13
11
24
27
11
-19
-28
-12
-25
8
4
33
51
41
25
16
11
-21
-28
-7
-4
-6
28
44
22
-5
8
7
-31
-7
3
12
12
19
13
-7
-15
-52
-33
5
-2
17
41
25
6
-6
-19
-31
-42
-12
3
49
51
53
26
19
11
-17
-22
-4
10
31
49
33
18
9
12
11
16
45
31
35
53
30
14
10
-23
-22
-28
-17
26
50
53
45
-5
-17
-10
-13
-37
-8
-5
14
7
2
-7
-3
-25
-26
-11
10
10
18
40
23
11
-3
-33
-33
-26
-15
-7
15
20
13
-3
-4
-34
-30
-24
-1
-14
31
4
11
-16
-21
-20
-24
-19
-19
4
21
20
4
-17
-20
-19
-16
11
24
22
39
34
36
30
17
2
35
86
115
155
201
192
190
145
121
81
77
96
97
81
80
25
-25
-26
-30
-24
-30
-15
6
15
53
41
21
-8
-14
-36
-33
-14
-5
17
35
40
9
-1
-17
-34
-22
-4
11
17
21
34
-1
-29
-27
-37
-37
7
-2
-1
26
9
27
16
-17
-28
-16
0
30
43
15
19
-8
-10
-15
-27
-40
2
1
23
39
16
13
6
10
-3
2
11
14
25
39
28
12
18
-6
-31
-20
14
23
54
45
31
30
14
-9
-16
-17
19
28
44
57
34
20
15
2
2
21
38
32
53
57
83
49
48
31
13
27
52
54
92
92
61
42
41
39
26
29
55
50
80
80
78
55
45
21
34
11
19
23
53
55
31
31
4
-10
-18
0
-4
13
20
12
19
11
15
-18
-25
-22
-3
-1
30
11
21
11
11
-23
-41
-20
25
27
43
43
20
-9
-2
-8
-8
-23
-1
38
46
42
10
11
-12
-22
-24
-13
-1
20
45
35
7
-2
-6
-29
-46
-15
5
56
28
15
20
-2
-26
-49
-61
-53
-9
6
56
31
18
7
-5
-14
-24
12
26
32
36
38
28
-15
11
1
-30
13
26
50
52
52
54
-12
-47
-44
-23
-7
-6
10
33
27
15
-10
-31
-11
3
-2
6
23
34
11
8
-22
-29
-22
-36
-27
0
57
62
52
17
4
-25
-12
8
19
29
42
-3
16
17
-5
-14
-9
12
7
30
44
34
9
16
6
-28
-9
-7
0
12
21
6
12
2
-3
-13
-17
-7
32
37
42
42
22
1
5
15
17
17
30
52
35
53
40
30
12
-6
-2
10
29
46
71
42
24
34
15
-7
-14
-7
17
32
21
22
-6
2
-3
-17
-26
-24
6
12
8
6
4
-9
-24
-26
-30
-13
11
12
12
19
8
-17
-27
-29
-23
-4
19
5
31
27
10
19
-9
-20
-17
-5
-7
20
33
19
15
10
-10
-4
9
17
11
53
77
64
72
69
89
108
139
180
223
202
161
134
114
114
76
56
63
22
1
18
10
8
-6
-7
-9
-10
-5
-12
7
32
21
20
-9
-4
-36
-7
24
5
-2
18
7
29
26
20
7
9
4
4
-19
14
28
19
-9
7
-24
2
-6
-1
-3
34
27
23
-4
11
-13
-15
-24
-8
6
27
22
30
21
5
-15
-24
-6
36
23
44
51
45
-1
19
-9
0
20
22
21
57
49
36
14
8
-21
-5
6
-2
22
37
37
15
26
4
2
2
12
33
45
43
34
47
38
5
14
15
53
58
59
90
90
70
77
32
51
63
51
78
96
96
95
64
71
51
40
27
25
40
45
81
58
37
28
8
7
-9
8
24
57
37
29
21
3
2
-2
-20
-13
38
36
59
32
0
4
8
19
-10
44
16
47
42
51
39
25
-10
-2
14
12
-25
16
32
19
1
-12
-22
-14
-8
17
14
39
46
16
-4
0
-14
-19
-36
5
-2
26
9
31
33
16
-19
-40
-13
10
27
27
9
11
22
14
-9
-19
9
3
60
68
52
31
2
11
-43
-11
1
9
30
29
42
25
10
8
2
-10
8
22
12
52
24
12
-7
22
-15
-21
-8
23
28
29
14
23
10
-25
-36
-20
-6
-9
16
42
37
25
31
2
-5
-28
-12
28
32
45
33
36
41
-36
-27
-19
-1
24
18
45
51
21
-17
-23
-38
-8
14
29
32
39
32
11
-22
-27
-3
-14
4
16
27
5
14
23
13
-8
-18
-15
-6
12
52
27
55
23
14
7
3
7
36
38
65
60
38
24
38
-16
4
27
46
49
44
36
28
2
-11
-16
-4
-2
7
0
28
34
18
4
-8
-46
-25
-34
-11
-10
27
20
20
4
-3
-15
-26
-2
38
-6
25
-9
8
7
24
-26
-57
14
24
24
41
29
-2
-5
-4
-36
-36
-21
6
31
42
18
14
9
1
-11
-24
-5
7
23
33
39
30
53
57
73
95
130
158
175
173
148
109
103
113
86
67
39
10
12
-2
16
-11
-19
-7
-32
-17
2
9
5
36
35
17
3
-13
-35
-14
2
0
7
22
22
6
6
-20
-35
-9
7
25
36
31
10
1
-1
-34
-22
-38
-34
2
53
24
27
36
8
-12
-35
-6
-12
-4
30
26
26
28
16
-19
-31
-5
23
14
41
40
38
24
21
-25
-26
6
16
17
71
40
30
26
0
5
-6
7
4
19
15
34
42
15
13
0
-34
25
34
34
41
52
55
43
32
12
32
24
30
49
85
88
66
60
57
48
45
52
52
58
91
102
112
68
69
32
46
51
35
58
69
48
40
32
16
-13
-7
7
33
9
18
51
46
33
7
-19
5
13
27
24
68
45
21
11
-27
-27
3
8
39
37
57
26
51
24
-24
-14
-14
-30
-1
19
20
22
3
-4
-28
-34
-25
-9
-7
11
20
6
8
-5
-20
-11
-13
-5
17
21
44
39
5
14
-25
-30
2
15
19
40
39
52
10
-11
-30
-36
-22
18
31
16
29
23
1
-2
-19
-32
-23
17
30
37
31
22
3
-2
-24
-12
-17
-22
14
18
20
7
27
13
-15
-18
-4
-3
-14
25
42
68
13
-4
-16
-12
-3
-4
26
27
23
41
17
-22
-38
-41
-5
-1
13
23
33
31
0
4
-30
-23
22
5
17
36
27
31
18
1
-27
-40
-49
1
-2
8
27
25
0
1
-22
-16
13
47
24
70
68
68
38
-10
-21
2
30
25
26
51
57
54
24
14
4
7
21
16
29
50
43
11
-16
-6
-21
-11
4
-5
8
20
32
21
-34
-59
-66
-61
-20
-13
-7
28
24
32
2
-13
-14
-4
-5
5
20
40
32
16
26
-16
16
38
-11
-21
-16
18
0
-17
-9
-23
-28
-22
-20
-12
36
39
16
-8
-17
-22
-15
-19
0
3
27
46
54
54
61
50
76
93
140
192
204
194
168
145
127
118
102
72
31
35
11
-11
-16
-17
2
-10
-8
-11
8
5
36
21
6
-5
-7
-42
-22
-15
0
12
19
37
16
-1
-35
-32
-32
-41
-18
-16
10
15
31
9
-9
-26
-30
10
31
7
36
45
58
6
0
-7
-13
-8
5
1
18
25
21
7
2
-22
-31
-15
22
24
31
14
20
18
-10
-32
-18
-3
17
29
33
32
19
9
3
-4
-1
-2
10
26
31
69
22
-1
15
17
17
19
26
53
39
44
61
26
19
17
13
28
63
68
68
59
62
55
39
15
21
31
48
84
92
79
52
43
33
31
29
33
59
72
51
37
28
41
4
21
21
16
16
52
61
77
16
6
-6
-20
-17
4
26
47
52
17
22
17
-35
-43
-7
-14
-6
24
36
17
-7
-10
-33
-8
-17
14
23
22
23
20
4
12
-40
-40
-31
-15
-4
33
22
44
29
-10
-25
-36
-11
0
32
49
15
19
-15
-6
-26
-31
-2
-11
-5
20
10
-7
-3
3
-6
-6
0
19
32
18
28
25
7
-15
-13
-38
-30
-14
-3
32
30
36
-2
12
-23
-16
-31
-7
39
26
15
40
3
-5
-7
-15
-26
-11
20
19
30
26
-17
-23
-33
-33
-1
11
24
19
17
26
1
-9
-15
-15
-4
-18
15
35
38
21
1
-14
-16
-7
-11
-7
25
21
26
-20
1
-14
-21
-25
-1
1
10
27
38
10
1
-24
-25
-32
3
0
47
63
27
5
-16
-21
-21
-8
11
-2
25
45
18
0
4
-6
-1
-2
19
19
46
54
80
18
16
-1
-12
20
7
8
48
55
69
21
1
-20
-2
-27
-1
8
28
24
33
18
-32
-42
-53
-9
0
9
4
16
24
5
-16
-41
-49
-30
-16
-9
31
29
13
-7
-28
-56
-24
-16
-13
-5
26
12
6
6
5
-10
6
7
0
-5
5
26
20
15
-17
-27
-15
-19
3
15
48
44
26
9
24
30
49
122
142
146
195
206
171
126
109
75
59
88
81
87
51
5
-12
-6
-40
-33
-25
2
14
-8
16
-3
18
10
-5
-6
-10
-16
0
22
54
52
28
-28
-26
-29
-23
-28
-6
32
24
12
5
6
-52
-33
-34
-16
-2
13
32
2
-1
-8
-39
-9
-13
7
18
40
43
34
17
-8
-20
-25
-17
0
14
32
25
46
17
20
-14
-12
-10
-14
-11
34
42
26
6
2
-12
-9
4
17
29
45
22
18
2
0
-2
-19
6
29
57
88
61
35
26
1
-4
8
16
40
33
58
75
80
54
45
38
2
61
61
52
95
93
70
59
52
55
54
22
35
63
76
60
66
43
36
31
30
34
41
46
41
5
23
-3
-10
-38
-41
4
21
24
31
28
22
-5
3
-30
-20
31
21
48
49
48
53
8
-9
-20
-26
-9
-7
20
45
29
27
10
-14
-17
-3
-12
5
13
16
27
7
-5
-36
-33
-34
-16
-5
26
13
6
-6
-8
-26
-29
-29
-18
-5
35
50
36
22
7
-9
-7
-12
16
13
46
43
24
25
14
-20
-42
-32
4
1
38
32
39
11
16
-27
-35
-40
-23
3
36
20
28
16
-13
-46
-28
-15
12
26
29
44
10
5
1
-22
-18
-34
8
23
15
31
14
32
-5
-18
-18
-16
4
10
33
31
32
-7
8
-18
-15
-26
-20
12
20
31
37
1
-16
-25
-35
-21
9
9
46
20
7
-1
19
-26
-29
-16
2
-8
-10
19
1
-8
-14
-6
15
11
34
33
37
29
38
6
16
-9
22
20
43
68
72
72
33
16
4
0
5
10
18
29
45
37
20
1
-5
-21
-18
-17
-1
15
6
-1
-4
-23
-44
-41
-34
-10
-24
-2
20
-24
-30
0
-22
-15
0
-30
6
32
34
33
26
24
-12
-25
-42
-4
24
12
16
17
-11
-7
-19
-21
-15
-18
-7
12
22
5
-27
-26
-52
-33
-22
7
6
25
23
26
13
17
31
44
69
138
148
208
202
179
138
106
84
58
82
77
54
15
19
7
-19
5
-29
-18
-6
14
29
17
16
6
-8
-19
-61
-55
-29
-6
-4
32
9
6
5
-28
-42
-60
-17
-9
3
20
18
6
-34
-21
-19
-23
-31
-5
3
23
19
6
-16
-14
-39
-46
-11
13
10
40
32
19
3
-6
-17
-17
5
-9
20
17
26
25
26
-2
-10
-8
-16
-2
2
32
33
14
4
-17
-28
-15
-2
5
15
24
33
15
4
-18
-37
-21
-2
28
31
63
65
43
34
36
42
37
34
19
73
90
75
56
40
39
23
16
19
28
78
73
61
59
27
6
33
26
44
38
74
70
58
38
36
1
-16
7
18
32
62
52
33
30
9
-23
-12
-2
8
-35
33
50
19
5
19
-47
-1
-30
-5
9
29
29
17
-5
-8
-23
-32
-35
-18
6
27
18
10
7
-6
-23
-22
-38
-5
9
32
25
9
1
1
-37
-34
-23
-6
-3
4
37
20
11
-22
-29
-22
-12
-13
-24
5
-2
-26
2
3
-32
-33
-14
8
41
20
10
-2
10
-18
-21
-31
-9
-1
34
41
20
8
-18
-18
-19
-29
-15
5
14
27
28
16
14
-10
-12
-22
-23
4
26
54
41
13
-21
-36
-41
-40
-32
-9
15
26
21
13
-15
-48
-38
-26
-26
-1
15
5
21
4
5
-46
-46
-23
1
-5
3
22
15
11
-7
-44
-22
-18
-11
4
23
29
46
33
25
-18
-24
-35
-2
-22
18
4
-1
5
8
-18
-43
-30
10
6
23
16
23
1
-9
-36
-13
-10
46
24
25
13
32
4
10
-6
-1
-15
8
40
44
26
27
11
-7
-32
-18
3
13
0
26
24
10
-13
-15
-8
-23
-29
-4
-1
6
2
-11
-17
-31
-42
-60
-33
-12
-6
-8
9
-4
-15
-28
-35
-34
-43
-19
4
6
-3
12
0
-55
-33
-25
-27
10
17
35
33
3
-7
6
-14
-30
-26
-17
-5
38
28
30
26
33
24
66
77
116
155
150
154
111
102
90
54
30
66
33
0
-28
-5
-28
-18
-47
-52
-16
4
-2
13
30
11
7
-11
-18
-37
-35
-10
-22
35
32
33
2
-10
-43
-42
-64
-41
-18
32
11
11
0
-17
-23
-16
-37
-7
-16
3
-3
6
-10
-17
-19
-33
-15
-13
-19
32
30
24
10
-5
-28
-40
-21
-13
-9
23
25
14
1
-12
-34
-32
-6
15
35
37
39
33
-17
-6
-34
-38
-37
24
8
30
38
39
19
-1
-41
-8
11
23
32
61
53
35
22
8
4
11
23
35
42
58
52
55
26
17
26
4
31
63
64
85
96
54
50
54
40
7
12
19
56
61
55
40
26
10
-3
12
13
41
28
29
36
19
15
-19
-35
-20
-11
20
10
28
19
9
-1
-35
-33
-11
-9
0
20
20
-1
-18
-16
-45
-23
-7
-8
9
18
13
15
8
-10
-42
-34
-31
-23
3
14
9
13
8
-24
-49
-19
-22
-11
-11
27
9
22
-5
-30
-33
-10
-35
-24
-5
26
-7
-7
1
-20
-40
-25
-23
-4
10
-5
21
-1
-16
-16
-41
-27
-13
-1
2
10
29
15
11
-19
-42
-40
-12
3
-3
31
21
10
-7
-24
-51
-35
-6
5
-4
21
28
23
-24
-24
-31
-24
-19
-2
-15
7
-5
-12
-22
-28
-53
-47
-30
-14
-5
12
14
9
-2
-42
-16
-40
-31
-4
-1
25
21
16
-11
-20
-24
-19
-12
-6
17
20
25
9
-7
-31
-37
-15
-1
7
40
34
36
15
8
-23
-20
-21
-28
-19
17
21
16
-7
-33
-30
-24
-25
-10
13
15
33
16
5
-10
-24
-37
-18
-35
-2
32
23
5
9
-26
-45
-34
-36
-27
-10
10
17
14
-23
-19
-38
-36
-35
-34
-8
3
24
-12
-31
-57
-69
-78
-69
-57
-25
-8
-2
-5
-12
-26
-49
-39
-35
-8
-9
18
28
18
-13
2
-41
-13
-6
1
30
69
74
84
78
111
100
92
140
136
116
91
120
108
82
65
10
-49
-37
-53
-55
-15
-7
0
-47
-25
-34
-47
-69
-16
-8
19
17
-20
-40
-26
-42
-58
-43
-15
-6
16
15
14
10
-24
-63
-34
-35
-1
15
-1
16
11
-16
-26
-36
-40
-8
-30
-1
14
11
-4
-37
-34
-42
-37
-45
-19
-21
-14
-11
-6
-8
-43
-50
-43
-16
-29
-1
32
22
2
-4
-27
-25
-19
10
1
10
21
17
4
-6
-16
-33
-22
-12
19
31
29
33
2
20
-5
-24
-15
2
5
35
33
31
9
-6
-15
-16
3
27
57
92
25
17
21
27
-7
-4
-14
17
35
81
66
58
60
43
18
33
18
45
37
64
70
69
8
-6
5
22
-7
-2
-6
3
11
17
13
-19
-54
-50
-37
-16
-15
7
5
-16
-32
-25
-47
-44
-35
-19
11
14
-9
-7
-15
-16
-46
-44
-20
-15
-6
-9
20
-14
-26
-33
-45
-24
-37
-9
5
47
15
-7
-24
-14
-15
-18
-28
-35
-21
-5
2
-25
-35
-22
-53
-40
-40
-45
-31
-7
-5
-13
-22
-16
-34
-52
-52
-4
-3
15
3
-9
-13
-38
-38
-22
-26
-27
13
1
5
1
-14
-53
-44
-34
-28
-14
1
45
16
1
-4
-29
-41
-63
-11
-17
-13
12
-10
-28
-29
-38
-44
-46
-46
-38
-13
2
-3
5
-9
-45
-63
-36
-52
-15
-3
10
17
-16
-6
-45
-58
-32
-16
-24
24
12
6
-25
-3
-44
-64
-28
-15
-3
39
25
-2
-19
3
-52
-42
-33
-33
-33
13
10
-2
1
-19
-45
-34
-23
-8
7
30
9
8
4
-13
-37
-18
-25
-12
12
24
6
22
5
-11
-31
-53
-44
2
14
20
19
-18
-16
-40
-69
-38
-25
-15
-13
5
-6
-28
-26
-45
-55
-55
-46
-19
-3
6
-13
-19
-39
-36
-65
-44
-57
-50
-20
-18
-17
-38
-55
-61
-68
-62
-29
5
2
22
18
-17
-13
-43
-58
-23
-11
-5
16
29
34
11
5
-7
-10
15
84
106
161
165
174
160
112
60
63
71
72
64
75
40
-11
-55
-51
-51
-79
-72
-30
-34
7
31
7
-30
-10
-46
-71
-51
-20
-3
-15
10
3
-11
-19
-34
-31
-25
-32
-10
7
-18
-18
-28
-42
-46
-36
-45
-31
-9
5
7
-22
-12
-49
-47
-35
-27
-39
-22
18
-13
7
4
-18
-61
-57
-53
-13
-13
-1
-16
1
-5
-38
-28
-22
-18
-1
5
19
15
14
5
-6
-33
-55
-46
-22
12
14
24
-12
-26
-14
-15
-31
-8
8
21
30
31
37
7
-18
-29
-10
-13
5
35
30
20
34
18
17
-4
-3
12
23
47
74
38
36
22
26
-5
0
20
31
41
62
49
43
16
-5
-6
-5
-6
28
48
44
35
13
-11
1
-23
-40
-16
-19
8
9
0
-15
-32
-40
-40
-25
-39
-15
16
13
15
-18
-43
-55
-29
-47
-30
-49
-12
7
0
-20
-11
-30
-64
-47
-25
1
-1
6
1
-17
-30
-56
-34
-31
-34
-27
1
21
12
-18
-33
-38
-45
-40
-15
-19
13
-10
-4
-13
-25
-43
-44
-35
-46
-14
11
-6
9
-4
-36
-56
-66
-56
-27
-6
31
21
-2
-9
-9
-37
-34
-51
-36
-29
2
-13
7
1
-43
-45
-33
-37
-18
-9
-1
12
0
-45
-39
-26
-36
-15
-18
-11
22
4
-16
-22
-35
-40
-31
-45
-24
-6
-5
8
4
-15
-25
-45
-41
-35
-41
-14
1
-9
-18
-29
-48
-49
-56
-28
-18
32
0
-23
3
-4
-31
-61
-51
-26
-20
2
17
-13
-14
-44
-67
-64
-34
-14
4
-1
7
-7
-5
-20
-55
-70
-54
-24
6
7
17
8
-20
-24
-48
-23
-18
-10
12
23
22
36
0
3
-22
-31
-13
-9
-12
6
24
16
-20
-3
-39
-54
-21
-8
-10
19
4
0
-26
-32
-51
-55
-36
-20
-4
11
-7
11
-25
-27
-44
-66
-64
-37
-28
-7
8
2
-14
-38
-76
-57
-54
-59
-19
5
-5
-17
-45
-44
-52
-61
-36
-15
-18
6
1
-22
-30
-37
-55
-55
-34
-20
6
48
45
0
-32
-10
-2
-34
-8
18
57
116
123
150
137
132
121
108
73
97
77
108
95
62
-29
-68
-82
-78
-45
-23
-34
-7
17
3
-33
-45
-43
-44
-34
-44
-4
8
12
-5
-23
-32
-50
-47
-26
-21
-18
9
-12
-14
-23
-47
-54
-25
-7
-13
-4
8
-7
-17
-43
-65
-38
-32
-24
-27
2
6
-10
-9
-21
-52
-70
-48
-23
-24
7
4
-17
-16
-15
-28
-32
-30
-14
2
26
31
14
3
-12
-61
-36
-22
-20
-34
20
22
10
-23
-24
-23
-17
-14
7
9
8
24
31
-19
8
-28
-7
-8
0
36
62
29
20
20
5
-15
-17
15
22
48
50
61
54
41
0
-25
22
14
46
41
46
51
34
22
8
-20
8
20
25
26
16
44
20
-13
-23
-28
-27
2
-20
8
32
24
8
-3
2
-35
-67
-45
-15
12
29
17
-8
-25
-38
-45
-60
-51
-16
-4
10
22
-17
-38
-40
-39
-41
-44
-19
-9
2
-3
-6
-50
-44
-53
-55
-47
-31
-19
12
22
10
-20
-77
-41
-41
-23
0
17
24
-2
-12
-41
-45
-47
-27
-13
-3
4
-9
3
-13
-29
-67
-49
-42
-18
-5
17
27
12
-15
-43
-63
-60
-54
-25
-32
0
6
17
-2
-19
-61
-44
-26
-3
-8
1
2
-6
4
-20
-66
-45
-39
-13
5
27
-8
19
-9
-38
-44
-42
-45
-21
-12
8
19
-3
-16
-34
-47
-41
-49
-31
-1
8
1
-9
-24
-45
-70
-79
-30
-27
-25
12
11
-13
-21
-53
-43
-44
-31
-21
-18
6
4
-6
-7
-15
-29
-40
-45
-27
-24
-6
4
3
36
-23
-56
-46
-47
-32
6
-3
-14
-24
-32
-39
-48
-53
-38
-15
-26
-1
4
-19
-34
-44
-52
-55
-61
-12
-7
12
7
4
-18
-50
-51
-48
-27
-25
10
-1
-10
-1
-18
-30
-33
-16
-3
11
21
4
32
17
-14
-19
-36
-18
-17
6
37
35
17
-2
-22
-29
-32
-48
-42
-4
-11
16
8
-21
-25
-52
-43
-51
-53
-53
5
16
-1
-20
-23
-43
-79
-39
-25
-21
-7
5
-10
-24
-49
-59
-46
-62
-34
-24
10
9
-6
-14
-3
-40
-63
-64
-42
-35
-17
5
-23
-33
-43
-75
-46
-28
-19
-10
25
18
17
-18
-51
-52
-12
-1
25
51
89
122
136
141
143
114
77
77
73
71
126
119
69
12
-36
-78
-72
-28
-36
-32
-2
-14
-9
-4
-36
-53
-47
-29
-37
-31
7
-17
-9
-23
-47
-83
-40
-30
-16
-18
4
7
-11
-27
-25
-31
-47
-38
-39
-3
19
-5
-11
-15
-34
-66
-41
-38
-3
10
10
-11
-17
-38
-56
-53
-44
-24
-9
19
21
-22
-10
-19
-36
-47
-30
-40
16
-2
-16
0
1
-3
-33
-47
-32
-24
-12
9
19
26
23
-5
-20
-20
-12
-22
-11
36
40
-15
12
-3
-24
-3
-21
11
24
19
24
45
34
22
0
14
-10
34
46
45
48
55
24
24
-9
-2
25
29
29
47
69
48
39
14
-4
7
19
24
11
60
28
41
8
-13
-28
-21
3
24
9
26
25
7
-9
-15
-41
-37
-28
-20
-9
34
13
9
-11
-39
-26
-45
-43
-31
-17
-13
-9
-13
-12
-41
-55
-43
-28
-8
-18
9
13
-9
-19
-29
-25
-51
-23
-18
5
2
12
-9
-38
-67
-32
-40
-38
-2
3
15
19
-13
-11
-26
-42
-60
-39
-22
12
18
-4
9
-14
-50
-45
-35
-13
8
-2
14
11
-9
-22
-51
-34
-30
-36
-5
-5
9
1
-19
-31
-50
-27
-55
-26
-13
16
28
22
-10
-28
-56
-37
-22
-18
-13
4
8
5
-27
-34
-50
-37
-30
-25
-21
19
26
0
4
0
-27
-45
-54
-21
-23
6
1
-1
-16
-22
-43
-48
-35
-30
-4
24
11
-5
-32
-38
-47
-58
-42
-33
-31
9
-14
5
-16
-23
-37
-48
-20
-19
-20
-4
7
-16
-20
-33
-41
-37
-15
-3
-23
-13
-1
-1
-12
-13
-40
-67
-33
-1
-1
8
25
24
-14
-37
-58
-76
-40
-24
-4
2
-13
-14
-23
-25
-45
-44
-32
-7
-24
24
-2
-2
-54
-41
-31
-36
-29
-32
0
7
1
15
-14
-25
-29
-9
-19
-8
22
24
24
24
14
-3
-3
-5
-10
-1
11
24
23
-2
3
-4
-38
-48
-17
1
20
13
12
-7
-13
-43
-38
-57
-36
-35
-1
17
-1
-10
-26
-53
-51
-55
-22
-14
7
11
3
-10
-26
-57
-28
-27
-30
-14
-18
5
8
-31
-43
-36
-53
-30
2
4
-28
-10
-6
-5
-26
-84
-54
-42
-33
-7
21
20
0
1
-25
-34
-37
-18
-17
35
23
58
107
109
107
121
150
137
108
113
125
111
100
83
51
-23
-49
-69
-35
-34
5
-11
-10
-9
-12
-35
-35
-35
-23
-29
-26
10
-6
-16
-43
-66
-54
-48
-17
-8
-6
23
6
-16
-28
-43
-30
-41
-21
-20
-5
23
-24
1
-52
-52
-21
-16
-20
-8
-1
8
-4
-34
-21
-34
-40
-32
9
11
7
4
-25
-8
-35
-44
-26
-12
-22
7
17
13
-9
-25
-26
-58
-26
-18
-4
7
22
3
8
1
-26
-30
-18
-7
-4
28
41
27
3
1
-25
-27
-10
-17
31
48
47
43
24
13
-12
3
6
27
53
69
56
49
18
18
-6
8
14
41
41
60
53
55
41
42
21
18
16
14
34
59
47
49
29
-8
-19
-18
-2
-6
12
37
19
7
12
-18
-38
-20
-39
1
1
28
10
-20
1
-20
-37
-38
-45
-12
-11
16
35
6
-21
-31
-62
-55
-25
-9
-15
8
27
22
0
-21
-60
-38
-31
-12
-21
-7
9
-9
12
-27
-45
-66
-44
-21
-23
18
12
14
-6
-21
-37
-41
-31
-60
10
17
-10
4
-10
-33
-32
-32
-3
-19
-4
16
14
4
-17
-38
-32
-20
-26
-26
0
7
11
-2
-28
-39
-36
-27
-33
-18
8
-8
-12
-24
-37
-27
-35
-21
-11
-8
15
39
19
-12
-30
-52
-34
-39
-28
-1
25
25
-10
-13
-20
-36
-30
-32
-9
-20
9
2
-14
-8
-11
-40
-72
-44
-34
-10
6
43
15
-11
-5
-31
-52
-54
-41
-31
2
9
-43
-11
-19
-23
-30
-46
-23
-23
2
0
11
-5
-25
-45
-27
-32
2
-12
20
6
5
-17
-28
-61
-62
-43
-7
-22
-3
16
-5
-12
-6
-48
-54
-41
-19
-8
-4
3
-5
-22
-36
-55
-65
-41
-14
6
9
0
0
-17
-23
-24
-50
-38
-32
-19
32
23
15
-17
-33
-29
-37
-17
16
24
28
16
15
5
-7
-24
-34
-20
-17
-3
36
25
5
-5
2
-28
-35
5
33
2
7
12
-12
-20
-46
-51
-48
-48
-32
-1
1
-5
-13
-33
-28
-33
-34
-6
-24
-9
-5
0
-9
-13
-54
-47
-39
-27
-32
15
24
2
-29
-39
-63
-71
-41
-21
-34
0
-13
1
-26
-26
-63
-51
-41
-18
-26
5
6
3
-17
-8
-38
-29
-10
-2
9
45
54
83
125
100
109
131
111
121
93
136
103
108
78
48
4
-39
-70
-56
-57
-17
-1
-7
-25
-18
-46
-54
-24
-16
-4
27
26
9
-32
-45
-61
-63
-57
-37
-10
4
-2
-6
-14
-23
-36
-31
-50
-14
-15
12
19
-14
-25
-31
-36
-39
-44
-16
-25
2
4
-18
-26
-38
-34
-23
0
-27
-11
13
23
-20
-26
-24
-35
-78
-33
-3
6
17
15
-10
-7
-10
-45
-35
-23
-16
22
14
-6
-25
-3
1
-11
-24
-15
8
16
38
41
28
7
-30
-11
-16
-4
11
24
44
19
26
14
-5
9
3
6
41
46
56
44
31
26
1
7
10
8
40
57
60
46
45
66
0
-14
11
29
14
52
64
39
-8
17
-14
-19
10
12
12
35
22
18
-17
-2
-8
-36
-42
-14
3
20
10
10
-22
-32
-23
-33
-36
-11
-17
1
8
22
-12
-24
-54
-55
-36
-34
-45
17
11
-13
-24
-43
-48
-42
-26
-23
15
22
5
-13
-23
-29
-59
-41
-51
-3
-6
-3
3
-3
-22
-4
-62
-27
2
-10
-17
21
12
1
-10
-14
-42
-49
-53
-21
18
33
-1
-15
-33
-37
-61
-42
-35
-15
-13
8
19
-11
-11
-36
-45
-37
-36
-10
13
1
-2
-11
-15
-23
-36
-36
-24
-6
-1
24
2
-16
-26
-40
-40
-29
-12
0
19
3
-22
-12
-17
-44
-37
-25
-25
-28
-8
13
14
-9
-34
-63
-51
-45
-20
-28
7
15
1
-8
-27
-37
-56
-58
-15
-31
11
9
-23
-10
-22
-43
-33
-41
-26
-23
7
18
-2
-14
-23
-35
-54
-39
-14
-5
15
10
-9
-33
-44
-38
-48
-35
-29
-3
19
9
6
-12
-30
-28
-66
-52
-30
-23
-1
5
-19
-17
-28
-61
-47
-50
-23
0
17
24
13
10
-5
-26
-41
-16
16
26
9
35
10
13
-15
-25
-10
17
10
22
31
12
14
-16
-30
-37
-35
-38
-16
0
4
19
12
-48
-36
-27
-55
-39
-18
-19
-7
2
7
-38
-57
-44
-45
-17
-16
-8
5
11
12
-17
-46
-47
-77
-24
-27
-7
-8
7
-1
-33
-46
-36
-58
-36
-25
1
-6
-5
-11
-24
-59
-53
-52
-25
24
41
19
7
-22
-28
-48
-26
0
14
67
108
130
160
150
153
113
93
83
93
102
114
103
37
-19
-44
-85
-74
-43
-43
-42
13
13
10
-6
-7
-53
-48
-27
-8
-1
12
1
-21
-13
-39
-66
-37
-27
-36
-7
-3
6
8
-35
-19
-51
-51
-54
-20
-11
17
14
-3
-17
-33
-44
-34
-29
-3
-21
20
14
6
-17
-13
-54
-52
-30
-1
14
31
29
-11
-26
-25
-50
-56
-49
-5
15
10
41
17
-6
-9
-21
-26
-29
-3
2
21
35
-5
-6
-5
-28
-35
-11
12
20
49
21
6
40
15
-19
-28
-8
18
37
20
17
55
17
16
19
12
32
36
60
50
58
57
38
19
8
32
31
44
67
48
53
52
33
9
12
30
24
31
39
40
30
25
14
-30
-26
-38
-10
11
25
10
20
-10
-24
-53
-31
-19
-4
8
33
13
-6
-3
-13
-48
-20
-33
-15
1
31
0
-11
2
-14
-61
-33
-34
-25
-8
13
13
0
-8
1
-36
-34
-34
-15
-11
4
12
-7
-25
-32
-44
-53
-19
-17
-34
-5
10
-2
0
-10
-48
-41
-42
-2
-9
8
20
16
-17
-41
-49
-37
-16
-14
10
31
19
14
-13
-16
-44
-12
-25
-10
-2
-2
-3
-3
-7
-21
-37
-30
-26
-7
15
24
22
-14
-50
-29
-45
-50
-22
-5
1
20
11
2
-24
-13
-33
-51
-2
-26
0
17
9
-21
-12
-47
-52
-37
-11
-8
20
19
17
-4
-32
-43
-31
-42
-4
-8
2
9
1
-10
-14
-50
-53
-36
-11
-14
1
6
-1
-1
-10
-38
-68
-45
-30
-21
3
7
-8
-3
-16
-52
-36
-36
-17
-8
17
18
-6
13
-26
-61
-49
-41
5
15
24
15
8
5
-11
-46
-23
-44
-24
10
39
41
-8
31
15
-16
-28
-9
-3
1
27
30
3
1
5
-23
-26
-27
-20
-14
9
23
-4
-8
-31
-34
-70
-33
-13
-13
11
12
25
-17
-62
-59
-55
-45
-31
-14
-1
-8
7
-23
-25
-37
-47
-40
-12
-12
-2
24
-14
-32
-42
-46
-37
-26
-27
-17
24
7
-11
-10
-67
-60
-48
-18
-20
15
15
3
4
9
-6
-42
-34
27
34
88
119
177
157
150
132
91
80
75
73
98
97
95
37
-29
-47
-79
-62
-32
-17
7
23
2
-6
-23
-37
-62
-31
-7
-8
12
-5
11
-14
-13
-38
-49
-49
-36
-28
-6
-13
-3
5
-28
-45
-28
-45
-17
-19
19
3
-20
-50
-23
-42
-48
-24
10
3
11
18
14
16
-1
-30
-46
-37
-5
7
34
24
8
-14
-31
-45
-33
-32
-33
-19
-19
12
10
-29
1
-34
-46
6
22
27
-1
3
16
-2
-16
-18
-2
-17
-3
9
45
31
29
24
8
-3
-12
15
24
27
37
42
50
33
33
-5
-19
46
26
58
56
53
47
19
22
6
17
32
21
51
67
70
65
45
17
-5
6
8
31
34
39
43
32
28
5
-7
-21
-11
-1
42
9
12
13
-20
-15
-32
-45
-15
3
18
27
24
1
-26
-52
-47
-36
-17
2
27
20
-12
-10
-40
-50
-49
-45
-15
-18
3
20
3
10
-4
-59
-36
-39
-39
-20
10
39
4
-13
-32
-67
-25
-11
-30
-12
2
1
6
-5
-8
-18
-24
-35
1
-18
17
13
-7
-29
-18
-41
-26
-1
7
-1
12
13
-14
-33
-35
-35
-36
-27
-30
-18
24
19
3
-12
-22
-42
-50
-47
-28
7
34
15
13
-8
3
-40
-59
-36
-21
-11
-7
11
22
-8
-2
-21
-44
-21
-6
5
11
30
-1
-34
-32
-59
-31
-29
-9
-37
9
24
-4
-25
-43
-51
-43
-24
-16
-3
-4
21
-1
-42
-53
-46
-57
-14
-3
14
25
8
-23
-18
-37
-20
-33
-18
-5
17
4
10
-6
-2
-20
-32
-33
-14
-10
3
10
-7
4
-2
-64
-35
-39
-2
14
16
10
19
2
-4
-26
-7
-7
-6
20
8
13
14
1
-3
-9
-12
11
-12
-4
33
40
11
-10
-9
-31
-25
-6
14
4
5
1
-3
-47
-36
-39
-56
-35
-24
-5
29
29
2
-26
-51
-69
-60
-37
-34
-27
3
-15
-36
-18
-34
-56
-32
-32
-23
-17
16
9
2
-5
1
-34
-52
-34
-11
-9
16
16
-33
12
-14
-18
-14
-17
13
7
8
27
48
51
61
72
124
147
166
166
147
132
101
93
67
43
27
-1
-29
-38
-25
-1
-16
-10
-63
-38
-48
-18
-20
20
38
30
2
-9
-38
-41
-53
-13
-25
-6
15
7
-34
-15
-20
-40
-36
-33
1
11
6
15
6
-8
-41
-40
-42
-38
-25
9
37
-6
-14
-21
-31
-31
-13
4
-7
-2
1
0
-7
-31
-40
-14
-38
-7
-14
35
14
-4
-15
-8
-41
-39
-4
12
-10
4
37
26
1
3
-21
2
5
-3
11
47
51
0
7
3
-56
-14
0
-3
26
51
54
46
17
20
-15
-2
14
41
47
88
74
54
26
16
0
10
20
39
57
62
56
48
36
50
51
12
21
48
38
54
54
46
58
30
23
-1
-13
30
6
36
42
36
-6
-13
-16
-14
-33
-21
5
5
23
13
-11
-44
-50
-29
-30
-21
23
26
26
9
-7
-27
-46
-38
-39
-24
15
33
40
15
-17
-20
-38
-38
-23
-7
11
-3
10
-11
-29
-24
-42
-44
-32
-21
20
10
3
-8
-21
-38
-39
-12
-17
-14
4
12
18
-9
-17
-33
-26
-37
-18
6
33
27
21
14
-14
-43
-21
-10
-30
-8
5
15
-13
-2
-7
-22
-33
-54
-1
2
18
11
-3
-7
-29
-35
-16
-26
-27
-26
25
20
10
-11
-3
-24
-16
-25
13
13
35
23
-5
1
3
-40
-55
-23
-3
11
6
12
15
-8
-13
-48
-50
-37
-9
12
-7
-2
2
-13
-32
-49
-23
-15
-16
7
-1
23
17
-9
-9
-28
-32
-28
-6
-17
28
25
16
5
-4
-53
-49
-32
-5
5
32
24
5
5
-15
-35
-45
-13
-7
9
20
16
9
-26
-38
-37
-25
-28
6
40
82
49
24
6
-31
-20
-23
-8
6
26
44
41
34
28
-19
-23
-7
-3
-1
18
16
18
23
11
-47
-38
-65
-37
-19
7
14
21
-14
-28
-46
-54
-44
-21
3
10
-8
-2
-17
-30
-36
-49
-53
-21
-24
-1
10
19
0
-17
-33
-23
-21
-12
4
21
23
1
-10
-19
-55
-42
-48
-13
20
32
14
8
-22
-9
-20
-14
24
52
88
141
140
163
157
152
107
103
82
93
116
104
85
57
-10
-50
-52
-52
-40
-34
-19
-9
17
9
-4
-9
-60
-28
-8
-8
-9
20
20
-20
-15
-44
-42
-35
-28
23
9
12
12
-16
-22
-50
-60
-49
-15
-2
-7
20
14
29
9
-23
-41
-30
-25
-26
10
1
6
-14
-31
-52
-34
-15
-11
18
-11
10
31
26
-16
-21
9
-18
-41
-22
10
6
19
7
6
-26
-24
-20
10
15
27
26
28
14
15
-7
-3
-29
-5
3
25
32
24
26
16
16
-13
-8
9
24
54
42
43
35
49
19
12
25
19
66
58
85
70
28
28
13
38
23
49
68
67
75
76
57
35
-2
12
22
25
32
49
27
40
4
5
-12
-19
-12
-11
2
20
25
17
-4
-9
-25
-19
-25
-7
-6
22
21
8
-10
-12
-47
-43
-17
-10
4
23
19
49
-25
-22
-43
-22
-33
-27
-24
23
19
-2
-19
-26
-35
-38
-32
-25
-1
20
5
18
-4
-35
-36
-54
-20
-5
-5
17
0
4
-32
-19
-53
-54
-18
14
9
19
32
3
-22
-48
-28
-36
-21
-12
-3
19
35
11
1
-27
-34
-23
-34
-17
0
11
18
2
-16
-4
-17
-39
-7
-6
18
21
-11
-19
-12
-34
-42
-40
-28
-16
-1
9
4
-12
-27
-34
-24
-11
-19
5
11
21
-16
-9
-28
-43
-39
-38
-26
-14
33
40
45
6
-40
-51
-42
-42
-13
-3
9
21
3
-24
-24
-48
-44
-29
-21
-23
11
16
-13
-6
-2
-26
-38
-33
-12
-10
14
0
-22
-13
-18
-50
-30
-49
-25
4
12
2
-22
-21
-24
-36
-65
-33
31
-14
29
15
19
3
-19
-23
-42
-40
-46
-15
7
9
2
1
-27
-45
-27
-5
-20
-4
20
20
-6
-6
-11
-25
-21
-23
-2
-1
24
35
28
16
-18
-22
-17
-21
-2
29
41
36
2
-15
-20
-27
-24
-35
-9
2
29
38
11
-37
-19
-52
-36
-4
-6
-5
0
-6
-9
-25
-31
-58
-52
-32
-16
1
7
10
-11
-12
-59
-52
-52
-38
-33
-3
-5
9
-24
-27
-30
-35
-45
-41
8
19
22
-4
-21
-9
-45
-49
-32
1
4
-17
15
3
13
2
-36
-16
11
49
66
135
168
175
167
135
96
98
79
94
81
111
85
37
-29
-84
-47
-60
-45
-32
-27
6
14
-1
-13
-21
-20
-42
-23
-14
-12
15
9
-18
-23
-12
-31
-42
-63
-29
-5
5
1
3
3
-4
-49
-39
-30
-17
-9
44
28
4
-5
9
-31
-37
-53
-33
-18
7
20
-6
3
-14
-38
-24
-13
-12
19
22
12
-3
-11
-21
-49
-39
-31
-4
12
41
38
20
-18
-14
-41
-34
-16
4
15
23
-4
28
2
-8
-21
-18
1
32
12
39
36
17
16
0
7
7
8
45
84
59
62
40
25
27
11
29
2
23
64
67
58
42
24
12
31
12
33
38
72
65
36
52
32
-2
-34
3
38
37
54
43
47
31
16
-5
-12
3
14
-3
24
31
-8
-2
1
-25
-27
-14
-11
23
5
10
-13
-22
-14
-49
-50
-24
-24
-2
1
-10
-30
-17
-7
-49
-52
-31
-1
-1
19
19
14
1
-23
-54
-52
-17
-10
-10
14
27
17
-4
-10
-40
-54
-51
-24
-22
21
24
-3
-24
-28
-24
-36
-32
-19
7
16
-5
25
-9
-6
-43
-40
-72
-19
8
-16
-1
0
0
-32
-49
-28
-15
-10
11
32
33
0
-28
-20
-37
-37
-18
-15
18
30
49
11
-14
-22
-28
-15
-28
-12
2
-2
11
-4
-25
-33
-54
-28
-35
-6
5
13
18
-13
-30
-43
-30
-32
-15
-27
5
17
14
-8
-24
-24
-39
-42
-46
-9
41
20
16
13
-3
-33
-45
-27
-35
-11
12
9
-2
-25
-21
-34
-32
-42
-17
-4
31
10
5
-21
-22
-46
-44
-45
-13
2
25
24
19
-2
-14
-75
-50
-22
-3
1
31
13
-12
-28
-17
-41
-60
-31
17
-15
27
4
-7
-20
-20
-42
-54
-30
-8
-10
28
30
18
4
-4
-31
-11
5
8
11
47
48
22
-7
8
-25
-9
-5
1
20
41
23
20
-11
-17
-40
-33
-41
-9
18
5
7
-9
-27
-49
-54
-51
-42
4
-22
10
8
11
-8
-42
-47
-49
-39
-18
5
17
-20
-7
-36
-16
-39
-30
-21
-3
13
14
-1
-18
-47
-36
-20
-28
-13
-18
0
19
9
8
-15
-12
-22
-31
-27
-22
-8
3
13
12
16
-1
24
54
96
120
142
139
132
107
92
64
60
68
61
49
33
-3
-25
-28
-30
-68
-52
-21
-11
-23
37
41
34
-4
-14
-39
-51
-34
-19
-23
1
15
14
-11
-13
-35
-39
-21
-21
-22
14
-4
-3
-18
-22
-29
-27
-49
-19
8
13
3
-7
8
-18
-51
-38
-46
-23
-9
10
31
38
18
29
-13
-43
-22
-17
3
12
26
41
-13
-15
-47
-42
-24
-5
10
7
18
3
-9
-11
-15
-7
-4
6
7
23
34
-14
4
1
-25
-8
11
17
49
54
35
38
27
17
-1
0
19
35
60
54
35
23
49
17
4
24
30
52
58
42
65
47
39
16
26
12
31
42
61
66
59
53
29
8
1
11
28
26
46
32
26
27
-8
-16
-2
1
-3
-1
17
23
12
-8
-23
-70
-38
-53
-19
2
33
40
7
-21
-43
-30
-23
-10
-36
-11
16
0
9
-2
-15
-22
-23
-32
-10
-19
15
14
0
-14
-10
-44
-22
-39
-22
-18
3
-4
-9
-17
-37
-54
-32
-34
-16
-6
14
8
2
-11
-21
-46
-40
-29
-16
16
23
26
26
0
-21
-48
-62
-11
0
-9
16
24
10
-16
-11
-30
-45
-34
-16
-8
5
1
13
-4
-11
-14
-33
-12
0
22
13
0
10
-8
-9
-42
-44
-12
-13
-15
6
1
-7
-14
-27
-31
-12
-9
-1
-4
29
25
9
-5
-42
-35
-15
-31
-38
-17
35
17
-5
-3
-24
-23
-25
-13
9
4
4
-11
-5
-10
-48
-40
-37
-21
-21
8
3
13
1
-19
-45
-42
-21
-15
-28
44
30
17
-26
0
-44
-35
-31
-4
14
30
38
33
21
-19
-32
-28
11
4
-3
32
38
25
14
18
-3
-9
-16
-30
-3
12
38
3
-8
-2
-21
-18
-22
-6
4
36
9
-2
-41
-51
-52
-42
-45
12
13
24
-6
15
-20
-16
-56
-22
-12
-16
-23
11
38
27
-29
-24
-48
-52
-38
-32
-15
4
27
-1
-26
-29
-49
-56
-32
-21
-5
-9
11
-7
-9
-18
-50
-35
-33
-4
7
26
-5
26
18
-18
-18
-17
12
58
86
131
139
153
181
164
129
108
107
95
122
120
85
43
-19
-29
-43
-43
-28
-28
3
31
3
2
-30
-41
-49
-37
-20
-2
5
13
10
-6
-7
-38
-36
-39
-40
-15
3
20
3
-8
-20
-46
-41
-27
-25
-13
40
21
23
10
-27
-45
-31
-34
-3
6
40
53
28
-18
-20
-48
-40
-15
-33
-8
18
16
23
-3
-29
-48
-25
-41
-19
24
44
24
4
25
-27
-49
-36
-15
4
14
21
19
9
10
2
-2
0
10
13
21
26
34
36
3
2
-11
-26
3
26
28
41
70
66
24
29
-7
13
44
23
30
47
46
59
58
47
4
15
35
36
62
80
62
51
27
27
2
-11
25
37
31
51
44
31
20
8
13
16
-5
10
20
24
32
1
-12
-40
-26
-20
0
0
7
34
9
-10
-4
-19
-45
-51
-15
-9
18
42
10
-15
-21
-47
-46
-40
-36
-22
-8
6
5
-5
-16
-29
-28
-23
-26
5
-1
19
15
8
-32
-44
-31
-17
-11
-23
18
20
0
0
-22
-42
-57
-50
-19
0
29
23
2
-7
-9
-37
-35
-48
-21
0
0
-8
10
-14
-15
-23
-42
-32
-29
-7
17
-5
9
20
-4
-45
-72
-38
1
9
8
8
10
-2
-20
-30
-26
-38
-21
2
13
10
3
-10
-3
-32
-43
-36
-14
8
18
11
8
-7
-23
-45
-57
-33
4
-10
-6
3
-22
-16
-22
-44
-32
-9
0
-4
16
16
3
3
-19
-45
-46
-14
-29
-15
23
20
20
-14
-27
-27
-43
-32
5
4
15
17
13
-15
-29
-51
-64
-38
-26
2
-5
-2
-10
-16
-33
-62
-46
-22
-6
2
24
11
17
-10
-20
-27
-25
5
19
20
38
58
21
-8
-22
-2
-15
8
2
31
38
25
22
3
-25
-46
-17
-13
-11
5
19
12
1
-25
-37
-19
-36
-48
-27
1
3
2
-13
-23
-50
-40
-33
-27
4
17
5
-13
2
-17
-53
-58
-19
-20
-38
17
8
-4
-22
-13
-65
-66
-45
-6
-21
4
17
-2
-21
-25
-53
-41
-37
-13
6
21
-3
3
9
-4
-30
-40
-37
-22
-9
12
15
22
43
72
75
116
136
178
198
174
146
121
96
96
54
32
36
-2
-36
-1
-14
-29
-27
-44
-41
-12
-21
-10
18
7
11
8
-18
-42
-43
-37
-21
-31
-8
-9
3
0
-15
-45
-59
-36
-32
-28
9
33
7
-8
-28
-31
-41
-32
-29
-22
-18
-21
6
6
-6
-34
-49
-29
-5
16
25
24
7
-28
-32
-53
-29
-21
-31
-8
22
28
14
4
-26
-29
-28
-18
-15
2
35
4
18
-6
-13
-23
-8
-27
-20
12
32
37
15
18
-3
-52
0
-5
11
0
41
64
14
35
14
3
2
5
27
42
56
45
55
29
25
6
27
32
36
47
80
72
57
42
28
7
-4
31
47
26
61
72
63
55
30
1
-1
0
2
-12
16
39
25
5
-6
-12
-29
-3
-1
-8
27
34
18
-8
-10
-46
-45
-27
-17
-10
8
10
-1
-8
-23
-43
-40
-25
-18
-9
8
9
-4
-20
-29
-40
-41
-46
6
23
5
14
10
-33
-18
-47
-51
-27
5
20
-7
-4
8
-5
-39
-31
-38
-24
-18
9
20
-11
-17
-13
-46
-49
-46
-23
-5
10
10
7
5
-20
-33
-31
-42
-39
-27
-18
36
27
-7
-6
-50
-40
-22
-35
0
24
17
10
-27
13
-20
-32
-25
-40
-13
-3
27
9
-6
-28
-52
-29
-19
-6
1
19
8
5
-16
-22
-42
-42
-38
-39
-41
23
20
-6
-24
-22
-31
-15
-12
-1
-49
2
22
7
10
-37
-54
-49
-34
-30
12
11
16
9
-23
-24
-40
-45
-30
-11
-1
12
8
22
12
-29
-34
-48
-34
-35
-24
9
0
-13
-16
-39
-44
-32
-15
-8
-39
5
5
-4
-12
-18
-15
-39
-15
-3
-24
-7
10
-20
-34
-18
-30
-53
-19
8
-9
13
45
2
-14
-14
-20
-23
-4
23
4
18
29
13
18
2
-24
-20
-30
0
17
11
16
8
-9
-11
-4
-2
-8
-5
12
1
1
-2
-41
-52
-44
-37
-48
-22
11
1
8
-8
-3
-61
-34
-45
-21
-9
15
10
-1
-22
-25
-37
-53
-41
-14
-32
1
4
7
4
-15
-49
-41
-44
-51
-9
-2
-9
-4
-11
-33
-58
-49
-28
-18
-12
5
18
17
-33
-50
-59
-31
-10
9
7
64
97
110
132
140
134
147
146
117
107
134
124
105
70
48
-5
-38
-55
-40
-35
10
-3
-2
0
-27
-39
-58
-32
-10
-26
7
18
0
-15
-23
-46
-41
-22
-40
-14
15
-1
-1
-18
-22
-43
-36
-45
-27
-17
7
-1
-6
-12
9
-41
-50
-35
-15
20
34
23
13
-28
-20
-47
-42
-22
-6
-4
6
29
4
-11
-24
-55
-21
-2
13
13
18
1
-13
-8
-9
-45
-34
-5
7
12
19
4
-4
28
-20
-37
-14
-19
0
20
41
17
-7
26
-8
-23
2
16
31
45
54
39
32
35
11
9
21
15
30
78
88
62
43
37
10
17
36
42
47
68
59
78
54
19
7
7
9
15
36
44
49
32
21
48
-25
-14
-28
14
2
21
27
24
11
12
-13
-36
-29
5
14
35
9
20
-20
-13
-40
-27
-32
-32
-4
38
36
3
-22
-24
-29
-36
-37
-17
-9
-2
13
-18
-25
-30
-35
-74
-59
-30
12
18
-26
12
-16
-12
-58
-30
-18
-14
0
29
3
-24
-21
-25
-39
-50
-23
-6
4
31
42
12
0
-17
-34
-36
-23
-12
5
9
9
4
-33
-43
-45
-47
-30
-2
10
29
18
-3
-19
-44
-60
-43
-37
-4
6
14
19
6
-32
-27
-11
-17
-22
-7
24
36
29
30
-19
-24
-46
-33
-16
-9
7
10
11
-10
-33
-45
-37
-21
-11
-9
16
31
3
2
-14
-39
-21
-47
-27
-15
-6
-22
9
0
-26
-42
-54
-38
-28
9
15
24
9
8
-5
-29
-44
-38
-3
-2
37
27
13
-7
-36
-55
-48
-27
-19
1
11
29
11
-32
-21
-44
-24
1
-14
-15
20
13
5
-7
-29
-41
-53
-35
-4
-2
34
50
44
23
12
-25
-8
-2
-12
22
37
43
38
9
-12
-39
-18
-2
-17
19
8
13
4
-12
-15
-47
-38
-14
-16
7
11
14
-7
-22
-36
-63
-48
-30
-14
12
6
5
-7
-42
-34
-45
-23
-36
-23
-3
26
18
1
-6
-56
-75
-53
-21
-6
4
12
-8
1
-15
-40
-51
-39
-39
-20
16
10
16
15
-12
-28
-20
-4
-17
-13
6
33
49
49
46
69
100
107
133
147
146
149
85
73
80
60
40
-8
-36
-33
-20
-5
-8
-26
-20
-38
-34
-34
-15
-6
14
4
-9
-11
-24
-56
-45
-20
4
-1
9
14
3
-6
-28
-49
-23
-34
-33
-9
10
16
-3
-6
-6
-45
-44
-24
-18
-4
9
11
11
-10
-19
-31
-53
-47
-34
-4
10
7
2
5
14
-50
-52
-30
-3
0
18
23
13
-19
-26
-22
-39
-5
9
13
24
29
25
12
-4
-24
-32
-16
-17
4
38
33
14
-19
-5
-7
7
11
6
32
42
44
42
26
5
-12
-9
24
46
72
52
57
35
28
27
21
17
24
9
55
88
66
65
29
26
26
40
49
47
45
47
78
38
6
-1
5
14
-12
29
32
39
41
11
-14
-13
-21
-10
-8
-22
17
8
12
5
-19
-34
-43
-37
-17
-14
-22
-14
-11
-17
-17
-32
-23
-31
-18
-7
18
16
4
-6
-8
-41
-35
-37
-24
-21
27
32
23
-17
-19
-43
-26
-28
-37
-29
11
11
-3
-13
-26
-45
-44
-31
-32
-21
-2
-9
-14
-22
-19
-41
-49
-65
-20
-8
29
18
7
1
-18
-41
-35
-24
-32
-13
16
23
20
-7
-17
-43
-33
-34
7
18
11
12
-3
9
-7
-42
-45
-13
-13
1
42
18
-27
-45
-45
-55
-53
-30
-3
-2
11
25
-4
-15
-30
-52
-51
-20
-11
5
26
6
-18
-25
-24
-30
-36
-3
-11
-2
3
13
0
-13
-33
-54
-59
-14
3
-8
-14
-4
-10
-12
-32
-52
-41
-32
-14
2
11
17
-9
-2
-36
-32
-63
-45
-26
29
6
-3
-6
-12
-26
-44
-14
4
9
0
7
0
-19
-22
-48
-33
-44
-33
-11
17
-1
2
-20
-30
-52
-38
-35
-16
-27
16
30
-25
-24
-12
-27
-2
-42
-25
2
9
4
12
-13
2
-8
-22
-5
30
12
52
39
30
4
-10
-22
-16
-27
-10
1
37
26
11
4
-17
-16
-13
-41
-50
-5
16
24
-8
-5
-33
-67
-67
-53
-20
-3
31
4
-1
-10
-8
-42
-56
-45
-17
-10
6
-5
9
-15
-27
-51
-48
-16
-32
-29
3
11
-5
-8
-35
-30
-60
-20
-11
-4
-8
10
-22
-47
-55
-43
-46
-8
-3
14
27
19
29
-2
-23
-24
-16
37
77
149
156
174
188
173
108
70
72
97
110
100
93
71
9
-16
-60
-56
-41
-13
-6
-30
6
-1
-1
-13
-56
-46
-36
-29
-14
-4
20
12
-11
-20
-40
-30
-48
-46
-47
0
-3
-3
6
-10
-39
-20
-33
-39
-24
8
5
10
-17
-29
-53
-44
-41
-36
-20
30
22
12
6
1
-37
-25
-21
9
4
9
1
1
-9
-6
-26
-40
-30
-13
-18
18
6
24
3
-12
-53
-41
-7
-30
-8
24
37
13
-11
-17
-26
-16
-7
-3
5
35
41
24
22
-5
-9
-24
-2
41
36
42
61
52
39
13
-10
0
21
42
64
109
57
43
47
44
-6
3
3
28
61
35
48
64
34
14
2
14
11
32
59
89
41
16
22
-37
-33
-4
-18
0
18
35
25
20
4
-34
-34
-37
-17
0
18
8
8
-2
-27
-38
-22
-27
-12
-25
-10
-4
-4
-2
-23
-48
-53
-35
-19
2
8
12
3
10
-21
