-15
-20
-26
-23
-24
-21
-17
-13
-1
-12
-19
-24
-24
-26
-29
-30
-25
-17
-14
-16
-15
-20
-26
-23
-24
-21
-17
-13
-1
-12
-11
-16
-13
-17
-21
-15
-9
-5
4
-1
-3
-4
-6
-8
-12
-6
-3
2
9
5
9
4
-3
-1
-4
-2
6
9
14
11
9
10
6
5
-3
7
12
16
19
15
14
15
10
10
6
10
16
17
24
19
20
15
12
10
9
12
18
22
26
22
22
19
16
19
11
14
21
29
28
23
21
15
10
20
18
19
28
31
34
26
27
21
21
21
13
19
23
34
33
29
30
26
25
20
18
23
33
39
37
35
33
31
30
23
18
26
31
42
36
37
33
32
30
25
28
35
40
43
41
38
37
33
33
28
27
33
38
43
43
45
42
36
34
27
34
42
47
52
46
46
42
41
36
33
37
42
46
53
48
47
45
46
38
34
36
43
52
56
53
48
45
40
44
40
40
48
51
56
53
55
48
41
43
45
42
48
59
67
61
57
57
57
53
48
53
60
66
72
73
65
66
65
62
58
66
77
80
80
85
81
74
75
73
71
69
77
83
83
77
76
70
67
65
59
62
68
75
70
62
61
59
54
56
52
54
59
64
68
68
66
53
48
49
48
55
60
67
65
63
63
57
50
51
52
53
64
70
67
63
60
59
56
49
46
53
56
59
53
53
52
52
54
60
71
82
100
116
122
132
137
145
160
164
164
150
134
119
82
47
20
0
4
-2
3
5
10
21
17
16
23
31
31
33
44
54
61
67
64
62
61
59
58
53
53
62
66
76
72
69
68
64
65
59
63
63
72
77
76
75
75
69
68
63
67
73
78
80
75
77
72
64
73
70
65
81
85
83
83
80
78
74
74
76
76
82
89
91
85
85
85
82
80
75
82
92
97
98
96
99
94
93
94
89
96
101
106
111
111
113
109
109
113
111
112
122
127
129
128
134
129
127
128
128
132
144
147
140
145
147
142
144
140
133
145
151
156
146
142
141
142
138
134
133
138
135
140
134
130
129
125
122
119
115
119
124
128
124
120
113
106
99
95
94
98
98
101
99
98
95
89
86
81
78
87
86
95
88
90
89
86
80
78
75
83
90
91
89
85
82
81
80
76
80
86
89
93
88
89
86
86
84
80
81
87
93
91
91
90
87
85
87
76
84
84
90
92
92
89
89
82
82
76
83
92
94
96
92
89
88
85
84
79
82
89
105
101
96
86
85
81
80
78
83
88
93
92
91
89
82
81
80
76
81
87
93
92
88
84
82
82
79
79
82
89
92
87
84
84
86
77
74
69
78
88
97
87
84
91
85
76
78
73
86
89
91
85
85
83
78
78
69
78
84
86
91
89
85
84
79
80
76
80
81
85
92
85
87
86
82
78
75
79
84
84
90
87
81
83
79
80
78
78
83
87
90
87
88
83
83
81
75
79
84
87
90
88
86
85
80
79
76
79
85
85
92
91
86
81
83
82
74
76
83
83
90
91
86
78
82
84
78
78
83
89
90
87
89
82
76
80
75
81
88
95
93
90
87
81
79
79
73
77
84
92
93
89
87
83
79
77
78
80
85
93
95
92
88
82
83
87
82
91
97
95
92
96
97
91
93
95
93
97
104
115
108
106
106
104
105
102
100
103
106
114
109
108
105
102
100
95
93
94
97
104
99
97
92
88
85
77
77
85
90
93
89
85
86
80
76
75
76
80
89
94
85
83
84
78
76
71
74
81
86
91
87
83
80
79
77
65
72
77
86
91
85
79
76
71
67
62
68
78
88
103
110
119
122
131
139
145
155
176
189
195
182
156
140
107
66
37
22
24
28
31
28
22
22
20
26
29
40
50
63
74
71
74
71
65
70
70
71
78
84
86
82
82
72
66
79
80
80
84
89
89
87
87
79
76
79
78
79
88
95
90
87
91
85
83
78
79
86
94
99
92
89
93
87
83
81
82
88
95
101
99
94
97
91
92
89
85
90
99
106
107
104
97
95
95
95
99
105
113
119
110
117
114
106
110
101
106
121
126
133
132
131
131
130
128
127
131
136
143
149
149
146
146
146
144
139
143
151
152
161
153
151
148
144
142
137
140
147
151
153
147
152
135
131
131
127
125
125
128
128
118
114
112
110
109
104
102
106
108
106
102
100
93
94
90
83
88
88
97
97
93
89
85
84
79
74
78
86
91
93
85
85
80
78
80
74
77
84
93
90
84
80
79
76
76
73
77
81
95
92
86
88
81
79
79
73
82
94
97
91
88
87
84
80
80
78
84
88
95
89
86
85
76
73
73
72
76
89
93
94
94
92
85
82
75
79
85
89
97
90
87
84
81
77
72
73
82
83
87
84
79
80
79
78
77
77
81
80
84
83
83
77
76
71
69
76
84
86
95
88
82
79
77
73
72
73
81
82
87
84
82
79
80
72
68
74
78
83
86
83
78
78
75
71
69
73
80
83
87
82
80
76
72
74
70
72
79
85
87
85
80
75
75
72
65
70
76
79
85
84
85
77
74
72
72
77
82
86
92
79
76
78
76
75
74
77
86
92
92
86
83
78
74
74
72
78
87
90
87
85
80
76
78
75
73
79
85
81
88
80
84
77
73
74
70
77
85
89
86
84
83
77
73
69
70
81
90
99
91
90
87
85
82
75
81
87
94
100
95
95
92
86
89
85
88
96
102
108
100
99
97
92
90
85
88
92
94
107
97
88
85
80
71
66
70
77
75
81
78
69
69
66
65
61
61
68
72
74
67
67
69
69
62
62
63
67
72
78
76
68
61
61
61
54
58
66
66
70
68
70
62
58
57
49
54
57
61
63
59
64
63
68
82
81
99
117
127
137
141
156
166
162
150
129
114
95
65
37
12
4
1
-3
-2
-8
-1
7
19
27
33
36
37
40
46
43
50
58
63
64
56
58
53
53
52
53
52
59
70
69
58
57
62
56
54
56
63
67
68
67
70
67
59
61
62
62
64
75
70
68
69
71
74
67
58
62
71
80
81
77
77
77
71
65
64
67
68
79
85
82
77
76
71
73
71
77
83
91
91
92
90
91
85
85
79
87
93
99
104
103
103
100
104
101
98
107
114
120
127
125
120
120
118
119
114
124
135
143
142
134
133
128
133
134
119
132
141
139
145
137
136
130
123
116
114
115
123
123
123
115
114
106
100
97
91
93
98
100
100
90
88
77
77
73
70
75
82
90
79
79
69
69
65
67
61
64
73
78
74
71
61
62
59
58
58
68
66
74
73
72
69
64
59
60
62
65
74
77
71
72
68
64
63
61
62
67
70
77
70
71
70
67
66
57
60
66
72
76
67
71
69
66
65
60
65
70
72
79
70
70
67
65
62
62
64
69
69
70
68
66
65
63
61
58
63
65
72
77
72
69
63
70
60
55
61
68
69
74
69
66
65
63
60
54
58
63
67
75
70
66
65
64
59
54
57
65
68
72
65
65
61
57
55
58
58
64
70
70
68
67
62
59
61
56
58
65
71
67
61
66
60
56
60
53
60
68
72
71
64
70
65
60
57
54
56
66
67
65
64
63
56
54
55
51
59
65
69
66
65
65
65
51
44
51
56
65
70
69
66
64
60
58
53
59
64
69
75
79
78
73
67
68
61
60
63
70
82
78
79
76
74
73
68
79
82
89
94
93
88
84
83
79
72
78
82
88
93
87
81
74
77
70
61
63
70
71
75
67
64
66
64
57
49
57
61
61
65
62
58
57
56
53
45
48
52
59
63
58
57
55
57
51
48
50
54
59
66
60
57
54
48
48
43
42
47
55
55
51
53
45
56
66
76
88
109
127
141
144
152
161
169
161
140
126
106
77
45
20
5
0
0
-6
-13
-11
0
8
12
19
27
26
30
36
35
41
54
63
58
59
55
51
49
48
46
54
63
68
63
63
59
55
54
48
54
61
62
74
68
60
57
59
58
53
57
67
73
68
71
68
64
65
62
58
60
69
74
80
77
74
69
69
67
61
66
72
79
86
83
80
78
80
72
65
69
73
87
93
92
88
85
85
85
80
86
93
101
107
103
103
102
104
98
98
107
115
121
122
118
126
123
123
121
118
124
131
137
142
139
138
134
132
132
128
131
137
142
146
139
134
127
124
122
115
116
125
127
125
118
111
105
104
99
94
95
99
104
100
96
93
83
79
77
70
76
82
86
76
75
80
67
67
64
60
67
77
81
79
76
72
66
65
64
68
68
72
80
77
74
67
67
64
59
62
68
73
80
74
73
72
67
66
63
61
67
79
83
79
75
74
70
60
68
67
68
73
72
77
75
73
66
66
62
64
75
74
77
81
77
71
67
66
58
63
68
77
82
79
75
71
68
67
62
65
71
75
81
75
73
65
71
62
59
60
65
65
76
73
71
68
62
58
57
59
71
74
75
67
67
63
60
63
58
61
66
74
75
67
71
62
62
62
59
64
70
73
74
66
67
62
58
58
54
58
65
72
78
70
67
61
60
61
55
61
66
74
74
71
68
62
60
61
58
66
76
86
75
77
74
70
63
64
69
70
77
87
85
84
83
86
83
79
78
86
90
95
89
88
87
82
80
75
72
88
88
89
86
79
76
74
65
56
62
63
68
77
69
67
68
59
57
52
55
63
68
72
65
60
62
55
55
49
54
61
58
64
61
64
60
57
55
48
55
58
63
65
68
55
56
51
47
41
40
46
53
66
71
81
87
94
105
103
121
135
151
172
169
154
134
113
80
40
18
3
5
5
3
0
-6
-10
-5
-7
6
17
33
38
43
52
45
42
39
44
53
57
62
63
57
58
56
51
55
51
54
61
67
69
59
64
59
58
57
54
59
67
75
70
66
64
61
62
59
58
63
75
81
76
69
65
63
63
61
57
67
75
77
75
73
69
68
70
64
62
73
82
83
82
86
82
79
75
72
75
84
89
94
91
91
90
86
83
85
92
102
105
108
109
113
108
106
110
107
115
119
126
132
127
126
126
125
124
122
127
129
141
145
141
135
133
132
128
124
127
129
129
133
130
123
119
113
106
101
103
107
109
109
102
97
94
90
83
76
79
85
87
89
82
77
74
72
71
66
68
72
78
76
70
70
64
61
62
54
55
62
76
73
70
72
61
59
60
53
61
70
75
73
71
69
64
60
59
55
59
64
71
73
71
71
70
64
56
58
68
72
76
71
71
70
66
63
56
59
65
65
74
76
75
63
64
64
56
56
61
71
75
71
71
66
60
60
58
62
63
65
73
67
67
62
60
59
54
55
64
65
69
63
62
55
56
59
53
57
61
60
66
63
64
58
57
53
47
52
55
65
68
67
66
61
53
54
50
53
59
62
66
66
63
57
55
57
48
51
55
59
71
68
61
57
55
53
51
54
61
64
66
63
59
55
53
57
50
51
59
66
69
62
64
58
58
58
55
59
68
72
71
67
67
58
60
64
63
69
80
82
86
86
87
77
77
76
73
77
85
90
86
84
81
76
73
71
66
71
74
78
73
68
67
59
55
52
48
55
61
68
63
59
57
54
52
50
53
53
56
64
62
60
53
54
50
43
45
52
58
66
60
58
55
50
48
44
47
52
54
56
51
46
43
40
37
35
50
68
79
92
99
110
108
127
130
139
156
166
156
139
113
84
46
14
-9
-17
-9
-1
-1
-3
-2
-2
0
9
14
16
26
39
44
54
53
53
52
49
46
40
44
56
59
62
58
57
52
46
41
45
49
56
64
67
67
63
61
55
53
50
55
62
63
68
66
64
57
56
55
53
55
60
67
69
68
71
63
58
66
58
64
70
79
75
73
72
68
67
65
69
74
81
84
79
82
79
74
76
73
72
79
89
97
92
90
94
90
90
91
93
101
107
114
111
115
111
115
108
109
113
120
126
133
124
124
130
126
123
119
123
127
136
142
133
131
128
125
123
117
117
121
125
125
119
119
113
107
101
91
94
96
100
99
96
96
90
86
80
74
77
81
80
84
76
74
71
67
65
58
61
65
71
74
69
68
64
60
56
56
62
61
64
76
68
62
63
64
62
53
60
67
70
71
70
67
62
59
60
56
62
70
76
74
71
70
64
57
63
61
70
74
77
73
70
71
66
62
63
57
66
70
75
75
70
67
62
65
61
58
64
72
76
67
72
71
66
60
58
55
64
69
76
71
72
66
61
58
57
62
66
68
72
68
68
64
61
57
57
57
68
68
70
66
71
62
59
55
49
54
64
66
70
70
64
60
64
60
51
53
60
66
74
65
64
62
55
54
51
54
61
66
69
61
68
65
61
63
61
67
72
77
74
69
67
73
71
70
63
67
73
81
88
83
80
83
79
76
76
79
83
83
89
84
84
77
74
74
67
71
73
76
77
74
69
64
60
56
49
54
63
67
67
67
67
60
53
54
49
54
64
60
65
63
60
52
48
51
47
53
59
65
63
55
60
56
52
45
45
49
57
62
55
50
49
41
35
28
36
44
54
81
84
97
98
101
112
120
127
145
159
156
142
122
99
66
33
0
-9
-8
-3
7
-2
-2
-6
-7
-6
-1
8
22
32
44
46
47
44
44
45
39
41
51
63
65
60
57
60
54
50
47
49
56
60
66
60
61
59
58
55
49
54
62
67
73
65
60
60
61
52
57
61
65
66
73
68
66
66
63
58
56
59
68
75
74
71
73
68
69
64
61
71
77
81
84
77
78
73
74
76
70
76
85
92
90
93
92
86
87
87
83
92
108
107
116
112
112
106
110
109
106
111
122
131
130
132
134
127
122
121
119
124
129
137
137
119
126
125
121
122
114
115
123
126
120
116
111
103
96
92
90
94
100
101
91
86
83
79
72
65
64
70
78
75
71
71
71
64
63
52
56
61
63
66
62
59
58
53
51
43
46
53
60
65
63
61
59
55
55
53
52
58
61
65
62
60
56
53
52
48
54
60
65
66
59
58
59
55
46
44
59
60
61
69
67
62
60
58
56
52
56
63
66
72
64
56
56
55
53
47
51
54
54
63
63
62
58
56
55
48
58
56
68
70
61
57
49
50
53
47
50
58
62
60
56
56
54
50
51
42
54
60
63
63
55
56
49
43
43
42
49
54
59
57
56
55
51
45
42
42
46
52
57
55
51
48
48
44
39
39
50
54
60
56
53
55
49
45
41
44
50
55
61
57
54
53
45
42
42
41
43
51
57
55
51
48
51
54
43
48
52
56
63
60
56
51
46
50
48
51
63
63
72
63
58
65
70
67
69
68
69
71
73
70
66
65
65
61
58
62
67
69
72
65
61
57
52
46
40
47
46
51
57
52
50
47
46
41
34
35
48
53
50
45
51
39
38
39
31
33
40
49
51
48
47
37
34
32
31
37
45
51
49
42
34
28
26
24
21
27
40
43
53
65
73
79
83
94
102
113
130
154
161
151
128
107
76
45
10
-8
-11
-7
-9
-18
-11
-15
-18
-19
-16
-2
15
28
28
32
31
26
27
27
27
34
38
44
37
42
46
38
34
32
34
41
44
50
46
46
46
37
34
33
40
45
51
57
51
48
46
44
40
31
40
44
48
58
58
52
48
46
47
38
41
49
53
57
59
56
53
47
45
43
52
56
59
65
59
55
61
57
58
50
54
65
69
72
72
67
71
67
68
67
71
80
87
92
91
92
87
86
88
86
91
100
109
109
107
106
104
103
102
98
107
114
119
116
112
115
111
107
105
101
104
106
111
108
107
106
96
94
86
80
82
82
89
83
81
68
72
70
61
58
63
66
69
63
59
58
53
48
41
44
47
57
56
50
52
49
43
38
38
42
45
50
54
49
42
43
38
39
34
35
46
49
50
45
43
44
42
39
31
33
46
49
53
49
46
45
41
39
40
37
40
48
53
46
52
48
45
37
34
44
49
53
57
53
52
48
48
44
32
40
47
52
54
48
57
44
44
40
34
38
47
50
52
49
43
44
43
41
36
38
43
48
53
45
44
44
41
39
34
36
44
50
53
42
48
40
38
35
29
32
40
46
46
40
43
37
38
35
29
29
41
50
49
44
45
38
32
36
32
37
42
50
46
47
44
34
31
28
31
40
44
50
45
39
34
34
31
34
30
37
43
44
42
43
38
38
29
33
36
42
50
56
52
47
44
42
39
33
35
45
51
54
57
53
50
54
54
48
50
55
64
69
63
62
56
47
51
46
52
56
57
60
58
52
50
44
43
35
39
41
43
46
41
40
35
34
33
26
30
36
38
45
39
34
29
26
29
18
27
34
30
42
40
34
26
29
29
20
28
35
43
40
38
34
25
16
22
18
19
20
27
30
32
37
43
53
58
66
80
100
113
120
132
146
143
126
107
85
64
34
9
-9
-21
-24
-29
-34
-27
-29
-25
-16
-13
2
5
6
11
12
16
14
21
30
36
34
25
27
30
28
27
25
27
37
42
36
37
33
34
31
27
26
37
40
42
41
40
38
38
33
30
28
35
45
51
44
40
35
34
35
30
39
44
53
55
49
39
36
42
44
38
38
41
51
55
52
53
51
46
46
44
47
53
59
63
62
60
59
59
55
54
61
72
78
83
80
76
74
74
75
71
79
85
94
101
98
97
98
98
96
93
101
107
106
114
112
109
107
105
105
96
101
105
107
111
107
105
99
92
86
76
84
86
88
85
78
76
69
63
59
58
57
60
66
60
55
58
47
43
44
38
42
45
46
50
46
44
38
35
32
29
36
41
46
43
35
40
31
30
28
25
23
36
52
42
40
33
30
28
28
26
36
38
43
40
40
38
37
39
30
33
39
39
37
40
40
40
36
34
30
32
38
43
48
44
43
39
39
36
27
36
41
49
51
42
41
40
40
34
28
30
37
43
46
40
37
37
36
28
31
38
39
45
48
40
38
34
30
30
26
32
33
38
41
40
37
33
30
25
28
35
39
38
46
40
35
31
34
28
22
27
35
37
40
35
38
30
25
27
27
31
33
38
37
34
33
31
27
26
24
28
34
40
39
37
33
31
27
26
21
28
35
38
41
36
37
29
26
29
20
24
33
35
36
33
26
22
30
32
32
36
39
47
48
45
39
33
30
29
24
31
41
55
48
47
43
41
41
45
47
53
56
59
57
54
50
48
43
41
41
50
49
59
55
49
43
38
35
31
33
34
41
44
36
35
28
28
29
27
26
31
34
37
32
32
30
26
21
18
18
25
28
38
34
31
21
21
24
22
22
24
29
35
29
27
25
23
18
12
12
18
19
29
20
18
24
25
34
37
52
71
83
92
100
106
122
132
131
115
101
89
68
28
-6
-22
-33
-30
-34
-41
-34
-29
-22
-15
-7
-7
-3
-1
7
8
13
24
32
29
29
19
15
17
17
13
16
31
34
30
31
28
24
21
20
18
26
32
38
34
32
39
30
28
28
19
25
36
40
39
38
34
29
29
25
28
34
38
43
41
40
32
28
27
27
38
44
42
47
47
49
42
40
39
36
38
45
50
55
54
54
49
44
45
46
49
57
62
68
66
66
69
68
65
63
66
76
82
90
86
89
87
84
81
82
87
96
101
107
103
102
99
97
93
91
96
100
107
108
102
102
91
87
87
80
79
81
85
89
82
74
68
64
61
56
55
58
61
63
57
57
45
42
39
33
36
37
47
49
43
39
32
31
30
23
28
33
40
39
35
34
28
26
26
21
27
32
43
43
36
30
27
24
18
20
21
31
38
36
33
32
28
26
23
23
26
32
43
39
35
35
34
30
25
26
32
37
44
40
38
34
32
29
25
28
36
44
42
35
38
34
30
30
24
24
34
38
43
40
36
36
31
30
26
28
33
39
43
40
38
42
34
23
21
27
33
35
39
35
35
33
28
26
21
26
32
36
41
40
35
24
23
24
21
27
32
40
35
42
34
30
27
24
15
22
28
33
37
34
31
30
26
24
17
15
31
37
36
33
31
34
26
26
20
27
32
38
37
35
30
31
29
21
17
25
30
35
34
32
26
25
24
19
20
25
33
38
35
35
33
27
21
22
19
21
36
37
36
34
31
32
25
24
18
23
30
37
31
32
25
22
26
26
28
32
32
38
38
36
34
30
27
25
29
37
41
46
39
36
35
32
34
34
34
37
48
56
49
40
41
46
43
44
50
54
56
58
55
57
53
51
44
36
37
49
53
52
45
46
40
38
29
30
31
31
37
45
36
33
28
26
25
19
24
29
34
35
31
32
31
29
25
15
21
28
30
38
37
25
26
26
25
15
20
31
30
36
34
27
19
18
15
6
14
24
27
31
33
43
49
53
66
72
84
103
119
133
142
147
132
109
93
65
35
12
-6
-20
-23
-23
-30
-34
-38
-39
-31
-11
1
6
6
9
15
15
14
14
19
29
38
34
30
26
20
20
18
25
24
29
39
38
34
32
25
26
25
24
36
38
43
42
38
37
31
29
27
32
37
42
47
41
38
39
34
30
30
32
38
43
52
42
41
44
43
41
31
41
44
46
56
49
46
45
46
44
42
41
47
61
64
59
61
56
54
55
55
59
67
72
76
74
75
76
77
73
69
79
86
93
100
100
101
95
94
92
89
94
104
109
114
110
107
102
101
100
94
95
104
112
116
107
94
98
91
90
77
82
86
91
89
81
79
68
64
67
56
57
59
73
62
59
56
50
47
40
36
44
51
55
50
50
43
40
35
33
26
37
42
46
45
40
37
35
33
29
28
32
40
46
40
38
41
38
26
24
27
36
38
46
44
39
34
34
30
34
34
38
41
45
40
43
36
37
38
33
36
39
45
50
43
39
39
42
38
32
31
43
44
50
44
43
44
41
34
30
35
42
48
53
49
41
37
37
34
32
29
42
48
47
43
39
40
38
35
28
29
38
41
44
42
40
38
35
33
26
31
34
42
43
40
39
36
35
37
30
31
35
42
42
39
39
34
30
29
26
31
38
40
39
41
39
32
33
29
23
26
39
44
42
38
36
33
29
26
26
35
38
40
33
41
41
31
29
28
29
33
36
43
37
36
33
28
28
28
27
31
37
46
42
40
37
35
33
34
37
40
44
51
44
44
39
40
38
35
40
46
49
52
52
54
54
52
50
46
50
55
58
60
58
54
47
44
43
37
44
55
50
50
42
41
38
37
35
30
30
30
33
40
38
39
33
27
23
25
30
33
32
36
33
33
28
27
23
16
23
28
31
34
29
27
30
26
22
20
22
25
31
34
31
26
15
15
17
7
10
17
25
33
41
47
51
61
72
74
88
102
118
135
139
128
103
94
63
29
-1
-16
-22
-22
-22
-25
-35
-41
-37
-42
-28
-8
5
5
12
13
10
13
12
10
16
23
28
29
32
28
19
15
14
14
23
32
39
31
32
30
29
25
22
23
29
35
43
36
35
31
26
26
24
26
34
39
40
42
39
37
34
28
27
29
36
42
46
47
39
40
34
34
30
32
39
47
48
45
47
48
42
43
38
39
49
56
61
57
56
53
52
56
52
53
61
70
78
73
76
74
71
74
72
77
84
92
99
97
95
91
93
95
90
96
99
103
112
106
103
104
99
99
95
93
105
108
106
101
96
86
85
78
70
74
82
84
84
76
73
66
60
56
48
50
56
59
55
53
49
42
38
42
32
31
47
45
44
42
42
37
32
31
24
31
38
41
39
39
34
30
32
28
27
29
36
40
35
32
33
31
27
25
24
34
37
42
38
38
35
33
28
24
26
33
44
45
40
45
37
31
32
29
33
38
43
45
43
41
41
36
36
30
34
35
38
54
44
38
40
37
35
31
34
38
43
47
46
41
40
39
37
30
36
39
42
45
42
38
36
37
31
27
34
39
40
45
44
41
37
32
34
27
33
40
38
42
40
40
32
34
31
28
31
37
43
45
40
39
34
34
33
27
35
40
46
43
41
38
28
30
31
26
34
37
48
42
38
37
31
30
29
27
30
37
39
37
40
37
32
31
30
24
31
34
44
40
39
38
29
26
29
24
34
34
44
38
41
39
34
24
27
29
35
40
42
37
39
34
29
29
25
23
33
36
42
40
36
38
33
30
26
25
32
42
50
44
39
38
37
34
30
33
38
44
51
49
49
46
47
49
42
44
54
58
62
64
58
54
51
47
45
46
52
57
60
58
55
49
43
44
39
37
40
48
52
40
40
33
35
29
30
31
38
38
42
40
35
31
27
29
25
27
35
38
37
34
32
28
26
28
21
27
34
38
37
35
35
29
26
26
20
19
29
35
35
24
24
19
24
32
30
48
58
79
79
82
99
107
113
129
135
137
126
113
86
54
20
-8
-23
-26
-22
-23
-21
-17
-19
-19
-14
-9
-4
-1
4
14
23
34
31
29
27
27
19
15
25
29
33
37
37
35
28
29
30
22
29
36
37
42
36
37
31
36
33
32
32
37
43
46
42
40
39
36
35
34
36
41
47
47
44
45
42
40
37
35
38
45
49
51
49
49
43
42
42
38
45
52
52
56
59
55
52
51
51
45
51
58
66
71
70
66
67
69
68
65
66
78
82
88
90
88
83
86
90
88
94
104
108
112
108
108
102
101
103
100
102
112
112
116
110
109
104
99
101
91
94
102
101
101
95
90
89
79
76
69
72
72
81
75
68
62
62
54
50
49
47
57
62
56
52
48
43
38
38
40
43
43
51
46
40
41
36
33
31
32
36
36
40
40
42
36
38
29
27
31
35
43
48
42
38
36
31
33
25
26
38
43
43
44
43
38
34
35
28
34
39
46
49
46
40
40
38
35
30
33
43
46
52
47
45
41
43
41
35
34
41
45
51
45
43
44
42
38
31
41
41
45
49
45
42
38
36
34
29
34
38
44
42
37
43
42
35
36
30
35
42
47
45
42
42
34
34
30
29
32
41
45
49
42
37
33
29
29
25
30
41
47
41
34
38
35
30
29
27
37
40
47
44
37
38
34
27
23
26
33
40
46
41
42
36
35
32
25
31
36
38
43
42
35
36
30
25
22
28
37
43
50
45
44
43
35
40
33
40
48
51
51
48
46
46
44
44
40
46
52
55
59
62
59
50
50
53
41
42
50
56
59
53
51
46
41
38
32
34
37
40
43
38
35
32
29
26
17
38
32
33
39
40
37
29
22
22
17
22
27
24
29
32
29
22
25
23
20
26
29
33
35
32
28
23
25
24
19
20
22
24
20
18
20
16
16
26
33
48
66
80
86
91
98
100
111
117
105
94
85
67
37
4
-18
-34
-41
-38
-44
-37
-31
-25
-25
-21
-21
-15
-11
-6
-3
5
16
25
24
25
26
21
16
11
13
24
27
35
31
28
29
26
23
20
21
25
32
35
31
32
31
27
26
28
28
27
34
42
36
35
31
29
30
24
29
33
41
43
37
34
33
33
37
23
32
35
40
52
44
40
39
39
36
35
38
42
50
55
53
53
51
45
45
48
51
55
60
68
66
65
65
65
63
62
69
75
81
87
86
88
85
81
90
84
92
94
99
102
101
102
97
96
96
92
96
101
106
105
103
101
95
89
86
79
83
86
94
87
80
83
73
65
62
54
57
61
63
61
54
48
39
35
37
36
40
45
47
44
39
39
34
27
25
24
27
32
39
34
32
30
23
29
26
20
24
30
40
32
31
29
24
24
18
19
28
33
37
35
36
30
24
22
20
22
26
34
39
33
33
30
27
25
21
24
31
34
41
41
30
27
28
26
25
29
30
36
42
36
33
32
29
27
21
26
30
36
38
36
32
28
28
24
18
19
28
37
39
33
30
28
25
23
16
24
27
29
32
29
28
27
20
21
21
23
28
30
37
33
25
22
21
20
17
20
28
29
36
31
31
23
19
21
15
21
26
31
29
28
29
23
19
17
16
18
24
33
29
29
25
19
22
20
14
19
25
27
27
25
25
21
18
18
14
20
25
33
32
24
25
21
15
16
16
23
26
33
24
20
24
26
21
17
18
21
21
31
32
25
24
21
17
11
16
18
24
32
34
29
29
27
27
26
24
27
34
37
30
34
34
31
32
30
28
37
41
48
48
47
43
42
41
36
40
43
46
47
45
43
39
37
35
27
31
33
36
39
33
29
25
24
23
8
16
18
27
33
27
22
21
18
13
14
13
17
24
26
22
16
16
15
10
5
8
16
21
23
21
20
11
10
10
5
7
12
20
16
10
8
2
1
4
0
7
24
46
51
58
60
61
71
82
91
108
123
130
108
84
64
28
-10
-35
-48
-41
-33
-31
-37
-37
-40
-41
-32
-30
-24
-10
-1
7
8
9
7
13
10
5
4
7
9
19
17
18
12
16
8
4
3
13
21
26
15
21
25
14
8
6
11
16
21
27
26
27
21
19
19
13
16
19
24
31
27
26
23
23
19
11
17
28
30
32
30
26
27
24
25
20
23
30
34
36
34
35
27
30
29
24
29
40
44
50
47
45
44
44
44
44
48
58
65
67
67
63
62
62
62
65
66
76
82
88
90
87
81
88
82
76
79
92
101
96
92
90
89
85
81
77
82
86
91
87
85
79
72
66
64
62
57
64
69
62
58
56
48
39
40
33
39
41
46
46
34
32
31
29
27
24
25
28
33
31
28
18
24
19
18
17
23
29
33
27
27
23
19
17
12
16
18
23
32
26
25
24
20
15
10
17
22
24
32
28
25
22
20
17
18
21
21
27
35
28
28
25
25
22
18
23
30
33
35
35
26
23
18
24
20
19
27
27
34
32
29
26
17
23
12
17
28
32
34
29
27
25
24
19
14
21
28
31
32
26
25
21
20
22
16
18
25
27
30
24
26
23
21
16
15
16
22
31
28
26
26
22
17
16
12
17
27
30
31
26
24
21
17
16
10
16
24
29
29
27
19
15
16
18
15
19
25
32
29
28
25
19
14
13
15
19
23
31
29
25
20
15
15
13
15
20
22
26
22
27
27
17
19
13
14
20
25
30
35
33
31
22
22
15
23
31
33
43
40
36
35
29
29
26
34
42
49
51
47
45
39
37
36
31
35
38
41
47
43
40
36
29
28
21
22
31
31
33
29
24
19
18
15
11
15
23
24
25
24
16
18
16
16
9
14
16
21
23
21
16
15
16
14
8
7
17
23
28
25
24
17
11
11
8
7
16
18
16
12
12
11
17
25
33
44
59
73
83
90
93
105
111
107
91
77
68
49
11
-13
-34
-44
-44
-42
-48
-45
-38
-30
-36
-29
-25
-14
-13
-1
-3
0
11
20
17
14
19
16
14
9
8
20
22
25
22
22
23
20
14
15
18
17
26
33
29
24
21
22
21
15
15
23
27
34
32
30
25
24
21
18
20
24
30
36
31
31
30
29
27
21
22
29
30
40
41
37
34
38
33
28
29
39
44
47
44
42
39
39
42
38
42
49
56
62
59
57
56
58
59
53
64
73
78
85
79
82
81
77
77
74
84
90
92
98
96
94
91
90
87
86
91
97
105
104
97
95
89
85
82
69
79
82
82
77
75
72
64
59
58
54
53
59
59
56
52
48
42
37
38
32
31
36
41
40
38
30
27
24
24
22
26
32
37
32
30
29
24
22
14
14
23
27
26
28
28
30
24
17
17
19
25
27
27
29
27
23
22
19
17
18
25
33
37
25
31
23
19
25
25
23
27
31
38
34
32
29
26
23
24
25
30
40
37
31
35
31
24
25
18
20
26
30
35
33
27
26
26
21
16
22
25
33
37
29
21
29
25
18
15
16
27
30
29
31
30
25
25
19
16
24
24
32
32
31
28
27
21
17
14
16
23
30
32
29
25
22
20
18
15
20
24
33
32
26
22
21
20
17
8
22
26
26
27
25
23
22
19
16
15
22
29
29
21
25
30
17
13
19
12
20
29
31
28
30
27
23
26
23
22
27
29
36
29
29
26
26
25
22
25
34
40
48
47
46
44
38
35
33
37
40
40
51
50
43
42
38
32
30
31
33
37
37
32
33
29
23
21
16
19
22
21
29
33
27
19
18
15
6
12
23
24
31
22
21
19
14
13
6
14
23
25
26
23
20
15
13
12
7
9
20
21
19
14
13
9
5
1
-2
8
21
38
48
57
65
59
69
76
82
105
123
132
120
98
74
43
10
-22
-45
-43
-36
-31
-29
-28
-32
-37
-31
-23
-21
-13
-1
15
16
12
13
10
8
8
4
7
17
24
23
21
24
15
9
10
13
12
20
30
23
26
21
19
26
13
15
21
26
34
30
27
24
20
18
20
17
22
27
32
32
29
30
27
23
21
23
27
32
38
36
33
31
29
29
21
26
30
40
45
40
37
36
33
34
29
33
42
49
50
54
52
50
46
45
42
46
56
62
69
67
69
68
65
63
61
73
79
80
89
85
86
83
83
82
80
88
93
93
98
92
94
95
90
89
81
82
85
88
91
84
78
71
68
65
57
59
65
69
65
59
56
47
43
40
35
40
45
47
42
38
36
31
25
25
19
20
31
35
31
28
27
22
22
19
12
22
32
33
33
29
22
20
18
13
14
20
25
33
29
27
26
23
18
17
17
24
26
30
30
26
21
21
22
16
18
22
32
33
29
29
31
25
19
15
21
25
27
33
30
28
23
29
27
19
22
24
32
34
33
24
30
21
18
20
23
27
32
36
34
31
27
27
22
16
21
21
26
36
28
27
22
22
20
16
21
26
33
32
26
26
23
22
20
13
20
24
24
31
30
27
20
20
17
15
18
25
29
33
26
24
21
25
16
12
12
23
33
33
29
28
18
17
21
15
20
23
28
32
28
27
22
19
19
18
19
23
33
33
30
28
24
23
26
22
25
36
36
34
32
35
29
26
26
26
32
41
47
45
45
44
41
42
38
37
35
44
49
47
46
37
36
36
33
31
35
39
43
37
33
29
25
21
13
15
20
29
30
26
24
23
20
18
13
15
18
21
35
25
29
17
16
14
11
14
17
23
25
26
23
22
15
12
11
14
22
16
26
23
18
13
10
0
-4
7
19
32
46
51
57
62
67
75
78
88
111
115
111
96
75
48
15
-19
-41
-45
-40
-37
-30
-33
-35
-38
-38
-36
-38
-21
-4
0
6
7
10
10
11
11
3
12
19
26
22
21
20
16
13
15
15
15
22
31
28
28
30
23
17
23
20
18
23
31
29
30
25
22
21
22
18
25
30
36
34
31
32
24
23
25
22
29
34
41
37
34
35
28
26
26
27
33
38
40
42
42
42
38
36
34
37
39
48
56
53
56
50
47
47
54
56
60
67
74
71
69
67
65
67
68
74
81
87
90
91
93
90
88
91
88
87
87
99
101
98
98
94
89
83
81
85
91
87
91
86
82
75
66
65
65
63
64
66
66
61
57
50
44
40
35
36
46
45
43
38
39
33
30
25
13
20
28
30
31
27
31
21
22
20
14
16
23
33
33
23
21
16
17
16
12
20
23
28
27
23
23
23
18
17
13
17
23
31
28
26
23
21
19
17
16
20
26
33
31
27
26
22
20
15
11
21
25
36
34
28
21
27
19
15
13
24
30
35
30
28
23
22
20
12
16
21
25
29
24
24
22
18
18
12
14
23
24
28
27
24
22
17
13
12
17
19
21
26
23
21
19
14
15
7
9
20
22
27
21
20
17
15
16
10
12
13
21
19
14
22
18
16
12
9
10
18
24
27
21
19
15
16
10
3
12
14
18
25
27
20
14
11
11
8
10
15
18
23
19
17
14
11
12
11
14
20
28
29
25
24
18
14
16
10
18
35
35
30
28
29
29
33
30
29
32
35
34
35
39
35
30
25
28
23
28
34
42
35
31
27
20
19
16
15
18
22
29
23
21
15
14
10
8
1
8
14
17
11
12
11
5
4
-1
3
10
13
18
16
11
9
3
3
0
-1
9
13
14
12
10
11
2
-1
-7
-3
2
7
11
11
15
19
25
32
37
45
61
72
88
95
113
109
100
84
59
40
18
-13
-30
-40
-45
-43
-46
-47
-50
-49
-36
-27
-14
-11
-5
-6
-4
-3
-6
1
8
9
11
8
10
13
7
1
-7
6
11
11
17
18
12
14
13
7
2
9
17
23
24
19
18
12
13
13
8
11
21
26
28
22
19
18
15
16
11
16
22
28
24
21
24
23
20
15
12
17
30
37
32
29
28
23
21
22
22
32
38
41
38
34
35
35
32
32
40
46
52
56
50
49
49
49
52
52
51
62
67
75
73
76
74
72
67
77
79
82
85
91
87
86
87
85
82
78
79
84
90
93
85
86
78
79
75
62
65
69
68
71
67
61
57
51
41
36
43
46
48
46
43
39
35
33
32
24
25
29
32
39
35
32
26
22
19
14
21
24
29
31
25
28
22
22
21
14
18
18
23
27
26
24
15
18
18
9
11
29
29
26
25
23
22
13
18
17
24
26
26
24
24
25
18
21
16
11
18
28
33
26
28
22
18
19
21
14
20
27
36
32
27
21
14
20
16
19
25
22
34
31
27
25
22
17
10
11
20
26
27
26
28
23
16
22
19
9
18
25
28
25
23
21
18
17
13
15
21
23
31
30
23
16
16
7
9
13
19
24
22
22
22
21
13
15
12
12
19
22
25
25
18
18
16
22
10
10
14
17
18
21
22
15
18
13
13
19
14
22
28
24
25
24
20
19
16
16
20
22
28
25
26
21
24
25
19
24
29
35
38
36
40
35
36
34
26
32
31
35
37
35
36
31
33
24
18
23
30
29
27
27
23
14
13
15
9
13
23
23
24
21
17
11
9
12
10
9
17
21
18
18
12
8
10
8
2
5
16
18
14
14
12
7
4
5
0
7
11
14
9
8
-1
1
-3
-4
3
8
23
38
42
51
55
58
71
73
88
105
115
108
95
76
45
9
-19
-47
-53
-50
-45
-39
-47
-42
-43
-46
-41
-35
-30
-13
-3
1
2
4
1
-1
-8
-7
-1
6
9
16
11
11
7
5
-1
1
4
10
17
22
18
14
13
10
6
6
6
9
16
21
22
13
13
7
9
4
9
13
18
23
18
21
20
18
14
8
11
18
25
28
22
18
14
19
19
17
22
23
24
29
30
30
25
20
26
21
24
31
43
41
40
41
38
35
36
35
37
49
58
58
57
59
54
51
54
58
61
69
76
76
77
77
71
70
70
68
74
80
84
84
80
76
74
68
65
66
69
73
76
71
64
59
56
49
43
42
43
48
50
46
38
34
29
29
23
17
29
28
31
28
21
20
14
13
9
11
16
17
20
12
13
11
5
2
4
7
8
10
12
13
13
11
6
1
2
5
8
13
17
12
12
6
6
1
-1
7
10
16
21
18
14
11
5
10
3
5
7
13
19
13
9
10
7
13
6
8
15
18
18
16
16
15
10
5
1
6
8
16
21
20
15
9
6
6
1
6
10
19
15
15
16
6
9
7
0
2
16
19
18
14
15
5
8
4
3
4
11
15
10
10
11
6
0
-1
1
5
7
9
11
10
4
-2
-2
3
-2
0
12
14
9
12
6
4
-2
4
-1
5
13
14
10
5
3
2
-4
-7
-4
-1
11
13
7
7
4
4
0
-4
0
2
4
12
7
8
5
-1
-1
-8
-4
6
11
9
7
8
5
7
2
-3
0
7
13
16
10
10
15
8
4
5
8
16
21
24
21
20
19
19
20
11
16
24
29
34
25
21
20
20
15
12
15
16
23
19
17
11
9
6
6
-2
-11
7
8
10
4
1
0
-6
-2
-8
0
9
11
8
4
1
-5
-8
-10
-12
-5
-2
5
-1
0
1
-3
-7
-12
-13
-9
-2
6
-1
-1
-7
-12
-19
-19
-19
-12
-1
7
10
18
24
28
38
39
50
67
83
101
110
102
82
54
30
6
-32
-50
-46
-43
-49
-50
-59
-58
-60
-50
-43
-37
-23
-12
-12
-9
-10
-12
-19
-16
-9
-10
-4
2
-1
-2
-6
-2
-8
-13
-7
-4
-2
5
6
2
0
-7
-7
-6
-3
2
6
11
3
6
3
5
0
-9
-3
5
9
12
10
6
6
3
6
-5
0
3
12
16
14
7
10
8
5
1
5
12
19
17
13
16
15
14
11
8
12
20
25
34
24
25
25
23
24
20
26
36
47
43
39
44
39
45
45
44
47
59
62
62
57
55
61
59
55
54
58
65
75
70
71
71
63
60
58
54
60
67
71
68
60
61
53
45
41
37
45
46
44
45
42
33
27
24
20
15
21
24
25
13
19
16
10
8
5
3
13
14
15
10
12
4
0
0
-9
1
5
5
11
7
5
3
0
1
-12
-4
4
3
8
6
6
4
-2
0
-3
3
6
7
14
5
-1
0
0
-1
-7
-1
3
10
11
4
3
5
4
-5
0
4
6
7
16
10
7
5
5
1
-1
4
8
7
8
11
6
6
4
4
-5
-4
5
12
15
9
7
-1
1
-1
-8
-1
7
12
12
8
7
1
3
-1
-5
-2
1
1
9
8
7
6
-5
-3
-8
-3
5
9
6
-3
4
-4
-3
-7
-8
0
3
6
3
3
2
-2
-5
-6
-8
-1
5
7
3
3
0
2
-3
-10
-12
0
2
6
6
4
1
-2
-6
-6
-7
-1
-3
4
2
1
-5
-3
-9
-12
-8
-1
4
8
5
2
-1
-2
-4
-8
-4
-1
0
4
3
2
0
-4
-4
-10
-4
0
7
12
11
9
8
3
0
-4
-3
7
10
17
13
13
12
10
10
5
15
28
29
32
30
23
20
21
18
11
12
20
22
22
18
18
12
7
6
2
4
4
6
11
9
2
0
-10
-5
-4
-9
-2
6
8
3
1
-3
-5
-6
-10
-9
2
7
5
-2
-4
-12
-12
-14
-13
-9
-1
-3
2
1
-2
-5
-14
-15
-15
-18
-11
-5
-6
-13
-11
-11
-2
10
13
31
46
60
66
75
85
101
109
103
83
71
59
26
-15
-43
-58
-60
-60
-66
-70
-63
-57
-49
-47
-39
-32
-30
-26
-24
-17
-9
-4
3
-3
-5
-7
-9
-12
-17
-13
-6
-2
8
-3
-6
-3
3
4
-8
-15
1
3
13
9
3
2
0
-5
-11
-5
1
7
12
9
8
2
1
2
-2
3
4
14
22
17
14
7
4
1
-1
6
10
17
19
17
15
16
16
14
10
12
21
25
25
24
20
21
18
21
20
26
32
38
36
31
40
40
33
37
38
38
53
58
60
61
59
56
55
58
57
64
74
80
77
70
72
72
67
67
64
69
82
83
82
75
72
65
62
60
54
58
66
67
60
55
50
43
36
35
35
34
36
35
37
31
27
24
20
16
14
15
16
26
28
27
18
6
9
1
0
6
9
12
10
9
9
6
2
-4
-1
7
9
15
10
9
9
3
8
1
8
12
10
12
12
10
7
5
4
3
8
8
10
20
20
17
10
9
2
-1
8
14
15
19
17
16
11
12
5
-4
3
10
19
24
18
17
12
7
7
6
7
12
15
21
18
15
9
6
7
-1
7
12
16
19
10
15
13
6
4
-7
6
13
17
20
12
10
2
2
5
2
7
12
18
16
12
9
9
4
0
6
10
11
17
13
9
6
5
2
-1
-5
3
12
17
11
10
7
5
2
-1
1
4
11
17
13
12
6
5
-1
1
2
14
16
21
18
19
13
11
9
8
15
21
23
27
22
21
22
19
19
20
23
21
31
36
33
21
25
23
18
19
22
26
26
33
26
22
14
12
10
2
4
11
17
18
14
7
0
4
3
-2
-3
5
11
13
8
7
2
1
0
-11
-3
4
3
10
7
5
5
-2
-3
-6
-3
4
3
11
7
6
2
-4
-9
-15
-12
-8
-2
-2
-5
-5
1
5
17
20
31
47
67
74
78
92
97
87
74
53
40
22
-3
-38
-56
-52
-59
-62
-64
-66
-61
-54
-46
-42
-40
-29
-29
-25
-23
-20
-10
-4
7
2
7
2
2
-1
-4
-8
0
5
13
11
6
5
-2
-2
-9
-1
4
15
13
15
13
13
2
1
0
5
8
10
16
13
17
12
10
9
2
9
14
19
22
23
22
15
12
9
6
10
18
25
29
23
23
25
20
17
15
20
26
26
40
34
35
25
29
27
28
30
36
41
58
54
52
47
48
48
45
51
54
65
73
65
64
66
64
64
65
69
75
76
89
82
76
77
75
74
72
75
79
83
91
84
75
68
56
55
51
52
61
64
62
55
50
41
36
35
28
32
39
37
35
28
30
25
16
16
10
12
18
25
22
18
15
11
9
9
1
5
18
23
17
10
9
7
3
3
5
8
14
21
20
16
15
10
7
0
0
11
15
20
13
5
6
7
2
3
10
13
20
24
18
18
11
8
10
5
9
13
16
21
17
15
16
13
7
4
10
16
20
24
19
13
11
9
9
3
5
14
17
23
17
14
13
7
9
5
5
9
10
15
11
14
12
6
0
-1
1
11
11
21
18
14
7
0
-1
0
3
6
13
17
13
12
6
5
3
1
5
11
13
17
15
14
5
0
3
-4
3
11
15
12
11
16
8
1
0
-3
4
10
18
15
14
11
3
5
4
3
5
7
11
12
12
13
6
3
1
-3
5
9
22
16
20
15
16
6
1
-1
10
17
23
21
17
21
20
16
12
11
24
28
32
28
30
28
28
24
18
19
23
25
32
27
25
24
19
13
7
10
15
17
16
12
12
8
1
3
-2
1
9
13
17
11
7
8
2
-6
-10
-5
1
9
10
7
5
2
1
-1
-9
-5
4
11
11
4
1
1
-1
-2
-12
-13
-4
-1
2
-3
0
5
4
11
15
29
42
55
69
73
72
83
95
91
71
59
45
21
-9
-37
-50
-57
-51
-50
-62
-63
-53
-47
-35
-33
-28
-27
-18
-20
-19
-8
-2
6
5
1
5
2
-4
-9
-4
0
6
10
11
8
6
2
-2
2
-3
3
9
19
19
9
7
3
2
2
-2
3
11
19
14
11
10
6
6
3
-5
2
15
22
18
16
14
10
4
3
6
16
17
22
22
24
20
10
11
13
17
22
27
27
24
25
24
25
22
17
20
32
37
41
41
41
37
38
36
38
42
47
52
61
61
59
61
56
54
53
63
71
71
78
70
69
68
64
65
60
65
67
74
75
73
73
69
60
60
54
56
52
56
56
54
50
42
36
33
28
30
34
39
36
31
27
20
22
20
12
8
15
25
24
18
15
10
8
3
-4
5
13
19
13
9
9
7
3
5
1
1
5
17
13
7
8
3
0
-2
2
2
10
16
12
11
6
3
3
3
0
7
10
18
16
14
