-25
-14
-9
-12
-6
-9
-11
-11
-15
-16
-19
-18
-12
-11
-7
-10
-12
-9
-14
-13
-14
-10
-35
-11
-3
-8
1
-7
-18
-18
-19
-13
-20
-11
-7
-2
-5
-8
-23
-16
-15
-17
-15
-16
-6
-11
-7
-12
-14
-18
-13
-18
-15
-21
-18
-2
1
-13
-22
-13
-20
-25
-28
-8
1
-3
-5
-16
-12
-19
-12
-16
-14
-14
-7
-3
-9
-11
-11
-20
-28
-16
-10
0
-7
-7
-13
-16
-17
-15
-20
-8
-6
-13
-7
-22
-16
-20
-17
-23
-28
-9
-4
-9
-10
-4
-5
-13
-17
-11
-17
-13
-15
-9
3
0
-11
-16
-11
1
-8
0
-9
-11
6
4
-4
-5
-4
-16
-19
-20
-20
-10
-16
-16
-17
-16
-23
-13
-26
-19
-19
-18
-13
-19
-12
-18
-30
-27
-21
-23
-22
-19
-18
-14
-27
-26
-27
-31
-28
-30
-25
-29
-14
-23
-27
-29
-33
-51
-37
-30
-19
-1
29
52
78
106
120
129
115
87
71
64
45
22
-15
-56
-61
-56
-42
-21
-20
-14
-12
-16
-20
-26
-15
-23
-48
-15
-30
-26
-17
-20
-13
-30
-21
-31
-36
-35
-31
-26
-13
-21
-25
-27
-22
-24
-29
-26
-15
-20
-21
-22
-24
-25
-33
-22
-20
-26
-27
-36
-9
-10
-27
-18
-23
-26
-29
-24
-28
-25
-8
-9
-17
-30
-27
-19
-25
-41
-19
-12
-19
-14
-10
-28
-22
-18
-18
-15
-19
-7
-13
-17
-14
-12
-15
-15
-10
-8
4
-7
-12
-7
-14
-3
-14
-8
-2
5
-3
7
6
8
6
2
4
0
-1
11
8
7
22
20
12
12
8
14
13
19
21
21
30
20
6
1
5
4
7
-4
16
13
7
6
-17
-18
-13
-1
-2
-1
-3
-3
-16
-28
-18
-12
-19
-21
-22
-23
-6
-7
-10
-20
-25
-30
-38
-24
-26
-13
-10
-12
-21
-18
-22
-27
-26
-32
-27
-28
-11
-19
-15
-26
-24
-28
-28
-24
-24
-21
-26
-21
-20
-27
-25
-19
-21
-20
-25
-27
-23
-15
-27
-37
-29
-25
-28
-22
-14
-18
-18
-20
-13
-21
-21
-16
-27
-36
-20
-24
-16
-24
-29
-24
-19
-18
-22
-25
-23
-15
-11
-10
3
-21
-42
-30
-29
-28
-20
-18
-19
-16
-15
-25
-29
-26
-27
-26
-26
-16
-7
-13
-31
-30
-19
-20
-25
-26
-22
-21
-19
-20
-24
-26
-30
-21
-14
-25
-27
-22
-23
-10
-16
-23
-30
-21
-23
-11
-24
-27
-12
-14
-18
-25
-30
-33
-29
-18
-21
-22
-18
-20
-19
-35
-36
-31
-17
-23
-11
-12
-14
-20
-20
-17
-28
-26
-27
-26
-19
-16
-14
-16
-15
-32
-30
-13
-14
-21
-13
-11
1
-12
-14
-13
-16
-13
-6
0
-6
-6
-8
3
5
-16
-13
-21
-27
-23
-20
-14
-12
-17
-32
-32
-36
-28
-31
-26
-20
-12
-15
-29
-17
-30
-48
-42
-25
-20
-19
-17
-16
-14
-16
-33
-33
-27
-31
-19
-22
-18
-23
-25
-36
-39
-42
-40
-33
-22
-9
17
42
63
87
109
106
114
93
75
64
51
30
-9
-52
-76
-71
-41
-30
-35
-26
-25
-20
-11
-24
-28
-37
-29
-34
-29
-16
-24
-16
-19
-29
-33
-32
-45
-23
-32
-16
-13
-10
-22
-30
-33
-32
-30
-13
-24
-29
-16
-23
-17
-31
-30
-26
-7
-18
-31
-26
-19
-14
-19
-24
-30
-32
-25
-15
-26
-19
-11
-21
-19
-26
-22
-24
-21
-23
-23
-13
-16
-22
-26
-13
-6
-21
-17
-18
-25
-1
-7
-9
-12
-19
-16
-19
-18
-12
-5
-11
-11
7
5
-16
-9
-1
-3
1
-6
11
16
16
5
5
-6
6
1
8
8
21
19
26
16
11
17
14
12
16
12
16
20
21
19
11
12
15
5
13
13
14
13
7
-6
-2
-6
-16
-5
6
0
-6
-8
-13
-13
-17
-16
-16
-19
-17
-25
-11
-19
-20
-17
-34
-31
-7
-18
-17
-21
-11
-15
-22
-29
-14
-18
-19
-24
-31
-21
-17
-19
-36
-21
-13
-19
-27
-23
-30
-22
-31
-17
-7
-20
-33
-32
-17
-16
-20
-19
-14
-23
-25
-28
-25
-12
-13
-28
-16
-28
-15
-7
-17
-27
-25
-25
-25
-27
-17
-17
-17
-10
-18
-33
-23
-21
-30
-19
-19
-18
-13
-19
-21
-33
-30
-21
-15
-26
-4
-16
-27
-14
-11
-18
-29
-44
-27
-36
-17
-21
-14
2
-15
-17
-25
-28
-27
-23
-21
-10
-21
-16
-24
-30
-23
-28
-25
-32
-23
-15
-17
-16
-21
-27
-21
-15
-26
-23
-20
-18
-17
-27
-22
-26
-26
-24
-23
-26
8
-22
-31
-21
-16
-19
-11
-16
-11
-12
-17
-5
-12
-7
-15
-16
-19
-27
-27
-13
2
0
11
4
-11
-9
-11
-18
-20
-24
-17
-6
-11
-22
-21
-32
-26
-24
-19
-14
-30
-20
-25
-25
-28
-34
-23
-21
-31
-26
-21
-15
-20
-21
-23
-27
-32
-26
-18
-37
-24
-13
-22
-23
-26
-28
-35
-37
-40
-45
-34
-26
-10
8
15
51
84
99
116
105
85
81
65
41
6
-21
-45
-75
-82
-60
-44
-37
-41
-35
-18
-18
-21
-34
-30
-26
-24
-21
-28
-18
-28
-24
-29
-39
-45
-5
-2
-14
-23
-31
-29
-30
-36
-31
-28
-22
-30
-18
-14
-26
-33
-24
-14
-17
-16
-23
-24
-26
-27
-22
-27
-27
-17
-22
-24
-24
-23
-13
-18
-20
-27
-26
-20
-28
-17
-17
-14
-5
-19
-18
-22
-24
-17
-15
-19
-19
-8
0
-12
-21
-24
-31
-5
-14
-8
-4
0
-14
-3
-7
-12
-5
-7
0
-1
3
6
13
1
-3
-3
8
4
12
12
3
16
21
12
16
16
12
9
5
6
18
32
33
16
17
14
6
1
22
15
15
16
14
10
0
5
-1
-13
-7
-13
-1
2
-9
-5
-13
-18
-14
-15
-18
-24
-15
-7
-18
-17
-21
-18
-17
-20
-26
-19
-26
-22
-15
-20
-25
-26
-29
-29
-23
-21
-24
-22
-14
-21
-25
-24
-27
-23
-23
-27
-22
-22
-28
-13
-26
-37
-27
-16
-26
-9
-18
-20
-16
-17
-31
-24
-21
-21
-22
-28
-14
-15
-20
-22
-30
-25
-24
-21
-22
-18
-12
-13
-21
-26
-16
-18
-27
-32
-19
-18
-19
-18
-16
-18
-23
-19
-18
-33
-25
-18
-19
-12
-10
-21
-22
-22
-37
-14
-22
-27
-21
-18
-17
-25
-43
-14
-13
-19
-21
-20
-15
-14
-15
-24
-28
-29
-27
-26
-15
-21
-15
-16
-16
-22
-28
-25
-27
-22
-22
-16
-12
-15
-20
-30
-23
-23
-23
-28
-25
-17
-16
-8
-17
-20
-16
-15
-22
-21
-8
-8
-6
-7
-12
-20
-18
-13
-16
-23
-12
9
-3
-7
-19
-12
-10
-19
-20
-28
-19
-18
-13
-21
-19
-27
-23
-21
-30
-32
-31
-17
-8
-15
-23
-33
-30
-29
-26
-27
-29
-21
-19
-11
-24
-32
-20
-20
-27
-28
-28
-30
-18
-22
-35
-46
-47
-39
-33
-22
-5
13
50
92
105
114
114
99
80
63
45
32
0
-24
-70
-75
-69
-48
-38
-37
-20
-9
-12
-18
-27
-34
-33
-28
-30
-17
-27
-23
-23
-27
-26
-27
-30
-31
-29
-24
-19
-19
-21
-26
-34
-27
-24
-29
-30
-25
-23
-23
-23
-20
-26
-29
-26
-28
-22
-29
-20
-20
-23
-25
-21
-27
-30
-28
-23
-23
-28
-15
-17
-17
-17
-24
-20
-26
-28
-21
-8
-11
-10
-11
-23
-28
-24
-14
-17
-14
-10
-13
-22
-17
-21
2
-8
-19
-10
-8
-3
-2
-7
-11
-7
0
-14
1
3
3
8
9
8
6
5
3
7
12
9
16
10
12
28
21
10
10
9
14
14
18
23
14
26
21
15
19
8
7
0
7
6
13
-1
2
-7
-9
-12
-13
-15
-9
-2
-4
-8
-18
-21
-32
-16
-24
-35
-11
-5
-7
-14
-27
-21
-28
-35
-26
-14
-25
-15
-18
-16
-14
-30
-20
-23
-25
-21
-20
-13
-17
-15
-20
-21
-20
-24
-29
-20
-24
-17
-15
-16
-22
-25
-27
-27
-28
-23
-11
-15
-19
-18
-16
-19
-29
-22
-30
-20
-22
-13
-16
-14
-19
-19
-23
-28
-31
-17
-14
-23
-25
-6
-11
-25
-17
-20
-22
-23
-15
-15
-23
-33
-10
-15
-22
-25
-33
-30
-19
-19
-21
-13
-20
-13
-18
-21
-22
-21
-19
-14
-9
-16
-18
-18
-21
-29
-26
-23
-18
-16
-15
-20
-31
-22
-26
-22
-16
-17
-15
-13
-16
-27
-27
-24
-29
-22
-20
-17
-16
-17
-16
-20
-24
-24
-29
-23
-18
-20
-13
-6
-11
-22
-22
-24
-24
-19
-23
-24
-31
-27
-14
-29
-15
-17
-22
-27
-8
-10
-6
-3
-16
-18
-22
-8
-10
-19
-21
-11
-12
-18
-7
1
-9
-5
-11
-15
-8
-6
-2
-6
-7
-11
-17
-16
-21
-25
-26
-19
-17
-16
-19
-23
-24
-34
-43
-25
-16
-15
-14
-19
-19
-18
-24
-20
-28
-26
-21
-23
-21
-17
-22
-20
-30
-36
-34
-42
-36
-34
-33
-21
-40
-31
-27
-15
5
24
71
92
111
125
126
98
68
58
47
29
5
-31
-54
-52
-44
-29
-23
-29
-19
-23
-25
-19
-12
-21
-18
-28
-26
-27
-26
-27
-26
-19
-16
-19
-27
-36
-28
-26
-22
-30
-23
-15
-19
-20
-30
-27
-27
-28
-28
-19
-29
-15
-11
-18
-20
-26
-18
-24
-24
-23
-23
-30
-20
-19
-27
-28
-21
-26
-21
-21
-25
-20
-8
-13
-8
-15
-23
-22
-23
-12
-20
-5
-10
-14
-20
-20
-19
-21
-18
-15
-10
-9
-10
-10
-12
-14
-16
-9
-10
-10
-9
0
7
-4
0
-9
-11
-2
-4
-4
5
15
10
12
13
8
10
20
20
9
14
21
21
10
13
13
13
13
13
15
19
11
27
23
24
4
7
12
11
-1
1
6
7
-6
-24
-13
-26
-14
-4
-14
-8
0
-9
-14
-18
-14
-16
-32
-15
-20
-15
-15
-17
-18
-24
-23
-25
-27
-20
-17
-18
-15
-12
-21
-28
-22
-23
-21
-17
-17
-17
-17
-22
-17
-21
-25
-23
-28
-21
-22
-18
-11
-14
-25
-27
-22
-25
-31
-20
-18
-19
-22
-17
-13
-28
-30
-26
-29
-36
-4
-15
-15
-15
-18
-24
-22
-26
-27
-29
-27
-9
-6
-12
-18
-24
-22
-21
-17
-19
-15
-12
-18
-18
-22
-22
-23
-22
-25
-24
-23
-17
-10
-15
-20
-28
-18
-11
-14
-19
-20
-10
-18
-11
-27
-33
-29
-21
-21
-30
-22
-22
-20
-14
-23
-20
-18
-26
-28
-19
-21
-14
-8
-8
-26
-30
-25
-28
-40
-32
-23
-10
-15
-22
-29
-26
-24
-20
-20
-16
-18
-14
-11
-15
-15
-16
-23
-27
-29
-27
-19
-10
-14
-22
-22
-24
-26
-23
-19
-22
-17
-11
-28
-14
-19
-13
-16
-17
-15
-14
-13
-3
-2
-4
-13
-12
-9
-12
-14
-13
0
8
3
-11
-21
-20
-18
-18
-23
-25
-22
-12
-21
-21
-25
-28
-30
-33
-22
-19
-1
-7
-19
-26
-29
-29
-28
-25
-26
-34
-26
-10
-18
-30
-26
-26
-22
-22
-26
-26
-22
-23
-32
-40
-44
-45
-39
-12
-6
35
62
99
116
124
125
103
76
60
53
37
3
-34
-62
-64
-50
-30
-32
-30
-26
-20
-16
-14
-20
-30
-27
-30
-22
-25
-34
-16
-19
-22
-15
-23
-28
-38
-39
-26
-30
-23
-12
-20
-27
-16
-41
-32
-16
-22
-25
-20
-15
-16
-27
-36
-18
-27
-20
-17
-20
-7
-13
-17
-21
-35
-24
-23
-25
-17
-20
-18
-12
-13
-16
-25
-19
-18
-14
-29
-25
-19
-13
-15
-23
-20
-14
-10
-13
-20
-13
-14
0
-11
-21
-19
-16
-3
-1
-4
-12
-4
4
0
-13
-12
-4
-3
-1
1
-6
7
8
-10
25
16
6
8
4
5
19
22
27
20
15
11
14
14
15
9
30
23
28
30
20
10
7
10
5
4
6
9
8
7
-2
-8
-9
-10
-15
-7
-9
-5
-2
-7
-15
-20
-23
-20
-23
-26
-23
-8
-6
-9
-15
-24
-18
-32
-20
-18
-17
-13
-19
-16
-18
-27
-31
-12
-15
-23
-22
-16
-19
-24
-31
-19
-29
-30
-22
-19
-10
-13
-11
-15
-27
-21
-26
-21
-26
-21
-29
-9
-9
-11
-25
-23
-32
-23
-20
-25
-20
-16
-18
-10
-22
-27
-23
-25
-22
-19
-16
-16
-13
-12
-21
-26
-30
-14
-19
-19
-11
-13
-12
-13
-22
-26
-22
-27
-18
-21
-19
-28
-23
-27
-37
-23
-5
-18
-17
-16
-15
-20
-18
-20
-30
-25
-24
-13
-18
-23
-15
-14
-10
-22
-21
-20
-26
-19
-23
-24
-13
-14
-14
-17
-26
-23
-19
-22
-25
-18
-15
-18
-16
-29
-25
-22
-15
-13
-16
-17
-18
-26
-24
-19
-26
-19
-20
-20
-28
-28
-30
-19
-9
-17
-20
-14
-15
-7
-7
-22
-22
-24
-15
-13
-12
-12
-6
-6
-1
-8
-7
1
-11
-10
-7
-8
-6
-7
-5
-22
-23
-31
-30
1
-25
-11
-4
-12
-22
-24
-21
-23
-23
-25
-21
-20
-10
-12
-18
-24
-25
-32
-30
-23
-29
-17
-11
-16
-25
-26
-27
-17
-37
-14
-14
-21
-21
-17
-25
-39
-44
-43
-33
-24
-12
6
34
71
89
113
127
114
96
69
69
44
16
-20
-60
-81
-79
-46
-30
-33
-18
-13
-12
-24
-17
-22
-25
-22
-37
-33
-22
-25
-15
-19
-15
-21
-31
-23
-29
-27
-28
-26
-18
-18
-22
-34
-25
-20
-30
-25
-11
-5
-9
-19
-27
-27
-24
-25
-36
-31
-20
-25
-8
-13
-22
-48
-18
-13
-6
-12
-16
-13
-8
-17
-21
-23
-28
-31
-21
-11
-12
-8
-5
-5
-22
-22
-19
-22
-14
-17
-6
-4
-8
-6
-11
-22
-16
-11
-6
-6
-1
-9
-13
-1
-9
-30
4
6
4
7
3
16
21
12
-8
-1
10
20
11
0
14
25
17
26
25
6
11
24
24
25
19
24
27
18
17
13
14
12
16
9
15
15
7
1
-5
4
-8
-5
-16
-20
-30
-4
19
-12
-22
-25
-15
-14
-15
-22
-17
-3
-15
-21
-22
-31
-14
-26
-19
-7
-8
-18
-11
-23
-32
-18
-20
-20
-30
-22
-6
-16
-13
-16
-25
-30
-24
-28
-17
-20
-17
-13
-20
-30
-33
-14
-21
-29
-25
-7
-18
-15
-9
-12
-26
-23
-22
-26
-28
-16
-12
-17
-7
-20
-25
-30
-24
-12
-21
-11
-10
-10
-22
-26
-20
-16
-19
-26
-32
-22
-10
-9
-15
-16
-20
-23
-19
-34
-37
-2
-10
-21
-20
-25
-29
-24
-14
-22
-31
-16
-12
-16
-19
-19
-20
-19
-28
-26
-28
-28
-6
-18
-23
-21
-40
-29
-19
-19
-16
-14
-11
-17
-31
-11
-21
-23
-28
-33
-17
-18
-10
-10
-14
-44
-24
-20
-27
-17
-18
-28
-28
-11
7
-8
-11
-12
-14
-8
-17
-16
-1
-1
1
-19
-12
-17
-10
-10
-7
-5
-6
-12
-19
-28
-24
-26
-34
-18
-9
-18
-22
-24
-15
-28
-36
-42
-18
-19
-19
-17
-20
-15
-17
-37
-37
-22
-31
-18
-23
-24
-16
-17
-16
-23
-29
-29
-22
-24
-35
-20
-28
-44
-36
-34
-44
-20
14
35
71
85
103
118
94
56
50
36
23
1
-23
-48
-66
-71
-61
-57
-44
-38
-30
-30
-20
-17
-26
-27
-32
-34
-39
-33
-42
-38
-36
-22
-30
-30
-25
-30
-34
-39
-40
-34
-28
-29
-29
-41
-29
-23
-33
-33
-38
-28
-29
-37
-37
-33
-33
-23
-22
-28
-32
-35
-27
-28
-24
-27
-36
-31
-48
-44
-27
-28
-19
-29
-22
-26
-25
-30
-31
-37
-27
-26
-24
-14
-20
-29
-37
-35
-22
-27
-31
-33
-15
-23
-8
-22
-27
-22
-19
-31
-23
-26
-11
-14
-12
-5
-16
-6
-10
-11
-16
-36
-38
-19
1
31
14
6
6
0
2
4
7
8
13
12
0
5
-12
-5
5
2
14
7
7
0
-11
-3
-13
-9
-15
-10
-13
-6
-20
-27
-18
-20
-34
-25
-22
-21
-30
-23
-37
-18
-31
-26
-32
-30
-38
-40
-27
-27
-23
-30
-47
-47
-42
-34
-37
-38
-33
-27
-34
-38
-37
-48
-42
-36
-37
-39
-38
-23
-31
-43
-42
-38
-47
-37
-33
-36
-27
-21
-32
-43
-38
-41
-44
-36
-32
-35
-29
-29
-50
-36
-35
-38
-39
-37
-39
-40
-32
-29
-33
-44
-38
-33
-29
-36
-37
-33
-23
-35
-42
-53
-39
-36
-51
-41
-33
-27
-27
-25
-31
-36
-44
-35
-46
-35
-37
-40
-35
-29
-30
-38
-36
-40
-45
-46
-40
-32
-28
-19
-40
-42
-39
-43
-48
-39
-35
-36
-26
-30
-35
-41
-46
-40
-41
-47
-42
-39
-38
-29
-27
-37
-30
-26
-36
-42
-35
-21
-16
-15
-23
-38
-43
-43
-34
-20
-18
-17
-19
-18
-24
-38
-40
-41
-43
-36
-36
-37
-31
-35
-44
-55
-41
-48
-43
-33
-39
-42
-30
-33
-41
-42
-46
-40
-42
-41
-48
-53
-32
-37
-44
-29
-37
-42
-40
-37
-34
-35
-37
-40
-60
-67
-64
-64
-45
-33
-14
5
27
51
77
91
90
67
56
33
34
18
-21
-39
-79
-102
-99
-75
-64
-46
-39
-30
-27
-31
-44
-41
-45
-42
-42
-40
-40
-34
-44
-46
-57
-68
-45
-42
-30
-36
-35
-37
-30
-35
-41
-41
-44
-49
-48
-40
-42
-45
-42
-39
-40
-57
-76
-43
-30
-27
-33
-27
-28
-32
-42
-33
-39
-42
-40
-37
-31
-31
-42
-38
-49
-59
-46
-35
-37
-33
-24
-24
-27
-27
-35
-36
-35
-33
-34
-29
-26
-27
-31
-30
-39
-36
-25
-33
-45
-22
-15
0
-30
-31
-21
-16
-18
-19
-18
-11
-5
-6
-9
-7
-13
-11
-15
-9
-14
-26
-10
9
8
10
-2
-4
-13
-1
-5
6
10
13
3
-8
-7
-9
-15
-9
-8
-7
-14
-18
-16
-20
-13
-12
-22
-35
-23
-23
-19
-23
-27
-34
-35
-40
-33
-42
-33
-42
-38
-44
-45
-31
-32
-31
-40
-55
-30
-33
-28
-27
-29
-37
-41
-46
-36
-38
-41
-37
-32
-31
-37
-37
-40
-36
-54
-48
-39
-31
-39
-30
-31
-38
-42
-43
-40
-37
-43
-31
-33
-31
-40
-46
-40
-35
-38
-38
-33
-38
-47
-42
-32
-35
-33
-36
-39
-34
-39
-30
-26
-29
-29
-37
-39
-36
-33
-44
-43
-32
-41
-62
-38
-37
-43
-43
-28
-41
-32
-27
-24
-26
-37
-39
-38
-39
-41
-47
-39
-29
-36
-31
-42
-49
-32
-38
-42
-29
-31
-31
-28
-23
-41
-40
-42
-40
-38
-40
-37
-29
-29
-34
-43
-46
-42
-48
-45
-36
-31
-25
-30
-32
-39
-40
-36
-33
-35
-34
-35
-27
-33
-41
-47
-40
-41
-28
-25
-27
-15
-17
-13
-22
-28
-22
-27
-28
-30
-30
-30
-23
-33
-38
-29
-53
-18
-28
-46
-33
-32
-23
-23
-30
-41
-43
-39
-40
-37
-39
-37
-34
-31
-35
-40
-40
-43
-42
-44
-36
-30
-30
-37
-41
-37
-46
-39
-41
-37
-40
-39
-40
-49
-53
-62
-54
-43
-32
-8
20
47
77
89
101
97
81
67
46
36
16
-8
-43
-68
-73
-60
-55
-48
-36
-46
-46
-53
-44
-34
-19
-17
-36
-42
-41
-39
-38
-34
-34
-33
-39
-39
-42
-44
-39
-37
-38
-26
-33
-36
-41
-45
-40
-42
-41
-36
-31
-29
-30
-30
-39
-44
-32
-36
-39
-32
-34
-27
-28
-29
-37
-43
-41
-43
-45
-39
-44
-28
-26
-28
-31
-37
-25
-29
-25
-34
-29
-26
-22
-26
-30
-35
-47
-19
-30
-30
-29
-35
-18
-17
-23
-27
-26
-26
-24
-17
-14
-16
-15
-19
-21
-29
-23
-42
-12
0
1
-14
9
-9
-12
-17
10
0
0
3
4
14
8
6
2
-3
0
-2
-5
4
12
10
5
-8
2
0
-2
-5
-13
-6
-9
-4
-10
-10
-19
-20
-24
-25
-25
-22
-18
-19
-19
-42
-27
-28
-27
-31
-30
-29
-25
-25
-25
-37
-38
-31
-37
-39
-29
-32
-25
-20
-22
-32
-33
-32
-28
-37
-29
-30
-27
-21
-17
-32
-40
-51
-50
-46
-22
-20
-32
-23
-20
-37
-31
-37
-30
-29
-20
-35
-24
-21
-25
-35
-42
-36
-35
-34
-33
-35
-30
-19
-20
-21
-32
-34
-28
-31
-26
-25
-16
-22
-28
-29
-32
-35
-36
-32
-29
-28
-25
-21
-26
-29
-37
-31
-27
-24
-30
-22
-22
-20
-23
-28
-37
-30
-32
-39
-37
-19
-9
-20
-23
-30
-27
-33
-35
-27
-27
-28
-24
-44
-11
-23
-27
-24
-27
-26
-28
-25
-17
-16
-28
-30
-34
-39
-41
-23
-25
-20
-18
-14
-17
-33
-36
-22
-19
-34
-25
-21
-21
-27
-28
-25
-29
-29
-28
-32
-24
-23
-14
-18
-26
-31
-28
-30
-31
-23
-26
-24
-15
-10
-19
-22
-33
-30
-29
-27
-35
-14
-8
-12
-15
-26
-10
-19
-14
-9
-15
-14
2
-5
-7
-19
-18
-24
-26
-26
-21
-21
-15
-30
-35
-35
-21
-24
-34
-24
-18
-20
-21
-23
-26
-35
-32
-25
-25
-33
-21
-21
-19
-26
-29
-35
-31
-29
-32
-29
-34
-19
-30
-40
-33
-44
-51
-45
-40
-28
-12
17
49
78
83
104
120
112
87
63
57
51
18
-10
-56
-65
-67
-39
-31
-35
-18
-18
-17
-21
-27
-33
-31
-28
-32
-31
-26
-22
-26
-19
-33
-33
-28
-34
-33
-29
-28
-23
-24
-26
-28
-25
-20
-28
-32
-30
-21
-20
-32
-43
-22
-29
-21
-20
-25
-26
-16
-17
-21
-23
-18
-25
-31
-33
-29
-28
-16
-16
-17
-23
-25
-25
-21
-24
-23
-20
-20
-17
-17
-16
-21
-24
-26
-37
-12
-18
-11
-8
-13
-25
-20
-22
-23
-31
-5
-9
-13
-10
-8
-1
-13
-6
-4
-19
-5
-2
8
17
3
0
3
5
3
4
10
13
16
23
14
14
5
14
12
10
14
14
13
23
21
17
5
12
13
12
7
4
12
14
-7
2
-6
-8
-5
-12
-9
-7
-2
-12
-19
-28
-18
-32
-26
-21
-16
-13
-4
-16
-11
-16
-21
-27
-24
-21
-16
-21
-20
-20
-13
-20
-18
-25
-24
-24
-15
-19
-14
-16
-17
-20
-20
-16
-24
-21
-24
-20
-15
-17
-22
-26
-25
-25
-28
-22
-24
-14
-17
-14
-16
-15
-27
-31
-30
-22
-19
-18
-15
-11
-19
-21
-25
-15
-24
-21
-19
-25
-10
-18
-31
-38
-22
-12
-15
-26
-19
-12
-10
-9
-7
-15
-18
-21
-24
-21
-22
-10
-12
-14
-18
-21
-22
-17
-21
-20
-19
-14
-10
-9
-15
-28
-21
-21
-20
-15
-20
-19
-10
-11
-15
-26
-22
-21
-20
-20
-9
-5
-18
-12
-20
-21
-15
-28
-22
-17
-18
-9
-11
-10
-18
-20
-14
-10
-26
-23
-18
-11
-19
-7
-20
-19
-27
-39
-33
-17
3
-6
-8
-19
-26
-32
-11
-14
-13
-13
-12
-6
-4
-7
-14
-23
-19
-13
-8
-18
-8
-3
-7
-12
-11
-19
-16
-14
-11
-14
-5
-2
-3
-3
-9
-12
-8
-14
-5
-3
-1
3
2
4
-2
-11
-7
-9
-10
2
4
-5
-1
-14
-32
-14
-21
-18
-16
-31
-4
1
-9
-18
-14
-14
-20
-18
-12
-14
-11
-4
-11
-14
-22
-24
-34
-24
-5
-13
-11
-9
-13
-10
-24
-16
-19
-22
-29
-30
-37
-32
-10
-8
10
34
66
95
114
129
137
126
93
65
58
37
5
-31
-59
-50
-32
-20
-14
-17
-16
-15
-23
-19
-17
-12
-7
-7
-17
-16
-24
-17
-13
-20
-17
-20
-29
-19
-3
-9
-22
-12
-12
-16
-17
-21
-16
-19
-20
-10
-11
-17
-16
-14
-21
-25
-1
-8
-15
-10
-17
-25
-16
-9
-11
-4
-2
-6
-8
-11
-18
-19
-15
-13
-8
-13
-3
-10
-5
-9
-8
-7
-8
-12
-8
-5
0
0
-3
-8
-13
-21
0
3
-5
0
7
7
5
-1
-3
-7
3
4
7
12
16
9
21
6
4
10
20
6
16
22
29
21
9
0
22
29
36
20
15
32
29
35
43
29
23
25
27
32
27
25
31
24
22
21
14
9
15
21
9
16
9
17
12
-5
0
-1
2
-4
-6
0
3
-2
-6
-9
-11
-8
-13
-6
-10
3
-3
-7
-14
-5
-12
-14
-12
-10
-6
3
-3
-7
-12
-6
-17
-8
-10
-12
-3
1
-1
-14
-12
-20
-34
-17
-7
-8
9
3
-6
-14
-10
-9
-5
-8
-7
-8
-8
-5
-3
-4
-6
-20
-15
-7
-1
-8
-6
1
4
2
-10
-8
-12
-18
-11
-8
-1
-1
-2
1
-15
-11
-10
-8
-9
-4
1
8
0
3
-7
-16
-13
-17
-9
-7
-6
-1
-5
-13
-6
-22
-12
-7
-8
-7
-12
-6
10
-5
-6
-10
-6
-9
-10
-3
-1
-3
-5
-4
-21
-9
-3
-9
-4
-10
-6
1
9
-7
-9
-13
-7
-5
1
-6
-5
-5
2
-3
-12
-7
-5
-7
-10
-3
0
6
2
-7
-7
-10
-17
-13
-2
-3
3
3
-2
-8
-5
-5
-16
-3
-5
-4
-3
-3
3
-7
-7
-6
-13
4
-4
-8
8
1
-11
0
-6
-8
-12
-15
-7
16
16
11
4
1
-4
-6
-3
-2
12
12
20
11
12
11
4
0
3
11
-2
14
22
20
3
-9
-19
-4
-1
-9
-7
-2
4
0
1
-10
-12
-9
-7
-7
-7
-6
-2
0
1
-11
-14
-13
-10
-10
-3
-15
6
-14
-8
-7
-14
-14
-3
-4
-16
-18
-9
-12
-29
-25
-22
-3
11
32
57
91
125
137
139
118
96
88
71
51
24
1
-42
-47
-49
-28
-30
-11
-11
-10
-5
-5
-4
-3
-10
-6
-13
-10
-14
-13
-14
-4
-1
-6
-11
-13
-4
-13
-14
-13
-8
-3
-4
-8
-15
-20
-19
-11
-15
-14
-5
-6
9
-6
-4
-4
-12
-10
-9
-3
-10
-1
6
-2
-3
-13
-14
-10
-21
-14
2
3
3
7
0
-4
-7
-8
-8
-1
-5
0
-6
3
3
7
3
1
4
5
3
12
8
20
-5
-11
6
9
2
6
10
14
17
18
10
9
14
2
12
19
24
26
25
37
21
18
18
31
24
35
36
36
45
35
34
23
24
19
29
28
46
37
37
50
37
27
27
18
18
29
29
22
23
19
11
11
2
1
-4
1
26
12
9
10
5
-5
-14
-8
-5
-5
0
9
-9
-4
-1
-7
-5
-5
-7
-5
-2
1
1
-3
-20
-7
-11
-9
-5
-5
6
1
-3
-9
-6
-7
-17
-5
-3
0
-3
7
-3
-13
-13
-13
-12
-6
-3
2
-2
3
1
-10
-13
-6
-13
-3
7
0
-4
-2
0
-4
-7
-2
-8
1
-4
-4
8
3
3
-1
-9
-9
-10
-7
-23
-9
12
11
-1
-3
-5
-5
-5
-16
-14
2
5
-9
9
0
-10
-2
-13
-3
-1
-2
-3
-10
-23
5
-3
-2
-11
-12
-9
3
7
0
-4
-4
-19
-17
-27
-6
-2
-2
11
10
-3
-13
-13
-12
-7
-4
-9
-3
4
-3
-6
-8
-5
-15
-11
-6
-5
-6
5
10
-1
-9
-10
-13
-16
-26
-17
4
14
5
6
-1
-7
-12
2
-4
2
13
10
13
1
12
-1
2
-12
11
12
7
14
11
4
-8
-8
-8
-13
-8
-8
-5
-4
-9
-9
-28
-28
-5
-1
-10
-5
0
-10
-18
-3
-10
-11
-16
-8
-12
-26
-16
-2
-5
4
-5
-12
-12
-19
-8
-9
-10
4
-20
-27
-36
-28
-21
-4
10
23
63
97
115
124
126
98
77
59
46
38
18
-26
-47
-66
-57
-56
-44
-39
1
-4
-2
-3
-13
-5
-15
-10
-26
-27
-16
-3
-7
-6
-3
-13
-20
-19
-11
-17
-10
-13
0
-2
-6
-14
-18
-16
-21
-17
-12
-10
-11
-4
-3
-7
-20
-11
-8
-13
-5
-7
-6
-8
2
-15
-21
-22
-22
-2
-9
0
10
-1
-5
-15
-19
-9
-3
-15
-3
-7
4
8
-2
-3
-8
3
-7
-4
0
-2
7
0
9
0
1
-1
-8
17
13
15
3
7
1
11
15
3
6
20
11
23
28
21
0
25
29
29
23
24
25
25
38
28
27
31
28
33
30
39
21
30
37
35
23
31
15
19
24
11
18
23
25
22
11
3
0
0
-3
-7
-3
0
20
-1
-12
-5
1
-9
-4
-14
-6
-4
0
4
-6
-17
-13
-18
-12
-7
-11
-10
-13
-5
-18
-11
-11
-9
-8
-11
-9
-4
-1
-4
-12
-15
-19
-14
-15
-9
-7
-4
-1
-22
-10
-6
-10
-15
-12
-27
-7
-5
-2
-1
-11
-12
-15
-15
-15
-9
-9
2
-6
-13
-14
-17
-13
-14
-10
-8
-9
8
4
-6
-8
-21
-15
-16
-7
-11
-5
-7
-16
-4
-2
-12
-16
-19
-19
-10
-1
5
6
-11
-11
-7
-10
-8
-18
-20
-16
11
-1
-8
-14
-13
-16
-22
-12
-4
-2
-9
-5
-19
-9
-9
-13
-14
-14
-9
-6
-7
-7
-9
-13
-13
-29
-25
-9
-1
-5
-10
-15
10
-5
-17
2
-11
-6
-10
-6
5
-2
-3
-20
-11
-1
-6
2
7
-3
13
0
3
-2
-3
-8
6
2
3
8
-8
-2
-9
-14
-11
-8
-11
-20
-14
-9
-5
-10
-5
-17
-15
-10
-17
-10
-8
-5
-7
-13
-22
-15
-12
-13
-16
-14
-7
-2
-6
-15
-18
-8
-11
-17
-24
-25
-25
-10
-16
-26
-27
-8
-1
26
46
74
92
134
135
103
72
58
50
35
6
-21
-53
-74
-62
-48
-38
-12
-5
-8
-15
-21
-7
-1
-5
-9
-16
-18
-20
-23
-15
-16
-23
-5
-6
-13
-14
-15
-20
-18
-12
-9
-12
-4
-14
-9
-20
-24
-30
-15
-14
-11
-6
-3
-5
-17
-16
-32
-21
-8
-4
-14
-3
-3
1
-12
-20
-10
-5
-13
-14
-9
0
0
-2
-4
-14
-12
-7
-9
-5
-1
0
1
-3
-1
-4
-7
-2
-8
1
-3
12
1
9
-5
-14
-3
5
-1
2
6
2
7
11
20
5
-15
17
27
5
25
29
28
29
21
18
18
24
24
22
26
30
39
24
34
23
25
29
28
24
30
30
31
27
21
13
14
14
9
10
12
15
12
4
6
-3
-7
-7
-3
-11
-17
-2
0
-1
-4
-11
-10
-5
-15
-10
-8
-4
3
-7
-15
-17
-14
-17
-15
-18
-5
-4
-2
-6
-9
-16
-16
-28
-23
-8
-5
-5
-2
-5
-15
-21
-8
-20
-12
-13
-7
-6
-11
-5
-29
-20
-18
-13
-24
-15
1
3
-7
-10
-15
-9
-15
-10
-17
-8
1
-11
-2
-10
-18
-21
-8
-10
-8
-13
-6
-1
-5
-4
-12
-22
-18
-16
-19
-3
-10
-6
2
-8
-19
-14
-16
-8
-11
-17
-9
0
-7
-16
-24
-32
-13
-18
-10
0
-7
-2
-6
-9
-17
-19
-16
-22
-17
-10
6
-10
-9
-14
-20
-16
-13
-11
-11
-11
-6
-6
-8
-9
-14
-21
-12
-11
-10
-9
-6
-6
-2
-5
-25
-16
-19
-17
-13
-7
-5
-10
-1
-9
-16
-25
-7
-14
-12
-19
-5
10
6
2
-7
-1
0
3
-3
-1
2
9
7
0
-5
-10
-6
-11
-6
-6
-6
-10
-12
-11
-19
-18
-20
-16
-16
-14
-9
-14
-18
-15
-18
-19
-15
-18
-14
-14
-7
-6
-14
-18
-22
-30
-24
-22
-16
-5
-5
-3
-12
-23
-24
-39
-46
-32
-24
-14
6
34
44
65
103
120
126
118
98
74
69
49
21
-8
-48
-59
-54
-38
-28
-22
-1
-6
-8
-15
-13
-12
-22
-24
-19
-13
-11
-15
-13
-28
-27
-25
-25
-20
-14
-14
-13
-12
-18
-20
-28
-11
-27
-28
-8
-3
-11
-17
-22
-17
-15
-26
-15
-12
-13
-18
-6
-15
-16
-14
-11
-13
-17
-14
-16
-9
-8
-13
-16
-22
-16
-12
-9
-15
-10
4
-6
-14
-22
-15
-16
-17
-17
-10
-11
-10
-4
5
-8
-17
-3
-11
-15
-9
-5
1
1
5
0
-14
2
0
-5
0
16
13
10
16
4
10
7
13
10
15
15
10
24
24
19
15
27
14
16
27
25
28
34
28
17
19
18
16
18
18
22
17
13
15
2
-7
-2
4
4
-3
-4
5
4
2
-16
-16
-20
-8
-13
-18
-1
-8
-7
-9
-16
-25
-15
-17
-10
-15
-9
-5
-10
-17
-23
-21
-19
-19
-26
-19
-15
-10
-8
-15
-14
-21
-17
-20
-15
-13
-8
-19
-12
-14
-33
-22
-8
-12
-20
-19
-15
-14
-20
-30
-14
-25
-11
-19
-27
-22
-9
-4
-6
-17
-22
-17
-15
-22
-15
-14
-10
-6
-11
-22
-17
-18
-19
-21
-14
-11
-23
-11
-4
-22
-16
-19
-18
-11
-16
-23
-15
-8
-6
-21
-22
-21
-18
-20
-12
-18
-13
-15
-32
0
-17
-20
-33
-18
-11
-13
-11
-16
-8
-16
-23
-17
-24
-16
-13
-18
-9
-6
-15
-24
-14
-16
-21
-17
-18
-11
-21
-6
-14
-23
-19
-25
-19
-24
-32
-11
-6
-8
-28
-33
-16
-17
-19
-12
-22
-8
-9
-19
-15
-18
-34
-13
-15
-12
-11
-9
-9
-13
-19
-18
-14
-20
-21
-18
-16
-11
-10
-9
-12
-26
-20
-17
-18
-17
-18
-8
-8
-4
-9
-17
-11
-18
-18
-16
-16
8
-5
-23
13
-1
-9
-8
-4
-2
-1
-9
-5
-11
-14
-14
-19
-26
-19
-20
-23
-11
-21
-17
-8
-28
-25
-23
-17
-23
-12
-8
-14
-9
-19
-30
-25
-23
-20
-17
-21
-13
-17
-19
-20
-20
-25
-22
-26
-35
-36
-32
-34
-53
-24
-21
-12
9
32
52
94
116
121
142
112
72
58
58
21
-4
-28
-56
-55
-40
-31
-21
-23
-26
-27
-25
-16
-12
-15
-25
-19
-21
-23
-30
-29
-26
-17
-16
-15
-15
-26
-22
-23
-23
-28
-22
-21
-13
-18
-17
-29
-26
-23
-20
-23
-18
-23
-18
-18
-35
-27
-26
-33
-25
-12
-19
-25
-11
-2
-9
-27
-18
-32
-17
-13
-18
-12
-15
-10
-22
-22
-17
-19
-23
-18
-15
-10
-8
-8
-13
-17
-19
-14
-18
-19
-9
-10
-9
0
-5
-12
-9
-13
-19
-7
-9
2
-7
10
4
-2
2
4
3
-3
2
11
9
17
13
7
12
12
9
13
21
23
14
20
21
20
5
20
18
23
30
25
35
29
15
9
10
9
8
5
3
2
9
6
0
-2
-7
-9
-18
-6
-4
-11
-12
-27
-32
-10
1
-9
-19
-17
-11
-18
-14
-11
-17
-19
-21
-19
-19
-16
-15
-7
-15
-9
-24
-30
-30
-12
-18
-19
-14
-10
-13
-15
-16
-22
-21
-19
-11
-19
-15
-14
-17
-20
-21
-24
-20
-18
-16
-18
-18
-6
-9
-14
-25
-31
-37
-26
-19
-26
-23
3
-4
-19
-21
-15
-15
-12
-18
-15
-16
-7
-5
-15
-23
-22
-26
-27
-22
-23
-10
-4
-6
-13
-22
-22
-14
-11
-13
-26
2
-9
-12
-20
-24
-16
-21
-15
-19
-18
-13
-13
-12
-12
-22
-19
-20
-15
-15
-18
-11
-7
-13
-21
-23
-22
-18
-20
-20
-17
-12
-11
-8
-24
-21
-32
-29
-49
-43
9
4
7
-6
-15
-23
-18
-17
-17
-20
-17
-8
-12
-18
-23
-34
-40
-15
-27
-11
-13
-6
-5
-6
-14
-23
-22
-22
-20
-18
-13
-9
-10
-16
-15
-21
-22
-23
-21
-15
-10
-7
-2
-5
-25
-30
-29
-24
-33
-29
-10
-1
-3
-10
-21
-20
-22
-18
-19
-18
-18
-7
-5
-4
-26
-31
-16
-18
-26
-31
-34
-6
6
-4
-11
-13
-13
-12
-11
-10
-4
-1
-2
-4
-6
-8
-4
-2
-20
-4
6
6
2
-6
-14
-9
-16
-18
-15
-18
-16
-12
-13
-16
-23
-21
-19
-21
-19
-18
-16
-12
-22
-47
-33
-37
-24
-12
-18
-7
-9
-8
-12
-21
-26
-19
-21
-23
-22
-16
-13
-2
-12
-31
-34
-37
-43
-37
-29
-21
2
30
57
92
108
120
126
111
83
65
63
40
8
-26
-57
-66
-47
-31
-26
-22
-19
-37
-29
-12
-21
-26
-17
-16
-22
-17
-17
-12
-9
-21
-30
-26
-23
-16
-26
-17
-13
-20
-19
-27
-27
-24
-26
-27
-32
-36
-16
-24
-5
-16
-23
-20
-15
-27
-17
-12
-6
-6
-9
-20
-27
-23
-23
-21
-23
-24
-13
-11
-15
-17
-23
-20
-16
-16
-15
-5
-13
-4
-13
-20
-18
-10
-23
-26
-20
-11
-5
-8
-13
-6
-10
-13
2
-9
-1
-1
-4
0
0
-10
-5
-7
-23
-18
-12
11
20
20
4
-8
9
6
15
12
12
20
22
23
14
18
18
18
19
19
18
20
24
25
28
25
16
10
18
13
16
18
16
15
10
-2
7
2
-1
-3
-9
-2
2
-14
-10
-9
-9
-9
-15
-8
-8
-4
-7
-5
-18
-19
-21
-20
-18
-13
-15
-16
-10
-15
-22
-26
-21
-25
-18
-9
-16
-5
-7
-9
-21
-31
-20
-22
-18
-24
-28
-40
-17
0
-11
-17
-17
-19
-13
-14
-13
-9
-5
-16
-16
-20
-19
-18
-27
-25
-23
-21
-16
-8
-15
-14
-17
-18
-17
-14
-11
-7
-4
-10
-17
-20
-15
-20
-17
-14
-12
-12
-7
-12
-20
-19
-23
-20
-29
-21
-16
-8
-19
-9
-1
-16
-13
-15
-12
-13
-12
-10
-9
-13
-18
-20
-21
-15
-20
-24
-30
-18
9
-2
-11
-18
-19
-20
-19
-22
-10
-4
-10
-15
-16
-23
-20
-15
-13
-14
-8
-8
-9
-23
-22
-23
-26
-16
-11
-12
-8
-3
-9
-18
-18
-13
-19
-19
-17
-14
-19
-22
-2
-15
-16
-21
-24
-21
-15
-18
-2
-16
-5
-11
-17
-14
-18
-17
-18
-14
-11
-6
-15
-22
-17
-17
-18
-17
-12
-8
-9
-6
-13
-17
-19
-13
-14
-20
-15
-13
-6
-13
-23
-21
-21
-10
-11
-13
-14
-12
-3
-11
-6
-23
-14
-15
-20
-20
-17
-8
-12
-10
-11
-19
-22
-16
-9
-14
-16
-10
-24
-11
-19
-14
-13
-15
-16
-20
-16
-12
-4
-8
-13
-17
-20
-12
-10
-20
-10
-3
-11
-4
-1
-10
-13
-12
-9
-7
-12
-6
0
2
-6
-6
-7
-5
-2
0
-2
2
1
-4
-6
-8
-22
-7
-15
-14
-16
-15
-18
-13
-13
-14
-16
-15
-12
-17
-10
-10
-12
-9
-14
-19
-15
-20
-25
-14
-16
-16
-27
-25
-3
-12
-21
-15
-13
-25
-16
-11
-13
-30
-33
-46
-37
-20
-1
18
42
71
110
123
130
125
102
78
61
54
17
3
-19
-49
-56
-42
-29
-23
-19
-13
-8
-9
-10
-17
-19
-24
-19
-32
-15
-23
-18
-14
-14
-8
-21
-21
-19
-24
-22
-16
-16
-7
-14
-13
-18
-26
-26
-22
-14
-12
-12
-12
-11
-14
-7
-15
-13
-18
-13
-12
-9
1
-7
-16
-16
-16
-11
-14
-16
-17
-17
-5
1
-6
-14
-29
-20
-9
-7
-15
-5
-2
0
-5
-11
-10
-16
-19
-4
-11
-1
7
4
1
-13
-4
-12
-3
-13
-9
1
-4
8
13
11
0
2
6
16
11
17
21
16
16
6
4
23
18
16
25
27
36
23
25
24
22
20
29
23
28
30
34
28
26
20
21
21
14
16
17
17
12
17
11
9
6
5
0
-3
-1
6
11
-4
-7
-16
-19
-3
-4
-10
-26
-24
-7
-7
1
-13
-15
-13
-10
-9
-12
-8
-2
-11
-12
-24
-18
-14
-12
-17
-16
-9
-4
-5
-18
-14
-11
-13
-18
-12
-14
-8
-5
-18
-17
-13
-18
-23
-17
-7
-7
-2
-7
-4
-15
-17
-13
-16
-16
-20
-22
-28
-21
15
-4
-13
-13
-12
-19
-13
-6
-2
-4
-7
-10
-22
-17
-13
-12
-17
-20
-9
2
-7
-16
-9
-29
-16
-16
-11
-3
-2
-4
-9
-19
-24
-9
-18
-17
-16
-14
-17
1
-6
-17
-13
-18
-17
-10
-12
-11
-8
-5
-13
-17
-18
-19
-18
-18
-12
-4
-7
-7
-12
-20
-17
-15
-16
-13
-18
-14
-4
-12
-8
-20
-22
-23
-16
-12
-11
-4
-5
-7
-14
-31
-12
-10
-17
-13
-13
-23
-5
-5
-32
-19
-6
-3
-16
-16
-9
-14
-11
-9
-19
-25
-21
-21
-21
-20
-12
-14
-3
-11
-19
-25
-28
-24
-5
-27
-10
-11
-3
-20
-15
-20
-24
-24
-18
-16
-17
0
-8
-11
-10
-28
-13
-16
-20
-14
-16
-6
-11
-25
-14
-20
-24
-23
-14
-21
-13
-8
-10
-11
-21
-29
-14
-13
-20
-11
-5
-12
-22
-23
10
-13
7
2
-10
-4
2
-1
9
-3
-12
-14
-7
-16
-26
-22
-10
-14
-11
-12
-24
-22
-22
-19
-16
-15
-12
-15
-11
-16
-21
-24
-29
-18
-19
-21
-17
-20
-19
-10
-32
-32
-18
-17
-17
-17
-17
-19
-29
-29
-32
-44
-43
-28
-26
-8
19
46
78
102
109
123
99
79
58
59
39
17
-13
-57
-78
-74
-61
-35
-30
-26
-12
-8
-10
-32
-24
-22
-32
-24
-17
-19
-13
-20
-23
-21
-32
-21
-24
-33
-20
-21
-27
-28
-7
-9
-17
-23
-18
-27
-26
-24
-15
-13
-13
-12
-20
-21
-24
-22
-18
-14
-13
-16
-9
-21
-19
-26
-27
-25
-9
-10
-11
-13
-26
-34
-21
-9
-6
-22
-22
-6
0
5
-6
-16
-17
-13
-11
-14
-21
-11
-4
0
1
-9
-11
-13
-6
-4
-9
1
8
2
-3
-2
-6
-1
-2
9
8
9
3
0
6
13
1
9
6
19
20
25
20
28
21
15
13
23
20
16
18
30
30
30
25
11
15
21
10
17
17
19
19
20
8
3
3
2
3
-5
3
1
-6
-2
-11
-8
-9
-12
-19
-11
-16
-30
-14
1
0
-9
-15
-25
-12
-10
-14
-12
-14
-13
-12
-17
-20
-30
-17
-18
-9
-12
-3
-9
-22
-22
-22
-22
-17
-13
-26
-12
-10
-10
-26
-21
-24
-24
-28
-25
-16
1
-16
-11
-19
-24
-27
-27
-19
-23
-26
-7
-21
-17
-21
-24
-11
-12
-15
-14
-9
-17
-10
-16
-27
-30
-17
-18
-21
-18
-12
-8
-14
-13
-19
-21
-19
-31
-19
-15
-19
-15
-9
-15
-25
-31
-30
-35
-19
-24
-26
-8
-5
-22
-16
-25
-34
-21
-34
-21
-9
-14
-18
-14
-15
-25
-22
-20
-24
-24
-16
-15
-15
-11
-22
-26
-27
-26
-25
-15
-15
-19
-15
-21
-23
-23
-23
-25
-18
-22
-17
-24
-10
-20
-26
-18
-19
-26
-21
-17
-20
-15
-15
-14
-17
-32
-23
-35
-13
-6
-1
-10
-6
-7
-5
-5
-8
-15
-9
-12
-16
-21
-4
-6
-19
-19
-21
-22
-26
-28
-14
-15
-11
-14
-31
-28
-27
-25
-30
-31
-26
-9
-42
-21
-14
-23
-22
-24
-17
-21
-6
-20
-21
-26
-22
-32
-29
-26
-31
-33
-8
-26
-30
-38
-46
-36
-28
-21
-3
20
58
88
100
94
83
79
69
56
35
25
-9
-50
-71
-72
-73
-55
-39
-31
-28
-26
-16
-22
-14
-24
-23
-28
-29
-23
-28
-30
-21
-20
-26
-37
-22
-19
-25
-36
-31
-27
-24
-18
-25
-21
-27
-28
-28
-32
-23
-20
-16
-19
-32
-28
-29
-22
-30
-34
-22
-13
-10
-13
-21
-23
-24
-25
-19
-29
-24
-11
-26
-12
-19
-29
-26
-26
-14
-13
-13
-24
-11
-11
-24
-27
-14
-14
-22
-21
-30
-1
-6
-19
-11
-11
-15
-5
-10
-6
-6
-1
-4
-3
-6
-16
-7
4
4
-7
12
4
10
13
9
7
8
4
8
6
11
17
16
28
14
10
13
17
17
16
20
22
21
23
14
6
-2
-2
5
-6
0
4
9
18
1
-5
-8
-10
-7
-12
-17
-15
-25
-14
-11
-20
-25
-21
-15
-17
-20
-16
-12
-20
-22
-27
-19
-29
-23
-25
-20
-17
-18
-28
-31
-51
-24
-19
-33
-31
-16
-10
-11
-21
-27
-17
-26
-19
-26
-28
-23
-17
-18
-22
-27
-33
-38
-55
-37
-27
-21
-16
-1
-14
-18
-26
-27
-27
-27
-21
-19
-21
-19
-23
-28
-28
-26
-27
-27
-27
-19
-19
-15
-20
-23
-23
-28
-30
-32
-25
-16
-24
-22
-16
-26
-23
-27
-27
-25
-28
-19
-21
-27
-47
-43
-28
-30
-12
-19
-13
-10
-17
-13
-23
-38
-21
-35
-32
-34
-24
-17
-18
-16
-25
-30
-27
-31
-25
-26
-24
-22
-30
-23
-33
-33
-26
-24
-19
-20
-15
-16
-14
-17
-21
-26
-20
-23
-21
-17
-18
-8
-6
-2
-22
-24
-29
-13
-9
-13
-11
-14
-8
-13
-24
-33
-33
-27
-27
-30
-36
-32
-34
-48
-45
-19
-27
-24
-29
-20
-24
-14
-22
-23
-32
-34
-32
-32
-31
-26
-24
-26
-28
-25
-33
-33
-31
-39
-32
-35
-39
-35
-37
-37
-42
-35
-23
-4
17
44
75
97
104
105
75
40
43
34
14
-17
-51
-65
-65
-66
-50
-41
-45
-40
-32
-39
-37
-18
-31
-37
-34
-29
-31
-28
-28
-27
-24
-23
-25
-30
-37
-35
-37
-35
-38
-47
-43
-24
-26
-27
-30
-30
-37
-36
-31
-28
-18
-29
-23
-34
-30
-32
-37
-36
-34
-30
-40
-41
-33
-26
-27
-44
-32
-19
-32
-22
-22
-20
-18
-25
-33
-30
-28
-30
-29
-24
-23
-23
-17
-26
-35
-26
-27
-25
-24
-9
-13
-8
-11
-23
-22
-26
-19
-18
-17
-14
-10
-7
-9
-10
-14
-16
-16
-18
-8
-3
9
0
11
5
-5
-7
13
6
-7
11
4
-1
9
-16
19
4
4
15
0
13
14
14
2
-2
-6
-2
-2
2
-3
-5
-10
-9
-12
-22
-25
-28
-25
-19
-23
-22
-23
-28
-24
-31
-34
-34
-24
-31
-29
-25
-23
-20
-24
-29
-37
-36
-38
-30
-34
-31
-38
-37
-27
-46
-30
-30
-32
-33
-32
-22
-23
-26
-28
-32
-33
-41
-45
-46
-36
-28
-25
-31
-32
-36
-34
-27
-41
-35
-25
-24
-21
-31
-25
-27
-33
-39
-26
-35
-35
-39
-43
-18
-30
-36
-37
-30
-32
-33
-32
-26
-25
-25
-29
-37
-32
-33
-30
-26
-51
-25
-19
-30
-36
-29
-37
-33
-33
-32
-31
-27
-25
-19
-30
-35
-38
-36
-37
-34
-30
-31
-26
-25
-38
-44
-30
-32
-33
-32
-27
-24
-23
-25
-32
-40
-35
-38
-32
-30
-31
-31
-23
-31
-46
-46
-30
-29
-27
-38
-32
-19
-21
-26
-32
-30
-31
-32
-29
-28
-10
-14
-16
-20
-25
-25
-35
-45
-33
-22
-28
-14
-13
-3
-12
-18
-22
-25
-25
-27
-27
-28
-24
-28
-35
-35
-35
-37
-34
-35
-34
-29
-31
-34
-37
-35
-35
-35
-34
-36
-28
-26
-30
-26
-44
-35
-37
-40
-36
-35
-29
-27
-28
-36
-53
-56
-55
-59
-57
-37
-27
-21
-6
21
31
62
85
102
114
94
78
58
43
16
-5
-30
-63
-77
-65
-54
-38
-26
-32
-25
-36
-33
-33
-36
-37
-33
-36
-28
-32
-51
-43
-40
-37
-34
-31
-33
-30
-32
-31
-38
-40
-38
-40
-38
-37
-31
-36
-34
-32
-48
-32
-31
-35
-38
-32
-34
-33
-26
-28
-35
-38
-32
-36
-40
-31
-32
-32
-30
-48
-33
-22
-34
-30
-28
-30
-26
-22
-24
-24
-32
-34
-33
-30
-25
-27
-25
-19
-26
-49
-33
-22
-22
-27
-33
-20
-17
-14
-16
-19
-25
-19
-17
-15
-14
-15
-16
-8
2
-6
-6
-13
-11
-7
-3
-5
7
5
7
-2
3
-5
1
9
7
2
12
13
11
7
3
2
-1
3
-3
0
6
9
5
-3
-14
-26
-27
-18
-11
-10
-14
-10
-19
-25
-31
-35
-20
-26
-29
-31
-37
-22
-24
-26
-35
-30
-30
-31
-33
-28
-22
-28
-33
-35
-28
-36
-35
-39
-32
-33
-22
-28
-17
-32
-44
-30
-34
-32
-33
-42
-26
-25
-31
-26
-40
-32
-30
-41
-34
-27
-21
-31
-25
-33
-36
-35
-39
-33
-35
-35
-24
-24
-33
-29
-46
-33
-37
-45
-35
-25
-22
-18
-26
-37
-45
-36
-34
-44
-32
-24
-22
-21
-23
-29
-35
-40
-37
-23
-31
-27
-26
-32
-32
-32
-33
-34
-37
-37
-31
-28
-24
-23
-32
-40
-33
-37
-33
-30
-27
-27
-18
-22
-26
-41
-42
-36
-36
-33
-31
-36
-23
-26
-25
-36
-37
-36
-40
-36
-27
-32
-24
-28
-35
-32
-31
-35
-42
-35
-34
-30
-32
-21
-29
-37
-35
-41
-24
-34
-24
-25
-27
-24
-32
-41
-45
-39
-27
-29
-30
-29
-26
-30
-34
-43
-29
-41
-37
-20
-23
-24
-21
-26
-30
-26
-37
-30
-27
-28
-27
-23
-13
-21
-26
-18
-26
-21
-18
-18
-13
-18
-17
-30
-25
-36
-33
-40
-32
-31
-40
-27
-27
-32
-33
-41
-39
-36
-35
-37
-36
-30
-35
-33
-36
-50
-42
-31
-38
-32
-26
-32
-23
-30
-42
-43
-38
-40
-41
-45
-45
-38
-40
-51
-67
-53
-38
-28
-26
-6
52
70
94
122
118
96
73
46
37
20
-2
-32
-67
-68
-59
-49
-41
-38
-35
-40
-34
-29
-28
-35
-42
-43
-42
-46
-40
-42
-32
-32
-37
-42
-41
-37
-39
-41
-50
-35
-30
-31
-32
-33
-40
-44
-36
-41
-42
-38
-35
-32
-29
-31
-39
-36
-35
-40
-38
-40
-35
-34
-41
-35
-37
-33
-40
-34
-45
-53
-30
-32
-40
-20
-22
-41
-35
-40
-30
-31
-31
-23
-29
-30
-33
-35
-38
-30
-35
-28
-22
-20
-27
-17
-28
-26
-32
-34
-24
-25
-19
-14
-14
-18
-21
-26
-22
-11
-16
-8
-5
-7
-1
-6
-11
-9
-8
-5
-2
-1
-4
0
2
5
2
2
-2
2
6
10
13
12
11
-5
-10
-9
-10
-14
-17
-9
4
7
-6
-14
-25
-22
-29
-28
-28
-29
-22
-23
-24
-29
-36
-35
-30
-34
-33
-31
-30
-26
-24
-39
-33
-33
-38
-32
-33
-30
-29
-30
-34
-35
-40
-39
-44
-35
-39
-42
-30
-33
-38
-37
-35
-35
-37
-30
-35
-38
-30
-27
-32
-37
-40
-38
-35
-37
-41
-28
-24
-24
-28
-45
-39
-39
-37
-36
-39
-34
-26
-35
-51
-38
-34
-35
-36
-34
-35
-25
-29
-29
-40
-29
-31
-34
-35
-38
-35
-36
-32
-35
-41
-33
-38
-37
-32
-31
-34
-29
-31
-23
-31
-39
-36
-33
-33
-38
-35
-41
-26
-23
-37
-42
-42
-39
-33
-32
-31
-27
-25
-31
-38
-37
-36
-41
-34
-34
-30
-30
-26
-24
-31
-42
-41
-38
-40
-34
-29
-25
-26
-34
-33
-42
-38
-35
-40
-37
-35
-36
-35
-31
-38
-33
-32
-37
-34
-31
-29
-26
-26
-39
-51
-43
-31
-28
-28
-20
-37
-29
-23
-29
-33
-38
-42
-38
-34
-34
-29
-27
-30
-35
-34
-36
-33
-35
-34
-36
-27
-22
-26
-30
-34
-37
-37
-33
-32
-32
-31
-25
-28
-30
-38
-38
-37
-39
-40
-28
-27
-21
-32
-28
-39
-37
-33
-37
-38
-31
-26
-22
-28
-27
-44
-26
-32
-26
-16
-18
-16
-17
-12
-20
-33
-24
-34
-26
-16
-12
-11
-11
-19
-22
-37
-35
-33
-29
-34
-35
-26
-30
-32
-35
-38
-33
-37
-40
-36
-31
-29
-26
-31
-32
-36
-33
-38
-36
-36
-35
-31
-31
-28
-34
-38
-37
-36
-43
-36
-33
-34
-32
-35
-51
-62
-55
-47
-32
-17
7
34
66
91
107
111
105
75
50
47
31
25
-11
-54
-70
-66
-50
-46
-39
-39
-24
-27
-28
-32
-32
-44
-41
-39
-37
-37
-31
-30
-33
-27
-36
-43
-38
-37
-40
-33
-31
-29
-28
-30
-37
-39
-38
-32
-41
-37
-30
-27
-23
-28
-36
-45
-47
-38
-35
-25
-22
-25
-24
-27
-36
-41
-35
-29
-36
-24
-21
-18
-26
-28
-30
-35
-32
-31
-38
-32
-23
-12
-21
-25
-29
-30
-24
-21
-26
-25
-18
-18
-17
-21
-23
-27
-22
-19
-22
-20
-11
-8
-15
-17
-19
-8
-8
-12
-17
-11
-3
3
8
4
-15
-6
0
6
5
5
7
17
9
5
5
3
8
5
7
9
20
19
16
7
13
2
-1
-3
1
5
12
8
4
-3
-11
-14
-11
-13
-17
-17
-14
-17
-14
-18
-29
-22
-27
-30
-27
-23
-25
-19
-19
-30
-28
-20
-38
-34
-28
-28
-23
-20
-29
-17
-32
-39
-34
-29
-25
-21
-24
-31
-21
-30
-36
-27
-28
-29
-28
-28
-23
-19
-24
-28
-31
-33
-31
-27
-32
-27
-20
-30
-23
-28
-30
-30
-34
-32
-30
-20
-21
-24
-29
-28
-32
-30
-28
-28
-33
-22
-23
-31
-27
-23
-38
-32
-22
-23
-30
-25
-19
-31
-41
-29
-21
-33
-25
-25
-25
-22
-18
-26
-32
-26
-27
-24
-30
-31
-31
-22
-17
-15
-24
-31
-35
-30
-29
-26
-27
-20
-25
-26
-24
-37
-41
-25
-25
-36
-28
-15
-13
-21
-30
-29
-29
-31
-37
-37
-23
-14
-13
-25
-20
-28
-32
-28
-39
-28
-21
-13
-18
-25
-28
-31
-30
-24
-34
-26
-20
-19
-23
-18
-30
-27
-30
-31
-28
-27
-23
-20
-27
-27
-29
-32
-34
-30
-25
-23
-27
-24
-26
-23
-31
-31
-29
-24
-29
-25
-22
-23
-23
-22
-22
-25
-30
-27
-35
-26
-19
-20
-21
-26
-28
-30
-30
-29
-25
-26
-25
-19
-16
-37
-29
-31
-29
-28
-26
-25
-26
-33
-18
-29
-26
-29
-24
-28
-24
-35
-19
-20
-11
-14
-25
-24
-41
-42
-11
-16
-9
-5
-9
-15
-14
-19
-18
-17
-18
-18
-8
-3
-11
-15
-22
-24
-27
-26
-29
-28
-26
-25
-32
-23
-31
-30
-30
-25
-32
-27
-27
-27
-21
-29
-34
-30
-29
-28
-29
-26
-30
-26
-24
-29
-38
-32
-35
-38
-27
-23
-23
-31
-31
-33
-44
-51
-49
-38
-22
-11
13
46
66
81
97
100
87
78
41
50
36
14
-21
-67
-82
-80
-51
-46
-37
-28
-27
-23
-21
-27
-32
-32
-33
-33
-34
-32
-26
-27
-25
-29
-37
-37
-32
-31
-33
-19
-26
-27
-28
-28
-38
-36
-38
-34
-26
-29
-23
-23
-25
-31
-42
-37
-14
-30
-24
-26
-22
-31
-26
-18
-23
-32
-32
-23
-24
-24
-28
-23
-27
-25
-26
-30
-22
-16
-27
-29
-28
-23
-4
-13
-19
-21
-22
-17
-16
-21
-15
-16
-16
-16
-21
-21
-12
-11
-14
-7
-3
-4
-12
-19
-9
-6
-8
-8
-5
-4
-2
4
4
-9
0
4
7
7
6
13
17
15
11
7
3
10
7
16
10
20
23
15
10
5
6
3
4
9
9
11
18
7
2
-4
-9
-20
-21
-4
-13
2
7
-5
-13
-19
-20
-25
-20
-22
-27
-15
-13
-18
-33
-29
-23
-28
-28
-23
-27
-15
-18
-26
-32
-30
-27
-27
-26
-25
-25
-22
-15
-23
-32
-30
-35
-31
-26
-26
-25
-17
-18
-22
-25
-28
-30
-32
-27
-24
-36
-21
-20
-24
-34
-27
-24
-45
-32
-12
-20
-27
-27
-23
-26
-33
-25
-28
-30
-15
-15
-26
-18
-28
-32
-32
-27
-27
-30
-31
-24
-23
-13
-19
-30
-36
-26
-28
-27
-27
-22
-13
-16
-22
-34
-29
-29
-27
-23
-33
-29
-14
-12
-24
-34
-37
-25
-29
-34
-22
-21
-24
-16
-28
-30
-41
-30
-32
-32
-28
-25
-25
-22
-23
-34
-36
-30
-27
-25
-38
-24
-13
-16
-25
-29
-27
