1
-1
-12
-30
-37
-42
-27
-14
-2
1
6
-1
-14
-33
-51
-42
-30
-26
-5
-3
5
-8
-21
-33
-41
-40
-37
-20
-2
-3
-2
-7
-24
-39
-51
-51
-41
-22
-3
5
7
-3
-19
-40
-46
-48
-37
-15
-1
2
-6
-14
-27
-45
-52
-52
-47
-29
-12
-1
0
-6
-21
-32
-49
-47
-41
-23
-6
4
-5
-7
-27
-47
-57
-53
-47
-21
-5
5
5
-3
-26
-43
-49
-44
-38
-20
-11
0
-7
-17
-35
-45
-62
-53
-32
-8
2
3
6
5
-31
-38
-76
-53
-36
-13
-14
-30
-8
-8
-48
-47
-59
-40
-28
-1
13
4
-18
-21
-34
-49
-33
-35
-25
19
16
5
7
-15
-37
-47
-45
-33
-28
-17
3
14
15
-3
-41
-43
-37
-35
-14
-10
-16
-1
16
-20
-28
-43
-51
-57
-34
-12
0
-3
-12
-10
-37
-59
-54
-33
-25
-3
7
4
-12
-28
-39
-51
-54
-54
-31
-23
-15
-12
-17
-26
-56
-57
-46
-6
35
54
79
95
99
87
69
50
10
25
32
31
20
0
-50
-82
-98
-109
-96
-83
-57
-29
-30
-30
-28
-44
-54
-59
-55
-43
-23
-9
5
1
-11
-32
-46
-45
-50
-35
-11
1
7
-3
-3
-19
-35
-46
-43
-17
0
5
14
-1
-3
-33
-46
-34
-32
-22
-4
7
19
13
-3
-28
-34
-35
-15
-16
-4
2
23
14
6
-15
-27
-30
-27
-21
7
25
36
24
8
-8
-12
-23
-13
-2
20
32
34
27
18
2
4
2
14
24
51
67
66
55
44
28
14
16
29
47
71
83
74
58
62
47
36
25
34
49
65
67
73
64
47
21
13
14
20
32
41
51
47
35
17
-2
-13
-6
-3
7
25
30
21
14
0
-20
-30
-28
-17
-8
12
18
5
7
-19
-31
-38
-38
-28
-14
1
7
4
1
-17
-32
-38
-42
-19
-5
7
14
7
4
-12
-22
-35
-43
-39
-3
6
14
14
5
-16
-37
-35
-35
-27
1
15
17
12
1
-13
-27
-35
-33
-19
5
18
14
5
-1
-22
-37
-38
-29
-19
6
13
17
9
5
-25
-36
-40
-24
-23
-12
12
12
3
-5
-24
-42
-43
-24
-23
-5
8
9
9
-12
-23
-40
-42
-35
-19
-4
1
8
-4
-12
-36
-45
-40
-26
-19
-4
13
3
-7
-14
-34
-45
-38
-31
-23
-8
4
2
-4
-13
-34
-47
-44
-38
-17
2
7
8
3
-16
-35
-43
-42
-33
-14
-1
5
5
-9
-28
-38
-45
-46
-37
-20
-5
6
8
2
-19
-33
-47
-46
-29
-14
-3
2
-1
-7
-28
-48
-45
-48
-36
-14
-2
10
2
-4
-28
-35
-42
-35
-32
-13
-7
3
4
-10
-25
-36
-44
-41
-32
-14
6
11
-1
-10
-32
-45
-46
-43
-33
-9
1
4
-4
-6
-34
-47
-47
-40
-29
-13
3
2
-2
-9
-25
-37
-43
-37
-33
-15
-2
10
3
-11
-33
-45
-52
-42
-29
-8
7
7
-2
-13
-30
-44
-45
-39
-27
-7
7
7
-5
-17
-38
-42
-41
-37
-26
-9
1
5
-2
-14
-35
-39
-50
-43
-27
-11
0
3
-4
-16
-32
-42
-43
-33
-21
-1
6
10
-4
-21
-43
-49
-43
-33
-16
-3
7
2
-13
-21
-39
-46
-46
-37
-22
0
8
9
1
-21
-36
-47
-41
-42
-16
-3
8
7
0
-21
-40
-44
-39
-38
-17
-2
5
7
-4
-22
-36
-43
-36
-29
-13
0
8
8
-1
-19
-39
-48
-45
-30
-12
0
7
1
-7
-18
-30
-33
-34
-38
-16
2
14
4
-3
-27
-39
-40
-34
-26
-4
8
4
1
-10
-28
-38
-46
-36
-25
-4
5
7
0
-2
-25
-41
-44
-37
-29
-9
7
11
2
-7
-24
-36
-38
-30
-17
1
5
8
-8
-8
-28
-47
-45
-28
-19
4
17
20
10
-7
-26
-32
-32
-23
-9
13
25
18
9
-4
-22
-30
-28
-19
-5
13
20
19
8
-15
-29
-38
-38
-43
-24
1
8
2
-1
-15
-33
-48
-39
-27
-8
1
7
5
-11
-25
-43
-57
-49
-41
-24
4
25
30
27
32
34
36
55
77
96
104
93
62
53
27
-1
-25
-40
-72
-60
-47
-42
-48
-49
-65
-68
-68
-62
-52
-29
-4
4
4
-7
-27
-43
-47
-42
-27
-9
1
13
5
-4
-20
-36
-42
-39
-29
-3
12
13
7
-5
-28
-36
-38
-32
-17
-1
12
16
8
-10
-29
-37
-34
-25
-17
5
27
27
13
-7
-28
-28
-33
-17
-3
11
22
22
17
10
-17
-19
-19
-5
9
14
27
30
16
5
-1
-15
-9
0
9
29
41
46
41
35
18
8
8
12
39
55
60
71
62
43
31
18
21
34
50
67
75
72
56
45
26
19
18
24
40
52
56
63
52
35
16
5
4
10
32
44
46
41
35
18
-1
-12
-11
0
8
25
35
28
17
-1
-15
-29
-19
-9
4
20
25
22
7
-13
-27
-31
-25
-19
5
16
22
20
11
-13
-33
-34
-28
-20
3
14
17
15
4
-18
-26
-32
-25
-14
10
23
27
15
5
-14
-24
-25
-19
-16
5
19
21
16
2
-18
-25
-23
-21
-7
15
19
22
16
3
-18
-30
-33
-19
-6
8
14
17
9
6
-16
-33
-35
-23
-8
8
18
24
8
-1
-21
-33
-32
-19
-13
2
17
21
11
-3
-23
-31
-27
-19
-13
10
18
20
14
-8
-22
-31
-26
-25
-11
0
16
18
10
-9
-31
-37
-36
-18
2
15
14
6
1
-10
-25
-34
-30
-21
-3
8
16
10
8
-8
-25
-33
-34
-21
-3
9
20
22
10
-13
-29
-45
-31
-17
-1
12
21
15
3
-19
-33
-34
-29
-19
0
13
15
7
9
-11
-30
-33
-23
-21
1
5
13
15
5
-14
-32
-40
-29
-17
2
12
17
9
1
-15
-24
-33
-23
-18
2
15
17
12
2
-23
-30
-42
-27
-14
6
20
18
11
3
-18
-29
-32
-29
-19
4
21
25
18
7
-23
-32
-27
-13
4
18
25
21
15
6
-8
-22
-23
-13
4
25
36
32
21
3
-9
-17
-16
-12
-7
19
33
23
11
-2
-20
-31
-29
-22
-6
2
17
20
14
-12
-24
-31
-30
-21
-4
9
20
17
10
-10
-30
-32
-37
-27
-10
0
9
5
2
-18
-23
-18
-9
17
38
71
94
112
106
67
45
17
14
28
33
29
16
-17
-43
-60
-68
-69
-66
-59
-43
-30
-18
-11
-21
-32
-37
-40
-31
-20
5
11
15
18
7
-11
-21
-29
-20
-16
6
15
30
26
3
-16
-27
-30
-19
-9
14
22
31
27
15
0
-12
-19
-14
0
17
30
28
19
11
-3
-15
-18
-7
6
28
34
32
24
14
-4
-13
-12
-2
13
27
34
32
34
22
7
-5
-8
3
18
43
51
51
46
39
21
12
6
18
44
61
75
76
69
56
35
31
33
45
63
82
98
91
79
64
39
33
37
43
63
84
91
86
75
53
37
30
31
35
53
68
72
58
48
31
10
3
3
14
29
47
50
42
32
10
-3
-9
-6
-1
7
22
27
23
12
-2
-13
-19
-17
-14
6
17
23
20
14
-10
-28
-27
-18
-7
15
24
27
20
10
-8
-17
-31
-26
-9
8
18
25
14
12
-9
-19
-20
-13
-4
13
22
23
22
7
-14
-28
-24
-13
-4
14
19
24
12
5
-10
-28
-23
-12
-6
8
14
22
16
7
-11
-26
-27
-24
-12
14
29
29
16
7
-19
-30
-34
-19
-7
12
21
14
12
-4
-23
-36
-42
-30
-11
9
19
18
9
-4
-26
-25
-25
-25
-5
9
19
18
8
-11
-25
-32
-27
-15
-2
17
27
18
17
-2
-20
-31
-29
-14
-1
15
19
22
9
-5
-25
-30
-22
-8
12
25
31
27
11
-5
-12
-16
-20
-7
7
30
31
26
19
0
-17
-22
-22
-20
-4
16
22
10
4
-18
-22
-31
-30
-19
3
10
12
8
5
-15
-26
-36
-32
-20
5
12
14
3
4
-20
-33
-40
-34
-31
-14
0
4
0
-3
-11
-17
-4
17
42
72
105
111
100
81
46
25
12
16
20
23
0
-28
-38
-47
-68
-68
-75
-65
-57
-35
-18
-11
-14
-18
-32
-41
-36
-26
-11
9
15
11
-1
-5
-25
-29
-29
-17
-5
12
18
21
15
3
-16
-28
-29
-18
-5
8
16
26
18
-4
-20
-22
-18
-11
4
16
27
26
18
0
-16
-21
-18
-12
7
21
35
29
14
4
-11
-16
-13
-3
17
35
42
33
26
9
-2
-8
-5
0
24
40
43
44
41
24
17
10
23
36
53
71
74
70
70
53
37
31
34
47
71
85
90
80
77
55
39
36
47
50
71
77
86
80
62
36
25
14
22
29
50
54
58
46
39
20
6
0
-3
5
26
33
35
32
22
-2
-17
-19
-15
-4
20
23
17
13
6
-11
-20
-26
-21
-8
14
23
17
8
1
-20
-28
-25
-17
-9
15
22
28
19
1
-28
-33
-30
-18
-1
17
27
28
13
0
-19
-22
-20
-12
-2
17
21
23
13
-1
-19
-26
-26
-13
8
22
24
20
11
6
-13
-25
-26
-11
4
19
26
21
13
-4
-19
-28
-19
-11
6
20
23
16
9
-4
-18
-25
-25
-18
-2
12
19
11
6
-13
-23
-35
-26
-16
0
9
20
24
14
-9
-20
-26
-22
-16
1
17
25
25
15
-13
-29
-33
-25
-12
9
25
19
10
11
-9
-26
-28
-16
-5
17
33
32
20
20
-2
-13
-16
-11
1
20
30
27
21
8
-7
-13
-19
-15
-7
8
17
23
14
0
-19
-28
-32
-24
-13
6
16
21
14
-2
-24
-32
-34
-26
-10
11
22
18
10
2
-22
-30
-36
-33
-19
-2
12
8
-5
-9
-18
-19
-5
22
51
80
105
112
104
90
60
28
32
39
41
41
25
-18
-41
-54
-69
-71
-68
-60
-38
-21
-7
-3
-7
-22
-33
-35
-33
-22
-4
11
20
20
9
-9
-20
-26
-23
-15
3
15
20
19
16
2
-12
-22
-18
-8
10
25
30
28
16
-1
-16
-28
-18
-10
12
30
32
29
16
-4
-11
-18
-15
-4
21
32
32
32
19
-2
-11
-16
-7
7
24
35
44
38
33
13
-6
-2
5
15
39
43
53
46
36
22
16
19
30
36
59
74
78
76
66
46
38
35
47
60
79
90
97
83
76
58
42
38
50
56
77
84
90
77
58
41
34
31
37
40
53
66
65
49
40
22
9
6
11
24
35
44
45
32
15
-2
-16
-16
-4
3
23
30
30
22
2
-14
-21
-22
-16
2
19
28
27
17
0
-12
-22
-15
-5
11
22
31
28
17
-2
-19
-25
-20
-10
13
19
25
23
14
4
-9
-14
-18
-15
10
26
36
33
28
1
-15
-18
-18
-8
13
26
35
29
18
-2
-14
-18
-12
-3
15
33
38
32
20
-6
-22
-23
-16
-7
18
30
28
22
14
-8
-19
-28
-14
-4
15
22
26
19
10
-9
-16
-19
-13
-5
17
27
33
24
10
-11
-22
-23
-13
-1
15
23
30
19
5
-11
-26
-24
-18
-9
14
26
26
20
1
-16
-29
-27
-14
4
14
19
25
18
0
-17
-30
-28
-13
-5
12
22
23
13
-1
-16
-22
-25
-15
0
16
25
23
18
1
-16
-20
-21
-7
10
18
30
28
27
5
-11
-16
-15
-1
21
32
38
30
21
4
-10
-23
-21
-8
16
30
30
24
24
2
-15
-22
-16
-9
10
18
22
17
9
-13
-25
-32
-23
-16
-1
20
17
13
7
-13
-25
-26
-28
-21
0
15
20
14
8
-16
-37
-43
-35
-23
-7
4
10
9
12
11
21
36
59
91
116
135
128
100
65
33
16
0
-12
-19
-31
-39
-31
-37
-41
-63
-72
-61
-43
-33
-17
-5
-1
-4
-10
-23
-33
-31
-25
-11
4
13
21
13
-1
-22
-31
-28
-26
-8
10
19
18
9
-1
-19
-27
-25
-12
2
16
27
22
21
1
-19
-27
-25
-14
5
21
30
31
23
1
-6
-26
-24
-9
8
26
36
32
25
5
-5
-13
-7
19
10
3
12
13
35
50
59
55
47
28
22
20
26
35
58
77
85
87
79
58
45
42
49
59
74
82
89
88
79
61
50
42
45
54
81
90
82
79
64
40
31
20
23
37
60
68
67
55
41
20
6
-2
5
16
34
40
45
40
29
3
-15
-24
-9
8
22
34
32
22
10
-20
-24
-20
-8
0
16
28
30
19
8
-11
-25
-24
-9
6
22
33
32
22
12
-7
-14
-15
-10
3
22
28
30
22
14
-2
-12
-14
-4
9
26
35
39
28
9
-12
-17
-14
-4
12
27
35
38
28
13
-9
-16
-10
-4
8
19
33
35
21
12
-9
-19
-8
4
13
24
33
29
21
4
-14
-17
-11
-1
8
26
32
25
22
4
-15
-25
-22
-10
15
27
34
31
19
-1
-14
-20
-15
-10
9
22
29
24
19
-1
-14
-24
-17
-14
10
21
31
28
18
-3
-10
-20
-11
-2
14
26
33
24
13
-10
-15
-20
-16
1
20
32
30
23
14
-3
-20
-26
-12
-2
18
30
31
23
11
-11
-20
-23
-11
1
20
33
34
23
8
-8
-21
-20
-13
-2
25
33
31
25
12
-10
-21
-15
-9
4
24
36
32
19
7
-10
-27
-22
-8
6
22
33
29
18
3
-14
-22
-22
-10
8
23
37
29
15
5
-15
-23
-21
-11
5
22
31
34
31
10
-9
-15
-16
-10
13
29
32
39
27
4
-13
-17
-13
-5
16
35
40
33
23
8
-2
-7
3
10
26
33
39
41
36
15
1
-3
-4
5
27
39
42
38
27
6
-7
-15
-9
1
18
31
31
25
16
-5
-16
-16
-14
-10
15
25
32
29
11
-8
-15
-20
-10
-2
12
33
34
30
17
-12
-23
-25
-19
-10
10
19
17
17
19
3
10
25
53
78
112
132
136
115
82
44
41
38
31
21
15
-5
-19
-27
-41
-56
-60
-58
-50
-26
-8
7
19
13
0
-21
-28
-17
-9
6
15
30
31
23
7
-7
-17
-17
-7
10
28
40
42
26
9
2
-5
-16
-10
8
26
34
37
24
9
8
-9
-10
0
21
31
43
40
39
22
7
1
-3
7
20
32
47
42
35
17
3
-7
1
8
31
45
59
55
43
22
9
8
21
24
39
46
58
58
58
38
26
21
34
38
64
73
79
82
77
60
46
43
48
63
84
97
98
91
93
71
59
44
50
58
81
88
87
80
77
56
36
33
45
45
65
73
73
63
51
37
22
18
24
23
46
51
58
46
40
16
6
1
10
19
31
39
42
33
22
4
-6
-12
-5
9
26
37
35
27
13
-6
-11
-6
1
6
28
40
39
30
14
-11
-13
-15
-3
18
29
39
36
27
16
2
-3
-4
-2
17
31
38
36
31
14
4
-5
-6
4
23
35
39
39
35
17
3
-8
-7
3
17
34
43
42
32
13
-7
-15
-10
3
23
32
43
39
30
13
-6
-14
-1
-1
19
28
36
32
26
6
-12
-9
-7
-5
17
35
42
34
23
-1
-17
-15
-9
1
23
36
38
28
27
1
-15
-13
-8
-3
19
30
35
31
17
-6
-18
-23
-15
-2
12
31
40
31
21
0
-17
-18
-13
-4
18
29
35
25
13
-4
-16
-18
-11
1
19
32
31
21
10
-8
-15
-14
-9
5
29
39
33
21
16
-11
-27
-26
-9
8
25
34
25
21
10
-5
-18
-21
-16
2
24
33
27
13
0
-17
-25
-14
-4
10
22
23
23
18
-2
-14
-14
-11
-4
3
17
30
28
18
3
-9
-20
-15
-8
5
24
29
20
14
-4
-13
-20
-17
-7
10
26
32
26
17
-2
-14
-20
-18
-8
16
25
29
28
20
-3
-16
-18
-5
3
16
27
36
36
25
9
-7
-9
-2
6
27
36
40
35
26
8
-5
-8
1
8
23
35
41
34
19
-4
-13
-12
-10
-4
17
31
29
24
18
-2
-23
-24
-16
-5
19
27
29
28
15
-5
-18
-27
-17
-7
10
34
33
23
10
-11
-26
-29
-23
-12
7
17
7
8
5
-1
6
26
54
75
122
146
147
129
99
63
31
29
25
26
25
1
-22
-31
-45
-59
-66
-56
-39
-19
-3
10
12
6
-4
-16
-25
-23
-21
0
17
24
24
18
-2
-16
-24
-20
-9
4
20
26
27
23
2
-9
-17
-13
-8
8
21
35
27
19
2
-13
-20
-21
-5
13
27
36
32
27
4
-7
-15
-5
-1
26
38
46
38
26
6
-4
-11
1
10
25
41
49
45
32
15
2
0
6
14
40
53
58
58
51
34
16
17
22
37
63
77
80
73
67
52
40
46
56
65
90
101
98
88
81
65
54
48
54
60
79
91
93
86
73
51
38
36
37
51
66
75
77
61
50
29
18
16
19
25
43
52
46
39
27
7
-5
-8
1
15
32
47
40
26
10
-8
-18
-19
-9
5
20
32
34
22
4
-11
-19
-11
-5
11
23
34
27
24
7
-4
-13
-16
-12
6
23
37
34
27
9
-3
-16
-19
-1
20
27
33
36
24
13
-8
-14
-8
2
22
35
37
34
26
8
-6
-15
-6
4
20
29
31
27
19
2
-14
-15
-10
-2
15
25
33
29
18
6
-4
-12
-16
-7
12
25
35
31
21
-4
-17
-14
-12
-5
13
28
32
25
13
-9
-17
-20
-9
-1
13
26
35
21
13
-14
-21
-24
-9
-2
20
30
27
25
12
-12
-23
-27
-17
-1
18
22
27
16
4
-7
-11
-26
-21
-4
15
24
26
19
5
-11
-25
-20
-9
2
17
29
19
17
5
-13
-24
-23
-14
-3
15
25
29
12
-2
-16
-21
-19
-17
6
13
23
22
15
6
-12
-21
-18
-12
7
18
22
24
11
-6
-16
-29
-24
-11
4
18
19
16
13
-5
-18
-26
-25
-14
1
20
26
19
12
-5
-19
-24
-27
-18
8
23
24
20
12
-9
-26
-27
-20
-16
4
15
27
15
10
-14
-27
-27
-25
-10
5
18
17
14
3
-14
-23
-31
-22
-5
7
19
21
9
4
-18
-27
-33
-26
-16
7
22
25
13
0
-21
-31
-30
-23
-13
11
14
21
12
-1
-19
-27
-28
-16
-12
3
15
20
13
-3
-20
-26
-22
-17
-6
6
20
18
15
-1
-20
-30
-34
-23
-7
9
20
18
14
-1
-16
-23
-27
-18
-2
13
19
21
11
-4
-22
-29
-22
-12
4
19
24
26
20
2
-10
-20
-21
-8
6
24
26
26
21
6
-12
-16
-18
-10
5
29
38
34
25
7
-7
-18
-18
-7
9
19
25
18
14
-15
-25
-34
-27
-21
-1
12
17
14
7
-15
-26
-37
-31
-21
-2
10
16
12
11
-6
-27
-42
-37
-30
-12
3
3
1
0
-9
-11
-13
22
49
86
116
131
130
124
87
55
35
32
26
22
8
-13
-40
-53
-78
-87
-81
-64
-55
-31
-12
-5
-6
-11
-27
-35
-35
-28
-17
7
21
11
6
-3
-25
-32
-37
-26
-5
14
24
22
13
1
-17
-26
-23
-16
-12
11
20
23
17
5
-15
-24
-22
-18
-5
18
27
25
23
6
-9
-23
-24
-11
9
25
33
33
20
4
-9
-15
-13
-3
13
32
40
38
30
14
1
-7
-10
2
24
43
48
46
38
20
16
9
16
23
43
57
69
71
61
44
34
35
39
48
65
80
89
89
78
62
44
39
46
57
77
87
82
78
71
53
31
27
35
36
60
73
75
67
56
41
24
13
18
23
38
50
52
50
34
13
-4
-4
-6
-3
22
34
33
27
16
-2
-10
-15
-13
-6
8
26
33
20
15
-14
-20
-18
-10
-1
12
27
28
19
8
-16
-20
-25
-15
-1
13
30
33
24
10
-6
-19
-19
-12
3
19
34
24
16
4
-9
-12
-20
-11
6
23
34
33
21
10
-7
-18
-17
-6
13
24
33
29
20
1
-11
-16
-17
-11
11
23
30
25
14
1
-12
-20
-22
-15
8
26
29
27
13
0
-17
-22
-15
-15
-1
13
26
21
20
-7
-22
-21
-19
-18
5
21
27
22
12
-7
-21
-24
-19
-14
1
12
25
17
5
-13
-22
-23
-25
-19
6
16
22
23
6
-7
-25
-28
-20
-12
9
28
32
17
8
-8
-27
-27
-21
-10
10
20
25
16
2
-16
-28
-27
-14
-6
9
27
23
16
11
-16
-29
-29
-22
-12
15
22
24
18
3
-12
-22
-21
-19
-5
12
21
20
16
5
-13
-19
-22
-20
-2
16
25
24
16
8
-13
-19
-19
-9
2
22
33
32
11
0
-12
-19
-12
-11
7
27
37
38
27
11
-8
-15
-11
-2
17
29
39
32
30
12
1
-14
-16
-3
12
23
28
24
17
-2
-19
-22
-15
-14
3
19
26
22
14
-3
-17
-28
-19
-12
4
14
25
23
14
-2
-17
-28
-31
-19
1
14
13
6
-2
-17
-20
-17
4
30
56
83
103
106
106
81
61
37
31
41
50
45
36
0
-41
-53
-69
-74
-72
-61
-40
-30
-22
-16
-20
-30
-36
-35
-29
-17
8
18
23
12
4
-8
-22
-25
-20
-7
19
28
30
17
8
-11
-23
-23
-12
4
15
27
33
26
9
-6
-17
-16
-7
11
21
30
31
25
12
-1
-18
-19
-14
11
27
36
36
29
14
1
-9
-14
0
15
34
47
47
31
20
-1
-9
0
11
28
40
52
52
45
31
16
10
19
26
39
54
69
67
64
49
34
31
40
52
72
84
90
89
81
66
55
54
50
56
75
94
93
91
76
61
48
40
47
43
62
74
76
65
62
41
23
17
14
20
42
55
56
47
33
12
-1
-7
-3
11
28
37
37
35
24
4
-12
-21
-16
-7
21
28
27
20
11
-10
-20
-21
-14
-1
22
29
26
22
11
-10
-26
-25
-11
-2
15
26
33
21
10
-10
-20
-13
-14
-2
20
30
28
25
13
-5
-16
-17
-5
6
18
36
29
23
8
-7
-16
-10
-6
1
21
35
30
26
13
-9
-16
-25
-11
6
25
32
29
21
4
-11
-21
-19
-14
5
25
38
35
19
2
-13
-19
-17
-6
8
21
33
26
18
3
-12
-14
-21
-14
8
22
28
26
13
-4
-19
-21
-17
-6
7
22
36
24
14
-7
-24
-27
-25
-12
9
18
30
30
27
1
-15
-17
-11
-2
15
25
31
23
18
-1
-13
-17
-9
-2
19
31
31
31
26
7
-8
-11
-8
4
21
37
43
33
26
3
-9
-15
-2
6
22
29
27
22
11
-19
-26
-23
-10
0
16
27
21
13
1
-18
-24
-32
-21
-4
17
28
25
13
4
-23
-31
-25
-21
-12
7
18
12
-1
-14
-29
-37
-34
-8
16
53
65
85
85
93
83
75
68
62
56
75
83
58
26
-21
-64
-81
-77
-75
-54
-31
-22
-23
-24
-36
-45
-48
-45
-28
-8
9
16
17
6
-8
-25
-31
-31
-18
6
21
20
11
9
-6
-14
-22
-27
-12
9
21
32
22
18
0
-12
-24
-23
-6
6
23
33
27
16
-4
-18
-22
-12
-5
20
34
31
30
12
2
-13
-15
-9
2
28
30
32
31
24
10
0
-3
-2
7
30
42
49
49
34
15
10
8
17
29
48
62
63
62
54
37
32
31
42
55
77
92
92
88
82
59
54
55
63
66
81
96
92
84
64
53
42
40
46
60
78
85
79
67
54
34
23
19
20
29
47
52
50
39
27
7
-8
-8
-3
10
25
32
33
29
9
-13
-20
-18
-8
2
20
25
15
10
-2
-16
-28
-27
-17
1
15
25
23
16
-1
-20
-26
-23
-7
7
12
22
21
13
-3
-21
-27
-18
-7
11
20
22
24
20
0
-13
-18
-19
-7
6
20
34
30
14
-5
-19
-23
-18
-7
12
23
34
27
15
-8
-22
-25
-7
-1
12
23
23
20
9
-5
-19
-23
-19
-10
16
27
29
20
12
-11
-19
-21
-13
-13
7
22
26
24
7
-15
-21
-23
-20
-16
14
22
26
16
10
-13
-17
-28
-22
-9
11
20
23
19
7
-14
-27
-27
-18
-7
12
22
22
17
2
-16
-25
-23
-16
-2
16
22
20
15
-8
-17
-27
-29
-20
0
16
21
16
12
1
-19
-21
-23
-16
0
21
24
23
19
4
-9
-19
-22
-11
2
11
26
27
17
-1
-19
-29
-19
-9
8
18
27
26
19
5
-10
-14
-20
-14
12
28
39
33
23
7
-5
-11
-7
3
24
32
37
30
29
7
-6
-18
-18
-8
15
30
32
29
22
-5
-19
-29
-21
-13
8
19
28
17
11
-7
-21
-27
-17
-9
13
22
21
13
8
-8
-23
-27
-21
-11
7
12
7
-4
-7
-12
-7
8
31
57
94
126
137
134
120
88
51
40
40
36
30
26
-5
-27
-49
-65
-72
-67
-54
-41
-17
-7
-1
0
-6
-17
-26
-29
-24
-8
10
21
24
16
4
-5
-26
-28
-15
1
18
24
21
15
3
-12
-23
-26
-11
3
22
30
27
16
-1
-10
-21
-18
-4
10
26
31
30
19
9
-7
-14
-18
-8
11
27
40
35
30
11
3
-12
-11
-5
17
31
39
43
38
22
4
-5
-3
10
32
44
50
49
44
28
20
15
21
25
51
73
77
71
67
55
42
39
46
60
78
91
95
89
87
60
50
46
48
56
81
95
94
94
71
49
46
35
39
52
64
76
78
58
52
27
13
11
18
28
44
49
43
34
23
5
1
-9
1
9
24
34
31
29
16
-10
-20
-18
-13
-1
15
21
20
16
9
-14
-18
-19
-14
3
13
25
23
18
-3
-14
-18
-23
-13
3
22
38
36
24
6
-10
-21
-17
-14
5
24
34
33
19
6
-10
-20
-20
-7
6
24
35
31
23
10
-5
-23
-15
-3
19
22
23
28
21
4
-9
-15
-12
-6
15
29
32
29
17
2
-11
-14
-16
-5
9
20
27
28
21
1
-12
-19
-15
-7
12
28
27
24
15
-5
-17
-24
-19
-6
18
29
31
22
15
-5
-12
-15
-11
-4
13
26
35
12
10
-7
-19
-21
-20
-9
14
25
26
25
15
-5
-20
-25
-14
-2
17
26
30
20
16
-3
-17
-20
-14
-8
7
26
29
25
16
-9
-17
-23
-21
-4
18
24
22
17
12
-8
-17
-16
-11
2
17
29
21
16
4
-11
-20
-18
-9
9
21
28
29
28
8
-8
-17
-19
-13
2
14
23
30
19
6
-17
-25
-14
-10
9
19
32
25
15
-3
-8
-15
-13
-3
14
21
26
23
17
3
-12
-25
-18
-8
11
23
31
31
16
0
-17
-18
-10
-6
19
29
40
27
17
-6
-15
-13
-8
-1
22
30
36
30
25
1
-3
-9
-11
2
24
42
37
33
25
10
0
-8
-1
7
32
40
43
41
24
-4
-1
2
12
11
24
39
45
34
19
3
-9
-13
-5
4
22
36
34
27
21
3
-17
-19
-11
1
20
27
32
25
12
-3
-16
-18
-12
1
19
28
30
19
2
-22
-31
-25
-14
-4
20
41
46
54
54
49
56
78
98
115
123
112
87
83
65
28
1
-24
-53
-45
-28
-21
-18
-27
-42
-48
-56
-51
-36
-7
6
19
22
16
3
-9
-16
-13
-7
0
22
38
35
26
5
-15
-20
-13
-2
14
25
38
34
29
16
-1
-13
-15
-5
16
30
37
36
27
8
-6
-10
-8
1
22
34
39
37
26
8
-1
-7
2
6
26
34
41
40
32
16
0
-7
5
18
33
46
52
44
40
27
8
9
11
25
45
56
67
64
61
40
25
25
39
56
66
80
88
82
73
53
47
43
54
63
77
96
98
84
78
52
44
45
49
62
75
89
86
71
58
48
36
33
40
47
60
72
66
59
45
22
17
13
25
38
59
49
48
39
25
6
-3
-7
2
12
29
40
32
28
9
-6
-18
-12
-5
12
26
41
34
25
9
-8
-18
-14
2
16
34
37
33
24
5
-5
-12
-9
-3
16
26
34
36
28
12
-6
-15
-12
3
27
35
39
33
28
12
-16
-15
-3
2
15
31
37
43
29
9
-3
-11
-7
4
18
33
38
33
30
10
-6
-8
-8
3
16
34
37
31
27
8
-13
-22
-8
0
27
33
38
31
19
-2
-15
-16
-9
2
31
33
38
34
21
-2
-18
-17
-11
-6
13
33
34
26
16
-7
-22
-14
-3
9
21
25
31
19
11
-8
-17
-11
0
3
18
34
30
22
13
-10
-19
-20
-10
6
24
33
36
26
10
-5
-11
-19
-9
3
24
30
34
22
10
-11
-16
-12
0
14
31
36
33
25
12
-5
-16
-14
-2
20
34
41
37
35
18
2
-8
0
5
18
35
45
37
27
15
7
-1
-2
5
16
34
34
34
31
14
1
-11
-14
-5
6
17
26
28
16
3
-11
-29
-18
-9
10
23
27
24
13
-3
-14
-22
-17
-10
8
21
23
15
5
-13
-29
-37
-26
-9
26
54
67
75
79
76
75
72
75
68
72
80
75
50
20
-14
-53
-71
-66
-60
-35
-25
-20
-27
-33
-45
-50
-52
-37
-17
5
22
22
15
0
-19
-27
-22
-18
-5
14
26
30
25
10
-15
-22
-24
-18
-2
17
28
28
20
9
-10
-21
-25
-6
4
20
29
32
21
7
-9
-19
-20
-10
8
24
36
32
28
10
-11
-16
-11
-4
4
22
31
38
31
12
-3
-12
-7
2
24
39
50
46
40
22
8
9
2
12
33
48
55
59
53
38
27
24
29
35
60
77
85
83
73
59
41
39
43
54
73
85
90
82
69
52
38
31
37
43
64
71
76
70
57
38
21
9
12
18
41
52
51
45
35
14
-5
-7
-10
-3
13
19
25
17
9
-8
-20
-22
-18
-4
11
17
18
13
9
-11
-32
-37
-29
-18
4
20
17
4
2
-25
-34
-34
-22
-13
7
16
14
5
-2
-19
-27
-29
-25
-9
11
19
24
9
-3
-16
-25
-29
-20
-10
6
19
23
11
1
-19
-28
-30
-17
-4
13
16
13
5
-9
-18
-30
-26
-19
-3
12
15
14
2
-12
-24
-29
-32
-27
-9
7
14
9
5
-13
-26
-36
-30
-22
-3
5
11
7
0
-16
-30
-39
-37
-24
-5
13
16
5
-3
-24
-34
-40
-32
-23
-3
7
12
7
-4
-27
-38
-44
-32
-25
-4
9
12
6
-2
-18
-32
-39
-37
-28
-9
2
3
0
-6
-26
-36
-38
-31
-20
-7
1
8
-1
-10
-26
-36
-42
-33
-27
-5
6
2
1
-1
-19
-33
-36
-26
-23
-1
15
9
-2
-15
-29
-40
-40
-30
-17
3
13
20
7
-5
-23
-36
-29
-24
-9
5
16
19
12
-4
-19
-25
-29
-29
-15
0
12
11
-1
-19
-32
-37
-38
-30
-19
-8
1
5
-17
-25
-42
-52
-53
-42
-19
-8
1
-4
-13
-30
-47
-50
-47
-38
-20
-12
-1
-20
-25
-42
-58
-64
-60
-38
-5
26
49
68
65
69
70
60
56
48
47
56
51
29
3
-37
-85
-101
-103
-93
-67
-53
-41
-40
-43
-58
-64
-73
-63
-48
-27
-16
-5
-10
-24
-42
-53
-57
-52
-45
-25
-6
-5
-14
-17
-31
-44
-47
-50
-45
-19
-8
-2
-6
-16
-36
-50
-47
-45
-39
-15
-4
-3
-8
-11
-38
-44
-49
-38
-28
-9
3
3
0
-15
-33
-39
-42
-35
-24
0
8
8
2
-7
-29
-36
-37
-19
-13
6
17
20
6
-3
-20
-27
-25
-15
6
22
37
35
24
16
2
-5
-2
10
31
46
54
60
51
38
23
12
10
24
43
59
64
63
50
26
14
6
8
17
37
50
51
43
29
17
-2
-9
-7
-1
7
20
23
22
9
-10
-31
-45
-38
-28
-15
2
5
2
-11
-27
-43
-50
-46
-42
-22
-15
-4
-15
-19
-38
-52
-57
-53
-43
-20
-11
-7
-11
-22
-40
-53
-62
-57
-46
-24
-10
-6
-10
-25
-44
-47
-55
-48
-44
-22
-12
-7
-15
-26
-42
-57
-57
-51
-40
-15
-4
-3
-11
-23
-37
-46
-53
-49
-41
-23
-10
-7
-10
-21
-40
-46
-47
-45
-39
-21
-5
-9
-17
-27
-44
-55
-52
-48
-39
-18
-7
-6
-19
-28
-41
-58
-57
-57
-39
-25
-12
-11
-19
-35
-52
-61
-62
-55
-35
-17
-11
-16
-28
-36
-51
-58
-63
-55
-40
-13
-14
-18
-27
-44
-49
-54
-55
-50
-35
-20
-20
-20
-30
-46
-56
-65
-62
-59
-39
-24
-12
-14
-23
-41
-57
-62
-61
-53
-32
-24
-15
-18
-35
-50
-64
-71
-67
-55
-38
-25
-14
-18
-27
-49
-66
-71
-62
-52
-35
-27
-22
-26
-31
-51
-65
-73
-64
-49
-29
-22
-31
-33
-35
-45
-63
-69
-67
-56
-34
-22
-18
-17
-39
-55
-59
-72
-63
-56
-35
-27
-22
-26
-37
-60
-67
-67
-67
-56
-31
-24
-23
-25
-38
-59
-71
-76
-72
-52
-34
-26
-24
-33
-45
-61
-67
-70
-61
-51
-27
-28
-21
-33
-46
-63
-71
-68
-59
-43
-27
-22
-20
-30
-42
-61
-67
-68
-53
-38
-22
-19
-15
-22
-40
-52
-65
-58
-48
-35
-19
-12
-10
-19
-30
-48
-58
-57
-46
-24
-13
-10
-19
-30
-44
-53
-65
-62
-54
-39
-30
-25
-20
-30
-52
-66
-73
-70
-57
-39
-29
-23
-27
-37
-54
-66
-73
-67
-59
-37
-27
-20
-24
-34
-55
-68
-75
-79
-71
-51
-43
-39
-36
-50
-55
-52
-45
-20
16
48
75
92
90
77
40
6
-12
-12
-19
-23
-27
-57
-79
-91
-111
-120
-118
-103
-93
-67
-48
-42
-42
-47
-72
-80
-80
-65
-60
-38
-26
-22
-28
-38
-60
-70
-70
-63
-56
-34
-16
-14
-24
-36
-54
-64
-71
-57
-44
-25
-14
-15
-26
-34
-51
-61
-62
-54
-48
-26
-12
-8
-23
-31
-52
-62
-64
-50
-40
-18
-11
-8
-17
-27
-43
-47
-51
-42
-32
-12
-1
-4
-14
-29
-39
-46
-40
-32
-15
4
6
8
-1
-8
-25
-29
-33
-20
-1
13
22
29
19
10
-4
-7
-3
6
22
40
48
42
32
16
5
1
4
15
36
40
42
39
26
6
-2
-10
-5
3
16
28
41
28
12
-13
-24
-35
-30
-20
-5
6
14
8
-10
-31
-38
-44
-46
-41
-17
-1
-3
-15
-27
-47
-57
-65
-60
-46
-28
-11
-11
-16
-30
-48
-59
-58
-58
-47
-28
-18
-10
-21
-35
-52
-56
-62
-58
-42
-24
-15
-16
-20
-29
-48
-58
-67
-59
-39
-19
-11
-11
-23
-34
-51
-55
-60
-53
-40
-19
-11
-11
-20
-26
-45
-51
-53
-55
-40
-19
-9
-7
-24
-35
-54
-61
-58
-50
-32
-19
-9
-16
-25
-39
-53
-61
-61
-53
-34
-22
-12
-15
-18
-39
-55
-64
-67
-54
-42
-27
-13
-10
-25
-42
-55
-64
-66
-61
-40
-18
-12
-7
-29
-41
-59
-67
-69
-60
-40
-27
-20
-24
-33
-53
-65
-72
-61
-60
-37
-23
-21
-27
-28
-54
-66
-71
-66
-57
-33
-24
-17
-26
-40
-59
-69
-77
-70
-59
-34
-22
-18
-23
-39
-55
-71
-74
-61
-51
-33
-25
-24
-27
-39
-57
-70
-72
-74
-55
-37
-23
-22
-26
-38
-61
-66
-70
-72
-57
-31
-19
-23
-31
-41
-59
-68
-69
-61
-58
-34
-23
-17
-30
-35
-49
-57
-57
-60
-52
-29
-16
-15
-23
-33
-51
-57
-67
-54
-43
-26
-17
-22
-26
-37
-57
-70
-73
-64
-48
-37
-26
-28
-34
-50
-66
-79
-78
-73
-50
-37
-28
-30
-37
-55
-72
-77
-73
-68
-47
-33
-26
-32
-41
-58
-82
-86
-83
-83
-64
-35
-18
-10
-1
-1
-4
1
13
27
49
47
33
18
6
-12
-38
-68
-95
-115
-100
-85
-72
-75
-82
-106
-117
-116
-101
-87
-61
-49
-43
-41
-47
-63
-80
-82
-76
-68
-45
-33
-25
-27
-41
-59
-68
-79
-74
-63
-36
-31
-19
-32
-42
-60
-70
-73
-66
-65
-41
-27
-18
-25
-32
-53
-69
-75
-66
-55
-24
-17
-17
-28
-44
-56
-73
-71
-63
-54
-29
-12
-13
-18
-30
-51
-65
-63
-61
-41
-22
-12
-5
-16
-24
-46
-48
-50
-42
-30
-12
8
15
7
-8
-28
-37
-34
-20
-5
14
25
28
22
15
-3
-13
-15
-1
21
31
43
40
22
12
-5
-11
-8
-2
10
22
31
34
21
3
-19
-23
-28
-22
-8
10
16
6
-5
-25
-39
-49
-48
-43
-29
-18
-7
-9
-19
-42
-63
-63
-67
-51
-36
-22
-24
-30
-38
-60
-74
-75
-67
-61
-43
-31
-28
-33
-42
-58
-76
-83
-70
-62
-42
-27
-29
-34
-42
-55
-70
-77
-70
-59
-42
-30
-25
-32
-40
-58
-72
-72
-71
-62
-38
-19
-18
-27
-41
-56
-66
-72
-65
-57
-39
-27
-28
-30
-40
-57
-71
-73
-59
-58
-37
-23
-25
-34
-41
-64
-75
-75
-69
-62
-39
-31
-23
-36
-47
-65
-75
-79
-65
-50
-32
-25
-29
-43
-49
-68
-77
-77
-66
-49
-34
-25
-27
-37
-53
-71
-75
-80
-65
-46
-40
-28
-31
-34
-51
-70
-74
-76
-69
-62
-44
-33
-30
-42
-57
-73
-81
-75
-66
-43
-27
-22
-26
-41
-60
-71
-79
-73
-62
-48
-32
-25
-26
-36
-51
-60
-67
-61
-54
-35
-20
-23
-22
-29
-51
-63
-68
-63
-56
-35
-20
-13
-21
-30
-50
-66
-73
-73
-65
-44
-30
-26
-36
-45
-67
-78
-77
-82
-70
-49
-43
-36
-39
-47
-69
-80
-80
-75
-62
-43
-31
-27
-38
-41
-67
-89
-89
-77
-74
-57
-44
-42
-44
-45
-49
-53
-46
-23
-2
35
61
67
57
32
3
-28
-29
-19
-29
-29
-49
-73
-88
-96
-108
-124
-124
-118
-99
-77
-61
-51
-54
-58
-81
-91
-83
-75
-59
-40
-28
-27
-37
-48
-66
-72
-68
-68
-51
-34
-23
-28
-33
-51
-68
-70
-74
-64
-44
-29
-25
-23
-31
-47
-64
-76
-73
-63
-44
-28
-17
-17
-29
-40
-54
-63
-64
-53
-41
-24
-16
-22
-27
-33
-46
-56
-61
-52
-26
-11
-3
-9
-22
-41
-50
-59
-52
-33
-19
-6
-1
2
-9
-27
-37
-40
-27
-18
3
19
25
22
16
-3
-13
-16
-7
0
17
37
41
45
34
12
1
-1
-1
0
23
39
40
35
21
3
-10
-13
-15
-3
9
18
23
14
1
-23
-31
-41
-35
-27
-11
-2
-1
-12
-24
-45
-61
-57
-50
-44
-30
-14
-16
-26
-38
-58
-66
-66
-58
-50
-35
-25
-25
-35
-38
-63
-76
-76
-61
-48
-30
-20
-24
-37
-48
-65
-75
-71
-64
-45
-28
-23
-28
-28
-45
-56
-64
-63
-56
-44
-36
-24
-19
-25
-40
-56
-64
-62
-54
-43
-34
-27
-28
-33
-43
-55
-70
-66
-54
-37
-22
-17
-23
-31
-46
-63
-75
-70
-58
-40
-31
-16
-18
-30
-50
-68
-74
-70
-59
-44
-24
-22
-27
-34
-51
-64
-74
-74
-64
-41
-25
-17
-28
-38
-58
-62
-76
-65
-61
-40
-30
-28
-30
-36
-58
-69
-75
-68
-59
-36
-35
-24
-27
-37
-54
-69
-73
-69
-62
-40
-21
-20
-31
-39
-62
-71
-69
-62
-60
-33
-21
-20
-26
-40
-61
-66
-73
-65
-52
-31
-23
-19
-28
-43
-54
-60
-67
-55
-44
-21
-7
-13
-20
-31
-48
-57
-55
-48
-40
-21
-7
-4
-10
-23
-47
-60
-62
-52
-38
-21
-10
-19
-28
-35
-61
-69
-71
-63
-48
-29
-20
-24
-32
-43
-59
-69
-70
-61
-42
-28
-23
-25
-37
-52
-59
-73
-62
-59
-44
-35
-31
-34
-43
-61
-71
-75
-70
-51
-19
16
40
50
56
54
47
37
26
23
24
34
26
6
-24
-72
-113
-118
-117
-107
-78
-63
-52
-48
-57
-73
-82
-82
-73
-60
-39
-28
-23
-25
-29
-51
-65
-64
-63
-54
-33
-20
-13
-20
-31
-52
-65
-69
-57
-42
-23
-15
-9
-18
-33
-48
-60
-54
-48
-41
-25
-14
-10
-11
-23
-43
-52
-54
-50
-41
-17
-4
-4
-7
-16
-40
-50
-49
-42
-35
-11
-3
2
-2
-15
-34
-44
-40
-28
-20
-9
6
15
11
-2
-25
-38
-35
-20
-4
15
23
31
20
11
-4
-11
-9
3
22
39
49
50
40
28
19
6
10
15
34
48
60
54
43
27
14
6
4
13
22
34
46
41
33
19
-3
-13
-16
-13
7
16
24
22
3
-21
-32
-36
-32
-26
-10
-2
1
-4
-13
-33
-46
-57
-54
-43
-25
-13
-11
-13
-17
-41
-53
-55
-49
-43
-27
-8
-4
-12
-19
-39
-56
-59
-52
-40
-21
-9
0
-4
-5
-30
-53
-57
-53
-43
-21
-10
-9
-12
-20
-39
-53
-48
-40
-32
-14
4
3
-5
-15
-35
-49
-48
-40
-32
-15
-10
-9
-6
-10
-35
-44
-47
-41
-33
-16
-2
8
-5
-20
-40
-52
-48
-44
-24
-14
-12
-11
-17
-26
-42
-44
-46
-42
-30
-12
-6
-1
-9
-24
-43
-51
-47
-42
-26
-12
-5
-3
-14
-28
-43
-50
-48
-37
-25
-15
-11
-8
-12
-33
-47
-55
-53
-45
-22
-9
-1
-5
-19
-37
-53
-58
-56
-49
-30
-9
-1
-5
-16
-31
-48
-56
-49
-42
-23
-6
-3
-9
-22
-35
-53
-54
-47
-39
-30
-14
-3
-7
-18
-39
-50
-54
-52
-41
-23
-11
-5
-8
-17
-38
-48
-58
-54
-43
-21
-9
3
-4
-10
-48
-67
-58
-47
-40
-17
-9
-5
-5
-18
-39
-52
-53
-51
-41
-13
-1
-5
-12
-23
-44
-56
-51
-44
-34
-12
-4
-2
-10
-24
-41
-49
-55
-47
-36
-13
2
5
-7
-12
-39
-55
-56
-46
-31
-12
2
3
-10
-16
-30
-42
-41
-28
-17
2
10
11
2
-18
-31
-36
-39
-25
-16
1
7
4
-1
-13
-29
-42
-42
-32
-20
-4
2
-1
-13
-27
-43
-50
-52
-44
-23
-2
0
-8
-15
-33
-45
-50
-50
-40
-24
-11
-1
-7
-15
-29
-45
-55
-59
-54
-37
-25
-17
-19
-16
-24
-34
-21
6
30
66
97
115
116
96
63
25
15
9
0
3
-9
-38
-55
-58
-75
-84
-89
-85
-75
-49
-27
-18
-20
-28
-44
-56
-59
-51
-41
-20
-2
2
-8
-16
-32
-48
-50
-45
-34
-9
-2
5
0
-9
-30
-46
-52
-40
-26
-6
5
7
0
-11
-26
-36
-44
-37
-28
-5
9
10
4
-5
-28
-39
-38
-25
-17
-2
13
17
7
-7
-26
-28
-25
-16
-7
10
19
18
12
8
-13
-27
-26
-19
-1
21
38
31
25
9
0
-9
-1
9
20
42
50
56
48
40
22
17
16
16
37
61
72
66
59
48
33
23
22
31
49
65
71
62
53
42
22
9
14
21
43
54
64
50
39
23
4
0
-1
4
16
35
32
23
14
2
-11
-23
-22
-10
2
18
21
15
4
-9
-25
-31
-29
-23
-3
6
17
8
3
-23
-33
-35
-33
-21
-4
6
19
7
-3
-23
-36
-36
-23
-16
-4
14
14
7
6
-16
-27
-30
-31
-23
5
20
20
14
4
-12
-26
-27
-30
-12
2
13
24
5
-1
-20
-34
-33
-23
-11
8
17
20
10
-4
-19
-31
-30
-23
-15
10
22
23
8
-5
-18
-33
-28
-21
-5
7
12
10
4
-8
-24
-31
-28
-24
-6
10
19
17
11
-8
-25
-39
-35
-28
-12
2
17
7
4
-7
-25
-44
-33
-19
-6
10
25
16
3
-19
-37
-31
-32
-22
-6
4
11
9
8
-12
-30
-36
-36
-27
-8
14
24
5
0
-20
-28
-28
-29
-22
-1
12
17
13
0
-17
-29
-32
-27
-23
0
12
18
15
5
-16
-35
-35
-26
-22
-3
8
15
6
3
-16
-29
-39
-28
-22
0
14
20
12
0
-21
-31
-33
-29
-17
0
8
17
10
2
-26
-39
-35
-15
-6
11
16
21
6
-9
-26
-34
-35
-32
-16
2
12
23
3
-4
-22
-29
-38
-23
-12
6
14
17
8
-2
-20
-26
-27
-21
-6
11
21
19
14
4
-13
-27
-29
-14
2
19
27
29
21
-4
-22
-28
-18
-14
3
23
27
26
16
4
-12
-31
-25
-13
-2
12
17
15
-1
-15
-30
-33
-24
-18
-2
10
21
21
10
-12
-26
-32
-29
-23
-7
8
13
9
5
-6
-19
-34
-42
-34
-15
2
7
4
15
9
6
10
34
54
86
106
110
97
79
37
21
19
11
1
-4
-23
-32
-33
-42
-58
-70
-71
-64
-53
-22
-16
-4
-5
-12
-29
-38
-33
-21
-14
7
18
21
15
2
-14
-24
-27
-22
-11
9
22
24
14
5
-10
-13
-20
-21
-9
18
24
21
20
6
-12
-22
-28
-11
-1
15
23
28
25
15
-6
-18
-18
-2
11
24
40
34
23
9
-6
-13
-10
-1
16
35
44
41
34
17
2
-3
1
16
26
42
48
48
44
36
17
4
14
30
48
58
69
71
67
54
41
29
44
50
73
84
84
84
74
58
47
41
43
47
70
81
91
88
76
53
44
34
32
40
58
64
73
68
53
41
23
17
21
24
42
49
51
47
34
19
5
-1
2
7
25
39
41
34
22
2
-12
-15
-12
-4
18
29
37
27
20
-3
-8
-13
-12
1
23
32
34
26
20
-3
-16
-21
-12
2
16
28
37
32
20
-2
-13
-12
-6
5
23
30
33
26
19
0
-11
-17
-4
13
22
35
37
29
16
-5
-10
-9
-1
14
33
38
35
25
15
0
-7
-7
-4
4
29
32
33
28
9
-6
-13
-10
1
8
28
37
30
18
9
-7
-18
-19
-10
13
24
36
31
22
5
-8
-12
-15
-4
14
25
33
29
23
2
-10
-16
-14
-4
14
27
38
33
24
0
-6
-12
-14
-8
13
26
36
35
26
9
-15
-24
-11
-6
17
25
32
30
19
0
-9
-15
-6
4
18
26
30
29
23
5
-11
-15
-7
0
24
42
34
29
21
3
-10
-6
-1
6
30
34
40
30
18
-2
-7
-7
1
15
34
44
50
34
34
14
6
-1
7
17
36
45
47
35
26
5
-5
-7
3
15
32
40
37
30
14
-10
-13
-13
-6
9
25
36
32
27
14
-7
-16
-16
-8
5
20
35
36
28
9
-3
-12
-20
-13
-1
17
23
18
16
5
-3
1
7
33
65
95
124
128
121
91
62
35
35
38
47
42
21
-15
-29
-45
-57
-61
-56
-45
-25
-9
2
4
-2
-20
-21
-18
-21
-9
11
28
40
35
24
2
-14
-13
-15
-5
16
29
37
30
22
10
-5
-12
-5
0
16
30
41
32
26
3
-10
-10
-3
9
27
37
35
32
25
4
-1
-5
3
10
27
45
46
37
34
10
2
-6
-2
11
34
48
55
40
29
15
6
4
8
19
43
58
58
55
47
27
16
14
34
47
63
79
82
73
56
44
41
40
50
69
82
97
97
90
78
59
53
55
65
79
94
101
96
78
64
50
38
45
56
66
77
82
74
72
54
37
27
25
29
42
58
65
60
51
30
12
3
10
11
26
35
43
41
28
11
-2
-8
-7
0
19
28
34
33
24
4
-7
-16
-11
-6
16
33
32
28
22
1
-11
-17
-9
0
23
28
37
35
24
5
-9
-13
-4
8
28
33
40
39
26
6
-10
-14
-7
4
27
34
43
35
22
6
-2
-7
-3
10
25
35
43
38
31
3
-13
-7
2
10
29
36
39
32
24
0
-12
-12
-3
10
33
41
39
30
17
-1
-9
-6
0
9
23
38
36
27
17
-3
-13
-12
-4
6
21
40
43
31
16
-2
-14
-10
-1
13
28
35
31
23
13
-2
-10
-9
-1
9
24
36
26
19
7
-7
-12
-12
0
12
28
32
31
23
9
-6
-16
-13
-5
15
30
34
30
26
9
-9
-13
-12
1
15
33
37
31
23
11
-7
-17
-9
2
26
35
43
37
34
20
4
-2
1
10
34
37
42
35
32
14
1
-4
3
12
27
39
46
38
31
7
-4
-12
-9
-7
13
26
31
25
18
-6
-15
-15
-11
-3
17
28
36
29
21
1
-12
-16
-12
-6
13
22
24
18
0
-17
-27
-30
-20
-4
22
41
60
67
75
74
81
90
106
109
112
104
89
78
54
18
-17
-48
-60
-49
-24
-13
-11
-14
-23
-32
-35
-36
-29
-4
21
31
30
11
5
-9
-16
-15
-13
4
23
34
35
29
13
-10
-18
-11
0
18
30
40
35
24
7
-7
-17
-12
-5
14
36
44
42
25
10
-4
-9
-4
8
27
38
46
41
31
20
5
3
-1
0
25
43
48
45
39
17
4
3
9
18
34
54
53
51
46
28
16
15
19
25
48
62
75
69
59
43
35
33
36
49
77
88
94
88
83
65
55
51
58
75
96
107
115
104
88
75
54
51
62
71
91
95
98
88
79
54
42
42
47
57
70
81
84
73
59
29
18
14
19
32
47
58
58
46
32
13
2
1
10
19
33
42
45
32
29
12
-5
-9
-6
8
30
39
42
26
16
-1
-7
-7
4
13
35
36
38
24
16
-4
-6
-6
5
24
36
44
42
34
20
6
-4
3
11
24
42
51
37
29
16
5
-1
5
11
29
38
47
44
34
17
7
2
1
11
21
38
49
42
33
13
-1
-3
-1
5
28
38
38
40
32
15
0
-6
-1
7
25
35
41
33
22
9
2
-5
-1
9
27
42
44
33
28
7
-3
-7
-11
5
26
36
43
39
26
6
-9
-14
-6
8
32
40
39
38
16
3
-5
-12
-4
9
30
43
40
34
26
3
-4
-3
1
12
33
44
42
32
19
0
-6
-15
1
13
29
40
41
31
16
-1
-3
-1
6
14
32
41
39
29
16
-1
-13
-10
1
17
32
44
44
36
22
7
-14
-10
0
18
38
38
39
32
19
-3
-5
0
6
25
39
45
41
33
24
9
2
-4
9
29
38
45
45
42
23
10
6
9
20
38
47
55
49
43
21
11
7
6
14
37
48
55
50
39
22
4
-1
-2
10
26
36
40
34
26
7
-3
-12
-6
5
25
35
37
35
27
9
2
-8
-9
3
17
28
36
25
15
-14
-18
-22
-19
-3
27
50
69
78
86
86
94
106
122
124
132
117
108
92
62
21
-5
-33
-51
-49
-24
-8
2
-5
-13
-30
-35
-33
-17
-2
17
30
37
29
21
4
-11
-18
-3
11
30
37
34
26
18
2
-5
0
4
21
39
47
45
38
21
4
-8
-9
5
23
40
43
42
30
18
3
-4
3
8
26
41
53
50
44
26
12
4
6
5
23
41
53
57
46
22
14
11
19
24
42
55
67
61
56
35
23
18
24
39
55
63
77
78
67
50
37
38
45
60
82
90
92
90
89
75
66
62
69
76
94
107
111
112
105
82
72
62
58
73
89
104
107
97
86
64
53
52
53
58
75
83
90
80
64
41
31
21
28
36
56
67
65
60
43
19
10
3
13
26
39
50
50
39
32
14
3
3
8
18
32
46
50
42
31
0
1
1
10
22
36
42
45
39
26
6
1
2
10
21
37
50
51
36
25
8
5
7
12
29
43
52
47
40
27
15
1
1
11
29
39
46
51
47
35
18
3
7
10
28
44
52
51
44
26
8
-1
5
14
30
45
51
48
39
23
6
3
5
11
29
45
55
50
36
16
1
-6
4
13
31
43
49
39
36
16
0
0
-2
14
37
49
49
45
32
17
7
-3
6
14
33
39
45
41
33
11
3
1
10
18
36
47
43
43
34
14
4
0
5
13
38
46
49
37
34
18
1
-6
6
20
42
49
56
43
34
10
2
-1
9
14
35
46
50
41
29
11
2
0
12
23
44
51
50
40
31
9
4
5
13
22
37
48
42
32
25
9
3
4
13
32
45
48
50
42
23
9
4
5
22
30
48
58
53
45
31
14
10
6
15
36
53
62
59
51
32
23
15
19
25
42
51
61
59
45
34
17
11
16
19
43
52
51
50
48
24
14
4
8
19
32
49
52
47
32
10
2
-1
8
17
32
48
55
50
43
19
-4
1
5
8
26
38
35
31
26
8
2
13
25
52
88
114
133
138
137
111
87
60
57
68
77
75
53
11
-17
-39
-48
-46
-35
-22
-3
10
18
16
7
-9
-8
-7
3
16
41
44
47
42
35
17
6
2
12
