-34
-32
-36
-36
-34
-33
-38
-35
-32
-33
-34
-33
-36
-29
-33
-37
-38
-32
-35
-36
-36
-32
-33
-34
-44
-42
-26
-32
-33
-40
-39
-39
-36
-31
-34
-36
-37
-33
-35
-40
-40
-38
-40
-39
-43
-30
-34
-37
-42
-44
-42
-42
-41
-32
-38
-39
-39
-36
-37
-38
-38
-38
-37
-38
-38
-40
-40
-36
-34
-36
-32
-35
-38
-39
-27
-37
-37
-39
-39
-38
-33
-27
-30
-30
-31
-34
-34
-34
-32
-35
-31
-18
-28
-29
-17
-26
-30
-29
-34
-41
-38
-38
-32
-36
-37
-37
-38
-41
-43
-30
-34
-34
-32
-34
-35
-32
-32
-21
-23
-24
-24
-28
-25
-27
-23
-27
-31
-30
-27
-23
-24
-25
-25
-27
-29
-27
-22
-15
-8
-2
31
38
56
71
80
79
76
66
69
49
29
-17
-57
-62
-55
-58
-60
-56
-53
-51
-52
-55
-52
-46
-40
-36
-34
-34
-33
-24
-18
-16
-18
-20
-19
-18
-15
-15
-16
-14
-11
-10
-9
-11
-16
-16
-12
-12
-15
-9
-9
-10
-9
-8
-12
-13
-9
-5
-6
-9
-5
-8
-10
-8
-8
-5
-7
-2
-7
-10
-2
8
-3
0
-3
-8
-1
7
1
6
0
-6
-10
2
1
4
6
2
9
12
16
16
11
10
12
19
20
19
16
26
21
16
25
33
30
29
38
33
31
37
38
39
39
36
28
39
42
45
39
37
40
37
31
35
34
33
31
29
24
30
27
21
26
19
15
20
18
12
11
8
12
13
10
4
-1
0
2
1
0
1
0
-2
-7
-1
-4
0
-2
-7
-3
-4
-3
-10
-8
7
8
-5
-3
-2
-1
-3
-1
-5
-12
-6
1
2
-5
-3
-4
-4
-2
-3
-5
-5
0
3
-1
-4
1
5
-3
-4
-4
-5
-5
4
-1
-9
0
3
0
0
-2
-10
-6
1
-7
-1
-2
0
0
1
3
2
0
-2
0
0
5
8
5
0
-2
-1
5
4
-1
2
6
1
-1
-1
2
0
2
5
1
1
3
-1
2
-1
-2
1
2
-2
-2
2
6
5
0
2
5
-1
-2
4
5
1
7
7
7
5
8
15
10
11
12
11
12
10
8
6
3
2
9
8
12
14
14
8
12
9
8
15
14
14
19
19
21
14
17
18
14
10
3
10
3
4
11
6
3
1
1
-5
0
-2
0
7
8
4
-3
-8
-7
-1
12
14
3
1
2
-1
-1
1
-5
-6
-6
-1
-7
-5
4
-8
-4
3
0
4
13
23
41
64
83
91
96
101
94
88
80
53
19
-12
-39
-61
-60
-58
-57
-56
-52
-55
-49
-40
-33
-26
-28
-23
-18
-18
-24
-12
3
4
-7
-5
-4
1
-6
-4
-1
-3
-3
-1
0
1
0
1
-2
-2
1
2
-2
0
12
5
0
2
0
5
2
5
3
7
4
3
10
6
7
4
8
6
7
4
5
8
9
7
9
13
14
2
7
13
11
20
19
19
15
13
15
16
20
29
24
25
24
22
25
25
27
22
28
39
30
38
42
40
36
38
45
37
39
54
43
41
46
46
45
44
44
41
43
47
46
43
39
34
37
34
34
26
29
38
27
18
20
24
25
22
19
14
16
18
15
7
9
5
5
13
6
5
6
6
3
6
4
3
-2
4
3
-1
12
7
3
-4
1
-4
-6
1
-8
-2
-1
5
-2
-3
-3
-1
-1
-1
-2
2
-1
2
0
1
5
-5
-7
3
-3
-2
2
0
-5
-4
-3
0
-1
2
-9
-1
5
0
2
1
0
0
4
3
4
-2
-4
-7
-5
-1
2
-2
-4
2
-3
-5
-2
3
-1
-6
-6
-3
-2
-2
-12
-17
4
5
-4
-8
-3
-4
-4
1
-3
-8
-4
-6
-3
-7
-10
-6
-2
-8
-7
-3
-5
-5
-6
-10
-5
-5
-4
-4
-4
-7
-10
-2
5
-7
-14
-7
-7
-10
-10
-6
-7
-11
-10
-7
-8
-11
-12
-10
-7
-5
-7
-11
-10
-7
-9
-7
-11
-9
2
-6
-7
0
-1
-4
-10
-6
0
-7
-1
8
10
0
4
3
-3
-4
-1
-6
-3
-4
-8
-12
-10
-11
-16
-19
-15
-14
-17
-12
-9
-11
-16
-19
-15
-14
-13
-10
-13
-9
-10
-13
-16
-20
-16
-20
-25
-18
-18
-13
-12
-18
-14
-21
-23
-23
-21
-16
-2
16
37
52
69
81
82
91
84
81
71
42
5
-30
-53
-65
-73
-69
-66
-63
-57
-55
-55
-60
-54
-40
-39
-38
-34
-28
-28
-27
-22
-22
-21
-19
-24
-22
-21
-19
-16
-15
-16
-19
-13
-19
-23
-18
-18
-11
-10
-13
-16
-9
-17
-18
-8
-6
-14
-13
-11
-4
-6
-13
-15
-7
-3
-8
-10
-8
-6
-6
-8
-6
-8
-8
-9
-9
-6
-9
-12
-1
-3
0
-2
-1
1
0
-2
-4
7
11
8
4
17
12
11
14
13
14
20
19
18
21
22
18
18
12
27
34
32
30
25
30
29
30
33
33
34
30
34
30
29
33
31
28
28
22
22
27
23
18
16
20
15
8
14
9
7
6
9
5
1
3
3
-6
-2
-6
-5
0
-2
-16
-17
-13
-10
-13
-11
-17
-13
-7
-9
-10
-15
-12
-4
-7
-9
-11
-11
-12
-8
-12
-12
-12
-14
-19
-15
-19
-13
-11
-8
-13
-12
-11
-12
-15
-12
-12
-14
-13
-16
-19
-10
-5
-12
-11
-10
-12
-18
-16
-10
-10
-13
-12
-7
-10
-8
-9
-14
-10
-9
-7
-13
-10
-12
-15
-13
-12
-14
-12
-11
-10
-16
-16
-7
-15
-8
-9
-10
-10
-10
-12
-13
-12
-14
-20
-16
-6
-6
-8
-8
-10
-14
-12
-13
-14
-9
-16
-21
-17
-9
-11
-11
-12
-12
-8
-10
-12
-9
-7
-11
-11
-12
-12
-14
-13
-13
-9
-10
-4
-11
-11
-9
-7
-9
-6
-7
-11
-8
-7
-7
-9
-9
-5
-3
-1
-3
-4
-1
3
-3
0
1
2
-2
1
-6
-6
7
2
-7
-7
-7
-11
-14
-14
-10
-11
-11
-9
-8
-8
-8
-7
-10
-10
-16
-16
-3
-7
-9
-9
-11
-13
-6
-7
-9
-10
-11
-11
-7
-3
-11
-13
-11
-14
-13
-2
10
27
42
58
68
84
91
93
89
80
72
49
15
-25
-50
-57
-45
-50
-49
-51
-47
-42
-39
-44
-38
-38
-39
-30
-24
-20
-19
-13
-16
-14
-15
-15
-12
-5
-11
-9
-6
0
1
-3
-3
-2
-2
-3
-3
-6
-1
1
-2
-1
-7
-8
1
-2
-6
1
3
3
-4
0
3
7
0
0
8
4
4
9
5
6
13
7
5
8
6
8
9
7
7
9
9
11
15
14
12
14
18
16
27
27
27
24
29
33
32
28
30
32
35
38
42
41
43
44
48
45
41
48
50
52
50
47
50
51
46
52
54
56
55
47
45
41
46
47
43
40
41
42
38
30
19
28
40
23
22
28
26
22
20
18
18
17
17
12
12
10
6
7
7
14
10
5
14
8
12
11
19
15
7
8
6
13
17
13
11
10
17
20
12
19
21
17
28
27
24
29
26
20
31
27
25
29
28
27
29
29
32
35
34
32
30
31
34
32
29
27
31
36
40
35
36
40
37
35
39
41
36
36
42
39
39
34
37
40
37
39
38
39
40
39
34
35
43
37
33
33
33
28
28
33
30
33
33
30
30
32
35
29
24
29
30
32
23
28
29
28
24
23
24
22
15
17
26
25
24
23
21
21
20
21
20
19
26
26
30
21
12
19
26
25
20
15
17
21
22
26
24
22
27
27
21
29
26
24
24
25
23
29
28
23
27
24
19
20
27
18
13
11
11
7
8
10
7
9
8
6
2
7
6
0
0
14
5
4
10
13
6
11
7
6
8
12
5
-1
9
7
1
-1
-7
-11
2
6
7
16
37
54
73
77
93
105
99
91
96
90
69
30
-13
-35
-39
-47
-43
-42
-43
-46
-38
-40
-38
-34
-33
-31
-22
-21
-8
-8
-4
-6
-2
-2
-4
-7
3
-3
-2
7
5
5
2
3
9
5
-1
3
-1
-1
0
0
10
17
8
3
-1
8
9
10
11
11
7
6
6
7
8
8
8
13
18
8
13
10
5
10
10
8
13
15
16
16
17
16
18
21
21
18
25
17
13
36
26
29
32
29
31
27
38
43
44
48
45
48
45
44
45
59
57
59
57
57
58
60
56
59
59
62
52
65
60
60
56
55
53
54
51
54
57
60
57
47
40
55
49
44
43
45
45
39
42
47
47
37
34
35
37
37
37
41
38
34
35
33
32
33
37
34
38
41
35
35
38
36
36
34
35
32
38
35
31
34
35
39
33
31
38
33
30
39
34
33
34
38
36
38
40
40
38
40
44
39
42
45
39
38
33
32
40
50
45
44
45
44
38
39
44
41
48
46
39
42
45
43
32
34
41
43
41
45
41
40
40
43
43
40
37
39
39
40
36
33
41
40
32
34
42
39
32
37
40
41
41
30
33
38
36
33
34
32
34
36
33
26
34
32
28
28
32
32
29
35
30
28
32
34
35
33
36
35
41
37
42
40
37
35
27
41
41
48
44
37
43
47
44
40
38
47
54
51
45
44
43
47
44
45
41
40
46
41
41
35
39
36
35
36
34
37
44
43
40
37
40
39
44
39
37
39
36
34
38
36
38
34
33
32
32
37
38
31
32
41
52
42
41
45
49
55
73
90
106
126
134
150
150
151
147
137
125
93
61
19
-2
-8
-9
-10
-8
-9
1
4
-1
6
6
10
14
18
24
29
33
30
29
38
39
37
39
38
35
39
36
37
41
35
43
42
42
50
47
51
49
48
50
47
47
50
42
38
61
64
69
60
57
57
57
58
64
66
69
59
60
60
61
64
61
62
61
60
60
67
62
62
70
65
63
66
68
67
72
76
73
71
74
81
74
83
77
77
76
83
83
81
80
82
80
86
81
89
95
98
96
92
92
99
93
92
88
92
105
98
96
94
91
91
87
87
88
84
89
90
82
80
74
73
78
78
76
67
66
70
67
68
66
65
60
54
48
54
62
67
63
60
58
54
51
54
53
51
53
49
55
52
53
54
52
51
52
50
51
52
53
53
48
46
51
51
48
53
55
55
51
60
60
53
50
54
54
58
55
55
55
58
58
57
57
56
58
57
60
59
57
50
56
60
58
55
58
55
56
60
72
60
58
57
54
55
62
61
60
60
57
54
61
60
61
65
61
62
62
62
60
57
53
61
68
63
57
58
64
66
60
60
58
55
59
61
61
58
66
57
64
65
63
58
59
59
63
65
67
56
56
58
75
65
60
60
64
65
68
68
63
62
63
70
68
67
66
67
71
70
66
68
75
70
68
67
71
71
74
73
72
77
77
71
72
72
70
69
67
64
62
61
58
57
56
53
65
67
65
62
63
60
60
56
58
58
60
58
59
54
72
67
63
59
58
60
57
60
59
56
59
56
52
49
53
53
53
65
80
98
115
136
152
166
161
162
156
153
139
102
61
27
13
11
11
12
7
10
13
15
16
17
25
24
29
33
55
54
51
50
54
54
55
55
48
51
53
58
54
54
63
57
56
64
57
61
63
67
66
59
58
59
58
64
63
61
61
62
55
59
64
67
66
64
59
57
67
66
68
67
68
70
69
70
69
64
68
79
76
74
73
74
68
74
75
75
83
88
86
82
81
81
85
90
91
86
91
94
95
96
99
99
99
101
103
99
103
110
103
107
107
110
107
102
112
111
109
109
106
108
107
109
90
89
88
86
84
79
79
89
77
79
82
71
72
71
73
67
61
67
68
63
61
63
71
67
67
69
63
61
54
63
64
67
63
59
64
61
61
67
63
61
62
65
64
60
65
64
62
64
60
65
63
60
60
61
62
61
60
62
62
62
63
65
56
59
65
62
65
62
68
74
64
69
64
68
68
65
66
67
67
65
68
71
71
67
68
70
69
68
65
70
72
69
72
79
76
75
68
67
70
61
67
68
62
81
75
66
71
69
68
65
62
67
72
75
74
72
69
71
70
68
74
72
73
75
76
74
78
77
76
73
73
74
70
72
73
75
75
76
77
71
74
76
85
81
81
78
83
82
82
76
74
71
69
68
70
61
65
60
56
64
64
68
60
66
71
67
59
59
57
56
58
60
63
59
64
60
62
61
55
56
58
54
54
57
55
50
50
49
46
54
56
65
74
94
109
122
140
150
146
151
149
139
132
106
57
18
8
6
9
6
8
8
16
22
19
13
7
20
22
31
31
45
42
41
45
45
47
45
42
47
50
50
52
47
43
53
48
55
53
47
50
55
55
57
61
53
50
50
48
53
54
53
54
56
55
52
50
50
58
54
52
54
56
61
62
61
57
58
57
62
63
55
57
64
64
59
59
63
67
64
67
63
64
68
73
70
75
74
73
80
77
75
88
85
83
89
89
88
86
89
92
94
91
93
94
95
92
90
96
91
94
92
89
88
88
83
86
85
77
71
70
74
79
74
68
67
69
64
62
66
61
60
60
56
53
52
58
55
49
48
47
52
55
53
45
38
42
48
50
48
42
47
48
48
40
42
42
41
57
48
36
42
43
42
43
37
40
36
36
39
36
39
44
43
39
39
40
42
44
43
39
39
45
42
42
42
43
46
45
39
42
46
51
48
46
46
44
45
47
45
43
51
55
57
55
52
51
48
52
57
51
53
54
54
55
55
54
50
53
58
51
52
58
53
54
56
52
51
46
47
51
57
56
54
49
47
55
57
47
49
51
52
57
54
57
66
56
54
54
56
56
55
57
61
63
56
57
55
54
59
69
65
66
64
65
65
67
69
66
66
66
67
69
64
59
56
49
50
49
53
52
52
50
52
54
48
52
56
54
50
59
54
56
63
56
55
57
56
57
56
56
53
48
47
53
55
48
54
52
48
51
50
47
50
62
76
99
111
127
141
156
162
151
152
146
131
93
58
25
9
12
14
14
8
8
13
14
18
19
17
23
31
27
33
32
44
39
41
47
41
44
47
44
46
54
47
45
44
49
51
49
52
49
49
60
48
47
56
53
53
55
57
50
50
53
46
47
65
60
60
61
63
64
60
58
57
52
60
67
62
64
68
63
61
63
68
66
61
65
72
74
70
69
76
74
69
78
77
72
77
82
80
81
86
82
85
94
94
94
100
94
91
92
95
99
93
95
99
93
96
100
99
96
98
104
101
98
98
95
97
92
97
95
88
86
82
83
82
80
83
80
77
75
71
68
66
66
64
59
62
63
59
56
53
55
50
53
63
56
54
52
52
47
49
65
53
48
48
55
59
57
54
53
47
45
52
51
56
53
53
52
51
48
52
49
43
51
46
46
43
54
47
49
46
40
42
44
45
44
42
46
49
47
43
41
45
48
44
48
46
50
47
45
46
47
43
45
40
41
62
51
50
47
44
39
51
52
42
44
47
46
41
46
45
38
36
44
44
47
45
46
46
43
42
43
41
39
42
42
42
42
40
37
39
41
39
44
41
40
43
43
40
40
36
40
41
44
43
48
43
37
44
49
47
42
51
48
44
44
53
46
49
49
48
49
47
44
47
47
55
46
41
40
37
34
39
37
35
31
34
32
30
34
35
32
30
33
32
37
34
36
34
33
36
35
33
35
32
30
31
31
40
25
28
23
34
35
29
27
25
31
43
56
65
87
101
118
133
140
139
134
119
101
71
34
1
-17
-24
-21
-22
-26
-26
-23
-20
-15
-6
2
3
5
12
14
15
17
15
24
25
21
23
27
28
27
28
26
20
30
32
27
25
32
26
28
35
28
24
28
20
32
32
36
36
29
34
34
33
28
26
26
35
25
28
31
34
38
33
37
33
35
38
38
34
33
38
34
38
44
40
35
39
45
46
44
43
45
45
51
49
53
56
54
56
54
59
59
54
57
60
65
64
67
59
61
72
73
71
70
69
67
70
72
72
75
70
70
65
65
60
63
71
71
67
61
55
54
58
51
51
45
45
47
40
42
44
41
41
34
36
43
40
34
32
33
31
24
27
26
22
22
26
28
32
24
24
23
22
21
24
21
28
20
27
23
21
16
20
19
19
26
31
23
22
30
22
22
21
30
24
23
26
21
15
27
26
22
26
27
22
22
22
24
21
33
26
22
23
23
17
18
27
22
23
25
27
22
23
22
24
26
28
29
22
18
19
25
19
22
22
20
28
23
23
23
24
22
21
27
25
22
25
21
25
27
22
21
14
18
20
23
30
19
22
18
23
22
21
21
22
19
23
21
20
25
19
24
22
21
17
20
24
20
17
19
20
19
19
24
22
22
26
25
24
25
22
21
26
20
18
28
27
21
21
22
25
25
22
30
28
32
33
35
25
28
24
21
19
13
15
21
20
12
18
14
13
13
13
14
14
16
13
11
16
15
11
6
13
10
11
13
17
11
13
9
1
-3
8
10
15
13
5
4
6
10
7
19
38
47
67
97
109
115
120
112
102
96
73
40
4
-24
-39
-48
-45
-40
-48
-40
-37
-40
-37
-35
-22
-12
-15
-15
-10
-6
-5
-4
-1
3
0
3
2
-3
-3
0
5
4
3
7
4
4
4
2
3
6
7
4
8
8
8
5
3
15
5
9
6
11
12
7
3
6
7
6
13
13
12
9
9
13
11
19
11
14
17
19
14
13
22
17
19
17
16
19
17
18
18
17
30
32
34
33
32
32
38
41
39
36
34
51
50
45
46
47
54
52
55
51
53
55
56
53
49
46
48
59
50
54
56
51
45
43
48
45
41
46
49
45
43
39
36
33
32
30
27
25
20
23
22
25
20
18
17
8
6
16
17
14
20
15
9
10
7
6
10
11
8
7
7
5
5
6
13
8
10
9
3
3
4
5
6
7
1
-7
2
3
2
3
12
6
2
6
3
7
5
6
4
7
5
3
0
4
2
0
3
1
-1
4
4
5
0
0
0
-7
-5
4
1
1
-2
-3
-3
-1
-5
-5
-5
2
-12
-7
6
0
-4
-4
-1
-3
-6
-9
-12
-6
0
-6
-8
-6
-5
-12
0
3
-3
-2
-4
-7
-11
-3
-6
-7
-11
-6
-7
-8
-9
-10
-12
-8
-11
-10
-8
-10
-8
-7
-8
-10
-15
-20
-8
-11
-10
-17
-13
-3
-10
-13
-10
-12
-14
-13
-13
-14
-15
-5
-6
-12
-15
-8
-17
-10
-11
-9
-10
-4
-6
-9
-10
-11
-9
-4
-11
-9
-9
2
-2
-8
-2
-3
-6
1
1
-5
-9
-9
-12
-16
-15
-19
-17
-16
-16
-21
-21
-13
-16
-18
-20
-16
-18
-17
-19
-24
-25
-14
-14
-15
-15
-17
-22
-18
-13
-18
-18
-17
-20
-21
-21
-25
-31
-27
-27
-21
-18
1
17
32
52
62
74
82
88
81
84
68
38
3
-44
-66
-67
-56
-57
-57
-61
-58
-55
-56
-57
-56
-56
-50
-46
-47
-39
-29
-28
-26
-24
-30
-30
-18
-22
-26
-23
-22
-21
-25
-21
-24
-21
-16
-21
-27
-20
-16
-22
-18
-25
-21
-16
-17
-17
-19
-19
-20
-23
-26
-21
-23
-15
-11
-18
-19
-14
-12
-12
-15
-14
-17
-21
-20
-18
-8
-7
-16
-14
-11
-12
-11
-11
-7
-5
-4
-7
-7
-1
-2
-3
1
3
-1
1
2
12
11
7
6
2
-3
6
9
12
8
7
11
7
9
4
2
6
7
6
6
8
9
4
5
6
-2
6
6
3
-3
-6
-10
-8
-24
-24
-23
-24
-34
-28
-30
-29
-38
-34
-40
-44
-36
-37
-40
-47
-50
-48
-55
-49
-56
-54
-51
-52
-51
-57
-59
-60
-52
-49
-53
-54
-59
-54
-53
-60
-64
-62
-53
-58
-62
-60
-60
-59
-61
-65
-59
-58
-60
-62
-61
-66
-67
-66
-69
-70
-66
-68
-59
-59
-68
-60
-66
-64
-73
-71
-57
-57
-65
-60
-65
-76
-68
-70
-70
-72
-63
-66
-69
-72
-74
-73
-73
-75
-70
-65
-69
-75
-82
-83
-78
-76
-77
-76
-69
-67
-67
-74
-76
-74
-75
-81
-78
-79
-82
-75
-77
-78
-78
-84
-83
-85
-87
-76
-86
-88
-84
-81
-90
-89
-89
-89
-88
-92
-93
-88
-85
-84
-90
-91
-95
-90
-91
-82
-89
-92
-96
-91
-96
-91
-95
-97
-94
-93
-96
-99
-98
-86
-82
-96
-98
-102
-100
-90
-90
-90
-90
-95
-93
-92
-97
-95
-95
-93
-101
-104
-102
-109
-108
-105
-105
-102
-105
-112
-115
-101
-106
-104
-106
-108
-109
-104
-105
-107
-108
-106
-100
-105
-107
-112
-114
-109
-105
-107
-106
-100
-108
-108
-107
-109
-116
-116
-119
-112
-106
-86
-69
-53
-43
-23
-13
-9
-8
-9
-15
-27
-48
-93
-125
-145
-149
-145
-144
-147
-141
-134
-142
-140
-139
-139
-136
-132
-131
-127
-119
-112
-116
-111
-107
-106
-115
-100
-97
-106
-107
-104
-104
-109
-104
-99
-101
-102
-101
-103
-104
-100
-100
-103
-99
-101
-106
-102
-92
-96
-96
-93
-97
-98
-103
-101
-105
-104
-92
-85
-91
-88
-93
-90
-92
-89
-97
-94
-91
-94
-92
-84
-95
-92
-92
-88
-86
-87
-87
-83
-87
-83
-84
-80
-76
-75
-68
-78
-72
-68
-67
-59
-61
-63
-61
-61
-61
-61
-62
-60
-46
-48
-55
-55
-54
-56
-58
-54
-49
-55
-54
-55
-56
-55
-57
-60
-55
-57
-60
-64
-69
-64
-64
-66
-69
-77
-81
-77
-76
-79
-77
-76
-84
-85
-92
-100
-94
-85
-91
-91
-92
-88
-92
-96
-97
-98
-103
-92
-95
-97
-100
-96
-98
-103
-92
-96
-97
-94
-101
-99
-97
-100
-102
-102
-101
-107
-107
-100
-95
-98
-98
-102
-102
-101
-100
-111
-104
-91
-100
-101
-100
-99
-101
-106
-101
-100
-101
-101
-101
-100
-92
-98
-101
-102
-102
-104
-96
-95
-99
-95
-95
-98
-97
-102
-102
-93
-98
-102
-102
-95
-95
-97
-100
-102
-103
-94
-100
-99
-100
-96
-95
-98
-102
-93
-96
-95
-104
-98
-97
-95
-97
-96
-102
-103
-102
-89
-98
-97
-92
-93
-90
-96
-96
-98
-94
-98
-91
-83
-96
-94
-94
-96
-98
-98
-102
-101
-93
-84
-91
-92
-91
-96
-98
-97
-99
-94
-90
-97
-93
-93
-89
-90
-97
-96
-94
-92
-91
-94
-93
-91
-89
-92
-91
-98
-102
-106
-98
-109
-110
-113
-117
-127
-122
-113
-113
-116
-116
-114
-108
-103
-107
-107
-110
-110
-113
-112
-107
-113
-112
-105
-102
-112
-109
-110
-116
-107
-104
-109
-110
-110
-114
-117
-101
-101
-95
-76
-59
-40
-15
-3
-4
-2
-9
-20
-36
-60
-91
-128
-150
-154
-161
-157
-157
-156
-154
-152
-149
-148
-142
-133
-132
-126
-119
-111
-116
-114
-113
-114
-112
-107
-104
-109
-107
-107
-120
-106
-98
-98
-105
-103
-103
-105
-112
-111
-98
-94
-97
-104
-103
-95
-97
-103
-101
-102
-98
-100
-100
-100
-101
-98
-97
-94
-98
-101
-100
-98
-97
-100
-94
-91
-95
-97
-90
-90
-95
-90
-91
-95
-87
-86
-86
-83
-83
-86
-84
-81
-85
-84
-79
-68
-74
-73
-76
-69
-61
-71
-70
-69
-65
-57
-61
-59
-60
-65
-57
-56
-61
-59
-47
-50
-48
-53
-51
-55
-53
-52
-56
-57
-56
-56
-59
-61
-64
-67
-58
-65
-65
-68
-63
-71
-68
-75
-79
-88
-84
-74
-83
-83
-83
-85
-89
-88
-88
-91
-92
-90
-92
-94
-93
-92
-92
-87
-91
-96
-93
-83
-94
-92
-85
-94
-96
-94
-95
-92
-99
-99
-92
-88
-96
-94
-92
-94
-93
-94
-96
-103
-97
-100
-100
-98
-94
-94
-97
-90
-80
-95
-100
-80
-90
-94
-94
-85
-83
-95
-94
-95
-95
-86
-90
-81
-95
-93
-96
-98
-93
-93
-94
-96
-94
-90
-91
-90
-93
-93
-93
-91
-88
-85
-91
-86
-92
-92
-95
-93
-95
-91
-85
-87
-86
-87
-89
-90
-93
-92
-91
-90
-94
-94
-92
-84
-86
-89
-92
-90
-92
-93
-91
-92
-95
-98
-94
-92
-92
-95
-97
-87
-93
-89
-88
-94
-94
-91
-94
-89
-89
-90
-89
-90
-87
-95
-88
-89
-94
-87
-91
-90
-85
-90
-83
-87
-86
-86
-82
-80
-85
-89
-85
-84
-83
-80
-79
-78
-87
-87
-86
-87
-88
-90
-96
-100
-98
-89
-100
-95
-96
-98
-98
-94
-94
-98
-99
-102
-97
-98
-97
-96
-95
-95
-96
-92
-98
-100
-103
-97
-98
-95
-101
-104
-101
-99
-102
-105
-104
-102
-107
-96
-89
-80
-65
-35
-15
-5
-1
16
9
4
4
-26
-59
-97
-133
-148
-146
-150
-151
-148
-145
-144
-143
-143
-136
-135
-129
-119
-114
-113
-106
-105
-104
-105
-105
-104
-106
-106
-106
-98
-95
-96
-96
-97
-92
-96
-98
-95
-97
-93
-90
-95
-92
-93
-94
-92
-92
-95
-98
-91
-82
-87
-93
-88
-85
-91
-94
-89
-91
-97
-85
-87
-91
-88
-90
-80
-85
-83
-84
-87
-88
-93
-78
-74
-77
-82
-77
-76
-76
-77
-73
-73
-75
-71
-68
-70
-73
-67
-65
-60
-59
-56
-60
-60
-55
-53
-56
-56
-57
-54
-50
-44
-48
-45
-51
-59
-52
-46
-47
-46
-47
-51
-52
-44
-47
-50
-51
-56
-56
-57
-59
-65
-68
-65
-70
-67
-73
-73
-79
-79
-78
-80
-87
-90
-95
-97
-99
-105
-110
-110
-99
-99
-96
-104
-107
-109
-112
-111
-97
-99
-106
-111
-110
-113
-113
-111
-116
-113
-112
-109
-110
-110
-113
-107
-115
-116
-117
-116
-113
-115
-116
-115
-113
-110
-110
-112
-111
-113
-119
-111
-114
-112
-116
-119
-114
-114
-122
-125
-114
-109
-117
-115
-115
-119
-121
-117
-118
-116
-118
-118
-117
-108
-104
-111
-116
-116
-120
-115
-117
-111
-118
-118
-112
-109
-106
-103
-105
-114
-115
-111
-105
-106
-108
-105
-105
-100
-103
-101
-103
-100
-104
-106
-99
-99
-104
-104
-105
-108
-102
-99
-104
-102
-98
-99
-106
-105
-100
-105
-102
-97
-107
-105
-94
-107
-100
-90
-91
-97
-99
-95
-92
-99
-104
-98
-99
-91
-89
-92
-94
-87
-91
-94
-88
-94
-93
-88
-91
-92
-92
-90
-88
-82
-84
-87
-88
-82
-88
-94
-82
-84
-94
-96
-93
-100
-102
-96
-95
-95
-96
-98
-100
-97
-102
-94
-100
-102
-99
-99
-85
-92
-98
-95
-95
-101
-103
-100
-100
-100
-93
-99
-101
-98
-99
-106
-107
-99
-104
-98
-98
-97
-93
-85
-74
-61
-43
-27
-11
-4
3
-3
-13
-20
-29
-71
-114
-144
-150
-149
-143
-141
-141
-146
-140
-131
-136
-134
-141
-121
-116
-115
-115
-107
-101
-106
-109
-103
-102
-99
-99
-104
-101
-96
-89
-97
-91
-91
-93
-91
-95
-99
-92
-93
-88
-94
-90
-94
-93
-92
-87
-89
-89
-88
-92
-92
-87
-89
-92
-92
-77
-82
-88
-86
-87
-87
-85
-82
-85
-86
-79
-81
-84
-74
-85
-83
-78
-81
-78
-73
-72
-71
-67
-66
-69
-69
-67
-67
-71
-65
-59
-61
-51
-56
-54
-53
-50
-50
-55
-49
-48
-47
-41
-42
-43
-41
-38
-46
-44
-39
-39
-40
-38
-38
-42
-46
-42
-44
-53
-42
-37
-48
-50
-48
-52
-58
-59
-57
-61
-60
-60
-63
-60
-58
-73
-72
-64
-77
-83
-80
-69
-72
-76
-79
-82
-82
-81
-85
-84
-84
-83
-84
-82
-86
-87
-85
-85
-83
-83
-77
-87
-85
-89
-85
-87
-89
-84
-86
-82
-88
-88
-89
-88
-93
-91
-89
-86
-84
-84
-89
-90
-75
-81
-90
-79
-86
-85
-86
-81
-84
-86
-84
-82
-82
-85
-82
-78
-85
-82
-77
-82
-83
-84
-82
-82
-86
-80
-88
-90
-79
-83
-82
-79
-82
-84
-80
-81
-77
-78
-83
-84
-83
-80
-90
-87
-79
-77
-81
-78
-77
-83
-82
-81
-86
-82
-82
-87
-89
-75
-74
-80
-85
-86
-78
-81
-86
-82
-81
-78
-86
-85
-79
-82
-85
-84
-80
-78
-77
-78
-69
-75
-83
-81
-84
-78
-78
-81
-80
-75
-72
-77
-76
-77
-73
-76
-78
-71
-73
-73
-70
-72
-74
-63
-75
-73
-64
-76
-73
-72
-77
-85
-89
-80
-81
-71
-83
-84
-84
-79
-82
-87
-78
-80
-84
-85
-84
-85
-84
-83
-89
-85
-84
-81
-85
-87
-90
-88
-90
-91
-94
-91
-92
-92
-90
-99
-101
-97
-92
-84
-87
-72
-50
-33
-16
-1
6
-2
-5
3
-13
-30
-61
-100
-127
-135
-135
-139
-140
-136
-138
-138
-137
-135
-128
-128
-123
-124
-120
-115
-115
-109
-111
-105
-110
-104
-99
-104
-103
-97
-101
-102
-101
-106
-105
-105
-95
-102
-102
-101
-101
-107
-101
-109
-109
-102
-104
-109
-96
-97
-102
-106
-105
-107
-111
-107
-107
-109
-101
-105
-109
-110
-106
-106
-104
-103
-107
-106
-102
-108
-109
-111
-113
-112
-114
-112
-114
-115
-111
-115
-119
-123
-126
-131
-131
-137
-139
-134
-137
-142
-138
-138
-127
-142
-145
-139
-140
-144
-143
-131
-134
-133
-135
-139
-136
-142
-142
-142
-125
-123
-116
-119
-119
-117
-110
-106
-109
-103
-99
-107
-104
-109
-109
-109
-109
-106
-106
-109
-108
-110
-114
-111
-114
-116
-112
-109
-112
-118
-108
-112
-116
-118
-114
-113
-113
-113
-112
-114
-114
-110
-108
-115
-115
-106
-113
-119
-120
-109
-101
-102
-103
-97
-105
-115
-109
-105
-105
-104
-105
-94
-108
-101
-101
-104
-104
-103
-99
-100
-100
-101
-102
-98
-104
-97
-99
-97
-90
-91
-96
-95
-94
-95
-95
-94
-93
-89
-88
-91
-93
-96
-92
-83
-99
-96
-92
-89
-79
-80
-86
-86
-86
-88
-89
-90
-89
-83
-82
-81
-83
-88
-89
-81
-83
-83
-81
-78
-82
-81
-82
-84
-80
-81
-87
-78
-84
-82
-84
-78
-79
-82
-84
-79
-83
-86
-86
-92
-80
-74
-81
-82
-79
-78
-75
-77
-74
-79
-81
-79
-75
-75
-74
-67
-71
-76
-74
-77
-68
-62
-73
-77
-71
-68
-68
-70
-68
-73
-71
-61
-70
-69
-66
-66
-70
-74
-77
-78
-75
-72
-82
-79
-75
-78
-83
-76
-67
-77
-73
-73
-80
-79
-69
-72
-73
-72
-76
-76
-76
-69
-63
-74
-75
-69
-70
-68
-72
-74
-76
-78
-79
-82
-75
-74
-69
-55
-37
-17
-2
8
18
22
29
20
11
7
-24
-60
-96
-108
-109
-117
-112
-115
-121
-114
-105
-104
-108
-100
-97
-89
-82
-87
-80
-79
-75
-82
-80
-67
-67
-74
-71
-68
-62
-65
-67
-64
-58
-65
-61
-65
-65
-64
-66
-56
-60
-63
-61
-62
-62
-56
-56
-63
-62
-58
-56
-57
-52
-52
-56
-59
-54
-58
-53
-54
-52
-48
-49
-52
-52
-48
-49
-54
-46
-39
-46
-46
-43
-44
-43
-46
-44
-48
-41
-33
-32
-32
-28
-30
-33
-35
-26
-21
-29
-27
-26
-16
-18
-14
-18
-17
-13
-10
-9
-11
-9
-7
-4
-6
-2
-9
-8
-6
-6
-9
-6
-6
-7
-15
-14
-13
-19
-12
-18
-23
-27
-18
-19
-19
-28
-34
-32
-25
-25
-32
-36
-34
-38
-41
-37
-38
-41
-42
-47
-38
-40
-38
-40
-39
-42
-43
-40
-44
-45
-48
-40
-44
-49
-41
-43
-45
-53
-46
-44
-46
-47
-41
-46
-47
-48
-47
-51
-40
-42
-45
-49
-47
-47
-44
-33
-41
-49
-43
-40
-42
-42
-40
-46
-37
-38
-41
-44
-38
-38
-43
-40
-37
-27
-35
-42
-37
-43
-36
-37
-38
-35
-33
-36
-40
-40
-33
-43
-45
-39
-34
-36
-35
-37
-34
-37
-37
-44
-35
-36
-44
-30
-30
-33
-35
-38
-40
-43
-34
-28
-32
-32
-30
-35
-36
-34
-37
-37
-33
-31
-29
-35
-37
-36
-28
-31
-33
-31
-31
-37
-27
-32
-33
-33
-29
-32
-31
-30
-33
-30
-28
-25
-29
-28
-32
-29
-27
-26
-21
-28
-29
-19
-20
-22
-27
-19
-19
-25
-31
-31
-28
-29
-33
-37
-37
-33
-41
-46
-34
-24
-33
-33
-31
-35
-36
-31
-41
-41
-39
-31
-35
-28
-28
-29
-31
-35
-41
-37
-29
-33
-30
-38
-37
-38
-43
-37
-37
-24
-19
-3
15
36
54
62
55
59
60
49
42
18
-15
-51
-74
-76
-80
-76
-79
-75
-69
-72
-69
-61
-64
-60
-56
-45
-42
-42
-38
-42
-36
-41
-34
-33
-34
-31
-33
-39
-31
-31
-32
-28
-24
-28
-28
-25
-33
-38
-32
-34
-19
-9
-19
-25
-23
-23
-24
-23
-26
-28
-24
-18
-22
-22
-25
-21
-25
-24
-23
-21
-19
-19
-18
-20
-22
-21
-16
-11
-12
-13
-14
-9
-20
-11
-5
-6
-9
-5
-9
-9
-1
-7
-6
-6
0
3
2
3
9
5
3
14
8
8
13
6
11
19
14
13
17
24
21
19
22
18
12
16
14
16
16
21
10
10
8
5
14
6
1
3
6
8
-4
-5
-4
-15
-13
-7
-8
-13
-15
-19
-18
-21
-16
-16
-19
-18
-19
-19
-19
-18
-14
-14
-19
-24
-24
-18
-19
-20
-20
-18
-19
-21
-24
-26
-20
-15
-24
-26
-14
-21
-25
-23
-24
-25
-21
-21
-20
-20
-16
-17
-26
-25
-23
-33
-27
-26
-21
-18
-23
-26
-20
-20
-20
-25
-30
-25
-19
-16
-21
-20
-22
-23
-23
-19
-18
-22
-16
-15
-18
-18
-12
-26
-18
-5
-15
-18
-23
-12
-18
-24
-21
-19
-24
-21
-18
-22
-21
-14
-15
-22
-22
-15
-23
-24
-20
-21
-24
-18
-15
-22
-25
-25
-26
-21
-20
-20
-21
-17
-16
-19
-20
-22
-28
-28
-24
-14
-16
-9
-17
-23
-20
-18
-18
-20
-15
-18
-15
-16
-19
-16
-10
-6
-12
-20
-15
-15
-13
-14
-11
-15
-12
-15
-17
-11
-21
-16
-19
-17
-16
-19
-21
-26
-27
-23
-22
-25
-23
-20
-17
-22
-19
-26
-32
-25
-25
-17
-16
-18
-19
-20
-26
-20
-19
-15
-17
-26
-29
-23
-22
-26
-27
-26
-32
-23
-20
-12
-9
10
31
45
59
63
65
67
62
56
36
7
-32
-63
-71
-75
-73
-70
-70
-66
-60
-58
-57
-57
-50
-43
-38
-43
-31
-31
-26
-25
-28
-21
-20
-28
-28
-21
-16
-18
-19
-14
-18
-24
-22
-24
-25
-17
-13
-18
-19
-22
-23
-14
-19
-15
-14
-13
-16
-19
-17
-14
-15
-17
-14
-19
-16
-14
-13
-12
-11
-10
-12
-9
-17
-20
-16
-10
-12
-8
-11
-14
-8
-8
-13
-13
-11
-4
0
-4
0
-4
-7
1
6
7
5
4
6
11
12
10
5
12
19
9
12
16
23
11
17
19
15
28
19
17
20
19
17
17
20
17
13
11
15
14
13
10
14
11
10
7
2
0
-1
-4
-3
-3
-9
-8
-7
-10
-7
-11
-14
-18
-18
-20
-21
-10
-13
-12
-19
-23
-19
-20
-12
-11
-16
-18
-24
-19
-10
-17
-22
-15
-14
-15
-16
-12
-21
-14
-19
-18
-24
-14
-18
-20
-23
-21
-20
-23
-29
-16
-22
-26
-21
-18
-15
-16
-17
-19
-22
-20
-23
-23
-22
-20
-18
-18
-18
-18
-18
-18
-22
-15
-11
-16
-17
-9
-17
-18
-18
-21
-18
-19
-16
-11
-19
-17
-13
-21
-26
-21
-19
-22
-16
-18
-10
-15
-17
-17
-22
-22
-18
-14
-15
-18
-17
-13
-17
-20
-18
-18
-20
-17
-21
-18
-21
-16
-21
-20
-19
-18
-18
-18
-19
-17
-17
-20
-16
-22
-26
-22
-18
-15
-25
-13
-17
-11
-11
-16
-18
-15
-12
-16
-14
-16
-17
-11
-11
-10
-14
-17
-21
-22
-11
-15
-18
-17
-13
-15
-6
-9
-12
-14
-16
-14
-15
-21
-15
-24
-33
-26
-13
-6
-20
-19
-14
-18
-21
-17
-20
-29
-26
-14
-21
-25
-22
-16
-16
-24
-22
-24
-26
-26
-25
-25
-18
-23
-26
-26
-20
-25
-25
-20
-10
-2
15
24
41
56
69
62
61
53
45
31
1
-30
-59
-71
-68
-74
-76
-74
-71
-66
-59
-54
-50
-49
-46
-43
-39
-31
-28
-31
-26
-25
-26
-24
-23
-27
-24
-22
-19
-26
-13
-15
-23
-14
-20
-17
-19
-20
-22
-24
-13
-7
-16
-22
-27
-20
-11
-9
-12
-16
-14
-14
-17
-21
-15
-15
-14
-15
-23
-13
-4
-8
-5
-9
-11
-10
-9
-10
-10
-12
-1
-7
-7
-11
-12
-10
-1
0
-4
-5
-2
4
5
-2
-1
8
11
1
6
10
13
8
8
16
10
17
21
17
15
21
21
23
22
21
17
14
22
23
14
17
22
20
14
18
11
5
4
-5
-6
16
11
9
6
-5
0
-7
-3
-2
-3
0
-2
-7
-8
-8
-17
-14
-8
-14
-8
-8
-9
-12
-18
-16
-17
-21
-16
-18
-17
-18
-21
-14
-17
-20
-15
-20
-15
-17
-17
-12
-16
-14
-14
-19
-21
-16
-15
-16
-23
-18
-20
-19
-20
-15
-19
-19
-14
-24
-23
-9
-13
-25
-17
-9
-14
-19
-18
-20
-14
-17
-19
-20
-18
-18
-17
-19
-19
-15
-10
-12
-15
-15
-14
-18
-17
-16
-15
-14
-11
-15
-16
-17
-15
-16
-18
-21
-15
-20
-14
-18
-16
-19
-17
-18
-19
-17
-17
-17
-16
-18
-15
-11
-17
-14
-14
-20
-20
-16
-13
-14
-18
-17
-16
-14
-13
-16
-20
-13
-16
-16
-19
-15
-11
-19
-14
-15
-20
-21
-26
-14
-10
-18
-18
-12
-24
-13
-6
-13
-11
-9
-14
-9
-8
-13
-19
-14
-10
-14
-11
-13
-15
-16
-10
-10
-11
-12
-14
-8
-9
-4
-12
-14
-9
-11
-10
-9
-19
-15
-9
-20
-23
-16
-15
-20
-21
-18
-17
-11
-13
-15
-14
-17
-22
-20
-18
-15
-20
-14
-12
-13
-14
-15
-21
-19
-18
-19
-23
-20
-20
-23
-13
-19
-23
-23
-19
-16
-5
-2
18
28
40
54
62
64
61
57
46
23
-10
-41
-64
-72
-70
-66
-67
-72
-63
-58
-47
-54
-48
-45
-42
-34
-27
-30
-27
-17
-23
-19
-20
-23
-20
-20
-20
-20
-17
-16
-12
-15
-14
-16
-20
-19
-18
-15
-13
-14
-13
-11
-15
-19
-7
-11
-10
-8
-9
-9
-9
-13
-14
-11
-16
-11
-8
-10
-10
-5
-10
-12
-2
-12
-14
-5
-4
-8
-9
-2
-5
-3
2
-1
-2
1
2
3
4
6
12
7
3
3
9
13
14
9
12
18
15
14
16
20
17
15
15
23
18
24
24
24
23
18
20
22
20
17
19
23
23
13
14
14
17
21
17
15
12
12
10
9
14
7
0
2
0
0
-5
-6
-9
-1
-9
0
-5
-7
-6
-9
-9
-9
-18
-14
-10
-10
-12
-12
-10
-15
-11
-11
-17
-13
-17
-15
-14
-13
-13
-15
-15
-14
-16
-16
-14
-19
-15
-13
-10
-18
-16
-8
-14
-15
-12
-15
-18
-12
-18
-19
-16
-8
-12
-16
-13
-19
-16
-11
-17
-14
-10
-10
-19
-17
-12
-19
-17
-17
-9
-15
-10
-9
-15
-10
-10
-15
-17
-11
-13
-16
-14
-14
-17
-17
-16
-18
-9
-14
-14
-18
-13
-14
-10
-6
-11
-18
-9
-16
-19
-20
-17
-15
-14
-15
-13
-13
-14
-14
-18
-13
-10
-13
-15
-14
-12
-16
-17
-16
-21
-14
-9
-12
-17
-16
-14
-8
-14
-14
-16
-10
-10
-11
-20
-17
-16
-19
-17
-18
-16
-15
-15
-16
-20
-18
-18
-18
-8
-15
-21
-20
-13
-18
-18
-20
-15
-16
-15
-12
-13
-14
-11
-16
-20
-21
-18
-22
-14
-12
-14
-20
-17
-13
-11
-9
-12
-14
-11
-13
-16
-14
-11
-11
-11
-13
-10
-10
-12
-8
-10
-6
-5
-10
-10
-14
-12
-16
-16
-9
-14
-14
-18
-18
-22
-24
-32
-27
-21
-14
-18
-14
-14
-21
-25
-17
-12
-16
-21
-21
-11
-18
-28
-22
-16
-16
-22
-17
-20
-18
-19
-18
-20
-23
-23
-14
-18
-12
14
25
36
52
61
64
60
56
51
28
-5
-42
-67
-69
-78
-81
-66
-69
-73
-71
-68
-62
-54
-42
-43
-45
-40
-23
-35
-28
-22
-26
-21
-18
-23
-25
-18
-18
-25
-26
-20
-18
-18
-22
-24
-21
-14
-21
-25
-21
-16
-19
-16
-15
-16
-19
-21
-17
-19
-16
-15
-19
-17
-10
-12
-18
-18
-19
-19
-16
-16
-15
-14
-12
-11
-11
-14
-11
-11
-11
-7
-8
-9
-5
-12
-10
-2
2
-7
-9
-9
0
0
-4
-6
-3
10
5
2
3
9
5
7
11
13
15
17
11
15
12
14
16
16
24
21
17
18
9
9
17
15
15
20
17
8
7
9
3
3
9
6
0
3
-2
-12
-7
3
-10
-15
-7
-13
-15
-8
-15
-17
-10
-13
-19
-17
-17
-16
-18
-10
-14
-17
-17
-21
-24
-27
-23
-22
-17
-14
-22
-24
-17
-20
-20
-20
-23
-29
-18
-21
-17
-17
-21
-20
-22
-25
-27
-25
-23
-14
-25
-18
-18
-15
-25
-27
-23
-22
-22
-20
-20
-23
-19
-16
-25
-20
-19
-25
-20
-16
-27
-21
-18
-21
-22
-17
-16
-21
-22
-18
-18
-19
-19
-23
-23
-21
-19
-24
-23
-19
-22
-21
-25
-29
-23
-24
-27
-20
-23
-29
-28
-16
-20
-28
-23
-19
-15
-19
-20
-26
-22
-26
-22
-15
-17
-23
-24
-20
-20
-19
-20
-25
-27
-26
-30
-28
-25
-22
-17
-24
-29
-27
-23
-29
-26
-28
-26
-20
-14
-23
-26
-20
-20
-26
-26
-27
-25
-24
-25
-26
-27
-25
-23
-29
-21
-19
-27
-30
-17
-21
-31
-20
-20
-32
-28
-27
-23
-21
-17
-23
-18
-28
-30
-25
-22
-20
-25
-27
-22
-17
-20
-25
-28
-32
-23
-23
-23
-23
-21
-24
-27
-23
-18
-22
-24
-23
-20
-17
-21
-23
-22
-16
-27
-25
-21
-25
-21
-16
-14
-18
-13
-12
-17
-19
-19
-24
-26
-23
-18
-23
-31
-29
-16
-32
-34
-28
-26
-19
-17
-23
-22
-21
-23
-29
-25
-24
-26
-28
-22
-27
-34
-30
-23
-25
-31
-28
-21
-30
-30
-28
-24
-30
-29
-26
-21
-15
-5
10
27
45
50
52
51
48
40
27
2
-34
-65
-83
-81
-85
-87
-74
-74
-71
-69
-59
-61
-62
-55
-46
-45
-45
-43
-39
-32
-26
-24
-28
-29
-29
-30
-28
-30
-30
-24
-26
-30
-26
-27
-28
-25
-23
-26
-21
-23
-25
-25
-21
-27
-22
-25
-18
-19
-23
-29
-12
-10
-21
-15
-23
-33
-22
-17
-20
-15
-20
-18
-18
-21
-16
-15
-13
-14
-15
-18
-13
-6
-8
-15
-13
-15
-15
-9
-9
-12
-5
-8
-9
-8
-4
-3
1
-6
-6
6
9
1
-1
2
18
8
5
6
9
12
10
9
9
11
9
10
11
11
11
11
7
5
2
3
3
2
2
9
5
-3
-2
1
-7
-4
-7
-13
-15
-14
-14
-10
-6
-11
-20
-20
-19
-24
-12
-17
-26
-20
-23
-23
-23
-31
-31
-26
-22
-27
-25
-23
-27
-21
-19
-23
-30
-27
-27
-31
-26
-20
-24
-26
-23
-25
-26
-26
-25
-29
-29
-27
-24
-31
-27
-23
-31
-37
-15
-24
-30
-24
-26
-29
-28
-25
-26
-28
-23
-25
-27
-22
-25
-21
-23
-23
-32
-31
-34
-30
-19
-28
-22
-27
-26
-20
-22
-22
-24
-27
-22
-26
-27
-24
-22
-27
-33
-27
-24
-31
-27
-24
-27
-28
-28
-27
-28
-26
-31
-34
-26
-22
-25
-28
-28
-35
-23
-26
-29
-31
-19
-17
-29
-35
-33
-29
-27
-29
-28
-25
-23
-26
-30
-33
-36
-36
-31
-30
-37
-32
-26
-28
-24
-24
-28
-28
-29
-29
-30
-27
-29
-27
-22
-28
-34
-36
-32
-27
-32
-35
-31
-20
-24
-28
-33
-31
-34
-34
-33
-32
-34
-36
-30
-29
-30
-37
-29
-31
-31
-29
-25
-29
-28
-29
-31
-31
-27
-29
-34
-31
-29
-30
-23
-30
-27
-27
-33
-26
-27
-28
-26
-23
-28
-31
-29
-34
-35
-19
-26
-22
-20
-20
-27
-24
-20
-24
-24
-21
-33
-34
-31
-32
-30
-33
-33
-41
-35
-32
-30
-29
-28
-34
-40
-34
-34
-29
-38
-25
-24
-33
-32
-27
-32
-38
-39
-33
-28
-31
-34
-36
-37
-33
-30
-32
-43
-31
-23
-21
-9
7
20
31
47
49
44
44
34
13
-19
-52
-79
-90
-92
-99
-89
-89
-85
-81
-79
-73
-70
-65
-63
-64
-55
-60
-54
-45
-46
-42
-37
-37
-37
-35
-36
-38
-36
-38
-39
-40
-35
-39
-36
-35
-38
-30
-28
-30
-30
-31
-32
-33
-31
-35
-40
-40
-38
-32
-31
-28
-28
-33
-32
-35
-37
-30
-31
-32
-27
-32
-33
-34
-27
-27
-38
-35
-33
-27
-29
-30
-25
-19
-29
-22
-29
-23
-24
-27
-31
-18
-17
-8
-12
-22
-20
-14
-14
-13
-12
-11
-16
-12
-7
-8
-10
-9
-8
-12
-10
-5
-7
-4
-4
-9
-9
-7
-5
-8
-2
-8
-9
-6
-7
-12
-17
-15
-16
-21
-16
-17
-21
-17
-26
-29
-28
-31
-34
-41
-47
-36
-27
-31
-38
-42
-41
-45
-39
-43
-41
-42
-46
-42
-43
-46
-48
-44
-40
-46
-43
-42
-49
-52
-50
-47
-51
-53
-49
-53
-52
-52
-47
-49
-48
-52
-52
-53
-58
-54
-49
-49
-53
-55
-55
-56
-58
-56
-56
-50
-37
-50
-56
-60
-50
-48
-52
-53
-51
-56
-54
-51
-47
-51
-56
-56
-51
-54
-55
-52
-56
-53
-55
-55
-54
-54
-49
-47
-51
-56
-54
-53
-54
-55
-56
-57
-55
-56
-60
-58
-52
-50
-52
-53
-59
-64
-58
-62
-49
-52
-53
-57
-56
-51
-58
-62
-57
-55
-43
-49
-49
-55
-60
-64
-54
-58
-56
-53
-56
-57
-52
-49
-54
-68
-62
-60
-59
-59
-56
-55
-53
-55
-58
-56
-52
-56
-56
-57
-58
-56
-54
-58
-57
-60
-59
-70
-66
-47
-56
-59
-56
-58
-64
-61
-61
-65
-61
-56
-58
-53
-47
-52
-62
-57
-48
-54
-54
-53
-62
-58
-53
-49
-61
-62
-55
-57
-53
-52
-52
-53
-52
-58
-59
-50
-57
-56
-54
-51
-52
-51
-49
-48
-50
-55
-54
-53
-51
-55
-58
-58
-61
-59
-68
-63
-65
-70
-57
-57
-62
-58
-55
-60
-68
-68
-61
-61
-60
-59
-61
-60
-59
-61
-65
-61
-60
-62
-63
-68
-68
-62
-68
-72
-72
-74
-68
-71
-49
-44
-27
-16
-6
10
16
12
17
5
0
-19
-54
-89
-115
-124
-124
-123
-121
-119
-116
-111
-105
-102
-99
-96
-100
-89
-88
-75
-72
-76
-73
-70
-66
-69
-71
-72
-70
-67
-71
-69
-64
-59
-66
-73
-71
-68
-71
-70
-63
-71
-66
-65
-63
-60
-59
-66
-60
-64
-66
-66
-61
-60
-58
-60
-59
-61
-59
-62
-61
-59
-57
-59
-59
-62
-54
-61
-58
-55
-55
-57
-57
-57
-57
-55
-59
-54
-51
-55
-51
-49
-52
-49
-53
-47
-41
-47
-46
-40
-30
-38
-34
-40
-37
-36
-39
-37
-34
-28
-36
-31
-14
-26
-27
-27
-27
-28
-24
-26
-31
-26
-28
-31
-34
-35
-35
-36
-38
-33
-39
-45
-41
-42
-37
-42
-44
-48
-47
-45
-54
-51
-49
-50
-54
-57
-58
-56
-61
-59
-63
-61
-56
-69
-61
-69
-64
-63
-71
-67
-66
-68
-55
-60
-71
-64
-52
-71
-67
-63
-66
-67
-69
-65
-60
-66
-64
-60
-61
-66
-68
-66
-63
-67
-67
-61
-70
-73
-66
-64
-68
-62
-61
-60
-55
-65
-69
-63
-63
-65
-63
-60
-60
-64
-64
-63
-64
-62
-64
-67
-68
-63
-56
-55
-57
-62
-74
-67
-55
-63
-62
-57
-60
-65
-61
-66
-63
-66
-64
-62
-63
-61
-65
-67
-58
-57
-67
-66
-59
-57
-68
-63
-66
-57
-66
-63
-58
-63
-66
-66
-65
-61
-70
-70
-63
-60
-68
-71
-65
-62
-60
-64
-66
-67
-68
-62
-66
-69
-64
-66
-61
-61
-65
-62
-62
-61
-67
-66
-67
-69
-62
-64
-64
-65
-73
-79
-68
-60
-68
-63
-69
-70
-61
-64
-68
-66
-68
-61
-58
-69
-68
-66
-71
-72
-60
-56
-64
-65
-60
-63
-62
-59
-59
-64
-60
-61
-65
-65
-59
-62
-58
-57
-58
-55
-52
-65
-52
-59
-57
-63
-63
-64
-68
-71
-67
-73
-72
-67
-70
-66
-70
-72
-71
-70
-70
-68
-68
-66
-63
-71
-76
-61
-69
-70
-65
-74
-75
-72
-64
-73
-74
-71
-67
-64
-72
-70
-71
-77
-75
-67
-51
-50
-41
-31
-14
0
1
8
10
1
-11
-32
-67
-109
-123
-133
-130
-121
-122
-124
-117
-114
-114
-115
-109
-106
-101
-99
-93
-81
-75
-85
-80
-84
-75
-75
-75
-75
-76
-72
-76
-76
-77
-80
-80
-73
-79
-72
-68
-64
-66
-73
-72
-74
-71
-73
-72
-75
-66
-69
-66
-66
-69
-65
-69
-71
-74
-72
-70
-70
-70
-62
-66
-71
-72
-70
-70
-63
-58
-63
-59
-58
-61
-67
-63
-64
-55
-56
-56
-61
-51
-53
-51
-51
-54
-51
-52
-49
-48
-51
-46
-42
-45
-47
-42
-40
-44
-44
-43
-34
-31
-36
-38
-35
-35
-41
-41
-32
-30
-37
-38
-39
-36
-39
-40
-47
-51
-44
-41
-41
-46
-50
-55
-53
-52
-55
-58
-56
-59
-59
-54
-62
-66
-64
-64
-67
-70
-75
-71
-65
-66
-70
-74
-74
-75
-81
-79
-80
-80
-72
-76
-76
-82
-88
-86
-83
-84
-83
-84
-81
-84
-86
-73
-80
-83
-88
-78
-92
-84
-83
-94
-90
-88
-87
-82
-76
-87
-92
-81
-93
-85
-84
-86
-87
-88
-94
-87
-89
-90
-85
-87
-90
-86
-89
-92
-88
-90
-91
-90
-93
-96
-90
-88
-85
-91
-93
-89
-93
-89
-84
-84
-89
-90
-85
-94
-93
-88
-92
-92
-91
-97
-103
-99
-94
-104
-92
-96
-93
-98
-93
-94
-96
-105
-105
-91
-86
-93
-98
-97
-93
-88
-89
-88
-98
-97
-92
-84
-87
-93
-91
-93
-98
-95
-93
-95
-95
-95
-99
-93
-96
-102
-102
-105
-105
-107
-100
-95
-95
-95
-95
-100
-98
-102
-105
-102
-95
-95
-97
-88
-89
-94
-98
-103
-100
-95
-92
-92
-94
-86
-90
-95
-96
-97
-96
-97
-97
-91
-91
-90
-89
-93
-101
-104
-104
-113
-105
-113
-112
-105
-112
-115
-112
-114
-111
-113
-111
-110
-109
-113
-119
-119
-113
-107
-114
-113
-111
-118
-114
-110
-115
-125
-108
-120
-120
-118
-117
-121
-123
-119
-115
-120
-109
-99
-88
-73
-58
-47
-49
-44
-46
-51
-68
-95
-136
-163
-185
-185
-186
-187
-180
-181
-181
-170
-172
-171
-167
-167
-168
-160
-148
-150
-145
-144
-146
-149
-146
-145
-142
-138
-141
-147
-150
-141
-138
-137
-134
-135
-143
-138
-140
-139
-136
-136
-140
-138
-138
-143
-141
-135
-141
-152
-140
-141
-144
-140
-136
-139
-142
-144
-141
-145
-137
-144
-149
-143
-145
-141
-143
-142
-141
-146
-147
-146
-141
-145
-144
-147
-143
-143
-144
-145
-141
-143
-147
-134
-141
-141
-139
-137
-140
-142
-135
-133
-131
-132
-130
-123
-126
-123
-118
-126
-131
-128
-122
-120
-120
-117
-115
-123
-124
-124
-125
-130
-128
-129
-130
-136
-132
-133
-138
-137
-137
-142
-143
-144
-144
-145
-147
-156
-154
-156
-153
-151
-154
-161
-165
-161
-160
-164
-166
-164
-169
-171
-169
-167
-177
-174
-160
-171
-172
-169
-165
-169
-173
-168
-169
-171
-170
-168
-168
-170
-176
-174
-169
-170
-170
-174
-168
-172
-170
-163
-169
-177
-172
-170
-171
-168
-167
-169
-174
-169
-180
-170
-168
-158
-161
-164
-167
-165
-168
-170
-171
-163
-164
-160
-166
-161
-166
-172
-162
-167
-170
-165
-162
-164
-164
-168
-164
-170
-173
-157
-168
-164
-162
-165
-169
-159
-160
-162
-159
-161
-166
-164
-159
-163
-160
-158
-158
-159
-162
-160
-162
-162
-160
-156
-161
-162
-169
-162
-157
-162
-165
-165
-152
-149
-151
-153
-155
-157
-151
-152
-156
-154
-156
-159
-153
-141
-150
-151
-154
-153
-156
-157
-157
-156
-149
-159
-155
-153
-151
-150
-157
-155
-147
-154
-155
-149
-152
-143
-139
-147
-150
-152
-152
-149
-154
-155
-153
-156
-160
-162
-164
-164
-158
-159
-162
-153
-158
-164
-160
-157
-163
-161
-157
-160
-161
-150
-150
-161
-162
-158
-160
-158
-152
-156
-153
-151
-161
-166
-169
-164
-156
-155
-149
-147
-134
-119
-111
-95
-79
-80
-77
-80
-83
-96
-120
-150
-199
-215
-214
-220
-200
-209
-203
-196
-190
-191
-194
-199
-198
-191
-194
-185
-166
-170
-176
-168
-156
-153
-158
-166
-168
-158
-158
-163
-166
-161
-158
-161
-159
-158
-159
-156
-158
-157
-153
-150
-155
-151
-152
-151
-153
-155
-158
-157
-148
-153
-156
-157
-145
-157
-155
-157
-158
-157
-154
-156
-157
-154
-153
-156
-154
-150
-154
-150
-149
-146
-150
-151
-150
-150
-148
-141
-144
-141
-141
-143
-144
-140
-137
-141
-132
-125
-133
-137
-128
-130
-125
-125
-124
-130
-123
-119
-123
-120
-108
-113
-118
-116
-121
-119
-112
-115
-120
-118
-114
-119
-124
-122
-123
-127
-131
-129
-128
-134
-131
-133
-137
-138
-140
-144
-148
-149
-151
-153
-143
-145
-151
-158
-154
-153
-154
-152
-152
-155
-156
-155
-159
-160
-165
-164
-158
-155
-158
-157
-159
-160
-152
-157
-163
-164
-150
-153
-147
-148
-158
-157
-153
-146
-154
-156
-150
-150
-150
-149
-150
-155
-156
-154
-145
-160
-153
-159
-152
-150
-151
-149
-155
-149
-153
-149
-148
-149
-152
-149
-147
-149
-149
-146
-148
-151
-146
-147
-151
-150
-146
-149
-148
-143
-145
-146
-148
-150
-147
