57
54
58
51
48
41
53
51
50
52
48
44
43
41
52
55
49
45
57
52
57
55
45
35
48
44
45
51
50
48
50
51
47
40
40
47
53
55
59
54
52
54
50
35
48
55
53
53
52
59
59
52
57
46
52
47
44
53
55
50
58
66
60
47
51
51
54
61
64
58
53
47
47
48
49
56
60
60
62
66
68
71
70
72
83
71
63
66
69
71
74
77
71
69
70
79
75
81
78
74
68
75
60
60
64
65
60
67
67
64
66
57
57
49
50
51
47
52
61
61
56
58
55
53
60
56
50
53
61
61
56
68
54
67
65
56
56
72
79
80
84
104
119
140
158
164
157
147
123
87
59
38
22
6
12
22
27
27
28
38
48
50
44
48
49
48
62
57
61
71
54
57
60
63
71
58
61
71
65
60
64
63
67
62
65
70
70
68
63
62
82
63
61
70
70
65
67
74
71
71
70
74
74
77
74
76
83
81
87
92
82
71
64
81
87
70
83
85
80
76
78
81
81
90
83
85
93
97
99
99
96
89
94
99
102
101
92
98
108
106
101
101
104
106
105
102
114
114
110
108
117
106
115
124
118
108
108
117
121
126
125
123
113
112
109
106
117
121
119
114
115
104
103
105
109
98
108
107
102
101
91
88
82
88
86
80
81
84
85
80
80
77
75
75
70
75
75
78
70
69
72
74
67
70
75
68
82
82
79
83
78
73
60
56
68
71
74
73
75
81
79
64
73
78
71
68
79
75
73
67
65
66
68
74
70
64
63
74
74
69
60
65
68
72
60
66
83
80
84
77
80
65
68
73
79
77
82
73
76
83
75
69
75
70
62
71
71
76
75
78
75
69
68
70
75
71
76
79
79
70
57
61
68
65
71
81
78
74
66
72
74
76
72
71
70
79
76
79
81
78
78
66
69
79
77
79
75
82
76
90
93
82
81
85
90
105
106
101
96
95
89
91
90
89
92
87
82
83
88
80
70
82
89
75
71
75
80
77
73
70
69
70
78
76
68
78
79
78
71
80
65
70
71
76
80
83
83
86
80
78
63
60
61
65
80
92
87
97
126
159
168
183
171
157
139
120
86
60
54
42
52
59
64
64
62
77
74
61
61
57
59
65
71
75
80
88
78
82
83
76
84
88
79
68
70
78
77
75
75
77
69
70
84
80
85
90
82
90
84
76
79
81
84
78
87
85
87
87
91
95
83
83
83
81
91
91
91
91
92
80
83
84
98
88
95
106
108
96
100
94
98
93
98
102
113
113
105
102
97
103
108
101
98
100
118
114
113
115
112
110
117
113
118
116
124
136
122
119
117
118
113
114
116
121
130
132
126
122
128
122
127
118
113
117
120
119
119
117
121
111
108
106
115
106
102
96
101
97
97
91
86
88
85
89
92
82
82
84
72
79
78
76
80
87
84
80
90
84
73
81
75
75
74
70
83
78
80
76
77
70
74
71
71
77
79
77
76
70
64
66
75
77
69
83
82
75
80
84
71
66
73
75
73
80
76
70
65
66
62
61
73
75
72
75
81
76
73
75
72
67
71
71
67
81
81
72
59
70
70
65
75
66
62
72
78
77
72
70
58
65
71
70
72
72
70
71
82
71
72
71
67
59
59
72
78
68
59
66
59
66
65
68
74
74
70
70
61
68
56
56
66
58
65
71
64
65
57
70
68
69
70
75
70
73
72
72
81
72
65
71
72
64
76
87
85
96
89
87
79
78
91
81
77
79
79
86
80
82
68
63
68
64
76
74
69
69
65
70
61
59
63
56
57
62
64
64
60
58
49
59
68
63
54
69
66
60
62
62
61
58
59
53
55
57
62
74
83
96
118
136
158
167
176
170
141
130
98
55
34
37
42
65
57
46
40
49
53
54
54
57
57
52
66
63
59
56
68
62
61
55
60
59
70
71
71
69
67
56
52
63
67
70
73
72
68
73
73
57
69
85
70
48
73
75
75
65
70
61
66
62
68
74
82
79
71
68
73
73
70
75
74
77
88
77
79
79
80
81
77
87
79
79
86
85
85
87
91
83
93
100
87
87
103
101
103
91
88
90
101
101
99
103
112
105
104
113
114
105
105
110
104
102
111
103
110
114
113
109
103
109
106
111
109
102
112
112
113
104
100
110
95
85
96
99
94
94
77
79
84
74
74
78
89
86
80
78
76
60
54
64
58
68
74
65
61
54
57
57
57
60
60
72
72
60
49
62
49
47
64
66
63
58
69
59
64
59
55
60
57
59
52
60
60
58
50
51
54
56
56
57
51
61
60
63
58
68
62
53
62
47
50
56
55
55
53
52
48
55
60
54
57
58
55
56
61
60
54
51
51
54
59
71
52
50
59
68
61
53
51
51
52
58
62
53
55
53
52
48
51
50
55
57
62
58
54
64
48
45
51
41
46
57
58
55
53
50
47
48
53
56
58
59
48
55
56
49
48
50
50
46
52
62
57
55
53
54
48
48
55
40
39
56
56
52
53
57
43
42
50
61
57
54
54
52
48
49
45
45
40
45
49
59
56
48
51
44
50
52
48
49
60
61
53
49
58
53
47
49
52
43
56
56
59
58
58
60
63
62
57
62
69
72
69
75
61
52
54
59
65
73
70
74
63
61
61
54
49
43
44
49
49
45
50
49
46
41
48
48
46
52
63
58
51
49
53
35
42
45
47
42
44
46
46
42
41
43
39
48
40
36
54
73
86
111
126
145
153
162
146
123
118
81
45
34
28
26
38
36
29
28
41
44
41
57
54
38
47
42
46
45
52
52
50
43
55
47
46
55
40
35
52
53
50
64
65
51
40
49
51
50
55
61
57
65
64
50
42
48
53
49
56
50
61
57
61
55
61
66
60
59
64
65
69
57
53
56
56
60
65
81
67
59
70
62
64
64
61
70
76
77
77
72
73
83
75
72
77
74
72
83
83
84
91
90
91
82
76
83
83
96
100
92
99
98
90
94
103
99
81
90
95
92
94
95
84
93
98
101
94
97
101
100
85
82
91
98
81
66
69
78
85
79
89
79
67
72
69
63
61
63
59
60
52
56
47
47
49
45
47
56
51
44
55
56
46
51
45
45
46
59
58
55
54
49
35
37
54
37
38
59
53
52
54
43
45
49
43
33
41
48
47
48
47
46
48
37
40
42
49
54
54
45
40
45
47
46
45
38
48
52
53
49
40
45
46
37
42
42
52
55
45
38
49
42
44
42
37
46
53
58
51
41
40
39
34
36
36
39
48
54
48
51
43
34
37
34
42
40
49
51
47
42
40
43
44
34
44
46
36
41
47
39
43
34
44
36
37
40
51
49
44
39
42
33
31
39
41
44
32
44
46
45
46
33
31
42
42
44
38
39
38
31
30
28
38
41
37
35
48
40
44
43
43
37
42
42
33
42
41
42
43
39
43
37
40
41
39
43
53
53
44
40
41
45
49
28
23
34
46
32
38
45
42
33
32
27
25
38
43
50
50
47
40
33
32
38
41
48
46
44
42
42
35
39
34
29
37
52
47
41
40
42
52
49
44
42
42
42
48
42
44
53
42
44
53
44
50
62
65
63
71
62
58
64
55
62
57
51
54
46
48
44
39
35
42
39
35
42
50
50
44
44
33
34
34
34
35
44
47
40
30
37
35
37
39
36
31
44
39
36
36
29
27
28
26
32
38
64
80
92
119
142
148
157
142
119
105
71
33
35
28
20
16
18
20
24
22
29
30
35
31
38
32
35
47
38
28
38
38
33
35
39
38
36
39
39
37
41
48
45
42
43
36
37
39
45
50
53
50
43
41
42
40
45
44
40
51
54
57
52
56
52
56
46
46
45
43
59
62
57
60
38
46
54
54
54
56
66
63
60
61
59
57
52
58
54
63
72
69
64
66
59
72
76
70
68
78
77
74
82
78
76
74
73
77
79
82
82
81
87
93
80
76
78
81
77
99
104
100
95
82
74
81
86
84
75
83
88
86
85
84
77
86
93
86
74
73
77
73
66
57
58
60
56
50
59
63
61
51
55
59
52
48
48
43
37
43
49
39
36
40
34
42
48
48
46
42
48
46
49
46
36
38
33
43
41
52
48
43
44
36
38
43
43
34
30
43
40
43
43
43
42
47
43
39
45
45
42
42
44
37
31
31
31
42
61
62
53
40
39
38
34
36
35
32
40
43
42
41
47
54
44
38
39
46
37
45
41
37
50
44
37
35
32
38
44
52
42
28
42
37
42
48
34
31
44
46
41
42
40
37
31
44
34
37
44
47
56
54
42
31
26
32
36
32
39
39
31
41
44
39
37
42
43
42
37
33
32
44
43
39
34
37
38
37
42
42
43
45
43
38
34
37
39
33
32
39
42
43
39
37
42
40
32
37
51
52
47
44
42
35
32
35
38
39
48
44
41
43
48
36
40
39
36
41
43
46
52
39
37
40
39
42
31
27
39
41
42
40
39
35
29
33
43
40
40
39
43
44
38
34
38
34
37
46
53
51
40
35
38
32
39
40
35
41
49
55
56
47
49
53
63
59
52
56
56
51
55
62
60
56
41
45
49
52
54
49
49
51
36
24
41
35
30
40
42
44
43
43
33
37
37
39
38
42
42
34
30
36
35
33
35
25
31
37
44
37
35
35
32
33
39
48
52
57
89
116
133
146
137
127
113
86
51
25
14
5
3
-3
7
12
17
13
14
32
29
30
33
32
26
29
30
30
32
41
41
48
51
39
39
38
39
28
35
47
39
41
43
40
34
47
49
45
41
41
42
49
47
41
36
46
40
35
43
62
54
49
52
53
49
45
43
44
54
56
55
51
57
53
39
43
40
43
55
66
63
56
61
60
63
64
61
53
69
69
55
52
64
66
59
65
69
64
65
71
71
79
82
74
60
62
73
68
74
82
72
69
79
74
73
78
78
75
79
90
80
78
74
74
71
69
69
67
75
83
76
71
73
67
62
58
62
51
58
62
60
53
58
58
49
50
53
51
44
53
45
43
51
40
41
38
35
28
36
40
41
39
42
40
40
39
29
30
47
44
45
48
36
17
32
25
26
31
38
25
34
39
39
39
36
42
30
32
36
41
31
35
33
24
30
36
34
39
47
39
40
32
32
32
31
41
36
39
45
50
40
34
29
34
42
39
32
39
41
34
37
40
24
35
36
25
26
38
42
37
31
27
27
31
31
33
33
34
31
28
42
49
38
30
39
36
28
38
40
23
22
28
37
34
29
36
34
35
42
38
35
35
25
21
30
39
33
29
27
30
27
24
27
28
27
31
41
45
41
39
26
25
22
26
32
38
38
23
32
25
20
25
27
24
28
35
37
32
36
36
22
28
32
29
35
37
37
35
28
28
26
27
30
28
23
34
36
36
30
27
28
31
35
29
31
23
23
33
29
32
35
23
30
29
22
27
31
34
33
36
26
26
30
20
26
32
29
36
28
24
40
37
41
35
43
49
55
52
54
44
39
34
43
43
45
47
41
41
33
38
38
41
42
35
33
32
33
27
25
31
29
25
18
26
34
31
23
30
39
30
24
31
18
10
19
18
27
29
33
23
24
20
23
16
23
30
31
47
49
49
74
100
112
123
131
110
96
73
39
7
2
8
10
15
21
24
12
12
13
9
3
17
32
24
30
26
21
28
27
26
32
31
34
42
36
47
41
12
24
25
28
20
24
24
33
35
33
40
52
28
25
25
36
29
33
35
40
37
35
23
29
42
40
40
32
48
42
31
40
40
33
35
41
37
48
45
42
47
56
45
46
51
49
49
56
52
44
48
56
54
60
59
51
51
57
62
59
59
60
63
56
58
66
62
67
73
70
73
64
67
70
68
57
66
73
71
70
71
70
71
71
65
72
74
77
84
81
84
75
66
69
52
53
59
68
71
57
52
47
47
55
49
44
48
49
48
48
43
36
40
39
36
28
38
37
41
39
33
24
29
33
30
21
37
33
29
24
25
28
22
26
27
22
29
38
40
38
33
26
28
34
31
19
30
27
27
31
27
29
35
27
26
32
37
33
31
31
29
24
27
25
28
31
41
41
27
24
27
29
28
26
32
28
27
29
32
41
42
30
33
35
31
37
34
28
28
33
32
21
26
30
23
26
30
25
29
33
26
38
30
33
31
28
40
29
29
32
29
33
31
21
26
24
30
30
22
24
31
27
32
28
25
34
39
35
29
32
37
33
27
31
27
28
32
22
34
40
25
28
31
32
29
34
38
32
33
37
26
28
29
37
28
35
23
26
33
35
25
23
26
31
23
33
33
27
31
36
24
27
28
20
31
36
37
39
34
32
30
36
32
28
31
37
32
33
32
29
32
43
34
27
27
32
34
36
30
28
30
32
32
40
43
38
38
28
24
28
28
27
21
19
30
35
33
39
34
31
32
47
40
33
33
41
52
35
39
39
42
48
45
42
38
59
59
60
62
68
54
51
40
44
49
48
47
52
53
49
43
34
31
31
37
30
27
44
39
38
30
26
32
26
29
38
38
35
36
34
23
26
42
42
36
40
37
38
32
28
32
30
31
34
39
51
64
74
93
116
135
146
154
130
106
90
53
14
16
9
17
29
27
17
31
33
34
31
24
26
35
38
40
43
38
31
39
37
31
29
39
37
33
33
41
44
51
43
47
43
42
47
43
44
38
37
44
42
50
40
41
34
37
44
54
48
50
50
51
46
48
43
50
50
52
43
51
54
54
52
50
47
47
51
56
54
64
59
60
52
59
63
59
56
67
79
75
58
59
57
64
61
64
65
75
70
77
83
76
62
70
76
75
84
82
85
81
86
83
82
93
87
73
79
89
88
83
81
81
84
81
84
79
79
83
88
86
87
91
92
80
68
66
72
75
77
75
70
58
63
66
63
53
61
57
57
54
57
46
45
54
46
41
43
53
46
46
45
35
34
41
47
46
38
37
37
38
47
39
38
43
37
34
40
41
39
48
53
36
41
36
40
42
44
38
46
45
40
38
36
36
47
42
47
47
54
55
44
30
33
33
37
33
38
45
48
46
54
40
38
42
44
34
47
52
45
32
40
30
40
40
36
41
46
41
36
41
41
40
39
38
36
41
46
42
40
47
44
37
40
36
32
29
44
45
50
43
33
29
41
37
39
37
39
40
39
39
40
35
40
47
47
43
42
34
30
33
38
29
33
35
33
35
46
43
35
41
45
26
32
39
36
42
46
40
41
44
40
36
34
39
42
38
37
32
34
37
40
37
37
42
28
34
33
36
36
41
39
35
35
39
31
36
39
35
38
37
33
39
34
40
38
41
38
31
31
37
28
32
36
29
38
44
41
44
50
39
33
33
45
45
36
48
55
44
35
37
36
35
40
43
42
47
53
54
48
55
57
51
43
52
57
63
62
59
56
53
47
49
60
54
49
49
49
38
39
38
28
37
42
36
36
47
39
43
37
30
44
49
45
42
31
37
39
32
35
35
32
33
35
35
37
47
41
37
33
43
47
62
79
94
129
154
159
151
131
107
76
30
10
7
12
23
26
31
18
23
28
26
38
35
41
37
34
46
48
43
27
26
36
40
35
31
41
44
39
39
39
41
40
34
47
45
42
49
52
37
37
34
39
41
44
46
49
49
50
35
41
50
42
41
50
53
46
52
52
52
53
46
61
51
46
54
52
45
53
50
51
53
54
56
68
61
61
62
71
53
60
72
59
61
67
65
69
69
71
66
69
70
73
71
80
79
74
72
80
80
85
79
77
81
80
86
78
76
80
75
73
90
84
73
83
85
87
89
85
68
76
77
73
69
82
82
77
68
69
59
57
55
54
62
67
61
59
52
50
52
49
44
35
44
41
44
50
40
37
40
36
48
41
32
35
28
39
34
28
33
38
37
32
35
34
37
43
42
30
24
26
26
36
49
35
27
26
44
36
28
24
22
23
41
34
26
34
44
33
37
38
32
31
27
30
38
38
35
27
28
34
27
29
34
27
32
27
30
31
43
30
25
35
44
36
33
43
33
18
20
22
28
29
38
34
31
28
29
19
23
27
23
20
31
37
30
27
34
18
20
23
23
23
30
32
30
33
32
19
27
29
25
28
30
17
26
29
22
21
22
19
18
31
29
32
29
27
26
20
27
24
26
26
32
26
26
24
18
21
13
19
24
26
25
24
25
30
28
20
11
15
17
24
23
22
23
23
16
20
16
14
23
32
43
28
16
24
17
19
18
20
19
23
35
33
33
30
19
15
5
6
13
25
44
41
35
30
22
14
29
26
24
29
40
39
31
31
39
37
27
37
28
29
44
51
42
43
46
43
41
45
27
30
48
34
30
27
26
26
17
25
32
32
24
19
19
12
18
11
12
13
16
23
30
28
18
13
17
19
12
14
17
30
28
19
17
25
17
12
12
24
30
40
51
80
109
133
151
140
122
107
72
38
16
2
-12
-14
-10
-7
1
3
-2
16
14
9
12
7
9
14
16
15
22
23
23
17
23
16
13
16
11
18
19
23
26
18
26
22
24
26
28
12
17
27
29
39
32
24
18
23
23
23
25
24
34
38
29
25
16
22
25
17
45
42
28
31
35
30
25
27
30
34
39
35
31
45
47
40
39
44
45
36
39
47
46
35
41
42
43
52
49
38
51
55
60
54
54
55
51
49
52
57
60
69
66
55
60
49
56
55
61
58
67
76
68
62
66
65
67
61
54
56
65
65
64
59
56
63
58
59
50
44
49
50
40
40
43
33
33
40
33
31
30
27
31
27
33
19
15
17
18
17
19
19
18
22
29
20
11
6
10
18
25
18
18
19
25
23
12
13
15
9
21
25
16
11
7
8
20
17
15
5
18
28
23
14
12
6
6
9
6
17
25
23
21
11
14
16
18
13
9
16
19
11
16
12
11
5
11
16
12
10
19
20
16
16
9
7
12
8
10
22
18
14
18
14
8
3
20
8
2
9
17
15
13
13
4
5
18
7
10
7
9
5
5
13
20
8
10
7
3
10
19
22
21
8
-9
3
4
4
-1
20
21
10
-3
13
-2
3
5
6
6
17
17
4
4
4
-2
5
3
5
16
8
9
11
4
6
4
11
15
9
22
12
10
9
1
0
3
3
5
0
7
17
15
16
18
12
8
5
22
16
7
21
26
22
21
24
17
21
15
26
22
26
30
26
19
23
15
25
27
19
15
33
16
15
13
14
3
1
13
-1
3
9
6
10
9
-1
1
4
3
4
13
14
4
9
5
-5
-9
2
3
4
17
25
19
10
5
5
7
18
26
29
52
77
81
98
112
93
78
56
12
-15
-21
-15
-25
-31
-25
-17
-27
-19
-23
-11
1
4
2
12
8
-4
0
0
1
4
8
9
12
10
0
-11
6
8
5
4
13
20
13
13
8
5
9
16
14
24
30
35
6
7
16
4
13
11
19
24
19
15
24
26
29
11
5
17
11
21
23
30
19
11
17
23
24
29
26
16
28
29
21
17
35
26
30
28
28
34
37
28
39
42
38
34
38
40
38
48
35
36
39
37
37
34
53
49
39
39
66
65
39
44
52
39
45
46
42
47
59
49
46
54
42
34
43
43
42
48
53
43
33
36
38
40
35
29
24
26
26
27
22
23
14
16
7
8
12
16
21
10
15
12
8
-1
2
11
7
0
2
-5
0
4
1
1
2
0
0
10
16
18
13
9
-2
-11
-2
3
-3
4
3
3
8
6
5
8
8
-1
-3
2
3
-9
1
-1
4
4
-2
1
2
11
9
1
10
8
1
2
-4
7
-4
3
10
2
7
5
-3
3
1
1
11
23
17
6
-4
3
-11
-10
-7
-11
-5
5
5
6
3
1
-2
0
-3
-10
-9
0
7
1
5
2
-9
-3
-5
-3
-4
11
1
-2
4
0
-15
-9
-9
-16
-1
9
8
5
0
2
-4
-5
-10
-2
1
-5
-1
1
1
1
13
16
-1
-13
-11
-4
-5
4
3
-3
-8
-4
-7
-8
-3
-3
6
9
-1
-10
-12
-6
6
3
-3
4
3
-3
5
-6
-1
4
4
9
13
16
23
10
20
16
8
12
14
10
13
22
13
3
8
6
10
3
-1
1
0
5
14
4
-6
-8
-5
-13
-12
-2
-2
1
-4
-11
1
11
11
-2
-15
-17
-12
-9
-7
-9
-12
-6
-3
-3
-6
-8
6
1
-4
-8
-5
-1
11
33
46
64
80
97
102
85
63
36
8
-20
-26
-31
-29
-27
-26
-23
-17
-13
-6
-8
-8
-16
-11
3
-6
-14
-12
-5
-5
-12
-10
-8
-6
2
-1
3
2
0
7
7
-1
4
5
7
10
9
5
-4
1
1
-5
-2
12
14
5
11
9
-2
10
14
5
16
14
12
13
10
0
9
17
21
20
16
22
19
10
29
15
8
13
17
23
29
25
23
21
24
21
29
22
26
30
33
35
34
26
29
30
27
25
31
33
43
40
43
41
47
41
42
43
45
38
37
44
51
47
45
39
41
43
43
50
52
47
46
44
45
51
50
39
36
36
43
42
40
35
41
25
7
17
16
16
24
26
22
20
13
2
8
16
13
4
6
4
9
8
4
-7
5
2
-2
2
10
2
-2
5
3
-4
-4
1
-11
0
-6
-5
-5
-2
3
-7
-6
1
-4
-4
5
5
-5
-8
-16
-9
3
6
2
-5
2
-11
-11
5
-10
-14
-4
-2
-4
8
8
1
0
4
0
-11
-8
-7
-6
-2
4
-7
-5
-5
-5
-2
-3
8
-5
-8
2
-5
-5
-1
-2
-7
1
-4
-8
1
0
-2
-4
-3
-12
-15
-13
-7
-13
2
2
-1
-9
-5
-1
3
-3
-8
-9
-8
2
1
-6
-6
-24
-3
0
-9
-12
-12
3
0
-5
-1
-6
-1
-1
-5
-11
-5
-3
-4
-8
1
-1
-17
-6
-6
-7
7
19
-3
-7
-4
-10
-6
-4
-1
-8
-7
-17
-8
-7
-4
-4
-6
-10
-6
-3
10
8
7
5
6
-1
3
7
5
7
15
10
17
15
18
6
16
26
9
10
21
12
10
13
14
2
-6
-2
-3
-4
-2
-1
2
-13
-7
-5
-1
0
-13
-13
-8
-4
-3
-2
-7
-10
3
-9
-15
-11
1
-2
-3
-9
-12
-6
-4
-13
-11
-6
-4
5
14
43
58
75
93
105
97
79
71
33
-7
-21
-36
-39
-32
-25
-29
-23
-14
-20
-16
-9
-16
-16
-10
-12
-14
-2
4
-5
-5
0
4
-9
-16
-17
-3
6
4
-12
-10
-5
-9
-16
-10
-10
-7
0
-2
-6
-9
5
2
-5
-4
4
6
2
5
4
-2
-7
-5
3
-5
2
1
5
14
13
12
10
4
4
3
11
6
16
14
14
8
11
13
24
14
5
11
20
13
19
23
22
16
16
16
19
22
41
35
30
26
26
25
31
31
29
34
40
41
41
33
28
25
39
40
31
35
46
43
43
44
43
38
41
47
32
36
46
48
45
35
37
26
21
27
20
21
23
26
28
28
24
7
6
10
10
16
2
-2
-2
11
1
-3
5
-5
1
1
7
10
1
-3
-12
-12
-7
-2
-12
-3
2
-5
-7
-13
-5
-8
-13
-11
-6
2
2
-4
-3
4
-13
-11
-7
-19
-11
-4
2
-8
-7
-4
-4
-3
-2
-11
-17
-7
-4
-4
-4
-1
-14
-7
-9
-12
-17
3
6
0
1
-10
-12
-7
-10
-21
-5
-8
-4
-6
-7
-2
-5
-14
-4
-8
-16
-6
-8
-8
-9
-8
-7
-12
-7
-9
-7
-8
-10
-7
-8
-6
-13
-9
-2
3
-4
-9
-17
-13
-7
-9
-21
-19
-12
-18
-5
-1
-7
-2
-6
-10
-15
-13
-10
-17
-15
-8
-9
-11
-17
-23
-23
-21
-10
-12
-10
4
0
-7
-4
-12
-22
-18
-11
-10
-10
4
-2
-6
-4
-15
-15
-8
-6
-15
-11
-4
6
5
8
-9
-21
-6
-5
-9
-7
5
8
1
2
1
1
-7
5
15
12
16
14
19
11
3
-7
-2
-5
-4
0
-3
-3
-6
1
-9
-21
-18
-17
-10
3
-9
-8
-4
-10
-14
-16
-15
-20
-16
-15
-5
3
-16
-17
-20
-23
-18
-17
-13
-10
1
0
-10
-17
-25
-18
-1
13
22
60
79
102
103
103
78
62
37
-8
-21
-25
-32
-37
-32
-32
-36
-27
-27
-21
-21
0
-7
-21
-20
-19
-17
-4
-9
-12
-17
-12
-14
-15
-11
-7
-11
-12
-8
-9
-5
3
-3
0
-8
-15
-12
-11
-7
-7
0
3
7
2
2
-6
-4
-2
-7
-6
-7
4
10
6
13
7
-10
-2
7
2
8
9
13
7
12
4
8
18
0
1
8
16
19
20
22
17
24
16
11
17
26
24
12
10
31
27
33
30
22
25
30
35
36
45
34
25
27
37
34
35
37
35
36
35
36
38
33
40
38
47
49
45
48
45
47
39
32
25
31
29
44
43
35
26
25
25
25
23
13
13
23
15
18
20
12
5
13
9
-2
1
6
3
-1
-6
-4
-7
-10
-5
-5
-3
8
2
-1
-14
-9
-9
-9
-6
-12
-7
5
-1
0
-5
-8
-21
-11
-5
-15
-21
-7
-3
1
2
-4
-3
-13
-18
-15
-5
6
-8
-9
-7
-8
-13
-3
-17
-10
-4
-2
-8
-2
-5
-12
-11
-11
-8
-9
-4
7
-2
-22
-5
-3
-11
-16
-22
-16
-10
-3
-1
1
-3
-10
-9
-5
1
-2
-3
9
1
11
17
9
8
22
26
29
41
48
49
54
63
73
85
99
111
120
117
124
130
136
148
150
143
157
158
165
173
173
166
168
163
139
118
106
92
59
31
9
-8
-18
-27
-49
-31
-37
-42
-32
-32
-36
-41
-32
-32
-37
-47
-47
-44
-44
-40
-29
-31
-27
-21
-21
-10
-10
-8
-15
-7
-8
-17
-7
-7
-17
-10
-14
-19
-24
-11
-14
-18
-23
-23
-14
-14
-18
-23
-28
-19
-21
-27
-23
-16
-28
-30
-23
-39
-28
-20
-8
-21
-20
-21
-27
-26
-21
-24
-33
-18
-22
-25
-31
-44
-41
-31
-36
-37
-30
-20
-16
-31
-28
-35
-34
-28
-25
-25
-35
-26
-19
-19
-24
-32
-18
-22
-18
-27
-28
-23
-19
-17
-18
-22
-33
-34
-17
-18
-5
-5
0
3
1
-8
0
3
-2
-1
1
3
0
3
6
5
5
9
13
4
10
10
-1
-1
7
-2
-5
-4
3
-4
-3
1
0
-5
4
-3
-3
-17
-14
-12
-8
-4
-8
-14
-5
-10
-22
-19
-2
-9
-4
-12
-10
-12
-9
-17
-3
-10
-14
-12
-4
-10
-14
-8
1
0
-8
-19
-31
-21
-13
-14
-15
-9
-9
-17
-16
-13
-10
-12
1
7
8
-17
-11
-23
-27
-26
-16
-14
-14
-13
-18
-4
-8
-22
-16
-17
-17
-4
-10
-14
-24
-11
-14
-20
-17
-20
-12
-15
2
-5
-4
-15
-11
-13
-16
-17
-3
-4
-8
-8
-13
-11
-17
-21
-13
-13
-20
-12
-5
-5
-11
-4
-10
-22
-20
-11
-10
-9
-10
-15
-16
-13
-20
-20
-13
-9
-21
-17
-7
-14
-14
-15
-17
-17
-11
-14
-12
-6
-11
-10
-3
2
-16
-19
-23
-21
-16
-9
-9
-13
-19
-8
-12
-10
-9
-19
-18
-10
-5
-3
-7
-6
-11
-16
-16
-14
-17
-8
-10
-23
-18
-7
-14
-21
-17
-11
-8
2
-11
-9
-16
-12
-16
-14
-13
-17
-9
-7
-2
-9
-12
-11
-26
-27
-13
-11
-18
-9
-7
-7
-6
1
-11
-11
-20
-17
-16
-12
-4
-4
-19
-11
-15
-10
-13
-19
-22
-4
-11
-14
-8
-5
-10
-17
-20
-19
-8
0
-11
-10
-6
-9
-22
-22
-6
-8
-7
-7
-4
-3
-12
-15
-23
-22
-14
-21
-12
-3
-5
1
-7
-3
-12
-15
-15
-18
-7
-7
-8
2
-1
-11
-14
-9
-12
-15
-8
1
4
6
9
2
0
1
2
3
9
5
8
4
13
9
5
2
4
3
8
6
7
-3
-1
-6
-16
-22
-17
-10
0
0
1
-8
-8
-12
-14
-11
-5
-1
1
-2
-9
-12
-15
-27
-11
1
-7
-25
-13
-4
-1
-11
-11
-16
-7
7
23
40
63
86
97
104
86
65
48
10
-25
-36
-23
-25
-19
-25
-22
-24
-27
-19
-20
-19
-9
-2
3
-9
-6
-7
-12
-5
-20
-10
-1
-4
-5
-1
-7
-13
-7
-2
-5
-5
-2
-1
2
6
4
-12
-2
1
-7
-4
3
8
4
-2
1
-6
-3
-1
-2
2
16
16
14
8
10
11
6
1
2
3
9
14
19
6
8
4
9
17
16
18
19
13
14
21
19
18
23
13
10
20
24
29
28
29
21
19
26
28
29
28
30
39
43
33
30
31
40
53
47
52
49
45
47
49
40
37
33
48
46
55
50
48
50
56
43
44
53
48
45
55
61
54
44
40
45
47
48
39
35
36
40
42
39
34
27
33
25
24
20
26
26
20
21
6
18
16
14
9
10
12
12
6
15
11
5
-1
3
3
-2
12
7
5
12
13
-3
3
5
-5
-5
11
7
11
17
10
-4
-4
5
3
1
11
15
6
3
6
0
-1
2
1
7
13
2
-2
5
6
-1
-7
1
4
2
4
-7
9
9
10
-3
-4
-1
-12
-6
10
3
1
4
2
-1
0
3
-3
0
5
2
7
8
0
-6
-1
-2
-5
4
14
3
-5
-2
-2
-8
-6
-7
-13
-1
1
1
2
9
13
-8
-11
0
8
10
-1
0
7
8
-7
-5
1
8
-7
0
4
-6
-4
-1
-6
-6
6
3
4
8
5
-1
0
-2
2
2
7
0
-9
1
6
5
3
4
2
-2
1
13
15
25
23
19
16
16
5
17
19
19
24
26
26
30
26
27
21
22
16
12
16
25
24
10
7
12
0
-1
-1
4
1
2
5
8
12
3
4
1
-1
-1
3
13
5
0
-2
4
4
1
3
-5
4
13
9
2
2
2
-1
1
11
23
55
82
101
113
126
114
101
77
40
-4
-15
-6
-24
-29
-16
-14
-19
-11
-14
-5
-3
8
5
-1
0
2
4
0
3
-4
18
18
14
6
17
16
10
8
0
5
11
14
13
5
5
-3
13
2
2
4
17
17
21
22
19
10
7
25
23
12
15
16
17
25
18
15
29
25
7
19
30
22
23
30
36
25
19
15
25
28
36
37
49
35
33
20
20
30
21
22
32
42
41
40
42
35
48
42
42
39
46
45
42
52
52
42
37
47
42
52
66
59
40
43
67
48
52
55
60
51
55
54
52
48
52
52
52
52
44
44
48
56
47
45
55
49
38
43
35
24
29
40
37
31
29
21
21
28
19
18
23
27
26
26
14
3
5
15
22
19
12
2
16
15
7
10
11
8
5
16
11
3
9
16
6
10
12
13
17
13
18
30
17
15
5
3
12
13
7
10
15
27
28
9
5
-2
6
9
3
14
19
20
13
16
16
13
10
0
10
15
21
15
14
6
10
7
9
6
4
15
14
19
10
19
7
8
10
10
15
19
10
10
11
11
9
7
3
7
18
16
8
20
18
18
14
11
10
8
5
15
14
18
16
8
-1
12
13
-1
3
16
14
11
8
10
9
17
2
4
16
21
25
25
9
12
-3
9
13
6
10
13
26
18
17
15
7
5
12
5
12
19
13
7
12
10
6
15
11
9
16
29
24
23
1
8
5
8
7
16
16
20
22
18
28
27
33
25
30
17
21
30
24
28
31
25
26
27
21
24
36
35
26
27
27
12
9
0
16
16
23
19
10
14
7
7
11
17
7
5
16
28
22
6
13
8
-6
1
10
10
17
14
11
8
14
13
11
0
13
8
13
18
26
39
45
53
74
102
119
112
102
83
44
10
-12
-20
-28
-35
-23
-21
-2
-9
-17
-4
-2
-3
10
6
-3
3
16
8
7
11
16
15
6
4
12
13
25
16
15
14
16
9
18
14
14
21
12
15
22
29
25
22
10
11
16
24
36
26
13
14
23
24
25
15
20
25
39
38
33
23
26
26
26
30
32
36
37
27
26
42
47
34
31
25
25
50
42
42
43
40
44
41
42
41
35
47
54
51
56
52
38
43
45
48
46
54
54
51
44
47
55
59
64
50
45
54
56
53
46
60
55
50
46
40
50
64
65
58
54
53
42
44
44
39
39
39
49
32
42
42
41
33
19
23
33
43
36
17
19
22
17
20
19
16
14
18
20
10
11
7
8
24
28
15
3
14
20
14
10
11
15
5
7
7
6
21
14
3
17
18
12
19
14
10
11
24
22
18
19
12
5
5
14
15
16
18
10
11
13
9
-2
2
19
18
12
16
19
21
8
14
5
2
6
8
7
9
20
15
17
16
17
12
13
4
6
10
10
3
9
6
4
9
9
2
9
13
24
10
7
10
9
1
4
-2
4
5
6
5
2
1
0
11
10
0
16
7
-3
10
7
-1
4
11
12
-7
0
4
-2
4
9
4
7
3
-3
0
-1
8
7
6
9
6
4
0
6
3
6
13
15
3
8
5
6
7
1
0
8
14
12
2
2
6
2
1
1
5
16
7
8
11
6
-1
3
11
1
-3
1
1
3
2
12
3
17
13
1
8
15
17
16
16
19
18
18
10
15
14
27
22
16
13
23
22
19
25
24
18
27
22
17
11
8
2
-1
6
5
1
5
8
7
8
1
-3
7
5
-5
-4
5
11
-7
5
-2
-1
-4
-6
2
-2
2
5
5
1
-7
-10
-8
-15
-11
3
10
14
35
70
81
90
110
99
79
69
41
1
-16
-24
-34
-31
-17
-21
-26
-11
-7
-5
-1
-1
-5
-4
-11
-6
-3
-21
-11
3
3
-3
-10
-8
-3
-5
-1
-2
8
3
-7
-2
-2
3
16
4
-10
0
10
5
-3
6
5
1
6
3
1
9
10
17
24
11
-1
7
8
14
12
23
22
18
26
24
20
23
14
14
10
21
22
20
23
27
28
34
31
22
18
31
28
25
29
31
27
35
40
38
33
44
41
43
48
38
34
43
51
42
50
56
43
43
50
47
50
49
51
44
45
60
57
54
54
39
44
41
54
41
41
47
48
43
51
48
36
46
35
36
34
49
46
31
38
22
18
25
22
20
18
22
19
20
21
13
7
11
11
5
17
19
15
5
4
4
0
-2
4
2
5
11
13
5
6
2
4
1
-10
1
10
10
8
4
1
4
4
-1
5
-1
6
6
7
5
6
6
7
1
4
2
6
6
6
5
10
9
7
-6
-12
-3
0
2
-9
-6
5
7
7
1
-10
-8
-9
-5
2
10
8
-3
2
1
4
-2
7
4
5
-1
5
-9
-6
-1
3
3
7
15
-2
-9
-4
-3
5
2
-18
1
21
10
-8
-12
-4
1
0
-7
-11
-4
4
2
-5
1
3
-11
-9
-5
-7
0
-1
3
-11
0
6
-6
-11
-2
-6
-1
8
5
-5
-7
-6
-2
-4
-11
1
0
-6
-3
0
-1
-9
0
-2
3
-2
-4
-3
-3
-3
-6
-10
-2
-1
-2
-12
-1
-5
-5
1
4
-3
-3
-16
-12
-7
5
9
-2
7
0
5
2
11
5
-7
-3
-3
14
14
13
13
15
1
3
10
21
16
15
13
12
12
9
24
20
8
9
11
16
7
3
-9
-11
-6
-4
-6
3
1
12
2
-8
-14
-17
-9
-10
-16
-2
-4
-6
-2
12
1
-6
0
-16
-16
-7
2
-3
-17
-16
-10
-10
-10
-5
9
23
36
63
75
98
112
113
93
61
35
5
-16
-30
-36
-30
-31
-24
-19
-16
-24
-4
-5
-2
-7
-5
1
-7
-16
-20
-18
-4
-4
-15
-2
4
-2
-4
-1
-6
-4
5
-1
-1
8
2
-3
7
8
-10
-8
11
9
3
3
3
4
1
3
1
7
20
20
15
8
-1
0
7
11
2
17
16
12
1
7
9
11
12
9
12
26
25
21
22
19
16
17
20
18
26
21
31
36
30
35
29
36
40
33
31
43
34
25
32
36
32
25
42
41
43
48
45
41
43
45
50
42
46
45
51
51
46
46
38
34
26
53
55
46
49
51
44
42
44
40
34
49
44
28
22
24
22
25
24
30
13
5
17
12
11
23
13
10
2
0
2
7
2
1
13
8
-4
1
7
4
-6
-4
-2
-2
10
11
7
4
10
-2
-12
-15
-5
-12
-2
3
2
5
11
1
-2
-3
-5
-4
0
-4
-4
2
10
9
-9
-6
-3
-10
-2
7
5
5
6
5
0
-8
5
-4
-2
8
4
6
-2
-18
-10
-11
-5
2
9
14
3
0
-4
-8
-12
-8
-6
-4
0
-1
1
4
2
-5
2
-2
-4
-7
3
7
-8
-8
8
4
2
-7
-2
-2
1
-2
-5
-7
-2
-5
-3
-8
0
-2
-1
2
1
8
-2
-21
-8
-2
-6
-5
1
0
7
9
8
-8
-5
-8
-9
-6
2
-1
-2
-1
-4
0
4
-1
-4
2
4
-1
2
13
-1
-9
-3
-4
-9
-5
3
10
-1
4
5
-2
-3
4
-12
0
12
6
8
7
9
-7
-4
-6
-11
-2
-1
2
-2
6
6
-3
-4
8
4
14
12
-4
-1
3
5
5
9
17
-4
-5
13
7
6
17
21
9
4
5
16
24
32
15
15
23
17
18
17
17
7
14
19
7
1
6
6
0
4
11
-10
-7
1
1
3
4
-3
-4
1
1
5
17
9
-3
-3
4
-7
-7
1
-3
-8
-7
0
7
8
2
-1
-2
-6
7
17
12
23
33
59
83
96
93
85
82
66
24
-4
-23
-39
-39
-42
-36
-26
-29
-23
-20
-15
-8
-14
-15
-8
-7
-7
-7
-3
-2
1
0
4
9
3
-8
-4
2
0
11
4
3
3
4
5
-3
-2
3
3
3
12
11
9
6
-4
7
10
11
19
20
19
4
13
3
2
6
19
12
15
16
16
13
10
9
8
9
21
20
22
27
24
22
30
20
8
14
31
23
26
31
24
21
29
37
41
39
27
26
30
34
31
40
43
34
36
41
47
33
44
41
35
40
48
47
37
39
45
41
45
56
42
41
53
45
39
32
40
52
53
51
33
36
41
38
29
29
32
34
30
36
40
22
25
15
16
12
14
11
20
19
8
9
16
8
6
4
8
3
8
4
4
-5
4
1
1
1
5
2
7
6
12
8
-2
-4
3
0
-6
-2
12
16
3
-1
-2
-5
-6
3
2
3
10
14
4
4
5
3
9
2
-2
-2
1
10
4
7
13
-4
-10
-6
-7
0
5
3
14
14
-2
-5
7
-3
-3
-3
3
8
14
4
-8
-14
-4
-2
2
4
1
-1
-1
-2
-3
-5
-10
-6
-3
9
17
12
-1
-4
-3
-5
-1
-1
-11
-6
1
9
12
5
-11
-7
6
1
-12
-5
9
8
2
-6
-4
0
-8
7
1
-3
-5
-5
7
1
-9
-8
-7
-1
-2
5
3
5
-6
-11
-12
0
5
-1
-7
0
1
-2
0
0
-1
-2
0
1
-6
1
-3
3
0
-8
0
9
2
-6
-11
-3
2
3
-3
-10
-15
0
-1
-2
-2
1
5
2
-1
-4
-5
0
-4
-7
-4
2
-9
-7
-11
-5
1
1
-2
-7
-3
7
7
-5
-13
2
1
-3
1
-4
-7
10
16
14
6
10
9
15
3
1
12
19
14
17
27
8
10
15
23
16
21
20
16
16
14
-4
-1
1
1
-5
-2
3
-2
0
-2
-4
2
-3
-4
-2
-2
0
1
2
0
1
6
-2
0
-7
8
17
-11
-10
-7
-7
-7
-10
-9
-8
-7
2
20
24
41
48
54
74
90
98
84
64
52
24
-10
-32
-29
-22
-20
-22
-11
-14
-19
-17
-12
-25
-16
-6
-2
-7
1
-1
3
-2
-4
-2
-6
0
-6
-8
-1
9
5
7
-2
-4
17
12
0
-5
5
-1
3
4
4
-10
6
7
2
9
18
18
10
10
8
4
3
4
6
7
10
15
21
17
13
6
15
11
9
22
19
22
26
28
31
26
18
19
18
17
21
39
30
31
30
25
27
29
24
27
34
40
41
41
36
31
41
34
40
41
46
60
48
43
44
38
43
54
41
43
53
57
50
48
45
35
38
45
42
47
55
53
51
45
46
42
49
50
37
38
42
41
29
26
24
29
26
13
11
31
32
20
21
26
14
9
3
5
9
16
8
6
16
16
5
10
11
7
0
11
9
8
4
12
3
4
8
6
17
15
12
3
9
5
0
4
1
-4
3
8
14
11
-6
-2
4
15
19
11
22
23
14
18
12
8
6
4
3
9
11
19
12
11
10
10
2
8
3
2
6
17
17
8
7
7
9
9
1
11
12
11
9
8
9
9
2
3
6
4
5
10
14
9
14
4
10
13
-3
-2
6
15
13
7
4
8
2
-3
5
6
7
15
14
-2
6
10
3
14
14
8
1
7
3
8
12
6
4
3
7
9
16
19
5
1
-1
1
-2
4
7
3
14
18
7
17
14
8
5
2
-3
4
10
7
12
7
9
9
1
8
12
10
16
7
-4
-1
10
13
10
13
4
4
13
10
13
16
15
5
11
14
1
3
12
4
15
20
20
14
15
10
14
7
6
16
16
10
15
11
6
-2
11
15
23
25
0
8
17
12
3
9
24
15
23
18
26
25
24
13
15
20
22
23
31
37
36
31
24
20
30
27
31
35
38
33
32
21
16
9
14
13
17
21
20
11
17
21
17
16
13
15
12
13
16
21
13
16
23
22
16
1
2
10
23
27
17
3
11
11
6
12
16
16
13
10
26
31
41
58
84
102
118
121
109
94
74
32
-1
-9
-12
-18
-9
-4
4
7
5
9
0
6
14
24
11
9
8
9
14
22
34
16
20
21
14
18
16
18
17
23
20
11
11
16
14
31
39
22
25
24
11
14
20
22
15
21
23
27
22
30
25
26
27
28
31
39
40
36
27
31
27
25
28
29
28
40
42
38
29
37
35
44
45
36
41
47
46
42
46
42
41
51
50
52
50
45
56
53
47
54
48
50
49
47
58
60
67
65
61
60
61
60
66
67
59
69
73
68
80
84
71
68
62
54
64
75
73
73
69
63
66
61
66
67
67
56
56
60
51
44
47
40
35
34
46
47
41
37
41
34
27
18
23
20
37
41
25
26
32
30
21
21
23
21
25
29
25
30
33
28
26
25
21
22
27
29
21
28
36
16
17
22
23
23
26
17
19
26
26
24
34
21
14
28
33
23
23
37
23
25
27
26
18
14
32
30
23
23
30
28
22
23
35
26
25
27
26
34
28
22
30
33
12
14
28
22
23
23
24
25
32
31
20
20
22
26
24
22
26
28
28
25
25
25
37
33
29
26
26
19
18
27
21
22
35
27
22
34
34
18
27
26
29
32
34
26
29
22
30
23
26
28
12
24
27
35
38
42
21
15
20
25
30
28
23
19
28
22
21
26
35
28
28
23
27
26
31
35
24
18
29
29
30
33
36
15
19
26
21
21
25
23
15
31
48
33
19
20
23
27
33
35
20
25
29
32
24
26
29
28
19
21
20
28
35
31
33
33
12
20
20
20
19
25
32
27
31
42
30
31
30
24
25
34
29
33
34
43
36
35
37
31
29
42
37
49
52
55
45
34
44
44
35
44
40
36
37
35
22
22
23
30
24
23
27
38
35
19
12
23
23
18
17
28
27
22
29
21
11
15
23
26
23
37
19
20
24
15
20
20
10
8
15
28
31
55
63
82
111
128
141
130
100
87
58
19
3
-6
-13
3
3
8
13
17
14
14
17
21
14
23
19
13
21
25
26
29
23
17
13
22
21
24
31
28
29
41
35
15
31
36
29
25
26
28
27
27
34
27
23
26
35
30
38
32
35
33
36
34
39
39
38
31
35
44
39
41
44
33
39
38
41
48
47
44
40
40
55
48
41
46
49
55
50
48
46
53
60
51
46
59
54
49
64
72
73
68
68
65
63
62
62
62
72
69
70
65
63
70
65
68
66
75
83
73
73
68
69
73
71
72
73
73
80
77
68
69
68
70
68
57
54
62
61
57
53
53
58
51
43
41
39
34
44
41
41
47
47
40
33
28
18
19
29
23
22
24
28
28
29
24
21
33
35
24
31
33
20
10
18
24
13
18
22
10
22
34
22
33
27
22
13
23
30
23
14
37
26
12
19
21
14
22
26
26
30
33
25
7
20
31
25
25
21
11
17
23
17
22
20
9
19
24
25
19
17
26
17
8
17
10
12
18
24
24
22
25
21
16
19
17
15
17
20
18
19
18
14
18
17
22
20
16
22
24
25
21
13
14
12
4
17
24
26
29
24
16
5
13
7
12
21
21
18
20
26
17
9
8
16
11
15
28
30
13
7
3
14
18
15
16
19
32
22
19
21
17
12
11
4
20
15
18
21
19
18
12
11
8
6
7
12
18
24
19
30
27
7
7
9
16
21
18
13
11
20
17
9
6
14
18
21
30
15
18
13
16
12
11
6
9
21
25
26
18
12
13
22
31
28
16
14
30
23
24
24
12
23
22
29
34
43
36
39
31
30
27
32
24
28
31
32
27
25
34
11
5
18
17
12
10
23
22
18
19
28
6
6
7
9
8
7
17
10
6
7
0
8
7
8
11
16
14
9
14
12
3
-4
8
11
6
17
34
50
80
98
119
129
125
107
88
69
27
-11
-13
-15
-19
3
-2
1
-8
1
-3
-6
5
11
4
-4
-2
1
11
10
12
12
6
7
5
5
1
1
7
12
17
9
29
15
3
5
6
0
13
18
20
16
13
6
13
21
18
16
16
20
20
20
21
15
14
10
15
13
31
30
17
19
22
14
12
18
31
17
25
39
32
25
26
32
24
25
30
30
33
36
32
27
36
30
34
41
43
42
46
42
39
34
42
45
42
46
46
42
40
43
43
57
65
49
46
48
54
52
59
56
61
53
56
47
44
49
53
53
54
51
58
42
56
39
39
46
38
28
36
32
26
24
30
27
23
22
15
13
25
24
15
16
15
4
10
10
9
10
14
9
13
11
1
-6
-11
-3
0
0
18
11
0
-3
7
-7
0
5
-3
0
16
7
2
-4
-3
-7
-5
1
-1
5
2
1
3
5
-5
0
-1
6
-2
6
1
-1
-2
-3
-1
-9
-3
-3
-9
-1
2
9
0
-1
1
9
13
-2
0
-4
-4
-3
-7
-1
-7
-3
0
-5
-4
0
-5
-2
3
1
-6
-7
-3
-6
-7
-1
1
-4
7
4
-6
-11
1
-4
-13
-1
1
-6
-8
1
2
8
0
-3
-10
-23
-5
1
-4
-6
-14
-7
-6
-1
-3
-3
-14
-6
-5
-4
-14
-3
6
6
-10
-3
-7
-2
-8
-10
-13
-6
-3
-12
-4
-4
-9
-8
4
5
-7
-11
-16
-12
-6
3
-1
-8
-7
-3
-10
-11
-6
-10
-6
2
-9
-6
-10
-16
-19
0
-7
-10
-6
-3
-3
-5
-7
-7
-13
-6
-8
-8
-6
-4
-6
-1
-4
-7
-8
-15
-9
-13
2
11
6
9
4
-2
-1
1
12
6
4
16
8
10
12
19
5
12
9
2
15
20
15
6
7
1
-8
-7
-6
-14
-3
6
4
-10
-16
-21
-19
-9
-8
-10
-4
-6
-5
-9
-11
-10
-3
-10
-21
-14
-9
-7
-13
-15
-8
-11
-8
-12
-20
-17
-15
-21
-23
-4
25
37
63
85
91
108
111
97
76
47
2
-27
-30
-38
-36
-32
-22
-22
-23
-25
-21
-22
-18
-15
-11
-3
-7
-6
-9
-17
-10
-10
-15
-10
-11
-10
-5
-10
-6
-11
-9
-5
-3
-8
-14
-14
2
5
0
-6
-2
2
1
-9
-10
-8
5
11
4
-4
-16
-5
-6
-3
3
7
10
2
5
9
1
-2
3
5
6
6
17
10
8
10
6
11
15
10
2
9
25
10
20
17
13
13
17
17
24
23
25
24
31
29
32
21
23
33
30
31
40
33
35
39
35
28
31
34
30
37
40
43
39
42
39
39
37
33
33
43
39
41
42
47
40
35
28
35
32
25
18
17
19
23
18
12
13
14
11
11
18
13
3
8
-1
10
8
5
-2
0
-6
-10
-5
-9
-10
-9
-8
-14
-12
-1
1
