15
10
15
26
45
58
66
61
50
32
16
10
18
30
48
63
67
60
52
34
21
19
28
40
59
70
74
68
57
38
22
16
24
33
49
63
62
50
41
20
6
4
15
25
45
56
59
50
38
17
4
0
8
20
42
51
50
42
33
12
1
-1
8
19
41
52
53
41
34
12
0
-1
9
20
44
51
54
41
30
8
-1
-2
10
18
38
43
44
28
19
-2
-3
10
33
54
88
114
129
133
147
155
175
192
199
204
209
195
172
137
96
43
5
-14
-11
10
36
45
45
40
29
12
9
12
22
37
57
60
55
43
29
12
5
9
22
37
55
61
56
47
30
14
8
15
23
43
58
64
59
46
33
18
15
20
32
49
64
72
65
51
35
20
15
21
32
53
67
74
64
55
35
25
22
29
41
62
76
78
72
62
43
29
30
39
49
71
84
91
85
75
56
46
43
56
67
88
100
107
99
91
72
62
60
70
83
105
119
121
109
102
81
70
70
81
90
112
122
121
113
102
79
67
64
72
79
99
107
104
88
80
57
45
42
52
64
82
89
86
72
58
39
27
26
34
46
65
74
73
60
47
29
17
22
32
43
61
66
64
55
41
24
12
17
27
42
60
68
66
55
42
21
15
20
33
48
63
71
67
56
39
22
15
22
36
50
66
72
67
55
42
23
19
24
35
53
69
75
69
59
43
24
19
27
36
55
70
75
68
56
39
27
23
28
39
57
70
74
69
58
38
23
21
27
42
61
72
75
64
58
36
22
19
27
37
59
69
71
61
53
32
21
19
29
38
57
68
69
61
55
35
22
21
30
39
62
69
71
61
57
38
28
27
35
46
66
80
81
69
55
36
25
26
38
48
73
81
84
73
63
42
32
32
43
58
78
89
83
79
62
35
26
26
39
50
72
82
75
62
51
25
17
25
35
45
68
73
68
58
46
28
14
18
32
47
64
69
70
57
43
24
18
20
29
49
66
71
67
61
44
24
18
22
32
51
66
70
65
53
36
18
11
15
25
42
53
59
52
47
40
39
42
63
92
129
165
194
214
226
214
196
178
174
164
162
150
128
86
50
12
-5
-7
7
22
45
62
71
64
56
39
26
24
32
40
60
71
73
64
55
37
24
23
34
42
66
79
78
70
61
37
28
28
36
48
71
81
82
72
63
39
31
33
43
52
76
84
85
76
67
42
32
35
46
56
81
92
91
80
70
49
40
42
53
64
87
98
96
87
74
54
48
50
63
80
99
109
106
96
88
67
60
64
77
91
113
123
122
111
100
81
72
78
93
107
126
131
130
118
103
85
75
80
91
107
123
127
122
107
89
68
66
68
76
91
105
107
100
87
67
49
40
45
56
71
84
87
80
67
51
34
27
33
44
61
72
77
70
60
39
25
22
30
38
58
69
76
67
57
37
23
18
25
37
57
69
74
66
55
36
23
18
27
38
59
69
71
62
52
32
22
20
31
42
62
73
72
67
56
34
22
21
32
45
67
75
78
68
58
37
26
24
35
46
65
76
76
66
55
31
21
24
35
45
69
78
78
66
56
32
23
25
36
46
70
78
75
63
51
30
20
23
34
46
67
75
70
60
46
28
19
22
32
47
68
75
68
55
42
24
17
20
31
46
65
72
71
58
44
26
20
26
37
53
70
77
69
58
44
28
24
28
37
56
72
76
70
61
45
29
25
31
44
62
77
83
77
66
48
36
28
37
48
64
75
76
66
57
38
22
15
24
33
51
64
66
60
52
32
16
14
21
31
51
62
64
55
46
25
14
12
22
31
52
64
65
56
46
24
12
9
20
30
50
63
64
52
43
23
11
9
19
27
47
57
55
45
35
11
0
1
18
38
71
94
105
108
108
108
120
147
182
198
214
209
195
164
136
93
58
32
18
12
28
44
46
38
31
13
8
13
25
39
56
62
61
51
39
19
9
13
24
37
60
69
63
51
37
18
11
16
28
44
60
68
63
51
37
20
12
18
31
46
64
68
62
53
34
18
13
23
34
49
65
70
65
57
40
25
21
26
36
55
70
76
69
60
41
29
25
36
44
64
80
87
79
69
52
42
39
48
61
79
93
100
91
84
65
54
53
61
74
96
110
114
106
96
77
63
63
73
82
104
114
117
107
96
74
62
58
65
75
93
103
102
91
76
53
41
37
43
54
73
81
78
66
53
31
18
15
23
33
55
65
64
52
38
17
6
9
19
29
51
58
58
46
33
13
3
4
18
29
48
57
54
42
30
9
1
3
15
25
45
53
50
38
27
8
-2
2
15
30
47
55
52
40
27
9
2
3
15
31
51
56
54
42
27
10
3
8
19
35
53
58
52
42
27
9
3
10
18
36
55
56
50
41
23
8
2
5
18
35
49
54
47
37
21
6
2
10
20
40
53
56
50
37
17
1
-3
9
18
38
50
54
47
36
19
6
3
13
23
41
53
55
48
37
18
7
5
14
24
43
57
57
49
40
21
10
10
21
32
54
64
67
57
46
25
12
11
18
30
47
56
53
41
29
9
-4
-7
3
13
36
49
47
37
27
5
-6
-5
6
16
39
47
44
29
19
0
-10
-7
3
16
35
42
41
30
18
-3
-8
-8
4
17
38
43
42
30
16
-5
-14
-9
2
14
31
35
29
18
2
-13
-15
-2
24
48
79
101
115
119
131
142
166
184
190
198
197
186
154
121
78
30
-6
-22
-21
5
23
31
29
24
13
-1
-6
2
12
27
41
47
40
30
13
-2
-4
2
12
30
44
49
40
32
13
-2
-4
5
16
35
50
54
45
37
16
2
-2
7
20
39
54
56
45
36
18
6
6
14
25
48
59
59
49
40
19
9
7
18
30
51
64
63
55
45
27
17
16
26
39
62
74
75
65
54
38
30
31
41
55
81
91
91
83
74
54
45
48
59
71
94
105
101
91
78
60
51
53
65
76
96
104
101
89
78
56
45
48
52
68
84
91
84
68
50
30
21
27
35
47
64
68
61
48
32
11
2
7
17
30
46
52
48
39
21
0
-4
1
11
26
43
47
40
31
15
0
-11
-3
7
24
41
47
39
29
13
-4
-9
-2
8
27
39
44
38
29
10
-3
-11
-3
8
28
41
47
42
31
11
-4
-8
-1
11
33
45
47
38
30
9
-6
-8
4
12
31
43
46
37
29
5
-4
-9
1
12
31
43
45
35
28
5
-6
-8
0
10
33
44
45
36
22
3
-10
-11
1
11
35
44
44
33
20
-2
-13
-10
1
11
33
41
40
30
21
0
-8
-5
7
16
38
46
43
33
22
0
-7
-4
6
15
38
49
45
37
27
7
0
3
15
28
47
52
50
42
27
9
0
1
13
26
40
44
39
24
10
-8
-21
-13
-1
15
32
38
29
19
3
-13
-20
-17
-5
12
29
35
26
16
-1
-16
-23
-14
-5
10
26
31
25
14
-1
-17
-22
-16
-5
13
26
30
23
12
-4
-19
-24
-19
-10
8
20
21
12
0
-20
-31
-28
-5
17
48
75
91
101
112
119
138
161
179
183
191
185
166
135
99
48
4
-27
-37
-29
-2
13
18
13
9
-8
-15
-13
-7
3
25
34
35
24
14
-10
-18
-13
-5
6
28
36
37
25
14
-7
-18
-16
-4
7
27
35
37
28
18
-4
-13
-14
-3
11
31
42
43
32
21
1
-9
-7
5
18
38
45
45
34
21
1
-6
-4
11
23
45
51
50
38
25
7
2
6
20
34
53
63
59
50
35
19
14
24
37
53
69
81
76
66
53
37
33
38
49
68
85
92
87
76
59
46
39
45
56
72
86
92
84
72
54
38
29
36
44
61
72
75
67
54
33
17
10
16
24
40
51
53
45
31
9
-7
-7
1
11
29
43
43
33
21
0
-12
-16
-7
2
22
35
39
29
17
-3
-15
-15
-6
3
24
35
37
25
15
-4
-15
-16
-8
4
26
35
35
27
16
-6
-16
-18
-6
4
25
34
34
25
14
-6
-17
-12
-1
8
30
37
39
28
16
-5
-16
-14
-3
8
30
38
35
23
13
-7
-15
-13
-1
9
29
37
35
24
13
-8
-18
-13
-3
11
28
37
32
22
8
-11
-18
-14
-3
11
31
34
30
20
5
-13
-19
-15
-3
12
29
33
30
18
3
-13
-19
-14
-4
12
29
34
27
12
0
-16
-21
-14
-2
16
33
36
30
20
1
-12
-17
-8
3
21
35
39
33
22
4
-7
-10
-1
10
32
44
46
37
25
8
-2
-6
5
16
31
42
45
34
22
1
-13
-19
-12
-2
17
28
33
22
12
-8
-21
-22
-12
-1
19
28
30
19
8
-14
-24
-26
-15
-7
14
23
25
15
8
-17
-27
-26
-14
-6
18
27
28
15
3
-18
-28
-26
-16
-3
19
24
23
9
-4
-26
-36
-35
-26
-11
15
37
46
47
46
41
51
75
111
152
190
200
195
171
142
100
74
55
38
19
13
4
-2
-11
-20
-37
-36
-25
-9
7
26
33
30
17
3
-19
-22
-18
-6
10
27
31
26
17
3
-14
-22
-16
-6
15
30
35
31
19
-1
-14
-19
-12
0
20
34
39
32
19
5
-10
-15
-8
3
24
36
42
34
24
4
-8
-9
-2
7
29
43
49
39
29
9
-3
-4
6
17
38
50
55
46
37
19
7
8
19
31
52
64
70
61
52
34
24
26
34
49
70
81
82
75
65
45
34
35
46
55
75
85
85
75
64
42
30
32
38
49
69
78
76
62
51
27
13
12
22
30
49
57
53
40
24
3
-6
-10
3
14
32
42
39
24
11
-7
-19
-15
-5
10
28
34
28
16
8
-14
-22
-18
-7
6
25
32
26
17
3
-15
-22
-17
-6
8
26
34
28
17
2
-15
-23
-19
-5
11
27
35
28
16
2
-13
-19
-13
-3
15
31
36
28
18
2
-15
-18
-10
-1
15
31
34
28
17
1
-13
-16
-9
-1
20
32
35
27
15
-3
-16
-19
-13
-1
18
30
32
23
14
-4
-19
-21
-13
-2
19
31
34
23
12
-8
-21
-23
-14
-2
17
27
30
20
12
-10
-21
-23
-13
-3
19
28
29
19
8
-12
-20
-21
-12
-2
22
33
35
25
16
-7
-18
-17
-6
8
29
36
36
25
14
-10
-19
-17
-5
10
31
41
40
29
18
0
-10
-8
2
14
37
43
38
25
11
-11
-22
-21
-8
2
22
29
23
11
2
-20
-30
-22
-13
2
19
26
20
7
-6
-25
-31
-25
-15
0
16
22
17
4
-9
-24
-32
-24
-13
1
16
20
16
3
-12
-27
-32
-25
-15
2
14
22
16
4
-14
-30
-36
-32
-21
-4
5
9
3
-3
-12
-13
-6
14
39
76
107
135
155
167
157
140
126
121
111
112
101
78
39
0
-40
-61
-61
-47
-34
-7
12
20
14
6
-13
-25
-30
-23
-11
11
20
24
14
3
-17
-28
-27
-17
-6
14
25
27
17
6
-13
-25
-26
-15
-2
18
28
29
16
8
-14
-23
-22
-9
2
24
35
31
21
9
-10
-19
-18
-6
7
28
36
34
22
12
-10
-16
-14
-3
11
31
40
38
29
18
-2
-8
-4
11
23
46
54
51
41
30
11
6
11
25
41
60
68
63
54
41
26
19
24
36
53
70
76
71
61
46
28
20
27
39
53
69
74
65
53
34
18
11
13
23
42
52
56
47
33
11
-6
-12
-6
4
21
31
33
24
13
-7
-21
-26
-18
-9
11
21
25
16
4
-13
-28
-33
-27
-17
4
18
20
10
1
-18
-30
-33
-25
-15
7
17
20
11
0
-19
-33
-33
-24
-14
7
18
21
11
1
-19
-30
-32
-22
-11
8
19
20
10
1
-20
-31
-30
-18
-7
14
24
24
12
1
-20
-28
-26
-17
-6
15
23
20
15
0
-18
-30
-29
-17
-4
16
22
21
10
-3
-21
-32
-30
-18
-5
16
22
18
7
-5
-24
-32
-30
-19
-5
13
20
17
6
-9
-28
-34
-27
-19
-6
12
21
17
4
-10
-29
-36
-33
-22
-6
10
17
12
-1
-17
-33
-34
-32
-21
-2
11
17
12
1
-16
-33
-38
-33
-21
-3
11
16
7
-2
-18
-32
-38
-31
-21
0
14
19
13
3
-14
-28
-33
-25
-15
7
19
22
13
1
-18
-31
-34
-25
-12
12
24
28
18
8
-9
-21
-24
-16
-7
17
28
29
19
10
-14
-29
-32
-25
-13
10
16
16
6
-4
-26
-35
-39
-28
-19
3
12
11
0
-10
-30
-41
-41
-27
-19
3
11
12
1
-9
-32
-44
-43
-30
-22
0
10
9
-1
-15
-35
-45
-43
-30
-17
3
8
7
-4
-17
-38
-48
-48
-36
-23
-6
0
-5
-15
-24
-34
-29
-11
9
37
73
96
114
129
145
143
129
129
127
124
121
105
73
32
-12
-54
-73
-64
-47
-28
-7
8
6
-2
-16
-31
-40
-35
-24
-7
7
12
6
-6
-21
-36
-39
-35
-23
-3
10
15
10
-2
-20
-35
-38
-31
-20
0
12
19
12
2
-17
-30
-33
-25
-14
7
18
23
14
4
-14
-28
-29
-22
-10
11
22
26
17
7
-12
-23
-26
-15
-5
16
29
32
23
14
-5
-18
-17
-8
5
28
40
40
34
26
5
-3
-2
9
21
43
55
59
49
40
22
12
12
25
37
60
68
69
60
49
26
18
18
28
40
61
68
65
54
38
17
6
6
14
24
42
51
44
31
16
-6
-17
-16
-7
5
22
27
24
8
-6
-25
-36
-32
-20
-5
11
16
10
-1
-15
-34
-42
-39
-26
-12
6
12
6
-6
-21
-38
-45
-38
-28
-11
5
11
5
-8
-24
-40
-44
-37
-24
-9
5
11
4
-6
-24
-40
-45
-37
-25
-5
7
11
3
-6
-24
-38
-42
-34
-24
-5
9
14
6
-6
-25
-39
-41
-30
-20
0
11
13
4
-7
-25
-38
-40
-34
-22
-1
13
16
6
-6
-26
-39
-43
-35
-24
-3
9
11
1
-8
-29
-42
-42
-32
-24
-3
7
9
-2
-12
-33
-44
-45
-33
-25
-2
8
9
0
-11
-33
-43
-44
-33
-22
0
9
7
-5
-16
-35
-46
-44
-31
-21
-1
7
6
-5
-17
-37
-47
-46
-33
-20
0
8
6
-7
-18
-38
-47
-43
-32
-16
1
8
5
-7
-21
-39
-48
-45
-33
-17
3
13
9
-4
-18
-35
-42
-37
-27
-10
8
16
10
-1
-18
-36
-43
-37
-25
-6
13
21
17
2
-11
-24
-32
-24
-15
6
20
24
16
5
-15
-31
-38
-33
-22
-6
6
11
3
-10
-26
-40
-44
-36
-25
-7
5
8
-1
-12
-30
-46
-49
-43
-28
-6
4
6
-3
-13
-31
-46
-50
-41
-29
-12
2
5
-5
-16
-35
-47
-49
-40
-29
-8
4
7
-3
-15
-37
-49
-51
-43
-35
-15
-6
-7
-17
-27
-41
-39
-27
-7
15
53
80
96
111
129
135
133
127
129
124
126
114
91
50
10
-40
-69
-75
-58
-42
-15
-3
3
-6
-15
-34
-42
-42
-30
-18
3
12
8
-2
-16
-33
-41
-37
-25
-13
6
14
12
0
-13
-31
-39
-36
-23
-8
10
17
13
3
-12
-30
-37
-31
-20
-3
13
21
16
5
-12
-27
-32
-24
-14
4
20
26
20
8
-6
-21
-27
-20
-9
12
25
32
23
15
-2
-17
-21
-12
2
22
37
41
38
27
9
-1
-3
4
16
38
52
57
51
43
23
12
10
22
34
54
69
73
62
53
33
21
18
24
36
56
69
71
62
49
27
15
8
15
24
45
54
52
42
29
4
-10
-13
-3
6
22
33
32
17
6
-16
-28
-31
-22
-10
13
19
21
8
-5
-24
-36
-37
-25
-12
5
15
16
3
-11
-32
-39
-38
-29
-16
6
14
12
2
-9
-30
-38
-36
-25
-10
8
15
12
2
-11
-31
-41
-37
-26
-11
6
16
13
2
-12
-32
-38
-34
-24
-6
10
16
13
2
-11
-30
-40
-34
-19
-5
11
20
13
2
-14
-30
-36
-30
-17
-1
13
20
14
3
-14
-30
-36
-32
-19
-4
11
18
9
2
-16
-30
-37
-30
-18
1
12
17
8
-1
-21
-33
-40
-32
-23
-2
9
14
8
-4
-21
-37
-39
-31
-18
1
11
11
7
-4
-24
-35
-40
-29
-21
1
14
12
4
-8
-23
-32
-38
-30
-19
2
9
12
7
-3
-24
-36
-38
-29
-14
9
18
18
8
-4
-25
-35
-32
-22
-13
11
19
22
11
-1
-19
-29
-26
-15
-3
23
30
23
16
7
-16
-22
-24
-12
-4
19
19
18
4
-10
-37
-38
-35
-32
-14
11
16
15
0
-13
-35
-46
-41
-27
-12
5
14
8
-5
-18
-40
-46
-39
-31
-15
8
14
8
-5
-20
-36
-46
-39
-30
-14
5
11
7
-5
-18
-35
-43
-38
-29
-12
2
3
1
-10
-23
-42
-50
-45
-30
-3
18
33
40
39
35
37
53
82
111
136
152
143
122
98
58
26
2
-16
-31
-24
-24
-16
-21
-26
-39
-51
-47
-36
-22
0
13
17
9
-1
-20
-36
-37
-28
-18
5
14
20
10
-1
-19
-31
-32
-21
-12
10
18
23
13
2
-17
-29
-29
-16
-6
16
23
26
14
0
-20
-29
-30
-16
-1
20
28
29
16
4
-14
-25
-23
-13
3
24
35
34
24
15
-5
-15
-16
-3
7
34
42
44
33
21
0
-9
-3
11
24
47
53
51
44
33
13
9
13
22
42
60
68
64
57
42
22
9
18
31
47
69
68
64
49
31
17
8
12
21
35
49
56
52
37
21
-5
-10
-7
6
18
34
32
26
18
-4
-20
-26
-20
-11
5
20
21
12
2
-15
-33
-35
-29
-21
-3
3
17
7
-3
-19
-37
-37
-33
-24
-2
9
12
5
-9
-23
-36
-37
-28
-22
-3
11
14
7
-3
-22
-42
-44
-33
-18
1
15
12
0
-6
-24
-34
-37
-28
-18
1
13
21
11
-2
-29
-37
-37
-20
-7
9
17
25
12
-3
-28
-46
-41
-20
-18
11
26
20
1
-11
-18
-32
-32
-23
-21
8
19
16
5
-3
-23
-36
-33
-25
-13
10
22
13
7
-4
-33
-45
-30
-20
-1
8
13
11
-8
-15
-30
-38
-37
-21
-2
2
15
7
6
-3
-37
-39
-44
-27
-11
8
19
10
3
-10
-27
-39
-25
-18
5
18
24
7
2
-8
-26
-26
-26
-6
-1
16
24
24
11
-7
-14
-23
-22
2
2
13
20
20
21
-8
-26
-34
-24
-10
3
17
16
9
3
-18
-35
-25
-29
-18
-1
11
19
16
3
-21
-32
-38
-27
-23
-9
19
11
4
-2
-20
-40
-32
-22
-21
2
17
13
6
-4
-19
-36
-48
-32
-10
1
26
20
5
0
-27
-42
-30
-16
-18
0
4
7
6
-7
-19
-17
-16
5
29
53
80
95
104
128
92
93
71
75
65
74
85
66
16
-9
-41
-56
-46
-36
-25
-14
14
16
-1
-3
-10
-32
-27
-20
-6
16
22
13
10
9
-15
-32
-36
-9
-2
30
34
25
16
-2
-24
-20
-9
-8
-2
13
27
25
12
0
-19
-23
-9
1
6
35
40
29
9
-5
-19
-24
-16
0
21
28
34
22
25
10
4
-9
1
7
20
34
45
33
28
9
-7
-4
4
8
29
46
54
41
32
16
-1
2
16
25
47
60
79
55
50
30
22
13
29
39
49
65
70
68
53
26
24
23
33
38
64
71
80
51
51
25
13
4
14
19
43
52
44
46
35
4
11
-8
-3
12
35
51
45
35
15
-5
-22
-18
-7
-1
18
32
30
20
9
-9
-29
-8
0
4
21
19
27
16
12
-7
-16
-16
-5
4
26
37
30
22
9
-13
-7
-13
-4
15
35
38
31
27
12
-3
-13
-13
-4
15
44
36
36
37
15
0
-17
-4
-7
13
32
47
41
25
4
-12
-3
-11
-1
24
48
49
42
31
8
-14
-11
-9
2
23
34
46
41
30
5
-7
-19
-7
4
9
34
34
31
14
-9
-18
-30
-12
3
22
28
42
29
17
8
-15
-18
-20
4
4
29
29
21
19
-3
-10
-7
10
13
10
16
45
39
25
-6
-21
-19
-6
5
24
34
41
30
22
-8
-14
-15
-19
-7
17
22
31
27
33
3
-10
-16
-2
2
17
21
36
33
16
-19
-29
-30
-6
-7
29
37
40
18
-5
-25
-7
-8
10
19
14
27
22
12
-1
-19
-38
-52
-45
-31
-7
-9
-19
2
19
6
5
-20
-14
13
21
10
-2
-8
10
0
-10
-34
-13
0
18
35
19
2
-24
-21
-9
-5
9
24
51
63
64
76
53
55
61
59
78
93
110
94
70
45
5
2
-17
-37
-31
-16
4
1
-5
-18
-7
-2
-14
-8
-22
-5
-2
12
4
11
-7
-33
-37
-30
-13
10
1
3
-5
-4
-28
-33
-17
-29
-20
2
19
22
23
8
-12
-36
-45
-41
-10
6
14
28
16
24
4
-37
-26
-36
-6
0
11
20
3
-16
-11
-14
4
4
-1
14
5
36
26
12
-18
-40
-54
-34
-10
48
52
33
15
4
-18
-29
2
14
19
42
38
27
23
26
6
-6
1
16
10
35
59
63
41
22
-12
1
-2
10
1
39
49
40
30
17
-14
-15
-12
-1
10
27
43
31
25
20
-3
-4
-10
-13
-2
14
20
14
1
-11
-38
-27
-24
-11
6
30
28
21
2
-14
-30
-34
-22
-12
-4
3
25
9
7
-8
-32
-29
-28
-11
-10
14
14
14
0
-13
-28
-31
-24
-12
8
20
24
20
7
-14
-27
-28
-23
-14
4
16
24
14
-5
-24
-39
-46
-29
-21
31
38
32
25
5
-18
-37
-28
-27
-12
5
17
18
4
-6
-29
-40
-39
-35
-27
2
8
6
2
-7
-26
-36
-37
-26
-16
1
5
5
-5
-8
-25
-37
-37
-32
-27
-5
6
12
-2
-14
-36
-45
-41
-28
-11
1
7
13
2
-1
-28
-40
-50
-28
1
9
12
14
2
-8
-29
-36
-35
-14
0
24
22
17
27
6
-16
-16
-32
-7
12
26
28
19
13
1
-16
-22
-27
-19
0
18
19
12
15
-6
-27
-35
-31
-18
11
15
20
20
12
-6
-22
-30
-22
-15
5
18
19
14
9
-9
-21
-29
-20
-9
5
16
25
20
5
-16
-36
-28
1
-2
6
20
25
19
10
-8
-28
-32
-22
-7
15
35
39
43
34
24
29
37
57
83
108
120
120
102
84
56
25
12
-5
-11
2
5
11
3
2
-18
-24
-26
-11
3
22
32
34
23
21
-10
-18
-22
-12
7
18
30
42
30
18
-4
-18
-17
-9
6
28
35
36
17
19
0
-13
-5
-3
8
25
40
36
23
11
3
-8
-3
7
17
31
47
39
23
13
3
-5
-4
8
12
35
46
44
39
19
6
-5
6
17
26
46
45
53
42
28
9
-1
6
22
52
57
60
53
43
35
19
9
22
32
48
60
73
67
61
41
26
17
19
35
53
66
65
61
45
37
24
18
24
27
47
58
62
54
37
20
11
9
7
19
32
47
51
41
27
12
1
-8
-4
13
33
40
46
37
27
7
-6
-12
-4
5
24
33
38
28
15
2
-11
-11
0
6
20
38
39
32
17
-2
-14
-16
2
7
24
40
42
32
21
7
-4
-8
-1
3
20
35
50
39
23
1
-5
-7
8
11
32
37
40
31
25
6
-4
-2
6
15
37
46
40
32
23
4
-4
-3
10
23
35
43
42
27
25
2
-10
-10
9
21
52
53
43
33
23
9
-2
1
10
27
44
47
46
34
20
2
-5
2
14
30
47
46
41
38
24
6
-6
7
16
33
43
52
44
36
20
6
1
8
21
36
52
58
54
40
27
10
8
12
21
36
50
55
44
33
18
-3
-8
-2
10
30
34
47
36
29
13
-4
-11
-5
5
28
43
42
35
23
2
-9
-12
0
8
17
31
41
36
23
7
-3
-10
-1
7
28
41
40
34
22
0
-7
-11
2
4
25
33
31
30
17
-4
-13
-16
-3
8
35
56
57
58
60
42
51
63
86
109
125
127
118
96
78
67
37
18
11
1
10
17
21
13
6
-9
-14
-9
0
11
33
40
38
27
16
-3
-14
-10
1
19
33
32
29
21
23
3
-7
-4
13
22
37
43
38
29
11
-2
-6
-4
8
23
38
46
39
29
16
-2
-10
-6
7
25
41
47
39
30
16
-1
-7
-1
13
25
45
47
41
34
19
2
0
6
12
30
51
57
45
35
21
19
13
14
26
48
65
65
59
49
34
22
18
27
40
58
68
71
61
63
43
32
30
35
42
67
75
75
70
59
39
25
20
32
44
59
69
70
56
46
25
15
9
14
25
38
49
56
48
31
12
-2
-2
7
16
34
43
41
28
21
-2
-5
-7
5
13
34
44
41
28
26
3
-11
-9
1
12
30
36
37
27
18
-1
-12
-12
2
11
37
41
40
27
12
-5
-18
-7
9
22
39
44
40
27
18
-2
-9
-7
5
17
36
42
39
28
17
1
-7
-3
7
19
34
41
37
25
12
-7
-13
-5
6
23
36
42
32
23
9
-11
-13
-6
8
24
38
42
38
29
12
-2
-12
-4
2
20
31
42
33
23
6
-9
-12
-5
5
21
32
40
32
18
3
-9
-12
-2
8
29
39
41
33
24
8
-4
-9
3
14
32
43
44
34
23
6
-6
-4
5
13
39
49
49
37
28
11
-3
-2
9
16
34
49
41
27
18
-2
-13
-15
-5
0
20
30
32
26
11
-10
-14
-19
-8
2
22
30
32
20
10
-11
-23
-19
-8
5
27
32
27
18
8
-9
-15
-11
-4
6
23
29
27
18
6
-11
-22
-20
-10
2
20
24
22
14
8
-18
-28
-24
-11
5
33
47
49
48
44
30
38
54
77
118
133
130
114
93
65
42
22
8
-3
-11
-10
1
8
-2
-10
-22
-27
-20
-11
15
31
31
27
16
2
-13
-18
-10
0
16
30
33
27
17
0
-6
-15
-7
7
22
31
33
29
23
6
-7
-12
-6
3
25
36
38
33
22
7
-6
-9
0
12
29
38
41
32
22
5
-5
-5
3
14
31
41
45
35
26
14
4
1
10
20
40
49
51
41
32
14
5
9
17
31
50
60
62
54
46
24
17
19
37
45
62
74
80
70
58
36
29
33
41
50
72
79
78
68
60
35
23
26
41
46
63
73
64
51
41
19
8
11
25
29
46
52
46
38
22
3
-6
-2
5
14
31
39
43
31
17
-4
-10
-6
1
14
37
38
29
19
6
2
-12
-7
5
17
33
38
33
22
9
-7
-13
-8
3
19
33
39
31
23
7
-7
-11
-3
7
22
33
41
31
23
5
-9
-13
-3
6
25
34
43
34
20
0
-13
-10
3
9
27
37
38
28
20
5
-9
-10
1
8
24
34
37
31
22
3
-9
-12
1
7
26
36
40
31
21
0
-10
-10
0
8
26
36
36
25
15
-5
-13
-12
-4
4
29
42
39
28
17
0
-12
-10
-1
8
28
36
35
26
18
-4
-14
-13
-2
6
29
35
33
22
15
-4
-13
-9
0
17
35
44
42
31
16
5
-7
-4
7
17
35
41
38
26
25
5
-4
0
15
29
46
52
47
37
24
6
-2
1
10
19
38
46
35
25
12
-8
-14
-11
-1
12
26
37
32
19
4
-12
-18
-8
1
19
31
35
27
24
3
-14
-18
-11
0
15
28
34
25
17
-3
-12
-18
-12
0
14
28
31
24
15
-3
-15
-15
-10
-3
16
25
27
17
7
-11
-21
-27
-16
-4
24
49
56
53
57
48
55
65
95
120
151
151
140
120
98
66
38
16
3
-12
-10
-1
7
5
0
-13
-20
-18
-6
4
22
32
34
23
15
-6
-14
-14
0
9
27
36
35
24
17
-6
-12
-10
10
18
35
43
40
30
20
1
-8
-7
4
19
39
45
40
32
21
0
-5
-1
8
20
37
45
44
31
21
3
-1
3
14
27
45
49
48
35
24
10
0
11
20
32
50
57
52
44
30
13
10
19
28
45
58
71
69
58
43
33
24
29
42
59
79
81
76
65
50
40
34
40
48
68
78
86
80
67
48
34
37
36
47
63
73
73
62
53
41
18
11
22
30
45
54
55
46
33
15
2
-2
4
15
29
43
42
29
22
4
-9
-10
-2
8
25
35
39
26
16
-3
-16
-23
-16
9
35
35
36
27
16
-4
-16
-16
-6
5
26
33
32
21
14
-8
-17
-15
-4
5
27
36
38
25
17
-6
-15
-14
-3
7
28
36
32
21
11
-7
-14
-10
-2
8
29
36
30
19
13
-8
-14
-10
-2
13
35
40
39
21
8
-11
-18
-13
1
17
31
39
36
23
10
-8
-17
-10
1
13
29
31
26
20
9
-10
-16
-12
0
19
29
35
28
19
3
-13
-18
-14
1
19
28
33
24
15
1
-12
-19
-11
1
17
27
32
27
16
-2
-15
-20
-10
3
12
27
33
25
15
-2
-17
-20
-11
-1
15
28
35
25
13
-5
-16
-21
-13
-4
14
28
31
21
10
-8
-25
-17
-3
2
18
30
33
23
12
-4
-12
-11
-3
4
23
33
32
23
12
-5
-14
-12
5
13
31
43
43
31
25
4
-7
-8
4
14
33
42
38
26
14
-7
-18
-17
-8
1
20
25
26
15
10
-15
-22
-19
-7
1
22
27
25
11
-1
-19
-27
-24
-12
1
15
22
20
11
-2
-23
-35
-21
-9
2
15
22
22
6
-4
-21
-29
-25
-14
-1
11
17
12
4
-9
-26
-37
-30
-20
1
30
46
45
45
41
34
46
70
100
132
143
138
118
95
64
38
21
2
-16
-22
-20
-13
-12
-21
-30
-25
-30
-22
-7
12
20
24
17
6
-10
-22
-27
-17
-6
10
23
25
17
8
-9
-24
-25
-15
-4
16
22
25
22
11
-11
-20
-19
-10
-2
17
25
28
19
10
-9
-23
-24
-10
4
25
36
33
22
13
-9
-20
-7
-3
6
26
35
34
25
16
-4
-10
-10
3
11
33
43
44
34
21
2
4
2
13
24
43
54
53
44
37
19
11
14
33
41
62
69
68
55
46
26
21
27
38
49
70
73
68
59
44
25
19
22
30
42
56
62
58
44
30
11
4
6
15
24
42
45
36
24
6
-12
-19
-12
1
16
27
35
27
15
-2
-19
-24
-18
-6
9
18
24
17
6
-11
-24
-29
-21
-10
7
17
20
11
6
-13
-27
-29
-22
-9
6
23
24
17
6
-12
-24
-26
-18
-13
0
17
32
21
9
-10
-22
-25
-16
-8
9
23
27
14
5
-14
-19
-26
-17
-8
11
23
23
14
5
-14
-27
-27
-16
-6
15
23
24
14
4
-18
-31
-24
-20
-9
12
24
26
13
1
-19
-33
-24
-18
-2
13
22
25
11
-1
-19
-28
-27
-17
-7
13
19
16
5
-6
-23
-30
-29
-21
-7
15
17
11
1
-7
-23
-33
-28
-20
-6
15
20
15
2
-8
-26
-34
-28
-19
-6
10
16
9
4
-12
-28
-32
-25
-16
-5
8
16
14
6
-10
-28
-35
-23
-14
-1
15
19
15
7
-7
-22
-30
-25
-13
10
17
28
18
8
-9
-21
-26
-20
-11
12
34
33
25
13
-7
-18
-24
-17
-8
9
18
20
11
-1
-20
-31
-34
-27
-18
-1
9
10
4
-5
-21
-31
-36
-28
-20
-2
10
12
2
-10
-28
-38
-41
-33
-24
-3
5
6
1
-10
-28
-39
-41
-30
-22
-5
4
8
-2
-13
-32
-43
-45
-36
-19
-2
1
2
-11
-25
-43
-49
-36
-15
4
34
55
63
68
77
77
85
87
90
90
95
87
71
43
10
-33
-61
-74
-65
-50
-24
-2
-4
-10
-19
-34
-41
-40
-29
-12
3
10
8
-4
-17
-34
-41
-35
-22
-8
6
12
12
3
-11
-28
-35
-30
-18
-4
10
17
9
0
-12
-27
-34
-29
-18
-2
12
19
14
2
-14
-29
-34
-21
-8
6
16
21
14
6
-11
-27
-26
-18
-7
10
21
26
21
13
-6
-14
-16
-7
3
22
35
38
29
20
5
-5
-9
0
12
35
51
51
44
39
18
8
8
17
29
49
59
62
53
43
23
11
12
22
31
49
58
60
49
39
19
8
4
16
23
40
47
43
31
23
-2
-15
-14
-9
1
19
25
22
8
4
-21
-34
-32
-20
-10
11
13
11
5
-10
-29
-39
-40
-31
-15
4
9
7
-3
-11
-29
-39
-36
-26
-16
2
9
6
-5
-19
-34
-41
-36
-29
-17
1
6
5
4
-11
-32
-40
-33
-23
-11
4
10
5
-4
-18
-34
-40
-34
-25
-11
3
13
9
1
-15
-31
-39
-34
-23
-6
4
13
7
-4
-22
-35
-39
-30
-22
-7
4
10
4
-5
-22
-35
-42
-37
-17
-4
6
10
4
-7
-26
-40
-45
-34
-23
-6
9
10
8
-5
-29
-40
-44
-35
-25
-4
3
5
-4
-5
-29
-42
-44
-33
-27
-7
4
4
-4
-14
-32
-44
-43
-34
-26
-2
5
7
-1
-14
-36
-44
-46
-33
-23
-5
5
4
-5
-14
-33
-47
-46
-37
-24
-6
8
5
-8
-17
-37
-42
-44
-34
-23
-2
4
3
-8
-19
-39
-48
-48
-31
-21
-4
11
5
-4
-13
-27
-30
-33
-20
-15
4
11
10
0
-10
-30
-34
-30
-18
-2
14
18
14
4
-12
-27
-26
-27
-20
-7
7
15
8
-5
-20
-38
-46
-41
-30
-14
-1
5
-4
-9
-26
-38
-44
-41
-32
-13
2
4
0
-16
-34
-44
-50
-41
-30
-15
-2
6
-4
-15
-31
-43
-48
-40
-34
-11
-3
1
-8
-16
-32
-42
-50
-43
-34
-17
-7
-6
-15
-26
-42
-51
-46
-27
-6
29
48
60
67
77
78
84
77
79
77
84
78
64
41
4
-40
-73
-86
-71
-58
-30
-11
-8
-11
-19
-33
-43
-46
-37
-28
-8
0
0
-9
-17
-37
-47
-44
-34
-16
-4
5
4
-5
-12
-32
-45
-43
-32
-20
1
9
8
-1
-11
-33
-43
-39
-30
-22
3
20
12
2
-10
-28
-35
-35
-24
-15
12
15
13
6
-3
-25
-32
-29
-17
-5
12
20
17
8
-3
-18
-28
-21
-7
6
24
30
25
14
2
-11
-18
-9
7
19
35
43
38
29
14
3
0
7
15
32
48
55
45
34
20
4
5
15
27
39
52
55
48
37
18
3
-3
2
9
25
35
41
32
20
-1
-16
-19
-14
-7
8
16
20
13
-1
-19
-31
-38
-28
-20
-4
6
10
-1
-9
-28
-39
-43
-34
-27
-7
2
3
-10
-14
-29
-41
-43
-35
-27
-9
4
7
-7
-14
-28
-41
-45
-34
-24
-5
5
2
-8
-17
-32
-41
-45
-36
-16
0
8
5
-6
-15
-34
-44
-45
-29
-20
4
8
6
-3
-15
-33
-45
-42
-29
-19
-1
10
5
-3
-19
-38
-45
-41
-30
-17
0
10
4
-6
-19
-38
-45
-42
-32
-18
1
8
-1
-8
-21
-36
-44
-43
-34
-12
4
5
2
-6
-21
-40
-45
-40
-32
-16
-2
2
-1
-9
-25
-40
-47
-44
-32
-14
-2
3
1
-13
-30
-40
-48
-41
-29
-14
-1
5
-2
-13
-31
-45
-49
-42
-31
-17
-9
4
-6
-16
-35
-47
-45
-40
-32
-13
-3
3
-8
-22
-35
-46
-51
-42
-33
-13
-3
-1
-8
-13
-35
-50
-52
-42
-26
-3
1
2
-9
-20
-36
-46
-49
-38
-31
-11
2
2
-9
-17
-35
-43
-45
-35
-21
-2
7
6
-7
-13
-31
-43
-42
-29
-19
2
12
16
7
-5
-24
-37
-32
-22
-11
5
14
12
1
-11
-35
-42
-42
-28
-18
8
6
2
-9
-21
-40
-49
-47
-35
-21
-5
2
-2
-14
-26
-43
-50
-47
-36
-24
-8
0
-4
-17
-30
-49
-54
-44
-33
-22
-9
0
-2
-13
-29
-46
-53
-46
-37
-24
-7
-3
-13
-28
-37
-48
-55
-55
-46
-28
-10
3
9
6
-1
-3
2
24
54
91
121
126
112
87
60
34
17
12
-7
-11
-18
-36
-42
-49
-59
-65
-63
-50
-39
-12
-2
3
-5
-16
-35
-47
-48
-38
-32
-11
2
4
-4
-13
-31
-44
-46
-34
-24
-6
5
8
-3
-13
-30
-42
-44
-33
-23
-4
8
12
-1
-10
-29
-43
-42
-28
-20
3
15
15
2
-11
-26
-37
-31
-21
-14
8
15
15
7
-2
-21
-31
-31
-17
-7
15
23
21
8
-1
-18
-13
-18
-8
4
25
34
36
27
17
-3
-10
-6
5
17
35
50
45
36
22
3
-2
3
15
29
46
53
49
42
28
9
1
6
15
25
45
49
40
29
14
-4
-11
-8
-1
13
25
29
22
6
-9
-21
-29
-26
-17
-3
8
13
4
-1
-23
-40
-40
-36
-28
-13
2
3
4
-10
-26
-39
-47
-37
-28
-11
-3
0
-6
-15
-32
-45
-47
-39
-27
-9
0
5
-7
-15
-32
-43
-43
-35
-27
-8
2
5
-5
-14
-32
-44
-46
-38
-32
-6
2
10
-4
-14
-33
-38
-41
-33
-24
-2
4
3
-8
-14
-28
-43
-42
-33
-25
-4
5
4
-6
-16
-33
-42
-42
-34
-25
-5
4
5
-6
-15
-36
-44
-44
-34
-25
-5
5
4
-8
-18
-38
-46
-46
-33
-24
-7
1
-4
-5
-17
-37
-44
-39
-34
-21
-2
6
1
-9
-22
-39
-48
-47
-33
-20
-4
0
0
-6
-24
-43
-47
-44
-34
-20
-4
4
-2
-12
-27
-43
-51
-43
-32
-18
-4
-1
-3
-14
-29
-43
-48
-44
-33
-11
-4
1
-4
-14
-33
-41
-47
-42
-30
-13
-2
3
-6
-14
-31
-44
-50
-41
-33
-15
-4
3
-6
-17
-37
-50
-50
-41
-30
-15
-4
1
0
-12
-33
-46
-47
-39
-31
-13
1
1
-6
-13
-31
-42
-45
-28
-18
0
9
7
-1
-12
-30
-41
-42
-31
-19
1
12
14
6
0
-22
-37
-31
-23
-15
5
12
10
2
-9
-28
-39
-42
-31
-20
-4
3
2
-11
-20
-40
-46
-48
-38
-26
-7
5
2
-11
-23
-42
-51
-50
-39
-29
-10
-3
-2
-14
-24
-43
-52
-50
-36
-26
-9
4
0
-12
-23
-43
-51
-47
-33
-23
-6
-1
-5
-13
-27
-47
-58
-55
-42
-23
1
15
20
21
17
17
19
41
73
104
129
131
113
93
63
31
16
1
-20
-29
-34
-36
-39
-33
-49
-56
-55
-41
-30
-8
4
9
1
-9
-25
-38
-44
-35
-25
-5
6
11
2
-10
-27
-38
-46
-23
-15
2
11
11
7
-3
-21
-32
-36
-28
-18
-4
9
18
5
1
-19
-33
-33
-24
-13
4
13
16
11
1
-18
-30
-32
-22
-9
11
19
23
13
3
-15
-27
-27
-14
-5
17
25
24
14
4
-11
-14
-16
-3
8
32
37
37
29
29
4
0
0
13
24
46
55
53
42
34
15
5
8
21
39
54
60
58
47
37
15
6
7
17
30
46
52
48
38
23
1
-9
-7
7
13
27
33
27
15
0
-19
-28
-22
-15
0
14
20
13
-1
-12
-27
-40
-31
-19
-6
5
11
2
-5
-18
-37
-42
-38
-28
-8
2
8
3
-9
-28
-38
-42
-37
-28
-12
1
8
6
-6
-24
-40
-45
-36
-27
-6
5
8
-1
-7
-23
-36
-42
-36
-22
-2
5
10
1
-10
-28
-38
-38
-31
-22
-4
10
10
0
-9
-25
-37
-39
-31
-24
-1
9
9
-1
-7
-29
-39
-41
-33
-24
-4
9
9
-3
-13
-33
-44
-41
-29
-21
-1
7
7
-2
-12
-34
-43
-43
-36
-24
-6
5
4
-9
-14
-33
-42
-44
-34
-22
-3
3
3
-10
-18
-34
-47
-43
-33
-23
-3
5
2
-9
-21
-38
-46
-46
-37
-19
-3
1
7
-9
-21
-42
-51
-47
-35
-20
-5
5
2
-12
-23
-38
-51
-42
-33
-18
-3
6
-2
-12
-26
-40
-47
-44
-32
-18
-3
1
-7
-16
-24
-39
-48
-43
-33
-19
-6
0
-1
-13
-30
-43
-49
-43
-34
-12
-3
1
-4
-16
-31
-43
-48
-35
-25
-7
5
10
2
-12
-28
-36
-41
-33
-26
-9
6
14
1
-7
-21
-31
-34
-26
-16
5
17
15
7
-4
-21
-34
-36
-28
-23
0
7
8
-4
-13
-35
-45
-48
-40
-32
-10
5
2
-10
-20
-36
-48
-48
-41
-32
-11
-3
-2
-14
-25
-37
-48
-49
-41
-31
-13
-7
-2
-14
-23
-45
-53
-52
-39
-30
-11
-6
-7
-20
-24
-42
-53
-54
-44
-31
-19
-11
-10
-23
-37
-56
-59
-49
-31
-8
19
35
43
42
54
59
69
82
84
84
94
86
61
38
10
-34
-67
-81
-77
-60
-36
-25
-24
-27
-36
-48
-55
-46
-38
-24
-7
3
-5
-15
-29
-45
-48
-36
-32
-17
-3
4
-1
-14
-30
-45
-45
-38
-28
-11
2
6
-2
-11
-26
-41
-44
-38
-23
-7
5
7
6
-8
-27
-38
-38
-28
-23
-3
10
12
4
-4
-21
-32
-36
-31
-13
6
14
20
12
2
-20
-28
-31
-19
-9
10
26
25
16
8
-8
-18
-17
-4
3
24
35
37
31
23
7
-2
-4
9
17
39
48
50
42
35
15
6
5
16
31
52
57
56
42
35
13
2
2
8
15
39
45
39
26
14
-8
-18
-11
-9
-1
20
24
19
9
-1
-25
-33
-34
-24
-13
3
9
6
-6
-19
-36
-47
-43
-30
-12
1
8
-1
-11
-26
-39
-47
-43
-33
-18
-3
3
-2
-12
-24
-42
-49
-45
-29
-15
0
6
-2
-13
-22
-43
-48
-41
-29
-8
1
6
-2
-11
-25
-39
-46
-40
-29
-12
1
5
0
-10
-27
-38
-43
-39
-26
-8
2
5
-3
-11
-25
-37
-43
-35
-28
-4
2
6
-4
-9
-29
-43
-44
-37
-27
-6
3
5
-5
-16
-33
-43
-39
-32
-23
-4
5
4
-6
-14
-32
-44
-47
-38
-29
-7
1
2
-8
-16
-36
-46
-48
-40
-29
-8
3
3
-10
-19
-41
-54
-51
-24
-26
-6
2
1
-8
-17
-41
-50
-48
-37
-26
-5
2
2
-13
-21
-43
-51
-48
-38
-28
-7
1
-2
-14
-20
-36
-51
-50
-38
-23
-8
1
-3
-13
-27
-42
-51
-48
-39
-20
-5
0
-5
-19
-31
-49
-56
-50
-40
-24
-9
0
-9
-18
-31
-46
-53
-43
-31
-22
-5
7
1
-11
-28
-44
-51
-44
-30
-14
-1
6
3
-6
-19
-34
-40
-33
-22
-11
1
6
6
-3
-21
-35
-41
-36
-26
-12
-4
0
-9
-19
-38
-49
-56
-50
-34
-18
-8
-5
-15
-24
-38
-53
-54
-44
-37
-19
-11
-7
-15
-25
-44
-56
-58
-49
-38
-22
-11
-7
-19
-29
-46
-57
-56
-45
-36
-14
-7
-7
-17
-28
-43
-58
-62
-51
-40
-19
-16
-21
-30
-36
-44
-44
-34
-13
5
37
61
81
89
97
81
65
53
52
45
55
44
17
-19
-50
-86
-97
-90
-70
-54
-28
-12
-13
-20
-31
-49
-50
-52
-41
-29
-13
-3
-6
-18
-31
-48
-51
-45
-37
-26
-3
5
-3
-14
-30
-48
-52
-43
-35
-22
1
9
0
-10
-25
-39
-47
-41
-32
-16
-2
4
7
-8
-24
-39
-45
-38
-26
-11
2
11
3
-8
-20
-33
-40
-31
-17
-2
11
16
6
-4
-13
-24
-31
-22
-12
8
22
28
20
10
-6
-21
-18
-4
4
21
34
41
35
24
8
-2
-5
7
16
32
43
53
47
35
15
3
1
10
19
37
50
46
35
27
1
1
-8
3
8
26
37
35
22
13
-12
-25
-28
-20
-9
10
15
10
3
-6
-30
-42
-44
-35
-22
-2
4
5
-5
-21
-39
-48
-49
-38
-27
-10
-1
-5
-16
-24
-42
-53
-51
-36
-27
-7
0
-4
-15
-27
-43
-53
-53
-37
-23
-5
0
1
-12
-26
-45
-51
-46
-36
-25
-8
7
-1
-12
-26
-43
-49
-45
-35
-20
-4
3
-3
-12
-25
-43
-50
-44
-34
-20
-5
6
-4
-14
-27
-42
-50
-43
-36
-21
0
8
-5
-15
-31
-45
-50
-42
-33
-18
-6
2
-7
-18
-32
-45
-52
-44
-37
-23
-3
5
-1
-18
-34
-49
-53
-41
-28
-11
-2
1
-9
-18
-37
-50
-53
-44
-35
-17
-4
-3
-12
-21
-38
-50
-52
-46
-34
-12
-7
-6
-18
-25
-40
-46
-49
-42
-32
-15
-4
-2
-13
-24
-45
-54
-49
-44
-30
-11
-3
-3
-14
-24
-41
-53
-47
-40
-31
-10
-1
-4
-13
-26
-41
-51
-51
-39
-29
-9
2
3
-7
-19
-39
-47
-44
-34
-28
-7
0
11
-6
-21
-37
-43
-40
-28
-15
0
17
7
-1
-14
-26
-33
-33
-24
-12
4
10
3
-9
-22
-40
-49
-48
-38
-25
-7
-1
-6
-15
-32
-48
-51
-45
-37
-23
-9
-4
-9
-18
-34
-49
-55
-48
-41
-26
-12
-9
-12
-27
-38
-48
-55
-49
-40
-24
-7
-3
-14
-24
-40
-55
-58
-52
-35
-20
-10
-9
-16
-28
-48
-59
-66
-57
-45
-21
-2
11
15
12
6
6
24
55
84
116
117
112
88
65
31
3
-22
-35
-50
-50
-44
-38
-42
-47
-61
-65
-62
-41
-31
-11
-2
-1
-11
-21
-40
-51
-50
-40
-28
-9
1
4
-10
-19
-38
-47
-45
-36
-28
-6
1
7
-8
-20
-34
-38
-42
-32
-22
-2
6
4
0
-15
-34
-41
-41
-29
-15
2
8
11
-2
-13
-33
-40
-35
-25
-13
7
17
11
4
-11
-22
-32
-29
-17
-4
15
22
21
10
-3
-19
-25
-21
0
9
27
35
32
23
9
-7
-8
-3
12
27
44
50
43
33
18
3
-2
7
16
32
48
54
45
36
20
7
0
4
14
29
42
44
33
24
6
-7
-15
-11
-3
14
26
27
19
4
-16
-31
-37
-30
-23
0
10
8
0
-11
-29
-42
-46
-39
-29
-11
0
0
-10
-20
-40
-46
-51
-40
-30
-10
0
2
-9
-20
-41
-46
-48
-36
-29
-11
-1
1
-10
-18
-40
-51
-54
-36
-23
-12
1
4
-9
-17
-40
-48
-46
-36
-23
-7
1
2
-8
-19
-40
-49
-47
-38
-26
-5
0
-3
-8
-17
-39
-47
-46
-34
-23
-6
3
1
-10
-22
-45
-53
-49
-28
-19
-4
2
0
-6
-26
-43
-47
-45
-36
-24
-2
4
-2
-15
-25
-44
-51
-47
-36
-23
-7
3
-3
-14
-30
-46
-55
-47
-35
-24
-4
1
-5
-19
-34
-47
-51
-44
-34
-20
-4
1
-6
-18
-36
-48
-57
-40
-29
-16
-5
0
-9
-18
-38
-51
-52
-35
-35
-18
-3
2
-9
-20
-37
-47
-53
-43
-35
-18
-8
-5
-7
-20
-38
-51
-53
-45
-33
-15
-2
0
-8
-19
-36
-46
-41
-37
-26
-7
3
4
-7
-17
-34
-44
-44
-34
-23
-3
8
13
1
-9
-25
-33
-38
-27
-15
1
9
9
-3
-12
-35
-45
-47
-36
-29
-9
-2
-3
-15
-24
-42
-53
-50
-42
-33
-16
-2
-7
-13
-24
-46
-53
-52
-42
-30
-11
-4
-8
-19
-30
-48
-56
-56
-41
-32
-15
-8
-1
-14
-27
-45
-55
-50
-39
-27
-12
-7
-13
-21
-36
-53
-62
-60
-50
-35
-13
0
5
0
1
-6
2
23
51
89
122
126
115
91
62
30
9
-1
-15
-25
-34
-43
-50
-51
-57
-69
-68
-53
-37
-20
-7
-2
-5
-17
-35
-46
-48
-46
-37
-16
-1
4
-5
-15
-33
-48
-52
-34
-28
-5
4
6
-3
-13
-31
-39
-44
-37
-28
-4
4
5
-1
-13
-30
-38
-42
-31
-23
-4
8
11
4
-7
-28
-38
-39
-27
-19
4
18
16
2
-5
-24
-33
-32
-24
-10
6
29
29
16
4
-12
-21
-21
-9
1
24
32
31
22
16
-1
-10
-7
7
20
37
49
46
44
31
12
2
7
17
28
47
55
53
42
29
11
5
5
15
26
42
49
48
29
24
-4
-8
-5
1
11
31
31
22
12
0
-25
-28
-27
-18
-4
9
13
7
-4
-21
-38
-45
-34
-27
-13
0
4
-1
-11
-29
-43
-49
-42
-30
-15
-5
1
-3
-18
-36
-42
-50
-38
-27
-12
0
3
-5
-16
-33
-48
-50
-39
-28
-11
0
7
-2
-12
-32
-45
-46
-37
-27
-9
-1
3
-6
-19
-33
-42
-44
-36
-28
-12
1
7
-7
-16
-37
-35
-43
-31
-23
-1
7
7
-3
-14
-34
-44
-38
-33
-24
-6
4
3
-9
-16
-36
-47
-48
-36
-24
-9
0
3
-9
-15
-30
-44
-44
-35
-25
-7
7
3
-11
-22
-38
-49
-48
-35
-23
-7
1
2
-10
-20
-41
-48
-49
-37
-21
-6
-1
-2
-10
-25
-45
-53
-51
-34
-23
-7
1
-4
-11
-21
-43
-50
-46
-36
-23
-7
1
-4
-14
-30
-48
-49
-46
-39
-22
-3
0
-5
-16
-32
-48
-55
-49
-34
-19
-5
2
-3
-15
-24
-40
-46
-41
-29
-14
1
4
-2
-14
-27
-45
-49
-35
-21
-4
14
12
4
-2
-20
-33
-38
-29
-19
-5
9
18
6
-6
-23
-39
-44
-39
-31
-13
0
2
-12
-21
-39
-44
-51
-43
-31
-13
-6
-2
-11
-22
-40
-52
-55
-45
-38
-20
-7
-6
-16
-24
-46
-53
-55
-46
-32
-14
-8
-7
-16
-23
-46
-56
-56
-43
-36
-19
-10
-10
-20
-33
-53
-62
-66
-55
-43
-19
-2
5
1
4
-5
-4
14
49
82
117
129
121
98
74
37
12
4
-12
-22
-28
-41
-49
-48
-52
-70
-71
-61
-43
-30
-10
-1
-6
-19
-29
-47
-52
-49
-38
-25
-7
0
-3
-15
-27
-44
-52
-43
-30
-19
-4
6
3
-10
-25
-39
-46
-40
-30
-17
-2
9
4
-12
-19
-39
-43
-35
-25
-10
5
10
3
-8
-25
-31
-31
-31
-18
-2
11
16
9
-1
-15
-29
-33
-24
-15
4
19
22
14
6
-11
-22
-26
-15
-1
20
33
37
29
20
3
-5
-9
2
14
32
42
47
39
32
16
5
3
16
26
46
53
55
42
35
16
6
4
11
19
39
48
47
35
23
0
-10
-15
-6
7
22
28
28
13
2
-20
-32
-34
-24
-16
2
9
8
-5
-11
-32
-43
-42
-33
-23
-4
1
1
-13
-24
-40
-50
-45
-29
-21
-6
2
-2
-12
-23
-41
-47
-44
-34
-22
-6
1
-1
-10
-27
-42
-49
-47
-36
-10
-2
6
1
-7
-24
-42
-46
-40
-31
-17
-1
7
1
-13
-28
-42
-51
-40
-30
-17
-4
2
-2
-12
-26
-42
-47
-41
-31
-16
-7
0
-10
-3
-22
-40
-46
-38
-27
-14
-1
4
-4
-16
-33
-45
-49
-41
-29
-13
-4
2
-8
-19
-38
-49
-51
-41
-31
-12
-3
0
-8
-19
-35
-47
-51
-41
-32
-17
-4
0
-5
-16
-38
-49
-47
-38
-28
-10
-1
-2
-13
-20
-41
-47
-51
-38
-30
-12
-4
1
-13
-23
-43
-49
-49
-40
-32
-10
-2
0
-12
-22
-43
-52
-52
-42
-34
-12
-3
1
-10
-23
-45
-44
-43
-34
-23
0
6
0
-9
-18
-39
-47
-45
-33
-20
-2
3
2
-8
-19
-34
-43
-36
-24
-10
6
12
8
-1
-15
-32
-40
-36
-28
-15
1
4
-3
-13
-28
-47
-55
-52
-44
-29
-4
-6
-13
-17
-27
-47
-55
-49
-39
-23
-11
-5
-12
-16
-35
-52
-57
-50
-41
-24
-12
-6
-14
-25
-37
-51
-57
-51
-38
-25
-13
-2
-12
-23
-42
-54
-60
-52
-41
-28
-21
-8
-19
-32
-47
-56
-59
-41
-21
7
26
44
51
61
58
68
84
86
87
92
90
75
49
19
-27
-65
-87
-85
-72
-47
-33
-25
-21
-26
-45
-52
-49
-43
-37
-14
-3
-9
-9
-19
-41
-50
-50
-39
-31
-9
0
0
-11
-21
-42
-55
-53
-32
-23
-3
5
3
