-2
-2
-1
4
1
4
5
-1
-1
5
-1
-7
-5
0
-2
-4
3
8
6
3
2
-1
4
3
1
3
2
6
6
5
0
6
0
3
-4
-1
2
1
-4
3
6
0
7
1
-2
2
6
0
0
5
1
4
7
6
1
6
6
8
6
8
7
12
6
9
13
12
5
14
18
14
17
11
9
13
22
16
6
3
6
5
1
-2
3
-1
1
-2
-6
-2
4
2
-3
-2
-3
-8
-3
1
0
0
2
1
-3
-4
-1
-5
-2
-1
-3
1
-1
0
-7
-3
-7
-10
-12
-15
-19
-14
-9
1
22
50
74
108
131
152
141
119
103
93
81
56
15
-21
-56
-58
-59
-43
-31
-23
-16
-11
-5
-4
-6
-6
-6
-6
-7
-8
-11
-8
-12
-2
-2
2
-6
-5
1
-6
-4
-4
-5
-8
-3
-5
-6
-6
-1
-4
-3
-1
-4
-5
-3
-3
-5
-3
1
-1
1
-3
-6
-5
1
-2
-1
1
-1
5
-1
1
1
2
2
-1
-1
7
9
3
2
8
6
-2
3
7
4
8
9
1
13
15
8
10
17
17
14
19
24
22
22
28
23
29
28
32
36
43
37
38
37
42
42
46
44
46
45
45
48
51
47
48
47
43
51
45
44
47
44
39
35
37
36
33
28
26
18
25
21
22
24
13
11
12
13
11
11
12
5
10
10
9
3
7
3
2
7
6
3
3
8
4
-1
2
5
4
-1
4
-5
3
4
6
4
6
5
5
3
4
3
4
7
1
2
5
4
4
8
5
2
2
3
-1
1
4
4
8
11
8
5
5
6
1
4
5
4
5
9
9
8
6
7
4
7
7
1
0
5
5
9
8
5
6
3
3
4
5
8
4
5
3
5
1
1
-1
1
-1
5
14
7
2
9
5
4
11
8
15
10
7
12
13
9
10
16
13
13
14
13
19
17
20
15
15
10
13
17
10
12
14
12
9
1
4
-2
1
4
4
6
0
0
6
3
2
2
2
-4
1
1
-3
3
1
-2
-1
0
0
2
-1
2
0
1
2
5
-3
-3
-2
-17
-21
-20
-28
-8
0
17
45
71
106
139
154
167
153
138
110
106
80
50
14
-28
-47
-46
-40
-25
-13
-16
-1
3
-3
-3
0
0
-7
-5
-9
-10
-8
-6
-7
-5
0
2
-7
-4
-5
-5
-5
-3
-3
0
1
-2
-2
-1
0
-5
-10
-1
-5
0
3
4
-4
-3
-4
-1
1
3
-7
2
-2
1
2
5
-1
2
-2
2
0
3
4
-2
1
7
-1
1
4
7
-1
4
3
2
8
12
5
6
6
15
9
11
12
18
25
19
18
10
22
29
25
23
30
28
32
35
38
36
38
39
42
45
46
41
50
49
44
38
42
47
48
51
47
45
47
41
37
36
36
28
29
26
28
23
23
24
21
21
19
14
12
12
12
9
8
9
2
4
5
5
5
7
5
-1
7
5
7
5
8
5
3
6
7
1
2
6
1
3
-5
-4
-4
6
2
2
4
5
1
0
-2
-2
-2
5
-1
1
2
3
-1
1
2
0
1
3
2
3
3
3
-2
2
5
-2
2
3
4
2
0
2
0
5
7
6
5
4
2
2
5
1
-2
-5
10
0
-6
13
7
2
6
6
5
4
5
1
-1
0
2
-1
8
-2
6
4
4
-3
2
5
5
4
6
0
-2
5
9
5
7
5
7
3
13
11
13
10
16
14
11
16
15
15
13
10
9
17
9
12
7
3
-3
3
-1
0
0
1
3
-1
0
0
2
2
-1
2
-4
0
0
-7
1
-4
0
-2
-5
-6
-3
-4
-6
1
0
2
-2
-2
-7
-8
-15
-21
-29
-15
-12
4
26
49
79
114
142
160
166
148
130
99
97
77
42
4
-37
-51
-37
-26
-11
-8
-14
-5
2
-5
-10
-11
-7
-8
-5
-5
-5
-6
-4
-13
-13
-9
-6
-5
-11
-12
-5
-1
-1
-9
-3
-7
-12
-8
-5
-2
-4
-7
-6
-5
-4
-7
-7
-8
-2
-6
-8
-2
-8
-6
-5
-9
-9
-4
-1
1
-4
-2
-5
-1
-6
-7
-5
-5
2
-2
-5
3
-1
4
-1
5
-1
5
10
2
6
9
9
4
14
14
8
8
13
7
12
22
20
23
31
25
28
34
31
31
34
34
39
35
38
36
37
45
44
39
47
43
41
38
38
34
40
42
42
35
41
34
30
27
38
24
21
18
20
16
14
12
9
7
10
11
6
5
3
7
0
4
2
-2
5
8
0
5
2
-4
-4
-1
-5
-1
1
-2
1
1
-2
-1
-1
-1
-4
-11
-3
5
-1
-1
1
-3
5
1
-6
-3
-5
-6
0
4
0
-5
-3
-8
-9
-4
-2
0
0
-1
2
-1
4
1
-5
-9
-4
-3
-5
-2
-1
-2
-1
1
-2
-5
-2
-8
-3
-3
3
-3
1
2
-3
-10
-4
-5
-5
0
-4
-7
-4
-2
-2
-1
-6
0
-1
0
-4
-7
-7
-6
0
0
-3
-6
-3
1
-3
-9
-11
-9
-8
-1
-1
-6
-7
-4
-4
-4
-3
-3
-5
0
1
1
-2
-1
-8
-2
-2
-3
2
5
5
2
10
13
11
12
5
4
3
10
9
5
6
7
0
0
-6
-3
-10
-4
-4
-6
-6
-6
-6
-5
-7
-5
-6
-5
-11
-5
-6
-6
-13
-7
-10
-5
-11
-7
-9
-10
-7
-7
-8
-8
-6
-9
-10
-12
-17
-25
-24
-34
-19
-11
3
14
40
72
102
132
153
158
144
122
93
82
61
34
-5
-43
-57
-47
-32
-20
-15
-9
-11
-10
-13
-11
-14
-10
-12
-10
-13
-11
-15
-19
-17
-15
-7
-13
-10
-11
-8
-17
-10
-14
-15
-9
-9
-10
-8
-12
-15
-13
-10
-12
-9
-5
-7
-13
-8
-9
-16
-12
-5
-8
-10
-11
-10
-12
-11
-7
-7
-16
-6
-7
-5
-5
-2
-7
-7
-8
-6
-8
-2
-4
-6
-1
1
-5
1
1
-2
0
1
5
5
7
8
7
6
12
10
14
16
11
19
20
21
21
28
26
23
25
27
28
33
43
38
40
41
39
37
33
36
37
39
42
40
37
35
34
33
33
30
27
22
26
23
21
20
20
12
12
9
9
6
8
6
2
6
-2
1
-1
-2
-2
-2
-2
-3
-4
-7
-5
-9
-2
-2
-5
-8
0
-1
-5
-3
-1
-2
-2
-1
-3
-13
-2
-6
-12
-3
-3
-3
0
-1
-1
-6
-2
-3
-4
-11
-2
-6
-5
-7
-10
-1
-1
-7
-5
-2
-8
-3
-2
-5
-8
-3
-4
-5
-1
-2
-1
-4
-4
-4
-6
-7
-4
-1
-5
-4
-6
-5
-2
-8
-8
-5
-2
-7
-5
-1
-7
-5
-7
-2
-2
-4
-5
-10
-13
-1
-5
-12
-2
-5
-5
0
-7
-9
-4
-2
-10
-6
-1
-3
-7
-3
-7
-11
-5
-7
-5
-2
-4
-3
-7
-1
2
-1
-2
-1
3
2
5
10
5
4
4
8
11
1
0
6
9
10
2
2
-3
-5
-10
-7
-5
-11
-6
-8
-13
-4
-4
-9
-4
-8
-14
-10
-4
-8
-10
-11
-9
-6
-8
-13
-10
-9
-10
-14
-9
-10
-13
-7
-5
-8
-13
-11
-17
-26
-27
-23
-12
-6
8
31
50
91
116
133
149
127
108
83
83
63
23
1
-44
-77
-69
-60
-44
-33
-20
-17
-16
-15
-13
-10
-16
-12
-19
-19
-15
-12
-19
-16
-17
-13
-12
-17
-25
-12
-14
-14
-17
-10
-14
-11
-14
-11
-14
-15
-11
-17
-15
-11
-13
-14
-14
-7
-13
-12
-15
-14
-10
-11
-11
-9
-6
-9
-9
-9
-11
-11
-11
-9
-8
-10
-9
-8
-1
-7
-6
-13
-7
-1
-9
-8
-3
-1
-5
0
0
-3
2
0
1
9
9
6
11
12
13
10
13
22
17
15
31
26
25
31
26
28
32
36
31
30
42
41
35
39
40
39
37
37
33
38
37
43
32
35
31
30
30
24
20
21
19
14
14
14
15
5
12
3
1
4
8
5
0
3
-2
-5
-5
-3
-6
-11
-1
1
-3
-9
-4
-9
-4
-5
-6
-3
-7
-7
-6
-10
-8
-10
-8
-9
-8
0
-3
-8
-6
-6
-14
-7
-8
-7
-9
-3
-5
-8
-8
-11
-8
-7
-10
-4
-10
-10
-1
-5
-9
-6
-10
-13
-8
-7
-7
-9
-6
-9
-8
-10
-5
-10
-11
-13
-5
-8
-7
-9
-10
-4
-9
-12
-10
-6
-10
-9
-5
-4
-6
-11
-8
-14
-7
-12
-11
-6
-6
-8
-3
-13
-16
-9
-9
-8
-7
-6
-11
-9
-6
-14
-21
-11
-9
-9
-8
-8
-10
-14
-6
-9
-9
-12
-12
-16
-16
-6
-5
-7
-2
-10
-7
-8
-6
-8
-8
-3
2
-3
-2
4
1
0
6
-1
-3
6
4
0
1
-2
-2
-4
-7
-13
-13
-15
-16
-14
-11
-13
-16
-13
-10
-13
-13
-15
-10
-15
-18
-16
-21
-17
-15
-16
-15
-11
-15
-18
-20
-10
-16
-14
-12
-12
-17
-17
-25
-32
-35
-40
-31
-17
-3
12
35
72
104
130
140
147
123
101
85
80
49
23
-27
-61
-66
-63
-48
-37
-31
-11
-18
-18
-21
-20
-27
-23
-21
-26
-19
-19
-15
-22
-28
-22
-18
-29
-24
-18
-18
-18
-18
-21
-18
-18
-18
-20
-20
-20
-27
-18
-18
-19
-18
-20
-18
-19
-20
-18
-24
-16
-22
-11
-16
-13
-12
-23
-17
-20
-20
-12
-17
-15
-17
-16
-11
-14
-12
-14
-12
-12
-11
-13
-15
-10
-11
-12
-12
-14
-13
-9
-6
-4
-4
0
-5
-2
0
-1
2
4
6
3
3
15
10
10
15
18
13
17
29
27
26
25
30
28
25
29
29
26
31
31
30
33
27
27
28
26
27
24
26
18
15
15
13
10
7
5
-4
2
3
3
3
0
-3
-5
-3
-6
-10
-11
-10
-7
-11
-12
-13
-8
-13
-8
-18
-11
-8
-13
-15
-11
-17
-16
-13
-12
-12
-10
-15
-12
-18
-18
-22
-17
-9
-12
-16
-8
-11
-15
-16
-11
-16
-15
-17
-15
-17
-14
-15
-15
-16
-17
-23
-20
-17
-13
-10
-12
-13
-12
-13
-11
-17
-14
-10
-15
-12
-15
-10
-15
-14
-14
-19
-14
-11
-17
-16
-15
-8
-16
-9
-14
-15
-13
-16
-16
-16
-15
-15
-20
-18
-15
-21
-16
-10
-16
-15
-12
-13
-12
-17
-14
-17
-14
-13
-21
-14
-16
-15
-19
-15
-18
-20
-24
-16
-14
-14
-15
-16
-16
-14
-13
-24
-17
-15
-16
-12
-13
-17
-13
-13
-14
-10
-13
-15
-15
-9
-3
-8
-8
-6
1
-3
-1
-5
-5
0
-3
-4
-11
-6
-8
-19
-11
-11
-16
-11
-19
-19
-18
-18
-19
-23
-26
-23
-15
-13
-16
-21
-19
-21
-21
-20
-20
-19
-20
-16
-22
-16
-19
-22
-24
-22
-19
-23
-25
-24
-36
-41
-49
-38
-29
-23
-2
7
42
77
104
130
141
147
123
101
77
64
42
11
-27
-72
-68
-55
-41
-34
-24
-22
-21
-22
-22
-28
-19
-30
-30
-28
-24
-31
-22
-27
-24
-25
-31
-26
-24
-30
-27
-24
-27
-21
-27
-23
-23
-23
-33
-27
-21
-28
-27
-24
-19
-23
-21
-31
-23
-21
-19
-20
-18
-24
-23
-24
-20
-19
-28
-20
-19
-20
-20
-19
-20
-21
-23
-18
-20
-13
-20
-15
-19
-15
-17
-18
-15
-15
-12
-13
-11
-14
-12
-8
-8
-8
-6
-10
-3
1
2
-5
0
6
6
4
8
11
8
11
12
17
16
20
20
16
25
26
26
30
24
25
30
31
21
26
27
21
26
22
16
19
16
18
10
15
10
5
3
3
1
-4
-4
-7
-5
-7
-14
-12
-10
-12
-10
-16
-10
-10
-17
-15
-14
-18
-22
-15
-13
-16
-14
-19
-16
-18
-13
-24
-16
-17
-24
-17
-18
-20
-16
-20
-18
-19
-17
-15
-19
-17
-15
-20
-19
-17
-23
-15
-19
-17
-21
-17
-20
-22
-14
-17
-19
-16
-17
-17
-20
-17
-12
-20
-19
-12
-19
-13
-16
-20
-16
-17
-17
-22
-17
-16
-26
-20
-13
-16
-13
-17
-18
-17
-21
-17
-18
-19
-13
-18
-18
-15
-16
-18
-18
-22
-17
-19
-23
-18
-15
-19
-21
-22
-14
-19
-23
-20
-14
-17
-19
-18
-20
-15
-13
-26
-22
-16
-15
-20
-17
-18
-22
-15
-17
-18
-23
-12
-15
-18
-16
-15
-16
-7
-13
-14
-17
-15
-15
-15
-8
-6
-11
2
-2
-7
-4
-6
-9
-10
-5
-2
-6
-9
-8
-15
-22
-19
-19
-20
-22
-20
-18
-14
-17
-20
-19
-21
-23
-23
-24
-22
-22
-24
-18
-19
-15
-23
-22
-21
-19
-23
-22
-17
-21
-24
-23
-23
-29
-28
-31
-34
-40
-39
-34
-23
-4
7
41
80
114
125
141
131
106
77
81
61
31
-5
-48
-72
-75
-64
-47
-38
-30
-22
-33
-21
-27
-30
-28
-23
-29
-35
-24
-28
-36
-24
-27
-33
-24
-22
-30
-26
-25
-25
-29
-27
-24
-24
-24
-28
-28
-27
-24
-29
-29
-27
-25
-27
-27
-19
-17
-24
-21
-21
-27
-23
-22
-21
-18
-21
-19
-21
-20
-23
-22
-22
-21
-23
-16
-18
-21
-19
-18
-19
-16
-16
-19
-18
-10
-14
-13
-12
-13
-14
-13
-6
-11
-8
-6
-2
-1
-9
1
-6
-4
4
2
4
7
16
11
14
15
17
16
13
16
21
22
29
29
33
23
21
26
23
27
24
27
21
24
23
18
13
17
15
11
9
11
6
3
6
3
-6
-1
-6
-10
-10
-7
-11
-12
-9
-14
-16
-13
-16
-13
-15
-18
-18
-18
-16
-20
-22
-19
-18
-20
-12
-15
-21
-20
-18
-20
-25
-18
-15
-20
-20
-20
-24
-19
-19
-26
-18
-17
-18
-21
-19
-16
-22
-20
-20
-18
-19
-17
-16
-19
-17
-15
-22
-19
-20
-25
-17
-20
-16
-18
-17
-15
-21
-14
-16
-20
-18
-19
-17
-19
-12
-16
-24
-19
-18
-20
-20
-18
-22
-18
-18
-22
-14
-19
-21
-21
-20
-17
-17
-17
-16
-18
-19
-23
-17
-22
-20
-19
-20
-19
-19
-17
-21
-19
-18
-22
-16
-15
-19
-18
-18
-17
-16
-17
-16
-18
-11
-11
-18
-16
-19
-7
-10
-4
-11
-12
-8
-4
-10
-6
-9
-10
-7
-4
-11
-10
-16
-18
-17
-19
-18
-22
-23
-18
-20
-23
-23
-25
-23
-22
-21
-22
-25
-28
-26
-22
-17
-21
-24
-24
-21
-25
-24
-32
-24
-23
-24
-21
-26
-20
-25
-34
-35
-33
-37
-43
-34
-26
-16
-1
21
50
84
113
122
123
99
79
68
60
38
-3
-47
-79
-90
-80
-63
-47
-40
-33
-29
-27
-25
-32
-32
-32
-30
-28
-30
-30
-27
-32
-26
-31
-33
-33
-33
-32
-32
-29
-27
-28
-28
-28
-28
-25
-31
-28
-29
-25
-26
-25
-27
-25
-28
-30
-26
-29
-26
-24
-27
-24
-26
-22
-29
-25
-24
-23
-23
-26
-23
-21
-23
-22
-24
-24
-18
-21
-23
-15
-18
-16
-18
-22
-17
-16
-16
-17
-12
-12
-14
-13
-10
-12
-12
-10
-3
0
3
2
3
-1
2
6
8
14
9
14
12
19
18
19
19
20
21
24
25
21
26
26
27
22
25
22
21
26
18
18
14
11
10
4
10
11
4
3
7
-1
4
-4
-11
-9
-7
-12
-15
-13
-15
-12
-14
-13
-20
-18
-17
-20
-22
-20
-18
-19
-15
-16
-20
-22
-19
-24
-27
-21
-19
-24
-24
-16
-24
-23
-28
-30
-18
-19
-20
-20
-16
-20
-18
-20
-18
-25
-21
-20
-20
-22
-15
-19
-22
-22
-22
-19
-21
-24
-21
-27
-22
-22
-25
-17
-15
-18
-22
-20
-20
-19
-21
-20
-23
-18
-21
-21
-20
-20
-23
-25
-20
-22
-19
-19
-23
-24
-28
-27
-24
-20
-23
-25
-20
-19
-24
-20
-23
-17
-23
-23
-19
-27
-30
-23
-30
-26
-18
-21
-22
-23
-23
-26
-27
-22
-22
-27
-19
-18
-22
-25
-21
-23
-21
-14
-19
-23
-18
-19
-20
-14
-11
-15
-15
-10
-18
-15
-10
-5
-10
-8
-10
-8
-12
-15
-16
-19
-19
-23
-23
-19
-20
-28
-23
-23
-26
-25
-25
-21
-25
-19
-23
-28
-31
-29
-32
-26
-19
-23
-25
-25
-22
-26
-27
-27
-27
-26
-28
-31
-30
-30
-39
-39
-45
-47
-38
-33
-13
7
28
66
93
120
136
140
118
93
77
67
40
12
-29
-69
-78
-63
-44
-46
-33
-30
-29
-18
-25
-30
-29
-30
-31
-35
-32
-35
-30
-30
-27
-33
-30
-33
-33
-27
-30
-29
-29
-31
-28
-27
-25
-34
-29
-30
-27
-32
-31
-28
-30
-30
-28
-25
-31
-27
-30
-29
-28
-23
-25
-30
-28
-27
-29
-23
-28
-27
-20
-23
-23
-22
-28
-28
-26
-22
-25
-23
-19
-18
-22
-21
-19
-20
-17
-18
-15
-23
-13
-17
-17
-11
-13
-12
-11
-6
-5
-6
-7
-2
-2
4
3
3
-2
6
9
14
17
20
15
16
17
16
14
16
19
27
24
17
18
23
23
14
22
19
16
18
13
13
2
2
6
-3
-4
-6
-3
-8
-3
-6
-10
-11
-12
-18
-24
-20
-15
-15
-17
-18
-21
-18
-19
-23
-25
-19
-22
-19
-26
-23
-19
-18
-16
-20
-16
-16
-14
-21
-16
-14
-21
-19
-11
-17
-21
-20
-19
-20
-15
-18
-18
-20
-19
-22
-24
-15
-20
-16
-15
-17
-18
-19
-22
-18
-24
-20
-22
-14
-17
-18
-21
-22
-25
-18
-16
-14
-16
-18
-12
-15
-17
-14
-21
-23
-22
-14
-21
-17
-13
-20
-22
-17
-18
-22
-22
-16
-19
-22
-15
-25
-20
-17
-21
-26
-17
-23
-22
-17
-16
-26
-15
-16
-21
-25
-21
-19
-17
-15
-18
-23
-23
-23
-20
-23
-16
-14
-17
-13
-13
-18
-19
-12
-21
-16
-10
-10
-5
-7
-6
-6
-2
-7
-7
-12
-6
-8
-8
-1
-5
-15
-18
-18
-22
-21
-22
-22
-21
-17
-18
-24
-23
-14
-21
-28
-22
-25
-20
-24
-23
-26
-27
-26
-22
-23
-23
-21
-25
-17
-19
-22
-21
-25
-30
-25
-26
-35
-39
-41
-41
-38
-21
-8
5
34
75
104
128
142
144
119
100
81
63
43
11
-34
-71
-71
-52
-47
-34
-34
-28
-16
-27
-28
-23
-28
-27
-26
-32
-31
-33
-28
-27
-30
-33
-31
-23
-31
-25
-29
-26
-22
-27
-25
-27
-22
-30
-36
-24
-28
-27
-23
-26
-27
-31
-25
-29
-25
-25
-26
-27
-22
-26
-28
-24
-23
-25
-24
-27
-29
-23
-20
-19
-22
-21
-19
-27
-21
-21
-21
-22
-14
-15
-23
-21
-16
-19
-16
-16
-20
-18
-17
-16
-12
-4
-4
-9
-5
-7
-2
-2
-2
-2
3
8
6
6
6
11
9
14
15
16
16
20
22
21
21
27
19
20
21
25
24
30
18
23
19
16
13
15
16
6
9
12
2
3
5
-3
-4
-5
-8
-11
-10
-7
-11
-16
-16
-12
-20
-14
-13
-18
-18
-16
-16
-15
-17
-25
-23
-19
-14
-22
-24
-23
-16
-19
-16
-23
-23
-17
-15
-22
-27
-19
-18
-22
-19
-19
-23
-17
-14
-17
-14
-18
-15
-18
-17
-20
-18
-18
-19
-22
-18
-16
-20
-26
-19
-23
-32
-14
-16
-21
-16
-18
-25
-25
-20
-20
-19
-15
-18
-21
-17
-17
-20
-17
-19
-22
-29
-25
-16
-20
-12
-15
-19
-18
-20
-19
-20
-23
-24
-20
-21
-19
-19
-17
-19
-23
-23
-17
-22
-24
-18
-16
-20
-21
-22
-25
-17
-20
-27
-22
-14
-14
-16
-17
-15
-20
-19
-18
-11
-16
-15
-13
-11
-11
-8
-7
-11
-6
-11
-11
0
-4
-8
-13
-14
-8
-15
-20
-22
-18
-17
-21
-25
-18
-25
-29
-23
-20
-25
-23
-19
-20
-25
-22
-27
-28
-23
-18
-23
-24
-19
-23
-29
-22
-25
-29
-24
-26
-28
-26
-26
-32
-35
-23
-35
-41
-39
-29
-28
-9
6
31
64
95
114
122
120
94
73
71
53
32
-8
-48
-81
-81
-77
-68
-50
-30
-32
-28
-27
-26
-31
-34
-28
-29
-30
-25
-29
-30
-34
-31
-31
-27
-30
-30
-28
-27
-24
-34
-25
-28
-33
-32
-26
-26
-29
-24
-25
-30
-29
-25
-31
-33
-23
-26
-26
-17
-19
-25
-28
-26
-24
-26
-25
-24
-23
-25
-18
-27
-28
-20
-23
-22
-17
-20
-21
-17
-18
-15
-18
-16
-19
-19
-17
-20
-17
-11
-15
-10
-8
-9
-9
-9
-2
-6
-4
-1
2
5
6
0
0
-2
6
12
13
19
11
16
21
17
23
22
21
23
24
28
23
23
28
22
18
20
26
19
19
18
20
17
14
9
7
8
4
-1
1
1
-1
-9
-7
-9
-12
-17
-10
-16
-11
-8
-6
-12
-18
-14
-18
-15
-17
-16
-19
-15
-19
-19
-18
-17
-26
-18
-14
-20
-18
-19
-27
-18
-14
-20
-23
-17
-17
-19
-20
-20
-19
-19
-19
-22
-26
-15
-19
-21
-19
-18
-16
-17
-15
-20
-22
-23
-23
-20
-13
-15
-17
-18
-19
-24
-26
-16
-16
-20
-18
-15
-17
-16
-20
-20
-18
-17
-20
-19
-13
-18
-25
-22
-17
-18
-19
-20
-19
-16
-20
-25
-18
-19
-18
-25
-24
-24
-15
-14
-23
-22
-19
-21
-16
-18
-20
-13
-16
-13
-16
-15
-17
-11
-13
-14
-13
-10
-10
-10
-8
-9
-10
-4
-5
-11
-9
-8
-6
-13
-16
-14
-23
-25
-21
-14
-27
-29
-21
-22
-17
-24
-28
-24
-26
-25
-25
-28
-24
-25
-24
-29
-25
-31
-29
-25
-20
-24
-27
-23
-24
-26
-25
-22
-28
-32
-28
-36
-45
-42
-34
-33
-19
4
24
53
91
117
131
127
108
83
73
58
29
-6
-47
-79
-83
-75
-54
-46
-37
-34
-26
-32
-29
-28
-24
-29
-27
-35
-33
-32
-35
-37
-34
-36
-33
-27
-26
-34
-36
-31
-34
-33
-32
-28
-27
-28
-26
-28
-30
-26
-32
-34
-27
-29
-29
-27
-23
-23
-23
-29
-28
-31
-24
-25
-25
-24
-28
-25
-25
-21
-29
-23
-24
-25
-24
-21
-21
-24
-23
-18
-27
-21
-19
-18
-22
-15
-20
-16
-13
-16
-15
-14
-15
-8
-11
-8
-6
-8
-6
-4
-1
-1
6
4
3
9
6
5
12
7
10
15
19
19
17
22
20
18
15
15
15
13
16
24
21
21
14
14
13
11
4
6
1
3
0
-2
-7
-6
-13
-8
-13
-10
-6
-13
-15
-16
-16
-19
-25
-25
-22
-24
-18
-19
-20
-23
-24
-23
-20
-22
-26
-23
-22
-18
-16
-25
-26
-23
-23
-25
-31
-19
-23
-22
-18
-22
-23
-24
-24
-25
-27
-24
-20
-25
-17
-24
-24
-27
-23
-28
-25
-24
-24
-30
-29
-20
-19
-21
-25
-26
-26
-22
-17
-18
-20
-17
-20
-19
-26
-19
-19
-26
-23
-25
-19
-23
-23
-25
-27
-15
-19
-23
-24
-22
-19
-21
-27
-29
-25
-18
-21
-24
-25
-18
-19
-15
-24
-18
-19
-24
-24
-20
-28
-25
-11
-20
-24
-17
-15
-24
-17
-20
-19
-21
-16
-16
-15
-11
-10
-17
-11
-6
-16
-7
-1
-16
-11
-11
-12
-17
-9
-17
-21
-22
-20
-25
-29
-23
-22
-25
-28
-25
-23
-27
-29
-24
-30
-25
-27
-27
-28
-28
-26
-27
-24
-30
-28
-26
-24
-28
-28
-27
-29
-20
-24
-30
-34
-48
-51
-47
-40
-31
-13
4
28
60
89
114
129
134
123
99
77
71
44
17
-28
-61
-76
-65
-51
-40
-34
-25
-25
-29
-31
-26
-39
-33
-33
-31
-28
-31
-31
-32
-30
-32
-33
-34
-38
-32
-35
-31
-30
-28
-29
-35
-34
-34
-24
-23
-24
-26
-28
-31
-30
-27
-27
-25
-26
-31
-34
-33
-26
-32
-27
-27
-32
-31
-27
-26
-19
-31
-28
-29
-26
-28
-25
-21
-24
-27
-25
-29
-30
-29
-25
-20
-21
-17
-16
-21
-17
-15
-17
-24
-20
-14
-12
-8
-8
-12
-6
-4
-10
-5
-4
-3
0
4
9
3
11
11
6
7
18
9
14
18
19
18
19
20
22
22
9
13
20
19
18
14
11
11
8
9
3
-3
-1
-4
0
0
1
-5
-13
-15
-20
-19
-14
-17
-21
-25
-17
-17
-26
-24
-19
-19
-22
-24
-20
-32
-15
-19
-25
-30
-21
-18
-26
-25
-29
-19
-22
-28
-29
-27
-28
-27
-22
-25
-26
-26
-26
-24
-29
-27
-29
-28
-28
-24
-24
-22
-21
-28
-27
-26
-27
-31
-27
-28
-31
-33
-37
-34
-21
-20
-23
-28
-24
-28
-28
-30
-26
-23
-24
-24
-26
-28
-26
-27
-33
-26
-27
-28
-30
-26
-31
-34
-28
-27
-30
-30
-24
-23
-23
-30
-29
-36
-29
-34
-29
-22
-31
-39
-40
-32
-32
-26
-24
-29
-26
-31
-35
-34
-26
-32
-29
-27
-26
-23
-25
-23
-22
-24
-17
-21
-19
-15
-22
-18
-17
-14
-11
-16
-11
-20
-17
-14
-22
-28
-36
-36
-33
-36
-36
-32
-31
-32
-28
-38
-31
-31
-31
-36
-38
-38
-32
-37
-37
-34
-35
-37
-39
-38
-35
-32
-35
-38
-41
-37
-32
-40
-38
-34
-32
-40
-49
-55
-56
-47
-36
-20
8
24
60
90
112
123
130
101
71
56
42
22
-16
-52
-87
-71
-60
-51
-42
-41
-43
-39
-35
-40
-39
-44
-45
-44
-47
-41
-47
-43
-43
-50
-46
-40
-38
-39
-35
-33
-43
-43
-41
-52
-47
-41
-37
-41
-38
-37
-44
-46
-38
-32
-38
-34
-39
-41
-43
-41
-38
-41
-35
-32
-41
-38
-41
-39
-41
-35
-28
-33
-36
-42
-36
-37
-38
-38
-35
-37
-35
-35
-35
-37
-32
-33
-35
-34
-30
-27
-31
-28
-20
-29
-26
-20
-17
-13
-20
-16
-13
-6
-15
-13
-11
-8
-5
-7
-4
0
-4
-1
-3
5
10
7
4
3
13
13
9
8
2
0
-2
1
8
10
6
-3
1
3
-2
-1
-5
-10
-16
-17
-18
-18
-21
-20
-24
-16
-21
-20
-23
-24
-24
-27
-33
-35
-25
-27
-28
-28
-24
-22
-19
-22
-39
-29
-31
-33
-28
-31
-32
-31
-26
-29
-30
-28
-23
-29
-30
-30
-24
-22
-22
-24
-30
-27
-29
-28
-30
-28
-22
-23
-29
-25
-32
-23
-34
-32
-25
-23
-25
-26
-25
-26
-28
-32
-27
-26
-19
-14
-16
-20
-24
-32
-26
-26
-28
-25
-17
-13
-12
-18
-21
-18
-18
-28
-24
-22
-20
-21
-21
-24
-19
-19
-19
-27
-26
-26
-19
-23
-25
-24
-23
-25
-24
-26
-16
-27
-31
-27
-23
-19
-15
-29
-27
-21
-27
-30
-20
-16
-15
-21
-19
-29
-31
-27
-17
-18
-27
-27
-27
-22
-25
-20
-18
-15
-21
-13
-16
-19
-11
-12
-7
-12
-18
-15
-16
-18
-12
-21
-20
-23
-29
-31
-30
-24
-26
-32
-30
-28
-26
-32
-29
-29
-26
-27
-33
-42
-36
-36
-23
-27
-29
-26
-32
-33
-41
-35
-33
-41
-30
-29
-27
-34
-29
-37
-41
-45
-51
-46
-32
-8
-4
20
44
81
105
119
133
121
97
58
45
29
6
-33
-70
-86
-62
-50
-47
-37
-37
-37
-28
-19
-39
-37
-37
-38
-39
-37
-37
-39
-34
-38
-39
-36
-39
-37
-32
-35
-36
-38
-38
-30
-35
-33
-36
-32
-32
-35
-32
-37
-32
-40
-36
-34
-32
-23
-28
-34
-31
-31
-29
-29
-28
-25
-32
-30
-31
-27
-29
-29
-32
-33
-32
-24
-33
-30
-20
-27
-30
-28
-22
-23
-28
-24
-20
-22
-22
-21
-20
-19
-21
-23
-20
-17
-17
-13
-10
-7
-10
-7
-7
-6
0
1
2
-2
3
9
4
15
14
7
15
20
18
8
10
13
13
9
17
21
15
8
7
13
10
7
12
5
4
-11
7
-1
-11
1
-7
-12
-10
-12
-18
-19
-17
-22
-21
-23
-13
-20
-20
-21
-28
-28
-27
-28
-18
-24
-20
-24
-20
-14
-20
-31
-18
-31
-23
-24
-32
-34
-28
-22
-29
-26
-32
-20
-24
-23
-23
-24
-22
-32
-31
-29
-27
-23
-26
-26
-29
-25
-28
-26
-24
-28
-19
-22
-17
-21
-16
-24
-29
-28
-23
-24
-24
-21
-27
-21
-19
-16
-22
-31
-29
-23
-27
-28
-21
-22
-20
-33
-19
-24
-27
-26
-26
-32
-26
-20
-30
-33
-25
-24
-30
-29
-30
-24
-25
-24
-24
-23
-29
-28
-25
-30
-24
-28
-27
-24
-25
-31
-29
-26
-19
-29
-27
-23
-22
-25
-21
-31
-29
-29
-24
-31
-27
-31
-26
-23
-25
-20
-19
-23
-20
-17
-21
-28
-19
-24
-23
-21
-14
-21
-17
-13
-8
-14
-12
-10
-15
-17
-18
-20
-24
-20
-27
-26
-31
-21
-31
-30
-25
-23
-28
-25
-29
-28
-26
-30
-31
-33
-29
-29
-36
-27
-34
-26
-30
-28
-29
-30
-29
-34
-34
-26
-24
-29
-32
-33
-35
-41
-49
-45
-39
-25
-14
-3
21
52
83
106
129
136
124
92
55
48
31
0
-33
-81
-82
-64
-53
-39
-34
-28
-34
-37
-28
-29
-38
-29
-32
-33
-36
-35
-27
-27
-34
-32
-29
-36
-31
-30
-33
-37
-28
-30
-25
-29
-28
-32
-38
-37
-28
-25
-29
-29
-33
-31
-30
-35
-28
-26
-26
-25
-24
-26
-27
-27
-29
-33
-28
-30
-26
-26
-25
-23
-26
-19
-24
-31
-25
-21
-26
-21
-14
-29
-22
-21
-16
-24
-18
-21
-23
-20
-16
-11
-12
-10
-10
-12
-7
-7
-12
1
-4
-7
1
0
5
11
0
13
11
15
10
9
7
17
14
18
23
18
18
21
19
19
20
21
13
16
21
17
14
13
12
7
8
1
1
-3
-3
-8
-4
-10
-7
-16
-14
-4
-5
-19
-21
-17
-10
-11
-23
-22
-16
-19
-22
-25
-13
-17
-22
-19
-18
-18
-19
-19
-23
-34
-30
-21
-7
-14
-11
-20
-9
-21
-27
-20
-16
-18
-14
-11
-18
-19
-15
-19
-22
-21
-18
-20
-19
-19
-18
-18
-17
-21
-19
-22
-18
-20
-17
-15
-13
-18
-21
-14
-20
-23
-19
-22
-18
-18
-19
-17
-20
-14
-20
-25
-19
-21
-21
-18
-21
-28
-16
-7
-11
-18
-17
-23
-22
-18
-17
-21
-22
-24
-20
-25
-20
-20
-14
-21
-17
-20
-25
-14
-12
-18
-19
-19
-19
-20
-19
-14
-17
-20
-21
-14
-17
-24
-21
-20
-19
-23
-18
-21
-20
-17
-15
-20
-17
-18
-23
-9
-15
-9
-14
-6
-10
-11
-8
-2
-7
-9
-9
-6
-5
-7
-9
-11
-4
-7
-20
-26
-20
-18
-24
-19
-19
-17
-20
-21
-23
-26
-20
-24
-29
-19
-25
-25
-17
-20
-23
-23
-23
-25
-29
-27
-21
-25
-21
-19
-23
-26
-22
-35
-31
-33
-35
-40
-34
-31
-20
4
23
51
85
115
136
145
130
111
86
69
43
5
-30
-68
-85
-82
-57
-39
-38
-33
-21
-25
-29
-28
-27
-26
-22
-24
-28
-28
-30
-33
-28
-24
-26
-34
-26
-22
-25
-21
-30
-26
-21
-25
-28
-30
-27
-31
-25
-23
-20
-25
-23
-25
-22
-21
-22
-23
-26
-20
-23
-23
-20
-23
-24
-22
-13
-24
-28
-19
-20
-25
-25
-16
-22
-20
-16
-20
-16
-10
-14
-9
-21
-15
-21
-15
-12
-17
-15
-11
-8
-7
-9
-8
-10
-4
-1
-7
2
-2
12
8
10
5
6
17
14
16
12
11
11
22
28
27
27
27
29
27
24
24
21
24
29
25
27
25
23
24
24
19
12
17
18
11
5
14
9
5
1
-2
-6
-6
-6
-13
-8
-5
-9
-19
-11
-9
-20
-18
-18
-19
-23
-14
-24
-20
-18
-22
-20
-14
-23
-18
-21
-14
-18
-17
-15
-20
-22
-22
-23
-24
-17
-14
-25
-23
-15
-13
-21
-20
-20
-25
-14
-18
-12
-20
-20
-18
-21
-18
-16
-22
-18
-20
-15
-22
-18
-21
-24
-22
-15
-17
-21
-15
-21
-20
-23
-20
-26
-19
-15
-20
-22
-19
-21
-21
-19
-24
-29
-22
-21
-14
-20
-19
-27
-21
-26
-20
-24
-22
-22
-20
-19
-18
-25
-23
-23
-22
-27
-16
-20
-26
-24
-25
-24
-26
-23
-25
-20
-19
-16
-18
-18
-16
-21
-15
-20
-17
-23
-15
-15
-16
-14
-13
-19
-9
-7
-9
-10
-1
-3
-6
-8
-4
-7
-11
-12
-15
-22
-24
-22
-22
-21
-22
-26
-22
-24
-28
-27
-26
-28
-24
-21
-27
-27
-31
-23
-26
-29
-27
-26
-29
-29
-29
-22
-28
-28
-23
-23
-24
-29
-31
-29
-32
-37
-43
-50
-37
-31
-19
4
29
70
102
134
144
145
116
93
74
58
30
-12
-53
-86
-88
-74
-60
-49
-38
-29
-30
-33
-26
-28
-30
-25
-32
-34
-32
-32
-29
-28
-37
-33
-25
-31
-34
-31
-25
-37
-30
-24
-29
-26
-28
-31
-26
-36
-32
-31
-27
-27
-28
-27
-25
-30
-30
-29
-31
-33
-25
-21
-25
-21
-23
-26
-26
-23
-27
-26
-24
-20
-23
-21
-19
-23
-24
-19
-21
-21
-18
-11
-15
-20
-20
-14
-16
-12
-12
-15
-12
-13
-11
-5
-5
-9
-8
-6
-1
3
-4
5
1
10
12
2
13
14
13
19
25
20
16
20
23
23
16
19
26
26
27
24
24
26
23
20
19
15
17
10
18
11
5
2
2
5
-3
1
-2
-4
-4
-4
-11
-10
-13
-8
-13
-14
-20
-20
-17
-15
-14
-12
-17
-21
-20
-21
-18
-16
-16
-20
-20
-13
-20
-26
-23
-25
-23
-24
-26
-18
-23
-15
-21
-25
-18
-22
-22
-21
-19
-22
-20
-15
-22
-23
-15
-20
-19
-24
-13
-22
-22
-11
-14
-19
-15
-14
-21
-21
-12
-16
-19
-16
-23
-18
-15
-12
-16
-18
-14
-25
-18
-16
-17
-21
-13
-18
-16
-16
-20
-20
-22
-22
-24
-12
-15
-22
-13
-12
-16
-18
-17
-14
-17
-19
-13
-10
-8
-9
-12
-8
-12
-10
-10
-15
-10
-2
-6
-4
-3
-7
2
3
-2
-8
1
-5
-11
-7
-13
-15
-16
-14
-17
-17
-15
-23
-29
-11
-14
-13
-15
-19
-19
-21
-20
-22
-15
-13
-16
-22
-20
-20
-20
-14
-16
-23
-15
-17
-22
-24
-17
-13
-22
-25
-29
-38
-36
-32
-27
-13
4
24
56
89
118
133
131
101
78
69
55
27
-11
-58
-85
-85
-80
-66
-52
-41
-33
-26
-32
-27
-16
-23
-21
-22
-24
-23
-22
-23
-25
-20
-24
-23
-24
-23
-26
-23
-21
-22
-20
-20
-19
-22
-19
-18
-22
-19
-24
-21
-21
-19
-23
-14
-19
-15
-20
-17
-16
-13
-23
-16
-13
-13
-12
-17
-20
-15
-20
-17
-25
-13
-7
-6
-6
-8
-11
-10
-13
-12
-16
-9
-7
-6
-5
-3
0
-6
-5
1
3
3
2
4
6
7
10
8
10
13
12
13
15
18
25
23
28
24
31
28
31
29
32
32
37
39
30
36
33
23
41
34
32
30
33
29
30
26
23
14
12
19
15
13
12
8
8
7
5
-3
-1
1
1
-3
3
-1
-5
2
-7
-8
-10
-11
-7
-6
-7
-13
-6
-5
-5
-10
-11
-4
-8
-11
-5
-6
-6
-4
-10
-8
-6
-4
-9
-9
-7
-9
-5
-9
-8
-10
-7
-9
-15
-6
0
-6
-8
-8
-6
-7
-4
-4
-5
-5
-8
-14
-9
-5
-5
-2
1
-7
-4
0
-3
-2
-8
-7
-7
-3
-5
-5
-5
-4
-3
-9
-7
-6
-4
-3
-1
-5
-3
-2
-1
-1
-1
4
-4
-1
-4
3
0
3
3
9
6
2
7
10
10
5
11
9
9
6
1
3
-3
-3
-3
-14
-11
-8
-6
-2
-4
-3
-7
-7
-3
-4
-7
-5
-3
-11
-6
-9
-6
-9
-11
-16
-11
-4
0
-3
-3
-6
-6
-8
-6
-9
-9
-11
-21
-26
-31
-29
-25
-5
19
41
68
107
132
154
156
137
118
103
97
66
28
-13
-56
-63
-58
-43
-27
-17
-11
-8
-9
-5
-11
-8
-11
-10
-10
-9
-9
-7
-16
-8
-12
-11
-10
-11
-12
-10
-9
-11
-7
0
-11
-6
-8
-11
-7
-6
-8
-4
-2
-6
-12
-11
-11
-9
-1
0
-3
-6
-2
-1
-5
-3
-3
-1
-2
1
-1
-3
4
0
2
-1
-2
-1
0
1
1
3
5
7
2
5
10
1
5
8
7
14
15
11
10
14
15
10
16
19
17
22
23
28
29
32
28
32
32
40
38
38
44
40
39
47
48
45
40
43
48
47
49
48
41
47
43
42
37
36
32
31
28
30
30
28
28
20
22
19
14
17
20
13
15
12
14
8
12
10
2
9
9
5
6
13
5
7
9
3
7
2
6
8
3
8
6
4
7
10
6
5
5
6
3
9
5
6
5
9
9
8
6
10
6
9
4
13
11
4
8
8
8
7
9
4
7
6
8
7
8
10
12
10
7
10
9
8
6
11
9
14
14
8
13
11
2
9
17
17
10
17
10
13
11
12
14
15
15
15
17
28
27
21
25
28
21
23
23
23
21
20
19
13
12
12
10
8
8
9
9
11
13
8
10
8
8
6
6
6
5
8
6
6
16
9
8
7
10
2
11
3
3
12
4
1
8
8
1
-9
-13
-13
-5
1
17
28
55
87
120
152
168
171
157
132
110
99
73
48
5
-36
-48
-27
-14
-6
5
0
4
10
8
8
8
6
7
4
8
3
-1
2
3
0
0
2
0
3
5
4
5
3
8
4
7
11
3
6
7
8
6
9
11
6
10
6
12
5
11
7
13
4
7
14
12
14
8
12
5
9
13
10
13
13
15
14
13
12
19
9
16
19
15
12
20
15
12
23
23
15
13
24
21
24
26
30
25
31
31
28
27
31
35
44
43
41
42
50
46
42
41
49
53
48
57
54
55
58
57
48
53
55
54
50
55
50
47
53
40
43
44
37
37
33
35
36
28
32
29
22
26
26
28
23
23
21
23
15
19
13
17
17
16
16
19
12
15
12
9
14
17
18
12
13
11
15
13
21
14
5
9
20
15
17
16
16
17
14
16
7
12
16
12
19
19
15
8
6
12
17
18
20
17
16
14
16
16
16
18
9
16
14
17
24
18
11
16
12
14
13
12
13
17
11
21
10
18
16
20
17
17
21
24
22
19
22
21
24
21
21
21
27
26
30
30
28
28
27
26
30
25
25
23
28
23
25
14
10
7
7
13
9
10
15
16
13
12
15
4
5
9
11
10
8
14
13
10
7
12
14
13
13
9
12
10
8
12
10
11
3
4
-5
-7
-8
-4
6
22
33
56
91
124
150
165
174
166
133
100
89
63
43
0
-37
-45
-35
-17
-7
4
5
4
4
6
2
6
9
-2
-1
6
8
4
8
3
7
7
2
-2
0
1
-1
4
7
14
10
3
9
4
4
9
7
2
5
3
1
7
10
5
5
4
1
4
10
6
7
9
10
3
9
8
14
13
10
7
8
11
15
11
12
13
3
3
9
11
3
17
18
18
23
16
17
15
14
20
19
25
25
25
28
31
27
29
32
39
38
41
43
36
45
44
43
42
45
48
48
53
53
56
54
55
53
52
49
51
48
49
52
46
45
42
39
40
36
34
30
26
31
28
32
25
24
17
27
16
21
22
19
22
19
16
14
9
11
15
11
18
13
12
14
23
15
20
17
17
17
19
21
26
14
9
17
14
14
17
14
16
13
20
15
13
10
21
15
20
16
17
10
12
12
14
14
20
17
14
16
16
12
14
21
18
12
15
16
17
13
15
15
13
7
16
11
19
25
17
20
19
21
16
16
17
19
21
16
15
20
23
21
26
24
20
13
27
26
25
23
27
28
29
30
33
25
32
28
25
31
36
28
31
24
17
18
19
16
13
14
13
19
21
16
10
16
12
13
18
11
13
9
18
18
15
12
11
15
11
17
10
9
11
12
16
19
18
13
6
9
4
5
-2
-9
-3
5
20
27
47
78
110
141
159
172
154
139
119
103
81
56
9
-30
-47
-48
-40
-22
-4
3
8
10
9
3
12
10
5
7
8
8
10
4
8
10
5
4
3
10
8
5
8
12
4
4
5
2
4
12
11
6
11
14
7
4
6
11
8
11
11
10
10
13
18
16
9
10
5
11
11
9
17
15
9
21
13
10
15
13
14
15
19
16
15
20
19
14
15
19
20
19
23
30
23
24
25
28
30
34
27
31
35
37
37
39
40
40
45
48
49
46
51
48
53
56
49
50
51
49
47
58
56
60
53
49
44
45
54
55
47
48
45
41
33
31
35
35
27
28
27
35
26
24
24
16
18
23
17
22
17
14
17
17
11
18
14
13
16
17
13
15
13
13
13
16
13
10
9
11
14
21
15
9
6
7
8
8
12
15
12
17
19
14
11
10
13
12
15
15
14
12
15
14
10
16
11
15
15
14
12
13
15
12
12
14
10
16
13
19
18
16
19
12
6
13
11
14
20
12
19
19
18
15
19
19
13
18
22
18
15
16
21
20
23
23
21
23
20
31
27
27
31
19
27
22
14
15
19
13
12
18
9
5
9
7
9
9
7
7
9
6
4
0
10
14
15
12
7
5
4
7
6
3
9
12
6
9
8
11
9
5
3
-4
-3
-10
-20
-16
7
11
26
49
83
111
141
156
162
148
130
103
98
77
42
-2
-39
-52
-50
-35
-18
-8
0
5
6
2
0
-7
-2
2
0
-3
-2
2
-2
-1
0
3
3
6
-3
-8
-2
0
7
4
6
8
1
0
-2
3
3
3
0
-4
-10
-12
-4
11
5
7
8
6
-1
1
7
-1
4
3
6
5
5
8
10
8
5
1
2
7
6
8
8
4
3
7
6
7
8
14
9
10
17
10
13
14
17
11
15
14
21
24
27
25
25
34
30
36
27
34
34
44
45
37
37
47
41
43
45
41
41
41
40
44
47
50
44
38
44
43
34
35
32
32
27
29
27
23
24
22
18
18
14
17
10
11
8
14
9
12
3
5
9
6
3
3
6
6
6
2
2
4
4
5
8
2
4
2
8
-3
1
6
2
-2
3
1
2
1
-3
0
-2
0
2
-3
-3
8
-1
2
2
11
6
1
-2
0
-1
0
0
3
8
6
1
2
10
4
-2
5
-2
-2
3
7
4
8
7
0
-2
0
-2
-2
2
3
1
2
8
3
4
1
-7
-4
7
-1
11
10
7
6
8
6
4
6
7
8
8
15
12
8
7
17
24
17
12
3
14
12
13
1
2
3
-1
0
2
-8
-3
-1
-1
-5
-2
-2
-3
-5
-3
-5
-2
-6
-4
-1
-5
-9
-4
0
-1
-6
-7
-1
-6
-8
-8
-2
-9
-5
-12
-6
-9
-10
-29
-25
-18
-6
1
23
52
86
114
142
155
163
145
116
93
82
55
19
-13
-42
-58
-43
-29
-20
-10
-5
-9
-12
-6
-11
-16
-7
-8
-12
-14
-17
-19
-15
-9
-7
-9
-17
-12
-15
-10
-6
-12
-16
-12
-10
-13
-10
-8
-7
-10
-8
-8
-6
-9
-6
-13
-8
-8
-10
-15
-8
-9
-9
-1
-6
-6
-9
-8
-7
-5
-6
-6
-9
-6
-7
-12
-11
-1
-4
-12
1
-5
-4
-4
-1
0
0
-1
0
-3
4
0
0
6
6
10
8
11
6
3
12
16
17
24
13
19
25
21
23
24
29
29
35
37
35
27
35
36
32
31
36
38
35
40
29
26
31
24
25
30
23
24
25
21
20
15
11
8
10
4
5
7
4
6
-8
-4
-4
0
-3
-3
-3
-4
-4
1
-1
-6
-3
-11
-9
-9
-2
-4
-2
-4
-6
-6
-9
-7
-5
-7
1
6
-5
-6
-9
-2
-2
-9
-8
-13
-8
-11
-6
-9
-8
-5
-7
-8
-10
-3
-7
-9
-8
-3
-5
-4
-11
-14
-9
-12
-9
-4
-4
-8
-13
-2
-11
-8
-10
-8
-10
-9
-5
-1
-13
-2
-9
-9
-9
-6
-8
-7
-8
-10
-4
-9
-6
-18
-10
-6
-6
-9
-7
-7
-4
-10
-11
-13
-9
-4
-7
-6
-5
-3
-10
-2
-6
-13
-5
-6
-7
-11
-4
1
3
2
-1
2
5
7
1
3
9
5
1
8
3
-4
0
1
-5
-8
-5
-9
-6
-6
-16
-13
-10
-17
-8
-9
-8
-16
-12
-11
-16
-14
-10
-19
-16
-6
-10
-11
-11
-17
-11
-10
-11
-14
-11
-8
-11
-14
-12
-16
-22
-27
-29
-38
-36
-31
-7
6
20
51
77
106
142
151
151
127
109
83
73
38
14
-29
-62
-59
-45
-30
-23
-19
-23
-9
-15
-22
-14
-22
-22
-16
-17
-29
-23
-19
-19
-18
-18
-23
-23
-17
-19
-22
-18
-13
-22
-27
-21
-19
-22
-18
-14
-16
-14
-17
-18
-16
-17
-15
-16
-16
-14
-12
-12
-18
-22
-17
-14
-22
-14
-8
-14
-14
-14
-16
-20
-18
-14
-11
-16
-5
-10
-16
-9
-4
-10
-14
-9
-13
-11
-6
-12
-7
-14
-1
-2
2
-2
-2
0
4
-1
3
6
6
3
9
16
13
16
17
19
13
16
18
26
33
27
27
21
33
27
31
28
27
25
28
28
29
30
22
20
15
17
17
14
13
12
7
6
4
4
3
1
1
-2
5
-3
-9
-9
1
-4
-10
-9
-9
-11
-9
-11
-5
-8
-11
-9
-9
-13
-17
-15
-9
-14
-12
-10
-13
-14
-8
-7
-9
-13
-15
-16
-10
-7
-8
-7
-10
-14
-17
-13
-16
-15
-11
-8
-10
-11
-13
-13
-13
-18
-10
-13
-7
-8
-14
-18
-8
-13
-10
-18
-9
-16
-9
-6
-12
-17
-12
-12
-10
-7
-11
-9
-11
-7
-8
-13
-13
-13
-17
-13
-15
-13
-6
-7
-13
-12
-8
-14
-12
-12
-8
-13
-7
-13
-13
-16
-4
-15
-18
-15
-12
-11
-9
-3
-6
-16
-9
-18
-16
-15
-9
-8
-11
-16
-19
-25
-12
-14
-17
-17
-8
-11
-14
-13
-19
-16
-9
-19
-21
-13
-9
-13
-16
-7
-6
-9
-14
-12
-15
-14
-14
-14
-8
-4
-10
-5
-5
-6
-3
-3
-6
0
3
3
-2
-7
1
-4
-2
7
-3
-6
-3
-6
-13
-15
-13
-16
-16
-15
-17
-15
-14
-12
-21
-19
-15
-20
-20
-15
-19
-17
-12
-15
-16
-15
-21
-18
-16
-16
-13
-16
-14
-23
-20
-13
-11
-18
-20
-23
-33
-37
-37
-16
-11
11
30
59
95
125
138
150
136
111
89
76
54
23
-16
-47
-71
-56
-37
-29
-24
-18
-18
-15
-19
-24
-28
-14
-9
-16
-20
-17
-19
-23
-23
-20
-23
-20
-18
-16
-18
-16
-17
-20
-25
-20
-20
-21
-18
-21
-18
-22
-23
-24
-16
-13
-11
-10
-15
-23
-17
-13
-17
-26
-19
-10
-12
-9
-13
-15
-16
-8
-10
-19
-14
-17
-17
-12
-13
-12
-13
-10
-10
-11
-7
-13
-5
-3
-3
-6
-6
-9
-8
-10
3
-6
-1
3
2
12
8
6
5
6
10
12
15
15
18
17
23
21
22
27
20
26
26
29
30
29
30
29
28
30
29
30
33
31
25
27
26
19
23
17
15
14
11
17
14
8
8
7
1
1
4
-1
-1
-6
-7
-1
-1
-2
-10
-9
-12
-9
-12
-5
-5
-10
-9
-9
-8
-6
-13
-17
-16
-8
-12
-15
-8
-13
-10
-11
-10
-11
-13
-9
-7
-15
-3
-11
-13
-10
-11
-9
-8
-10
-14
-13
-6
-10
-11
-7
-16
-19
-15
-8
-8
-20
-10
-8
-12
-11
-12
-10
-9
-9
-17
-10
-6
-8
-12
-8
-13
-12
-14
-9
-12
-13
-14
-9
-11
-4
-6
-12
-8
-13
-15
-11
-7
-15
-17
-10
-15
-8
-6
-9
-15
-15
-12
-21
-16
-19
-15
-12
-9
-9
-7
-12
-11
-16
-13
-12
-9
-15
-4
-10
-16
-14
-14
-18
-20
-11
-14
-15
-17
-14
-18
-9
-6
-14
-17
-11
-4
-9
-5
-7
-7
-6
-8
-8
-9
-5
-6
-10
-3
1
-1
3
1
1
7
-5
-9
-3
-2
2
5
6
-5
-11
-13
-15
-17
-10
-14
-12
-12
-13
-13
-16
-14
-9
-13
-18
-18
-16
-18
-15
-14
-16
-17
-12
-19
-10
-11
-18
-15
-13
-10
-15
-15
-15
-21
-16
-15
-20
-16
-21
-30
-33
-30
-22
-8
2
23
46
80
104
127
133
123
99
84
75
54
13
-22
-60
-78
-75
-57
-43
-38
-23
-20
-18
-18
-22
-25
-28
-21
-20
-24
-17
-17
-23
-23
-21
-20
-24
-24
-21
-15
-19
-21
-23
-16
-21
-13
-19
-21
-16
-22
-19
-16
-19
-17
-18
-22
-14
-14
-18
-12
-19
-19
-19
-19
-16
-16
-17
-15
-16
-18
-10
-18
-16
-17
-16
-22
-18
-12
-19
-20
-11
-12
-12
-11
-9
-18
-8
-12
-13
-12
-5
-7
-10
-4
-2
-7
-4
-1
-6
4
2
-2
-5
5
9
8
9
11
17
13
23
19
21
22
22
23
27
22
25
23
22
26
23
29
26
20
23
23
19
15
18
14
17
13
10
5
5
9
4
1
1
-6
-1
-9
-6
-8
-14
-6
-10
-11
-12
-17
-19
-19
-14
-19
-14
-18
-20
-13
-15
-19
-21
-23
-22
-18
-18
-18
-14
-20
-16
-26
-21
-12
-18
-13
-13
-19
-15
-19
-17
-22
-10
-20
-14
-22
-29
-16
-17
-14
-14
-21
-19
-17
-20
-18
-21
-21
-16
-15
-14
-19
-12
-19
-18
-20
-20
-17
-20
-16
-10
-18
-18
-15
-18
-20
-22
-18
-21
-19
-16
-19
-13
-19
-21
-19
-19
-15
-22
-20
-17
-18
-18
-14
-18
-13
-18
-24
-26
-24
-18
-19
-15
-24
-22
-21
-21
-23
-14
-15
-21
-24
-23
-20
-25
-22
-21
-13
-22
-30
-22
-22
-23
-22
-22
-21
-22
-23
-19
-19
-23
-19
-24
-24
-22
-17
-22
-19
-18
-19
-22
-19
-17
-18
-20
-18
-19
-13
-13
-9
-15
-18
-20
-12
-17
-10
-9
-7
-12
-6
-5
-8
-11
-3
-13
-15
-12
-7
-18
-22
-24
-25
-26
-23
-26
-22
-20
-25
-22
-25
-29
-28
-25
-25
-21
-20
-21
-20
-22
-23
-27
-25
-33
-31
-22
-23
-22
-25
-19
-21
-24
-29
-29
-44
-52
-47
-35
-27
-8
12
40
72
103
121
136
136
117
82
72
58
32
-4
-48
-74
-77
-57
-52
-35
-32
-27
-25
-27
-27
-29
-25
-29
-27
-29
-25
-36
-23
-22
-28
-30
-29
-23
-29
-31
-27
-28
-31
-25
-29
-28
-28
-25
-31
-27
-23
-26
-27
-25
-36
-33
-24
-24
-20
-21
-21
-27
-26
-23
-25
-30
-28
-21
-22
-23
-22
-23
-26
-22
-22
-24
-18
-16
-27
-23
-26
-25
-19
-24
-22
-22
-15
-21
-22
-16
-17
-18
-15
-17
-14
-11
-9
-6
-9
-5
-4
-8
-4
-5
0
-1
7
12
15
14
16
11
13
20
15
19
20
23
22
22
27
22
24
22
21
16
26
22
21
22
18
12
14
14
3
9
4
5
3
0
-1
-9
-5
-6
-15
-8
-11
-11
-13
-14
-15
-19
-16
-16
-21
-16
-14
-23
-21
-17
-18
-20
-17
-19
-19
-20
-20
-23
-22
-25
-18
-25
-18
-22
-21
-18
-23
-26
-21
-24
-19
-23
-19
-20
-23
-22
-21
-26
-18
-20
-22
-23
-23
-14
-20
-24
-17
-22
-20
-23
-21
-20
-20
-24
-17
-16
-21
-22
-17
-13
-19
-16
-21
-23
-19
-20
-24
-16
-10
-9
-19
-19
-17
-26
-26
-19
-15
-20
-10
-11
-20
-20
-19
-17
-22
-18
-20
-19
-15
-14
-22
-22
-20
-26
-17
-22
-18
-20
-20
-23
-21
-19
-19
-23
-21
-18
-21
-20
-16
-20
-22
-19
-23
-23
-20
-20
-21
-19
-16
-22
-24
-20
-21
-21
-24
-16
-20
-18
-21
-17
-20
-21
-19
-29
-22
-20
-22
-24
-18
-21
-20
-17
-20
-20
-17
-14
-20
-19
-19
-18
-14
-13
-14
-15
-15
-7
-7
-8
-5
-9
-7
-5
-9
-10
-10
-3
-8
-10
-22
-17
-19
-21
-25
-23
-19
-26
-23
-20
-25
-22
-23
-21
-21
-28
-25
-21
-23
-23
-22
-22
-30
-27
-24
-25
-19
-23
-24
-23
-26
-28
-28
-28
-35
-34
-34
-45
-38
-29
-20
-6
20
49
82
113
134
144
144
116
88
69
59
32
-6
-52
-72
-63
-51
-42
-28
-29
-25
-30
-32
-28
-22
-29
-25
-29
-27
-32
-27
-29
-26
-29
-32
-27
-28
-25
-28
-26
-28
-27
-31
-32
-27
-23
-24
-22
-24
-28
-27
-27
-22
-23
-23
-24
-29
-30
-22
-26
-25
-22
-22
-20
-23
-23
-27
-20
-18
-18
-21
-23
-25
-23
-18
-25
-18
-17
-20
-25
-20
-19
-21
-19
-20
-23
-18
-14
-16
-16
-16
-18
-13
-8
-11
-11
-9
-6
-4
-6
-5
-3
-1
-5
10
7
8
13
9
12
17
14
17
16
23
21
24
16
21
22
28
22
26
30
22
20
20
18
20
16
19
17
10
14
5
1
4
5
2
-6
1
-5
-4
-6
-10
-8
-4
-10
-15
-14
-12
-17
-21
-8
-18
-18
-15
-16
-18
-15
-18
-17
-18
-19
-15
-15
-21
-12
-18
-16
-18
-21
-23
-11
-19
-14
-16
-15
-20
-17
-19
-16
-18
-19
-21
-16
-19
-16
-20
-16
-17
-23
-15
-15
-14
-16
-11
-9
-16
-15
-13
-19
-16
-18
-18
-18
-12
-13
-13
-12
-19
-13
-16
-14
-12
-17
-12
-12
-9
-13
-12
-25
-22
-10
-5
-6
-10
-21
-15
-11
-18
-19
-14
-15
-16
-11
-8
-16
-17
-17
-10
-11
-12
-12
-17
-13
-14
-17
-15
-12
-16
-16
-12
-13
-16
-17
-11
-13
-16
-13
-22
-16
-13
-14
-12
-8
-8
-14
-20
-9
-14
-15
-16
-18
-16
