57
63
68
60
55
59
58
64
50
51
54
40
58
41
41
59
62
54
57
53
44
59
66
65
46
57
64
64
61
50
55
62
48
50
46
58
71
70
65
61
58
57
58
60
57
57
51
45
64
47
52
51
50
63
49
62
64
67
59
66
53
64
53
55
61
68
61
51
66
56
64
61
62
73
69
64
52
53
67
64
58
57
54
66
65
55
64
67
57
58
60
48
38
60
49
78
64
51
53
68
87
67
56
58
47
64
69
58
63
64
57
62
39
58
60
69
68
54
51
63
78
56
50
71
69
74
42
54
56
59
49
56
62
63
66
56
47
81
84
55
61
62
71
79
67
68
73
77
66
66
61
74
62
63
73
78
84
75
71
79
81
80
66
83
83
74
74
67
65
60
71
80
81
51
69
73
56
65
68
60
52
48
48
47
60
63
60
60
62
62
57
66
58
67
52
53
66
60
65
59
48
46
60
61
60
55
58
65
57
50
48
58
58
56
65
35
60
67
51
60
67
66
60
62
60
59
51
63
62
47
45
44
45
45
65
82
109
116
142
162
189
224
242
246
257
268
232
195
183
142
123
109
93
71
62
75
58
51
58
63
55
67
72
67
69
70
60
60
68
76
67
50
55
60
67
63
72
74
66
53
53
49
48
44
49
65
69
72
57
59
68
70
69
69
72
63
57
53
46
49
64
66
63
71
79
69
49
49
64
80
63
71
70
74
47
55
72
79
68
68
66
71
87
74
76
79
65
69
71
76
79
73
73
71
72
66
76
97
77
79
88
76
73
72
76
88
76
82
85
93
107
106
96
95
111
110
109
113
114
113
108
125
117
116
114
123
124
115
123
118
117
129
118
118
118
129
115
108
110
109
97
93
97
86
99
81
95
99
101
86
80
81
82
73
86
88
80
76
69
62
72
73
78
71
67
78
72
75
71
74
67
67
57
58
68
74
62
73
68
47
57
70
76
83
84
71
63
63
51
68
66
54
66
72
72
76
66
49
73
76
72
70
66
61
52
68
78
81
71
63
75
76
70
77
76
79
49
58
82
75
79
78
73
59
68
69
71
77
65
61
61
70
76
69
66
69
64
75
78
65
65
79
73
61
61
73
68
82
67
76
75
62
78
79
73
70
84
91
69
61
81
73
56
67
68
63
65
63
54
82
94
74
67
77
85
81
78
66
56
62
64
70
66
75
68
67
93
70
70
76
69
78
79
79
81
75
72
73
56
66
77
56
74
72
71
65
64
68
79
66
69
87
80
70
53
51
64
78
58
76
82
70
75
80
76
68
75
80
66
65
79
88
79
66
66
64
69
70
67
52
64
57
83
85
74
72
66
69
72
65
70
73
78
85
75
71
82
82
74
83
86
76
80
77
78
59
70
60
61
82
91
102
97
91
93
95
79
83
90
87
83
93
85
72
69
86
108
92
60
95
95
82
76
79
85
90
75
70
71
84
78
70
66
37
62
93
85
80
71
73
79
71
58
69
73
73
83
77
77
73
64
50
75
76
72
68
69
71
61
87
80
67
55
75
73
81
73
78
73
76
71
81
74
74
73
88
77
73
77
72
65
56
57
60
78
84
101
94
102
140
161
180
199
230
234
253
250
231
209
178
143
124
111
106
87
74
57
60
65
56
80
81
81
69
78
95
74
84
78
76
84
88
70
80
77
67
69
75
62
51
74
86
89
84
77
79
81
83
83
74
74
78
84
67
77
90
82
74
80
77
80
81
82
84
89
91
85
79
71
77
78
82
84
78
70
79
98
104
85
84
70
79
82
91
99
93
91
82
91
90
91
92
83
91
96
90
89
78
83
102
92
100
102
99
101
102
113
113
114
120
107
104
120
109
115
120
107
123
125
136
135
112
124
128
142
120
124
152
141
141
135
134
153
146
141
140
141
133
131
125
124
131
124
132
118
130
119
111
102
100
102
96
97
110
91
93
92
90
95
86
71
79
80
79
77
74
79
83
93
78
84
69
83
82
81
79
67
71
80
73
82
89
85
94
75
69
84
90
78
76
78
71
67
81
84
82
82
72
71
67
78
88
87
84
77
77
76
77
69
64
72
83
75
81
63
63
82
66
76
78
69
81
76
84
77
81
81
79
81
84
85
81
81
81
81
77
82
81
81
82
80
83
78
86
83
70
76
78
78
80
79
83
82
83
86
76
80
82
79
72
94
80
94
72
63
86
83
83
84
96
82
72
72
77
69
75
73
72
80
97
90
89
77
81
80
71
65
86
94
101
97
75
74
82
80
92
80
82
78
85
76
68
76
78
85
80
69
92
83
94
76
89
86
62
65
87
78
88
95
94
80
81
80
80
78
69
67
80
84
84
78
87
80
86
81
81
86
76
85
89
78
81
85
76
81
82
76
75
85
84
86
89
74
86
91
82
99
88
82
76
78
73
66
75
86
62
61
67
76
90
97
84
91
97
99
91
87
89
90
92
89
96
87
97
78
97
96
98
112
107
92
92
108
102
93
81
93
95
102
105
104
92
81
76
78
77
98
85
87
82
83
63
73
82
73
80
97
87
78
75
87
82
82
66
61
59
83
108
89
83
80
79
86
81
82
72
77
74
91
83
83
75
87
73
76
94
80
90
83
77
79
90
86
68
81
66
81
77
75
86
81
71
77
77
59
83
83
96
100
125
126
144
169
187
225
255
266
280
295
269
240
200
169
144
123
115
109
103
95
78
80
83
84
88
80
86
94
93
94
90
75
63
56
75
93
101
98
84
88
79
73
83
88
84
93
91
76
74
83
81
87
80
87
76
90
92
82
94
86
87
80
85
96
83
95
95
86
63
74
86
97
105
92
87
83
91
91
85
80
93
88
95
100
88
87
88
102
99
97
90
91
91
85
101
109
96
89
94
81
97
108
101
98
93
100
108
109
103
116
116
109
120
109
103
116
119
123
110
108
134
133
143
126
126
133
138
134
131
134
141
140
148
149
146
147
134
140
141
136
149
148
144
138
140
136
134
123
123
111
102
127
127
105
97
96
94
103
108
92
91
102
89
77
54
87
107
103
86
91
79
92
94
99
92
90
94
92
84
82
95
91
85
76
65
79
91
79
79
85
86
90
81
91
90
88
88
89
88
75
78
83
84
76
61
91
82
104
105
81
92
93
90
88
90
91
83
78
79
76
75
78
87
84
84
100
100
75
87
85
80
88
96
86
77
90
91
82
73
64
85
93
86
90
83
71
93
91
78
80
75
82
89
96
99
92
91
83
95
94
91
87
88
92
82
91
92
85
82
90
78
79
98
94
85
87
95
87
99
78
79
88
83
82
89
102
86
68
81
87
84
74
72
93
76
92
100
80
101
104
91
91
75
82
86
99
87
91
90
78
78
70
98
98
81
93
99
89
83
71
77
82
81
89
86
99
105
92
94
96
82
86
82
84
86
97
85
86
94
81
62
62
66
81
102
93
95
92
77
78
96
107
101
98
92
87
89
92
94
86
84
80
83
87
98
91
83
89
102
95
91
86
85
90
86
91
84
80
76
76
83
86
89
90
92
97
83
90
78
81
77
89
94
86
102
100
96
94
96
77
93
104
100
100
107
103
96
88
102
100
99
117
113
105
103
112
118
107
105
96
98
103
90
94
108
113
102
98
71
79
104
90
96
88
87
97
88
80
88
103
98
87
82
90
81
106
94
93
95
94
85
85
88
83
84
94
92
93
80
79
82
94
87
73
78
92
96
86
103
89
87
96
88
84
80
77
79
96
92
82
85
104
95
95
91
84
83
70
75
65
63
93
108
134
138
155
189
210
225
261
269
278
285
274
247
203
193
173
148
128
111
101
87
85
84
90
96
103
96
94
89
90
83
100
100
80
95
92
83
97
92
88
89
77
88
95
104
89
88
98
92
99
106
108
90
89
87
90
91
96
94
85
83
90
99
94
99
91
89
89
89
103
95
96
104
99
79
99
98
91
88
93
88
97
106
93
94
95
90
99
83
84
104
101
100
93
103
107
105
99
101
109
118
99
109
105
102
103
104
115
120
113
107
121
110
101
121
121
118
107
111
104
126
155
141
131
138
137
125
128
132
141
147
147
140
145
152
153
152
155
152
139
133
163
156
140
139
133
146
141
136
133
125
120
123
123
120
108
110
119
114
109
105
101
99
106
97
96
90
89
96
101
112
86
103
100
82
84
104
85
72
98
101
105
97
102
94
97
93
80
92
92
98
92
101
87
86
89
97
102
95
88
92
93
92
102
90
96
92
89
98
93
94
106
88
82
86
92
87
92
78
70
86
86
73
90
106
103
104
105
92
73
96
109
87
86
91
89
87
104
96
83
91
89
103
97
99
100
102
97
80
87
84
99
78
80
86
82
88
97
88
88
99
91
83
78
85
88
100
84
84
97
101
92
91
93
89
90
85
85
86
82
89
68
97
98
93
66
79
90
102
97
84
94
93
92
96
85
93
97
80
85
93
93
95
84
87
95
99
66
64
89
92
99
99
95
76
66
92
106
88
96
105
92
90
80
82
98
95
89
86
93
88
83
93
81
90
86
96
100
102
84
100
90
86
74
66
84
104
110
98
95
93
88
84
91
77
84
91
97
92
87
83
80
75
90
100
95
92
81
90
95
106
73
82
94
86
86
95
99
85
83
86
74
80
99
104
98
100
94
96
98
109
120
103
96
101
88
87
88
106
103
97
92
97
104
105
106
97
121
109
90
107
115
107
93
78
81
105
100
99
90
94
94
95
81
78
87
83
90
93
87
77
85
88
106
89
79
100
86
83
74
69
79
93
83
93
100
92
81
89
93
87
90
93
98
94
91
83
86
91
83
83
94
83
97
92
96
87
85
90
96
84
92
92
81
53
63
99
96
97
106
122
123
141
155
181
209
243
247
245
255
225
218
187
149
124
112
94
83
71
80
74
72
70
77
83
85
90
89
102
104
89
85
100
86
92
86
85
92
87
82
86
100
87
81
87
83
93
93
86
94
98
110
97
90
88
92
83
98
91
80
91
92
97
92
90
95
102
99
96
97
94
89
91
92
96
108
97
96
108
97
95
90
83
83
94
97
98
101
113
103
104
92
99
87
111
106
103
99
104
109
104
100
103
104
116
104
103
110
109
103
128
120
118
138
123
117
123
118
122
137
126
140
136
143
136
140
145
150
142
151
148
145
142
147
155
151
163
160
162
163
142
145
147
140
156
146
138
125
143
133
133
122
123
120
121
107
110
113
118
92
95
96
87
95
105
100
101
96
89
90
86
84
82
90
92
84
81
86
90
84
89
92
87
87
79
88
87
85
95
83
99
94
103
95
80
74
89
86
93
102
87
76
80
102
95
96
90
90
97
94
82
88
93
91
88
92
93
98
102
89
79
90
92
96
86
93
96
83
94
108
94
84
89
92
89
92
102
99
83
81
102
92
92
101
93
82
88
84
75
96
97
96
100
96
86
78
79
91
82
94
84
84
95
96
94
89
101
97
82
101
101
69
86
106
90
71
84
94
93
105
100
89
97
109
82
73
81
100
94
98
89
88
80
88
100
91
86
92
83
82
87
90
85
81
81
84
93
92
75
88
101
83
97
98
78
79
77
82
101
90
87
73
67
93
93
91
91
85
87
93
92
87
85
92
99
92
94
86
91
93
77
77
94
100
78
83
97
85
75
79
74
105
91
92
95
112
110
105
85
102
88
77
103
96
91
113
120
103
100
104
101
92
106
111
105
87
109
107
105
102
99
106
109
87
82
80
76
75
90
104
90
82
86
89
95
88
90
83
96
87
75
82
96
94
76
72
82
101
90
87
85
91
87
91
82
82
84
84
91
87
75
79
63
89
103
92
79
79
97
76
72
89
91
92
96
90
98
89
84
82
68
71
66
84
77
91
117
120
137
157
165
190
222
253
268
278
287
254
228
183
174
166
138
120
107
106
93
91
92
77
89
100
112
109
95
86
84
98
90
94
93
93
91
95
91
87
80
91
101
91
87
85
88
86
81
87
92
104
96
85
92
92
85
86
94
85
88
87
93
92
86
103
90
85
88
90
90
91
100
87
81
93
90
103
97
88
90
107
105
96
95
94
107
90
90
97
111
95
93
96
90
87
82
84
92
109
114
109
115
107
104
92
103
109
111
108
106
98
105
115
115
116
111
101
127
125
115
137
135
140
128
138
142
138
146
143
141
150
142
143
146
147
144
146
138
136
132
138
144
140
143
139
147
151
136
120
123
126
134
121
117
119
98
99
114
113
105
95
93
81
82
104
101
103
105
98
81
77
101
80
82
96
91
94
97
89
92
99
89
81
87
89
82
85
82
98
102
95
69
83
84
78
84
96
95
90
85
71
89
99
102
83
84
93
95
92
77
75
75
64
97
124
98
89
85
86
105
98
91
91
93
86
87
102
102
90
86
85
82
81
93
96
90
85
96
90
94
93
87
83
96
96
93
93
89
89
95
91
88
88
93
97
102
84
88
89
84
93
103
95
85
93
94
90
91
94
90
94
85
92
100
98
99
94
88
94
76
107
97
84
111
90
86
87
102
92
89
108
102
102
91
90
83
100
96
81
83
90
77
85
89
108
101
88
88
99
94
91
95
84
61
85
104
101
105
86
87
91
94
94
99
98
97
88
85
95
91
78
80
102
84
88
86
89
91
84
102
99
82
82
91
92
96
87
82
92
83
89
76
90
93
80
79
85
73
94
96
90
90
89
91
87
89
95
85
87
76
76
80
94
90
84
79
93
100
102
97
79
90
87
89
85
95
98
96
96
89
93
90
98
95
100
98
93
102
105
105
99
96
104
104
109
96
92
88
98
106
116
111
96
80
83
85
89
100
105
96
77
78
73
106
100
76
102
97
102
84
65
84
92
98
96
83
82
94
88
87
90
79
98
82
76
74
80
78
80
91
78
71
86
91
95
83
74
68
79
81
80
98
94
96
96
88
83
87
91
81
69
90
93
71
74
65
91
89
81
96
116
129
134
169
195
219
236
266
263
272
272
256
224
190
154
139
126
117
96
70
71
77
73
77
89
85
83
73
88
105
93
101
94
83
97
92
78
91
72
76
70
86
99
94
93
83
59
90
82
72
97
101
98
97
101
98
94
101
102
95
93
87
77
80
87
87
84
92
94
91
93
102
85
83
89
104
93
99
96
83
85
101
106
93
90
102
98
103
96
95
86
86
83
89
96
111
100
103
104
104
90
111
94
110
104
111
115
110
111
100
122
119
106
109
119
118
97
119
133
145
130
129
134
117
130
145
142
144
144
142
140
131
137
140
126
148
145
158
156
137
150
159
149
154
146
147
138
143
132
106
130
130
131
125
127
117
113
107
108
101
95
100
108
94
101
94
96
88
102
83
85
95
95
106
97
89
94
91
89
92
92
93
99
80
89
96
92
84
82
96
92
100
97
96
80
83
85
74
83
85
87
97
87
80
81
91
110
105
90
86
84
85
101
93
89
91
90
95
90
88
91
87
84
90
97
85
79
81
90
94
90
80
80
102
94
77
88
93
93
81
90
91
78
80
87
74
73
94
94
77
77
92
103
95
90
93
104
98
95
96
88
92
89
91
95
85
90
96
95
80
87
90
84
93
94
74
75
87
95
90
87
85
86
82
85
89
107
96
80
94
93
93
86
77
73
75
89
93
80
85
97
93
94
89
90
89
87
89
98
90
100
92
93
96
81
78
89
82
84
82
90
81
91
97
86
78
82
90
78
77
86
89
101
96
99
100
92
96
93
86
91
97
102
93
89
103
89
105
107
93
105
106
109
107
104
96
107
83
93
98
97
99
113
115
101
110
108
82
95
106
92
83
92
99
91
92
86
79
80
90
81
90
91
78
95
97
86
81
84
81
85
88
69
98
76
81
85
86
93
88
90
86
83
93
77
85
84
61
77
101
93
92
83
93
99
94
74
74
89
94
96
90
90
86
79
92
61
77
86
83
108
116
118
140
155
186
214
231
248
259
249
249
221
188
163
121
117
102
99
86
62
61
77
62
74
95
85
92
99
88
94
96
89
99
92
86
87
92
91
87
84
82
86
85
88
103
95
92
90
92
99
82
93
88
89
92
88
84
80
87
89
85
93
89
99
74
83
75
81
108
109
92
85
85
83
105
103
98
91
102
96
97
94
80
103
106
95
100
109
96
92
88
79
90
110
111
107
106
100
101
104
106
90
91
94
112
115
125
128
101
113
113
112
114
116
114
115
138
142
111
119
144
143
140
135
131
132
126
145
149
148
150
154
160
156
154
139
128
134
152
154
148
153
143
140
142
149
147
124
132
133
124
133
113
107
133
108
91
108
107
95
115
98
94
98
100
94
87
95
94
93
102
76
102
96
90
95
94
80
84
80
77
85
96
89
87
72
75
89
99
96
98
89
88
79
77
81
87
75
84
72
76
90
78
89
75
61
85
91
94
91
88
97
92
87
92
78
74
76
101
93
92
82
83
84
85
90
83
74
73
85
86
93
87
73
78
93
87
57
89
95
78
88
81
82
81
77
80
77
76
83
87
89
88
81
76
85
91
91
88
90
86
79
88
99
84
87
101
89
83
83
86
86
82
68
82
88
81
78
86
84
73
86
89
73
82
75
63
89
99
88
80
76
84
80
85
93
80
72
92
82
65
81
88
82
92
91
86
77
80
86
81
76
67
87
86
80
77
67
67
83
84
83
89
80
73
77
82
95
80
64
82
66
83
80
90
81
81
83
78
81
86
85
95
86
78
85
84
77
71
82
81
92
82
87
87
82
93
87
99
92
92
80
79
84
89
81
71
80
105
96
107
96
114
104
91
101
90
100
102
97
77
108
102
89
82
89
81
68
83
80
85
80
84
73
79
99
95
74
71
75
89
83
85
80
75
80
79
83
71
64
78
85
74
54
72
81
82
85
67
73
67
89
86
79
75
87
78
79
77
81
76
76
83
86
72
76
76
76
56
68
82
72
72
42
74
96
80
99
106
94
145
161
178
206
230
244
262
252
249
255
213
175
157
136
109
108
108
87
77
72
67
74
77
81
78
87
88
95
84
76
73
76
65
68
61
50
80
92
87
84
74
71
86
75
85
95
72
75
81
87
70
70
92
84
90
70
76
92
91
86
84
79
76
75
85
79
81
80
75
82
90
86
77
74
79
78
83
92
88
85
73
80
76
81
93
82
68
84
86
84
87
69
85
99
89
77
89
95
95
95
92
89
86
97
94
103
99
91
90
105
107
95
109
100
112
122
112
118
128
119
114
118
130
130
134
133
128
125
127
121
134
135
119
119
134
137
145
140
132
137
141
125
118
129
125
129
125
128
124
102
121
116
98
103
106
103
87
98
90
87
84
92
85
83
89
87
90
78
81
81
77
79
63
94
85
82
76
78
83
78
64
75
73
63
52
80
99
98
86
84
75
85
63
77
70
68
94
71
80
83
81
75
68
77
88
74
66
83
80
64
83
83
75
70
72
86
83
93
74
63
56
79
90
85
82
86
80
82
73
79
67
75
80
75
81
74
92
90
73
86
80
81
62
56
68
84
93
84
86
78
74
79
81
83
85
66
61
77
81
94
80
79
76
70
83
73
66
77
85
83
85
87
75
80
104
88
78
69
74
86
83
78
82
78
83
75
72
72
79
79
68
67
83
87
81
85
77
82
73
85
76
85
65
60
76
69
85
94
85
78
71
78
70
79
88
81
73
91
80
67
65
81
68
92
92
86
81
84
79
82
80
72
71
75
80
89
72
81
73
57
64
66
79
97
88
85
72
81
87
92
80
88
86
94
91
80
90
72
84
93
91
85
83
104
106
105
105
98
95
99
89
78
91
95
85
90
93
100
95
99
94
93
79
88
84
85
68
80
79
75
66
60
70
80
82
81
84
78
89
93
75
69
71
84
85
82
68
67
83
84
83
81
76
71
73
71
71
77
79
73
74
67
76
79
80
90
89
74
84
87
77
70
77
72
72
77
73
76
72
48
56
68
55
68
98
119
123
148
175
197
211
236
246
274
289
252
239
198
171
144
124
113
101
83
87
75
64
64
81
77
78
85
84
86
79
81
92
77
77
83
71
81
79
75
81
82
68
68
82
73
87
72
75
90
69
72
72
94
83
74
73
80
85
77
82
80
86
89
91
82
86
85
80
81
73
87
87
77
84
78
89
82
85
80
82
91
88
94
89
86
73
90
84
75
77
94
81
85
85
86
79
89
79
104
98
89
77
93
96
97
95
99
95
100
96
107
107
113
111
99
103
116
118
122
111
121
115
117
116
130
126
132
126
125
130
130
118
115
142
137
130
130
155
128
136
145
139
122
138
131
127
132
123
117
126
120
105
108
103
105
108
97
95
102
97
99
91
82
78
71
66
92
93
73
84
89
84
77
86
83
80
81
82
77
68
60
73
74
64
94
84
71
80
70
79
81
90
77
69
61
86
81
81
75
79
76
75
75
85
69
64
87
74
92
86
81
78
71
72
75
78
86
73
83
78
77
61
82
87
84
64
76
85
77
81
79
68
73
89
72
68
76
83
73
68
77
83
90
75
52
65
81
73
75
97
88
72
85
75
76
78
58
73
78
71
86
81
84
83
78
85
76
82
81
71
78
87
84
73
72
75
79
68
67
71
58
81
94
85
77
84
70
62
68
77
74
72
75
78
71
75
83
77
76
70
63
76
84
72
71
66
56
79
87
80
73
81
88
77
71
55
76
82
66
61
75
80
75
77
75
71
82
65
71
77
73
68
79
80
79
83
74
64
53
64
78
81
80
76
72
78
80
82
80
61
78
83
69
71
75
75
85
86
74
90
86
64
74
85
76
86
93
86
83
79
81
91
80
86
89
93
85
86
95
81
73
96
90
88
88
93
97
95
74
81
71
67
81
61
61
84
75
79
72
77
81
66
60
66
70
62
80
68
54
74
73
72
65
61
69
84
79
78
74
70
69
59
72
72
86
82
64
63
60
77
84
87
78
74
73
68
74
77
55
58
56
66
71
66
59
70
64
59
62
47
69
103
118
119
145
165
175
221
261
258
258
270
244
218
175
148
116
101
93
85
80
53
43
43
52
73
71
77
91
72
75
79
66
67
73
63
69
76
75
65
62
61
62
63
64
56
69
86
77
47
79
77
63
81
85
70
67
67
74
58
63
76
73
53
72
59
73
78
69
78
74
68
70
59
55
67
88
74
62
73
72
79
68
80
70
69
74
70
71
67
77
86
74
74
77
90
81
78
83
76
75
81
78
87
74
87
95
85
80
88
89
75
84
103
98
101
97
99
95
96
110
104
99
118
113
111
114
113
125
124
116
121
123
122
132
131
112
117
141
125
131
124
115
126
138
139
119
114
110
123
102
94
111
91
85
90
89
92
92
97
83
85
70
83
86
83
76
69
65
77
64
76
71
81
71
63
68
65
61
64
68
65
72
58
75
71
62
71
66
67
63
72
65
57
62
47
70
60
66
68
56
77
81
70
73
52
72
83
72
64
80
74
50
55
74
69
63
79
73
67
68
62
57
74
74
69
75
72
70
64
60
67
71
57
62
71
75
78
68
65
57
63
73
71
73
73
59
57
67
69
67
58
67
70
70
63
64
51
53
77
76
67
72
77
69
63
57
55
68
76
66
65
77
77
64
71
69
64
72
74
70
65
61
66
59
65
69
72
74
72
66
65
70
67
64
55
51
45
63
72
59
73
79
72
56
63
73
63
63
66
57
65
58
67
94
77
74
64
54
73
75
58
66
69
66
71
72
80
76
66
65
61
63
58
68
62
65
74
44
73
61
57
66
77
76
62
62
80
67
53
61
61
49
50
72
80
81
71
75
73
66
74
84
69
74
67
80
74
73
80
73
66
70
63
78
91
84
70
78
88
92
85
82
76
72
65
83
85
101
74
86
92
68
79
80
87
87
73
71
63
76
72
74
85
60
68
70
81
79
58
64
69
80
70
46
66
72
64
77
75
57
50
53
52
67
61
59
67
84
75
66
74
86
69
65
67
44
52
50
68
87
74
60
66
72
73
73
64
60
62
67
67
60
65
60
59
61
61
67
75
99
119
153
161
200
210
246
261
270
264
237
220
163
126
128
122
95
89
76
63
69
68
63
61
68
77
68
69
69
74
63
63
57
66
85
75
59
54
59
73
82
68
61
64
75
73
65
68
72
64
72
56
56
72
67
70
75
71
75
76
64
76
83
80
72
66
65
75
62
66
84
81
65
60
83
83
76
83
76
86
63
45
69
74
72
94
77
81
68
84
98
88
79
67
80
88
87
87
81
80
83
78
84
90
85
90
89
86
90
80
88
97
88
91
114
119
110
114
103
90
108
129
119
117
121
123
115
117
129
121
119
124
107
135
123
125
137
131
140
120
139
136
144
128
121
113
112
114
112
122
117
108
99
94
100
91
88
90
92
87
90
89
76
77
71
70
62
74
72
73
88
73
59
74
57
51
67
74
85
80
74
80
84
69
68
79
70
82
76
87
77
71
78
78
74
76
70
62
68
71
82
57
71
64
72
69
71
71
75
62
62
67
71
79
76
62
60
64
70
75
69
96
84
63
59
73
58
64
67
68
89
76
68
83
78
80
80
85
78
89
81
67
70
81
69
68
51
65
74
78
66
69
79
81
86
76
76
67
58
67
70
73
79
79
68
66
82
57
23
75
100
88
73
73
80
83
67
55
61
90
76
71
75
84
75
70
75
65
63
77
81
75
76
82
77
66
59
71
73
70
76
75
75
76
64
65
67
57
69
76
68
68
84
81
78
77
66
67
59
76
81
76
71
67
60
56
71
86
70
69
77
80
79
63
67
86
79
77
81
81
76
77
83
75
72
81
74
83
89
85
80
80
69
70
68
93
76
85
87
78
81
85
92
93
80
75
77
81
91
108
96
98
85
80
98
89
82
71
84
86
80
83
88
86
66
72
79
62
63
79
71
72
73
62
71
87
77
54
70
63
70
91
96
75
75
74
82
62
59
68
69
66
77
66
60
81
83
79
82
72
60
66
77
71
77
86
67
58
77
79
81
70
79
80
80
61
68
64
60
66
65
75
88
105
116
124
143
159
182
211
214
235
243
231
213
176
148
107
95
78
73
80
68
39
47
61
73
49
63
66
76
76
82
72
72
77
75
70
73
77
73
66
64
85
86
74
74
69
89
91
80
87
80
71
72
74
67
75
91
69
75
89
66
64
87
78
59
74
74
73
85
86
82
67
75
72
67
75
99
80
77
74
86
86
74
74
71
87
90
76
83
90
94
77
81
83
89
92
94
91
80
87
89
73
89
101
90
83
99
94
96
97
86
105
115
116
114
103
100
110
109
108
105
110
102
115
123
132
143
135
142
136
136
132
131
136
132
122
126
130
138
136
142
137
134
143
141
139
131
131
126
122
108
105
115
103
105
105
103
99
97
83
73
79
87
96
88
88
81
79
73
85
76
72
69
58
46
75
86
67
91
84
79
68
83
76
62
64
73
94
87
85
68
64
66
73
82
88
81
68
68
64
61
50
68
65
72
78
65
75
63
68
75
77
74
65
70
78
65
67
74
72
72
75
73
48
60
91
82
81
92
88
72
67
69
69
65
74
74
65
62
59
79
75
74
75
74
72
70
76
75
83
63
74
76
66
75
84
80
65
78
72
53
70
67
69
70
86
83
86
79
73
69
66
65
73
75
70
57
69
85
75
62
67
51
75
91
77
84
80
71
74
72
71
65
73
75
76
75
76
82
75
73
73
62
72
71
75
73
79
75
66
58
71
75
63
67
68
70
63
59
80
73
79
84
86
74
80
80
73
69
68
87
83
78
67
72
64
78
78
76
82
86
90
81
88
97
95
89
90
87
79
70
91
97
81
77
89
82
78
88
85
57
83
88
71
68
62
74
75
64
74
84
73
72
76
66
75
70
57
55
72
75
74
54
77
79
70
83
73
69
81
70
59
61
63
81
73
70
61
66
63
74
69
78
65
70
63
50
70
77
74
77
74
87
70
76
67
68
69
67
55
56
67
78
92
120
120
136
161
172
181
199
222
238
250
241
201
159
160
119
92
76
80
64
56
61
67
80
77
70
78
83
81
68
64
83
76
79
82
84
76
63
66
79
75
72
65
67
71
73
61
86
76
68
74
88
74
79
69
73
73
74
75
78
73
65
81
80
74
84
74
92
98
77
77
74
77
84
90
67
74
62
63
72
94
79
78
78
81
78
78
81
78
72
80
74
100
88
84
84
89
90
79
87
98
80
95
98
96
89
103
96
92
102
96
92
100
110
114
104
118
113
110
102
109
108
87
104
138
122
123
125
124
120
118
125
141
139
126
127
133
138
139
139
128
123
129
126
133
126
127
112
110
112
113
112
101
94
95
94
79
95
98
99
91
87
95
86
67
76
91
88
79
84
72
79
75
71
68
63
71
76
83
72
63
54
73
81
73
75
91
67
68
66
71
67
65
67
61
69
70
70
73
71
72
76
74
81
70
74
71
73
77
72
82
72
72
76
66
59
64
82
76
83
79
75
69
61
69
72
76
73
55
77
70
77
70
70
88
78
65
71
72
70
82
79
75
74
70
72
78
71
70
76
81
73
72
79
74
72
64
68
68
74
81
78
85
72
58
66
74
58
68
81
75
74
83
81
80
79
65
69
63
70
64
58
69
79
82
65
51
59
59
54
83
71
77
76
76
70
66
71
76
82
79
67
76
75
70
64
52
68
74
72
61
68
80
80
74
77
73
62
65
82
67
73
76
81
72
79
48
65
78
74
83
94
82
60
58
79
79
83
79
81
101
92
88
83
101
93
78
97
77
77
63
66
83
89
78
84
73
76
79
82
79
86
69
60
51
67
80
60
76
77
62
50
71
57
67
85
68
65
68
68
65
68
70
82
72
62
66
68
68
72
81
65
55
66
61
54
78
55
67
69
71
75
73
58
58
55
50
69
65
76
69
78
70
67
56
41
50
70
89
80
97
113
128
118
155
191
219
244
250
243
237
228
207
171
138
124
116
86
85
92
78
64
77
74
60
79
67
65
63
69
74
70
74
56
81
81
75
70
62
81
61
79
68
56
67
82
73
61
73
85
71
64
70
54
63
83
80
70
68
79
81
71
83
78
80
53
52
62
71
87
84
79
74
73
73
74
65
72
77
85
76
79
74
67
62
71
72
68
81
78
84
84
76
72
72
68
73
77
100
87
76
92
94
84
86
84
87
85
87
97
99
98
98
95
96
101
84
99
107
101
107
106
114
104
116
120
125
111
101
120
112
125
131
124
109
114
120
120
103
124
141
146
133
126
129
123
116
112
110
99
107
108
102
99
100
91
86
92
98
94
87
72
61
72
78
70
75
74
82
73
72
56
62
62
72
64
75
80
80
63
69
82
75
45
49
83
71
79
68
65
75
80
75
74
73
67
62
69
81
70
78
76
67
65
61
71
67
70
70
66
58
64
69
59
74
67
70
65
72
67
73
61
44
75
74
80
62
84
82
68
65
62
71
77
62
67
67
76
71
67
66
75
59
75
60
58
67
66
66
74
76
77
64
66
67
86
67
63
76
77
55
77
84
59
55
62
75
68
80
87
75
70
58
55
68
62
59
68
73
70
76
71
64
61
55
68
67
53
81
76
78
61
70
71
56
57
67
47
79
81
67
61
60
67
67
63
67
66
49
62
77
63
56
71
69
55
60
73
77
64
70
73
70
55
69
64
73
65
63
66
59
68
69
58
61
44
66
83
68
50
63
70
78
77
72
73
66
72
62
73
78
62
84
74
63
82
79
73
79
84
82
71
74
91
96
77
80
79
75
79
84
81
82
72
86
72
58
62
79
74
63
62
62
63
65
56
51
74
65
64
69
58
60
66
64
74
78
66
63
56
65
72
61
47
58
66
55
65
54
67
68
54
67
64
61
63
72
75
75
77
65
62
59
50
53
68
58
70
73
66
63
52
55
52
45
53
48
55
89
75
114
141
178
208
225
250
251
244
252
242
213
178
149
123
101
77
82
60
62
75
51
56
73
65
76
62
64
70
68
73
71
68
66
67
52
61
59
66
64
65
59
54
69
66
64
70
70
52
49
71
66
67
70
57
47
68
61
51
80
58
41
73
90
72
52
62
68
77
73
82
65
62
64
66
64
62
70
76
57
66
66
71
67
70
66
77
83
66
64
67
76
81
71
75
72
71
76
67
69
64
77
91
87
77
85
85
82
82
83
91
79
83
88
82
85
87
78
88
97
98
111
117
102
103
96
89
105
105
110
97
120
117
114
117
116
133
104
118
118
115
116
120
104
96
87
107
120
107
101
102
94
73
87
81
80
72
72
87
81
64
51
62
51
66
81
69
63
63
50
58
71
67
59
60
54
49
56
51
49
42
40
40
50
90
63
57
61
58
46
53
68
58
48
42
47
52
60
62
58
57
58
48
37
25
54
67
65
67
57
50
44
51
61
57
47
57
63
52
47
45
40
58
54
37
47
67
67
52
55
60
56
48
42
35
40
41
45
51
65
60
45
47
42
53
55
58
32
26
52
58
47
51
55
59
55
44
53
57
52
52
53
56
47
43
55
61
47
44
47
49
65
45
40
45
60
52
53
57
43
40
51
47
43
51
48
48
39
51
51
35
48
65
56
41
50
57
42
37
38
49
67
44
55
61
60
53
53
46
44
54
57
51
45
41
52
63
49
48
54
48
26
56
53
53
47
38
48
50
46
51
50
47
46
58
39
9
37
62
62
55
41
46
51
61
67
61
44
49
43
32
54
61
54
67
62
55
54
48
46
49
60
54
68
71
55
54
59
60
58
59
49
56
52
53
72
66
52
62
37
56
38
49
55
46
56
61
50
42
44
46
32
40
46
47
43
33
47
41
23
48
45
37
33
48
57
45
53
42
34
38
30
38
30
30
43
44
27
37
38
23
36
32
32
23
39
50
39
25
32
43
40
44
34
32
32
32
19
6
26
37
51
54
68
97
109
135
169
186
209
212
227
229
234
196
165
122
95
87
79
59
52
43
29
25
29
37
45
33
38
21
43
21
28
55
45
40
40
44
37
38
39
41
52
45
27
34
31
34
44
48
49
39
40
31
39
46
41
30
14
28
40
24
38
38
56
46
39
31
27
28
34
48
46
25
49
44
25
51
52
50
45
55
52
45
61
42
40
38
34
40
45
46
46
36
39
47
63
53
54
51
41
52
52
40
36
57
60
49
55
51
35
63
96
66
58
73
79
63
65
76
63
77
88
85
67
59
85
106
94
94
94
98
96
84
84
109
107
97
85
103
105
106
105
99
99
98
85
68
66
72
56
63
75
84
88
70
60
57
61
62
55
45
59
57
53
41
42
45
42
34
45
34
33
38
46
42
27
41
40
33
24
18
37
30
51
47
54
21
16
36
42
48
47
40
33
30
50
38
36
39
22
33
29
50
30
29
13
47
66
53
51
32
53
52
50
40
33
27
38
33
38
39
41
37
34
44
29
46
31
34
42
13
9
40
30
27
59
59
38
29
49
50
47
48
35
32
28
24
47
34
30
34
42
49
48
45
30
27
40
56
47
38
51
43
39
55
48
46
50
41
35
43
44
32
34
29
39
39
42
50
44
45
34
29
24
44
53
52
33
35
37
36
32
36
34
40
36
32
32
30
38
58
41
33
35
45
32
32
40
32
31
23
10
38
50
38
45
45
41
28
50
44
34
50
54
44
36
39
40
41
56
51
37
59
63
42
38
42
38
27
46
59
50
66
47
51
57
53
53
56
65
66
48
46
61
49
46
54
40
44
54
58
47
51
33
32
47
49
38
31
6
15
41
46
49
31
38
41
39
40
13
23
42
60
48
37
46
40
32
39
38
39
36
47
20
23
44
46
45
40
36
27
22
16
32
24
38
36
28
36
14
24
49
46
45
13
15
28
33
40
35
29
24
27
28
27
46
56
65
86
93
115
127
147
170
195
203
188
169
161
130
87
66
49
50
31
19
21
14
25
21
15
18
27
34
41
42
34
46
37
17
38
27
11
33
30
41
48
46
34
39
35
35
40
34
42
43
42
30
33
40
38
37
27
46
35
37
32
46
35
47
48
37
39
25
40
39
34
31
26
27
44
57
47
42
38
38
29
48
54
51
47
45
43
38
41
35
34
49
50
45
57
62
53
54
58
40
38
52
63
54
69
64
64
51
56
63
58
56
66
85
71
74
72
81
73
70
68
89
83
66
84
96
101
110
105
107
115
92
86
97
90
110
109
103
102
97
102
91
107
106
84
81
89
87
94
84
83
82
78
84
75
76
69
59
43
57
51
64
61
58
51
58
58
46
59
48
35
50
58
40
38
38
53
33
33
40
45
50
35
32
43
44
49
48
52
36
39
59
57
45
47
53
55
52
54
54
56
40
50
53
45
44
57
45
47
36
38
54
45
45
47
44
39
54
60
61
55
58
58
33
37
44
32
38
48
40
35
39
64
49
48
57
62
63
62
53
44
39
47
62
52
53
48
54
43
41
38
47
45
61
62
46
46
45
40
58
48
56
55
46
49
49
38
45
36
48
64
51
41
52
52
43
52
49
38
39
52
46
38
43
52
50
41
39
36
64
62
56
51
49
41
55
51
42
46
48
54
60
40
46
41
53
60
55
56
57
63
60
52
49
43
53
37
56
62
59
59
50
63
73
71
62
60
50
61
47
63
66
64
61
54
59
74
71
79
72
68
81
75
71
65
59
65
71
70
65
72
68
61
65
61
52
50
61
60
53
57
60
64
56
57
38
45
57
59
52
46
30
43
60
67
58
58
68
54
53
52
66
57
38
54
61
47
61
68
56
53
51
64
65
50
38
38
53
67
70
52
55
63
77
58
70
56
67
58
49
39
44
24
48
49
50
41
67
115
126
134
172
179
186
215
240
238
242
205
170
138
115
76
78
80
82
56
39
49
61
56
51
66
72
54
70
79
54
57
47
47
71
70
49
58
58
68
65
50
66
60
52
57
40
49
59
59
57
45
72
70
53
57
59
67
67
64
62
60
54
64
72
70
65
58
61
64
71
74
70
63
57
57
57
65
66
65
72
65
69
69
59
60
49
45
65
79
57
57
75
79
65
49
80
83
71
76
69
71
80
80
82
84
81
73
80
87
85
76
95
76
96
84
96
82
91
96
100
101
106
116
107
105
114
101
97
95
120
119
111
118
134
125
108
105
101
126
117
98
100
125
113
116
105
97
90
97
89
88
88
68
61
66
76
76
65
66
60
66
60
61
55
50
49
67
67
64
65
58
60
55
61
63
53
55
49
43
45
51
51
62
64
44
50
56
42
41
41
47
56
46
66
68
53
47
30
41
58
47
43
63
58
59
34
53
42
65
61
56
62
54
48
35
44
43
50
46
47
47
51
52
51
48
44
37
55
53
56
55
57
49
37
45
42
36
37
32
20
47
63
79
69
75
61
42
41
36
33
40
55
42
55
53
45
53
63
53
38
45
50
50
46
55
39
50
52
29
50
34
33
42
52
53
44
41
55
50
45
37
40
49
52
61
39
30
56
40
52
47
41
34
50
35
37
41
48
31
52
54
51
42
52
54
47
41
52
41
39
41
33
49
49
52
40
37
27
41
53
63
51
49
53
67
46
52
76
52
44
44
46
49
68
59
57
65
47
42
60
57
45
53
88
72
66
72
58
57
69
57
46
50
55
52
50
56
53
41
41
45
37
37
61
48
60
66
49
45
47
46
38
36
42
49
36
43
54
52
50
42
53
44
40
45
31
43
18
28
41
56
48
45
47
50
47
49
50
38
41
51
42
40
32
22
31
59
51
41
45
35
35
37
45
65
74
88
111
127
134
164
204
220
235
238
236
202
173
134
123
99
86
71
58
38
39
37
32
44
50
43
50
59
50
44
43
51
60
46
36
48
34
27
45
30
36
38
37
46
48
55
44
45
39
43
53
47
47
52
42
38
40
46
41
30
28
44
46
38
31
40
47
33
44
45
38
55
52
34
47
43
28
38
53
42
53
54
40
32
41
38
37
44
45
40
42
41
40
29
36
33
38
49
51
38
42
47
51
57
53
48
45
52
56
50
47
43
51
66
84
76
58
74
69
80
82
79
66
73
87
83
85
90
90
74
94
81
85
97
101
89
98
105
82
85
95
82
80
73
79
90
78
77
78
77
81
76
75
59
49
50
48
40
46
53
50
42
37
37
39
52
46
39
49
37
14
18
33
53
49
34
41
39
55
52
52
37
37
51
37
37
39
34
25
20
28
27
37
52
53
37
28
37
23
11
35
52
41
34
29
38
48
48
48
45
25
22
31
34
30
36
41
51
48
32
19
36
31
47
58
49
46
47
38
37
47
41
35
48
58
48
30
36
35
30
38
40
46
51
32
32
32
29
45
46
47
32
47
40
36
26
32
44
33
42
44
45
36
36
38
49
28
28
40
56
40
40
31
29
50
57
33
38
45
54
54
50
43
52
53
21
28
47
55
55
48
36
44
43
46
44
48
44
32
30
45
37
39
34
38
50
44
39
29
53
47
50
31
38
37
29
47
52
57
74
54
49
54
55
64
51
51
63
51
40
49
51
67
64
74
74
39
44
46
57
68
59
56
59
44
47
51
59
52
51
48
38
44
44
35
32
40
49
41
49
55
26
37
32
31
35
47
42
41
53
57
40
50
45
38
43
38
46
51
50
28
37
33
30
49
48
47
38
28
39
44
53
50
55
50
48
45
41
34
33
42
45
45
44
47
39
22
42
51
70
89
95
118
127
150
177
194
205
207
214
174
139
101
102
85
76
57
48
21
31
29
33
36
43
58
64
53
42
40
53
41
53
52
59
32
43
49
54
62
48
36
41
41
45
42
46
39
35
52
61
46
44
50
45
45
39
56
60
52
47
45
48
51
51
54
60
58
42
63
46
39
48
56
57
54
58
49
48
60
56
35
45
59
53
32
65
66
81
49
35
48
54
74
70
62
58
52
67
70
42
55
80
82
63
57
64
95
78
76
76
71
91
84
73
97
85
99
97
101
105
91
81
89
108
99
89
97
103
116
116
104
102
114
106
108
98
96
125
98
103
105
112
106
106
92
107
103
100
86
84
78
77
85
82
72
81
77
62
62
64
65
70
61
53
53
55
56
53
42
35
53
52
49
43
56
64
51
48
39
43
42
63
48
51
58
64
48
43
50
60
66
60
48
54
32
53
62
43
42
39
45
57
56
38
46
50
51
33
52
47
49
56
60
48
37
48
24
34
47
51
32
43
55
40
43
47
54
45
34
39
36
26
39
63
53
47
32
28
52
58
47
52
60
51
50
39
41
37
49
44
53
21
51
61
53
52
47
29
30
40
45
52
42
40
43
52
57
44
37
29
31
35
48
47
56
43
41
39
39
48
40
35
53
63
61
50
40
47
53
48
50
45
47
40
47
45
38
41
41
44
61
45
27
49
68
61
53
48
50
48
45
52
60
46
45
39
51
63
45
40
48
60
59
69
56
57
78
67
67
56
59
66
63
46
59
76
76
75
63
51
66
72
70
68
64
60
61
57
54
34
45
60
49
49
45
40
55
43
39
48
54
39
51
47
39
57
62
54
45
32
55
47
41
55
38
48
60
52
41
51
52
48
39
28
60
61
52
56
50
41
49
36
51
66
53
51
58
47
47
58
59
53
44
31
28
38
22
37
58
79
96
107
127
134
164
181
183
199
211
235
204
180
153
133
102
81
62
55
54
44
49
35
34
51
41
37
35
53
58
58
62
66
61
56
35
34
43
55
58
59
44
47
45
53
47
48
52
61
39
39
37
33
44
51
48
57
56
43
42
41
33
32
45
52
48
45
49
48
44
56
48
61
64
57
46
60
52
52
52
46
51
54
47
65
55
63
58
44
52
53
44
43
49
60
55
72
71
62
47
48
52
44
55
45
72
73
67
71
67
67
73
72
77
75
75
86
78
83
87
99
73
75
88
89
81
87
103
92
115
110
108
98
84
96
101
98
107
104
109
107
117
102
94
92
83
83
82
70
68
60
61
64
64
68
58
50
56
47
39
34
43
50
39
10
15
26
31
25
36
25
13
8
23
42
36
22
18
17
15
17
16
4
10
11
20
10
4
11
29
22
6
14
22
21
7
17
21
11
11
4
-5
22
18
26
-12
-3
3
-1
5
-7
12
21
10
-1
-9
4
4
16
10
9
-7
-31
-10
4
6
-4
-5
1
-8
0
-10
-25
-27
11
23
6
-20
-11
-2
-7
-5
-16
8
7
-18
-6
3
-7
-9
2
-3
-8
-8
-9
0
-2
-23
-10
-22
-10
-13
-27
-17
-11
-16
-16
-14
-2
-12
3
-13
-12
-13
-36
-31
-21
-15
-9
-7
-20
-19
-26
-20
-20
-18
-28
-40
-30
-4
-19
-21
-19
-19
-24
-46
-39
-32
-17
-9
-23
-29
-35
-24
-26
-30
-37
-29
-37
-35
-38
-39
-32
-40
-35
-38
-46
-57
-31
-24
-34
-46
-43
-47
-39
-36
-49
-58
-31
-28
-28
-26
-31
-44
-58
-42
-46
-53
-35
-23
-50
-40
-39
-33
-28
-39
-38
-28
-28
-36
-39
-43
-55
-34
-44
-47
-38
-37
-39
-40
-47
-48
-46
-50
-55
-63
-69
-51
-54
-49
-58
-61
-63
-52
-59
-59
-59
-57
-59
-57
-70
-61
-53
-72
-44
-43
-48
-52
-60
-52
-77
-73
-59
-57
-49
-44
-47
-58
-69
-64
-66
-57
-61
-65
-42
-48
-67
-64
-58
-47
-51
-53
-49
-47
-71
-66
-86
-91
-53
-56
-49
-40
-17
-4
-1
14
31
68
97
114
121
132
123
110
68
42
16
-6
2
-20
-34
-43
-62
-72
-57
-39
-33
-58
-48
-42
-49
-48
