-27
-18
-15
-17
-23
-15
-12
-10
-14
-15
-21
-22
-19
-19
-20
-11
-6
-9
-11
-4
-22
-24
-9
-11
-18
-13
-16
-11
-9
-14
-10
-14
-11
-7
-16
-14
-7
-14
-13
7
-9
-10
-24
-20
-23
-8
-5
-13
-19
-13
-10
-13
-17
-13
5
-5
-13
-10
-8
-15
-24
-4
-8
-17
-12
-5
-14
-7
-5
-2
-10
-15
-5
-15
-7
-4
-10
-11
-5
-3
-24
-9
-8
-15
-11
-6
-1
-8
-10
-7
-11
-11
1
-15
-11
-4
-14
-8
-10
-14
-23
-12
-6
-13
-13
-8
-6
4
5
-7
-27
-14
-15
-14
-3
-3
-4
-2
-8
-17
-9
-9
-6
-14
-15
-11
-8
-17
-7
-9
-11
-12
-17
-23
-6
2
-6
-6
-9
-17
-11
-10
-12
-7
-7
-6
-10
5
2
-6
-12
-8
-11
-15
-12
5
4
-2
0
-14
-9
-13
-1
-11
-3
8
-8
5
3
-7
0
0
0
-7
3
-4
10
4
0
4
-8
0
-5
-1
-5
-2
-8
-15
-6
-8
-5
-8
-9
-6
2
-4
-8
-7
-4
-13
-21
-19
-18
-5
-11
-17
-9
-6
-14
-17
-14
-8
-7
2
7
6
-13
-4
2
-2
21
34
40
59
81
95
116
143
168
161
154
147
110
90
76
49
21
10
-3
-14
-6
-8
-7
-8
-1
-10
-14
-10
-19
-29
-32
-31
-36
-21
-18
-22
-21
-22
-18
-27
-35
-27
-27
-17
-20
-26
-24
-19
-29
-21
-20
-18
-24
-27
-24
-27
-24
-16
-20
-24
-17
-20
-24
-10
-19
-31
-21
-8
-10
-23
-25
-26
-26
-18
-10
-8
-20
-12
-15
-18
-12
-9
-8
-16
-16
-14
-13
-8
-22
-23
-20
-15
-9
-2
-5
-14
-6
1
-8
-1
-10
-10
1
5
3
1
2
10
-7
5
2
2
11
8
18
12
0
21
3
21
16
24
14
12
21
21
23
35
22
26
17
21
19
30
37
29
21
19
20
20
18
27
24
29
32
27
21
14
15
17
13
4
18
18
0
16
9
13
10
6
7
5
-13
-7
-11
3
9
6
-3
-5
-10
-14
-10
1
-2
-12
-11
4
-18
-8
-2
-10
0
3
-14
-11
-12
-6
2
-4
-10
-15
-18
-1
-4
0
-4
-18
-3
-10
-8
-15
-7
-2
-1
-1
-12
-8
-3
-14
-7
-15
0
-9
-10
-12
-4
-19
-10
-8
-5
0
4
7
9
0
-5
-2
-2
-18
-18
-14
-8
-9
-8
-2
-8
-4
-6
-7
-7
-12
3
-6
-3
-4
-2
-12
-10
-8
-13
-16
-10
-4
-7
-17
9
4
-6
1
-9
-3
-5
-9
-6
-8
-4
-5
-11
-12
-1
-3
9
-5
-13
-8
-5
-16
-16
-15
-12
-8
4
-5
-13
-5
-1
-1
-5
-9
-23
3
-1
-7
-3
-13
-12
-5
-7
-9
-10
-12
1
6
3
1
-8
-25
-10
-7
-1
0
10
-3
-13
-11
1
-13
-3
-1
-4
2
5
6
8
7
7
4
8
3
0
9
11
12
9
5
9
5
-4
6
6
6
9
17
14
15
8
4
3
7
1
-1
-4
-4
3
-14
-10
-9
3
7
-8
-3
-7
-2
-19
-10
-4
-9
-7
4
-11
-9
-1
-14
-10
-5
-8
-18
-7
10
10
11
7
2
3
0
1
13
29
45
52
68
84
107
131
156
181
190
166
139
111
97
68
47
27
17
18
10
9
13
17
15
6
3
9
11
0
-17
-28
-6
-4
-10
-22
-16
-1
-9
-13
-11
-21
-21
-6
5
-3
-10
-8
-11
-12
-11
-13
-17
-4
9
-4
-18
-4
-5
-3
-2
-8
-9
-5
-10
-9
-4
-3
-12
-20
-2
-3
-1
0
10
-2
-18
-20
-18
-9
2
-11
-8
6
2
2
-7
-3
-4
-4
3
-9
-10
10
0
-1
-1
4
6
11
1
7
-6
6
20
12
-4
18
20
13
16
11
9
16
26
28
28
28
30
25
22
37
31
38
41
37
33
37
29
31
37
40
24
39
39
50
39
41
28
28
41
39
26
26
29
28
24
18
21
34
31
26
18
17
12
6
24
15
10
17
19
8
18
3
5
5
2
2
-5
-9
5
2
1
-3
-1
16
14
-1
-17
-4
11
4
-11
-5
-7
2
-13
-4
3
4
-8
-14
-9
-4
-5
-1
-1
-2
-4
-13
-13
1
6
3
6
4
-3
-1
-7
1
-14
-12
-6
-9
-5
2
-1
-2
-14
-6
-6
0
-5
-7
5
-9
-6
-4
-9
-7
-6
-5
-10
-6
4
0
-3
4
5
-7
-4
-12
-10
-7
-19
-5
-1
-7
-5
0
-1
-13
-10
-7
-12
-13
-1
6
-16
-25
-7
-13
-14
-3
-5
6
-4
-6
-15
-17
-1
-8
-6
-2
-3
4
3
-6
-12
-6
-16
-14
-8
-17
-11
0
1
-3
-20
-17
-6
-13
1
-2
-12
-14
6
-10
0
4
-8
-17
-8
-2
-1
-13
-3
3
2
1
-17
-8
7
13
15
13
0
12
7
3
5
9
12
6
4
-2
3
1
-8
3
10
13
6
0
2
-6
-9
-3
-13
-17
-10
-6
3
-3
1
-4
-18
-17
-2
9
-13
-16
-5
-1
-11
-7
-16
-9
-12
-3
-4
2
6
0
-12
-4
-3
1
-3
-11
2
8
31
43
48
51
92
93
112
147
168
188
174
150
121
99
86
53
26
3
6
6
7
11
15
0
3
3
3
1
-5
-9
-1
-10
-14
-24
-16
-16
-16
-16
-10
0
-10
-25
-17
-18
-19
-12
9
6
-10
-7
-19
-10
-14
-15
-8
-2
-8
-9
-20
-7
-19
-10
-9
-6
-7
-11
-24
-17
-16
-1
1
1
0
-3
-11
-11
-28
-12
-9
-12
-8
-1
-6
-7
-13
-6
-8
-14
-3
1
4
-7
-9
-6
-11
-1
9
-3
0
3
-2
7
11
3
2
3
3
8
14
11
9
3
11
19
11
18
21
20
12
19
23
24
24
22
17
29
29
19
30
30
38
32
22
24
23
22
21
39
29
25
23
29
25
28
14
16
13
8
8
13
19
15
15
3
-4
11
9
1
5
6
-4
-12
3
-6
-23
-6
-5
-6
-6
0
-8
-6
-12
-20
-14
-10
-14
-16
-17
-11
-7
-7
-6
-11
-6
-15
-20
-24
-23
-20
-21
-10
-11
-9
-17
-7
-7
-20
-32
-15
-22
-18
-10
-18
-26
-10
-13
-13
-24
-13
-12
-11
-10
-12
-17
-27
-18
-22
-20
-12
-15
-9
-17
-23
-14
-15
-27
-21
-9
-13
-20
-11
-8
-22
-24
-10
-9
-26
-19
-13
-27
-26
-11
-15
-18
-9
-15
-4
-7
-13
-14
-19
-17
-22
-19
-29
-26
-18
-9
-7
-18
-18
-19
-32
-20
-20
-22
-15
-12
-19
-19
-21
-10
-19
-16
-16
-19
2
-15
-28
-31
-21
-15
-25
-16
-15
-26
-18
-15
-22
-15
-16
-21
-20
-20
-15
-22
-24
-24
-23
-8
-13
-19
-17
-8
-4
-10
-2
2
-3
-10
-5
-7
-7
-17
-8
-14
-7
2
-10
-11
-10
-11
-19
-18
-20
-32
-20
-27
-24
-17
-18
-22
-21
-17
-16
-28
-35
-23
-32
-24
-23
-23
-21
-33
-29
-32
-23
-13
-21
-25
-18
-21
-28
-29
-15
-21
-15
-17
-5
-13
-8
12
34
33
52
64
92
107
133
169
174
143
118
89
69
35
12
0
-5
-9
-9
-8
-4
4
-3
-24
-13
-27
-23
-24
-22
-32
-38
-27
-13
-28
-26
-26
-21
-26
-25
-37
-39
-28
-31
-35
-32
-31
-25
-10
-21
-29
-33
-33
-39
-29
-19
-18
-25
-25
-26
-35
-29
-25
-29
-25
-26
-17
-7
-21
-25
-27
-30
-28
-30
-18
-14
-19
-17
-19
-18
-14
-21
-19
-12
-21
-22
-22
-20
-19
-19
-17
-11
-12
-29
-7
-7
-2
6
-6
-16
-16
-6
-2
-3
-13
-10
6
13
10
8
-2
5
25
3
0
17
17
16
13
8
13
21
16
7
11
29
28
26
26
23
27
21
20
19
19
26
28
38
24
24
25
22
6
13
0
9
13
10
9
12
15
2
-3
-8
-3
6
10
3
9
-15
-17
-26
-11
-12
-5
-12
-10
-13
-11
-33
-15
-14
-19
-31
-17
-16
-14
-19
-18
-26
-20
-22
-11
-13
-15
-27
-33
-29
-24
-32
-26
-24
-24
-22
-9
-22
-28
-23
-19
-18
-19
-24
-20
-23
-14
-21
-16
-27
-26
-23
-25
-26
-17
-22
-16
-25
-5
-16
-22
-35
-29
-26
-25
-24
-23
-15
-13
-15
-13
-15
-16
-18
-40
-33
-11
-14
-18
-16
-19
-23
-15
-16
-22
-25
-15
-19
-25
-8
-12
-19
-24
-19
-26
-21
-13
-25
-13
-20
-17
-24
-29
-27
-29
-26
-22
-26
-21
-27
-15
-18
-27
-25
-17
-28
-17
-8
-25
-24
-28
-26
-15
-16
-27
-11
-11
-10
-12
-14
-26
-20
-12
-18
-32
-25
-25
-18
-13
-9
0
-2
-5
-6
-5
-4
-15
-18
-3
-8
-14
-13
-16
-24
-16
-7
-16
-30
-32
-16
-21
-17
-12
-30
-36
-19
-26
-27
-24
-22
-22
-24
-20
-25
-23
-14
-26
-29
-24
-16
-24
-14
-18
-18
-26
-30
-24
-25
-19
-5
-10
-16
-16
-18
-14
-13
12
28
25
46
72
94
88
124
156
161
155
125
92
95
51
17
5
-19
-22
-6
-8
-1
0
-10
-11
-10
-12
-24
-30
-26
-23
-30
-32
-28
-25
-29
-25
-21
-30
-22
-39
-35
-33
-31
-29
-24
-26
-26
-28
-14
-25
-25
-28
-27
-16
-28
-31
-28
-32
-24
-13
-25
-22
-32
-33
-32
-31
-29
-15
-16
-22
-23
-14
-15
-17
-29
-17
-17
-20
-18
-18
-16
-24
-22
-23
-17
-13
-13
-15
-17
-21
-10
-3
-13
-13
-7
-15
-21
-10
7
-10
-1
0
-3
-1
8
1
-7
2
8
-2
6
11
9
14
2
12
14
12
21
19
14
21
23
27
17
15
16
27
30
33
33
25
22
16
25
26
15
26
31
19
11
17
16
10
23
0
8
12
10
7
4
14
-3
-2
-9
-5
-6
0
-8
1
-3
-19
-7
-22
-19
-15
-28
-22
-17
-15
-12
-12
-4
-16
-24
-23
-37
-28
-23
-20
-15
-23
-23
-17
-23
-30
-19
-12
-26
-5
-21
-15
-23
-23
-18
-22
-17
-15
-25
-25
-23
-18
-19
-21
-19
-26
-20
-21
-22
-20
-14
-25
-24
-18
-31
-34
-24
-24
-10
-14
-19
-28
-23
-15
-16
-20
-16
-7
-19
-26
-18
-24
-26
-20
-15
-27
-19
-24
-18
-10
-17
-26
-18
-21
-26
-27
-17
-11
-24
-22
-17
-20
-27
-17
-19
-12
-29
-27
-21
-15
-26
-27
-13
-25
-13
-21
-21
-22
-12
-18
-17
-27
-18
-15
-28
-35
-26
-32
-16
-15
-16
-24
-28
-23
-21
-18
-12
-17
-19
-19
-14
-16
-14
-16
-24
-20
-13
-8
-11
-27
-21
-11
-14
-12
-7
1
-7
-1
-3
-9
2
-4
-14
-16
-10
-4
-5
-7
-12
-14
-10
-4
-12
-27
-28
-20
-8
-12
-20
-23
-17
-26
-31
-17
-26
-12
-12
-13
-20
-18
-27
-25
-19
-20
-16
-13
-23
-28
-26
-24
-19
-27
-26
-18
-19
-21
-3
-4
-9
-6
0
-2
17
26
29
53
86
104
113
144
182
171
151
124
88
84
53
9
3
-8
-16
1
1
0
-4
-5
4
-5
-22
-12
-16
-21
-24
-31
-28
-28
-17
-25
-28
-20
-28
-19
-20
-25
-23
-21
-23
-23
-23
-19
-32
-35
-22
-27
-29
-17
-13
-21
-18
-17
-41
-44
-31
-24
-17
-11
-8
-21
-14
-10
-26
-20
-13
-21
-29
-18
-27
-31
-17
-19
-16
-9
-13
-7
-18
-23
-19
-17
-21
-19
-13
-8
-9
-6
-9
-11
-6
-2
-5
-2
-12
-8
-6
-12
1
11
0
4
-4
14
6
8
10
1
2
17
23
8
17
23
16
14
16
18
22
32
29
31
37
23
17
20
33
28
19
41
34
27
32
31
15
21
22
16
13
21
22
20
13
11
7
13
6
0
6
4
2
10
11
2
-9
-9
-7
-6
-8
1
-18
-18
-5
-10
-19
-16
-8
-15
-10
-9
-13
-21
-13
-33
-15
-20
-23
-16
-9
-24
-28
-28
-25
-12
-16
-17
-20
-27
-23
-19
-20
-13
-27
-26
-25
-25
-26
-19
-14
-21
-18
-19
-13
-28
-21
-18
-21
-27
-18
-13
-17
-28
-22
-29
-25
-20
-19
-28
-21
-21
-16
-11
-12
-24
-34
-18
-18
-26
-21
-19
-11
-19
-20
-10
-9
-17
-13
-23
-17
-19
-23
-13
-19
-18
-15
-18
-33
-22
-7
-18
-16
-14
-12
-24
-18
-18
-16
-15
-18
-24
-32
-21
-17
-29
-25
-24
-22
-20
-18
-7
-22
-20
-18
-13
-19
-34
-27
-15
-16
-26
-15
-21
-15
-17
-11
-14
-18
-30
-21
-10
-11
-5
-8
-15
-18
-14
-24
-18
-17
-15
-20
-6
-1
-4
-2
1
0
-6
-5
8
6
-8
-16
-12
-16
-17
-16
-19
-21
-13
-13
-7
-11
-6
-14
-23
-34
-26
-16
-20
-21
-20
-23
-23
-24
-21
-27
-17
-6
-23
-15
-6
-34
-25
-21
-16
-27
-30
-23
-22
-18
-5
-2
-12
-12
-14
-21
-15
3
16
32
52
60
73
98
118
151
185
186
159
134
91
67
39
10
4
-5
-3
-3
2
-3
-10
3
1
-9
-10
-23
-15
-19
-28
-32
-27
-30
-31
-30
-19
-17
-22
-16
-19
-18
-23
-30
-27
-34
-29
-22
-18
-18
-13
-20
-19
-30
-21
-22
-22
-13
-23
-19
-17
-20
-19
-29
-29
-19
-27
-34
-24
-12
-6
-29
-33
-19
-8
-15
-18
-20
-10
-12
-13
-11
-11
-28
-10
-15
-15
-8
-7
-9
-12
-2
-5
-7
-10
-11
-9
-5
3
0
4
0
-8
-2
2
-10
-22
-1
19
18
10
21
11
12
13
17
14
11
19
11
25
21
13
18
27
23
33
31
35
33
35
28
34
32
18
31
18
15
24
24
23
27
33
28
24
19
7
2
9
15
16
2
-4
0
7
7
0
4
6
2
-8
-9
-10
-16
-7
-8
-16
-17
-12
-6
-9
-2
-14
-14
-28
-18
-24
-8
-5
-16
-14
-18
-24
-19
-14
-12
-21
-19
-18
-23
-21
-21
-19
-14
-25
-24
-19
-15
-16
-14
-17
-22
-13
-12
-19
-27
-18
-16
-15
-20
-20
-18
-31
-25
-20
-16
-10
-12
-5
-20
-22
-21
-12
-14
-18
-28
-31
-12
-23
-15
-14
0
-6
1
-19
-23
-25
-23
-17
-28
-17
-11
-13
-23
-8
-16
-14
-13
-7
-8
-3
-19
-11
-9
-28
-25
-16
-21
-23
-19
-11
-10
-12
-10
-19
-23
-7
-17
-16
-15
-19
-29
-11
-3
-14
-19
-15
-14
-15
-15
-18
-14
-18
-22
-23
-10
-7
2
-6
-25
-9
-8
-6
-7
-15
-7
-2
-16
-22
-16
-9
-8
-3
-12
-14
-13
-1
-4
16
10
-4
-7
2
5
5
-5
5
-1
-6
-8
-2
-11
-8
-4
-24
-12
-17
-13
-19
-9
-15
-6
-6
-13
-12
-14
-9
-15
-19
-6
-8
-12
-12
-18
-17
-18
-19
-22
-7
-4
-3
-13
-23
-20
-17
-24
-16
-4
-5
-12
-7
-5
-1
5
14
40
49
71
87
103
121
148
186
186
150
136
109
91
70
34
8
5
1
-9
-8
-7
4
6
9
-10
-2
-18
-20
-29
-10
4
-6
-2
-18
-9
-13
-11
-15
-30
-26
-22
-5
-21
-27
-16
-18
-20
-17
-17
-26
-19
-4
-10
-16
-16
-12
-21
-6
-14
-29
-14
-12
-26
-11
-10
-20
-13
0
-14
-15
-6
-5
-17
-10
-11
-11
-11
-1
-8
-13
-4
-7
-11
-12
-6
-7
-4
2
1
4
-9
-9
-2
2
6
-2
-9
-5
-2
1
17
14
0
7
20
13
12
19
4
0
17
26
25
31
40
35
23
22
20
28
28
41
42
38
38
36
33
44
33
34
39
39
35
37
41
36
36
34
40
30
27
37
25
25
36
23
22
17
17
26
21
25
24
17
11
17
7
-13
-11
6
4
6
8
10
2
-1
0
-9
-9
1
-1
5
-15
-15
-13
-14
-19
-14
-1
-4
-4
0
-5
-16
-21
-14
-15
-13
-17
-5
-4
-4
-5
-12
-4
-15
-17
-17
-10
-8
-3
-8
-3
-3
-16
-13
-5
-13
-13
-11
-19
-10
-12
-8
-15
-15
-8
-11
-19
-9
-12
-20
-22
-6
-2
-9
-15
-12
-16
1
8
-11
-6
-8
-7
-6
-12
-5
-9
-3
-6
-11
5
-3
-13
-8
1
-1
-11
-11
-8
-5
-12
-19
-11
-14
-15
-17
-10
-3
1
-6
-1
-4
-8
-6
-14
-28
-17
-10
-9
-12
-3
-2
-15
-7
-1
-2
-20
-6
-1
1
-12
-6
-18
-5
-14
-7
-1
-3
-2
-14
1
1
7
-9
-4
-7
6
14
19
5
5
0
1
11
5
5
-5
8
-5
4
-4
0
-7
-7
-9
-10
-20
-2
-14
-4
-2
2
-1
-25
-11
-14
-8
-8
-21
-10
-10
-6
-5
-13
-7
-14
-16
-4
-16
-4
-9
-20
-19
-9
2
-5
10
19
2
-1
-10
-2
19
33
50
70
92
106
131
167
189
177
150
137
113
97
50
29
5
-9
4
13
20
7
3
-5
-3
4
-1
-4
-12
-17
-11
-5
-17
-16
-3
-14
-10
-13
-12
-10
-2
-18
-25
-25
-20
-18
-12
-8
-8
-15
-18
-20
-25
-20
-7
-7
-1
-12
-17
-14
2
-21
-17
-19
-2
-5
-3
-10
-13
-18
-13
-10
-12
-11
-18
-9
-3
-6
-9
-9
-2
-6
-16
-12
15
-3
-22
-13
8
-5
-3
-8
3
0
10
7
-1
7
13
6
2
3
6
2
8
17
12
10
20
23
10
12
24
21
27
32
14
25
21
29
22
32
25
33
28
17
36
37
42
28
28
41
43
27
41
37
34
36
39
33
30
26
25
36
17
9
14
22
19
19
19
7
-9
5
15
14
15
15
5
0
4
-4
-20
-9
-1
-5
-13
-9
-2
9
5
-7
-7
-10
-13
-10
-10
-5
-5
-11
-18
-14
-7
-8
-2
-3
-6
-11
-14
-19
-1
-9
-20
10
-8
-20
-9
-4
-9
-13
-12
-17
-17
-7
-8
-7
0
-6
-7
-9
-7
-18
-12
-5
-4
-9
-8
-11
-12
-11
2
-4
-13
0
-8
-4
-7
-1
-9
-11
-7
-10
-9
3
9
10
3
2
2
-6
-15
-10
-6
2
-5
-3
1
-6
-15
-5
-2
-2
-7
1
-1
1
7
-2
-13
-2
4
-2
-5
-1
2
-4
2
-8
-7
-8
-1
-15
-3
14
4
-1
1
-4
-6
5
2
-12
-8
8
-2
-3
2
-5
0
5
1
13
15
-1
4
-11
-5
-9
5
9
1
7
15
14
18
19
23
6
-9
5
20
8
6
12
4
-7
-1
-13
-9
-12
-4
4
-3
9
-5
-3
-3
0
-4
1
-11
-1
16
7
0
-5
1
-2
-1
4
-13
-11
4
9
-4
-13
-4
-10
-3
4
3
-4
12
0
5
16
20
29
44
69
80
92
119
133
167
182
182
154
140
121
102
69
43
18
12
10
25
27
9
2
-1
-6
6
-2
-4
-1
4
-13
-1
2
-12
-1
-1
-8
-8
-1
-4
-11
-10
-5
-13
1
7
2
-5
1
-2
-14
-9
-1
-4
0
0
7
-3
-2
4
-5
-6
-4
-9
-1
4
7
-3
6
5
-4
-3
3
-1
1
16
10
16
8
6
1
5
4
1
10
8
18
25
3
3
0
12
18
13
21
23
18
22
16
15
20
17
13
18
29
32
30
33
35
36
38
32
23
33
32
37
37
41
52
44
36
38
43
42
47
55
52
48
57
51
51
52
47
46
58
42
39
52
50
45
46
38
43
35
36
48
44
28
30
29
28
22
26
21
32
31
34
15
18
3
5
8
15
10
21
21
10
16
14
6
1
15
-2
3
8
13
7
5
5
9
8
0
6
-5
9
-5
14
2
12
-9
-4
-3
-13
8
6
8
4
-3
-3
-2
-5
-2
-10
-11
9
3
6
18
6
-10
2
13
-4
-1
-2
-6
-6
3
-4
0
12
11
7
-3
2
0
-3
5
6
-6
-4
3
4
3
8
2
0
1
8
4
10
-9
-6
3
5
1
6
3
7
2
3
5
-4
-11
6
5
3
1
-6
4
5
-4
-7
-5
10
-5
-2
4
7
7
6
-1
5
-5
3
-2
3
1
-5
-1
13
10
2
12
8
6
3
4
-7
1
-17
-7
-2
10
-2
10
15
21
21
13
9
6
7
19
21
15
21
25
14
10
10
1
2
14
14
9
10
19
18
11
6
7
2
8
-4
8
11
-4
-8
-6
-20
-17
-10
-1
2
3
1
-3
-1
-2
-1
-4
1
8
4
8
9
13
12
25
9
-5
-9
12
20
55
62
81
86
111
129
153
188
192
173
157
120
97
80
50
31
3
6
20
28
22
18
6
-6
-7
1
1
-6
-14
-7
-9
-11
-25
-13
-9
-9
-15
-7
-14
-11
-4
-10
-7
-9
1
-10
-23
-12
-5
0
-15
-7
-11
-8
-10
-5
-9
-10
-3
-13
-10
-13
-1
0
-9
-12
-20
-11
2
-8
-7
-1
1
-10
-1
-1
8
-12
-1
4
-9
0
4
-2
-2
6
1
13
14
9
2
-7
2
8
7
6
12
18
18
16
20
23
12
13
17
14
19
17
22
20
22
23
26
29
28
33
33
33
27
36
47
62
44
51
49
37
39
41
46
51
45
47
43
46
49
54
36
41
49
50
38
29
24
34
30
23
26
37
33
27
22
20
22
25
21
11
0
15
19
5
10
-3
-1
10
23
5
-4
8
4
6
8
13
1
2
-1
-1
-1
3
2
4
19
4
1
6
3
1
8
7
1
5
13
-3
-2
5
1
-7
-3
3
4
8
5
7
4
0
-11
-5
-3
-1
2
5
9
0
16
-8
-12
7
8
11
3
5
11
4
3
11
16
3
12
8
-10
-2
-2
0
1
9
9
5
17
16
6
13
19
6
10
1
9
9
15
11
12
12
5
-1
0
16
-6
5
24
7
17
20
9
-10
-5
-4
-7
-5
12
5
6
6
3
-4
10
3
-12
-3
21
16
9
13
18
5
6
13
14
11
18
2
6
13
4
7
6
3
-4
7
11
10
11
13
19
23
24
26
26
22
28
32
23
25
19
16
10
9
9
11
10
9
4
13
7
3
12
-2
10
16
20
17
4
0
1
6
5
-2
3
6
4
4
6
12
9
16
13
13
10
11
16
17
25
18
25
25
26
25
12
38
61
65
72
94
111
128
139
173
193
186
180
151
126
106
63
44
34
23
19
34
26
26
32
28
17
13
9
9
11
20
24
18
5
4
8
-4
12
6
12
19
10
8
4
13
9
27
10
-9
4
10
16
17
4
10
6
15
19
9
-2
10
8
11
8
4
0
5
6
4
1
21
15
15
9
12
8
10
17
11
10
12
12
14
13
21
22
16
17
21
11
23
16
25
26
23
15
18
23
15
18
25
29
25
27
35
42
46
36
35
30
28
36
44
56
52
50
46
46
45
38
56
53
54
63
62
41
45
59
52
49
57
56
58
58
50
40
58
60
48
57
60
54
55
44
49
37
37
40
25
30
38
39
45
41
27
30
29
39
30
13
32
28
19
19
10
17
23
27
19
23
26
21
21
16
10
18
21
11
11
18
23
21
19
-2
3
17
10
24
21
20
21
16
19
21
6
16
12
6
3
17
12
35
24
9
9
9
0
11
17
21
13
18
15
13
10
9
21
14
11
10
9
4
1
14
14
14
17
15
5
8
13
14
16
24
0
11
11
20
13
15
16
15
14
14
14
23
16
5
9
4
20
19
9
16
7
0
9
6
10
23
9
9
17
20
9
-2
13
17
11
13
9
3
21
18
15
15
12
5
5
16
17
9
15
16
10
17
13
12
7
32
14
8
1
0
11
16
22
14
18
22
19
31
29
14
13
22
15
24
29
20
19
26
22
17
12
13
15
14
14
11
9
2
7
4
10
11
11
12
6
20
15
15
15
5
6
2
7
9
11
9
1
5
1
-2
9
9
0
-2
11
9
18
19
21
13
11
23
26
47
63
75
100
108
124
146
181
200
199
181
161
135
106
81
64
34
30
23
14
22
31
23
16
23
19
10
0
5
-7
-11
1
3
10
12
4
0
-10
-9
0
0
-1
4
4
4
-2
-4
3
6
-6
-5
0
-1
4
13
-2
-4
7
4
-12
-2
10
-3
-2
-1
-1
-3
6
4
4
5
3
1
-5
-1
-4
-3
6
7
3
7
11
6
5
11
11
7
8
-4
-1
8
13
17
10
14
5
13
7
4
10
16
9
20
18
16
29
26
20
25
24
28
16
26
33
37
34
26
33
28
32
42
43
47
38
43
40
27
30
41
46
50
49
42
43
38
41
44
31
42
36
37
40
32
32
25
34
26
20
14
18
20
29
29
32
22
20
19
21
11
2
12
4
7
0
7
2
1
1
-1
9
4
8
3
-5
-12
-4
1
4
0
-4
14
10
4
-3
5
-2
-8
-10
0
1
0
8
2
-2
-4
-14
-7
-2
11
9
8
-2
4
7
-8
-7
-3
-13
-1
-2
3
-4
-7
-7
-5
-11
-12
5
1
-8
-16
-10
-2
6
0
-7
-9
-1
-2
0
6
-6
-3
-4
-2
-5
2
-4
-4
-3
-10
-7
2
7
-1
-8
-7
0
-1
2
0
3
-1
-15
-6
-14
-9
-1
-4
7
-1
-2
-2
-7
-6
-6
-10
-11
-17
-2
1
-9
-7
-3
-6
-12
-12
-4
-5
-1
-5
-2
-3
4
-13
-4
-6
4
-2
-4
-6
-1
-12
-11
-11
-6
-8
-7
-12
-2
0
0
-7
2
9
10
8
10
11
3
9
13
9
6
2
9
-4
1
-2
-2
-12
3
0
-12
-15
-1
-7
-13
-5
1
-4
-9
-4
-3
-5
-8
-6
-19
-24
-15
-16
-6
8
-2
-6
3
-12
-13
-9
-6
-10
-9
1
5
4
-2
-7
8
8
19
36
46
51
69
101
113
131
164
200
212
183
152
104
100
72
47
20
13
25
21
15
23
19
-4
-2
12
0
-12
-1
2
-12
-12
-7
-14
-13
3
0
-13
-17
-8
4
2
-11
-8
-18
-5
-5
-10
-7
-5
-11
-7
-2
1
-15
-5
-20
1
-3
-14
-6
-6
5
-6
-4
-5
2
1
3
-1
-6
-10
-2
4
-5
-2
-7
-4
5
12
5
1
-5
-9
6
-3
-4
1
8
9
0
16
21
11
12
7
6
9
13
17
13
15
15
16
17
18
17
24
27
26
32
18
16
27
27
32
30
35
45
37
40
43
44
45
50
45
43
45
54
56
41
48
42
39
43
53
42
44
51
54
41
40
35
42
28
29
27
31
36
28
21
29
28
22
16
24
13
20
19
14
14
16
2
18
19
5
10
11
17
8
0
10
9
4
1
-3
5
8
17
3
11
15
5
-9
0
-1
1
8
17
-1
2
7
-3
-12
-3
-3
3
13
15
1
0
-5
2
-5
2
3
-4
-2
8
14
5
-1
-5
-8
2
3
1
0
7
5
15
2
-6
7
0
-1
2
4
1
3
4
5
4
7
3
-5
-12
5
5
4
2
-3
0
2
8
8
12
-1
4
-4
-9
-10
-6
5
-3
9
-6
3
4
0
-1
6
5
1
-7
-3
12
8
-2
-9
-10
4
4
-15
-2
5
-7
3
4
1
16
6
-4
-1
-1
-1
-4
8
2
3
0
-2
2
-2
4
-6
3
18
26
26
30
27
8
16
3
12
14
12
10
9
-1
1
9
7
6
-10
-7
6
14
7
-2
8
-3
0
-3
-16
-2
-5
3
-1
-5
2
-10
-9
-13
-7
-4
7
2
3
-5
-5
0
0
1
-4
7
17
9
8
15
16
7
23
38
45
64
90
91
115
151
177
198
186
155
120
106
80
50
23
12
16
12
19
19
28
19
5
6
-5
-6
-8
4
4
-14
-9
-2
-2
-2
-9
-9
-10
1
-15
-18
-20
-5
-2
3
-6
-16
-16
-11
-9
-10
-9
-6
-2
0
-3
0
-11
-2
-4
-16
-9
-6
-9
7
2
6
0
-5
6
7
-6
0
-9
2
2
-1
-8
1
-10
-12
-11
4
14
0
4
15
-1
-5
0
5
14
8
9
18
20
15
-4
11
10
9
20
21
23
9
15
18
12
28
20
8
25
29
24
31
31
30
30
35
43
42
21
31
50
49
35
39
34
33
35
46
51
50
40
45
45
36
38
37
37
27
36
34
30
35
38
26
24
27
27
14
23
32
8
5
12
16
6
9
1
3
5
14
3
5
8
-1
-11
-7
-3
-5
-2
8
-6
-14
-8
4
-6
-2
4
7
11
-1
-12
-12
-11
-20
-2
-10
-5
-9
6
1
-20
-11
0
-7
-5
-7
-9
-20
3
1
-5
-2
-9
-15
-5
-6
-4
-6
8
-4
-6
-7
-4
-11
-7
-7
-9
-13
-7
-5
-9
1
-3
-11
-15
-13
-15
-13
-12
-6
1
-7
-4
-9
-13
-5
-9
-5
6
-2
-4
2
-11
-11
-13
-20
-5
-10
-5
-6
-2
4
-2
-8
-11
-18
-11
0
10
7
0
-7
-15
-14
-22
-8
-15
-15
-14
-9
-7
10
-1
-4
-10
-17
-18
-13
-4
-8
-2
-1
-11
-7
-4
0
0
1
-1
4
0
-8
-10
-11
-1
8
7
6
9
5
17
12
15
9
3
5
4
18
8
2
0
5
-2
3
9
4
-9
-3
-9
-9
-3
-1
-6
-15
-1
-6
-8
2
-6
-5
-6
-1
0
-13
-12
-16
-5
-1
-3
-6
-13
-8
-12
-13
-8
-12
-2
10
5
-6
0
2
6
15
13
33
51
67
80
98
130
142
158
187
176
155
117
115
95
51
19
10
-3
5
12
8
8
20
26
9
10
-4
-30
-21
-30
-12
-11
1
-14
-11
-10
-10
-16
-7
-13
-14
-11
-13
-12
-12
-13
-6
-11
-22
-20
-11
-4
-15
1
7
-11
-5
-7
-11
-13
-18
-7
-2
-1
0
-16
-22
-20
-3
-7
-18
0
-5
1
-1
4
-2
-14
-21
-7
-4
0
-3
-2
4
-1
-6
-16
0
7
-3
-5
1
-2
-5
11
15
-3
1
12
4
12
18
11
7
17
11
4
12
26
20
15
17
24
27
25
16
7
23
28
29
37
32
35
37
45
22
28
36
29
39
46
44
37
34
32
37
35
31
32
38
28
29
30
26
32
7
13
37
25
20
22
23
13
23
14
0
-5
1
9
8
15
12
12
7
3
-17
-12
-1
5
2
6
17
-4
-15
-6
-7
1
-7
-8
1
-6
5
-18
-13
0
-3
-12
-6
-6
3
0
-5
-9
-14
-4
4
-2
-3
-18
-10
0
-9
-11
-10
-7
-9
-4
-1
-7
-6
10
3
3
-9
-6
-5
-10
-6
-6
7
2
4
-14
2
-5
-2
1
-7
-6
3
-2
-1
-4
-1
-7
-7
-2
-4
-10
3
7
11
-4
-7
-13
-9
-8
-3
-9
-3
1
-9
-10
-2
-11
-10
-3
-6
-1
-1
-6
-8
-8
-5
-7
0
-9
-11
-14
3
3
-3
0
-2
-6
-6
3
-4
-10
-5
-8
0
-10
-5
-3
5
0
4
-10
1
8
7
16
20
21
20
8
-2
6
9
7
5
12
19
12
13
8
6
-8
9
5
-7
-13
-10
-4
2
1
-2
-8
-4
-9
-3
-1
1
-1
-5
-18
-8
-5
1
-1
-7
-11
-8
-15
-10
-10
-15
-4
6
12
9
4
11
-1
-7
6
-4
11
35
49
56
73
94
99
115
156
192
207
179
139
104
97
67
39
11
5
-3
18
19
14
17
9
-4
0
9
-3
-7
-12
-1
-3
1
-6
-7
-17
-15
-14
-10
-6
6
-11
-2
3
-10
-20
-16
-11
-10
-16
-12
-7
-16
-6
-7
-10
-9
-8
-7
3
6
-4
-15
-13
-15
-11
-5
-15
-6
6
-13
-18
-6
-7
-2
3
1
1
-9
-2
-2
0
-4
-7
-5
-7
-8
-9
-1
7
-5
3
17
13
3
7
7
5
5
4
10
13
7
9
14
6
15
9
26
25
27
10
23
21
17
23
34
32
23
36
42
34
31
37
42
38
40
28
29
38
45
42
32
32
33
28
32
33
32
32
36
41
30
35
26
29
30
22
17
21
15
16
16
15
-2
1
5
10
15
18
7
6
11
7
4
7
4
-4
8
3
0
-1
-3
-10
-10
3
2
-1
6
3
1
4
10
-2
-6
-10
-8
14
5
12
-14
-7
-4
-4
-7
-6
-2
-2
-2
3
-1
-16
0
1
1
-19
-8
-3
1
2
5
6
6
-3
-5
-6
-4
-4
5
8
3
-6
3
-8
-4
2
1
2
0
5
4
2
-3
0
-9
-9
1
3
3
0
5
12
5
-12
1
-6
-8
-1
13
5
-4
1
1
-4
3
6
0
-1
0
2
2
10
7
-3
-9
-12
-7
-7
2
-5
-5
11
13
11
10
0
2
2
4
-1
-9
-7
-2
1
-2
3
11
21
27
14
20
8
14
20
19
16
2
7
11
2
-4
-3
2
-4
-4
4
-4
-5
1
12
2
6
2
-6
-3
-2
-9
-7
-7
-12
-4
7
-9
-1
-3
-12
-22
-9
-2
3
8
10
-15
-19
-1
5
11
1
-2
13
10
16
34
52
59
73
100
108
133
159
188
191
178
151
122
109
84
57
34
16
17
21
22
22
21
11
14
15
8
4
-4
-1
-16
-6
9
-2
-4
-4
1
-1
-6
-4
-5
-5
-8
-12
-9
-9
-4
-3
-4
-9
-5
-10
-9
-16
-6
6
-10
-7
-4
-4
-14
-9
-9
-10
0
4
4
-5
-3
9
0
-3
-11
-9
8
2
-2
-8
2
4
2
3
3
-5
-8
6
3
0
3
1
8
0
7
7
11
11
12
11
14
15
5
14
22
12
17
20
20
24
27
18
23
29
30
28
36
32
31
32
34
36
35
37
38
32
35
32
35
52
46
40
37
39
41
35
44
49
42
35
34
45
48
39
33
38
40
41
30
37
39
23
16
20
27
12
27
31
18
22
16
16
21
15
18
8
22
17
19
15
14
8
9
-4
-9
-2
10
7
24
27
7
16
19
6
4
2
17
18
11
10
16
7
7
-6
4
12
11
14
11
9
7
7
13
-1
3
9
13
15
7
7
2
2
3
2
6
9
10
8
17
5
3
11
16
4
-4
-4
12
12
20
19
7
5
18
4
2
8
14
15
5
6
17
10
9
9
9
10
13
10
16
22
12
7
6
6
17
7
10
2
-3
8
13
0
9
9
9
7
11
5
16
10
22
7
13
21
12
20
24
27
24
34
31
27
23
20
21
23
34
21
16
27
19
9
1
12
-4
22
12
6
10
13
9
7
8
12
9
0
10
16
14
13
7
5
4
0
6
7
12
11
4
2
5
2
-7
18
18
21
22
34
31
20
9
3
23
33
51
58
89
108
132
148
180
206
211
171
142
119
103
75
42
29
18
12
28
28
15
22
21
23
6
21
-1
-7
-2
-4
-3
1
-1
3
-1
11
2
-1
0
-13
0
4
0
7
3
0
-6
-11
0
-5
1
-7
6
11
-4
-4
-2
-1
-6
1
10
15
5
-6
3
6
3
4
10
3
2
8
10
1
0
5
-1
3
10
8
5
10
11
11
13
18
14
4
22
11
19
16
19
23
19
14
18
17
8
7
28
24
17
27
39
28
27
28
32
34
33
39
40
40
38
39
43
31
36
47
54
49
51
49
50
48
50
51
54
48
50
62
55
48
53
47
47
35
40
37
44
50
37
35
49
41
44
41
43
13
34
47
21
9
26
31
24
12
12
12
18
22
24
20
11
7
9
9
6
17
10
15
23
16
4
-6
6
-4
4
4
17
3
3
11
16
8
8
10
4
9
12
10
4
-1
2
8
1
6
-7
3
2
-1
2
16
20
-2
1
5
7
11
10
-2
2
-9
-3
7
13
6
8
11
12
2
9
14
6
-6
-3
-2
-3
-1
5
7
1
11
0
-8
4
1
5
13
7
13
-4
2
-6
-7
0
-3
-14
-1
2
-5
8
8
2
2
-2
1
-1
-3
16
5
11
18
14
14
12
11
26
23
16
11
8
12
15
19
14
8
9
3
22
6
7
5
-7
-4
-4
-7
-7
-1
-4
-3
-4
4
0
-10
-9
-5
-2
-8
11
-8
-4
-3
-9
-6
-8
5
6
-4
-10
-17
-10
-5
-8
-2
3
3
6
18
-7
15
11
24
23
39
52
70
87
113
131
160
187
210
189
159
118
102
78
51
24
10
17
26
12
18
23
9
12
14
13
12
-9
-6
-1
-1
-18
-13
-10
-1
-8
0
3
4
-14
-6
-11
-5
-6
-9
-9
6
-1
-13
-6
-11
-7
-6
1
3
-8
0
-3
-1
-6
-24
-15
-8
0
2
4
2
2
1
-5
-7
-8
7
-3
3
3
1
9
0
-5
-8
3
-7
-12
10
9
-1
2
13
1
9
26
6
11
13
9
8
20
10
13
22
17
17
12
15
15
24
31
19
22
22
29
31
29
34
32
27
30
30
30
29
28
32
41
36
38
38
43
35
36
37
40
30
35
44
31
31
43
36
32
33
33
24
33
27
16
19
19
13
21
17
12
7
11
17
18
16
10
3
-1
-6
-20
3
-1
3
-11
10
10
-6
-11
-6
-19
-17
-8
-4
-9
-5
-1
-8
-5
-9
-17
-8
-14
-17
-16
-7
-11
-6
-4
2
-9
-16
-9
-11
-15
-9
1
-8
-13
-4
-7
-9
-5
2
-5
-8
-15
-16
-17
-19
-13
-13
-12
-13
-12
-8
-5
-9
-26
-12
-4
-10
-2
-11
-13
-12
-20
-22
-18
-21
-13
-17
-9
-13
-5
3
-21
-29
-18
-22
-22
-7
0
-9
-12
-8
-25
-12
-10
-13
-18
-17
-7
-21
-18
-20
-16
-21
-19
-18
-11
3
5
2
-11
-13
-8
-3
3
-1
-2
5
2
-8
-13
-5
-16
-14
-7
-14
-16
-11
-20
-19
-20
-14
-21
-23
-23
-22
-18
-15
-26
-27
-35
-25
-27
-21
-18
-21
-24
-13
-9
-18
-26
-22
-29
-23
-24
-22
-17
-6
-6
-16
-13
-4
-26
-22
-24
-11
16
39
49
72
76
106
120
147
184
177
149
129
89
79
46
18
2
-3
1
-3
1
13
4
-1
-2
-13
-16
-20
-27
-24
-27
-25
-25
-19
-17
-17
-26
-17
-33
-31
-27
-22
-22
-24
-28
-27
-23
-26
-14
-19
-17
-25
-32
-19
-22
-31
-21
-17
-25
-26
-18
-24
-15
-8
-20
-20
-19
-25
-21
-23
-16
-24
-21
-14
-9
-22
-27
-24
-27
-32
-23
-4
-7
-10
-4
-16
-17
-13
-12
-18
-19
-4
2
-6
-8
-7
-2
8
-3
4
-4
-4
-4
3
4
9
7
-3
1
5
23
22
11
15
18
10
1
12
13
17
38
30
27
30
30
25
24
27
33
16
27
22
27
28
35
16
16
23
17
23
32
26
15
11
21
18
3
12
17
15
21
9
13
-1
-13
-11
1
1
-2
4
7
-1
-6
-4
-11
-17
-7
-5
-13
-16
-17
-15
-18
-13
-10
-2
-11
-18
-18
-14
-7
-8
-14
-3
-17
-24
-13
-12
-19
-11
-22
-16
-6
-6
-18
-4
-15
-31
-21
-5
-4
-21
-24
-16
-12
-14
-16
-10
-10
-12
-5
-11
-16
-12
-12
-16
-7
-9
-19
-13
0
-8
-18
-17
-11
-14
-18
-16
-15
-11
-9
-9
-3
-5
-4
-1
-28
-11
-23
-15
-13
-17
-9
-14
-18
-16
-7
1
-13
5
5
-6
-17
-9
-17
-15
-15
-10
-15
3
-4
0
-5
6
1
1
0
-1
-2
-2
9
-5
2
15
3
-8
-7
-3
-3
-4
-4
-6
-7
-12
-23
-22
-3
-11
-11
-9
-17
-12
-6
-7
-16
-18
-10
-15
-17
-5
-15
-10
-15
-19
-15
-11
-20
-12
-9
-13
-12
-3
7
3
0
-3
-4
4
10
10
28
40
53
63
74
101
123
153
186
177
152
126
105
73
38
15
-13
-10
-5
8
4
14
-1
-6
-14
-7
-5
-6
-16
-11
-9
-3
-16
-21
-22
-24
-13
-22
-16
-12
-10
-7
-6
-13
-18
-11
-20
-23
-16
-7
-12
-20
-17
-22
-10
-6
-3
-20
-4
-7
-12
-16
-12
-4
-9
-5
-9
-7
-1
-9
-7
-10
-13
-18
-19
-4
-12
-2
-9
-9
-5
-2
1
-15
-6
-7
-10
-11
-1
1
0
-12
-1
-2
2
7
8
7
14
-1
6
16
17
15
0
13
14
19
19
23
26
10
24
16
16
20
31
39
25
28
36
36
42
24
16
39
29
28
37
39
30
41
32
33
24
29
33
25
31
31
29
22
24
29
16
13
17
19
20
17
16
24
3
4
6
-3
-8
2
2
1
5
-1
-2
-12
-6
-14
-8
-5
1
-2
-4
-5
-3
-9
-5
-11
-13
-18
-14
-9
-14
-9
-14
-9
-11
-13
-18
-9
-5
-3
-3
-1
-6
-15
-27
-17
-14
-7
-7
-7
-13
-5
-15
-21
-12
-11
-18
-9
-2
-1
-5
-18
-12
-7
-11
-14
-18
-14
-12
-10
-14
-19
-12
-12
-11
-12
-12
-11
-3
-12
-11
-2
-22
-10
-11
-8
-17
-18
-24
-12
-12
-12
-8
-12
-14
-13
-12
-9
-15
-10
-4
-6
-17
-10
-7
-17
-19
-7
-17
-12
-5
-5
-14
-13
-16
-11
-15
-9
10
10
-7
10
4
-1
2
-8
-4
0
-3
-11
-11
-12
-19
-8
-2
-10
-28
-9
-15
-5
-9
-10
-17
-12
-19
-23
-8
-15
-19
-11
-18
-11
-26
-22
-23
-23
-10
-8
-18
-18
-14
-15
-14
-12
-1
-17
-11
-5
-13
-10
-5
-2
15
28
44
54
82
104
110
142
173
174
140
121
93
79
43
20
6
-1
-8
3
-1
-4
-11
-9
-12
-3
-8
-19
-26
-22
-23
-25
-10
-12
-20
-25
-31
-29
-19
-29
-30
-30
-34
-22
-19
-18
-23
-31
-21
-31
-25
-15
-17
-28
-24
-13
-12
-19
-27
-30
-26
-20
-22
-26
-24
-16
-21
-20
-17
-24
-22
-25
-27
-20
-11
-12
-11
-24
-11
-14
-11
-12
-21
-15
-4
-7
-17
-14
-12
-11
-9
-3
-1
-18
-5
-3
-10
-15
-2
-8
-6
-1
-4
-3
-3
-14
4
3
0
0
15
13
2
4
17
8
0
7
23
18
22
22
13
10
27
23
16
25
23
18
17
18
19
13
23
30
25
23
6
9
9
18
16
13
12
9
-1
4
-5
0
-5
-6
2
-8
8
1
-4
-3
-12
-19
-12
-15
-15
-2
-7
-16
-16
-8
-13
-10
-24
-14
-27
-25
-11
-11
-18
-20
-24
-22
-13
-22
-12
-33
-26
-20
-13
-6
-13
-20
-17
-26
-31
-24
-35
-26
-20
-21
-15
-14
-19
-20
-14
-22
-15
-22
-35
-30
-29
-24
-19
-24
-26
-21
-17
-18
-16
-13
-17
-21
-27
-25
-27
-33
-23
-20
-22
-19
-20
-21
-19
-19
-17
-24
-24
-36
-33
-18
-37
-30
-16
-19
-29
-20
-25
-15
-18
-27
-31
-22
-27
-29
-27
-25
-22
-22
-30
-29
-25
-28
-24
-24
-26
-27
-29
-22
-27
-14
-24
-29
-25
-28
-17
-13
-24
-21
-7
-1
-15
-18
-15
-12
-14
-13
-15
-22
-21
-17
-16
-19
-18
-21
-23
-23
-23
-18
-26
-30
-37
-30
-33
-31
-22
-26
-34
-27
-33
-27
-31
-29
-37
-40
-25
-19
-29
-27
-22
-27
-34
-32
-25
-39
-35
-25
-24
-14
-13
-29
-33
-21
-27
-17
-12
6
24
44
69
92
106
129
162
178
169
137
113
85
74
38
17
-8
-17
-17
-2
-3
-7
-10
-10
-24
-26
-16
-15
-34
-31
-37
-37
-39
-31
-44
-38
-35
-29
-35
-26
-30
-35
-35
-44
-44
-38
-36
-35
-29
-24
-20
-33
-26
-30
-45
-37
-35
-28
-36
-42
-38
-32
-25
-32
-35
-31
-27
-21
-23
-44
-31
-35
-23
-28
-31
-32
-30
-30
-32
-24
-20
-28
-31
-16
-24
-31
-22
-28
-31
-29
-23
-16
-15
-24
-28
-22
-13
-6
-9
-27
-18
-15
-19
-22
-7
-3
-13
-11
-17
2
1
-3
6
2
-2
7
4
2
4
-1
6
17
16
10
11
20
12
2
10
12
21
24
15
27
10
8
7
4
8
15
4
7
1
0
-14
-4
-6
-9
-12
0
-7
-4
-3
-9
-5
-18
-33
-23
-23
-24
-26
-19
-24
-21
-26
-23
-25
-27
-23
-25
-26
-36
-27
-26
-31
-31
-43
-33
-20
-16
-23
-29
-41
-38
-26
-30
-27
-40
-34
-20
-14
-21
-28
-20
-31
-28
-32
-38
-28
-25
-29
-28
-16
-29
-34
-31
-30
-37
-34
-31
-28
-35
-28
-31
-40
-25
-27
-29
-14
-19
-33
-28
-24
-35
-28
-34
-31
-22
-27
-33
-40
-38
-33
-54
-38
-26
-27
-32
-26
-24
-28
-28
-23
-23
-33
-32
-35
-31
-25
-22
-22
-31
-48
-43
-40
-35
-34
-29
-30
-24
-22
-31
-25
-23
-28
-40
-38
-40
-37
-29
-30
-27
-29
-29
-24
-18
-33
-29
-23
-26
-41
-32
-38
-41
-32
-28
-28
-28
-23
-25
-17
-8
-10
-10
-18
-12
-17
-10
-24
-13
-14
-25
-18
-21
-35
-31
-41
-32
-27
-22
-34
-31
-33
-40
-34
-35
-45
-32
-26
-27
-27
-22
-37
-39
-33
-40
-49
-39
-26
-28
-36
-30
-42
-31
-33
-45
-27
-24
-32
-29
-23
-20
-34
-38
-37
-28
-11
14
23
29
37
65
77
114
148
173
159
151
125
92
81
60
14
4
-9
-17
-10
-7
-8
-12
-23
-31
-30
-28
-43
-39
-31
-30
-45
-38
-42
-45
-44
-35
-39
-48
-51
-39
-34
-25
-37
-42
-54
-42
-36
-42
-33
-20
-31
-32
-38
-52
-45
-29
-40
-45
-40
-26
-35
-36
-36
-39
-37
-31
-27
-38
-38
-30
-30
-37
-34
-44
-41
-40
-40
-33
-36
-23
-26
-34
-42
-33
-32
-31
-25
-30
-29
-20
-23
-22
-24
-19
-23
-23
-28
-27
-24
-11
-18
-21
-9
-17
-17
-16
-5
-12
-11
-10
-5
0
1
-1
9
1
1
1
13
4
15
12
10
15
18
-1
3
18
16
17
4
5
18
11
2
8
10
15
8
17
7
15
9
-4
-13
-8
-6
-11
-5
-16
-6
-19
-12
-15
-12
-20
-20
-22
-22
-17
-16
-22
-30
-26
-24
-25
-34
-24
-17
-13
-19
-34
-33
-35
-37
-42
-32
-36
-28
-25
-28
-25
-31
-28
-23
-22
-34
-33
-29
-27
-25
-42
-37
-43
-30
-31
-36
-28
-28
-30
-26
-33
-35
-33
-34
-24
-35
-33
-35
-26
-26
-30
-31
-45
-44
-26
-37
-31
-30
-33
-43
-37
-30
-37
-38
-33
-29
-31
-32
-32
-35
-29
-44
-44
-35
-29
-30
-20
-32
-34
-23
-21
-46
-39
-42
-45
-37
-22
-19
-41
-25
-31
-37
-43
-31
-42
-44
-33
-24
-27
-33
-38
-31
-41
-38
-30
-42
-39
-38
-34
-26
-37
-36
-30
-36
-29
-30
-33
-26
-25
-23
-26
-34
-41
-34
-41
-31
-13
-23
-28
-30
-23
-24
-33
-30
-36
-26
-26
-28
-35
-38
-32
-18
-17
-10
-27
-35
-15
-15
-20
-19
-7
-17
-22
-24
-14
-20
-24
-30
-21
-24
-27
-27
-24
-27
-17
-23
-26
-24
-21
-24
-27
-36
-26
-31
-32
-26
-24
-25
-33
-23
-15
-15
-25
-34
-30
-31
-42
-38
-36
-20
-25
-29
-21
-15
-10
-15
-18
-17
-16
1
19
28
47
55
79
100
121
146
169
157
137
105
93
60
21
-6
-14
-15
-9
-10
-5
-15
-21
-16
-20
-20
-18
-10
-21
-19
-30
-29
-29
-23
-41
-41
-32
-26
-23
-28
-22
-28
-28
-30
-27
-14
-17
-26
-25
-21
-25
-29
-23
-27
-31
-19
-22
-15
-14
-19
-30
-35
-22
-25
-18
-13
-15
-24
-21
-22
-32
-24
-17
-20
-10
-7
-8
-8
-8
3
-38
-21
-9
-16
-25
-14
-7
-13
-18
-13
-13
-9
-2
-4
3
-4
-15
-6
-9
-16
-15
-8
-6
0
7
11
7
11
-1
0
-2
4
13
15
18
20
23
21
20
26
15
15
19
20
30
34
32
28
35
23
22
27
32
24
19
33
26
26
20
7
8
22
20
14
14
17
19
7
7
5
1
-12
0
1
2
0
-3
2
6
-10
-12
-8
-26
-20
-16
-1
-7
-10
-16
-11
-25
-21
-20
-7
-13
-21
-21
-18
-14
-20
-20
-23
-13
-10
-17
-18
-8
-24
-23
-22
-7
-31
-21
-17
-9
-16
-23
-23
-21
-26
-26
-19
-23
-13
-7
-14
-10
-18
-21
-23
-32
-29
-17
-24
-23
-11
-16
-19
-15
-29
-26
-19
-21
-13
-13
-23
-19
-13
-11
-22
-21
-29
-21
-25
-15
-15
-14
-24
-25
-28
-23
-17
-18
-19
-18
-22
-19
-22
-22
-23
-34
-27
-26
-22
-12
-8
-16
-12
-22
-23
-25
-20
-27
-32
-23
-19
-21
-21
-23
-26
-22
-15
-15
-18
-15
-20
-20
-19
-21
-18
-16
-13
-32
-25
-13
-22
-33
-28
-24
-27
-25
-17
-7
-10
-10
-18
-23
-20
-21
-19
-10
-19
-21
-22
-15
-8
-10
-7
-2
-15
-11
-4
-5
-17
4
-5
-6
-14
-12
-10
-5
-3
-16
-22
-16
-24
-9
-21
-27
-12
-17
-20
-23
-22
-21
-38
-26
-13
-26
-12
-18
-24
-26
-24
-20
-24
-23
-25
-22
-26
-25
-27
-35
-24
-16
-14
-18
-7
-20
-15
-9
-2
-10
2
25
35
46
71
84
106
136
157
179
171
137
112
95
63
25
18
4
-6
-9
-1
-11
-8
2
2
-13
-13
-17
-26
-28
-14
-23
-29
-30
-24
-25
-21
-19
-28
-25
-35
-29
-28
-31
-23
-37
-28
-36
-30
-20
-12
-17
-22
-24
-28
-28
-23
-24
-26
-37
-23
-28
-24
-31
-27
-32
-25
-24
-27
-24
-11
-31
-24
-28
-22
-20
-16
-20
-33
-24
-18
-9
-15
-9
-20
-25
-25
-27
-27
-18
-16
-13
-9
-13
-7
-18
-5
-12
-17
-9
-12
-14
-6
-3
0
0
0
-3
1
8
1
3
6
9
0
6
9
13
16
11
12
20
25
25
15
16
17
24
19
17
24
33
21
12
13
17
23
23
19
23
21
32
17
10
9
8
8
1
-2
14
8
0
4
0
-8
-10
0
-7
-9
-6
-11
-14
-12
-10
-15
-16
-21
-2
-9
-8
-10
-28
-26
-18
-21
-26
-20
-25
-23
-15
-9
-14
-13
-7
-18
-20
-18
-32
-27
-18
-19
-22
-24
-29
-24
-17
-19
-24
-19
-7
-13
-26
-21
-15
-21
-26
-33
-36
-21
-18
-11
-19
-19
-40
-36
-26
-33
-29
-16
-11
-17
-27
-26
-24
-26
-17
-24
-24
-20
-16
-18
-19
-19
-23
-21
-20
-26
-29
-19
-12
-14
-19
-10
-17
-14
-18
-40
-28
-32
-30
-31
-33
-27
-22
-23
-26
-19
-23
-28
-12
-15
-20
-21
-35
-36
-21
-23
-29
-39
-30
-19
-16
-29
-25
-20
-24
-23
-26
-22
-15
-13
-8
-27
-20
-31
-39
-41
-31
-23
-19
-14
-24
-25
-31
-30
-26
-28
-30
-18
-13
-16
-17
-27
-24
-30
-30
-14
-27
-22
-10
3
-8
1
-12
-16
-3
-18
-15
-12
-6
-8
-15
-16
-19
-20
-25
-27
-32
-12
-16
-18
-18
-13
-28
-27
-33
-31
-29
-9
-9
-26
-25
-22
-21
-34
-29
-27
-27
-31
-31
-27
-20
-24
-17
-30
-27
-30
-32
-21
-20
-17
-10
-18
-21
-26
-19
-11
23
27
37
59
77
95
120
151
184
178
149
132
113
96
67
35
4
-5
-5
-1
0
13
12
1
-3
-10
-15
-20
-23
-40
-37
-27
-22
-22
-24
-33
-31
-27
-32
-22
-19
-24
-34
-25
-27
-32
-30
-24
-31
-29
-28
-17
-36
-24
-21
-35
-34
-20
-19
-27
-30
-26
-21
-19
-22
-32
-24
-20
-30
-19
-13
-12
-29
-14
-21
-20
-17
-28
-20
-25
-26
-26
-20
-24
-21
-14
-15
-17
-6
-21
-23
-11
-14
-3
-17
-11
15
-7
-14
-7
-13
5
1
-11
6
-4
-6
0
4
10
14
15
9
8
18
8
11
1
16
21
28
31
21
25
31
24
23
23
21
16
28
28
40
25
30
16
22
26
21
21
29
26
20
13
15
8
13
15
12
7
11
1
3
2
5
-2
3
0
-15
-20
-15
-4
-5
-3
-11
-21
-14
-13
-25
-10
-1
-19
-9
-6
-11
-14
-12
-17
-14
-17
-18
-14
-8
-24
-22
-18
-21
-19
-20
-13
-9
-6
-8
-17
-25
-27
-18
-28
-37
-6
-12
-20
-20
-20
-21
-11
-14
-13
-16
-26
-25
-26
-17
-17
-23
-12
-24
-15
-19
-16
-19
-23
-22
-14
-19
-15
-13
-12
-15
-16
-11
-26
-19
-12
-20
-26
-10
-15
-17
-8
-9
-17
-11
-15
-24
-20
-10
-6
-11
-20
-17
-28
-19
-16
-27
-26
-15
-10
-19
-11
0
-27
-21
-16
-12
-8
-15
-21
-17
-9
-15
-18
-18
-14
-24
-11
-24
-19
-17
-6
