-37
-48
-39
-40
-27
-9
-10
-8
-18
-22
-37
-40
-43
-35
-27
-16
5
7
-4
-27
-40
-44
-41
-36
-31
-9
-10
-2
-3
-17
-37
-42
-40
-35
-23
-13
-7
-8
-9
-31
-39
-39
-41
-32
-26
-13
-12
-14
-16
-32
-49
-56
-45
-25
-16
-4
-14
-9
-22
-30
-25
-34
-40
-37
-23
-10
-2
-13
-10
-26
-46
-49
-44
-36
-28
-19
-7
-4
-16
-33
-35
-37
-37
-31
-18
-14
-6
-12
-13
-37
-56
-52
-44
-40
-19
-10
10
-9
-27
-40
-43
-44
-38
-37
-19
-3
-1
6
-6
-30
-43
-34
-25
-26
-11
-3
0
-4
-19
-29
-31
-33
-25
-30
-11
-1
5
0
-9
-25
-26
-26
-30
-26
-6
4
5
-12
-30
-45
-46
-39
-40
-29
-20
-13
-2
-9
-24
-41
-50
-48
-38
-30
-18
-10
-8
-14
-21
-39
-48
-43
-45
-39
-15
0
1
-18
-28
-37
-47
-46
-46
-32
-24
-10
-13
-18
-22
-50
-50
-50
-43
-37
-26
-14
-8
-25
-46
-50
-41
-18
1
32
63
70
80
101
116
124
112
121
113
99
86
82
62
23
-15
-48
-67
-67
-55
-40
-27
-16
-3
-6
-14
-29
-40
-33
-25
-24
-19
2
-5
-19
-27
-43
-44
-37
-25
-14
-1
1
-3
-12
-25
-37
-47
-40
-38
-15
6
7
-7
-8
-42
-47
-31
-28
-14
3
5
8
-10
-4
-19
-33
-35
-26
-14
5
11
12
-9
1
-14
-28
-28
-20
-16
2
5
10
5
5
-4
-11
-18
-19
-10
10
6
36
31
14
0
-7
-3
5
15
35
38
35
28
22
18
10
6
18
28
37
45
39
46
39
30
35
34
32
38
52
55
61
37
37
26
27
26
38
39
47
47
43
33
13
5
3
6
8
18
30
36
19
4
-1
-20
-14
-18
-15
4
17
23
14
-3
-14
-36
-40
-39
-29
-18
-13
-5
1
-4
-20
-36
-50
-34
-19
-5
5
9
0
-8
-26
-39
-36
-35
-27
-14
-8
-1
-4
-14
-35
-33
-31
-29
-30
-3
5
0
-11
-13
-28
-38
-40
-26
-22
-14
-3
13
13
11
-10
-28
-13
-1
-20
-24
-7
16
10
-5
-14
8
-2
-21
-31
-26
-23
-17
-19
-8
-8
-8
-20
-51
-65
-57
-28
-17
-13
-24
-44
-49
-52
-44
-32
-22
2
6
-10
-20
-38
-45
-48
-36
-22
-12
0
7
-3
-19
-40
-47
-52
-43
-45
-29
-17
-12
-33
-34
-36
-48
-43
-27
-26
-16
-16
-15
-21
-28
-39
-45
-52
-40
-28
-5
2
-12
-22
-32
-42
-43
-51
-27
-29
-40
-25
-19
-19
-31
-44
-49
-57
-47
-35
-17
-16
-15
-29
-38
-54
-64
-59
-33
-19
-7
5
-10
-22
-37
-43
-37
-35
-45
-26
-8
-11
-11
-14
-36
-40
-45
-47
-31
-13
-3
1
0
-8
-22
-29
-39
-30
-17
-1
0
5
-2
-12
-32
-48
-55
-45
-44
-29
-19
-15
-24
-27
-42
-39
-47
-41
-40
-32
-21
-20
-30
-32
-48
-59
-67
-46
-33
-17
-12
-6
-11
-27
-38
-42
-53
-51
-57
-33
-17
-16
-25
-34
-57
-59
-55
-54
-40
-30
-21
-14
-22
-28
-51
-61
-64
-64
-46
-17
0
9
15
19
31
50
66
95
126
152
153
141
124
89
54
25
-1
-22
-30
-40
-46
-39
-39
-39
-55
-53
-47
-38
-27
-12
-15
-18
-23
-24
-44
-52
-45
-43
-29
-22
-14
-10
-19
-22
-33
-46
-44
-31
-6
-4
-13
-27
-23
-32
-38
-40
-43
-36
-24
-13
-5
-7
-9
-22
-36
-46
-38
-15
3
4
1
-8
-12
-22
-37
-47
-36
-31
-12
0
2
2
-8
-20
-23
-24
-20
-20
-5
-5
15
32
8
-22
-38
-33
-16
-9
10
25
23
9
22
19
10
4
-1
8
27
36
35
36
30
15
6
16
18
26
47
45
44
49
44
32
22
22
21
27
46
55
49
48
54
23
12
-2
8
28
27
24
27
17
5
-9
-12
-20
-7
-5
5
11
8
-2
-14
-11
-23
-41
-26
-6
4
-12
-24
-14
-18
-29
-47
-54
-42
-29
-6
-12
-17
-18
-24
-40
-35
-40
-33
-30
-29
-11
-8
-24
-31
-55
-60
-34
-26
-14
-8
-8
-14
-21
-27
-37
-42
-43
-34
-21
-12
-8
-3
0
-24
-45
-43
-43
-36
-22
-9
0
-3
-10
-21
-42
-42
-28
-27
-15
-5
2
-5
-12
-28
-45
-41
-37
-23
-17
-11
-10
-5
-13
-12
-24
-31
-42
-31
-12
1
6
-1
-29
-46
-31
-38
-29
-20
-4
7
4
-5
-20
-33
-37
-46
-33
-24
-9
-1
16
11
-17
-27
-40
-50
-40
-27
-10
0
-5
-10
-9
-27
-43
-54
-32
-30
-5
7
8
-5
-9
-18
-31
-42
-37
-33
-21
-8
4
13
8
-23
-41
-41
-40
-29
-22
-16
-11
-19
-35
-33
-30
-33
-28
-14
4
5
-4
-21
-25
-15
-28
-34
-30
-20
-21
-2
7
5
-9
-25
-42
-28
-23
-4
11
11
8
-3
-9
-13
-30
-25
-20
-13
16
31
18
10
-10
-38
-49
-51
-27
5
14
3
-7
-16
-36
-42
-46
-24
-17
-11
-13
-9
-8
-16
-29
-53
-39
-40
-38
-16
-14
-8
-15
-16
-36
-55
-54
-41
-38
-21
-13
-1
7
-6
-40
-60
-52
-58
-47
-25
-4
12
0
-10
-42
-57
-68
-49
-45
-23
-30
-32
-38
-35
-46
-34
-5
-2
15
41
69
109
111
127
137
136
129
124
107
88
78
57
18
-22
-40
-63
-58
-56
-41
-22
-12
-13
-11
-29
-35
-36
-46
-39
-30
-8
1
1
-9
-18
-33
-48
-54
-42
-47
-15
7
3
-15
-21
-45
-40
-49
-33
-16
5
14
4
-11
-15
-34
-43
-52
-30
-11
-10
9
10
2
-16
-33
-43
-40
-19
0
14
13
16
-7
-12
-23
-24
-27
-30
1
10
6
7
5
-6
-14
-33
-12
-17
25
22
19
18
20
3
-4
-4
-4
8
22
30
37
39
24
6
9
18
19
16
38
36
38
29
31
36
33
31
30
32
51
55
59
59
48
41
37
20
26
23
44
52
52
53
47
28
7
-6
9
1
17
25
24
23
11
-20
-25
-16
-13
-16
8
10
-2
-8
-12
-27
-30
-34
-32
-23
-5
-6
0
-9
-20
-33
-39
-39
-33
-24
-8
-5
-1
-12
-28
-41
-44
-45
-43
-30
-16
-5
-7
-12
-27
-33
-41
-54
-33
-25
-11
-1
2
-7
-21
-38
-34
-46
-31
-11
0
-2
-2
-10
-25
-28
-35
-38
-43
-17
-3
5
-1
-4
-32
-49
-43
-28
-19
-17
-10
-6
-10
-5
-24
-41
-44
-34
-28
-17
-10
1
-2
-16
-28
-39
-44
-38
-23
-10
-6
-4
-13
-25
-32
-35
-43
-38
-12
-14
-20
-6
-14
-13
-21
-24
-37
-41
-40
-15
-14
-10
-1
-20
-35
-49
-52
-50
-32
-17
-5
15
5
-2
-32
-35
-45
-44
-30
-14
-6
10
-7
-25
-53
-47
-42
-32
-13
-3
-4
-8
-9
-12
-41
-54
-59
-30
-29
-8
-2
-5
-7
-15
-28
-29
-33
-42
-28
-23
-13
-8
-1
-15
-22
-22
-23
-14
-7
10
12
6
-4
-12
-23
-28
-19
-16
-25
5
12
20
2
-16
-37
-52
-45
-41
-26
2
11
-1
-24
-36
-44
-50
-34
-28
-8
-2
-2
-13
-23
-33
-43
-56
-46
-21
-17
-9
-5
-16
-20
-38
-38
-52
-45
-35
-42
-7
7
4
-8
-20
-37
-43
-39
-39
-37
-21
-16
-16
-23
-37
-49
-44
-6
5
35
61
87
91
99
111
135
152
150
151
151
123
88
52
42
0
-40
-58
-60
-51
-35
-11
-4
-5
-5
-22
-32
-32
-24
-18
3
9
4
-2
-3
-31
-50
-31
-19
-6
4
2
1
-12
17
-19
-36
-23
-14
-15
-5
2
15
23
2
-17
-25
-24
-15
-8
-10
7
14
15
10
-10
-8
-9
-6
-2
6
7
17
25
23
-8
-15
-8
-2
3
14
22
25
40
21
-10
-5
-2
-3
17
29
31
39
38
27
8
7
9
18
31
41
55
64
51
34
7
15
34
41
50
60
68
83
75
74
45
31
34
53
59
76
86
77
66
51
39
31
37
47
63
73
81
74
47
32
14
25
20
27
46
53
55
48
35
9
-7
-10
5
8
21
16
16
16
7
-9
-16
-22
-17
-13
-5
-1
12
27
9
-6
-16
-26
-30
-20
-6
2
4
4
-3
-11
-19
-22
-35
-27
1
7
3
-10
-9
-16
-16
-29
-20
-13
4
18
18
2
-6
-15
-26
-19
-13
-18
0
4
9
-9
-22
-28
-19
-19
-7
-4
8
10
16
14
-3
-31
-38
-30
-25
0
9
19
18
8
-4
-23
-28
-26
-19
-7
3
16
15
-3
-18
-16
-21
-18
-15
-12
2
3
15
12
-2
-35
-34
-34
-26
-9
7
8
6
-7
-22
-25
-36
-32
-22
-1
10
4
-3
-6
-16
-22
-20
-18
-20
-7
-7
10
6
-4
-19
-30
-26
-32
-19
7
9
13
10
-3
-30
-44
-36
-26
-26
-2
5
3
2
2
-18
-32
-38
-29
-23
-1
15
6
3
5
-14
-30
-28
-25
-13
1
3
23
20
4
-13
-17
-14
-20
-12
12
17
20
13
4
-9
-24
-33
-19
-1
8
8
10
7
-12
-16
-24
-26
-31
-23
1
7
10
3
-16
-24
-28
-31
-25
-11
-5
0
0
-13
-19
-43
-50
-35
-22
-4
-3
-7
6
-5
-18
-29
-34
-39
-37
-20
-4
-3
0
-7
-13
-27
-46
-47
-49
-33
-6
14
27
31
34
26
20
41
84
125
161
195
208
200
155
130
105
82
60
39
24
-2
-29
-48
-51
-55
-51
-30
-14
3
4
12
7
7
-15
-20
-27
-22
-22
-8
4
5
-2
-4
-12
-18
-23
-24
-12
5
21
21
19
7
-16
-23
-12
-18
-15
-5
18
16
10
9
-2
-14
-10
-13
-1
14
32
26
27
15
-7
-16
-15
-3
4
25
32
34
33
16
-2
-6
-8
1
6
31
44
33
31
31
14
-2
8
15
22
39
52
53
52
41
28
20
16
24
38
62
64
69
63
51
33
37
41
50
61
78
87
74
66
56
45
40
45
52
63
72
83
88
74
62
41
33
33
43
49
63
62
59
53
30
12
13
20
21
30
45
39
27
24
10
-6
-6
-9
-4
9
20
27
7
1
5
-8
-17
-23
-18
-1
7
4
8
10
-2
-19
-21
-23
-16
1
17
19
6
-6
-11
-29
-32
-33
-16
13
21
22
10
-5
-16
-29
-30
-29
-19
7
24
21
10
0
-19
-30
-17
-13
-8
7
12
18
10
1
-13
-25
-20
-11
-13
-4
9
21
12
7
-4
-17
-31
-33
-23
-1
16
17
12
0
-16
-25
-27
-25
-17
-5
3
15
8
5
-16
-23
-21
-15
-10
11
16
6
-9
-16
-14
-17
-26
-18
-13
-2
-4
5
12
7
-15
-18
-19
-22
-17
0
8
1
9
-6
-25
-27
-28
-21
-3
11
16
3
2
-5
-17
-10
-19
-18
-2
14
15
14
13
-3
-14
-17
-16
-8
17
30
19
14
13
-1
-13
-17
-16
-5
7
15
13
0
-4
-9
-20
-19
-19
-18
-10
-2
13
12
3
-17
-20
-26
-22
-16
-8
13
0
-4
-11
-20
-32
-32
-31
-26
-9
11
12
3
-7
-21
-33
-23
-28
-23
-3
4
8
-14
-6
-15
-27
-34
-31
-29
-12
-4
4
1
-5
-11
-15
-9
1
26
72
113
126
129
143
142
126
121
106
97
91
82
66
26
-3
-36
-55
-58
-52
-43
-18
-1
-3
-5
-7
-22
-22
-20
-2
-1
5
4
13
11
0
-13
-18
-21
-10
-1
0
10
21
14
-2
-10
-24
-27
-8
1
10
16
23
15
-4
-7
-10
-11
-7
2
21
30
27
27
21
1
-16
-18
-8
11
23
33
27
23
13
1
-9
-8
-3
19
38
37
36
24
21
7
-6
-11
15
32
35
37
44
43
31
15
9
15
27
50
67
70
62
59
40
35
35
33
37
57
74
78
83
66
47
37
32
40
48
64
74
76
76
71
46
34
37
42
46
55
58
64
63
57
37
21
5
21
21
33
42
50
36
24
2
-6
-7
-1
6
25
25
31
22
23
9
-12
-23
-9
-4
0
7
19
13
2
-16
-20
-22
-23
-13
14
-10
-18
-23
-22
-3
20
23
26
9
-8
-13
-14
-18
-12
-4
17
28
29
20
4
-17
-27
-24
-6
1
18
20
20
11
3
-12
-12
-13
-6
1
13
19
22
17
1
-8
-13
-18
-6
8
15
18
16
6
-3
-17
-15
1
0
10
19
17
0
9
-2
-10
-18
-9
-6
3
14
21
19
13
-5
-18
-15
-16
-11
6
14
18
16
-1
-17
-22
-13
-17
-15
2
8
16
9
11
-11
-7
-16
-21
-15
7
22
16
13
7
-13
-18
-26
-18
-10
7
8
7
12
10
-8
-26
-42
-31
-24
-1
19
28
22
10
-5
-3
-8
-3
-15
12
13
17
17
14
-1
-17
-11
-7
-5
24
39
29
22
13
1
-6
-8
-3
10
22
25
24
15
6
-4
-23
-23
-24
-17
2
3
1
5
0
-11
-19
-38
-26
-7
10
18
15
6
-5
-14
-19
-29
-19
-6
4
5
17
8
-4
-26
-41
-28
-7
11
12
18
12
2
-16
-25
-22
-25
-22
-12
4
2
3
0
-1
-11
10
17
35
64
97
116
146
166
168
153
129
108
105
100
96
69
34
10
-25
-45
-47
-40
-16
-6
-2
18
19
15
0
-5
-14
-13
-3
21
29
16
12
3
-11
-22
-20
-24
-13
5
21
22
22
21
0
-5
-9
-17
-28
9
25
17
26
26
7
-14
-15
-7
1
20
27
36
28
29
10
-3
-18
-9
4
15
31
35
34
24
7
8
6
10
14
28
39
44
25
18
13
17
16
17
18
41
52
49
43
38
16
13
14
32
42
54
56
56
63
50
32
40
48
57
58
67
78
81
73
59
47
42
40
58
73
77
80
85
73
65
46
37
38
48
55
62
79
77
64
39
23
14
18
19
37
46
44
47
36
17
7
4
4
2
19
31
30
26
20
5
-14
-14
-12
-4
19
25
25
25
19
-2
-16
-17
-23
-9
9
16
18
17
16
-5
-23
-28
-20
-7
8
7
6
9
14
-7
-21
-12
-12
-1
14
24
16
15
17
3
-8
-15
-15
-8
12
25
26
16
16
-4
-8
-17
-14
1
23
30
31
10
7
-9
-12
-14
-9
12
25
19
14
11
9
-4
-19
-19
-6
-3
14
21
18
10
2
-12
-13
-14
-14
8
28
29
25
16
11
-10
-10
-9
-11
5
15
20
22
12
6
-1
-25
-28
-7
5
2
25
29
14
0
-16
-16
-10
6
3
18
14
21
11
6
-9
-22
-23
-7
10
21
31
25
19
16
-5
-20
-19
-12
18
29
39
37
28
23
7
-10
-14
-8
10
30
44
46
28
9
-9
-26
-22
-9
9
40
29
24
10
-6
-19
-13
-13
-10
15
30
31
23
11
-9
-18
-25
-27
-10
2
18
26
21
6
-17
-29
-33
-21
-15
18
29
21
19
18
-10
-20
-18
-22
-7
14
10
13
11
6
-11
-19
-33
-18
-28
-11
10
4
11
14
17
28
33
59
91
123
153
183
189
180
168
146
134
119
100
82
51
29
3
-24
-34
-38
-30
-17
5
16
15
12
10
12
1
-13
-18
-9
5
11
29
20
9
8
-7
-17
-24
-10
12
26
39
24
8
4
-1
-9
-13
5
3
25
31
33
18
1
-10
-16
-16
-1
12
24
38
45
25
12
0
3
-2
15
25
31
29
21
14
5
-5
-1
13
26
32
32
31
32
29
17
3
4
17
30
41
53
68
62
52
34
26
24
33
41
56
58
61
66
62
50
41
40
44
48
65
79
78
77
70
63
53
53
45
52
75
83
85
89
69
57
35
45
57
48
58
66
73
68
58
34
15
16
13
29
42
38
46
37
29
10
-2
-5
-1
7
30
28
16
14
10
2
-11
-10
-6
0
34
27
20
9
6
-9
-16
-27
-18
-3
16
20
14
8
0
-15
-15
-22
-14
1
-3
16
38
35
14
-10
-30
-26
-12
8
19
16
1
-7
0
-9
-9
-13
-7
5
2
19
22
17
-10
-24
-15
-10
-3
5
15
1
7
7
-5
-20
-29
-20
-12
11
25
29
25
12
-5
-21
-16
-23
-16
6
17
15
10
14
-12
-13
-7
-7
-2
4
12
11
-3
1
-9
-19
-25
-30
-15
0
9
15
6
2
-10
-8
-13
-11
-8
-5
5
15
7
5
-14
-23
-25
-14
-6
2
-1
11
10
-1
-22
-31
-30
-23
-11
15
21
11
5
-3
-8
-21
-19
-11
-9
2
7
12
9
-4
-24
-21
-9
-7
-5
7
18
12
14
4
-2
-5
-14
-1
5
21
33
26
15
8
-8
-11
-5
-4
0
9
11
12
2
-16
-23
-17
-29
-22
-12
12
13
15
2
-4
-16
-28
-23
-13
-6
11
7
9
-3
-18
-35
-57
-35
-6
5
7
9
0
6
-9
-19
-23
-18
-16
-2
2
4
5
4
-17
-26
-37
-26
-20
-9
-10
-5
-5
-24
-27
-32
-35
-20
11
34
49
71
84
94
101
118
142
156
163
178
172
146
117
89
52
15
-20
-38
-53
-27
-5
3
5
3
-7
-29
-31
-25
-15
4
11
12
7
-8
-12
-24
-30
-6
0
6
13
23
9
1
-18
-16
-20
-11
-6
3
21
15
12
3
-7
-8
-35
-18
-3
18
33
26
10
10
-9
-17
-19
-3
-1
12
17
19
23
16
-2
-3
0
10
13
26
32
50
31
20
10
0
5
7
8
24
36
41
34
27
10
3
5
21
40
52
57
56
51
40
32
33
33
36
41
55
77
82
75
63
52
34
39
40
56
71
84
78
63
56
50
36
34
44
62
73
70
63
58
36
37
25
9
10
37
44
65
72
44
15
2
1
-11
5
21
25
22
20
15
15
-7
-13
-3
-9
-5
4
16
7
1
-13
-24
-28
-17
-12
-1
7
21
13
-4
-15
-16
-19
-11
-2
14
20
21
11
0
-19
-17
-15
-18
-11
-6
12
20
11
-3
-17
-20
-29
-20
-2
23
17
23
15
-3
-12
-23
-21
-16
-4
6
3
7
15
7
-13
-23
-19
-2
7
24
27
14
7
-2
-22
-22
-22
-10
3
12
25
27
12
6
-12
-23
-40
-20
0
-3
24
24
27
9
-10
-16
-22
-13
-2
1
18
18
10
-7
-22
-21
-17
-11
7
20
21
17
17
2
-23
-27
-19
-16
2
14
24
25
8
-7
-15
-18
-13
-10
5
21
7
15
8
-9
-20
-22
-15
1
10
9
5
15
6
-11
-25
-24
-24
-17
-10
12
22
17
8
-8
-25
-26
-26
-20
9
21
23
18
13
-3
-22
-33
-16
-13
7
21
24
19
8
-12
-13
-14
-26
-11
9
24
24
12
0
-14
-18
-14
-11
-3
17
29
26
26
23
6
-1
-6
-9
-5
19
19
19
6
7
-9
-26
-23
-20
-3
7
13
21
10
0
-18
-32
-34
-26
-14
1
17
19
9
3
-17
-31
-46
-29
-21
2
11
13
5
-5
-21
-21
-22
-17
-21
-6
0
19
3
-13
-25
-25
-27
-21
-17
-6
-3
0
6
-5
-27
-50
-55
-33
-12
11
37
54
64
62
68
82
95
127
175
208
210
196
173
135
98
65
30
5
0
-2
2
-9
-21
-25
-40
-27
-19
-23
-7
14
18
16
11
-17
-36
-32
-7
1
12
19
26
17
6
-11
-28
-29
-20
-13
8
18
24
25
12
-4
-8
-11
-11
-14
10
23
26
22
22
-2
-13
-12
0
6
10
20
29
6
17
8
2
-6
4
8
22
38
35
20
19
8
8
-1
0
7
34
39
42
37
29
20
10
19
25
28
46
57
60
42
31
21
22
27
53
55
62
61
68
74
66
47
33
34
52
77
85
91
85
74
65
59
54
47
55
73
83
91
87
81
64
49
37
38
48
45
58
64
57
51
29
14
12
11
15
34
39
41
34
21
9
-7
-6
-17
-6
7
16
30
32
24
3
-11
-22
-20
-17
3
16
16
13
11
-4
-19
-17
-8
-11
4
15
17
16
9
-12
-26
-28
-20
-10
5
12
15
7
0
-20
-30
-28
-28
-14
7
12
14
17
11
-6
-15
-27
-23
-19
14
30
34
17
2
-9
-13
-14
-10
-5
9
11
20
18
4
-10
-28
-24
-16
-12
8
14
26
14
9
-2
-18
-19
-14
0
14
14
8
10
-3
-23
-21
-17
-9
-7
0
14
24
2
-6
-21
-29
-26
-9
-2
10
3
1
-2
-10
-24
-31
-16
-5
-2
5
6
18
10
-5
-24
-27
-31
-6
0
11
7
6
8
-5
-22
-26
-28
-24
0
12
14
17
5
-12
-37
-30
-30
-16
-15
9
20
18
13
-2
-18
-18
-21
-16
-4
7
21
20
5
-7
-21
-24
-38
-29
-14
7
19
6
-1
-22
-29
-23
-23
-16
4
11
8
6
5
-10
-29
-33
-15
-15
5
24
22
14
7
-8
-16
-26
-21
-10
2
16
23
18
23
4
-3
-7
1
3
19
25
29
25
10
-4
-7
-14
-14
-9
2
2
-3
9
0
-27
-21
-21
-16
-11
6
12
11
6
6
-20
-35
-28
-18
-6
7
12
12
7
-13
-36
-40
-35
-27
-12
11
12
13
10
-3
-31
-35
-33
-28
-9
13
13
2
-5
-20
-28
-26
-30
-27
-20
-9
-12
-3
-9
-31
-34
-21
0
25
44
80
109
126
144
169
173
183
188
176
168
150
122
97
52
12
-35
-59
-64
-48
-25
-9
5
7
4
-4
-23
-32
-28
-20
2
12
11
9
-3
-20
-31
-27
-18
-4
-4
-9
-4
6
2
-8
-15
-18
-17
-6
7
16
19
4
0
-13
-22
-21
-16
-9
8
15
14
15
4
-11
-12
-19
-17
-6
8
22
25
18
10
-14
-19
-18
-9
-3
19
26
28
21
13
-8
-13
-12
-1
8
28
26
32
25
25
7
4
6
15
14
34
49
55
42
41
31
30
31
32
42
57
65
72
56
55
37
37
36
37
54
70
76
78
67
58
35
33
45
50
58
70
63
61
43
44
26
14
11
13
28
49
45
39
31
13
11
8
-3
-3
4
18
28
12
6
-10
-20
-25
-37
-26
-14
7
22
18
6
-18
-26
-32
-25
-20
-6
5
4
3
-8
-18
-21
-35
-36
-24
-7
5
12
13
-4
-24
-28
-28
-34
-25
-11
5
12
2
-9
-27
-21
-23
-21
-20
1
8
10
8
-2
-24
-26
-22
-24
-16
-2
4
7
1
-6
-20
-28
-25
-12
-9
2
0
2
11
6
-15
-19
-31
-25
-13
4
10
11
-4
-12
-31
-25
-23
-22
-1
7
4
12
5
-9
-23
-28
-28
-21
-9
6
8
3
-5
-4
-20
-31
-32
-15
-17
0
8
14
9
-7
-32
-40
-33
-20
-14
-5
6
15
7
-10
-32
-37
-36
-26
-11
1
11
4
-3
-10
-25
-34
-30
-16
-10
1
5
4
-2
-11
-23
-31
-33
-19
-7
5
7
9
-3
-20
-28
-39
-42
-31
-8
10
14
4
-11
-30
-34
-35
-33
-23
-8
0
-1
-7
-5
-19
-22
-28
-27
-23
-4
14
19
3
-11
-22
-29
-23
-12
-2
3
3
12
8
-3
-21
-23
-24
-23
-11
8
20
21
21
7
-13
-16
-16
-9
-8
2
1
9
1
-5
-21
-29
-25
-20
-24
3
8
11
7
-11
-27
-39
-36
-28
-18
5
14
3
-18
-16
-29
-36
-31
-28
-18
-6
2
9
3
-6
-22
-36
-41
-31
-18
-2
-3
-2
-12
-7
-30
-39
-44
-36
-21
-8
-4
-5
-11
-19
-32
-40
-41
-31
-16
23
47
53
58
73
91
97
130
153
166
163
167
159
120
71
33
-1
-35
-48
-51
-33
-26
-22
-25
-34
-47
-54
-32
-18
-3
8
12
5
-5
-18
-26
-28
-24
-20
-9
1
5
2
1
-10
-21
-27
-32
-23
-7
5
3
-7
-6
-29
-26
-18
-22
-13
-2
12
21
11
-6
-15
-25
-30
-21
-5
5
16
21
6
-13
-25
-24
-26
-15
-8
5
18
27
17
9
2
-1
-7
-6
4
16
22
33
24
23
5
4
-3
-8
13
39
48
45
31
45
31
15
14
24
38
58
67
68
50
30
21
17
26
43
54
62
65
72
76
70
57
50
34
39
54
55
66
67
63
58
44
29
23
37
42
55
57
40
30
11
-2
1
4
12
15
17
28
20
7
4
-18
-29
-14
-13
-1
11
1
12
7
-7
-23
-36
-35
-24
-8
7
11
7
-8
-19
-20
-21
-28
-22
-1
8
3
9
-2
-19
-30
-32
-36
-26
-8
2
4
6
14
-16
-23
-28
-23
-16
0
12
9
5
-13
-20
-27
-24
-24
-10
2
12
11
6
-8
-21
-31
-22
-20
-12
8
6
6
7
1
-14
-22
-15
-7
-6
-6
-5
13
7
2
-18
-24
-27
-24
-8
0
9
13
5
8
-15
-23
-26
-20
-18
-5
3
5
3
3
-16
-27
-28
-23
-22
-4
5
5
4
5
-27
-39
-35
-18
-4
3
6
2
-4
-13
-19
-32
-37
-31
-7
12
7
7
0
-8
-25
-39
-26
-19
-11
0
3
5
-1
-14
-21
-32
-41
-32
-10
1
0
-2
-7
-22
-34
-30
-29
-21
-12
8
15
9
4
-10
-23
-34
-22
-11
3
7
2
-7
-14
-23
-34
-22
-17
-13
0
4
22
25
14
-3
-21
-19
-22
-10
6
10
6
8
6
-14
-26
-35
-26
-24
-12
-3
8
4
-11
-33
-39
-37
-27
-12
0
1
-2
-6
-13
-30
-30
-37
-34
-30
-13
-5
-2
-11
-9
-35
-35
-34
-33
-32
-8
-6
9
5
-1
-19
-40
-44
-35
-27
-15
-6
-3
-6
-5
-37
-43
-48
-38
-22
3
21
35
48
67
63
74
100
131
155
173
183
181
160
116
78
57
26
-6
-22
-25
-19
-19
-26
-28
-38
-44
-37
-25
-16
1
3
-3
-4
-5
-21
-32
-27
-32
-19
6
13
8
-4
-16
-25
-25
-20
-15
-14
2
15
14
5
-4
-20
-28
-29
-21
-3
8
12
6
-8
-19
-29
-21
-21
-14
5
16
14
5
-4
-15
-16
-9
-5
-10
5
25
29
16
1
-12
-13
-16
-16
-6
18
35
36
26
11
-3
-10
-10
5
9
27
29
32
36
38
24
17
9
18
30
44
49
55
64
55
35
20
21
28
39
58
66
70
66
61
41
32
31
38
43
61
49
41
52
51
31
24
18
22
29
47
54
47
39
29
2
-7
-9
-3
7
23
34
35
11
-4
-22
-26
-22
-14
-14
4
10
10
-2
-12
-24
-43
-50
-31
-13
1
4
0
-5
-9
-31
-34
-45
-37
-24
-12
-9
-1
-7
-17
-27
-42
-46
-24
-13
-1
7
4
-14
-29
-41
-36
-24
-26
-22
1
14
2
-12
-23
-34
-43
-41
-25
-8
2
1
-5
-6
-17
-29
-33
-36
-20
-15
-9
9
-1
-9
-20
-26
-33
-31
-35
-18
2
9
-6
-12
-21
-28
-34
-30
-20
-3
-12
4
-5
-8
-22
-32
-36
-38
-32
2
6
0
-2
-9
-26
-39
-34
-39
-23
-8
-5
3
-1
-10
-29
-43
-47
-47
-37
-15
-4
1
-11
-17
-27
-33
-39
-38
-29
-15
-11
-11
-7
-6
-25
-42
-44
-39
-30
-14
-8
-11
-19
-12
-21
-49
-46
-38
-19
-14
-5
1
-14
-25
-36
-45
-39
-35
-30
-7
8
10
-13
-32
-47
-50
-32
-23
-10
3
4
6
5
-24
-40
-30
-34
-25
-7
0
-2
-6
-7
-20
-27
-37
-39
-30
-8
2
15
12
11
9
-8
-21
-24
-20
0
0
0
-3
-8
-20
-25
-38
-36
-28
-7
0
11
3
-10
-23
-33
-36
-37
-32
-14
0
-2
-5
-9
-24
-31
-51
-45
-35
-21
-13
-9
0
-6
-24
-43
-40
-33
-29
-14
-10
7
-7
-7
-37
-47
-42
-45
-35
-18
-6
-7
-7
-23
-40
-47
-44
-40
-32
-8
13
35
44
50
50
52
83
117
158
184
185
181
161
132
94
64
30
3
-12
-17
-32
-20
-25
-28
-37
-37
-28
-32
-31
-17
-1
2
-1
-6
-22
-33
-39
-33
-22
-7
2
7
-2
-13
-20
-29
-33
-28
-8
3
8
5
4
-11
-25
-32
-26
-21
-15
2
4
11
2
-7
-20
-26
-20
-15
-2
8
14
8
0
-8
-19
-27
-19
-12
8
24
30
14
12
2
-9
-3
-10
-9
-6
9
26
18
13
6
-7
-7
-9
5
25
36
42
31
27
20
13
9
17
18
27
45
54
51
49
33
28
26
33
47
60
65
67
71
65
49
36
44
44
46
67
75
64
52
53
38
23
19
19
19
43
53
48
47
38
13
1
-3
-11
-1
10
14
24
33
24
-1
-18
-20
-19
-6
4
18
12
5
-3
-30
-39
-44
-29
-18
4
5
9
6
-11
-36
-39
-39
-27
-15
-11
2
7
-3
-12
-25
-35
-36
-40
-22
-5
10
4
-3
-13
-33
-39
-41
-27
-11
-2
7
2
-3
-16
-32
-29
-27
-25
-9
4
6
4
-8
-15
-28
-37
-41
-20
-9
-2
9
4
0
-17
-17
-21
-24
-22
-19
-6
0
2
7
-13
-22
-33
-30
-23
-13
-4
1
10
3
-14
-39
-44
-36
-25
-9
6
7
2
-7
-26
-35
-45
-47
-21
5
14
9
-2
-4
-16
-34
-31
-30
-30
-16
-3
8
-4
-13
-29
-32
-33
-35
-29
-14
-11
2
-3
-11
-25
-27
-32
-30
-20
-8
3
9
-1
-5
-33
-32
-43
-34
-20
-9
-5
0
2
0
-32
-32
-37
-30
-25
-5
-6
0
-10
-17
-25
-38
-34
-28
-18
0
8
6
-7
-8
-22
-36
-29
-25
-14
1
11
2
-11
-3
-15
-23
-17
-21
-4
19
26
13
8
1
-15
-19
-27
-20
-8
3
11
5
7
-10
-32
-44
-47
-37
-16
5
6
9
-11
-16
-44
-41
-39
-36
-24
0
10
4
-6
-22
-32
-44
-38
-27
-22
-14
-4
4
-1
-13
-26
-38
-37
-26
-15
-2
4
-2
-10
-27
-33
-37
-42
-32
-25
-6
-5
-8
-14
-23
-42
-45
-37
-18
11
37
50
62
67
75
100
116
123
137
161
159
144
112
74
41
10
-18
-32
-44
-33
-32
-24
-24
-27
-34
-36
-33
-30
-19
8
-4
-1
0
-4
-20
-26
-36
-34
-27
-2
5
13
9
-6
-24
-29
-30
-15
-13
-3
7
7
6
-2
-21
-24
-34
-26
-14
4
3
8
8
-7
-17
-15
-21
-14
-1
6
0
12
-1
-1
-5
-15
-9
-7
-2
14
25
31
7
-2
-10
-18
-14
0
6
24
30
33
25
11
1
4
-4
3
24
38
44
39
41
24
19
5
6
20
37
58
66
61
56
46
46
31
31
44
55
69
72
68
62
48
37
36
31
43
63
69
73
69
61
42
27
17
24
31
40
47
47
40
27
7
2
-4
-7
5
25
22
22
22
4
-7
-13
-17
-14
-10
11
1
12
16
7
-7
-23
-39
-29
-15
1
4
6
4
0
-25
-28
-28
-27
-12
3
-5
0
-11
-9
-29
-41
-30
-27
-14
2
10
7
1
-12
-29
-27
-36
-18
-6
6
8
2
-5
-11
-20
-30
-30
-20
-5
2
9
8
6
-3
-17
-17
-22
-25
-13
2
12
8
3
-7
-19
-27
-26
-20
-13
9
10
12
2
-7
-28
-29
-27
-11
-8
4
14
9
2
-12
-32
-32
-34
-20
-11
-2
7
7
5
-12
-35
-34
-32
-19
-8
2
9
7
3
-7
-19
-30
-36
-31
-14
-5
10
3
-4
-18
-33
-36
-26
-18
-10
4
3
7
-1
-19
-37
-45
-39
-18
-4
14
6
-2
-15
-21
-32
-33
-26
-17
6
16
9
-2
-10
-28
-28
-31
-23
-15
1
9
14
6
-2
-18
-21
-31
-28
-14
0
18
18
13
-5
-15
-26
-23
-17
8
24
21
23
9
-4
-23
-26
-25
-21
-16
-1
6
12
4
-13
-30
-37
-39
-19
-22
-9
-6
2
-5
-14
-22
-25
-27
-27
-21
-5
5
5
-7
-11
-28
-41
-41
-25
-19
-2
-1
7
5
-12
-33
-36
-38
-27
-29
-8
-4
0
-9
-22
-37
-48
-45
-36
-32
-13
1
13
14
18
24
34
49
56
95
132
171
182
166
149
125
111
79
60
60
48
15
-1
-29
-47
-50
-54
-53
-39
-14
8
21
20
6
-16
-31
-34
-29
-18
-6
0
2
6
-2
-24
-21
-27
-29
-16
-1
8
11
10
-3
-10
-19
-26
-25
-12
10
14
11
6
3
-17
-23
-25
-22
-9
6
19
19
19
10
-13
-17
-16
-13
-1
22
22
21
12
12
-4
-12
-13
-10
7
19
27
38
28
17
-11
-14
-8
-3
7
31
40
40
37
35
18
16
7
15
25
44
55
54
43
45
35
21
25
42
50
63
67
71
64
49
30
37
50
50
57
69
73
79
68
53
36
27
36
42
38
46
58
61
42
26
12
13
13
19
29
39
33
30
23
12
-2
-16
-25
-11
4
20
18
20
10
-1
-17
-23
-23
-15
-2
7
5
4
-7
-14
-25
-28
-24
-15
-10
4
11
-1
-2
-10
-30
-39
-31
-16
0
5
10
11
-2
-14
-30
-33
-23
-6
3
7
7
6
-9
-22
-28
-30
-29
-19
3
14
9
7
0
-16
-23
-28
-26
-4
4
9
1
1
2
-21
-30
-28
-23
-16
-1
14
13
8
0
-13
-28
-32
-28
-9
10
12
19
12
7
-11
-26
-28
-24
-17
5
6
10
6
3
-13
-35
-27
-22
-18
3
12
13
4
-11
-19
-33
-24
-14
-6
3
15
20
10
-1
-17
-26
-26
-16
-3
4
19
23
-1
-10
-23
-23
-28
-19
-6
11
17
8
-5
-17
-27
-21
-18
-15
0
5
3
7
-7
-6
-22
-22
-18
-12
0
10
10
12
8
2
-29
-36
-25
-14
1
12
18
17
4
-9
-16
-27
-21
-11
1
16
19
23
11
-9
-25
-29
-22
-5
9
27
34
25
24
10
-15
-18
-12
-3
10
15
16
13
-3
-21
-27
-29
-6
-7
2
13
8
-5
-6
-21
-23
-30
-24
-15
6
14
15
-3
-6
-32
-25
-28
-24
1
2
10
7
-6
-17
-28
-27
-29
-27
-15
4
1
7
-5
-12
-25
-32
-28
-23
-18
-3
4
4
3
-12
-37
-40
-34
-27
-12
21
34
44
61
62
65
86
115
156
181
191
187
173
153
118
71
40
15
-1
-14
-17
-15
-13
-14
-20
-36
-32
-26
-11
2
10
13
3
3
-8
-26
-30
-25
-19
0
-1
1
10
4
-15
-24
-27
-25
-13
-5
12
11
6
-1
-9
-17
-20
-18
-5
16
18
18
11
5
-5
-24
-29
-17
-4
9
17
21
14
9
-11
-12
-12
-1
3
18
20
14
5
13
4
-1
-3
2
6
23
27
37
26
30
12
1
3
4
10
37
47
54
48
42
25
19
19
29
35
39
52
60
62
58
41
42
34
40
50
61
71
83
70
63
50
39
40
46
54
66
70
74
71
55
37
25
18
32
33
47
60
54
44
30
8
5
9
16
20
34
32
33
20
1
-12
-14
-15
-10
3
8
18
16
11
-8
-28
-27
-14
-8
-12
1
4
1
-5
-2
-26
-32
-29
-18
-15
0
3
0
-7
-13
-39
-38
-30
-19
-12
6
7
9
6
-7
-20
-26
-30
-17
-8
8
16
10
6
-17
-28
-36
-37
-21
-2
3
16
17
2
-18
-29
-26
-20
-25
-2
15
11
7
4
-13
-28
-32
-30
-18
-3
9
8
11
2
-21
-31
-33
-31
-22
-5
5
9
0
-4
-27
-29
-30
-24
-14
0
9
19
11
-8
-19
-27
-37
-29
-26
-7
3
8
1
-8
-23
-27
-31
-21
-22
-2
1
4
-6
-19
-29
-33
-38
-26
-15
1
3
-5
-10
-9
-28
-28
-36
-29
-19
3
8
6
-1
-1
-23
-25
-29
-26
-5
4
9
13
-3
-12
-24
-23
-16
-16
-4
12
19
19
1
-1
-13
-18
-16
-12
-6
7
11
5
4
-7
-35
-34
-28
-25
-6
8
3
-1
-2
-13
-28
-37
-48
-27
-6
1
0
1
-8
-25
-35
-34
-30
-28
-20
-9
8
7
-5
-31
-41
-38
-43
-35
-11
0
-5
-9
-7
-26
-29
-35
-34
-21
-5
6
2
0
-14
-27
-51
-59
-48
-36
-5
8
24
42
52
46
49
59
90
139
162
168
163
156
127
85
64
45
13
-8
-22
-24
-22
-29
-28
-37
-45
-42
-32
-20
-13
3
17
6
-3
-22
-38
-23
-25
-12
6
6
6
-1
0
-24
-32
-28
-28
-14
10
13
18
9
-3
-26
-32
-29
-19
-7
11
18
16
11
-2
-21
-25
-21
-10
3
12
14
16
12
-4
-13
-10
-20
-9
0
17
21
22
20
7
-19
-21
-8
6
17
32
23
17
19
13
6
1
0
10
27
33
40
42
40
29
21
15
19
24
43
52
57
63
57
42
28
29
34
41
51
66
71
76
66
53
42
36
43
51
61
65
66
60
59
35
36
29
27
31
47
51
58
44
30
18
6
3
6
14
18
31
32
20
11
-5
-16
-22
-15
-9
8
18
14
2
5
-13
-23
-26
-22
-17
-6
6
3
2
-2
-25
-27
-37
-37
-23
-4
3
7
-3
-10
-27
-35
-37
-24
-15
0
5
12
2
-3
-19
-25
-27
-25
-16
-2
4
6
-4
-17
-20
-29
-40
-34
-15
4
17
9
0
-8
-20
-21
-25
-18
-9
1
12
11
1
-13
-17
-26
-22
-17
-9
1
9
14
5
-14
-26
-25
-21
-16
-15
-4
14
10
-8
-18
-30
-32
-28
-18
-2
6
9
1
-3
-8
-20
-30
-32
-20
-3
4
9
4
-6
-23
-30
-36
-35
-16
0
10
8
8
1
-16
-33
-45
-38
-26
-4
8
17
9
-7
-22
-28
-37
-34
-19
-7
8
14
6
3
-15
-25
-20
-17
-14
2
9
16
9
3
-7
-25
-45
-30
-8
14
26
21
11
-3
-7
-16
-17
-13
-4
15
21
19
13
6
-18
-28
-24
-20
-12
-1
11
16
2
-7
-28
-35
-39
-34
-18
3
6
9
5
-14
-33
-32
-30
-25
-18
-4
4
12
-2
-16
-28
-33
-34
-27
-17
1
13
7
-4
-14
-26
-38
-40
-29
-14
-3
6
-1
-12
-23
-37
-46
-42
-31
-14
9
22
38
46
49
50
55
71
98
139
180
187
175
153
120
91
56
36
18
8
-2
7
-8
-29
-43
-44
-40
-33
-23
-11
4
14
-2
-4
-11
-17
-20
-21
-15
1
11
18
17
0
-17
-28
-33
-30
-10
4
10
15
11
9
-10
-26
-26
-19
-4
8
17
18
14
10
-13
-26
-32
-14
-1
11
17
17
12
10
1
-8
-10
-4
4
24
26
30
23
14
-1
-9
-8
0
3
16
35
32
31
17
5
2
-1
3
27
42
37
39
35
34
17
11
12
7
25
50
66
71
60
50
40
32
25
30
43
58
67
72
70
59
37
28
33
51
58
72
70
69
54
44
29
15
23
31
43
47
55
54
44
28
8
5
0
-2
17
25
32
30
21
5
-18
-19
-12
-10
4
15
25
17
8
-6
-21
-21
-15
-13
4
11
13
12
5
-10
-20
-23
-21
-14
0
7
9
9
2
-12
-26
-29
-17
-10
7
14
13
7
-4
-17
-24
-30
-28
-15
4
11
12
7
4
-12
-17
-13
-9
-6
13
17
21
17
3
-8
-9
-23
-19
-21
7
18
14
15
11
-22
-25
-25
-8
-1
11
16
16
7
1
-14
-21
-22
-10
-2
11
16
11
2
-4
-20
-16
-18
-10
-4
19
20
15
-4
-9
-16
-21
-13
-20
-9
6
10
10
17
-1
-21
-17
-16
-10
-9
8
13
5
-1
-6
-17
-23
-25
-19
-4
9
17
16
7
-5
-22
-22
-17
-16
-8
11
24
21
13
-1
-18
-19
-10
-9
5
14
25
17
8
9
-1
-4
-7
-6
12
22
22
12
17
9
-4
-9
-10
-1
9
24
24
14
11
-5
-19
-22
-14
-6
-3
4
21
12
2
-12
-15
-24
-23
-14
0
4
11
0
1
-23
-29
-28
-18
-9
8
10
11
7
0
-8
-17
-25
-25
-17
-9
8
15
10
-2
-25
-34
-32
-22
-19
-7
-2
-3
-7
-12
-23
-23
-9
0
16
45
70
89
95
116
124
149
157
161
163
170
152
127
106
69
25
-11
-44
-52
-35
-12
-5
-6
0
-6
-18
-20
-20
-16
-10
7
14
20
8
-3
-10
-18
-33
-19
-2
10
10
17
15
-1
-22
-31
-21
-19
2
13
18
17
13
-1
-18
-18
-13
-10
2
19
19
8
5
-4
-11
-13
-15
-10
6
25
33
26
11
-4
-19
-23
-20
-3
14
27
28
34
26
12
2
-6
1
7
26
35
38
35
28
20
15
18
12
19
35
46
55
46
40
26
23
22
35
43
59
63
74
77
68
44
39
35
37
54
67
73
79
70
62
45
43
42
38
50
64
71
70
65
57
33
21
17
32
30
34
55
58
46
33
8
0
-11
2
12
20
21
24
19
7
-8
-17
-20
-15
-3
14
14
10
2
-3
-18
-25
-23
-21
-11
5
11
12
5
-6
-19
-28
-30
-24
-5
9
13
12
9
-3
-15
-20
-24
-21
-13
6
2
0
1
-7
-19
-26
-23
-20
-5
13
23
19
12
-6
-28
-28
-26
-20
-8
2
14
19
11
0
-13
-24
-22
-11
6
4
17
15
7
-15
-23
-30
-25
-16
-2
7
9
15
15
-1
-18
-20
-17
-16
-1
13
8
9
2
-18
-24
-29
-21
-7
15
16
12
1
-3
-20
-24
-25
-20
-13
-3
8
17
16
0
-15
-22
-24
-21
-13
-1
8
5
3
7
-19
-24
-27
-20
-7
11
17
25
16
1
-16
-24
-16
-12
-3
15
18
18
15
5
-9
-12
-15
-13
-4
17
24
22
16
7
-8
-13
-25
-21
-6
6
16
15
1
0
-22
-30
-28
-26
-14
0
8
2
-2
-17
-33
-29
-29
-25
-17
4
13
12
2
-15
-31
-33
-33
-24
-10
0
5
6
-8
-16
-28
-35
-36
-28
-17
0
-4
-1
-11
-20
-36
-37
-38
-32
-23
-7
3
9
9
13
16
24
39
61
105
145
179
195
193
181
150
134
101
88
76
58
23
-1
-29
-46
-49
-49
-42
-33
-8
9
17
13
4
-22
-29
-28
-22
-13
6
13
13
10
5
-10
-24
-37
-21
-15
-3
5
14
8
1
-12
-27
-30
-19
-11
7
13
10
8
1
-13
-23
-28
-11
-4
16
23
23
16
3
-15
-9
-14
-9
2
10
26
30
20
9
-7
-3
-6
-1
9
20
25
24
23
20
4
-1
-3
11
16
22
41
43
38
38
18
12
12
27
33
49
64
59
52
50
34
31
25
38
61
80
76
74
65
54
42
39
37
43
53
70
76
80
66
49
36
24
26
41
57
70
61
55
46
33
22
3
-2
12
30
38
41
44
30
6
-3
-8
-7
-2
5
26
26
11
5
-9
-24
-35
-27
-13
2
16
20
10
0
-13
-23
-25
-20
-12
2
7
14
4
-7
-23
-27
-20
-11
-1
6
3
4
7
-1
-25
-34
-34
-25
-16
3
19
19
6
1
-11
-21
-22
-19
-13
2
8
18
13
9
5
-17
-31
-25
-11
13
14
16
8
1
-16
-23
-21
-7
-6
2
8
17
12
3
-15
-21
-18
-14
-15
5
16
31
20
-3
-23
-29
-28
-20
-9
12
9
3
9
-1
-17
-20
-11
-13
-13
4
4
12
12
2
-15
-20
-23
-15
-8
11
15
16
5
-15
-23
-30
-23
-19
0
19
20
14
-3
-16
-26
-22
-21
-9
3
13
23
21
15
4
-9
-21
-17
-9
1
17
25
24
12
2
-15
-22
-1
-2
8
19
30
24
11
-4
-8
-14
-17
-7
6
9
13
13
7
-7
-20
-24
-23
-18
-8
9
11
3
-5
-18
-17
-20
-25
-22
0
9
11
1
-14
-17
-41
-37
-28
-24
1
8
5
5
-5
-26
-41
-37
-31
-17
5
10
4
1
-11
-27
-40
-36
-33
-22
-7
-4
-2
6
16
11
16
35
47
72
118
148
170
191
188
178
154
137
121
104
90
59
27
-12
-30
-48
-44
-34
-32
-30
-9
5
11
2
-6
-24
-28
-26
-16
-5
7
11
10
-2
-11
-21
-25
-26
-18
-12
4
14
10
16
-4
-15
-22
-23
-15
3
16
10
7
4
-4
-16
-31
-20
-6
10
13
12
17
12
1
-5
-12
-21
-10
8
30
34
26
25
11
-3
-1
-3
0
11
26
33
32
35
22
5
4
4
10
30
41
47
46
35
18
12
19
27
24
45
61
69
63
49
34
26
37
39
46
61
75
78
69
70
47
41
40
58
64
80
84
80
73
63
43
36
36
42
45
68
78
77
54
41
27
22
18
23
18
32
41
42
31
27
6
4
-8
-8
-6
15
32
30
16
2
-14
-13
-18
-12
-11
6
20
20
12
0
-18
-16
-19
-17
-11
9
14
17
10
-2
-15
-26
-23
-15
-11
3
9
15
3
-4
-12
-24
-27
-15
3
16
20
17
9
-1
-10
-24
-24
-11
5
16
22
25
13
-3
-19
-27
-18
-8
0
11
17
20
10
-5
-11
-19
-18
-17
0
12
13
14
10
-8
-20
-25
-31
-14
7
22
20
17
13
-1
-19
-24
-24
-16
0
8
12
11
4
-15
-25
-27
-19
-10
5
9
12
9
0
-13
-16
-24
-21
-13
9
2
0
-2
-2
-16
-20
-18
-18
-13
2
8
13
6
-1
-18
-27
-27
-16
-12
0
7
12
7
1
-16
-38
-40
-26
-11
7
2
-8
0
-1
-7
-23
-18
-14
-12
0
14
13
3
-7
-19
-18
-22
-15
-4
8
14
7
1
-2
-26
-30
-25
-10
5
20
23
21
11
-4
-15
-14
-15
-16
-4
12
22
21
5
-4
-18
-25
-34
-24
-9
2
12
13
2
-14
-29
-39
-39
-24
-12
-1
10
-2
-3
-16
-25
-33
-28
-21
-13
-11
8
13
8
-11
-27
-30
-28
-22
-10
-7
5
-2
-5
-13
-29
-30
-27
-18
-4
3
0
2
-5
-15
-33
-40
-33
-17
20
39
54
61
79
86
88
102
148
174
194
196
175
154
124
79
49
14
-7
-28
-31
-23
-11
-22
-15
-29
-28
-24
-13
2
14
14
18
11
0
-27
-25
-20
-13
-3
7
14
17
4
-5
-15
-20
-18
-19
1
14
22
29
17
4
-15
-22
-21
-10
-5
10
18
23
13
4
-10
-12
-17
-10
2
21
30
31
24
12
-5
-6
-7
-2
7
27
36
38
32
15
1
-5
-3
14
20
35
35
38
30
26
16
8
5
15
29
47
54
53
47
33
22
18
25
40
54
63
67
68
63
55
43
40
41
52
69
74
78
79
70
51
36
31
44
53
64
75
87
82
66
38
30
26
33
34
48
61
61
50
40
24
12
2
5
4
22
30
36
31
17
-2
-16
-23
-12
-3
12
15
21
16
6
-11
-19
-17
-13
-9
-2
3
11
10
-2
-18
-31
-30
-21
-3
13
17
15
6
0
-15
-30
-31
-18
-7
10
20
15
2
-3
-21
-30
-33
-27
-11
9
13
11
4
2
-12
-11
-24
-19
-9
9
21
2
3
-2
-10
-14
-13
-5
0
14
15
22
11
-4
-21
-26
-25
-16
-1
20
18
16
7
-9
-22
-20
-26
-13
2
6
14
16
8
-1
-16
-26
-27
-18
3
15
17
24
19
-6
-18
-28
-29
-16
2
5
20
13
1
-12
-28
-28
-27
-16
-2
8
11
4
-2
-9
-20
-32
-26
-12
4
18
17
9
0
-14
-25
-30
-27
-12
2
9
16
11
5
-21
-19
-24
-23
-13
-4
4
9
5
-2
-19
-29
-35
-30
-19
4
14
16
10
-3
-15
-20
-19
-9
3
17
23
23
5
4
-4
-13
-16
-12
4
25
24
23
15
9
-9
-22
-22
-15
-13
4
9
6
3
-2
-18
-29
-33
-29
-19
2
13
15
3
-3
-33
-27
-26
-19
-9
1
7
12
-9
-18
-34
-41
-35
-28
-22
-5
4
-4
-13
-20
-33
-37
-31
-20
-7
5
1
-5
-3
-10
-29
-32
-31
-22
-8
-3
7
5
-7
-26
-46
-45
-50
-31
-1
25
40
51
56
59
69
84
112
136
149
163
153
147
117
71
49
19
-8
-23
-36
-40
-30
-19
-22
-36
-39
-40
-37
-21
-7
-3
4
3
1
-15
-23
-23
-27
-22
-10
16
18
12
-4
-17
-26
-24
-20
-12
1
14
12
2
4
-17
-18
-23
-24
-9
10
17
14
2
0
-9
-18
-16
-14
-13
9
23
22
18
9
-10
-18
-20
-8
7
14
25
27
21
6
-7
-12
-5
7
10
23
31
32
24
20
8
-6
5
21
23
28
38
41
35
31
17
18
20
23
31
53
57
63
53
44
27
27
34
40
44
65
71
73
67
48
36
30
36
49
55
60
64
57
55
43
31
30
24
30
36
44
48
47
39
28
9
1
-2
6
16
25
28
28
26
8
-8
-20
-27
-17
-1
6
16
16
7
-12
-22
-25
-23
-14
-1
7
3
5
-8
-16
-24
-30
-26
-9
-2
8
3
6
-7
-14
-29
-29
-25
-15
-3
-4
12
8
1
-14
-29
-30
-21
-11
9
5
10
4
-7
-17
-25
-22
-18
-15
8
14
15
9
4
-11
-20
-31
-25
-21
4
17
17
21
1
-23
-26
-27
-18
-14
1
1
11
4
1
-19
-34
-34
-25
-18
2
13
16
7
1
-12
-28
-33
-26
-9
5
9
11
6
-5
-22
-27
-25
-13
-10
7
2
5
6
-3
-20
-31
-30
-16
-16
2
9
0
-5
-14
-25
-28
-33
-21
-7
-2
-1
3
-5
-11
-22
-29
-33
-28
-15
4
19
16
12
-2
-18
-23
-24
-24
-14
6
10
10
4
-8
-21
-30
-29
-22
-7
13
20
11
9
-3
-14
-18
-16
-7
2
13
13
4
6
-5
-23
-23
-22
-15
-3
5
-1
-6
-10
-25
-34
-38
-30
-20
-5
4
8
-5
-13
-40
-46
-39
-36
-25
-2
8
6
-6
-15
-28
-36
-33
-32
-15
-3
5
7
1
-11
-24
-30
-31
-34
-25
-9
-5
3
0
-12
-29
-46
-45
-25
-16
-6
-2
0
-3
-5
-8
-4
14
32
54
93
118
143
144
132
116
105
90
73
64
59
30
3
-14
-41
-53
-54
-55
-31
-23
-2
3
4
0
-10
-22
-26
-34
-24
-11
2
7
5
-3
-10
-15
-33
-30
-17
-9
9
21
14
-4
-10
-21
-27
-21
-11
-7
7
9
7
7
5
-12
-18
-16
-9
6
11
10
11
10
6
-13
-21
-14
-8
9
23
32
7
1
-1
-12
-16
-7
4
9
21
32
17
24
14
6
4
9
8
39
40
36
39
30
20
10
12
3
20
39
52
61
57
49
29
20
21
16
29
65
74
70
63
59
49
39
33
35
39
62
71
76
66
55
45
35
25
30
39
57
62
56
47
33
15
17
16
8
18
34
36
32
26
17
-1
-13
-15
2
4
20
30
30
17
-2
-11
-17
-20
-14
-6
5
7
15
4
-8
-24
-23
-28
-22
-8
17
16
15
4
-1
-11
-28
-29
-24
-17
15
19
13
-2
-14
-23
-19
-28
-24
-5
6
12
11
-8
-9
-16
-26
-32
-8
7
22
19
13
6
-10
-22
-28
-32
-17
0
10
14
12
0
-10
-27
-31
-23
-10
8
22
17
10
2
-14
-20
-27
-22
-18
4
14
15
16
4
-11
-21
-27
-25
-17
1
14
17
4
-4
-12
-26
-26
-21
-16
-2
6
5
2
-11
-23
-32
-23
-27
-16
8
15
12
5
-5
-24
-38
-41
-14
-20
8
24
23
13
5
-10
-26
-23
-9
-10
-4
11
15
5
-2
-25
-25
-28
-25
-18
-3
2
-1
-3
-6
-24
-33
-23
-19
-18
-6
5
7
-1
-11
-28
-24
-21
-18
-7
5
4
11
11
-1
-16
-19
-17
-14
3
21
24
24
17
2
-8
-13
-6
-8
4
10
22
25
8
-9
-15
-19
-27
-35
-17
5
13
12
4
-12
-29
-29
-27
-12
1
10
12
7
-6
-12
-10
-18
-18
-20
-1
0
0
3
-5
-20
-29
-24
-20
-8
10
11
2
0
-8
-32
-33
-37
-35
-14
6
16
11
3
-6
-23
-32
-31
-23
-7
22
38
51
56
60
60
72
89
117
139
153
159
146
127
99
63
25
2
-13
-23
-22
-14
-11
-11
-15
-20
-29
-23
-12
-2
10
14
17
7
3
-12
-14
-18
-12
-6
11
11
15
8
3
-13
-16
-22
-14
-6
1
15
23
5
-8
-13
-20
-18
-13
-4
18
23
25
15
2
-8
-14
-12
