-76
-72
-68
-52
-79
-98
-111
-121
-113
-90
-66
-58
-69
-79
-97
-102
-107
-101
-95
-84
-75
-71
-73
-75
-94
-102
-109
-105
-98
-91
-95
-82
-85
-96
-102
-107
-114
-115
-113
-88
-76
-66
-59
-57
-59
-53
-59
-54
-38
-16
-9
-3
-14
-37
-72
-102
-142
-143
-151
-149
-153
-161
-181
-204
-223
-223
-235
-210
-184
-162
-150
-128
-120
-121
-129
-127
-133
-125
-110
-91
-87
-70
-74
-89
-101
-103
-111
-95
-78
-61
-60
-52
-57
-69
-91
-90
-118
-114
-91
-71
-62
-49
-55
-69
-83
-87
-100
-97
-76
-67
-69
-59
-64
-72
-75
-73
-85
-80
-66
-56
-48
-40
-44
-61
-76
-88
-98
-86
-70
-69
-51
-40
-45
-62
-71
-72
-80
-76
-55
-39
-33
-27
-38
-53
-67
-77
-75
-79
-63
-52
-40
-33
-32
-49
-56
-61
-58
-54
-37
-25
-15
-15
-22
-39
-46
-58
-52
-52
-25
-13
-5
-7
-3
-20
-25
-34
-23
-20
-8
-4
5
5
0
-22
-25
-43
-37
-32
-24
-23
-11
-11
-19
-42
-47
-59
-52
-47
-30
-28
-20
-27
-41
-54
-64
-77
-81
-82
-60
-58
-51
-64
-72
-86
-88
-102
-100
-96
-84
-88
-82
-80
-74
-89
-86
-109
-110
-98
-82
-74
-74
-74
-76
-90
-100
-114
-107
-97
-86
-87
-68
-69
-79
-87
-99
-112
-105
-93
-80
-78
-70
-79
-88
-98
-95
-103
-103
-88
-74
-76
-66
-67
-77
-99
-103
-106
-102
-92
-80
-71
-62
-56
-70
-87
-95
-103
-111
-100
-88
-83
-74
-75
-94
-100
-98
-99
-90
-81
-76
-61
-60
-72
-86
-95
-100
-104
-105
-88
-79
-71
-63
-66
-80
-90
-104
-103
-95
-83
-77
-74
-76
-82
-87
-96
-111
-109
-108
-93
-85
-74
-78
-82
-99
-106
-116
-109
-113
-88
-77
-68
-75
-86
-99
-102
-107
-103
-100
-85
-81
-71
-81
-86
-106
-109
-119
-116
-109
-97
-91
-75
-81
-87
-106
-107
-120
-116
-113
-101
-93
-73
-76
-87
-101
-101
-106
-103
-90
-81
-85
-76
-83
-99
-122
-127
-129
-124
-106
-94
-85
-74
-77
-86
-96
-107
-129
-126
-121
-111
-104
-82
-71
-91
-99
-102
-113
-113
-98
-81
-86
-80
-83
-99
-119
-119
-123
-117
-107
-96
-96
-89
-88
-104
-114
-118
-130
-124
-115
-97
-96
-87
-88
-100
-111
-117
-124
-122
-115
-98
-88
-82
-78
-90
-101
-90
-89
-79
-62
-44
-43
-42
-51
-68
-100
-129
-149
-172
-182
-180
-183
-200
-225
-248
-239
-237
-227
-202
-174
-156
-135
-128
-128
-136
-139
-141
-134
-132
-107
-104
-99
-98
-100
-114
-119
-135
-122
-120
-112
-107
-93
-92
-91
-99
-110
-112
-99
-96
-87
-103
-93
-94
-97
-108
-114
-127
-120
-121
-103
-98
-86
-87
-93
-109
-105
-118
-106
-102
-97
-84
-72
-82
-88
-99
-103
-116
-111
-109
-90
-87
-75
-68
-76
-90
-96
-113
-104
-90
-76
-79
-63
-65
-71
-82
-84
-94
-91
-93
-81
-73
-60
-64
-70
-77
-80
-91
-84
-69
-45
-54
-44
-42
-49
-59
-65
-81
-76
-60
-48
-49
-41
-35
-45
-66
-65
-74
-66
-50
-41
-28
-16
-21
-36
-45
-47
-56
-59
-51
-40
-35
-30
-37
-56
-75
-76
-82
-81
-69
-60
-55
-46
-62
-82
-99
-113
-112
-107
-97
-86
-86
-87
-95
-108
-115
-130
-137
-134
-116
-103
-90
-97
-103
-112
-115
-128
-132
-127
-111
-112
-100
-95
-109
-131
-138
-148
-147
-142
-124
-112
-106
-109
-115
-129
-139
-157
-147
-143
-125
-104
-88
-99
-114
-127
-131
-146
-141
-135
-123
-116
-102
-105
-113
-125
-125
-140
-136
-130
-120
-111
-99
-105
-114
-128
-141
-152
-142
-134
-116
-118
-90
-92
-106
-123
-125
-141
-136
-132
-117
-109
-90
-94
-108
-120
-121
-148
-155
-149
-132
-128
-107
-105
-110
-133
-137
-143
-141
-122
-114
-123
-104
-108
-118
-130
-140
-153
-156
-139
-121
-122
-109
-115
-130
-137
-134
-146
-150
-140
-127
-123
-108
-104
-114
-130
-142
-151
-148
-136
-124
-121
-113
-120
-128
-148
-156
-161
-157
-136
-125
-117
-116
-116
-131
-134
-143
-159
-161
-149
-135
-117
-117
-123
-140
-158
-170
-159
-148
-135
-126
-116
-117
-122
-140
-148
-152
-146
-142
-130
-127
-115
-121
-131
-150
-145
-156
-156
-154
-137
-130
-118
-118
-128
-138
-147
-163
-159
-154
-139
-134
-118
-115
-126
-146
-148
-164
-161
-157
-152
-140
-117
-110
-118
-141
-151
-158
-157
-160
-153
-150
-134
-139
-152
-165
-162
-170
-162
-146
-127
-125
-120
-120
-125
-133
-140
-164
-170
-159
-146
-151
-132
-137
-149
-154
-146
-166
-165
-146
-133
-135
-127
-127
-135
-151
-149
-166
-168
-152
-141
-140
-124
-123
-148
-158
-151
-161
-168
-171
-155
-146
-133
-133
-146
-161
-175
-173
-172
-156
-137
-137
-131
-137
-147
-158
-159
-163
-163
-147
-139
-136
-136
-132
-153
-168
-169
-166
-164
-143
-135
-131
-134
-135
-153
-163
-172
-177
-173
-163
-142
-128
-128
-129
-145
-155
-161
-164
-160
-148
-146
-142
-139
-138
-152
-168
-181
-179
-174
-158
-151
-136
-122
-120
-143
-152
-167
-160
-148
-142
-138
-123
-122
-130
-152
-162
-178
-166
-161
-142
-137
-122
-128
-138
-150
-155
-168
-165
-165
-150
-147
-131
-135
-143
-161
-164
-176
-164
-154
-156
-153
-134
-137
-144
-165
-165
-176
-167
-156
-138
-142
-124
-121
-131
-146
-153
-164
-146
-129
-114
-103
-93
-93
-96
-113
-123
-148
-154
-155
-160
-176
-164
-171
-187
-214
-232
-259
-274
-262
-245
-230
-207
-203
-204
-202
-192
-192
-191
-176
-159
-150
-136
-137
-148
-169
-179
-181
-170
-156
-138
-133
-130
-128
-131
-147
-155
-159
-146
-133
-128
-126
-119
-119
-131
-153
-161
-166
-159
-150
-135
-128
-115
-108
-117
-137
-142
-137
-140
-132
-113
-123
-116
-116
-126
-146
-155
-150
-140
-126
-123
-113
-107
-112
-121
-130
-148
-147
-142
-121
-104
-95
-96
-99
-117
-120
-135
-137
-133
-116
-109
-103
-108
-115
-128
-131
-132
-122
-108
-86
-80
-69
-78
-85
-101
-102
-104
-101
-99
-87
-75
-60
-73
-79
-95
-100
-115
-103
-99
-78
-73
-51
-53
-64
-79
-89
-94
-91
-87
-77
-80
-66
-72
-82
-87
-89
-109
-107
-104
-90
-90
-82
-90
-100
-108
-116
-131
-127
-119
-101
-100
-84
-91
-120
-135
-132
-146
-144
-145
-131
-124
-113
-119
-128
-144
-150
-166
-163
-147
-137
-128
-122
-127
-137
-159
-164
-180
-168
-147
-135
-135
-132
-134
-142
-153
-165
-172
-164
-153
-135
-136
-126
-128
-142
-158
-168
-176
-169
-153
-140
-129
-120
-127
-149
-154
-161
-156
-158
-151
-143
-133
-130
-133
-146
-144
-151
-158
-157
-141
-138
-127
-135
-138
-144
-156
-164
-156
-152
-145
-138
-127
-126
-133
-151
-153
-167
-163
-159
-146
-135
-119
-122
-136
-149
-155
-167
-161
-152
-141
-137
-124
-124
-135
-145
-157
-173
-170
-167
-152
-148
-120
-126
-136
-151
-155
-160
-166
-162
-145
-144
-133
-144
-151
-157
-159
-167
-158
-150
-134
-133
-131
-133
-152
-166
-161
-179
-172
-160
-142
-143
-131
-137
-146
-159
-161
-175
-170
-164
-149
-142
-127
-130
-145
-153
-159
-174
-168
-153
-140
-148
-138
-142
-154
-164
-164
-171
-168
-159
-145
-147
-138
-137
-154
-158
-163
-171
-162
-154
-144
-138
-134
-138
-151
-162
-167
-172
-160
-150
-143
-143
-146
-145
-156
-158
-165
-173
-182
-161
-150
-143
-134
-139
-159
-169
-170
-172
-167
-157
-143
-128
-127
-138
-157
-162
-171
-175
-170
-156
-142
-132
-136
-146
-154
-164
-175
-179
-171
-159
-150
-147
-151
-144
-154
-164
-170
-171
-162
-146
-142
-126
-133
-138
-151
-160
-174
-168
-167
-155
-146
-134
-139
-151
-170
-180
-184
-176
-156
-152
-152
-133
-133
-134
-157
-161
-172
-165
-158
-139
-139
-125
-135
-146
-157
-161
-177
-169
-163
-145
-142
-126
-130
-144
-159
-161
-176
-170
-160
-147
-146
-133
-141
-153
-162
-164
-182
-181
-162
-149
-144
-137
-144
-157
-168
-172
-189
-187
-176
-160
-162
-149
-139
-155
-162
-166
-181
-174
-158
-144
-141
-131
-131
-133
-139
-136
-130
-121
-109
-99
-105
-106
-109
-133
-161
-183
-211
-220
-220
-210
-217
-228
-242
-271
-283
-267
-262
-249
-232
-205
-199
-176
-169
-183
-191
-192
-185
-184
-169
-154
-153
-157
-153
-163
-170
-174
-166
-167
-159
-149
-137
-135
-134
-145
-152
-169
-173
-170
-155
-151
-141
-143
-139
-149
-156
-166
-162
-156
-143
-139
-131
-128
-139
-148
-158
-166
-164
-161
-143
-145
-134
-137
-137
-156
-164
-175
-158
-152
-139
-128
-113
-115
-121
-142
-148
-160
-154
-149
-134
-128
-113
-123
-126
-138
-142
-155
-155
-139
-124
-116
-107
-107
-113
-125
-119
-136
-131
-123
-114
-121
-104
-105
-104
-115
-115
-131
-129
-118
-100
-106
-86
-89
-97
-111
-114
-116
-112
-99
-78
-76
-68
-67
-78
-91
-103
-113
-108
-100
-90
-94
-86
-89
-108
-122
-119
-131
-132
-118
-109
-106
-100
-105
-115
-132
-138
-149
-152
-151
-142
-133
-128
-135
-149
-167
-171
-174
-166
-154
-144
-139
-135
-141
-156
-169
-178
-182
-175
-163
-153
-146
-152
-158
-166
-177
-183
-183
-181
-164
-154
-146
-141
-157
-173
-174
-191
-186
-182
-170
-165
-137
-133
-140
-158
-175
-181
-181
-180
-164
-157
-145
-143
-147
-157
-171
-182
-181
-176
-165
-159
-152
-154
-157
-176
-167
-181
-172
-172
-155
-150
-134
-138
-151
-170
-172
-183
-180
-179
-163
-160
-141
-148
-156
-173
-178
-202
-193
-175
-165
-173
-142
-135
-147
-163
-163
-171
-171
-161
-150
-152
-134
-135
-144
-164
-169
-184
-179
-175
-165
-162
-153
-152
-160
-172
-173
-188
-183
-174
-157
-162
-152
-153
-161
-178
-173
-186
-184
-176
-167
-166
-157
-163
-173
-182
-178
-185
-182
-177
-173
-170
-158
-161
-170
-186
-194
-195
-193
-180
-162
-159
-150
-155
-167
-179
-182
-186
-179
-169
-160
-152
-149
-155
-175
-183
-187
-186
-188
-176
-162
-155
-158
-167
-179
-189
-203
-203
-192
-181
-169
-161
-162
-167
-181
-180
-190
-194
-189
-169
-163
-151
-155
-162
-186
-188
-198
-198
-185
-168
-166
-154
-162
-167
-186
-191
-206
-192
-190
-171
-165
-150
-161
-166
-176
-181
-195
-185
-186
-178
-179
-160
-160
-164
-176
-178
-198
-198
-187
-172
-169
-155
-164
-174
-182
-180
-197
-191
-183
-172
-169
-154
-161
-173
-191
-189
-205
-198
-189
-169
-169
-160
-163
-171
-184
-184
-202
-200
-192
-178
-176
-176
-168
-168
-179
-175
-188
-191
-181
-165
-166
-158
-171
-177
-193
-199
-210
-204
-185
-159
-160
-159
-157
-167
-186
-186
-199
-196
-184
-173
-171
-160
-167
-177
-186
-184
-200
-193
-178
-168
-162
-153
-159
-177
-191
-198
-198
-192
-181
-177
-169
-165
-164
-195
-206
-212
-210
-201
-191
-177
-165
-157
-163
-176
-179
-188
-183
-184
-173
-169
-164
-163
-171
-189
-198
-204
-203
-200
-188
-177
-156
-144
-159
-176
-180
-189
-186
-183
-172
-164
-151
-157
-160
-174
-184
-194
-185
-177
-164
-159
-145
-148
-158
-174
-183
-198
-195
-196
-176
-170
-159
-169
-174
-186
-191
-209
-202
-196
-184
-177
-170
-169
-178
-188
-185
-199
-198
-192
-174
-179
-168
-169
-166
-174
-166
-170
-168
-153
-136
-128
-107
-105
-119
-134
-141
-159
-168
-175
-185
-203
-211
-230
-245
-271
-295
-318
-315
-298
-266
-247
-228
-222
-228
-235
-233
-228
-221
-200
-181
-178
-170
-173
-184
-192
-193
-195
-192
-183
-170
-171
-165
-163
-182
-194
-194
-195
-200
-177
-160
-159
-149
-151
-162
-177
-186
-190
-190
-183
-168
-167
-160
-161
-170
-173
-177
-175
-178
-165
-155
-159
-145
-151
-162
-176
-184
-184
-183
-168
-157
-152
-150
-150
-171
-181
-191
-186
-175
-150
-142
-135
-137
-144
-152
-158
-173
-168
-160
-147
-144
-133
-136
-135
-142
-149
-164
-161
-150
-137
-137
-122
-126
-132
-139
-139
-147
-146
-138
-121
-112
-95
-103
-115
-124
-130
-146
-139
-120
-99
-101
-88
-90
-94
-114
-118
-132
-126
-118
-111
-108
-94
-98
-106
-118
-118
-138
-138
-133
-109
-116
-97
-106
-116
-134
-140
-155
-162
-150
-137
-141
-134
-135
-145
-163
-167
-186
-183
-169
-160
-157
-153
-157
-166
-176
-178
-188
-186
-182
-164
-166
-155
-145
-167
-189
-195
-198
-194
-180
-164
-160
-155
-150
-167
-181
-187
-196
-194
-176
-168
-167
-160
-161
-172
-187
-195
-197
-198
-183
-174
-163
-165
-152
-164
-172
-183
-185
-187
-174
-160
-149
-150
-158
-171
-189
-191
-187
-179
-165
-156
-148
-162
-170
-186
-194
-202
-191
-184
-162
-157
-145
-148
-157
-172
-179
-191
-188
-183
-164
-157
-139
-143
-156
-180
-188
-201
-194
-174
-166
-164
-156
-160
-160
-172
-170
-181
-179
-171
-160
-155
-144
-147
-160
-178
-188
-198
-192
-180
-170
-171
-155
-153
-161
-184
-188
-203
-187
-176
-164
-165
-147
-154
-165
-182
-184
-190
-188
-175
-165
-172
-154
-153
-169
-186
-188
-196
-194
-184
-169
-160
-151
-154
-167
-187
-188
-202
-193
-181
-170
-163
-149
-156
-168
-186
-185
-192
-185
-174
-165
-165
-150
-150
-161
-179
-181
-190
-202
-195
-179
-170
-154
-155
-163
-185
-183
-197
-190
-178
-161
-165
-159
-168
-178
-186
-185
-187
-186
-167
-156
-155
-150
-157
-174
-178
-184
-188
-187
-171
-169
-162
-157
-160
-178
-192
-197
-198
-194
-179
-163
-151
-153
-156
-168
-181
-193
-196
-201
-183
-169
-160
-156
-154
-162
-166
-187
-194
-190
-176
-167
-152
-151
-156
-178
-183
-195
-190
-183
-172
-174
-161
-160
-167
-178
-180
-190
-183
-180
-164
-159
-151
-157
-164
-180
-192
-204
-197
-189
-171
-164
-154
-162
-168
-174
-170
-181
-183
-177
-167
-163
-153
-153
-169
-178
-183
-198
-187
-174
-171
-163
-149
-153
-161
-178
-179
-189
-194
-189
-175
-163
-160
-155
-165
-178
-186
-203
-188
-173
-163
-154
-142
-149
-161
-172
-182
-205
-206
-175
-153
-151
-136
-136
-154
-172
-170
-179
-177
-173
-154
-151
-149
-152
-162
-177
-177
-186
-172
-161
-155
-151
-143
-148
-162
-182
-193
-196
-195
-181
-164
-150
-155
-161
-164
-169
-183
-183
-183
-171
-162
-159
-155
-161
-169
-179
-192
-197
-194
-168
-156
-144
-136
-145
-156
-159
-163
-154
-142
-132
-116
-105
-106
-112
-136
-151
-176
-186
-195
-200
-202
-210
-219
-232
-256
-279
-299
-291
-284
-259
-239
-217
-206
-206
-213
-213
-225
-214
-201
-182
-176
-164
-163
-166
-180
-185
-195
-196
-180
-164
-156
-132
-134
-144
-168
-170
-188
-176
-171
-155
-153
-142
-142
-147
-155
-159
-177
-174
-168
-155
-147
-136
-139
-148
-161
-163
-174
-173
-158
-142
-137
-124
-134
-152
-166
-164
-172
-173
-156
-137
-134
-120
-118
-127
-149
-154
-168
-170
-157
-143
-143
-132
-131
-132
-135
-144
-151
-144
-123
-111
-115
-109
-109
-119
-129
-136
-147
-147
-123
-111
-107
-101
-97
-108
-115
-113
-123
-119
-107
-96
-95
-85
-87
-104
-113
-116
-107
-105
-98
-91
-84
-87
-93
-93
-94
-93
-88
-93
-91
-88
-83
-88
-82
-92
-105
-119
-114
-116
-109
-104
-100
-99
-103
-114
-126
-149
-145
-136
-131
-126
-123
-131
-137
-155
-158
-169
-174
-165
-149
-144
-136
-142
-143
-161
-173
-184
-179
-179
-174
-178
-164
-163
-162
-170
-169
-186
-179
-179
-164
-156
-135
-142
-155
-170
-182
-195
-194
-184
-173
-171
-159
-145
-160
-181
-188
-199
-196
-189
-172
-167
-151
-157
-161
-173
-181
-193
-187
-174
-166
-166
-154
-153
-162
-176
-169
-185
-183
-179
-164
-160
-152
-156
-164
-170
-164
-188
-183
-173
-162
-163
-155
-156
-171
-185
-189
-191
-197
-186
-169
-170
-164
-164
-178
-187
-187
-199
-193
-178
-162
-154
-144
-145
-160
-173
-184
-194
-191
-174
-155
-155
-155
-165
-178
-191
-193
-193
-189
-178
-170
-165
-163
-166
-180
-191
-200
-200
-195
-181
-169
-157
-155
-160
-177
-192
-200
-203
-200
-193
-183
-172
-168
-169
-196
-202
-213
-206
-198
-182
-167
-149
-154
-161
-181
-189
-201
-201
-192
-175
-173
-164
-167
-173
-189
-196
-207
-192
-179
-173
-168
-158
-162
-164
-185
-196
-207
-194
-182
-178
-176
-160
-165
-176
-196
-197
-206
-203
-193
-185
-182
-174
-171
-178
-196
-198
-207
-198
-190
-175
-173
-159
-159
-169
-190
-187
-206
-200
-189
-181
-185
-174
-180
-197
-205
-180
-188
-187
-183
-174
-177
-159
-167
-180
-192
-196
-204
-199
-189
-177
-173
-160
-161
-178
-192
-199
-212
-204
-191
-185
-180
-162
-163
-175
-193
-191
-201
-204
-192
-173
-172
-165
-166
-177
-194
-206
-206
-200
-191
-178
-181
-173
-173
-184
-193
-200
-206
-205
-186
-175
-165
-158
-168
-181
-192
-199
-203
-200
-182
-179
-169
-172
-172
-185
-197
-200
-202
-205
-189
-183
-174
-167
-168
-184
-191
-213
-207
-200
-186
-180
-173
-170
-173
-189
-198
-209
-199
-195
-184
-173
-165
-171
-177
-198
-202
-216
-216
-214
-197
-192
-170
-169
-175
-177
-177
-192
-189
-186
-169
-162
-151
-165
-171
-187
-183
-198
-187
-178
-173
-174
-155
-154
-167
-178
-182
-197
-194
-190
-178
-176
-167
-170
-180
-194
-194
-207
-210
-200
-183
-180
-170
-167
-179
-193
-194
-200
-201
-197
-187
-188
-181
-177
-191
-196
-186
-193
-189
-176
-157
-143
-111
-113
-127
-135
-139
-151
-153
-152
-144
-164
-178
-193
-224
-249
-257
-278
-288
-282
-282
-277
-253
-241
-248
-252
-246
-245
-231
-209
-193
-189
-180
-174
-195
-198
-211
-220
-218
-197
-176
-161
-165
-170
-178
-195
-201
-199
-200
-182
-167
-159
-158
-153
-164
-180
-190
-194
-195
-172
-169
-162
-161
-163
-184
-191
-189
-186
-181
-167
-160
-154
-150
-154
-174
-181
-196
-187
-173
-158
-156
-146
-151
-160
-168
-170
-186
-183
-179
-158
-152
-139
-146
-148
-166
-170
-184
-183
-171
-151
-152
-132
-133
-140
-158
-169
-184
-180
-165
-152
-147
-128
-124
-124
-139
-146
-159
-151
-134
-123
-120
-114
-113
-120
-133
-132
-148
-141
-129
-115
-114
-104
-108
-109
-124
-127
-142
-143
-130
-115
-107
-105
-102
-112
-128
-131
-144
-142
-133
-121
-124
-117
-118
-132
-149
-152
-169
-166
-156
-141
-142
-139
-147
-159
-178
-183
-188
-181
-174
-162
-164
-157
-160
-174
-182
-182
-200
-202
-181
-167
-169
-173
-169
-182
-192
-206
-204
-204
-191
-175
-169
-173
-175
-180
-195
-201
-210
-212
-195
-187
-174
-167
-174
-191
-199
-207
-205
-202
-188
-183
-175
-170
-174
-197
-199
-208
-214
-207
-187
-179
-159
-164
-170
-187
-199
-208
-208
-209
-195
-189
-175
-177
-190
-206
-195
-211
-201
-189
-175
-169
-154
-159
-173
-192
-198
-212
-210
-200
-185
-178
-159
-164
-179
-184
-186
-203
-204
-199
-184
-183
-171
-175
-185
-197
-197
-208
-197
-184
-179
-182
-166
-174
-178
-186
-193
-201
-201
-190
-182
-186
-175
-179
-183
-194
-197
-208
-208
-201
-188
-179
-172
-175
-189
-204
-207
-218
-220
-204
-190
-193
-179
-179
-191
-198
-193
-211
-215
-200
-181
-179
-169
-170
-184
-207
-211
-215
-225
-212
-196
-190
-172
-173
-191
-203
-195
-204
-201
-193
-183
-181
-174
-174
-196
-209
-206
-213
-212
-201
-180
-171
-165
-172
-187
-196
-205
-211
-208
-198
-184
-184
-190
-192
-203
-212
-222
-220
-211
-194
-189
-183
-183
-185
-203
-214
-221
-218
-212
-196
-191
-183
-186
-191
-203
-209
-220
-211
-207
-198
-194
-184
-183
-180
-191
-200
-213
-212
-208
-204
-195
-183
-180
-178
-192
-200
-210
-203
-208
-204
-203
-179
-180
-191
-206
-208
-220
-213
-212
-197
-199
-173
-178
-193
-207
-206
-221
-221
-210
-202
-199
-183
-186
-200
-214
-207
-216
-214
-203
-188
-190
-178
-187
-196
-212
-212
-228
-223
-207
-198
-193
-176
-178
-182
-190
-210
-224
-227
-216
-201
-194
-177
-176
-184
-192
-197
-208
-207
-200
-194
-192
-186
-189
-204
-214
-213
-215
-213
-206
-198
-192
-184
-180
-188
-204
-218
-227
-225
-211
-198
-196
-174
-179
-193
-213
-208
-212
-211
-198
-189
-183
-182
-186
-191
-204
-212
-212
-218
-205
-196
-183
-183
-181
-193
-204
-214
-213
-218
-210
-204
-193
-185
-185
-199
-206
-216
-213
-208
-205
-195
-185
-182
-189
-201
-202
-216
-216
-221
-200
-185
-179
-176
-186
-201
-205
-218
-223
-209
-189
-190
-177
-175
-179
-197
-199
-210
-204
-194
-176
-172
-163
-171
-182
-197
-208
-225
-219
-208
-191
-188
-175
-172
-176
-198
-214
-222
-223
-211
-195
-189
-170
-179
-190
-211
-220
-229
-217
-204
-191
-192
-181
-179
-179
-187
-189
-193
-186
-172
-153
-151
-136
-124
-139
-166
-169
-199
-208
-208
-212
-219
-221
-232
-256
-287
-303
-328
-329
-308
-279
-270
-250
-242
-244
-249
-243
-239
-231
-217
-201
-200
-191
-193
-207
-209
-209
-214
-209
-190
-178
-177
-174
-175
-190
-207
-212
-211
-214
-200
-192
-181
-174
-172
-188
-201
-200
-193
-193
-185
-173
-172
-165
-169
-189
-196
-198
-194
-193
-187
-175
-160
-154
-172
-188
-199
-201
-196
-193
-181
-167
-152
-154
-162
-175
-183
-195
-184
-183
-168
-150
-144
-149
-152
-171
-175
-187
-176
-159
-159
-167
-155
-148
-152
-162
-170
-182
-167
-160
-142
-141
-127
-139
-146
-160
-160
-162
-158
-154
-137
-130
-120
-123
-124
-130
-130
-151
-145
-140
-118
-120
-100
-108
-122
-129
-130
-141
-140
-142
-132
-132
-112
-106
-111
-127
-131
-149
-153
-149
-132
-129
-128
-130
-135
-150
-167
-183
-182
-174
-163
-154
-144
-151
-169
-183
-186
-196
-194
-179
-168
-178
-170
-166
-174
-188
-196
-209
-202
-193
-181
-181
-179
-173
-191
-212
-206
-208
-208
-205
-190
-188
-181
-182
-194
-204
-206
-214
-205
-201
-183
-177
-170
-177
-197
-212
-221
-225
-217
-200
-184
-178
-171
-179
-196
-198
-203
-215
-205
-182
-180
-170
-173
-169
-181
-195
-208
-214
-209
-201
-190
-183
-183
-178
-191
-202
-215
-204
-194
-180
-179
-165
-165
-178
-191
-195
-207
-203
-201
-187
-178
-180
-182
-193
-209
-213
-223
-216
-202
-179
-178
-163
-161
-170
-191
-205
-212
-209
-194
-179
-174
-161
-166
-175
-193
-207
-221
-215
-200
-193
-190
-165
-169
-183
-201
-206
-221
-223
-217
-198
-193
-175
-171
-179
-197
-200
-216
-211
-203
-196
-184
-171
-178
-192
-200
-194
-214
-216
-205
-187
-191
-181
-177
-193
-209
-202
-218
-212
-197
-178
-176
-164
-165
-181
-195
-200
-212
-214
-214
-194
-191
-184
-185
-194
-197
-197
-209
-207
-197
-185
-182
-180
-180
-189
-204
-208
-209
-214
-201
-187
-180
-185
-194
-193
-200
-209
-213
-209
-197
-185
-179
-181
-176
-194
-200
-206
-208
-202
-195
-192
-182
-179
-188
-200
-208
-215
-216
-208
-191
-187
-177
-182
-177
-197
-211
-215
-217
-214
-192
-180
-169
-174
-175
-201
-209
-224
-224
-216
-198
-182
-163
-171
-186
-198
-202
-212
-206
-208
-199
-191
-179
-183
-180
-198
-210
-220
-213
-202
-190
-188
-167
-177
-194
-210
-209
-218
-216
-207
-185
-186
-179
-184
-200
-209
-205
-215
-206
-204
-195
-194
-180
-178
-186
-202
-191
-208
-209
-207
-187
-187
-176
-175
-184
-205
-214
-220
-216
-204
-192
-190
-184
-186
-195
-206
-206
-217
-216
-204
-190
-183
-176
-176
-194
-208
-207
-219
-216
-208
-182
-185
-177
-189
-196
-201
-191
-200
-205
-196
-186
-184
-175
-176
-178
-193
-206
-207
-207
-191
-175
-173
-163
-167
-182
-201
-214
-218
-210
-195
-180
-178
-167
-175
-195
-203
-216
-218
-217
-200
-191
-179
-178
-180
-191
-204
-213
-209
-204
-203
-190
-178
-176
-182
-196
-199
-212
-214
-214
-201
-186
-166
-167
-167
-177
-187
-189
-177
-176
-156
-142
-132
-143
-160
-172
-190
-215
-219
-233
-237
-236
-233
-251
-276
-296
-313
-328
-320
-302
-274
-256
-236
-230
-226
-237
-236
-238
-228
-209
-199
-185
-174
-179
-190
-200
-211
-223
-218
-208
-189
-181
-161
-161
-169
-182
-188
-210
-211
-197
-184
-180
-167
-170
-176
-191
-185
-198
-194
-191
-179
-174
-161
-161
-172
-179
-181
-193
-191
-182
-176
-173
-152
-156
-166
-180
-184
-192
-191
-179
-170
-161
-146
-154
-172
-172
-165
-190
-193
-169
-154
-157
-144
-146
-158
-157
-172
-197
-199
-181
-160
-153
-141
-143
-155
-167
-168
-175
-173
-153
-139
-142
-136
-135
-151
-156
-163
-159
-149
-130
-128
-121
-112
-104
-122
-129
-141
-140
-137
-122
-110
-104
-104
-111
-118
-131
-143
-143
-133
-121
-119
-106
-107
-120
-137
-151
-173
-167
-153
-136
-136
-128
-128
-133
-148
-153
-171
-173
-182
-172
-157
-148
-151
-160
-172
-184
-203
-201
-203
-189
-184
-174
-176
-190
-204
-201
-211
-206
-196
-180
-181
-171
-172
-183
-200
-203
-219
-218
-209
-197
-195
-175
-175
-190
-201
-202
-212
-217
-207
-195
-191
-178
-181
-192
-208
-215
-227
-221
-210
-194
-192
-170
-160
-175
-194
-198
-215
-221
-212
-200
-202
-179
-180
-189
-207
-204
-205
-203
-194
-182
-180
-166
-167
-185
-198
-202
-216
-206
-194
-181
-177
-169
-171
-184
-198
-204
-211
-206
-193
-181
-181
-174
-176
-190
-202
-200
-210
-209
-197
-173
-165
-163
-167
-183
-190
-205
-205
-196
-177
-165
-155
-160
-172
-191
-206
-208
-207
-212
-203
-187
-178
-175
-182
-204
-210
-208
-208
-205
-191
-180
-169
-169
-173
-190
-201
-216
-210
-210
-195
-189
-177
-174
-182
-195
-209
-216
-209
-203
-196
-195
-183
-181
-182
-187
-190
-208
-208
-203
-187
-184
-172
-178
-179
-196
-201
-207
-202
-200
-183
-175
-174
-183
-194
-197
-196
-217
-218
-201
-192
-196
-183
-187
-200
-207
-206
-222
-218
-210
-192
-189
-179
-183
-193
-202
-206
-225
-221
-207
-199
-191
-180
-183
-193
-205
-205
-217
-218
-204
-197
-193
-179
-172
-186
-203
-207
-223
-220
-205
-193
-185
-183
-175
-196
-215
-216
-227
-222
-215
-182
-177
-172
-183
-191
-206
-203
-207
-208
-203
-190
-191
-184
-183
-194
-207
-218
-220
-215
-206
-196
-192
-183
-185
-201
-212
-216
-219
-215
-196
-182
-183
-188
-192
-207
-218
-223
-221
-220
-207
-193
-187
-188
-194
-208
-208
-213
-214
-219
-208
-199
-180
-181
-190
-206
-211
-221
-223
-213
-196
-194
-186
-195
-199
-205
-206
-209
-206
-198
-190
-190
-181
-186
-198
-206
-209
-221
-218
-213
-201
-195
-181
-187
-194
-201
-209
-223
-216
-205
-194
-190
-183
-188
-188
-203
-211
-223
-217
-207
-189
-184
-176
-186
-196
-212
-207
-219
-218
-205
-196
-200
-178
-176
-188
-209
-208
-222
-216
-217
-199
-190
-175
-183
-199
-212
-212
-224
-218
-206
-183
-182
-171
-173
-186
-205
-210
-214
-205
-197
-185
-195
-182
-183
-195
-207
-204
-210
-197
-191
-182
-183
-176
-173
-188
-193
-195
-203
-205
-193
-181
-184
-175
-179
-199
-206
-197
-202
-207
-196
-193
-194
-193
-196
-219
-227
-217
-218
-207
-186
-182
-181
-179
-182
-201
-214
-222
-227
-223
-205
-192
-191
-178
-173
-180
-184
-203
-207
-191
-162
-144
-129
-123
-123
-146
-159
-176
-188
-200
-210
-228
-233
-245
-252
-280
-307
-327
-333
-323
-288
-270
-244
-248
-236
-245
-249
-258
-244
-235
-217
-204
-184
-185
-193
-210
-216
-225
-218
-204
-191
-185
-178
-186
-188
-203
-207
-223
-213
-208
-192
-185
-180
-170
-170
-186
-191
-201
-193
-186
-177
-177
-161
-162
-176
-191
-186
-202
-208
-198
-180
-184
-170
-168
-175
-190
-196
-204
-199
-188
-178
-180
-161
-156
-166
-178
-182
-195
-192
-182
-163
-163
-158
-160
-169
-176
-170
-191
-189
-178
-174
-169
-157
-156
-159
-166
-163
-168
-168
-156
-145
-133
-123
-127
-139
-156
-157
-158
-160
-146
-125
-118
-112
-113
-138
-150
-147
-152
-145
-130
-121
-114
-109
-103
-113
-132
-143
-143
-140
-124
-117
-112
-104
-103
-122
-136
-153
-154
-152
-140
-138
-131
-132
-134
-140
-149
-160
-166
-166
-156
-150
-144
-142
-148
-164
-171
-191
-197
-194
-178
-170
-165
-163
-168
-185
-190
-200
-208
-199
-187
-179
-173
-174
-187
-200
-196
-203
-204
-198
-187
-184
-173
-177
-176
-190
-198
-216
-215
-209
-195
-183
-172
-172
-178
-192
-197
-213
-207
-201
-188
-185
-170
-174
-179
-189
-198
-207
-199
-193
-180
-176
-178
-176
-185
-198
-196
-211
-209
-201
-186
-182
-167
-167
-183
-195
-202
-216
-213
-203
-182
-180
-162
-150
-162
-185
-196
-205
-199
-180
-164
-162
-155
-166
-172
-191
-197
-206
-195
-190
-176
-173
-167
-167
-182
-205
-207
-205
-206
-187
-170
-167
-159
-161
-178
-190
-199
-206
-206
-192
-182
-175
-168
-172
-188
-203
-208
-208
-204
-176
-165
-165
-164
-170
-193
-203
-207
-204
-199
-187
-180
-165
-161
-169
-183
-193
-207
-199
-208
-189
-178
-164
-169
-179
-183
-199
-205
-204
-198
-183
-174
-166
-164
-173
-183
-191
-207
-205
-198
-182
-178
-164
-165
-174
-187
-198
-210
-205
-203
-188
-183
-172
-171
-174
-186
-190
-210
-205
-192
-172
-171
-160
-171
-174
-191
-190
-210
-208
-191
-174
-168
-157
-166
-174
-188
-191
-205
-202
-190
-184
-181
-161
-156
-165
-189
-193
-206
-203
-190
-176
-173
-167
-176
-186
-197
-182
-193
-194
-185
-171
-170
-153
-156
-173
-193
-187
-196
-196
-182
-175
-179
-165
-166
-172
-181
-186
-196
-200
-184
-168
-164
-152
-153
-165
-181
-185
-199
-194
-179
-163
-166
-162
-165
-176
-193
-193
-199
-194
-173
-156
-161
-154
-154
-170
-180
-186
-192
-184
-169
-164
-161
-153
-157
-172
-180
-194
-191
-188
-177
-166
-156
-155
-161
-169
-178
-187
-179
-178
-171
-172
-162
-160
-163
-178
-185
-193
-187
-188
-178
-168
-152
-149
-157
-172
-187
-195
-189
-188
-177
-160
-148
-133
-133
-167
-180
-191
-192
-189
-171
-164
-152
-150
-151
-176
-181
-192
-179
-176
-157
-157
-148
-156
-163
-176
-188
-199
-197
-182
-169
-163
-149
-154
-170
-178
-186
-194
-196
-176
-154
-143
-136
-143
-156
-178
-184
-200
-184
-177
-168
-162
-146
-146
-153
-165
-170
-183
-175
-161
-154
-154
-141
-156
-168
-177
-172
-188
-190
-165
-147
-155
-136
-128
-136
-151
-161
-169
-174
-166
-156
-154
-139
-147
-162
-168
-169
-178
-176
-168
-155
-145
-138
-146
-160
-177
-175
-189
-181
-163
-155
-147
-143
-146
-161
-171
-182
-189
-189
-177
-161
-152
-153
-151
-161
-172
-184
-188
-184
-160
-138
-128
-119
-119
-133
-139
-145
-137
-130
-119
-114
-108
-112
-127
-156
-184
-218
-219
-230
-235
-227
-225
-243
-265
-278
-275
-271
-256
-240
-222
-217
-192
-184
-196
-197
-191
-199
-198
-192
-170
-159
-143
-144
-151
-163
-171
-187
-179
-171
-155
-145
-131
-135
-143
-161
-172
-188
-181
-172
-157
-153
-139
-139
-142
-160
-169
-182
-163
-156
-144
-145
-133
-140
-154
-161
-153
-161
-165
-154
-139
-141
-127
-125
-129
-152
-154
-170
-165
-156
-142
-143
-118
-116
-125
-139
-142
-149
-150
-145
-140
-139
-139
-137
-145
-147
-143
-138
-136
-124
-116
-115
-111
-107
-114
-136
-138
-145
-124
-109
-102
-105
-97
-96
-110
-118
-106
-120
-120
-102
-84
-78
-78
-93
-99
-98
-105
-109
-100
-90
-74
-73
-76
-83
-95
-105
-112
-110
-105
-99
-91
-82
-85
-88
-111
-104
-112
-116
-119
-116
-105
-96
-90
-103
-122
-130
-144
-142
-139
-126
-122
-117
-126
-127
-149
-154
-169
-159
-162
-151
-148
-138
-137
-146
-159
-175
-182
-169
-163
-152
-149
-135
-141
-152
-159
-166
-188
-183
-180
-174
-171
-156
-151
-149
-161
-169
-185
-191
-184
-165
-151
-131
-136
-146
-161
-162
-171
-166
-163
-155
-149
-133
-136
-151
-160
-165
-180
-176
-167
-149
-139
-132
-138
-148
-167
-169
-182
-178
-163
-147
-143
-136
-141
-156
-163
-173
-194
-185
-163
-142
-134
-123
-131
-142
-151
-158
-169
-171
-161
-147
-147
-127
-133
-151
-171
-174
-176
-172
-153
-135
-136
-130
-138
-152
-159
-171
-171
-172
-156
-141
-131
-128
-136
-154
-163
-164
-170
-180
-161
-157
-153
-147
-142
-156
-167
-168
-164
-160
-157
-149
-133
-134
-146
-152
-162
-170
-165
-169
-155
-141
-136
-136
-139
-146
-160
-173
-176
-175
-161
-158
-153
-146
-141
-162
-172
-182
-170
-153
-149
-154
-136
-138
-145
-160
-166
-178
-166
-158
-147
-136
-127
-141
-144
-153
-158
-173
-177
-174
-160
-149
-137
-139
-146
-159
-166
-181
-175
-170
-160
-159
-138
-135
-145
-163
-165
-178
-169
-159
-152
-146
-132
-139
-151
-165
-173
-188
-178
-171
-148
-152
-137
-123
-136
-145
-154
-168
-169
-161
-150
-151
-142
-151
-154
-162
-167
-179
-182
-172
-154
-149
-140
-136
-148
-163
-160
-176
-173
-167
-149
-143
-135
-144
-155
-167
-170
-179
-182
-170
-153
-149
-142
-136
-154
-171
-168
-178
-168
-145
-139
-146
-141
-148
-157
-174
-179
-183
-179
-166
-148
-146
-144
-147
-151
-156
-166
-158
-157
-154
-147
-146
-144
-148
-160
-166
-171
-170
-165
-152
-139
-130
-126
-150
-166
-169
-183
-178
-174
-162
-149
-141
-143
-146
-157
-161
-175
-167
-167
-155
-141
-130
-133
-136
-153
-154
-168
-164
-159
-152
-135
-119
-130
-144
-153
-150
-168
-161
-158
-141
-139
-128
-134
-133
-151
-161
-170
-161
-145
-130
-132
-121
-124
-130
-143
-155
-177
-176
-159
-148
-152
-134
-135
-145
-160
-166
-179
-185
-166
-156
-151
-144
-144
-144
-160
-164
-182
-179
-165
-145
-142
-118
-119
-133
-145
-140
-136
-128
-107
-92
-94
-91
-100
-123
-143
-158
-189
-210
-213
-203
-201
-184
-210
-235
-257
-264
-266
-258
-242
-221
-203
-185
-176
-179
-192
-183
-183
-184
-164
-152
-148
-142
-143
-153
-163
-168
-173
-170
-154
-138
-136
-130
-131
-145
-151
-163
-160
-151
-137
-129
-120
-113
-117
-138
-147
-152
-149
-147
-132
-135
-130
-133
-135
-146
-154
-167
-158
-152
-131
-121
-110
-108
-114
-127
-137
-150
-145
-142
-134
-120
-111
-117
-122
-135
-141
-143
-130
-131
-112
-107
-87
-91
-108
-128
-138
-147
-135
-129
-114
-105
-97
-100
-106
-120
-120
-127
-122
-118
-96
-88
-77
-80
-86
-96
-98
-108
-104
-92
-71
-68
-63
-67
-86
-88
-89
-104
-94
-83
-74
-65
-45
-49
-63
-77
-81
-87
-89
-79
-59
-64
-58
-63
-77
-94
-88
-102
-110
-104
-87
-89
-76
-78
-95
-113
-118
-135
-144
-130
-118
-110
-99
-102
-115
-134
-134
-141
-146
-146
-132
-131
-118
-126
-144
-153
-157
-164
-165
-150
-144
-136
-127
-126
-139
-152
-155
-166
-164
-149
-140
-136
-131
-128
-145
-162
-174
-185
-175
-162
-147
-135
-133
-133
-153
-164
-171
-165
-165
-154
-142
-135
-131
-128
-142
-146
-163
-161
-161
-146
-131
-126
-131
-137
-150
-153
-165
-162
-160
-151
-142
-126
-130
-136
-144
-154
-170
-166
-161
-147
-145
-127
-126
-132
-154
-155
-170
-158
-151
-146
-142
-122
-124
-133
-151
-162
-167
-162
-160
-149
-152
-130
-129
-124
-141
-145
-161
-159
-149
-137
-146
-139
-136
-139
-145
-147
-163
-164
-153
-139
-141
-125
-126
-137
-161
-163
-171
-175
-162
-149
-142
-130
-130
-149
-166
-166
-179
-172
-163
-147
-141
-133
-133
-147
-155
-158
-166
-169
-151
-137
-134
-125
-134
-148
-164
-167
-177
-170
-151
-145
-144
-137
-137
-154
-166
-173
-184
-181
-162
-152
-137
-127
-128
-151
-174
-170
-173
-174
-159
-136
-132
-135
-141
-157
-163
-165
-176
-176
-161
-145
-134
-132
-134
-152
-162
-169
-173
-173
-159
-150
-148
-147
-142
-157
-163
-173
-170
-170
-157
-147
-136
-136
-143
-160
-169
-188
-176
-168
-156
-149
-139
-146
-149
-166
-177
-193
-179
-170
-155
-151
-132
-135
-139
-153
-158
-176
-175
-162
-148
-142
-142
-141
-147
-159
-163
-172
-162
-165
-160
-148
-121
-134
-158
-165
-162
-179
-178
-166
-153
-150
-140
-143
-153
-168
-176
-182
-168
-169
-158
-156
-143
-142
-154
-167
-168
-181
-173
-160
-154
-152
-135
-129
-151
-174
-170
-184
-181
-167
-162
-171
-150
-149
-164
-169
-163
-170
-166
-157
-144
-141
-134
-141
-156
-157
-161
-169
-168
-158
-141
-145
-148
-142
-149
-169
-170
-185
-185
-172
-152
-143
-134
-146
-166
-172
-172
-175
-184
-176
-156
-146
-141
-146
-159
-171
-180
-179
-173
-157
-155
-150
-147
-145
-164
-177
-188
-185
-186
-174
-160
-136
-136
-145
-159
-165
-171
-169
-165
-146
-140
-129
-136
-143
-154
-163
-179
-172
-163
-142
-126
-114
-115
-126
-142
-148
-163
-166
-159
-139
-137
-128
-130
-130
-143
-155
-176
-167
-162
-147
-142
-126
-132
-144
-170
-170
-183
-175
-159
-148
-152
-143
-145
-154
-173
-179
-195
-184
-175
-161
-153
-140
-144
-146
-163
-171
-185
-179
-162
-143
-136
-120
-117
-124
-131
-119
-115
-106
-101
-88
-98
-93
-105
-121
-163
-189
-220
-235
-231
-223
-236
-238
-249
-263
-269
-254
-255
-242
-217
-195
-183
-169
-167
-179
-187
-182
-194
-193
-177
-155
-154
-147
-157
-170
-184
-175
-177
-170
-158
-146
-143
-139
-136
-155
-164
-170
-172
-165
-148
-141
-133
-135
-143
-160
-164
-170
-170
-171
-151
-142
-132
-129
-129
-153
-163
-170
-167
-162
-154
-141
-139
-129
-130
-149
-154
-158
-155
-155
-145
-131
-120
-121
-124
-134
-142
-155
-153
-151
-139
-135
-126
-127
-133
-147
-148
-152
-145
-144
-134
-131
-114
-114
-116
-127
-133
-140
-143
-130
-108
-103
-100
-109
-106
-123
-120
-131
-124
-109
-94
-87
-74
-76
-90
-108
-117
-125
-116
-99
-78
-79
-66
-76
-89
-105
-112
-127
-123
-104
-91
-83
-66
-79
-103
-121
-116
-122
-124
-121
-111
-116
-106
-114
-129
-144
-150
-158
-149
-134
-123
-126
-123
-120
-133
-152
-155
-167
-170
-162
-158
-159
-146
-151
-163
-174
-176
-186
-179
-164
-158
-147
-139
-148
-158
-173
-177
-183
-185
-170
-160
-154
-148
-154
-163
-171
-177
-182
-184
-169
-162
-157
-159
-166
-179
-189
-190
-187
-181
-168
-152
-141
-140
-147
-164
-180
-182
-183
-181
-162
-156
-149
-148
-147
-161
-172
-182
-174
-176
-162
-151
-146
-150
-155
-173
-176
-189
-180
-172
-160
-153
-140
-144
-159
-174
-186
-193
-187
-181
-168
-158
-140
-145
-156
-166
-172
-182
-171
-174
-166
-163
-151
-150
-157
-170
-164
-176
-170
-175
-154
-150
-141
-145
-160
-170
-178
-194
-185
-172
-156
-156
-148
-152
-163
-171
-174
-179
-182
-182
-171
-165
-157
-162
-173
-182
-181
-188
-184
-177
-164
-166
-148
-147
-159
-170
-174
-192
-194
-185
-172
-169
-159
-152
-160
-177
-174
-186
-182
-164
-162
-162
-150
-161
-179
-193
-192
-200
-196
-174
-160
-154
-143
-146
-161
-179
-188
-186
-192
-183
-166
-164
-152
-152
-170
-179
-185
-190
-181
-167
-156
-153
-145
-144
-167
-181
-193
-202
-195
-180
-166
-158
-162
-160
-177
-186
-191
-188
-185
-174
-167
-154
-150
-155
-177
-187
-193
-188
-188
-173
-166
-151
-150
-157
-169
-173
-186
-185
-181
-168
-165
-153
-156
-169
-169
-171
-188
-184
-180
-164
-160
-143
-150
-169
-182
-188
-205
-192
-182
-167
-168
-155
-165
-171
-186
-175
-190
-178
-177
-172
-168
-153
-155
-162
-176
-180
-195
-191
-176
-165
-162
-146
-154
-157
-168
-175
-185
-182
-176
-172
-175
-164
-156
-155
-170
-175
-194
-186
-181
-167
-161
-149
-151
-167
-179
-178
-193
-183
-179
-173
-174
-154
-153
-161
-175
-174
-178
-184
-170
-153
-163
-155
-160
-176
-185
-184
-198
-184
-169
-150
-152
-150
-150
-164
-183
-195
-204
-195
-179
-169
-161
-153
-147
-161
-173
-183
-194
-188
-173
-164
-156
-147
-157
-169
-181
-187
-190
-186
-176
-162
-151
-147
-149
-166
-175
-187
-186
-189
-174
-166
-161
-160
-164
-181
-181
-185
-182
-183
-165
-154
-145
-153
-163
-176
-182
-191
-184
-174
-163
-161
-147
-147
-160
-171
-172
-191
-188
-179
-168
-163
-155
-153
-153
-162
-165
-175
-164
-157
-152
-148
-131
-136
-153
-166
-169
-178
-177
-167
-163
-164
-147
-152
-164
-174
-180
-189
-192
-184
-166
-169
-154
-156
-161
-177
-179
-200
-196
-190
-173
-167
-151
-153
-158
-170
-175
-192
-188
-179
-165
-161
-147
-149
-151
-160
-158
-165
-150
-132
-115
-110
-95
-100
-115
-139
-153
-181
-203
-215
-216
-218
-218
-240
-265
-282
-294
-293
-281
-256
-236
-225
-209
-210
-204
-207
-199
-196
-193
-178
-164
-156
-154
-153
-162
-173
-184
-188
-182
-165
-158
-162
-160
-155
-173
-183
-185
-184
-179
-165
-148
-141
-139
-142
-159
-161
-178
-177
-175
-162
-152
-137
-137
-142
-157
-173
-188
-184
-172
-156
-137
-121
-134
-145
-158
-173
-179
-168
-163
-147
-134
-124
-127
-128
-144
-150
-163
-161
-154
-141
-135
-127
-134
-144
-147
-154
-167
-165
-159
-143
-142
-132
-125
-124
-133
-136
-153
-146
-128
-123
-126
-119
-111
-111
-118
-121
-135
-129
-123
-108
-103
-86
-89
-96
-104
-103
-117
-116
-105
-92
-91
-78
-84
-99
-110
-116
-118
-116
-108
-93
-92
-77
-84
-99
-118
-118
-132
-119
-112
-103
-106
-96
-103
-119
-132
-141
-156
-153
-138
-123
-130
-122
-133
-150
-162
-164
-165
-166
-159
-151
-149
-143
-148
-161
-180
-189
-191
-189
-157
-132
-136
-145
-149
-160
-175
-184
-189
-183
-165
-150
-147
-140
-149
-167
-186
-198
-187
-181
-176
-167
-155
-153
-163
-173
-187
-192
-191
-185
-163
-154
-139
-144
-154
-171
-174
-182
-183
-180
-167
-157
-161
-156
-163
-166
-162
-170
-173
-175
-161
-160
-151
-149
-154
-172
-182
-187
-185
-177
-159
-154
-141
-140
-148
-161
-166
-180
-174
-171
-166
-165
-150
-157
-156
-164
-172
-185
-184
-181
-169
-160
-142
-147
-156
-164
-165
-179
-181
-173
-161
-154
-144
-151
-164
-168
-174
-189
-183
-171
-161
-161
-149
-148
-161
-176
-179
-197
-192
-175
-166
-164
-146
-145
-157
-167
-163
-182
-189
-173
-160
-161
-146
-154
-170
-184
-189
-198
-186
-171
-143
-144
-136
-147
-155
-162
-174
-192
-194
-182
-173
-167
-151
-148
-168
-182
-183
-184
-178
-153
-138
-145
-148
-160
-175
-188
-197
-200
-196
-185
-167
-162
-158
-161
-169
-173
-191
-196
-185
-170
-162
-157
-150
-162
-164
-169
-183
-183
-188
-174
-167
-147
-148
-152
-166
-179
-187
-188
-187
-171
-162
-152
-159
-171
-181
-189
-190
-174
-175
-164
-163
-152
-158
-160
-179
-189
-200
-199
-187
-165
-157
-148
-153
-160
-178
-182
-199
-196
-183
-167
-162
-148
-152
-162
-176
-182
-201
-197
-187
-171
-171
-153
-155
-163
-178
-173
-189
-188
-188
-180
-175
-151
-162
-173
-174
-182
-197
-196
-180
-168
-170
-169
-168
-173
-184
-177
-182
-186
-169
-153
-155
-145
-151
-165
-188
-195
-198
-186
-175
-162
-158
-148
-157
-164
-186
-184
-197
-187
-186
-162
-160
-147
-146
-167
-186
-188
-197
-197
-172
-163
-160
-143
-154
-159
-168
-168
-175
-173
-157
-143
-138
-138
-155
-168
-176
-182
-181
-183
-167
-153
-142
-144
-147
-163
-179
-194
-198
-191
-185
-168
-163
-161
-154
-159
-174
-184
-178
-185
-180
-166
-157
-156
-162
-175
-185
-197
-195
-196
-179
-163
-149
-146
-156
-163
-166
-180
-174
-166
-140
-126
-115
-104
-123
-137
-143
-155
-164
-171
-178
-190
-192
-208
-220
-243
-268
-290
-288
-292
-282
-267
-239
-232
-224
-238
-232
-232
-224
-218
-202
-201
-186
-177
-180
-178
-166
-173
-173
-167
-159
-155
-145
-147
-160
-165
-164
-180
-179
-167
-152
-146
-137
-145
-148
-161
-163
-172
-178
-175
-159
-147
-139
-147
-157
-166
-162
-171
-165
-155
-138
-137
-131
-131
-145
-161
-162
-172
-181
-170
-152
-153
-145
-136
-138
-154
-149
-156
-149
-140
-130
-129
-119
-119
-126
-138
-142
-154
-154
-146
-138
-135
-122
-119
-127
-138
-148
-146
-144
-131
-122
-111
-103
-118
-126
-135
-140
-144
-133
-115
-100
-93
-93
-95
-114
-119
-119
-113
-107
-88
-87
-81
-83
-89
-103
-110
-116
-121
-115
-102
-91
-79
-81
-89
-111
-123
-136
-123
-124
-113
-111
-107
-108
-116
-125
-125
-146
-161
-153
-138
-139
-130
-133
-140
-154
-160
-173
-166
-162
-153
-153
-152
-155
-160
-176
-181
-201
-198
-190
-176
-171
-160
-157
-168
-183
-188
-202
-192
-183
-166
-170
-152
-161
-171
-184
-185
-203
-204
-199
-184
-188
-175
-173
-176
-188
-194
-208
-200
-188
-175
-157
-145
-148
-161
-182
-187
-194
-200
-199
-168
-169
-163
-165
-178
-189
-192
-207
-201
-183
-164
-167
-162
-160
-170
-187
-191
-192
-187
-172
-154
-163
-158
-157
-168
-184
-183
-192
-190
-181
-170
-171
-164
-157
-173
-183
-183
-191
-199
-181
-170
-159
-156
-156
-173
-182
-195
-203
-200
-180
-168
-163
-155
-164
-176
-180
-192
-192
-191
-175
-162
-156
-159
-169
-186
-192
-202
-199
-193
-184
-174
-163
-167
-176
-184
-189
-203
-202
-196
-174
-167
-160
-163
-176
-187
-189
-211
-204
-198
-185
-166
-153
-155
-159
-177
-185
-207
-195
-185
-173
-172
-158
-159
-168
-187
-191
-203
-203
-195
-186
-183
-165
-159
-172
-194
-194
-206
-202
-195
-184
-185
-166
-157
-167
-183
-190
-202
-200
-192
-172
-169
-162
-165
-176
-193
-193
-197
-191
-184
-175
-174
-166
-163
-171
-176
-177
-189
-186
-174
-162
-162
-159
-166
-181
-190
-191
-202
-197
-188
-175
-179
-172
-166
-175
-189
-192
-206
-204
-198
-185
-182
-165
-169
-179
-191
-193
-201
-200
-186
-172
-167
-155
-157
-175
-186
-190
-197
-202
-189
-170
-161
-164
-169
-187
-185
-193
-192
-189
-176
-168
-168
-162
-163
-177
-179
-185
-183
-176
-162
-158
-151
-152
-159
-176
-178
-200
-199
-190
-174
-165
-157
-163
-164
-178
-188
-202
-204
-199
-182
-174
-165
-166
-172
-188
-189
-195
-196
-189
-175
-173
-166
-163
-172
-190
-195
-204
-195
-195
-188
-182
-163
-163
-172
-184
-186
-191
-181
-171
-154
-141
-122
-126
-127
-135
-145
-167
-178
-175
-170
-187
-194
-208
-232
-249
-252
-280
-296
-297
-280
-275
-247
-238
-237
-246
-246
-247
-241
-226
-211
-201
-185
-180
-185
-196
-197
-212
-214
-197
-184
-175
-163
-160
-174
-184
-186
-196
-191
-181
-168
-170
-162
-165
-170
-180
-183
-188
-185
-173
-163
-164
-157
-160
-174
-181
-181
-183
-177
-164
-161
-156
-150
-153
-172
-177
-180
-188
-183
-168
-155
-154
-153
-155
-172
-186
-191
-185
-181
-156
-146
-142
-139
-142
-158
-160
-171
-170
-164
-145
-148
-138
-137
-147
-159
-153
-167
-154
-143
-126
-119
-112
-119
-124
-139
-147
-154
-152
-149
-125
-113
-102
-105
-113
-129
-130
-140
-129
-119
-105
-107
-94
-98
-100
-112
-115
-129
-131
-126
-111
-107
-95
-94
-102
-119
-126
-134
-122
-115
-108
-112
-99
-106
-118
-138
-147
-164
-159
-150
-141
-145
-132
-133
-143
-159
-158
-179
-182
-179
-169
-170
-162
-158
-171
-176
-184
-199
-200
-190
-177
-173
-161
-167
-179
-179
-184
-196
-194
-181
-165
-165
-161
-165
-179
-193
-196
-203
-193
-189
-182
-180
-166
-167
-179
-186
-192
-199
-200
-186
-173
-169
-164
-167
-180
-189
-204
-203
-208
-194
-187
-181
-175
-174
-183
-193
-196
-192
-189
-177
-167
-159
-159
-165
-174
-184
-190
-187
-189
-182
-172
-161
-155
-162
-176
-188
-197
-190
-184
-173
-166
-160
-158
-166
-178
-185
-193
-194
-191
-176
-168
-153
-148
-152
-172
-186
-210
-199
-192
-173
-167
-158
-159
-164
-180
-189
-196
-186
-181
-171
-168
-152
-155
-156
-172
-181
-196
-195
-179
-170
-166
-150
-157
-170
-185
-182
-195
-192
-188
-170
-166
-158
-156
-169
-181
-190
-204
-197
-193
-174
-174
-164
-162
-172
-182
-180
-197
-193
-175
-161
-166
-150
-159
-175
-189
-192
-206
-204
-187
-170
-165
-161
-161
-169
-181
-184
-193
-184
-172
-156
-159
-156
-151
-171
-191
-191
-195
-193
-185
-173
-169
-164
-163
-182
-186
-183
-191
-196
-173
-153
-151
-146
-152
-180
-180
-187
-196
-195
-180
-167
-153
-148
-152
-166
-180
-200
-200
-199
-178
-173
-163
-156
-156
-170
-181
-189
-183
-184
-174
-165
-155
-155
-160
-183
-194
-205
-200
-187
-169
-167
-154
-157
-154
-171
-182
-188
-179
-181
-166
-164
-159
-172
-168
-175
-177
-201
-193
-183
-168
-166
-156
-161
-155
-176
-181
-191
-187
-188
-171
-165
-150
-148
-158
-175
-184
-191
-185
-174
-156
-155
-145
-153
-159
-173
-182
-194
-188
-178
-164
-161
-153
-153
-159
-179
-181
-199
-193
-187
-167
-156
-152
-153
-166
-174
-174
-190
-189
-173
-161
-166
-160
-161
-172
-185
-188
-201
-185
-167
-158
-150
-144
-149
-165
-175
-180
-184
-181
-171
-157
-161
-145
-139
-163
-182
-180
-194
-187
-177
-163
-159
-144
-150
-157
-178
-178
-184
-177
-161
-150
-144
-136
-142
-162
-179
-194
-203
-191
-172
-162
-151
-143
-146
-166
-176
-183
-185
-181
-166
-161
-149
-148
-148
-163
-165
-178
-179
-174
-160
-149
-143
-145
-146
-158
-167
-175
-163
-166
-157
-151
-136
-135
-137
-146
-148
-162
-159
-156
-141
-138
-133
-140
-145
-165
-170
-179
-177
-162
-153
-153
-136
-132
-139
-155
-151
-166
-165
-175
-156
-157
-151
-155
-155
-165
-162
-172
-173
-167
-157
-150
-139
-144
-148
-153
-160
-180
-178
-164
-144
-143
-122
-121
-128
-142
-135
-135
-124
-107
-93
-85
-83
-90
-103
-118
-129
-165
-183
-192
-198
-211
-199
-215
-242
-268
-265
-257
-240
-228
-207
-203
-183
-177
-187
-199
-198
-197
-181
-155
-138
-139
-136
-138
-146
-157
-153
-159
-161
-143
-130
-130
-128
-122
-122
-138
-152
-154
-153
-139
-118
-118
-113
-115
-127
-141
-149
-151
-149
-138
-119
-110
-106
-106
-119
-135
-151
-146
-142
-127
-121
-116
-119
-123
-133
-136
-151
-144
-138
-122
-111
-98
-99
-104
-123
-127
-139
-128
-122
-107
-101
-86
-90
-103
-117
-113
-120
-119
-117
-102
-102
-80
-78
-82
-93
-94
-115
-108
-102
-82
-72
-63
-73
-79
-85
-86
-101
-94
-84
-68
-61
-51
-53
-54
-67
-65
-84
-85
-72
-58
-51
-44
-40
-51
-64
-66
-79
-73
-66
-52
-40
-34
-44
-55
-70
-74
-82
-80
-68
-59
-62
-49
-56
-65
-84
-93
-103
-105
-97
-81
-81
-83
-96
-107
-120
-123
-128
-120
-93
-85
-92
-82
-93
-103
-117
-116
-132
-128
-118
-100
-103
-98
-99
-106
-119
-132
-133
-127
-121
-106
-103
-97
-96
-106
-120
-127
-130
-128
-117
-105
-101
-88
-94
-110
-124
-130
-132
-124
-113
-106
-100
-99
-102
-104
-117
-121
-120
-120
-112
-95
-96
-85
-85
-98
-110
-126
-127
-125
-107
-95
-94
-94
-96
-112
-118
-127
-122
-117
-101
-95
-87
-89
-88
-104
-113
-121
-120
-109
-91
-96
-81
-83
-96
-118
-114
-125
-122
-114
-95
-88
-73
-79
-90
-104
-100
-117
-117
-109
-94
-85
-65
-71
-81
-92
-104
-115
-127
-114
-97
-94
-79
-83
-82
-95
-101
-120
-118
-108
-90
-92
-86
-95
-100
-113
-116
-129
-125
-117
-97
-84
-77
-77
-79
-88
-97
-110
-110
-104
-88
-88
-74
-82
-94
-105
-102
-111
-111
-98
-88
-89
-78
-76
-90
-108
-110
-116
-112
-95
-79
-76
-69
-70
-78
-87
-97
-115
-105
-86
-78
-85
-78
-72
-85
-99
-106
-121
-113
-96
-85
-80
-75
-73
-88
-92
-96
-104
-101
-94
-82
-65
-65
-73
-85
-95
-102
-107
-95
-86
-74
-67
-68
-70
-82
-97
-113
-96
-96
-79
-69
-62
-63
-73
-88
-91
-109
-94
-84
-67
-64
-66
-64
-68
-81
-93
-103
-98
-96
-78
-70
-55
-62
-72
-92
-85
-95
-96
-93
-76
-68
-55
-63
-67
-81
-91
-102
-90
-80
-69
-68
-55
-55
-62
-81
-84
-95
-96
-85
-58
-56
-47
-53
-62
-72
-80
-99
-90
-81
-66
-71
-60
-64
-70
-81
-81
-92
-89
-77
-68
-70
-56
-51
-67
-82
-80
-93
-84
-76
-66
-60
-48
-56
-76
-83
-80
-91
-91
-84
-73
-70
-56
-58
-70
-79
-79
-90
-81
-74
-72
-63
-59
-60
-73
-81
-72
-79
-80
-68
-54
-48
-44
-52
-57
-75
-79
-85
-87
-79
-68
-66
-55
-59
-74
-81
-86
-87
-78
-66
-59
-48
-47
-54
-70
-90
-96
-97
-89
-69
-59
-50
-48
-51
-62
-71
-75
-73
-72
-57
-55
-50
-44
-48
-63
-68
-80
-74
-66
-54
-45
-31
-38
-51
-63
-68
-83
-75
-78
-54
-48
-34
-36
-46
-59
-63
-81
-83
-83
-65
-57
-42
-52
-66
-75
-81
-92
-87
-85
-71
-75
-61
-62
-56
-76
-71
-77
-68
-65
-54
-56
-52
-48
-61
-77
-64
-69
-65
-59
-35
-15
9
14
6
-11
-21
-42
-48
-45
-42
-63
-70
-81
-105
-121
-132
-150
-166
-175
-161
-156
-131
-125
-131
-135
-128
-121
-113
-90
-73
-62
-49
-51
-59
-74
-75
-74
-72
-62
-40
-45
-34
-41
-56
-52
-60
-67
-68
-57
-39
-46
-36
-43
-51
-62
-67
-74
-70
-53
-42
-40
-40
-37
-43
-51
-52
-54
-56
-46
-44
-41
-32
-20
-31
-49
-61
-63
-50
-40
-32
-25
-30
-28
-36
-42
-43
-43
-46
-38
-24
-10
-16
-20
-23
-35
-56
-51
-48
-26
-14
-2
-5
-6
-19
-30
-44
-39
-39
-21
-17
6
10
0
-7
-9
-24
-15
-4
6
4
22
24
14
0
0
-8
-2
10
23
32
43
35
30
22
19
7
10
12
21
26
38
30
26
12
9
-8
-4
2
20
20
39
32
18
-7
-7
-18
-8
-11
3
-4
-3
-8
-22
-39
-46
-47
-40
-26
-19
-13
-1
-8
-20
-36
-41
-61
-61
-47
-32
-26
-16
-28
-37
-52
-53
-65
-66
-50
-35
-30
-26
-31
-42
-60
-56
-57
-63
-45
-31
-29
-24
-31
-45
-49
-55
-57
-57
-45
-30
-35
-25
-19
-31
-42
-50
-53
-55
-40
-30
-21
-17
-26
-44
-54
-62
-60
-51
-33
-30
-21
-21
-19
-36
-53
-63
-50
-47
-37
-33
-28
-28
-28
-34
-39
-44
-46
-46
-29
-21
-8
-13
-19
-37
-44
-61
-56
-52
-35
-23
-8
-18
-28
-40
-50
-66
-57
-45
-37
-25
2
-12
-24
-36
-40
-54
-50
-47
-34
-29
-16
-14
-30
-56
-60
-63
-44
-32
-23
-16
-6
-15
-29
-43
-42
-56
-60
-54
-33
-29
-11
-22
-38
-48
-48
-53
-51
-45
-37
-38
-35
-33
-38
-57
-55
-61
-64
-43
-30
-25
-11
-12
-29
-40
-40
-56
-57
-39
-27
-30
-18
-18
-32
-51
-47
-61
-52
-41
-30
-28
-20
-25
-24
-36
-43
-51
-50
-35
-27
-21
-14
-22
-30
-34
-45
-57
-54
-41
-36
-38
-29
-22
-32
-41
-64
-65
-52
-40
-30
-23
-12
-12
-30
-42
-53
-56
-55
-41
-32
-16
-10
-13
-31
-38
-50
-49
-47
-28
-25
-17
-7
-15
-37
-43
-57
-49
-46
-35
-25
-1
-4
-10
-27
-27
-50
-62
-66
-45
-40
-30
-18
-14
-26
-37
-46
-41
-38
-27
-28
-15
-15
-23
-38
-45
-56
-48
-42
-26
-20
-2
-12
-23
-40
-41
-53
-56
-50
-30
-23
-8
-14
-25
-35
-24
-43
-51
-37
-19
-19
-16
-18
-27
-45
-43
-62
-52
-41
-23
-21
0
-4
-16
-34
-45
-55
-45
-38
-21
-12
5
0
-16
-37
-46
-58
-48
-33
-24
-23
-9
-9
-17
-22
-24
-28
-22
-15
-6
-3
7
3
-22
-40
-41
-39
-47
-37
-19
-11
0
-16
-31
-44
-46
-48
-44
-30
-25
-16
-13
-12
-26
-35
-43
-52
-45
-36
-23
-18
-18
-26
-40
-43
-57
-62
-59
-40
-34
-23
-16
-16
-27
-33
-36
-30
-24
-13
1
17
22
19
6
-3
-22
-29
-39
-40
-51
-52
-62
-69
-90
-106
-137
-145
-151
-140
-134
-112
-101
-100
-108
-103
-108
-92
-85
-65
-54
-34
-37
-41
-55
-61
-71
-66
-53
-36
-31
-15
-22
-29
-41
-48
-56
-47
-33
-17
-18
-4
-3
-8
-40
-44
-57
-59
-52
-31
-29
-19
-20
-30
-47
-47
-53
-51
-40
-26
-24
-5
-11
-23
-33
-34
-37
-46
-37
-21
-18
-11
-11
-19
-30
-32
-49
-46
-36
-23
-19
-2
-10
-16
-33
-32
-35
-31
-11
2
2
4
-4
-16
-27
-31
-29
-22
-11
5
0
12
17
5
-9
-12
-12
-12
5
12
21
28
31
22
8
-3
