-107
-128
-134
-123
-121
-133
-131
-136
-142
-136
-123
-118
-119
-135
-119
-132
-123
-127
-126
-129
-119
-122
-128
-130
-127
-130
-123
-126
-130
-131
-129
-124
-133
-126
-125
-131
-134
-126
-124
-122
-119
-126
-132
-128
-124
-122
-126
-126
-126
-125
-116
-124
-134
-120
-113
-130
-127
-129
-127
-126
-117
-130
-136
-128
-108
-136
-136
-119
-124
-130
-126
-125
-130
-124
-121
-116
-124
-114
-131
-131
-130
-122
-128
-114
-122
-133
-122
-127
-128
-123
-120
-114
-112
-119
-126
-131
-124
-127
-125
-115
-129
-124
-120
-128
-126
-123
-121
-132
-128
-118
-122
-123
-125
-127
-120
-123
-124
-127
-126
-111
-131
-126
-124
-118
-123
-130
-127
-124
-124
-130
-127
-112
-124
-133
-119
-124
-133
-128
-130
-126
-124
-125
-122
-121
-124
-129
-122
-121
-117
-130
-113
-122
-127
-129
-120
-124
-116
-124
-119
-125
-120
-115
-122
-122
-119
-124
-123
-126
-98
-123
-124
-121
-119
-107
-102
-115
-108
-113
-112
-120
-117
-120
-118
-127
-130
-125
-121
-125
-121
-126
-127
-135
-123
-123
-125
-129
-127
-130
-125
-123
-129
-129
-127
-122
-130
-123
-120
-133
-133
-126
-133
-133
-143
-126
-123
-116
-117
-118
-132
-132
-122
-133
-140
-129
-135
-132
-123
-122
-134
-121
-122
-131
-133
-126
-133
-143
-146
-144
-124
-106
-83
-70
-44
-13
10
14
18
36
48
47
46
52
36
34
1
-25
-45
-41
-52
-59
-102
-117
-124
-110
-106
-107
-129
-122
-119
-130
-128
-114
-112
-129
-131
-126
-124
-118
-122
-123
-134
-129
-115
-116
-118
-119
-126
-125
-122
-117
-115
-116
-125
-121
-123
-118
-121
-125
-119
-114
-119
-119
-111
-124
-117
-122
-133
-128
-123
-120
-111
-111
-117
-114
-118
-124
-117
-117
-117
-118
-114
-116
-118
-120
-118
-101
-116
-120
-108
-128
-113
-116
-112
-115
-115
-115
-107
-101
-103
-107
-101
-108
-104
-115
-103
-108
-116
-117
-106
-102
-103
-104
-100
-103
-97
-91
-89
-85
-82
-92
-93
-90
-90
-85
-89
-88
-84
-81
-92
-93
-82
-81
-77
-90
-64
-71
-83
-63
-66
-78
-73
-78
-87
-77
-85
-76
-74
-82
-89
-92
-76
-83
-90
-79
-91
-96
-103
-106
-107
-94
-89
-97
-98
-99
-103
-111
-115
-109
-101
-114
-117
-102
-104
-129
-114
-100
-108
-105
-109
-110
-110
-107
-100
-106
-120
-113
-108
-109
-102
-116
-112
-114
-104
-108
-100
-104
-106
-121
-112
-107
-110
-116
-106
-107
-110
-117
-117
-112
-103
-109
-113
-115
-106
-104
-111
-111
-110
-113
-114
-114
-122
-117
-120
-118
-105
-110
-112
-115
-104
-118
-120
-121
-120
-112
-113
-117
-116
-124
-119
-111
-106
-116
-116
-122
-114
-114
-113
-117
-107
-117
-112
-126
-111
-104
-106
-115
-109
-118
-122
-128
-105
-122
-112
-111
-115
-116
-110
-109
-102
-112
-103
-110
-113
-114
-115
-115
-122
-104
-106
-103
-112
-115
-109
-115
-105
-113
-111
-114
-115
-106
-107
-104
-109
-117
-113
-110
-103
-113
-107
-111
-114
-109
-119
-115
-107
-104
-111
-109
-104
-110
-118
-103
-101
-105
-112
-99
-121
-111
-104
-104
-106
-111
-99
-114
-124
-109
-113
-124
-106
-106
-114
-106
-105
-117
-115
-106
-107
-113
-124
-109
-105
-109
-97
-100
-125
-114
-104
-89
-95
-98
-105
-112
-114
-117
-109
-104
-108
-106
-101
-116
-115
-116
-116
-120
-114
-101
-104
-113
-111
-110
-98
-111
-108
-114
-103
-108
-113
-102
-102
-111
-106
-104
-101
-103
-115
-96
-104
-105
-99
-111
-109
-93
-85
-96
-100
-97
-101
-98
-94
-97
-91
-97
-94
-90
-91
-101
-89
-89
-95
-109
-99
-97
-96
-104
-107
-104
-111
-110
-112
-108
-105
-105
-117
-104
-110
-106
-103
-107
-95
-94
-110
-98
-111
-120
-109
-94
-104
-103
-111
-111
-112
-103
-98
-103
-102
-114
-109
-107
-106
-112
-102
-108
-107
-124
-113
-102
-118
-113
-107
-100
-105
-103
-109
-111
-119
-114
-112
-108
-90
-64
-41
-24
6
21
39
46
57
78
75
85
82
67
57
21
-3
-23
-22
-30
-54
-84
-96
-98
-111
-117
-101
-103
-94
-93
-105
-114
-107
-103
-113
-114
-114
-118
-114
-114
-105
-110
-109
-110
-122
-112
-111
-106
-122
-116
-109
-111
-113
-113
-108
-110
-112
-112
-108
-107
-110
-102
-105
-111
-100
-107
-109
-98
-119
-114
-111
-115
-108
-111
-113
-116
-115
-108
-111
-112
-102
-103
-101
-107
-108
-114
-109
-91
-99
-104
-113
-102
-102
-103
-93
-116
-108
-97
-104
-90
-106
-85
-86
-90
-77
-95
-100
-101
-99
-92
-95
-87
-86
-83
-89
-86
-75
-74
-90
-83
-81
-84
-80
-76
-73
-70
-71
-58
-62
-62
-59
-58
-66
-76
-69
-65
-60
-56
-56
-55
-63
-59
-53
-52
-54
-58
-65
-59
-65
-70
-67
-59
-76
-79
-71
-74
-67
-69
-80
-82
-75
-89
-88
-86
-87
-86
-86
-92
-89
-87
-88
-96
-93
-85
-94
-88
-92
-89
-94
-93
-93
-93
-94
-97
-100
-90
-107
-94
-96
-100
-96
-88
-97
-91
-91
-88
-93
-92
-94
-76
-95
-101
-97
-94
-90
-89
-92
-90
-98
-90
-85
-82
-97
-92
-96
-86
-91
-88
-95
-98
-99
-103
-85
-91
-95
-92
-103
-110
-83
-86
-90
-87
-96
-86
-97
-96
-93
-96
-87
-91
-98
-103
-97
-92
-84
-86
-88
-88
-81
-87
-93
-94
-91
-92
-86
-87
-78
-78
-88
-100
-96
-94
-82
-101
-87
-76
-86
-86
-98
-99
-86
-83
-78
-89
-91
-90
-89
-80
-84
-87
-80
-83
-85
-86
-92
-73
-83
-75
-77
-81
-80
-80
-86
-99
-85
-93
-91
-84
-84
-88
-90
-82
-77
-83
-80
-86
-90
-82
-82
-87
-86
-76
-87
-90
-88
-91
-83
-84
-83
-87
-87
-88
-79
-73
-82
-81
-79
-91
-92
-70
-89
-82
-71
-86
-92
-92
-88
-83
-76
-81
-88
-89
-80
-81
-79
-76
-81
-89
-78
-78
-82
-85
-91
-80
-80
-81
-80
-77
-89
-83
-76
-80
-82
-100
-83
-84
-80
-72
-77
-78
-75
-84
-77
-75
-77
-77
-77
-71
-78
-86
-84
-73
-81
-82
-80
-76
-71
-75
-77
-67
-68
-67
-66
-72
-70
-57
-62
-66
-73
-68
-68
-66
-74
-75
-82
-75
-75
-70
-81
-84
-81
-72
-84
-80
-77
-76
-75
-81
-81
-91
-86
-81
-89
-83
-81
-70
-75
-79
-90
-89
-89
-86
-82
-90
-83
-74
-84
-79
-73
-84
-81
-77
-80
-82
-76
-71
-87
-88
-86
-80
-86
-86
-82
-80
-88
-91
-95
-95
-106
-93
-67
-42
-21
7
29
51
77
82
82
91
95
93
81
97
65
35
16
4
-8
1
-42
-64
-84
-69
-75
-78
-69
-69
-67
-77
-71
-69
-66
-81
-79
-75
-75
-81
-78
-69
-79
-83
-78
-70
-67
-73
-80
-81
-87
-81
-69
-75
-65
-76
-74
-74
-76
-83
-74
-76
-64
-81
-72
-69
-78
-91
-77
-76
-74
-72
-83
-65
-71
-61
-67
-70
-74
-81
-71
-74
-73
-60
-62
-70
-74
-57
-66
-69
-68
-59
-66
-68
-63
-64
-76
-61
-70
-67
-57
-59
-70
-66
-63
-66
-70
-66
-50
-52
-49
-60
-65
-49
-52
-55
-63
-40
-40
-37
-46
-52
-42
-47
-39
-41
-37
-16
-24
-38
-38
-40
-34
-28
-30
-32
-28
-25
-28
-24
-27
-28
-23
-26
-24
-30
-22
-30
-27
-28
-41
-35
-40
-45
-42
-42
-42
-50
-40
-48
-53
-47
-59
-64
-57
-57
-45
-46
-64
-64
-62
-73
-69
-72
-68
-66
-66
-66
-68
-62
-61
-73
-62
-66
-79
-84
-74
-64
-66
-56
-69
-68
-66
-75
-72
-68
-73
-67
-67
-57
-57
-65
-87
-75
-68
-68
-55
-68
-74
-72
-72
-65
-68
-76
-80
-74
-69
-72
-64
-63
-67
-68
-76
-67
-67
-67
-64
-67
-79
-69
-68
-58
-56
-60
-76
-67
-72
-78
-98
-70
-56
-66
-66
-60
-66
-68
-69
-71
-71
-61
-63
-63
-69
-63
-65
-46
-64
-65
-69
-73
-74
-68
-69
-66
-61
-64
-69
-66
-66
-66
-63
-76
-74
-69
-48
-55
-63
-66
-60
-60
-69
-70
-69
-75
-65
-59
-57
-57
-67
-61
-58
-61
-72
-56
-62
-62
-66
-59
-58
-64
-47
-67
-68
-53
-65
-59
-63
-61
-61
-58
-60
-57
-63
-70
-70
-63
-60
-54
-65
-54
-53
-56
-55
-53
-53
-49
-48
-54
-50
-53
-59
-59
-58
-58
-48
-44
-49
-48
-41
-46
-49
-38
-50
-55
-66
-43
-43
-50
-56
-59
-55
-51
-57
-65
-79
-57
-54
-58
-58
-62
-64
-46
-65
-56
-51
-60
-63
-59
-59
-61
-65
-61
-58
-71
-70
-64
-52
-65
-67
-66
-76
-70
-69
-53
-61
-58
-63
-59
-56
-59
-44
-64
-58
-67
-57
-55
-71
-73
-78
-59
-67
-75
-89
-79
-70
-53
-36
-25
10
18
44
50
86
85
96
99
105
99
111
95
71
39
18
16
19
11
-21
-50
-69
-65
-59
-55
-59
-52
-56
-48
-51
-61
-53
-52
-65
-66
-61
-71
-66
-52
-46
-59
-63
-56
-55
-60
-59
-54
-53
-50
-58
-47
-65
-57
-59
-52
-54
-53
-44
-60
-58
-63
-59
-60
-49
-45
-53
-52
-52
-44
-53
-55
-50
-56
-56
-41
-52
-63
-56
-53
-53
-57
-47
-43
-49
-55
-47
-48
-50
-51
-49
-44
-41
-48
-46
-42
-42
-46
-33
-39
-42
-41
-45
-34
-26
-33
-43
-50
-38
-39
-39
-38
-34
-36
-35
-22
-30
-24
-25
-28
-22
-24
-18
-26
-17
-14
-19
-5
0
-5
-13
-9
-14
-7
5
-15
-9
6
2
3
-7
-8
-13
1
-7
-3
-3
-16
-14
-11
-16
-33
-31
-26
-33
-29
-29
-31
-35
-39
-34
-41
-44
-49
-44
-44
-49
-42
-38
-50
-35
-44
-59
-54
-55
-55
-51
-48
-52
-52
-49
-48
-46
-52
-55
-45
-55
-56
-52
-47
-53
-51
-51
-59
-62
-52
-55
-55
-61
-55
-60
-62
-49
-60
-48
-50
-62
-57
-51
-54
-51
-55
-64
-65
-61
-55
-48
-51
-45
-54
-45
-62
-62
-56
-56
-51
-57
-53
-45
-54
-59
-54
-55
-55
-52
-54
-49
-48
-46
-60
-55
-57
-55
-60
-58
-53
-55
-59
-45
-50
-51
-49
-53
-46
-50
-57
-55
-58
-51
-50
-46
-55
-53
-48
-44
-44
-55
-47
-61
-57
-54
-54
-65
-64
-54
-43
-49
-52
-51
-50
-56
-53
-53
-57
-53
-55
-57
-48
-55
-49
-41
-41
-66
-57
-47
-45
-55
-47
-53
-49
-56
-64
-57
-48
-53
-54
-50
-55
-48
-52
-62
-43
-59
-65
-55
-60
-43
-62
-65
-55
-49
-65
-59
-51
-52
-48
-48
-55
-61
-53
-44
-54
-50
-52
-55
-48
-58
-64
-57
-49
-43
-48
-46
-50
-42
-40
-53
-52
-43
-41
-42
-47
-45
-46
-44
-37
-53
-51
-55
-49
-42
-49
-48
-42
-66
-70
-65
-62
-58
-57
-61
-61
-51
-59
-52
-57
-64
-58
-64
-67
-62
-69
-56
-49
-65
-62
-54
-59
-58
-64
-57
-63
-56
-61
-62
-59
-54
-59
-54
-59
-63
-74
-67
-68
-57
-61
-61
-69
-65
-68
-60
-84
-77
-58
-29
-8
14
38
59
74
87
96
111
113
120
119
127
99
80
41
26
24
18
7
-23
-40
-55
-62
-62
-62
-46
-47
-48
-60
-65
-56
-51
-70
-75
-63
-67
-70
-64
-56
-59
-55
-53
-48
-70
-80
-63
-60
-57
-53
-62
-38
-52
-73
-74
-65
-71
-62
-46
-54
-61
-67
-57
-62
-65
-51
-62
-67
-64
-62
-56
-55
-58
-63
-48
-52
-58
-69
-50
-53
-57
-64
-61
-67
-58
-51
-60
-59
-56
-57
-51
-35
-40
-56
-51
-44
-51
-56
-51
-51
-44
-48
-33
-39
-43
-49
-39
-51
-34
-33
-39
-56
-43
-35
-34
-31
-34
-40
-25
-27
-30
-28
-30
-17
-22
-24
-19
-26
-22
-22
-13
-11
-22
-17
-25
-11
-13
-12
-6
-5
-6
-10
-28
-18
-17
-7
-17
-23
-31
-15
-26
-27
-22
-28
-36
-35
-38
-34
-35
-28
-37
-44
-39
-45
-51
-50
-48
-43
-51
-47
-49
-54
-56
-56
-58
-59
-61
-60
-52
-53
-54
-44
-50
-50
-52
-62
-49
-55
-57
-59
-55
-51
-51
-49
-50
-53
-55
-54
-56
-62
-54
-51
-50
-47
-46
-56
-52
-61
-51
-54
-52
-58
-57
-48
-57
-55
-47
-61
-45
-56
-60
-47
-49
-61
-65
-55
-55
-50
-56
-64
-46
-50
-65
-48
-53
-66
-66
-56
-54
-64
-70
-59
-61
-49
-46
-47
-59
-54
-51
-68
-69
-63
-50
-54
-54
-57
-65
-55
-56
-48
-49
-69
-66
-61
-48
-59
-52
-62
-55
-52
-47
-47
-61
-56
-46
-51
-43
-53
-58
-53
-51
-56
-55
-47
-58
-51
-47
-56
-54
-63
-46
-56
-56
-54
-45
-60
-56
-55
-57
-48
-53
-47
-66
-60
-65
-54
-53
-49
-58
-57
-56
-48
-55
-51
-44
-53
-57
-69
-64
-56
-59
-55
-54
-57
-53
-56
-53
-45
-42
-57
-56
-61
-54
-48
-61
-52
-56
-45
-46
-50
-46
-46
-40
-47
-51
-47
-40
-40
-34
-48
-44
-38
-43
-35
-44
-50
-39
-40
-51
-45
-48
-56
-56
-57
-49
-45
-50
-53
-52
-51
-59
-57
-61
-60
-57
-50
-56
-53
-45
-55
-56
-70
-67
-50
-61
-70
-60
-63
-55
-54
-57
-60
-54
-51
-53
-56
-55
-65
-65
-57
-49
-55
-60
-58
-56
-60
-59
-57
-53
-77
-54
-59
-60
-72
-65
-70
-76
-49
-21
-1
21
37
68
93
105
113
124
134
123
138
133
118
89
56
20
31
35
6
-26
-50
-57
-53
-57
-55
-51
-52
-50
-49
-58
-62
-48
-46
-66
-56
-63
-58
-55
-57
-63
-56
-61
-60
-50
-47
-45
-52
-63
-65
-59
-68
-57
-48
-52
-51
-55
-56
-60
-57
-61
-55
-49
-62
-58
-58
-53
-55
-62
-56
-55
-48
-54
-49
-39
-54
-49
-60
-57
-68
-57
-50
-49
-53
-61
-50
-42
-58
-56
-55
-49
-46
-44
-46
-43
-45
-41
-40
-39
-53
-53
-51
-53
-45
-35
-41
-40
-46
-41
-47
-45
-38
-30
-31
-34
-34
-32
-35
-38
-34
-30
-31
-30
-30
-34
-19
-20
-13
-18
-10
-18
-14
-14
-21
-11
-7
5
-3
-3
-6
-16
-11
-4
-11
-14
-17
-20
-16
-21
-33
-14
-31
-23
-29
-21
-32
-26
-26
-41
-41
-43
-44
-37
-41
-51
-44
-39
-45
-48
-55
-62
-49
-46
-59
-54
-53
-52
-49
-45
-45
-51
-50
-49
-48
-46
-62
-59
-44
-49
-54
-50
-57
-56
-45
-46
-55
-55
-50
-54
-55
-55
-53
-49
-46
-43
-47
-45
-48
-56
-53
-61
-55
-52
-50
-45
-54
-64
-47
-45
-57
-63
-55
-48
-53
-59
-59
-63
-72
-54
-49
-56
-54
-57
-58
-48
-53
-51
-50
-52
-67
-61
-50
-62
-56
-55
-50
-50
-52
-49
-50
-64
-56
-52
-47
-45
-46
-57
-53
-58
-53
-56
-51
-49
-51
-43
-60
-51
-49
-56
-58
-59
-63
-56
-49
-52
-43
-55
-57
-54
-44
-50
-52
-47
-61
-54
-52
-41
-42
-59
-54
-47
-38
-45
-47
-52
-41
-55
-44
-38
-54
-49
-48
-39
-40
-50
-52
-51
-48
-34
-44
-61
-56
-50
-43
-47
-44
-43
-32
-46
-42
-42
-39
-43
-53
-39
-41
-32
-44
-56
-47
-35
-35
-39
-34
-33
-51
-42
-44
-55
-38
-52
-47
-40
-40
-43
-44
-48
-42
-46
-51
-41
-42
-40
-44
-43
-44
-36
-39
-36
-49
-52
-45
-37
-47
-44
-46
-42
-48
-41
-42
-36
-35
-29
-46
-54
-37
-47
-30
-36
-44
-49
-43
-39
-39
-33
-33
-33
-33
-27
-28
-44
-32
-9
-27
-42
-29
-29
-29
-28
-23
-24
-32
-33
-31
-37
-37
-43
-48
-45
-42
-41
-39
-39
-42
-48
-43
-46
-41
-43
-47
-41
-41
-43
-38
-38
-42
-48
-44
-44
-45
-39
-49
-53
-41
-41
-41
-48
-52
-42
-40
-44
-43
-31
-37
-37
-46
-47
-43
-46
-39
-37
-38
-38
-45
-42
-47
-50
-54
-51
-38
-17
9
36
55
74
95
115
126
139
139
156
151
151
137
127
92
71
60
42
45
31
-3
-18
-19
-18
-22
-17
-18
-13
-14
-10
-13
-16
-24
-16
-9
-28
-33
-34
-31
-19
-31
-20
-4
-22
-18
-21
-23
-24
-20
-14
-19
-24
-13
-24
-20
-16
-14
-22
-32
-22
-7
-7
-18
-22
-19
-16
-12
-10
-7
-7
-13
-17
-25
-13
-14
-8
-21
-18
-14
-9
-18
-17
-9
-16
-7
-15
-9
-11
-11
-7
-4
1
-6
-12
0
-7
-7
-8
-9
-3
-3
7
-9
-7
-6
-14
6
6
-1
-4
1
4
6
11
6
12
11
16
8
19
15
28
26
23
15
7
17
16
27
25
28
29
38
28
31
34
33
39
31
33
32
32
30
30
24
36
31
24
22
23
22
19
13
14
7
16
-1
5
12
-2
-2
3
1
-2
-15
-14
-13
-13
-6
-1
-2
-21
-15
-15
-16
-14
-7
-6
-24
-23
-11
-11
-17
-21
-23
-12
-5
-6
-9
-17
-13
-25
-21
-12
-26
-17
-20
-14
-11
-10
-15
-12
-16
-24
-18
-26
-18
-16
-22
-7
-12
-12
-21
-20
-26
-28
-26
-15
-14
-26
-20
-14
-21
-22
-20
-9
-17
-21
-17
-22
-16
-16
-24
-22
-24
-21
-20
-11
-20
-25
-21
-22
-14
-21
-26
-14
-15
-19
-22
-20
-16
-22
-19
-25
-22
-11
-13
-7
-4
-12
-28
-29
-21
-20
-26
-34
-18
-20
-23
-4
-9
-13
-28
-23
-14
-18
-19
-23
-16
-16
-19
-22
-16
-13
-18
-19
-24
-24
-18
-10
-16
-24
-16
-20
-19
-15
-17
-25
-20
-19
-25
-21
-28
-20
-22
-18
-25
-32
-22
-14
-17
-19
-25
-20
-19
-17
-16
-15
-19
-13
-18
-16
-20
-26
-27
-25
-19
-35
-17
-17
-18
-26
-23
-28
-22
-25
-21
-19
-26
-23
-26
-16
-29
-10
-26
-23
-21
-32
-29
-22
-24
-17
-18
-25
-26
-19
-23
-39
-22
-26
-17
-16
-12
-21
-29
-16
-18
-14
-23
-24
-15
-17
-24
-18
-20
-17
-10
-12
-12
-6
-14
-22
-23
-14
-15
-16
-13
-2
-10
-12
-27
-12
-20
-22
-21
-20
-23
-22
-20
-17
-22
-19
-20
-21
-31
-22
-32
-25
-28
-36
-24
-27
-21
-23
-29
-28
-29
-22
-32
-36
-21
-36
-25
-20
-43
-37
-38
-32
-20
-24
-33
-30
-31
-31
-31
-25
-30
-30
-19
-26
-41
-32
-22
-25
-28
-27
-31
-33
-32
-48
-53
-47
-29
-18
10
26
56
80
87
110
139
126
142
150
137
149
125
101
74
61
59
50
45
18
-23
-38
-45
-36
-24
-7
-14
-23
-39
-25
-24
-27
-29
-23
-25
-39
-28
-39
-35
-23
-35
-34
-35
-36
-28
-24
-36
-35
-30
-38
-35
-31
-30
-32
-27
-31
-25
-32
-34
-32
-29
-29
-30
-44
-35
-31
-27
-33
-18
-42
-28
-26
-44
-32
-32
-41
-40
-31
-25
-29
-39
-42
-31
-30
-30
-27
-25
-25
-25
-29
-27
-23
-19
-32
-17
-25
-16
-16
-27
-26
-27
-39
-30
-23
-21
-17
-13
-22
-23
-26
-20
-22
-21
-7
-17
-24
-9
-11
-9
-6
-6
-1
11
1
-12
-9
-3
3
14
5
1
-7
16
12
16
19
19
26
15
7
12
5
9
10
21
13
14
8
5
-9
-12
-12
-5
3
1
-21
-21
-11
-22
-19
-23
-21
-29
-19
-27
-30
-37
-23
-26
-21
-38
-34
-19
-27
-32
-20
-18
-31
-39
-46
-49
-40
-36
-31
-40
-44
-42
-37
-37
-33
-43
-42
-28
-43
-39
-23
-35
-38
-38
-37
-41
-42
-43
-34
-44
-44
-40
-35
-43
-30
-37
-35
-47
-45
-43
-27
-33
-42
-34
-24
-23
-36
-37
-41
-46
-57
-48
-40
-33
-45
-40
-33
-44
-43
-41
-46
-41
-43
-42
-36
-49
-42
-33
-44
-38
-36
-29
-43
-41
-35
-42
-36
-35
-41
-38
-44
-43
-34
-36
-43
-44
-46
-42
-39
-37
-32
-45
-41
-19
-29
-37
-39
-27
-42
-41
-35
-28
-31
-45
-48
-46
-26
-32
-22
-26
-34
-32
-29
-33
-39
-35
-33
-36
-24
-29
-35
-34
-34
-36
-53
-41
-45
-34
-43
-37
-33
-29
-41
-40
-32
-25
-33
-41
-38
-34
-35
-43
-41
-35
-39
-28
-46
-35
-42
-33
-32
-40
-35
-27
-22
-32
-33
-30
-44
-32
-28
-38
-28
-32
-35
-36
-28
-35
-46
-29
-26
-45
-46
-30
-28
-42
-36
-27
-33
-33
-27
-32
-48
-35
-32
-25
-32
-33
-32
-31
-28
-26
-34
-42
-31
-27
-32
-44
-39
-30
-30
-37
-41
-41
-44
-42
-43
-38
-27
-36
-42
-38
-33
-31
-29
-28
-44
-29
-26
-32
-29
-22
-36
-29
-38
-31
-38
-40
-40
-33
-22
-31
-31
-29
-22
-22
-23
-15
-21
-20
-18
-18
-11
-13
-28
-10
-18
-22
-18
-23
-20
-15
-13
-18
-22
-19
-27
-28
-47
-28
-38
-40
-32
-14
-25
-38
-41
-43
-45
-38
-40
-27
-31
-51
-48
-36
-40
-23
-21
-21
-42
-38
-40
-33
-41
-44
-36
-44
-42
-22
-47
-38
-40
-31
-41
-38
-45
-40
-23
-28
-37
-42
-42
-49
-48
-41
-45
-42
-51
-56
-42
-22
-5
24
39
67
87
118
130
133
144
161
164
162
158
164
129
80
65
54
53
38
17
-17
-40
-46
-38
-32
-19
-22
-24
-33
-25
-24
-27
-40
-41
-41
-46
-38
-40
-47
-36
-38
-41
-41
-45
-37
-39
-35
-43
-38
-40
-36
-29
-34
-33
-39
-31
-34
-42
-43
-45
-41
-24
-23
-28
-27
-36
-36
-21
-17
-25
-40
-58
-27
-31
-28
-20
-12
-28
-38
-55
-50
-38
-35
-28
-17
-24
-34
-28
-35
-38
-32
-30
-31
-34
-25
-38
-41
-29
-17
-18
-21
-24
-25
-27
-22
-20
-25
-19
-25
-19
-16
-17
-22
-21
-22
-22
-12
-13
-8
-11
-7
-20
-19
-7
5
11
2
-9
-3
8
14
-7
4
6
5
9
-5
-3
16
15
6
0
11
8
3
8
1
3
14
5
6
0
-17
3
-6
-15
-11
-14
-19
-15
-23
-22
-18
-25
-42
-34
-26
-28
-41
-36
-35
-38
-37
-38
-46
-48
-29
-26
-35
-38
-25
-29
-29
-34
-29
-40
-35
-29
-28
-38
-44
-42
-51
-44
-49
-35
-29
-36
-52
-31
-31
-22
-43
-49
-36
-32
-49
-49
-37
-42
-42
-50
-41
-38
-28
-33
-32
-47
-41
-42
-34
-36
-36
-49
-38
-34
-48
-49
-33
-43
-46
-39
-47
-35
-41
-47
-47
-45
-44
-49
-49
-44
-39
-36
-41
-49
-45
-44
-47
-40
-31
-43
-42
-44
-44
-40
-26
-39
-44
-47
-37
-40
-38
-42
-51
-59
-59
-35
-29
-25
-20
-45
-43
-40
-41
-37
-42
-51
-44
-33
-45
-45
-43
-37
-41
-37
-46
-52
-32
-43
-37
-41
-47
-46
-35
-40
-37
-36
-33
-25
-31
-41
-28
-49
-39
-51
-61
-54
-25
-28
-28
-34
-42
-42
-42
-45
-46
-41
-46
-45
-41
-39
-35
-43
-46
-40
-46
-48
-47
-43
-37
-47
-45
-39
-33
-41
-45
-54
-43
-35
-30
-46
-50
-33
-28
-36
-22
-35
-49
-44
-41
-56
-50
-46
-37
-40
-40
-44
-40
-39
-33
-46
-45
-48
-43
-50
-45
-37
-46
-45
-42
-41
-38
-35
-47
-40
-27
-29
-27
-45
-38
-39
-49
-49
-48
-42
-26
-33
-38
-41
-41
-40
-45
-46
-48
-52
-35
-38
-45
-50
-48
-39
-39
-36
-42
-41
-45
-36
-29
-42
-35
-42
-31
-38
-46
-43
-45
-50
-44
-40
-44
-35
-26
-34
-39
-38
-50
-45
-25
-36
-35
-40
-29
-48
-34
-31
-27
-43
-34
-23
-27
-26
-20
-29
-27
-27
-29
-34
-34
-31
-31
-41
-42
-37
-38
-30
-36
-43
-51
-42
-38
-35
-45
-49
-39
-39
-41
-43
-43
-36
-50
-49
-41
-45
-32
-49
-42
-41
-48
-42
-46
-44
-42
-45
-47
-42
-29
-46
-48
-55
-52
-40
-42
-47
-46
-47
-41
-34
-41
-45
-50
-54
-49
-61
-60
-50
-32
-13
15
46
66
90
106
105
128
136
138
145
141
129
120
84
58
44
31
30
17
-25
-49
-49
-42
-42
-38
-39
-30
-37
-32
-41
-43
-45
-42
-36
-42
-33
-47
-43
-46
-50
-50
-53
-48
-51
-39
-47
-44
-45
-47
-41
-45
-60
-45
-43
-40
-27
-32
-39
-42
-38
-41
-40
-39
-42
-26
-33
-52
-50
-53
-39
-34
-56
-48
-45
-40
-42
-47
-39
-47
-26
-28
-33
-28
-41
-30
-40
-44
-38
-42
-46
-32
-36
-36
-31
-33
-37
-42
-31
-24
-30
-26
-35
-33
-31
-30
-25
-26
-26
-17
-23
-32
-29
-23
-16
-22
-29
-18
-15
-13
-14
-15
-8
-12
-18
-7
-4
-10
-23
-17
5
1
4
2
-3
5
0
6
4
2
-5
5
4
3
-2
-4
6
17
3
-12
-5
-11
-19
-12
-14
-13
-27
-28
-12
-23
-17
-16
-19
-27
-30
-40
-21
-41
-35
-35
-34
-31
-38
-36
-39
-41
-47
-54
-44
-44
-39
-38
-33
-38
-36
-38
-43
-44
-35
-47
-44
-53
-54
-46
-39
-35
-19
-49
-37
-38
-46
-37
-45
-49
-44
-39
-41
-40
-39
-55
-53
-46
-45
-46
-47
-44
-34
-39
-48
-48
-48
-47
-44
-42
-46
-49
-42
-49
-45
-45
-44
-43
-42
-47
-47
-51
-50
-47
-43
-43
-46
-44
-37
-50
-45
-41
-62
-51
-46
-40
-49
-45
-38
-38
-54
-49
-47
-39
-39
-47
-46
-49
-51
-33
-29
-42
-40
-43
-45
-51
-49
-40
-38
-46
-43
-42
-44
-50
-45
-25
-57
-55
-38
-43
-40
-41
-51
-49
-38
-44
-50
-45
-48
-40
-44
-42
-40
-48
-56
-45
-43
-47
-53
-46
-49
-38
-46
-28
-40
-38
-38
-54
-55
-43
-45
-46
-52
-44
-42
-36
-36
-43
-49
-51
-51
-56
-60
-40
-45
-35
-42
-57
-50
-42
-46
-42
-44
-45
-46
-49
-40
-42
-45
-51
-36
-41
-41
-39
-54
-50
-41
-44
-54
-37
-34
-50
-47
-53
-47
-43
-47
-34
-44
-48
-51
-45
-41
-42
-36
-39
-30
-44
-45
-45
-27
-27
-40
-40
-31
-33
-27
-37
-49
-35
-32
-36
-46
-45
-50
-47
-56
-48
-39
-33
-45
-50
-56
-48
-49
-56
-51
-51
-59
-50
-49
-54
-51
-47
-55
-45
-50
-49
-52
-40
-46
-38
-44
-47
-45
-41
-41
-50
-55
-66
-49
-55
-46
-57
-54
-48
-38
-43
-53
-44
-57
-58
-57
-66
-68
-59
-51
-30
-2
3
24
59
75
93
103
107
119
118
115
119
119
107
67
59
47
30
28
11
-26
-53
-43
-43
-43
-41
-32
-36
-44
-42
-53
-44
-38
-40
-61
-59
-48
-40
-43
-46
-51
-58
-49
-48
-47
-48
-49
-52
-53
-29
-50
-48
-56
-51
-48
-53
-57
-42
-54
-50
-38
-48
-47
-42
-44
-49
-38
-43
-37
-38
-40
-64
-47
-52
-25
-29
-40
-46
-53
-39
-44
-31
-40
-45
-56
-39
-43
-42
-38
-39
-49
-57
-46
-65
-46
-13
-37
-33
-39
-34
-42
-42
-32
-24
-35
-25
-32
-37
-51
-43
-27
-28
-32
-33
-30
-26
-25
-30
-5
-14
-12
-22
-15
-9
-1
1
-13
-7
-6
-6
-10
-8
-6
-3
-5
-13
4
3
6
-2
5
12
-4
9
8
2
2
5
-12
-10
-1
-13
-21
-8
-3
-12
-19
-22
-24
-23
-30
-29
-31
-31
-21
-37
-27
-32
-43
-50
-38
-32
-34
-29
-29
-45
-42
-26
-27
-35
-40
-43
-35
-40
-43
-36
-33
-41
-32
-46
-30
-38
-32
-45
-34
-26
-24
-38
-38
-41
-38
-47
-46
-42
-34
-41
-39
-35
-40
-45
-34
-38
-37
-42
-42
-33
-35
-35
-39
-43
-46
-26
-36
-36
-43
-42
-32
-23
-38
-36
-38
-48
-43
-50
-30
-32
-28
-43
-37
-30
-34
-41
-39
-46
-41
-37
-62
-50
-37
-36
-48
-43
-38
-37
-42
-34
-45
-39
-36
-40
-35
-40
-37
-40
-54
-37
-40
-44
-37
-29
-35
-37
-31
-31
-42
-52
-47
-36
-24
-27
-37
-31
-36
-40
-40
-24
-30
-34
-49
-39
-43
-36
-41
-33
-41
-31
-40
-30
-41
-42
-42
-35
-37
-33
-41
-31
-37
-25
-33
-31
-25
-40
-39
-29
-34
-40
-35
-30
-26
-33
-40
-26
-31
-30
-24
-30
-22
-19
-22
-33
-31
-29
-28
-31
-34
-25
-17
-24
-43
-36
-24
-17
-17
-35
-38
-22
-38
-29
-25
-24
-21
-22
-28
-14
-29
-24
-34
-19
-19
-13
-23
-30
-16
-29
-20
-10
-19
-30
-33
-32
-27
-22
-20
-28
-22
-18
-13
-24
-20
-5
-19
-19
-18
-27
-8
-9
-19
-18
-16
-9
-7
-14
-19
-14
-30
-31
-34
-28
-35
-26
-34
-32
-33
-15
-32
-31
-31
-25
-14
-33
-39
-29
-36
-28
-31
-34
-31
-36
-37
-31
-38
-30
-33
-40
-28
-34
-34
-36
-43
-47
-37
-38
-31
-33
-36
-44
-38
-41
-38
-36
-38
-44
-42
-41
-49
-57
-54
-53
-36
-16
21
30
52
79
100
104
109
130
141
140
136
151
135
112
84
61
52
55
48
15
-24
-46
-43
-43
-33
-42
-43
-28
-35
-46
-49
-39
-41
-56
-46
-43
-56
-57
-56
-63
-51
-58
-46
-64
-62
-60
-62
-56
-59
-64
-61
-60
-62
-77
-68
-69
-58
-61
-74
-64
-69
-57
-70
-66
-78
-83
-84
-86
-86
-102
-87
-90
-97
-89
-94
-104
-103
-107
-106
-111
-113
-109
-110
-104
-106
-107
-106
-112
-126
-127
-99
-113
-110
-105
-104
-127
-120
-129
-128
-119
-118
-120
-116
-122
-124
-123
-115
-116
-114
-119
-121
-119
-120
-118
-117
-114
-110
-108
-119
-111
-107
-111
-115
-96
-118
-124
-97
-76
-96
-95
-92
-96
-97
-93
-88
-77
-95
-99
-87
-91
-94
-96
-89
-94
-93
-107
-105
-110
-107
-113
-115
-124
-127
-140
-143
-143
-153
-151
-156
-162
-178
-170
-183
-178
-189
-187
-191
-198
-201
-207
-220
-221
-199
-201
-211
-220
-223
-221
-242
-232
-244
-247
-245
-234
-249
-246
-260
-259
-274
-270
-276
-257
-265
-266
-281
-291
-285
-299
-291
-288
-289
-287
-310
-304
-311
-297
-308
-309
-320
-320
-312
-321
-311
-327
-333
-326
-327
-327
-333
-326
-326
-325
-337
-339
-341
-340
-346
-351
-342
-333
-342
-337
-348
-374
-351
-358
-357
-348
-350
-366
-360
-355
-347
-354
-372
-377
-361
-359
-355
-364
-365
-369
-367
-368
-370
-356
-364
-374
-374
-374
-370
-363
-361
-358
-372
-363
-361
-365
-363
-369
-368
-364
-350
-371
-363
-373
-370
-364
-367
-368
-370
-386
-362
-359
-366
-367
-358
-364
-365
-359
-369
-370
-371
-366
-355
-351
-372
-355
-343
-356
-351
-351
-361
-353
-360
-354
-347
-347
-354
-357
-355
-348
-350
-346
-345
-336
-359
-354
-357
-350
-333
-348
-339
-358
-358
-340
-349
-362
-358
-339
-346
-343
-340
-347
-342
-344
-349
-338
-340
-345
-338
-337
-338
-340
-337
-336
-341
-335
-324
-329
-338
-341
-337
-338
-335
-337
-330
-329
-330
-324
-326
-325
-340
-330
-321
-314
-334
-343
-330
-333
-332
-327
-326
-334
-324
-329
-324
-320
-316
-319
-323
-312
-314
-321
-323
-314
-324
-314
-313
-310
-316
-321
-330
-329
-327
-324
-334
-334
-325
-323
-324
-336
-333
-333
-328
-323
-332
-337
-317
-331
-331
-319
-331
-334
-332
-334
-327
-336
-343
-316
-327
-340
-337
-330
-323
-328
-345
-337
-328
-327
-331
-319
-325
-331
-325
-334
-331
-324
-321
-325
-325
-318
-332
-336
-342
-344
-333
-324
-304
-276
-262
-223
-198
-195
-175
-167
-156
-147
-139
-148
-137
-148
-175
-205
-232
-240
-246
-252
-280
-304
-317
-322
-327
-324
-319
-317
-334
-318
-313
-323
-321
-315
-326
-326
-326
-324
-324
-326
-323
-322
-322
-320
-326
-319
-327
-340
-329
-325
-323
-330
-319
-323
-327
-331
-329
-316
-318
-333
-326
-326
-328
-330
-337
-333
-346
-334
-326
-323
-302
-322
-324
-318
-318
-311
-310
-311
-309
-331
-308
-310
-320
-327
-322
-325
-322
-320
-320
-323
-326
-322
-324
-325
-320
-316
-313
-316
-309
-314
-314
-321
-319
-310
-312
-314
-314
-310
-304
-314
-300
-306
-303
-303
-300
-307
-305
-316
-305
-296
-298
-296
-299
-301
-287
-277
-281
-282
-294
-291
-278
-283
-289
-277
-288
-280
-276
-272
-279
-280
-283
-276
-267
-273
-271
-269
-276
-277
-287
-290
-293
-282
-286
-293
-299
-294
-285
-298
-301
-301
-302
-313
-308
-301
-306
-312
-314
-304
-307
-313
-315
-318
-319
-326
-327
-321
-327
-316
-321
-322
-316
-321
-318
-316
-310
-314
-325
-320
-313
-308
-311
-312
-311
-320
-327
-321
-321
-319
-315
-322
-313
-305
-310
-317
-316
-325
-320
-327
-326
-317
-318
-321
-322
-336
-325
-296
-311
-317
-313
-311
-311
-303
-296
-304
-323
-328
-319
-300
-299
-309
-308
-312
-318
-315
-310
-304
-300
-297
-300
-307
-295
-297
-298
-298
-285
-286
-299
-301
-292
-298
-285
-270
-289
-288
-283
-269
-275
-268
-275
-251
-242
-270
-266
-258
-280
-286
-272
-266
-238
-241
-251
-245
-247
-253
-250
-242
-242
-245
-247
-238
-217
-209
-209
-219
-231
-226
-213
-201
-208
-204
-204
-200
-183
-188
-168
-176
-164
-172
-174
-168
-161
-170
-169
-162
-164
-137
-146
-148
-155
-161
-141
-144
-131
-138
-142
-138
-135
-135
-126
-137
-108
-114
-135
-125
-132
-127
-131
-127
-131
-105
-119
-135
-120
-114
-114
-114
-114
-112
-110
-111
-131
-105
-106
-114
-106
-109
-118
-128
-95
-103
-115
-116
-109
-106
-105
-113
-102
-107
-99
-104
-100
-98
-92
-88
-97
-105
-103
-107
-96
-110
-101
-88
-91
-88
-92
-95
-96
-96
-90
-99
-92
-87
-92
-85
-85
-79
-93
-75
-85
-98
-97
-90
-86
-86
-85
-92
-86
-90
-89
-86
-85
-98
-88
-84
-90
-107
-101
-95
-88
-90
-85
-83
-93
-90
-94
-93
-91
-92
-79
-81
-87
-78
-79
-89
-84
-89
-89
-106
-92
-84
-74
-85
-89
-88
-95
-90
-78
-91
-77
-78
-72
-80
-69
-73
-87
-87
-91
-97
-99
-95
-94
-92
-92
-83
-92
-103
-95
-98
-95
-89
-91
-80
-93
-103
-96
-99
-97
-95
-97
-106
-94
-112
-96
-96
-99
-112
-106
-89
-90
-107
-93
-97
-120
-111
-81
-91
-104
-109
-115
-98
-85
-97
-110
-121
-111
-95
-94
-98
-122
-115
-110
-122
-108
-120
-108
-65
-41
-27
-14
18
45
41
48
55
35
38
27
17
22
20
-27
-37
-63
-66
-93
-119
-121
-141
-137
-121
-122
-133
-144
-132
-125
-115
-128
-138
-137
-134
-147
-154
-142
-134
-139
-140
-139
-142
-138
-133
-127
-141
-137
-128
-129
-139
-143
-148
-147
-128
-129
-144
-141
-129
-141
-126
-139
-152
-140
-142
-154
-136
-142
-142
-144
-144
-149
-151
-141
-148
-123
-133
-137
-144
-143
-134
-147
-150
-133
-132
-143
-134
-148
-122
-139
-147
-138
-134
-143
-138
-135
-136
-132
-136
-138
-135
-133
-138
-139
-130
-156
-141
-125
-138
-134
-126
-124
-120
-130
-133
-112
-107
-123
-106
-109
-102
-109
-113
-106
-101
-106
-112
-91
-100
-107
-110
-99
-97
-101
-101
-83
-79
-92
-89
-87
-90
-66
-92
-103
-108
-110
-102
-91
-89
-98
-109
-117
-113
-123
-93
-114
-115
-122
-115
-122
-110
-135
-132
-156
-131
-110
-135
-125
-127
-130
-134
-151
-144
-139
-140
-135
-140
-151
-144
-141
-147
-149
-135
-148
-124
-137
-140
-144
-137
-142
-142
-146
-138
-135
-138
-141
-149
-155
-144
-146
-142
-153
-161
-160
-134
-136
-153
-143
-138
-151
-149
-138
-147
-157
-154
-146
-147
-141
-146
-150
-142
-149
-147
-146
-146
-142
-141
-138
-153
-144
-147
-163
-135
-144
-159
-155
-148
-148
-146
-133
-143
-143
-138
-145
-154
-150
-143
-149
-146
-139
-146
-142
-152
-140
-153
-147
-156
-151
-153
-150
-145
-156
-155
-143
-150
-167
-148
-140
-159
-151
-141
-152
-161
-158
-154
-139
-151
-157
-165
-141
-157
-159
-153
-138
-148
-144
-154
-141
-160
-165
-160
-147
-154
-178
-116
-144
-134
-165
-154
-170
-142
-150
-166
-128
-131
-171
-160
-160
-149
-138
-161
-175
-159
-165
-117
-147
-157
-155
-163
-160
-142
-176
-157
-153
-162
-161
-154
-139
-165
-160
-131
-169
-179
-180
-120
-137
-153
-162
-142
-149
-183
-167
-207
-97
-157
-192
-106
-140
-136
-154
-146
-146
-144
-146
-149
-143
-149
-153
-170
-158
-140
-141
-148
-141
-158
-160
-166
-149
-145
-157
-151
-155
-163
-186
-186
-145
-139
-153
-156
-163
-141
-143
-153
-152
-159
-173
-153
-180
-177
-167
-145
-151
-155
-186
-150
-139
-176
-162
-152
-148
-160
-160
-157
-163
-152
-153
-161
-172
-149
-157
-159
-158
-163
-149
-155
-152
-160
-171
-168
-169
-179
-173
-172
-171
-163
-123
-115
-91
-63
-55
-48
-22
-13
-12
-4
-7
3
-4
3
-20
-51
-76
-91
-87
-83
-114
-144
-156
-152
-153
-144
-148
-161
-148
-153
-161
-143
-156
-153
-145
-152
-158
-171
-158
-156
-150
-150
-155
-155
-146
-158
-159
-158
-156
-157
-157
-164
-155
-149
-157
-155
-157
-154
-149
-158
-155
-149
-163
-161
-154
-150
-157
-148
-158
-141
-141
-140
-158
-154
-149
-137
-135
-143
-164
-159
-141
-143
-134
-138
-143
-144
-155
-151
-146
-137
-141
-139
-131
-147
-143
-149
-130
-138
-144
-148
-140
-142
-138
-140
-134
-128
-129
-126
-133
-128
-134
-133
-139
-127
-128
-127
-122
-121
-119
-119
-107
-109
-123
-127
-127
-94
-105
-102
-115
-118
-105
-105
-103
-99
-101
-113
-109
-98
-99
-88
-102
-99
-92
-95
-87
-96
-89
-95
-108
-113
-115
-102
-125
-118
-112
-103
-102
-113
-133
-127
-122
-128
-123
-146
-151
-127
-122
-132
-146
-132
-138
-141
-152
-135
-139
-146
-150
-146
-150
-139
-153
-140
-145
-135
-136
-146
-153
-144
-149
-141
-145
-149
-144
-136
-147
-137
-142
-148
-130
-142
-141
-155
-143
-148
-136
-139
-147
-142
-131
-138
-153
-148
-138
-151
-152
-148
-161
-146
-112
-135
-129
-141
-149
-144
-125
-128
-127
-146
-132
-152
-148
-145
-151
-145
-146
-154
-146
-157
-138
-141
-142
-138
-135
-142
-139
-141
-138
-145
-145
-154
-141
-144
-157
-149
-144
-139
-139
-155
-155
-131
-132
-141
-152
-154
-143
-153
-151
-141
-149
-155
-161
-134
-137
-135
-136
-129
-154
-158
-120
-131
-144
-147
-126
-143
-139
-146
-150
-147
-141
-141
-141
-133
-138
-134
-150
-155
-116
-150
-158
-171
-152
-142
-100
-162
-164
-139
-124
-133
-130
-134
-131
-146
-143
-141
-147
-154
-132
-140
-141
-147
-148
-150
-157
-157
-112
-122
-135
-150
-147
-144
-145
-141
-145
-144
-143
-145
-147
-144
-139
-138
-155
-145
-140
-141
-150
-143
-141
-145
-138
-137
-152
-126
-150
-134
-136
-133
-135
-143
-147
-138
-128
-132
-140
-128
-125
-118
-119
-131
-132
-138
-122
-132
-127
-128
-125
-134
-118
-141
-147
-131
-162
-155
-137
-141
-149
-128
-154
-156
-137
-148
-152
-148
-171
-143
-113
-157
-165
-139
-130
-143
-136
-151
-151
-119
-132
-186
-138
-140
-154
-135
-136
-138
-154
-145
-144
-111
-166
-154
-135
-143
-123
-147
-141
-142
-152
-160
-120
-137
-147
-155
-131
-148
-153
-152
-135
-142
-144
-105
-96
-79
-61
-12
-17
13
26
33
40
49
50
57
37
17
-21
-50
-30
-52
-69
-93
-105
-142
-143
-137
-138
-130
-132
-129
-142
-126
-146
-137
-135
-137
-136
-141
-145
-143
-145
-151
-134
-146
-135
-150
-142
-126
-129
-131
-134
-135
-137
-134
-139
-140
-141
-136
-132
-128
-135
-135
-132
-129
-144
-139
-134
-138
-141
-138
-145
-139
-136
-134
-138
-140
-130
-127
-129
-128
-120
-122
-141
-148
-128
-127
-137
-121
-124
-129
-134
-137
-134
-134
-128
-125
-127
-125
-127
-122
-122
-124
-127
-113
-129
-108
-127
-126
-124
-120
-122
-126
-115
-109
-112
-122
-134
-89
-105
-114
-106
-97
-90
-95
-100
-105
-92
-94
-98
-85
-89
-98
-90
-78
-81
-79
-88
-84
-87
-88
-78
-75
-86
-75
-73
-75
-74
-72
-74
-87
-74
-80
-85
-87
-75
-82
-84
-98
-95
-87
-101
-106
-101
-78
-93
-105
-107
-113
-112
-114
-114
-121
-107
-109
-110
-111
-103
-109
-103
-106
-117
-115
-108
-119
-112
-113
-111
-114
-114
-115
-109
-119
-110
-104
-115
-118
-118
-112
-102
-107
-114
-101
-122
-123
-111
-114
-114
-115
-100
-106
-124
-103
-109
-123
-121
-120
-106
-115
-118
-114
-126
-116
-113
-95
-116
-112
-105
-113
-112
-110
-116
-113
-108
-116
-109
-114
-111
-106
-94
-106
-113
-136
-117
-116
-114
-116
-116
-111
-127
-116
-126
-117
-108
-116
-122
-124
-104
-119
-119
-117
-119
-109
-113
-115
-118
-103
-113
-107
-113
-115
-106
-94
-104
-108
-106
-116
-113
-114
-124
-117
-112
-116
-122
-116
-103
-106
-114
-111
-117
-122
-118
-140
-121
-88
-84
-112
-106
-97
-93
-118
-120
-108
-94
-107
-116
-108
-105
-103
-113
-113
-98
-109
-106
-110
-111
-111
-104
-102
-106
-104
-102
-104
-119
-111
-120
-110
-101
-110
-107
-108
-98
-120
-113
-109
-115
-110
-109
-113
-111
-101
-104
-104
-126
-117
-105
-111
-98
-104
-103
-113
-117
-103
-95
-106
-100
-107
-123
-92
-97
-101
-99
-108
-105
-110
-103
-111
-99
-102
-114
-116
-114
-115
-110
-107
-104
-109
-113
-105
-100
-109
-111
-110
-108
-109
-101
-108
-107
-106
-108
-112
-111
-111
-107
-109
-101
-104
-100
-108
-96
-95
-98
-107
-116
-105
-93
-112
-114
-104
-104
-102
-93
-105
-109
-106
-106
-111
-102
-107
-102
-101
-101
-107
-104
-99
-102
-100
-104
-106
-111
-107
-107
-105
-106
-105
-107
-103
-96
-106
-106
-103
-93
-103
-110
-75
-85
-100
-102
-93
-87
-93
-94
-95
-98
-102
-98
-108
-102
-105
-113
-105
-105
-108
-99
-96
-101
-101
-98
-117
-118
-117
-94
-104
-106
-117
-115
-106
-114
-113
-114
-114
-109
-113
-118
-111
-110
-99
-104
-118
-115
-116
-120
-105
-106
-105
-110
-110
-108
-109
-115
-112
-117
-103
-109
-104
-119
-107
-121
-127
-123
-113
-107
-96
-68
-45
-21
-19
-1
23
38
66
82
74
64
68
62
49
20
-8
-22
-13
-16
-33
-82
-104
-122
-118
-112
-106
-111
-116
-122
-111
-111
-113
-125
-119
-119
-115
-114
-115
-117
-115
-116
-120
-115
-121
-123
-126
-125
-107
-111
-105
-122
-117
-124
-112
-114
-111
-119
-127
-124
-105
-113
-102
-112
-120
-113
-112
-112
-118
-119
-116
-123
-105
-104
-116
-131
-114
-122
-124
-128
-114
-106
-115
-110
-116
-117
-102
-111
-118
-122
-109
-113
-112
-111
-115
-114
-115
-103
-105
-105
-107
-102
-107
-107
-101
-99
-95
-101
-109
-96
-94
-96
-106
-106
-97
-104
-108
-105
-91
-95
-97
-98
-96
-87
-90
-95
-87
-78
-74
-84
-73
-75
-78
-81
-97
-71
-71
-65
-68
-70
-67
-77
-67
-72
-69
-70
-71
-65
-80
-78
-73
-72
-69
-74
-74
-78
-85
-84
-95
-97
-109
-95
-96
-106
-89
-101
-102
-97
-96
-108
-114
-106
-107
-105
-103
-111
-110
-109
-107
-108
-111
-109
-112
-119
-125
-122
-115
-112
-112
-107
-111
-115
-113
-106
-119
-115
-114
-109
-105
-109
-116
-110
-112
-112
-123
-117
-116
-126
-105
-109
-115
-106
-115
-110
-117
-114
-116
-118
-129
-140
-129
-107
-117
-121
-104
-114
-120
-102
-103
-111
-109
-119
-117
-103
-116
-127
-130
-122
-113
-114
-114
-103
-108
-119
-119
-127
-117
-111
-106
-113
-112
-109
-117
-124
-107
-104
-106
-112
-112
-113
-117
-118
-120
-115
-105
-109
-113
-115
-114
-119
-120
-115
-115
-104
-118
-114
-115
-112
-111
-103
-120
-113
-112
-115
-117
-119
-105
-116
-112
-103
-115
-108
-118
-111
-110
-116
-109
-112
-114
-113
-109
-113
-106
-117
-112
-121
-117
-113
-111
-111
-107
-105
-117
-113
-112
-114
-110
-109
-115
-111
-112
-106
-111
-110
-115
-113
-114
-116
-111
-111
-110
-111
-112
-117
-119
-110
-109
-108
-120
-111
-105
-116
-116
-108
-117
-112
-108
-113
-110
-104
-106
-113
-110
-110
-112
-111
-107
-116
-115
-113
-103
-105
-100
-108
-100
-101
-103
-100
-100
-102
-101
-99
-96
-99
-95
-97
-98
-102
-99
-113
-95
-96
-102
-100
-116
-105
-108
-106
-113
-104
-106
-102
-111
-106
-105
-111
-100
-123
-86
-101
-98
-101
-94
-104
-109
-114
-101
-92
-112
-93
-99
-106
-107
-94
-99
-102
-102
-109
-107
-95
-107
-97
-104
-95
-101
-99
-111
-110
-106
-101
-99
-105
-101
-103
-104
-108
-115
-115
-117
-118
-111
-91
-62
-42
-17
0
28
36
48
55
61
57
44
46
40
29
-6
-23
-23
-31
-46
-73
-104
-108
-109
-103
-97
-95
-99
-104
-101
-102
-87
-89
-98
-109
-87
-101
-104
-101
-102
-98
-105
-106
-96
-93
-100
-103
-97
-93
-98
-100
-90
-96
-95
-98
-95
-91
-94
-95
-99
-102
-101
-104
-100
-95
-93
-94
-100
-91
-94
-100
-97
-93
-88
-90
-90
-96
-87
-90
-89
-92
-98
-87
-94
-99
-91
-87
-88
-85
-82
-83
-88
-100
-82
-92
-94
-94
-92
-89
-86
-77
-81
-91
-88
-87
-83
-79
-82
-79
-74
-69
-61
-71
-75
-74
-80
-72
-63
-63
-72
-61
-66
-61
-57
-43
-57
-62
-73
-45
-42
-46
-55
-38
-34
-46
-39
-43
-41
-39
-39
-41
-36
-27
-31
-38
-50
-63
-36
-46
-48
-59
-62
-53
-63
-53
-52
-59
-73
-65
-70
-85
-79
-80
-85
-86
-80
-82
-85
-82
-85
-87
-94
-83
-92
-92
-80
-95
-93
-89
-93
-94
-89
-90
-100
-88
-91
-82
-87
-84
-86
-98
-106
-90
-86
-98
-94
-92
-95
-98
-96
-102
-103
-93
-85
-92
-95
-92
-90
-96
-92
-94
-94
-93
-95
-92
-96
-94
-103
-86
-92
-87
-94
-95
-85
-90
-81
-88
-89
-98
-89
-101
-94
-89
-89
-82
-87
-85
-80
-86
-87
-92
-95
-86
-92
-95
-88
-95
-83
-81
-86
-79
-86
-93
-85
-85
-81
-88
-94
-80
-82
-94
-90
-81
-88
-83
-93
-93
-82
-85
-89
-92
-83
-75
-74
-87
-90
-88
-84
-82
-78
-86
-87
-81
-88
-94
-86
-85
-71
-85
-89
-74
-76
-85
-89
-83
-85
-96
-95
-90
-89
-91
-84
-83
-87
-96
-80
-85
-82
-87
-78
-78
-85
-79
-78
-79
-77
-84
-89
-92
-87
-86
-80
-83
-84
-90
-81
-75
-76
-77
-78
-72
-68
-79
-88
-90
-75
-83
-73
-66
-69
-78
-70
-65
-68
-69
-76
-77
-74
-63
-74
-67
-72
-72
-71
-71
-66
-67
-74
-75
-79
-73
-80
-83
-78
-80
-80
-75
-73
-82
-75
-91
-95
-91
-79
-90
-85
-86
-89
-87
-85
-86
-85
-95
-93
-82
-80
-81
-83
-87
-84
-85
-87
-88
-95
-84
-85
-82
-81
-89
-88
-81
-91
-103
-77
-84
-85
-80
-89
-88
-96
-101
-98
-101
-90
-70
-62
-35
-14
-2
20
44
69
76
72
88
90
85
91
71
51
24
-3
-11
-18
-28
-51
-83
-88
-90
-88
-85
-93
-69
-81
-77
-74
-85
-77
-82
-76
-78
-93
-93
-89
-95
-91
-77
-86
-79
-86
-93
-88
-89
-78
-94
-99
-81
-80
-91
-84
-85
-81
-79
-84
-88
-88
-82
-89
-91
-82
-78
-81
-78
-84
-86
-92
-85
-83
-84
-85
-81
-90
-73
-81
-76
-74
-83
-73
-83
-84
-78
-80
-75
-77
-80
-82
-79
-79
-83
-89
-86
-71
-78
-74
-71
-74
-66
-71
-72
-70
-71
-66
-78
-71
-69
-68
-54
-63
-64
-54
-78
-64
-62
-47
-64
-49
-41
-56
-54
-50
-52
-40
-63
-49
-40
-46
-36
-36
-44
-34
-35
-34
-35
-33
-39
-34
-31
-34
-33
-28
-38
-29
-42
-42
-34
-41
-54
-43
-43
-34
-46
-58
-61
-63
-69
-58
-67
-75
-79
-72
-78
-77
-73
-68
-78
-88
-81
-80
-83
-79
-68
-80
-76
-74
-77
-92
-85
-81
-74
-70
-77
-72
-87
-88
-88
-85
-83
-86
-81
-80
-85
-74
-78
-87
-80
-82
-86
-85
-71
-78
-75
-86
-83
-85
-77
-85
-80
-76
-71
-79
-84
-89
-87
-79
-85
-85
-81
-83
-86
-81
-89
-73
-94
-79
-85
-74
-79
-85
-87
-88
-85
-78
-76
-84
-88
-79
-89
-80
-82
-83
-84
-84
-72
-80
-75
-81
-83
-80
-91
-84
-75
-82
-88
-86
-77
-85
-85
-74
-80
-81
-75
-69
-81
-82
-84
-81
-77
-69
-75
-71
-73
-67
-82
-86
-82
-78
-71
-75
-78
-75
-70
-95
-85
-76
-74
-71
-86
-85
-91
-80
-85
-90
-74
-75
-75
-65
-61
-73
-67
-61
-57
-74
-97
-83
-78
-74
-82
-85
-79
-98
-82
-79
-71
-77
-81
-84
-80
-81
-75
-83
-79
-83
-76
-78
-71
-73
-80
-86
-72
-58
-71
-74
-80
-81
-84
-73
-83
-80
-65
-74
-69
-79
-77
-86
-86
-88
-81
-74
-78
-69
-82
-90
-81
-79
-79
-77
-79
-83
-80
-82
-71
-80
-83
-80
-77
-79
-75
-76
-81
-82
-76
-74
-75
-75
-71
-72
-72
-78
-94
-81
-68
-70
-72
-72
-69
-73
-69
-78
-73
-82
-76
-80
-85
-86
-80
-71
-78
-65
-73
-73
-79
-76
-78
-88
-75
-76
-74
-84
-81
-79
-82
-71
-72
-95
-76
-65
-73
-75
-72
-70
-76
-89
-64
-79
-72
-75
-70
-61
-58
-54
-68
-61
-70
-67
-67
-70
-66
-72
-70
-64
-65
-61
-54
-71
-79
-54
-58
-52
-53
-58
-65
-65
-48
-55
-66
-72
-81
-73
-63
-64
-72
-69
-70
-69
-63
-81
-75
-82
-80
-81
-82
-82
-85
-66
-73
-81
-72
-83
-87
-66
-68
-89
-77
-81
-82
-80
-79
-79
-75
-72
-75
-77
-69
-78
-72
-71
-77
-75
-77
-81
-78
-76
-73
-77
-97
-93
-78
-78
-69
-46
-19
2
22
47
72
80
82
107
108
105
107
108
104
76
36
29
21
12
-5
-29
-68
-72
-76
-74
-72
-61
-63
-72
-69
-61
-83
-79
-70
-75
-74
-74
-68
-68
-76
-74
-75
-77
-82
-64
-76
-78
-77
-82
-96
-75
-82
-76
-81
-72
-72
-66
-69
-73
-67
-71
-78
-79
-77
-79
-82
-80
-76
-74
-78
-66
-54
-65
-91
-68
-70
-69
-73
-75
-74
-63
-68
-61
-67
-67
-68
-77
-78
-80
-66
-69
-61
-55
-72
-76
-66
-59
-63
-72
-63
-67
-69
-62
-57
-53
-70
-70
-58
-54
-57
-59
-58
-48
-64
-53
-42
-45
-51
-66
-54
-55
-52
-50
-48
-39
-40
-39
-48
-32
-28
-36
-39
-46
-34
-23
-18
-32
-35
-24
-25
-28
-19
-37
-31
-16
-29
-19
-25
-26
-33
-31
-30
-32
-31
-37
-33
-33
-30
-38
-65
-50
-50
-47
-52
-56
-60
-65
-57
-55
-54
-59
-57
-59
-61
-59
-62
-61
-72
-76
-60
-63
-55
-56
-60
-65
-73
-73
-59
-62
-65
-60
-78
-62
-60
-65
-70
-65
-53
-68
-67
-66
-62
-67
-73
-64
-65
-61
-62
-59
-55
-61
-69
-66
-80
-72
-63
-61
-68
-73
-71
-67
-68
-60
-62
-65
-69
-70
-72
-79
-72
-66
-63
-67
-75
-81
-58
-70
-70
-64
-60
-59
-67
-74
-63
-69
-73
-74
-68
-73
-71
-67
-59
-64
-67
-77
-66
-71
-69
-69
-80
-77
-58
-68
-65
-73
-68
-73
-74
-61
-76
-73
-71
-58
-59
-67
-71
-65
-69
-72
-69
-69
-57
-58
-56
-66
-77
-74
-66
-65
-72
-58
-63
-71
-53
-60
-64
-73
-66
-61
-72
-80
-65
-63
-66
-79
-64
-60
-70
-68
-73
-63
-60
-54
-69
-61
-71
-70
-58
-56
-69
-67
-62
-66
-52
-73
-72
-57
-53
-55
-58
-67
-73
-67
-65
-61
-65
-68
-75
-74
-63
-67
-72
-57
-63
-66
-65
-68
-57
-67
-66
-66
-71
-69
-71
-74
-75
-67
-64
-55
-59
-55
-62
-70
-73
-59
-73
-63
-67
-69
-65
-69
-66
-68
-66
-71
-65
-58
-46
-63
-74
-65
-70
-68
-68
-77
-74
-66
-57
-53
-70
-65
-69
-80
-69
-49
-64
-72
-80
-65
-63
-57
-54
-68
-66
-62
-81
-74
-64
-58
-71
-57
-67
-68
-67
-61
-65
-59
-68
-62
-53
-52
-66
-69
-63
-53
-64
-62
-52
-57
-70
-50
-53
-55
-52
-49
-63
-53
-47
-47
-54
-53
-50
-53
-51
-46
-48
-49
-53
-46
-58
-61
-60
-46
-57
-62
-68
-69
-55
-61
-70
-57
-61
-71
-72
-60
-69
-72
-65
-62
-63
-72
-66
-66
-62
-78
-66
-64
-70
-75
-68
-61
-65
-64
-72
-54
-70
-67
-69
-69
-66
-68
-71
-71
-70
-71
-60
-57
-64
-71
-74
-84
-82
-93
-82
-68
-53
-21
10
29
54
72
87
95
109
122
114
130
141
130
113
77
36
7
19
10
-15
-31
-61
-81
-67
-56
-62
-50
-62
-75
-59
-62
-64
-68
-71
-76
-64
-59
-69
-70
-68
-55
-62
-64
-72
-77
-68
-58
-65
-71
-75
-63
-69
-71
-61
-69
-62
-74
-58
-71
-73
-61
-79
-70
-65
-55
-76
-67
-62
-63
-67
-64
-75
-64
-51
-69
-65
-56
-62
-64
-64
-63
-61
-55
-45
-54
-63
-62
-68
-61
-55
-52
-60
-58
-73
-47
-61
-69
-56
-51
-52
-61
-73
-52
-41
-49
-59
-52
-46
-50
-60
-54
-42
-51
-47
-41
-46
-45
-41
-39
-43
-41
-41
-21
-31
-28
-16
-32
-24
-27
-32
-29
-29
-22
-13
-12
-10
-12
-8
-11
-13
-17
-13
-17
-19
-10
-10
-17
-15
-12
-22
-16
-14
-17
-21
-31
-22
-33
-37
-34
-43
-38
-47
-53
-48
-52
-39
-37
-49
-49
-58
-62
-62
-56
-50
-64
-60
-46
-52
-61
-67
-60
-63
-57
-61
-58
-57
-56
-64
-58
-57
-47
-61
-58
-53
-57
-60
-67
-56
-56
-60
-66
-66
-63
-66
-74
-55
-48
-55
-76
-66
-51
-60
-60
-62
-66
-71
-56
-62
-62
-64
-61
-60
-62
-53
-70
-71
-61
-48
-53
-50
-75
-71
-59
-74
-57
-56
-62
-58
-57
-55
-70
-65
-73
-62
-56
-62
-62
-71
-76
-68
-59
-68
-69
-69
-68
-59
-62
-71
-61
-56
-63
-65
-60
-59
-59
-62
-61
-59
-60
-63
-63
-64
-60
-59
-60
-56
-58
-56
-68
-55
-70
-67
-61
-61
-60
-53
-60
-70
-52
-59
-59
-59
-60
-58
-53
-61
-63
-72
-73
-55
-60
-59
-54
-63
-52
-64
-64
-66
-61
-63
-58
-56
-64
-54
-53
-60
-58
-68
-68
-53
-60
-66
-56
-65
-63
-55
-56
-69
-69
-63
-68
-61
-55
-57
-55
-54
-60
-58
-55
-72
-59
-61
-64
-66
-61
-55
-64
-63
-58
-60
-64
-61
-59
-73
-56
-59
-58
-64
-64
-60
-63
-49
-63
-76
-63
-57
-63
-54
-58
-68
-59
-59
-63
-73
-65
-70
-58
-65
-71
-59
-55
-67
-61
-50
-56
-50
-51
-63
-61
-60
-60
-56
-51
-50
-51
-46
-43
-44
-46
-60
-50
-42
-62
-61
-44
-41
-51
-50
-40
-39
-51
-54
-48
-58
-47
-43
-52
-76
-66
-50
-62
-64
-69
-59
-63
-65
-60
-59
-57
-67
-71
-62
-67
-73
-60
-77
-70
-61
-76
-52
-71
-73
-63
-71
-70
-71
-74
-66
-66
-68
-68
-59
-75
-72
-72
-65
-66
-70
-74
-70
-69
-61
-67
-75
-82
-81
-86
-63
-45
-18
3
29
61
74
95
89
121
127
131
127
136
123
106
69
39
23
14
-2
-17
-51
-62
-65
-60
-70
-58
-67
-62
-48
-65
-59
-57
-73
-62
-66
-58
-64
-83
-62
-59
-66
-68
-58
-53
-60
-68
-67
-63
-75
-70
-60
-70
-72
-72
-69
-60
-66
-63
-67
-64
-68
-66
-67
-65
-59
-64
-71
-64
-62
-58
-65
-65
-58
-67
-66
-72
-53
-63
-72
-70
-53
-72
-69
-51
-66
-79
-71
-57
-49
-63
-61
-68
-53
-61
-49
-46
-47
-52
-49
-56
-48
-54
-58
-66
-64
-65
-61
-62
-59
-46
-48
-44
-43
-50
-45
-44
-29
-24
-39
-43
-35
-39
-34
-26
