343
343
328
321
326
330
338
336
336
334
331
332
328
320
326
335
341
336
337
334
329
329
335
335
332
329
331
336
342
331
337
342
320
322
325
330
333
335
338
333
331
333
325
317
328
331
326
333
328
338
326
319
325
334
331
337
326
317
329
323
325
326
324
325
320
328
325
327
334
332
316
322
319
322
325
325
328
325
333
323
322
319
317
326
317
321
328
328
331
326
325
319
323
318
323
327
331
334
323
321
323
320
324
318
330
321
317
326
327
322
324
324
322
320
331
319
319
314
322
323
322
321
323
325
318
321
329
323
327
336
329
316
321
326
321
321
332
329
334
342
334
323
325
334
332
334
341
331
328
328
312
309
317
320
318
310
313
316
322
319
328
314
307
313
323
319
311
320
320
318
314
310
318
317
317
318
321
322
315
321
330
328
331
337
357
375
383
382
383
384
372
373
377
358
324
298
284
290
298
289
265
242
239
248
268
278
288
295
297
301
306
301
303
307
310
317
315
316
314
316
307
314
309
316
316
317
317
321
317
307
311
310
316
313
308
321
317
316
318
319
317
317
314
317
317
316
320
324
322
317
327
322
320
322
319
317
327
330
330
324
316
322
331
331
329
322
327
334
341
329
322
329
332
338
339
342
344
345
349
343
350
340
345
356
352
350
363
369
359
369
361
366
373
372
369
381
377
379
384
372
383
384
388
375
379
382
378
381
375
369
373
369
369
362
368
361
357
360
350
345
343
333
325
327
331
330
329
326
317
314
310
309
314
312
300
302
313
307
309
307
295
309
318
304
300
303
309
300
298
304
299
300
299
296
302
304
305
305
298
301
305
299
287
292
301
297
293
297
299
303
293
298
297
295
300
305
310
301
300
306
285
297
303
303
302
297
296
301
301
296
300
305
300
301
299
303
304
306
302
297
301
299
297
298
302
287
303
302
297
299
299
293
298
294
301
300
301
298
296
289
292
296
296
300
298
302
302
297
288
285
287
292
294
288
297
295
294
298
290
287
292
286
294
298
288
292
294
292
286
292
290
286
288
292
293
288
287
292
287
282
285
286
289
287
289
291
290
293
293
285
289
293
283
290
284
284
288
286
283
280
284
280
285
279
284
285
294
286
286
281
285
288
280
289
280
286
284
287
283
282
277
288
292
292
288
294
292
286
287
281
286
285
295
295
297
292
296
299
290
296
298
294
289
290
280
287
280
273
275
271
279
274
281
274
276
285
278
276
281
271
269
279
276
269
273
277
276
274
273
277
279
268
272
279
276
288
300
300
313
337
349
345
348
345
344
341
331
318
286
245
247
242
255
259
234
218
204
209
218
236
242
246
254
261
265
269
266
271
266
265
264
272
272
273
275
275
271
272
267
276
272
276
272
274
282
270
265
268
268
266
271
273
273
278
279
280
275
265
268
269
269
274
279
273
275
281
281
281
270
275
274
277
280
281
285
282
288
286
280
276
279
285
284
286
295
294
290
290
301
296
294
293
297
296
301
311
313
305
298
310
322
317
321
318
322
323
326
325
322
338
331
328
330
335
340
338
340
333
335
345
335
336
333
336
339
332
330
323
314
319
309
308
315
296
294
293
288
289
273
273
280
280
278
273
270
265
272
260
250
269
259
259
262
261
257
264
253
252
254
253
253
254
257
254
258
254
256
265
253
248
245
254
256
248
259
253
253
252
246
252
249
255
251
251
254
257
251
244
246
252
250
249
248
253
256
251
248
239
246
253
253
252
245
247
257
259
246
244
248
250
253
250
248
255
254
247
244
256
243
245
243
251
249
256
256
244
242
246
251
244
246
241
243
248
254
254
237
242
250
244
242
246
241
239
251
247
235
242
244
241
245
244
246
241
246
249
246
229
236
241
241
242
241
249
252
246
244
229
229
234
246
236
242
247
234
243
239
230
240
240
242
239
243
246
241
231
232
235
236
237
240
239
237
243
240
239
238
238
241
245
237
225
236
238
228
237
236
232
241
234
227
238
237
241
243
240
241
234
246
238
235
235
245
250
243
242
244
246
247
250
247
255
256
247
244
233
225
223
230
241
230
226
228
233
222
221
225
226
224
228
228
232
234
241
230
224
220
220
225
227
226
227
226
228
222
231
246
237
242
259
268
297
301
302
299
299
281
283
293
275
240
212
207
214
213
212
173
156
149
155
181
192
202
207
201
212
217
224
222
214
221
220
223
220
221
225
221
223
226
218
231
228
220
227
218
219
221
232
223
224
225
240
238
225
212
216
213
223
223
226
225
221
232
232
237
225
224
226
229
235
224
229
234
234
233
229
224
231
235
239
237
236
238
245
229
231
233
238
242
244
246
247
251
253
259
271
253
243
249
250
263
265
261
264
268
272
270
275
280
284
287
291
275
283
293
283
274
285
287
293
292
294
293
288
289
289
276
265
268
273
265
264
272
257
254
254
249
244
240
230
240
235
228
226
223
218
216
220
210
220
219
217
219
213
211
208
205
208
205
211
215
211
198
203
202
197
203
206
205
211
209
205
206
205
196
205
213
199
200
205
212
208
203
202
194
197
192
199
198
204
201
207
208
196
204
200
201
193
200
201
204
205
199
203
196
197
196
199
200
205
204
204
205
197
201
197
201
203
195
191
204
204
198
190
194
192
199
197
196
190
201
202
193
197
192
187
191
192
190
199
194
194
191
191
193
186
192
190
190
189
189
199
187
187
198
194
190
189
187
191
189
192
193
197
180
190
193
181
178
187
187
192
189
184
179
183
184
189
183
186
191
189
196
180
179
184
194
180
180
183
188
192
185
182
179
181
178
176
182
188
188
188
180
177
179
180
180
183
186
173
184
197
186
180
177
178
177
175
184
175
179
186
184
183
181
180
180
184
183
189
183
185
179
188
185
190
195
192
195
184
191
196
185
192
193
188
176
172
178
175
178
180
177
172
175
172
174
174
169
165
173
175
170
171
170
171
166
173
172
170
175
175
169
178
163
165
181
193
195
202
211
218
240
249
243
241
245
239
242
239
215
173
151
130
145
157
146
120
103
96
110
122
141
136
143
147
156
168
159
177
180
177
175
154
158
161
166
168
170
173
176
171
170
170
168
162
164
167
164
176
178
174
174
166
168
172
175
170
174
178
172
177
172
172
172
179
188
186
183
185
175
172
170
175
176
184
177
183
179
181
185
187
181
174
191
183
188
190
187
191
191
193
198
189
188
199
196
208
213
207
207
222
216
199
205
215
218
219
224
222
233
235
237
228
240
239
229
231
240
237
238
233
238
231
225
232
226
233
227
232
222
212
212
207
201
195
190
198
198
211
190
175
169
167
170
168
166
167
167
165
165
161
158
159
160
158
152
154
153
156
160
155
147
152
153
150
153
155
160
159
146
148
144
150
147
149
153
149
149
151
156
147
145
143
140
150
154
146
153
151
155
148
141
138
143
151
152
146
143
155
149
142
144
140
144
145
147
146
149
150
154
151
146
135
139
143
144
150
149
145
148
152
143
136
144
145
140
143
152
148
143
143
135
137
139
142
143
135
137
147
146
139
140
141
137
142
142
147
143
140
143
156
134
125
131
135
138
138
133
136
138
134
132
138
133
133
136
142
148
141
137
131
122
134
131
132
137
137
138
145
137
129
134
136
139
132
127
138
130
134
135
136
129
129
130
140
144
125
131
135
133
130
122
129
127
135
132
132
135
132
130
130
122
133
133
144
125
123
134
133
132
132
127
129
136
131
136
136
136
136
134
133
133
135
134
136
140
139
150
146
155
152
152
144
123
124
123
130
133
130
124
128
115
125
125
125
127
125
128
130
122
120
131
130
127
127
120
115
124
124
120
119
122
123
122
118
128
133
147
141
155
156
170
195
195
197
196
198
203
183
171
132
105
98
90
102
107
94
74
54
50
66
82
95
99
102
109
122
116
115
116
119
123
122
127
122
120
124
130
124
116
115
125
123
121
126
123
129
128
129
124
120
121
116
133
129
128
137
137
132
121
119
129
125
124
127
130
134
133
131
134
130
128
129
130
128
137
142
137
137
135
135
139
137
137
140
139
141
145
141
147
144
151
146
147
156
158
166
169
151
155
158
170
168
170
163
171
176
178
187
186
180
189
189
190
194
201
200
189
198
193
179
189
192
191
189
198
188
190
186
185
179
174
169
164
161
159
161
148
149
138
140
144
140
132
130
125
126
128
124
113
119
118
125
119
116
110
120
117
111
107
109
113
108
109
120
115
124
105
110
104
107
111
111
119
115
108
115
106
106
108
106
112
108
111
100
106
117
113
106
109
109
109
98
108
109
118
118
120
94
100
108
104
108
109
106
113
117
119
108
103
106
116
94
103
106
114
107
101
113
103
102
113
104
115
107
112
107
108
107
112
102
101
107
106
105
105
104
103
102
108
101
98
105
112
106
103
107
103
94
96
102
103
103
101
103
106
109
100
99
98
99
106
108
103
99
103
107
97
98
97
102
98
108
93
101
104
102
100
97
102
97
99
102
99
95
104
100
99
96
97
93
98
104
101
105
107
107
101
92
91
101
100
101
96
96
101
99
93
89
93
104
100
103
107
97
100
103
101
94
95
100
101
101
99
102
104
105
101
97
102
106
102
106
105
104
111
114
108
97
107
97
102
111
114
114
116
117
113
114
108
107
106
100
98
108
98
96
94
85
95
99
98
104
98
101
102
97
91
85
95
92
94
91
103
98
94
93
94
93
97
92
94
100
115
122
122
127
142
154
173
171
171
171
164
163
155
146
112
78
74
89
79
80
57
38
23
24
39
57
73
78
83
90
103
87
89
94
95
92
102
89
92
96
95
106
105
101
96
90
97
103
100
100
98
103
100
99
95
106
102
101
105
95
106
114
113
104
95
103
105
103
106
102
110
108
105
105
103
106
108
112
111
113
114
117
119
116
105
109
111
116
125
126
124
123
129
125
124
118
123
133
133
144
133
136
144
142
133
133
155
153
158
159
155
163
158
157
160
162
164
168
170
177
175
184
175
176
177
177
174
175
179
170
171
171
163
158
161
151
150
143
140
138
140
144
135
124
114
122
122
121
109
109
116
111
114
103
97
105
105
101
99
93
101
107
91
95
100
91
97
100
102
96
97
98
95
94
90
90
91
98
96
93
92
99
94
97
89
106
98
92
91
96
107
93
92
97
101
95
90
96
86
91
98
97
95
94
85
91
95
96
96
94
100
97
93
93
93
96
97
102
104
99
93
103
91
89
98
85
89
86
92
95
97
94
92
90
108
95
83
85
86
90
92
95
96
101
102
90
84
86
85
94
94
97
88
92
97
95
89
83
81
89
93
96
93
95
97
91
86
83
90
98
90
90
94
103
107
85
86
82
89
87
87
81
87
98
96
101
92
85
93
86
86
83
87
86
85
90
88
83
92
92
91
94
91
97
98
91
80
91
90
82
88
88
95
92
94
96
84
93
90
83
88
94
92
89
87
85
87
92
90
87
81
86
92
97
89
92
84
86
92
95
98
99
94
94
101
98
89
91
90
93
94
96
96
100
99
97
96
111
107
99
107
102
102
101
97
84
81
86
87
92
83
86
86
85
84
82
85
83
84
88
93
87
84
86
85
87
91
90
87
88
81
79
85
87
82
89
101
103
119
131
153
165
168
164
166
150
156
140
130
98
72
58
61
79
62
39
14
8
15
38
51
57
62
67
70
73
70
88
83
88
84
84
80
93
92
76
81
78
87
81
83
90
86
89
86
84
80
79
94
90
90
89
91
90
93
88
78
86
96
90
90
88
91
97
91
98
101
86
87
90
99
103
100
91
86
89
91
102
98
99
103
105
104
101
103
107
107
113
100
112
120
111
114
122
122
112
108
118
126
133
125
126
128
132
139
137
136
139
155
152
137
143
153
152
154
160
162
153
156
153
155
151
159
157
155
146
141
147
144
147
138
138
134
127
134
122
104
109
111
109
106
104
103
96
96
82
88
91
88
85
86
92
85
81
71
77
75
76
76
78
80
83
86
87
76
67
73
73
76
71
73
75
80
73
82
68
68
76
75
79
80
77
78
71
77
68
72
73
68
71
70
75
77
75
78
67
73
69
76
85
79
73
72
75
68
63
71
76
80
74
75
84
72
72
77
72
70
72
79
75
69
73
75
69
71
69
73
74
78
76
74
78
78
65
58
72
72
77
75
73
72
72
70
77
79
75
70
67
65
67
67
70
70
67
78
67
68
73
77
65
62
72
75
68
59
65
58
63
67
67
64
70
71
70
63
62
61
70
72
59
65
73
71
65
57
55
67
67
74
72
65
67
62
63
62
60
57
61
63
63
65
69
64
63
71
62
75
73
50
58
59
64
65
66
63
68
62
68
73
65
66
74
68
65
72
66
63
68
66
64
68
77
76
70
73
76
83
82
78
78
73
72
64
56
57
56
60
62
58
59
64
63
57
51
58
58
60
58
62
56
57
66
58
69
55
64
79
60
53
44
54
68
73
70
84
96
110
126
128
132
129
127
116
107
110
76
36
17
23
37
44
26
-4
-20
-23
2
15
24
26
28
48
53
60
54
42
50
57
51
55
59
56
55
57
59
52
61
60
58
59
55
69
63
53
58
55
59
52
63
63
65
66
61
64
60
59
62
61
60
64
60
68
62
66
60
63
69
71
75
68
69
72
70
68
67
61
77
76
74
72
72
86
78
75
78
83
81
85
88
92
86
91
95
89
92
91
95
102
104
104
111
113
116
112
115
118
122
124
123
132
134
134
134
127
126
126
133
131
143
137
136
136
130
125
115
112
115
113
105
107
103
99
103
91
84
85
83
74
70
76
80
73
69
58
63
62
64
66
60
64
56
53
56
57
52
55
52
52
59
58
63
56
54
59
51
52
49
50
52
53
53
56
49
52
52
50
53
53
51
54
61
69
59
50
49
53
54
48
52
56
53
54
57
46
48
55
55
58
62
56
53
57
55
48
47
50
55
57
61
54
57
47
49
60
53
53
53
66
60
43
47
57
58
51
47
54
54
52
51
52
61
56
49
46
46
51
57
65
60
43
49
52
51
45
51
47
54
53
53
54
53
59
46
40
49
47
48
49
47
50
54
55
47
46
51
48
45
53
53
52
54
52
54
44
48
49
52
53
46
49
48
47
47
49
45
41
44
50
57
57
49
45
43
44
51
51
45
50
50
54
47
51
41
46
45
50
45
48
47
46
47
53
51
45
44
39
46
52
44
52
54
51
45
38
45
53
47
51
53
55
56
48
46
50
53
58
58
53
71
62
60
63
63
56
62
50
49
44
45
52
54
40
45
36
41
50
48
42
39
46
37
43
38
33
42
49
53
48
32
39
44
45
28
35
38
39
44
54
62
70
80
91
111
119
114
109
115
101
101
99
86
52
16
0
18
25
22
-2
-24
-23
-15
-4
8
16
25
29
34
48
31
42
49
45
45
48
37
23
33
45
38
43
40
34
35
39
40
42
45
49
48
47
45
43
47
41
38
47
44
42
50
52
51
48
50
51
48
48
45
51
56
57
48
46
41
43
51
54
58
61
57
58
66
56
54
53
61
60
64
66
65
67
63
63
68
73
76
75
73
73
86
91
80
84
87
88
88
96
97
98
111
108
110
109
102
115
117
114
116
123
132
115
107
118
115
116
118
118
115
116
117
116
112
102
98
99
88
87
85
81
85
80
75
72
63
65
58
56
54
51
57
48
47
56
53
42
43
36
41
40
48
48
42
40
43
41
41
38
49
45
45
52
35
36
38
37
43
36
31
39
50
42
36
41
33
36
39
42
43
44
37
33
34
39
36
38
32
44
42
36
46
34
30
36
37
36
38
38
41
40
46
37
32
38
51
32
32
35
37
43
41
37
36
33
30
34
33
41
40
43
45
42
35
36
35
39
35
32
41
39
36
31
31
31
37
37
36
41
39
36
32
37
31
24
34
28
32
34
33
39
38
33
30
29
33
32
34
38
39
33
26
29
32
28
35
28
31
31
35
41
35
18
26
34
33
21
25
29
31
31
39
29
27
31
35
30
26
28
35
33
35
32
29
23
25
37
32
34
34
33
31
29
29
26
29
34
35
33
31
40
35
37
25
31
29
32
38
36
41
42
43
38
34
32
42
39
59
49
37
46
47
44
42
41
42
40
37
33
33
38
25
24
18
21
30
24
29
30
25
32
32
29
23
23
28
25
26
36
32
34
29
26
18
20
21
26
36
40
56
65
66
91
102
103
103
102
101
93
87
100
65
18
19
9
2
20
3
-25
-38
-35
-23
-12
-4
9
12
19
26
31
25
19
25
29
24
27
28
27
26
28
37
39
30
26
29
30
31
33
26
27
37
36
30
36
31
40
34
37
40
38
37
35
27
32
35
27
32
34
33
41
42
41
42
42
42
43
41
48
40
47
47
44
39
48
49
46
46
46
49
61
60
48
49
58
56
60
62
63
65
73
83
82
64
75
76
76
82
78
84
89
94
96
98
95
92
100
99
106
109
109
115
112
102
102
105
105
104
102
106
103
101
98
89
91
79
83
82
73
83
70
66
60
65
65
45
33
38
39
43
40
35
43
30
32
29
37
30
35
33
25
32
39
30
21
27
33
30
37
27
28
24
25
26
21
19
20
22
28
25
29
27
24
25
22
23
28
35
26
25
28
24
24
14
18
29
22
26
25
26
38
40
23
17
23
32
31
15
24
23
27
25
14
18
22
22
27
28
28
32
33
27
17
17
20
31
29
21
18
29
29
27
21
19
19
22
25
31
29
24
10
22
25
14
19
14
18
18
23
29
24
22
25
11
6
18
19
13
15
17
24
21
17
17
8
19
21
24
14
15
28
19
25
19
19
14
8
20
11
21
19
24
21
5
15
8
17
16
15
27
25
22
17
12
5
13
11
22
18
22
21
26
20
11
14
10
20
21
27
28
23
30
19
17
19
24
22
27
29
30
27
22
15
23
23
28
34
33
36
34
33
22
18
12
18
11
12
18
10
21
23
13
9
16
18
11
26
18
8
16
10
6
6
10
9
17
25
15
17
16
15
10
15
23
37
34
48
65
77
92
94
87
88
74
75
74
49
13
-7
-19
-11
-2
-20
-44
-59
-63
-47
-27
-10
2
-18
-12
3
5
16
4
18
13
21
17
17
18
9
11
9
15
11
10
21
28
14
14
15
19
15
20
26
17
28
26
19
18
19
18
15
13
29
29
19
24
27
25
18
24
22
26
35
31
26
30
33
29
25
29
29
33
37
35
34
35
35
30
33
37
41
38
44
46
46
49
48
50
49
52
62
57
60
64
65
67
69
66
70
70
76
74
79
86
93
86
83
87
87
92
90
91
96
92
91
95
97
87
76
91
88
86
73
68
79
64
66
53
50
51
40
35
41
46
40
33
25
27
27
23
19
21
17
24
29
33
18
10
20
24
12
12
24
19
17
10
12
14
10
10
18
13
12
14
24
16
8
14
10
9
11
16
15
14
22
19
19
9
16
17
15
5
9
17
22
16
13
9
15
19
16
13
11
19
14
20
13
7
14
21
16
21
23
21
14
18
13
13
15
16
19
17
29
18
18
9
9
12
10
14
20
17
16
13
17
19
10
14
20
8
11
17
16
14
18
11
10
13
10
11
12
14
6
14
14
9
9
8
23
13
19
17
4
10
6
10
10
2
12
15
19
11
5
11
16
10
7
7
13
8
3
14
12
15
10
10
10
6
13
9
14
8
11
11
13
21
7
11
12
13
19
16
14
18
16
10
22
30
23
14
16
25
26
24
24
19
21
14
11
12
4
-2
8
7
11
5
12
2
0
3
10
9
9
12
4
1
4
-3
5
5
3
2
4
9
4
3
9
7
18
28
34
59
78
84
87
71
64
55
59
59
53
20
-14
-19
-16
-14
-6
-25
-52
-58
-51
-34
-32
-19
-15
-5
-8
3
8
3
19
8
2
5
6
6
3
-1
2
6
9
14
13
11
13
3
12
11
8
13
18
10
16
19
13
14
6
5
15
18
19
18
19
17
17
22
15
17
19
16
23
22
21
20
27
24
17
22
27
34
30
28
45
32
29
33
21
32
31
42
40
46
46
45
49
46
41
43
55
56
59
66
65
73
73
69
69
81
80
68
77
91
92
88
85
89
80
87
103
103
89
99
109
110
91
81
92
91
84
89
77
82
82
77
70
67
62
56
48
46
47
50
44
41
37
36
45
35
31
32
24
30
30
36
30
18
26
35
28
20
21
28
25
30
35
24
23
25
20
28
27
34
33
36
27
34
23
24
32
31
15
14
28
23
27
28
23
25
29
30
30
36
32
36
28
25
18
25
21
27
28
26
31
28
25
25
23
33
22
24
27
24
18
22
20
24
32
34
28
23
31
28
24
27
27
24
25
25
29
33
29
19
24
24
28
26
21
24
30
23
22
31
29
28
21
20
24
24
32
27
26
32
30
27
16
23
22
25
35
25
16
21
27
25
18
28
24
26
22
36
28
25
23
25
18
20
22
18
27
29
23
41
30
28
24
22
26
37
31
31
37
36
29
25
27
28
26
28
26
34
35
47
47
43
43
33
36
35
41
29
25
24
25
11
19
22
28
23
23
31
26
23
25
23
20
19
30
28
20
24
25
23
16
23
24
13
23
26
28
28
46
41
52
73
85
97
96
102
95
86
77
75
74
46
12
-1
-6
-7
1
-7
-35
-43
-41
-26
-14
-6
9
19
29
25
20
15
10
17
23
23
28
24
22
28
23
29
29
21
28
30
16
29
27
21
32
37
38
29
24
17
24
28
37
28
34
39
41
30
34
34
36
29
34
37
32
31
36
33
37
38
30
25
37
40
38
40
40
37
38
44
49
52
52
49
55
54
56
53
58
53
55
55
58
68
63
68
71
67
66
72
80
80
82
86
95
101
97
79
79
89
97
89
95
95
104
107
102
102
104
101
100
101
106
102
92
93
82
85
82
77
67
62
71
61
61
60
55
51
43
47
51
50
32
29
29
32
26
31
32
17
27
35
27
33
29
21
21
27
26
24
33
31
29
28
24
27
17
30
24
21
18
25
24
30
41
37
27
14
22
22
29
31
27
23
34
31
11
21
23
29
21
28
28
35
21
19
14
23
25
27
21
33
31
28
32
27
29
24
26
21
25
24
25
27
36
35
32
12
25
32
23
21
24
29
36
26
25
16
25
25
20
19
23
21
25
26
25
20
25
26
28
25
27
29
35
34
30
19
30
26
18
26
32
30
25
22
21
19
22
24
17
22
31
27
28
41
24
10
22
30
21
21
22
30
29
26
30
23
22
34
31
23
31
28
34
30
25
21
33
30
23
29
24
31
29
26
28
20
27
31
33
31
31
30
27
26
25
28
32
37
33
23
30
36
34
32
35
40
39
41
37
39
36
41
42
25
19
24
22
23
25
24
23
24
26
21
22
19
21
19
24
20
20
23
22
26
13
11
19
22
24
22
17
22
13
20
23
36
50
59
72
87
102
103
88
78
77
79
75
72
44
0
-2
4
8
-4
-26
-39
-49
-33
-25
-3
4
1
12
13
17
16
14
28
31
22
17
20
20
23
17
16
19
22
28
32
31
24
28
32
20
23
24
34
41
28
31
40
47
22
19
23
29
28
31
32
39
41
33
29
30
30
31
39
45
37
41
40
34
36
32
33
40
49
49
47
41
45
49
42
45
46
47
43
54
55
63
60
62
60
65
69
65
72
73
71
80
87
86
82
81
88
89
95
103
111
111
88
97
104
106
110
109
111
114
109
111
119
103
104
111
101
96
95
95
85
88
86
75
74
66
69
70
69
63
64
63
44
37
37
35
39
40
40
38
45
43
39
35
30
33
40
28
37
26
46
35
28
25
26
33
41
36
35
36
37
39
31
29
30
40
42
31
38
51
35
29
31
27
31
32
35
31
32
41
40
42
48
23
24
35
32
33
30
35
39
32
30
31
36
34
39
35
39
30
38
37
33
35
33
37
37
36
38
35
38
36
33
31
28
34
36
41
40
40
46
29
35
33
30
37
41
33
42
43
35
35
33
34
37
40
33
34
34
31
40
47
43
40
31
35
41
39
44
43
47
42
43
41
41
35
40
43
44
36
53
50
49
40
31
39
39
48
50
53
61
38
38
39
34
34
49
47
44
45
47
50
44
40
42
45
53
46
44
46
50
49
50
41
48
50
54
55
53
53
51
55
51
53
56
66
61
56
51
50
55
64
63
56
63
72
66
64
59
63
66
61
41
42
49
43
52
51
43
53
54
52
49
53
43
52
50
42
47
52
57
43
51
56
43
45
44
44
54
57
52
46
51
74
75
86
74
95
117
126
123
122
125
114
121
112
86
54
35
28
32
27
10
-15
-27
-31
-9
5
17
26
35
40
47
39
43
45
51
58
58
59
59
57
53
54
49
50
54
54
59
61
60
60
52
53
58
63
62
69
63
64
69
64
62
58
63
66
62
73
67
69
72
68
68
69
61
66
73
69
64
76
80
67
64
75
78
79
79
76
80
87
75
70
72
80
85
91
87
83
94
90
94
95
96
109
101
103
106
102
111
113
115
114
115
121
126
131
140
127
135
120
126
135
133
133
139
135
140
141
142
137
132
146
137
134
128
132
128
110
118
112
104
105
95
97
94
96
95
86
97
87
82
82
70
71
73
70
71
70
64
70
70
63
66
69
68
64
70
72
61
61
60
65
52
58
66
60
59
60
70
78
62
54
53
65
66
65
63
51
67
66
60
61
60
65
69
66
61
63
67
62
67
70
80
70
59
67
62
71
72
71
57
58
58
68
72
64
69
71
69
68
80
61
54
61
70
69
68
70
75
69
64
67
61
66
67
69
73
67
72
72
66
64
61
71
68
66
67
67
72
68
66
66
65
68
62
66
72
72
72
62
69
66
71
67
71
70
68
65
82
70
64
65
68
79
69
70
68
81
76
68
67
69
65
74
78
66
63
67
71
69
61
64
68
77
73
71
71
76
71
72
77
71
74
82
76
78
78
80
78
85
74
69
80
73
81
90
81
81
84
74
84
76
84
91
88
82
77
71
67
68
74
63
71
66
76
72
68
79
72
68
65
55
71
74
74
78
73
74
71
63
63
61
63
69
69
74
75
87
89
99
99
114
134
145
141
140
133
135
136
130
110
71
44
32
37
51
40
17
1
6
-1
11
29
36
47
50
58
66
69
68
68
67
71
73
73
73
77
75
70
77
76
74
80
76
76
73
80
80
77
78
79
80
77
81
88
77
75
72
84
84
76
76
79
77
86
86
89
87
88
85
87
87
81
86
86
91
95
93
90
93
89
94
93
97
103
96
100
102
103
95
98
111
108
117
119
116
114
115
110
112
113
119
122
124
128
124
139
151
157
133
133
136
147
150
148
153
154
152
151
155
153
154
158
156
152
156
158
155
146
140
132
132
133
129
131
121
120
117
115
111
106
102
97
95
95
94
94
88
92
94
86
80
77
85
89
77
83
81
78
76
78
78
81
79
79
82
80
81
76
76
74
75
77
77
85
87
86
72
70
74
72
73
70
82
78
74
81
81
84
74
71
83
77
74
81
83
91
84
78
74
81
90
82
73
76
81
83
77
77
72
79
75
76
90
77
83
93
88
85
76
79
79
80
79
80
77
81
78
85
81
79
80
84
84
84
78
78
81
75
87
84
77
71
75
81
83
81
83
85
78
75
84
84
70
75
87
90
77
69
69
81
87
75
75
79
79
80
83
80
77
76
79
79
84
77
82
80
77
77
77
76
80
81
84
83
87
82
75
79
74
83
80
80
92
85
81
84
78
80
76
86
81
78
86
89
94
96
82
77
80
88
87
91
97
92
96
95
95
99
99
91
97
84
88
78
80
84
78
81
72
76
78
81
89
76
90
83
76
67
70
73
77
80
77
84
86
83
80
68
73
80
79
79
82
90
102
100
108
122
138
157
164
159
146
142
141
137
131
86
64
53
48
54
55
33
20
6
8
28
49
55
58
58
67
79
84
73
75
76
74
80
76
78
78
86
92
85
93
76
74
74
87
88
78
88
88
91
76
76
80
88
85
89
89
84
90
90
87
78
84
85
85
91
91
99
95
94
89
87
92
96
95
93
101
99
98
94
100
90
97
98
99
107
104
108
113
107
105
110
109
126
111
119
121
118
120
127
119
128
138
124
133
141
141
143
148
137
148
150
149
152
153
158
162
169
166
157
153
162
158
163
161
161
159
161
150
148
143
143
145
137
138
128
127
128
116
110
107
106
111
112
105
103
90
92
94
93
81
85
87
90
90
87
89
87
88
83
80
89
77
77
85
86
83
88
86
83
78
77
81
87
84
80
82
81
88
77
79
83
86
78
88
82
90
83
82
85
82
75
81
80
88
97
85
78
86
79
76
81
89
81
85
90
88
89
83
75
82
81
85
82
91
87
92
86
81
81
79
83
85
86
88
84
89
83
82
86
79
84
85
90
87
87
83
86
90
83
69
77
83
81
90
85
91
88
78
74
77
85
78
87
81
84
86
90
87
77
72
80
90
88
90
96
90
82
79
70
82
88
78
85
87
85
84
87
80
76
76
83
81
85
84
83
86
86
81
80
87
84
76
90
87
85
97
88
88
80
79
79
80
85
89
89
89
83
93
87
90
90
87
89
93
91
96
94
87
91
97
95
95
95
103
97
106
99
101
94
90
94
91
83
87
85
89
83
88
79
78
82
84
79
84
81
89
88
88
85
80
85
88
87
82
87
87
80
81
74
82
79
86
94
103
125
122
139
158
158
168
164
157
156
155
153
129
90
64
54
64
74
62
36
21
22
28
44
53
67
73
77
74
82
86
89
80
89
87
83
85
90
85
89
94
97
100
91
91
91
88
94
93
96
93
96
100
88
95
94
95
97
100
104
96
101
104
100
100
93
103
102
102
100
100
107
109
102
97
97
103
101
106
120
111
112
116
109
105
110
119
118
117
120
121
126
124
121
121
125
124
125
135
138
136
140
142
144
138
144
147
149
152
157
158
167
158
160
169
174
172
174
168
172
179
180
183
178
181
186
167
171
173
162
173
171
164
157
155
146
153
146
138
138
145
139
135
123
118
117
116
117
112
111
114
112
110
115
100
111
100
105
97
102
115
111
104
93
94
96
97
106
101
97
106
101
110
97
98
109
99
101
101
104
103
100
105
102
106
97
110
105
97
104
113
116
108
94
95
103
102
101
106
109
111
105
111
105
101
106
103
105
111
106
115
110
96
106
103
107
109
114
105
115
116
117
113
96
105
113
107
102
104
109
109
112
116
119
101
99
107
106
109
102
106
106
110
110
108
112
106
100
107
113
112
112
113
106
109
112
113
113
111
114
108
109
112
109
104
104
111
116
110
111
112
116
109
109
110
106
116
108
111
114
114
107
114
109
107
113
118
117
111
114
106
108
112
113
111
99
106
113
111
123
116
120
114
109
117
123
112
114
117
113
122
120
116
120
114
115
117
115
126
125
124
126
128
120
124
128
135
130
123
128
134
119
113
109
106
114
114
112
114
118
116
113
108
110
115
108
123
109
114
119
131
121
104
106
104
114
119
114
120
123
117
128
138
142
151
159
180
186
190
188
186
186
178
177
163
126
97
86
92
100
92
69
41
37
49
66
76
86
96
101
101
106
111
111
118
118
118
121
127
127
125
123
123
123
117
118
118
121
120
126
126
121
120
122
123
131
130
130
128
132
128
122
133
126
122
121
124
133
130
139
139
119
130
131
128
123
129
130
138
140
139
135
131
137
129
141
136
137
138
140
146
146
138
143
141
155
149
148
151
154
156
160
160
158
170
169
166
166
168
179
175
172
175
172
192
195
184
184
198
187
191
191
192
194
188
195
198
204
202
190
191
189
174
177
177
180
172
177
178
172
150
150
144
145
145
145
141
144
144
143
134
120
127
124
123
125
132
128
122
122
123
117
117
116
118
126
120
110
120
123
119
109
114
119
114
113
117
118
118
117
120
109
116
121
117
116
111
109
123
118
115
114
109
111
114
115
119
118
118
118
119
112
121
116
108
118
118
123
122
119
116
109
103
119
117
115
119
126
122
114
116
112
113
124
119
115
112
119
118
112
117
112
117
117
111
112
120
119
124
113
114
111
115
113
108
114
116
120
115
115
116
114
118
119
115
117
108
116
113
110
112
107
109
104
116
110
112
116
119
119
111
112
115
122
114
105
107
112
116
112
115
109
115
124
117
113
117
119
122
120
115
112
112
119
114
117
124
122
121
125
122
119
120
128
119
125
117
117
110
111
103
98
106
109
112
107
107
118
106
100
110
108
114
106
102
109
106
103
107
104
97
99
99
103
106
108
115
119
124
139
145
150
165
180
168
175
177
177
173
149
134
103
77
69
91
92
79
60
36
29
42
59
62
78
87
89
95
106
110
102
92
108
106
105
106
114
101
108
109
104
105
107
112
114
110
106
110
112
104
111
111
106
112
111
120
110
116
119
114
102
110
113
106
110
111
119
121
126
115
121
117
116
122
119
123
128
140
121
125
118
116
119
127
133
132
123
141
141
127
139
132
133
137
138
138
141
152
156
152
141
158
157
143
153
155
160
163
167
156
162
167
169
167
177
176
190
180
179
175
177
174
182
178
182
178
176
177
171
174
165
153
163
157
150
157
145
147
139
132
122
128
125
122
123
121
124
118
117
116
113
107
101
106
105
109
107
102
109
103
107
109
99
90
100
105
100
107
102
98
101
95
102
103
110
109
98
100
109
98
95
99
102
98
98
101
105
103
105
103
111
91
94
101
104
99
102
98
94
99
94
102
105
101
103
104
103
104
102
98
98
107
106
100
93
103
110
106
99
105
100
100
96
97
98
99
101
107
94
98
93
96
97
96
106
113
102
108
100
97
95
98
100
98
105
102
94
99
100
99
87
87
97
102
103
104
110
100
90
97
90
92
96
97
103
103
100
100
102
99
94
98
98
96
96
91
97
104
96
95
95
102
110
102
97
94
94
100
98
98
100
103
98
96
104
103
103
111
108
108
99
109
114
118
115
113
107
108
111
96
88
95
88
92
94
91
95
97
99
85
89
101
97
83
89
98
99
95
93
93
92
93
103
96
93
100
105
96
88
105
117
123
136
160
178
177
176
163
149
139
139
134
113
75
53
55
67
73
67
53
31
32
50
63
68
76
84
93
92
92
90
92
91
97
102
100
90
97
91
92
100
94
98
100
98
96
96
104
96
98
101
93
96
96
100
107
100
103
103
101
101
100
93
106
108
103
106
107
104
105
105
101
105
109
113
110
115
113
109
108
113
110
109
108
108
116
118
124
123
111
119
117
126
122
123
131
135
134
127
125
131
138
141
140
146
150
153
145
146
150
152
163
165
155
155
163
168
165
164
163
168
169
173
170
173
167
166
160
157
155
160
159
154
150
147
144
142
126
119
129
121
121
117
124
127
117
103
96
92
97
98
107
97
100
98
99
92
100
93
88
98
86
95
91
96
95
92
91
87
86
91
92
91
94
96
93
93
93
91
87
86
81
86
92
90
94
92
89
91
81
84
89
99
94
83
93
89
88
91
95
92
85
89
90
92
86
86
85
81
82
91
89
88
83
88
92
88
85
87
83
89
94
90
92
97
86
83
89
85
89
85
89
88
92
101
92
77
76
79
90
88
81
87
87
82
97
82
78
83
83
83
85
90
84
87
89
82
78
78
88
83
87
85
91
86
79
79
80
87
86
81
82
88
77
86
84
75
79
78
86
86
84
89
93
94
100
87
82
86
85
89
93
101
95
88
87
86
84
94
94
91
100
103
115
99
92
95
83
89
92
81
79
84
87
80
80
74
75
84
81
81
75
85
84
82
81
91
72
86
85
76
76
79
76
80
75
76
80
79
88
97
109
118
134
152
152
154
152
152
145
142
151
125
98
66
54
62
65
55
24
6
8
22
43
54
64
53
60
67
73
73
76
80
80
85
77
73
81
77
83
91
86
91
83
80
74
81
73
86
83
76
85
81
89
88
78
84
83
80
84
88
90
83
91
97
90
94
83
87
90
85
96
91
94
93
91
96
89
94
97
96
104
102
103
107
101
103
100
108
99
103
108
109
120
111
109
117
112
118
122
118
125
128
126
131
138
134
134
142
140
146
146
155
165
153
149
146
152
153
157
157
154
150
158
158
161
154
160
149
144
151
138
147
140
123
126
128
114
118
117
122
109
103
107
101
92
92
93
83
87
85
94
88
80
83
79
67
72
79
85
80
86
88
81
69
74
67
73
78
88
81
72
75
66
68
70
81
77
80
69
68
70
78
82
76
62
75
75
69
70
79
78
76
75
67
68
70
70
76
77
77
84
76
75
77
73
76
68
63
72
78
73
73
79
74
72
60
71
69
74
72
77
81
76
66
69
61
70
70
72
76
75
76
68
75
63
70
76
74
79
82
75
66
67
74
60
62
61
70
72
72
63
77
73
68
64
63
62
66
72
70
74
71
72
69
68
70
71
65
66
69
71
70
66
71
70
72
75
74
70
72
78
76
74
89
70
63
68
76
79
78
75
75
79
77
74
77
80
85
85
82
83
85
70
65
67
70
67
67
63
69
69
69
66
67
60
65
61
68
62
73
69
67
63
64
62
62
68
67
81
70
57
64
58
66
76
88
91
101
111
131
138
139
136
134
136
130
128
100
60
52
32
39
45
22
-6
-15
-12
1
18
28
43
47
52
46
62
69
70
71
67
55
61
62
63
61
65
73
71
62
67
74
79
60
64
60
65
67
68
70
78
78
74
72
68
69
64
65
72
73
76
78
80
80
75
62
63
79
77
83
82
86
85
85
73
69
74
78
79
89
82
76
86
88
88
87
89
88
100
94
97
95
95
100
98
95
108
106
110
105
114
113
115
119
122
122
128
126
126
142
132
130
127
131
127
134
130
138
139
143
138
142
147
134
129
129
129
120
128
119
127
111
107
107
96
93
94
88
97
81
81
83
80
71
71
74
72
74
66
68
68
69
61
58
56
58
66
57
67
69
54
62
60
62
56
54
62
62
59
49
57
59
64
59
53
53
60
60
59
62
56
61
57
56
50
56
63
72
63
50
62
61
51
48
55
53
55
54
54
60
62
58
57
58
59
59
55
52
59
57
63
63
54
62
55
51
58
63
55
58
60
51
55
58
52
54
51
57
63
55
52
64
55
48
47
50
57
52
57
55
54
58
54
53
46
50
45
57
57
59
58
59
53
52
53
56
55
56
59
57
50
60
57
63
54
57
55
54
55
76
72
66
70
57
59
59
64
71
65
59
59
61
53
47
45
49
53
54
47
48
58
59
42
47
41
50
44
51
53
47
54
50
42
54
44
51
52
43
50
55
40
54
52
54
52
69
69
83
91
115
122
132
112
118
114
107
107
93
59
28
21
18
23
22
1
-16
-30
-10
1
17
19
25
34
39
42
38
49
55
49
60
47
55
49
41
39
54
55
56
49
51
54
53
54
54
54
47
50
52
61
56
56
54
51
52
52
65
53
67
66
61
66
59
45
52
50
55
59
66
63
70
72
67
61
57
65
68
65
72
70
70
69
70
72
73
72
73
71
80
75
79
85
83
75
84
88
91
90
93
96
103
103
103
104
100
103
110
113
111
123
118
115
134
123
109
117
117
117
127
123
121
118
121
118
109
103
105
104
101
96
107
101
93
83
74
74
79
76
75
76
71
62
56
60
54
49
54
51
50
57
52
59
54
46
38
45
51
47
46
48
51
60
41
41
41
45
42
46
45
56
50
48
40
41
40
42
44
48
49
48
48
48
45
44
40
43
48
55
46
49
53
46
39
41
41
44
47
49
47
47
52
52
42
43
43
47
50
44
50
46
49
49
46
43
43
46
46
46
45
46
49
49
47
49
50
50
40
38
42
46
49
44
43
42
37
40
40
48
42
41
46
45
37
38
45
39
45
43
38
46
50
45
43
39
45
50
53
43
34
41
44
47
49
45
42
47
48
56
53
48
50
51
50
54
54
56
62
66
53
56
56
48
35
39
45
42
43
38
44
45
45
38
37
37
42
43
42
46
46
40
41
40
29
30
37
43
44
38
40
44
52
48
37
24
41
44
61
63
69
84
101
119
118
115
117
116
107
106
101
76
34
7
16
26
35
7
-17
-29
-18
3
10
17
20
19
38
38
38
39
43
45
45
41
37
37
39
38
44
46
60
50
40
41
40
40
44
43
48
47
52
54
49
51
40
45
56
46
42
48
53
56
55
52
48
46
51
50
55
63
61
54
58
53
52
54
66
56
58
55
64
70
64
58
57
60
69
66
70
68
74
74
75
77
75
76
76
89
79
90
93
85
94
94
92
98
103
117
119
100
101
109
108
103
104
116
112
118
126
123
124
120
121
115
112
112
115
114
109
110
113
98
98
89
86
86
80
85
76
78
80
67
52
48
51
53
54
54
51
54
62
56
43
41
44
52
45
39
46
42
43
52
37
39
44
41
39
39
44
45
53
45
42
43
42
43
44
49
46
51
45
49
42
38
33
39
45
53
53
49
42
45
44
44
43
42
36
40
41
41
53
46
42
45
46
50
40
44
50
45
51
54
46
36
43
50
55
48
45
47
47
52
48
43
39
44
56
64
33
35
41
35
31
36
34
39
42
51
44
45
47
48
51
48
34
43
44
45
47
39
44
47
40
43
45
41
38
47
42
44
43
38
41
40
43
40
49
42
55
52
42
35
43
36
42
45
48
47
54
54
54
57
53
38
53
51
51
52
62
67
63
64
54
56
54
50
43
39
35
39
42
45
42
34
42
45
43
38
32
40
40
46
39
28
35
34
33
43
43
39
43
37
46
37
40
35
40
46
52
60
69
70
82
112
114
120
110
114
96
99
91
85
46
8
13
16
20
20
-19
-26
-26
-19
-5
-7
4
19
30
32
30
33
44
32
36
34
37
42
42
47
39
47
45
40
37
40
44
33
45
43
45
52
45
46
34
43
50
37
44
50
45
41
45
39
45
51
52
53
50
60
51
48
42
44
48
43
51
45
54
61
64
63
52
55
55
59
63
65
66
64
73
73
60
64
69
75
68
68
79
79
87
84
78
93
89
85
92
88
92
98
108
113
100
102
106
104
116
118
117
119
119
127
117
108
112
117
109
107
110
100
116
107
106
98
94
98
97
81
75
72
81
76
64
61
61
64
54
60
59
53
55
58
62
39
34
41
48
59
40
36
44
45
46
34
41
35
32
42
46
34
39
49
45
32
43
38
34
34
31
40
47
43
40
39
41
37
42
41
40
39
47
34
38
36
38
38
36
38
41
43
53
46
37
39
39
48
40
34
35
33
35
35
32
33
35
42
43
37
32
40
49
48
36
32
36
44
32
33
31
35
36
31
40
37
35
38
45
43
38
27
34
30
32
27
30
29
37
33
38
36
38
33
36
40
45
39
33
33
42
36
35
33
32
26
34
43
32
33
32
42
38
42
38
36
35
42
41
33
30
36
35
42
32
25
32
36
37
35
37
42
38
35
37
33
47
39
42
55
47
36
47
41
37
40
42
39
34
40
39
57
49
46
56
49
52
43
52
47
50
51
43
35
36
37
31
36
41
40
36
41
40
37
35
36
37
41
40
29
33
40
48
35
33
36
36
29
36
49
38
32
33
41
50
64
77
84
111
111
109
108
109
95
91
98
93
53
17
9
17
29
16
-5
-23
-36
-23
-13
0
15
21
26
29
37
33
45
28
37
46
45
33
38
29
35
33
38
44
39
37
40
55
54
52
41
37
38
35
32
38
45
45
46
49
50
46
48
45
45
41
46
48
54
48
39
40
52
62
51
50
47
59
54
60
64
61
64
63
54
59
59
63
63
70
66
60
66
68
73
78
78
74
77
77
82
77
84
91
90
90
95
103
111
104
99
103
99
102
101
111
108
114
118
109
117
115
119
116
116
121
115
123
117
108
109
109
104
98
99
93
90
103
94
88
82
68
77
75
81
62
52
58
51
54
55
48
48
49
44
51
47
52
53
47
35
36
46
41
42
41
47
46
40
35
37
41
45
55
38
47
35
45
40
43
49
50
42
27
34
39
43
44
37
35
39
43
43
38
50
41
47
44
42
39
41
35
38
38
42
47
49
49
39
36
39
39
45
33
43
44
47
45
49
48
40
40
39
47
47
43
46
50
48
49
39
38
59
42
40
44
46
42
31
45
40
35
32
51
45
46
42
45
45
41
41
49
34
43
42
45
49
43
45
48
47
36
43
42
36
40
47
47
41
32
33
41
42
36
45
54
38
35
41
41
31
41
41
43
40
41
44
46
47
42
33
42
49
46
53
53
51
47
48
44
44
52
52
44
46
62
71
54
38
45
51
49
52
45
40
36
39
48
40
33
28
29
38
34
37
36
33
34
35
33
33
36
36
36
35
36
43
37
33
43
44
24
26
40
49
53
63
69
79
91
104
107
105
115
111
100
104
87
40
9
3
7
11
9
-11
-24
-27
-16
-13
-8
7
14
15
22
32
41
39
36
32
31
34
37
45
45
33
42
44
44
37
38
44
46
38
48
51
54
39
45
44
42
44
47
45
41
49
55
52
54
52
44
50
52
51
51
58
56
55
55
58
54
49
50
57
62
63
66
62
57
60
58
66
63
64
66
72
82
80
70
78
70
68
79
76
79
84
86
90
89
90
93
102
102
104
110
104
105
109
111
111
108
116
126
122
123
126
126
122
120
113
123
127
120
126
122
114
121
120
114
99
91
94
86
89
91
85
91
77
66
64
65
67
71
67
59
56
67
