-34
-14
-17
-18
-43
-48
-65
-63
-55
-40
-37
-15
-18
-27
-37
-50
-66
-61
-57
-35
-23
-6
-10
-31
-53
-54
-67
-57
-48
-32
-32
-10
-19
-31
-51
-58
-76
-68
-56
-36
-29
-12
-13
-26
-43
-53
-61
-59
-44
-33
-25
-7
-9
-22
-43
-52
-57
-45
-35
-14
-13
-8
-22
-32
-44
-53
-55
-50
-30
-20
-7
1
-6
-15
-31
-41
-51
-47
-26
-7
-3
8
4
-5
-22
-33
-33
-33
-13
-6
6
17
15
-6
-13
-19
-20
-18
-6
10
23
24
23
3
-8
-21
-16
-11
7
12
30
26
16
-8
-6
-20
-18
-14
3
6
24
18
13
-1
-12
-24
-28
-24
-9
4
22
15
0
-20
-23
-45
-36
-28
-12
-5
15
4
-12
-28
-31
-54
-50
-45
-31
-20
-6
-9
-20
-35
-47
-63
-54
-51
-25
-16
-5
-13
-24
-40
-45
-67
-53
-43
-25
-17
-3
-20
-33
-49
-53
-64
-59
-52
-36
-35
-5
-7
-28
-46
-48
-66
-60
-45
-30
-28
-12
-16
-33
-49
-55
-68
-67
-50
-35
-25
-11
-17
-42
-50
-67
-70
-69
-51
-38
-29
-20
-26
-45
-53
-61
-74
-66
-48
-37
-29
-22
-32
-49
-56
-70
-77
-65
-48
-38
-26
-24
-33
-48
-54
-68
-70
-68
-45
-37
-25
-24
-33
-50
-57
-76
-72
-65
-47
-46
-27
-25
-38
-57
-63
-79
-74
-68
-48
-41
-27
-27
-34
-53
-60
-76
-70
-65
-49
-40
-32
-38
-40
-62
-62
-78
-69
-66
-46
-40
-24
-31
-36
-45
-61
-77
-71
-67
-48
-38
-25
-33
-43
-55
-62
-81
-73
-66
-50
-43
-21
-25
-41
-62
-71
-79
-74
-64
-45
-43
-26
-30
-41
-62
-63
-74
-74
-56
-42
-36
-19
-24
-42
-71
-76
-89
-81
-61
-48
-39
-29
-33
-42
-63
-73
-85
-78
-55
-40
-33
-27
-32
-47
-60
-71
-86
-87
-65
-50
-37
-26
-31
-48
-63
-76
-80
-66
-57
-52
-42
-26
-30
-51
-67
-80
-85
-80
-57
-46
-35
-30
-32
-49
-58
-75
-78
-71
-54
-43
-33
-24
-36
-65
-71
-79
-76
-73
-55
-39
-24
-29
-43
-63
-61
-79
-75
-63
-47
-38
-20
-21
-23
-45
-58
-75
-67
-56
-34
-33
-19
-21
-35
-46
-56
-74
-63
-54
-35
-27
-4
-8
-14
-39
-55
-69
-64
-59
-42
-41
-10
-22
-36
-49
-56
-78
-74
-63
-48
-39
-23
-29
-43
-63
-68
-84
-79
-63
-45
-39
-25
-30
-50
-62
-66
-83
-78
-70
-60
-49
-33
-28
-37
-47
-40
-51
-47
-35
-17
-14
2
-10
-34
-54
-89
-119
-117
-108
-78
-69
-64
-62
-70
-74
-80
-86
-77
-63
-48
-45
-32
-30
-44
-57
-66
-74
-79
-65
-49
-37
-31
-32
-46
-59
-64
-72
-69
-51
-38
-28
-21
-27
-46
-55
-66
-69
-62
-47
-37
-22
-16
-27
-47
-55
-67
-64
-59
-44
-37
-20
-18
-25
-50
-53
-70
-67
-63
-42
-31
-21
-16
-28
-44
-54
-67
-60
-58
-43
-37
-21
-16
-27
-41
-44
-61
-54
-50
-38
-21
-9
-9
-21
-41
-49
-66
-57
-48
-25
-18
-2
-7
-26
-43
-48
-63
-55
-41
-26
-18
-2
-4
-12
-24
-31
-50
-48
-31
-14
-8
14
7
-8
-19
-24
-42
-33
-18
-2
4
22
20
8
-10
-14
-26
-25
-6
6
15
32
27
11
-2
-10
-27
-18
2
17
15
23
26
11
-4
-12
-23
-19
-7
11
20
32
30
13
-4
-12
-29
-28
-11
0
11
16
5
-15
-31
-42
-55
-59
-39
-30
-23
-18
-21
-44
-53
-63
-69
-64
-49
-27
-16
-21
-27
-46
-62
-81
-81
-72
-54
-46
-30
-29
-36
-52
-64
-86
-84
-70
-54
-45
-28
-24
-29
-56
-70
-83
-78
-67
-46
-40
-22
-24
-34
-55
-62
-81
-73
-67
-52
-43
-22
-27
-38
-56
-62
-81
-69
-58
-43
-41
-25
-28
-35
-57
-60
-74
-69
-59
-43
-33
-15
-22
-34
-56
-60
-83
-72
-54
-37
-39
-20
-28
-39
-53
-54
-72
-69
-61
-43
-45
-29
-38
-49
-60
-63
-81
-74
-65
-45
-35
-16
-24
-39
-56
-72
-79
-76
-62
-45
-36
-25
-30
-47
-62
-70
-75
-68
-55
-44
-37
-29
-29
-49
-63
-69
-83
-81
-64
-48
-39
-30
-33
-46
-60
-70
-78
-75
-51
-40
-34
-28
-38
-55
-65
-82
-84
-75
-54
-42
-31
-27
-36
-50
-56
-72
-76
-74
-52
-38
-29
-28
-40
-55
-64
-79
-83
-75
-58
-51
-33
-34
-41
-58
-62
-82
-73
-61
-48
-48
-33
-36
-44
-59
-70
-89
-85
-73
-56
-48
-27
-30
-40
-58
-62
-82
-73
-67
-48
-45
-28
-35
-42
-58
-69
-83
-72
-65
-40
-32
-17
-31
-46
-65
-67
-89
-81
-71
-55
-46
-28
-34
-48
-66
-71
-86
-76
-66
-56
-46
-29
-35
-47
-64
-69
-83
-80
-69
-46
-38
-31
-29
-43
-61
-70
-83
-79
-60
-43
-42
-27
-32
-47
-61
-76
-88
-74
-60
-45
-39
-29
-33
-44
-58
-67
-74
-69
-48
-34
-32
-23
-31
-44
-60
-66
-72
-70
-52
-41
-33
-27
-41
-56
-62
-70
-74
-72
-59
-48
-39
-36
-43
-61
-68
-80
-78
-72
-52
-46
-37
-37
-40
-62
-71
-84
-85
-78
-56
-50
-33
-34
-42
-62
-64
-77
-76
-80
-64
-57
-41
-36
-40
-50
-46
-59
-50
-44
-29
-21
-10
-23
-36
-70
-97
-122
-120
-113
-95
-90
-71
-76
-76
-89
-88
-97
-89
-78
-58
-55
-37
-49
-60
-72
-76
-94
-79
-72
-51
-51
-34
-40
-49
-67
-72
-87
-78
-64
-48
-42
-29
-33
-50
-68
-72
-88
-79
-66
-47
-45
-34
-40
-47
-65
-69
-77
-71
-58
-42
-38
-24
-32
-53
-68
-75
-84
-78
-63
-47
-32
-19
-22
-37
-48
-52
-70
-61
-54
-44
-36
-25
-28
-46
-55
-69
-69
-68
-56
-37
-30
-23
-29
-51
-64
-77
-84
-78
-56
-44
-30
-36
-44
-61
-65
-76
-75
-68
-56
-43
-28
-20
-27
-45
-52
-62
-64
-55
-34
-25
-8
-9
-24
-33
-42
-51
-44
-37
-18
-10
2
2
-3
-23
-30
-49
-40
-32
-12
-2
12
9
1
-13
-20
-39
-29
-27
-9
0
22
11
3
-18
-21
-36
-36
-28
-14
-8
13
5
-7
-31
-33
-55
-51
-45
-31
-23
-3
-14
-34
-51
-54
-68
-65
-56
-41
-36
-20
-27
-43
-64
-71
-89
-80
-69
-48
-42
-28
-35
-54
-69
-73
-87
-83
-65
-54
-47
-40
-45
-61
-72
-75
-90
-87
-77
-63
-56
-41
-46
-61
-70
-79
-87
-77
-66
-64
-58
-44
-48
-63
-74
-79
-83
-87
-71
-58
-53
-44
-47
-62
-72
-77
-84
-84
-65
-58
-44
-39
-46
-69
-77
-92
-90
-83
-63
-58
-41
-41
-47
-68
-72
-89
-90
-82
-61
-55
-37
-35
-48
-67
-76
-92
-86
-84
-76
-62
-48
-52
-62
-79
-86
-97
-89
-77
-65
-57
-42
-51
-56
-72
-79
-99
-89
-81
-62
-57
-41
-50
-60
-72
-79
-93
-92
-80
-66
-59
-41
-53
-65
-84
-85
-102
-95
-82
-64
-57
-41
-46
-57
-75
-80
-104
-97
-81
-68
-65
-51
-54
-64
-86
-89
-106
-101
-82
-67
-64
-46
-48
-63
-77
-86
-96
-93
-83
-67
-64
-49
-51
-66
-80
-87
-102
-96
-81
-70
-57
-49
-52
-69
-84
-92
-101
-96
-85
-69
-62
-50
-56
-72
-85
-91
-103
-97
-79
-68
-57
-48
-57
-75
-85
-97
-100
-95
-77
-62
-48
-37
-50
-72
-85
-95
-96
-88
-74
-60
-51
-42
-54
-71
-74
-92
-93
-90
-72
-72
-57
-56
-57
-75
-81
-99
-102
-94
-74
-71
-56
-58
-66
-86
-97
-111
-103
-98
-78
-71
-55
-63
-72
-91
-100
-110
-103
-94
-71
-65
-46
-54
-65
-84
-86
-106
-96
-87
-71
-75
-63
-63
-67
-82
-88
-99
-98
-82
-64
-57
-37
-48
-60
-76
-80
-97
-92
-74
-63
-60
-49
-53
-63
-80
-77
-93
-94
-84
-70
-67
-48
-55
-69
-87
-96
-113
-101
-84
-70
-69
-59
-58
-71
-87
-95
-105
-102
-86
-73
-64
-55
-54
-67
-89
-102
-108
-105
-86
-75
-69
-53
-58
-76
-96
-102
-113
-104
-80
-63
-51
-33
-34
-53
-63
-74
-79
-85
-70
-64
-78
-90
-107
-121
-128
-139
-142
-130
-109
-90
-76
-77
-83
-92
-101
-115
-117
-107
-87
-72
-59
-59
-68
-86
-97
-115
-113
-105
-87
-81
-63
-60
-66
-85
-94
-114
-107
-100
-81
-70
-56
-58
-67
-91
-97
-114
-103
-96
-77
-76
-53
-61
-75
-91
-87
-110
-99
-95
-78
-74
-50
-57
-67
-86
-93
-110
-101
-92
-77
-70
-59
-61
-74
-90
-93
-107
-96
-84
-72
-66
-53
-56
-65
-78
-84
-101
-98
-87
-74
-72
-52
-58
-69
-80
-86
-105
-97
-82
-67
-61
-46
-55
-69
-80
-83
-95
-92
-75
-61
-52
-31
-37
-52
-63
-69
-85
-83
-64
-46
-41
-26
-33
-46
-61
-62
-71
-66
-48
-31
-26
-19
-27
-39
-47
-57
-62
-53
-39
-28
-19
-7
-9
-32
-39
-49
-60
-49
-36
-27
-15
-10
-15
-38
-52
-68
-69
-61
-43
-30
-22
-24
-36
-55
-62
-78
-82
-78
-57
-53
-39
-46
-62
-78
-89
-105
-102
-97
-83
-75
-60
-57
-62
-83
-94
-119
-109
-101
-86
-79
-63
-66
-80
-95
-99
-119
-114
-108
-91
-90
-62
-65
-78
-95
-100
-120
-114
-105
-91
-89
-64
-69
-85
-101
-109
-125
-113
-104
-87
-86
-63
-69
-78
-99
-101
-121
-119
-106
-85
-80
-69
-76
-86
-104
-101
-119
-115
-101
-82
-77
-60
-67
-84
-100
-108
-123
-116
-105
-92
-84
-67
-72
-86
-97
-112
-123
-120
-102
-83
-72
-65
-73
-87
-105
-114
-118
-110
-97
-81
-73
-67
-72
-87
-97
-107
-117
-110
-97
-90
-78
-73
-79
-96
-109
-117
-115
-106
-96
-88
-79
-77
-84
-100
-103
-115
-124
-114
-93
-82
-73
-71
-81
-98
-105
-121
-120
-114
-95
-82
-68
-68
-80
-101
-110
-125
-123
-114
-98
-89
-74
-76
-81
-99
-106
-123
-118
-112
-92
-85
-70
-77
-93
-106
-111
-125
-118
-113
-90
-82
-68
-77
-85
-105
-109
-128
-119
-114
-102
-91
-71
-80
-84
-99
-103
-122
-122
-113
-93
-91
-75
-78
-93
-107
-110
-129
-119
-106
-88
-88
-77
-82
-89
-105
-110
-126
-117
-108
-96
-88
-73
-75
-92
-105
-110
-122
-120
-106
-91
-87
-78
-83
-99
-114
-125
-125
-118
-106
-90
-83
-74
-78
-95
-115
-120
-129
-123
-106
-98
-86
-73
-82
-96
-109
-117
-128
-122
-106
-92
-84
-78
-85
-101
-110
-118
-125
-123
-102
-93
-81
-78
-84
-100
-112
-125
-122
-121
-98
-88
-75
-70
-81
-99
-105
-121
-118
-109
-88
-76
-63
-64
-72
-95
-105
-118
-117
-102
-87
-83
-73
-79
-93
-121
-124
-134
-123
-118
-103
-95
-80
-85
-99
-110
-118
-132
-122
-118
-99
-98
-84
-88
-93
-108
-116
-137
-125
-118
-103
-99
-77
-84
-94
-110
-113
-134
-128
-115
-100
-94
-75
-78
-80
-89
-93
-111
-109
-98
-78
-67
-52
-67
-86
-126
-154
-179
-173
-160
-135
-129
-112
-120
-125
-132
-133
-147
-139
-120
-105
-101
-87
-95
-112
-124
-126
-135
-128
-111
-97
-88
-75
-82
-108
-126
-125
-132
-126
-106
-98
-89
-80
-86
-99
-113
-122
-129
-121
-103
-94
-89
-84
-87
-106
-110
-124
-135
-128
-103
-94
-82
-75
-84
-105
-122
-136
-136
-132
-107
-95
-84
-77
-86
-99
-108
-129
-129
-123
-102
-95
-75
-75
-81
-103
-107
-119
-113
-110
-104
-95
-78
-82
-92
-103
-109
-121
-113
-105
-90
-86
-71
-74
-82
-101
-105
-117
-105
-101
-89
-83
-67
-72
-76
-94
-97
-112
-105
-93
-74
-70
-52
-56
-68
-81
-82
-99
-95
-85
-66
-59
-37
-42
-51
-67
-73
-91
-85
-74
-61
-52
-27
-30
-46
-62
-66
-90
-84
-64
-50
-47
-34
-36
-50
-69
-71
-78
-75
-63
-52
-47
-36
-49
-68
-81
-91
-98
-95
-82
-70
-68
-60
-69
-79
-95
-109
-119
-111
-102
-85
-79
-70
-81
-96
-108
-118
-128
-123
-111
-107
-96
-86
-92
-112
-122
-130
-133
-128
-116
-105
-93
-83
-88
-111
-120
-130
-134
-132
-113
-107
-91
-88
-100
-121
-129
-137
-134
-131
-109
-99
-87
-91
-94
-115
-123
-127
-128
-122
-111
-101
-86
-87
-97
-111
-116
-138
-133
-119
-106
-103
-85
-91
-103
-121
-126
-139
-130
-121
-107
-102
-81
-88
-100
-115
-118
-138
-133
-117
-102
-99
-83
-94
-98
-118
-123
-140
-133
-120
-105
-100
-87
-90
-106
-123
-126
-141
-136
-123
-111
-105
-85
-84
-99
-117
-121
-138
-135
-128
-112
-105
-92
-94
-110
-126
-130
-136
-132
-114
-102
-102
-92
-96
-113
-129
-132
-147
-137
-122
-109
-102
-92
-94
-112
-124
-137
-143
-139
-124
-108
-103
-94
-96
-110
-125
-135
-145
-139
-122
-105
-103
-94
-98
-116
-123
-136
-140
-138
-119
-110
-95
-90
-96
-115
-125
-145
-148
-137
-119
-108
-91
-92
-100
-121
-128
-142
-139
-128
-108
-102
-96
-100
-111
-126
-135
-148
-142
-132
-112
-105
-89
-93
-102
-123
-129
-149
-145
-139
-116
-113
-97
-92
-102
-115
-124
-146
-140
-135
-114
-110
-90
-98
-109
-123
-123
-145
-138
-130
-113
-113
-99
-101
-110
-127
-131
-148
-139
-130
-110
-109
-94
-98
-109
-124
-123
-145
-141
-135
-114
-103
-87
-97
-111
-124
-134
-151
-138
-128
-113
-110
-94
-98
-107
-120
-125
-143
-140
-124
-110
-109
-95
-96
-109
-128
-136
-151
-147
-126
-112
-103
-93
-99
-113
-120
-130
-139
-142
-124
-115
-104
-91
-94
-109
-124
-133
-139
-137
-121
-106
-97
-87
-94
-101
-119
-130
-134
-133
-113
-102
-93
-91
-97
-105
-116
-135
-136
-132
-114
-106
-94
-90
-101
-118
-125
-143
-141
-131
-117
-109
-96
-98
-104
-120
-128
-145
-144
-132
-115
-107
-88
-95
-105
-121
-126
-142
-140
-140
-117
-109
-89
-93
-102
-124
-134
-154
-140
-129
-106
-98
-76
-79
-78
-95
-109
-125
-111
-106
-88
-83
-80
-111
-135
-155
-159
-176
-172
-160
-133
-124
-109
-111
-116
-131
-132
-146
-145
-128
-109
-105
-88
-97
-109
-126
-133
-147
-142
-126
-107
-102
-87
-94
-107
-119
-127
-142
-133
-118
-108
-101
-90
-90
-109
-122
-128
-134
-126
-116
-104
-92
-75
-84
-100
-118
-127
-140
-134
-117
-110
-97
-79
-85
-102
-119
-133
-142
-138
-119
-100
-92
-80
-87
-104
-120
-127
-132
-131
-113
-99
-93
-86
-95
-106
-113
-122
-127
-123
-105
-98
-84
-81
-87
-103
-109
-123
-122
-117
-107
-100
-83
-80
-81
-96
-98
-121
-118
-111
-88
-77
-62
-68
-83
-95
-97
-114
-106
-105
-85
-77
-62
-61
-67
-84
-87
-104
-99
-92
-70
-58
-40
-49
-53
-76
-81
-95
-89
-83
-62
-57
-42
-45
-57
-73
-73
-86
-78
-69
-54
-49
-34
-40
-56
-73
-71
-91
-87
-80
-69
-66
-47
-55
-66
-87
-95
-111
-107
-95
-83
-83
-65
-72
-85
-102
-106
-127
-127
-114
-101
-95
-84
-88
-107
-123
-127
-136
-137
-125
-109
-100
-90
-94
-110
-123
-130
-139
-136
-127
-111
-98
-82
-88
-111
-129
-138
-147
-140
-121
-105
-103
-96
-105
-121
-129
-140
-147
-139
-120
-101
-93
-88
-93
-113
-126
-138
-147
-139
-119
-110
-98
-92
-98
-114
-125
-136
-139
-137
-121
-111
-92
-89
-97
-118
-125
-141
-139
-133
-118
-104
-90
-95
-99
-115
-124
-140
-137
-128
-113
-105
-89
-89
-98
-114
-120
-147
-142
-134
-116
-116
-92
-100
-101
-118
-122
-142
-139
-135
-118
-112
-88
-90
-100
-117
-124
-140
-142
-135
-121
-110
-88
-95
-110
-124
-130
-148
-144
-129
-113
-109
-86
-99
-113
-127
-128
-144
-139
-132
-115
-107
-91
-101
-112
-129
-129
-143
-141
-129
-109
-98
-87
-93
-107
-131
-136
-145
-142
-127
-110
-98
-93
-102
-116
-131
-143
-148
-141
-123
-115
-103
-91
-96
-111
-122
-130
-143
-138
-118
-110
-98
-97
-105
-117
-132
-140
-145
-134
-118
-110
-101
-87
-96
-116
-126
-137
-142
-134
-115
-111
-103
-96
-99
-119
-127
-140
-147
-138
-120
-109
-97
-93
-101
-121
-130
-142
-138
-133
-112
-106
-91
-89
-102
-125
-135
-149
-147
-134
-115
-106
-90
-102
-102
-119
-132
-145
-138
-127
-111
-111
-93
-97
-99
-119
-128
-143
-134
-133
-112
-105
-90
-94
-104
-122
-124
-147
-139
-128
-106
-97
-88
-94
-106
-127
-131
-146
-138
-129
-112
-106
-92
-99
-109
-127
-127
-143
-134
-122
-109
-110
-88
-91
-100
-120
-127
-138
-136
-123
-106
-103
-87
-93
-107
-120
-128
-144
-138
-128
-115
-106
-87
-87
-99
-114
-121
-138
-137
-124
-107
-95
-83
-87
-96
-110
-121
-131
-129
-112
-95
-88
-84
-92
-108
-119
-127
-135
-130
-114
-100
-85
-87
-97
-118
-122
-139
-144
-142
-124
-108
-95
-88
-97
-112
-124
-139
-131
-124
-110
-108
-94
-97
-107
-125
-131
-146
-141
-138
-116
-108
-97
-91
-97
-118
-129
-149
-143
-127
-110
-96
-67
-70
-73
-92
-103
-118
-114
-107
-90
-91
-93
-123
-144
-155
-152
-165
-159
-157
-135
-119
-102
-113
-116
-125
-135
-149
-147
-129
-116
-109
-91
-98
-107
-126
-133
-147
-140
-131
-112
-107
-86
-91
-98
-120
-127
-142
-131
-116
-96
-95
-83
-90
-106
-121
-125
-140
-139
-124
-103
-91
-79
-84
-106
-123
-127
-141
-136
-122
-113
-101
-96
-95
-105
-115
-125
-136
-125
-113
-101
-88
-76
-83
-99
-116
-126
-135
-128
-110
-103
-95
-83
-91
-102
-114
-125
-133
-127
-111
-99
-85
-78
-82
-101
-106
-120
-123
-117
-106
-96
-85
-79
-84
-98
-100
-111
-117
-112
-94
-87
-71
-61
-64
-85
-95
-108
-104
-96
-78
-74
-52
-53
-60
-71
-79
-101
-98
-90
-73
-63
-43
-42
-56
-72
-81
-98
-90
-77
-61
-47
-31
-43
-49
-67
-66
-85
-77
-76
-55
-47
-28
-35
-47
-65
-74
-99
-91
-83
-66
-63
-43
-52
-66
-87
-87
-106
-102
-91
-77
-78
-65
-68
-81
-104
-106
-123
-121
-110
-99
-91
-75
-84
-89
-107
-117
-136
-133
-122
-99
-97
-84
-88
-105
-120
-127
-139
-134
-124
-110
-100
-92
-94
-104
-124
-133
-143
-134
-118
-100
-95
-84
-93
-111
-120
-128
-141
-133
-115
-100
-94
-82
-90
-106
-112
-122
-137
-127
-112
-99
-86
-83
-96
-110
-118
-125
-130
-128
-114
-103
-91
-87
-92
-109
-118
-127
-125
-121
-109
-108
-92
-89
-93
-109
-122
-137
-130
-127
-112
-100
-84
-85
-89
-107
-110
-132
-128
-122
-106
-100
-83
-91
-100
-118
-122
-138
-129
-122
-104
-100
-80
-88
-98
-114
-125
-138
-125
-119
-105
-99
-79
-87
-98
-116
-128
-142
-132
-122
-109
-103
-85
-87
-100
-117
-122
-136
-127
-115
-102
-96
-78
-76
-90
-108
-120
-139
-130
-119
-102
-94
-79
-87
-99
-115
-121
-133
-128
-115
-98
-90
-81
-84
-99
-117
-119
-132
-127
-112
-94
-82
-70
-85
-102
-117
-121
-134
-129
-103
-93
-86
-82
-84
-97
-116
-130
-137
-131
-114
-102
-99
-90
-94
-108
-118
-126
-137
-135
-117
-110
-99
-83
-89
-108
-116
-122
-132
-129
-114
-102
-88
-78
-89
-109
-116
-131
-131
-125
-107
-101
-85
-80
-85
-110
-118
-132
-127
-122
-102
-83
-69
-81
-87
-106
-114
-133
-129
-122
-110
-99
-82
-82
-95
-111
-117
-130
-121
-121
-101
-96
-77
-83
-94
-108
-117
-136
-129
-117
-98
-92
-77
-87
-97
-118
-117
-137
-125
-117
-93
-93
-73
-80
-92
-109
-113
-134
-124
-112
-95
-90
-74
-78
-90
-112
-114
-134
-124
-111
-96
-89
-71
-83
-96
-113
-108
-126
-127
-114
-93
-88
-75
-84
-94
-114
-119
-135
-129
-113
-94
-82
-71
-77
-86
-97
-102
-118
-109
-93
-83
-77
-64
-68
-85
-103
-117
-126
-116
-97
-84
-78
-70
-83
-102
-107
-114
-126
-118
-105
-90
-83
-80
-86
-102
-118
-126
-127
-123
-106
-93
-92
-78
-87
-104
-119
-131
-134
-125
-99
-90
-78
-71
-84
-105
-113
-131
-132
-120
-103
-96
-80
-77
-83
-102
-103
-112
-101
-90
-80
-69
-51
-51
-66
-91
-99
-139
-155
-156
-138
-128
-112
-114
-114
-123
-124
-142
-131
-124
-105
-102
-78
-90
-94
-108
-114
-135
-121
-114
-96
-94
-69
-70
-80
-103
-110
-130
-125
-114
-96
-87
-72
-80
-86
-103
-104
-122
-118
-107
-92
-86
-68
-69
-87
-103
-110
-117
-110
-101
-89
-87
-68
-72
-85
-104
-110
-121
-116
-104
-88
-80
-67
-69
-84
-99
-109
-120
-111
-96
-79
-67
-54
-65
-83
-92
-100
-115
-109
-89
-76
-75
-72
-73
-82
-95
-105
-112
-105
-92
-82
-65
-50
-62
-73
-84
-92
-98
-93
-74
-66
-63
-51
-54
-75
-82
-90
-94
-90
-74
-64
-44
-38
-42
-54
-64
-81
-86
-81
-63
-53
-39
-32
-36
-49
-57
-70
-67
-56
-38
-31
-14
-19
-31
-47
-55
-69
-63
-55
-39
-29
-8
-13
-25
-41
-45
-64
-59
-52
-41
-37
-15
-21
-30
-48
-57
-76
-71
-63
-44
-44
-25
-36
-46
-71
-80
-97
-90
-85
-63
-62
-44
-49
-61
-77
-86
-112
-107
-99
-76
-77
-65
-67
-77
-96
-100
-118
-112
-99
-85
-77
-64
-74
-87
-99
-99
-115
-106
-91
-82
-75
-66
-75
-89
-104
-107
-121
-112
-96
-78
-69
-58
-64
-82
-95
-101
-116
-107
-91
-77
-67
-61
-71
-87
-97
-106
-114
-113
-88
-73
-64
-55
-66
-84
-98
-107
-117
-114
-94
-85
-66
-60
-63
-81
-93
-107
-113
-103
-85
-71
-68
-61
-68
-88
-100
-112
-114
-103
-89
-74
-62
-57
-65
-89
-94
-110
-111
-102
-87
-80
-68
-68
-75
-89
-97
-112
-109
-100
-82
-75
-56
-65
-69
-82
-92
-106
-110
-111
-95
-90
-64
-65
-70
-88
-98
-115
-108
-99
-80
-78
-60
-64
-68
-94
-105
-118
-112
-101
-78
-78
-61
-70
-75
-89
-98
-117
-112
-97
-79
-72
-56
-66
-77
-90
-96
-110
-100
-91
-75
-75
-60
-63
-78
-93
-101
-120
-111
-94
-78
-73
-52
-60
-74
-89
-96
-111
-104
-90
-74
-70
-58
-64
-76
-96
-106
-113
-110
-91
-77
-69
-56
-62
-80
-99
-108
-117
-106
-86
-70
-62
-58
-67
-84
-93
-105
-107
-101
-86
-69
-62
-53
-64
-80
-91
-100
-107
-99
-88
-79
-68
-58
-63
-84
-89
-104
-103
-94
-80
-69
-59
-58
-69
-86
-93
-104
-105
-98
-78
-71
-57
-56
-62
-79
-87
-110
-107
-95
-78
-71
-55
-64
-72
-87
-93
-113
-103
-98
-78
-70
-52
-58
-68
-83
-93
-111
-105
-94
-75
-72
-52
-61
-74
-88
-92
-111
-101
-87
-66
-66
-54
-56
-66
-84
-91
-115
-104
-92
-70
-63
-40
-46
-58
-79
-87
-103
-99
-89
-68
-60
-42
-47
-63
-78
-87
-102
-98
-86
-70
-63
-45
-49
-66
-86
-92
-104
-106
-89
-74
-68
-56
-67
-80
-89
-98
-110
-104
-87
-72
-66
-56
-62
-74
-89
-98
-107
-99
-85
-75
-66
-56
-54
-67
-83
-95
-103
-101
-81
-70
-67
-58
-66
-76
-81
-91
-88
-82
-63
-54
-40
-37
-33
-60
-81
-101
-129
-139
-127
-114
-98
-90
-96
-119
-124
-133
-127
-110
-87
-78
-61
-64
-74
-91
-90
-106
-105
-98
-80
-76
-54
-55
-68
-82
-82
-96
-93
-89
-71
-61
-43
-45
-59
-77
-81
-101
-97
-87
-65
-59
-42
-53
-64
-81
-86
-102
-91
-82
-66
-63
-42
-52
-61
-75
-82
-100
-94
-80
-65
-60
-42
-48
-57
-71
-78
-96
-92
-74
-60
-56
-44
-49
-61
-72
-76
-92
-85
-72
-59
-54
-36
-42
-49
-72
-81
-87
-87
-75
-61
-52
-33
-37
-54
-68
-73
-79
-78
-63
-53
-43
-31
-35
-50
-63
-69
-79
-72
-53
-37
-26
-16
-28
-39
-52
-58
-68
-65
-46
-33
-18
-8
-16
-33
-39
-46
-54
-53
-36
-26
-15
-9
-14
-25
-34
-46
-52
-38
-22
-11
-1
6
-7
-22
-30
-45
-41
-41
-24
-21
-3
-1
-5
-30
-42
-60
-60
-56
-36
-33
-21
-23
-28
-44
-58
-74
-69
-63
-46
-38
-25
-27
-42
-66
-81
-94
-85
-79
-58
-56
-39
-50
-58
-77
-82
-103
-93
-83
-66
-60
-43
-54
-63
-77
-82
-100
-91
-82
-62
-62
-47
-53
-63
-79
-80
-99
-88
-76
-61
-58
-41
-46
-56
-72
-78
-99
-95
-82
-64
-57
-41
-53
-66
-79
-85
-99
-91
-81
-65
-58
-43
-48
-55
-72
-78
-92
-88
-77
-63
-56
-46
-51
-64
-78
-80
-90
-90
-74
-63
-54
-43
-48
-63
-82
-87
-94
-89
-72
-63
-50
-40
-52
-74
-90
-90
-91
-87
-73
-62
-53
-47
-56
-74
-85
-93
-99
-98
-80
-64
-55
-50
-52
-75
-80
-100
-96
-93
-72
-60
-50
-48
-57
-72
-81
-100
-98
-89
-74
-66
-50
-48
-59
-77
-80
-95
-84
-79
-69
-63
-50
-52
-63
-78
-85
-100
-95
-89
-72
-68
-49
-52
-64
-83
-85
-100
-93
-89
-67
-62
-48
-54
-66
-80
-86
-102
-96
-86
-69
-63
-44
-50
-61
-78
-92
-106
-97
-81
-65
-63
-44
-52
-65
-88
-89
-101
-95
-82
-63
-59
-47
-51
-64
-80
-85
-99
-90
-77
-65
-61
-53
-60
-68
-82
-86
-95
-90
-77
-67
-57
-45
-49
-66
-84
-94
-106
-103
-87
-73
-61
-49
-51
-67
-83
-96
-106
-97
-82
-66
-55
-47
-55
-71
-83
-90
-95
-93
-75
-65
-54
-48
-56
-75
-86
-94
-96
-88
-73
-66
-52
-47
-53
-78
-85
-100
-99
-90
-71
-64
-52
-52
-57
-77
-85
-98
-96
-87
-75
-75
-50
-47
-54
-68
-76
-93
-91
-85
-75
-66
-46
-51
-58
-75
-79
-96
-86
-78
-64
-57
-43
-44
-49
-67
-72
-88
-80
-75
-57
-53
-39
-47
-52
-71
-76
-92
-82
-76
-56
-58
-45
-54
-66
-81
-86
-103
-97
-82
-62
-52
-34
-45
-65
-84
-90
-104
-93
-78
-68
-66
-51
-52
-62
-84
-88
-103
-94
-78
-62
-62
-48
-49
-66
-81
-89
-105
-99
-85
-66
-54
-37
-37
-49
-55
-57
-70
-67
-51
-40
-34
-24
-41
-74
-108
-125
-137
-124
-108
-96
-86
-63
-68
-84
-93
-97
-108
-97
-84
-73
-63
-50
-53
-74
-89
-100
-106
-94
-71
-60
-47
-36
-52
-69
-78
-92
-90
-84
-68
-59
-47
-46
-56
-71
-72
-86
-85
-79
-63
-52
-39
-38
-48
-67
-73
-90
-91
-82
-63
-60
-42
-43
-50
-72
-79
-99
-90
-81
-61
-56
-39
-47
-46
-62
-68
-87
-76
-68
-59
-58
-39
-46
-49
-69
-73
-92
-80
-75
-54
-47
-27
-27
-42
-63
-65
-82
-77
-58
-42
-34
-14
-26
-45
-62
-63
-80
-71
-63
-47
-44
-16
-20
-40
-52
-59
-72
-64
-49
-28
-28
-13
-14
-23
-40
-44
-56
-53
-39
-22
-16
1
-1
-19
-30
-32
-50
-41
-27
-10
-3
9
7
-8
-20
-30
-43
-35
-18
-4
1
13
2
-16
-28
-36
-43
-42
-32
-19
-4
0
-6
-19
-31
-46
-52
-49
-39
-28
-22
-16
-29
-46
-55
-70
-74
-67
-56
-43
-30
-32
-42
-57
-68
-88
-87
-82
-70
-59
-47
-45
-52
-68
-73
-88
-81
-84
-64
-57
-43
-48
-54
-72
-80
-103
-94
-87
-65
-60
-44
-50
-58
-71
-78
-93
-90
-80
-60
-55
-37
-46
-56
-69
-74
-94
-81
-73
-56
-56
-38
-43
-59
-73
-74
-89
-79
-73
-58
-56
-44
-43
-53
-67
-72
-86
-86
-81
-64
-60
-37
-41
-51
-70
-80
-94
-88
-77
-64
-59
-44
-49
-57
-72
-78
-97
-94
-73
-61
-58
-40
-48
-59
-76
-84
-91
-89
-75
-66
-56
-40
-44
-63
-77
-82
-95
-91
-78
-61
-52
-42
-46
-61
-75
-85
-94
-90
-69
-58
-46
-41
-46
-62
-74
-91
-100
-90
-73
-65
-54
-46
-53
-69
-80
-93
-95
-83
-64
-53
-49
-45
-48
-66
-77
-93
-98
-92
-73
-63
-50
-51
-56
-73
-79
-91
-87
-77
-64
-57
-43
-48
-56
-73
-86
-103
-96
-87
-68
-60
-44
-41
-51
-71
-75
-96
-86
-82
-61
-59
-39
-43
-52
-74
-73
-95
-89
-82
-67
-68
-48
-54
-58
-73
-79
-94
-87
-79
-63
-56
-39
-45
-51
-68
-73
-91
-85
-78
-60
-56
-45
-47
-55
-77
-77
-96
-89
-74
-57
-53
-40
-48
-56
-76
-78
-91
-81
-71
-57
-54
-42
-51
-60
-75
-80
-94
-90
-74
-58
-50
-41
-45
-58
-73
-82
-89
-84
-72
-57
-49
-42
-44
-59
-72
-87
-94
-92
-71
-57
-47
-42
-47
-65
-73
-78
-83
-79
-66
-58
-48
-41
-42
-61
-75
-78
-85
-81
-65
-57
-46
-40
-46
-65
-73
-84
-83
-77
-61
-54
-41
-36
-39
-58
-65
-83
-80
-74
-52
-44
-27
-37
-45
-60
-68
-82
-78
-71
-53
-46
-37
-45
-53
-68
-76
-95
-90
-84
-62
-53
-33
-34
-47
-63
-70
-91
-88
-79
-65
-59
-41
-49
-56
-68
-74
-97
-89
-76
-60
-54
-37
-48
-58
-67
-70
-89
-85
-72
-60
-54
-29
-28
-35
-40
-46
-63
-60
-45
-32
-40
-26
-42
-80
-108
-115
-127
-116
-105
-93
-82
-54
-59
-76
-90
-92
-98
-90
-77
-57
-59
-43
-46
-58
-73
-78
-92
-86
-72
-52
-48
-43
-44
-59
-68
-80
-87
-79
-62
-50
-42
-37
-44
-52
-69
-81
-84
-75
-64
-49
-41
-32
-37
-53
-69
-84
-88
-83
-66
-58
-44
-34
-41
-57
-70
-84
-81
-74
-58
-52
-38
-34
-39
-59
-69
-81
-80
-68
-53
-43
-31
-33
-47
-62
-68
-78
-75
-71
-53
-43
-27
-29
-36
-54
-63
-80
-69
-68
-45
-38
-22
-27
-37
-51
-56
-72
-68
-58
-35
-28
-10
-21
-26
-40
-39
-59
-54
-48
-23
-20
-1
-5
-15
-34
-39
-53
-44
-33
-15
-11
5
7
-4
-22
-22
-41
-38
-24
-8
4
15
16
4
-17
-22
-33
-27
-17
0
5
20
15
-2
-17
-23
-40
-33
-20
-5
-2
5
1
-14
-25
-34
-44
-48
-40
-19
-12
-4
-12
-30
-47
-54
-67
-68
-55
-41
-34
-27
-31
-49
-58
-68
-76
-72
-60
-46
-35
-31
-43
-53
-65
-78
-84
-81
-62
-50
-37
-28
-38
-62
-69
-86
-83
-76
-61
-55
-40
-35
-47
-62
-66
-81
-78
-72
-53
-48
-28
-29
-36
-54
-65
-81
-80
-73
-55
-49
-32
-35
-48
-64
-70
-90
-81
-74
-50
-46
-32
-37
-42
-63
-71
-86
-78
-70
-48
-43
-26
-33
-43
-59
-63
-80
-74
-65
-48
-50
-32
-40
-51
-63
-68
-86
-82
-67
-49
-43
-29
-35
-47
-63
-61
-82
-76
-68
-53
-55
-38
-39
-51
-71
-69
-83
-77
-66
-45
-41
-30
-37
-58
-71
-73
-84
-82
-70
-55
-45
-29
-37
-51
-63
-75
-87
-84
-68
-50
-45
-31
-41
-55
-69
-76
-82
-67
-55
-48
-42
-31
-38
-54
-70
-80
-87
-81
-62
-46
-38
-26
-32
-53
-61
-74
-80
-80
-58
-46
-41
-35
-43
-57
-66
-78
-82
-74
-62
-55
-42
-38
-42
-56
-61
-75
-81
-73
-53
-50
-36
-35
-41
-62
-67
-81
-77
-69
-48
-44
-27
-31
-42
-59
-63
-82
-75
-67
-49
-44
-28
-30
-38
-52
-61
-76
-74
-67
-49
-45
-27
-33
-44
-57
-60
-83
-74
-63
-44
-45
-34
-36
-43
-65
-65
-84
-75
-67
-50
-40
-20
-30
-45
-60
-64
-82
-79
-63
-45
-40
-28
-32
-39
-59
-66
-79
-74
-65
-46
-41
-26
-31
-46
-61
-67
-81
-73
-62
-53
-42
-26
-26
-38
-53
-58
-70
-65
-49
-42
-42
-22
-26
-41
-58
-71
-82
-67
-54
-41
-31
-20
-28
-40
-48
-60
-65
-61
-43
-34
-29
-21
-27
-43
-52
-60
-67
-63
-48
-40
-33
-22
-36
-51
-56
-71
-74
-68
-54
-42
-27
-22
-34
-48
-57
-72
-73
-63
-46
-39
-26
-28
-37
-49
-59
-74
-74
-66
-45
-42
-28
-26
-37
-55
-54
-74
-75
-68
-50
-36
-17
-15
-19
-37
-39
-54
-49
-42
-22
-23
-13
-31
-53
-80
-98
-121
-119
-106
-86
-80
-60
-57
-61
-73
-75
-91
-85
-73
-50
-37
-16
-23
-37
-59
-64
-84
-73
-62
-43
-40
-22
-29
-42
-54
-53
-67
-66
-59
-41
-33
-20
-24
-36
-50
-59
-67
-60
-49
-36
-29
-11
-18
-34
-51
-59
-73
-68
-50
-32
-26
-16
-20
-32
-46
-58
-66
-60
-48
-30
-29
-19
-24
-37
-49
-55
-64
-57
-44
-28
-20
-12
-22
-40
-52
-52
-55
-49
-36
-25
-19
-11
-16
-33
-44
-57
-61
-51
-34
-19
-13
-6
-12
-32
-45
-54
-55
-47
-25
-13
-3
4
-4
-24
-31
-46
-43
-35
-7
-2
9
8
2
-12
-21
-40
-32
-23
-5
7
25
18
14
-4
-8
-25
-17
-11
8
14
29
24
19
7
-2
-25
-18
-6
15
14
30
17
11
-8
-11
-31
-22
-13
3
8
26
19
9
-14
-16
-39
-34
-27
-11
-9
9
6
-8
-26
-34
-58
-52
-44
-28
-26
-15
-22
-34
-47
-51
-70
-65
-52
-33
-33
-28
-28
-39
-56
-61
-71
-69
-54
-37
-32
-21
-26
-40
-52
-60
-71
-70
-58
-37
-31
-25
-24
-39
-53
-62
-68
-71
-57
-34
-27
-19
-26
-42
-58
-65
-73
-68
-49
-35
-21
-21
-28
-41
-49
-67
-71
-65
-46
-39
-30
-21
-31
-51
-58
-69
-63
-58
-49
-36
-23
-21
-24
-39
-53
-67
-68
-65
-45
-35
-20
-29
-36
-57
-60
-75
-72
-68
-44
-35
-22
-26
-33
-47
-58
-76
-71
-61
-49
-41
-19
-30
-39
-53
-59
-79
-72
-69
-55
-43
-24
-27
-36
-52
-60
-87
-77
-63
-50
-43
-28
-28
-37
-58
-60
-77
-74
-64
-44
-42
-33
-34
-37
-57
-65
-79
-73
-64
-49
-42
-27
-36
-47
-62
-66
-81
-73
-57
-39
-39
-26
-35
-46
-58
-64
-81
-77
-56
-38
-34
-24
-32
-43
-61
-68
-79
-76
-56
-41
-36
-19
-29
-50
-66
-74
-84
-76
-56
-45
-36
-23
-27
-46
-61
-72
-79
-69
-55
-35
-31
-25
-35
-54
-63
-76
-79
-74
-52
-42
-32
-28
-37
-49
-63
-74
-76
-72
-54
-42
-31
-27
-36
-55
-63
-78
-75
-68
-51
-42
-29
-30
-36
-52
-57
-77
-74
-68
-44
-39
-23
-30
-40
-60
-67
-81
-70
-61
-41
-40
-35
-36
-45
-61
-63
-83
-78
-68
-47
-42
-23
-29
-38
-55
-62
-85
-74
-59
-43
-41
-25
-31
-41
-58
-61
-75
-69
-55
-41
-41
-30
-39
-44
-62
-67
-85
-73
-63
-48
-43
-25
-29
-40
-53
-55
-75
-67
-49
-32
-33
-19
-27
-41
-51
-61
-77
-68
-53
-35
-31
-23
-20
-34
-49
-56
-71
-67
-53
-41
-36
-24
-36
-51
-67
-68
-76
-72
-61
-47
-33
-27
-36
-53
-63
-66
-77
-76
-61
-47
-33
-32
-31
-48
-67
-75
-82
-76
-61
-53
-38
-31
-37
-56
-64
-80
-83
-66
-39
-29
-8
-5
-6
-27
-40
-52
-45
-43
-31
-27
-31
-52
-73
-97
-100
-113
-107
-98
-77
-67
-49
-52
-56
-63
-70
-88
-79
-71
-54
-47
-24
-28
-43
-69
-68
-86
-78
-68
-50
-45
-26
-34
-34
-60
-64
-84
-72
-64
-44
-39
-20
-30
-41
-60
-66
-83
-74
-63
-42
-39
-23
-27
-42
-58
-63
-78
-71
-61
-42
-39
-19
-26
-35
-51
-58
-70
-69
-55
-45
-37
-24
-25
-35
-55
-62
-76
-69
-52
-38
-28
-13
-19
-36
-50
-55
-70
-65
-51
-31
-21
-13
-24
-41
-50
-57
-66
-59
-44
-29
-19
-10
-17
-35
-45
-47
-55
-48
-29
-18
-5
-3
-9
-24
-37
-44
-49
-46
-26
-13
2
9
3
-10
-18
-33
-30
-19
-1
6
17
19
8
-8
-9
-26
-24
-19
2
4
23
26
19
-2
-13
-25
-19
-15
4
13
29
26
14
-7
-17
-32
-20
-13
1
1
18
11
2
-18
-28
-42
-33
-27
-16
-13
6
-13
-20
-38
-43
-64
-50
-43
-28
-27
-9
-15
-22
-36
-48
-70
-64
-54
-39
-35
-16
-23
-40
-60
-62
-78
-70
-59
-42
-38
-18
-24
-34
-54
-57
-79
-75
-61
-44
-37
-14
-27
-38
-52
-59
-75
-71
-64
-46
-38
-19
-24
-43
-54
-57
-67
-64
-52
-41
-31
-17
-31
-45
-56
-64
-69
-65
-51
-38
-22
-15
-22
-39
-54
-60
-74
-70
-56
-39
-30
-24
-28
-46
-58
-63
-69
-64
-45
-42
-28
-24
-31
-47
-57
-71
-72
-64
-49
-37
-24
-23
-32
-52
-56
-70
-73
-66
-47
-40
-28
-30
-38
-53
-56
-72
-70
-62
-47
-43
-28
-22
-32
-51
-62
-85
-74
-65
-43
-39
-23
-23
-35
-58
-61
-81
-71
-69
-55
-44
-25
-33
-42
-57
-64
-84
-73
-69
-50
-41
-21
-28
-36
-51
-55
-73
-71
-65
-53
-47
-31
-35
-40
-53
-58
-80
-75
-65
-47
-41
-25
-34
-42
-57
-62
-79
-65
-59
-48
-42
-23
-31
-41
-56
-67
-81
-70
-58
-43
-37
-22
-28
-41
-56
-64
-77
-73
-57
-43
-37
-28
-33
-43
-57
-69
-78
-76
-60
-49
-40
-25
-26
-36
-52
-65
-72
-75
-60
-45
-36
-29
-34
-46
-56
-71
-73
-66
-51
-43
-34
-33
-37
-51
-62
-77
-77
-72
-54
-44
-33
-22
-28
-44
-58
-77
-76
-67
-50
-42
-27
-22
-29
-49
-58
-75
-71
-62
-49
-43
-28
-33
-38
-59
-63
-81
-71
-65
-47
-38
-21
-23
-33
-52
-57
-74
-63
-57
-38
-25
-1
-4
-21
-36
-40
-63
-54
-48
-40
-37
-18
-24
-27
-41
-39
-64
-56
-53
-36
-27
-5
-11
-28
-46
-53
-74
-62
-55
-43
-41
-24
-20
-34
-48
-52
-68
-68
-60
-46
-40
-22
-28
-38
-54
-60
-74
-71
-61
-45
-39
-24
-29
-38
-55
-59
-71
-65
-49
-38
-38
-26
-32
-42
-55
-65
-74
-66
-54
-38
-29
-21
-25
-43
-54
-63
-72
-60
-44
-26
-14
0
0
-21
-33
-38
-40
-46
-27
-21
-31
-46
-65
-85
-94
-101
-98
-91
-64
-55
-40
-35
-37
-52
-57
-73
-73
-65
-46
-39
-24
-25
-32
-48
-56
-74
-69
-57
-32
-32
-20
-24
-27
-49
-57
-70
-57
-57
-40
-30
-14
-12
-20
-39
-46
-66
-55
-43
-29
-26
-18
-28
-33
-46
-52
-70
-62
-54
-33
-32
-11
-17
-27
-46
-47
-66
-54
-49
-32
-29
-11
-16
-30
-46
-50
-70
-65
-46
-28
-25
-6
-17
-25
-38
-45
-60
-56
-42
-25
-20
-3
-15
-22
-34
-39
-53
-49
-33
-13
-14
8
-2
-18
-32
-37
-53
-45
-28
-14
-2
3
1
-12
-24
-32
-41
-36
-15
-3
7
17
13
2
-10
-20
-28
-21
-9
6
18
25
20
12
0
-9
-16
-12
8
21
26
38
31
19
4
-5
-10
-3
19
22
33
39
29
8
-3
-17
-16
-13
3
14
26
28
13
-6
-23
-36
-29
-25
-15
-6
9
8
-1
-20
-34
-53
-42
-39
-21
-16
-1
-9
-17
-36
-41
-60
-54
-52
-34
-26
-11
-10
-20
-37
-46
-70
-65
-53
-33
-28
-9
-20
-27
-45
-46
-64
-54
-52
-34
-31
-11
-19
-31
-43
-49
-65
-57
-50
-34
-24
-7
-18
-31
-48
-49
-65
-58
-50
-34
-24
-5
-11
-26
-40
-45
-62
-58
-45
-28
-23
-5
-13
-29
-45
-52
-66
-62
-42
-23
-17
-8
-18
-31
-44
-54
-61
-61
-42
-24
-14
-9
-16
-29
-41
-50
-62
-56
-47
-35
-22
-13
-18
-32
-52
-58
-65
-59
-39
-28
-14
-7
-14
-33
-49
-61
-63
-54
-37
-25
-12
-5
-16
-38
-51
-62
-66
-68
-45
-36
-17
-12
-18
-38
-46
-61
-62
-56
-37
-25
-14
-17
-22
-41
-48
-70
-58
-51
-33
-27
-12
-17
-21
-38
-45
-63
-55
-51
-33
-32
-16
-19
-29
-45
-48
-63
-51
-44
-29
-28
-11
-14
-26
-38
-47
-62
-53
-50
-33
-31
-11
-21
-33
-44
-46
-66
-61
-52
-29
-21
-8
-11
-25
-45
-45
-68
-66
-46
-20
-20
-9
-17
-22
-38
-48
-67
-64
-48
-27
-26
-9
-14
-28
-43
-49
-60
-53
-42
-27
-15
-5
-13
-27
-42
-50
-59
-55
-40
-24
-18
-11
-16
-34
-44
-48
-56
-49
-34
-26
-22
-14
-16
-32
-44
-48
-62
-61
-41
-26
-22
-9
-13
-32
-43
-51
-54
-52
-33
-23
-11
-5
-18
-33
-43
-57
-55
-49
-32
-24
-11
-12
-18
-33
-40
-52
-48
-41
-24
-20
-6
-9
-16
-29
-36
-59
-44
-41
-28
-20
-3
-8
-14
-32
-39
-55
-47
-42
-22
-15
3
-4
-10
-28
-37
-53
-41
-35
-17
-12
6
-5
-20
-40
-48
-65
-55
-42
-25
-16
0
-11
-12
-35
-42
-63
-53
-44
-27
-21
-3
-5
-12
-35
-43
-58
-52
-43
-22
-18
-9
-17
-25
-44
-47
-63
-57
-46
-27
-23
-5
-4
-20
-26
-26
-36
-24
-18
-7
3
15
8
-16
-41
-69
-87
-93
-78
-69
-55
-39
-50
-67
-69
-70
-73
-66
-44
-28
-18
-10
-13
-33
-43
-48
-64
-57
-36
-22
-11
-2
-13
-28
-42
-47
-53
-47
-27
-15
-6
4
-5
-26
-31
-45
-53
-45
-26
-14
-5
-2
-7
-26
-36
-51
-50
-44
-27
-15
-3
-5
-8
-30
-32
-50
-47
-36
-15
-10
2
-1
-8
-26
-33
-48
-39
-38
-19
-9
10
11
3
-21
-29
-48
-39
-34
-11
-7
10
2
-4
-26
-32
-50
-39
-35
-10
-7
14
8
1
-13
-20
-41
-31
-23
-5
-6
19
16
5
-13
-16
-28
-17
-10
8
12
33
23
10
-7
-8
-22
-13
2
22
28
41
32
22
9
2
-14
-9
4
22
35
45
40
33
11
7
-3
4
17
30
37
47
41
29
14
7
-4
5
24
30
35
45
34
16
3
-7
-14
-9
5
13
23
28
19
-6
-18
-28
-44
-36
-17
-11
-1
6
-1
-22
-32
-45
-45
-46
-30
-18
-6
-4
-11
-32
-37
-55
-53
-52
-39
-30
-19
-12
-18
-36
-44
-58
-57
-48
-30
-23
-7
-11
-12
-32
-42
-68
-60
-56
-33
-20
-6
-11
-18
-38
-43
-62
-55
-49
-32
-30
-9
-15
-23
-42
-40
-59
-51
-44
-26
-21
2
-3
-14
-37
-43
-61
-50
-44
-24
-24
-11
-15
-28
-43
-48
-64
-52
-46
-25
-26
-11
-17
-30
-43
-46
-61
-54
-44
-27
-23
-6
-13
-25
-41
-46
-69
-60
-47
-28
-23
-10
-18
-31
-44
-48
-56
-57
-45
-29
-22
-13
-22
-36
-48
-58
-61
-52
-42
-32
-24
-10
-17
-34
-41
-54
-60
-54
-39
-30
-13
-7
-17
-34
-47
-59
-65
-62
-40
-34
-20
-21
-22
-45
-52
-59
-59
-58
-37
-28
-15
-14
-16
-35
-41
-58
-57
-56
-43
-29
-11
-11
-14
-33
-46
-66
-65
-60
-40
-32
-20
-17
-25
-41
-49
-65
-63
-54
-37
-31
-15
-21
-29
-41
-48
-71
-63
-55
-30
-24
-10
-15
-25
-47
-47
-63
-56
-47
-35
-31
-17
-24
-35
-49
-55
-71
-58
-50
-34
-30
-18
-19
-27
-48
-49
-67
-58
-48
-35
-31
-10
-18
-37
-49
-47
-66
-64
-50
-33
-30
-15
-19
-34
-49
-52
-65
-60
-48
-33
-30
-12
-19
-34
-49
-55
-67
-60
-46
-33
-24
-10
-15
-33
-46
-55
-65
-59
-43
-23
-15
-16
-22
-36
-47
-56
-67
-59
-45
-29
-22
-12
-17
-33
-46
-59
-61
-57
-37
-27
-26
-17
-21
-32
-36
-55
-53
-40
-26
-20
-10
-9
-18
-34
-42
-59
-53
-41
-25
-18
-9
-7
-16
-30
-39
-52
-49
-46
-33
-29
-13
-15
-23
-40
-47
-64
-55
-53
-35
-26
-9
-12
-24
-46
-47
-62
-51
-48
-30
-25
-6
-11
-18
-39
-48
-67
-59
-52
-34
-27
-7
-13
-23
-47
-52
-73
-67
-54
-30
-17
5
4
-2
-17
-17
-38
-29
-18
0
-4
-2
-30
-56
-78
-77
-92
-86
-74
-53
-39
-20
-28
-42
-52
-56
-66
-60
-50
-32
-25
-13
-21
-37
-47
-55
-63
-51
-37
-29
-20
-10
-19
-36
-44
-51
-56
-49
-38
-27
-19
-5
-9
-25
-41
-48
-59
-50
-27
-15
-13
-8
-11
-29
-36
-45
-53
-55
-37
-27
-18
-10
-14
-33
-40
-50
-52
-50
-33
-22
-5
-2
-7
-29
-36
-52
-49
-46
-25
-20
-2
1
-5
-26
-36
-48
-45
-38
-15
-16
4
-1
-7
-23
-27
-41
-36
-31
-12
-13
1
7
0
-23
-23
-43
-34
-30
-11
-3
16
12
2
-22
-20
-37
-22
-15
5
7
29
20
11
-4
-7
-19
-13
0
16
21
42
39
29
12
2
-12
-5
11
25
30
44
41
29
16
13
-4
3
17
31
30
45
40
30
14
10
-3
-4
7
20
27
34
25
12
-6
-16
-27
-20
-10
1
7
16
8
-7
-27
-31
-39
-38
-24
-13
-4
8
1
-19
-36
-45
-52
-56
-35
-25
-15
-8
-12
-28
-37
-51
-54
-50
-34
-22
-11
-3
-9
-29
-40
-52
-60
-53
-33
-25
-9
-6
-19
-35
-44
-60
-59
-53
-31
-21
-9
-11
-14
-33
-39
-58
-56
-55
-38
-28
-13
-12
-16
-34
-37
-51
-50
-46
-30
-22
-5
-12
-21
-35
-44
-61
-49
-41
-22
-17
0
-13
-22
-40
-42
-59
-50
-40
-25
-19
2
-8
-24
-42
-46
-65
-56
-43
-21
-18
-6
-19
-25
-43
-41
-61
-58
-48
-28
-18
5
-9
-22
-34
-40
-58
-50
-43
-29
-22
-11
-17
-28
-41
-44
-57
-53
-42
-28
-19
-3
-13
-28
-42
-50
-58
-54
-35
-31
-21
-7
-12
-24
-39
-44
-57
-54
-40
-25
-22
-13
-18
-34
-44
-47
-58
-52
-36
-23
-18
-11
-12
-29
-40
-55
-61
-54
-39
-28
-16
-6
-14
-34
-50
-59
-57
-53
-36
-25
-13
-9
-15
-33
-43
-61
-61
-51
-30
-21
-9
-13
-21
-36
-39
-56
-51
-45
-34
-23
-6
-12
-19
-38
-50
-68
-61
-50
-27
-26
-4
-13
-22
-41
-49
-66
-53
-55
-36
-25
-7
-14
-17
-37
-40
-66
-54
-45
-26
-20
-2
-12
-26
-39
-49
-66
-54
-41
-24
-21
-1
-12
-24
-40
-40
-58
-53
-41
-25
-24
-7
-19
-25
-40
-41
-57
-51
-41
-23
-22
-1
-9
-18
-31
-40
-55
-42
-30
-18
-8
8
0
-12
-32
-42
-53
-47
-31
-18
-12
-5
-10
-21
-39
-45
-58
-52
-40
-26
-19
-5
-10
-25
-37
-46
-56
-51
-38
-25
-15
-4
-5
-28
-43
-54
-60
-51
-35
-25
-20
-13
-19
-31
-42
-57
-57
-53
-32
-24
-5
1
-1
-11
-17
-33
-33
-24
-5
6
17
12
-9
-59
-74
-91
-88
-80
-60
-52
-36
-21
-27
-48
-49
-61
-53
-49
-36
-27
-8
-10
-16
-36
-43
-66
-57
-50
-34
-27
-3
-12
-22
-38
-41
-60
-51
-45
-22
-17
1
-9
-15
-35
-38
-58
-49
-47
-28
-17
-5
-11
-18
-33
-32
-53
-43
-36
-19
-12
4
-5
-15
-34
-43
-53
-43
-34
-13
-12
7
-1
-12
-34
-38
-47
-41
-29
-16
-9
3
0
-17
-32
-37
-50
-45
-23
-4
3
11
0
-18
-31
-35
-41
-34
-20
-10
-4
12
8
-6
-20
-29
-37
-26
-5
4
12
23
16
-2
-12
-18
-25
-20
0
13
21
33
26
5
-2
-7
-11
-4
16
24
43
45
34
20
9
-1
-5
5
28
31
49
51
43
25
18
6
11
13
33
37
52
49
37
21
16
2
5
9
25
32
52
44
36
14
4
-15
-10
-9
4
9
25
18
10
-12
-25
-46
-35
-29
-9
-4
11
6
-3
-23
-31
-57
-47
-43
-30
-22
3
-7
-18
-35
-42
-60
-56
-51
-29
-23
-5
-12
-21
-37
-40
-58
-55
-45
-26
-21
-1
-4
-22
-42
-47
-62
-57
-46
-32
-22
-8
-14
-25
-41
-52
-58
-53
-40
-24
-12
-3
-6
-21
-35
-49
-60
-55
-38
-21
-10
2
-8
-24
-33
-44
-56
-54
-38
-22
-14
-2
-14
-29
-38
-49
-56
-51
-35
-26
-14
-8
-12
-27
-31
-50
-57
-53
-33
-23
-11
-6
-11
-34
-44
-55
-57
-52
-27
-25
-5
-8
-15
-36
-41
-54
-57
-50
-36
-25
-7
-6
-10
-31
-38
-56
-56
-52
-33
-25
-10
-17
-24
-41
-47
-60
-59
-52
-34
-27
-6
-11
-18
-37
-40
-63
-53
-48
-31
-25
-6
-17
-24
-39
-41
-64
-59
-47
-30
-26
-8
-16
-25
-45
-46
-62
-57
-50
-29
-24
-3
-9
-21
-40
-44
-62
-58
-49
-31
-24
-12
-14
-28
-41
-46
-58
-53
-43
-30
-26
-9
-15
-28
-44
-45
-57
-57
-40
-29
-25
-9
-16
-30
-45
-51
-62
-61
-45
-30
-21
-9
-13
-31
-46
-55
-62
-58
-41
-26
-18
-10
-10
-30
-48
-55
-58
-50
-32
-24
-21
-14
-20
-35
-45
-57
-62
-50
-28
-24
-15
-9
-17
-36
-44
-57
-61
-51
-32
-21
-11
-3
-11
-32
-41
-49
-49
-43
-24
-18
-3
-5
-12
-29
-35
-55
-45
-38
-16
-12
2
-4
-18
-42
-48
-66
-58
-54
-35
-23
-11
-12
-24
-37
-40
-58
-50
-51
-33
-24
-5
-13
-21
-36
-44
-61
-53
-47
-34
-29
-11
-16
-27
-46
-48
-64
-57
-46
-30
-24
0
-12
-19
-29
-25
-39
-32
-22
-6
0
16
15
-8
-44
-72
-98
-93
-76
-59
-60
-40
-39
-45
-52
-58
-69
-59
-43
-28
-26
-12
-17
-35
-50
-60
-65
-56
-46
-36
-23
-9
-10
-26
-39
-51
-57
-48
-34
-20
-17
-10
-14
-24
-39
-53
-62
-55
-38
-25
-16
-5
-13
-30
-38
-51
-57
-47
-27
-17
-10
-7
-11
-32
-40
-49
-51
-43
-26
-23
-11
-6
-9
-28
-33
-50
-44
-38
-26
-20
-6
-4
-7
-25
-32
-48
-49
-34
-19
-17
0
1
-6
-23
-31
-52
-38
-31
-14
-6
9
9
7
-11
-18
-44
-37
-30
-12
-9
12
10
7
-15
-15
-31
-20
-13
5
7
28
25
12
-4
-10
-28
-16
1
19
22
39
34
22
7
2
-14
-4
10
29
34
53
47
36
17
12
-8
1
10
31
39
58
52
35
20
17
2
4
12
22
34
39
36
17
2
-4
-19
-17
0
12
20
27
14
-4
-20
-30
-42
-36
-24
-10
0
9
-3
-22
-34
-43
-49
-42
-27
-21
-13
-6
-14
-30
-38
-51
-55
-49
-29
-20
-10
-6
-15
-39
-42
-53
-56
-49
-29
-19
-6
-4
-7
-33
-46
-61
-58
-50
-26
-25
-11
-5
-11
-30
-43
-61
-48
-42
-24
-22
-3
-5
-16
-32
-40
-63
-58
-53
-32
-24
0
-5
-18
-34
-38
-56
-46
-42
-23
-17
-3
-5
-13
-30
-41
-56
-50
-42
-18
-12
1
-2
-15
-37
-41
-57
-44
-38
-26
-28
-7
-15
-27
-45
-46
-59
-49
-41
-23
-18
-2
-11
-22
-36
-42
-62
-50
-33
-21
-17
-2
-11
-25
-38
-46
-62
-56
-38
-25
-20
-4
-5
-22
-35
-45
-58
-54
-41
-27
-15
-5
-9
-23
-39
-47
-54
-50
-33
-15
-16
-3
-5
-22
-38
-44
-52
-55
-35
-27
-16
-8
-15
-34
-44
-49
-58
-54
-31
-24
-16
-6
-12
-29
-42
-58
-55
-48
-29
-19
-5
-7
-9
-29
-39
-55
-56
-47
-30
-20
-5
-7
-14
-34
-44
-52
-48
-43
-29
-16
1
-5
-20
-38
-44
-63
-53
-46
-27
-22
-10
-15
-22
-36
-41
-59
-50
-42
-21
-10
3
-10
-20
-36
-37
-57
-50
-41
-27
-26
-8
-15
-20
-32
-39
-55
-52
-41
-27
-19
-2
-14
-27
-41
-42
-57
-52
-43
-25
-20
-1
-6
-18
-42
-47
-61
-52
-40
-22
-19
-3
-4
-20
-35
-45
-59
-51
-35
-27
-21
-5
-3
-18
-32
-41
-50
-48
-29
-13
-8
1
-5
-18
-35
-40
-46
-41
-26
-9
-6
3
-1
-19
-35
-42
-49
-42
-23
-14
-16
-10
-14
-26
-39
-46
-51
-48
-34
-21
-14
-8
-14
-30
-35
-55
-58
-53
-34
-26
-14
-8
-11
-31
-37
-54
-55
-50
-31
-18
-4
-5
-10
-35
-43
-60
-58
-48
-27
-15
14
14
9
-7
-16
-36
-29
-23
-12
-11
-3
-27
-46
-71
-78
-95
-85
-84
-66
-53
-25
-28
-29
-43
-51
-68
-55
-41
-20
-12
6
-10
-19
-44
-49
-65
-57
-38
-21
-18
1
-3
-18
-36
-37
-57
-50
-38
-23
-20
6
1
-9
-31
-36
-54
-49
-37
-18
-19
-1
0
-13
-26
-33
-52
-47
-30
-15
-11
0
2
-12
-27
-32
-45
-42
-29
-13
-6
2
-1
-14
-24
-34
-41
-34
-19
-3
3
5
-5
-21
-33
-42
-50
-37
-19
-7
-2
9
7
-15
-27
-37
-40
-27
-12
0
10
15
9
-5
-18
-33
-31
-22
-3
5
11
18
13
-2
-8
-21
-22
-13
1
14
28
30
21
6
2
-10
-8
0
21
24
46
38
29
14
8
-7
5
14
31
36
51
51
44
24
15
-1
5
11
35
43
64
50
44
24
13
-6
2
3
19
20
39
33
24
0
-3
-26
-13
-6
10
13
25
17
0
-18
-22
-39
-34
-23
-6
-3
13
4
-12
-30
-34
-50
-44
-35
-18
-12
7
-4
-17
-33
-42
-53
-45
-32
-18
-12
-2
-9
-22
-37
-45
-55
-49
-36
-19
-13
0
-5
-23
-36
-45
-55
-49
-34
-19
-9
3
-4
-20
-36
-45
-52
-42
-25
-12
-6
-1
-8
-19
-25
-44
-51
-54
-30
-18
-5
-1
-8
-31
-38
-51
-51
-48
-27
-21
-9
-2
-8
-30
-35
-46
-46
-41
-27
-19
-5
-6
-16
-30
-37
-54
-56
-49
-29
-16
0
-3
-14
-29
-38
-50
-48
-40
-27
-22
-5
-1
-10
-34
-41
-52
-51
-40
-27
-33
-12
-16
-19
-35
-41
-65
-56
-49
-25
-21
-2
-2
-12
-26
-39
-62
-58
-49
-33
-26
-13
-12
-20
-35
-45
-64
-57
-48
-27
-23
-7
-12
-20
-34
-41
-61
-52
-42
-26
-19
-4
-10
-29
-46
-54
-65
-57
-45
-31
-19
-9
-17
-35
-44
-55
-64
-56
-46
-35
-24
-7
-13
-31
-42
-53
-62
-59
-41
-27
-16
-2
-6
-24
-42
-56
-66
-64
-46
-30
-21
-12
-22
-41
-47
-59
-61
-49
-31
-22
-11
-7
-20
-38
-52
-64
-58
-52
-36
-26
-9
-2
-13
-36
-44
-62
-63
-62
-44
-40
-17
-10
-19
-37
-46
-62
-59
-52
-34
-26
-15
-18
-25
-40
-44
-59
-56
-49
-36
-29
-11
-14
-23
-41
-46
-61
-53
-45
-25
-27
-12
-20
-24
-41
-49
-70
-61
-46
-26
-20
-12
-13
-17
-38
-41
-64
-63
-53
-30
-24
-9
-13
-24
-38
-45
-62
-50
-37
-31
-21
-3
-9
-22
-38
-40
-52
-43
-33
-20
-14
2
-2
-18
-37
-39
-55
-50
-35
-20
-16
-3
-10
-28
-43
-53
-62
-58
-39
-23
-21
-15
-20
-29
-42
-50
-61
-60
-43
-31
-15
-8
-13
-33
-46
-58
-65
-52
-33
-24
-14
-3
-11
-26
-42
-60
-64
-54
-39
-25
-22
-19
-19
-27
-28
-37
-39
-26
-9
2
17
22
13
-13
-29
-61
-77
-84
-65
-57
-46
-39
-51
-61
-60
-78
-74
-59
-37
-33
-11
-11
-25
-43
-49
-64
-59
-52
-38
-29
-9
-15
-18
-36
-41
-58
-48
-39
-25
-22
0
-9
-12
-37
-43
-64
-52
-44
-27
-19
0
-4
-15
-38
-40
-59
-58
-42
-25
-19
-3
-9
-21
-41
-44
-63
-53
-42
-24
-21
-4
-7
-20
-34
-38
-59
-56
-42
-20
-20
