0
-6
-5
-5
13
2
-15
-15
-2
-8
-5
0
-13
-23
-21
-11
-13
-11
-2
-9
-9
-8
-8
-7
-1
13
11
5
-3
5
9
-3
-17
-3
-9
-29
-24
10
-2
-15
-3
-8
-18
-1
4
-9
0
14
3
9
-2
1
-10
-17
-18
-10
-13
-11
-17
-16
-3
-4
-3
8
-3
-13
-16
-14
-17
-1
12
1
-17
-6
3
10
-24
-33
-22
-8
-19
-12
13
11
10
-9
-4
-10
-23
-20
-17
-24
-18
-10
-7
-3
-13
-3
-13
-12
-12
5
1
-11
-17
2
2
-1
-13
-15
-5
6
-8
-16
-5
2
-14
-25
-14
-27
-20
-2
6
-8
-17
-5
-20
-18
7
5
-6
-8
0
-4
-13
-5
-19
-15
-3
-22
-34
-23
-16
-2
-15
2
-10
-20
-6
-2
5
8
1
-3
-14
-7
-6
-22
-16
-8
-3
1
8
10
-7
-19
-14
5
15
5
-6
3
4
4
3
-5
-4
2
2
3
-25
-19
-19
-21
-11
-9
-7
-16
-11
-16
-7
-3
-12
-17
0
-4
-11
-9
-14
0
-11
-16
-12
-19
-10
-16
-15
-18
-23
-32
-39
-53
-49
-43
-51
-29
-24
-20
-4
9
24
45
72
85
82
118
128
112
126
116
107
80
45
9
-22
-44
-54
-42
-39
-35
-25
-33
-37
-11
-8
-16
-15
-13
-8
-28
-11
-6
-20
-40
-52
-23
7
-13
16
1
-7
-10
-15
-19
1
-17
-30
-14
0
-4
-11
-16
-21
-19
-12
-18
-22
-6
-11
-13
5
6
0
2
2
18
18
12
17
-10
-16
-4
-9
-4
-7
8
-11
1
17
-7
-11
-8
-6
3
13
0
3
9
26
27
13
15
16
10
24
19
17
22
25
26
21
11
28
37
37
44
48
55
42
32
62
53
55
42
24
49
58
58
66
69
54
39
38
57
60
57
47
42
27
30
53
47
44
31
36
25
33
30
13
10
11
7
8
0
2
2
11
-3
-9
-5
3
3
-16
-12
-14
-18
-23
-6
-32
-13
6
-11
-17
-12
-22
-38
-28
-6
-12
-25
-5
0
-17
-7
-21
-14
-16
-17
-11
-14
-16
-21
-26
-31
-34
-17
-6
7
2
-13
-3
0
-6
-11
-9
-16
-22
-14
-4
-14
-29
-36
-14
-4
-2
-10
-11
4
-10
-16
1
-4
-30
-37
-26
-5
-6
-1
-14
-21
-8
8
3
-11
-17
-9
-20
-23
4
0
-15
-20
-15
-17
-7
-16
-27
-22
-16
-16
7
-4
-16
-8
-7
-17
-8
9
-2
2
-2
-11
-1
-20
-5
-9
-8
-21
-14
-18
-18
-21
-23
-3
-22
-13
-3
-9
-13
-2
-10
-11
-16
-13
-21
-21
-12
-10
-10
-2
-16
-26
-15
-18
-22
-24
-17
-22
-39
-25
20
12
-20
-24
-17
-25
-27
-13
-21
-14
5
4
-14
-23
-1
-10
-22
-20
4
2
-4
-9
1
-10
-25
-29
-25
-19
-10
-16
-8
-8
-16
-10
-24
-41
-23
-1
-4
-2
-9
-1
-17
-23
-32
-20
-17
-19
-31
14
0
-10
-5
-14
-33
-26
-21
-16
-16
-18
-17
-16
-16
-16
2
-2
-11
5
2
0
4
-6
18
9
-9
-6
-5
-12
-22
-24
-3
4
0
-14
-17
-20
-8
-11
-6
-12
-33
-23
-12
-33
-36
-21
-12
-14
-3
-5
-16
-10
-5
-13
-12
-11
-14
-25
-27
-6
-20
-40
-36
-35
-44
-40
-39
-42
-26
-15
-17
1
32
58
69
61
69
105
115
113
123
110
104
78
46
16
-31
-50
-43
-48
-49
-38
-39
-43
-40
-19
-1
-8
-17
-17
-13
1
-17
-19
-33
-16
-18
-29
-17
5
-3
-3
-15
-5
-14
-12
-32
-20
-10
-14
-7
-3
-13
-20
-25
-9
-14
0
-4
-14
-10
-18
-8
10
-14
-16
6
3
7
14
5
-5
-9
-17
-14
-12
-3
2
2
4
3
-19
-1
17
6
9
-1
-2
17
17
-2
16
13
13
28
21
23
34
34
34
23
23
20
16
9
39
41
38
41
48
47
48
40
26
44
72
53
50
49
60
63
71
73
71
59
54
50
60
68
59
44
49
50
45
44
22
16
29
33
8
18
16
9
7
10
14
10
12
6
5
-17
-7
-6
6
2
1
1
-22
-25
-17
16
-2
1
-8
-5
-6
-14
-28
-13
-7
-20
-15
-5
-1
1
-10
-12
-3
-2
-26
-17
-15
-16
-4
-11
-9
-27
0
0
-9
-17
-27
-6
-20
0
6
-12
-9
-2
-15
-15
-15
-17
-14
-16
-11
-9
4
7
8
-8
-21
-10
-13
-2
-8
-6
-6
2
-12
-4
-18
-4
9
0
-1
4
3
-24
-14
-16
-6
-24
-41
-27
-10
-3
-4
-3
-3
-4
-29
-11
14
-3
-13
4
5
5
-13
4
-8
-10
-19
-4
-1
-16
-5
1
-1
2
-4
-9
-12
-13
-23
-5
-5
-21
-13
-12
-17
-27
-6
-6
-14
-9
5
-25
-30
-12
-10
0
8
0
-11
-5
-11
-15
-22
-11
-6
-14
-4
12
-11
-9
5
-18
-18
-21
-7
3
-20
-15
-9
-1
-20
-8
-15
-16
-18
-3
7
-19
-12
-10
-5
-13
-10
-8
-12
-24
-17
-5
-6
-18
-20
-3
-6
-31
-19
-8
-14
-6
-5
2
11
-6
-16
-23
-21
-14
-13
-10
-2
-13
-29
-36
-4
21
-4
-13
10
8
2
9
9
7
-6
14
6
1
-7
4
-3
-8
-10
-7
-18
-21
-17
-28
-25
-8
-10
-16
-8
-1
-9
-12
-12
11
8
0
0
-20
-18
-24
-21
-33
-19
-10
-5
-20
-18
-3
-33
-11
-3
-29
-35
-32
-24
-27
-27
-29
-31
4
12
15
41
50
57
77
96
101
112
124
120
108
74
39
34
-3
-18
-46
-47
-54
-57
-65
-45
-23
-15
-16
-14
5
1
-3
-2
-12
-24
-10
10
-28
-41
-27
-20
-6
-9
-2
-19
-21
-17
-4
-4
10
5
-9
-11
-4
-3
4
-13
-11
-19
-15
-12
-8
-2
-13
-20
-9
-7
-8
8
0
-11
19
17
6
4
0
-3
2
2
-2
-12
-20
5
5
-2
7
8
7
21
22
13
25
24
13
0
9
17
15
18
10
1
21
23
22
24
27
37
45
55
37
42
39
36
51
58
48
47
54
42
47
48
54
63
60
66
59
44
37
43
58
66
40
46
25
36
56
43
28
26
36
37
31
-5
-1
14
4
13
3
-3
-7
-3
-8
-16
-12
-11
-7
12
-8
-18
-16
-20
-28
-23
-15
-9
-5
-17
-20
-21
-27
-19
-2
-9
-6
-4
-9
-12
-15
-13
-26
-29
-31
-33
-24
-8
-26
-47
-17
-6
-31
-41
-34
-24
-21
-8
-12
-24
-5
-1
-18
-18
-27
-19
-12
-15
-30
-28
-9
-19
-24
-22
-18
-23
-9
-11
-18
-20
-11
-18
-21
-10
-18
-24
-34
-18
-16
-32
-23
-15
-14
-19
-27
-12
-29
-8
-4
-12
-5
-12
-22
-23
-34
-29
-26
-32
-2
-25
-30
-17
-17
-18
-24
-13
-15
-4
-20
-28
-26
-26
-16
-20
-24
-32
-33
-11
-20
-24
-35
-28
-25
-14
-20
-38
-45
-34
-9
-11
-22
-35
-29
-18
5
-15
-15
-16
-25
-30
-27
-38
-21
-27
-31
-39
-23
-23
-21
-3
-13
-22
-5
-29
-40
-43
-13
-7
-23
-24
-33
-38
-28
-26
-47
-45
-18
-1
-22
-33
-27
-24
-28
-27
-27
-30
-16
-13
-21
-22
-19
-26
-15
-28
-42
-29
-22
-21
-20
-23
-14
-34
-23
-19
-28
-33
-22
-18
-3
-13
-24
-21
-15
-10
3
-3
-7
-20
-47
-32
-26
-29
-32
-23
-32
-29
-4
2
-18
-16
-24
-32
-15
-31
-34
-33
-24
-25
-16
-13
-11
-24
-22
-36
-36
-17
-23
-23
-34
-43
-39
-31
-16
-31
-49
-53
-45
-74
-80
-62
-52
-48
-35
-40
2
24
27
43
67
84
86
102
118
116
106
108
74
53
13
-22
-50
-73
-59
-54
-58
-47
-38
-40
-28
-27
-15
-29
-11
-19
-20
-30
-39
-50
-40
-18
-42
-72
-38
-8
-11
-11
-7
-20
-20
-17
-19
-37
-33
-28
-45
-46
-16
-11
-18
-23
-12
-9
-14
0
-12
-26
-15
-16
-29
-19
-22
-45
-23
-12
-22
-24
-21
21
1
-19
-21
-29
-23
-7
-15
-16
-29
-2
-17
-12
-11
-21
-11
-3
-14
18
18
8
4
1
6
9
5
11
17
4
-6
13
24
37
40
23
18
28
20
43
59
56
52
44
32
33
22
19
39
36
40
50
44
55
39
44
35
26
34
29
34
27
6
20
9
16
-6
-4
-7
9
1
-12
-17
-2
-5
-26
-25
-32
-10
1
-29
-26
-18
-20
-31
-14
-7
-24
-43
-37
-15
-24
-26
-33
-22
-13
-36
-38
-23
-14
-33
-43
-55
-36
-35
-35
-28
-27
-37
-24
-40
-31
-15
-26
-22
-16
-25
-45
-49
-40
-12
-25
-45
-31
-22
-14
-13
-25
-29
-15
-20
-22
-8
-23
-30
-19
-13
-32
-21
-29
-28
-21
-20
-38
-43
-29
-26
-52
-47
-13
-21
-22
-20
-32
-15
-21
-31
-36
-54
-11
-6
-20
-28
-26
-15
-17
-16
-23
-26
-15
-28
-29
-23
-18
-17
-16
-26
-27
-33
-24
-17
-24
-31
-26
-24
-13
-14
-17
-29
-33
-36
-23
-28
-39
-39
-29
-29
-37
-50
-28
-11
-24
-30
-28
-31
-31
-43
-61
-51
-28
-15
-25
-17
-29
-15
-12
-17
-20
-8
-24
-31
-20
-26
-28
-29
-24
-20
-25
-18
-27
-25
-7
-21
-24
-27
-31
-47
-43
-42
-21
-17
-20
-30
-26
-21
-12
-26
-28
-33
-47
-39
-40
-33
-30
-29
-28
-32
-16
-24
-43
-20
-17
-15
-16
-25
-19
-14
-17
-19
-25
-13
-7
-11
-18
-13
-28
0
6
0
-18
-19
-9
-18
-30
-31
-33
-29
-31
-34
-11
-28
-28
-28
-28
-24
-26
-45
-26
-9
-22
-47
-28
-34
-31
-37
-32
-43
-38
-23
-24
-45
-30
-15
-23
-30
-16
-36
-38
-45
-53
-61
-57
-40
-25
-20
-29
8
26
40
55
60
72
99
113
124
118
100
95
57
24
-2
-18
-53
-56
-69
-66
-45
-39
-52
-39
-50
-44
-34
-32
-32
-31
-32
-26
-17
-13
-35
-26
-26
-23
-23
-25
-30
-24
-24
-28
-15
-23
-8
-20
-18
-24
-28
-11
-11
-12
-13
-11
-9
-5
-9
-16
-14
-15
-23
-22
-16
-26
-34
-9
1
-20
-9
2
27
-12
-21
-11
-33
-22
-3
-16
-9
-17
-14
-10
23
7
10
8
-4
-5
17
12
-1
10
13
13
21
13
6
25
25
35
28
30
39
37
44
33
39
34
43
39
18
28
42
36
66
47
49
59
51
39
50
49
55
46
40
42
36
56
51
40
38
39
35
6
7
38
11
1
5
-2
-9
4
-1
-11
-11
-19
-26
-9
-4
-4
17
5
-14
-19
-30
-26
-17
-8
-16
-10
-3
-15
-26
-21
-20
-21
-33
-30
-3
-12
-13
0
-14
-27
-27
-31
-19
-33
-33
-3
6
-11
-25
-16
-29
-41
-24
-32
-16
-1
-11
-12
-12
-16
-17
-23
-27
-9
-3
-13
-5
-10
-25
-15
5
-8
-18
-13
-6
-4
-19
-14
-12
-6
-15
-18
-10
-9
-12
-2
-13
-28
-35
-22
-26
-17
0
-10
-4
4
-3
-4
-11
-12
-19
-8
-4
-11
-14
-15
-9
0
-24
-25
-7
-15
-18
-2
-1
-17
-11
-12
-12
-16
-17
-13
-19
-17
-22
-13
-12
-19
-8
-8
-17
-18
-7
-2
-9
-19
-7
-38
-31
0
-2
-15
-8
-9
-4
-17
-31
-15
-24
-6
3
-6
-9
-1
-5
-8
1
-9
-9
-29
-15
-24
-11
-26
-18
0
7
-6
-18
-23
-13
-6
-14
-25
-31
-16
-1
-11
1
3
-12
-10
-15
-25
-29
-20
-6
1
-4
-11
-1
4
-12
-5
1
-8
-2
-1
-6
-13
-10
-10
-17
0
-4
15
31
13
8
19
9
9
7
-8
-20
-27
0
-20
-36
4
8
-21
-11
7
5
-2
-10
-12
-8
-20
-21
-10
-18
-11
7
-14
-22
2
16
2
5
-4
-13
-19
-14
-14
-12
-24
-32
-30
-29
-21
-23
-39
-33
-22
-5
23
26
32
76
62
83
122
127
125
137
121
109
80
73
48
23
-19
-48
-49
-35
-52
-43
-6
-1
-16
-13
0
-6
-11
-6
-15
-14
3
-4
-7
-11
-7
3
7
-5
-33
-24
17
6
4
10
5
-10
-5
2
7
8
6
11
1
-4
-22
-11
8
-12
-28
-12
-14
-14
19
36
24
8
8
10
0
22
8
19
35
31
26
30
22
27
31
28
20
20
40
37
46
48
46
28
54
46
58
55
53
55
59
56
45
47
53
67
67
52
70
71
68
83
66
59
84
92
95
79
74
73
64
61
70
58
41
56
66
54
39
26
37
47
43
37
23
14
27
19
12
20
31
-1
-4
-11
-14
4
18
14
31
1
-4
-7
15
-1
4
-12
-2
2
-4
-12
8
1
9
15
1
3
4
-12
-3
13
5
11
5
2
8
34
16
-10
-3
2
1
0
-4
0
-1
7
-11
-30
-6
8
-2
-11
-18
1
10
4
4
2
7
5
5
18
3
7
-15
-5
9
15
7
16
18
15
6
-4
-2
0
9
3
5
-1
-3
-1
11
9
7
5
3
3
5
8
5
0
-9
-16
-18
-20
-3
6
9
14
-10
6
32
25
19
-6
-8
-8
0
26
10
-6
1
9
3
-3
3
-5
0
15
0
-14
-5
-9
3
7
7
0
6
2
1
6
12
-4
-6
-6
-31
-26
-21
9
30
12
10
10
3
-2
-18
-3
8
-2
9
9
-21
2
11
11
1
11
3
2
10
4
-5
1
7
5
-3
-11
-12
-5
-1
9
11
-2
-3
11
14
-5
-6
-10
-13
-8
-22
2
-3
9
9
-4
-4
2
-1
9
15
20
7
7
22
14
12
9
7
18
21
24
25
20
22
1
10
14
4
-2
2
3
14
11
11
-11
5
7
-3
8
-12
-24
-13
4
11
-5
-4
-7
4
1
11
6
4
20
10
-4
-7
-8
-12
-24
-20
-20
-29
-33
-13
-18
-2
7
17
31
32
38
69
81
86
115
135
134
124
126
134
107
64
28
41
17
-29
-53
-45
-39
-23
-13
-8
-5
-8
-6
9
15
21
2
-5
3
6
-5
-3
-4
-8
-6
8
1
13
7
2
3
26
7
9
3
8
1
1
6
-4
-8
17
-1
6
12
7
14
5
21
32
15
22
25
25
11
5
17
11
4
4
8
8
7
31
19
7
-17
8
25
20
24
14
21
44
40
24
29
56
50
42
33
29
36
46
36
36
40
54
58
48
43
56
56
57
63
60
69
62
53
53
37
37
55
80
60
60
78
76
85
101
83
84
78
66
56
49
48
55
49
42
39
45
56
37
36
39
46
30
34
17
24
34
24
12
15
25
12
6
25
11
4
4
-11
-8
-12
1
13
2
-6
-12
15
9
15
14
13
7
-1
2
16
-3
-20
1
17
2
8
11
6
-2
-9
-3
5
-16
-15
1
8
9
8
6
11
26
16
13
10
6
13
15
6
-2
-20
-19
-25
-8
11
12
15
0
-1
17
19
13
-12
-2
6
6
5
-3
-22
7
29
20
16
11
13
19
14
12
12
-3
-7
-9
14
1
-8
-3
7
23
20
16
1
6
9
6
-5
-8
-28
-9
-28
1
49
13
8
8
4
7
9
12
8
11
11
-13
-2
5
9
13
5
1
-6
3
18
-1
10
4
-1
-13
-7
-3
-6
5
11
2
6
7
4
-2
-12
-9
-20
0
2
4
-25
11
8
-9
14
19
13
16
7
0
4
3
7
19
1
-11
-18
0
7
-1
8
6
5
7
8
5
0
1
0
4
0
-7
-15
5
-6
-7
-8
-9
-10
2
1
0
4
13
-1
1
5
17
-1
-15
-1
4
19
12
15
8
-2
9
8
2
7
14
0
7
23
21
17
10
19
20
9
10
21
7
-12
-5
14
8
16
2
0
2
-6
3
10
-12
-1
4
13
-6
-1
1
-3
-4
-11
-4
6
0
3
-2
5
26
7
-13
4
-17
-19
-27
-11
-13
-19
-12
-10
1
12
19
36
16
70
118
109
118
131
139
129
143
133
95
65
51
3
-25
-40
-40
-33
-30
-7
-5
-17
3
1
-3
4
-3
-12
-5
5
2
-4
-6
22
16
10
5
-3
-6
-16
-10
0
6
24
11
8
-1
8
7
4
16
11
1
-2
-1
10
16
14
3
14
-2
8
9
3
5
24
6
6
14
18
22
20
8
17
27
22
22
21
10
14
12
11
36
29
17
24
21
23
39
43
27
29
35
45
30
25
38
37
46
49
39
44
56
50
44
45
44
66
71
77
71
75
87
73
67
91
88
80
69
55
62
59
70
78
61
65
66
45
45
54
69
59
42
26
41
40
5
18
50
31
20
24
21
29
17
24
29
5
17
26
31
9
15
6
-7
3
4
11
15
12
-7
2
-13
-1
8
-1
-12
5
1
-6
-17
-25
-10
10
-1
-2
-7
-5
-4
10
25
14
4
3
1
-13
-13
-10
3
5
-8
-5
24
9
9
1
-4
-5
-9
6
10
-8
-4
12
18
20
19
15
13
4
-12
6
3
1
-4
-2
23
22
2
2
-7
-3
-8
-11
21
15
11
5
6
6
-5
6
12
8
4
-2
-7
-5
-7
-12
8
16
12
-10
-8
8
20
18
-3
-7
-8
-1
2
-11
9
19
9
12
14
9
5
6
2
9
10
-13
-1
6
-2
-8
-10
-12
-12
-24
-13
6
7
9
-12
6
15
19
11
-15
-7
-6
6
5
12
1
-7
-8
-3
-8
4
-5
-12
-7
7
22
29
8
3
-5
1
1
-12
-7
-13
-2
0
2
-5
-1
1
11
4
4
-8
-3
-6
3
-5
-14
-12
1
5
-8
-16
4
0
1
-4
-8
-18
-7
6
-8
-24
6
17
-3
-16
9
12
11
3
8
5
0
-13
-2
-6
-8
5
6
4
7
10
4
8
18
5
11
7
13
13
14
-2
7
4
13
0
3
13
0
4
4
13
-7
-5
6
-10
-14
-6
-12
-17
3
19
10
3
4
5
1
-16
-31
-16
-5
-11
-24
-1
-14
-27
5
1
-18
-15
-12
-12
-33
-31
-35
-41
-9
8
19
31
41
46
72
86
92
115
125
120
139
147
132
103
76
44
20
-24
-33
-34
-34
-33
-28
-16
-14
-7
-18
-20
-10
-15
-18
-5
1
-4
0
2
-16
-13
5
8
8
5
4
-9
-7
8
-6
2
-1
-3
-14
-5
-13
-9
6
19
23
-5
12
0
-8
0
-2
0
1
13
12
6
-1
4
3
-14
8
18
24
24
1
5
12
2
-8
10
24
15
10
5
9
10
25
20
28
28
20
26
32
34
26
33
30
22
30
47
41
42
38
43
61
47
40
37
58
70
58
64
63
54
50
69
49
58
69
75
60
66
74
61
70
69
55
44
56
58
54
45
37
26
41
25
24
31
26
43
32
27
23
25
19
16
6
4
13
16
1
-1
-6
-10
-19
-6
-2
2
-2
-4
16
1
-13
6
-2
0
9
-4
-10
-16
-12
-9
-31
-27
-19
-16
0
-5
-6
-5
-1
-15
-15
-1
10
2
-4
-5
-1
1
-5
-20
-6
-10
-16
-9
-10
-3
6
11
8
-13
-9
5
5
-17
-21
-10
0
-3
12
-3
-5
0
-8
-13
15
14
21
4
-8
-10
1
1
-10
-11
-7
-8
-17
-5
-4
-11
-25
-28
10
17
3
-9
3
14
-3
3
-2
-8
-10
5
2
0
2
3
0
-14
-9
5
1
-12
2
0
-2
3
-6
-1
0
0
-1
-11
-18
-11
-13
-7
-14
-6
3
-13
-2
-12
-7
5
10
10
15
-5
-18
-21
-20
-16
-27
-15
9
4
0
-9
-10
-7
-2
-2
-10
-3
-5
-1
-1
-9
-23
-12
-9
-3
-8
8
-9
-17
-17
8
12
-10
-9
-17
8
16
-5
-13
-7
-14
-26
-37
5
15
-4
4
-3
-2
-9
-8
-13
-19
-12
-5
-12
-2
-9
-14
-17
3
0
-10
2
-8
-10
-8
3
-2
-2
0
-14
-31
-14
1
11
10
-11
-21
13
7
-9
14
11
4
2
31
21
13
-2
10
4
3
5
-6
-5
0
-3
0
-9
-19
-12
-15
-5
-9
-10
-5
-3
0
-2
-14
-15
-5
-1
5
-5
-21
-26
-15
0
0
-4
-11
0
-23
-18
-8
-14
-41
-39
-13
-35
-15
-31
-28
-19
0
59
74
69
84
102
134
131
138
137
131
104
69
52
32
0
-26
-57
-68
-54
-30
-8
-6
-12
-24
-29
-23
3
-7
-21
-25
-19
-9
19
19
14
3
-8
-23
-16
7
4
1
11
6
-14
-22
-4
11
1
-14
-5
0
-11
-10
11
14
9
7
-6
-3
1
9
3
-6
-17
-2
-5
-23
-12
18
15
11
9
6
13
17
14
7
25
20
4
-1
5
8
9
15
15
5
22
29
31
21
13
26
23
0
25
52
51
37
29
32
47
43
32
46
46
39
65
72
70
64
59
70
64
59
55
67
68
55
56
67
68
68
64
55
51
59
60
56
55
57
61
39
30
21
8
43
35
30
17
15
-7
19
17
7
12
29
18
1
0
3
-15
-14
-4
3
1
6
10
0
-5
-8
6
-3
-13
-15
4
3
-4
-1
5
4
-14
-24
-19
-2
2
-2
-10
-12
4
2
-5
-2
-12
-21
-17
4
-17
0
-2
-4
11
-8
-3
5
-8
2
10
6
-8
-11
-19
-2
0
-14
3
2
2
4
6
2
-30
-12
10
6
1
8
34
-3
1
11
2
5
-4
-24
-24
1
12
9
0
9
2
-7
8
2
1
6
7
-12
-8
-6
-15
-3
-6
-3
6
4
-15
-15
-9
5
2
11
13
10
3
7
6
1
13
-1
-13
-24
4
10
2
8
9
-5
-13
-8
-8
-10
-13
-11
1
6
11
7
-4
4
9
4
-3
-8
-4
2
-12
-17
-28
-3
20
14
3
-9
6
6
8
1
-1
-7
-14
1
5
5
2
-10
5
-16
-38
-5
19
2
-4
-16
-15
-22
-10
5
12
3
-2
9
12
9
9
-3
-16
-20
3
6
-4
7
5
-10
4
15
3
-3
-5
11
8
1
2
-19
-13
-2
-11
-7
-2
-2
17
37
23
15
7
-1
22
19
11
-2
0
11
10
5
31
17
5
11
-5
1
4
0
8
6
8
-4
0
1
-9
2
6
11
4
-2
4
-1
-13
11
7
-13
-12
-4
-9
2
9
1
6
5
-14
-41
-44
-8
-29
-25
-22
-1
13
26
31
45
64
78
85
102
121
136
141
145
134
114
61
44
25
5
-34
-30
-30
-19
-18
-13
-19
-8
-7
-20
-4
-1
-4
-9
-13
-5
19
11
29
16
4
-2
-13
2
-3
14
-4
16
6
0
5
17
15
15
4
-5
-1
9
7
-2
8
14
-7
4
19
9
8
16
15
8
6
19
21
8
15
40
20
7
12
21
8
12
20
25
17
18
20
17
23
33
28
33
43
44
17
35
39
39
22
10
20
40
54
45
40
53
47
45
60
53
57
65
58
55
54
63
50
44
82
91
78
66
76
75
69
86
88
61
65
85
76
84
78
60
59
61
64
60
47
48
38
35
36
27
44
30
28
38
37
36
13
6
-1
-9
-12
-15
12
21
3
-1
10
16
14
13
-8
-5
-6
-2
9
7
10
1
1
7
-3
-12
-9
-5
-14
-15
-3
11
16
5
-2
-4
-2
0
2
26
12
17
8
7
-4
-18
0
9
16
3
-2
-2
8
-6
-11
-4
10
12
9
-2
13
6
8
5
-9
-7
10
4
10
4
11
2
5
-4
2
-13
-20
9
13
11
-4
-7
3
8
20
10
12
-5
6
15
5
-4
1
9
10
5
-9
3
22
6
2
-3
7
-1
-8
-3
7
1
16
12
1
5
1
-2
0
0
-7
-19
0
8
-6
-7
-8
2
16
6
9
-5
-6
6
4
-3
-1
-5
-20
5
-7
-9
-16
-2
23
21
19
10
9
-7
-11
-6
-2
-1
-5
-7
16
7
-1
4
3
9
-8
-10
-14
2
7
-4
-12
4
-4
-11
-15
-6
-20
-7
5
-8
1
10
-5
-2
2
8
-1
15
-2
-5
-18
2
-6
-1
-11
-20
-14
-1
11
10
2
-1
-8
-3
-8
2
2
18
8
-18
0
2
0
29
22
8
15
18
12
5
-4
-9
3
3
14
24
16
1
-7
-8
-4
-5
0
11
6
-2
-2
-24
-1
1
0
-3
-5
-9
1
0
-17
-12
-13
-19
-6
-3
-8
0
-5
3
-4
-32
-46
-30
-16
-27
-22
-15
-8
3
-4
24
57
66
74
75
93
115
137
133
124
131
110
83
57
36
6
-26
-38
-50
-58
-35
-43
-41
-13
-35
-5
-9
9
-14
-20
3
-5
6
-5
-8
4
8
-2
-4
0
-7
-4
-27
-17
-6
8
4
4
1
9
12
-4
-11
18
6
-9
15
11
12
4
-10
-11
25
12
2
10
-1
23
5
0
-8
14
29
3
14
18
-5
19
15
4
11
10
-5
8
7
26
19
16
14
21
48
39
27
32
23
43
37
22
12
26
27
37
12
27
52
48
59
61
58
62
57
60
59
63
58
58
57
62
76
78
62
73
79
74
60
75
51
54
68
62
54
52
42
39
20
13
37
38
40
27
19
45
15
8
33
12
6
0
15
12
-1
7
2
8
4
10
3
-22
-15
6
-7
-7
-13
-12
-7
9
9
3
1
-12
-17
-2
-9
-19
-38
-6
7
-7
1
-4
-9
-21
2
2
-11
6
-2
-7
1
6
6
-8
-15
4
9
-4
-5
-3
-6
0
-12
5
1
-13
17
25
-5
-14
-16
-24
-18
-12
0
3
0
-5
-17
-38
-20
4
1
1
13
6
10
1
2
15
9
4
8
9
0
4
-1
-11
-16
-7
0
4
5
-11
5
9
7
2
-9
-2
-7
-16
-5
-3
-13
-7
-3
-18
-2
-1
-3
3
-12
-9
-15
6
9
0
8
2
-2
-16
-17
-7
-6
-17
-11
-10
4
8
-3
11
12
0
-14
-3
-6
-17
-16
-14
-20
-24
-9
6
-6
-19
-10
8
14
14
-7
-19
-5
11
-11
0
-12
-25
-13
-11
-8
-17
-5
6
-6
-12
-13
0
3
-10
-5
5
16
18
2
-13
-23
-27
-10
-2
-21
-5
-15
-18
-13
-8
-11
-14
1
-8
-16
2
1
-14
-6
7
6
1
4
8
13
4
5
16
17
20
16
15
-9
-5
14
0
2
-10
-2
5
-12
-24
-28
-10
0
-19
-21
1
14
0
-13
-22
-10
13
-4
-5
-13
-16
-27
-19
-18
-24
-22
-26
-14
-8
-5
3
-2
-7
-10
-42
-37
-30
-21
-16
-9
6
18
36
42
70
63
58
62
106
101
130
130
129
113
80
57
21
-16
-42
-58
-47
-45
-32
-31
-26
-21
-29
-14
-10
-3
-20
-16
-14
-13
13
10
-10
-15
-27
-23
-11
-10
-8
-30
-11
4
9
-1
-6
-1
-22
-20
-9
-15
-6
9
2
-13
-15
5
-1
-3
10
3
19
22
11
-4
-2
9
-2
-5
-3
-1
-8
5
1
-1
-3
8
9
-6
-12
-7
4
-2
-2
23
20
9
-11
14
30
14
15
21
35
38
42
39
17
37
20
14
22
45
45
44
49
28
39
73
52
53
45
46
56
48
40
55
79
63
59
76
53
55
53
53
49
61
63
64
43
35
61
56
39
33
32
28
26
14
18
17
16
4
3
1
0
-4
10
-4
10
-1
2
-8
2
-7
-18
-12
-20
-19
-23
-9
-15
2
-22
-23
-10
1
-1
-4
-13
-9
-15
-9
-16
-2
-6
-25
-18
-9
8
-15
-17
-4
-21
3
5
-2
-12
-5
-26
-20
-13
-7
-15
-25
-24
-1
-11
-7
1
-7
-9
-1
1
-12
-2
-2
-16
-20
-24
-14
0
-13
-14
-11
5
-6
-18
-9
4
13
-13
-25
-22
9
26
14
18
-4
1
-10
-13
-9
11
-1
-12
-20
-15
-1
-11
-24
-9
-18
-20
-8
-13
-4
-1
-4
-18
-1
5
-5
-3
-28
-48
-7
10
-4
-12
-4
1
1
6
0
-9
3
2
-6
-1
-15
-11
-19
-17
-5
1
-6
-3
-26
-31
-24
10
-5
11
4
-1
-18
-6
-3
-2
-19
-18
-2
-12
-23
-25
-27
-14
5
-5
-24
-15
6
14
-21
-24
9
1
-13
-10
-2
-24
-20
-8
-10
-3
-8
-13
-1
-13
-2
13
4
-19
-18
-9
-19
-16
-19
-8
6
5
-11
-9
1
-10
7
-7
-16
-22
-12
-6
4
-12
-10
-10
20
8
2
28
27
22
9
10
4
3
5
-12
-4
-12
-22
-24
-40
-25
19
5
9
3
7
-10
-13
-12
-12
-6
-14
-20
-13
-28
4
7
-4
-2
-3
-21
-18
-25
-15
-18
-22
-18
-26
-44
-50
-48
-42
-40
-21
-1
-7
6
51
52
65
87
96
110
117
132
141
136
104
87
47
21
6
-6
-34
-45
-36
-38
-38
-39
-10
-5
-28
-18
-15
-4
-4
-8
-6
-2
-1
-1
3
-2
-7
-10
-13
-16
-26
-30
-21
2
-7
-8
12
-6
-14
-14
9
21
16
-12
-20
-2
27
18
11
8
-1
-19
-45
20
15
0
5
-7
15
13
11
6
3
2
-5
0
27
19
15
7
23
15
22
6
6
26
33
37
29
13
13
13
18
18
16
7
30
69
35
29
55
56
40
44
54
62
52
53
50
78
90
80
59
70
64
65
72
78
75
81
75
75
79
88
78
65
69
63
55
64
59
59
70
54
40
35
45
30
25
38
37
23
30
20
21
20
20
16
2
-10
-3
4
-1
14
-23
23
38
20
0
11
8
14
9
9
6
7
9
9
16
16
-12
-2
-11
-3
13
15
1
14
-2
11
13
-7
-1
18
9
16
6
0
12
12
-3
-35
-5
-9
6
27
8
7
8
9
5
20
21
-1
-1
4
22
36
22
26
3
8
0
-1
2
12
12
8
16
5
6
5
7
22
21
12
21
18
5
19
8
5
-14
-7
7
12
15
11
2
15
13
22
23
3
3
12
13
-20
5
41
14
1
15
13
19
25
-2
-4
16
18
-4
4
-4
-8
10
16
-1
10
2
-4
12
7
13
5
15
9
-2
10
25
14
14
4
7
25
9
3
21
-8
5
0
-5
-2
10
2
18
19
14
7
16
8
2
21
6
0
-1
13
14
10
9
-13
4
19
2
0
8
11
17
27
22
-2
-9
14
-4
-8
-4
7
3
12
12
-10
20
22
-1
-4
21
16
10
-2
18
23
21
23
20
32
37
33
32
31
15
-2
21
22
17
4
25
11
10
23
13
-7
-5
-6
7
17
25
10
-2
9
5
-3
3
-15
-4
10
-7
10
9
12
5
1
7
12
13
9
-3
6
-3
-5
-21
-19
-16
-1
-1
-5
3
30
54
61
53
69
99
113
117
143
122
129
125
118
91
54
42
28
-15
-29
-21
-28
-21
3
-10
0
-24
-13
-12
-9
6
10
1
-4
8
15
15
10
13
2
-1
10
8
1
1
9
10
7
-1
17
17
25
34
12
12
22
25
21
11
23
11
11
17
25
10
13
18
27
18
9
8
28
22
21
15
22
19
-2
7
18
30
16
20
25
26
29
17
16
30
34
38
36
40
47
43
37
40
43
39
37
44
37
41
75
57
50
57
65
69
62
61
72
64
73
75
77
82
70
75
80
80
85
85
67
77
82
76
56
44
71
74
82
63
56
55
66
55
36
36
50
44
45
39
26
17
42
38
17
18
15
9
28
16
5
30
21
5
7
27
23
16
10
8
5
-1
7
9
-1
12
10
14
1
-6
0
2
12
1
6
12
6
32
7
-13
-7
7
-2
-13
-10
5
3
1
15
21
13
8
7
1
-2
16
5
8
11
3
2
5
10
-6
0
22
12
12
26
19
32
14
6
1
9
14
2
9
-6
-1
20
12
-3
-10
8
32
17
17
16
7
-3
7
-11
-14
3
13
18
10
23
4
-14
4
5
3
5
7
5
12
14
22
-3
3
17
0
-3
-6
26
40
18
7
2
-6
4
4
12
4
-1
-7
2
10
12
6
-17
2
3
12
15
9
1
2
4
12
10
6
18
21
8
6
7
12
5
0
-16
-20
-18
-2
-6
12
30
10
12
11
9
3
18
11
14
17
0
1
-5
-20
-2
8
13
5
10
-1
2
-4
5
10
10
8
4
-1
-9
-11
5
3
-1
-5
-18
9
34
26
15
5
15
21
18
13
15
17
33
11
21
14
4
16
23
17
23
7
-3
-9
-22
-13
8
19
14
40
18
10
11
9
3
11
-1
0
-3
-33
-14
-10
13
11
12
-3
-7
2
-6
4
3
8
3
-7
-14
-16
-14
-21
-18
-21
-12
16
22
32
64
79
83
87
86
111
133
147
141
143
121
101
60
37
15
-33
-52
-45
-51
-34
-15
-1
-23
-4
9
-1
11
10
19
15
10
12
5
5
1
-5
1
3
-2
5
15
26
-2
0
4
3
-13
4
-4
-13
11
20
2
16
10
12
12
28
12
6
5
-9
0
7
7
9
11
-3
12
41
30
32
3
3
6
14
12
-6
6
8
24
25
25
29
22
16
11
12
27
28
26
33
35
33
30
39
34
44
43
52
45
28
40
35
52
63
58
61
51
57
59
63
75
65
78
75
62
73
66
65
87
90
71
63
56
46
46
55
66
51
50
35
55
67
40
46
38
37
32
30
19
16
18
20
-8
-15
20
31
29
3
-2
12
12
8
3
12
21
6
1
-10
0
7
-3
-19
-18
-13
4
4
-2
-15
-30
4
8
-19
-14
22
18
10
-5
-2
0
2
4
-1
-7
7
3
0
-2
2
2
-7
-10
5
0
-10
-10
12
0
-4
-1
-7
6
0
-4
9
9
-2
2
-7
-7
1
2
4
0
-4
-9
-10
0
-14
-4
14
31
-3
13
13
17
3
-3
1
11
1
7
9
18
8
14
4
4
7
-11
-10
-6
-20
-15
-2
0
-3
2
18
13
-6
-3
17
3
-8
3
-4
3
14
20
-5
-20
-20
-26
4
14
-4
3
0
-4
2
10
12
-2
-3
-5
10
-2
5
9
-18
-16
6
6
11
-1
3
-6
-9
-2
-2
-2
-7
1
-3
1
3
13
12
-2
10
8
-6
-38
-26
7
2
6
-5
-14
10
8
-6
-9
6
17
8
-9
-4
-1
-4
-4
-7
16
6
0
-15
18
-2
-9
2
3
-3
-11
11
5
-7
9
19
1
9
19
19
20
9
10
15
-2
-13
0
14
-3
11
17
15
0
-5
2
8
6
0
5
3
-11
3
8
18
17
-1
-9
-13
-23
-20
3
0
-17
-10
-1
-21
-9
8
-9
-10
-10
-8
-18
-5
-20
-22
-36
-35
-29
11
14
20
28
46
52
75
88
110
120
126
157
156
138
124
109
74
25
-30
-67
-72
-36
-33
-40
-33
-50
-20
-15
-10
15
4
19
8
9
-6
-13
-6
-8
4
-13
-6
3
0
-4
2
7
5
-10
1
1
-14
-6
27
21
15
12
24
9
1
-1
2
-6
-5
-5
1
6
10
16
1
5
16
9
7
17
2
0
4
8
6
2
2
-13
-12
-11
-1
20
37
38
24
38
27
34
31
39
26
20
10
18
35
32
48
54
55
47
40
28
52
53
43
40
51
54
40
54
48
42
60
54
60
72
66
64
63
57
55
59
66
71
83
74
72
70
66
75
78
48
19
51
43
21
29
33
29
37
35
41
21
24
22
4
9
14
13
22
18
-3
-14
-4
-8
-4
-7
1
2
-2
11
4
-16
1
12
15
2
14
-5
-8
3
10
6
4
-2
-1
-18
12
-1
-11
-7
15
6
-4
5
-2
9
6
16
8
-7
2
17
25
20
-13
11
2
-10
3
-1
3
7
13
8
1
10
10
-18
-5
-2
14
18
14
4
-3
19
23
22
-14
-5
21
27
21
5
-8
16
18
-4
-3
8
0
19
18
11
34
28
6
16
-4
-13
1
11
13
0
0
2
17
22
0
9
5
-2
11
-3
-10
20
24
15
17
19
4
2
23
15
-7
-7
11
8
-2
-3
0
20
20
9
12
5
5
-20
14
18
31
10
12
3
-8
10
9
22
7
-6
8
10
4
15
5
-5
2
16
14
6
0
3
4
0
-1
18
15
17
12
12
16
7
17
13
11
9
-2
3
10
-4
-12
-1
15
-4
-14
18
31
22
29
19
5
-1
-4
-7
-7
-6
32
25
12
5
-3
0
28
7
8
34
13
17
29
27
44
32
15
19
9
14
8
8
-7
0
4
9
14
1
11
-1
3
8
27
16
13
12
10
3
8
-10
4
-5
-2
1
15
3
-2
-11
10
18
7
0
-7
-13
-19
-28
-23
-21
-21
-4
0
16
35
57
58
70
86
112
113
135
115
114
135
130
106
75
16
0
15
-16
-28
-20
-19
-19
-13
-10
-4
2
11
-4
-6
-1
9
16
23
10
5
0
15
11
1
4
23
10
20
13
13
20
20
6
4
-20
-39
14
25
-9
-23
7
33
25
23
31
38
31
16
17
8
19
23
21
15
-6
2
19
3
-7
4
25
38
24
38
41
35
38
19
20
5
-1
21
34
18
22
28
23
30
38
24
44
43
46
60
52
45
46
51
55
49
48
53
55
59
72
64
64
71
74
76
92
70
67
73
74
66
92
94
91
82
75
70
73
67
68
58
58
59
59
60
45
57
59
50
34
44
37
18
13
3
10
14
27
18
28
31
19
13
-3
1
1
2
15
3
-15
1
26
18
38
12
21
-6
-10
-15
-12
-11
12
25
7
10
16
19
15
1
4
1
2
-9
-10
4
18
14
5
-1
-13
-7
1
16
10
9
9
-4
4
20
23
17
7
-7
-10
-8
2
1
5
29
10
4
16
4
1
-9
1
28
18
10
14
-4
6
5
-13
-10
26
9
15
0
4
10
9
6
-2
-1
14
8
7
-8
8
22
26
7
-1
14
10
16
8
-2
9
11
9
18
17
-3
2
5
-3
12
15
10
30
3
-20
5
-4
-7
-15
-17
-5
16
10
8
-1
-2
9
9
4
11
-12
10
19
10
-2
11
10
-1
5
4
-1
8
0
7
2
4
3
-10
1
0
-7
14
13
10
-2
3
-10
-13
1
14
3
4
22
-4
-1
-2
5
-12
-5
-3
-23
-18
6
2
-1
11
9
8
7
-14
-11
-5
0
3
-15
-18
6
-7
-3
-1
1
5
9
10
13
-1
-2
2
14
4
12
2
8
-2
10
23
19
10
20
6
12
18
6
12
24
12
11
7
-3
-8
-3
-11
5
-2
-3
-21
-27
-6
-7
-11
3
3
1
0
-7
-12
-10
10
9
5
10
12
5
-9
-18
-2
-9
-8
3
-12
-17
-27
-38
-36
-35
-19
-7
-5
5
18
34
56
41
50
82
108
128
132
133
147
157
121
73
51
21
6
-25
-38
-58
-44
-30
-38
-25
1
3
2
7
-1
5
-2
-12
-5
-9
-15
-7
-5
5
0
-14
-15
-15
2
-3
0
-18
-14
3
-12
-1
30
12
21
8
8
9
8
6
4
-2
-7
-4
5
7
9
4
5
7
-1
-3
3
15
18
-1
6
-11
2
25
7
4
-8
-8
-8
10
6
15
3
20
54
37
20
30
36
21
20
21
29
32
37
38
30
31
39
31
32
36
43
50
53
42
50
57
47
41
69
60
60
64
46
33
57
72
76
59
63
62
74
88
76
62
61
54
54
51
55
43
29
25
2
-16
18
24
29
26
30
35
27
18
7
3
-1
10
0
-6
-8
-8
-11
-11
9
-9
-10
-12
-9
-25
-33
-12
-4
-11
-10
-20
-19
3
2
-12
-5
-4
8
-4
4
-3
-4
-9
-19
-16
-3
-3
-28
-22
-16
-1
-8
-22
-20
-19
-1
-2
-9
8
1
1
19
6
0
2
-18
-5
-15
-10
-7
-3
-37
-39
-26
-9
4
1
6
16
13
8
13
20
0
-5
-12
-15
-15
-8
-17
-23
-24
-12
-23
-9
-9
-1
3
2
-15
4
9
5
2
-6
-3
-36
-30
20
15
-11
-10
-4
0
-2
-8
-14
-12
-5
-4
10
4
-5
-10
-4
-1
-8
-18
-15
-20
-29
-29
-12
-20
-12
-5
-20
-12
-6
-10
-15
-2
3
6
-15
-7
-13
-42
-35
-6
-9
-6
-6
-15
-10
4
-2
-8
0
-5
15
8
-1
-5
-11
1
-12
-28
-17
-25
-29
-23
-26
-27
-19
-11
-18
-7
-10
-5
-5
-20
-13
-14
-22
-12
7
-6
-15
-13
-8
-5
-2
-12
-25
-18
-2
-16
-26
-16
-1
-22
-24
-21
-2
-10
1
-6
-15
-4
26
23
10
-6
-26
-24
-9
1
-23
-29
-6
-6
-10
-11
-3
-5
10
10
2
1
7
5
1
-12
-10
-18
-22
-1
-10
-12
-22
-18
-3
1
9
-14
-18
-12
-2
1
-15
-22
-30
-13
-11
-4
-19
-20
-8
10
-7
-18
-16
-2
-4
-19
-11
-17
-40
-38
-13
-40
-33
-40
-46
-25
-29
-19
-2
13
29
53
70
69
87
116
106
125
136
138
110
68
27
28
-12
-29
-52
-42
-43
-51
-36
-18
-24
-4
1
-6
-27
-14
-12
-17
-17
-10
-5
0
1
-9
-2
-9
-7
-4
-8
-1
-21
-19
-16
9
-8
-1
-3
-7
-31
-16
1
-5
4
-5
-5
-1
-11
-4
-7
-10
-1
-4
-17
-3
-12
-12
8
1
-3
-15
-4
-1
3
-14
2
17
7
-4
1
17
25
13
3
8
8
10
16
26
22
1
-1
39
46
33
25
19
26
38
32
28
28
44
39
49
56
34
35
39
41
42
47
63
52
44
65
56
60
53
62
63
66
80
73
68
62
53
50
44
56
56
45
45
39
41
31
27
32
24
23
13
9
16
14
17
14
-4
-10
8
-5
-6
9
-1
-4
-9
5
-15
-19
-9
-33
-3
10
-3
-12
-12
-4
2
-5
-22
-30
-27
-5
2
-12
-9
0
0
2
-3
-1
-5
-4
-4
-2
4
-14
-4
-4
-15
-11
-7
-10
-1
-4
-4
-11
-17
-8
2
0
-23
-11
-17
-35
-24
-7
11
-1
7
-10
7
4
3
2
-7
1
-6
-12
-12
6
10
13
2
0
-6
-7
-5
-7
-13
10
10
-3
3
9
1
-5
-27
-5
-1
-16
-5
-3
1
-16
-9
-5
2
9
0
-6
-8
-4
1
15
-1
-11
-18
-11
8
17
8
8
-5
-2
7
6
-15
-13
-4
-3
-7
-11
2
-9
-7
-10
-12
5
0
-3
12
-13
-9
6
-2
0
-3
-7
-7
-9
-17
-12
3
0
-1
1
6
-8
-13
-1
-3
-15
-29
-7
2
-5
4
-18
-13
-3
2
-7
-13
-12
-9
-12
-9
-1
6
-2
3
3
19
11
6
-15
-2
2
-5
-7
-11
-10
-8
-8
-4
-3
-1
-10
-24
-9
-5
1
-1
13
8
-3
-17
0
-8
-17
-8
5
4
-13
-35
-10
13
15
1
16
1
6
-1
20
33
21
12
11
22
7
-19
-12
-9
2
5
2
0
3
2
-2
-13
-22
-9
6
-7
-4
-1
8
-10
-16
-8
-7
-4
-8
-9
-15
3
14
4
-13
-18
-32
-30
-8
-10
-6
-19
-22
-17
-24
-19
-7
-2
-4
21
54
55
86
89
87
79
108
132
134
139
101
74
45
15
-4
-20
-38
-39
-32
-36
-38
-18
-7
-12
-14
-21
-13
1
1
-6
11
3
-14
-14
-6
3
19
9
-4
-3
-7
-14
-5
14
7
17
11
4
-15
-18
5
-3
3
-4
10
17
9
-18
9
5
9
8
6
13
17
3
1
2
17
11
6
7
3
-13
22
23
20
7
8
5
4
9
15
38
36
46
25
13
15
23
26
24
21
35
21
25
36
30
35
29
41
33
46
59
54
43
42
53
48
44
50
63
71
67
73
69
75
73
64
64
67
53
55
67
68
63
67
61
53
69
57
58
53
43
27
33
27
25
12
6
31
21
15
39
26
5
14
19
7
13
25
21
1
4
2
-9
-17
-5
0
-12
-8
8
10
-7
-10
-7
-1
9
-11
-22
-22
-17
-19
6
-3
8
-7
3
-5
-13
-15
-20
-11
-12
-17
-12
-5
4
-15
-6
-8
-14
-6
-11
-4
6
0
-5
10
-4
-6
4
-1
2
6
-7
7
12
-1
-12
-10
-10
-8
-5
-6
-8
-9
-10
-3
-1
-3
-11
-8
4
-3
8
-5
2
-3
3
-7
-23
-10
1
11
3
-1
-8
-16
-13
-8
7
7
4
0
3
-3
-15
5
6
-5
-11
-11
1
-4
-8
0
-3
-13
-10
10
-7
-27
-23
-18
4
3
-1
-8
-20
0
1
-9
-6
9
0
-9
-12
-10
-15
3
0
-2
-1
3
-4
-2
-2
-27
-2
6
-5
-8
-10
-11
-18
-12
-7
-14
-12
3
-5
-15
-9
-9
-18
-1
5
-1
-25
-28
-4
-3
-6
0
-22
-8
-12
-3
-14
-14
-11
2
-11
-30
-26
5
-13
-12
-8
-9
-9
-17
-24
-16
-23
2
9
4
6
7
-15
-5
-21
-10
-14
-14
-19
-23
-15
-1
-8
-12
-2
5
13
1
-2
3
6
1
2
-7
19
3
4
12
-15
-7
-16
-19
4
15
2
-9
-5
-6
-14
-23
-18
-12
-11
-10
12
2
-25
-17
-21
-18
-27
-19
-11
0
-2
-11
-7
-14
-12
-7
0
-1
-13
-5
-10
-19
-28
-17
-57
-69
-40
-25
-41
-25
25
33
36
44
57
64
92
101
131
141
142
137
111
66
56
38
21
-30
-33
-52
-43
-46
-46
-33
-25
-16
-15
-22
-17
-19
-29
-26
-16
-22
-19
-1
-16
-9
-14
-11
-5
-4
0
-10
-6
-9
-18
-6
-12
-16
-22
13
13
4
-7
-16
-28
-16
16
13
-4
-14
-3
-2
3
-4
-21
-8
17
-2
-9
-9
-4
13
14
-11
-8
-18
1
0
-8
9
-6
-5
22
19
3
3
27
18
5
-3
18
16
8
-2
27
32
30
12
-6
17
21
34
33
42
31
35
43
56
61
53
51
58
53
52
47
58
54
55
56
50
42
54
50
58
74
64
57
59
58
63
45
38
35
38
37
8
7
24
13
23
13
6
7
-3
-2
10
19
3
-16
-1
0
-2
-4
-10
-6
-1
-9
-8
-22
-12
-24
-8
-16
-9
-19
-17
-9
-10
-5
-26
-17
-8
-13
-16
-22
-10
-26
-29
-29
-10
-6
-22
-16
-6
-20
-20
-4
-9
-20
-11
-7
-6
-2
-9
-35
-28
8
-17
-19
-1
-14
-27
-11
-23
-11
-29
-10
7
12
15
-9
-11
-17
-9
-16
-20
-16
-23
-27
-36
-31
-28
-10
-16
-18
-9
-9
-25
1
3
-3
10
-2
-9
5
2
-2
-3
1
-13
-26
-20
-26
-24
-27
-18
-12
-6
15
-8
-8
-18
-36
-24
-5
-3
-4
-20
-7
-12
-16
-28
-23
-25
-24
-6
-6
-13
-16
-14
-11
-1
-39
-33
-13
-19
-28
-17
1
0
-2
-4
-3
-8
-8
-1
-1
-16
-13
-11
-22
-28
-23
-22
-34
-26
-5
-14
-19
-51
-11
4
-24
-19
-14
-22
-14
-15
-3
-2
-13
-17
-19
-28
-20
-9
-20
-22
-30
-13
-9
-16
-23
-13
-13
-33
-14
-13
-13
-33
-36
-8
8
-3
-4
-22
-25
-8
-10
-27
-28
-21
-13
-6
0
-16
-25
-14
-4
-23
-24
-32
-19
-7
-12
-17
-3
-3
-5
-17
-23
-5
2
4
11
2
3
2
-6
0
-4
-25
-29
-15
-5
-10
-20
-41
-37
-8
-4
-11
-23
-14
-4
-2
-24
-16
-5
-32
-19
-9
-24
-32
-35
-28
-16
-3
-12
-18
-26
-17
-11
-9
-20
-30
-50
-48
-40
-49
-37
-31
-43
-23
-16
-2
12
37
52
59
78
93
104
119
110
110
103
99
62
34
12
-11
-47
-59
-67
-62
-48
-33
-31
-29
-18
-16
-8
-18
-13
-13
-20
-17
-16
-24
-15
-28
-12
-26
-15
-6
-12
-4
-11
-23
-20
-23
-16
-5
-13
-14
-13
-12
-12
-20
-16
-25
-18
-16
-13
-9
-15
-34
-21
2
-6
-13
-10
-7
-13
7
-9
-8
-5
-15
-16
-8
5
10
13
3
10
8
3
-3
-9
-9
-5
18
10
13
6
12
2
-1
-1
11
19
25
20
24
16
37
29
26
34
27
32
43
50
33
34
36
41
41
44
48
28
43
51
56
53
44
37
51
52
50
45
48
64
59
39
49
46
43
35
4
24
34
38
22
19
30
20
10
4
1
10
-12
-9
-13
-9
-16
-9
-8
-18
-25
-10
-10
-18
-23
-16
-13
-20
-26
-30
-23
-5
1
-22
-18
-17
-28
-23
-13
-18
-25
-37
-40
-38
-8
1
-10
-13
-19
-15
-2
-17
-18
-21
-27
-29
-21
-8
-12
7
-15
-5
-13
-15
-17
-9
-5
-7
-26
-20
-27
-15
-12
-17
-7
4
-11
-13
-14
-13
-10
-18
-30
-7
-11
-15
-27
-23
-20
-48
-37
8
1
-18
-17
-11
-10
-22
-21
-23
-5
-8
-19
-12
-3
6
-10
-10
-16
-13
-8
-10
13
6
4
-8
-27
-22
-13
-36
-34
-11
-25
-21
-15
-28
-22
-4
-1
-5
-12
-14
-22
-27
-21
-29
-13
-9
-18
-17
-22
-13
-4
-21
-16
-15
-26
-8
-11
-22
-7
-17
-18
-4
-12
-19
-18
-6
-15
-21
-18
-14
-16
-15
-14
-22
-31
-24
-6
-15
0
-17
-16
-15
-16
-25
-24
-11
4
-15
-23
-16
-22
-20
-15
-21
-23
-16
-20
-20
-14
-24
-6
-10
-5
-2
-21
-23
-7
-8
-15
-24
-23
-15
-17
-14
-9
-19
-7
5
3
-7
-17
-18
2
-11
-7
-3
11
-7
-9
2
-9
-8
4
-3
3
-9
-10
1
0
-12
-20
-17
-6
8
-1
-10
-8
-24
-24
-22
-14
-17
-11
0
-12
-23
-11
-10
2
-1
-18
-25
-26
-6
-5
-8
-20
-30
-17
0
-12
-11
-27
-33
-23
-37
-55
-41
-42
-60
-29
-20
-24
3
25
26
33
46
36
54
105
128
130
127
116
98
79
69
40
13
-16
-60
-65
-52
-47
-20
-29
-29
-29
-27
-11
-9
-7
-14
-13
-22
-38
-26
-16
-27
-1
-3
-13
-20
-20
-15
-32
-12
11
-6
-6
-6
0
-11
-14
-4
-2
-12
-9
-5
-15
-16
-4
-7
-12
-7
-10
-12
-5
-12
-18
-4
0
1
4
-3
-11
-2
-4
9
8
7
-13
-17
-3
-18
-3
33
14
11
5
4
1
11
10
19
13
-3
13
25
9
6
5
10
41
36
34
22
39
35
51
56
51
49
34
32
40
46
54
64
56
51
61
79
71
65
74
67
65
85
90
67
55
58
48
34
53
47
46
37
24
27
33
28
17
17
10
20
23
5
6
15
1
4
4
3
-2
-11
-29
1
13
-1
-4
-3
-19
-12
-5
-9
-7
-10
0
-2
-1
-2
-8
-7
-6
-21
-6
-3
-20
-11
-1
-8
-4
-4
-30
-13
-2
-6
3
-2
-4
-7
-4
11
-16
-24
-35
-27
-26
-12
3
-3
-15
-5
14
13
18
5
-10
-6
-12
-7
-7
-5
-1
-4
-34
-23
0
-25
-4
20
10
-8
-15
-23
-8
-14
3
9
25
14
0
-14
3
-1
-2
-5
-5
-3
-12
-30
-6
3
-2
5
12
-4
-8
-11
-14
-10
-10
-10
-2
-1
-3
2
7
-8
-20
-11
-25
-15
21
11
-7
-2
-2
-20
-15
-13
-23
-5
-8
-8
-1
8
-8
-9
9
4
-8
-5
11
-6
-3
-2
-6
-10
0
1
14
7
1
2
5
-8
-3
-10
-7
-15
-35
-6
-2
-6
-7
-20
-9
-3
-8
2
2
6
10
-11
-15
4
0
-10
-18
-7
-3
-4
0
6
3
7
-7
-24
-12
-9
-20
5
0
1
-5
1
9
-2
-5
-4
-16
7
-6
-2
-3
-17
-18
3
14
18
12
7
4
-5
9
19
18
15
-5
1
18
3
11
12
8
1
-5
0
8
-15
-11
5
11
-2
-2
6
-26
-15
4
-3
-1
-4
-16
5
1
-6
-1
-15
-14
-8
-3
2
-6
-16
-24
-17
3
-1
7
-16
-34
-43
-36
-20
-23
-10
14
39
37
56
70
77
99
118
124
129
112
124
117
80
61
33
2
-28
-36
-59
-38
-22
-27
-30
-16
-13
-19
-11
2
-5
-10
-6
-13
-17
-5
11
-7
