1
13
4
11
19
9
6
23
13
13
10
14
-1
17
59
-4
20
19
12
13
6
-14
-6
-1
12
1
26
8
-5
19
13
23
42
22
23
3
24
17
18
17
6
10
18
20
1
12
8
6
14
15
1
-4
-17
-5
-3
38
28
17
6
35
32
-4
12
5
35
4
6
41
3
11
4
5
12
30
38
33
44
31
-33
5
9
-7
12
22
13
18
11
16
11
22
11
4
37
39
23
6
5
6
9
38
-12
15
35
31
-3
24
45
22
25
28
-3
11
31
28
26
16
10
7
1
-15
-4
10
36
36
2
30
19
6
-7
11
17
-17
-3
47
47
21
38
19
0
4
22
4
12
-3
10
18
31
39
22
14
6
8
2
33
-4
4
11
3
-11
14
16
12
44
42
51
81
102
146
106
128
156
141
140
119
95
92
66
30
32
39
28
17
19
41
25
29
22
27
7
-15
0
36
31
11
37
20
17
22
23
28
13
7
4
17
14
0
15
34
9
49
31
12
-11
18
8
14
21
10
15
12
13
21
22
17
20
4
12
21
31
41
27
25
14
-15
24
27
20
44
46
0
6
26
26
25
23
51
55
41
37
28
55
27
43
23
24
11
34
41
58
37
46
29
34
23
28
37
18
49
40
32
72
81
76
57
51
36
50
51
72
82
58
52
68
29
65
51
93
87
65
91
57
41
49
37
70
85
50
61
30
16
46
45
37
34
30
50
33
11
25
40
29
33
17
42
38
14
4
20
0
38
27
22
19
11
31
17
13
37
24
23
3
24
-8
6
4
12
18
7
16
17
10
9
-8
13
0
10
1
6
0
3
13
5
-11
23
14
17
10
7
-2
-3
31
31
26
7
29
20
45
18
-12
5
33
1
-1
11
-5
1
38
6
25
28
5
0
7
-10
-9
20
5
-17
-2
5
20
5
25
23
3
13
36
30
6
2
13
-4
15
22
26
-5
4
3
13
33
22
5
5
-8
11
15
10
10
0
11
1
0
-5
15
17
1
25
19
8
6
11
26
-8
8
21
4
11
6
6
19
34
22
16
28
2
5
15
27
22
18
21
28
5
-19
11
14
25
28
23
8
23
14
-2
11
-6
-9
-10
21
2
0
-1
20
8
15
20
5
8
1
10
-6
-3
-2
10
2
-26
4
14
17
0
5
30
7
8
0
9
6
-1
-8
-3
-5
5
-27
-25
2
28
18
3
7
9
37
58
60
70
91
100
107
136
151
135
114
105
91
68
65
54
26
-1
8
4
5
34
35
31
14
5
24
27
6
-10
8
17
21
19
14
1
1
12
-3
-18
6
19
15
32
28
7
10
8
-4
-4
12
36
0
-1
8
29
7
4
-18
6
1
-5
3
5
25
35
18
19
29
8
42
33
25
26
2
-3
21
24
1
16
37
28
10
21
24
21
6
25
26
4
38
27
15
45
65
22
28
-2
-17
17
56
56
63
35
32
21
45
59
45
47
48
33
30
39
55
61
49
65
71
69
67
46
48
45
42
34
37
50
73
65
60
34
53
60
66
49
50
52
32
43
24
33
23
35
51
29
25
19
44
25
30
10
24
9
-5
2
24
24
0
4
-18
-4
25
9
20
4
-12
-11
10
-6
4
8
7
11
21
45
11
3
-9
10
-10
-20
9
26
18
10
-4
20
-3
-1
22
10
-9
19
11
14
4
14
13
-9
5
-22
4
25
9
21
27
5
22
6
-3
0
5
14
4
-15
0
16
22
12
-32
27
9
-9
-3
9
21
39
20
8
29
9
22
14
-2
13
-17
-1
26
32
-21
-17
11
-11
13
37
5
-5
0
13
8
-19
-12
-10
-6
22
10
26
26
21
21
-4
-9
3
9
20
15
-22
-4
-10
14
8
38
13
7
13
12
13
2
9
25
2
-9
-11
19
20
16
-3
-2
7
-23
-1
-8
-8
20
8
46
16
13
12
14
19
10
0
19
-5
32
11
12
9
8
16
22
-7
15
15
16
9
1
-18
-40
-4
5
-16
-3
24
30
17
9
16
9
-4
4
0
20
18
38
10
19
10
-14
9
21
3
11
-5
-11
-17
16
13
6
5
1
-2
7
3
19
10
5
30
45
28
37
92
88
91
133
121
139
132
174
171
118
110
89
47
61
53
3
10
12
19
19
45
22
20
2
8
37
27
-11
23
19
-1
9
10
4
22
8
12
14
26
-3
-5
5
-3
-14
4
0
20
25
-17
7
20
27
4
13
7
28
4
12
27
13
21
16
19
8
3
33
7
-14
6
20
-7
-4
3
0
27
41
32
30
23
0
-13
23
18
25
-1
19
35
12
29
32
34
11
29
31
24
33
50
20
32
23
5
5
31
54
74
45
36
45
57
54
48
46
44
19
31
49
26
25
49
74
78
54
58
56
63
30
28
52
58
57
27
34
75
57
34
46
54
20
26
29
8
23
43
-5
17
26
20
5
24
37
-23
-18
24
0
16
39
1
6
30
23
18
20
7
-7
1
15
13
28
-13
7
9
-1
-5
-20
-4
12
3
34
-16
2
-4
27
8
0
7
1
-12
13
11
0
-10
20
6
2
9
1
-15
13
7
28
-18
18
10
-4
1
8
8
5
-7
-6
23
24
18
28
16
-22
-14
8
31
0
-3
13
-23
12
-8
4
28
-15
5
-3
-13
2
-21
6
14
-5
-1
6
-10
7
5
11
9
-13
-11
9
4
-6
8
17
3
-1
16
12
20
12
17
-6
11
-1
15
-3
-18
18
-2
11
7
-13
-13
-13
11
10
-15
8
13
-22
-11
-4
-21
-36
-33
0
-9
-9
39
15
3
16
-11
-15
-11
-17
11
24
17
-10
-15
15
2
26
8
13
-7
7
14
14
-2
4
8
4
4
-8
-13
25
14
3
6
15
-1
14
15
9
12
6
16
-7
-6
-6
-3
-36
-2
-5
5
-23
2
-23
4
-3
-2
-9
-17
-39
-25
5
23
-1
-12
-22
-15
-3
-13
-6
-18
-39
-32
-10
18
5
-3
-10
-1
1
-23
-17
4
-1
-3
-11
13
19
-6
17
19
72
66
89
107
133
154
128
129
121
90
80
67
43
42
56
5
-3
1
-4
3
10
-10
-10
17
26
9
-2
-29
-23
-15
-6
1
-12
12
20
-4
9
-21
-37
13
4
-11
-3
1
5
12
8
0
-19
-17
-17
-20
9
19
9
-5
6
0
6
4
13
-9
7
-6
8
11
-10
-11
-2
-7
-13
-21
1
-4
11
-2
32
21
-8
2
0
-8
35
30
-12
25
12
-10
1
15
-11
-21
4
8
29
34
37
42
27
50
36
11
37
2
23
16
39
30
39
35
28
14
51
42
38
26
45
44
38
42
51
46
32
18
19
21
38
36
33
62
26
47
50
37
28
46
38
19
24
38
10
22
37
12
13
15
6
6
15
11
5
-7
-4
4
18
1
-18
-24
3
15
43
-3
-2
15
12
1
-3
-14
9
15
7
20
8
1
20
25
-7
-5
1
24
-3
-9
-35
19
44
7
6
18
-8
12
14
-22
2
38
7
-10
3
-13
8
16
8
10
26
22
10
6
2
14
13
3
47
41
15
5
8
39
42
-3
13
-28
0
17
22
18
16
37
47
30
25
30
12
-5
20
9
21
9
-7
-2
28
30
24
35
30
18
25
7
-10
-12
39
26
16
29
17
15
13
21
28
27
15
8
16
-18
-1
19
29
15
-4
32
29
27
-1
53
25
15
17
30
35
10
13
40
44
32
36
20
19
11
9
0
6
26
28
40
32
10
-4
-11
30
56
42
26
35
18
35
54
9
35
32
31
32
30
19
14
18
-2
9
9
16
52
28
9
22
16
12
22
24
24
10
4
11
7
-5
21
26
13
19
35
32
21
16
4
10
9
14
21
14
2
28
4
21
12
35
15
20
18
20
10
28
52
116
96
124
137
131
166
162
137
113
103
105
85
88
47
38
36
42
42
34
14
27
29
27
25
24
19
-10
33
20
34
14
6
10
1
52
23
28
36
38
5
25
35
26
13
3
38
40
6
25
44
46
39
49
22
37
36
42
41
33
49
14
22
32
27
30
15
29
2
6
33
49
24
15
34
34
37
52
34
15
52
49
20
44
55
37
37
40
18
44
57
27
37
35
45
50
43
50
39
64
64
46
16
69
53
40
57
67
69
49
60
42
31
64
67
72
71
85
80
65
59
89
70
85
75
68
47
49
58
76
78
56
61
62
52
47
36
15
28
61
59
46
31
70
42
52
61
37
40
37
16
46
47
55
59
19
-16
0
18
42
46
29
30
13
17
22
18
2
0
7
9
26
17
22
-4
12
36
-4
-15
22
27
-6
31
58
5
2
-10
15
33
23
29
30
12
27
6
17
34
11
28
2
17
33
20
13
21
33
50
17
16
15
-4
28
44
33
25
22
22
-3
0
9
36
28
25
24
8
-10
18
-9
2
26
23
30
34
10
5
-1
22
10
5
24
7
18
14
43
30
17
13
-6
15
53
-2
19
44
35
24
12
18
9
10
40
18
19
27
3
17
-5
-3
-9
33
21
10
13
9
20
42
22
-37
-26
0
12
70
22
15
24
30
7
18
8
18
14
14
38
64
35
24
19
28
27
26
37
33
3
22
32
13
9
13
11
4
27
-9
-17
29
26
-4
14
21
8
11
14
13
19
16
22
13
33
19
2
19
19
13
-1
22
11
6
-8
0
21
-6
0
8
-3
-24
-9
-34
10
-19
27
51
30
31
41
61
73
86
118
126
130
153
160
148
137
136
102
86
84
60
46
22
18
20
41
36
23
9
22
10
15
4
12
23
14
10
13
3
-2
3
10
11
8
-2
3
1
-13
16
4
-6
-17
11
20
17
32
6
6
4
-1
17
46
53
45
2
26
63
-9
23
-1
0
21
24
17
26
29
18
13
24
21
12
6
-12
-14
7
23
37
26
5
25
14
24
36
12
49
54
50
19
30
26
23
45
29
-21
-1
42
35
53
41
39
23
26
31
52
46
57
37
22
49
54
53
49
40
61
53
41
66
11
48
99
53
31
62
67
58
55
53
58
42
64
57
36
52
55
41
50
40
34
24
10
32
23
18
30
17
-15
36
14
4
26
33
6
32
10
23
9
18
31
-2
-17
14
22
13
1
26
11
1
17
31
20
0
-16
-2
14
19
1
-11
14
36
24
22
36
6
0
17
19
19
23
26
15
22
22
-17
28
-11
29
6
14
-16
10
48
35
12
-3
6
40
8
24
20
30
13
0
12
-9
8
4
-7
18
14
-2
-1
12
21
14
19
27
24
23
17
-23
1
15
24
15
22
39
50
36
58
-11
-24
16
-27
13
15
16
41
6
-9
-2
14
25
16
18
28
4
17
7
19
19
25
27
15
14
2
29
21
18
-8
8
12
28
15
36
-2
15
14
3
26
42
10
0
30
35
15
36
19
23
25
-16
20
9
37
42
12
9
2
16
10
23
23
18
22
6
30
23
-2
11
13
5
7
9
5
6
15
20
-10
21
2
10
10
14
15
23
3
23
-3
19
24
26
7
7
7
11
19
13
8
4
15
14
29
46
96
104
100
132
127
133
153
160
125
89
91
65
63
61
39
7
17
24
22
17
35
39
12
-8
10
-3
16
23
14
19
26
21
15
3
9
23
17
17
45
25
-5
-20
-15
-1
31
15
26
1
16
9
12
-2
10
30
31
25
20
10
0
7
33
14
46
26
13
26
30
18
28
15
27
24
7
30
15
32
22
22
16
6
15
28
17
24
45
8
23
20
14
36
43
34
35
27
44
30
20
25
48
42
42
43
41
42
43
35
34
73
49
29
78
76
39
52
45
37
57
80
52
50
45
64
71
42
27
44
49
58
62
51
76
29
54
42
32
31
28
7
14
20
16
15
51
66
22
32
25
51
18
19
39
7
11
13
18
28
30
6
16
7
11
18
6
23
-20
1
19
4
24
-3
5
14
13
13
8
-8
11
6
4
-3
-3
9
-4
-14
9
3
4
12
22
-14
-26
17
6
42
27
10
32
8
-19
-1
0
9
27
17
8
25
4
12
5
18
5
9
7
-9
-9
22
12
32
29
-20
-15
0
11
15
9
17
8
20
8
13
3
-5
-17
-11
11
39
24
2
6
10
3
25
10
-13
16
21
7
29
25
-25
0
2
-13
44
19
-18
-10
-33
9
42
13
18
3
9
0
2
27
37
2
-7
2
6
-5
51
26
35
9
30
15
-14
8
14
16
21
14
12
16
22
9
27
32
15
33
11
14
20
25
-4
13
-3
13
9
-6
13
-9
-3
13
28
-11
4
37
26
8
-8
2
-3
17
35
7
3
7
-4
-11
-7
15
0
28
18
16
-5
-10
-8
-14
-2
10
-8
-22
12
13
20
19
-33
-12
25
15
74
86
97
117
107
131
111
144
162
122
120
112
70
71
54
37
33
11
43
8
30
35
22
0
12
18
12
5
-19
-1
23
28
19
3
10
37
11
-7
5
-2
5
33
13
16
1
21
-20
4
5
7
23
-23
5
26
3
35
0
-36
-22
31
49
7
11
16
6
12
21
8
8
5
33
16
32
38
18
10
-18
6
28
13
-5
25
20
12
28
21
37
17
12
23
13
38
24
2
29
32
27
27
29
5
23
34
46
15
26
46
47
36
31
63
20
23
47
59
66
7
43
68
66
53
35
64
44
49
31
51
59
60
27
55
22
54
50
44
56
59
52
41
51
23
34
23
17
35
33
10
11
17
13
19
20
-1
22
14
7
10
1
5
18
-2
-4
7
8
17
13
19
5
13
14
3
11
20
30
-9
-7
-7
9
12
11
20
1
21
16
-14
-1
-5
-6
5
40
14
-6
12
12
-11
8
-14
3
14
15
6
9
15
49
14
-6
3
15
14
3
10
17
-5
1
22
17
9
15
10
24
52
13
11
16
7
-1
-13
4
29
25
8
16
11
6
-10
16
7
19
-6
-5
2
16
27
19
11
13
-1
24
15
8
6
13
15
10
1
1
4
17
13
28
40
22
14
10
28
8
-2
2
14
16
11
29
17
-13
0
15
15
6
-9
0
19
37
20
25
21
24
5
8
41
19
17
49
28
15
29
18
14
23
18
15
24
5
-12
16
29
10
-4
8
20
18
22
17
10
6
21
-9
-5
16
12
17
24
13
20
16
-14
-34
-22
29
-6
21
41
23
5
3
0
20
-6
15
18
4
25
36
31
24
25
9
1
15
10
21
34
40
42
60
108
83
100
134
137
129
133
103
105
105
82
58
33
26
15
13
35
46
30
9
35
31
15
45
23
16
25
19
3
10
24
2
11
7
9
35
27
34
15
26
26
0
20
15
8
-5
21
11
20
-2
10
20
32
13
-5
-14
35
28
21
27
19
30
15
0
17
17
15
20
2
35
19
20
42
34
9
-1
30
21
36
44
56
26
21
22
13
11
23
41
66
36
42
3
27
40
15
36
54
47
40
31
38
38
46
57
53
33
70
44
38
36
17
30
59
67
64
54
48
41
40
45
59
94
54
75
42
76
61
45
64
40
17
48
53
51
36
61
76
51
26
42
40
21
36
10
26
24
17
1
-9
2
14
24
10
-10
1
10
27
16
30
4
5
2
2
10
0
28
9
12
39
1
-11
17
2
3
-2
-1
13
16
28
0
-4
6
18
33
19
11
-10
-22
-7
-11
-8
35
-3
-26
-16
6
4
6
13
12
10
4
-11
-15
19
-21
10
17
12
22
4
22
21
-2
21
9
13
10
13
-1
-2
19
33
1
13
11
21
32
0
-17
-5
-20
2
16
-18
7
8
-3
-10
-5
0
10
-3
-7
-19
19
43
19
25
6
0
-9
12
11
-10
8
21
17
-11
-4
23
5
26
1
11
39
7
5
6
-12
-8
9
28
2
-22
-23
27
22
25
16
13
23
6
6
29
6
-9
-16
-5
-5
-28
-17
-27
1
6
-7
-12
-7
4
23
16
-13
-6
-3
0
-11
-6
1
0
-5
6
7
-8
-20
3
-16
-26
-7
-2
-4
7
-3
-9
23
22
12
47
76
60
44
95
107
128
125
146
140
109
86
72
45
21
21
3
3
3
-10
-2
-1
3
-9
18
30
21
-2
-7
-9
15
7
5
-7
-4
7
12
-17
-15
-10
1
-17
5
6
30
14
-7
-10
-27
16
29
5
-8
2
7
7
16
24
51
35
-13
-12
-18
-7
6
14
-19
24
24
21
-4
3
7
-20
3
11
26
-1
34
28
35
25
24
-7
3
7
13
17
25
29
18
30
2
36
21
25
40
19
25
47
32
2
38
2
7
34
77
40
46
44
54
57
33
46
33
46
51
37
60
45
52
49
30
39
56
48
35
38
30
57
74
46
38
52
44
39
50
49
48
35
62
22
-4
22
25
-19
-1
27
28
0
4
6
5
-1
7
-8
-9
7
30
9
-7
-18
-20
-19
-6
0
20
35
15
7
0
11
12
2
-9
-19
-6
-10
30
16
0
5
-9
13
-7
1
15
6
-1
16
-8
4
10
18
-15
-5
5
7
17
-14
5
18
-1
9
6
8
10
2
-7
13
-16
-8
-7
7
7
33
35
25
17
20
6
-8
-7
20
-15
-33
-4
6
6
-14
-7
11
-9
13
11
-6
3
-2
23
33
-23
-35
10
36
23
-17
0
-18
15
4
7
27
34
6
0
5
7
15
12
-3
-6
6
-13
-8
3
6
-9
-10
16
14
-8
6
6
14
10
-1
18
7
-1
16
16
21
14
18
10
-22
1
12
3
17
34
-9
6
-10
-11
16
12
12
-3
-8
1
35
3
-7
-14
-1
33
1
-2
-3
-6
-29
4
16
24
3
12
8
-14
10
12
-6
5
1
6
-6
-1
8
11
12
-8
-17
7
-2
-1
-2
13
-3
12
18
-3
-18
-5
-3
-9
-14
6
-4
12
16
31
42
44
56
75
94
142
140
165
153
141
126
110
74
54
44
8
-2
-1
5
43
19
11
5
-2
-10
-2
-12
17
-22
18
5
9
12
-4
0
5
4
-7
1
-7
-13
5
1
2
-12
-19
-12
-13
-21
12
34
10
15
6
10
-7
-7
-13
-28
9
-11
1
18
-9
13
23
5
2
4
6
-16
20
15
-8
6
4
13
10
15
-7
18
16
27
-9
1
-7
-9
-3
18
25
24
24
-9
8
14
8
5
7
5
2
13
46
21
20
44
42
34
18
33
41
37
19
33
26
26
0
39
52
62
37
2
18
19
32
43
71
44
35
48
49
57
29
14
34
27
34
32
35
31
33
47
44
11
31
34
15
33
-4
7
1
6
-21
-7
10
9
8
-20
-1
2
2
12
-3
7
-3
24
-19
-20
-15
-19
-40
-22
26
10
-2
10
11
4
-10
7
-9
-9
-4
-10
4
18
27
-1
-13
1
1
-39
-11
14
29
3
-1
9
1
-13
8
10
0
6
6
21
8
-17
7
0
-14
-3
-4
-12
-28
-7
7
23
-1
-5
-13
0
29
22
13
-10
6
-10
4
-14
9
17
-21
-11
12
11
3
-8
-4
-5
-13
-14
12
30
18
-41
-24
2
-16
-16
12
30
22
17
12
4
6
-4
-38
-34
-7
21
-6
24
22
6
-26
15
14
2
-14
20
25
-13
-4
9
-8
-3
-7
-9
-8
4
15
-14
-7
5
0
2
-29
-31
11
17
-5
12
1
1
-6
3
-2
-3
13
6
-5
21
15
35
15
-6
8
-11
-15
-19
15
32
22
19
16
9
-14
-11
-5
5
-2
11
2
19
-2
-13
-10
-2
11
-9
4
5
-2
-2
-7
-13
-23
8
2
-15
-13
30
-5
7
14
-15
-39
-22
8
-17
-5
17
25
2
-37
-28
-26
4
13
4
15
5
-5
9
18
35
54
71
81
90
115
130
122
146
127
107
92
99
83
71
14
9
0
21
18
14
16
31
26
4
-16
10
5
5
-2
1
13
6
3
20
-7
21
-23
-11
7
-16
10
16
16
-30
-22
-13
3
8
-8
15
1
-36
-3
-14
-34
-16
-3
38
8
-10
1
8
4
10
1
8
7
7
10
23
22
7
-13
1
16
5
5
8
17
9
-12
-6
21
18
13
-6
-13
-10
12
19
-2
17
4
24
-32
8
21
36
32
23
31
8
-2
25
22
39
27
39
64
26
26
16
54
22
38
42
55
39
23
37
50
43
55
40
37
32
27
21
33
26
33
41
40
25
34
45
32
15
13
18
14
23
22
33
7
-20
2
-4
-29
-14
7
5
-3
-26
19
13
-33
-13
33
21
-3
15
7
8
12
-3
9
-8
-20
-17
12
-12
3
0
8
-3
-9
10
3
-28
-17
5
-21
9
36
-3
-13
8
-20
-2
7
1
6
12
-12
-11
8
7
-20
-16
0
22
20
13
-10
3
39
18
1
-17
0
30
3
-24
7
-1
11
-21
-17
11
19
17
0
6
5
16
-22
-38
-9
26
8
-15
0
13
19
7
-6
4
-9
-6
-12
-7
7
29
10
9
6
10
-14
-9
2
-14
8
3
5
4
18
-7
10
-7
-21
-6
-7
-21
18
16
-7
5
-11
2
8
-9
8
22
-1
12
-14
3
-26
-6
1
25
13
-12
-18
9
20
4
-2
-10
3
11
-21
16
8
7
7
-8
-2
2
20
21
-3
-14
9
26
5
-6
24
12
11
15
9
15
15
-12
-8
2
17
-8
13
3
10
16
14
2
23
-12
-12
18
12
-35
-16
2
-9
-11
14
-25
-43
-10
18
16
48
-33
-3
-6
-12
7
-22
10
14
16
-6
-3
-4
-23
-11
-3
3
19
6
9
48
86
85
96
120
120
126
129
115
114
92
105
60
24
52
1
20
5
0
0
4
7
-20
1
9
-6
-6
19
11
-12
2
4
-11
-15
12
-1
-1
-9
-13
-37
4
6
-8
-16
-22
8
24
5
0
-6
10
-13
-37
-9
31
16
-9
20
13
21
13
2
9
3
-16
10
20
-3
1
15
11
7
-9
17
7
-1
-2
18
2
7
9
21
14
-1
-24
-10
6
13
29
23
13
16
24
45
48
29
-6
7
7
20
40
0
28
20
34
19
17
14
28
27
43
66
58
42
46
41
32
51
56
46
54
51
36
48
61
48
41
44
55
44
58
36
40
45
43
41
28
39
33
34
5
39
4
40
23
9
16
16
-2
13
16
4
0
-7
10
1
-7
-4
8
-9
13
10
-6
0
22
-12
-20
-5
-6
-6
6
6
-10
-7
-3
10
-1
6
-9
9
23
8
22
-9
-21
0
10
-12
-11
6
18
-2
-12
-11
-26
1
-9
11
14
15
5
-10
-9
38
1
-5
-17
31
21
-2
10
-19
-4
9
-16
-6
9
10
2
2
18
-12
1
5
-21
-31
21
16
-2
23
16
16
-9
-18
9
11
5
-2
-1
10
-7
1
-10
-10
-24
-20
-6
6
19
13
6
3
13
-3
-3
3
-4
-3
0
0
-3
-10
-5
21
-3
2
-30
-29
-36
0
-3
35
24
6
3
-18
-22
-23
-5
-3
-14
21
25
14
11
4
10
7
3
17
-1
-17
9
8
-1
17
3
15
1
14
9
18
-2
-14
-7
-34
-8
19
18
10
1
36
9
-18
1
4
-8
-22
-7
-10
-8
2
19
-5
-25
1
-15
-9
4
-10
-15
9
33
-10
-25
1
-5
0
-15
-5
-13
-17
-26
-38
-50
0
19
-9
14
3
11
-5
-9
0
-17
-13
2
19
28
32
44
64
89
110
115
125
139
142
144
97
86
84
79
44
22
-20
-10
8
8
24
-3
-17
6
-21
-47
9
15
8
19
-3
1
2
-5
-5
-6
-18
-19
-7
0
-13
-15
15
0
-9
-8
-13
5
6
-3
-13
-14
-6
13
10
-21
-7
-13
-20
-25
-23
21
-1
18
18
6
-2
-24
7
7
12
10
8
9
0
12
-4
-9
8
18
5
15
4
-8
-15
-1
-3
-2
35
17
-15
-34
-7
8
37
38
45
21
15
-5
6
12
2
5
6
10
-1
28
62
19
-2
38
64
59
52
58
39
12
36
37
25
57
56
45
36
35
35
29
30
41
31
23
28
30
4
-8
21
9
2
45
32
15
13
26
18
18
8
-2
5
7
37
16
24
-10
-29
-5
-25
-5
9
10
-15
-16
-11
-8
0
2
4
-16
-6
-1
5
3
-8
-2
-19
-27
-13
24
3
10
-24
-28
-4
9
-20
-13
-21
-32
-1
-3
15
-11
-29
-17
-27
-18
8
33
13
26
5
11
-20
-39
-24
-2
21
-15
17
26
6
-9
-22
-17
-29
33
-16
-17
0
-12
-12
14
5
-12
13
11
3
-12
-40
9
-15
-23
-16
-12
-26
2
21
14
-5
-13
-9
-19
-33
-69
-59
43
10
-28
10
22
-4
-12
23
-19
-35
-19
-4
-23
34
42
23
10
-13
-13
-20
-35
18
-10
-17
-27
-31
16
14
-5
8
21
-11
15
29
-14
4
6
-19
-8
-21
-31
-6
17
-3
19
18
-14
9
-16
-16
-5
5
-6
-11
-30
5
12
-11
-41
-49
2
10
-4
-52
-39
1
-3
-63
-94
-49
1
-5
-18
-9
-7
-17
-11
-21
-33
-12
-27
-28
-73
-52
-85
-44
-44
-57
-21
-12
-44
-44
-18
-24
-31
-22
-30
-45
-38
-40
-51
-44
-30
-45
-78
-42
-62
-77
-59
-3
-39
-34
-6
-10
-8
27
31
34
19
9
97
134
108
62
48
38
-7
-7
-6
-21
-21
-33
-24
-48
-68
-38
-76
-71
-4
-4
-36
-52
-55
-37
-44
-15
-24
-52
-29
-58
-73
-67
-40
-36
-26
-32
-31
-29
-29
-43
-26
-52
-62
-60
-40
-49
-49
-34
-40
-29
-46
-39
-63
-45
-49
-56
-33
-72
-30
-33
-75
-45
-11
-16
-57
-58
-31
-31
-39
-70
-80
-56
-10
-8
-104
-128
-60
28
9
-15
-30
-35
-53
-54
-46
-30
-39
-50
-36
-19
-30
-32
-28
-30
-8
-18
-23
-27
-27
-18
-3
3
6
-14
-15
-8
-15
-20
-10
2
-5
1
-24
15
18
8
-24
-1
5
19
3
0
-4
-5
-17
-35
-39
-1
6
1
-11
-30
-3
5
-9
1
-21
-25
-50
-30
-2
-17
-24
-23
-44
-59
-57
-39
-28
-10
-27
-21
-30
-17
-49
-56
-15
-34
-45
-44
-49
-38
-52
-44
-42
-30
-42
-32
-52
-41
-45
-28
-28
-49
-36
-27
-18
-19
-45
-40
-45
-49
-42
-43
-33
-35
-31
-38
-38
-22
-31
-27
-37
-41
-39
-29
-34
-35
-38
-51
-38
-27
-45
-17
-7
6
-17
-42
-32
-21
-19
-19
-26
-34
-29
-41
-27
-28
-46
-31
-36
-28
-44
-55
-15
-4
-27
-52
-37
-44
-40
-49
-23
-27
-25
-54
-25
-24
-57
-41
-24
-52
-32
-14
-32
-94
-32
20
-16
-17
-17
-6
6
-48
-54
-36
-34
-5
-5
-21
-14
-24
-38
-28
-17
-25
-11
-12
-21
-30
-26
-16
-18
-29
-41
-33
-29
-19
-34
-44
-18
4
-20
-21
-2
-14
-11
-13
-37
-22
-31
-68
-61
-14
-8
-23
-21
-27
-58
-5
-62
-47
2
-55
-86
5
-2
-42
-23
-8
-48
-32
-40
-45
-28
-11
-24
-21
-52
-31
-2
-32
-9
-43
-40
-25
-33
-31
-20
-20
-19
-22
-30
-40
-33
-46
-7
25
20
35
68
70
87
101
121
144
110
77
71
49
36
24
-9
4
-17
-19
-13
-30
-30
-34
-47
-60
-32
-40
-17
-25
-27
-43
-32
-30
-48
-44
-38
17
-11
-15
-21
-12
-32
-76
-50
7
2
-26
-17
-24
-11
-10
-24
-23
-22
-7
6
-5
-25
-34
-23
-11
-13
29
-10
-40
-19
19
-27
-46
-52
-14
-18
1
10
-7
-28
-36
-44
18
-5
-34
-35
-27
-11
-8
-5
7
-10
-58
-13
26
9
-24
-6
-9
10
-6
2
5
-4
3
9
-19
-27
-14
13
24
28
-5
-24
4
-33
34
61
41
7
6
41
27
24
29
14
26
31
-9
2
32
17
48
41
20
41
39
14
12
6
8
-5
-11
9
-22
-12
3
11
-4
-4
-5
-6
-3
0
-10
-15
-28
-8
-7
-26
-29
-19
-14
-29
-47
-21
-8
-1
-8
-32
-40
-24
-34
-24
-31
-33
-51
-58
-2
-2
-28
-29
-17
-5
-52
-37
-16
-27
-44
-43
-29
-7
-34
-29
-9
-1
-14
-24
-36
-24
-27
-43
-18
-3
-3
2
11
4
13
-12
-31
-32
-26
-9
-16
-36
-60
-32
-23
-31
-35
-3
-4
-18
-15
2
10
4
-17
-15
-31
-13
24
-33
-63
-41
-12
0
-8
-12
-20
-3
-2
11
-4
-10
-19
-14
-16
-25
-25
-20
-12
-20
-39
-22
-5
2
-7
-49
-80
-45
-19
-23
-17
-5
14
4
-14
-22
-26
-10
-1
-15
-24
-9
-21
-2
8
-8
-18
-50
-73
-18
15
21
-2
-6
-18
-12
-4
-30
-27
-43
-9
25
6
-3
2
12
10
-5
-24
10
3
-21
-31
-22
-34
-5
3
13
-15
-47
-11
-3
-26
-39
-27
-42
-22
16
-10
-44
-22
2
16
-3
-12
-33
-13
5
-7
-9
-15
-21
-10
-12
-7
-14
7
-46
-29
-30
-8
-29
-18
-15
-20
-38
-21
-20
-40
-7
-4
-6
-9
5
7
14
43
62
81
70
83
100
98
102
52
71
122
119
87
57
24
-12
-35
-18
-38
-55
-14
34
-3
-19
22
-6
-13
-7
12
8
-20
-44
-24
-8
-8
-21
-25
-28
-16
-1
-4
-11
-24
-19
-9
-8
-2
-21
-13
0
-15
-24
-28
-6
-5
-33
-38
-16
-24
9
15
-17
-44
-14
-23
-3
-13
-2
-28
-4
4
-4
2
13
-16
-67
-26
7
-5
-2
3
-50
-31
12
17
23
18
21
-2
4
5
-12
-23
-15
14
9
24
12
0
13
10
-11
22
30
19
13
5
20
12
4
11
22
19
14
40
41
45
24
40
58
16
-38
5
34
52
31
-9
34
42
13
16
7
23
7
7
50
29
42
22
-24
-15
-19
-15
7
12
36
32
5
-29
-63
31
32
-9
3
-11
-15
-37
-5
4
12
-1
-1
-8
-30
-8
-19
-1
-5
-13
5
-18
-12
-2
15
-15
-32
-2
0
-12
3
-33
-19
7
4
-26
-15
-17
-2
-11
-12
-19
-8
-12
-23
-33
-7
12
-12
-22
-22
-15
-7
2
4
-16
-6
-9
4
-15
-8
-13
-21
3
-19
-34
-14
1
1
1
3
-9
6
-24
5
4
-27
-20
-36
-6
-15
-26
-44
-23
2
-26
-47
-6
12
-4
1
-22
-8
-14
-4
-23
-30
0
-23
-22
-6
-13
-61
-50
-7
3
-3
2
3
-5
-20
-1
-4
-4
-5
-28
-38
-22
1
-32
-35
-48
-21
24
-26
-38
2
-14
16
17
4
-7
-7
-7
2
-10
-2
-13
1
-1
-3
-18
-17
0
-13
-26
-37
-8
-12
-40
-12
-1
-19
4
-17
-52
-31
-18
-31
-24
-34
-39
-46
-45
-35
-34
-35
-13
-29
-22
-22
-58
-45
-38
-78
-63
-36
-52
-41
-64
-62
-45
-47
-42
-37
-36
-47
-35
-46
-13
1
10
-9
-2
18
64
90
85
86
95
92
63
49
29
11
9
-9
-54
-38
-32
-30
-55
-53
-32
-35
-33
-20
-42
-38
-44
-13
-54
-38
-40
-17
-39
-41
-47
-57
-18
-21
-33
-41
-57
-43
-29
-36
-57
-72
-21
-17
-12
-34
-59
-123
-56
0
-2
10
5
-22
-99
-51
-81
-64
-4
-24
-1
-8
-25
-34
-18
-12
-18
-23
-20
-29
-26
-17
-16
-13
-27
-20
-20
-21
-19
-18
-40
-27
-22
-16
-10
-34
-20
-25
-13
-7
-4
-17
-13
-15
-16
-20
-10
-35
-57
-85
-7
63
49
5
-29
-10
24
35
10
3
2
6
-6
-10
-20
-18
7
45
31
16
22
18
40
27
10
21
9
-3
0
-2
2
19
-3
3
-31
-22
-40
-26
-16
-15
-2
-5
4
-28
-28
-29
-35
-44
-10
-12
-39
-18
-32
-58
-51
-29
-39
-55
-54
-50
-44
-64
-42
-31
-24
-27
-58
-54
-9
-21
-35
-38
-47
-45
-42
-18
-36
-30
-30
-26
-40
-30
-21
-30
-6
9
-20
-50
-32
-46
-41
-17
-31
-23
-67
-35
-15
-48
-47
-37
-23
-12
-35
-33
-25
-17
-58
-65
-40
-32
-31
-18
-41
-32
-12
-38
-26
-42
-68
-43
-19
-29
-28
-43
-36
-23
-69
-52
-17
-24
-24
-42
-31
-23
-27
-37
-22
-38
-10
-21
-29
-17
-21
-29
-47
-58
-50
-55
-16
-35
-28
-36
-44
-48
-22
-30
2
-10
-29
-38
-63
-51
-30
-12
-23
-27
-15
-24
-19
-20
-20
-29
-26
-31
-22
-34
-40
-62
-42
-38
-35
-34
-17
-34
-36
-4
-27
-50
-60
-62
-41
-29
-13
-25
-36
-44
-45
-57
-24
-22
-12
-26
-42
-46
-20
-39
-37
-41
-34
-33
-49
-37
-15
-29
-40
-31
-13
-10
13
22
45
73
77
82
115
66
72
61
58
16
31
16
-13
-16
-23
-38
-34
-50
-37
-45
-24
-15
-10
-53
-67
-21
-51
-32
-31
-44
-22
-21
-42
-55
-21
-37
-36
-33
-27
-33
-18
-18
-16
-38
-37
-34
-44
-37
-55
-46
-41
-29
3
-28
-33
-32
-59
-63
-34
-10
-31
-54
-72
-35
-19
-10
-20
-30
-23
3
-29
-37
-16
-20
-41
6
-37
-10
-40
-32
-38
-27
-37
-24
-30
-33
-18
-15
-1
-9
-11
-29
-19
-16
-8
-42
5
5
-16
-1
13
32
2
11
9
21
8
-5
-2
0
0
34
14
25
27
16
22
12
19
13
27
14
-2
-7
-34
27
17
22
-11
6
35
27
17
10
12
0
0
15
-3
-17
-28
-11
-27
-6
-36
-23
-11
-31
-32
-11
-18
-24
-30
-8
-48
-23
-52
-34
-11
-31
-20
-41
-20
-18
-31
-18
-16
-64
-82
-32
18
16
-21
-19
-46
-51
-39
-22
-33
-42
-29
-17
-24
-6
-31
-34
-14
-37
-10
-3
-25
-31
-16
-21
-37
-29
-21
-29
-18
-31
-44
-20
-10
-15
-5
-2
-33
-16
-38
-50
-25
-13
-1
-31
-30
-21
-29
-50
-36
-15
-5
-7
-29
-27
-7
12
-16
-33
-29
-22
-20
-34
-9
-25
-13
-4
-19
-9
-4
-2
-13
-15
-45
-69
-48
11
-12
-22
-41
-67
-29
-17
-19
-1
-12
-14
5
0
-15
-5
13
5
-2
-7
-28
-25
-7
-11
-12
-11
-23
-22
-18
-37
-36
-21
7
-4
-18
-21
-31
-23
-12
-11
-45
-44
-57
-64
-17
-2
2
1
-10
-6
-15
-18
-29
-27
-18
-20
-32
-31
-2
-37
-22
-10
-29
-12
-26
-54
-31
-4
-37
-66
-14
-27
-20
-9
32
46
71
89
77
103
118
124
128
93
95
106
79
57
33
5
9
-15
-21
-2
4
-1
-2
-22
-16
-30
-34
-10
-25
-28
-18
-19
5
4
-43
-37
16
-16
-7
5
-29
-17
-24
-8
-29
-24
-12
-16
-36
-23
-20
-14
-20
-8
-4
-33
-50
-19
-28
-36
-26
5
-11
-18
-69
-9
12
21
6
8
-25
-28
-28
0
3
-18
-17
1
-32
-24
-16
2
17
-30
-9
10
-3
-6
-2
-5
-7
3
10
10
10
-3
-13
-15
10
5
-5
-14
3
32
25
-2
10
17
17
35
22
1
14
24
-14
16
39
38
11
4
39
28
46
50
16
4
28
29
31
9
1
-5
6
47
33
-10
11
19
9
-26
34
17
5
-10
17
-5
9
-20
5
-13
-6
-19
-25
-9
5
-13
0
-11
-11
-7
-17
-14
-3
-16
-24
-31
-13
-18
-37
-35
-12
-20
-11
0
-14
-7
-27
5
4
5
-40
-40
-24
2
-39
-11
-5
-6
12
-24
-56
-28
8
15
-13
-19
-26
-61
-40
-1
-8
3
-24
-28
-17
4
-7
8
12
6
-2
-16
-22
-16
-14
-24
-10
0
-35
-21
-10
11
-15
-16
-11
-18
-31
-8
-17
-35
-43
-2
6
-14
9
-21
-22
-12
-26
4
-17
-16
10
-12
-32
-12
-28
-15
30
3
-12
-26
-18
-1
-27
-28
-20
0
7
-11
8
5
-9
-15
-21
-14
15
-30
-10
6
-8
-6
6
7
5
-7
10
32
-1
-29
-27
-16
-11
1
-28
-12
-15
-4
-10
-12
-7
10
15
-24
-1
-3
-19
-13
-26
-32
-30
9
2
-2
-9
-36
-39
0
-22
-45
-12
-12
-7
5
-50
-22
13
7
2
-5
1
-11
-17
2
2
-23
-21
-4
-28
-34
-5
-6
23
73
118
121
109
128
159
132
131
117
100
90
76
66
43
23
-21
5
3
-5
-8
-5
-2
-4
-16
-3
1
-6
4
-15
-17
-27
-1
-9
5
16
-28
-39
3
12
-11
-4
-51
-89
-10
38
5
-10
5
-18
25
23
1
-4
-19
-50
-21
12
-33
28
17
-13
4
24
0
-18
11
8
-5
-6
6
11
11
0
-15
-12
-3
16
7
-21
19
-8
12
18
18
9
-11
11
2
-2
-1
15
-5
-7
-1
6
-4
-18
7
48
14
33
28
16
-1
5
12
58
24
48
16
-19
4
53
48
27
17
58
38
15
19
39
41
45
43
36
38
43
25
28
38
22
18
36
23
28
36
29
16
11
15
-6
18
34
-5
15
15
14
7
18
4
-2
-13
-20
-8
13
-9
-9
0
5
-8
-2
-16
-10
-17
-15
-23
-6
-1
-22
-34
-21
13
15
2
9
8
-9
-10
0
19
-4
-2
-2
-13
-6
-8
-1
7
-31
-15
-14
0
-21
1
3
-24
-6
-1
-14
5
6
2
-10
-9
-34
-33
14
33
10
14
9
-15
3
1
-18
-28
9
-2
3
-4
-5
4
6
3
-7
-6
-1
2
-6
-27
-26
3
8
14
13
7
9
8
6
25
-1
-6
-11
-2
4
4
5
1
0
-8
20
10
6
0
-3
5
13
4
4
6
4
5
8
10
2
15
14
16
2
2
-3
8
3
16
6
16
10
-20
-3
15
17
22
8
28
-9
-15
7
-4
-6
-6
11
-2
2
-13
-16
13
13
66
33
23
31
5
-5
15
9
22
0
-5
25
29
6
10
1
23
26
14
8
13
16
-12
-11
4
-8
-1
23
20
19
18
1
0
21
18
22
31
5
21
16
22
23
-4
-2
10
11
17
24
10
-23
23
53
50
39
49
66
91
105
113
149
161
146
136
162
143
121
101
48
31
24
30
55
47
14
23
29
20
20
4
30
47
40
29
7
24
22
-9
17
15
-6
20
22
55
51
33
8
30
13
22
23
25
-12
-14
25
13
22
23
17
5
13
26
31
30
11
1
26
20
20
39
28
54
12
-3
1
30
22
28
37
40
26
7
41
71
23
25
47
21
23
16
9
9
26
34
20
32
24
40
16
40
38
12
26
47
17
33
63
12
25
76
52
64
43
50
50
51
73
56
46
46
54
63
71
51
54
52
62
35
57
74
49
50
54
46
43
60
64
60
46
43
55
68
50
35
29
37
40
21
24
29
31
32
20
13
10
23
19
19
22
21
6
4
26
23
25
26
30
15
12
25
33
27
20
4
6
-2
2
-11
46
36
0
12
7
27
33
43
6
-4
15
15
4
37
0
15
6
34
6
28
33
21
13
-13
19
35
5
11
8
16
23
44
23
18
26
-3
-5
6
29
26
15
-6
4
27
33
-11
-23
-1
12
33
43
3
-6
58
42
3
2
28
14
24
-2
-9
18
39
30
-39
-15
8
-18
24
17
14
-8
-64
-29
55
50
27
30
25
7
14
6
15
8
25
-1
36
28
8
9
15
18
21
21
18
10
34
53
31
26
33
31
-1
2
20
-2
1
-8
18
8
-16
4
25
-3
-15
-5
8
45
43
-8
23
26
22
14
-19
-2
19
19
27
22
22
31
19
14
-13
-9
13
12
27
18
18
48
9
26
11
-11
-21
3
15
-3
12
20
-8
12
43
25
41
39
69
97
109
131
142
129
150
151
101
111
105
76
61
50
51
8
5
25
17
2
9
3
-2
8
42
6
-21
26
48
56
27
8
12
33
34
34
8
25
9
18
30
6
20
22
7
6
17
13
14
24
34
30
27
42
22
26
9
25
40
20
32
43
43
24
24
13
14
34
32
24
4
37
44
28
19
2
21
36
22
34
16
48
41
34
26
37
42
38
29
42
44
47
29
26
42
63
70
29
44
58
62
57
58
29
31
46
65
53
43
71
42
55
53
64
78
72
41
27
39
74
63
54
52
57
69
71
60
34
59
61
45
39
57
55
44
32
66
53
26
35
40
56
33
11
18
26
24
19
-2
32
30
7
10
23
14
27
22
36
45
29
16
-5
10
10
19
19
24
-22
-1
16
2
19
23
23
3
10
23
-9
2
36
7
11
18
10
10
39
7
3
12
21
30
14
12
13
10
10
23
-23
2
34
12
-3
18
27
21
54
16
38
7
20
-3
27
43
28
21
25
17
10
-1
10
1
-15
16
22
37
41
-2
4
40
54
20
18
31
20
28
22
9
-3
12
9
34
35
35
16
15
22
26
15
4
20
39
23
22
16
8
26
34
24
19
31
-5
0
22
40
21
25
36
11
9
5
32
52
40
38
25
39
21
35
29
35
42
15
19
20
10
22
3
8
31
20
13
29
5
22
38
23
-4
-4
30
1
23
20
36
13
22
9
20
13
26
18
25
27
55
16
9
14
12
7
34
29
12
-11
-4
26
44
15
0
18
26
29
21
23
52
74
102
109
115
122
163
157
154
150
125
109
83
77
71
59
54
38
32
27
10
28
35
38
17
23
35
2
0
12
36
52
33
25
30
5
3
16
33
-4
-16
-5
20
32
43
28
45
45
37
37
27
15
24
36
22
33
11
24
24
16
2
31
33
22
33
40
62
32
33
38
33
31
0
16
-12
6
-4
51
66
35
37
29
47
42
29
38
45
46
41
34
8
46
24
22
41
66
68
52
47
57
50
26
39
16
26
51
79
60
54
62
83
86
43
65
47
53
96
90
73
52
61
73
74
39
87
85
64
68
69
58
82
60
61
64
65
52
45
40
58
59
30
29
38
29
22
13
45
31
54
23
45
29
25
39
16
29
27
21
24
53
42
-3
23
37
20
0
13
20
29
16
24
20
34
19
30
7
26
40
38
17
1
24
41
32
-3
-10
9
-3
9
30
36
40
40
20
27
37
26
1
7
31
38
38
35
30
18
24
36
27
14
15
25
31
32
9
23
41
9
14
39
32
27
13
24
23
20
15
17
36
41
34
-4
9
35
31
28
29
17
15
35
14
45
24
28
32
30
15
1
38
27
33
23
4
25
27
1
27
26
11
21
0
29
31
35
28
44
16
41
39
39
24
24
9
33
13
33
37
15
35
14
1
15
20
44
44
33
39
43
11
1
12
53
41
50
16
10
1
-17
32
37
8
1
8
20
22
20
18
25
11
16
19
-2
17
26
17
44
36
21
34
33
19
21
25
24
12
16
20
32
10
10
12
14
27
-2
37
43
22
12
13
15
35
39
62
73
86
107
123
156
164
168
131
137
132
127
109
107
63
47
17
9
25
48
44
33
19
44
32
4
22
27
13
25
12
9
41
27
19
9
18
11
26
19
14
22
23
-4
23
27
29
32
37
38
16
25
33
-4
-15
-3
41
17
29
23
22
28
29
18
31
35
22
54
59
33
11
8
30
31
44
37
41
25
29
26
29
9
10
32
17
8
18
27
24
22
20
39
22
25
50
40
37
4
25
54
67
40
72
53
36
42
53
45
44
54
50
57
75
24
55
51
67
57
42
55
69
73
48
52
55
84
36
46
46
64
58
45
57
61
56
51
53
52
36
24
40
39
21
35
30
13
20
22
21
12
10
23
29
-16
-18
17
34
29
-1
4
8
35
39
1
9
-2
28
30
6
2
21
3
12
32
17
40
31
12
22
4
17
3
22
16
16
11
-8
11
29
35
5
9
-24
2
41
28
14
6
-4
19
50
35
17
25
26
13
28
0
-15
-7
32
28
36
24
-11
18
12
14
0
-18
17
43
25
26
20
0
11
12
12
-13
15
38
25
18
32
36
13
28
33
39
-8
2
3
-17
4
34
37
42
5
2
8
40
31
-6
12
2
-14
22
38
13
-5
30
23
4
32
35
9
17
-6
-1
-2
4
15
28
37
36
18
32
15
9
10
37
28
14
24
20
3
13
16
28
13
18
20
17
18
7
30
-6
29
13
8
21
13
12
4
-12
2
21
20
17
41
19
17
11
19
14
-9
0
23
25
12
2
14
12
34
14
2
14
13
15
1
1
11
-11
14
10
45
45
71
81
95
119
140
133
110
126
136
124
102
95
105
70
57
62
32
23
8
28
38
2
22
35
14
22
8
7
-7
9
11
0
8
18
29
27
26
11
6
0
4
0
18
10
19
19
29
11
16
-11
11
54
34
27
12
3
21
0
24
-3
0
14
24
12
28
7
23
11
-8
8
10
11
8
6
6
0
40
37
15
20
-5
-15
2
38
37
39
13
18
30
45
41
15
32
43
52
30
31
20
23
24
12
12
31
38
46
32
47
45
50
39
59
35
50
54
62
38
15
42
39
55
57
53
70
52
43
65
51
24
46
47
51
49
47
58
40
37
56
42
38
44
40
8
24
15
30
16
20
30
24
20
10
20
7
14
6
-5
-3
8
-16
23
16
7
15
28
22
-13
32
36
31
4
-18
-4
3
-27
14
24
4
7
16
-1
2
23
2
-11
21
31
15
29
6
4
6
-12
-5
0
10
37
21
11
19
10
16
22
39
9
21
11
6
16
0
6
17
2
-2
5
25
18
-11
7
18
34
32
-27
-38
17
12
18
18
-10
9
-9
20
17
-1
-23
11
34
19
31
13
10
24
25
31
-14
2
20
22
37
10
21
19
18
-10
-15
9
12
12
14
-9
8
31
31
24
7
24
31
8
12
35
18
21
33
30
3
-6
-11
-1
12
10
8
9
21
11
10
-6
8
0
-12
-24
-8
27
18
-28
7
20
10
12
16
9
23
21
15
22
-4
12
-6
-6
31
13
1
4
22
-12
-25
-8
7
7
24
8
8
14
6
35
31
50
66
89
75
102
119
157
158
158
129
127
105
94
64
74
52
25
16
24
6
37
24
10
13
-3
-5
19
26
12
24
15
21
11
11
29
43
1
-3
10
1
3
9
-10
-3
-1
36
27
20
19
15
-4
14
3
8
-9
10
-4
-11
9
29
26
-8
6
-5
17
14
21
35
25
22
32
2
7
16
25
18
12
7
9
10
5
45
19
15
16
26
16
37
26
35
43
21
17
31
28
42
39
2
17
28
13
33
44
21
15
42
36
8
25
50
66
68
59
40
31
36
40
36
54
42
56
53
63
44
60
67
82
64
48
36
39
83
64
33
44
42
57
18
6
57
16
37
33
10
25
13
39
22
27
42
-3
30
28
10
8
-4
-4
30
2
11
16
5
-10
6
-12
21
15
13
7
27
15
7
11
-25
-22
28
23
39
13
23
13
11
19
26
32
36
20
7
22
6
16
11
27
21
-3
-1
12
17
15
16
8
7
8
8
-3
14
22
-3
30
11
6
12
19
-4
21
27
7
8
21
25
-13
9
-1
54
71
79
19
-16
-11
3
7
8
14
11
17
29
33
11
30
18
-7
11
8
1
14
33
31
11
7
10
20
37
16
28
32
35
30
8
9
17
10
3
32
36
40
20
12
26
26
8
-8
17
22
27
8
30
33
9
18
-9
11
36
11
13
-6
15
13
18
6
7
16
26
-2
10
5
15
0
23
17
7
13
16
-1
30
28
13
7
26
4
-14
1
2
13
4
23
40
53
53
58
54
131
120
121
148
128
162
162
120
91
106
86
64
45
31
16
24
28
26
30
13
21
33
18
38
-8
25
9
12
17
-2
32
18
-17
-4
17
9
5
17
6
25
-2
-1
12
22
6
22
34
33
10
10
24
28
11
24
26
16
11
26
13
17
9
18
22
19
27
3
15
16
7
30
32
-1
1
10
53
15
23
22
-4
21
23
8
10
31
29
47
43
21
36
27
24
19
42
60
39
14
17
18
20
17
40
78
37
38
42
44
50
46
23
47
48
39
66
69
47
49
47
59
39
46
26
49
64
54
50
57
53
53
68
36
60
51
43
34
26
16
37
34
2
21
30
17
9
25
22
31
25
23
5
-12
1
14
9
10
13
6
2
3
16
17
20
-3
-4
12
2
9
11
-10
13
-1
7
17
8
16
22
27
4
-29
-19
15
-9
15
27
16
-3
5
23
2
1
19
16
11
21
24
26
4
-16
-1
5
12
9
12
11
8
19
22
-6
1
-5
-21
12
25
7
11
21
22
-30
30
39
16
-28
-1
4
16
25
19
3
-5
18
28
21
-4
12
5
1
17
14
5
9
17
15
-7
13
10
-2
0
16
6
26
36
25
-6
18
31
5
20
-8
7
24
-20
-11
8
11
28
13
10
14
-2
0
29
9
-12
8
12
5
-2
0
22
-6
-15
-18
2
-36
13
7
15
10
16
-8
4
2
15
21
12
-7
-15
7
-18
1
8
-2
8
22
27
28
30
69
82
89
90
114
161
170
139
149
103
93
76
71
58
15
16
32
5
12
-6
2
22
22
13
10
24
-9
7
22
4
-16
-7
0
-4
3
3
19
7
-29
-9
-2
20
24
15
-6
-8
-4
-12
25
22
-4
2
16
14
4
12
38
4
-13
11
-14
-5
9
10
-15
13
5
7
12
37
7
11
-34
-11
21
9
6
20
4
4
22
33
24
6
15
29
-3
5
26
29
9
-4
30
30
15
26
1
-2
43
33
9
19
7
29
41
27
33
43
56
27
29
36
5
-4
56
43
38
41
24
43
62
36
52
34
37
38
37
60
45
22
35
25
0
-2
49
56
32
26
36
17
11
21
-1
8
-3
21
27
-5
19
21
5
-4
-2
-5
-9
-21
18
10
-1
5
-4
-20
-3
7
-1
11
2
3
3
7
11
6
6
7
-6
-3
19
-6
-40
-2
1
2
4
-16
7
-4
2
18
-2
-27
-12
-20
-8
9
5
-19
9
19
-6
13
-12
9
12
30
-4
-8
12
21
13
-12
-9
14
-7
-19
-11
-10
8
9
