11
11
18
-18
-1
-41
-40
-35
-24
-14
14
32
20
-7
-14
-35
-30
-20
-12
0
18
12
0
-5
-15
-35
-30
-50
-8
2
16
23
13
-3
7
-14
-28
-28
-14
11
31
41
14
-10
-23
-32
-32
-4
8
8
25
43
29
1
-26
-62
-34
25
21
13
47
51
33
12
34
-1
2
3
-5
21
51
52
44
20
23
-22
0
-2
11
47
77
79
49
47
30
-2
-3
25
42
37
41
44
46
37
36
11
-1
18
48
42
79
51
38
18
11
-30
-6
12
17
38
41
49
18
7
-21
-33
-23
0
4
8
13
8
39
12
2
-29
-51
-7
9
25
53
47
13
-6
-13
-21
-22
5
18
13
35
41
26
10
-16
-13
-7
-24
-7
25
62
75
55
5
-47
-40
-20
6
1
24
37
28
1
-23
-43
-48
-1
-6
33
37
41
42
44
27
5
-17
-27
4
30
24
19
39
1
6
-21
-15
-19
0
6
26
42
30
5
-23
5
21
-33
-17
3
36
50
33
10
9
-11
-17
-10
3
18
44
20
-5
5
21
-13
-12
-3
19
26
52
50
8
-16
-26
-49
-3
11
37
19
37
31
23
3
-6
-31
-12
-17
11
-7
40
49
34
18
3
-29
-10
-3
1
5
39
53
31
-20
-34
12
-15
-5
9
10
22
43
36
-5
-27
-41
-43
-6
15
47
59
36
19
-12
-11
-33
3
-3
9
42
44
40
12
-4
-9
-45
-36
-1
17
17
43
30
23
3
-19
-14
-10
-9
-4
-1
22
47
33
24
4
-6
-26
18
19
20
33
40
27
4
-17
-16
-3
7
16
24
54
56
38
23
-13
-5
3
45
36
43
36
44
47
26
-13
19
20
14
5
13
45
76
34
13
-9
-3
6
10
12
37
38
6
7
-10
-31
-25
-16
-3
9
54
40
26
11
-1
-16
-16
-21
6
17
27
35
15
2
-12
-63
-29
-24
-8
-5
32
55
85
90
100
108
141
198
248
270
300
315
267
239
214
185
138
67
49
25
3
38
21
-10
-26
-49
-35
1
2
22
42
41
30
-9
-31
-18
-15
-4
9
11
11
23
18
13
-28
-32
-24
-14
36
27
37
31
28
-8
-9
-7
8
-14
24
32
49
40
18
8
2
-5
3
-1
8
19
45
29
0
18
-4
-29
-18
41
49
49
52
40
36
-9
-9
-16
-38
25
36
61
45
48
23
16
-2
1
16
14
28
35
52
36
29
5
23
24
43
23
36
61
50
60
51
41
15
22
32
45
55
77
78
67
47
53
28
36
40
59
71
69
69
77
83
41
20
30
59
71
83
90
98
60
42
44
29
1
22
53
79
85
74
58
47
14
-14
-3
27
30
27
61
69
59
26
12
-15
-17
1
20
34
62
44
25
30
7
-19
-6
4
4
17
37
29
25
23
9
-1
-6
18
3
26
19
25
21
39
18
2
3
10
20
28
43
44
11
31
1
-13
-11
24
41
31
49
33
20
29
15
-19
-23
-5
14
64
49
37
31
27
0
12
18
15
18
34
21
32
52
1
1
14
17
37
41
68
51
47
43
37
2
-13
-11
32
36
62
73
66
45
26
5
10
26
33
51
56
57
26
23
31
24
17
9
19
40
67
63
48
42
17
8
17
13
14
47
62
58
44
55
19
-2
-1
-17
12
54
76
83
48
25
24
3
-13
-15
34
54
60
67
54
38
36
1
0
2
32
50
64
56
47
21
13
53
24
26
49
73
75
86
51
36
35
10
1
33
56
57
85
86
73
43
28
7
-13
-8
19
38
54
50
50
24
29
-2
12
21
29
43
45
54
39
24
17
-4
-21
-15
-10
36
73
62
44
17
-17
-34
9
0
8
10
35
47
39
21
22
35
69
93
132
170
239
279
291
277
226
200
223
236
225
212
157
113
59
15
-24
-25
-18
17
7
27
30
22
36
10
-14
9
17
9
10
45
50
54
35
22
-3
0
-3
20
29
45
37
35
29
20
9
4
-4
0
28
79
65
40
24
13
-4
-13
-6
27
31
56
63
56
26
14
-15
-23
20
47
45
58
54
49
20
12
5
-2
30
39
25
52
62
46
40
32
19
14
22
43
38
77
73
43
21
7
11
5
33
44
69
83
80
69
59
37
20
28
33
57
78
87
76
88
68
65
32
26
64
71
88
99
64
62
73
46
49
66
82
77
104
101
100
89
64
40
39
54
63
62
83
91
88
84
54
9
10
27
13
46
95
56
63
57
37
1
21
22
36
29
63
64
60
42
17
-9
-30
-2
41
43
71
64
62
29
9
-20
-8
25
34
41
48
55
44
57
41
-19
-13
9
24
55
68
66
46
8
21
-21
-3
28
45
40
63
62
33
11
23
-6
-5
12
22
36
52
67
49
47
26
5
15
10
19
36
49
46
33
19
18
8
3
8
27
59
68
74
66
33
19
-3
-1
13
3
45
87
73
39
14
-3
-27
19
43
56
52
69
61
50
32
17
4
0
17
14
23
78
76
47
32
19
-1
11
18
31
71
67
44
26
24
5
2
16
22
41
61
61
64
42
22
-24
-15
10
30
45
52
44
55
46
32
7
-1
-4
28
45
60
54
58
31
17
-1
6
11
30
38
58
52
43
49
41
10
18
19
38
61
83
66
71
45
56
11
6
19
35
33
66
83
66
43
33
11
21
29
37
32
45
47
80
41
15
1
-2
2
-2
16
33
70
49
29
15
-1
0
1
21
21
46
45
37
34
30
-4
-10
-13
6
19
41
32
12
-4
-12
-26
-24
3
34
79
145
189
184
202
223
237
252
298
301
280
279
261
236
188
95
65
50
45
25
22
52
72
62
25
-6
4
8
-2
26
35
49
14
20
8
-27
-14
-2
23
28
40
47
47
26
19
-4
-7
-7
-2
31
56
41
42
24
10
-12
-31
-41
9
26
64
49
49
21
4
-19
-12
15
21
13
70
47
48
20
18
-16
-8
-3
32
33
57
56
47
25
20
-2
-3
1
8
29
40
72
48
28
20
-17
-26
23
30
30
60
65
63
45
36
-5
-3
16
40
36
68
53
44
25
65
18
19
40
62
62
77
73
72
54
45
-1
34
47
51
64
88
85
61
58
33
20
20
33
53
73
85
84
56
31
-1
33
18
29
38
55
79
63
43
20
4
4
17
11
28
38
65
54
19
17
-5
-26
-4
10
54
52
50
51
39
11
-4
-7
-18
10
17
28
44
32
27
24
5
2
0
17
40
54
45
32
19
12
-13
-3
-5
11
14
30
72
59
47
21
-3
-5
-4
-7
2
37
72
49
29
16
-9
-18
-2
10
17
54
42
43
30
13
-7
0
7
14
28
48
40
30
23
21
-9
-16
1
6
16
53
51
59
30
20
-13
-13
-4
26
33
44
53
46
15
-5
-30
9
7
38
37
55
41
47
22
13
-4
-9
-6
19
36
32
39
38
18
17
16
-13
11
14
35
42
38
41
31
1
-3
-8
7
23
40
52
48
43
29
2
-14
-5
-3
34
40
60
38
32
22
9
0
-7
2
-13
11
68
51
41
19
2
0
-9
-2
31
46
57
39
25
1
-5
9
5
20
34
57
45
6
14
37
-6
-2
10
20
6
36
47
38
42
27
5
13
8
6
23
50
37
33
0
-16
14
9
-1
22
19
34
70
32
26
12
-21
4
-2
21
23
56
36
26
20
11
6
2
6
27
30
43
48
31
6
-4
-33
-10
5
50
46
65
70
45
26
16
-13
-16
2
27
36
61
60
48
16
24
4
29
45
56
43
76
66
12
9
50
22
15
25
42
53
75
51
71
21
14
-1
4
37
31
30
47
48
29
14
15
-4
-25
2
24
23
41
54
40
11
-7
-6
-4
13
26
40
33
42
30
-18
-14
-15
-35
-31
-4
23
32
40
48
61
64
85
128
179
227
254
322
331
326
308
244
234
244
246
209
175
157
119
74
44
-24
-24
0
16
19
45
57
47
35
11
-10
-3
1
5
23
22
32
20
34
12
-26
-23
-3
19
32
30
39
32
17
7
-20
-23
-22
-2
11
68
51
13
4
18
-3
-7
-2
7
30
56
59
47
18
16
-11
8
-8
-12
13
28
55
41
29
3
-2
2
3
21
39
65
59
49
17
7
-11
-26
7
30
40
30
51
35
8
31
14
10
23
46
56
81
61
39
-2
-9
-18
17
48
56
63
76
82
67
37
18
24
28
41
58
70
79
76
58
55
44
30
37
48
64
70
75
94
70
42
27
19
52
70
72
61
70
65
35
15
35
32
20
37
45
60
75
57
38
25
11
1
4
22
27
76
56
46
38
24
1
3
10
20
21
51
60
49
13
-11
-3
36
23
40
30
37
51
46
31
26
-13
4
13
19
30
61
55
42
23
7
-18
-10
8
33
46
54
57
40
41
37
-1
-1
6
24
33
57
48
27
15
10
-25
1
28
35
45
52
51
53
32
43
-10
-4
9
28
44
50
54
41
27
7
-28
-58
-10
49
50
52
63
49
6
25
-4
16
37
39
44
54
23
56
15
20
-3
2
26
39
41
65
53
37
25
9
-13
0
29
40
48
56
46
32
11
-3
-3
-7
21
32
39
59
60
38
17
-6
-6
5
33
58
61
12
51
50
15
-18
-4
16
17
17
38
40
37
37
35
0
-5
-4
2
15
74
57
29
24
27
1
-14
-6
28
34
66
60
50
39
31
-3
11
16
32
34
42
29
41
29
28
-7
-15
2
25
33
61
65
46
12
13
-9
9
16
32
31
51
57
37
34
23
-9
-3
7
22
36
50
55
46
17
31
-32
-14
-2
28
26
49
53
65
38
46
-12
-14
4
15
39
60
63
42
16
14
-5
-3
8
21
43
57
48
48
15
-4
-6
-7
13
30
56
54
16
21
52
21
1
-15
9
28
46
65
58
42
37
-4
-10
14
7
24
30
65
61
33
24
16
19
6
31
32
55
68
56
42
35
7
5
18
13
30
90
76
73
51
44
15
11
39
44
46
67
80
79
55
41
14
23
31
60
54
66
54
47
32
13
-29
-6
5
8
35
51
48
40
31
40
1
0
16
35
28
44
38
31
7
5
-5
12
7
16
27
44
39
20
0
-5
-38
-26
4
68
100
139
149
169
207
242
259
289
308
325
337
333
313
291
223
166
94
56
52
49
44
72
71
24
-11
19
3
9
12
25
36
62
54
33
21
8
-13
-21
6
17
37
53
60
58
21
-10
4
-13
-15
15
46
51
42
23
18
1
-9
-11
-5
36
39
59
45
32
30
9
5
1
0
27
50
47
35
28
13
-4
-4
7
25
53
60
40
35
33
6
-40
-1
19
21
36
49
44
47
28
38
8
6
7
17
37
60
61
25
38
32
20
11
4
38
46
70
64
62
38
31
14
20
20
52
72
67
69
63
54
36
8
29
45
52
67
92
77
57
59
53
40
28
52
55
69
99
81
71
60
48
13
8
27
40
71
80
76
60
43
22
-50
-8
51
50
53
70
56
35
43
27
-2
2
20
37
48
61
52
34
31
11
-7
-4
11
46
48
54
63
31
25
6
-8
-13
12
32
31
54
67
50
32
-2
6
-4
22
37
53
63
51
31
40
28
-1
6
15
40
63
56
57
49
24
12
3
12
28
38
36
57
66
42
29
-2
5
-11
4
47
60
44
64
51
43
11
-4
8
15
21
59
70
63
44
29
8
7
15
34
50
52
54
41
18
16
10
1
15
34
38
55
56
57
41
31
5
4
14
26
39
65
58
29
21
34
15
18
24
32
43
70
51
27
42
33
-2
10
18
28
40
51
43
25
47
27
-16
10
21
33
41
64
61
39
36
12
-25
-16
-14
29
54
72
68
44
30
25
11
22
-1
7
40
64
63
36
18
19
1
1
3
16
53
61
62
49
18
7
3
10
27
11
56
58
58
39
20
4
6
3
17
39
78
60
48
42
13
-4
-3
-12
-16
29
38
57
59
43
35
20
4
1
23
36
55
58
52
40
27
5
6
9
22
17
51
40
54
36
23
-4
-2
4
29
42
62
71
49
20
35
-11
6
10
34
48
63
52
47
44
52
12
29
30
49
60
87
78
62
35
31
-11
0
26
48
51
76
74
62
34
15
-6
-8
7
20
31
54
49
42
24
6
-6
-9
-5
25
27
48
49
34
34
9
-18
-1
7
13
27
44
34
22
6
0
-42
-25
-12
-12
0
37
39
42
22
56
73
124
170
206
245
327
360
330
300
262
229
226
217
179
130
99
79
36
12
-28
-25
-6
11
19
35
51
44
22
5
-15
-11
-2
10
32
27
15
37
29
19
-20
-13
5
2
18
44
46
43
17
1
-42
-20
7
13
24
52
58
49
31
13
-12
-6
-8
-1
13
50
45
42
29
13
-8
-10
-10
3
12
60
46
40
12
9
-6
-18
-11
13
49
53
45
50
36
17
-22
-27
25
32
38
75
53
43
25
20
-2
-4
14
31
48
61
49
44
34
27
-10
16
45
51
52
72
67
57
41
36
7
9
50
59
61
85
71
65
62
35
36
35
44
63
73
89
80
65
69
34
35
35
50
57
64
87
82
35
34
33
21
16
10
11
43
61
56
38
30
18
9
-16
6
20
60
52
35
11
38
19
2
0
18
23
29
40
54
33
21
6
0
15
12
31
49
54
36
14
10
6
7
3
12
16
23
55
79
34
-3
-14
-17
5
32
34
53
48
36
15
0
-24
21
19
19
38
53
45
35
28
8
-24
24
11
15
34
55
56
44
23
18
-2
-12
-1
26
45
59
48
42
23
24
-3
-13
10
23
35
72
60
41
22
0
8
15
15
35
27
59
65
51
28
23
-10
11
5
14
26
46
54
29
27
37
-1
12
10
23
37
48
47
28
26
25
0
-9
21
35
43
56
52
37
27
8
-10
-5
13
17
41
58
56
37
-13
3
-3
-4
10
19
32
44
42
22
17
18
4
-4
14
27
46
63
54
35
12
-9
-14
5
12
23
42
52
33
29
18
0
-1
5
16
27
41
46
52
30
6
-15
4
-3
28
38
50
54
34
3
-8
-8
-9
12
33
35
54
20
33
19
15
-17
-17
-9
17
29
44
49
39
18
5
-10
-11
-4
22
21
53
47
51
29
34
-17
-35
-14
9
20
40
36
32
4
10
-32
-37
0
39
34
54
54
44
25
25
18
5
-13
6
12
43
46
45
19
9
-1
-11
-4
22
48
67
75
64
39
17
6
6
39
51
20
1
48
52
36
23
-7
0
-10
9
42
45
37
24
8
-12
-23
-18
2
18
40
49
28
21
11
-11
-22
-24
-22
-3
3
-10
43
30
12
-12
-11
-23
-15
-11
4
21
11
-6
-21
-46
-27
10
47
102
139
165
222
261
281
285
288
280
269
270
281
257
202
107
90
56
46
14
16
22
53
38
40
32
40
3
-6
11
21
13
42
40
43
21
10
-19
-29
-19
3
-8
35
27
19
23
11
-18
-24
-7
8
11
32
2
18
9
9
-33
-28
-13
7
24
37
36
16
8
0
-21
-28
-13
-2
1
27
25
24
8
-9
-31
-24
-6
-11
22
36
38
32
3
-16
-13
-15
0
19
22
43
33
18
17
18
-28
-20
-10
14
20
28
39
31
11
8
-12
-17
-13
1
28
29
24
58
29
0
-5
-1
18
28
47
47
57
40
33
-2
-2
20
22
32
41
48
54
40
14
11
15
29
33
47
53
59
51
44
33
-3
-11
1
6
33
55
45
23
17
9
-17
-27
0
-8
23
38
33
-2
8
3
-30
-16
-13
-5
17
38
43
24
-10
-9
-18
-18
-29
-14
1
40
31
23
-5
-4
-29
-28
-16
1
6
30
27
26
9
-2
-36
-43
-3
-8
6
33
27
35
4
-11
-18
-27
-29
-11
4
22
16
30
11
-8
-21
-32
-23
14
6
25
32
25
-11
-12
-25
-38
-24
11
28
42
25
9
4
-8
-30
-18
-4
-1
18
25
35
25
12
-13
-32
-22
11
-8
8
33
48
15
-1
-12
-45
-20
-21
20
22
27
13
-3
19
-6
-42
-16
0
16
31
46
39
16
13
-17
-27
-31
-18
8
30
35
27
5
11
-19
-15
-25
-10
8
36
39
27
-4
1
-23
-26
-24
-27
-3
24
20
52
19
8
-42
-36
-11
1
18
34
31
25
10
-15
-46
-34
-3
15
1
38
27
31
10
-2
-28
-22
-20
-10
18
46
40
13
-3
-12
-16
-38
-10
15
27
37
17
23
24
6
-25
-18
-6
4
15
20
27
24
-7
-11
-8
-10
-6
12
21
35
38
23
11
1
-16
-11
-7
-39
-8
60
45
26
-4
8
-23
-11
-12
0
33
48
45
26
15
-10
-26
-28
-20
33
28
52
45
26
7
6
-12
-17
-5
9
26
20
38
39
25
36
13
14
20
47
63
62
64
39
19
-8
-19
-4
30
34
57
53
42
16
28
-12
-14
-21
-3
-3
15
14
26
26
7
-21
-20
-18
4
-12
19
8
24
19
4
-17
-21
-23
17
4
37
39
10
0
-17
-51
-48
-36
-15
-17
16
27
33
65
99
105
138
180
236
280
326
326
308
296
268
235
212
177
119
77
101
89
42
-16
-12
-24
-47
-6
13
10
34
40
20
10
5
-36
-18
-15
-18
0
33
22
29
6
-4
-24
-22
-32
-19
-13
49
55
31
-3
-19
-31
-28
-21
-6
10
32
40
27
-6
-1
-9
-18
-13
6
22
26
28
1
-12
-20
-37
1
11
-14
-5
35
24
30
19
-4
-10
-24
-14
33
30
36
34
15
7
-6
-13
-16
2
15
30
45
45
22
5
-3
-5
-4
-3
18
24
46
55
45
24
-4
-2
9
12
34
66
72
68
49
28
-9
-2
16
33
63
74
81
66
46
35
6
23
23
30
41
60
64
52
69
55
25
17
9
19
45
82
72
60
41
17
-7
18
22
21
22
45
42
36
14
14
-7
-9
-2
2
22
47
51
36
19
2
-16
-7
4
13
2
43
27
33
23
-2
-2
-28
1
21
30
30
51
34
1
2
-26
-34
-9
24
3
57
66
45
11
6
-17
-19
5
12
26
34
36
22
12
-3
-17
-2
-8
-1
28
56
54
39
11
3
-20
-3
8
28
38
47
50
27
9
5
-18
0
-5
6
19
48
45
32
2
-7
-1
-6
27
22
37
52
56
32
12
-1
-20
7
15
18
49
60
35
6
2
19
-3
9
23
22
40
61
48
10
-13
-21
9
18
6
19
58
53
45
34
5
4
-4
-7
24
16
22
52
37
31
18
-13
-16
14
17
35
58
54
13
18
7
0
3
4
12
2
64
49
26
1
-8
8
4
21
25
25
59
51
34
19
10
-3
10
-8
6
-1
38
62
36
30
5
3
-1
14
26
25
46
43
36
11
0
-5
-4
6
24
14
36
34
37
33
24
-22
-15
18
17
29
57
52
42
29
6
-7
6
-6
17
51
62
46
39
47
17
9
18
27
48
53
65
66
51
22
3
2
10
16
44
51
67
68
32
23
-18
-26
-12
8
8
42
45
37
18
21
-24
-33
-17
-5
1
36
28
46
29
15
-34
-29
-14
5
22
27
21
49
24
-2
-38
-47
-33
-31
-30
16
35
48
38
47
72
113
137
198
238
292
313
286
270
241
236
225
197
149
105
73
47
35
-5
-14
-43
-36
-25
-12
-3
19
18
2
14
24
-8
-23
-14
14
15
44
42
30
7
2
-26
-31
-18
4
17
31
29
34
33
6
-30
-22
-10
-10
12
34
55
49
29
8
-10
-13
-3
2
16
45
61
30
11
4
-14
-8
7
16
38
54
47
37
23
-4
-28
-5
1
31
39
63
50
50
17
7
-5
-8
7
28
53
68
58
40
23
-17
-4
32
42
49
55
80
56
46
26
5
27
39
42
53
65
76
62
63
40
33
24
33
58
59
82
93
57
90
78
41
42
40
75
73
99
96
94
71
68
36
29
50
56
54
78
89
83
52
43
3
8
10
34
57
67
72
51
26
22
4
12
20
23
30
50
41
34
26
21
4
7
14
36
36
64
60
37
20
20
-4
-4
11
32
26
59
69
34
23
18
-20
-21
9
36
28
39
49
54
38
0
-16
-21
24
41
32
63
60
38
13
7
-27
7
11
35
30
31
59
38
18
12
-14
4
14
38
40
44
45
14
13
-2
3
8
15
24
67
75
64
39
22
20
12
-10
0
39
58
57
51
35
25
5
13
7
18
32
31
44
71
49
33
3
-12
1
10
39
51
56
42
30
28
-3
2
1
36
43
60
60
41
34
19
6
9
3
3
7
65
50
33
28
17
2
-2
13
19
36
60
57
51
21
6
-22
-15
-4
15
45
62
70
57
39
23
-9
3
22
26
38
63
68
39
14
28
29
34
18
43
20
95
80
69
50
36
3
6
19
27
32
73
82
64
36
21
-7
-5
8
15
35
53
57
57
29
-2
-21
-6
8
17
26
66
58
18
-18
19
8
-1
9
22
9
52
60
26
9
8
-25
-9
-17
-7
-1
22
7
26
27
28
30
65
138
187
232
266
302
315
309
264
243
234
234
213
188
143
100
68
36
-4
-23
-24
-12
5
35
55
44
34
19
7
-4
-3
0
17
48
60
41
25
-2
-12
-2
0
23
16
44
45
34
32
28
-20
3
4
29
23
45
45
32
26
14
-13
3
14
17
24
52
47
49
41
6
-14
5
20
34
24
59
60
42
20
21
-9
-16
28
27
36
79
53
50
37
31
-7
3
0
37
41
57
70
58
49
37
7
0
10
48
42
59
66
71
57
45
34
21
21
53
61
89
70
69
56
52
14
53
55
61
64
89
103
75
81
56
21
41
53
81
92
107
106
80
67
54
33
26
49
69
92
114
92
80
58
16
25
26
24
38
62
74
78
55
46
16
5
14
24
57
54
66
51
61
44
7
25
9
28
45
57
56
42
55
55
9
19
15
29
54
72
53
53
50
39
2
-5
18
23
47
69
62
64
18
9
-35
-39
-48
-20
-14
17
7
17
16
13
-11
-22
-2
21
16
43
53
46
14
-2
-26
-6
5
39
24
59
73
57
37
28
4
-7
11
35
53
63
59
38
44
26
12
14
15
0
43
62
64
64
40
24
0
-1
25
46
54
56
85
65
47
28
7
19
33
58
53
64
59
54
43
34
15
8
31
42
48
53
59
42
40
38
14
19
36
42
62
81
60
47
46
31
14
9
37
34
56
69
74
66
37
22
17
9
16
39
70
74
50
44
59
42
17
20
35
45
60
86
75
53
51
23
19
22
36
49
80
88
74
61
51
10
22
36
52
48
73
85
95
83
72
37
39
62
80
76
101
90
76
70
39
33
41
49
70
77
91
109
88
53
51
22
15
46
36
52
86
81
68
57
44
18
6
25
53
54
91
82
64
50
31
12
-4
36
56
66
91
81
67
47
13
1
-3
13
41
40
58
98
125
119
143
164
184
238
282
340
362
394
359
310
310
261
225
184
153
136
149
137
79
69
51
31
31
40
65
80
100
80
50
63
62
21
19
39
55
67
93
80
72
67
45
35
45
47
49
60
92
70
82
65
25
21
36
66
73
93
106
91
83
66
36
45
47
64
81
96
81
86
66
64
31
42
42
50
79
111
120
98
66
74
51
55
57
52
83
102
98
98
79
56
80
82
62
81
88
110
103
110
98
75
49
54
68
78
97
129
135
119
101
70
81
80
59
76
102
134
152
138
113
112
77
77
98
116
118
156
166
137
117
106
77
83
126
120
134
159
150
138
115
118
95
73
86
116
134
165
153
125
93
103
85
84
87
95
92
149
143
121
101
79
57
74
92
116
120
134
126
107
81
86
69
65
84
96
108
140
133
130
99
70
54
53
100
114
132
141
123
112
94
83
60
70
94
105
128
135
132
112
83
83
70
88
93
97
116
134
128
100
102
56
70
94
95
109
133
132
113
105
94
74
80
88
91
102
113
125
106
96
99
77
81
79
107
107
125
136
125
109
104
67
65
79
85
96
123
134
131
120
102
73
70
94
96
114
121
125
121
93
90
61
73
87
90
110
128
131
126
109
95
72
53
73
88
97
141
142
118
87
106
75
68
80
84
111
140
134
116
107
78
53
76
79
90
92
121
114
103
109
61
87
80
105
109
109
129
126
107
83
70
78
75
88
99
113
120
113
116
102
73
60
71
91
100
119
123
124
113
104
87
66
70
81
109
109
124
124
113
90
67
73
76
95
112
120
118
118
101
99
72
70
75
96
106
120
133
124
104
97
62
69
76
92
93
114
126
115
129
96
90
76
72
97
113
132
145
119
102
96
77
83
79
99
110
156
172
142
121
138
74
98
104
124
132
150
146
120
111
97
56
66
114
128
121
152
123
122
109
87
50
72
77
96
85
99
105
114
101
94
68
64
75
98
112
112
126
113
88
69
66
58
80
87
74
97
124
79
65
67
54
60
77
103
158
213
239
256
260
300
354
356
386
393
394
384
356
298
285
230
164
149
137
126
98
103
131
122
112
69
58
74
81
105
114
116
123
90
82
54
70
78
92
105
125
110
127
121
86
80
61
60
90
90
114
112
116
105
102
58
64
70
90
112
123
130
113
106
92
71
71
82
101
80
124
121
113
108
97
76
63
64
97
123
134
143
133
112
100
76
72
88
100
105
142
132
122
112
109
76
74
81
105
123
109
139
132
100
107
78
90
107
115
137
148
152
147
127
111
92
83
105
123
128
152
149
153
145
140
103
99
124
149
140
154
166
158
139
143
119
100
129
101
139
159
172
164
147
113
113
123
117
119
145
141
152
138
117
112
100
91
96
99
129
145
134
121
119
91
82
75
84
103
134
146
130
125
116
98
74
81
101
123
115
139
124
113
110
88
69
77
85
119
142
145
131
114
108
100
90
87
90
90
142
126
122
128
109
89
83
86
107
102
135
148
139
111
97
70
94
93
107
112
126
124
125
124
99
78
76
85
112
119
129
133
119
98
87
56
45
71
119
129
144
135
123
108
89
80
55
72
95
117
151
125
111
115
90
88
78
83
93
105
132
131
120
97
112
73
67
85
135
133
129
121
112
101
73
76
79
95
104
138
137
128
112
97
94
80
84
98
116
102
131
133
130
114
94
77
65
64
104
121
134
132
110
100
93
101
76
97
106
117
130
108
125
107
79
77
86
104
99
125
143
113
114
106
81
81
86
79
114
120
138
130
103
106
96
74
85
94
114
129
132
127
117
105
70
60
44
56
134
153
143
136
113
102
77
76
87
98
107
133
130
127
106
90
77
88
81
97
104
120
115
109
94
108
75
73
88
104
101
113
113
113
135
94
83
74
84
83
83
118
151
133
105
102
89
82
88
107
100
110
109
134
129
102
79
77
80
107
129
151
148
129
108
109
88
87
80
110
141
169
162
147
134
128
81
84
83
106
144
150
136
130
118
117
84
91
93
112
114
126
117
122
106
90
83
80
88
91
116
114
123
127
96
92
64
73
75
109
129
140
107
121
106
87
67
52
64
63
87
108
98
86
65
64
123
150
174
212
267
306
351
371
403
387
390
366
353
365
355
315
252
201
160
117
96
82
74
80
112
146
133
119
112
78
54
88
87
97
112
134
113
84
82
49
68
72
93
94
132
129
115
105
83
57
68
67
93
104
128
126
109
97
77
54
66
71
83
76
149
140
134
87
98
71
61
84
106
104
109
79
107
113
110
71
58
98
100
100
136
118
123
95
100
83
75
83
89
103
130
144
139
107
98
74
72
76
104
132
141
143
139
98
84
89
95
97
126
134
147
155
139
113
105
86
95
92
131
146
156
164
140
136
134
117
105
128
144
148
174
156
156
135
139
103
85
108
141
174
172
160
155
139
109
90
94
110
124
149
137
124
119
125
95
92
95
108
118
129
119
126
109
81
81
74
91
85
110
141
150
127
108
97
76
80
87
90
103
128
130
123
101
105
93
69
98
98
110
138
133
126
114
94
67
70
80
82
79
132
132
132
116
91
71
78
96
112
95
131
135
124
94
104
72
68
92
102
102
138
125
116
110
86
81
76
71
87
110
145
124
98
76
99
90
88
88
106
110
119
118
111
106
75
89
90
93
102
120
134
119
110
93
77
59
63
90
107
114
129
122
119
101
86
70
70
86
100
114
131
124
112
94
84
59
70
84
99
107
108
130
129
95
69
66
84
82
89
112
124
107
91
112
85
70
76
81
100
122
129
107
105
76
56
71
79
98
98
120
116
118
85
91
63
63
61
92
100
114
119
110
98
80
44
61
83
76
75
107
101
117
93
76
54
67
71
89
95
107
116
116
90
85
62
65
72
59
75
112
124
127
74
83
63
52
44
64
71
109
122
135
101
79
57
65
58
93
95
127
126
110
96
87
65
72
80
109
119
131
132
124
98
72
62
66
73
79
97
134
135
113
97
76
46
48
53
70
87
105
94
76
76
65
30
47
55
71
79
89
105
88
67
49
39
54
70
78
87
114
80
85
57
35
11
-5
18
34
64
95
105
111
125
124
148
184
245
296
359
384
382
355
322
288
283
265
215
166
141
122
109
82
60
36
34
29
51
57
77
88
71
65
70
39
40
40
54
72
85
88
71
63
55
29
34
27
47
62
82
87
54
42
39
47
31
38
48
52
66
86
88
68
53
26
41
39
57
47
96
76
57
24
29
26
18
44
61
46
74
88
76
56
45
21
26
39
65
67
97
81
73
51
40
12
-4
26
50
67
102
103
86
47
37
58
28
32
68
76
100
94
90
67
42
18
38
58
59
74
101
107
84
75
66
39
29
52
74
91
98
111
107
88
68
60
59
62
67
102
123
121
91
58
56
50
52
69
85
91
88
80
88
48
37
28
32
46
52
73
72
69
42
41
39
27
35
46
50
68
87
58
56
34
17
-7
10
42
63
67
74
55
34
17
22
4
8
45
61
76
75
50
45
19
5
-5
39
51
60
78
75
53
42
20
2
6
20
31
46
100
77
64
50
15
5
27
31
42
55
92
75
66
60
43
4
16
30
47
64
88
75
68
67
67
-2
-16
16
54
56
95
81
80
77
41
32
31
51
44
34
79
118
70
55
54
29
15
43
52
62
87
89
77
59
39
23
18
38
57
64
78
65
77
49
39
18
47
41
39
70
68
72
72
57
50
25
24
38
41
54
76
95
70
65
37
36
28
43
42
58
82
71
49
54
12
2
18
43
65
81
82
73
58
34
20
17
29
46
36
78
58
31
85
45
50
15
22
16
68
101
93
67
40
42
23
24
23
39
52
76
66
79
27
34
19
17
17
33
26
62
73
64
55
50
22
20
11
4
47
91
74
53
58
47
21
18
25
47
59
66
62
15
54
56
-4
26
43
35
48
63
73
51
34
59
22
18
33
35
42
49
59
48
52
27
19
22
34
33
39
74
64
39
36
19
-4
14
21
58
64
67
79
52
54
38
24
22
36
51
56
81
69
50
35
32
18
19
26
26
35
73
52
54
40
10
3
-2
8
5
36
54
55
10
-2
-31
-24
-25
12
11
49
62
38
19
15
-12
-9
-20
14
1
37
25
27
-4
-9
-31
-45
-58
-1
0
40
69
83
83
99
117
139
188
238
281
332
340
329
286
238
204
211
168
133
85
97
81
59
21
6
-17
-13
-26
-15
-1
62
70
57
37
22
-20
-15
14
41
29
53
45
38
20
9
-9
-16
19
28
43
46
57
48
32
28
17
0
4
10
29
66
85
61
41
22
6
17
20
8
46
74
63
51
45
25
15
11
31
46
58
79
70
54
49
31
0
11
20
36
75
86
89
72
44
36
40
26
43
69
78
77
97
75
56
26
25
43
44
72
89
98
90
85
61
46
54
47
66
72
93
101
106
77
66
76
65
51
69
99
120
123
113
109
95
79
79
91
94
90
93
91
125
105
93
74
59
67
79
86
111
114
100
73
57
23
33
58
70
80
105
105
89
68
56
-1
24
45
69
56
75
85
72
73
59
12
28
10
64
67
86
81
68
52
39
13
2
-3
17
65
109
89
80
51
27
-29
11
54
60
54
77
70
58
45
37
19
12
26
37
56
70
68
57
35
13
1
24
45
44
50
50
69
88
53
26
19
22
27
38
57
76
77
53
43
17
-8
18
27
44
64
57
42
43
54
30
17
13
24
21
60
81
45
49
58
29
-10
19
24
33
57
65
51
58
51
24
18
30
31
34
72
68
65
64
38
20
22
19
33
43
56
75
61
29
19
39
28
22
41
47
53
56
53
60
44
21
17
15
27
61
55
72
60
43
20
-1
19
22
20
38
76
63
52
41
63
11
21
21
43
42
70
78
51
32
31
3
-3
23
40
62
68
77
68
37
47
26
15
23
38
54
56
38
68
63
37
6
17
14
33
26
57
85
80
45
41
3
-11
17
52
24
61
76
57
61
20
21
13
38
48
54
67
58
38
56
30
14
13
31
46
55
65
59
40
46
31
2
18
10
48
60
70
71
53
56
31
16
10
21
31
23
69
60
36
26
17
0
16
40
39
78
88
75
44
44
26
39
27
47
64
76
45
70
42
44
34
31
30
61
66
97
100
72
60
42
22
18
32
20
67
101
93
60
58
44
24
14
26
33
34
51
56
54
35
12
1
5
10
41
32
64
55
54
43
32
1
-7
-7
37
51
58
41
29
36
32
-2
-23
-1
11
23
47
59
69
72
99
99
131
160
227
274
335
345
335
336
310
250
262
228
188
138
77
102
107
73
26
-1
-22
31
35
55
61
73
57
41
26
19
-5
29
21
39
47
35
11
40
20
1
10
33
34
35
55
77
38
7
6
-30
-10
32
53
65
77
54
52
26
22
14
-6
21
32
68
75
62
42
19
17
7
23
30
43
63
73
56
39
32
10
-17
-3
4
69
89
60
70
50
43
9
19
17
50
60
73
67
71
44
47
29
30
28
50
59
71
83
54
42
46
35
20
45
64
61
93
87
86
61
54
25
19
21
64
86
102
71
89
88
75
56
61
43
75
87
110
112
96
64
66
25
33
33
68
78
99
96
95
68
59
44
41
36
62
52
72
71
35
73
48
25
25
22
59
74
80
63
31
44
24
10
6
25
45
51
67
78
59
31
34
11
21
27
41
53
62
76
58
17
41
20
1
30
38
44
71
73
51
23
25
36
21
36
51
76
72
72
61
49
13
10
4
25
34
43
72
62
58
49
28
12
44
48
54
62
77
73
50
26
19
9
-6
23
36
73
101
90
64
54
34
20
19
41
44
65
85
61
50
49
27
36
16
38
65
86
91
79
60
44
17
4
22
30
45
78
69
71
35
44
20
7
24
63
63
50
74
59
46
41
26
21
23
25
52
65
50
69
41
45
15
9
26
42
46
50
64
50
50
30
-2
-1
46
50
51
78
58
48
-15
26
17
5
31
42
51
81
71
51
40
29
7
6
8
8
45
42
89
77
45
45
27
8
-4
35
49
62
44
31
43
12
-26
12
26
47
55
73
70
52
33
12
-8
4
15
44
72
70
61
61
39
19
12
8
15
72
66
84
74
60
43
40
41
44
44
50
39
71
81
55
53
31
27
20
32
61
79
69
68
50
30
-11
6
8
31
38
43
86
42
23
27
11
-8
3
10
31
31
63
61
35
24
-1
0
8
19
31
59
62
39
-19
-11
-44
-26
-24
-24
17
62
69
85
112
121
141
163
205
265
320
357
360
319
292
267
217
213
151
112
86
91
56
57
34
16
-12
-8
2
25
32
53
49
23
3
1
-14
-9
4
14
-4
67
63
46
27
7
-10
-12
0
25
33
50
44
28
10
-8
-23
-13
11
34
24
58
44
34
22
5
-3
-6
11
28
42
54
45
19
8
2
-11
-10
17
19
36
40
53
34
14
12
-22
-12
22
42
61
55
54
18
26
0
-20
7
23
23
43
70
49
36
17
10
8
-14
28
45
73
82
63
53
43
8
21
28
26
24
77
75
55
67
47
17
38
43
49
42
70
72
89
67
69
47
31
27
54
62
96
75
46
61
57
35
30
49
50
51
81
67
64
70
26
26
15
16
30
26
71
52
53
34
25
9
9
6
16
26
63
46
44
15
7
1
-3
-4
-15
26
49
27
58
35
19
1
8
7
29
40
54
23
38
4
7
4
17
14
31
50
40
40
27
-1
9
1
-5
6
29
43
55
49
37
5
-15
-12
1
15
23
32
45
40
36
21
-10
-9
3
26
32
47
37
40
25
25
2
-10
-8
12
25
37
34
70
42
36
-3
-13
-11
5
34
61
48
42
35
25
6
-12
4
16
31
63
44
35
33
25
-5
-10
-12
-8
29
26
69
51
18
15
2
-3
-1
20
28
45
51
46
19
13
-18
-26
4
6
6
51
56
36
34
14
-8
-27
0
34
27
23
45
48
29
25
-10
-30
2
13
25
57
57
40
25
9
-21
-19
8
13
8
57
38
43
36
-7
-11
-8
22
22
38
57
57
48
33
19
2
4
12
33
53
87
77
51
47
41
10
12
30
29
54
71
64
45
39
11
0
7
28
27
32
35
41
21
3
-1
-14
-10
8
27
38
48
53
35
12
-7
-12
1
19
19
40
38
36
7
-2
-36
-27
-10
-4
-3
6
20
13
-4
-9
-9
15
61
98
158
200
245
274
293
310
304
300
284
262
264
251
217
151
110
68
20
-7
-25
-2
4
34
49
41
22
18
-5
-20
-7
5
18
31
45
26
15
-1
-20
-28
-28
-14
20
30
35
32
16
13
-11
-15
-12
-10
4
25
17
31
25
9
-19
-21
10
21
18
31
26
21
25
8
-11
-4
2
15
26
36
27
24
12
18
-17
-18
-16
27
32
40
42
44
19
-4
-28
-6
-3
14
23
9
23
35
33
26
14
4
9
31
47
60
53
35
13
4
-9
2
31
39
63
59
70
50
36
26
-6
-11
29
37
63
80
56
43
13
36
27
44
42
66
77
91
71
60
48
31
23
8
33
39
89
85
70
55
45
15
17
22
32
29
59
62
45
33
30
0
-8
-6
-10
13
60
54
28
26
15
-14
2
2
23
26
47
53
39
4
8
-26
-27
-20
5
27
78
49
27
24
11
-23
6
2
18
33
50
36
30
12
10
-7
-6
-7
12
35
57
34
31
24
12
-24
-21
-6
11
27
63
50
41
24
13
-7
-12
-24
-10
42
56
51
41
23
12
-19
-16
-10
31
46
67
49
30
22
4
-8
-1
-17
23
47
65
60
33
12
19
17
-1
12
17
40
48
51
34
12
-29
0
14
8
4
26
38
61
32
15
-10
0
-9
23
17
47
45
41
32
9
8
-3
-11
17
26
48
45
24
15
-3
-25
-28
-22
39
49
38
49
40
1
12
-6
12
6
20
21
37
42
30
23
16
-13
-26
-7
28
19
23
39
58
32
10
-5
12
20
29
21
36
46
46
39
19
9
9
24
32
37
77
75
65
31
29
14
16
13
24
29
71
62
41
19
15
-38
-27
0
25
24
33
30
20
5
4
-20
-29
-8
2
10
35
45
16
1
-5
-9
-10
-8
-6
0
32
26
26
3
-5
-24
-15
-54
-22
-14
3
19
27
24
31
39
61
124
164
199
271
315
313
310
281
239
228
220
203
180
124
84
60
9
-19
-46
-41
-18
4
22
33
28
21
16
-8
-15
-4
-16
1
30
39
35
-7
0
-27
-36
-39
13
22
38
37
41
18
-7
-26
-26
-6
13
11
41
35
23
19
-4
-13
-5
-7
-7
24
35
37
37
22
0
-14
-14
-6
5
4
52
46
45
9
-13
-37
-19
27
14
12
56
49
55
16
24
-10
-17
9
13
41
67
60
52
34
9
-5
-3
17
49
42
59
61
44
55
43
25
20
11
26
50
61
50
44
77
54
16
0
26
80
72
97
96
87
52
35
21
35
59
73
79
90
91
69
52
52
42
35
46
72
59
85
106
73
42
4
-1
40
35
51
58
48
52
51
30
-1
-12
2
31
46
60
55
56
48
24
4
11
5
19
23
29
51
69
44
15
7
1
-3
19
31
43
43
35
38
37
16
-13
4
20
26
47
42
21
25
31
0
-1
4
19
22
51
55
55
15
-16
-17
8
16
17
15
53
50
38
18
23
-5
-17
-3
17
21
52
35
53
26
8
-11
-3
9
17
21
41
48
53
31
1
-22
-10
-12
23
21
31
45
29
14
5
-13
-22
-14
12
26
42
49
27
4
14
-17
-25
-1
16
22
46
44
28
3
-24
-16
9
6
5
14
30
17
13
12
2
-41
0
1
22
37
32
34
10
-13
24
-2
-28
-16
23
46
58
54
34
14
-22
-1
-5
11
18
54
49
46
43
43
19
0
-10
-14
33
51
59
55
38
10
18
-14
-15
6
21
26
31
28
18
-9
-22
-27
-45
-5
11
51
43
21
4
2
-14
-24
-18
2
14
32
33
33
13
-9
-35
-57
-21
-10
17
15
8
-6
-20
-15
-55
-29
-21
20
68
89
119
178
186
215
218
266
276
289
273
287
272
239
175
113
21
13
-2
25
6
33
40
18
3
4
-18
-22
-41
-17
24
27
44
18
19
-7
-27
-41
-34
-32
15
40
42
30
4
9
-22
-36
-34
-19
7
42
31
30
11
-3
-34
-21
-8
4
11
19
12
11
-7
-12
-12
-29
2
11
28
43
37
16
3
-28
-32
-26
-3
11
8
37
46
27
4
-13
-11
-28
3
11
22
51
39
23
8
-24
-23
-12
-13
17
42
50
33
8
24
7
-7
-1
10
11
52
53
33
7
5
-10
7
26
34
32
58
59
62
42
42
2
-8
6
38
38
74
72
73
53
30
3
20
14
36
45
53
58
61
50
43
10
5
12
23
32
62
27
42
27
11
-14
-4
1
10
25
42
33
53
26
24
-15
-12
1
12
16
48
47
31
13
0
-22
-33
-53
6
19
30
91
56
41
10
-20
-15
-3
23
21
53
41
39
17
11
-4
-63
-23
16
43
51
45
34
10
12
-12
0
4
19
39
54
44
39
23
-5
-26
-25
-35
-6
29
59
56
45
28
4
-10
0
3
8
37
37
25
48
-2
18
18
-3
6
6
30
38
48
44
20
3
0
1
5
22
45
52
46
27
19
4
-3
-20
-28
5
35
42
50
23
15
1
-5
16
8
24
36
38
36
18
2
-20
-18
-2
30
31
55
31
24
18
12
-10
-9
-6
9
30
44
48
32
2
0
-21
-14
-2
14
39
38
42
36
14
17
-20
0
-2
17
14
48
38
47
39
9
-10
4
-6
19
29
55
59
46
26
18
3
-12
6
23
52
62
71
61
32
13
-15
12
-1
37
51
63
79
54
31
26
1
-11
-17
3
13
38
56
26
2
11
-8
0
-11
14
24
43
18
9
5
-1
-17
-16
3
8
35
33
31
21
-8
-41
-12
-9
-1
12
4
12
5
-34
-24
-37
-49
-12
31
71
98
154
176
212
231
246
233
279
273
264
259
280
244
187
115
59
18
0
2
17
28
29
39
7
-4
-32
-32
-19
3
16
29
38
33
4
-7
-31
-26
-16
8
-1
33
39
13
11
-7
-42
-19
-27
0
24
31
23
31
14
-3
-29
-19
-10
19
0
43
29
19
2
-2
-39
-41
-32
-5
13
43
37
29
13
14
-31
-25
-11
12
9
40
39
4
-14
21
-22
-19
-4
3
6
30
38
21
29
12
-26
-38
-18
4
28
47
57
46
29
-3
-9
-17
-14
13
36
56
51
35
19
11
9
10
-1
50
41
56
46
35
19
18
-3
-4
38
45
43
62
62
41
26
25
16
2
28
24
61
84
67
54
34
6
-16
2
11
27
35
47
37
23
0
-19
-7
2
-7
14
34
42
41
16
-4
-35
-16
-13
0
10
19
32
25
9
-9
-24
-25
-14
0
4
36
34
28
9
1
-25
-27
-29
-2
9
30
29
17
23
-8
-33
-22
-25
13
5
34
38
21
3
-12
-29
-32
-20
-6
-8
18
40
5
-9
12
-38
-21
-10
-8
13
34
31
22
8
-4
-24
-32
-7
-2
-8
15
26
33
-7
-37
-31
-30
-45
10
24
28
42
14
8
-14
-46
-44
-12
10
8
19
-10
21
17
-16
-62
-23
-28
3
17
34
32
23
-1
-6
-29
-44
-28
-8
23
22
13
-38
-15
-14
-20
-36
-4
-20
14
27
20
-3
-16
-36
-50
-23
-11
-21
13
30
-2
-14
-24
-24
-48
-35
-9
2
20
9
15
-2
-23
-28
-37
-40
-30
-25
9
15
5
0
-26
-22
-38
-38
-25
-2
-18
7
0
-4
-22
-52
-42
-50
-22
-8
11
6
0
-12
-10
-48
-52
-45
-18
-15
5
8
-8
-13
-25
-50
-50
-42
-20
-17
11
4
8
-9
-22
-56
-41
-39
-15
-11
10
12
-13
-27
-43
-57
-29
-21
-8
-2
38
27
23
-4
-12
-25
-34
-40
-11
-2
29
33
8
-5
-32
-45
-36
-39
-35
-15
-1
4
-34
-27
-34
-81
-64
-53
-21
-20
-23
-23
-16
-29
-47
-78
-58
-43
-40
-31
-21
-15
-18
-23
-59
-66
-67
-47
-43
-29
-29
-35
-65
-80
-92
-88
-50
-38
4
42
91
125
120
148
163
205
222
247
243
232
236
217
157
102
9
-19
-16
-24
-38
-24
0
-7
-49
-79
-83
-69
-55
-43
-44
-17
-19
-16
-46
-58
-76
-112
-48
-45
-53
-30
-32
-10
-39
-41
-82
-96
-68
-36
-33
-19
-38
-15
-34
-35
-74
-72
-71
-61
-54
-7
-37
-14
-35
-44
-83
-77
-70
-49
-28
-25
-25
-20
-43
-39
-84
-70
-71
-73
-53
-22
-20
-25
-27
-52
-69
-63
-63
-43
-45
-19
-24
-12
-38
-72
-71
-61
-75
-33
-36
1
-21
-12
-42
-50
-52
-50
-52
-33
-27
-12
-22
-33
-31
-22
-59
-37
-37
-10
-3
12
6
-22
-25
-20
-44
-51
-35
-35
-8
40
9
1
-8
-24
-45
-38
-14
-8
-7
17
4
-2
-39
-53
-64
-54
-37
-21
-15
8
-15
-13
-43
-52
-62
-59
-40
-44
-29
-39
-53
-46
-46
-48
-45
-60
-56
-35
-17
-13
-4
-41
-49
-68
-83
-66
-48
-50
-21
-35
-61
-30
-30
-78
-79
-82
-42
-27
-25
-48
-30
-41
-61
-74
-68
-80
-91
-103
-33
7
-19
-51
-44
-68
-63
-46
-57
-51
-13
-23
-24
-44
-63
-88
-102
-82
-59
-27
-8
-9
-35
-37
-46
-75
-72
-67
-42
-36
-18
-19
-43
-47
-67
-125
-100
-43
-41
-45
-19
-19
-26
-37
-56
-74
-77
-59
-40
-50
-36
-29
-41
-67
-64
-80
-85
-76
-59
-40
-18
-24
-39
-45
-62
-84
-87
-58
-59
-70
-60
-68
12
-37
-66
-84
-90
-76
-57
-38
-23
-22
-37
-44
-64
-79
-80
-73
-59
-62
-27
-44
-48
-59
-72
-91
-82
-74
-49
-33
-29
-53
-49
-86
-73
-86
-90
-79
-41
-39
-42
-42
-43
-45
-67
-86
-90
-58
-52
-35
-43
-47
-47
-51
-63
-91
-85
-64
-48
-21
-41
-33
-47
-51
-90
-73
-66
-74
-77
-35
31
-17
-32
-42
-78
-81
-50
-42
-29
-9
-11
-23
-43
-52
-70
-73
-74
-52
-50
-12
-36
-54
-59
-67
-97
-86
-78
-63
-57
-38
-34
-47
-52
-72
-92
-111
-83
-63
-77
-28
-19
-53
-81
-73
-81
-106
-97
-93
-71
-58
-45
-42
-69
-80
-118
-122
-113
-88
-64
-19
2
23
14
67
61
95
154
197
216
211
175
181
168
131
69
-17
-45
-33
-33
-56
-69
-83
-95
-119
-104
-105
-87
-79
-39
-35
-24
-41
-63
-92
-103
-107
-99
-78
-64
-21
-50
-59
-73
-94
-102
-82
-69
-57
-51
-30
-32
-59
-77
-103
-94
-93
-63
-44
-37
-39
-41
-62
-78
-99
-99
-87
-71
-57
-23
-21
-35
-67
-76
-81
-87
-71
-58
-61
-44
-40
-26
-48
-46
-88
-78
-90
-56
-63
-43
-7
-14
-45
-60
-87
-100
-75
-67
-26
-1
-17
-28
-43
-42
-73
-71
-66
-57
-28
-23
3
-17
-39
-64
-68
-60
-46
-38
-33
10
1
8
-20
-23
-43
-49
-40
-18
-12
12
10
-6
-27
-27
-56
-65
-30
-17
-11
14
3
-11
-15
-28
-52
-50
-56
-9
-43
-15
-26
-27
-35
-51
-62
-66
-55
-36
-21
-22
-30
-26
-33
-68
-90
-84
-70
-62
-40
-26
-2
-29
-48
-66
-81
-79
-63
-52
-26
-45
-40
-36
-64
-88
-86
-87
-50
-40
-30
-22
-24
-35
-53
-71
-92
-86
-80
-67
-25
-17
-20
-26
-63
-83
-61
-74
-67
-50
-26
-19
-34
-41
-54
-80
-105
-70
-52
-42
-37
-33
-23
-25
-40
-80
-73
-83
-78
-57
8
10
-15
-39
-45
-74
-75
-71
-50
