-63
-61
-62
-69
-62
-70
-63
-60
-61
-60
-58
-61
-65
-60
-54
-59
-63
-62
-66
-63
-62
-61
-57
-54
-64
-58
-57
-58
-59
-63
-59
-57
-51
-58
-61
-65
-65
-60
-62
-61
-62
-56
-58
-56
-55
-56
-48
-52
-59
-66
-65
-55
-54
-53
-52
-52
-59
-59
-59
-60
-57
-58
-55
-50
-61
-61
-60
-57
-58
-61
-54
-57
-59
-59
-57
-57
-58
-58
-60
-56
-63
-63
-65
-63
-58
-60
-63
-58
-62
-56
-55
-62
-64
-62
-57
-61
-56
-57
-61
-58
-62
-60
-59
-61
-58
-59
-61
-60
-63
-50
-57
-65
-68
-61
-57
-65
-63
-66
-63
-59
-60
-63
-61
-65
-64
-64
-63
-62
-63
-66
-62
-58
-58
-59
-56
-59
-59
-61
-64
-67
-68
-68
-66
-68
-66
-60
-63
-57
-55
-57
-60
-63
-63
-63
-63
-62
-60
-57
-56
-64
-65
-66
-72
-71
-65
-62
-59
-56
-61
-60
-61
-63
-61
-63
-69
-66
-59
-55
-58
-62
-61
-65
-58
-55
-61
-66
-60
-61
-61
-58
-57
-62
-59
-58
-62
-60
-60
-63
-60
-59
-62
-61
-61
-68
-62
-64
-61
-59
-63
-66
-63
-62
-61
-64
-62
-60
-58
-59
-61
-61
-62
-66
-62
-62
-57
-58
-60
-56
-57
-57
-61
-60
-57
-61
-64
-67
-63
-63
-61
-58
-52
-56
-61
-65
-65
-62
-63
-59
-62
-59
-63
-62
-64
-57
-62
-62
-60
-60
-57
-62
-65
-58
-55
-58
-56
-57
-53
-52
-55
-51
-55
-57
-56
-55
-52
-51
-47
-44
-40
-45
-47
-46
-39
-42
-42
-36
-40
-44
-45
-47
-43
-45
-39
-42
-35
-35
-37
-42
-48
-47
-53
-56
-53
-56
-49
-52
-65
-71
-72
-66
-67
-65
-64
-72
-73
-68
-67
-66
-66
-67
-69
-73
-70
-70
-69
-64
-67
-74
-72
-74
-72
-71
-75
-75
-67
-60
-55
-45
-27
-2
24
48
81
115
147
163
171
167
137
98
45
-10
-54
-97
-121
-135
-138
-139
-139
-135
-136
-124
-116
-114
-105
-99
-96
-91
-80
-75
-71
-67
-67
-64
-63
-65
-61
-65
-67
-63
-62
-62
-66
-67
-61
-64
-62
-61
-59
-64
-62
-61
-58
-58
-57
-55
-55
-56
-56
-53
-54
-58
-57
-62
-53
-55
-56
-56
-58
-56
-55
-46
-42
-51
-49
-48
-49
-52
-49
-47
-47
-47
-44
-45
-43
-46
-43
-38
-35
-38
-42
-42
-36
-36
-33
-33
-33
-33
-34
-28
-26
-22
-26
-25
-15
-23
-21
-13
-7
-8
-5
-3
-3
2
2
4
6
9
12
13
13
17
19
19
21
24
23
25
25
26
23
21
18
20
14
12
11
12
14
5
3
-2
-8
-15
-16
-18
-25
-30
-35
-40
-34
-39
-39
-40
-41
-49
-54
-54
-52
-58
-54
-52
-60
-65
-67
-67
-67
-66
-66
-66
-73
-69
-73
-75
-74
-69
-69
-65
-64
-71
-65
-67
-69
-65
-67
-69
-71
-70
-70
-69
-68
-67
-69
-66
-72
-72
-75
-73
-68
-65
-72
-74
-74
-67
-65
-75
-70
-70
-70
-75
-71
-70
-72
-71
-67
-69
-71
-71
-69
-61
-63
-67
-66
-63
-67
-67
-66
-69
-69
-64
-65
-64
-64
-61
-63
-65
-63
-67
-70
-61
-61
-66
-68
-68
-65
-64
-64
-65
-67
-66
-66
-69
-59
-65
-72
-67
-67
-66
-65
-65
-64
-70
-69
-69
-72
-69
-63
-69
-65
-68
-63
-68
-71
-64
-61
-67
-64
-69
-70
-69
-71
-70
-71
-71
-71
-70
-74
-69
-72
-67
-67
-66
-69
-72
-69
-70
-68
-69
-74
-69
-71
-69
-72
-75
-71
-65
-71
-78
-74
-74
-72
-76
-76
-68
-69
-72
-71
-70
-67
-65
-72
-73
-70
-67
-72
-74
-78
-74
-71
-71
-72
-71
-74
-74
-74
-74
-69
-70
-72
-69
-70
-75
-73
-76
-72
-67
-65
-74
-81
-77
-78
-79
-76
-69
-73
-81
-77
-77
-75
-83
-81
-76
-80
-82
-82
-79
-78
-80
-82
-83
-85
-82
-81
-84
-81
-83
-79
-81
-82
-82
-86
-80
-81
-84
-85
-85
-83
-87
-84
-83
-86
-84
-84
-88
-86
-84
-81
-83
-83
-82
-92
-86
-87
-92
-90
-83
-81
-75
-73
-76
-90
-93
-89
-88
-86
-84
-84
-86
-86
-87
-88
-86
-91
-90
-89
-87
-88
-89
-84
-79
-84
-91
-88
-86
-87
-86
-88
-88
-89
-86
-86
-86
-86
-90
-94
-90
-83
-89
-90
-89
-86
-87
-84
-81
-88
-86
-89
-84
-87
-83
-84
-81
-84
-86
-84
-82
-84
-80
-74
-77
-80
-82
-84
-79
-78
-78
-81
-79
-72
-68
-66
-66
-65
-67
-66
-64
-62
-68
-66
-64
-64
-70
-70
-63
-65
-63
-62
-68
-66
-67
-69
-75
-78
-76
-77
-87
-86
-88
-86
-89
-89
-91
-87
-88
-81
-84
-94
-93
-91
-90
-88
-87
-90
-91
-97
-94
-94
-95
-92
-95
-88
-84
-92
-102
-101
-100
-97
-92
-86
-73
-48
-25
0
30
68
96
130
146
152
151
124
82
25
-24
-64
-104
-132
-144
-151
-154
-154
-156
-146
-141
-138
-130
-125
-114
-104
-99
-96
-92
-90
-89
-87
-86
-87
-93
-88
-89
-89
-88
-82
-87
-84
-87
-85
-81
-84
-85
-83
-84
-84
-81
-83
-85
-79
-77
-84
-87
-90
-87
-84
-83
-81
-78
-79
-82
-85
-81
-74
-72
-71
-78
-74
-72
-78
-79
-75
-72
-79
-82
-78
-77
-74
-71
-69
-68
-65
-64
-59
-64
-63
-63
-61
-64
-61
-62
-58
-54
-53
-51
-51
-51
-49
-50
-46
-39
-36
-32
-33
-33
-36
-33
-27
-28
-22
-20
-17
-13
-10
-8
-12
-11
-12
-4
-6
-5
-5
-2
10
3
-5
-5
-4
-5
-7
-12
-13
-20
-17
-19
-20
-24
-31
-37
-33
-40
-52
-55
-51
-55
-54
-63
-65
-71
-68
-71
-74
-77
-79
-79
-75
-77
-87
-93
-87
-86
-92
-95
-92
-85
-87
-88
-92
-93
-89
-89
-91
-92
-84
-87
-97
-94
-92
-94
-91
-91
-91
-92
-92
-93
-95
-96
-93
-87
-95
-96
-92
-92
-91
-94
-94
-94
-95
-93
-92
-92
-95
-92
-92
-90
-93
-91
-90
-92
-96
-96
-91
-82
-80
-90
-99
-96
-93
-90
-86
-91
-91
-85
-84
-84
-84
-89
-96
-85
-87
-92
-95
-93
-92
-96
-91
-88
-87
-84
-89
-85
-89
-90
-91
-94
-93
-93
-94
-92
-88
-91
-92
-88
-87
-89
-87
-86
-89
-91
-91
-93
-96
-94
-94
-97
-94
-89
-87
-95
-95
-91
-85
-93
-99
-97
-88
-91
-92
-95
-92
-87
-96
-100
-96
-99
-104
-101
-100
-95
-97
-95
-91
-88
-92
-91
-94
-96
-95
-98
-97
-96
-97
-96
-98
-95
-95
-99
-97
-95
-92
-97
-95
-99
-100
-98
-95
-98
-97
-95
-95
-96
-94
-91
-92
-100
-102
-100
-98
-91
-99
-103
-98
-93
-97
-99
-98
-95
-94
-88
-96
-99
-99
-95
-102
-101
-99
-103
-105
-101
-99
-95
-98
-96
-96
-97
-92
-93
-96
-93
-98
-97
-97
-101
-98
-100
-98
-104
-100
-99
-98
-95
-96
-101
-98
-97
-95
-97
-95
-88
-97
-104
-101
-99
-97
-95
-102
-103
-104
-103
-102
-103
-100
-99
-99
-100
-100
-99
-97
-99
-103
-99
-97
-101
-102
-103
-103
-99
-94
-88
-94
-94
-104
-103
-100
-98
-95
-98
-101
-97
-99
-96
-99
-99
-102
-99
-105
-106
-101
-100
-101
-96
-103
-100
-100
-100
-104
-104
-103
-96
-92
-94
-100
-104
-105
-101
-98
-98
-95
-94
-97
-95
-96
-98
-102
-101
-107
-101
-100
-102
-96
-95
-95
-99
-96
-94
-89
-92
-95
-92
-93
-97
-93
-89
-87
-88
-89
-86
-90
-84
-81
-79
-79
-76
-74
-71
-75
-76
-73
-78
-79
-75
-82
-83
-80
-76
-75
-66
-79
-89
-86
-90
-90
-90
-88
-92
-91
-96
-95
-98
-100
-103
-108
-106
-103
-97
-97
-99
-104
-108
-104
-102
-100
-101
-103
-105
-104
-103
-106
-109
-109
-108
-113
-115
-112
-99
-95
-90
-78
-64
-34
-3
29
57
86
119
131
138
129
100
59
1
-50
-93
-133
-153
-168
-173
-174
-170
-168
-162
-158
-154
-147
-133
-130
-120
-108
-106
-108
-109
-105
-104
-99
-99
-102
-97
-98
-99
-101
-99
-98
-94
-97
-99
-99
-99
-98
-94
-94
-96
-94
-93
-94
-94
-87
-95
-96
-95
-93
-90
-93
-95
-97
-94
-85
-82
-82
-84
-83
-84
-88
-86
-86
-82
-79
-84
-84
-77
-79
-81
-85
-81
-79
-80
-76
-76
-76
-70
-66
-64
-69
-74
-68
-68
-69
-68
-67
-63
-60
-50
-50
-53
-55
-52
-47
-44
-47
-44
-38
-34
-25
-31
-37
-30
-26
-19
-20
-20
-16
-12
-12
-12
-9
-11
-7
-7
-5
-5
-4
-7
-9
-7
-9
-8
-13
-16
-18
-25
-25
-29
-39
-37
-34
-41
-47
-51
-61
-60
-63
-75
-73
-72
-80
-81
-79
-78
-84
-86
-90
-92
-93
-95
-94
-92
-97
-100
-103
-99
-96
-102
-107
-108
-102
-99
-101
-103
-104
-103
-105
-108
-104
-100
-99
-100
-102
-101
-96
-99
-102
-100
-104
-105
-103
-104
-97
-101
-105
-104
-104
-107
-109
-110
-104
-94
-98
-99
-102
-105
-101
-101
-102
-99
-98
-105
-101
-101
-100
-104
-105
-105
-99
-101
-105
-102
-103
-97
-95
-94
-98
-97
-97
-99
-98
-93
-98
-102
-102
-100
-98
-100
-98
-101
-100
-99
-99
-100
-101
-99
-97
-98
-101
-104
-105
-99
-100
-97
-101
-101
-98
-100
-99
-97
-101
-101
-103
-101
-98
-98
-99
-100
-102
-99
-100
-95
-92
-100
-105
-104
-103
-104
-105
-105
-104
-101
-106
-103
-103
-102
-104
-108
-107
-105
-108
-109
-110
-110
-103
-108
-101
-106
-104
-108
-107
-103
-100
-105
-106
-105
-107
-109
-107
-106
-108
-103
-100
-103
-107
-105
-111
-107
-105
-108
-105
-105
-106
-107
-109
-105
-109
-100
-105
-112
-114
-109
-108
-106
-107
-105
-102
-108
-113
-116
-113
-110
-110
-110
-108
-107
-106
-106
-106
-102
-110
-109
-111
-103
-109
-111
-110
-105
-105
-107
-111
-108
-107
-107
-106
-111
-107
-110
-112
-115
-113
-116
-114
-107
-108
-102
-106
-109
-115
-113
-109
-109
-110
-111
-112
-114
-115
-116
-112
-110
-112
-108
-104
-102
-108
-115
-114
-113
-111
-113
-111
-109
-111
-109
-109
-112
-115
-113
-116
-113
-107
-108
-112
-112
-115
-113
-114
-113
-111
-110
-113
-110
-114
-111
-111
-115
-112
-109
-104
-112
-115
-113
-109
-108
-109
-111
-114
-113
-114
-113
-109
-107
-112
-116
-114
-111
-116
-115
-114
-113
-108
-108
-109
-114
-112
-108
-107
-106
-103
-97
-99
-101
-108
-108
-106
-104
-103
-101
-105
-100
-101
-102
-97
-95
-90
-89
-90
-79
-85
-91
-89
-90
-90
-90
-91
-94
-94
-95
-103
-96
-91
-87
-94
-91
-97
-98
-105
-105
-111
-110
-112
-112
-114
-117
-111
-112
-117
-117
-113
-114
-115
-115
-119
-119
-122
-121
-119
-117
-114
-114
-115
-123
-120
-113
-121
-125
-125
-127
-130
-121
-113
-104
-98
-82
-58
-38
-9
31
66
104
123
128
124
96
60
12
-46
-85
-122
-158
-172
-186
-186
-185
-179
-176
-172
-169
-161
-150
-141
-133
-130
-120
-122
-115
-115
-116
-114
-114
-113
-118
-113
-113
-114
-113
-112
-109
-106
-111
-113
-112
-108
-113
-113
-114
-116
-113
-109
-107
-110
-112
-107
-107
-106
-106
-112
-107
-109
-101
-99
-105
-100
-99
-102
-102
-97
-103
-105
-105
-101
-102
-102
-96
-99
-100
-99
-100
-93
-93
-92
-95
-94
-91
-92
-94
-90
-92
-84
-81
-81
-77
-74
-81
-85
-80
-76
-76
-74
-73
-69
-63
-61
-60
-61
-54
-54
-55
-46
-43
-41
-39
-42
-39
-35
-32
-35
-31
-28
-28
-27
-29
-27
-24
-23
-23
-28
-34
-34
-27
-34
-36
-39
-50
-55
-50
-53
-55
-61
-63
-70
-73
-73
-82
-89
-85
-81
-91
-98
-99
-99
-100
-100
-101
-108
-109
-115
-115
-113
-106
-107
-113
-120
-121
-120
-115
-112
-120
-124
-122
-118
-116
-120
-122
-122
-121
-121
-119
-117
-121
-123
-124
-123
-121
-117
-117
-119
-119
-119
-119
-123
-125
-122
-124
-121
-120
-118
-121
-120
-120
-118
-120
-115
-120
-131
-125
-123
-121
-119
-120
-122
-121
-117
-118
-122
-126
-123
-115
-115
-118
-121
-120
-120
-121
-121
-121
-120
-117
-116
-119
-118
-119
-118
-119
-121
-120
-115
-120
-119
-117
-118
-119
-119
-119
-118
-118
-122
-122
-122
-121
-120
-116
-115
-123
-123
-125
-123
-117
-122
-125
-120
-118
-122
-123
-128
-122
-124
-125
-119
-114
-119
-123
-123
-128
-124
-123
-126
-122
-122
-122
-117
-118
-124
-130
-127
-129
-128
-123
-125
-128
-126
-125
-124
-124
-121
-116
-126
-124
-120
-126
-135
-130
-124
-126
-125
-127
-126
-127
-118
-125
-128
-128
-122
-126
-124
-123
-125
-125
-123
-122
-125
-127
-128
-128
-130
-129
-131
-130
-127
-123
-125
-125
-126
-128
-120
-124
-129
-130
-135
-129
-124
-129
-128
-127
-126
-123
-127
-131
-126
-128
-129
-128
-128
-131
-133
-129
-128
-123
-124
-126
-128
-130
-129
-130
-131
-128
-130
-126
-127
-127
-126
-122
-124
-121
-128
-132
-128
-136
-133
-125
-128
-126
-125
-125
-127
-132
-128
-125
-127
-131
-134
-134
-134
-131
-125
-125
-130
-132
-132
-132
-128
-127
-126
-126
-127
-131
-131
-123
-130
-133
-129
-128
-131
-129
-121
-128
-131
-128
-130
-130
-132
-128
-125
-126
-127
-132
-131
-125
-129
-131
-129
-130
-130
-131
-133
-130
-129
-128
-129
-124
-123
-127
-129
-131
-133
-133
-126
-123
-129
-127
-125
-127
-134
-135
-128
-129
-129
-124
-123
-121
-123
-123
-122
-121
-116
-124
-121
-120
-121
-124
-121
-116
-109
-109
-107
-105
-107
-99
-104
-103
-103
-108
-107
-101
-105
-110
-108
-111
-111
-112
-113
-110
-110
-110
-116
-112
-111
-120
-127
-123
-132
-130
-130
-127
-133
-135
-133
-128
-124
-129
-135
-133
-128
-134
-136
-137
-137
-136
-131
-135
-131
-132
-134
-131
-132
-139
-142
-148
-143
-135
-128
-123
-114
-99
-74
-48
-14
18
51
85
106
111
109
85
47
-3
-60
-98
-143
-171
-186
-198
-203
-205
-202
-201
-186
-177
-166
-159
-155
-153
-144
-135
-133
-132
-131
-131
-128
-130
-130
-130
-128
-131
-129
-129
-126
-126
-126
-125
-127
-126
-128
-126
-123
-123
-122
-125
-127
-125
-123
-121
-121
-122
-126
-124
-121
-122
-122
-118
-117
-113
-121
-128
-125
-123
-118
-117
-118
-113
-117
-118
-118
-116
-116
-113
-110
-112
-103
-101
-110
-119
-112
-108
-110
-110
-104
-106
-98
-96
-95
-96
-95
-97
-98
-99
-92
-87
-89
-87
-80
-80
-79
-80
-73
-74
-72
-69
-67
-65
-60
-60
-57
-57
-48
-48
-47
-43
-37
-42
-45
-43
-44
-39
-42
-40
-41
-41
-45
-47
-48
-51
-54
-55
-60
-59
-73
-75
-80
-85
-84
-85
-80
-89
-100
-104
-107
-110
-112
-110
-115
-114
-118
-125
-127
-121
-123
-122
-125
-125
-127
-128
-129
-127
-129
-127
-131
-127
-129
-132
-133
-136
-131
-132
-130
-128
-134
-134
-135
-132
-134
-137
-134
-140
-133
-134
-135
-134
-134
-134
-140
-139
-131
-134
-136
-130
-127
-129
-131
-131
-127
-127
-132
-141
-137
-131
-135
-131
-134
-136
-136
-134
-135
-135
-134
-132
-130
-130
-127
-129
-133
-134
-130
-131
-136
-133
-134
-134
-131
-130
-131
-132
-133
-135
-135
-132
-129
-126
-128
-131
-133
-131
-131
-134
-131
-131
-126
-132
-134
-131
-135
-131
-133
-133
-137
-135
-131
-132
-128
-126
-130
-139
-137
-134
-136
-135
-133
-136
-138
-136
-132
-131
-134
-142
-140
-143
-144
-141
-134
-134
-135
-136
-139
-135
-131
-133
-138
-139
-132
-138
-139
-140
-141
-137
-133
-138
-136
-135
-137
-142
-136
-137
-134
-136
-143
-144
-141
-136
-137
-141
-135
-134
-142
-147
-140
-140
-137
-140
-141
-141
-142
-147
-139
-141
-146
-141
-140
-141
-144
-141
-140
-142
-139
-139
-143
-140
-136
-138
-141
-143
-142
-141
-141
-141
-146
-145
-141
-142
-143
-147
-142
-139
-141
-143
-139
-145
-146
-140
-142
-136
-137
-140
-143
-150
-144
-141
-141
-142
-142
-137
-138
-147
-144
-142
-141
-138
-139
-143
-141
-135
-132
-134
-140
-141
-138
-139
-142
-140
-140
-138
-137
-135
-135
-135
-141
-145
-148
-146
-142
-136
-137
-140
-140
-138
-135
-134
-137
-138
-140
-140
-130
-132
-133
-137
-143
-147
-142
-139
-135
-138
-136
-137
-137
-136
-135
-130
-138
-142
-138
-137
-137
-142
-140
-135
-137
-136
-135
-129
-133
-135
-137
-133
-134
-137
-137
-138
-142
-138
-136
-133
-133
-136
-135
-131
-129
-131
-134
-130
-131
-128
-131
-132
-128
-128
-131
-131
-129
-128
-122
-120
-123
-123
-116
-115
-115
-111
-109
-113
-117
-115
-112
-119
-121
-120
-120
-120
-120
-121
-117
-113
-120
-124
-122
-126
-131
-133
-135
-131
-134
-139
-135
-134
-136
-138
-140
-140
-141
-141
-138
-139
-141
-140
-141
-137
-136
-130
-129
-138
-141
-139
-137
-136
-141
-141
-147
-149
-137
-125
-119
-118
-98
-71
-47
-19
11
44
75
93
104
99
73
30
-18
-75
-130
-174
-196
-211
-214
-213
-204
-195
-196
-195
-189
-178
-168
-165
-156
-152
-153
-142
-139
-138
-133
-127
-132
-135
-131
-130
-129
-131
-132
-125
-124
-125
-130
-130
-128
-126
-128
-128
-125
-131
-125
-124
-128
-119
-115
-117
-119
-117
-119
-123
-120
-119
-118
-119
-120
-120
-120
-117
-118
-114
-114
-114
-112
-114
-116
-112
-108
-109
-106
-107
-113
-109
-110
-108
-106
-103
-104
-102
-103
-106
-104
-99
-98
-96
-81
-80
-91
-102
-93
-86
-82
-80
-81
-82
-73
-71
-72
-67
-63
-67
-61
-60
-56
-54
-53
-54
-51
-46
-42
-39
-34
-38
-43
-39
-35
-37
-33
-32
-34
-34
-37
-41
-38
-43
-43
-51
-54
-54
-55
-61
-62
-68
-75
-78
-79
-84
-82
-87
-96
-100
-99
-95
-100
-110
-114
-113
-114
-118
-116
-116
-118
-119
-119
-123
-123
-129
-130
-127
-129
-125
-125
-127
-129
-123
-123
-125
-126
-127
-127
-126
-126
-125
-127
-127
-125
-121
-129
-133
-131
-131
-127
-123
-121
-118
-122
-129
-129
-130
-130
-127
-128
-124
-123
-125
-126
-128
-125
-128
-135
-123
-126
-125
-124
-121
-118
-124
-115
-116
-120
-121
-122
-123
-125
-124
-126
-122
-120
-119
-121
-121
-124
-127
-127
-118
-123
-124
-121
-122
-123
-120
-116
-118
-122
-123
-127
-126
-124
-123
-124
-124
-124
-122
-121
-122
-119
-124
-125
-125
-123
-126
-123
-121
-122
-124
-125
-128
-124
-123
-122
-122
-118
-125
-129
-130
-130
-128
-127
-123
-124
-122
-122
-124
-128
-125
-125
-124
-125
-121
-125
-124
-131
-130
-125
-128
-127
-125
-128
-130
-128
-120
-120
-125
-129
-126
-128
-130
-129
-129
-135
-131
-129
-122
-119
-118
-124
-130
-135
-130
-128
-129
-125
-128
-129
-131
-129
-128
-131
-131
-129
-128
-127
-123
-124
-126
-130
-133
-128
-127
-124
-123
-126
-133
-134
-131
-137
-131
-128
-129
-127
-130
-130
-131
-130
-130
-127
-124
-129
-135
-141
-133
-130
-134
-136
-130
-127
-130
-129
-132
-131
-129
-130
-127
-129
-131
-132
-131
-128
-125
-122
-129
-136
-133
-132
-128
-133
-133
-131
-130
-125
-128
-134
-134
-130
-131
-133
-137
-135
-133
-134
-127
-129
-131
-137
-134
-127
-126
-128
-131
-129
-132
-132
-134
-129
-128
-129
-133
-129
-127
-130
-125
-130
-130
-130
-133
-131
-129
-124
-130
-131
-134
-134
-134
-131
-131
-133
-132
-133
-132
-130
-131
-128
-127
-131
-134
-129
-125
-125
-128
-127
-122
-126
-123
-123
-128
-124
-126
-123
-121
-118
-119
-122
-111
-109
-109
-117
-110
-108
-108
-106
-107
-106
-111
-106
-109
-110
-113
-114
-112
-112
-113
-112
-109
-111
-115
-113
-117
-121
-127
-127
-127
-126
-125
-124
-132
-139
-135
-132
-135
-134
-136
-137
-137
-136
-137
-135
-134
-130
-133
-132
-135
-135
-139
-135
-133
-139
-140
-142
-143
-145
-142
-133
-127
-123
-104
-73
-51
-21
13
41
74
100
118
111
84
52
5
-50
-85
-125
-166
-182
-189
-198
-204
-204
-197
-192
-181
-169
-162
-153
-143
-134
-132
-134
-135
-130
-133
-132
-132
-136
-132
-129
-125
-129
-129
-129
-130
-120
-126
-127
-129
-124
-125
-126
-125
-125
-126
-125
-125
-120
-122
-127
-128
-124
-122
-127
-122
-118
-116
-116
-111
-119
-121
-126
-126
-122
-118
-117
-119
-118
-118
-117
-119
-116
-113
-115
-110
-116
-110
-109
-110
-107
-102
-107
-104
-106
-102
-106
-107
-106
-103
-95
-95
-96
-95
-89
-85
-90
-88
-84
-80
-84
-80
-76
-75
-73
-64
-66
-69
-67
-61
-53
-48
-49
-51
-55
-48
-47
-45
-44
-43
-41
-39
-37
-41
-42
-43
-45
-50
-44
-50
-58
-55
-57
-66
-70
-78
-78
-81
-84
-89
-89
-93
-95
-98
-102
-108
-114
-114
-116
-113
-117
-123
-122
-124
-123
-124
-128
-134
-137
-136
-127
-122
-126
-126
-134
-133
-136
-133
-132
-134
-126
-125
-134
-141
-138
-138
-135
-135
-136
-135
-132
-129
-133
-136
-139
-141
-136
-129
-128
-141
-141
-134
-135
-136
-140
-140
-139
-136
-134
-132
-129
-131
-137
-138
-140
-137
-137
-130
-133
-133
-129
-131
-137
-135
-133
-131
-131
-129
-134
-127
-119
-129
-136
-139
-133
-136
-135
-131
-132
-131
-132
-129
-134
-136
-126
-135
-140
-132
-125
-126
-129
-129
-131
-132
-131
-133
-134
-136
-132
-127
-130
-128
-134
-134
-132
-135
-136
-132
-133
-133
-131
-128
-128
-129
-124
-129
-131
-132
-135
-136
-128
-123
-125
-131
-138
-136
-137
-135
-135
-139
-138
-137
-135
-128
-133
-138
-137
-132
-132
-135
-135
-137
-138
-139
-129
-134
-139
-135
-138
-136
-131
-130
-137
-132
-132
-135
-140
-138
-131
-138
-137
-136
-139
-136
-136
-139
-138
-137
-144
-144
-143
-141
-140
-128
-126
-129
-135
-134
-137
-142
-145
-143
-140
-135
-135
-139
-140
-139
-139
-137
-136
-135
-136
-135
-134
-136
-137
-139
-140
-141
-138
-139
-140
-137
-137
-138
-135
-140
-137
-134
-133
-143
-145
-140
-139
-137
-130
-132
-135
-135
-143
-143
-140
-138
-140
-140
-135
-130
-130
-138
-137
-133
-135
-139
-144
-143
-141
-137
-138
-138
-139
-139
-144
-141
-138
-134
-139
-139
-139
-135
-134
-140
-140
-140
-140
-139
-141
-142
-134
-135
-137
-140
-139
-136
-141
-140
-139
-136
-138
-135
-136
-138
-139
-141
-142
-143
-135
-136
-138
-133
-131
-144
-143
-141
-139
-144
-133
-130
-136
-137
-135
-133
-136
-133
-130
-126
-130
-131
-130
-128
-125
-124
-130
-131
-133
-130
-128
-122
-119
-114
-117
-114
-112
-110
-115
-117
-113
-120
-121
-118
-120
-125
-122
-124
-125
-117
-114
-124
-121
-123
-128
-126
-131
-134
-133
-136
-137
-138
-134
-136
-135
-133
-139
-143
-141
-140
-142
-139
-141
-139
-135
-133
-136
-141
-142
-139
-139
-141
-134
-131
-138
-151
-156
-147
-138
-129
-126
-112
-89
-65
-35
2
35
68
95
105
103
91
61
14
-44
-92
-129
-172
-188
-198
-206
-205
-202
-197
-190
-188
-175
-170
-166
-158
-149
-143
-141
-137
-136
-130
-133
-132
-131
-131
-133
-129
-125
-131
-136
-124
-120
-127
-141
-135
-135
-130
-129
-125
-128
-125
-124
-124
-129
-128
-134
-131
-125
-123
-127
-120
-114
-116
-119
-119
-126
-127
-122
-122
-117
-115
-121
-120
-120
-118
-121
-116
-112
-113
-112
-115
-112
-110
-115
-112
-113
-111
-107
-106
-105
-104
-104
-104
-103
-99
-101
-101
-93
-93
-95
-90
-86
-79
-81
-80
-79
-74
-77
-75
-77
-70
-71
-66
-62
-58
-57
-46
-50
-55
-51
-47
-43
-48
-45
-39
-40
-42
-42
-39
-37
-36
-38
-43
-46
-52
-56
-57
-55
-62
-68
-72
-76
-78
-78
-79
-83
-93
-98
-98
-102
-108
-109
-114
-112
-111
-115
-112
-120
-124
-123
-126
-126
-129
-125
-122
-128
-128
-128
-131
-135
-127
-126
-128
-128
-133
-133
-129
-132
-134
-133
-131
-132
-134
-135
-132
-133
-134
-132
-133
-133
-130
-131
-129
-135
-134
-130
-129
-128
-134
-132
-131
-137
-134
-134
-130
-127
-131
-134
-134
-130
-128
-132
-129
-130
-131
-135
-135
-132
-132
-128
-131
-132
-130
-123
-128
-128
-126
-129
-136
-132
-134
-126
-123
-119
-124
-129
-129
-133
-131
-130
-129
-131
-130
-130
-126
-127
-127
-125
-128
-128
-132
-130
-133
-135
-132
-131
-129
-131
-126
-133
-130
-132
-129
-127
-128
-129
-127
-127
-132
-133
-129
-127
-128
-131
-131
-132
-131
-127
-127
-125
-129
-135
-138
-135
-135
-138
-136
-130
-128
-131
-131
-132
-132
-137
-134
-132
-132
-130
-134
-133
-138
-137
-134
-133
-137
-137
-130
-130
-134
-134
-134
-133
-132
-132
-133
-133
-130
-131
-131
-133
-134
-133
-135
-135
-136
-134
-131
-135
-133
-134
-134
-136
-133
-137
-136
-130
-131
-132
-135
-138
-138
-139
-136
-133
-130
-131
-132
-129
-128
-138
-137
-134
-134
-133
-133
-132
-133
-131
-134
-135
-135
-133
-133
-138
-138
-138
-138
-138
-138
-136
-133
-134
-134
-135
-135
-138
-137
-136
-127
-127
-134
-135
-136
-134
-134
-133
-133
-130
-132
-142
-144
-135
-134
-136
-138
-131
-131
-134
-134
-136
-135
-134
-135
-134
-132
-131
-132
-135
-127
-141
-136
-136
-135
-136
-132
-139
-135
-138
-141
-146
-139
-128
-138
-133
-126
-135
-136
-132
-136
-131
-134
-136
-138
-134
-134
-134
-133
-133
-137
-137
-135
-135
-131
-128
-129
-126
-129
-126
-126
-128
-126
-131
-129
-125
-127
-125
-122
-129
-125
-121
-118
-112
-110
-110
-108
-110
-113
-116
-115
-111
-110
-111
-112
-109
-113
-116
-115
-113
-119
-117
-117
-118
-121
-126
-122
-129
-137
-129
-133
-138
-139
-141
-141
-142
-145
-139
-141
-141
-143
-143
-136
-140
-140
-142
-142
-144
-151
-146
-148
-152
-152
-154
-154
-156
-157
-155
-150
-139
-130
-132
-119
-95
-74
-42
-4
33
63
81
86
84
66
27
-25
-80
-124
-164
-196
-206
-222
-225
-223
-221
-222
-216
-205
-192
-189
-182
-181
-173
-167
-154
-158
-164
-155
-150
-151
-153
-153
-155
-155
-153
-154
-151
-154
-154
-149
-153
-147
-147
-151
-154
-154
-157
-153
-153
-148
-146
-149
-149
-152
-147
-148
-152
-149
-147
-150
-140
-140
-147
-149
-156
-152
-145
-142
-142
-141
-139
-141
-146
-139
-142
-145
-143
-140
-141
-141
-139
-137
-138
-136
-139
-131
-133
-133
-124
-119
-123
-127
-126
-125
-122
-119
-116
-118
-117
-110
-107
-110
-107
-103
-100
-94
-100
-90
-88
-92
-94
-90
-80
-80
-81
-76
-74
-70
-68
-70
-69
-67
-68
-67
-65
-63
-60
-60
-65
-62
-67
-74
-76
-79
-83
-92
-98
-95
-96
-102
-109
-113
-118
-118
-120
-125
-125
-132
-135
-131
-138
-141
-145
-148
-154
-153
-154
-154
-151
-151
-152
-152
-154
-148
-150
-161
-160
-159
-159
-154
-158
-161
-163
-161
-159
-163
-156
-153
-157
-159
-161
-162
-160
-159
-162
-167
-161
-156
-158
-159
-161
-161
-159
-161
-160
-161
-165
-169
-165
-162
-160
-159
-159
-159
-160
-155
-150
-157
-163
-162
-161
-159
-158
-160
-159
-158
-156
-157
-160
-160
-156
-153
-156
-158
-156
-161
-156
-160
-160
-152
-161
-161
-154
-159
-157
-149
-154
-162
-160
-159
-160
-162
-155
-154
-156
-155
-155
-156
-158
-158
-157
-154
-152
-159
-159
-157
-155
-155
-157
-153
-154
-156
-155
-155
-161
-162
-161
-161
-161
-159
-157
-153
-157
-161
-161
-157
-162
-157
-159
-161
-161
-157
-156
-155
-162
-161
-160
-159
-158
-158
-159
-154
-158
-160
-156
-157
-161
-157
-153
-157
-160
-159
-159
-154
-160
-162
-162
-155
-155
-167
-169
-164
-158
-161
-158
-156
-154
-151
-157
-160
-163
-160
-159
-161
-160
-158
-154
-155
-164
-165
-164
-160
-163
-163
-162
-156
-158
-156
-158
-162
-161
-160
-163
-163
-159
-158
-162
-162
-163
-163
-154
-150
-160
-163
-153
-156
-161
-161
-161
-162
-163
-162
-161
-159
-155
-163
-161
-157
-157
-158
-158
-159
-161
-166
-161
-163
-157
-158
-159
-156
-155
-161
-165
-163
-159
-157
-159
-165
-165
-162
-161
-158
-159
-153
-153
-158
-155
-158
-163
-162
-155
-152
-155
-156
-149
-156
-165
-162
-162
-155
-160
-159
-163
-164
-163
-162
-161
-154
-145
-151
-155
-155
-155
-152
-148
-155
-153
-146
-147
-153
-147
-146
-148
-147
-142
-138
-134
-138
-136
-137
-128
-129
-127
-134
-134
-134
-138
-138
-140
-140
-141
-141
-138
-134
-139
-138
-144
-149
-150
-153
-151
-150
-151
-146
-154
-161
-159
-159
-161
-161
-159
-158
-161
-163
-161
-158
-163
-163
-159
-160
-160
-159
-158
-158
-163
-165
-162
-157
-158
-165
-171
-166
-159
-151
-143
-134
-116
-94
-65
-27
4
41
67
78
85
74
48
-1
-66
-123
-159
-198
-217
-226
-231
-227
-225
-223
-219
-215
-210
-203
-192
-193
-182
-171
-166
-159
-158
-156
-154
-150
-156
-154
-159
-152
-147
-152
-156
-155
-150
-155
-154
-151
-150
-144
-146
-147
-149
-149
-144
-143
-141
-145
-157
-152
-150
-149
-144
-142
-144
-145
-142
-148
-145
-147
-144
-145
-151
-149
-149
-142
-144
-144
-142
-144
-140
-140
-146
-141
-137
-142
-146
-139
-142
-137
-141
-139
-147
-136
-133
-135
-138
-136
-128
-128
-128
-126
-124
-114
-121
-125
-122
-116
-116
-116
-117
-116
-111
-106
-102
-98
-91
-90
-87
-86
-86
-83
-83
-85
-81
-82
-79
-78
-76
-74
-74
-76
-80
-78
-72
-73
-83
-83
-88
-92
-93
-105
-108
-113
-115
-118
-123
-124
-124
-128
-131
-139
-137
-136
-145
-145
-156
-158
-161
-161
-160
-162
-159
-161
-162
-164
-166
-168
-167
-167
-168
-163
-160
-166
-167
-168
-169
-167
-172
-170
-173
-175
-174
-170
-173
-172
-172
-169
-175
-169
-168
-177
-175
-167
-171
-170
-169
-176
-175
-163
-163
-167
-171
-173
-179
-178
-172
-167
-169
-167
-169
-169
-168
-165
-172
-174
-173
-165
-170
-172
-170
-169
-168
-170
-169
-169
-165
-164
-165
-162
-162
-168
-171
-169
-169
-168
-168
-166
-171
-167
-164
-164
-166
-166
-165
-164
-162
-166
-165
-163
-162
-161
-155
-163
-168
-160
-160
-168
-170
-170
-169
-169
-169
-160
-164
-168
-168
-166
-167
-168
-166
-167
-165
-166
-173
-172
-172
-168
-170
-171
-170
-172
-169
-165
-169
-172
-172
-173
-167
-171
-169
-167
-171
-170
-167
-170
-169
-171
-172
-161
-167
-166
-168
-176
-178
-179
-168
-170
-171
-169
-163
-170
-171
-175
-169
-174
-179
-176
-170
-168
-170
-166
-172
-176
-170
-170
-170
-172
-172
-168
-171
-170
-168
-168
-168
-168
-172
-165
-169
-169
-168
-167
-168
-158
-152
-165
-181
-178
-170
-170
-171
-166
-165
-170
-171
-167
-168
-170
-170
-171
-165
-162
-164
-169
-167
-167
-169
-164
-163
-165
-167
-167
-172
-175
-167
-169
-166
-162
-165
-167
-167
-166
-169
-168
-162
-166
-172
-164
-159
-161
-169
-166
-168
-166
-157
-158
-166
-167
-159
-161
-166
-167
-164
-164
-165
-160
-164
-164
-162
-160
-162
-164
-167
-161
-163
-167
-168
-164
-158
-163
-165
-160
-159
-161
-155
-159
-164
-159
-162
-164
-163
-161
-156
-163
-166
-162
-165
-164
-165
-165
-158
-153
-159
-163
-160
-160
-156
-150
-148
-150
-155
-159
-158
-155
-151
-149
-145
-145
-145
-144
-141
-140
-144
-140
-135
-138
-138
-134
-136
-137
-137
-142
-142
-144
-137
-139
-136
-139
-136
-139
-140
-145
-147
-150
-154
-158
-155
-156
-157
-160
-159
-163
-162
-156
-155
-159
-155
-155
-157
-165
-167
-161
-156
-163
-165
-157
-156
-159
-161
-166
-171
-165
-166
-171
-168
-164
-161
-157
-154
-142
-120
-103
-73
-36
-5
23
57
80
85
76
52
12
-38
-85
-136
-179
-212
-225
-233
-229
-219
-216
-213
-211
-204
-196
-192
-181
-177
-175
-172
-169
-162
-157
-153
-152
-157
-159
-155
-153
-152
-153
-152
-151
-148
-155
-150
-156
-153
-154
-147
-151
-151
-147
-145
-150
-146
-142
-144
-146
-149
-147
-142
-146
-145
-146
-143
-138
-142
-142
-143
-148
-139
-141
-139
-136
-136
-134
-139
-133
-129
-134
-142
-142
-142
-137
-134
-132
-128
-127
-123
-127
-124
-125
-124
-122
-122
-123
-123
-118
-113
-118
-111
-103
-103
-106
-105
-97
-90
-96
-96
-96
-93
-84
-82
-77
-77
-74
-77
-74
-73
-73
-68
-56
-63
-54
-54
-54
-58
-59
-52
-47
-55
-53
-53
-58
-61
-70
-70
-68
-72
-76
-79
-88
-91
-92
-99
-100
-99
-108
-111
-109
-115
-118
-125
-125
-119
-129
-136
-138
-136
-138
-137
-141
-141
-141
-138
-139
-142
-145
-141
-138
-136
-148
-152
-149
-145
-153
-150
-147
-147
-151
-151
-146
-143
-145
-147
-143
-147
-148
-149
-149
-152
-148
-145
-149
-142
-147
-145
-143
-150
-149
-144
-145
-140
-138
-143
-147
-148
-148
-150
-151
-150
-146
-145
-142
-148
-148
-146
-146
-138
-137
-143
-143
-137
-134
-142
-151
-150
-144
-140
-143
-143
-144
-137
-140
-144
-142
-137
-136
-143
-144
-143
-142
-140
-139
-143
-143
-140
-140
-143
-145
-134
-137
-139
-137
-140
-146
-142
-141
-142
-140
-141
-141
-143
-142
-140
-139
-138
-132
-139
-135
-139
-140
-145
-142
-144
-142
-138
-136
-140
-142
-141
-142
-137
-128
-132
-140
-146
-144
-143
-144
-143
-140
-141
-142
-143
-147
-142
-139
-140
-143
-140
-143
-135
-132
-139
-143
-144
-141
-141
-139
-139
-143
-146
-141
-142
-136
-132
-138
-140
-141
-144
-141
-139
-138
-138
-138
-139
-140
-139
-139
-136
-140
-139
-143
-144
-142
-140
-140
-139
-138
-146
-144
-137
-136
-135
-135
-139
-143
-136
-134
-141
-144
-140
-140
-142
-139
-139
-136
-138
-137
-136
-132
-136
-139
-136
-133
-135
-133
-130
-131
-140
-141
-143
-138
-136
-138
-136
-139
-136
-136
-134
-136
-130
-135
-137
-132
-137
-138
-139
-137
-141
-138
-138
-137
-141
-140
-135
-131
-134
-132
-128
-131
-139
-143
-139
-142
-133
-134
-133
-134
-137
-139
-135
-134
-135
-134
-137
-132
-137
-140
-140
-137
-136
-139
-133
-130
-133
-136
-138
-135
-135
-137
-136
-136
-139
-138
-136
-131
-125
-128
-125
-124
-125
-128
-126
-126
-132
-133
-127
-123
-119
-121
-117
-118
-116
-115
-114
-110
-109
-111
-112
-113
-109
-110
-115
-116
-119
-119
-118
-116
-114
-114
-111
-114
-118
-120
-129
-124
-130
-132
-132
-136
-133
-133
-137
-135
-137
-138
-135
-135
-134
-129
-128
-135
-139
-136
-137
-137
-138
-140
-139
-136
-138
-141
-142
-146
-149
-146
-146
-139
-129
-128
-118
-98
-73
-46
-20
11
43
75
93
104
96
70
38
-14
-77
-113
-152
-182
-194
-200
-197
-197
-199
-195
-192
-185
-177
-172
-162
-152
-140
-129
-133
-139
-136
-131
-131
-133
-132
-132
-132
-134
-133
-130
-130
-125
-126
-135
-132
-136
-131
-130
-132
-132
-126
-124
-128
-129
-124
-124
-131
-124
-126
-128
-130
-129
-121
-116
-120
-125
-123
-123
-121
-121
-123
-119
-115
-117
-112
-114
-116
-125
-123
-128
-124
-114
-114
-112
-112
-114
-112
-115
-106
-107
-116
-116
-107
-99
-98
-101
-100
-97
-97
-95
-95
-95
-90
-84
-82
-82
-78
-79
-78
-73
-69
-67
-68
-71
-62
-57
-60
-57
-48
-49
-47
-46
-47
-48
-45
-41
-35
-35
-43
-49
-52
-48
-47
-49
-46
-49
-55
-54
-51
-68
-79
-78
-81
-82
-88
-95
-94
-95
-98
-105
-108
-112
-114
-112
-113
-114
-118
-118
-120
-122
-125
-125
-122
-126
-126
-130
-130
-126
-129
-133
-134
-132
-129
-129
-128
-127
-132
-132
-134
-133
-124
-125
-135
-136
-132
-133
-134
-134
-139
-131
-123
-132
-134
-133
-131
-129
-136
-139
-133
-131
-123
-131
-132
-131
-133
-134
-131
-131
-133
-131
-133
-128
-129
-130
-132
-134
-131
-128
-126
-130
-132
-129
-129
-136
-128
-128
-128
-125
-129
-132
-127
-129
-126
-122
-130
-130
-133
-129
-132
-127
-124
-128
-126
-126
-128
-120
-127
-130
-132
-128
-124
-124
-126
-126
-126
-124
-127
-128
-130
-127
-126
-129
-133
-133
-126
-121
-128
-125
-126
-127
-131
-129
-127
-123
-122
-128
-133
-137
-128
-128
-130
-131
-127
-131
-127
-127
-122
-124
-135
-131
-131
-132
-133
-127
-128
-133
-134
-130
-126
-127
-130
-131
-134
-128
-131
-137
-129
-128
-130
-126
-125
-129
-129
-130
-131
-133
-127
-126
-124
-129
-126
-129
-135
-133
-131
-130
-127
-129
-130
-130
-132
-126
-129
-130
-131
-128
-122
-129
-135
-131
-127
-129
-127
-131
-128
-129
-124
-131
-131
-130
-127
-129
-130
-132
-130
-129
-132
-124
-128
-129
-128
-127
-122
-122
-127
-131
-128
-130
-128
-127
-128
-127
-127
-131
-130
-124
-131
-132
-132
-134
-130
-129
-124
-126
-128
-133
-133
-128
-130
-131
-127
-127
-127
-130
-122
-121
-127
-131
-131
-129
-126
-128
-127
-130
-130
-121
-125
-134
-136
-135
-132
-128
-125
-129
-130
-126
-127
-125
-129
-131
-131
-129
-127
-129
-133
-133
-132
-134
-131
-126
-123
-123
-123
-128
-131
-128
-124
-128
-128
-128
-130
-126
-125
-127
-128
-128
-128
-131
-126
-126
-130
-128
-126
-130
-128
-124
-133
-131
-129
-122
-122
-123
-121
-127
-126
-122
-118
-122
-120
-123
-125
-121
-117
-114
-117
-115
-115
-115
-112
-111
-106
-106
-103
-105
-102
-99
-101
-104
-98
-101
-109
-112
-112
-109
-111
-107
-108
-107
-109
-108
-114
-117
-120
-123
-125
-123
-116
-123
-127
-128
-122
-129
-134
-130
-129
-125
-130
-134
-132
-124
-127
-125
-129
-127
-131
-134
-131
-130
-125
-131
-134
-138
-138
-139
-140
-143
-131
-121
-114
-101
-86
-62
-26
17
49
74
96
106
109
98
66
22
-34
-82
-118
-155
-178
-184
-187
-197
-198
-193
-187
-182
-167
-155
-151
-145
-141
-136
-128
-123
-129
-126
-126
-127
-122
-122
-122
-123
-128
-126
-123
-123
-118
-123
-122
-118
-120
-123
-119
-121
-118
-120
-120
-114
-117
-114
-117
-125
-119
-115
-112
-107
-108
-112
-119
-120
-114
-109
-113
-118
-115
-108
-111
-107
-105
-103
-104
-107
-108
-104
-103
-108
-100
-103
-104
-104
-101
-100
-101
-94
-102
-98
-88
-95
-91
-91
-91
-89
-87
-83
-80
-78
-81
-78
-74
-74
-67
-65
-60
-60
-62
-60
-59
-53
-46
-46
-43
-45
-42
-42
-36
-32
-31
-26
-27
-30
-28
-31
-32
-30
-28
-26
-33
-32
-33
-40
-42
-45
-46
-47
-51
-55
-57
-66
-71
-70
-81
-84
-80
-82
-85
-91
-95
-96
-99
-103
-103
-105
-107
-111
-109
-112
-109
-108
-112
-112
-108
-110
-113
-115
-116
-114
-117
-115
-116
-117
-117
-118
-115
-113
-118
-120
-125
-123
-118
-113
-118
-121
-118
-119
-118
-115
-117
-114
-119
-121
-122
-117
-110
-116
-123
-114
-114
-120
-121
-117
-122
-122
-119
-115
-118
-119
-117
-119
-120
-114
-113
-106
-114
-120
-118
-117
-113
-117
-118
-115
-119
-121
-115
-115
-115
-116
-112
-115
-115
-119
-122
-115
-109
-110
-111
-110
-114
-114
-109
-112
-110
-114
-119
-118
-112
-116
-115
-111
-113
-111
-111
-114
-117
-116
-111
-111
-113
-117
-114
-110
-114
-113
-107
-104
-108
-117
-114
-113
-111
-111
-117
-115
-110
-114
-119
-118
-116
-116
-118
-113
-112
-113
-119
-117
-116
-115
-119
-118
-112
-105
-108
-110
-119
-121
-115
-117
-115
-110
-111
-108
-117
-111
-112
-115
-115
-119
-118
-120
-117
-117
-113
-119
-116
-115
-113
-115
-117
-112
-116
-116
-113
-116
-107
-118
-121
-118
-114
-114
-115
-116
-114
-117
-117
-119
-120
-114
-115
-115
-118
-117
-118
-117
-112
-110
-111
-110
-113
-113
-112
-114
-118
-117
-111
-106
-108
-120
-123
-121
-113
-112
-113
-119
-115
-115
-113
-122
-117
-119
-118
-115
-113
-112
-112
-113
-115
-115
-114
-112
-109
-111
-114
-112
-112
-120
-115
-114
-115
-112
-114
-115
-112
-113
-116
-119
-115
-114
-118
-114
-114
-110
-115
-113
-112
-111
-115
-110
-114
-109
-110
-118
-111
-112
-114
-112
-113
-115
-118
-116
-120
-119
-117
-111
-109
-112
-112
-112
-110
-116
-114
-115
-112
-113
-113
-115
-114
-111
-111
-113
-113
-111
-110
-117
-120
-118
-117
-117
-116
-113
-114
-115
-117
-113
-109
-111
-107
-109
-115
-114
-117
-114
-110
-111
-115
-117
-108
-106
-107
-110
-112
-108
-107
-105
-107
-106
-109
-110
-108
-103
-103
-102
-101
-104
-101
-95
-90
-88
-91
-83
-87
-82
-83
-88
-89
-89
-86
-88
-95
-94
-95
-91
-85
-89
-93
-91
-96
-96
-106
-107
-104
-105
-110
-105
-110
-114
-118
-122
-115
-107
-109
-112
-117
-113
-117
-114
-116
-113
-114
-116
-119
-116
-117
-115
-120
-118
-124
-119
-115
-124
-122
-119
-114
-100
-98
-97
-89
-60
-27
3
40
78
108
124
130
125
99
59
6
-48
-82
-126
-159
-174
-180
-180
-184
-181
-174
-170
-162
-157
-147
-139
-132
-126
-120
-122
-117
-117
-110
-111
-114
-117
-108
-111
-114
-112
-109
-109
-110
-106
-106
-106
-104
-107
-110
-111
-114
-112
-112
-115
-115
-108
-102
-102
-105
-107
-104
-103
-105
-108
-107
-101
-101
-91
-95
-101
-101
-96
-99
-100
-104
-107
-100
-98
-95
-90
-91
-91
-93
-90
-83
-87
-92
-86
-88
-92
-88
-81
-84
-79
-81
-79
-76
-80
-77
-76
-69
-69
-74
-74
-66
-64
-62
-56
-55
-55
-49
-47
-40
-40
-39
-39
-34
-33
-30
-29
-27
-31
-25
-18
-22
-22
-20
-23
-15
-15
-11
-9
-16
-22
-25
-26
-35
-38
-31
-38
-43
-42
-42
-51
-53
-51
-60
-74
-73
-75
-79
-81
-84
-87
-94
-93
-88
-90
-95
-98
-100
-99
-102
-107
-106
-106
-109
-109
-110
-113
-116
-111
-109
-116
-115
-108
-106
-105
-106
-114
-113
-114
-117
-114
-108
-108
-115
-114
-108
-108
-118
-120
-115
-116
-116
-119
-116
-115
-115
-108
-108
-108
-107
-112
-113
-116
-113
-111
-107
-107
-112
-118
-111
-110
-114
-110
-109
-112
-109
-105
-111
-111
-109
-111
-113
-111
-112
-113
-110
-112
-112
-108
-113
-109
-103
-103
-109
-108
-103
-104
-101
-105
-112
-113
-110
-105
-115
-114
-113
-110
-109
-104
-107
-109
-107
-108
-112
-113
-112
-113
-111
-108
-110
-108
-110
-105
-107
-112
-109
-108
-109
-106
-113
-110
-111
-111
-114
-110
-112
-108
-114
-112
-113
-117
-117
-112
-108
-112
-115
-118
-111
-107
-115
-119
-119
-116
-117
-116
-112
-116
-116
-117
-114
-114
-113
-112
-110
-113
-116
-119
-117
-114
-122
-114
-112
-113
-111
-113
-112
-115
-117
-115
-113
-116
-110
-114
-118
-115
-116
-119
-118
-115
-116
-116
-106
-114
-121
-127
-125
-122
-115
-113
-118
-120
-117
-115
-112
-120
-116
-116
-116
-115
-116
-119
-116
-118
-116
-114
-111
-123
-118
-119
-121
-113
-119
-120
-120
-122
-118
-116
-117
-117
-117
-115
-120
-118
-117
-119
-110
-107
-115
-124
-121
-123
-115
-116
-125
-123
-124
-122
-121
-117
-114
-117
-119
-114
-115
-114
-114
-121
-125
-121
-123
-128
-121
-118
-120
-119
-122
-118
-115
-119
-123
-121
-118
-118
-117
-116
-110
-112
-118
-122
-123
-121
-122
-123
-115
-117
-114
-116
-117
-119
-116
-106
-111
-117
-114
-119
-120
-118
-114
-118
-121
-117
-117
-118
-114
-116
-115
-121
-122
-121
-119
-115
-113
-116
-116
-117
-120
-119
-122
-115
-114
-119
-119
-118
-112
-116
-117
-117
-114
-113
-117
-115
-114
-104
-115
-110
-110
-107
-105
-101
-102
-99
-104
-101
-98
-103
-107
-101
-99
-103
-99
-94
-90
-91
-97
-88
-91
-94
-94
-93
-93
-92
-95
-95
-92
-86
-86
-94
-90
-95
-104
-103
-100
-104
-105
-117
-114
-112
-111
-115
-111
-109
-108
-102
-103
-107
-110
-112
-109
-107
-117
-118
-117
-113
-113
-117
-118
-111
-107
-108
-112
-115
-118
-112
-109
-102
-95
-81
-68
-43
-8
22
44
80
113
130
138
132
100
53
-3
-60
-109
-146
-162
-181
-175
-178
-178
-172
-169
-160
-153
-154
-153
-145
-136
-122
-121
-114
-107
-103
-104
-100
-100
-96
-100
-97
-98
-99
-96
-95
-101
-98
-95
-101
-102
-99
-100
-96
-100
-106
-104
-99
-96
-99
-93
-93
-96
-98
-94
-92
-98
-89
-83
-82
-84
-82
-91
-95
-89
-86
-94
-88
-78
-83
-85
-89
-89
-85
-85
-84
-81
-80
-82
-84
-81
-77
-75
-75
-78
-78
-77
-74
-74
-77
-70
-64
-66
-69
-66
-62
-58
-54
-56
-60
-57
-54
-49
-49
-45
-33
-33
-31
-28
-26
-21
-28
-19
-19
-18
-25
-26
-25
-19
-20
-18
-16
-12
-10
-5
-8
-10
-12
-12
-19
-24
-23
-21
-28
-33
-37
-36
-39
-51
-56
-55
-56
-56
-59
-65
-65
-70
-78
-75
-76
-80
-81
-83
-87
-80
-92
-98
-100
-92
-96
-104
-100
-95
-98
-102
-100
-98
-95
-98
-97
-91
-91
-96
-98
-102
-96
-96
-94
-96
-100
-99
-97
-98
-98
-96
-100
-99
-98
-99
-99
-98
-99
-94
-90
-98
-97
-96
-99
-96
-94
-93
-96
-92
-96
-90
-94
-93
-90
-90
-88
-89
-88
-92
-90
-89
-90
-93
-93
-89
-94
-89
-90
-89
-89
-93
-96
-92
-90
-94
-92
-91
-87
-87
-86
-83
-92
-93
-87
-82
-79
-90
-93
-91
-90
-91
-88
-89
-85
-86
-85
-88
-86
-82
-88
-89
-86
-79
-81
-87
-98
-99
-96
-97
-95
-100
-92
-94
-94
-92
-88
-93
-92
-88
-91
-90
-89
-91
-91
-89
-91
-91
-89
-89
-89
-92
-92
-89
-87
-94
-91
-92
-95
-93
-92
-96
-98
-97
-97
-98
-99
-97
-96
-96
-89
-91
-95
-95
-92
-95
-95
-95
-99
-100
-96
-93
-90
-88
-90
-91
-93
-96
-87
-88
-96
-100
-98
-92
-94
-97
-95
-92
-92
-90
-97
-99
-94
-89
-92
-98
-98
-102
-96
-91
-93
-96
-95
-93
-93
-99
-96
-95
-97
-94
-94
-94
-94
-93
-95
-91
-92
-91
-103
-101
-96
-97
-98
-96
-95
-91
-87
-84
-89
-100
-102
-96
-95
-95
-93
-103
-99
-97
-92
-93
-93
-93
-97
-96
-97
-97
-92
-96
-100
-101
-100
-104
-100
-98
-91
-92
-92
-97
-93
-92
-96
-97
-96
-96
-99
-98
-97
-96
-87
-91
-97
-97
-99
-96
-99
-89
-91
-101
-101
-96
-100
-96
-91
-99
-98
-98
-102
-99
-99
-98
-97
-93
-92
-96
-92
-92
-90
-93
-92
-86
-91
-88
-86
-86
-88
-83
-85
-86
-83
-78
-76
-77
-76
-75
-68
-69
-74
-72
-71
-74
-75
-81
-78
-79
-73
-73
-81
-77
-76
-75
-68
-77
-90
-95
-93
-94
-90
-95
-89
-93
-97
-96
-96
-97
-94
-89
-95
-98
-96
-95
-96
-96
-96
-98
-97
-99
-100
-102
-100
-99
-98
-95
-99
-99
-107
-102
-97
-91
-89
-81
-59
-25
2
28
67
102
126
139
146
141
108
57
5
-46
-83
-123
-147
-157
-163
-162
-157
-151
-154
-147
-140
-133
-121
-115
-110
-105
-98
-93
-87
-90
-89
-90
-90
-89
-93
-90
-93
-94
-92
-93
-93
-92
-89
-90
-89
-89
-88
-86
-86
-93
-90
-88
-90
-88
-89
-86
-76
-73
-83
-90
-87
-83
-79
-75
-78
-80
-88
-87
-82
-84
-79
-78
-76
-80
-79
-77
-74
-72
-78
-73
-76
-75
-75
-70
-75
-74
-70
-69
-72
-68
-65
-65
-65
-64
-62
-67
-60
-54
-53
-44
-42
-47
-48
-48
-45
-42
-41
-33
-27
-28
-33
-29
-24
-19
-17
-19
-21
-13
-10
-12
-9
-11
-10
-9
-13
-5
-8
-5
-9
-10
-11
-18
-19
-18
-19
-20
-23
-29
-33
-37
-36
-42
-51
-51
-59
-59
-56
-63
-69
-63
-66
-71
-75
-76
-79
-80
-86
-89
-86
-86
-84
-87
-96
-94
-92
-91
-95
-101
-101
-98
-96
-88
-90
-97
-106
-95
-97
-96
-101
-99
-98
-98
-100
-95
-94
-97
-96
-98
-96
-96
-96
-99
-102
-100
-96
-98
-94
-99
-98
-101
-101
-100
-96
-92
-97
-99
-91
-96
-96
-94
-96
-98
-94
-95
-94
-91
-94
-94
-90
-95
-95
-95
-93
-102
-99
-98
-96
-91
-91
-95
-99
-96
-92
-89
-91
-96
-99
-98
-93
-92
-92
-94
-91
-90
-92
-94
-94
-95
-98
-94
-95
-94
-91
-93
-93
-90
-91
-90
-96
-88
-91
-92
-96
-98
-98
-96
-94
-94
-90
-96
-87
-91
-99
-97
-98
-98
-102
-102
-99
-101
-104
-102
-100
-99
-97
-92
-91
-94
-97
-95
-102
-104
-99
-99
-99
-100
-99
-101
-101
-105
-105
-108
-105
-106
-98
-96
-100
-104
-98
-96
-97
-100
-105
-108
-107
-109
-103
-109
-114
-110
-103
-101
-101
-103
-111
-108
-109
-105
-105
-105
-106
-104
-110
-111
-111
-110
-111
-108
-107
-107
-111
-112
-107
-107
-98
-104
-110
-113
-111
-111
-106
-112
-115
-114
-109
-111
-109
-113
-109
-110
-109
-110
-113
-110
-111
-113
-110
-113
-105
-110
-114
-115
-110
-111
-113
-112
-113
-117
-115
-114
-113
-108
-110
-114
-114
-110
-111
-107
-106
-109
-112
-114
-109
-108
-108
-106
-110
-108
-113
-114
-113
-113
-114
-112
-113
-112
-111
-111
-113
-106
-111
-115
-111
-111
-111
-109
-111
-110
-105
-103
-110
-109
-110
-107
-106
-113
-118
-114
-112
-110
-111
-110
-111
-107
-107
-105
-107
-102
-103
-102
-106
-104
-104
-105
-99
-96
-97
-97
-97
-99
-97
-96
-99
-94
-94
-91
-83
-86
-90
-83
-83
-87
-89
-92
-90
-88
-90
-85
-83
-83
-89
-94
-91
-92
-95
-97
-100
-98
-100
-106
-107
-108
-111
-111
-114
-115
-115
-112
-114
-110
-114
-112
-114
-116
-113
-108
-112
-114
-121
-116
-110
-119
-119
-121
-117
-121
-128
-125
-125
-123
-109
-107
-104
-80
-51
-21
5
42
69
95
121
130
122
102
64
14
-40
-82
-121
-156
-171
-184
-185
-185
-179
-179
-176
-168
-160
-149
-141
-136
-131
-125
-115
-118
-120
-113
-111
-111
-110
-111
-114
-120
-107
-113
-112
-110
-111
-116
-105
-103
-105
-112
-117
-115
-109
-110
-108
-105
-95
-99
-112
-113
-107
-104
-105
-104
-103
-108
-104
-101
-104
-101
-97
-96
-100
-100
-101
-104
-98
-95
-96
-95
-97
-99
-98
-97
-93
-89
-86
-87
-92
-92
-91
-87
-85
-87
-83
-80
-79
-82
-74
-75
-74
-73
-67
-66
-68
-66
-67
-69
-65
-59
-54
-51
-52
-46
-41
-44
-42
-39
-33
-34
-30
-27
-31
-30
-23
-22
-21
-23
-24
-22
-15
-20
-18
-19
-17
-20
-25
-30
-27
-28
-31
-36
-42
-47
-49
-50
-54
-54
-59
-66
-75
-74
-72
-76
-82
-85
-94
-98
-95
-93
-95
-100
-100
-98
-99
-102
-105
-108
-106
-106
-105
-109
-104
-104
-105
-106
-106
-108
-108
-110
-110
-109
-105
-102
-108
-111
-109
-102
-107
-109
-116
-111
-113
-115
-112
-110
-112
-107
-111
-103
-103
-106
-113
-118
-110
-113
-115
-109
-106
-104
-107
-108
-107
-109
-110
-105
-110
-107
-105
-107
-110
-105
-106
-103
-106
-108
-107
-99
-102
-101
-104
-108
-113
-107
-108
-105
-107
-110
-110
-107
-107
-108
-102
-106
-111
-109
-106
-107
-106
-100
-100
-108
-106
-105
-111
-104
-107
-103
-105
-108
-112
-111
-110
-108
-107
-107
-105
-107
-105
-109
-110
-107
-110
-107
-111
-111
-112
-116
-115
-112
-107
-103
-110
-113
-110
-113
-114
-109
-110
-117
-112
-108
-104
-112
-114
-115
-111
-114
-111
-112
-111
-113
-107
-104
-107
-111
-111
-111
-112
-112
-114
-108
-114
-108
-109
-108
-113
-111
-112
-117
-112
-109
-113
-111
-112
-109
-104
-107
-113
-115
-118
-110
-112
-108
-113
-112
-110
-107
-104
-113
-117
-113
-111
-114
-111
-111
-108
-105
-108
-107
-111
-107
-110
-108
-112
-116
-114
-109
-110
-110
-112
-111
-106
-111
-116
-116
-108
-108
-111
-111
-108
-109
-104
-105
-112
-113
-112
-111
-110
-111
-111
-110
-113
-107
-105
-114
-109
-105
-119
-109
-110
-112
-108
-118
-113
-116
-113
-112
-110
-111
-109
-108
-105
-100
-107
-111
-111
-112
-111
-111
-109
-106
-112
-109
-110
-108
-111
-111
-113
-105
-108
-108
-106
-109
-109
-118
-111
-94
-98
-108
-105
-104
-105
-106
-102
-100
-103
-105
-107
-103
-95
-99
-101
-98
-94
-94
-91
-88
-88
-87
-86
-85
-85
-87
-81
-84
-89
-85
-86
-89
-90
-94
-94
-94
-88
-87
-89
-96
-98
-99
-102
-108
-109
-106
-107
-111
-108
-102
-104
-109
-122
-115
-115
-117
-116
-110
-113
-121
-121
-116
-112
-113
-110
-111
-115
-119
-116
-112
-118
-125
-121
-117
-114
-104
-94
-85
-62
-36
-7
30
57
93
121
127
124
99
66
18
-36
-85
-131
-164
-176
-186
-187
-185
-185
-182
-177
-172
-165
-153
-145
-141
-131
-123
-119
-121
-114
-109
-107
-113
-109
-98
-105
-111
-112
-114
-112
-110
-107
-103
-109
-108
-110
-108
-105
-112
-106
-105
-107
-107
-106
-106
-103
-101
-101
-101
-96
-101
-104
-104
-105
-102
-105
-98
-97
-101
-97
-97
-105
-105
-99
-101
-98
-93
-90
-97
-90
-84
-87
-94
-95
-94
-94
-89
-89
-86
-86
-82
-88
-90
-84
-79
-77
-74
-76
-79
-76
-75
-68
-68
-66
-59
-59
-62
-58
-52
-53
-44
-40
-39
-48
-43
-35
-32
-31
-34
-31
-28
-26
-27
-24
-25
-18
-17
-20
-18
-17
-22
-23
-29
-27
-25
-17
-27
-38
-39
-45
-52
-56
-56
-59
-60
-64
-69
-72
-72
-78
-84
-84
-89
-88
-89
-87
-92
-93
-96
-101
-105
-107
-106
-105
-105
-101
-105
-106
-103
-104
-106
-109
-106
-107
-108
-105
-110
-103
-108
-109
-111
-109
-110
-111
-113
-105
-107
-109
-107
-109
-109
-104
-105
-111
-111
-105
-105
-110
-116
-105
-105
-104
-108
-106
-105
-109
-102
-98
-104
-108
-110
-102
-106
-104
-108
-107
-105
-105
-103
-107
-109
-106
-106
-107
-110
-103
-99
-101
-97
-100
-107
-106
-106
-102
-106
-103
-104
-102
-101
-102
-97
-98
-102
-106
-105
-101
-103
-109
-108
-101
-98
-102
-105
-107
-103
-102
-103
-103
-97
-92
-101
-112
-106
-108
-108
-103
-101
-103
-106
-104
-104
-103
-105
-110
-103
-104
-104
-103
-103
-103
-107
-105
-102
-105
-102
-112
-109
-104
-101
-100
-102
-108
-108
-109
-107
-103
-104
-98
-96
-105
-109
-110
-106
-104
-106
-105
-109
-107
-108
-105
-109
-107
-105
-106
-104
-105
-103
-102
-102
-101
-105
-108
-102
-106
-111
-108
-108
-108
-102
-105
-107
-105
-108
-109
-106
-106
-106
-96
-98
-102
-103
-108
-104
-105
-105
-102
-108
-111
-105
-103
-103
-104
-107
-108
-103
-101
-108
-108
-106
-99
-107
-105
-106
-106
-103
-107
-110
-110
-101
-105
-105
-106
-109
-111
-108
-107
-108
-100
-98
-105
-113
-106
-99
-104
-102
-102
-101
-103
-102
-106
-107
-106
-104
-104
-105
-105
-104
-105
-103
-104
-102
-106
-108
-101
-102
-99
-92
-91
-97
-103
-97
-99
-99
-99
-101
-95
-92
-94
-95
-91
-89
-81
-80
-83
-80
-74
-77
-78
-77
-76
-80
-84
-91
-82
-85
-85
-83
-73
-73
-82
-90
-91
-93
-94
-102
-105
-103
-99
-99
-105
-109
-108
-104
-103
-103
-105
-107
-114
-116
-112
-105
-104
-108
-103
-104
-103
-107
-104
-110
-113
-106
-110
-117
-117
-117
-123
-118
-109
-100
-94
-76
-51
-35
-11
17
55
90
121
139
133
120
89
42
-10
-60
-102
-138
-167
-176
-180
-180
-178
-177
-169
-159
-155
-147
-134
-131
-118
-116
-110
-107
-105
-101
-106
-104
-106
-107
-102
-103
-101
-104
-104
-100
-104
-102
-96
-98
-106
-102
-98
-97
-101
-102
-100
-93
-98
-94
-94
-94
-94
-92
-96
-94
-95
-92
-93
-91
-93
-95
-90
-91
-91
-92
-88
-85
-86
-85
-86
-84
-78
-87
-96
-91
-87
-86
-78
-83
-79
-81
-82
-77
-75
-69
-69
-71
-77
-72
-69
-68
-60
-56
-62
-56
-54
-57
-57
-55
-54
-50
-49
-46
-39
-39
-37
-31
-28
-25
-33
-27
-24
-25
-19
-10
-9
-17
-21
-20
-17
-18
-14
-8
-12
-11
-11
-15
-26
-29
-24
-24
-27
-30
-35
-39
-39
-48
-59
-58
-53
-56
-62
-73
-72
-75
-76
-81
-83
-87
-81
-88
-89
-85
-94
-94
-85
-88
-104
-107
-104
