215
192
159
132
114
115
142
172
181
213
204
197
153
124
114
115
129
154
180
202
189
171
144
106
102
117
127
138
153
178
178
163
130
118
102
112
136
155
155
198
182
169
126
102
85
108
113
154
179
201
194
167
138
117
96
114
138
176
198
200
183
163
136
98
83
92
126
148
167
196
188
152
126
106
92
111
136
178
201
220
199
159
127
103
86
97
131
156
171
183
176
153
129
108
91
97
127
156
179
172
164
140
106
87
82
116
141
163
191
206
193
144
116
92
86
101
121
147
170
195
163
137
110
101
92
93
123
159
182
190
167
129
107
79
88
107
116
160
168
173
152
128
108
80
81
98
137
150
179
171
147
118
89
67
69
101
133
154
174
180
166
116
91
68
89
102
137
164
173
159
144
109
99
76
86
104
135
162
179
175
153
110
76
61
76
98
132
170
174
167
155
115
85
60
75
105
142
136
158
152
116
92
68
56
64
88
121
140
155
146
112
81
52
31
57
91
124
152
160
141
112
85
59
40
61
108
119
136
141
128
98
72
53
36
58
93
130
144
148
123
97
63
43
32
53
88
117
126
138
123
103
83
68
71
99
120
153
208
247
249
245
225
195
182
195
215
221
222
214
169
116
71
41
24
45
70
108
144
149
134
100
75
51
57
63
90
122
140
138
125
91
70
44
53
74
97
119
139
122
104
92
50
32
41
69
107
145
163
152
128
97
65
24
42
70
103
133
151
143
129
94
61
43
61
76
101
126
143
134
125
96
65
37
41
64
101
134
162
152
130
99
82
69
75
94
113
134
149
135
108
81
75
54
74
101
135
157
175
159
130
99
78
68
85
117
154
165
181
168
146
117
105
64
80
113
146
170
182
166
132
112
87
71
90
142
151
167
166
147
120
82
58
55
68
100
135
153
154
131
106
70
44
26
47
84
125
148
146
107
74
57
41
30
50
74
97
119
131
109
77
51
43
17
52
78
104
117
124
112
69
47
31
32
43
76
118
148
140
101
68
40
18
17
36
68
99
132
121
92
69
48
27
32
61
89
105
138
137
117
77
38
12
38
46
81
116
126
118
99
68
39
8
26
49
73
99
122
121
104
75
47
38
47
63
79
96
137
115
91
57
35
15
36
61
84
116
137
117
91
53
35
18
25
60
97
113
125
106
79
56
32
11
28
59
89
121
119
94
74
54
31
8
21
46
71
107
118
108
66
46
29
15
29
61
89
111
122
106
77
35
23
21
27
51
86
111
124
105
71
39
28
4
21
58
90
111
122
111
73
43
24
9
35
77
104
112
129
112
74
44
31
17
45
70
92
120
117
104
59
41
27
31
47
77
91
100
93
77
41
17
1
8
33
65
91
119
88
77
46
18
-12
9
21
57
82
107
98
89
53
30
-12
2
15
60
84
107
96
92
63
30
-1
11
32
69
93
96
88
69
34
13
0
25
20
52
82
109
108
100
84
72
52
81
122
179
238
261
246
207
170
126
89
88
103
113
101
114
88
63
35
19
-1
10
55
74
107
110
101
75
42
22
4
13
35
65
94
114
98
73
41
12
3
24
57
76
106
116
85
64
31
9
-4
28
64
93
101
119
95
70
45
12
4
36
59
96
112
129
100
69
39
19
6
29
67
95
112
127
94
66
46
25
17
55
84
101
109
126
95
67
27
12
14
44
76
96
127
122
92
74
52
32
32
72
94
123
141
138
116
83
62
36
47
71
102
135
160
152
119
93
54
51
62
61
96
135
144
131
125
90
55
23
36
54
82
117
152
110
94
55
20
5
31
44
73
100
115
85
72
60
25
1
18
30
64
90
104
89
68
29
4
-3
25
41
75
79
91
75
63
25
-6
-5
11
33
53
77
99
77
56
31
13
-15
15
31
56
83
99
84
65
12
-13
-33
-2
31
56
73
92
64
45
42
-7
-26
-2
35
64
75
87
69
52
21
-5
-8
12
32
70
84
105
82
40
10
-12
-34
-3
20
61
99
100
78
49
21
-16
-23
3
34
52
83
87
67
44
17
-12
-22
6
35
47
79
86
72
43
8
-11
-2
1
47
75
83
85
70
16
10
-22
-11
7
43
54
74
73
53
22
-7
-26
-15
7
38
66
90
68
51
19
-1
-32
-20
10
45
64
79
68
54
26
-4
-38
-19
11
40
68
91
74
43
16
-12
-22
-3
15
27
68
88
63
44
22
-4
-17
-6
15
60
77
83
55
47
12
-8
-22
-4
23
46
60
66
70
49
14
-12
-23
-13
26
60
82
95
78
39
5
-7
-16
-4
36
46
59
75
56
25
17
-8
-29
-7
27
47
60
65
48
18
-9
-31
-38
-24
4
43
69
78
51
26
-14
-46
-50
-15
3
37
57
79
57
27
0
-35
-45
-18
20
43
52
54
48
6
-25
-39
-40
-13
16
33
63
55
39
3
-17
-16
1
34
77
114
144
151
170
148
140
106
112
125
139
151
152
124
91
32
-18
-55
-37
-9
18
51
71
49
32
4
-23
-38
-35
0
37
47
71
60
40
2
-18
-56
-18
15
38
54
73
59
35
-4
-30
-35
-16
3
43
75
91
68
33
6
-13
-35
-12
3
16
46
70
55
36
4
-20
-34
-16
17
45
78
92
72
42
17
-21
-42
-16
11
45
69
76
64
38
-13
-8
-28
-9
26
64
86
98
72
44
12
-11
-27
15
42
76
87
96
73
55
23
5
5
24
61
102
115
115
101
83
33
6
-4
17
51
78
104
112
91
55
21
7
6
16
40
74
106
107
86
51
24
-7
-11
9
47
70
81
71
68
38
-4
-21
-24
1
42
39
59
58
58
11
-17
-50
-34
7
5
42
73
58
22
-4
-26
-43
-36
-18
10
40
60
61
32
6
-28
-36
-26
-7
13
52
67
57
33
-9
-23
-36
-40
-5
31
54
64
39
19
-9
-34
-51
-35
-10
18
57
67
53
18
-18
-34
-50
-19
9
29
59
55
55
33
-9
-39
-45
-30
-6
28
49
61
48
16
-7
-22
-45
-32
-4
26
49
71
44
18
-9
-44
-63
-33
-5
30
40
62
44
10
-17
-34
-42
-21
4
40
58
51
32
10
-9
-32
-49
-24
-4
23
49
55
26
-2
-37
-48
-52
-31
3
37
56
53
26
-12
-34
-48
-59
-21
13
34
44
54
34
2
-25
-48
-46
-45
-9
18
45
45
31
3
-21
-43
-54
-28
10
35
58
42
34
-12
-41
-65
-39
-18
4
33
49
46
39
-1
-33
-42
-30
-15
17
36
67
54
33
-8
-24
-46
-25
-3
31
42
50
48
28
-7
-32
-64
-37
-15
5
27
51
31
4
-15
-42
-69
-43
-18
13
49
51
45
11
-39
-52
-62
-54
-13
14
30
50
42
16
-24
-54
-60
-45
-25
0
25
35
21
-6
-34
-51
-62
-58
-32
10
43
58
29
1
-20
-64
-63
-52
-29
2
22
29
16
-4
-23
-32
-24
6
48
76
115
158
160
141
102
80
69
82
90
98
103
86
36
-6
-53
-81
-82
-55
-25
15
28
38
20
-5
-37
-61
-54
-42
-10
9
38
41
21
7
-25
-52
-52
-35
-8
22
57
39
20
-15
-43
-48
-43
-26
-9
23
42
33
20
-7
-39
-62
-51
-27
9
28
49
34
18
-5
-32
-48
-42
-22
13
48
55
51
26
-14
-31
-57
-45
-16
22
38
47
38
21
-14
-38
-54
-30
-7
29
54
76
49
15
8
-18
-38
-25
10
48
63
93
71
46
4
-15
-34
-17
7
40
77
77
58
52
21
-5
-13
-2
24
48
66
79
65
45
13
-4
-12
-11
15
46
72
86
57
23
1
-24
-42
-30
-2
19
67
72
33
10
-28
-38
-52
-30
-16
12
41
50
23
-14
-45
-57
-71
-43
-15
11
41
37
12
-4
-35
-79
-57
-41
-9
23
41
14
24
-22
-51
-64
-50
-31
-9
12
25
26
13
-7
-47
-71
-69
-38
-7
6
30
26
9
-22
-42
-67
-63
-44
-13
18
41
35
19
-12
-36
-77
-58
-22
0
13
32
-2
-7
-29
-47
-59
-50
-24
1
12
34
15
-2
-27
-45
-63
-42
-17
5
23
47
30
11
-28
-45
-73
-52
-46
0
22
42
18
-1
-39
-59
-79
-66
-28
-2
26
35
15
-6
-31
-63
-77
-63
-28
-1
20
45
23
6
-35
-57
-61
-35
-24
-10
21
26
18
-17
-41
-56
-70
-52
-20
-2
11
23
7
-17
-48
-77
-83
-63
-17
10
37
41
18
-7
-37
-36
-54
-24
-10
4
37
46
40
5
-29
-49
-71
-53
-16
6
19
30
2
-23
-43
-68
-64
-41
-13
8
35
19
5
-26
-49
-71
-82
-45
-31
-1
23
14
5
-27
-43
-75
-77
-55
-18
6
27
15
14
-17
-54
-80
-70
-58
-23
5
28
21
-7
-35
-61
-87
-83
-61
-20
5
28
15
-6
-34
-56
-89
-84
-57
-25
2
26
19
13
3
-18
-33
-6
20
76
105
147
152
123
101
73
38
32
41
51
48
48
13
-27
-62
-73
-100
-76
-42
2
11
37
19
2
-29
-65
-90
-65
-50
5
20
37
19
-20
-47
-86
-95
-77
-46
-12
33
50
28
-17
-44
-63
-90
-64
-33
-3
30
40
21
0
-39
-70
-67
-52
-27
2
18
42
12
-16
-36
-69
-89
-45
-17
12
37
54
25
-8
-41
-63
-60
-47
-13
7
45
53
18
-14
-42
-67
-72
-39
-15
15
51
61
38
4
-9
-35
-40
-27
2
29
60
69
48
23
2
-34
-25
-3
31
48
68
64
54
18
-10
-27
-16
4
34
52
65
53
33
9
-19
-49
-30
-3
16
54
62
42
24
-1
-27
-50
-37
-19
15
28
52
29
4
-37
-55
-63
-61
-36
-1
22
33
24
1
-47
-65
-83
-76
-50
-3
17
24
12
-12
-44
-67
-81
-73
-48
-3
28
39
21
-18
-49
-56
-80
-67
-44
-15
5
27
12
-12
-45
-73
-80
-67
-42
5
14
21
7
-27
-36
-74
-84
-62
-38
-17
13
33
19
-15
-47
-69
-79
-59
-32
-9
14
46
10
-17
-35
-66
-77
-61
-26
6
33
31
2
-33
-55
-83
-80
-60
-22
-5
13
31
11
-17
-44
-71
-79
-62
-33
-3
31
33
9
-29
-55
-81
-79
-57
-29
-7
18
18
-6
-27
-52
-81
-88
-61
-31
-10
21
8
2
-27
-62
-80
-61
-46
-23
8
29
12
-7
-26
-57
-82
-79
-61
-30
-3
36
29
9
-32
-70
-97
-69
-48
-19
11
39
20
3
-37
-58
-70
-59
-44
-7
20
32
38
6
-37
-42
-75
-73
-49
-18
13
36
11
-22
-48
-81
-91
-73
-64
-23
-2
25
4
-7
-54
-68
-91
-73
-43
-12
10
19
7
-33
-60
-79
-93
-67
-46
-12
17
22
9
-35
-63
-86
-100
-84
-52
-14
20
22
1
-27
-54
-86
-92
-68
-33
-22
12
25
-8
-32
-71
-82
-92
-54
-26
10
43
59
56
30
20
6
22
71
105
141
153
152
102
88
37
-14
-37
-38
-38
-18
8
20
-1
-24
-58
-76
-63
-45
-21
7
27
23
3
-31
-63
-93
-81
-59
-31
-4
13
21
12
-44
-56
-68
-65
-47
-6
13
24
13
11
-26
-51
-76
-57
-49
-26
1
40
34
8
-25
-52
-73
-66
-39
-23
0
26
0
2
-21
-49
-66
-39
-30
-10
20
34
27
6
-35
-55
-75
-54
-23
6
33
55
49
19
-16
-43
-60
-48
-10
29
49
71
49
26
3
-24
-40
-14
8
38
60
61
46
32
-8
-32
-47
-27
0
47
71
82
58
22
6
-22
-37
-21
13
42
67
72
47
17
-8
-32
-45
-29
3
23
42
44
40
-9
-33
-45
-61
-43
-14
6
30
47
13
-20
-42
-72
-83
-59
-34
-7
17
15
-7
-42
-70
-84
-92
-57
-6
9
7
7
-5
-47
-65
-76
-79
-51
-22
0
24
21
2
-28
-64
-85
-81
-67
-36
-2
27
8
-2
-29
-64
-88
-76
-68
-39
-9
6
2
-14
-35
-63
-87
-78
-56
-16
2
16
15
6
-29
-61
-79
-78
-48
-23
12
27
12
-16
-46
-67
-84
-71
-47
-19
5
6
4
-17
-52
-71
-92
-71
-46
-28
0
19
-7
-26
-49
-67
-84
-56
-43
-17
6
25
7
-27
-56
-74
-89
-74
-46
-8
10
32
-9
-29
-49
-95
-100
-76
-51
-22
0
20
-7
-41
-54
-74
-80
-71
-38
-16
11
26
13
-22
-56
-84
-93
-68
-48
-17
12
20
13
-41
-61
-83
-93
-80
-38
-15
12
19
13
-18
-57
-83
-96
-63
-28
-9
19
30
-3
-36
-60
-83
-84
-63
-31
2
36
34
-6
-50
-80
-94
-95
-89
-40
-28
-6
1
-12
-45
-68
-93
-82
-69
-34
-3
16
17
-26
-53
-78
-103
-93
-70
-37
-14
8
-8
-26
-56
-93
-122
-112
-82
-36
0
18
-1
-16
-56
-79
-98
-86
-66
-24
-7
15
-13
-36
-67
-92
-100
-70
-35
14
50
79
64
47
38
41
26
55
84
102
120
131
82
51
-1
-33
-78
-82
-64
-32
-9
12
3
-13
-43
-77
-94
-66
-44
-19
10
38
10
-30
-56
-81
-86
-72
-50
-20
0
9
-13
-45
-74
-114
-124
-84
-37
-12
12
28
-14
-36
-63
-84
-99
-73
-26
-11
8
33
15
-47
-76
-87
-94
-73
-35
-3
20
22
-4
-25
-64
-94
-98
-75
-42
3
12
18
3
-36
-75
-94
-69
-37
-6
18
29
13
6
-19
-54
-81
-67
-35
-6
18
44
32
22
-15
-47
-57
-42
-22
6
39
43
39
34
-5
-26
-40
-39
-13
20
55
64
45
21
-7
-19
-39
-34
-5
21
51
73
55
43
-4
-33
-58
-50
-26
-3
29
47
46
34
-9
-24
-53
-42
-29
-1
15
38
20
-17
-30
-55
-77
-68
-55
-30
-2
16
15
2
-35
-53
-77
-71
-42
-8
16
21
8
-29
-47
-70
-82
-69
-31
8
16
7
-4
-27
-50
-75
-98
-81
-50
-15
17
42
-3
-33
-57
-82
-93
-81
-64
-18
0
17
2
-30
-51
-79
-91
-68
-38
-13
5
11
-19
-55
-69
-93
-105
-82
-42
-14
13
20
-11
-48
-75
-101
-102
-70
-45
-13
-6
1
-21
-43
-68
-102
-93
-65
-51
-37
1
-9
-29
-50
-80
-106
-100
-82
-67
-49
-16
-13
-19
-62
-89
-110
-106
-92
-65
-34
-10
5
-19
-58
-91
-120
-108
-95
-76
-52
0
-19
-27
-68
-102
-123
-99
-83
-54
-33
-14
-26
-48
-80
-109
-120
-106
-85
-52
-28
-3
-13
-47
-76
-104
-119
-97
-85
-51
-24
-7
-28
-39
-78
-108
-102
-91
-68
-36
-21
8
-14
-42
-66
-83
-111
-101
-68
-49
-33
-19
-35
-52
-77
-93
-115
-107
-90
-48
-26
-12
-36
-60
-97
-108
-106
-112
-86
-46
-27
-16
-40
-69
-85
-115
-120
-118
-86
-49
-31
-16
-30
-62
-91
-116
-120
-102
-69
-43
-27
-26
-38
-65
-98
-117
-127
-97
-64
-43
-25
-5
-38
-73
-105
-120
-136
-100
-54
-19
17
19
4
-16
-38
-48
-19
29
82
104
137
109
95
51
10
-26
-43
-44
-30
-20
-29
-38
-65
-80
-89
-112
-104
-83
-44
-19
6
4
-4
-52
-88
-117
-117
-90
-61
-31
-14
-26
-36
-74
-105
-114
-97
-77
-48
-30
-5
-18
-38
-64
-84
-106
-96
-70
-43
-20
8
-9
-36
-58
-85
-111
-97
-66
-40
-22
-1
-5
-48
-75
-106
-120
-90
-54
-25
-5
13
-2
-42
-69
-84
-102
-91
-58
-21
8
30
7
-21
-47
-74
-100
-79
-46
0
14
21
8
-24
-46
-60
-83
-60
-32
2
20
30
2
-7
-41
-64
-70
-57
-24
7
32
47
21
-14
-52
-57
-69
-44
2
17
26
45
19
-4
-33
-46
-76
-51
-38
0
21
24
-4
-38
-64
-85
-93
-72
-45
-18
5
12
-21
-52
-91
-102
-93
-74
-22
-8
-3
3
-10
-41
-76
-95
-96
-81
-48
-26
-9
-6
-28
-52
-79
-98
-98
-68
-38
-27
-12
-16
-41
-76
-91
-94
-93
-74
-44
-11
13
-9
-28
-64
-80
-88
-85
-72
-38
-10
7
-8
-18
-65
-92
-101
-85
-63
-30
-18
6
-16
-42
-59
-79
-105
-83
-58
-25
-9
9
-9
-48
-78
-96
-105
-99
-63
-36
-18
11
-2
-41
-74
-93
-103
-83
-39
-17
-13
2
-7
-45
-79
-103
-96
-64
-65
-28
-8
20
1
-34
-68
-101
-113
-95
-55
-11
22
-4
-18
-57
-91
-108
-119
-99
-72
-38
-4
11
-6
-33
-69
-82
-100
-90
-56
-29
3
6
-20
-51
-78
-96
-101
-83
-54
-12
-2
17
2
-42
-73
-101
-103
-77
-51
-24
-1
4
-25
-55
-79
-101
-102
-77
-42
-13
19
24
-6
-22
-51
-95
-82
-48
-21
-1
9
-1
-22
-57
-84
-105
-95
-85
-51
-20
-3
-13
-22
-49
-65
-105
-97
-67
-34
-22
6
-7
-52
-66
-91
-112
-93
-67
-27
-6
3
-11
-41
-64
-79
-104
-80
-82
-53
-20
-11
0
-33
-66
-102
-120
-91
-70
-56
-16
-5
-38
-55
-82
-100
-121
-98
-63
-37
-10
-3
-20
-40
-64
-88
-93
-50
-18
19
49
80
83
85
89
61
49
53
67
88
91
85
31
-13
-66
-115
-134
-117
-85
-44
-18
-17
-18
-39
-67
-87
-110
-84
-62
-27
-9
-4
-41
-69
-80
-103
-111
-84
-63
-43
-23
9
-9
-48
-78
-106
-114
-88
-60
-36
-7
-6
-7
-52
-83
-106
-114
-99
-50
-6
20
-4
-24
-64
-79
-100
-83
-87
-43
-12
18
7
-23
-68
-84
-102
-94
-70
-44
-4
14
8
-18
-52
-79
-84
-82
-52
-31
-5
20
14
5
-50
-76
-89
-70
-60
-32
5
31
23
-3
-32
-51
-64
-57
-34
6
32
53
33
0
-39
-58
-70
-39
-11
18
23
37
26
5
-29
-51
-56
-42
-32
6
24
46
5
-16
-34
-63
-93
-64
-40
0
13
15
0
-32
-63
-83
-79
-66
-44
-23
-11
14
-16
-48
-77
-93
-109
-91
-54
-14
0
4
-32
-51
-77
-97
-102
-91
-64
-32
-18
0
-28
-52
-74
-88
-110
-82
-45
-26
-7
10
-16
-48
-84
-104
-111
-75
-64
-21
-6
6
-12
-43
-68
-93
-119
-83
-48
-21
-23
-14
-32
-56
-73
-95
-100
-69
-45
-16
0
5
-14
-47
-81
-105
-103
-66
-30
-11
7
11
-16
-66
-89
-110
-109
-92
-48
-20
6
-8
-25
-66
-87
-120
-94
-66
-32
-12
20
0
-22
-53
-76
-98
-107
-82
-28
-7
0
-23
-45
-71
-82
-94
-84
-62
-46
-25
9
-2
-36
-72
-93
-105
-85
-70
-43
-19
-5
-14
-33
-65
-94
-106
-92
-68
-31
-18
3
-8
-55
-76
-101
-128
-106
-83
-45
-6
22
-10
-39
-75
-98
-104
-84
-52
-32
-2
16
-13
-47
-72
-95
-98
-87
-57
-23
-9
0
-17
-46
-73
-78
-92
-78
-52
-24
-9
3
0
-41
-65
-76
-82
-73
-49
-10
2
9
2
-50
-74
-108
-121
-91
-61
-24
-8
4
-17
-49
-69
-97
-103
-82
-67
-32
-8
-7
-24
-49
-75
-90
-106
-83
-44
-18
5
-2
-36
-70
-84
-112
-109
-80
-47
-23
-15
-22
-55
-72
-83
-95
-102
-85
-47
-25
-6
-14
-28
-62
-85
-116
-113
-85
-59
-29
21
22
21
4
-26
-37
-15
19
74
133
163
152
131
86
53
3
0
4
10
17
19
-12
-32
-74
-98
-110
-94
-53
-19
12
19
-3
-21
-38
-79
-96
-74
-45
-19
-11
8
4
-13
-39
-59
-77
-76
-46
-14
10
24
8
-9
-48
-70
-77
-78
-59
-20
7
26
4
-34
-53
-67
-84
-70
-33
-6
23
43
-5
-29
-57
-75
-86
-67
-18
19
19
38
20
-20
-61
-85
-91
-65
-25
3
11
33
11
-25
-54
-61
-77
-40
-12
16
29
36
7
-14
-36
-57
-50
-49
-12
18
46
44
33
8
-19
-53
-42
-20
11
37
47
47
40
-10
-34
-55
-46
-29
11
27
53
30
15
-28
-41
-55
-40
-27
-1
22
35
33
16
8
-30
-67
-61
-56
-10
15
12
5
1
-34
-65
-98
-79
-59
-20
-4
12
1
-24
-59
-58
-103
-98
-72
-51
-15
18
-9
-20
-50
-85
-93
-80
-56
-28
1
21
8
-10
-48
-80
-93
-84
-48
-24
1
19
-9
-35
-66
-92
-106
-82
-51
-37
-1
8
-9
-29
-59
-78
-96
-71
-42
-21
-4
16
0
-26
-55
-72
-83
-69
-49
-13
2
22
7
-23
-66
-87
-92
-75
-47
-11
6
25
-1
-35
-64
-80
-95
-72
-52
-19
11
20
1
-38
-66
-98
-95
-76
-35
6
17
24
16
-42
-65
-80
-86
-71
-41
-11
9
17
-11
-31
-59
-87
-84
-64
-54
-12
24
11
-7
-49
-75
-83
-81
-70
-38
-2
14
8
-12
-60
-73
-93
-84
-61
-20
1
21
2
-4
-50
-59
-79
-76
-64
-28
11
23
20
10
-32
-66
-75
-84
-66
-14
1
30
13
-5
-35
-47
-81
-69
-35
-8
10
31
10
-11
-45
-69
-86
-75
-49
-2
20
27
11
-32
-61
-73
-89
-83
-44
2
12
25
14
-15
-45
-61
-80
-70
-43
-18
10
22
-3
-21
-53
-71
-91
-62
-25
-4
19
16
-1
-35
-65
-77
-85
-66
-29
-13
6
24
12
-37
-59
-78
-88
-66
-37
-1
21
19
-7
-36
-61
-55
-71
-44
-7
49
75
75
75
70
66
56
52
74
89
114
122
114
82
35
-18
-66
-82
-68
-62
-35
0
10
-17
-37
-59
-90
-76
-53
-30
4
23
21
-6
-40
-63
-82
-75
-61
-29
-3
28
26
-1
-22
-64
-91
-82
-43
-26
-11
27
3
-5
-43
-53
-71
-58
-35
-14
25
48
36
11
-27
-56
-69
-53
-35
-1
31
59
49
36
-13
-33
-53
-40
-28
-5
29
46
41
10
-15
-43
-65
-40
-16
20
37
61
45
20
0
-24
-38
-21
10
34
57
82
58
39
3
-40
-51
-23
6
43
66
71
57
42
12
-25
-37
-10
10
38
69
77
60
33
-1
-21
-37
-13
19
43
64
76
49
24
-8
-51
-59
-51
-29
22
49
46
19
-3
-29
-56
-78
-66
-31
-6
29
35
14
-23
-65
-85
-86
-59
-31
-10
19
23
14
-22
-55
-74
-83
-58
-29
-24
13
10
4
-44
-71
-81
-88
-78
-42
-12
10
12
-3
-40
-78
-95
-91
-67
-28
-7
17
18
-8
-59
-76
-91
-86
-59
-28
-7
22
1
-18
-50
-69
-101
-90
-64
-25
-4
17
7
-6
-49
-74
-99
-87
-50
-37
-9
12
15
1
-37
-76
-100
-90
-62
-29
-4
14
-7
-19
-51
-78
-105
-81
-51
-11
3
17
-3
-34
-56
-91
-97
-72
-58
-43
-9
26
-3
-39
-74
-73
-91
-85
-50
-18
3
7
-6
-41
-65
-72
-97
-75
-47
-36
-4
12
-10
-37
-69
-102
-106
-83
-50
-26
-2
22
6
-31
-51
-79
-106
-79
-62
-32
-15
-2
-16
-45
-66
-96
-107
-91
-41
-8
-1
6
-8
-46
-78
-100
-115
-76
-39
-18
10
25
-10
-44
-83
-86
-91
-75
-39
8
20
15
-13
-39
-56
-82
-88
-69
-27
-11
19
17
5
-27
-64
-91
-93
-69
-36
9
23
4
-28
-41
-68
-80
-82
-62
-35
1
11
3
-5
-35
-71
-90
-77
-59
-20
7
31
-11
-23
-51
-68
-83
-82
-57
-32
-8
25
15
-1
-51
-63
-90
-77
-62
-20
8
24
11
-14
-39
-61
-79
-67
-42
-19
-5
21
0
-32
-72
-93
-108
-79
-49
-10
17
51
36
32
14
-6
-10
31
91
134
148
159
134
107
74
33
-4
-10
-1
11
2
7
-4
-28
-55
-66
-74
-51
-28
-8
17
22
6
-32
-51
-73
-78
-54
-27
-2
9
22
10
-21
-41
-61
-74
-58
-37
-3
24
55
35
-14
-45
-57
-59
-32
-19
1
32
43
15
-7
-37
-62
-66
-43
5
29
50
59
30
-11
-45
-57
-58
-29
14
20
58
56
25
-6
-34
-60
-50
-19
5
23
47
46
28
-1
-30
-52
-44
-19
11
44
61
53
30
-3
-30
-48
-25
-19
23
58
70
56
40
-5
-27
-49
-36
-14
27
48
72
60
49
8
-9
-25
-33
-16
12
44
65
57
14
-11
-32
-61
-32
-18
15
31
56
37
1
-21
-51
-71
-74
-42
-9
14
36
7
-27
-55
-84
-102
-83
-54
-21
-14
13
11
-24
-46
-87
-98
-70
-57
-34
-11
10
1
-27
-78
-104
-109
-90
-50
-15
6
10
-11
-45
-71
-88
-107
-86
-71
-35
-4
22
-2
-43
-77
-101
-119
-75
-56
-38
-8
18
-14
-44
-83
-96
-112
-82
-47
-25
4
9
-14
-52
-87
-104
-100
-77
-46
-21
-5
2
-9
-47
-82
-98
-93
-70
-41
-9
4
-5
-19
-44
-75
-92
-92
-84
-47
-14
-3
-5
-23
-65
-93
-111
-110
-82
-45
-23
3
0
-17
-48
-78
-96
-80
-62
-42
-18
1
-6
-31
-54
-79
-109
-88
-67
-46
-16
17
-9
-34
-56
-79
-115
-98
-67
-43
-29
-10
-3
-39
-63
-79
-89
-69
-57
-33
-14
-3
-5
-29
-69
-93
-109
-82
-69
-41
-10
9
2
-30
-59
-88
-93
-80
-58
-22
-3
8
-10
-34
-56
-80
-100
-79
-44
-12
17
5
-1
-28
-66
-80
-102
-80
-39
-11
12
30
15
-21
-49
-88
-95
-74
-43
-21
21
28
-8
-40
-58
-78
-108
-84
-59
-17
-4
3
-8
-31
-53
-83
-104
-70
-59
-39
13
31
12
-43
-70
-106
-117
-90
-49
-18
5
-3
-22
-38
-61
-87
-93
-85
-50
-21
1
2
-16
-57
-77
-86
-99
-83
-44
-15
6
22
-1
-48
-73
-104
-103
-76
-28
6
29
31
25
8
-6
-7
0
60
114
143
154
136
119
72
27
-1
-7
-14
-7
-3
17
8
-15
-37
-53
-88
-90
-55
-27
4
38
15
-16
-42
-71
-83
-74
-58
-19
6
30
10
-15
-35
-67
-88
-74
-48
-1
7
29
11
-18
-46
-72
-89
-63
-47
-11
10
26
25
5
-23
-74
-87
-67
-33
-17
8
20
4
-16
-47
-63
-80
-58
-26
1
16
30
5
-22
-43
-74
-83
-48
-21
10
25
41
22
-13
-45
-59
-71
-48
-15
15
42
53
27
7
-17
-47
-60
-41
4
30
55
55
34
-2
-23
-42
-44
-11
6
35
58
87
64
27
2
-20
-43
-15
18
38
56
58
50
8
-25
-36
-33
-7
16
35
51
32
16
-15
-18
-56
-66
-37
-19
20
22
10
-4
-23
-42
-59
-68
-43
-17
-1
15
14
-19
-45
-54
-83
-74
-53
-8
15
38
27
-6
-34
-76
-93
-77
-58
-28
-1
21
4
-17
-55
-89
-108
-77
-48
-3
14
34
16
-16
-56
-78
-97
-77
-41
-17
27
13
-15
-19
-55
-78
-110
-82
-37
-13
6
19
-4
-28
-60
-77
-80
-69
-34
4
19
32
16
-23
-52
-63
-88
-85
-46
-15
-8
17
-8
-45
-68
-86
-100
-59
-33
-6
14
15
-8
-35
-63
-70
-95
-68
-40
-5
2
5
-10
-31
-61
-82
-83
-52
-31
-14
-9
7
4
-42
-69
-82
-90
-67
-38
0
24
16
-2
-38
-76
-96
-98
-78
-41
-13
1
17
-13
-32
-66
-84
-92
-71
-37
-9
11
5
-13
-37
-56
-70
-66
-73
-36
-12
20
17
3
-49
-66
-94
-74
-46
-12
-2
18
17
-6
-35
-61
-81
-68
-46
-14
20
39
27
-16
-52
-67
-91
-74
-58
-29
-3
10
9
-27
-57
-68
-91
-79
-66
-38
4
19
8
-12
-51
-63
-94
-83
-63
-34
-3
15
-8
-34
-52
-79
-96
-71
-40
-12
-3
1
-11
-24
-57
-87
-101
-80
-44
-12
8
19
7
-36
-64
-85
-95
-69
-51
-44
-18
8
-4
-20
-29
-43
-45
-15
23
70
116
146
137
119
82
51
27
37
55
72
59
67
9
-39
-73
-73
-92
-71
-36
-23
23
36
4
-30
-53
-78
-87
-59
-23
4
25
25
0
-22
-42
-80
-78
-66
-33
1
30
29
4
-30
-59
-85
-68
-58
-20
5
30
35
7
-19
-48
-76
-69
-49
-22
10
30
19
-3
-34
-66
-77
-69
-40
-21
14
36
32
15
-26
-49
-75
-66
-48
-4
23
45
24
-9
-45
-50
-70
-38
-23
2
31
45
31
14
-4
-27
-53
-40
-26
5
40
53
36
10
-17
-44
-56
-31
-8
20
48
76
40
16
-15
-25
-43
-14
5
22
50
66
64
31
5
-22
-48
-37
-7
16
35
53
53
16
-30
-58
-60
-45
-20
8
21
33
10
-24
-42
-62
-77
-62
-23
11
31
28
12
-13
-48
-83
-86
-78
-36
-7
-1
18
4
-17
-44
-74
-88
-68
-46
-10
15
23
6
-18
-50
-72
-89
-59
-38
-2
7
20
-3
-32
-62
-92
-92
-65
-25
4
24
30
17
-27
-56
-91
-76
-57
-28
-2
24
16
-3
-24
-62
-77
-74
-47
-15
5
27
8
1
-29
-62
-88
-72
-64
-29
18
39
27
7
-34
-68
-88
-73
-52
-19
10
30
18
1
-24
-59
-90
-80
-60
-23
-8
11
-4
-21
-57
-69
-93
-59
-35
-17
7
19
5
-18
-52
-67
-82
-58
-45
-24
5
34
27
-8
-53
-66
-86
-79
-41
-16
-3
3
-3
-26
-53
-72
-91
-82
-35
5
10
17
1
-25
-55
-80
-96
-77
-48
-12
12
27
8
-24
-60
-83
-89
-64
-40
-13
11
32
-4
-32
-50
-69
-84
-64
-23
8
23
20
-1
-29
-62
-76
-74
-53
-29
-5
23
36
8
-16
-47
-65
-81
-56
-49
-21
8
38
27
-6
-39
-68
-72
-43
-6
10
33
25
7
-38
-74
-87
-83
-63
-26
20
9
-4
-14
-44
-74
-85
-64
-63
-35
-12
17
-9
-13
-46
-68
-78
-50
-44
-6
12
30
19
-6
-46
-71
-82
-74
-57
-29
-20
10
-5
-22
-57
-65
-88
-73
-66
-36
0
11
-17
-33
-60
-74
-89
-70
-20
27
56
77
81
59
56
70
72
86
108
124
137
134
115
77
13
-20
-68
-76
-58
-40
-2
26
12
-14
-48
-66
-67
-63
-35
-20
-5
11
11
-25
-37
-66
-68
-49
-33
-6
23
34
20
-18
-54
-81
-79
-63
-46
-4
20
33
3
-22
-43
-68
-87
-58
-31
3
29
38
3
-24
-44
-67
-82
-36
-28
13
38
40
7
-14
-40
-46
-63
-53
-35
4
32
31
15
-10
-50
-68
-72
-34
-14
22
41
42
21
-6
-22
-51
-48
-28
5
32
54
48
30
-11
-41
-68
-44
-21
26
44
68
55
45
12
-14
-36
-26
-2
22
43
74
64
43
5
-21
-30
-19
0
27
64
72
44
19
-19
-34
-60
-33
-11
10
30
54
21
5
-15
-47
-59
-56
-32
3
20
30
12
-6
-43
-66
-82
-68
-32
-4
23
46
20
-17
-35
-60
-80
-82
-47
-15
1
15
3
-16
-41
-66
-91
-81
-41
-9
7
26
11
-25
-54
-69
-70
-59
-34
1
14
28
-2
-20
-41
-47
-82
-77
-42
-4
-1
17
6
-30
-61
-76
-75
-66
-35
-1
27
35
10
-11
-41
-72
-85
-54
-19
13
21
45
33
-24
-68
-92
-84
-55
-31
-13
10
17
-6
-21
-43
-66
-68
-61
-39
-5
21
26
17
-16
-50
-71
-72
-48
-13
6
37
31
2
-42
-65
-88
-72
-51
-15
6
27
21
0
-36
-72
-77
-79
-52
-10
4
31
22
-3
-39
-55
-82
-69
-35
-6
11
26
27
6
-39
-61
-80
-71
-50
-17
8
30
30
-7
-43
-53
-79
-70
-38
2
19
33
24
-2
-31
-51
-63
-42
-17
7
22
44
22
-11
-47
-56
-76
-66
-36
-11
21
32
6
-32
-52
-74
-97
-81
-57
-15
5
15
20
-10
-43
-69
-80
-61
-38
-10
12
39
16
-24
-61
-82
-91
-80
-39
-6
14
19
10
-13
-42
-77
-86
-79
-44
-21
1
9
-9
-23
-56
-72
-100
-65
-34
-20
20
15
1
-20
-50
-43
-27
-7
33
75
104
132
129
104
87
56
50
64
66
90
90
68
28
-24
-59
-85
-86
-76
-44
-19
18
15
5
-22
-39
-65
-71
-41
-13
10
32
29
21
-11
-54
-64
-51
-42
-12
12
37
32
9
-15
-55
-77
-61
-46
-19
11
34
28
17
-12
-43
-64
-53
-24
5
31
53
24
17
-18
-39
-55
-43
-25
0
23
54
28
9
-24
-34
-55
-27
1
17
27
35
26
12
-23
-42
-40
-29
-11
32
44
58
47
31
-10
-33
-45
-24
2
24
48
69
50
18
7
-22
-23
-6
21
41
72
74
66
35
18
-20
-29
-1
15
56
74
78
65
24
-15
-34
-43
-25
18
34
52
70
61
20
-24
-43
-48
-19
11
32
58
44
29
-16
-50
-48
-56
-45
-17
10
38
26
16
-10
-52
-64
-62
-49
-23
-3
29
27
10
-31
-64
-81
-74
-50
-17
10
47
36
9
-29
-51
-72
-71
-51
-25
10
32
13
-2
-26
-61
-88
-52
-43
-7
13
34
16
-4
-40
-53
-63
-58
-33
-20
15
32
8
-13
-38
-60
-70
-49
-27
-9
-7
34
29
9
-31
-55
-68
-48
-33
-6
15
36
20
-6
-35
-64
-77
-54
-31
0
16
34
11
-3
-37
-62
-61
-56
-37
-2
18
36
13
-10
-32
-49
-76
-58
-42
3
28
33
19
-16
-53
-76
-87
-64
-31
5
30
37
14
-10
-42
-60
-64
-45
-22
-1
11
33
16
-13
-58
-78
-67
-54
-24
6
24
26
6
-11
-51
-78
-83
-63
-31
-7
22
24
4
-20
-40
-46
-70
-43
-23
10
28
30
23
-6
-36
-70
-68
-42
-11
20
33
33
15
-23
-42
-73
-65
-41
-1
24
41
23
13
-7
-35
-72
-66
-28
-1
18
29
20
-7
-36
-60
-81
-64
-36
-4
24
32
2
-7
-30
-69
-80
-73
-43
-12
10
38
23
3
-33
-64
-86
-79
-44
-16
14
30
11
-19
-48
-71
-86
-75
-46
-5
13
14
6
-11
-43
-71
-83
-69
-57
-33
3
36
11
-16
-46
-68
-73
-51
-19
25
42
74
69
65
62
71
71
93
110
134
137
126
110
69
18
-25
-60
-62
-41
-10
9
24
13
-5
-36
-62
-75
-48
-19
11
11
24
10
-19
-47
-59
-66
-46
-9
14
41
39
10
-15
-45
-68
-76
-55
-17
6
21
40
17
-13
-70
-64
-71
-46
-12
29
46
47
13
-23
-42
-61
-68
-48
-14
12
43
43
8
-12
-26
-64
-54
-48
-14
20
50
35
7
-26
-31
-49
-49
-24
-6
26
42
50
29
8
-25
-44
-32
-7
9
37
66
56
37
-2
-21
-43
-33
-11
20
49
70
56
39
5
-2
-22
-9
-1
42
65
81
57
41
15
-3
-17
-8
10
40
61
85
54
25
3
-23
-44
-44
-15
31
59
73
60
19
-11
-43
-57
-52
-13
18
41
64
33
10
-14
-62
-85
-60
-16
3
29
45
27
-4
-34
-57
-65
-50
-16
5
22
53
30
7
-30
-65
-85
-51
-21
11
30
49
26
-5
-29
-55
-62
-43
-7
20
38
39
27
-3
-32
-49
-52
-39
-19
10
21
33
21
-10
-42
-64
-70
-39
-15
4
35
36
19
-12
-36
-48
-48
-26
-3
27
53
45
17
-7
-37
-73
-65
-48
-22
11
42
40
22
-10
-33
-67
-60
-45
-3
23
35
34
8
-25
-48
-67
-51
-32
-16
1
24
33
9
-22
-47
-65
-56
-34
7
23
35
18
14
-24
-51
-70
-64
-31
3
27
42
15
-2
-36
-60
-66
-55
-36
-7
20
25
28
-1
-40
-64
-78
-65
-40
-15
16
50
33
10
-30
-61
-80
-66
-33
1
27
35
13
-10
-39
-38
-62
-52
-29
3
23
37
16
-7
-49
-58
-69
-55
-24
2
20
49
30
7
-27
-53
-59
-44
-13
29
40
42
17
-12
-40
-55
-51
-48
-22
1
30
38
14
-28
-56
-69
-77
-53
-18
10
24
32
16
-21
-58
-79
-77
-61
-38
-8
20
37
34
-23
-44
-58
-64
-55
-27
3
20
20
1
-33
-60
-75
-77
-47
-20
9
23
21
11
-24
-60
-84
-79
-69
-26
-4
29
22
2
-22
-38
-42
-17
27
48
89
114
132
135
119
93
72
67
76
93
101
98
65
20
-32
-63
-82
-59
-40
-4
20
34
20
13
-16
-47
-77
-61
-31
7
30
38
22
0
-32
-52
-82
-69
-30
-1
15
26
23
-7
-25
-57
-79
-48
-16
-2
17
35
18
3
-27
-52
-63
-47
-19
19
34
39
31
-10
-32
-54
-54
-32
-25
3
44
60
34
10
-34
-68
-59
-60
-24
6
19
43
51
4
-38
-42
-56
-31
0
27
56
61
33
-1
-26
-43
-48
-24
19
38
64
72
41
7
-8
-24
-39
-5
38
55
68
66
45
31
-2
-34
-36
6
21
39
67
74
52
19
-7
-43
-20
-1
28
53
60
52
38
13
-10
-46
-39
-17
-5
18
53
49
35
-4
-54
-74
-59
-29
-7
13
41
16
-8
-36
-55
-73
-48
-34
-4
20
30
18
-7
-26
-59
-68
-50
-35
-13
16
40
27
4
-22
-55
-72
-59
-41
5
23
29
20
5
-8
-40
-65
-52
-26
2
33
46
30
4
-39
-60
-77
-58
-22
15
42
52
34
6
-39
-49
-38
-31
-16
12
22
40
18
8
-21
-43
-55
-39
-17
16
37
54
36
2
-33
-50
-66
-49
-5
13
41
62
35
6
-25
-50
-55
-43
-2
22
45
47
27
5
-41
-59
-64
-59
-15
24
33
36
32
7
-30
-56
-66
-47
-5
27
41
45
30
1
-33
-54
-46
-49
-21
22
38
44
22
4
-29
-71
-74
-44
-11
19
38
38
16
-18
-46
-62
-54
-34
0
21
52
46
14
-8
-32
-51
-47
-29
16
32
58
46
25
-21
-42
-31
-44
-38
-1
30
50
35
17
-21
-38
-68
-60
-31
-8
19
38
26
3
-24
-53
-74
-63
-42
-13
12
37
31
21
-8
-43
-73
-67
-39
-32
0
29
41
12
-27
-56
-76
-60
-38
-12
8
19
5
-17
-44
-55
-80
-60
-30
-6
14
41
8
-18
-44
-68
-76
-77
-56
-31
5
31
19
13
-17
-35
-41
-16
25
63
105
128
124
117
88
72
54
57
80
93
93
86
46
-9
-40
-82
-87
-55
-36
-12
2
23
8
-21
-51
-59
-69
-51
-25
-5
41
35
16
-7
-42
-73
-90
-47
-20
17
27
38
20
1
-36
-69
-69
-45
-1
11
22
19
5
-25
-43
-70
-69
-40
-4
24
36
23
11
-20
-41
-60
-64
-33
8
15
48
30
7
-1
-22
-71
-53
-23
-18
22
51
41
9
-20
-33
-56
-38
-18
3
28
60
48
15
-6
-44
-59
-38
-15
21
46
72
60
35
-2
-19
-35
-16
2
39
60
67
45
46
14
-17
-45
-17
20
46
69
71
75
34
1
-25
-50
-36
-2
26
66
91
71
28
-4
-37
-58
-51
-21
19
36
44
35
4
-34
-56
-59
-48
-17
12
42
38
16
-17
-49
-67
-72
-48
-16
13
24
37
16
-18
-48
-77
-76
-54
-26
10
21
40
15
-25
-49
-66
-68
-60
-33
5
23
26
1
-28
-55
-68
-72
-47
-24
9
37
35
11
-20
-54
-73
-76
-46
1
21
46
40
11
-25
-35
-59
-73
-42
-18
6
29
31
8
-20
-62
-75
-65
-45
-9
11
37
30
19
-14
-51
-71
-63
-43
-2
15
54
30
7
-22
-46
-72
-54
-39
-13
14
35
17
6
-19
-46
-69
-64
-32
-3
31
41
19
2
-27
-47
-72
-66
-42
-6
17
31
21
-16
-35
-65
-73
-55
-31
2
26
47
26
-20
-59
-60
-65
-52
-27
7
25
36
17
4
-42
-83
-78
-57
-24
-2
26
50
23
-5
-39
-50
-67
-62
-24
-7
21
33
16
-11
-40
-45
-71
-37
-13
11
27
33
9
1
-21
-57
-51
-45
-11
23
41
33
19
-6
-36
-51
-62
-32
-4
21
33
29
20
-5
-33
-67
-72
-49
-24
6
40
23
13
-11
-50
-70
-61
-55
-20
6
23
27
6
-25
-47
-72
-76
-51
-26
8
32
40
14
-18
-49
-90
-84
-60
-18
11
34
26
15
-21
-55
-84
-65
-46
-19
13
30
17
9
-11
-71
-85
-70
-50
-23
13
50
44
32
9
-1
-11
22
65
120
165
179
161
131
95
57
16
17
23
29
30
28
12
-2
-29
-53
-81
-60
-24
-2
26
38
29
6
-34
-50
-81
-70
-31
-4
29
38
14
-13
-29
-46
-65
-49
-24
12
32
42
31
-8
-39
-65
-56
-40
-17
16
28
39
17
-16
-44
-66
-70
-38
-13
14
15
31
22
-14
-26
-43
-57
-42
-1
29
40
55
31
7
-29
-64
-67
-35
-1
31
49
58
21
-9
-43
-59
-59
-33
18
36
55
51
41
16
-11
-36
-43
-20
4
43
64
62
42
22
-5
-18
-26
13
42
57
74
63
41
21
-7
-31
-13
-4
29
61
80
63
49
14
-15
-36
-23
-5
18
36
58
51
30
-3
-32
-55
-42
-28
3
34
48
36
12
-21
-39
-67
-53
-32
-9
21
37
27
-7
-30
-55
-72
-66
-36
-9
17
46
33
-6
-35
-66
-75
-61
-43
-3
19
30
12
-14
-35
-59
-82
-56
-31
4
24
41
23
-4
-25
-50
-78
-75
-25
2
28
23
28
-2
-23
-56
-89
-78
-33
-10
18
42
31
0
-33
-47
-73
-57
-23
7
7
37
27
15
-39
-63
-79
-36
-18
8
32
39
22
-10
-45
-62
-66
-52
-13
9
33
39
15
-11
-43
-57
-62
-53
-20
18
24
35
34
-6
-42
-79
-78
-49
-15
10
38
47
23
-14
-44
-66
-60
-44
-14
9
19
23
18
-22
-50
-80
-66
-37
-9
16
33
35
26
-18
-37
-74
-65
-39
-14
7
35
24
-9
-20
-46
-74
-51
-37
-3
21
41
15
3
-28
-53
-78
-55
-17
22
24
37
45
-2
-31
-47
-69
-55
-27
16
39
56
37
10
-19
-52
-70
-38
-8
18
53
62
34
0
-43
-55
-72
-49
-23
1
14
36
34
-9
-40
-55
-65
-42
-22
1
7
26
26
-9
-34
-70
-85
-55
-19
1
23
27
22
-1
-46
-59
-60
-52
-29
8
24
29
-2
-31
-51
-70
-77
-50
-35
6
23
29
22
-1
-52
-62
-80
-67
-36
-6
14
28
2
-21
-38
-49
-40
1
40
77
106
131
146
119
83
75
58
77
90
103
102
85
48
3
-45
-80
-73
-54
-27
0
30
26
11
-16
-30
-61
-67
-29
-6
12
26
28
12
-18
-57
-79
-64
-40
-7
30
44
37
2
-35
-57
-66
-53
-45
7
25
43
28
2
-34
-50
-71
-51
-25
5
28
41
25
3
-25
-53
-72
-51
-22
8
32
38
24
12
-20
-55
-67
-41
-18
13
28
50
33
10
-23
-28
-47
-30
-6
15
37
54
42
7
-15
-34
-34
-25
-5
46
56
55
44
21
-13
-27
-35
-13
14
44
66
80
60
31
4
-23
-38
0
26
58
79
93
67
27
-3
-26
-44
-11
30
63
61
71
43
14
-18
-38
-37
-24
18
45
45
55
32
-1
-41
-70
-76
-41
0
30
35
34
30
-14
-48
-57
-50
-33
-4
15
30
19
7
-20
-56
-71
-60
-40
-2
33
48
35
18
-11
-60
-90
-74
-64
-19
0
27
26
11
-19
-43
-62
-55
-22
5
28
52
8
5
-24
-53
-71
-55
-31
4
23
44
33
-8
-28
-49
-78
-66
-48
-21
6
44
36
17
-7
-39
-62
-57
-25
4
20
49
25
14
-26
-42
-62
-57
-30
14
27
40
15
9
-30
-44
-73
-43
-19
0
29
53
20
-9
-38
-59
-79
-50
-17
-3
16
21
21
4
-13
-39
-67
-40
-20
9
34
38
12
-14
-35
-64
-68
-42
-6
5
24
37
14
-9
-34
-60
-72
-49
-16
14
33
46
18
-12
-38
-59
-60
-53
-12
23
39
53
19
-22
-36
-36
-58
-49
-9
29
41
52
33
-9
-35
-51
-57
-39
-2
18
42
50
30
4
-32
-66
-67
-48
-18
10
30
24
25
-4
-29
-57
-51
-37
-20
1
23
11
3
-26
-43
-61
-59
-32
-11
17
26
15
1
-27
-51
-69
-58
-30
-4
16
33
21
-4
-29
-57
-78
-59
-34
-6
29
37
28
14
-12
-64
-84
-59
-39
-23
0
29
27
12
-18
-30
-38
-8
23
75
111
149
154
141
118
75
48
59
66
73
84
74
46
12
-28
-54
-81
-73
-41
-11
28
46
27
-1
-37
-57
-67
-44
-16
-4
25
34
15
-10
-28
-48
-65
-48
-27
-2
30
51
26
3
-24
-52
-65
-44
-19
18
40
58
35
0
-23
-34
-63
-58
-24
9
26
28
26
-10
-26
-56
-68
-33
-5
11
41
64
38
1
-38
-59
-56
-31
-5
36
60
43
44
3
-25
-37
-36
-21
4
30
55
47
36
10
-13
-40
-42
-13
21
42
73
57
30
8
1
-32
-6
4
35
68
86
65
63
25
-3
-22
-15
4
25
51
86
77
60
22
5
-21
-14
-14
32
64
67
53
39
-4
-31
-48
-27
-8
25
45
54
35
12
-13
-40
-53
-46
-21
2
40
60
28
4
-30
-52
-78
-58
-47
-4
15
46
33
6
-21
-32
-60
-52
-16
5
22
49
31
1
-29
-59
-76
-62
-42
-2
30
43
19
-2
-34
-47
-49
-51
-3
12
31
44
8
-9
-44
-65
-87
-47
-8
21
28
49
37
4
-40
-62
-74
-43
-13
26
46
53
28
-2
-33
-60
-71
-43
-9
22
45
51
22
-10
-48
-63
-49
-44
-6
24
38
32
17
-13
-39
-61
-49
-26
-12
28
40
27
36
0
-36
-61
-60
-40
-10
17
27
28
17
-30
-47
-64
-46
-25
1
26
57
43
18
-15
-44
-70
-47
-37
-1
20
42
23
-2
-22
-58
-69
-54
-39
-27
16
48
34
1
-36
-49
-66
-56
-32
-6
24
46
36
14
-31
-61
-58
-45
-22
5
19
44
28
3
-21
-46
-59
-44
-13
13
27
48
24
13
-22
-55
-82
-43
-14
13
37
47
35
8
-26
-47
-62
-49
-13
18
35
54
40
6
-25
-45
-67
-35
-3
31
50
43
21
-4
-27
-39
-61
-65
-26
18
37
38
23
-14
-47
-65
-76
-45
-25
-2
32
42
21
-16
-40
-68
-74
-39
-20
11
30
28
1
-28
-47
-70
-63
-46
-18
18
41
49
22
-13
-44
-68
-73
-38
-11
-6
36
23
8
-26
-44
-53
-40
-12
30
61
78
78
74
84
82
78
78
100
117
134
137
129
94
41
1
-70
-70
-54
-10
17
46
33
10
-13
-47
-65
-45
-39
4
28
42
35
14
-14
-40
-64
-39
-19
-3
19
42
23
-1
-19
-51
-67
-45
-22
15
29
42
38
13
-26
-45
-67
-53
-31
2
40
62
47
24
-7
-36
-62
-54
-14
20
41
51
37
9
-20
-48
-60
-49
-13
32
53
59
34
-2
-29
-54
-55
-21
9
27
54
62
51
16
-24
-40
-49
-12
10
36
53
76
63
26
6
-20
-26
-3
20
56
63
77
72
40
5
-16
-21
-4
31
57
81
88
62
33
6
-13
-19
10
22
51
67
72
39
5
-6
-26
-23
-5
31
69
78
69
38
3
-18
-49
-43
-17
19
38
52
39
20
-11
-46
-67
-52
-25
-6
30
36
29
7
-12
-34
-70
-54
-27
2
35
53
29
19
-8
-44
-67
-59
-25
2
25
55
49
24
-8
-31
-64
-52
-24
5
17
37
31
4
-32
-40
-61
-43
-28
4
16
42
37
-1
-21
-47
-62
-30
-8
19
44
64
37
3
-25
-49
-59
-42
-7
20
27
54
31
2
-28
-53
-64
-29
7
29
43
52
24
3
-24
-52
-62
-52
-16
23
26
38
34
11
-22
-51
-55
-28
-3
30
47
45
29
3
-28
-45
-46
-23
-12
10
35
40
20
-7
-31
-57
-55
-33
1
19
33
43
23
-9
-38
-55
-59
-39
11
14
42
55
26
-10
-39
-50
-62
-47
-3
24
35
48
39
4
-26
-50
-51
-38
-9
19
46
42
18
-13
-48
-66
-66
-43
-2
30
59
44
23
-20
-35
-65
-61
-44
10
32
44
23
14
2
-31
-47
-49
-18
12
38
55
45
28
-6
-32
-50
-32
-17
3
28
49
35
14
-2
-14
-49
-36
-4
15
25
46
34
18
-22
-36
-57
-37
-6
24
39
55
41
20
-13
-46
-57
-48
-22
15
33
42
22
7
-23
-33
-53
-50
-28
-1
26
45
35
4
-27
-40
-57
-37
-21
6
25
38
21
-2
-34
-47
-56
-39
-11
14
35
54
22
-22
-38
-54
-66
-36
-24
4
35
46
19
-7
-27
-26
-21
-7
30
75
104
132
132
124
102
74
67
80
100
120
137
144
97
45
-26
-72
-68
-51
-17
7
31
35
28
2
-24
-49
-46
-31
5
34
52
48
22
-12
-29
-47
-38
-23
-2
31
63
39
26
-15
-45
-54
-44
-37
15
45
70
49
19
-20
-38
-80
-52
-11
15
27
56
38
22
-2
-18
-43
-36
-8
14
43
74
57
17
-13
-35
-48
-24
3
29
47
62
43
28
-3
-34
-49
-24
3
24
60
87
64
33
8
-17
-35
-19
5
32
71
77
74
49
23
-4
-24
-13
35
59
89
98
65
38
3
-8
-20
8
33
60
81
88
75
55
22
7
-7
6
29
65
100
98
67
27
6
-20
-40
-13
24
47
65
64
54
23
-5
-37
-43
-23
15
34
51
56
45
17
-23
-48
-42
-30
8
28
47
28
11
-4
-25
-45
-58
-29
13
31
42
46
28
0
-31
-57
-52
-33
6
36
56
42
22
-3
-31
-49
-43
-13
16
37
58
39
15
-15
-45
-71
-47
-6
8
32
51
44
28
-4
-39
-50
-36
-18
9
32
52
47
34
-6
-34
-45
-36
-17
21
43
75
61
16
-17
-34
-59
-47
-21
13
43
59
42
17
-9
-27
-45
-34
-17
11
38
67
48
21
-10
-33
-45
-39
-2
24
55
49
37
-12
-28
-41
-52
-19
17
33
53
57
39
19
-25
-40
-56
-44
-6
25
39
55
46
-1
-45
-51
-57
-27
1
32
51
53
20
-5
-34
-51
-48
-19
-2
14
43
42
34
7
-18
-38
-44
-34
-7
31
56
69
44
4
-28
-48
-55
-16
6
41
71
76
39
10
-20
-40
-50
-23
1
21
60
63
50
11
-11
-46
-44
-22
12
43
54
48
44
18
-28
-45
-43
-19
17
31
49
40
24
1
-18
-49
-58
-33
0
25
54
45
21
-7
-37
-64
-52
-24
10
38
51
25
13
-19
-41
-51
-38
-16
13
38
59
48
20
-8
-45
-61
-43
-23
15
31
51
45
13
-23
-47
-67
-31
0
23
59
91
76
62
42
41
44
78
107
139
180
192
163
110
67
27
-7
-12
-6
12
33
41
24
5
-14
-33
-53
-36
-19
12
39
63
36
10
-3
-28
-35
-23
-16
18
34
52
30
4
-17
-31
-44
-23
0
25
54
83
40
-1
-26
-44
-41
-12
2
35
53
60
42
11
-29
-42
-57
-34
0
45
71
63
54
26
-3
-30
-37
-8
12
36
64
64
41
5
-10
-29
-19
-6
13
44
66
58
31
3
-16
-37
-16
5
48
74
71
65
63
29
-1
-11
-3
21
50
79
101
80
59
21
5
-16
1
31
57
84
93
74
58
14
12
0
14
34
56
74
99
90
61
17
-3
-15
4
27
63
66
82
66
37
3
-18
-27
-23
-9
28
50
67
46
23
0
-20
-51
-26
1
32
52
63
43
11
-17
-30
-38
-15
11
33
52
59
49
-8
-29
-56
-68
-40
0
19
41
71
48
19
-16
-40
-56
-40
-14
10
39
68
45
22
-10
-40
-55
-32
6
38
56
55
29
7
-1
-43
-59
-30
2
32
55
62
38
0
-20
-34
-47
-36
1
43
64
62
42
13
-4
-37
-45
-31
-13
37
76
63
43
7
-20
-34
-31
-10
12
26
52
45
20
-20
-26
-52
-47
-21
14
44
62
54
43
19
-8
-57
-47
-17
16
48
67
48
24
-12
-29
-50
-36
-11
10
36
71
48
26
-12
-43
-63
-44
-14
16
45
54
40
21
-21
-37
-53
-29
3
29
53
64
46
17
2
-24
-43
-21
-9
12
35
43
21
-1
-17
-37
-57
-40
-9
20
43
61
36
22
1
-28
-36
-20
16
37
63
78
51
8
-12
-31
-44
-26
8
46
69
68
44
12
-6
-42
-41
-32
2
32
52
63
46
23
-16
-41
-54
-31
-3
20
34
49
40
2
-35
-41
-49
-16
6
22
39
46
30
10
-30
-44
-51
-27
12
16
58
48
20
-19
-33
-68
-42
-14
1
25
51
50
35
6
-29
-54
-63
-32
2
22
39
32
20
-11
-34
-45
-24
-1
31
69
88
101
98
91
74
76
81
103
136
150
156
146
109
67
22
-23
-25
-29
