142
145
150
145
150
147
145
145
148
149
150
148
149
145
138
142
149
149
151
150
149
153
148
141
147
149
145
157
151
134
139
150
151
142
148
152
151
152
145
145
152
141
148
152
154
148
143
148
150
156
147
141
144
152
149
150
149
153
148
144
148
154
153
150
150
148
149
142
148
156
153
150
151
150
142
146
146
154
150
145
143
151
153
149
147
139
145
158
156
146
149
150
147
144
152
144
153
157
153
148
147
158
152
152
148
149
149
156
150
155
154
143
148
153
147
154
153
150
148
159
160
146
143
154
157
148
152
149
147
153
155
152
154
157
151
147
157
165
167
168
166
163
169
174
168
160
167
161
164
161
165
163
164
157
153
154
154
155
154
151
153
151
145
149
149
149
153
148
148
158
157
150
141
155
154
158
150
149
156
150
145
149
144
130
116
104
111
117
138
156
178
198
206
227
236
242
258
269
289
296
302
310
306
289
239
165
132
130
128
126
136
145
149
149
151
154
162
151
148
152
151
150
150
156
151
157
146
141
153
157
149
145
148
150
156
150
154
148
153
154
155
139
155
157
154
157
158
165
162
149
156
159
151
154
156
154
157
156
155
157
153
159
158
158
157
156
149
154
156
157
167
165
163
155
162
155
152
158
162
161
153
160
162
162
155
152
160
158
161
163
158
155
157
162
163
156
162
164
167
164
152
156
149
150
154
156
151
156
165
163
159
159
160
154
151
160
160
157
161
163
158
159
153
164
164
162
157
151
159
160
158
148
158
160
156
156
157
163
163
153
150
165
148
148
154
150
155
158
150
154
151
148
158
151
147
151
152
151
148
155
156
155
150
149
149
154
158
150
152
159
160
157
157
150
139
147
153
152
154
155
156
152
146
147
153
159
160
145
152
154
155
156
163
152
145
149
154
160
159
149
149
156
158
153
153
160
154
160
160
155
159
159
154
152
155
159
153
151
155
166
166
153
154
161
151
149
149
153
156
164
156
150
153
151
157
153
154
153
153
149
157
154
159
158
149
151
147
154
159
159
161
152
155
150
154
161
159
155
156
156
155
147
150
148
157
160
154
158
159
164
161
160
159
150
154
140
158
158
157
157
154
155
155
159
163
158
157
154
157
161
157
154
152
158
155
160
161
156
151
153
162
163
155
162
158
156
165
162
164
173
174
154
171
178
173
170
180
178
166
169
170
171
165
162
159
161
164
162
160
155
160
153
146
148
158
151
149
158
156
155
160
156
161
156
143
149
163
162
157
154
158
153
147
157
143
129
126
121
120
125
147
163
185
199
220
239
249
249
257
282
292
297
310
323
303
275
224
155
124
121
133
141
138
141
151
159
162
166
159
151
153
158
146
151
157
156
153
154
154
157
155
149
156
157
160
164
164
147
151
159
158
157
159
159
159
168
170
160
145
153
159
163
158
157
166
163
164
165
171
170
159
152
150
160
158
164
156
170
170
158
160
165
159
159
161
164
170
165
168
166
162
163
163
157
164
170
175
173
164
163
163
171
167
168
163
162
164
163
169
165
167
162
164
163
166
169
169
157
162
159
159
164
162
155
162
163
165
169
165
162
163
159
162
165
165
174
169
172
171
160
145
158
166
171
158
160
156
164
164
165
163
154
159
155
150
160
163
164
162
156
154
150
160
162
155
158
157
159
147
154
162
162
152
152
160
162
159
153
161
166
151
150
156
158
153
154
162
159
164
163
157
151
144
156
164
160
161
159
155
167
161
158
151
154
160
162
155
158
162
153
153
157
159
151
155
154
162
160
168
158
153
155
162
153
157
162
158
153
156
157
148
158
164
163
153
154
155
157
156
160
162
158
157
161
167
168
164
153
148
153
151
158
154
151
161
152
154
156
160
159
159
163
162
156
160
167
155
158
161
157
156
154
159
158
160
158
165
163
159
155
151
155
162
162
161
160
152
151
158
160
161
147
146
161
167
161
161
156
160
157
159
153
158
166
170
173
173
172
173
178
177
176
175
180
178
166
165
167
174
167
160
168
162
168
161
159
164
159
148
160
158
158
157
159
159
156
156
154
152
151
152
156
162
164
158
155
151
150
156
157
147
144
142
126
116
125
135
148
163
185
199
219
235
253
264
270
284
291
298
312
302
296
288
228
159
134
129
133
135
139
149
160
160
163
160
139
150
160
166
164
159
158
157
150
155
160
163
158
159
155
156
158
160
159
164
165
156
150
154
161
162
162
164
156
165
163
162
168
164
164
159
167
167
152
159
163
153
160
169
163
168
168
166
167
168
168
160
161
160
162
163
171
169
165
169
164
157
168
172
170
162
165
166
165
165
167
170
172
179
160
157
162
167
164
164
168
170
168
169
164
164
158
162
165
169
159
162
165
165
168
162
161
165
167
169
171
159
161
169
171
170
162
169
161
161
165
164
166
163
160
163
163
165
162
161
163
160
164
159
146
151
164
166
163
158
161
159
149
157
160
157
161
156
160
168
158
151
153
158
157
164
159
170
164
154
150
153
158
163
155
157
160
160
165
162
155
155
161
164
160
160
163
167
152
164
159
165
163
156
157
158
168
158
161
170
159
153
155
154
159
165
166
164
163
156
160
163
165
155
158
167
170
169
157
155
158
160
163
164
160
161
164
158
164
164
156
164
163
152
158
163
167
165
166
159
152
163
164
160
158
162
160
161
158
163
160
163
160
163
167
160
157
159
156
164
163
163
170
161
161
164
161
157
162
165
164
159
148
166
168
166
158
163
169
164
156
165
173
165
148
159
163
161
166
169
169
165
175
169
164
181
190
174
183
177
178
176
177
172
171
176
172
163
165
165
162
168
161
161
153
159
162
161
150
157
156
161
164
164
159
162
154
159
166
163
156
158
158
150
154
159
165
163
153
134
105
100
119
144
159
168
190
201
227
237
253
257
275
291
301
312
318
322
310
282
204
136
119
124
135
133
142
153
153
158
159
161
159
154
156
157
158
154
165
150
151
156
155
159
159
157
158
156
153
157
163
151
150
160
162
158
168
167
155
157
163
148
166
159
156
159
167
167
164
162
163
164
166
169
171
153
162
165
163
170
170
167
168
163
167
156
158
174
168
163
169
170
171
171
168
167
176
163
165
169
169
170
166
172
173
172
175
169
170
175
170
173
173
167
169
175
170
171
172
175
170
164
172
175
167
168
166
165
167
161
169
166
174
173
171
174
169
169
162
172
173
164
170
167
159
169
160
155
168
169
165
165
165
168
163
164
162
164
160
159
160
156
164
170
171
149
150
154
154
158
156
159
164
168
166
158
154
161
151
156
144
145
160
170
165
159
162
160
157
163
161
161
154
166
168
161
157
162
160
162
158
160
166
165
153
165
161
159
158
158
158
161
162
158
155
152
162
170
168
163
149
158
162
159
155
160
161
162
159
161
163
160
158
165
158
155
159
164
161
157
159
156
157
163
153
155
163
165
157
161
148
145
154
162
160
162
156
157
157
157
155
150
164
163
156
154
167
161
152
158
163
162
158
153
161
153
149
158
157
154
164
169
162
152
154
155
158
164
166
162
159
154
154
158
163
157
158
161
151
157
162
164
169
165
167
174
167
178
174
179
171
174
182
175
179
181
162
169
171
173
164
167
167
163
162
161
161
158
153
157
163
159
154
159
165
163
160
156
156
161
160
157
157
153
156
164
158
154
158
156
152
146
139
136
122
116
121
127
146
168
184
201
221
248
272
268
281
298
307
313
325
332
319
303
226
141
127
129
126
134
133
142
157
159
157
165
167
165
152
154
157
158
160
160
158
162
160
154
158
158
160
155
157
161
165
154
150
154
163
158
153
163
164
163
167
164
158
164
159
152
155
162
169
167
171
159
163
165
166
164
170
174
158
157
165
168
172
170
162
167
171
171
172
168
174
168
164
162
167
165
173
173
172
165
168
169
166
169
168
169
170
177
173
169
171
168
169
175
171
169
175
177
169
174
174
182
168
168
169
167
172
165
167
167
175
171
168
172
166
170
175
169
161
173
168
165
161
170
158
160
173
168
168
168
167
167
160
164
159
154
162
162
164
165
163
162
159
156
163
166
163
166
156
149
155
165
158
152
163
163
161
160
160
160
163
160
156
170
166
153
145
159
169
168
166
160
155
163
157
158
155
166
166
164
159
162
158
166
166
157
161
159
167
163
164
162
164
163
158
156
161
169
169
159
163
163
160
163
163
161
161
174
155
162
166
162
159
159
156
162
158
164
160
160
163
164
167
154
163
157
161
171
168
167
163
161
156
168
164
159
166
163
161
165
164
163
163
165
166
164
160
159
162
159
173
165
161
162
163
166
165
166
172
172
166
163
164
167
169
174
177
180
181
186
184
185
183
173
170
179
178
182
187
179
171
167
172
173
166
163
169
172
171
160
165
157
161
166
164
164
163
164
152
160
163
164
160
156
170
174
169
158
155
159
163
155
152
148
132
123
115
122
143
167
187
206
230
247
271
282
278
293
312
318
327
340
337
313
259
163
114
122
129
123
134
138
133
122
156
170
166
168
166
159
160
169
159
160
168
169
170
165
163
164
169
164
158
167
166
170
169
165
163
163
171
177
164
162
162
167
173
173
174
177
175
178
168
170
175
168
170
183
176
163
173
178
178
177
178
179
180
177
177
184
186
178
182
184
181
179
192
181
177
177
178
177
179
180
182
187
184
188
185
187
185
194
187
185
189
191
188
190
189
200
196
185
185
181
190
193
188
189
184
184
186
195
195
184
187
183
185
187
187
187
177
183
182
184
181
187
177
173
181
169
166
179
175
169
171
171
173
174
169
164
170
177
172
168
158
172
169
161
167
165
163
166
166
172
167
176
171
166
162
159
165
159
163
168
172
171
168
173
172
171
170
157
147
162
170
175
168
168
169
166
166
169
168
162
171
176
162
166
172
164
164
167
163
167
170
173
173
169
167
166
171
169
168
172
171
165
168
170
160
160
164
173
178
154
165
171
170
165
160
163
168
164
168
167
168
164
167
170
161
156
170
173
165
164
169
166
164
164
158
160
167
167
167
168
167
162
165
173
164
163
172
166
169
169
165
167
164
180
182
180
178
174
172
177
188
181
174
175
179
181
179
174
173
165
167
161
166
164
164
161
164
159
154
161
162
163
164
161
161
162
160
164
162
161
159
160
154
159
158
155
150
154
157
153
151
134
123
106
112
128
151
177
195
213
236
253
268
253
273
287
296
314
319
320
307
273
193
121
114
119
118
149
156
157
151
152
157
162
166
157
152
152
159
149
162
166
152
147
153
150
158
168
168
158
149
151
145
159
153
157
167
165
164
156
159
161
163
161
157
157
164
161
158
168
165
166
162
158
163
168
166
167
163
165
159
153
163
170
168
161
159
168
170
166
176
166
171
162
164
173
174
167
167
166
170
174
173
166
168
177
174
173
167
171
179
171
161
175
177
171
168
168
170
172
164
173
169
175
173
170
176
175
169
166
165
168
171
163
160
167
167
167
171
166
161
152
157
155
162
164
153
156
159
160
156
154
160
156
156
151
155
153
153
150
146
148
148
155
151
157
152
150
154
151
153
145
144
150
150
151
150
148
145
141
152
149
153
155
147
147
154
151
139
148
159
144
143
145
152
154
151
153
152
151
150
149
149
148
146
153
154
155
147
144
151
153
149
151
152
157
151
150
147
153
150
157
153
156
153
147
149
143
149
151
153
158
143
149
152
144
150
155
148
148
151
141
142
145
149
155
147
147
152
152
150
137
141
151
152
152
152
153
152
145
150
149
155
163
160
155
158
169
165
164
171
155
161
170
165
161
161
156
158
155
157
151
150
150
145
150
150
150
147
144
145
142
142
146
154
150
143
135
145
148
143
141
146
146
139
138
151
159
143
140
129
115
113
113
112
97
108
133
151
172
186
204
223
242
255
271
295
310
307
311
318
313
292
250
164
112
118
127
121
127
139
153
150
136
146
143
142
139
140
144
142
138
141
134
139
140
136
142
144
145
140
142
143
139
141
142
145
144
146
144
143
149
151
144
140
146
144
140
142
140
144
139
140
143
146
143
149
153
149
139
145
145
144
147
147
148
149
147
153
148
142
148
147
142
149
147
145
152
156
151
134
150
151
146
145
152
157
153
146
144
145
144
149
151
153
147
150
148
150
143
147
147
150
149
147
155
151
149
153
152
148
143
148
150
153
143
146
153
157
152
152
143
152
151
153
149
148
146
146
144
144
136
146
149
142
141
143
144
143
138
137
136
138
151
144
136
135
138
129
127
136
138
145
141
144
139
133
133
144
142
139
141
143
139
138
133
140
139
137
145
140
141
139
139
141
135
131
140
140
137
134
137
137
139
140
139
133
141
139
129
136
139
144
141
132
134
140
132
141
139
128
129
138
135
143
141
131
142
144
130
132
132
142
142
139
143
136
138
141
136
139
138
130
136
138
139
142
125
130
132
133
140
138
136
129
131
137
135
135
133
136
138
143
142
132
134
135
134
131
131
136
136
139
144
141
140
141
146
153
149
148
153
155
158
153
150
152
152
154
136
142
150
145
141
143
140
137
132
127
136
136
136
136
134
133
132
132
133
133
132
129
131
139
141
135
130
130
133
135
125
129
128
129
126
114
99
84
87
97
118
143
164
182
194
212
237
238
256
290
299
299
315
320
318
298
229
147
109
104
107
111
118
121
130
136
132
126
133
140
138
130
128
129
130
132
127
126
128
131
129
129
133
130
128
137
138
129
134
129
129
132
131
132
133
126
128
123
128
125
123
136
136
127
125
133
133
132
130
122
136
135
133
134
139
141
140
136
133
127
136
135
137
136
136
131
129
132
134
131
136
139
132
141
133
125
134
140
134
131
129
140
139
139
141
136
131
126
135
139
145
139
133
142
136
139
132
133
137
140
145
124
130
147
145
142
132
135
137
143
150
145
135
128
136
132
133
133
133
132
135
139
135
133
134
133
131
129
130
136
129
129
126
131
130
132
129
128
130
132
129
127
125
131
130
127
124
120
129
133
120
130
130
134
129
133
133
131
119
128
120
129
126
130
130
129
124
126
127
124
126
129
133
131
132
124
125
131
132
129
130
132
126
131
127
129
128
125
125
129
129
131
131
132
130
131
126
122
129
132
128
128
131
135
131
128
130
127
126
125
134
133
127
120
111
130
124
119
133
135
130
132
129
124
122
128
131
129
125
130
126
126
130
126
130
123
124
129
126
127
127
133
137
126
131
128
132
129
120
120
133
128
127
124
130
131
129
128
130
131
129
128
131
128
123
124
130
128
119
125
132
135
122
125
128
124
124
133
136
134
136
139
143
147
144
140
147
136
140
146
149
144
142
142
146
138
138
133
126
126
122
126
136
135
131
131
131
133
126
123
120
134
131
121
123
124
121
123
127
122
126
130
122
121
127
127
123
123
121
119
110
95
89
85
81
92
106
129
152
169
189
209
229
246
254
284
290
291
307
309
304
284
229
137
102
108
110
104
96
128
125
120
125
133
128
124
122
118
121
123
123
130
122
114
120
124
124
118
122
128
120
118
123
123
119
114
119
130
123
124
119
127
129
132
127
124
122
129
122
119
125
127
127
125
121
126
126
118
125
131
125
133
135
127
118
129
123
132
123
127
128
127
126
129
127
124
130
123
133
131
127
124
130
128
124
125
128
129
123
125
134
136
129
132
122
115
117
128
132
124
124
124
134
123
124
123
132
126
129
129
134
128
119
123
128
125
128
128
121
129
134
127
125
122
129
127
124
129
123
117
124
126
131
125
125
123
120
117
128
120
119
122
121
121
118
121
115
120
124
129
130
112
116
129
121
112
119
116
115
120
123
119
115
121
123
119
119
125
123
122
116
123
118
117
120
121
123
125
120
122
121
116
124
119
119
120
122
121
124
125
125
126
119
120
112
130
116
112
123
124
123
122
119
114
123
128
120
125
120
126
128
126
120
121
127
117
116
122
127
122
122
126
128
123
121
113
120
120
123
126
127
131
119
110
117
122
118
121
123
125
127
123
121
112
123
132
117
121
117
112
123
126
125
119
118
122
118
123
137
137
122
119
118
117
117
123
119
117
123
127
125
127
124
121
125
128
123
129
126
123
122
128
122
117
130
125
130
128
132
135
134
147
138
121
141
144
138
139
143
147
142
138
138
134
131
129
125
129
131
131
131
122
124
129
128
120
123
129
123
121
120
114
125
123
123
121
127
124
125
131
127
118
114
119
122
116
117
110
107
95
73
73
85
104
129
152
171
187
207
228
235
243
259
277
290
306
308
307
288
242
154
95
85
91
94
98
114
121
125
128
127
128
127
123
123
124
129
131
126
127
124
122
121
124
120
122
131
132
132
129
118
127
125
121
121
123
127
133
140
136
133
128
120
119
129
130
134
136
129
138
136
132
135
131
129
130
135
130
135
130
133
136
140
132
131
137
135
141
138
128
136
141
135
134
133
141
143
144
142
140
142
145
135
131
140
142
149
146
140
138
134
137
139
144
145
148
149
145
140
139
144
140
142
134
132
136
139
148
139
136
137
143
145
141
143
136
145
140
141
142
137
134
132
137
140
130
132
132
148
140
125
127
135
133
120
126
128
132
130
132
123
124
131
137
125
121
130
133
136
130
118
123
129
133
127
125
128
127
128
123
126
127
133
129
123
122
124
132
136
128
124
128
134
130
124
129
131
131
131
135
127
125
125
130
126
128
124
129
138
127
130
135
121
130
128
122
136
134
136
132
123
121
127
125
131
123
133
133
126
128
129
133
133
123
125
128
125
131
126
128
125
123
128
141
135
125
136
127
120
126
130
125
128
133
125
130
130
131
123
131
126
120
129
130
132
132
129
134
137
128
124
118
125
127
135
143
135
132
131
131
130
136
135
129
131
144
142
147
144
143
142
143
153
144
145
157
155
140
139
140
139
134
130
135
132
125
131
134
133
133
130
125
122
129
132
125
132
127
133
129
113
125
128
127
131
124
128
133
131
126
114
115
126
120
115
102
80
83
86
104
123
142
163
187
207
225
234
222
248
266
260
284
291
296
267
224
141
77
81
84
83
92
90
101
115
122
127
129
128
133
128
126
122
117
123
125
125
120
127
131
125
123
128
124
134
132
128
124
127
128
128
126
128
134
141
140
125
131
131
132
124
129
134
130
134
133
136
130
137
149
133
131
133
134
137
137
133
136
134
137
145
136
140
136
136
137
147
150
142
143
144
135
138
141
151
157
149
139
136
146
144
139
143
144
142
152
147
161
151
145
146
150
150
150
141
142
156
149
150
147
148
145
138
147
148
148
148
144
145
155
141
142
139
147
143
144
141
137
134
133
128
131
134
132
132
134
134
129
124
126
131
129
130
119
123
125
129
125
127
126
122
124
125
120
123
125
127
131
121
110
113
117
127
132
126
123
125
114
120
119
118
121
117
123
126
126
127
123
128
126
119
121
126
126
129
121
116
122
124
124
124
122
122
126
123
120
117
119
121
123
125
124
127
121
124
120
123
128
121
120
125
122
118
125
124
127
122
113
119
129
128
130
122
129
127
126
116
113
116
115
125
117
122
121
119
123
118
119
120
122
121
124
114
114
118
121
129
116
113
117
121
116
120
122
118
116
124
122
122
119
122
119
117
116
116
124
126
125
119
121
127
125
127
128
137
138
133
133
129
138
139
132
130
136
134
135
129
129
124
119
114
120
117
118
118
118
119
114
103
103
110
129
129
120
112
109
121
116
120
122
122
119
122
119
117
109
115
100
99
94
86
72
74
81
97
110
132
151
170
195
201
217
235
244
265
274
284
281
285
283
251
183
107
89
92
95
105
108
117
120
120
112
117
117
112
119
118
111
113
112
118
104
117
117
115
115
116
109
108
108
113
113
117
123
119
112
109
114
111
117
115
116
114
124
121
118
118
117
115
120
116
117
112
117
122
122
116
118
112
115
121
124
117
119
117
116
113
116
120
123
119
121
121
116
120
117
117
115
117
125
119
120
118
116
118
118
118
115
115
122
124
119
118
118
124
123
119
115
120
115
114
120
125
118
125
120
125
125
118
120
123
124
118
123
127
125
115
118
116
122
126
122
122
120
127
124
123
106
117
122
117
116
116
116
119
114
110
117
119
110
108
115
111
114
106
109
119
121
115
105
114
110
106
119
119
112
110
112
106
109
112
110
114
112
112
114
111
116
115
110
106
114
114
114
116
110
112
112
113
106
101
109
115
115
107
103
114
116
112
115
113
107
100
106
112
114
109
111
102
104
112
108
111
114
112
116
116
110
106
108
112
115
116
111
111
109
119
114
109
108
103
111
113
115
108
109
109
107
114
109
116
108
105
98
101
106
109
114
113
111
112
111
106
110
111
109
113
113
109
105
108
110
111
113
112
110
109
108
104
111
118
121
130
109
112
116
121
118
117
123
123
132
127
136
126
112
115
112
120
115
111
108
111
114
118
113
104
100
97
106
108
112
114
109
107
106
107
106
107
105
104
113
112
102
103
102
105
115
97
92
92
85
73
59
60
65
84
103
122
138
163
172
199
219
238
253
268
278
289
287
284
273
242
144
85
78
80
84
85
94
99
109
116
108
103
112
114
91
101
110
108
100
102
103
97
98
106
93
98
106
112
106
101
107
103
100
92
98
106
110
110
112
104
104
106
100
98
100
110
110
108
109
113
109
104
109
100
100
107
105
109
111
108
111
111
106
104
111
113
109
113
104
110
120
105
105
105
108
110
104
107
115
112
110
114
105
104
103
107
109
119
122
114
115
107
106
102
101
104
113
118
109
104
113
118
114
110
108
110
104
110
114
112
112
112
118
120
111
105
107
115
114
112
111
109
109
105
107
108
92
110
108
108
106
103
97
103
102
98
105
107
102
105
106
96
97
98
102
99
101
100
95
106
107
103
104
97
96
93
98
104
102
94
99
99
105
100
92
101
102
100
112
102
96
102
104
96
98
99
97
91
104
99
100
102
105
111
100
99
99
96
102
105
98
90
101
104
95
104
104
93
96
105
106
103
103
105
102
100
103
107
107
90
96
104
100
95
97
98
101
106
95
103
104
105
103
107
101
102
103
98
102
107
97
97
98
100
102
101
100
102
102
103
100
96
98
104
99
99
96
99
106
110
103
103
96
88
97
105
103
99
99
103
103
98
105
104
101
100
101
101
104
102
105
99
103
102
98
100
104
103
106
95
103
95
100
102
101
108
117
112
116
112
109
111
111
122
124
115
117
110
117
117
111
115
112
106
106
111
108
102
103
103
105
100
95
96
103
111
111
102
90
101
100
95
99
104
102
95
101
107
110
107
102
90
89
88
84
68
63
62
60
74
102
119
131
139
168
198
205
216
229
247
260
274
281
286
275
251
181
86
63
76
80
81
83
88
101
95
98
107
106
106
100
99
101
105
103
97
108
97
96
102
109
102
99
102
110
103
103
101
93
99
103
103
103
99
99
110
110
110
101
97
99
99
107
105
113
103
103
111
117
110
111
106
112
109
113
112
108
112
108
112
115
111
108
113
121
110
108
112
115
116
112
116
108
106
110
120
117
117
117
114
109
111
117
121
121
112
119
116
109
113
113
115
112
116
115
112
115
120
122
121
107
116
125
126
118
119
114
118
117
114
109
113
110
120
120
114
116
115
117
119
114
110
110
111
113
113
106
109
113
112
113
106
107
109
108
112
106
98
98
107
102
106
107
107
115
109
103
104
106
100
104
107
100
107
109
103
109
109
107
110
105
103
106
108
105
104
108
110
105
107
107
112
110
110
107
108
112
112
112
106
108
104
107
112
99
113
105
105
108
107
108
106
110
104
108
111
101
107
106
108
107
108
111
112
113
115
104
103
104
110
109
102
109
114
111
114
107
106
106
110
110
110
111
104
113
121
105
115
108
103
101
107
112
107
107
108
105
109
111
104
104
111
106
100
111
112
108
105
111
108
106
106
106
106
110
111
116
120
117
110
114
127
124
122
125
127
126
122
123
125
129
126
113
99
106
113
121
115
109
102
99
101
110
109
114
121
111
92
99
100
106
110
115
105
106
101
108
107
108
105
98
102
110
100
92
95
89
63
68
67
68
88
113
134
157
176
202
213
209
217
232
246
258
259
272
263
230
165
89
66
62
61
66
74
89
86
91
104
104
108
107
96
97
114
104
100
100
107
102
104
105
102
107
104
106
107
96
98
102
107
105
106
109
106
107
106
112
109
97
100
105
108
111
111
106
108
109
106
104
106
111
109
112
113
108
111
113
105
101
101
103
110
114
119
114
111
112
109
112
112
113
120
117
111
109
103
117
114
110
116
119
120
118
120
119
119
112
110
107
112
121
120
116
120
117
119
114
116
118
119
112
119
122
118
119
116
114
116
112
115
113
115
114
114
109
109
104
100
105
103
111
105
108
109
112
103
95
102
108
101
97
96
102
104
105
95
94
95
93
95
98
100
99
90
88
97
96
88
95
98
95
97
95
93
94
88
88
90
95
98
90
94
94
94
99
95
91
100
99
93
90
93
100
100
93
91
94
93
95
94
94
99
102
99
98
92
95
92
93
94
93
94
95
102
101
102
92
91
89
84
95
92
90
103
93
88
96
93
91
93
89
100
91
90
92
85
96
99
87
90
94
94
92
91
89
93
90
87
89
85
90
95
96
98
96
87
86
93
87
87
92
93
87
84
89
90
93
94
79
80
94
96
95
92
95
100
102
98
87
97
110
109
104
107
102
110
113
105
99
94
94
94
93
92
90
92
90
88
90
94
97
93
89
84
81
82
88
93
88
88
87
91
88
76
79
90
98
96
91
81
80
78
71
53
44
39
36
53
75
98
116
134
153
173
186
202
223
239
251
260
267
276
271
249
195
104
61
59
61
71
76
83
96
89
91
92
89
88
81
77
73
80
90
94
94
79
78
84
86
80
86
94
84
85
82
82
86
92
85
90
92
86
92
89
89
84
86
91
89
91
92
86
87
83
93
92
80
92
88
90
92
93
95
92
92
94
97
86
87
92
92
94
95
96
94
100
91
78
83
93
95
102
97
92
89
87
90
90
89
100
106
97
97
96
92
94
93
100
101
90
97
101
95
92
92
98
98
92
96
98
102
96
96
96
96
92
97
103
93
102
97
101
93
96
92
88
91
95
88
88
102
93
93
87
82
88
94
85
82
86
89
91
89
85
81
81
91
83
87
88
83
82
81
84
87
81
79
77
85
90
89
84
81
77
76
87
77
82
82
77
89
89
80
82
86
86
84
94
78
76
84
90
80
79
76
73
75
69
80
82
86
90
83
75
70
83
82
79
72
75
82
85
85
81
69
81
76
68
77
87
84
77
79
78
86
91
75
76
77
89
83
70
77
76
73
79
77
71
75
80
84
79
69
74
79
78
78
76
78
79
78
77
78
75
75
74
77
86
71
69
80
90
86
76
67
69
74
79
70
77
82
76
83
81
77
85
91
87
79
92
89
95
95
90
90
88
88
88
90
83
84
80
81
78
76
72
85
70
71
80
84
77
72
75
65
72
83
75
76
81
80
69
75
70
72
77
71
66
75
74
73
63
30
18
21
26
42
53
81
103
112
135
152
171
187
208
234
247
246
253
258
255
233
193
106
47
41
55
61
64
71
68
69
74
74
71
74
64
72
76
75
68
72
70
65
74
66
63
69
69
68
76
69
74
75
70
69
75
73
74
73
70
72
69
75
68
74
83
84
71
74
77
78
70
77
75
77
85
69
67
75
75
73
73
79
79
69
74
71
72
89
78
80
72
67
79
75
75
78
80
80
72
72
76
78
78
79
80
80
79
80
74
74
80
82
74
77
78
77
80
74
80
77
75
71
75
74
76
79
79
73
82
76
79
82
75
70
76
80
76
71
84
78
70
73
78
74
72
73
78
74
75
71
73
74
78
80
71
62
73
71
71
73
64
73
72
69
70
75
70
71
66
66
66
68
63
63
74
76
71
63
69
62
69
77
75
73
70
71
66
64
63
73
68
74
67
68
72
71
65
71
67
68
64
66
68
64
67
69
70
67
68
64
66
76
68
65
65
68
76
69
70
67
71
67
68
68
55
59
55
72
72
68
71
66
68
75
70
60
62
64
69
72
76
77
67
63
65
69
70
65
63
68
66
63
61
62
65
68
69
62
65
70
71
72
58
63
63
68
72
70
61
67
66
60
63
67
63
64
64
67
66
66
73
74
66
69
69
63
63
63
60
67
73
67
69
65
72
79
73
78
77
74
81
88
89
77
81
82
76
80
87
81
68
63
68
70
71
79
67
64
60
65
65
58
64
63
58
70
67
64
61
64
63
64
58
60
60
66
70
68
69
61
66
55
43
42
25
19
21
29
54
67
98
112
137
143
164
196
205
218
228
245
250
250
256
227
168
84
40
44
48
48
49
65
58
66
66
64
60
66
65
63
63
61
63
56
63
66
58
59
66
61
58
68
66
63
63
65
67
54
60
63
67
69
66
75
63
60
60
72
61
60
67
73
72
65
66
67
68
68
66
63
67
62
63
71
73
70
72
71
70
66
69
74
78
60
66
73
69
66
68
70
65
72
79
74
77
60
65
64
70
72
76
65
68
67
66
73
73
68
67
65
57
68
72
70
65
67
69
64
67
73
64
66
65
69
72
71
71
68
67
68
70
70
62
70
75
76
67
66
70
68
70
70
74
76
72
74
61
58
61
69
70
66
68
67
63
72
58
55
64
65
71
63
57
66
63
68
68
64
60
62
59
64
68
70
68
68
70
64
62
59
67
72
66
66
70
73
68
52
64
64
64
65
72
70
63
70
69
62
58
64
57
63
64
70
69
67
60
53
64
66
62
72
67
54
60
64
65
63
64
60
61
66
68
62
66
69
69
61
63
66
61
63
66
61
55
58
60
64
68
65
62
63
70
69
66
64
66
67
63
64
63
58
62
65
63
63
67
71
58
57
59
63
72
65
68
62
59
60
65
70
60
64
65
66
64
74
65
66
70
71
73
70
73
83
86
84
83
82
87
90
76
82
71
77
78
80
71
70
73
65
69
71
61
59
67
65
60
62
70
69
66
74
64
62
64
76
69
61
68
66
63
64
71
77
66
59
52
52
36
21
28
34
37
55
85
101
126
145
167
171
185
209
216
221
235
243
244
226
190
102
33
33
34
31
36
41
46
49
59
67
69
73
78
72
66
66
60
65
69
69
69
69
71
72
68
59
64
64
67
69
70
74
76
81
81
75
70
74
72
77
83
78
69
72
73
74
75
68
80
82
84
80
80
81
64
69
83
82
81
67
76
83
81
84
81
76
83
86
78
86
86
83
86
86
86
86
87
81
81
86
89
88
98
88
86
90
87
82
83
87
93
88
91
92
92
81
82
91
91
86
91
91
89
94
87
88
77
84
91
87
83
88
86
90
88
84
81
85
84
83
82
79
83
85
80
81
75
68
75
82
86
82
70
84
74
69
72
82
71
68
74
73
74
75
75
70
73
76
76
78
73
74
70
72
70
69
73
62
66
69
78
75
73
80
69
74
67
70
74
74
72
76
74
74
73
70
72
83
87
73
68
67
73
77
85
66
71
72
74
71
74
75
77
73
73
67
77
74
74
70
79
73
64
67
72
68
65
75
76
84
78
69
70
71
70
74
72
70
70
74
71
70
70
75
72
74
68
67
68
67
73
73
65
63
65
71
74
74
66
82
84
79
76
81
81
86
83
81
86
96
88
82
88
85
81
74
77
80
77
72
77
73
67
68
67
62
77
77
71
65
76
79
68
70
70
72
71
54
64
71
73
72
69
67
69
65
67
64
51
43
31
27
35
46
65
85
100
127
144
171
184
178
191
212
216
222
232
243
227
190
110
41
39
31
32
31
42
45
59
65
67
71
70
60
64
68
72
64
72
69
66
65
71
72
66
63
68
70
74
77
73
73
73
69
78
71
71
75
78
76
78
79
75
73
78
77
75
71
76
78
72
75
89
80
77
77
73
81
86
82
81
72
78
80
87
84
68
77
84
84
78
80
86
87
81
79
86
89
89
88
89
86
84
88
88
88
85
87
88
87
94
89
90
88
89
79
88
91
91
94
86
86
92
81
84
91
86
81
82
89
92
90
81
85
77
90
86
82
83
82
84
78
75
75
84
85
75
77
72
79
80
68
73
72
66
72
66
62
74
74
74
69
71
70
70
54
59
69
74
71
69
71
68
57
49
69
79
74
70
70
71
68
64
70
69
67
70
79
78
68
65
64
68
70
76
69
63
72
70
64
72
73
68
64
69
70
71
77
73
71
67
52
73
72
67
71
72
76
78
68
63
68
68
68
59
74
73
74
68
76
75
62
75
71
67
66
69
73
68
73
70
71
66
67
64
73
68
63
69
69
69
68
60
60
63
72
65
65
71
78
78
81
85
72
66
79
91
84
88
88
84
83
85
81
84
62
70
67
67
75
72
72
68
68
67
63
63
61
68
67
66
70
66
59
63
69
69
70
66
65
68
67
60
63
60
58
57
49
39
27
12
23
40
53
68
92
112
133
149
167
175
199
220
223
236
242
244
239
210
147
80
38
38
44
46
47
60
72
72
66
66
66
69
67
62
67
61
58
60
60
59
62
62
69
63
57
61
59
64
72
67
65
55
56
65
61
64
63
66
63
62
64
70
65
68
74
74
70
73
67
65
68
70
70
67
70
69
64
61
75
73
73
69
72
71
65
61
66
71
70
65
69
74
72
70
70
74
74
80
69
64
72
69
68
72
75
75
70
70
76
72
67
77
71
74
74
75
74
69
66
80
70
69
67
68
72
75
76
77
76
79
67
66
70
67
69
65
73
75
70
71
70
61
65
72
69
64
79
70
67
69
57
63
63
68
66
64
67
68
67
63
60
62
54
58
72
58
57
59
63
62
61
57
53
71
68
61
67
58
54
52
58
57
64
67
63
59
56
56
60
63
64
51
52
67
65
66
64
65
60
58
64
65
64
56
59
57
59
63
65
66
54
48
59
72
67
57
58
64
62
56
54
61
57
60
69
68
72
66
50
59
55
60
65
58
59
60
58
64
67
54
63
62
65
62
60
61
63
58
60
63
57
59
62
62
61
61
69
64
56
68
72
67
72
80
71
76
75
75
81
77
70
78
76
70
74
68
63
61
65
64
60
53
64
59
62
68
60
59
65
57
57
66
58
57
54
54
60
61
63
64
66
58
58
60
59
53
47
34
22
4
10
18
47
61
82
98
124
143
160
175
188
210
223
224
240
240
237
223
177
85
24
27
48
36
38
55
60
60
56
49
66
66
61
59
57
56
57
56
53
55
49
61
57
60
60
55
57
57
58
58
48
46
52
65
62
56
57
65
63
56
60
61
60
63
65
60
52
58
59
64
58
59
58
57
58
59
64
68
65
66
64
65
69
61
61
67
59
63
70
68
61
71
62
62
64
62
67
70
62
73
57
58
68
71
63
63
64
65
67
68
68
66
71
64
70
77
62
64
69
71
68
64
71
71
76
69
54
68
67
67
74
63
66
65
78
75
77
60
61
63
62
69
69
68
69
61
63
67
62
63
63
60
67
65
62
61
55
61
58
56
62
63
59
52
56
62
63
53
50
49
51
66
64
57
63
60
59
57
58
58
52
57
62
63
52
59
62
61
54
61
58
58
57
63
61
54
52
55
57
61
60
60
63
59
55
64
63
67
52
57
58
60
51
57
69
58
55
59
62
60
60
56
53
50
56
61
57
61
58
59
63
64
58
55
60
57
60
64
58
53
60
61
55
60
56
60
57
56
66
60
66
55
51
55
62
65
65
67
60
64
74
74
81
86
81
73
72
73
68
70
68
63
64
62
60
57
67
61
58
55
59
66
60
53
56
56
56
53
53
53
58
66
57
65
63
61
56
53
53
58
56
58
48
41
25
20
16
10
23
44
65
84
105
124
140
165
169
184
202
222
231
236
231
230
214
168
71
18
35
43
31
42
58
56
57
63
56
60
53
59
52
54
67
63
55
49
59
55
47
54
61
66
59
60
54
55
63
53
58
57
56
63
68
61
66
59
58
50
56
60
65
67
62
57
58
56
57
62
63
62
70
66
62
57
51
63
64
75
63
64
65
64
65
66
69
70
75
79
60
62
64
62
63
78
73
66
51
60
68
71
66
65
70
70
70
66
66
63
60
68
70
74
69
67
65
69
69
61
61
62
67
69
66
74
72
77
69
64
71
72
71
66
64
64
68
73
70
59
62
70
66
64
61
60
57
54
61
62
59
63
66
58
60
59
54
70
66
59
54
49
52
59
54
53
56
58
64
56
59
57
57
59
62
58
53
56
61
62
47
62
59
54
53
56
54
58
60
60
61
69
63
65
50
58
52
49
58
61
57
57
62
63
60
60
60
58
56
44
53
63
63
63
58
59
57
56
53
53
61
60
57
64
59
61
60
55
60
64
49
52
65
61
58
58
60
52
49
50
61
62
60
63
61
52
54
60
67
64
54
58
63
65
66
69
75
71
71
71
79
83
83
74
59
73
70
58
57
60
72
73
65
58
55
56
51
59
58
56
59
63
54
57
62
61
49
54
54
58
54
58
60
65
64
59
58
50
44
33
31
18
8
21
42
45
57
87
104
125
151
171
177
190
208
222
226
227
227
223
200
145
54
24
28
38
38
51
41
48
54
67
71
64
56
56
60
62
66
63
55
55
57
60
60
49
55
61
54
55
63
64
57
58
54
63
56
46
59
63
64
66
64
59
51
66
57
60
59
66
65
63
72
79
58
57
59
61
66
66
56
63
71
70
60
62
63
64
74
79
63
66
75
78
65
47
55
64
68
70
71
73
72
70
71
71
64
64
65
70
71
68
75
70
62
65
72
67
70
88
64
62
62
70
68
64
68
76
73
75
71
75
73
73
74
76
69
69
67
69
69
67
65
67
63
63
70
67
54
66
71
57
65
66
62
63
64
63
65
58
61
71
67
58
59
58
62
64
56
59
57
56
54
60
55
51
57
60
68
64
66
71
62
56
49
55
67
60
64
65
59
65
65
66
64
61
60
53
58
68
67
67
75
64
52
58
61
66
73
65
60
72
58
58
58
51
58
58
61
66
66
62
66
63
61
63
66
65
55
51
64
64
62
66
62
58
61
65
66
65
65
70
70
66
60
61
66
63
71
71
68
69
72
79
80
68
74
76
89
80
78
78
81
80
79
68
66
59
65
69
69
66
58
61
65
64
59
64
64
57
66
62
67
63
66
65
66
63
65
57
65
63
65
64
61
60
62
52
46
43
27
29
26
38
59
77
100
117
143
168
173
173
196
210
208
233
237
241
227
189
97
22
26
31
27
27
30
34
51
66
59
64
58
68
68
72
55
63
68
63
64
66
60
67
64
57
57
64
70
69
67
71
73
67
64
67
70
70
73
74
68
72
64
65
70
70
63
66
74
79
72
79
75
74
64
65
81
81
84
72
69
76
72
72
79
77
77
79
80
77
83
81
79
78
75
84
88
81
82
88
83
77
87
86
80
81
88
91
86
95
93
80
81
84
85
81
83
85
88
89
87
83
87
82
82
87
88
85
84
92
93
87
76
81
85
84
85
79
81
83
78
74
79
74
69
58
70
72
75
74
66
67
69
75
71
69
76
70
62
70
61
66
60
67
68
71
68
63
67
68
72
65
63
67
58
64
66
66
68
69
72
68
64
66
74
61
57
59
62
69
75
75
65
65
62
65
67
70
55
66
70
65
75
73
63
62
65
55
67
79
78
72
61
64
70
71
62
65
69
69
68
64
67
71
69
67
61
78
67
74
72
64
67
67
57
54
66
71
65
68
70
69
61
68
64
60
74
81
79
70
76
82
77
79
75
83
86
76
72
81
85
82
73
66
69
67
68
69
71
71
68
68
71
66
63
69
66
62
60
66
63
63
64
64
65
60
65
64
77
58
56
55
68
64
61
57
49
35
25
23
20
31
56
80
94
117
145
169
171
174
192
206
222
243
245
236
226
192
96
33
29
34
24
34
41
46
58
74
71
65
69
65
62
62
64
54
46
64
70
65
55
61
61
70
63
55
53
66
64
66
69
58
66
66
63
67
70
73
72
70
62
61
66
62
66
77
72
68
76
80
66
64
66
69
71
73
68
71
76
73
68
71
79
65
62
72
65
73
79
75
76
78
69
70
64
62
78
83
83
80
71
69
75
88
84
72
77
77
81
78
72
69
71
78
75
82
83
84
84
77
75
75
79
83
75
71
80
81
78
81
77
73
74
79
70
74
76
73
71
64
66
70
71
69
72
72
70
77
67
61
61
63
69
65
65
61
56
58
63
67
62
60
61
57
63
56
60
65
61
67
65
52
60
54
58
62
69
67
65
63
55
64
57
64
58
63
67
65
65
67
62
63
57
56
61
56
59
66
65
65
67
58
61
63
62
65
59
52
58
69
67
64
66
57
61
69
64
56
58
66
66
66
56
45
63
66
64
68
67
61
56
57
60
61
62
63
60
62
62
67
60
58
54
68
66
57
60
66
66
55
51
59
54
57
62
66
65
65
64
61
57
61
58
57
58
58
63
66
68
62
66
65
65
65
67
71
77
85
84
68
76
77
68
70
69
73
71
65
64
63
58
62
63
57
70
61
52
53
49
54
60
63
64
57
63
58
61
56
52
49
56
60
65
55
52
56
60
55
43
32
13
3
16
20
42
52
66
92
118
136
154
166
192
210
216
231
247
244
242
228
189
97
37
27
42
37
40
51
56
53
57
54
57
57
61
61
53
58
58
56
60
56
53
58
54
50
63
64
55
54
50
50
52
57
61
61
61
67
57
57
60
60
63
56
60
59
60
66
63
64
53
53
55
62
65
61
59
64
63
62
67
64
69
54
57
65
61
65
66
66
67
61
63
65
62
69
63
64
73
71
67
55
53
61
65
65
64
66
60
63
69
72
61
56
61
63
64
71
63
64
64
69
66
60
68
73
63
61
64
67
62
60
72
79
69
66
66
71
65
61
65
63
68
67
69
63
57
60
63
58
55
54
59
68
69
62
57
53
49
55
59
52
55
57
59
64
50
46
59
54
52
55
50
54
60
59
57
53
51
59
58
61
58
54
56
58
55
58
56
58
54
48
56
55
60
58
56
56
57
56
58
62
47
56
65
47
52
54
56
56
62
56
51
57
51
51
53
57
55
62
52
60
53
58
56
59
56
53
55
57
52
58
51
58
67
61
50
49
54
49
53
58
60
60
56
61
54
49
52
53
53
58
54
46
57
58
50
55
61
56
52
47
44
60
70
63
56
49
53
53
54
49
52
57
55
49
59
62
53
53
57
54
56
62
62
56
57
59
56
53
49
56
53
57
52
48
53
57
56
56
58
61
64
72
72
57
61
70
72
71
72
74
74
72
62
82
77
62
54
51
55
58
59
54
53
52
55
50
56
57
55
62
61
57
54
56
53
58
49
59
55
52
52
61
66
61
54
39
47
39
29
8
9
9
22
41
65
87
101
123
153
158
177
189
214
228
233
239
246
238
224
172
87
31
27
31
37
44
52
61
62
55
53
64
55
54
69
60
50
56
51
54
55
54
57
58
54
59
55
51
54
60
58
62
57
55
55
55
59
63
66
60
62
57
58
65
69
63
57
58
58
59
64
68
67
61
57
68
67
57
59
67
64
72
74
56
56
63
68
64
65
74
75
67
59
67
67
67
67
66
69
68
74
74
72
71
70
69
70
67
71
74
76
81
72
66
63
62
77
70
64
67
70
68
69
75
77
73
77
77
77
74
69
77
75
72
71
67
69
72
71
74
77
69
66
60
67
75
73
70
73
79
76
66
70
71
63
57
64
67
69
62
59
59
57
63
73
68
65
68
68
68
67
64
61
62
66
66
65
67
65
60
62
77
70
61
67
63
62
65
66
63
67
67
66
60
65
65
61
59
72
66
69
66
71
70
62
60
66
62
66
72
63
64
61
64
61
58
60
62
68
59
61
68
67
66
64
62
66
67
66
62
65
65
62
60
59
68
70
67
67
71
71
58
51
52
61
60
68
69
71
68
64
61
57
59
64
73
62
67
68
71
60
58
63
51
58
68
63
60
67
68
61
57
63
69
63
61
58
60
66
65
64
59
58
60
62
67
67
58
62
62
66
72
68
58
58
57
57
62
65
67
73
75
72
65
72
74
76
87
82
78
78
79
83
74
68
64
79
72
68
67
64
65
62
62
60
60
61
61
60
69
64
59
66
69
68
65
63
62
60
56
53
64
57
60
69
54
54
57
38
22
13
7
24
39
54
65
90
120
150
163
160
159
180
208
217
231
221
222
203
165
96
27
17
27
28
30
40
43
41
53
66
61
56
57
62
63
63
61
63
63
59
56
64
63
58
60
59
58
68
68
63
59
54
60
64
67
68
64
59
64
61
60
62
70
67
68
59
62
64
72
70
67
62
69
68
65
66
65
67
68
76
70
65
68
69
68
67
71
74
75
67
71
73
72
75
76
74
68
73
71
69
72
75
77
79
72
75
77
71
79
74
78
78
76
76
75
74
81
84
74
74
75
76
76
77
72
70
77
78
78
83
77
71
77
76
74
76
77
74
68
74
79
74
63
63
65
69
73
62
64
62
66
58
55
58
58
53
65
69
70
57
59
52
58
53
55
60
59
57
51
49
56
56
52
59
63
68
50
47
59
69
54
57
57
55
54
59
56
54
51
56
