-58
-41
-24
-9
-10
-7
6
-4
-42
-59
-71
-45
-35
0
-16
23
14
-21
-48
-56
-67
-51
-40
5
0
-28
-26
-9
-34
-65
-64
-55
-54
-1
16
-7
-12
-33
-53
-61
-49
-64
-35
-8
-11
-7
-3
-26
-53
-49
-41
-59
-37
-26
-2
-14
-5
-25
-45
-41
-60
-67
-38
-1
-8
-6
-17
-25
-62
-65
-75
-54
-52
13
-1
-4
-33
-29
-64
-53
-53
-46
-8
-14
-11
-24
-33
-42
-58
-43
-50
-57
-16
-9
-1
10
-5
-37
-58
-62
-62
-57
-21
4
11
-8
-13
-34
-38
-43
-59
-39
-14
-22
-12
-15
-30
-47
-38
-47
-42
-43
-48
-18
-9
0
-25
-34
-60
-87
-40
-30
-11
-12
10
9
-26
-44
-52
-71
-54
-39
-18
-15
2
0
-20
-51
-50
-67
-44
-19
-20
-17
5
-25
-39
-7
-14
-10
10
47
48
99
131
109
71
31
7
-7
-23
-39
-28
-55
-63
-61
-80
-111
-113
-94
-113
-70
-34
-19
-36
-52
-63
-60
-71
-67
-53
-30
-16
4
-4
-7
-32
-56
-61
-46
-41
-4
16
6
-4
-14
-22
-51
-71
-53
-31
-16
2
0
8
-14
-21
-59
-45
-17
-49
-21
16
3
6
-1
-28
-28
-22
-75
-35
-15
32
13
2
-18
-13
-26
-50
-36
-17
3
10
17
13
2
-21
-41
-31
-2
9
-25
20
32
54
0
-19
-20
-12
-10
-9
20
44
29
31
38
-11
1
-13
-14
11
35
39
47
37
29
2
10
-26
12
12
33
37
33
47
10
-26
-23
-26
-17
-9
19
19
0
7
-9
-40
-63
-63
-46
-24
-10
-1
23
-13
-21
-67
-61
-55
-50
-34
1
-4
-13
-32
-47
-36
-74
-70
-38
-54
-16
-17
-7
1
-36
-65
-63
-59
-53
-31
-29
-4
-8
-15
-21
-39
-56
-74
-42
-18
-4
-5
-18
-26
-41
-61
-57
-68
-49
-22
-8
-40
-12
4
-27
-59
-68
-74
-43
-7
-10
11
1
-27
-38
-50
-68
-46
-41
1
-11
5
-10
-43
-40
-52
-64
-54
-39
-24
-7
19
-6
-32
-62
-24
-47
-52
-34
4
-12
-4
4
-43
-71
-60
-34
-39
-42
1
-2
-11
-19
-29
-48
-49
-67
-55
-48
-8
13
15
-2
-23
-50
-54
-54
-51
-40
-12
15
1
-17
-25
-42
-67
-64
-47
-22
-6
-21
-30
-5
-14
-42
-65
-64
-49
-39
-7
4
-7
-34
-26
-55
-44
-43
-56
-1
-31
-5
1
-11
-26
-40
-79
-66
-30
-33
11
34
8
-16
-68
-58
-45
-31
-30
-26
-29
-6
-3
-6
-43
-61
-64
-68
-20
-5
-16
6
-5
-24
-47
-56
-50
-44
-38
-13
42
17
3
5
-28
-62
-51
-44
-36
-19
-7
-8
-7
-5
-36
-55
-46
-70
-50
-6
12
3
-14
-21
-22
-47
-67
-50
-22
-22
-8
-4
-11
-27
-59
-56
-49
-51
-36
-3
-6
-4
-3
-13
-40
-72
-74
-32
5
35
40
71
85
70
68
62
60
64
59
72
52
31
23
-19
-98
-108
-136
-111
-73
-65
-84
-36
-47
-66
-73
-87
-76
-52
-38
-10
-8
-15
-11
-12
-48
-47
-52
-42
-13
14
-8
-2
-28
-26
-25
-45
-58
-37
-8
-9
10
5
2
-15
-35
-43
-43
-49
-3
-9
7
7
-21
-8
-29
-35
-46
-17
-15
8
11
5
12
-27
-6
-37
-22
-29
-17
21
32
23
8
-26
-8
-54
-34
-6
-4
28
29
24
-2
2
-22
-16
-16
12
29
6
25
27
24
5
-23
-3
2
7
60
68
37
32
38
17
-5
7
-1
22
41
48
56
45
23
6
10
-7
6
1
22
35
37
29
10
-32
-38
-30
-22
5
10
5
2
6
-30
-37
-44
-41
-31
-34
-13
-4
23
-9
-44
-43
-62
-38
-55
-44
1
18
11
-23
-43
-52
-29
-74
-39
-20
7
13
0
-22
-22
-44
-61
-38
-41
-20
6
8
-10
-2
0
-38
-86
-54
-61
-10
10
-12
1
-24
-10
-41
-65
-57
-56
8
13
-9
-1
-28
-38
-43
-37
-68
-46
-43
-20
6
27
0
-17
-31
-32
-51
-33
-31
2
-12
-8
-2
-27
-49
-55
-52
-20
-4
10
10
-16
-5
-39
-60
-58
-54
-42
-11
-3
-5
-1
-6
-37
-55
-48
-16
-23
-6
-17
-4
2
-22
-28
-42
-56
-54
-27
-33
-4
-3
28
-13
-42
-60
-42
-52
-48
-1
17
6
7
-37
-47
-55
-66
-38
-28
7
1
0
10
-22
-42
-43
-59
-49
-32
-1
2
-7
14
-38
-49
-43
-55
-30
-25
-4
3
-6
20
-33
-35
-45
-60
-48
-27
0
1
2
5
-16
-21
-38
-59
-46
-20
9
0
14
-7
-27
-57
-39
-63
-50
-35
1
18
-18
-5
-27
-38
-38
-56
-44
-9
-3
5
19
-13
-22
-59
-62
-38
-29
-25
5
-5
-22
-19
-36
-52
-52
-44
-19
-14
-18
11
-4
15
-13
18
29
47
65
83
116
115
113
75
21
-20
-49
-30
-39
-60
-54
-75
-67
-69
-97
-93
-102
-108
-73
-39
-19
-10
0
-40
-52
-64
-45
-53
-36
-19
-2
21
-14
-16
-38
-59
-47
-28
-23
-11
13
20
7
-4
-38
-47
-49
-55
-36
13
34
42
-9
-13
-49
-45
-29
-35
-24
8
-3
6
14
-2
-38
-36
-34
-22
-12
27
19
37
5
-20
-30
-47
-39
-8
8
15
6
15
9
4
-28
-7
-41
-22
10
37
50
25
25
16
1
-11
-7
0
12
50
55
43
17
15
7
-21
-1
8
28
32
41
62
25
16
22
-8
-8
3
7
31
73
33
2
6
-25
-31
-44
5
23
13
-4
-16
0
-35
-40
-38
-27
-26
-2
5
19
-15
-14
-24
-72
-53
-54
-32
-8
-17
-10
-7
3
-45
-53
-53
-64
-35
-24
-17
13
-5
-31
-52
-77
-47
-23
-37
-5
-12
-9
-27
-30
-42
-46
-66
-51
-44
-11
-7
-12
-22
-8
-55
-62
-32
-38
-43
-3
4
-10
9
-14
-41
-57
-81
-60
-52
6
-4
-5
-14
-26
-54
-54
-53
-56
-33
-24
7
4
-22
-27
-56
-62
-46
-46
-29
-2
-4
-20
-10
-30
-48
-57
-60
-44
-42
5
7
-20
-45
-7
-56
-50
-50
-72
-18
11
-19
-20
-21
-45
-43
-58
-37
-49
-27
-9
-6
-18
-26
-36
-74
-53
-48
-56
-19
-16
10
4
-21
-73
-47
-43
-53
-64
-31
-13
-11
-29
8
-28
-63
-58
-54
-35
-16
-7
-15
13
-55
-47
-55
-45
-61
-40
-9
-5
-18
4
-22
-64
-57
-34
-43
-42
-38
7
-9
-12
-32
-54
-47
-49
-88
-28
-15
4
8
-5
-15
-40
-57
-73
-54
-25
-5
-13
3
17
-19
-46
-47
-56
-57
-32
-13
-12
-11
-48
-13
-30
-73
-54
-45
1
-8
-13
-25
-8
-18
-73
-63
-69
-52
-30
-9
-20
-10
-3
-20
-75
-52
-71
-81
-48
10
-2
10
-16
-40
-47
-40
-47
-49
-32
-1
15
11
7
20
29
-1
19
45
111
111
114
90
49
6
-17
-57
-71
-92
-82
-77
-86
-64
-82
-103
-92
-75
-109
-102
-45
-15
-31
-12
-27
-33
-46
-53
-50
-45
-28
-7
-2
2
-37
-36
-55
-76
-61
-43
-15
10
15
17
3
-49
-31
-58
-70
-40
-33
9
1
-3
-7
-31
-39
-48
-33
-19
-16
7
10
4
-21
-28
-50
-70
-8
6
-9
12
8
2
-2
-35
-41
-40
-38
-13
11
8
20
14
-13
-21
-46
-38
-32
18
6
26
33
39
18
-24
-16
-22
-19
20
28
37
32
11
38
1
-16
9
13
3
28
43
50
35
7
-15
-29
-18
19
21
39
29
38
15
1
-45
-26
-39
-19
-7
4
14
-3
1
-35
-57
-83
-55
-53
-24
7
-3
-31
1
-6
-65
-63
-71
-72
-37
-27
-12
-11
-32
-44
-63
-60
-67
-60
-9
5
-4
-19
-46
-43
-64
-77
-70
-39
-23
-18
-8
-31
-12
-51
-53
-61
-57
-51
-18
-21
-5
-14
-28
-44
-73
-51
-56
-49
-16
-28
-3
-6
-21
-67
-76
-53
-46
-43
-26
-11
-11
-26
-12
-35
-71
-101
-47
-31
-5
-5
-7
-21
-20
-79
-53
-59
-38
-52
-19
1
-11
-10
-33
-51
-67
-50
-41
-68
-29
0
14
-14
-35
-59
-63
-73
-62
-38
8
-14
-6
-8
-29
-75
-60
-55
-52
-35
-2
-7
1
-25
-41
-61
-60
-69
-34
-41
-11
-6
-4
-16
-52
-50
-65
-53
-56
-33
-24
-2
-29
-6
-47
-59
-48
-58
-46
-23
3
0
-17
-48
-55
-69
-26
-46
-53
-51
-14
-11
-15
-15
-65
-63
-61
-52
-41
-22
-6
11
-20
-47
-75
-65
-40
-61
-38
5
4
-1
8
9
-31
-59
-64
-50
-33
-12
-16
21
-21
-50
-54
-66
-73
-75
-43
-8
-22
3
-18
-37
-41
-46
-67
-61
-33
-17
-19
-2
6
-41
-64
-49
-69
-61
-54
2
5
-15
-9
-17
-42
-60
-53
-31
-11
27
41
75
78
82
45
65
77
50
36
39
19
12
5
-51
-115
-123
-141
-106
-90
-89
-60
-71
-60
-61
-88
-74
-70
-52
-52
-12
-9
5
-16
-31
-49
-73
-63
-34
-15
-17
-21
14
-12
-37
-55
-29
-41
-60
1
-2
-2
25
-4
-42
-61
-58
-55
-37
1
10
4
-5
-18
-36
-18
-45
-51
-40
-29
-30
14
31
3
-31
-29
-32
-51
-43
-17
28
18
20
15
-22
-30
-60
-28
-10
6
33
16
25
20
-34
-44
-37
1
-8
21
31
42
22
21
-8
-7
-11
21
16
0
31
59
53
35
-5
-12
-12
2
-12
43
62
70
45
20
-26
-26
-32
-18
13
27
8
9
28
-7
-51
-42
-43
-16
-3
3
0
7
-5
-34
-72
-54
-54
-46
-38
-14
5
5
-4
-49
-67
-71
-65
-58
-40
-19
9
-7
-24
-26
-63
-93
-86
-7
-23
-7
1
-9
-46
-43
-79
-76
-71
-44
-14
-32
-13
3
-14
-34
-61
-58
-63
-35
-17
-8
0
-11
-29
-41
-73
-57
-48
-44
-19
-6
-9
-17
-10
-44
-65
-88
-84
-16
7
10
-6
-14
-30
-41
-52
-44
-39
-44
-13
0
-19
-18
-35
-42
-49
-95
-72
-31
-14
-5
12
-11
-30
-56
-45
-47
-54
-45
-21
-6
-7
0
-22
-58
-41
-49
-62
-50
-16
-4
-4
-11
-17
-72
-77
-60
-20
-54
-2
6
-10
-12
-12
-54
-36
-73
-74
-41
-35
-11
10
-6
-34
-64
-68
-64
-37
-22
-11
-3
1
-17
-43
-47
-58
-61
-64
-33
-4
-25
-20
-16
-38
-61
-70
-67
-52
-34
-5
-5
-2
-45
-33
-46
-67
-48
-45
-13
-21
-10
-12
-26
-35
-58
-68
-54
-34
-17
-10
4
10
-25
-47
-64
-50
-52
-21
-5
-9
3
-3
-20
-41
-62
-77
-72
-47
-15
-25
23
1
-24
-55
-68
-69
-59
-31
-17
-27
-8
-8
-26
-51
-73
-52
-66
-93
-26
14
-6
4
-18
-58
-66
-74
-64
-31
12
9
-4
-18
-31
-62
-26
-19
5
40
69
85
115
125
109
45
26
-12
-18
-17
-16
-16
-52
-75
-93
-84
-119
-115
-121
-78
-50
-41
-53
-40
-46
-86
-71
-57
-56
-31
-25
15
-16
4
-36
-52
-61
-62
-46
-19
-20
24
22
-29
-38
-58
-61
-65
-9
-6
9
18
5
-3
-24
-29
-46
-41
-50
-25
-9
7
1
-11
-23
-28
-27
-36
-45
-21
1
-9
22
21
-14
-41
-57
-37
-12
3
9
8
21
2
-17
-11
-30
-36
-12
-7
28
35
24
33
-25
-15
-29
-38
13
65
16
36
23
29
-11
-12
-8
2
10
5
26
53
69
41
26
-5
-3
-2
6
41
49
49
32
33
-14
-12
-28
-2
-10
27
19
27
-11
-16
-31
-52
-50
-53
-14
-5
-2
15
-11
-28
-67
-63
-48
-43
-38
-24
-3
-25
-1
-21
-37
-70
-55
-54
-29
-13
-1
-1
-17
-43
-47
-51
-79
-34
-21
-7
-9
-5
-3
-37
-75
-58
-54
-67
-34
5
21
18
-30
-38
-70
-68
-48
-13
-17
-22
-32
0
-16
-27
-70
-55
-57
-52
-10
-3
28
10
-29
-48
-50
-60
-49
-41
-26
-7
14
4
-19
-39
-48
-58
-72
-48
2
12
-13
4
-16
-37
-68
-46
-56
-46
-17
-17
19
12
-41
-57
-63
-62
-44
-43
4
-8
5
-22
-42
-31
-52
-49
-48
-32
17
9
-3
-23
-14
-49
-61
-52
-35
-31
-20
-11
0
-17
-25
-52
-49
-54
-47
-36
-9
20
9
-17
-33
-60
-60
-72
-51
-19
-4
-15
-4
-22
-50
-34
-19
-17
-11
-20
-17
-38
-65
-48
-22
4
-20
-8
15
14
-26
-41
-58
-53
-36
-21
-13
9
17
-12
-28
-58
-57
-59
-36
-33
-14
9
4
-10
-34
-43
-72
-42
-78
-26
1
11
-10
-11
-41
-66
-55
-48
-56
-18
5
11
9
-15
-52
-70
-66
-38
-22
-31
-14
29
28
-33
-28
-13
-12
-8
31
75
103
128
134
97
55
31
5
-5
-39
-8
-21
-39
-73
-97
-106
-109
-104
-87
-80
-63
-25
-35
-40
-35
-57
-52
-63
-60
-49
-11
-4
7
3
-2
-29
-68
-68
-41
-6
-2
-8
27
12
-44
-58
-41
-36
-19
-18
-1
2
16
9
-11
-30
-40
-50
-59
-6
10
8
22
-12
-25
-35
-41
-38
-25
-19
2
36
28
-11
-14
-19
-48
-50
-5
3
18
-3
30
23
11
-24
-26
-34
-6
19
18
30
32
30
-14
-10
-17
1
32
9
35
36
63
28
7
-3
-5
8
18
38
56
49
55
42
18
12
5
-13
7
69
55
48
13
49
8
-13
-16
-10
10
-4
15
23
20
-4
-34
-39
-48
-52
-13
1
-9
12
19
-17
-50
-63
-53
-29
-24
9
-3
-4
-9
-24
-38
-55
-43
-51
-47
-16
-20
0
6
-23
-50
-52
-50
-43
-45
-2
-17
-3
-3
-31
-56
-50
-42
-50
-34
20
-5
-1
-17
-31
-47
-67
-71
-59
-17
-4
7
6
2
-6
-48
-64
-55
-44
-47
-15
3
37
-4
-19
-54
-49
-46
-42
-32
-6
4
-7
-1
13
-58
-62
-52
-39
-23
3
8
-10
-16
-7
-35
-80
-46
-32
-16
-1
-2
17
-4
-38
-44
-45
-45
-70
-16
7
-5
14
0
-28
-60
-70
-58
-44
-2
16
3
-15
-17
-55
-41
-40
-61
-57
-8
7
11
-3
-6
-30
-44
-43
-36
-47
-35
2
15
-38
-5
-46
-44
-47
-50
-8
-10
-14
1
2
-27
-42
-52
-47
-57
-44
-1
29
14
-9
-31
-48
-65
-79
-46
-16
12
1
7
10
-19
-26
-47
-26
-48
-30
-14
-1
17
-25
-21
-57
-52
-37
-73
-24
-6
9
8
-4
-28
-52
-46
-63
-36
-23
-10
-17
-9
-4
-20
-58
-35
-66
-53
-10
-3
-5
-7
-18
-41
-51
-48
-52
-56
-40
-23
7
12
-3
-12
-11
-6
18
43
75
96
105
121
86
62
2
-17
-24
-16
-45
-32
-47
-70
-75
-111
-104
-115
-114
-102
-35
-36
-22
-27
-43
-60
-63
-61
-56
-54
-17
-26
-3
5
-8
-37
-70
-53
-31
-21
2
23
11
4
-22
-48
-37
-48
-37
-32
-2
9
18
8
1
-38
-31
-57
-44
-23
0
-7
40
3
-3
-28
-28
-39
-40
-18
10
8
6
11
3
-38
-30
-48
-37
-20
27
28
28
17
-20
-15
-20
-50
-35
-4
67
26
42
43
14
-14
-29
-5
-8
0
40
46
55
39
33
-2
-32
-12
8
42
48
44
54
46
13
-6
-5
12
14
40
46
32
42
19
17
-15
-15
-23
-18
-11
27
29
6
-20
-40
-24
-31
-75
-36
-12
3
-16
-4
-14
-13
-49
-84
-81
-47
-20
4
-4
-10
-12
-42
-52
-59
-65
-48
-3
-6
6
-24
-41
-26
-64
-57
-69
-64
-27
17
-4
-17
-31
-34
-43
-64
-54
-55
-11
6
0
-25
-10
-51
-79
-60
-56
-44
-8
-5
-2
8
-17
-49
-37
-62
-68
-52
-21
4
-4
14
-16
-44
-55
-63
-51
-41
-17
34
-3
-44
-22
-50
-61
-70
-58
-22
-6
-9
-2
-31
-41
-44
-41
-46
-63
-37
-27
-4
9
-1
-38
-60
-59
-44
-33
-36
-8
-10
14
9
-57
-74
-63
-56
-59
-19
-14
2
-18
-2
-18
-34
-76
-67
-48
-5
-6
-10
-33
-34
-36
-34
-50
-66
-52
-18
-5
12
-11
-40
-29
-56
-36
-64
-29
-45
-22
-26
-13
-14
-29
-58
-72
-72
-43
-3
-16
14
-7
-31
-41
-41
-64
-71
-33
-20
0
-4
-10
-26
-55
-72
-67
-50
-44
-6
-9
-19
8
-23
-42
-47
-67
-64
-34
-19
5
-7
-5
14
-66
-48
-65
-20
-50
-23
-4
15
-2
-15
-41
-51
-71
-64
-41
-15
-2
-3
-1
-12
-55
-54
-68
-45
-37
-39
-16
-13
-27
-28
-48
-69
-40
-42
-47
-19
-7
-5
-16
-41
-52
-47
-45
-43
-27
-20
-16
-13
-25
-11
-27
-32
-4
17
58
86
110
107
107
91
43
18
-6
-3
-3
-14
-28
-61
-92
-98
-126
-108
-126
-84
-77
-46
-40
-51
-47
-69
-70
-56
-36
-49
-29
-40
7
1
-16
-27
-45
-49
-61
-32
-31
2
7
19
-7
-31
-37
-59
-44
-36
14
-24
-17
2
-5
-27
-41
-43
-63
-7
12
15
3
-21
-23
-33
-27
-55
-63
-5
0
-8
15
0
-8
-20
-36
-32
-34
-26
9
28
15
49
12
-48
-50
-36
-20
8
28
21
33
14
16
-11
-18
-30
-13
8
38
48
37
35
9
-13
-10
8
-27
5
55
35
38
39
24
-7
-7
-14
12
18
42
55
44
32
-5
8
-28
-38
-26
6
25
34
16
5
-12
-33
-50
-55
-35
-6
-4
7
-20
-32
-22
-49
-76
-62
-61
-31
10
9
-9
-23
-44
-63
-52
-62
-65
-36
-8
-7
-29
-13
-33
-62
-57
-73
-35
-27
-8
-10
-7
-28
-53
-57
-60
-49
-51
-23
-4
-14
-17
-21
-27
-83
-37
-76
-39
-13
0
-5
-2
-51
-67
-46
-39
-52
-26
-43
-15
21
-5
-18
-59
-58
-59
-48
-37
-11
-13
0
-23
-29
-54
-52
-67
-68
-32
-11
-1
1
-19
-24
-33
-48
-98
-59
-28
-5
-23
-13
-8
-13
-58
-72
-59
-52
-22
-15
-1
16
-4
-22
-61
-73
-57
-47
-53
-17
-8
7
-10
-18
-57
-66
-51
-81
-45
-15
-9
10
-21
-38
-45
-43
-57
-64
-21
-5
-6
-4
-39
-44
-51
-44
-56
-63
-31
-11
-21
0
16
-50
-64
-57
-45
-61
-55
22
9
-23
-30
-46
-69
-70
-53
-46
-14
0
6
-22
-13
-48
-55
-46
-67
-43
-17
18
19
-3
-25
-20
-72
-48
-42
-48
-21
-11
13
-10
-35
-44
-45
-68
-68
-37
-25
4
-3
-4
-16
-51
-52
-78
-45
-45
-26
-12
-14
-11
-27
-64
-66
-62
-81
-41
20
-23
-8
-12
-9
-59
-48
-64
-51
-34
7
6
19
39
14
23
8
19
84
101
100
116
101
39
-14
-21
-51
-83
-89
-92
-93
-54
-57
-81
-97
-102
-118
-90
-88
-57
-27
-17
-29
-26
-16
-48
-77
-67
-52
-27
0
5
11
-4
-37
-67
-65
-42
-47
-30
-3
16
-6
15
-24
-30
-47
-42
-52
-18
3
-11
-8
10
-10
-63
-74
-56
-41
15
13
5
13
15
-32
-48
-45
-26
-26
-3
6
13
-8
-1
-30
-33
-27
-23
-37
-11
37
21
10
8
-19
-38
-37
-20
-12
19
26
16
30
33
1
-28
-28
-7
14
24
39
48
44
34
20
-18
-24
-12
8
52
63
52
25
25
15
2
-17
7
15
36
13
22
17
9
-29
-49
-35
-17
-33
7
5
12
-6
-9
-72
-65
-74
-56
-29
-20
0
10
6
-58
-55
-58
-50
-45
-24
-25
-19
-13
-26
-34
-56
-75
-74
-43
-21
1
-7
-20
-41
-44
-65
-77
-65
-33
-22
-16
7
-21
-17
-45
-39
-55
-72
-62
-25
-15
-8
-17
-17
-41
-50
-52
-49
-61
-20
-12
-4
-15
-26
-46
-55
-74
-63
-36
-12
-7
-18
-18
-12
-41
-52
-70
-63
-28
-7
-16
19
-22
-19
-48
-58
-58
-58
-53
-14
-31
-16
-19
-16
-32
-41
-62
-66
-46
-18
2
-11
-7
-25
-72
-48
-49
-47
-54
-3
-6
-18
0
-16
-59
-64
-73
-29
-61
-18
-9
1
-7
-32
-67
-79
-63
-39
-26
-1
-17
-8
-25
-28
-54
-66
-39
-43
-73
1
7
-23
-29
-31
-69
-48
-45
-47
-50
3
-10
1
-10
-40
-59
-56
-62
-37
-30
-14
-10
6
-23
-73
-58
-51
-60
-50
-32
-12
-5
-5
-2
-39
-60
-46
-42
-27
-26
-25
-10
6
-21
-59
-59
-50
-46
-30
-12
3
-14
16
-9
-37
-61
-47
-53
-53
-26
-21
3
-2
-11
-36
-51
-79
-60
-38
-39
-14
-13
0
-18
-47
-68
-66
-54
-28
-11
-2
-13
-11
-36
-42
-50
-72
-77
-48
-1
-23
-12
-13
-29
-23
-54
-55
-19
-27
39
65
86
83
80
73
91
49
31
35
28
15
6
-13
-64
-119
-119
-137
-124
-109
-51
-64
-50
-47
-71
-70
-67
-78
-97
-91
-31
34
6
2
-22
-40
-54
-66
-66
-36
1
-5
7
7
-34
-47
-51
-39
-32
-12
-18
-5
6
-3
-33
-39
-55
-57
-65
-29
10
26
14
-1
-37
-40
-35
-70
-36
-23
12
38
-7
-18
-32
-46
-35
-45
-26
-15
-1
24
4
16
-18
-35
-47
-43
-37
-2
8
17
30
14
4
-1
-17
-4
-14
8
32
27
24
20
-19
-2
-4
-5
18
38
34
37
19
16
10
11
13
5
11
17
26
52
33
27
15
-17
-28
0
-28
19
19
33
22
-1
-31
-31
-50
-52
-43
2
7
-1
7
-23
-43
-52
-76
-55
-30
6
-5
-18
-30
-53
-53
-73
-62
-61
-43
-11
-2
-1
-12
-19
-53
-84
-74
-74
-39
-27
-3
0
-29
-26
-65
-64
-68
-57
-13
5
13
-5
-22
-40
-49
-61
-64
-54
-43
-32
-9
-4
-41
-56
-56
-41
-69
-53
-24
-7
-44
-29
-14
-38
-39
-44
-56
-33
-45
-15
-13
-3
-19
-32
-40
-73
-75
-40
-25
-17
13
8
-17
-29
-58
-64
-60
-34
-12
-5
0
0
-22
-54
-49
-54
-86
-65
-35
-5
-11
-7
-22
-50
-52
-63
-79
-37
-7
-5
-6
-10
-27
-32
-57
-87
-57
-45
-14
-2
-2
-1
-34
-66
-52
-53
-54
-44
-16
-12
-4
7
-34
-49
-53
-86
-56
-33
-5
9
4
-14
-22
-64
-79
-55
-63
-43
-33
-15
13
2
-27
-51
-54
-70
-70
-32
1
2
-12
-28
-29
-41
-75
-65
-73
-20
-17
-15
-14
2
-26
-45
-57
-92
-54
-28
-2
3
7
2
-39
-57
-43
-62
-60
-15
10
23
12
-7
-40
-60
-67
-62
-48
-19
-2
-11
-22
-43
-19
-41
-60
-69
-40
-12
-19
3
-20
-25
-43
-46
-69
-56
-32
-29
-10
3
2
-29
-48
-64
-49
-49
-39
-7
-6
-16
6
-6
-18
-22
-20
9
42
71
92
111
115
108
53
30
8
-2
-16
-19
-26
-31
-57
-96
-117
-113
-134
-100
-79
-29
-39
-26
-30
-35
-75
-63
-59
-46
-55
-3
-15
16
-15
-21
-47
-56
-47
-49
-22
3
10
11
-4
-7
-44
-63
-34
-25
-31
2
3
16
3
-27
-42
-40
-30
-47
-11
5
11
26
4
-16
-55
-24
-1
-34
-29
9
14
13
5
-21
-33
-35
-58
-9
-7
29
21
31
27
-11
-11
-38
-38
-11
16
38
32
19
-15
12
-13
-9
5
-2
21
41
42
44
29
14
-11
-6
8
20
14
52
46
65
53
42
-11
-13
-16
9
19
67
74
37
-2
-7
-28
-14
-11
-17
-4
13
31
28
-8
-26
-21
-50
-36
-21
-12
1
-1
-14
-20
-40
-52
-58
-48
-21
-7
-2
-9
3
8
-45
-84
-69
-29
-35
-11
-19
-5
1
-38
-58
-43
-61
-57
-34
0
-15
-6
-6
-22
-58
-44
-59
-57
-13
6
-29
7
-7
-28
-68
-79
-38
-40
-36
-16
0
24
-7
-39
-50
-41
-45
-41
-16
13
2
3
0
-28
-63
-61
-60
-33
-32
10
-8
12
-5
-50
-43
-58
-44
-37
-23
13
-1
5
-17
-29
-52
-53
-40
-51
-37
-1
-14
-9
14
-26
-70
-51
-49
-26
-27
-9
23
-8
-21
-37
-50
-49
-59
-50
-15
2
11
-28
-30
-32
-22
-76
-64
-26
6
-1
-6
-5
-11
-25
-49
-87
-55
-51
-8
-18
6
-3
-4
-46
-66
-66
-42
-66
-27
11
5
-18
0
-28
-61
-56
-48
-44
0
-12
8
-17
-20
-56
-58
-46
-40
-29
-20
-9
-6
0
-22
-48
-53
-49
-58
-39
-2
21
5
-14
-1
-38
-63
-54
-50
-20
-12
-7
-1
-19
-26
-45
-61
-54
-40
-37
-18
-7
-7
6
-14
-46
-53
-57
-57
-30
13
-9
-19
-18
-32
-58
-49
-34
-49
-25
-23
-21
-5
-13
-22
-55
-53
-56
-22
-29
10
2
37
21
22
-14
3
17
43
77
102
95
57
19
0
-18
-33
-79
-98
-57
-49
-62
-72
-65
-115
-113
-97
-92
-70
-31
-31
-34
-21
6
-45
-68
-59
-45
-34
-3
-14
4
41
-4
-37
-45
-18
-48
-35
10
18
17
-6
-23
-26
-34
-53
-56
-22
9
15
1
-7
18
-13
-14
-88
-33
-13
-2
18
16
19
-1
-2
-39
-16
-22
2
12
23
19
-1
-9
-55
-44
-19
-11
13
32
29
51
21
3
-14
-41
-20
-7
7
28
26
25
45
20
3
3
8
21
-5
29
35
55
49
36
-18
-1
36
16
28
53
73
64
57
27
-20
18
5
-2
45
40
51
45
15
-8
-28
-33
-12
-20
-11
13
20
4
16
-19
-58
-52
-71
-59
-16
9
29
6
-3
-35
-67
-63
-50
-38
-10
-4
-17
23
-19
-34
-33
-64
-50
-49
-8
6
15
-3
-22
-25
-55
-61
-56
-51
-11
8
0
-17
-28
-59
-35
-61
-53
-38
-3
-4
-15
-20
-42
-43
-53
-48
-48
-37
-15
12
-2
9
11
-69
-63
-77
-67
-36
3
7
6
3
-30
-52
-62
-34
-37
-31
-11
-12
0
0
-24
-45
-62
-66
-52
-15
-6
9
15
0
-48
-82
-51
-52
-37
-47
-7
9
-10
-18
-16
-60
-50
-53
-52
-21
-2
-5
-14
-16
-25
-55
-56
-80
-74
-55
23
-4
6
-23
-23
-44
-52
-56
-32
-39
-16
7
17
-22
-38
-46
-57
-42
-33
-26
-17
3
-10
-15
-35
-26
-53
-82
-24
-24
-15
-6
-17
-29
-48
-39
-30
-43
-33
-15
1
23
-1
-19
-47
-51
-54
-50
-51
-16
-14
-15
-9
-15
-48
-56
-61
-53
-26
-9
-2
-15
2
0
-52
-67
-67
-47
-40
-9
-1
-7
-13
-26
-72
-70
-52
-30
-42
-14
-8
-19
-8
-21
-46
-38
-39
-30
-14
-3
43
64
61
42
31
53
43
50
21
6
21
11
-39
-64
-96
-138
-122
-128
-106
-65
-61
-22
-38
-70
-96
-93
-71
-75
-49
3
-25
-21
-7
-29
-43
-65
-51
-33
-13
6
7
-1
-27
-24
-43
-54
-65
-52
-33
1
2
1
6
-20
-52
-53
-46
-31
-1
2
-3
-4
-2
-23
-39
-47
-41
-46
-25
6
15
2
-4
-16
-39
-41
-32
-33
3
11
24
17
7
-28
-28
-58
-30
-7
4
18
57
36
-21
-23
-24
-24
-35
-6
20
42
60
29
24
10
-12
-30
9
-9
31
56
36
59
41
9
-11
-3
2
9
20
49
83
37
9
-1
-8
-21
-10
-17
-13
39
30
5
-6
-33
-51
-41
-39
-23
-2
9
13
-2
-43
-58
-56
-65
-46
-20
-20
-14
4
-1
-41
-69
-62
-73
-51
-31
-6
-20
-24
-9
-65
-55
-63
-63
-48
-39
-12
-18
10
-4
-44
-70
-64
-75
-52
-22
-7
1
8
-9
-80
-56
-62
-74
-41
-24
-6
-7
-24
-33
-43
-53
-60
-58
-37
-11
-7
-16
-11
-39
-43
-48
-50
-66
-53
-22
-9
-1
7
-14
-70
-57
-61
-63
-6
-12
-7
5
-17
-40
-45
-63
-59
-61
-36
-6
-12
-12
-16
-25
-55
-42
-41
-61
-45
-19
-5
-31
-29
-35
-39
-55
-59
-48
-44
-21
-21
4
-10
-38
-62
-53
-58
-60
-39
-21
6
-7
7
-32
-51
-60
-70
-56
-42
-22
-14
1
-30
-27
-61
-70
-52
-79
-42
-8
-3
6
-21
-22
-53
-43
-58
-81
-41
-12
3
17
0
-47
-71
-65
-51
-67
-26
-15
-19
-14
-42
-12
-48
-45
-44
-47
-33
-15
-4
-6
-24
-49
-44
-38
-43
-60
-32
10
6
-1
-27
-54
-46
-65
-45
-46
-33
-23
-8
1
-16
-17
-77
-58
-54
-58
-32
-17
2
-18
-44
-27
-64
-74
-46
-20
-5
-29
-13
-22
-24
-63
-44
-60
-82
-56
-8
2
4
19
-31
-41
-36
-27
-2
11
53
86
84
111
96
48
27
-5
-26
-3
9
-24
-40
-57
-83
-105
-111
-114
-115
-114
-46
-48
-10
-25
-43
-91
-79
-67
-54
-52
-19
-2
-9
-15
-34
-60
-74
-42
-51
-22
-10
-10
1
-10
-26
-77
-57
-41
-36
-38
-3
8
5
-20
-25
-41
-40
-54
-31
-20
9
13
1
-2
-28
-45
-49
-60
-45
-46
-7
-9
33
-18
-37
-18
-32
-42
-22
-18
8
17
8
9
-11
-53
-38
-42
-26
7
1
25
34
22
-5
-31
-24
-27
0
8
49
38
33
25
-14
-23
-26
-20
4
26
18
30
38
25
4
-1
4
-6
-4
19
49
51
24
7
-1
-16
-18
-28
-17
3
13
13
11
13
-55
-58
-50
-40
-36
-6
-4
6
-11
-49
-55
-73
-81
-58
-57
-24
-7
-5
-20
-17
-28
-72
-83
-33
-63
-11
-33
-19
-14
-47
-64
-56
-74
-80
-46
0
-6
12
-6
-68
-41
-64
-51
-35
-19
-64
-7
-3
-21
-32
-64
-84
-61
-59
-51
-10
-5
-17
-10
-16
-35
-65
-84
-55
-38
-16
2
-17
-40
-48
-52
-51
-75
-64
-25
-29
-1
-30
-18
-26
-82
-67
-55
-47
-36
-27
3
-28
0
-50
-63
-61
-76
-69
-33
-11
2
-5
-7
-58
-54
-68
-89
-40
-16
-5
-21
-10
0
-49
-67
-64
-67
-58
-31
-31
4
12
-42
-51
-64
-67
-54
-32
-23
-16
-16
-21
-30
-64
-86
-62
-55
-52
-35
-31
0
-2
-28
-61
-51
-53
-60
-50
-39
-13
0
-6
-24
-59
-65
-52
-63
-59
-31
-13
10
-5
-22
-76
-51
-75
-70
-67
-11
-1
19
-17
-57
-75
-100
-67
-45
-44
0
10
4
-15
-34
-37
-60
-67
-85
-29
18
-15
-15
-17
-34
-41
-47
-50
-43
-28
-20
-18
-31
-21
-34
-68
-81
-63
-53
-14
-23
-13
-5
-8
-45
-78
-72
-58
-60
-45
-6
1
-6
-36
-36
-66
-66
-58
-54
-38
-17
-16
-26
-7
-24
-59
-47
-74
-54
-26
-25
-14
-30
-19
-17
-36
-18
-3
16
57
99
105
118
89
48
21
-7
-11
-24
-45
-47
-33
-96
-59
-118
-137
-114
-104
-109
-59
-41
-61
-40
-49
-59
-62
-60
-57
-46
-24
5
-1
-7
-37
-55
-61
-65
-45
-50
-33
-7
1
-3
-22
-56
-55
-53
-53
-26
-24
-8
-1
-23
-15
-28
-27
-45
-49
-46
-10
-4
-11
-27
-27
-30
-45
-44
-24
-33
-2
7
17
-6
-20
-20
-48
-48
-29
-42
7
8
13
-11
-30
-42
-47
-48
-28
-8
5
28
39
20
-11
-14
-45
-38
-20
16
12
25
29
16
14
-21
-27
-23
2
4
31
48
50
25
-10
-10
-26
-8
14
20
33
36
33
17
-10
-21
-29
-34
-27
10
21
-19
2
-36
-56
-44
-64
-67
-56
-19
-4
-12
-16
-18
-35
-59
-72
-58
-64
-35
-30
-18
-29
-32
-69
-77
-71
-35
-48
-26
-6
3
-36
-32
-49
-76
-75
-74
-56
-40
-14
10
-20
-48
-43
-60
-74
-64
-45
-36
-27
-19
-17
-32
-70
-63
-82
-80
-37
-7
-36
-9
-30
-30
-65
-80
-66
-71
-58
-25
-16
-21
-23
-24
-54
-73
-95
-82
-27
-12
-13
-8
-16
-40
-73
-89
-77
-52
-48
-15
-13
-20
-10
-34
-57
-90
-77
-63
-48
-33
-5
-24
-8
-42
-63
-53
-76
-65
-47
-15
-14
-12
-15
-55
-69
-71
-69
-59
-43
-11
-4
0
-21
-57
-76
-83
-54
-81
-66
-32
-8
9
-40
-81
-50
-54
-54
-72
-44
-18
-13
-2
-3
-53
-73
-90
-66
-43
-29
-13
-13
-23
-8
-65
-68
-71
-67
-55
-30
-25
-14
-28
-31
-51
-70
-69
-61
-51
-21
-26
-23
-28
-41
-59
-60
-72
-64
-60
-29
-17
-9
-8
-31
-54
-38
-91
-66
-33
-20
-14
-8
-14
-32
-57
-64
-61
-54
-48
-10
-11
-24
-3
-49
-53
-92
-65
-47
-32
-1
-3
-5
-13
-30
-56
-66
-64
-64
-48
-18
-14
10
-13
-42
-65
-64
-78
-51
-48
-16
-19
-4
-27
-51
-57
-59
-72
-75
-25
2
0
-19
-25
-47
-67
-71
-67
-41
-38
-18
2
0
-38
-70
-68
-84
-48
-31
7
28
11
49
55
48
49
58
64
65
77
67
58
46
-6
-51
-81
-111
-121
-115
-104
-74
-35
-60
-62
-84
-115
-102
-96
-63
-28
-44
-21
-14
13
-49
-46
-64
-57
-42
-43
-6
7
-11
-31
-44
-50
-42
-47
-53
-16
-7
-1
-1
-13
-49
-48
-66
-45
-34
-4
3
3
-5
-29
-44
-52
-60
-44
-24
-4
-1
10
5
-12
-46
-46
-34
-25
-28
3
-6
-7
19
3
-43
-49
-60
-40
-14
-12
9
40
28
6
-10
-21
-47
-31
4
39
47
15
19
1
-15
-17
-24
-7
7
55
52
46
29
-11
14
-1
3
-2
10
32
48
67
27
-9
-37
6
8
-23
3
42
36
19
8
-18
-39
-37
-44
-39
-17
6
7
-2
-8
-22
-64
-57
-54
-49
-23
-19
6
-30
-32
-48
-50
-65
-60
-34
-21
-6
-14
-26
-21
-37
-56
-71
-70
-48
-39
-9
14
-10
-54
-64
-60
-71
-30
-50
-21
2
-1
-15
-24
-73
-77
-50
-56
-44
-21
-32
-20
-2
-19
-42
-72
-75
-70
-36
-6
4
-13
-22
-42
-39
-51
-47
-50
-46
-11
-9
-10
-22
-31
-72
-66
-43
-40
-26
1
4
10
-13
-39
-51
-60
-70
-54
-23
-20
-4
-13
-12
-36
-46
-44
-75
-42
-26
-34
-31
12
10
-12
-64
-62
-69
-53
-41
-4
4
6
-33
-42
-61
-72
-76
-24
-5
5
-18
-38
-11
-32
-39
-34
-63
-60
-37
-12
-8
-34
-34
-13
-56
-70
-46
-49
-37
-7
2
-9
-30
-11
-51
-71
-74
-54
-36
4
-17
-20
-22
-51
-52
-58
-52
-36
-32
-1
17
4
-16
-58
-52
-60
-63
-42
-19
7
-8
-26
-28
-57
-45
-40
-47
-59
-19
0
12
-14
-30
-88
-38
-27
-77
-20
7
-27
-1
-16
-11
-51
-46
-50
-32
-27
-3
-5
-2
-1
0
-49
-38
-72
-60
-26
10
-4
5
-10
-24
-52
-47
-57
-87
-8
8
-12
-34
-15
-24
-75
-66
-43
-49
-12
11
8
-4
-26
-15
-72
-63
-73
-52
-28
-5
-1
-2
-30
-35
-42
-60
-61
-32
-25
-10
-12
19
28
22
-4
6
35
57
85
125
115
95
65
25
-7
-40
-54
-67
-69
-51
-72
-84
-81
-99
-86
-89
-104
-81
-67
-20
-15
-12
-24
-12
-74
-68
-53
-38
-12
-4
3
3
-27
-43
-35
-53
-58
-30
-25
5
20
12
-7
-27
-45
-66
-58
-9
-4
12
5
16
-8
-37
-38
-44
-40
-38
15
3
2
4
-3
-30
-60
-43
-28
-11
7
20
31
0
-18
-46
-45
-26
-10
5
29
22
3
7
21
-12
-26
-39
-37
0
25
36
40
10
23
-22
-33
-24
-10
1
53
46
41
42
42
7
-7
12
1
32
52
42
44
20
29
3
1
-16
12
32
67
47
41
29
1
-26
-37
-18
-10
-2
7
19
22
9
-46
-39
-52
-46
-45
-20
-12
6
3
-8
-26
-44
-64
-46
-39
-7
-14
-25
-24
-21
-43
-43
-49
-57
-53
-29
0
7
4
-29
-45
-47
-73
-63
-36
6
-12
7
-38
-43
-29
-38
-71
-55
-54
-2
-8
21
-13
-14
-54
-69
-47
-77
-35
-15
-2
17
5
0
-41
-52
-50
-39
-50
-16
4
8
-9
-14
-51
-44
-59
-48
-41
-15
-3
-5
-6
-22
-54
-53
-63
-33
-49
-15
0
-4
-1
-16
-68
-69
-30
-35
-31
-17
-1
-17
-41
-38
-43
-38
-65
-30
-30
-15
5
4
-13
-36
-80
-50
-61
-39
-12
0
16
3
-22
-36
-55
-68
-47
-37
-42
8
-9
-9
-27
-29
-37
-65
-40
-63
-26
-5
-9
2
-14
-49
-71
-85
-65
-34
-15
-24
5
10
-17
-28
-45
-46
-59
-26
-14
-24
-6
-7
-18
-38
-39
-81
-70
-28
-25
-15
18
3
-9
-51
-74
-74
-56
-54
-12
3
-18
-1
-25
-34
-63
-45
-59
-34
-8
8
-6
-8
-14
-46
-53
-54
-41
-31
-2
9
13
8
-16
-39
-46
-46
-46
-59
9
6
-9
-17
-17
-42
-75
-57
-49
-38
-29
2
4
-16
-61
-37
-41
-64
-54
-51
-3
15
-19
-15
-20
-56
-58
-54
-38
-30
-11
0
-6
-40
-18
-38
-38
-63
-36
-12
7
60
86
55
59
55
85
76
62
41
41
50
30
1
-63
-89
-126
-105
-101
-89
-116
-60
-47
-59
-71
-80
-73
-65
-55
-51
-35
9
-5
-19
-61
-56
-26
-51
-53
-7
3
16
13
-7
-38
-50
-56
-44
-72
-23
13
14
1
-12
-29
-60
-45
-65
-49
-12
27
20
14
-4
-19
-36
-46
-45
-57
-9
28
16
-19
-13
-20
-43
-32
-48
-27
21
1
30
11
3
-36
-38
-26
-10
-18
19
5
41
28
13
-26
-27
-8
-4
-8
16
49
42
22
27
-3
-20
3
6
19
43
59
52
33
24
26
23
-7
-33
43
59
39
55
48
54
-7
-41
-17
19
30
30
18
61
16
8
-27
-31
-36
-51
-12
-8
13
26
1
-9
-40
-57
-64
-49
-20
13
8
11
-8
-59
-65
-20
-55
-40
-23
-8
1
-15
-39
-13
-49
-63
-53
-48
-12
-7
-5
-8
-4
-29
-47
-49
-47
-17
-31
-24
9
-7
-17
-36
-36
-57
-52
-26
-9
11
6
15
-3
-32
-36
-46
-36
-37
-29
25
14
9
-4
-47
-63
-26
-57
-37
-8
1
12
23
-9
-35
-59
-57
-31
-46
1
5
4
2
0
-29
-28
-51
-32
-33
-2
4
26
8
-14
-29
-28
-28
-27
-26
1
7
7
4
15
-11
-41
-76
-47
-40
-23
-2
26
19
-6
-59
-38
-52
-33
-3
16
10
19
-1
0
-27
-38
-47
-24
8
17
17
-3
-7
-6
-31
-46
-39
-31
-17
26
23
22
5
-15
-44
-11
-34
-25
-28
37
24
-8
1
-4
-32
-39
-46
-32
-6
4
21
14
16
-1
-26
-39
-16
-11
9
15
20
31
-4
-23
-29
-19
-20
6
11
14
34
33
21
-20
-21
-48
-47
-32
-7
21
27
25
-12
-34
-42
-36
-19
-10
13
36
5
-13
-7
-10
-25
-17
-29
-10
12
27
34
11
8
-26
-40
-34
-27
-25
14
20
24
8
16
-1
-19
5
-10
37
63
100
109
104
101
81
57
27
19
38
26
25
-3
-35
-22
-84
-72
-84
-92
-71
-33
-17
-21
-11
-22
-48
-53
-56
-42
-22
7
34
26
39
16
-37
-36
-13
-31
-4
33
26
25
5
15
-4
-28
-27
7
3
19
36
35
46
11
-2
-18
-11
-1
4
37
36
36
19
3
-12
-27
-7
-10
33
55
47
45
51
4
-10
-7
5
-10
55
38
24
31
54
22
-4
-22
-13
33
37
52
62
59
36
37
21
6
35
30
76
76
68
63
50
36
38
41
53
45
79
75
65
57
44
67
38
43
47
46
68
72
89
81
61
38
40
33
32
18
50
52
44
31
26
15
4
-28
-29
0
27
39
43
30
16
3
-23
-39
-11
17
47
31
11
6
5
-20
-7
-31
-10
-2
17
15
28
30
10
-20
10
-14
-16
2
-3
10
45
20
12
-18
-32
-12
4
-2
36
13
36
17
3
-21
-13
-19
-31
11
38
18
28
18
-5
-15
-22
-19
-11
24
35
34
24
19
1
-10
-23
-41
1
40
0
18
45
6
7
-37
-46
15
28
23
16
26
17
21
2
9
-37
-35
-16
21
46
39
40
41
-8
-21
-22
-22
5
-8
23
34
28
4
-5
-4
-28
-19
-4
12
37
42
22
13
-17
-34
-27
-19
0
21
32
33
41
-1
-10
-5
-19
-12
7
29
42
38
41
-4
-21
-39
-23
-9
2
13
60
46
31
8
-30
-22
-39
-4
5
26
46
39
26
5
-9
0
-21
5
-5
31
30
11
32
24
-12
-15
-3
14
30
38
57
1
32
19
-17
-39
-28
-5
25
41
15
52
21
-3
-23
-14
-18
1
-12
17
45
28
13
0
-20
-24
-13
-6
21
44
36
22
6
15
-10
-21
-14
-6
24
37
30
64
56
23
20
37
64
99
110
154
143
145
114
46
13
-3
-13
-33
-17
-18
-40
-37
-36
-65
-71
-68
-57
-37
3
-4
16
29
5
-8
-18
-7
-9
-8
43
51
32
15
23
2
-15
-26
11
5
36
41
50
15
12
-11
-3
4
-4
21
51
33
46
42
26
32
-12
-60
-32
19
60
45
48
46
30
7
-4
-7
-6
22
44
42
64
72
39
-12
-5
4
23
15
64
64
73
36
13
1
29
14
15
31
81
70
60
33
31
21
28
39
47
61
83
92
102
72
32
33
40
40
49
68
78
86
91
74
55
35
27
21
43
72
74
42
55
76
60
10
33
13
28
31
43
48
44
17
-12
-13
-13
-6
4
30
30
43
40
24
5
-20
-11
-6
5
12
14
35
45
11
-2
-23
-26
-14
-11
27
40
31
32
25
-17
-20
-10
-24
15
62
23
26
24
6
8
-27
-27
-13
21
48
29
55
38
24
-21
-4
-31
-9
16
33
33
40
25
13
3
-1
-16
-6
3
64
15
34
48
18
-30
-23
-4
4
32
41
35
33
25
21
9
3
-21
-8
32
42
42
57
32
7
-4
-22
-14
15
22
49
35
48
42
22
-23
13
0
-4
7
61
56
47
28
15
-4
-7
1
-2
22
33
40
55
33
13
5
-9
-7
3
29
33
59
43
27
3
-2
-5
26
13
31
43
49
44
44
15
-17
-28
-29
41
55
48
52
76
46
-4
5
11
15
43
46
48
50
59
50
8
1
-9
-11
8
39
56
34
50
32
6
-3
2
3
28
50
60
49
40
18
14
-6
-7
21
11
27
38
69
49
23
6
2
10
-10
14
35
47
74
67
48
32
6
11
32
67
101
128
100
136
136
120
152
130
101
117
93
92
84
45
-9
-69
-63
-64
-41
-11
10
-5
14
-15
-11
-16
-16
2
9
19
68
56
46
48
31
7
26
8
17
34
50
88
70
38
39
20
9
29
30
45
50
87
71
43
34
15
10
14
25
40
70
55
80
66
28
19
24
22
44
63
70
85
82
68
42
3
33
34
46
76
81
76
51
68
65
26
27
56
64
81
75
118
108
64
47
57
61
59
63
111
94
93
99
87
62
67
59
67
83
127
126
137
101
98
91
84
64
47
77
122
137
127
107
85
45
85
57
56
79
98
93
96
87
70
22
24
9
33
53
93
89
63
58
52
23
20
9
24
47
81
58
55
71
28
17
20
21
20
25
57
85
73
49
25
4
14
18
33
51
56
52
51
40
38
26
23
15
21
51
55
68
78
58
37
-5
20
12
39
40
80
74
74
57
37
18
4
8
34
64
84
80
66
36
35
23
31
24
39
62
56
72
65
66
34
7
18
23
32
70
75
71
74
57
19
7
25
42
51
64
92
80
47
53
32
5
26
25
47
59
68
68
80
66
36
25
2
19
51
58
72
81
46
26
18
20
42
51
36
56
75
88
64
37
35
35
26
33
48
44
83
74
66
51
38
20
-1
30
66
75
88
88
65
39
30
34
28
21
47
81
87
81
63
50
13
16
12
27
66
68
103
104
84
65
40
6
-8
52
74
88
74
67
71
63
-2
21
33
44
48
70
77
81
63
37
34
20
28
48
63
65
80
78
60
19
17
16
18
29
61
96
76
72
68
50
23
10
16
30
74
92
92
97
99
74
91
86
139
132
179
210
189
187
146
72
60
39
13
28
12
0
33
1
15
-23
-15
-31
-8
17
59
65
63
64
54
39
7
18
18
52
61
80
96
92
53
21
20
25
34
70
84
85
76
75
74
31
24
43
44
63
89
82
92
101
61
35
33
42
35
61
71
80
111
118
87
13
32
51
64
62
71
96
99
76
55
32
48
56
60
89
104
97
104
79
44
50
66
48
90
94
121
134
119
120
94
78
59
80
60
102
123
133
130
112
98
84
92
80
83
123
124
134
129
133
85
72
85
80
74
120
126
117
78
93
61
62
58
34
73
112
91
85
87
61
35
41
30
32
42
58
59
61
82
73
42
8
16
33
41
72
63
89
59
56
43
25
7
30
52
70
80
54
62
50
20
18
21
21
21
62
71
101
92
33
13
38
36
8
31
65
82
78
54
54
31
21
3
42
59
73
95
74
65
51
30
-2
15
32
31
76
82
85
82
40
-6
13
17
31
49
72
83
85
77
56
31
16
17
40
58
82
63
65
62
35
8
16
20
53
57
73
70
55
54
46
21
23
36
50
59
51
75
82
51
14
34
6
15
39
68
39
73
80
65
35
6
13
28
40
42
78
80
65
62
49
16
23
24
8
61
66
89
76
46
28
16
7
13
15
54
88
74
63
65
43
24
21
21
25
77
90
76
83
87
21
47
22
25
40
63
70
81
65
47
18
23
-1
6
23
77
66
81
39
42
36
21
7
27
49
73
69
60
45
64
5
12
24
34
38
71
68
65
42
43
18
4
29
25
22
41
76
110
67
60
62
65
86
128
156
195
211
203
158
127
76
51
44
29
30
11
11
1
-2
-6
-28
-43
-30
-17
8
42
47
47
51
17
35
13
-14
29
55
71
72
63
55
49
19
6
34
31
64
89
79
74
62
32
38
22
36
42
59
74
94
90
39
25
30
26
37
57
81
88
62
61
86
37
31
46
51
60
82
50
89
72
64
52
30
33
42
39
87
109
96
91
91
46
44
36
60
65
104
82
94
81
86
88
69
62
72
79
112
120
129
113
99
63
60
66
81
100
138
117
129
109
114
62
53
53
74
114
117
112
124
108
75
46
27
32
62
72
84
89
73
60
52
30
9
31
37
55
73
66
64
50
45
22
16
19
17
52
70
61
68
53
39
31
24
15
21
25
62
68
70
57
48
31
12
-21
29
55
78
88
40
36
19
22
5
29
28
53
81
74
73
34
22
5
28
14
35
57
72
69
60
46
32
5
16
20
43
83
68
72
61
65
24
18
18
34
20
51
80
94
63
40
25
17
16
46
40
69
46
58
68
70
28
8
26
10
56
89
95
76
66
36
38
27
10
32
52
79
82
62
46
45
55
40
17
24
53
67
82
74
66
43
26
17
21
50
64
69
77
86
53
44
29
18
3
53
80
75
78
71
48
33
33
33
17
39
69
68
74
95
64
45
42
35
25
39
61
85
87
49
79
64
36
18
36
57
77
94
96
66
66
58
47
56
24
64
78
71
86
87
50
44
31
27
18
43
71
99
92
87
67
48
22
27
38
41
51
84
87
84
73
49
54
27
32
36
82
90
115
94
78
36
47
23
13
38
73
85
98
87
70
37
36
64
74
106
156
194
191
170
173
183
154
136
122
127
109
92
88
51
16
-26
-37
-36
-27
10
64
42
66
40
31
7
35
52
66
66
62
105
110
92
63
27
28
56
51
65
109
96
95
86
53
44
49
72
58
91
90
94
116
107
74
48
75
59
60
84
82
78
105
96
96
72
43
75
79
98
109
84
99
105
96
69
60
66
68
94
116
119
108
107
99
79
69
72
94
112
130
137
130
99
94
71
69
80
106
138
151
147
138
137
101
101
104
118
106
146
158
175
148
133
111
79
88
102
114
143
147
140
148
129
95
103
57
69
100
128
128
124
131
94
67
52
64
69
79
90
98
132
99
61
56
26
28
78
89
96
97
101
85
80
58
54
26
34
82
92
105
86
72
57
50
57
39
53
62
100
92
107
84
51
56
42
51
42
84
86
114
122
97
84
34
36
44
52
76
108
97
104
86
76
49
41
49
58
91
109
110
74
81
85
46
49
51
55
84
97
92
98
73
63
61
47
60
74
102
106
94
112
84
57
42
46
52
68
91
114
99
60
70
54
56
66
74
57
100
116
84
92
78
65
38
48
61
74
117
88
75
96
70
62
51
48
45
65
75
108
115
85
77
77
46
46
69
76
95
103
108
98
73
62
26
38
41
66
105
101
112
102
86
44
23
34
54
82
75
92
128
81
58
68
61
59
56
52
108
122
105
93
75
38
43
53
82
85
96
96
104
92
87
57
47
43
61
84
88
110
84
76
62
60
51
43
41
69
87
95
95
87
56
43
57
53
47
84
92
96
75
97
62
50
30
46
55
72
67
83
105
101
60
59
50
42
61
89
102
111
110
126
131
119
126
125
165
224
241
234
199
139
101
93
61
6
-14
25
28
43
36
41
4
-20
-13
2
28
72
60
80
78
56
59
54
40
44
44
84
110
98
105
62
35
36
49
52
62
78
107
112
97
86
51
54
47
47
76
98
107
95
108
108
60
22
46
76
85
111
106
96
80
93
49
53
56
55
75
117
112
86
72
91
62
59
88
84
100
116
111
99
111
82
64
79
76
91
103
124
112
107
120
105
92
79
76
106
136
137
125
141
142
113
110
52
91
114
151
139
128
132
136
135
89
83
99
79
104
134
120
122
115
93
58
57
61
55
94
99
99
89
63
47
40
29
46
60
63
75
101
69
68
10
17
17
31
68
66
69
104
69
51
45
15
6
33
49
78
58
75
53
60
30
49
31
24
44
67
69
82
69
53
12
15
16
34
50
74
76
76
60
58
26
22
12
33
52
75
60
85
68
41
21
39
20
41
39
77
89
85
66
37
26
10
11
28
45
60
83
70
45
46
26
7
4
32
56
71
71
75
73
44
28
18
22
15
58
55
73
77
60
36
9
26
19
23
49
67
74
75
65
37
39
-1
12
25
44
65
75
64
58
20
8
43
-4
33
30
68
70
65
40
15
15
17
8
40
70
66
62
56
43
30
12
14
10
50
44
70
92
61
42
26
0
-19
21
40
60
81
70
65
64
38
38
19
10
35
60
76
73
49
30
5
11
17
13
42
65
44
56
68
37
19
10
4
-1
39
65
58
42
44
51
23
13
13
23
39
45
42
61
52
41
7
-11
10
7
21
53
53
74
61
25
12
9
58
79
104
151
166
186
184
174
135
103
63
73
71
59
39
6
-14
-35
-66
-64
-50
-41
-15
-12
-3
20
24
5
-19
1
11
26
25
35
59
29
36
23
38
0
3
1
44
42
44
77
59
21
10
21
25
26
33
61
66
70
65
28
-10
-3
40
-7
49
64
77
60
43
21
2
-6
36
43
70
65
63
53
37
24
18
6
24
37
54
81
77
61
52
46
23
23
26
41
36
99
89
80
65
37
23
35
43
62
75
113
106
82
81
55
43
56
86
81
118
115
84
77
77
62
47
39
66
63
93
88
106
90
50
29
30
39
32
41
45
59
50
50
38
15
4
0
27
11
49
53
50
33
22
-19
-28
-38
-2
38
38
51
42
31
13
-6
-2
-14
5
-1
26
17
26
24
-3
-43
-32
-16
-1
34
54
42
34
29
4
-21
-22
1
-5
11
28
54
40
4
7
-10
-13
-16
-14
7
60
54
26
27
2
1
-3
-6
-4
15
40
39
21
16
-8
-12
-19
1
9
23
36
62
31
1
-20
2
-14
-16
21
18
38
44
47
42
-24
-23
0
1
-12
34
42
40
44
1
0
-5
-19
-8
0
27
49
39
45
5
1
-29
-33
-4
-7
17
59
60
36
18
-10
-11
-6
5
32
20
13
37
38
10
-35
-11
11
9
22
27
35
33
20
4
-10
-7
-18
6
28
38
41
20
38
21
-8
-15
0
13
-10
33
60
76
20
8
-2
-1
-2
35
23
53
70
41
4
21
-15
-21
5
-6
14
45
25
33
33
13
8
-6
-15
12
46
42
46
40
26
10
-24
-3
-30
3
30
27
56
44
52
7
