4
-8
-29
-49
-33
-52
-38
-7
-5
-1
-1
-15
-36
-53
-56
-46
-30
-8
9
23
-1
-20
-45
-50
-51
-44
-25
4
8
11
-4
-14
-47
-53
-49
-41
-26
1
-2
9
5
-19
-48
-59
-62
-57
-19
3
5
2
-9
-20
-54
-55
-51
-49
-24
2
8
10
-12
-27
-58
-65
-61
-40
-29
0
9
6
-2
-24
-48
-70
-56
-43
-27
-2
-4
1
-9
-29
-58
-59
-59
-49
-24
2
4
-3
-15
-24
-54
-64
-67
-45
-28
-4
5
5
-19
-42
-55
-65
-61
-38
-17
-7
-1
-9
-14
-41
-50
-66
-69
-50
-18
-2
7
-4
-13
-43
-60
-71
-58
-40
-20
-10
4
-3
-15
-44
-62
-70
-57
-49
-15
-3
7
-7
-15
-56
-69
-54
-60
-46
-10
-4
2
-8
-21
-42
-61
-59
-48
-36
-10
-6
1
-7
-20
-48
-53
-49
-57
-40
-18
-4
-6
-11
-22
-50
-63
-64
-54
-42
-20
-12
-1
-2
-24
-61
-83
-80
-58
-41
-1
-10
-11
-12
-37
-57
-62
-65
-60
-42
-13
-4
1
-17
-39
-59
-69
-73
-60
-28
-8
-11
-2
-22
-45
-45
-45
-38
-5
33
65
82
99
88
61
20
-2
-17
-24
-10
-13
-24
-33
-65
-89
-117
-115
-118
-107
-70
-48
-44
-46
-33
-65
-81
-81
-74
-57
-37
-11
-13
-6
-17
-46
-59
-70
-70
-50
-27
-11
-11
-3
-16
-45
-55
-59
-60
-51
-25
-9
-5
-2
-21
-38
-60
-61
-63
-58
-8
-3
-2
1
-19
-38
-55
-60
-62
-47
-19
-5
9
10
3
-51
-54
-59
-52
-29
5
4
11
9
-17
-35
-49
-51
-47
-27
7
9
10
9
9
-34
-46
-38
-34
-16
8
17
42
29
13
-14
-30
-34
-24
-9
23
38
46
32
14
-23
-24
-24
-8
2
34
37
33
14
-1
-24
-33
-36
-34
-15
12
9
16
-5
-13
-56
-66
-62
-49
-32
-15
-6
-7
-23
-39
-68
-70
-70
-65
-42
-18
-25
-25
-19
-46
-83
-80
-79
-63
-44
-27
-23
-23
-31
-47
-81
-80
-76
-73
-40
-13
-7
-22
-35
-56
-68
-80
-77
-70
-39
-19
-17
-26
-39
-51
-72
-66
-67
-60
-41
-26
-16
-30
-44
-59
-77
-84
-77
-73
-28
-25
-19
-17
-41
-55
-69
-87
-79
-61
-34
-23
-14
-13
-32
-64
-84
-80
-77
-77
-36
-26
2
-12
-32
-72
-71
-75
-70
-48
-34
-21
-8
-26
-53
-71
-79
-82
-65
-58
-29
-24
-20
-25
-43
-71
-73
-78
-76
-69
-28
-15
-15
-22
-42
-68
-82
-89
-87
-48
-15
-32
-29
-26
-52
-70
-80
-94
-72
-58
-30
-31
-15
-35
-45
-73
-79
-73
-54
-66
-28
-27
-25
-28
-54
-74
-77
-78
-69
-56
-31
-29
-20
-24
-47
-87
-82
-86
-71
-50
-30
-23
-19
-36
-56
-76
-90
-82
-77
-47
-29
-22
-23
-44
-60
-80
-87
-93
-73
-42
-22
-15
-20
-36
-66
-84
-90
-91
-59
-39
-26
-26
-14
-35
-62
-82
-90
-78
-66
-36
-24
-29
-31
-40
-57
-74
-82
-87
-68
-33
-27
-22
-28
-33
-59
-77
-84
-72
-56
-35
-18
-9
-10
-37
-71
-77
-94
-80
-64
-43
-21
-20
-29
-40
-71
-83
-80
-80
-78
-39
-16
-16
-36
-53
-71
-81
-87
-72
-57
-38
-32
-21
-27
-51
-71
-86
-90
-82
-59
-23
-23
-26
-30
-42
-72
-78
-75
-62
-29
7
40
51
50
36
23
25
19
2
5
20
8
2
-24
-66
-106
-130
-138
-122
-104
-76
-69
-56
-74
-92
-112
-111
-95
-81
-58
-36
-27
-14
-29
-60
-81
-86
-73
-65
-48
-27
-24
-16
-20
-45
-64
-77
-75
-62
-50
-13
-7
-4
-26
-55
-74
-77
-72
-50
-25
-11
-8
-14
-29
-53
-62
-68
-84
-53
-28
-12
-9
-16
-23
-48
-68
-72
-61
-49
-25
-10
-5
-8
-25
-44
-64
-50
-58
-42
-17
2
13
5
-7
-38
-50
-53
-51
-28
-4
16
23
13
1
-29
-41
-42
-25
-28
16
34
42
18
1
-16
-24
-36
-24
-13
24
26
27
25
13
-29
-44
-39
-32
-7
-2
22
18
5
-19
-48
-58
-68
-57
-39
-14
-4
-11
-12
-35
-63
-77
-72
-66
-53
-22
-20
-14
-30
-48
-78
-84
-80
-71
-53
-21
-18
-23
-38
-52
-77
-76
-83
-66
-50
-27
-15
-21
-34
-46
-73
-82
-80
-71
-45
-21
-17
-19
-38
-52
-83
-84
-75
-67
-34
-17
-8
-14
-26
-57
-77
-76
-67
-70
-35
-24
-15
-20
-19
-52
-84
-80
-74
-67
-35
-15
-11
-25
-34
-53
-76
-79
-70
-63
-38
-17
-7
-13
-29
-55
-68
-76
-71
-60
-29
-18
-6
-10
-27
-52
-81
-84
-70
-57
-25
-8
-18
-22
-33
-58
-80
-78
-58
-52
-31
-17
-17
-9
-33
-67
-72
-77
-74
-54
-21
-7
-15
-14
-37
-66
-74
-76
-65
-57
-30
-11
-7
-19
-37
-65
-67
-66
-70
-56
-23
-15
-10
-17
-34
-61
-78
-81
-68
-47
-26
-18
-2
-20
-31
-64
-80
-63
-67
-48
-18
-5
-4
-21
-41
-65
-68
-83
-67
-42
-5
-2
-8
-24
-34
-61
-74
-79
-58
-39
-22
-9
-3
-27
-38
-77
-68
-65
-57
-37
-26
-11
-3
-13
-41
-66
-63
-64
-74
-42
-14
-2
3
-17
-52
-58
-62
-51
-59
-31
-6
2
-9
-23
-44
-64
-61
-66
-44
-14
-3
4
-9
-19
-40
-60
-62
-60
-45
-19
-4
-1
-19
-27
-50
-71
-68
-61
-48
-27
-8
-7
-4
-27
-59
-71
-71
-59
-43
-23
1
5
-12
-26
-51
-66
-72
-57
-49
-19
-8
0
-8
-26
-53
-78
-70
-55
-42
13
32
53
57
50
12
17
40
51
49
58
45
43
18
-26
-73
-94
-111
-105
-88
-66
-49
-40
-62
-69
-99
-99
-89
-74
-59
-25
-2
-5
-14
-33
-67
-69
-68
-54
-26
-5
1
11
-2
-41
-54
-64
-54
-56
-32
0
1
1
-9
-31
-44
-53
-55
-48
-19
3
6
5
-8
-34
-46
-48
-55
-50
-29
2
13
15
4
-27
-43
-40
-48
-38
-17
1
0
10
4
-20
-35
-44
-46
-29
3
15
26
23
8
-15
-35
-34
-30
-19
8
29
33
34
11
-5
-20
-25
-14
-6
16
41
57
43
34
-1
-18
-14
-10
10
33
41
64
46
37
-6
-23
-28
-20
-8
27
32
33
13
8
-28
-37
-41
-38
-24
4
14
14
5
-21
-45
-58
-66
-59
-42
-15
-7
-4
-2
-19
-50
-65
-76
-60
-38
-10
-5
-5
-15
-29
-54
-73
-79
-58
-33
-22
-6
-8
-14
-35
-58
-65
-70
-55
-44
-15
-11
-10
-16
-38
-61
-66
-76
-64
-42
-18
-4
0
-14
-42
-63
-75
-78
-49
-34
-12
-13
-4
-12
-41
-67
-70
-64
-61
-34
-6
0
-4
-21
-39
-59
-64
-71
-59
-26
0
6
-3
-23
-52
-66
-70
-64
-58
-34
-9
-12
-13
-24
-30
-53
-61
-72
-61
-29
-10
-4
-13
-27
-51
-70
-74
-64
-46
-26
-13
-3
-9
-27
-53
-60
-73
-68
-57
-20
-9
-4
-13
-24
-49
-63
-73
-66
-46
-30
-5
-1
-1
-22
-39
-84
-92
-67
-38
-24
-1
3
-9
-34
-58
-81
-70
-67
-47
-20
-13
-7
-8
-36
-71
-75
-71
-60
-43
-12
-9
-8
-15
-28
-54
-67
-77
-66
-48
-15
-13
-4
-12
-31
-67
-75
-79
-74
-42
-14
1
-3
-15
-41
-72
-72
-75
-66
-50
-25
0
-12
-22
-49
-77
-70
-73
-63
-42
-11
-8
-1
-20
-43
-69
-73
-75
-56
-38
-15
-12
-16
-26
-38
-63
-65
-68
-63
-39
-15
-14
-11
-12
-48
-71
-76
-70
-54
-28
-4
5
-8
-31
-39
-70
-76
-74
-55
-44
-23
-15
-10
-26
-66
-83
-77
-68
-56
-29
-17
-10
-13
-31
-49
-68
-78
-82
-61
-35
-17
-8
-15
-34
-62
-79
-79
-71
-54
-22
-11
-14
-17
-30
-57
-75
-79
-56
-39
6
28
45
46
40
29
37
41
26
16
32
31
24
-8
-47
-94
-122
-128
-121
-103
-70
-76
-57
-54
-77
-103
-100
-105
-96
-64
-42
-23
-13
-27
-38
-63
-66
-64
-60
-55
-38
-12
-7
-14
-26
-70
-76
-78
-64
-34
-16
-14
-11
-19
-44
-72
-77
-67
-56
-31
-16
-8
-9
-14
-42
-53
-68
-71
-60
-37
-8
-7
0
-26
-43
-59
-67
-66
-48
-27
-11
-3
5
-13
-28
-52
-55
-53
-50
-16
-2
8
10
-8
-29
-60
-61
-52
-34
-11
28
24
19
6
-16
-34
-41
-44
-26
-1
29
38
31
17
-13
-32
-34
-28
-4
25
34
21
18
11
-24
-36
-40
-36
-23
7
22
16
10
-6
-42
-58
-66
-59
-41
-18
-14
-2
-15
-32
-63
-75
-75
-74
-59
-36
-14
-16
-23
-36
-71
-80
-85
-83
-72
-32
-26
-24
-28
-50
-81
-101
-89
-86
-63
-30
-21
-21
-32
-49
-75
-84
-87
-77
-59
-32
-26
-25
-43
-57
-73
-80
-86
-83
-56
-28
-25
-28
-44
-64
-79
-84
-88
-80
-57
-30
-20
-18
-38
-56
-77
-82
-77
-77
-59
-39
-16
-20
-28
-67
-91
-90
-87
-79
-47
-28
-25
-19
-34
-46
-77
-97
-96
-75
-60
-26
-23
-25
-35
-58
-91
-94
-76
-67
-51
-22
-24
-36
-36
-53
-87
-95
-84
-71
-45
-27
-16
-20
-43
-67
-80
-77
-83
-72
-53
-45
-24
-25
-49
-70
-88
-102
-89
-66
-41
-29
-27
-34
-52
-76
-93
-97
-88
-72
-35
-23
-28
-30
-46
-66
-86
-95
-81
-75
-55
-26
-19
-28
-47
-76
-88
-91
-85
-67
-34
-26
-38
-34
-52
-76
-92
-94
-82
-61
-37
-30
-27
-34
-47
-88
-99
-93
-85
-67
-34
-34
-30
-34
-47
-77
-93
-105
-90
-63
-30
-28
-37
-35
-50
-85
-102
-98
-76
-69
-43
-18
-25
-37
-58
-89
-95
-94
-78
-56
-30
-30
-23
-40
-61
-87
-88
-87
-72
-43
-24
-9
-31
-40
-63
-87
-91
-88
-77
-60
-24
-30
-34
-53
-68
-87
-97
-96
-81
-57
-30
-36
-37
-54
-74
-94
-90
-99
-74
-55
-40
-26
-36
-49
-70
-84
-91
-95
-79
-50
-43
-31
-31
-50
-85
-87
-97
-89
-66
-41
-4
11
21
15
-4
-12
4
17
31
40
31
27
10
-35
-81
-100
-124
-139
-119
-89
-86
-82
-88
-85
-121
-124
-130
-118
-89
-53
-45
-44
-57
-63
-83
-89
-95
-86
-73
-42
-30
-16
-40
-53
-83
-92
-86
-87
-63
-32
-28
-24
-37
-50
-79
-83
-88
-83
-69
-33
-20
-16
-28
-48
-77
-82
-84
-77
-66
-37
-17
-25
-29
-44
-85
-87
-70
-64
-56
-36
-17
-17
-27
-43
-62
-84
-85
-67
-38
-14
-8
-2
-20
-45
-66
-73
-69
-52
-30
-8
3
7
-12
-33
-58
-66
-60
-41
-14
3
5
5
0
-25
-50
-45
-46
-41
-10
17
18
15
-10
-27
-44
-52
-42
-33
-12
9
11
-7
-18
-43
-62
-75
-70
-61
-36
-25
-18
-11
-39
-77
-82
-98
-88
-71
-46
-32
-34
-41
-58
-90
-99
-98
-93
-84
-58
-37
-38
-42
-50
-90
-109
-93
-90
-79
-53
-45
-39
-41
-57
-77
-102
-109
-90
-88
-45
-42
-31
-39
-62
-91
-105
-99
-96
-85
-50
-41
-39
-35
-60
-91
-103
-92
-92
-71
-51
-40
-37
-41
-67
-97
-99
-103
-91
-77
-47
-38
-33
-54
-63
-92
-109
-107
-83
-63
-35
-36
-32
-40
-68
-101
-100
-105
-88
-73
-37
-32
-33
-52
-65
-98
-104
-100
-82
-71
-48
-32
-32
-49
-67
-89
-88
-103
-95
-74
-43
-29
-30
-51
-76
-105
-109
-98
-87
-69
-50
-29
-38
-58
-90
-103
-103
-96
-75
-58
-35
-43
-43
-60
-87
-102
-110
-111
-83
-57
-45
-34
-38
-54
-81
-105
-111
-100
-86
-54
-43
-38
-41
-64
-89
-98
-96
-97
-86
-57
-46
-37
-40
-58
-85
-97
-96
-97
-90
-51
-42
-40
-54
-70
-92
-98
-100
-106
-76
-39
-46
-44
-32
-68
-93
-101
-115
-97
-80
-51
-42
-31
-48
-65
-102
-108
-107
-94
-71
-49
-43
-37
-42
-60
-95
-104
-98
-87
-77
-45
-40
-35
-48
-70
-98
-102
-106
-94
-84
-44
-37
-38
-50
-61
-96
-97
-103
-96
-68
-37
-21
-31
-60
-65
-96
-91
-101
-83
-64
-30
-25
-28
-53
-70
-92
-111
-107
-88
-63
-40
-40
-42
-52
-82
-107
-110
-104
-93
-63
-44
-43
-42
-50
-73
-98
-106
-104
-94
-63
-39
-42
-40
-55
-72
-92
-98
-105
-95
-55
-35
-42
-36
-37
-49
-58
-45
-36
-19
29
55
68
65
35
-13
-59
-73
-74
-86
-79
-80
-93
-93
-100
-139
-149
-150
-141
-103
-94
-80
-51
-37
-34
-35
-62
-91
-95
-101
-89
-77
-48
-41
-26
-37
-55
-83
-98
-96
-88
-61
-37
-30
-33
-38
-63
-87
-97
-102
-101
-66
-26
-35
-28
-38
-52
-82
-87
-95
-82
-65
-33
-26
-22
-37
-57
-76
-90
-93
-80
-53
-26
-30
-11
-19
-45
-70
-84
-83
-61
-38
-12
-2
-7
-30
-42
-73
-71
-73
-60
-18
3
-2
2
-6
-23
-61
-53
-56
-42
-17
-3
8
8
-5
-29
-47
-55
-61
-36
-22
5
7
-1
-18
-40
-51
-63
-63
-48
-30
-12
-12
-22
-31
-63
-94
-91
-84
-74
-42
-43
-32
-35
-47
-84
-96
-102
-105
-87
-53
-43
-37
-39
-60
-91
-106
-105
-102
-86
-59
-44
-34
-42
-60
-97
-111
-112
-95
-77
-54
-40
-36
-44
-62
-94
-104
-110
-99
-73
-51
-39
-44
-44
-57
-93
-114
-110
-92
-79
-44
-43
-39
-51
-67
-96
-103
-112
-94
-79
-43
-43
-35
-47
-65
-102
-103
-103
-94
-82
-52
-45
-37
-60
-63
-90
-111
-106
-97
-74
-48
-32
-28
-63
-73
-95
-93
-109
-91
-67
-52
-42
-37
-42
-72
-107
-111
-102
-89
-74
-47
-40
-39
-51
-69
-99
-111
-118
-95
-79
-45
-48
-42
-49
-81
-101
-114
-93
-84
-68
-42
-43
-39
-60
-79
-101
-111
-94
-91
-70
-51
-41
-41
-46
-68
-95
-113
-97
-94
-79
-34
-35
-46
-55
-93
-102
-101
-103
-100
-68
-40
-36
-48
-51
-80
-108
-114
-101
-79
-62
-49
-44
-45
-51
-92
-98
-108
-97
-76
-58
-45
-40
-42
-60
-81
-97
-109
-102
-84
-54
-40
-41
-39
-57
-96
-116
-116
-105
-69
-52
-51
-34
-53
-58
-88
-92
-99
-99
-79
-51
-41
-40
-47
-55
-88
-104
-102
-95
-72
-37
-35
-42
-51
-61
-87
-97
-104
-86
-66
-30
-27
-31
-46
-64
-94
-104
-101
-89
-71
-39
-42
-47
-53
-67
-100
-108
-104
-87
-67
-48
-43
-49
-59
-70
-96
-96
-106
-108
-64
-38
-41
-33
-43
-74
-98
-105
-101
-91
-64
-41
-42
-45
-46
-75
-94
-93
-87
-61
-28
14
30
40
35
24
11
-3
-22
-16
-7
-2
-28
-47
-81
-121
-145
-145
-145
-129
-96
-89
-75
-80
-91
-109
-113
-126
-123
-99
-60
-54
-46
-49
-61
-80
-101
-103
-89
-74
-46
-36
-27
-38
-54
-75
-94
-97
-91
-71
-45
-39
-30
-34
-49
-82
-91
-96
-81
-77
-42
-15
-35
-37
-51
-78
-94
-97
-73
-78
-46
-29
-29
-25
-45
-85
-89
-85
-78
-65
-24
-24
-17
-33
-47
-69
-78
-75
-72
-47
-15
-9
-11
-16
-29
-63
-77
-77
-61
-42
-9
4
-6
-15
-28
-49
-55
-57
-46
-21
4
11
3
-6
-22
-57
-51
-52
-43
-19
13
10
18
0
-20
-42
-54
-64
-40
-19
3
-8
-9
-19
-45
-68
-82
-79
-76
-49
-27
-26
-27
-44
-65
-95
-95
-93
-82
-62
-48
-40
-38
-53
-80
-101
-114
-104
-78
-50
-41
-38
-33
-52
-81
-104
-110
-105
-83
-59
-44
-39
-44
-54
-83
-96
-94
-97
-77
-56
-45
-39
-47
-56
-89
-104
-111
-89
-60
-51
-43
-37
-46
-66
-89
-95
-105
-102
-81
-52
-35
-27
-50
-65
-94
-104
-103
-85
-78
-57
-30
-32
-45
-68
-95
-103
-99
-93
-72
-41
-37
-25
-36
-65
-93
-105
-100
-86
-70
-39
-41
-38
-41
-68
-92
-104
-103
-84
-72
-45
-36
-23
-48
-67
-93
-104
-98
-91
-67
-47
-39
-30
-44
-81
-90
-99
-103
-88
-71
-43
-34
-33
-35
-66
-96
-113
-103
-95
-64
-37
-30
-38
-57
-72
-97
-101
-97
-83
-67
-33
-32
-35
-58
-78
-93
-91
-96
-91
-70
-47
-41
-39
-54
-80
-99
-101
-96
-87
-55
-30
-42
-44
-68
-73
-91
-103
-91
-87
-61
-47
-32
-39
-52
-77
-96
-105
-95
-84
-55
-45
-47
-41
-55
-86
-103
-111
-93
-79
-54
-33
-31
-46
-54
-84
-90
-105
-101
-82
-47
-32
-36
-40
-62
-83
-105
-101
-87
-72
-57
-34
-25
-45
-52
-87
-102
-100
-93
-70
-36
-32
-27
-38
-54
-83
-92
-85
-93
-74
-36
-29
-29
-44
-63
-95
-98
-106
-90
-73
-51
-43
-32
-51
-67
-88
-106
-104
-85
-67
-37
-25
-33
-47
-70
-97
-99
-97
-96
-72
-38
-37
-36
-52
-68
-99
-100
-98
-92
-62
-37
-24
-3
-15
-24
-28
-19
-11
19
49
63
55
39
5
-34
-73
-104
-111
-112
-93
-98
-85
-82
-99
-121
-136
-135
-125
-119
-82
-50
-50
-50
-61
-90
-107
-106
-95
-80
-46
-31
-17
-35
-52
-78
-93
-94
-92
-81
-42
-33
-35
-35
-42
-82
-93
-87
-83
-70
-40
-25
-23
-33
-41
-73
-87
-105
-78
-67
-46
-32
-13
-24
-44
-71
-79
-91
-88
-65
-22
-17
-14
-30
-49
-72
-70
-74
-69
-57
-17
-14
-16
-18
-23
-58
-76
-75
-63
-45
-9
5
7
-4
-35
-55
-61
-52
-53
-30
-2
5
15
-8
-12
-38
-47
-51
-43
-25
18
14
18
6
-18
-51
-53
-42
-41
-18
5
23
12
-2
-27
-58
-54
-69
-64
-33
-14
-8
-15
-34
-59
-82
-79
-80
-81
-51
-27
-33
-29
-57
-73
-94
-89
-95
-91
-59
-38
-34
-38
-49
-67
-99
-106
-97
-83
-62
-42
-37
-39
-47
-73
-91
-107
-102
-92
-54
-30
-34
-36
-51
-85
-96
-103
-87
-82
-54
-30
-19
-38
-55
-78
-95
-101
-89
-81
-46
-41
-37
-44
-54
-84
-88
-95
-99
-73
-51
-28
-33
-34
-54
-79
-88
-102
-95
-79
-42
-34
-19
-33
-58
-87
-96
-97
-84
-68
-38
-28
-32
-47
-60
-87
-95
-103
-93
-69
-41
-40
-31
-38
-55
-90
-101
-95
-88
-60
-48
-38
-33
-38
-61
-92
-95
-99
-83
-63
-33
-19
-35
-60
-60
-87
-93
-95
-86
-63
-34
-29
-38
-42
-59
-85
-104
-111
-87
-68
-41
-30
-26
-39
-71
-104
-99
-99
-83
-59
-36
-29
-36
-46
-66
-89
-96
-91
-83
-55
-38
-35
-35
-43
-67
-93
-98
-97
-77
-56
-34
-39
-38
-51
-71
-86
-95
-100
-81
-48
-35
-32
-32
-59
-76
-91
-89
-92
-71
-40
-42
-39
-36
-45
-70
-97
-106
-93
-73
-46
-27
-32
-27
-52
-92
-95
-102
-89
-73
-49
-31
-22
-33
-47
-76
-92
-94
-88
-69
-38
-34
-22
-31
-52
-76
-95
-95
-82
-67
-30
-13
-17
-23
-44
-69
-88
-102
-90
-69
-47
-28
-33
-44
-51
-81
-97
-95
-89
-68
-42
-26
-30
-32
-61
-86
-85
-77
-95
-74
-41
-29
-36
-46
-60
-85
-91
-92
-83
-65
-41
-33
-28
-42
-51
-93
-98
-90
-67
-35
1
21
31
33
30
11
14
19
2
0
24
11
-1
-44
-89
-111
-130
-151
-135
-95
-76
-77
-79
-83
-94
-133
-118
-106
-94
-64
-43
-35
-33
-44
-70
-96
-92
-84
-75
-50
-33
-29
-30
-32
-63
-88
-93
-88
-63
-35
-21
-19
-27
-41
-78
-80
-87
-84
-61
-36
-30
-18
-20
-32
-73
-73
-79
-78
-62
-37
-22
-20
-21
-30
-65
-81
-82
-79
-50
-26
-19
-6
-19
-39
-64
-70
-69
-60
-45
-22
-3
4
-6
-22
-59
-68
-61
-60
-44
-6
5
15
-3
-15
-36
-54
-55
-39
-10
17
17
6
9
-3
-41
-48
-55
-24
-10
11
21
22
13
-2
-38
-48
-46
-36
-19
8
11
15
-17
-26
-57
-69
-69
-53
-47
-24
-16
-13
-20
-53
-78
-81
-87
-79
-53
-31
-20
-28
-41
-61
-97
-91
-89
-75
-72
-35
-27
-16
-44
-64
-90
-103
-101
-78
-45
-33
-25
-29
-45
-72
-91
-98
-94
-73
-51
-27
-32
-31
-42
-71
-94
-92
-88
-79
-46
-25
-19
-36
-45
-76
-89
-90
-94
-68
-51
-35
-27
-33
-49
-71
-80
-89
-97
-82
-39
-33
-19
-22
-39
-72
-90
-95
-86
-73
-38
-32
-23
-33
-44
-77
-87
-92
-83
-62
-38
-31
-23
-35
-55
-85
-85
-92
-82
-73
-39
-27
-23
-41
-58
-74
-91
-98
-85
-62
-39
-32
-25
-38
-52
-75
-95
-82
-82
-70
-46
-23
-23
-42
-46
-88
-99
-88
-74
-62
-34
-33
-27
-34
-53
-85
-93
-101
-84
-61
-41
-32
-25
-33
-52
-85
-96
-91
-73
-63
-35
-29
-27
-37
-59
-95
-94
-88
-71
-59
-38
-37
-23
-30
-56
-80
-97
-91
-75
-55
-46
-34
-30
-47
-75
-89
-101
-91
-72
-48
-28
-25
-25
-37
-64
-82
-88
-93
-79
-50
-25
-20
-28
-41
-70
-86
-85
-85
-67
-45
-32
-24
-27
-42
-66
-81
-89
-82
-63
-38
-22
-13
-19
-33
-70
-92
-83
-73
-70
-44
-35
-33
-36
-63
-89
-87
-103
-82
-67
-34
-33
-25
-30
-42
-74
-84
-90
-84
-73
-37
-29
-23
-30
-52
-78
-96
-95
-78
-62
-36
-28
-21
-27
-41
-76
-85
-84
-49
-17
26
37
57
57
58
29
13
-2
-17
-22
5
-13
-27
-48
-87
-137
-136
-139
-131
-107
-79
-74
-61
-70
-85
-109
-112
-111
-96
-69
-30
-19
-19
-29
-59
-86
-89
-82
-69
-51
-24
-11
-12
-41
-60
-77
-74
-78
-61
-35
-17
-16
-25
-26
-54
-73
-76
-83
-75
-37
-18
-18
-17
-28
-43
-80
-83
-76
-60
-38
-23
-11
-11
-23
-48
-72
-76
-72
-54
-21
-14
-1
-7
-27
-49
-65
-71
-61
-37
-12
3
2
-4
-13
-46
-58
-49
-38
-39
-5
-2
12
5
-4
-32
-43
-47
-37
-25
13
26
20
21
4
-27
-34
-41
-33
-18
14
35
34
29
-1
-34
-43
-42
-40
-23
-1
1
-1
-9
-16
-43
-63
-81
-59
-39
-29
-30
-20
-25
-47
-68
-91
-86
-74
-60
-34
-30
-27
-34
-50
-89
-93
-85
-82
-68
-40
-27
-21
-31
-53
-84
-89
-95
-79
-58
-32
-30
-26
-38
-53
-84
-94
-93
-78
-55
-37
-26
-25
-40
-65
-82
-90
-92
-83
-63
-37
-21
-28
-48
-70
-68
-90
-91
-76
-61
-49
-23
-40
-44
-60
-88
-87
-89
-81
-54
-29
-23
-22
-33
-66
-84
-99
-92
-68
-44
-31
-27
-31
-43
-63
-86
-93
-83
-69
-44
-26
-29
-35
-45
-71
-89
-87
-78
-71
-48
-34
-19
-36
-59
-75
-86
-94
-90
-75
-50
-25
-17
-38
-53
-78
-89
-91
-86
-79
-42
-42
-29
-34
-48
-76
-89
-93
-83
-80
-32
-26
-35
-32
-49
-76
-91
-88
-82
-57
-35
-29
-29
-31
-47
-80
-93
-98
-90
-67
-32
-30
-33
-45
-52
-75
-100
-100
-75
-61
-39
-19
-30
-38
-58
-85
-89
-100
-86
-54
-30
-25
-27
-37
-57
-91
-91
-92
-79
-56
-28
-20
-21
-31
-54
-83
-97
-94
-79
-56
-30
-24
-23
-37
-61
-83
-85
-92
-82
-54
-18
-18
-30
-41
-56
-86
-84
-88
-73
-51
-36
-16
-21
-35
-65
-84
-86
-92
-77
-52
-31
-30
-28
-37
-65
-84
-86
-85
-78
-52
-33
-25
-21
-49
-72
-89
-101
-89
-74
-43
-35
-23
-43
-49
-62
-90
-98
-89
-71
-46
-27
-12
-26
-39
-57
-60
-55
-25
-2
35
61
83
80
47
6
-30
-46
-54
-50
-53
-57
-69
-89
-95
-130
-149
-140
-134
-114
-78
-45
-42
-54
-65
-99
-105
-94
-82
-66
-42
-30
-26
-28
-55
-75
-87
-89
-82
-61
-34
-21
-19
-31
-37
-75
-85
-95
-67
-59
-27
-19
-17
-25
-50
-82
-92
-87
-73
-50
-16
-10
-20
-32
-54
-71
-91
-79
-67
-52
-21
-12
-5
-24
-44
-64
-82
-75
-58
-43
-14
-1
-7
-22
-40
-59
-69
-66
-53
-23
3
9
6
-8
-34
-60
-60
-59
-37
-16
9
16
9
2
-25
-50
-49
-31
-22
-3
11
23
23
4
-20
-46
-46
-43
-29
12
10
17
17
-8
-18
-48
-60
-43
-38
-1
-1
-5
-10
-30
-62
-76
-80
-71
-68
-33
-10
-20
-36
-46
-76
-88
-83
-92
-73
-40
-31
-27
-28
-48
-80
-89
-99
-92
-69
-47
-31
-29
-31
-57
-89
-94
-96
-84
-63
-39
-30
-30
-43
-61
-87
-98
-96
-86
-62
-35
-30
-30
-39
-56
-79
-96
-96
-81
-63
-43
-31
-24
-39
-51
-80
-93
-94
-85
-78
-29
-27
-16
-37
-61
-95
-93
-88
-75
-60
-40
-31
-25
-35
-64
-86
-90
-99
-80
-56
-41
-25
-29
-40
-50
-83
-95
-87
-80
-53
-29
-27
-29
-43
-71
-84
-91
-91
-72
-58
-41
-25
-30
-45
-67
-88
-96
-91
-78
-47
-24
-12
-32
-46
-72
-99
-91
-91
-67
-45
-33
-27
-38
-43
-74
-86
-95
-93
-88
-46
-28
-30
-32
-51
-84
-86
-87
-83
-74
-34
-31
-39
-32
-59
-79
-96
-99
-85
-65
-52
-35
-28
-31
-49
-79
-92
-94
-84
-66
-35
-34
-25
-27
-43
-89
-96
-93
-77
-80
-44
-24
-34
-31
-51
-79
-90
-98
-86
-61
-26
-23
-18
-43
-63
-82
-91
-92
-83
-62
-35
-31
-31
-50
-56
-86
-95
-94
-87
-69
-39
-25
-28
-34
-60
-94
-88
-78
-80
-71
-30
-21
-26
-40
-60
-85
-83
-82
-66
-48
-31
-20
-19
-45
-64
-82
-88
-90
-73
-40
-16
-11
-25
-38
-66
-86
-88
-90
-83
-51
-29
-32
-27
-46
-63
-92
-91
-88
-82
-58
-32
-26
-26
-42
-69
-84
-87
-82
-71
-55
-40
-19
-26
-35
-69
-93
-95
-98
-76
-39
-24
-28
-31
-51
-78
-86
-90
-84
-54
-19
13
32
39
37
12
12
14
15
13
24
13
19
-6
-46
-91
-122
-141
-151
-125
-80
-75
-72
-77
-92
-112
-120
-110
-97
-82
-48
-38
-37
-34
-42
-77
-94
-91
-80
-63
-36
-29
-22
-37
-48
-68
-78
-82
-72
-61
-34
-26
-27
-33
-45
-64
-71
-86
-70
-61
-18
-9
-11
-26
-39
-71
-92
-90
-57
-42
-12
-17
-20
-30
-43
-70
-68
-76
-64
-49
-20
-8
-6
-17
-40
-68
-81
-74
-52
-25
-1
-1
2
-12
-37
-58
-63
-57
-42
-22
-5
3
4
-7
-29
-45
-49
-37
-27
-15
10
15
23
9
-20
-54
-49
-33
-19
7
22
23
24
13
-26
-44
-39
-32
-32
-7
9
9
-2
-13
-36
-65
-67
-67
-49
-22
-17
-8
-14
-27
-64
-80
-87
-82
-60
-40
-27
-26
-35
-41
-76
-83
-90
-80
-71
-43
-27
-19
-26
-45
-81
-91
-84
-83
-75
-47
-34
-18
-26
-41
-96
-101
-88
-90
-68
-33
-36
-29
-30
-46
-83
-95
-95
-78
-67
-34
-27
-19
-49
-57
-73
-89
-100
-82
-67
-28
-27
-22
-30
-43
-73
-82
-90
-75
-64
-30
-14
-23
-35
-55
-80
-86
-88
-71
-51
-28
-32
-32
-39
-53
-82
-93
-87
-77
-57
-31
-15
-29
-44
-69
-90
-91
-78
-62
-60
-31
2
-10
-50
-79
-82
-87
-91
-81
-52
-28
-25
-25
-27
-53
-89
-93
-89
-74
-49
-30
-26
-26
-37
-62
-92
-97
-86
-75
-46
-27
-18
-30
-40
-61
-79
-97
-83
-67
-54
-24
-15
-21
-40
-65
-86
-90
-83
-69
-35
-27
-29
-34
-46
-61
-88
-92
-83
-61
-36
-40
-21
-30
-50
-71
-83
-91
-85
-71
-34
-33
-18
-25
-53
-69
-87
-96
-86
-57
-32
-16
-18
-32
-40
-74
-82
-89
-84
-59
-29
-30
-27
-28
-51
-72
-92
-86
-80
-59
-28
-25
-24
-27
-54
-71
-85
-90
-78
-64
-21
-13
-26
-31
-45
-78
-70
-88
-75
-53
-32
-22
-22
-26
-56
-76
-96
-90
-77
-51
-31
-24
-24
-41
-49
-68
-70
-86
-68
-55
-27
-15
-15
-37
-58
-82
-98
-86
-64
-35
-21
-15
-2
-29
-61
-77
-84
-77
-59
-37
-25
-9
-12
-24
-53
-75
-79
-66
-59
-36
-22
-11
-17
-29
-57
-84
-85
-80
-70
-30
-31
-18
-18
-36
-63
-79
-81
-77
-70
-37
-17
-17
-12
-31
-65
-86
-79
-72
-58
-39
-20
-15
-19
-35
-65
-79
-87
-78
-50
-24
-10
-20
-23
-40
-62
-62
-54
-34
7
42
61
75
76
79
33
-9
-20
-24
-22
-21
-16
-28
-60
-88
-121
-126
-127
-120
-89
-64
-45
-39
-40
-55
-88
-92
-86
-72
-60
-27
-17
-13
-26
-31
-62
-71
-68
-61
-44
-19
0
-9
-6
-33
-65
-73
-73
-62
-44
-8
2
8
-10
-37
-55
-78
-72
-49
-37
-6
-7
-10
-9
-28
-48
-61
-71
-52
-27
-1
2
11
-4
-38
-48
-59
-53
-40
-14
5
6
8
-5
-25
-46
-55
-53
-28
2
17
13
16
-3
-7
-25
-40
-40
-25
3
23
32
28
15
-6
-17
-24
-19
-11
21
33
54
46
22
-9
-26
-26
-6
-4
18
36
46
33
18
-1
-21
-24
-26
-10
22
27
23
13
1
-30
-46
-52
-47
-27
-8
6
16
6
-16
-45
-54
-65
-56
-41
-5
-3
-8
-14
-25
-52
-70
-70
-56
-36
-17
-16
-12
-16
-32
-57
-62
-70
-68
-49
-18
-7
-10
-13
-22
-59
-67
-73
-57
-43
-14
-1
3
-11
-30
-61
-60
-61
-51
-42
-8
2
0
-16
-23
-52
-56
-54
-52
-37
-20
-4
0
-9
-36
-54
-61
-59
-57
-22
9
-3
7
-4
-29
-48
-55
-54
-52
-21
4
1
-1
-14
-23
-53
-72
-74
-48
-24
7
14
3
-16
-25
-59
-71
-52
-36
-12
2
3
-1
-6
-37
-60
-62
-53
-37
-15
-7
5
11
-1
-50
-63
-63
-45
-28
-17
1
10
3
-9
-45
-54
-57
-49
-43
-22
-6
11
5
-13
-39
-58
-61
-53
-40
-16
6
12
12
-18
-40
-61
-63
-46
-36
0
5
10
-5
-19
-48
-57
-60
-53
-40
-2
9
7
-1
-22
-59
-56
-55
-41
-27
3
6
11
-11
-18
-34
-59
-64
-45
-33
-4
15
11
2
-22
-39
-47
-60
-46
-26
0
6
20
5
-23
-56
-53
-58
-49
-29
1
4
9
-2
-18
-45
-60
-50
-46
-23
-4
12
10
-6
-26
-48
-61
-54
-34
-14
11
13
13
3
-25
-54
-51
-62
-34
-27
16
18
15
-8
-27
-44
-56
-49
-26
8
5
24
21
4
-25
-47
-47
-51
-41
-10
11
17
11
-4
-30
-47
-50
-49
-31
-3
8
12
-1
2
-33
-52
-61
-53
-32
-9
6
5
6
-10
-43
-67
-46
-31
-28
3
13
16
9
-11
-28
-51
-64
-53
-30
14
36
55
61
55
34
39
55
56
77
97
86
71
42
24
-30
-57
-85
-94
-73
-44
-38
-29
-39
-54
-75
-85
-82
-64
-40
-7
8
5
3
-8
-47
-53
-52
-32
-11
-4
16
24
4
-10
-40
-47
-46
-28
-4
17
14
27
13
-20
-45
-38
-40
-22
2
16
23
24
7
-11
-31
-39
-36
-27
-6
21
26
24
19
-8
-30
-31
-34
-19
7
29
35
34
15
-5
-33
-36
-24
-14
6
20
42
34
27
4
-20
-27
-24
-14
30
52
48
44
34
9
-6
-13
-6
8
36
57
58
57
40
17
5
5
12
20
42
53
70
67
43
18
-1
-1
3
20
48
60
58
53
35
-1
-29
-21
-20
-4
21
41
27
26
13
-28
-42
-51
-46
-27
9
15
4
14
-5
-46
-44
-48
-37
-17
7
15
10
-2
-20
-44
-50
-52
-49
-38
-3
21
12
7
-13
-44
-59
-56
-49
-40
-2
13
10
-8
-18
-42
-54
-53
-51
-27
8
9
14
3
-17
-48
-58
-51
-43
-19
5
11
4
11
-16
-56
-54
-53
-37
-29
1
11
22
6
-29
-41
-48
-49
-31
-9
8
5
4
4
-33
-53
-45
-58
-35
-7
8
10
2
-8
-22
-32
-52
-56
-48
-5
16
13
8
-4
-31
-52
-49
-56
-41
-18
14
16
2
-10
-43
-52
-52
-46
-37
-18
8
22
19
-7
-49
-56
-50
-56
-39
-9
5
20
6
-11
-28
-52
-61
-44
-33
-1
0
10
8
-21
-42
-46
-52
-63
-30
1
7
9
5
-18
-43
-46
-52
-47
-33
-2
10
10
-6
-14
-39
-59
-62
-51
-32
0
7
19
3
-15
-46
-51
-52
-47
-39
-9
-7
0
9
-16
-60
-54
-51
-46
-22
-1
-2
-4
-2
-21
-46
-56
-47
-42
-32
6
13
2
-7
-18
-36
-45
-52
-42
-36
-2
10
7
-4
-28
-52
-60
-55
-41
-23
-1
13
12
-1
-26
-48
-56
-56
-39
-12
12
20
13
0
-16
-44
-52
-48
-43
-15
0
21
-1
-19
-38
-52
-62
-58
-50
-22
7
18
3
-8
-36
-64
-71
-52
-41
-14
6
-5
10
-3
-37
-49
-54
-62
-46
-12
10
4
2
-9
-37
-55
-58
-57
-33
2
5
19
31
16
7
5
13
24
57
103
114
106
82
42
-5
-28
-50
-52
-55
-48
-59
-45
-57
-74
-92
-94
-88
-81
-67
-30
-13
-10
-13
-32
-56
-55
-61
-52
-30
-2
11
5
3
-14
-43
-52
-51
-46
-37
-1
7
18
-4
-23
-52
-54
-56
-48
-22
5
14
8
3
-28
-43
-52
-59
-38
-22
1
12
19
3
-19
-43
-51
-58
-40
-7
20
16
-2
-7
-14
-31
-42
-50
-39
-10
12
24
15
3
-6
-32
-42
-47
-33
5
26
26
30
21
-4
-27
-28
-32
-18
18
28
39
43
26
7
-14
-25
-23
-12
29
45
48
41
26
2
-10
-19
-23
2
32
39
31
32
11
-22
-32
-28
-29
-26
14
24
29
18
-5
-43
-56
-63
-55
-39
-11
-4
3
-6
-24
-61
-65
-76
-70
-49
-19
-2
0
-13
-38
-61
-70
-78
-69
-51
-19
-18
-11
-19
-22
-56
-77
-75
-60
-46
-15
-22
-11
-13
-33
-66
-74
-72
-57
-51
-28
-16
0
-8
-36
-60
-81
-76
-63
-55
-24
3
1
-26
-49
-68
-70
-69
-57
-44
-11
-13
0
-15
-38
-67
-75
-77
-61
-37
-7
-10
-3
-19
-42
-68
-68
-60
-62
-38
-14
-14
-8
-21
-41
-66
-72
-74
-65
-38
-15
-5
-8
-27
-47
-74
-74
-65
-63
-28
-12
-9
-5
-14
-46
-66
-80
-82
-68
-36
-18
-7
-10
-34
-60
-78
-82
-76
-62
-25
-10
-10
-15
-34
-47
-69
-83
-73
-59
-34
-18
-5
-20
-33
-59
-80
-74
-63
-53
-30
-9
-9
-15
-34
-55
-72
-75
-71
-48
-15
-18
-40
-25
-34
-57
-73
-85
-72
-60
-32
-15
-9
-19
-37
-59
-72
-76
-73
-59
-30
-16
-9
-12
-38
-68
-81
-79
-66
-56
-26
-10
-14
-29
-35
-64
-71
-71
-76
-55
-30
-8
-13
-34
-39
-52
-70
-74
-72
-58
-26
-13
-7
-26
-38
-68
-82
-92
-66
-51
-21
-15
-12
-23
-47
-78
-79
-76
-73
-48
-22
-18
-16
-24
-51
-75
-78
-79
-72
-46
-14
-9
-6
-21
-45
-72
-69
-84
-67
-38
-6
-18
-6
-17
-51
-75
-73
-65
-56
-46
-22
-19
-16
-28
-56
-77
-75
-74
-65
-42
-17
-28
-30
-28
-52
-73
-85
-83
-62
-39
-15
-18
-13
-30
-58
-81
-82
-78
-63
-40
-26
-12
5
-22
-56
-80
-86
-83
-66
-32
-16
-15
-1
-15
-45
-45
-17
0
22
67
90
94
79
42
0
-26
-43
-56
-64
-46
-71
-67
-64
-86
-107
-128
-116
-118
-100
-56
-39
-35
-45
-57
-72
-85
-84
-80
-55
-19
-14
-10
-25
-48
-72
-81
-86
-59
-55
-16
-18
-15
-18
-31
-64
-72
-72
-67
-47
-15
-3
-7
-20
-35
-70
-66
-74
-53
-39
-20
-4
-2
-4
-29
-63
-70
-79
-60
-41
-11
2
8
-13
-46
-54
-58
-64
-57
-24
-2
3
1
-7
-31
-64
-77
-62
-39
-14
7
16
11
-2
-17
-45
-46
-43
-21
-4
23
25
22
9
-12
-43
-36
-34
-19
13
35
44
28
18
-11
-27
-41
-37
-6
22
28
44
27
11
-22
-51
-34
-44
-26
-1
13
13
2
-16
-50
-61
-64
-66
-50
-25
-20
-14
-11
-29
-57
-87
-85
-74
-57
-33
-16
-13
-21
-41
-68
-77
-87
-80
-63
-33
-15
-12
-25
-35
-66
-93
-100
-86
-55
-36
-19
-13
-22
-41
-90
-78
-79
-82
-53
-28
-13
-13
-30
-50
-72
-85
-91
-73
-56
-24
-19
-25
-37
-53
-77
-86
-83
-75
-55
-22
-14
-13
-14
-47
-77
-84
-85
-73
-56
-32
-12
-12
-38
-53
-56
-79
-93
-61
-44
-24
-17
-20
-31
-59
-72
-85
-70
-68
-46
-31
-27
-17
-28
-52
-76
-86
-79
-74
-45
-26
-16
-13
-36
-51
-77
-88
-79
-66
-42
-27
-20
-22
-51
-62
-78
-81
-79
-58
-45
-30
-15
-17
-34
-63
-84
-88
-78
-54
-33
-21
-27
-28
-36
-62
-82
-84
-82
-64
-30
-21
-22
-40
-38
-59
-82
-89
-69
-73
-33
-19
-21
-32
-46
-71
-78
-88
-77
-64
-37
-21
-21
-22
-39
-73
-81
-84
-70
-59
-25
-20
-28
-33
-42
-77
-79
-81
-74
-51
-28
-6
-16
-35
-47
-72
-86
-97
-76
-51
-26
-30
-27
-41
-45
-70
-86
-94
-66
-54
-34
-30
-24
-34
-47
-70
-86
-86
-72
-52
-22
-16
-16
-29
-49
-83
-80
-86
-77
-63
-26
-7
-18
-31
-46
-84
-95
-88
-68
-46
-25
-15
-22
-27
-60
-82
-80
-91
-77
-49
-16
-9
-26
-29
-42
-76
-85
-75
-66
-41
-18
-9
-11
-22
-47
-77
-83
-80
-63
-38
-23
-20
-25
-41
-65
-81
-84
-91
-64
-34
-22
-18
-27
-36
-65
-83
-97
-90
-62
-28
-20
-26
-19
-30
-76
-84
-77
-80
-65
-43
-21
-15
-27
-37
-67
-81
-88
-78
-56
-21
0
1
26
16
-4
1
11
31
51
74
64
53
25
-12
-64
-87
-103
-113
-110
-82
-69
-70
-67
-92
-105
-119
-104
-103
-83
-41
-36
-22
-33
-47
-69
-87
-94
-70
-54
-33
-23
-23
-25
-43
-65
-72
-70
-61
-52
-19
-15
-15
-28
-44
-70
-76
-71
-64
-46
-14
-13
-14
-19
-41
-67
-69
-74
-51
-30
-14
-10
-8
-14
-40
-65
-70
-66
-58
-37
-12
-3
-6
-17
-40
-65
-61
-68
-51
-22
-7
6
4
-5
-35
-52
-57
-68
-42
-8
12
7
6
4
-23
-42
-42
-49
-44
-14
25
32
20
4
-22
-36
-30
-26
-22
6
23
32
35
8
-19
-36
-33
-35
-17
18
30
29
17
-1
-34
-43
-45
-44
-39
-19
-3
-6
-6
-21
-58
-75
-80
-71
-52
-24
-12
-10
-19
-58
-70
-70
-87
-77
-66
-36
-17
-13
-32
-41
-69
-87
-98
-86
-50
-28
-23
-20
-31
-43
-79
-85
-99
-75
-60
-25
-20
-13
-29
-49
-79
-88
-84
-69
-51
-31
-26
-19
-31
-40
-72
-87
-96
-67
-48
-21
-16
-24
-29
-59
-83
-74
-75
-66
-48
-29
-31
-27
-13
-47
-74
-70
-74
-72
-60
-19
-12
-21
-28
-52
-75
-82
-77
-66
-46
-22
-20
-27
-42
-54
-77
-83
-71
-68
-41
-19
-16
-22
-39
-54
-75
-80
-80
-71
-41
-28
-19
-26
-35
-53
-85
-88
-80
-57
-41
-24
-19
-22
-33
-57
-93
-79
-73
-57
-41
-20
-12
-21
-38
-60
-82
-79
-75
-67
-37
-26
-19
-24
-40
-69
-81
-88
-81
-62
-35
-19
-14
-24
-45
-72
-82
-76
-72
-68
-30
-20
-14
-27
-31
-78
-96
-81
-76
-53
-20
-12
-15
-30
-49
-74
-86
-81
-75
-54
-33
-21
-18
-23
-45
-63
-75
-86
-72
-52
-21
-27
-17
-28
-45
-70
-75
-86
-67
-56
-24
-23
-14
-22
-51
-75
-81
-80
-66
-49
-28
-21
-13
-30
-48
-87
-93
-80
-77
-42
-18
-27
-15
-26
-52
-74
-88
-73
-63
-46
-21
-17
-18
-33
-46
-74
-81
-77
-66
-39
-9
-5
-10
-23
-46
-69
-78
-81
-67
-34
-6
-7
-24
-39
-62
-79
-71
-64
-58
-38
-27
-24
-12
-30
-73
-88
-82
-70
-61
-37
-24
-11
-12
-30
-58
-77
-90
-82
-68
-33
-22
-6
-12
-28
-66
-83
-90
-75
-62
-35
-17
-13
-17
-38
-64
-78
-72
-68
-50
-4
13
29
32
23
16
16
20
38
48
57
38
26
0
-26
-78
-106
-118
-119
-100
-71
-66
-65
-73
-82
-109
-109
-102
-89
-66
-36
-20
-13
-26
-42
-66
-79
-93
-69
-55
-18
-3
-1
-22
-38
-68
-73
-77
-62
-39
-15
-3
-10
-17
-41
-70
-66
-77
-62
-44
-18
-1
-9
-15
-45
-71
-77
-68
-57
-34
-7
-4
-7
-10
-32
-60
-73
-70
-59
-22
3
8
10
-15
-35
-52
-60
-55
-49
-20
2
8
3
-4
-25
-53
-52
-41
-33
-7
10
17
15
0
-25
-38
-43
-36
-21
5
28
36
30
13
-12
-28
-30
-29
-12
21
27
34
29
21
-11
-21
-29
-32
-13
14
29
31
17
2
-32
-58
-54
-40
-24
-2
0
8
-6
-26
-45
-70
-79
-67
-57
-31
-13
-11
-16
-27
-62
-75
-85
-76
-54
-19
-13
-17
-31
-29
-62
-74
-92
-72
-53
-17
-19
-18
-27
-35
-77
-79
-89
-76
-51
-18
-16
-14
-31
-40
-67
-77
-80
-70
-45
-17
-21
-17
-23
-42
-83
-89
-89
-69
-54
-36
-22
-7
-22
-43
-69
-65
-75
-62
-40
-14
-13
-5
-35
-56
-66
-76
-68
-62
-36
-18
-8
-12
-32
-54
-71
-70
-65
-56
-49
-21
-5
-12
-27
-56
-80
-72
-74
-57
-37
-18
-13
-13
-32
-53
-68
-81
-78
-61
-30
-20
-19
-10
-28
-65
-76
-91
-69
-59
-32
-12
-4
-25
-41
-58
-73
-69
-66
-59
-40
-22
-8
-14
-32
-63
-74
-80
-70
-58
-30
-22
-5
-25
-34
-57
-76
-80
-70
-64
-35
-22
-3
-22
-40
-67
-69
-83
-69
-57
-33
-21
-9
-23
-35
-65
-77
-80
-73
-56
-29
-13
-4
-24
-39
-65
-77
-77
-75
-54
-27
-16
-1
-22
-43
-74
-80
-80
-58
-42
-29
-20
-7
-18
-43
-87
-84
-89
-72
-50
-12
0
-18
-32
-44
-74
-83
-80
-66
-55
-24
-4
-8
-16
-44
-76
-85
-76
-68
-50
-20
-12
-9
-22
-50
-71
-71
-75
-70
-45
-20
-10
-4
-23
-49
-79
-76
-76
-60
-29
-9
-13
-11
-27
-47
-67
-72
-57
-48
-38
-10
-16
-16
-22
-56
-84
-78
-77
-58
-25
-13
-17
-21
-35
-56
-68
-73
-84
-65
-30
-15
-10
-14
-30
-58
-78
-77
-77
-53
-32
-22
0
-17
-33
-69
-82
-79
-61
-53
-28
-15
-11
-20
-43
-57
-66
-68
-45
-18
26
59
58
65
70
38
23
5
-4
0
20
9
-11
-24
-73
-108
-132
-134
-115
-95
-61
-55
-58
-57
-61
-99
-90
-88
-77
-56
-28
-16
-13
-22
-39
-70
-74
-75
-66
-41
-13
-1
-4
-20
-30
-60
-74
-76
-57
-37
-13
0
5
-34
-49
-55
-68
-71
-53
-34
-14
-5
-9
-14
-32
-65
-65
-66
-56
-38
-9
2
0
-15
-35
-54
-54
-60
-53
-25
4
8
3
-10
-30
-47
-53
-43
-36
-12
10
11
13
-4
-32
-39
-45
-41
-23
3
21
24
13
7
-12
-22
-42
-27
-18
15
33
35
27
15
-12
-23
-26
-20
-2
27
29
40
37
18
-10
-30
-36
-34
-20
15
28
31
7
-11
-17
-35
-57
-52
-44
-13
-2
-2
-6
-22
-54
-69
-73
-55
-47
-27
-21
-15
-18
-33
-63
-77
-82
-73
-49
-25
-15
-11
-20
-43
-78
-83
-81
-68
-55
-20
-16
-10
-14
-40
-71
-87
-87
-69
-50
-28
-16
-1
-20
-43
-77
-81
-79
-69
-47
-16
-14
-24
-24
-43
-74
-89
-82
-70
-41
-11
-9
2
-32
-46
-70
-80
-78
-65
-41
-13
-9
-20
-26
-45
-71
-79
-75
-69
-38
-13
-11
-16
-27
-53
-61
-75
-73
-61
-41
-14
-7
-15
-24
-57
-63
-79
-72
-64
-37
-11
-12
-16
-35
-61
-73
-82
-83
-66
-35
-13
-1
-14
-26
-55
-71
-91
-77
-51
-32
-27
-19
-17
-23
-51
-76
-80
-77
-59
-40
-25
-8
-24
-30
-51
-77
-78
-77
-62
-28
-15
-17
-23
-29
-68
-76
-88
-76
-58
-27
-15
-9
-20
-39
-57
-85
-84
-73
-50
-28
-17
-12
-18
-45
-68
-77
-82
-75
-62
-27
-12
-12
-23
-38
-73
-85
-79
-72
-53
-22
-9
-13
-27
-38
-78
-78
-73
-70
-48
-24
-19
-20
-27
-36
-68
-91
-88
-69
-49
-28
-24
-9
-30
-52
-74
-76
-72
-64
-54
-28
-14
-20
-28
-38
-73
-77
-68
-62
-45
-22
-27
-6
-24
-53
-76
-74
-84
-68
-40
-19
-8
-19
-27
-52
-72
-83
-77
-62
-38
-21
-12
-12
-29
-48
-60
-84
-72
-52
-30
-10
3
-11
-26
-54
-72
-69
-83
-66
-34
-20
-9
-24
-36
-54
-76
-65
-72
-59
-30
-18
-16
-24
-35
-56
-82
-87
-67
-64
-28
-6
-22
-12
-32
-54
-75
-73
-73
-57
-38
-16
-17
-22
-29
-60
-70
-64
-42
-21
18
47
65
61
64
48
31
4
-6
7
13
12
0
-42
-66
-116
-130
-131
-126
-110
-66
-57
-55
-59
-64
-91
-91
-98
-78
-54
-24
-19
-10
-19
-41
-71
-74
-78
-61
-45
-21
1
-6
-22
-38
-75
-70
-62
-58
-38
-11
-15
-11
-15
-38
-64
-64
-62
-52
-33
-7
-7
-8
-24
-47
-65
-70
-60
-51
-29
-11
0
6
-19
-37
-58
-62
-59
-41
-16
1
3
0
-10
-38
-53
-62
-54
-40
-10
3
16
15
-3
-32
-48
-44
-39
-37
1
20
21
13
8
-16
-25
-40
-31
-17
10
37
36
30
15
-11
-24
-24
-29
-9
17
25
34
39
32
-5
-26
-42
-27
-14
11
32
23
10
-7
-31
-49
-59
-54
-48
-17
-1
-1
-8
-29
-55
-69
-82
-71
-49
-24
-10
-7
-21
-41
-55
-74
-87
-74
-55
-27
-23
-10
-26
-53
-81
-88
-77
-70
-40
-21
-21
-11
-27
-27
-66
-87
-86
-66
-46
-25
-16
-7
-28
-56
-71
-80
-86
-73
-51
-26
-20
-11
-23
-61
-70
-86
-97
-68
-47
-19
-18
-9
-25
-45
-67
-78
-75
-66
-58
-20
-8
-12
-32
-51
-75
-85
-78
-62
-45
-22
-2
-18
-30
-54
-79
-75
-80
-65
-36
-15
-9
-10
-35
-56
-72
-76
-83
-67
-37
-20
-17
-20
-33
-59
-84
-84
-76
-64
-31
-25
-20
-17
-31
-67
-74
-76
-79
-69
-30
-13
-7
-18
-35
-63
-85
-80
-72
-58
-37
-10
-19
-21
-33
-63
-73
-74
-70
-63
-37
-14
-13
-22
-43
-79
-68
-73
-73
-62
-34
-25
-21
-37
-27
-64
-89
-84
-79
-62
-31
-13
-17
-18
-37
-67
-76
-85
-78
-65
-22
-13
-13
-23
-51
-81
-91
-85
-58
-42
-20
-20
-9
-27
-36
-73
-83
-82
-73
-57
-30
-20
-15
-28
-43
-61
-81
-89
-81
-43
-12
-12
-12
-25
-51
-70
-82
-85
-77
-54
-18
-5
-10
-28
-58
-77
-85
-76
-68
-41
-14
-8
-8
-24
-57
-82
-79
-72
-63
-40
-14
-7
-12
-25
-50
-74
-66
-67
-60
-34
-16
-13
-14
-30
-55
-76
-80
-84
-65
-50
-28
-16
-13
-33
-59
-89
-87
-80
-59
-42
-24
-6
-4
-41
-60
-76
-83
-67
-56
-37
-21
-16
-22
-39
-60
-77
-76
-69
-58
-26
-13
8
7
1
-21
-18
-9
3
40
82
92
88
54
18
-27
-50
-72
-91
-82
-69
-63
-56
-77
-92
-120
-119
-114
-110
-89
-46
-27
-31
-31
-42
-69
-83
-93
-72
-49
-21
-17
-9
-12
-30
-63
-76
-74
-65
-48
-16
-8
-3
-14
-32
-63
-78
-75
-68
-44
-3
-1
-1
-16
-39
-73
-74
-56
-50
-35
-11
2
-1
-15
-33
-68
-66
-55
-51
-27
1
-9
-6
-16
-30
-67
-55
-62
-50
-26
-1
10
10
-6
-30
-50
-58
-60
-43
-15
13
21
19
1
-20
-40
-44
-40
-26
7
33
26
33
14
-14
-38
-38
-31
-14
24
34
32
31
18
-10
-35
-36
-22
-12
17
22
33
34
8
-32
-31
-34
-48
-22
5
12
15
1
-21
-53
-58
-73
-69
-47
-20
-15
-3
-13
-32
-65
-80
-82
-69
-56
-30
-20
-7
-23
-38
-58
-77
-83
-68
-54
-28
-25
-13
-25
-36
-63
-71
-94
-86
-49
-26
-10
-16
-29
-47
-74
-79
-84
-69
-53
-27
-23
-20
-27
-38
-79
-72
-78
-71
-58
-23
-19
-16
-23
-43
-76
-84
-83
-62
-43
-31
-27
-14
-31
-48
-76
-67
-66
-69
-43
-21
-8
-11
-38
-59
-81
-83
-85
-72
-48
-10
-14
-10
-25
-51
-73
-88
-87
-71
-48
-24
-11
-14
-28
-56
-76
-82
-85
-73
-34
-25
-17
-11
-26
-62
-77
-73
-76
-60
-40
-21
-20
-25
-42
-58
-72
-75
-67
-60
-43
-33
-14
-22
-31
-63
-92
-92
-72
-59
-26
-15
-20
-33
-45
-50
-75
-83
-73
-63
-29
-23
-21
-24
-36
-73
-86
-94
-79
-51
-40
-14
-11
-21
-34
-75
-84
-84
-75
-58
-32
-19
-10
-23
-50
-76
-83
-87
-76
-55
-24
-15
-11
-19
-39
-75
-81
-77
-74
-58
-44
-14
-16
-34
-41
-79
-88
-78
-70
-58
-19
-10
-20
-32
-52
-77
-88
-98
-73
-44
-32
-15
-18
-27
-44
-77
-83
-87
-69
-52
-22
-13
-20
-32
-50
-75
-86
-74
-59
-64
-23
-17
-26
-38
-57
-63
-84
-83
-73
-46
-21
-14
-15
-23
-44
-75
-82
-76
-60
-38
-18
-17
-22
-27
-54
-81
-83
-81
-69
-47
-23
-19
-21
-35
-59
-78
-85
-82
-65
-40
-29
-29
-26
-23
-62
-74
-81
-83
-67
-40
-23
-16
-24
-37
-60
-81
-79
-73
-67
-47
-29
-8
-22
-48
-62
-65
-55
-36
-24
31
61
80
89
73
26
-5
-26
-41
-28
-17
-22
-49
-72
-96
-126
-126
-127
-123
-98
-69
-57
-50
-51
-63
-87
-95
-99
-81
-57
-29
-27
-8
-22
-45
-68
-96
-88
-68
-60
-25
-24
-16
-23
-40
-76
-77
-81
-72
-52
-24
-14
-11
-14
-35
-69
-81
-79
-59
-41
-17
-9
-5
-13
-45
-62
-65
-74
-54
-40
-8
-4
-6
-19
-36
-65
-70
-73
-55
-32
-16
-2
-6
-13
-33
-58
-67
-61
-46
-19
3
-2
3
-7
-25
-48
-53
-50
-35
-11
13
19
18
3
-18
-35
-40
-43
-29
9
41
27
26
13
-7
-29
-39
-35
-22
11
24
49
28
0
-20
-37
-42
-41
-23
8
6
11
-6
-6
-39
-53
-64
-68
-44
-17
-14
-6
-10
-39
-60
-75
-82
-81
-60
-32
-23
-14
-25
-43
-80
-73
-81
-82
-70
-25
-24
-19
-29
-46
-75
-86
-92
-86
-55
-29
-23
-19
-33
-44
-71
-86
-98
-74
-48
-32
-24
-16
-31
-53
-77
-92
-82
-71
-59
-29
-13
-5
-30
-50
-91
-99
-86
-74
-47
-21
-22
-31
-40
-49
-82
-87
-85
-78
-59
-28
-13
-19
-35
-44
-81
-79
-83
-70
-49
-39
-27
-10
-30
-59
-81
-87
-88
-72
-44
-24
-23
-25
-41
-51
-84
-81
-81
-74
-52
-34
-26
-9
-31
-56
-75
-84
-89
-79
-44
-21
-17
-21
-37
-71
-74
-89
-89
-78
-40
-28
-23
-20
-40
-70
-79
-85
-89
-81
-44
-14
-18
-16
-37
-69
-88
-90
-93
-65
-32
-31
-32
-33
-44
-72
-81
-81
-77
-60
-34
-26
-20
-28
-40
-71
-83
-99
-85
-76
-39
-22
-26
-29
-37
-77
-80
-82
-78
-54
-37
-21
-19
-27
-51
-74
-86
-93
-70
-59
-32
-29
-25
-31
-45
-82
-86
-80
-74
-58
-28
-31
-23
-30
-53
-77
-90
-87
-73
-56
-33
-14
-22
-44
-61
-77
-84
-88
-74
-61
-36
-22
-20
-32
-55
-89
-87
-94
-72
-54
-30
-27
-20
-35
-53
-79
-90
-90
-72
-56
-30
-24
-22
-31
-52
-80
-86
-93
-70
-43
-22
-19
-16
-28
-54
-82
-90
-83
-69
-43
-21
-12
-18
-31
-68
-78
-85
-91
-66
-44
-27
-31
-21
-35
-66
-84
-94
-77
-68
-40
-34
-22
-29
-40
-60
-81
-82
-83
-66
-47
-36
-23
-16
-38
-73
-78
-87
-81
-69
-42
-22
-17
-32
-39
-72
-75
-64
-58
-23
22
52
63
65
62
48
13
-14
-17
-15
3
-20
-31
-51
-85
-119
-141
-131
-134
-107
-72
-60
-53
-59
-76
-97
-96
-93
-79
-68
-40
-26
-25
-33
-39
-79
-82
-82
-86
-73
-24
-16
-3
-29
-41
-71
-85
-79
-58
-47
-19
-22
-17
-24
-37
-66
-75
-81
-69
-43
-10
-22
-14
-17
-27
-68
-77
-71
-58
-41
-19
-19
-6
-24
-47
-66
-68
-69
-61
-33
-7
2
-1
-8
-36
-60
-66
-64
-53
-26
-4
2
9
-2
-34
-46
-52
-45
-32
-13
3
6
8
4
-22
-42
-38
-35
-16
-2
10
29
23
7
-7
-22
-36
-40
-19
10
32
26
26
6
-23
-41
-32
-22
-26
-8
11
5
3
1
-45
-54
-59
-63
-40
-20
-9
-9
-13
-31
-65
-75
-83
-81
-59
-22
-12
-16
-29
-40
-67
-81
-78
-78
-61
-33
-30
-27
-18
-34
-69
-85
-92
-79
-59
-34
-22
-23
-30
-50
-82
-82
-80
-79
-61
-33
-17
-18
-34
-43
-73
-87
-92
-78
-62
-31
-17
-15
-26
-48
-68
-81
-87
-68
-50
-20
-23
-27
-30
-51
-70
-82
-80
-74
-59
-15
-29
-21
-31
-49
-68
-81
-89
-76
-54
-17
-13
-20
-38
-50
-78
-86
-82
-84
-49
-26
-17
-23
-41
-54
-74
-82
-77
-73
-47
-23
-17
-16
-47
-59
-75
-81
-76
-72
-54
-34
-11
-19
-31
-60
-86
-91
-78
-63
-40
-22
-15
-21
-53
-74
-86
-95
-91
-65
-32
-18
-25
-28
-46
-62
-84
-83
-77
-72
-40
-21
-15
-25
-42
-77
-84
-89
-84
-64
-41
-23
-11
-23
-47
-67
-93
-90
-87
-76
-38
-14
-8
-25
-49
-75
-71
-89
-83
-58
-26
-25
-18
-34
-46
-70
-82
-94
-75
-58
-35
-34
-21
-28
-46
-80
-82
-85
-70
-62
-25
-26
-20
-35
-51
-80
-77
-83
-80
-53
-27
-31
-21
-27
-60
-75
-75
-91
-73
-51
-31
-23
-23
-19
-49
-79
-81
-81
-77
-54
-29
-24
-16
-30
-47
-63
-72
-77
-60
-32
-19
-12
-18
-38
-58
-75
-84
-86
-72
-56
-33
-15
-32
-23
-54
-89
-101
-83
-72
-55
-26
-22
-26
-39
-59
-89
-86
-84
-67
-41
-26
-30
-27
-36
-67
-93
-88
-74
-70
-38
-18
-18
-11
-33
-51
-58
-57
-39
-4
25
61
79
80
68
37
0
-17
-26
-26
-26
-40
-46
-66
-83
-112
-131
-135
-117
-108
-70
-63
-49
-55
-61
-82
-100
-90
-80
-61
-31
-28
-12
-12
-35
-84
-77
-80
-83
-59
-27
-22
-18
-23
-36
-66
-73
-74
-67
-55
-21
-22
-13
-21
-32
-58
-71
-77
-63
-53
-22
-8
-6
-18
-32
-59
-85
-73
-60
-43
-12
-6
-2
-13
-30
-69
-77
-67
-52
-33
