41
49
40
31
33
32
31
36
37
47
46
42
40
40
31
34
32
34
41
45
48
47
38
40
32
30
37
40
39
43
46
46
38
38
33
30
35
39
43
35
46
39
47
38
38
33
35
38
41
50
58
46
48
22
30
26
36
44
44
50
57
43
32
25
26
35
34
34
42
39
42
46
41
31
29
31
31
32
42
42
41
38
40
32
25
37
33
40
43
43
39
42
38
29
35
31
24
35
45
47
49
34
37
31
36
38
32
32
41
26
31
33
37
35
32
32
31
36
40
39
50
51
34
25
27
25
32
34
44
38
47
42
37
17
32
41
30
37
40
46
43
41
31
33
34
28
42
44
30
34
40
42
37
30
33
34
41
37
44
36
39
40
36
26
28
33
26
32
45
50
44
30
35
32
37
39
33
34
41
48
58
31
25
31
33
35
34
34
36
40
41
34
42
39
24
20
38
39
37
39
40
37
36
31
33
33
39
38
42
45
44
39
31
30
32
26
36
32
47
51
42
39
24
31
36
34
30
37
43
50
40
36
29
32
32
33
34
41
35
42
43
37
32
36
39
33
20
39
37
42
38
41
35
35
35
35
43
47
45
49
48
46
35
36
40
44
49
52
57
55
45
51
44
45
46
56
62
51
55
51
54
56
45
52
44
48
51
51
57
60
46
42
44
28
32
29
38
39
41
49
37
34
36
41
35
24
39
49
47
44
42
35
30
28
23
30
34
41
43
41
36
32
33
30
32
34
38
37
45
40
31
29
26
25
17
18
32
27
36
42
49
52
51
69
91
88
93
124
139
149
139
117
112
100
81
55
28
14
14
9
-6
-9
-20
-21
-14
-6
0
13
28
28
28
30
26
26
26
27
40
39
42
40
39
30
30
30
39
42
39
45
47
41
43
37
35
32
38
48
48
44
43
48
43
41
41
33
34
38
45
46
53
45
41
41
45
35
36
47
50
30
57
54
38
27
41
39
40
45
47
48
56
67
37
39
36
38
43
51
56
60
63
63
59
51
48
50
53
60
65
67
70
70
65
58
58
60
64
66
77
78
82
82
75
72
77
77
78
78
90
98
103
90
86
96
81
91
102
98
114
100
109
113
107
105
99
101
104
100
109
110
106
104
104
98
97
100
100
97
100
105
101
93
84
69
67
71
74
74
76
76
70
66
59
54
46
52
51
57
53
52
45
43
37
35
35
42
51
44
41
41
46
43
28
33
39
37
32
44
44
41
42
37
29
32
27
30
34
41
36
41
43
37
28
29
28
33
38
45
52
48
38
30
39
39
22
34
35
35
44
40
42
43
32
31
30
31
36
43
47
42
44
37
32
34
32
33
33
36
45
44
35
40
30
31
30
35
36
40
49
40
42
40
34
31
24
24
42
48
45
45
36
39
26
19
26
34
33
38
36
44
40
30
33
29
26
21
32
39
37
37
35
35
32
30
31
30
38
43
40
38
26
30
19
28
28
30
31
31
37
39
31
32
28
27
18
33
39
39
31
32
36
27
34
30
32
24
33
35
28
35
35
30
18
21
18
24
34
32
39
33
27
23
25
20
29
32
32
33
39
36
25
23
26
25
23
31
37
37
37
33
27
16
16
23
28
26
32
42
37
35
37
17
24
27
30
26
27
32
36
32
30
16
22
25
29
27
28
32
47
34
29
16
16
18
29
30
33
40
35
24
26
24
20
17
32
35
34
31
27
33
22
19
22
16
27
27
22
38
40
36
31
31
25
29
28
34
41
42
42
43
38
35
39
36
38
43
43
55
52
42
40
40
48
39
40
45
47
51
40
46
39
35
38
40
27
25
31
29
33
29
27
32
19
16
32
8
24
33
35
24
24
19
18
18
20
25
28
32
33
27
18
12
20
26
18
29
23
31
31
25
16
13
9
18
13
25
27
24
11
9
8
0
6
18
29
45
57
65
73
78
80
87
92
95
92
90
78
56
24
-2
-24
-27
-31
-33
-30
-18
-16
-29
-30
-24
-21
-23
-13
-4
8
13
18
24
20
17
13
13
17
21
28
26
28
28
22
30
21
18
18
25
28
33
40
41
30
30
18
27
25
23
26
18
27
36
33
30
27
25
25
25
33
33
38
39
37
26
26
30
34
33
37
36
42
44
38
39
28
29
39
36
46
44
49
42
43
41
41
33
35
45
44
52
57
53
53
53
46
46
44
43
59
74
64
63
64
64
54
56
65
65
67
78
76
73
80
79
78
91
83
80
80
87
95
97
89
83
81
91
98
93
102
104
104
101
100
97
101
98
87
98
91
99
94
89
86
85
78
73
72
75
73
71
69
68
68
52
52
47
44
46
50
46
50
52
41
33
25
34
26
35
32
36
42
35
30
23
20
25
35
21
33
19
31
27
29
25
14
16
19
19
32
36
36
22
30
25
23
22
22
26
30
34
27
30
19
21
24
28
25
29
35
39
33
25
23
23
23
27
30
34
24
36
33
32
29
17
15
17
20
28
28
37
32
30
32
21
20
28
23
32
33
33
28
31
28
20
17
21
29
33
26
31
31
29
28
23
24
20
21
26
27
34
37
32
22
17
17
17
20
28
34
40
32
18
21
15
12
22
24
23
26
26
31
30
20
18
14
16
31
31
35
21
19
22
19
20
19
18
20
22
26
33
29
20
20
18
15
20
22
28
31
32
25
30
24
19
12
18
25
25
26
32
32
20
18
21
21
18
18
24
25
30
25
13
18
16
15
20
25
33
31
33
32
17
6
11
8
18
23
26
30
34
31
28
19
21
17
18
26
22
25
41
28
21
7
21
20
14
24
26
33
33
25
25
22
15
9
15
29
30
33
22
28
31
18
17
14
23
21
17
31
30
27
23
22
19
20
18
26
15
31
33
24
21
11
15
23
22
21
29
34
29
22
17
19
24
20
19
21
37
44
40
16
22
30
29
30
34
35
30
37
41
23
25
33
36
38
42
50
53
47
47
45
39
35
39
40
42
47
46
51
40
37
33
29
29
31
33
32
34
38
33
29
17
19
15
20
23
29
33
40
21
22
29
9
16
18
24
30
26
33
37
28
12
16
24
14
21
31
22
31
29
18
16
11
12
12
17
19
24
22
20
33
37
41
48
67
79
100
103
114
128
114
119
93
80
57
35
17
4
1
0
0
-16
-28
-30
-17
-13
3
16
14
20
20
17
15
13
17
21
30
30
19
26
29
13
14
17
18
27
35
32
31
29
26
20
16
16
28
31
38
31
41
34
30
34
29
17
25
32
35
41
43
32
36
32
23
19
32
42
46
43
41
40
43
37
21
27
38
43
39
39
36
36
29
30
29
35
40
49
54
47
46
42
38
30
40
37
33
54
59
57
66
50
49
46
49
43
58
64
65
67
66
60
62
60
57
57
63
82
76
82
84
81
78
77
79
96
85
101
95
92
79
84
79
79
87
84
90
97
94
93
90
91
88
86
92
89
76
85
84
91
79
76
70
68
69
60
73
65
69
68
58
45
44
36
45
49
40
47
51
48
48
39
26
25
32
43
32
34
42
42
41
18
11
18
17
23
30
33
37
38
36
22
33
28
28
24
42
40
33
34
34
33
19
19
27
26
33
38
27
39
39
35
22
21
26
38
30
40
43
31
16
25
28
33
30
34
12
31
32
32
33
25
16
27
27
22
36
40
41
34
37
39
34
26
33
28
33
33
36
36
37
31
15
25
25
33
40
30
35
36
34
29
20
26
28
30
36
34
42
42
22
15
21
25
20
26
28
26
27
35
28
28
30
24
23
25
32
38
36
31
27
20
24
26
41
30
31
37
41
33
22
23
22
18
17
33
36
29
26
31
30
27
23
24
21
20
28
37
29
42
28
27
17
7
12
39
34
30
36
28
30
24
17
25
27
25
33
32
36
23
27
18
27
20
19
23
42
31
28
33
29
27
20
32
27
24
34
25
32
33
27
27
24
14
35
37
29
21
28
25
24
25
22
18
26
41
32
37
31
26
22
25
17
17
31
35
29
29
35
27
21
19
20
27
22
37
32
39
34
42
25
16
30
24
17
25
28
33
36
32
9
10
27
28
31
29
35
39
34
30
28
20
14
25
30
35
37
45
35
30
24
27
28
30
35
36
40
45
36
48
29
35
34
38
49
43
46
50
56
41
45
39
36
44
54
47
62
65
49
43
32
32
35
30
29
33
35
36
28
26
15
32
25
20
16
33
26
33
30
30
23
20
11
13
18
27
33
36
38
17
16
18
13
23
29
32
27
23
25
23
18
11
21
20
20
30
14
18
23
21
28
36
43
66
80
97
95
106
126
152
151
126
119
117
90
61
36
16
1
3
-2
-18
-12
-19
-24
-6
1
2
13
1
0
2
13
15
17
20
34
39
36
20
18
18
15
20
19
33
36
32
28
21
19
23
30
24
20
33
39
27
29
26
20
22
26
25
31
34
37
38
41
38
29
19
36
33
33
30
45
44
33
28
32
39
36
36
39
43
49
45
42
33
30
44
46
41
27
42
43
55
42
39
43
44
33
47
50
51
57
59
50
45
49
52
56
62
64
70
72
70
66
66
57
63
67
73
79
80
81
86
79
81
81
82
89
94
106
101
94
103
88
93
96
97
91
96
110
104
99
109
100
98
83
89
95
92
95
93
95
95
77
73
81
77
74
73
79
74
73
63
58
52
49
53
58
50
50
47
54
48
42
33
31
29
35
35
43
35
48
44
42
25
34
32
29
31
34
38
41
38
38
28
19
28
34
38
39
45
37
27
29
27
21
31
35
33
31
42
39
36
31
25
23
30
33
22
37
37
32
33
31
31
28
32
30
36
45
44
48
17
22
29
30
30
27
23
28
45
47
38
29
26
29
18
25
32
35
38
32
34
33
29
26
25
30
35
41
38
35
27
22
24
26
26
28
35
28
31
38
33
28
21
22
25
34
33
34
34
33
31
25
30
20
14
33
42
25
29
31
28
19
24
22
24
25
34
32
25
27
25
22
23
18
20
26
26
37
35
33
23
16
18
29
26
18
32
27
18
29
26
25
23
20
20
32
34
35
28
22
16
13
13
22
26
29
27
29
32
34
26
21
21
18
26
28
32
25
31
30
25
23
17
26
24
32
31
29
32
29
21
17
23
23
22
34
29
26
15
31
24
18
20
17
17
31
28
31
33
28
22
18
22
29
25
28
35
34
37
12
12
15
17
23
25
29
28
39
22
14
19
21
15
22
22
27
29
28
28
33
29
26
21
27
28
35
39
43
31
41
29
26
27
35
42
38
43
45
39
50
42
37
31
34
45
58
52
42
40
49
36
32
28
30
35
31
33
31
31
25
16
13
17
27
24
29
27
32
29
28
7
16
19
22
32
20
19
22
22
21
16
12
15
22
20
20
30
31
28
27
13
24
18
21
19
21
17
16
11
4
-4
-2
3
12
28
36
56
63
73
86
84
86
114
109
127
100
99
89
54
17
-4
-18
-23
-24
-27
-32
-21
-27
-23
-26
-26
-12
-12
-4
14
12
20
18
15
15
13
10
14
17
29
28
30
29
23
12
19
25
23
27
17
24
32
31
20
18
14
22
28
32
37
32
38
37
32
28
20
19
31
30
32
34
34
36
35
28
22
33
32
33
35
38
40
41
38
30
35
35
34
40
45
39
45
49
40
30
37
39
36
49
43
51
49
49
48
45
44
41
55
58
64
63
50
56
55
55
52
60
62
68
66
73
83
79
74
69
64
78
83
83
90
98
99
92
92
89
87
85
95
100
103
113
106
97
104
94
85
90
98
93
111
112
96
94
85
82
74
77
78
80
77
77
71
65
66
53
45
47
49
51
54
53
47
43
39
29
25
35
38
41
42
38
32
23
28
31
29
22
23
23
27
32
41
35
21
12
13
20
23
29
27
33
32
26
24
26
22
24
18
30
33
36
28
13
28
26
15
23
29
32
29
34
35
31
32
18
9
19
34
31
32
33
24
26
28
21
11
17
29
33
38
42
31
30
18
16
22
24
27
30
32
37
32
27
25
22
28
24
14
32
34
33
34
22
17
24
26
17
25
33
35
29
21
22
20
23
18
27
23
27
32
30
27
22
23
19
24
28
14
19
31
28
28
22
19
28
13
21
20
22
31
30
13
23
28
20
6
24
27
36
31
26
18
19
9
11
7
19
23
28
32
31
30
24
10
20
23
25
27
22
19
32
23
22
17
13
12
25
29
36
31
22
32
20
8
15
16
26
32
21
21
25
23
20
15
13
20
23
27
31
22
25
22
21
30
17
17
11
19
25
33
30
26
17
20
22
11
25
29
25
29
32
16
16
18
17
26
25
26
32
26
23
25
10
11
24
40
28
28
29
35
32
30
22
22
23
24
23
37
40
35
39
31
33
44
43
43
42
40
45
47
42
39
37
36
30
36
36
38
39
37
37
33
19
18
22
24
30
35
25
26
16
23
19
12
25
30
9
23
28
30
24
19
9
6
17
23
31
39
13
17
14
11
7
13
15
20
24
17
23
23
3
9
11
7
6
8
11
22
32
41
37
51
61
70
82
91
107
127
131
127
115
101
71
38
13
4
-22
-3
-8
-30
-30
-21
-23
-28
-28
-4
21
15
14
3
2
9
12
7
13
13
25
25
25
31
15
15
15
17
21
21
30
25
30
25
19
21
22
22
21
22
31
28
32
31
38
27
21
21
12
15
17
33
34
31
29
25
23
31
33
36
30
33
35
32
22
26
27
33
40
41
39
45
37
29
29
33
30
38
39
33
38
36
45
43
46
44
32
42
45
51
50
50
54
34
55
40
43
45
55
58
59
65
77
63
54
63
66
69
72
78
84
91
86
83
79
75
77
80
82
86
89
102
96
86
98
84
94
94
90
92
88
94
96
92
88
83
71
76
79
75
73
75
73
58
56
56
49
53
56
53
47
53
47
40
36
40
34
31
32
31
40
25
26
27
23
23
22
21
27
36
31
37
28
22
15
6
23
14
18
26
30
22
20
21
16
22
18
20
23
18
18
33
28
19
24
19
19
22
25
30
22
31
33
17
17
19
21
21
27
9
17
30
30
27
14
17
28
23
19
30
42
32
25
16
17
3
12
25
29
30
26
23
28
19
21
21
22
23
21
29
32
23
24
25
14
12
22
17
17
32
21
34
32
19
21
20
16
10
16
22
23
17
24
18
10
10
19
25
28
17
24
27
19
11
11
14
10
23
19
25
25
23
22
17
16
16
11
19
23
24
27
30
27
21
17
17
17
16
26
21
24
17
19
10
12
15
6
19
17
34
37
29
27
20
9
8
15
12
13
20
25
20
22
16
1
12
17
23
24
26
32
22
18
17
10
15
17
19
22
21
26
21
20
17
12
18
18
20
20
22
26
27
26
23
14
14
3
17
28
33
28
30
33
31
19
13
23
24
25
33
41
35
29
31
30
21
34
39
39
35
40
46
39
34
34
32
36
31
40
40
46
39
30
22
21
22
23
24
30
29
20
25
24
9
18
12
27
27
31
13
23
21
15
10
10
18
20
32
28
22
8
14
21
19
9
6
12
21
26
19
22
25
23
7
5
12
2
11
10
11
12
8
7
3
15
22
36
52
64
75
82
86
88
106
115
114
103
91
70
48
11
-8
-19
-22
-21
-34
-37
-29
-31
-16
-22
-19
-7
7
1
-2
4
22
25
14
19
4
7
14
9
10
17
25
22
21
26
18
17
12
9
20
22
26
27
24
24
26
23
18
19
15
20
28
32
28
33
27
26
30
19
31
25
38
47
27
20
32
27
26
28
38
28
27
37
35
32
29
28
29
26
37
27
39
37
43
43
37
27
30
40
38
40
45
47
46
53
51
36
42
50
48
55
58
60
59
61
62
60
55
54
65
68
80
72
87
89
68
65
70
76
83
91
90
91
95
92
88
88
83
92
103
101
83
95
97
99
96
87
80
83
89
91
78
91
91
87
65
67
59
62
63
64
62
62
61
50
44
42
38
41
49
48
36
42
35
30
34
26
26
27
27
30
35
21
23
37
24
28
22
17
16
27
20
18
27
24
15
11
4
10
28
34
27
18
20
18
19
21
21
23
22
25
29
29
24
28
25
19
4
21
21
22
33
28
26
23
25
22
23
25
26
21
34
32
23
25
33
26
17
19
18
28
25
27
30
26
11
20
18
11
20
29
29
37
27
25
19
16
15
21
30
29
35
33
34
12
12
21
20
19
17
24
26
31
32
11
15
20
26
26
31
18
26
25
17
17
9
13
20
25
26
29
21
26
29
21
13
14
18
18
17
18
23
26
20
18
19
11
21
23
20
23
18
22
23
20
27
28
12
14
27
18
8
16
22
15
20
17
20
21
23
22
28
26
17
19
17
15
13
14
22
23
27
25
26
23
20
15
11
14
24
21
24
24
23
19
13
20
20
24
21
24
32
20
12
9
9
20
21
25
15
20
28
25
17
13
20
19
11
17
37
34
12
20
19
16
14
16
13
15
20
22
29
26
14
18
14
22
15
20
33
25
25
24
14
14
14
18
23
20
19
29
29
26
26
24
29
16
24
25
26
31
26
34
41
24
27
25
25
27
40
40
44
45
36
32
37
33
31
45
38
34
39
45
43
22
21
24
27
23
24
31
31
26
26
23
11
12
16
24
23
21
29
23
11
6
9
17
16
19
28
23
22
23
19
6
10
18
17
23
21
12
14
21
19
20
23
11
11
8
11
6
0
4
4
3
-2
1
16
27
29
44
58
48
56
66
81
90
106
134
130
120
99
76
46
20
-2
-14
-15
-12
-15
-16
-25
-33
-28
-21
-9
-5
-2
5
10
13
18
18
10
-1
4
11
16
18
26
13
14
20
18
20
22
18
10
16
24
33
19
20
20
5
12
18
19
21
31
29
29
27
29
21
6
21
28
30
36
31
23
20
15
24
24
26
25
31
26
29
27
31
26
27
24
31
36
34
32
44
41
32
33
30
25
32
34
34
46
43
48
44
30
36
35
45
47
55
60
52
46
44
35
46
52
65
64
50
56
57
68
69
60
62
63
71
78
79
82
82
84
88
83
80
80
86
90
90
92
98
89
91
84
85
87
92
94
98
88
88
85
79
76
70
66
73
76
73
63
55
64
62
51
42
40
48
49
41
42
37
36
25
29
30
14
26
29
33
35
32
25
20
15
16
22
25
24
20
28
27
20
15
16
11
9
22
31
30
24
27
22
17
18
16
19
23
23
24
33
27
4
17
13
13
19
16
25
31
24
22
23
20
14
26
25
23
23
15
23
24
25
21
20
9
21
24
28
27
27
28
23
18
20
23
19
23
25
29
27
28
25
23
25
23
6
21
23
17
28
27
20
2
17
25
11
22
30
28
31
27
17
5
14
17
21
21
27
32
33
20
18
18
10
9
23
29
31
24
17
18
14
15
10
14
16
22
24
26
27
21
18
22
11
6
19
15
20
28
23
23
19
10
14
13
16
21
26
24
25
16
16
10
12
20
20
26
23
21
22
25
19
11
11
19
25
24
30
24
27
24
21
10
13
16
19
20
19
25
21
11
12
17
21
28
31
24
14
16
18
13
26
17
0
4
24
21
24
18
22
18
12
10
12
14
19
23
27
23
26
21
22
15
12
12
17
27
20
22
15
19
9
17
15
14
22
26
19
28
32
28
28
26
32
20
21
25
38
35
33
26
22
26
30
28
32
40
42
42
36
29
33
30
32
34
36
42
41
38
29
33
24
16
12
22
24
22
33
27
26
21
13
20
12
16
18
21
21
21
24
8
6
14
11
16
20
14
13
25
20
20
8
2
11
18
14
27
28
20
17
13
5
6
5
6
17
11
12
6
4
1
1
5
18
25
35
50
53
61
77
75
78
101
110
111
100
79
74
37
3
-21
-27
-24
-26
-37
-23
-23
-28
-17
-30
-33
-13
-12
-7
2
12
13
17
9
17
13
6
11
12
16
13
22
23
26
27
19
8
11
15
19
24
37
21
17
19
12
12
22
23
25
28
29
24
27
28
20
12
27
32
25
21
25
29
28
21
19
25
30
23
25
29
39
25
20
43
25
25
32
32
30
35
38
39
38
33
32
32
34
35
43
42
44
38
43
41
40
40
40
45
47
55
55
51
53
54
49
55
58
64
52
58
71
67
73
71
71
62
69
64
74
81
87
84
84
84
78
75
80
85
95
96
102
92
84
83
81
83
85
89
93
89
80
83
78
74
76
69
69
44
52
59
63
60
47
44
38
38
42
37
36
39
40
40
22
32
30
19
18
22
31
26
23
24
30
24
17
12
16
19
26
28
25
23
22
17
14
18
25
22
20
18
22
24
20
16
17
13
16
22
27
21
23
18
19
8
14
18
20
18
31
31
29
12
11
19
15
15
23
27
23
21
25
34
17
20
19
14
13
17
20
30
29
32
18
13
14
18
24
21
20
33
39
30
20
1
18
17
20
25
28
37
26
21
19
12
19
23
21
28
22
20
32
14
23
13
9
11
19
25
25
27
27
29
29
9
9
15
11
16
25
21
26
19
20
18
13
13
19
22
20
30
25
18
11
11
20
12
18
17
22
26
25
20
17
15
14
20
24
31
28
21
28
17
9
11
8
13
18
24
28
29
20
18
11
14
13
14
15
22
30
28
26
24
19
3
13
16
18
27
35
29
25
22
20
13
9
16
23
24
31
23
19
14
14
13
13
13
20
12
26
25
22
15
10
17
19
15
18
23
24
21
26
25
19
15
11
21
23
26
22
29
16
14
19
13
21
16
19
24
24
23
23
10
26
20
12
5
19
23
27
25
21
18
18
17
16
28
11
29
16
26
27
14
23
12
9
17
20
24
28
25
22
16
18
19
9
26
31
33
24
29
25
21
16
19
25
26
31
36
38
34
39
22
26
26
32
38
35
40
41
44
42
33
30
41
37
38
39
37
40
28
29
23
17
20
21
19
21
25
27
11
14
21
11
15
27
32
30
19
10
21
19
14
16
18
14
11
23
18
23
22
20
12
7
9
16
24
30
22
14
18
18
16
5
13
6
3
15
19
6
9
6
11
11
22
32
43
59
75
87
89
97
107
122
129
113
108
93
70
32
17
1
-8
-10
-21
-24
-22
-20
-15
-14
0
5
-4
-11
7
5
14
24
23
22
12
7
10
5
11
15
22
19
19
26
28
26
20
13
16
20
14
26
28
30
25
16
21
20
22
19
26
33
28
29
25
27
25
29
31
25
29
21
35
28
47
31
7
25
21
26
29
32
39
37
26
28
27
26
28
33
40
37
31
42
37
23
36
21
31
40
49
45
48
48
45
44
41
40
42
46
52
48
54
61
60
58
54
55
53
64
72
67
75
66
74
66
69
75
75
80
83
85
88
79
87
93
85
78
86
88
88
87
90
93
93
95
88
70
88
87
98
88
76
77
75
73
67
69
61
65
67
66
58
57
51
51
46
48
34
41
43
40
42
36
35
34
27
31
29
28
34
25
30
35
30
9
14
21
27
22
26
30
28
26
26
20
27
20
17
10
18
26
15
27
22
15
14
18
25
19
30
21
26
27
20
10
20
27
25
27
30
32
27
22
25
19
13
21
23
20
26
29
26
27
30
16
16
21
17
15
31
31
28
21
22
19
25
24
17
25
26
22
20
26
16
13
22
16
22
33
31
30
24
20
12
18
10
24
22
20
26
26
30
34
7
6
18
22
28
28
35
32
27
10
3
15
14
17
20
22
22
26
17
19
17
20
18
20
19
21
27
27
23
19
8
15
7
19
26
27
21
19
23
19
16
16
18
19
13
20
26
29
22
11
17
21
18
10
17
25
28
21
19
29
20
14
6
11
15
19
25
23
22
13
12
15
19
24
19
24
28
29
23
11
7
18
12
20
24
24
23
26
21
12
12
13
14
23
29
19
21
28
23
23
13
19
14
17
22
20
26
24
25
17
15
16
13
13
20
23
24
27
20
16
19
13
20
30
9
12
15
22
26
16
13
22
21
17
27
22
30
32
10
14
14
15
8
19
25
26
30
24
17
13
14
14
7
17
22
29
33
26
16
9
3
16
21
20
23
27
32
25
21
9
8
18
21
18
31
34
25
38
12
21
21
12
28
22
27
27
31
33
29
25
29
29
33
32
35
44
40
37
34
36
30
28
28
39
37
46
43
33
34
32
29
20
27
25
30
24
28
24
17
19
10
13
21
15
21
29
24
17
-1
19
22
23
18
18
22
17
21
15
7
14
10
14
20
24
22
21
15
21
16
12
13
16
16
23
22
11
6
13
13
-2
-4
-2
-1
7
5
20
31
35
40
49
59
67
78
88
96
120
115
100
80
64
44
15
-17
-26
-19
-21
-29
-31
-33
-37
-38
-32
-22
-13
1
6
-3
5
14
3
5
12
5
25
20
22
18
8
13
20
15
14
9
21
21
26
29
27
20
12
25
21
22
21
32
29
27
20
13
23
20
24
20
23
34
30
23
26
23
27
34
28
33
23
35
38
28
24
28
14
26
27
34
37
34
37
42
46
25
28
32
33
41
43
50
34
33
37
33
40
36
34
40
51
53
55
47
47
45
47
50
46
60
63
62
64
58
65
63
66
66
74
75
75
85
82
82
79
73
78
88
94
91
96
98
87
95
92
94
84
90
91
100
104
107
92
98
85
88
87
65
77
78
76
78
75
68
64
61
50
54
52
58
43
50
51
38
38
33
28
29
37
37
32
32
27
27
25
16
16
17
23
34
21
21
28
24
12
10
15
15
16
21
18
22
18
22
7
17
9
6
22
19
14
14
8
17
20
15
18
10
9
17
14
15
16
20
19
11
15
13
21
17
22
26
25
19
16
16
13
17
18
20
21
28
15
17
19
26
10
17
21
26
16
21
24
15
13
8
13
14
5
11
20
29
18
19
9
15
13
24
12
16
14
18
19
9
8
9
3
14
18
20
19
22
21
16
9
4
17
12
17
20
17
19
21
16
11
9
14
19
-2
13
19
17
15
11
7
3
4
9
20
24
26
22
14
4
-1
10
9
8
17
19
5
12
16
13
9
5
1
15
16
18
20
16
20
15
10
4
5
3
14
16
20
19
19
12
4
3
10
19
-1
18
19
19
13
9
6
9
5
22
18
17
14
17
17
5
13
2
6
2
8
19
22
17
15
11
10
13
16
2
15
19
13
16
15
12
8
11
15
9
22
23
21
13
14
13
12
10
-2
13
9
15
21
13
18
6
10
5
0
12
15
22
28
30
-4
0
4
6
8
19
18
16
22
18
15
8
14
14
13
14
9
30
30
22
17
17
18
18
17
24
28
33
34
32
26
29
25
31
26
24
37
32
30
25
28
26
18
19
23
19
24
36
23
22
14
15
10
15
21
22
17
18
22
15
7
-1
-3
15
12
11
21
21
8
12
12
14
4
8
16
18
17
21
22
23
9
5
-5
-2
11
21
23
15
19
9
-3
-8
-3
-3
-2
9
10
10
15
24
24
31
37
45
55
71
83
102
115
110
93
86
62
57
28
-2
-21
-16
-12
-20
-30
-40
-35
-34
-29
-15
-5
-4
2
2
-2
7
3
6
0
14
14
13
22
13
13
9
12
4
12
14
23
22
17
16
12
5
12
21
22
18
23
28
29
25
20
11
12
17
22
31
32
24
17
14
11
19
20
23
25
29
37
39
26
27
-7
22
23
24
29
28
32
38
32
31
36
22
22
32
43
39
48
28
34
33
32
34
25
32
41
48
47
47
42
46
46
45
41
47
49
55
62
64
54
48
40
64
68
65
56
72
75
76
75
75
72
66
73
73
70
95
88
92
84
80
81
80
85
87
94
88
93
93
84
83
81
81
87
85
83
84
83
76
69
64
59
56
57
57
60
60
56
44
49
41
48
41
34
26
41
35
45
34
30
22
12
19
25
29
30
33
31
31
26
13
12
19
21
25
28
28
27
26
19
21
22
12
19
26
27
24
31
27
20
15
21
18
26
32
32
29
24
23
11
2
12
18
25
31
26
28
21
25
28
18
19
22
21
28
32
23
34
27
22
19
13
7
25
26
27
31
31
26
27
16
17
17
22
26
27
27
32
29
22
18
18
11
20
28
30
25
31
20
24
20
17
17
22
26
30
31
30
25
23
17
13
25
18
32
21
18
15
23
27
20
24
16
27
27
22
29
26
24
22
12
8
17
18
36
26
29
32
27
22
23
-5
14
22
23
14
22
28
23
18
15
14
13
25
31
33
26
16
19
20
19
22
23
15
21
27
21
26
23
17
16
15
15
21
21
25
25
27
24
16
12
8
14
20
21
27
31
27
26
15
18
13
15
11
13
29
32
32
14
17
8
10
15
18
22
34
25
24
20
15
17
4
12
13
19
23
30
26
20
16
19
14
17
25
18
27
29
24
9
10
18
22
14
22
24
27
33
29
30
11
3
11
23
23
28
28
26
22
26
19
24
7
8
25
18
24
25
26
17
14
16
16
14
11
29
30
28
32
33
17
20
31
26
29
25
49
49
27
24
15
21
26
29
43
44
47
46
40
35
28
24
26
30
37
44
39
46
38
24
16
15
18
21
28
32
28
38
24
19
17
22
31
8
13
24
27
15
23
11
14
14
16
20
23
22
25
18
22
12
18
17
23
-2
14
31
29
23
16
18
8
14
12
6
8
14
18
9
6
6
-1
5
20
32
39
49
68
66
74
72
84
90
98
106
88
67
55
31
-9
-31
-35
-33
-29
-33
-27
-20
-16
-11
-15
-32
-29
-16
-3
9
6
16
8
20
17
8
8
9
17
16
19
26
28
25
24
30
11
13
22
13
24
38
38
24
14
16
24
16
20
30
23
35
41
25
20
24
24
21
30
36
26
16
29
35
21
22
28
28
20
29
42
40
34
35
28
25
31
36
27
40
39
49
27
36
37
31
34
32
38
39
45
53
49
18
39
39
35
45
50
56
56
58
54
51
57
60
49
54
58
66
72
73
78
73
64
64
65
79
76
85
92
96
92
91
78
78
93
87
97
94
95
97
107
90
78
92
90
92
87
95
90
92
88
82
80
71
74
71
65
62
70
74
59
51
45
49
49
39
41
46
44
44
42
40
37
23
24
22
37
41
46
39
39
4
3
12
26
33
13
19
28
28
27
20
12
5
8
22
26
27
20
32
28
22
16
18
25
23
24
36
38
25
27
19
16
19
25
30
32
33
29
31
30
34
31
16
19
41
17
19
23
33
31
28
16
23
22
29
22
35
42
36
25
20
22
28
29
25
32
34
33
38
33
29
22
25
30
24
26
37
33
29
34
24
23
29
29
31
38
41
33
30
33
20
24
29
30
25
23
39
51
46
31
19
22
21
22
36
38
36
39
41
30
25
20
17
25
30
38
40
41
38
30
26
25
24
15
37
38
34
37
39
35
23
25
17
28
28
38
39
41
36
31
17
32
16
21
32
31
37
38
34
36
26
25
31
32
33
37
36
37
33
44
19
18
28
25
32
35
43
44
40
42
30
22
15
15
33
42
41
46
38
32
33
38
21
30
27
37
45
37
38
33
33
26
30
34
38
34
43
44
39
33
24
19
22
36
34
38
44
40
35
28
26
31
28
31
43
40
46
42
31
27
33
29
31
35
41
43
45
37
41
38
33
32
29
44
21
32
52
51
36
31
26
23
34
37
33
48
40
33
34
36
35
20
26
37
40
37
47
56
43
34
32
36
43
47
47
56
55
56
46
45
36
47
58
67
39
60
57
63
53
41
37
33
46
46
47
48
52
60
45
36
33
32
34
49
45
35
44
40
49
35
31
22
34
36
45
47
35
41
35
35
32
45
38
32
40
36
45
44
26
30
24
31
20
34
40
42
45
36
29
30
22
21
24
27
35
44
41
48
52
50
57
66
83
97
109
121
124
123
96
84
69
51
17
4
3
5
11
3
-7
-19
-17
-12
1
18
27
30
30
34
33
25
24
33
26
37
43
54
45
35
37
33
35
39
44
45
28
44
54
49
36
37
38
45
39
35
52
55
58
47
49
36
48
38
45
47
43
49
59
56
38
31
44
46
46
47
47
46
57
53
49
45
36
45
52
54
52
66
67
65
33
41
49
47
56
64
66
62
56
56
57
55
56
60
57
64
69
70
69
66
60
63
69
60
63
71
85
80
71
72
73
72
79
76
86
90
101
88
93
92
81
82
98
95
98
104
105
100
104
91
95
86
84
97
109
112
106
107
98
98
93
94
93
95
93
98
97
95
88
86
80
70
76
74
79
77
79
71
61
63
56
57
60
55
61
64
63
56
54
62
46
41
36
40
48
53
57
57
50
42
37
44
46
49
41
57
61
46
45
38
27
35
33
43
49
46
51
54
45
43
41
42
36
46
47
50
52
59
51
39
40
42
41
48
46
52
55
55
49
38
41
37
35
47
50
55
58
50
46
44
42
44
45
60
62
42
51
46
47
46
39
39
46
52
51
57
58
39
33
34
40
42
41
42
43
50
56
49
35
41
46
38
39
53
52
45
56
48
43
37
30
36
44
45
54
45
52
48
47
36
34
39
50
48
68
58
38
51
41
30
27
25
42
45
51
47
57
45
43
37
34
31
37
42
46
57
57
52
44
43
31
37
37
37
43
55
46
47
39
38
32
39
45
47
55
44
49
54
44
34
36
41
49
41
46
44
43
55
44
40
34
34
41
40
50
53
56
46
35
29
35
35
44
46
45
48
54
49
38
42
39
42
42
44
45
48
43
41
38
39
35
39
47
40
45
49
54
60
35
31
34
37
39
49
47
58
46
46
41
35
37
35
44
48
49
54
54
52
33
40
38
35
43
48
55
50
57
53
41
38
46
46
45
52
47
55
48
48
49
48
30
38
56
54
67
64
61
54
44
48
54
51
57
57
66
68
67
58
57
62
67
63
73
82
83
81
78
76
69
68
66
75
76
85
88
94
83
80
65
64
68
66
71
73
77
75
66
55
52
57
58
68
63
71
69
72
70
58
55
49
57
67
69
71
73
75
64
58
56
54
55
59
59
70
70
72
62
64
63
56
49
55
64
62
57
57
61
62
53
51
64
73
93
100
107
116
124
126
139
151
158
152
139
126
107
69
56
35
28
33
32
31
28
26
33
39
41
40
41
48
57
58
56
62
63
65
65
52
60
61
57
66
60
59
78
79
60
45
48
55
57
64
72
68
69
71
57
46
55
60
60
72
72
75
75
72
61
67
64
62
62
71
74
75
80
73
71
69
69
70
70
66
72
77
81
77
75
60
66
64
74
78
77
100
82
65
79
63
71
69
71
74
82
87
90
87
76
71
77
77
77
88
88
86
94
97
95
87
89
94
97
105
110
108
112
108
104
101
105
106
111
113
118
124
127
129
120
123
119
120
116
127
130
136
128
129
121
116
114
118
134
124
127
125
123
117
110
112
116
96
99
101
100
111
104
92
82
83
79
82
81
83
90
94
74
80
73
64
66
68
69
74
86
81
57
61
56
53
58
57
61
60
64
66
65
59
58
56
49
56
51
64
64
68
67
65
61
61
57
50
60
61
67
64
65
65
52
52
61
58
59
76
59
57
61
59
52
55
66
63
55
58
56
64
72
60
53
47
58
61
57
60
72
61
70
54
49
48
55
61
67
63
58
66
60
55
54
47
48
55
60
61
65
69
65
52
49
37
43
50
55
59
64
65
64
56
45
57
61
44
53
60
68
67
64
56
44
48
38
48
61
68
64
57
57
52
50
52
50
52
59
55
47
58
58
56
54
39
45
48
48
51
60
65
56
53
48
46
43
47
59
59
64
61
49
44
41
45
47
54
65
69
67
49
38
41
43
43
45
42
43
46
49
53
53
55
46
37
47
54
53
55
56
56
48
39
37
39
40
54
53
60
65
58
53
44
44
51
44
50
55
50
55
52
49
45
45
41
42
50
49
59
62
47
44
44
47
46
40
48
55
53
51
46
46
34
39
38
42
45
50
62
63
49
42
39
36
43
44
49
60
53
52
46
45
43
42
37
48
46
50
57
61
48
41
42
32
36
40
48
56
56
58
56
44
35
35
38
44
43
41
51
53
53
51
37
35
47
58
49
63
55
62
56
54
50
56
50
54
66
68
63
60
61
59
52
56
59
55
61
68
75
61
58
50
52
46
53
58
58
53
51
45
43
34
42
37
45
49
36
55
56
59
40
44
28
33
41
40
39
43
44
47
43
35
36
36
31
34
44
45
45
46
46
34
25
36
42
45
40
49
54
20
19
17
13
17
33
43
51
64
78
86
93
112
106
95
117
123
123
120
100
76
36
8
-14
-23
-6
-25
-9
-5
-11
-9
-10
-7
-4
8
22
24
27
36
39
31
26
30
30
30
31
41
35
44
45
41
39
36
31
38
44
43
51
42
35
54
49
43
27
42
41
43
44
61
55
63
39
37
36
44
37
47
55
61
54
51
41
40
45
34
52
55
51
54
55
56
48
43
50
46
47
57
60
57
68
59
49
42
46
53
58
57
61
70
73
64
58
47
63
71
75
73
78
82
80
81
68
70
72
75
77
84
98
89
86
93
90
81
90
91
104
93
101
112
116
108
102
104
112
112
115
117
128
131
118
102
112
106
115
106
113
117
114
120
121
113
101
101
103
105
99
91
99
97
90
79
72
67
74
68
68
71
71
73
63
57
47
51
57
64
53
41
53
42
43
45
39
36
44
39
46
48
48
53
40
44
43
29
35
39
35
48
48
51
44
40
38
41
37
32
33
49
52
49
49
37
35
41
15
28
47
51
46
44
41
41
30
37
47
44
37
34
38
52
45
33
30
32
38
42
34
49
55
53
39
38
38
40
43
44
45
40
31
47
42
39
35
37
31
42
36
46
45
43
40
31
30
29
36
46
40
33
38
49
40
30
24
29
35
44
37
41
45
37
43
30
22
36
35
30
36
41
41
34
29
28
25
33
38
43
34
42
46
33
34
33
20
9
33
39
37
40
37
36
38
26
27
29
34
43
44
18
26
39
31
33
20
21
25
32
37
43
43
41
28
18
37
44
29
19
28
40
38
34
30
27
30
29
33
36
27
42
47
40
31
15
30
25
22
21
36
37
40
34
24
20
21
27
26
28
32
34
35
34
30
26
31
25
20
38
41
36
29
38
30
25
24
24
22
30
33
42
30
33
34
18
23
15
33
39
40
45
30
40
26
21
36
29
31
42
39
49
55
50
39
42
47
40
41
49
51
53
53
54
38
43
38
30
42
48
44
47
49
38
34
35
24
18
28
29
40
43
22
34
21
21
22
25
26
36
38
38
38
32
17
18
25
28
25
32
37
36
30
30
26
30
22
25
25
40
27
21
26
20
17
2
8
15
18
26
37
49
34
42
49
52
69
71
91
107
122
118
109
90
83
56
19
7
-7
-3
-14
-13
-19
-22
-18
-36
-33
-26
0
16
18
20
20
19
20
15
19
21
22
27
34
33
27
26
15
16
25
35
36
29
31
34
36
34
32
16
25
22
21
31
36
42
38
23
30
32
17
30
34
46
42
28
38
34
26
24
31
38
41
50
45
43
39
35
33
37
45
50
20
43
53
50
42
43
40
33
28
46
50
52
54
50
43
45
45
46
43
57
58
59
59
59
63
59
51
52
59
58
66
71
75
73
67
66
67
55
69
79
87
94
82
79
77
87
86
84
97
90
88
95
110
98
82
75
88
92
84
89
97
105
99
99
92
76
77
84
78
82
91
90
76
79
74
56
57
64
56
60
50
57
62
55
39
41
41
47
41
30
42
48
51
42
32
28
23
14
29
28
25
32
34
33
27
19
12
21
14
30
27
27
36
33
14
9
20
17
21
23
28
26
26
25
15
18
18
10
10
25
31
32
24
26
18
18
32
34
10
4
21
26
28
15
15
11
17
14
18
11
21
23
34
16
11
17
15
20
18
30
20
20
31
20
17
13
16
20
22
21
23
30
25
15
14
17
7
10
16
18
24
28
30
13
10
13
15
20
10
13
23
17
14
12
17
4
12
10
17
21
26
32
9
11
4
7
3
11
17
25
19
28
27
30
3
-2
9
11
16
20
19
30
21
12
3
9
6
21
31
14
29
14
11
7
10
6
10
0
9
16
18
13
14
18
19
4
10
15
5
9
23
24
11
15
8
4
13
16
23
8
23
17
14
6
8
8
6
18
26
15
15
22
18
6
4
-1
8
11
4
12
20
22
10
-1
1
13
11
9
24
18
18
15
15
10
-1
3
15
13
20
19
24
34
14
9
8
18
7
11
23
23
15
24
21
17
19
22
22
20
42
35
37
29
30
24
26
16
23
32
33
24
26
29
28
22
12
16
20
18
10
21
25
17
17
3
2
5
11
23
23
23
19
10
4
-6
-4
-5
5
10
11
18
17
7
9
2
-1
2
3
10
9
13
18
9
6
4
-3
-4
0
-2
6
5
5
14
12
12
27
27
33
44
59
72
87
100
97
110
89
65
62
48
28
-8
-17
-29
-37
-45
-44
-45
-37
-36
-22
-9
-7
2
-15
-3
-6
-10
0
10
14
17
14
11
6
-2
0
6
12
13
12
10
8
14
13
7
17
9
-3
15
16
12
12
4
17
14
6
12
15
15
23
25
19
23
25
12
11
11
14
19
27
32
29
29
12
14
9
13
22
26
19
35
34
20
19
22
24
23
28
33
39
20
32
28
32
26
16
17
28
38
33
38
48
36
36
30
44
45
41
49
41
45
49
46
36
49
48
63
60
50
62
70
61
61
52
65
60
64
56
72
72
78
77
79
76
73
63
68
72
80
71
83
85
67
70
67
68
68
62
66
72
70
67
59
49
48
47
51
54
51
62
46
31
28
28
24
20
27
24
27
32
28
27
15
11
16
15
13
12
21
29
34
6
4
1
5
4
0
13
18
12
17
16
15
5
7
-1
9
19
13
23
29
15
9
10
8
13
19
13
19
23
21
18
18
6
19
11
14
14
19
23
19
22
10
4
13
12
13
23
24
17
23
16
14
3
22
14
9
16
6
11
17
16
7
9
11
6
9
13
22
19
23
25
17
9
10
4
17
14
21
28
20
12
4
2
12
8
13
23
6
14
10
15
-5
7
11
8
13
16
14
19
11
6
-1
2
7
4
16
13
21
17
8
12
9
14
9
-1
12
17
19
19
25
9
-3
3
9
0
8
8
15
18
16
12
2
3
13
9
6
11
11
25
14
2
12
2
10
6
6
8
10
19
13
13
8
6
4
7
20
14
18
18
25
5
2
10
6
-2
12
14
20
14
10
4
10
3
9
6
11
14
17
20
20
12
6
4
13
10
12
15
14
12
8
8
5
5
10
8
17
13
16
16
15
11
13
9
6
7
15
20
22
18
14
15
18
17
31
6
19
18
18
20
17
23
13
16
15
28
35
39
38
37
25
25
28
29
24
32
35
29
27
24
24
13
14
16
15
21
20
20
27
24
19
13
-1
16
19
16
20
24
23
21
27
22
18
17
8
8
18
19
20
12
13
7
5
8
10
18
14
18
21
24
20
14
0
0
8
9
11
8
19
32
37
29
45
50
63
76
93
106
118
125
123
101
80
62
37
5
-8
-9
-4
-10
-20
-33
-34
-27
-16
-6
3
12
17
18
21
12
13
18
14
24
33
33
36
25
14
18
18
27
26
21
30
41
49
32
11
16
27
25
19
26
37
37
31
29
26
35
29
28
31
32
34
39
40
41
34
33
35
35
29
35
45
44
43
41
42
39
37
41
41
51
46
54
52
44
41
41
44
43
53
45
55
70
56
50
56
38
47
58
64
69
46
64
69
61
58
53
55
61
72
75
66
70
64
76
73
69
79
71
76
89
92
100
89
94
83
76
95
101
79
93
100
105
102
97
102
101
100
100
105
108
112
116
105
99
101
98
91
95
100
91
95
92
87
74
72
73
63
65
74
64
64
68
69
53
51
53
51
51
54
56
59
47
42
37
35
39
41
44
45
37
40
46
39
28
30
24
28
46
43
37
39
38
45
37
45
26
23
27
41
43
43
44
45
37
34
33
38
38
48
48
40
42
47
35
33
40
36
35
37
43
41
48
40
30
32
31
35
37
43
58
52
41
32
38
28
42
38
32
17
34
45
48
47
31
35
27
31
41
46
50
54
44
47
37
35
34
36
40
40
43
46
47
37
34
39
38
36
37
42
46
47
43
41
32
35
32
41
40
42
45
44
43
37
32
37
38
35
38
41
42
44
40
36
33
28
29
36
35
49
45
46
43
36
33
35
39
37
29
29
46
50
39
33
30
29
39
38
37
50
49
44
48
35
27
35
30
40
37
31
43
44
38
36
37
30
27
36
42
43
47
61
37
46
38
28
30
38
40
43
45
43
44
37
29
39
28
42
49
56
51
39
47
43
41
37
28
33
47
59
63
38
26
27
34
33
34
37
43
36
42
43
39
39
35
36
35
33
38
38
47
44
36
35
29
33
42
40
46
39
46
41
45
42
33
35
42
40
42
49
50
53
47
40
37
43
45
50
58
58
62
63
78
50
54
42
47
53
54
60
66
67
58
54
49
52
51
44
49
48
49
37
43
32
28
27
45
39
43
50
31
35
37
38
28
32
29
34
40
42
47
33
34
33
30
30
32
38
34
41
40
43
33
29
34
26
33
29
35
34
36
32
22
18
13
10
16
32
41
55
63
70
88
78
81
94
112
122
138
131
126
104
75
39
9
-14
-14
-7
-8
-14
-14
-25
-24
-25
-18
-12
0
13
22
34
18
26
22
21
22
26
35
36
30
41
37
27
31
36
34
24
29
41
43
38
37
35
38
30
29
34
38
38
36
43
43
36
35
33
32
38
39
46
51
53
45
44
43
29
33
41
50
40
45
51
46
46
34
35
40
46
50
63
38
57
47
55
45
40
44
49
51
57
60
61
55
56
56
48
55
56
60
63
64
69
70
71
