130
108
111
127
142
105
118
130
123
122
129
114
125
125
124
112
130
123
106
120
124
125
129
133
106
76
103
121
130
142
132
120
131
119
119
138
145
108
120
113
135
126
120
127
145
130
125
124
132
127
133
123
116
123
97
101
120
138
137
145
110
81
109
113
127
110
116
123
117
112
119
129
114
123
115
105
103
105
133
134
133
116
103
99
113
140
131
121
110
105
120
111
104
106
106
129
132
142
133
127
104
88
97
107
108
117
138
140
110
112
128
130
126
142
155
162
144
95
113
108
131
138
122
110
114
116
105
114
120
126
123
110
111
115
109
117
110
118
107
110
116
98
101
85
71
107
113
116
116
89
85
97
107
101
101
100
98
97
93
96
82
65
73
92
97
125
103
92
132
154
164
175
196
231
251
268
268
247
235
201
152
104
87
78
84
71
68
50
72
90
82
83
85
101
82
97
103
117
102
98
101
106
119
118
128
118
85
92
94
98
102
118
107
111
65
90
78
122
111
104
121
119
107
107
96
93
116
121
130
114
117
126
98
105
121
120
120
125
123
133
116
101
102
113
122
131
130
119
133
109
105
118
126
126
118
115
116
117
106
124
112
127
146
165
118
120
135
126
113
133
156
136
131
136
130
139
148
124
129
144
135
157
145
135
148
136
153
176
156
150
156
141
156
159
157
137
144
163
158
153
128
140
151
159
142
136
135
143
162
175
159
145
133
145
129
119
126
139
133
130
124
124
142
159
152
127
128
134
126
105
125
109
105
107
130
142
117
137
133
125
126
110
123
123
121
128
129
107
125
133
108
133
143
118
116
125
123
122
132
125
122
137
151
126
109
106
113
132
125
116
137
131
118
136
146
114
104
113
109
126
112
114
155
144
141
118
137
125
128
113
117
146
145
137
133
121
124
146
153
139
113
120
127
129
150
147
110
136
136
148
141
138
126
117
146
126
94
110
139
135
125
125
144
137
129
124
121
123
134
133
124
139
133
123
131
111
125
127
135
139
134
133
145
108
99
115
146
152
139
119
127
112
123
123
126
121
122
124
114
132
120
114
132
142
133
158
154
145
149
138
141
151
152
134
155
166
160
163
135
158
160
154
143
158
164
144
139
120
148
143
126
120
136
130
131
157
145
135
111
121
117
115
115
129
131
114
128
112
116
121
123
134
137
134
136
120
116
134
122
119
136
122
114
129
109
100
127
96
129
136
138
149
151
153
171
192
199
239
246
284
300
292
277
229
196
173
139
113
99
112
119
94
110
114
113
94
98
132
138
115
129
126
106
120
117
128
123
123
125
135
126
110
123
127
128
126
138
135
133
132
121
116
110
115
124
139
124
128
128
140
115
107
117
105
139
174
141
118
134
148
123
115
120
130
121
135
140
132
139
144
146
153
123
119
125
130
117
143
144
144
149
137
127
140
137
136
129
132
141
153
155
163
150
144
156
138
142
147
132
149
179
173
148
151
171
155
154
132
140
154
151
163
153
158
141
162
175
159
157
172
153
152
156
143
154
156
158
155
150
152
134
144
169
183
175
168
169
181
144
135
159
158
161
177
140
147
165
144
159
155
139
141
138
147
150
152
144
139
137
132
142
146
136
148
125
141
134
138
134
131
137
113
92
134
166
168
158
126
124
136
151
157
129
127
107
157
126
126
131
126
125
123
148
131
130
135
115
123
123
125
148
149
151
146
150
135
142
139
141
150
152
153
148
160
139
139
140
150
136
152
156
166
146
106
134
137
133
138
115
120
123
139
145
126
119
133
146
135
136
138
145
164
145
143
137
151
147
140
148
152
144
137
140
130
120
131
142
148
129
156
133
121
134
139
129
114
138
139
142
146
151
145
138
142
144
150
156
141
137
154
137
136
130
112
141
150
136
137
146
148
159
148
166
119
130
141
149
138
145
188
166
135
143
137
138
155
162
153
148
159
164
153
164
163
147
135
141
137
156
171
133
128
147
148
142
140
137
146
144
137
132
139
137
128
145
136
143
150
147
146
132
116
104
85
106
119
122
122
119
125
134
124
147
133
130
152
131
136
142
152
171
205
220
247
264
283
299
301
273
256
224
172
125
114
91
87
105
94
96
97
93
102
114
126
122
126
125
131
131
131
125
139
155
137
127
122
119
107
103
116
103
145
140
121
118
131
125
119
136
119
120
137
104
120
149
149
130
132
117
124
127
159
145
133
139
111
125
138
138
128
132
135
127
152
167
122
127
143
147
145
118
113
107
127
136
138
135
123
142
156
154
148
149
136
144
146
132
136
155
149
142
146
142
136
125
152
160
175
175
161
159
159
147
171
161
176
167
163
166
167
175
163
163
172
154
143
142
157
165
130
143
135
158
154
157
159
156
149
145
167
170
167
153
129
142
140
145
134
132
151
146
143
156
160
147
135
132
134
140
120
126
124
124
136
139
146
131
124
106
122
121
126
131
123
128
145
127
126
122
131
132
124
131
120
114
110
119
128
129
145
156
123
70
64
108
130
140
119
111
136
142
118
144
144
109
132
122
144
101
117
127
142
122
127
113
132
129
135
139
141
140
138
137
136
126
129
127
118
134
118
125
154
152
134
127
129
144
123
121
134
154
149
137
123
126
125
132
138
120
121
113
130
157
141
143
127
118
110
133
134
122
143
123
116
140
134
110
112
126
139
145
129
112
108
132
135
136
120
131
125
152
151
146
140
144
133
119
135
142
145
107
119
142
152
147
161
130
112
125
145
142
143
115
134
163
153
176
138
129
139
124
137
136
131
136
134
137
124
131
147
153
146
115
106
126
140
136
137
122
123
128
121
144
111
102
118
121
125
129
120
121
117
111
116
129
127
140
151
129
100
107
103
108
97
109
121
107
110
103
133
161
166
193
213
232
257
277
297
288
245
209
181
134
106
106
95
105
106
93
100
91
78
93
109
106
97
108
113
112
129
134
117
108
115
141
124
132
120
120
110
115
114
115
117
124
117
108
137
136
104
122
131
118
121
122
107
104
117
122
116
98
115
139
137
126
120
134
139
132
116
112
131
132
123
119
140
142
135
133
138
147
151
143
120
112
135
144
153
141
142
146
138
146
157
143
140
148
156
160
164
165
144
149
120
142
157
153
163
148
156
148
160
162
156
161
160
150
142
151
184
167
174
160
140
144
137
161
178
167
165
171
161
161
168
177
188
170
163
158
160
164
166
176
176
179
180
172
108
135
156
160
146
160
161
138
144
145
149
168
130
143
138
142
135
139
137
148
147
114
111
140
150
142
134
123
135
122
146
132
131
134
123
125
149
149
134
136
140
155
129
141
140
150
138
130
116
124
138
134
138
137
143
142
160
143
105
154
142
155
153
137
135
114
110
129
129
140
139
157
137
144
121
123
139
147
161
143
133
129
145
156
148
147
138
129
142
137
124
130
160
147
139
144
146
151
135
133
142
144
146
143
147
147
143
148
151
153
137
142
172
145
137
125
129
134
129
115
117
134
145
143
123
128
139
143
143
142
142
148
157
144
137
152
144
120
146
150
136
148
140
149
151
134
131
141
160
154
129
152
145
154
145
160
163
147
160
170
158
139
161
164
163
163
157
175
175
150
161
178
165
161
146
128
154
174
177
164
129
127
123
129
145
170
140
146
135
139
136
125
116
127
137
142
131
127
118
121
135
138
126
149
129
137
152
133
146
147
134
133
131
136
134
128
144
147
139
177
194
214
255
273
289
318
284
301
263
243
201
177
145
130
114
105
111
115
113
110
120
126
126
105
136
129
147
150
143
130
132
119
129
129
153
129
121
152
132
133
129
141
140
143
164
152
137
125
107
122
136
140
138
132
126
129
128
132
132
138
151
149
148
139
145
140
126
132
152
148
144
148
138
136
118
147
172
143
156
154
141
145
152
161
158
154
158
147
150
154
151
167
167
175
162
172
144
151
166
155
147
133
127
143
132
164
179
176
186
178
177
159
152
173
161
161
165
181
182
164
181
188
187
178
165
181
162
172
171
180
181
189
181
173
170
165
194
196
189
148
142
140
161
181
190
196
157
141
135
163
173
150
139
132
158
158
145
136
150
163
162
153
157
149
150
156
151
161
158
163
136
137
151
144
116
118
138
143
169
159
144
150
120
147
138
155
138
131
140
142
142
122
120
135
156
158
140
117
125
124
149
120
143
147
150
149
142
135
136
175
140
136
143
155
165
145
117
140
136
144
139
133
140
150
164
147
160
155
135
144
135
128
145
132
141
125
135
152
152
150
151
148
144
142
143
150
156
174
140
135
137
130
134
124
135
144
133
143
141
141
125
133
141
153
147
126
128
143
119
104
107
118
130
127
120
145
140
142
154
146
121
139
131
139
134
132
142
153
140
155
127
111
131
135
136
120
133
133
134
125
138
153
152
148
149
145
157
154
171
166
160
161
156
114
138
147
139
149
158
150
145
162
154
165
154
155
158
146
138
126
126
131
138
138
138
134
128
122
139
145
140
158
148
135
127
141
136
120
116
103
121
135
124
135
137
141
142
126
121
135
142
127
132
129
141
138
125
141
139
151
191
217
245
271
293
312
312
311
289
259
228
175
118
123
109
112
130
118
115
120
124
112
113
126
150
143
148
133
158
137
113
131
139
148
142
141
154
133
137
107
134
119
146
128
133
129
116
133
131
127
111
127
137
134
139
140
136
147
152
147
158
139
154
147
133
136
141
136
129
144
139
164
163
158
154
142
149
146
123
152
150
150
156
151
154
147
145
147
137
154
159
161
164
156
165
150
137
151
165
152
150
156
153
153
144
164
179
156
156
165
153
166
183
184
162
164
171
173
170
175
176
172
170
176
168
176
179
180
201
173
173
188
182
160
186
157
167
183
184
184
173
195
194
170
174
149
165
151
157
133
138
170
161
155
143
143
150
159
157
163
156
129
113
151
172
136
152
143
167
157
160
153
137
150
146
153
156
159
144
142
141
154
140
151
151
152
162
151
145
141
149
152
151
162
153
137
118
150
145
139
140
142
166
167
148
138
141
125
108
123
140
155
160
162
157
153
147
154
139
140
183
165
153
150
142
155
165
168
146
148
139
148
151
148
161
160
149
146
153
143
154
158
157
148
147
154
123
157
175
159
150
149
151
116
135
156
157
152
136
132
140
126
133
158
161
156
123
132
127
145
146
153
130
139
141
138
140
141
146
137
144
151
149
139
140
138
140
142
144
141
138
149
151
154
155
135
128
160
136
139
124
137
146
155
152
137
157
158
149
137
147
147
140
127
123
140
152
147
113
132
126
111
133
115
118
136
120
122
135
123
116
121
106
123
126
111
132
133
117
124
126
122
129
129
126
121
127
115
111
107
125
114
123
146
153
181
201
201
232
241
255
285
282
257
224
190
155
121
111
96
84
90
92
77
64
81
91
83
92
107
129
117
110
112
114
123
117
139
122
124
122
139
125
118
122
117
125
128
135
122
114
113
131
131
145
130
123
96
119
94
96
99
114
115
121
136
125
116
108
129
115
121
105
107
135
122
131
141
145
136
141
142
129
132
133
135
134
129
156
150
160
139
129
120
99
132
140
152
151
167
159
138
123
147
132
131
128
152
148
121
146
156
154
161
148
154
157
150
154
168
162
158
163
160
164
163
173
175
169
170
164
176
166
167
159
152
162
168
164
164
163
159
163
160
167
168
157
141
147
157
170
145
131
152
150
148
160
149
134
158
149
130
139
130
124
131
131
153
154
147
137
153
134
132
131
121
153
139
130
144
145
139
145
142
140
125
122
137
138
137
125
131
141
129
141
152
141
131
125
129
139
145
151
139
131
136
134
130
134
151
143
147
159
125
132
116
126
123
151
144
152
154
153
150
166
126
136
135
158
148
132
150
157
143
141
137
126
133
148
166
143
152
164
158
150
129
146
156
152
148
146
153
141
125
146
149
144
133
148
155
150
150
156
149
146
138
130
116
128
141
125
143
139
140
136
109
132
130
132
119
147
150
109
145
138
137
144
144
152
153
121
142
133
136
145
142
127
131
153
163
154
136
141
156
152
149
163
148
120
120
155
154
164
160
152
160
180
152
159
144
157
162
158
171
176
165
169
160
166
123
132
148
163
155
160
129
116
125
133
137
140
124
136
129
139
142
151
153
147
142
143
130
123
125
127
140
142
132
148
141
135
130
135
129
157
155
134
142
126
130
138
147
147
133
148
167
173
189
217
250
239
280
310
315
298
288
253
251
161
118
119
121
119
102
87
113
93
125
138
133
122
121
122
123
138
148
150
139
148
124
112
161
149
137
151
126
152
158
147
154
149
151
152
149
140
138
153
144
134
132
158
137
141
144
153
150
155
154
145
152
147
149
133
129
136
151
158
148
130
98
139
152
157
148
160
165
170
158
163
184
171
145
133
138
148
151
149
151
154
152
149
162
165
170
156
166
178
189
173
147
147
156
167
181
176
164
168
153
159
177
175
172
168
166
173
176
160
177
187
191
169
179
171
169
175
180
195
154
167
168
173
179
173
175
170
182
185
172
184
180
181
165
185
173
167
164
183
172
172
161
157
155
164
171
160
148
156
156
166
155
156
162
148
142
160
168
162
148
141
161
156
147
160
181
165
153
159
166
156
140
143
156
163
166
135
120
136
146
144
137
151
149
149
155
172
162
159
153
151
157
151
155
147
156
150
164
157
162
181
162
150
157
155
165
145
161
158
155
147
140
149
169
172
166
175
178
173
152
161
151
146
145
153
142
148
165
181
151
148
149
158
157
155
155
160
153
169
156
160
147
155
142
134
141
156
156
133
161
166
161
157
142
148
155
158
151
128
137
160
149
139
157
160
143
145
155
147
150
144
131
146
174
169
155
146
141
135
161
166
169
154
146
161
166
133
136
156
156
157
143
164
164
162
148
145
155
156
164
137
157
159
178
182
170
174
176
177
166
168
176
171
160
182
185
155
170
163
155
145
160
161
149
158
145
133
153
154
152
170
157
123
101
108
141
152
140
140
155
154
139
142
143
143
136
132
144
149
141
147
130
152
151
145
140
147
133
137
151
142
145
176
171
165
188
219
241
249
281
299
314
314
292
265
244
179
135
112
115
107
110
112
119
124
114
89
111
122
134
131
150
160
139
136
162
142
112
136
147
118
129
152
142
145
154
156
156
136
124
133
137
132
140
164
157
139
149
152
146
147
148
148
136
144
157
175
157
151
140
143
142
151
149
138
164
176
159
155
168
157
158
166
128
160
155
150
146
145
145
155
147
155
162
163
162
172
168
128
146
167
201
176
156
160
162
160
160
158
187
188
183
176
178
182
188
201
196
179
177
176
189
191
182
179
177
194
190
175
181
194
190
167
202
198
183
190
192
193
194
173
153
169
179
187
190
178
209
168
151
167
170
162
160
157
168
176
166
157
161
174
183
183
170
155
156
150
148
150
151
150
161
164
155
144
173
173
153
153
146
140
153
153
154
166
151
153
160
155
149
148
129
153
167
165
171
149
139
134
109
133
142
150
159
147
154
151
138
142
141
144
157
136
137
154
159
159
154
151
152
147
162
157
166
159
156
163
160
146
148
155
145
150
157
142
135
137
139
158
133
166
179
141
130
137
149
153
149
147
151
155
156
147
141
127
147
148
140
155
145
138
159
169
144
135
138
147
120
124
134
141
147
153
142
127
158
143
130
158
132
160
166
158
145
139
146
142
152
147
141
134
131
145
134
140
161
162
141
133
131
132
145
128
125
115
122
133
135
142
138
136
149
127
131
153
170
157
155
152
162
167
168
160
151
159
146
133
125
142
161
150
164
160
152
154
156
135
118
130
143
140
157
171
118
132
126
121
126
124
135
115
124
134
155
156
132
140
133
120
136
152
108
115
129
134
121
100
106
107
101
130
138
124
134
125
123
149
161
154
183
244
258
278
289
317
304
290
250
216
188
144
110
103
107
103
106
112
110
107
131
133
129
125
134
120
116
112
118
122
136
155
132
133
141
132
149
129
100
130
133
133
152
170
147
135
141
123
120
121
150
138
131
141
149
156
151
152
148
148
135
126
125
161
162
129
146
156
165
168
139
154
152
153
159
157
161
163
157
160
160
143
149
153
155
155
144
141
149
162
138
144
158
164
169
159
151
135
150
169
146
169
155
159
180
176
175
190
165
176
171
172
164
152
168
181
169
166
164
162
172
202
204
182
173
161
174
162
185
166
163
164
180
192
195
180
173
169
173
186
177
180
184
171
175
177
180
178
157
167
172
147
157
171
154
160
166
155
155
144
148
151
171
168
177
174
183
161
142
137
147
145
146
147
155
157
164
151
161
151
132
159
139
155
158
163
166
170
163
137
157
160
159
169
171
140
141
143
144
168
156
128
152
153
166
156
148
184
145
134
162
156
158
153
168
174
143
142
146
160
159
116
140
177
182
160
160
169
166
156
158
174
160
140
148
156
148
181
181
181
159
160
164
167
180
193
164
150
136
130
142
151
131
153
156
157
151
150
150
143
144
149
159
152
148
153
167
143
154
153
158
160
154
155
149
178
158
153
155
153
142
140
157
165
172
131
145
137
134
146
157
145
148
164
142
147
160
163
155
148
166
152
146
178
173
161
172
186
162
172
185
195
183
173
158
166
181
169
171
173
177
166
136
155
172
157
163
154
151
158
161
150
160
138
138
140
149
156
147
138
142
145
144
144
141
166
162
154
155
161
110
138
159
177
156
131
143
156
163
151
145
142
130
131
147
149
159
148
159
173
206
206
250
278
279
289
314
305
308
282
254
212
170
139
117
95
108
122
120
119
137
141
132
145
126
128
136
139
140
165
130
144
164
153
153
160
135
142
133
146
129
144
146
147
147
154
162
162
159
156
138
126
142
141
160
138
130
149
141
148
161
163
169
152
152
138
148
167
146
137
144
149
147
145
168
155
155
168
128
135
156
163
158
153
153
160
169
162
163
165
148
177
174
164
157
152
166
159
160
175
158
158
162
164
169
181
184
179
175
171
183
179
165
173
184
198
182
190
171
167
170
184
206
180
184
200
178
188
176
208
199
189
175
178
164
161
168
176
165
167
180
199
183
178
158
163
167
175
181
188
167
168
161
164
154
151
196
167
146
159
174
189
177
172
164
145
141
161
165
166
155
167
150
141
152
154
160
159
146
152
142
146
143
167
159
156
130
160
152
165
160
168
142
153
140
134
133
129
175
173
153
139
157
159
154
151
158
161
170
159
142
150
167
156
145
157
162
174
158
162
163
150
117
154
187
154
140
145
164
170
161
153
165
158
155
161
134
122
148
172
169
174
174
156
148
170
164
150
161
178
146
139
171
125
126
148
144
146
140
150
144
148
140
149
168
158
146
147
162
150
150
162
144
138
118
136
137
128
140
158
168
147
150
159
146
140
145
170
155
150
151
139
140
142
131
130
156
156
154
169
161
145
144
145
144
151
159
162
156
165
174
167
171
173
165
134
129
136
166
158
157
159
137
142
170
160
146
162
165
142
142
152
107
102
129
129
124
138
130
120
137
140
141
132
133
136
151
130
135
145
133
134
133
133
128
135
128
146
154
114
118
125
126
121
118
121
132
153
180
193
229
246
270
300
262
262
266
265
236
184
134
107
90
95
93
95
115
108
112
98
105
103
109
109
96
97
115
106
121
120
120
121
118
121
135
133
127
118
120
130
135
138
132
111
138
139
128
140
128
140
134
132
140
120
105
114
116
121
141
118
121
141
144
134
132
124
108
93
111
118
128
135
138
102
120
122
131
140
122
127
134
137
144
128
117
109
129
138
134
134
118
116
124
130
141
142
137
134
138
148
145
163
147
151
143
147
152
154
135
139
136
152
149
141
133
167
153
154
167
154
150
148
140
141
135
147
150
171
139
158
152
150
141
150
158
162
160
153
153
154
158
141
150
135
112
140
159
149
143
128
133
143
151
154
152
144
124
124
117
107
115
114
135
139
129
129
128
144
148
125
128
129
111
107
110
130
138
144
138
135
114
109
126
121
136
124
110
120
121
123
120
119
120
120
117
147
146
134
125
143
142
135
111
116
104
122
107
144
136
123
121
93
119
162
158
137
137
134
139
139
141
138
139
123
121
132
132
140
124
136
124
136
140
133
131
131
134
136
131
142
124
124
115
138
149
114
114
128
136
147
132
133
145
123
137
124
126
139
143
146
150
126
117
131
147
133
127
135
120
117
131
109
119
151
145
133
114
124
124
148
124
127
130
141
127
136
143
116
130
141
144
140
131
116
124
147
138
143
154
140
144
141
149
149
156
148
152
153
154
156
163
156
109
136
150
159
155
158
149
141
159
129
140
146
149
140
117
123
161
135
114
121
143
147
130
122
121
93
105
114
127
124
140
118
130
118
123
116
123
114
127
116
129
121
110
129
132
153
121
80
99
136
131
114
134
180
188
200
226
264
295
287
286
286
249
199
191
147
117
110
113
111
122
105
98
84
100
114
124
121
114
120
114
111
124
130
129
128
126
121
118
140
140
143
139
117
112
110
110
125
110
109
142
120
116
120
96
114
117
121
143
138
143
137
130
130
127
126
120
120
132
141
144
152
141
139
139
131
120
127
125
142
159
136
129
135
146
146
155
126
111
146
127
133
136
120
125
140
138
138
138
135
132
146
135
150
175
156
149
157
149
143
166
151
140
169
167
149
146
162
161
164
159
178
149
157
170
168
184
168
150
146
162
157
155
145
153
163
177
168
145
160
170
160
148
163
161
171
147
142
161
166
173
159
154
140
161
162
156
147
154
145
136
128
154
163
155
148
157
131
131
132
140
144
145
137
140
138
130
142
128
133
137
154
147
130
128
134
132
139
145
137
143
143
147
139
138
135
128
126
136
134
134
147
152
154
142
146
153
141
134
125
135
145
151
136
151
154
150
148
157
143
163
153
137
132
134
147
141
134
125
133
146
153
152
162
163
151
140
131
134
149
148
152
170
139
131
150
152
140
135
135
144
130
157
141
138
144
141
134
130
149
150
139
143
125
128
126
146
146
136
134
136
135
141
124
122
135
151
157
154
173
153
141
136
146
129
141
142
125
139
124
131
139
137
146
139
144
142
143
141
111
140
125
135
136
128
158
157
155
145
146
158
181
151
142
153
152
165
160
152
150
153
149
160
164
166
162
149
148
156
133
138
142
128
138
143
123
133
128
127
134
115
117
124
129
134
132
127
144
146
133
125
119
134
142
120
111
128
142
137
118
144
137
146
139
98
93
112
103
127
139
133
151
168
197
219
261
284
288
297
293
279
261
222
183
121
97
99
85
88
92
78
81
90
110
116
126
133
125
113
117
122
131
120
121
121
140
128
111
121
125
106
109
127
134
129
115
133
131
124
123
138
120
118
137
142
121
123
138
130
119
123
133
127
127
129
138
129
120
138
106
124
131
140
124
121
121
113
118
125
158
148
146
113
125
136
132
131
142
133
137
131
125
139
129
113
143
139
150
165
153
141
145
178
165
119
107
131
156
166
136
139
143
147
142
143
152
154
160
146
129
141
150
142
152
151
149
171
178
174
170
133
134
144
147
147
154
157
153
162
149
151
159
153
118
120
134
129
129
141
152
144
146
149
132
137
132
146
128
111
122
130
157
118
127
134
126
124
119
118
134
132
118
123
113
120
118
108
110
116
110
112
121
122
112
112
97
113
122
113
91
110
122
118
112
111
115
123
127
122
129
125
118
124
113
116
111
132
125
119
111
99
124
108
96
105
110
134
111
105
111
129
123
114
131
154
105
117
102
108
121
109
111
111
122
113
116
118
118
119
135
121
116
133
133
113
97
104
117
124
115
112
115
113
107
120
127
121
112
102
118
119
115
117
115
113
113
102
103
110
108
112
124
127
120
104
119
113
114
105
118
108
130
109
107
112
94
102
128
135
121
108
114
114
105
109
116
113
112
110
116
136
114
120
127
133
124
132
115
145
133
128
127
129
141
114
111
114
130
122
120
129
126
112
116
104
115
128
109
123
97
98
98
97
94
81
103
100
103
127
104
111
131
117
102
97
100
107
107
99
96
80
76
77
81
91
108
101
93
100
95
109
118
126
146
156
176
193
218
252
266
263
253
222
187
139
106
80
73
75
58
82
88
63
70
75
62
80
116
86
87
113
105
113
79
75
102
111
115
98
103
106
98
101
83
85
90
96
126
106
107
98
86
86
78
79
81
112
86
103
100
92
94
106
115
110
111
117
118
110
106
106
98
98
114
123
101
92
81
102
115
125
122
111
113
109
95
95
114
98
112
139
111
109
137
87
128
136
126
112
117
112
111
89
120
150
129
136
149
96
110
123
134
123
121
118
131
127
132
139
131
134
136
131
118
126
145
138
136
123
135
149
146
133
120
128
131
152
136
134
136
110
122
109
137
146
142
127
127
123
140
146
127
132
125
103
120
137
136
131
127
133
106
116
116
101
90
111
104
114
119
115
108
90
108
103
100
103
108
100
99
100
122
88
92
109
108
118
106
136
107
94
91
103
112
116
116
111
112
126
123
120
108
93
83
109
108
112
115
111
121
117
124
100
100
111
124
101
77
116
119
114
108
112
116
122
129
121
110
110
118
109
104
133
117
121
122
112
109
119
113
112
113
113
111
86
97
117
121
111
92
98
95
100
109
118
100
99
100
94
112
110
116
110
121
118
120
124
126
118
110
110
96
105
118
115
125
128
109
97
93
115
105
87
107
111
123
107
112
110
107
107
119
110
108
112
116
130
112
116
101
105
117
108
120
109
134
127
135
147
152
143
133
129
115
98
115
112
120
126
135
129
121
110
132
114
119
121
136
130
121
120
110
100
101
114
105
123
131
122
110
103
125
112
106
99
122
116
122
113
105
91
121
125
109
121
119
135
102
99
109
83
93
126
128
137
115
129
139
173
203
209
239
243
258
260
267
242
204
149
107
107
94
107
111
93
104
101
96
101
89
106
97
111
122
111
109
112
117
117
125
96
117
112
103
101
119
107
115
117
124
136
131
93
96
119
109
119
119
122
96
89
84
109
117
136
134
145
127
129
130
132
126
133
115
97
91
117
125
119
126
127
119
142
115
99
115
119
120
115
122
125
114
119
128
121
124
121
116
107
119
138
127
125
135
148
165
131
118
132
144
138
143
146
172
143
160
131
143
157
151
150
136
129
142
148
145
158
143
140
146
150
147
148
145
144
146
152
157
145
156
144
149
131
154
159
155
160
167
156
149
139
150
151
149
141
140
158
146
156
148
126
134
126
120
129
120
128
134
136
143
133
127
125
140
129
127
142
151
147
142
116
123
135
139
127
136
133
116
127
137
143
120
139
127
111
118
129
134
120
105
137
131
106
129
136
133
135
126
132
140
140
139
140
131
130
137
132
129
118
129
166
143
146
139
150
129
137
131
134
134
141
123
94
139
174
175
140
125
127
126
133
127
131
138
144
139
144
139
140
148
137
145
130
126
125
141
142
142
127
114
105
132
132
124
132
166
161
131
129
156
144
140
128
113
125
128
155
146
159
145
153
133
143
151
153
136
159
148
106
104
131
129
130
121
131
131
131
139
127
136
151
141
145
138
139
146
149
134
145
153
156
155
139
144
140
152
151
166
144
148
177
158
157
140
137
151
146
140
128
147
132
139
157
137
135
143
139
125
123
121
115
116
122
118
139
141
139
122
124
127
132
126
109
132
122
137
140
129
145
124
132
123
115
133
146
143
135
134
139
152
162
168
184
211
253
276
285
300
296
268
241
225
177
122
115
86
95
129
116
119
112
97
108
127
124
118
125
126
121
147
133
128
157
139
132
129
130
132
129
126
136
130
138
126
125
130
137
121
98
139
145
144
140
148
145
152
141
122
140
150
144
140
142
124
113
125
119
130
137
129
139
120
128
139
150
143
141
143
145
156
152
131
141
145
171
154
120
121
129
162
169
149
158
158
159
151
144
159
153
138
147
162
173
160
156
147
138
156
152
154
149
156
162
148
163
156
148
171
176
187
151
176
143
164
181
137
158
165
187
147
165
169
164
169
179
161
148
161
169
176
167
163
164
161
153
164
158
142
145
166
163
159
156
158
169
148
162
142
144
150
148
157
161
146
145
142
152
135
126
130
121
144
148
155
155
141
127
136
153
124
132
129
121
112
168
165
143
134
128
129
132
144
134
127
128
131
141
148
147
122
129
139
137
135
142
136
169
144
91
111
154
157
167
153
151
146
137
139
138
137
146
142
124
136
164
166
136
129
135
148
143
148
149
137
130
143
128
135
134
126
131
136
136
127
115
118
137
146
137
135
141
140
138
145
145
134
125
127
134
116
130
137
124
131
131
123
126
131
143
145
147
140
130
129
131
129
133
142
141
143
129
136
143
126
138
130
102
117
131
127
126
125
129
133
142
138
112
125
144
157
162
150
152
137
147
160
156
153
150
151
148
148
151
161
160
155
144
146
139
141
148
145
130
142
120
124
125
117
127
149
142
122
131
125
133
146
129
135
98
96
114
132
124
119
126
147
130
132
129
131
106
104
134
147
151
137
126
137
129
132
135
142
154
177
193
222
256
283
300
293
296
287
243
215
169
109
88
89
73
85
94
84
103
121
84
93
93
88
110
125
132
125
131
131
118
121
112
122
134
130
125
133
133
143
114
109
142
132
146
146
146
127
89
125
125
119
158
133
138
120
111
116
128
126
138
146
138
134
132
134
136
130
155
154
134
136
137
134
137
139
144
159
134
156
134
148
146
137
151
132
147
147
154
164
161
129
137
105
139
150
154
148
161
166
154
164
152
170
156
151
153
182
173
144
143
149
156
152
156
161
157
148
144
180
146
154
164
165
159
162
169
153
167
165
140
163
184
195
167
178
171
165
169
146
139
158
158
163
151
146
167
171
148
147
143
141
138
145
138
137
136
143
138
134
130
136
133
100
111
129
126
142
138
117
107
116
105
128
150
138
106
129
144
131
127
128
129
117
124
108
126
120
122
120
129
141
141
110
111
117
124
118
117
111
119
145
129
130
124
127
120
114
113
123
121
124
121
126
141
127
117
113
148
131
102
112
108
113
138
104
125
128
122
110
120
108
115
114
125
136
125
125
137
120
100
112
131
140
126
126
99
127
101
121
137
132
128
144
121
119
131
133
137
107
74
102
153
125
127
121
121
125
106
121
116
135
136
129
127
120
109
125
132
131
120
120
126
127
142
140
136
118
114
121
122
132
139
138
135
128
133
144
137
138
142
156
153
152
146
135
118
115
134
129
115
143
160
156
139
117
145
136
132
125
136
89
93
122
106
89
99
127
133
143
109
101
108
118
134
135
119
117
107
108
116
121
134
132
121
114
110
114
108
109
95
117
144
120
124
134
162
160
205
243
257
254
246
274
259
247
214
177
138
78
76
76
106
91
97
87
100
102
123
109
114
110
100
95
108
102
100
111
108
119
126
124
96
100
111
125
114
113
89
93
115
133
152
129
107
106
136
119
130
137
123
127
122
128
112
128
126
121
114
124
127
117
112
118
138
133
131
136
119
115
122
131
123
115
116
136
121
115
111
117
123
135
127
133
110
116
137
129
118
128
137
148
134
135
133
140
146
126
134
145
149
159
157
148
137
157
142
120
140
140
141
145
151
134
128
157
166
165
162
157
135
150
153
161
141
138
138
153
130
143
156
146
116
131
147
158
139
142
151
154
147
147
132
129
121
141
156
137
132
135
132
131
148
148
130
159
121
122
109
111
122
125
124
115
105
120
135
111
105
115
116
120
110
99
99
120
145
122
118
127
133
126
136
104
85
122
111
119
117
125
121
116
128
126
125
107
134
129
135
101
102
125
139
138
134
129
113
115
114
125
124
120
132
127
128
135
127
116
124
130
125
138
133
133
110
104
101
132
142
130
129
121
113
117
112
96
140
126
120
132
143
119
123
132
127
128
122
116
105
122
133
129
129
134
129
126
132
111
116
134
111
88
112
137
139
128
102
105
120
128
119
119
120
111
122
124
125
119
119
104
124
123
133
125
141
117
118
124
120
125
111
141
147
126
147
144
129
137
157
143
128
146
136
145
118
138
126
136
135
122
116
124
158
126
124
117
136
122
101
103
107
119
129
128
124
111
115
108
119
125
99
103
108
124
115
104
117
106
100
115
123
132
93
106
108
109
114
93
105
132
130
131
136
150
166
188
212
227
251
270
269
258
248
234
190
129
90
98
99
95
95
102
91
90
106
110
99
134
116
111
119
113
116
123
120
111
103
107
105
114
113
89
98
126
117
108
102
119
118
109
121
124
122
133
121
110
117
119
110
116
120
125
121
148
124
103
107
111
112
116
134
139
116
110
126
106
114
132
132
112
147
129
135
130
139
131
124
136
138
121
150
119
117
123
148
143
120
134
156
113
95
138
155
150
139
140
142
132
145
145
145
131
146
148
148
143
132
161
159
152
150
141
130
128
165
154
141
139
153
141
158
164
161
137
140
141
142
137
140
173
147
163
199
142
134
132
138
133
128
152
149
144
146
138
131
125
138
116
124
126
111
113
122
122
134
146
134
120
122
112
124
142
123
121
121
105
111
117
123
122
124
112
123
130
133
104
104
116
142
119
107
118
133
119
122
113
106
127
120
111
116
132
138
124
121
125
113
118
113
124
142
141
127
129
119
124
147
125
101
118
98
112
134
138
115
112
121
134
141
124
127
114
132
141
134
120
110
102
117
130
125
118
122
120
110
130
128
117
109
128
128
122
118
121
110
104
103
110
107
123
119
126
119
109
119
125
127
134
108
130
125
122
116
129
133
121
93
119
107
107
121
114
118
137
111
129
119
116
128
118
118
110
109
115
115
136
118
112
112
117
115
137
131
133
131
135
146
144
135
152
145
112
140
138
125
117
146
147
128
114
131
169
122
115
112
115
128
118
113
114
78
89
87
112
109
115
108
119
107
110
105
110
114
130
94
106
117
117
104
116
113
115
123
117
102
108
110
112
102
110
121
142
133
144
169
208
232
251
273
288
273
260
232
177
104
75
72
122
126
90
75
107
84
86
83
105
111
86
89
71
145
133
108
99
101
118
97
106
122
110
93
97
97
111
109
107
104
111
96
98
127
120
93
85
99
122
121
130
118
110
113
111
116
107
130
108
113
106
126
115
108
104
115
123
124
138
127
117
97
104
102
104
127
118
126
110
116
131
125
115
124
95
83
90
110
111
114
127
126
138
131
124
117
127
132
143
127
121
124
129
137
143
127
131
143
134
158
135
146
144
138
110
128
135
122
133
134
136
146
140
133
130
127
149
163
143
156
133
122
150
120
140
155
122
126
134
124
126
132
138
161
125
125
127
120
141
127
130
117
92
113
99
110
128
131
129
119
114
112
122
117
107
91
95
123
113
101
104
96
104
132
128
117
113
79
118
139
121
112
108
112
118
122
114
104
102
107
117
107
108
114
117
96
109
113
116
129
111
105
118
122
116
109
84
100
109
109
107
98
106
119
115
86
84
107
131
127
109
119
128
122
107
124
105
104
118
106
118
106
116
122
114
121
105
109
128
106
107
116
104
107
109
99
104
118
122
106
103
107
109
109
108
107
103
92
81
113
95
93
100
106
117
92
109
119
107
109
108
107
108
117
118
109
110
94
104
97
107
107
97
109
88
102
111
124
111
127
103
130
139
137
143
132
127
108
120
131
150
162
130
116
102
111
128
123
129
135
120
125
119
117
113
108
105
104
101
118
115
116
112
117
104
115
93
110
99
112
104
101
97
94
102
100
113
125
146
101
108
98
103
102
104
97
104
103
87
97
100
93
89
89
103
122
167
181
190
238
273
287
289
274
239
243
211
165
100
95
99
107
83
77
68
88
91
95
104
107
106
102
94
82
105
112
96
94
100
119
130
92
74
104
108
116
101
118
112
93
91
95
104
120
98
81
105
116
122
107
104
112
101
102
101
117
131
133
118
113
104
113
110
106
103
101
105
97
104
105
109
123
114
103
114
112
119
129
135
106
78
96
113
95
117
142
129
101
90
125
115
104
150
135
112
122
133
119
118
119
135
128
138
123
122
104
117
126
129
143
126
122
133
142
141
150
149
142
130
141
133
122
138
147
146
136
154
154
128
139
136
123
128
153
139
140
142
127
120
128
135
141
128
136
130
143
132
108
122
124
131
124
91
110
124
129
117
113
122
112
109
109
110
118
113
120
126
113
110
115
107
100
113
97
104
128
139
130
130
119
116
116
112
98
122
112
117
102
112
111
118
101
108
107
118
115
116
119
122
98
106
116
127
119
117
103
118
140
136
104
114
137
103
116
112
121
121
121
119
103
97
104
118
141
128
96
99
126
133
111
110
110
103
118
117
103
97
101
103
117
112
119
105
102
120
123
105
115
93
122
118
107
128
115
100
104
117
125
122
128
118
81
93
94
93
104
118
114
101
113
112
100
87
86
83
112
90
108
111
113
119
113
117
116
96
104
117
122
125
126
118
119
129
126
109
118
114
123
128
132
126
131
117
118
103
99
138
124
110
107
68
107
107
88
117
118
106
96
98
99
103
99
89
89
83
104
117
112
75
86
84
100
100
90
86
98
94
104
99
73
102
73
103
96
88
127
125
92
100
95
89
106
113
90
102
111
155
187
219
242
261
282
266
229
198
171
113
54
51
45
47
50
47
43
54
78
75
65
78
83
83
80
63
63
63
94
95
91
85
98
73
105
92
83
78
81
105
82
94
97
82
91
96
79
88
89
97
76
88
79
88
96
113
105
86
64
56
93
93
92
90
84
79
80
89
104
88
77
101
107
90
81
108
104
84
97
104
110
107
89
102
85
73
108
98
106
105
102
127
97
84
105
89
99
98
103
112
104
99
88
90
107
113
106
102
103
108
113
124
119
108
114
110
112
126
105
88
120
131
136
120
106
106
124
112
119
112
96
99
109
115
108
108
107
114
102
116
98
96
106
116
92
89
87
99
73
95
86
105
116
80
80
80
76
82
93
87
44
79
78
76
76
57
64
77
76
68
70
74
71
82
70
69
71
77
87
75
39
25
57
70
65
74
68
67
65
76
66
58
76
86
66
60
71
49
65
55
55
61
79
80
74
53
50
72
82
75
52
54
78
68
49
60
63
71
84
90
87
73
53
65
73
71
81
69
52
60
72
80
62
69
64
65
63
74
62
51
67
71
68
86
85
72
75
89
86
64
57
73
95
79
86
74
80
83
78
69
57
75
60
77
77
89
77
72
73
66
61
62
61
80
91
77
85
82
55
66
67
62
71
80
85
74
67
80
90
94
79
61
85
72
95
110
101
80
92
115
98
109
92
83
90
112
86
107
114
74
98
92
59
40
51
72
72
64
70
80
73
69
60
58
98
58
53
73
72
57
47
48
50
63
60
63
50
61
70
77
73
50
40
44
45
52
66
71
47
48
66
58
46
56
90
112
111
126
159
181
181
201
251
242
221
178
159
120
60
53
30
17
10
20
26
22
24
31
46
41
51
59
58
58
60
72
34
56
62
61
68
47
31
37
44
46
53
65
63
74
59
65
50
49
45
62
64
59
47
57
70
59
70
69
55
38
54
78
64
67
64
57
58
64
66
65
59
75
69
87
56
52
49
54
53
58
60
71
77
70
58
64
74
60
68
56
74
88
95
95
79
58
66
87
77
80
79
63
73
77
74
75
90
87
98
95
97
114
84
49
85
98
79
82
107
97
79
97
114
131
107
93
100
98
99
94
102
99
107
98
85
104
92
92
103
131
116
119
118
88
59
63
82
89
86
93
85
98
94
88
72
79
81
94
59
37
75
98
79
79
77
78
70
70
72
85
71
69
93
59
50
61
72
57
49
34
82
76
81
84
70
56
63
72
86
84
83
84
89
57
66
60
70
81
60
71
104
71
48
61
72
72
52
68
96
98
91
104
105
99
64
58
68
102
83
75
75
69
85
76
71
60
71
76
80
83
66
91
77
65
68
65
82
93
76
71
98
90
91
76
78
70
78
72
79
82
86
91
67
74
67
76
70
83
87
88
88
78
71
60
40
51
73
80
77
69
79
64
67
58
65
84
92
58
61
82
82
70
79
87
79
88
77
68
90
76
76
75
66
74
94
96
90
105
77
93
99
94
107
112
94
99
89
63
103
96
78
85
107
99
91
77
78
53
67
76
79
103
66
34
50
63
66
71
76
87
70
79
63
77
68
64
64
55
74
63
72
94
80
64
60
52
58
73
68
69
58
57
47
49
53
66
53
62
81
96
125
138
169
179
205
215
224
226
190
158
119
75
58
50
34
33
8
33
39
51
44
34
43
52
45
61
50
42
47
58
61
75
61
58
65
62
48
39
51
48
81
65
50
47
52
50
64
75
59
78
55
53
54
58
59
62
63
63
80
66
60
65
71
66
71
71
80
79
62
67
61
74
83
80
83
68
81
88
83
70
80
73
76
89
82
58
63
61
73
80
74
59
64
78
73
70
56
102
101
108
96
85
72
75
87
73
81
87
86
90
83
85
107
93
80
96
104
96
85
89
85
75
86
90
100
95
93
101
89
94
79
77
61
91
83
104
99
97
92
77
84
104
87
78
78
93
94
76
75
79
87
84
77
58
59
50
67
56
59
74
68
70
68
57
60
56
39
42
65
65
70
29
56
43
56
47
58
57
53
56
49
56
46
42
30
38
53
55
62
62
50
43
45
42
35
38
56
51
40
32
45
51
26
21
56
54
49
49
40
25
45
49
42
77
58
52
57
34
50
59
35
34
34
35
43
67
51
61
43
28
34
38
44
26
41
46
20
54
39
37
39
55
46
40
26
56
33
42
27
20
24
38
46
13
27
39
46
33
33
30
27
33
48
36
40
29
49
49
34
29
25
28
39
38
34
32
45
13
31
37
29
44
38
45
39
31
55
53
49
47
57
44
46
45
53
40
56
65
51
48
49
34
42
53
42
28
45
68
39
22
32
33
41
43
9
5
38
30
39
25
10
2
29
40
39
33
25
14
24
21
32
28
15
11
24
36
23
27
37
32
35
-11
-5
35
23
24
20
15
2
3
16
30
59
65
88
133
141
134
191
197
197
177
130
99
61
20
20
0
-8
-9
-8
-20
-16
-16
-1
8
15
4
-5
3
25
28
31
27
19
28
3
10
7
19
28
38
12
22
9
5
26
27
22
13
10
24
33
36
24
17
10
12
14
15
37
40
34
27
23
13
17
8
13
14
16
25
9
22
33
25
21
9
16
20
24
34
22
29
40
19
48
34
48
39
18
-10
30
53
39
42
41
31
26
32
38
31
34
29
56
73
72
52
11
7
36
43
24
32
61
58
56
57
52
43
31
46
63
82
72
65
70
67
62
61
60
57
62
57
54
56
53
63
57
45
69
59
63
74
59
46
43
46
58
66
50
58
39
38
38
12
31
42
45
36
53
48
40
47
46
49
24
26
31
27
38
41
41
31
29
45
45
19
17
28
16
28
44
46
29
30
27
11
37
38
35
47
72
55
15
40
40
32
35
26
25
21
28
39
45
19
29
56
51
32
31
37
29
20
24
32
23
44
14
28
31
32
18
38
39
42
50
42
42
27
16
28
49
50
4
18
54
67
56
36
-2
33
33
48
39
33
17
7
20
22
23
48
35
19
22
23
30
30
17
11
19
21
20
36
25
17
19
31
34
35
32
45
45
30
32
16
29
34
19
0
8
26
25
44
45
46
30
6
16
20
21
33
41
50
42
35
53
50
32
36
56
29
32
19
50
65
55
53
41
20
9
18
43
38
27
32
30
54
33
4
15
21
13
1
13
19
13
19
8
2
-1
4
2
13
-1
20
42
28
10
5
-2
16
18
15
11
16
33
22
14
20
14
29
37
33
1
1
23
36
55
84
105
123
153
188
192
183
176
145
92
41
9
-3
0
-19
-2
-6
-14
-22
-19
-19
-9
30
34
19
-9
24
1
14
0
0
14
9
12
-8
22
15
-2
0
9
13
10
4
9
14
2
-3
9
0
15
16
-3
14
18
8
15
20
13
12
4
22
24
12
17
-4
6
24
13
2
10
10
-14
-3
-15
22
29
36
7
-5
12
11
15
19
-2
24
41
37
24
26
19
2
32
39
31
6
12
37
47
32
24
39
35
24
16
26
29
48
26
17
4
15
22
29
39
28
6
33
43
62
75
56
35
32
37
52
48
31
37
42
50
39
40
57
47
41
49
22
2
18
57
43
34
36
48
41
33
25
44
45
16
28
7
15
20
37
44
24
20
25
27
20
17
26
43
29
8
8
19
1
5
10
13
11
17
33
35
23
21
-2
24
21
20
23
18
36
26
18
12
10
30
9
21
37
15
5
18
5
26
24
9
26
12
28
19
11
40
43
30
14
5
32
3
16
11
36
40
32
40
44
22
21
-4
12
24
9
32
47
41
37
35
32
29
32
9
17
20
9
15
35
27
38
23
7
8
24
25
35
37
8
9
34
1
9
11
34
22
19
21
16
22
32
28
15
9
10
-5
13
16
19
23
3
-5
26
31
31
25
8
7
11
47
19
34
59
47
34
42
22
23
42
57
44
30
13
27
48
49
46
41
48
58
43
45
34
35
33
33
31
42
47
50
56
19
29
15
7
13
2
20
19
28
42
34
45
14
20
32
19
8
29
23
12
22
30
24
28
19
36
4
26
3
18
16
7
16
30
25
41
38
21
48
58
87
111
140
174
185
192
182
150
133
93
41
9
-7
-17
5
-16
-22
-22
5
7
25
9
16
7
16
-1
15
8
23
33
