-61
-61
-32
-13
1
3
3
-25
-77
-53
-15
-40
-56
-49
-17
-10
-18
-26
-56
-83
-61
-55
-66
-47
-10
-8
-32
-40
-64
-72
-60
-76
-51
-21
-18
-19
12
-40
-44
-83
-66
-56
-44
-32
-8
-31
-40
-43
-34
-77
-72
-43
-45
-47
-12
-11
-26
-39
-52
-76
-55
-66
-37
-35
-9
-15
-33
-40
-32
-78
-70
-56
-34
-37
-13
-19
-31
-28
-42
-75
-78
-47
-30
-26
-21
-6
-15
-35
-54
-74
-66
-56
-43
-36
-12
-7
-29
-51
-54
-70
-66
-60
-44
-22
-25
-22
-35
-35
-49
-57
-65
-36
-45
-24
-10
-13
-27
-46
-57
-66
-71
-61
-24
-36
-13
-14
-31
-35
-74
-56
-62
-63
-26
-13
-3
-14
-32
-48
-68
-67
-66
-45
-42
-19
4
-11
-41
-29
-39
-56
-69
-45
-29
0
-3
-11
-21
-40
-53
-42
-56
-40
-17
-2
6
-26
-47
-53
-67
-42
-69
-57
-38
-18
-20
-20
-28
-44
-71
-72
-71
-40
-21
-11
-24
-40
-34
-38
-77
-74
-52
-34
-15
9
10
10
47
70
83
89
88
85
120
124
122
121
61
65
5
-40
-55
-48
-21
-17
-23
-14
-29
-45
-61
-71
-70
-38
-22
-19
-13
-14
-51
-51
-67
-67
-31
-10
-14
-7
-20
-42
-55
-30
-57
-75
-29
-26
-31
-15
-17
-30
-34
-60
-65
-60
-36
-45
-36
9
7
-33
-31
-38
-60
-60
-39
-13
-15
-16
-8
-15
-26
-41
-64
-30
-27
-25
-2
-15
-16
-27
-25
-42
-34
-35
-20
-10
-9
6
12
-18
-50
-38
-26
-13
-22
-13
22
14
23
8
-11
-29
-28
-32
-6
3
21
46
15
-9
-4
-15
-12
3
25
33
44
17
30
23
-9
-27
-19
-10
3
2
31
18
31
8
-14
-22
-28
-28
-9
-4
6
0
4
-26
-39
-36
-44
-33
-8
-23
-12
-7
7
-8
-56
-65
-53
-43
-25
-24
0
-8
-25
-17
-21
-58
-56
-47
-23
-7
-3
-35
-25
-24
-33
-56
-46
-48
-36
-27
-3
-12
-13
-33
-62
-56
-42
-47
-29
-26
-1
-12
-6
-28
-49
-53
-36
-31
-22
-12
8
-27
-4
-21
-45
-59
-57
-39
-15
-14
-3
-9
-5
-34
-39
-37
-57
-48
-29
-11
-12
-17
-23
-21
-29
-48
-53
-37
-19
2
-8
-6
-30
-26
-38
-40
-33
-28
-19
-14
15
6
-41
-44
-58
-29
-44
-31
-27
-8
4
-3
-5
-46
-48
-52
-52
-40
-19
5
1
-12
-11
-26
-59
-47
-45
-18
-28
-17
3
-4
-8
-38
-50
-53
-20
-2
-35
-3
4
-17
-22
-33
-63
-50
-22
-15
-12
-5
17
-3
-32
-34
-30
-35
-30
-9
-9
16
-1
-4
-20
-13
-30
-30
-50
-26
-9
-3
-4
-6
-7
-22
-67
-67
-44
-16
-6
12
2
-25
-28
-42
-58
-42
-41
-31
-32
-14
-9
-16
-39
-31
-29
0
37
93
131
154
140
138
106
85
101
101
93
70
48
42
9
-21
-48
-67
-47
-49
-31
-25
-20
13
8
-28
-20
-38
-52
-40
-24
-4
-5
-6
-17
-10
-17
-73
-53
-44
-28
-12
13
-2
17
-21
-42
-55
-57
-52
-24
4
2
15
10
-4
-20
-37
-42
-45
-20
-8
5
8
-7
-20
-30
-37
-31
-30
-20
7
11
20
12
-11
0
-29
-60
-67
-9
-5
35
-1
-1
-14
-11
-34
-44
-17
2
1
29
29
13
-9
-12
-6
-19
11
8
3
39
24
24
22
1
-16
-8
8
29
21
38
36
33
29
10
-8
-2
4
34
24
41
52
34
18
20
-3
-35
-6
1
34
37
17
4
-10
-12
-45
-24
-27
19
16
10
6
-5
-22
-42
-68
-56
-38
-17
-3
2
13
-27
-20
-48
-54
-54
-39
-28
-16
2
3
-12
-40
-39
-46
-62
-59
-16
-4
-9
-17
-48
-31
-19
-54
-50
-25
-29
10
-16
-11
-12
-42
-52
-43
-40
-33
-28
-6
-27
-17
-10
-35
-58
-50
-24
-16
-12
17
-12
-19
-26
-28
-55
-56
-31
-33
-26
9
12
-12
-25
-42
-68
-48
-25
-12
-21
3
-7
-19
-20
-33
-51
-67
-42
-25
-2
9
7
-22
-49
-39
-48
-35
-39
-28
-12
6
-8
-8
-8
-38
-45
-52
-24
-25
-18
7
-7
-20
-7
-31
-64
-58
-23
-36
-20
18
6
-9
-24
-33
-40
-28
-26
-11
-22
5
-6
-9
-6
-16
-40
-48
-28
-22
-28
7
-16
-30
-29
-32
-41
-57
-46
-36
0
2
-15
-32
-50
-41
-57
-48
-35
-26
7
9
-11
-33
-47
-69
-53
-45
-32
2
33
82
89
102
111
77
75
76
118
108
146
107
39
35
-20
-67
-81
-68
-37
-28
-22
-6
-8
-32
-45
-64
-46
-48
-45
-22
-2
0
1
5
-25
-64
-51
-41
-34
-23
4
9
-2
-17
-22
-45
-38
-35
-35
-15
22
1
-12
-31
-23
-21
-16
-29
-55
-17
7
6
-13
-25
-18
-45
-46
-34
-20
-17
0
26
4
-10
-17
-40
-48
-34
-14
-1
27
32
2
-17
-17
-26
-23
-14
-24
-4
19
28
21
16
-8
-32
-18
-19
1
3
50
75
13
0
-14
-8
21
7
14
22
51
51
38
34
-9
-2
24
35
27
37
49
51
39
31
6
-5
-4
-4
7
34
45
51
7
-26
-22
-25
-25
-11
16
15
24
23
-7
-44
-36
-28
-37
-37
-8
3
9
14
-34
-19
-38
-44
-44
-25
-17
8
20
-25
-11
-24
-43
-47
-47
-24
-18
3
7
11
-39
-45
-43
-55
-50
-32
-11
8
-15
-9
-15
-18
-70
-68
-21
-18
-15
23
-6
-16
-38
-25
-19
-4
-37
-37
-20
6
22
3
-32
-22
-55
-45
-3
-15
-21
2
19
-8
-39
-31
-33
-39
-32
-22
-16
11
23
-1
-26
-28
-44
-33
-23
-33
-16
16
4
-15
-21
-24
-37
-47
-19
-5
-14
-8
0
1
-26
-16
-56
-61
-22
5
17
14
14
-12
-25
-47
-58
-40
-15
-5
-12
27
19
-13
-28
-25
-47
-52
-15
-2
-2
1
-9
-3
-12
-31
-19
-20
-36
-10
3
32
7
-10
-10
-34
-34
-25
-14
-24
24
12
3
-27
-11
-51
-39
-33
-24
-14
3
0
-4
-14
-20
-43
-37
-25
-33
-24
-4
10
-6
-23
-48
-67
-42
-47
-14
10
65
80
110
134
131
116
90
102
111
115
154
120
82
38
8
-52
-62
-34
-49
-43
20
3
-9
-12
-24
-37
-42
-46
-15
-10
3
8
0
-1
-19
-53
-30
-34
-19
-14
15
-15
-2
-21
-27
-47
-42
-24
-18
-22
3
21
8
-11
-37
-50
-39
-3
-13
-29
16
17
-12
19
-22
-36
-43
-23
-20
-8
12
27
12
-7
-33
-42
-30
-11
16
-4
2
43
-1
-29
-26
-43
-25
-10
-21
4
25
29
19
1
-13
-15
-11
8
9
38
39
43
29
3
-21
-31
-30
29
41
50
47
53
35
30
27
-6
19
29
27
18
32
58
30
6
-3
-16
-3
5
29
31
33
51
33
16
-12
-17
-19
5
2
25
28
23
8
-23
-43
-47
-40
-19
5
20
14
1
-20
-30
-56
-43
-2
1
3
-2
-7
-7
-13
-19
-43
-42
-24
-12
-23
13
-10
-4
-17
-36
-57
-37
-33
-25
0
22
17
-3
-27
-24
-42
-40
-38
-20
-11
4
-2
12
-25
-25
-38
-27
-42
-23
-4
12
0
15
-15
-34
-45
-41
-40
-28
-27
26
9
4
-4
-30
-32
-30
-25
-16
8
5
20
11
-20
-30
-33
-34
-39
-8
-1
10
-9
0
-16
-29
-50
-38
-24
4
4
26
25
-42
-37
-41
-46
-33
-27
-14
24
20
18
-19
-35
-34
-22
-35
-17
-11
3
5
20
-1
-10
-43
-42
-46
-27
18
18
-5
-5
-14
-11
-31
-30
-45
-29
-17
26
24
12
-36
-4
-22
-39
-15
-3
12
17
18
22
-27
-15
-25
-30
-27
-25
4
11
8
2
-4
-27
-45
-48
-33
-9
-11
5
1
-11
-10
-5
-42
-57
-35
-17
-11
-20
3
1
-26
-34
-50
-39
-29
0
44
91
135
145
148
134
104
94
106
150
114
134
123
77
15
-28
-54
-52
-24
-2
7
13
3
-2
-17
-25
-36
-50
-41
-6
6
-5
-1
-8
-15
-37
-50
-39
-17
-6
-13
2
3
-3
0
-21
-39
-40
-30
-4
13
10
5
-13
-4
-38
-11
-48
-18
-11
6
12
1
-8
10
-38
-44
-30
1
-14
14
20
4
10
-16
-33
-32
-21
-5
-13
30
10
3
-2
-10
-16
-34
-5
11
-4
22
32
25
7
-8
-19
-16
-8
11
12
34
47
33
15
11
-15
-15
20
23
36
45
38
34
29
22
-1
-3
17
7
37
73
49
40
35
8
-6
-9
9
25
-3
74
48
45
19
-8
-32
-32
5
2
-9
21
13
20
9
-40
-42
-23
-15
-23
-14
-13
9
0
-7
-25
-34
-33
-21
-7
-7
6
-2
12
-13
-33
-46
-44
-35
-10
-5
36
19
-19
-10
-26
-47
-55
-29
-12
7
10
5
-34
-21
-19
-54
-33
2
10
-16
0
10
-2
-25
-19
-32
-42
-35
-4
4
2
3
-17
-3
-44
-55
-24
-21
-20
2
24
21
1
-22
-31
-36
-31
-22
-8
19
1
-1
-8
-20
-48
-43
-23
-11
-19
34
8
4
10
-26
-41
-52
-16
-28
-18
4
-1
11
-14
-23
-70
-39
-38
-14
3
23
0
10
7
-6
-50
-46
-32
-24
-23
12
17
6
-7
-58
-47
-20
-34
-20
-17
24
23
-8
-18
-24
-36
-50
-38
-27
-10
19
-15
31
21
-17
-28
-42
-22
-17
11
15
15
23
-26
-15
-25
-37
-35
-15
4
23
24
17
12
-31
-102
-35
-32
-9
-18
15
13
-2
-31
-39
-36
-46
-43
-8
3
1
13
-8
-37
-19
-30
-57
-29
-14
-2
5
24
27
15
47
70
124
145
147
144
151
142
127
117
86
36
26
16
-4
-20
-3
-1
-32
-30
-45
-48
-24
-28
-19
7
16
9
1
-35
-55
-26
-36
3
-14
3
9
-16
-19
11
-31
-36
-42
-22
1
13
11
37
-1
-32
-39
-61
-42
-23
-2
13
-5
4
-7
-16
-18
-32
-16
-21
-6
3
10
3
-3
8
-26
-45
-11
-5
-25
26
10
5
-5
-1
-24
-33
-29
3
0
19
39
30
-5
0
-4
-41
5
3
33
46
32
16
-20
3
-1
-17
33
29
18
20
37
50
34
28
9
-9
-7
29
34
50
53
45
40
5
-6
3
29
32
32
51
56
35
4
11
-2
1
-23
-6
24
33
29
5
-6
-13
-30
-29
-16
10
4
-2
14
9
-7
-34
-28
-31
-33
-18
8
-1
-18
1
-11
-29
-45
-24
6
-7
13
-7
-3
-25
-33
-36
-21
-37
-11
4
9
0
0
-9
-12
-10
-38
-48
-20
-17
19
8
-2
-24
-23
-23
-36
-25
-18
-28
-10
28
21
-22
-17
-46
-33
-31
-9
-4
25
11
-14
-16
-32
-36
-39
-39
-8
6
19
5
18
-7
-3
-29
-54
-30
-14
-4
23
-1
-3
-26
-28
-39
-30
-14
-5
-10
-2
8
12
2
-30
-42
-41
-31
8
-4
16
2
-8
-13
-35
-30
-21
-11
-28
-8
14
10
7
-6
-48
-31
-27
-23
-30
-4
27
12
-9
-2
-8
-49
-43
-25
8
12
24
23
6
-15
-11
-20
-27
-9
-20
2
34
31
-22
-24
-27
-5
-15
-37
-18
-3
-1
3
-10
-16
-32
-34
-38
-14
-9
2
10
16
-19
-30
-42
-39
-49
-21
7
0
11
7
-13
-24
-78
-36
-38
9
50
104
126
138
122
112
98
95
88
110
99
114
93
81
3
-49
-69
-39
-49
-33
-16
19
3
-5
-7
-35
-53
-44
-27
-14
-13
13
-7
0
-7
-13
-39
-40
-33
9
-3
-4
16
8
-13
-28
-29
-28
-22
-25
2
11
21
4
-17
-20
-57
-38
-14
-3
10
24
25
9
-14
-25
-47
-35
-26
-25
27
17
9
0
-4
-15
-36
-15
2
5
24
36
5
-8
-5
-18
-25
-19
-13
29
23
24
34
21
-13
-8
-9
-13
18
25
35
49
53
24
-2
-9
-5
25
34
21
43
63
68
43
17
-18
-6
18
27
37
56
64
61
47
37
-7
-5
21
21
24
35
46
37
13
9
0
-12
-36
-27
-3
30
18
22
-2
-1
-34
-35
-35
-17
2
13
6
-3
-8
-41
-35
-18
-49
-3
-9
0
22
13
-19
-45
-47
-40
-38
-18
-5
32
3
-1
-9
-30
-51
-54
-43
-19
5
-4
8
22
-17
-21
-58
-57
-30
-18
-14
-6
4
0
-8
-39
-40
-25
-31
-16
-12
16
-9
6
11
-24
-32
-6
-19
-6
-10
19
9
7
-35
-36
-41
-41
-18
0
0
12
-7
4
-12
-23
-37
-54
-28
-4
0
17
8
-6
-25
-24
-35
-37
-22
-27
4
15
21
5
13
-22
-29
-44
-29
21
10
12
0
-23
-4
-37
-36
-45
-30
-1
18
19
18
-21
-33
-26
-33
-34
-20
-7
22
18
11
-5
-20
-36
-31
-24
-6
7
23
21
13
19
-13
-47
-24
-12
-23
-19
8
-2
8
-14
-21
-30
-47
-41
-20
-11
7
10
-7
-16
-19
-45
-43
-30
-14
-35
-9
1
-30
-37
-26
-25
16
32
78
110
166
172
146
136
101
89
98
114
89
74
73
-4
-19
-48
-53
-55
-34
-25
-19
-26
8
16
0
-22
-27
-46
-35
-27
-27
-9
8
9
9
-36
-42
-43
-44
-25
5
15
0
8
-15
4
-20
-44
-37
-4
6
-6
38
24
-15
-26
-33
-49
-44
-14
-8
2
29
-4
-15
-21
-16
-37
-38
-3
-9
12
28
9
-11
-13
-53
-39
-23
-8
-1
16
30
22
1
19
-15
-24
-30
-1
-5
24
27
22
18
13
-24
-19
-7
24
19
39
38
32
22
1
-1
25
3
8
29
56
57
58
39
32
7
4
11
26
31
47
39
27
5
17
-14
21
13
23
15
26
23
21
-10
-4
-9
-23
-29
-12
-2
21
13
-13
-18
-3
-58
-34
-44
16
20
1
-4
-12
-17
-18
-47
-49
-26
-1
-15
13
9
2
-12
-23
-50
-32
-42
-22
-9
5
12
-19
-44
-21
-42
-38
-32
-25
-3
11
21
-12
-25
-45
-33
-27
-32
-15
9
18
-1
-18
-38
-26
-39
-31
-18
-11
-5
1
10
-4
-18
-46
-45
-24
-17
-19
-2
25
8
-2
-13
-42
-40
-21
-42
-27
7
13
-2
-6
-12
-26
-53
-41
-22
2
-8
-11
9
3
-19
-34
-48
-32
-28
-33
-5
13
27
1
-25
-51
-52
-21
-11
-22
0
26
5
-8
-29
-46
-42
-28
-41
-14
9
13
1
-7
-30
-44
-55
-28
-7
-2
10
12
-6
2
-24
-43
-34
-36
-2
8
34
26
5
-7
-35
-52
-22
-8
-8
-6
13
21
-5
-9
-26
-58
-59
-44
-13
2
0
7
-12
-20
-22
-53
-36
-30
-27
2
-14
1
-9
-42
-41
-53
-58
-35
-11
6
36
62
76
95
102
108
102
118
153
145
142
150
146
82
59
5
-37
-39
-37
-52
-16
1
26
-22
-24
-37
-57
-42
-33
5
28
7
-13
-18
-34
-55
-46
-35
-22
16
14
12
-7
-46
-55
-54
-28
-9
12
-3
8
13
-21
-6
-28
-41
-44
-17
-17
-6
26
17
-17
-28
-50
-43
-20
0
-8
3
26
0
-5
-9
-42
-44
-39
-18
-2
11
33
5
8
-22
-19
-10
-10
-7
-9
5
19
15
8
-18
-41
-7
-16
13
21
30
21
30
27
-19
-2
10
-17
10
17
66
37
21
22
35
-3
-11
2
28
39
25
53
37
35
18
-7
-8
11
17
34
42
30
28
20
21
-27
-31
-34
7
11
30
29
0
-12
-35
-36
-35
-38
-20
28
22
-1
-5
3
-32
-55
-30
-21
-18
-31
9
13
-9
-29
-23
-35
-57
-14
-15
-13
-4
3
-16
-16
-55
-59
-25
-16
-18
-20
5
-1
-6
-10
-48
-52
-38
-11
-6
-15
2
1
11
-20
-42
-48
-32
-40
-29
33
21
-3
-44
-16
-23
-42
-57
-21
-7
34
18
7
-7
-56
-75
-32
-12
-19
10
9
-2
-8
-24
-30
-37
-41
-34
-15
-16
9
15
-3
-20
-19
-36
-46
-27
-24
-12
1
12
36
-39
-27
-55
-50
-14
-19
-10
22
20
-10
-30
-36
-41
-39
-38
-2
6
18
2
10
-16
-48
-46
-52
-35
-17
-4
-1
4
-1
-9
-29
-56
-37
-24
2
21
11
18
27
-19
-28
-19
-30
-24
-16
-13
24
39
1
-11
-43
-41
-42
-20
4
21
-2
-15
-16
-28
-40
-60
-24
-29
-30
-4
14
8
10
-17
-44
-51
-50
-27
-29
-8
-3
19
-1
-3
5
30
39
94
115
141
144
130
125
120
107
93
93
69
72
42
3
-21
-48
-11
-31
-57
-41
-11
-14
-3
23
-9
-8
-15
-42
-31
-37
-45
-12
33
-6
-7
10
-23
-52
-55
-47
-7
-18
-5
13
15
-13
-12
-45
-37
-31
-22
-17
19
11
13
-12
-20
-32
-46
-37
-11
-11
-9
23
13
-9
-43
-48
-52
-20
11
11
13
31
27
-6
-22
-62
-52
-32
28
15
6
12
-1
-9
-27
-32
-22
-20
-6
2
34
20
12
-8
-23
-36
14
-8
17
17
52
49
22
1
-5
11
13
22
18
20
43
44
16
19
-1
-37
-9
17
18
22
37
44
47
18
-4
-7
2
19
-3
11
38
27
4
-8
-30
-30
-20
-14
-29
2
22
17
-14
15
-26
-51
-47
-9
-24
-14
2
-1
-2
-17
-47
-41
-38
-17
-15
8
5
-32
-19
-8
-52
-38
-31
-37
-16
13
4
-3
-11
-15
-75
-48
-25
-34
-21
4
28
0
-10
-26
-55
-35
-26
-7
-9
27
22
-12
-17
-37
-69
-47
-25
-31
-14
24
26
5
6
-34
-37
-30
-30
-34
-23
11
0
4
-10
-20
-31
-37
-33
-6
-3
4
48
16
-14
-17
-69
-36
-21
-16
2
7
-3
-17
5
-28
-42
-48
-27
18
-12
16
-9
-21
-38
-20
-31
-37
-16
0
-2
2
24
31
-29
-33
-30
-18
-28
-6
8
2
9
-7
-27
-20
-40
-42
-47
-8
5
10
-12
0
-30
-54
-18
-9
7
4
21
15
15
-7
-17
-43
-49
-16
-11
-13
12
29
7
-22
-21
-24
-39
-30
-24
-23
-4
8
-28
-5
-24
-50
-43
-39
-19
-21
2
-5
-25
-26
-15
-26
-7
14
36
95
112
141
154
171
160
91
120
105
118
115
107
66
24
-30
-68
-49
-40
-47
-12
-8
18
-4
-19
25
-9
-13
-46
-71
-18
-9
4
21
1
-13
-25
-42
-69
-35
-22
-18
2
0
-9
-28
14
-27
-44
-21
-7
9
12
29
0
-22
-40
-54
-11
-3
-12
23
18
0
12
1
-20
-38
-33
1
-1
-6
18
20
8
10
-3
-10
-46
2
14
4
22
53
21
2
-29
-18
-10
-3
21
33
45
35
33
28
17
3
7
13
26
29
44
60
40
42
4
3
20
39
36
60
64
50
21
22
22
29
21
42
28
58
85
61
46
14
3
-2
25
27
22
65
52
44
31
17
-1
-1
-14
16
9
35
30
36
14
17
-37
-13
-3
15
-13
11
19
-4
-5
8
-35
-39
-36
-8
5
19
22
5
16
-21
-67
-23
-27
10
3
6
1
14
-16
-20
-23
-44
-21
6
-1
19
20
9
-19
-23
-29
-22
-12
-9
-9
13
20
-5
-15
-22
-26
-32
-13
-10
17
11
1
-11
-8
-7
-32
-17
-15
-44
-2
37
-2
6
-11
-17
-23
-38
-14
-13
-4
10
-3
-14
-23
-6
-17
-49
-33
-16
-12
3
46
14
-23
-40
-38
-31
-26
-11
-1
2
5
-23
-22
-41
-49
-28
6
0
-4
32
9
-2
-21
-32
-29
-37
-13
-15
22
15
12
-9
-6
-25
-36
-41
-10
-1
17
31
4
-20
-29
-52
-24
-36
-26
-16
11
2
-18
-38
-31
-41
-41
-38
-28
-17
20
24
14
-28
-32
-54
-36
-30
-7
-4
44
52
75
75
106
107
105
114
119
116
138
133
117
79
41
-14
-41
-60
-52
-39
4
-2
6
-5
-38
-43
-46
-11
-21
4
15
9
-8
-20
-25
-37
-45
-27
0
0
2
-3
-7
-26
-42
-40
-38
-36
-24
-14
16
34
2
-15
-27
-40
-33
-54
-23
-13
9
7
-15
-24
-30
-35
-28
-22
-1
8
14
3
-12
-13
-12
-29
-15
1
-8
7
16
13
-9
-17
-40
-39
-30
-13
0
22
37
24
10
-4
-34
-21
0
4
4
29
15
14
12
10
-14
0
14
30
40
47
44
38
29
7
-20
-8
5
8
10
33
34
30
7
-3
-27
-20
-4
4
4
20
7
0
-28
-14
-39
-59
-45
-11
-30
0
0
-11
-37
-43
-60
-59
-55
-49
-44
-34
-29
-34
-31
-38
-72
-68
-72
-41
-35
-21
-25
-35
-55
-52
-69
-68
-59
-35
-33
-23
-32
-42
-60
-63
-72
-64
-60
-51
-44
-37
-39
-52
-63
-80
-69
-86
-44
-33
-24
-6
-12
-28
-31
-42
-59
-55
-39
-34
-10
-7
-22
-33
-50
-63
-64
-56
-52
-60
-20
-2
-28
-45
-56
-71
-61
-46
-43
-34
-20
4
0
-35
-35
-33
-55
-59
-33
-11
6
3
-4
-18
-32
-57
-55
-57
-40
-29
-8
-8
-10
-20
-21
-51
-54
-50
-17
-13
-11
-4
16
-8
-20
-37
-32
-37
-20
-8
-4
-17
-13
-28
-56
-65
-31
-43
-31
-19
-9
-10
-19
-41
-43
-54
-60
-55
-16
-29
9
21
-2
-26
-47
-58
-51
-27
-34
-27
2
9
16
2
11
12
39
65
103
95
106
114
78
65
64
44
38
11
2
-13
-20
-46
-43
-45
-47
-67
-58
-43
-29
-28
-9
-11
-19
-29
-28
-54
-62
-39
-23
-39
-2
13
-8
-18
-33
-48
-36
-29
-17
-6
10
5
-12
-20
-30
-43
-27
-22
-12
8
11
12
3
-18
-37
-19
-19
3
11
41
51
33
1
-10
-24
-32
-36
-11
6
17
9
14
12
-10
-35
-18
0
2
21
28
20
14
-3
-10
-9
2
7
18
30
45
31
52
19
18
8
7
16
17
43
67
43
53
41
38
11
13
22
30
26
58
52
52
42
42
18
30
30
52
56
64
47
28
27
18
-16
-8
18
23
33
32
37
38
-2
-5
-23
-20
-23
-15
-10
-4
6
-2
-2
-15
-40
-36
-21
-2
10
26
17
9
-9
-22
-48
-56
-41
-37
-26
-19
-13
-11
-41
-32
-47
-46
-38
-18
-19
2
-9
-6
-31
-52
-57
-50
-41
-15
12
15
8
-12
-29
-57
-67
-42
-41
-19
-6
-2
-3
-14
-44
-62
-55
-58
-38
-33
-34
-22
-16
-32
-45
-55
-56
-45
-29
-12
-11
-11
-7
-28
-44
-64
-57
-54
-38
-36
-28
-27
-28
-44
-49
-71
-63
-62
-45
-36
-30
-46
-57
-82
-67
-106
-81
-80
-63
-58
-40
-43
-40
-64
-65
-80
-78
-87
-68
-60
-40
-41
-66
-86
-73
-95
-97
-84
-69
-68
-52
-55
-71
-91
-81
-109
-102
-98
-92
-84
-71
-67
-73
-103
-105
-115
-117
-115
-87
-80
-73
-72
-85
-101
-90
-91
-77
-42
-2
26
58
63
44
15
-18
-18
-4
8
9
-4
-26
-75
-110
-123
-125
-145
-131
-117
-99
-86
-67
-75
-95
-104
-105
-125
-134
-122
-88
-68
-81
-82
-93
-104
-121
-119
-122
-101
-85
-85
-80
-90
-108
-112
-132
-135
-136
-107
-95
-85
-75
-71
-93
-95
-119
-127
-130
-110
-105
-78
-64
-73
-96
-95
-123
-127
-119
-89
-89
-75
-74
-80
-77
-91
-114
-124
-98
-75
-79
-60
-52
-67
-85
-91
-116
-103
-100
-99
-89
-44
-52
-62
-71
-76
-89
-73
-65
-62
-36
-37
-69
-60
-10
-9
-131
-144
-65
-48
-48
-28
-30
-34
-45
-49
-64
-64
-60
-43
-27
-11
-16
-34
-50
-68
-95
-88
-81
-46
-57
-32
-15
-44
-72
-72
-86
-89
-87
-46
-43
-65
-78
-48
-84
-102
-113
-121
-108
-102
-91
-59
-45
-76
-80
-81
-103
-99
-95
-87
-66
-61
-45
-54
-70
-71
-98
-74
-39
-47
-48
-40
-37
-77
-101
-89
-104
-92
-78
-70
-67
-44
-52
-64
-78
-99
-99
-94
-75
-70
-55
-61
-46
-64
-81
-74
-89
-91
-51
-82
-54
-46
-40
-61
-68
-107
-105
-106
-69
-55
-51
-39
-49
-56
-64
-81
-75
-69
-67
-56
-37
-68
-72
-74
-48
-91
-84
-65
-54
-52
-32
-41
-51
-69
-60
-76
-69
-51
-55
-55
-42
-42
-32
-53
-50
-78
-72
-54
-45
-52
-41
-7
-29
-74
-74
-61
-75
-69
-48
-49
-28
-34
-28
-64
-81
-84
-79
-76
-62
-59
-31
-48
-70
-53
-51
-78
-86
-79
-48
-39
-44
-60
-54
-58
-85
-94
-96
-85
-56
-44
6
12
-13
14
48
39
49
76
59
67
84
67
50
53
-15
-57
-79
-104
-82
-80
-60
-61
-64
-74
-96
-95
-102
-89
-65
-58
-57
-73
-61
-57
-72
-107
-112
-74
-64
-86
-40
-27
-77
-74
-104
-87
-93
-99
-80
-57
-50
-43
-57
-67
-88
-72
-53
-69
-57
-16
-36
-56
-48
-64
-81
-88
-68
-36
-26
-27
-26
-33
-41
-45
-46
-86
-66
-54
-42
-20
-18
-35
-46
-38
-59
-53
-26
-38
-41
2
-4
-25
-39
-40
-42
-56
-42
-15
-12
9
3
5
-10
-27
-28
-60
-33
0
-1
14
20
9
-22
-1
-28
-26
-16
0
-5
24
2
2
-22
-9
-29
-41
-34
-18
-12
1
-6
5
-25
-39
-63
-39
11
-3
-20
-16
-25
-14
-46
-67
-80
-68
-56
-23
-12
-19
-17
-22
-38
-70
-83
-60
-72
-20
-22
-30
-19
-33
-48
-63
-75
-90
-62
-44
-28
-17
-35
-44
-48
-69
-76
-81
-55
-42
-30
-38
-36
-26
-28
-64
-78
-48
-30
-44
-25
5
-32
-56
-69
-85
-75
-47
-27
-31
-24
-19
-17
-51
-47
-68
-71
-62
-56
-46
-23
-19
-35
-48
-48
-77
-82
-57
-44
-37
11
-21
-39
-53
-44
-68
-68
-55
-36
-33
-10
-24
-32
-42
-50
-72
-85
-69
-49
-30
-18
-26
-28
-51
-64
-67
-67
-58
-38
-34
-19
-23
-22
-52
-52
-55
-68
-63
-46
-36
-9
-9
-31
-46
-42
-76
-64
-48
-31
-15
4
-34
-41
-42
-62
-90
-89
-62
-38
-26
-26
-32
-42
-52
-57
-65
-71
-52
-48
-33
-4
-14
-25
-10
-18
-12
36
72
112
110
117
92
75
81
65
39
42
33
8
-4
-26
-39
-45
-48
-59
-62
-68
-42
-7
-28
-3
-7
-13
-32
-43
-51
-39
-34
-31
10
9
-17
-26
-45
-65
-51
-57
-41
-29
2
19
-5
-32
-25
-42
-45
-34
-21
-19
1
8
-6
-30
-34
-50
-51
-40
-7
-6
11
15
4
-27
-2
-13
-33
-27
-17
-4
9
13
26
15
-27
-50
-44
-18
2
-1
36
12
3
-7
-8
-20
-22
-29
-2
5
23
38
21
-8
-12
-11
-11
-3
8
31
52
23
37
29
-6
1
6
17
25
36
53
60
32
22
19
14
3
13
17
19
56
44
39
40
4
-18
-13
-8
9
20
31
30
19
10
-18
-28
-18
6
17
13
33
37
9
-20
-1
-33
-36
-8
0
11
7
8
-16
-26
-29
-28
-32
-27
-17
15
31
23
4
-22
-48
-35
-42
-32
-6
9
12
15
-21
-24
-41
-24
-37
-17
-20
4
4
-14
-6
-13
-26
-19
-17
-15
-26
1
2
9
-15
-17
-29
-47
-39
-24
-18
3
7
2
-17
-35
-43
-36
-26
-17
-20
-4
9
-15
-13
-32
-44
-32
-42
-19
0
2
-10
-7
-14
-40
-36
-22
-30
-26
-15
25
19
1
-10
-24
-39
-27
-22
-15
-5
23
3
6
-10
-21
-37
-24
-20
-4
-9
15
8
-1
-11
-27
-45
-47
-25
-20
-30
4
3
1
-13
-27
-33
-37
-14
0
-3
-4
1
-2
-27
-40
-52
-34
-3
12
49
20
60
72
87
109
110
106
101
78
109
122
110
113
85
47
-6
-41
-53
-41
-7
5
4
0
-12
-31
-46
-38
-19
-15
4
28
17
-2
-17
-36
-34
-17
-18
-2
9
17
-3
-10
-23
-43
-26
-19
-20
4
24
32
10
-16
-9
-34
-29
-26
-11
18
28
20
10
-8
-17
-6
-16
-14
6
19
25
42
4
-8
0
-19
-37
-12
19
25
34
26
0
3
5
-41
-27
2
7
25
37
25
31
2
5
-15
5
7
22
16
47
61
37
18
27
17
15
24
48
65
46
47
84
49
16
2
13
17
44
49
64
47
42
23
26
23
12
9
30
46
47
30
33
16
9
-7
-16
17
20
26
39
31
15
2
-4
-5
-19
12
9
30
32
20
4
-3
-6
-16
-21
-1
-5
24
29
13
-8
-14
-17
-46
-30
9
11
14
19
19
14
5
-26
-47
-31
8
9
28
34
18
7
4
-17
-15
-8
4
14
23
43
23
10
-3
-30
-20
-5
-9
5
42
36
21
-12
-19
-17
-10
-10
21
11
32
16
10
-10
-12
-24
-24
-12
2
14
23
27
14
5
-5
-28
-23
-10
5
10
32
25
10
0
-1
-20
-2
1
2
12
34
27
21
-1
-4
-16
-15
-1
28
31
60
36
28
-3
-12
-22
-12
-3
16
31
48
22
18
-15
-4
-19
-24
-16
0
-5
17
26
2
-11
-11
-27
-24
-28
-13
6
16
15
17
-6
-31
-34
-24
-1
75
109
139
152
164
139
119
86
93
118
125
134
113
76
36
-4
-33
-44
-35
-13
10
18
22
15
11
1
-9
-32
-19
6
18
7
8
-1
-2
-11
-31
-42
-30
0
10
10
-11
-5
16
-5
-22
-16
-18
-4
0
14
20
22
10
-3
-36
-28
5
6
23
38
33
11
-26
-37
-37
-13
12
8
18
30
10
5
-4
-17
-26
-8
-8
7
22
37
22
16
4
-10
-35
-19
-5
8
27
35
46
29
15
0
-17
-1
-19
20
27
47
51
47
27
17
14
-2
0
22
74
46
56
36
10
20
12
-21
20
17
39
57
42
27
18
4
-17
-13
6
22
17
21
36
2
-13
-19
-38
-14
1
7
11
25
10
-7
-32
-32
-5
-31
-52
-8
-4
8
-1
-16
-29
-56
-44
-33
-39
-15
7
13
3
-18
-33
-40
-45
-56
-30
-14
6
5
-4
-10
-32
-47
-64
-28
7
-12
14
-7
-8
-9
-21
-43
-43
-32
-26
-14
-11
2
1
-29
-17
-52
-48
-39
-8
-22
-4
32
4
-27
-21
-47
-46
-44
-36
-11
11
7
0
-39
-45
-83
-68
-25
-2
-9
3
-37
-37
-10
-17
-25
-23
-31
-17
-16
17
32
26
-34
-31
-48
-35
-26
-8
1
8
14
4
-20
-19
-51
-45
-31
-22
-10
5
-5
8
-28
-35
-62
-55
-36
-15
-11
-10
-7
-30
-55
-24
-35
-36
-17
-20
7
5
-6
-14
-41
-43
-48
-26
-13
1
31
63
113
99
104
101
60
48
78
106
105
89
60
30
-10
-63
-82
-77
-46
-35
-14
10
-7
-27
-31
-41
-63
-78
-55
-29
26
20
2
-7
-42
-58
-56
-32
-13
-16
-2
8
5
-19
-26
-31
-16
-16
-47
-18
12
2
21
-18
-18
-43
-32
-29
-11
-10
-5
-15
-10
-5
-5
-42
-54
-38
-5
4
17
8
8
-11
-22
-37
-29
-31
-7
-7
9
18
25
3
-37
-42
-10
-23
0
20
19
10
19
4
-3
-15
-13
-7
26
36
41
31
31
10
3
-6
-5
2
38
61
43
52
24
25
10
-14
-5
25
22
28
45
41
34
11
-3
-21
0
9
15
18
17
16
23
-3
-14
-20
-29
-25
-4
9
12
7
-8
-22
-28
-24
-29
-22
-38
-13
-12
6
-21
-8
-38
-45
-16
-22
-25
-14
7
-21
-28
-21
-51
-44
-46
-42
-25
-1
-14
2
-17
-39
-37
-27
-25
-18
-13
1
7
4
-17
-25
-49
-52
-35
-16
-21
6
22
1
2
-18
-53
-70
-59
-24
-15
20
14
8
-13
-23
-40
-32
-48
-30
-30
-2
1
8
10
-23
-33
-34
-39
-25
-18
23
2
6
-35
-19
-35
-69
-48
1
23
25
-3
-2
2
-15
-37
-37
-20
4
4
17
12
2
-17
-20
-30
-32
-23
-4
-2
31
12
-3
-16
-24
-37
-38
-37
-15
-19
-21
-23
3
-8
-28
-66
-72
-17
6
19
-10
-2
-9
-27
-20
-55
-74
-42
-10
12
3
-15
-5
-17
-39
-7
25
52
108
143
136
146
120
95
89
88
73
77
58
35
26
-26
-61
-58
-44
-23
-68
-28
-31
-17
-11
3
-3
-42
-50
-55
-36
-33
-22
-4
-10
-1
-29
-49
-58
-50
-69
-23
-2
7
8
-4
-27
-30
-57
-53
-39
-23
-17
18
4
4
-42
-27
-30
-19
-35
-15
-5
25
4
-21
5
1
-32
-35
-19
-5
-26
17
11
20
-11
-5
-26
-6
-2
-5
14
44
28
13
8
-4
-27
-25
5
24
33
47
47
57
20
9
8
-9
14
17
2
39
70
63
60
37
12
15
29
34
40
51
68
48
27
19
32
2
35
84
44
45
50
34
28
12
-11
42
29
13
20
33
35
15
1
-9
-21
-9
-4
-1
11
33
27
-8
-6
-17
-33
-9
-1
-10
10
28
5
-28
-10
-22
-27
-26
-4
10
14
27
25
1
-4
-27
-15
-22
-7
-1
-19
-1
25
-3
-21
-31
-29
-11
-14
-6
12
3
27
7
-19
-51
-45
-4
25
11
10
11
6
-17
-20
-29
-25
-15
-5
8
24
17
4
-13
-12
-44
-29
-34
-14
-5
31
19
13
-6
-7
-20
-21
-23
-18
-15
2
29
19
0
-9
-26
-34
-18
4
-4
16
-5
9
-10
2
-15
-19
-3
38
7
20
17
-6
2
-13
-32
-28
-10
-3
8
15
53
17
-36
-34
-34
-40
-32
-14
4
17
10
-9
-15
-22
-40
-36
-20
-20
3
17
11
-4
-38
-43
-20
-21
-8
2
57
82
102
110
122
98
103
89
96
126
134
140
117
84
33
-22
-49
-63
-36
-1
19
24
14
-13
-27
-20
-35
-40
-8
-8
12
22
3
-17
-17
-34
-19
-39
4
-2
8
12
6
-11
-25
-41
-47
-48
-19
-4
16
1
4
-3
-18
-41
-20
-24
-30
-3
26
14
15
9
-2
-35
-42
-34
15
18
31
20
19
1
-3
-16
-25
-22
21
13
28
5
6
15
4
-14
-19
-11
1
11
31
21
21
16
4
-11
-10
7
14
14
40
41
40
16
-1
-12
8
19
21
28
51
59
33
17
4
-4
-5
20
40
52
50
32
34
39
20
-10
-12
7
29
37
18
39
45
18
9
-10
-22
-19
5
17
28
11
-21
-4
-27
-34
-14
-2
-12
30
23
-2
-12
-12
-31
-16
-29
-13
-14
10
16
14
-2
-6
-36
-29
-17
-31
-19
12
37
33
1
-21
-59
-16
-7
3
12
12
29
11
-4
-28
-30
-2
14
3
-5
19
15
14
-7
-7
-21
-17
-22
1
25
30
45
32
10
-15
-37
-30
-13
0
4
25
36
12
5
-11
-27
-12
-9
-4
2
40
41
11
-1
-1
-9
-13
-1
7
19
12
31
23
21
-17
-45
-11
8
11
15
51
42
21
20
-8
-25
-19
5
17
30
51
40
26
10
3
-2
-4
10
15
20
42
45
27
7
-15
-13
-27
-12
14
42
38
25
24
-1
-12
-26
-32
15
19
35
40
33
1
8
0
-20
-3
31
28
64
92
114
151
138
147
142
127
126
142
146
160
143
109
73
13
-13
-9
4
11
26
21
22
1
28
5
-4
11
12
18
37
41
41
27
10
2
17
-3
14
0
34
45
27
13
27
-15
-10
24
40
37
55
45
33
26
6
-11
-13
-7
38
42
37
16
34
26
21
-5
-4
14
27
27
62
59
17
22
29
12
2
9
27
43
64
57
30
14
33
24
29
14
40
54
64
62
52
19
26
12
27
28
73
67
80
94
62
38
40
54
44
49
57
63
82
91
59
47
43
50
56
52
73
84
83
74
63
44
41
23
14
37
73
64
79
78
54
44
27
14
23
44
51
58
66
64
30
17
11
16
7
20
30
61
60
68
38
-10
-18
-2
15
24
29
40
43
36
23
27
-2
4
3
23
26
39
46
41
37
35
-15
-8
4
29
21
46
51
42
27
21
6
16
30
33
40
48
42
46
33
30
-3
10
14
36
33
51
55
43
27
31
9
19
26
15
22
54
49
50
37
25
5
-5
19
32
36
54
57
43
20
25
9
2
-3
26
34
47
66
38
22
19
-6
-2
18
26
33
53
50
44
27
20
7
6
23
42
29
47
60
30
54
24
9
21
6
21
27
55
48
18
17
6
-17
-1
10
21
22
34
31
19
12
-9
-10
-23
10
39
44
46
39
20
13
-3
-10
-9
3
27
63
86
82
97
144
142
152
165
165
150
169
179
176
154
103
52
14
12
-2
13
31
23
26
7
15
4
19
22
17
15
38
57
54
31
29
11
16
11
24
40
68
50
35
37
31
16
-19
5
37
56
70
71
53
49
11
16
22
13
39
48
79
67
50
21
21
2
24
14
35
59
57
64
55
31
15
13
11
27
31
35
56
70
14
-9
14
19
25
16
45
64
74
74
54
36
25
21
25
55
51
39
74
79
75
57
48
28
43
59
55
77
84
76
53
50
39
47
33
56
47
73
72
78
66
47
26
16
8
38
50
49
71
70
63
48
17
6
15
43
37
42
41
54
38
14
-5
0
16
18
27
44
47
33
15
15
-7
-10
-6
23
33
46
33
41
42
15
-22
-3
8
15
20
34
46
55
22
6
-8
6
3
12
16
41
48
37
25
-10
-9
-1
-5
27
40
40
40
31
9
4
-17
-23
-6
26
20
45
61
28
12
8
-9
-7
-4
28
50
26
28
26
15
1
-5
-4
7
20
18
41
29
17
7
6
3
6
-8
7
48
61
26
22
21
4
-40
-24
8
34
28
31
36
41
15
5
-3
-5
15
15
63
45
49
40
3
0
-5
18
7
16
32
40
39
12
12
6
-14
-4
18
11
35
37
47
11
-7
-13
-8
6
15
28
41
42
34
19
20
4
-25
9
48
51
88
106
167
163
152
130
130
111
128
145
142
130
120
59
23
-22
-39
-33
-8
5
28
44
36
26
6
-9
-15
3
18
19
42
40
41
22
-7
-21
-3
8
27
15
51
37
33
15
10
-16
-9
4
13
23
55
69
49
7
10
-8
3
2
11
42
35
50
34
11
9
-4
-10
7
19
23
68
54
22
24
29
16
0
19
25
32
30
66
51
32
13
6
17
0
20
56
67
66
41
34
22
5
16
35
40
54
76
68
39
31
53
52
26
56
60
52
73
81
58
45
28
40
31
41
52
77
76
63
65
40
35
45
23
38
49
57
62
66
35
22
9
9
18
26
33
60
35
45
19
9
2
-8
1
19
24
44
37
28
20
18
-10
1
16
9
10
52
60
36
24
0
-30
-11
-12
-5
28
49
47
41
19
4
-16
-3
7
5
19
41
40
32
22
10
-18
-25
11
33
30
41
36
37
20
16
-22
-17
3
10
24
48
49
25
31
12
-16
-12
-14
19
1
40
84
52
2
-15
-8
-17
-7
17
20
40
32
20
12
0
-15
-12
3
4
20
48
44
21
15
11
-6
2
10
17
38
36
33
5
-3
15
9
4
-8
16
47
41
37
41
19
0
-4
11
21
28
41
52
29
12
21
-14
-21
-12
19
7
41
41
34
25
-6
-17
-12
1
4
8
34
31
52
8
10
2
-9
0
19
20
27
19
46
20
14
2
36
76
98
143
193
199
164
136
115
123
118
112
111
92
96
66
41
9
-9
-24
-4
1
8
28
25
27
58
25
11
-30
6
-4
8
37
54
41
29
12
-5
-6
-17
14
-5
10
52
49
28
9
8
0
7
22
39
32
50
43
26
18
29
8
17
12
29
48
50
47
35
29
11
17
17
17
41
42
61
43
47
21
-6
18
24
33
31
53
69
65
46
36
31
22
15
30
47
57
62
59
46
39
33
38
51
42
53
77
81
91
65
52
39
36
35
58
64
82
77
56
44
74
55
53
47
53
64
80
89
72
70
37
40
37
29
70
79
72
55
46
42
23
3
21
27
32
42
66
49
53
27
17
-5
-10
-2
31
27
46
53
35
40
33
-13
-13
-22
23
33
42
45
35
21
7
-8
17
15
28
36
41
31
31
26
31
-3
-2
21
24
16
34
37
29
14
10
6
-1
4
35
25
28
43
48
18
7
-14
9
21
18
39
58
42
33
15
7
-10
0
16
33
38
39
43
46
42
32
7
5
15
27
40
57
34
15
6
1
-26
6
37
24
39
48
32
4
22
18
-11
5
29
31
49
64
53
27
9
10
8
4
27
30
46
52
49
30
25
7
13
20
24
40
59
57
42
25
28
6
-2
12
20
36
42
44
37
23
18
-15
20
7
15
34
54
42
31
15
29
1
-20
-10
28
30
52
75
84
75
103
113
150
173
169
156
157
175
181
144
123
79
54
19
19
23
37
31
23
15
10
-16
-17
26
26
23
34
38
35
18
7
1
0
-8
20
28
35
28
37
26
9
-11
-13
11
17
38
41
40
37
39
9
-18
30
10
17
33
37
33
50
20
11
-4
-2
1
32
52
54
73
34
7
13
12
9
22
19
37
42
48
37
37
16
10
-1
23
40
64
58
66
44
36
23
20
23
52
73
85
81
68
51
34
32
47
45
66
66
78
84
89
62
66
34
52
39
43
70
102
80
85
63
67
50
42
50
61
58
80
80
80
45
39
19
22
26
49
50
63
52
79
38
43
20
-11
17
37
38
52
45
41
28
22
19
26
37
46
29
36
40
52
23
8
12
10
14
38
49
52
51
23
29
26
4
0
19
43
34
40
50
48
34
35
1
9
27
31
25
40
58
23
20
26
8
6
24
41
50
53
48
39
31
33
2
29
43
35
53
44
54
45
25
2
-4
13
25
30
41
42
59
31
23
13
17
0
13
31
54
35
42
30
30
8
8
20
32
18
34
61
46
-2
9
18
11
6
33
40
46
56
49
15
29
13
11
11
30
28
70
59
41
33
29
4
15
12
39
45
60
53
51
39
40
-6
11
17
23
38
46
49
40
26
21
-8
-9
19
18
43
64
37
39
17
10
-17
-5
-18
26
58
52
82
116
115
133
134
150
152
154
151
174
167
137
120
102
49
-2
-15
-14
10
46
44
41
18
16
3
14
16
43
34
35
34
45
14
10
-3
-3
21
28
25
46
30
19
11
27
0
-8
23
31
40
49
22
11
20
17
-22
-5
30
32
44
54
46
30
20
9
1
4
32
45
49
49
68
55
22
15
9
7
16
35
47
46
53
37
47
13
5
16
21
38
52
60
57
23
34
13
28
24
37
43
50
59
71
42
33
2
25
40
47
63
75
75
51
51
49
30
40
36
68
51
68
79
67
55
44
12
5
23
39
44
62
64
45
24
13
-3
13
13
26
27
57
31
22
30
16
-18
-17
3
17
36
28
17
24
13
8
-20
-32
-13
1
7
14
29
20
-9
-4
-7
-22
-17
-15
16
41
21
8
-3
-5
-23
-10
-19
8
17
36
9
-1
-4
-11
-16
-33
-11
4
11
36
45
7
-11
-11
-18
-31
-14
10
28
24
16
3
0
-21
-29
-15
-12
15
19
16
17
18
-14
-19
-22
-29
-30
-12
27
39
35
2
-26
-17
-27
-20
8
3
24
19
-4
-15
-3
-30
-26
-14
0
9
17
28
32
15
-13
-54
-12
0
-6
7
31
13
12
9
10
-23
-6
3
6
0
17
28
23
-12
-16
-40
-26
-19
-8
-17
17
-14
13
-3
-7
-45
-47
-30
-5
-7
15
26
7
-7
-6
-23
-29
-19
5
22
14
34
34
36
42
56
94
117
120
139
151
121
122
106
90
34
16
10
-11
-19
-13
-8
-19
-20
-45
-46
-42
-24
-18
-2
43
1
18
-2
-8
-36
-17
-5
-6
6
8
19
10
0
-16
-20
-14
-12
8
24
23
24
-1
-5
-17
-25
-22
1
5
23
32
-2
-9
-4
-10
0
5
-1
21
26
34
25
18
-4
11
-8
-20
11
26
34
40
25
0
8
-15
-8
0
9
5
32
24
30
23
23
-3
1
10
40
29
42
48
49
30
43
9
5
13
38
45
56
74
65
41
32
15
29
39
39
49
65
62
59
40
40
12
25
26
38
35
58
69
65
20
23
1
6
-1
29
9
39
38
28
8
-4
-21
-8
1
5
12
29
25
28
27
-13
-44
-28
-31
2
2
35
27
5
-5
-15
-20
-27
-15
-1
-8
44
52
-3
12
-7
-29
-25
-18
-10
22
28
34
-4
-17
-28
-18
-6
-1
14
20
26
20
14
8
-26
-16
-9
9
16
26
37
17
12
9
-9
-14
-20
2
20
28
28
36
16
6
-28
-29
-18
6
16
33
57
30
18
5
-16
-13
-5
-6
-4
25
18
14
16
5
-5
3
-39
-16
6
49
39
22
1
0
-34
-13
-4
1
10
32
22
30
15
5
-13
-15
-5
9
31
40
31
26
5
10
-21
-6
-4
8
20
35
28
19
13
5
-29
-29
-9
-1
14
48
20
3
-4
18
-13
-45
-25
-9
-7
22
34
6
-11
-15
-38
-20
12
30
59
94
136
146
137
119
104
109
111
138
135
147
121
78
27
-10
-53
-58
-30
-7
11
27
25
2
6
-8
-21
-23
-15
12
27
8
12
-2
-8
-18
-22
-27
-44
-21
31
21
20
12
1
-3
-31
-30
13
18
32
31
14
5
-2
-25
-30
-8
15
16
25
23
29
20
10
-19
-16
11
22
11
27
37
26
4
5
-11
-9
-13
10
15
44
28
28
20
21
-20
-9
0
14
16
46
42
27
34
22
-13
9
25
25
30
38
57
53
23
-8
-20
13
36
51
51
57
73
73
45
46
36
18
21
41
62
74
59
37
25
20
2
5
26
37
45
71
54
27
7
4
2
-15
-16
-8
28
26
30
30
-1
-16
-25
-14
-15
-8
19
32
24
7
-10
-20
-25
-31
-5
11
11
17
24
7
-2
-23
3
11
-13
-35
-4
32
23
8
3
-27
-32
-23
6
8
23
30
30
-18
-70
-21
-24
-8
-8
-1
11
14
22
8
14
-25
-24
-23
0
5
31
25
15
9
-3
-18
-21
-8
3
16
31
19
25
3
-7
-50
-23
34
-17
-6
18
9
8
-13
-17
-11
-12
-38
-2
13
38
23
9
-3
-2
-27
-29
2
7
9
21
28
15
-11
-12
-9
-15
-9
1
4
25
33
30
-7
-2
-7
-26
-14
-8
10
45
45
33
7
-12
-7
-14
-20
31
13
31
21
7
1
-1
-22
-24
-19
-7
-1
17
10
12
-9
4
-23
-23
-13
11
9
29
27
4
-23
-30
-14
-14
-12
5
23
60
75
93
117
130
132
116
131
132
147
159
145
113
77
36
-13
-38
-25
-9
4
11
10
12
-4
-27
-30
-7
5
-18
17
32
31
26
-12
-35
-36
-11
-4
2
26
29
22
-6
1
-16
-19
-9
8
13
31
29
13
-5
-10
-18
-11
-17
2
11
25
39
26
15
0
-18
-13
-7
4
14
26
44
23
5
7
-5
-1
-18
9
-3
34
39
-1
3
39
-17
-14
-6
20
33
43
43
39
5
14
-2
-10
12
15
41
50
52
42
22
36
43
42
8
41
50
66
55
41
33
39
9
3
18
19
32
68
60
52
37
34
4
7
23
39
54
68
47
33
31
0
-12
-5
0
14
26
41
36
13
5
-13
-16
-18
-1
14
35
50
20
-8
-19
-10
-26
-10
0
-6
-6
12
18
-10
2
-16
-23
-32
-2
21
26
17
10
-5
-11
-26
-27
-15
-4
5
24
22
13
0
-4
-27
-35
-29
-21
6
23
25
17
4
-2
-18
-26
-19
5
9
19
26
10
11
-23
-57
-30
-25
-5
-2
30
24
12
-8
-7
-23
-22
-19
2
-9
47
43
7
6
-21
-24
-19
-23
-1
6
13
18
21
2
-4
-27
-23
-19
-7
12
36
45
24
-22
-17
-7
-19
-38
-24
0
18
39
20
-1
-15
-40
-38
-19
14
28
23
23
17
15
-1
-10
-28
-14
17
15
34
27
-1
0
-9
-35
-33
-23
3
10
22
22
0
-11
-19
-27
-34
-23
34
18
5
23
-14
-18
-29
-17
-27
5
42
86
108
138
148
143
128
112
108
137
124
143
144
116
56
11
-25
-45
-41
-15
3
-1
13
24
0
-3
-11
-7
-11
-16
-1
21
31
33
-4
-27
-37
-29
-28
-6
4
27
19
3
-18
2
-26
-18
-19
10
14
16
26
9
6
-5
-20
-28
-14
3
-8
28
21
11
17
13
-19
-17
-3
20
9
27
29
24
-7
-13
-17
-29
-8
8
-7
20
30
27
11
5
-14
-4
-5
12
42
41
29
24
31
17
-4
-12
30
23
30
62
56
47
14
15
3
0
25
37
49
52
54
42
22
32
19
10
34
61
50
54
66
33
19
11
8
7
15
29
36
45
46
30
12
1
3
-10
-2
6
18
22
30
3
-2
-24
-22
-16
-15
0
8
45
38
-23
-24
-36
-32
-22
-30
-9
10
17
8
-5
-11
-23
-25
-28
-11
-7
4
17
9
-13
-14
-26
-35
-21
-16
-4
15
10
1
3
-13
-25
-28
-33
-3
15
15
15
5
-9
-21
-47
-36
-25
3
1
12
16
12
-10
-18
-34
-6
-25
-9
10
39
34
3
-10
-17
-37
-35
-18
16
-7
5
33
24
-1
-25
-25
-13
-16
4
8
28
34
-12
-24
-18
-40
-30
-8
-9
3
14
23
6
8
-16
-8
-19
-5
1
17
32
14
-8
-12
-22
-32
-24
-6
13
10
26
26
17
0
-18
-33
-30
-5
-4
23
40
20
-1
-2
-3
-16
-22
1
39
53
12
-1
4
-8
-21
-24
-14
-7
8
28
27
7
1
-9
-21
-20
-31
-10
-13
25
25
23
5
-17
-35
-23
-22
-11
-1
8
12
2
-20
-17
-18
-6
47
83
84
154
172
151
145
128
99
89
114
133
106
98
49
28
-5
-24
-42
-36
-30
-14
-6
19
22
17
6
-34
-34
-34
-10
1
-6
7
13
8
-9
-3
-34
-44
-13
11
4
39
26
16
-12
-13
-24
-25
-18
-21
2
31
30
19
9
-14
-16
3
-4
6
18
22
31
-1
-6
13
-16
-18
3
12
7
25
-6
1
20
-5
-7
-22
21
15
16
21
31
6
3
-16
-8
-12
8
19
43
42
51
48
35
18
8
1
20
38
63
75
65
43
25
20
35
41
52
65
68
79
76
51
37
11
38
27
67
73
93
79
81
65
53
44
22
39
50
55
79
70
88
44
30
23
14
15
33
46
67
85
60
15
13
-12
17
24
40
40
68
56
62
58
47
25
19
14
17
55
58
52
48
30
24
18
23
18
36
40
60
59
73
44
42
20
16
3
26
70
111
53
75
39
41
20
11
25
40
38
40
53
54
37
34
28
31
43
51
59
75
74
65
48
34
24
54
49
44
63
88
108
51
39
34
25
34
37
66
65
73
79
60
50
31
28
13
74
56
58
76
80
68
63
48
30
39
43
60
35
40
97
65
53
39
41
38
58
83
64
72
74
98
65
32
32
47
60
65
92
97
82
76
57
30
37
46
56
71
65
85
96
69
53
77
81
57
63
63
90
90
97
90
64
43
52
62
72
86
112
94
96
98
76
58
57
72
91
83
100
101
101
67
77
34
37
52
69
72
103
95
94
68
71
33
38
44
71
64
79
60
69
67
71
43
24
86
106
104
178
190
211
210
190
170
194
191
229
199
198
185
146
79
53
16
14
21
63
78
90
84
58
57
44
31
39
73
69
76
45
37
44
68
29
21
36
41
50
65
94
78
50
41
39
18
38
48
44
58
87
30
48
43
62
8
23
45
38
77
71
63
43
44
19
10
24
44
48
55
68
69
42
38
24
35
49
33
44
66
77
39
24
37
26
17
22
30
70
96
82
66
59
44
29
38
26
30
26
80
78
63
58
53
37
46
60
51
66
95
94
87
58
39
36
51
61
66
55
67
65
76
99
80
36
24
