-27
-26
-24
-23
-25
-24
-27
-28
-23
-25
-26
-23
-22
-22
-22
-25
-25
-26
-25
-21
-23
-21
-22
-19
-20
-18
-18
-24
-22
-20
-21
-22
-19
-20
-17
-20
-20
-23
-23
-23
-25
-21
-23
-18
-21
-24
-24
-24
-23
-24
-21
-20
-22
-18
-20
-23
-24
-27
-23
-24
-28
-24
-25
-21
-24
-21
-24
-27
-25
-25
-23
-22
-25
-22
-22
-24
-29
-28
-25
-26
-24
-23
-22
-23
-24
-24
-27
-28
-24
-22
-23
-24
-24
-22
-19
-24
-26
-28
-25
-25
-25
-25
-23
-16
-18
-19
-19
-15
-13
-17
-13
-12
-7
-7
-9
-12
-14
-14
-10
-15
-9
-12
-8
-11
-16
-24
-29
-30
-29
-29
-24
-23
-25
-26
-26
-30
-34
-31
-30
-29
-28
-27
-27
-27
-30
-30
-30
-32
-29
-30
-28
-29
-28
-31
-37
-31
-26
-14
-2
8
19
34
54
75
100
122
137
149
145
137
98
70
34
-8
-64
-82
-90
-81
-73
-67
-62
-55
-47
-42
-41
-41
-39
-37
-33
-34
-35
-36
-36
-33
-35
-35
-36
-32
-32
-29
-31
-32
-28
-27
-34
-35
-37
-30
-31
-33
-30
-29
-25
-26
-26
-29
-30
-29
-28
-25
-26
-24
-24
-24
-27
-25
-28
-24
-24
-22
-22
-20
-16
-17
-17
-21
-22
-18
-21
-18
-16
-15
-9
-6
-15
-13
-14
-11
-9
-7
-7
-4
3
2
2
1
3
8
8
14
15
15
20
17
17
17
21
23
21
24
26
21
26
22
23
19
16
20
20
20
20
18
16
10
7
2
3
2
2
0
-1
-2
-8
-10
-14
-16
-14
-19
-19
-19
-18
-21
-20
-23
-24
-27
-28
-25
-25
-25
-28
-24
-25
-27
-29
-32
-31
-28
-32
-31
-32
-25
-27
-30
-36
-37
-32
-33
-33
-32
-29
-27
-30
-29
-35
-37
-34
-29
-33
-34
-30
-27
-27
-32
-33
-36
-32
-30
-30
-30
-27
-24
-27
-31
-36
-37
-30
-29
-25
-28
-26
-24
-25
-28
-30
-25
-23
-28
-27
-26
-24
-20
-27
-24
-26
-29
-29
-30
-24
-21
-22
-23
-23
-26
-29
-29
-27
-29
-21
-21
-25
-22
-23
-24
-32
-28
-25
-29
-28
-26
-26
-24
-29
-29
-32
-31
-31
-31
-27
-28
-26
-22
-26
-28
-29
-32
-28
-26
-27
-23
-23
-22
-26
-26
-31
-31
-28
-27
-22
-23
-21
-19
-20
-21
-23
-20
-19
-17
-18
-15
-12
-12
-17
-17
-17
-18
-17
-21
-22
-26
-28
-27
-30
-37
-36
-35
-33
-38
-34
-29
-24
-28
-32
-34
-37
-35
-33
-36
-32
-30
-28
-29
-32
-36
-38
-37
-33
-35
-36
-35
-28
-24
-12
-4
-2
14
34
53
78
107
130
138
142
136
101
69
39
-1
-50
-77
-83
-84
-79
-72
-68
-61
-55
-54
-46
-41
-36
-37
-38
-36
-38
-35
-33
-36
-32
-34
-29
-28
-32
-34
-33
-29
-30
-31
-30
-28
-24
-28
-32
-30
-34
-30
-29
-24
-24
-25
-20
-27
-30
-29
-25
-23
-24
-23
-22
-22
-19
-20
-23
-24
-21
-20
-22
-19
-18
-16
-11
-14
-17
-18
-19
-12
-11
-12
-7
-4
-5
-3
-6
-7
-4
-4
0
2
4
7
10
8
5
6
15
20
15
18
19
25
29
26
23
23
25
26
25
24
27
29
25
24
20
16
13
15
14
13
12
14
9
3
0
2
1
-1
-8
-8
-7
-5
-11
-14
-16
-19
-18
-14
-17
-22
-19
-18
-21
-25
-26
-28
-24
-20
-23
-25
-21
-22
-24
-27
-27
-27
-22
-26
-23
-25
-24
-21
-24
-25
-27
-30
-34
-26
-27
-25
-25
-25
-25
-29
-33
-34
-31
-27
-24
-25
-25
-21
-22
-22
-27
-27
-21
-26
-23
-25
-22
-19
-20
-24
-28
-24
-20
-24
-21
-18
-20
-19
-20
-20
-23
-23
-22
-19
-21
-20
-16
-12
-18
-22
-23
-18
-16
-20
-11
-16
-16
-14
-15
-18
-23
-21
-21
-21
-15
-17
-14
-9
-13
-19
-21
-18
-19
-18
-19
-19
-14
-9
-12
-14
-16
-9
-12
-12
-15
-10
2
0
-5
-6
-10
-8
-12
-11
-7
-11
-13
-16
-24
-28
-29
-25
-24
-24
-25
-25
-27
-26
-24
-26
-28
-28
-27
-26
-25
-28
-26
-28
-32
-32
-30
-30
-26
-25
-26
-27
-25
-28
-27
-15
-7
-1
7
19
41
59
84
121
138
143
143
137
101
76
45
-3
-54
-74
-83
-84
-79
-66
-60
-53
-51
-46
-39
-35
-35
-39
-40
-35
-33
-34
-32
-30
-26
-25
-28
-33
-34
-29
-29
-30
-28
-26
-26
-28
-27
-32
-30
-26
-26
-26
-24
-27
-21
-25
-25
-30
-26
-22
-23
-21
-24
-20
-20
-22
-24
-25
-23
-17
-16
-15
-16
-17
-13
-18
-18
-16
-15
-12
-12
-8
-8
-3
0
-3
-8
-11
-8
-10
-4
0
-1
6
12
13
10
9
13
16
18
18
20
24
26
26
24
21
23
22
24
20
18
24
21
16
14
14
14
17
16
10
11
13
9
5
0
0
-3
-5
-3
-6
-9
-8
-11
-14
-16
-19
-16
-16
-18
-17
-19
-18
-22
-30
-28
-34
-26
-28
-28
-29
-31
-28
-28
-30
-29
-29
-29
-27
-28
-26
-29
-26
-32
-33
-33
-40
-33
-36
-39
-40
-32
-30
-35
-41
-45
-46
-40
-40
-36
-33
-33
-28
-31
-40
-45
-49
-45
-40
-37
-38
-37
-35
-39
-44
-41
-41
-36
-43
-35
-35
-36
-37
-35
-43
-49
-45
-48
-51
-48
-46
-45
-39
-44
-48
-44
-46
-48
-49
-47
-47
-48
-42
-45
-44
-44
-39
-42
-42
-38
-39
-39
-36
-44
-45
-43
-39
-36
-37
-40
-34
-32
-28
-35
-37
-33
-28
-29
-26
-23
-24
-18
-17
-19
-21
-24
-24
-22
-22
-22
-26
-28
-27
-31
-34
-40
-31
-26
-26
-24
-17
-20
-19
-28
-29
-33
-27
-26
-25
-23
-24
-21
-20
-25
-31
-24
-17
-20
-22
-21
-21
-15
-14
-12
-4
-2
11
29
43
67
93
117
139
154
154
150
130
96
74
36
-15
-47
-55
-60
-54
-49
-40
-36
-30
-29
-19
-17
-27
-26
-22
-21
-18
-14
-11
-13
-12
-10
-11
-17
-12
-17
-13
-18
-11
-8
-10
-7
-13
-14
-12
-12
-14
-13
-6
-8
-7
-1
-9
-11
-12
-10
-9
-6
-2
-4
0
1
-2
-3
-10
-2
3
6
2
2
5
6
5
4
-1
2
6
6
10
9
12
10
11
8
10
15
14
18
18
21
29
33
29
29
31
35
33
37
39
38
47
48
46
46
43
51
50
44
45
44
47
48
45
43
38
39
34
37
35
37
38
32
25
24
20
20
20
17
19
16
19
17
15
9
5
15
10
6
7
8
9
10
1
3
2
2
5
1
3
6
6
9
1
-1
-1
1
4
0
1
3
3
1
3
0
-2
-1
1
0
3
1
5
2
0
-3
-3
-5
-1
1
-3
2
3
-2
0
-5
-1
2
-1
3
2
2
4
4
2
-4
5
4
4
4
7
8
2
6
0
-2
1
9
9
7
11
10
10
12
6
0
2
7
10
12
14
14
13
12
8
5
8
9
12
13
14
21
18
13
11
6
8
10
15
16
16
19
19
17
14
13
18
18
18
18
23
24
25
24
20
19
20
21
19
17
17
18
17
8
6
0
4
5
7
8
10
10
8
4
4
3
5
6
7
6
8
9
4
9
5
3
3
5
6
7
3
7
14
20
27
27
37
60
81
100
126
151
162
165
161
133
109
83
44
2
-31
-37
-40
-37
-33
-26
-20
-15
-13
-7
-3
4
4
4
-2
-3
-1
0
3
2
4
10
6
2
1
4
6
1
6
6
8
13
10
5
-3
5
9
4
9
9
10
10
11
9
7
7
9
8
9
10
13
17
12
5
13
10
16
12
15
20
16
21
20
13
15
19
18
23
24
24
24
27
23
21
20
25
35
38
37
36
39
41
40
38
40
47
46
47
47
52
55
55
59
52
50
53
52
53
56
56
55
54
49
48
44
44
41
45
44
42
41
38
35
28
26
26
22
18
21
19
21
17
18
13
12
15
11
10
12
11
13
13
9
10
4
12
10
5
5
9
11
7
2
4
1
4
9
6
9
6
6
5
1
-1
1
3
4
3
1
9
7
5
1
-4
-3
1
-1
4
7
2
3
4
0
1
0
1
1
7
5
2
7
5
1
-2
2
9
6
9
8
8
12
8
8
8
8
7
9
8
8
12
16
14
12
7
12
5
8
11
11
12
16
12
9
7
8
10
14
11
13
12
13
12
6
4
7
11
10
9
5
13
12
7
8
6
9
11
11
13
13
14
10
8
6
5
16
16
23
19
18
21
19
15
16
14
18
19
19
18
21
23
21
16
13
10
10
10
8
8
10
12
12
11
9
2
1
-5
3
4
4
7
4
6
2
1
4
6
5
3
3
7
7
8
4
0
-1
1
9
13
25
29
38
53
71
94
120
140
160
166
164
160
127
103
72
35
-13
-31
-36
-30
-22
-12
-11
-5
-10
-9
-4
3
0
4
1
6
5
4
1
2
4
3
6
6
5
6
3
4
1
5
8
6
12
12
11
10
5
6
4
7
6
6
11
12
13
13
11
11
7
8
10
14
14
13
16
18
16
16
8
13
19
15
15
19
21
21
23
21
15
19
20
22
28
28
32
34
30
29
30
32
33
34
39
41
46
46
44
45
45
47
50
50
52
53
56
52
50
49
47
52
49
50
50
53
55
49
43
37
37
36
35
34
30
36
37
32
29
21
20
17
18
23
21
21
21
16
16
12
13
13
12
12
13
11
12
13
8
5
6
7
12
11
11
10
10
11
7
4
9
6
6
11
11
12
13
8
6
2
6
8
10
5
6
9
11
9
4
3
9
7
9
8
7
6
8
7
6
2
3
7
7
8
9
9
11
11
12
5
6
8
9
10
10
13
13
11
10
7
9
12
11
13
13
20
17
13
11
10
11
10
11
12
13
20
19
12
14
11
9
12
9
13
18
21
15
10
10
9
8
10
13
13
12
15
15
12
10
7
9
10
15
15
15
17
13
9
6
8
12
12
13
11
15
15
11
11
9
8
10
10
12
15
13
15
13
12
6
8
9
13
13
17
11
17
15
11
8
10
12
12
12
12
13
19
25
21
14
17
14
15
18
20
23
25
24
23
18
15
18
19
20
20
22
18
12
5
3
6
8
8
8
7
7
8
5
3
2
1
8
7
5
7
7
10
6
4
1
1
2
1
1
-1
6
12
12
22
25
34
46
66
90
112
135
154
160
159
156
129
100
78
47
-2
-24
-33
-35
-27
-22
-15
-10
-8
-10
-6
5
2
-1
-3
-1
-1
1
0
0
0
5
6
4
1
-1
-1
-3
0
3
3
8
8
2
-2
-2
3
6
7
7
5
9
10
4
7
7
5
5
7
9
10
15
12
9
7
5
5
8
8
8
9
17
15
17
10
8
13
15
16
13
20
23
21
21
18
19
21
25
28
29
31
34
35
33
33
35
39
40
37
39
40
45
46
41
41
43
46
47
47
43
45
48
48
42
38
37
36
36
38
35
34
35
32
28
21
21
22
20
16
16
19
19
17
10
7
9
11
12
11
8
7
10
4
4
-2
2
3
4
5
3
6
6
7
5
-4
0
3
3
1
-3
3
5
7
1
-4
1
-1
0
-1
1
4
4
4
0
-3
1
2
-2
-2
-3
4
3
-2
-1
-4
1
-1
-1
5
3
2
3
-2
1
1
0
0
3
5
5
9
7
1
1
-2
1
4
5
7
7
11
8
6
6
2
6
6
8
9
9
10
8
2
3
0
5
8
8
9
8
7
9
4
4
5
11
7
9
9
8
9
3
0
1
3
5
5
8
7
11
11
10
2
6
4
6
8
11
12
8
3
0
4
5
5
9
10
10
9
5
4
3
7
3
2
5
4
13
14
9
4
3
5
7
4
5
7
11
11
8
6
3
4
4
7
10
8
9
8
8
4
1
3
7
7
5
8
12
10
9
5
7
9
8
8
7
5
10
7
6
6
4
8
9
13
14
15
20
20
16
13
14
16
18
19
23
22
25
21
20
17
16
18
19
17
11
8
8
4
3
2
1
5
9
1
5
5
6
4
3
-1
1
5
3
7
3
3
11
7
2
-3
-1
0
2
12
23
28
33
45
57
80
98
122
142
160
161
161
149
117
90
56
20
-20
-31
-30
-23
-21
-16
-9
-11
-10
-11
-8
0
2
0
6
7
1
-2
2
0
2
1
2
1
4
4
4
1
0
-1
2
8
7
6
5
9
5
7
1
4
8
7
7
5
9
8
6
5
4
5
7
7
15
14
15
19
11
6
6
13
14
15
13
20
25
22
16
17
16
22
22
21
24
23
26
27
31
27
27
27
31
34
33
36
45
41
40
41
43
43
44
46
49
50
51
53
49
48
46
52
50
51
48
50
49
43
41
40
38
41
36
38
36
31
31
30
25
22
20
25
24
21
21
19
20
17
14
13
9
10
11
11
10
11
14
15
7
1
2
7
4
10
12
11
10
8
4
2
7
6
4
5
5
5
8
5
4
4
1
6
2
3
5
7
8
4
2
-2
2
3
3
5
6
6
6
3
0
0
4
1
3
6
6
6
9
4
0
2
4
5
11
9
8
8
7
5
5
3
8
12
12
13
12
13
11
9
6
7
8
8
9
11
13
16
18
9
5
3
7
10
13
9
9
13
13
12
6
5
6
8
9
10
12
14
13
6
5
3
6
5
5
10
8
12
9
5
7
3
3
3
6
7
10
15
10
7
-1
3
5
6
6
12
11
11
8
5
2
0
7
5
6
8
10
10
6
4
6
6
6
1
7
9
5
10
11
6
2
2
3
5
9
5
8
7
7
4
0
1
5
9
10
8
9
11
9
2
1
0
1
6
9
10
8
13
10
1
6
8
8
8
8
4
7
12
7
3
-1
3
8
7
12
14
15
20
15
12
12
17
14
14
17
19
24
25
18
18
16
19
16
14
12
11
8
9
3
4
3
4
2
1
4
6
6
7
5
0
1
7
3
1
3
6
12
6
3
-3
-4
3
3
12
15
26
33
40
52
72
87
111
134
149
161
159
158
124
101
71
40
-12
-32
-38
-33
-23
-19
-14
-12
-12
-9
-6
1
1
1
1
8
5
3
2
0
0
1
3
5
3
9
10
5
3
2
1
2
4
3
7
13
10
7
2
2
5
10
11
12
12
18
10
9
8
6
10
10
12
11
15
14
14
12
11
11
15
18
16
16
17
21
20
13
13
19
21
25
23
25
24
27
25
26
27
31
32
35
35
38
38
41
44
38
40
46
45
47
49
51
57
56
53
49
47
49
50
47
47
44
50
47
44
41
38
38
39
38
34
33
34
34
28
24
18
24
22
26
20
16
20
17
14
10
7
10
11
12
10
12
11
11
8
7
3
5
5
8
5
5
12
7
9
3
-1
0
4
5
4
9
9
8
0
-3
-1
1
4
2
1
4
4
1
0
-4
-3
2
1
1
4
3
7
3
-2
-5
-3
4
4
6
0
2
8
6
6
-1
1
5
4
7
5
6
10
13
3
-2
5
9
12
11
7
11
14
13
8
4
7
7
7
6
8
9
12
11
10
7
6
6
9
12
9
12
12
8
6
4
5
5
7
7
8
9
11
4
2
-2
6
8
10
11
7
8
8
5
2
-2
6
4
6
6
7
11
6
4
2
0
3
7
6
5
5
4
5
6
4
-1
2
2
5
5
6
6
4
4
5
-1
3
5
5
9
5
8
6
3
-4
-5
4
8
9
9
2
8
4
4
-1
-4
2
2
4
6
5
4
5
4
1
-1
4
2
3
5
5
7
4
2
0
2
4
3
2
5
6
8
9
6
0
-3
1
0
-1
7
8
11
7
5
8
9
13
11
12
12
12
15
16
14
12
13
17
15
13
12
14
7
4
1
-1
2
1
0
2
-1
3
0
3
-2
-2
-4
-5
0
0
1
2
3
-5
-7
-13
-9
-1
0
-2
-3
5
10
17
20
23
38
55
74
93
113
138
154
158
159
142
109
89
57
27
-22
-34
-43
-39
-37
-30
-24
-18
-19
-16
-11
-2
-5
-6
-7
-8
-6
-3
-3
-1
-2
-1
-3
-4
-3
-4
0
2
0
0
0
3
2
0
-1
1
4
0
1
3
3
6
5
4
0
0
3
6
8
5
10
10
8
5
3
5
5
9
11
12
12
16
12
8
7
4
14
18
17
21
17
21
22
24
19
19
22
25
28
28
30
33
31
29
32
34
38
40
44
51
43
48
46
48
47
48
48
49
51
52
49
52
48
41
43
40
37
43
39
42
40
37
34
36
27
27
24
23
21
24
22
18
14
13
12
8
10
13
11
9
11
13
9
5
4
5
3
5
4
5
9
7
5
0
-2
2
5
5
6
6
6
7
1
1
2
-2
2
2
3
3
9
5
4
3
-3
4
6
3
5
7
7
6
9
6
3
9
6
10
12
8
10
11
6
10
8
8
12
13
11
15
16
15
15
13
14
18
18
18
19
20
24
20
19
17
20
23
22
26
21
22
23
22
23
23
22
26
25
28
25
31
30
25
28
22
21
26
25
26
26
28
29
29
27
21
28
26
28
28
30
25
26
28
27
19
23
26
25
28
26
31
30
29
23
26
23
24
22
22
28
32
27
24
25
20
26
24
25
28
25
30
27
27
24
23
25
27
22
21
26
30
28
26
23
24
24
29
24
28
23
31
28
26
23
24
24
27
26
27
31
32
33
28
25
25
27
30
31
30
31
27
17
21
22
24
25
27
25
31
33
38
36
30
36
27
30
32
40
35
38
43
41
33
39
38
37
35
35
35
30
26
25
24
26
24
25
21
27
26
30
26
21
25
19
13
22
18
16
16
32
26
22
20
11
12
11
21
24
26
33
49
52
54
60
82
97
119
143
163
169
175
156
120
100
74
47
-3
-29
-32
-35
-28
-18
-12
-14
-6
-2
1
3
7
13
16
18
13
9
11
9
10
15
18
16
17
10
11
13
18
17
12
22
21
21
20
18
13
6
15
16
12
17
22
20
25
17
16
14
16
16
18
21
24
29
23
24
21
14
21
20
17
23
18
23
27
25
25
22
21
28
24
28
28
33
34
32
30
32
39
37
34
37
42
49
47
42
43
45
48
50
52
58
58
58
59
55
51
51
55
55
56
57
58
57
56
47
43
40
43
41
43
46
43
40
35
29
21
25
26
25
21
21
23
22
17
15
15
12
14
11
11
12
9
14
4
3
4
3
8
6
7
7
6
7
4
2
-3
-1
0
1
2
3
3
0
-3
-3
-1
1
-6
-5
-4
0
1
-1
1
-2
-5
-2
-4
-3
-1
-1
4
3
-5
-6
-1
4
-4
-4
1
0
4
6
1
-1
-3
-1
1
-1
-2
0
4
7
5
1
0
3
2
4
4
4
6
5
5
3
-2
5
3
3
3
2
5
3
-2
-2
-3
4
5
2
0
2
5
1
-2
-5
-2
-1
-1
0
0
2
1
-1
-2
-3
-7
-6
-5
-4
-1
0
3
0
-2
-1
-4
-5
-3
0
-2
-2
1
-2
-2
-3
-4
-7
-6
-5
-3
-1
1
0
2
1
-3
1
2
8
4
3
11
10
6
7
7
6
11
8
7
4
9
7
0
-9
-4
-6
-7
-8
2
0
-2
-2
-8
-4
-9
-5
-8
-4
-3
-8
-3
-3
-11
-17
-6
-6
-9
-2
-5
-8
-10
-9
-15
-7
5
14
24
29
42
65
84
101
118
127
136
138
127
89
64
45
17
-36
-59
-63
-54
-44
-38
-31
-22
-22
-20
-20
-18
-19
-15
-13
-11
-9
-9
-7
-5
-9
-11
-17
-10
-9
-11
-7
-7
-5
-6
-6
-8
-11
-9
-8
-3
-5
-4
-3
-6
-7
-8
-10
-4
-3
-1
-4
-2
2
-2
-5
-2
-7
-1
1
8
1
-1
5
3
2
-4
-1
2
6
4
8
10
10
8
6
2
5
12
13
17
19
19
22
24
21
19
18
25
26
23
30
33
38
35
33
33
36
36
37
42
41
40
41
39
36
33
35
34
31
32
33
36
31
29
21
15
18
18
15
13
14
15
14
11
4
-2
0
0
1
1
0
0
0
-2
-6
-9
-6
-2
-5
-4
-4
0
-3
-6
-14
-14
-10
-13
-11
-7
-8
-3
0
-10
-11
-15
-12
-9
-9
-10
-7
-7
-10
-8
-13
-12
-14
-12
-13
-9
-11
-6
-9
-10
-11
-13
-13
-14
-13
-7
-7
-3
-3
-3
-11
-12
-7
-7
-7
-9
-6
-3
-3
-8
-8
-8
-5
-2
-7
-6
-7
-4
-3
-3
-4
-12
-2
-3
-1
-4
0
0
-3
-7
-6
-5
-1
-2
-3
-2
-4
0
-1
-4
-8
-10
-4
-5
-2
-6
-3
1
-2
-6
-8
-10
-7
-7
-4
-6
-7
-4
-4
-6
-7
-5
-9
-7
-8
-7
-2
0
-5
-7
-11
-6
-1
2
2
4
3
4
5
4
5
4
5
3
5
5
10
9
3
-5
-9
-6
-10
-7
-11
-9
-7
-5
-10
-11
-14
-12
-11
-12
-13
-11
-8
-9
-11
-13
-18
-12
-9
-12
-11
-11
-8
-9
-11
-18
-22
-13
-4
6
7
14
27
46
61
82
102
119
137
139
138
124
92
69
34
-7
-54
-65
-67
-59
-48
-41
-31
-30
-30
-31
-29
-22
-23
-14
-15
-15
-11
-14
-20
-19
-19
-16
-14
-14
-17
-13
-11
-12
-15
-15
-14
-7
-12
-13
-11
-8
-6
-12
-14
-14
-11
-10
-12
-11
-8
-11
-7
-8
-9
-11
-10
-6
-7
-5
-5
-8
-2
-2
-5
-8
-8
-6
-6
-3
2
-4
3
3
1
-2
3
4
4
9
13
14
14
11
9
8
16
17
19
23
22
25
31
26
25
25
26
27
33
33
33
34
34
30
29
27
29
27
28
30
28
28
27
26
21
13
15
15
13
14
13
13
10
7
3
-1
-3
-4
-6
-6
-3
-5
-4
-9
-9
-12
-12
-13
-11
-12
-12
-7
-9
-11
-11
-14
-17
-14
-14
-17
-13
-10
-11
-14
-12
-16
-17
-19
-19
-19
-15
-12
-12
-16
-16
-22
-21
-18
-19
-19
-14
-14
-17
-19
-23
-23
-15
-17
-15
-15
-14
-12
-12
-17
-19
-22
-15
-14
-13
-16
-16
-13
-12
-11
-14
-13
-16
-17
-13
-8
-10
-10
-11
-13
-18
-15
-15
-13
-9
-9
-10
-5
-6
-11
-15
-11
-10
-11
-10
-9
-13
-10
-10
-10
-13
-15
-15
-14
-9
-11
-12
-12
-15
-15
-16
-16
-11
-11
-10
-8
-9
-9
-10
-13
-16
-10
-8
-6
-7
-6
-5
-3
-1
-4
-9
-7
-2
-3
2
4
6
0
-4
-5
-11
-8
-9
-11
-15
-15
-16
-16
-19
-22
-24
-19
-19
-19
-15
-18
-16
-17
-19
-19
-24
-22
-20
-20
-21
-21
-16
-18
-20
-21
-25
-20
-17
-23
-17
-8
9
12
14
30
45
70
93
117
135
147
152
142
104
74
38
5
-42
-63
-71
-70
-58
-54
-50
-45
-42
-38
-34
-27
-27
-26
-22
-21
-26
-26
-26
-24
-28
-25
-22
-22
-20
-19
-20
-23
-25
-25
-22
-24
-19
-18
-15
-16
-21
-26
-26
-20
-19
-19
-14
-17
-13
-14
-20
-21
-19
-16
-18
-17
-15
-10
-9
-11
-14
-19
-17
-13
-12
-12
-11
-5
-6
-9
-10
-12
-10
-5
-3
-2
1
2
0
1
-2
1
5
9
11
12
13
17
23
16
14
18
18
23
27
29
30
32
37
32
29
26
28
30
29
31
30
29
30
24
23
20
19
19
19
18
19
16
12
7
4
4
3
3
-1
-4
-3
1
-1
-7
-4
-16
-12
-11
-13
-13
-7
-11
-13
-12
-15
-19
-12
-11
-11
-8
-9
-6
-8
-10
-12
-13
-8
-7
-5
-10
-10
-2
0
-5
-6
-11
-13
-9
-6
-7
-8
-4
-4
-7
-12
-13
-6
-6
-5
-4
-3
-2
-4
-4
-3
-7
-6
-7
-2
5
1
5
2
-3
-4
-3
-1
-1
0
3
6
7
4
0
-2
-1
-1
-1
2
3
1
1
0
-4
0
0
2
-2
1
4
2
5
1
-3
-1
2
0
-4
0
2
2
4
6
0
-5
-2
-2
1
2
5
7
5
2
-1
-3
0
3
3
6
6
7
9
5
4
4
5
9
12
11
13
15
11
9
6
4
7
9
2
-2
-4
1
0
-5
-5
-11
-8
-6
-2
-5
-6
-5
-7
-11
-11
-12
-9
-7
-9
-6
-5
-5
-2
-9
-10
-12
-11
-13
-15
-12
-4
7
12
15
27
45
68
91
117
139
157
169
165
149
109
82
54
15
-35
-52
-61
-59
-51
-48
-42
-38
-30
-30
-22
-21
-18
-12
-17
-12
-15
-14
-12
-14
-12
-13
-14
-11
-14
-17
-20
-20
-18
-15
-15
-14
-16
-12
-14
-18
-21
-17
-15
-15
-12
-11
-15
-11
-14
-15
-25
-20
-17
-20
-13
-14
-14
-10
-23
-21
-16
-15
-14
-13
-8
-9
-7
-4
-8
-8
-10
-6
-5
-3
-1
0
4
5
6
6
3
8
12
13
14
16
20
24
27
28
27
31
33
34
38
44
47
49
44
43
43
43
46
45
53
57
57
55
52
50
48
48
46
48
51
48
51
47
46
44
44
45
35
36
34
38
39
37
34
35
30
35
30
39
35
36
40
36
33
30
24
35
30
31
32
32
38
39
32
32
30
37
38
41
37
39
36
36
31
27
28
31
32
35
33
35
37
34
32
27
28
31
31
34
36
38
39
38
33
27
34
37
35
31
38
40
40
38
36
36
33
38
34
36
39
40
37
39
35
32
33
33
34
39
38
37
38
38
38
32
34
32
35
40
37
35
37
40
36
31
32
35
30
32
38
40
36
37
34
33
33
31
35
37
38
41
38
39
35
36
39
40
41
42
41
42
46
40
36
37
43
43
43
41
42
40
37
32
29
19
21
30
29
26
26
31
27
23
18
14
17
17
16
17
21
26
23
21
19
15
18
20
20
23
21
22
18
18
22
28
42
46
55
75
98
119
143
166
181
188
189
172
145
119
81
40
-12
-23
-42
-32
-19
-13
-8
-2
-1
8
14
16
12
12
13
14
17
23
25
22
19
16
10
12
18
16
17
16
19
23
23
15
10
19
19
18
27
27
23
28
26
24
23
24
24
19
25
20
27
23
22
21
25
30
24
20
24
32
31
31
29
24
16
30
29
26
30
32
35
33
33
31
33
36
37
36
35
39
46
50
48
47
43
54
52
56
56
58
64
61
60
61
57
63
63
60
64
62
64
57
52
53
50
49
52
54
49
51
52
49
43
41
39
37
36
34
34
33
31
28
27
26
20
24
23
22
28
22
23
19
16
21
17
22
20
21
24
21
22
22
14
10
6
12
18
16
13
14
15
20
12
15
7
8
12
19
11
15
21
14
15
9
13
11
15
19
12
15
17
18
17
16
15
19
19
17
20
24
27
22
24
19
16
19
20
7
11
13
18
17
20
16
20
22
22
15
24
21
24
23
22
16
20
22
23
22
22
24
26
22
16
16
19
24
24
22
24
25
26
22
21
15
13
26
25
19
23
24
20
18
20
22
24
26
25
25
26
30
31
30
35
30
30
25
32
34
27
32
27
30
22
16
11
12
12
7
11
15
13
13
8
6
13
12
10
7
12
12
8
10
5
4
6
13
12
12
10
10
5
5
3
3
14
18
25
33
44
62
85
99
125
144
160
164
155
143
100
81
40
-6
-45
-53
-50
-48
-40
-25
-25
-24
-24
-20
-16
-19
-14
-14
-9
-12
-8
-10
-5
-9
-14
-14
-6
-11
-7
-13
-10
-8
-14
-19
-17
-14
-14
-18
-16
-16
-12
-13
-11
-17
-20
-18
-17
-15
-17
-18
-12
-19
-13
-20
-21
-24
-25
-23
-22
-18
-21
-12
-24
-27
-29
-24
-19
-17
-18
-19
-17
-13
-23
-27
-25
-20
-24
-18
-20
-20
-17
-14
-14
-9
-15
-8
-13
-16
-19
-4
0
-4
-6
-12
-11
-7
-4
-6
-7
-4
3
-2
-5
-14
-17
-14
-18
-14
-19
-21
-25
-26
-21
-30
-32
-36
-37
-38
-36
-38
-45
-42
-49
-46
-58
-55
-57
-58
-60
-54
-48
-54
-57
-64
-66
-64
-67
-67
-70
-66
-64
-62
-73
-75
-78
-71
-70
-69
-71
-71
-68
-67
-72
-76
-80
-79
-77
-73
-75
-75
-73
-75
-79
-80
-83
-75
-78
-77
-75
-76
-74
-75
-79
-80
-79
-76
-79
-77
-74
-74
-74
-75
-82
-83
-82
-79
-80
-69
-72
-74
-70
-73
-76
-76
-78
-74
-78
-71
-74
-75
-73
-72
-73
-75
-76
-74
-73
-72
-68
-65
-66
-69
-74
-74
-72
-72
-65
-67
-67
-62
-62
-61
-64
-64
-63
-61
-68
-62
-62
-63
-60
-63
-61
-60
-59
-58
-68
-61
-63
-64
-71
-76
-84
-81
-79
-78
-75
-74
-77
-74
-75
-79
-84
-85
-82
-83
-83
-79
-79
-77
-80
-81
-82
-83
-82
-82
-78
-81
-82
-82
-80
-77
-78
-63
-54
-52
-42
-23
-4
23
43
59
66
74
72
40
15
-12
-47
-93
-124
-134
-130
-126
-116
-106
-103
-104
-101
-90
-86
-89
-90
-88
-84
-82
-80
-82
-88
-79
-77
-79
-84
-86
-84
-84
-81
-78
-77
-78
-79
-78
-86
-81
-79
-77
-78
-78
-74
-72
-79
-80
-79
-80
-78
-77
-73
-74
-73
-68
-68
-73
-74
-74
-72
-74
-68
-70
-68
-56
-67
-70
-68
-63
-69
-66
-61
-59
-58
-54
-59
-57
-61
-57
-55
-52
-55
-54
-44
-41
-47
-44
-47
-41
-39
-36
-36
-34
-25
-30
-32
-35
-36
-31
-32
-25
-29
-25
-31
-28
-37
-39
-37
-38
-37
-41
-40
-41
-40
-44
-49
-51
-54
-51
-52
-58
-61
-60
-57
-57
-58
-62
-69
-67
-66
-63
-71
-68
-67
-71
-71
-71
-74
-67
-69
-68
-69
-70
-66
-68
-78
-75
-75
-72
-78
-78
-75
-73
-69
-69
-74
-76
-75
-70
-71
-73
-74
-74
-69
-71
-74
-74
-76
-76
-77
-72
-71
-70
-67
-67
-73
-73
-74
-63
-73
-70
-68
-69
-64
-63
-72
-72
-76
-68
-66
-62
-65
-64
-65
-67
-70
-67
-67
-66
-66
-70
-63
-64
-59
-62
-69
-72
-66
-68
-66
-59
-60
-60
-60
-62
-70
-70
-67
-65
-60
-62
-60
-64
-61
-59
-62
-66
-62
-59
-58
-56
-57
-53
-52
-54
-60
-58
-52
-54
-55
-54
-51
-48
-54
-53
-56
-58
-61
-61
-62
-63
-65
-61
-68
-72
-70
-73
-68
-71
-73
-67
-68
-67
-68
-70
-70
-75
-71
-69
-71
-69
-68
-67
-69
-71
-72
-75
-70
-75
-70
-67
-56
-46
-43
-38
-22
-5
20
43
61
77
78
79
72
32
9
-21
-58
-107
-114
-116
-104
-94
-87
-86
-91
-87
-81
-75
-77
-75
-70
-66
-66
-68
-72
-74
-72
-68
-68
-67
-69
-62
-67
-64
-70
-70
-68
-64
-60
-63
-65
-60
-65
-69
-67
-68
-66
-63
-64
-59
-60
-59
-60
-60
-64
-61
-62
-61
-60
-57
-53
-56
-56
-60
-62
-55
-52
-54
-51
-49
-45
-47
-53
-55
-56
-53
-51
-48
-46
-40
-42
-39
-41
-43
-44
-40
-40
-35
-33
-31
-25
-27
-28
-29
-25
-23
-24
-23
-24
-22
-16
-22
-20
-24
-27
-19
-20
-18
-21
-27
-25
-28
-33
-33
-38
-36
-33
-36
-37
-36
-38
-40
-43
-50
-52
-46
-49
-51
-52
-50
-48
-47
-54
-59
-58
-63
-62
-58
-62
-57
-57
-58
-57
-59
-61
-57
-59
-61
-63
-64
-59
-58
-64
-63
-62
-60
-60
-64
-62
-64
-58
-59
-62
-63
-63
-61
-65
-63
-64
-63
-58
-57
-61
-62
-67
-62
-62
-62
-62
-58
-55
-56
-59
-65
-68
-63
-61
-56
-58
-60
-55
-57
-60
-61
-60
-56
-60
-59
-54
-54
-53
-55
-61
-63
-56
-54
-54
-52
-53
-58
-58
-51
-55
-57
-55
-55
-54
-50
-51
-49
-51
-51
-52
-52
-53
-51
-53
-53
-52
-49
-49
-52
-53
-53
-47
-47
-45
-45
-43
-43
-41
-41
-45
-47
-45
-45
-43
-37
-39
-42
-42
-46
-50
-51
-52
-56
-55
-53
-54
-53
-56
-56
-57
-61
-54
-53
-62
-57
-55
-55
-57
-60
-57
-63
-62
-62
-59
-58
-56
-51
-56
-60
-62
-63
-62
-56
-50
-39
-34
-25
-19
-5
13
33
59
75
86
89
86
61
30
2
-33
-79
-98
-104
-103
-99
-89
-82
-75
-73
-73
-71
-65
-64
-60
-56
-59
-56
-61
-62
-61
-63
-56
-58
-60
-62
-55
-52
-53
-61
-60
-58
-55
-57
-51
-55
-54
-53
-51
-55
-59
-54
-50
-50
-55
-49
-51
-52
-54
-53
-54
-53
-53
-52
-47
-46
-46
-42
-46
-49
-51
-52
-46
-46
-43
-40
-38
-38
-40
-43
-47
-39
-37
-38
-32
-33
-27
-29
-35
-33
-32
-23
-24
-26
-26
-25
-16
-17
-17
-20
-18
-15
-16
-12
-16
-15
-12
-8
-11
-15
-19
-16
-19
-21
-18
-19
-19
-18
-23
-30
-31
-29
-32
-34
-31
-35
-34
-37
-39
-43
-47
-46
-46
-47
-43
-46
-46
-46
-43
-48
-49
-48
-52
-63
-50
-53
-56
-68
-77
-74
-59
-39
-25
-43
-56
-45
-36
-20
-25
-40
-82
-109
-112
-53
-51
-57
-53
-47
-60
-48
-44
-50
-47
-55
-88
-102
-75
-36
-14
-12
-22
-5
26
62
99
106
141
191
252
320
365
384
433
506
554
630
691
720
757
808
880
921
977
1027
1072
1124
1174
1212
1254
1294
1337
1372
1399
1464
1505
1556
1578
1605
1651
1688
1715
1735
1756
1784
1815
1844
1850
1866
1880
1902
1904
1911
1935
1954
1950
1956
1961
1967
1970
1979
1991
2001
2008
2008
2012
2037
2038
2043
2052
2062
2060
2073
2069
2077
2081
2085
2094
2098
2083
2090
2089
2093
2106
2112
2107
2118
2100
2106
2109
2094
2097
2085
2090
2090
2094
2114
2120
2115
2114
2123
2115
2110
2110
2113
2113
2096
2101
2112
2116
2115
2122
2127
2123
2116
2113
2104
2098
2102
2102
2098
2113
2111
2099
2090
2108
2088
2075
2087
2091
2117
2109
2086
2079
2077
2085
2086
2078
2096
2083
2083
2076
2057
2065
2062
2078
2072
2073
2067
2077
2088
2084
2089
2091
2101
2115
2114
2129
2150
2153
2170
2177
2154
2119
2088
2064
2032
2012
1993
1991
2004
2023
2015
2005
2010
2021
2032
2020
2009
1984
1989
2003
2010
2023
2033
2025
2011
1995
1992
1984
1979
1988
1987
1997
1997
2002
1993
1992
1983
1993
1985
1980
1985
1980
1983
1980
1987
1979
1972
1946
1947
1957
1952
1968
1969
1971
1960
1957
1961
1949
1949
1948
1957
1954
1975
1959
1945
1953
1936
1929
1938
1930
1940
1938
1933
1937
1922
1929
1931
1935
1948
1918
1915
1933
1925
1924
1915
1909
1919
1928
1918
1924
1908
1906
1898
1903
1904
1909
1930
1918
1910
1913
1904
1894
1901
1910
1906
1907
1892
1902
1900
1899
1890
1880
1879
1867
1883
1883
1868
1863
1859
1845
1831
1839
1849
1848
1838
1829
1840
1833
1837
1831
1823
1813
1818
1809
1802
1796
1803
1809
1818
1803
1791
1784
1783
1772
1783
1788
1788
1785
1784
1779
1778
1778
1780
1776
1774
1768
1765
1767
1767
1766
1770
1764
1766
1763
1758
1754
1753
1754
1752
1734
1735
1739
1749
1739
1727
1737
1734
1735
1731
1715
1728
1728
1734
1739
1729
1728
1723
1719
1712
1715
1699
1701
1703
1709
1717
1723
1696
1693
1696
1708
1709
1701
1698
1703
1702
1692
1676
1676
1684
1684
1688
1685
1671
1664
1661
1666
1658
1675
1672
1677
1681
1670
1663
1661
1658
1654
1656
1650
1645
1635
1644
1658
1649
1646
1638
1633
1626
1638
1626
1634
1632
1624
1631
1624
1623
1614
1622
1613
1613
1601
1600
1607
1602
1591
1598
1578
1579
1591
1600
1594
1589
1585
1586
1577
1575
1581
1567
1561
1578
1574
1575
1566
1564
1566
1559
1547
1541
1547
1544
1555
1557
1559
1553
1531
1533
1528
1517
1526
1532
1521
1514
1518
1518
1515
1531
1557
1532
1536
1534
1505
1510
1517
1521
1507
1495
1485
1485
1497
1502
1493
1505
1505
1498
1486
1496
1495
1491
1490
1489
1482
1477
1484
1468
1456
1451
1452
1472
1469
1451
1449
1438
1454
1462
1456
1442
1423
1425
1435
1449
1443
1439
1443
1431
1420
1425
1441
1422
1413
1419
1427
1418
1424
1407
1387
1418
1424
1432
1441
1451
1462
1470
1502
1507
1498
1492
1477
1460
1453
1420
1406
1368
1354
1348
1337
1339
1352
1349
1341
1339
1348
1366
1375
1342
1331
1338
1353
1357
1343
1335
1332
1354
1358
1362
1344
1324
1319
1339
1330
1315
1317
1323
1318
1323
1320
1323
1314
1316
1315
1309
1313
1310
1307
1304
1297
1293
1300
1308
1309
1299
1307
1292
1299
1291
1262
1274
1288
1292
1288
1292
1280
1292
1305
1290
1281
1270
1273
1272
1274
1276
1293
1285
1289
1276
1270
1263
1261
1268
1270
1265
1268
1273
1267
1265
1263
1264
1258
1267
1268
1252
1253
1260
1276
1263
1267
1263
1255
1257
1257
1259
1270
1267
1244
1241
1250
1246
1251
1238
1226
1224
1231
1224
1210
1212
1214
1211
1207
1203
1209
1198
1206
1201
1200
1196
1199
1179
1167
1175
1187
1195
1189
1181
1176
1179
1164
1172
1165
1154
1155
1161
1157
1155
1149
1141
1147
1141
1136
1143
1127
1134
1139
1141
1145
1146
1122
1122
1136
1134
1131
1120
1125
1123
1123
1113
1117
1109
1117
1130
1124
1121
1111
1119
1118
1124
1136
1131
1122
1130
1111
1104
1098
1085
1101
1098
1105
1108
1095
1098
1094
1087
1086
1093
1096
1087
1081
1073
1077
1076
1078
1072
1066
1080
1076
1086
1091
1073
1077
1066
1055
1058
1069
1073
1055
1051
1039
1045
1045
1057
1054
1044
1050
1046
1039
1043
1028
1027
1037
1040
1039
1040
1032
1026
1034
1020
1020
1016
1008
1027
1014
998
999
994
992
987
984
988
991
992
990
985
986
988
978
982
980
981
976
967
969
975
982
974
971
961
959
963
954
956
956
951
952
953
944
944
934
935
931
929
929
929
930
927
917
911
903
896
897
888
878
868
862
849
830
813
792
787
776
762
755
740
727
712
696
682
665
655
647
639
624
614
604
592
577
564
552
542
532
519
504
491
476
449
431
415
403
393
377
360
355
353
351
343
325
306
289
270
256
249
242
242
236
224
215
204
199
191
183
175
169
162
160
156
153
157
156
161
165
174
195
216
240
248
249
243
236
206
172
149
103
50
21
14
9
5
4
20
23
26
22
22
25
20
21
16
12
14
13
13
9
6
8
-1
-3
-1
-5
-10
-11
-14
-21
-10
-19
-25
-34
-36
-33
-41
-37
-41
-31
-31
-36
-41
-47
-53
-47
-55
-55
-57
-61
-51
-59
-68
-72
-69
-58
-66
-73
-76
-78
-71
-72
-75
-78
-81
-81
-84
-92
-88
-85
-78
-92
-89
-92
-96
-92
-91
-97
-94
-85
-87
-89
-98
-97
-98
-93
-91
-98
-97
-94
-93
-99
-105
-99
-104
-104
-100
-100
-101
-103
-97
-107
-116
-116
-113
-115
-127
-125
-127
-134
-124
-128
-130
-149
-149
-144
-146
-148
-150
-153
-150
-155
-162
-167
-167
-168
-173
-169
-165
-169
-167
-172
-174
-176
-176
-172
-175
-176
-181
-180
-170
-163
-166
-176
-176
-191
-188
-182
-190
-191
-184
-187
-183
-188
-187
-193
-191
-195
-198
-187
-190
-186
-189
-193
-197
-191
-194
-190
-192
-197
-195
-198
-200
-208
-197
-197
-201
-195
-195
-200
-193
-193
-202
-201
-188
-183
-195
-203
-197
-200
-203
-203
-206
-210
-205
-203
-208
-203
-202
-196
-203
-205
-206
-206
-207
-206
-209
-211
-206
-204
-208
-209
-219
-221
-220
-215
-213
-212
-209
-209
-213
-222
-215
-221
-222
-222
-223
-222
-220
-214
-220
-218
-222
-223
-224
-222
-232
-226
-225
-225
-227
-224
-231
-227
-230
-227
-224
-224
-223
-224
-229
-237
-240
-241
-244
-239
-225
-230
-232
-231
-235
-240
-243
-241
-238
-242
-241
-241
-239
-236
-241
-242
-251
-247
-244
-245
-246
-245
-245
-242
-248
-255
-255
-249
-249
-245
-244
-244
-251
-245
-244
-242
-249
-250
-245
-243
-244
-244
-243
-247
-249
-251
-253
-250
-249
-259
-263
-263
-264
-262
-267
-270
-274
-270
-269
-269
-271
-275
-269
-272
-280
-276
-278
-278
-278
-274
-282
-278
-278
-280
-283
-284
-286
-292
-279
-273
-265
-255
-250
-256
-254
-246
-234
-208
-185
-164
-155
-153
-158
-185
-226
-256
-292
-329
-358
-363
-360
-353
-344
-339
-340
-335
-337
-323
-313
-311
-310
-311
-305
-307
-305
-308
-311
-308
-311
-310
-307
-299
-292
-297
-302
-301
-310
-311
-308
-308
-304
-306
-301
-304
-302
-303
-310
-303
-302
-299
-302
-305
-298
-302
-305
-303
-309
-310
-309
-308
-303
-305
-298
-303
-301
-308
-306
-299
-304
-300
-304
-306
-300
-300
-299
-303
-297
-295
-297
-294
-292
-294
-288
-288
-289
-283
-286
-289
-289
-282
-279
-275
-272
-273
-277
-279
-276
-270
-270
-268
-270
-267
-263
-264
-274
-272
-273
-277
-278
-276
-272
-274
-277
-283
-284
-287
-287
-286
-290
-296
-295
-294
-293
-302
-304
-308
-306
-309
-312
-311
-312
-311
-315
-313
-322
-323
-318
-319
-318
-324
-321
-322
-320
-323
-325
-331
-324
-327
-325
-329
-333
-325
-328
-334
-332
-333
-326
-325
-330
-326
-334
-332
-337
-337
-334
-339
-337
-328
-332
-332
-339
-332
-337
-341
-341
-342
-341
-345
-338
-342
-342
-339
-345
-347
-350
-350
-347
-352
-355
-354
-352
-349
-349
-357
-365
-371
-366
-367
-356
-362
-365
-365
-372
-382
-381
-371
-363
-356
-359
-357
-356
-349
-353
-349
-354
-353
-350
-346
-343
-340
-346
-343
-348
-354
-355
-349
-344
-345
-344
-348
-344
-340
-340
-343
-351
-341
-341
-344
-344
-347
-341
-342
-344
-345
-340
-346
-343
-343
-338
-336
-337
-339
-341
-345
-346
-337
-336
-336
-338
-338
-336
-336
-332
-338
-340
-334
-337
-335
-328
-329
-333
-333
-329
-333
-330
-326
-327
-329
-330
-327
-322
-321
-318
-320
-323
-327
-317
-323
-326
-318
-319
-322
-326
-331
-333
-339
-334
-335
-334
-330
-335
-337
-337
-341
-344
-337
-333
-330
-333
-330
-331
-333
-335
-336
-337
-334
-331
-333
-336
-331
-332
-336
-338
-334
-326
-316
-311
-310
-299
-276
-262
-245
-222
-210
-193
-182
-180
-192
-225
-244
-267
-304
-355
-377
-379
-371
-358
-349
-352
-340
-335
-338
-334
-331
-329
-325
-329
-326
-327
-325
-319
-318
-321
-323
-322
-318
-325
-321
-323
-321
-314
-319
-317
-319
-319
-315
-318
-318
-317
-315
-310
-315
-317
-318
-312
-314
-310
-310
-302
-303
-310
-314
-315
-316
-313
-314
-311
-302
-304
-303
-302
-303
-308
-313
-304
-304
-302
-296
-301
-300
-297
-300
-299
-300
-295
-298
-293
-292
-287
-289
-284
-284
-287
-284
-279
-276
-272
-278
-276
-269
-270
-274
-274
-272
-266
-268
-264
-259
-257
-256
-260
-263
-265
-273
-273
-267
-271
-277
-271
-270
-275
-279
-286
-290
-280
-285
-290
-287
-290
-286
-291
-294
-302
-304
-300
-300
-302
-302
-304
-302
-302
-304
-307
-310
-307
-307
-307
-306
-301
-303
-303
-307
-313
-313
-309
-306
-308
-309
-308
-306
-306
-311
-310
-308
-308
-307
-310
-306
-308
-306
-305
-310
-313
-313
-310
-311
-308
-308
-306
-304
-303
-305
-308
-306
-301
-305
-302
-304
-302
-298
-300
-303
-305
-305
-300
-300
-301
-300
-299
-295
-297
-299
-305
-299
-298
-300
-296
-297
-293
-291
-297
-299
-299
-295
-293
-295
-290
-291
-295
-293
-296
-304
-311
-305
-297
-296
-297
-293
-293
-292
-294
-297
-299
-296
-297
-297
-297
-292
-291
-297
-295
-298
-304
-303
-307
-306
-305
-297
-297
-296
-298
-304
-309
-310
-301
-300
-303
-299
-295
-301
-302
-302
-303
-299
-301
-302
-302
-300
-296
-299
-302
-300
-302
-298
-292
-293
-293
-292
-285
-291
-294
-294
-296
-292
-287
-284
-283
-284
-282
-287
-292
-294
-299
-299
-302
-303
-303
-304
-303
-304
-305
-307
-311
-310
-304
-300
-301
-302
-301
-304
-305
-306
-308
-303
-303
-304
-303
-302
-301
-302
-306
-311
-311
-302
-296
-278
-278
-276
-266
-248
-236
-220
-198
-178
-161
-155
-159
-170
-201
-228
-256
-298
-337
-349
-352
-350
-341
-334
-324
-322
-322
-322
-314
-310
-310
-306
-302
-303
-297
-301
-303
-306
-306
-301
-301
-300
-300
-292
-295
-299
-302
-300
-292
-292
-297
-303
-299
-293
-294
-298
-300
-296
-293
-294
-297
-297
-297
-293
-292
-297
-294
-294
-293
-291
-290
-292
-287
-281
-282
-287
-290
-289
-288
-286
-284
-279
-284
-280
-280
-282
-285
-282
-281
-278
-275
-272
-268
-268
-266
-266
-268
-271
-266
-255
-257
-257
-256
-248
-249
-250
-252
-255
-251
-249
-246
-241
-240
-241
-240
-247
-250
-251
-249
-249
-252
-249
-249
-246
-250
-256
-261
-260
-261
-261
-261
-261
-264
-265
-269
-272
-276
-278
-275
-276
-276
-278
-275
-274
-278
-283
-287
-287
-282
-283
-284
-284
-282
-281
-283
-282
-290
-289
-284
-286
-284
-282
-278
-281
-286
-287
-289
-288
-290
-288
-288
-286
-286
-284
-286
-288
-290
-285
-286
-286
-285
-283
-283
-280
-283
-285
-285
-284
-281
-280
-275
-277
-280
-279
-281
-280
-277
-276
-281
-280
-274
-277
-268
-269
-271
-277
-281
-276
-276
-273
-273
-273
-270
-272
-270
-274
-275
-271
-273
-269
-270
-267
-268
-268
-268
-270
-271
-269
-269
-270
-271
-268
-264
-265
-272
-269
-272
-269
-270
-269
-265
-266
-264
-266
-266
-264
-268
-269
-269
-271
-266
-267
-265
-267
-271
-274
-272
-268
-266
-270
-268
-268
-263
-263
-269
-271
-272
-268
-268
-265
-262
-266
-261
-264
-268
-268
-268
-265
-264
-264
-259
-263
-261
-263
-262
-264
-263
-258
-257
-256
-254
-254
-248
-254
-258
-257
-257
-255
-253
-251
-248
-248
-247
-251
-252
-256
-252
-254
-259
-258
-262
-264
-261
-262
-267
-273
-268
-263
-264
-266
-264
-262
-261
-263
-265
-269
-266
-267
-267
-266
-266
-264
-260
-264
-271
-273
-271
-272
-267
-254
-244
-237
-231
-228
-216
-197
-182
-156
-134
-117
-110
-106
-116
-154
-179
-211
-240
-287
-305
-313
-309
-296
-293
-289
-283
-284
-282
-277
-271
-273
-270
-266
-263
-262
-266
-268
-269
-266
-259
-262
-262
-260
-260
-259
-262
-263
-263
-262
-262
-258
-256
-256
-259
-261
-261
-265
-260
-262
-257
-253
-254
-254
-251
-253
-257
-259
-256
-255
-250
-248
-245
-249
-247
-250
-253
-251
-250
-245
-246
-244
-244
-240
-242
-243
-250
-247
-243
-237
-238
-237
-236
-231
-230
-229
-232
-229
-227
-229
-224
-220
-219
-216
-214
-216
-218
-215
-212
-212
-205
-206
-207
-203
-203
-207
-209
-210
-207
-207
-205
-204
-209
-203
-205
-215
-219
-222
-220
-220
-218
-222
-221
-219
-224
-233
-235
-237
-237
-235
-237
-238
-233
-237
-241
-243
-247
-244
-239
-243
-244
-247
-246
-245
-249
-253
-254
-251
-246
-251
-252
-248
-250
-247
-251
-254
-259
-250
-249
-251
-254
-251
-245
-248
-250
-254
-253
-252
-252
-252
-249
-250
-248
-250
-255
-252
-252
-251
-250
-251
-248
-246
-244
-249
-249
-251
-252
-251
-249
-249
-247
-248
-246
-245
-247
-251
-250
-247
-249
-245
-245
-245
-244
-246
-248
-249
-247
-246
-247
-241
-242
-244
-241
-243
-246
-249
-250
-248
-244
-244
-242
-244
-243
-241
-244
-248
-249
-244
-245
-245
-246
-242
-242
-239
-246
-247
-246
-242
-242
-243
-244
-243
-241
-243
-245
-250
-247
-241
-242
-245
-244
-246
-244
-247
-250
-251
-251
-249
-249
-247
-249
-246
-247
-251
-255
-256
-254
-248
-246
-248
-246
-247
-244
-248
-252
-254
-253
-249
-249
-248
-249
-248
-244
-247
-249
-254
-250
-247
-248
-247
-247
-245
-245
-245
-245
-242
-237
-242
-243
-239
-242
-239
-237
-239
-240
-242
-238
-240
-240
-239
-238
-235
-240
-245
-252
-256
-252
-251
-250
-250
-250
-250
-252
-257
-255
-259
-254
-253
-252
-252
-253
-252
-255
-256
-259
-260
-256
-255
-257
-258
-259
-253
-252
-254
-247
-242
-232
-226
-213
-196
-180
-159
-140
-123
-111
-108
-104
-119
-153
-175
-205
-237
-283
-302
-310
-304
-291
-282
-280
-276
-273
-269
-266
-264
-264
-260
-254
-256
-259
-260
-258
-253
-256
-258
-260
-257
-251
-244
-251
-258
-256
-254
-254
-253
-252
-250
-247
-249
-252
-253
-245
-248
-250
-254
-257
-255
-256
-257
-249
-247
-246
-244
-247
-245
-254
-252
-249
-245
-246
-246
-244
-244
-241
-246
-247
-244
-244
-240
-239
-241
-236
-235
-237
-238
-238
-236
-232
-233
-229
-225
-222
-219
-223
-222
-223
-216
-214
-214
-213
-210
-208
-209
-210
-209
-213
-208
-208
-204
-204
-206
-201
-204
-209
-209
-211
-208
-212
-211
-212
-210
-211
-214
-220
-223
-224
-221
-224
-229
-231
-231
-228
-232
-235
-238
-241
-236
-242
-244
-243
-243
-243
-242
-247
-254
-258
-243
-243
-245
-246
-244
-243
-245
-249
-251
-252
-249
-247
-249
-253
-253
-248
-251
-255
-259
-258
-255
-256
-257
-256
-255
-253
-254
-260
-260
-260
-257
-256
-255
-258
-260
-254
-256
-261
-266
-260
-252
-257
-257
-254
-252
-252
-252
-255
-256
-260
-256
-257
-252
-252
-252
-251
-254
-254
-256
-254
-251
-253
-250
-253
-255
-251
-254
-254
-251
-249
-257
-258
-263
-265
-264
-253
-249
-256
-264
-262
-256
-251
-253
-258
-258
-254
-260
-264
-263
-262
-258
-261
-263
-260
-258
-258
-262
-264
-266
-263
-263
-262
-261
-262
-260
-261
-263
-265
-269
-266
-263
-264
-263
-260
-260
-261
-264
-264
-267
-265
-265
-265
-261
-262
-260
-261
-263
-264
-265
-262
-262
-262
-257
-257
-259
-257
-260
-263
-266
-263
-258
-258
-256
-255
-256
-258
-255
-256
-256
-252
-250
-248
-250
-249
-247
-245
-249
-251
-251
-245
-245
-243
-239
-241
-240
-243
-245
-247
-251
-249
-251
-247
-242
-251
-251
-255
-258
-259
-261
-259
-257
-257
-258
-256
-253
-252
-252
-258
-264
-263
-265
-258
-253
-252
-247
-250
-253
-257
-258
-255
-252
-241
-232
-223
-211
-201
-191
-175
-157
-133
-114
-95
-89
-90
-109
-146
-169
-205
-239
-283
-295
-299
-291
-282
-278
-275
-274
-271
-265
-256
-251
-250
-247
-246
-248
-249
-248
-252
-252
-245
-243
-239
-244
-244
-246
-245
-251
-246
-243
-242
-251
-245
-241
-240
-239
-241
-242
-246
-244
-243
-238
-236
-231
-234
-237
-232
-237
-241
-233
-229
-228
-234
-232
-225
-224
-232
-234
-231
-231
-225
-225
-225
-223
-221
-221
-227
-227
-228
-220
-222
-217
-215
-215
-211
-212
-211
-209
-212
-206
-206
-202
-199
-200
-192
-190
-189
-189
-191
-184
-184
-185
-186
-186
-185
-188
-190
-189
-186
-183
-187
-194
-191
-193
-189
-192
-196
-200
-201
-198
-204
-203
-205
-203
-205
-214
-220
-227
-220
-209
-213
-215
-211
-215
-213
-223
-227
-230
-227
-225
-230
-226
-229
-226
-226
-230
-230
-234
-232
-232
-231
-229
-230
-230
-229
-227
-236
-237
-238
-236
-236
-235
-233
-234
-235
-235
-227
-235
-238
-233
-226
-229
-229
-225
-225
-230
-230
-227
-227
-237
-233
-230
-229
-227
-223
-228
-231
-230
-230
-230
-231
-227
-224
-228
-226
-228
-230
-231
-229
-226
-224
-224
-223
-220
-222
-228
-229
-229
-225
-223
-223
-224
-223
-221
-221
-224
-221
-224
-221
-228
-229
-223
-222
-223
-221
-228
-229
-230
-225
-222
-219
-220
-227
-222
-225
-227
-227
-229
-227
-224
-224
-223
-227
-223
-224
-226
-228
-229
-226
-225
-222
-225
-224
-222
-224
-222
-223
-227
-229
-229
-228
-224
-221
-222
-227
-225
-224
-222
-221
-221
-224
-220
-225
-221
-219
-222
-225
-223
-220
-220
-218
-214
-212
-211
-212
-213
-213
-213
-212
-218
-212
-213
-211
-210
-211
-213
-214
-219
-221
-217
-215
-215
-220
-220
-223
-225
-231
-228
-226
-225
-225
-226
-227
-225
-224
-230
-232
-228
-225
-221
-226
-228
-226
-225
-224
-228
-229
-230
-226
-220
-211
-199
-190
-192
-182
-168
-150
-126
-102
-85
-71
-62
-60
-92
-128
-151
-185
-225
-263
-269
-272
-266
-254
-247
-241
-239
-241
-237
-238
-229
-225
-223
-221
-221
-224
-225
-228
-223
-222
-219
-216
-216
-211
-214
-219
-227
-220
-214
-213
-214
-213
-210
-209
-212
-216
-223
-219
-217
-212
-210
-210
-209
-207
-207
-209
-211
-211
-209
-210
-207
-206
-207
-206
-205
-209
-208
-205
-202
-200
-194
-200
-203
-200
-199
-197
-199
-200
-196
-192
-190
-190
-189
-181
-186
-190
-190
-187
-181
-178
-176
-172
-170
-167
-168
-172
-173
-169
-166
-165
-161
-159
-159
-158
-159
-162
-164
-163
-162
-162
-159
-159
-159
-159
-175
-180
-181
-176
-171
-176
-177
-179
-179
-180
-185
-191
-192
-191
-192
-191
-193
-193
-192
-192
-196
-201
-202
-200
-200
-202
-202
-202
-203
-201
-204
-209
-210
-204
-203
-201
-199
-200
-203
-202
-207
-214
-216
-212
-209
-206
-201
-200
-200
-200
-206
-207
-210
-206
-207
