81
83
78
77
77
81
95
98
97
96
101
99
93
92
87
82
85
80
78
89
88
91
92
93
87
84
88
93
87
88
84
85
84
79
74
71
71
70
81
74
74
66
67
63
71
67
69
78
73
75
79
71
63
69
67
72
79
78
72
77
80
80
82
85
93
104
119
133
136
138
156
172
183
185
177
158
153
137
120
98
77
55
32
18
-9
-3
17
33
38
49
57
56
60
70
73
75
77
83
84
81
84
83
81
85
82
83
90
96
91
86
82
80
89
94
92
95
95
96
94
98
93
88
91
97
100
98
107
104
103
103
107
104
104
100
109
108
111
118
115
118
118
124
120
120
122
127
131
125
129
139
135
138
144
149
147
149
151
152
151
154
154
154
158
158
158
161
157
146
155
158
153
150
150
145
145
148
146
141
134
132
134
129
121
118
119
116
108
105
101
101
95
97
105
96
91
91
92
85
88
91
86
88
90
86
83
78
77
77
80
85
78
76
77
77
81
78
79
78
75
77
75
75
71
75
75
74
73
75
76
68
65
69
69
74
67
73
73
75
81
79
81
74
72
73
79
84
78
80
83
78
80
83
84
88
90
83
86
87
82
84
85
86
85
87
96
94
95
93
94
92
94
83
90
84
82
86
84
85
87
89
85
90
89
88
84
87
85
79
81
73
76
72
75
68
71
69
73
72
64
67
64
63
68
69
72
70
64
71
67
67
68
68
63
68
64
63
67
68
75
78
81
88
94
105
119
131
143
151
162
167
168
161
149
133
117
89
69
60
32
14
-13
-23
-11
-4
10
17
27
33
40
50
51
51
53
53
56
59
55
53
56
63
65
60
54
59
67
63
62
60
64
56
56
63
64
63
66
68
70
70
67
65
65
70
71
68
70
74
73
77
73
76
85
83
76
82
86
83
87
85
90
84
86
91
99
101
103
106
106
110
111
118
115
121
117
123
125
123
124
127
128
127
129
127
123
127
128
127
129
131
125
123
117
113
110
107
109
113
110
108
98
91
85
80
88
87
85
68
74
78
70
59
69
68
60
61
63
59
57
52
58
58
58
56
55
55
59
55
58
57
52
45
52
53
53
59
54
51
44
49
57
47
48
50
50
49
48
49
48
47
50
52
47
44
42
48
51
52
50
50
46
40
51
47
43
49
49
46
44
44
50
55
53
54
55
55
55
56
51
53
54
58
63
63
60
63
67
62
60
61
55
59
56
59
57
64
63
53
59
67
66
71
68
60
61
57
54
48
43
44
44
47
49
44
41
45
45
40
43
44
42
41
39
39
44
42
46
46
45
49
47
41
41
45
44
47
55
54
51
52
71
87
101
107
129
149
161
175
166
165
154
149
134
100
70
56
21
-1
-17
-38
-38
-30
-18
-5
8
15
20
29
34
36
37
43
36
36
39
43
44
45
42
42
44
51
45
45
44
45
48
44
50
53
45
53
49
51
57
59
54
55
55
55
54
54
56
60
64
65
65
68
69
65
65
71
77
76
78
81
86
86
81
90
85
90
93
98
96
99
101
109
113
117
111
118
113
114
122
129
122
123
126
126
122
126
128
126
127
123
125
125
123
115
114
113
105
106
106
102
101
98
97
90
88
89
79
80
77
73
68
65
65
57
56
52
55
60
55
51
52
60
54
51
51
53
35
43
55
50
50
50
51
48
51
48
54
53
51
54
48
46
48
47
50
48
51
48
44
45
48
52
51
47
51
49
48
49
41
41
47
43
38
43
41
37
40
47
50
49
46
46
44
49
51
47
48
45
50
52
49
55
58
55
58
59
58
60
60
56
57
66
58
57
61
61
60
62
67
62
62
61
54
56
51
49
55
56
52
49
46
47
42
38
38
31
36
42
37
34
38
37
37
36
41
37
35
39
35
35
40
34
38
37
32
29
31
33
26
26
34
35
42
58
73
86
101
118
144
157
152
153
135
123
110
73
39
23
-9
-33
-54
-77
-66
-63
-48
-32
-24
-15
-3
6
8
3
9
11
11
18
20
22
13
14
16
14
15
17
24
27
22
27
25
28
29
26
29
32
35
32
32
35
35
34
35
34
37
42
39
38
39
52
55
46
46
53
53
56
63
65
64
67
62
65
70
73
78
81
81
81
84
90
93
94
103
104
101
105
103
108
113
116
114
118
118
117
116
116
112
110
113
122
111
115
109
104
100
98
100
94
94
93
93
90
80
76
67
72
66
60
60
57
48
51
46
49
50
43
38
36
38
39
38
39
33
37
38
31
27
27
32
38
29
31
29
32
38
32
32
33
30
29
34
35
29
30
36
30
28
25
29
30
28
31
32
31
29
27
33
36
30
31
33
31
30
24
25
28
27
27
31
35
32
32
28
22
27
37
47
42
44
43
44
40
39
36
37
37
48
44
43
44
50
56
58
54
51
49
53
46
48
49
52
51
51
48
53
58
60
54
46
41
41
37
38
38
38
39
30
33
33
36
36
37
37
33
34
29
27
35
39
38
44
36
30
43
38
36
34
42
42
40
51
51
53
62
70
81
95
109
127
144
158
171
174
165
153
145
124
107
77
55
31
1
-25
-49
-42
-35
-25
-16
15
15
24
36
36
33
37
36
35
39
39
43
40
35
42
47
42
47
56
49
51
52
46
44
49
53
54
50
45
53
49
56
53
50
51
59
58
56
60
72
70
66
74
65
69
67
70
74
79
73
79
86
86
87
86
88
87
90
98
105
98
104
110
103
107
116
120
114
119
122
125
122
120
127
121
123
117
123
129
132
122
122
118
122
120
114
107
109
109
110
112
109
108
99
91
86
82
81
81
84
80
79
80
72
66
63
66
62
63
63
60
63
56
58
56
63
56
56
56
62
59
62
62
57
57
54
48
59
63
60
55
54
53
50
50
66
64
56
54
61
60
60
51
56
53
56
56
50
50
50
58
55
54
53
57
51
47
50
52
52
50
54
54
54
55
52
50
49
52
57
50
57
63
71
71
64
61
63
66
69
75
74
67
63
67
71
67
65
67
63
54
63
65
57
61
62
73
72
66
66
66
67
60
55
60
51
48
54
58
47
47
55
55
48
50
46
45
50
44
51
51
55
50
47
42
49
61
52
47
51
56
61
53
59
61
63
59
71
87
103
107
124
128
141
152
158
157
143
134
119
101
80
54
39
14
-4
-34
-30
-16
-1
7
12
31
36
41
43
48
52
52
53
55
52
50
53
54
50
52
56
59
59
65
59
56
58
59
58
55
54
59
65
69
73
68
72
70
75
67
66
69
73
75
75
69
76
76
69
69
80
81
87
81
83
84
89
96
94
99
96
103
101
101
108
110
115
120
120
125
123
117
116
124
122
121
127
128
134
131
134
126
130
128
133
131
121
122
119
120
126
122
116
119
110
100
103
107
104
97
92
82
86
84
82
77
74
74
78
73
67
69
61
64
59
59
61
58
64
65
60
61
70
69
61
55
58
59
58
65
70
65
61
52
54
58
60
61
64
58
63
63
63
55
53
57
55
58
58
65
60
55
60
59
52
55
54
52
55
55
52
54
56
56
58
57
55
59
60
57
65
60
57
60
60
63
60
59
67
65
64
63
66
68
68
65
67
71
73
65
62
60
61
62
59
66
65
66
62
63
63
60
65
59
54
47
49
49
56
55
48
53
51
46
44
47
46
46
48
47
54
50
38
37
41
44
44
46
47
43
50
56
53
53
60
57
59
61
69
74
77
88
97
110
120
132
144
142
138
130
117
105
79
52
39
26
3
-16
-34
-29
-19
-8
5
11
20
21
25
34
41
41
40
43
44
44
48
46
43
45
44
45
45
45
45
50
51
48
47
48
51
57
59
57
60
55
56
58
60
62
61
62
65
70
72
74
70
70
66
73
74
71
77
75
73
71
78
84
88
88
94
96
97
99
98
96
102
107
111
107
113
117
119
120
115
119
122
116
117
125
126
123
122
123
131
129
124
122
118
120
119
106
102
101
104
104
104
94
87
88
83
80
79
77
70
73
79
66
61
58
52
52
52
54
52
54
54
53
47
50
52
45
48
48
48
48
50
46
45
45
44
49
48
43
44
45
46
43
37
39
41
46
44
48
50
46
42
34
38
37
41
52
44
40
38
35
37
42
46
44
44
42
35
36
37
38
39
37
38
37
44
45
42
44
39
43
43
44
46
48
48
51
53
51
54
53
53
50
46
43
50
48
41
43
45
45
43
41
38
43
50
51
55
51
46
47
48
33
34
37
37
34
30
29
29
30
27
27
24
26
24
29
27
27
25
28
25
28
35
32
34
31
35
32
24
27
32
34
35
37
43
61
73
84
91
107
119
135
147
150
137
125
112
95
66
38
23
0
-17
-40
-56
-50
-38
-26
-20
-14
-5
12
13
16
22
23
25
27
26
22
25
28
28
22
23
27
26
26
29
30
33
27
25
29
32
33
38
38
32
32
33
31
41
50
48
42
47
48
43
44
47
41
49
57
53
58
57
57
52
58
58
64
73
69
69
70
75
81
80
83
86
85
83
94
91
97
100
96
97
100
110
113
108
103
102
107
109
106
105
104
102
100
101
98
97
96
90
87
87
81
78
74
76
77
67
71
63
59
57
50
46
45
43
40
41
44
43
34
35
31
41
41
38
30
29
35
30
25
30
29
27
31
34
27
27
35
29
34
34
36
33
32
29
31
35
34
32
31
34
30
26
27
31
33
30
23
25
26
29
35
32
30
28
24
27
26
24
23
18
23
29
25
26
29
29
24
21
25
28
28
25
34
32
31
27
31
36
30
26
29
34
38
37
43
41
42
40
42
36
33
33
32
40
33
37
35
32
36
45
42
41
43
34
33
31
29
30
23
29
20
15
17
23
19
14
9
13
20
15
13
13
19
16
17
17
15
15
18
16
16
12
18
20
20
21
23
25
22
27
34
46
57
72
89
107
126
141
157
155
158
137
131
112
82
51
37
4
-22
-43
-66
-66
-54
-47
-39
-23
-19
-12
-6
-1
7
8
10
11
12
12
14
9
9
9
7
13
13
15
18
17
16
16
16
17
20
19
21
19
21
24
20
21
21
24
26
29
29
30
31
34
34
34
35
34
35
38
41
44
45
42
39
50
53
49
52
57
63
73
76
75
69
74
74
78
85
86
91
90
93
97
90
93
93
101
99
97
102
104
105
102
102
94
93
90
98
94
96
92
86
81
75
72
68
75
70
65
60
52
53
50
47
45
47
45
34
29
30
24
30
27
28
25
27
24
23
29
32
26
27
26
23
26
25
24
20
18
23
27
27
22
27
27
23
24
23
27
25
23
23
21
17
21
23
22
20
20
18
19
23
24
23
23
22
17
15
21
21
18
10
18
19
19
18
24
19
17
6
11
25
12
10
12
18
16
16
16
20
27
25
26
21
21
21
17
20
18
25
26
28
29
35
35
37
34
31
38
36
32
28
23
26
28
35
42
38
37
30
34
39
37
24
27
26
19
22
23
15
18
15
15
19
18
18
15
17
14
11
17
23
25
20
23
20
10
20
20
13
22
18
23
26
28
18
21
28
31
43
52
66
82
96
105
121
148
169
171
164
151
138
127
100
59
44
15
-14
-41
-62
-58
-48
-42
-28
-21
-9
4
10
16
14
21
18
12
18
30
22
20
23
19
23
31
34
22
27
30
28
36
41
32
40
31
23
32
33
39
37
39
38
38
41
37
33
39
48
49
38
47
47
52
56
58
60
54
59
56
60
59
58
63
66
67
72
73
71
74
87
87
85
93
94
93
86
82
89
94
101
105
105
110
99
104
108
105
101
96
88
92
101
95
98
96
98
94
88
82
77
78
79
67
76
73
67
66
56
53
51
55
50
45
44
34
39
49
47
45
38
40
32
33
37
41
38
40
39
37
34
29
28
35
37
30
39
35
30
42
37
36
31
36
36
37
35
35
26
31
31
30
33
34
36
35
33
29
34
43
38
30
22
22
37
32
29
28
27
25
28
26
27
26
32
30
31
34
29
20
27
26
27
24
32
36
31
34
38
37
36
35
38
43
40
41
37
41
42
45
50
45
50
45
37
39
37
32
31
38
42
44
47
45
41
39
41
43
38
36
32
28
24
28
31
28
19
24
25
23
25
23
24
26
21
23
21
22
23
15
24
24
23
24
24
24
21
21
15
25
38
39
36
34
43
50
61
73
83
97
107
127
136
139
133
118
105
96
75
46
28
8
-14
-26
-55
-43
-34
-29
-17
-15
-4
1
8
5
9
18
19
26
24
18
16
20
19
26
27
22
25
25
31
30
28
30
34
31
31
27
30
31
24
26
29
33
37
35
30
37
49
40
37
39
38
33
44
48
47
49
47
50
54
56
59
53
53
54
58
60
61
65
71
73
77
88
84
89
83
83
88
95
93
94
99
98
100
102
99
99
97
96
99
99
100
99
91
89
93
91
87
88
86
83
76
80
78
68
62
61
55
53
55
54
47
46
46
41
43
39
34
34
34
28
31
29
27
30
24
31
33
27
33
28
22
27
35
31
28
23
28
26
27
28
27
24
26
28
26
30
21
25
29
32
26
24
27
26
23
24
26
20
23
22
18
22
24
26
19
18
22
25
26
23
20
26
22
20
20
19
16
21
22
24
21
13
15
27
25
21
27
27
29
25
26
24
32
27
26
34
37
38
39
38
32
33
37
31
21
23
31
25
27
28
31
29
36
38
27
30
29
18
18
23
21
22
16
15
22
15
15
15
15
14
15
17
13
12
3
11
12
13
15
12
14
11
13
14
18
22
16
15
21
17
22
27
30
32
44
51
66
76
92
105
128
141
132
131
120
110
94
69
40
18
-5
-21
-31
-65
-61
-53
-51
-34
-24
-13
1
3
6
7
16
14
16
14
10
7
9
13
11
13
13
23
21
19
25
25
21
19
16
22
25
25
25
23
25
22
24
33
32
25
31
35
35
39
38
34
33
42
40
49
46
44
50
54
50
46
48
52
54
54
62
64
67
70
70
70
73
82
78
83
86
90
90
91
92
95
96
98
93
96
95
100
102
104
98
96
101
98
90
91
91
87
89
85
82
81
82
75
65
63
63
56
52
56
55
44
40
43
41
40
34
39
36
36
30
30
29
32
29
28
26
27
27
29
30
22
23
24
27
22
24
25
29
21
21
25
27
25
23
21
26
21
24
22
23
21
22
22
20
20
16
19
20
21
23
21
24
19
19
18
24
17
17
13
15
13
21
17
14
17
14
21
12
12
13
14
11
8
20
19
20
25
26
25
28
28
28
19
22
24
25
23
31
32
28
31
34
33
29
24
24
25
31
29
28
29
33
36
40
27
31
35
28
27
32
31
28
16
15
10
14
17
12
11
9
9
5
6
5
4
10
9
11
11
13
15
13
12
7
-3
7
12
14
12
10
16
9
14
14
15
19
21
34
54
70
83
102
114
132
145
153
163
155
136
117
98
62
31
7
-22
-36
-71
-76
-70
-64
-44
-31
-21
-14
-8
-6
-8
2
3
6
9
6
8
3
7
11
6
12
7
4
8
13
12
19
10
2
14
12
18
23
17
19
22
21
18
21
25
28
19
17
21
25
31
40
31
34
44
42
35
38
42
44
42
47
47
47
50
56
57
60
63
59
70
70
71
73
83
81
79
85
94
88
91
91
97
91
92
93
92
90
103
103
98
98
94
96
100
94
91
88
89
80
77
73
71
69
66
60
58
61
55
54
43
43
36
43
42
34
26
31
33
27
22
21
28
24
24
19
20
18
14
16
25
23
21
22
21
18
24
22
16
19
24
19
16
9
20
22
19
17
15
19
18
17
13
12
24
13
15
15
17
22
16
9
11
14
17
15
12
11
10
9
18
12
8
12
12
9
11
11
6
5
9
12
15
16
14
8
6
10
17
9
11
12
15
12
17
26
19
18
15
17
13
24
29
21
21
18
19
24
30
26
33
25
33
29
30
26
29
30
28
21
25
34
31
35
33
24
24
24
22
18
19
14
11
14
16
12
13
14
10
6
8
9
5
11
14
17
9
9
7
10
9
12
21
13
13
15
19
13
17
8
14
17
26
34
41
62
87
91
99
122
143
157
164
161
154
137
120
101
68
43
16
-27
-46
-73
-79
-62
-54
-40
-23
-21
-15
-11
-8
9
8
9
8
14
11
5
8
13
14
16
15
18
13
15
12
17
17
21
18
23
23
24
27
29
26
21
20
25
27
28
29
24
26
34
41
39
40
35
38
43
38
44
46
45
40
44
48
50
52
53
58
60
63
64
62
71
69
74
78
81
88
90
91
89
89
91
94
95
98
107
97
96
99
103
101
95
92
87
95
90
90
92
89
88
83
79
79
72
74
71
73
65
64
59
56
52
52
45
41
40
46
42
40
41
42
41
37
34
34
28
36
39
36
23
20
29
28
33
27
27
30
32
33
33
26
26
29
26
29
27
32
36
33
28
23
22
32
30
31
31
29
24
21
19
18
18
28
33
24
24
26
24
28
25
25
23
18
20
25
22
25
22
19
26
25
28
25
18
21
14
15
23
26
28
27
27
26
27
32
31
33
26
31
27
30
32
35
40
37
36
44
44
43
34
41
35
31
33
37
28
26
30
29
34
35
28
31
30
33
23
29
25
28
25
28
18
8
15
20
18
18
17
7
13
16
14
5
7
22
20
15
12
11
11
13
16
14
23
21
22
25
23
18
20
35
37
38
54
62
66
86
98
107
123
135
131
126
108
101
84
57
24
10
-10
-25
-48
-66
-59
-41
-36
-28
-20
-15
-9
-5
-6
10
17
14
14
15
14
19
13
12
15
14
20
20
18
18
11
21
25
22
25
17
18
18
19
22
26
30
29
28
20
20
27
27
33
34
28
34
34
33
39
42
44
43
37
42
43
45
49
48
52
52
53
52
56
60
61
62
66
65
69
76
76
76
76
81
85
85
86
82
87
87
92
82
82
84
89
86
84
87
82
76
79
79
74
69
72
72
66
62
62
57
50
45
43
41
42
38
34
31
28
30
28
23
25
20
20
20
21
19
17
17
17
15
17
18
11
11
13
9
8
12
11
12
17
16
10
18
16
5
6
10
9
9
8
11
10
8
9
5
5
6
10
10
8
4
6
6
10
7
7
-1
-4
-2
3
2
1
5
2
1
2
0
-1
0
2
-2
-5
0
0
-4
-5
2
3
7
8
5
3
2
7
4
2
1
-3
-3
1
15
16
16
17
13
9
7
5
6
2
0
1
6
5
3
7
8
1
0
3
5
-3
-2
-5
-11
-13
-10
-15
-12
-12
-18
-26
-12
-12
-17
-21
-17
-16
-17
-23
-19
-17
-17
-23
-22
-21
-14
-15
-18
-21
-17
-17
-16
-11
-11
-7
-5
6
17
33
41
49
58
76
94
100
97
95
84
67
50
20
-7
-24
-47
-63
-84
-109
-98
-84
-70
-62
-59
-50
-37
-32
-34
-30
-23
-23
-26
-25
-22
-26
-23
-18
-21
-23
-19
-24
-19
-21
-19
-21
-19
-20
-19
-20
-12
-13
-13
-16
-12
-14
-11
-6
-2
-8
-9
-6
-11
-12
-7
-11
-13
-11
3
5
4
0
4
5
2
5
16
18
12
13
12
16
26
28
27
29
33
36
37
37
42
42
46
51
57
54
56
53
55
52
56
60
63
66
62
52
52
57
55
51
49
52
46
46
39
35
37
27
27
27
26
23
15
15
9
8
6
5
4
-3
-10
-12
-8
-10
-13
-14
-12
-13
-15
-12
-8
-15
-15
-14
-17
-16
-21
-19
-16
-18
-13
-17
-16
-15
-18
-26
-23
-19
-18
-15
-11
-17
-19
-15
-12
-22
-17
-23
-23
-15
-21
-21
-17
-22
-20
-17
-18
-25
-29
-21
-21
-26
-26
-26
-24
-21
-20
-25
-27
-26
-27
-28
-28
-25
-25
-25
-25
-23
-23
-24
-20
-20
-14
-17
-18
-21
-17
-21
-16
-17
-13
-15
-9
-10
-10
-8
-7
-6
-10
-12
-15
-16
-11
-6
-9
-9
-11
-10
-12
-5
-6
-2
-5
-11
-11
-12
-12
-24
-26
-22
-27
-24
-25
-27
-31
-25
-24
-26
-32
-21
-27
-36
-29
-30
-33
-30
-34
-29
-28
-28
-34
-35
-22
-26
-24
-21
-21
-20
-23
-24
-15
-4
11
26
41
55
74
94
115
120
122
111
94
76
63
27
1
-13
-44
-78
-104
-118
-112
-103
-92
-82
-65
-60
-50
-45
-36
-29
-31
-33
-33
-32
-28
-31
-29
-29
-37
-28
-27
-27
-26
-30
-26
-23
-25
-23
-24
-29
-24
-26
-22
-12
-23
-18
-18
-8
-10
-11
-11
-14
-12
-10
-8
-3
-4
-4
-3
-9
-3
-3
1
11
11
15
10
11
13
25
18
20
25
29
32
33
36
39
43
41
51
44
46
52
51
55
56
59
60
63
68
61
62
62
60
61
62
60
58
61
49
50
46
50
48
42
38
39
33
29
27
21
18
16
9
1
5
0
-4
-4
-12
-8
-4
-9
-16
-13
-9
-16
-20
-23
-18
-6
-15
-12
-16
-21
-17
-15
-19
-21
-23
-16
-14
-20
-21
-17
-18
-16
-19
-16
-16
-17
-25
-19
-11
-14
-18
-23
-21
-20
-22
-22
-19
-17
-19
-20
-20
-25
-18
-25
-29
-28
-24
-17
-21
-25
-24
-27
-29
-23
-22
-25
-25
-22
-18
-19
-21
-22
-24
-20
-17
-16
-15
-14
-18
-18
-16
-17
-13
-20
-15
-11
-7
-8
-1
-3
-6
-3
-9
-6
-6
-4
1
-5
-10
-8
-6
1
2
0
0
6
4
-7
-10
-4
-5
-18
-14
-15
-23
-15
-16
-17
-24
-20
-19
-18
-18
-20
-22
-16
-20
-26
-19
-27
-28
-14
-12
-11
-18
-11
-9
-14
-15
-15
-13
-12
-9
-11
-2
6
24
47
64
75
90
100
124
131
134
136
112
96
85
59
17
-1
-30
-51
-86
-97
-88
-69
-71
-72
-56
-50
-32
-25
-14
-14
-15
-11
-7
-7
-10
-7
-11
-5
-13
-6
-2
-11
-3
-1
0
0
3
-5
-5
-2
-4
0
-1
4
1
2
6
7
10
12
7
7
11
3
8
16
21
17
13
23
21
25
23
28
31
29
32
33
35
41
43
45
39
44
46
52
57
54
53
58
62
61
69
75
74
67
73
82
80
81
76
77
72
76
74
82
76
68
65
62
63
78
80
64
59
61
61
52
51
49
41
38
36
33
32
25
27
23
20
12
13
21
18
19
12
10
4
4
11
14
11
7
6
11
8
2
2
9
15
6
8
0
7
8
1
7
6
5
15
17
17
3
2
7
0
2
-7
-7
2
12
8
4
12
14
6
10
3
-6
3
11
7
1
3
16
5
2
2
9
5
-2
-5
7
0
3
-6
8
-1
14
4
-3
21
14
7
5
8
8
4
7
12
17
19
16
23
22
25
24
25
30
14
28
14
16
22
19
14
13
13
13
21
16
19
22
16
15
12
9
13
17
18
8
-7
4
6
7
4
1
-1
0
5
8
0
-7
9
2
13
1
-3
-3
1
10
16
7
7
14
12
9
17
16
27
16
20
32
43
52
66
73
92
118
132
118
108
105
91
71
46
26
9
-9
-34
-50
-62
-45
-40
-35
-27
-30
-16
-8
-1
-2
2
10
11
13
23
20
22
15
21
13
13
19
25
13
12
14
22
17
22
17
13
13
19
29
28
24
28
33
29
36
19
21
25
26
33
40
38
36
17
16
28
44
51
46
39
42
31
37
42
56
50
60
58
54
57
62
68
65
73
69
70
82
77
85
84
85
92
77
75
80
76
95
96
93
79
79
76
72
79
74
87
81
69
72
63
81
60
64
63
62
55
47
50
50
49
41
46
48
31
23
35
24
28
26
26
27
35
35
31
15
11
21
24
21
24
5
20
12
15
17
16
17
4
13
31
26
31
27
21
12
32
27
26
6
3
17
8
13
23
29
16
14
13
4
20
30
18
12
17
21
17
25
17
14
-2
9
26
33
37
19
4
8
19
13
16
22
31
41
39
32
18
31
43
36
30
30
26
22
43
45
27
30
52
55
47
41
36
43
36
24
32
42
31
32
36
27
26
36
40
30
28
17
33
27
35
40
30
38
27
28
17
14
33
37
8
17
13
35
5
19
58
46
27
1
18
26
25
14
27
42
45
34
26
55
24
23
22
37
53
78
89
92
87
113
97
113
105
68
54
50
28
11
-11
-26
-21
-37
-31
-21
-2
12
9
-22
-31
8
21
18
31
24
36
45
32
44
40
18
24
23
36
22
30
55
24
19
28
25
37
35
37
38
37
45
7
12
45
49
47
49
55
44
54
52
48
30
59
49
48
38
46
76
79
74
53
43
51
38
48
65
80
68
58
76
71
65
84
55
85
84
89
85
84
90
90
94
104
88
98
111
106
80
80
97
103
96
98
88
96
106
88
69
80
77
69
74
76
74
55
52
59
63
59
60
58
65
68
39
37
41
46
51
48
39
40
27
34
31
35
30
32
42
55
34
39
40
40
39
42
34
31
25
33
34
31
29
39
36
38
41
33
36
43
43
35
31
31
33
34
32
36
45
44
44
37
40
37
39
38
41
44
46
34
36
30
33
29
32
33
39
39
44
43
42
41
38
38
36
42
37
37
35
37
40
40
42
49
49
48
49
46
47
44
39
42
42
37
36
35
37
45
34
38
37
41
46
35
34
33
30
31
27
22
32
28
22
19
16
13
18
18
21
25
19
20
19
12
15
13
12
20
19
16
14
18
20
17
20
16
24
20
13
18
31
40
47
54
64
75
80
89
96
93
90
83
68
47
30
11
-1
-11
-23
-41
-50
-54
-38
-29
-24
-18
-19
-11
1
6
9
7
11
15
14
14
12
16
11
14
12
12
12
9
13
17
16
11
16
21
25
22
22
22
26
25
18
13
13
28
30
30
26
28
25
26
29
32
38
34
33
38
42
42
42
45
46
42
42
44
49
51
56
60
56
54
61
63
71
69
65
72
80
79
82
84
83
81
90
90
89
89
86
89
97
92
85
86
84
79
79
73
78
71
74
76
71
63
56
55
53
60
52
47
51
47
43
39
29
28
30
31
28
30
34
27
27
30
27
27
27
25
22
17
29
26
25
20
21
16
19
19
21
23
27
22
23
26
22
21
25
29
19
18
16
18
23
19
19
17
18
19
18
15
18
19
18
20
19
19
18
16
15
14
21
20
13
16
18
17
16
16
16
21
24
20
20
15
25
30
23
19
22
28
25
24
30
28
24
25
26
30
31
36
32
29
29
25
32
23
27
27
32
25
27
29
31
34
29
28
24
27
33
20
19
22
19
17
11
15
18
11
4
9
14
9
16
11
15
12
15
21
14
6
11
18
15
7
8
12
16
8
14
19
21
23
25
24
30
43
54
71
82
93
107
119
126
122
110
95
76
58
29
12
-8
-23
-36
-62
-69
-61
-51
-43
-31
-17
-9
-8
-2
2
11
12
16
11
13
14
11
9
12
15
11
13
13
12
13
19
15
12
17
20
16
20
23
23
21
22
23
25
27
26
34
28
26
25
29
30
32
40
39
40
36
32
40
42
44
42
45
49
48
53
56
53
50
55
65
70
70
69
76
73
73
73
76
79
82
90
96
96
96
91
87
90
94
97
95
96
99
93
86
89
90
87
80
73
78
85
80
80
68
65
59
55
51
53
51
44
39
37
33
28
38
35
27
22
22
21
27
26
27
23
23
21
17
22
18
14
9
17
13
8
12
16
13
11
8
3
9
11
11
11
9
6
10
8
11
11
10
5
2
-1
5
8
7
5
3
6
6
4
4
2
1
-2
-4
-3
4
-2
-1
-3
1
2
-1
-2
-4
2
3
-2
-1
0
4
7
7
9
3
1
5
7
8
10
8
7
6
11
10
11
11
13
12
9
9
8
6
6
10
9
12
12
16
13
8
16
17
9
12
16
9
6
-1
-3
-1
-6
-10
-10
-7
-9
-11
-15
-13
-10
-15
-15
-8
-8
-14
-11
-10
-13
-16
-14
-18
-10
-12
-12
-14
-13
-8
-9
-5
-2
-8
2
3
15
34
52
65
84
103
118
136
141
136
125
115
99
74
35
10
-9
-49
-59
-87
-106
-96
-82
-71
-60
-52
-45
-44
-36
-30
-29
-30
-23
-31
-34
-33
-28
-24
-20
-17
-16
-22
-16
-18
-16
-22
-19
-17
-12
-14
-14
-19
-17
-14
-12
-11
-18
-17
-15
-7
-7
-2
0
-5
1
0
-1
5
6
7
5
5
9
9
10
14
14
15
14
17
21
29
27
31
38
46
37
42
46
46
51
61
60
60
62
66
68
68
68
70
70
74
71
69
71
69
69
73
67
64
63
73
75
65
61
57
52
55
48
39
40
39
41
31
24
24
21
15
15
11
15
11
11
6
9
14
2
1
6
6
10
-1
0
-5
-1
-3
-6
-1
2
0
-3
-6
0
1
-3
-1
4
1
-6
-9
-4
3
1
1
4
7
-6
-9
-9
-2
-2
2
-6
-10
-7
-7
-3
-2
-4
-8
-8
-8
-7
-2
-2
-9
-6
-4
-4
-8
-3
-3
-9
-4
-6
-7
-8
-7
-9
-12
-5
-5
-6
-7
6
9
1
0
4
-4
-1
8
7
5
10
9
3
5
9
14
16
11
11
17
16
12
7
5
5
12
14
18
13
11
15
13
13
17
11
10
12
7
2
-1
0
-2
-7
-4
-1
-5
-2
3
-6
-12
-5
-4
-4
2
-2
-3
-3
-3
0
0
-2
1
-1
-5
-13
-4
9
5
4
7
16
24
33
43
57
74
88
103
127
139
138
130
127
112
91
70
30
4
-14
-35
-55
-84
-85
-71
-57
-52
-47
-30
-13
-5
-5
-12
-8
0
0
1
-2
-6
-3
-1
1
2
4
1
-2
8
5
5
5
5
7
7
8
8
6
7
14
14
13
16
11
11
16
18
15
16
22
23
19
27
28
26
28
21
26
30
29
33
33
39
36
41
44
49
40
48
62
49
49
57
60
64
64
68
73
70
78
75
80
77
79
79
76
79
76
81
86
79
77
78
75
76
67
68
67
69
71
66
62
59
49
49
51
48
47
42
38
33
35
33
29
25
22
20
15
11
19
16
16
13
12
6
6
9
14
15
17
10
10
8
0
6
6
6
8
6
-1
0
8
11
7
7
10
9
0
3
7
3
1
8
3
2
0
0
-1
5
0
12
2
1
1
0
7
1
4
4
5
-4
2
0
-1
2
2
-1
-4
1
-3
1
1
0
0
1
5
7
1
9
11
11
5
3
4
5
8
8
6
7
15
18
16
15
12
17
11
8
13
17
9
6
5
6
6
11
13
9
15
15
14
13
11
5
1
8
2
0
0
3
4
-3
-5
-6
-7
-4
-3
-6
-9
-5
-7
-12
-3
-11
-12
0
0
-11
-5
1
-5
-5
-1
-2
2
4
5
6
8
16
22
32
47
55
66
83
95
107
100
96
78
66
57
33
5
-5
-20
-40
-60
-90
-82
-76
-67
-54
-46
-40
-31
-18
-16
-15
-14
-8
-11
-16
-16
-12
-13
-4
-3
-11
-9
-10
-6
-10
-6
-2
-5
-8
1
-2
-4
0
1
-3
-2
-6
-7
-2
1
2
0
0
2
4
5
4
0
8
15
8
7
6
7
9
19
21
16
20
20
26
23
28
25
28
29
30
37
49
46
50
49
53
53
54
56
60
61
65
63
61
62
62
61
57
67
63
67
64
59
59
60
59
53
52
47
53
46
45
44
36
33
32
26
22
23
19
17
11
13
15
9
11
4
-1
3
-1
-2
-5
-7
-5
-6
-1
-1
-7
-7
-7
-10
-9
-2
-1
-3
-5
-6
-9
-10
-10
-3
-5
-7
-7
-8
-6
-5
-6
-5
-13
-12
-7
-7
-8
-3
-7
-7
-4
-10
-6
-5
-2
-8
-12
-16
-10
-14
-13
-7
-8
-8
-10
-9
-9
-8
-10
-14
-13
-13
-9
-12
-11
-9
-8
-2
-2
-3
-2
-4
-2
-2
1
-1
-4
-4
-1
2
8
5
5
6
7
4
4
5
1
3
-1
-4
-5
-2
4
3
0
-1
4
5
6
3
-2
-6
-5
-14
-15
-20
-20
-23
-14
-19
-21
-17
-16
-17
-15
-14
-21
-22
-20
-21
-22
-20
-14
-14
-19
-21
-22
-24
-20
-22
-15
-14
-9
-10
-14
-9
-1
9
16
32
39
49
63
74
90
100
98
88
72
61
44
16
-5
-25
-46
-61
-91
-102
-95
-87
-78
-64
-52
-44
-36
-38
-32
-27
-23
-28
-25
-23
-24
-27
-28
-24
-25
-26
-23
-27
-20
-18
-21
-18
-19
-16
-18
-17
-18
-17
-19
-16
-20
-15
-11
-12
-17
-10
-12
-12
-7
-5
-7
-6
-3
-7
-5
-3
-3
3
3
2
1
8
12
11
18
15
21
17
14
15
22
27
33
33
36
41
46
47
47
47
47
55
53
54
52
56
50
59
63
60
55
58
55
52
51
51
59
53
46
43
41
37
37
36
30
28
23
21
21
17
12
2
1
2
1
-3
-3
-1
-7
-6
-15
-12
-14
-11
-11
-22
-20
-18
-15
-17
-14
-16
-21
-15
-18
-17
-17
-19
-18
-18
-20
-17
-16
-18
-17
-17
-18
-23
-24
-23
-18
-18
-22
-21
-18
-17
-20
-19
-23
-27
-25
-23
-22
-20
-20
-24
-23
-24
-23
-22
-30
-31
-29
-22
-28
-31
-29
-32
-28
-33
-31
-24
-23
-29
-33
-31
-28
-32
-28
-29
-26
-28
-25
-19
-18
-14
-19
-19
-13
-20
-21
-18
-21
-15
-12
-11
-9
-8
-8
-18
-12
-11
-16
-14
-16
-19
-20
-13
-7
-10
-6
-5
-8
-11
-11
-15
-19
-20
-25
-21
-26
-27
-33
-33
-31
-29
-29
-33
-31
-34
-34
-31
-30
-31
-35
-32
-33
-33
-27
-30
-31
-30
-30
-32
-33
-27
-27
-28
-24
-23
-13
-13
-13
2
20
37
58
66
87
106
119
117
115
102
83
70
37
5
-20
-46
-69
-83
-113
-114
-106
-95
-81
-74
-55
-48
-37
-37
-38
-36
-38
-36
-35
-37
-34
-26
-32
-33
-30
-37
-32
-30
-27
-32
-31
-23
-23
-24
-24
-26
-24
-27
-26
-22
-21
-17
-21
-20
-17
-13
-16
-16
-8
-10
-14
-17
-12
-9
-5
-8
-4
-5
-5
-3
1
0
10
15
11
17
11
14
19
21
20
32
33
34
38
45
46
43
48
48
53
53
60
54
61
59
61
65
63
68
56
55
61
65
56
52
52
53
49
44
43
40
36
36
32
25
25
20
17
19
15
7
5
-4
-4
-7
-9
-5
-4
-7
-16
-14
-12
-12
-15
-15
-18
-18
-18
-15
-16
-21
-21
-19
-21
-20
-17
-21
-27
-19
-16
-14
-21
-21
-22
-23
-22
-20
-20
-18
-20
-21
-19
-22
-19
-19
-18
-26
-22
-25
-19
-15
-20
-20
-25
-24
-26
-24
-22
-26
-27
-27
-24
-23
-23
-23
-21
-29
-24
-27
-26
-27
-28
-28
-27
-25
-26
-27
-21
-21
-18
-19
-24
-23
-16
-19
-24
-20
-16
-18
-20
-16
-15
-10
-10
-11
-8
-9
-4
-10
-11
-3
-7
-10
-7
-12
-8
-8
-4
-4
-1
-2
4
-1
-7
-9
-13
-8
-10
-13
-20
-18
-20
-25
-21
-29
-25
-32
-26
-23
-29
-21
-25
-26
-27
-27
-29
-28
-27
-25
-20
-25
-29
-26
-25
-22
-25
-19
-13
-17
-18
-15
-10
0
12
31
50
69
90
103
128
138
146
141
130
119
105
78
37
14
-4
-42
-65
-95
-103
-91
-81
-64
-58
-43
-38
-35
-30
-31
-27
-25
-24
-22
-18
-16
-22
-20
-18
-18
-26
-22
-22
-13
-17
-13
-14
-15
-11
-12
-13
-10
-8
-10
-14
-13
-6
-2
-5
4
3
0
-5
-1
5
7
11
1
5
3
6
9
17
14
17
18
21
22
21
20
22
28
36
36
35
36
40
45
42
45
54
61
62
60
62
63
65
68
69
73
74
75
67
74
72
70
63
67
66
67
62
61
64
62
59
60
54
54
47
45
42
35
36
38
24
26
25
17
10
10
7
10
8
15
11
11
9
3
3
0
-2
-2
3
1
-1
1
0
-3
3
0
-5
-3
-1
0
-3
0
-4
-6
-3
6
1
-1
1
-2
-6
-9
-3
0
-2
-2
-7
-2
0
-5
-7
5
0
-2
-4
1
-7
-8
-2
-1
-5
-3
-1
-4
-2
-1
-5
-9
-1
-3
-3
-2
-7
-10
-3
-8
-4
-4
1
-10
-11
-6
-6
-6
-3
-2
-5
2
6
3
6
7
3
1
6
1
-1
5
12
13
15
13
11
12
18
13
11
5
10
12
9
3
10
8
6
11
6
13
17
9
10
14
7
6
5
3
-7
-12
-5
4
-8
-10
1
-5
2
0
-9
-4
-2
-3
-1
-6
-5
-8
-7
-2
-2
-7
-8
-7
-3
6
3
5
5
9
10
16
28
36
51
69
75
91
111
118
114
120
106
100
86
63
31
9
-12
-34
-52
-89
-85
-73
-62
-59
-48
-36
-17
-16
-13
-14
-12
-10
-4
-2
-3
-6
-3
0
3
4
-6
-7
7
0
1
-6
-1
5
13
13
-4
6
4
0
8
10
10
12
11
10
15
13
13
14
13
14
17
10
20
28
13
24
28
26
21
24
31
28
29
37
36
41
39
48
47
44
47
52
57
58
56
65
66
64
66
65
66
69
76
81
80
83
81
73
73
78
73
71
70
77
72
71
74
66
60
60
61
59
52
46
45
45
46
38
36
34
34
29
26
25
25
19
12
11
16
17
9
8
6
9
11
10
10
8
6
7
2
6
7
10
9
10
9
4
5
3
2
1
5
5
3
5
4
10
1
1
3
4
6
-1
-4
0
-1
-3
-2
5
-1
4
10
5
4
8
3
-2
2
5
-2
-1
1
-2
-5
-2
2
3
0
-1
0
-2
-6
-3
-4
0
-1
1
4
3
5
6
7
7
6
5
2
4
10
5
6
15
24
14
14
12
9
12
17
10
8
4
4
7
5
9
4
5
16
12
11
12
5
2
-3
-5
-6
-6
0
-6
-6
-8
-11
-9
-8
-9
-12
-7
-9
-12
-11
-8
-8
-13
-9
-4
-12
-12
-6
-6
-8
-7
-7
-4
-1
-1
-5
2
7
13
29
45
55
60
76
91
109
113
110
102
88
76
69
30
8
-9
-32
-47
-72
-86
-75
-66
-56
-47
-44
-35
-28
-21
-11
-15
-16
-16
-14
-13
-8
-7
-4
-7
-8
-6
-16
-12
-10
-5
-5
-4
-5
-11
-5
-5
0
-3
-4
-2
6
3
2
-1
2
2
5
7
5
6
9
11
9
11
13
13
15
19
22
20
26
23
22
26
26
27
34
38
36
35
46
49
50
45
52
56
52
63
64
68
66
66
70
74
75
76
77
75
71
73
76
74
73
71
66
73
73
68
65
59
61
53
47
52
47
44
45
43
38
28
30
26
22
19
17
16
14
11
10
9
3
-1
-3
-3
-5
5
4
1
-1
0
-3
-1
-3
-5
-2
-5
-4
-4
-4
-7
-5
-3
-5
1
1
-7
-2
1
1
-1
-5
-6
-7
-10
-7
-2
-3
-5
-7
-4
-11
-11
-9
-8
-6
-9
-9
-11
-4
-7
-10
-12
-11
-8
-12
-13
-9
-13
-12
-12
-12
-10
-11
-12
-16
-16
-14
-12
-5
-1
-3
-6
-6
-2
-4
-3
-2
-3
-1
-2
-5
-1
3
4
5
10
4
2
4
3
4
1
-2
-2
-1
1
3
6
6
2
8
9
6
2
-3
-4
-4
-10
-11
-15
-14
-14
-18
-10
-11
-17
-21
-13
-7
-11
-17
-17
-10
-11
-9
-13
-11
-22
-23
-15
-18
-15
-15
-18
-19
-10
-10
-7
-6
-3
3
18
38
48
65
81
95
111
127
124
122
107
89
75
46
12
-3
-35
-57
-79
-100
-97
-85
-74
-66
-56
-42
-32
-28
-26
-25
-23
-23
-26
-19
-15
-17
-15
-17
-14
-13
-14
-17
-15
-13
-8
-13
-8
-10
-3
-5
-10
-5
-11
-7
-12
-13
-9
-7
2
0
5
-2
-1
-3
0
6
9
4
11
8
13
11
10
11
18
21
25
21
26
23
27
28
29
37
45
46
51
46
48
48
53
52
49
63
63
66
64
67
71
76
78
75
78
78
75
74
73
74
73
69
72
68
67
61
63
61
56
48
48
46
48
39
37
36
29
25
21
19
17
9
6
8
6
10
8
5
1
-7
-5
-9
-7
-7
-6
-7
-2
-3
-6
-2
-8
-11
-5
-7
-10
-10
-6
-9
-7
-7
-10
-12
-10
-9
-13
-7
-4
-8
-10
-8
-15
-14
-8
-11
-7
-11
-16
-10
-13
-13
-12
-14
-13
-13
-13
-16
-15
-13
-10
-13
-13
-15
-10
-10
-12
-14
-14
-14
-15
-14
-14
-17
-16
-17
-19
-16
-8
-8
0
-3
-3
-3
-5
-6
-7
-2
-14
-9
0
2
2
5
7
2
0
2
4
4
-1
4
0
-3
2
5
8
8
9
0
9
7
4
2
-3
-3
-5
-9
-19
-18
-17
-13
-20
-21
-15
-20
-16
-14
-16
-16
-16
-18
-20
-22
-19
-13
-12
-9
-16
-17
-12
-15
-15
-15
-18
-14
-9
-10
-6
-7
3
17
39
56
72
93
105
133
142
149
149
130
117
91
62
34
15
-14
-44
-66
-104
-99
-87
-81
-67
-58
-50
-38
-31
-27
-19
-20
-21
-17
-19
-16
-15
-20
-18
-14
-13
-15
-12
-11
-10
-6
-11
-6
-7
-7
-6
-7
-8
-7
-3
2
-3
-3
2
7
5
7
6
9
11
7
5
8
17
14
16
16
18
21
26
26
24
29
27
35
37
34
37
39
39
47
52
51
53
59
64
55
64
73
75
73
76
75
79
82
80
87
86
82
75
80
80
83
83
85
87
87
78
77
74
73
73
66
67
64
55
57
56
48
38
38
38
35
31
28
22
26
21
11
13
12
15
17
11
8
6
3
7
8
4
5
7
13
10
5
4
10
3
0
9
7
1
2
2
2
4
4
4
7
3
1
0
-1
-1
2
10
0
-3
1
-2
2
1
3
4
0
-1
1
2
-1
-2
-7
5
1
2
1
-1
1
5
0
-1
0
2
6
2
-2
-5
-4
-3
-2
-1
1
-3
0
3
1
7
7
10
4
6
10
7
7
7
9
8
13
18
15
18
19
19
17
19
12
15
18
22
18
12
14
12
14
19
23
16
23
21
14
17
12
13
8
10
9
2
-2
0
-4
4
7
1
1
0
0
-1
2
2
-1
6
2
-3
1
3
2
-2
2
6
4
4
7
5
13
13
18
22
31
39
56
76
85
101
115
143
150
145
143
130
116
101
72
39
17
-16
-41
-70
-85
-77
-63
-57
-41
-33
-18
-9
-12
-7
2
3
4
-2
5
6
3
3
6
5
11
1
3
8
3
5
12
15
11
9
11
15
10
13
14
14
13
16
20
23
22
18
14
16
24
22
25
33
35
31
23
30
34
35
32
31
37
35
36
40
47
49
51
61
57
59
61
60
64
64
66
72
71
75
82
88
85
82
82
84
86
86
93
91
89
88
90
83
93
90
84
83
82
87
76
76
74
73
75
68
61
59
57
56
51
46
47
41
37
35
40
34
33
29
24
29
31
20
14
22
28
22
15
13
18
21
15
10
17
15
15
16
18
18
21
17
16
14
15
15
18
19
20
20
20
23
19
8
14
19
18
9
19
17
15
8
13
15
15
13
14
18
18
14
8
13
12
11
11
11
11
7
11
17
16
15
10
13
10
9
6
10
11
13
7
10
17
18
20
21
20
19
18
21
19
20
21
20
24
30
30
20
30
24
23
25
22
17
23
17
17
17
22
19
22
20
30
25
25
21
12
8
10
9
13
10
9
7
10
2
3
6
7
7
9
3
4
4
4
5
6
6
5
5
7
10
5
2
8
8
6
13
20
18
12
24
37
43
58
66
74
93
111
119
121
114
110
101
93
79
47
21
9
-17
-39
-60
-76
-68
-58
-47
-38
-32
-21
-15
-8
-5
-2
6
5
5
6
12
7
3
8
8
5
8
10
11
13
11
12
13
12
10
13
17
12
7
18
16
24
19
20
24
20
15
20
24
25
25
24
25
27
34
27
34
33
30
33
28
33
38
39
47
48
47
53
53
53
54
51
66
67
65
65
68
72
73
81
86
84
88
89
89
87
87
87
91
91
95
88
85
87
89
89
86
82
80
80
76
70
68
72
72
60
54
57
50
49
47
44
38
32
30
30
30
28
26
24
23
17
20
17
12
13
13
13
10
14
12
14
14
16
14
11
12
9
5
16
8
14
11
7
8
4
14
15
12
9
12
8
10
12
11
7
8
13
13
4
8
8
8
6
10
9
4
6
3
3
10
3
1
7
8
4
9
5
2
3
10
3
7
4
8
6
0
8
12
8
8
10
10
13
11
12
10
17
15
18
17
14
25
25
20
16
16
17
19
17
11
10
11
15
14
16
20
16
19
19
14
17
13
5
7
5
4
0
-6
-4
-2
-3
-1
-1
-7
-5
-3
-3
-3
0
-5
-7
-4
-7
-2
-3
-3
1
1
-4
-5
1
-1
-2
-1
4
9
15
26
41
50
64
78
91
113
128
132
125
113
106
89
70
35
9
-4
-32
-51
-78
-79
-71
-65
-56
-45
-32
-30
-15
-12
-14
-12
-6
-5
-4
-2
-5
-1
5
1
-1
-2
-3
-1
1
1
4
1
3
2
1
8
4
4
4
9
7
7
9
8
11
11
16
12
14
16
17
15
18
19
18
23
25
27
27
25
26
27
30
24
33
37
42
38
44
47
48
47
52
53
57
56
60
64
67
71
75
78
75
72
76
80
77
77
84
81
77
77
78
79
76
77
78
70
70
64
62
68
64
56
53
52
48
45
44
43
34
31
28
30
21
18
14
15
18
11
9
9
8
8
5
6
-2
1
8
5
2
4
-1
3
9
8
1
-1
0
2
-1
-1
3
3
2
-4
-1
0
-2
-1
3
-3
3
0
0
-1
-2
-8
-5
-2
5
-5
-5
-2
-3
-1
-6
-3
2
-4
-5
-7
-6
-6
-2
-3
-6
-3
-5
-9
-10
-7
-4
-7
-1
-2
-2
-5
-5
-3
1
6
6
3
6
3
2
10
0
-2
0
5
10
11
16
14
15
14
10
9
7
10
7
5
6
9
12
11
15
21
18
17
13
8
11
5
3
3
-3
-3
-9
-4
-7
-7
-6
-8
-6
-7
-4
-8
-9
-11
-9
-8
-5
-8
-6
-8
-6
-8
-8
-10
-4
-4
-6
-4
0
1
-2
8
15
26
44
64
77
95
113
131
142
143
141
126
118
104
68
28
15
-12
-44
-64
-83
-93
-81
-71
-57
-49
-36
-29
-20
-16
-18
-14
-13
-6
-8
-10
-12
-2
-9
-7
-1
-4
-7
-2
-7
-7
-2
-5
-9
-10
-5
-4
-5
-3
1
0
1
10
8
2
4
6
10
6
7
11
14
12
8
11
24
23
15
19
24
24
27
25
24
32
34
38
44
40
41
50
48
55
55
60
60
60
64
68
74
75
75
76
81
78
80
84
84
85
87
85
83
86
85
79
83
81
75
79
76
73
73
72
65
59
56
53
54
44
39
44
37
34
31
29
29
20
18
16
14
14
13
3
5
13
12
8
3
7
3
5
4
-1
-3
1
3
-1
4
5
0
-1
1
6
3
-1
2
3
1
2
2
0
0
3
-1
-4
-4
5
1
-5
-2
0
3
-1
-1
-4
-3
-3
-5
0
-1
-1
-3
-3
-6
-3
1
-3
-7
-5
-3
-1
-3
-6
-8
-10
-10
-5
-4
0
-2
-1
5
4
4
2
7
2
5
2
3
6
4
3
6
6
10
12
17
15
15
15
13
17
13
15
13
11
10
14
12
15
20
19
17
23
21
14
13
12
11
9
5
-3
-7
-4
-3
-4
-4
-7
-6
-4
-6
-3
-2
-5
-4
-2
-4
-2
-7
-8
-3
-5
1
2
-2
-4
1
-4
-1
4
1
7
13
16
28
53
68
81
98
116
147
159
164
166
155
140
127
107
65
39
17
-22
-36
-69
-92
-76
-66
-58
-45
-30
-22
-23
-16
-6
-4
-9
-6
-7
-1
-1
-1
-4
2
0
2
2
2
-1
-1
2
1
6
7
5
6
2
9
9
7
13
12
9
9
10
16
11
20
20
25
22
19
16
24
29
22
21
28
30
35
37
34
34
38
42
46
53
48
51
56
55
55
57
67
67
70
71
77
74
83
81
80
80
85
90
86
91
95
89
90
89
94
88
86
86
80
77
78
78
82
85
76
72
75
69
64
63
59
52
42
45
46
44
37
32
32
33
29
24
23
13
19
20
13
17
19
19
10
14
14
14
15
18
17
16
10
12
15
19
14
14
14
12
14
14
13
15
14
14
12
9
7
9
15
10
15
18
11
10
9
10
11
12
13
10
10
13
12
13
5
5
9
12
12
10
8
10
8
4
