0
-7
-11
-34
-24
-19
-5
8
21
14
10
-1
-20
-40
-37
-26
5
12
34
23
9
10
-21
-23
-27
-4
-5
10
17
21
24
-6
-28
-31
-31
-19
6
15
28
14
9
-10
-13
-35
-34
-13
-9
14
23
27
-7
-10
-24
-26
-23
-6
-3
16
24
20
-3
5
-16
-21
-22
-18
-3
22
17
25
22
-10
-26
-29
-27
-4
-18
15
24
9
1
-6
-24
-26
-28
-11
3
18
17
14
0
-8
-34
-37
-39
-15
-8
21
24
19
10
0
-40
-25
-15
-11
-4
22
23
14
-4
-8
-27
-37
-17
-2
21
27
14
4
-4
-4
-28
-20
-22
-1
9
20
6
6
-17
-10
-22
-19
-8
15
11
19
33
18
3
4
-18
-29
-7
10
27
36
36
16
-3
-11
-15
-28
-18
-2
23
19
23
2
-2
-17
-29
-26
-17
-12
3
23
29
-2
-1
-14
-28
-20
-24
1
1
2
7
-3
27
20
23
60
104
124
153
171
156
137
125
110
98
95
81
78
56
28
11
-7
-1
-33
-33
-33
-11
2
4
20
26
7
-17
-25
-36
-32
-3
8
20
32
5
2
-13
-29
-17
-26
-10
0
28
13
14
6
-7
-37
-22
-19
5
-7
19
17
16
5
-7
-26
-21
-23
19
18
18
25
17
8
4
-12
-28
-19
-1
7
25
33
15
11
10
-14
-12
-3
5
14
22
51
32
12
-4
-17
-16
-2
20
21
36
54
18
17
16
-1
-4
5
48
52
69
48
46
45
31
19
22
34
44
72
90
80
53
44
38
22
19
37
47
72
67
65
74
43
11
17
11
20
29
43
44
59
26
10
10
-12
-5
8
13
20
34
30
11
4
-13
-22
-9
0
-14
19
32
18
5
-7
-28
-31
-29
-10
16
22
29
10
5
-1
-36
-12
-24
-15
-6
18
23
2
2
-1
-11
-16
-15
-21
0
28
8
14
7
10
-28
-37
-22
-3
4
22
17
8
8
-9
-22
-25
-16
-7
15
41
18
22
3
-1
-25
-19
-17
-17
5
19
28
43
32
-6
-23
-26
-17
10
-5
35
27
17
10
6
-32
-23
-12
-1
16
29
20
17
19
-5
-14
-25
-23
-8
4
30
41
25
17
-5
-29
-32
1
-2
14
36
33
13
4
-1
-26
-22
-19
21
4
16
21
6
-3
-11
-28
-17
8
8
5
43
25
13
-1
-36
-23
-1
4
19
22
27
21
4
-5
-10
-26
-19
-1
0
27
35
22
19
7
-14
-28
-8
7
24
45
39
40
22
14
-17
-23
-12
6
9
42
32
26
19
-1
-20
-24
-16
5
3
23
26
15
5
6
-20
-12
-17
-2
3
43
24
9
-6
-3
-17
-28
-35
10
21
57
46
92
104
120
122
110
106
121
114
163
157
138
100
66
14
-13
-37
-19
5
13
20
13
-10
-4
-18
-31
1
2
4
23
29
18
8
7
-29
-22
5
2
15
35
18
7
-6
3
-31
-25
2
8
23
25
36
7
2
3
-3
-11
-15
8
17
26
24
26
9
-5
-14
-16
1
15
28
41
19
18
10
-15
-15
-9
3
16
29
49
44
22
13
3
-17
-10
12
20
54
47
48
27
19
3
-3
16
29
29
60
52
58
41
44
45
27
18
48
70
92
89
79
57
60
33
48
46
57
69
80
94
76
54
46
40
49
46
58
48
75
71
83
56
37
7
14
16
27
43
59
53
40
21
18
12
-2
-9
7
28
35
32
22
6
8
-18
-15
0
19
22
47
33
25
5
-2
-25
-14
-1
10
18
26
29
21
8
3
-18
-8
2
12
9
35
33
29
11
-6
-20
-3
-11
-7
17
31
31
22
-3
-1
-6
-15
9
21
27
40
39
29
10
4
-15
-1
-12
7
22
35
31
11
20
1
-2
-7
7
25
22
41
49
25
14
2
5
10
-6
19
44
35
41
18
4
1
9
4
10
22
29
45
47
12
21
-5
-11
1
6
38
29
30
34
33
15
-11
-1
-9
-4
17
44
41
38
22
10
-12
-5
13
5
26
33
30
44
9
11
-10
1
6
11
24
47
54
34
17
1
-21
-14
-3
7
20
51
46
32
10
8
-17
-11
-8
15
14
56
57
36
12
5
-13
6
16
37
32
54
51
33
31
27
8
8
2
13
37
30
35
33
11
-2
-9
-16
-6
10
19
36
35
19
15
1
-18
-9
-4
12
13
21
40
29
9
-15
-17
-1
30
48
92
142
153
150
161
149
124
115
128
136
136
156
123
79
37
-9
-30
-24
-9
6
18
36
30
13
6
-15
-16
-9
8
8
21
44
36
31
6
-10
-14
-10
18
5
24
47
24
26
0
4
-1
-16
-6
5
24
38
25
22
10
-18
2
-13
9
20
38
46
35
18
4
-7
-3
-11
9
24
48
43
40
15
9
-2
0
-9
18
35
71
34
32
31
25
-11
-4
13
20
41
71
29
26
25
21
3
13
19
47
46
54
64
55
46
36
17
32
29
49
53
79
100
73
57
39
22
41
46
56
62
69
84
91
65
68
30
31
29
40
45
69
64
70
29
4
5
12
35
14
39
44
52
28
6
8
-14
-7
6
4
33
36
46
25
20
5
-4
-16
1
1
28
59
29
-8
10
4
-16
-14
-1
21
30
50
31
13
6
-15
6
-12
-2
20
25
33
41
14
2
-10
-17
-10
7
21
48
38
35
22
12
-21
11
-13
-1
18
26
26
32
19
-3
-28
-26
-8
21
14
36
26
20
11
17
-14
-21
-2
11
22
55
25
45
20
1
-26
-20
-16
1
23
50
40
21
15
9
-26
-11
-2
10
10
49
42
28
10
-1
-18
-28
-7
14
16
48
22
28
12
-2
-12
-19
-1
11
23
45
49
16
15
-3
-22
-21
-11
31
29
36
39
22
5
10
-7
-28
-2
5
24
37
31
28
9
-8
-12
-9
8
16
29
57
46
44
35
23
-17
-14
5
29
32
40
33
25
5
-6
1
-18
0
11
33
43
33
24
9
2
-17
-19
3
18
13
32
38
30
-10
-26
-13
-3
10
4
33
46
32
5
28
37
56
83
135
161
177
188
168
155
145
115
120
120
103
73
53
36
6
-10
15
-24
-17
-19
-7
10
31
35
24
26
17
-11
-15
-10
7
24
27
44
29
4
2
-9
-11
-7
9
31
50
37
31
6
16
5
-16
-10
5
23
39
41
34
18
5
1
-6
2
4
27
56
36
31
12
11
1
-3
-8
26
26
46
61
39
13
-4
-10
2
19
14
39
61
47
39
39
13
-2
-6
11
41
42
77
62
47
49
29
24
20
28
49
94
79
72
75
39
34
32
40
54
58
78
106
84
67
51
41
44
51
39
58
77
84
74
65
59
24
23
12
49
48
78
61
62
40
30
1
6
13
25
10
41
35
37
32
21
0
-10
-9
16
25
38
46
30
7
14
0
-11
4
20
16
44
33
31
19
10
-6
-4
-12
3
15
45
31
26
17
-1
-6
-9
-15
12
32
57
39
14
9
26
1
-25
-7
12
14
45
44
35
10
13
-4
-8
9
29
24
27
41
28
19
3
-7
-3
18
21
30
45
47
28
18
10
-12
7
6
16
20
32
56
56
20
5
-20
-1
1
25
35
35
40
30
20
-2
-6
4
2
23
26
39
31
34
24
18
-11
-18
9
40
34
39
34
46
26
9
2
0
2
6
38
44
34
25
14
13
-10
0
17
24
44
48
36
19
21
4
-2
1
28
24
57
58
44
35
29
9
17
3
14
36
56
43
43
31
28
-9
-5
-7
4
15
38
43
42
14
10
16
-5
-4
11
21
39
31
23
21
7
-30
-22
-10
20
37
76
96
114
132
150
162
158
159
162
160
172
180
173
123
81
27
-7
-15
10
3
31
27
43
10
-11
-9
-8
-4
22
28
47
42
25
12
19
-4
-15
-9
8
21
37
38
30
7
11
-3
-15
11
15
25
51
53
44
24
-5
-16
6
9
24
57
53
69
20
13
9
-7
-12
16
31
28
48
46
23
37
12
-9
-1
34
35
45
49
48
38
33
6
9
10
11
41
56
59
52
43
42
13
19
21
42
40
50
72
81
74
44
43
47
40
54
70
82
83
89
66
66
40
49
62
83
85
86
102
78
70
71
25
36
27
48
78
84
67
74
51
46
26
30
18
36
45
69
65
36
19
12
2
-3
3
35
24
47
46
43
13
13
-3
2
-6
15
25
42
44
30
6
11
-1
-7
-9
23
33
48
34
49
18
11
-18
-11
1
15
30
45
27
28
31
2
1
-5
13
11
27
45
39
31
12
32
9
-8
5
20
25
50
59
18
13
15
5
3
8
20
35
45
54
40
24
-10
-14
-1
14
22
29
54
39
33
23
-8
-1
6
4
29
41
45
47
24
16
4
-14
12
34
29
39
36
40
28
-2
-11
10
-22
3
30
47
38
50
23
14
-15
-14
-17
16
23
53
57
44
32
9
-5
-3
4
28
33
36
34
37
9
12
0
2
6
18
31
74
49
54
34
20
-8
9
18
19
38
55
46
42
26
27
-13
-11
-9
13
6
34
53
39
15
21
-1
-8
5
34
12
32
44
27
2
-1
-23
-24
-7
-1
7
45
64
69
65
80
120
146
166
180
167
197
168
155
157
131
92
43
23
25
11
19
18
12
10
4
-15
-14
-1
28
23
39
41
19
7
1
-4
-13
13
15
17
52
36
11
12
-9
2
-12
-3
19
29
39
33
23
28
-4
-21
3
22
16
35
57
34
7
15
6
4
-1
-1
11
31
51
42
23
29
-2
0
-11
6
23
47
47
38
26
26
5
-2
4
37
32
49
59
55
23
35
10
10
12
24
26
65
75
56
61
35
20
16
49
57
51
78
71
72
63
77
32
44
55
65
63
86
85
83
60
50
22
28
42
69
59
75
74
52
37
38
14
17
29
33
43
76
53
48
16
10
3
-11
-9
30
14
32
53
46
0
12
7
1
-10
9
31
32
37
25
-8
-9
-16
-13
-1
11
22
37
32
28
3
-8
-25
-25
-5
19
37
48
44
10
0
-4
-13
-11
6
27
30
33
31
20
9
-11
-16
-8
18
17
18
34
43
14
6
-9
12
-18
-2
23
44
43
28
29
18
-5
-17
-8
14
23
35
36
34
26
27
-6
-11
10
3
9
34
44
34
29
12
-4
-3
-9
2
27
27
35
30
20
13
-15
-13
-7
15
22
33
34
64
19
7
-9
1
-3
27
20
36
35
36
28
13
-14
-24
4
23
26
48
42
37
27
10
-6
-8
10
11
27
53
52
40
28
11
-19
-13
4
35
27
28
47
33
16
-3
-22
1
5
18
31
39
31
41
8
-8
-25
-15
-11
14
19
31
30
17
3
-10
-27
-13
12
31
46
88
121
141
149
145
120
128
135
156
153
135
120
82
45
-5
-34
-35
-28
4
5
25
26
14
-4
-22
-16
-22
4
12
15
38
33
14
1
-18
-10
-2
-3
1
49
53
34
29
12
-26
-7
-7
0
26
31
32
30
19
26
-4
-2
-5
19
18
45
37
38
13
13
-19
-11
7
30
32
55
51
29
16
6
-5
9
-6
24
20
37
51
44
37
27
5
7
8
26
44
67
75
43
21
24
7
19
38
54
55
79
94
79
53
45
22
35
54
50
65
84
91
85
69
60
42
44
53
74
76
92
95
80
50
50
41
37
41
64
74
79
72
59
29
38
27
2
24
6
-11
-11
-1
13
35
37
39
34
10
7
-10
-7
2
12
32
47
30
14
10
7
-9
-10
14
10
26
35
31
21
18
-16
-2
-18
-6
20
42
41
41
10
18
-12
-1
-10
8
13
29
41
33
14
10
3
-22
-9
4
22
51
37
22
30
15
-3
-7
-4
11
17
47
42
51
23
16
2
-5
3
9
0
34
42
42
33
17
-27
-6
4
14
29
60
43
34
35
15
1
2
-11
11
20
49
56
33
31
15
-5
-16
1
14
18
48
54
49
20
27
2
-14
20
36
30
44
49
30
32
22
10
10
8
17
33
49
44
43
13
2
6
7
20
20
26
60
54
22
9
22
-10
-17
3
21
17
29
44
21
12
-4
-9
-16
14
14
17
39
22
22
40
17
38
76
114
153
173
182
165
154
137
129
127
100
90
74
58
18
11
8
0
-20
-19
-17
12
2
23
48
42
11
10
-17
-26
-14
6
12
41
34
28
22
18
-16
-7
2
13
31
56
53
39
19
5
-15
-9
-6
-4
7
36
50
42
23
19
-13
-4
4
14
16
49
50
52
52
3
8
1
1
16
28
40
37
29
40
37
7
3
0
21
26
56
57
48
24
23
13
5
2
32
45
75
58
49
47
40
24
29
42
66
64
77
96
63
49
53
46
42
40
75
100
80
78
77
62
50
48
39
59
70
65
82
69
67
51
34
26
17
47
31
49
72
67
52
32
21
8
-9
11
43
50
40
49
41
9
-7
-8
2
4
21
31
37
35
27
3
-9
-6
2
17
14
34
39
42
15
6
-21
-9
-5
4
14
37
36
20
27
17
-10
-8
-11
5
17
39
35
27
18
23
-24
-16
-7
20
32
41
35
51
27
3
-12
-16
-2
9
25
39
48
29
26
27
-11
-2
14
17
8
38
59
38
26
18
-10
-9
-8
10
25
50
33
31
18
10
-5
-20
-15
21
32
52
37
41
22
10
-3
-1
-1
8
33
37
48
43
39
9
9
-8
-4
16
23
49
36
20
16
10
4
7
-5
13
21
56
46
30
25
8
3
-3
8
34
47
47
62
30
22
3
-11
-11
-7
27
45
45
34
28
12
-6
-22
-18
9
15
29
37
27
15
11
-13
-19
-25
-9
2
41
35
40
54
57
57
93
130
149
158
172
176
164
158
139
122
97
74
56
28
35
2
10
11
8
-14
-24
-9
10
10
35
45
36
-2
0
-17
-18
-9
15
32
41
40
32
20
11
-6
-11
2
25
15
38
31
29
27
25
-20
10
2
26
7
33
43
37
18
13
-4
-11
-7
11
20
43
40
39
29
16
0
3
19
18
28
73
34
37
29
22
-14
-10
16
35
33
44
52
61
20
16
-7
11
12
28
40
71
57
66
43
31
13
15
25
44
62
71
71
70
62
40
16
30
44
50
82
86
77
49
45
38
16
33
47
57
67
66
63
47
42
14
16
18
24
37
62
50
40
20
16
7
-5
-15
20
16
38
34
23
21
5
-14
-12
-17
17
1
29
29
35
6
3
-10
-21
-8
13
10
24
33
35
18
0
-13
-21
-5
4
12
50
29
16
9
-5
-21
-18
-15
8
14
29
31
30
39
12
-31
-24
-11
5
24
30
41
8
9
-3
-4
-1
-13
11
0
20
30
22
3
-7
-20
2
-8
7
26
47
27
18
8
7
-9
-19
-2
-2
13
39
32
37
9
0
-13
-25
-9
9
21
29
34
25
1
-1
-20
-15
-15
7
14
28
42
23
1
-8
-12
-9
-3
5
33
27
33
27
-2
-7
-10
-27
0
12
17
36
37
34
-9
-5
-11
-17
-1
24
23
37
18
9
13
-5
-14
-16
5
16
36
52
38
18
21
-5
-23
-8
13
17
40
31
41
13
5
-24
-39
-14
4
7
32
16
22
13
6
-17
-18
-7
-13
-5
33
39
20
-4
-12
-43
-22
-8
11
22
77
117
127
139
150
103
95
108
125
125
135
142
122
88
44
-1
-15
-30
3
1
22
20
22
5
4
-29
-27
2
-7
6
47
20
11
6
-2
-25
-20
-18
-3
9
23
19
30
5
-4
-22
-15
0
2
14
34
23
4
8
-12
-3
-1
-7
7
15
33
29
31
-3
-14
-15
-12
4
14
18
39
26
12
11
4
-12
-11
-6
14
24
29
24
25
19
-3
-15
-4
11
19
41
47
50
19
14
4
9
5
12
25
36
58
56
37
32
21
8
19
32
55
51
68
64
37
45
24
16
36
46
54
69
52
55
42
32
6
16
14
36
51
54
72
59
20
22
-1
-15
9
10
19
44
59
18
-4
4
-11
-20
4
17
3
45
41
-9
-1
14
-32
-34
-11
-7
-2
29
23
18
5
1
-33
-25
-19
-5
5
37
30
22
9
-3
-11
-28
-11
6
4
31
16
17
16
-5
-28
-15
-2
-7
6
34
26
28
17
-6
-21
-19
-3
-2
4
27
21
19
-1
-15
-26
-1
-3
7
19
14
29
24
2
-13
-22
-11
-4
5
22
34
29
13
11
-14
-16
-9
3
-1
20
21
27
15
-1
-14
-23
-14
-9
15
33
22
35
13
8
-13
-19
-20
0
13
19
28
44
12
-11
-12
-10
-12
-5
4
30
33
41
22
4
-16
-19
-19
-8
-1
22
28
27
11
10
-31
-11
-14
12
12
37
27
19
5
-5
-30
-21
-15
1
15
31
24
22
29
15
-28
-10
-22
1
12
33
40
27
-4
11
-28
-23
-3
6
25
30
28
22
12
5
-2
-18
-17
17
19
39
55
41
16
2
-21
-8
-2
4
17
41
47
34
22
-1
-14
-26
3
7
33
30
28
6
4
-13
-14
-16
0
18
11
21
15
29
1
-12
-37
-27
-6
24
51
65
104
107
134
135
117
114
126
129
149
165
168
126
91
60
-2
-20
-26
-12
19
25
20
15
14
-4
-28
-28
-2
-5
28
42
41
6
-8
-12
-24
-14
-11
-1
28
36
27
11
4
-11
-18
-7
7
17
42
28
12
10
10
-17
-24
-18
20
16
30
30
33
13
1
-24
-10
-6
14
18
48
42
28
34
12
-33
-4
0
7
18
31
30
39
20
17
-24
-3
2
10
31
29
49
44
30
21
12
6
34
30
49
65
51
45
38
45
4
12
37
56
60
67
76
78
52
53
38
15
39
48
58
88
79
70
51
45
25
17
28
52
66
65
78
51
42
40
12
4
13
36
32
41
39
41
14
23
-2
-5
-3
11
22
25
46
39
11
-17
-10
-8
2
9
24
48
25
21
12
-15
-15
-19
5
13
35
34
25
12
2
-8
-32
-28
-7
7
33
31
32
19
15
-12
-23
-21
-9
11
28
41
28
-9
4
-8
-23
-17
5
11
40
36
33
39
-3
-21
-18
-18
2
12
36
27
31
9
0
-24
-11
-14
2
11
33
31
32
24
0
-19
-6
-3
-2
10
39
36
23
-7
-6
-16
-23
-1
10
6
41
37
20
5
3
-19
-27
12
15
11
37
35
27
-1
2
-21
1
-1
-10
21
26
39
11
0
-4
-14
-25
-13
17
25
39
27
20
11
-6
-34
-20
0
17
6
33
29
20
0
-17
-20
-17
-12
14
7
40
42
31
3
-27
-30
-21
0
0
21
32
39
7
-3
-10
-14
-8
-6
3
16
29
31
37
5
-19
-26
-19
-5
33
26
29
35
24
3
-6
-29
-18
5
17
37
41
40
16
32
-1
-2
17
-1
11
29
37
38
6
0
-27
-34
-16
-3
13
26
30
26
8
-10
-37
-32
-17
3
14
24
31
11
6
-7
-35
-26
-28
0
1
54
67
83
80
112
105
101
129
137
125
144
170
146
113
98
34
3
-24
-26
-16
9
6
18
-2
-9
-17
-24
-21
8
11
37
50
19
-9
-5
-16
-24
-24
5
-5
7
19
22
17
10
-30
-22
-18
6
3
22
23
8
-14
-6
-7
-17
-11
14
11
31
37
14
5
-5
-22
-21
-9
12
11
36
36
22
13
-10
-28
-22
-3
15
27
43
42
25
0
-12
-10
-8
14
13
21
23
46
22
20
13
-9
-8
28
16
37
60
50
35
38
15
16
17
38
44
58
69
67
56
49
23
31
23
45
65
70
69
71
50
58
19
17
30
46
43
57
75
66
27
23
12
11
22
9
24
44
41
27
16
4
-11
-6
-13
-6
23
31
30
27
6
1
-22
-23
-12
11
-2
21
22
21
-9
-6
-21
-24
-25
-12
9
28
26
2
2
-11
-41
-32
-16
-6
-3
28
18
4
3
1
-31
-11
-11
-10
6
30
31
-3
-17
-9
-24
-30
-15
0
26
30
26
16
17
1
-34
-31
-16
-7
13
36
29
0
-2
-8
-26
-18
2
1
24
32
35
15
-4
4
-25
-23
7
0
24
27
26
16
14
-8
-23
-20
0
1
27
43
18
3
-11
-7
-19
-34
0
6
30
31
26
13
-3
-19
-14
-25
-12
11
35
30
17
15
-1
-38
-28
-6
11
3
25
29
27
24
18
-26
-22
-20
6
-7
27
30
24
14
-9
-21
-26
-17
2
5
31
42
20
-4
-7
-11
-16
-11
12
16
23
20
28
29
12
-16
2
1
27
14
18
26
32
14
2
-28
-40
-11
5
4
39
37
7
-10
-4
-18
-32
-9
-3
11
33
31
6
-6
-4
-37
-42
-26
-10
1
33
24
48
62
70
80
104
130
141
139
135
137
133
124
97
49
21
4
-14
-6
-9
8
-5
-7
-16
-25
-22
-12
0
15
24
5
7
-6
-18
-23
-23
-10
6
30
32
32
-7
-27
-20
-32
-25
-19
-9
21
34
28
5
-7
-16
-15
-29
21
8
37
13
14
11
-2
-24
-7
-12
-1
10
30
31
39
2
-6
-16
-29
-12
-3
11
35
30
31
3
3
-19
-18
2
15
24
33
35
52
19
8
-5
-2
-2
9
20
69
52
38
36
31
17
11
32
41
42
64
66
76
45
31
22
6
26
54
62
79
93
90
43
36
19
22
29
52
45
68
87
55
34
35
-5
1
9
32
45
46
47
39
16
-1
-13
-40
-26
24
12
24
22
13
1
-17
-21
-28
-9
11
19
24
27
18
-7
-30
-25
-19
-18
-5
14
14
14
15
3
-7
-39
-41
-15
7
8
29
6
-8
-16
-28
-25
-19
-5
-10
8
24
17
-2
-2
-26
-32
-13
-17
1
11
19
35
29
0
-15
-21
-24
-3
-2
16
30
26
-2
-13
-26
-24
-26
-10
6
24
23
9
-3
2
-25
-20
-3
-3
-11
23
20
19
7
-7
-36
-27
-14
-10
16
42
30
30
23
-12
-31
-13
-30
-18
-4
11
24
25
-2
-4
-35
-31
-18
-2
5
22
12
23
0
-18
-31
-34
-23
-1
15
14
33
19
-7
-10
-31
-25
-17
4
1
10
19
8
0
4
-31
-37
-27
8
9
26
23
1
-6
-5
-30
-40
-27
3
5
21
27
6
-2
-15
-28
-18
-18
-5
18
22
17
1
1
-17
-19
-27
-6
-10
17
36
24
19
4
-4
-27
-9
0
13
31
35
29
3
-3
-11
-29
-24
-9
8
26
29
10
-6
-7
-21
-26
-27
-21
2
18
23
16
0
-23
-12
-34
-46
9
-16
7
21
-2
14
22
19
31
82
131
145
165
149
148
124
130
100
100
91
93
68
38
11
0
-7
-18
-13
-25
-30
-10
3
13
25
16
-9
-13
-44
-24
-14
-6
-3
31
17
1
-7
4
-34
-25
-21
-6
8
20
25
28
-2
-9
-30
-11
-15
1
4
39
42
5
10
9
-38
-30
-15
0
13
16
22
24
20
-5
-25
-17
-7
-4
18
36
14
19
8
-10
-31
-11
-6
9
18
27
24
32
25
15
-3
-8
-7
11
34
43
38
30
25
7
16
12
12
26
49
61
50
46
47
15
1
16
24
46
71
69
72
71
29
28
26
25
43
64
55
62
65
45
29
35
17
8
25
28
48
57
40
20
2
-1
1
-7
-9
8
35
45
17
2
11
-24
-7
-19
-5
7
30
38
19
-6
3
-30
-15
-21
-1
-6
40
31
10
5
-6
-16
-25
-41
1
-6
25
25
12
6
-8
-30
-20
-16
-3
6
17
22
0
-10
-10
-25
-5
-11
-3
13
37
36
12
-5
-7
-19
-25
-7
9
17
16
25
18
-1
20
-14
-27
-26
-15
6
22
28
9
6
-25
-22
-20
1
2
9
24
31
30
6
-2
-23
-29
-2
10
21
22
21
17
-5
-3
-15
-13
6
-4
5
24
23
23
-6
-8
-24
-20
-12
-2
27
35
18
22
-1
-17
-20
-25
-10
-3
15
22
38
14
-10
-11
-14
-23
-5
7
18
22
43
20
-8
-19
-22
-13
9
-3
22
33
25
15
5
-17
-27
-11
12
27
20
15
9
13
-1
-29
-19
-22
15
5
32
20
8
8
9
-22
-27
-8
7
3
27
30
26
12
0
-29
-14
-13
5
6
37
40
48
8
-1
-28
-18
3
7
22
47
41
35
34
28
-7
-6
11
-3
-10
30
48
19
1
-11
-24
-15
0
15
10
33
28
18
2
3
-26
-15
3
2
12
42
23
-3
-12
-14
-25
-3
34
85
108
168
163
164
132
128
117
114
125
136
142
127
103
41
14
-30
-39
-28
-17
12
34
30
18
20
15
-7
-21
-13
-10
9
21
35
21
14
5
-22
-25
-14
1
12
42
34
25
14
15
-19
-13
-7
3
20
30
35
27
11
11
-10
-26
-13
18
24
50
32
21
6
-1
-8
-16
8
1
14
44
47
17
19
12
-23
-15
-1
24
28
48
46
44
21
8
10
-9
-1
17
35
58
53
44
43
34
1
8
14
21
52
48
62
65
41
40
40
26
30
69
60
75
86
64
41
53
30
27
46
51
60
80
84
70
53
41
34
23
35
49
40
67
63
48
43
23
22
18
-1
16
34
60
45
53
10
6
-5
-16
-14
12
43
45
37
17
-16
-19
-19
-9
0
17
25
19
28
17
2
-2
-13
-18
-7
16
27
37
37
13
3
-26
-15
-10
-13
6
31
43
37
26
-2
-1
-22
-23
4
11
47
45
20
9
0
-25
-16
-15
-9
7
36
47
32
4
3
-16
-19
-10
-8
18
38
56
28
18
2
-14
-18
-5
5
12
34
33
30
20
7
-1
-24
-14
8
20
26
39
30
11
-6
-11
-3
-2
13
22
43
38
16
-1
8
-15
-17
3
13
18
15
41
30
5
16
-22
-17
-5
20
23
24
37
16
12
5
-25
-21
-3
11
14
29
30
33
12
10
-14
-24
-8
9
13
39
35
28
8
5
-13
-7
4
5
24
32
38
29
1
4
-17
-17
-1
16
29
40
51
30
11
-1
-4
1
21
7
24
52
55
34
-5
-12
-15
-18
-9
10
27
30
22
15
10
-7
-16
-7
-6
8
37
30
21
14
3
-24
-36
-27
1
10
54
53
66
70
102
109
105
125
134
137
153
153
136
110
106
45
-2
-18
-16
9
-4
4
7
8
-2
-22
-19
-14
-2
28
28
15
32
3
9
-6
-16
-19
8
23
32
36
8
13
11
-29
-26
-10
1
7
40
39
35
40
2
-31
-16
-4
13
17
39
36
34
15
1
-7
-12
-6
8
34
40
41
25
18
18
-2
-7
18
3
23
48
51
28
27
6
-17
-6
-5
26
41
54
57
37
23
15
-2
9
30
50
50
56
69
53
35
25
29
23
42
60
54
80
79
68
68
52
50
27
60
65
80
98
80
78
53
47
40
41
43
62
82
73
68
58
44
21
17
15
35
37
60
49
36
33
22
-18
-9
-7
-1
7
46
38
23
21
10
-10
-20
-1
0
27
26
32
37
2
12
-26
-19
-9
-2
1
35
29
41
26
-7
-26
-13
-4
4
23
36
27
14
3
0
-20
-35
-9
3
0
38
28
34
4
-15
-24
-15
-6
19
17
34
24
22
24
4
-22
-5
-6
3
11
42
34
28
32
6
-19
-10
8
15
21
32
43
34
23
8
-15
-20
5
0
4
30
33
30
9
6
-23
-6
4
7
26
37
31
26
6
3
-13
-10
5
11
28
34
40
28
2
-5
-8
-22
-4
24
25
40
34
8
13
0
-15
-1
2
1
25
43
22
-1
-1
-14
0
-5
-1
11
14
37
41
27
12
-10
-15
-11
2
13
30
37
24
10
-3
-12
-6
-16
0
9
29
36
29
13
-1
-18
-11
2
12
19
40
29
18
5
1
-17
-9
-6
12
19
38
49
42
7
11
-10
-24
-2
21
19
45
54
52
11
9
-11
-9
-5
14
19
30
46
13
1
6
-29
-17
-9
10
21
41
18
17
8
3
-21
-15
-5
8
4
17
24
14
18
26
11
40
70
136
153
163
168
154
126
123
103
112
120
101
86
56
36
6
-19
-8
-32
-31
-1
5
10
43
34
15
14
-6
-17
-20
-8
1
27
29
27
13
4
-9
-25
-14
-1
11
29
27
5
9
8
-2
-13
-9
3
27
42
30
26
24
-1
-14
-19
-1
7
16
29
45
34
29
17
-12
-10
-2
8
23
29
38
42
26
17
-4
-13
-8
4
27
52
40
32
28
16
-8
-10
7
18
33
55
66
41
41
39
3
8
9
41
52
69
62
50
54
40
15
31
55
46
62
84
84
77
56
40
38
36
28
54
67
83
87
63
41
54
24
26
30
34
53
67
50
37
34
28
6
18
11
21
27
56
57
32
-5
4
10
-14
-17
10
13
57
32
28
4
-18
-22
-12
16
17
14
48
34
10
-3
-11
-19
-15
-4
0
29
26
24
34
12
-12
-24
-21
-4
-2
25
40
38
29
-5
-12
-3
-12
5
13
21
24
31
23
2
-26
-33
-10
21
15
30
38
25
4
6
2
-6
-12
-10
14
17
25
23
13
24
-6
0
-7
5
11
25
52
27
28
4
-23
-15
10
28
2
26
20
15
13
9
-11
-3
6
-2
12
40
28
29
31
9
-30
-16
-5
10
6
40
35
19
14
4
-22
-25
-3
12
18
48
35
30
2
6
-21
-9
-2
1
23
32
30
22
4
9
-29
-16
-13
7
20
26
49
25
10
1
-16
-33
10
22
15
40
21
36
18
-2
-14
-12
1
20
22
44
20
15
1
-17
-24
-12
2
10
33
48
44
29
14
3
-2
-4
8
16
28
53
42
20
15
0
-10
8
19
22
30
25
28
9
-13
0
-7
-17
2
13
20
31
28
14
24
-18
-22
-17
-5
-15
8
28
20
22
19
8
16
51
99
134
162
172
146
136
131
121
104
104
121
91
52
27
21
-13
-17
-22
-23
-22
-6
9
44
24
19
1
0
-15
-11
-10
3
10
38
44
35
1
-9
-28
-5
-6
-5
11
33
33
34
11
2
-2
-18
-3
5
6
38
34
48
20
2
-14
-4
-3
3
24
49
33
30
20
12
-14
-21
-18
6
27
45
40
33
24
8
1
6
14
18
42
48
46
34
26
6
-3
-1
5
12
52
70
52
73
29
13
6
19
19
43
63
70
85
63
37
27
25
31
49
59
82
86
76
79
67
42
41
39
51
64
85
80
84
57
68
40
27
27
39
41
53
70
56
42
21
21
5
14
15
24
43
42
30
19
11
-12
-24
-11
14
25
36
23
9
15
27
-12
-24
-11
2
16
12
22
22
2
-7
-10
-7
-14
13
14
31
31
22
14
4
-26
-15
-5
12
12
28
23
24
4
11
-23
2
-11
0
21
38
30
29
11
11
-23
-22
-13
24
10
42
42
28
15
-3
-11
-19
-1
6
26
29
31
23
21
24
2
5
0
25
-2
23
33
30
23
7
-16
-18
6
21
19
44
41
30
18
1
-15
-8
0
9
19
27
42
15
21
9
-13
-15
5
10
4
56
37
21
9
-2
-29
-13
-3
18
27
33
25
21
22
-2
-12
-3
2
8
25
37
30
15
16
-15
-14
-16
6
19
20
41
27
1
7
-9
-16
1
6
17
34
45
36
24
2
-22
-9
-5
0
4
34
36
37
27
16
-22
-15
-7
21
25
32
50
43
18
11
-6
-9
-5
18
21
42
45
32
21
5
-20
-7
-4
15
18
32
38
24
1
15
-22
-24
-14
17
9
29
31
29
21
4
-30
-20
-17
-12
13
45
62
83
94
101
103
132
126
133
141
158
156
150
141
108
58
38
22
17
-1
20
22
17
15
-11
-26
-16
-1
3
25
44
33
12
16
1
-17
-12
-19
13
25
37
30
10
17
-6
-22
-13
-8
4
18
33
30
36
12
-1
-25
-18
5
20
30
39
36
2
-1
-11
0
5
4
13
35
38
42
20
9
-8
-5
5
8
13
27
36
28
21
18
-15
-4
-4
15
30
42
46
38
16
8
-1
7
2
22
52
53
56
57
51
27
6
15
18
30
63
71
71
75
60
55
35
36
27
44
59
76
76
59
60
61
31
23
38
50
51
72
82
64
49
38
3
11
22
34
41
57
42
25
43
21
-9
-13
7
32
22
47
35
36
28
-4
-23
-19
-14
15
11
23
34
9
1
-4
-3
-21
-8
9
24
38
38
19
9
-15
-18
-21
-11
6
18
37
37
20
6
-2
-18
-7
-8
18
17
25
43
20
5
0
-20
-26
-14
0
43
15
23
20
-1
-3
-9
-6
-3
5
27
38
25
17
-1
-2
-4
-21
-8
13
50
18
16
-1
15
-5
-8
-2
4
1
36
38
29
16
10
-23
-10
-5
28
19
26
18
20
8
11
-22
-23
-16
1
12
31
33
29
25
-8
-19
-15
-11
0
7
37
37
22
5
8
-10
-18
-8
-1
11
49
24
22
16
8
-19
-8
-10
-1
17
33
32
26
6
-3
-21
-19
0
-10
12
41
25
30
35
-17
-18
-8
-9
6
14
39
28
24
9
7
-26
-18
1
4
18
34
44
20
-1
5
-5
-12
8
14
37
48
54
40
6
-5
4
-10
12
27
30
34
34
22
15
3
-12
-13
-8
12
29
21
31
16
9
-13
-16
-29
-1
9
25
32
17
3
-4
-15
-21
-14
1
14
52
91
111
113
143
147
129
119
131
130
155
161
144
125
85
26
7
-21
-22
-1
-3
31
33
13
4
-13
-15
-16
6
20
26
22
27
-4
-7
-18
-37
-11
6
15
32
30
23
7
8
-13
-10
-6
-6
5
49
48
20
9
13
-15
-25
-21
10
16
43
53
27
8
21
-15
-18
-6
-4
13
34
52
41
16
-12
-24
9
5
15
19
55
51
23
4
5
-11
-18
-2
17
40
46
51
51
29
10
0
-2
14
26
40
57
72
61
51
28
21
28
24
38
57
86
72
60
58
38
27
34
51
50
69
88
81
60
52
34
24
27
40
44
70
82
73
39
26
17
15
12
36
39
51
46
50
37
11
-9
-12
-8
-11
16
41
46
23
12
-2
-12
-1
-5
1
15
30
29
25
13
-1
-18
-16
-32
-5
8
31
24
46
0
-7
-26
-20
-8
1
5
29
22
21
6
10
-14
-13
-1
-24
13
31
39
8
18
0
-6
-24
-24
0
2
27
35
16
8
17
-24
-27
-8
8
15
31
26
36
13
-6
-25
-21
-12
24
3
27
21
11
7
8
-17
-7
-3
-5
21
39
31
17
31
13
-29
-23
3
5
10
23
36
19
5
-6
-15
-3
-5
2
33
28
10
5
13
-14
-24
-10
-2
6
20
13
33
21
5
7
-11
-6
-11
9
13
35
13
4
10
-4
-12
-7
-16
-2
18
39
24
9
11
-9
-22
-13
5
22
28
20
19
24
13
-29
-10
-19
-7
6
30
20
21
19
1
-16
-6
-24
0
19
39
39
33
17
15
-11
-4
-2
-1
19
28
29
38
23
-13
-10
-29
-21
-7
-2
24
26
32
0
3
-31
-17
-26
5
9
18
22
30
4
-15
-46
-49
-34
-6
17
56
78
100
97
115
96
108
119
112
121
140
145
126
92
55
-18
-30
-20
-28
-14
5
13
-4
-5
-12
-32
-27
-11
-6
7
28
30
13
-6
-24
-23
-47
-9
19
8
35
35
14
-2
-25
-28
-23
-11
-1
20
24
19
27
-12
-9
-20
-23
-11
0
7
34
25
14
-6
9
-4
-20
-17
-5
23
17
33
5
2
-18
-16
-23
-1
23
35
37
36
14
10
4
-22
-16
1
21
36
33
26
8
15
-2
-6
5
27
39
45
59
47
37
36
5
17
40
45
36
64
73
55
60
43
33
27
33
68
63
81
87
78
76
54
7
33
24
40
34
73
77
62
24
19
2
1
11
30
36
41
28
29
17
9
-4
-20
-29
-4
9
22
22
8
26
-9
-16
-19
-26
-7
-7
30
24
15
7
0
-23
-26
-19
1
-1
6
18
2
-6
-24
-45
-36
-17
-9
16
23
8
14
-8
-22
-24
-35
-17
-19
0
31
15
24
6
-27
-40
-32
-10
6
7
32
9
4
-5
-17
-31
-23
-10
-1
15
35
25
-6
-16
-10
-32
-29
1
20
8
25
15
7
13
-22
-37
-19
-16
8
8
16
24
19
-11
-27
-26
-12
-16
-3
37
34
17
-2
-16
-29
-34
-24
-13
2
13
44
27
6
0
-29
-22
-22
-3
-7
21
32
7
-1
-18
-23
-27
-20
-2
6
33
34
24
20
-3
-14
-16
-11
18
7
34
34
14
-12
-18
-22
-8
-5
-9
6
31
16
7
-9
-17
-35
-33
-11
-16
-14
17
17
9
-8
-22
-11
-20
-31
-10
-12
9
-3
-1
-16
-18
-33
-24
1
28
51
95
129
148
144
124
95
85
90
119
126
112
84
53
1
-43
-70
-64
-47
-33
-13
18
5
-2
-9
-29
-37
-27
-12
-11
14
18
10
3
-8
-20
-38
-36
-14
-14
14
17
16
-6
-16
-30
-31
-20
-2
-6
8
23
6
1
-10
-16
-35
-26
-8
-9
19
15
22
-1
7
-17
-22
-24
-13
-12
26
27
24
28
-2
-25
-24
-16
-2
2
37
33
15
13
10
-25
-21
-10
6
7
35
41
37
23
10
-25
-17
4
6
19
50
58
45
51
33
12
16
32
44
48
56
72
73
64
53
27
23
33
47
54
87
70
64
65
38
-2
7
21
20
42
51
61
33
11
32
-10
-8
-12
-3
13
40
27
17
6
-20
-31
-19
-12
3
11
19
18
27
0
-18
-38
-34
-12
-5
-14
25
28
-6
-23
-33
-40
-40
-28
-8
-6
7
14
3
-29
-37
-42
-39
-13
-17
16
14
6
-6
-20
-31
-43
-49
-19
-15
9
3
0
-8
-10
-24
-36
-20
-2
-6
3
13
15
7
-12
-39
-54
-35
-23
-8
21
20
22
-4
-4
-39
-40
-14
-6
0
21
16
4
-11
-17
-19
-43
-24
-5
1
10
35
20
-16
-17
-41
-28
-20
-11
-5
9
23
4
-2
-12
-36
-41
-42
-17
-16
21
27
2
-11
-16
-36
-50
-39
-14
-8
9
9
4
1
-3
-46
-33
-33
-13
-3
28
20
9
-22
-2
-22
-33
-26
-13
-6
9
22
-10
4
-18
-34
-26
-23
-11
20
19
36
7
-4
-9
-35
-28
-17
-10
10
17
18
-5
-29
-30
-22
-30
-28
-15
7
15
12
11
-6
-24
-40
-48
-15
-18
3
5
-2
-10
-33
-44
-57
-37
-17
-4
40
84
123
132
138
125
113
101
108
128
140
138
119
86
18
-30
-45
-52
-24
-10
1
-4
-4
-7
-15
-42
-41
-37
-14
-16
12
6
2
-20
-14
-42
-29
-15
-15
-17
1
6
-1
-10
-7
-40
-20
-26
-10
-4
11
7
6
-7
-22
-39
-33
-43
-11
-7
10
11
12
-3
-6
-30
-31
-34
-3
-11
29
2
3
-10
-15
-38
-32
-17
-2
4
22
22
6
6
-4
-34
-34
-8
-1
2
31
46
7
2
-6
-20
-15
-19
17
27
35
38
29
15
12
8
-3
17
30
42
67
47
41
26
32
18
35
23
22
48
49
54
53
43
20
8
6
25
13
41
49
47
31
5
0
-4
-10
-13
22
28
27
18
17
-4
-16
-19
-37
-30
-4
14
15
13
-22
-13
-14
-33
-33
-24
0
21
4
12
-11
-12
-17
-43
-29
-16
-22
16
13
16
-4
-15
-48
-39
-18
-25
-2
1
15
11
-3
-15
-63
-17
-29
-7
-8
2
8
9
-13
-20
-36
-32
-42
-24
-11
28
19
-3
6
-15
-35
-66
-26
-2
-9
14
16
11
-15
-24
-45
-20
-9
-6
12
9
14
7
-3
-20
-37
-36
-19
-14
-11
28
12
5
-16
-10
-45
-33
-23
-17
-15
3
13
2
-7
-15
-34
-39
-17
-6
6
14
14
8
-11
-43
-28
-23
-23
-21
4
25
12
-5
-10
-29
-35
-19
-27
-11
8
7
22
9
-11
-18
-33
-39
-22
-23
-4
28
23
-4
-1
-20
-33
-22
-16
-2
3
6
0
-14
-16
-27
-21
-28
-21
-5
20
35
21
-9
-5
-14
-28
-25
17
-4
14
19
9
10
3
-29
-27
-30
-15
-3
-3
11
7
-7
-22
-25
-31
-46
-19
-13
11
26
25
-23
-11
-25
-39
-44
-25
-13
2
15
3
13
14
21
54
89
126
150
158
145
132
106
108
87
80
70
68
47
29
-8
-11
-7
-10
-36
-43
-18
-10
0
6
20
16
2
-1
-44
-53
-19
-9
-15
19
21
-4
4
-17
-48
-36
-28
-7
-10
14
32
18
-12
-24
-46
-35
-24
-11
4
16
20
13
0
-11
-35
-35
-26
4
34
17
13
13
-1
-20
-23
-20
-9
-6
15
21
46
8
-2
-14
-45
-24
-11
-7
-3
45
41
15
7
-15
-18
-24
-2
14
23
36
43
22
21
1
1
3
8
34
43
53
63
39
35
6
15
19
27
52
71
61
63
49
29
17
26
23
33
45
48
59
54
31
35
8
12
11
15
36
44
34
33
9
6
-12
-9
-9
11
12
31
31
14
2
5
-37
-25
-10
-16
-9
22
13
19
-6
-10
-24
-19
-12
-14
-6
31
29
9
1
2
-25
-26
-21
-16
-18
30
24
8
-11
-24
-35
-19
-11
-7
2
16
10
9
-1
-20
-28
-22
-11
-8
-1
19
19
9
-9
-18
-25
-18
-6
-9
-3
18
30
12
-10
-10
-30
-33
-9
1
13
21
27
10
-11
7
-40
-37
-10
-7
18
17
31
12
-2
-32
-20
2
-21
-5
12
36
10
4
3
-10
-33
-29
-1
2
17
20
9
-2
-9
-28
-19
-30
-11
-1
7
18
30
9
8
-22
-23
-22
-11
8
38
27
10
4
-10
-28
-27
-17
-9
-5
13
25
21
17
-13
-44
-29
-13
-3
10
12
14
22
4
-14
-35
-21
-20
-7
1
23
36
23
5
-2
-28
-26
-26
10
10
35
37
28
-9
-2
-16
-18
-18
-1
-5
22
22
11
3
0
-39
-4
-12
18
-8
35
29
18
9
6
-23
-27
-14
9
13
33
26
11
11
2
-33
-27
-14
5
17
10
-3
16
-4
-10
-36
-29
-24
-3
-16
8
17
20
-27
-21
-16
-28
-5
34
38
91
120
129
114
111
113
99
110
122
139
145
120
70
25
-29
-44
-40
-33
-13
7
18
0
-11
-11
-16
-22
-29
-20
-13
6
18
3
13
-12
-41
-36
-10
17
-19
16
8
5
-5
-16
-35
-37
-25
-11
-5
20
30
27
0
-12
-33
-26
-31
-1
-6
16
21
18
0
-6
-14
-15
-17
-17
-8
9
23
33
4
-13
-32
-18
-5
19
-11
29
24
7
19
-3
-33
-6
-15
16
7
28
28
22
14
26
2
-10
3
27
29
33
55
43
38
18
-7
10
27
33
47
48
47
54
45
35
16
25
50
43
60
83
72
38
38
39
17
21
23
32
39
60
52
44
15
23
-10
2
15
12
26
25
21
11
21
-4
-30
-19
-11
-20
5
17
17
17
1
-20
-36
-33
-15
-13
14
18
22
-5
-8
-23
-42
-33
5
-11
6
13
12
-9
-5
-32
-54
-29
-4
19
14
10
10
-8
-11
-39
-36
-28
-17
-20
-6
6
10
9
-2
-35
-30
-28
-18
-13
18
10
16
6
-19
-45
-20
-13
-17
-8
25
28
18
-17
-12
-32
-29
-32
-5
5
14
25
3
1
-9
-31
-31
-28
1
-9
23
12
4
-11
-13
-28
-31
-25
-12
6
28
14
21
-7
-16
-22
-29
-19
-17
3
19
20
-1
2
-18
-45
-51
-11
-8
-2
17
15
10
0
-4
-31
-42
-24
-4
3
6
19
28
0
-24
-33
-42
-31
3
6
20
8
16
-5
-27
-15
-32
-18
7
17
31
18
19
2
-22
-32
-25
4
7
14
16
13
-3
-5
-28
-17
-33
-22
-1
22
13
7
-5
-14
-34
-28
-18
-13
-19
5
26
21
-19
-20
-28
-29
-35
-34
-31
-4
1
15
-1
13
11
44
84
122
126
140
130
129
121
100
85
76
56
40
0
-1
-7
-9
-24
-20
-39
-43
-34
-7
-15
8
7
12
-8
-34
-44
-32
-29
3
8
10
21
4
-22
-18
-31
-40
-27
-18
1
22
14
1
18
-11
-45
-38
-24
-8
6
26
21
13
-4
-22
-27
-23
-15
-1
3
15
29
19
-7
-2
-25
-23
-21
-21
16
31
16
24
-5
-8
-37
-34
-16
1
16
40
21
22
23
-6
-13
-16
7
11
14
40
46
43
32
13
0
2
7
31
43
60
65
46
39
31
17
26
33
59
54
75
77
55
37
28
16
31
43
32
62
70
66
53
29
0
1
37
26
20
38
40
29
20
6
-7
-21
-20
-5
12
49
14
5
4
3
-36
-32
-12
-11
-7
23
19
-1
-13
-1
-32
-37
-31
-22
-13
17
23
26
-1
4
-50
-34
-27
6
-16
21
9
-3
-10
-18
-31
-41
-25
-12
-23
13
11
-13
-3
-11
-48
-36
-25
7
-9
15
10
9
-14
-20
-29
-28
-24
-2
17
5
28
9
0
-13
-32
-23
-13
-17
-5
12
19
29
-2
-23
-38
-26
-14
-20
-6
10
23
10
-5
-25
-26
-15
-9
-6
9
15
16
-4
6
-6
-26
-17
-20
-3
3
26
18
0
-9
-22
-15
-30
-21
-9
-4
5
14
-6
-12
-27
-14
-25
-20
-3
20
18
23
-12
-20
-23
-21
-18
-24
-18
14
29
5
-3
22
-26
-26
-40
-23
4
16
22
6
12
-5
-51
-30
-38
-10
2
21
25
9
8
-1
-37
-26
-19
-13
-6
12
9
17
11
-13
-42
-29
-27
-32
12
36
20
25
14
-4
-24
-29
-11
22
8
27
21
11
8
4
-14
-34
-38
-7
15
25
28
3
-12
-9
-34
-26
-22
-16
2
11
16
-3
-12
-30
-20
-33
-29
-25
-2
20
26
14
5
17
15
50
98
123
142
155
158
148
123
109
87
96
106
84
57
34
9
-6
-11
-33
-27
-42
-29
2
16
24
12
-3
-9
-10
-44
-38
-21
-16
1
18
31
-1
-12
-30
-28
-35
-16
4
18
24
11
-6
-13
-37
-41
-32
-9
-11
13
32
35
9
-2
-16
-30
-33
-28
-5
42
13
31
2
-11
-23
-32
-22
-3
10
23
18
21
-5
1
-22
-29
-22
-8
13
24
38
27
1
1
-21
-14
-7
3
8
44
39
36
16
0
17
1
-11
10
36
44
63
41
23
49
24
6
18
28
41
69
72
54
47
35
10
13
32
51
46
81
74
45
38
37
3
7
11
30
39
46
56
40
10
-6
-20
-20
-7
8
19
33
30
15
12
-3
-34
-20
-15
-2
6
31
18
9
-4
-9
-27
-29
-8
1
26
-2
7
16
-11
-28
-20
-24
-11
-17
1
17
12
5
7
-9
-29
-11
-19
-8
-7
16
16
4
-27
-26
-32
-25
-13
-20
17
30
30
9
-11
-19
-35
-48
-10
4
12
21
19
-12
-1
-27
-27
-11
-16
-5
28
18
6
3
9
-28
-29
-28
-15
-2
32
21
9
-7
1
-46
-36
-3
13
-1
25
28
3
-1
-4
-43
-28
-27
-12
3
23
35
15
-9
-7
-45
-33
-4
-16
-16
37
20
7
3
-9
-40
-26
-14
4
9
26
19
-1
-3
-18
-29
-22
-16
-3
18
35
34
9
3
-16
-17
-27
-15
1
5
29
23
23
3
-16
-29
-10
-9
-9
8
15
19
18
2
-18
-31
-23
-22
2
6
22
25
18
12
5
-23
-28
-6
2
14
23
26
6
-6
-5
-5
-22
-12
-9
8
26
34
19
6
-13
-19
-17
3
4
20
29
33
23
14
11
-21
-24
0
25
21
26
41
22
2
-17
-31
-14
0
4
24
20
22
-10
-4
-21
-30
-10
1
-2
16
24
26
-4
-5
-32
-31
-32
-13
24
61
67
78
104
124
106
117
121
131
134
153
138
157
123
97
44
14
-7
-15
-4
17
31
13
-4
-1
-17
-13
-24
-9
8
22
23
25
-1
-16
-21
-23
-1
9
-15
24
25
23
-1
-19
-24
-23
-30
-3
18
8
16
28
3
-9
-22
-34
-7
-1
26
17
29
10
6
-12
-28
-16
-3
6
2
43
39
-5
0
4
-17
-6
-14
4
19
30
29
17
11
-10
-23
-18
9
18
22
26
38
20
-8
11
-2
-14
15
11
27
46
42
27
26
10
9
17
31
40
67
66
72
48
28
17
21
48
54
45
76
70
66
46
39
27
28
40
48
41
77
70
57
31
26
12
5
8
13
21
69
41
26
10
8
-18
-22
-8
-4
2
18
34
25
6
-8
-24
-21
-34
-12
-12
12
18
10
11
7
-16
-22
-30
1
6
32
25
-4
-16
-22
-29
-32
-18
-18
3
15
19
7
12
1
-34
-41
-35
-13
-9
17
15
15
9
-13
-30
-21
-13
-12
-8
14
13
-1
-16
-24
-37
-21
-18
-6
14
24
11
42
-11
-20
-37
-36
-26
-12
6
21
10
6
-4
-9
-36
-35
-19
-16
12
27
10
4
1
-15
-24
-29
-23
-15
-1
28
42
2
-1
-28
-18
-29
5
34
9
24
21
-12
-8
-15
-21
-23
-10
1
9
33
23
4
-2
-10
-36
-20
-17
-2
13
13
28
4
-8
-16
-15
-11
0
2
25
11
4
7
-4
-6
-31
-12
-5
-6
16
4
29
6
-10
-41
-11
-17
3
7
24
17
25
-9
-4
-20
-31
-16
-13
-1
30
22
23
28
25
-31
-20
-1
1
24
56
40
-7
1
3
-8
-9
-8
3
13
19
14
18
20
-5
-21
-30
-24
20
11
24
25
10
-7
-15
-33
-42
-20
-1
16
26
22
-1
-9
-4
-31
-33
7
23
19
67
100
108
122
114
88
89
87
125
140
121
126
81
29
17
-48
-48
-33
-31
-4
28
16
10
-3
-23
-37
-22
-20
-16
1
6
25
4
2
-18
-16
-27
-9
12
18
31
5
2
-10
-17
-18
0
10
6
9
15
18
10
-7
-11
-17
-17
-4
13
24
26
32
4
-4
-19
-19
-10
21
-1
41
36
17
7
4
-3
-15
-14
0
14
31
59
29
22
7
-5
-11
-11
10
16
32
52
33
15
24
-13
-2
10
9
42
77
63
49
45
44
5
21
33
66
43
75
80
61
62
60
33
33
44
49
76
87
74
70
55
45
32
32
44
48
58
70
90
52
33
14
20
-1
10
37
36
56
45
51
19
10
-18
-19
-11
13
14
33
36
21
15
-19
-21
-32
-12
-3
9
28
34
22
1
-16
-26
-16
-6
6
13
23
20
8
-17
-23
-27
-30
-10
16
20
31
21
-8
-6
-20
-20
-38
-12
-14
26
29
14
1
-4
-16
-30
-23
-1
1
21
21
19
8
13
-31
-20
-29
3
8
30
16
16
24
0
-23
-12
-12
-14
-7
39
23
25
5
4
-26
-25
2
