17
3
-19
-22
-47
-30
-8
26
25
26
26
14
-9
-25
-25
-17
-5
18
25
24
19
7
-17
-26
-35
-21
-3
15
20
25
18
5
-21
-28
-31
-21
-7
13
28
32
15
8
-14
-30
-22
-35
-21
19
38
22
3
-8
-22
-33
-35
-22
-14
9
18
28
24
-4
-24
-28
-34
-22
2
18
22
32
17
-8
-35
-42
-18
-16
-2
15
15
32
23
-5
-37
-37
-24
-16
5
9
16
31
6
-3
-25
-40
-35
-27
18
24
19
16
0
-8
-27
-28
-24
-18
10
23
17
24
17
-7
-23
-26
-35
-21
0
18
33
17
12
3
-3
-21
-18
-17
16
29
35
37
6
-18
-24
-34
-38
-11
13
22
27
13
8
-7
-30
-43
-28
-23
9
16
22
25
8
-16
-22
-30
-35
-16
19
27
26
14
10
-6
-29
-33
-25
-13
9
18
37
33
7
-13
-20
-29
-19
6
46
66
84
93
78
74
85
95
91
77
79
65
62
18
-26
-62
-69
-82
-76
-74
-37
-46
-29
-27
-43
-58
-67
-53
-31
-16
11
16
28
14
6
-24
-21
-23
-12
2
23
25
27
12
0
-13
-21
-15
-6
12
33
45
39
28
3
-16
-22
-15
-8
13
30
43
39
26
8
-18
-21
-13
-16
23
28
37
42
31
6
-17
-4
-15
1
18
37
44
44
37
18
-8
-2
0
9
32
48
55
47
47
7
4
4
6
25
46
59
64
59
38
32
30
12
26
21
56
78
75
77
59
33
31
30
29
41
64
72
82
66
66
33
11
11
20
28
48
48
58
63
19
-3
-10
-19
-8
-1
34
39
46
25
8
-14
-29
-38
-15
4
24
16
26
10
10
-25
-29
-30
-11
-3
11
22
30
16
-2
-25
-30
-30
-19
-6
17
21
29
16
0
-22
-21
-31
-29
-1
20
25
33
16
-3
-21
-31
-39
-16
5
22
31
25
12
-10
-30
-38
-33
-10
4
25
25
23
5
3
-25
-31
-38
-21
19
22
17
38
10
-4
-24
-26
-33
-13
11
37
32
26
7
-14
-28
-19
-27
-14
11
26
27
31
16
-14
-18
-26
-23
-20
18
26
20
38
17
-3
-43
-26
-20
-8
7
25
28
25
10
-15
-28
-47
-33
-10
10
22
37
39
-5
-26
-26
-25
-22
-11
28
37
38
11
-4
-10
-11
-13
-39
-11
2
15
25
29
-1
-21
-21
-25
-25
-4
19
30
35
14
-1
-17
-30
-23
-13
-2
14
30
30
16
0
-27
-32
-32
-23
3
23
30
22
10
13
-23
-25
-29
-16
11
23
38
34
12
7
-9
-8
-15
-5
3
36
34
35
9
-9
-36
-22
-47
-17
-8
28
27
37
27
-3
-25
-38
-31
-17
9
17
40
20
12
-9
-22
-28
-25
-13
10
23
32
24
13
-11
-25
-35
-21
-21
-1
29
33
17
21
1
-3
13
13
35
82
101
134
153
134
103
67
27
16
9
9
15
-5
-37
-51
-67
-99
-85
-82
-65
-33
-21
-5
9
-11
-30
-40
-30
-22
-6
19
17
33
32
14
-16
-21
-16
-10
-17
11
31
41
28
14
-11
-19
-21
-21
0
35
39
38
25
20
-4
-24
-17
-14
-2
33
34
44
30
22
-6
-29
-9
-7
6
27
40
46
32
24
-10
-11
-14
-2
12
36
51
53
51
16
0
-12
-8
17
43
59
46
58
61
23
10
4
16
16
43
66
76
69
55
38
21
23
21
40
61
60
69
77
72
40
27
23
25
33
59
82
87
64
45
31
-6
1
18
9
29
42
48
56
32
-6
-20
-9
-10
-6
13
31
38
20
2
-17
-12
-26
-8
-4
17
22
37
27
17
-18
-18
-34
-25
-10
-1
23
29
21
11
-11
-23
-39
-22
-9
8
22
22
26
7
-28
-31
-31
-23
-4
28
15
24
25
3
-25
-24
-36
-28
-8
21
15
30
21
7
-17
-23
-41
-22
-5
25
26
23
22
2
-24
-32
-33
-22
1
18
19
31
20
7
-17
-24
-27
-36
-1
19
27
25
12
-6
-17
-11
-21
-19
-5
19
23
29
20
2
-37
-32
-24
-15
6
23
30
18
11
-11
-27
-41
-30
-26
-1
15
30
28
15
-5
-20
-32
-26
-30
-1
14
28
37
11
-16
-47
-38
-18
-15
3
20
28
35
7
-31
-16
-31
-31
-5
11
15
11
18
10
-10
-21
-31
-36
-21
10
29
41
27
2
-22
-26
-34
-33
-12
9
19
32
24
8
-3
-31
-44
-26
-4
8
26
26
23
12
-16
-27
-33
-23
-11
21
22
20
22
3
-18
-26
-40
-27
-6
39
44
27
22
1
-14
-20
-35
-17
-2
14
22
26
1
7
-23
-33
-33
-24
-10
22
31
25
16
-6
-22
-29
-36
-23
-2
20
18
19
15
-6
-34
-32
-33
-20
-7
22
24
22
9
3
-30
-30
-29
-25
0
20
28
34
33
29
19
25
42
55
98
120
151
131
83
44
13
-4
-32
-36
-37
-37
-40
-36
-48
-79
-82
-79
-78
-48
-15
3
-9
8
0
-25
-34
-34
-21
-5
5
25
29
26
7
-6
-27
-27
-17
-9
10
24
43
31
-1
-12
-19
-23
-21
-6
21
31
32
26
9
1
-28
-23
-9
9
18
31
41
31
18
-6
-8
-28
-30
-4
40
45
51
37
15
-3
-4
-15
-9
4
39
35
41
39
32
3
-7
-3
6
16
50
51
71
57
31
20
0
-4
17
34
59
74
75
64
44
18
14
16
35
45
76
72
85
64
54
14
11
16
24
35
69
62
62
50
22
-2
3
-12
4
27
19
31
33
24
5
-14
-42
-38
-20
5
22
17
31
17
-12
-30
-31
-28
-18
-18
2
19
26
4
-6
-32
-38
-45
-28
6
12
17
20
5
-4
-19
-37
-39
-23
5
8
13
24
4
-23
-36
-37
-39
-19
10
18
12
22
6
-17
-48
-41
-32
3
15
12
23
13
-8
-27
-28
-49
-32
-22
16
16
24
20
19
-9
-22
-33
-34
-13
9
15
21
21
11
-11
-26
-39
-25
-8
14
24
19
22
6
-21
-30
-34
-21
-11
15
25
33
14
1
-21
-41
-35
-26
-2
13
13
19
14
2
-32
-27
-29
-17
-5
13
21
35
4
-9
-22
-33
-30
-13
-1
18
-3
11
20
12
-18
-31
-32
-20
0
16
28
26
11
0
-29
-42
-42
-26
-4
20
20
16
18
-5
-28
-43
-34
0
6
8
16
20
-1
-18
-32
-30
-26
-21
7
23
25
17
-1
-20
-29
-30
-22
-17
-1
13
31
25
8
-14
-22
-32
-26
-18
-6
13
20
25
11
-5
-7
-30
-28
0
10
32
30
20
3
-25
-36
-33
-31
-12
13
21
22
20
-5
-23
-36
-34
-22
-8
17
20
23
13
6
-19
-33
-28
-28
-12
6
9
25
15
7
-24
-47
-36
-34
-4
13
20
26
13
4
-23
-36
-37
-10
0
24
42
66
63
55
36
48
67
94
108
114
86
63
48
13
-36
-71
-97
-85
-57
-35
-32
-43
-40
-51
-71
-60
-73
-45
-16
3
15
20
4
-3
-16
-33
-36
-13
3
21
36
35
21
-3
-21
-24
-33
-16
13
33
32
34
13
-3
-19
-10
-22
-10
19
31
28
27
28
5
-8
-25
-9
-7
5
27
42
44
30
-8
-34
-28
-9
15
39
32
40
37
35
8
-11
-6
-2
14
36
47
53
30
37
19
10
2
11
24
43
63
68
57
47
29
12
8
22
37
75
83
77
62
57
31
21
23
38
39
64
77
73
70
51
31
22
16
27
37
63
55
56
52
32
2
-21
-19
3
5
26
43
39
31
20
-16
-35
-22
-17
6
18
18
34
22
-16
-22
-30
-27
-20
-14
21
25
27
12
-7
-30
-25
-31
-20
1
31
15
20
17
-2
-35
-32
-37
-31
1
11
21
28
14
-6
-26
-33
-28
-19
6
17
24
31
6
-31
-32
-28
-30
-13
10
11
32
32
15
-24
-18
-33
-38
-19
2
13
35
34
12
-9
-24
-33
-33
-11
13
20
18
17
9
-14
-27
-39
-21
-4
10
22
26
22
17
-24
-32
-39
-23
-9
8
19
23
24
14
-24
-24
-35
-25
-7
9
9
30
11
8
-19
-30
-36
-18
-3
11
28
34
6
0
-23
-30
-35
-24
-6
29
24
33
27
3
-30
-33
-42
-18
-2
8
27
26
12
-15
-23
-32
-33
-11
3
16
33
33
7
-12
-24
-40
-33
-10
5
15
8
29
26
-1
-21
-31
-45
-36
2
21
34
25
23
-8
-33
-33
-30
-15
1
28
21
23
18
-9
-23
-32
-29
-14
10
21
32
32
26
1
-15
-29
-25
-7
11
20
32
25
8
-18
-35
-18
-22
-25
-5
18
30
20
17
-20
-26
-29
-31
-16
6
23
47
24
10
-11
-31
-34
-23
-10
8
19
23
8
7
-23
-38
-35
-27
-8
6
22
6
22
18
-16
-25
-15
-3
26
69
81
95
120
114
90
75
65
46
18
42
27
11
-22
-58
-82
-82
-97
-94
-76
-28
-25
-19
-16
-29
-46
-50
-44
-28
-3
18
28
32
27
-7
-20
-29
-26
-10
1
26
25
25
16
1
-13
-22
-25
-21
10
33
36
33
23
-3
-14
-23
-23
-6
6
38
48
34
12
8
-14
-24
-12
-6
13
40
35
35
28
18
-7
-8
-30
-6
19
25
43
56
42
9
1
-12
-17
-2
34
49
42
55
41
26
11
1
-7
12
47
60
62
62
63
33
21
11
10
32
44
77
74
65
63
39
22
3
25
40
70
74
62
64
72
30
-9
-2
8
2
29
45
51
36
25
7
-22
-35
-17
-8
14
21
30
27
-8
-7
-21
-38
-22
-14
7
20
35
15
-4
-31
-36
-24
-16
-15
-4
19
25
14
-7
-34
-37
-28
-21
-22
24
9
23
6
3
-24
-36
-31
-21
-5
13
20
27
6
-2
-32
-41
-24
-34
1
18
18
23
24
-1
-32
-32
-33
-14
3
18
30
29
8
-8
-21
-40
-38
-13
0
24
27
23
17
-14
-22
-26
-19
-13
2
10
24
39
9
1
-29
-31
-31
-18
12
27
30
15
12
-8
-25
-34
-23
-20
5
21
35
25
20
-17
-26
-34
-35
-19
20
20
30
12
16
-14
-25
-30
-12
-8
17
27
29
30
9
-14
-26
-30
-24
-6
26
35
33
23
-3
-8
-22
-16
-30
-19
21
22
20
26
20
-6
-15
-28
-21
-1
27
37
35
32
9
-13
-35
-27
-17
-10
17
33
44
39
22
-17
-6
-15
-15
-6
18
38
35
13
8
-4
-15
-21
-4
5
30
43
42
40
11
-17
-17
-15
-1
4
22
45
39
30
16
5
-12
-14
-4
16
46
43
42
28
31
10
9
3
0
26
51
51
43
29
13
5
1
-6
9
36
37
32
40
33
24
3
-5
-9
3
21
49
51
66
38
8
4
2
11
17
29
58
51
55
39
12
3
-11
0
21
36
67
47
56
50
9
1
16
22
38
68
94
112
120
124
120
115
120
128
120
118
104
87
73
31
-10
-46
-52
-40
-30
-9
-3
-9
8
6
-11
-13
-13
-10
8
68
73
62
52
62
23
19
13
17
42
66
66
59
74
56
17
17
19
31
48
72
73
85
73
54
29
26
28
32
55
75
81
90
80
57
42
21
27
29
54
72
82
83
77
65
40
34
36
47
69
90
94
84
77
76
60
53
38
49
82
98
106
105
87
79
63
56
56
63
83
99
118
116
107
100
82
61
69
90
108
128
130
134
113
95
75
70
88
93
115
135
143
130
128
109
75
75
74
85
105
115
115
111
90
74
53
47
55
59
76
100
96
92
85
58
39
33
46
43
86
100
104
88
71
35
38
35
44
56
86
93
92
78
72
49
34
26
43
57
73
76
89
99
72
41
33
47
40
65
89
97
92
85
71
51
40
42
42
62
83
94
97
89
69
45
40
33
59
49
33
51
54
77
94
96
101
91
77
65
32
47
53
78
104
103
99
91
68
51
39
42
69
71
82
101
103
91
68
45
47
47
56
78
104
107
105
92
67
56
55
50
48
91
104
111
90
83
69
56
49
53
61
79
101
107
98
90
67
61
55
61
56
83
101
104
103
105
69
54
48
58
70
87
101
110
97
88
68
54
60
52
65
91
102
114
107
100
71
51
45
54
75
96
115
107
105
93
56
53
54
60
72
95
101
120
113
96
71
40
55
64
74
93
134
114
122
93
66
66
63
67
80
98
111
107
106
100
67
58
60
57
84
109
118
113
103
78
49
49
46
62
88
108
114
107
92
81
64
57
52
71
84
102
103
109
86
83
53
58
58
67
92
106
125
117
113
93
74
113
126
144
164
202
230
220
196
165
123
100
80
70
63
67
65
51
34
16
-2
-1
13
30
51
74
74
89
84
65
55
47
56
68
97
109
108
115
101
69
74
64
71
84
67
111
115
119
103
68
58
66
64
76
91
115
119
125
105
72
70
65
64
85
109
117
129
113
106
82
54
71
62
80
116
116
137
119
93
82
76
68
78
97
117
128
126
112
111
87
87
72
87
96
133
120
141
123
127
86
93
99
109
102
136
149
150
133
132
113
108
96
105
122
155
162
170
152
136
104
94
101
111
122
148
148
159
141
107
81
81
84
85
100
109
125
126
103
84
62
64
53
66
84
108
110
111
93
69
55
45
52
64
76
102
112
108
90
65
49
48
49
60
86
107
100
87
97
64
43
41
39
54
83
91
110
94
78
49
37
43
47
70
83
99
111
96
83
52
47
37
56
65
88
93
104
94
82
64
56
44
42
58
85
94
101
91
82
49
39
44
46
73
96
98
103
92
82
56
47
49
50
69
95
83
85
97
86
59
31
35
46
56
88
97
100
84
73
50
40
36
47
63
94
96
99
86
67
45
36
36
51
62
76
100
97
90
73
47
27
34
48
68
85
91
99
94
55
43
31
33
41
65
95
99
96
79
68
47
41
39
41
60
84
103
103
82
54
30
28
35
46
64
91
98
86
76
61
35
44
38
59
70
92
89
100
78
60
25
39
44
53
78
102
95
86
80
63
46
43
37
64
77
102
105
94
81
51
44
29
48
46
78
92
86
84
72
39
39
34
33
57
86
76
73
84
75
48
39
22
35
59
70
84
87
78
62
51
34
30
37
45
66
94
77
85
70
42
37
31
25
51
84
106
104
117
111
76
98
104
132
169
192
189
172
142
99
74
45
12
3
6
10
25
35
15
-7
-20
-18
-12
10
24
55
60
70
63
52
28
35
34
45
57
85
93
81
74
58
36
28
26
55
76
95
90
82
81
42
37
42
30
46
64
81
89
96
86
61
54
47
46
44
83
101
85
85
71
64
45
40
43
58
86
96
118
87
73
67
51
45
52
64
86
97
107
98
91
73
41
53
60
75
102
107
106
110
102
77
67
65
77
84
108
124
133
132
112
85
68
67
88
103
127
125
124
107
122
98
86
65
78
88
103
112
111
106
88
66
50
45
53
42
80
111
93
75
64
45
29
12
31
53
78
78
74
58
61
23
19
16
26
51
63
74
76
62
48
17
10
6
23
43
71
77
73
73
47
22
9
15
35
51
38
61
70
58
40
32
21
13
24
34
73
71
64
45
21
21
14
22
31
51
69
56
76
58
36
23
17
3
14
49
59
72
76
66
35
5
11
17
19
43
64
78
75
48
28
17
15
15
31
47
65
69
57
45
22
24
28
7
18
54
64
70
66
60
20
11
6
15
20
55
64
59
57
44
16
7
11
12
34
66
78
60
42
52
32
-17
6
20
20
55
60
56
52
49
23
20
15
15
24
63
56
61
52
33
16
20
12
3
36
55
62
62
65
50
14
14
5
8
27
56
55
61
50
39
15
4
0
10
27
51
71
44
46
28
8
8
-6
20
41
58
52
61
61
38
6
4
-2
36
49
59
68
71
53
31
6
2
-1
26
39
44
55
60
54
28
13
6
5
14
39
55
44
50
46
15
5
0
-6
14
37
57
64
55
47
4
7
1
4
-3
18
58
48
61
50
11
5
19
0
31
79
98
114
124
114
113
108
114
101
94
105
89
84
48
5
-36
-37
-60
-59
-39
-15
-2
26
-6
4
-17
-27
-28
-8
7
28
35
53
45
39
9
1
11
11
11
46
56
64
51
33
10
16
-9
0
18
55
49
57
48
35
19
10
2
10
24
48
57
62
54
42
21
7
1
12
27
61
67
67
50
41
15
-6
13
31
41
52
64
72
54
46
22
25
28
19
52
77
60
78
60
44
33
27
26
20
56
84
84
89
83
61
46
36
31
53
76
90
100
98
84
63
48
40
37
62
82
113
106
88
71
51
34
32
36
41
64
75
73
65
60
24
15
12
19
8
30
43
53
47
21
16
0
-16
3
9
37
46
42
42
32
3
-6
-15
-2
8
39
38
43
40
19
6
-4
-9
-16
-7
28
39
31
37
31
5
-2
-11
-25
2
47
40
51
44
10
-12
-9
-17
-9
0
43
50
34
39
-10
-13
2
-13
-6
6
33
49
50
25
16
-3
-5
-17
-6
8
39
46
44
28
13
-5
-11
-17
2
12
43
39
46
30
9
-1
-10
-12
-6
13
39
56
45
20
-6
-11
-23
-18
5
14
31
42
37
29
15
-7
-15
-15
-4
16
42
48
47
28
10
-7
-10
-19
-1
22
34
51
44
28
-4
-11
-13
-6
12
27
42
52
30
15
-6
-11
-16
-9
14
21
39
39
40
23
-8
-14
-28
-23
4
35
44
51
51
5
3
-11
-13
-13
3
34
48
38
39
32
12
-10
1
-11
11
22
35
46
38
27
2
-18
-21
-13
7
24
26
47
39
16
1
-14
-27
-12
1
27
26
45
42
23
-1
-18
-35
-6
3
28
33
37
28
17
-1
-19
-14
1
8
23
61
72
59
61
54
58
68
94
115
127
124
103
75
38
-5
-36
-55
-52
-46
-26
-18
-18
-36
-38
-66
-59
-68
-22
-7
14
24
22
16
11
-16
-25
-11
-2
21
37
45
40
36
13
-14
-13
-11
-2
20
38
42
38
24
12
1
-9
-10
6
29
45
55
36
28
-10
-14
4
8
18
40
47
48
52
39
13
-1
-1
-2
17
43
51
45
55
44
14
3
1
0
26
43
51
66
65
47
22
14
5
20
37
67
69
63
72
56
31
22
18
30
50
75
87
90
79
68
36
33
33
55
68
89
80
73
72
59
59
35
20
25
42
64
83
78
55
57
27
-15
-8
6
24
39
40
50
40
26
-8
-21
-19
-19
6
28
24
18
20
5
-23
-28
-25
-7
7
35
27
32
24
4
-17
-22
-22
-16
-2
25
31
36
14
2
-20
-44
-29
-9
4
13
43
46
25
-8
-14
-29
-34
-4
-3
23
34
18
5
7
-27
-25
-13
3
5
31
28
33
30
-7
-25
-25
-30
-11
20
32
36
30
24
2
-21
-33
-21
-4
20
28
31
30
17
-2
-25
-30
-17
-9
13
38
34
31
10
-9
-14
-23
-13
0
17
22
12
50
22
-2
-29
-27
-18
-6
17
29
33
24
15
-12
-27
-38
-26
7
24
29
42
48
-2
-35
-25
-21
-13
-19
23
34
37
26
12
-8
-15
-28
-9
6
22
24
39
19
11
-7
-24
-31
-21
7
31
34
42
23
4
-7
-13
-18
1
19
39
41
47
10
-11
-19
-16
-16
-15
2
22
25
31
25
23
-8
-33
-32
-16
0
19
37
28
27
8
-12
-31
-24
-19
5
27
35
32
18
-2
-24
-33
-37
-23
14
32
39
38
17
-6
-2
-21
0
30
71
93
108
119
123
119
109
76
55
56
50
44
28
8
-26
-61
-87
-83
-81
-65
-28
-17
-25
-15
-27
-31
-25
-37
-32
-15
17
19
46
32
13
-11
-22
-26
-15
9
23
36
46
18
18
-6
-20
-23
-13
4
29
39
42
35
23
-7
-12
-14
-7
11
38
31
28
32
29
0
-12
-16
-4
8
44
51
51
40
13
-6
-12
-10
-1
22
44
57
54
41
23
-4
10
-5
-3
19
49
57
61
60
43
18
4
6
13
45
66
68
68
65
42
21
13
20
32
51
73
78
82
68
53
32
15
24
54
56
77
70
64
54
38
16
4
3
12
44
56
60
47
42
13
-9
-18
-18
-2
13
28
38
32
18
-14
-15
-25
-31
-4
20
24
23
21
17
-8
-30
-31
-18
-17
12
17
28
31
9
-4
-21
-28
-29
-22
10
25
40
27
13
-15
-24
-30
-24
-13
16
24
36
21
10
-13
-31
-38
-26
-4
22
36
25
-3
4
-20
-22
-23
-15
2
23
35
24
10
-6
-10
-22
-34
-24
-2
17
28
27
17
14
-13
-28
-33
-20
-11
22
24
26
19
2
-23
-30
-32
-10
4
26
16
38
22
-13
-21
-14
-29
-23
-10
22
26
20
21
2
-26
-24
-46
-26
-8
20
19
28
13
-5
-39
-22
-9
-19
15
7
15
19
12
-6
-20
-32
-37
-12
12
27
30
23
9
-7
-30
-29
-32
-16
6
24
29
23
-1
-6
-18
-7
-22
-1
-4
16
37
16
11
-8
-26
-25
-28
-25
7
12
15
12
-1
-10
-25
-24
-21
-18
11
18
16
22
-1
-16
-23
-31
-26
-16
11
18
10
15
13
-20
-36
-35
-31
-11
9
27
34
30
8
-25
-29
-27
-9
18
56
72
95
98
107
82
85
71
52
45
60
53
33
0
-37
-91
-108
-100
-87
-53
-36
-21
-29
-45
-30
-52
-46
-49
-38
-23
10
12
34
15
-9
-22
-28
-38
-17
2
19
7
40
28
-2
-17
-22
-21
-14
11
17
26
35
17
-4
-21
-26
-25
-10
10
29
32
28
19
9
-10
-18
-27
0
17
37
47
37
27
7
-20
-15
-14
6
29
37
47
36
29
2
-11
-19
-10
-5
35
64
48
53
41
27
3
-1
9
30
48
58
52
67
66
15
4
22
10
38
53
71
81
74
54
28
23
23
28
41
53
72
65
64
50
28
18
12
4
14
41
51
48
41
28
-4
-11
-21
-18
-8
25
29
23
25
6
-23
-22
-43
-16
-18
17
23
26
12
0
-13
-36
-35
-39
-18
24
22
16
11
-5
-32
-30
-32
-17
-9
14
15
25
14
-4
-25
-29
-25
-34
-10
18
17
25
6
-4
-25
-37
-38
-19
6
16
33
23
16
-5
-29
-35
-30
-28
-11
22
25
19
7
-13
-28
-33
-31
-30
8
21
26
25
18
-9
-25
-40
-25
-30
-15
24
23
13
8
-6
-28
-39
-29
-24
-5
19
26
19
21
-9
-47
-33
-26
-17
7
9
23
28
6
-21
-36
-36
-31
-20
9
15
27
17
15
-20
-33
-42
-39
-14
18
11
19
16
6
-30
-49
-37
-25
-9
20
28
21
18
5
-21
-26
-40
-28
-4
13
25
29
24
26
-26
-35
-34
-32
-1
20
16
30
12
-4
-13
-34
-35
-35
-15
14
7
16
20
2
-26
-36
-34
-33
-9
17
24
14
10
-8
-26
-32
-32
-24
-15
13
11
-1
12
-7
-17
-37
-40
-31
-9
22
21
27
13
-1
-5
-6
-1
27
49
88
108
128
131
102
63
43
7
7
15
0
-4
-9
-51
-93
-102
-104
-88
-71
-57
-35
-14
-13
-26
-44
-45
-43
-37
-14
2
19
13
15
-4
-17
-29
-27
-31
-14
3
15
19
18
10
-31
-29
-27
-27
-24
11
21
30
31
11
-11
-22
-31
-26
-10
15
23
35
30
23
-11
-19
-25
-26
-23
17
21
45
34
17
-15
-13
-18
-14
15
23
25
33
42
20
-6
-20
-10
-7
7
35
44
54
41
35
3
2
-5
14
21
55
54
60
54
42
21
19
2
19
37
55
64
72
67
37
23
8
9
24
36
64
68
65
42
32
7
-3
-2
-8
6
20
36
53
28
-4
-34
-18
-45
-17
9
26
20
17
-1
-17
-43
-40
-33
-24
-7
14
15
11
0
-14
-34
-43
-35
-32
-7
14
10
18
-13
-24
-39
-54
-38
-30
-6
0
5
5
-3
-16
-29
-37
-41
-37
-23
18
13
13
0
-16
-41
-50
-37
-17
7
2
6
14
12
-21
-25
-54
-30
-24
-3
12
12
4
7
-23
-37
-48
-29
-22
11
12
10
11
6
-24
-38
-42
-39
-22
5
17
7
16
-3
-22
-36
-45
-39
-27
-8
12
15
13
7
-38
-36
-41
-39
-15
12
18
19
3
-4
-31
-38
-32
-32
-11
11
13
4
5
-12
-37
-39
-42
-28
-17
8
9
16
0
-11
-36
-40
-45
-31
-12
16
18
13
4
-11
-31
-33
-45
-44
-6
7
8
6
16
-18
-40
-44
-49
-27
-11
11
17
15
3
-14
-27
-33
-37
-9
5
17
22
33
4
-11
-25
-44
-42
-30
-11
11
18
11
-14
-34
-38
-45
-38
-26
-10
-3
8
13
2
-22
-45
-45
-41
-29
-6
11
18
-3
0
-17
-40
-53
-50
-19
12
19
12
10
-11
-38
-35
-43
-33
-12
14
30
45
52
56
46
56
64
81
91
103
89
60
46
10
-34
-68
-102
-104
-77
-66
-54
-47
-45
-53
-71
-79
-91
-65
-35
-4
-2
19
4
-5
-39
-45
-45
-33
-25
13
15
26
14
-1
-32
-50
-30
-33
-10
15
3
27
17
-11
-26
-31
-45
-31
-10
22
19
28
20
2
-37
-40
-26
-19
-10
13
21
17
11
7
-34
-36
-33
-20
-2
17
30
32
17
-1
-17
-28
-25
-22
12
37
38
32
26
13
-4
-17
-9
11
24
35
51
47
33
16
-1
-2
1
20
36
52
59
59
39
22
4
4
9
24
55
56
68
61
45
16
-1
-6
-2
1
28
31
44
37
18
0
-24
-32
-21
-6
2
7
19
1
-2
-27
-26
-44
-57
-26
8
8
12
-8
-6
-36
-56
-58
-46
-30
3
13
11
-3
-10
-43
-40
-57
-56
-30
-2
4
19
-3
-13
-47
-48
-45
-38
-22
-2
3
13
2
-23
-39
-52
-52
-35
-18
5
8
11
0
-13
-39
-48
-57
-41
-22
9
7
14
-11
-2
-34
-45
-37
-43
-32
5
33
13
-6
-28
-29
-27
-53
-33
-38
17
8
7
1
-10
-36
-50
-59
-36
-10
12
6
11
-3
-18
-42
-37
-42
-30
-29
7
13
10
-2
-34
-44
-45
-51
-32
-15
9
13
3
-8
-25
-45
-46
-49
-34
-14
-1
17
3
-5
-18
-37
-59
-38
-17
2
4
-2
3
-9
-25
-37
-52
-54
-28
-2
1
11
11
-12
-32
-45
-48
-47
-34
-13
4
4
3
-13
-32
-42
-49
-43
-27
-6
14
12
8
2
-24
-44
-39
-29
-19
0
11
14
5
-11
-40
-50
-42
-32
-28
-8
-2
-3
-4
-10
-25
-36
-43
-35
-23
0
14
16
0
-8
-37
-55
-47
-34
-11
-5
12
-8
-4
-7
-44
-55
-48
-24
-22
-10
17
12
-5
-11
-34
-44
-31
-12
28
64
84
97
95
86
82
73
48
31
32
41
24
-18
-32
-77
-101
-102
-95
-94
-62
-37
-49
-27
-26
-52
-61
-63
-65
-42
-22
11
11
10
-3
-30
-39
-17
-24
-64
8
18
19
14
-7
-15
-33
-52
-33
-7
-1
11
22
5
3
-16
-35
-37
-23
-12
16
27
25
18
-3
-24
-35
-31
-30
-14
8
25
43
26
13
-19
-25
-26
-17
-5
20
33
34
15
12
-2
-18
-14
-19
12
26
38
44
29
12
-2
5
-4
2
5
34
33
53
54
35
11
12
5
20
29
57
62
74
69
41
22
2
7
23
40
56
52
54
51
37
8
-3
-10
-5
10
38
51
25
24
14
-4
-26
-38
-23
-12
17
11
20
5
-20
-42
-29
-52
-34
-4
10
13
10
-10
-20
-34
-46
-53
-42
-12
10
15
18
9
-20
-51
-42
-46
-36
-7
13
12
0
-7
-30
-39
-44
-53
-32
-6
11
19
13
-12
-20
-25
-42
-36
-44
-16
2
16
14
5
-23
-40
-40
-38
-35
-5
13
16
10
-4
-33
-32
-36
-31
-25
2
13
20
4
-5
-23
-30
-42
-45
-21
-7
11
23
5
-9
-37
-43
-50
-41
-21
5
17
15
4
-11
-39
-43
-48
-38
-25
9
13
21
11
-2
-33
-40
-46
-49
-23
24
11
15
0
-11
-39
-45
-40
-45
-18
3
23
22
12
-5
-36
-37
-40
-27
0
-20
10
16
5
-25
-41
-48
-40
-29
-7
7
14
12
2
-11
-43
-38
-28
-24
-12
21
31
29
19
-13
-36
-40
-45
-27
1
4
21
4
-6
-9
-40
-35
-37
-29
-8
11
14
14
-2
-22
-47
-39
-24
-15
-7
-4
13
27
4
-25
-27
-50
-46
-30
7
23
24
8
-6
-27
-33
-47
-40
-17
8
22
37
29
31
23
35
35
44
74
101
141
115
72
40
-1
-28
-45
-67
-58
-67
-52
-49
-50
-61
-75
-94
-71
-68
-45
-21
2
3
-8
-21
-31
-34
-45
-33
-20
18
25
17
21
16
-23
-22
-46
-28
-10
10
21
19
16
-1
-15
-22
-13
-4
0
14
25
23
19
5
-28
-27
-27
-11
0
24
40
36
32
13
-20
-25
-36
-16
18
35
36
35
20
16
0
-19
-30
13
18
42
45
44
39
21
-8
-19
4
16
27
48
57
65
56
36
-18
2
10
22
41
67
82
69
65
30
9
19
17
32
56
71
79
80
57
34
20
22
14
32
31
37
62
58
36
6
-9
-17
-16
0
22
29
25
29
14
-7
-31
-43
-30
-17
9
19
16
18
10
-18
-37
-35
-30
-16
11
18
9
9
-3
-31
-27
-42
-32
-16
17
16
13
3
3
-30
-39
-41
-24
-10
7
3
11
7
-7
-31
-27
-34
-28
-14
17
27
25
7
-14
-35
-26
-39
-27
-6
14
20
21
19
-1
-30
-29
-36
-27
-5
16
30
25
10
-5
-21
-30
-34
-28
-14
24
36
37
9
-11
-38
-31
-40
-31
-12
20
28
29
10
2
-24
-28
-31
-22
-12
28
22
25
15
-9
-33
-38
-27
-17
2
22
18
23
16
-10
-30
-42
-40
-13
1
11
29
22
6
-6
-33
-32
-42
-25
13
23
16
26
10
-27
-29
-36
-30
-16
6
12
29
16
2
-24
-22
-25
-35
-38
7
28
5
13
12
-14
-32
-23
-24
-7
-3
13
18
23
11
-18
-28
-38
-25
-16
9
12
13
31
18
-12
-28
-22
-23
2
29
25
28
27
7
-23
-20
-38
-20
-10
17
23
30
14
-1
-30
-38
-34
-26
-18
4
25
32
12
-5
-31
-37
-37
-14
-9
20
20
32
14
5
-23
-31
-27
-26
-2
14
17
29
16
-8
-37
-25
-18
8
35
70
98
104
107
108
93
77
65
57
44
35
35
16
-5
-56
-95
-99
-90
-72
-59
-40
-26
-17
-16
-39
-53
-49
-44
-26
-1
19
20
22
25
-15
-25
-31
-30
-10
18
15
32
26
20
-18
-27
-31
-15
-10
11
30
29
26
13
-2
4
-9
-32
-2
12
28
40
37
10
-16
-22
-25
-29
1
18
34
47
36
5
3
-4
-18
-21
4
27
37
44
40
25
-7
-13
-11
1
15
42
53
56
52
33
10
-5
6
20
28
51
60
68
66
52
28
5
5
20
38
71
66
81
75
48
25
21
21
34
40
70
72
68
56
55
27
3
-7
1
26
53
56
48
38
8
-28
-13
-14
-3
9
27
21
24
13
-5
-13
-22
-39
-15
6
17
24
29
7
-7
-29
-34
-37
-19
-4
25
27
22
16
-1
-32
-35
-33
-22
6
22
21
13
14
-6
-21
-35
-26
-24
-3
24
37
22
-5
-20
-30
-36
-28
-16
-1
19
33
36
13
-18
-23
-16
-23
-19
-4
18
36
12
11
-22
-31
-23
-24
7
19
25
19
14
14
-7
-30
-30
-16
-25
11
36
29
18
8
-17
-22
-37
-33
-16
14
21
33
19
1
-24
-27
-35
-31
-20
28
29
35
25
2
-25
-28
-34
-29
-10
10
31
27
19
-5
-31
-33
-27
-17
-5
15
18
27
28
-5
-11
-26
-23
-24
-15
20
22
26
20
-22
-28
-31
-28
-20
-5
16
18
17
23
1
-32
-35
-46
-15
-4
23
40
29
22
-2
-31
-31
-36
-24
5
27
18
33
23
-4
-27
-27
-32
-21
-4
14
36
22
4
6
-5
-34
-23
-9
13
27
38
21
20
-11
-28
-22
-23
-9
8
11
18
24
13
-6
-25
-29
-22
-13
10
25
22
15
17
-8
-41
-37
-37
-6
11
28
29
29
9
-11
-30
-30
-24
-13
15
17
32
23
7
-10
-29
-35
-22
11
40
64
87
87
93
74
89
92
100
96
88
83
59
31
-13
-50
-77
-94
-90
-75
-40
-34
-13
-19
-35
-57
-53
-44
-35
-29
5
30
29
15
8
-27
-14
-26
-22
1
16
37
39
28
4
-15
-27
-28
-21
2
31
38
36
16
16
-7
-13
-24
-15
5
33
44
34
25
-1
-11
-16
-13
-1
16
35
38
46
29
4
-13
-15
-9
7
30
46
49
46
26
-4
3
5
-3
4
32
45
55
62
44
16
5
1
-2
21
49
67
65
69
48
39
18
12
17
23
74
68
76
71
63
23
18
22
31
27
56
63
74
71
57
29
16
4
24
29
45
49
68
54
31
5
-18
-13
-8
11
35
20
27
17
23
-14
-26
-33
-17
-19
21
28
21
24
17
-16
-21
-35
-12
5
14
17
14
21
4
-22
-39
-38
-42
-4
22
23
22
19
-7
-21
-29
-29
-27
-12
18
22
26
17
2
-23
-32
-28
-18
-4
20
37
29
25
1
-23
-17
-46
-35
-2
19
39
36
12
-11
-19
-21
-28
-17
-2
26
35
18
14
-13
-29
-34
-20
-18
8
26
31
27
11
-12
-31
-22
-13
-10
16
9
26
26
11
-11
-27
-39
-30
-14
13
18
24
40
6
-9
-39
-32
-15
-10
7
19
18
19
15
-18
-37
-37
-29
-18
9
28
25
19
15
-12
-28
-34
-22
-22
16
16
21
14
-6
-15
-21
-40
-21
-6
15
10
19
17
-2
-23
-25
-31
-33
-12
28
32
24
11
1
-29
-40
-41
-29
-8
13
16
33
20
10
-24
-28
-34
-18
-4
5
26
33
8
7
-23
-31
-21
-9
5
16
21
14
26
1
-27
-33
-36
-25
-11
14
24
25
7
1
-19
-29
-27
-33
2
13
15
20
14
-10
-23
-28
-32
-16
2
18
15
16
11
-6
-24
-42
-26
-22
3
21
21
10
17
-11
-14
-18
0
24
58
92
107
119
117
103
63
59
38
24
34
19
2
-16
-51
-80
-96
-97
-89
-73
-38
-30
-19
-11
-10
-28
-51
-57
-33
-28
14
31
15
21
7
-19
-32
-31
-29
-12
21
30
15
25
12
-16
-27
-23
-23
-11
23
29
27
19
13
-26
-24
-16
-17
-2
17
33
36
21
14
-15
-12
-19
-8
3
30
31
39
35
15
-24
-11
-14
-8
4
34
39
48
38
24
5
-13
-5
-1
23
56
53
58
53
27
17
-6
2
19
33
59
62
64
50
42
20
19
13
21
49
84
70
68
70
52
24
10
20
24
49
69
72
71
51
33
7
13
2
-1
12
44
58
34
19
3
-16
-22
-18
1
15
14
33
28
21
-11
-21
-27
-40
-28
-2
32
20
27
19
-9
-37
-36
-28
-23
16
20
20
23
17
-25
-35
-36
-31
-10
-3
19
14
14
1
-15
-28
-32
-28
-31
2
22
29
22
5
-27
-37
-50
-40
-2
11
22
32
10
9
-13
-44
-37
-27
-3
25
20
31
21
0
-22
-31
-35
-24
-7
19
22
26
13
4
-29
-29
-37
-25
-10
19
28
30
23
1
-30
-24
-11
-13
-28
18
23
24
15
-6
-28
-36
-39
-17
-2
13
26
22
26
-10
-29
-49
-38
-15
10
28
31
29
28
-3
-27
-28
-30
-23
-6
18
30
24
20
0
-33
-33
-36
-32
2
29
27
23
24
-13
-26
-38
-34
-20
0
21
25
14
-1
-14
-32
-38
-34
-18
8
38
33
15
-3
-13
-20
-41
-22
-3
23
33
41
34
16
-9
-25
-33
-32
-20
6
21
20
17
19
-6
-19
-35
-28
-18
22
28
24
26
15
-18
-27
-36
-33
-15
16
23
30
23
11
-21
-32
-38
-41
-14
0
22
32
23
-3
-19
-25
-38
-32
-12
23
37
47
50
40
37
37
49
57
96
140
129
120
57
43
2
-31
-51
-61
-63
-46
-47
-36
-37
-63
-75
-78
-79
-62
-36
1
12
11
8
-10
-26
-29
-36
-25
-4
28
26
27
20
6
-30
-26
-29
-9
0
27
24
27
12
-5
-20
-25
-32
-23
14
28
30
36
30
-3
-19
-14
-19
-16
8
42
42
28
10
7
-9
-23
-21
1
33
32
49
50
23
-7
-2
-4
-18
13
25
37
51
49
26
15
-2
-5
1
15
45
54
53
65
46
31
8
-3
7
33
67
67
61
70
57
34
27
29
15
26
60
69
76
76
70
40
24
11
13
32
53
59
59
42
45
10
15
-15
-21
3
36
37
35
27
8
-17
-25
-27
-17
-8
10
17
29
18
4
-27
-37
-43
-38
-14
24
27
27
25
3
-22
-39
-37
-21
-2
28
11
27
9
-11
-27
-31
-29
-39
-20
15
42
24
-4
-14
-24
-17
-17
-44
-23
16
17
28
24
4
-34
-42
-49
-22
0
20
19
19
15
-11
-19
-21
-31
-27
5
18
21
21
7
-6
-24
-32
-32
-31
6
25
29
22
9
-4
-25
-31
-31
-20
4
28
15
23
8
-22
-28
-25
-23
-11
0
19
25
10
5
-18
-26
-42
-23
-30
11
22
17
16
9
-9
-31
-37
-31
-11
7
22
20
18
-17
-28
-33
-28
-28
-14
14
16
25
20
2
-25
-25
-32
-35
-10
13
17
25
17
8
-16
-37
-23
-35
-23
2
13
23
7
-6
-38
-29
-29
-23
-30
13
22
22
2
1
-21
-25
-36
-24
-1
16
19
31
30
12
-15
-22
-27
-28
-13
27
28
20
4
-14
-39
-47
-37
-22
-6
13
21
24
13
0
-25
-35
-35
-32
-11
21
8
14
5
-8
-29
-40
-30
-24
-5
18
19
7
3
-11
-27
-36
-39
-17
7
17
30
28
22
7
4
23
33
52
91
129
141
139
113
66
15
-17
-7
-6
-39
-33
-43
-45
-47
-89
-98
-86
-78
-56
-36
-28
-10
0
-11
-24
-21
-38
-34
-22
-6
19
26
27
11
-12
-31
-34
-32
-17
13
38
42
26
3
-10
-19
-24
-12
-8
12
18
29
20
17
-13
-27
-26
-24
-8
14
40
41
30
19
-15
-15
-21
-21
3
26
33
34
30
18
-8
-18
-28
1
18
37
36
43
42
25
3
-24
0
14
18
45
52
49
44
23
14
5
3
13
36
62
67
70
51
38
25
18
19
27
41
64
75
64
56
38
16
17
20
27
49
61
59
64
32
16
-1
1
-12
9
6
31
40
32
17
-4
-21
-24
-36
-14
13
15
16
23
7
-6
-25
-34
-32
-15
1
16
23
20
-3
-28
-24
-34
-37
-23
2
26
33
17
8
-12
-33
-34
-26
-17
7
15
21
14
7
-22
-28
-35
-40
-20
16
24
10
20
5
-10
-36
-35
-34
-23
7
23
17
11
-16
-32
-20
-46
-25
-10
14
29
33
27
-2
-30
-34
-39
-21
-20
15
9
15
12
13
-11
-32
-35
-33
-10
18
20
22
16
2
-25
-27
-32
-27
-13
22
19
22
9
-6
-34
-33
-32
-28
-8
20
24
21
6
-12
-39
-29
-47
-34
1
12
24
27
2
-16
-27
-42
-33
-23
-5
19
21
15
12
-16
-29
-35
-26
-32
-6
12
17
19
6
-14
-30
-30
-37
-29
-5
21
20
17
13
-10
-30
-33
-39
-18
9
18
26
18
4
-22
-33
-36
-37
-28
0
27
18
19
1
-25
-31
-18
-26
-5
16
30
34
19
2
-18
-35
-44
-17
-19
7
7
25
17
2
-26
-36
-43
-40
-19
6
15
19
10
2
-13
-32
-40
-29
-15
9
15
8
5
0
-29
-35
-34
-26
-13
15
26
27
25
-6
-53
-58
-34
-21
5
39
66
90
83
78
63
85
82
87
83
79
67
53
21
-16
-68
-98
-100
-100
-76
-50
-37
-20
-44
-50
-66
-61
-57
-45
-15
8
17
9
16
-11
-32
-36
-36
-17
2
30
24
3
11
-1
-25
-22
-20
-15
-3
15
27
31
15
-12
-18
-32
-22
-5
12
24
31
19
24
-5
-18
-25
-21
-14
21
28
33
28
14
-16
-28
-10
-35
-9
22
34
28
27
27
12
-22
-26
-18
2
30
45
49
40
27
10
0
-14
-6
8
38
56
56
53
31
16
8
2
9
26
56
53
69
56
41
15
16
1
24
34
56
71
66
50
52
15
-13
10
0
23
36
31
56
42
20
-10
-14
-20
-14
-8
16
21
26
26
12
-16
-30
-45
-33
-21
9
27
24
7
-12
-29
-44
-30
-22
-19
-2
15
19
21
-11
-36
-46
-41
-30
-15
12
16
17
4
-2
-44
-42
-43
-39
-15
9
10
24
11
-15
-35
-44
-41
-23
-11
11
22
11
-4
-27
-42
-39
-38
-19
13
3
14
15
2
-20
-30
-46
-35
-29
-5
23
15
13
2
-18
-33
-34
-32
-22
0
24
17
4
-3
-27
-37
-41
-43
-24
-3
6
16
9
-3
-9
-16
-50
-35
-30
0
6
14
2
-10
-32
-40
-47
-39
-24
1
7
14
9
-10
-35
-42
-41
-42
-28
-10
14
21
10
0
-27
-34
-41
-30
-11
18
-4
11
12
-10
-37
-42
-36
-39
-17
6
9
4
13
-1
-31
-42
-45
-30
-15
5
1
17
21
2
-45
-40
-44
-17
4
16
31
24
9
-16
-32
-49
-44
-30
-11
7
15
9
5
-21
-42
-32
-42
-29
-22
8
8
13
5
-11
-43
-44
-47
-22
-4
5
9
18
1
-13
-39
-41
-35
-28
-8
5
17
4
-3
-20
-35
-35
-38
-7
19
33
53
60
66
35
47
49
60
85
88
89
65
50
32
-26
-63
-84
-92
-89
-65
-43
-50
-48
-57
-61
-62
-66
-87
-40
-13
-3
-1
6
3
-25
-37
-52
-33
-14
13
12
22
18
2
-29
-41
-36
-31
-22
7
30
27
16
11
-18
-29
-37
-25
-20
16
16
11
13
8
-16
-25
-33
-17
0
21
30
33
26
5
-22
-28
-30
-15
6
30
33
21
24
18
-9
-27
-32
-9
6
29
33
59
46
20
-12
-16
-15
-4
21
41
52
56
48
33
8
-9
-6
24
36
57
59
73
60
23
11
18
9
19
41
62
68
66
50
45
12
2
-5
13
14
46
44
47
31
3
-13
-28
-17
-9
4
26
23
18
5
-18
-35
-44
-41
-32
-1
19
24
3
-7
-28
-44
-41
-39
-29
-4
9
15
13
-10
-21
-44
-47
-49
-33
-2
12
7
8
-6
-26
-48
-48
-42
-30
-4
16
18
7
-5
-46
-40
-60
-37
-28
6
1
-3
2
-13
-31
-40
-34
-32
-24
2
8
7
-8
-3
-35
-35
-39
-40
-30
18
8
21
6
-6
-38
-49
-40
-37
-12
-2
14
19
10
-10
-34
-45
-48
-48
-27
9
17
17
-9
-20
-49
-46
-51
-44
-23
8
19
15
7
-13
-39
-40
-47
-27
-13
7
1
13
7
-21
-45
-29
-47
-36
-9
9
15
22
1
-22
-46
-41
-55
-31
-14
13
17
12
1
-15
-46
-43
-44
-30
-18
10
8
17
0
-30
-35
-45
-48
-28
-1
13
16
15
10
-10
-37
-39
-43
-20
-4
12
18
6
-1
-30
-43
-53
-47
-31
-7
10
-2
20
-5
-27
-38
-54
-38
-20
-16
-2
10
14
-1
-31
-60
-46
-40
-19
0
-3
5
8
-11
-34
-41
-45
-30
-30
11
19
26
39
26
14
15
26
49
84
110
108
99
74
37
-10
-29
-63
-70
-76
-66
-64
-45
-51
-64
-89
-90
-90
-73
-55
-21
-19
-11
-1
-15
-53
-43
-43
-36
-14
17
18
8
11
-12
-46
-34
-45
-34
-11
14
23
15
15
-7
-30
-37
-38
-25
-1
10
19
22
15
8
-32
-34
-29
-19
-1
21
23
28
15
-6
-20
-23
-27
-9
1
20
34
30
18
-12
-19
-22
-23
0
2
21
42
46
25
5
-2
-11
-9
-6
21
40
58
50
41
25
4
-12
1
23
41
64
59
62
49
17
17
0
14
26
59
71
66
48
50
20
15
7
11
20
40
49
62
47
12
-2
-2
-33
-30
-1
12
17
18
5
-6
-27
-38
-42
-37
-19
5
12
9
7
-8
-39
-56
-41
-35
-26
8
17
13
4
-11
-41
-36
-50
-44
-20
16
5
22
9
-16
-27
-37
-41
-47
-15
-6
12
14
6
-7
-29
-44
-41
-36
-26
5
18
16
-1
-22
-47
-40
-41
-35
-18
8
16
12
8
-10
-46
-44
-40
-33
-4
6
19
9
-7
-14
-23
-47
-41
-27
-8
13
21
16
-4
-19
-38
-38
-40
-41
4
9
14
6
2
-26
-38
-40
-43
-28
-4
19
29
14
-2
-25
-36
-37
-47
-33
0
8
16
9
6
-27
-42
-48
-37
-30
-6
16
31
16
3
-40
-36
-42
-39
-18
-9
13
26
13
-6
-26
-38
-35
-35
-19
2
10
-12
1
4
-29
-32
-34
-28
-13
13
13
17
13
18
-11
-20
-25
-31
-11
14
18
19
11
-8
-36
-49
-40
-31
-8
22
10
15
12
-19
-18
-34
-42
-38
-23
15
21
25
10
-4
-28
-52
-43
-39
-9
18
8
9
8
1
-31
-40
-37
-22
1
24
15
13
4
12
-6
-3
12
31
75
109
139
142
118
77
32
9
-7
-15
-21
-13
-33
-46
-60
-91
-92
-95
-98
-76
-42
-18
-5
-4
-21
-30
-42
-38
-21
-24
-1
11
11
25
8
-14
-36
-19
-28
-38
3
13
27
32
17
-15
-32
-42
-17
-12
14
32
24
17
7
-16
-26
-32
-23
-9
18
32
27
21
21
-6
-27
-26
-20
-5
18
37
32
14
9
-17
-20
-18
-6
4
29
35
33
32
15
-9
-9
-1
-2
19
45
55
47
41
25
13
-6
2
7
34
55
59
66
57
44
24
6
1
22
41
59
75
70
58
50
14
4
6
14
32
57
61
65
35
20
8
-14
-15
5
4
24
16
33
24
1
-19
-26
-39
-24
3
15
6
20
-6
-19
-40
-37
-45
-37
-13
5
15
8
4
-10
-40
-40
-42
-18
-5
4
9
8
11
-9
-24
-39
-46
-27
-6
10
22
15
2
-30
-41
-40
-33
-20
-7
10
17
13
5
-16
-25
-38
-35
-40
-12
11
11
11
-5
-26
-35
-41
-35
-29
-4
9
12
8
2
-29
-42
-37
-40
-28
-3
22
15
-3
-3
-24
-43
-38
-36
-26
4
8
14
11
1
-21
-40
-49
-27
-37
2
14
18
0
-17
-36
-31
-34
-22
-12
3
19
21
-9
-5
-35
-58
-40
-30
-15
15
13
7
-1
0
-30
-38
-41
-24
-11
7
6
8
2
-16
-41
-42
-38
-36
-21
13
20
9
4
-15
-33
-22
-31
-27
-4
27
31
25
-1
-13
-30
-34
-38
-44
-20
7
9
7
3
-11
-37
-49
-49
-38
-15
15
27
14
0
-19
-41
-41
-47
-35
-2
13
10
16
5
-23
-34
-44
-51
-32
-3
7
10
18
-1
-23
-31
-38
-36
-24
16
29
59
75
73
56
54
67
85
81
91
91
81
49
20
-30
-69
-80
-83
-112
-75
-55
-54
-53
-55
-83
-83
-64
-57
-28
-9
-5
11
8
1
-23
-31
-46
-42
-18
4
11
27
10
0
-27
-37
-34
-21
-22
12
27
17
21
-9
-21
-29
-31
-23
-14
8
15
37
20
-5
-19
-26
-34
-19
-4
19
37
39
18
7
-8
-20
-23
-13
3
20
37
35
16
17
-11
-17
-29
-20
4
34
44
42
27
17
1
-6
0
7
22
58
59
64
37
36
4
1
4
30
39
52
68
71
64
38
6
8
10
22
47
72
63
62
50
29
-4
-4
6
12
35
38
40
44
26
8
-12
-22
-34
-30
7
13
25
25
16
-8
-38
-45
-42
-13
10
16
20
7
8
-22
-40
-44
-37
-32
-1
22
14
7
0
-32
-43
-39
-35
-24
-5
13
30
14
-30
-32
-34
-42
-37
-25
7
8
12
11
-8
-28
-23
-54
-54
-16
10
17
1
11
-1
-33
-41
-41
-31
-15
10
13
14
17
-12
-40
-38
-38
-30
-12
12
10
22
1
-13
-33
-38
-37
-32
-8
8
6
24
29
5
-31
-42
-53
-31
-7
16
12
14
-3
-8
-35
-48
-47
-27
-7
5
15
26
8
-15
-36
-43
-43
-27
-4
17
22
16
-4
-22
-40
-43
-39
-30
-4
6
18
13
2
-13
-40
-43
-47
-23
2
10
13
19
6
-14
-31
-35
-25
-40
-8
17
8
12
7
-26
-25
-19
-25
-31
14
26
21
5
-1
-19
-36
-44
-36
-20
-5
16
16
10
-9
-28
-36
-42
-43
-33
9
14
25
-8
-1
-24
-29
-39
-48
-15
-5
6
22
5
1
-40
-37
-42
-30
-20
-2
9
19
11
3
-19
-38
-36
-17
1
42
75
90
93
76
71
82
90
73
50
43
50
36
-7
-51
-86
-103
-105
-93
-77
-49
-36
-34
-32
-50
-58
-58
-64
-44
-25
10
18
22
-3
-17
-18
-37
-40
-28
-7
21
23
24
8
-13
-40
-39
-30
-28
-17
19
24
40
6
-23
-28
-17
-17
-16
2
12
34
29
6
-12
-15
-19
-22
-25
3
31
30
31
17
-8
-24
-35
-15
-5
8
37
36
33
22
5
-8
-25
-15
-4
22
40
50
48
33
2
-2
-11
-6
15
39
48
60
58
44
16
15
7
13
26
46
56
76
59
55
26
18
18
14
29
58
58
72
57
44
12
-16
-4
-12
40
41
37
33
29
8
-15
-31
-32
-28
-10
9
16
18
5
-13
-22
-28
-37
-30
-18
7
11
13
2
-11
-33
-47
-43
-34
-23
3
3
17
2
-22
-38
-40
-42
-42
-15
9
20
24
9
-24
-42
-45
-42
-28
-43
10
15
22
6
-11
-33
-56
-45
-22
1
1
18
17
8
-35
-36
-37
-58
-38
-10
9
18
17
9
-13
-30
-34
-43
-29
-10
13
16
11
-6
-20
-32
-38
-34
-29
-8
16
16
17
-4
-22
-35
-35
-31
-21
-1
7
22
8
-6
-20
-41
-33
-53
-29
6
11
10
13
-5
-35
-41
-48
-28
-18
-7
-6
16
9
-10
-34
-36
-47
-27
-14
8
11
11
13
-5
-33
-44
-39
-33
-9
6
7
6
8
-10
-21
-39
-36
-31
-2
12
14
28
9
0
-18
-37
-27
-28
-26
13
13
15
0
-15
-33
-41
-37
-34
-14
6
14
13
7
-4
-30
-36
-50
-34
-15
8
21
9
4
-4
-32
-47
-50
-34
-9
15
17
20
3
-21
-28
-31
-39
-37
-4
3
28
17
27
-3
-15
-5
14
31
57
104
118
132
111
68
32
10
-5
-11
-11
-16
-52
-41
-53
-80
-104
-91
-77
-69
-50
-21
-7
2
-10
-28
-48
-49
-33
-32
0
21
19
5
6
-16
-43
-25
-27
-15
-10
15
31
27
3
-26
-27
-30
-20
-6
7
25
29
24
4
-17
-30
-29
-25
-11
13
30
25
34
16
-23
-21
-12
-21
1
21
22
40
34
15
-8
-26
-25
-19
7
31
37
35
35
34
6
-17
-17
3
23
51
50
47
38
27
12
-1
4
13
14
50
53
64
55
45
10
11
10
21
42
62
76
66
59
45
17
10
15
16
21
56
60
53
42
13
7
-10
-17
-20
11
35
29
24
9
6
-26
-41
-37
-31
-12
15
16
10
4
-17
-42
-35
-38
-30
-14
20
15
25
5
-17
-36
-47
-38
-30
