-15
27
23
30
-13
-51
-62
-76
-68
-14
-11
19
13
21
-4
-52
-66
-67
-58
-32
-1
18
15
23
-15
-61
-54
-71
-42
-21
14
11
3
-14
-10
-38
-81
-50
-45
-27
2
6
22
11
-37
-55
-62
-53
-61
-13
11
40
17
1
-36
-63
-73
-58
-61
-20
0
23
20
17
-30
-82
-27
-79
-52
-5
5
-2
14
-4
-15
-65
-48
-61
-46
-48
1
16
11
16
-50
-44
-69
-72
-48
-29
9
29
15
-2
-39
-56
-68
-71
-56
-2
34
29
-1
-20
-31
-40
-73
-76
-57
-11
41
19
11
-3
-31
-79
-56
-77
-67
-5
16
35
-10
4
-32
-70
-66
-62
-46
5
22
21
35
-10
-45
-83
-73
-51
-25
-16
10
26
31
-19
-45
-86
-43
-53
-22
-13
6
17
18
-2
-63
-39
-46
-58
-43
-13
26
39
-19
-15
-51
-67
-67
-82
-21
5
11
22
4
-20
-39
-61
-66
-54
-38
-5
31
18
-7
-19
-22
-86
-84
-55
-11
4
37
34
18
-30
-53
-66
-66
-68
-26
24
31
25
22
-15
-59
-83
-43
-46
-19
17
41
13
21
-8
-38
-66
-39
-43
11
16
30
27
76
15
-72
-69
-60
-37
-10
14
11
11
-2
-17
-58
-70
-63
-69
6
12
8
13
9
-34
-55
-54
-76
-64
-14
24
11
4
18
-34
-60
-68
-72
-41
-15
23
26
9
-2
-29
-80
-85
-59
-20
4
3
37
1
21
-26
-76
-92
-62
-44
-10
20
24
20
-8
-45
-64
-63
-76
-34
5
6
17
8
-12
-31
-46
-27
-7
20
50
86
131
132
89
42
-3
-7
-15
8
43
55
30
31
-44
-72
-82
-122
-107
-48
-3
18
4
-2
-25
-62
-59
-66
-66
-32
-4
31
31
12
-16
-29
-55
-82
-58
-4
6
24
35
19
3
-38
-72
-66
-42
-20
11
48
4
23
-14
-52
-56
-47
-20
5
15
26
31
27
-14
-59
-51
-59
-50
2
24
41
33
14
-18
-36
-65
-43
-38
6
39
50
47
19
-25
-31
-45
-43
-23
5
51
25
48
43
1
-33
-58
-26
3
23
41
59
60
34
-4
-10
-17
-22
5
45
65
66
79
60
20
-16
-14
9
42
55
94
94
87
50
29
10
9
2
34
103
96
109
95
75
24
7
16
32
28
66
66
76
83
52
4
-15
-13
-11
16
46
57
62
65
21
-15
-33
-51
-42
0
16
28
27
33
3
-41
-46
-50
-35
-14
18
50
34
0
3
-40
-80
-55
-41
-12
8
33
46
50
-16
-54
-67
-54
-31
-10
12
28
39
14
-7
-41
-56
-47
-42
-13
12
42
23
33
-18
-51
-69
-53
-29
7
24
32
18
-2
-22
-32
-57
-75
-40
-3
-1
29
43
15
2
-55
-58
-61
-41
-2
21
54
35
10
-30
-38
-82
-56
-29
15
43
23
23
0
-17
-54
-73
-53
-18
12
24
42
18
6
-37
-53
-58
-46
-27
-16
10
52
23
3
-6
-54
-72
-50
-41
16
34
31
35
-18
-24
-46
-60
-60
-30
-1
51
33
11
-4
-28
-42
-62
-43
-22
15
31
28
11
9
-45
-75
-38
-43
-31
12
42
26
14
-13
-34
-60
-61
-34
-26
10
38
34
29
-26
-34
-53
-53
-58
-28
14
27
9
26
-14
-35
-51
-50
-36
-22
9
34
30
27
-28
-55
-58
-50
-45
-23
34
24
39
42
-22
-55
-66
-40
-41
-2
26
34
45
-5
-34
-53
-54
-49
-44
-9
17
28
19
30
-11
-54
-51
-51
-29
-10
19
42
24
23
-12
-50
-36
-52
-58
0
28
28
30
18
-12
-40
-67
-45
-37
-3
32
55
29
-3
-37
-46
-51
-43
-44
2
32
48
31
22
-34
-50
-47
-57
-45
12
41
24
31
-2
-16
-47
-56
-44
-30
11
25
38
28
5
-24
-44
-34
-29
-11
23
38
25
37
23
-33
-27
-31
-47
-3
25
48
37
27
6
-25
-39
-45
-31
-4
20
40
40
26
4
-12
-57
-49
-53
-34
22
39
34
15
2
-41
-50
-48
-53
-37
34
38
45
13
12
-31
-66
-55
-47
-9
28
24
17
22
-9
-33
-56
-34
-39
-3
13
25
21
13
-3
-52
-56
-46
-22
8
6
20
36
21
2
-53
-39
-57
-35
7
29
48
52
49
12
-1
-6
-1
39
107
135
119
103
62
20
-37
-32
-33
-23
-34
-2
4
7
-17
-35
-66
-83
-63
-52
-9
33
44
18
3
-8
-54
-59
-62
-19
19
47
44
32
18
-17
-55
-54
-40
-26
16
31
47
64
13
-30
-52
-44
-36
-6
27
24
26
14
24
9
-45
-45
-55
-14
29
45
55
41
2
-54
-36
-29
-30
0
28
46
36
36
23
-29
-24
-34
-4
-15
17
48
43
38
21
-15
-32
-38
-18
17
25
57
60
48
21
-11
0
-31
-16
21
59
56
82
46
46
-19
-15
-28
9
45
76
71
67
84
42
16
18
-7
18
83
102
88
87
93
59
33
9
24
48
72
106
104
101
89
50
8
3
24
15
47
67
92
86
48
22
5
-17
2
-7
21
68
61
37
31
4
-33
-32
-39
-30
21
42
34
30
18
3
-43
-38
-48
-17
10
39
44
46
15
-27
-51
-51
-47
-25
4
41
59
36
-2
-31
-49
-50
-57
-42
24
38
46
33
15
-9
-64
-47
-49
-31
6
46
15
31
13
-23
-44
-39
-48
-23
28
37
36
28
0
-40
-40
-51
-24
10
-5
27
42
22
19
-45
-68
-49
-44
-13
17
23
22
41
27
-34
-35
-40
-45
-12
25
36
30
33
-13
-54
-42
-42
-41
-10
34
20
36
30
3
-28
-54
-63
-35
-5
16
30
29
16
-8
-42
-60
-54
-42
-13
27
26
23
20
-15
-54
-40
-43
-27
-10
25
16
31
25
-20
-58
-74
-47
-44
7
26
29
45
29
-34
-57
-44
-50
-29
0
16
29
26
-20
-21
-46
-42
-85
-38
8
9
25
28
17
-51
-74
-63
-51
-39
6
28
38
15
10
-44
-74
-69
-48
-23
-8
27
33
20
-7
-55
-59
-57
-46
-18
1
21
35
19
-2
-53
-60
-59
-52
-45
-4
35
14
23
-1
-43
-68
-65
-47
-30
-7
14
7
32
21
-61
-69
-78
-65
-6
-1
37
29
43
-78
-60
-69
-65
-52
-25
14
33
30
-2
-23
-55
-56
-80
-83
-27
7
27
18
27
-12
-68
-79
-42
-65
-22
21
16
-7
-4
-30
-59
-62
-70
-51
-25
1
11
18
0
-29
-49
-61
-85
-55
-10
23
27
10
-8
-38
-66
-73
-55
-56
-18
-8
-5
16
10
-19
-76
-103
-71
-46
7
-4
9
-1
3
-31
-61
-76
-67
-60
-24
-2
7
17
-1
-38
-63
-80
-70
-44
-9
14
23
18
-14
-44
-54
-67
-68
-49
1
20
31
13
-7
-53
-80
-69
-55
-50
-15
-2
12
-4
-17
-47
-82
-114
-74
-50
-12
17
-6
-17
-30
-66
-80
-72
-69
-55
-8
31
-11
22
-43
-89
-89
-87
-88
-40
-10
6
3
-7
-32
-59
-93
-94
-80
-46
-2
-18
0
-44
-21
-70
-100
-87
-59
-25
-24
3
-17
-18
-48
-73
-103
-61
-75
-50
-22
24
28
8
-14
-14
-30
-16
3
40
77
102
79
22
-2
-35
-62
-82
-90
-61
-35
-10
-21
-42
-78
-94
-107
-124
-95
-61
-23
-7
-4
-13
-56
-77
-89
-74
-46
-45
-7
-22
-30
-18
-45
-73
-92
-93
-61
-28
1
-5
-10
-34
-59
-85
-59
-72
-73
-30
-2
5
3
-17
-65
-77
-78
-69
-62
10
13
-4
-9
-35
-64
-98
-87
-72
-59
-37
12
0
-9
-14
-62
-74
-69
-59
-40
-3
-10
-30
28
-8
-64
-58
-59
-55
-49
5
16
5
10
-9
-39
-80
-91
-43
-39
-9
38
31
46
-8
-51
-47
-63
-36
-9
20
49
31
35
23
-16
-46
-48
-29
9
48
57
70
65
19
-5
-2
-47
-31
21
41
61
77
55
25
-11
-60
-33
-1
19
33
27
20
23
-9
-52
-57
-60
-57
-29
-6
20
15
17
-46
-80
-91
-75
-62
-35
1
-7
-6
-20
-49
-87
-84
-82
-77
-36
-32
-25
-12
-2
-55
-72
-115
-93
-70
-42
-8
-3
-15
-24
-72
-107
-93
-88
-57
-41
-19
-2
-25
-38
-55
-76
-99
-88
-55
-45
-13
4
-25
-46
-72
-87
-93
-112
-75
-21
-2
-4
-18
-18
-73
-99
-110
-88
-66
-35
-15
-6
-20
-51
-82
-78
-105
-69
-79
-33
6
11
-15
-40
-84
-99
-97
-94
-68
-15
17
-34
-11
-46
-77
-114
-108
-81
-43
-46
-8
-18
-14
-47
-77
-67
-118
-104
-59
-26
-1
-31
-16
-37
-71
-107
-92
-106
-80
-30
-11
-16
-11
-42
-89
-102
-107
-89
-54
-32
2
-3
-20
-47
-102
-98
-97
-84
-44
-11
-22
-20
-19
-65
-77
-96
-95
-96
-61
-15
-25
-13
-16
-59
-95
-110
-117
-101
-55
-5
-7
-30
-39
-71
-94
-107
-110
-67
-21
-13
-5
1
-49
-96
-104
-105
-86
-81
-40
-22
-15
-27
-19
-49
-86
-102
-105
-73
-45
-44
-18
-10
-47
-71
-107
-105
-104
-100
-18
-5
-25
-24
-38
-72
-92
-96
-99
-96
-52
-5
-20
-15
-17
-79
-117
-107
-103
-66
-38
-16
-13
-18
-43
-61
-99
-118
-96
-68
-41
-23
-11
-17
-47
-73
-99
-101
-93
-73
-49
-27
-8
-19
-33
-98
-102
-102
-104
-65
-26
-15
-27
-32
-54
-91
-90
-95
-83
-71
-52
-16
-19
-17
-54
-96
-70
-83
-98
-88
-25
-10
-20
-40
-83
-88
-101
-88
-88
-47
-21
-24
-27
-15
-59
-114
-92
-108
-101
-38
-19
-21
-30
-41
-70
-79
-113
-94
-105
-52
-16
-20
-42
-31
-58
-90
-95
-111
-78
-44
-25
-20
-42
-25
-74
-91
-99
-104
-62
-54
-22
-15
-8
-26
-67
-85
-109
-125
-74
-32
-25
-17
-13
-25
-68
-94
-80
-86
-81
-47
5
19
-7
-54
-76
-89
-90
-86
-40
-20
1
-9
-10
-24
-72
-90
-80
-97
-52
-38
-53
-16
-24
-41
-70
-102
-98
-107
-76
-31
-1
-7
-53
-49
-58
-102
-109
-116
-57
-22
-4
-14
-31
-46
-73
-109
-109
-98
-62
-33
-15
-11
-19
-35
-91
-104
-117
-97
-63
-34
15
-27
-39
-47
-77
-93
-99
-67
-69
-33
9
-28
-43
-43
-77
-117
-114
-78
-32
3
23
35
28
-9
-14
-18
7
2
29
34
36
34
30
-48
-81
-94
-106
-94
-77
-65
-33
-35
-68
-92
-113
-79
-116
-87
-47
-13
-3
-35
-30
-66
-95
-87
-88
-66
-42
4
-16
4
-32
-47
-82
-94
-88
-64
-26
-17
-18
-21
-19
-45
-77
-87
-84
-36
-20
-21
-9
-10
-19
-46
-72
-101
-103
-50
-9
-5
17
0
-16
-56
-74
-77
-77
-48
-24
10
8
14
-17
-61
-89
-88
-42
-46
-13
5
12
26
-19
-34
-65
-79
-50
-45
-27
48
33
16
-5
-35
-56
-46
-50
-25
19
20
27
24
15
-26
-54
-46
-24
16
54
58
32
33
11
-11
-13
-15
-2
14
47
75
69
64
36
-2
-8
-3
7
26
63
64
81
57
27
-13
-42
-29
-14
-11
26
53
33
0
26
-35
-57
-41
-38
-12
34
20
25
16
-64
-83
-58
-64
-50
-29
10
14
10
13
-43
-79
-70
-80
-71
-29
-2
25
4
-4
-38
-65
-74
-57
-74
-43
-13
8
17
-18
-32
-85
-86
-63
-57
-24
11
2
6
-13
-48
-83
-72
-81
-64
-8
-2
39
9
-17
-49
-73
-70
-58
-57
-6
15
7
-9
-9
-74
-72
-83
-87
-47
-4
-3
7
33
6
-46
-83
-83
-60
-37
-4
3
6
-11
-26
-33
-97
-86
-82
-42
-11
22
19
2
-29
-55
-85
-53
-61
-23
-15
-8
16
23
-41
-75
-84
-64
-73
-27
-7
13
4
-3
-31
-62
-77
-62
-57
-49
-19
23
29
26
-29
-82
-84
-78
-60
-37
-5
12
12
12
-20
-62
-92
-47
-63
-38
-3
-7
34
28
-24
-79
-82
-81
-59
-16
-5
15
3
2
-27
-55
-89
-85
-64
-1
24
27
2
-22
-24
-62
-69
-59
-49
-31
16
35
13
3
-44
-80
-57
-77
-77
-43
28
30
9
-12
-58
-62
-81
-92
-44
-2
29
10
15
-8
-41
-65
-68
-60
-55
-24
22
21
21
0
-44
-68
-63
-63
-34
-8
37
18
-1
-11
-41
-74
-75
-64
-34
-10
31
26
1
-23
-26
-56
-66
-78
-32
8
18
19
6
-39
-49
-59
-58
-56
-30
-6
16
17
-16
-1
-62
-40
-36
-60
-25
-14
25
24
37
-23
-50
-61
-51
-73
-31
-5
22
22
11
-22
-52
-65
-63
-48
-4
-1
26
29
12
-25
-35
-54
-76
-62
-14
-11
31
15
7
-10
-63
-56
-47
-45
-21
7
-16
64
38
-9
-72
-81
-58
-41
2
24
30
21
4
-42
-41
-75
-64
-46
-11
26
33
27
26
-34
-52
-88
-62
-20
-5
18
44
3
-3
-32
-62
-74
-47
-9
23
-9
-9
17
17
-10
-54
-61
-73
-28
20
11
28
37
-1
-36
-63
-45
-44
-17
6
19
34
43
20
-20
-43
-55
-55
-23
15
37
38
42
19
-30
-33
-38
-53
-6
35
27
7
65
46
-36
-64
-53
-57
-15
11
12
28
30
-27
-40
-38
-55
-62
-26
5
29
22
19
8
-48
-58
-59
-53
-7
22
23
21
12
-24
-40
-57
-56
-33
-14
23
50
19
-1
-9
-44
-67
-60
-39
-8
47
20
20
23
-39
-52
-51
-40
-39
-8
11
39
20
21
-12
-49
-69
-49
-32
12
49
70
89
72
53
51
46
67
54
78
105
119
48
48
10
-49
-62
-77
-63
-26
8
27
-4
-8
-55
-50
-56
-60
-54
-8
36
41
40
13
-19
-50
-50
-47
-22
12
40
43
21
9
-22
-32
-24
-25
-28
-2
38
51
25
15
-22
-39
-39
-25
7
25
31
34
60
7
-25
-42
-41
-26
-3
26
65
70
26
5
-34
-33
-34
-34
-5
52
46
54
53
21
-15
-41
-27
-16
8
44
62
62
37
3
10
-18
-24
-7
9
48
70
67
55
33
-8
-3
-6
-2
23
95
92
93
60
32
13
1
15
18
57
94
111
98
87
52
39
13
43
40
63
96
137
125
106
73
61
32
39
45
78
108
117
109
104
62
0
34
25
34
68
101
78
93
58
37
14
-11
-10
0
33
76
62
67
42
20
-52
-25
-36
-23
17
65
36
36
26
1
-39
-35
-27
-22
17
38
40
38
21
-19
-35
-37
-34
-19
24
33
41
40
25
2
-41
-42
-39
-16
15
41
68
53
8
-13
-43
-37
-22
-7
36
42
24
32
22
-20
-45
-31
-32
7
38
45
38
32
19
-2
-44
-37
-43
-16
34
54
51
40
15
-8
-37
-62
-35
5
34
53
44
70
12
-28
-43
-59
-14
19
33
51
49
26
1
-21
-31
-43
-31
0
11
54
56
45
18
-16
-45
-34
-22
0
33
56
27
44
13
-45
-44
-21
-11
-9
26
55
44
23
1
-22
-31
-48
-34
17
40
33
34
24
3
-36
-61
-22
-11
32
43
18
36
19
-2
-32
-45
-54
-1
24
42
25
22
12
11
-25
-46
-32
-16
1
51
47
42
45
-16
-43
-61
-33
4
26
43
56
24
10
-17
-44
-31
-38
-21
29
44
42
64
33
-28
-55
-37
-29
-11
30
35
64
35
-3
-23
-27
-37
-37
-2
32
54
23
34
-2
-21
-22
-41
-35
-3
33
45
47
43
9
-13
-36
-60
-44
-7
24
36
46
28
8
-4
-30
-42
-45
5
35
48
46
51
8
-45
-31
-31
-16
13
10
38
40
41
23
-23
-34
-42
-29
19
9
41
42
35
24
-23
-47
-44
-27
16
38
69
22
43
11
-44
-42
-45
-24
18
44
46
49
24
-9
-37
-45
-38
-18
20
66
46
53
37
6
-42
-49
-33
-10
9
53
64
53
41
4
-31
-68
-24
-9
23
63
53
56
45
8
-23
-32
-23
9
15
44
50
52
44
-7
-32
-57
-62
0
19
38
44
40
26
-5
-30
-62
-66
8
37
32
64
43
18
-20
-48
-45
-37
2
54
24
15
34
15
-17
-35
-53
-29
-9
6
30
50
50
4
-36
-43
-30
-44
-12
52
34
27
16
33
23
-83
-44
-25
-12
35
53
40
33
18
-24
-37
-11
-2
58
92
117
128
143
109
55
39
43
5
23
54
58
27
25
-23
-44
-76
-82
-49
-4
-13
7
17
15
-32
-19
-36
-35
-28
2
14
63
43
24
18
-13
-48
-33
-24
3
33
50
46
41
14
-30
-33
-25
-21
11
31
76
49
30
14
-51
-42
-25
-24
18
57
63
43
24
8
-5
-38
-31
-2
24
63
51
49
26
-7
-20
-25
-43
3
20
63
70
75
46
1
-2
-9
-17
-19
27
67
77
77
31
-6
-5
-9
-4
18
57
73
87
41
57
28
-4
-9
-2
40
87
101
83
84
80
34
25
-4
8
51
104
128
87
109
97
42
31
28
47
86
110
136
112
123
91
36
33
23
24
69
104
108
108
105
41
35
9
-8
20
29
77
96
72
71
19
1
-19
-28
-9
23
68
64
48
23
-1
-20
-21
-21
-24
11
46
27
37
48
14
-19
-40
-48
-36
10
36
50
34
13
8
-44
-51
-28
-14
20
38
46
55
42
-24
-43
-21
-47
-28
8
32
48
48
34
-13
-42
-33
-39
-25
29
46
34
23
6
-12
-37
-34
-38
-14
18
45
51
7
3
-14
-39
-51
-34
-4
34
25
35
16
26
4
-45
-37
-28
-25
23
35
52
35
-2
-6
-31
-59
-38
-29
13
40
50
57
6
-31
-42
-40
-65
-1
25
22
53
30
3
-22
-58
-46
-33
1
21
34
31
32
20
-12
-69
-50
-33
-13
8
67
51
43
-16
-40
-58
-47
-31
-5
15
44
31
22
-15
-34
-42
-52
-38
-6
13
27
43
16
-19
-44
-28
-23
-55
-17
22
41
36
15
-13
-41
-50
-35
-44
-5
19
41
21
49
4
-56
-70
-57
-42
-1
36
39
39
1
-1
-34
-64
-66
-19
-18
14
36
30
11
-17
-60
-41
-39
-38
-2
39
23
29
27
-20
-57
-50
-34
-29
7
25
50
41
12
-13
-29
-58
-37
-23
27
39
37
46
25
-14
-56
-43
-27
-38
21
43
38
31
8
-14
-49
-47
-43
-45
13
31
33
21
-2
-30
-43
-68
-55
-39
-2
24
34
24
-8
-53
-59
-63
-54
-18
23
4
15
27
-10
-40
-66
-59
-47
-31
3
29
14
22
-9
-40
-72
-61
-51
1
7
24
20
8
4
-27
-75
-58
-59
-19
18
10
25
8
-28
-36
-41
-61
-34
-2
-1
35
50
32
13
-8
-19
-3
15
49
88
80
69
33
-23
-67
-49
-71
-61
-46
-20
-4
-11
-17
-44
-73
-75
-49
-84
-69
-20
16
18
20
-30
-57
-62
-70
-35
0
21
24
21
-3
-39
-44
-53
-53
-49
0
30
35
28
44
-12
-60
-60
-47
-55
3
14
30
8
27
-31
-44
-64
-61
-29
4
14
28
40
-5
-43
-49
-37
-40
-14
-6
29
24
23
18
-37
-54
-61
-25
-6
15
28
33
43
-2
-21
-58
-45
-25
2
27
60
32
40
8
-20
-41
-40
-35
20
38
42
51
42
38
-4
-36
-35
-17
25
47
78
88
74
26
-1
-21
-8
7
31
62
79
74
76
42
7
-2
1
18
61
52
76
78
65
26
-17
-11
3
-13
12
47
69
49
38
5
-38
-36
-55
-39
1
11
40
27
15
-25
-41
-71
-58
-60
-18
20
35
20
11
-41
-82
-69
-57
-42
-20
15
-4
-4
-6
-47
-68
-72
-72
-36
-18
10
12
13
0
-54
-68
-68
-89
-42
-3
-15
5
16
1
-58
-67
-63
-53
-42
-3
28
-5
4
-5
-59
-69
-80
-78
-58
-19
28
5
27
-18
-61
-74
-42
-57
-45
-16
-3
16
21
-5
-49
-79
-84
-78
-46
-9
23
10
-10
-22
-53
-107
-73
-73
-12
-5
7
-4
12
-33
-24
-55
-85
-54
3
-32
-2
2
-1
-34
-68
-81
-76
-63
-36
-7
-5
1
6
-34
-74
-81
-78
-65
-29
-1
1
-1
15
-25
-78
-98
-80
-64
-43
3
10
1
7
-56
-80
-90
-72
-73
-54
-5
28
5
-1
-30
-62
-104
-66
-61
-37
9
4
0
-10
-57
-68
-82
-71
-53
-27
-3
2
6
-15
-43
-65
-79
-44
-80
-27
-5
17
32
-11
-25
-55
-51
-60
-52
-23
24
25
11
0
-38
-56
-94
-58
-51
-34
13
33
2
-13
-57
-91
-58
-56
-50
-44
11
19
-7
-10
-68
-71
-92
-105
-49
-4
10
0
7
-16
-45
-83
-68
-82
-47
-4
16
3
-1
-10
-67
-77
-63
-45
-47
-10
10
13
17
-22
-62
-79
-90
-67
-24
-11
7
13
12
-20
-40
-93
-68
-21
-22
-18
39
33
8
-21
-59
-63
-56
-52
22
34
57
62
65
53
33
8
8
21
33
62
68
46
49
-20
-71
-87
-95
-92
-49
-8
15
5
-9
-44
-64
-77
-63
-48
-12
24
38
37
14
-25
-49
-43
-31
-28
1
12
46
45
25
-14
-49
-52
-30
-25
6
35
53
32
27
12
-41
-40
-38
-17
9
44
50
19
25
-27
-46
-35
-20
-24
27
60
70
45
19
2
-25
-69
-34
4
35
59
63
51
38
0
-16
-37
-33
-2
42
70
59
62
38
-5
-21
-30
2
7
42
74
84
77
46
-5
-12
-4
14
37
66
85
113
71
50
24
18
33
-11
52
93
109
106
85
81
64
20
18
39
66
98
139
122
109
77
41
22
24
49
83
107
119
103
111
63
35
11
16
0
48
77
110
83
71
37
-1
-4
-21
-19
41
64
73
66
49
21
-14
-37
-40
-16
68
51
61
44
36
11
-41
-15
-19
-20
20
48
57
45
42
17
-24
-35
-26
8
33
53
63
52
22
14
-10
-26
-20
-6
20
40
56
50
47
11
-17
-44
-14
-11
31
58
60
60
48
-8
-27
-19
-28
10
23
51
62
71
48
-17
4
-19
-23
2
50
58
65
51
28
5
-23
-10
-14
11
52
65
46
47
40
0
-33
-17
-13
4
41
70
64
71
34
-5
-35
-8
-10
18
43
55
62
49
37
-13
-22
-18
-18
9
55
73
54
43
6
-8
4
3
-5
4
56
70
58
50
23
-7
-26
-30
-4
23
47
60
71
62
26
-9
-23
-7
-6
26
65
61
59
57
24
-8
-6
-13
-8
42
51
62
76
40
8
-28
-25
-8
-4
48
57
68
64
53
18
-10
-18
-13
12
46
70
54
61
56
19
-2
-21
-15
16
43
65
59
60
47
26
7
2
-8
-22
18
86
59
80
76
19
-61
-5
3
7
37
48
95
62
63
15
-8
-6
-20
20
54
66
63
79
46
15
-3
-25
-8
27
62
77
78
69
33
11
-21
-6
0
18
58
67
75
54
44
14
23
37
-24
12
68
60
53
90
46
11
-9
3
3
36
71
88
74
91
43
19
-6
1
24
53
74
84
79
89
59
19
3
4
11
39
75
81
76
69
42
12
17
0
-10
16
93
92
68
66
34
4
-14
-9
8
40
48
75
84
64
36
9
-8
-5
4
40
71
82
73
68
32
-5
-7
5
5
46
82
98
104
88
46
7
-46
-28
20
46
78
77
79
64
30
-1
-7
-2
15
33
50
105
81
71
47
21
30
44
80
119
155
163
160
141
140
91
56
52
38
57
95
105
76
18
-3
-10
-11
-18
-3
41
71
80
66
58
20
-6
-2
-6
31
80
113
73
75
61
24
-10
-5
2
32
74
103
96
73
34
-8
2
6
4
27
62
86
77
70
33
-20
9
25
18
49
83
101
85
70
50
46
40
-2
-12
32
74
130
111
118
51
14
12
28
45
56
86
95
91
98
63
33
22
19
28
67
101
101
106
94
69
49
15
35
45
76
109
121
131
99
72
50
54
51
51
104
168
171
76
101
62
74
71
103
64
110
165
164
129
130
102
73
71
77
92
129
159
165
156
145
94
65
74
55
91
112
141
162
142
134
64
21
35
59
67
95
110
130
95
82
32
12
46
64
41
61
91
99
87
67
50
15
-3
-20
30
71
88
103
81
51
28
13
-1
12
37
70
70
94
77
34
11
-7
4
34
46
22
30
72
124
87
46
-7
-19
-5
24
63
75
80
93
49
18
0
-1
3
25
57
92
81
81
47
-1
-20
-1
10
35
70
80
75
75
29
4
3
3
-5
15
72
58
97
96
37
-10
-31
-6
-6
26
65
93
66
93
33
-33
-29
-10
-3
51
96
83
58
41
18
-41
-26
24
-4
46
65
47
65
42
3
-22
-22
-13
-8
27
49
58
84
61
34
-32
-67
-19
-11
41
57
62
58
51
16
-12
-41
-10
26
60
18
79
59
35
-2
-13
-14
1
38
51
73
59
70
39
5
-10
3
-12
2
54
74
82
55
34
-6
-38
-35
-14
21
39
76
76
50
31
7
-32
-24
-3
32
59
66
48
32
39
-11
-29
-12
-18
37
45
63
63
62
31
-5
-11
-9
3
34
57
71
60
60
14
-9
-28
-30
-21
19
42
52
75
67
23
-4
-16
-22
-11
13
49
74
68
47
32
-13
-40
-22
6
20
73
67
44
50
69
1
-61
-19
-4
38
64
64
63
45
16
-6
-8
-11
2
25
54
70
57
45
12
-9
-40
-21
-1
24
40
48
71
85
21
-8
-29
-18
7
50
70
47
60
49
17
-25
-17
-14
25
46
81
92
53
45
38
-38
-31
-9
15
17
76
73
54
34
5
-7
-15
-26
3
72
52
80
58
32
12
-16
-23
-8
21
42
53
69
82
24
2
-12
-30
-3
61
51
49
73
63
40
-4
-8
-13
-21
27
60
88
61
52
43
-12
-24
-15
-7
45
64
78
87
73
56
14
-3
1
14
34
57
81
82
68
49
18
8
5
8
47
66
73
60
67
29
-2
-22
-9
9
27
72
97
63
54
15
0
-23
-13
0
32
51
66
73
57
3
-1
1
-1
-26
46
74
55
70
58
23
-14
-18
-1
5
39
55
53
61
23
11
-8
-8
-20
0
42
69
74
63
55
-1
-10
-3
-8
-11
47
63
81
91
34
-1
7
7
25
56
84
127
152
157
166
117
59
56
76
68
103
129
46
58
43
3
-35
-41
-50
-7
14
41
45
46
27
1
2
-1
-20
33
67
64
82
49
41
13
-6
-13
-2
20
39
67
68
63
28
24
-7
14
5
11
89
67
81
72
35
16
-2
4
9
22
45
70
84
81
56
14
-8
-12
7
39
66
80
68
75
55
20
-4
-6
-12
48
80
85
81
94
49
5
3
5
21
58
98
90
68
90
72
18
16
8
26
55
100
104
93
84
59
65
7
20
53
91
114
117
110
108
64
47
40
45
63
98
130
150
144
128
83
51
51
73
70
114
154
150
145
132
96
67
75
75
88
135
102
135
145
102
52
51
45
42
53
89
113
113
97
58
75
25
1
21
14
78
83
92
81
58
19
-10
-10
10
28
57
86
85
67
30
8
-21
-11
1
8
46
73
78
74
47
10
-13
-12
-8
25
61
89
50
72
35
-5
8
-5
-16
26
55
77
69
73
27
-2
-22
-9
4
46
50
59
65
58
39
-9
-17
-11
13
24
61
71
70
59
22
-12
-5
-6
-7
21
51
79
72
53
29
5
-18
-13
-6
26
86
73
41
54
18
-24
-12
-4
-10
23
61
77
67
51
15
4
-8
-13
-9
48
63
54
49
55
9
-9
-23
-7
-3
33
76
57
45
65
0
-7
-37
-1
-3
37
64
71
57
51
11
-12
-6
-12
7
45
58
74
49
21
-1
-19
-35
-12
-11
31
79
63
61
44
-2
-45
-3
-6
24
35
70
67
41
19
-2
-29
-11
-9
13
11
61
61
58
54
-17
-22
-21
-8
21
39
67
57
48
31
-2
-24
-15
-20
2
32
66
67
60
22
-30
-16
-22
-13
12
42
70
62
56
19
-13
-42
-28
-19
27
32
66
66
51
33
11
-29
-34
-30
14
59
65
54
59
2
-26
-1
-33
-18
24
70
52
53
48
10
-13
-31
-38
-23
14
55
40
58
48
6
-12
-26
-46
-17
46
65
52
59
51
-9
-29
-35
-38
-29
22
62
56
29
43
22
-39
-29
3
-4
21
50
60
40
23
-18
-22
-32
-31
-16
26
50
63
54
14
-22
-21
-18
-49
-16
23
66
54
43
20
1
-26
-41
-25
2
28
56
63
54
8
-21
-7
-36
-32
0
46
64
34
38
16
-25
-31
-38
-11
-1
32
55
64
30
25
-6
-44
-51
-27
2
19
57
73
27
17
-20
-40
-42
-30
8
40
58
48
44
9
-34
-20
-25
-31
-2
37
59
41
43
-1
-29
-18
-32
-38
2
47
40
60
45
0
-12
-11
-28
-39
3
45
76
48
44
2
-20
-31
-29
6
35
44
49
48
31
7
-8
-24
-19
-9
27
53
43
44
41
11
-40
-40
-26
-20
31
29
43
30
36
5
-32
-53
-40
1
21
36
30
49
16
-4
-48
-22
-38
-46
5
34
64
33
26
-33
-43
-30
-29
-15
18
42
41
38
21
-28
-71
-22
-53
-10
30
33
52
38
14
-17
-45
-44
-34
-21
18
36
50
34
14
-30
-18
-23
-2
9
43
72
122
123
97
77
64
38
45
82
87
73
43
38
6
-42
-95
-56
-52
-46
-8
10
8
-6
-25
-51
-56
-34
-30
8
29
49
22
34
9
-1
-40
-47
-50
4
27
47
45
35
-3
-61
-65
-14
-18
8
29
42
63
34
0
-33
-47
-36
-28
-4
24
59
41
37
17
-32
-54
-50
-3
29
38
61
43
21
1
-41
-40
-32
-15
25
31
30
61
42
-5
-49
-3
0
-5
20
47
61
46
13
22
-12
-19
-8
-18
15
65
56
43
44
13
-4
1
-16
10
52
80
100
72
76
17
-22
2
15
32
75
95
111
98
68
37
28
22
46
77
75
107
88
97
95
39
29
29
44
78
91
109
115
92
66
30
28
12
10
28
63
79
70
64
30
-8
-28
-31
-20
8
32
47
45
45
14
-10
-38
-76
-34
-2
22
23
28
26
11
-22
-49
-58
-43
-6
11
46
43
21
-16
-47
-49
-57
-38
-7
40
32
39
19
-23
-61
-53
-47
-44
-3
13
42
32
26
-20
-54
-56
-59
-41
10
28
4
32
6
-8
-42
-42
-64
-35
22
26
13
11
12
-11
-30
-81
-68
-25
14
17
17
32
2
-6
-73
-70
-52
-30
17
22
14
19
11
-29
-56
-52
-58
-39
4
29
20
16
7
-41
-53
-64
-51
-32
4
29
29
7
-11
-39
-52
-55
-54
-37
-5
37
15
11
-4
-46
-52
-57
-53
-28
-18
11
37
47
-2
-55
-68
-69
-54
-24
2
36
16
10
-31
-60
-40
-61
-50
-25
29
18
13
-1
-16
-43
-68
-75
-58
-37
0
41
21
15
-17
-59
-74
-53
-56
-26
18
21
25
-5
-34
-67
-58
-63
-60
-32
-2
21
12
15
-27
-65
-76
-74
-49
-1
25
-11
1
8
-41
-72
-64
-74
-53
-20
24
29
17
4
-33
-60
-72
-48
-29
-43
2
16
1
3
-52
-84
-71
-61
-49
-1
22
10
4
8
-32
-65
-80
-66
-66
-12
9
21
15
-23
-53
-83
-82
-83
-26
1
13
12
-7
5
-49
-77
-67
-61
-45
-8
16
15
4
-15
-53
-79
-73
-53
-53
-23
14
24
9
-22
-60
-76
-70
-55
-28
-9
16
9
-7
-8
-51
-58
-71
-74
-21
-34
-16
13
-2
-30
-57
-60
-68
-63
-46
-17
6
11
-18
-12
-47
-78
-79
-60
-52
-7
5
4
4
-29
-57
-78
-67
-70
-37
2
10
-11
-3
-33
-73
-86
-65
-62
-31
-8
13
2
-4
-30
-73
-92
-60
-70
-40
-14
22
17
-15
-57
-66
-91
-77
-54
-36
2
6
-5
-6
-14
-79
-96
-61
-88
-28
1
4
3
-15
-46
-68
-86
-77
-56
-4
-6
33
21
-17
-60
-62
-72
-82
-46
3
23
18
6
-4
-41
-42
-69
-66
-48
0
20
20
17
-6
-35
-68
-78
-64
-29
-12
2
23
3
-18
-55
-77
-89
-74
-60
-8
14
14
15
-22
-61
-97
-72
-85
-52
-11
-5
10
-28
-11
-44
-77
-73
-78
-46
-30
17
6
8
-26
-74
-93
-65
-67
-43
-19
14
6
-2
-29
-59
-89
-88
-58
-35
-4
15
2
-1
-39
-68
-58
-75
-71
-40
1
27
30
44
4
-21
2
7
8
75
102
94
82
50
-8
-41
-39
-75
-106
-47
-31
-24
-41
-43
-53
-94
-114
-100
-75
-18
-1
-5
12
0
-42
-62
-86
-88
-47
-19
7
31
-5
-9
-39
-72
-87
-65
-60
-28
8
20
14
-9
-42
-55
-61
-73
-68
-22
19
16
13
-2
-34
-56
-68
-62
-49
4
48
-1
10
-3
-15
-51
-81
-62
-16
0
29
22
-8
-22
-39
-25
-52
-68
-39
3
25
38
29
-9
-31
-46
-36
-52
-30
19
33
30
39
22
-19
-32
-38
-28
-7
34
47
46
47
26
-7
-32
-15
0
0
46
73
70
60
45
11
-3
-1
17
69
92
48
77
88
63
27
6
1
15
56
74
94
94
94
51
8
2
4
-14
46
69
90
73
65
26
-20
-34
-28
-11
6
39
38
30
17
-6
-22
-49
-56
-51
5
17
25
17
40
5
-54
-84
-75
-36
-36
-2
41
14
-2
-26
-50
-65
-65
-56
-2
26
33
-9
-6
-29
-56
-58
-67
-42
-11
-6
25
29
-1
-34
-57
-58
-52
-45
-11
18
9
14
-3
-38
-75
-68
-59
-52
-6
45
6
13
-3
-32
-51
-66
-58
-31
10
23
-6
2
-9
-40
-63
-85
-29
-33
3
6
23
34
-5
-51
-67
-79
-51
-31
5
26
11
15
-5
-29
-98
-77
-53
-25
8
28
29
19
-20
-62
-59
-48
-78
-34
6
31
8
7
-18
-37
-61
-64
-55
-33
-5
24
27
22
-23
-51
-68
-68
-37
-21
10
34
9
-8
-28
-56
-72
-60
-53
-27
22
50
-12
11
10
-50
-69
-59
-55
-18
-3
27
35
17
-32
-69
-66
-58
-41
-28
25
36
10
-2
-34
-56
-63
-52
-48
-30
18
34
-1
-4
-36
-31
-76
-61
-54
-5
22
25
11
21
-39
-54
-65
-86
-48
-9
37
43
12
16
-30
-64
-45
-52
-44
-12
31
29
9
-21
-33
-57
-51
-57
-44
0
18
35
27
-2
-50
-58
-56
-61
-14
5
39
21
7
-21
-28
-44
-45
-50
-14
0
23
21
15
-7
-33
-62
-80
-42
-3
-8
17
40
36
-8
-35
-52
-64
-53
-23
33
35
21
6
-16
-35
-50
-55
-50
-23
11
29
36
22
-2
-14
-75
-68
-57
-20
23
32
28
25
-12
-60
-50
-42
-40
-23
16
41
38
29
-6
-58
-69
-41
-36
-6
15
23
25
17
-35
-49
-42
-56
-47
-4
42
57
18
12
-7
-25
-74
-53
-35
14
6
17
46
25
-31
-39
-57
-44
-45
1
28
48
8
13
-4
-56
-56
-54
-40
-3
33
55
13
17
-23
-41
-45
-47
-21
10
31
31
53
34
-7
-31
-42
-26
-6
16
65
44
37
17
-18
-30
-39
-38
-20
26
43
45
48
2
-14
-36
-63
-59
-19
26
24
51
20
8
-36
-41
-53
-55
-30
14
53
32
41
2
-34
-60
-56
-56
-7
29
37
37
21
-6
-22
-35
-54
-31
-21
15
40
31
14
8
-40
-44
-52
-34
1
-4
30
47
63
-11
-41
-60
-48
-36
-7
22
42
37
27
16
1
-39
-21
-4
55
89
144
150
127
108
63
32
19
15
19
37
32
19
24
-28
-59
-97
-81
-66
-37
6
31
18
22
-14
-33
-41
-38
-39
14
54
39
31
29
12
-23
-35
-38
-20
23
35
49
56
15
-8
-36
-23
-23
-9
27
47
45
43
30
4
-1
-31
-27
-15
46
56
36
46
21
-15
-22
-34
-26
3
36
46
67
49
13
14
-30
-25
8
20
31
57
59
64
43
0
-23
-10
-23
18
47
71
74
76
55
9
-21
-22
-7
7
55
99
100
71
51
37
8
-1
26
57
83
104
102
92
59
31
25
28
46
58
112
137
116
111
86
59
45
43
64
103
119
139
124
130
93
63
13
23
103
92
97
131
127
111
70
35
36
26
16
62
90
118
79
58
31
-11
-4
9
12
52
44
62
73
57
13
-23
-27
-23
-8
26
39
54
57
38
21
-41
-16
-26
-19
19
52
63
47
47
11
-17
-17
-25
-12
27
41
72
41
18
7
-30
-8
2
7
8
35
47
47
32
-2
-25
-37
-11
-11
37
44
54
52
40
-12
-35
-34
13
11
29
51
56
64
27
-5
-21
-25
-11
-1
28
55
42
44
22
-7
-29
-35
1
23
37
77
60
37
11
-18
-34
-24
-25
22
47
82
54
43
12
-24
-21
-39
-23
15
55
65
53
33
41
-7
-37
-13
-17
14
33
67
68
45
19
-14
-22
-33
-24
10
42
56
59
66
21
-16
-29
-22
-12
16
37
77
61
34
30
-33
-28
-11
-16
19
51
56
46
50
8
-31
-31
-27
-8
36
49
74
67
36
2
-20
-33
-18
-15
23
49
55
58
49
-4
-19
-39
-15
-17
38
50
75
58
31
2
-33
-27
-21
-9
35
59
50
54
31
22
-9
-30
-43
6
34
49
74
58
32
1
-31
-29
-26
0
49
66
70
38
30
-6
-26
-11
-23
4
41
62
68
55
29
4
-20
-20
-33
7
61
42
64
56
21
10
-11
-18
-15
16
39
65
50
42
13
-5
-34
-18
-10
23
49
56
68
76
27
-9
-29
-18
2
5
42
64
62
58
26
-12
-29
-18
-27
13
51
56
56
48
32
-10
-13
-21
-25
20
70
68
64
55
7
-12
-23
-7
-12
18
62
66
68
53
21
-2
-13
-32
-8
25
58
64
60
38
21
0
-35
-16
-1
51
63
47
52
57
20
5
-29
-12
-13
34
64
64
58
60
17
-39
-17
-10
1
40
58
48
61
58
19
-13
-5
-19
-1
35
69
75
74
53
4
-6
-25
-6
23
66
64
78
68
51
26
-29
6
-3
29
51
84
84
82
31
12
0
-10
19
11
48
78
81
39
31
17
-19
-14
-13
12
35
72
67
62
33
1
-28
-10
2
8
47
68
62
46
35
-14
-18
-18
-2
33
48
63
70
56
42
7
-36
-11
-24
24
52
68
70
66
22
8
-15
-19
-7
16
55
68
64
50
21
-3
-19
-12
5
19
51
64
79
79
59
15
-1
36
94
121
168
176
159
142
100
63
15
15
19
25
55
53
26
4
-30
-43
-48
-33
-23
14
49
57
61
23
17
-1
-14
-16
-1
43
74
76
60
61
23
-2
1
-9
12
52
72
84
67
57
10
-6
-3
-2
19
44
80
86
68
42
18
-1
2
1
40
51
71
84
71
39
18
-3
-3
0
41
63
79
91
65
49
19
-4
3
9
47
53
98
87
79
50
31
27
8
21
52
84
86
83
69
51
50
29
21
41
61
88
102
103
103
78
54
11
22
52
74
108
151
107
119
86
80
47
45
60
109
139
141
159
152
115
48
60
79
86
111
152
164
155
136
109
77
74
79
84
109
135
132
145
121
104
57
19
37
50
84
110
100
100
65
63
53
-2
18
13
54
80
96
83
57
34
7
-11
-14
27
86
75
74
64
64
25
-9
0
3
19
57
75
75
79
65
33
-19
-32
2
21
65
70
69
81
39
32
13
-3
-5
25
35
66
86
72
42
5
-7
-5
5
31
42
92
76
72
45
29
3
-3
3
27
50
85
77
68
54
18
-19
-2
4
29
65
84
69
67
47
16
0
-33
-3
35
62
96
61
58
47
6
-32
6
12
31
61
79
79
71
42
4
-6
6
4
42
69
77
82
66
33
-8
2
-7
13
48
66
56
77
54
43
-3
-11
7
-4
32
63
79
81
52
23
8
-8
-1
4
50
64
87
61
60
28
-10
-11
-3
-5
25
60
81
89
71
28
-15
-23
-1
0
66
88
72
68
50
14
10
-10
-5
9
53
85
80
59
52
21
-16
-15
-6
17
40
58
68
101
69
25
0
-17
-2
23
38
84
82
55
42
17
-10
-11
-5
23
62
60
75
81
44
10
-1
-3
4
35
57
75
74
58
47
-1
8
-17
8
33
61
81
79
58
37
3
-4
-13
1
43
53
75
77
59
35
18
-2
1
6
32
57
81
82
75
42
-11
-13
-8
1
55
61
72
76
74
40
4
0
3
-7
42
71
72
69
65
29
24
-24
30
16
54
57
80
85
78
32
3
-2
5
29
58
84
99
92
69
45
16
5
23
38
45
51
97
86
76
39
8
-8
3
28
60
68
74
65
46
21
0
-3
23
-1
40
65
81
62
52
25
2
3
-9
-2
53
102
97
62
39
13
10
-17
-9
14
61
77
73
47
52
13
-5
-12
-2
15
64
80
77
64
43
4
-7
1
-10
24
52
85
85
71
51
4
-4
-5
4
13
60
110
124
111
104
96
77
65
94
115
127
153
156
91
92
25
-11
6
-14
-2
28
47
33
35
12
-29
-34
-21
-7
35
46
81
84
73
33
4
-4
-3
19
32
74
77
74
79
51
12
-8
4
28
36
76
90
83
70
33
19
1
1
37
39
62
85
88
94
45
12
-3
6
28
28
59
95
132
76
54
16
-4
13
22
75
82
96
85
87
27
17
31
5
19
60
97
99
93
86
54
15
9
36
47
68
98
131
106
70
51
14
37
58
61
100
125
116
124
112
64
46
45
66
79
108
141
143
135
118
77
56
61
66
106
146
158
169
151
133
103
79
80
88
119
129
163
160
135
123
88
70
68
80
94
126
132
136
139
95
41
11
32
53
67
94
113
100
87
70
31
-11
27
32
36
76
85
80
87
25
34
28
9
-7
44
70
82
87
65
40
8
-2
4
14
38
81
105
72
80
27
-1
4
6
20
43
58
83
74
78
36
22
-10
0
9
47
86
73
96
63
55
16
-27
1
23
53
96
75
72
72
25
3
2
1
25
75
67
94
74
72
40
-19
-5
-2
50
62
67
79
84
73
7
0
-5
-4
33
49
84
90
77
59
23
4
-12
21
15
65
94
84
96
53
23
-24
-9
14
35
69
85
76
64
56
21
-4
-3
12
18
47
62
86
69
59
38
13
-2
12
27
59
83
76
80
54
-1
5
5
8
19
70
76
82
58
49
9
-4
-4
-10
31
59
97
72
76
39
10
-5
-7
3
37
62
84
81
62
52
22
-15
0
-23
40
83
73
69
64
16
14
-4
4
23
34
72
95
104
60
32
-9
0
-14
6
51
78
71
74
63
26
-3
-9
6
21
52
50
92
91
47
8
-3
-6
7
16
52
79
90
70
41
6
-2
-11
0
23
53
85
67
56
67
51
8
-9
-7
13
55
66
66
92
59
22
-5
-10
2
36
53
61
95
82
51
20
-4
10
-3
18
47
69
68
73
62
15
15
-3
8
-2
46
76
76
69
49
32
-9
-5
-7
22
72
82
72
49
37
15
-2
1
1
27
51
90
66
76
50
18
-3
-13
-5
34
56
82
93
86
26
7
-16
-13
10
44
83
79
74
93
21
-10
-20
-2
4
33
65
88
74
72
53
26
-15
-5
-2
55
74
88
79
79
49
10
-17
16
17
50
79
118
85
77
56
-9
-1
-2
24
44
58
126
74
62
22
0
-1
-4
4
44
74
69
72
60
13
-10
-14
-10
19
37
90
87
86
74
-23
-31
-7
-4
13
34
68
73
78
51
15
-12
-31
-11
27
55
60
81
73
43
18
-30
-30
-15
35
45
79
70
71
32
0
-22
-14
8
21
53
87
66
63
40
10
12
-1
45
82
118
121
156
168
138
101
56
59
51
56
82
85
65
58
33
-34
-56
-83
-33
4
20
47
46
51
38
8
-39
-18
-3
21
61
73
69
46
16
11
2
-13
-12
39
77
70
76
65
29
-17
-16
-16
2
49
69
77
60
56
35
0
-27
-22
30
31
59
70
73
63
29
3
-12
-12
-10
31
80
89
74
63
23
-13
-4
4
4
44
81
95
67
58
36
26
-18
-11
18
57
75
79
82
66
14
-6
1
9
45
80
55
71
100
74
40
12
1
12
56
80
103
101
101
84
68
51
24
37
49
90
128
118
107
93
61
35
46
72
88
125
121
142
127
127
75
31
50
55
83
102
137
127
110
87
50
34
31
31
36
68
96
104
93
51
-5
-14
-4
-2
39
57
68
77
46
21
-6
-23
-26
-15
11
31
50
52
73
16
9
-39
-37
-25
-6
41
57
55
16
0
-17
-47
-40
-28
1
46
65
43
35
-5
-23
-43
-30
-13
17
28
41
21
12
-14
-3
-27
-51
-36
10
47
41
50
27
3
-38
-55
-36
-22
12
27
37
24
29
-20
-53
-37
-56
-17
16
32
58
28
-7
-19
-42
-46
-41
-27
5
32
30
13
14
-14
-44
-45
-35
-35
4
26
28
32
-1
-15
-60
-52
-36
-36
-3
32
43
42
-13
-50
-66
-44
-44
-44
4
24
27
20
7
-36
-49
-69
-62
-36
16
25
19
19
-13
-38
-64
-55
-55
-45
-2
23
30
13
-15
-40
-63
-76
-48
-16
-10
38
8
11
-30
-60
-62
-51
-57
-38
34
4
1
6
-26
-58
-67
-64
-77
-43
10
35
-13
-1
-27
-77
-74
-67
-65
-25
1
4
4
4
-39
-59
-67
-80
-73
-32
-12
25
-3
-10
-35
-61
-69
-72
-83
-34
33
3
-16
14
-51
-95
-78
-86
-60
-34
-10
15
-10
-16
-42
-78
-78
-73
-72
-34
-13
10
3
-11
-53
-87
-82
-86
-66
-33
6
10
-8
-13
-78
-96
-80
-71
-61
-39
4
5
-17
-38
-75
-101
-84
-42
-47
-35
-8
-13
-25
-20
-76
-99
-104
-74
-55
-33
-10
17
-16
-34
-87
-85
-97
-57
-65
-42
-15
-14
-26
-42
-75
-92
-90
-88
-50
-11
-3
-39
-21
-43
-83
-90
-95
-81
-61
-36
-5
-4
-30
-46
-68
-107
-87
-75
-58
-43
-5
-7
-12
-61
-89
-96
-92
-101
-53
-6
-20
-26
-28
-61
-81
-97
-100
-96
-57
-28
4
-34
-36
-80
-96
-98
-100
-75
-52
-24
-17
-14
-30
-72
-83
-100
-115
-87
-62
-26
2
-19
-28
-78
-95
-104
-62
-52
-65
-13
-6
-37
-35
-54
-92
-92
-90
-78
-29
-12
-3
-18
-24
-49
-96
-107
-107
-83
-41
-11
-23
-25
-42
-84
-115
-115
-107
-68
-33
-28
-19
-33
-38
-101
-127
-84
-106
-93
-49
-26
-25
-42
-57
-90
-118
-111
-103
-82
-48
-40
-15
-30
-55
-96
-105
-120
-97
-87
-62
-33
-31
-41
-64
-99
-113
-124
-104
-80
-41
-35
-44
-42
-58
-106
-121
-114
-105
-80
-51
-23
-16
-9
-97
-96
-91
-98
-84
-4
40
46
54
56
29
-16
-20
-36
-60
-59
-16
-43
-68
-54
-102
-120
-158
-148
-146
-107
-82
-70
-57
-60
-104
-130
-121
-132
-109
-71
-43
-40
-31
-46
-71
-106
-128
-91
-104
-78
-44
-26
-52
-60
-92
-116
-118
-120
-111
-63
-2
-35
-50
-52
-73
-130
-113
-134
-103
-55
-31
-42
-27
-71
-103
-127
-115
-96
-92
-60
-51
-36
-41
-47
-99
-119
-116
-118
-88
-57
-30
-22
-34
-45
-73
-123
-141
-109
-82
-37
-15
-18
-52
-49
-80
-82
-88
-124
-88
-56
-21
-2
-11
-30
-81
-108
-85
-91
-66
-26
1
13
22
-36
-47
-76
-68
-59
-45
2
14
19
14
-10
-31
-59
-54
-30
-15
13
37
26
26
-9
-6
-58
-48
-52
-17
14
38
24
3
-33
-67
-87
-71
-96
-42
-12
-9
2
-16
-59
-84
-101
-103
-100
-76
-27
-41
-41
-39
-77
-108
-126
-127
-114
-80
-41
-31
-42
-48
-89
-126
-134
-135
-122
-79
-53
-33
-48
-65
-78
-137
-149
-128
-112
-73
-47
-54
-42
-51
-110
-135
-140
-113
-84
-77
-56
-64
-58
-62
-89
-138
-122
-115
-109
-79
-32
-32
-67
-69
-108
-129
-107
-125
-108
-74
-40
-60
-54
-58
-106
-138
-141
-114
-116
-76
-32
-56
-42
-66
-104
-136
-140
-120
-91
-66
-30
-42
-55
-82
-95
-122
-133
-116
-106
-71
-35
-58
-39
-82
-95
-122
-118
-112
-100
-64
-50
-42
-60
-97
-96
-132
-137
-122
-78
-54
-56
-54
-63
-83
-115
-120
-135
-121
-91
-47
-48
-40
-39
-79
-112
-128
-124
-121
-79
-62
-37
-44
-67
-82
-130
-122
-117
-106
-76
-67
-60
-52
-50
-86
-104
-129
-126
-130
-98
-43
-22
-55
-75
-86
-97
-126
-106
-119
-89
-60
-35
-47
-72
-104
-114
-126
-130
-114
-78
-50
-29
-37
-61
-114
-129
-121
-120
-108
-81
-42
-36
-66
-59
-77
-100
-146
-128
-105
-65
-42
-52
-55
-63
-80
-126
-103
-151
-97
-70
-58
-36
-43
-70
-100
-114
-127
-117
-97
-63
-37
-52
-40
-69
-93
-124
-121
-103
-98
-78
-48
-51
-33
-57
-95
-120
-132
-123
-80
-56
-23
-37
-45
-69
-95
-133
-118
-113
-87
-51
-35
-34
-19
-85
-96
-120
-122
-124
-92
-58
-24
-24
-32
-72
-106
-114
-99
-111
-96
-73
-37
-35
-42
-74
-107
-110
-100
-99
-64
-49
-41
-33
-46
-65
-93
-114
-112
-121
-73
-40
-33
-32
-47
-71
-80
-128
-122
-90
-81
-56
-29
-22
-42
-80
-83
-103
-110
-108
-82
-33
-4
-19
-37
-77
-126
-122
-108
-106
-58
-22
-24
-29
-24
-87
-114
-113
-96
-107
-58
-32
-31
-19
-28
-68
-96
-108
-86
-97
-55
-15
-11
-12
-27
-82
-83
-81
-102
-89
-13
-25
-33
-16
-20
-71
-97
-101
-77
-64
-49
-36
-19
-44
-28
-58
-138
-117
-104
-67
-39
-27
-33
-38
-44
-70
-107
-99
-104
-89
-34
-17
-22
-39
-54
-86
-97
-103
-95
-70
-31
-18
-34
-19
-73
-83
-116
-106
-102
-69
-23
-18
-30
-23
-72
-90
-104
-107
-102
-66
-24
-42
-35
-24
-64
-75
-88
-104
-92
-79
-29
-10
-9
-12
-72
-69
-96
-80
-75
-17
48
57
83
71
54
11
10
-13
-62
-27
8
14
-24
-46
-85
-113
-135
-130
-106
-75
-76
-24
-44
-45
-84
-98
-107
-96
-83
-26
-34
-8
-11
-25
-50
-84
-104
-106
-68
-38
-5
0
-17
1
-47
-83
-92
-84
-85
-47
-10
-2
-23
-18
-52
-87
-78
-59
-69
-28
14
12
-21
-29
-70
-91
-78
-80
-60
-36
10
18
2
-31
-68
-81
-85
-67
-48
-17
4
3
21
-14
-46
-78
-71
-72
-46
-10
29
26
-3
-38
-55
-75
-52
-52
-22
12
19
22
18
-5
-11
-45
-55
-44
-14
10
50
53
31
13
-23
-30
-47
-40
15
42
62
71
47
32
1
-7
7
-17
33
64
69
73
62
38
14
-9
-6
-5
27
50
77
52
65
28
-12
-49
-41
-29
-15
38
52
45
34
-5
-41
-75
-47
-36
-40
-2
13
21
6
-37
-59
-57
-71
-74
-41
-5
15
-1
-25
-45
-71
-87
-68
-55
-33
7
9
-10
-16
-59
-87
-102
-74
-56
-9
16
-2
-6
-17
-43
-76
-91
-88
-83
-6
6
-17
2
-27
-43
-82
-87
-63
-46
-24
-9
10
1
-36
-50
-88
-73
-84
-53
-28
9
8
1
-38
-60
-92
-83
-64
-41
-16
26
6
3
-37
-80
-76
-85
-69
-49
-25
21
14
-9
-25
-64
-83
-76
-82
-39
-23
2
12
-7
-30
-57
-56
-74
-66
-52
-16
-9
6
-5
-31
-48
-66
-85
-81
-53
-12
9
-3
-14
-36
-62
-84
-68
-66
-41
-2
15
-15
-7
-42
-80
-97
-71
-71
-30
-8
11
10
-12
-26
-55
-88
-84
-84
-51
19
42
-10
-18
-48
-78
-103
-82
-61
-36
7
19
-14
-32
-44
-90
-83
-75
-86
-15
-10
-5
12
-6
-49
-72
-89
-74
-92
1
4
24
-2
-41
-70
-70
-64
-79
-65
-7
-5
6
6
-29
-50
-70
-105
-84
-60
-26
-9
13
-9
-14
-54
-88
-72
-82
-49
-21
1
16
11
-20
-47
-93
-80
-73
-68
-31
18
13
26
-19
-53
-47
-90
-50
-35
-4
19
14
7
-18
-35
-73
-78
-52
-36
-5
11
-21
-2
-15
-62
-75
-60
-65
-48
