42
42
46
39
37
36
40
45
43
42
43
44
44
34
36
39
46
40
40
44
42
41
41
41
42
42
41
42
42
40
44
42
38
39
43
42
41
44
38
41
42
45
42
41
43
45
40
39
39
41
41
40
39
41
42
40
43
38
39
40
41
45
38
41
43
41
38
41
39
42
40
39
39
37
38
40
41
38
41
36
37
37
38
42
41
40
36
35
37
36
34
37
37
37
31
35
36
35
33
34
31
35
34
33
34
32
32
34
35
34
35
37
33
32
36
37
35
37
34
33
38
40
39
36
33
38
37
38
42
37
39
37
40
40
39
43
40
40
44
42
43
44
42
42
42
46
38
47
44
42
44
43
44
43
45
44
43
43
39
48
48
43
50
48
45
45
47
51
48
49
54
50
55
57
61
59
60
61
67
59
60
56
58
60
62
61
61
64
65
58
57
56
55
54
50
45
43
39
36
36
45
41
41
41
39
39
38
40
42
41
36
40
39
41
40
37
38
42
38
38
41
41
40
42
39
40
38
36
35
38
36
41
51
59
73
87
105
123
135
144
155
172
185
182
167
128
98
85
66
46
23
14
26
30
39
43
44
48
49
46
41
43
44
43
42
43
47
42
36
40
41
41
37
39
42
37
37
42
36
39
40
38
37
39
40
38
44
44
34
42
40
40
39
39
40
40
38
36
40
41
42
42
40
39
40
41
39
44
44
47
44
38
38
41
40
47
48
43
44
46
47
44
49
48
45
42
48
48
50
49
51
48
51
52
53
53
59
51
50
54
53
53
55
59
55
59
58
57
59
64
64
65
62
64
67
69
67
70
73
70
72
76
71
79
77
76
81
79
78
79
84
83
85
81
83
85
88
86
84
85
87
83
86
84
87
83
81
76
71
78
76
73
76
70
72
68
62
63
65
64
61
61
60
58
57
51
52
51
50
50
49
46
48
47
48
49
45
45
45
43
42
42
42
46
42
43
46
45
44
43
44
43
43
42
39
42
42
43
45
45
43
43
43
42
39
42
43
47
45
48
38
42
40
44
44
47
43
45
45
47
42
46
45
46
47
46
44
43
45
42
44
48
43
45
42
49
46
44
47
47
45
49
47
43
46
46
46
46
46
47
45
53
49
43
45
47
45
48
48
44
45
45
46
41
45
47
46
46
45
49
46
46
47
44
47
47
47
46
46
45
48
45
43
46
44
42
46
47
47
46
44
46
44
42
49
46
49
43
47
43
43
45
40
41
44
41
47
50
47
45
44
46
47
42
47
45
44
44
46
43
47
45
46
46
42
42
48
43
42
42
43
47
44
47
44
51
45
42
44
44
48
47
47
44
48
46
51
55
57
60
60
57
58
60
60
64
63
58
58
58
62
62
61
63
60
55
56
54
55
53
50
42
42
39
39
38
42
43
41
37
41
40
39
42
37
38
38
43
39
37
38
37
39
39
44
36
35
41
43
39
40
35
37
41
42
41
40
48
51
65
76
93
111
128
148
154
163
176
183
177
147
107
87
62
38
20
15
18
22
25
36
37
39
46
45
47
42
46
44
44
45
41
39
42
41
46
44
41
47
41
40
42
41
40
40
45
43
42
41
45
43
40
44
44
46
43
46
43
41
46
44
42
42
44
48
47
48
45
45
46
45
49
47
50
49
46
44
46
51
50
47
47
47
50
49
52
51
51
52
52
51
52
52
52
54
53
55
59
57
57
54
57
56
55
62
61
63
62
63
59
59
63
63
68
62
67
71
71
69
73
74
73
72
80
77
73
77
81
81
85
83
84
85
83
89
86
87
85
94
95
88
89
87
89
94
92
94
91
85
88
88
85
85
83
82
79
77
78
72
73
73
69
66
64
61
63
63
55
54
56
53
54
47
46
52
49
48
44
46
45
44
43
44
45
42
44
46
45
41
36
40
40
43
45
42
44
44
43
38
40
40
42
41
42
39
44
46
39
41
40
41
42
39
43
44
41
41
42
39
45
41
42
42
41
42
43
47
47
47
43
44
37
40
45
42
46
42
41
43
39
46
47
44
45
43
47
41
40
41
39
40
42
45
41
40
40
42
43
39
44
45
42
37
39
43
43
41
39
42
41
40
38
37
41
43
39
37
37
38
45
40
38
36
34
38
37
39
36
34
32
36
38
37
32
40
38
34
36
38
35
40
39
35
36
35
37
32
38
41
39
36
38
35
33
39
30
35
34
40
37
36
35
35
35
35
40
33
33
39
36
37
34
39
37
42
45
43
49
47
49
51
50
51
47
51
51
52
51
51
48
51
52
51
47
43
46
42
39
36
33
33
32
30
29
29
28
31
24
30
28
28
28
29
30
27
29
29
29
28
30
30
32
28
25
30
31
31
32
30
28
28
27
31
29
30
32
48
54
68
80
92
112
128
137
140
148
164
144
115
77
64
42
18
3
-1
6
9
10
19
21
25
28
29
32
35
30
32
39
31
33
28
32
29
32
31
34
33
28
30
25
30
32
31
28
30
28
33
39
31
33
30
34
33
35
37
33
29
33
31
30
35
33
38
34
35
29
40
33
35
35
33
36
37
35
36
37
34
40
39
35
35
39
39
37
41
41
36
39
40
38
37
39
43
43
44
39
45
43
42
43
43
46
47
47
46
46
48
52
53
47
50
49
61
58
55
57
58
63
60
59
65
62
62
69
69
67
68
70
68
73
74
75
77
76
79
78
74
77
76
73
80
79
78
77
78
78
75
76
71
71
68
68
66
66
60
63
61
58
53
55
51
49
45
47
41
43
44
41
41
37
36
36
40
34
33
29
30
29
33
29
30
26
29
30
25
27
28
25
26
26
31
28
26
27
26
26
26
26
29
26
28
26
28
28
26
30
28
32
25
21
30
33
28
30
28
27
28
32
34
30
29
30
32
32
32
31
32
30
28
31
31
33
34
31
29
34
32
34
30
31
31
36
37
33
35
31
32
33
30
33
34
33
31
33
28
29
32
30
33
30
34
31
31
31
30
26
27
31
31
32
32
28
27
29
28
29
31
29
26
28
28
25
30
30
30
29
26
27
28
28
28
27
31
31
30
29
33
26
24
30
25
26
30
30
26
28
26
23
26
27
26
25
26
25
24
28
26
28
28
27
25
23
27
30
32
31
27
28
30
38
40
38
46
43
39
42
43
41
40
41
40
41
43
42
42
42
39
35
35
37
33
30
28
29
26
26
24
20
27
25
24
25
25
24
25
25
19
22
22
22
23
27
23
24
21
25
28
25
22
25
24
25
26
25
20
22
16
19
24
26
30
41
52
67
82
96
118
126
132
144
157
161
143
108
83
65
45
30
11
3
7
16
21
23
25
26
33
33
36
26
28
27
27
23
21
27
30
27
26
26
26
26
28
25
28
30
25
27
22
29
33
29
29
22
28
26
29
28
29
28
30
30
31
29
30
30
28
32
28
29
30
31
30
29
33
34
32
30
28
32
28
36
33
36
37
32
28
30
34
40
33
37
32
32
33
35
37
38
41
40
43
43
39
41
40
40
39
43
44
41
39
47
45
46
43
48
48
51
54
52
50
52
54
51
54
57
61
59
62
61
61
65
63
63
68
64
68
66
70
70
68
72
70
68
70
73
73
70
66
69
70
72
69
66
63
64
59
61
57
60
59
55
54
49
47
47
47
41
42
44
41
41
34
33
36
36
34
29
36
34
30
30
29
28
29
25
27
27
30
26
25
26
24
28
27
25
25
28
26
24
22
26
25
23
27
23
28
27
23
25
21
30
25
21
25
26
26
24
26
21
25
30
28
23
25
26
32
28
24
27
32
25
27
26
24
26
29
23
24
26
29
26
31
26
26
30
29
27
28
26
31
32
33
23
23
21
27
27
27
26
25
25
23
26
29
26
27
23
27
24
26
28
29
28
26
27
26
28
28
26
26
26
27
27
22
30
27
28
27
23
25
29
28
28
28
29
26
26
29
26
27
27
26
27
26
22
26
27
26
29
28
20
27
31
25
24
25
28
24
26
24
28
29
23
27
31
26
26
28
26
24
25
25
20
26
26
26
29
27
23
27
27
23
29
23
26
26
26
25
25
28
25
27
30
30
32
36
36
36
40
42
40
39
40
40
42
41
40
40
42
44
44
42
41
40
40
36
35
38
34
31
25
21
23
20
23
25
21
21
24
23
21
23
19
21
19
24
23
21
23
22
20
22
21
21
20
23
23
24
25
19
18
20
18
17
19
16
18
19
22
34
42
55
64
82
104
112
129
134
150
168
167
152
124
94
78
55
36
18
10
14
14
22
33
25
29
32
35
25
29
23
23
21
26
22
23
26
24
22
24
20
19
23
26
21
21
20
24
23
21
19
21
26
25
21
25
24
24
24
23
27
24
23
18
28
26
23
24
27
27
23
26
27
27
26
29
30
29
27
24
28
30
30
28
34
31
26
29
30
34
34
31
30
30
31
33
35
37
36
34
32
36
35
38
42
38
40
42
39
44
43
42
43
45
43
46
52
48
49
51
51
57
55
56
59
61
60
61
62
61
59
64
70
67
71
69
73
72
76
77
76
73
76
73
77
77
75
78
78
75
74
72
76
72
71
71
74
70
64
62
63
67
58
56
57
58
56
54
60
46
47
50
45
44
44
43
39
44
40
40
39
35
41
38
39
38
33
38
38
37
36
35
33
32
33
34
38
33
31
35
30
35
35
35
34
32
36
36
37
33
31
32
31
34
31
32
31
32
37
37
29
32
28
28
33
32
35
32
35
34
32
32
27
32
33
30
35
31
37
34
30
35
30
33
35
35
30
32
31
33
30
31
33
36
34
34
34
31
34
36
32
31
33
32
38
30
33
29
33
33
37
34
35
34
33
33
32
33
30
29
35
35
31
35
35
34
37
35
33
31
34
31
29
23
34
34
32
35
36
38
34
33
34
34
33
29
35
32
31
32
32
25
31
34
34
35
35
35
29
33
33
34
31
35
32
32
31
33
31
32
30
30
33
34
30
30
35
32
34
29
23
29
31
37
30
31
30
31
33
30
32
32
33
32
33
29
33
29
33
33
36
29
33
32
33
36
38
36
38
38
40
43
44
48
50
47
52
51
47
46
48
50
50
52
50
53
52
50
48
45
45
44
43
40
38
30
36
33
27
33
32
31
26
35
29
35
33
29
30
35
27
26
32
31
30
33
27
24
27
26
28
27
24
32
23
29
26
25
17
18
20
20
29
38
48
58
64
83
100
117
9
13
17
22
31
33
28
27
23
29
25
25
24
27
22
19
20
20
22
18
18
21
23
17
21
25
25
19
20
21
21
17
23
22
19
22
22
17
23
25
22
23
21
25
24
17
20
26
22
22
20
22
25
23
19
28
22
25
21
27
30
22
24
25
26
24
25
25
25
27
25
26
30
32
31
24
25
22
26
28
31
32
31
29
30
31
32
35
34
32
35
35
36
40
37
35
40
43
38
40
44
45
50
45
50
48
49
52
51
54
55
54
61
63
60
60
64
62
60
63
64
68
67
68
66
66
66
67
69
66
66
63
63
68
66
61
61
59
60
57
52
55
56
51
48
48
50
44
44
43
43
42
40
41
34
35
39
34
34
36
31
35
38
32
28
33
32
31
26
35
36
30
29
33
32
30
31
33
31
30
33
31
31
33
30
27
31
31
33
32
32
31
29
31
28
31
32
32
28
32
34
34
31
28
24
28
33
32
32
31
31
32
35
32
35
34
29
28
29
32
32
34
35
33
34
32
34
34
32
32
33
36
32
31
30
36
34
34
31
35
31
35
33
31
35
34
34
37
32
27
34
34
36
35
39
36
34
34
34
38
34
36
36
35
36
35
36
33
36
33
33
34
36
38
39
38
37
33
35
34
35
34
38
38
33
36
34
32
36
36
38
34
38
35
36
38
34
34
34
36
39
40
35
37
37
38
34
37
35
35
38
37
37
37
39
41
38
37
35
43
39
42
38
45
46
43
43
51
54
54
54
56
52
49
55
52
52
54
54
57
55
53
51
50
48
46
49
48
42
39
37
37
32
36
32
35
37
33
31
33
32
30
33
32
31
30
32
31
33
34
33
32
37
30
32
32
29
35
39
37
36
25
35
27
28
31
38
41
47
61
72
92
109
125
142
148
165
174
185
165
137
105
81
62
43
23
8
19
26
30
38
42
44
40
38
43
36
35
34
38
45
42
38
42
37
35
33
41
39
38
37
37
38
39
40
40
39
41
42
37
39
38
39
36
38
38
38
41
39
40
41
44
36
38
43
40
43
41
42
41
41
40
43
40
40
41
37
41
44
44
43
41
40
43
44
43
44
42
43
44
43
43
48
49
47
44
47
47
48
49
56
50
50
48
48
52
51
54
53
56
60
56
52
52
57
62
65
62
67
65
66
66
69
71
70
73
71
75
70
71
78
78
78
80
78
80
84
85
81
83
85
86
82
86
86
84
83
82
82
80
81
75
76
78
74
68
68
69
62
68
65
64
56
57
56
50
52
53
53
47
41
47
48
47
45
43
41
38
41
45
43
41
37
42
39
39
41
41
36
36
43
43
40
37
39
35
40
43
39
42
43
38
34
35
38
39
34
40
44
37
40
34
34
39
36
35
39
34
41
42
39
38
38
34
35
43
39
40
40
45
39
36
41
37
38
39
39
36
38
41
37
38
40
39
38
40
38
37
35
38
40
38
37
42
42
39
40
38
38
41
38
37
40
34
39
40
40
41
38
37
37
37
37
40
36
39
41
34
38
40
40
37
36
37
35
33
38
33
38
35
36
41
35
39
37
39
40
36
36
38
35
35
34
30
37
38
39
35
37
37
34
34
35
35
37
36
38
36
39
28
32
38
38
38
37
35
31
32
36
35
33
35
36
35
34
32
32
32
32
34
35
34
34
32
34
34
33
31
33
32
37
32
34
34
33
31
31
30
31
35
36
32
33
34
34
35
35
31
30
35
35
34
37
39
41
43
47
48
47
50
47
46
46
50
45
42
43
51
53
50
45
49
50
43
42
39
43
44
36
33
32
26
26
26
28
26
29
28
31
24
28
26
28
26
30
25
28
31
30
25
22
28
28
24
26
31
27
28
33
30
26
27
25
21
18
20
23
30
44
55
61
75
91
111
129
143
148
161
180
173
158
127
94
73
52
37
12
10
15
22
23
34
32
31
36
36
30
28
32
30
29
31
26
30
24
27
29
31
30
28
23
27
29
30
28
29
29
26
32
30
31
29
30
28
31
35
34
28
30
31
33
35
29
33
34
34
31
34
32
34
36
34
37
31
37
32
33
33
33
28
37
32
36
36
34
37
30
36
36
33
37
40
36
36
33
40
37
40
38
39
37
37
37
41
40
41
38
41
43
41
42
47
45
45
45
52
49
50
50
49
48
57
51
53
57
62
58
57
62
65
63
65
63
67
67
68
69
68
71
73
67
70
71
76
73
74
70
71
70
70
70
69
68
68
65
65
59
59
63
57
53
51
55
50
50
50
47
42
43
42
32
38
39
37
36
38
38
36
33
32
34
34
29
31
34
29
29
34
34
30
29
27
27
32
33
30
35
31
30
27
32
34
29
27
32
30
31
32
31
27
25
29
28
30
29
28
31
30
31
26
25
28
29
26
23
30
30
27
28
26
27
28
24
33
32
25
30
26
28
20
30
30
28
26
24
28
31
32
24
24
31
31
28
23
26
24
27
27
26
26
29
30
25
23
27
25
27
27
29
29
25
26
29
27
23
26
33
26
31
26
26
26
23
29
27
26
32
29
33
28
32
27
27
30
29
28
29
27
30
31
30
27
33
31
28
30
31
31
29
32
31
31
32
33
31
28
31
36
28
29
25
29
35
31
29
35
35
32
31
28
31
28
36
33
31
31
32
32
28
33
32
31
29
29
30
27
35
31
30
30
29
33
32
28
29
29
28
32
25
29
27
28
33
30
29
34
30
25
26
28
30
28
31
32
28
30
29
28
33
31
30
32
28
26
33
33
32
32
32
32
33
36
34
32
32
37
39
41
39
36
44
49
47
48
49
51
48
48
45
49
48
44
49
47
50
49
49
46
44
35
37
39
36
34
29
24
22
26
26
26
29
23
26
26
24
22
22
25
24
25
24
24
25
23
21
23
25
25
22
25
26
26
27
26
30
31
20
25
17
20
22
24
28
36
55
64
77
95
107
137
146
152
165
177
180
159
123
91
75
54
36
19
13
23
28
36
38
42
40
38
40
43
42
43
42
35
38
39
41
36
34
35
37
40
38
35
35
40
43
35
35
37
38
41
40
40
37
42
38
40
39
37
39
43
41
42
43
38
39
41
40
44
47
39
34
42
45
42
43
42
40
41
40
42
45
46
42
44
41
41
43
42
44
46
44
48
46
44
48
48
46
46
46
47
48
49
49
48
53
51
52
53
54
55
56
53
56
58
59
58
59
60
59
66
61
61
64
64
68
66
68
69
70
71
77
77
74
73
80
81
79
81
83
87
84
79
84
84
87
86
87
92
91
95
95
94
99
98
100
97
97
97
95
94
97
95
89
88
90
89
88
82
82
85
85
85
75
79
78
78
71
76
74
72
78
76
74
70
70
71
69
73
71
69
71
70
67
68
72
68
67
69
73
74
75
66
71
68
67
66
67
68
67
70
69
65
65
67
70
65
69
71
68
67
70
66
64
67
66
65
70
67
69
68
65
66
65
62
67
62
67
65
65
70
66
61
66
63
65
62
61
65
66
67
68
65
61
62
62
66
64
64
66
61
64
61
62
63
60
64
62
60
64
63
61
58
61
60
55
64
60
61
69
64
61
53
60
59
59
60
61
59
61
65
62
59
59
54
56
58
59
61
59
59
59
61
60
57
57
61
62
60
55
59
57
63
54
52
60
60
59
55
55
57
56
61
57
59
56
59
60
55
56
55
58
56
55
56
54
56
56
58
55
58
54
52
55
56
52
53
57
56
54
53
52
53
54
49
49
51
55
50
55
54
52
52
52
49
52
54
53
53
49
50
51
51
47
45
51
58
56
50
50
52
53
51
52
49
51
52
50
51
55
46
49
51
54
53
55
54
52
54
57
52
55
56
57
62
64
66
62
68
73
72
68
69
65
66
69
71
70
74
74
69
67
73
67
65
64
60
56
57
54
50
49
50
42
47
49
46
47
52
49
43
47
47
45
46
42
47
47
48
47
45
43
44
45
44
42
45
42
47
48
41
45
42
43
34
36
41
47
51
65
77
86
101
121
141
155
162
178
186
196
180
153
118
97
80
60
38
24
33
36
40
49
51
50
55
56
49
52
47
50
48
48
48
43
51
46
48
48
52
47
45
49
48
48
49
51
51
45
45
47
49
47
52
50
45
48
47
52
49
51
47
52
53
51
49
50
50
47
48
54
54
53
51
45
52
51
53
52
52
54
53
54
52
53
52
57
55
57
54
56
52
54
55
56
54
58
57
57
59
58
61
59
57
64
58
62
61
62
61
62
62
63
66
60
63
70
71
67
73
68
75
72
71
76
76
77
80
78
77
77
80
80
82
86
84
91
88
83
93
88
87
91
87
83
91
90
88
88
88
89
88
85
83
85
83
82
79
80
77
79
76
70
71
69
69
66
64
66
61
60
59
55
55
51
53
55
52
50
51
46
48
49
49
46
46
39
42
52
45
45
45
43
47
47
42
41
42
46
41
43
45
42
43
46
45
38
39
42
41
38
44
41
39
44
45
44
45
44
44
46
45
44
40
47
47
47
45
49
46
49
45
45
48
46
46
41
47
43
45
45
45
46
42
43
48
46
48
44
43
48
46
44
42
43
48
49
48
46
42
43
42
43
44
44
44
41
45
42
42
40
42
44
43
42
41
43
46
36
42
41
43
43
40
42
40
40
40
39
37
40
36
40
37
40
39
42
37
36
39
36
36
39
39
38
38
40
38
39
41
39
38
38
37
36
36
37
41
36
35
39
40
38
40
41
37
37
39
39
39
38
36
36
31
45
40
37
40
39
43
40
37
38
35
38
40
41
36
38
39
37
38
38
37
39
41
40
40
42
37
37
38
40
43
38
35
35
40
41
40
39
37
37
42
38
37
38
43
40
37
41
40
38
36
41
40
43
47
44
42
49
51
52
50
52
52
53
56
55
53
59
54
51
53
55
55
57
53
45
45
47
47
45
40
36
35
39
38
28
29
37
39
35
30
33
34
34
31
33
31
30
34
34
29
33
35
39
34
30
34
33
31
31
27
38
34
35
34
35
36
38
48
57
71
87
95
116
133
142
147
157
173
159
127
88
73
50
32
6
1
4
5
19
22
27
25
34
35
31
34
32
39
39
37
37
37
38
34
32
35
35
35
39
34
35
38
37
36
29
37
38
31
35
36
39
33
36
38
39
35
34
38
37
32
33
36
42
40
41
35
37
35
37
42
43
41
39
38
39
38
38
42
39
38
38
41
43
40
40
43
42
41
48
43
43
45
46
45
46
48
50
46
48
45
46
49
55
54
51
52
52
53
59
57
53
53
61
62
60
62
62
62
63
67
68
65
67
71
74
73
71
72
79
78
80
77
77
80
84
83
83
80
83
85
84
83
86
87
84
79
85
87
81
81
84
81
78
75
77
76
71
70
70
64
64
67
63
60
57
53
54
49
51
46
46
47
43
45
41
43
40
41
41
41
40
36
36
39
37
36
35
31
31
35
38
36
36
34
33
29
31
34
34
31
34
39
38
33
28
31
35
36
35
34
33
37
36
37
36
36
30
35
38
38
38
38
39
39
35
38
37
34
40
37
37
39
36
39
41
36
37
37
35
42
37
38
39
37
37
38
39
41
36
40
41
32
37
36
38
34
39
38
37
36
33
37
39
36
37
37
34
38
36
37
36
37
31
34
36
36
34
35
39
36
35
35
34
34
33
36
36
34
37
37
35
34
36
33
32
34
36
35
36
35
34
33
31
39
33
33
33
33
31
34
28
32
35
35
33
33
35
36
34
32
33
33
38
35
34
31
35
34
32
36
34
37
34
33
34
33
30
34
37
32
32
31
31
34
32
28
32
33
35
30
30
33
34
34
34
35
31
30
33
32
29
31
28
31
28
32
32
29
29
29
26
31
29
31
33
32
34
33
42
34
36
37
42
44
47
51
49
48
47
48
48
49
50
52
48
52
51
51
53
54
51
46
42
42
46
41
39
34
33
33
33
27
39
37
34
33
32
38
35
35
32
33
29
34
33
31
35
33
34
37
35
34
31
36
32
33
36
31
30
31
29
32
40
43
49
68
80
98
113
130
143
148
158
173
176
159
120
91
78
58
41
13
14
21
18
30
38
35
39
36
37
40
36
36
32
33
31
32
32
32
33
30
33
35
31
30
34
33
37
32
31
32
37
36
35
33
33
37
32
34
36
35
36
37
36
39
35
33
39
40
38
36
40
39
37
38
41
39
42
44
38
38
40
40
42
44
45
41
45
47
43
46
40
44
44
41
49
49
47
48
48
47
50
49
48
52
52
51
53
53
55
55
58
56
55
63
59
58
57
59
62
62
59
63
63
61
71
71
66
71
69
67
69
74
75
78
78
76
75
79
79
82
82
82
81
79
81
82
88
82
85
82
83
80
82
83
83
83
85
76
77
77
73
73
77
70
72
67
69
65
64
62
62
58
57
55
52
55
55
56
56
49
50
46
49
48
50
44
45
49
42
42
47
46
42
45
41
46
45
44
46
44
44
37
42
44
41
42
46
42
42
42
43
42
43
44
44
45
41
40
42
41
45
44
38
41
45
44
37
41
40
40
44
42
38
40
46
48
43
39
43
42
42
41
43
39
42
41
45
42
42
43
40
38
39
43
39
42
41
39
39
40
37
38
42
39
35
41
39
37
33
38
35
37
39
37
37
37
34
34
41
36
33
32
36
36
34
34
35
36
35
32
32
30
34
32
34
34
34
35
35
30
35
32
32
32
33
31
36
32
28
28
29
32
29
36
36
34
30
30
28
32
31
30
36
35
35
31
34
31
39
36
30
28
29
34
33
30
34
32
34
30
29
32
34
28
32
34
30
28
30
32
32
32
35
29
38
34
31
33
28
31
35
28
34
32
30
32
31
30
30
33
38
33
28
29
37
34
33
26
31
31
31
34
30
28
32
30
32
35
32
32
33
34
33
31
29
33
33
33
37
37
37
40
42
48
48
50
47
46
48
46
50
47
49
46
50
50
48
48
47
46
40
41
46
43
38
39
33
29
24
29
29
26
31
35
28
25
29
28
28
27
29
32
30
29
29
27
29
24
29
28
30
31
31
28
28
27
21
24
26
24
31
28
36
48
61
71
87
102
120
132
142
154
165
169
160
133
97
81
61
45
22
9
10
15
26
35
36
36
36
32
34
33
32
32
31
33
27
29
31
33
27
27
31
35
32
34
29
33
30
27
29
35
34
35
32
34
29
30
25
37
35
33
30
33
38
36
29
34
35
33
33
33
34
37
37
31
34
37
35
37
41
37
33
35
35
38
36
39
38
35
37
43
38
39
44
41
42
41
41
42
40
44
47
44
44
43
42
41
46
47
48
46
46
52
49
51
50
57
52
52
52
56
52
56
58
58
56
62
58
62
64
65
67
66
67
71
71
70
71
70
72
76
75
72
74
76
73
77
72
77
76
76
77
74
79
77
73
76
71
65
71
71
68
67
66
64
58
60
58
54
57
54
50
53
52
47
46
49
46
46
41
42
43
40
40
40
41
40
36
34
39
36
35
39
37
37
41
38
36
36
34
36
36
39
36
32
34
37
35
35
37
37
34
38
43
36
41
35
37
39
41
41
40
38
33
36
39
40
40
39
41
41
39
41
39
38
36
40
38
38
40
37
38
41
40
38
37
40
37
37
38
38
44
39
40
40
38
35
39
40
41
36
42
39
38
33
37
44
43
41
35
38
41
42
40
36
38
35
34
38
40
38
41
39
38
38
37
36
41
45
34
35
43
41
33
34
37
35
37
36
31
32
37
41
36
35
39
39
37
33
38
37
31
36
33
32
38
37
36
36
35
35
35
35
38
37
35
37
33
31
34
32
38
41
35
32
31
32
37
33
31
30
34
34
38
35
34
31
33
35
33
34
37
36
34
35
31
32
34
35
34
33
34
34
28
31
34
36
32
34
33
34
36
33
32
32
31
31
31
32
36
31
35
27
29
29
32
32
31
29
33
34
34
29
30
34
32
32
33
37
33
34
36
33
36
32
35
38
42
40
40
46
50
49
48
52
47
42
46
43
46
51
55
54
51
50
45
48
43
43
39
37
42
32
32
28
29
27
30
29
30
29
29
31
29
28
27
28
29
30
33
34
29
27
29
28
31
35
30
28
29
30
31
30
32
29
24
25
25
28
33
51
66
76
91
110
125
138
147
160
174
175
158
125
92
74
60
41
19
6
13
18
29
32
33
33
34
38
33
33
34
35
35
31
32
36
27
28
31
29
29
33
34
29
32
30
32
29
32
32
33
36
29
30
30
32
34
35
34
34
35
30
33
30
35
34
37
35
36
34
32
36
31
36
36
32
33
39
33
35
37
37
33
38
35
36
35
33
36
37
40
38
39
42
35
41
38
39
39
39
42
41
44
42
40
41
43
41
47
48
51
47
49
51
46
50
49
51
52
50
53
52
55
53
58
59
58
63
61
59
65
66
64
66
64
67
65
71
69
73
70
74
69
70
72
72
72
74
76
70
73
75
74
69
68
65
66
66
66
70
68
63
57
56
57
51
52
53
51
46
46
45
44
44
40
40
43
35
37
38
36
36
33
34
34
32
36
31
37
31
33
30
26
31
31
30
30
32
33
32
29
29
31
31
25
31
33
32
29
30
29
28
25
33
30
31
34
34
29
27
34
31
29
34
30
28
31
34
30
35
33
30
32
27
30
30
33
31
32
34
33
32
32
36
31
38
31
31
30
33
30
32
33
30
31
31
33
31
31
35
33
38
33
32
29
32
33
32
34
31
34
33
36
30
29
30
31
34
31
30
30
31
32
33
27
33
32
31
26
33
35
29
27
27
30
31
32
27
30
31
33
30
29
30
32
32
32
31
32
31
34
24
31
28
32
31
32
31
28
27
30
32
30
30
30
30
30
29
32
27
33
30
30
28
33
30
29
28
28
29
27
26
29
25
27
31
32
33
29
29
30
32
27
25
28
33
26
29
28
35
28
28
30
32
27
29
28
29
32
31
29
30
26
29
27
32
30
32
32
32
31
32
28
29
33
39
38
40
41
42
44
43
40
42
46
45
48
42
49
47
48
43
47
45
41
37
39
39
35
35
32
27
24
23
27
28
28
25
27
27
27
21
30
27
24
24
27
25
25
26
28
27
26
28
25
25
26
29
25
28
24
24
27
31
28
27
27
36
47
55
71
89
99
116
132
138
151
163
159
142
105
71
54
33
16
-3
-4
1
11
12
16
22
26
28
25
31
29
27
30
31
32
30
25
27
24
27
27
28
26
31
28
27
27
28
26
30
30
31
28
28
28
28
30
25
28
30
30
32
29
29
34
28
30
32
33
31
29
30
32
31
37
31
26
32
31
34
32
32
31
36
35
34
33
36
34
35
32
38
38
37
36
38
35
41
42
37
34
38
36
41
44
39
40
45
44
46
45
44
48
46
49
51
50
50
49
49
54
56
56
54
56
56
58
61
59
58
66
66
70
66
68
67
68
77
74
76
69
72
74
71
75
77
76
75
78
75
79
73
74
71
70
70
72
68
67
66
64
62
59
63
58
55
49
48
49
49
47
44
41
41
36
36
38
36
38
32
33
28
25
26
24
32
29
33
27
28
27
28
27
27
22
21
25
25
23
28
23
23
21
23
24
22
25
25
26
26
24
23
21
25
26
27
22
30
25
26
27
27
26
25
24
28
24
30
29
25
25
29
26
25
27
24
29
28
27
24
28
26
24
28
27
26
26
29
28
27
28
23
21
27
31
25
24
26
25
25
28
26
24
25
28
27
27
24
28
26
25
26
29
27
24
23
18
27
23
25
25
21
22
23
25
22
25
23
28
25
22
28
24
20
19
22
24
25
25
24
24
22
24
26
17
22
24
20
19
22
19
27
26
20
23
24
24
22
24
22
23
22
22
20
21
21
24
21
25
25
23
18
21
24
22
20
22
23
28
22
23
19
16
26
26
22
22
26
23
18
21
25
24
19
24
20
26
22
23
25
21
25
21
25
21
21
21
19
23
26
21
25
22
22
18
23
25
23
23
19
22
28
25
26
22
23
26
24
27
25
31
27
26
29
33
34
37
39
39
41
41
39
35
38
37
36
35
44
41
46
47
39
34
35
36
31
29
27
24
21
21
22
20
19
21
19
24
18
17
26
20
21
21
21
20
19
21
21
21
17
21
20
22
22
25
21
20
22
23
19
16
13
18
17
25
25
44
58
63
77
104
114
130
136
149
161
167
149
118
88
68
53
34
8
5
8
13
19
20
27
27
29
22
29
29
25
25
23
24
21
23
22
21
22
22
25
20
24
20
26
25
20
22
20
19
24
22
20
24
25
24
24
22
29
27
26
24
26
25
24
27
27
24
23
26
27
26
30
25
27
32
28
27
26
24
25
28
28
32
28
29
34
31
26
27
30
30
29
30
25
31
32
32
30
32
35
38
33
34
32
35
32
36
38
38
36
42
41
40
43
46
39
40
44
44
46
46
51
49
50
52
51
52
50
53
58
54
54
65
63
64
64
61
63
63
64
66
63
64
65
66
69
65
60
63
65
63
66
63
68
63
61
60
55
60
57
54
50
52
48
44
51
43
38
43
45
39
37
37
37
33
33
29
35
31
28
30
27
29
24
30
29
23
25
25
29
24
25
25
20
24
22
19
25
25
25
24
21
24
25
22
20
22
20
22
20
26
28
24
18
24
24
23
20
23
23
26
28
23
27
19
23
25
24
27
23
25
25
26
27
26
24
27
27
22
24
27
26
23
24
25
22
26
28
28
22
21
27
30
22
23
25
24
24
25
27
27
26
30
29
25
20
24
19
25
25
26
26
25
25
25
24
25
27
24
24
26
26
20
26
24
24
26
22
23
23
22
24
24
22
29
20
19
26
24
26
22
27
24
20
24
24
27
24
26
23
19
26
23
20
21
22
17
25
20
28
22
25
23
23
20
20
17
22
27
26
25
20
19
21
22
23
21
24
24
24
21
24
25
24
23
20
22
24
20
25
23
23
22
19
24
25
24
24
27
23
22
23
22
25
22
23
17
24
20
23
30
27
25
21
25
22
19
22
25
24
23
21
25
24
25
19
20
20
28
21
19
23
23
23
23
19
24
25
27
25
28
23
25
23
26
24
24
31
35
35
35
35
40
38
40
39
40
39
39
38
42
39
46
44
36
40
36
39
36
32
33
28
27
29
20
18
21
18
21
19
21
23
25
23
19
18
19
22
20
19
21
18
20
22
19
21
19
21
22
20
23
22
17
16
21
18
17
17
17
23
30
35
46
59
78
93
110
123
129
144
158
166
160
134
97
76
60
39
14
-1
3
12
12
20
24
28
30
30
29
28
25
22
23
22
21
21
24
22
20
16
21
23
25
21
20
23
22
20
20
23
28
20
20
25
20
17
23
25
27
28
26
26
25
23
22
23
24
24
22
25
23
22
27
26
26
23
28
23
27
28
27
26
28
25
25
31
32
29
27
30
30
28
30
32
30
30
33
32
30
38
31
33
37
34
34
36
36
36
38
35
37
39
41
39
37
41
44
44
48
45
46
45
46
48
46
50
53
56
55
53
55
56
57
61
60
60
60
67
62
64
63
67
67
71
66
66
64
66
64
72
68
66
67
63
64
68
60
59
62
59
59
57
55
52
52
49
47
46
43
46
42
38
36
38
37
39
36
32
35
30
33
30
23
27
31
27
26
27
26
28
25
24
26
29
23
26
21
27
29
22
20
24
27
26
22
25
25
25
24
23
24
21
24
21
25
26
24
23
23
28
24
23
25
21
22
25
27
27
23
22
21
23
31
27
25
24
22
24
26
25
25
27
28
22
23
26
21
23
29
26
27
25
23
19
22
26
25
25
29
24
23
29
23
24
23
24
20
26
27
26
23
23
26
19
20
25
22
25
24
20
21
23
22
27
18
25
21
23
25
25
21
20
21
21
19
26
26
22
23
20
21
22
21
22
23
21
22
22
22
20
20
19
21
22
21
18
22
22
23
24
22
18
22
19
23
23
23
21
18
20
18
21
20
20
22
22
24
19
24
21
18
19
16
22
20
18
19
21
19
21
17
19
24
22
20
22
20
20
19
15
20
25
21
19
20
19
19
18
16
18
20
20
22
17
20
22
21
21
19
21
20
21
20
19
19
18
22
22
22
17
21
19
17
20
26
19
17
18
22
20
20
23
21
22
24
23
26
27
26
30
34
35
35
40
36
38
32
38
37
35
36
37
42
38
40
43
37
38
34
32
28
29
29
25
22
19
17
18
17
18
21
20
17
19
19
22
20
20
19
22
17
20
19
18
25
19
14
20
19
14
19
21
22
16
15
17
16
15
12
18
22
30
45
54
69
84
103
120
126
139
154
164
161
144
107
78
62
43
23
-1
-2
4
13
18
24
31
27
25
29
23
28
21
19
24
22
21
19
21
21
20
23
19
18
22
17
21
18
24
22
23
25
21
21
25
20
22
20
19
22
20
24
24
23
21
26
23
26
24
22
25
24
22
25
25
25
28
28
26
24
27
27
25
27
28
33
25
27
31
27
27
29
28
24
31
35
34
36
35
33
31
28
35
37
36
36
38
38
38
38
39
40
41
36
42
44
44
43
40
45
49
51
44
52
50
53
52
54
54
52
61
63
60
60
62
63
68
67
63
66
64
68
70
68
71
69
71
73
71
69
67
69
73
71
69
68
69
72
68
62
66
65
64
60
57
57
55
52
50
51
48
45
41
43
42
45
43
40
38
37
34
35
35
35
34
32
35
32
31
29
33
31
31
26
29
30
31
27
24
26
30
32
30
27
26
28
27
24
29
28
29
31
31
30
30
27
30
30
29
27
25
24
30
31
28
31
29
27
32
29
28
28
29
29
30
31
31
27
31
34
32
28
33
30
31
33
31
29
28
30
31
27
29
35
29
34
30
33
31
29
33
30
34
34
28
32
34
32
32
28
31
31
32
31
29
29
29
28
29
27
29
30
29
28
30
31
31
28
30
32
29
28
33
31
27
32
27
28
33
24
30
29
30
28
30
27
31
30
29
26
28
29
26
30
28
30
30
29
28
27
30
30
29
31
31
32
27
24
23
24
28
30
28
31
31
30
28
26
27
30
29
27
29
32
27
28
28
30
35
25
23
26
30
28
28
26
27
30
27
27
27
29
29
27
27
28
30
30
27
26
26
27
28
26
27
30
28
29
31
26
29
28
33
25
29
32
31
29
31
29
33
35
34
38
40
41
45
42
43
40
41
45
43
49
47
45
43
44
46
41
45
45
39
38
36
34
28
32
30
24
23
25
28
29
26
26
20
22
27
25
30
25
23
23
27
26
21
25
29
21
25
26
24
23
26
25
27
25
21
17
21
25
24
29
32
44
53
67
83
104
121
134
138
150
164
168
153
117
78
64
45
25
0
-2
2
2
13
21
28
25
24
29
32
32
30
32
27
29
25
28
28
30
28
33
30
26
25
31
30
29
32
26
28
31
31
29
25
29
29
32
30
31
30
32
35
27
27
29
31
33
33
33
32
33
28
30
35
36
34
36
38
35
30
34
33
37
34
31
34
36
42
37
32
39
39
41
35
35
33
36
38
39
38
38
40
40
38
40
44
41
45
47
44
46
45
43
47
49
48
49
53
53
56
52
57
61
62
57
57
58
62
65
65
66
66
66
71
71
70
70
72
73
77
75
73
77
76
77
75
79
78
80
78
81
77
77
78
72
72
75
71
74
69
70
70
66
63
61
56
58
56
53
55
52
50
45
47
42
43
41
41
39
44
38
40
37
36
34
35
36
34
33
35
34
32
31
31
31
32
31
31
37
30
37
27
27
32
30
33
29
31
33
34
33
28
29
28
33
31
34
32
33
34
33
31
33
30
34
32
34
36
34
32
34
36
37
37
37
35
33
37
35
37
38
33
32
33
36
38
39
33
34
37
37
32
33
33
35
33
34
34
32
36
38
36
34
33
33
35
31
35
36
35
34
33
31
37
35
29
33
36
35
34
31
30
29
32
32
32
27
29
30
32
32
31
31
32
29
29
26
27
29
27
33
28
30
30
25
31
31
30
29
31
31
29
33
29
27
25
32
30
27
25
27
25
24
31
29
27
29
27
28
28
27
25
26
29
29
31
30
26
26
26
26
26
27
27
24
28
26
29
27
26
28
26
27
28
29
28
27
26
29
29
29
26
25
25
25
28
28
33
29
26
28
25
28
24
28
32
31
24
26
31
29
33
30
31
37
29
36
39
40
38
45
45
47
45
45
44
45
48
47
48
47
43
43
42
45
45
39
40
38
34
32
29
28
24
26
23
29
29
23
27
26
25
27
24
22
26
25
22
26
26
22
29
29
25
23
26
30
31
28
23
26
25
22
21
24
21
23
29
44
54
64
82
98
113
127
139
150
160
170
164
136
102
77
59
41
18
3
6
16
18
24
28
29
31
32
29
29
31
24
27
28
28
26
25
28
28
26
28
28
24
26
26
23
22
29
27
28
26
27
28
28
25
25
28
29
31
25
31
28
23
28
30
31
29
31
30
29
32
29
31
30
29
31
30
30
33
34
33
28
28
32
41
33
33
32
32
35
35
36
32
37
35
33
34
34
39
38
35
42
34
36
41
38
40
41
42
42
42
45
46
45
46
48
45
54
50
49
50
51
51
53
55
56
52
59
57
59
66
65
66
64
67
67
66
69
67
71
69
74
72
71
71
71
75
72
75
74
73
74
74
66
70
68
71
66
65
64
64
60
60
56
52
53
54
52
49
52
47
44
41
47
42
40
39
37
39
37
38
33
29
32
34
31
34
33
32
26
29
26
27
30
29
29
27
33
31
29
29
26
30
24
26
25
32
33
31
30
28
30
30
27
31
29
32
29
30
31
35
32
32
30
27
30
30
33
33
33
32
31
34
33
32
32
33
37
38
34
35
35
34
37
34
33
34
36
39
40
37
36
33
36
38
35
36
38
36
40
38
35
33
35
37
35
36
36
36
33
33
36
35
37
38
34
36
30
34
37
33
34
37
34
30
36
32
36
32
35
34
37
38
29
31
34
38
32
32
35
38
33
33
32
31
35
32
38
37
42
30
34
34
32
33
35
31
35
37
36
34
33
34
36
34
31
36
38
36
36
35
35
35
35
32
38
35
35
33
34
37
30
37
28
39
42
34
34
36
37
37
37
36
31
35
33
35
36
34
35
33
34
36
33
35
35
34
35
30
37
34
35
34
32
36
33
32
38
36
37
34
33
35
35
36
37
39
36
35
39
36
35
40
40
41
44
42
54
52
53
53
51
53
47
51
55
49
50
52
56
54
53
54
49
48
50
47
48
43
41
40
36
36
37
35
34
30
33
35
33
30
35
38
32
28
30
36
36
40
32
32
32
34
33
31
30
34
32
34
31
29
33
34
29
30
29
34
43
53
66
74
92
111
125
139
148
165
173
183
172
144
106
86
67
46
26
16
21
20
30
36
43
39
41
39
40
35
39
36
40
37
38
37
35
38
40
39
38
35
33
33
33
31
40
35
39
36
40
40
37
36
39
38
39
34
36
38
39
40
42
39
41
33
42
38
47
45
36
42
46
40
42
43
43
36
35
44
47
47
41
43
40
40
42
47
45
44
48
39
50
43
46
44
48
42
46
45
47
47
46
48
49
49
49
46
49
52
52
53
55
53
54
54
58
57
56
57
61
61
62
61
62
61
64
67
66
69
66
70
73
72
73
74
74
79
79
79
78
80
80
80
80
81
81
80
81
85
77
82
84
80
78
76
75
75
74
72
68
72
69
67
65
63
61
63
55
52
53
54
53
49
47
41
47
40
42
44
43
41
39
38
36
34
39
42
38
37
39
33
37
38
35
35
37
37
34
38
35
38
37
32
32
38
35
33
36
35
36
33
32
35
35
37
30
35
35
33
36
36
36
35
38
34
33
39
37
36
36
35
37
34
37
34
36
41
43
38
35
35
36
40
39
37
40
41
37
35
32
35
37
35
36
38
37
39
35
35
41
34
32
32
39
33
37
36
39
34
32
36
37
36
38
34
35
33
36
31
34
33
32
36
35
35
36
37
35
35
31
36
33
33
34
31
31
35
36
30
31
33
37
32
30
29
37
34
35
36
25
34
34
31
32
34
36
33
34
35
29
38
33
32
33
39
33
35
39
37
36
34
33
29
30
37
37
36
38
34
34
31
34
39
37
35
35
41
39
41
35
32
35
36
34
37
40
36
38
39
36
34
39
40
36
38
37
38
39
40
38
37
33
35
37
35
39
37
37
38
35
38
32
30
35
37
35
37
38
39
38
37
37
38
37
38
44
43
47
50
50
54
49
53
53
51
45
51
54
51
51
52
55
53
51
49
44
44
42
44
40
39
36
33
30
28
33
37
34
31
32
31
30
36
33
33
30
35
35
34
32
28
34
34
29
29
35
33
32
29
32
34
37
35
31
32
33
33
36
40
49
62
78
87
109
128
147
147
159
175
176
155
123
91
70
53
28
12
7
9
14
20
24
31
32
35
37
38
39
34
31
33
32
29
37
33
33
35
31
32
31
30
34
33
31
34
37
35
30
32
39
36
33
38
34
34
36
38
32
37
36
33
36
34
37
36
35
35
39
39
38
37
32
42
40
37
38
38
42
43
42
39
36
42
40
39
46
43
41
40
42
47
45
45
46
43
42
44
47
49
47
46
47
43
55
53
47
50
57
56
52
50
48
61
58
51
62
59
58
60
60
59
64
63
69
72
67
72
73
70
75
74
75
78
78
76
77
82
80
82
82
81
83
86
84
83
88
85
82
81
78
83
81
83
82
80
76
78
74
72
68
68
64
62
61
65
62
56
54
52
49
47
50
46
50
47
45
43
41
43
41
36
37
41
38
36
38
40
41
38
34
33
33
31
36
32
32
36
31
34
35
26
30
33
34
35
31
33
28
29
32
34
36
33
31
31
28
32
30
33
38
35
31
30
33
30
27
37
31
31
30
30
31
34
31
33
32
36
31
31
32
31
31
32
33
32
30
30
32
32
33
27
27
35
34
34
33
31
29
29
30
26
29
34
36
27
28
29
28
33
26
28
24
27
26
26
28
26
24
27
28
26
25
31
25
25
29
30
27
26
26
25
25
27
25
24
28
28
30
25
30
27
27
27
23
28
23
26
26
25
26
26
23
26
25
25
25
27
28
23
27
26
27
26
23
28
27
25
25
25
23
26
27
28
26
25
28
27
24
23
27
24
22
27
23
26
23
26
23
26
25
17
17
22
30
23
24
23
24
23
24
18
22
27
25
26
26
26
31
33
29
33
37
38
36
39
39
36
38
37
38
41
39
40
42
40
35
35
39
34
26
31
32
24
22
22
16
19
20
19
23
19
22
19
16
19
21
20
19
18
19
20
22
17
16
21
16
16
22
18
17
19
20
19
18
20
19
21
19
19
23
27
35
47
70
82
94
113
125
126
132
153
149
128
92
65
51
26
12
-7
-9
-3
2
4
