56
45
40
15
6
22
36
33
45
43
41
21
10
-1
-2
5
15
22
33
33
25
15
3
-5
-9
0
12
17
30
24
7
-6
-10
-19
-17
-12
3
6
18
17
15
9
-2
-6
-8
-5
10
13
21
21
0
-10
-18
-26
-20
-1
5
10
27
22
6
-13
-25
-34
-26
0
14
26
25
26
15
1
-17
-24
-26
-18
-8
17
29
21
14
6
-11
-9
-10
-2
-5
17
20
22
11
5
-17
-21
-16
-6
-5
16
23
25
9
7
-17
-25
-21
-7
2
20
20
20
3
5
-19
-13
-10
-1
3
26
23
15
-4
-8
-30
-21
-14
-7
3
24
27
21
6
1
-28
-28
-22
-7
1
16
24
20
6
2
-15
-26
-21
-7
2
20
23
4
-10
-21
-30
-33
-17
-1
5
12
10
-5
-12
-14
-21
-19
-13
-4
1
19
24
17
-1
-6
-24
-25
-16
-4
2
8
11
-1
-12
-13
-20
-18
-8
-10
1
16
16
3
-6
-16
-29
-30
-13
-1
9
18
14
1
-7
-22
-37
-40
-27
-13
-5
11
13
1
-1
-11
-18
-18
-7
-6
1
13
8
-6
-20
-43
-45
-38
-22
-13
10
14
16
-7
-10
-23
-21
-24
-14
-8
11
11
4
-4
-7
-32
-35
-30
-20
-23
-1
9
3
-15
-17
-36
-32
-23
-14
-9
7
0
-7
-18
-15
-36
-38
-33
-26
-27
-5
-8
-7
-26
-23
-36
-38
-34
-21
-17
7
10
2
-9
-17
-36
-41
-37
-35
-27
-4
-5
-19
-22
-24
-33
-33
-27
-14
-12
6
9
-2
-19
-24
-39
-38
-28
-19
-16
1
4
1
-8
-5
-21
-23
-21
-12
-8
5
7
-2
-16
-18
-30
-31
-17
-11
-11
6
1
-12
-24
-29
-40
-34
-26
-23
-15
-6
-7
-13
-25
-31
-43
-48
-31
-23
-19
-6
-5
-10
-19
-26
-38
-39
-32
-28
-15
-14
-21
-37
-46
-46
-35
-25
-9
-4
0
-9
-11
-33
-45
-51
-46
-43
-25
-4
2
-12
-22
-52
-54
-47
-22
-6
17
28
36
36
48
46
66
92
112
116
136
130
126
101
81
38
19
-7
-16
-22
-6
-5
-7
-17
-25
-41
-38
-28
-20
-17
9
10
-2
-16
-21
-36
-45
-43
-25
-19
0
-4
-10
-15
-12
-42
-44
-30
-12
-5
11
8
-3
-20
-26
-37
-42
-31
-20
-6
10
10
-3
-12
-27
-41
-38
-27
-17
-6
9
11
0
-7
-16
-30
-28
-24
-17
-5
12
17
-5
-15
-21
-30
-25
-18
-2
10
18
21
8
3
-6
-21
-22
-13
-5
7
26
33
27
17
5
0
2
12
12
30
45
47
32
21
3
-3
0
15
18
33
38
38
28
24
9
6
2
16
21
40
33
28
26
24
0
-8
-11
-2
6
25
27
24
13
4
-23
-27
-24
-18
-13
20
22
10
-6
-17
-39
-35
-41
-25
-16
4
9
4
-16
-20
-42
-44
-44
-27
-21
-4
6
1
-14
-22
-39
-43
-40
-20
-17
9
5
-2
-22
-30
-49
-43
-35
-20
-8
6
8
-1
-6
-19
-36
-50
-53
-43
-27
0
4
-2
-13
-22
-41
-38
-25
-18
-12
7
4
-9
-23
-23
-35
-40
-33
-18
-6
5
4
-5
-16
-25
-34
-35
-28
-20
-15
5
1
-15
-32
-35
-36
-22
-12
-11
-7
7
-2
-12
-16
-26
-37
-39
-30
-22
-8
10
6
-15
-22
-32
-37
-35
-24
-19
1
8
-3
-23
-24
-32
-40
-39
-30
-25
-13
-11
-5
-12
-12
-38
-36
-37
-23
-19
5
6
-4
-11
-20
-46
-53
-50
-32
-22
-3
-4
-10
-17
-15
-42
-36
-30
-18
-16
2
5
-2
-16
-19
-42
-43
-43
-33
-18
-5
-4
-13
-29
-38
-56
-47
-37
-17
-10
6
9
0
-20
-28
-47
-45
-35
-24
-21
-6
-11
-20
-26
-32
-43
-37
-30
-21
-21
-4
-8
-15
-25
-23
-36
-40
-38
-32
-23
-9
-4
-9
-17
-24
-40
-39
-34
-23
-17
-3
-7
-20
-22
-23
-34
-36
-35
-34
-33
-14
-6
-11
-9
-14
-37
-40
-31
-25
-22
-11
-3
-12
-17
-37
-48
-52
-35
-22
-10
4
11
-7
-17
-27
-38
-33
-21
-22
-10
-1
-4
-13
-20
-32
-37
-41
-31
-27
-6
-4
-3
-16
-31
-52
-51
-46
-26
-16
11
13
3
-8
-16
-35
-38
-44
-31
-24
1
4
-3
-10
-18
-45
-39
-37
-34
-24
-3
-10
-5
-8
-10
-34
-36
-39
-24
-22
-8
-11
-18
-27
-20
-38
-38
-33
-18
-15
-4
1
1
-10
-9
-25
-36
-41
-28
-21
2
4
-7
-14
-17
-31
-31
-23
-16
-15
4
4
7
-3
-17
-33
-27
-20
-10
2
12
13
2
-11
-20
-29
-29
-17
-13
-5
13
17
3
-8
-20
-33
-38
-31
-31
-25
-5
4
-7
-11
-16
-29
-37
-29
-21
-16
-5
2
-4
-12
-29
-39
-43
-33
-27
-19
-5
4
-6
-13
-23
-30
-38
-33
-24
-16
-10
-7
-23
-24
-30
-33
-33
-13
-14
-8
-2
-5
-20
-25
-43
-45
-44
-39
-37
-16
2
9
10
13
3
10
22
51
84
127
151
145
128
114
88
83
68
54
43
46
28
3
-15
-23
-44
-45
-35
-21
-17
10
10
4
-5
-8
-40
-49
-45
-24
-19
-3
2
4
-5
-11
-33
-40
-35
-24
-22
-1
8
6
-4
-14
-40
-41
-36
-20
-15
5
10
3
-7
-18
-28
-34
-28
-21
-9
6
15
8
-3
-12
-26
-28
-14
-4
-1
8
11
4
-9
-22
-31
-34
-23
-13
-1
21
22
18
9
-2
-18
-19
-12
-3
10
27
29
19
2
-7
-18
-4
6
17
19
32
36
28
22
5
-1
7
17
12
30
45
55
43
33
15
6
6
20
24
36
45
39
27
16
-3
2
0
7
6
24
18
27
12
8
-8
-10
-11
-7
-8
8
11
-2
-7
-7
-32
-41
-43
-28
-19
6
4
-1
-15
-17
-37
-36
-32
-15
-24
-11
-10
-13
-21
-21
-45
-49
-37
-20
-19
-9
0
-1
-24
-26
-39
-42
-35
-17
-20
-2
-3
-18
-25
-30
-43
-40
-33
-25
-21
-6
-5
-2
-13
-20
-35
-36
-35
-27
-19
-6
2
-11
-14
-24
-39
-44
-30
-9
-14
1
3
-13
-22
-26
-35
-39
-30
-21
-17
1
12
4
-11
-27
-46
-48
-35
-24
-20
-1
3
-9
-16
-23
-34
-40
-37
-29
-17
-1
-3
-19
-30
-42
-42
-43
-28
-22
-5
11
7
-8
-20
-37
-35
-37
-25
-24
-10
-7
-4
-15
-20
-35
-42
-48
-30
-28
-15
-6
-8
-21
-23
-40
-42
-37
-28
-30
-13
-4
-15
-35
-33
-53
-40
-31
-20
-17
8
7
-1
-24
-26
-48
-45
-35
-25
-22
3
4
-9
-23
-33
-50
-51
-43
-23
-24
-2
3
-4
-18
-26
-48
-51
-45
-35
-35
-11
-2
-6
-19
-25
-44
-44
-41
-29
-15
2
0
-6
-20
-28
-44
-52
-51
-37
-25
-4
1
-7
-19
-26
-48
-55
-48
-40
-25
-9
-11
-19
-28
-34
-46
-52
-41
-28
-21
-5
-6
-22
-35
-42
-47
-44
-30
-20
-16
-5
-3
-20
-28
-36
-52
-56
-42
-25
-13
-3
1
-18
-25
-40
-51
-51
-41
-36
-25
-11
-3
-12
-25
-42
-46
-43
-27
-28
-15
-12
-13
-23
-31
-53
-48
-44
-29
-19
-6
-7
-7
-20
-25
-45
-40
-37
-37
-33
-15
-9
-12
-22
-19
-46
-45
-46
-31
-27
-3
1
1
-15
-19
-36
-36
-43
-37
-40
-14
-13
-14
-23
-25
-43
-36
-34
-25
-28
-3
-12
-9
-11
-8
-30
-38
-36
-30
-24
-3
3
-1
-14
-14
-32
-37
-34
-25
-23
-7
2
2
-5
-8
-24
-31
-38
-35
-32
-15
0
-8
-28
-32
-49
-47
-37
-32
-27
-9
-5
-22
-40
-40
-47
-54
-36
-26
-21
-7
0
-10
-21
-31
-46
-54
-41
-38
-24
-14
-13
-17
-28
-36
-51
-52
-47
-36
-23
-4
-9
-16
-28
-54
-65
-71
-58
-45
-30
-22
-22
-37
-45
-41
-39
-28
-11
7
39
54
70
80
93
89
94
102
101
90
91
78
60
31
3
-34
-54
-67
-55
-51
-19
-12
-14
-30
-36
-67
-67
-65
-54
-41
-13
-11
-6
-24
-33
-63
-54
-45
-37
-33
-20
-18
-25
-34
-34
-54
-51
-41
-39
-41
-24
-28
-25
-31
-41
-62
-61
-55
-40
-33
-8
-7
-14
-21
-26
-53
-61
-55
-42
-32
-15
-17
-25
-42
-39
-45
-45
-39
-25
-24
-8
-9
-21
-36
-41
-45
-49
-34
-28
-25
0
4
3
-4
-21
-39
-37
-27
-13
-1
12
16
15
0
-13
-27
-22
-3
2
6
21
17
11
7
-2
-8
-7
0
4
5
14
16
13
6
-2
-5
-4
-4
2
14
23
22
11
0
-16
-34
-42
-35
-26
-9
-3
5
-3
-10
-33
-41
-47
-38
-30
-14
-16
-26
-33
-34
-48
-50
-54
-44
-45
-25
-28
-34
-46
-54
-69
-58
-50
-40
-38
-18
-12
-19
-39
-38
-62
-64
-61
-44
-43
-30
-28
-31
-38
-41
-56
-51
-47
-41
-35
-17
-26
-27
-39
-44
-63
-69
-68
-51
-47
-27
-20
-31
-34
-35
-55
-58
-47
-43
-49
-28
-26
-28
-31
-35
-56
-55
-44
-39
-33
-16
-15
-26
-36
-37
-60
-64
-51
-41
-42
-24
-20
-26
-33
-49
-64
-63
-55
-47
-35
-16
-19
-35
-41
-47
-54
-63
-51
-40
-39
-36
-32
-34
-35
-39
-47
-51
-47
-42
-41
-23
-23
-31
-39
-56
-69
-76
-63
-47
-36
-29
-26
-34
-40
-51
-57
-66
-58
-55
-39
-20
-22
-31
-42
-69
-70
-68
-58
-48
-39
-37
-35
-44
-39
-56
-57
-58
-49
-49
-34
-31
-30
-45
-49
-68
-63
-71
-59
-55
-29
-26
-31
-41
-43
-66
-64
-62
-55
-44
-23
-25
-29
-42
-39
-66
-67
-59
-51
-49
-28
-25
-34
-41
-40
-60
-58
-54
-47
-35
-25
-23
-22
-38
-48
-63
-67
-71
-53
-39
-22
-16
-28
-34
-40
-61
-66
-66
-59
-54
-35
-22
-30
-38
-44
-61
-70
-71
-64
-52
-29
-21
-31
-39
-46
-59
-60
-51
-42
-41
-31
-26
-37
-50
-56
-67
-68
-57
-50
-37
-22
-23
-35
-53
-60
-78
-72
-62
-57
-39
-29
-30
-39
-46
-54
-65
-75
-70
-59
-48
-31
-26
-33
-38
-48
-60
-64
-61
-53
-43
-32
-28
-33
-33
-51
-63
-67
-61
-60
-43
-40
-33
-39
-40
-62
-59
-62
-48
-43
-24
-19
-20
-31
-30
-56
-64
-64
-52
-40
-17
-15
-23
-33
-38
-57
-51
-53
-41
-37
-18
-21
-22
-37
-39
-57
-56
-49
-47
-54
-36
-37
-40
-47
-48
-64
-66
-61
-51
-49
-30
-29
-33
-43
-42
-69
-69
-63
-53
-50
-37
-37
-39
-50
-52
-70
-70
-70
-59
-45
-23
-23
-39
-50
-62
-81
-82
-68
-55
-45
-32
-30
-39
-50
-60
-72
-75
-70
-59
-50
-25
-16
-18
-10
7
5
11
35
71
97
118
116
100
85
73
46
33
17
-4
-15
-20
-40
-55
-65
-69
-77
-68
-56
-56
-43
-29
-23
-34
-41
-54
-70
-66
-50
-43
-32
-25
-29
-43
-44
-53
-51
-52
-59
-52
-42
-34
-34
-41
-41
-54
-53
-54
-47
-49
-30
-32
-37
-38
-30
-45
-49
-55
-49
-44
-26
-27
-32
-37
-42
-61
-55
-59
-45
-37
-18
-17
-19
-27
-22
-48
-45
-47
-39
-41
-19
-15
-12
-19
-20
-41
-38
-32
-21
-27
0
0
-9
-10
-6
-30
-33
-27
-14
-8
4
3
5
3
-5
-30
-38
-23
-11
1
17
20
20
11
4
-8
-12
-12
-4
6
20
24
21
7
-4
-17
-24
-30
-25
-14
3
7
-5
-13
-21
-35
-44
-40
-33
-23
-5
-3
-16
-37
-48
-63
-60
-50
-45
-42
-33
-29
-39
-40
-41
-56
-57
-47
-39
-32
-17
-22
-41
-46
-55
-64
-65
-57
-48
-42
-32
-23
-40
-46
-56
-63
-70
-56
-52
-32
-24
-29
-38
-40
-57
-60
-57
-56
-56
-40
-40
-43
-49
-44
-55
-50
-53
-41
-41
-27
-26
-28
-45
-44
-64
-68
-59
-43
-37
-18
-22
-27
-45
-46
-67
-61
-60
-47
-45
-31
-27
-31
-40
-43
-57
-57
-58
-53
-53
-30
-29
-22
-27
-30
-57
-61
-60
-50
-42
-28
-26
-29
-40
-46
-60
-58
-54
-46
-49
-31
-30
-40
-47
-43
-53
-60
-55
-45
-44
-31
-28
-40
-47
-53
-63
-66
-57
-45
-36
-24
-25
-39
-60
-69
-72
-65
-54
-42
-41
-26
-19
-39
-40
-47
-64
-69
-62
-52
-48
-26
-15
-29
-48
-46
-60
-61
-58
-53
-41
-25
-28
-39
-49
-51
-68
-65
-55
-51
-40
-30
-27
-29
-35
-55
-65
-66
-60
-51
-34
-22
-17
-27
-31
-53
-56
-57
-45
-46
-32
-29
-32
-35
-43
-55
-59
-63
-54
-53
-34
-34
-37
-44
-44
-55
-54
-60
-48
-46
-27
-22
-21
-31
-35
-67
-68
-61
-55
-57
-38
-31
-37
-45
-48
-58
-53
-49
-34
-35
-19
-17
-29
-42
-45
-73
-72
-73
-58
-49
-36
-34
-33
-38
-45
-63
-65
-55
-40
-39
-16
-14
-22
-36
-46
-62
-64
-65
-55
-49
-29
-28
-34
-46
-50
-59
-53
-47
-39
-33
-21
-28
-39
-38
-42
-54
-54
-50
-42
-39
-22
-22
-29
-34
-34
-48
-50
-45
-37
-35
-22
-18
-22
-27
-40
-45
-49
-55
-51
-36
-16
-17
-21
-33
-45
-63
-59
-54
-47
-36
-26
-30
-37
-38
-51
-63
-64
-58
-55
-40
-30
-33
-42
-50
-65
-73
-75
-61
-46
-32
-27
-29
-44
-45
-57
-52
-63
-51
-47
-25
-23
-32
-46
-46
-67
-68
-68
-60
-61
-44
-40
-41
-34
-23
-34
-26
-13
9
27
63
84
106
112
109
78
74
70
64
51
58
40
4
-24
-49
-72
-73
-63
-58
-55
-37
-25
-24
-35
-42
-53
-52
-49
-49
-42
-21
-22
-23
-39
-46
-63
-63
-54
-44
-46
-20
-25
-32
-35
-40
-54
-58
-49
-37
-34
-20
-14
-23
-36
-48
-57
-56
-49
-46
-38
-22
-19
-18
-28
-34
-46
-50
-43
-29
-24
-14
-14
-20
-38
-41
-51
-48
-35
-33
-20
-10
-6
-19
-27
-39
-46
-44
-30
-26
-4
10
8
-8
-12
-26
-26
-34
-21
-11
2
4
11
6
2
-16
-20
-18
-3
8
23
21
16
9
4
-18
-12
-9
3
7
18
28
26
18
11
-8
-19
-20
-13
-8
5
1
-1
-12
-10
-25
-23
-17
-13
-9
3
-5
-8
-18
-21
-42
-48
-45
-29
-29
-12
-14
-17
-30
-30
-55
-60
-66
-59
-43
-20
-25
-34
-39
-34
-52
-54
-44
-37
-35
-17
-14
-27
-37
-45
-63
-67
-60
-44
-30
-15
-13
-24
-34
-41
-53
-65
-54
-40
-28
-13
-11
-22
-39
-39
-53
-60
-50
-36
-32
-23
-24
-27
-31
-42
-55
-64
-54
-37
-31
-29
-15
-16
-30
-39
-43
-51
-41
-36
-28
-17
-19
-31
-31
-42
-60
-65
-51
-43
-35
-22
-10
-16
-30
-51
-61
-56
-47
-37
-29
-17
-16
-28
-33
-46
-46
-53
-45
-38
-20
-19
-17
-34
-30
-47
-52
-48
-48
-38
-23
-23
-28
-40
-41
-52
-53
-56
-39
-54
-40
-36
-37
-37
-38
-54
-45
-43
-40
-36
-21
-24
-25
-33
-33
-53
-56
-56
-53
-48
-26
-30
-28
-35
-40
-50
-57
-59
-39
-35
-18
-26
-23
-30
-30
-51
-56
-49
-44
-41
-30
-33
-41
-39
-47
-60
-62
-56
-38
-40
-25
-20
-26
-48
-51
-60
-68
-49
-38
-26
-13
-15
-24
-33
-36
-51
-55
-50
-50
-36
-23
-23
-32
-39
-46
-45
-50
-44
-30
-18
-3
-3
-15
-26
-37
-50
-57
-43
-34
-31
-18
-10
-15
-28
-35
-44
-47
-45
-38
-32
-15
-14
-25
-32
-56
-58
-49
-45
-44
-35
-28
-22
-30
-35
-51
-52
-57
-50
-47
-29
-25
-29
-34
-36
-54
-53
-61
-51
-45
-22
-28
-30
-46
-47
-62
-69
-68
-62
-60
-33
-26
-17
-24
-39
-54
-61
-60
-48
-57
-37
-27
-25
-34
-20
-37
-36
-25
-4
17
54
73
90
82
79
62
59
61
60
49
50
31
2
-37
-54
-73
-88
-76
-50
-52
-32
-33
-33
-41
-45
-57
-54
-49
-44
-37
-17
-18
-20
-30
-36
-59
-67
-53
-43
-30
-19
-8
-17
-26
-35
-53
-56
-47
-43
-40
-23
-17
-22
-35
-45
-54
-47
-43
-30
-22
-15
-14
-23
-34
-37
-57
-51
-34
-34
-25
-17
-15
-19
-17
-25
-42
-50
-36
-37
-25
-6
-5
-12
-23
-30
-33
-35
-20
-18
-3
2
-1
-14
-17
-29
-31
-28
-15
-9
3
18
12
1
-2
-18
-20
-19
-9
-2
13
15
6
3
5
-11
-9
-7
11
12
17
11
5
2
3
-12
-14
-13
-6
-11
12
19
17
0
-6
-30
-37
-40
-28
-22
-11
-5
-7
-18
-31
-49
-45
-45
-26
-30
-15
-21
-26
-36
-42
-61
-61
-54
-40
-38
-16
-7
-20
-29
-38
-50
-57
-61
-49
-46
-21
-11
-19
-27
-33
-52
-57
-55
-52
-44
-24
-20
-23
-35
-41
-56
-61
-55
-42
-37
-26
-25
-26
-28
-39
-57
-59
-52
-45
-32
-17
-12
-29
-36
-39
-53
-61
-48
-41
-33
-14
-13
-17
-32
-41
-50
-52
-49
-42
-32
-16
-20
-30
-30
-45
-50
-53
-48
-41
-24
-18
-14
-29
-31
-42
-55
-59
-47
-47
-36
-32
-21
-28
-36
-51
-55
-55
-46
-37
-19
-17
-22
-32
-36
-52
-52
-47
-31
-35
-23
-24
-31
-42
-46
-57
-52
-46
-48
-46
-32
-29
-30
-35
-28
-48
-51
-55
-52
-43
-21
-23
-25
-39
-44
-59
-67
-60
-48
-42
-21
-24
-25
-39
-40
-61
-57
-51
-41
-42
-20
-17
-23
-38
-43
-48
-52
-51
-46
-43
-27
-26
-29
-35
-37
-61
-56
-51
-46
-40
-29
-21
-28
-41
-51
-67
-60
-48
-39
-34
-22
-21
-26
-33
-42
-53
-55
-48
-41
-34
-17
-14
-21
-23
-35
-51
-48
-33
-25
-30
-20
-9
-10
-23
-41
-51
-51
-53
-43
-30
-6
-8
-17
-31
-42
-54
-63
-48
-48
-33
-19
-24
-30
-39
-56
-68
-64
-51
-50
-32
-17
-21
-29
-34
-51
-56
-57
-48
-49
-32
-30
-27
-38
-43
-53
-61
-58
-53
-49
-27
-21
-24
-39
-42
-67
-62
-58
-54
-55
-33
-28
-29
-44
-50
-72
-66
-59
-40
-23
1
10
12
15
31
29
53
74
92
97
111
103
89
65
49
11
-13
-30
-37
-48
-36
-35
-34
-40
-49
-59
-58
-49
-34
-36
-24
-18
-21
-27
-43
-59
-62
-60
-47
-39
-19
-10
-15
-32
-47
-66
-60
-55
-45
-37
-27
-17
-20
-33
-42
-52
-52
-48
-39
-27
-19
-15
-20
-27
-36
-50
-58
-55
-36
-24
-12
-8
-23
-35
-40
-53
-53
-38
-33
-21
-13
-16
-21
-24
-30
-39
-43
-32
-29
-20
-8
-8
-13
-15
-34
-36
-42
-23
-16
-5
4
7
-2
-13
-27
-30
-26
-6
-1
14
19
13
1
-1
-18
-16
-13
-7
-1
20
23
20
4
-1
-16
-16
-22
-12
0
25
27
22
9
-1
-26
-22
-24
-16
-20
1
4
1
-14
-18
-40
-40
-45
-32
-33
-17
-16
-20
-28
-25
-55
-57
-54
-44
-37
-20
-22
-27
-35
-39
-58
-54
-52
-44
-42
-22
-16
-29
-37
-38
-50
-63
-66
-51
-42
-26
-17
-20
-31
-38
-53
-53
-49
-48
-42
-27
-24
-33
-27
-36
-55
-62
-59
-49
-44
-27
-19
-21
-31
-42
-57
-58
-51
-36
-35
-13
-13
-27
-35
-41
-57
-63
-55
-42
-31
-16
-16
-27
-27
-41
-50
-49
-44
-44
-35
-26
-25
-31
-42
-54
-59
-53
-44
-43
-36
-28
-22
-29
-32
-43
-52
-51
-44
-36
-8
-18
-23
-33
-40
-56
-60
-64
-51
-44
-23
-19
-28
-36
-30
-51
-60
-56
-44
-48
-32
-30
-30
-37
-33
-57
-50
-49
-42
-47
-26
-25
-30
-40
-47
-67
-66
-64
-49
-38
-17
-14
-18
-29
-37
-59
-62
-66
-52
-53
-28
-20
-27
-36
-39
-53
-51
-51
-40
-36
-21
-19
-27
-37
-41
-62
-51
-44
-38
-36
-22
-19
-28
-36
-39
-47
-52
-50
-41
-28
-8
-6
-13
-29
-36
-51
-53
-47
-38
-32
-20
-27
-39
-47
-43
-53
-55
-50
-48
-43
-23
-23
-26
-36
-46
-60
-55
-57
-62
-52
-45
-31
-32
-38
-46
-54
-70
-71
-65
-51
-31
-28
-46
-52
-59
-61
-54
-43
-41
-30
-22
-24
-33
-41
-64
-72
-76
-64
-56
-44
-38
-41
-40
-27
-30
-25
-16
0
13
46
75
101
109
104
79
73
63
69
54
47
29
7
-21
-35
-63
-67
-64
-46
-50
-31
-22
-30
-38
-37
-57
-54
-56
-44
-42
-24
-25
-24
-40
-44
-59
-54
-47
-39
-36
-20
-24
-27
-35
-36
-58
-51
-50
-47
-48
-31
-23
-25
-31
-33
-54
-58
-54
-35
-31
-18
-15
-19
-30
-40
-50
-51
-40
-30
-21
-9
-14
-28
-43
-45
-56
-58
-37
-29
-16
-6
-7
-11
-17
-28
-38
-37
-44
-37
-21
6
7
-10
-15
-22
-35
-34
-20
-9
-2
11
11
10
3
-10
-31
-22
-15
-11
2
14
14
11
5
5
-15
-16
-2
-7
6
19
22
16
7
-13
-28
-29
-14
-10
5
19
5
0
-13
-32
-37
-38
-35
-27
-11
1
-3
-14
-21
-47
-58
-56
-43
-34
-9
-14
-21
-38
-43
-56
-58
-59
-42
-39
-25
-24
-27
-43
-48
-61
-56
-50
-42
-40
-20
-18
-28
-37
-43
-59
-61
-54
-39
-46
-26
-24
-23
-27
-36
-62
-60
-58
-55
-53
-32
-24
-32
-38
-40
-54
-62
-58
-48
-38
-20
-16
-30
-42
-46
-64
-73
-58
-44
-41
-19
-18
-26
-36
-43
-57
-59
-46
-40
-33
-18
-12
-28
-34
-36
-46
-51
-58
-50
-33
-30
-29
-37
-45
-52
-67
-58
-47
-38
-29
-22
-28
-36
-41
-50
-60
-59
-44
-41
-33
-18
-16
-36
-44
-54
-67
-69
-56
-45
-22
-10
-22
-32
-37
-52
-66
-64
-56
-53
-38
-25
-28
-43
-49
-66
-68
-64
-52
-42
-24
-27
-25
-34
-31
-55
-60
-68
-61
-54
-31
-27
-31
-42
-44
-59
-60
-56
-40
-41
-24
-24
-23
-35
-40
-63
-73
-72
-51
-46
-23
-23
-25
-39
-45
-65
-57
-58
-49
-39
-24
-24
-15
-25
-39
-62
-57
-45
-36
-38
-17
-13
-16
-31
-33
-54
-59
-55
-39
-34
-23
-19
-23
-39
-38
-51
-64
-65
-40
-38
-30
-31
-30
-47
-54
-62
-62
-55
-48
-46
-31
-34
-37
-49
-55
-66
-67
-63
-47
-41
-30
-28
-35
-40
-51
-65
-65
-62
-58
-51
-39
-34
-36
-45
-53
-77
-78
-63
-58
-39
-24
-26
-38
-46
-54
-69
-71
-64
-56
-50
-32
-28
-25
-11
-21
-19
-2
21
48
92
121
118
115
100
81
54
42
32
12
-3
-11
-29
-47
-48
-65
-63
-67
-54
-50
-26
-25
-29
-43
-53
-74
-68
-60
-45
-41
-23
-22
-23
-35
-40
-58
-59
-60
-53
-49
-25
-26
-30
-48
-47
-66
-69
-59
-49
-46
-25
-22
-23
-32
-33
-55
-56
-50
-43
-42
-18
-11
-18
-33
-40
-56
-64
-57
-50
-47
-18
-19
-28
-27
-38
-48
-49
-52
-33
-27
-17
-10
-14
-25
-30
-53
-61
-49
-34
-26
-6
-3
-15
-19
-22
-27
-25
-20
-22
-15
7
-1
-1
-11
-8
-23
-27
-12
2
9
19
16
6
-8
-11
-18
-18
-10
0
5
13
12
1
-5
-2
-27
-33
-21
-16
-13
-1
-3
-12
-26
-38
-55
-56
-40
-29
-14
-5
-16
-27
-37
-49
-56
-54
-47
-51
-33
-24
-31
-39
-41
-58
-56
-63
-55
-56
-36
-15
-20
-32
-38
-64
-70
-64
-59
-51
-39
-39
-39
-40
-37
-51
-50
-54
-61
-62
-44
-40
-38
-49
-43
-61
-59
-60
-47
-51
-40
-33
-28
-44
-43
-64
-72
-62
-48
-43
-30
-29
-32
-39
-41
-65
-67
-60
-43
-41
-18
-25
-35
-42
-47
-64
-63
-55
-45
-50
-35
-29
-36
-41
-45
-58
-56
-49
-43
-40
-17
-11
-27
-43
-54
-70
-77
-71
-51
-38
-19
-23
-32
-47
-56
-66
-73
-61
-45
-31
-11
-7
-23
-37
-52
-75
-76
-63
-51
-40
-25
-24
-39
-42
-60
-69
-65
-46
-34
-26
-21
-32
-43
-54
-64
-70
-69
-61
-50
-38
-31
-36
-43
-49
-62
-72
-68
-52
-44
-32
-24
-24
-37
-37
-56
-62
-61
-60
-57
-38
-36
-34
-41
-47
-68
-74
-68
-59
-47
-27
-20
-26
-40
-41
-57
-78
-79
-62
-59
-47
-35
-39
-48
-42
-61
-53
-55
-38
-42
-26
-27
-34
-40
-36
-58
-63
-51
-41
-35
-15
-10
-18
-26
-23
-52
-59
-53
-46
-38
-23
-26
-33
-42
-41
-58
-59
-58
-50
-42
-36
-40
-45
-49
-58
-73
-79
-68
-55
-47
-33
-28
-31
-46
-57
-66
-71
-66
-60
-55
-37
-31
-40
-48
-47
-66
-64
-66
-52
-48
-32
-29
-42
-53
-59
-72
-74
-71
-59
-45
-29
-31
-47
-59
-75
-86
-81
-61
-39
-22
-1
14
12
13
18
29
56
93
103
107
115
109
98
75
48
15
-12
-29
-53
-59
-46
-42
-46
-43
-45
-58
-56
-49
-44
-28
-30
-34
-43
-44
-59
-64
-59
-45
-39
-21
-23
-25
-40
-52
-63
-47
-62
-44
-41
-34
-33
-38
-37
-44
-63
-67
-59
-45
-41
-18
-21
-26
-33
-37
-57
-58
-49
-39
-43
-25
-19
-24
-32
-39
-58
-56
-53
-39
-31
-14
-15
-18
-34
-36
-52
-45
-41
-26
-22
-8
-14
-15
-20
-24
-41
-44
-34
-22
-21
-2
2
-5
-11
-13
-22
-34
-35
-25
-15
10
18
14
-8
-15
-29
-24
-13
1
8
22
31
13
2
-4
-21
-25
-19
-7
4
17
15
5
-9
-16
-23
-21
-12
-6
-7
2
2
-22
-33
-43
-48
-51
-46
-33
-27
-10
-10
-24
-31
-46
-55
-52
-49
-45
-31
-19
-23
-30
-33
-54
-59
-67
-55
-54
-38
-31
-32
-41
-36
-53
-55
-48
-41
-40
-25
-18
-22
-40
-36
-56
-49
-50
-50
-42
-21
-28
-27
-39
-46
-63
-57
-55
-46
-48
-28
-29
-22
-33
-37
-50
-52
-55
-48
-43
-22
-23
-24
-32
-30
-51
-54
-50
-46
-41
-27
-22
-20
-31
-37
-57
-56
-48
-21
-26
-14
-22
-29
-43
-39
-59
-64
-56
-40
-26
-10
-12
-16
-32
-40
-52
-53
-49
-41
-31
-20
-15
-26
-41
-43
-63
-61
-46
-36
-41
-31
-21
-23
-34
-46
-59
-61
-55
-42
-35
-22
-21
-33
-32
-36
-52
-59
-47
-46
-39
-27
-15
-15
-35
-50
-56
-51
-39
-36
-31
-21
-21
-28
-41
-39
-54
-64
-56
-50
-43
-32
-25
-30
-36
-55
-61
-58
-51
-45
-34
-19
-20
-33
-39
-60
-61
-61
-49
-42
-25
-21
-20
-33
-47
-66
-60
-62
-46
-43
-27
-18
-17
-36
-35
-53
-45
-47
-46
-40
-16
-14
-25
-36
-37
-54
-50
-49
-35
-38
-14
-8
-15
-27
-26
-43
-50
-45
-37
-31
-7
0
-7
-23
-36
-64
-66
-58
-37
-40
-21
-20
-28
-41
-43
-56
-59
-53
-41
-39
-26
-21
-26
-43
-45
-58
-60
-60
-49
-42
-29
-36
-42
-43
-51
-71
-62
-53
-47
-40
-23
-19
-29
-44
-51
-66
-69
-57
-49
-43
-34
-25
-34
-43
-43
-59
-63
-56
-57
-59
-45
-36
-36
-33
-28
-33
-21
-4
16
50
81
102
115
116
106
90
85
86
70
50
46
18
-11
-31
-60
-64
-65
-50
-44
-34
-26
-31
-51
-41
-49
-50
-47
-38
-44
-38
-31
-28
-36
-37
-58
-52
-48
-38
-39
-24
-19
-13
-29
-37
-57
-64
-68
-56
-47
-20
-16
-17
-31
-37
-58
-52
-51
-32
-32
-11
-16
-24
-30
-32
-53
-51
-46
-36
-31
-15
-17
-24
-36
-32
-45
-45
-40
-28
-17
10
9
-5
-18
-19
-45
-47
-45
-33
-26
-5
3
5
-9
-9
-19
-30
-25
-17
-8
10
8
4
-2
-14
-20
-25
-12
4
5
17
27
11
5
9
-10
-13
-7
8
7
17
21
8
3
-4
-10
-9
-6
10
13
20
14
-6
-11
-13
-29
-38
-29
-19
-12
-4
-6
-19
-33
-37
-49
-46
-37
-35
-30
-21
-18
-29
-34
-43
-56
-54
-56
-44
-31
-20
-18
-26
-44
-63
-62
-53
-39
-34
-15
-20
-18
-22
-28
-44
-46
-52
-45
-46
-29
-27
-22
-33
-36
-59
-59
-60
-48
-38
-18
-21
-24
-33
-36
-50
-54
-50
-44
-41
-23
-28
-31
-43
-45
-55
-62
-49
-26
-28
-8
-11
-13
-27
-26
-48
-47
-58
-41
-39
-26
-24
-25
-28
-35
-60
-56
-54
-40
-37
-20
-17
-26
-33
-43
-60
-58
-55
-43
-37
-19
-15
-19
-22
-40
-59
-65
-55
-39
-29
-14
-15
-20
-33
-41
-57
-61
-53
-45
-31
-17
-15
-18
-35
-52
-63
-63
-56
-40
-36
-23
-17
-18
-31
-40
-47
-52
-52
-49
-36
-22
-25
-26
-29
-39
-49
-53
-40
-35
-23
-12
-15
-29
-43
-58
-57
-55
-42
-40
-31
-28
-31
-33
-41
-55
-55
-45
-41
-44
-29
-22
-17
-31
-36
-51
-60
-53
-46
-43
-28
-24
-26
-32
-23
-44
-52
-44
-32
-39
-24
-26
-19
-33
-31
-42
-42
-46
-38
-38
-12
-20
-24
-29
-34
-52
-50
-44
-40
-25
-1
-7
-14
-24
-29
-36
-36
-43
-32
-30
-7
-3
-9
-24
-19
-38
-43
-48
-36
-40
-38
-24
-32
-37
-43
-55
-57
-50
-34
-33
-11
-12
-26
-41
-53
-66
-73
-65
-45
-41
-17
-14
-37
-43
-43
-51
-54
-44
-26
-30
-21
-10
-26
-41
-52
-73
-59
-57
-51
-42
-28
-25
-31
-38
-48
-64
-72
-59
-47
-29
-12
3
10
8
18
12
39
61
95
123
140
146
131
115
85
62
31
23
6
-7
-22
-27
-44
-57
-68
-66
-52
-32
-28
-17
-22
-17
-34
-35
-46
-47
-51
-45
-40
-17
-8
-20
-27
-30
-54
-50
-56
-40
-35
-13
-13
-3
-19
-31
-50
-50
-52
-41
-38
-17
-20
-12
-27
-31
-50
-48
-45
-30
-26
-3
-2
-19
-43
-41
-58
-61
-47
-26
-29
0
8
-6
-12
-20
-40
-37
-33
-19
-19
-2
10
3
-15
-16
-30
-36
-23
-14
-12
5
9
6
-4
-13
-27
-27
-23
-4
6
21
26
12
13
0
-23
-20
1
11
23
42
38
29
7
-2
-12
-7
1
13
18
33
31
19
4
-6
-15
-20
-19
-13
-3
13
12
-1
-10
-14
-29
-35
-25
-17
-13
1
-4
-24
-29
-48
-49
-43
-37
-30
-9
1
-7
-13
-26
-45
-43
-45
-32
-36
-23
-18
-21
-24
-24
-46
-52
-46
-30
-28
-24
-25
-21
-32
-40
-62
-54
-49
-32
-36
-10
0
-6
-25
-26
-47
-49
-49
-36
-30
-14
-10
-7
-31
-32
-53
-56
-52
-38
-30
-7
-6
-13
-12
-11
-35
-35
-39
-34
-31
-7
1
-4
-25
-22
-38
-47
-44
-32
-29
-13
-10
-8
-27
-24
-41
-46
-42
-30
-37
-8
2
-1
-19
-30
-51
-65
-50
-32
-24
1
3
-3
-17
-24
-46
-43
-44
-39
-29
-16
-14
-20
-23
-33
-45
-45
-40
-35
-31
-11
-9
-17
-29
-26
-36
-42
-33
-28
-25
-14
-14
-23
-39
-34
-42
-39
-30
-21
-16
-10
-12
-21
-22
-44
-59
-54
-41
-31
-21
-8
-8
-15
-26
-42
-45
-46
-29
-22
-8
-7
-10
-16
-19
-41
-45
-44
-37
-30
-15
-6
-11
-23
-26
-44
-43
-33
-30
-21
-4
2
-2
-16
-16
-33
-37
-39
-30
-33
-13
-12
-11
-23
-31
-40
-42
-44
-31
-29
-9
-6
-12
-12
-15
-36
-40
-26
-22
-26
6
7
4
-7
-8
-28
-31
-26
-21
-8
10
7
3
-14
-15
-32
-36
-33
-28
-20
0
-1
-4
-12
-19
-41
-49
-42
-30
-26
-22
-15
-24
-28
-31
-39
-46
-44
-43
-45
-12
-2
-11
-18
-30
-51
-53
-43
-35
-22
-13
-15
-31
-35
-36
-49
-49
-38
-35
-27
-8
-4
-15
-26
-41
-55
-55
-42
-37
-29
-18
-18
-29
-40
-46
-40
-36
-10
6
30
48
59
66
93
112
112
116
131
122
118
110
93
59
24
-24
-43
-56
-44
-38
-21
-19
-26
-22
-15
-34
-39
-38
-26
-26
-10
-10
-5
-22
-22
-39
-28
-27
-22
-26
-15
-11
-11
-18
-22
-42
-33
-24
-14
-19
8
5
2
-11
-18
-41
-38
-42
-28
-24
-7
-4
-4
-12
-15
-33
-30
-23
-16
-17
2
6
-1
-15
-27
-26
-36
-27
-15
-9
15
22
16
-1
-13
-30
-20
-21
-10
-2
12
20
15
10
6
-5
-6
-4
8
5
19
22
19
24
14
1
-4
1
6
12
41
43
33
20
6
-2
3
10
25
23
43
38
31
24
5
1
-7
1
16
28
51
45
32
21
-1
-12
-17
-11
-3
10
15
19
8
2
-22
-26
-32
-25
-27
-10
-1
2
-10
-12
-25
-27
-27
-26
-31
-7
-11
-9
-22
-22
-35
-29
-21
-21
-25
-11
0
-10
-23
-22
-41
-40
-38
-24
-15
10
11
3
-17
-32
-57
-51
-46
-27
-19
4
12
13
-1
-18
-43
-41
-33
-20
-22
-5
-3
-10
-25
-26
-33
-25
-20
-13
-19
3
2
-4
-11
-21
-48
-39
-32
-22
-16
7
14
-2
-5
-17
-39
-37
-31
-17
-17
2
2
-5
-9
-15
-33
-38
-44
-29
-16
1
-3
-10
-13
-19
-31
-31
-24
-26
-18
-7
-8
-16
-24
-32
-44
-39
-35
-22
-12
2
8
-3
-13
-33
-46
-43
-27
-24
-23
-15
-4
-6
-15
-29
-33
-42
-32
-24
-12
-1
1
-9
-18
-32
-39
-35
-27
-30
-12
3
-9
-18
-18
-35
-37
-38
-15
-21
-8
-1
-5
-13
-14
-42
-47
-46
-34
-24
-9
-13
-17
-20
-23
-38
-36
-36
-24
-21
1
-1
-9
-19
-28
-40
-43
-47
-23
-4
2
-2
3
-12
-22
-40
-39
-24
-17
-18
-7
-1
3
-4
-16
-38
-44
-30
-2
-3
11
9
5
-1
-10
-28
-23
-19
-7
-3
9
9
4
-2
-14
-39
-44
-44
-26
-11
-5
-6
-11
-30
-26
-40
-41
-38
-24
-19
1
-3
-11
-11
-29
-42
-50
-36
-30
-20
-17
-16
-23
-24
-20
-24
-28
-31
-17
-15
-2
-8
-28
-37
-35
-43
-48
-36
-26
-24
-7
-11
-22
-26
-41
-45
-47
-43
-40
-25
-7
0
-1
-3
1
7
25
67
89
127
152
155
137
131
119
97
80
72
57
39
25
2
-22
-19
-37
-41
-33
-24
-23
-1
-1
-2
-8
-11
-28
-27
-25
-20
-28
-7
-4
-3
-11
-14
-45
-35
-19
-8
-8
11
13
4
-11
-10
-38
-35
-33
-17
-15
13
16
6
-10
-10
-34
-35
-30
-16
-14
8
11
14
6
1
-15
-18
-13
-9
-9
8
17
12
-7
-10
-21
-17
-3
9
13
23
19
13
7
-4
-16
-20
-4
10
18
26
34
32
23
13
-1
-8
2
9
27
42
38
41
42
38
31
23
26
40
40
51
57
46
39
28
16
19
24
32
39
65
64
58
47
28
10
6
21
21
33
41
50
42
28
17
8
1
4
11
22
27
27
16
14
0
-10
-13
-3
2
13
21
24
9
9
-12
-11
-10
-4
-10
15
15
15
2
-8
-23
-22
-15
5
8
24
26
20
6
1
-16
-10
-12
1
7
23
16
10
-4
-9
-24
-17
-18
-1
1
22
25
23
10
1
-18
-12
-5
4
6
23
18
12
0
1
-19
-14
-5
6
12
33
34
22
6
-3
-25
-23
-9
5
15
24
27
22
9
5
-15
-16
-11
3
3
12
17
13
8
0
-15
-19
-9
8
9
30
25
15
4
-8
-28
-22
-14
-8
0
15
13
1
-5
-1
-7
-8
-7
2
9
21
25
14
2
-8
-24
-26
-11
-10
2
16
23
9
3
-18
-24
-23
-11
2
19
23
17
2
-3
-15
-19
-17
4
3
12
11
12
6
1
-17
-19
-20
-10
-7
12
24
21
8
3
-18
-23
-16
-4
-2
19
20
14
8
14
-1
-6
-14
-5
-7
15
13
17
7
9
-16
-15
-11
8
9
30
37
29
9
11
-5
-4
2
12
8
32
38
33
21
21
-10
-14
-6
8
20
48
46
30
14
-1
-21
-24
-15
-2
2
19
23
17
-2
-1
-13
-14
-5
5
1
11
13
10
0
-2
-21
-22
-19
-8
-5
8
13
13
8
-1
-20
-19
-10
-4
1
20
16
2
-12
-17
-26
-22
-15
-3
2
20
20
4
-7
-16
-32
-39
-27
-18
5
32
50
54
56
59
59
68
112
148
167
182
181
156
139
107
87
65
52
28
24
18
8
-7
-9
-20
-27
-18
-7
-1
18
20
16
1
3
-10
-13
-11
-4
1
20
19
20
9
3
-15
-13
-17
0
2
22
28
24
18
12
-10
-16
-19
-6
-7
13
21
19
8
19
-6
-13
-7
3
4
23
30
28
15
11
-13
-6
2
13
13
27
32
25
16
11
-1
-4
1
9
6
29
37
39
33
21
4
6
13
18
27
49
56
47
38
27
9
12
18
32
40
53
55
48
45
46
34
27
31
38
43
59
67
60
46
37
22
23
31
45
48
64
61
47
40
27
14
16
24
36
45
56
45
28
22
13
0
-5
4
12
24
30
30
20
16
6
-4
-10
-4
3
14
17
24
8
3
-14
-18
-17
-4
-2
17
15
11
6
4
-12
-14
-18
-4
-1
17
14
8
-1
2
-13
-10
-14
-4
1
20
14
16
3
3
-15
-17
-25
-11
-4
19
25
34
25
8
-18
-18
-19
-8
-4
25
26
22
3
6
-13
-18
-14
-3
-3
16
26
19
6
6
-14
-17
-13
-4
2
28
28
22
7
2
-16
-19
-10
1
6
23
23
16
-8
-12
-20
-21
-15
-9
-6
13
26
21
8
-3
-19
-17
-8
4
9
25
24
10
-3
-7
-29
-24
-14
-3
4
13
14
7
-2
-10
-22
-25
-11
-2
8
10
12
6
0
-8
-20
-20
-10
-10
1
16
20
20
14
0
-18
-25
-9
-5
9
18
27
15
13
-6
-9
-18
-4
3
14
17
23
20
15
0
-9
-11
-1
-1
22
24
22
7
4
-23
-27
-32
-16
-8
11
23
23
5
-6
-26
-29
-23
-9
-7
13
13
7
-7
-18
-38
-32
-20
3
5
19
15
11
-8
-7
-26
-29
-26
-18
-13
2
2
1
-12
-18
-31
-37
-20
-8
-4
11
7
-1
-18
-27
-35
-39
-26
-13
-9
8
16
18
29
32
32
54
77
107
135
147
151
143
125
104
72
50
46
38
18
9
-6
-16
-32
-42
-42
-39
-27
-7
7
15
19
14
0
-16
-32
-31
-17
-1
1
15
5
2
-8
-16
-27
-28
-14
-6
8
23
16
-2
-5
-12
-16
-22
-7
-4
6
13
14
11
7
-8
-11
-19
-9
-5
15
15
11
4
1
-18
-13
-8
6
4
17
22
21
15
18
-3
2
-5
2
-2
22
22
24
19
17
-4
0
2
12
16
37
41
34
26
24
5
8
13
23
30
50
48
46
37
38
18
15
27
34
36
52
51
54
41
42
20
19
21
37
44
58
57
54
37
27
4
10
11
19
16
34
43
41
19
12
-5
-6
-8
5
12
21
20
11
1
-4
-15
-20
-12
-6
0
11
16
7
-2
-7
-26
-27
-23
-16
-11
8
11
7
-4
-13
-30
-25
-16
-1
2
14
15
5
-2
-14
-33
-35
-23
-19
-13
2
10
1
-5
-14
-23
-19
-5
-2
6
3
0
5
4
-15
-19
-21
-5
0
8
14
11
-2
-5
-25
-31
-27
-21
-15
2
17
15
7
1
-23
-24
-18
-13
-6
10
14
9
-6
-9
-29
-27
-21
-8
-7
10
7
1
-7
-9
-33
-27
-26
-13
-10
11
8
-4
-5
-9
-28
-29
-25
-13
-11
6
11
7
1
-3
-22
-29
-29
-21
-19
11
23
17
4
-3
-24
-29
-26
-12
-2
12
12
14
7
-5
-26
-23
-20
-3
0
21
27
21
10
-10
-32
-30
-21
-13
-6
12
14
5
-12
-19
-35
-29
-15
-9
-5
4
0
-2
-7
-14
-33
-38
-34
-22
-16
0
6
3
-12
-22
-45
-44
-39
-21
-11
3
1
-11
-11
-20
-28
-27
-24
-13
-8
-1
-4
-14
-19
-30
-43
-48
-28
-26
-13
2
8
-7
-16
-40
-48
-53
-45
-36
-10
-3
-3
-3
0
-15
-9
-1
29
42
78
92
113
124
129
112
114
110
112
92
90
68
40
-4
-21
-43
-38
-33
-28
-27
-5
-2
2
-9
-7
-28
-31
-26
-13
-18
0
6
3
-9
-8
-35
-40
-37
-17
-8
0
5
-2
-11
-10
-28
-28
-20
-9
-11
-1
5
5
-10
-15
-31
-26
-14
-8
-7
-1
-5
-13
-11
-10
-19
-28
-24
-13
-2
15
12
9
-3
-5
-18
-27
-21
-2
5
30
23
8
-1
-6
-19
-19
-10
-8
7
29
34
24
12
1
-11
-7
4
11
17
30
37
35
35
8
-6
0
5
15
27
36
40
33
31
17
10
7
16
17
34
35
40
25
24
6
5
4
16
18
32
29
24
6
10
-12
-10
1
10
2
14
11
11
1
3
-22
-19
-24
-14
-10
5
6
-3
-23
-24
-41
-42
-30
-14
-11
4
3
-2
-15
-25
-35
-34
-22
-20
-18
6
4
-2
-12
-22
-41
-42
-33
-23
-19
-2
5
-9
-24
-27
-45
-34
-29
-22
-24
-7
4
-1
-11
-18
-31
-31
-28
-21
-17
-1
0
-4
-15
-30
-38
-33
-13
-9
-2
11
10
0
-11
-20
-35
-39
-35
-19
-5
8
12
-2
-18
-24
-42
-45
-40
-28
-16
3
7
0
-12
-22
-31
-33
-29
-21
-11
4
4
-9
-25
-35
-40
-42
-28
-14
-7
1
3
-6
-19
-31
-34
-43
-30
-26
-10
2
-1
-6
-18
-28
-37
-39
-32
-28
-15
-15
-19
-22
-14
-26
-27
-35
-31
-29
-6
-1
-2
-14
-18
-39
-32
-32
-25
-22
-3
-5
-3
-7
-7
-30
-27
-32
-24
-28
-6
4
0
-10
-14
-36
-31
-26
-14
-14
6
13
10
0
-3
-26
-32
-27
-19
-18
0
6
3
-7
-12
-33
-37
-33
-24
-23
2
-5
-4
-16
-25
-43
-43
-34
-23
-14
-4
1
-12
-17
-34
-43
-48
-28
-22
-16
-2
-5
-17
-28
-34
-47
-51
-46
-37
-29
-2
1
-1
-11
-22
-43
-51
-37
-30
-25
-6
-9
-17
-27
-36
-50
-49
-37
-26
-14
-3
6
3
10
29
32
50
68
103
131
143
139
118
104
80
61
43
38
19
3
-5
-14
-23
-25
-39
-44
-46
-31
-27
-4
2
-1
-10
-18
-41
-41
-30
-16
-18
-10
-10
-6
-10
-8
-26
-35
-35
-24
-27
-16
-4
-3
-13
-18
-41
-38
-30
-22
-16
4
4
0
-10
-15
-32
-35
-36
-28
-22
3
6
2
-12
-18
-36
-26
-19
-5
-7
11
12
3
-6
-19
-34
-31
-23
-9
-5
15
19
12
1
-7
-21
-18
-9
4
11
26
25
19
13
7
-14
-12
-8
1
-1
16
26
30
33
28
13
5
9
16
19
35
47
34
21
14
3
7
14
22
24
33
28
25
21
17
8
-6
-7
8
20
25
20
1
-14
-6
-19
-21
-9
-4
11
23
11
-5
-15
-28
-31
-42
-33
-25
-1
9
5
-8
-11
-28
-37
-37
-27
-30
-8
0
0
-10
-10
-22
-32
-41
-34
-30
-19
-11
-10
-17
-14
-38
-33
-40
-26
-20
-6
0
-1
-14
-21
-42
-33
-30
-21
-22
4
2
-5
-16
-16
-44
-32
-23
-10
-12
5
-4
-13
-31
-25
-41
-38
-27
-20
-17
1
5
-4
-24
-25
-41
-45
-40
-22
-12
5
5
1
-12
-17
-42
-45
-36
-17
-11
4
5
-1
-12
-17
-31
-30
-28
-20
-22
-8
2
-5
-19
-26
-41
-40
-36
-25
-18
-7
3
-2
-7
-15
-33
-45
-48
-38
-20
-6
-5
-12
-22
-23
-37
-42
-34
-24
-22
0
0
-16
-32
-36
-43
-44
-26
-17
-6
10
7
-5
-10
-26
-38
-36
-23
-14
-9
-1
0
-11
-13
-18
-22
-18
-11
-8
6
1
-10
-21
-27
-35
-28
-24
-10
-10
2
-1
-3
-11
-10
-33
-36
-35
-25
-22
-1
-6
-10
-20
-17
-40
-45
-42
-32
-34
-22
-24
-18
-20
-24
-39
-29
-24
-20
-23
-12
-14
-14
-26
-27
-43
-47
-38
-32
-24
-6
-3
-15
-29
-34
-54
-48
-42
-37
-28
-10
-13
-19
-27
-30
-49
-56
-55
-43
-36
-10
3
2
-3
-2
-4
5
24
62
98
133
142
143
133
113
80
70
66
52
42
31
3
-16
-25
-29
-48
-51
-37
-29
-18
-2
2
-6
-23
-32
-50
-54
-39
-24
-13
6
2
-12
-18
-30
-45
-45
-27
-17
-13
0
-2
-9
-20
-30
-39
-33
-25
-24
-19
-7
-7
-12
-17
-30
-36
-38
-22
-10
-2
6
1
-16
-16
-33
-41
-32
-15
-14
3
13
12
-7
-13
-33
-28
-29
-14
-13
6
18
21
9
3
-25
-33
-29
-15
-10
19
25
27
15
10
-14
-12
-8
6
6
27
30
27
12
18
-6
-11
-3
20
23
47
42
32
25
14
-6
-5
5
20
29
51
46
30
8
-1
-10
-13
-14
-2
8
30
35
19
12
-3
-27
-31
-22
-9
-6
12
7
-2
-16
-16
-31
-28
-19
-10
-13
6
3
-5
-14
-22
-38
-47
-38
-36
-35
-18
-14
-22
-18
-17
-27
-30
-26
-18
-10
12
5
-17
-25
-38
-50
-50
-35
-34
-17
5
4
-8
-19
-25
-38
-37
-26
-22
-8
4
-4
-17
-23
-30
-33
-28
-23
-26
-15
-8
-10
-20
-23
-36
-34
-42
-31
-20
-5
-2
-9
-16
-14
-29
-27
-28
-20
-16
4
-5
-11
-21
-24
-45
-42
-47
-29
-23
-1
0
-2
-15
-8
-29
-35
-31
-26
-26
-8
-6
-5
-21
-27
-47
-48
-42
-28
-26
-1
-4
-7
-18
-24
-46
-48
-40
-22
-19
-4
-4
-11
-20
-27
-44
-42
-35
-29
-24
-5
-8
-12
-16
-17
-37
-49
-46
-36
-30
-9
-3
-9
-16
-27
-49
-50
-42
-34
-15
-3
-6
-14
-24
-29
-39
-38
-30
-19
-14
-11
-11
-6
-16
-24
-37
-42
-31
-22
-20
-6
-5
-4
-15
-19
-34
-38
-18
-10
8
11
9
5
-1
-13
-25
-27
-25
-15
1
13
5
-3
-13
-36
-55
-50
-33
-21
-4
-1
1
-3
-8
-32
-40
-38
-30
-24
-3
-5
-8
-19
-18
-36
-41
-46
-39
-35
-10
-7
-10
-18
-19
-38
-36
-34
-38
-35
-17
-11
-9
-23
-21
-38
-42
-42
-25
-26
-8
-10
-1
-26
-35
-53
-48
-44
-25
-16
19
26
35
35
34
25
47
88
124
139
160
152
137
105
79
46
25
0
-8
-22
-15
-13
-5
-12
-22
-38
-33
-24
-19
-22
-6
-9
-18
-14
-16
-31
-37
-37
-25
-20
1
0
-8
-21
-36
-51
-46
-41
-23
-17
-5
-1
-8
-17
-22
-31
-37
-25
-21
-11
4
2
-9
-15
-27
-47
-47
-30
-20
-10
14
15
1
-4
-9
-16
-15
-5
-12
0
8
6
-7
-12
-27
-32
-31
-16
-4
6
10
13
1
-1
-10
-26
-20
-7
0
20
24
19
18
17
-10
-19
-16
4
7
32
39
35
21
18
1
6
9
11
12
33
36
43
34
28
4
6
9
18
16
34
33
28
17
16
-7
-15
-10
-7
-7
13
16
9
3
-2
-17
-27
-20
-11
-6
5
6
-3
-19
-18
-36
-36
-33
-21
-9
9
9
4
-9
-19
-36
-38
-39
-33
-26
-11
-15
-10
-17
-16
-33
-39
-28
-18
-17
-7
-11
-14
-23
-28
-45
-50
-41
-29
-11
5
2
-8
-14
-22
-34
-34
-24
-18
-14
-5
-8
-14
-16
-20
-29
-32
-24
-20
-15
-1
-5
-21
-32
-34
-35
-42
-31
-12
-1
8
13
-7
-19
-32
-41
-39
-28
-18
-6
0
5
-5
-19
-34
-35
-37
-25
-22
-4
-5
-9
-25
-25
-38
-44
-39
-24
-28
-6
0
3
-7
-18
-38
-41
-43
-27
-29
-13
-4
7
-1
-3
-32
-45
-43
-31
-25
-3
-3
-10
-20
-20
-35
-38
-33
-26
-30
-13
-20
-14
-15
-24
-47
-49
-41
-33
-36
-17
-6
-18
-16
-27
-42
-51
-42
-27
-20
4
5
-1
-15
-28
-46
-58
-42
-22
-16
4
8
-7
-25
-31
-42
-48
-35
-32
-19
-6
-5
-15
-24
-26
-39
-39
-41
-24
-12
1
-4
-10
-13
-20
-35
-40
-37
-16
0
15
11
-3
-17
-26
-27
-23
-20
-15
-7
2
-9
-11
-25
-27
-35
-33
-28
-36
-14
-4
-8
-24
-28
-43
-39
-36
-30
-27
-14
-6
-5
-14
-23
-48
-51
-49
-37
-25
-8
-10
-2
-18
-28
-49
-48
-43
-39
-33
-5
-2
-15
-26
-24
-44
-52
-51
-38
-32
-18
-14
-8
-17
-21
-55
-53
-56
-50
-41
-26
-16
6
14
20
8
19
26
60
83
133
151
148
139
119
92
85
83
64
30
27
12
-7
-26
-30
-52
-55
-45
-30
-21
-2
0
-8
-17
-17
-37
-50
-44
-32
-19
-5
-6
-6
-17
-20
-41
-47
-41
-34
-14
-6
0
-10
-15
-24
-35
-37
-27
-29
-18
-7
-10
-17
-23
-29
-33
-35
-33
-20
-11
5
3
-5
-16
-19
-28
-29
-23
-14
-4
8
7
-9
-17
-27
-40
-25
-3
2
9
17
14
1
-3
-19
-29
-31
-15
-4
8
23
23
11
6
-1
4
7
15
9
23
18
19
12
19
10
1
4
18
15
32
37
35
24
23
-1
-3
0
11
11
33
33
30
20
22
-12
-9
-12
-3
2
25
28
26
14
11
-17
-17
-17
-9
-3
18
17
3
-8
-13
-32
-44
-42
-22
-23
-10
-2
-1
-14
-18
-34
-32
-37
-33
-32
-13
-8
-10
-21
-24
-39
-43
-42
-32
-22
0
3
-8
-17
-27
-41
-41
-26
-22
-16
-3
-2
-6
-11
-23
-35
-44
-42
-29
-17
0
7
-4
-19
-27
-51
-52
-39
-28
-15
7
7
0
-13
-30
-34
-32
-34
-26
-20
-13
-10
-14
-11
-16
-28
-31
-27
-17
-3
4
4
-12
-30
-42
-48
-40
-21
-18
-2
13
6
-20
-29
-42
-38
-37
-29
-29
-7
-9
-6
-19
-21
-39
-41
-40
-21
-20
-2
1
-4
-17
-31
-50
-44
-36
-18
-23
-13
-10
-12
-19
-20
-37
-32
-36
-23
-22
-5
-10
-10
-26
-29
-45
-55
-53
-36
-33
-18
-5
0
-16
-12
-36
-37
-38
-27
-26
-9
-6
-3
-13
-20
-37
-45
-41
-34
-26
-13
-11
-22
-27
-34
-40
-38
-33
-23
-29
-17
-5
-4
-10
-22
-43
-48
-35
-23
-13
2
4
-4
-16
-23
-41
-35
-25
-12
-9
4
0
-6
-9
-15
-31
-20
-5
-3
2
15
13
3
-13
-21
-25
-27
-22
-14
-15
-9
-13
-27
-35
-39
-42
-40
-29
-23
-13
-3
-4
-19
-25
-34
-39
-40
-26
-26
-15
-11
-12
-23
-28
-42
-42
-42
-33
-26
-11
-4
-8
-24
-32
-50
-47
-46
-39
-33
-16
-12
-13
-14
-21
-39
-37
-36
-26
-27
-15
-19
-21
-35
-39
-54
-43
-29
-11
-2
28
40
54
59
79
96
122
133
141
137
146
131
109
79
56
5
-23
-44
-43
-45
-29
-18
-22
-32
-24
-36
-34
-29
-17
-21
-4
0
0
-13
-17
-33
-31
-27
-15
-14
-5
-6
-11
-18
-29
-43
-39
-32
-18
-10
5
2
-7
-19
-28
-38
-40
-28
-18
-12
-6
-5
-17
-21
-25
-39
-33
-27
-21
-8
5
7
2
-9
-15
-30
-31
-23
-13
-3
12
12
0
-10
-16
-27
-26
-17
-10
4
21
15
6
-2
-3
-13
-9
1
0
11
26
25
17
9
-8
-3
-5
2
6
28
32
31
17
15
-1
5
8
15
20
34
39
38
27
25
-1
-2
0
10
15
35
35
33
22
13
-3
-4
-7
-4
-9
2
-1
7
-2
7
-17
-23
-28
-21
-20
2
1
-3
-5
-15
-31
-28
-31
-23
-16
-4
-4
-5
-16
-11
-35
-37
-27
-20
-19
-8
-6
-14
-25
-31
-44
-41
-33
-22
-16
-8
-7
-8
-18
-21
-31
-40
-41
-29
-22
-4
3
-6
-13
-24
-43
-47
-34
-17
-9
6
3
-9
-19
-37
-48
-39
-28
-12
-4
10
14
5
-7
-20
-39
-45
-30
-17
-10
7
5
-10
-20
-35
-41
-38
-28
-19
-9
4
0
-6
-18
-37
-40
-34
-20
-22
-18
-8
-5
-16
-25
-36
-38
-35
-18
-18
-1
5
-6
-16
-16
-41
-41
-36
-27
-28
-4
-4
-9
-24
-19
-32
-29
-20
-12
-17
-7
-5
3
-6
-8
-34
-30
-24
-7
-10
3
-9
-16
-27
-28
-39
-35
-31
-20
-14
5
10
8
-10
-22
-48
-43
-44
-28
-20
-1
0
2
-15
-18
-31
-30
-25
-29
-28
-8
-2
0
-6
-13
-35
-41
-30
-20
-12
8
11
7
2
-1
-13
-22
-13
-5
-4
9
10
-10
-20
-20
-37
-32
-22
-23
-21
-12
-9
-15
-25
-34
-45
-40
-35
-24
-15
2
-6
-8
-24
-33
-49
-49
-38
-25
-14
1
-3
-22
-34
-47
-52
-58
-39
-32
-17
-8
-9
-19
-24
-34
-47
-47
-38
-38
-27
-26
-14
-29
-32
-46
-42
-39
-22
-22
-18
-26
-37
-47
-42
-48
-41
-26
-10
8
37
52
61
69
100
104
117
118
120
117
120
106
83
43
7
-36
-51
-67
-53
-47
-28
-21
-15
-24
-19
-41
-35
-33
-25
-21
-2
-6
-8
-24
-27
-48
-49
-43
-32
-33
-14
-16
-8
-14
-20
-37
-35
-28
-19
-17
-1
-5
-10
-22
-19
-34
-35
-34
-28
-26
-4
-2
-10
-16
-28
-46
-46
-33
-14
-22
-10
-6
-9
-17
-16
-31
-28
-21
-14
-5
14
19
7
-7
-10
-23
-33
-24
-12
-9
5
9
7
0
1
-15
-17
-4
5
12
29
27
19
9
9
6
-2
2
7
12
28
28
10
16
11
-6
-1
5
10
24
31
38
25
24
8
-9
-14
-4
-3
15
31
24
15
10
-13
-19
-29
-12
-3
8
6
12
4
-2
-27
-35
-34
-29
-23
0
8
-5
-16
-23
-41
-39
-38
-29
-25
-6
-6
-4
-11
-20
-39
-45
-47
-29
-16
13
14
5
-22
-42
-65
-53
-47
-37
-36
-13
-7
-5
-15
-20
-42
-51
-35
-35
-28
-4
0
-16
-22
-30
-44
-51
-46
-37
-30
-7
-1
-6
-11
-17
