-13
-11
-16
-9
-8
-4
2
-2
-11
-13
-9
1
-5
-2
1
-1
-11
-19
-15
-9
-1
0
-1
-3
-13
-14
-7
-5
-4
-6
-4
-9
-2
-3
-4
-5
-7
-12
-13
-12
-11
-14
-13
-14
-12
-9
3
2
-3
-11
-13
-16
-24
-13
-9
-14
-10
-5
-3
-4
-5
-14
-13
-9
-11
-18
-11
-6
-12
-12
-13
-13
-10
-7
-5
-15
-8
-16
-7
-13
-15
-22
-19
-7
-19
-17
-16
-22
-19
-15
-14
-14
-8
-6
-7
-5
-5
-13
-9
-13
-13
-20
-23
-19
-17
-19
-17
-12
-7
-10
-14
-16
-8
-13
-19
-16
-17
-19
-16
-15
-17
-17
-14
-13
-16
-23
-18
-15
-18
-14
-15
-18
-20
-17
-9
-7
-9
-17
-22
-22
-20
-13
-14
-8
-12
-12
-6
-8
-19
-14
-15
-13
-13
-15
-26
-26
-18
-23
-19
-20
-16
-23
-19
-19
-13
-6
-2
-14
-22
-15
-21
-25
-17
-22
-22
-8
-9
-9
-7
0
-13
-18
-13
-24
-24
-24
-6
-10
-5
0
-8
-10
-14
-16
-19
-13
-11
-13
-8
-9
-10
-10
-3
-11
-9
-3
-2
-6
-11
-15
-18
-18
-15
-9
-12
-9
-11
-11
-6
-8
-10
-11
-20
-18
-22
-18
-18
-13
-19
-22
-30
-25
-21
-23
-22
-21
-24
-22
-15
-22
-21
-21
-15
-22
-26
-30
-30
-33
-27
-22
-16
-2
1
-14
-11
-11
-12
-2
5
22
25
38
46
42
49
39
31
30
24
17
20
26
16
3
2
-2
-16
-26
-40
-40
-38
-33
-30
-32
-29
-28
-33
-38
-25
-17
-12
-3
-14
-14
-23
-25
-27
-28
-29
-21
-17
-16
-20
-24
-23
-17
-14
-10
-12
-22
-21
-14
-17
-11
-10
-20
-24
-20
-16
-15
-17
-17
-22
-22
-19
-15
-17
-12
-16
-19
-9
0
0
-11
-13
-7
-12
-15
-14
-17
-17
-10
-5
-1
-2
3
-1
-6
-2
-2
2
1
-7
-4
0
-5
-7
-4
7
-1
6
8
17
9
12
8
6
15
22
17
13
19
15
25
29
24
25
30
32
42
46
45
42
39
42
43
38
43
43
43
48
44
36
42
39
41
32
37
38
40
42
37
35
32
31
30
25
21
17
12
19
17
11
5
5
-2
-7
2
2
-2
-6
-11
-15
-4
-17
-14
-19
-20
-21
-22
-15
-16
-17
-14
-16
-16
-16
-17
-14
-23
-19
-26
-28
-17
-22
-18
-25
-21
-19
-22
-26
-30
-25
-23
-19
-26
-22
-22
-19
-9
-17
-21
-20
-12
-8
-17
-20
-15
-17
-19
-25
-23
-13
-25
-35
-32
-26
-21
-22
-19
-22
-26
-22
-13
-15
-15
-17
-19
-18
-11
-20
-19
-24
-25
-28
-28
-20
-15
-21
-12
-13
-17
-18
-18
-21
-27
-26
-26
-30
-24
-24
-19
-19
-9
-16
-17
-18
-22
-26
-25
-26
-26
-31
-31
-18
-11
-15
-19
-22
-25
-21
-20
-24
-17
-19
-30
-37
-29
-30
-31
-26
-29
-28
-22
-25
-22
-19
-22
-20
-15
-19
-22
-22
-22
-26
-28
-31
-30
-31
-25
-24
-20
-13
-16
-22
-23
-21
-17
-24
-17
-24
-24
-23
-30
-32
-32
-34
-36
-29
-23
-23
-25
-24
-18
-26
-20
-13
-22
-23
-24
-19
-25
-17
-24
-31
-27
-29
-23
-22
-15
-16
-21
-23
-16
-18
-20
-25
-26
-28
-27
-25
-23
-18
-24
-34
-32
-27
-28
-16
-22
-29
-18
-20
-28
-31
-20
-25
-24
-21
-18
-26
-31
-20
-18
-13
-19
-6
3
-6
1
-6
-13
-10
-11
-16
-13
-18
-15
-9
-18
-24
-25
-32
-33
-26
-26
-22
-27
-25
-15
-20
-20
-28
-33
-33
-25
-22
-28
-19
-21
-24
-28
-31
-32
-31
-24
-29
-29
-18
-19
-27
-27
-27
-36
-36
-24
-25
-17
-10
-6
-14
-14
-16
-20
-16
-8
-6
-5
6
17
35
43
53
49
34
38
32
29
27
19
21
13
-4
-8
-17
-18
-24
-44
-40
-32
-36
-37
-34
-33
-26
-19
-10
-14
-14
-14
-18
-27
-21
-20
-30
-27
-27
-23
-17
-13
-17
-27
-23
-19
-17
-18
-12
-9
-15
-14
-19
-21
-22
-19
-20
-22
-14
-16
-4
-7
-17
-15
-13
-16
-22
-17
-21
-8
0
-9
-6
-8
-12
-10
-8
-9
-10
-2
5
4
6
-7
-17
-18
-7
-6
-5
0
-3
-3
-9
-1
6
11
10
12
6
1
6
6
15
21
23
22
28
28
15
14
20
22
19
24
22
28
31
30
34
37
38
43
48
46
44
42
48
40
45
45
42
40
43
46
51
54
48
49
39
47
50
47
45
43
33
27
29
26
29
27
14
12
10
8
11
8
4
-2
-6
6
11
13
2
0
-7
-16
-15
-10
-13
-13
-19
-16
-11
-16
-13
-23
-11
-16
-10
-10
-13
-16
-14
-18
-13
-16
-14
-20
-15
-14
-16
-15
-11
-7
-12
-16
-17
-19
-14
-2
-8
-16
-18
-20
-21
-18
-20
-14
-8
-7
-9
-13
-6
-20
-14
-10
-8
-12
-8
-3
-11
-18
-18
-16
-6
6
-7
-11
-15
-11
-12
-18
-19
-20
-13
-7
-15
-6
-8
-7
-8
-16
-9
-19
-20
-13
-12
-9
-5
-7
-14
-9
-15
-17
-19
-19
-17
-9
-6
-17
-24
-19
-18
-19
-10
-6
-6
-10
-9
-20
-16
-24
-25
-13
-15
-21
-19
-23
-19
-19
-20
-10
-11
-7
-13
-12
-6
-5
-10
-8
-7
-16
-16
-26
-11
-2
-2
-5
-9
1
-6
-7
-5
-13
-17
-10
-6
13
15
8
-5
9
-2
-10
-5
-3
-4
1
12
2
-13
-12
-3
-9
-9
-16
-18
-3
-1
-4
-3
-2
-11
-13
-10
-3
-1
-7
-1
-2
-2
-8
-7
-13
-12
-12
-12
-6
-7
-8
-4
-2
-2
-12
-12
-9
0
-3
-8
-6
-6
6
1
6
9
5
-2
6
12
22
33
51
63
67
75
67
73
64
60
35
24
36
38
33
27
13
3
-17
-33
-31
-25
-22
-15
-9
1
2
6
-2
-3
-11
-6
1
1
3
1
4
6
-1
2
3
4
5
4
2
-7
-8
-2
7
10
6
7
11
0
4
4
1
3
3
7
10
12
8
8
8
8
8
8
13
14
16
4
8
4
8
12
11
8
11
18
13
12
21
16
18
25
24
16
10
17
14
16
24
17
16
25
27
31
34
45
32
30
26
22
26
29
34
37
42
36
43
54
53
52
63
61
40
41
49
63
63
69
69
61
63
69
61
73
71
69
66
63
62
64
71
73
69
73
69
68
58
59
52
50
56
47
48
41
36
31
26
26
20
15
22
18
22
24
22
11
9
13
10
8
17
20
14
18
12
-4
0
-6
-3
-4
5
12
14
4
-9
-8
-4
-5
-1
-2
1
10
0
-4
2
-6
2
10
2
8
3
2
-5
-3
4
2
9
18
1
-5
-2
0
-8
-10
-3
4
2
10
2
8
4
-5
-7
-1
0
-4
-2
2
-5
-2
-1
-1
9
6
6
7
4
6
-5
-2
5
0
-5
-7
7
5
-2
-10
3
5
7
12
14
3
-11
-8
-8
-6
-6
2
4
1
-4
-7
-5
-10
-14
-12
-11
-7
4
-4
-5
-9
-5
-7
-16
-22
-18
-8
-5
-9
-13
-11
-17
-15
-12
-8
-11
-1
3
9
16
14
2
-14
-17
-23
-23
-14
-10
-12
-11
-1
-7
-16
-24
-27
-29
-31
-26
-10
-13
-18
-23
-32
-39
-29
-26
-17
-12
-13
-14
-14
-24
-26
-28
-24
-29
-25
-29
-33
-20
-20
-18
-16
-21
-21
-30
-31
-29
-19
-15
-18
-24
-20
-16
-12
0
-9
-15
-16
-7
-8
5
15
33
51
64
59
49
41
36
25
13
11
15
18
14
7
-7
-13
-32
-50
-47
-41
-31
-18
-21
-16
-20
-23
-22
-16
-22
-24
-22
-29
-28
-23
-24
-17
-7
-8
-10
-11
-22
-23
-20
-12
-15
-13
-9
-14
-19
-12
-7
-7
-4
-7
-15
-20
-21
-19
-19
-15
-13
-21
-21
-13
-11
-10
-6
-16
-11
-13
-18
-2
-4
-8
-15
-19
-17
-8
-1
-1
-10
-6
-6
-1
2
-6
1
4
0
4
-4
-4
2
8
3
0
3
0
9
3
12
9
11
8
12
14
22
25
28
26
24
25
29
30
27
31
33
36
36
47
43
35
41
45
49
49
48
42
41
57
42
31
36
36
42
40
39
34
35
42
30
20
21
20
15
18
22
16
12
12
2
4
4
1
-8
-10
-11
-14
-11
-10
-12
-15
-19
-20
-21
-22
-22
-20
-15
-11
-13
-22
-15
-18
-16
-14
-15
-14
-17
-11
-18
-14
-17
-16
-9
-16
-20
-15
-23
-20
-27
-22
-20
-21
-19
-18
-15
-20
-32
-21
-25
-23
-17
-21
-20
-11
-18
-18
-15
-17
-25
-11
-5
-16
-15
-18
-20
-24
-27
-16
-15
-9
-15
-14
-19
-19
-15
-15
-16
-17
-21
-17
-21
-28
-18
-9
-19
-28
-19
-15
-24
-16
-17
-14
-20
-18
-23
-28
-27
-35
-22
-22
-12
-11
-12
-14
-24
-23
-24
-21
-17
-15
-14
-21
-18
-23
-23
-26
-34
-37
-29
-25
-19
-18
-7
-17
-25
-29
-29
-28
-27
-30
-32
-21
-17
-24
-15
-20
-24
-21
-19
-17
-22
-24
-14
-20
-26
-21
-19
-26
-27
-25
-28
-23
-26
-25
-25
-21
-20
-20
-22
-21
-23
-15
-8
-9
-9
-21
-27
-25
-20
-17
-19
-6
-6
-9
-10
-13
-16
-12
-11
-9
-16
-22
-14
-7
-13
-11
-20
-26
-31
-25
-31
-29
-22
-18
-22
-17
-27
-26
-31
-23
-20
-22
-18
-19
-28
-32
-37
-29
-26
-24
-21
-19
-21
-26
-27
-31
-35
-35
-38
-40
-30
-18
-16
-20
-22
-24
-15
-16
-12
0
0
5
-2
-3
8
28
49
51
56
43
46
48
35
26
18
16
16
-1
-6
-15
-29
-39
-61
-58
-50
-43
-33
-31
-21
-10
-19
-17
-15
-22
-23
-23
-24
-24
-25
-31
-30
-26
-30
-36
-37
-27
-26
-21
-14
-11
-9
-8
-17
-24
-23
-22
-21
-24
-26
-21
-22
-25
-21
-21
-16
-16
-22
-19
-25
-37
-28
-20
-10
-11
-13
-11
-16
-12
-5
-18
-18
-16
-14
-20
-25
-21
-11
-3
-1
-3
-9
-7
-9
-10
-6
-8
-12
-8
-6
-1
1
5
-1
-6
0
1
5
11
8
4
7
14
5
16
23
21
21
25
22
28
34
30
27
32
44
39
32
30
34
33
33
32
24
30
34
36
46
51
47
39
43
47
34
37
30
21
17
17
19
19
15
17
11
7
3
3
-7
5
2
-10
-7
-13
-20
-19
-17
-24
-23
-8
-4
-8
3
-13
-22
-17
-20
-29
-33
-24
-20
-17
-18
-17
-18
-21
-26
-30
-27
-26
-29
-23
-19
-21
-20
-24
-21
-26
-22
-14
-21
-34
-31
-33
-25
-25
-23
-23
-20
-25
-26
-29
-20
-22
-27
-26
-22
-25
-25
-20
-21
-21
-18
-17
-27
-19
-22
-28
-23
-21
-21
-15
-15
-15
-14
-16
-21
-29
-24
-23
-25
-30
-22
-20
-26
-27
-25
-25
-23
-22
-18
-19
-23
-20
-23
-29
-30
-27
-30
-25
-27
-31
-28
-35
-31
-26
-23
-23
-21
-30
-29
-23
-24
-36
-29
-19
-26
-32
-26
-24
-23
-23
-15
-20
-25
-22
-22
-24
-14
-15
-22
-33
-27
-28
-29
-28
-22
-17
-15
-21
-32
-31
-29
-29
-28
-23
-30
-38
-26
-28
-29
-29
-22
-22
-18
-20
-20
-21
-24
-20
-27
-25
-14
-17
-25
-25
-27
-23
-17
-23
-25
-16
-23
-23
-17
-16
-24
-33
-33
-26
-25
-22
-26
-20
-23
-19
-23
-24
-29
-19
-12
-15
-17
-13
-11
-7
-13
-14
-11
-12
-10
-18
-17
-10
-12
-11
-12
-15
-12
-17
-26
-30
-27
-25
-29
-29
-25
-26
-21
-20
-16
-13
-13
-20
-18
-24
-19
-26
-27
-24
-17
-19
-22
-28
-33
-32
-31
-26
-31
-30
-27
-24
-25
-22
-26
-24
-28
-23
-27
-30
-18
-9
-13
-10
-16
-6
3
14
20
32
47
52
45
47
39
39
32
20
18
18
7
13
1
-11
-22
-31
-43
-46
-42
-37
-27
-31
-30
-24
-23
-24
-26
-15
-22
-24
-25
-18
-22
-16
-19
-14
-29
-29
-25
-18
-10
-4
-16
-21
-16
-25
-27
-20
-25
-19
-14
-15
-14
-18
-20
-20
-19
-13
-14
-19
-14
-15
-17
-15
-15
-15
-16
-17
-13
-16
-13
-10
-7
-2
-3
-10
-5
-5
-13
-12
-10
-9
-6
3
5
12
7
12
13
10
14
12
7
18
15
4
16
28
28
29
28
25
25
35
29
34
34
33
33
40
45
39
35
34
36
36
42
41
46
53
48
49
44
43
39
28
28
28
35
40
35
29
31
27
17
14
23
15
11
17
6
-2
1
-1
-1
0
1
-8
-8
-20
-16
-17
-17
-21
-26
-20
-18
-15
-10
-11
-19
-18
-17
-18
-28
-27
-28
-25
-22
-15
-6
-18
-12
-15
-20
-19
-23
-22
-31
-25
-28
-22
-19
-17
-22
-24
-21
-25
-25
-26
-18
-11
-11
-12
-21
-27
-25
-26
-22
-25
-17
-12
-17
-23
-24
-22
-20
-27
-22
-16
-17
-24
-22
-22
-22
-21
-24
-23
-25
-21
-23
-25
-29
-25
-22
-27
-29
-37
-30
-27
-26
-26
-26
-29
-26
-23
-28
-23
-17
-21
-29
-30
-24
-18
-30
-19
-12
-27
-33
-28
-23
-20
-18
-23
-26
-27
-31
-33
-33
-33
-32
-36
-35
-41
-41
-40
-41
-37
-19
-18
-28
-31
-30
-22
-32
-25
-17
-25
-27
-24
-24
-24
-27
-33
-25
-21
-25
-29
-27
-26
-25
-14
-14
-26
-25
-21
-26
-33
-29
-29
-28
-36
-34
-37
-41
-30
-37
-42
-38
-45
-48
-50
-47
-45
-42
-39
-44
-37
-30
-29
-32
-39
-43
-43
-41
-40
-40
-46
-41
-42
-47
-34
-36
-41
-44
-44
-45
-46
-42
-37
-42
-40
-40
-31
-30
-37
-31
-24
-26
-21
-26
-12
-3
11
27
43
38
29
16
15
7
-1
-1
-5
-19
-28
-45
-45
-57
-63
-63
-60
-57
-58
-48
-48
-60
-62
-61
-47
-35
-35
-29
-34
-38
-35
-40
-40
-43
-40
-42
-44
-54
-60
-58
-51
-50
-58
-49
-43
-46
-37
-41
-41
-39
-43
-54
-51
-42
-46
-45
-41
-39
-51
-50
-50
-56
-37
-32
-33
-30
-26
-39
-41
-38
-34
-39
-41
-37
-40
-38
-40
-46
-45
-36
-36
-35
-31
-33
-41
-39
-36
-35
-32
-23
-20
-29
-22
-34
-37
-36
-33
-26
-25
-9
-10
-11
-11
-6
-11
-7
-5
-15
-14
-13
0
7
7
-2
-1
6
1
2
1
-2
-2
8
11
13
14
19
15
14
18
20
8
5
12
2
-4
-6
-6
-13
-8
-9
-14
-24
-18
-30
-32
-31
-44
-48
-49
-43
-47
-43
-46
-46
-44
-37
-32
-37
-58
-56
-63
-63
-64
-67
-66
-64
-65
-69
-69
-65
-63
-60
-58
-61
-68
-59
-60
-76
-73
-67
-69
-58
-58
-66
-64
-58
-59
-66
-66
-70
-81
-75
-60
-66
-74
-72
-64
-67
-56
-54
-69
-70
-60
-68
-72
-71
-72
-71
-70
-77
-75
-72
-68
-61
-66
-66
-77
-76
-74
-67
-66
-64
-69
-70
-72
-79
-74
-66
-74
-74
-73
-71
-71
-72
-71
-68
-73
-74
-77
-79
-72
-74
-79
-80
-82
-75
-86
-81
-72
-68
-68
-67
-71
-81
-79
-78
-78
-80
-64
-69
-81
-91
-84
-86
-79
-75
-78
-76
-79
-76
-81
-76
-74
-87
-84
-84
-98
-93
-80
-84
-91
-82
-86
-81
-75
-75
-75
-80
-85
-82
-76
-77
-79
-78
-77
-77
-85
-94
-97
-96
-90
-73
-78
-80
-76
-83
-82
-81
-79
-80
-86
-96
-103
-93
-78
-81
-84
-84
-81
-79
-86
-87
-87
-85
-75
-78
-84
-75
-71
-73
-67
-62
-74
-77
-74
-71
-75
-70
-72
-81
-84
-79
-84
-89
-87
-84
-90
-94
-95
-97
-93
-95
-98
-83
-84
-87
-91
-88
-97
-100
-95
-99
-104
-95
-101
-105
-96
-95
-81
-86
-82
-85
-94
-93
-90
-92
-97
-98
-96
-96
-89
-83
-94
-98
-91
-97
-88
-77
-70
-74
-72
-67
-60
-50
-37
-36
-31
-20
-25
-28
-23
-30
-41
-44
-45
-51
-65
-74
-80
-84
-93
-112
-118
-112
-108
-101
-100
-94
-91
-91
-91
-88
-91
-87
-87
-98
-94
-97
-100
-94
-96
-95
-89
-83
-88
-92
-88
-92
-93
-100
-94
-94
-83
-89
-90
-89
-82
-84
-83
-88
-96
-97
-89
-79
-75
-87
-86
-87
-88
-85
-85
-86
-87
-87
-89
-87
-85
-84
-78
-77
-74
-81
-89
-85
-87
-85
-82
-90
-87
-81
-77
-78
-68
-64
-68
-72
-68
-76
-81
-75
-71
-71
-64
-60
-68
-65
-62
-63
-56
-58
-52
-51
-59
-56
-50
-50
-40
-35
-36
-37
-41
-44
-42
-43
-41
-38
-35
-35
-33
-23
-25
-28
-24
-27
-30
-31
-33
-35
-39
-35
-35
-36
-35
-36
-41
-51
-51
-53
-49
-50
-58
-63
-61
-52
-64
-73
-77
-83
-91
-84
-79
-76
-75
-77
-80
-84
-81
-88
-94
-94
-97
-97
-98
-101
-99
-94
-100
-100
-96
-99
-103
-99
-90
-96
-101
-99
-98
-96
-101
-93
-92
-98
-100
-111
-114
-99
-89
-87
-89
-84
-86
-86
-85
-83
-92
-98
-103
-102
-106
-96
-100
-99
-101
-103
-99
-97
-98
-99
-101
-94
-101
-100
-96
-98
-101
-104
-102
-95
-97
-89
-89
-96
-94
-100
-100
-95
-95
-89
-89
-90
-93
-105
-100
-98
-100
-94
-97
-106
-105
-105
-106
-102
-100
-104
-103
-100
-101
-101
-97
-97
-98
-99
-103
-101
-100
-100
-107
-100
-96
-99
-106
-104
-100
-96
-96
-99
-95
-95
-96
-105
-104
-97
-103
-104
-95
-97
-99
-104
-105
-104
-105
-106
-106
-109
-106
-107
-100
-101
-102
-94
-93
-96
-94
-103
-105
-106
-105
-102
-99
-102
-99
-93
-86
-91
-108
-103
-110
-107
-106
-107
-104
-96
-93
-96
-90
-92
-94
-96
-94
-102
-114
-107
-110
-114
-105
-102
-97
-98
-88
-86
-90
-97
-86
-89
-99
-98
-94
-90
-87
-82
-80
-83
-90
-88
-98
-98
-97
-95
-96
-99
-97
-96
-96
-101
-105
-103
-101
-99
-101
-109
-104
-98
-108
-110
-101
-92
-96
-94
-98
-104
-102
-100
-95
-101
-102
-95
-101
-99
-104
-105
-108
-105
-111
-109
-94
-90
-94
-89
-92
-92
-92
-92
-92
-91
-87
-91
-77
-58
-36
-33
-25
-24
-32
-44
-39
-41
-42
-42
-43
-54
-77
-74
-82
-92
-101
-121
-126
-120
-109
-105
-99
-101
-105
-104
-103
-100
-91
-102
-109
-99
-100
-98
-104
-106
-105
-101
-102
-89
-92
-92
-97
-92
-98
-99
-102
-95
-97
-102
-100
-103
-99
-96
-101
-92
-77
-81
-85
-85
-93
-93
-84
-84
-93
-89
-90
-89
-91
-81
-84
-101
-95
-94
-92
-88
-79
-80
-74
-81
-87
-91
-81
-78
-75
-80
-86
-88
-82
-78
-76
-73
-68
-69
-78
-78
-77
-82
-64
-58
-60
-73
-73
-78
-71
-58
-49
-53
-51
-43
-46
-53
-50
-59
-62
-56
-36
-40
-42
-40
-43
-37
-34
-36
-41
-35
-37
-36
-31
-34
-35
-39
-36
-35
-35
-31
-37
-37
-36
-36
-40
-42
-50
-50
-58
-63
-62
-67
-69
-73
-68
-62
-63
-75
-69
-74
-83
-90
-91
-91
-89
-86
-84
-97
-94
-95
-99
-98
-102
-101
-93
-91
-93
-98
-97
-98
-101
-100
-102
-96
-85
-85
-93
-99
-99
-89
-93
-95
-95
-97
-103
-94
-92
-102
-105
-112
-103
-97
-100
-95
-95
-96
-102
-102
-90
-86
-92
-102
-90
-100
-98
-85
-93
-104
-104
-98
-102
-96
-88
-89
-92
-88
-90
-87
-93
-96
-105
-100
-103
-104
-99
-93
-87
-97
-100
-101
-103
-91
-86
-98
-99
-102
-86
-91
-93
-96
-101
-100
-96
-97
-101
-99
-100
-104
-106
-106
-97
-87
-80
-96
-99
-104
-98
-96
-90
-95
-99
-96
-95
-99
-96
-98
-97
-94
-88
-90
-97
-99
-102
-111
-109
-108
-110
-100
-98
-101
-97
-96
-101
-101
-91
-94
-105
-100
-100
-97
-97
-100
-104
-90
-82
-80
-91
-92
-93
-99
-101
-100
-95
-95
-97
-92
-97
-89
-88
-89
-91
-84
-75
-84
-86
-93
-95
-92
-84
-83
-90
-85
-83
-87
-88
-90
-95
-90
-94
-97
-96
-93
-97
-92
-92
-99
-105
-93
-104
-103
-94
-108
-97
-99
-102
-102
-102
-89
-87
-93
-93
-95
-96
-98
-97
-103
-107
-101
-93
-84
-85
-95
-103
-101
-107
-106
-96
-93
-83
-83
-82
-81
-74
-77
-74
-76
-65
-54
-40
-28
-28
-26
-26
-30
-37
-47
-55
-59
-47
-66
-75
-87
-96
-105
-116
-118
-113
-103
-92
-94
-91
-94
-105
-100
-101
-96
-98
-94
-93
-93
-92
-92
-105
-96
-91
-87
-99
-92
-85
-85
-89
-94
-92
-90
-87
-90
-89
-82
-91
-91
-87
-80
-87
-96
-86
-81
-90
-90
-89
-87
-81
-80
-86
-90
-85
-90
-90
-85
-83
-83
-80
-77
-68
-70
-73
-79
-76
-74
-78
-76
-75
-77
-71
-73
-80
-82
-76
-69
-65
-70
-66
-65
-68
-68
-63
-65
-68
-65
-60
-58
-54
-47
-45
-44
-46
-46
-42
-41
-44
-45
-40
-44
-46
-40
-40
-25
-24
-35
-32
-22
-17
-19
-21
-14
-17
-20
-15
-20
-20
-23
-25
-26
-21
-21
-36
-33
-34
-38
-42
-44
-45
-46
-48
-48
-52
-56
-55
-61
-61
-69
-76
-76
-74
-69
-78
-81
-80
-85
-84
-92
-87
-82
-76
-82
-85
-76
-83
-80
-78
-81
-82
-87
-80
-81
-87
-89
-86
-86
-93
-97
-92
-88
-87
-91
-88
-90
-86
-88
-90
-81
-78
-85
-82
-86
-91
-89
-83
-79
-82
-82
-81
-87
-81
-88
-90
-90
-89
-86
-87
-83
-80
-84
-78
-78
-83
-85
-82
-82
-84
-81
-83
-83
-82
-81
-82
-88
-82
-79
-82
-77
-77
-80
-80
-80
-77
-84
-95
-103
-93
-79
-83
-81
-77
-79
-84
-84
-86
-84
-82
-79
-80
-91
-87
-84
-80
-78
-83
-87
-88
-82
-82
-82
-84
-80
-92
-90
-87
-89
-85
-81
-86
-89
-84
-87
-92
-94
-89
-85
-79
-81
-85
-85
-84
-87
-88
-83
-89
-86
-82
-83
-80
-81
-84
-92
-93
-88
-75
-70
-69
-72
-72
-72
-76
-86
-89
-81
-83
-85
-87
-86
-83
-84
-82
-81
-80
-77
-77
-83
-76
-80
-87
-80
-82
-82
-81
-76
-78
-85
-87
-85
-83
-88
-85
-87
-77
-76
-71
-68
-66
-65
-71
-66
-72
-78
-74
-80
-75
-71
-69
-68
-63
-64
-71
-75
-75
-72
-70
-85
-83
-78
-75
-79
-81
-81
-81
-76
-84
-80
-78
-86
-84
-89
-90
-93
-89
-80
-70
-67
-74
-79
-85
-90
-82
-87
-88
-91
-78
-79
-78
-74
-78
-81
-85
-83
-80
-76
-88
-95
-82
-74
-68
-65
-74
-67
-66
-56
-67
-56
-43
-31
-23
-4
-10
-17
-20
-21
-36
-41
-39
-43
-50
-55
-58
-61
-63
-80
-105
-103
-100
-92
-85
-74
-79
-73
-73
-76
-72
-68
-81
-88
-90
-86
-85
-83
-70
-75
-80
-80
-75
-75
-83
-87
-86
-84
-70
-62
-72
-70
-71
-78
-75
-75
-81
-87
-83
-84
-82
-70
-62
-70
-72
-69
-66
-65
-67
-80
-82
-83
-82
-77
-68
-59
-66
-68
-68
-67
-67
-68
-69
-66
-60
-57
-66
-71
-70
-71
-64
-62
-58
-58
-55
-56
-61
-58
-48
-49
-58
-56
-52
-53
-41
-35
-42
-50
-44
-40
-38
-40
-28
-33
-26
-26
-39
-34
-29
-29
-30
-20
-15
-18
-14
-13
-22
-17
-16
-16
-17
-17
-12
-10
-13
-10
-15
-15
-8
-17
-13
-22
-28
-22
-24
-30
-35
-35
-40
-48
-42
-49
-55
-55
-57
-53
-48
-56
-52
-67
-69
-74
-75
-75
-72
-77
-69
-70
-70
-71
-79
-79
-81
-68
-63
-74
-69
-63
-65
-76
-75
-67
-68
-71
-71
-73
-82
-83
-78
-64
-62
-70
-79
-83
-82
-84
-85
-76
-71
-78
-73
-80
-71
-69
-71
-70
-77
-74
-71
-69
-74
-80
-81
-75
-66
-74
-77
-73
-73
-71
-68
-67
-74
-78
-72
-77
-83
-81
-72
-74
-70
-68
-65
-70
-69
-71
-78
-72
-80
-72
-70
-78
-70
-66
-64
-69
-72
-79
-82
-83
-82
-79
-73
-79
-78
-72
-66
-72
-74
-70
-70
-69
-77
-74
-77
-77
-81
-80
-85
-78
-73
-67
-71
-65
-73
-74
-78
-82
-86
-90
-75
-70
-78
-70
-70
-67
-69
-66
-76
-77
-81
-80
-79
-75
-73
-76
-73
-71
-78
-72
-70
-76
-80
-75
-73
-77
-67
-70
-71
-72
-72
-78
-78
-76
-75
-80
-77
-75
-78
-71
-71
-71
-66
-72
-73
-75
-79
-80
-76
-73
-71
-79
-80
-76
-69
-73
-74
-76
-78
-74
-68
-76
-75
-79
-78
-80
-66
-69
-69
-66
-70
-74
-70
-65
-81
-74
-77
-75
-75
-68
-67
-67
-72
-66
-71
-74
-77
-71
-72
-70
-78
-74
-64
-68
-80
-81
-76
-74
-71
-65
-71
-69
-74
-73
-73
-73
-75
-73
-80
-64
-68
-63
-64
-66
-71
-80
-76
-77
-74
-79
-73
-71
-63
-71
-77
-69
-70
-71
-71
-74
-63
-68
-66
-65
-66
-66
-67
-63
-63
-63
-64
-62
-58
-55
-56
-56
-51
-57
-61
-64
-65
-61
-57
-63
-66
-62
-66
-57
-59
-60
-66
-73
-73
-70
-63
-67
-70
-69
-70
-66
-73
-72
-74
-64
-66
-75
-81
-81
-72
-67
-70
-76
-68
-69
-70
-64
-70
-68
-63
-62
-64
-63
-61
-67
-75
-78
-66
-71
-73
-61
-53
-44
-36
-30
-19
-11
-9
-7
5
8
2
5
-1
-19
-26
-19
-24
-30
-34
-42
-46
-57
-74
-84
-88
-78
-72
-73
-65
-67
-67
-69
-62
-61
-57
-58
-63
-64
-64
-59
-62
-71
-69
-77
-70
-61
-54
-52
-61
-61
-61
-64
-61
-55
-58
-59
-56
-61
-60
-60
-59
-58
-55
-55
-56
-54
-53
-52
-51
-43
-59
-61
-66
-65
-63
-57
-51
-50
-49
-52
-44
-42
-33
-45
-53
-45
-41
-43
-56
-54
-51
-57
-55
-51
-36
-34
-37
-38
-38
-33
-39
-31
-31
-33
-25
-34
-28
-25
-27
-32
-19
-20
-16
-20
-20
-29
-27
-15
-15
-4
-3
1
-1
-11
1
3
-6
4
8
14
7
5
1
-5
6
6
-4
7
6
6
8
4
4
1
6
-2
0
0
-6
-15
-23
-22
-21
-26
-18
-18
-17
-24
-33
-37
-38
-45
-47
-50
-48
-38
-36
-42
-46
-52
-55
-63
-59
-58
-58
-50
-59
-58
-57
-61
-50
-49
-54
-54
-60
-63
-59
-56
-50
-52
-50
-48
-53
-55
-53
-56
-57
-61
-66
-69
-51
-52
-55
-58
-57
-54
-56
-52
-51
-52
-45
-57
-61
-59
-58
-52
-58
-57
-62
-60
-56
-57
-62
-53
-47
-63
-56
-52
-54
-52
-51
-58
-66
-63
-56
-54
-54
-52
-58
-54
-52
-59
-59
-59
-51
-57
-57
-57
-56
-56
-50
-51
-57
-53
-54
-65
-66
-60
-55
-51
-49
-49
-60
-47
-50
-52
-59
-58
-64
-59
-64
-63
-62
-54
-50
-55
-60
-61
-55
-56
-56
-63
-61
-56
-58
-66
-55
-58
-66
-65
-59
-53
-47
-47
-51
-52
-50
-45
-55
-63
-69
-71
-66
-67
-51
-45
-46
-47
-54
-57
-55
-55
-54
-54
-52
-63
-60
-59
-63
-60
-61
-61
-57
-55
-55
-58
-52
-53
-57
-54
-55
-57
-55
-56
-58
-60
-66
-70
-70
-61
-61
-60
-63
-57
-53
-53
-50
-55
-56
-54
-50
-51
-55
-55
-54
-61
-57
-53
-54
-59
-54
-61
-60
-64
-63
-62
-50
-56
-58
-51
-59
-60
-61
-60
-69
-61
-62
-58
-52
-49
-56
-66
-71
-51
-49
-53
-51
-49
-59
-60
-63
-76
-58
-60
-53
-40
-44
-31
-47
-40
-54
-44
-34
-35
-46
-43
-34
-48
-46
-39
-42
-45
-49
-50
-53
-59
-58
-67
-61
-54
-50
-54
-48
-50
-50
-53
-55
-60
-61
-58
-65
-59
-50
-53
-55
-61
-56
-57
-58
-55
-57
-59
-61
-50
-50
-49
-49
-52
-49
-49
-58
-61
-57
-65
-56
-51
-57
-48
-36
-43
-41
-26
-25
-11
14
21
13
18
11
-3
6
-2
1
-9
-8
-13
-29
-44
-48
-45
-61
-74
-81
-86
-75
-59
-49
-50
-35
-42
-56
-62
-60
-63
-61
-60
-52
-51
-56
-53
-58
-55
-54
-57
-57
-52
-56
-56
-51
-54
-51
-61
-64
-65
-65
-60
-51
-53
-51
-58
-57
-59
-59
-61
-54
-50
-45
-46
-50
-53
-54
-47
-56
-60
-49
-43
-43
-37
-36
-43
-52
-53
-51
-48
-48
-35
-41
-44
-35
-28
-40
-46
-44
-42
-38
-27
-30
-33
-49
-43
-41
-37
-32
-28
-23
-22
-30
-33
-41
-25
-16
-9
0
-6
-10
-10
-13
-5
-1
-4
-9
1
9
8
7
10
8
12
10
3
-1
6
12
10
7
14
11
13
10
6
10
17
14
9
7
6
-1
-6
-29
-28
-19
-21
-24
-23
-21
-24
-31
-39
-37
-39
-36
-44
-41
-42
-42
-46
-48
-46
-48
-54
-52
-48
-49
-50
-49
-48
-51
-52
-47
-58
-65
-62
-64
-64
-58
-55
-49
-54
-60
-57
-45
-53
-57
-58
-66
-62
-50
-46
-43
-47
-48
-50
-59
-58
-57
-60
-62
-51
-44
-47
-46
-57
-64
-60
-58
-60
-57
-57
-57
-58
-53
-53
-48
-42
-44
-52
-50
-48
-50
-49
-53
-54
-54
-53
-51
-46
-47
-48
-53
-55
-50
-51
-52
-48
-48
-50
-43
-42
-46
-49
-48
-57
-53
-47
-47
-48
-42
-46
-63
-70
-66
-52
-49
-43
-37
-43
-53
-56
-57
-53
-44
-45
-47
-49
-44
-44
-47
-45
-59
-55
-50
-52
-53
-47
-49
-50
-53
-44
-52
-48
-43
-46
-55
-42
-39
-46
-46
-48
-52
-46
-50
-47
-53
-53
-50
-48
-44
-43
-43
-51
-55
-55
-45
-36
-39
-53
-48
-43
-47
-52
-46
-39
-44
-40
-46
-47
-43
-48
-53
-52
-53
-50
-53
-39
-31
-32
-40
-56
-52
-45
-39
-48
-51
-43
-41
-44
-39
-42
-41
-40
-39
-48
-46
-41
-42
-40
-37
-37
-47
-44
-41
-49
-40
-36
-38
-42
-46
-48
-48
-50
-45
-43
-34
-33
-34
-37
-38
-42
-39
-36
-30
-39
-38
-36
-35
-41
-35
-37
-43
-40
-21
-21
-17
-21
-27
-31
-32
-24
-30
-29
-32
-33
-36
-33
-36
-36
-35
-32
-28
-32
-34
-35
-40
-40
-42
-43
-50
-49
-48
-48
-51
-46
-40
-28
-26
-38
-44
-41
-43
-34
-34
-42
-39
-46
-43
-43
-43
-38
-44
-41
-29
-49
-34
-19
-29
-14
-28
-21
-35
-23
-14
-6
7
29
30
49
38
30
26
39
21
15
4
6
6
-9
-19
-24
-37
-54
-59
-49
-34
-48
-47
-25
-40
-36
-33
-39
-37
-25
-15
-38
-50
-41
-29
-26
-26
-26
-32
-36
-23
-22
-31
-35
-30
-25
-22
-27
-32
-37
-32
-35
-33
-31
-23
-33
-37
-31
-33
-38
-33
-36
-32
-32
-37
-35
-19
-10
-21
-31
-25
-25
-29
-21
-19
-19
-19
-18
-23
-19
-16
-16
-17
-19
-18
-17
-17
-15
-27
-22
-24
-24
-10
-7
-5
-13
-13
-8
-8
-9
-7
-20
-18
-14
-8
-11
5
18
21
21
13
15
10
12
13
18
14
26
29
25
26
21
28
30
26
28
37
38
39
37
32
29
32
32
25
26
33
37
35
43
29
18
21
22
2
-1
7
8
8
5
-7
-7
-11
-15
-15
-10
-12
-22
-32
-24
-22
-17
-21
-26
-31
-26
-20
-19
-30
-30
-34
-30
-35
-41
-42
-38
-33
-34
-34
-37
-31
-35
-30
-27
-34
-37
-44
-27
-31
-38
-40
-37
-28
-34
-37
-32
-37
-40
-46
-37
-31
-36
-32
-33
-35
-25
-31
-25
-28
-36
-44
-43
-40
-34
-32
-23
-14
-21
-25
-37
-32
-34
-32
-35
-40
-32
-35
-28
-22
-21
-34
-29
-27
-30
-32
-35
-40
-46
-33
-23
-26
-37
-37
-35
-44
-47
-44
-40
-25
-20
-29
-25
-26
-35
-34
-24
-27
-35
-30
-26
-30
-32
-29
-34
-36
-37
-38
-39
-34
-24
-27
-31
-32
-34
-36
-37
-33
-39
-44
-41
-40
-23
-28
-35
-37
-34
-31
-39
-39
-35
-29
-33
-28
-33
-40
-35
-36
-31
-28
-26
-24
-29
-31
-30
-34
-37
-44
-42
-42
-37
-35
-30
-32
-44
-40
-38
-34
-24
-26
-28
-33
-32
-32
-27
-41
-30
-39
-32
-31
-30
-35
-35
-32
-30
-30
-36
-36
-35
-27
-28
-41
-42
-38
-39
-33
-31
-34
-32
-27
-23
-26
-33
-43
-39
-25
-25
-25
-32
-29
-35
-37
-36
-32
-35
-33
-33
-35
-18
-14
-13
-11
-11
-14
-23
-23
-30
-21
-25
-21
-24
-22
-25
-21
-25
-17
-21
-23
-25
-24
-33
-34
-40
-36
-40
-38
-35
-40
-39
-36
-29
-27
-30
-38
-34
-38
-40
-45
-46
-23
-31
-29
-26
-37
-26
-36
-30
-35
-32
-38
-37
-36
-37
-33
-33
-32
-42
-30
-19
-20
-12
-14
-13
-9
-8
-5
7
25
33
39
30
28
32
27
19
16
5
2
-3
-7
-21
-30
-37
-48
-56
-42
-52
-44
-39
-32
-36
-35
-40
-34
-33
-32
-41
-33
-29
-28
-23
-24
-30
-32
-25
-37
-32
-30
-25
-33
-35
-23
-18
-19
-25
-25
-22
-25
-24
-27
-29
-33
-37
-35
-23
-29
-38
-31
-17
-19
-28
-30
-22
-21
-21
-21
-17
-12
-14
-15
-24
-25
-21
-31
-20
-21
-17
-8
-9
-14
-14
-23
-15
-7
-13
-17
-14
-8
-7
-8
-9
-15
-16
-11
0
6
4
8
6
1
-7
7
7
4
10
15
15
19
12
18
22
17
21
14
32
41
36
32
27
30
39
30
28
33
30
35
37
36
33
38
38
33
38
37
36
30
33
27
24
16
12
11
-2
-5
-4
14
6
2
7
-5
-10
-18
-22
-21
-13
-18
-22
-18
-21
-20
-25
-23
-21
-23
-22
-25
-22
-26
-26
-25
-27
-29
-28
-19
-31
-36
-35
-28
-30
-21
-26
-32
-43
-38
-20
-18
-28
-28
-30
-30
-27
-29
-23
-21
-25
-38
-38
-33
-29
-20
-20
-19
-20
-24
-21
-20
-26
-21
-22
-27
-30
-30
-36
-36
-29
-24
-29
-24
-25
-28
-30
-27
-24
-29
-34
-35
-30
-25
-31
-30
-30
-31
-30
-31
-38
-32
-22
-19
-17
-19
-23
-32
-32
-24
-31
-36
-36
-24
-23
-26
-18
-26
-25
-27
-32
-28
-27
-27
-32
-30
-32
-33
-29
-28
-29
-34
-29
-30
-43
-36
-30
-34
-28
-27
-23
-23
-22
-20
-23
-23
-24
-27
-27
-29
-31
-31
-28
-31
-34
-34
-30
-37
-39
-30
-32
-29
-22
-24
-21
-23
-32
-32
-35
-33
-37
-39
-35
-29
-30
-21
-23
-32
-32
-32
-32
-36
-30
-39
-37
-27
-23
-29
-32
-39
-34
-33
-28
-19
-18
-14
-18
-29
-38
-41
-38
-36
-30
-32
-24
-24
-29
-24
-18
-22
-27
-22
-29
-38
-32
-25
-24
-22
-14
-16
-19
-15
-11
-20
-14
-12
-17
-18
-21
-10
-21
-16
-17
-29
-28
-27
-21
-26
-15
-15
-15
-18
-32
-35
-31
-28
-28
-36
-34
-36
-32
-38
-33
-37
-36
-28
-24
-32
-33
-23
-24
-23
-29
-29
-36
-38
-40
-40
-29
-32
-34
-33
-30
-29
-22
-22
-26
-23
-22
-18
-17
-17
-15
-8
2
4
17
33
36
39
36
32
37
35
29
12
19
14
4
2
-15
-20
-24
-41
-47
-47
-39
-35
-36
-39
-34
-32
-31
-32
-26
-32
-33
-28
-22
-24
-28
-31
-29
-33
-34
-35
-26
-19
-18
-20
-21
-21
-24
-26
-23
-26
-34
-27
-29
-34
-28
-22
-26
-24
-24
-22
-24
-15
-19
-22
-24
-23
-19
-20
-4
-7
-16
-19
-22
-27
-20
-16
-21
-13
-13
-12
-17
-17
-13
-13
-13
-14
-6
-3
1
-7
-8
-3
-7
-5
-4
1
0
4
-4
-4
-3
1
3
6
6
14
15
13
21
12
16
21
19
31
34
30
25
18
15
17
29
45
44
42
44
44
47
41
49
45
45
43
42
42
40
40
41
45
38
28
28
30
21
19
25
25
21
10
7
5
11
5
-2
-7
-3
-6
-12
-7
-13
-13
-16
-21
-29
-22
-21
-20
-15
-20
-21
-16
-23
-20
-22
-20
-21
-21
-21
-25
-23
-27
-24
-28
-26
-16
-19
-8
-18
-21
-23
-22
-24
-26
-25
-17
-18
-19
-19
-14
-15
-29
-21
-23
-34
-30
-20
-9
-15
-14
-23
-17
-20
-13
-25
-10
-14
-16
-10
-18
-34
-18
-17
-19
-18
-13
-19
-19
-14
-2
-17
-22
-16
-25
-29
-28
-15
-14
-11
-10
-18
-18
-7
-11
-9
-18
-20
-25
-22
-13
-13
-23
-19
-21
-20
-15
-17
-16
-20
-15
-15
-25
-22
-20
-16
-15
-20
-33
-26
-24
-24
-15
-15
-17
-27
-18
-16
-19
-18
-20
-21
-16
-24
-20
-24
-15
-10
-8
-8
-8
-19
-25
-20
-34
-34
-26
-21
-18
-15
-22
-20
-19
-18
-14
-16
-25
-16
-14
-18
-23
-19
-19
-15
-14
-18
-22
-24
-29
-26
-13
-12
-8
-13
-18
-17
-21
-27
-18
-15
-15
-23
-13
-6
-9
-7
-11
-23
-25
-11
-14
-1
-5
-6
-3
-3
-9
-6
-6
-3
-11
-17
-15
-17
-14
-15
-19
-14
-15
-20
-22
-27
-23
-17
-30
-26
-2
-3
-5
-15
-43
-52
-47
-25
-14
-17
-16
-24
-22
-25
-35
-36
-37
-33
-27
-14
-16
-18
-23
-23
-36
-26
-23
-28
-16
-10
-9
-12
-17
-8
-12
-8
1
6
8
26
39
58
61
43
37
31
26
21
22
23
11
-5
-11
-15
-28
-40
-48
-54
-47
-43
-41
-38
-28
-28
-23
-32
-24
-34
-32
-22
-24
-23
-21
-8
-12
-17
-20
-20
-22
-20
-14
-19
-16
-17
-22
-20
-19
-20
-25
-27
-15
-9
-15
-18
-16
-16
-19
-23
-22
-20
-25
-17
-8
-13
-19
-14
-21
-24
-3
-6
-9
-15
-11
-18
-2
-2
-2
-4
-8
-8
-14
-11
-11
-3
-1
-5
-8
-8
-4
-1
-2
-2
-5
1
-5
1
4
7
6
4
5
12
8
16
11
10
18
18
23
39
38
34
20
20
12
19
30
38
44
41
36
37
37
46
43
41
40
40
48
47
41
47
41
34
39
43
33
31
27
35
39
43
27
19
17
11
13
4
4
9
4
-2
-3
-12
-14
-14
-11
-20
-15
-15
-10
-8
-13
-18
-13
-17
-25
-22
-20
-13
-25
-29
-14
-17
-16
-18
-23
-20
-24
-32
-24
-23
-31
-23
-19
-27
-21
-20
-17
-16
-15
-20
-23
-28
-34
-29
-29
-24
-31
-24
-19
-18
-14
-16
-16
-17
-26
-14
-20
-22
-28
-23
-18
-18
-22
-17
-23
-21
-15
-15
-21
-22
-28
-32
-22
-15
-17
-16
-28
-29
-28
-29
-20
-19
-22
-22
-19
-11
-15
-19
-18
-21
-23
-18
-19
-21
-26
-22
-24
-28
-27
-28
-33
-28
-21
-21
-22
-15
-14
-14
-28
-28
-31
-23
-20
-28
-33
-28
-17
-19
-22
-14
-19
-28
-22
-18
-29
-32
-25
-30
-36
-24
-20
-20
-26
-26
-31
-22
-15
-14
-20
-26
-28
-32
-30
-35
-28
-14
-11
-11
-19
-23
-28
-24
-23
-22
-23
-17
-23
-30
-22
-22
-21
-23
-23
-29
-29
-18
-16
-25
-22
-26
-24
-29
-20
-25
-23
-14
-19
-21
-25
-29
-39
-39
-32
-33
-25
-19
-21
-23
-21
-16
-18
-15
-20
-32
-35
-31
-25
-20
-19
-18
-18
-17
-12
-14
-19
-17
-12
-11
-11
-16
-25
-18
-14
-16
-11
-11
-13
-7
-6
-17
-12
-5
-12
-22
-22
-24
-24
-26
-21
-22
-24
-20
-31
-35
-26
-20
-19
-17
-19
-20
-19
-17
-17
-23
-21
-30
-36
-30
-26
-29
-30
-28
-34
-29
-24
-20
-27
-16
-21
-32
-35
-33
-27
-16
-16
-20
-18
-19
-16
-17
-7
4
15
20
25
36
42
41
36
29
33
30
17
21
19
3
0
-5
-7
-15
-29
-46
-51
-48
-42
-35
-31
-24
-18
-20
-22
-18
-27
-28
-29
-24
-22
-28
-24
-20
-23
-27
-27
-29
-29
-32
-30
-12
-16
-25
-23
-16
-8
-13
-25
-17
-17
-17
-16
-19
-21
-7
-11
-16
-20
-20
-22
-25
-21
-22
-10
-12
-21
-25
-15
-13
-18
-14
-20
-13
0
-2
-7
-9
-8
-9
-14
-6
-11
-15
-8
-12
-12
-1
4
-3
-1
-1
-3
-6
-7
-9
-12
-4
9
7
13
11
12
14
20
16
11
18
19
16
25
23
26
35
38
33
30
31
41
40
35
35
42
40
45
39
40
38
28
28
44
47
36
33
43
37
33
33
31
24
29
23
22
22
16
10
6
2
-7
-7
1
-1
-3
-3
-2
-10
-13
-5
-7
-13
-17
-14
-18
-17
-16
-22
-29
-29
-23
-18
-15
-20
-24
-27
-27
-30
-20
-19
-15
-19
-17
-17
-24
-28
-25
-31
-23
-11
-21
-28
-28
-22
-27
-27
-24
-27
-29
-23
-24
-20
-19
-18
-30
-23
-22
-19
-15
-14
-17
-26
-22
-27
-17
-19
-23
-22
-26
-18
-19
-24
-22
-23
-25
-23
-28
-26
-21
-18
-21
-28
-28
-28
-27
-28
-25
-20
-14
-24
-26
-28
-27
-21
-24
-18
-15
-14
-20
-20
-21
-21
-22
-40
-37
-29
-22
-22
-24
-23
-21
-24
-27
-29
-28
-29
-28
-29
-26
-26
-29
-26
-31
-27
-27
-25
-19
-23
-17
-20
-22
-25
-27
-28
-29
-24
-29
-30
-24
-19
-23
-27
-24
-24
-33
-28
-34
-27
-16
-15
-19
-28
-20
-26
-29
-29
-29
-22
-24
-29
-33
-31
-29
-19
-19
-31
-32
-29
-20
-24
-28
-30
-26
-25
-21
-26
-30
-35
-26
-28
-26
-20
-30
-31
-23
-15
-17
-25
-28
-25
-23
-28
-37
-36
-31
-27
-26
-19
-15
-19
-17
-20
-28
-29
-29
-27
-25
-26
-20
-15
-18
-17
-18
-16
-12
-10
-16
-11
-12
-12
-10
-8
-17
-21
-19
-15
-24
-19
-24
-21
-16
-12
-12
-16
-29
-23
-33
-25
-21
-24
-23
-24
-31
-31
-25
-21
-25
-27
-26
-26
-26
-28
-30
-29
-23
-32
-33
-30
-26
-30
-25
-26
-31
-32
-31
-26
-26
-25
-20
-24
-21
-9
-10
-17
-17
-16
-13
-4
12
20
34
38
40
39
38
33
30
27
20
22
12
5
1
-13
-20
-26
-41
-48
-46
-44
-36
-29
-31
-27
-19
-26
-20
-20
-15
-17
-23
-14
-30
-32
-31
-31
-17
-20
-20
-27
-18
-24
-25
-25
-31
-38
-28
-27
-26
-24
-16
-14
-23
-18
-12
-20
-18
-15
-13
-22
-19
-16
-19
-17
-11
-15
-11
-9
-17
-15
-15
-8
-13
-11
-25
-28
-18
-18
-23
-11
-5
-6
-11
-1
2
-9
-7
-9
-15
-10
-1
-1
0
2
3
0
-1
-3
-2
2
6
-1
7
18
16
17
22
19
16
20
22
19
20
28
34
35
38
40
39
43
37
37
29
19
18
30
35
50
43
46
43
39
45
44
40
38
41
40
30
31
29
29
30
21
15
16
13
6
3
17
14
0
-1
-1
-1
-10
-8
-18
-23
-18
-29
-28
-22
-19
-15
-23
-13
-18
-24
-20
-24
-22
-19
-14
-22
-23
-25
-17
-32
-28
-31
-36
-39
-30
-27
-28
-25
-22
-28
-29
-29
-32
-27
-27
-24
-24
-25
-27
-23
-16
-19
-24
-26
-25
-31
-26
-26
-29
-33
-22
-24
-26
-25
-26
-28
-26
-28
-32
-35
-23
-25
-25
-28
-33
-29
-26
-12
-32
-31
-30
-38
-28
-29
-32
-39
-31
-19
-15
-13
-17
-19
-26
-21
-23
-29
-31
-31
-27
-26
-31
-30
-30
-20
-21
-23
-22
-24
-32
-31
-28
-34
-31
-29
-29
-26
-25
-30
-29
-34
-30
-31
-29
-23
-20
-35
-32
-32
-28
-28
-29
-29
-33
-37
-36
-30
-31
-24
-28
-42
-38
-40
-39
-29
-31
-31
-27
-36
-38
-39
-40
-39
-32
-32
-38
-27
-24
-30
-37
-46
-54
-54
-52
-44
-34
-26
-15
-18
-35
-40
-38
-42
-36
-33
-32
-28
-27
-30
-32
-29
-31
-38
-43
-43
-46
-45
-35
-33
-41
-31
-33
-38
-37
-33
-44
-50
-48
-45
-36
-34
-26
-31
-26
-21
-25
-24
-23
-28
-43
-31
-28
-34
-34
-26
-25
-14
-25
-36
-37
-41
-47
-45
-40
-24
-35
-39
-38
-45
-45
-53
-49
-49
-52
-51
-52
-51
-41
-47
-49
-50
-54
-44
-47
-45
-44
-43
-44
-60
-52
-49
-57
-52
-48
-47
-45
-37
-26
-30
-30
-50
-48
-42
-32
-27
-14
-9
18
33
31
32
25
20
24
17
6
-2
-3
-9
-25
-33
-42
-47
-59
-72
-72
-62
-48
-48
-42
-49
-45
-47
-46
-45
-42
-43
-49
-50
-42
-26
-35
-45
-49
-52
-52
-45
-46
-44
-42
-45
-38
-37
-37
-36
-31
-26
-34
-39
-36
-38
-34
-45
-46
-43
-44
-41
-40
-41
-45
-42
-40
-34
-34
-32
-23
-20
-21
-28
-26
-31
-37
-34
-34
-34
-27
-21
-25
-25
-26
-30
-28
-19
-23
-28
-27
-26
-21
-26
-13
-16
-19
-15
-20
-17
-6
-5
-4
-1
-2
-2
-5
-8
-7
1
5
15
5
-8
-3
5
20
24
17
16
20
23
23
22
24
17
29
30
31
31
32
33
26
23
29
26
27
24
26
28
23
16
10
14
19
10
-1
-4
-4
0
-2
0
-5
-11
-14
-25
-26
-19
-18
-24
-24
-30
-30
-33
-28
-29
-33
-34
-35
-32
-29
-33
-39
-43
-39
-45
-40
-24
-27
-30
-22
-30
-38
-44
-45
-44
-34
-28
-35
-38
-35
-34
-34
-29
-34
-36
-39
-38
-39
-35
-36
-39
-46
-47
-39
-33
-38
-27
-25
-26
-27
-38
-35
-29
-39
-39
-50
-42
-29
-26
-24
-16
-20
-14
-18
-39
-43
-48
-39
-32
-17
-18
-39
-27
-25
-25
-27
-33
-37
-33
-35
-39
-36
-31
-27
-23
-30
-34
-40
-41
-38
-46
-47
-32
-28
-33
-34
-32
-34
-37
-35
-40
-41
-36
-29
-30
-35
-42
-40
-36
-36
-34
-33
-36
-35
-37
-29
-28
-39
-33
-35
-37
-41
-42
-39
-38
-40
-29
-27
-29
-41
-38
-36
-36
-40
-39
-43
-39
-39
-29
-31
-37
-35
-34
-43
-47
-46
-43
-41
-33
-27
-31
-31
-35
-38
-31
-48
-44
-43
-32
-36
-34
-28
-21
-29
-36
-31
-34
-38
-35
-39
-42
-35
-34
-38
-37
-36
-27
-34
-28
-31
-33
-30
-23
-25
-30
-21
-17
-17
-18
-37
-46
-37
-35
-30
-30
-30
-30
-29
-21
-22
-19
-15
-23
-25
-25
-25
-25
-29
-26
-34
-36
-44
-38
-43
-30
-24
-20
-16
-21
-25
-32
-43
-44
-49
-45
-42
-44
-38
-36
-48
-50
-47
-48
-41
-39
-32
-31
-41
-32
-34
-32
-33
-30
-38
-35
-30
-29
-24
-24
-32
-25
-16
-12
-16
-9
2
14
32
39
40
37
26
22
20
15
9
8
6
-8
-17
-28
-40
-55
-76
-62
-53
-51
-46
-38
-34
-34
-41
-52
-48
-47
-36
-27
-20
-24
-24
-21
-31
-40
-41
-37
-30
-33
-28
-32
-32
-26
-22
-29
-36
-37
-36
-38
-28
-31
-23
-24
-20
-18
-25
-28
-28
-31
-26
-25
-25
-26
-24
-26
-25
-31
-26
-27
-25
-24
-24
-19
-27
-28
-23
-15
-19
-16
-13
-18
-14
-10
-17
-11
-15
-10
-11
-8
-9
-14
-12
-9
-10
-10
-4
-2
-6
5
12
7
-5
-3
1
0
9
6
7
12
17
21
26
14
17
17
21
32
34
25
26
27
27
33
39
33
34
31
27
30
28
27
32
31
34
30
27
28
26
14
17
18
12
8
3
4
4
11
7
0
-4
-20
-21
-17
-20
-16
-12
-18
-14
-18
-16
-24
-22
-21
-33
-39
-36
-41
-40
-41
-39
-40
-35
-29
-25
-24
-19
-22
-23
-26
-34
-37
-32
-38
-41
-39
-30
-22
-31
-37
-33
-39
-35
-29
-32
-35
-35
-35
-31
-27
-27
-33
-43
-41
-36
-32
-27
-38
-35
-36
-40
-36
-38
-40
-44
-41
-38
-34
-29
-36
-27
-26
-36
-33
-35
-29
-28
-38
-45
-42
-37
-39
-35
-45
-46
-41
-42
-38
-37
-35
-39
-44
-40
-40
-43
-39
-36
-37
-37
-29
-40
-44
-32
-31
-32
-34
-35
-43
-47
-47
-37
-39
-43
-44
-49
-50
-53
-50
-47
-46
-46
-46
-44
-42
-39
-40
-41
-46
-46
-43
-44
-41
-38
-47
-52
-54
-50
-45
-46
-35
-40
-47
-48
-43
-35
-35
-38
-45
-40
-38
-41
-49
-46
-54
-57
-55
-47
-42
-36
-36
-36
-41
-39
-39
-39
-32
-31
-38
-36
-40
-40
-32
-35
-39
-38
-41
-41
-39
-34
-40
-39
-36
-27
-37
-35
-37
-39
-41
-37
-35
-50
-42
-47
-59
-57
-56
-60
-46
-37
-31
-36
-44
-48
-50
-47
-44
-47
-44
-38
-51
-53
-50
-54
-53
-54
-59
-53
-40
-41
-45
-39
-34
-39
-33
-31
-30
-36
-29
-27
-21
-18
-7
-17
-10
5
20
15
17
18
13
4
1
-5
-16
-15
-27
-26
-37
-49
-58
-70
-67
-62
-62
-53
-46
-49
-47
-37
-50
-47
-39
-42
-51
-45
-48
-46
-43
-38
-28
-43
-48
-45
-40
-37
-33
-43
-40
-45
-48
-35
-40
-48
-43
-45
-41
-37
-33
-36
-38
-38
-39
-51
-45
-37
-34
-32
-34
-28
-27
-26
-27
-33
-37
-35
-32
-32
-27
-35
-39
-36
-41
-40
-34
-28
-33
-24
-21
-22
-21
-16
-14
-18
-19
-22
-16
-25
-20
-22
-16
-18
-12
-12
-15
-15
-18
-16
-2
1
-3
2
4
7
8
13
12
14
15
6
11
26
21
18
19
21
25
29
31
23
21
29
32
28
28
30
28
29
32
25
17
15
15
15
13
20
9
6
8
-1
3
1
-2
-14
-16
-17
-20
-18
-26
-30
-18
-15
-21
-25
-24
-32
-31
-27
-29
-28
-35
-28
-32
-35
-42
-41
-39
-41
-35
-34
-28
-33
-43
-41
-33
-35
-28
-29
-36
-40
-45
-34
-41
-41
-42
-33
-38
-19
-24
-32
-42
-39
-45
-44
-26
-37
-35
-30
-36
-41
-34
-34
-40
-29
-31
-33
-35
-26
-34
-37
-39
-31
-34
-44
-39
-43
-39
-33
-32
-33
-25
-25
-33
-33
-34
-34
-36
-25
-25
-30
-36
-36
-37
-36
-33
-33
-33
-26
-21
-31
-27
-32
-43
-43
-38
-42
-33
-28
-30
-32
-27
-22
-41
-38
-25
-34
-35
-32
-38
-36
-33
-34
-35
-32
-26
-30
-32
-21
-19
-22
-24
-34
-31
-40
-40
-43
-37
-32
-29
-27
-21
-24
-31
-27
-21
-30
-33
-30
-30
-29
-25
-36
-37
-26
-26
-30
-24
-31
-33
-22
-20
-26
-26
-25
-24
-23
-24
-31
-33
-33
-26
-24
-32
-32
-36
-34
-32
-31
-30
-23
-17
-18
-18
-17
-21
-24
-26
-25
-29
-38
-35
-31
-29
-14
-23
-26
-29
-27
-37
-29
-16
-26
-29
-23
-25
-21
-17
-20
-24
-18
-22
-24
-23
-25
-25
-14
-16
-14
-15
-12
-18
-23
-24
-21
-18
-15
-12
-20
-22
-20
-17
-22
-30
-35
-29
-28
-22
-26
-26
-26
-24
-24
-20
-25
-29
-30
-33
-28
-35
-39
-42
-38
-33
-21
-19
-32
-24
-26
-29
-31
-30
-35
-34
-31
-25
-18
-30
-34
-34
-31
-28
-27
-16
-11
-12
-15
-13
-11
-8
-6
9
27
35
49
44
35
38
32
18
12
7
9
11
0
-10
-10
-23
-32
-39
-38
-39
-43
-33
-27
-35
-22
-20
-22
-24
-31
-27
-29
-26
-23
-25
-26
-31
-30
-24
-32
-25
-32
-21
-31
-22
-29
-14
-23
-22
-4
-17
-21
-16
-9
-25
-35
-15
-25
-22
-21
-13
-18
-19
-23
-16
-21
-23
-16
-12
-14
-18
-12
-14
-16
-14
-10
-15
-21
-21
-11
-7
-7
-5
-6
-8
-5
-1
-4
-8
-2
-12
-21
-7
-1
-4
6
-8
-1
7
6
-4
0
12
6
7
13
14
9
20
16
16
24
28
27
44
47
42
38
38
35
34
33
39
46
38
35
36
49
55
41
35
50
51
45
41
36
35
44
42
36
34
33
27
23
28
27
14
18
20
16
14
6
-4
0
6
5
-3
-4
-9
-6
-14
-13
-15
-7
-8
-6
-21
-22
-9
-10
-11
-11
-13
-21
-12
-10
-7
-15
-22
-29
-24
-8
-15
-8
-10
-15
-18
-13
-21
-19
-17
-19
-12
-9
-14
-16
-6
-11
-19
-17
-18
-14
-18
-14
-13
-6
-12
-15
-17
-16
-14
-13
-18
-18
-11
-11
-16
-17
-13
-13
-9
-4
-16
-6
-11
-5
-14
-20
-13
-16
-16
-13
-21
-16
-23
-16
-15
-10
-13
-13
-21
-11
-18
-13
-15
-7
-9
-7
-9
-10
2
11
-21
-26
-15
-23
-17
-16
-13
-20
-16
-17
-14
-12
-13
-14
-14
-3
-13
-16
-20
-18
-24
-21
-10
-9
-13
-11
-16
-20
-19
-11
-10
-15
-11
-18
-17
-10
-18
-19
-17
-16
-21
-16
-9
-15
-17
-13
-17
-12
-13
-15
-17
-18
-16
-15
-18
-21
-11
-14
-13
-15
-14
-19
-15
-23
-24
-18
-23
-21
-14
-9
-13
-1
-4
-13
-15
-10
-19
-25
-16
-14
-16
-24
-13
-12
-14
-19
-16
-16
-25
-17
-20
-14
-18
-19
-21
-34
-26
-15
-16
-15
-9
-3
-5
-1
0
6
-14
-16
-20
-6
-12
0
0
-11
-16
-9
-11
-7
-22
-24
-25
-20
-15
-16
-20
-24
-16
-15
-17
-15
-17
-24
-20
-18
-11
-17
-31
-23
-13
-13
-16
-18
-18
-19
-34
-35
-28
-20
-11
-10
-10
5
-19
-24
-26
-28
-19
-16
-10
-2
3
10
4
-3
2
2
5
22
27
38
50
56
51
48
48
36
27
20
16
26
19
22
-3
-7
-20
-35
-37
-34
-34
-37
-30
-14
-11
-15
-13
-12
-9
-11
-11
-13
-16
-8
-18
-17
-16
-13
-3
1
-5
-7
2
1
-6
-9
-8
-8
-15
-6
-2
2
-3
-1
-9
-1
-2
-5
-16
-12
-1
2
8
10
5
-10
-12
-8
-1
5
-3
-2
4
1
-3
-1
3
-7
-4
9
9
-1
5
13
11
13
10
5
8
10
10
13
17
19
22
22
13
14
21
17
18
21
30
30
28
26
28
27
33
25
28
30
47
39
29
44
45
42
48
44
45
50
52
54
55
71
74
74
41
51
58
63
57
47
47
56
51
45
42
39
38
39
39
33
34
43
21
15
17
16
7
11
22
12
6
7
4
10
8
9
9
-5
-3
-7
-2
-6
-7
-5
-11
-13
-11
-8
-4
-9
-13
-4
-3
1
-1
-8
-5
-1
-9
-9
-14
-3
-7
-20
-17
-19
-7
2
-3
-9
-5
0
-2
3
0
-2
-14
-6
-7
-11
-17
-12
-11
-13
-4
-10
-4
6
1
4
-7
-6
-1
-3
-4
-4
-7
3
-2
-11
1
-4
-10
-8
-10
-7
-1
0
-8
1
6
8
-2
-8
-9
-3
-5
1
5
3
2
-7
-1
-10
-9
-4
-5
5
5
8
10
9
-4
-11
-10
-10
-13
-4
8
6
2
0
2
5
