62
60
56
56
55
55
59
59
53
46
55
61
59
53
54
53
59
61
61
57
59
55
52
56
56
56
58
56
58
59
56
52
56
58
57
54
58
49
58
56
55
59
56
57
54
53
51
54
58
60
57
52
56
55
59
50
52
47
55
57
57
59
56
59
53
50
54
60
60
63
67
59
55
53
54
59
54
52
55
66
64
59
57
60
70
69
70
65
64
67
63
59
65
61
64
62
62
56
54
58
57
47
54
55
56
52
59
53
54
56
56
56
50
51
54
47
53
53
44
56
55
45
56
50
59
58
60
55
42
40
37
30
21
39
49
60
82
101
140
174
192
202
201
183
161
152
143
118
87
51
17
3
19
34
38
42
44
47
48
50
47
50
43
47
45
42
49
49
45
48
48
43
47
44
44
47
43
45
47
54
52
50
50
46
46
51
51
49
48
49
53
51
52
56
53
55
50
49
44
49
54
45
49
54
54
53
49
49
60
60
59
52
57
58
54
57
60
49
55
63
62
57
60
60
64
69
68
70
71
72
70
67
79
81
75
77
86
84
89
93
90
93
92
89
89
98
100
99
104
102
97
93
92
90
84
96
90
93
93
91
84
79
84
79
80
78
77
80
75
74
66
68
70
66
66
60
63
67
69
67
61
60
56
55
55
67
62
61
61
57
54
61
63
55
56
55
59
60
65
57
55
52
69
62
53
59
65
59
62
57
57
58
56
54
56
61
63
60
58
59
59
59
60
59
62
59
53
57
61
54
53
60
67
58
57
59
52
56
60
62
59
64
62
55
59
62
57
64
62
67
59
58
56
51
56
60
56
63
64
55
53
62
62
61
61
61
60
61
62
55
60
55
57
60
58
59
61
63
58
55
54
51
59
62
63
62
63
60
61
59
56
61
62
53
62
56
62
69
60
54
55
57
58
55
57
56
65
64
64
64
64
59
53
64
64
61
67
64
75
68
68
74
71
72
72
75
77
71
72
68
69
61
50
63
62
56
58
61
54
59
57
59
57
61
60
53
57
61
57
54
60
51
55
49
54
51
54
60
60
61
56
53
45
52
54
43
43
41
31
37
52
56
77
104
133
155
190
209
215
206
181
163
156
134
105
68
33
14
16
28
36
44
44
52
55
46
52
53
48
46
51
51
46
54
45
45
44
54
49
51
48
47
37
48
57
45
53
52
46
51
47
51
49
53
55
54
53
48
44
53
47
51
55
51
57
49
51
54
48
54
55
52
56
56
55
59
62
61
52
51
54
59
56
62
61
59
63
64
63
60
63
61
62
63
69
76
76
80
78
77
80
79
85
82
80
80
90
95
96
89
94
99
97
98
97
96
104
100
98
94
97
93
91
86
90
92
87
86
91
88
83
75
80
81
70
74
75
68
69
65
64
68
69
65
57
61
66
67
61
60
58
57
63
49
56
53
62
55
55
57
56
54
55
45
52
54
58
59
58
57
54
60
59
56
49
51
48
48
57
59
60
52
49
55
51
57
53
52
53
54
57
55
62
56
55
57
64
57
60
57
55
52
58
54
59
55
61
54
52
58
57
58
58
54
47
58
58
60
60
60
54
52
61
54
57
60
57
59
52
60
50
58
59
59
54
60
58
58
56
54
51
56
57
58
62
59
54
58
57
59
55
53
56
55
54
59
55
54
49
58
58
58
56
57
51
57
59
54
60
64
52
59
61
53
57
57
52
58
53
51
54
65
57
59
64
62
53
56
58
57
64
63
64
61
65
68
63
64
68
68
66
67
66
67
70
73
69
68
65
67
57
61
56
53
56
57
55
56
56
48
44
55
52
50
54
58
46
52
56
43
51
46
56
56
57
54
54
53
52
50
50
56
51
45
35
29
31
43
53
60
83
110
140
171
194
212
215
194
165
158
146
121
94
50
20
9
20
37
45
47
48
47
44
43
44
46
50
48
45
43
43
43
46
47
43
51
46
47
43
49
41
45
48
47
49
42
47
51
48
43
52
47
53
50
51
50
44
55
49
48
47
55
48
51
52
56
56
61
56
50
47
53
49
53
57
55
52
53
49
52
57
62
56
54
61
59
64
65
61
64
67
69
69
69
73
69
67
73
77
80
81
86
87
85
87
86
93
94
94
89
90
94
96
97
98
99
100
100
98
90
94
86
98
87
93
88
81
84
80
75
74
74
77
71
71
67
66
71
69
62
67
60
60
65
65
60
59
59
52
56
55
52
60
59
63
54
57
60
56
61
58
51
61
58
58
53
49
61
50
53
51
49
57
58
62
60
60
58
59
48
54
55
51
53
55
54
56
55
52
55
51
52
58
56
60
55
59
58
56
56
50
50
55
61
60
55
61
59
52
60
59
58
57
59
57
58
59
52
55
57
56
54
57
59
51
51
63
58
54
55
58
52
53
57
58
52
53
52
53
55
58
62
59
56
51
56
52
49
57
59
56
56
51
55
49
52
59
62
64
59
55
50
52
58
54
55
54
53
54
58
55
57
59
54
58
55
58
55
54
54
53
56
55
57
55
57
57
60
60
63
62
58
61
60
60
65
64
61
67
70
71
73
71
72
71
66
64
70
75
70
62
64
56
62
62
59
59
54
55
60
55
57
56
53
54
43
60
55
53
59
57
55
49
54
54
57
54
53
57
58
54
54
54
49
48
47
39
35
31
44
55
75
92
112
149
183
200
206
204
185
155
151
139
105
71
36
9
0
16
29
35
44
50
43
52
57
47
42
57
56
47
47
52
39
46
47
47
45
53
49
48
55
53
52
47
46
46
46
56
56
58
56
55
51
52
54
52
49
53
52
52
57
58
53
54
51
52
51
58
66
57
54
56
58
55
57
55
63
64
54
62
69
65
58
63
62
61
66
65
65
71
68
72
68
72
74
78
84
82
83
83
87
88
92
93
90
89
96
95
90
100
100
99
99
98
103
91
104
102
99
100
99
95
97
99
99
92
94
88
75
85
90
84
76
80
76
72
76
76
74
71
72
64
63
65
71
59
69
64
70
61
64
61
59
60
63
59
60
64
57
57
64
57
55
61
66
51
60
64
65
63
61
57
60
60
56
57
55
51
57
60
63
67
62
57
60
64
58
65
65
60
63
60
58
59
55
54
59
68
68
66
65
56
55
64
56
64
62
63
63
64
65
58
60
58
60
57
60
60
61
65
65
62
60
61
59
59
58
61
61
61
61
58
58
60
55
57
60
61
61
62
60
54
63
59
58
57
60
60
64
71
64
64
58
52
58
63
59
59
56
60
63
57
58
58
57
57
61
61
63
63
67
65
63
64
72
61
69
64
70
76
73
73
76
75
70
71
72
70
68
66
62
58
59
53
53
59
63
57
55
60
58
52
58
56
54
60
60
63
60
56
54
56
54
54
52
56
59
61
62
57
57
54
59
52
48
45
43
42
53
57
65
86
101
135
164
190
200
192
177
165
150
136
118
74
37
11
2
6
24
34
39
45
57
54
48
55
50
56
58
54
56
52
52
48
53
51
52
50
57
62
60
62
54
49
51
61
61
59
57
57
57
64
61
58
54
59
58
66
64
61
60
68
64
58
64
63
62
59
65
57
67
70
70
59
69
60
64
68
68
72
70
74
76
68
73
65
70
77
77
81
81
79
82
78
82
89
88
92
95
91
84
94
96
98
96
103
99
106
108
103
108
105
106
111
108
108
106
108
110
109
106
106
109
96
99
106
98
100
92
92
90
94
83
84
85
82
87
81
83
82
75
82
78
78
74
68
73
76
74
67
69
73
70
71
70
71
72
75
67
69
68
73
68
74
67
68
74
77
75
73
71
70
63
67
68
77
70
76
75
76
69
70
73
71
75
77
79
72
72
75
71
74
70
68
77
70
71
82
74
73
64
71
73
69
76
72
70
71
80
74
69
71
67
72
69
65
71
71
73
77
75
70
64
71
70
67
72
71
74
71
73
71
66
70
71
68
67
73
67
72
73
65
64
72
75
69
76
73
73
68
73
77
71
82
83
79
78
70
72
74
77
73
71
85
85
90
76
85
86
89
86
87
83
85
85
80
72
71
67
74
70
72
72
74
75
69
69
71
72
74
72
72
68
73
71
71
71
79
73
66
72
69
68
68
70
63
71
78
73
65
65
60
42
49
62
67
85
112
130
163
189
204
210
202
180
164
166
154
122
91
44
22
17
23
43
51
57
63
68
72
71
66
69
67
62
64
70
67
65
71
72
64
70
62
64
69
70
62
61
73
71
67
69
70
67
71
73
70
71
72
72
75
69
68
72
75
72
70
74
63
80
74
72
76
71
73
76
78
65
77
74
73
73
79
76
83
83
79
80
79
77
80
85
81
85
87
86
86
88
86
89
93
97
94
99
106
105
102
103
105
108
111
113
110
110
115
117
114
112
119
117
113
113
121
115
112
112
114
107
108
106
107
106
106
101
106
100
93
96
96
83
87
94
88
86
87
81
86
83
78
77
76
74
78
76
75
81
72
74
71
73
71
76
76
79
80
74
76
78
76
74
71
72
70
79
70
69
79
81
73
74
77
77
78
67
76
71
77
83
81
79
74
80
77
78
75
77
78
80
76
74
78
84
76
81
83
79
78
77
81
75
84
75
70
77
79
76
77
82
82
79
87
79
80
71
75
79
76
72
76
78
79
73
70
73
73
75
73
77
76
67
77
76
73
76
80
73
74
68
77
73
76
70
74
78
81
76
82
75
76
75
79
78
78
81
81
80
79
78
81
82
83
83
87
81
94
92
91
80
89
89
86
86
87
85
82
76
72
74
69
74
68
66
74
73
73
72
72
72
72
72
73
67
63
74
72
67
79
75
67
74
79
74
73
71
68
67
70
65
52
52
52
52
57
70
90
107
143
167
203
215
226
216
197
181
169
148
117
87
45
18
21
38
57
58
58
63
66
63
61
70
67
61
63
68
59
62
62
59
57
62
65
64
64
66
54
60
71
68
62
63
69
66
66
67
64
63
61
67
61
69
68
66
65
66
63
60
69
66
66
65
67
68
71
68
61
59
66
57
60
72
75
74
75
70
74
69
73
72
72
74
77
77
73
80
80
77
81
86
86
78
83
93
98
98
96
99
104
103
103
105
96
105
108
104
101
108
113
103
113
113
107
119
114
111
107
105
104
102
100
94
94
99
94
96
92
93
87
84
87
85
82
76
82
83
81
72
72
73
71
76
70
73
73
70
65
62
66
63
78
73
66
75
72
80
65
71
65
65
64
69
70
66
61
67
68
61
66
68
66
67
73
68
66
69
68
65
70
64
67
64
72
63
66
70
66
59
68
70
71
70
74
70
64
66
65
72
71
71
67
68
68
64
65
69
61
66
68
67
60
68
64
68
66
67
64
60
66
63
64
64
67
62
62
60
58
64
62
60
64
69
69
64
63
59
63
60
68
63
59
71
68
66
71
71
66
61
65
65
68
72
67
68
73
73
74
71
70
75
79
79
76
76
77
74
69
75
76
70
71
69
63
60
55
59
54
60
61
61
64
66
60
63
58
63
66
67
59
57
60
60
58
54
55
51
54
64
66
63
64
62
55
53
52
37
40
43
52
61
81
102
128
162
191
205
216
214
193
173
158
135
123
85
42
17
9
38
41
48
49
55
52
48
47
48
48
50
55
49
56
51
50
42
49
53
54
51
53
53
55
52
51
57
47
44
46
53
51
50
54
52
49
53
54
52
49
53
50
52
52
50
58
52
47
50
51
54
53
56
61
55
53
58
60
50
55
54
52
56
60
61
52
56
53
54
64
66
62
62
65
66
58
70
74
66
75
77
68
83
85
85
86
88
86
86
91
90
91
97
96
99
93
100
94
96
97
96
96
100
98
93
95
98
92
93
93
88
78
80
71
65
60
69
77
81
77
67
75
73
65
64
64
62
61
60
68
65
59
60
58
59
62
59
56
59
63
63
58
58
62
53
57
56
63
57
59
55
57
60
52
58
57
61
53
55
59
52
56
62
52
54
62
63
55
55
58
56
58
65
58
59
49
54
57
58
56
54
55
56
57
52
57
55
55
60
59
56
56
60
57
57
62
59
53
61
57
51
47
54
64
60
57
58
51
53
52
53
59
59
53
58
64
61
49
46
46
40
53
50
54
55
58
54
53
56
53
49
50
57
52
53
57
55
50
55
54
50
52
57
52
49
51
48
47
53
54
49
56
55
55
49
53
53
56
51
49
52
57
61
52
56
55
56
57
61
60
56
68
65
65
57
63
64
62
63
61
62
65
60
58
53
52
49
43
52
47
53
56
46
47
50
49
44
48
47
45
48
48
44
47
49
45
48
48
45
49
43
44
47
46
50
45
41
36
33
26
30
39
52
67
85
117
144
176
192
205
201
187
152
151
135
95
67
28
-1
3
18
36
39
38
45
42
37
45
43
41
37
44
40
39
42
42
40
40
42
41
42
40
43
40
42
40
36
44
44
41
37
42
39
45
44
45
42
40
37
41
42
51
42
44
33
39
50
50
46
48
41
51
52
48
53
45
44
56
55
53
52
53
53
51
48
54
57
62
61
57
60
62
60
60
61
61
58
70
69
72
70
69
72
79
75
80
84
85
81
85
96
92
92
89
95
87
99
96
89
91
96
99
93
96
94
84
84
84
85
85
83
77
79
72
79
68
74
73
74
66
69
63
61
61
57
58
57
56
56
58
61
57
47
57
59
52
58
57
55
54
55
55
48
56
57
50
60
55
52
54
59
53
53
49
45
56
49
61
52
51
50
49
51
50
49
52
65
57
45
53
55
32
60
56
57
56
59
56
55
57
55
51
53
52
58
58
61
56
50
57
56
54
53
56
52
44
51
59
65
59
61
54
57
45
51
50
57
57
58
56
51
53
52
52
53
51
54
55
54
55
54
54
53
50
48
52
57
53
52
57
54
53
53
54
52
47
46
52
56
56
58
55
54
46
53
53
58
54
53
54
51
49
61
54
51
50
46
54
59
60
57
50
51
58
59
53
56
50
62
64
66
66
69
64
60
63
66
62
63
65
65
63
70
63
61
61
58
54
53
55
54
51
56
54
54
55
58
50
42
47
57
47
49
52
50
50
53
50
50
54
48
45
47
47
49
55
51
43
38
57
45
40
40
31
42
49
58
69
104
137
162
186
195
188
171
157
145
128
100
69
27
-1
-7
2
14
31
36
40
45
48
44
46
44
44
39
45
40
42
43
44
40
39
43
42
37
48
41
48
45
44
40
41
43
40
43
46
45
49
47
46
46
52
45
46
54
49
47
46
48
45
43
51
47
48
46
48
52
49
48
52
51
49
50
47
58
55
51
52
55
53
54
59
57
56
56
58
61
56
64
61
65
71
65
71
71
75
75
74
82
81
80
89
87
82
85
87
92
90
92
93
87
91
89
84
87
94
89
89
95
86
90
82
83
83
80
76
78
73
76
67
70
65
68
62
61
60
52
60
57
54
62
56
53
50
55
51
52
54
52
44
44
47
58
49
44
56
58
58
61
53
49
46
45
53
53
47
49
55
56
53
49
50
47
49
47
47
49
54
51
48
53
49
50
49
53
51
51
56
53
52
50
53
54
39
47
41
47
56
51
52
51
47
57
40
51
45
52
53
49
50
49
48
45
46
50
50
45
59
53
46
49
47
45
50
50
53
54
52
51
48
51
48
44
49
48
43
50
52
43
45
48
52
47
50
49
48
50
44
48
46
42
50
50
43
50
38
49
43
45
47
47
56
49
60
47
60
47
55
55
58
60
64
61
65
59
59
58
61
58
63
61
61
55
56
57
50
50
51
43
44
44
43
50
52
53
53
49
44
36
43
46
49
47
50
50
41
50
49
46
41
38
42
49
50
47
48
46
36
27
26
25
39
49
60
76
89
133
163
178
194
208
179
164
151
141
113
85
53
9
-12
0
15
29
33
40
41
41
43
43
39
29
35
43
40
41
48
39
44
41
41
40
39
36
38
41
39
48
44
43
46
46
46
43
49
40
42
50
44
42
45
39
40
37
37
34
44
43
42
41
54
51
47
51
47
39
43
48
49
45
63
50
41
48
50
48
52
52
52
60
57
61
51
57
60
54
62
57
67
65
68
67
69
75
68
75
74
75
68
83
86
83
84
101
89
88
91
90
85
91
100
90
92
94
93
92
83
82
88
81
77
78
82
79
70
69
80
76
67
67
63
54
60
57
54
54
58
61
57
48
60
55
50
49
43
44
47
63
61
58
52
48
46
52
53
45
46
59
51
47
52
53
48
47
47
51
58
48
46
45
57
49
51
52
51
55
56
55
49
52
46
47
50
57
52
49
55
53
48
56
52
48
49
57
52
56
54
57
50
53
56
50
53
59
51
50
51
48
51
55
50
48
54
51
56
57
56
50
49
52
48
51
50
51
46
53
35
47
50
55
54
46
53
54
46
45
46
46
52
50
50
52
51
50
57
57
50
47
48
48
48
49
52
49
44
45
49
51
51
46
48
48
46
45
47
56
53
52
45
52
44
44
49
49
51
59
58
53
49
55
46
54
61
54
57
60
59
57
53
63
62
63
58
54
50
66
70
59
56
57
56
45
51
45
45
49
45
46
51
44
44
46
40
41
47
46
40
41
54
48
34
52
51
45
51
51
51
41
32
37
40
36
36
35
31
28
21
31
33
46
59
100
129
164
189
198
212
192
175
149
147
118
86
52
10
-1
6
14
30
36
33
35
37
42
41
47
34
27
32
36
29
33
31
39
44
35
24
25
36
35
31
36
43
44
36
40
33
36
35
32
35
37
37
40
39
39
40
36
36
29
28
39
38
39
38
33
34
38
33
30
34
38
36
45
47
46
43
42
44
40
39
26
51
45
49
52
53
52
48
47
48
49
49
58
56
58
55
58
66
63
64
61
66
69
80
80
78
79
81
74
76
83
85
85
87
87
84
87
86
73
80
78
84
79
74
75
68
67
64
62
65
70
58
57
58
55
56
57
53
42
48
47
41
40
49
46
40
39
42
39
46
45
38
32
46
43
40
38
40
33
43
42
41
40
39
36
38
36
35
39
40
37
37
42
44
37
35
37
35
33
39
38
38
32
44
43
41
40
38
35
33
38
35
41
39
32
36
34
36
36
41
39
41
42
34
37
31
31
28
30
37
37
32
39
41
34
35
37
37
37
33
36
31
44
35
34
37
41
33
30
29
29
32
39
35
40
39
32
29
30
33
37
29
31
19
27
31
38
35
34
34
30
27
41
34
29
28
34
31
30
32
32
26
30
26
32
42
32
32
32
35
32
25
30
38
26
29
31
24
30
28
24
28
30
29
35
36
34
33
40
35
33
36
39
35
41
46
40
46
47
42
51
45
35
43
41
42
30
31
24
33
33
32
29
19
27
29
25
20
20
23
25
21
26
25
27
21
23
19
24
21
22
27
28
21
19
15
22
24
24
18
15
11
5
-2
-2
13
21
39
73
89
121
152
183
200
192
165
136
118
107
77
53
6
-21
-30
-12
5
7
15
14
11
15
16
18
18
16
15
7
8
11
12
14
12
18
16
16
14
9
18
17
13
16
16
12
15
19
13
17
13
15
14
15
10
16
15
15
27
15
16
17
12
19
16
17
15
24
16
16
18
20
18
20
19
18
18
24
14
22
28
30
30
23
25
28
27
26
25
23
30
32
42
34
39
36
37
35
45
44
44
51
49
51
56
58
60
58
63
62
58
54
68
67
63
60
64
65
66
64
59
60
61
56
62
57
57
56
49
51
53
43
49
44
45
40
33
34
40
40
36
33
33
33
30
23
24
26
25
30
25
23
25
27
29
24
32
28
20
22
18
26
25
24
31
22
24
25
19
19
19
16
26
26
30
28
25
25
19
23
27
26
25
25
23
21
28
26
22
25
25
20
21
27
32
23
25
24
20
20
21
20
23
25
29
29
27
24
20
22
19
20
21
29
22
27
20
32
16
26
23
18
20
23
24
21
22
19
25
27
27
20
18
29
21
25
24
15
24
27
23
20
22
24
19
23
26
21
21
15
16
12
19
27
22
17
22
20
18
17
23
25
22
20
19
13
17
21
23
22
22
19
20
22
22
22
18
17
22
25
26
18
18
27
23
24
24
27
25
15
21
27
27
31
25
36
40
35
35
36
30
35
32
35
37
36
34
28
27
23
20
18
19
16
18
20
23
20
23
22
24
20
16
13
11
18
24
23
12
16
20
20
19
13
14
17
19
22
19
20
10
13
10
-1
-3
-1
13
19
37
51
87
118
149
164
176
164
152
129
117
97
64
32
-7
-35
-53
-30
-10
-5
10
12
16
10
11
4
10
12
8
8
10
11
8
10
16
5
12
13
16
12
17
14
12
15
19
7
11
11
13
11
10
16
20
16
20
5
20
16
12
14
21
15
12
11
22
23
21
16
17
20
15
16
23
31
30
20
21
23
23
28
22
21
25
27
20
19
27
34
26
34
33
27
33
35
32
39
45
38
41
42
46
49
49
50
54
51
57
64
62
55
55
62
63
65
66
64
61
61
61
58
61
55
60
57
54
55
55
49
45
49
47
46
46
47
43
37
29
33
36
39
35
31
32
25
22
26
24
20
18
21
31
29
25
29
27
24
19
20
25
22
25
23
19
19
15
16
17
25
24
24
23
21
18
22
23
23
23
19
15
21
26
29
19
26
23
23
27
22
19
27
25
19
28
26
21
28
26
22
25
29
27
22
24
25
29
28
24
21
19
25
23
19
21
21
17
25
29
24
24
24
22
19
28
24
23
27
24
16
19
22
17
24
17
22
19
20
19
25
26
21
21
18
23
27
27
29
25
26
19
20
22
25
25
20
25
24
27
23
24
27
23
24
22
19
34
36
20
25
31
39
37
41
34
33
38
37
36
34
29
39
38
29
25
22
24
23
23
21
23
26
19
26
26
15
18
21
22
23
22
17
19
19
16
16
18
24
22
20
19
21
19
21
23
18
14
11
8
6
-4
-3
8
27
39
52
78
106
134
153
166
149
137
118
114
97
66
33
-18
-39
-41
-33
-18
-1
8
14
18
15
13
12
16
8
18
11
7
17
14
8
12
16
20
11
21
19
17
17
13
12
12
10
16
14
19
17
16
19
19
12
7
20
17
13
18
23
22
21
22
21
17
19
20
20
21
22
20
18
26
22
25
29
25
19
23
27
24
25
30
26
27
23
37
34
30
36
34
33
32
34
32
43
40
41
45
49
49
48
48
57
53
58
59
53
54
49
63
64
65
66
64
71
59
57
65
64
58
57
54
61
54
56
50
47
49
48
43
42
33
43
39
37
37
32
34
37
32
27
29
25
23
28
24
25
25
23
24
26
20
19
24
22
26
22
21
19
27
22
23
23
24
21
17
24
21
23
15
23
19
7
19
23
20
15
21
21
20
26
19
24
21
23
23
19
17
27
20
22
18
24
18
21
22
30
24
19
15
22
20
26
18
26
17
16
26
21
23
19
19
21
18
17
16
19
21
16
23
21
20
26
27
18
16
19
17
23
19
24
21
15
15
20
14
20
23
19
23
24
20
17
18
27
19
23
25
22
24
22
24
23
30
29
28
32
26
26
25
29
28
28
23
19
15
14
20
15
12
10
18
16
17
18
17
18
12
14
14
13
5
14
17
14
15
15
18
12
5
15
8
9
12
13
11
10
9
3
-6
-2
-5
2
12
27
45
77
105
126
152
164
144
131
113
109
93
62
18
-31
-45
-41
-28
-13
-4
-10
5
2
7
9
8
11
2
5
7
4
7
12
1
2
4
8
8
11
10
9
11
11
13
9
12
9
6
13
6
7
1
7
5
4
13
15
10
12
15
13
18
13
9
16
17
15
13
19
15
14
12
14
15
11
12
12
17
18
24
23
19
23
20
19
16
20
21
23
19
25
30
27
29
29
33
39
40
36
40
41
48
49
48
45
46
50
47
52
55
60
46
45
49
61
65
56
51
55
56
53
54
49
48
53
45
42
35
44
40
42
40
37
37
35
22
30
28
19
35
28
28
24
19
22
21
17
18
21
15
16
16
13
25
20
12
10
13
17
16
11
20
20
14
13
15
22
20
19
18
17
20
20
18
18
17
17
19
25
15
11
19
22
15
22
25
20
18
20
20
20
19
19
13
21
21
13
12
18
19
24
21
19
17
23
20
25
21
21
21
27
24
17
14
19
23
15
13
11
16
23
16
16
18
18
20
19
18
24
16
18
23
23
15
13
20
24
27
24
23
25
27
23
29
23
29
29
31
32
31
29
28
26
20
28
21
21
16
16
17
21
18
14
16
12
18
15
13
9
15
17
10
13
16
14
14
13
13
14
12
20
15
11
13
14
6
9
8
6
9
0
2
-7
-3
3
9
21
42
84
108
135
154
165
161
143
116
111
94
64
29
-11
-37
-43
-19
-8
-5
1
5
4
11
4
1
8
8
8
3
6
6
1
6
9
3
2
14
7
5
6
10
4
6
5
6
8
12
7
5
13
11
8
12
13
5
7
12
5
5
6
7
11
16
14
8
13
16
12
8
11
10
5
10
17
11
14
10
8
14
17
16
22
23
17
21
18
19
22
23
23
20
17
20
40
32
27
37
37
36
35
42
43
42
45
44
51
54
46
49
51
54
53
57
57
56
49
54
54
55
49
47
39
48
44
41
44
42
31
33
39
23
30
20
32
30
27
25
19
18
16
13
17
21
24
15
16
13
14
14
15
15
17
17
13
11
17
16
12
15
14
7
15
14
10
10
11
12
13
12
11
13
11
9
19
8
13
12
9
14
13
13
16
15
7
14
11
13
9
14
13
15
10
10
17
13
13
10
12
16
18
18
8
15
17
9
10
9
8
21
18
12
14
7
16
9
11
13
6
12
11
10
12
15
10
14
12
11
11
16
15
17
14
13
12
14
17
13
9
9
9
7
21
30
23
30
28
23
25
30
32
26
23
23
21
23
19
15
13
12
7
14
18
13
10
8
14
7
7
7
9
8
15
9
8
5
9
6
6
8
6
4
11
7
5
7
6
10
6
12
0
-7
-8
-9
-9
-5
-2
11
25
52
72
102
134
148
165
162
146
116
110
93
60
33
-7
-33
-45
-19
-7
-7
-1
4
1
3
6
0
0
3
-1
-1
-1
1
-2
3
-6
-2
-1
-4
0
-5
0
-2
3
4
7
-7
4
-4
-2
4
0
-1
2
5
10
-1
2
-1
-2
6
7
5
6
2
7
1
4
1
3
7
10
0
6
4
7
6
9
3
12
6
9
11
9
12
11
10
9
15
17
11
17
16
20
24
22
26
30
25
30
30
31
31
36
41
38
40
43
45
41
44
40
40
45
48
53
45
46
47
51
48
45
43
43
40
37
37
31
33
34
32
34
28
24
24
21
13
23
23
8
19
20
13
12
14
15
9
11
10
3
10
11
4
13
12
10
7
8
7
8
11
10
9
7
7
4
6
14
11
5
16
9
7
6
11
3
4
17
7
1
3
2
11
16
13
13
10
9
8
7
11
8
8
12
10
11
8
9
14
5
9
7
10
13
7
5
11
13
10
5
14
11
17
17
3
6
2
8
12
9
12
7
8
16
13
7
7
8
12
9
9
14
9
15
7
1
7
8
10
12
9
18
11
16
16
13
14
11
8
15
15
15
19
20
23
23
21
27
23
26
20
20
18
24
25
22
22
17
11
8
11
4
9
8
8
6
7
3
3
4
6
7
8
8
8
4
14
12
0
8
6
0
6
12
8
11
17
12
6
7
5
0
-4
-11
-14
-10
2
12
27
55
85
114
137
160
164
159
140
110
101
92
60
24
-14
-39
-38
-22
-11
3
-1
8
5
5
7
3
4
3
2
0
-5
2
3
2
7
1
0
3
7
1
-2
6
7
9
11
7
-2
10
7
6
-3
3
11
13
11
8
0
7
6
3
7
10
10
10
12
11
7
12
3
0
8
9
13
15
11
7
12
12
15
11
14
15
13
5
12
16
18
17
18
20
22
20
27
23
36
31
32
37
30
28
43
38
36
43
47
51
47
50
50
48
49
51
53
54
56
56
51
56
54
52
52
52
50
47
49
45
40
40
40
32
29
40
35
26
24
28
30
26
26
29
26
22
21
19
20
22
17
20
17
18
19
20
23
7
21
10
10
14
22
17
17
17
17
19
21
19
18
17
10
9
15
17
18
20
26
16
16
14
19
13
17
19
15
20
18
14
17
19
18
14
17
14
19
26
19
16
19
18
21
20
22
18
15
23
28
25
24
10
14
14
20
22
13
16
17
18
21
24
19
17
17
17
16
24
23
18
19
19
22
18
18
23
20
20
19
17
21
18
16
18
17
16
18
17
22
20
23
22
11
27
22
19
21
18
14
23
21
9
20
21
20
22
18
21
18
20
19
22
20
24
26
19
22
22
17
22
25
27
25
27
25
26
29
34
33
29
32
29
34
37
33
28
34
29
18
24
17
23
21
22
16
17
16
21
13
15
14
17
22
19
20
18
19
15
21
19
16
17
19
20
18
20
22
21
14
16
14
13
12
9
4
2
2
8
11
28
42
67
99
144
162
170
188
165
135
128
112
86
53
17
-20
-28
-10
-4
3
13
10
13
21
16
15
11
17
15
8
9
13
10
11
13
11
12
14
19
15
12
11
6
11
15
11
3
15
24
19
18
16
15
15
18
16
11
21
16
13
17
19
15
15
14
15
20
23
20
20
21
23
21
19
18
21
21
23
17
19
15
13
23
20
27
29
22
34
28
24
26
28
32
38
33
38
40
42
37
40
45
51
47
56
52
55
56
57
53
57
61
60
64
66
65
63
66
65
61
64
62
62
56
59
61
56
52
57
56
50
44
47
45
42
39
41
45
41
36
32
29
34
27
30
32
29
28
23
12
23
20
25
23
32
28
24
28
25
25
24
28
20
19
23
19
22
27
32
30
25
25
18
18
22
25
26
29
19
19
27
27
24
28
27
23
20
24
18
19
29
26
26
23
27
25
24
27
25
26
27
21
27
31
24
18
27
30
25
24
22
29
23
24
31
23
20
24
21
18
19
25
22
25
31
30
27
21
30
23
26
25
22
23
16
20
21
32
25
21
24
28
27
26
29
22
23
27
21
21
27
19
18
23
25
19
22
29
22
30
19
20
25
26
26
24
24
27
25
16
20
23
18
26
23
20
21
29
27
29
24
24
23
26
22
23
22
27
21
17
17
30
22
22
23
18
28
21
19
21
23
20
23
21
25
24
27
28
20
23
27
18
25
28
28
25
27
30
32
30
32
29
36
35
29
34
38
34
33
38
34
34
34
35
28
26
24
24
21
24
20
20
24
19
22
20
18
24
23
24
22
26
16
22
21
21
19
20
19
20
13
15
20
21
14
20
23
19
22
18
12
11
9
-9
-4
8
22
29
47
77
108
139
159
177
182
160
132
120
114
83
52
7
-27
-30
-15
-2
6
8
16
14
13
12
17
15
14
13
8
10
14
15
13
8
14
18
14
17
14
11
14
10
9
6
17
15
10
19
21
19
13
11
16
18
18
15
17
20
13
17
20
16
16
20
23
15
15
25
26
22
19
24
17
22
19
19
22
17
28
22
30
32
29
26
24
25
27
28
28
31
37
28
31
32
32
38
35
35
47
50
53
43
50
55
54
59
58
61
62
59
64
67
59
58
63
63
68
63
59
64
65
65
62
65
59
59
55
53
50
50
53
53
47
48
45
44
33
34
28
46
46
36
33
32
30
25
32
26
24
27
26
26
27
26
26
32
28
26
26
24
28
25
23
22
25
30
24
17
15
25
24
23
21
29
32
28
27
22
21
21
23
23
23
23
23
22
26
29
27
26
25
24
19
23
17
21
31
30
25
27
30
24
31
29
32
26
30
32
29
22
23
22
28
28
29
26
32
21
23
31
28
27
23
31
20
21
27
24
27
33
24
28
23
24
25
24
30
25
27
26
27
22
28
30
24
30
22
21
24
27
25
22
27
24
27
26
28
20
24
24
27
24
27
28
23
21
24
23
25
27
27
26
28
27
27
22
31
25
24
27
23
28
27
27
27
30
28
22
25
33
30
33
40
35
34
35
31
39
40
37
36
36
43
37
38
45
41
32
35
36
22
25
27
25
24
23
21
21
27
25
27
18
25
28
21
29
20
25
22
23
20
23
25
18
21
26
21
23
23
28
27
20
21
20
22
18
13
11
2
10
10
24
48
58
91
130
149
166
168
139
129
116
108
86
56
8
-21
-36
-33
-18
-3
4
11
13
18
25
17
16
22
18
13
16
14
17
20
23
17
18
21
18
7
11
17
25
21
22
18
18
15
20
19
25
28
16
14
25
16
27
30
24
21
22
15
20
24
26
22
19
25
24
20
23
27
24
25
27
24
23
19
25
30
27
33
26
35
32
33
32
34
28
31
34
39
39
37
42
42
41
44
42
45
49
55
56
50
55
54
59
60
56
57
65
68
64
70
66
62
62
67
63
60
63
60
60
72
66
63
61
59
48
54
53
49
45
43
47
38
40
38
33
33
37
31
32
38
34
36
32
28
30
26
25
27
31
37
29
32
33
26
28
27
23
20
27
32
32
24
26
22
25
27
29
26
21
24
26
27
30
22
25
29
28
20
28
30
21
22
30
34
27
29
31
25
28
31
27
22
25
30
27
26
30
30
29
28
20
24
31
23
24
32
27
28
25
27
23
19
32
32
19
24
33
26
25
28
25
28
22
24
20
25
29
24
25
25
28
22
23
21
25
23
19
24
27
24
24
21
20
15
24
23
23
24
26
27
25
20
17
21
23
20
20
15
33
27
25
22
27
23
24
21
22
24
29
25
28
24
26
25
23
26
26
24
27
32
31
40
34
29
27
34
33
32
32
34
30
36
36
25
19
24
24
25
24
20
20
20
15
22
20
17
13
19
24
17
21
22
19
13
18
18
14
17
16
7
22
22
21
18
21
20
15
15
18
14
12
11
-4
1
8
12
16
33
57
91
120
137
152
157
135
117
105
104
77
40
-1
-28
-36
-39
-20
-7
0
7
6
12
18
8
13
12
14
8
9
10
14
10
14
8
11
14
11
13
13
14
16
9
10
11
9
8
9
7
13
17
15
9
12
16
12
10
15
13
14
15
18
16
13
16
10
10
18
16
19
17
18
23
16
20
8
8
17
25
24
22
20
22
24
15
19
15
19
24
28
33
28
27
28
34
31
35
35
36
38
43
46
44
48
46
50
50
45
54
57
61
57
58
57
55
55
55
58
54
55
57
57
49
52
48
48
47
46
40
40
38
33
39
34
38
29
25
24
27
30
25
21
23
23
20
21
20
22
22
15
20
22
17
16
13
13
15
15
14
18
16
16
15
17
17
15
13
18
14
15
17
20
11
19
15
14
17
13
16
20
17
9
15
19
15
15
15
15
19
16
9
19
13
15
15
9
21
13
21
14
14
15
12
23
9
13
17
15
18
20
17
16
17
16
16
7
11
19
15
15
18
15
16
14
11
9
14
12
13
17
16
13
14
14
14
8
14
7
5
12
21
13
11
14
10
10
11
10
15
12
15
11
15
13
12
13
14
8
11
17
14
11
11
9
8
15
13
9
17
13
12
8
13
9
12
12
12
12
12
15
10
11
15
16
17
21
16
11
18
23
16
22
29
22
27
26
21
18
23
26
28
26
22
20
17
18
12
9
11
13
9
8
11
10
7
7
8
9
7
6
5
8
8
3
2
6
6
12
11
10
3
2
9
7
13
8
11
1
1
6
-2
-8
-16
-6
8
25
35
66
99
128
150
158
164
135
109
106
85
62
36
-7
-36
-34
-19
-16
-4
1
0
5
4
2
3
3
1
-3
-5
-4
-4
-3
-4
1
4
9
0
2
0
-2
-1
-1
-2
1
2
3
-4
0
-1
-2
2
1
5
7
-2
5
5
3
3
0
0
0
4
7
4
0
4
5
7
11
4
5
2
2
1
2
0
6
9
14
12
8
14
7
10
9
7
9
12
16
15
15
17
18
22
19
22
23
27
30
29
33
35
32
29
37
33
43
43
45
37
48
54
48
51
48
44
45
44
41
51
48
47
37
35
40
39
41
42
37
27
27
25
30
26
21
17
19
21
19
16
12
12
10
11
11
10
10
11
10
9
10
7
8
8
7
8
4
3
8
5
6
14
6
12
7
4
0
6
1
4
1
6
2
9
4
6
7
7
7
6
8
11
5
7
7
0
8
10
4
5
8
8
7
9
10
6
11
12
0
8
10
4
3
4
8
8
9
10
3
6
5
15
13
6
7
6
7
8
5
3
11
2
2
11
6
7
6
6
7
6
5
-1
0
10
7
5
7
7
6
7
5
5
5
4
7
-2
6
5
7
8
6
10
2
5
3
5
7
3
13
14
7
4
3
4
6
9
8
2
0
6
5
8
5
6
-1
-1
14
5
4
8
8
3
6
7
6
7
9
8
7
10
8
7
8
8
6
9
13
4
10
14
10
10
12
19
22
15
19
18
16
19
16
17
22
17
14
13
9
12
7
8
11
3
5
6
8
6
6
-1
4
1
2
-3
0
-4
1
0
5
4
4
7
3
5
9
6
6
7
5
3
3
-3
-8
-24
-15
-21
-10
2
12
36
57
91
118
144
149
169
153
136
108
96
83
49
10
-30
-44
-34
-21
-4
0
-1
-2
3
0
4
0
-5
-5
-5
-2
-4
-3
0
-2
-3
-3
-4
-10
-3
3
0
-2
1
0
-1
-2
-4
-4
-1
1
0
0
3
3
0
6
2
-1
-1
2
-6
2
13
10
4
-1
-1
4
10
14
10
9
5
7
12
9
7
8
8
6
12
11
11
12
14
12
15
13
14
8
15
17
15
15
21
17
21
26
31
28
30
33
31
35
47
42
41
41
47
44
40
46
54
52
50
50
46
48
53
52
53
56
53
46
45
51
40
44
40
33
36
31
40
32
30
28
25
23
25
20
21
16
10
18
15
21
16
17
14
19
19
22
14
12
13
12
7
12
11
12
24
15
9
11
13
15
11
11
15
14
17
7
4
12
9
16
15
15
11
15
13
13
11
15
13
12
9
5
12
13
13
16
16
18
15
10
10
16
13
16
16
16
13
15
13
10
13
18
16
11
13
16
18
17
16
8
15
8
12
15
17
21
16
15
11
9
12
20
16
15
16
8
22
18
14
14
12
16
10
14
16
22
11
11
13
9
9
16
13
12
16
10
10
16
15
13
10
11
4
13
15
14
14
15
14
11
14
13
6
11
16
17
11
11
11
13
19
13
16
15
17
9
14
14
12
13
11
15
11
14
16
10
17
15
17
10
13
17
9
12
14
10
11
21
17
18
25
18
22
15
21
20
25
26
20
23
29
27
29
25
25
29
32
30
27
24
27
22
18
12
5
19
17
13
13
11
14
17
12
10
11
13
16
13
13
11
12
10
9
13
15
16
16
12
6
13
14
9
11
15
9
1
7
-3
-17
-4
-3
23
30
52
86
119
146
168
171
170
146
111
114
93
67
33
-9
-34
-34
-12
-2
-3
3
12
6
6
7
5
6
7
10
4
4
7
7
8
6
5
0
3
6
9
5
12
10
8
11
6
-2
-2
12
5
7
20
10
11
12
10
3
6
5
11
8
5
5
16
11
11
8
14
17
11
14
15
12
9
12
13
15
16
18
15
16
20
19
19
19
11
16
20
24
18
27
31
21
20
30
26
33
33
32
33
39
39
36
34
43
40
47
50
55
50
61
68
55
58
59
56
53
55
57
62
61
60
57
57
51
52
52
53
45
50
46
42
40
43
40
36
30
32
27
29
27
29
23
19
26
25
22
20
18
20
23
17
17
21
20
15
21
17
18
21
19
20
17
17
18
16
17
11
13
25
21
19
18
23
14
16
14
22
19
17
21
22
19
22
18
14
16
25
22
20
22
17
14
23
15
19
24
20
22
24
24
20
19
18
17
21
24
19
17
17
22
24
16
18
18
17
26
21
19
26
22
13
16
16
24
19
18
21
27
20
24
22
21
16
18
18
19
19
17
23
21
20
20
22
18
17
22
13
20
23
20
19
22
22
18
18
13
12
21
23
22
19
23
21
7
22
24
18
24
17
21
19
22
16
13
16
16
15
17
20
24
23
27
19
20
22
21
19
23
22
19
16
19
17
20
20
19
19
22
29
21
22
19
24
23
28
26
24
29
35
35
28
34
33
27
34
32
35
34
33
32
32
25
17
13
23
25
18
18
23
15
15
22
13
12
13
16
18
21
20
19
17
13
16
16
22
19
18
12
14
19
20
18
14
16
16
12
8
2
-2
-5
10
14
32
55
82
112
140
170
179
163
144
119
110
90
56
29
-18
-39
-32
-16
-7
0
2
10
10
8
7
22
13
5
7
8
8
10
5
10
14
11
10
7
11
14
7
7
10
12
13
12
7
7
18
16
11
11
14
14
11
10
11
12
21
13
14
16
14
11
14
16
16
11
12
11
17
23
16
12
18
16
20
19
18
18
19
24
22
21
22
23
21
21
25
25
28
31
35
33
25
34
32
43
40
39
39
41
42
49
50
43
57
53
58
55
55
62
61
62
62
62
59
56
58
63
63
64
63
54
60
57
52
49
53
52
46
42
41
42
40
38
34
37
34
32
26
29
32
30
28
25
27
25
24
17
17
23
19
21
20
19
24
23
23
14
16
18
20
22
28
19
17
20
20
16
15
18
15
9
14
16
16
19
18
19
22
21
16
15
26
20
17
21
16
18
22
19
17
18
22
19
15
20
19
13
19
18
18
16
13
22
16
17
22
17
22
16
13
22
21
15
15
18
19
15
15
16
18
21
24
19
16
20
22
18
20
17
14
20
20
24
18
18
10
16
18
24
16
18
21
17
16
20
15
8
19
15
14
16
18
18
13
12
15
12
13
24
16
12
15
18
17
23
17
17
19
17
24
22
21
15
20
22
20
24
21
29
26
25
27
28
30
29
27
30
30
29
31
27
29
20
15
13
11
10
14
11
13
17
17
18
10
12
11
7
14
12
12
12
12
13
17
5
10
15
8
5
8
18
15
10
10
9
8
5
6
1
-4
2
11
17
38
60
85
117
142
146
146
126
115
97
89
66
32
-2
-40
-44
-37
-29
-13
-7
4
10
5
9
6
9
9
6
4
-3
4
10
4
8
6
7
6
11
13
5
3
-1
7
9
6
4
6
12
10
9
6
9
4
5
10
5
12
10
13
6
9
6
6
8
7
9
12
18
12
10
9
6
11
20
19
15
7
5
16
15
12
16
14
10
16
23
20
22
26
25
24
25
20
27
30
24
33
35
32
30
35
34
39
37
41
43
46
40
55
49
51
52
50
50
51
48
55
55
52
51
47
49
45
41
45
46
49
39
32
41
36
33
35
36
30
29
26
23
25
22
22
24
25
25
17
17
17
14
16
18
14
13
11
16
11
16
13
13
12
17
8
9
15
14
8
13
12
7
12
10
10
7
8
17
9
10
4
7
11
19
12
13
20
20
13
3
12
10
14
10
15
9
12
16
7
12
17
20
14
17
14
6
9
14
13
11
12
9
7
15
13
9
11
20
14
11
12
8
7
11
6
12
15
8
6
14
11
10
11
8
8
9
15
11
5
12
3
10
12
6
3
8
1
4
14
14
7
4
8
3
3
7
15
13
12
16
14
14
15
16
10
9
15
17
15
23
20
24
21
21
16
12
18
24
25
21
12
15
15
6
10
9
6
10
6
4
7
2
10
6
1
6
5
5
7
9
3
1
6
1
4
2
5
3
3
8
4
6
8
4
1
1
-4
-12
-13
-10
-6
0
18
32
54
94
108
135
147
143
115
95
91
79
49
19
-26
-53
-50
-39
-28
-19
-8
-2
-5
4
1
-2
2
0
-2
-4
-6
-4
-4
2
0
-4
-2
-5
2
-2
-2
-5
-2
1
1
-2
-1
5
-4
1
-1
-1
-3
-2
-2
0
1
0
-5
3
0
1
0
-2
4
-1
-5
3
9
4
7
2
-1
4
3
2
5
1
4
3
6
4
10
12
11
14
13
10
10
10
12
10
7
14
16
22
23
25
25
29
25
27
31
32
34
35
36
39
44
45
45
47
46
45
42
41
45
52
48
45
44
43
40
46
40
44
35
30
26
36
34
29
25
21
25
16
23
18
7
22
20
13
15
16
14
10
14
10
10
6
1
2
5
7
6
7
11
1
6
8
3
3
5
6
6
5
3
0
1
9
2
4
1
2
3
4
4
1
0
2
7
10
5
2
5
10
11
6
9
5
-3
2
4
4
6
2
15
14
3
2
5
0
8
10
4
9
7
5
8
1
3
3
8
10
5
4
2
6
3
6
4
5
5
3
1
8
5
5
11
4
-2
4
6
4
3
3
5
1
3
9
3
5
2
-9
5
6
7
7
3
10
1
-3
9
6
9
2
6
10
11
5
12
17
13
14
12
14
19
12
15
14
12
13
17
13
8
9
1
4
-1
-3
-1
5
-1
-3
4
3
1
1
-1
-2
-3
-3
3
-1
-3
-3
0
-2
-5
-5
-1
1
-1
-7
1
0
-6
-1
-3
-12
-17
-25
-21
-10
2
13
28
56
89
117
136
151
151
134
111
104
89
56
26
-17
-48
-53
-39
-23
-18
-10
-6
-12
-6
-7
-10
-8
-11
-13
-9
-5
-10
-6
-13
-13
-7
-7
-9
-7
-8
-8
-16
-12
-5
-8
0
-6
-8
1
-2
-6
-6
-2
-6
-9
-7
-2
-4
-2
1
-8
-10
-3
-7
-7
-8
-9
-5
-4
-2
3
-4
-1
-5
-1
-2
0
-3
-6
-1
0
-1
6
-1
-1
-3
0
0
7
8
7
12
9
6
12
14
17
16
18
19
23
21
24
29
25
25
25
33
34
37
33
42
40
40
42
40
45
43
40
42
39
38
35
32
26
32
32
29
30
27
19
18
19
16
15
12
13
12
17
15
12
18
3
3
5
6
3
7
3
-1
0
3
0
-3
-3
3
-1
-3
-2
-6
-3
3
