-29
-18
-22
-24
-23
-19
-14
-1
-15
-24
-21
-16
-17
-41
-41
-34
-14
-7
-22
-19
-19
-14
-21
-19
-15
-17
-23
-25
-33
-23
-23
-20
-22
-26
-17
-20
-21
-20
-7
-8
-15
-15
-24
-33
-40
-25
-35
-29
-16
-9
-8
-15
-41
-27
-39
-32
-9
-22
-29
-27
-26
-15
-11
-10
-18
-28
-28
-29
-20
-17
-26
-40
-27
-33
-22
-20
-1
-9
-10
-23
-27
-34
-32
-37
-29
-12
-15
-24
-20
-22
-43
-35
-20
-17
-37
-33
-43
-31
-2
-2
-11
-22
-19
-23
-20
-19
-11
-26
-33
-10
-16
-30
-8
8
5
-11
-17
-31
-25
-28
-26
-28
-11
-25
-20
-3
-24
-25
-28
-23
-22
-30
-26
-36
-26
-17
-15
-31
-41
-53
-31
-14
-19
-28
-30
-16
-16
-17
-21
-33
-17
-24
-33
-32
-29
-12
-9
-22
-33
-26
-21
-15
-20
-29
-22
-17
-15
3
24
21
14
44
77
97
111
110
124
125
79
64
56
45
19
19
0
-13
-19
-27
-18
-4
-15
-19
-12
-6
-5
-13
-14
-17
-10
-10
-19
-21
-27
-18
-24
-12
-18
-26
-28
-21
-18
-41
-33
5
-3
-24
-28
-25
-21
-2
-12
-15
-11
0
-13
-19
-17
-1
-6
-12
-26
-18
-2
-14
-11
-20
-2
-3
-8
-8
-27
-27
-27
-9
-10
-15
0
1
1
-18
-23
-9
0
-6
-1
-2
3
2
1
5
7
18
6
-5
6
13
-7
3
5
7
7
15
19
4
0
21
26
18
10
17
16
10
11
16
23
23
22
17
25
35
27
21
22
30
28
42
38
18
9
17
43
42
24
23
16
21
9
3
0
4
5
2
-5
0
6
8
-2
-12
-17
-4
-8
-22
-21
-20
-13
-11
-15
-32
8
-9
-13
-6
-18
-15
-6
-14
-30
1
-10
-38
-31
-25
-12
-29
-7
5
-16
-26
-11
-9
-17
-26
-17
-16
-14
-28
-15
-20
-23
-21
-20
-23
-16
-6
-13
-29
-20
-20
-17
-7
4
12
-13
-39
-23
-10
-7
-14
-20
-26
-15
-15
-12
-9
-5
-24
-30
-28
-11
-4
-1
1
-2
-23
-24
-13
-5
-11
-20
-18
-16
-25
-16
-18
6
11
10
-5
-18
-10
-10
1
-10
-18
-15
-16
-12
7
-2
-19
-24
-9
-3
-9
-7
-23
-10
7
-9
-20
-4
5
-6
-3
7
-12
-12
-18
-8
-13
-3
-29
-37
-3
14
5
-3
-2
7
8
-8
-24
-19
-15
-8
-9
0
6
3
4
-4
-7
-12
2
3
-3
-3
-6
23
9
-11
-3
-8
8
-7
-5
-4
8
6
-3
-4
-3
4
11
5
-6
1
10
7
7
13
7
3
18
18
1
-4
-13
4
8
0
3
6
-12
3
12
9
10
6
-11
-7
-7
-15
-8
-3
2
10
22
8
8
-1
-19
-7
-4
8
24
19
8
-10
6
9
-19
-12
11
35
13
1
0
-8
-7
10
20
25
43
65
65
79
96
105
117
128
129
111
85
79
70
57
46
34
14
12
6
8
-17
-33
9
29
22
20
23
15
-1
5
14
12
4
6
7
11
12
3
1
8
15
11
-7
2
12
5
-8
2
8
12
4
9
9
18
8
-7
-4
22
16
14
20
11
7
7
28
23
5
-2
8
17
4
8
24
18
12
17
26
12
27
21
17
9
18
14
21
29
20
15
11
21
16
31
40
34
19
28
28
20
29
30
26
25
15
28
41
37
45
42
43
41
41
41
39
41
43
49
48
38
34
36
50
47
42
41
41
41
59
73
51
49
38
56
52
47
51
25
28
49
39
31
28
27
31
32
20
10
12
24
21
21
6
-4
-7
-7
-9
-16
-6
-2
-11
1
-8
-11
0
-12
-21
-13
-5
-15
-18
-3
-8
-11
-5
-12
-20
-15
-17
-23
-11
-14
-7
-13
-11
1
-9
-22
-29
-22
-19
-1
-9
-9
-15
-14
-24
-16
-15
-9
-21
-25
-36
-22
-11
5
1
-3
-6
-6
9
6
-15
-19
-20
-27
-32
-19
-13
-18
-9
1
3
5
11
-11
-42
-34
-20
-15
-12
-14
-11
-10
-10
-17
-14
-22
-47
-37
-19
-1
2
-2
-17
-21
-20
-8
1
-20
-21
-18
-23
-17
-13
-21
-11
-19
-27
-16
-22
-15
-15
-12
-6
-13
-19
-15
-9
-12
-22
-24
-31
-37
-36
-25
-1
-2
-8
-11
-25
-15
-10
-18
-22
-20
-12
-18
-20
-25
-24
-17
-15
-17
-15
-26
-5
-10
-23
-17
-11
-26
-19
-27
-11
-19
-23
-27
-10
-28
-16
-25
-25
-13
-10
-10
-18
-12
-10
-5
-9
-21
-15
-15
-6
-8
0
-4
-10
-18
-4
-6
-17
-10
-12
-22
-27
-29
-27
-40
-30
-1
-5
-20
-18
-21
-21
-15
-14
-43
-28
-18
-11
-10
-17
-20
-13
-4
-16
-23
-18
-18
-20
-14
-25
-25
-23
-28
-24
-28
-26
-32
-31
-27
-25
-22
-6
-8
-17
-11
-5
-6
6
36
36
57
89
93
98
117
114
99
87
79
60
49
36
11
3
-2
-6
-6
-13
-4
9
12
-15
-17
-11
-3
-12
-19
-40
-26
-12
-20
-36
-24
-5
-10
-15
-2
-6
-22
-15
-13
-15
-15
-17
-4
-20
-12
-5
-3
-37
-30
-17
-15
-13
-5
-7
-8
-14
-20
-20
-20
-13
-14
-5
-2
-2
7
4
-7
-20
-28
-20
-6
-17
-3
-1
13
11
-13
-16
4
1
0
-6
2
4
7
-9
-21
-15
9
13
8
14
8
4
5
7
2
0
15
16
12
18
21
12
14
3
-1
21
37
18
16
19
27
21
38
34
23
10
10
17
30
45
47
39
38
26
5
-7
15
16
7
18
13
2
3
2
-6
-6
-4
-15
-17
-2
-4
-12
-22
-8
-13
-15
-7
-15
-18
-16
-22
-18
-15
-37
-51
-27
-12
-10
-19
-22
-29
-34
-28
-33
-19
-26
-26
-29
-33
-30
-36
-16
-28
-35
-31
-20
-20
-26
-14
-28
-13
-8
-17
-32
-30
-13
-19
-33
-27
-23
-38
-25
-21
-18
-18
-20
-22
-33
-25
-19
-25
-36
-32
-13
-25
-27
-21
-15
-11
-22
-23
-9
-7
-24
-27
-34
-19
-14
-16
-9
-8
-16
-21
-20
-24
-21
-23
-23
-26
-31
-26
-20
-11
-22
-18
-26
-21
-20
-16
-19
-32
-13
-12
-12
-22
-21
-18
-15
-24
-9
-24
-22
-17
-25
-24
-10
-16
-21
-27
-22
-21
-15
-14
-20
-30
-29
-17
-22
-29
-24
-19
-19
-2
-11
-15
-22
-20
-14
-14
-17
-33
-28
-19
-14
-11
-4
-2
-2
-2
-9
-11
-18
-37
-33
-35
-35
-27
-23
-7
-7
-17
-22
-25
-28
-30
-21
-21
-25
-11
-6
-8
-5
-1
-17
-26
-30
-20
-19
-11
-1
-15
-7
6
-15
-19
-19
-21
-3
-5
-7
1
-15
-10
-24
-15
-10
-18
-16
-8
-14
-12
-10
-9
-10
3
-9
-28
-21
-10
-16
-16
-33
-24
-18
-14
-23
-36
-33
-14
-17
-23
-22
-24
-34
-33
-36
-47
-19
-4
-13
-10
-8
-22
-33
-26
-30
-43
-27
-26
-27
-24
-9
-10
-20
-16
-17
-33
-30
-9
2
25
18
16
37
58
70
78
93
118
109
91
85
85
69
62
31
20
1
0
-4
-13
-8
-20
-24
0
-11
-21
-29
-39
-31
-14
7
-26
-44
-35
-34
-37
-16
-15
-31
-28
-36
-22
-29
-23
-19
-19
-27
-25
-25
-30
-27
-30
-35
-22
-12
-19
-27
-32
-44
-15
-14
-15
-30
-50
-31
-29
-28
-8
-6
-20
-26
-25
-27
-34
-36
-32
-23
-15
-32
-30
-4
-16
-24
-11
-24
-19
-24
-26
-27
-17
-14
-4
-17
-18
-25
-10
-5
-5
-3
-10
-15
-19
-4
-13
-2
-1
-3
-4
-11
-18
-2
7
4
4
3
0
14
7
14
15
17
12
8
4
0
2
15
12
4
4
7
4
3
13
7
-10
-8
4
0
-2
-1
-10
-17
-21
-14
-14
-22
-20
-18
-14
-39
-26
-19
-28
-36
-28
-28
-33
-23
-24
-35
-38
-39
-36
-38
-40
-39
-36
-38
-32
-22
-52
-48
-28
-50
-67
-39
-25
-25
-37
-39
-38
-32
-37
-35
-35
-39
-36
-36
-48
-59
-47
-36
-36
-35
-21
-36
-44
-38
-33
-34
-55
-32
-37
-41
-48
-43
-44
-37
-37
-37
-38
-50
-40
-43
-35
-42
-47
-45
-36
-9
-24
-33
-35
-38
-34
-38
-39
-23
-30
-49
-45
-40
-47
-50
-47
-59
-50
-43
-31
-23
-23
-34
-37
-30
-10
-23
-46
-48
-34
-36
-48
-35
-41
-35
-33
-49
-41
-34
-40
-53
-52
-44
-34
-36
-33
-34
-35
-36
-33
-34
-38
-42
-47
-35
-20
-33
-35
-32
-42
-48
-45
-42
-31
-25
-32
-44
-23
-21
-23
-46
-32
-34
-46
-48
-36
-30
-34
-37
-38
-30
-36
-34
-42
-31
-27
-33
-25
-15
-30
-30
-40
-48
-51
-22
-27
-35
-45
-30
-29
-29
-25
-17
-22
-37
-19
-40
-34
-26
-11
-11
-5
-22
-32
-26
-22
-25
-13
-11
-27
-32
-25
-26
-34
-25
-24
-15
-17
-9
-16
-33
-31
-33
-36
-35
-32
-35
-35
-31
-30
-32
-33
-31
-30
-26
-30
-29
-27
-25
-24
-16
-10
-19
-34
-33
-51
-54
-52
-59
-33
-32
-14
-18
-22
-24
-17
-27
-10
-17
-43
-13
-5
-6
12
27
34
25
55
103
116
106
73
83
76
71
61
44
42
22
-8
-19
-8
-19
-18
-2
-4
-15
-17
-16
-26
-22
-18
-20
-17
-24
-17
-11
-22
-21
-28
-31
-20
-1
-15
-37
-18
0
-2
-12
-24
-10
-10
-25
-23
-13
-12
-3
-2
-25
-32
-2
4
-17
-7
-4
-11
-15
-12
-11
-20
-11
-9
-9
-8
-14
-13
-8
4
1
-24
-14
9
-14
-9
-16
4
15
-1
-7
1
4
-2
4
8
-8
-3
18
9
-2
13
19
15
-2
2
12
11
14
15
14
16
23
14
23
21
35
19
6
18
15
17
34
30
31
28
38
39
38
37
12
8
20
44
48
39
42
39
35
20
15
15
41
32
17
15
11
-2
0
8
7
-9
4
0
-9
0
-6
0
-16
-25
-10
-10
-10
-16
-13
-10
-12
-18
-10
-3
-31
-29
-35
-30
-19
-9
-9
-8
-1
-11
-15
-23
-26
-30
-20
-21
-30
-27
-30
-25
-38
-15
-6
-16
-24
-35
-34
-12
-4
-4
-30
-33
-29
-10
-6
-10
-26
-19
-24
-14
-21
-11
-12
-10
-4
-10
-15
-24
-27
-14
-17
-24
-21
-23
-12
-16
-16
-24
-22
-21
-24
-25
-11
-14
-24
-31
-22
-8
-19
-30
-30
-13
-22
-19
-15
-24
-9
-9
-21
-23
-25
-26
-29
-23
-22
-7
-14
-24
-26
-8
-18
-14
-15
-19
-22
-31
-30
-24
-19
-30
-16
-21
-21
-22
-17
-14
-22
-22
-16
-13
-27
-25
-12
-17
-16
-20
-27
-25
-13
0
-10
-33
-45
-43
-38
-31
-17
-18
1
-12
-6
-4
-16
-15
-11
-11
-18
-14
-17
-26
-27
-25
-15
-22
-24
-24
-13
-21
-33
-37
-30
-22
-16
-19
-29
-25
-18
-13
-20
-32
-45
-33
-23
-30
-36
-25
-19
-31
-26
-20
-18
-29
-30
-27
-22
-32
-27
-18
-18
-25
-23
-31
-16
-12
-8
-10
-14
13
40
45
54
83
90
97
107
110
84
66
55
46
35
16
-4
-25
-23
-30
-14
-15
-24
-33
-22
-21
-20
-11
-14
-21
-15
-20
-13
-21
-27
-18
-24
-14
-12
-7
-9
-5
-17
-38
-29
-25
-29
-24
-16
-25
-32
-24
-9
-11
-5
-19
-27
-26
-16
-30
-14
-18
-22
-25
-40
-17
-13
-16
-27
-23
-16
-14
-11
-8
-18
-20
-20
0
-3
-24
-32
-18
-24
-16
-6
-27
-28
-5
4
-5
2
7
8
2
7
-14
-18
-7
-3
-23
-29
-2
4
15
10
-2
3
10
24
11
15
20
7
6
5
1
19
45
34
11
27
31
2
16
11
20
18
20
22
23
18
17
23
19
18
5
12
21
9
-4
-9
-10
-9
-8
-31
-32
-27
-10
-3
-13
-17
-24
-23
-29
-23
-37
-27
-19
-42
-37
-20
-16
-27
-36
-30
-33
-32
-29
-38
-33
-36
-23
-37
-41
-38
-28
-31
-29
-28
-31
-44
-37
-43
-32
-35
-39
-43
-40
-48
-24
-43
-41
-30
-30
-46
-41
-29
-30
-33
-30
-33
-41
-36
-37
-48
-38
-31
-31
-18
-28
-44
-37
-43
-45
-36
-38
-37
-46
-42
-42
-33
-53
-53
-45
-27
-21
-40
-48
-31
-40
-44
-37
-37
-39
-35
-42
-32
-42
-50
-44
-37
-36
-38
-41
-29
-22
-30
-42
-52
-62
-50
-49
-64
-38
-22
-29
-54
-46
-49
-61
-41
-33
-38
-39
-43
-52
-58
-39
-33
-50
-35
-42
-56
-54
-30
-38
-39
-43
-36
-37
-47
-54
-55
-41
-32
-32
-33
-47
-32
-38
-42
-41
-33
-36
-28
-30
-39
-34
-36
-37
-38
-43
-56
-35
-20
-28
-42
-32
-40
-43
-40
-36
-34
-40
-36
-30
-34
-64
-69
-55
-54
-57
-47
-31
-47
-55
-50
-55
-54
-50
-32
-41
-53
-57
-40
-34
-34
-33
-42
-63
-68
-50
-40
-42
-45
-43
-41
-49
-69
-59
-24
-30
-42
-48
-53
-27
-28
-9
-1
33
45
59
73
92
97
85
76
58
33
20
23
4
1
-17
-28
-34
-39
-40
-39
-32
-25
-42
-45
-38
-33
-40
-45
-42
-55
-41
-41
-52
-58
-40
-34
-47
-60
-69
-21
-29
-56
-45
-36
-48
-33
-47
-39
-37
-37
-39
-41
-46
-50
-20
-33
-44
-46
-42
-50
-58
-49
-44
-51
-25
-27
-46
-33
-30
-33
-27
-33
-42
-31
-32
-29
-28
-40
-29
-45
-32
-27
-34
-35
-36
-33
-26
-28
-38
-33
-35
-40
-15
-17
-16
13
-5
-28
-25
-20
-22
-15
-27
-33
-29
-20
5
-2
-15
-16
-1
-3
-6
-1
8
3
6
8
9
0
11
12
3
-4
4
-4
4
24
5
-8
-8
-3
6
-7
-1
-4
-11
-28
-13
-28
-37
-39
-30
-18
-9
-16
-30
-37
-36
-40
-37
-32
-36
-34
-44
-45
-36
-44
-48
-38
-41
-49
-50
-42
-43
-44
-31
-46
-70
-57
-48
-51
-52
-58
-67
-46
-27
-37
-48
-49
-44
-46
-41
-39
-45
-47
-41
-52
-43
-40
-54
-51
-43
-44
-46
-40
-45
-44
-49
-48
-52
-52
-34
-31
-40
-56
-61
-45
-48
-53
-36
-44
-53
-54
-56
-52
-44
-44
-39
-49
-60
-59
-54
-40
-43
-54
-55
-51
-45
-41
-42
-46
-56
-46
-43
-44
-48
-46
-52
-56
-59
-55
-32
-33
-45
-41
-35
-42
-51
-59
-53
-52
-53
-47
-45
-44
-51
-54
-50
-46
-58
-65
-48
-56
-59
-57
-49
-43
-52
-32
-46
-57
-54
-42
-45
-44
-49
-49
-53
-51
-50
-47
-41
-45
-38
-34
-58
-67
-57
-47
-46
-61
-44
-49
-46
-51
-53
-50
-43
-46
-53
-53
-62
-69
-55
-47
-44
-63
-80
-57
-43
-39
-32
-36
-37
-43
-39
-50
-44
-38
-50
-55
-43
-53
-53
-50
-54
-45
-41
-40
-55
-48
-19
-25
-32
-40
-38
-50
-48
-40
-46
-43
-36
-46
-50
-63
-45
-41
-41
-54
-54
-44
-36
-43
-47
-55
-50
-54
-49
-58
-48
-49
-41
-46
-57
-54
-48
-51
-50
-44
-59
-56
-67
-65
-32
-35
-57
-57
-47
-38
-44
-52
-46
-38
-39
-33
-50
-54
-38
-42
-56
-56
-26
-3
31
49
63
71
72
89
84
69
60
42
33
22
2
-18
-29
-41
-37
-33
-40
-32
-35
-42
-34
-35
-61
-57
-44
-31
-27
-25
-33
-42
-45
-54
-47
-49
-43
-37
-27
-36
-49
-57
-49
-51
-50
-49
-52
-36
-29
-36
-24
-23
-47
-42
-36
-28
-47
-56
-47
-38
-35
-40
-49
-34
-36
-31
-35
-41
-30
-45
-47
-36
-36
-33
-31
-48
-37
-9
-5
-45
-42
-36
-41
-60
-51
-19
-17
-19
-26
-28
-27
-27
-19
-19
-31
-37
-25
-18
-34
-15
-9
-11
-8
-2
-18
-25
-20
-24
-15
-12
-11
-16
-10
-7
-10
-7
-6
14
-1
-7
3
-5
-2
9
4
21
6
-1
-1
1
4
-12
0
-1
-8
-11
-14
-6
1
-3
-18
-35
-49
-34
-21
-21
-34
-39
-42
-41
-25
-45
-37
-27
-38
-55
-57
-45
-52
-41
-30
-39
-49
-51
-48
-46
-52
-48
-49
-51
-57
-48
-29
-39
-53
-55
-49
-58
-50
-43
-36
-41
-36
-30
-57
-64
-58
-48
-42
-37
-40
-46
-54
-58
-56
-42
-45
-42
-42
-42
-45
-44
-40
-44
-38
-38
-45
-45
-49
-50
-46
-48
-59
-52
-48
-36
-47
-40
-33
-42
-46
-44
-47
-42
-40
-46
-54
-51
-41
-48
-51
-64
-58
-44
-39
-58
-35
-35
-40
-47
-54
-48
-46
-44
-44
-46
-43
-40
-42
-29
-43
-41
-51
-55
-42
-37
-28
-29
-35
-38
-50
-52
-41
-42
-52
-50
-37
-38
-45
-47
-36
-37
-49
-51
-45
-37
-36
-42
-56
-53
-45
-26
-23
-43
-50
-35
-39
-40
-49
-53
-40
-41
-44
-26
-27
-34
-35
-32
-36
-45
-44
-46
-36
-38
-39
-39
-49
-51
-47
-32
-32
-56
-40
-42
-46
-30
-13
-26
-32
-40
-36
-24
-32
-43
-40
-37
-42
-39
-38
-36
-27
-28
-36
-29
-57
-27
-22
-41
-44
-28
-32
-42
-39
-27
-25
-32
-25
-50
-31
-25
-36
-33
-31
-31
-35
-35
-42
-36
-43
-46
-38
-43
-32
-43
-43
-38
-38
-37
-37
-35
-49
-61
-58
-37
-26
-19
-19
-34
-40
-37
-43
-62
-65
-59
-29
-27
-49
-50
-43
-42
-37
-49
-42
-38
-30
-11
2
12
36
49
57
69
84
86
98
81
49
38
31
21
3
-7
-30
-34
-27
-7
-26
-58
-34
-43
-49
-11
-6
-39
-54
-40
-28
-22
-30
-34
-38
-34
-33
-29
-30
-30
-27
-33
-34
-32
-29
-32
-36
-51
-48
-32
-7
-24
-46
-34
-38
-43
-39
-38
-25
-23
-51
-24
-19
-33
-38
-26
-27
-34
-20
-25
-19
-26
-24
-23
-29
-32
-28
-32
-21
-14
-29
-26
-22
-19
-35
-28
-8
-12
-28
-25
-30
-18
-10
-30
-30
-10
-13
-22
-23
-18
3
14
-10
-16
-15
-11
2
-3
-7
-1
0
-3
6
4
1
2
-2
9
4
10
17
-4
-5
-1
7
8
8
8
2
13
12
20
8
-3
-8
23
17
-2
11
2
-15
-25
-14
-16
-7
-15
-34
-17
-21
-19
-30
-33
-34
-32
-28
-33
-51
-50
-32
-19
-29
-32
-44
-43
-38
-35
-38
-35
-31
-42
-43
-39
-44
-51
-49
-45
-41
-34
-38
-48
-39
-48
-60
-55
-36
-43
-51
-47
-42
-34
-41
-33
-54
-43
-35
-41
-43
-53
-54
-36
-48
-33
-36
-39
-39
-44
-46
-41
-36
-39
-46
-52
-43
-30
-41
-35
-36
-57
-50
-49
-37
-37
-48
-45
-36
-40
-40
-34
-18
-28
-42
-48
-67
-59
-57
-45
-48
-33
-47
-41
-33
-35
-42
-29
-38
-50
-37
-31
-40
-42
-32
-38
-43
-38
-29
-39
-45
-53
-46
-39
-47
-58
-50
-41
-42
-33
-41
-38
-44
-50
-40
-38
-40
-42
-47
-31
-30
-38
-47
-44
-34
-33
-47
-40
-37
-57
-55
-27
-10
-35
-42
-39
-38
-37
-32
-28
-32
-18
-27
-37
-44
-36
-35
-36
-30
-41
-35
-31
-34
-28
-36
-37
-39
-31
-42
-45
-44
-20
-38
-45
-44
-43
-38
-35
-68
-43
-20
-25
-41
-49
-44
-39
-43
-49
-49
-38
-32
-33
-46
-36
-49
-43
-42
-37
-42
-48
-51
-47
-34
-34
-31
-37
-36
-31
-27
-38
-37
-19
-21
-16
4
19
30
44
62
67
59
67
66
55
48
41
19
12
2
-32
-28
-33
-33
-27
-23
-27
-30
-33
-26
-25
-23
-32
-50
-55
-55
-43
-24
-20
-26
-33
-26
-37
-26
-36
-41
-29
-44
-29
-30
-53
-42
-39
-37
-28
-30
-38
-37
-26
-28
-39
-27
-19
-20
-18
-26
-44
-44
-33
-26
-31
-24
-30
-23
-28
-29
-21
-27
-32
-26
-25
-22
-18
-32
-31
-25
-33
-17
-10
-18
-27
-20
-17
-17
-14
-19
-22
-15
-20
-22
-15
-14
-18
-7
-11
-3
0
-2
9
-3
-12
-2
4
-5
5
-1
-2
13
-8
13
11
33
17
15
-19
-23
-7
22
29
18
18
33
15
16
7
5
6
12
15
2
14
4
0
-4
-10
-12
-16
-10
-16
-15
-16
-9
-19
-22
-19
-27
-40
-31
-31
-45
-42
-27
-37
-30
-18
-34
-40
-36
-29
-33
-38
-29
-44
-32
-30
-42
-44
-43
-41
-42
-46
-53
-45
-31
-19
-33
-41
-41
-40
-39
-34
-32
-29
-40
-51
-46
-35
-37
-43
-55
-42
-36
-49
-39
-44
-45
-39
-33
-29
-30
-33
-28
-28
-39
-30
-43
-49
-46
-43
-42
-47
-39
-35
-34
-36
-38
-31
-42
-38
-30
-32
-27
-36
-45
-42
-37
-49
-42
-55
-56
-39
-25
-20
-39
-30
-41
-42
-47
-51
-44
-43
-37
-35
-35
-39
-57
-55
-42
-40
-46
-15
-34
-41
-40
-48
-50
-35
-29
-31
-37
-39
-40
-48
-44
-39
-44
-41
-47
-64
-44
-24
-35
-39
-35
-39
-47
-48
-48
-39
-26
-31
-45
-38
-42
-52
-45
-40
-43
-36
-34
-34
-36
-47
-46
-36
-43
-44
-35
-35
-25
-17
-19
-47
-53
-46
-44
-38
-33
-26
-37
-37
-43
-26
-30
-52
-43
-27
-20
-32
-26
-24
-32
-36
-38
-30
-34
-61
-49
-38
-41
-30
-35
-40
-39
-45
-50
-31
-36
-54
-45
-35
-50
-56
-47
-47
-31
-41
-42
-41
-42
-43
-45
-48
-51
-48
-47
-53
-53
-40
-36
-46
-53
-47
-23
-28
-38
-41
-30
-36
-13
-9
8
24
33
48
46
71
94
87
89
74
54
29
27
10
-3
-27
-41
-42
-47
-13
-22
-31
-22
-37
-45
-35
-44
-39
-36
-40
-40
-38
-41
-49
-49
-40
-37
-38
-32
-36
-38
-35
-29
-47
-49
-37
-40
-37
-37
-28
-36
-40
-37
-39
-42
-41
-48
-35
-37
-39
-33
-37
-40
-26
-24
-39
-44
-44
-39
-32
-29
-22
-38
-42
-38
-39
-26
-31
-23
-26
-12
-31
-32
-28
-18
-24
-24
-34
-24
-20
-34
-42
-40
-27
-17
-13
-18
-17
-13
-21
-11
-21
-20
-26
-20
-22
-12
-24
-6
2
-2
-2
-1
-9
-13
-26
-15
18
12
5
7
6
27
16
-5
1
6
3
12
4
7
8
-11
-15
-6
3
-1
-12
-11
-12
-22
-38
-29
-17
-23
-30
-39
-32
-29
-34
-34
-27
-41
-59
-55
-66
-54
-39
-38
-31
-29
-49
-45
-37
-41
-49
-49
-48
-46
-47
-53
-52
-52
-57
-49
-51
-48
-47
-51
-49
-52
-58
-67
-42
-36
-45
-59
-46
-46
-47
-46
-57
-56
-52
-45
-39
-35
-48
-45
-40
-37
-49
-55
-47
-34
-49
-44
-44
-62
-47
-39
-61
-58
-45
-48
-54
-54
-56
-51
-43
-50
-61
-47
-37
-34
-40
-48
-49
-62
-54
-45
-42
-57
-60
-57
-50
-42
-34
-36
-45
-42
-54
-48
-54
-46
-48
-59
-51
-59
-41
-38
-56
-64
-56
-49
-54
-49
-58
-48
-40
-46
-50
-58
-44
-45
-55
-58
-40
-44
-55
-46
-47
-50
-56
-62
-58
-44
-39
-39
-35
-53
-69
-52
-50
-56
-66
-59
-46
-55
-53
-59
-42
-40
-58
-51
-51
-35
-37
-53
-62
-62
-65
-50
-49
-43
-42
-47
-60
-61
-52
-46
-55
-43
-45
-53
-40
-48
-66
-60
-44
-42
-50
-58
-54
-54
-47
-38
-42
-53
-38
-46
-46
-52
-53
-51
-47
-39
-45
-42
-48
-39
-28
-13
-43
-58
-49
-50
-49
-33
-44
-52
-47
-50
-47
-43
-54
-57
-51
-38
-44
-56
-62
-51
-54
-51
-45
-47
-48
-49
-54
-61
-58
-62
-57
-42
-45
-43
-44
-46
-48
-53
-57
-55
-55
-41
-45
-48
-58
-48
-45
-38
-47
-46
-45
-48
-44
-40
-13
-21
-21
-1
23
40
41
58
72
89
83
75
57
25
21
13
2
-15
-34
-37
-23
-31
-44
-45
-51
-37
-34
-39
-39
-39
-49
-42
-54
-52
-32
-21
-46
-54
-48
-51
-55
-50
-55
-50
-45
-51
-50
-50
-48
-52
-47
-38
-48
-48
-45
-40
-48
-36
-33
-35
-42
-37
-42
-53
-45
-42
-45
-55
-50
-42
-35
-35
-29
-42
-43
-36
-41
-48
-32
-33
-31
-46
-41
-47
-34
-30
-28
-32
-44
-66
-43
-18
-29
-39
-16
-8
-11
-21
-25
-19
-12
-14
-19
-32
-35
-26
-28
-29
-14
-16
-16
-16
-8
-3
-10
-11
-19
-14
3
1
-2
-7
-18
-2
-3
-1
3
8
-7
-9
9
26
10
-7
-2
-12
-15
-20
-10
15
1
-23
-33
-25
-30
-26
-20
-28
-27
-31
-34
-31
-33
-41
-43
-29
-37
-32
-61
-55
-37
-47
-46
-45
-44
-40
-56
-50
-44
-47
-57
-58
-44
-34
-41
-39
-49
-44
-52
-54
-55
-57
-54
-60
-52
-50
-45
-58
-61
-47
-29
-43
-44
-42
-44
-51
-55
-40
-38
-43
-41
-54
-68
-61
-55
-35
-54
-45
-38
-40
-50
-54
-63
-64
-52
-54
-52
-41
-51
-49
-51
-52
-58
-52
-39
-49
-41
-44
-44
-36
-42
-49
-55
-44
-55
-64
-51
-50
-52
-45
-39
-51
-58
-38
-41
-63
-56
-46
-51
-51
-45
-44
-50
-51
-53
-53
-56
-71
-58
-35
-40
-44
-45
-53
-52
-49
-42
-52
-58
-52
-51
-47
-48
-53
-55
-51
-59
-52
-40
-41
-57
-48
-45
-47
-50
-46
-47
-54
-57
-64
-45
-54
-52
-40
-50
-61
-54
-48
-36
-60
-55
-34
-43
-53
-59
-51
-51
-38
-38
-51
-50
-49
-51
-52
-44
-53
-53
-48
-42
-47
-45
-51
-51
-38
-48
-57
-53
-58
-50
-45
-41
-55
-52
-54
-56
-41
-42
-55
-57
-43
-30
-47
-38
-42
-48
-41
-46
-37
-40
-44
-48
-57
-50
-31
-38
-40
-35
-33
-43
-45
-51
-58
-47
-42
-39
-33
-32
-21
-37
-37
-35
-38
-57
-63
-66
-47
-43
-55
-63
-61
-31
-39
-40
-41
-45
-54
-44
-50
-48
-58
-48
-43
-41
-51
-53
-37
-38
-49
-53
-45
-44
-53
-55
-32
-47
-56
-38
-46
-53
-53
-52
-40
-47
-53
-48
-43
-11
-13
-6
12
28
44
52
59
71
86
75
66
59
36
25
18
13
1
-31
-44
-28
-38
-40
-29
-32
-44
-41
-36
-40
-43
-38
-58
-45
-30
-36
-53
-60
-41
-38
-28
-45
-44
-45
-51
-57
-47
-33
-33
-34
-30
-28
-46
-48
-41
-48
-47
-37
-45
-44
-18
-30
-44
-52
-32
-39
-45
-30
-32
-41
-42
-39
-38
-44
-45
-41
-46
-32
-30
-39
-37
-29
-23
-27
-28
-36
-35
-33
-47
-35
-15
-11
-24
-24
-19
-32
-29
-22
-19
-16
-16
-25
-21
-15
-24
-28
-20
-16
-16
-8
-5
-8
-9
-14
-6
-5
-1
-5
-15
-9
5
4
7
-1
3
-13
-16
-11
21
9
11
15
11
11
8
2
-4
-3
-6
-3
-10
-18
-7
-13
-5
-25
-33
-32
-26
-19
-9
-21
-18
-16
-41
-32
-29
-36
-37
-34
-46
-49
-37
-39
-43
-39
-43
-43
-30
-36
-41
-49
-50
-46
-51
-56
-44
-50
-66
-50
-34
-38
-34
-44
-65
-65
-38
-42
-55
-51
-28
-37
-35
-43
-52
-68
-44
-43
-42
-31
-46
-56
-49
-42
-50
-42
-34
-45
-38
-36
-34
-37
-50
-46
-47
-42
-49
-55
-61
-58
-46
-36
-37
-36
-43
-40
-39
-51
-45
-48
-48
-50
-40
-49
-56
-59
-49
-40
-36
-28
-42
-43
-39
-41
-46
-46
-54
-51
-41
-38
-45
-49
-52
-44
-45
-42
-44
-64
-61
-44
-31
-31
-36
-47
-42
-47
-49
-47
-47
-42
-43
-46
-46
-46
-55
-54
-62
-50
-51
-46
-42
-39
-29
-38
-43
-49
-48
-47
-41
-38
-49
-41
-48
-50
-55
-42
-45
-49
-54
-34
-43
-46
-45
-46
-40
-48
-49
-52
-52
-51
-35
-43
-34
-47
-52
-44
-39
-45
-52
-35
-37
-36
-54
-43
-40
-55
-56
-54
-45
-29
-41
-33
-44
-52
-58
-61
-41
-39
-42
-48
-44
-45
-42
-35
-49
-43
-46
-51
-48
-34
-50
-53
-36
-49
-31
-39
-44
-34
-36
-45
-36
-33
-27
-43
-38
-36
-34
-36
-33
-34
-29
-13
-22
-45
-51
-35
-40
-45
-32
-26
-24
-28
-52
-51
-35
-29
-36
-37
-36
-38
-45
-50
-56
-51
-35
-44
-46
-38
-28
-40
-35
-40
-55
-58
-54
-42
-45
-54
-26
-24
-21
-36
-47
-71
-67
-43
-28
-53
-43
-32
-42
-45
-31
-34
-37
-39
-34
-36
-35
-29
-26
-19
-11
11
34
42
67
87
88
89
102
96
48
31
31
15
4
-17
-31
-53
-46
-31
-12
-9
-26
-47
-36
-37
-34
-33
-27
-23
-36
-47
-40
-51
-48
-29
-13
-32
-48
-38
-28
-40
-42
-41
-38
-51
-43
-33
-40
-40
-35
-45
-33
-26
-41
-53
-26
-13
-19
-28
-24
-40
-28
-35
-36
-29
-19
-23
-26
-23
-26
-30
-24
-29
-33
-37
-30
-34
-34
-29
-31
-32
-31
-32
-30
-28
-17
-22
-31
-27
-28
-23
-12
-22
-22
-16
-32
-22
-12
-8
-17
-31
-9
4
-13
-1
2
-7
6
13
8
14
-2
-12
-13
-8
-2
10
10
2
6
5
6
13
9
0
9
33
31
2
-3
-14
5
18
11
15
4
-23
-12
7
9
-2
-2
-22
-27
-10
-3
-10
-32
-25
-29
-24
-31
-37
-28
-25
-31
-41
-31
-28
-40
-41
-32
-29
-29
-36
-39
-51
-49
-44
-33
-38
-44
-43
-52
-28
-30
-39
-61
-55
-43
-20
-28
-34
-46
-28
-32
-34
-51
-43
-40
-46
-42
-36
-40
-42
-56
-47
-44
-37
-28
-26
-45
-40
-38
-47
-35
-39
-48
-33
-26
-33
-70
-70
-43
-18
-24
-45
-39
-46
-47
-37
-33
-42
-36
-35
-29
-42
-50
-45
-56
-39
-41
-26
-30
-39
-59
-47
-35
-43
-47
-45
-49
-49
-39
-37
-53
-29
-33
-54
-58
-62
-42
-32
-29
-40
-38
-30
-35
-47
-53
-42
-39
-41
-45
-45
-40
-40
-43
-45
-39
-39
-52
-51
-37
-40
-49
-45
-44
-25
-43
-41
-50
-72
-42
-34
-25
-38
-33
-41
-40
-41
-44
-42
-45
-41
-27
-47
-41
-25
-36
-50
-57
-48
-30
-34
-36
-38
-56
-65
-41
-41
-38
-30
-37
-50
-60
-40
-36
-40
-34
-34
-45
-38
-30
-38
-42
-47
-49
-54
-49
-47
-48
-34
-23
-32
-37
-43
-36
-49
-64
-57
-34
-30
-29
-36
-41
-45
-46
-35
-38
-28
-31
-38
-31
-27
-26
-43
-44
-31
-20
-35
-34
-17
-8
-28
-31
-23
-41
-50
-37
-15
-27
-28
-11
-21
-33
-44
-45
-36
-40
-37
-43
-36
-45
-28
-30
-28
-31
-35
-19
-26
-48
-35
-29
-39
-52
-43
-48
-34
-35
-39
-33
-26
-34
-36
-33
-46
-50
-42
-60
-43
-45
-43
-44
-45
-27
-20
-38
-34
-28
-28
-5
15
22
25
38
62
80
84
92
94
87
66
59
39
31
14
6
-11
-21
-17
-10
5
-8
-29
-33
-41
-45
-47
-47
-45
-29
-30
-31
-27
-16
-4
-15
-20
-25
-30
-34
-29
-19
-19
-37
-31
-42
-34
-36
-18
-24
-21
-25
-22
-18
-35
-42
-33
-27
-29
-21
-24
-28
-21
-12
-8
-1
-18
-41
-39
-24
-14
-18
-11
-18
-14
-14
-4
-9
-20
-18
-10
-12
-3
-13
-13
-16
-20
-8
-2
6
5
-18
-5
-4
-5
-2
1
-9
4
8
6
1
-14
-2
-2
9
11
15
7
12
20
7
0
22
26
20
19
8
19
31
37
33
31
37
25
34
30
11
17
30
36
29
32
41
23
16
28
25
13
13
12
15
28
18
-1
7
23
21
-2
-23
-21
-5
-4
-16
-15
-15
-11
3
-18
-20
-3
-18
-24
-33
-42
-23
-14
-21
-17
-27
-8
-12
-11
-13
-14
-7
-30
-46
-29
-17
-1
-7
-10
-9
-16
-23
-33
-14
-16
-9
-15
-12
-8
-22
-24
-33
-25
-13
-10
-9
-14
-14
-11
-12
-14
-1
-3
-20
-24
4
-12
-17
-20
-28
-21
-28
-18
-3
3
-3
-8
-7
-16
-15
-17
-18
-18
-17
-29
-25
0
2
9
-11
-54
-21
5
-13
-17
-9
3
-5
-1
-11
-8
-5
-10
-11
2
-8
-28
-40
-55
-19
21
14
-7
-30
-10
-1
-21
-4
-1
-7
-14
-12
-17
-17
-5
-16
4
1
-21
-23
0
-2
-21
-18
-18
-12
-7
-17
-15
-16
-17
-14
-10
-16
-28
-17
-7
-5
-10
-14
-9
-16
-15
-8
-3
-9
-10
-15
-16
-18
-3
-19
-27
-28
-5
2
-17
-7
3
1
-23
-27
-1
7
7
-16
-8
-9
1
4
12
6
-2
-16
-21
-3
7
1
-13
-20
-15
3
8
8
10
4
-23
-18
-28
-36
-22
-1
-17
0
20
4
-9
-13
-14
-37
-11
-7
-4
2
2
-16
-41
-15
0
10
1
4
-6
-11
-6
-5
1
-11
-15
-3
7
6
-13
-11
-3
2
2
-2
2
33
63
70
67
80
91
114
105
108
95
90
80
75
41
6
20
-1
1
7
13
17
18
-1
32
25
21
10
16
4
6
13
22
2
1
9
17
20
9
22
9
15
18
11
10
15
17
8
1
14
22
14
5
-15
-16
34
56
17
-12
31
37
33
26
19
12
48
32
26
32
21
8
19
15
6
36
45
45
30
26
32
32
23
28
26
14
22
30
31
35
25
32
33
41
42
42
35
50
42
37
27
34
35
41
49
67
53
32
18
-17
9
74
85
58
74
65
52
53
63
64
73
65
65
81
57
54
83
77
54
48
49
49
59
64
67
57
61
55
62
46
34
29
25
53
61
46
42
29
27
47
41
20
27
30
17
17
16
14
8
-16
-33
13
43
15
45
27
29
25
21
26
7
9
14
28
31
18
-11
18
11
23
28
20
-9
-7
-46
-12
34
47
25
6
24
13
16
17
25
-8
8
10
9
9
2
2
21
21
26
10
-7
4
-3
-7
9
34
-15
30
42
35
25
29
39
24
8
15
15
32
23
10
-3
6
35
33
31
25
20
26
20
16
25
14
31
15
2
24
15
28
13
6
17
26
40
28
9
25
36
17
16
15
4
-5
21
29
17
9
19
27
32
18
20
19
34
40
28
41
40
33
22
31
27
26
15
53
45
6
16
19
12
24
32
42
32
18
24
29
19
7
14
17
18
26
27
20
28
38
9
17
13
2
-3
26
43
5
17
24
21
24
24
21
46
28
29
23
18
13
15
-3
3
2
11
12
23
22
24
24
35
49
77
73
84
93
111
108
102
116
91
88
85
73
61
43
46
20
14
25
32
30
44
56
23
12
24
12
24
13
29
46
40
35
10
6
19
5
9
18
27
21
25
32
23
18
14
13
41
38
14
17
28
26
20
26
38
44
37
21
15
19
8
37
27
24
17
11
26
20
10
7
24
38
28
32
20
26
30
34
24
36
33
43
37
26
16
7
23
31
20
16
20
30
52
46
42
51
46
15
28
39
36
24
30
46
36
40
44
55
44
37
45
26
41
60
53
45
54
49
40
59
63
59
51
10
53
75
62
40
40
45
53
58
56
41
40
42
39
38
13
20
21
16
14
26
13
7
16
13
9
8
13
18
5
-1
-17
-50
11
26
20
14
16
21
-2
-2
-7
-7
-6
0
-10
9
11
15
1
-11
0
-8
-9
7
10
11
-3
-1
2
-6
-8
-7
-10
-6
1
21
14
-4
-5
1
4
9
3
0
-6
0
10
12
12
2
-7
14
-5
-17
-7
8
12
13
5
2
-3
-11
-10
-3
-6
1
9
1
8
0
-8
-6
-21
-24
16
20
9
-5
-7
-13
6
12
7
8
8
4
4
-4
6
20
13
10
0
-5
7
11
-2
-16
2
14
20
8
-3
1
-13
2
30
25
13
18
15
17
24
10
-20
-10
-11
-3
2
8
-3
-5
-18
-12
7
2
2
7
8
-2
-2
3
-2
-18
-19
-16
-27
-22
-1
5
12
15
1
-2
8
-3
-11
-17
-7
-3
0
4
0
-4
5
1
-3
-1
-14
-1
-1
0
13
7
41
77
112
121
106
99
102
101
103
83
54
45
31
17
6
5
13
10
-1
-6
-7
-2
11
15
2
-10
-10
5
2
3
-17
-31
-18
16
8
0
-7
-13
-4
8
-9
1
-4
-10
-17
-16
-16
-11
-3
8
6
7
-5
-16
-12
-14
-13
-4
-6
-7
5
-13
-3
6
-1
-8
-9
4
18
4
5
-1
2
-2
-2
1
-7
-8
-14
4
9
-6
-2
-14
-12
-7
-10
9
-5
0
11
-13
-1
6
22
10
15
4
11
17
12
10
15
11
3
11
14
17
16
20
33
30
16
25
28
20
27
16
-4
18
37
36
31
31
27
24
25
16
21
15
27
18
16
19
2
-9
6
3
-15
-2
10
3
-6
-8
-13
-14
3
-8
-16
-16
-8
-7
-25
-26
-31
-23
-24
-28
-23
-36
-30
-32
-33
-28
-23
-23
-32
-30
-17
-22
-26
-30
-14
-5
-45
-44
-40
-43
-40
-20
-20
-26
-25
-25
-25
-27
-26
-39
-12
-3
-35
-46
-45
-41
-53
-54
-40
-43
-20
-20
-24
-31
-29
-27
-35
-35
-31
-28
-24
-28
-42
-48
-44
-36
-24
-34
-40
-38
-37
-25
-26
-28
-37
-21
-20
-29
-37
-36
-41
-41
-37
-34
-37
-46
-47
-54
-64
-17
4
-13
-40
-36
-33
-58
-41
-40
-40
-44
-37
-31
-31
-29
-38
-33
-41
-39
-43
-36
-46
-38
-49
-50
-39
-57
-44
-22
-32
-48
-40
-30
-29
-37
-32
-30
-44
-36
-36
-43
-39
-24
-38
-36
-38
-41
-35
-39
-46
-64
-29
-22
-43
-45
-32
-37
-35
-36
-51
-46
-48
-30
-37
-50
-42
-47
-62
-47
-39
-54
-40
-32
-34
-35
-39
-44
-55
-41
-29
-34
-52
-40
-36
-41
-50
-52
-53
-42
-52
-63
-45
-43
-51
-43
-34
-32
-35
-41
-41
-28
-27
-18
-6
8
22
34
34
50
80
91
96
70
60
45
46
32
3
-9
-27
-27
-25
-33
-32
-30
-25
-35
-29
-31
-30
-41
-41
-45
-44
-36
-35
-42
-37
-42
-40
-45
-31
-34
-35
-36
-31
-47
-58
-41
-43
-46
-41
-30
-24
-41
-43
-42
-36
-31
-32
-34
-30
-36
-34
-31
-24
-25
-31
-33
-32
-39
-35
-25
-23
-29
-31
-37
-16
-21
-39
-49
-33
-36
-37
-27
-19
-16
-26
-33
-34
-25
-24
-16
-19
-20
-30
-18
-17
-31
-20
-10
-10
2
-12
-25
-25
-2
-7
-5
-10
-10
-13
2
4
-8
-11
-15
-11
-20
6
8
1
5
11
-3
5
-2
2
3
2
20
5
3
3
15
1
-2
-4
-4
-9
-10
-15
-14
-23
-35
-15
-10
-15
-20
-18
-16
-20
-18
-13
-29
-28
-48
-58
-42
-24
-35
-34
-33
-43
-23
-29
-35
-41
-41
-31
-35
-29
-31
-26
-40
-43
-50
-54
-54
-49
-42
-40
-42
-34
-40
-48
-44
-42
-54
-47
-30
-37
-39
-31
-43
-51
-52
-47
-50
-54
-37
-39
-44
-41
-26
-41
-40
-30
-36
-43
-28
-30
-26
-33
-39
-38
-46
-55
-48
-29
-20
-35
-45
-36
-31
-39
-29
-29
-32
-35
-39
-44
-44
-38
-38
-43
-47
-52
-52
-44
-36
-26
-33
-33
-37
-51
-53
-52
-51
-45
-31
-53
-34
-25
-41
-50
-30
-17
-30
-32
-32
-44
-47
-42
-33
-36
-25
-31
-37
-38
-36
-39
-30
-32
-31
-40
-41
-29
-14
-24
-34
-32
-42
-40
-35
-49
-44
-30
-34
-39
-49
-34
-16
-29
-44
-44
-30
-27
-33
-30
-28
-27
-23
-32
-40
-44
-28
-26
-40
-43
-34
-19
-20
-29
-34
-38
-37
-33
-25
-24
-40
-37
-42
-30
-30
-24
-33
-46
-42
-29
-30
-27
-27
-40
-52
-42
-22
-23
-23
-25
-24
-33
-33
-25
-11
-21
-35
-36
-42
-25
-8
-10
-29
-21
-24
-21
-21
-22
-23
-16
-20
-21
-20
-22
-26
-25
-28
-23
-20
-17
-16
-13
-23
-18
-29
-37
-31
-22
-25
-24
-26
-37
-23
-11
-18
-7
-9
-40
-28
-25
-27
-13
-14
-16
-18
-28
-26
-18
-21
-11
0
1
-32
-49
-40
-24
-32
-32
-22
-7
-8
-24
-27
-25
-21
-9
-13
-14
-4
-9
1
38
63
68
81
95
106
102
109
116
80
49
42
21
33
40
28
7
-10
-17
-14
-5
-10
-16
-8
-8
-12
-25
-27
-15
-8
-25
-19
-18
-14
-10
-18
-20
-3
-4
-18
-19
-16
-12
-13
-18
-11
-12
-12
-10
-6
5
-11
-17
-19
-24
-21
-20
-7
0
-12
-26
-32
-13
5
-5
-10
-6
-5
-12
-18
-18
0
-5
-8
-2
-6
-9
-3
-3
-7
-3
-1
-3
-1
0
6
16
21
0
-3
4
0
0
3
-1
4
5
-4
1
2
-3
3
10
22
22
21
27
27
36
23
9
22
28
26
33
45
31
28
36
28
30
45
39
27
28
17
26
34
38
23
17
31
38
37
27
29
43
33
17
15
6
19
25
25
14
16
10
11
3
0
0
-2
14
10
-1
-12
-8
2
-17
-13
-5
-13
-12
1
3
-8
-9
-9
-13
-2
-11
-12
-4
7
1
-9
-9
-10
24
13
-13
-24
-9
-1
-16
-22
-7
-10
-10
-13
-13
-13
-8
-10
-10
-11
-9
-18
-25
-21
15
-9
-30
-26
4
0
0
-2
-6
-8
-12
-11
-9
-12
6
5
4
7
11
-5
-11
-16
-12
-7
-12
-7
4
-14
-9
-12
-25
-7
-4
-18
-36
-12
-2
9
8
-10
0
-4
2
-11
-25
-20
-8
1
-4
-9
-20
-7
18
-5
-14
-11
-14
-15
1
0
-5
-7
-10
-4
-8
2
0
-5
-3
0
-16
-19
-15
-6
3
-11
-4
-9
-3
13
7
-5
-15
-9
-8
-8
-5
-5
-15
-14
-8
-7
10
-1
-19
4
0
-3
-24
-24
-20
-5
0
-4
4
5
-13
-15
-8
-10
-6
5
9
-12
-4
-7
-19
-8
-1
0
-15
-14
3
-4
-11
-13
-2
-8
-2
-12
-5
10
11
-22
-19
-3
-12
-8
-6
-3
-12
-25
-18
-7
6
3
3
1
-7
-5
-4
-13
-25
-33
-5
5
6
-2
-6
-12
-13
-10
-12
-1
-2
3
-5
-7
-11
1
6
3
-4
-20
-24
-6
0
-7
-16
-18
-21
-7
1
-6
5
11
3
6
8
1
-7
-8
-10
1
6
5
0
-2
-4
-3
2
-9
-5
-2
6
8
20
17
11
-15
-18
-10
0
-16
-14
-14
-20
-7
7
2
-20
-15
-17
-17
-23
-8
5
5
-6
-3
-16
-3
-3
-6
-15
-4
-1
-3
-5
-10
-11
0
-2
-5
-14
-10
-11
-9
-13
-7
-10
-4
-5
4
13
20
30
37
63
62
83
119
116
108
114
106
107
92
82
61
60
37
15
6
-7
3
5
8
4
-3
7
0
-10
-10
-14
-8
-13
-10
-14
-8
-2
-6
-2
-3
0
-3
1
-8
1
-1
-14
-33
-5
8
-3
3
-4
5
2
6
13
-2
-9
-8
2
4
0
3
13
-14
-1
9
-4
-6
14
4
-9
0
2
-3
-9
-13
-12
-8
-10
-18
-1
28
24
19
14
7
-15
-17
-5
20
27
18
13
-3
11
14
4
2
20
25
19
11
7
15
19
18
21
34
33
18
25
39
31
30
31
32
35
44
43
19
33
43
32
29
29
34
44
38
34
26
36
21
41
32
29
35
31
37
29
22
12
6
22
23
22
14
13
15
18
10
-1
-16
-14
-9
-9
-11
-2
4
4
-9
1
3
-11
-15
-11
-23
-13
-3
-5
-10
2
-15
-21
-21
-29
-27
-14
-7
1
-17
-21
-19
-23
-13
-2
-8
-18
-18
-16
-15
-14
-11
-10
-2
-20
-23
-33
-32
-26
7
0
-8
-13
-24
-33
-26
-14
-13
-13
-17
-16
-21
-21
-18
-15
-21
-19
-11
-10
-15
-15
-15
-18
-11
-24
-26
-11
-10
-8
-20
-24
-28
-42
-29
-11
-20
-17
-23
-25
-26
-13
-16
-16
-30
-39
-23
-13
-32
-52
-39
-11
-4
-12
-21
-11
-14
-11
-18
-27
-21
-14
-18
-24
-31
-28
-31
-30
-33
-40
-37
-31
-12
-32
-35
-14
-16
-22
-14
-26
-33
-33
-30
-29
-27
-14
-15
-18
-17
-23
-22
-17
-21
-34
-33
-30
-30
-24
-25
-34
-34
-30
-25
-35
-33
-27
-21
-15
-13
-20
-30
-30
-23
-25
-26
-22
-23
-32
-31
-32
-43
-30
-16
-18
-18
-19
-25
-32
-35
-41
-45
-26
-12
-26
-27
-48
-31
-41
-46
-7
7
-30
-41
-35
-29
-26
-21
-40
-41
-23
-15
-23
-50
-42
-18
-14
-12
-20
-16
-5
-14
-29
-27
-30
-27
-28
-32
-20
-23
-52
-38
-21
-21
-15
-19
-17
-20
-14
-13
-17
-25
-23
-28
-21
-26
-29
-24
-20
-11
-11
-10
-35
-44
-22
-13
-19
-8
-9
-15
-7
-13
-10
-27
-34
-23
-10
-7
-7
-31
-31
-39
-50
-25
-19
-19
-24
-14
-18
-22
-10
-17
-24
-22
-36
-32
-25
-32
-30
-15
-19
-30
-17
-11
-21
-31
-36
-14
-17
-26
-23
-21
-26
-34
-27
-32
-13
0
-10
-13
-4
8
2
33
45
61
72
95
101
123
112
96
83
74
66
51
33
17
-4
0
-6
-16
-2
-7
-6
-14
-12
-17
-10
-7
-7
-2
-12
-16
-11
-28
-32
-21
-26
-15
-9
-16
-14
-7
-7
-11
-13
-8
-1
-8
-8
-11
-16
-14
-13
-15
-12
-7
-3
-10
-21
-33
-38
-17
-1
3
4
0
-12
-5
-13
-5
-4
-5
-11
-12
-4
8
-10
-16
-1
-5
-3
-9
-26
-14
-3
-11
7
19
1
-5
-12
-4
-12
-16
-24
-3
10
12
14
-2
6
5
4
22
20
17
14
18
12
5
17
22
16
22
24
29
28
34
34
16
9
28
37
29
13
14
39
48
35
32
25
30
32
32
24
16
23
32
20
1
13
-6
0
19
24
18
9
2
7
8
10
1
-5
-9
-13
-2
3
4
11
-18
-21
-21
-21
-3
-14
-29
-34
-8
-14
-35
-30
-9
-12
-13
-10
-16
-23
-24
-12
-18
-16
-15
-14
-19
-18
-30
-9
-10
-20
-26
-17
-16
-14
-9
-30
-16
-6
-16
-48
-35
-2
9
-4
-37
-30
-12
-20
-10
-14
-10
-11
-21
-13
-22
-17
-28
-19
-14
-6
-12
-15
-13
-28
-43
-7
-4
-10
6
-4
-16
-15
-14
-17
-22
-24
-18
-25
-25
-13
-15
-27
-25
-21
-27
-8
-6
-9
2
-13
-25
-17
-16
-10
-18
-20
-18
-17
-14
-21
-18
-34
-30
-38
-26
-19
-14
-2
-10
-11
-3
-17
-23
-15
-11
-1
-5
-4
-13
-24
-43
-37
-21
-14
-16
-19
-14
-16
-20
-27
-16
-7
-7
-29
-21
-20
-25
-29
-32
-22
-22
-36
-8
-3
-5
-14
-28
-25
-23
-19
-15
-4
-6
-5
-9
-26
-19
-12
-23
-25
-16
-28
-33
-25
-20
-12
-12
-12
-20
-21
-9
-12
-26
-33
-28
-15
-16
-23
-17
-23
-8
-12
-12
-18
-42
-39
-15
9
6
-20
-20
-22
-21
-16
-21
-20
-12
-12
-7
-26
-27
-18
-17
-22
-19
-10
-14
-22
-22
-18
-2
-6
-5
-10
-18
-31
-25
-5
-9
-18
-12
-7
-11
-13
-13
-8
2
-1
-10
-18
-19
-29
-27
-8
-2
-13
-3
-6
-1
-9
-11
-22
-6
-5
-2
-4
-10
-8
-21
-26
-28
-31
-23
-13
-11
-23
-10
-6
-1
-4
-13
-33
-34
-24
-19
-20
-28
-12
-5
-9
-13
-9
-14
-10
-15
-10
-25
-31
-32
-29
-11
-2
-12
-16
-12
-13
-6
1
17
49
56
61
76
105
120
110
101
80
76
71
57
27
35
15
1
0
-3
-24
-10
-6
-23
-25
-7
-1
-12
-25
-28
-3
-11
-7
-8
-11
-16
-10
-5
-18
-19
-9
-33
-25
-15
-31
-16
-14
-14
-14
-12
-12
-16
-14
-15
-12
-19
-6
-8
-18
-13
-15
-15
-15
-13
-17
-12
0
-11
-1
-7
-10
-27
-27
-4
-2
-10
-5
-10
-9
-9
-20
-31
-8
-3
-14
-11
1
-11
-10
1
15
6
-1
4
-6
2
12
4
-5
-5
-1
5
4
-3
9
14
8
19
27
32
32
11
22
21
17
18
22
19
14
21
20
37
47
28
21
40
46
25
25
25
25
24
19
28
34
27
14
30
26
24
17
20
3
7
10
28
17
6
-7
1
-1
-1
21
10
-6
-17
-7
-9
-12
2
-8
-19
-11
-13
-15
-13
-16
-20
-17
-10
-9
-2
-17
-18
-15
-14
-9
-9
-20
-26
-22
-16
-15
-29
-26
-24
-17
-25
-24
-37
-8
16
16
-5
-32
-32
-23
-4
-12
-10
-4
13
-4
-15
-27
-24
-24
-14
-11
-19
-30
-16
-22
-10
-9
-6
-15
-22
-26
-13
-9
1
-6
-14
-9
-1
1
-15
-21
-14
-9
-6
-14
-12
-12
-17
-21
-22
-22
-32
1
-8
-9
-8
-13
-18
-31
-22
-10
-30
-56
-17
-5
-10
-12
-1
-12
-8
0
-14
-18
-9
-10
-9
-9
-15
-15
-12
-17
-14
-20
-11
-11
-16
-31
-16
-2
-10
-11
-13
-13
-24
-22
-23
-12
-21
-16
-4
-6
-17
-19
-16
-17
-14
-11
-9
-13
-18
-31
-28
-28
-17
-4
-4
-5
-1
-18
-27
-33
-18
-13
-12
-2
-7
-16
-23
-32
-18
-19
-22
-15
-4
-22
-18
-2
-19
-17
-13
-14
-33
-21
-6
-10
-12
-8
-12
-5
-17
-22
-18
-17
-31
-28
-26
-13
-7
5
-5
-15
-18
-32
-12
-11
-11
-1
-12
-15
-16
-23
-13
-4
-3
-10
-14
0
-12
-24
-18
0
0
-7
-15
-19
-6
3
-4
4
-20
-22
-8
1
-8
-17
-10
4
-7
-8
-23
-21
-24
-9
-3
-8
-2
-15
-25
-22
-34
-16
-19
-21
-33
-40
-13
-6
-17
-14
-5
-2
-17
-29
-24
-11
-6
-12
-17
-24
-22
-24
-21
-6
-9
-21
-12
4
6
7
34
45
56
76
105
109
108
102
101
98
82
64
50
40
37
-5
0
12
-4
-5
-3
-9
-13
-13
-20
-9
-6
-5
0
-2
-1
-7
-14
-8
-19
-1
2
-5
-3
-7
-12
-19
-11
-15
-24
-26
-14
-13
-9
1
2
-16
-4
-4
-8
-9
3
-1
-12
-19
-8
-15
-14
-13
-3
2
7
0
-6
-12
-12
13
26
5
-35
-13
6
-2
-8
4
-4
-20
-10
12
10
18
5
-12
2
10
12
-6
2
6
4
5
11
21
32
26
4
-4
7
13
18
19
19
21
14
11
31
40
42
23
16
29
38
38
30
39
36
28
28
35
20
20
35
26
25
29
42
43
67
46
12
20
33
23
9
17
41
34
21
29
44
24
7
-5
-5
-3
-1
-1
1
0
-10
7
-3
-13
-16
-5
-3
-6
-12
-16
-7
0
-11
-11
-21
-17
-7
-10
-21
-9
-17
-14
-10
-12
-18
-25
-27
-28
-32
-18
-9
-14
-17
-13
2
-4
-8
-18
-20
-9
-21
-19
-7
-10
-30
-14
-11
1
-10
-11
-29
-26
-33
-7
14
6
-3
-7
-18
-25
-23
-9
-8
0
-4
-2
-14
-18
-14
-16
-14
0
-9
-20
-16
-13
-18
-21
-21
-15
-14
-23
-33
-10
-13
-32
-25
3
-7
-8
-2
-5
-12
-6
0
-12
-32
-17
-13
-33
-10
20
7
-15
-10
-20
-20
-18
-15
-16
-12
-22
-11
-12
-7
-9
-4
-15
-26
-26
-9
-10
-25
-34
-13
5
-1
-4
-9
-15
-18
-16
-15
-9
-7
-12
-32
-23
-12
-10
-9
-14
-23
-11
-12
-28
-26
-15
-18
-36
-16
-3
4
1
-18
-24
-13
-17
-16
-12
-12
-22
-24
-10
-32
-27
-8
-7
-2
-7
-5
-17
-15
-13
-9
-15
-13
-33
-15
-13
2
-5
-6
-1
-3
-10
-12
-30
-23
-22
-15
-18
-6
-11
-4
-12
-13
-21
-27
-6
8
-5
-10
-27
-22
4
1
-5
-3
7
5
6
11
-5
0
8
-9
-29
-33
-28
-14
-7
-9
-13
-13
-5
-14
-33
-54
-51
-33
-18
-13
-14
-15
-15
-10
-2
-28
-33
-7
7
-2
-7
-13
-26
-12
-14
-6
-10
2
1
11
-12
-29
-12
12
8
-5
10
35
64
67
83
93
85
89
93
83
81
75
62
41
34
17
-5
-14
-8
-8
-1
-2
-11
-7
-5
0
-11
-5
-8
-12
-13
-12
-2
2
-20
-34
-12
-9
-5
-5
-8
-8
-6
-11
-10
-24
-20
-18
-11
-15
-1
3
-14
1
-8
-21
-23
-11
-10
-15
-13
-18
-10
7
-6
-20
-21
-8
3
3
1
0
-4
-9
-5
-18
-30
-13
-4
10
17
26
11
7
-7
-9
-8
2
6
-1
0
10
10
0
11
12
2
-2
3
4
1
8
16
25
25
11
22
29
20
18
29
21
25
19
11
7
12
24
18
13
52
51
45
50
44
43
37
51
35
18
28
34
28
28
35
26
31
18
18
32
15
14
13
-4
-1
2
28
25
14
6
9
3
-3
-2
-6
-7
-22
-17
-17
-13
-9
-14
-11
-15
-18
-19
-11
-19
-14
-14
-11
-16
-6
-11
-16
-20
-24
-38
-30
-24
-24
-26
-13
0
-3
-12
-12
-14
-14
-19
-24
-14
-13
-2
-4
-13
-11
-7
-14
-26
-22
-18
-21
-13
-22
-25
-23
-12
-15
-6
-35
-36
-17
-8
-8
-10
-11
-10
-15
-12
-20
-21
-20
-25
-22
-6
-10
-13
-17
-6
5
-28
-25
-8
-4
-16
-22
-22
-22
-19
-18
-21
-20
-25
-22
-18
-13
-21
-23
-21
-5
-21
-9
-7
-17
-14
-37
-27
-35
-22
-17
-20
-14
6
5
-5
-14
-27
-15
-12
-10
-22
-28
-34
-31
-28
-20
-10
-14
-7
-12
-20
-18
-8
-38
-51
-27
-13
-11
-7
-14
-18
-23
-21
-20
-24
-17
-20
-20
-14
-21
-16
-10
-2
-12
-25
-25
-25
-22
-19
-9
-8
-15
-20
-23
-18
-17
-21
-22
-6
-16
-40
-25
-8
-10
-1
-18
-20
-30
-22
-3
-2
10
3
-10
-10
-4
-9
-10
13
-20
-25
-4
-1
-14
-10
-17
-18
-17
-11
-25
-17
-19
-23
-27
-24
-25
-28
-22
-23
-22
-12
-8
-28
-31
-28
-17
-15
-26
-28
-33
-5
-1
-17
-19
-23
-21
-13
-16
-20
-27
-24
-30
-37
-31
-12
17
10
-33
-20
-2
7
11
23
49
61
75
88
106
115
