-57
-64
-56
-56
-53
-53
-57
-49
-53
-57
-62
-59
-51
-58
-59
-59
-53
-48
-57
-60
-64
-65
-58
-58
-55
-60
-59
-51
-52
-57
-64
-56
-58
-62
-61
-60
-61
-55
-55
-59
-66
-64
-56
-61
-58
-54
-57
-55
-58
-65
-67
-60
-52
-58
-57
-58
-56
-49
-56
-60
-65
-62
-56
-56
-56
-60
-54
-52
-49
-60
-69
-60
-55
-57
-57
-54
-50
-54
-52
-58
-65
-67
-60
-60
-58
-58
-51
-52
-57
-60
-65
-62
-59
-57
-57
-58
-53
-54
-59
-61
-70
-60
-54
-56
-60
-59
-51
-49
-51
-63
-65
-67
-63
-60
-59
-56
-50
-54
-58
-66
-67
-58
-55
-60
-54
-58
-56
-56
-54
-62
-68
-67
-58
-60
-61
-62
-51
-55
-54
-62
-65
-61
-64
-59
-62
-60
-52
-54
-56
-58
-66
-57
-61
-58
-52
-56
-54
-55
-58
-63
-71
-59
-61
-61
-57
-59
-51
-56
-59
-63
-62
-56
-60
-58
-64
-69
-50
-53
-57
-65
-63
-65
-65
-60
-55
-60
-54
-54
-59
-64
-55
-52
-62
-54
-55
-57
-51
-53
-66
-68
-65
-60
-59
-58
-59
-54
-49
-53
-62
-63
-58
-59
-59
-56
-55
-52
-56
-59
-64
-62
-58
-56
-55
-55
-45
-43
-49
-52
-57
-67
-57
-52
-55
-53
-57
-48
-48
-55
-54
-57
-57
-52
-53
-54
-55
-50
-50
-56
-55
-63
-62
-53
-53
-54
-50
-45
-50
-53
-57
-64
-54
-49
-50
-53
-48
-40
-38
-47
-56
-58
-54
-55
-47
-49
-41
-31
-37
-34
-41
-45
-44
-39
-45
-48
-41
-32
-34
-44
-53
-49
-50
-47
-40
-44
-45
-42
-44
-47
-61
-61
-54
-55
-52
-50
-53
-51
-47
-53
-60
-60
-56
-55
-56
-59
-57
-50
-53
-59
-61
-60
-57
-63
-55
-57
-53
-49
-59
-59
-65
-65
-56
-50
-58
-51
-51
-50
-54
-54
-60
-55
-57
-60
-57
-57
-54
-49
-55
-65
-69
-64
-55
-36
-14
-9
2
18
26
32
34
46
40
44
44
36
29
16
1
-21
-34
-39
-48
-44
-54
-63
-66
-61
-63
-62
-60
-57
-56
-52
-54
-55
-51
-52
-54
-55
-61
-55
-54
-56
-57
-51
-46
-48
-54
-57
-62
-57
-52
-57
-53
-51
-46
-41
-48
-55
-62
-53
-55
-53
-56
-53
-44
-46
-54
-52
-61
-62
-49
-45
-43
-48
-42
-46
-44
-55
-55
-44
-55
-48
-43
-45
-38
-41
-46
-49
-58
-45
-44
-47
-46
-46
-40
-37
-38
-47
-49
-41
-41
-42
-40
-36
-30
-34
-36
-43
-39
-36
-41
-40
-30
-36
-26
-21
-32
-34
-34
-30
-29
-24
-19
-24
-20
-14
-17
-26
-21
-17
-16
-10
-10
-3
-5
-2
-4
-14
-11
-6
-13
-4
-1
-3
2
-2
-8
-19
-7
-9
-11
-10
-13
-12
-10
-19
-25
-27
-28
-28
-30
-31
-33
-29
-29
-37
-39
-43
-41
-42
-49
-42
-48
-38
-44
-48
-50
-54
-48
-51
-53
-44
-49
-43
-45
-48
-53
-56
-54
-59
-52
-47
-53
-47
-44
-48
-53
-59
-52
-53
-48
-49
-53
-46
-48
-52
-52
-55
-52
-53
-53
-51
-52
-44
-49
-55
-56
-58
-56
-53
-58
-56
-55
-46
-52
-51
-58
-57
-55
-60
-52
-54
-54
-47
-51
-54
-63
-60
-44
-49
-49
-56
-57
-48
-49
-54
-62
-61
-58
-56
-55
-51
-51
-48
-54
-51
-59
-59
-51
-53
-53
-57
-57
-53
-49
-54
-57
-51
-51
-56
-49
-52
-49
-43
-47
-60
-60
-56
-54
-62
-51
-49
-44
-44
-45
-57
-57
-59
-50
-53
-50
-52
-43
-46
-50
-56
-60
-52
-54
-53
-49
-55
-53
-48
-56
-53
-58
-55
-57
-58
-54
-52
-49
-48
-55
-56
-60
-55
-55
-52
-59
-52
-45
-50
-56
-63
-62
-61
-59
-54
-55
-54
-45
-45
-58
-60
-60
-58
-53
-52
-56
-58
-44
-48
-58
-54
-59
-57
-57
-53
-47
-53
-53
-52
-55
-57
-64
-54
-54
-53
-56
-57
-49
-52
-56
-50
-58
-58
-59
-57
-59
-58
-40
-46
-59
-64
-62
-55
-57
-55
-56
-57
-50
-53
-59
-59
-56
-55
-56
-53
-57
-51
-46
-55
-59
-61
-58
-58
-50
-49
-53
-51
-51
-54
-57
-60
-56
-59
-59
-51
-50
-53
-49
-49
-51
-58
-62
-55
-57
-58
-49
-46
-46
-48
-57
-55
-54
-53
-51
-54
-51
-47
-50
-45
-53
-63
-55
-51
-57
-49
-47
-48
-49
-55
-53
-58
-56
-54
-50
-53
-47
-50
-47
-50
-48
-56
-52
-52
-47
-48
-50
-43
-39
-38
-48
-57
-50
-50
-46
-39
-40
-32
-30
-33
-37
-48
-44
-41
-40
-41
-37
-39
-38
-40
-44
-54
-45
-41
-44
-46
-48
-41
-39
-52
-58
-65
-58
-56
-53
-55
-52
-50
-53
-55
-62
-62
-58
-51
-58
-53
-53
-50
-53
-61
-65
-62
-59
-55
-61
-58
-54
-52
-47
-59
-65
-61
-55
-58
-56
-54
-54
-48
-49
-58
-70
-60
-54
-59
-52
-57
-54
-55
-58
-54
-46
-33
-10
-4
12
26
43
57
56
50
47
42
38
36
27
6
-3
-18
-24
-39
-54
-60
-65
-79
-75
-67
-60
-51
-49
-58
-59
-55
-59
-62
-61
-54
-48
-51
-55
-61
-61
-58
-55
-58
-57
-58
-53
-49
-51
-64
-63
-55
-59
-54
-55
-53
-54
-53
-55
-57
-60
-56
-52
-53
-56
-56
-45
-46
-53
-56
-62
-53
-56
-60
-53
-51
-46
-46
-53
-56
-61
-56
-48
-48
-51
-52
-45
-47
-53
-49
-56
-50
-48
-50
-45
-44
-41
-38
-46
-57
-56
-47
-47
-47
-49
-43
-37
-40
-42
-47
-45
-39
-45
-44
-27
-33
-24
-30
-37
-44
-34
-24
-21
-21
-25
-27
-19
-15
-20
-26
-22
-17
-17
-10
-16
-11
-9
-3
-12
-18
-11
-13
-12
-7
-5
-5
-10
-7
-10
-19
-20
-17
-20
-15
-21
-21
-20
-24
-36
-45
-39
-35
-39
-38
-38
-35
-36
-41
-48
-53
-50
-53
-52
-47
-50
-49
-53
-53
-56
-60
-52
-54
-60
-57
-53
-47
-49
-51
-58
-60
-56
-55
-53
-50
-54
-47
-49
-54
-63
-63
-56
-59
-61
-56
-55
-50
-51
-52
-55
-62
-58
-61
-53
-56
-54
-50
-49
-54
-63
-66
-60
-53
-54
-55
-49
-45
-52
-55
-57
-63
-54
-52
-50
-54
-59
-46
-42
-50
-59
-66
-60
-52
-51
-45
-46
-42
-44
-47
-57
-60
-54
-50
-52
-50
-50
-43
-45
-51
-58
-59
-57
-54
-55
-53
-52
-50
-45
-49
-55
-57
-55
-55
-52
-52
-52
-44
-50
-62
-65
-58
-53
-54
-56
-54
-54
-48
-53
-56
-69
-59
-51
-51
-53
-56
-51
-50
-50
-53
-57
-58
-57
-58
-54
-53
-48
-47
-58
-58
-60
-52
-55
-55
-53
-58
-47
-45
-54
-60
-64
-63
-55
-58
-56
-53
-54
-54
-53
-57
-56
-50
-54
-54
-52
-58
-50
-53
-53
-55
-60
-57
-57
-57
-55
-55
-45
-48
-53
-57
-59
-59
-55
-52
-58
-53
-43
-51
-54
-55
-58
-58
-61
-57
-52
-49
-49
-52
-51
-59
-59
-52
-57
-56
-52
-53
-52
-52
-48
-51
-56
-60
-60
-55
-51
-47
-45
-50
-55
-59
-58
-58
-53
-55
-50
-52
-45
-44
-50
-59
-57
-50
-56
-52
-53
-52
-47
-52
-55
-59
-59
-48
-53
-55
-57
-53
-44
-48
-55
-60
-58
-53
-58
-55
-53
-50
-45
-46
-51
-61
-60
-59
-54
-49
-53
-49
-46
-47
-55
-55
-48
-51
-53
-54
-46
-45
-46
-49
-56
-57
-48
-40
-35
-41
-39
-32
-32
-38
-39
-52
-43
-40
-43
-41
-44
-42
-42
-39
-47
-51
-52
-46
-47
-46
-50
-43
-44
-50
-57
-60
-60
-59
-52
-51
-55
-57
-54
-54
-54
-60
-55
-51
-56
-57
-58
-52
-52
-52
-58
-61
-61
-57
-60
-54
-53
-45
-49
-52
-60
-61
-57
-55
-59
-62
-56
-50
-50
-50
-61
-66
-59
-59
-60
-56
-48
-21
-5
-2
2
14
32
45
48
52
52
51
39
24
6
0
-15
-21
-31
-41
-47
-54
-66
-76
-79
-66
-65
-62
-56
-58
-49
-50
-55
-60
-65
-62
-59
-57
-60
-54
-52
-49
-56
-63
-63
-54
-54
-59
-52
-52
-50
-49
-54
-60
-70
-61
-60
-52
-49
-52
-47
-44
-54
-58
-64
-59
-54
-54
-53
-54
-43
-41
-48
-59
-61
-54
-52
-47
-47
-51
-40
-43
-50
-54
-54
-50
-48
-50
-45
-47
-41
-41
-44
-51
-52
-41
-46
-52
-47
-42
-37
-39
-37
-44
-45
-43
-42
-39
-37
-34
-35
-28
-35
-38
-40
-27
-27
-31
-27
-28
-17
-23
-28
-32
-26
-25
-22
-22
-19
-13
-4
-8
-11
-12
-19
-8
-13
-13
-13
-11
-8
1
-7
-13
-10
-8
-7
-8
-9
-11
-6
-11
-19
-24
-23
-23
-26
-25
-27
-31
-27
-31
-41
-43
-46
-49
-48
-45
-46
-46
-38
-45
-53
-56
-55
-52
-50
-54
-56
-53
-56
-55
-57
-65
-61
-57
-57
-53
-57
-56
-53
-53
-55
-61
-59
-57
-61
-57
-53
-52
-52
-58
-59
-62
-62
-62
-62
-58
-58
-56
-53
-57
-62
-64
-62
-62
-60
-58
-57
-55
-57
-60
-61
-64
-62
-59
-54
-60
-58
-49
-53
-57
-63
-68
-60
-55
-58
-56
-59
-53
-50
-58
-65
-64
-56
-59
-53
-55
-57
-56
-57
-54
-58
-68
-56
-55
-52
-53
-59
-53
-53
-57
-60
-65
-55
-53
-60
-59
-53
-44
-49
-54
-64
-69
-54
-54
-55
-55
-59
-46
-49
-58
-63
-61
-64
-63
-55
-53
-50
-55
-57
-66
-61
-61
-53
-51
-56
-57
-57
-54
-53
-57
-61
-61
-61
-64
-55
-55
-52
-49
-52
-58
-60
-63
-60
-61
-55
-55
-51
-50
-54
-63
-66
-56
-56
-57
-59
-58
-53
-51
-52
-60
-64
-57
-53
-53
-62
-62
-51
-48
-48
-57
-64
-62
-56
-60
-56
-57
-53
-54
-55
-63
-65
-61
-59
-57
-56
-52
-50
-50
-55
-59
-62
-60
-59
-60
-64
-53
-52
-49
-55
-59
-62
-58
-55
-53
-52
-63
-58
-52
-58
-58
-62
-51
-50
-58
-59
-52
-49
-48
-52
-57
-63
-57
-51
-49
-53
-56
-46
-47
-54
-55
-57
-56
-54
-53
-53
-45
-40
-36
-42
-48
-50
-41
-43
-45
-42
-45
-45
-45
-47
-50
-50
-50
-59
-50
-47
-45
-42
-40
-51
-58
-61
-54
-53
-56
-56
-58
-51
-53
-62
-65
-68
-61
-57
-55
-56
-56
-50
-54
-54
-67
-64
-62
-61
-58
-61
-54
-48
-53
-64
-69
-61
-59
-61
-57
-56
-55
-49
-55
-56
-63
-66
-63
-56
-53
-59
-59
-56
-56
-53
-42
-17
-3
0
14
29
40
49
49
45
33
34
26
10
-3
-14
-17
-28
-45
-52
-64
-74
-75
-75
-66
-64
-55
-52
-55
-61
-62
-57
-56
-56
-50
-53
-49
-56
-55
-57
-60
-53
-58
-55
-48
-50
-45
-54
-56
-58
-61
-59
-55
-59
-56
-51
-45
-49
-51
-48
-55
-52
-53
-52
-54
-50
-45
-49
-51
-55
-58
-58
-51
-52
-51
-47
-40
-43
-54
-58
-56
-49
-46
-45
-44
-43
-40
-42
-51
-53
-59
-49
-47
-43
-40
-41
-36
-37
-42
-48
-47
-43
-39
-41
-41
-35
-33
-38
-39
-44
-38
-40
-41
-32
-27
-34
-21
-25
-34
-39
-31
-31
-25
-30
-19
-15
-8
-19
-16
-22
-14
-14
-10
-7
-13
-8
-6
-9
-13
-13
-9
-9
-10
-8
-9
-5
-7
-10
-14
-19
-19
-17
-19
-17
-21
-16
-24
-26
-34
-40
-40
-41
-43
-41
-38
-36
-38
-45
-47
-55
-54
-50
-52
-48
-49
-44
-47
-57
-62
-61
-53
-54
-51
-54
-53
-48
-46
-55
-54
-57
-55
-53
-53
-54
-58
-48
-47
-58
-62
-59
-55
-59
-60
-59
-54
-46
-46
-51
-58
-62
-54
-59
-58
-57
-53
-49
-52
-56
-63
-63
-52
-55
-55
-52
-51
-45
-50
-62
-62
-60
-55
-56
-51
-55
-52
-47
-52
-61
-60
-55
-57
-61
-55
-51
-52
-46
-47
-55
-64
-60
-54
-58
-52
-54
-53
-46
-53
-51
-52
-54
-58
-54
-52
-48
-43
-44
-46
-51
-55
-56
-51
-55
-54
-52
-47
-43
-48
-55
-62
-56
-53
-50
-46
-51
-45
-45
-54
-55
-60
-56
-51
-50
-56
-56
-44
-49
-55
-54
-55
-54
-50
-50
-51
-49
-45
-45
-48
-58
-60
-55
-52
-48
-51
-53
-46
-50
-51
-58
-59
-53
-55
-57
-45
-43
-40
-46
-51
-54
-57
-49
-53
-54
-50
-51
-43
-46
-55
-60
-57
-52
-52
-55
-54
-52
-44
-48
-51
-56
-56
-49
-51
-57
-51
-48
-42
-45
-48
-53
-54
-55
-49
-50
-49
-50
-43
-50
-52
-56
-55
-51
-52
-50
-52
-52
-42
-46
-52
-61
-58
-51
-53
-46
-50
-53
-45
-47
-53
-53
-52
-51
-55
-51
-51
-49
-43
-46
-52
-58
-51
-48
-49
-49
-48
-45
-41
-50
-51
-54
-53
-48
-46
-45
-48
-40
-38
-43
-47
-54
-48
-44
-43
-38
-34
-22
-25
-32
-35
-42
-41
-36
-39
-38
-35
-31
-32
-37
-42
-46
-39
-37
-37
-39
-36
-37
-42
-43
-43
-53
-53
-48
-52
-50
-40
-37
-44
-41
-48
-57
-52
-45
-47
-50
-50
-42
-42
-52
-51
-55
-50
-50
-44
-41
-44
-41
-40
-46
-53
-60
-51
-44
-46
-46
-48
-41
-38
-44
-47
-57
-56
-52
-56
-54
-37
-18
3
5
7
17
39
54
62
71
63
69
56
45
27
16
10
-7
-9
-20
-28
-31
-46
-63
-71
-59
-50
-49
-45
-49
-45
-33
-38
-45
-50
-52
-48
-47
-42
-44
-39
-40
-46
-45
-48
-50
-46
-44
-43
-44
-37
-33
-41
-48
-48
-45
-45
-38
-39
-42
-41
-34
-40
-43
-48
-46
-44
-46
-41
-36
-29
-35
-36
-46
-49
-42
-43
-42
-37
-37
-31
-31
-32
-41
-42
-35
-41
-42
-34
-31
-26
-30
-37
-33
-40
-38
-33
-30
-30
-35
-29
-30
-26
-31
-37
-27
-30
-31
-33
-26
-20
-17
-22
-25
-30
-26
-18
-22
-20
-16
-9
-10
-12
-12
-16
-11
-12
-12
-8
-3
4
3
5
-2
-8
4
5
6
3
6
7
8
-1
-2
-2
3
3
3
2
1
6
10
-5
-11
-13
-10
-15
-15
-18
-14
-14
-16
-22
-34
-34
-28
-27
-28
-32
-34
-27
-27
-40
-44
-42
-38
-41
-36
-36
-35
-31
-35
-45
-47
-43
-42
-44
-38
-45
-41
-36
-39
-45
-48
-41
-43
-43
-39
-38
-36
-33
-34
-45
-48
-40
-41
-41
-43
-46
-37
-38
-38
-45
-51
-46
-40
-45
-41
-37
-36
-35
-40
-45
-50
-43
-35
-37
-37
-46
-35
-38
-47
-44
-52
-43
-41
-37
-40
-39
-36
-36
-43
-42
-47
-37
-37
-37
-38
-38
-34
-33
-34
-43
-49
-43
-37
-41
-36
-39
-28
-32
-36
-45
-46
-41
-42
-38
-37
-39
-33
-32
-37
-44
-44
-41
-40
-44
-40
-33
-29
-34
-39
-41
-43
-42
-37
-38
-39
-38
-34
-35
-40
-45
-44
-45
-39
-37
-38
-42
-35
-37
-36
-42
-41
-43
-41
-41
-37
-38
-35
-39
-43
-43
-41
-37
-46
-41
-42
-36
-36
-39
-39
-50
-48
-41
-40
-34
-37
-35
-28
-40
-46
-47
-44
-42
-41
-40
-41
-34
-34
-39
-42
-45
-41
-38
-37
-40
-39
-42
-42
-43
-40
-45
-40
-35
-34
-37
-35
-29
-35
-42
-50
-51
-44
-39
-37
-36
-39
-30
-30
-34
-38
-49
-42
-39
-42
-36
-37
-34
-34
-37
-42
-48
-40
-37
-34
-40
-38
-34
-33
-38
-45
-45
-37
-39
-36
-40
-34
-30
-36
-33
-39
-42
-44
-39
-37
-36
-33
-29
-33
-37
-38
-42
-37
-30
-32
-29
-31
-28
-30
-31
-34
-31
-25
-25
-18
-18
-16
-18
-19
-27
-32
-33
-27
-29
-29
-26
-28
-18
-22
-30
-32
-31
-29
-30
-29
-34
-35
-27
-33
-39
-44
-35
-38
-39
-33
-31
-32
-31
-33
-45
-45
-36
-36
-30
-38
-38
-31
-24
-37
-38
-42
-45
-41
-38
-33
-34
-30
-27
-36
-45
-40
-37
-33
-39
-35
-33
-32
-27
-39
-41
-40
-36
-34
-38
-40
-40
-29
-11
6
12
13
32
46
61
76
83
85
75
66
57
48
36
13
9
0
-13
-12
-23
-38
-55
-60
-50
-44
-38
-37
-38
-33
-29
-34
-37
-43
-36
-41
-33
-35
-31
-26
-29
-34
-34
-41
-39
-33
-30
-28
-31
-29
-32
-33
-33
-34
-33
-31
-32
-28
-31
-21
-27
-36
-37
-38
-32
-32
-30
-29
-25
-21
-26
-29
-35
-36
-35
-40
-29
-27
-27
-22
-24
-30
-30
-28
-24
-27
-24
-26
-22
-17
-21
-27
-33
-30
-24
-20
-18
-21
-16
-10
-16
-22
-29
-22
-18
-18
-19
-20
-8
-8
-11
-12
-22
-17
-14
-14
-18
-10
-6
3
3
-3
-7
0
2
4
-3
10
18
22
14
0
-1
7
11
13
17
14
18
19
16
12
13
11
11
12
13
12
19
16
8
3
-4
0
2
3
2
-6
0
-12
-20
-16
-18
-20
-21
-22
-19
-23
-18
-15
-27
-27
-33
-30
-30
-25
-30
-26
-23
-25
-29
-32
-42
-31
-29
-34
-34
-33
-25
-27
-35
-41
-36
-28
-30
-31
-31
-33
-27
-27
-31
-39
-41
-38
-36
-28
-27
-25
-25
-26
-32
-41
-42
-37
-36
-29
-34
-35
-23
-31
-37
-40
-35
-30
-33
-24
-26
-29
-31
-28
-37
-42
-34
-34
-35
-34
-32
-26
-25
-34
-36
-37
-34
-30
-36
-34
-30
-26
-24
-30
-32
-36
-30
-29
-34
-31
-34
-28
-25
-30
-30
-37
-30
-35
-32
-28
-30
-27
-26
-28
-32
-38
-36
-28
-22
-24
-32
-29
-25
-28
-29
-38
-33
-27
-30
-27
-29
-24
-26
-31
-27
-33
-34
-29
-30
-28
-26
-24
-27
-32
-36
-41
-29
-26
-32
-32
-26
-17
-21
-24
-34
-43
-32
-31
-33
-31
-29
-24
-23
-22
-29
-39
-36
-33
-30
-30
-33
-22
-24
-32
-38
-38
-30
-31
-32
-35
-31
-26
-24
-31
-33
-32
-29
-27
-32
-31
-34
-27
-27
-27
-33
-38
-31
-30
-34
-29
-26
-26
-29
-36
-38
-35
-33
-33
-30
-30
-30
-29
-34
-28
-33
-32
-33
-31
-29
-28
-34
-31
-28
-33
-40
-33
-28
-29
-30
-26
-23
-27
-28
-32
-38
-32
-37
-35
-29
-28
-23
-25
-22
-28
-40
-33
-35
-33
-29
-30
-24
-23
-31
-33
-31
-27
-30
-30
-28
-31
-26
-24
-30
-34
-37
-30
-24
-21
-25
-27
-15
-25
-27
-21
-23
-19
-19
-18
-20
-16
-5
-5
-10
-19
-29
-18
-21
-25
-21
-18
-16
-19
-22
-18
-28
-21
-23
-25
-22
-23
-24
-25
-30
-33
-39
-41
-32
-35
-28
-27
-25
-27
-32
-30
-37
-32
-30
-33
-30
-33
-26
-25
-29
-36
-42
-35
-37
-33
-29
-32
-20
-25
-34
-41
-36
-34
-37
-34
-28
-28
-27
-28
-33
-37
-36
-32
-39
-43
-39
-30
-22
-13
3
11
29
38
49
60
73
77
79
73
66
62
51
38
21
13
4
-3
-13
-29
-38
-51
-53
-42
-38
-32
-31
-30
-25
-26
-23
-32
-36
-29
-28
-29
-29
-29
-30
-24
-31
-39
-34
-30
-23
-27
-30
-23
-26
-26
-27
-30
-35
-29
-32
-28
-27
-21
-24
-26
-28
-32
-29
-25
-25
-21
-24
-24
-21
-15
-21
-36
-28
-24
-21
-24
-21
-17
-23
-25
-27
-29
-27
-21
-19
-18
-19
-14
-15
-17
-20
-21
-20
-26
-16
-18
-16
-10
-12
-15
-19
-22
-16
-14
-11
-8
-8
2
-2
-9
-12
-15
-11
-4
1
-2
-5
3
7
5
-5
1
6
8
12
14
11
18
19
12
7
11
18
21
24
24
22
27
18
14
19
18
18
17
26
22
22
25
18
11
14
11
13
8
5
0
7
7
4
-10
-13
-12
-11
-14
-11
-13
-11
-15
-13
-24
-26
-19
-19
-23
-20
-21
-19
-14
-18
-28
-29
-23
-25
-23
-21
-22
-17
-18
-20
-23
-31
-23
-26
-27
-21
-18
-19
-21
-23
-31
-35
-29
-24
-24
-23
-22
-18
-22
-23
-28
-31
-24
-21
-23
-26
-23
-18
-25
-25
-30
-36
-24
-21
-23
-29
-27
-22
-14
-21
-27
-33
-26
-28
-25
-23
-22
-16
-21
-28
-31
-24
-22
-24
-21
-24
-24
-20
-16
-22
-31
-29
-29
-26
-18
-22
-21
-17
-21
-26
-26
-26
-25
-22
-18
-21
-24
-14
-19
-20
-22
-23
-17
-23
-18
-21
-20
-16
-18
-26
-25
-24
-22
-20
-18
-17
-18
-17
-24
-26
-32
-29
-23
-23
-14
-19
-17
-20
-18
-25
-30
-24
-20
-22
-26
-21
-17
-12
-18
-23
-23
-29
-23
-24
-23
-21
-13
-17
-22
-27
-28
-20
-21
-21
-20
-22
-16
-16
-22
-24
-29
-21
-25
-23
-17
-21
-18
-18
-23
-26
-27
-24
-18
-23
-25
-22
-19
-18
-27
-29
-25
-22
-26
-22
-24
-21
-18
-10
-19
-22
-26
-25
-26
-23
-23
-21
-14
-18
-22
-25
-31
-21
-24
-23
-25
-23
-18
-17
-21
-28
-28
-18
-21
-22
-19
-22
-15
-14
-22
-29
-26
-25
-22
-22
-24
-24
-18
-21
-28
-33
-29
-25
-22
-21
-18
-17
-12
-15
-22
-27
-26
-24
-26
-25
-23
-21
-9
-13
-23
-29
-24
-22
-25
-22
-18
-11
-10
-18
-23
-26
-19
-16
-22
-13
-15
-9
-6
-8
-10
-15
-9
-9
-8
-10
-10
-5
-1
-7
-10
-22
-14
-7
-9
-10
-11
-9
-9
-12
-17
-24
-20
-20
-23
-20
-19
-10
-17
-22
-23
-27
-23
-23
-28
-23
-18
-15
-22
-23
-20
-30
-25
-25
-25
-17
-21
-18
-18
-19
-21
-29
-28
-28
-24
-20
-18
-13
-16
-17
-26
-30
-26
-26
-27
-19
-21
-15
-20
-22
-27
-39
-28
-18
-8
18
27
45
53
64
66
71
85
81
77
73
69
67
48
24
8
-3
-4
-9
-19
-29
-35
-35
-35
-31
-34
-34
-22
-23
-20
-17
-18
-13
-13
-19
-30
-26
-24
-26
-18
-20
-13
-10
-12
-16
-17
-27
-30
-27
-20
-15
-12
-14
-21
-17
-26
-29
-22
-20
-17
-18
-18
-15
-17
-18
-22
-21
-15
-14
-15
-19
-15
-11
-13
-21
-23
-16
-14
-11
-13
-20
-7
-6
-15
-15
-19
-11
-12
-12
-12
-13
-11
-5
-13
-18
-24
-11
-9
-9
-7
-5
-5
2
-3
-10
-15
-10
-13
-1
-6
3
10
7
4
-3
-3
-3
3
8
10
12
16
15
16
14
2
5
14
13
18
13
24
28
27
18
14
25
26
25
26
27
30
29
24
20
14
19
19
23
21
20
28
23
14
6
1
4
5
3
4
-1
4
1
-9
-16
-15
-13
-14
-17
-13
-14
-9
-11
-18
-24
-25
-21
-22
-23
-19
-16
-13
-14
-23
-31
-26
-21
-21
-16
-21
-16
-14
-17
-22
-20
-21
-23
-20
-13
-19
-19
-16
-17
-15
-24
-23
-20
-23
-25
-15
-12
-14
-27
-34
-29
-19
-14
-18
-18
-23
-16
-9
-20
-27
-29
-22
-21
-21
-21
-16
-8
-8
-22
-22
-22
-22
-17
-18
-18
-20
-20
-22
-17
-20
-24
-18
-12
-18
-19
-14
-11
-11
-17
-19
-18
-17
-13
-18
-15
-14
-8
-10
-15
-19
-25
-18
-18
-16
-17
-17
-14
-13
-18
-24
-26
-17
-9
-12
-15
-12
-5
-13
-19
-25
-17
-16
-14
-18
-15
-7
-11
-15
-20
-23
-19
-18
-18
-17
-14
-12
-9
-12
-20
-23
-21
-18
-17
-15
-21
-15
-7
-8
-20
-27
-19
-13
-14
-15
-18
-17
-12
-13
-18
-25
-20
-22
-15
-13
-17
-14
-14
-17
-20
-24
-17
-13
-18
-11
-12
-10
-9
-9
-10
-23
-24
-28
-23
-12
-20
-10
-13
-19
-17
-24
-22
-13
-15
-18
-12
-14
-11
-15
-15
-26
-18
-16
-15
-18
-13
-7
-12
-18
-24
-24
-21
-15
-8
-8
-14
-11
-12
-20
-24
-23
-14
-16
-22
-16
-22
-14
-7
-10
-17
-20
-19
-23
-13
-16
-11
-8
-13
-15
-23
-26
-22
-17
-14
-7
-9
-15
-18
-24
-26
-23
-14
-10
-13
-16
-15
-3
-6
-14
-23
-28
-25
-21
-18
-9
-12
-14
-14
-20
-22
-23
-17
-13
-10
-14
-17
-9
-7
-14
-14
-20
-15
-19
-9
-1
-8
-13
-15
-12
-15
-19
-3
0
4
5
11
5
2
-7
-9
-5
-9
-11
-4
-6
-5
1
-7
-14
-12
-17
-11
-11
-11
-7
-6
-11
-19
-23
-24
-18
-21
-21
-21
-17
-13
-14
-14
-17
-27
-20
-12
-14
-20
-21
-13
-18
-18
-21
-21
-17
-17
-15
-22
-25
-16
-15
-20
-15
-26
-21
-16
-14
-21
-18
-16
-13
-14
-18
-24
-28
-30
-27
-25
-17
-5
15
32
43
37
58
76
87
90
93
102
92
80
73
52
51
37
22
15
4
1
-7
-26
-38
-34
-26
-25
-21
-20
-21
-14
-14
-17
-23
-27
-23
-24
-18
-17
-23
-11
-11
-20
-26
-26
-17
-17
-16
-18
-22
-18
-14
-19
-21
-21
-15
-20
-22
-24
-18
-7
-16
-19
-22
-21
-12
-19
-24
-23
-16
-12
-8
-17
-20
-24
-16
-17
-17
-15
-10
-9
-10
-16
-24
-14
-13
-16
-18
-16
-6
-6
-9
-17
-18
-12
-14
-10
-13
-7
-2
2
0
-10
-12
-8
-9
-9
-6
1
1
3
4
-1
-9
-1
2
5
3
3
10
17
16
16
5
12
15
14
13
12
21
22
18
16
15
20
27
31
31
31
38
32
28
23
19
27
24
28
32
30
29
26
23
18
14
14
9
11
12
12
15
9
0
-5
-12
-7
-4
-6
-10
-14
-9
-8
-17
-18
-22
-18
-11
-15
-21
-17
-12
-15
-23
-29
-27
-19
-18
-22
-18
-17
-13
-16
-25
-26
-29
-24
-21
-17
-21
-15
-13
-18
-22
-31
-26
-23
-24
-21
-21
-13
-13
-21
-25
-37
-29
-20
-20
-21
-23
-15
-10
-19
-31
-37
-27
-29
-28
-22
-23
-18
-19
-16
-26
-31
-29
-26
-19
-21
-25
-21
-18
-20
-24
-34
-25
-27
-23
-29
-24
-20
-18
-20
-28
-34
-22
-30
-29
-26
-22
-16
-21
-26
-31
-25
-30
-22
-24
-24
-14
-19
-19
-22
-27
-24
-23
-24
-27
-22
-21
-16
-25
-30
-30
-31
-24
-24
-24
-27
-21
-15
-17
-24
-29
-32
-28
-26
-21
-24
-26
-25
-21
-21
-30
-34
-24
-28
-24
-27
-20
-17
-23
-23
-28
-27
-24
-27
-27
-26
-24
-15
-18
-27
-37
-41
-26
-21
-25
-26
-28
-22
-21
-24
-35
-33
-25
-26
-26
-29
-27
-20
-21
-25
-31
-34
-24
-28
-30
-27
-25
-19
-22
-34
-41
-30
-21
-27
-28
-22
-18
-15
-28
-35
-33
-33
-38
-29
-19
-24
-14
-16
-23
-32
-34
-28
-33
-32
-25
-23
-14
-17
-25
-25
-31
-30
-30
-27
-27
-25
-20
-22
-29
-27
-35
-29
-27
-24
-25
-28
-23
-18
-26
-32
-39
-32
-22
-26
-27
-27
-22
-21
-20
-34
-38
-28
-31
-25
-23
-20
-13
-20
-24
-27
-36
-27
-27
-31
-22
-26
-21
-22
-27
-31
-33
-27
-25
-23
-22
-23
-17
-21
-28
-31
-34
-25
-16
-20
-24
-20
-12
-16
-16
-20
-22
-14
-12
-1
3
1
-1
-7
-14
-19
-16
-16
-15
-13
-14
-12
-6
-9
-10
-17
-20
-17
-20
-22
-24
-21
-17
-20
-28
-35
-24
-28
-28
-27
-28
-23
-20
-21
-27
-33
-27
-24
-34
-31
-22
-22
-18
-21
-34
-35
-32
-28
-29
-30
-29
-22
-23
-20
-29
-38
-31
-27
-29
-27
-26
-23
-22
-32
-33
-35
-38
-37
-32
-23
-8
21
37
42
44
55
80
86
90
87
85
85
81
63
46
25
17
7
1
-14
-19
-28
-40
-49
-42
-43
-34
-27
-24
-24
-26
-22
-22
-27
-27
-35
-32
-35
-33
-27
-34
-25
-26
-22
-26
-27
-27
-31
-27
-22
-24
-17
-21
-25
-36
-35
-33
-26
-25
-27
-25
-22
-26
-24
-27
-32
-26
-26
-21
-22
-25
-18
-14
-24
-25
-29
-30
-27
-22
-22
-24
-22
-17
-24
-29
-27
-26
-24
-20
-11
-14
-8
-10
-15
-29
-27
-21
-17
-17
-17
-13
-14
-12
-12
-19
-9
-7
-10
-9
-6
-2
1
-7
-10
-9
-2
-6
-3
3
3
12
12
2
3
-2
7
10
11
18
12
17
25
25
18
12
20
20
15
20
20
24
28
23
18
17
24
22
20
23
20
23
16
12
5
3
8
4
6
4
0
4
2
-11
-15
-16
-12
-14
-16
-19
-18
-10
-10
-16
-25
-33
-24
-22
-23
-19
-22
-18
-18
-21
-27
-38
-29
-28
-30
-24
-21
-14
-15
-25
-36
-31
-26
-29
-26
-26
-26
-18
-20
-27
-30
-34
-29
-36
-29
-25
-28
-21
-22
-29
-33
-32
-26
-24
-31
-28
-26
-20
-28
-35
-39
-33
-27
-26
-27
-26
-22
-20
-23
-29
-32
-35
-29
-29
-26
-22
-23
-20
-27
-30
-34
-30
-22
-22
-26
-25
-25
-20
-21
-20
-26
-31
-30
-23
-29
-26
-20
-18
-22
-24
-31
-27
-24
-28
-25
-24
-29
-20
-22
-25
-33
-24
-17
-22
-25
-20
-17
-14
-16
-21
-38
-32
-29
-27
-24
-19
-18
-25
-30
-29
-38
-28
-25
-31
-29
-26
-23
-16
-16
-21
-32
-29
-26
-23
-21
-26
-24
-19
-27
-26
-28
-25
-25
-21
-22
-23
-25
-28
-29
-31
-30
-21
-23
-22
-27
-27
-21
-24
-23
-32
-34
-29
-32
-27
-23
-27
-19
-16
-24
-29
-32
-27
-25
-22
-25
-26
-21
-25
-30
-31
-29
-27
-25
-25
-26
-26
-21
-22
-29
-31
-29
-28
-26
-15
-20
-21
-21
-27
-32
-33
-28
-27
-28
-31
-29
-22
-17
-28
-28
-35
-25
-20
-25
-22
-25
-24
-21
-27
-28
-36
-28
-26
-32
-25
-26
-22
-21
-22
-29
-29
-23
-23
-25
-22
-21
-17
-20
-22
-32
-28
-14
-24
-22
-11
-10
-4
-1
-10
-15
-22
-17
-15
-15
-17
-14
-10
-13
-14
-14
-18
-14
-24
-23
-20
-21
-20
-21
-24
-26
-34
-30
-28
-30
-26
-28
-23
-25
-30
-32
-37
-30
-29
-26
-29
-25
-23
-25
-28
-29
-36
-36
-36
-30
-27
-25
-24
-25
-32
-39
-36
-30
-26
-27
-24
-26
-21
-23
-32
-33
-34
-26
-34
-32
-27
-20
0
20
27
28
47
62
66
72
77
82
77
70
53
34
22
15
-1
-6
-18
-26
-34
-41
-51
-55
-43
-32
-35
-32
-33
-30
-22
-25
-34
-37
-29
-28
-30
-22
-25
-24
-20
-28
-29
-36
-33
-32
-35
-28
-26
-19
-14
-17
-29
-37
-33
-31
-26
-24
-21
-16
-19
-26
-29
-29
-26
-24
-22
-23
-23
-22
-23
-22
-30
-30
-24
-26
-21
-19
-15
-18
-15
-11
-20
-25
-22
-24
-27
-27
-18
-11
-16
-21
-21
-23
-19
-20
-13
-17
-12
-5
-10
-14
-18
-19
-16
-14
-11
-7
-7
0
-2
-10
-10
-6
0
-7
-5
4
-3
1
5
6
4
3
14
10
9
15
11
17
21
14
8
13
14
14
23
25
21
18
27
22
15
14
16
19
23
22
26
27
20
9
0
-1
7
-3
4
4
-4
0
-8
-12
-19
-23
-20
-9
-13
-20
-15
-9
-16
-21
-33
-28
-26
-24
-20
-27
-24
-20
-20
-26
-33
-25
-27
-21
-22
-27
-25
-26
-26
-27
-32
-33
-32
-32
-28
-28
-25
-29
-36
-36
-39
-32
-27
-30
-24
-26
-25
-23
-27
-34
-39
-29
-27
-29
-30
-33
-27
-24
-30
-30
-34
-30
-28
-27
-27
-29
-24
-27
-30
-29
-36
-33
-32
-33
-30
-27
-21
-22
-24
-33
-34
-28
-26
-27
-29
-27
-22
-17
-26
-37
-40
-26
-26
-26
-23
-21
-21
-27
-29
-34
-37
-30
-28
-26
-24
-21
-23
-28
-28
-33
-32
-27
-28
-25
-27
-29
-24
-29
-30
-38
-33
-28
-28
-27
-26
-23
-20
-21
-29
-28
-27
-32
-33
-35
-33
-25
-27
-27
-27
-29
-25
-29
-32
-28
-27
-23
-20
-27
-33
-35
-32
-26
-23
-23
-32
-28
-26
-26
-30
-33
-28
-31
-29
-27
-30
-25
-21
-26
-30
-36
-30
-25
-30
-34
-29
-21
-22
-26
-26
-34
-27
-20
-30
-31
-27
-26
-25
-29
-29
-35
-26
-32
-30
-30
-24
-15
-24
-34
-26
-34
-30
-29
-32
-31
-23
-19
-23
-22
-30
-32
-28
-24
-29
-33
-25
-22
-20
-26
-28
-27
-19
-25
-20
-15
-9
5
-5
-17
-21
-26
-17
-22
-20
-15
-16
-11
-13
-19
-27
-21
-21
-25
-23
-22
-18
-19
-25
-33
-35
-42
-32
-30
-27
-31
-31
-24
-31
-35
-42
-38
-36
-28
-30
-35
-30
-25
-29
-31
-34
-29
-34
-37
-32
-29
-30
-30
-24
-37
-39
-33
-30
-29
-32
-28
-27
-28
-31
-38
-35
-31
-34
-32
-31
-32
-27
-18
-8
13
19
30
48
64
70
69
81
82
72
61
47
35
22
11
1
-8
-12
-22
-37
-47
-57
-51
-43
-35
-38
-34
-26
-26
-29
-34
-36
-30
-29
-29
-32
-30
-25
-25
-23
-29
-34
-36
-35
-31
-27
-32
-23
-22
-28
-30
-34
-30
-31
-30
-27
-21
-19
-19
-24
-25
-29
-26
-25
-28
-27
-23
-22
-22
-24
-29
-29
-26
-24
-21
-20
-25
-17
-21
-22
-28
-30
-25
-20
-18
-17
-19
-10
-14
-22
-26
-26
-20
-18
-10
-16
-19
-13
-17
-15
-21
-12
-10
-17
-14
-8
-6
-7
-6
-10
-14
-4
-5
1
-4
-3
-1
4
2
2
3
2
-1
-4
6
13
14
18
11
17
14
14
15
16
18
25
24
27
20
10
11
12
18
15
16
24
27
19
12
14
5
9
10
6
0
5
3
0
-7
-11
-14
-11
-13
-10
-14
-17
-11
-12
-18
-26
-29
-26
-17
-17
-18
-16
-19
-26
-30
-33
-35
-27
-25
-30
-24
-23
-19
-19
-24
-25
-35
-32
-23
-21
-18
-25
-26
-16
-27
-34
-33
-34
-27
-26
-23
-27
-17
-20
-29
-34
-38
-29
-33
-26
-21
-31
-28
-28
-26
-33
-31
-25
-25
-24
-27
-32
-27
-24
-28
-35
-32
-33
-28
-29
-29
-28
-23
-24
-31
-34
-29
-27
-31
-32
-26
-18
-14
-22
-24
-31
-29
-26
-30
-28
-25
-21
-21
-23
-25
-31
-30
-31
-29
-27
-19
-20
-19
-21
-36
-34
-18
-22
-27
-25
-25
-18
-20
-26
-34
-38
-32
-24
-25
-22
-27
-20
-21
-23
-23
-35
-26
-25
-21
-19
-22
-25
-31
-28
-30
-35
-30
-26
-24
-24
-24
-24
-28
-30
-30
-30
-26
-25
-22
-30
-23
-18
-24
-28
-28
-35
-31
-29
-25
-28
-30
-25
-29
-27
-28
-36
-31
-31
-25
-25
-22
-19
-21
-25
-39
-35
-32
-34
-32
-20
-20
-23
-19
-27
-33
-34
-28
-26
-28
-30
-26
-21
-26
-30
-33
-30
-29
-31
-26
-32
-30
-21
-27
-27
-31
-31
-33
-30
-29
-29
-27
-24
-27
-32
-36
-32
-31
-28
-25
-23
-20
-21
-21
-24
-32
-28
-25
-25
-29
-24
-21
-19
-24
-27
-25
-21
-19
-15
-11
-13
-7
-9
-14
-18
-22
-18
-11
-12
-20
-18
-13
-11
-19
-25
-26
-25
-19
-18
-17
-22
-20
-25
-26
-32
-34
-31
-26
-24
-32
-32
-28
-25
-27
-31
-38
-31
-28
-25
-25
-22
-23
-25
-31
-32
-35
-28
-33
-28
-23
-32
-26
-22
-22
-29
-39
-31
-34
-31
-27
-31
-24
-23
-28
-32
-39
-30
-32
-31
-24
-6
18
18
28
33
49
62
73
77
84
82
69
72
54
33
17
15
9
-3
-9
-20
-20
-40
-48
-50
-38
-33
-32
-29
-27
-30
-24
-28
-28
-34
-25
-27
-32
-23
-31
-31
-25
-23
-30
-33
-30
-28
-28
-26
-24
-29
-20
-24
-27
-35
-32
-28
-26
-22
-27
-28
-13
-20
-27
-35
-32
-31
-30
-22
-22
-18
-19
-23
-24
-31
-26
-23
-23
-22
-18
-17
-17
-24
-24
-24
-25
-23
-21
-20
-19
-10
-9
-15
-23
-27
-19
-20
-11
-11
-15
-17
-9
-13
-17
-24
-20
-12
-12
-10
-12
-8
-1
-7
-8
-9
-4
-3
0
3
-4
1
5
2
1
-2
8
11
11
8
11
22
26
20
13
11
16
17
20
19
19
29
25
22
13
11
18
20
14
12
20
22
14
2
0
2
8
5
6
-2
-6
2
-2
-12
-18
-18
-15
-17
-13
-16
-20
-13
-14
-23
-27
-26
-29
-29
-19
-18
-21
-19
-22
-23
-33
-34
-24
-20
-19
-29
-20
-19
-27
-31
-35
-27
-30
-25
-25
-27
-20
-22
-25
-27
-31
-27
-23
-29
-31
-27
-21
-20
-23
-31
-29
-26
-20
-30
-29
-27
-23
-21
-28
-26
-29
-29
-26
-27
-26
-28
-19
-17
-24
-25
-29
-26
-23
-32
-31
-26
-23
-18
-25
-29
-33
-28
-25
-26
-22
-24
-19
-18
-21
-31
-38
-26
-27
-27
-27
-24
-19
-19
-28
-27
-29
-28
-23
-21
-24
-22
-21
-19
-25
-30
-30
-24
-30
-29
-29
-23
-16
-17
-25
-25
-28
-24
-29
-25
-24
-26
-18
-21
-30
-30
-27
-24
-25
-25
-26
-23
-18
-21
-28
-33
-30
-30
-32
-25
-23
-24
-22
-18
-28
-34
-31
-28
-27
-23
-21
-26
-19
-19
-24
-31
-31
-27
-25
-28
-23
-20
-13
-19
-28
-31
-28
-31
-31
-24
-18
-23
-19
-24
-29
-35
-34
-31
-28
-25
-20
-15
-24
-29
-26
-27
-30
-30
-32
-27
-22
-19
-24
-26
-30
-28
-20
-26
-20
-24
-29
-17
-21
-26
-31
-34
-26
-21
-26
-26
-28
-21
-13
-23
-30
-36
-30
-29
-23
-24
-25
-25
-22
-22
-24
-25
-24
-18
-18
-22
-20
-16
-18
-20
-21
-20
-13
-13
-14
-11
-7
0
0
-10
-16
-22
-12
-17
-11
-12
-15
-11
-15
-21
-20
-20
-15
-18
-22
-23
-19
-15
-18
-28
-35
-34
-31
-25
-25
-22
-25
-18
-24
-29
-32
-29
-27
-25
-28
-31
-26
-21
-22
-24
-34
-32
-30
-27
-27
-27
-22
-20
-21
-27
-38
-32
-28
-23
-24
-27
-24
-21
-27
-32
-34
-30
-30
-30
-34
-31
-22
1
15
27
31
45
60
72
84
90
91
85
72
63
54
39
24
13
6
-8
-12
-25
-37
-51
-54
-39
-32
-32
-28
-23
-21
-20
-23
-28
-35
-29
-27
-25
-26
-26
-20
-20
-27
-31
-34
-36
-30
-27
-23
-23
-22
-19
-25
-27
-26
-22
-28
-26
-24
-24
-20
-26
-23
-27
-28
-25
-20
-20
-19
-16
-17
-23
-23
-30
-31
-22
-26
-21
-15
-18
-12
-15
-21
-26
-32
-24
-18
-17
-17
-9
-9
-28
-23
-24
-18
-19
-18
-15
-10
-14
-8
-9
-14
-23
-16
-14
-16
-10
-11
-7
1
-2
-6
-10
-9
-5
-7
-2
1
5
5
8
2
2
5
7
8
7
13
19
20
17
10
10
15
14
18
19
26
27
28
26
21
16
13
16
17
19
22
21
21
12
11
3
11
7
4
6
0
0
-6
-7
-9
-15
-14
-15
-13
-15
-19
-13
-16
-15
-21
-24
-20
-20
-29
-26
-24
-20
-23
-20
-25
-35
-28
-31
-26
-26
-28
-20
-21
-26
-35
-36
-29
-33
-27
-24
-27
-24
-22
-26
-30
-32
-26
-31
-27
-29
-25
-21
-27
-30
-33
-38
-33
-29
-27
-28
-23
-21
-24
-33
-38
-34
-28
-33
-29
-28
-18
-15
-27
-32
-36
-33
-29
-28
-26
-28
-28
-24
-26
-32
-29
-30
-28
-31
-25
-25
-22
-20
-23
-29
-38
-28
-29
-27
-26
-23
-21
-20
-25
-22
-25
-28
-31
-26
-22
-27
-29
-19
-18
-19
-26
-27
-31
-25
-26
-26
-20
-23
-24
-24
-25
-27
-28
-25
-25
-25
-21
-21
-23
-28
-37
-29
-27
-26
-29
-26
-24
-27
-28
-28
-31
-22
-25
-29
-28
-28
-19
-20
-24
-31
-33
-31
-28
-25
-27
-19
-18
-16
-24
-22
-32
-31
-28
-27
-27
-27
-15
-16
-23
-32
-31
-28
-31
-27
-27
-23
-20
-26
-28
-33
-38
-28
-29
-32
-30
-29
-18
-20
-27
-33
-34
-32
-31
-30
-25
-27
-20
-24
-29
-30
-29
-30
-31
-28
-31
-28
-22
-23
-27
-36
-31
-25
-31
-22
-25
-23
-20
-25
-27
-29
-36
-35
-33
-28
-16
-18
-20
-20
-28
-32
-27
-21
-22
-20
-19
-22
-12
-8
-10
-20
-20
-15
-17
-19
-18
-10
-9
-14
-15
-27
-19
-20
-23
-13
-20
-15
-15
-24
-34
-36
-27
-31
-33
-37
-35
-21
-17
-23
-28
-39
-41
-40
-42
-36
-25
-26
-29
-33
-38
-43
-40
-37
-32
-32
-31
-32
-35
-32
-39
-46
-32
-38
-33
-26
-30
-30
-35
-40
-39
-38
-36
-37
-38
-37
-30
-23
-33
-50
-45
-46
-36
-23
1
18
27
44
53
56
58
61
67
68
67
57
40
31
12
-3
-13
-28
-26
-38
-53
-55
-58
-50
-46
-44
-48
-45
-39
-42
-36
-34
-38
-31
-33
-40
-45
-42
-42
-39
-39
-36
-39
-35
-36
-38
-42
-42
-41
-43
-37
-39
-36
-32
-36
-35
-41
-34
-35
-40
-35
-35
-33
-29
-36
-46
-43
-36
-38
-38
-38
-34
-30
-28
-30
-40
-41
-36
-32
-36
-38
-29
-25
-26
-28
-35
-39
-34
-29
-32
-28
-28
-25
-23
-31
-31
-35
-33
-35
-26
-21
-23
-16
-18
-27
-30
-35
-26
-19
-18
-22
-17
-13
-14
-14
-26
-25
-22
-20
-10
-5
-6
-1
-2
0
-5
-11
-4
-3
-7
2
5
10
4
3
4
-3
4
0
5
8
5
11
11
8
4
0
3
-3
0
2
1
4
-6
-9
-17
-21
-23
-24
-19
-24
-17
-16
-24
-24
-27
-29
-35
-33
-34
-38
-33
-31
-33
-32
-35
-36
-35
-40
-34
-34
-36
-29
-32
-44
-44
-43
-40
-41
-39
-39
-39
-32
-36
-42
-42
-43
-39
-40
-40
-41
-39
-32
-38
-43
-52
-43
-37
-42
-40
-43
-35
-36
-38
-39
-49
-41
-38
-34
-31
-36
-37
-39
-40
-43
-44
-45
-33
-37
-42
-42
-37
-32
-41
-40
-43
-36
-38
-41
-42
-41
-31
-31
-36
-40
-46
-40
-42
-38
-34
-40
-33
-29
-36
-36
-42
-37
-44
-40
-31
-37
-29
-27
-28
-32
-47
-42
-40
-40
-40
-38
-31
-30
-37
-39
-37
-39
-43
-33
-38
-40
-31
-31
-37
-41
-44
-37
-38
-48
-44
-43
-29
-30
-38
-44
-44
-35
-36
-38
-37
-38
-30
-34
-39
-44
-42
-40
-41
-38
-33
-39
-37
-33
-37
-51
-42
-40
-40
-37
-40
-36
-30
-32
-41
-40
-40
-42
-46
-41
-37
-37
-32
-31
-34
-46
-42
-45
-42
-44
-40
-31
-31
-35
-44
-46
-39
-45
-44
-46
-38
-29
-31
-34
-41
-43
-44
-40
-41
-36
-34
-33
-30
-39
-44
-44
-39
-38
-38
-44
-37
-34
-37
-39
-34
-38
-44
-38
-40
-38
-37
-33
-36
-43
-39
-51
-40
-38
-37
-41
-43
-28
-33
-39
-37
-47
-39
-34
-33
-38
-38
-34
-33
-34
-36
-41
-37
-40
-40
-35
-35
-22
-25
-19
-22
-26
-22
-26
-25
-28
-27
-25
-23
-32
-38
-37
-24
-32
-29
-25
-26
-22
-28
-36
-39
-35
-34
-38
-40
-44
-38
-34
-35
-38
-43
-41
-38
-43
-42
-40
-42
-31
-37
-45
-47
-44
-43
-42
-39
-33
-32
-33
-36
-42
-47
-48
-45
-43
-42
-39
-35
-33
-36
-37
-45
-42
-39
-36
-39
-39
-35
-37
-42
-51
-50
-37
-18
-1
11
20
36
52
64
57
63
62
60
54
52
39
34
17
3
-11
-24
-18
-29
-37
-55
-62
-42
-40
-41
-39
-48
-44
-44
-38
-37
-34
-27
-36
-43
-40
-45
-36
-41
-40
-37
-31
-32
-34
-40
-47
-45
-40
-42
-38
-38
-32
-29
-30
-33
-40
-46
-39
-33
-33
-26
-28
-27
-28
-32
-41
-43
-39
-34
-29
-31
-31
-24
-21
-34
-36
-34
-34
-35
-28
-26
-27
-25
-17
-29
-35
-38
-29
-30
-27
-25
-25
-21
-19
-26
-36
-29
-21
-23
-20
-23
-20
-14
-19
-25
-24
-22
-19
-18
-17
-16
-13
-5
-17
-12
-17
-11
-11
-5
-10
-6
-1
0
-5
-3
0
2
-3
3
7
8
13
13
9
6
7
9
8
6
7
10
16
20
11
7
7
4
2
2
6
9
5
0
-2
-8
-13
-9
-10
-17
-13
-17
-17
-16
-28
-33
-30
-22
-24
-23
-31
-31
-26
-27
-33
-39
-35
-29
-35
-33
-38
-33
-28
-32
-35
-35
-40
-39
-39
-35
-36
-35
-29
-31
-34
-41
-43
-38
-39
-39
-35
-26
-20
-30
-38
-38
-43
-32
-31
-34
-40
-37
-29
-35
-36
-48
-49
-38
-36
-34
-31
-30
-29
-30
-37
-46
-43
-31
-33
-30
-33
-36
-37
-37
-40
-43
-33
-39
-36
-35
-35
-36
-31
-34
-44
-40
-38
-37
-33
-37
-41
-30
-32
-36
-41
-44
-36
-36
-35
-39
-36
-31
-31
-37
-38
-40
-45
-40
-33
-36
-33
-28
-30
-29
-36
-47
-40
-40
-36
-40
-37
-26
-35
-37
-39
-44
-36
-37
-41
-36
-36
-32
-31
-37
-39
-44
-45
-41
-46
-35
-37
-28
-32
-37
-39
-39
-38
-39
-38
-36
-38
-32
-33
-41
-44
-47
-45
-37
-36
-40
-39
-34
-33
-38
-41
-47
-42
-40
-39
-42
-40
-36
-38
-43
-45
-41
-35
-35
-40
-40
-43
-34
-34
-38
-44
-47
-44
-44
-41
-39
-43
-39
-39
-42
-50
-49
-42
-39
-42
-41
-43
-33
-33
-43
-45
-43
-39
-43
-42
-41
-37
-34
-36
-42
-53
-45
-44
-35
-35
-38
-40
-30
-33
-46
-42
-41
-38
-40
-37
-41
-35
-27
-34
-41
-44
-37
-39
-42
-39
-34
-28
-29
-33
-38
-42
-38
-37
-26
-26
-28
-23
-17
-18
-25
-31
-30
-27
-29
-31
-28
-23
-25
-24
-28
-34
-32
-21
-26
-33
-32
-29
-29
-36
-41
-47
-38
-41
-37
-42
-37
-35
-34
-41
-45
-46
-40
-40
-36
-41
-42
-29
-35
-44
-46
-47
-39
-40
-40
-36
-38
-34
-33
-35
-40
-46
-49
-42
-39
-38
-36
-32
-31
-45
-43
-44
-40
-41
-43
-41
-40
-37
-38
-35
-22
-8
9
21
32
47
61
73
78
70
62
54
54
41
30
16
7
-8
-15
-23
-43
-45
-55
-58
-50
-42
-38
-34
-37
-40
-44
-43
-38
-37
-36
-34
-31
-30
-30
-37
-43
-37
-38
-36
-35
-38
-31
-23
-33
-39
-42
-39
-40
-37
-36
-34
-28
-25
-31
-38
-40
-38
-33
-31
-32
-35
-32
-25
-27
-37
-44
-36
-37
-34
-28
-28
-21
-22
-26
-35
-44
-34
-36
-32
-23
-23
-24
-25
-27
-24
-30
-29
-24
-26
-25
-23
-17
-20
-22
-30
-30
-24
-22
-21
-20
-21
-10
-15
-14
-19
-21
-14
-23
-17
-15
-9
-5
-2
-6
-8
-13
-7
-4
0
-2
-1
10
11
5
3
-3
2
9
15
15
16
28
22
13
14
11
11
14
21
17
17
28
22
10
0
6
3
5
5
1
3
3
3
-8
-12
-14
-6
-14
-14
-17
-15
-15
-22
-26
-34
-33
-31
-24
-22
-30
-28
-22
-31
-35
-36
-30
-33
-34
-38
-36
-37
-29
-27
-32
-35
-31
-33
-37
-31
-36
-29
-27
-28
-40
-40
-32
-32
-31
-35
-29
-26
-24
-28
-37
-43
-37
-35
-35
-31
-35
-31
-29
-33
-37
-43
-36
-39
-38
-36
-37
-33
-38
-36
-44
-39
-32
-32
-37
-33
-31
-32
-28
-28
-33
-38
-36
-33
-32
-32
-29
-29
-37
-35
-37
-39
-33
-30
-33
-30
-29
-21
-25
-34
-41
-42
-32
-36
-36
-27
-29
-28
-28
-28
-37
-42
-34
-33
-38
-31
-34
-23
-24
-32
-40
-39
-34
-33
-28
-38
-40
-33
-38
-35
-38
-37
-32
-35
-35
-30
-30
-24
-30
-37
-39
-35
-36
-38
-33
-34
-33
-26
-28
-38
-41
-39
-36
-36
-31
-32
-34
-33
-32
-39
-43
-37
-37
-37
-30
-34
-31
-37
-38
-34
-41
-39
-35
-38
-34
-35
-30
-26
-31
-38
-41
-35
-35
-38
-34
-37
-34
-31
-34
-38
-43
-38
-35
-37
-37
-35
-31
-33
-32
-39
-43
-42
-35
-37
-35
-37
-35
-30
-37
-49
-48
-37
-38
-35
-28
-32
-26
-28
-37
-39
-45
-45
-38
-37
-35
-34
-23
-34
-35
-35
-39
-37
-37
-32
-30
-31
-24
-24
-33
-35
-36
-29
-22
-22
-16
-16
-17
-20
-24
-26
-34
-28
-27
-24
-21
-29
-19
-22
-24
-31
-33
-20
-24
-32
-33
-35
-30
-34
-40
-46
-44
-41
-40
-35
-37
-39
-33
-37
-35
-43
-42
-43
-36
-35
-39
-43
-28
-31
-42
-49
-41
-42
-41
-38
-36
-36
-34
-36
-37
-43
-42
-36
-36
-37
-40
-39
-35
-37
-42
-49
-37
-38
-43
-40
-38
-34
-15
5
16
22
34
52
65
71
77
78
77
71
58
33
27
9
-5
-11
-22
-23
-32
-43
-58
-65
-51
-43
-41
-40
-35
-26
-33
-41
-41
-42
-44
-36
-36
-34
-39
-31
-35
-38
-39
-40
-35
-36
-35
-37
-37
-31
-33
-38
-40
-42
-36
-32
-31
-37
-32
-27
-30
-29
-36
-44
-38
-34
-38
-33
-32
-21
-23
-30
-36
-36
-33
-34
-27
-24
-28
-25
-29
-33
-35
-34
-28
-32
-26
-23
-22
-17
-21
-26
-32
-38
-27
-25
-25
-22
-18
-12
-20
-23
-22
-24
-22
-20
-19
-20
-17
-11
-10
-11
-20
-17
-11
-16
-13
-7
-8
0
-8
-8
-7
-1
3
2
-8
-2
7
12
8
3
0
3
13
10
9
18
15
16
10
12
8
10
12
10
11
10
15
14
5
3
-2
2
-6
-4
-5
-10
-6
-7
-13
-14
-19
-21
-26
-26
-27
-30
-21
-17
-24
-29
-33
-31
-30
-31
-29
-29
-24
-21
-30
-32
-37
-35
-30
-26
-31
-30
-25
-24
-29
-34
-34
-28
-29
-31
-31
-33
-19
-23
-30
-35
-36
-26
-25
-26
-27
-25
-21
-22
-30
-36
-39
-32
-29
-27
-29
-29
-28
-29
-33
-36
-39
-32
-31
-31
-28
-29
-24
-26
-33
-40
-41
-34
-34
-32
-30
-28
-22
-22
-32
-39
-32
-32
-35
-29
-32
-25
-22
-28
-41
-39
-32
-32
-35
-28
-31
-25
-25
-29
-35
-41
-37
-34
-38
-32
-36
-28
-26
-32
-38
-44
-36
-35
-35
-33
-33
-26
-30
-36
-40
-47
-35
-33
-32
-33
-36
-29
-27
-29
-37
-40
-38
-32
-32
-33
-32
-31
-25
-32
-41
-45
-32
-35
-32
-33
-30
-28
-31
-32
-42
-40
-34
-36
-35
-28
-28
-24
-28
-34
-39
-39
-33
-32
-34
-40
-37
-27
-31
-35
-38
-40
-38
-40
-33
-35
-35
-28
-33
-36
-39
-44
-38
-37
-31
-31
-30
-28
-28
-35
-39
-41
-35
-32
-29
-34
-33
-27
-28
-34
-40
-37
-32
-32
-30
-19
-21
-19
-21
-24
-24
-26
-21
-24
-23
-22
-22
-15
-20
-31
-35
-29
-29
-32
-27
-23
-23
-18
-26
-34
-38
-34
-33
-31
-27
-34
-32
-28
-34
-40
-36
-37
-37
-41
-35
-34
-28
-28
-32
-35
-41
-39
-38
-41
-40
-38
-28
-30
-34
-40
-47
-38
-37
-35
-33
-30
-25
-29
-34
-41
-47
-42
-34
-30
-29
-35
-33
-35
-40
-46
-46
-36
-24
-4
12
19
38
49
54
62
62
68
67
59
55
43
39
20
1
-14
-29
-27
-32
-47
-58
-68
-53
-40
-43
-47
-48
-46
-43
-37
-34
-39
-34
-37
-43
-48
-50
-38
-40
-44
-40
-40
-29
-30
-38
-44
-47
-36
-37
-37
-33
-34
-29
-32
-36
-43
-41
-38
-35
-32
-36
-33
-30
-31
-37
-39
-38
-39
-32
-32
-35
-34
-21
-31
-35
-44
-44
-32
-29
-24
-28
-30
-29
-34
-35
-44
-37
-29
-28
-29
-30
-23
-20
-27
-32
-37
-33
-26
-26
-30
-32
-18
-18
-24
-29
-32
-26
-26
-18
-18
-21
-23
-13
-16
-22
-24
-18
-12
-10
-10
-10
-3
-3
1
-5
-8
-4
4
10
3
3
8
4
1
-1
-1
4
2
5
8
8
12
12
5
3
-5
2
1
8
1
-3
-1
0
-11
-13
-22
-13
-16
-21
-19
-24
-16
-18
-28
-34
-38
-32
-34
-31
-28
-31
-29
-28
-32
-38
-43
-41
-38
-34
-36
-40
-32
-33
-35
-45
-50
-42
-39
-33
-32
-34
-30
-34
-45
-50
-42
-40
-41
-42
-38
-37
-27
-35
-35
-48
-47
-39
-40
-40
-43
-40
-33
-39
-43
-44
-39
-42
-45
-38
-39
-38
-38
-35
-42
-48
-46
-41
-42
-41
-42
-36
-29
-36
-42
-46
-40
-42
-40
-38
-37
-30
-32
-37
-37
-46
-42
-34
-39
-41
-40
-35
-34
-33
-36
-41
-39
-36
-40
-39
-37
-30
-30
-35
-33
-41
-36
-41
-35
-37
-33
-29
-32
-38
-38
-40
-39
-38
-34
-34
-32
-33
-36
-39
-42
-41
-36
-38
-39
-40
-39
-30
-35
-43
-39
-44
-36
-36
-30
-37
-35
-32
-33
-38
-39
-42
-39
-35
-38
-36
-43
-33
-34
-36
-41
-43
-33
-39
-38
-34
-35
-31
-34
-39
-43
-43
-33
-38
-39
-34
-38
-34
-35
-37
-40
-39
-37
-38
-39
-35
-35
-29
-34
-45
-44
-43
-43
-37
-37
-35
-33
-32
-31
-36
-45
-39
-33
-34
-32
-35
-34
-26
-32
-35
-33
-27
-30
-26
-23
-24
-24
-21
-24
-30
-36
-31
-31
-27
-27
-25
-26
-23
-23
-36
-39
-34
-34
-34
-34
-33
-35
-34
-41
-44
-45
-43
-41
-43
-45
-42
-40
-40
-40
-41
-45
-42
-43
-41
-41
-43
-40
-38
-43
-49
-51
-47
-44
-46
-43
-43
-36
-37
-44
-48
-47
-44
-43
-43
-42
-44
-34
-39
-42
-42
-52
-49
-49
-44
-33
-13
12
24
26
32
47
57
65
66
60
55
55
44
28
7
-7
-9
-25
-30
-36
-46
-56
-58
-60
-63
-55
-45
-44
-44
-49
-39
-33
-36
-43
-47
-46
-45
-45
-40
-41
-41
-35
-41
-43
-52
-51
-44
-46
-47
-41
-41
-35
-44
-46
-50
-48
-47
-44
-44
-46
-44
-39
-42
-51
-52
-40
-42
-44
-45
-46
-37
-31
-34
-43
-52
-41
-40
-37
-36
-35
-31
-35
-41
-41
-44
-37
-35
-36
-39
-41
-36
-34
-36
-41
-42
-36
-34
-34
-29
-35
-25
-26
-31
-33
-35
-31
-36
-29
-29
-28
-23
-22
-24
-25
-31
-26
-21
-17
-17
-16
-13
-12
-15
-18
-18
-9
-8
0
-4
-5
3
3
4
-6
-9
1
1
-3
6
7
13
9
1
-5
-10
-2
-1
-4
-1
-4
-8
3
-9
-20
-19
-17
-21
-24
-17
-20
-18
-23
-28
-43
-44
-35
-33
-28
-37
-36
-33
-35
-38
-44
-43
-41
-49
-40
-39
-42
-37
-40
-42
-52
-49
-44
-47
-42
-44
-41
-35
-37
-43
-47
-48
-44
-39
-45
-37
-35
-41
-44
-42
-49
-47
-46
-47
-43
-40
-37
-36
-41
-50
-53
-45
-41
-46
-40
-44
-38
-40
-43
-47
-52
-48
-48
-45
-44
-44
-38
-40
-43
-48
-55
-46
-46
-47
-45
-40
-34
-41
-41
-49
-53
-42
-41
-46
-44
-44
-38
-37
-43
-43
-44
-42
-44
-48
-49
-47
-34
-43
-46
-45
-47
-41
-47
-43
-44
-42
-34
-37
-40
-46
-52
-50
-42
-35
-37
-45
-39
-42
-45
-47
-48
-44
-44
-42
-45
-45
-38
-38
-38
-44
-51
-40
-41
-38
-41
-47
-39
-37
-42
-50
-48
-44
-46
-45
-43
-39
-38
-39
-44
-50
-48
-44
-44
-44
-42
-42
-36
-38
-46
-51
-53
-43
-38
-38
-40
-39
-38
-42
-46
-52
-51
-42
-41
-35
-36
-36
-37
-37
-42
-49
-41
