-2
-1
-1
4
4
1
10
18
12
-16
-11
-6
-9
-2
0
-5
-2
8
-7
-2
0
-1
-5
-3
8
16
16
8
-5
-9
-6
2
2
-7
0
-1
8
3
-10
-13
-7
-1
-2
5
9
0
2
-1
-8
-8
-3
-2
-4
2
-5
-10
-6
-7
-9
0
1
4
-3
5
11
1
-7
-4
0
3
0
-7
-10
-5
-12
-6
-3
3
-1
0
-1
4
-2
1
-1
-5
0
7
0
-4
-3
4
10
10
3
2
9
6
-8
-10
-9
-8
0
-3
-3
0
-7
-5
-18
-9
-7
1
-9
-1
-1
-8
-5
-8
-16
-10
-8
-2
5
8
-12
-16
-11
-6
-18
-11
-6
-10
-13
-13
-20
-20
-17
-22
-22
-6
13
24
40
70
82
85
100
91
78
95
89
75
105
112
114
105
93
75
62
30
4
-18
-26
-27
-21
-11
0
2
2
2
10
5
3
5
1
-5
3
13
-6
-5
-1
-2
4
1
5
12
13
-1
-7
2
8
1
1
7
8
8
8
11
13
11
5
10
4
10
0
7
5
11
12
16
21
17
20
21
20
18
16
12
4
11
15
18
18
20
30
28
30
29
24
29
32
34
33
26
29
33
42
37
33
31
36
44
47
49
44
36
39
48
53
50
53
46
46
52
58
58
57
65
62
62
57
61
65
62
57
59
63
66
66
64
61
62
51
58
57
49
47
57
50
58
51
41
43
26
28
23
24
30
18
12
6
13
19
8
10
11
8
6
7
-2
-1
6
-1
3
3
7
9
-1
-5
1
2
11
7
4
4
7
1
-8
-1
3
-2
7
0
0
11
12
11
-3
1
-3
-2
2
7
6
6
8
-1
6
6
-1
-1
12
12
11
7
-4
0
1
2
0
0
7
10
5
-6
4
-6
-3
4
2
2
-2
-1
-5
-7
8
-6
-15
-1
-2
-6
-1
2
-3
-5
-3
-12
-13
0
-2
-7
-2
-6
-8
-2
5
-10
-14
-24
-20
-9
-16
-5
-6
-3
1
-10
-9
-8
-16
-12
-4
-1
1
-3
3
-1
-9
-11
-15
-6
-24
-25
-22
-13
-10
-14
-3
-5
-12
-8
-5
-12
-10
-11
-13
-15
-3
-6
-15
-15
-7
-13
-7
-7
-4
-2
3
0
3
3
4
-3
-5
1
-6
-4
-1
-8
-6
-7
-2
-9
-12
2
9
-9
-7
-5
-13
-13
-17
-14
-16
-7
-12
-16
-12
-16
-17
-13
-8
-4
-9
-15
-19
-13
-16
-15
-19
-10
-7
-23
-23
-13
-25
-24
-15
-20
-9
-6
6
30
40
57
65
82
90
94
100
103
90
89
105
120
118
100
91
61
34
2
-35
-50
-41
-30
-16
2
6
-1
-8
3
0
2
-8
-5
-3
-9
0
0
-11
-4
-1
-4
-9
-9
-2
-7
-5
-3
1
8
-2
3
13
6
0
-6
-6
-11
-8
2
0
-4
8
3
4
7
11
-1
-8
-2
-2
8
15
11
4
8
12
10
10
11
1
1
13
10
10
16
15
9
14
22
16
21
22
32
24
17
25
28
39
26
21
22
23
27
28
28
40
41
48
45
42
42
43
47
55
47
40
51
68
54
49
51
46
44
43
49
53
50
53
55
48
52
53
56
47
50
48
41
47
44
36
36
31
19
21
13
15
18
19
18
18
13
11
2
-3
0
6
4
3
5
-2
-3
-1
-4
-11
-16
-16
-7
-3
0
-8
1
-4
-6
-4
-3
-14
-10
-7
-4
-1
1
-6
-11
2
5
0
-1
-4
-15
-12
6
-2
6
2
-2
-3
-3
-3
-7
-11
-14
-12
-9
-4
-10
-4
-1
-8
-3
-4
2
8
4
-2
-6
-7
-3
8
6
4
5
5
-22
-21
-11
-10
-3
3
-4
-2
-10
-15
-14
-17
-10
-6
-10
-14
-14
-12
-12
-5
-11
4
4
-1
-11
-9
-8
-9
-13
-10
-17
-12
-1
-7
-7
-12
-14
-7
-3
-10
-23
-10
-7
-1
1
4
-3
-7
-2
-9
-11
-21
-14
-12
-17
-22
-22
-8
-13
-20
-22
-13
-19
-25
-11
-12
-13
-3
-12
-9
-10
-6
-12
-11
-9
-6
-4
-7
-5
0
-6
-11
-17
-18
-12
-10
-18
-8
-9
-4
-4
-5
-8
-4
2
-3
5
7
3
1
3
-4
-7
5
-6
-3
0
-8
-7
-8
-17
-15
-13
-13
-11
-7
-9
-12
-14
-21
-24
-12
-9
-14
-10
-6
-9
-22
-14
-6
-8
-18
-28
-23
-18
-10
-15
-12
-17
-7
-18
-24
-26
-22
-27
-31
-24
-24
0
6
16
42
67
86
88
89
84
91
97
79
99
113
111
102
93
82
52
25
-5
-40
-39
-34
-30
-9
-18
-9
-5
-1
1
-4
-8
-9
-9
-11
-5
-3
-8
-2
-14
-15
-16
-11
-5
0
-2
-1
1
7
-3
4
9
-3
3
4
-2
5
14
11
9
10
5
-13
-18
7
11
10
-1
0
-9
-2
3
10
7
12
7
12
14
18
8
15
13
18
16
13
8
14
11
10
19
22
30
25
24
25
21
22
31
24
19
31
41
29
26
26
41
43
48
41
30
37
50
50
48
53
46
41
52
51
42
48
53
50
59
56
51
54
56
54
53
58
56
45
53
61
55
47
47
43
38
43
39
39
41
31
26
10
17
9
13
7
11
15
5
3
-4
8
8
5
9
11
-2
-1
-4
-5
-7
0
8
2
-5
-2
-17
-14
1
-3
-6
-24
-7
-1
-1
-3
7
1
-4
-2
1
1
5
-1
3
-3
-3
-9
-4
1
-7
-2
-9
-9
-4
-17
-10
-9
7
2
3
-3
-8
-7
-7
-3
7
8
4
-5
-7
-11
-1
-5
0
-3
-17
-6
0
-3
-4
-2
2
-3
-7
-3
-6
-11
-9
-7
-13
-16
-14
-12
-6
-8
-7
7
4
-4
-10
-4
-7
-8
-7
-13
-13
-6
-8
-3
-12
-16
-14
-16
-14
-9
-9
-6
-7
-15
-4
2
-3
-5
-1
-2
-26
-27
-22
-13
-12
-3
-8
-17
-18
-23
-14
-14
-4
6
-7
-12
-19
-11
-11
-7
-3
-8
-18
-25
-15
-12
-13
-12
-6
-6
-15
-18
-13
-23
-20
-14
-9
-10
-3
-12
-15
-3
2
4
-15
-16
-12
-10
-10
-5
-23
-10
-10
-14
-5
-5
-5
-5
-6
-10
-6
5
-1
5
11
8
-20
-14
-7
-1
-5
-2
-3
-10
-8
-5
-18
-21
-9
-8
-10
-9
-1
-12
-11
-11
-7
-13
-16
-21
-24
-17
-20
-30
-15
-16
-17
-6
-12
-22
-14
-9
-23
-21
-14
-14
-21
-29
-28
-28
-24
-15
-20
-14
-9
-1
10
29
48
74
84
96
87
83
96
98
82
107
113
111
107
102
75
47
24
-8
-36
-45
-41
-23
-2
-14
-15
-7
-10
-13
-8
-10
-10
-14
-20
-10
-4
2
4
-1
-12
-1
2
2
1
-10
-10
0
4
2
-1
-7
4
-11
-12
-8
-4
3
-1
-6
-4
-6
3
0
8
10
16
3
-2
-13
0
15
9
5
12
6
6
8
10
7
10
8
18
17
3
7
10
8
14
7
19
24
24
24
23
22
23
28
29
37
36
36
25
31
46
41
30
38
43
46
45
39
36
46
48
47
49
43
39
43
41
42
38
44
46
49
51
58
63
48
55
59
49
52
54
48
44
54
50
43
37
30
26
20
29
24
22
32
25
6
11
11
8
6
10
5
3
0
-1
4
-3
-4
-8
-10
-6
-14
-10
-14
-19
-14
-2
-2
-4
-17
-3
0
-3
-12
-12
-10
-3
-5
-14
-10
-4
4
-10
-12
-12
-8
-10
-7
-4
-1
-6
-8
-1
-9
-8
-7
-4
-8
-3
2
3
-4
-13
-13
-9
-6
-3
-3
-8
-10
-13
-20
-10
-12
-11
-3
-6
-3
-7
-7
-1
-14
-15
-13
-10
-18
-16
-19
-15
-8
-11
-6
-11
-12
-20
-20
-6
-10
-12
-5
-17
-25
-8
-12
-14
-18
-17
-24
-10
-11
-10
-4
-5
-14
-18
-20
-17
-5
-4
-16
-25
-19
-10
-11
-32
-20
-10
-13
-13
-17
-21
-20
-23
-23
-18
-20
-15
-10
-15
-21
-19
-21
-27
-15
-19
-15
-19
-23
-19
-6
-17
-11
-10
-17
-18
-20
-22
-21
-5
-7
1
-18
-23
-15
-19
-16
-17
-17
-21
-21
-22
-21
-17
-17
-19
-19
-2
-2
-18
-16
-20
-23
-19
-15
-16
-5
-5
-4
-7
-8
-16
-14
-3
-5
-10
-12
-6
-7
-4
5
-7
-5
-10
-19
-21
-23
-18
-10
-11
-4
-15
-22
-27
-26
-26
-26
-22
-16
-18
-16
-14
-14
-18
-13
-17
-15
-13
-22
-20
-19
-22
-20
-29
-24
-20
-17
-20
-41
-31
-26
-30
-31
-18
-4
8
24
60
76
83
100
94
92
103
93
86
109
118
114
113
98
72
53
12
-23
-43
-55
-45
-29
-20
-15
-10
-11
-16
-5
-5
-7
-12
-14
-17
-16
-13
-6
2
-4
-13
-15
-15
-14
-5
-5
-14
-10
-1
-6
3
-6
-4
-12
-15
-9
-8
-12
-9
-10
-3
-5
-13
-9
0
0
2
5
-3
-17
-13
-6
1
1
0
-5
-3
2
2
7
7
-4
-11
8
15
12
0
5
13
8
7
16
19
9
14
12
10
11
16
21
31
35
28
34
26
18
23
27
25
27
34
36
35
40
42
43
45
44
40
48
39
37
35
44
48
47
54
53
44
53
53
40
38
39
35
36
47
30
24
37
37
29
17
22
10
19
16
14
4
5
1
-5
-8
4
1
-7
-9
-18
-15
-20
-12
-9
-16
-14
-12
-12
-16
-22
-22
-11
-8
-19
-21
-17
-23
-9
-7
-9
-22
-11
-10
-25
-27
-21
-23
-6
-6
-10
-16
-22
-25
-18
-15
-13
-12
-13
-16
-13
-20
-28
-22
-24
-21
-15
-13
-18
-16
-17
-22
-5
-10
-12
-6
-12
-27
-28
-26
-21
-21
-22
-17
-10
-14
-13
-18
-22
-22
-22
-13
-18
-25
-20
-15
-11
-16
-16
-13
-18
-24
-16
-16
-11
-18
-27
-26
-21
-18
-25
-27
-30
-23
-26
-16
-27
-25
-15
-15
-21
-20
-8
-26
-26
-17
-26
-25
-14
-9
-26
-22
-22
-19
-24
-17
-18
-25
-26
-18
-19
-23
-18
-16
-23
-32
-26
-24
-21
-20
-26
-21
-14
-17
-19
-25
-24
-16
-9
-4
-2
-18
-30
-26
-18
-19
-24
-23
-24
-25
-22
-16
-18
-11
-5
-23
-12
-3
-7
-9
-21
-8
-4
-9
-11
-12
-21
-17
-8
-9
-1
-11
-22
-19
-8
-15
-20
-32
-12
-18
-19
-11
-15
-19
-20
-20
-25
-18
-18
-17
-15
-24
-27
-37
-20
-21
-28
-30
-22
-16
-16
-11
-25
-34
-22
-20
-18
-21
-21
-30
-31
-22
-24
-26
-18
-9
-3
15
27
44
77
96
97
101
84
76
71
82
88
92
89
92
67
45
18
-8
-41
-54
-52
-45
-27
-12
-19
-10
-5
-1
-7
-10
-7
-9
-1
-8
-12
-4
-8
0
-1
-8
-13
-11
-5
-2
-3
2
-2
-9
-11
-8
-3
-6
-2
-3
-3
2
1
-5
-3
-1
-3
-3
-4
2
6
8
8
9
6
14
2
-7
-1
7
10
8
7
8
16
10
2
6
12
11
11
13
18
13
12
10
15
17
27
31
23
25
26
31
22
21
26
33
36
34
31
40
40
41
43
39
40
42
49
52
47
46
48
43
45
58
57
42
42
48
44
57
61
48
47
52
49
52
54
51
40
40
33
30
23
32
37
35
27
26
19
24
20
8
6
7
5
2
-1
-10
-8
-5
-7
1
-20
-12
-16
-11
-5
-4
1
-3
-6
-8
-14
-11
-18
-22
-4
-8
-20
-17
-12
-9
-4
0
-8
-6
-9
-7
-5
-5
-9
-10
-21
-12
-10
-6
-13
-16
-8
-19
-16
-17
-12
-5
-4
-5
-3
-8
-6
0
-5
-2
-1
-10
-21
-17
-15
-10
-8
-11
-8
-11
-8
-2
-5
1
-2
-11
-6
-9
-4
-10
-8
-14
-2
-9
-10
-11
-6
-16
-13
-9
-6
-10
-8
-8
-6
-12
-12
-11
-18
-16
-16
-12
-19
-11
-9
-14
-28
-17
-9
-11
-14
-20
-12
-4
-8
-19
-13
-3
0
1
3
-4
-23
-22
-12
-11
-17
-6
-7
-6
-8
-5
-1
-4
2
4
5
-5
-3
-9
-10
-12
-16
-22
-19
-19
-20
-16
-17
-21
-20
-23
-22
-15
-16
-17
-21
-21
-8
-6
-11
-10
-20
-19
-21
-14
-21
-19
-16
-15
-11
-14
-17
-22
-28
-29
-34
-28
-18
2
7
28
43
72
77
93
84
69
65
59
52
69
82
82
77
73
64
41
15
-14
-54
-43
-48
-40
-21
-7
-7
-9
-7
-7
2
0
-8
-15
-12
-12
-4
-5
1
-7
-11
-9
3
4
2
-3
-13
2
5
0
2
0
1
4
10
1
3
7
11
-3
-5
-1
-3
-3
-6
3
1
2
11
5
-2
10
12
11
6
4
12
18
14
4
14
17
26
16
11
11
8
17
22
24
28
21
15
18
19
20
23
38
40
33
30
34
34
33
34
38
29
31
34
36
45
42
43
45
52
56
57
52
47
53
63
51
49
47
51
62
62
54
66
68
62
59
53
55
54
52
56
49
49
35
37
31
24
22
16
16
13
19
14
9
15
14
4
1
1
1
4
5
-1
-5
-4
-18
-18
-13
-4
-3
1
-9
-5
-4
-2
-8
-15
-8
-6
-7
-14
-3
-7
-9
-1
-4
-4
-5
-6
-4
4
4
-4
-7
-13
-15
-18
-1
-3
-2
-1
0
-9
-21
-12
-9
-6
3
-12
-16
-4
-4
-5
-3
5
-10
-17
-9
-11
-14
-2
-7
-11
-5
-8
-10
-8
-3
-5
-6
-2
-3
-11
-4
-6
2
-15
0
-7
-18
-8
-7
-3
-1
7
-2
-23
-19
-5
-2
-6
-8
-14
-21
-19
-20
-17
-16
-11
-5
-4
-5
-4
-4
-1
-6
-19
-25
-21
-17
-12
4
-3
-8
-12
-3
-2
-15
-17
-6
2
-4
0
1
-3
-1
1
-3
4
7
3
-19
-15
-16
-20
-13
-19
-15
-13
-3
5
-7
-7
-16
-22
-20
-23
-28
-28
-19
-11
-24
-21
-16
-19
-18
-17
-19
-18
-19
-17
-16
-20
-9
-18
-27
-26
-26
-18
-18
-17
-21
-15
-2
16
44
63
78
98
95
80
60
73
67
67
85
91
96
89
82
48
28
7
-27
-53
-47
-31
-25
-18
-8
-5
-3
-9
0
2
-3
-7
-13
-15
-10
-8
-6
1
-5
-13
-10
-5
-1
-2
-6
-5
-7
0
-6
-5
-8
-3
-4
-2
4
3
1
-2
-4
9
2
3
-2
-4
6
9
1
5
3
-1
-1
5
12
15
17
7
6
9
8
8
8
7
5
10
13
14
12
18
20
19
18
21
23
20
31
37
35
17
27
29
26
32
30
33
39
34
36
40
41
40
48
48
59
53
54
46
48
53
52
52
48
58
51
47
56
51
44
52
46
54
63
57
53
51
50
39
38
37
32
32
32
30
19
17
16
12
13
6
4
8
2
5
12
4
11
8
-3
-3
-2
-1
-5
3
3
-4
-15
-13
-8
-3
-2
-3
-10
-5
-7
-14
-10
-11
-11
-5
-13
-7
-3
-4
-4
-5
-10
-11
-10
-4
-8
-16
-24
-18
-7
-1
-6
2
2
7
0
-1
0
2
-6
-8
7
-4
-19
-13
0
9
4
-6
4
-4
-8
-13
-6
4
2
6
-3
-12
-10
-7
-3
-3
-3
-10
-7
-6
-12
-4
0
2
-1
-9
-2
-1
-4
-9
-1
-7
-14
3
-12
-6
-3
-3
-1
5
4
-3
-10
-11
-2
-6
-1
-6
-4
-6
-5
-3
-2
-8
-13
0
-3
5
3
3
0
-4
-3
8
11
9
8
2
-7
-7
0
-4
6
2
1
4
-3
-11
-10
-8
-7
-7
9
1
-9
-3
-2
-10
-16
-5
-6
-3
-13
-13
-7
-2
4
-2
-17
-16
-20
-15
-11
-13
-14
-16
-23
-18
-11
-2
-5
-9
-15
-9
-7
-13
-11
-9
5
26
43
72
84
91
90
82
89
94
82
74
92
98
105
104
86
75
64
35
1
-24
-37
-25
-11
-6
-2
-6
8
7
6
10
0
10
10
1
2
9
12
-2
-2
-5
-8
3
12
14
8
6
16
9
8
3
4
2
6
-1
12
17
5
-1
7
10
7
7
7
6
3
13
11
8
9
12
17
16
16
14
26
29
11
14
20
23
17
20
24
21
14
12
15
14
21
23
21
23
39
38
33
26
32
25
37
34
34
46
50
39
43
41
43
36
49
56
50
48
48
46
49
48
52
51
50
59
64
68
61
61
57
52
58
60
55
47
46
49
52
49
51
44
31
38
34
35
34
27
21
24
16
15
5
12
12
21
21
20
-1
5
7
1
0
-9
-9
-12
-8
4
-2
-6
-3
-2
-6
-2
-6
-5
-9
-6
-2
-15
-4
0
-3
0
-7
-9
-9
-4
-5
-5
-10
-3
-9
-7
4
0
-7
-10
-13
-13
-7
-2
-8
-3
9
10
-4
-8
-7
-9
-3
-6
2
5
-6
-7
-2
2
-2
1
8
-2
-21
-12
-8
-5
-11
-5
-8
-11
-9
-7
-11
-5
-8
-9
-16
-4
-2
-1
-2
-11
-11
-7
-16
-15
-15
-18
-9
-16
-18
-18
-3
2
-6
-16
-16
-10
-11
-6
-10
-13
-15
-21
-26
-8
-7
-11
-7
-11
-17
-19
-11
0
-4
-14
-18
-13
-17
-16
-18
-16
-17
-15
-15
-12
-8
-14
-12
-7
-2
-11
-17
-15
-10
-7
-2
4
8
-12
-10
-8
-14
-7
-9
-9
1
-1
-8
-14
-21
-26
-21
-14
-13
-19
-22
-8
-22
-18
-7
-21
-28
-12
-14
-24
-20
-11
-14
-11
-13
-24
-21
-16
-25
-28
-18
-26
-18
-18
-16
-25
-27
-22
-37
-23
-23
-28
-17
-13
11
31
48
63
74
85
76
74
78
99
79
78
94
99
88
86
70
46
44
18
-20
-44
-34
-25
-10
-8
-9
-14
-16
-2
-4
-8
-12
-16
-4
-7
-9
-16
-9
-3
-13
-20
-8
-14
-10
-8
-7
-14
-13
-7
-2
-1
7
-7
-10
2
5
12
2
0
-6
-10
-7
-4
-2
-5
-5
1
-2
6
-3
-1
-3
-2
-6
10
7
11
7
6
12
16
0
1
3
17
11
7
12
17
14
11
13
13
23
33
35
29
28
29
13
17
34
26
20
31
35
31
35
36
34
40
39
43
45
37
43
43
46
55
50
43
47
44
43
49
48
51
61
49
42
38
42
40
39
41
38
45
39
32
32
29
17
18
29
25
17
3
-2
3
0
3
4
3
-12
-14
-16
-21
-2
-3
1
-6
-13
-3
-19
-28
-21
-12
-4
-6
-15
-6
-4
-9
-8
-7
-18
-15
-10
-9
-18
-16
-21
-11
-2
-10
-11
-15
-15
-14
-10
-12
-13
-21
-9
-5
-11
-7
-9
-13
-14
-12
-14
-9
-5
-1
-12
-8
-13
-23
-15
-9
-7
-11
-6
-7
-6
-11
-14
-24
-27
-15
-14
-17
-17
-7
-1
-9
-19
-20
-25
-16
-18
-13
-15
-15
-10
-14
-11
-18
-20
-14
-24
-20
-14
-15
-18
-16
-35
-26
-11
-13
-19
-17
-18
-20
-16
-6
-8
-18
-25
-28
-22
-21
-17
-25
-22
-19
-19
-11
-20
-18
-27
-33
-11
-14
-18
-23
-22
-20
-21
-18
-9
-16
-8
-21
-32
-21
-24
-25
-20
-14
-8
-10
-16
-17
-23
-24
-32
-20
-14
-21
-26
-24
-19
-17
-6
-14
-22
-16
-23
-20
-16
-19
-14
-15
-14
-15
-19
-16
-10
-22
-18
-1
-5
-11
-15
-12
-8
-7
-3
2
-12
-20
-12
-14
-6
-4
-12
-8
-2
-13
-16
-2
-20
-15
-25
-25
-25
-23
-15
-22
-20
-18
-14
-18
-24
-28
-28
-33
-13
-16
-18
-25
-20
-19
-17
-23
-20
-25
-20
-18
-15
-17
-20
-25
-32
-30
-36
-29
-20
-10
16
28
54
60
78
85
84
72
91
82
72
78
94
91
91
81
68
49
20
-13
-46
-56
-48
-31
-18
-10
-14
-21
-22
-12
-7
-14
-14
-10
-4
-14
-16
-18
-21
-19
-19
-18
-16
-19
-17
-10
-6
5
-9
-13
-8
2
-7
-13
-9
0
1
-8
-5
2
-3
2
-4
-9
-15
-18
-3
-5
-14
-1
-1
5
-3
-4
1
1
-11
-7
-1
2
4
24
13
5
11
10
8
4
13
13
16
14
7
9
17
3
15
22
26
22
23
20
28
24
26
18
15
38
33
22
37
37
33
31
28
30
44
44
31
39
51
43
47
43
44
37
52
40
40
41
40
35
35
35
38
27
31
32
30
22
25
25
21
17
18
10
-1
1
10
2
-2
0
1
1
-1
-13
-16
-16
-17
-12
-1
-3
-12
-13
-16
-14
-15
-21
-15
-15
-14
-21
-21
-25
-14
-26
-22
2
-9
-13
-16
-14
-22
-13
-16
-16
-8
-11
-14
-30
-13
-12
-18
-17
-8
-5
-15
-20
-16
-14
-12
-19
-9
-7
-11
-25
-23
-19
-18
-13
-14
-19
-19
-20
-20
-24
-20
-22
-16
-11
-8
-18
-17
-16
-21
-22
-23
-30
-27
-27
-25
-25
-22
-18
-21
-18
-21
-21
-15
-12
-17
-19
-22
-22
-23
-26
-24
-20
-23
-28
-24
-24
-21
-27
-23
-22
-29
-34
-26
-15
-18
-22
-17
-14
-23
-32
-32
-27
-23
-26
-20
-11
-14
-21
-28
-32
-27
-24
-25
-24
-27
-25
-17
-24
-20
-20
-14
-18
-28
-30
-24
-24
-31
-28
-24
-22
-20
-19
-17
-22
-27
-19
-19
-12
-19
-29
-25
-30
-26
-28
-22
-26
-18
-13
-22
-31
-37
-30
-26
-24
-15
-25
-19
-16
-13
-17
-22
-28
-22
-20
-32
-30
-25
-25
-13
-12
-19
-19
-24
-10
-20
-21
-17
-6
-2
-10
-11
-23
-21
-17
-20
-20
-18
-13
-18
-23
-23
-21
-24
-24
-23
-26
-34
-36
-27
-26
-33
-35
-15
-15
-23
-29
-23
-22
-42
-34
-24
-32
-25
-22
-30
-39
-34
-36
-40
-43
-36
-33
-33
-33
-32
-39
-40
-42
-35
-12
4
23
56
63
67
72
74
67
74
88
72
80
90
87
77
77
61
35
4
-26
-54
-59
-45
-34
-22
-17
-25
-25
-19
-19
-20
-14
-10
-18
-25
-27
-32
-35
-29
-18
-17
-20
-17
-28
-26
-18
-27
-25
-22
-23
-23
-21
-16
-14
-10
-16
-16
-13
-18
-26
-26
-16
-23
-20
-16
-10
-13
-20
-15
-11
-5
-6
-10
-12
-14
-9
-6
-4
-3
-7
-24
-14
-10
-7
3
18
5
-8
1
-2
-7
-2
6
16
10
-9
1
14
23
9
10
10
10
8
11
19
23
17
22
20
21
20
28
20
26
33
29
29
31
31
36
39
37
34
36
28
43
53
41
32
28
35
44
37
29
28
20
26
39
26
20
18
12
6
4
5
1
-11
-11
-5
-10
-12
-14
-13
-5
-12
-17
-19
-21
-17
-13
-16
-22
-24
-21
-28
-33
-32
-36
-31
-31
-24
-30
-26
-26
-20
-25
-24
-24
-24
-19
-18
-18
-12
-11
-20
-31
-25
-23
-30
-24
-30
-29
-23
-13
-36
-33
-26
-31
-40
-24
-7
-23
-30
-19
-21
-34
-29
-27
-26
-26
-28
-26
-20
-19
-23
-24
-26
-32
-29
-24
-17
-19
-25
-30
-29
-32
-23
-26
-27
-27
-26
-15
-16
-19
-28
-38
-34
-35
-27
-36
-31
-26
-28
-43
-31
-20
-19
-21
-24
-36
-32
-30
-30
-30
-37
-34
-31
-30
-29
-34
-39
-46
-39
-32
-28
-33
-33
-19
-24
-34
-34
-34
-29
-28
-30
-30
-31
-30
-30
-37
-33
-34
-26
-29
-35
-35
-33
-28
-38
-45
-41
-38
-20
-16
-27
-41
-44
-46
-40
-32
-27
-27
-28
-23
-25
-25
-32
-39
-32
-36
-51
-39
-35
-34
-32
-28
-28
-33
-27
-21
-27
-30
-36
-38
-37
-38
-41
-36
-35
-29
-26
-23
-13
-22
-19
-16
-27
-31
-22
-24
-24
-22
-20
-30
-24
-26
-26
-19
-23
-23
-27
-26
-7
-20
-32
-33
-30
-21
-26
-27
-40
-38
-37
-35
-39
-31
-35
-32
-33
-23
-42
-38
-29
-32
-46
-38
-31
-38
-34
-34
-34
-27
-30
-36
-39
-44
-44
-55
-53
-34
-40
-39
-18
2
13
41
61
68
83
82
75
85
83
67
93
85
94
92
86
59
37
15
-19
-49
-57
-59
-45
-39
-34
-28
-19
-24
-22
-35
-31
-25
-25
-25
-13
-12
-20
-27
-21
-33
-32
-32
-34
-27
-24
-22
-40
-42
-26
-33
-23
-23
-28
-24
-20
-29
-30
-11
-20
-18
-13
-13
-23
-11
-22
-28
-26
-20
-12
-22
-21
-26
-27
-21
-13
-21
-13
-5
-3
-20
-16
-15
-12
-3
1
3
-2
1
-11
-22
-11
-6
-9
-7
-7
-3
6
6
2
3
12
7
11
18
11
1
7
9
12
25
23
25
12
16
23
31
37
31
28
24
32
34
32
32
44
38
27
28
27
17
28
29
31
41
29
23
23
22
12
17
10
1
-2
3
8
-2
-13
1
-2
-14
-15
-15
-29
-25
-23
-36
-19
-12
-32
-27
-25
-17
-25
-31
-22
-32
-37
-32
-32
-28
-25
-28
-21
-15
-31
-30
-28
-30
-44
-35
-29
-32
-24
-29
-34
-28
-34
-29
-40
-44
-31
-28
-35
-26
-23
-29
-31
-27
-28
-21
-20
-32
-32
-25
-30
-30
-27
-38
-35
-31
-20
-18
-22
-24
-27
-29
-25
-31
-28
-32
-29
-30
-30
-23
-29
-40
-35
-27
-28
-30
-30
-36
-30
-18
-25
-32
-34
-37
-35
-30
-37
-42
-34
-42
-38
-24
-26
-35
-32
-33
-35
-35
-29
-30
-29
-30
-30
-37
-46
-46
-19
-32
-35
-27
-34
-29
-23
-33
-34
-31
-35
-38
-29
-35
-31
-34
-32
-39
-37
-26
-36
-41
-33
-33
-34
-42
-38
-32
-30
-33
-28
-34
-29
-41
-44
-35
-32
-43
-40
-39
-42
-39
-32
-31
-25
-33
-30
-34
-43
-35
-37
-30
-27
-37
-35
-32
-35
-34
-32
-25
-34
-37
-38
-44
-43
-24
-23
-34
-27
-25
-23
-31
-24
-25
-29
-23
-24
-25
-21
-21
-23
-28
-28
-20
-20
-18
-27
-44
-47
-44
-31
-35
-33
-32
-26
-28
-30
-34
-43
-37
-35
-46
-47
-50
-47
-43
-38
-25
-32
-41
-38
-37
-33
-32
-34
-35
-32
-39
-50
-52
-48
-45
-49
-52
-48
-42
-39
-30
-11
14
40
70
73
80
78
84
93
88
77
86
93
97
93
76
45
34
2
-41
-61
-62
-58
-37
-27
-28
-29
-32
-29
-32
-27
-26
-28
-23
-25
-21
-21
-22
-22
-20
-23
-23
-28
-30
-18
-25
-26
-21
-20
-26
-30
-28
-30
-11
-9
-31
-22
-12
-8
-14
-12
-14
-31
-35
-27
-17
-17
-16
-20
-12
-12
-12
-12
-19
-4
-5
-12
-12
-13
-6
-6
-9
2
13
6
2
6
6
17
20
15
9
12
11
23
20
17
17
21
18
21
12
11
18
24
20
17
26
31
28
26
26
27
29
26
30
37
29
30
35
38
38
42
49
43
31
47
41
34
39
38
33
36
34
38
36
40
33
22
27
19
15
14
11
-1
12
13
5
-13
-3
-12
-15
-10
-8
-11
-20
-18
-23
-27
-19
-16
-18
-24
-32
-27
-27
-27
-34
-30
-24
-33
-34
-26
-28
-30
-16
-17
-24
-26
-27
-29
-25
-30
-27
-22
-31
-21
-28
-33
-33
-32
-25
-20
-21
-26
-27
-26
-30
-28
-29
-29
-20
-25
-21
-19
-19
-20
-30
-36
-32
-35
-30
-25
-23
-23
-22
-18
-33
-32
-45
-31
-29
-28
-28
-35
-22
-26
-31
-33
-37
-40
-40
-28
-22
-24
-23
-33
-35
-25
-30
-30
-31
-31
-35
-36
-31
-36
-28
-25
-33
-37
-37
-37
-35
-35
-29
-28
-28
-20
-25
-30
-27
-35
-42
-42
-35
-33
-37
-31
-27
-28
-38
-41
-39
-38
-39
-33
-34
-27
-28
-31
-29
-23
-27
-28
-24
-44
-43
-34
-28
-35
-34
-25
-27
-32
-36
-28
-27
-28
-29
-25
-24
-32
-37
-35
-33
-28
-34
-32
-32
-25
-21
-28
-38
-32
-20
-20
-23
-24
-17
-11
-24
-15
-10
-13
-29
-37
-37
-25
-30
-34
-33
-36
-39
-28
-29
-35
-43
-38
-23
-32
-36
-33
-21
-32
-40
-32
-33
-37
-45
-45
-36
-38
-35
-28
-31
-43
-36
-36
-39
-33
-34
-42
-50
-54
-50
-46
-33
-31
-14
3
17
26
47
69
73
84
84
92
78
74
85
88
93
98
80
53
34
5
-22
-61
-67
-55
-38
-26
-20
-21
-21
-16
-19
-13
-1
-30
-31
-27
-16
-9
-27
-25
-20
-24
-20
-19
-19
-13
-16
-14
-14
-2
-24
-21
-26
-17
-19
-20
-12
-8
-1
-12
-16
-16
-12
-10
-4
-14
-7
-10
-9
-15
-18
-7
-3
-10
-5
-2
-5
-12
-1
3
6
9
16
6
3
-2
-11
-5
6
5
9
5
5
-4
0
12
20
5
13
30
18
27
23
23
29
30
23
27
37
32
26
23
28
29
36
36
36
35
44
50
45
43
46
41
46
48
48
45
41
45
42
47
49
40
57
39
43
36
37
34
31
28
25
17
22
23
13
4
7
4
-6
-10
-6
1
2
-2
-6
-3
-9
-7
-17
-16
-9
-15
-23
-14
-9
-10
-6
-17
-29
-28
-16
-17
-14
-10
-20
-22
-24
-22
-17
-18
-26
-21
-16
-18
-15
-13
-21
-20
-14
-11
-23
-22
-7
-16
-21
-13
-8
-3
-5
-28
-20
-12
-12
-17
-19
-22
-23
-21
-11
-25
-19
-14
-4
-14
-20
-13
-17
-14
-12
-16
-15
-17
-18
-21
-20
-13
-16
-14
-12
-12
-19
-30
-27
-21
-19
-23
-19
-9
-11
-9
-19
-29
-21
-15
-21
-15
-18
-23
-21
-23
-20
-12
-17
-21
-26
-27
-22
-15
-12
-26
-27
-19
-19
-15
-21
-12
-23
-17
-24
-29
-29
-24
-15
-8
-9
-5
2
-11
-22
-10
-10
-7
-14
-13
-7
-16
-10
-12
-11
-15
-19
-17
-19
-24
-25
-21
-26
-22
-16
-17
-18
-21
-19
-34
-41
-36
-37
-29
-25
-28
-31
-24
-23
-22
-23
-23
-27
-26
-24
-31
-35
-28
-24
-30
-31
-27
-26
-31
-31
-34
-36
-32
-24
-12
5
28
44
70
79
78
82
84
75
60
73
75
79
88
81
67
43
16
-6
-41
-59
-64
-59
-42
-26
-18
-17
-7
-18
-20
-14
-21
-19
-15
-13
-19
-18
-19
-22
-14
-12
-11
-10
-8
-8
-3
-3
-9
-18
-14
-8
-21
-21
-10
-4
2
-7
-4
0
-5
-6
-2
-5
-12
-14
-10
-10
-7
-7
-8
-5
5
5
6
12
10
-2
-1
-2
0
2
6
11
12
4
3
12
17
12
9
12
11
15
19
8
14
22
17
22
28
23
22
33
44
40
33
45
34
28
32
45
40
47
46
45
44
56
51
37
46
48
48
48
54
52
51
61
53
52
57
48
46
48
54
50
49
45
43
38
35
23
25
27
20
11
19
14
11
6
8
3
-9
-3
1
-2
0
-1
-14
-9
-11
-7
-6
-14
-15
-12
-7
-10
-16
-18
-11
-7
-15
-9
-9
-23
-13
-12
-15
-20
-16
-21
-10
-7
-9
-10
-22
-15
-16
-15
-11
-10
-13
-12
-8
-6
-17
0
-3
-9
-5
-8
-15
-10
-12
-11
-6
-5
-5
-5
-2
-7
-21
-21
-15
-13
-12
-6
-13
-24
-14
-9
-3
-9
-17
-17
-17
-18
-8
-11
-10
-12
-8
1
-10
-16
-15
-16
-11
-15
-13
-23
-22
-22
-21
-9
-3
-8
-15
-17
-16
-20
-10
-18
-6
-12
-8
-9
-7
-12
-15
-10
-3
-9
-21
-22
-22
-11
-15
-9
-5
-6
-2
-11
-9
-8
-9
-17
-11
-9
-10
-9
-3
-3
-2
-7
-10
-19
-17
-15
-15
-17
-17
-6
-13
-18
-22
-24
-29
-20
-21
-27
-26
-17
-12
-12
-11
-3
-14
-17
-21
-24
-21
-13
-17
-26
-26
-25
-14
-19
-28
-29
-24
-33
-31
-34
-26
-23
-17
-7
13
37
60
78
83
89
85
79
74
59
66
86
95
97
81
74
57
27
-1
-36
-43
-45
-27
-8
-7
-14
-19
-9
-7
-8
-9
-4
-8
-11
-10
-5
-4
-3
-6
-13
-9
-9
0
4
-3
0
-8
-11
-16
-8
-11
-1
-4
2
-1
-4
0
2
-13
-7
-3
-3
0
0
-1
7
3
4
9
7
6
1
-5
-6
3
8
10
14
8
-3
3
7
9
11
23
24
12
13
17
16
8
19
21
22
25
24
29
25
18
22
18
23
37
31
32
46
44
38
37
32
34
38
41
36
48
53
48
46
51
60
63
56
51
49
52
43
45
47
45
47
56
51
47
51
54
53
48
26
28
33
26
22
15
21
15
16
16
12
8
3
-7
6
12
-5
-3
-7
-13
-11
-7
-4
-9
-9
-7
-19
-5
-6
-13
-18
-21
-15
-6
-3
-14
-15
-10
-16
-16
-13
-2
-12
-16
-4
-4
-1
-6
-12
-16
-8
-13
-17
-9
-11
-18
-12
-6
-3
-10
-9
-7
-1
-8
-9
-21
-17
-12
-15
-14
-8
-5
-9
-11
-6
-9
-8
-19
-14
-13
-9
-24
-11
-7
-5
-16
-3
-16
-20
-9
-4
-7
-14
-11
-9
-16
-16
-16
-18
-17
-16
-14
-10
-9
-16
-17
-15
-6
-14
-11
-2
-2
-6
-16
-10
-19
-25
-17
-22
-25
-17
-4
-10
-17
-9
-6
-4
-8
-10
-3
7
1
-10
-11
-6
-12
-7
-2
-7
-2
-10
-6
-8
-9
-19
-23
-18
-9
-7
-24
-19
-18
-25
-19
-18
-17
-15
-26
-31
-31
-24
-18
-19
-5
-7
-17
-18
-27
-28
-18
-17
-26
-24
-22
-22
-20
-17
-25
-32
-30
-25
-32
-25
-17
-4
13
30
48
58
82
82
86
89
93
87
78
113
107
111
104
89
53
40
14
-21
-45
-38
-34
-38
-20
-8
-9
-10
-6
-15
-12
-8
-15
-14
-14
-8
-8
-2
-5
-20
-5
-10
-14
-18
-12
-11
-17
-13
2
2
1
-2
-3
-8
-16
-14
-16
-5
7
-5
0
7
1
1
0
-3
3
4
0
-11
-2
-4
-5
-1
1
-1
4
15
10
11
14
6
-2
5
0
7
9
14
14
4
11
16
9
18
10
19
24
33
31
28
30
15
22
24
27
32
36
38
34
36
35
48
55
43
42
39
47
54
51
42
49
49
48
44
45
50
59
58
63
52
52
45
43
43
35
31
29
33
24
26
25
23
14
0
11
18
12
10
11
4
-3
-4
-8
-11
-6
-16
-16
-9
-3
-4
-14
-15
-12
-10
-10
-7
-7
-5
2
-5
-15
-11
-18
-24
-18
-4
-11
-15
-14
-12
-12
-9
-16
-12
-8
-1
-11
-11
-12
-17
-15
-24
-19
-11
-5
-10
-9
-2
-7
-17
-4
-7
-19
-11
-11
-5
-8
-7
-7
-18
-16
-20
-20
-16
-7
-5
-6
-6
-13
2
-15
-18
-15
-9
-16
-16
-7
-9
-10
-7
-14
-16
-15
-14
-20
-18
-11
-17
-17
-4
-19
-12
-7
-17
-12
-4
8
-2
-21
-16
-15
-31
-16
-9
-5
-11
-13
-6
-3
-9
-6
-8
-16
-9
-8
-8
-5
0
4
8
6
-2
-16
-9
-22
-25
-16
-15
-13
-14
-14
-17
-12
-6
-22
-25
-23
-24
-27
-23
-27
-24
-20
-18
-25
-26
-22
-26
-25
-14
-17
-30
-16
-22
-20
-30
-25
-17
-16
-13
-34
-34
-24
-30
-35
-32
-10
-6
10
26
54
68
81
88
84
93
105
95
96
98
113
103
91
75
56
39
4
-38
-43
-48
-37
-22
-10
-8
-3
-5
-11
-19
-20
-16
-15
-17
-16
-17
-14
-12
-8
-17
-18
-5
-13
-11
-13
-10
-9
-1
1
-3
1
4
-6
-7
-9
-18
-20
-7
-6
-10
-4
0
-2
-5
-12
-9
6
1
-1
-1
-4
-3
1
-6
8
5
0
-2
6
5
3
10
9
8
12
14
23
18
7
9
9
14
15
17
13
12
15
16
24
33
33
24
32
25
30
38
48
42
33
32
34
38
48
34
40
40
50
44
53
43
45
48
45
45
46
42
48
48
54
46
37
28
34
44
44
33
35
43
40
31
20
13
11
18
-1
-3
11
5
3
-3
-5
1
-9
-7
-4
-7
-4
1
-2
-14
-16
-28
-16
-10
-17
-11
-16
-10
-12
-9
-16
-28
-22
-9
-9
-16
-20
-18
-1
-15
-23
-21
-20
-9
-8
-17
-20
-14
-17
-8
-5
-14
-21
-18
-14
-6
-1
-1
-8
-17
-16
-23
-19
-7
-9
-15
-14
-22
-14
-10
-14
-13
-5
-16
-12
-9
-6
-11
-9
-15
-21
-14
-9
-16
-12
-21
-17
-21
-17
-13
-15
-19
-14
-18
-23
-22
-18
-23
-21
-9
-15
-15
-18
-20
-20
-19
-14
-22
-26
-17
-18
-27
-28
-17
-23
-18
-13
-10
-20
-10
-21
-23
-21
-13
-16
-20
-22
-19
-20
-16
-21
-20
-19
-15
-18
-15
-16
-18
-22
-14
-4
-9
-4
-8
-11
-11
1
-5
-19
-10
-10
-18
-23
-17
-9
-17
-15
-17
-17
-31
-22
-11
-13
-20
-27
-29
-25
-25
-26
-31
-31
-29
-27
-27
-27
-25
-26
-27
-17
-15
-26
-26
-25
-27
-30
-24
-24
-23
-29
-35
-34
-34
-36
-46
-36
-33
-35
-32
-32
-15
-4
22
33
59
77
88
83
93
99
89
84
93
104
102
96
85
62
48
12
-21
-50
-52
-48
-30
-15
-13
-21
-19
-16
-26
-24
-11
-11
-26
-15
-15
-24
-17
-9
-10
-9
-12
-20
-24
-17
-24
-27
-24
-18
-11
-13
-14
-10
-19
-17
-9
-6
-13
-10
-15
-12
-9
-4
-9
-12
-5
-5
1
-8
-6
-10
-3
4
-10
-1
0
-1
-12
-8
-1
-7
-6
-3
7
11
10
8
3
10
6
2
12
20
26
26
17
24
10
8
15
16
19
25
7
30
27
25
36
34
27
40
39
39
39
40
33
26
36
43
42
45
52
49
45
47
40
40
39
41
32
40
52
46
38
47
38
22
20
27
19
21
26
24
21
19
7
-2
2
1
-7
3
-9
-18
-17
-5
-8
-12
-19
-15
-23
-18
-7
-8
-7
-15
-14
-14
-21
-19
-18
-17
-16
-11
-11
-15
-12
-12
-19
-11
-2
-3
-5
-14
-8
-8
-20
-10
-18
-28
-18
-16
-15
-14
-7
-2
-5
-19
-19
-8
-9
-18
-16
-14
-17
-11
-16
-9
-7
-8
-15
-21
-8
-14
-17
-14
-12
-17
-11
-17
-16
-7
-19
-18
-7
-12
-17
-14
-10
-5
-8
-11
-14
-5
-5
-14
-23
-14
-10
-20
-19
-17
-19
-15
-9
-6
-24
-29
-26
-18
-25
-15
-11
-7
-10
-10
-12
-20
-18
-11
-21
-16
-13
-4
-7
-13
-16
-22
-26
-20
-22
-24
-15
-22
-8
-13
-14
-14
-9
-15
-22
-16
-12
-22
-13
-11
-19
-19
-17
-19
-7
-3
-9
-19
-17
-19
-23
-15
-24
-27
-27
-15
-12
-15
-16
-5
-14
-20
-26
-29
-15
-18
-25
-13
-10
-11
-15
-10
-3
-20
-22
-12
-11
-11
-10
-16
-21
-3
-23
-20
-11
-14
-19
-19
-19
-20
-13
-7
1
-10
-14
-16
-20
-14
-6
-5
-1
5
-15
-5
-8
-16
-21
-6
-5
-7
-8
-12
-13
-15
-13
-23
-22
-17
-5
-10
-7
-14
-19
-17
-9
-13
-25
-23
-17
-24
-24
-22
-22
-26
-14
-7
-15
-25
-23
-21
-17
-17
-24
-28
-13
-9
-19
-24
-34
-29
-29
-33
-40
-30
-17
-9
12
33
48
51
67
82
90
81
77
74
69
86
102
107
99
78
67
38
6
-14
-30
-36
-47
-35
-22
-12
-11
-7
-2
-6
-11
-5
-18
-19
-8
-14
-14
-8
0
-12
2
4
-7
-7
-13
-17
-17
-19
-5
-5
-7
-6
0
-11
-6
-5
-3
2
-5
-10
-3
-2
-2
-7
-12
-3
3
9
0
-8
1
0
-6
-5
5
2
3
7
11
0
13
7
1
10
8
18
14
8
17
18
17
18
23
23
16
11
6
15
23
18
17
30
25
25
30
31
26
23
29
33
33
43
46
41
37
32
33
36
43
46
47
46
46
48
50
40
41
44
57
46
47
49
40
40
43
37
40
46
32
35
41
39
37
25
23
12
10
16
9
5
17
3
4
4
-4
0
-4
2
-1
-7
-5
-9
-8
-9
-6
-9
-12
-18
-20
-19
-11
-13
-7
-8
-10
-16
-12
-23
-9
-14
-20
-15
-17
-13
-10
-3
1
-12
-18
-11
-16
-20
-12
-8
-6
-8
-9
-8
-14
-6
-5
-4
-14
-14
-14
-12
0
8
-3
-12
-18
-13
-18
-21
-13
-15
-14
-17
-15
-6
-13
-9
-7
-8
-12
-11
-10
-24
-31
-18
-7
-6
-5
-15
-7
-8
-18
-16
-13
-10
-6
-12
-10
-9
-25
-26
-23
-17
-5
-8
-17
-18
-11
-16
-17
-19
-8
-2
-3
-9
-22
-25
-17
-18
-12
-16
-13
-20
-21
-15
-27
-31
-3
-11
-16
-15
-15
-19
-22
-14
-12
-13
-20
-20
-20
-20
-17
-14
-15
-22
-16
-11
-19
-29
-18
-16
-23
-30
-18
-16
-8
-6
-6
-20
-21
-9
-16
-17
-17
-23
-5
-7
-14
-22
-27
-24
-16
-23
-16
-20
-15
-14
-18
-19
-18
-16
-6
-13
-19
-20
-21
-18
-16
-21
-14
-6
-9
-17
-4
6
2
-15
-12
-12
-15
-6
-1
-16
-13
-7
-5
-5
-8
-10
-8
-9
-18
-7
-1
-7
-13
-18
-21
-18
-21
-17
-20
-19
-11
-10
-20
-19
-8
-11
-23
-32
-24
-27
-18
-25
-25
-20
-20
-17
-15
-14
-23
-11
-16
-16
-25
-31
-36
-31
-29
-19
-10
-7
1
27
43
61
76
74
83
85
92
86
78
86
98
98
103
81
82
63
33
1
-38
-44
-38
-30
-21
-13
-12
-8
-13
-9
-1
-9
4
5
0
-2
-1
8
3
-13
-16
-7
-6
-14
-20
-17
-7
-7
-7
-7
-2
-13
-9
7
5
-5
-3
0
4
7
6
9
-3
6
-3
-2
-6
-3
1
9
4
-1
7
5
9
11
2
1
5
1
12
20
21
25
16
13
1
4
6
13
20
16
17
20
21
22
14
17
25
25
29
25
23
32
36
35
25
27
34
31
38
42
43
43
43
41
46
47
45
50
50
40
41
48
48
49
44
41
47
55
59
53
48
44
42
42
50
52
41
51
44
29
32
25
18
20
14
25
7
3
4
1
0
7
9
15
7
0
-5
-5
-5
-2
-5
-7
-12
-13
-5
-5
-11
-9
-8
-7
-9
-18
-14
2
5
1
3
0
-3
-16
-25
-16
-12
-14
-4
-3
9
5
-12
-24
-16
-4
-11
-9
-8
-6
-12
-12
1
2
-4
-4
-7
-8
-11
-11
-4
-1
-7
-2
-3
-4
-3
-7
-3
-8
-6
-13
-19
-11
-7
-4
4
-6
-8
-13
-4
-10
-23
-17
-8
-13
-3
-2
-9
-26
-11
-2
-8
-9
-14
-21
-19
-18
-14
-15
-17
-15
-20
-21
-10
-21
-12
-9
-8
-12
-8
-9
-10
-16
-15
-10
-10
-2
11
0
-12
-4
-13
-19
-10
-25
-14
-20
-17
-8
-17
-18
-25
-20
-20
-18
-17
-13
-15
-11
-25
-21
-14
-9
-15
-18
-20
-21
-18
-22
-25
-19
-10
-9
-7
-12
-17
-14
-16
-16
-5
0
-6
-10
-13
-23
-24
-21
-16
-11
-9
-9
-13
-14
-17
-16
-17
-3
-4
-18
-25
-18
-17
-3
0
-2
-5
-9
-22
-24
-16
-14
-14
-8
-15
-23
-15
-13
-18
-21
-17
-17
-8
-5
-10
-18
-10
-2
-7
-9
-7
-2
-11
-5
-7
-5
-7
-7
-13
-7
2
1
-5
2
-3
-8
-10
-9
-13
-6
6
6
-7
-10
-8
-25
-18
-19
-18
-18
-13
-10
-6
-10
-12
3
-16
-38
-23
-18
-15
-22
-19
-18
-17
-19
-14
-14
-17
-20
-10
-20
-18
-28
-22
-25
-17
-16
-16
-9
-5
1
8
30
53
67
91
86
85
85
98
88
71
76
92
94
87
80
64
46
25
-12
-30
-38
-28
-14
3
3
6
6
8
5
5
-8
-22
-20
-10
-4
-19
-9
0
-6
-12
-5
1
-9
-15
-8
-2
-2
-2
-1
2
-9
-3
3
0
-4
-9
-2
-4
0
1
9
4
0
0
-3
-6
-1
9
12
6
7
6
6
5
0
1
9
8
5
11
11
21
11
19
18
13
13
5
17
24
23
11
12
23
25
27
21
18
22
15
16
30
23
35
43
41
45
31
25
40
45
41
35
43
53
53
47
42
48
48
50
49
59
55
53
53
58
50
54
55
46
42
52
44
45
41
37
39
42
43
28
30
30
28
25
22
20
13
5
-11
-1
3
4
0
2
-2
4
-5
-2
11
3
-11
-12
-14
-4
1
-1
-14
-9
-7
-9
-8
-11
-8
-11
-10
-8
-8
-10
-20
-7
-9
-13
-8
-5
-1
-6
-4
5
-15
-16
-14
-13
-15
-9
-6
-2
-9
-9
-6
0
-7
7
3
0
-14
-15
-15
-9
-8
-12
-13
-10
-8
-1
0
-2
-1
-8
-14
-12
-11
-1
-11
-11
-8
-14
-6
-7
-18
-17
-8
-9
-14
-13
-6
-4
12
5
-18
-17
-17
-17
-15
-16
-9
-16
-14
-21
-9
-12
-8
-4
-7
-6
2
0
-13
-35
-17
-18
-12
-14
-14
-5
1
-10
-18
-22
-23
-17
-9
-19
-18
-9
-9
-15
-7
-4
-13
-30
-10
-13
-13
-2
-2
-17
-12
-7
-19
-32
-19
-11
-16
-9
-10
-16
-17
-12
-25
-27
-15
-12
-17
-4
-9
-9
-9
-4
-3
-13
-19
-24
-18
-16
-15
-5
-13
-8
-17
-19
-12
-20
-21
-8
-8
-21
-27
-14
-2
-9
-18
-16
-13
-8
-15
-12
-10
-13
-20
-23
-17
-6
-5
-9
-10
-19
-12
-16
-11
-20
-20
-29
-19
-9
-7
-12
-12
-13
-11
-6
-15
0
-6
-11
-23
-19
-9
-13
-3
-5
-6
-10
-24
-16
-9
-12
-4
-10
-10
-14
-8
-8
-16
-1
-7
-5
7
-1
-3
-5
-6
-7
-8
-17
-17
-15
-14
-17
-18
-21
-14
-12
-13
-14
-21
-26
-22
-23
-25
-16
-6
-11
-15
-23
-18
-28
-21
-13
-18
-13
-9
-12
-14
-19
-29
-31
-13
-19
-20
-28
-20
1
31
51
70
86
87
83
89
86
91
89
91
103
106
104
100
79
61
48
12
-21
-39
-30
-24
-18
-18
-15
-16
-3
-14
-11
3
5
-4
-9
-5
-6
-12
-15
-11
-3
-5
-2
-3
-2
2
2
-5
-3
-14
-1
-4
-6
-8
-2
9
0
7
7
-10
-11
0
-9
2
13
0
0
3
-7
-3
-3
-1
0
6
13
6
14
23
6
-10
2
17
20
13
15
17
17
9
19
14
18
24
25
27
23
11
16
21
19
34
32
32
32
27
35
37
31
29
32
40
50
49
50
50
51
45
41
48
53
51
48
45
59
58
52
44
50
55
50
55
58
55
53
55
56
48
49
50
50
42
39
36
45
42
31
13
19
18
12
16
21
17
15
14
11
-7
-10
0
-4
-7
-2
-7
5
-2
-10
-6
-7
-12
-12
-14
-21
-13
-2
-16
-9
-7
-14
-11
-8
-13
-10
-10
-10
0
0
-6
-18
-16
-14
-7
-5
-14
-10
2
-11
-6
-3
-4
-2
0
0
-8
-9
-4
-3
-12
-4
-4
-9
-8
-12
-12
-12
-10
-11
-9
-14
-11
-7
-4
-4
-7
-8
-15
-13
-13
-19
-8
-7
-6
-14
-13
-10
-17
-11
-14
-12
-11
-12
-11
-16
-5
-12
-7
-18
-20
-15
-6
-9
1
-1
-17
-17
-10
-13
-8
-14
-23
-24
-7
-5
-20
-15
-9
-19
-18
-7
-17
-18
-6
-18
-16
-13
-20
-25
-13
-13
-14
-25
-21
-21
-25
-13
-12
-14
-28
-17
-13
-13
-11
-18
-18
-20
-20
-18
-21
-15
-11
-10
-15
-16
-15
-14
-14
-14
-22
-12
-8
-12
-9
-14
-13
-19
-20
-19
-17
-8
-11
-8
-15
-29
-23
-17
-17
-18
-24
-22
-18
-18
-16
-15
-22
-18
-16
-18
-9
-13
-18
-11
-12
-19
-24
-19
-13
-15
-6
-17
-18
-28
-13
-15
-13
-8
-16
-23
-10
-14
-10
-13
-10
-19
-23
-14
-6
-13
-2
-10
-15
-8
-14
-11
-11
-6
-9
-10
-7
-6
-11
-21
-17
-16
-10
-14
-10
-14
-10
-14
-16
-11
-11
-18
-23
-23
-17
-24
-21
-19
-17
-19
-23
-23
-22
-21
-25
-22
-26
-19
-21
-22
-14
-18
-22
-25
-20
-17
-25
-20
-28
-25
-23
-19
-19
-12
-6
-5
31
62
68
91
96
90
93
97
89
88
97
104
106
109
100
77
50
26
-21
-59
-49
-42
-32
-12
-2
-7
-4
-13
-15
-15
-8
-4
-2
2
-6
-18
-11
-12
-18
-7
-5
-7
-4
-8
-5
-10
-7
-1
-10
-19
-7
-9
-5
-3
-3
0
-3
4
-10
-5
6
2
-4
-13
-2
4
5
6
20
14
0
-16
-10
7
2
3
7
3
7
7
7
3
6
11
23
23
11
19
9
8
22
19
14
15
18
24
23
16
27
27
28
27
28
39
35
26
34
31
32
42
44
42
51
48
43
52
54
55
33
44
53
60
67
61
69
57
58
54
49
37
54
55
63
53
50
52
51
47
47
42
30
32
33
25
14
22
18
7
12
3
-3
-2
-1
2
1
-9
0
2
-8
-7
-3
-5
-9
-10
-14
-6
-10
-16
-7
-6
-11
-14
-12
-14
-19
-8
-4
-11
1
-8
-12
2
-9
-3
-6
-7
-12
-14
-19
-19
-18
-12
-10
-7
-10
-12
-14
-7
2
-4
-10
-19
-7
-5
-16
-17
-5
-10
-14
-5
-4
-7
-6
-14
-4
-13
-15
-16
-2
-3
-13
-6
-11
-21
-17
-7
-12
-13
-9
-5
-8
-11
-10
-22
-16
-9
-6
-9
-8
-17
-14
-7
-2
-11
-10
-15
-15
-18
-23
-18
-18
-10
-9
-5
-23
-28
-20
-9
-9
-13
-7
-5
-12
-18
-9
-15
-20
-17
-5
-16
-16
-21
-17
-17
-22
-11
-10
-19
-26
-11
-11
-14
-18
-14
-16
-10
-14
-18
-22
-20
-18
-16
-21
-17
-11
-16
-13
-16
-12
-17
-22
-16
-10
-24
-16
-13
-8
-20
-17
-20
-6
-7
-14
-24
-18
-14
-16
-16
-11
-20
-19
-8
-7
-22
-20
-16
-17
-19
-12
-17
-20
-11
-15
-13
-13
-6
-8
-4
-3
-13
-16
4
-5
-3
-1
3
-10
-15
-12
-18
-15
-13
-5
-10
1
-3
-6
-2
-4
-19
-15
-4
-7
-14
-10
-9
-13
-16
-14
-24
-32
-34
-24
-20
-23
-16
-16
-15
-16
-10
-6
-17
-24
-30
-23
-26
-32
-25
-15
-25
-32
-34
-32
-21
-18
-19
-2
19
29
54
69
82
89
94
99
100
102
96
109
114
117
122
100
80
65
25
-12
-45
-49
-32
-32
-26
-16
-5
-13
-18
-8
-4
-2
-4
-3
-4
-10
-6
-12
-18
-25
-24
-15
-7
-11
-11
-15
-2
-3
4
-5
-10
-10
-6
-10
-11
-1
-2
-8
-6
-7
-2
4
1
12
8
5
4
6
10
-6
-3
-12
0
1
8
8
4
7
7
6
3
10
12
12
14
10
8
14
12
19
9
6
15
26
28
26
16
17
33
36
33
31
34
33
31
34
40
36
36
36
41
46
48
48
49
48
50
47
49
56
56
54
56
60
56
63
53
50
52
59
58
59
64
69
58
50
50
54
39
43
41
35
29
37
33
28
29
28
25
17
7
2
7
3
5
5
-1
-7
-2
-9
-12
-10
-8
-11
-10
-12
-4
-17
-16
-11
-10
-9
-13
-9
0
-15
-7
-1
-6
-13
-14
-11
-15
-21
-18
-9
-13
4
-4
-7
-6
-7
-2
-9
-16
-12
-6
-8
-3
-8
-5
-10
-17
-10
-9
-9
-10
-7
-18
-14
-12
-9
-14
-15
-27
-13
0
-3
-12
-14
-11
-14
-14
-10
-13
-12
-21
-20
-16
-14
-11
-10
-9
-11
-1
-14
-14
-11
-12
-9
-12
-15
-18
-18
-13
-13
-14
-20
-14
-21
-11
-12
-7
-13
-4
-3
-14
-15
-18
-13
-23
-13
-11
-25
-23
-17
-16
-30
-25
-14
-7
-12
-8
-12
-24
-16
-15
-23
-16
-12
-17
-16
-11
-19
-20
-27
-30
-21
-15
-9
-9
-12
-8
-21
-18
-12
-6
-14
-14
-15
-31
-19
-19
-15
-16
-20
-19
-13
-13
-13
-21
-12
-6
-11
-14
-21
-24
-8
-7
-11
-17
-9
-5
-7
-10
-17
-12
-5
-11
-12
-7
-3
-10
-13
-4
-10
-8
-11
-23
-25
-20
-13
-13
-17
-17
-23
-28
-28
-27
-27
-21
-22
-20
-22
-16
-17
-35
-36
-21
-28
-28
-19
-17
-19
-14
-25
-23
-13
-23
-39
-38
-35
-30
-36
-27
-24
-10
0
31
44
69
93
91
91
97
105
101
97
105
110
112
104
87
68
38
1
-35
-53
-50
-48
-27
-9
-14
-6
-15
-15
-8
-14
-12
0
-6
-17
-17
-15
-12
-18
-17
-23
-20
-19
-10
-9
-13
-11
-7
-9
-9
-7
-9
-12
-11
-10
-10
-9
-5
-6
-3
-8
-5
-5
4
-7
-10
-6
-1
-3
-3
-4
-5
-8
0
1
5
-1
1
2
4
10
10
4
5
10
1
23
17
12
14
7
11
18
18
18
14
14
24
12
21
31
37
30
28
23
33
31
22
18
30
47
46
49
46
48
44
41
49
50
45
50
53
60
59
52
52
58
54
50
56
63
61
51
48
50
49
43
43
41
30
36
37
33
35
20
7
10
17
10
6
9
-3
-11
-13
-3
9
9
-13
-20
-7
-2
-5
-14
-27
-25
-12
-8
-9
-20
-15
-12
-18
-23
-24
-23
-10
-14
-11
-9
-14
-12
-11
-16
-13
-15
-13
-12
-14
-12
-18
-15
-14
-4
-4
-9
-16
-14
-18
-12
-20
-18
-11
-14
-6
-16
-7
-10
-12
-13
-13
-13
-23
-12
-14
-9
-12
-16
-14
-1
-8
-7
-11
-12
-14
-14
-15
-18
-17
