-1
-1
-1
-1
-1
-1
-1
-1
-1
-1
-1
-1
-1
-1
-1
-1
-1
-1
-1
-1
-1
-1
-1
-1
-1
-1
-1
-1
-1
-1
-1
-1
-1
-1
-1
-1
-1
-1
-1
-1
-1
-1
-1
-1
-1
-1
-1
-1
-1
-1
-1
-1
-1
-1
-1
-1
-1
-1
-1
-1
-1
-1
-1
-1
-1
-1
-1
-1
-1
-1
-1
-1
-1
-1
-1
-1
-1
-1
-1
-1
-1
-1
-1
-1
-1
-1
-1
-1
-1
-1
-1
-1
-1
-1
-1
-1
-1
-1
-1
-1
-1
-1
-1
-1
-1
-1
-1
-1
-1
-1
-1
-1
-1
-1
-1
-1
-1
-1
-1
-1
-1
-1
-1
-1
-1
-1
-1
-1
-1
-1
-1
-1
-1
-1
-1
-1
-1
-1
-1
-1
-1
-1
-1
-1
-1
-1
-1
-1
-1
-1
-1
-1
-1
-1
-1
-1
-1
-1
-1
-1
-1
-1
-1
-1
-1
-1
-1
-1
-1
-1
-1
-1
-1
-1
-1
-1
-1
-1
-1
-1
-1
-1
-1
-1
-1
-1
-1
-1
-1
-1
-1
-1
-1
-1
-1
-1
-1
-1
-1
-1
-1
-1
-1
-1
-1
-1
-1
-1
-1
-1
-1
-1
-1
-1
-1
-1
-1
-1
-1
-1
-1
-1
-1
-1
-1
-1
-1
-1
-1
-1
-1
-1
-1
-1
-1
-1
-1
-1
-1
-1
-1
-1
-1
-1
-1
-1
-1
-1
-1
-1
-1
-1
-1
-1
-1
-1
-1
-1
-1
-1
-1
-1
-1
-1
-1
-1
-1
-1
-1
-1
-1
-1
-1
-1
-1
-1
-1
-1
-1
-1
-1
-1
-1
-1
-1
-1
-1
-1
-1
-1
-1
-1
-1
-1
-1
-1
-1
-1
-1
-1
-1
-1
-1
-1
-1
-1
-1
-1
-1
-1
-1
-1
-1
-1
-1
-1
-1
-1
-1
-1
-1
-1
-1
-1
-1
-1
-1
-1
-1
-1
-1
-1
-1
-1
-1
-1
-1
-1
-1
-1
-1
-1
-1
-1
-1
-1
-1
-1
-1
-1
-1
-1
-1
-1
-1
-1
-1
-1
-1
-1
-1
-1
-1
-1
-1
-1
-1
-1
-1
-1
-1
-1
-1
-1
-1
-1
-1
-1
-1
-1
-1
-1
-1
-1
-1
-1
-1
-1
-1
-1
-1
-1
-1
-1
-1
-1
-1
-1
-1
-1
-1
-1
-1
-1
-1
-1
-1
-1
-1
-1
-1
-1
-1
-1
-1
-1
-1
-1
-1
-1
-1
-1
-1
-1
-1
-1
-1
-1
-1
-1
-1
-1
-1
-1
-1
-1
-1
-1
-1
-1
-1
-1
-1
-1
-1
-1
-1
-1
-1
-1
-1
-1
-1
-1
-1
-1
-1
-1
-1
-1
-1
-1
-1
-1
-1
-1
-1
-1
-1
-1
-1
-1
-1
-1
-1
-1
-1
-1
-1
-1
-1
-1
-1
-1
-1
-1
-1
-1
-1
-1
-1
-1
-1
-1
-1
-1
-1
-1
-1
-1
-1
-1
-1
-1
-1
-1
-1
-1
-1
-1
-1
-1
-1
-1
-1
-1
-1
-1
-1
-1
-1
-1
-1
-1
-1
-1
-1
-1
-1
-1
-1
-1
-1
-1
-1
-1
-1
-1
-1
-1
-1
-1
-1
-1
-1
-1
-1
-1
-1
-1
-1
-1
-1
-1
-1
-1
-1
-1
-1
-1
-1
-1
-1
-1
-1
-1
-1
-1
-1
-1
-1
-1
-1
-1
-1
-1
-1
-1
-1
-1
-1
-1
-1
-1
-1
-1
-1
-1
-1
-1
-1
-1
-1
-1
-1
-1
-1
-1
-1
-1
-1
-1
-1
-1
-1
-1
-1
-1
-1
-1
-1
-1
-1
-1
-1
-1
-1
-1
-1
-1
-1
-1
-1
-1
-1
-1
-1
-1
-1
-1
-1
-1
-1
-1
-1
-1
-1
-1
-1
-1
-1
-1
-1
-1
-1
-1
-1
-1
-1
-1
-1
-1
-1
-1
-1
-1
-1
-1
-1
-1
-1
-1
-1
-1
-1
-1
-1
-1
-1
-1
-1
-1
-1
-1
-1
-1
-1
-1
-1
-1
-1
-1
-1
-1
-1
-1
-1
-1
-1
-1
-1
-1
-1
-1
-1
-1
-1
-1
-1
-1
-1
-1
-1
-1
-1
-1
-1
-1
-1
-1
-1
-1
-1
-1
-1
-1
-1
-1
-1
-1
-1
-1
-1
-1
-1
-1
-1
-1
-1
-1
-1
-1
-1
-1
-1
-1
-1
-1
-1
-1
-1
-1
-1
-1
-1
-1
-1
-1
-1
-1
-1
-1
-1
-1
-1
-1
-1
-1
-1
-1
-1
-1
-1
-1
-1
-1
-1
-1
-1
-1
-1
-1
-1
-1
-1
-1
-1
-1
-1
-1
-1
-1
-1
-1
-1
-1
-1
-1
-1
-1
-1
-1
-1
-1
-1
-1
-1
-1
-1
-1
-1
-1
-1
-1
-1
-1
-1
-1
-1
-1
-1
-1
-1
-1
-1
-1
-1
-1
-1
-1
-1
-1
-1
-1
-1
-1
-1
-1
-1
-1
-1
-1
-1
-1
-1
-1
-1
-1
-1
-1
-1
-1
-1
-1
-1
-1
-1
-1
-1
-1
-1
-1
-1
-1
-1
-1
-1
-1
-1
-1
-1
-1
-1
-1
-1
-1
-1
-1
-1
-1
-1
-1
-1
-1
-1
-1
-1
-1
-1
-1
-1
-1
-1
-1
-1
-1
-1
-1
-1
-1
-1
-1
-1
-1
-1
-1
-1
-1
-1
-1
-1
-1
-1
-1
-1
-1
-1
-1
-1
-1
-1
-1
-1
-1
-1
-1
-1
-1
-1
-1
-1
-1
-1
-1
-1
-1
-1
-1
-1
-1
-1
-1
-1
-1
-1
-1
-1
-1
-1
-1
-1
-1
-1
-1
-1
-1
-1
-1
-1
-1
-1
-1
-1
-1
-1
-1
-1
-1
-1
-1
-1
-1
-1
-1
-1
-1
-1
-1
-1
-1
-1
-1
-1
-1
-1
-1
-1
-1
-1
-1
-1
-1
-1
-1
-1
-1
-1
-1
-1
-1
-1
-1
-1
-1
-1
-1
-1
-1
-1
-1
-1
-1
-1
-1
-1
-1
-1
-1
-1
-1
-1
-1
-1
-1
-1
-1
-1
-1
-1
-1
-1
-1
-1
-1
198
196
197
196
196
203
205
207
206
202
197
200
202
206
208
209
209
213
218
217
215
210
212
209
209
216
216
221
225
228
224
220
227
226
230
226
225
229
228
221
221
218
222
227
225
223
222
224
221
220
212
205
208
215
217
213
210
208
207
201
196
188
197
193
192
185
196
195
204
189
179
188
191
190
186
191
193
191
189
190
183
178
180
175
176
184
190
192
189
185
179
183
184
183
186
188
184
189
184
181
174
176
178
182
177
177
186
186
188
183
181
182
185
181
180
184
189
193
192
183
175
179
187
185
182
181
179
188
185
186
182
185
178
175
181
185
179
183
188
186
182
181
184
184
185
183
183
186
187
180
175
176
181
177
179
187
187
189
192
185
179
183
187
188
186
182
181
181
180
178
173
178
183
180
185
189
181
184
185
183
172
177
178
177
180
179
183
183
179
176
173
180
178
181
181
180
187
185
180
178
173
172
175
182
184
185
185
184
181
177
176
175
179
179
178
182
191
188
185
184
181
180
183
187
187
190
196
196
194
196
190
195
199
201
204
203
206
198
195
188
187
188
190
191
181
180
191
187
183
182
181
182
178
173
177
174
176
172
175
177
172
178
178
177
179
179
177
172
167
163
167
169
174
179
175
178
179
174
172
173
170
171
168
174
174
167
175
175
172
174
169
172
183
196
217
244
269
285
304
314
306
294
282
274
256
230
207
176
141
124
128
128
133
138
146
154
159
160
163
161
168
169
165
167
164
168
172
170
171
166
172
175
179
178
177
174
168
167
166
160
167
164
169
174
173
175
169
167
167
166
171
172
171
175
173
176
178
174
172
166
171
177
174
180
181
185
182
162
168
165
166
172
175
172
172
180
177
176
168
173
177
173
179
183
181
185
186
183
182
181
180
185
184
185
185
189
190
192
188
194
195
196
197
195
202
207
204
200
197
202
205
201
198
195
200
207
203
201
199
200
198
196
200
200
205
209
200
193
194
193
187
187
182
172
191
184
180
173
168
169
170
176
172
171
177
174
176
175
168
173
167
159
163
162
169
170
166
167
164
168
167
166
162
162
167
159
166
170
162
156
147
154
161
157
155
159
156
152
150
166
162
158
154
159
161
156
162
158
151
154
163
162
159
161
164
164
155
151
151
154
155
144
161
158
160
158
155
153
157
162
157
157
152
158
158
158
158
156
151
162
159
159
157
164
162
155
152
146
144
155
158
157
159
160
162
159
153
149
149
152
147
154
153
155
159
149
149
147
150
151
148
152
156
152
155
156
152
151
158
150
152
151
153
151
153
145
146
142
138
147
148
152
151
148
148
148
142
142
141
143
147
145
148
150
150
147
152
146
144
145
151
150
152
153
152
152
152
150
148
148
148
142
146
151
152
154
149
148
155
158
161
159
159
164
159
154
151
147
151
148
150
153
155
156
151
146
143
136
133
137
136
135
136
139
138
135
135
132
137
137
136
136
132
135
137
131
129
130
130
126
134
132
134
138
134
128
125
134
142
140
132
134
138
140
139
130
127
128
129
132
135
129
143
165
181
200
221
247
257
248
243
242
231
219
185
157
126
107
94
89
90
96
96
99
105
111
113
124
126
131
144
140
138
134
133
130
131
136
133
131
131
128
135
138
130
127
124
125
128
129
125
130
132
138
135
134
131
134
133
131
134
134
139
143
141
135
134
138
142
139
137
144
146
140
134
127
135
140
138
137
134
134
136
138
134
137
133
138
139
139
138
140
143
145
141
141
142
146
147
149
152
149
163
160
154
156
155
158
155
150
152
153
157
161
161
160
162
164
169
167
165
167
172
165
153
156
160
165
167
170
166
166
167
162
157
149
150
153
151
154
152
148
148
144
140
139
135
136
131
136
136
137
136
130
119
121
126
130
130
126
121
123
129
123
122
122
129
124
125
123
123
127
127
125
124
120
125
120
118
123
122
129
125
120
117
115
119
117
117
122
121
123
119
121
117
113
114
118
116
116
117
119
118
117
114
119
123
121
123
119
120
126
128
120
117
123
123
126
123
119
117
115
114
118
117
119
119
116
114
113
117
123
118
113
112
109
110
107
113
117
120
123
118
114
108
108
117
114
113
115
111
118
122
115
112
112
116
114
118
118
114
116
112
107
103
109
109
108
114
116
113
119
112
108
106
110
114
115
111
100
103
111
111
106
102
105
108
108
109
110
113
113
112
108
107
111
113
114
113
113
117
119
119
118
118
123
122
124
128
125
132
131
126
119
113
106
119
118
120
121
120
115
113
106
108
106
108
105
108
107
110
109
111
102
96
101
101
102
107
105
108
108
105
99
95
98
100
103
101
100
105
106
97
91
101
103
107
104
112
110
108
110
102
103
99
104
103
106
100
98
113
116
128
141
163
184
209
225
218
209
212
206
183
149
125
101
72
61
62
63
78
76
75
76
92
98
96
99
100
103
109
107
103
101
105
105
107
107
111
103
105
108
105
103
104
105
101
101
110
110
106
107
111
105
106
106
110
119
118
120
117
115
114
111
117
118
113
113
118
120
116
117
112
104
112
112
113
116
112
113
117
112
106
110
117
120
115
111
116
126
128
125
115
115
116
122
127
128
135
136
137
136
133
128
137
137
135
133
138
143
142
129
135
135
137
142
147
146
146
152
147
142
141
138
142
144
142
139
143
154
157
148
141
144
145
138
134
133
135
134
134
133
127
122
122
118
123
125
121
123
123
115
110
108
116
117
109
104
107
109
114
107
101
106
114
111
109
109
107
107
110
106
100
103
103
101
109
117
110
116
109
103
111
109
108
109
112
113
109
111
106
104
101
103
108
103
104
106
110
108
104
105
102
109
109
109
104
105
109
109
107
103
101
103
106
107
102
100
111
116
120
113
107
108
110
107
112
114
118
112
108
102
101
106
109
108
111
109
104
103
107
110
108
108
110
108
105
104
105
110
108
103
103
104
122
120
110
113
109
113
107
107
107
109
111
109
104
99
99
104
110
112
110
108
112
110
105
105
99
100
106
107
107
109
113
110
105
107
108
110
105
114
115
115
123
123
122
115
118
122
121
122
128
126
129
128
125
115
112
116
122
117
113
115
112
113
111
102
105
104
102
103
102
110
107
101
102
101
102
100
100
103
102
106
107
104
99
106
105
102
102
103
104
105
102
100
96
96
103
102
106
99
99
103
98
90
89
90
101
106
106
102
110
131
145
163
186
196
227
241
227
214
207
198
170
142
122
94
74
58
61
68
69
85
84
88
91
90
100
102
103
94
98
102
103
96
97
99
103
105
104
104
107
101
107
106
103
104
102
103
106
106
110
112
109
107
102
106
105
100
107
109
113
114
117
106
98
102
98
102
109
108
111
122
117
111
109
105
108
112
110
115
121
121
121
116
113
113
111
113
116
119
118
121
116
111
100
113
120
115
119
120
120
124
118
120
122
126
127
129
126
122
130
132
134
137
125
120
136
138
139
138
148
151
145
138
136
143
144
138
138
139
140
139
135
133
128
132
133
126
122
123
126
125
121
117
112
113
108
106
107
109
110
112
118
113
102
109
103
106
103
100
107
110
104
97
98
108
99
94
100
101
103
103
99
98
95
99
105
101
96
103
106
106
105
93
96
96
95
99
102
103
105
109
103
98
98
102
103
103
102
108
104
99
96
97
99
98
95
102
101
103
102
100
100
95
98
95
98
99
98
104
106
100
95
97
100
100
99
101
104
103
106
99
99
96
98
95
104
110
106
104
106
109
104
94
102
101
100
99
101
105
107
105
103
99
101
101
103
103
101
103
103
101
99
98
99
100
102
103
103
103
99
94
101
97
98
98
99
103
104
106
108
101
96
93
98
98
98
100
101
108
109
106
99
94
102
99
101
104
106
108
103
108
105
104
107
111
113
115
118
123
126
125
116
113
113
112
112
115
117
120
115
107
105
104
104
103
99
101
99
99
100
93
93
98
100
101
97
90
94
102
97
88
87
87
85
86
95
99
102
100
94
90
86
84
91
92
96
87
90
102
97
91
84
84
89
96
99
100
102
99
92
99
115
143
170
194
211
238
243
222
213
208
182
164
134
113
84
57
56
53
53
53
56
69
73
78
82
86
92
95
100
92
88
90
89
89
93
93
96
90
92
88
84
83
86
92
92
94
96
91
89
83
88
93
93
90
93
92
102
100
90
96
98
98
94
97
96
102
106
109
108
110
99
97
92
97
97
94
100
95
89
94
94
98
97
101
106
107
111
104
104
104
101
104
105
112
106
105
116
109
102
104
111
114
120
117
119
124
122
120
103
112
129
118
123
125
123
133
133
131
127
125
124
134
129
134
131
136
127
117
110
127
129
117
118
118
114
116
115
117
116
104
102
100
98
101
99
100
97
96
90
84
82
85
89
97
85
94
93
87
87
88
89
84
79
82
78
78
80
80
82
79
74
75
82
86
77
81
85
77
80
74
78
80
81
77
76
81
81
77
78
82
82
74
75
79
75
74
73
72
72
71
81
74
79
78
74
83
81
74
72
70
76
82
74
77
79
81
77
72
71
67
69
72
74
71
75
82
77
79
77
81
80
75
74
76
73
80
75
70
72
78
82
80
81
78
78
82
79
80
76
74
69
69
73
75
74
76
76
72
66
67
73
71
68
71
80
74
79
76
68
73
72
74
70
73
78
81
77
80
69
74
78
77
78
82
86
83
79
75
76
80
84
87
88
93
101
97
93
88
85
87
83
76
81
80
92
88
89
86
71
74
73
72
69
66
68
75
72
69
64
69
74
70
68
60
68
71
75
65
62
64
70
71
65
62
77
72
67
62
64
64
64
72
64
73
76
69
73
63
62
58
61
76
67
63
79
75
62
57
65
86
109
134
160
190
187
185
166
155
154
129
101
85
57
53
39
21
20
30
32
39
46
53
72
74
74
65
64
70
67
68
67
72
70
73
79
74
72
69
71
77
61
63
77
95
71
78
67
72
72
72
73
75
84
90
77
76
73
75
76
76
75
81
74
80
85
76
76
84
77
84
83
83
81
87
87
84
82
80
83
83
83
98
92
97
95
99
88
86
85
93
93
95
108
109
102
110
105
94
109
101
109
114
111
115
116
113
115
110
115
118
131
125
125
130
125
115
113
116
121
133
133
134
138
140
134
113
114
116
123
123
122
121
123
111
112
117
102
102
101
99
102
98
96
101
101
92
84
89
96
90
96
94
92
92
91
79
68
72
81
80
91
90
92
87
98
79
70
80
85
90
92
69
86
80
84
76
70
69
73
80
85
82
82
86
84
72
66
72
85
82
86
85
83
84
81
78
82
72
77
79
80
80
82
80
87
82
72
78
74
70
76
85
90
87
83
86
83
87
91
82
73
90
80
74
87
85
78
87
77
81
86
84
87
95
87
78
84
93
80
80
82
85
92
82
81
74
75
77
75
79
77
82
88
82
75
79
85
85
84
82
75
79
83
81
82
79
79
83
85
83
84
90
87
82
81
75
78
73
81
81
84
83
91
81
89
81
79
83
86
89
88
98
99
94
91
81
98
96
101
110
107
110
108
100
93
93
91
92
87
91
93
88
85
88
81
77
78
76
73
74
79
82
84
79
79
70
67
71
68
74
77
83
82
76
70
69
69
70
71
64
78
78
67
71
71
68
64
70
71
66
72
72
64
68
74
69
76
64
60
77
102
128
164
194
218
245
263
251
249
246
224
189
160
129
88
51
41
42
42
39
46
55
59
59
62
65
69
73
75
75
77
76
71
70
67
71
76
75
75
76
75
86
84
77
73
76
77
81
86
77
76
85
86
83
77
76
79
87
89
85
88
85
87
80
79
81
79
78
82
82
86
82
77
90
85
89
93
88
86
91
89
88
86
85
80
91
92
95
92
93
99
98
89
89
90
97
95
97
99
106
114
110
106
98
98
105
112
112
117
118
123
121
120
123
121
123
120
125
125
126
130
127
127
125
117
125
130
129
129
127
129
127
123
116
109
111
110
112
116
114
110
112
104
92
92
98
95
96
102
97
99
96
91
85
84
83
80
84
83
85
89
87
82
78
81
84
85
86
81
82
92
89
91
78
81
80
81
87
89
86
86
90
81
78
80
90
89
83
80
84
81
77
76
75
76
76
76
81
82
83
86
82
77
72
72
78
79
78
80
83
83
84
80
75
76
82
82
77
87
89
89
85
83
79
77
79
81
80
79
85
84
83
77
79
83
82
87
90
88
89
89
89
82
81
81
84
84
86
85
89
91
88
81
83
90
90
85
92
93
93
82
81
85
83
90
94
92
94
91
90
89
87
86
85
93
104
101
105
108
115
113
106
102
111
107
105
110
111
103
105
103
99
91
91
88
86
86
85
81
83
79
79
77
76
71
76
80
83
80
89
89
83
73
78
81
79
80
72
78
82
81
79
73
71
77
77
74
75
76
76
76
76
72
78
75
74
67
64
63
66
62
57
56
78
104
135
176
203
234
260
257
244
237
236
215
169
141
109
73
46
42
36
31
34
44
46
54
63
75
76
76
77
77
86
77
71
74
71
79
80
74
72
71
72
78
84
80
80
80
82
82
81
80
75
79
82
84
85
86
84
87
85
83
87
88
89
83
87
97
95
90
92
86
89
89
89
91
93
95
90
86
89
85
87
89
93
98
96
98
94
92
95
95
101
101
104
102
106
110
107
108
104
107
107
107
115
118
118
122
121
128
117
116
121
126
127
126
128
133
132
128
125
131
132
133
136
134
134
138
132
128
126
130
132
130
131
123
120
129
128
117
111
111
110
112
111
107
106
104
101
93
91
94
98
96
97
96
99
93
87
83
85
93
91
91
89
87
89
85
85
87
73
88
86
88
92
88
89
90
87
83
80
85
82
85
83
85
88
85
85
78
76
85
79
85
81
80
94
88
86
80
77
84
85
83
84
89
86
83
86
84
77
88
86
85
85
85
87
87
84
80
82
83
82
80
87
88
90
89
86
81
83
84
84
88
84
84
90
90
86
81
80
83
88
88
83
91
91
91
86
78
80
82
87
91
91
98
97
91
86
83
85
83
85
84
83
86
89
86
87
80
84
84
83
86
93
93
88
93
89
89
89
88
88
87
87
90
95
97
98
95
98
99
104
105
109
107
110
108
98
101
100
103
101
102
98
92
94
90
84
82
87
80
80
79
83
82
80
83
80
78
81
80
83
83
85
88
86
81
77
76
76
75
78
82
86
86
88
78
70
72
76
74
78
76
83
88
81
76
72
69
67
70
78
79
78
87
103
130
155
180
208
235
243
236
231
232
212
176
142
116
85
57
48
44
47
54
55
53
60
61
68
71
73
75
79
83
78
75
76
78
77
76
82
81
80
87
83
79
75
79
79
82
86
85
88
87
85
73
77
76
90
82
86
88
90
87
87
82
78
78
76
89
86
84
89
91
88
84
81
83
81
76
88
95
92
95
100
96
90
91
90
90
92
90
98
98
97
91
92
95
98
98
100
98
102
101
97
99
105
109
110
112
111
116
116
113
111
111
106
120
121
121
128
129
131
131
123
118
120
123
123
122
121
123
126
128
119
115
114
112
111
113
111
108
114
110
109
107
101
98
98
95
90
90
98
95
84
90
89
89
88
91
89
95
94
81
80
81
81
82
88
91
90
88
91
88
85
81
81
81
85
88
79
90
92
88
80
80
83
85
82
85
88
92
89
87
81
79
83
83
84
82
87
92
87
84
79
76
84
89
86
88
88
89
86
87
83
80
83
78
78
85
85
93
88
89
90
86
87
88
84
90
88
89
93
95
89
85
89
91
90
92
91
93
88
88
90
89
93
90
91
88
91
97
97
91
91
88
84
85
86
90
85
94
95
84
83
80
86
82
88
87
92
96
91
85
82
85
88
89
92
86
94
94
91
92
92
96
96
92
93
95
97
98
96
96
96
97
101
103
104
110
111
114
114
108
99
100
106
99
99
99
102
108
104
100
94
91
87
84
78
83
95
93
87
84
82
83
89
88
90
87
92
91
88
85
82
83
86
91
88
83
97
93
86
83
83
88
86
84
82
84
91
87
89
87
84
85
78
75
82
83
89
89
85
92
109
131
155
178
205
230
230
212
210
201
183
153
124
102
74
49
50
51
52
52
54
58
67
72
75
80
83
81
88
89
87
88
87
84
86
86
91
87
88
88
81
83
89
89
86
89
95
91
89
81
84
88
86
86
91
91
96
91
83
80
86
90
92
95
93
95
95
91
89
87
90
91
89
96
93
96
97
98
94
90
93
93
89
93
99
101
97
96
96
89
99
103
103
101
100
105
106
102
102
93
103
107
107
110
113
116
119
116
113
110
116
116
121
122
123
130
127
122
120
117
123
124
124
126
124
124
124
125
121
112
109
106
113
113
113
115
117
108
103
97
101
99
95
96
97
102
98
87
89
82
90
88
86
85
92
94
90
87
85
78
80
81
83
81
82
90
89
79
73
73
77
78
78
82
79
83
78
82
78
74
74
84
78
79
78
84
84
76
77
79
80
78
78
74
76
82
85
82
82
78
82
78
79
80
85
83
83
81
77
76
79
80
86
81
81
87
87
77
76
78
76
82
86
83
86
85
81
76
74
75
79
83
85
84
87
88
84
82
82
79
78
77
84
83
85
88
83
81
76
75
80
77
79
79
81
80
81
82
76
79
78
78
79
78
80
82
82
76
77
77
77
79
78
78
84
83
75
73
70
81
81
79
79
81
81
78
83
77
75
77
78
82
79
77
82
90
82
82
81
74
77
85
87
91
98
95
94
93
98
99
100
96
97
101
99
93
93
90
90
88
83
85
81
81
89
83
81
75
73
78
76
78
74
73
77
74
73
70
77
75
72
76
77
74
80
81
72
76
67
65
70
73
79
77
79
74
71
63
72
74
74
74
80
80
73
71
72
70
69
72
72
80
94
118
140
165
183
202
215
206
194
191
176
159
134
107
77
44
33
33
35
41
45
56
61
52
65
69
75
70
70
73
74
75
75
73
68
67
69
69
69
74
75
81
81
73
70
69
71
74
72
78
76
76
81
73
70
75
77
73
74
81
79
80
74
71
74
74
74
74
81
82
78
80
81
78
70
73
74
75
77
81
80
86
84
78
75
73
74
77
81
77
83
88
86
81
81
80
82
84
88
87
87
93
92
88
89
87
91
94
93
97
100
96
97
101
94
100
98
99
104
103
105
104
103
98
92
100
102
102
103
106
106
100
93
91
85
90
88
86
87
86
91
91
82
83
76
77
78
75
72
72
78
78
72
72
65
64
70
71
66
68
74
69
60
59
60
61
63
67
70
66
69
66
64
65
63
63
59
64
67
63
63
67
62
62
56
61
64
60
62
66
72
69
63
57
56
61
58
59
55
64
70
65
61
59
57
64
60
56
65
66
71
65
63
61
62
61
61
62
61
63
62
59
62
56
58
62
63
68
63
64
68
59
58
58
59
60
61
62
60
64
66
65
58
55
59
61
59
62
61
65
62
61
58
54
57
60
59
59
63
63
69
59
55
53
56
59
62
63
66
70
64
61
52
57
59
59
59
54
60
65
63
59
55
51
56
53
55
60
57
62
68
60
54
46
48
53
58
61
61
61
60
55
53
52
55
56
57
58
54
62
53
57
61
60
61
62
60
60
64
64
61
57
57
62
72
74
70
76
82
85
82
79
73
70
77
73
71
72
72
73
69
63
56
56
59
55
59
57
55
58
56
59
54
55
56
54
59
55
54
57
54
51
47
46
48
52
52
48
53
59
54
55
49
52
55
50
51
53
55
56
50
52
41
45
48
51
52
52
53
58
56
48
51
71
95
121
148
168
199
206
186
177
170
158
132
101
78
46
24
14
12
9
9
23
36
38
37
41
48
47
46
40
39
40
46
51
51
50
52
53
54
53
48
49
50
51
52
52
57
53
48
50
49
54
52
50
55
54
56
56
51
45
43
54
53
55
50
48
52
51
61
54
49
56
59
59
59
57
57
59
55
52
52
55
54
50
56
60
63
57
62
64
63
62
62
66
65
63
66
65
64
65
65
68
67
67
67
73
78
76
71
68
73
76
78
76
76
81
81
80
80
80
80
84
85
84
85
89
90
87
85
78
81
80
75
73
74
73
75
75
70
68
62
71
69
62
62
66
65
58
55
50
53
53
51
52
51
54
49
52
47
42
44
44
51
53
50
52
48
46
40
38
38
40
44
42
41
41
45
44
40
41
42
42
42
41
40
42
48
44
41
35
39
46
44
42
42
48
47
42
40
38
43
37
39
45
43
45
46
41
37
32
40
41
41
40
41
39
35
37
42
44
42
45
45
45
49
52
51
43
40
41
41
49
47
46
45
49
46
46
41
42
42
44
44
47
48
50
47
41
37
42
44
46
43
47
46
47
42
40
39
46
39
47
47
40
44
44
44
40
34
45
44
36
42
43
43
48
42
39
41
37
47
51
42
44
45
47
44
38
38
39
35
37
42
44
40
39
37
37
38
38
37
37
41
44
46
43
35
36
32
37
34
36
37
41
43
38
42
38
33
34
34
40
37
39
46
41
37
36
35
35
37
38
36
34
38
40
38
34
31
40
35
40
37
39
46
44
40
40
44
47
49
51
54
58
62
61
52
51
47
52
51
51
44
49
52
46
41
36
36
37
35
33
29
31
33
37
28
25
26
24
29
34
32
34
32
33
33
27
25
26
23
29
28
31
29
29
28
22
27
28
29
32
33
25
28
27
28
21
26
22
23
24
25
26
27
19
32
53
78
106
126
151
183
182
166
159
149
122
102
75
51
18
-8
-13
-20
-14
-6
-2
8
10
15
10
16
27
28
27
28
18
22
25
26
23
22
29
27
24
21
20
25
23
22
30
26
35
39
31
27
26
29
32
31
33
31
29
26
30
29
25
29
24
31
32
33
35
37
34
29
28
26
29
35
37
34
36
37
34
30
33
33
37
36
36
38
36
34
39
32
35
40
43
43
46
45
48
42
41
33
38
46
49
48
53
60
55
52
47
38
46
48
53
58
65
64
63
62
64
57
64
62
59
56
53
59
61
58
55
53
56
57
56
60
55
58
56
53
45
39
39
44
42
41
40
37
39
32
31
31
30
28
22
19
24
33
35
23
20
20
22
26
22
25
22
30
33
24
18
14
18
22
29
26
23
26
20
19
14
11
23
21
23
24
19
26
23
18
18
10
20
22
18
25
21
24
26
18
14
11
19
24
28
25
24
25
24
19
13
13
17
17
21
24
27
31
25
18
15
20
20
17
21
20
24
30
26
20
17
20
23
21
22
20
23
25
22
16
11
17
24
23
28
28
27
25
21
16
20
23
19
20
19
23
24
24
22
21
17
17
15
17
18
19
21
21
18
16
12
16
16
15
18
19
25
19
14
15
13
18
20
12
13
16
21
23
20
15
15
23
19
19
20
14
17
13
12
11
15
15
15
16
17
15
22
17
20
16
17
15
12
14
15
15
20
14
14
17
12
11
12
12
16
13
16
18
13
13
10
10
12
18
16
19
26
21
21
13
15
19
18
18
16
19
25
23
19
19
22
30
27
34
41
40
42
36
29
26
28
33
26
29
27
27
29
23
21
10
7
7
13
16
16
16
13
10
9
3
9
12
9
11
14
10
11
13
9
4
10
6
4
6
10
11
12
8
6
4
5
6
10
11
8
8
10
5
2
1
5
-1
-2
9
6
7
13
26
46
69
95
123
145
164
155
146
140
124
92
59
35
6
-23
-37
-34
-30
-28
-26
-24
-18
-10
-7
-2
-1
5
5
11
3
-3
1
4
8
6
5
1
8
10
4
-1
-3
1
4
9
13
9
8
13
6
4
5
6
7
7
12
11
11
12
4
-1
2
6
10
8
10
14
16
12
2
6
6
13
16
15
16
14
16
14
13
7
7
12
11
15
20
20
24
19
18
13
16
17
16
22
21
24
24
21
17
19
21
27
31
31
28
32
29
31
30
29
32
37
34
35
39
43
38
39
32
27
30
34
38
44
41
43
43
39
24
23
33
30
33
30
31
30
26
25
16
12
12
18
19
18
14
16
12
6
6
1
6
5
5
5
6
9
7
3
-1
-2
-2
-4
-4
-2
-2
-1
-1
-5
-9
-6
-4
1
0
-1
2
1
-5
-5
-8
-7
-10
-9
-8
-1
-1
4
2
-1
-6
-4
-2
-1
-4
-2
-1
0
-1
-5
-10
-12
-5
-10
-3
-3
-5
1
4
-1
-9
-4
-4
-3
-1
-3
-3
-1
2
-4
-6
-7
-4
-4
4
1
-1
3
-2
-7
-8
-7
-3
-2
-3
-5
1
-1
-2
-9
-14
-9
-9
-5
-1
-2
-4
-4
-4
-7
-13
-3
-2
-8
-4
-3
6
0
-6
-12
-13
-9
-9
-9
-8
-8
-2
-3
-9
-15
-16
-11
-9
-10
-8
-10
-8
-7
-9
-10
-14
-8
-9
-12
-11
-10
-2
-7
-11
-11
-12
-12
-10
-9
-9
-8
-7
-9
-17
-15
-18
-13
-15
-10
-7
-10
-10
-10
-13
-17
-14
-11
-13
-10
-12
-14
-4
-6
-15
-18
-15
-14
-11
-12
-12
-10
-9
-12
-11
-18
-13
-12
-14
-11
-6
-5
-7
-10
-8
-10
-10
-4
-1
3
6
9
11
7
5
3
6
5
9
8
3
-2
-2
-1
-10
-22
-5
-4
-8
-10
-12
-7
-6
-13
-20
-28
-21
-18
-13
-14
-14
-11
-12
-17
-19
-24
-19
-18
-16
-13
-9
-11
-19
-20
-20
-27
-21
-18
-22
-21
-16
-14
-13
-19
-25
-23
-17
-12
-18
-20
-21
-17
-14
-19
-25
-24
-4
14
36
59
79
108
121
112
106
100
87
64
33
9
-19
-46
-60
-62
-65
-67
-63
-51
-45
-38
-32
-24
-23
-23
-25
-30
-20
-19
-20
-21
-23
-15
-18
-21
-26
-22
-18
-19
-18
-16
-17
-20
-18
-16
-21
-20
-17
-21
-18
-15
-13
-12
-10
-16
-22
-20
-20
-17
-16
-11
-10
-7
-10
-15
-18
-14
-13
-12
-12
-7
-11
-10
-11
-14
-15
-12
-9
-9
-11
-12
-12
-6
-2
0
-6
-9
-7
-5
-4
1
6
3
-2
-2
-9
0
7
7
7
2
13
13
8
6
3
8
11
15
20
20
24
23
21
18
15
17
16
18
17
20
23
22
18
18
18
24
17
9
6
6
12
8
6
10
-5
-8
0
-1
-4
-7
-4
-3
-3
-7
-14
-8
-11
-13
-15
-15
-11
-14
-18
-18
-21
-23
-26
-24
-20
-22
-17
-14
-21
-28
-36
-30
-24
-22
-19
-19
-19
-24
-28
-33
-32
-23
-23
-23
-21
-22
-19
-24
-29
-26
-25
-23
-27
-22
-20
-23
-21
-23
-23
-21
-22
-22
-21
-23
-27
-32
-23
-16
-26
-30
-24
-23
-31
-25
-24
-20
-12
-13
-17
-19
-16
-19
-19
-20
-17
-13
-17
-15
-21
-24
-22
-21
-21
-22
-29
-23
-19
-21
-21
-29
-28
-30
-26
-22
-29
-19
-20
-26
-27
-25
-23
-20
-21
-23
-23
-14
-13
-17
-20
-25
-23
-26
-25
-24
-15
-11
-16
-20
-30
-33
-29
-24
-21
-23
-21
-20
-22
-27
-27
-29
-26
-23
-23
-20
-22
-17
-21
-22
-18
-23
-13
-12
-15
-24
-15
-14
-22
-26
-26
-24
-19
-26
-18
-19
-25
-25
-19
-17
-27
-24
-19
-19
-18
-10
-7
-7
-16
-26
-28
-22
-23
-22
-21
-21
-16
-4
-1
0
-2
-2
-4
0
-2
0
-1
7
-1
-9
-11
-7
-1
-11
-13
-12
-11
-14
-18
-23
-28
-27
-23
-20
-19
-21
-18
-17
-21
-27
-30
-24
-19
-17
-18
-16
-16
-16
-20
-20
-23
-11
-3
-4
-12
-14
-9
-6
-8
-14
-13
-15
-8
-9
-5
-1
-2
0
-2
-8
-13
-10
-7
3
18
38
68
83
97
123
128
128
114
112
98
66
46
26
-2
-25
-32
-29
-25
-31
-31
-21
-3
3
6
8
7
8
5
6
8
11
13
13
6
6
7
12
13
13
15
17
20
13
9
4
3
12
15
24
23
8
1
16
16
18
13
19
17
24
25
25
29
26
23
18
13
22
23
29
32
28
30
24
20
15
26
28
31
33
31
30
31
30
28
22
22
31
35
38
35
35
40
42
44
41
37
43
41
41
46
47
52
52
52
46
51
50
56
55
58
62
65
59
54
55
61
59
62
62
62
65
65
63
65
67
63
60
56
58
60
64
61
55
50
43
45
47
49
42
42
47
47
39
38
35
38
38
33
29
31
29
31
30
23
20
24
23
23
25
20
27
24
23
20
14
20
22
16
22
21
20
20
17
15
9
17
20
15
20
15
13
18
16
12
10
14
10
5
5
9
13
13
8
3
1
2
2
3
3
3
9
5
-4
-8
-6
-6
-4
-5
-2
3
2
0
0
-6
-4
2
-2
-2
-2
1
7
4
-4
-5
-8
-7
-4
2
4
4
-1
-10
-12
-18
-8
-5
-6
-6
-6
-4
-4
-5
-14
-22
-16
-9
-8
-10
-13
-8
-8
-11
-16
-16
-14
-9
-9
-5
-3
-3
-4
-12
-15
-19
-18
-20
-11
-10
-16
-9
-8
-9
-13
-20
-14
-14
-14
-15
-19
-15
-10
-19
-23
-22
-20
-15
-17
-23
-18
-16
-14
-16
-19
-21
-17
-21
-24
-26
-13
-9
-13
-15
-15
-20
-16
-16
-19
-15
-17
-10
-9
-15
-21
-24
-23
-22
-19
-15
-15
-5
-4
-13
-7
-1
-3
-5
0
0
5
0
-5
-9
-14
-11
-11
-14
-16
-12
-18
-15
-18
-19
-24
-21
-22
-25
-22
-22
-21
-21
-26
-26
-30
-25
-25
-24
-24
-28
-22
-18
-28
-24
-21
-20
-24
-24
-24
-25
-23
-17
-20
-23
-28
-23
-20
-25
-19
-19
-18
-23
-31
-32
-26
-23
-20
-21
-18
-1
15
39
56
71
97
111
107
93
90
80
61
30
5
-26
-58
-72
-75
-63
-54
-51
-39
-33
-32
-34
-34
-30
-25
-21
-24
-23
-17
-22
-26
-24
-30
-22
-25
-25
-22
-19
-18
-18
-18
-23
-29
-31
-26
-20
-24
-24
-18
-20
-24
-25
-24
-18
-21
-26
-24
-17
-10
-15
-23
-24
-24
-19
-21
-20
-18
-10
-10
-22
-22
-21
-24
-22
-24
-20
-17
-12
-8
-13
-18
-27
-19
-19
-20
-15
-17
-13
-14
-13
-17
-25
-20
-15
-13
-8
-5
-3
-4
-6
-9
-8
-6
-6
1
-1
0
6
8
6
1
-2
1
4
1
6
5
14
14
11
3
0
4
6
6
6
1
7
6
-1
-2
-4
0
-3
-7
-6
-5
-3
-7
-12
-18
-20
-18
-15
-18
-16
-15
-17
-17
-22
-22
-30
-25
-27
-26
-21
-24
-26
-19
-19
-26
-33
-30
-26
-28
-25
-26
-24
-24
-26
-25
-28
-32
-32
-34
-31
-30
-26
-28
-25
-27
-34
-30
-26
-31
-35
-33
-25
-24
-31
-32
-29
-31
-29
-27
-23
-23
-23
-27
-27
-33
-31
-28
-21
-25
-23
-30
-27
-24
-25
-33
-30
-33
-30
-29
-31
-28
-26
-29
-31
-32
-31
-31
-26
-28
-27
-26
-22
-24
-28
-32
-33
-31
-27
-23
-21
-22
-20
-23
-27
-32
-32
-29
-27
-23
-25
-23
-21
-24
-30
-31
-32
-33
-31
-27
-26
-26
-27
-28
-32
-32
-31
-28
-30
-29
-29
-24
-23
-28
-32
-35
-29
-33
-34
-33
-32
-24
-21
-28
-29
-24
-25
-27
-34
-30
-27
-24
-20
-27
-33
-31
-30
-27
-29
-27
-26
-24
-30
-30
-33
-37
-35
-28
-33
-27
-23
-23
-24
-24
-26
-36
-31
-31
-25
-19
-23
-9
-11
-13
-14
-12
-4
3
2
-2
-8
-6
-13
-18
-23
-24
-20
-25
-25
-20
-19
-16
-19
-26
-34
-36
-33
-33
-33
-33
-33
-34
-27
-28
-33
-36
-31
-32
-30
-31
-32
-30
-32
-34
-37
-33
-36
-35
-30
-29
-30
-31
-32
-34
-42
-33
-32
-30
-35
-33
-23
-30
-35
-36
-33
-25
-29
-33
-22
-11
6
31
54
74
93
112
104
89
80
69
53
21
-10
-34
-63
-77
-77
-74
-70
-64
-56
-54
-46
-46
-48
-41
-34
-32
-33
-32
-31
-33
-36
-41
-40
-35
-31
-35
-32
-31
-30
-27
-31
-31
-34
-31
-34
-25
-33
-35
-25
-34
-32
-33
-36
-34
-28
-26
-28
-32
-27
-25
-32
-34
-38
-32
-32
-32
-29
-27
-21
-21
-24
-32
-34
-29
-26
-27
-23
-22
-22
-25
-30
-31
-27
-20
-20
-23
-23
-14
-11
-20
-17
-20
-23
-20
-16
-12
-7
-16
-11
-6
-11
-20
-17
-10
-11
-6
-2
-1
2
1
-5
-3
1
-5
-4
-5
0
11
15
10
2
-2
-1
8
4
6
4
-1
-2
-5
-7
-9
-4
-6
-4
-12
-12
-13
-16
-19
-23
-25
-22
-29
-27
-27
-21
-19
-19
-23
-22
-31
-32
-34
-38
-43
-32
-29
-27
-24
-31
-34
-33
-34
-33
-33
-33
-31
-28
-33
-32
-35
-31
-23
-26
-31
-31
-33
-39
-41
-36
-40
-39
-39
-33
-36
-39
-30
-33
-36
-42
-38
-33
-32
-29
-34
-34
-27
-25
-25
-27
-29
-30
-26
-25
-30
-31
-27
-26
-29
-32
-30
-28
-28
-28
-29
-29
-22
-31
-33
-37
-33
-28
-29
-28
-19
-21
-17
-26
-34
-35
-31
-24
-25
-26
-29
-26
-24
-24
-29
-33
-30
-20
-24
-26
-26
-24
-20
-25
-27
-28
-28
-26
-26
-24
-19
-18
-19
-26
-31
-38
-29
-24
-25
-24
-25
-24
-18
-22
-27
-31
-29
-28
-32
-25
-25
-22
-21
-27
-27
-31
-27
-28
-26
-25
-23
-18
-24
-23
-24
-34
-27
-32
-29
-28
-24
-17
-20
-23
-25
-26
-18
-21
-22
-21
-23
-23
-21
-20
-23
-26
-28
-31
-26
-25
-23
-17
-19
-29
-29
-25
-23
-18
-15
-9
-5
-3
0
-3
-7
-7
-5
-7
-5
-6
3
-6
-9
-12
-19
-21
-22
-24
-19
-11
-19
-17
-20
-31
-30
-33
-29
-26
-29
-29
-27
-27
-28
-35
-37
-33
-26
-28
-29
-26
-28
-28
-32
-32
-35
-26
-24
-30
-24
-27
-28
-29
-32
-35
-33
-31
-24
-27
-22
-23
-32
-33
-32
-31
-36
-32
-34
-21
1
24
59
82
105
121
104
98
102
89
66
37
9
-16
-53
-72
-79
-73
-70
-63
-55
-50
-38
-35
-36
-36
-41
-31
-33
-35
-33
-27
-22
-27
-29
-31
-28
-24
-34
-31
-25
-31
-23
-21
-27
-20
-26
-23
-23
-27
-16
-19
-19
-18
-22
-23
-28
-26
-22
-22
-18
-15
-12
-17
-22
-19
-23
-19
-20
-19
-19
-18
-9
-19
-22
-20
-22
-16
-17
-14
-11
-10
-8
-9
-17
-17
-17
-12
-9
-7
-12
-11
-4
-3
-5
-9
-12
-9
-6
-4
1
5
8
2
-8
-5
-3
-1
3
8
3
8
20
12
10
5
7
9
8
11
13
15
14
13
7
4
6
10
7
9
6
7
3
1
3
1
-3
-5
-2
-4
-8
-9
-12
-18
-18
-12
-12
-15
-19
-23
-18
-17
-18
-20
-23
-31
-25
-30
-31
-20
-25
-23
-20
-26
-27
-32
-30
-27
-25
-24
-27
-29
-29
-23
-25
-28
-30
-33
-30
-29
-31
-30
-30
-29
-28
-29
-27
-31
-31
-27
-29
-19
-23
-28
-31
-34
-31
-28
-25
-25
-27
-25
-27
-27
-36
-42
-34
-25
-22
-22
-21
-16
-22
-30
-30
-31
-31
-30
-23
-23
-25
-20
-18
-24
-26
-36
-33
-22
-23
-25
-25
-21
-26
-28
-24
-26
-25
-22
-22
-25
-25
-24
-22
-24
-28
-26
-30
-28
-20
-27
-19
-15
-18
-19
-26
-26
-25
-27
-27
-28
-21
-20
-20
-24
-28
-28
-30
-32
-30
-26
-14
-16
-21
-30
-40
-32
-31
-28
-30
-28
-23
-26
-26
-27
-32
-31
-22
-24
-23
-22
-22
-25
-23
-27
-24
-21
-23
-27
-28
-25
-22
-24
-27
-27
-31
-25
-23
-25
-25
-25
-26
-30
-24
-17
-26
-24
-22
-23
-23
-26
-19
-17
-21
-24
-27
-22
-21
-20
-21
-13
-11
-8
-12
-13
-12
-14
-6
-4
-1
-1
2
2
-4
-11
-14
-11
-13
-11
-10
-15
-17
-19
-18
-27
-24
-21
-20
-24
-26
-26
-22
-28
-31
-28
-27
-29
-23
-27
-26
-26
-19
-25
-29
-30
-26
-25
-27
-26
-28
-25
-18
-18
-29
-24
-22
-22
-23
-28
-21
-23
-23
-27
-25
-33
-37
-30
-31
-27
-27
-26
-24
-13
0
17
48
71
96
109
100
89
91
74
46
13
-6
-35
-59
-69
-72
-66
-61
-60
-60
-60
-50
-45
-32
-30
-30
-17
-24
-24
-27
-29
-23
-27
-33
-22
-20
-21
-19
-20
-25
-31
-24
-22
-25
-24
-24
-21
-16
-22
-20
-22
-20
-17
-18
-20
-21
-22
-21
-18
-22
-24
-20
-17
-18
-17
-16
-16
-12
-17
-21
-20
-17
-14
-15
-17
-12
-9
-9
-20
-17
-11
-12
-11
-7
-6
-9
-5
-7
-7
-12
-9
-1
-1
-5
-2
4
4
0
-2
-2
-4
4
1
11
16
16
19
14
10
4
7
16
16
15
15
14
17
13
8
12
19
23
21
24
20
24
21
20
14
10
8
12
10
6
6
7
7
-2
-5
-4
-6
-6
-4
-6
-7
-9
-9
-11
-16
-17
-17
-15
-21
-15
-14
-15
-16
-17
-24
-28
-27
-28
-21
-19
-18
-14
-17
-23
-29
-31
-24
-24
-16
-18
-20
-14
-16
-21
-25
-30
-27
-26
-26
-22
-22
-16
-17
-26
-26
-29
-28
-25
-25
-25
-24
-24
-19
-24
-26
-30
-25
-25
-23
-29
-28
-25
-18
-19
-20
-25
-27
-23
-22
-26
-20
-16
-18
-22
-20
-29
-25
-19
-19
-24
-19
-7
-15
-20
-22
-24
-24
-20
-18
-17
-19
-14
-16
-25
-32
-27
-24
-23
-22
-23
-21
-17
-17
-22
-25
-25
-20
-20
-21
-23
-25
-22
-26
-28
-23
-25
-24
-23
-22
-24
-23
-22
-21
-27
-33
-27
-23
-21
-20
-20
-20
-18
-20
-26
-30
-29
-24
-22
-22
-22
-21
-17
-18
-24
-28
-30
-28
-32
-28
-19
-18
-19
-25
-31
-33
-23
-20
-21
-21
-26
-23
-25
-29
-31
-32
-27
-26
-22
-23
-23
-24
-24
-24
-21
-29
-28
-26
-20
-21
-20
-14
-16
-19
-22
-21
-22
-17
-14
-14
-5
-3
-4
-8
-5
-6
-4
-6
-10
-10
-8
-7
-5
-13
-19
-25
-21
-14
-12
-16
-17
-11
-19
-27
-30
-34
-22
-21
-22
-25
-22
-21
-21
-24
-30
-33
-27
-24
-26
-20
-20
-17
-26
-28
-33
-32
-34
-33
-23
-24
-22
-19
-26
-25
-28
-27
-24
-25
-23
-26
-30
-28
-26
-30
-31
-21
-25
-22
-13
6
29
54
75
91
100
94
83
81
71
43
15
0
-23
-55
-72
-72
-67
-63
-58
-53
-45
-37
-37
-39
-36
-33
-30
-31
-28
-28
-27
-24
-24
-30
-33
-25
-22
-22
-22
-23
-17
-23
-24
-20
-27
-28
-24
-22
-23
-27
-20
-19
-24
-25
-24
-23
-22
-17
-19
-21
-18
-15
-18
-23
-28
-17
-20
-23
-17
-17
-11
-17
-15
-18
-18
-17
-18
-19
-14
-12
-8
-12
-18
-20
-27
-12
-8
-9
-8
-7
-4
-1
-8
-17
-16
-10
-8
-5
-7
-4
6
6
-2
0
0
6
5
5
7
11
14
11
8
10
10
11
11
14
15
15
17
11
11
5
9
11
10
14
13
13
17
7
0
-2
4
2
3
-1
0
-5
-5
-3
-11
-15
-13
-14
-16
-9
-14
-13
-13
-17
-21
-26
-21
-21
-22
-19
-19
-17
-19
-20
-23
-29
-23
-22
-23
-18
-21
-17
-18
-20
-24
-26
-27
-27
-30
-23
-23
-19
-19
-21
-24
-24
-25
-21
-22
-24
-26
-19
-20
-28
-22
-29
-25
-23
-23
-24
-23
-19
-23
-24
-31
-31
-25
-24
-21
-21
-21
-19
-15
-20
-27
-29
-25
-25
-26
-25
-21
-18
-19
-21
-26
-34
-26
-22
-22
-19
-16
-20
-22
-25
-28
-25
-20
-20
-21
-22
-19
-21
-19
-19
-29
-28
-23
-21
-24
-23
-25
-22
-19
-24
-27
-22
-23
-25
-26
-21
-19
-20
-21
-24
-26
-26
-25
-28
-24
-22
-23
-18
-21
-18
-21
-20
-26
-25
-26
-24
-22
-23
-27
-28
-29
-24
-19
-18
-22
-24
-27
-24
-22
-25
-30
-23
-23
-24
-21
-20
-17
-19
-21
-31
-32
-30
-27
-27
-25
-22
-22
-19
-26
-30
-35
-24
-25
-24
-21
-24
-20
-21
-17
-27
-31
-23
-26
-26
-26
-29
-17
-25
-31
-28
-30
-26
-25
-23
-22
-20
-17
-20
-22
-24
-26
-24
-22
-20
-22
-21
-16
-19
-18
-18
-17
-10
-7
-5
-4
-6
1
3
-7
-16
-14
-10
-19
-13
-10
-14
-13
-15
-22
-25
-26
-27
-26
-29
-32
-26
-22
-23
-25
-29
-26
-26
-27
-27
-27
-27
-26
-25
-29
-36
-31
-26
-25
-28
-25
-27
-28
-29
-32
-37
-32
-28
-33
-30
-33
-25
-21
-29
-34
-40
-33
-33
-28
-18
-22
-22
-29
-30
-15
0
27
55
72
89
109
104
91
86
75
51
32
5
-18
-50
-68
-66
-65
-64
-62
-58
-48
-44
-38
-33
-32
-29
-28
-29
-33
-32
-30
-32
-26
-26
-24
-19
-23
-28
-32
-34
-33
-33
-30
-30
-29
-23
-24
-28
-31
-31
-25
-26
-28
-21
-22
-19
-23
-28
-31
-29
-28
-25
-21
-24
-22
-20
-24
-24
-24
-28
-19
-21
-22
-13
-15
-13
-18
-24
-29
-28
-23
-16
-19
-17
-18
-16
-16
-20
-22
-19
-17
-16
-14
-14
-15
-8
-7
-9
-13
-14
-8
-7
-10
-7
-9
-2
-2
0
1
1
3
7
10
9
10
15
12
7
4
2
4
6
6
11
11
14
10
6
6
4
4
-1
1
-3
4
1
-4
-10
-12
-8
-10
-9
-11
-15
-11
-10
-13
-21
-22
-24
-20
-22
-21
-22
-22
-18
-21
-27
-28
-31
-28
-25
-27
-26
-20
-21
-25
-25
-29
-26
-23
-27
-28
-26
-23
-22
-25
-27
-32
-35
-30
-24
-25
-28
-23
-27
-32
-30
-35
-28
-26
-26
-25
-24
-21
-27
-31
-26
-34
-30
-22
-26
-23
-24
-22
-24
-34
-36
-36
-31
-28
-23
-24
-24
-32
-26
-24
-32
-30
-33
-29
-30
-27
-26
-21
-22
-27
-27
-27
-23
-31
-25
-27
-24
-19
-25
-28
-30
-29
-22
-26
-20
-25
-24
-22
-28
-27
-25
-23
-26
-25
-26
-26
-22
-22
-25
-26
-28
-27
-29
-28
-28
-28
-24
-24
-28
-30
-29
-27
-26
-25
-24
-26
-21
-25
-28
-27
-26
-29
-28
-27
-22
-18
-20
-24
-24
-24
-32
-28
-29
-30
-28
-26
-25
-26
-24
-28
-35
-29
-27
-30
-32
-24
-20
-22
-23
-30
-28
-26
-27
-26
-24
-28
-24
-24
-28
-20
-33
-26
-26
-27
-23
-25
-18
-19
-20
-24
-33
-25
-24
-26
-28
-30
-23
-23
-25
-30
-28
-21
-23
-25
-28
-30
-25
-23
-23
-29
-27
-27
-22
-22
-22
-21
-19
-17
-20
-25
-26
-27
-23
-19
-20
-16
-14
-15
-12
-13
-10
-2
-2
3
-2
-2
-4
-8
-10
-16
-17
-16
-15
-13
-16
-14
-15
-20
-23
-31
-26
-24
-27
-26
-27
-23
-25
-29
-29
-37
-29
-28
-26
-25
-20
-26
-27
-31
-28
-32
-26
-26
-27
-27
-32
-24
-18
-25
-35
-35
-33
-28
-27
-29
-27
-27
-28
-28
-30
-35
-32
-25
-28
-31
-28
-11
2
25
48
66
87
112
112
96
95
92
72
36
9
-12
-40
-68
-71
-69
-62
-55
-51
-46
-43
-44
-40
-34
-32
-30
-30
-24
-21
-23
-29
-33
-28
-26
-25
-25
-26
-25
-25
-33
-30
-27
-24
-25
-21
-22
-25
-22
-21
-26
-27
-27
-25
-24
-23
-23
-25
-19
-16
-24
-28
-29
-25
-19
-12
-18
-19
-14
-17
-16
-24
-25
-24
-24
-20
-15
-9
-7
-12
-23
-22
-21
-22
-14
-14
-16
-5
-6
-9
-16
-19
-15
-10
-9
-5
-5
-2
-1
-4
-8
-14
-10
-1
2
-1
6
9
11
4
1
-5
-3
2
12
15
15
21
17
12
4
7
10
11
16
13
14
14
14
8
7
3
4
6
6
3
2
-2
7
4
-8
-15
-11
-11
-15
-10
-9
-10
-10
-12
-17
-23
-22
-22
-22
-22
-23
-23
-20
-20
-27
-28
-24
-23
-21
-18
-15
-12
-18
-23
-28
-27
-25
-28
-31
-28
-28
-22
-23
-28
-24
-25
-24
-21
-25
-25
-21
-15
-22
-26
-29
-31
-28
-25
-23
