-9
-11
-2
-10
-20
-21
-17
-15
-3
0
-6
-8
-9
-23
-24
-28
-15
-17
-8
-8
-5
2
-3
-8
-13
-23
-16
-15
-2
-1
-6
0
-4
-28
-17
-7
-6
-24
-10
1
0
-9
-10
-17
-21
-18
-16
-11
0
-4
-1
-3
-8
-20
-17
-22
-23
-17
-4
7
11
-4
-11
-29
-21
-13
-19
-18
-3
4
2
-5
-6
-15
-25
-20
-9
0
-1
-2
4
2
-14
-22
-13
-10
-16
-8
-7
8
10
6
1
-10
-10
-4
11
7
11
6
14
5
-6
-11
0
-6
-8
23
28
8
2
-2
5
-5
-5
-16
-21
-1
-1
0
1
0
-4
-18
-21
-20
-11
-8
-1
1
-10
-14
-10
-16
-9
-5
-10
-5
-5
-10
-11
-15
-21
-17
-18
-15
-14
-1
-2
-5
-9
-18
-24
-25
-21
-6
-1
4
-1
3
0
-20
-20
-18
-12
-7
10
15
29
27
13
13
5
-8
-15
3
17
33
35
42
37
31
11
3
-2
-7
-8
-7
-16
-37
-45
-52
-61
-48
-28
-10
-6
-1
3
10
-1
-12
-24
-26
-19
2
-1
2
3
-4
-16
-17
-19
-12
-21
-18
-14
-7
-4
0
-17
-19
-27
-15
-9
-7
-1
6
2
2
-8
-8
-29
-23
-25
-21
-10
-1
10
10
-4
-7
-20
-19
-13
-15
-10
11
7
-1
-5
-9
-11
-18
-12
-10
-1
2
0
-2
4
-7
-19
-4
1
-1
11
9
7
5
11
4
-4
-4
0
12
14
19
17
23
12
14
10
8
24
20
22
22
21
19
21
24
19
26
32
27
35
39
38
31
20
17
16
5
20
29
29
27
30
33
20
-5
-3
-7
-3
1
6
4
6
-2
-4
-7
-10
-19
-19
-13
1
-10
-4
-6
-23
-23
-27
-32
-28
-23
-12
-5
-13
-16
-26
-32
-33
-32
-24
-22
-17
-22
-18
-30
-38
-49
-43
-41
-30
-27
-18
-19
-31
-34
-38
-48
-51
-44
-45
-42
-27
-27
-35
-47
-42
-40
-42
-52
-46
-27
-26
-34
-30
-22
-33
-47
-44
-43
-32
-18
-15
-19
-20
-31
-29
-31
-20
-31
-38
-23
-20
-23
-26
-24
-25
-27
-27
-31
-34
-18
-19
-22
-24
-18
-27
-31
-31
-24
-17
-26
-23
-33
-25
-32
-37
-40
-30
-36
-31
-17
-11
-13
-17
-22
-34
-40
-40
-44
-32
-23
-15
-22
-36
-29
-38
-38
-33
-22
-23
-15
-28
-27
-29
-33
-37
-33
-35
-32
-38
-27
-27
-31
-30
-32
-43
-39
-33
-30
-35
-21
-25
-28
-31
-17
-25
-35
-37
-36
-32
-27
-26
-25
-27
-33
-40
-37
-33
-36
-39
-42
-34
-25
-21
-26
-44
-49
-48
-40
-38
-29
-32
-41
-41
-40
-56
-53
-46
-37
-34
-31
-33
-33
-36
-49
-62
-43
-39
-35
-38
-30
-32
-38
-38
-44
-51
-42
-50
-42
-35
-27
-28
-16
-27
-42
-49
-44
-45
-41
-39
-41
-48
-34
-39
-54
-60
-63
-54
-52
-51
-48
-47
-44
-45
-57
-58
-62
-60
-59
-53
-52
-54
-46
-47
-59
-62
-61
-59
-54
-48
-43
-44
-44
-53
-62
-65
-67
-49
-49
-43
-45
-44
-47
-59
-70
-61
-48
-44
-53
-50
-38
-33
-34
-27
-27
-39
-58
-57
-53
-34
-37
-39
-28
-20
-19
-12
-17
-20
-31
-38
-39
-41
-48
-63
-87
-89
-97
-96
-84
-77
-76
-62
-49
-55
-64
-53
-55
-49
-49
-43
-52
-49
-55
-49
-49
-55
-62
-54
-45
-39
-33
-35
-44
-42
-58
-53
-59
-46
-40
-29
-39
-52
-46
-42
-51
-46
-46
-40
-35
-30
-37
-44
-50
-47
-46
-42
-40
-43
-44
-35
-26
-34
-40
-39
-43
-41
-37
-30
-26
-21
-25
-29
-28
-39
-39
-37
-38
-36
-32
-23
-26
-26
-23
-30
-36
-23
-30
-30
-23
-13
-18
-15
-24
-35
-31
-14
-8
-12
-10
0
5
12
9
3
1
4
2
0
10
14
28
22
10
-1
-8
1
3
2
3
9
5
-2
5
-8
-12
-12
-7
-2
1
-6
-7
-11
-18
-32
-35
-36
-32
-33
-28
-26
-23
-34
-43
-45
-46
-43
-39
-36
-20
-22
-39
-38
-41
-44
-50
-62
-49
-44
-24
-35
-39
-43
-44
-51
-58
-56
-50
-42
-38
-42
-34
-41
-45
-53
-56
-59
-56
-45
-39
-36
-36
-51
-50
-58
-56
-56
-52
-48
-38
-48
-49
-49
-49
-55
-58
-58
-43
-45
-39
-31
-25
-40
-46
-50
-49
-43
-49
-41
-34
-36
-35
-33
-41
-37
-44
-49
-45
-34
-34
-31
-39
-40
-44
-48
-42
-46
-39
-39
-27
-39
-37
-45
-54
-58
-43
-38
-41
-31
-32
-29
-32
-40
-48
-53
-52
-48
-37
-36
-33
-32
-39
-50
-53
-53
-42
-39
-45
-42
-36
-35
-34
-35
-43
-53
-53
-40
-42
-30
-29
-32
-31
-43
-53
-56
-38
-35
-43
-32
-35
-45
-48
-46
-52
-50
-40
-35
-44
-28
-31
-35
-40
-43
-53
-55
-55
-48
-44
-42
-49
-37
-40
-50
-53
-58
-58
-55
-49
-39
-37
-40
-51
-56
-68
-53
-53
-49
-45
-38
-41
-43
-42
-48
-55
-55
-54
-57
-62
-56
-42
-37
-31
-44
-49
-55
-55
-47
-40
-35
-30
-36
-40
-49
-44
-37
-41
-35
-33
-23
-18
-17
-30
-36
-47
-37
-36
-34
-36
-25
-17
-14
-15
-18
-16
-31
-38
-23
-15
-11
-24
-30
-34
-39
-48
-47
-47
-48
-39
-31
-28
-36
-36
-33
-40
-51
-57
-51
-37
-41
-45
-37
-36
-40
-45
-39
-37
-40
-37
-45
-39
-38
-28
-29
-37
-44
-38
-47
-40
-23
-29
-30
-34
-37
-48
-39
-31
-34
-28
-23
-20
-17
-20
-29
-24
-23
-13
-11
-13
-14
-22
-25
-27
-23
-8
10
15
14
11
3
-2
-11
-23
-28
-37
-48
-58
-66
-59
-52
-58
-49
-38
-43
-38
-27
-32
-33
-15
-19
-20
-32
-34
-35
-28
-30
-31
-29
-24
-22
-19
-21
-31
-26
-25
-28
-28
-23
-19
-22
-14
-12
-24
-28
-34
-37
-35
-20
-9
-10
-8
-14
-15
-21
-25
-18
-13
-13
-17
-17
-19
-23
-22
-36
-26
-23
-18
-17
-9
-6
-10
-20
-21
-31
-23
-20
-22
-13
0
3
-9
-12
-17
-20
-16
-12
-1
-3
-21
-9
-3
-6
-8
-7
-6
-7
-3
9
6
9
13
10
3
5
12
19
19
27
27
27
27
21
15
12
12
18
21
36
32
30
24
21
14
11
12
6
14
18
12
15
4
-5
-16
-2
1
-3
2
6
3
0
-7
-6
-19
-24
-25
-23
-24
-10
-11
-8
-17
-21
-34
-32
-27
-19
-15
-13
-16
-13
-19
-22
-30
-29
-33
-22
-16
-10
-17
-23
-32
-26
-39
-28
-34
-15
-13
-7
-12
-19
-14
-13
-27
-26
-28
-20
-10
-3
-15
-9
-10
-19
-28
-18
-21
-27
-22
-15
-15
-14
-23
-26
-26
-19
-21
-14
-13
-14
-14
-13
-17
-24
-37
-39
-22
-9
-10
-15
-11
-12
-20
-24
-24
-26
-19
-15
-11
-10
-19
-27
-17
-28
-34
-23
-24
-30
-22
-12
-8
-11
-16
-23
-28
-27
-28
-18
3
-11
-13
-10
-16
-20
-18
-21
-12
-7
-8
-1
6
7
-6
-15
-22
-20
-16
-10
4
5
-8
-13
-11
-22
-19
-22
-12
-11
-12
-16
-18
-8
-17
-29
-25
-28
-28
-33
-19
-11
-2
-23
-19
-20
-26
-34
-25
-26
-17
-6
-4
-9
-23
-17
-8
-27
-22
-19
-4
-12
-11
-9
-7
-14
-17
-23
-24
-16
-3
2
-4
-7
-14
-18
-19
-15
-18
-18
-11
-8
-4
-14
-21
-23
-20
-23
-18
-11
0
0
5
-5
-15
-24
-18
-14
-2
6
2
-9
-3
-5
-8
-5
-7
-14
-11
-5
4
7
11
7
4
2
-5
-11
-6
0
9
16
12
-3
0
-2
-4
-8
-5
4
1
12
13
-3
-5
-6
-7
-10
-11
-5
1
1
-9
-17
-16
-26
-26
-23
-14
6
5
-9
-12
-15
-13
-10
-21
-10
-12
-4
-14
-19
-16
-21
-21
-12
-23
-15
-15
-11
-3
-4
-3
-14
-28
-31
-29
-15
-15
1
-3
1
-5
-5
-10
-10
-4
2
7
13
16
13
14
2
-11
-10
-7
-4
19
44
52
58
46
25
3
11
5
1
-1
-9
-21
-32
-38
-44
-44
-32
-23
-4
4
11
6
7
3
-8
-16
-2
-6
4
3
2
1
13
8
2
-2
-7
-13
-8
5
13
8
5
-1
-8
-14
-11
-16
-9
3
3
2
3
9
-1
-9
-5
-3
-9
2
12
9
3
6
-6
-6
5
2
0
9
21
12
10
6
-4
-1
8
-1
6
14
16
14
16
15
10
3
4
6
14
27
32
23
21
18
15
15
15
16
16
33
35
35
27
35
22
15
23
31
39
47
65
60
52
42
35
39
44
37
37
51
55
52
45
41
26
22
21
32
22
40
41
35
26
24
16
6
-2
1
3
5
3
9
2
-10
-19
-16
-19
-13
-26
-21
-20
-8
-14
-23
-31
-32
-35
-21
-21
-20
-29
-28
-22
-17
-32
-45
-48
-38
-26
-28
-22
-23
-29
-29
-39
-38
-43
-40
-36
-28
-30
-33
-31
-37
-40
-44
-46
-36
-29
-18
-29
-26
-31
-41
-39
-32
-36
-36
-27
-20
-24
-33
-36
-31
-38
-41
-44
-34
-16
-20
-30
-34
-33
-32
-32
-41
-36
-33
-28
-25
-22
-15
-24
-31
-35
-40
-34
-28
-21
-24
-32
-29
-13
-25
-43
-41
-36
-35
-17
-23
-24
-29
-35
-40
-40
-36
-26
-30
-31
-22
-22
-22
-36
-42
-42
-37
-36
-29
-37
-24
-14
-20
-21
-35
-42
-36
-32
-34
-29
-27
-27
-32
-40
-44
-52
-45
-31
-23
-32
-34
-30
-38
-43
-48
-54
-58
-39
-38
-41
-48
-43
-36
-37
-54
-51
-39
-44
-38
-38
-26
-29
-40
-42
-49
-45
-48
-35
-30
-28
-25
-29
-38
-42
-51
-43
-42
-41
-28
-33
-28
-22
-25
-30
-49
-44
-38
-35
-34
-24
-30
-34
-37
-45
-42
-45
-41
-32
-24
-28
-27
-22
-29
-30
-36
-33
-29
-22
-22
-33
-32
-25
-18
-34
-32
-23
-27
-20
-17
-17
-15
-18
-20
-29
-32
-40
-41
-42
-30
-24
-23
-31
-37
-41
-39
-38
-40
-34
-32
-31
-36
-34
-37
-33
-47
-41
-37
-32
-31
-25
-33
-33
-38
-44
-47
-49
-44
-41
-25
-19
-17
-33
-43
-47
-47
-43
-38
-38
-23
-24
-31
-30
-31
-45
-40
-31
-24
-13
-13
-14
-12
-29
-37
-47
-41
-33
-14
12
14
7
0
-18
-24
-49
-55
-57
-56
-71
-68
-75
-73
-55
-63
-65
-47
-36
-27
-30
-23
-25
-25
-31
-33
-46
-43
-40
-25
-30
-26
-30
-26
-28
-35
-42
-37
-37
-30
-25
-26
-23
-30
-31
-29
-26
-29
-40
-33
-26
-25
-20
-23
-29
-28
-28
-35
-34
-30
-32
-20
-19
-19
-25
-27
-36
-32
-30
-31
-29
-12
-20
-18
-16
-16
-30
-28
-30
-29
-21
-9
-18
-17
-15
-25
-26
-24
-20
-8
-5
-9
-3
1
-7
-14
-8
-5
-11
4
14
8
16
12
4
-2
-6
8
13
15
24
33
24
9
10
6
9
10
15
18
37
24
20
16
15
-1
3
-6
3
9
14
-1
1
1
-1
-21
-22
-17
-17
-12
-5
-15
-26
-30
-27
-38
-45
-35
-37
-26
-18
-26
-27
-35
-45
-55
-46
-47
-48
-40
-37
-38
-43
-48
-43
-53
-43
-48
-39
-42
-35
-38
-39
-48
-57
-65
-59
-61
-70
-61
-45
-52
-47
-44
-55
-70
-69
-65
-68
-64
-59
-60
-55
-60
-68
-78
-64
-64
-66
-57
-45
-47
-45
-62
-68
-66
-61
-63
-66
-53
-41
-51
-58
-62
-74
-80
-69
-58
-41
-42
-47
-56
-52
-44
-50
-63
-51
-47
-47
-44
-42
-46
-44
-48
-60
-67
-67
-67
-58
-44
-37
-49
-59
-53
-65
-71
-63
-58
-57
-46
-42
-33
-43
-57
-69
-73
-67
-53
-45
-40
-47
-45
-50
-57
-72
-68
-64
-66
-61
-51
-47
-47
-57
-55
-72
-78
-68
-63
-60
-54
-55
-51
-60
-61
-61
-74
-74
-66
-69
-57
-55
-45
-59
-68
-83
-79
-73
-67
-65
-60
-52
-46
-54
-58
-71
-59
-70
-54
-59
-55
-51
-46
-58
-60
-72
-68
-69
-67
-61
-51
-52
-48
-57
-61
-64
-67
-63
-58
-58
-53
-54
-47
-55
-61
-58
-58
-68
-57
-54
-46
-47
-46
-60
-65
-65
-54
-52
-54
-51
-42
-41
-34
-42
-47
-53
-56
-54
-50
-44
-50
-52
-65
-59
-60
-71
-62
-70
-69
-52
-51
-54
-62
-65
-72
-71
-70
-72
-61
-57
-51
-54
-55
-59
-64
-74
-74
-67
-59
-44
-46
-49
-53
-62
-74
-70
-66
-58
-53
-43
-49
-45
-60
-59
-62
-68
-64
-57
-59
-47
-36
-28
-42
-44
-44
-49
-51
-53
-54
-48
-42
-37
-28
-18
-18
-17
-34
-34
-43
-54
-55
-63
-69
-83
-93
-94
-104
-91
-84
-73
-68
-60
-62
-64
-63
-63
-62
-66
-54
-48
-64
-53
-52
-59
-64
-59
-60
-58
-48
-44
-45
-51
-56
-59
-58
-61
-65
-50
-42
-39
-45
-38
-47
-56
-61
-62
-70
-58
-51
-47
-45
-39
-51
-51
-57
-47
-50
-50
-44
-41
-36
-45
-37
-46
-48
-45
-45
-47
-39
-34
-31
-40
-46
-40
-46
-48
-41
-36
-34
-32
-32
-33
-31
-43
-56
-50
-44
-30
-17
-19
-25
-30
-27
-33
-28
-27
-20
-18
-5
-9
-10
-13
-17
-24
-10
-10
-11
-2
6
11
3
8
4
-8
-7
-8
-2
-10
3
0
-3
-1
-3
-14
-22
-29
-25
-30
-17
-15
-9
-13
-28
-30
-30
-40
-42
-37
-32
-37
-31
-46
-55
-54
-44
-55
-58
-49
-40
-46
-44
-52
-61
-69
-61
-62
-53
-46
-44
-52
-54
-56
-52
-58
-65
-60
-60
-50
-38
-48
-53
-61
-67
-71
-56
-63
-71
-55
-46
-54
-58
-70
-72
-76
-61
-59
-63
-54
-53
-61
-56
-59
-64
-74
-66
-63
-53
-46
-49
-56
-60
-60
-63
-65
-63
-64
-58
-53
-47
-44
-49
-54
-63
-61
-59
-66
-59
-49
-36
-47
-47
-49
-50
-61
-61
-58
-59
-49
-40
-48
-37
-34
-57
-62
-58
-53
-42
-40
-34
-36
-50
-56
-60
-62
-59
-52
-49
-43
-41
-41
-46
-50
-52
-55
-56
-56
-51
-41
-35
-38
-50
-50
-58
-57
-54
-54
-53
-42
-39
-45
-59
-59
-59
-60
-68
-65
-55
-45
-41
-45
-57
-55
-69
-63
-59
-65
-63
-43
-48
-48
-41
-51
-67
-68
-72
-55
-46
-43
-49
-47
-47
-50
-56
-53
-53
-48
-46
-45
-41
-48
-45
-44
-51
-61
-66
-54
-43
-36
-41
-48
-46
-45
-55
-52
-55
-50
-58
-35
-44
-40
-44
-51
-61
-55
-57
-52
-39
-35
-32
-35
-47
-50
-54
-59
-55
-45
-33
-37
-40
-41
-45
-45
-50
-52
-54
-55
-39
-30
-30
-43
-52
-58
-60
-55
-52
-56
-49
-42
-33
-37
-47
-53
-61
-58
-55
-38
-28
-22
-27
-36
-42
-49
-45
-41
-45
-54
-33
-38
-30
-28
-33
-43
-42
-38
-28
-29
-32
-31
-29
-31
-45
-62
-54
-62
-57
-56
-47
-44
-46
-44
-47
-54
-60
-62
-58
-53
-51
-43
-47
-48
-55
-60
-59
-48
-48
-53
-44
-45
-42
-55
-60
-64
-64
-62
-54
-39
-30
-41
-39
-47
-55
-61
-53
-52
-55
-50
-48
-43
-34
-47
-49
-44
-40
-27
-37
-24
-12
-14
-26
-28
-44
-50
-46
-39
-22
-2
17
15
3
-7
-11
-30
-40
-42
-37
-43
-48
-67
-67
-70
-69
-71
-62
-46
-44
-37
-28
-33
-42
-41
-43
-41
-45
-43
-37
-37
-39
-47
-43
-38
-40
-49
-50
-45
-44
-42
-37
-38
-36
-40
-54
-41
-38
-41
-41
-32
-26
-27
-32
-39
-45
-44
-41
-40
-44
-42
-27
-20
-27
-38
-50
-48
-41
-34
-32
-21
-25
-20
-28
-34
-33
-36
-35
-41
-34
-26
-17
-15
-27
-31
-43
-43
-36
-38
-36
-25
-18
-26
-29
-25
-18
-26
-36
-24
-17
-13
-8
-12
-12
-5
-17
-6
-13
-7
-3
4
12
13
5
8
-4
11
2
8
11
16
8
6
10
10
2
2
-5
0
9
8
-6
-3
-1
-11
-13
-17
-30
-21
-7
4
-3
-17
-25
-29
-32
-30
-34
-34
-28
-25
-30
-33
-42
-45
-46
-46
-46
-42
-49
-34
-38
-38
-35
-43
-52
-49
-56
-54
-49
-40
-44
-38
-39
-53
-53
-54
-60
-53
-49
-42
-36
-45
-52
-63
-66
-52
-50
-54
-45
-37
-41
-41
-54
-56
-64
-56
-59
-47
-39
-33
-42
-34
-43
-63
-56
-53
-43
-38
-27
-33
-39
-50
-48
-44
-52
-50
-51
-44
-30
-30
-32
-46
-51
-41
-54
-53
-45
-41
-38
-54
-44
-47
-48
-54
-55
-61
-49
-49
-40
-38
-44
-44
-43
-49
-49
-52
-37
-41
-42
-41
-33
-35
-40
-50
-43
-44
-46
-36
-24
-29
-35
-39
-33
-37
-45
-41
-29
-20
-18
-25
-29
-28
-20
-25
-36
-42
-39
-30
-24
-32
-33
-44
-47
-43
-40
-44
-37
-40
-28
-32
-32
-38
-37
-47
-50
-52
-50
-43
-33
-35
-31
-35
-39
-40
-36
-39
-40
-31
-24
-28
-31
-26
-29
-37
-39
-41
-25
-19
-21
-27
-34
-35
-31
-26
-25
-40
-39
-25
-26
-25
-23
-31
-33
-33
-34
-37
-37
-37
-23
-23
-28
-35
-38
-41
-37
-35
-35
-27
-25
-29
-30
-29
-38
-46
-41
-36
-28
-24
-21
-30
-35
-40
-45
-44
-42
-34
-30
-25
-16
-19
-28
-18
-29
-38
-37
-36
-31
-16
-13
-20
-21
-15
-33
-29
-31
-29
-22
-7
-10
-5
-9
-17
-21
-23
-27
-22
-17
-10
-24
-22
-26
-21
-33
-30
-34
-28
-33
-29
-22
-22
-26
-28
-41
-47
-41
-30
-32
-25
-27
-23
-40
-42
-47
-42
-51
-36
-30
-22
-22
-15
-29
-43
-58
-45
-48
-52
-43
-30
-33
-37
-40
-30
-49
-45
-46
-46
-43
-37
-38
-34
-30
-29
-42
-30
-27
-28
-16
-11
-27
-34
-36
-30
-33
-8
8
6
9
-4
-4
-12
-18
-36
-44
-40
-52
-60
-68
-65
-65
-69
-62
-56
-50
-45
-46
-44
-40
-33
-41
-43
-49
-54
-54
-49
-47
-41
-29
-33
-32
-33
-40
-47
-53
-51
-40
-49
-37
-24
-22
-44
-43
-50
-44
-49
-48
-40
-31
-36
-37
-37
-44
-44
-48
-56
-40
-35
-33
-25
-25
-24
-35
-48
-42
-43
-40
-34
-19
-25
-26
-41
-35
-39
-36
-40
-32
-29
-16
-21
-30
-30
-28
-30
-25
-37
-27
-29
-10
-1
-5
-12
-17
-34
-33
-30
-12
-2
2
-6
-2
3
1
-16
-14
-13
-8
-4
9
6
4
7
0
-8
-6
-6
-6
0
6
4
2
8
0
-11
-13
-15
-15
-8
-1
-5
-13
-17
-27
-32
-28
-26
-19
-16
-22
-24
-31
-36
-36
-44
-45
-48
-45
-35
-40
-46
-39
-47
-56
-59
-55
-47
-52
-47
-45
-46
-42
-47
-55
-64
-58
-53
-46
-38
-41
-39
-46
-50
-64
-60
-55
-62
-60
-44
-40
-43
-63
-57
-62
-52
-52
-54
-54
-51
-50
-54
-52
-57
-62
-62
-63
-62
-60
-47
-43
-44
-48
-43
-61
-62
-61
-53
-50
-38
-38
-41
-60
-50
-50
-52
-56
-49
-40
-32
-34
-34
-41
-40
-58
-58
-46
-44
-43
-36
-32
-29
-31
-41
-48
-44
-45
-43
-36
-34
-33
-34
-37
-41
-48
-51
-47
-48
-37
-32
-41
-45
-38
-35
-43
-45
-45
-43
-37
-32
-37
-44
-43
-54
-61
-58
-55
-52
-44
-43
-49
-49
-39
-61
-60
-46
-48
-49
-42
-34
-28
-34
-53
-54
-60
-54
-57
-48
-37
-35
-41
-39
-47
-54
-59
-56
-48
-42
-34
-29
-30
-31
-43
-46
-48
-50
-46
-43
-40
-38
-28
-31
-40
-42
-43
-42
-42
-42
-37
-34
-40
-30
-34
-42
-40
-40
-38
-45
-30
-34
-41
-42
-33
-39
-48
-46
-36
-31
-20
-29
-40
-46
-48
-43
-44
-47
-26
-37
-31
-31
-29
-33
-36
-39
-30
-42
-37
-31
-27
-33
-29
-32
-39
-29
-35
-40
-23
-26
-20
-24
-25
-31
-36
-40
-49
-49
-41
-33
-32
-28
-25
-35
-44
-50
-42
-50
-46
-46
-33
-27
-30
-31
-32
-42
-43
-44
-33
-35
-32
-39
-33
-34
-36
-48
-48
-43
-43
-39
-24
-22
-33
-38
-37
-43
-52
-38
-37
-36
-34
-39
-41
-39
-40
-50
-48
-28
-25
-20
-11
1
-9
-12
-24
-41
-41
-35
-16
-2
7
18
9
1
-15
-23
-30
-33
-30
-28
-30
-55
-60
-57
-64
-69
-56
-46
-31
-24
-29
-24
-19
-15
-23
-41
-36
-27
-27
-24
-20
-28
-23
-28
-30
-33
-30
-23
-16
-10
-13
-18
-20
-15
-32
-39
-30
-14
-22
-15
-19
-18
-13
-24
-27
-26
-21
-19
-18
-1
-7
-7
-8
-12
-30
-34
-27
-15
-16
-14
-8
-1
-6
-9
-20
-25
-16
-6
-9
-2
-4
0
-9
-10
-17
-19
-13
-7
-15
-6
7
9
12
2
-9
-7
-3
4
11
14
13
16
23
14
4
16
16
19
19
32
42
40
29
23
23
21
17
31
31
38
35
27
31
33
26
17
22
21
21
27
36
33
20
9
0
-1
4
6
14
19
18
10
-2
-7
-13
-23
-19
-12
-7
-12
-16
-9
-8
-18
-22
-30
-29
-31
-22
-16
-15
-17
-20
-28
-22
-24
-27
-29
-19
-15
-15
-17
-33
-37
-32
-33
-28
-23
-17
-16
-15
-24
-25
-34
-36
-36
-26
-33
-21
-20
-25
-32
-28
-37
-39
-47
-30
-20
-18
-22
-32
-39
-33
-37
-36
-43
-31
-24
-19
-13
-10
-18
-20
-27
-42
-50
-38
-23
-6
-13
-15
-29
-22
-34
-34
-25
-30
-27
-23
-20
-21
-27
-32
-29
-29
-35
-25
-22
-13
-14
-19
-22
-27
-46
-35
-24
-31
-28
-15
-20
-19
-12
-30
-32
-33
-22
-25
-28
-16
-21
-25
-30
-31
-36
-32
-29
-24
-22
-14
-19
-21
-26
-27
-36
-34
-30
-25
-19
-17
-17
-23
-27
-36
-35
-34
-34
-35
-28
-15
-19
-27
-31
-30
-28
-35
-36
-29
-20
-26
-26
-25
-29
-38
-37
-21
-26
-31
-21
-18
-31
-33
-34
-43
-39
-36
-29
-32
-24
-24
-26
-25
-24
-25
-35
-49
-36
-35
-20
-25
-26
-23
-27
-42
-41
-40
-37
-35
-29
-36
-14
-11
-26
-34
-29
-26
-25
-20
-14
-18
-16
-21
-27
-44
-43
-46
-33
-25
-14
-14
-18
-21
-22
-35
-40
-30
-20
-20
-17
-13
-19
-27
-33
-34
-33
-39
-33
-34
-26
-23
-22
-16
-22
-42
-33
-23
-21
-18
-16
-14
-9
-22
-36
-34
-32
-24
-20
-24
-15
-2
-5
-21
-24
-34
-24
-15
-16
-8
1
-3
-7
-8
-14
-20
-24
-24
-24
-15
-5
-13
-13
-30
-35
-28
-28
-25
-21
-13
-13
-16
-17
-22
-26
-33
-40
-26
-19
-15
-23
-23
-21
-25
-23
-24
-30
-22
-15
-19
-21
-23
-21
-21
-31
-34
-34
-29
-28
-29
-24
-17
-21
-20
-38
-44
-43
-34
-25
-17
-10
-11
-22
-15
-21
-13
-11
-3
-15
-15
-15
-20
-16
-19
-12
-8
8
17
21
23
18
5
-10
-19
-27
-27
-37
-38
-52
-53
-45
-37
-38
-30
-31
-30
-29
-18
-11
-1
-13
-7
-12
-24
-28
-25
-26
-22
-14
-4
-11
-11
-11
-13
-20
-24
-20
-19
-17
1
-5
-13
0
-3
-18
-25
-18
-8
-12
-10
-14
1
-6
-11
-13
-18
-17
-16
-6
0
-10
-4
-5
-14
-18
-15
-20
-12
-3
1
7
2
1
-4
-15
-7
-6
-2
1
10
6
3
7
4
0
-5
-5
3
4
15
21
20
18
4
3
1
9
22
31
35
40
31
30
25
21
23
25
36
50
45
36
34
42
34
25
19
25
36
41
42
34
34
29
31
27
19
25
29
24
20
28
30
25
14
2
0
3
7
14
9
8
-10
-17
-30
-31
-12
0
-5
-1
-6
-2
-27
-24
-27
-11
-25
-20
-17
-8
-9
-2
-4
-14
-16
-23
-29
-15
-16
-10
-5
2
-2
-12
-21
-16
-25
-24
-11
-5
-8
-4
-9
-17
-21
-13
-16
-8
4
4
-10
-7
-18
-21
-19
-14
-18
-14
-7
7
-6
5
-6
-9
-25
-24
-21
-8
2
8
0
-4
-3
-8
-15
-6
-10
-13
-5
2
5
-9
-8
-10
-20
-16
-16
-15
-9
0
1
-3
-9
-17
-26
-20
-25
-19
-8
5
3
-6
-1
-1
-13
-4
1
-7
-4
0
-7
0
-5
-14
-14
-19
-5
0
13
12
4
-1
-2
-12
-9
-14
-7
2
4
3
10
-3
-13
-17
-19
-16
-2
-6
-1
14
2
-2
-2
-14
-4
-7
-6
-8
0
-5
-1
1
-2
-11
-7
-7
-14
-14
5
-2
2
9
2
0
0
-14
-4
-1
14
10
7
-2
-5
-3
-11
-8
-1
3
-1
1
12
1
-15
-17
3
-9
4
6
-4
-1
7
3
-4
-1
-12
-10
3
3
10
10
14
7
-2
-5
1
1
-3
6
17
8
18
4
-10
-10
-5
-9
-7
3
8
8
1
1
3
-7
-8
-8
-2
13
3
3
-2
-1
1
-6
-12
-10
-8
13
23
16
2
-1
3
4
9
4
8
6
7
-2
-5
-3
0
-13
-8
9
18
24
27
15
5
7
4
4
7
5
7
18
10
20
23
12
-4
-6
-1
14
9
16
20
24
16
6
-1
7
12
10
12
14
12
13
2
-11
-14
-19
-15
-5
8
8
-3
14
14
5
-6
-16
-18
-8
7
16
18
10
-3
-7
-13
-6
-11
-8
6
15
9
4
-1
1
-3
-4
-10
-4
7
20
1
5
11
-6
-21
-15
-4
2
12
15
12
16
23
14
7
16
17
20
21
17
13
3
-1
8
14
4
19
40
44
41
41
26
15
0
-2
-9
-18
-30
-31
-31
-25
-26
-18
-9
0
-9
-8
-4
4
6
7
5
5
-4
-6
-5
-4
-1
6
13
20
12
10
0
-9
-19
-14
10
10
13
16
16
11
2
0
-7
0
2
16
18
7
4
10
11
1
1
8
-1
5
22
23
15
6
4
1
-1
8
12
15
9
12
15
25
12
6
4
17
24
34
23
19
13
27
12
19
23
26
26
31
35
32
29
26
13
18
19
25
33
39
42
41
46
32
27
27
18
34
39
52
55
53
45
38
37
35
28
38
41
47
42
39
39
40
30
36
30
25
39
45
40
33
25
19
16
20
11
14
21
28
23
12
12
3
-3
-2
-4
-5
13
17
5
2
8
4
6
-3
-6
7
8
9
11
5
5
-4
-1
2
3
3
1
3
-2
-1
5
0
-7
-8
-8
-3
1
-7
-3
-3
-9
-22
-20
-18
-22
-12
0
0
-3
-8
-9
-18
-12
-22
-22
-11
7
8
15
7
-15
-22
-18
-10
-7
-3
8
8
3
-4
2
-8
-6
-9
-9
-1
8
8
8
4
3
-6
-6
-9
-9
-4
16
12
7
4
5
5
-2
-8
-7
-3
13
12
14
10
3
-5
5
3
1
1
14
15
13
14
2
-2
-2
-7
-3
2
11
3
16
2
-6
-19
-7
1
-2
-3
2
-2
-3
6
3
-9
-13
-11
-4
-11
-1
5
-1
-18
-13
-9
-11
-12
-11
-6
5
-5
-9
-4
-9
-18
-18
-20
-8
13
8
-3
-2
-5
-3
-19
-9
-7
-1
-2
4
2
4
5
-8
-7
-4
5
2
10
13
9
9
1
-12
-15
-9
-3
-6
4
15
11
5
-3
-9
-15
-16
-2
1
-4
3
7
5
1
-10
-14
-8
2
-2
6
12
-7
-7
-9
-19
-22
-15
-3
2
-2
-7
-5
-6
-5
-19
-29
-19
-11
0
5
-1
2
-4
-13
-19
-5
-8
-5
6
21
11
14
7
6
-2
-1
-11
-2
5
17
17
22
13
8
-6
12
13
11
9
20
20
13
9
9
-3
-7
-10
-8
-4
15
1
1
2
-4
-8
-5
-2
-3
1
7
7
2
-1
-5
-12
-6
-8
-10
3
14
7
-2
-6
-20
-17
-8
-14
-4
7
7
7
-6
-6
-9
-23
-18
-5
-6
2
8
6
4
9
3
-7
4
9
5
22
17
18
16
6
-2
-6
14
36
49
47
39
33
26
22
5
5
-5
-32
-28
-26
-34
-22
-33
-30
-21
-7
-9
-7
-6
6
10
0
-3
-3
-3
-2
-9
-5
-5
9
6
0
0
0
-8
-8
-9
-3
0
13
5
8
0
-5
1
2
3
6
8
7
1
0
2
7
1
7
5
14
14
11
6
17
-1
-9
1
8
4
16
16
24
28
19
4
-5
-3
4
14
12
21
25
17
19
17
8
2
7
4
8
20
26
24
20
14
5
6
24
26
22
17
27
35
37
27
33
31
28
31
36
48
54
43
47
42
34
31
32
38
41
49
59
60
57
52
40
31
32
32
43
49
53
42
38
32
28
24
26
28
17
20
36
33
12
6
6
-3
-7
-1
-5
7
5
2
-11
-7
-15
-21
-15
-8
-6
5
1
4
-5
-11
-18
-22
-22
-22
-8
3
-4
-3
-10
-22
-29
-26
-20
-18
-16
-7
-9
-1
-16
-34
-31
-22
-17
-20
-31
-24
-14
-11
-24
-29
-28
-28
-29
-23
-17
-16
-14
-21
-20
-22
-40
-26
-31
-29
-25
-9
-5
-6
-13
-16
-25
-23
-27
-24
-18
-6
-10
-6
-11
-11
-12
-9
-23
-24
-20
-11
-17
-4
-5
-19
-29
-28
-28
-19
-18
-9
-8
-4
-12
-21
-31
-27
-27
-20
-19
-11
-11
-20
-28
-32
-27
-25
-30
-31
-16
-25
-4
-7
-10
-11
-22
-28
-27
-26
-15
-14
-21
-15
-19
-20
-32
-29
-19
-10
-14
-17
-19
-15
-19
-22
-30
-32
-26
-21
-9
-8
-15
-20
-17
-26
-27
-26
-18
-14
-14
-14
-17
-21
-21
-24
-24
-25
-23
-27
-11
-12
-14
-14
-17
-25
-31
-26
-26
-19
-12
-11
-10
-12
-24
-38
-29
-33
-23
-13
-14
-19
-16
-19
-24
-28
-29
-33
-27
-24
-26
-25
-11
-7
-19
-26
-19
-18
-24
-30
-13
-11
2
-2
-24
-31
-14
-20
-15
-15
-11
-13
-12
-17
-15
-12
-23
-25
-18
-14
-5
-8
-6
-12
-21
-24
-25
-35
-26
-23
-12
-6
-17
-12
-13
-19
-11
-16
-15
-5
7
4
10
-4
-4
-8
-15
-12
-11
-11
-5
5
2
6
-6
-11
-1
5
9
6
9
11
6
-1
-13
-15
-24
-20
-12
1
-3
-12
-7
-8
-18
-22
-19
-17
-17
-3
6
-12
-14
-21
-28
-35
-18
-22
-32
-8
-3
-3
-7
-10
-20
-21
-21
-12
-12
-17
-14
-2
-5
-13
-24
-28
-26
-14
-10
-9
-6
-10
-6
-2
-13
-13
-3
12
11
10
10
3
-6
-13
-20
-7
6
27
38
42
29
33
10
0
-15
-10
-20
-21
-34
-35
-38
-35
-43
-40
-35
-32
-22
0
-1
-4
-9
-7
-13
-19
-24
-11
-19
-16
-12
-5
-1
2
-9
-16
-21
-16
-19
-14
-11
-11
-9
-8
0
-14
-32
-11
-9
-5
-8
-4
-10
-5
-6
-11
-15
-9
-8
-3
-10
-7
0
-4
-8
-16
-20
-16
-7
-1
-1
-2
-1
-1
0
10
-2
-10
-12
-13
-4
12
6
5
-6
-2
1
-6
-8
-11
6
15
7
3
7
5
0
1
9
6
11
12
18
21
21
12
10
17
17
19
27
20
29
30
38
25
25
26
32
19
34
38
33
28
32
20
19
13
13
24
29
23
25
24
11
2
-1
1
5
5
14
10
12
6
4
-12
-19
-17
-15
-20
-9
-3
-8
-28
-32
-26
-28
-31
-31
-29
-14
-10
-14
-22
-20
-36
-28
-22
-26
-26
-21
-19
-14
-17
-31
-42
-35
-25
-20
-22
-24
-26
-28
-26
-31
-30
-27
-38
-28
-32
-21
-22
-18
-22
-35
-36
-40
-39
-30
-21
-15
-22
-23
-20
-21
-29
-31
-34
-34
-32
-28
-24
-22
-22
-30
-37
-27
-21
-16
-18
-22
-23
-22
-26
-32
-32
-30
-32
-34
-15
-14
-20
-17
-31
-31
-32
-37
-38
-39
-26
-20
-21
-20
-26
-39
-38
-19
-29
-24
-12
-15
-29
-29
-26
-37
-38
-33
-12
-21
-15
-18
-14
-15
-20
-29
-32
-34
-26
-14
-6
-11
-17
-28
-26
-36
-30
-36
-30
-27
-23
-21
-29
-24
-28
-38
-40
-34
-21
-27
-20
-26
-27
-26
-21
-19
-33
-37
-31
-35
-27
-16
-16
-18
-23
-32
-30
-27
-16
-20
-18
-26
-27
-26
-16
-25
-23
-24
-21
-17
-14
-23
-22
-28
-28
-28
-24
-25
-25
-20
-12
-24
-27
-23
-28
-35
-24
-21
-20
-21
-7
-14
-17
-26
-28
-37
-33
-23
-32
-24
-11
-19
-11
-15
-23
-33
-22
-26
-29
-22
-13
-23
-29
-35
-29
-29
-32
-23
-26
-21
-16
-22
-24
-29
-36
-39
-34
-26
-27
-18
-16
-22
-22
-28
-32
-39
-28
-23
-20
-15
-15
-18
-21
-15
-14
-26
-33
-18
-14
-5
-2
-5
-8
-14
-17
-13
-21
-20
-12
-6
-3
9
-2
-18
-19
-12
-15
-3
-8
0
4
5
-6
-10
-21
-24
-21
-25
-19
-13
-16
-16
-18
-16
-36
-38
-33
-32
-25
-17
-12
-16
-17
-13
-30
-31
-30
-24
-20
-11
-22
-16
-21
-30
-40
-38
-38
-30
-12
-6
-12
-12
-18
-24
-31
-24
-25
-27
-23
-17
-14
-1
0
-19
-47
-37
-28
-18
-5
8
11
14
9
-1
-9
-17
-23
-21
-6
5
8
20
38
23
11
17
8
0
4
1
-12
-18
-30
-53
-66
-61
-54
-34
-16
-10
-13
-12
-12
-17
-19
-29
-13
-7
-12
-7
-13
-19
-26
-29
-23
-12
-16
-26
-9
-2
-13
-7
-16
-17
-16
-17
-22
-16
-6
-10
-13
-10
-4
-6
-13
-15
-12
-13
-5
-4
-2
-4
-14
-24
-17
-24
-20
-22
-3
1
4
-6
-9
-13
-12
-12
-9
-13
0
-1
-3
-1
-5
-13
-10
-17
-9
-4
5
11
13
-2
-5
-2
1
-10
4
9
17
19
24
16
7
1
5
7
15
18
23
22
27
42
25
27
18
23
25
33
39
37
38
22
22
24
29
20
17
18
32
42
35
38
21
7
12
13
8
7
17
12
1
-6
-6
-16
-15
-20
-16
-11
-6
-14
-20
-26
-32
-31
-30
-32
-26
-13
-11
-7
-25
-36
-36
-44
-39
-35
-33
-28
-25
-26
-22
-27
-35
-47
-43
-41
-41
-32
-31
-20
-21
-33
-49
-56
-53
-41
-37
-30
-27
-32
-45
-44
-49
-54
-51
-46
-45
-47
-38
-30
-40
-35
-49
-58
-56
-54
-40
-26
-34
-37
-43
-45
-46
-47
-50
-51
-50
-37
-41
-29
-26
-42
-48
-49
-50
-42
-41
-34
-42
-42
-38
-44
-54
-59
-60
-50
-34
-31
-37
-23
-33
-49
-48
-51
-59
-51
-49
-35
-34
-32
-26
-38
-49
-51
-47
-39
-39
-31
-37
-38
-42
-34
-51
-58
-57
-53
-43
-27
-36
-40
-39
-45
-67
-64
-59
-39
-35
-38
-43
-43
-43
-45
-62
-54
-51
-48
-47
-46
-38
-46
-52
-55
-55
-52
-47
-51
-39
-26
-45
-55
-54
-52
-49
-57
-57
-52
-39
-35
-37
-38
-42
-46
-49
-55
-50
-53
-39
-38
-38
-43
-50
-52
-48
-47
-47
-36
-34
-37
-43
-49
-45
-45
-59
-57
-43
-47
-44
-39
-39
-48
-47
-51
-56
-59
-43
-38
-38
-40
-34
-48
-49
-56
-60
-64
-55
-46
-43
-37
-43
-45
-45
-49
-58
-62
-57
-57
-41
-32
-26
-35
-40
-59
-60
-51
-37
-46
-35
-37
-29
-28
-36
-40
-35
-44
-35
-25
-25
-33
-29
-38
-38
-42
-36
-39
-28
-29
-16
-11
-12
-22
-37
-45
-43
-43
-43
-37
-36
-44
-34
-37
-47
-50
-48
-60
-57
-33
-34
-38
-30
-38
-53
-63
-58
-58
-56
-45
-32
-41
-43
-40
-47
-54
-52
-58
-49
-48
-46
-47
-42
-45
-57
-61
-52
-45
-53
-44
-38
-43
-37
-43
-49
-51
-35
-36
-31
-24
-25
-26
-35
-27
-38
-42
-40
-29
-20
2
11
5
2
-17
-41
-45
-48
-38
-42
-56
-66
-72
-76
-69
-64
-67
-64
-51
-50
-41
-34
-31
-45
-44
-56
-50
-51
-40
-45
-40
-30
-31
-41
-41
-50
-49
-48
-52
-43
-29
-27
-33
-41
-40
-54
-50
-47
-50
-49
-41
-43
-38
-38
-33
-42
-41
-48
-43
-43
-34
-32
-39
-42
-45
-53
-41
-43
-46
-47
-40
-31
-29
-22
-35
-40
-38
-45
-40
-37
-28
-22
-19
-23
-27
-44
-41
-30
-24
-19
-12
-11
-17
-26
-31
-29
-17
-17
-15
-19
-7
-5
-4
-13
-9
-13
-14
-13
-14
-5
9
12
14
7
0
-4
-2
3
0
-1
4
3
-2
5
11
1
-3
-5
-1
4
9
1
3
-4
-17
-17
-17
-25
-29
-16
-9
-18
-26
-28
-35
-38
-42
-32
-31
-28
-37
-29
-28
-34
-42
-42
-44
-40
-49
-42
-35
-29
-34
-39
-49
-48
-38
-40
-49
-35
-34
-31
-36
-42
-48
-46
-43
-47
-49
-42
-42
-41
-46
-53
-64
-55
-45
-46
-44
-46
-47
-31
-40
-48
-51
-53
-50
-49
-52
-43
-38
-36
-42
-44
-53
-58
-53
-47
-44
-31
-35
-29
-34
-49
-57
-53
-53
-41
-39
-33
-30
-30
-42
-57
-42
-48
-50
-41
-31
-29
-34
-35
-39
-36
-48
-57
-54
-49
-47
-36
-26
-34
-42
-42
-45
-45
-44
-51
-43
-37
-43
-36
-40
-47
-45
-43
-35
-36
-36
-33
-40
-46
-40
-38
-41
-47
-49
-47
-41
-33
-31
-29
-42
-47
-46
-44
-43
-45
-33
-29
-30
-32
-39
-45
-50
-48
-41
-47
-38
-30
-33
-44
-49
-52
-50
-46
-41
-39
-28
-28
-36
-43
-38
-42
-55
-40
-39
-40
-41
-52
-45
-45
-40
-33
-39
-50
-41
-41
-32
-36
-38
-45
-55
-62
-66
-48
-39
-27
-30
-21
-30
-43
-39
-41
-40
-44
-41
-45
-31
-24
-20
-20
-29
-42
-40
-26
-29
-27
-13
-18
-22
-28
-33
-35
-34
-39
-26
-17
-20
-18
-21
-27
-21
-25
-21
-28
-32
-27
-22
-29
-32
-36
-46
-44
-47
-51
-41
-29
-28
-34
-39
-39
-43
-44
-43
-42
-39
-36
-32
-33
-36
-44
-48
-44
-39
-45
-51
-54
-39
-38
-37
-34
-42
-52
-44
-46
-40
-40
-32
-38
-45
-40
-42
-47
-50
-42
-37
-27
-19
-14
-8
-13
-27
-39
-43
-27
-20
-9
1
6
5
5
-18
-31
-20
-25
-32
-27
-27
-51
-65
-78
-79
-74
-65
-58
-51
-33
-30
-28
-31
-32
-49
-49
-51
-47
-36
-24
-28
-24
-32
-26
-29
-33
-43
-34
-27
-27
-27
-21
-32
-36
-46
-51
-45
-30
-30
-29
-32
-40
-39
-34
-34
-31
-38
-35
-33
-19
-8
-15
-29
-33
-37
-48
-48
-46
-31
-20
-15
-16
-25
-18
-20
-31
-35
-27
-26
-18
-12
-9
-11
-21
-30
-22
-22
-28
-23
-13
-7
-9
-15
-18
-27
-18
-13
-13
-4
-1
2
12
11
4
-9
2
-3
0
5
11
19
20
26
22
12
9
15
18
24
29
28
20
20
17
6
7
19
18
23
22
16
9
10
10
7
-1
3
12
9
1
-5
-15
-16
-20
-22
-21
-17
-20
-24
-21
-22
-23
-26
-32
-32
-41
-45
-37
-34
-31
-40
-39
-37
-44
-42
-36
-35
-27
-16
-23
-32
-32
-41
-47
-47
-49
-44
-35
-24
-31
-27
-37
-45
-39
-39
-49
-43
-48
-44
-40
-33
-37
-42
-55
-52
-53
-37
-37
-37
-40
-38
-41
-51
-62
-48
-37
-39
-51
-30
-35
-38
-45
-40
-46
-40
-41
-40
-34
-29
-32
-31
-31
-30
-39
-36
-37
-36
-36
-28
-17
-22
-38
-42
-38
-35
-37
-45
-36
-31
-32
-31
-31
-36
-41
-34
-34
-38
-24
-18
-26
-29
-26
-28
-38
-37
-28
-26
-27
-26
-27
-28
-30
-32
-28
-25
-22
-24
-16
-8
-15
-19
-12
-20
-26
-24
-33
-26
-19
-22
-20
-22
-23
-27
-36
-46
-37
-34
-27
-32
-31
-34
-32
-42
-48
-49
-37
-38
-30
-40
-38
-34
-48
-48
-49
-51
-36
-37
-36
-32
-32
-34
-40
-54
-55
-44
-38
-44
-33
-36
-38
-47
-46
-45
-54
-62
-58
-48
-34
-19
-39
-42
-39
-52
-54
-47
-45
-37
-35
-37
-38
-38
-40
-54
-58
-52
-41
-29
-24
-26
-30
-37
-33
-44
-36
-38
-34
-31
-25
-32
-28
-26
-33
-42
-38
-46
-41
-37
-29
-31
-18
-28
-36
-39
-27
-40
-49
-38
-14
-24
-39
-46
-47
-55
-54
-55
-57
-47
-35
-32
-46
-47
-51
-56
-53
-53
-55
-45
-36
-45
-52
-39
-32
-54
-47
-45
-57
-45
-44
-46
-49
-47
-53
-54
-48
-40
-40
-42
-41
-32
-35
-35
-42
-49
-51
-47
-44
-28
-19
-19
-21
-24
-38
-33
-33
-35
-44
-35
-24
-23
-22
-6
5
4
-2
-7
-22
-33
-36
-33
-36
-51
-68
-84
-96
-83
-71
-57
-50
-41
-38
-39
-49
-43
-39
-38
-39
-40
-30
-37
-50
-43
-44
-45
-48
-44
-42
-35
-37
-33
-35
-45
-43
-42
-44
-41
-38
-29
-25
-32
-40
-45
-40
-38
-43
-37
-34
-30
-33
-33
-35
-31
-39
-42
-44
-37
-23
-19
-19
-28
-17
-39
-40
-40
-37
-34
-36
-36
-22
-14
-22
-36
-37
-39
-38
-31
-32
-28
-19
-20
-30
-28
-26
-33
-29
-20
-18
-8
-13
-14
-14
-22
-27
-18
-11
-12
-9
-1
2
-1
1
-1
-2
-4
-3
-3
13
26
14
0
2
0
5
7
7
9
14
23
16
11
-1
-4
-4
-3
4
-6
-6
1
-6
-12
-17
-31
-32
-25
-27
-31
-32
-35
-38
-36
-38
-48
-54
-56
-47
-44
-43
-45
-39
-48
-46
-53
-54
-57
-53
-55
-39
-37
-39
-42
-45
-60
-54
-54
-47
-44
-44
-48
-40
-50
-63
-61
-61
-53
-50
-57
-46
-41
-44
-50
-49
-59
-62
-64
-59
-52
-46
-43
-42
-49
-61
-63
-63
-56
-37
-46
-42
-55
-50
-45
-49
-49
-52
-63
-60
-49
-41
-39
-49
-55
-59
-59
-57
-54
-54
-45
-42
-50
-49
-52
-53
-59
-52
-58
-60
-50
-36
-35
-44
-49
-52
-51
-56
-50
-50
-44
-42
-46
-52
-49
-45
-48
-54
-49
-52
-48
-42
-43
-45
-42
-55
-59
-53
-55
-60
-41
-38
-47
-50
-41
-49
-55
-57
-56
-52
-40
-39
-46
-53
-52
-61
-71
-73
-62
-52
-46
-51
-44
-46
-49
-64
-75
-62
-61
-57
-47
-41
-44
-56
-57
-60
-57
-60
-59
-49
-38
-41
-48
-54
-40
-52
-55
-55
-59
-48
-42
-46
-42
-35
-41
-58
-58
-51
-52
-55
-51
-39
-26
-46
-36
-48
-56
-51
-51
-54
-39
-43
-42
-55
-52
-63
-50
-54
-56
-50
-45
-46
-38
-35
-46
-51
-47
-51
-42
-38
-29
-36
-37
-39
-42
-57
-65
-60
-56
-44
-29
-33
-31
-35
-49
-40
-36
-42
-49
-40
-34
-43
-47
-50
-57
-53
-56
-58
-61
-63
-59
-57
-42
-43
-50
-51
-53
-55
-60
-46
-44
-45
-54
-56
-55
-51
-55
-54
-44
-37
-46
-55
-61
-59
-56
-61
-65
-55
-57
-34
-36
-42
-51
-52
-59
-69
-63
-51
-55
-42
-35
-28
-34
-36
-44
-46
-48
-55
-60
-46
-36
-29
-25
-10
-13
-2
-14
-13
-21
-11
-31
-45
-44
-58
-81
-94
-100
-90
-84
-74
-61
-47
-45
-45
-48
-63
-60
-51
-57
-56
-48
-46
-46
-47
-55
-57
-61
-58
-54
-51
-45
-42
-35
-39
-48
-54
-56
-46
-42
-40
-50
-48
-47
-55
-47
-48
-50
-53
-50
-37
-39
-41
-46
-50
-46
-49
-55
-43
-38
-45
-48
-39
-42
-51
-58
-54
-52
-49
-44
-32
-39
-37
-44
-46
-46
-37
-37
-43
-37
-35
-34
-24
-24
-31
-45
-46
-37
-29
-29
-29
-27
-30
-27
-29
-32
-32
-36
-28
-11
-3
1
-3
-6
-6
-6
-6
-10
-6
1
6
-3
-8
-4
-5
-1
5
-1
-1
-7
6
5
-4
-8
-15
-23
-23
-15
-18
-9
-14
-14
-24
-15
-29
-36
-44
-37
-37
-39
-48
-45
-48
-36
-44
-51
-57
-54
-56
-50
-51
-54
-50
-47
-56
-59
-57
-50
-49
-54
-50
-50
-49
-53
-52
-60
-60
-47
-49
-45
-52
-52
-55
-50
-67
-65
-60
-53
-51
-43
-36
-37
-55
-67
-69
-66
-71
-52
-57
-44
-50
-46
-58
-56
-70
-66
-64
-49
-50
-45
-57
-49
-52
-59
-62
-62
-57
-59
-51
-46
-53
-58
-66
-55
-56
-58
-63
-64
-60
-49
-45
-49
-52
-63
-61
-63
-67
-58
-47
-46
-46
-55
-55
-57
-71
-79
-72
-42
-38
-32
-38
-38
-44
-55
-61
-63
-53
-56
-51
-43
-49
-56
-62
-52
-53
-63
-57
-55
-42
-44
-48
-53
-59
-66
-57
-63
-58
-52
-52
-61
-62
-67
-67
-65
-64
-69
-67
-64
-50
-46
-49
-53
-64
-71
-72
-63
-65
-56
-49
-54
-57
-60
-59
-74
-64
-58
-47
-56
-47
-43
-46
-56
-61
-67
-69
-71
-64
-59
-44
-40
-47
-49
-48
-52
-54
-59
-54
-58
-50
-45
-45
-44
-50
-64
-67
-60
-39
-34
-39
-44
-36
-35
-44
-54
-56
-59
-51
-47
-41
-44
-47
-38
-45
-41
-44
-53
-55
-40
-26
-23
-40
-47
-52
-60
-63
-59
-54
-54
-54
-45
-38
-45
-48
-56
-53
-69
-65
-54
-51
-47
-47
-52
-66
-65
-59
-57
-57
-57
-45
-55
-54
-56
-58
-60
-61
-68
-63
-54
-50
-44
-51
-56
-66
-68
-65
-51
-56
-52
-46
-37
-48
-53
-52
-51
-49
-45
-36
-21
-30
-35
-47
-48
-54
-56
-40
-32
-30
-12
3
-14
-29
-34
-55
-55
-62
-58
-70
-73
-82
-85
-96
-97
-87
-71
-58
-46
-46
-42
-48
-38
-43
-51
-45
-50
-59
-46
-48
-38
-35
-33
-50
-50
-63
-53
-37
-34
-36
-31
-38
-28
-28
-30
-41
-51
-51
-42
-34
-27
-28
-23
-30
-46
-53
-47
-45
-40
-36
-21
-31
-35
-39
-44
-50
-53
-54
-40
-40
-33
-36
-35
-35
-47
-57
-59
-61
-46
-43
-45
-49
-43
-40
-43
-48
-40
-40
-33
-38
-38
-33
-28
-30
-37
-36
-27
-32
-34
-19
-4
-12
-4
-4
-13
-11
-10
-7
-1
13
18
20
13
10
5
2
5
-4
9
14
11
21
22
25
12
11
10
6
11
17
15
10
7
3
-1
1
-11
-16
-9
-9
-9
-15
-23
-29
-40
-49
-41
-45
-39
-31
-36
-39
-47
-45
-60
-55
-53
-47
-64
-48
-37
-36
-36
-36
-45
-44
-45
-46
-52
-33
-32
-39
-32
-35
-40
-40
-39
-34
-31
-30
-43
-30
-35
-33
-45
-47
-42
-37
-41
-39
-38
-26
-35
-38
-42
-47
-46
-41
-45
-43
-45
-39
-35
-38
-52
-34
-33
-36
-35
-32
-33
-29
-35
-32
-33
-40
-46
-35
-24
-12
-24
-22
-19
-30
-38
-32
-28
-27
-30
-31
-26
-22
-27
-32
-35
-43
-36
-24
-24
-19
-27
-27
-21
-29
-34
-29
-33
-33
-19
-17
-18
-22
-25
-24
-25
-32
-23
-17
-13
-19
-25
-22
-25
-37
-27
-16
-17
-16
-18
-8
-10
-23
-16
-24
-41
-36
-29
-24
-18
-16
-14
-20
-27
-31
-29
-38
-35
-33
-26
-15
-18
-28
-34
-41
-43
-48
-29
-12
-19
-22
-25
-26
-25
-41
-40
-34
-35
-35
-23
-22
-27
-31
-34
-35
-29
-29
-35
-26
-4
-18
-8
-11
-22
-29
-31
-30
-27
-21
-14
-25
-20
-24
-20
-26
-33
-31
-21
-17
-9
-9
-2
-10
-19
-14
-23
-16
-12
-12
-8
-4
-8
-7
-16
-22
-20
-26
-22
-13
-1
-18
-10
-13
-7
-33
-43
-30
-32
-30
-28
-27
-27
-24
-23
-37
-43
-43
-28
-27
-34
-31
-27
-30
-38
-37
-36
-29
-28
-25
-25
-24
-26
-10
-20
-31
-32
-32
-32
-13
-18
-12
-23
-34
-36
-33
-37
-33
-31
-20
-22
-19
-18
-14
-26
-21
-13
-7
-3
-10
-3
-1
-5
-16
-16
-17
-21
0
16
34
19
5
-12
-23
-36
-42
-52
-58
-56
-62
-73
-66
-68
-56
-55
-41
-35
-36
-30
-30
-32
-30
-31
-38
-38
-41
-44
-42
-34
-24
-31
-35
-36
-35
-23
-12
-18
-18
-28
-31
-19
-16
-25
-17
-41
-31
-27
-19
-18
-13
-14
-5
-16
-17
-22
-21
-21
-10
-11
-11
-13
-15
-12
-11
-19
-29
-22
-10
-17
-8
0
-13
-17
-19
-23
-8
-5
-13
-27
-12
-16
-18
-18
-16
-19
-17
-21
-18
-6
-17
-18
-10
-15
-25
-18
-10
-6
1
4
13
6
3
7
7
2
2
18
21
32
38
37
32
28
22
11
17
25
35
29
18
22
20
19
17
10
22
19
12
27
28
24
23
10
5
-1
-11
-3
-3
-4
-7
-5
-1
-17
-33
-39
-31
-25
-27
-20
-26
-28
-30
-29
-37
-45
-47
-38
-35
-32
-29
-26
-37
-41
-43
-42
-46
-41
-36
-36
-35
-32
-39
-37
-44
-38
-37
-30
-32
-25
-23
-23
-32
-36
-44
-52
-50
-42
-30
-24
-24
-35
-37
-33
-38
-38
-38
-33
-35
-31
-18
-31
-37
-39
-41
-35
-42
-32
-27
-34
-18
-13
-29
-37
-44
-39
-39
-44
-39
-28
-27
-22
-26
-38
-42
-29
-40
-38
-38
-33
-29
-32
-29
-35
-46
-38
-39
-29
-26
-22
-27
-31
-37
-48
-56
-45
-34
-36
-24
-11
-15
-28
-31
-36
-44
-39
-36
-37
-29
-29
-27
-34
-43
-45
-45
-46
-39
-43
-23
-36
-35
-38
-30
-53
-48
-57
-50
-48
-44
-45
-47
-39
-42
-52
-53
-55
-55
-57
-43
-38
-27
-45
-47
-54
-46
-49
-41
-35
-25
-25
-23
-26
-33
-41
-42
-45
-36
-39
-26
-19
-23
-33
-27
-37
-40
-40
-28
-30
-27
-32
-26
-25
-34
-41
-40
-35
-24
-26
-22
-26
-28
-25
-28
-33
-32
-41
-30
-21
-15
-17
-13
-18
-18
-26
-26
-22
-18
-18
-2
-12
-17
-32
-30
-33
-41
-39
-32
-23
-29
-41
-44
-39
-46
-50
-43
-47
-47
-46
-41
-40
-40
-46
-53
-55
-55
-55
-50
-45
-48
-46
-41
-47
-55
-48
-47
-44
-43
-24
-22
-20
-16
-32
-48
-46
-38
-30
-35
-39
-28
-26
-25
-24
-30
-27
-15
-17
-8
-5
-6
-13
-18
-21
-31
-22
-26
-5
13
35
36
26
21
9
-12
-25
-35
-33
-41
-58
-58
-56
-67
-60
-60
-57
-49
-41
-43
-39
-41
-28
-19
-35
-46
-37
-39
-41
-37
-38
-39
-41
-35
-29
-38
-43
-45
-37
-28
-20
-32
-34
-38
-39
-45
-44
-35
-30
-27
-18
-17
-19
-34
-35
-34
-23
-27
-19
-18
-20
-18
-16
-13
-23
-32
-30
-31
-30
-13
-5
-12
-8
-17
-20
-23
-21
-18
-18
-14
-9
-14
-21
-21
-19
-24
-19
-10
-10
-9
-4
-2
1
-3
-10
-19
-24
-18
-13
-2
3
-2
16
19
10
-4
-8
-12
-2
18
23
8
11
26
20
15
18
17
18
26
31
27
23
23
17
10
8
13
15
33
26
21
15
4
0
7
0
-2
1
7
0
-9
-14
-13
-14
-16
-20
-13
-22
-18
-8
-14
-18
-31
-28
-30
-39
-32
-22
-22
-21
-23
-27
-31
-36
-36
-33
-31
-29
-28
-26
-26
-33
-26
-32
-40
-36
-30
-34
-26
-25
-22
-29
-27
-27
-19
-29
-27
-26
-16
-23
-21
-31
-34
-38
-27
-24
-28
-29
-23
-28
-18
-16
-19
-34
-33
-42
-34
-29
-22
-20
-25
-22
-24
-35
-45
-34
-32
-22
-15
-22
-22
-25
-39
-48
-39
-30
-36
-34
-22
-19
-24
-30
-36
-38
-34
-37
-36
-35
-21
-21
-29
-23
-22
-21
-21
-22
-25
-24
-24
-15
-14
-13
-22
-26
-19
-20
-29
-26
-11
-14
-16
-15
-18
-24
-27
-23
-25
-24
-10
-8
-15
-10
-32
-39
-32
-27
-15
-16
-20
-17
-20
-17
-25
-32
-30
-34
-36
-29
-18
-13
-30
-35
-42
-41
-46
-33
-24
-18
-15
-21
-25
-29
-40
-34
-21
-20
-22
-12
-8
-14
-29
-34
-35
-29
-30
-33
-19
-10
-7
-1
-7
-11
-19
-19
-16
-12
-8
2
6
4
-4
-5
-11
-12
-24
-32
-25
3
13
16
12
6
-2
-2
-9
-1
-9
0
-2
0
-7
-9
-23
-22
-28
-23
-18
-15
-19
-14
-19
-12
-9
-17
-25
-23
-15
-5
-7
-13
-18
-21
-30
-29
-26
-28
-25
-19
-18
-16
-15
-28
-39
-30
-16
-19
-16
-12
-6
-17
-17
-35
-42
-24
-20
-19
-16
-1
3
1
-5
-6
-11
-6
-3
-9
-12
-11
0
5
7
12
21
39
32
18
10
0
-7
-8
-22
-43
-55
-53
-58
-46
-42
-31
-16
-18
-25
-35
-28
-11
-4
-10
-4
-7
-6
-21
-16
-28
-26
-23
-11
-2
6
1
-12
-18
-21
-21
-5
-13
-10
-7
-3
-2
-3
-11
-6
-4
-12
-18
-10
-6
-1
-4
3
-1
-14
-22
-10
-11
-12
-8
11
5
-1
-5
-17
-15
-12
-16
-5
-12
-2
2
7
-3
-11
-12
-4
-6
-4
7
10
0
2
3
3
-1
-1
-6
-5
6
20
26
23
15
7
12
12
9
29
33
35
20
17
21
24
31
26
25
28
44
45
41
35
37
41
26
23
29
34
42
32
41
38
33
24
17
21
24
23
39
37
27
24
19
14
5
7
5
5
10
-2
-9
-9
-4
-8
-6
-13
-9
-8
1
-4
-2
-4
-9
-23
-19
-20
-19
-18
-5
-5
-15
-3
-4
-20
-21
-18
-11
-21
-15
-21
-15
-20
-16
-21
-23
-27
-26
-8
-12
-16
-22
-17
-16
-34
-39
-30
-18
-10
-13
-24
-7
-11
-16
-21
-25
-26
-22
-22
-17
-12
3
0
-12
-27
-23
-18
-16
-15
-3
-10
-11
-13
1
-13
-17
-15
-10
-13
13
14
4
-8
-10
-16
-20
-25
-14
-2
3
0
-1
-1
-9
-17
-9
-9
-17
-3
3
8
2
-5
-7
-18
-19
-14
-1
1
5
6
11
-15
-16
-14
-11
-12
-13
-7
-4
-12
-2
-7
-24
-12
-8
-7
-6
-3
0
-7
-10
-12
-7
-14
-22
-30
-22
-15
-7
-1
-8
-4
-21
-24
-24
-13
-13
-8
-6
-7
1
-11
-18
-20
-16
-11
-10
-2
-8
-2
-3
-7
-13
-5
-4
-1
-12
-4
1
4
-5
-2
-6
-9
-18
-10
-6
6
-2
-3
-16
-24
-28
-26
-20
-18
-22
-8
-10
-10
-11
-12
-16
-15
-23
-15
-21
-9
-10
-11
-19
-23
-28
-30
-22
-11
-14
-5
-7
-19
-21
-19
-30
-27
-32
-28
-25
-19
-29
-16
-18
-18
-25
-22
-22
-17
-17
-22
-11
-3
-13
-18
-30
-9
-7
1
-1
-7
-4
-1
6
15
18
26
22
10
11
11
-8
-10
-19
-40
-58
-65
-58
-63
-49
-35
-28
-28
-23
-22
-22
-17
-25
-23
-19
-14
-6
-9
-18
-23
-29
-18
-11
-10
-13
-8
