-208
-201
-212
-205
-207
-209
-196
-196
-203
-211
-201
-201
-202
-204
-202
-203
-202
-201
-199
-200
-201
-194
-201
-193
-191
-212
-212
-201
-197
-201
-202
-211
-212
-205
-200
-201
-206
-202
-207
-200
-201
-204
-207
-209
-206
-203
-200
-196
-201
-208
-212
-204
-204
-201
-210
-205
-205
-196
-206
-205
-210
-212
-207
-208
-207
-211
-214
-204
-209
-211
-207
-206
-211
-207
-200
-210
-201
-203
-217
-212
-199
-200
-202
-202
-205
-212
-212
-195
-206
-203
-213
-209
-204
-210
-211
-211
-208
-210
-197
-199
-205
-204
-210
-203
-206
-212
-216
-211
-213
-217
-203
-208
-213
-203
-208
-210
-204
-198
-209
-202
-206
-207
-206
-211
-200
-211
-212
-205
-192
-193
-186
-189
-190
-194
-191
-199
-196
-198
-197
-195
-197
-204
-212
-203
-207
-208
-200
-202
-212
-210
-205
-206
-213
-201
-206
-209
-204
-209
-211
-205
-203
-212
-212
-203
-211
-213
-203
-224
-223
-207
-210
-216
-220
-220
-228
-239
-231
-229
-231
-228
-223
-220
-195
-172
-155
-141
-120
-101
-86
-71
-66
-60
-59
-71
-95
-123
-149
-179
-204
-234
-243
-253
-251
-229
-216
-213
-209
-209
-210
-199
-200
-206
-213
-212
-207
-206
-202
-204
-206
-202
-207
-206
-197
-199
-215
-209
-202
-204
-206
-204
-206
-202
-206
-207
-210
-203
-197
-194
-200
-197
-196
-212
-201
-195
-196
-196
-186
-185
-193
-190
-197
-198
-199
-192
-191
-181
-183
-191
-184
-181
-187
-189
-185
-185
-187
-186
-181
-186
-174
-164
-177
-179
-181
-182
-185
-169
-153
-159
-153
-152
-158
-158
-156
-154
-163
-145
-146
-156
-151
-145
-143
-135
-135
-137
-141
-130
-133
-127
-129
-128
-137
-134
-133
-131
-145
-139
-127
-129
-139
-134
-142
-154
-157
-145
-155
-154
-157
-169
-168
-163
-181
-182
-173
-183
-193
-188
-195
-188
-192
-196
-196
-194
-188
-203
-196
-191
-193
-202
-210
-203
-207
-201
-204
-215
-211
-200
-201
-199
-193
-193
-203
-204
-198
-206
-202
-197
-202
-207
-203
-205
-207
-202
-201
-203
-199
-199
-200
-206
-206
-201
-194
-193
-201
-194
-198
-194
-203
-208
-212
-196
-210
-210
-196
-202
-195
-188
-192
-195
-197
-202
-202
-192
-199
-206
-210
-198
-203
-202
-198
-207
-202
-201
-200
-205
-196
-191
-192
-202
-201
-205
-206
-195
-203
-204
-200
-196
-201
-192
-191
-204
-200
-198
-201
-207
-201
-194
-192
-192
-197
-208
-203
-205
-199
-202
-200
-192
-203
-199
-201
-207
-209
-204
-206
-198
-193
-192
-207
-207
-191
-196
-204
-201
-201
-205
-196
-199
-201
-200
-197
-205
-203
-199
-201
-198
-194
-194
-199
-201
-195
-207
-198
-204
-209
-205
-199
-204
-205
-199
-207
-205
-198
-196
-200
-202
-205
-209
-213
-205
-197
-195
-200
-196
-202
-196
-191
-197
-197
-199
-193
-197
-196
-192
-191
-191
-175
-180
-185
-181
-182
-183
-191
-192
-196
-192
-195
-206
-200
-201
-210
-223
-205
-200
-193
-192
-195
-192
-195
-192
-198
-203
-207
-204
-204
-196
-190
-192
-198
-196
-200
-208
-203
-197
-207
-204
-207
-203
-208
-209
-217
-230
-227
-228
-224
-212
-199
-181
-173
-154
-152
-139
-117
-100
-79
-55
-58
-58
-61
-71
-104
-140
-160
-186
-213
-226
-223
-243
-240
-219
-220
-214
-215
-219
-208
-197
-198
-208
-199
-205
-201
-197
-198
-192
-195
-199
-199
-205
-194
-184
-191
-187
-197
-209
-206
-182
-190
-190
-189
-189
-192
-185
-195
-190
-191
-190
-197
-193
-195
-200
-197
-189
-188
-185
-184
-179
-189
-182
-191
-185
-190
-178
-181
-184
-182
-174
-168
-170
-169
-176
-184
-180
-171
-173
-176
-159
-167
-169
-164
-161
-166
-163
-171
-171
-154
-148
-150
-148
-149
-145
-144
-137
-144
-143
-138
-133
-135
-134
-130
-124
-122
-127
-130
-121
-118
-114
-119
-122
-128
-134
-128
-122
-127
-137
-143
-131
-135
-133
-135
-144
-150
-153
-161
-166
-161
-163
-169
-177
-179
-177
-187
-178
-179
-178
-183
-185
-184
-194
-182
-193
-193
-186
-191
-199
-193
-185
-196
-201
-192
-201
-202
-199
-200
-201
-199
-195
-192
-194
-197
-207
-198
-197
-193
-198
-190
-187
-186
-195
-190
-183
-189
-199
-197
-205
-205
-190
-195
-195
-189
-190
-192
-191
-194
-191
-185
-189
-198
-195
-189
-203
-208
-195
-185
-185
-189
-185
-196
-195
-187
-199
-194
-198
-189
-194
-200
-198
-193
-194
-195
-197
-196
-198
-189
-188
-184
-181
-187
-184
-189
-188
-197
-193
-193
-206
-204
-216
-197
-192
-184
-190
-190
-189
-187
-187
-187
-186
-190
-192
-198
-198
-194
-201
-205
-202
-196
-196
-201
-200
-204
-199
-196
-190
-194
-190
-187
-197
-194
-192
-194
-202
-195
-193
-196
-201
-203
-212
-196
-184
-186
-194
-187
-187
-200
-203
-192
-193
-188
-186
-191
-200
-198
-195
-193
-197
-203
-203
-189
-187
-185
-192
-201
-200
-203
-208
-186
-187
-189
-192
-195
-203
-195
-199
-185
-187
-193
-208
-202
-201
-193
-189
-192
-185
-190
-178
-168
-169
-172
-174
-182
-186
-190
-189
-192
-186
-190
-194
-195
-195
-193
-188
-202
-195
-199
-189
-189
-195
-194
-191
-195
-191
-196
-195
-199
-194
-195
-195
-199
-206
-209
-195
-197
-193
-191
-186
-193
-198
-202
-203
-210
-214
-218
-228
-229
-210
-206
-202
-182
-161
-142
-126
-120
-103
-75
-55
-47
-42
-38
-60
-82
-114
-141
-172
-202
-231
-229
-232
-230
-217
-212
-215
-204
-202
-194
-187
-196
-193
-188
-190
-203
-189
-192
-204
-192
-187
-187
-188
-188
-190
-194
-193
-186
-195
-189
-179
-189
-201
-199
-190
-180
-186
-179
-187
-187
-179
-181
-185
-180
-177
-185
-183
-185
-187
-182
-172
-170
-172
-172
-185
-182
-175
-171
-181
-186
-180
-166
-167
-166
-168
-174
-164
-174
-172
-161
-167
-170
-172
-174
-172
-154
-147
-150
-152
-146
-143
-149
-144
-140
-142
-145
-147
-140
-137
-129
-123
-129
-131
-125
-131
-119
-117
-123
-123
-115
-112
-112
-118
-116
-111
-119
-128
-134
-130
-126
-118
-129
-135
-132
-148
-147
-150
-147
-146
-149
-157
-164
-167
-167
-169
-168
-178
-191
-182
-180
-178
-180
-187
-185
-184
-180
-184
-184
-186
-184
-184
-186
-186
-188
-191
-195
-189
-188
-187
-180
-190
-195
-195
-194
-190
-188
-186
-192
-186
-179
-190
-185
-181
-180
-190
-197
-192
-189
-185
-183
-182
-185
-192
-193
-193
-178
-190
-193
-191
-180
-185
-184
-181
-186
-188
-186
-185
-189
-181
-180
-182
-178
-177
-184
-192
-184
-184
-182
-181
-182
-180
-178
-177
-184
-185
-183
-188
-194
-182
-189
-191
-183
-177
-185
-189
-185
-179
-188
-192
-184
-188
-185
-188
-197
-193
-182
-185
-200
-177
-176
-174
-189
-176
-184
-189
-190
-188
-184
-181
-185
-186
-183
-180
-191
-192
-183
-183
-185
-169
-180
-194
-183
-186
-191
-182
-182
-186
-191
-183
-182
-199
-196
-188
-193
-187
-185
-188
-186
-176
-179
-183
-187
-183
-200
-190
-182
-187
-189
-183
-180
-182
-184
-182
-193
-190
-185
-190
-185
-179
-183
-186
-185
-180
-193
-183
-171
-183
-194
-183
-186
-171
-180
-180
-177
-170
-165
-167
-176
-164
-166
-174
-172
-182
-187
-185
-177
-188
-191
-183
-176
-176
-180
-186
-186
-184
-184
-185
-182
-179
-182
-187
-187
-182
-187
-189
-191
-187
-190
-186
-184
-174
-181
-182
-186
-191
-190
-190
-189
-183
-206
-216
-208
-211
-222
-211
-204
-194
-175
-159
-131
-127
-115
-98
-80
-63
-46
-43
-33
-29
-44
-82
-118
-150
-181
-199
-214
-219
-216
-206
-198
-193
-192
-187
-195
-194
-188
-180
-177
-181
-179
-168
-174
-185
-191
-179
-168
-170
-178
-185
-184
-179
-182
-188
-187
-180
-184
-176
-163
-170
-169
-183
-175
-177
-183
-178
-175
-175
-167
-172
-164
-166
-168
-176
-172
-170
-169
-173
-165
-162
-170
-170
-152
-164
-167
-167
-167
-159
-152
-152
-155
-158
-153
-156
-156
-158
-153
-147
-144
-145
-141
-144
-140
-145
-136
-135
-134
-136
-132
-129
-131
-126
-134
-128
-121
-123
-120
-116
-112
-111
-110
-112
-114
-116
-111
-103
-111
-109
-104
-101
-104
-104
-109
-109
-109
-125
-123
-111
-109
-123
-128
-134
-128
-144
-145
-145
-149
-148
-142
-141
-156
-167
-162
-170
-169
-166
-170
-170
-166
-167
-169
-171
-181
-173
-170
-175
-188
-178
-172
-174
-170
-171
-171
-174
-172
-177
-177
-176
-171
-174
-183
-177
-180
-181
-183
-175
-184
-172
-169
-181
-183
-178
-169
-163
-162
-175
-176
-163
-164
-173
-172
-172
-175
-172
-176
-174
-170
-171
-168
-180
-172
-166
-167
-168
-173
-179
-175
-166
-161
-170
-180
-175
-175
-171
-167
-167
-176
-168
-174
-170
-170
-175
-173
-173
-172
-173
-168
-170
-178
-171
-177
-170
-175
-167
-171
-177
-175
-172
-169
-187
-177
-166
-170
-168
-161
-173
-175
-174
-168
-163
-170
-170
-174
-185
-176
-182
-176
-168
-174
-177
-172
-170
-165
-167
-173
-180
-178
-171
-171
-163
-162
-175
-183
-175
-173
-175
-172
-167
-163
-164
-165
-175
-176
-175
-173
-175
-175
-167
-175
-176
-177
-171
-174
-175
-172
-172
-172
-165
-169
-173
-171
-175
-174
-172
-173
-169
-165
-171
-177
-178
-172
-177
-174
-172
-168
-176
-175
-170
-167
-158
-168
-176
-165
-156
-154
-152
-146
-148
-151
-154
-153
-156
-159
-160
-166
-166
-164
-167
-169
-171
-167
-167
-167
-168
-174
-173
-168
-158
-172
-174
-165
-176
-173
-172
-176
-172
-170
-166
-166
-172
-173
-175
-177
-172
-168
-176
-164
-176
-176
-179
-177
-185
-193
-197
-200
-204
-183
-168
-151
-143
-118
-115
-92
-67
-65
-52
-31
-19
-12
-19
-43
-78
-104
-133
-167
-192
-200
-198
-198
-190
-189
-182
-178
-177
-181
-172
-168
-169
-158
-166
-168
-162
-156
-158
-164
-162
-163
-163
-163
-162
-155
-160
-162
-167
-172
-163
-158
-153
-151
-154
-162
-167
-157
-162
-160
-150
-135
-156
-153
-155
-155
-156
-151
-153
-151
-150
-144
-150
-149
-144
-146
-151
-146
-150
-148
-145
-138
-140
-150
-149
-141
-142
-136
-143
-130
-123
-124
-133
-128
-126
-131
-128
-120
-119
-121
-114
-113
-117
-106
-108
-113
-108
-102
-103
-109
-101
-98
-100
-92
-89
-95
-91
-86
-97
-83
-81
-93
-92
-92
-94
-86
-88
-90
-99
-93
-88
-95
-105
-106
-100
-112
-114
-112
-123
-124
-122
-125
-129
-133
-136
-141
-141
-138
-147
-146
-140
-139
-148
-149
-149
-150
-154
-159
-167
-162
-143
-146
-161
-158
-151
-153
-161
-165
-172
-159
-148
-150
-148
-153
-163
-164
-157
-155
-156
-158
-153
-154
-144
-159
-169
-156
-158
-153
-158
-155
-147
-154
-154
-157
-158
-148
-160
-157
-159
-159
-145
-151
-153
-146
-159
-160
-161
-150
-152
-150
-140
-157
-155
-142
-160
-159
-153
-156
-150
-155
-157
-154
-153
-154
-160
-160
-156
-151
-158
-156
-153
-151
-159
-151
-155
-161
-161
-154
-168
-157
-147
-149
-157
-157
-152
-150
-154
-157
-158
-152
-148
-150
-152
-169
-168
-154
-146
-147
-154
-153
-153
-160
-151
-157
-160
-155
-150
-150
-158
-161
-155
-151
-149
-151
-162
-161
-152
-162
-163
-146
-146
-156
-166
-158
-161
-156
-154
-157
-152
-152
-149
-157
-154
-155
-155
-170
-160
-148
-163
-160
-156
-154
-153
-161
-154
-155
-154
-157
-150
-147
-158
-159
-158
-156
-160
-151
-154
-164
-162
-155
-152
-150
-148
-148
-160
-158
-158
-158
-150
-157
-151
-153
-148
-156
-139
-129
-138
-143
-144
-147
-161
-153
-151
-144
-156
-155
-155
-161
-151
-155
-159
-149
-145
-151
-158
-164
-162
-160
-157
-156
-156
-137
-146
-148
-161
-159
-156
-148
-151
-154
-160
-160
-153
-150
-157
-160
-159
-163
-173
-168
-175
-176
-176
-174
-161
-147
-127
-117
-104
-84
-72
-58
-40
-36
-27
-18
-20
-35
-43
-68
-109
-133
-159
-187
-187
-185
-178
-183
-167
-166
-158
-157
-152
-158
-156
-154
-154
-158
-145
-147
-154
-155
-140
-151
-152
-152
-144
-148
-147
-145
-141
-154
-150
-151
-149
-151
-155
-152
-143
-152
-132
-131
-148
-143
-138
-140
-146
-140
-135
-137
-137
-124
-128
-144
-144
-144
-137
-139
-137
-133
-133
-133
-128
-137
-136
-134
-127
-126
-125
-129
-129
-123
-122
-130
-116
-118
-126
-117
-115
-115
-108
-103
-106
-112
-110
-106
-113
-94
-83
-91
-83
-84
-90
-93
-87
-82
-83
-77
-69
-81
-87
-79
-80
-84
-85
-74
-66
-62
-67
-80
-80
-84
-99
-84
-85
-90
-108
-98
-91
-90
-101
-98
-114
-116
-113
-115
-122
-124
-127
-133
-124
-127
-141
-142
-134
-144
-142
-133
-128
-126
-135
-142
-144
-146
-147
-146
-146
-140
-132
-138
-141
-148
-142
-141
-144
-139
-149
-148
-144
-147
-137
-147
-144
-145
-147
-149
-149
-139
-136
-142
-142
-138
-146
-147
-143
-149
-144
-136
-135
-141
-148
-148
-153
-142
-138
-142
-137
-134
-138
-144
-142
-135
-150
-144
-135
-135
-137
-135
-134
-136
-140
-145
-146
-141
-144
-148
-141
-123
-136
-139
-147
-145
-149
-143
-146
-149
-143
-143
-145
-140
-135
-141
-152
-148
-149
-138
-148
-139
-141
-135
-139
-149
-147
-139
-145
-147
-140
-141
-136
-137
-145
-148
-151
-148
-142
-143
-149
-142
-145
-148
-143
-143
-140
-139
-140
-140
-144
-142
-147
-145
-146
-140
-146
-142
-144
-144
-147
-140
-132
-137
-141
-146
-144
-138
-150
-154
-145
-142
-137
-142
-143
-150
-150
-146
-140
-144
-143
-142
-145
-144
-144
-151
-140
-146
-142
-138
-137
-132
-138
-138
-131
-134
-141
-133
-131
-128
-118
-127
-129
-126
-126
-140
-136
-133
-141
-138
-139
-140
-134
-144
-139
-135
-144
-149
-146
-140
-138
-147
-139
-139
-137
-144
-144
-144
-148
-145
-138
-145
-143
-142
-134
-132
-141
-154
-140
-144
-141
-146
-147
-148
-153
-175
-166
-166
-164
-157
-146
-133
-115
-98
-91
-86
-67
-46
-28
-6
2
-4
-1
-6
-37
-65
-94
-120
-152
-179
-178
-175
-183
-165
-156
-158
-160
-158
-152
-131
-122
-133
-140
-142
-145
-139
-141
-140
-130
-128
-126
-128
-132
-141
-141
-135
-134
-145
-133
-134
-130
-124
-132
-135
-129
-128
-134
-129
-128
-129
-120
-130
-120
-130
-138
-128
-127
-135
-130
-120
-112
-118
-122
-115
-123
-124
-124
-122
-124
-117
-118
-115
-111
-110
-119
-122
-115
-106
-109
-100
-104
-105
-105
-100
-101
-112
-107
-101
-98
-93
-86
-82
-86
-88
-88
-82
-75
-77
-74
-68
-68
-67
-67
-68
-65
-65
-69
-71
-60
-57
-61
-58
-57
-61
-64
-53
-72
-64
-67
-68
-67
-76
-84
-88
-88
-85
-91
-102
-112
-99
-96
-106
-115
-119
-114
-111
-115
-123
-125
-121
-119
-121
-127
-133
-129
-130
-121
-124
-125
-127
-125
-124
-126
-129
-141
-133
-131
-141
-133
-126
-122
-122
-133
-134
-134
-136
-131
-134
-134
-133
-136
-120
-125
-131
-129
-133
-133
-133
-126
-124
-132
-134
-131
-133
-133
-128
-135
-143
-132
-125
-122
-126
-130
-127
-131
-129
-133
-125
-123
-116
-122
-119
-122
-118
-130
-134
-125
-124
-129
-128
-134
-132
-133
-128
-130
-126
-129
-127
-119
-118
-132
-128
-125
-133
-131
-130
-131
-132
-128
-126
-137
-126
-126
-129
-132
-137
-123
-130
-119
-127
-127
-129
-122
-130
-132
-129
-136
-136
-128
-130
-133
-127
-125
-132
-126
-124
-127
-136
-116
-118
-124
-134
-135
-140
-135
-136
-134
-127
-126
-117
-119
-128
-129
-131
-132
-135
-136
-128
-128
-129
-126
-132
-136
-134
-130
-130
-127
-130
-124
-121
-127
-134
-129
-134
-132
-142
-134
-126
-138
-137
-126
-125
-122
-128
-126
-128
-121
-124
-123
-125
-131
-134
-124
-126
-130
-120
-117
-115
-109
-99
-110
-119
-113
-126
-123
-124
-117
-112
-110
-127
-122
-114
-128
-133
-135
-130
-123
-127
-124
-122
-127
-130
-131
-137
-131
-132
-131
-134
-111
-116
-134
-130
-133
-137
-128
-119
-123
-123
-128
-129
-132
-130
-134
-143
-149
-158
-161
-163
-157
-139
-118
-106
-92
-77
-60
-51
-41
-8
8
17
21
26
14
-6
-30
-64
-99
-122
-150
-155
-151
-143
-149
-148
-142
-136
-134
-123
-115
-122
-123
-133
-131
-118
-119
-124
-128
-123
-119
-123
-124
-125
-116
-124
-130
-126
-118
-104
-105
-112
-124
-123
-117
-113
-114
-116
-114
-104
-113
-112
-116
-120
-114
-114
-111
-111
-108
-112
-108
-101
-107
-117
-114
-101
-106
-111
-105
-105
-101
-103
-94
-95
-97
-102
-91
-95
-93
-86
-90
-95
-86
-90
-94
-85
-86
-88
-87
-81
-79
-77
-73
-75
-76
-67
-59
-59
-59
-60
-68
-67
-57
-54
-52
-55
-48
-45
-53
-49
-39
-45
-44
-47
-47
-45
-45
-48
-42
-48
-50
-46
-62
-67
-66
-74
-81
-85
-81
-80
-89
-92
-83
-95
-97
-90
-99
-100
-96
-97
-103
-108
-115
-111
-112
-113
-117
-116
-112
-115
-118
-123
-115
-110
-120
-112
-116
-118
-116
-118
-116
-121
-116
-118
-117
-118
-114
-116
-110
-112
-115
-117
-119
-131
-119
-111
-108
-110
-116
-117
-108
-113
-112
-114
-113
-123
-129
-125
-112
-113
-111
-108
-109
-112
-111
-114
-112
-116
-116
-109
-117
-115
-108
-116
-111
-110
-110
-107
-110
-113
-110
-94
-110
-127
-121
-122
-116
-109
-106
-112
-117
-115
-116
-116
-114
-116
-117
-117
-116
-115
-111
-111
-117
-115
-114
-114
-110
-117
-118
-110
-111
-107
-113
-121
-120
-116
-115
-116
-108
-110
-102
-111
-117
-123
-124
-120
-117
-112
-118
-118
-114
-98
-104
-112
-111
-112
-108
-105
-110
-117
-118
-120
-122
-118
-111
-115
-114
-117
-113
-116
-115
-117
-121
-110
-110
-111
-113
-113
-108
-110
-113
-113
-122
-127
-121
-117
-121
-112
-107
-112
-118
-120
-127
-120
-112
-114
-113
-108
-104
-101
-103
-98
-96
-91
-99
-96
-100
-99
-96
-101
-103
-104
-114
-109
-100
-108
-119
-114
-106
-108
-105
-109
-117
-109
-112
-119
-116
-108
-108
-108
-117
-126
-119
-109
-110
-113
-121
-119
-114
-113
-118
-120
-115
-109
-112
-124
-117
-113
-124
-136
-141
-138
-138
-143
-134
-122
-95
-77
-63
-57
-50
-27
-11
9
21
36
47
41
28
-12
-37
-67
-105
-134
-144
-144
-140
-131
-129
-132
-129
-118
-117
-110
-111
-112
-113
-103
-114
-114
-105
-109
-107
-104
-105
-107
-110
-101
-110
-109
-105
-105
-111
-103
-98
-109
-102
-104
-102
-99
-95
-95
-95
-84
-109
-109
-102
-100
-100
-100
-103
-101
-100
-99
-95
-100
-87
-76
-89
-87
-80
-94
-104
-87
-87
-100
-89
-94
-90
-78
-86
-86
-83
-78
-72
-78
-70
-69
-67
-71
-65
-74
-73
-68
-59
-65
-58
-58
-57
-45
-47
-51
-38
-40
-48
-49
-37
-34
-32
-41
-40
-42
-36
-29
-32
-35
-28
-29
-39
-38
-39
-48
-46
-43
-48
-44
-41
-49
-58
-57
-62
-67
-68
-74
-76
-78
-80
-83
-93
-83
-93
-96
-86
-87
-87
-95
-91
-102
-96
-101
-102
-104
-103
-102
-116
-107
-104
-104
-88
-95
-102
-104
-99
-107
-112
-105
-102
-104
-100
-105
-101
-116
-111
-109
-109
-103
-97
-98
-100
-97
-100
-101
-108
-98
-99
-96
-100
-107
-107
-100
-103
-101
-105
-102
-94
-98
-99
-107
-109
-102
-95
-104
-95
-89
-98
-90
-89
-105
-105
-100
-99
-101
-101
-100
-107
-97
-96
-98
-99
-100
-103
-104
-100
-99
-105
-111
-97
-97
-106
-106
-104
-101
-96
-93
-102
-97
-97
-99
-106
-98
-103
-107
-102
-100
-104
-100
-103
-95
-96
-99
-119
-109
-108
-103
-101
-93
-101
-106
-103
-100
-105
-100
-103
-109
-112
-92
-91
-100
-98
-97
-108
-102
-101
-100
-99
-102
-100
-101
-112
-99
-99
-101
-104
-109
-110
-100
-100
-98
-112
-107
-94
-91
-104
-107
-103
-90
-93
-97
-106
-103
-104
-101
-102
-111
-111
-93
-97
-100
-97
-98
-101
-99
-95
-95
-96
-87
-88
-83
-77
-84
-95
-90
-89
-95
-91
-85
-81
-98
-87
-96
-104
-100
-100
-100
-102
-98
-99
-89
-96
-103
-110
-105
-96
-97
-96
-95
-94
-96
-88
-97
-101
-105
-110
-112
-97
-94
-102
-112
-109
-98
-105
-105
-112
-113
-113
-122
-131
-130
-117
-110
-101
-89
-71
-52
-31
-14
3
28
47
37
49
60
53
19
-14
-47
-73
-108
-128
-140
-141
-128
-115
-116
-99
-102
-106
-103
-97
-103
-102
-94
-99
-95
-91
-94
-86
-100
-104
-94
-89
-92
-98
-96
-83
-83
-93
-88
-79
-88
-98
-94
-98
-84
-75
-82
-82
-91
-82
-89
-90
-93
-93
-92
-78
-73
-80
-73
-71
-84
-82
-82
-85
-93
-77
-73
-74
-79
-74
-80
-72
-72
-73
-72
-62
-67
-63
-59
-59
-64
-62
-65
-58
-53
-53
-50
-43
-51
-46
-45
-46
-41
-46
-43
-35
-29
-20
-23
-28
-21
-14
-27
-32
-24
-17
-18
-19
-21
-21
-25
-17
-6
-14
-18
-23
-24
-27
-10
-23
-27
-30
-38
-40
-46
-43
-52
-55
-60
-64
-63
-63
-67
-68
-62
-53
-67
-72
-73
-79
-78
-81
-86
-86
-80
-83
-90
-81
-86
-84
-82
-76
-83
-90
-95
-100
-89
-89
-79
-85
-83
-84
-78
-82
-83
-87
-84
-76
-76
-81
-94
-82
-84
-91
-84
-84
-81
-80
-82
-78
-81
-70
-76
-79
-83
-85
-89
-91
-83
-87
-87
-89
-93
-91
-74
-84
-80
-79
-75
-82
-91
-79
-74
-79
-78
-90
-76
-78
-84
-74
-78
-81
-82
-87
-79
-82
-78
-80
-79
-81
-84
-80
-82
-77
-75
-87
-94
-77
-69
-81
-80
-79
-80
-76
-85
-85
-91
-75
-81
-83
-93
-87
-86
-79
-74
-80
-80
-79
-81
-82
-86
-80
-95
-85
-82
-81
-69
-70
-80
-78
-80
-79
-89
-82
-81
-80
-82
-82
-83
-84
-76
-82
-79
-73
-80
-85
-84
-82
-83
-91
-91
-89
-76
-74
-73
-79
-84
-85
-92
-92
-73
-74
-78
-85
-81
-87
-77
-74
-77
-81
-74
-85
-83
-74
-69
-74
-77
-76
-67
-57
-58
-69
-66
-61
-68
-76
-85
-81
-81
-84
-79
-75
-89
-77
-81
-74
-78
-77
-82
-78
-79
-88
-85
-81
-79
-77
-78
-82
-85
-84
-82
-81
-79
-77
-79
-74
-76
-78
-90
-91
-84
-91
-93
-92
-105
-103
-107
-106
-95
-92
-63
-40
-30
-8
2
13
34
44
45
62
62
52
36
23
-20
-49
-64
-99
-120
-120
-125
-119
-107
-96
-78
-86
-85
-78
-81
-83
-85
-83
-77
-73
-73
-79
-83
-78
-74
-74
-65
-75
-77
-72
-75
-69
-71
-68
-74
-68
-67
-69
-70
-71
-65
-70
-63
-72
-72
-59
-56
-70
-74
-65
-65
-63
-63
-68
-60
-46
-59
-73
-61
-53
-58
-64
-65
-70
-67
-51
-55
-58
-51
-51
-52
-45
-37
-44
-46
-44
-37
-49
-39
-43
-41
-46
-42
-38
-26
-28
-27
-23
-16
-14
-10
-10
-13
-12
-7
-8
-14
-5
0
-4
0
-2
-5
-7
-8
1
3
2
7
4
-11
-5
-2
-5
-10
-29
-24
-33
-27
-39
-41
-33
-42
-53
-43
-51
-49
-55
-47
-50
-57
-56
-58
-67
-69
-70
-75
-68
-61
-64
-66
-65
-63
-67
-69
-72
-67
-72
-59
-66
-71
-75
-89
-80
-72
-75
-75
-71
-69
-68
-66
-68
-61
-73
-86
-75
-79
-78
-71
-71
-69
-73
-70
-69
-69
-69
-72
-68
-57
-61
-64
-65
-67
-69
-70
-67
-73
-70
-66
-70
-64
-56
-65
-78
-71
-62
-66
-70
-61
-72
-70
-72
-76
-69
-65
-67
-68
-62
-59
-64
-75
-64
-73
-73
-76
-63
-74
-68
-68
-64
-70
-68
-74
-63
-64
-68
-61
-75
-67
-66
-65
-64
-73
-72
-73
-74
-77
-66
-67
-68
-76
-75
-76
-72
-70
-70
-66
-65
-74
-68
-69
-68
-71
-68
-71
-75
-79
-64
-70
-67
-66
-66
-78
-77
-77
-78
-68
-60
-62
-71
-79
-74
-67
-65
-61
-74
-75
-66
-64
-71
-73
-77
-75
-77
-70
-77
-73
-57
-68
-68
-69
-73
-72
-74
-73
-64
-69
-71
-70
-66
-59
-67
-63
-58
-55
-49
-51
-50
-57
-65
-62
-57
-58
-58
-62
-74
-72
-74
-76
-79
-79
-75
-72
-75
-66
-66
-60
-58
-63
-71
-77
-77
-73
-71
-71
-72
-69
-63
-67
-71
-77
-73
-75
-63
-65
-77
-73
-72
-76
-86
-96
-100
-105
-91
-84
-85
-58
-44
-31
-14
1
5
34
40
53
64
68
76
56
28
5
-37
-54
-84
-101
-105
-107
-104
-96
-92
-85
-83
-72
-71
-68
-71
-66
-66
-66
-70
-72
-69
-64
-62
-67
-79
-70
-62
-63
-65
-64
-55
-60
-60
-65
-63
-56
-55
-67
-57
-59
-63
-55
-60
-64
-59
-53
-60
-53
-55
-54
-56
-53
-49
-54
-57
-56
-50
-46
-54
-50
-50
-48
-46
-54
-48
-46
-41
-40
-37
-42
-41
-38
-39
-41
-41
-29
-27
-29
-31
-30
-35
-31
-23
-24
-26
-10
-9
-9
-21
-15
-12
-8
6
-4
-2
1
-3
2
3
4
10
6
9
10
14
19
14
8
8
9
9
3
2
-5
-3
-14
-23
-17
-11
-22
-29
-30
-35
-38
-39
-37
-39
-42
-36
-49
-46
-52
-48
-55
-53
-50
-55
-60
-62
-61
-60
-58
-56
-66
-53
-54
-70
-67
-62
-66
-66
-68
-63
-65
-47
-63
-67
-69
-61
-60
-72
-65
-55
-62
-70
-71
-60
-55
-56
-66
-65
-59
-54
-61
-49
-61
-58
-56
-57
-60
-66
-59
-61
-62
-57
-53
-59
-56
-56
-53
-56
-56
-54
-55
-57
-62
-59
-59
-60
-64
-62
-66
-66
-61
-57
-54
-50
-60
-60
-70
-61
-61
-61
-56
-52
-57
-59
-66
-61
-66
-58
-52
-52
-56
-62
-63
-70
-59
-59
-60
-62
-59
-67
-58
-58
-54
-62
-63
-63
-58
-59
-62
-61
-54
-45
-59
-69
-65
-60
-67
-63
-52
-59
-68
-66
-54
-60
-63
-63
-63
-63
-56
-64
-55
-62
-68
-63
-63
-62
-63
-60
-53
-64
-57
-64
-64
-60
-59
-61
-60
-61
-55
-62
-57
-54
-53
-63
-67
-63
-64
-60
-60
-62
-58
-57
-56
-61
-52
-52
-53
-58
-64
-67
-58
-57
-51
-51
-50
-55
-43
-38
-45
-49
-45
-40
-60
-60
-58
-59
-55
-55
-49
-49
-55
-62
-65
-60
-65
-67
-60
-55
-56
-53
-55
-57
-59
-60
-61
-69
-62
-57
-62
-53
-57
-60
-59
-60
-60
-66
-59
-60
-64
-71
-66
-74
-82
-88
-89
-92
-86
-70
-59
-39
-18
-18
14
18
37
57
74
84
89
81
82
55
21
-6
-31
-57
-83
-92
-107
-90
-75
-68
-69
-68
-65
-71
-69
-57
-56
-55
-51
-44
-51
-48
-46
-54
-52
-59
-61
-56
-50
-62
-65
-46
-51
-55
-55
-45
-48
-49
-45
-50
-50
-37
-45
-50
-50
-64
-51
-51
-44
-37
-44
-44
-39
-48
-44
-47
-46
-34
-29
-39
-40
-38
-45
-40
-44
-32
-39
-36
-28
-22
-26
-28
-31
-34
-22
-31
-33
-19
-21
-17
-15
-9
-20
-13
-3
-16
-11
-3
-3
-1
-10
4
5
5
4
8
16
11
2
14
16
22
20
17
15
22
14
25
23
26
24
13
8
9
12
7
-4
-3
-11
-13
-15
-25
-19
-15
-19
-17
-31
-16
-33
-35
-22
-34
-53
-48
-46
-49
-53
-46
-49
-56
-50
-50
-52
-48
-45
-48
-52
-50
-55
-43
-50
-53
-62
-57
-62
-56
-55
-48
-46
-45
-52
-57
-59
-51
-49
-54
-40
-36
-31
-40
-50
-49
-56
-65
-60
-61
-61
-53
-47
-46
-54
-53
-51
-51
-54
-55
-46
-44
-45
-42
-38
-44
-38
-41
-49
-56
-60
-55
-53
-51
-47
-50
-43
-33
-44
-47
-48
-46
-51
-52
-51
-48
-45
-44
-40
-47
-39
-32
-45
-52
-51
-52
-54
-50
-50
-50
-54
-47
-50
-48
-47
-57
-49
-48
-44
-49
-47
-45
-48
-53
-45
-52
-55
-57
-48
-41
-40
-43
-51
-56
-55
-58
-46
-53
-56
-48
-43
-40
-35
-43
-46
-46
-48
-49
-56
-53
-41
-45
-40
-37
-53
-54
-52
-55
-57
-49
-46
-51
-46
-37
-39
-54
-48
-50
-52
-45
-44
-51
-57
-57
-52
-51
-49
-49
-48
-48
-42
-43
-50
-42
-50
-55
-60
-49
-48
-43
-55
-46
-48
-40
-48
-52
-54
-51
-46
-35
-43
-38
-39
-33
-35
-27
-20
-32
-42
-37
-24
-38
-43
-48
-48
-54
-36
-37
-40
-45
-43
-43
-47
-43
-51
-56
-47
-46
-47
-46
-36
-45
-45
-48
-45
-48
-55
-47
-64
-49
-47
-51
-50
-42
-48
-48
-51
-55
-52
-53
-61
-75
-78
-81
-81
-71
-66
-47
-22
-6
-4
12
32
47
61
86
99
109
108
89
76
48
5
-19
-43
-68
-75
-80
-75
-66
-53
-56
-60
-58
-52
-54
-52
-45
-37
-39
-48
-43
-46
-36
-37
-41
-40
-47
-57
-48
-38
-41
-40
-35
-42
-38
-41
-51
-36
-30
-31
-40
-38
-44
-42
-29
-39
-34
-35
-29
-31
-28
-28
-34
-36
-30
-35
-38
-27
-26
-28
-19
-25
-29
-26
-28
-28
-26
-20
-12
-14
-13
-11
-18
-13
-19
-19
-14
-13
-8
-11
1
-1
-10
-11
6
9
5
5
9
11
15
15
10
14
21
23
12
18
31
33
37
36
28
30
30
22
25
36
40
35
36
38
25
20
13
14
11
20
15
-2
3
7
-2
-20
-11
-7
-23
-24
-31
-18
-19
-19
-27
-33
-27
-32
-35
-34
-29
-37
-40
-38
-42
-45
-35
-35
-33
-34
-37
-35
-41
-42
-44
-44
-37
-44
-42
-41
-36
-33
-36
-35
-40
-38
-34
-36
-37
-42
-42
-31
-48
-44
-50
-35
-28
-38
-33
-33
-37
-33
-38
-44
-47
-52
-36
-32
-37
-21
-26
-29
-38
-41
-43
-34
-35
-39
-42
-35
-28
-32
-31
-28
-28
-32
-28
-37
-30
-34
-37
-42
-37
-45
-36
-39
-45
-39
-27
-34
-29
-40
-31
-30
-38
-38
-37
-40
-41
-35
-38
-37
-30
-38
-38
-32
-34
-42
-34
-31
-43
-33
-36
-39
-31
-34
-42
-45
-35
-32
-32
-30
-34
-48
-31
-28
-35
-48
-32
-34
-30
-38
-41
-46
-45
-39
-44
-34
-26
-32
-33
-37
-36
-37
-40
-41
-38
-33
-33
-37
-44
-39
-37
-41
-36
-42
-36
-38
-35
-33
-32
-35
-35
-37
-38
-39
-43
-34
-25
-24
-43
-43
-36
-35
-34
-35
-37
-36
-27
-37
-29
-30
-29
-45
-35
-35
-48
-38
-36
-31
-32
-39
-36
-34
-44
-49
-42
-39
-29
-34
-30
-30
-35
-37
-27
-29
-30
-21
-11
-18
-22
-25
-16
-22
-20
-28
-46
-30
-22
-31
-33
-32
-41
-46
-46
-27
-29
-30
-29
-33
-25
-29
-36
-42
-38
-45
-36
-38
-42
-32
-42
-37
-40
-34
-34
-39
-45
-31
-27
-39
-41
-42
-46
-62
-63
-69
-78
-54
-48
-46
-29
-12
4
17
41
50
59
78
102
115
110
112
109
70
35
9
-13
-42
-66
-74
-70
-61
-59
-54
-50
-44
-44
-30
-22
-32
-37
-31
-35
-32
-31
-36
-32
-32
-31
-31
-26
-30
-32
-33
-29
-32
-37
-29
-25
-16
-26
-28
-29
-27
-27
-25
-22
-23
-23
-23
-28
-35
-33
-28
-20
-24
-26
-16
-20
-16
-19
-16
-12
-14
-26
-22
-16
-10
-14
-19
-8
-16
-16
-18
-8
-11
-9
7
-3
-2
7
-1
-2
11
13
6
9
15
15
11
20
24
17
18
18
20
30
27
30
43
37
33
28
33
32
38
39
41
45
53
42
41
38
41
46
37
36
41
37
24
34
14
14
16
5
5
12
14
7
4
-2
-12
-15
-7
-15
-26
-21
-25
-25
-26
-22
-18
-25
-29
-31
-31
-24
-22
-29
-32
-21
-32
-26
-29
-35
-37
-23
-26
-36
-37
-35
-33
-35
-29
-30
-39
-15
-26
-30
-29
-25
-31
-30
-33
-30
-27
-22
-24
-25
-37
-35
-31
-24
-27
-30
-27
-25
-20
-32
-31
-25
-29
-34
-32
-31
-34
-20
-18
-26
-23
-27
-25
-24
-30
-27
-25
-15
-33
-28
-23
-24
-34
-32
-33
-36
-29
-29
-26
-25
-22
-26
-28
-28
-32
-38
-35
-19
-24
-22
-23
-25
-25
-16
-27
-36
-27
-24
-30
-28
-27
-31
-33
-24
-36
-29
-25
-22
-32
-35
-32
-32
-31
-28
-30
-30
-22
-20
-25
-33
-44
-36
-25
-24
-35
-41
-30
-21
-14
-24
-22
-26
-27
-21
-21
-33
-30
-23
-30
-30
-30
-30
-31
-28
-28
-33
-25
-21
-21
-33
-30
-31
-28
-22
-22
-30
-33
-30
-31
-22
-20
-29
-28
-26
-26
-31
-26
-37
-34
-28
-31
-28
-30
-32
-30
-30
-17
-30
-27
-22
-18
-23
-24
-29
-33
-32
-23
-24
-32
-28
-32
-35
-23
-24
-30
-33
-30
-21
-26
-32
-19
-27
-17
-15
-14
-21
-10
-7
-11
-16
-24
-23
2
-15
-25
-26
-21
-24
-28
-26
-24
-25
-26
-24
-25
-25
-21
-22
-27
-37
-24
-29
-19
-20
-32
-27
-21
-32
-21
-20
-15
-34
-39
-23
-27
-32
-28
-31
-32
-39
-42
-49
-56
-62
-61
-55
-42
-29
-28
-1
21
35
43
55
74
91
107
111
126
115
98
82
55
21
-7
-23
-49
-64
-60
-52
-37
-38
-38
-37
-40
-26
-23
-19
-16
-18
-29
-28
-18
-16
-19
-9
-21
-30
-29
-22
-23
-22
-17
-19
-15
-15
-17
-17
-21
-25
-26
-25
-10
-14
-20
-23
-19
-23
-16
-12
-18
-14
-14
-14
-14
-7
-5
-10
-15
-8
-13
-9
-7
-7
-1
-1
5
4
0
1
-4
-4
4
9
7
8
5
3
2
15
10
11
14
14
13
22
23
16
25
35
25
34
31
28
35
43
40
43
43
48
46
50
43
51
48
53
50
53
54
52
52
42
63
53
39
47
46
54
48
39
35
28
20
13
20
23
11
1
3
7
1
3
0
-14
-13
-9
-8
-17
-13
-12
-26
-17
-16
-21
-19
-10
-20
-22
-20
-15
-13
-24
-24
-28
-22
-18
-16
-12
-12
-18
-20
-20
-13
-16
-12
-11
-19
-16
-15
-15
-15
-11
-10
-19
-20
-14
-16
-21
-18
-22
-24
-14
-13
-26
-9
-18
-13
-15
-15
-16
-7
-12
-16
-6
-11
-14
-13
-20
-18
-19
-12
-15
-21
-10
-12
-11
-13
-16
-18
-18
-18
-17
-10
-16
-17
-20
-15
-17
-9
-17
-11
-12
-11
-17
-3
-15
-19
-23
-26
-19
-15
-11
-10
-16
-16
-11
-13
-21
-10
-19
-19
-20
-18
-11
-17
-17
-16
-23
-14
-13
-21
-16
-19
-20
-18
-18
-15
-13
-15
-19
-11
-32
-27
-25
-12
-21
-20
-20
-17
-18
-11
-12
-14
-9
-9
-20
-19
-10
-18
-23
-15
-18
-24
-11
-8
-9
-9
-15
-17
-20
-15
-7
-15
-23
-16
-19
-17
-17
-21
-17
-17
-14
-16
-15
-12
-13
-9
-17
-23
-15
-12
-16
-13
-11
-7
-13
-22
-19
-22
-22
-14
-22
-22
-18
3
-10
-15
-5
-8
-16
-23
-25
-16
-7
-5
-15
-3
6
4
11
0
-8
-4
1
5
-6
-14
-10
-20
-20
-25
-14
-9
-11
-7
-11
-10
-11
-21
-12
-16
-21
-20
-6
-6
-32
-29
-16
-17
-18
-19
-23
-16
-10
-10
-12
-23
-11
-15
-23
-31
-28
-26
-27
-38
-43
-37
-28
-26
-19
4
20
34
49
60
58
83
108
122
122
124
113
105
86
49
26
-6
-32
-50
-53
-57
-48
-37
-34
-34
-37
-22
-27
-30
-19
-17
-16
-4
-2
-11
-4
-14
-4
-6
-6
-12
-18
-11
-4
-9
-9
-2
1
-7
-5
-12
-13
-4
-5
-9
-10
-17
-19
-3
3
-7
-9
1
5
0
1
0
-3
-13
3
1
-4
4
7
2
2
10
12
10
5
8
6
11
11
11
17
21
18
17
15
16
21
23
25
36
26
26
32
41
33
25
35
48
51
43
44
58
41
50
45
44
45
54
61
61
54
56
49
53
63
70
56
64
67
69
67
59
54
51
53
50
42
50
42
32
36
27
18
19
12
4
12
15
14
7
3
1
-6
3
-9
-3
-7
-10
-8
-8
-4
-5
-9
-11
-10
-15
-10
-9
-6
-8
-16
-7
-22
-18
-10
-10
-6
-6
-11
-10
-11
-14
-18
-9
-4
-15
-14
-11
-14
-14
-2
-4
-12
-10
-9
-18
-8
-5
-11
-4
6
-11
-16
-11
-11
-15
-11
-10
4
-6
-11
-6
-12
-18
-11
-17
-7
-7
-5
-6
-11
-3
0
-8
-7
-6
-8
-13
-10
-3
-9
-14
-11
-11
-7
-13
-12
-4
1
-3
-6
-8
-20
-16
-7
-15
-7
-11
-13
1
-10
-15
-19
-17
-13
-7
-3
-2
-3
-14
-10
-14
-21
-7
-8
-15
-3
2
1
-14
-12
-19
-13
-5
-9
-12
-10
-7
-9
-10
-6
-11
-14
-10
-6
-8
-11
-6
-5
-3
-1
-13
-14
-15
-20
-23
-18
-15
-7
-6
-4
-5
-2
1
-10
-11
-4
-9
-5
3
-13
-16
-7
-12
-26
-19
-4
-11
-16
-12
-2
-12
-11
-16
-16
-6
-6
-10
-17
-16
-12
-13
-4
-9
-11
-7
-4
-5
-5
-12
-16
-7
-7
-14
-13
-7
-2
3
-7
0
-2
4
11
7
7
2
-16
-18
5
-3
-7
-7
-5
-6
-17
-4
-1
-9
-4
-10
-20
-14
-12
-17
-14
-7
-5
-11
-12
-11
-8
-6
-16
-13
-14
-4
-2
-8
-17
-8
-9
-10
-3
-13
-16
-21
-33
-31
-39
-44
-37
-28
-16
4
17
35
52
63
65
77
92
112
128
124
117
115
103
63
29
6
1
-26
-48
-49
-49
-38
-36
-40
-25
-20
-19
-14
-8
-5
-9
-8
-2
4
-1
-10
-7
-3
-11
2
-2
5
-10
-2
-5
-17
1
4
-5
-10
-1
5
-1
11
-6
-9
-1
9
5
2
-1
2
3
5
0
2
-4
-2
5
2
3
15
18
10
1
7
11
14
13
14
13
11
15
10
20
24
14
18
16
24
28
27
32
30
33
31
30
24
35
46
55
47
44
45
51
55
52
57
61
53
63
66
60
66
65
61
50
65
66
64
74
78
67
59
70
71
53
56
56
59
56
55
49
35
33
29
32
25
20
16
20
18
6
3
-2
0
5
5
-9
-7
4
2
-7
10
-4
-9
-11
-1
2
-8
5
0
-3
-2
-11
-14
-20
-3
-6
-6
0
-4
-11
-16
-10
-6
-8
-8
-10
-5
5
-1
-1
-5
-1
-11
-5
-5
-4
-3
1
-4
-11
-5
-9
-2
-13
-4
-10
-10
-1
-9
-10
-11
5
-6
-8
-7
-7
-5
1
-9
-6
0
0
-15
-10
-8
-8
-6
-3
-2
-6
3
1
-1
3
4
-4
-7
-4
-3
-9
-3
-10
-7
12
-3
-15
-13
-1
-6
-9
-7
-8
-10
-10
-14
-12
-7
0
-10
-14
-7
-12
-15
-12
-8
-7
3
-3
-8
-12
-5
-7
-7
-5
-9
-14
0
1
-11
-8
-10
-22
-17
-5
-3
-8
1
-4
-20
-13
4
2
-18
-4
-3
-8
3
-9
-8
-17
-12
-12
-10
-7
-10
-12
-10
-11
-13
-20
-8
-6
-3
-3
-6
-9
-5
-13
-17
-11
-9
-11
-7
-10
-17
-14
-16
-16
-12
-6
-7
1
-3
-5
-9
-9
-5
-3
-7
-11
-14
-12
-11
-9
-11
-1
-9
0
2
1
19
13
7
5
-2
-1
2
-2
-12
-10
-12
-14
-10
-10
-2
-14
-5
-12
-7
-4
-17
-22
-21
-3
6
-11
-7
-8
-13
-20
-14
-22
0
-6
-8
-8
-2
-4
-11
-8
-19
-13
-17
-26
-30
-37
-40
-36
-35
-27
-19
-4
13
29
36
63
75
87
99
118
122
120
130
115
84
62
34
9
-17
-42
-50
-49
-39
-33
-29
-15
-18
-17
-18
-2
-7
-7
-12
-12
-15
-5
-3
-6
-9
-4
-12
-12
-10
-5
-11
2
5
-2
-1
-3
-9
-3
-5
-7
-11
0
6
-7
-6
-1
-3
0
-8
-11
-3
4
-9
-9
4
9
6
3
10
6
8
14
14
2
-2
2
10
4
7
12
14
23
15
21
19
23
19
20
29
29
28
25
19
27
34
29
32
35
47
38
40
44
46
53
60
49
48
48
53
64
64
67
52
61
60
75
72
66
64
65
60
66
65
59
55
48
48
52
49
41
46
44
36
32
28
26
24
24
12
5
1
19
5
-6
0
-4
4
9
-3
-2
-5
-10
-4
-3
-3
-12
-12
-14
-20
-15
-6
-1
-3
-5
-8
-22
-15
-8
-3
-11
-3
-10
-17
-13
-1
-10
-14
-10
-6
-10
-14
-6
-2
-6
-9
-11
-11
-7
-9
-8
6
2
-6
-17
-11
-14
-14
-6
-10
-10
-2
-4
-1
8
6
-8
-4
-17
-13
-9
-5
-8
-17
-14
-2
-10
-11
-1
-10
-4
-6
-7
-4
-4
-5
-5
-5
-4
-9
-3
-9
-9
-7
-9
-3
-5
-5
2
-11
-17
-13
-2
-2
-7
-17
-14
-5
-13
-18
-5
1
-6
-13
-10
-11
-10
-1
-7
-16
-11
0
-5
-7
-6
-13
-16
-4
-7
-17
-5
2
-3
-4
-7
-10
-14
-16
1
-6
0
-9
-3
4
-7
-10
-14
-9
-8
-22
-14
-4
-5
-8
-13
-11
-11
-14
-9
-7
-5
-2
-8
-13
-12
-11
-5
-11
-13
-13
-19
-17
0
-4
-4
-12
-9
-11
-14
-12
-7
-7
-11
-16
-10
-13
-7
-5
-11
-13
-7
-6
-9
-11
-3
-5
7
11
5
7
13
2
2
-2
-5
-3
-2
3
0
4
-2
-3
-10
-15
-21
-11
-7
-7
-17
-15
-4
-9
-10
-1
-1
-5
-17
-6
-14
-12
-5
-5
-9
-10
-8
-8
-13
-11
-16
-9
-11
-16
-14
-19
-24
-40
-42
-39
-33
-28
-19
1
19
32
50
64
83
95
111
131
142
136
135
119
85
54
30
3
-22
-33
-36
-35
-29
-17
-16
-28
-17
-15
-19
-9
-5
-7
-4
0
-15
-15
-7
-10
-9
9
4
-5
-3
8
2
-10
-5
-1
-5
0
-4
3
-4
-13
-10
1
3
1
2
9
9
5
5
3
-6
-3
3
1
6
14
9
0
4
19
17
11
13
13
7
16
9
11
11
12
16
11
16
20
19
21
27
24
19
31
30
29
35
36
33
43
40
42
40
40
31
39
49
59
55
67
67
69
61
69
63
61
61
66
72
61
65
62
66
72
72
72
67
62
66
69
61
58
48
45
37
32
24
17
18
24
20
22
27
12
6
13
17
9
2
3
5
5
-1
-13
-14
-9
-9
-4
-2
-4
-4
7
-2
-20
-1
-1
-4
-8
-10
-6
0
-10
-4
-10
-3
-10
-8
-6
-2
-3
2
-3
-2
-8
-7
-6
-8
-19
-9
-3
-12
-5
-2
-6
-7
0
-5
-8
-9
2
-8
-6
4
-5
-9
-8
-5
-12
3
-4
-11
-5
4
-7
-4
2
-5
-6
2
0
-4
-3
-1
-17
-16
-6
-8
-7
3
-3
1
4
2
1
3
0
-8
-7
-2
-12
-13
-13
-3
-10
-6
-4
-6
-8
-2
-9
-7
-6
-4
-4
-1
-5
-15
-11
-5
-2
-10
-12
-9
-12
-11
-10
-17
-5
-4
-2
-8
-12
-9
-12
-7
0
3
2
-2
0
0
-9
-13
-6
-8
-7
-17
-17
6
1
-8
-9
-6
-7
-14
-11
3
-3
-7
-9
-11
-4
-4
-10
-7
-8
-10
3
9
-5
-6
-5
-21
-22
-8
-7
-16
-6
-8
-13
-5
-6
-8
-15
-14
-20
-22
-4
7
-1
-6
-2
-11
-3
3
6
-4
7
10
14
16
9
5
1
5
-1
-11
-2
-5
-1
-1
-1
-2
-3
-1
-6
-11
-8
-4
-8
-18
-11
-9
-14
-8
-10
-9
-7
-16
-5
-3
-4
-4
-4
-13
-13
-4
6
-1
1
-11
-14
-21
-24
-33
-53
-55
-36
-31
-15
-9
8
21
37
55
66
83
106
115
130
136
149
131
113
86
47
15
0
-21
-28
-37
-39
-32
-22
-20
-20
-16
-2
-9
-8
-4
2
-1
1
-2
-5
1
5
-3
-15
-9
-2
-6
-2
-5
-7
1
5
5
-2
-3
0
3
8
1
-2
-1
3
-2
10
4
2
0
13
14
1
1
10
5
0
11
13
18
15
15
9
11
22
14
12
14
1
8
11
24
18
24
28
22
25
26
25
30
28
33
31
38
40
35
44
48
43
52
56
51
45
54
58
62
63
67
62
61
60
61
68
77
72
62
66
71
70
63
68
58
65
81
74
66
61
55
45
44
36
44
38
34
31
33
29
30
17
23
21
11
7
11
10
10
10
9
5
6
-4
-3
-7
-2
5
5
-5
2
-1
4
4
-3
-10
-4
-8
-8
-8
-10
-8
-2
-2
-4
1
4
4
-6
-1
-1
-16
-12
-2
-7
0
4
0
-6
-2
-7
-10
-4
-6
-3
10
-1
-1
0
7
5
-8
-1
4
2
4
5
-3
2
1
0
-2
1
-3
-7
4
2
4
-2
3
0
-11
3
0
-3
6
2
-6
-1
-3
3
-2
-6
-6
0
2
-3
-7
-9
-5
2
-1
-5
5
-8
-2
2
-3
-4
-4
-12
-8
3
3
1
4
1
0
2
-1
-1
1
9
-9
-7
-6
-3
-6
-4
-8
-8
-9
0
2
-5
0
5
-2
2
-1
-5
-7
-8
-7
-2
3
-4
-1
-7
1
-6
-9
-7
-4
1
2
-1
-12
-9
5
-6
-7
-1
-2
3
-3
-13
-11
-9
-3
-4
-2
-1
-7
-8
-2
5
0
0
-15
-9
-8
-9
-13
-2
1
1
9
-5
-6
-4
0
15
11
10
23
12
6
12
-1
4
4
-4
7
2
-3
-7
-1
5
0
-4
-4
-8
-5
7
0
0
-5
-9
-13
-12
-4
-7
-10
-10
5
4
-2
8
-7
-8
-11
-9
-6
-7
-8
-15
-10
-9
-22
-35
-29
-32
-26
-13
-9
-1
26
35
52
62
80
98
116
134
143
138
136
121
103
72
42
11
-19
-33
-27
-31
-34
-28
-21
-18
-11
-12
-9
-2
1
1
-5
1
3
0
-12
-7
-10
5
1
0
1
6
-2
1
0
0
12
5
1
9
11
2
-1
-8
2
5
3
15
11
6
17
20
15
8
1
-1
6
19
10
8
13
16
17
13
12
12
18
16
15
18
24
25
22
20
20
26
29
31
34
29
30
33
24
36
41
39
42
43
44
48
54
56
48
53
59
56
62
64
66
71
77
75
71
71
72
70
63
75
73
70
73
80
68
66
70
71
66
70
74
60
43
50
49
50
45
37
37
28
32
36
28
22
20
19
15
10
13
10
17
9
13
6
2
10
4
4
10
7
3
2
8
9
11
2
5
0
0
1
-2
-7
3
5
-11
-10
2
0
4
8
5
3
2
1
-3
4
5
3
11
12
3
1
2
-6
-3
13
-2
2
4
8
6
9
5
-2
-2
2
1
-5
11
14
10
3
5
5
-4
5
2
-4
4
6
5
8
9
1
8
3
2
3
10
12
-3
1
3
0
-1
0
1
13
1
-3
-1
6
1
-4
1
4
13
8
5
0
5
6
8
4
0
3
8
11
12
-2
-4
9
-8
-11
4
3
2
8
11
8
-3
5
3
-2
2
-1
-5
8
7
0
0
-1
-3
-1
-6
-8
-7
3
8
11
-1
-1
2
1
9
9
2
9
5
1
9
-4
-4
-7
0
6
-6
-1
1
0
0
-4
-13
0
10
8
4
12
10
-1
-7
-12
-9
-9
5
8
5
3
9
22
21
7
11
20
13
3
10
15
7
3
-1
0
4
6
8
1
1
6
-2
-6
-8
0
-4
1
1
-3
-2
-2
4
7
1
2
-7
-7
5
0
-5
2
1
2
-2
-5
-1
-4
-9
-21
-30
-23
-16
-19
-19
-12
4
16
34
52
60
80
91
103
119
122
130
132
120
96
80
49
19
-14
-28
-44
-50
-39
-39
-32
-20
-5
-10
-13
-1
-4
1
7
2
-8
5
10
3
2
3
5
0
6
-4
-3
-1
3
12
-1
3
3
8
10
14
11
3
5
10
11
13
12
4
11
6
3
9
16
18
9
14
2
9
14
27
23
15
17
21
18
19
20
16
18
16
16
34
28
25
27
26
32
34
36
34
31
32
41
43
50
43
47
48
57
59
61
56
56
50
49
67
54
62
67
64
74
81
76
61
63
74
76
76
86
72
70
74
71
77
65
64
56
47
49
48
44
38
32
38
32
30
25
18
21
18
16
26
19
19
14
12
14
6
-2
0
4
18
0
-1
2
2
-2
2
-3
3
15
14
13
3
0
-3
-10
-7
-3
1
-2
-1
1
-1
4
1
8
-2
2
-1
4
7
-3
-7
-2
3
-9
-10
-6
8
12
12
6
5
6
-9
0
6
11
4
3
0
-7
0
9
3
5
6
1
0
5
20
10
4
4
1
3
-1
2
-5
-7
-2
8
-2
4
3
10
3
3
-1
5
0
-2
-1
2
0
0
2
-1
-2
6
4
2
3
-6
-12
-8
-2
-7
1
9
2
9
-4
-10
-9
3
2
8
8
1
2
8
6
-7
-9
6
2
-2
-3
5
-1
-6
-11
-4
-5
-1
2
0
-2
5
-1
2
1
-2
-7
-2
-7
-7
-2
9
4
9
-2
-3
-5
-6
-11
-4
-1
0
-5
-12
0
3
-7
8
1
-1
0
9
8
0
0
-5
-8
-2
-7
-16
0
2
9
4
8
10
12
6
14
6
4
13
7
4
3
-7
1
5
2
2
3
7
-5
-5
0
-1
-7
-5
0
-12
-5
0
-3
0
-4
-8
-4
-3
-1
-4
3
-1
-4
-9
-12
-8
-2
-11
-9
-8
-17
-22
-36
-24
-14
-19
-11
-1
18
40
61
78
77
76
96
104
124
141
136
123
93
60
34
9
-20
-41
-41
-37
-41
-38
-27
-21
-20
-26
-21
-2
2
5
1
-2
1
2
11
-5
-1
-6
-4
-1
0
-7
-3
9
8
4
-4
-1
-1
-5
0
0
11
15
8
6
-3
5
16
8
10
3
-4
4
8
11
11
5
8
16
6
5
13
16
26
18
11
6
16
17
16
21
29
21
26
27
19
18
19
23
36
38
34
30
40
37
28
30
39
49
48
62
53
53
56
58
55
60
61
61
62
73
67
69
67
68
70
67
72
70
68
71
74
65
64
68
58
57
53
46
45
43
50
57
56
33
21
16
29
20
16
18
18
16
15
8
5
10
12
4
0
13
18
13
5
-2
-6
-12
4
4
-2
3
-2
-12
2
10
-1
-11
-9
-4
-2
5
3
0
-7
2
-10
-10
-7
-7
1
-6
3
-1
-6
3
-2
-7
2
1
15
5
5
0
8
7
-3
2
-3
-5
-5
-4
4
0
7
4
-3
5
-6
-2
0
3
7
-1
-1
2
-8
-7
4
5
9
7
-6
-9
2
0
1
1
-9
-9
8
9
2
-11
-3
3
9
3
11
6
-1
-3
2
-5
7
-4
1
2
-2
-6
5
-3
-7
0
3
-1
-2
-5
-11
-2
-12
3
0
-5
-6
-7
3
-3
-3
-4
3
0
0
0
-6
-8
-2
7
1
-6
1
5
4
6
0
-2
4
-6
-8
-2
0
-4
2
-5
-6
-10
-5
-13
-10
2
6
9
0
11
14
-3
-17
-7
-10
-7
-1
-8
-6
-22
-7
4
14
20
20
17
9
11
13
13
14
15
13
7
4
4
13
8
3
4
5
-1
0
-2
-2
-3
-1
-7
-5
-2
-10
-13
-7
-1
-4
2
5
2
-6
-5
-5
-9
-7
-10
-23
-9
-6
0
7
-2
-16
-7
-2
2
-17
-26
-26
-32
-30
-20
-18
-13
-2
13
35
59
73
83
103
130
138
139
144
143
121
90
54
26
4
-32
-53
-53
-36
-26
-16
-25
-8
-3
4
-8
-8
-7
-9
-3
-6
-2
-3
0
0
4
1
1
5
-4
-10
6
10
0
-2
1
-12
-8
2
8
0
9
3
11
-1
-1
-3
5
15
-1
1
4
14
20
12
11
8
19
15
14
16
21
18
15
22
20
16
14
13
18
16
20
18
21
18
26
28
36
32
41
33
33
34
32
38
47
45
40
40
38
55
60
63
64
59
54
57
47
58
71
78
66
68
70
71
72
77
71
76
75
77
79
71
76
69
68
64
54
52
42
48
45
40
36
34
26
17
17
21
29
24
20
17
18
6
6
-2
0
3
6
6
7
7
1
10
4
-11
1
1
-3
-2
-1
4
3
2
-4
4
1
0
-6
3
7
0
-5
-11
-8
-1
5
6
-1
6
13
6
2
-9
-5
2
-2
7
1
-3
6
4
5
6
2
-1
-5
-13
-4
12
2
3
-1
7
9
-1
6
5
8
11
2
2
2
2
-4
-8
-4
0
0
6
-3
-1
-2
-1
4
10
-1
-6
1
4
8
6
1
-2
-2
-2
-3
1
14
11
3
3
2
4
-6
-7
-15
0
-6
-1
-1
3
6
6
-5
-5
1
-1
4
11
-7
-10
-3
-4
-9
1
-2
2
0
-2
4
4
2
2
-8
-2
-6
-5
0
9
5
1
0
4
-2
-3
2
-11
-19
-6
3
-3
-10
-5
-10
3
3
10
4
2
-3
0
-10
-4
-7
-11
-8
-5
1
6
4
7
9
5
5
15
16
13
18
15
13
17
11
3
-7
-7
-2
5
9
11
-2
3
-5
-4
3
3
3
-15
-12
-13
-8
-7
2
5
12
4
-3
-7
-13
3
-10
-5
-7
-4
1
8
-1
-6
2
-5
-2
-3
-8
-24
-33
-34
-41
-40
-26
-20
-10
-4
16
34
52
71
72
98
116
128
149
150
142
129
105
65
43
13
-8
-34
-37
-30
-22
-28
-13
-17
-18
-9
-6
5
-2
-1
1
-9
-6
-5
-9
-6
0
4
-2
-1
0
-6
6
-1
0
1
8
7
1
-4
9
4
-3
-3
3
9
18
14
9
1
-1
5
11
8
5
2
5
7
16
18
17
7
22
18
10
13
17
18
29
20
14
20
21
21
22
23
33
27
23
34
36
26
28
33
23
35
40
34
41
49
56
54
59
65
61
62
68
63
58
63
66
67
70
67
66
79
81
73
71
73
62
70
65
70
66
70
59
61
60
59
42
45
43
48
40
34
30
20
18
19
17
20
21
17
18
14
8
0
2
1
6
10
8
0
-3
2
9
4
5
5
3
-3
-2
-11
-3
-5
-3
-1
5
3
-14
-7
-4
-2
-4
3
3
2
1
-1
-2
2
3
-11
-5
10
5
4
4
-7
-8
0
7
1
2
9
1
8
3
1
-9
6
-4
0
2
5
6
5
-1
1
1
-1
1
-2
2
8
4
3
4
2
0
-4
-3
-6
-7
6
5
5
8
4
3
12
1
-7
-7
5
5
-2
-11
-7
-4
5
0
8
8
