83
80
84
86
83
85
81
80
85
89
83
84
81
76
78
83
85
86
86
85
83
90
87
83
82
81
79
80
77
87
87
80
85
83
74
74
80
82
95
96
85
80
78
84
80
79
82
80
82
82
79
82
89
84
81
79
72
77
81
85
86
89
81
83
82
83
74
81
87
87
78
77
85
84
81
76
78
83
87
79
83
87
90
86
82
82
76
75
73
84
86
79
86
83
79
76
75
79
88
81
80
73
85
81
83
80
79
76
88
85
89
84
85
84
83
85
84
77
81
88
80
73
84
77
78
78
77
80
83
85
85
84
82
77
67
76
78
81
84
78
82
81
81
74
76
86
86
85
85
84
81
82
88
82
85
86
83
86
86
81
82
84
85
85
92
89
84
84
81
84
84
82
84
84
80
84
79
82
87
80
84
86
82
83
86
84
85
93
89
82
89
80
82
81
82
85
89
86
91
84
85
92
90
90
81
85
85
92
89
83
85
83
86
95
86
88
91
89
90
92
88
90
90
98
90
92
93
102
103
91
84
91
94
93
99
98
91
99
105
95
91
91
91
94
93
97
97
92
96
95
101
100
89
88
99
93
93
89
92
95
91
94
89
86
90
82
79
86
91
89
86
87
78
84
84
79
79
94
87
84
83
82
85
83
81
75
64
68
61
50
43
45
54
78
101
126
142
165
184
221
249
285
322
362
397
425
437
452
440
407
367
329
254
193
146
118
102
99
89
81
86
94
86
92
95
99
105
97
96
98
98
94
92
94
92
97
92
93
100
93
99
99
93
94
103
95
103
116
110
102
101
105
110
108
110
111
112
109
98
110
110
111
112
116
114
112
119
123
115
111
116
122
126
121
124
121
125
133
122
124
124
127
127
133
131
130
138
142
147
142
136
144
140
146
152
147
150
158
155
163
167
164
165
164
171
172
178
180
177
176
185
188
191
196
191
196
202
201
193
191
189
182
204
208
197
199
197
191
193
191
189
181
176
174
169
169
166
162
151
154
149
138
131
136
133
130
128
128
132
129
118
110
110
109
106
118
116
114
116
108
107
109
108
107
106
107
105
104
110
116
115
103
100
101
105
113
113
109
109
108
106
107
107
106
105
102
113
112
104
111
105
98
107
105
105
108
111
108
107
112
105
104
102
106
111
111
106
103
106
110
108
105
108
110
105
109
115
111
107
108
106
104
111
117
116
108
107
106
111
110
103
105
107
106
107
107
116
112
108
108
120
119
102
101
104
108
114
113
111
107
103
108
112
111
108
105
110
107
100
106
112
109
102
113
116
112
114
106
103
108
118
111
116
108
107
115
115
108
107
105
109
108
112
120
101
110
112
114
112
116
98
100
107
108
108
111
110
107
105
110
111
111
110
108
111
116
106
101
105
110
104
117
117
107
101
112
112
106
106
107
106
117
115
109
109
113
106
107
115
113
109
102
101
104
116
114
113
111
114
108
105
109
115
108
103
109
104
114
111
108
114
118
111
106
114
110
110
108
107
109
109
116
112
102
108
121
104
103
105
109
103
111
110
107
112
121
106
105
106
107
104
110
109
110
112
109
115
109
109
109
107
105
105
108
110
110
110
112
110
109
106
115
108
112
110
107
110
111
111
111
113
108
114
109
118
125
123
124
119
108
117
129
123
121
122
120
118
120
115
117
112
112
113
110
116
124
122
118
119
123
119
119
117
120
124
114
112
104
104
105
107
101
108
110
112
110
110
102
108
98
103
106
111
107
103
100
103
103
111
109
104
101
97
95
94
94
88
83
69
60
67
76
100
121
148
164
186
207
242
270
302
336
374
417
448
462
466
455
425
382
340
268
201
161
134
122
120
110
102
103
109
107
110
109
116
113
114
121
112
110
117
118
115
114
113
110
115
108
116
112
115
116
111
114
122
121
108
114
115
113
115
116
116
118
124
119
124
125
118
117
119
120
122
118
126
131
126
128
121
132
134
130
127
128
137
143
137
135
139
135
138
134
139
144
148
147
143
142
143
148
152
150
157
159
166
170
161
162
164
171
171
175
182
188
181
183
188
187
184
194
199
197
197
198
198
198
201
211
207
200
207
209
208
207
204
204
202
195
194
188
184
184
180
177
171
166
166
163
157
150
146
133
139
145
135
132
123
125
121
123
122
120
116
124
119
115
112
114
111
115
116
109
109
112
111
105
109
107
100
110
102
106
112
114
109
109
107
107
108
108
108
107
104
110
104
106
100
104
107
101
108
108
107
112
112
106
105
107
99
102
109
108
105
108
110
113
110
107
105
105
105
104
104
107
109
104
102
104
101
105
113
114
109
115
102
101
102
99
104
110
106
103
101
97
100
104
111
107
108
103
99
105
113
107
103
97
100
104
99
99
105
105
111
108
100
96
100
95
100
104
107
110
111
111
98
98
104
96
95
101
105
103
98
95
95
105
101
94
92
98
104
111
109
97
96
97
101
93
101
103
102
94
102
106
95
91
93
91
104
105
102
96
103
97
99
97
92
90
97
99
90
93
97
101
100
94
94
97
93
99
94
102
93
97
95
95
99
96
94
96
96
94
101
100
100
98
98
89
98
98
90
93
97
93
94
93
94
93
92
95
95
100
94
91
91
92
91
92
88
78
87
101
106
100
92
93
84
94
101
109
87
87
99
97
95
93
92
94
92
90
98
100
102
95
87
96
86
87
92
89
89
99
93
90
91
91
91
91
92
88
90
97
96
84
95
97
91
92
91
92
93
88
92
87
95
99
92
92
94
90
91
98
117
105
101
103
101
104
100
95
94
99
104
100
102
96
91
93
93
87
95
98
101
100
100
97
95
97
99
93
96
97
97
88
87
82
82
94
93
80
79
82
82
84
84
80
84
87
81
78
80
87
74
76
91
85
84
83
84
79
78
77
66
54
48
40
31
41
63
85
108
137
153
175
208
241
279
311
348
375
407
436
447
439
410
373
328
260
191
140
117
105
92
81
83
88
89
84
81
86
94
96
95
90
87
85
85
90
86
85
92
96
94
81
86
84
84
84
87
92
87
86
89
84
91
99
85
89
84
90
100
96
97
93
92
99
98
102
96
98
101
101
103
102
97
98
102
103
109
107
110
102
106
110
114
107
106
110
116
115
119
122
122
121
116
127
125
131
126
123
140
139
134
140
132
141
141
149
152
150
161
165
151
159
163
163
163
164
172
174
178
176
177
179
177
179
179
180
177
183
184
174
172
172
166
173
169
162
156
155
146
148
137
131
123
126
123
116
110
111
112
106
104
106
102
89
92
98
90
91
98
93
87
82
82
82
88
88
87
84
85
83
80
84
82
76
82
87
86
85
81
87
80
78
80
77
79
79
77
82
85
90
83
84
76
71
76
74
75
82
85
82
85
85
79
73
76
75
75
80
81
85
79
80
82
78
79
72
81
78
80
74
74
79
73
78
87
82
79
81
81
77
76
79
78
79
80
77
78
83
78
75
78
78
74
74
80
76
74
82
80
81
81
77
73
80
77
73
74
88
91
69
80
71
76
76
74
75
77
79
81
78
71
73
72
76
83
77
75
72
76
79
72
72
73
73
70
73
76
77
70
74
72
72
71
77
73
71
64
64
71
76
80
77
69
68
66
74
72
71
69
78
77
66
69
65
64
75
81
82
71
69
71
67
67
71
74
72
75
78
78
74
72
67
68
72
69
63
72
70
65
68
62
66
68
66
66
61
69
72
63
69
82
69
64
68
66
64
72
71
67
65
67
61
64
69
68
66
67
66
72
75
71
64
68
68
64
65
67
72
70
69
78
71
63
67
70
68
67
66
61
63
67
65
68
68
65
64
68
71
65
64
72
64
63
65
69
67
57
65
70
69
61
66
55
60
69
66
63
74
66
68
68
68
62
65
70
68
67
70
76
76
65
63
80
78
73
75
77
78
70
70
71
71
75
71
69
75
71
65
73
69
66
69
77
75
70
70
74
72
73
74
59
62
67
71
70
68
62
54
58
61
59
60
62
66
63
61
58
59
59
59
58
64
59
57
58
56
61
57
52
55
44
35
35
33
18
21
34
41
59
88
103
119
154
187
217
251
283
319
354
392
403
420
410
385
347
316
257
184
128
110
73
57
63
61
60
67
64
60
65
61
67
68
73
75
59
63
66
70
68
68
61
69
65
59
60
63
66
73
68
62
63
68
66
67
67
75
75
64
65
70
69
72
79
72
62
71
77
74
82
70
71
72
80
71
74
85
78
79
84
80
77
83
89
88
84
86
87
87
88
88
96
103
100
93
99
104
97
108
113
111
109
112
106
115
123
123
126
129
131
128
128
134
140
140
141
144
155
140
148
150
149
155
157
158
158
159
157
153
155
145
148
157
154
149
144
142
139
132
126
126
114
110
104
107
116
105
98
91
86
82
82
80
70
77
77
85
76
73
64
61
67
65
67
66
62
58
60
69
64
62
54
59
58
57
56
58
63
58
58
55
56
54
61
67
58
60
55
56
62
59
60
66
57
53
61
60
56
57
57
49
54
61
54
61
68
63
65
57
57
60
55
57
53
57
60
56
55
53
58
51
55
62
56
58
61
49
53
59
55
57
66
51
47
50
67
61
57
57
59
49
54
62
59
55
57
56
56
66
60
54
59
59
52
61
59
48
56
56
59
47
56
61
52
61
58
53
54
48
58
54
55
56
41
47
68
60
58
55
56
47
49
54
54
52
57
52
60
57
64
43
46
51
53
53
57
47
50
55
51
47
52
51
41
51
62
52
44
51
48
47
53
56
45
54
51
46
44
47
46
51
58
49
48
58
55
50
48
53
45
50
54
47
45
48
47
53
43
48
47
51
57
52
44
51
47
45
49
42
45
50
39
42
54
57
50
46
48
54
51
49
48
43
39
51
52
50
49
53
48
51
48
47
50
58
49
47
46
51
53
58
57
40
49
52
50
58
52
50
48
53
47
43
48
55
52
50
45
48
49
56
50
44
46
51
50
50
47
52
45
48
53
55
56
60
53
51
52
45
42
52
53
49
57
59
49
52
55
53
50
47
52
52
53
54
58
63
64
61
56
61
60
58
62
61
57
54
59
56
50
52
58
60
62
53
59
51
50
48
53
58
62
67
71
61
57
53
57
50
55
58
50
49
45
45
49
48
42
43
46
47
45
43
47
50
43
48
45
44
44
49
44
41
47
45
37
31
31
22
12
8
2
4
19
43
64
86
104
127
149
183
219
256
295
334
370
392
408
402
324
268
190
134
91
70
52
51
56
43
39
50
57
50
52
49
53
54
57
59
56
55
47
48
47
59
64
51
52
52
50
50
55
53
52
65
57
50
53
58
56
56
62
59
61
58
56
53
56
68
68
63
62
63
64
56
57
63
68
70
70
66
71
76
70
77
72
67
75
73
78
86
86
80
75
78
80
86
90
89
88
89
95
97
101
90
99
94
104
107
106
113
112
115
120
122
121
122
124
132
126
133
141
138
136
144
142
148
146
145
151
143
143
148
145
135
133
140
140
137
133
129
124
116
113
114
104
96
98
93
91
86
79
73
77
80
72
63
67
59
62
63
64
68
48
63
51
39
42
47
56
56
50
47
40
40
46
54
48
48
50
60
44
46
47
42
43
40
47
48
51
53
38
40
36
36
45
56
48
45
45
46
44
41
41
37
39
49
49
46
42
51
44
46
45
45
43
51
49
42
43
39
38
42
30
31
39
45
50
45
40
47
50
46
40
40
33
41
45
38
36
37
44
46
46
45
45
51
42
36
35
46
48
39
39
36
44
42
45
37
41
51
41
41
40
36
38
38
41
40
42
43
38
31
25
33
43
43
43
41
47
51
37
38
35
32
35
38
41
29
36
43
35
36
38
37
38
31
34
30
31
46
45
41
31
32
36
36
34
36
33
31
29
35
41
34
40
35
31
34
40
44
36
36
28
32
33
34
28
29
43
43
38
38
36
27
26
34
30
36
27
34
41
34
32
32
30
35
23
36
43
39
40
46
42
30
29
35
30
36
38
42
37
43
39
36
42
37
27
31
39
38
44
34
38
33
24
29
39
43
53
43
39
35
36
25
30
48
44
44
45
36
39
38
43
43
49
40
31
32
39
41
39
48
38
34
34
41
41
41
46
34
39
50
36
29
27
34
42
39
35
40
44
56
44
47
51
40
31
42
49
48
50
52
49
52
49
51
45
48
48
45
47
44
42
46
40
44
42
49
45
46
50
56
46
52
52
55
49
46
48
45
44
41
46
48
40
31
32
43
34
43
43
37
38
41
39
38
33
36
39
42
42
40
37
37
35
32
38
37
29
30
24
11
-3
3
3
15
26
39
63
87
97
127
154
188
218
241
276
322
351
363
379
366
339
303
261
189
128
90
60
37
32
25
18
28
40
38
38
47
38
39
47
36
34
49
54
49
49
52
46
43
47
52
46
50
57
58
35
41
38
42
57
60
52
52
54
57
52
61
58
57
58
45
44
55
49
56
65
66
61
63
65
52
53
54
64
66
75
70
69
70
68
64
71
71
69
71
80
83
75
77
77
84
88
88
90
88
93
90
95
100
106
101
108
105
109
112
115
124
117
113
127
126
121
129
136
136
133
143
141
143
144
147
148
159
139
139
152
147
134
135
139
138
131
131
134
136
129
119
112
108
106
99
100
90
79
86
87
78
73
71
71
63
63
57
51
57
64
62
56
54
49
46
54
54
56
49
55
48
47
46
47
36
48
43
47
49
45
46
48
46
52
46
49
45
44
43
50
46
44
49
48
49
33
28
37
51
55
46
40
46
44
29
28
50
56
52
47
51
45
45
52
46
43
45
41
53
47
53
42
44
44
44
46
50
55
55
52
40
42
44
41
43
51
35
47
52
47
41
46
46
47
47
47
39
46
52
52
45
41
51
40
36
46
47
41
50
51
44
44
53
39
34
38
49
46
42
45
48
50
52
45
38
45
46
41
46
53
49
43
38
42
48
39
44
40
49
50
47
49
48
33
35
41
43
46
51
48
43
46
46
44
45
42
53
54
43
38
41
39
42
45
41
43
44
46
44
42
41
33
31
36
51
51
46
35
48
45
44
44
43
45
45
41
39
44
42
40
39
48
52
41
44
45
45
43
48
46
42
37
43
40
41
47
42
50
49
46
59
45
29
43
40
44
47
47
51
54
47
37
42
33
32
44
39
42
50
44
50
46
40
45
48
42
47
49
50
48
45
44
46
43
43
45
41
48
53
58
52
47
46
45
46
46
45
63
49
53
52
53
54
54
54
54
53
50
47
49
51
56
43
43
52
57
46
47
50
62
56
47
40
39
45
37
40
44
54
45
50
46
37
37
44
37
41
45
42
44
38
40
31
40
44
41
40
51
49
45
36
27
21
24
11
5
7
6
16
37
56
84
92
125
144
177
201
237
267
303
342
372
379
380
361
337
292
240
167
109
71
56
39
34
35
36
41
43
41
48
44
41
44
55
53
54
53
52
45
41
47
42
47
46
45
43
56
55
54
52
58
48
51
50
47
53
53
56
54
47
44
52
52
57
58
56
63
55
63
63
65
59
44
50
62
69
64
69
65
62
63
64
73
73
68
66
73
73
74
81
74
72
83
87
87
90
90
89
87
87
94
89
96
93
104
104
113
113
113
115
114
115
123
125
122
124
124
135
137
133
134
137
143
143
139
139
142
149
146
142
141
138
141
143
130
134
126
124
125
123
114
107
105
99
90
93
87
87
86
78
75
67
67
67
60
63
67
59
59
51
48
48
48
56
51
49
52
53
54
54
49
44
43
46
48
46
53
48
42
42
47
47
44
41
42
47
53
51
42
41
37
37
37
39
45
47
47
46
44
42
45
41
47
49
43
42
41
40
45
43
42
40
43
40
43
51
48
46
41
39
36
44
41
44
47
48
50
41
31
39
43
39
42
42
45
49
48
45
48
41
39
45
41
44
41
42
49
49
47
45
49
43
42
44
49
48
49
46
42
38
44
40
45
38
43
47
39
39
46
47
41
35
42
46
37
48
47
43
37
40
36
42
50
49
42
50
48
40
42
40
46
46
45
41
40
42
42
43
47
40
46
41
33
38
42
37
37
36
36
43
33
44
45
37
42
46
38
30
36
42
41
42
38
32
40
43
45
38
40
34
42
39
40
37
37
40
38
34
38
38
39
39
42
34
39
43
37
38
36
34
34
31
32
37
45
42
35
39
42
38
35
37
35
31
38
39
32
49
46
46
47
36
32
35
46
41
29
39
37
29
31
35
39
35
39
33
37
35
33
39
38
36
41
40
34
42
43
41
41
38
34
35
41
45
47
54
40
31
42
46
39
37
50
42
43
49
44
45
41
40
47
37
39
36
48
44
41
39
44
43
43
44
39
42
42
40
39
41
39
31
33
31
28
33
35
36
35
26
25
23
25
34
34
34
37
33
33
35
35
28
39
38
32
30
29
20
13
-1
-9
-13
-4
7
25
51
82
95
112
142
173
195
230
262
292
324
358
365
372
366
341
297
258
185
125
85
59
55
45
28
28
41
37
36
33
33
38
38
46
53
46
37
33
37
40
46
39
39
48
42
40
41
40
42
38
39
45
44
44
40
38
41
43
40
47
51
48
47
44
44
42
42
44
41
41
51
53
52
47
50
55
53
53
50
47
58
61
63
62
73
59
55
63
68
61
59
59
67
71
69
76
75
81
82
78
83
87
86
90
90
81
92
97
103
98
105
102
99
113
117
117
119
114
117
127
124
126
126
129
132
129
127
133
137
130
131
129
125
120
121
114
107
120
113
105
102
97
96
92
82
78
71
68
67
69
63
60
57
50
52
49
48
46
45
41
48
41
35
43
46
37
37
39
36
36
46
39
41
33
29
33
38
34
37
38
40
36
38
33
33
33
33
33
34
37
33
34
43
39
31
32
29
23
43
47
46
43
40
40
27
28
45
36
32
38
34
36
38
38
32
32
31
36
34
38
36
39
36
36
28
35
37
35
39
45
42
40
44
36
25
34
36
38
40
42
43
36
34
36
35
37
39
41
40
39
42
37
36
40
33
34
37
34
41
41
30
35
42
44
40
41
47
41
44
43
39
39
39
40
38
38
48
37
44
51
45
44
40
36
31
46
41
40
51
44
39
44
43
45
38
39
45
42
42
40
46
37
37
46
34
43
50
49
48
46
43
44
42
47
44
40
41
44
47
42
45
48
48
46
40
51
54
37
46
49
47
46
51
45
41
45
50
46
45
56
52
52
54
49
48
41
49
45
40
53
55
47
53
53
47
52
54
52
47
48
50
53
55
50
49
51
55
57
59
58
54
48
58
61
49
58
55
51
60
62
51
54
59
49
53
62
53
53
64
59
61
56
55
58
56
47
49
53
61
51
62
69
70
64
58
55
60
63
63
62
63
58
63
56
58
64
59
63
66
66
66
63
65
64
63
74
64
63
67
66
66
67
73
66
70
74
69
74
73
73
73
75
75
73
79
83
70
75
82
72
81
77
77
74
80
75
74
71
77
83
82
73
80
78
81
77
79
84
87
85
81
81
77
73
76
78
71
76
74
72
70
68
70
66
70
70
75
68
75
77
76
77
74
63
71
84
77
80
76
71
71
68
61
47
44
37
35
48
50
66
93
110
135
154
185
217
246
276
306
337
371
405
420
442
432
414
369
328
267
199
150
124
104
102
94
87
88
91
95
88
91
98
97
103
98
93
95
100
100
96
101
102
100
101
93
98
97
104
102
98
100
106
101
103
100
105
107
116
115
107
104
111
109
110
107
105
110
125
126
119
120
116
115
120
118
123
118
125
125
121
131
133
132
136
134
128
133
144
135
129
135
139
140
147
140
150
155
158
155
158
159
158
158
158
168
174
171
176
180
176
183
183
190
196
188
195
198
200
202
202
211
205
205
207
212
215
216
217
213
214
214
212
207
218
205
198
201
204
200
199
196
183
185
177
171
166
172
173
168
160
146
142
139
141
146
140
141
137
139
136
136
134
130
134
140
132
135
132
132
123
130
129
132
127
132
131
128
126
125
121
125
136
133
127
123
128
131
134
131
128
126
135
137
134
136
132
136
132
135
138
138
133
122
133
125
133
138
142
137
133
134
132
136
133
135
136
138
131
134
145
136
132
140
140
142
145
133
134
135
136
138
146
139
135
133
132
141
144
142
145
140
141
137
142
146
142
140
146
142
143
144
136
136
139
143
143
143
143
141
141
146
135
138
147
144
145
147
142
139
140
132
138
148
143
142
145
150
148
142
139
141
139
140
131
139
150
151
144
140
141
141
142
143
140
137
139
150
151
148
139
144
141
144
149
137
140
156
149
149
142
140
143
142
141
141
149
149
145
144
144
150
140
147
142
140
145
151
146
142
144
150
146
153
150
148
151
152
143
148
153
143
142
144
141
143
150
148
145
147
153
148
146
140
148
148
152
148
143
143
147
151
146
146
141
141
158
155
143
148
154
147
148
145
145
150
150
146
148
152
147
147
150
142
144
152
152
144
150
154
147
143
152
152
147
149
149
149
150
147
149
146
145
147
145
147
148
143
148
152
144
151
145
149
152
152
150
142
151
158
151
155
160
145
139
148
149
149
147
151
160
150
148
145
146
150
159
152
154
155
152
146
154
149
146
153
154
153
147
141
144
150
151
160
160
156
148
148
157
154
154
159
163
163
162
163
166
158
154
156
157
164
162
155
153
163
166
161
157
158
156
147
148
143
145
156
155
157
157
159
154
162
159
152
155
151
157
147
136
147
149
144
148
150
142
149
156
153
144
146
138
145
147
144
145
145
144
152
145
141
139
144
143
137
134
128
118
115
100
107
106
106
140
153
185
210
225
254
290
317
343
375
414
453
482
504
502
496
469
431
390
319
245
209
181
167
157
157
153
142
142
156
152
156
155
158
159
158
158
155
153
157
160
156
147
156
151
159
156
150
154
164
160
155
160
164
161
154
153
161
161
161
156
162
164
168
167
162
163
165
165
163
165
164
175
170
165
164
168
164
164
172
174
171
171
176
181
181
174
174
180
181
189
181
179
182
182
183
192
194
187
185
199
194
201
198
200
200
208
214
207
208
211
211
226
232
229
232
231
235
237
242
241
243
243
246
253
243
253
243
245
250
235
239
249
247
242
242
240
232
228
227
216
212
217
219
211
200
189
187
184
193
193
188
182
180
179
171
164
157
166
163
150
157
164
155
162
153
159
157
148
148
154
151
157
153
147
148
148
138
148
158
151
153
150
147
150
145
147
143
143
155
152
142
141
151
147
149
159
147
147
149
153
151
153
149
153
149
138
151
151
142
139
144
149
145
139
141
145
146
145
144
140
148
151
152
140
143
140
139
140
138
130
139
148
143
140
143
145
138
145
146
140
130
148
151
145
140
134
139
136
137
135
147
142
138
142
142
140
140
137
137
143
139
138
140
128
133
134
136
138
133
132
137
134
128
131
132
125
132
134
128
136
139
128
129
129
138
141
138
129
131
128
130
134
133
128
136
126
124
122
119
126
136
132
134
130
125
128
132
135
136
122
127
125
121
127
133
129
133
132
125
124
134
129
129
123
120
126
130
122
126
132
129
127
118
118
127
131
126
120
119
130
135
129
129
138
128
119
127
122
126
132
127
118
124
124
131
126
120
122
130
124
131
124
120
122
127
126
125
126
124
126
134
134
130
118
114
122
117
118
128
131
123
112
116
119
127
133
130
122
128
124
121
120
126
125
128
124
123
126
110
118
126
128
123
125
123
123
119
115
127
124
124
123
119
134
120
123
122
125
118
114
113
122
127
125
121
122
125
132
121
120
117
115
124
124
118
122
123
117
114
129
120
116
122
126
119
118
121
119
128
120
117
119
116
120
127
133
125
118
121
128
125
125
121
120
126
129
128
125
119
137
134
137
131
135
131
131
136
132
127
120
126
125
121
118
126
130
134
140
134
131
122
128
128
128
121
112
105
124
117
119
114
117
117
115
121
118
115
125
109
116
119
120
108
112
106
111
115
115
118
121
109
110
108
104
104
103
89
81
80
79
78
83
102
119
142
169
185
216
255
287
312
336
372
407
435
436
447
445
407
377
318
242
180
146
121
109
105
108
112
107
103
90
88
106
114
116
134
124
127
122
111
118
126
108
122
117
114
105
110
119
121
116
121
122
110
114
116
117
132
137
133
119
115
113
119
128
118
119
125
117
129
137
133
113
132
119
100
128
136
143
139
137
141
140
136
137
134
132
136
143
148
144
143
138
141
139
147
157
159
142
149
158
157
172
159
166
171
167
178
168
156
172
164
173
181
193
196
204
203
195
186
192
198
200
195
203
199
199
219
217
213
206
219
217
206
209
179
186
205
194
192
190
177
173
173
168
159
159
155
151
147
140
138
132
120
125
141
128
127
122
113
113
108
117
121
116
121
122
116
103
116
117
118
124
120
121
103
95
110
118
112
94
95
108
109
98
108
114
102
94
91
97
101
109
103
115
108
117
112
105
99
103
97
99
118
112
108
100
103
98
104
107
99
99
103
101
108
103
108
105
104
110
108
107
108
106
112
114
101
101
99
104
91
84
99
108
122
107
102
109
107
100
92
106
103
106
100
100
106
95
106
97
91
101
101
94
106
111
103
104
95
100
93
95
85
88
106
96
89
92
106
107
108
89
86
97
94
92
95
90
87
101
97
94
96
94
86
102
96
90
92
102
97
98
85
83
84
99
96
85
84
78
81
108
106
101
91
96
88
84
108
99
87
90
84
81
99
102
88
86
96
89
95
96
92
86
93
107
100
80
73
75
87
93
93
99
95
81
87
94
79
82
88
94
83
89
103
103
87
87
99
96
92
97
97
92
100
96
90
85
90
92
93
88
88
85
91
91
97
93
84
83
88
84
88
95
103
89
84
89
83
77
86
92
97
86
95
81
79
93
89
83
69
80
99
106
92
75
79
83
93
81
81
79
79
94
99
86
73
83
82
86
92
95
83
79
79
73
94
91
87
86
87
87
91
88
84
86
75
78
78
77
83
90
88
86
88
85
80
90
89
83
77
79
71
73
79
76
77
75
75
70
80
76
77
64
62
57
63
71
68
80
89
66
70
72
75
78
69
64
58
51
46
50
37
34
36
38
55
87
99
118
130
140
176
213
242
272
305
336
355
372
381
370
346
316
281
215
141
107
83
88
81
74
66
66
71
65
61
72
60
71
75
70
70
70
64
70
70
71
70
80
73
66
73
87
81
70
74
75
74
75
72
72
83
87
79
69
72
84
65
72
73
90
95
92
81
70
78
82
72
77
84
89
88
90
87
77
83
86
85
89
93
96
85
78
82
85
113
102
102
99
100
100
98
103
102
113
108
107
100
109
113
113
127
138
133
133
131
119
130
141
133
133
133
155
154
149
158
151
149
150
145
141
155
157
155
158
147
158
154
148
157
155
137
133
142
142
139
124
113
120
114
101
95
101
94
92
95
97
90
88
79
82
89
73
70
71
74
73
73
73
70
63
65
63
58
60
65
69
62
60
60
62
63
69
62
63
67
62
56
61
53
68
65
57
53
54
53
61
78
73
60
46
59
72
68
65
61
59
55
48
66
66
62
63
57
53
54
46
55
49
59
59
73
57
63
69
71
63
62
56
48
61
64
54
55
67
61
57
60
54
57
59
69
70
70
60
63
58
60
65
63
52
61
63
55
57
62
48
46
48
55
71
79
60
57
65
58
55
60
62
52
47
62
75
64
62
58
51
54
58
56
68
72
65
53
51
56
58
57
58
48
60
65
57
59
58
56
57
50
54
59
52
61
64
53
53
53
55
55
56
61
63
58
61
56
53
52
54
59
45
51
59
64
63
65
59
46
51
56
54
57
60
59
53
51
51
46
56
59
55
58
60
60
53
53
58
52
49
59
50
53
59
53
55
53
56
59
58
56
46
43
63
59
58
55
48
51
52
51
49
53
58
50
43
51
53
52
43
51
49
54
62
54
52
55
51
58
61
55
59
62
59
59
52
55
59
50
65
67
55
51
72
70
63
50
52
53
62
69
67
65
55
49
58
60
63
59
69
64
62
67
66
58
59
68
73
57
56
56
51
55
58
49
46
55
55
43
44
53
54
57
61
60
49
46
45
45
49
48
50
62
58
56
40
42
46
35
26
23
11
12
17
31
51
56
83
103
123
147
182
203
234
260
289
325
340
362
368
350
327
286
254
189
122
91
69
61
55
47
47
48
44
55
55
42
48
59
60
59
60
69
57
45
50
54
50
44
49
54
63
66
56
57
61
56
49
54
53
54
62
60
61
63
47
60
55
58
59
59
52
61
63
64
62
67
63
64
62
61
61
62
68
76
84
65
68
83
77
77
72
80
81
85
91
87
79
84
87
90
101
94
100
89
90
98
101
105
113
107
101
111
113
116
120
120
122
124
135
133
134
133
126
129
134
132
135
138
141
141
151
146
151
161
157
152
144
142
139
131
135
130
124
131
130
127
115
114
101
101
97
99
88
93
93
78
80
78
77
75
84
78
66
69
63
64
55
66
65
55
56
72
64
60
62
61
63
58
58
53
61
74
59
53
54
57
58
63
61
59
64
52
46
54
63
59
60
68
70
63
58
49
60
55
54
50
58
62
61
61
59
54
58
69
63
56
62
64
59
58
65
59
55
61
62
62
65
52
53
63
61
58
60
61
60
58
62
62
57
56
63
58
54
58
57
52
58
61
55
58
61
63
54
52
58
58
53
70
71
60
57
45
50
66
69
57
56
64
58
61
67
68
56
43
57
63
71
57
58
64
55
58
65
68
70
63
70
69
68
63
70
66
66
67
64
60
65
70
67
70
70
74
67
64
68
62
51
49
66
78
79
69
70
62
60
69
73
73
64
69
75
63
63
72
66
64
70
74
72
78
79
72
74
71
69
73
75
72
72
83
71
68
72
72
65
72
81
71
68
74
75
78
69
78
72
74
80
83
82
85
76
67
75
75
74
67
69
88
87
79
75
77
76
65
69
79
71
66
74
86
78
79
80
78
76
76
75
70
62
74
79
72
71
68
67
74
68
70
72
70
72
69
61
71
72
61
57
60
65
78
84
73
71
63
59
59
68
72
68
74
76
79
76
66
72
75
69
61
68
81
71
67
66
65
66
66
67
60
65
74
73
75
67
76
76
82
69
68
76
74
66
69
67
60
58
62
60
59
61
65
59
59
58
60
52
58
56
51
59
55
62
63
62
51
56
63
64
56
48
57
55
43
30
26
25
16
20
37
66
88
102
126
147
166
192
229
260
287
323
356
381
386
382
374
342
305
257
186
134
96
79
72
68
55
61
68
62
68
76
65
64
68
76
75
69
81
70
69
73
76
78
72
71
64
79
79
63
66
73
76
68
69
68
64
64
75
85
83
85
84
77
79
81
74
78
79
81
72
92
103
89
90
94
87
93
91
94
96
104
97
100
98
91
90
93
103
111
109
109
107
101
107
104
104
112
110
125
125
126
118
121
127
131
129
125
126
132
149
148
149
143
140
148
152
151
151
146
160
172
166
166
170
165
163
168
169
170
175
171
167
159
169
170
172
158
152
149
157
147
144
136
132
128
125
122
117
114
117
119
111
97
102
93
90
85
83
95
99
98
89
82
78
69
71
80
84
87
84
74
73
78
77
77
76
71
73
86
84
71
68
73
76
74
79
80
82
83
86
78
82
71
64
73
77
75
73
75
69
74
81
75
74
77
79
76
75
77
76
75
71
70
69
66
68
74
76
77
83
86
71
75
76
62
69
83
80
78
89
79
73
75
81
88
89
87
77
78
83
78
86
80
76
84
83
75
81
76
82
76
79
77
73
74
90
82
84
89
82
79
78
78
78
78
73
80
86
82
82
81
73
68
71
77
91
82
76
83
84
82
83
80
78
81
89
75
75
79
79
80
73
79
78
75
75
81
81
82
77
72
86
82
84
85
77
74
76
71
71
74
79
77
80
72
77
77
73
82
77
76
84
80
81
80
82
67
84
91
89
71
76
77
79
77
75
75
75
85
87
83
83
80
71
75
76
72
78
89
89
87
86
83
80
75
73
82
83
80
78
80
81
97
88
82
78
89
84
90
84
77
89
82
78
80
89
81
80
91
88
83
82
80
80
84
88
80
93
84
85
87
91
79
79
83
84
78
87
91
79
78
85
86
83
75
72
82
87
91
84
93
91
78
74
87
87
87
93
88
88
95
95
92
94
102
99
92
91
94
94
94
93
91
93
98
98
94
89
89
92
90
94
89
91
96
94
86
99
101
88
85
84
90
87
88
86
81
83
92
82
81
84
80
78
79
83
85
90
82
82
87
94
84
77
72
69
80
94
82
84
80
70
67
59
61
59
43
41
60
79
98
130
143
170
207
226
258
287
315
348
384
408
422
428
406
386
357
317
231
174
143
114
100
82
85
104
101
88
84
81
87
94
87
99
97
92
94
94
87
89
91
93
90
86
85
83
80
89
96
103
87
85
90
99
96
96
98
97
94
96
95
88
95
94
98
88
106
116
103
97
94
94
95
98
107
97
109
107
106
116
117
104
107
116
106
112
110
119
115
113
116
116
119
114
115
123
125
130
129
128
133
128
134
145
140
132
142
148
149
152
149
152
156
159
158
167
171
163
167
168
166
176
181
185
176
180
182
189
178
167
174
175
173
176
176
171
178
176
172
156
147
144
144
144
139
136
123
128
125
119
123
108
110
113
107
101
98
101
101
98
89
91
94
89
96
94
93
93
94
89
85
84
84
89
94
92
94
91
91
91
84
76
78
80
86
89
92
99
91
91
77
73
82
87
82
86
93
87
79
87
88
88
84
89
78
81
89
93
84
86
83
84
93
90
83
91
89
88
89
100
103
86
80
91
92
85
88
88
92
93
91
95
99
91
88
92
97
98
87
82
86
83
91
91
87
89
98
91
95
88
92
91
97
91
86
92
93
97
97
89
83
90
92
95
93
88
88
88
92
99
95
81
82
85
87
94
92
85
90
90
85
88
99
97
98
92
88
91
88
89
87
91
86
83
88
93
99
87
79
90
94
94
91
87
96
93
97
98
97
98
88
95
103
95
93
98
92
84
88
95
88
80
92
93
93
96
96
96
89
88
85
90
91
91
89
90
87
89
89
86
82
82
85
89
94
82
85
80
82
89
86
97
87
84
92
91
88
91
90
92
82
84
92
85
81
85
86
88
84
80
76
74
91
81
81
89
88
90
88
91
88
78
82
94
88
81
82
79
75
75
85
93
90
85
84
89
92
92
95
86
86
88
94
93
97
93
93
100
107
95
91
99
95
93
98
95
93
84
89
94
92
101
93
93
97
100
99
93
93
84
86
86
92
94
97
91
83
83
76
77
82
82
80
74
76
85
79
79
81
69
82
84
85
86
87
74
75
74
68
73
68
63
54
49
56
41
35
48
59
83
97
112
143
190
221
245
275
306
336
368
401
421
429
422
406
362
319
251
182
141
122
100
83
74
76
84
80
67
69
73
86
88
89
92
87
73
80
83
86
55
62
84
78
79
80
80
83
84
86
76
74
82
77
79
83
73
83
88
89
80
84
83
80
88
90
81
89
91
83
78
86
89
94
92
90
90
87
94
93
91
92
95
90
91
93
94
108
107
108
103
106
110
119
107
109
111
112
115
111
113
120
118
122
129
132
130
127
131
142
139
137
140
138
153
154
148
151
157
155
153
156
149
157
178
171
167
166
164
167
160
163
155
150
170
160
157
159
150
148
146
131
127
128
129
122
119
109
103
100
98
102
98
93
94
84
80
81
81
81
88
87
74
76
76
73
70
73
69
69
69
75
69
57
65
69
64
65
67
61
63
68
70
69
75
69
67
79
67
63
67
58
67
75
69
69
67
64
64
60
63
68
69
72
63
66
66
70
67
60
58
59
71
67
58
55
57
57
64
53
66
63
68
71
65
60
62
66
69
61
55
54
71
68
63
58
66
58
57
55
70
68
58
56
65
63
62
57
56
62
71
66
57
57
58
55
61
49
56
52
63
63
57
57
58
59
63
62
54
47
56
65
58
53
60
56
59
66
52
49
54
53
52
60
59
61
58
56
48
57
55
60
61
47
51
58
56
44
43
55
62
64
59
60
54
53
52
43
45
47
54
62
56
59
58
50
56
52
55
61
52
39
36
53
54
55
53
49
45
46
54
43
50
62
48
48
46
39
52
60
57
48
36
58
55
45
50
51
48
58
54
42
53
55
50
49
52
39
42
47
54
51
45
48
60
55
49
50
38
44
49
43
45
52
50
56
57
52
49
51
55
52
60
60
59
60
54
52
52
52
54
57
63
58
60
57
55
47
43
57
58
47
56
53
41
45
58
42
47
43
45
54
65
57
49
40
44
54
42
48
43
34
47
52
40
41
39
44
37
38
42
42
50
43
42
43
31
26
28
27
26
21
10
3
6
-1
13
20
41
61
82
104
132
156
186
217
245
266
311
355
371
378
369
353
325
288
216
138
93
63
44
36
29
29
25
32
27
29
34
40
39
36
40
49
46
36
37
44
39
37
42
37
42
36
35
49
51
38
38
44
42
43
41
41
44
45
35
43
46
44
48
50
41
34
49
60
51
35
35
44
46
49
59
51
44
53
63
64
71
60
56
57
58
62
59
58
56
63
73
77
69
66
66
69
71
78
80
77
80
80
78
83
82
87
95
95
97
97
103
98
110
116
114
111
112
120
120
131
124
119
120
126
136
127
127
131
128
126
123
122
130
124
115
125
129
117
112
99
99
102
97
82
86
84
83
64
59
72
66
50
51
53
44
44
44
42
31
33
37
39
30
33
32
34
44
37
29
22
29
29
31
30
28
22
27
21
26
29
26
26
35
34
24
19
18
33
26
20
20
32
34
33
20
28
26
6
4
32
38
28
22
29
29
30
29
19
24
27
21
18
20
27
25
18
25
27
19
13
16
19
27
31
30
30
37
19
14
25
27
38
32
17
18
20
23
22
23
29
23
25
30
33
31
21
25
25
19
5
14
29
29
27
29
19
10
8
21
35
20
22
25
25
19
12
27
26
20
25
30
22
26
26
22
14
25
26
28
19
10
17
22
27
20
20
15
16
6
20
24
12
25
33
20
7
18
14
10
16
20
22
33
24
8
7
10
12
19
23
26
27
38
23
14
17
7
15
15
21
11
7
19
10
11
15
7
4
19
7
15
34
25
13
5
3
18
24
23
16
16
18
13
20
31
19
13
13
24
27
18
18
21
20
23
37
21
16
22
24
22
12
21
26
25
18
23
21
23
23
25
9
11
8
15
15
15
12
18
17
-4
4
3
15
9
18
3
1
20
20
16
23
19
16
12
7
5
-4
13
10
10
-4
-8
-4
-5
-14
-19
-20
-20
5
27
48
55
70
109
145
169
182
222
257
290
317
334
342
330
304
262
213
156
95
49
23
18
10
2
2
-6
7
7
15
13
22
18
18
22
13
12
9
25
26
33
24
10
14
15
18
34
16
29
17
17
24
30
38
31
18
15
15
24
21
15
25
27
32
34
31
32
25
26
27
30
27
39
42
28
20
18
35
39
30
25
43
29
42
44
46
36
27
39
53
56
52
49
57
58
56
46
60
57
52
58
72
79
77
85
84
76
77
81
83
89
88
96
77
85
102
104
107
101
95
97
110
108
99
109
127
119
118
110
113
115
119
108
105
103
97
97
103
95
81
87
77
80
78
67
56
50
50
48
51
42
32
32
30
40
42
28
32
36
22
9
22
22
17
17
23
20
25
22
23
20
19
27
28
32
9
15
18
24
19
13
10
18
16
28
13
16
19
13
10
25
25
16
18
21
13
14
15
18
17
12
21
21
10
10
20
24
22
15
-1
9
15
20
21
16
19
11
5
19
17
29
30
20
13
18
13
10
21
16
15
18
20
24
23
23
7
8
20
33
25
31
7
9
22
22
14
20
12
11
18
36
29
17
22
19
26
18
19
19
22
25
19
19
12
14
15
11
16
18
13
11
16
24
23
16
2
5
15
20
22
24
23
28
21
23
12
8
15
14
20
18
3
18
21
17
15
12
9
13
32
26
9
9
18
21
14
17
18
16
16
21
21
22
15
16
18
13
14
17
24
26
25
24
18
18
19
24
18
14
34
26
27
24
33
24
16
22
20
21
31
22
20
29
34
27
22
24
22
14
17
18
21
17
11
7
14
14
16
19
18
15
10
15
14
17
22
17
14
9
12
15
3
1
-3
10
24
21
11
2
4
-5
-16
-27
-22
-18
-12
10
20
36
67
85
114
142
173
200
217
253
287
312
330
344
323
300
274
213
148
95
58
36
19
12
11
14
8
7
4
7
12
15
18
20
27
21
18
20
23
7
3
11
11
16
11
14
20
26
31
28
16
19
22
21
20
17
7
15
22
17
10
17
25
29
22
20
22
23
24
22
20
18
21
27
40
30
23
27
35
38
38
29
36
23
16
38
46
46
54
54
48
47
50
57
46
48
45
55
61
55
55
65
64
68
72
77
70
72
71
72
78
92
89
90
87
89
101
98
95
98
101
108
106
102
102
110
104
105
112
104
104
117
106
96
84
93
88
90
82
72
68
75
73
65
56
50
48
45
40
44
42
41
31
29
36
27
30
26
13
15
27
29
22
24
21
19
13
10
21
13
4
17
25
31
17
12
12
15
19
19
19
14
10
9
17
13
13
23
17
14
20
21
13
9
18
17
13
15
13
13
16
27
17
5
11
9
12
16
19
12
7
21
25
17
13
16
21
27
16
17
16
20
11
12
7
12
16
12
15
15
21
21
13
8
17
18
15
14
16
15
19
17
13
25
17
9
15
20
10
12
22
23
13
8
25
15
12
15
24
19
17
18
14
18
18
17
15
22
14
14
19
21
14
22
12
3
18
14
5
16
22
18
16
6
16
12
9
12
18
16
23
25
10
12
10
9
8
13
17
22
27
9
13
9
14
13
10
21
16
21
30
29
9
10
8
11
9
16
17
11
16
14
21
14
19
22
22
23
23
25
25
19
27
21
25
22
23
20
23
30
23
12
16
12
20
21
20
22
23
28
24
23
22
18
14
8
14
20
12
10
11
14
10
10
12
11
8
6
6
9
13
19
16
24
11
3
2
1
6
7
6
15
2
-4
-6
-13
-13
-10
-27
-31
-20
-17
9
30
48
58
74
105
139
177
206
233
267
298
319
335
352
336
309
267
230
152
92
49
12
12
22
10
10
12
15
10
12
12
11
20
23
22
15
15
17
10
11
14
14
12
11
8
12
29
26
12
15
16
14
19
22
16
18
12
17
27
24
20
20
15
20
27
24
27
26
22
17
19
15
16
30
30
25
38
33
35
32
23
29
38
34
39
42
38
30
39
44
41
43
42
53
48
45
57
56
55
64
65
57
62
66
62
70
73
71
74
79
80
79
86
85
82
87
97
95
101
102
103
98
111
100
100
107
106
95
109
106
102
99
87
93
94
87
92
87
82
74
62
71
70
62
53
50
46
37
38
35
30
31
35
26
26
22
20
24
12
12
12
16
14
14
7
16
20
15
7
11
17
20
12
5
1
11
6
2
13
20
18
11
12
7
9
5
6
12
8
4
5
8
19
11
8
9
9
13
15
12
10
12
8
5
13
9
9
8
11
11
13
8
9
3
6
10
15
2
4
15
8
13
7
12
18
20
8
9
6
13
13
14
10
13
29
26
1
12
16
8
9
15
18
11
23
10
2
11
10
2
7
10
7
8
11
20
19
15
18
11
6
8
12
13
16
15
6
11
5
13
18
15
16
9
16
14
3
16
18
19
18
15
5
7
10
21
21
15
5
16
20
19
19
18
18
4
0
21
21
12
6
20
11
13
17
25
21
3
6
16
24
24
18
-3
16
27
22
23
19
18
16
24
20
19
25
15
13
14
8
14
16
8
12
15
10
21
19
18
17
18
28
23
13
2
11
10
13
20
16
11
18
23
16
17
23
23
23
18
15
17
25
15
18
21
22
20
15
19
12
20
15
20
24
27
28
24
34
25
18
15
15
10
16
13
12
16
25
22
23
17
14
18
14
15
27
19
14
19
25
19
18
9
18
28
29
24
15
14
16
27
23
22
12
12
23
23
19
20
12
17
27
25
17
21
17
17
14
12
14
27
18
19
24
21
21
22
20
13
10
15
13
22
23
27
19
20
17
21
20
16
26
27
20
28
21
18
17
27
26
20
21
27
31
30
27
27
25
31
26
25
25
26
22
28
33
31
27
26
22
22
26
23
25
17
16
32
37
33
30
29
31
28
28
36
35
27
24
22
23
25
17
14
20
27
32
21
20
18
15
8
23
24
23
17
14
28
16
15
11
19
20
12
11
17
7
-1
-5
-13
-18
-24
-4
19
31
57
70
89
115
150
191
211
238
270
312
349
362
369
355
339
306
268
215
141
85
63
41
25
27
24
28
33
30
32
31
24
27
30
33
30
26
34
29
24
38
34
29
32
34
30
30
44
42
30
38
33
25
24
30
33
36
32
38
30
38
30
39
44
30
38
41
41
46
47
37
40
37
46
49
50
52
47
44
44
50
47
46
49
53
54
60
67
52
50
62
66
61
61
63
58
70
69
78
76
72
78
78
80
88
86
85
86
86
83
93
97
101
104
116
113
112
116
116
103
114
124
122
128
124
119
123
116
120
129
129
123
126
123
126
122
117
110
109
113
108
106
94
87
83
79
86
79
70
66
72
66
58
57
63
57
53
48
