72
39
27
-12
18
21
21
41
49
62
70
40
12
-9
20
16
21
42
43
72
71
49
21
-13
8
14
11
35
53
79
80
40
11
-18
14
8
21
49
40
82
83
47
9
-19
9
10
23
38
37
71
73
45
15
-21
13
12
23
36
44
74
59
45
0
-12
20
13
21
30
40
72
61
37
-7
-13
6
9
27
43
41
63
52
44
-12
-15
20
10
12
40
39
75
57
41
-14
-7
8
12
22
58
60
69
44
20
-34
1
17
12
22
35
54
62
34
28
-12
-7
-1
7
23
31
63
75
41
15
-22
-6
6
9
25
31
58
70
43
6
-22
-5
5
7
23
30
53
63
42
9
-27
-3
3
18
35
35
71
64
31
-3
-32
2
11
13
41
47
79
84
38
12
-9
19
15
26
43
56
92
73
62
17
-14
16
15
29
41
48
79
79
41
18
-15
23
18
25
40
43
67
61
46
0
-35
-5
-7
3
23
35
59
45
29
-12
-30
0
-4
8
22
22
64
46
20
-16
-20
-8
-6
11
27
21
43
29
12
-38
-43
-22
-31
-14
33
51
93
99
102
91
127
181
197
215
228
237
247
207
160
101
97
86
59
38
42
46
59
31
16
-46
-29
-28
-20
-14
16
22
46
33
24
-27
-5
8
17
37
39
63
69
44
26
-17
0
11
18
36
52
77
76
46
14
-15
10
20
24
37
50
77
73
56
22
-2
20
28
33
51
44
67
78
58
22
-16
30
33
48
44
60
82
89
57
28
-1
18
28
43
66
69
98
85
68
36
16
43
33
32
70
82
119
104
72
36
16
47
43
61
79
85
128
115
87
56
33
68
60
72
95
102
134
121
106
76
45
81
73
87
100
114
142
124
113
65
59
80
75
87
108
104
133
114
102
54
49
57
63
64
84
97
113
90
75
22
22
40
38
53
65
78
96
67
61
9
22
33
25
35
53
84
93
57
45
-4
16
29
27
44
59
80
94
55
38
-9
24
37
33
38
60
75
88
61
33
-4
19
28
37
50
56
77
81
64
36
6
29
23
38
54
60
94
79
63
33
-3
23
19
45
56
51
95
90
75
35
-4
20
23
50
65
68
89
84
69
29
-6
20
39
48
61
58
84
88
69
21
3
25
31
46
58
61
105
86
46
21
14
22
34
38
54
68
101
81
67
21
3
29
30
44
61
60
89
78
63
18
9
33
36
46
58
73
86
67
57
16
9
31
35
48
55
67
97
82
58
18
17
33
38
43
61
71
98
67
44
14
22
43
43
51
69
84
98
84
72
20
13
38
52
63
67
94
111
79
61
19
39
57
57
64
80
111
99
86
75
31
45
57
63
84
96
117
125
86
66
25
55
54
58
86
88
113
121
84
41
14
36
39
34
61
66
89
88
56
26
0
28
24
32
52
59
86
80
51
8
-7
19
19
38
49
58
87
76
56
22
-15
9
5
20
35
30
62
58
34
-15
-27
8
22
59
83
117
176
210
207
194
189
226
216
222
230
210
228
183
148
92
48
38
23
45
51
40
70
57
28
-14
-20
2
10
22
40
49
79
60
46
-2
8
29
37
23
44
61
86
73
52
-6
10
26
15
17
49
65
86
63
54
-1
15
13
15
41
55
71
88
68
48
-3
18
27
37
41
60
83
84
58
46
3
10
36
45
60
63
91
95
71
40
8
30
39
43
68
73
95
98
73
45
15
44
53
65
71
79
108
105
94
48
29
58
69
62
83
99
128
121
97
67
40
72
75
81
93
109
140
130
95
73
58
97
79
89
103
121
152
133
117
83
56
83
70
90
106
109
136
133
98
55
31
62
56
72
87
80
109
94
69
44
24
44
52
59
71
73
98
80
60
23
10
32
38
52
64
65
91
69
55
18
21
32
38
51
75
61
89
72
68
11
16
27
35
46
56
68
95
72
58
9
23
29
38
48
61
77
93
72
54
9
29
38
44
48
66
83
100
80
56
15
26
41
41
55
59
93
99
83
54
8
24
32
44
65
67
104
98
67
41
6
39
37
40
64
85
85
92
73
41
-1
34
48
42
57
74
97
100
66
32
-4
28
37
42
58
63
102
96
68
29
-13
30
44
50
60
65
86
80
59
30
-5
42
43
31
52
66
93
89
57
31
-5
25
25
42
49
60
96
86
52
20
-2
25
29
36
53
52
95
79
56
14
11
13
27
44
56
58
91
81
51
10
12
32
29
31
57
59
90
71
54
10
13
35
29
35
58
69
93
65
52
3
13
22
33
44
64
71
98
71
49
4
25
31
25
47
62
94
97
67
58
5
24
27
48
52
64
83
93
80
51
14
39
52
52
77
85
107
102
95
59
25
48
54
56
83
78
99
103
78
49
22
40
48
55
61
66
98
94
65
29
0
34
28
34
57
61
87
86
60
33
-17
20
23
35
43
55
78
74
61
18
-17
9
27
32
39
35
66
62
30
-7
-29
-1
-6
14
26
55
98
119
113
106
111
182
200
231
264
245
270
255
214
150
122
123
104
80
67
59
90
65
44
-8
-23
-7
-6
-8
32
40
57
45
40
-9
-7
16
18
26
48
48
73
55
47
-7
-2
17
13
20
32
52
82
60
38
-6
5
9
14
27
35
56
72
57
37
-3
2
0
22
37
47
60
72
52
25
-20
20
13
14
51
62
60
73
53
33
-12
11
20
30
44
53
75
76
55
12
-2
17
18
37
53
54
86
90
63
26
-7
32
30
33
68
73
102
94
69
35
12
43
40
55
77
81
116
112
85
51
18
52
58
58
83
100
122
111
91
63
29
58
50
70
92
96
115
112
80
50
21
51
41
54
75
68
106
90
73
27
8
41
24
30
59
64
94
62
48
7
-6
17
22
39
43
46
74
62
48
-10
-3
7
9
30
40
55
76
55
40
-14
-1
17
20
22
34
58
77
53
39
-10
2
10
20
23
42
55
70
57
40
-6
6
11
5
29
45
57
64
34
23
-14
8
28
17
27
41
63
76
44
30
-11
12
21
15
33
44
67
72
42
24
-18
12
13
23
39
40
66
61
44
19
-13
10
4
16
39
39
73
68
49
2
-19
6
13
11
37
41
77
70
43
8
-20
1
2
20
30
39
71
64
43
3
-17
10
-7
6
30
34
64
54
39
2
-24
0
7
14
37
32
65
64
43
-4
-32
-3
-2
10
20
46
73
63
32
1
-7
17
-11
11
34
38
71
52
42
-9
-24
10
13
34
40
41
77
55
40
-6
-2
8
17
28
44
57
84
55
44
3
10
20
26
38
56
75
94
66
51
7
25
31
29
39
61
76
88
70
53
5
15
30
35
35
67
73
80
47
27
-24
-6
14
19
37
43
68
62
40
8
-19
3
11
7
38
29
55
58
47
10
-25
1
5
9
25
39
64
62
29
-14
-36
-17
-8
-11
3
10
40
41
15
-3
-19
38
63
96
149
196
246
262
261
228
179
202
195
180
178
147
149
112
62
17
-26
0
-1
3
13
15
42
38
26
-6
-15
12
10
23
21
33
60
48
37
-6
-24
6
-8
10
35
34
62
51
26
1
-25
-5
6
12
16
29
60
44
26
-29
-21
-4
-12
5
16
28
56
32
23
-29
-31
-5
-6
-15
23
37
51
33
8
-35
-27
-14
-12
4
15
33
44
28
1
-52
-24
-3
-10
-9
16
24
42
24
1
-36
-19
-29
-3
11
17
38
52
28
-1
-41
-9
-5
1
26
38
45
50
27
14
-18
-1
9
19
32
49
63
63
43
3
-7
13
11
15
33
46
81
64
34
2
-40
4
7
9
21
26
57
45
18
-25
-55
-25
-21
-20
-6
9
35
16
-4
-40
-67
-42
-46
-43
-22
-7
21
5
-22
-53
-79
-47
-55
-38
-25
-14
24
5
-13
-48
-80
-49
-53
-46
-31
-25
11
-6
-21
-64
-71
-47
-45
-38
-27
-16
10
-13
-29
-71
-67
-47
-55
-44
-23
-17
8
-19
-32
-66
-71
-59
-48
-44
-34
-20
0
-24
-31
-77
-62
-44
-66
-45
-33
-20
-2
-21
-40
-91
-67
-60
-67
-58
-35
-15
6
-24
-39
-86
-72
-66
-60
-52
-31
-17
-8
-32
-44
-94
-67
-71
-68
-56
-26
-18
-8
-41
-58
-89
-78
-64
-65
-49
-37
-15
-10
-38
-62
-97
-75
-74
-69
-49
-44
-14
-16
-34
-74
-102
-76
-68
-65
-56
-39
-13
-16
-42
-79
-105
-80
-67
-70
-49
-40
-13
-14
-51
-76
-98
-78
-74
-68
-53
-47
-13
-20
-46
-90
-101
-81
-74
-69
-51
-49
-9
-30
-40
-85
-106
-80
-73
-71
-53
-34
-1
-26
-61
-91
-107
-74
-82
-69
-42
-41
-10
-35
-46
-82
-91
-74
-63
-52
-37
-32
8
-9
-31
-77
-75
-54
-51
-46
-27
-16
7
-15
-32
-73
-79
-63
-49
-51
-37
-13
5
-17
-44
-87
-93
-69
-75
-64
-46
-32
-13
-38
-57
-105
-87
-86
-79
-67
-50
-30
-26
-42
-63
-113
-98
-82
-84
-62
-56
-32
-28
-53
-77
-123
-102
-100
-89
-76
-72
-55
-58
-78
-97
-131
-91
-71
-40
15
44
124
137
136
131
112
123
135
124
121
102
105
78
33
-46
-87
-77
-81
-85
-66
-60
-44
-58
-84
-117
-138
-109
-99
-89
-60
-61
-34
-41
-56
-94
-123
-93
-93
-76
-61
-56
-42
-32
-50
-94
-126
-91
-80
-79
-70
-57
-32
-39
-58
-97
-110
-89
-82
-71
-64
-64
-33
-37
-60
-103
-103
-80
-101
-67
-48
-49
-13
-43
-62
-101
-95
-80
-70
-75
-65
-49
-15
-41
-48
-106
-84
-67
-75
-67
-51
-34
-14
-37
-47
-96
-84
-69
-66
-58
-34
-27
-6
-28
-36
-79
-69
-60
-54
-51
-29
-11
8
-17
-31
-74
-59
-57
-34
-21
-13
8
9
-11
-24
-68
-46
-28
-38
-22
-11
23
28
-2
-31
-69
-43
-45
-39
-24
-22
15
10
-23
-56
-86
-66
-59
-57
-39
-40
-16
-21
-46
-85
-111
-81
-78
-72
-60
-54
-29
-31
-68
-94
-126
-95
-89
-81
-66
-60
-27
-39
-69
-105
-119
-83
-92
-86
-70
-63
-32
-39
-66
-92
-115
-90
-95
-85
-65
-58
-20
-35
-72
-99
-119
-98
-92
-80
-65
-65
-28
-37
-58
-99
-108
-88
-96
-81
-62
-58
-37
-45
-61
-103
-111
-97
-94
-82
-59
-53
-29
-50
-58
-108
-117
-88
-82
-72
-51
-60
-30
-46
-60
-108
-101
-94
-91
-71
-53
-52
-28
-49
-71
-111
-100
-92
-87
-75
-79
-45
-37
-56
-69
-133
-96
-79
-97
-79
-55
-41
-32
-62
-79
-126
-97
-90
-80
-71
-62
-34
-38
-62
-92
-127
-103
-95
-88
-72
-56
-35
-38
-60
-85
-128
-106
-91
-88
-76
-60
-38
-31
-63
-94
-126
-98
-92
-87
-62
-60
-30
-38
-67
-95
-121
-85
-90
-92
-76
-62
-31
-43
-63
-92
-130
-93
-98
-81
-70
-64
-32
-35
-66
-98
-107
-86
-106
-91
-72
-54
-31
-53
-63
-102
-107
-89
-103
-78
-70
-69
-24
-31
-60
-102
-119
-93
-96
-85
-65
-54
-21
-40
-64
-99
-105
-86
-79
-73
-50
-51
-11
-37
-48
-90
-86
-67
-67
-49
-35
-28
1
-17
-46
-73
-86
-70
-75
-57
-48
-24
0
-27
-42
-97
-83
-66
-65
-63
-50
-32
-13
-49
-58
-111
-109
-86
-81
-71
-56
-45
-27
-49
-65
-110
-97
-91
-89
-71
-56
-30
-30
-50
-78
-123
-101
-85
-81
-65
-70
-42
-34
-75
-107
-151
-120
-121
-104
-88
-72
-22
0
-7
-13
-9
63
89
-49
-30
-35
-58
-107
-135
-117
-121
-112
-89
-86
-53
-56
-80
-115
-135
-97
-102
-95
-69
-62
-37
-31
-74
-112
-127
-87
-112
-89
-74
-69
-35
-42
-61
-106
-120
-98
-99
-81
-69
-62
-38
-44
-65
-108
-113
-93
-94
-87
-65
-63
-23
-35
-53
-99
-96
-92
-88
-82
-56
-51
-26
-45
-57
-107
-104
-87
-84
-67
-63
-38
-14
-39
-52
-94
-95
-89
-68
-61
-46
-19
-10
-35
-44
-83
-74
-66
-50
-40
-31
-16
7
-6
-21
-83
-63
-54
-39
-25
-15
4
26
-2
-16
-73
-37
-24
-28
-13
-5
29
45
16
-17
-56
-28
-27
-23
-1
5
40
29
-2
-35
-64
-42
-28
-28
-15
-11
9
12
-20
-54
-84
-62
-51
-52
-29
-26
-6
-8
-39
-70
-101
-69
-68
-56
-50
-28
-2
-5
-31
-73
-100
-70
-69
-66
-49
-41
-4
-12
-30
-76
-94
-75
-72
-60
-38
-29
-5
-13
-43
-77
-95
-54
-67
-63
-49
-44
-6
-17
-38
-77
-83
-69
-65
-50
-34
-27
-3
-24
-31
-80
-80
-58
-67
-34
-37
-23
8
-17
-36
-75
-83
-53
-53
-36
-41
-26
9
-23
-34
-69
-69
-60
-60
-50
-26
-17
9
-15
-32
-80
-79
-69
-60
-41
-16
-12
2
-20
-35
-85
-73
-58
-54
-37
-22
-5
0
-20
-36
-77
-58
-57
-51
-40
-17
-1
-3
-21
-37
-83
-56
-58
-54
-32
-22
10
2
-17
-54
-85
-59
-56
-64
-30
-24
-3
-6
-18
-52
-89
-56
-56
-48
-23
-29
3
-1
-20
-49
-71
-53
-43
-34
-21
-10
24
20
-15
-46
-70
-45
-45
-37
-7
-1
25
16
-7
-37
-66
-32
-26
-22
-1
23
41
27
5
-27
-54
-14
-24
-7
4
8
38
30
9
-32
-53
-18
-22
-14
-1
-11
42
23
-10
-48
-55
-49
-42
-32
-11
-8
23
5
-8
-60
-58
-38
-38
-51
-22
-5
32
5
-9
-64
-64
-40
-34
-21
-18
-16
16
-3
-17
-76
-83
-65
-64
-57
-27
-10
3
0
4
-19
23
63
95
138
174
212
224
190
181
99
112
99
79
64
55
46
40
0
-13
-72
-63
-53
-49
-30
-21
4
-9
-21
-36
-80
-60
-48
-30
-14
-14
18
26
-13
-26
-60
-38
-38
-28
-1
7
23
28
-2
-33
-62
-23
-16
-28
2
1
48
36
4
-22
-49
-27
-13
-2
13
4
43
34
9
-25
-42
-17
-18
-12
26
27
36
46
22
-22
-37
-5
-9
-1
16
16
58
53
29
-8
-32
-11
6
15
25
21
62
46
23
-12
-20
6
2
15
33
33
82
71
48
-3
6
25
25
33
53
59
92
79
64
17
20
50
46
44
61
87
108
88
66
28
37
32
39
50
68
78
96
78
55
3
14
35
19
32
54
62
71
63
39
-26
-10
4
5
14
24
46
64
38
16
-37
-4
-11
-9
9
25
50
48
21
0
-39
-16
-20
-9
7
18
44
56
24
2
-49
-25
-4
-7
8
12
57
54
22
-13
-46
-4
-11
-2
21
31
52
51
21
-5
-31
-12
-11
-7
16
23
51
43
22
-14
-36
-6
-4
3
16
25
60
49
24
-8
-49
-8
-8
14
17
34
70
46
21
-10
-25
4
-11
2
24
39
62
49
14
-12
-33
-2
-2
19
25
27
46
44
25
-16
-25
0
-7
7
24
19
62
37
31
-26
-18
-2
-1
9
29
32
61
52
29
-28
-23
-6
-3
7
23
39
54
38
24
-26
-7
6
-6
7
25
47
67
46
25
-24
-5
7
0
3
28
46
59
43
27
-27
-3
1
-1
13
34
50
61
40
26
-30
-3
11
17
12
31
56
64
41
14
-30
3
4
7
33
45
71
65
41
10
-25
6
9
21
46
51
80
78
58
19
-18
18
21
21
39
42
77
79
44
10
-13
5
8
22
29
34
55
60
31
-2
-34
-2
-11
-7
18
21
52
55
17
-32
-41
-1
-5
5
18
22
56
41
21
-23
-37
-7
-7
1
18
15
48
31
3
-45
-59
-27
-36
-15
4
11
52
65
77
67
83
134
164
190
218
219
246
218
175
117
98
94
70
54
32
37
68
43
7
-52
-49
-26
-28
-19
-7
19
34
15
11
-40
-33
-20
-6
3
10
36
56
25
24
-37
-17
-3
0
4
24
37
50
25
7
-38
-13
6
11
15
43
58
38
39
23
-26
-12
-6
8
27
27
59
63
34
11
-28
-5
5
13
32
38
69
65
44
18
-28
11
14
13
33
52
72
70
35
18
-13
17
29
26
46
55
87
81
53
20
-9
18
16
33
44
56
92
77
59
16
-11
28
24
44
39
63
81
89
71
27
1
29
34
51
67
76
98
90
67
29
18
45
37
47
59
65
102
77
56
22
7
27
30
32
47
51
80
64
35
-8
-3
-11
3
12
27
31
73
43
20
-18
-11
-1
-7
-5
17
35
56
38
14
-27
-18
-6
-3
1
25
35
56
28
23
-41
-11
-2
12
14
24
50
63
36
25
-20
-6
0
3
4
31
48
68
39
12
-25
-8
-5
-3
29
33
64
67
34
6
-33
-9
6
-1
11
33
64
58
18
-10
-36
-4
11
3
22
17
51
59
26
-10
-37
-5
-4
11
32
30
54
53
32
-13
-41
-6
-5
-2
21
27
63
45
26
-15
-41
-6
0
3
20
27
53
40
21
-14
-42
-11
-15
-8
17
21
50
44
11
-28
-44
-12
-16
-11
18
23
57
35
12
-36
-30
-6
-10
-5
15
21
47
37
24
-24
-24
-14
-15
-9
12
11
51
37
16
-34
-33
-14
-15
-3
10
18
43
27
16
-37
-28
-19
-9
0
19
24
49
21
15
-40
-25
-17
1
17
24
39
52
29
21
-32
-16
-4
6
8
38
56
60
43
34
-19
-8
9
30
27
25
49
63
30
12
-38
-10
5
2
26
18
47
50
29
-13
-43
-16
-19
-23
6
16
35
43
8
-34
-58
-24
-33
-18
10
4
33
23
4
-26
-61
-44
-35
-23
0
3
33
28
-9
-41
-73
-44
-43
-50
-26
-22
6
4
-17
-27
-34
20
46
94
146
177
219
227
187
155
128
139
109
104
98
79
75
25
-7
-56
-68
-48
-48
-49
-35
-36
2
-10
-32
-71
-81
-58
-49
-36
-19
-21
17
-2
-41
-59
-60
-47
-43
-44
-19
-11
23
-1
-21
-67
-69
-60
-54
-33
-7
-3
19
-3
-24
-67
-57
-45
-45
-32
-12
-10
14
-8
-17
-68
-53
-37
-40
-30
-13
0
24
-5
-19
-73
-54
-36
-35
-25
0
14
20
-15
-16
-64
-43
-32
-23
-12
-6
24
38
-2
-25
-61
-34
-17
-13
-2
3
37
35
22
-5
-31
-22
-9
-7
13
27
46
45
29
1
-36
-15
18
12
37
36
65
65
43
7
-23
8
17
9
25
39
72
56
27
-2
-21
-7
-9
9
21
14
48
39
15
-31
-55
-21
-24
-5
0
-12
41
26
6
-50
-70
-31
-37
-19
-5
-12
13
13
-1
-47
-54
-33
-39
-22
-6
-17
19
1
-5
-51
-60
-36
-40
-31
-6
-12
18
-1
-8
-56
-54
-40
-38
-27
-2
-1
19
6
-12
-58
-53
-41
-29
-28
-6
7
26
0
-19
-63
-42
-38
-33
-36
-18
4
22
0
-12
-65
-51
-37
-35
-31
-20
2
21
-7
-19
-72
-47
-45
-44
-20
-9
8
21
-10
-27
-68
-52
-44
-44
-36
-5
14
20
-15
-34
-79
-47
-43
-52
-27
-14
8
18
-6
-45
-82
-59
-45
-26
-21
-12
19
6
-21
-57
-79
-52
-49
-35
-14
-21
8
7
-16
-51
-75
-42
-39
-37
-24
-12
24
5
-13
-51
-79
-48
-55
-33
-15
-12
12
17
-10
-49
-89
-48
-48
-31
-22
-17
19
12
-16
-61
-69
-49
-51
-41
-28
-23
15
0
-24
-66
-60
-60
-63
-47
-27
-21
12
-1
-19
-70
-63
-55
-51
-43
-23
-15
7
-11
-25
-73
-65
-50
-43
-42
-20
-5
10
-8
-15
-72
-65
-38
-41
-30
-13
8
24
-12
-27
-65
-47
-30
-25
-19
8
28
29
18
13
-56
-42
-38
-26
-17
10
24
23
-6
-13
-61
-42
-45
-22
-11
-19
7
13
-15
-30
-85
-63
-58
-49
-21
-31
-2
-4
-31
-45
-84
-55
-46
-58
-30
-27
-6
-7
-37
-63
-93
-61
-62
-57
-39
-35
-24
-27
-50
-84
-121
-97
-93
-85
-58
-46
12
18
25
21
32
86
121
149
178
183
220
198
158
102
45
54
28
11
-19
-22
5
-10
-32
-78
-103
-74
-81
-85
-62
-58
-21
-29
-44
-91
-103
-84
-75
-62
-43
-33
-18
-34
-45
-83
-89
-74
-65
-53
-51
-43
-6
-26
-47
-88
-96
-73
-61
-56
-41
-29
-4
-35
-44
-93
-83
-61
-67
-60
-41
-29
-9
-28
-41
-98
-80
-74
-65
-59
-36
-28
-9
-30
-38
-86
-87
-69
-57
-42
-34
-13
-6
-27
-40
-96
-82
-58
-51
-36
-32
-1
1
-21
-33
-77
-63
-48
-37
-28
-10
13
2
-7
-22
-65
-47
-30
-35
-9
-9
21
31
14
-17
-53
-26
-15
-17
8
10
34
33
21
-19
-52
-18
-16
-10
8
13
39
33
10
-25
-56
-26
-37
-31
-15
-8
26
12
-14
-62
-84
-56
-57
-54
-33
-22
5
-15
-36
-76
-88
-65
-70
-56
-37
-27
-4
-11
-31
-76
-105
-70
-66
-63
-44
-34
-7
-17
-43
-78
-91
-73
-63
-48
-39
-36
-9
-17
-39
-93
-85
-74
-79
-46
-41
-28
-8
-26
-44
-83
-85
-74
-73
-59
-39
-30
-17
-30
-49
-98
-91
-82
-71
-53
-38
-28
-6
-30
-44
-88
-77
-62
-60
-58
-38
-15
-7
-26
-42
-87
-68
-54
-56
-55
-35
-14
-5
-28
-35
-89
-72
-51
-58
-39
-15
0
4
-24
-40
-87
-62
-64
-54
-38
-26
3
-3
-19
-52
-84
-55
-50
-47
-29
-15
-6
-8
-31
-56
-89
-59
-55
-44
-20
-22
3
2
-28
-59
-86
-58
-50
-46
-23
-22
2
-7
-23
-60
-88
-59
-54
-44
-33
-20
9
3
-23
-50
-81
-47
-66
-54
-23
-15
11
-5
-29
-73
-94
-59
-67
-50
-33
-18
-10
-16
-36
-72
-89
-60
-65
-46
-33
-28
-1
-16
-30
-74
-72
-57
-45
-43
-32
-17
5
-11
-16
-70
-67
-48
-39
-33
-16
-4
36
7
-13
-58
-46
-34
-26
-18
-5
10
34
6
-13
-59
-46
-34
-35
-31
-12
2
17
2
-16
-69
-53
-44
-42
-38
-18
-1
15
-22
-34
-80
-51
-47
-36
-40
-28
0
13
-15
-37
-83
-64
-70
-42
-25
-25
8
8
-22
-60
-96
-71
-74
-70
-49
-54
-28
-19
-42
-68
-72
-14
21
45
93
131
183
197
202
170
136
156
138
121
122
86
87
53
-1
-51
-84
-53
-59
-58
-46
-40
-15
-18
-42
-75
-109
-75
-68
-52
-35
-28
-1
-4
-20
-63
-88
-57
-65
-45
-24
-28
2
-11
-32
-71
-91
-57
-63
-55
-39
-25
11
-9
-37
-74
-75
-58
-58
-53
-30
-22
13
-13
-29
-68
-77
-52
-47
-45
-22
-25
2
-7
-22
-65
-66
-51
-44
-43
-18
-10
18
-13
-26
-77
-46
-46
-49
-39
-18
-11
12
-4
-5
-67
-56
-40
-35
-36
-13
15
28
10
-10
-55
-37
-23
-19
-13
10
40
26
12
-2
-58
-33
-10
-16
8
16
39
44
20
1
-45
-20
-7
-6
11
17
47
47
20
-8
-67
-30
-22
-19
-5
4
32
23
-1
-32
-66
-42
-45
-42
-24
-29
10
-5
-32
-59
-89
-58
-56
-52
-23
-26
-3
-18
-36
-66
-89
-54
-62
-58
-45
-36
7
-7
-32
-64
-94
-69
-65
-50
-47
-46
-2
-10
-32
-59
-87
-70
-73
-63
-57
-24
3
-23
-39
-80
-91
-61
-66
-54
-36
-39
-11
-30
-42
-78
-92
-67
-63
-70
-44
-34
-7
-35
-53
-94
-81
-70
-80
-68
-41
-38
-21
-26
-52
-99
-82
-71
-72
-60
-50
-32
-23
-47
-45
-99
-91
-77
-71
-65
-44
-23
-15
-46
-58
-105
-84
-79
-78
-59
-39
-35
-16
-47
-56
-107
-92
-74
-72
-64
-52
-31
-19
-48
-68
-111
-85
-80
-67
-53
-46
-24
-17
-51
-75
-112
-90
-81
-79
-52
-56
-29
-26
-55
-87
-116
-77
-73
-80
-56
-45
-35
-39
-55
-84
-125
-86
-85
-85
-55
-54
-30
-28
-65
-92
-123
-88
-98
-81
-58
-75
-30
-45
-61
-102
-115
-101
-93
-90
-69
-68
-30
-40
-53
-109
-130
-98
-97
-88
-66
-60
-28
-37
-70
-107
-121
-90
-97
-86
-65
-55
-23
-37
-60
-97
-109
-81
-80
-62
-53
-47
-19
-29
-47
-88
-90
-69
-70
-60
-48
-43
-20
-32
-47
-98
-100
-88
-84
-76
-59
-51
-23
-53
-72
-115
-106
-111
-113
-89
-68
-61
-56
-83
-85
-136
-121
-95
-103
-98
-81
-61
-47
-82
-95
-140
-123
-117
-104
-93
-82
-68
-56
-93
-113
-158
-130
-127
-132
-114
-105
-84
-74
-74
-81
-89
-31
11
48
99
120
172
134
120
87
40
17
14
-10
-18
-37
-39
-61
-96
-122
-160
-144
-138
-140
-120
-121
-94
-100
-114
-141
-168
-134
-124
-118
-100
-95
-68
-90
-109
-132
-166
-134
-133
-121
-109
-102
-67
-79
-97
-139
-174
-139
-135
-133
-108
-97
-67
-87
-111
-149
-168
-140
-134
-134
-115
-109
-67
-89
-108
-148
-165
-144
-136
-122
-111
-103
-69
-83
-94
-151
-156
-134
-132
-116
-103
-99
-70
-76
-96
-150
-146
-128
-119
-115
-95
-70
-59
-68
-90
-142
-121
-109
-113
-95
-71
-55
-37
-71
-78
-116
-95
-96
-98
-82
-61
-42
-12
-39
-56
-105
-85
-73
-66
-53
-40
-23
-12
-30
-45
-94
-69
-57
-59
-44
-42
-16
-16
-38
-57
-106
-71
-71
-68
-53
-48
-34
-29
-54
-85
-119
-104
-98
-99
-68
-73
-48
-46
-77
-110
-142
-111
-103
-104
-87
-97
-27
-54
-73
-110
-140
-100
-113
-117
-78
-73
-51
-60
-79
-109
-138
-111
-111
-95
-85
-81
-46
-49
-76
-118
-137
-94
-110
-92
-80
-74
-43
-53
-78
-118
-134
-110
-107
-88
-73
-74
-38
-51
-69
-112
-128
-98
-103
-94
-76
-76
-34
-52
-69
-113
-116
-94
-91
-85
-82
-78
-27
-43
-62
-114
-114
-95
-90
-69
-69
-51
-23
-46
-67
-99
-99
-84
-86
-81
-62
-46
-17
-52
-65
-106
-101
-87
-93
-85
-61
-39
-34
-62
-77
-119
-91
-90
-82
-76
-68
-55
-31
-62
-70
-115
-101
-91
-96
-68
-56
-38
-45
-58
-77
-141
-102
-92
-89
-71
-63
-41
-38
-63
-88
-116
-94
-98
-93
-67
-60
-34
-41
-62
-80
-128
-94
-77
-76
-66
-58
-26
-31
-40
-77
-114
-82
-77
-77
-60
-50
-23
-5
-36
-70
-113
-78
-75
-64
-45
-32
-15
-20
-36
-71
-120
-77
-68
-64
-49
-30
-15
-27
-30
-84
-106
-74
-73
-64
-44
-43
-8
-10
-43
-82
-105
-76
-70
-55
-40
-35
-3
-4
-31
-88
-92
-61
-70
-62
-46
-42
-11
-35
-56
-93
-107
-71
-81
-65
-38
-57
-13
-44
-68
-114
-121
-97
-88
-81
-72
-75
-49
-64
-77
-136
-122
-104
-102
-96
-84
-69
-47
-80
-93
-124
-126
-131
-101
-78
-70
-65
-55
-70
-84
-139
-127
-119
-116
-110
-83
-60
-43
-55
-44
-67
-12
23
62
112
143
179
178
146
122
61
60
44
35
30
9
3
-11
-41
-58
-98
-82
-97
-87
-77
-65
-45
-31
-60
-79
-118
-85
-68
-47
-31
-26
-22
-10
-27
-53
-85
-67
-57
-49
-31
-23
10
-4
-23
-52
-71
-33
-48
-33
-21
-16
14
12
-9
-55
-68
-35
-46
-33
-20
-17
25
23
0
-35
-77
-42
-30
-26
-15
-8
34
25
5
-53
-59
-24
-24
-29
-10
9
30
7
-7
-44
-49
-31
-27
-20
-3
1
36
19
1
-44
-44
-18
-15
-4
12
22
59
37
29
-32
-32
-12
-3
19
37
56
70
48
36
-20
-1
26
26
35
44
59
72
59
51
14
8
23
19
36
42
57
82
46
23
-18
0
-2
5
14
29
43
54
23
3
-48
-32
-19
-20
-2
3
29
34
4
-21
-64
-40
-35
-32
-16
-15
22
19
-3
-28
-74
-51
-49
-33
-10
-10
16
12
-9
-45
-77
-47
-35
-36
-17
0
24
-1
-12
-40
-79
-58
-40
-43
-30
-17
15
8
-22
-53
-93
-52
-44
-35
-16
-11
20
8
-18
-58
-76
-57
-43
-41
-25
-18
19
5
-23
-60
-83
-52
-51
-38
-19
-1
28
-2
-18
-66
-73
-48
-40
-36
-18
-13
19
1
-19
-80
-66
-48
-48
-35
-15
-13
15
3
-12
-53
-65
-42
-39
-31
-13
-6
20
-4
-17
-58
-52
-40
-42
-30
4
4
27
4
-18
-58
-47
-41
-43
-22
-8
9
31
5
-10
-67
-49
-24
-37
-12
2
17
26
1
-19
-52
-42
-27
-25
-14
-11
19
32
7
-15
-64
-35
-24
-21
0
-1
26
27
8
-20
-59
-28
-25
-15
-9
7
25
41
22
-35
-51
-20
-19
-13
6
12
52
53
14
-10
-50
-11
-1
8
29
26
58
49
28
0
-38
-5
-9
-4
12
25
59
47
19
-16
-44
-8
-14
-11
4
11
52
39
6
-32
-68
-16
-25
-20
-5
1
43
31
16
-38
-67
-29
-26
-19
0
-5
31
11
6
-41
-56
-34
-38
-23
-15
1
24
-2
-19
-67
-65
-58
-50
-39
-22
-7
39
39
46
28
62
119
139
162
184
201
224
193
175
106
93
79
47
46
39
33
48
21
-13
-60
-62
-44
-39
-41
-18
-5
10
-8
-23
-71
-33
-42
-31
-19
5
28
36
6
-3
-50
-24
-30
-17
-2
15
34
33
9
-6
-54
-26
-23
-24
6
13
38
47
18
-16
-57
-24
-13
-11
13
16
47
29
13
-8
-55
-19
-17
-8
5
16
45
45
21
-7
-42
-15
-7
-12
7
11
54
46
21
-16
-51
-13
-25
-1
-4
15
53
45
23
-17
-40
-3
-8
-14
30
30
77
57
31
-5
-30
13
6
26
34
34
75
70
46
-2
-14
29
20
27
44
44
86
74
44
8
-2
20
17
26
51
63
77
65
48
5
-2
14
17
22
36
41
70
46
35
-20
-20
-9
-7
4
27
31
58
18
19
-34
-29
-5
-11
-11
12
22
57
27
18
-34
-26
-11
-5
6
21
42
40
38
22
-55
-25
-13
-11
3
9
38
36
19
7
-42
-20
-7
-9
6
7
32
31
14
-10
-36
-19
-9
-13
17
12
37
35
22
-9
-54
-15
-22
-10
5
16
50
42
15
-13
-48
-21
-26
-9
8
1
37
27
5
-17
-62
-31
-29
-25
-11
1
33
23
3
-37
-74
-36
-32
-22
-14
-7
31
11
-6
-44
-76
-35
-35
-29
-12
-7
25
0
-10
-44
-66
-36
-52
-32
-7
-12
32
11
-19
-51
-67
-38
-19
-27
-21
-4
2
1
-18
-57
-57
-41
-49
-38
-16
-23
11
2
-20
-71
-65
-48
-51
-35
-14
-8
16
-1
-21
-71
-58
-53
-44
-39
-28
-13
11
-13
-26
-75
-54
-47
-56
-41
-20
-6
8
-7
-27
-68
-50
-51
-46
-32
-14
16
17
-28
-43
-83
-55
-49
-46
-27
-20
14
10
-16
-35
-77
-58
-46
-34
-22
-19
8
11
-16
-40
-81
-46
-42
-40
-10
-17
9
12
5
-17
-55
-36
-36
-33
-13
-6
17
15
3
-39
-76
-53
-44
-36
-23
-17
13
-2
-25
-51
-88
-61
-61
-45
-38
-37
5
-10
-35
-60
-94
-54
-63
-45
-37
-32
0
-8
-26
-77
-95
-56
-56
-44
-34
-24
-13
-17
-39
-81
-99
-80
-90
-62
-54
-54
-26
-51
-66
-84
-105
-58
-31
-13
61
87
153
148
170
133
125
139
119
128
111
100
106
58
22
-64
-73
-73
-61
-54
-48
-38
-25
-39
-40
-94
-96
-81
-61
-53
-36
-14
3
-27
-36
-87
-74
-61
-54
-36
-16
-11
11
-21
-28
-67
-64
-51
-47
-32
-20
2
12
-9
-28
-76
-42
-43
-36
-21
-22
25
17
-3
-20
-63
-51
-41
-35
-18
-13
15
13
2
-35
-63
-33
-32
-28
-3
-4
20
28
5
-13
-56
-28
-22
-18
-3
-1
29
33
16
-24
-55
-32
-23
-11
15
17
51
47
19
-19
-54
-24
-16
-4
13
28
70
47
31
-14
-39
-2
-4
6
27
37
73
59
31
7
-23
3
6
18
30
36
74
61
37
-4
-22
3
4
14
28
35
59
37
26
-18
-37
-9
-12
3
15
6
42
17
7
-39
-40
-28
-26
-24
-5
1
34
5
-2
-48
-47
-28
-31
-19
-4
2
23
5
-8
-65
-48
-34
-23
-33
-15
12
26
-10
-11
-75
-58
-41
-35
-24
-12
10
14
-14
-19
-74
-54
-51
-45
-27
-21
7
5
-20
-37
-89
-55
-54
-42
-29
-28
7
11
-19
-36
-79
-53
-36
-43
-10
-7
10
20
-7
-43
-73
-40
-38
-18
-7
0
23
22
-1
-36
-71
-33
-34
-34
6
7
30
25
7
-27
-66
-24
-21
-18
5
3
38
31
-3
-35
-61
-43
-28
-17
3
-1
26
27
2
-38
-63
-27
-31
-18
0
13
39
28
0
-51
-64
-29
-29
-18
0
4
39
22
-4
-45
-56
-31
-29
-24
0
-7
31
20
-6
-45
-46
-36
-19
-6
9
-3
34
14
-4
-34
-42
-17
-18
-17
4
4
34
13
-2
-55
-34
-24
-20
-11
12
23
46
16
-8
-60
-38
-34
-20
-9
5
25
39
15
3
-39
-18
-24
-13
3
20
39
45
23
-1
-39
-11
-14
-19
2
2
34
41
16
-4
-52
-28
-25
-23
-3
6
24
17
-17
-40
-76
-56
-55
-41
-7
-17
16
4
-24
-51
-75
-49
-45
-55
-31
-16
1
10
-18
-53
-94
-52
-52
-49
-27
-22
0
-15
-39
-75
-102
-77
-81
-73
-50
-35
8
22
21
21
24
94
123
156
189
206
237
211
169
116
71
80
51
37
14
2
23
8
-21
-68
-83
-58
-64
-46
-34
-30
12
-5
-28
-68
-71
-27
-43
-34
-17
-31
16
9
-9
-49
-46
-29
-38
-26
-9
-4
41
19
-2
-55
-43
-24
-35
-19
-9
8
32
19
-9
-50
-34
-29
-26
-5
11
24
34
12
7
-50
-32
-15
-16
-4
7
31
44
18
8
-41
-12
-15
-6
12
18
45
51
22
14
-34
-11
-25
-1
28
23
41
49
36
11
-39
-10
10
5
18
35
55
64
43
10
-25
7
17
25
43
52
86
73
54
24
-4
29
13
42
47
45
95
81
58
37
-1
15
22
30
43
42
66
68
44
2
-34
-1
2
14
20
26
59
42
17
-11
-48
-21
-20
-15
2
12
36
20
6
-39
-56
-24
-25
-9
-3
-6
37
15
-3
-47
-54
-28
-39
-17
-3
14
40
16
-5
-50
-53
-21
-35
-20
2
8
35
17
-5
-42
-38
-40
-9
-16
0
11
42
23
-5
-45
-36
-24
-18
-5
6
22
32
11
5
-39
-30
-13
-6
-6
-1
37
61
26
16
-39
-25
-21
-7
-4
16
40
46
21
-6
-60
-23
-29
-21
-2
-1
26
31
1
-24
-67
-39
-34
-35
-14
-10
16
17
-7
-41
-69
-41
-37
-42
-24
-24
11
5
-25
-43
-86
-51
-44
-46
-18
-27
5
4
-27
-54
-79
-49
-49
-36
-23
-19
10
5
-3
-42
-78
-46
-48
-43
-19
-10
15
8
-3
-50
-84
-51
-42
-39
-24
-9
19
9
-8
-40
-65
-36
-34
-19
-5
-18
7
10
-7
-55
-66
-42
-43
-28
-16
-8
35
16
-7
-42
-46
-31
-28
-23
-7
-8
24
5
-5
-56
-50
-32
-31
-14
-7
9
22
10
3
-47
-42
-52
-38
-26
-13
2
35
14
-8
-49
-45
-25
-12
-26
1
12
27
18
-4
-40
-12
-5
-7
-5
24
34
61
32
15
-28
-6
-10
-1
24
32
55
61
31
9
-39
-7
-3
6
23
18
44
51
28
7
-44
-30
-29
-14
8
14
40
39
20
-17
-53
-20
-13
-7
9
11
55
38
17
-22
-42
-24
-15
6
20
9
43
34
9
-30
-76
-45
-45
-37
-4
9
47
57
57
42
52
116
151
183
211
252
266
252
231
168
114
143
107
92
74
47
64
60
30
-10
-48
-12
-13
-13
-2
-1
39
32
14
-27
-37
-19
-13
1
16
20
46
29
14
-28
-31
-7
-11
8
24
31
62
46
21
-32
-21
-4
-2
9
22
46
56
31
15
-27
-19
10
6
5
24
34
62
37
24
-20
-16
-4
-3
23
32
52
66
42
31
-23
-5
3
21
36
32
70
77
51
34
-11
15
22
25
40
52
79
79
56
43
-4
19
33
32
54
63
101
92
76
34
-8
31
50
48
54
78
102
92
77
45
16
38
50
61
76
81
104
90
91
61
23
45
45
72
89
86
115
108
88
54
22
43
42
53
70
75
96
75
54
20
-6
34
20
32
46
42
85
69
44
-4
-24
16
19
26
42
50
89
66
49
8
-11
14
15
26
42
47
73
61
42
-2
1
21
13
31
50
63
69
64
34
-7
-8
22
25
31
44
58
84
67
40
-7
-5
10
19
23
47
57
70
60
49
-6
-3
24
27
38
52
69
90
56
43
-14
13
28
27
33
46
67
77
56
52
-5
21
35
20
41
56
77
95
67
35
-8
5
25
26
40
53
81
89
54
32
-8
20
25
29
58
60
83
79
59
32
-3
30
39
49
54
72
95
96
70
38
3
35
39
48
67
70
110
101
83
63
0
30
48
46
67
78
106
101
65
37
10
46
29
52
69
68
105
93
69
41
14
32
27
43
57
63
99
87
69
29
8
31
35
43
62
66
97
81
67
15
1
29
30
40
50
64
88
70
51
12
13
23
34
38
58
71
93
74
63
19
12
26
32
46
65
78
103
69
65
16
34
53
47
58
86
97
110
84
84
35
34
44
58
52
83
89
117
82
69
21
41
52
59
66
78
95
101
77
51
4
37
57
46
65
63
98
96
73
50
3
34
37
28
52
70
87
86
60
36
-2
21
31
39
54
42
79
67
32
5
-45
-12
-2
3
26
45
90
111
118
114
112
173
212
243
267
249
285
258
206
157
105
112
88
71
53
46
78
63
28
-4
-36
-10
-13
8
20
18
59
54
40
14
-11
13
7
26
51
64
103
73
55
14
9
33
41
49
70
78
96
88
72
33
19
38
42
61
66
66
107
81
65
15
8
28
37
51
63
64
83
69
59
15
26
26
29
46
59
59
98
66
58
8
12
28
32
28
56
82
98
72
63
2
19
48
45
53
62
60
97
87
66
8
35
48
52
73
73
99
107
80
67
34
63
63
61
90
89
114
125
105
86
46
68
82
86
107
118
136
135
118
86
50
97
94
91
105
115
139
138
113
82
49
75
78
80
93
91
131
119
91
68
28
47
53
59
78
80
110
105
78
49
18
46
45
52
72
80
118
104
90
55
10
47
51
70
75
76
111
122
92
50
23
57
64
70
77
80
120
112
80
30
8
52
56
61
69
85
119
89
72
27
27
48
49
61
72
81
111
89
68
26
33
54
53
63
66
81
111
86
77
26
36
43
44
49
62
82
106
77
61
22
31
42
46
54
84
93
111
76
68
28
43
52
55
65
75
102
110
90
66
14
55
49
34
65
69
95
94
75
56
0
19
49
37
60
57
84
95
65
31
-2
21
21
25
46
46
68
72
49
23
-13
10
23
27
40
49
75
72
49
7
-19
15
21
23
37
46
89
87
64
13
-10
21
16
31
45
55
93
75
48
25
1
24
16
30
54
64
87
85
65
22
2
28
29
37
46
70
101
83
68
19
-6
15
14
46
45
33
98
76
51
-7
-17
12
14
29
40
38
66
53
24
-24
-15
0
-5
8
24
25
51
29
14
-25
-29
-14
-12
-1
12
24
50
27
25
-34
-25
-15
-7
3
28
37
47
18
20
-36
-23
-40
-17
-30
0
13
21
9
-3
-43
3
39
60
113
150
201
226
224
188
134
154
134
126
124
111
113
98
38
-9
-49
-22
-34
-28
-11
-10
15
11
-3
-46
-81
-33
-31
-27
3
9
42
26
4
-14
-57
-23
-16
-18
10
15
45
38
28
-10
-48
-25
-15
0
23
17
47
46
24
-5
-39
-5
-11
-5
20
25
52
45
15
-14
-32
-15
-15
-4
8
8
55
43
27
-7
-25
-4
-1
8
11
18
56
44
29
-26
-38
0
-11
21
29
35
64
54
32
-10
-14
9
14
14
38
50
73
58
34
-10
-3
10
22
28
43
52
77
66
53
-3
8
19
16
30
43
58
81
59
50
1
18
29
31
42
62
68
79
61
47
-6
8
18
11
15
39
45
63
28
8
-40
-24
-19
-5
6
8
25
37
13
-8
-53
-26
-19
-17
-10
-2
37
23
1
-24
-54
-28
-34
-19
-25
-10
18
20
-5
-31
-76
-48
-49
-34
-10
1
13
21
-11
-45
-71
-43
-36
-34
-13
-5
23
14
-12
-30
-69
-35
-37
-45
-29
-8
17
14
-16
-49
-86
-44
-50
-28
-19
-8
16
14
-15
-56
-79
-51
-35
-32
-27
-21
-6
3
-29
-63
-80
-46
-52
-48
-21
-27
24
-6
-20
-64
-77
-53
-62
-42
-15
-21
0
-8
-26
-68
-75
-65
-62
-48
-23
-18
4
-6
-39
-85
-71
-56
-57
-48
-29
-15
8
-6
-37
-78
-68
-55
-42
-31
-29
-7
18
-19
-31
-69
-52
-48
-27
-42
-20
-4
5
-15
-31
-79
-62
-59
-41
-31
-23
-6
2
-20
-36
-73
-60
-45
-46
-43
-11
11
-2
-31
-40
-85
-66
-58
-51
-29
-25
-3
12
-27
-51
-95
-54
-48
-35
-21
-17
3
0
-19
-43
-71
-43
-46
-40
-21
-5
28
25
0
-31
-52
-24
-30
-21
5
0
31
31
4
-31
-78
-46
-42
-35
-24
-19
17
11
-14
-54
-88
-61
-59
-47
-41
-31
7
-15
-38
-68
-83
-64
-62
-62
-39
-33
-6
-24
-36
-88
-91
-65
-74
-61
-61
-44
-6
-30
-36
-88
-110
-87
-94
-73
-59
-64
-25
-58
-69
-124
-111
-84
-56
-17
21
59
108
121
127
92
101
106
112
95
92
82
75
35
-9
-85
-93
-103
-94
-89
-77
-79
-72
-94
-104
-162
-132
-120
-115
-109
-91
-66
-55
-75
-97
-144
-120
-110
-112
-92
-79
-68
-52
-74
-104
-149
-113
-112
-120
-90
-76
-47
-58
-72
-93
-130
-114
-100
-104
-89
-80
-49
-63
-82
-105
-136
-106
-99
-92
-79
-74
-48
-48
-72
-108
-148
-115
-110
-98
-78
-71
-43
-47
-68
-101
-141
-106
-104
-91
-84
-61
-32
-51
-62
-98
-141
-94
-97
-79
-59
-57
-15
-24
-54
-90
-114
-86
-82
-78
-51
-46
-10
-26
-58
-84
-97
-78
-76
-58
-42
-36
-1
-21
-31
-88
-80
-48
-67
-59
-27
-29
4
-21
-28
-78
-94
-73
-71
-53
-47
-38
-15
-50
-57
-104
-98
-88
-92
-80
-71
-56
-28
-63
-84
-142
-131
-106
-96
-95
-92
-82
-59
-83
-91
-147
-118
-111
-119
-109
-89
-76
-68
-82
-101
-146
-131
-133
-119
-97
-92
-69
-60
-90
-110
-146
-131
-121
-118
-87
-92
-74
-64
-96
-114
-146
-129
-118
-112
-104
-99
-68
-54
-83
-109
-142
-120
-113
-118
-99
-85
-63
-64
-76
-121
-154
-115
-112
-112
-95
-88
-62
-69
-93
-125
-157
-132
-126
-109
-101
-97
-71
-74
-101
-131
-160
-121
-117
-113
-93
-92
-67
-78
-112
-125
-144
-108
-121
-108
-97
-80
-53
-55
-97
-136
-158
-133
-140
-104
-89
-106
-62
-86
-99
-140
-148
-125
-131
-120
-99
-91
-63
-68
-97
-144
-149
-124
-118
-103
-95
-97
-63
-77
-91
-143
-132
-114
-127
-116
-99
-86
-63
-94
-108
-152
-137
-124
-125
-112
-82
-86
-64
-102
-104
-144
-140
-122
-116
-112
-93
-83
-64
-81
-94
-150
-130
-119
-132
-116
-94
-68
-59
-81
-90
-144
-114
-100
-114
-85
-81
-64
-53
-79
-108
-144
-113
-82
-93
-78
-75
-36
-37
-75
-103
-136
-114
-97
-105
-85
-69
-51
-62
-80
-111
-147
-114
-107
-113
-101
-94
-61
-74
-94
-125
-162
-125
-131
-127
-105
-106
-70
-78
-106
-131
-164
-139
-133
-125
-116
-101
-67
-77
-105
-137
-163
-122
-127
-120
-106
-93
-65
-80
-115
-160
-174
-141
-128
-121
-99
-86
-16
-2
9
4
14
69
96
126
129
130
158
121
71
23
-9
-17
-64
-82
-73
-70
-51
-76
-94
-149
-143
-135
-130
-122
-108
-93
-64
-70
-102
-153
-138
-117
-113
-107
-87
-82
-66
-87
-102
-141
-132
-120
-120
-113
-87
-76
-60
-84
-106
-151
-122
-120
-127
-95
-89
-72
-54
-83
-113
-154
-128
-129
-115
-99
-93
-65
-65
-90
-103
-157
-134
-121
-104
-91
-87
-56
-60
-81
-109
-145
-120
-112
-112
-93
-94
-56
-62
-92
-121
-152
-108
-102
-85
-89
-100
-66
-53
-86
-119
-155
-125
-115
-105
-74
-79
-52
-65
-84
-113
-148
-107
-101
-93
-80
-68
-37
-39
-63
-93
-127
-94
-88
-80
-69
-63
-24
-36
-58
-94
-113
-92
-101
-83
-67
-69
-24
-51
-50
-111
-127
-93
-105
-96
-89
-85
-64
-69
-89
-138
-142
-119
-124
-107
-105
-92
-55
-79
-96
-139
-136
-119
-130
-120
-105
-94
-72
-87
-106
-161
-152
-130
-130
-126
-90
-96
-71
-90
-107
-157
-149
-140
-133
-117
-110
-102
-77
-101
-116
-169
-143
-140
-136
-127
-104
-99
-89
-107
-120
-177
-152
-139
-142
-127
-122
-99
-96
-108
-118
-184
-156
-133
-133
-127
-125
-99
-97
-121
-148
-199
-157
-142
-144
-131
-116
-93
-99
-123
-138
-183
-156
-149
-148
-125
-119
-90
-96
-121
-156
-184
-151
-152
-156
-128
-123
-96
-103
-118
-152
-198
-156
-150
-146
-119
-114
-97
-96
-93
-148
-181
-141
-140
-144
-121
-121
-74
-84
-108
-160
-171
-136
-147
-139
-112
-113
-84
-85
-114
-143
-174
-148
-144
-136
-118
-113
-80
-100
-119
-155
-168
-147
-147
-141
-132
-123
-97
-101
-117
-175
-178
-163
-142
-146
-133
-127
-89
-103
-126
-175
-171
-157
-155
-136
-128
-119
-97
-114
-132
-173
-166
-153
-145
-139
-119
-105
-90
-112
-127
-174
-147
-129
-132
-132
-113
-94
-76
-102
-102
-148
-142
-137
-125
-124
-121
-89
-72
-97
-121
-170
-151
-144
-139
-120
-113
-106
-105
-121
-145
-195
-181
-180
-152
-141
-143
-111
-130
-142
-164
-208
-185
-167
-173
-152
-155
-114
-128
-137
-179
-222
-184
-173
-176
-157
-146
-123
-130
-156
-200
-242
-204
-211
-205
-192
-176
-144
-145
-157
-165
-174
-115
-83
-48
-3
25
79
69
37
13
-32
-28
-43
-69
-95
-104
-110
-140
-184
-217
-251
-218
-238
-236
-218
-212
-182
-203
-212
-253
-270
-241
-235
-225
-211
-203
-176
-191
-204
-235
-259
-245
-237
-225
-206
-200
-171
-183
-192
-248
-244
-221
-225
-221
-204
-196
-160
-181
-194
-242
-243
-223
-224
-207
-181
-200
-157
-184
-201
-241
-225
-215
-210
-196
-188
-164
-144
-171
-183
-232
-214
-200
-194
-183
-163
-158
-137
-164
-168
-216
-209
-183
-184
-178
-160
-152
-146
-155
-164
-221
-194
-187
-183
-177
-160
-134
-133
-149
-167
-221
-193
-187
-172
-150
-148
-126
-125
-149
-174
-205
-182
-173
-170
-144
-139
-108
-102
-136
-169
-200
-168
-173
-157
-137
-138
-106
-111
-138
-173
-200
-170
-176
-173
-154
-156
-129
-132
-153
-189
-230
-198
-199
-190
-166
-164
-123
-149
-168
-207
-231
-196
-210
-189
-186
-175
-141
-158
-180
-212
-235
-215
-206
-189
-190
-176
-141
-174
-192
-218
-224
-203
-210
-191
-175
-176
-147
-159
-179
-213
-222
-208
-202
-187
-170
-173
-139
-154
-173
-210
-221
-202
-210
-197
-176
-167
-141
-164
-180
-228
-215
-209
-198
-185
-164
-163
-146
-169
-186
-236
-214
-202
-212
-193
-168
-162
-136
-159
-169
-224
-205
-185
-187
-174
-158
-143
-131
-144
-162
-224
-197
-192
-172
-159
-153
-124
-125
-138
-163
-206
-177
-159
-160
-128
-145
-120
-110
-142
-159
-191
-177
-156
-152
-126
-121
-96
-106
-134
-156
-189
-165
-154
-155
-143
-128
-110
-105
-128
-158
-203
-172
-170
-159
-134
-132
-110
-113
-143
-179
-215
-176
-172
-175
-153
-148
-115
-127
-142
-166
-205
-172
-171
-158
-148
-142
-107
-118
-137
-171
-200
-166
-174
-164
-140
-130
-90
-109
-129
-158
-168
-150
-151
-134
-119
-116
-91
-100
-112
-159
-168
-145
-140
-116
-103
-103
-68
-92
-99
-136
-137
-125
-118
-110
-89
-82
-57
-67
-94
-132
-128
-120
-105
-95
-89
-69
-31
-65
-82
-122
-105
-96
-93
-76
-56
-44
-23
-47
-64
-118
-98
-86
-88
-74
-58
-43
-27
-47
-64
-117
-100
-105
-108
-84
-76
-45
-32
-57
-86
-130
-94
-97
-96
-79
-64
-39
-43
-50
-72
-131
-100
-85
-74
-68
-48
-21
-19
-41
-69
-106
-76
-76
-76
-57
-48
-25
-21
-42
-58
-73
-22
18
50
111
138
202
226
225
188
147
182
172
152
151
137
135
96
38
-4
-38
-5
-5
-8
-5
-5
29
25
2
-35
-59
-26
-27
-4
19
23
53
41
16
-13
-29
-4
-6
19
30
31
77
56
18
-2
-11
7
4
21
42
47
88
76
46
0
11
32
36
36
54
69
108
80
70
27
32
58
40
63
80
89
114
100
85
49
58
61
62
83
98
110
133
119
102
55
81
99
83
93
111
134
151
124
118
71
94
99
97
125
145
159
176
146
145
95
125
134
147
159
163
189
193
172
160
110
144
159
151
174
173
208
207
186
159
117
160
152
170
177
182
208
203
183
153
110
142
149
157
160
162
196
187
157
135
100
127
122
123
137
143
173
166
148
113
69
100
94
110
122
131
163
153
137
95
71
110
97
116
131
138
160
158
140
104
74
107
105
130
142
152
179
161
155
115
103
103
109
131
139
141
172
154
151
114
98
114
112
131
159
156
184
164
151
104
108
128
119
128
149
155
188
165
165
98
109
129
133
132
147
169
175
157
153
110
113
137
122
137
148
169
188
155
152
101
115
125
130
142
150
172
192
174
142
102
119
126
137
155
165
183
191
171
159
109
128
141
151
166
174
203
195
167
149
116
144
134
154
176
166
196
200
175
144
114
139
141
146
169
169
213
209
173
157
120
141
162
179
184
183
223
200
183
156
127
167
159
162
183
187
224
211
194
161
124
161
157
169
184
200
223
216
192
163
134
164
161
175
196
195
224
215
199
160
149
182
172
185
196
207
234
222
208
162
146
163
170
180
187
197
229
208
186
158
145
164
166
166
185
191
221
197
173
128
132
144
162
164
181
196
219
195
188
128
130
157
151
164
183
188
205
186
174
122
140
152
153
157
169
196
197
176
163
111
124
120
143
165
176
215
251
255
282
248
303
336
370
393
392
426
414
370
327
257
259
241
220
203
195
228
229
201
153
116
144
134
147
168
172
207
202
182
156
118
144
151
164
185
190
217
213
187
160
127
160
172
175
195
202
228
225
204
178
143
177
183
192
211
219
240
236
222
192
154
192
193
198
230
218
252
248
229
191
164
198
199
209
227
235
264
249
230
187
176
219
200
199
222
238
266
248
228
202
201
199
200
219
243
246
280
247
226
198
200
216
214
225
240
253
281
261
242
201
190
228
223
237
257
263
281
264
252
206
234
244
237
247
271
288
309
286
274
227
238
251
257
257
272
289
294
268
268
206
216
198
231
240
253
276
260
260
227
174
199
204
211
212
232
264
257
229
205
162
195
198
193
216
222
255
248
220
194
153
185
190
194
215
218
249
244
228
203
145
174
184
193
196
217
236
238
209
172
151
193
182
199
215
217
251
251
223
204
164
192
185
195
220
228
252
253
222
186
156
193
192
209
214
217
253
235
218
180
162
193
187
196
209
211
257
235
232
190
171
200
193
188
221
230
251
242
226
185
171
190
184
206
222
233
264
239
233
179
183
197
206
209
215
247
268
229
229
177
193
220
220
207
233
252
264
247
234
189
203
202
212
225
240
266
273
244
233
193
200
209
213
219
232
258
269
242
224
167
183
204
208
226
225
251
251
227
209
171
206
210
196
225
243
272
270
235
208
167
200
210
204
232
235
264
265
241
201
164
201
202
205
221
235
251
270
224
209
167
204
211
221
236
240
278
268
240
207
180
220
214
235
253
251
282
274
254
228
210
237
230
250
261
264
298
292
268
233
207
236
238
230
260
266
290
273
258
226
192
221
220
234
254
255
292
275
251
195
204
233
228
230
242
248
284
264
247
207
201
226
224
228
253
252
279
248
