68
67
69
68
67
69
69
69
73
72
74
71
73
72
74
70
71
72
72
74
73
75
75
75
76
75
77
75
76
77
76
74
76
74
74
74
75
74
76
77
78
78
78
77
78
80
81
81
79
81
80
78
77
79
77
78
77
79
80
79
81
80
77
82
83
80
79
84
79
80
80
79
80
83
82
84
85
88
86
83
88
90
88
89
88
93
92
93
94
95
93
90
91
94
91
91
90
92
92
92
91
86
87
85
83
82
81
82
83
81
79
78
79
85
81
80
82
83
83
82
82
83
84
84
83
81
82
83
84
83
81
83
86
85
87
85
84
80
82
83
83
81
80
80
80
80
78
84
85
89
101
111
134
157
181
192
192
187
186
175
190
195
196
195
172
130
103
101
98
95
94
95
92
91
88
89
87
87
86
85
85
85
84
85
86
86
86
84
84
85
85
87
86
88
86
87
88
89
90
89
88
87
90
90
88
86
86
89
90
89
88
82
85
92
90
92
93
91
92
98
92
88
97
95
95
97
99
98
99
96
98
97
94
95
108
111
113
107
109
113
115
119
120
118
121
124
126
130
133
136
137
142
144
148
149
151
151
155
155
155
155
157
156
159
158
158
157
153
152
149
146
143
142
140
137
133
129
126
123
120
117
114
113
110
109
104
103
101
100
99
100
102
99
95
97
98
94
94
95
95
96
96
95
96
96
97
96
94
94
97
99
98
97
95
96
96
93
95
97
96
95
96
96
97
95
95
93
93
95
94
94
95
96
96
96
94
96
94
91
91
91
93
93
95
97
98
95
95
96
95
95
97
95
97
98
95
96
97
97
97
98
98
97
95
97
100
99
100
96
98
97
100
99
98
99
98
97
97
98
97
99
97
100
98
99
99
97
99
99
97
98
99
98
99
100
99
96
97
95
97
97
97
94
93
96
94
97
95
94
94
94
98
94
96
95
93
95
97
94
93
94
95
94
95
98
97
98
98
97
98
96
99
97
98
100
102
101
104
102
105
105
105
105
106
106
104
104
104
106
105
103
104
104
103
102
100
100
100
95
94
93
93
92
95
95
95
93
93
95
92
93
94
94
93
92
92
94
94
94
92
91
88
92
95
97
92
91
95
92
91
94
93
94
93
92
91
90
89
87
89
86
82
86
91
92
100
109
121
143
171
190
201
206
203
202
195
212
220
220
217
197
151
119
112
106
104
100
99
96
92
93
93
92
92
88
90
90
92
87
87
89
88
88
88
88
88
90
88
89
88
88
90
90
90
87
91
90
91
91
91
91
91
89
89
91
91
89
90
90
91
93
93
94
92
91
91
94
92
95
94
94
96
98
97
98
96
97
99
100
101
100
100
100
107
105
107
107
111
111
113
118
118
120
126
127
131
132
134
137
144
144
147
153
153
156
155
147
138
148
150
152
153
152
148
148
146
142
139
132
133
131
129
124
119
118
113
114
113
107
104
101
100
100
99
97
94
94
92
92
91
92
93
92
90
89
87
89
89
91
88
88
89
90
91
88
85
88
89
89
87
85
84
87
87
85
87
87
86
87
87
87
87
85
87
88
85
85
85
84
87
86
88
86
87
85
85
85
85
84
83
83
84
84
88
86
85
85
85
86
88
87
87
86
88
85
86
87
87
87
89
90
91
87
89
85
87
87
88
94
90
81
83
85
85
88
86
86
86
87
91
91
91
94
88
88
84
82
85
85
80
81
85
87
84
85
85
82
80
82
83
85
84
85
83
81
84
85
84
84
81
81
81
84
83
83
83
81
80
82
81
83
81
84
83
81
81
79
79
80
80
80
82
84
83
82
83
83
83
85
85
84
84
83
82
83
79
80
82
85
86
83
86
89
88
88
87
88
87
86
89
89
91
91
91
95
87
88
86
87
88
83
81
78
78
76
76
80
76
77
76
77
76
74
75
77
77
74
75
77
76
74
76
75
77
76
77
75
76
76
72
75
76
76
75
78
76
72
73
74
75
74
75
74
70
66
63
69
75
78
82
89
106
127
152
174
187
192
186
184
177
197
203
205
204
185
135
99
92
90
87
83
80
79
78
74
75
75
75
74
74
73
72
72
75
72
68
67
73
74
75
73
70
72
68
71
72
74
70
71
72
72
71
71
71
69
71
73
71
75
74
73
75
72
74
77
73
75
75
78
73
76
76
77
72
74
75
74
75
78
80
75
78
82
84
87
83
85
87
86
87
90
93
95
97
97
100
102
106
107
113
114
118
120
125
126
129
128
129
130
135
134
134
131
131
131
129
130
131
129
126
126
121
116
117
112
107
106
105
102
98
95
89
89
87
85
80
81
79
75
77
74
74
73
73
70
71
71
72
67
69
67
70
65
66
68
69
69
68
67
66
70
65
64
66
67
64
64
68
67
67
70
66
64
65
64
64
66
65
67
68
68
67
66
65
66
64
63
64
65
65
67
65
64
65
65
63
64
65
66
63
66
68
68
64
66
64
63
66
66
65
67
65
65
65
65
66
69
67
69
73
70
65
69
69
64
67
66
69
66
65
67
68
69
70
65
64
65
65
66
68
65
64
67
66
64
62
64
66
64
65
66
64
64
65
63
64
69
63
62
61
63
64
63
62
62
63
67
65
66
67
68
65
64
64
65
69
69
68
68
68
68
68
69
67
69
73
70
68
67
74
74
72
69
74
70
68
66
67
68
65
64
60
61
63
57
58
59
58
62
59
58
60
59
58
58
57
58
57
58
57
59
59
57
56
57
56
56
56
58
57
57
57
58
57
59
57
56
55
55
57
59
59
58
54
54
52
52
58
56
60
68
80
106
128
151
161
160
153
153
145
159
165
166
163
136
99
70
66
65
69
65
64
65
65
63
60
59
60
58
58
59
58
56
56
57
57
58
60
58
59
56
53
56
56
55
56
59
60
59
63
59
56
61
56
58
59
59
59
64
61
58
61
62
63
61
61
62
63
64
64
64
63
63
62
65
67
66
68
65
66
69
70
69
73
74
75
74
75
79
77
77
81
82
84
90
93
94
98
101
105
107
107
110
115
115
117
118
120
123
123
119
121
123
123
124
124
119
117
119
116
110
111
105
104
101
97
94
92
90
84
81
77
75
72
69
69
64
66
64
61
62
60
58
59
61
60
59
58
61
61
59
60
57
53
57
61
59
58
56
54
57
56
55
53
58
58
58
57
54
57
53
55
50
55
56
53
54
50
53
51
50
53
51
52
52
52
55
54
54
54
54
53
52
54
53
53
54
53
51
51
56
54
53
55
55
57
56
57
55
54
56
54
53
55
58
57
55
56
58
57
57
55
57
57
56
57
58
55
56
54
55
59
57
56
55
56
56
56
58
56
52
51
56
54
56
53
55
55
55
55
55
55
54
55
56
56
57
57
55
55
52
53
54
56
58
57
57
59
59
57
58
57
55
59
60
59
60
61
64
66
65
61
64
65
63
62
67
66
62
64
64
63
64
64
62
61
60
59
55
55
55
54
55
54
54
52
52
52
52
53
53
51
52
51
53
53
52
51
50
54
54
52
50
52
54
52
51
50
51
51
53
52
52
51
48
51
54
52
49
49
48
44
43
45
46
53
55
58
66
81
101
127
146
159
166
157
156
146
162
168
170
169
154
107
77
73
65
62
59
57
58
54
51
53
50
53
53
49
49
49
47
47
50
48
48
49
49
48
49
50
47
50
50
51
51
52
53
49
50
51
52
51
50
52
51
53
50
52
51
52
52
54
53
53
55
52
56
53
56
57
55
56
58
56
57
58
59
60
59
58
58
63
67
64
65
68
71
69
72
71
73
78
79
80
84
86
91
92
96
97
98
101
105
107
110
109
113
112
112
116
114
114
112
111
108
111
111
109
105
101
97
97
92
91
87
85
83
81
76
73
72
69
66
63
64
64
63
59
57
55
55
52
53
54
55
59
56
53
52
53
54
55
53
52
53
53
54
54
53
52
54
54
52
51
50
54
52
50
52
52
52
55
53
53
53
53
53
53
52
53
53
52
52
51
51
54
54
53
54
50
53
52
55
54
56
55
50
52
50
50
48
48
58
56
57
55
54
52
55
53
54
56
55
55
55
56
56
56
55
55
58
55
51
50
56
56
52
55
57
53
54
54
55
54
55
54
54
55
55
55
56
57
54
52
54
54
55
55
54
53
54
57
57
58
59
53
51
52
55
54
54
51
53
54
57
56
57
55
55
52
52
54
54
53
54
56
55
54
54
53
52
55
54
54
57
54
53
55
57
53
54
55
56
62
58
53
53
55
53
55
55
57
60
58
62
60
61
60
61
59
58
59
58
60
64
67
65
67
67
62
60
62
59
59
59
58
54
55
56
54
54
53
54
53
52
52
52
54
50
51
52
53
51
52
53
53
51
51
51
54
54
54
52
53
53
51
53
53
52
52
52
51
50
47
46
47
45
45
44
48
56
57
64
74
91
113
137
156
170
173
168
166
160
182
188
188
183
161
111
80
72
67
64
62
59
56
53
54
52
52
55
53
52
52
52
49
51
52
53
52
49
50
51
52
53
51
51
52
53
51
53
54
54
54
54
53
53
55
53
55
53
54
53
55
53
53
54
54
53
55
56
58
56
57
57
56
59
61
57
59
60
62
61
63
62
62
60
61
63
65
67
68
70
72
75
75
78
77
79
84
87
90
90
93
97
97
104
103
106
108
106
111
110
111
111
111
111
113
111
114
113
109
108
103
101
100
97
93
90
88
88
81
77
73
74
74
68
67
65
63
61
58
59
58
58
54
53
54
55
52
53
56
53
52
52
51
49
49
53
52
52
52
54
53
52
52
50
51
53
52
53
51
53
50
49
52
50
50
49
50
51
52
50
52
48
48
48
50
48
50
48
48
50
51
50
50
50
52
51
49
51
50
49
52
50
50
51
50
51
53
50
51
52
53
52
53
53
53
53
54
55
53
56
55
54
51
52
51
53
55
57
54
54
55
55
56
54
52
55
56
55
60
54
51
57
58
54
55
54
53
57
56
55
54
54
56
53
54
54
56
56
54
55
54
53
55
54
55
54
55
55
57
57
56
56
55
54
56
54
53
56
55
52
55
55
58
60
54
54
55
56
57
59
54
55
58
56
55
59
61
62
60
62
62
64
65
62
60
62
65
65
67
68
66
67
67
65
63
63
63
60
58
54
55
56
56
54
54
53
54
57
53
52
52
54
53
52
52
51
51
53
52
53
53
53
52
52
53
53
55
55
53
51
52
54
53
54
54
53
52
52
49
47
46
49
53
56
64
70
89
109
132
151
165
164
154
153
149
169
171
169
164
139
94
71
66
62
65
63
63
62
60
60
57
54
55
55
52
54
54
53
51
50
54
51
48
49
54
56
59
58
54
56
54
54
53
58
56
54
57
56
55
58
57
56
56
57
55
57
56
57
61
62
59
55
58
62
61
58
63
61
63
62
65
62
65
63
67
70
66
65
68
68
69
68
72
75
77
78
82
82
84
85
87
88
94
96
99
101
103
107
109
112
114
116
119
121
118
122
123
121
120
121
121
120
118
117
111
110
109
105
102
98
93
92
91
87
86
82
78
75
73
71
70
68
67
65
64
62
62
61
59
59
58
60
61
60
56
57
59
60
59
55
55
58
59
60
58
60
58
56
55
56
58
55
57
56
56
57
57
54
52
56
55
57
57
56
57
58
57
54
53
56
54
55
58
58
55
56
55
54
58
55
59
60
57
58
57
56
57
60
60
57
58
60
61
59
63
61
61
58
59
61
63
63
62
62
60
61
59
61
62
62
63
62
61
64
64
65
62
57
59
64
61
62
62
62
64
61
63
63
63
62
61
61
61
62
63
63
61
59
62
60
63
62
61
63
64
63
64
64
63
59
62
62
62
61
61
64
62
62
66
67
64
65
68
69
72
72
69
69
69
70
72
72
73
74
73
73
72
69
69
67
65
64
64
63
64
62
61
61
60
61
62
60
60
59
61
61
62
61
60
60
57
57
61
62
60
60
60
60
60
60
59
60
59
58
62
64
62
58
58
60
60
59
55
56
57
55
52
52
55
64
64
68
77
95
118
144
162
172
170
162
158
154
171
179
178
174
142
96
76
76
74
71
69
66
67
63
62
63
61
61
61
62
60
59
61
60
58
57
59
57
60
60
60
61
61
62
60
62
62
63
63
60
61
62
62
62
61
61
61
63
62
65
64
62
63
64
65
64
63
63
67
66
66
66
68
66
67
69
68
69
69
71
70
71
74
72
74
75
76
77
80
80
83
83
88
89
93
94
94
98
98
105
109
110
113
114
119
120
120
122
125
123
125
124
123
121
124
128
124
121
120
119
117
112
111
109
106
100
95
94
91
91
86
82
79
77
76
73
70
70
70
70
69
67
68
66
64
64
63
63
63
65
66
65
66
65
61
62
63
62
63
63
62
62
62
62
62
65
64
64
63
60
60
61
59
60
59
59
58
59
58
61
60
61
60
61
60
57
57
58
61
61
60
61
60
61
61
61
62
58
60
64
61
63
59
57
58
62
60
61
62
63
64
65
64
62
63
62
63
64
64
62
63
62
64
63
65
67
66
63
60
62
65
66
63
60
60
63
60
64
64
63
65
63
64
64
61
63
62
63
64
64
66
65
65
64
60
62
62
62
63
64
62
61
62
64
64
62
63
65
65
63
61
64
63
61
59
62
62
62
62
62
65
63
62
62
62
60
61
61
64
64
63
65
66
65
65
64
67
66
61
65
65
66
65
66
68
68
73
74
74
69
67
68
70
72
72
73
74
71
72
73
72
75
69
68
66
65
65
63
62
61
62
63
63
64
63
60
63
64
62
60
60
62
63
61
60
60
61
62
62
62
60
61
61
60
61
61
59
62
61
61
63
63
62
59
59
56
59
59
55
51
58
66
66
74
87
101
129
153
165
181
183
178
172
168
192
199
196
194
164
113
89
82
76
75
73
69
64
65
66
67
66
61
61
59
60
60
61
65
61
61
64
63
62
62
62
62
62
63
63
61
61
65
65
64
63
60
65
64
64
62
65
64
67
63
62
64
67
65
66
67
67
67
65
67
67
68
70
67
69
70
73
72
73
71
72
75
75
74
76
76
77
78
78
80
83
82
85
88
93
95
99
98
101
103
105
109
112
114
114
118
120
123
122
126
124
126
129
127
130
128
129
123
122
121
117
117
115
111
109
106
103
100
96
94
91
87
85
84
80
80
77
75
73
70
70
72
70
66
71
70
67
69
66
66
62
61
66
65
64
64
65
65
65
65
65
66
64
65
64
66
63
66
62
62
64
65
63
65
64
65
65
63
62
63
65
61
61
62
64
63
61
61
61
63
66
63
62
61
62
65
64
61
61
62
60
63
60
62
63
64
62
63
64
63
64
65
63
64
64
63
64
65
65
64
64
65
66
65
67
65
63
65
65
62
65
64
64
65
67
63
64
65
64
66
65
65
65
66
65
65
64
64
64
63
64
65
65
64
64
61
61
64
65
65
61
63
64
64
62
62
62
66
65
62
59
63
63
64
66
62
63
64
63
63
65
65
67
62
60
61
62
61
63
61
62
63
62
61
62
64
61
61
62
64
61
64
64
61
62
62
62
63
64
64
62
62
61
62
59
63
63
63
65
66
68
71
72
72
71
71
71
69
66
66
70
69
72
73
73
73
71
70
69
69
67
67
64
66
64
62
63
62
57
59
57
59
62
60
62
61
60
62
60
59
61
59
59
61
62
65
61
60
59
62
60
59
61
64
60
59
61
63
60
61
59
59
57
54
53
53
60
65
69
76
85
104
132
151
168
177
180
174
164
171
185
191
188
179
146
101
83
81
78
73
71
72
68
68
65
62
63
58
63
61
64
65
63
63
64
64
61
62
64
67
68
70
71
66
61
63
63
63
63
68
63
64
65
69
66
66
64
64
68
67
68
67
69
70
70
66
66
66
67
66
66
64
67
75
74
70
75
72
73
76
78
77
77
77
79
77
81
84
84
85
90
86
87
93
98
97
98
101
104
109
109
113
114
119
124
123
121
124
123
128
132
132
129
129
127
127
128
127
125
120
116
117
117
114
108
104
102
100
94
91
91
86
83
84
78
80
77
71
68
68
68
71
69
68
67
67
65
64
63
63
67
63
66
66
67
64
66
65
67
65
61
62
62
57
57
63
66
58
61
59
59
65
63
60
60
60
57
59
59
60
63
60
61
59
56
57
57
58
59
58
57
60
60
60
58
62
63
60
61
62
63
61
59
58
59
59
60
60
59
59
61
63
63
63
61
62
65
67
65
61
54
47
54
65
65
66
62
65
66
67
67
66
66
61
60
59
63
59
62
64
60
59
56
53
57
56
54
58
61
60
62
63
63
62
57
57
54
58
59
57
61
63
62
60
57
60
59
61
62
62
62
63
61
64
66
61
61
64
65
63
64
63
61
64
70
67
58
57
57
55
54
52
52
50
49
48
50
50
55
54
51
51
47
44
43
47
49
50
48
49
50
51
47
48
49
48
45
49
47
45
46
47
44
48
48
48
48
48
47
44
49
47
44
42
41
40
44
46
46
51
61
82
105
123
139
152
138
139
129
130
146
149
145
134
103
63
46
47
49
51
51
51
50
46
44
44
41
41
37
40
45
42
43
44
44
41
40
43
43
40
39
39
37
38
38
37
36
38
41
44
38
38
40
39
40
41
39
39
38
38
37
35
34
39
40
41
39
42
46
41
40
42
40
45
42
48
47
45
44
49
44
49
49
55
52
53
59
54
54
52
40
39
60
63
60
77
74
70
71
80
84
87
89
92
91
90
92
97
97
93
99
97
101
101
92
96
96
96
90
89
83
77
76
73
67
63
63
59
58
54
54
48
39
37
39
35
39
39
38
33
30
30
28
27
26
30
28
28
25
21
20
21
22
21
21
20
23
22
18
27
26
25
19
20
17
17
21
27
31
27
24
20
20
15
9
12
15
19
18
16
17
17
15
16
15
13
16
19
17
17
18
17
18
19
15
13
14
14
18
16
13
18
14
13
13
14
6
14
18
23
17
20
14
13
18
13
17
19
15
16
17
10
15
18
20
18
12
18
16
17
14
15
20
13
15
14
4
9
9
14
14
11
12
13
13
18
17
11
10
7
10
11
9
19
16
17
16
12
11
14
22
17
9
15
15
13
8
11
17
18
12
16
22
23
19
15
20
16
19
24
23
22
21
21
24
22
18
20
16
15
15
12
13
11
14
15
16
14
13
9
6
8
10
8
12
11
8
6
5
7
6
9
7
5
9
11
10
6
9
7
4
7
3
5
6
9
7
6
11
7
6
7
4
1
2
3
-4
5
3
7
9
12
27
40
60
91
109
118
129
124
120
109
118
133
135
131
125
84
45
28
23
24
17
11
10
13
11
11
10
8
9
4
5
5
8
8
6
9
7
2
5
7
3
6
7
6
7
11
12
8
4
5
0
-5
0
-1
-2
8
9
8
15
8
4
11
14
10
20
12
8
14
13
14
10
9
17
11
9
14
25
20
19
18
15
9
21
23
12
15
17
19
19
20
25
24
20
36
33
34
40
40
47
44
50
52
55
58
61
62
66
64
65
64
68
69
71
72
67
72
68
64
68
64
53
57
61
61
64
60
52
47
43
44
38
32
33
35
23
21
30
24
26
22
18
19
28
26
29
20
20
18
20
22
26
20
13
15
25
12
13
20
18
16
22
12
10
4
18
16
19
19
16
13
11
6
13
18
19
16
18
15
12
14
13
10
11
11
20
18
23
21
18
16
12
16
19
12
11
11
18
19
17
21
25
16
19
21
20
15
19
20
21
18
18
17
19
15
21
20
17
18
16
19
20
16
20
21
22
22
19
18
22
21
21
25
26
23
27
24
18
15
18
13
18
26
25
22
20
18
27
27
18
23
21
24
25
23
18
25
24
23
22
20
20
29
22
23
27
24
20
17
26
25
28
27
26
29
24
26
26
27
30
27
25
27
29
30
24
23
26
29
30
23
28
23
31
35
41
42
35
32
32
40
21
37
37
33
31
33
27
28
25
28
25
25
31
27
21
18
27
31
27
30
26
30
29
21
25
30
30
24
30
26
31
27
25
28
32
29
26
25
23
23
29
34
28
32
26
26
27
16
26
21
23
30
31
47
52
65
78
97
123
141
153
153
144
136
155
163
166
166
149
96
57
44
57
54
45
42
37
37
36
37
33
33
35
35
32
33
35
34
37
30
33
35
34
34
33
32
34
36
32
40
34
28
40
31
43
36
36
34
33
39
35
39
40
38
38
38
41
46
40
43
48
43
36
44
41
42
47
49
41
35
46
46
47
49
50
49
50
49
53
56
54
50
60
65
64
67
56
65
68
69
72
68
79
93
87
90
90
95
98
100
98
93
97
111
103
115
117
114
105
106
106
108
100
106
97
94
95
92
89
84
85
82
83
81
79
75
71
66
62
64
58
60
56
53
55
53
49
53
49
49
48
53
49
49
51
53
47
54
54
51
48
48
58
53
48
56
61
60
46
50
62
58
53
61
68
55
41
50
53
56
45
52
53
54
53
55
51
51
53
54
56
58
53
54
54
52
51
50
54
54
51
59
56
60
56
63
59
59
60
55
58
52
54
59
61
59
63
61
60
57
51
60
63
60
54
59
70
59
60
65
69
60
55
59
63
60
62
64
58
60
63
59
54
57
56
62
61
57
61
65
69
65
63
60
62
64
65
64
63
49
60
61
59
62
60
62
65
59
62
59
66
60
60
69
69
65
64
61
51
60
68
66
69
63
60
60
60
63
62
62
61
71
64
63
66
67
60
65
61
63
64
65
66
69
67
70
72
81
82
83
71
66
64
68
67
76
78
71
77
78
78
79
76
75
77
77
78
77
77
72
68
65
69
70
66
65
62
68
69
67
66
71
70
67
63
65
64
65
65
66
66
69
70
71
70
69
68
66
68
53
61
62
81
72
67
63
74
70
61
59
55
63
70
69
74
78
87
98
115
145
165
180
190
183
179
175
191
210
200
198
190
145
103
92
88
85
78
80
73
76
75
73
71
75
74
73
78
78
68
71
68
72
78
73
69
69
69
70
76
81
77
76
72
71
69
78
78
83
78
79
81
76
74
74
82
79
76
78
81
77
80
86
94
86
74
69
73
78
80
84
79
81
81
90
88
85
93
98
89
83
88
85
91
96
96
92
94
102
102
103
111
109
112
113
113
120
123
129
131
135
131
138
140
141
151
140
149
143
140
145
153
149
144
143
138
137
145
134
125
131
118
127
118
119
121
116
111
109
108
105
100
99
100
95
88
90
85
82
93
87
90
89
89
90
88
87
89
87
83
84
86
90
85
87
81
86
82
83
86
88
84
80
80
84
80
77
77
90
86
83
84
80
73
77
86
83
84
82
88
87
83
82
76
82
82
84
80
82
81
91
93
88
92
87
88
81
81
75
92
84
87
83
83
89
86
91
91
89
89
93
92
92
87
93
91
86
83
95
91
91
94
90
88
87
88
86
93
88
89
90
92
93
99
92
87
83
80
79
88
89
86
87
88
91
87
85
86
90
89
87
89
80
91
87
87
83
84
92
88
89
87
80
87
91
93
95
95
94
98
97
94
95
97
98
95
101
97
94
92
99
101
101
99
92
92
84
86
80
81
75
70
70
87
87
90
86
82
87
86
85
84
81
82
85
84
76
84
86
85
84
87
87
87
84
82
84
81
88
92
91
87
83
86
79
79
74
77
81
83
74
78
77
73
80
80
87
98
114
134
153
171
195
183
174
169
168
188
191
191
184
157
110
88
84
89
90
89
88
88
87
83
90
87
88
81
86
85
84
79
79
90
84
86
84
74
82
81
87
87
87
90
82
86
77
80
80
87
92
91
88
89
85
91
87
90
88
87
87
91
94
87
91
91
90
89
96
94
92
92
95
90
90
94
98
105
103
100
96
97
98
98
101
112
108
110
117
114
113
119
116
122
125
126
113
133
136
160
148
147
147
151
151
157
156
154
156
158
158
163
162
155
151
153
154
149
149
150
148
144
137
135
130
123
121
119
124
111
111
113
110
102
96
87
94
98
98
96
95
95
94
90
87
87
89
89
87
84
90
94
91
86
89
93
88
88
87
86
86
85
88
89
91
77
86
80
84
84
82
84
85
80
87
87
86
85
84
86
83
87
92
86
88
82
85
84
89
84
80
91
88
90
91
87
86
84
86
90
88
88
90
89
91
87
84
94
90
92
90
91
96
90
88
86
83
89
90
90
89
86
88
83
92
97
93
89
88
92
93
92
95
90
89
90
94
90
86
87
89
87
90
87
87
98
92
90
98
92
94
95
95
94
94
97
92
88
96
95
107
100
102
104
100
101
105
105
104
96
98
99
96
96
97
93
87
90
91
88
84
80
84
84
80
84
85
86
89
91
91
89
86
77
88
86
78
92
89
85
82
81
83
84
90
91
84
84
82
80
82
89
85
83
79
82
77
78
91
87
83
83
81
78
84
87
91
101
110
123
143
168
193
206
199
189
176
191
199
203
200
187
149
120
99
100
97
95
89
86
84
80
85
83
83
84
83
83
84
83
74
77
78
79
81
83
85
85
84
84
89
83
84
82
85
83
83
88
89
86
90
85
86
85
78
81
81
86
85
84
85
90
87
88
87
85
86
85
89
92
83
90
94
90
99
95
91
95
93
97
97
94
99
97
91
105
109
105
105
109
111
110
110
110
117
118
121
123
127
133
131
132
137
145
153
151
145
144
146
144
143
147
146
145
143
143
147
139
134
136
129
126
122
122
119
116
108
104
102
102
94
89
89
97
92
89
93
91
93
88
87
81
74
78
86
81
83
82
80
88
89
85
87
84
84
84
82
86
86
83
74
76
76
82
78
78
77
77
81
86
80
75
74
75
76
76
74
72
76
75
72
71
77
76
72
80
79
75
73
73
73
72
76
78
73
71
72
82
79
76
78
79
80
79
78
76
77
73
76
79
86
87
85
84
79
75
77
78
73
74
83
82
85
84
81
76
70
74
73
72
74
78
73
70
70
68
71
70
70
74
66
68
69
65
66
81
82
71
72
79
71
70
71
78
71
82
80
77
81
79
79
75
72
72
72
76
80
82
77
75
78
82
82
83
82
84
86
85
90
88
83
82
82
72
81
83
81
73
71
71
73
69
68
72
76
75
71
76
73
72
63
70
70
71
69
71
72
70
72
74
68
68
69
73
68
71
66
68
68
69
70
72
74
70
69
70
73
72
69
69
70
74
70
64
62
67
74
76
85
85
97
117
144
164
181
191
182
183
179
191
196
208
211
193
144
105
96
92
87
84
78
74
72
69
66
56
62
63
76
87
73
74
74
73
77
68
66
69
72
66
66
69
69
65
73
68
69
69
69
74
73
73
74
70
83
73
66
70
76
75
67
68
69
69
69
66
64
71
73
71
72
75
81
73
69
74
69
71
74
71
70
71
78
78
85
84
91
94
89
97
92
88
78
82
100
103
97
105
114
115
120
129
120
125
125
130
128
129
124
125
124
130
136
132
138
132
124
121
123
124
116
115
107
104
98
114
108
108
98
94
97
88
91
87
85
75
70
72
76
74
63
62
71
68
65
61
64
68
66
68
64
62
63
60
61
61
64
66
60
56
74
65
61
65
69
64
58
59
65
59
66
66
60
54
55
61
60
60
63
61
61
57
63
61
60
51
55
60
58
60
61
64
64
59
61
60
57
56
57
57
59
62
62
67
60
52
54
52
59
62
60
61
61
64
62
68
60
68
64
68
50
53
44
50
54
50
30
75
63
59
59
66
63
57
68
69
75
65
63
62
50
51
58
58
57
63
69
67
60
58
58
59
65
67
65
62
54
61
52
52
56
61
62
53
68
63
58
62
61
60
61
67
66
64
60
62
63
72
69
71
72
70
60
71
73
73
76
74
72
74
68
75
79
73
69
68
67
68
62
58
60
59
60
61
61
61
52
55
46
57
59
67
65
60
61
55
64
65
59
60
62
57
56
63
58
56
57
53
57
60
56
56
58
59
64
57
55
54
52
54
46
52
46
47
56
63
64
65
77
97
118
153
174
177
177
174
172
167
187
194
195
188
146
112
87
80
77
72
70
65
59
61
61
59
54
56
54
61
63
59
64
59
57
55
54
55
56
54
66
60
63
65
61
57
57
61
61
60
60
57
51
59
62
63
61
55
52
59
56
57
54
60
66
64
64
64
61
59
64
61
63
58
64
66
67
66
62
66
68
69
70
71
69
70
71
79
79
73
71
84
87
74
80
87
91
92
96
105
104
104
108
111
119
113
114
119
118
117
108
127
124
122
126
126
127
123
121
109
106
101
105
108
104
100
98
95
91
88
88
79
77
72
71
67
68
70
67
65
60
61
53
56
60
65
56
66
61
64
60
56
56
54
57
63
57
59
58
61
62
58
51
54
56
60
56
47
53
60
57
58
57
58
57
59
59
55
55
52
59
61
56
57
50
58
63
53
49
58
62
57
51
54
55
50
58
62
57
63
61
59
59
58
60
59
56
58
54
55
57
56
57
55
53
60
57
62
62
65
64
63
58
59
59
57
61
58
55
62
62
61
58
53
59
61
60
57
61
57
69
68
63
65
62
61
62
62
65
64
66
58
66
65
62
67
65
64
68
71
68
66
64
76
74
74
71
70
71
67
67
71
71
69
69
69
69
62
58
54
54
50
61
67
59
61
63
62
59
61
57
62
59
63
62
56
50
58
58
60
58
54
63
61
56
57
59
58
53
58
52
55
47
54
55
64
63
60
58
57
52
50
50
48
50
58
64
73
88
108
133
157
169
170
155
150
154
170
169
169
164
134
90
69
70
71
69
67
67
66
65
65
64
61
60
56
57
57
58
59
63
59
60
60
59
63
59
60
59
58
61
59
57
62
63
62
63
61
60
61
61
62
63
67
67
60
66
63
60
58
69
72
70
64
65
64
70
68
67
63
65
70
74
73
75
76
73
74
72
71
69
72
74
76
82
83
90
89
90
90
93
98
100
101
100
103
110
112
119
120
122
123
121
122
124
129
127
130
126
124
121
122
120
125
128
129
128
125
119
115
110
108
102
100
102
95
91
85
85
87
83
78
75
73
75
71
71
68
67
67
64
68
66
64
63
62
63
68
66
62
65
63
60
63
63
63
66
64
53
54
58
79
70
66
65
63
60
61
62
62
64
64
61
63
59
63
58
56
62
55
58
60
57
59
65
65
66
65
59
63
63
64
65
64
63
62
59
62
55
55
62
72
71
70
65
63
61
66
66
63
65
69
70
64
67
66
66
65
66
63
70
68
64
70
68
67
61
65
60
66
63
64
64
68
64
66
63
62
61
68
65
65
59
61
63
66
69
68
69
70
64
62
66
72
67
70
68
71
73
66
68
68
70
69
69
75
67
75
71
78
76
76
79
78
76
76
76
74
70
68
78
74
73
69
69
67
69
65
65
62
67
71
65
68
66
63
63
63
59
64
64
63
57
67
71
58
61
63
60
62
64
62
60
62
64
61
54
62
63
60
65
68
68
69
67
63
65
60
57
57
59
60
62
69
67
74
87
103
120
139
156
181
181
170
174
178
199
204
199
198
169
122
92
87
76
78
74
78
68
73
74
71
71
68
66
61
58
62
62
66
67
68
62
61
58
66
63
64
59
68
71
67
62
68
68
67
66
66
63
66
64
66
65
66
65
69
68
69
64
70
70
68
70
67
68
65
69
70
72
68
72
69
68
72
76
69
78
74
74
74
73
75
82
84
77
82
85
90
92
91
91
92
90
99
96
98
109
107
112
109
114
112
126
127
125
123
130
127
128
126
126
126
126
118
122
122
117
114
113
111
110
104
102
102
96
94
90
86
72
89
76
75
74
74
73
76
74
71
69
67
66
62
62
66
74
70
63
64
63
65
67
71
65
64
63
63
66
66
66
61
59
62
71
68
69
67
59
63
66
64
58
67
69
67
63
66
62
60
63
64
63
59
58
60
60
63
67
69
68
68
66
66
64
68
66
66
62
60
61
63
62
65
70
68
64
64
65
69
62
61
67
72
67
70
68
65
69
69
65
65
67
63
65
66
65
67
70
65
63
65
62
67
70
71
70
63
59
60
66
64
64
62
64
64
66
64
64
65
64
64
68
66
63
62
61
63
65
58
56
66
74
68
67
68
73
62
57
66
67
63
66
64
68
68
70
73
74
69
78
74
71
70
72
72
73
76
74
72
69
69
61
76
73
66
65
63
67
67
67
60
61
68
63
61
60
60
62
63
60
61
59
57
58
60
66
63
63
67
69
68
65
64
61
59
57
53
60
61
64
63
59
56
65
64
62
62
60
58
52
46
48
66
81
72
77
92
119
146
157
171
173
171
173
167
181
185
187
187
170
125
94
81
79
67
76
73
73
66
70
70
70
67
69
62
64
63
64
61
63
63
63
60
68
64
61
54
65
73
68
66
69
72
66
70
70
68
70
70
65
63
67
69
70
66
66
66
62
61
63
68
73
69
70
71
66
71
71
73
74
71
66
67
69
83
80
78
81
80
76
80
79
80
82
83
86
85
89
92
93
96
99
101
103
105
109
111
114
116
117
117
119
121
127
118
125
132
131
130
132
126
127
123
117
120
118
117
114
110
115
99
106
105
98
97
93
91
90
86
81
79
77
75
77
75
75
71
67
69
67
71
67
65
62
62
63
69
70
71
66
73
68
67
69
66
63
63
66
61
72
72
62
58
68
70
66
68
69
66
64
66
64
65
63
62
63
61
63
62
71
69
67
67
68
65
66
66
68
67
61
61
64
64
64
70
70
71
64
62
65
63
66
68
67
73
69
69
73
70
65
68
70
69
71
67
66
66
70
74
72
69
71
70
67
66
69
71
68
68
70
71
69
71
68
69
73
72
72
69
71
70
69
72
71
67
67
71
71
74
73
73
77
75
76
76
73
68
76
83
83
81
79
83
85
82
81
83
81
80
79
76
76
73
72
74
71
69
70
65
72
71
65
69
69
68
69
68
68
70
71
69
75
64
65
66
71
69
70
66
71
69
68
72
71
66
65
58
69
69
65
64
61
67
67
69
66
64
66
64
70
67
64
66
67
67
78
93
115
133
169
175
168
163
170
162
173
179
178
176
148
107
85
82
81
80
81
79
83
80
75
72
75
75
74
77
73
72
70
71
73
72
71
71
70
67
75
73
69
76
76
72
71
79
66
81
85
83
79
80
76
77
79
75
76
74
74
76
78
81
81
80
79
78
75
77
78
82
79
79
80
85
83
80
75
77
83
88
83
87
89
92
93
96
93
95
96
95
95
99
97
106
113
111
117
119
118
122
117
127
129
129
118
143
141
134
132
136
134
127
129
135
143
133
130
127
125
121
111
106
110
110
98
97
92
91
100
99
98
98
98
90
86
90
84
85
81
83
84
82
84
85
85
79
83
84
64
66
74
73
75
76
69
74
71
71
71
74
73
72
73
75
75
75
75
74
70
71
71
73
72
68
70
70
68
67
67
71
75
71
64
66
72
71
68
72
72
66
65
69
70
73
71
65
69
74
72
70
76
74
71
66
74
66
66
66
74
82
76
76
68
68
71
70
66
65
70
70
67
81
79
73
68
71
70
73
71
64
63
68
69
71
73
72
76
67
65
67
59
64
67
68
64
62
66
58
60
59
64
70
68
61
67
71
70
69
72
73
73
72
75
76
71
69
70
75
66
69
70
75
77
75
74
71
75
66
74
69
66
68
74
74
68
60
58
58
68
71
74
66
53
53
52
57
55
60
65
67
62
57
56
56
62
58
51
59
64
62
57
60
58
64
65
62
67
59
68
71
58
56
62
64
59
61
42
51
51
53
51
66
67
59
83
97
111
147
148
157
156
161
155
151
172
178
174
172
149
97
72
74
71
59
60
53
48
60
67
76
68
54
41
43
46
52
66
61
51
46
44
42
46
54
51
58
53
47
48
46
42
54
59
54
52
48
63
49
48
57
57
53
52
54
54
55
61
58
49
46
46
45
54
64
60
60
57
51
46
58
54
60
60
60
54
57
70
69
63
52
52
61
70
61
68
69
67
69
67
70
71
74
83
91
99
97
94
88
94
96
108
99
89
103
93
89
86
107
111
122
113
105
98
87
91
86
80
87
89
81
80
85
81
72
64
65
61
56
58
58
56
55
63
56
56
49
47
53
46
40
45
42
40
39
44
46
49
51
53
52
51
41
40
41
45
49
52
52
44
45
51
40
54
42
47
41
45
42
42
44
50
58
49
37
39
38
31
44
55
66
55
53
46
44
41
49
51
47
51
48
45
40
44
51
55
52
47
42
45
50
41
40
56
62
58
49
51
50
49
54
51
52
52
41
56
53
50
46
52
49
47
46
46
44
52
49
51
49
56
52
49
54
55
50
48
49
48
58
56
54
51
54
49
42
39
48
54
52
54
47
46
60
54
54
55
53
50
48
56
58
55
58
54
49
50
60
50
50
49
48
59
57
67
59
54
58
56
58
55
55
64
56
53
55
58
60
61
61
59
60
68
61
70
65
58
63
66
64
65
66
63
65
68
62
64
68
63
64
65
60
56
61
68
62
60
62
63
57
55
57
57
54
58
52
54
55
57
55
66
58
58
55
54
57
56
56
53
55
53
53
60
61
56
55
57
58
55
56
60
59
53
52
49
48
55
58
67
79
86
105
125
146
155
170
175
165
158
162
182
175
180
185
151
102
86
81
72
69
70
70
65
64
64
59
60
64
57
62
61
63
61
60
56
55
57
68
62
60
62
60
61
59
58
60
64
61
62
65
67
64
66
63
63
64
61
59
66
69
64
61
67
69
65
64
64
59
63
71
68
65
69
64
65
66
75
72
74
75
70
73
69
65
74
71
79
80
78
82
81
80
88
85
90
91
95
94
101
101
103
109
112
109
110
111
114
116
119
119
116
118
124
124
125
118
125
120
119
119
119
107
102
106
109
111
101
94
93
94
86
84
85
84
81
73
72
70
70
70
66
63
69
67
61
64
64
64
59
57
58
70
72
63
60
60
60
62
63
57
61
58
63
65
61
60
60
62
63
59
59
66
62
63
60
58
58
60
62
63
67
68
59
58
47
57
63
62
56
60
62
57
63
59
58
57
53
54
62
71
61
58
61
64
65
61
61
64
63
58
57
65
61
53
59
67
57
64
63
62
63
63
62
61
66
70
68
67
64
65
67
66
59
62
63
59
63
64
61
57
65
64
68
64
61
63
61
67
63
65
61
57
62
58
57
63
61
66
66
65
63
60
68
66
71
69
67
69
70
69
69
67
68
67
67
75
72
71
78
81
72
69
70
75
69
75
73
69
68
61
55
62
66
62
64
66
62
60
54
61
64
61
58
59
60
62
60
64
59
55
57
58
64
63
63
64
68
53
56
58
59
59
58
62
64
57
58
61
62
62
62
53
60
57
60
56
53
54
59
61
61
76
88
105
133
154
161
160
159
158
148
168
173
168
164
142
98
76
66
67
68
69
69
65
66
66
64
57
56
60
66
64
64
59
54
62
58
62
57
57
57
57
56
60
67
60
59
64
60
59
57
58
54
55
62
63
61
66
62
65
73
61
55
58
61
63
63
68
65
63
66
64
59
60
70
66
68
64
71
69
69
70
68
65
67
74
79
82
72
76
78
86
81
80
91
88
90
92
94
96
103
104
98
109
105
120
116
116
116
117
125
118
123
122
121
123
123
117
120
118
117
114
106
102
99
106
108
98
87
87
85
83
82
79
78
73
72
70
64
62
65
62
70
68
61
65
66
56
61
53
57
59
62
59
57
56
56
60
64
55
53
57
56
58
68
58
58
56
55
55
55
58
54
58
55
55
61
57
52
55
57
52
57
58
59
55
54
55
56
53
56
56
57
52
57
61
51
61
62
58
54
51
55
59
57
61
64
57
59
60
61
62
63
60
62
63
62
62
59
58
59
57
63
67
61
66
62
61
62
61
62
61
62
65
73
73
69
69
68
68
69
70
72
71
72
72
70
67
69
78
78
75
67
68
69
76
74
72
70
71
65
65
60
61
66
65
63
61
61
57
52
55
58
72
59
57
56
59
61
64
65
53
58
64
60
58
60
58
55
57
60
59
67
60
58
58
56
58
62
61
55
55
52
51
53
52
62
56
55
65
83
99
121
138
160
165
174
167
157
159
173
183
175
168
134
90
72
77
77
69
66
65
68
61
60
58
60
59
63
59
58
57
58
62
59
52
54
57
63
66
59
60
57
63
59
62
54
63
61
59
57
63
58
65
59
60
61
65
56
58
59
67
66
62
62
62
59
60
61
65
64
71
59
64
65
70
74
67
67
67
64
73
75
71
70
75
76
68
75
78
78
77
86
81
85
95
94
101
93
101
104
102
107
109
108
111
109
113
120
122
122
120
121
118
120
118
119
114
114
110
111
108
100
102
98
91
88
81
90
76
82
80
74
75
69
70
67
60
62
64
69
62
52
62
52
59
61
60
56
60
57
56
63
62
61
57
60
57
56
55
57
59
49
66
62
57
57
61
53
55
56
55
58
62
61
44
57
51
57
57
57
58
54
50
58
59
57
49
51
54
60
61
54
54
62
59
54
52
52
54
59
55
54
55
47
59
60
58
58
63
54
56
50
61
60
57
48
58
58
58
53
53
54
56
63
57
53
56
53
51
59
59
59
58
56
57
60
63
58
59
62
57
54
60
59
64
59
56
67
74
61
60
62
69
67
56
69
61
59
59
63
59
51
67
67
64
61
60
56
52
56
52
50
49
47
44
51
50
45
39
43
45
52
48
53
51
47
47
46
44
47
52
47
44
45
47
45
43
39
35
40
63
43
44
46
45
39
47
43
32
38
40
49
47
58
65
85
90
133
144
152
161
158
155
146
168
171
179
180
145
94
69
56
60
57
56
49
45
44
42
43
43
40
40
41
37
35
39
36
43
38
30
31
33
48
45
40
37
43
43
39
39
34
33
33
45
40
34
33
37
38
40
33
39
37
33
28
25
39
40
34
40
37
44
35
41
38
40
36
37
32
32
36
49
52
47
46
41
36
42
45
42
45
47
45
46
50
46
44
49
70
59
55
61
65
68
70
71
73
77
78
88
78
77
78
81
89
83
86
85
81
73
78
78
85
81
74
65
59
58
61
56
52
51
48
44
41
38
34
27
31
25
18
26
27
26
19
18
23
17
20
17
19
20
17
17
15
21
14
16
22
18
14
14
17
12
9
14
11
9
11
9
7
13
6
5
7
17
10
17
15
12
7
8
5
9
9
10
8
10
9
5
0
4
4
8
4
9
10
8
1
17
0
8
4
4
4
5
8
4
3
1
-7
11
2
-1
9
9
5
7
4
3
3
2
8
6
-2
-1
13
4
-4
6
7
4
4
0
0
1
4
3
0
-3
-4
4
-2
-10
1
15
1
0
-1
2
2
2
-3
0
-8
-2
-2
-6
24
25
10
2
7
-2
5
7
9
8
4
8
6
3
5
0
-3
-7
-11
-10
-8
-14
-20
-1
-12
-13
-15
-14
-12
-5
-14
-6
-8
-5
-21
-19
-14
0
-11
-17
-7
-8
-12
-15
-12
-13
-15
-12
-13
-11
-10
-12
-11
-12
-9
-16
-20
-18
-13
-14
-13
-15
-5
-25
-23
-21
-13
-6
2
13
34
56
88
78
111
103
109
92
107
115
119
114
100
55
22
6
8
2
-2
-2
-4
-4
-5
-9
-9
-12
-11
-9
-15
-13
-6
-12
-9
-6
-12
-2
-14
-12
-14
-14
-14
-11
-13
-12
-12
-7
-5
-10
-5
-3
2
2
-11
-9
-7
-6
-12
-2
-2
-6
-7
-3
1
-3
0
8
3
0
-4
2
-1
3
2
1
5
7
8
8
7
9
9
4
9
12
8
12
15
28
18
27
26
29
32
25
29
32
25
45
51
44
48
61
52
59
63
69
73
62
69
64
69
70
70
69
69
64
64
69
68
67
61
53
43
47
49
50
57
47
38
42
33
32
35
33
35
26
29
31
34
26
26
27
22
27
32
33
29
34
32
31
25
27
33
41
38
35
30
30
28
35
32
44
48
38
40
36
43
49
48
40
45
46
44
48
49
50
42
48
51
49
48
49
50
48
55
64
56
54
53
53
64
71
60
63
57
52
65
77
73
71
68
62
79
76
78
82
79
84
75
83
88
82
89
87
85
85
86
86
89
94
93
90
89
94
97
100
99
102
100
107
109
117
105
112
117
120
115
114
114
118
123
126
119
150
126
128
131
131
137
126
132
139
137
139
132
135
142
134
134
137
129
143
135
143
136
134
136
138
138
136
145
155
143
149
154
155
152
152
149
164
161
152
160
159
161
162
164
170
167
171
171
174
173
175
176
177
174
176
176
170
179
179
178
182
183
195
214
238
265
283
297
298
299
302
297
305
315
319
312
277
238
224
222
214
220
230
228
224
223
224
228
226
226
229
228
229
221
232
230
234
236
236
241
241
236
238
241
249
260
254
245
249
253
257
255
257
261
261
262
257
263
276
272
265
269
271
280
275
270
275
284
279
279
286
291
293
284
291
288
295
295
301
309
307
301
303
311
313
318
316
317
317
329
331
324
321
334
339
336
344
349
354
358
365
358
361
366
375
378
381
390
386
387
389
389
389
395
403
395
392
399
409
399
397
400
399
395
393
389
389
391
381
382
390
377
378
379
373
368
370
370
377
372
369
368
377
371
368
370
374
376
373
383
375
380
376
371
368
392
389
397
389
389
384
389
389
390
389
392
394
