-196
-187
-176
-188
-189
-185
-177
-174
-183
-188
-185
-187
-186
-184
-183
-190
-189
-188
-181
-184
-182
-180
-182
-184
-182
-175
-179
-181
-189
-189
-183
-194
-186
-183
-184
-178
-179
-184
-183
-181
-185
-180
-183
-174
-175
-176
-177
-179
-180
-170
-181
-182
-181
-178
-181
-185
-180
-171
-176
-180
-172
-169
-184
-181
-187
-191
-181
-177
-174
-175
-181
-184
-186
-184
-185
-180
-184
-179
-182
-180
-182
-183
-180
-185
-179
-177
-182
-182
-181
-182
-179
-181
-182
-178
-177
-182
-180
-184
-179
-184
-171
-167
-176
-187
-184
-184
-182
-181
-182
-182
-185
-194
-184
-181
-180
-184
-178
-180
-185
-179
-183
-186
-180
-179
-179
-180
-177
-173
-184
-179
-188
-194
-189
-181
-177
-181
-177
-176
-174
-178
-178
-171
-163
-177
-181
-181
-179
-179
-171
-170
-178
-168
-171
-170
-166
-171
-174
-166
-158
-154
-170
-174
-174
-175
-173
-167
-173
-178
-179
-183
-182
-187
-179
-178
-166
-175
-185
-178
-173
-183
-184
-184
-178
-174
-181
-182
-183
-180
-186
-182
-178
-180
-174
-175
-172
-191
-186
-183
-180
-179
-173
-182
-178
-181
-181
-181
-181
-188
-180
-185
-191
-192
-197
-206
-213
-213
-204
-192
-173
-172
-148
-117
-87
-56
-26
0
19
13
13
-2
-18
-36
-56
-83
-110
-126
-136
-135
-133
-137
-157
-167
-169
-170
-174
-176
-176
-178
-176
-175
-180
-178
-175
-172
-173
-171
-173
-177
-172
-174
-183
-182
-174
-173
-174
-173
-179
-180
-165
-168
-171
-170
-172
-177
-177
-165
-153
-166
-169
-170
-168
-167
-166
-170
-168
-169
-162
-156
-156
-172
-174
-167
-167
-163
-165
-161
-158
-156
-160
-161
-156
-153
-158
-157
-156
-148
-147
-149
-154
-151
-159
-154
-150
-140
-135
-135
-133
-140
-127
-127
-127
-127
-129
-131
-127
-123
-121
-129
-120
-121
-120
-115
-111
-117
-119
-120
-123
-116
-123
-125
-130
-134
-126
-127
-121
-129
-141
-137
-137
-140
-142
-142
-149
-144
-134
-132
-150
-166
-163
-162
-154
-153
-153
-153
-135
-152
-165
-172
-166
-160
-174
-168
-176
-166
-167
-155
-160
-169
-164
-164
-159
-161
-161
-166
-166
-166
-164
-166
-172
-171
-168
-167
-169
-172
-175
-167
-156
-155
-156
-165
-166
-164
-159
-162
-169
-162
-164
-164
-170
-168
-162
-164
-163
-169
-169
-167
-164
-159
-161
-161
-161
-167
-163
-162
-160
-161
-169
-165
-165
-171
-169
-168
-162
-164
-155
-154
-162
-156
-157
-156
-163
-157
-156
-167
-159
-163
-154
-159
-157
-157
-156
-155
-154
-156
-164
-163
-155
-157
-159
-150
-156
-155
-153
-153
-157
-159
-160
-169
-165
-155
-152
-145
-152
-150
-152
-160
-163
-156
-156
-155
-152
-148
-154
-156
-156
-158
-159
-157
-151
-153
-161
-155
-161
-152
-151
-157
-157
-157
-157
-156
-155
-163
-159
-154
-154
-152
-151
-153
-155
-155
-160
-156
-164
-157
-159
-158
-155
-153
-158
-156
-142
-151
-153
-155
-151
-158
-157
-157
-157
-163
-155
-159
-153
-151
-153
-157
-155
-153
-151
-157
-158
-159
-158
-152
-151
-150
-162
-151
-152
-149
-155
-150
-149
-148
-153
-146
-155
-149
-142
-132
-138
-146
-143
-142
-145
-138
-134
-142
-145
-141
-141
-144
-143
-144
-139
-144
-150
-155
-151
-150
-150
-153
-149
-155
-154
-153
-160
-156
-153
-150
-152
-163
-155
-157
-163
-157
-159
-164
-153
-147
-158
-155
-153
-150
-152
-152
-158
-161
-162
-157
-156
-157
-159
-156
-158
-155
-158
-159
-163
-164
-166
-166
-180
-177
-191
-190
-176
-155
-140
-131
-109
-82
-56
-19
8
23
39
38
21
14
-7
-25
-46
-79
-104
-115
-113
-120
-131
-132
-137
-144
-147
-147
-150
-161
-162
-166
-163
-155
-152
-149
-154
-151
-151
-151
-153
-164
-154
-159
-160
-159
-159
-154
-151
-155
-152
-153
-145
-145
-148
-159
-148
-148
-151
-160
-150
-147
-153
-147
-151
-143
-143
-154
-151
-149
-147
-150
-152
-149
-146
-142
-140
-136
-138
-137
-144
-147
-137
-133
-132
-145
-139
-130
-135
-134
-132
-127
-128
-129
-133
-125
-125
-126
-123
-122
-110
-115
-110
-111
-113
-107
-112
-102
-100
-106
-112
-105
-92
-95
-100
-106
-97
-99
-101
-105
-107
-101
-105
-107
-107
-96
-104
-111
-111
-119
-122
-120
-121
-116
-119
-122
-126
-123
-133
-124
-139
-140
-141
-148
-143
-144
-138
-140
-140
-144
-145
-145
-142
-149
-151
-143
-149
-144
-149
-154
-155
-157
-153
-151
-152
-152
-152
-150
-146
-149
-156
-153
-149
-154
-158
-154
-152
-158
-157
-157
-149
-152
-158
-155
-156
-156
-167
-160
-155
-154
-152
-148
-161
-160
-153
-149
-151
-164
-157
-154
-150
-161
-159
-158
-158
-166
-162
-164
-152
-146
-155
-154
-153
-151
-164
-168
-161
-158
-155
-152
-155
-149
-149
-146
-154
-161
-159
-152
-160
-159
-155
-147
-147
-150
-157
-152
-156
-155
-146
-139
-151
-157
-152
-156
-151
-147
-148
-155
-153
-163
-158
-152
-149
-153
-155
-150
-152
-151
-152
-159
-156
-150
-149
-147
-153
-156
-151
-157
-155
-156
-156
-162
-156
-159
-153
-152
-150
-149
-146
-153
-158
-152
-162
-156
-150
-152
-148
-155
-158
-154
-155
-157
-164
-159
-157
-153
-155
-153
-158
-165
-154
-148
-149
-162
-160
-152
-152
-150
-163
-161
-155
-157
-150
-151
-149
-153
-158
-158
-157
-157
-159
-154
-156
-152
-150
-156
-154
-151
-156
-160
-154
-147
-148
-147
-152
-150
-150
-146
-152
-156
-144
-148
-150
-150
-142
-142
-140
-137
-135
-140
-145
-151
-151
-157
-143
-137
-137
-150
-152
-157
-161
-153
-155
-153
-155
-154
-161
-158
-155
-155
-156
-158
-161
-157
-144
-160
-162
-165
-162
-160
-158
-154
-156
-157
-157
-153
-150
-149
-164
-160
-151
-152
-159
-165
-156
-163
-162
-155
-145
-159
-176
-171
-176
-182
-184
-184
-189
-178
-170
-153
-136
-110
-84
-48
-15
9
36
45
46
21
10
-2
-18
-42
-82
-110
-122
-113
-117
-125
-132
-134
-135
-140
-154
-151
-155
-156
-162
-153
-147
-153
-151
-153
-155
-157
-162
-151
-146
-147
-150
-152
-151
-153
-149
-152
-146
-152
-147
-144
-152
-145
-136
-144
-145
-145
-147
-151
-144
-143
-141
-142
-151
-146
-148
-152
-137
-126
-136
-148
-147
-142
-138
-138
-137
-136
-135
-133
-135
-137
-136
-134
-125
-127
-129
-133
-128
-119
-125
-122
-122
-118
-116
-119
-110
-115
-107
-103
-106
-106
-104
-107
-99
-101
-107
-110
-97
-94
-92
-90
-96
-88
-91
-94
-88
-88
-85
-98
-102
-95
-98
-101
-98
-102
-108
-107
-108
-112
-115
-117
-118
-117
-121
-119
-118
-120
-124
-127
-128
-126
-134
-134
-135
-134
-121
-128
-144
-141
-141
-145
-139
-140
-131
-142
-150
-141
-136
-148
-140
-141
-145
-145
-141
-137
-145
-143
-138
-139
-139
-141
-145
-147
-145
-140
-142
-146
-147
-145
-140
-147
-140
-143
-136
-139
-143
-143
-145
-144
-150
-143
-148
-145
-139
-139
-150
-146
-152
-142
-140
-144
-148
-145
-137
-140
-146
-151
-140
-144
-138
-139
-145
-139
-147
-139
-147
-144
-143
-139
-139
-142
-137
-137
-144
-140
-139
-129
-123
-127
-136
-145
-143
-140
-135
-141
-141
-132
-134
-131
-132
-139
-137
-125
-131
-145
-145
-137
-139
-144
-136
-137
-134
-136
-140
-137
-131
-139
-143
-138
-138
-140
-141
-137
-127
-132
-143
-140
-141
-146
-145
-146
-140
-143
-140
-136
-136
-134
-138
-138
-132
-137
-144
-136
-138
-136
-141
-143
-130
-131
-137
-130
-146
-147
-145
-149
-139
-138
-129
-143
-142
-140
-140
-141
-135
-144
-148
-143
-144
-145
-140
-139
-140
-133
-126
-131
-134
-144
-137
-135
-128
-133
-137
-138
-135
-126
-125
-128
-131
-127
-126
-127
-125
-120
-118
-126
-122
-133
-127
-129
-129
-127
-128
-130
-132
-132
-132
-139
-134
-141
-150
-142
-135
-127
-133
-142
-140
-136
-135
-135
-130
-133
-144
-144
-141
-140
-139
-142
-143
-134
-137
-139
-137
-134
-140
-139
-137
-142
-142
-140
-137
-134
-132
-140
-144
-137
-140
-135
-149
-161
-170
-172
-167
-153
-158
-147
-121
-99
-74
-48
-17
16
44
56
61
58
41
21
5
-14
-41
-70
-90
-100
-100
-103
-103
-109
-123
-123
-125
-134
-136
-130
-130
-132
-133
-130
-127
-130
-127
-121
-127
-134
-136
-133
-130
-134
-131
-129
-130
-122
-127
-126
-119
-127
-126
-126
-128
-131
-129
-124
-122
-123
-124
-124
-128
-120
-125
-128
-129
-121
-120
-121
-115
-105
-107
-120
-127
-121
-112
-116
-118
-112
-111
-105
-112
-116
-112
-109
-103
-99
-104
-108
-106
-101
-99
-99
-97
-98
-92
-104
-87
-89
-86
-79
-84
-84
-83
-81
-81
-78
-77
-84
-62
-64
-72
-74
-73
-72
-71
-72
-72
-71
-80
-76
-74
-85
-79
-79
-89
-85
-78
-73
-83
-90
-96
-101
-103
-109
-102
-103
-104
-109
-110
-109
-102
-102
-116
-118
-112
-111
-106
-115
-129
-121
-123
-120
-115
-118
-121
-117
-121
-124
-124
-117
-113
-128
-127
-126
-125
-115
-119
-121
-126
-126
-123
-129
-129
-119
-115
-116
-125
-129
-121
-123
-119
-127
-131
-124
-122
-117
-118
-121
-115
-111
-130
-138
-128
-125
-128
-120
-119
-133
-121
-124
-123
-126
-114
-118
-127
-127
-121
-121
-117
-121
-119
-123
-123
-123
-125
-118
-113
-117
-116
-118
-128
-120
-112
-115
-113
-114
-110
-108
-115
-116
-115
-108
-113
-118
-126
-114
-115
-119
-118
-111
-111
-122
-119
-121
-116
-114
-115
-112
-118
-112
-111
-122
-122
-119
-114
-113
-120
-124
-120
-113
-117
-125
-123
-119
-115
-107
-118
-123
-113
-114
-115
-123
-122
-119
-122
-118
-124
-110
-104
-118
-113
-118
-121
-123
-120
-116
-120
-116
-115
-118
-119
-115
-112
-113
-116
-119
-122
-121
-115
-117
-110
-115
-111
-110
-113
-111
-105
-106
-109
-108
-114
-104
-106
-96
-98
-97
-102
-104
-99
-111
-112
-108
-104
-111
-105
-102
-108
-117
-118
-114
-122
-125
-117
-121
-116
-118
-115
-118
-117
-115
-116
-113
-118
-124
-115
-117
-116
-112
-118
-121
-120
-124
-123
-117
-112
-114
-115
-113
-121
-118
-116
-116
-119
-119
-118
-114
-122
-134
-150
-151
-142
-145
-139
-139
-120
-98
-82
-55
-30
5
42
73
80
86
72
63
42
26
6
-29
-61
-81
-82
-79
-86
-87
-97
-103
-100
-99
-105
-110
-118
-125
-118
-110
-115
-110
-108
-112
-113
-113
-113
-110
-111
-110
-108
-112
-104
-109
-111
-114
-116
-111
-114
-105
-104
-104
-105
-94
-104
-99
-103
-99
-101
-112
-103
-99
-103
-107
-104
-110
-106
-105
-105
-101
-97
-99
-96
-94
-94
-92
-93
-94
-96
-96
-96
-93
-90
-84
-81
-83
-84
-82
-85
-86
-82
-85
-79
-76
-79
-77
-73
-64
-65
-57
-62
-60
-67
-56
-57
-56
-56
-55
-49
-54
-48
-44
-50
-56
-61
-57
-54
-54
-58
-61
-67
-69
-66
-61
-67
-64
-71
-75
-72
-74
-80
-81
-85
-80
-84
-90
-86
-85
-89
-93
-88
-99
-93
-90
-100
-103
-97
-96
-95
-101
-101
-101
-107
-100
-103
-100
-98
-108
-109
-103
-99
-101
-108
-101
-108
-108
-104
-108
-103
-105
-98
-105
-111
-106
-112
-105
-104
-103
-109
-110
-110
-110
-110
-100
-104
-109
-107
-106
-104
-106
-110
-110
-104
-113
-97
-104
-109
-108
-100
-105
-103
-106
-93
-97
-93
-101
-115
-120
-104
-95
-102
-99
-102
-103
-99
-104
-102
-99
-99
-99
-101
-105
-103
-101
-94
-98
-98
-99
-97
-97
-96
-101
-99
-98
-101
-101
-97
-94
-93
-100
-92
-94
-101
-95
-94
-99
-96
-101
-97
-100
-100
-91
-96
-105
-87
-90
-108
-106
-102
-95
-97
-101
-100
-106
-106
-99
-96
-96
-98
-107
-98
-91
-94
-97
-97
-97
-102
-99
-98
-95
-97
-94
-95
-93
-89
-93
-88
-90
-92
-93
-91
-92
-93
-93
-87
-86
-92
-90
-83
-88
-88
-80
-77
-94
-99
-95
-94
-101
-105
-103
-103
-95
-94
-100
-96
-102
-102
-105
-105
-101
-104
-103
-98
-95
-102
-103
-104
-95
-95
-104
-102
-100
-98
-97
-103
-114
-107
-104
-97
-94
-96
-107
-109
-108
-103
-95
-108
-110
-109
-110
-124
-140
-137
-130
-127
-115
-93
-83
-67
-36
0
34
65
86
97
97
90
74
59
33
4
-30
-50
-67
-70
-63
-67
-81
-81
-82
-98
-103
-100
-94
-90
-97
-102
-101
-101
-105
-102
-96
-84
-96
-100
-100
-97
-99
-97
-96
-99
-101
-89
-86
-99
-98
-89
-87
-90
-99
-96
-101
-96
-87
-92
-87
-93
-87
-88
-94
-92
-91
-88
-77
-71
-81
-90
-91
-88
-94
-82
-82
-77
-76
-82
-78
-75
-78
-74
-76
-82
-76
-72
-71
-55
-65
-75
-64
-66
-65
-64
-57
-47
-60
-61
-52
-48
-50
-48
-50
-50
-44
-42
-45
-52
-52
-43
-31
-36
-36
-44
-43
-41
-42
-40
-48
-53
-40
-45
-45
-49
-45
-53
-64
-63
-60
-63
-66
-61
-58
-61
-72
-79
-74
-71
-76
-76
-81
-87
-83
-88
-80
-82
-89
-91
-84
-82
-85
-84
-98
-95
-89
-84
-91
-87
-89
-92
-88
-97
-96
-86
-91
-92
-91
-92
-86
-94
-96
-92
-90
-94
-98
-95
-98
-93
-100
-96
-92
-90
-87
-95
-97
-98
-88
-91
-95
-99
-101
-93
-88
-87
-92
-95
-96
-91
-85
-86
-87
-89
-88
-81
-74
-91
-101
-98
-93
-95
-91
-86
-85
-87
-91
-96
-90
-86
-87
-86
-79
-81
-82
-84
-88
-88
-75
-80
-88
-91
-84
-89
-88
-84
-80
-84
-85
-88
-82
-83
-91
-82
-73
-86
-85
-86
-89
-85
-88
-93
-91
-86
-86
-83
-89
-92
-92
-84
-81
-86
-89
-87
-79
-81
-95
-85
-76
-80
-85
-91
-84
-82
-78
-82
-83
-85
-97
-85
-86
-86
-82
-71
-69
-74
-88
-81
-71
-73
-76
-71
-78
-81
-73
-69
-74
-79
-76
-84
-80
-79
-77
-84
-91
-85
-89
-93
-87
-86
-85
-95
-89
-85
-81
-90
-94
-91
-88
-84
-86
-90
-94
-94
-92
-92
-79
-83
-84
-84
-86
-74
-82
-81
-91
-88
-86
-93
-88
-87
-88
-85
-89
-91
-104
-105
-103
-100
-116
-119
-109
-99
-84
-58
-30
2
29
64
89
106
107
103
86
86
79
53
18
-13
-40
-60
-59
-53
-63
-79
-79
-78
-64
-81
-82
-81
-83
-85
-82
-91
-86
-88
-87
-86
-81
-80
-76
-90
-93
-85
-73
-79
-87
-88
-83
-87
-86
-84
-73
-80
-79
-68
-79
-82
-83
-72
-74
-72
-68
-69
-72
-71
-76
-78
-68
-74
-74
-70
-67
-74
-75
-69
-68
-68
-66
-63
-57
-61
-60
-54
-61
-60
-62
-61
-58
-57
-48
-47
-44
-51
-48
-41
-37
-43
-47
-41
-41
-38
-34
-37
-39
-30
-27
-25
-22
-25
-28
-25
-23
-32
-26
-20
-30
-31
-29
-25
-26
-27
-37
-37
-38
-35
-42
-41
-37
-47
-46
-45
-53
-45
-47
-58
-56
-61
-62
-66
-70
-64
-66
-67
-61
-59
-74
-73
-75
-78
-74
-77
-78
-78
-82
-80
-74
-77
-78
-82
-78
-72
-81
-81
-74
-81
-82
-77
-77
-84
-82
-79
-80
-78
-78
-86
-82
-78
-75
-85
-90
-83
-86
-81
-80
-81
-63
-78
-90
-90
-87
-84
-81
-83
-72
-78
-86
-82
-80
-86
-80
-77
-76
-79
-81
-74
-77
-81
-83
-86
-73
-63
-68
-73
-71
-69
-67
-63
-70
-79
-73
-70
-73
-76
-72
-73
-62
-69
-68
-66
-70
-73
-61
-44
-65
-73
-79
-74
-66
-75
-76
-64
-68
-73
-80
-74
-82
-75
-65
-60
-64
-68
-70
-75
-78
-76
-73
-73
-69
-65
-68
-63
-66
-78
-72
-71
-72
-69
-58
-49
-65
-71
-68
-65
-67
-63
-62
-47
-47
-63
-59
-70
-48
-57
-69
-68
-67
-74
-71
-66
-66
-79
-74
-71
-76
-70
-76
-64
-70
-63
-66
-73
-79
-76
-72
-72
-68
-68
-71
-80
-77
-74
-73
-71
-67
-67
-63
-75
-73
-76
-76
-74
-76
-72
-69
-62
-73
-75
-67
-68
-78
-81
-75
-84
-86
-88
-91
-104
-96
-81
-71
-54
-23
-7
26
67
94
104
93
85
80
75
76
52
30
-5
-34
-47
-52
-56
-63
-68
-65
-69
-68
-65
-69
-68
-71
-78
-78
-70
-68
-68
-67
-62
-53
-58
-71
-64
-67
-66
-69
-72
-66
-67
-62
-59
-58
-62
-63
-54
-59
-59
-53
-63
-64
-54
-48
-55
-59
-59
-56
-44
-56
-61
-58
-52
-48
-58
-57
-51
-52
-46
-36
-38
-50
-45
-44
-55
-40
-45
-46
-41
-32
-36
-28
-21
-32
-38
-38
-39
-24
-27
-22
-21
-28
-23
-11
-14
-11
-11
-10
-5
-5
1
-1
-6
-8
1
2
-4
-2
-4
-2
-6
-11
2
-5
-6
-18
-21
-1
3
0
-16
-14
-12
-21
-25
-31
-26
-27
-29
-36
-35
-37
-35
-26
-36
-43
-38
-36
-43
-42
-42
-37
-34
-42
-48
-54
-54
-47
-51
-50
-46
-59
-54
-42
-50
-53
-53
-55
-59
-51
-51
-47
-44
-53
-57
-52
-59
-58
-57
-59
-51
-44
-50
-61
-55
-48
-49
-60
-53
-54
-56
-51
-51
-49
-57
-56
-52
-55
-41
-41
-51
-51
-49
-50
-53
-52
-44
-41
-43
-43
-42
-43
-43
-47
-48
-41
-43
-45
-39
-40
-46
-41
-45
-38
-35
-28
-36
-44
-42
-42
-45
-56
-37
-43
-41
-40
-45
-49
-45
-37
-39
-48
-48
-49
-42
-40
-35
-34
-39
-43
-37
-38
-46
-51
-49
-40
-44
-42
-36
-31
-32
-38
-50
-46
-45
-43
-38
-37
-43
-36
-41
-40
-45
-43
-37
-27
-22
-28
-34
-33
-41
-36
-32
-28
-33
-44
-46
-51
-39
-42
-46
-48
-49
-47
-46
-43
-53
-50
-50
-39
-41
-43
-48
-46
-43
-44
-43
-42
-46
-46
-44
-44
-49
-53
-46
-46
-41
-49
-47
-55
-42
-38
-39
-51
-48
-42
-43
-51
-56
-60
-68
-68
-73
-70
-61
-55
-49
-45
-25
-6
20
53
95
118
119
128
127
123
108
98
88
63
33
8
-17
-26
-33
-29
-35
-30
-31
-27
-37
-38
-37
-41
-47
-51
-48
-40
-35
-34
-43
-43
-42
-45
-47
-38
-31
-34
-36
-44
-45
-43
-43
-42
-35
-35
-38
-43
-31
-38
-44
-42
-34
-36
-41
-34
-32
-33
-28
-32
-31
-37
-32
-31
-31
-25
-24
-30
-28
-29
-31
-33
-19
-22
-21
-23
-23
-23
-22
-17
-17
-20
-17
-16
-22
-17
-17
-6
-12
-2
1
-3
0
1
-1
5
12
10
19
14
10
3
-1
3
14
14
14
20
12
7
5
10
12
-2
1
8
5
1
-3
-1
-12
-5
-4
-5
-6
-10
-20
-23
-27
-26
-17
-24
-20
-21
-23
-29
-27
-24
-27
-28
-38
-42
-37
-30
-36
-26
-28
-40
-38
-37
-40
-36
-38
-49
-47
-49
-39
-37
-37
-42
-37
-42
-47
-43
-38
-33
-41
-56
-51
-39
-37
-43
-44
-47
-42
-42
-47
-48
-44
-38
-39
-42
-49
-40
-38
-44
-44
-40
-44
-42
-47
-46
-47
-42
-44
-40
-42
-37
-33
-38
-35
-36
-37
-42
-38
-37
-33
-37
-29
-30
-34
-37
-36
-34
-35
-37
-38
-37
-37
-42
-31
-36
-30
-24
-31
-35
-38
-34
-35
-25
-27
-36
-30
-36
-41
-34
-35
-36
-32
-34
-34
-25
-24
-31
-39
-37
-31
-29
-34
-29
-35
-29
-24
-31
-31
-34
-34
-39
-34
-35
-32
-26
-25
-27
-22
-20
-23
-26
-19
-19
-23
-29
-33
-33
-34
-39
-41
-38
-29
-30
-36
-41
-38
-34
-31
-36
-39
-34
-32
-41
-42
-43
-45
-43
-38
-34
-26
-37
-38
-42
-36
-36
-39
-46
-40
-32
-35
-39
-39
-40
-34
-34
-34
-38
-38
-43
-52
-51
-50
-57
-61
-65
-63
-60
-55
-55
-27
-5
25
53
83
102
124
146
153
146
135
114
111
89
53
29
9
-2
2
-2
-9
-14
-29
-33
-34
-34
-35
-36
-32
-35
-23
-35
-38
-37
-37
-37
-37
-35
-31
-32
-32
-43
-42
-34
-31
-35
-34
-35
-32
-30
-28
-34
-36
-38
-32
-32
-24
-29
-23
-22
-26
-32
-29
-26
-28
-22
-27
-23
-30
-28
-31
-23
-26
-29
-23
-22
-18
-20
-19
-15
-14
-10
-15
-15
-18
-22
-24
-9
-10
-7
-7
-9
-7
-7
-4
-3
7
23
17
6
13
20
16
-1
8
10
13
14
12
19
17
18
16
18
9
9
14
14
11
10
8
9
5
1
3
0
5
1
-5
-2
-6
-11
-21
-10
-18
-23
-14
-8
-5
-20
-25
-38
-37
-25
-20
-22
-34
-34
-22
-21
-35
-31
-26
-19
-24
-31
-31
-44
-39
-38
-30
-38
-36
-32
-31
-39
-32
-32
-39
-30
-34
-31
-33
-31
-34
-38
-42
-43
-31
-26
-43
-40
-32
-35
-36
-35
-33
-39
-34
-37
-38
-35
-36
-36
-33
-43
-40
-34
-31
-36
-40
-39
-41
-38
-35
-36
-31
-28
-30
-43
-38
-31
-35
-32
-32
-29
-32
-38
-39
-39
-30
-34
-24
-29
-36
-32
-29
-24
-30
-25
-27
-26
-35
-39
-33
-27
-31
-34
-32
-27
-32
-36
-30
-33
-29
-23
-32
-31
-31
-28
-27
-31
-32
-32
-34
-27
-29
-35
-33
-26
-23
-32
-32
-28
-28
-28
-23
-31
-33
-29
-27
-26
-26
-25
-31
-18
-25
-32
-16
-23
-21
-22
-19
-14
-14
-11
-11
-15
-22
-21
-19
-26
-25
-29
-30
-26
-27
-30
-28
-28
-29
-35
-34
-23
-26
-30
-28
-33
-33
-34
-31
-30
-28
-36
-36
-28
-34
-29
-23
-27
-32
-34
-32
-32
-35
-31
-31
-29
-35
-30
-25
-29
-29
-29
-20
-28
-34
-35
-39
-44
-39
-53
-65
-61
-51
-44
-38
-24
7
34
65
94
127
152
169
173
155
136
121
115
92
56
32
11
10
17
10
6
-17
-17
-18
-21
-31
-34
-29
-32
-18
-20
-33
-30
-32
-30
-25
-26
-30
-25
-20
-28
-32
-34
-28
-26
-29
-30
-24
-17
-5
-19
-34
-35
-30
-15
-23
-24
-20
-27
-24
-23
-19
-25
-31
-19
-19
-21
-20
-19
-18
-16
-15
-20
-21
-16
-9
-9
-18
-31
-15
-12
-9
-7
-11
-12
-7
-6
-11
-9
0
-1
-3
-3
7
17
5
0
3
13
11
15
10
12
18
21
16
16
21
24
21
22
17
15
25
30
16
22
27
17
12
10
19
14
17
12
6
0
7
11
8
3
-9
-9
-6
-6
-10
-17
-22
-12
-12
-9
-3
-17
-25
-25
-26
-27
-20
-23
-25
-22
-29
-29
-27
-21
-33
-27
-26
-23
-30
-36
-31
-25
-26
-26
-25
-30
-19
-12
-27
-36
-32
-30
-35
-33
-27
-28
-25
-29
-23
-23
-31
-26
-31
-38
-32
-30
-30
-32
-22
-24
-28
-33
-29
-33
-43
-29
-21
-25
-28
-19
-25
-29
-32
-24
-35
-35
-26
-23
-26
-33
-31
-34
-25
-24
-28
-32
-29
-28
-29
-29
-25
-20
-12
-29
-34
-33
-29
-24
-25
-28
-32
-23
-31
-26
-18
-16
-17
-24
-27
-24
-25
-21
-17
-23
-21
-23
-24
-26
-21
-24
-27
-25
-18
-24
-24
-26
-22
-25
-21
-21
-31
-25
-28
-19
-23
-25
-22
-27
-34
-26
-27
-25
-21
-15
-23
-20
-24
-26
-25
-30
-30
-31
-34
-20
-24
-25
-21
-21
-20
-25
-24
-19
-17
-30
-36
-29
-28
-30
-25
-28
-34
-24
-18
-22
-20
-21
-30
-27
-25
-23
-27
-27
-24
-28
-32
-26
-25
-17
-17
-17
-20
-19
-17
-19
-21
-15
-13
-16
-17
-15
-12
-13
-17
-19
-19
-9
-10
-9
-14
-9
-15
-25
-19
-28
-28
-23
-27
-25
-25
-27
-27
-26
-25
-23
-24
-38
-28
-36
-30
-28
-34
-27
-26
-30
-29
-24
-31
-32
-29
-29
-36
-36
-32
-23
-33
-33
-34
-26
-30
-27
-22
-32
-41
-37
-33
-33
-40
-47
-57
-65
-60
-65
-64
-43
-21
3
20
50
84
113
134
165
169
172
154
139
130
111
74
40
24
7
4
13
4
-2
-6
-13
-14
-25
-33
-24
-27
-29
-35
-31
-31
-32
-35
-33
-30
-37
-36
-25
-30
-32
-31
-39
-33
-32
-30
-30
-30
-35
-34
-26
-23
-22
-26
-22
-29
-27
-37
-35
-30
-27
-31
-28
-24
-26
-26
-26
-23
-25
-25
-30
-25
-32
-21
-20
-22
-24
-25
-18
-12
-15
-17
-23
-23
-16
-12
-18
-16
-11
-14
-7
-12
-8
-3
2
-1
-2
-5
6
5
4
16
19
16
15
5
7
10
10
14
15
16
6
15
18
17
15
21
20
12
4
8
4
3
4
12
10
8
-12
-9
-8
-7
0
-14
-23
-24
-20
-22
-20
-16
-18
-22
-28
-33
-33
-32
-35
-29
-19
-27
-34
-34
-33
-30
-27
-39
-37
-42
-38
-37
-25
-36
-44
-40
-38
-24
-32
-40
-49
-41
-36
-35
-40
-41
-41
-34
-35
-40
-49
-34
-36
-38
-36
-40
-37
-34
-35
-38
-42
-42
-40
-35
-36
-39
-42
-38
-36
-30
-20
-29
-29
-32
-40
-45
-50
-42
-47
-48
-49
-42
-45
-39
-40
-45
-39
-41
-40
-36
-40
-41
-42
-32
-40
-35
-32
-39
-40
-43
-37
-42
-41
-38
-37
-37
-44
-42
-35
-23
-27
-39
-35
-38
-37
-39
-42
-42
-43
-37
-30
-29
-35
-37
-38
-36
-28
-30
-39
-32
-42
-46
-42
-44
-37
-34
-34
-36
-31
-29
-37
-36
-42
-32
-34
-38
-39
-38
-36
-32
-40
-45
-40
-40
-39
-35
-34
-28
-31
-37
-42
-48
-41
-44
-45
-42
-40
-36
-38
-40
-34
-36
-39
-41
-45
-42
-42
-39
-42
-45
-34
-34
-37
-35
-39
-33
-31
-41
-43
-40
-40
-35
-20
-37
-57
-47
-41
-38
-38
-40
-38
-41
-37
-37
-41
-39
-48
-45
-41
-39
-37
-36
-34
-32
-41
-45
-47
-47
-34
-35
-34
-38
-34
-31
-32
-35
-42
-31
-38
-31
-33
-32
-36
-39
-30
-26
-19
-26
-25
-33
-27
-28
-31
-37
-33
-24
-45
-44
-41
-39
-42
-43
-45
-46
-45
-43
-45
-42
-39
-38
-42
-41
-47
-47
-49
-42
-41
-49
-52
-54
-40
-38
-46
-53
-46
-41
-50
-48
-43
-42
-47
-42
-45
-48
-50
-54
-43
-50
-49
-52
-63
-63
-67
-71
-74
-73
-71
-52
-26
-8
11
49
79
108
138
148
150
153
133
107
99
79
40
14
2
2
1
-12
-18
-29
-30
-40
-44
-49
-48
-42
-43
-43
-45
-55
-48
-49
-47
-41
-51
-49
-46
-45
-42
-46
-53
-48
-49
-49
-38
-45
-49
-39
-45
-42
-45
-44
-41
-38
-41
-45
-39
-47
-43
-46
-34
-34
-43
-40
-47
-46
-47
-31
-33
-33
-36
-34
-35
-44
-35
-34
-42
-31
-31
-31
-30
-35
-33
-33
-30
-24
-22
-27
-23
-23
-19
-20
-17
-16
-14
-9
-7
-12
-10
-16
4
2
-6
-8
2
10
1
5
9
9
2
-2
0
2
2
2
7
8
0
-2
3
-5
-7
-11
-8
-13
-11
-17
-19
-23
-28
-30
-27
-27
-23
-26
-28
-23
-37
-43
-42
-44
-48
-38
-33
-36
-41
-41
-42
-46
-51
-52
-46
-46
-43
-44
-49
-45
-41
-44
-45
-54
-52
-46
-52
-55
-47
-49
-45
-48
-54
-56
-50
-41
-42
-47
-51
-46
-52
-53
-52
-41
-45
-41
-44
-54
-63
-53
-48
-50
-47
-50
-53
-49
-42
-44
-50
-50
-56
-52
-50
-51
-48
-45
-47
-51
-50
-53
-52
-51
-53
-54
-53
-53
-53
-46
-52
-49
-53
-48
-44
-45
-46
-48
-42
-33
-40
-52
-47
-57
-47
-46
-43
-42
-47
-46
-45
-41
-37
-44
-42
-38
-47
-43
-50
-45
-42
-46
-45
-46
-45
-51
-42
-43
-32
-35
-49
-47
-40
-41
-46
-48
-50
-43
-44
-39
-35
-49
-56
-42
-46
-49
-38
-48
-50
-42
-37
-42
-44
-43
-41
-50
-54
-48
-47
-49
-51
-39
-42
-52
-47
-45
-48
-49
-49
-45
-47
-51
-49
-40
-42
-43
-47
-45
-41
-48
-49
-42
-39
-42
-46
-48
-56
-48
-52
-45
-43
-48
-51
-48
-46
-47
-56
-53
-44
-43
-42
-41
-44
-43
-44
-52
-54
-42
-37
-39
-43
-51
-46
-44
-50
-57
-52
-43
-31
-43
-38
-42
-47
-44
-46
-47
-39
-30
-34
-39
-36
-35
-33
-37
-32
-26
-34
-28
-33
-35
-32
-32
-32
-24
-36
-46
-49
-51
-53
-48
-44
-46
-49
-49
-47
-44
-38
-45
-55
-53
-44
-48
-48
-51
-57
-53
-46
-47
-46
-45
-42
-45
-35
-33
-42
-60
-52
-45
-43
-45
-52
-55
-55
-53
-49
-48
-36
-46
-56
-62
-71
-65
-74
-72
-76
-70
-49
-44
-25
3
39
68
97
125
152
153
153
138
122
118
108
73
38
3
-12
-8
-12
-22
-26
-29
-31
-31
-39
-47
-46
-35
-37
-40
-50
-48
-49
-46
-43
-37
-41
-44
-48
-48
-40
-40
-43
-34
-39
-48
-46
-46
-44
-46
-31
-31
-36
-49
-46
-47
-40
-33
-35
-44
-40
-35
-39
-41
-37
-36
-30
-27
-33
-31
-30
-24
-28
-30
-31
-39
-20
-21
-22
-25
-25
-22
-25
-11
-15
-18
-24
-23
-22
-11
1
-6
-12
-9
-1
7
-5
-9
0
-8
-2
10
7
13
5
4
18
17
13
15
14
17
14
12
16
10
14
14
10
12
14
14
4
8
-1
3
4
0
-7
-6
-3
-18
-14
-15
-3
-3
-25
-21
-17
-17
-22
-31
-36
-32
-39
-35
-35
-30
-32
-34
-29
-25
-32
-38
-35
-37
-41
-34
-33
-34
-37
-37
-39
-45
-40
-46
-33
-34
-27
-29
-40
-37
-45
-46
-46
-45
-45
-43
-42
-39
-36
-33
-41
-41
-36
-36
-38
-35
-37
-41
-44
-43
-40
-40
-47
-46
-42
-45
-45
-28
-30
-42
-36
-36
-37
-37
-44
-31
-33
-41
-27
-30
-33
-34
-34
-34
-33
-32
-30
-26
-29
-23
-32
-36
-39
-37
-30
-32
-33
-24
-20
-28
-30
-31
-34
-27
-26
-23
-22
-22
-20
-27
-27
-28
-32
-27
-26
-33
-37
-30
-28
-23
-25
-38
-24
-28
-25
-23
-22
-25
-24
-37
-41
-26
-25
-31
-30
-26
-10
-23
-25
-32
-31
-32
-32
-28
-25
-33
-31
-25
-32
-30
-24
-28
-28
-28
-24
-30
-29
-26
-22
-29
-40
-33
-37
-31
-32
-25
-21
-26
-22
-33
-35
-31
-38
-31
-34
-35
-34
-33
-26
-21
-27
-31
-26
-23
-20
-23
-22
-30
-25
-23
-24
-24
-27
-19
-17
-14
-18
-25
-9
-13
-20
-18
-17
-14
-17
-17
-17
-15
-17
-15
-12
-25
-33
-33
-30
-33
-34
-30
-24
-19
-24
-26
-28
-22
-24
-31
-29
-27
-38
-30
-18
-22
-36
-26
-23
-29
-37
-34
-34
-30
-33
-34
-26
-24
-37
-35
-20
-31
-36
-32
-32
-38
-40
-37
-33
-34
-37
-32
-46
-59
-57
-45
-28
-9
19
49
67
105
131
141
132
123
124
113
103
95
73
32
8
-14
-23
-25
-23
-33
-35
-17
3
-20
-32
-30
-38
-32
-30
-30
-29
-26
-27
-27
-29
-26
-30
-30
-30
-19
-14
-20
-20
-28
-25
-27
-23
-30
-27
-24
-15
-16
-26
-25
-25
-16
-19
-25
-20
-18
-25
-22
-10
-20
-18
-24
-16
-11
-6
-12
-18
-14
-14
-12
-13
-10
-13
-8
-9
-6
-10
-4
-5
-9
-5
-1
1
-9
-5
11
6
12
16
21
5
6
15
13
17
18
21
29
31
35
29
24
21
29
30
36
30
23
24
26
28
30
22
26
29
18
13
14
19
15
11
18
21
11
1
-1
-3
-1
4
-4
-7
-6
-7
-13
-10
-4
-12
-17
-13
-17
-29
-27
-19
-20
-20
-11
-13
-24
-26
-24
-30
-31
-35
-24
-30
-23
-25
-25
-19
-32
-31
-28
-28
-30
-31
-27
-27
-29
-33
-28
-30
-31
-42
-25
-37
-33
-32
-26
-33
-36
-28
-22
-25
-25
-27
-27
-24
-27
-26
-21
-20
-26
-30
-29
-26
-32
-29
-21
-24
-23
-28
-32
-25
-24
-24
-15
-12
-3
-4
-18
-31
-32
-24
-20
-21
-21
-17
-16
-29
-17
-15
-25
-29
-19
-13
-12
-14
-17
-24
-19
-24
-21
-22
-16
-8
-18
-10
-16
-24
-21
-5
-17
-19
-19
-19
-7
-6
-18
-24
-17
-12
-18
-16
-20
-19
-15
-16
-16
-18
-3
-3
-3
-14
-24
-36
-32
-17
-12
-16
-14
-13
-19
-17
-24
-17
-12
-10
-10
-8
-5
-5
-23
-24
-1
-6
-13
-8
-7
-8
-8
-6
-8
-7
-7
-6
-4
-5
0
4
-4
-5
-14
-3
1
-5
-14
-20
-15
-6
-16
-18
-23
-15
-6
-11
-13
-18
-12
-18
-13
-20
-19
-24
-11
-23
-19
-19
-14
-24
-21
-16
-18
-14
-14
-17
-17
-14
-11
-13
-10
-20
-19
-24
-20
-24
-20
-12
-6
-9
-22
-33
-31
-40
-43
-32
-21
-16
-12
12
38
61
88
123
132
135
140
133
122
120
111
92
71
36
12
1
-2
-12
-13
-16
-5
-7
-3
-9
-16
-11
-14
-15
-18
-22
-17
-10
-13
-4
-2
-4
-1
-2
-12
-16
-16
-12
-15
-5
-8
-11
-11
-14
-3
-10
-7
-3
-5
-3
-3
-2
-9
-5
-12
-3
-1
-4
-2
-5
-6
2
6
0
-4
-4
-8
-4
3
8
6
5
8
16
13
-3
-4
10
7
12
9
15
24
25
14
12
23
26
29
30
22
23
27
29
33
31
32
34
41
39
34
43
41
39
45
41
43
43
48
38
32
41
43
36
34
36
25
28
36
32
27
35
24
17
15
8
10
4
2
14
4
9
10
-4
-4
4
0
-3
-3
-12
-6
0
-11
-15
-6
-7
-18
-20
-16
-11
-12
-6
-3
5
-18
-18
-17
-10
-12
-6
-11
-13
-22
-13
-14
-11
-16
-22
-12
-11
-24
-22
-17
-20
-17
-24
-23
-20
-19
-13
-13
-15
-19
-24
-15
-15
-16
-19
-10
-12
-22
-17
-5
-10
-23
-17
-17
-19
-15
-13
0
-6
-13
-14
-11
-9
-15
-10
-4
-15
-13
-12
-13
-5
-8
-6
-3
-4
-6
-4
-4
-6
-6
-7
-13
-13
-10
-9
-8
-5
-7
-12
-7
-6
-9
-5
-11
-12
-5
-11
-9
-1
-8
-16
-10
-13
-15
-11
-5
-12
-10
-3
1
-4
-5
-4
-11
-11
-11
-14
-7
-7
-5
-7
-5
-6
-2
-3
0
-10
-6
-6
-4
2
16
4
7
5
3
0
0
-5
2
-12
-9
-13
-8
-16
-16
-9
-10
-9
-15
-14
-11
-13
-7
-6
-3
-13
-9
-8
-7
-7
-12
-15
-8
-10
-18
-23
-19
-10
-9
-7
3
-9
-31
-22
-18
-11
-6
-5
-9
-14
-11
-12
-23
-17
-16
-19
-21
-27
-31
-34
-25
-12
2
22
43
75
105
130
146
157
157
145
132
132
132
115
86
53
24
1
15
13
3
2
3
6
5
-5
0
5
-2
-13
-7
-6
-16
-8
-5
-1
-1
-8
-11
-13
3
4
-10
-5
-3
-4
-5
-4
2
-7
-8
-2
-4
0
1
-4
4
4
3
-5
-2
-1
0
9
4
5
2
-1
7
6
6
8
4
7
10
3
7
9
12
14
12
15
16
25
25
11
10
17
18
22
29
35
31
23
26
25
29
33
37
35
41
42
44
45
42
38
48
50
50
47
46
51
44
48
51
43
48
48
44
45
47
45
48
42
39
33
34
34
30
28
26
20
21
24
19
17
17
20
14
10
8
9
6
8
5
2
7
3
0
-3
-1
0
4
8
2
2
0
-11
-6
-8
-7
-13
4
7
3
1
3
-1
-2
1
-2
-3
2
-1
-5
-8
-7
-8
-6
-8
-7
-7
1
3
-8
-8
-7
-15
-8
-10
-6
-4
1
-8
-13
-12
-7
-5
-10
-2
2
0
-2
-1
-5
0
1
-5
0
-2
-3
2
4
-6
-5
1
-2
4
0
0
-2
5
6
2
1
-2
-3
-6
1
3
8
-1
3
7
9
-1
3
4
2
7
12
7
-9
-8
3
4
3
13
8
2
7
-2
2
5
14
5
8
6
13
13
9
-6
-4
4
5
6
10
4
3
4
7
16
10
7
8
9
19
13
7
16
16
13
14
14
9
2
2
1
3
-1
-7
5
12
8
-3
-5
-1
2
-2
3
-3
3
17
-2
-11
-5
1
5
1
2
7
1
-3
-3
-2
2
-2
0
-1
-4
-7
-4
13
9
8
-1
-1
-3
-4
-4
-10
-17
-13
-21
-18
-14
-8
-5
4
19
56
88
122
147
169
187
193
180
168
162
148
132
109
74
44
37
40
36
34
20
20
13
9
8
4
4
2
12
5
3
-6
2
7
9
6
6
3
11
20
16
8
14
14
10
13
12
7
13
18
7
12
23
17
9
4
8
14
14
21
17
8
12
21
19
21
19
21
19
17
16
19
24
25
19
20
19
22
28
31
23
20
25
33
27
33
31
32
36
39
43
41
44
41
42
42
44
53
56
54
57
55
59
60
65
68
60
59
69
68
65
61
64
63
63
64
57
60
62
75
63
52
55
51
49
42
43
44
45
41
43
37
43
39
38
33
28
20
30
32
30
26
21
21
26
18
13
25
26
15
15
18
12
11
13
20
12
13
15
19
11
10
14
15
12
17
13
5
17
15
15
14
9
8
8
5
14
18
25
25
10
6
8
10
6
3
6
11
8
10
13
18
18
9
9
5
4
13
17
10
14
23
7
3
7
13
9
10
5
18
13
8
9
16
13
6
9
20
25
18
11
7
12
10
18
17
16
15
18
23
20
24
11
17
16
14
13
14
14
16
14
20
17
21
18
18
17
10
11
12
20
14
3
18
22
24
17
16
10
13
18
22
16
15
22
24
18
17
21
17
11
19
13
14
15
21
19
18
20
23
23
30
31
26
30
28
20
21
25
25
24
31
19
14
4
6
5
12
20
17
11
12
10
8
8
11
9
10
14
13
15
10
11
6
5
7
10
14
10
11
6
7
6
6
16
13
21
17
10
3
14
20
12
3
4
0
-2
-2
-3
-16
-18
-11
-13
0
13
31
50
84
115
150
176
191
195
197
187
178
158
153
126
95
61
45
41
42
34
39
36
35
35
26
23
8
12
15
9
11
16
19
11
7
14
16
10
11
15
13
14
20
15
23
14
14
20
13
9
7
12
15
22
17
18
21
12
23
16
22
21
27
24
22
17
17
18
20
13
21
24
28
29
29
34
30
22
31
26
20
26
31
31
38
29
34
33
35
38
42
40
40
34
41
41
43
48
48
51
53
62
66
56
58
59
63
61
64
60
59
60
65
70
62
66
63
70
58
56
52
46
58
62
50
49
53
61
47
36
38
38
39
42
39
20
25
34
30
25
18
29
20
26
29
21
18
18
21
17
15
18
22
14
12
17
15
14
15
17
21
24
14
15
21
2
-3
11
13
8
2
7
11
20
12
6
13
23
20
22
16
14
15
7
15
17
12
14
7
11
9
8
15
18
18
12
19
18
17
9
10
8
6
18
17
10
10
9
12
14
10
10
9
11
13
14
15
15
9
12
18
17
12
19
25
22
12
15
15
20
14
11
9
15
21
17
18
16
7
10
11
16
17
20
22
20
15
7
14
14
13
12
10
10
21
21
17
20
14
16
16
13
12
20
16
11
15
17
16
10
9
12
13
15
15
20
17
12
14
13
18
11
21
13
15
18
18
28
21
21
28
20
27
29
19
22
19
18
21
23
30
23
25
30
31
32
34
19
17
15
20
22
19
12
14
11
18
13
8
14
23
16
15
13
13
18
21
22
18
13
10
10
13
19
19
19
18
13
10
12
15
20
13
13
11
8
11
16
14
16
13
11
15
9
7
1
-10
-17
-15
-8
-4
-4
10
29
51
61
80
115
151
177
199
213
218
205
185
173
155
124
86
70
59
58
55
48
41
33
34
26
25
19
17
16
22
16
19
20
17
17
17
17
20
13
15
15
22
26
34
26
19
21
27
15
11
19
19
24
18
20
26
24
27
23
22
31
30
27
23
18
23
24
28
28
27
28
28
23
26
34
28
25
33
35
47
37
36
39
40
26
34
33
36
36
44
49
48
49
45
42
44
47
50
54
54
52
67
65
63
62
65
67
64
65
70
73
68
72
74
69
69
78
70
61
70
68
72
62
56
61
65
63
53
51
52
50
49
42
39
42
40
33
35
38
37
33
25
32
31
25
29
32
31
33
29
30
28
22
15
18
25
23
17
27
27
21
30
19
17
16
19
17
19
19
14
23
29
45
28
8
16
18
17
18
21
21
25
22
23
15
13
16
22
25
23
24
14
17
15
15
16
15
18
17
25
22
21
25
13
10
16
19
21
26
24
28
24
26
23
14
31
29
10
12
12
13
17
26
27
20
16
21
19
21
29
16
21
22
19
19
22
23
26
25
27
27
23
20
21
22
26
18
20
25
26
28
30
33
15
16
21
21
30
26
30
19
16
16
24
23
13
24
25
23
23
20
23
21
22
19
23
18
19
20
21
24
20
28
31
27
24
17
23
22
19
18
23
19
19
27
26
22
24
25
25
22
25
25
25
27
27
21
26
28
23
36
28
30
37
39
38
37
29
34
36
29
37
41
34
31
34
26
29
30
27
24
25
27
23
22
27
21
14
17
23
19
24
28
35
20
17
16
20
17
22
22
16
15
18
22
24
17
22
15
21
16
20
20
20
29
22
19
21
24
27
22
14
10
3
0
-1
-9
-7
1
13
22
39
69
101
141
169
193
216
221
223
203
184
177
157
130
94
76
64
67
58
42
34
43
47
38
31
30
26
24
23
28
23
20
24
28
33
31
28
22
19
24
25
24
21
22
23
24
26
24
25
29
31
34
30
29
21
25
28
27
33
29
26
22
27
32
34
34
30
33
29
30
34
31
32
37
43
41
44
39
39
35
37
43
43
47
48
42
43
47
50
48
48
52
61
65
61
48
59
58
56
60
66
64
63
72
69
74
78
68
71
73
73
74
77
79
79
75
75
68
72
77
75
71
68
67
61
64
64
70
61
59
55
43
36
42
58
50
53
47
56
39
20
28
46
37
27
30
30
38
29
28
29
22
23
26
33
24
28
26
25
20
20
23
26
20
21
24
22
24
22
15
22
28
24
21
31
29
26
31
26
10
17
21
30
26
20
24
22
19
19
29
22
20
21
16
20
24
26
22
19
21
21
17
19
16
24
28
21
26
34
21
13
25
29
21
20
24
26
25
26
23
26
27
24
25
26
32
20
27
25
19
22
24
21
25
21
21
23
26
26
20
20
20
25
29
28
29
22
23
22
20
26
30
25
25
31
26
28
20
26
24
26
34
34
20
12
29
26
28
20
13
24
21
18
24
28
22
23
18
16
20
30
23
18
20
13
16
23
29
28
26
26
27
23
23
31
17
18
25
24
16
25
21
23
41
41
30
32
26
24
24
26
26
31
33
32
30
35
31
34
45
41
37
31
34
31
29
38
25
29
35
27
29
28
32
23
16
16
20
16
20
22
24
25
18
20
25
26
18
16
20
22
22
15
17
22
25
20
16
20
21
17
25
19
20
19
23
25
20
20
26
23
26
15
10
5
-9
-13
-13
-7
-2
-5
6
29
55
79
109
150
182
214
223
219
211
199
186
170
145
114
86
60
63
66
49
43
38
47
36
23
20
22
17
20
20
12
21
29
25
20
15
22
26
23
18
16
28
20
25
23
21
13
20
26
26
26
26
23
21
32
31
23
24
31
27
26
27
25
26
34
32
27
32
34
31
28
32
29
34
38
24
34
37
41
41
43
38
36
40
46
46
35
46
41
40
42
47
50
53
62
54
47
51
62
67
63
71
74
66
58
63
67
72
76
72
74
71
78
78
79
75
75
70
64
57
67
66
55
69
66
67
56
65
68
56
51
47
47
44
41
35
33
38
42
31
45
39
27
27
32
36
41
40
31
31
21
16
10
21
19
22
28
21
22
22
17
28
27
32
18
17
21
23
27
27
29
16
15
12
7
10
11
11
16
17
26
18
12
17
11
16
22
19
24
22
23
20
19
26
20
21
20
17
16
20
26
14
15
17
22
19
15
20
15
12
16
16
24
18
14
18
13
28
35
35
28
19
20
24
20
30
34
36
28
15
7
11
25
33
41
21
10
13
20
21
28
25
23
14
15
13
19
17
19
24
21
14
13
25
32
28
26
17
19
23
22
25
25
23
19
17
10
15
13
18
21
29
25
24
12
9
21
19
24
23
21
19
18
18
21
16
18
19
25
27
22
27
15
30
35
25
17
20
20
28
25
31
29
27
27
27
19
32
31
38
36
27
23
11
10
16
21
19
15
16
33
19
9
7
13
13
15
13
9
15
19
14
18
13
15
16
14
12
7
13
19
17
14
7
8
12
15
14
10
18
18
14
15
16
5
4
-2
-3
-10
-12
-3
-6
2
14
22
49
84
99
138
171
191
194
182
186
177
163
150
127
97
72
50
37
28
19
11
18
21
19
28
28
21
17
3
-5
-1
18
12
8
17
18
14
6
14
16
12
19
23
19
7
9
13
20
13
16
17
21
19
23
17
17
17
23
21
24
20
22
17
20
30
26
22
22
23
18
23
24
27
24
27
32
29
27
29
26
33
29
31
34
33
33
38
34
44
40
37
40
45
46
50
47
54
67
64
56
52
50
49
64
72
64
72
78
75
62
61
55
63
72
64
65
66
67
68
59
50
54
56
56
55
51
47
48
39
34
35
35
38
34
37
34
30
20
24
26
25
18
19
26
28
18
13
11
5
12
10
9
10
15
20
12
11
8
7
9
11
4
10
14
16
11
1
2
-3
3
20
15
11
12
4
5
2
2
2
8
7
6
10
5
7
4
6
0
7
17
5
4
10
9
7
10
11
5
11
14
22
27
31
23
9
3
15
13
9
14
13
13
13
6
9
15
16
19
12
12
16
19
19
20
23
16
14
16
16
6
12
22
13
14
19
13
12
22
24
15
4
5
11
19
7
5
17
16
15
23
19
6
4
10
17
17
15
7
3
1
9
12
17
12
11
15
10
1
9
14
9
8
15
19
6
14
18
10
17
15
14
21
24
23
24
17
24
14
8
7
8
7
13
12
11
7
4
7
9
7
1
7
12
8
1
5
9
2
0
0
5
12
8
11
6
5
-2
-1
6
14
4
-2
1
1
9
18
5
-1
-1
7
3
1
7
8
8
3
-10
-6
-12
-27
-23
-24
-18
-2
11
26
50
74
102
131
148
174
175
172
166
156
134
132
103
73
49
27
18
9
9
4
5
8
12
9
7
8
11
22
7
2
2
0
2
11
3
5
11
5
0
10
1
0
8
15
2
7
7
11
5
10
11
13
14
6
7
12
7
14
11
14
15
12
11
20
17
18
22
18
19
20
17
24
32
23
17
22
29
14
27
26
25
24
25
22
26
24
28
42
28
33
38
30
39
49
51
55
46
47
42
43
54
51
54
54
52
55
57
62
52
61
62
60
54
61
59
56
58
61
63
51
41
44
46
41
27
32
41
38
43
36
32
28
31
29
22
16
18
22
23
18
23
22
11
6
13
11
3
7
16
16
10
8
9
7
12
7
10
0
13
9
15
7
4
7
11
6
6
0
8
0
2
2
2
6
5
0
2
2
2
1
-1
3
4
3
5
-3
1
11
9
-2
-3
12
15
7
1
5
17
12
6
-4
4
12
13
11
18
16
8
-1
4
6
14
15
12
8
11
11
10
13
16
18
14
11
13
8
11
16
11
12
9
9
13
13
13
18
17
13
16
13
4
2
11
12
11
16
7
-4
9
18
8
3
9
14
14
18
9
11
22
20
5
15
9
12
13
11
12
11
13
14
16
17
12
19
25
22
20
21
20
18
15
5
15
25
11
12
2
6
5
5
2
4
8
6
5
-2
0
2
2
0
2
7
8
6
9
7
7
2
1
6
3
0
5
6
4
7
6
5
9
11
-1
2
2
8
2
14
4
-6
-19
-16
-29
-36
-24
-12
-4
3
26
44
79
111
144
170
179
189
185
176
165
151
133
112
76
49
35
29
37
32
25
20
22
18
16
3
4
1
3
9
23
13
6
14
9
0
5
5
3
5
1
14
6
4
4
11
9
4
6
15
10
11
9
12
12
6
6
10
17
13
21
11
8
15
16
9
11
19
12
17
19
19
19
18
13
13
17
21
24
26
27
34
29
25
19
29
28
20
31
37
36
37
41
38
41
42
40
38
47
49
46
43
50
55
57
52
57
51
48
60
62
60
52
48
46
53
50
52
51
48
46
60
54
42
44
43
35
29
33
33
31
34
35
30
30
26
20
14
17
17
20
16
15
18
8
9
3
3
10
12
6
7
5
1
11
9
3
6
5
8
14
11
8
6
0
6
2
1
4
1
1
4
3
0
0
2
2
8
6
7
-1
2
5
2
5
0
1
2
6
3
-2
-2
1
7
4
4
2
3
7
3
4
4
7
5
-1
7
14
8
0
4
1
2
7
6
7
9
2
4
4
5
10
14
16
14
14
5
8
5
4
6
4
11
6
2
4
7
8
10
6
2
7
17
15
12
12
12
6
9
12
13
5
8
8
3
7
6
11
16
16
9
10
11
6
9
13
10
16
19
14
16
15
13
13
15
22
15
6
2
5
13
10
7
0
-2
-2
4
3
1
3
3
-3
-2
-2
0
14
9
1
2
-1
0
-2
-5
-2
2
-1
-2
5
-4
2
6
5
-6
-2
-3
-1
-1
1
4
0
0
-15
-21
-22
-38
-25
-26
-22
-8
6
20
37
70
96
135
165
184
190
191
182
169
153
135
116
83
59
37
32
34
28
15
11
12
12
6
4
-3
-1
2
1
3
2
3
4
0
6
10
4
7
11
3
2
2
2
9
10
14
10
5
7
2
3
2
2
7
0
8
1
1
0
2
12
19
11
14
7
2
16
16
16
19
20
19
17
17
21
17
22
28
20
24
28
28
22
16
27
25
38
36
32
30
26
27
27
34
39
42
40
51
43
40
43
56
52
53
59
55
62
59
54
55
54
57
56
56
56
53
50
49
47
49
56
53
52
49
38
30
33
31
38
38
33
18
22
26
25
28
26
15
7
11
13
14
14
7
4
9
11
16
7
11
10
6
5
9
7
7
7
10
0
7
4
7
11
7
-1
3
7
3
8
13
-2
1
6
-5
-9
4
7
10
15
5
-6
-2
8
-1
3
9
13
-2
-2
-2
-2
2
0
0
-3
0
1
0
2
3
0
4
3
6
10
17
13
9
0
-3
-2
4
7
11
8
10
4
5
10
5
7
5
11
13
15
13
2
4
8
12
7
5
10
11
10
8
12
7
3
5
3
1
3
11
16
8
10
12
4
9
8
8
10
6
10
9
16
11
9
11
6
3
8
8
7
13
9
7
8
17
6
3
17
17
6
3
11
15
18
18
23
24
29
21
15
18
22
24
16
18
17
6
5
8
10
12
11
12
8
0
7
-2
3
7
9
5
3
5
9
10
-1
1
3
3
6
10
6
2
1
1
2
13
4
3
4
5
5
9
10
3
6
8
3
0
1
-1
-4
-9
-24
-22
-25
-17
-9
-5
6
29
50
78
110
148
176
196
204
204
196
178
161
142
113
75
52
40
44
43
31
37
31
26
22
17
1
6
4
2
1
13
12
16
11
9
7
8
7
2
0
6
8
15
17
19
18
3
4
5
7
5
-1
14
18
12
20
10
9
11
12
10
11
16
13
15
19
14
19
14
15
20
20
21
12
15
23
21
26
30
24
23
24
22
26
29
27
32
27
31
39
41
39
39
30
34
36
41
50
49
43
46
41
46
50
54
56
53
57
60
61
62
54
58
58
58
54
52
57
51
43
49
55
54
48
48
45
39
43
37
37
34
37
32
24
27
22
22
22
21
27
16
6
8
15
19
17
21
15
25
14
6
4
7
10
10
7
8
8
12
6
9
16
7
6
10
17
10
15
5
4
5
3
4
13
13
4
6
0
-4
11
6
10
12
10
13
4
8
8
6
0
4
5
9
5
4
10
7
6
9
8
1
9
4
9
14
14
8
12
11
8
11
9
9
6
7
9
8
0
17
13
15
22
14
14
6
3
13
18
10
9
5
8
10
13
13
13
14
16
19
16
17
8
6
8
10
15
15
14
12
15
11
11
10
6
10
15
13
13
21
15
-2
5
14
