5
6
11
12
22
18
24
30
28
19
15
15
29
29
31
28
32
25
18
13
12
18
24
33
44
44
43
41
40
33
26
28
29
32
40
49
56
54
50
39
41
45
41
51
64
66
63
58
53
44
50
51
55
60
67
60
56
61
52
53
51
52
53
49
57
60
58
48
49
38
38
31
33
38
40
38
38
35
33
27
21
16
14
18
31
29
22
22
23
18
7
12
9
23
22
23
20
14
15
11
12
17
20
24
20
17
15
22
13
2
11
18
13
13
20
18
14
10
2
4
12
16
9
13
17
20
19
12
9
8
19
12
12
20
24
27
22
20
11
8
1
14
14
23
22
34
26
16
9
15
16
22
17
22
27
27
19
20
6
11
9
18
21
21
18
21
22
14
1
7
16
12
17
22
29
28
15
17
8
8
7
12
17
21
26
24
15
11
9
8
5
11
14
14
12
22
28
18
11
12
11
9
17
21
16
18
13
0
5
5
8
14
18
20
20
17
18
14
3
8
17
20
27
23
17
17
21
17
14
11
10
14
24
33
31
23
24
18
10
12
23
21
25
27
30
17
20
25
28
25
33
30
29
31
34
35
18
2
6
2
17
26
24
18
25
24
13
3
9
11
10
17
22
19
17
15
15
8
10
8
10
20
25
13
21
18
8
2
6
6
7
11
22
23
14
16
13
15
17
3
2
10
33
19
24
21
17
24
22
21
20
35
49
47
37
23
14
14
30
35
44
59
61
56
50
34
19
6
14
1
-7
-13
-17
-19
-15
-23
-22
-10
14
15
15
18
28
29
25
23
13
5
8
15
13
20
27
24
22
26
14
9
12
11
7
20
29
36
39
26
8
1
10
25
17
28
41
33
31
31
19
11
16
24
21
31
28
33
30
28
12
13
18
25
24
32
28
33
30
41
29
24
20
37
32
39
43
37
38
35
24
27
32
36
37
45
47
55
50
40
30
35
40
49
50
57
58
59
53
51
49
49
47
55
60
68
79
77
63
52
52
53
53
61
64
73
75
82
72
60
55
57
51
50
60
67
67
61
44
37
29
39
35
37
34
40
39
44
38
28
17
23
23
21
23
32
27
20
13
12
7
15
14
16
27
29
26
26
20
11
0
5
9
12
32
35
19
14
26
19
9
-9
4
8
21
26
24
23
20
3
-2
7
17
11
14
20
24
16
14
11
7
6
8
10
22
24
20
21
14
19
14
14
13
11
20
23
27
23
20
14
14
17
32
22
22
24
26
24
24
13
13
14
23
22
22
25
29
28
21
11
6
10
14
13
23
28
22
23
15
0
3
6
17
26
27
25
25
23
17
8
9
8
16
15
32
33
25
12
8
6
11
17
24
24
29
26
15
12
21
26
22
17
29
33
40
30
36
29
17
18
19
18
28
38
38
36
36
32
27
20
15
18
20
22
29
30
24
18
10
7
10
11
15
9
19
26
30
26
16
8
4
4
10
21
22
17
19
23
14
6
11
8
13
12
12
15
11
11
10
22
17
14
13
19
21
20
10
11
9
12
18
31
20
31
35
38
35
31
20
16
24
27
21
20
28
44
45
52
50
53
44
34
29
40
20
23
3
-6
-22
-33
-33
-11
-4
3
15
18
22
17
18
14
6
20
24
26
24
24
20
8
3
14
19
19
21
34
27
24
27
11
17
22
12
15
30
28
24
33
28
25
17
15
15
20
29
34
35
21
20
13
13
22
29
28
28
33
34
32
31
18
9
24
29
31
33
34
35
39
35
29
23
23
30
34
42
52
48
44
33
31
24
30
31
43
52
56
56
56
50
44
42
56
61
59
65
65
61
58
59
58
58
53
51
63
80
82
85
74
66
62
62
61
60
57
63
70
72
68
59
51
52
50
50
50
53
51
49
45
43
31
37
27
28
36
34
29
35
39
35
30
19
2
23
29
37
34
26
20
20
17
18
15
19
23
36
32
27
19
23
23
19
13
26
21
29
29
21
24
25
11
15
16
18
17
23
25
30
20
16
18
27
15
13
36
37
22
27
29
22
25
28
21
23
32
31
22
28
34
24
18
19
22
23
37
40
44
36
29
21
17
21
29
24
25
33
33
34
31
23
19
21
24
31
34
40
37
28
26
32
18
14
27
28
38
33
37
32
31
20
20
15
23
18
30
35
38
36
29
16
14
17
25
27
32
36
37
40
34
20
24
17
21
28
43
47
43
35
44
29
21
23
33
37
44
43
47
41
34
23
25
35
31
22
35
46
52
54
39
38
41
38
47
45
39
49
46
35
27
20
17
17
19
29
40
30
33
35
30
19
24
23
31
29
39
37
30
22
21
21
23
27
24
30
36
31
29
25
20
18
20
24
23
27
37
37
30
27
23
26
25
21
27
45
50
48
52
49
51
44
39
44
41
45
47
41
53
63
67
64
56
49
45
48
44
36
31
12
-4
-13
-8
-4
-4
8
33
36
27
33
27
25
25
27
32
42
39
32
30
32
24
24
28
33
29
38
39
35
35
34
20
27
31
36
31
46
42
47
39
30
29
26
21
29
37
48
46
49
41
37
36
34
33
39
38
47
46
48
53
48
31
34
38
40
48
52
46
47
41
42
38
40
42
46
45
52
53
62
53
45
37
48
47
52
63
70
61
66
65
63
56
61
60
73
77
91
86
76
71
69
78
78
67
77
84
89
88
84
83
73
70
67
76
79
83
88
83
79
78
65
60
59
54
58
80
77
73
62
55
49
43
41
49
52
56
56
55
40
40
49
36
34
36
36
43
47
48
45
42
31
28
25
30
32
44
44
39
38
43
30
27
26
34
28
40
48
41
36
42
37
37
23
36
36
42
38
46
38
28
26
29
27
35
31
47
54
47
40
39
28
36
31
40
46
51
45
46
36
27
26
36
28
32
43
56
48
46
45
40
30
27
29
38
44
53
54
52
38
23
23
34
32
41
43
46
39
45
40
37
30
28
31
43
44
41
38
30
40
36
34
43
39
42
45
51
43
38
41
37
24
23
35
42
44
45
49
45
47
35
28
27
36
36
45
55
45
35
36
31
43
40
36
41
48
51
56
49
38
37
39
33
41
46
52
55
50
45
41
41
40
37
44
44
48
64
67
53
57
48
52
52
58
55
62
61
64
49
39
29
32
39
42
38
45
51
49
44
39
37
42
35
42
45
45
43
36
35
36
31
33
33
37
39
46
38
51
38
29
26
32
40
46
42
47
44
40
35
43
37
29
25
39
47
54
59
62
61
58
53
55
51
57
56
49
49
57
62
66
76
76
71
66
68
59
44
36
28
29
12
1
5
7
7
20
37
39
44
37
25
24
43
43
53
52
51
49
39
38
34
32
43
50
50
52
45
39
46
46
36
35
37
42
46
49
52
54
49
38
32
33
38
46
57
49
51
50
43
34
36
36
36
36
48
54
59
56
55
39
38
42
54
48
48
53
61
55
50
55
44
51
55
59
64
63
63
63
58
47
57
56
57
59
70
74
76
71
69
59
61
67
67
78
97
96
84
77
78
70
77
87
85
86
96
97
89
87
88
79
82
84
81
87
96
86
79
74
74
73
82
84
74
69
76
73
70
63
60
51
49
59
57
53
55
60
48
44
49
45
42
45
46
44
47
48
40
43
40
41
39
32
37
52
55
53
43
40
41
31
34
39
44
53
54
51
43
38
30
34
39
47
43
53
48
44
41
41
37
32
33
41
44
46
56
55
45
48
37
35
33
37
47
53
54
51
55
46
34
39
43
48
52
57
52
39
44
48
44
40
41
43
52
55
53
48
47
43
38
37
36
45
46
57
56
61
64
40
28
28
33
37
51
54
51
55
54
44
36
43
35
40
46
56
55
57
54
47
39
42
33
40
45
51
55
50
45
44
44
41
42
46
39
55
54
56
48
40
36
35
48
54
56
62
55
53
49
50
43
46
48
52
58
63
59
60
52
52
57
58
51
58
68
72
68
70
67
58
49
45
56
54
57
62
52
46
48
50
41
41
44
43
49
49
48
47
47
33
28
34
43
49
51
56
53
42
43
37
37
41
40
42
50
48
49
42
42
40
39
39
45
49
49
57
54
47
38
40
43
52
56
52
69
67
75
74
64
44
41
41
49
65
82
94
107
94
78
60
56
50
46
42
41
29
17
9
5
4
8
18
36
43
50
50
48
42
39
35
40
41
43
41
50
54
55
52
49
38
45
44
43
54
57
57
54
50
42
35
41
51
54
55
57
57
53
54
52
42
40
48
52
56
62
54
52
51
53
49
45
43
59
57
58
67
66
54
49
50
49
52
64
62
60
69
60
55
56
54
54
62
61
65
71
67
67
71
66
62
60
68
75
79
79
89
90
90
71
68
74
86
84
93
103
97
92
90
86
87
87
83
86
94
95
92
85
94
86
74
69
86
91
92
93
95
83
76
64
69
68
65
70
70
73
75
63
57
46
53
47
46
55
63
59
57
51
52
45
44
42
49
57
61
55
53
48
46
36
42
39
48
51
55
57
54
41
36
33
39
31
35
47
53
54
54
49
46
45
35
30
30
37
54
57
59
48
35
32
37
38
44
49
55
58
47
40
40
39
31
31
42
52
57
64
63
53
42
42
46
52
46
40
58
54
43
40
35
44
51
52
54
62
62
60
52
53
47
42
36
41
40
54
54
50
51
53
36
28
34
43
42
54
60
61
54
49
37
40
41
43
47
60
64
60
57
48
30
34
44
59
58
65
57
60
58
51
52
58
55
53
58
65
61
62
61
64
56
56
53
52
53
53
49
51
52
51
40
37
38
39
50
56
55
60
46
37
39
44
32
33
43
50
47
46
46
41
33
37
31
39
43
57
51
52
46
37
27
37
41
39
40
44
47
53
46
43
38
37
42
38
47
60
55
50
55
57
55
57
54
51
54
43
55
60
65
67
68
77
79
75
72
71
61
54
45
28
10
-1
-4
1
20
26
26
37
41
40
44
39
44
47
53
55
51
52
48
39
35
41
40
39
52
56
50
53
48
33
26
33
41
44
55
55
58
61
56
43
37
36
46
52
59
54
54
51
48
45
42
39
44
53
57
49
60
57
55
43
46
44
53
55
67
61
61
55
55
47
57
61
61
62
73
77
67
65
58
56
62
60
64
73
81
88
89
79
78
70
73
74
75
86
98
98
100
84
84
90
91
87
86
94
107
99
99
97
90
79
88
92
94
100
108
104
99
90
76
68
81
84
80
81
84
76
80
74
60
55
59
58
57
64
59
64
55
48
48
53
44
48
49
57
58
58
57
52
43
44
42
50
41
46
52
54
52
50
51
43
38
48
45
52
44
55
55
45
38
40
37
51
45
53
60
58
48
47
39
45
46
47
46
54
48
52
55
58
46
42
41
48
54
50
50
54
64
57
40
44
53
53
51
53
54
59
55
46
40
39
47
55
55
58
62
57
52
41
32
41
43
54
52
64
60
50
44
40
37
44
50
51
46
51
61
65
52
42
40
33
38
46
54
59
53
50
49
46
41
41
38
44
54
67
56
53
51
45
47
52
46
49
55
53
60
56
52
53
46
54
59
61
61
67
63
52
61
58
50
50
56
59
68
77
69
67
65
56
50
38
40
46
49
58
58
52
45
36
30
33
46
47
48
48
48
45
42
37
23
29
39
38
53
46
40
42
52
51
31
33
35
37
50
52
51
44
49
37
37
35
41
38
48
46
58
53
47
38
40
45
52
62
78
76
72
62
54
40
41
45
54
70
92
92
92
84
68
52
43
35
43
38
28
18
14
10
8
6
21
18
36
46
53
42
48
41
34
39
42
44
37
48
52
52
53
51
40
26
30
35
39
45
50
54
53
49
42
38
41
40
44
45
55
57
54
45
37
33
33
32
46
62
62
54
55
54
48
43
48
53
47
54
62
66
57
56
49
41
36
43
45
55
65
66
60
57
55
63
51
53
61
68
63
62
64
59
59
61
64
72
70
71
80
78
84
90
78
72
70
82
77
88
97
94
85
85
78
82
75
89
90
98
97
96
94
82
73
75
77
80
83
88
84
80
83
69
63
63
54
61
70
73
70
67
62
51
40
38
39
48
51
54
50
46
46
43
34
35
29
39
40
51
51
49
38
42
26
32
34
36
37
48
50
50
44
43
32
28
35
45
43
39
45
47
42
34
32
32
34
32
38
35
48
51
44
31
28
38
35
32
30
44
50
49
49
37
34
33
38
36
41
51
47
46
43
41
42
36
35
44
50
50
51
44
37
36
38
33
39
44
47
43
48
46
41
40
36
23
37
32
40
48
46
37
46
39
24
29
34
27
38
46
50
53
42
31
27
21
27
40
44
49
58
45
39
33
36
32
38
37
46
44
46
32
29
26
31
36
38
46
54
47
50
46
42
33
37
26
32
39
54
52
46
41
38
32
30
38
51
52
48
42
40
45
55
53
56
49
43
57
59
55
57
56
50
33
39
38
49
51
53
55
52
46
34
29
29
30
22
35
49
44
41
39
41
37
33
35
35
34
45
42
40
36
35
29
31
28
30
39
48
51
41
37
21
19
25
31
35
43
45
48
48
41
27
25
21
27
37
44
61
60
56
57
53
50
50
52
54
51
57
59
51
58
71
74
63
65
63
61
53
46
41
33
12
2
-1
2
-2
13
24
31
29
29
28
36
26
39
35
44
45
44
46
40
28
32
28
34
50
50
36
48
42
35
32
37
36
35
38
51
48
47
51
41
27
34
34
37
36
48
50
49
50
40
25
28
42
41
41
47
57
54
50
40
40
40
29
34
41
48
51
52
52
44
38
39
40
48
57
60
63
51
52
44
41
49
52
55
56
60
64
66
64
61
60
64
66
61
79
84
89
71
75
68
72
65
75
81
89
86
91
89
84
73
71
65
74
75
78
86
85
82
80
64
59
56
60
58
61
71
78
61
53
50
50
41
31
38
51
49
52
49
41
31
20
19
41
35
39
50
46
36
31
32
22
22
32
37
38
33
34
29
29
21
20
13
26
33
39
30
42
42
34
25
26
20
19
30
41
40
38
38
30
21
32
28
25
32
40
38
38
33
25
28
26
24
32
40
43
34
29
30
23
25
25
27
26
39
46
47
43
37
32
26
23
25
23
36
40
40
35
36
28
17
31
34
28
34
36
28
25
38
36
23
17
20
23
40
41
40
38
34
25
25
24
26
33
42
41
39
37
30
26
22
19
26
24
46
47
49
32
31
35
32
22
26
28
39
33
43
32
30
18
21
29
30
26
48
44
46
33
33
25
28
26
33
39
43
37
42
29
28
31
35
35
44
45
51
53
60
49
49
38
28
35
35
34
34
38
39
42
35
31
27
20
26
37
40
40
37
32
25
18
21
19
18
28
41
38
36
28
31
28
25
28
29
32
35
29
32
32
20
15
16
22
32
39
40
39
32
29
24
27
16
9
23
32
35
45
42
40
37
39
46
45
47
54
49
34
32
41
37
54
71
73
68
69
63
54
42
31
22
9
-8
-7
-9
8
8
11
22
16
20
21
19
30
34
40
33
38
37
34
28
19
12
21
20
29
38
42
34
33
20
18
25
29
25
38
39
48
43
32
29
25
26
33
37
42
44
49
32
30
26
27
25
24
27
42
44
44
42
40
33
32
28
32
42
47
42
41
38
35
31
35
37
45
48
49
42
49
46
49
45
40
40
40
51
57
60
67
55
53
47
47
54
58
62
71
73
73
76
61
58
63
63
75
82
85
80
73
78
68
64
63
64
67
68
75
71
72
75
65
61
65
60
56
63
70
64
58
55
36
37
39
46
38
44
48
55
51
38
24
18
26
30
34
32
35
39
33
31
32
24
17
18
22
36
48
43
35
25
15
29
18
26
19
33
33
29
24
30
17
14
18
22
26
30
31
27
35
31
12
10
10
25
23
37
35
38
29
29
22
24
22
23
31
35
30
26
38
32
25
24
18
19
24
38
46
40
38
30
24
21
14
19
19
38
44
38
32
28
23
21
22
33
43
44
36
38
38
28
23
29
21
21
43
35
34
36
31
26
17
20
23
28
39
52
37
34
22
19
20
25
21
23
32
36
34
35
32
18
17
18
15
22
29
33
42
39
30
22
22
20
23
32
39
41
44
41
44
31
30
26
28
30
36
48
55
45
48
41
34
26
31
40
40
33
34
39
40
22
16
17
27
27
25
26
41
37
30
14
24
19
21
16
24
30
45
37
36
20
21
11
15
21
33
34
39
35
29
12
19
27
22
20
28
29
33
29
21
16
19
12
14
21
38
33
35
39
31
29
42
52
51
38
37
39
29
34
33
36
53
58
70
64
62
54
42
33
13
10
7
-10
-21
-13
-6
-2
-2
4
5
5
18
29
20
28
34
31
24
22
15
23
21
24
24
28
30
22
28
30
31
21
19
19
25
28
37
32
42
43
31
27
25
27
31
35
40
43
33
31
25
24
23
28
33
38
34
36
36
34
23
23
22
17
11
8
7
3
1
-1
-5
1
1
1
2
6
5
7
4
-3
-3
0
-2
-1
4
7
4
4
0
0
-5
-1
2
11
14
20
14
16
18
17
12
7
3
15
20
23
32
36
32
26
15
20
17
14
18
28
25
27
25
18
11
15
12
5
6
16
16
10
8
-1
-9
-7
-8
-12
-11
-14
-11
-1
0
-16
-28
-27
-23
-16
-13
-14
-12
-6
-11
-27
-29
-22
-23
-24
-16
-12
-8
-17
-30
-29
-27
-28
-19
-20
-24
-19
-19
-20
-22
-35
-36
-38
-28
-28
-32
-27
-18
-16
-13
-22
-27
-35
-35
-35
-20
-8
-7
-13
-18
-33
-30
-30
-29
-30
-22
-11
-9
-13
-14
-24
-29
-32
-23
-20
-17
-11
-10
-10
-13
-26
-35
-35
-26
-27
-5
-9
-9
-16
-18
-27
-21
-23
-19
-21
-13
-18
-14
-17
-15
-20
-21
-26
-23
-23
-17
-11
-6
-15
-23
-23
-23
-31
-21
-22
-28
-22
-9
-4
-14
-26
-31
-34
-21
-14
-9
-13
-16
-19
-24
-29
-19
-14
-22
-17
-5
-7
-2
-9
-22
-27
-30
-19
-19
-15
-7
-6
-2
-7
-17
-23
-19
-17
-11
-6
0
-1
4
-5
-13
-24
-17
-5
-2
7
2
-3
2
0
-13
-28
-33
-34
-27
-14
-4
-7
-18
-22
-24
-23
-25
-15
-17
-14
-18
-19
-6
-10
-24
-24
-36
-28
-23
-10
-8
-12
-19
-15
-21
-23
-23
-14
-20
-17
-9
-16
-14
-20
-22
-17
-19
-19
-17
-4
-2
-3
-7
-15
-22
-18
-19
-2
4
14
13
11
0
-1
-6
-19
-23
-5
12
21
38
49
31
18
12
-3
-13
-19
-14
-10
-14
-28
-45
-57
-51
-47
-44
-25
-10
-3
-5
2
-5
-12
-18
-23
-19
-17
-13
-8
-10
-6
-12
-5
-6
-16
-23
-27
-10
-5
-11
-2
2
-9
-19
-21
-10
-9
0
3
3
1
2
-13
-14
-10
-6
-4
9
10
2
1
-1
1
-1
-11
-5
0
4
10
8
4
2
-2
0
5
-3
3
8
6
10
10
14
-1
1
8
4
8
13
17
20
12
15
11
5
4
15
15
17
20
35
31
33
24
21
15
26
35
41
39
46
46
38
32
29
24
33
34
46
46
46
43
36
21
36
34
36
35
39
44
41
40
37
25
19
14
13
15
24
19
21
16
6
-3
7
4
-1
3
6
1
10
3
2
-10
-18
-16
-6
0
8
0
6
3
-8
-22
-12
-8
-8
1
2
1
0
-8
-11
-11
-9
-10
-6
0
-6
-12
-9
-4
-6
-19
-17
-15
-13
-9
-4
5
6
0
-21
-24
-12
-8
-9
-4
6
3
-1
-3
-6
-11
-10
-5
-4
-1
5
-4
-3
-6
0
-8
-9
-6
-7
6
14
7
7
2
-14
-11
-14
-4
-3
10
2
3
6
-1
-4
-5
-8
-9
-9
2
3
0
-4
-5
-6
-11
-10
-12
-10
-5
1
6
6
6
-11
-12
-19
-7
5
9
3
6
8
1
-10
-15
-13
-12
-1
5
18
16
1
7
-7
-11
-19
-12
-4
4
-2
4
2
-11
-14
-10
-16
-12
3
12
6
12
4
-1
-13
2
-5
-6
1
13
6
4
4
-8
-6
4
4
6
7
19
17
20
20
10
-10
0
16
15
17
26
28
24
16
9
3
1
2
3
8
7
-4
-7
-1
1
-1
-2
-2
0
9
10
13
8
1
-6
-1
-10
-11
-8
5
10
1
-4
-5
-1
4
-8
-7
-4
6
7
4
9
0
-10
-6
-7
0
5
11
9
6
5
6
10
-5
-4
4
18
30
34
37
28
22
4
2
2
8
16
35
50
59
51
34
17
9
7
10
4
5
-2
-16
-33
-41
-43
-39
-30
-19
-1
12
12
21
12
4
-1
0
-9
-9
4
14
16
14
7
2
-3
3
-5
4
8
19
15
18
19
9
-3
0
-1
-1
7
15
11
14
17
10
7
7
2
2
12
20
14
17
15
11
1
-2
-1
4
4
7
2
14
17
14
4
10
13
9
12
15
27
26
28
20
2
1
10
13
14
27
21
19
21
13
13
20
28
28
31
41
38
34
39
31
28
31
35
33
43
54
57
50
43
43
42
36
38
40
46
50
51
45
47
36
42
44
46
40
42
45
47
38
36
27
19
25
23
21
23
21
20
22
14
2
5
1
8
7
9
11
9
-1
-9
-12
-11
-12
-6
-5
-1
9
3
0
3
-11
-14
-10
-7
-12
2
5
1
-5
-4
-7
-5
-8
-17
-12
6
8
0
-3
-8
-18
-11
-14
-19
-5
3
1
8
0
-5
-8
-6
-11
-9
3
5
2
-2
-2
0
-7
-8
-10
-2
1
5
4
5
4
-1
-9
-11
-1
6
11
9
10
7
0
-5
-9
-7
-7
-5
1
6
8
7
6
-11
-14
-10
-7
-5
-1
0
3
-1
-2
0
-11
-21
-9
-2
8
9
6
-1
-4
-8
-5
-7
0
0
14
7
2
6
6
0
-4
-10
-8
-5
3
5
9
5
-2
-8
-9
-5
4
1
6
7
8
7
3
-6
-1
-1
-5
0
10
20
3
-1
11
6
-14
-11
-4
-2
4
5
3
-1
6
-3
-1
-4
-5
0
2
3
10
0
-5
-9
-5
-9
1
11
23
8
9
2
-1
-10
-2
3
8
12
22
26
26
11
6
-2
-3
8
16
17
21
23
26
3
-7
-9
-5
-6
3
7
6
1
-1
3
-1
-19
-14
-6
-1
8
12
6
6
7
-8
-13
-12
-7
-7
-4
-5
-2
6
9
1
-8
-6
-8
-13
-6
1
9
8
-5
-15
-13
4
-8
-1
1
6
10
16
12
1
-2
3
15
17
32
33
25
20
16
4
-5
-9
11
29
49
55
54
40
28
9
7
-6
3
-2
-6
-23
-28
-35
-35
-40
-22
-12
-4
1
10
11
16
9
-2
-11
-6
-11
-11
-4
5
1
11
2
5
-4
1
-1
-2
-1
10
3
4
4
3
6
-3
-3
-3
3
11
9
10
9
4
-2
4
-2
-6
-2
10
29
15
16
2
-5
1
-2
5
4
12
10
10
12
8
0
-6
0
-1
7
19
16
21
24
7
5
0
3
9
11
24
33
27
18
18
15
19
17
18
30
35
31
40
43
29
26
25
38
40
44
44
55
53
46
37
32
37
33
39
50
50
45
49
40
30
27
27
35
44
43
45
49
39
34
16
17
14
16
18
23
28
29
18
14
6
2
1
0
-6
5
9
10
10
12
0
-5
-13
-5
2
6
5
3
-7
8
-4
-10
-9
-9
-9
-1
8
2
4
7
-7
-14
-17
-11
-3
8
6
8
-1
-9
-9
-3
-9
-8
-4
3
0
10
-2
-3
-13
-7
-5
1
11
16
4
2
1
1
-1
-7
-4
-2
9
21
11
8
5
4
1
-10
-11
-5
6
8
8
14
11
6
-3
-7
-5
-3
7
11
10
5
6
-4
-8
-9
-1
4
8
24
19
1
-3
-10
-12
-10
-5
0
10
14
9
11
10
-3
-6
0
4
5
9
14
8
4
5
-1
7
0
5
1
18
20
14
3
6
1
-2
-5
-2
-6
8
16
22
10
9
6
0
-8
6
13
15
11
16
15
14
2
-1
1
-1
1
17
29
29
13
19
18
13
-1
4
5
14
28
30
28
23
12
19
12
12
16
19
20
14
11
5
0
6
-4
-5
6
9
9
10
14
9
-4
2
1
-1
-2
18
19
6
7
5
-7
-5
-5
-1
7
13
12
9
7
-1
2
-13
-6
2
14
18
14
13
12
-8
-14
-8
2
9
22
27
18
20
28
26
23
12
19
15
18
13
12
30
29
31
45
46
43
33
29
23
13
5
2
-19
-31
-36
-40
-38
-26
-11
-8
-2
8
3
2
15
16
-2
8
9
8
14
5
-5
-3
-1
3
-4
16
19
15
15
8
-4
2
1
5
10
15
12
25
21
15
5
7
7
12
6
17
23
22
19
16
9
14
10
7
15
25
19
28
23
18
5
10
14
17
16
18
27
28
21
23
15
15
5
21
31
28
28
32
27
24
20
23
30
29
22
35
33
39
41
39
35
42
37
35
42
54
55
49
49
39
35
46
52
49
59
61
59
60
61
48
38
45
55
53
49
53
55
53
51
44
36
35
41
38
43
43
39
45
39
22
17
22
26
19
26
24
25
26
20
13
13
1
7
16
26
27
30
16
14
13
12
5
15
7
13
17
22
13
10
0
2
-3
3
10
19
11
9
13
22
4
-4
-3
5
3
5
13
13
11
4
-1
3
6
11
14
15
19
26
11
1
1
0
-1
7
17
24
17
20
16
18
9
7
10
12
15
28
33
28
20
17
13
8
-3
10
20
24
24
32
26
23
11
16
16
12
15
25
24
16
20
17
17
9
8
10
20
24
22
22
22
21
17
7
3
12
21
21
17
21
17
18
16
9
13
19
29
19
20
28
22
20
16
6
2
3
15
25
36
39
33
25
16
18
25
25
33
34
43
39
34
30
27
22
27
31
37
45
48
33
18
13
14
8
9
17
21
23
32
25
10
12
10
9
10
12
18
14
17
16
14
9
11
6
7
3
14
23
31
27
23
15
12
12
22
14
16
13
23
22
19
11
15
12
14
16
23
23
29
19
19
18
20
14
28
36
50
47
43
29
18
13
27
34
36
50
76
64
48
34
25
16
13
1
-3
-14
-14
-19
-14
-1
12
14
8
11
11
17
30
32
30
25
18
18
14
17
18
21
27
23
29
25
6
12
18
15
14
29
34
26
22
17
25
20
20
19
20
28
35
31
31
26
19
8
3
15
23
36
30
41
37
33
23
25
21
23
23
29
32
32
28
28
15
24
24
34
32
34
42
51
49
34
27
27
23
29
35
49
48
56
46
39
41
41
35
39
46
52
60
76
70
62
57
59
63
68
64
70
70
70
69
65
59
60
66
70
72
75
78
75
77
73
54
60
52
54
50
63
62
59
54
53
42
37
37
40
46
48
42
44
48
44
27
26
21
12
22
27
34
44
40
21
17
20
17
10
19
28
32
36
32
22
18
13
18
20
20
25
26
33
34
26
20
20
25
24
27
21
22
30
32
22
17
16
14
19
21
32
38
30
23
18
26
22
22
19
21
29
48
40
41
32
21
23
24
22
28
37
41
35
36
23
31
21
22
30
40
39
41
32
31
26
28
25
20
25
31
33
46
37
19
21
22
28
28
34
37
33
40
31
30
23
20
16
20
31
37
40
44
41
33
27
30
19
18
27
40
42
42
33
31
21
26
24
33
36
37
43
45
35
32
23
29
25
27
36
49
49
51
46
34
30
30
25
31
35
46
47
45
39
42
43
45
44
42
46
45
50
55
52
43
31
25
21
23
30
37
33
35
35
37
31
27
17
25
35
30
30
35
35
28
15
14
20
22
24
31
39
33
40
34
29
18
23
23
24
33
45
44
42
23
17
20
29
32
41
34
43
45
45
30
38
43
49
46
52
55
54
39
34
34
46
56
65
60
63
63
53
41
31
25
23
6
-4
-1
-10
-6
11
10
19
19
30
20
24
31
32
31
43
42
42
14
13
17
24
23
39
34
38
32
30
27
28
23
28
33
37
30
43
44
36
25
28
22
29
35
43
41
43
39
37
29
32
35
30
29
35
47
54
43
42
33
38
33
28
37
37
44
50
53
48
41
35
37
39
42
43
44
54
52
48
38
41
39
45
49
54
59
56
59
56
49
38
44
53
65
81
75
71
67
67
65
54
66
67
77
82
75
75
86
80
67
60
67
74
77
81
81
75
71
59
59
56
60
58
67
62
66
61
57
40
35
34
45
45
52
54
51
41
32
24
25
18
23
26
39
38
40
30
31
24
21
15
20
19
29
32
37
33
26
9
10
9
12
18
24
28
30
29
16
9
13
11
11
17
27
23
32
25
20
6
16
12
9
23
31
35
30
30
27
20
17
11
17
21
41
45
40
32
23
7
10
11
23
30
42
39
36
34
23
16
19
20
24
33
34
32
31
34
23
14
8
16
19
21
34
32
34
31
23
20
28
21
27
34
26
31
32
33
21
17
9
14
17
40
36
37
32
33
25
22
21
21
22
28
30
39
40
29
19
16
15
24
28
34
27
30
37
33
21
25
22
29
26
30
37
41
34
32
19
26
19
34
39
44
39
41
34
38
27
24
26
30
28
40
47
44
41
47
36
45
40
40
41
50
43
51
54
46
25
18
19
25
29
38
30
34
27
31
22
30
18
16
22
39
43
38
33
31
23
24
17
19
28
30
27
33
39
33
34
20
15
17
25
34
34
32
27
25
21
14
9
20
34
39
45
48
53
55
45
48
41
39
43
38
40
39
48
53
53
59
58
46
52
60
49
46
33
1
-2
-10
-21
-23
-9
6
18
25
22
19
17
17
17
22
36
37
38
31
34
25
30
19
18
25
30
29
37
44
38
27
22
21
19
30
40
37
41
27
26
23
31
28
41
44
41
39
47
41
34
32
28
18
24
28
43
49
54
48
36
23
30
29
30
27
42
45
41
40
41
31
30
22
27
30
37
47
62
59
48
32
36
43
44
54
64
58
59
55
50
44
47
50
55
67
75
74
77
78
67
63
68
69
72
72
74
80
84
78
74
74
68
67
75
65
73
77
74
71
62
52
58
58
54
59
59
66
68
64
53
43
38
42
44
45
43
37
46
37
34
33
17
20
20
28
35
41
40
41
26
22
14
23
23
35
39
37
26
31
29
23
18
19
21
30
30
39
29
28
21
26
18
24
32
41
30
40
39
31
19
14
14
22
21
31
38
48
35
22
21
24
28
30
29
35
33
44
42
42
28
30
24
25
27
37
37
49
37
29
20
18
23
27
36
49
45
46
32
20
17
21
20
28
30
42
41
44
40
27
17
24
26
25
30
41
31
48
51
37
22
28
22
26
37
39
40
37
38
26
23
20
26
31
37
42
45
43
41
35
22
22
28
25
30
35
39
32
32
31
23
22
25
29
45
46
41
41
42
28
30
33
35
32
39
45
47
46
46
36
33
33
39
34
42
46
53
53
48
38
41
39
45
42
52
60
64
45
42
27
21
29
34
37
38
36
43
41
41
25
26
25
33
28
29
30
32
36
30
23
17
21
40
28
38
41
38
34
34
29
29
22
28
38
38
28
31
34
30
12
22
17
29
33
40
36
44
46
52
50
41
36
45
50
38
31
36
30
40
45
52
61
64
61
51
41
42
24
21
6
-2
-19
-25
-8
5
9
9
17
19
12
19
32
33
29
31
29
28
27
13
17
18
19
29
34
36
37
33
27
23
26
22
23
31
39
37
41
39
39
27
27
24
29
33
44
39
42
34
31
34
28
30
29
28
41
45
43
48
35
24
31
34
39
34
38
41
46
50
48
30
32
32
34
31
52
55
57
51
45
40
38
43
49
48
62
61
56
50
70
53
49
51
61
72
76
62
75
76
72
63
64
71
77
80
83
80
86
81
79
74
75
63
72
74
84
86
75
75
77
64
60
57
68
70
69
71
70
55
49
47
45
50
49
54
50
47
50
47
40
35
26
21
25
38
47
47
48
43
38
27
23
30
30
29
38
46
50
33
15
27
29
24
26
38
37
36
38
33
22
26
28
23
28
30
32
36
33
34
22
18
19
28
28
41
44
41
33
33
28
28
23
23
26
41
44
38
43
42
33
32
28
34
31
38
46
49
44
37
27
31
30
42
39
51
45
42
40
35
32
34
34
39
36
47
42
44
46
37
27
28
27
19
25
43
48
50
39
33
26
28
21
28
42
40
45
44
40
33
24
28
21
32
37
39
33
47
36
30
23
28
29
30
36
38
46
55
50
39
23
31
30
37
43
48
46
36
34
38
36
30
34
34
37
53
50
48
50
40
41
45
46
46
53
63
57
55
48
33
30
36
36
36
36
32
37
37
29
26
26
35
31
24
30
38
38
33
32
20
15
20
29
24
36
37
38
27
30
20
24
23
29
28
28
37
36
31
26
11
11
16
21
24
28
30
41
40
45
36
31
38
45
46
51
41
41
27
33
33
39
47
60
64
62
61
60
45
28
12
17
3
-1
1
-1
-7
-4
1
8
5
16
19
28
25
29
37
39
26
24
17
15
17
28
30
41
29
30
31
33
28
13
19
26
31
35
37
40
38
23
23
20
26
30
37
44
34
28
32
31
29
29
30
32
35
35
32
34
33
26
19
29
23
24
37
47
41
37
33
26
24
26
26
26
31
40
37
47
44
29
31
34
39
34
45
49
47
48
58
44
43
48
45
47
50
59
65
67
68
59
59
54
70
77
82
82
78
76
66
61
63
66
69
73
79
80
80
79
71
63
65
63
69
63
66
68
64
56
55
51
47
41
43
39
46
46
50
42
34
34
30
24
31
35
29
32
35
33
28
18
19
15
31
36
37
35
26
23
20
12
16
11
19
21
21
33
36
26
19
12
15
19
25
28
33
28
28
28
21
15
14
12
18
23
32
28
31
30
31
22
19
21
23
30
39
34
33
32
31
27
25
14
22
34
36
32
24
21
19
27
29
31
35
43
33
24
23
25
22
25
14
26
28
36
35
39
33
28
12
14
10
23
28
28
32
36
31
29
22
20
22
12
19
30
40
38
24
31
18
14
17
19
18
32
39
40
31
27
22
27
35
21
20
34
36
36
33
25
21
30
25
30
26
33
33
38
30
23
12
19
21
25
37
38
40
38
32
30
16
19
23
28
31
46
44
40
29
28
30
27
13
21
29
36
36
41
44
31
30
29
31
26
30
42
39
44
43
39
35
33
31
30
48
55
53
47
37
18
12
22
27
28
24
23
30
36
31
24
17
25
28
25
31
34
30
30
30
29
33
23
21
14
23
33
39
34
24
15
11
12
15
19
39
39
31
27
28
25
13
11
15
25
34
42
40
42
46
43
35
34
28
24
33
36
45
47
53
66
65
55
48
44
48
34
36
21
5
-11
-12
-12
-7
-4
6
20
30
26
23
22
21
8
16
27
35
30
33
28
24
16
19
16
22
24
31
32
33
27
20
15
20
23
22
26
38
33
26
29
24
12
30
28
29
27
36
39
33
28
14
14
22
25
22
42
47
40
33
30
20
12
23
27
25
33
35
35
36
31
21
21
32
38
35
35
45
41
37
37
28
25
31
31
34
47
59
58
58
47
42
40
54
56
53
57
64
66
65
63
53
51
55
69
71
67
72
75
72
74
61
53
48
64
68
81
70
66
59
53
43
44
41
55
57
54
47
55
48
43
36
31
19
26
30
37
36
33
30
24
16
14
8
16
22
30
20
22
26
21
10
3
2
13
30
35
28
20
20
21
2
6
12
19
27
29
17
23
18
9
7
12
12
16
20
22
31
26
20
15
6
14
16
13
24
25
30
23
16
22
16
9
11
18
31
35
23
17
28
24
9
14
18
26
24
25
21
31
33
29
19
15
18
19
28
29
28
28
24
8
8
16
20
19
19
25
28
28
19
8
15
19
16
13
24
29
22
15
13
18
18
17
20
19
30
29
31
33
32
12
7
16
27
27
31
33
37
29
20
19
22
12
20
20
26
40
39
28
20
8
5
5
22
33
34
30
31
29
28
19
16
16
26
27
31
30
31
32
35
30
17
14
23
32
36
33
31
26
29
30
30
30
33
37
48
45
37
19
25
28
43
38
43
44
46
44
49
46
38
30
27
13
24
37
40
38
37
34
28
25
19
18
23
31
31
31
29
24
18
18
19
33
34
34
33
27
29
19
13
9
15
18
21
33
32
43
32
26
17
17
25
26
24
23
29
35
40
34
25
23
26
44
53
57
50
33
28
41
33
37
42
59
72
82
72
63
45
30
23
17
3
-8
-5
-2
-3
-1
-2
-2
9
18
28
35
33
38
41
35
27
24
21
24
23
28
35
45
36
31
33
45
24
24
20
32
36
39
37
41
44
39
32
29
19
35
33
38
44
50
37
38
36
25
19
30
37
43
39
44
43
35
28
34
31
29
45
52
45
44
43
38
41
33
27
29
36
51
69
57
59
48
34
38
35
44
49
57
58
59
62
62
52
41
48
52
63
71
71
71
65
63
60
65
66
76
82
80
82
77
72
71
75
72
74
71
78
95
91
71
56
63
69
69
72
65
76
73
70
66
60
51
52
49
48
49
55
50
52
48
44
33
36
35
36
32
54
50
45
41
38
27
28
17
32
42
41
41
54
49
42
18
17
28
31
33
43
34
35
31
29
22
23
27
29
31
32
34
37
22
29
25
24
16
27
40
39
36
37
30
23
19
25
26
32
35
39
32
36
32
32
26
22
20
32
35
43
37
31
37
29
28
34
33
30
29
42
48
46
38
32
28
35
33
33
39
56
53
38
29
25
23
40
48
36
43
46
43
40
35
34
25
34
34
30
31
40
41
37
42
39
31
26
30
34
42
44
38
31
29
36
30
35
38
35
45
54
57
37
38
35
31
30
33
40
52
56
55
49
55
35
34
32
48
54
59
59
57
49
57
46
42
52
41
39
43
44
47
42
33
29
28
23
33
34
44
43
40
29
33
29
32
28
21
26
35
34
40
43
36
26
26
21
27
31
30
31
43
30
35
29
30
23
33
42
46
37
30
32
37
25
25
28
38
41
50
61
68
60
50
36
33
34
38
48
65
76
78
84
77
53
40
35
42
39
37
29
10
-4
-10
-8
-2
1
7
29
41
45
35
37
37
30
33
24
28
32
38
37
37
34
34
36
34
31
33
36
47
45
39
29
35
32
25
40
47
45
43
52
46
41
32
33
29
36
44
46
46
44
38
38
32
42
31
47
49
58
55
51
45
43
40
48
45
45
42
55
58
57
45
52
34
49
52
55
52
56
61
51
51
58
55
54
50
58
60
72
67
71
57
59
66
77
67
67
79
87
85
86
76
79
76
76
78
78
85
92
93
90
80
78
75
75
77
82
83
82
87
76
70
70
56
65
66
57
53
66
67
54
56
49
42
46
44
42
41
52
50
44
39
41
36
39
29
39
46
50
48
35
27
31
34
25
38
41
37
32
35
41
44
33
22
25
33
34
46
45
36
31
22
15
24
24
22
22
34
36
31
24
37
25
15
15
23
19
33
35
36
35
27
23
25
33
28
34
40
31
33
34
31
29
32
27
33
33
36
45
42
38
44
22
20
27
37
38
41
46
44
39
36
27
31
26
31
36
43
44
54
46
40
30
22
25
34
39
43
40
43
35
25
24
28
28
30
38
52
44
33
33
42
28
29
29
43
40
45
40
43
35
39
21
29
33
32
37
50
44
47
44
25
32
33
35
34
43
50
52
43
36
26
27
26
23
34
52
62
61
51
44
40
50
45
45
42
49
55
47
43
34
19
25
28
33
36
38
32
42
37
28
28
28
32
34
29
42
54
48
34
32
29
27
21
28
40
41
41
35
39
32
25
30
37
29
28
43
37
35
30
30
36
26
25
38
49
59
60
58
48
37
37
42
25
30
39
57
63
76
76
69
49
45
32
43
32
43
32
9
-1
-9
-19
-10
-4
8
22
32
35
43
43
44
36
29
25
26
35
39
30
27
28
30
22
28
26
30
48
51
43
47
47
36
31
31
33
33
37
55
50
40
34
24
28
33
37
41
47
38
49
45
44
43
39
38
33
38
55
47
50
54
47
37
38
39
47
43
44
52
47
34
38
42
46
48
52
49
57
52
60
60
57
54
54
53
62
61
63
64
76
70
60
65
73
70
67
70
84
88
90
83
76
73
70
72
71
71
83
83
86
82
79
72
71
63
73
79
76
70
76
74
70
58
56
53
57
53
68
70
65
50
44
40
37
33
40
47
54
49
50
45
35
29
22
28
34
41
42
44
48
35
25
32
28
31
34
44
45
41
32
32
28
29
33
28
23
28
38
44
42
35
20
20
18
24
22
34
38
36
32
32
24
19
22
20
27
36
40
40
32
27
24
27
25
24
36
41
42
38
35
40
36
30
30
33
28
35
42
45
41
40
28
27
22
36
43
45
45
37
34
38
32
29
30
32
32
35
39
46
46
43
22
19
12
16
40
50
39
36
31
26
22
22
25
23
32
43
45
38
39
39
24
25
32
33
39
39
44
47
44
42
36
30
29
40
40
43
51
51
51
45
32
37
41
43
53
62
53
40
39
39
28
18
21
35
33
38
29
31
22
15
19
30
16
14
24
30
26
24
23
18
11
11
9
19
30
19
20
23
24
14
11
18
17
21
28
29
27
19
20
14
10
10
17
21
27
32
32
32
35
31
38
37
51
59
54
52
41
35
37
34
45
50
70
81
89
75
65
49
36
33
40
23
18
4
-9
-9
6
10
14
9
16
16
22
26
30
33
39
25
20
5
16
20
18
12
19
26
25
15
15
6
6
9
25
24
23
16
22
36
27
13
10
6
14
16
27
33
40
28
16
11
17
13
14
31
38
37
40
32
31
23
22
21
23
28
36
31
36
41
35
27
37
32
38
40
36
42
49
43
36
28
42
41
37
46
46
47
54
51
41
42
46
47
50
62
64
67
64
61
55
63
62
59
63
67
75
75
77
80
68
63
62
67
74
82
76
80
80
79
73
62
64
63
65
77
78
77
67
64
55
59
56
54
56
65
53
50
52
52
42
43
45
47
41
52
64
52
51
50
43
35
29
42
45
59
56
58
47
42
46
49
49
44
45
58
55
58
59
59
40
39
43
47
52
57
48
41
47
51
45
41
36
43
45
54
54
57
53
46
32
35
39
49
50
56
61
49
39
47
40
41
48
60
64
63
55
46
42
45
52
49
46
45
51
63
59
54
54
51
47
57
44
52
60
62
59
53
53
53
51
49
50
59
74
73
64
59
51
52
44
45
50
50
54
69
64
62
62
58
49
51
56
55
66
65
64
63
57
48
50
53
64
61
67
66
74
66
49
41
41
51
60
57
64
68
69
72
66
53
53
48
62
69
79
74
78
66
64
57
59
58
60
68
83
80
81
76
69
68
73
73
77
73
81
79
79
69
63
58
53
54
58
57
60
63
65
69
59
53
58
61
68
61
64
62
64
67
58
42
51
63
55
66
71
64
67
61
58
53
54
63
58
63
69
65
65
59
49
51
60
64
59
55
71
78
78
80
84
88
79
75
82
83
78
77
78
94
90
90
101
93
85
85
78
76
74
69
51
29
28
32
30
37
49
59
58
66
59
54
49
61
66
74
73
67
59
57
59
59
55
62
68
79
80
79
67
60
47
58
61
68
69
73
72
80
69
71
63
58
55
58
61
74
82
72
64
68
66
71
72
79
73
83
79
80
78
75
65
67
64
70
74
90
85
77
73
72
72
71
65
77
86
86
76
90
82
77
77
79
79
79
85
99
97
93
93
92
77
87
95
101
103
108
110
109
107
110
113
104
99
100
111
118
115
115
117
111
99
95
100
102
113
130
125
116
109
102
97
92
98
101
103
93
108
92
84
75
80
81
79
81
84
79
75
76
74
64
61
63
70
73
80
73
68
68
64
59
59
65
66
61
67
72
70
51
58
71
66
61
67
56
68
73
71
64
57
53
55
62
64
66
75
78
74
66
66
53
50
58
64
65
71
63
69
62
55
51
57
58
58
66
70
73
70
73
63
51
69
66
67
64
65
72
81
69
65
60
59
58
66
73
75
76
74
69
63
56
57
58
68
69
74
75
72
63
59
57
61
59
61
77
82
66
65
64
60
51
55
65
60
69
75
78
77
63
60
54
56
59
57
59
66
68
68
73
65
58
56
63
62
68
67
72
70
69
55
52
63
72
60
62
70
69
66
60
56
61
60
73
68
66
64
68
70
72
58
62
68
65
71
83
85
80
65
69
59
60
70
82
77
88
86
87
84
75
60
65
62
62
59
66
70
69
63
62
61
49
52
58
59
65
70
69
66
59
48
47
48
62
62
63
63
66
70
63
52
43
42
54
65
68
69
65
58
52
46
49
59
64
63
72
78
70
64
62
59
68
69
80
83
83
79
75
73
70
66
76
91
110
109
96
91
85
80
59
50
46
31
22
27
27
32
39
48
44
42
50
61
71
78
74
62
58
55
53
47
55
58
61
67
66
64
59
55
53
51
56
60
57
66
67
65
60
54
45
52
58
69
62
65
73
73
66
69
56
50
55
66
66
71
67
77
72
70
53
53
55
65
65
67
71
76
66
58
58
59
53
62
68
79
85
86
74
75
62
63
68
72
73
80
83
84
73
78
76
86
81
85
88
95
101
104
94
80
86
92
95
95
104
112
100
104
102
98
92
88
92
100
103
104
102
97
87
93
90
88
90
89
95
93
93
88
83
79
74
68
61
59
71
72
78
82
75
67
61
52
47
50
61
64
59
59
62
52
52
52
47
49
56
67
67
67
57
52
42
42
54
51
48
58
57
56
54
46
44
51
51
56
65
53
46
53
49
48
46
42
44
54
63
62
59
49
45
39
39
54
50
55
63
54
56
56
54
42
44
46
59
51
61
56
62
61
55
51
53
51
49
47
60
59
59
52
55
46
48
46
50
52
58
62
67
50
52
49
44
39
44
49
57
58
59
52
41
42
48
51
49
44
61
59
63
52
50
39
44
48
58
54
49
57
59
47
51
48
42
49
51
59
70
63
59
61
54
41
48
53
50
68
70
70
67
59
54
53
60
64
61
71
71
68
70
60
50
47
52
50
53
60
47
47
54
48
45
42
49
44
43
55
58
47
46
51
43
40
41
39
45
50
49
55
50
47
40
35
34
36
39
49
50
55
44
42
33
34
31
44
