43
64
98
128
153
165
186
159
116
103
112
115
114
131
114
63
26
-14
-26
-20
-27
12
40
32
20
26
9
-2
-22
-6
-1
-3
17
37
17
-10
-17
-27
-19
4
-16
-5
31
14
-1
9
-11
-57
-35
-23
-2
8
-7
37
31
19
-11
-24
-10
-11
7
24
43
38
42
11
27
0
-10
10
-5
-2
38
26
37
-6
13
-25
-17
-15
-14
15
29
31
36
7
-3
-14
-2
-10
19
-2
34
65
30
8
17
3
0
7
55
43
63
69
52
35
26
16
24
18
20
46
78
77
74
71
53
43
39
32
58
96
88
62
48
60
63
36
25
48
71
78
72
82
67
43
54
8
30
48
47
75
83
71
34
18
33
11
2
4
10
42
49
35
29
10
-12
-6
-7
6
4
21
31
26
20
21
-4
-16
-16
-18
6
34
28
37
5
-8
-18
-11
-12
-23
27
52
52
-9
9
5
-12
-24
-12
19
13
46
35
30
1
-1
-14
-35
-17
-5
-2
33
6
21
8
-3
-23
-14
-4
-4
21
24
38
21
19
-4
-39
-12
-15
4
16
43
49
23
7
12
-20
-24
-25
16
18
37
37
37
20
13
-27
-23
-13
25
-6
23
34
23
7
-9
-31
-9
-5
4
7
26
44
42
6
-6
3
-10
-2
14
38
18
15
19
10
3
-25
-24
9
25
13
50
63
23
-2
-8
-28
-28
-19
7
26
43
29
13
1
-18
-24
-38
-13
1
10
18
26
31
11
-1
14
-11
21
18
20
27
38
10
11
-30
-28
6
-8
27
34
62
30
4
1
-17
-18
4
-3
-2
19
22
12
6
9
-17
-19
-6
2
16
29
39
25
-5
13
-25
-42
-24
-10
-2
18
54
34
7
9
0
-10
-3
10
-1
22
41
24
18
22
5
-13
-35
-11
-3
55
40
36
8
-12
-32
-24
-10
8
11
37
44
17
5
-10
-26
-35
-18
8
11
-1
13
2
24
6
-22
18
-16
8
-4
51
55
34
9
0
5
-27
-9
-1
19
27
21
24
18
4
-3
-20
11
18
27
31
57
46
17
11
-6
-3
13
27
26
50
54
35
22
5
1
0
-1
12
39
38
38
31
9
22
-11
-13
-32
23
40
31
29
25
2
1
-22
-15
-11
13
24
33
24
16
25
-15
-51
-32
-22
7
10
28
0
20
-13
-12
-16
-14
-9
-8
12
23
18
-10
-26
-29
-32
-8
5
-9
35
38
28
42
18
11
-11
12
7
39
54
61
65
62
67
76
104
147
179
187
204
178
135
99
108
51
28
45
14
-21
1
11
20
-11
-21
-31
-15
-2
29
16
40
48
22
14
-1
-16
-4
-10
-8
14
23
35
31
11
-1
-26
-24
-26
3
0
41
41
20
21
-33
-28
4
-3
9
3
2
31
15
-5
-1
-37
-7
7
25
44
35
20
10
9
10
-15
-12
-25
1
10
41
56
37
17
-13
-35
2
9
37
42
36
58
10
6
1
2
8
26
30
49
45
51
41
16
16
5
10
37
19
60
64
69
51
17
8
5
9
32
54
76
89
66
62
76
59
38
50
66
77
95
87
102
81
63
56
42
61
60
53
84
79
57
69
47
7
19
18
37
38
57
55
34
40
7
-7
-7
-3
5
14
31
41
2
-2
-3
-13
-6
0
16
23
51
41
14
0
-10
-31
-15
16
10
27
52
33
45
29
0
-12
-5
0
-18
19
30
19
25
9
1
-10
-27
-14
13
13
30
30
14
6
0
-17
-28
-12
-4
-6
22
30
6
5
2
-8
1
-16
12
6
33
26
61
19
-5
-21
-8
8
8
19
58
56
57
12
-21
-12
-31
-14
-9
25
45
53
15
12
-1
-22
-15
10
8
2
34
40
7
9
-6
-11
-1
-12
3
12
26
26
29
1
2
-12
-7
-13
7
29
49
16
31
6
5
-13
-21
-3
13
9
39
55
31
6
-3
-26
-26
5
6
19
38
37
10
3
-22
-19
-9
-14
8
47
34
31
4
-8
-14
-11
-2
-13
14
37
61
49
21
8
-25
-11
-29
-3
21
54
53
40
-18
-28
-18
-14
-9
-10
-10
39
44
24
24
7
-21
-16
-22
2
21
27
36
22
14
12
-29
-18
-14
12
16
23
10
15
16
-9
-33
-13
20
33
15
38
37
34
14
-2
-16
-7
-23
-9
1
60
8
28
0
1
5
-3
-10
13
15
41
41
27
25
9
-28
-17
1
25
37
52
45
41
12
3
-5
3
40
32
40
59
55
31
32
-5
-18
-10
6
25
59
73
66
18
4
-8
-46
-14
-5
9
17
9
34
5
-9
-26
-8
-18
10
5
20
37
37
22
0
-19
-16
-26
-12
12
44
22
33
-7
-20
-36
-52
-41
2
12
46
31
37
16
11
-36
-35
-7
-3
17
36
35
27
8
13
-16
-10
-13
2
21
39
59
62
66
71
83
117
101
140
129
156
127
100
111
94
40
46
33
-16
-33
5
3
-11
3
-3
-31
-30
-17
8
30
12
39
11
31
28
-36
-44
-15
30
4
50
35
6
-15
11
-15
-13
-13
1
18
39
29
34
10
-28
-25
-18
-23
42
27
44
44
-3
-9
1
-39
-12
2
19
34
38
32
31
17
2
-23
-24
-4
30
36
28
56
42
24
-12
-8
0
-35
0
43
65
21
23
17
-6
-23
20
40
48
58
70
59
52
36
-5
-2
14
42
38
46
79
81
67
38
36
7
42
55
77
77
56
79
74
61
33
35
47
73
72
80
96
108
83
52
48
43
53
72
58
68
84
78
58
47
-7
16
23
35
39
55
58
38
30
27
-19
-11
-15
8
25
40
45
34
10
-6
-40
-30
-6
-2
3
34
54
59
22
5
-20
-13
-11
-12
20
35
5
31
12
-4
-23
-20
-7
10
1
42
38
17
2
-2
-31
-7
-20
-4
-12
20
24
28
18
-17
1
-22
-34
4
10
33
31
-6
-9
-4
-29
-5
19
43
12
24
37
10
21
-3
-20
-17
-10
-13
22
41
18
47
17
14
6
-27
-42
-33
4
58
57
16
29
-8
-17
-21
-12
21
31
20
20
12
-1
2
-5
-7
21
1
28
32
33
3
-3
-18
2
-4
-10
16
27
13
18
11
-1
-17
-14
-4
20
3
32
41
36
22
-11
-15
-27
-25
21
35
38
38
32
-20
-17
-33
-33
6
5
26
15
26
25
4
10
-28
-3
-9
-28
-2
36
34
8
13
6
-15
-20
-13
-15
3
49
55
53
30
4
1
-14
1
25
0
41
81
59
44
14
-21
4
10
39
22
35
39
37
16
2
-22
-27
-1
25
21
44
40
19
10
14
-36
-50
-27
-16
-16
32
4
25
10
14
-32
-27
3
31
23
27
38
10
-6
-15
-41
-25
-11
15
23
38
37
19
-5
-38
-43
-29
-12
4
30
63
45
22
14
-47
-52
-41
-32
1
26
55
39
31
-2
-27
-19
-17
-1
56
47
77
118
119
147
120
139
152
128
131
130
131
124
92
64
41
-1
-37
-32
-15
8
29
45
17
-10
-15
-33
-31
-10
25
18
33
12
-5
-13
-39
-24
-9
11
27
26
14
14
-13
5
-6
-12
-10
-9
16
28
33
28
24
-4
-26
-4
-16
5
10
39
47
29
39
18
-15
-6
-9
-11
7
37
42
18
5
9
-24
-43
-2
13
16
49
37
25
16
-7
-23
-20
-2
8
20
58
44
51
34
28
-3
38
7
7
40
60
68
48
32
23
6
3
20
43
49
57
70
64
45
33
22
48
49
80
66
76
94
87
74
52
33
65
51
46
78
86
86
78
56
55
58
32
40
62
42
64
75
57
45
27
4
6
24
44
39
61
32
21
-13
-21
4
-5
6
29
43
47
35
37
12
-15
-24
-29
3
12
22
55
43
11
10
-1
-25
-23
16
-5
8
34
39
5
-2
0
0
12
1
5
45
42
27
7
-11
-15
5
-29
-10
-4
19
38
51
23
-2
-16
-13
-26
-1
6
29
17
14
20
12
-15
-18
3
15
12
47
32
44
18
8
-10
-14
-15
-13
24
46
48
32
8
3
-11
-33
-10
22
14
55
34
12
25
1
-16
-23
-10
16
31
26
61
30
-17
14
-35
-5
6
15
19
38
37
34
17
-4
2
10
-10
-8
15
56
22
26
16
21
-27
-22
-12
-9
41
48
45
26
5
-9
1
-26
9
-2
37
34
47
44
-11
1
-35
-36
-12
9
31
41
36
23
23
-12
-2
0
-8
3
23
46
26
33
31
-3
-31
-20
4
-5
24
36
43
25
1
-22
6
3
9
35
60
66
68
54
34
5
16
16
21
31
35
43
48
11
5
11
25
33
-5
17
50
32
44
17
-6
-40
-16
-11
-11
21
7
25
31
-14
18
-23
-7
-21
-11
7
35
45
26
18
16
-14
-17
-1
1
15
25
33
19
-2
3
-35
-22
-24
17
17
42
17
18
-20
-6
-40
-33
-8
9
20
3
35
36
36
37
11
-40
-6
8
33
50
72
91
82
98
121
145
159
203
150
176
149
136
132
94
65
62
37
18
-10
0
3
16
-10
-6
-22
-23
-24
-3
5
13
25
-7
-14
8
-5
-12
-15
2
23
9
47
34
-7
-2
-16
2
-6
20
24
18
32
27
6
-6
-22
-26
-15
28
29
54
48
30
11
-19
-28
-10
-22
-11
13
31
40
6
-6
-24
-12
-2
-28
2
31
28
29
23
38
10
-16
13
15
16
40
48
55
28
17
1
5
11
17
35
66
50
49
33
25
10
7
26
26
25
55
59
47
61
55
7
4
16
40
52
72
86
77
64
61
46
25
37
77
77
112
101
80
76
56
37
57
67
70
65
88
74
73
51
34
3
18
4
29
28
32
42
41
31
13
-33
-31
1
13
5
43
12
22
1
-11
-24
-15
-12
17
31
56
54
33
30
-4
-36
-19
-3
17
29
55
43
40
51
-18
-12
-11
-25
3
16
22
20
23
12
-6
-18
-20
-3
12
10
4
7
23
-1
-8
-19
-30
1
10
35
40
19
-8
-5
-9
-5
-22
2
17
21
51
49
14
11
-11
4
6
14
6
19
29
24
0
-1
-42
-10
-8
-6
23
38
15
21
24
-2
-24
-23
-9
-7
8
37
38
26
10
13
-18
-6
-1
21
7
39
41
39
9
7
-26
-10
-1
0
6
48
14
20
4
10
0
-32
-2
-5
11
44
55
29
-1
-20
-5
-17
-39
6
5
48
38
12
12
0
4
-27
-4
13
8
21
37
11
3
15
-20
-25
-5
22
11
24
39
15
8
-20
-9
-1
-18
1
6
42
46
12
6
16
-5
-33
-26
0
-8
35
23
26
24
2
-35
-28
-7
14
20
26
7
24
0
-9
5
7
3
14
39
22
59
5
-18
-42
-4
-27
-24
6
17
35
25
11
-12
-26
-37
-31
5
23
50
18
10
38
14
-13
-8
-27
-12
12
21
33
21
4
-4
-34
-30
-13
12
19
32
34
38
-9
13
-14
-15
-9
5
25
41
29
37
16
28
-6
-1
7
29
25
60
60
42
44
36
-6
-27
-2
14
33
53
43
32
-5
20
-8
-10
-1
27
-10
33
53
36
-9
8
-14
-13
-27
7
6
1
22
22
4
-12
-19
-40
-11
5
22
42
36
42
-1
-11
-48
-25
2
-2
-10
7
30
16
11
-7
-16
-12
-7
5
2
22
20
7
10
6
-10
-7
2
-3
20
51
78
48
40
28
57
84
118
151
182
200
185
168
129
109
78
88
76
54
59
38
-1
10
-25
-13
-21
-28
-10
10
25
45
23
-1
6
-36
-22
-6
-6
20
31
22
20
3
15
-6
-19
-47
1
26
30
36
4
9
0
-18
-24
-15
9
5
29
9
28
18
6
-8
-18
-22
8
23
30
31
15
8
-1
-31
-21
-8
15
20
47
35
43
31
15
-34
-8
-29
-18
38
50
-2
31
15
12
-20
6
0
14
32
61
55
42
23
21
11
5
4
32
48
60
62
63
28
5
-1
16
34
48
59
90
94
76
69
54
54
40
43
40
66
79
107
97
77
60
17
15
42
52
67
96
91
72
30
31
32
11
31
30
40
60
51
33
22
13
0
-1
4
4
32
52
35
6
8
3
7
14
20
16
7
38
45
29
11
5
-27
-16
8
10
21
24
22
28
-2
11
-14
-9
-31
3
11
10
38
19
-34
-43
-17
-17
1
5
24
29
22
2
-8
-13
-17
-17
26
30
43
53
56
17
9
-5
-5
-5
7
18
16
33
4
12
-4
-8
-5
-40
7
21
43
16
31
30
-3
-25
-40
-28
5
10
34
29
33
27
28
-21
-21
-21
-12
7
38
25
35
21
33
2
-11
-3
24
14
34
60
36
28
-7
-35
-25
3
4
12
53
66
35
21
-20
-7
-32
-10
13
-6
10
49
34
4
-5
-33
-28
-12
-6
15
56
36
15
5
-3
-13
-27
-8
-3
33
52
31
51
11
12
-24
-23
10
23
17
22
13
2
27
1
-16
1
15
14
19
32
32
0
7
6
-37
-19
-4
5
11
13
17
18
9
-17
-24
-23
2
20
26
48
31
31
30
-29
-46
-13
15
1
29
41
44
19
16
-18
-11
-22
10
15
16
41
35
20
11
-17
-18
-22
-6
12
45
35
-5
20
-8
-41
-48
-16
-4
-2
32
40
28
10
-4
-22
-8
1
0
33
16
34
36
26
8
-29
-11
-12
-10
13
55
35
25
27
-3
-6
10
1
-11
21
58
30
22
-3
0
-25
-28
-9
-3
7
34
33
3
1
-25
-22
-11
-18
-5
2
25
31
28
19
8
0
-4
-6
20
34
42
53
48
16
12
17
6
23
47
36
54
59
52
20
20
11
20
13
15
30
54
39
21
16
6
-26
-14
-6
5
15
26
30
-3
16
-36
-37
-13
-3
26
47
37
33
17
-2
-32
-21
4
8
11
-11
19
28
16
26
4
-15
-14
-9
2
22
19
23
7
4
-23
-28
-28
-8
4
-2
26
37
25
-5
-16
-8
-6
14
45
56
42
63
48
40
47
86
109
138
162
206
216
165
148
127
69
104
78
75
70
47
34
19
-7
-12
-19
-23
-19
-9
-1
27
18
-1
-3
4
-50
-18
-15
-15
9
35
28
37
20
20
3
-28
-11
7
10
50
33
33
12
4
-16
-7
-25
17
25
27
26
26
11
-10
-20
-24
-19
15
23
35
50
20
12
-3
-23
-25
-12
3
13
40
36
14
8
8
0
6
10
12
19
62
42
38
4
19
-11
-1
5
23
57
35
50
27
45
11
10
28
29
39
39
67
64
74
58
15
-4
14
31
40
61
84
87
74
40
28
26
26
58
68
96
91
81
84
70
46
41
46
66
81
100
97
65
66
57
33
23
17
37
28
54
62
72
39
19
9
5
-11
13
21
50
52
39
30
-1
-17
-36
-23
-6
4
27
16
27
15
15
-3
-5
-1
16
21
37
49
30
4
7
-14
-19
-13
11
25
32
38
37
4
15
-41
-29
-1
6
13
51
44
23
-1
-18
-34
-36
-5
0
11
26
21
15
-5
10
-37
-32
-4
9
10
55
65
51
10
-7
-35
-14
11
7
14
47
29
21
12
8
-1
-9
-8
8
15
27
37
22
13
2
-22
-14
-1
12
39
55
24
16
-17
2
0
-23
-5
27
36
28
32
24
-17
-2
-24
-1
-7
28
13
31
25
39
17
-9
-20
2
5
10
21
42
30
12
3
-8
-30
-2
9
25
46
64
24
26
3
-31
-47
-20
10
21
19
14
13
19
0
9
-18
-13
16
27
31
20
21
-1
7
-24
-39
-21
2
30
58
45
18
19
-24
8
-15
0
15
55
41
30
14
10
8
-17
-12
-9
-4
10
30
26
33
4
-18
-35
-11
9
2
14
20
11
32
29
-5
-41
-2
2
6
15
59
28
39
-1
0
-26
-19
-6
17
33
61
40
-6
-10
-1
-20
-5
-6
16
37
51
40
12
-9
-5
-30
-26
-18
6
2
37
39
-3
4
14
-2
-27
-14
-1
27
38
19
21
7
-9
-13
-16
-21
11
30
48
63
41
19
13
-34
-16
-28
12
40
60
36
-1
8
11
9
-14
-15
21
33
52
55
41
29
7
6
8
29
25
39
42
42
30
18
1
-5
-9
14
7
41
39
24
36
-1
-39
-29
-34
-2
3
37
51
15
18
9
0
-13
-17
12
20
18
19
4
-15
8
-30
-33
-6
12
7
40
30
20
-7
-7
-27
-7
-12
13
10
35
26
44
4
-13
-23
-25
-15
-2
6
39
49
2
25
25
-9
-3
22
52
96
137
173
171
177
185
130
99
84
98
110
123
99
75
17
-15
-48
-42
-29
-18
12
42
33
12
19
-2
-33
-20
-16
-3
9
22
34
11
20
-7
-22
-9
2
-9
8
31
24
10
-2
0
-20
-40
4
17
19
23
24
-9
-20
-23
-25
-9
-3
23
30
19
44
17
15
11
-6
-17
-17
18
35
52
43
28
21
-3
-25
-31
-4
1
55
38
40
13
15
2
-7
-6
12
27
37
54
51
24
-6
-27
-7
4
12
17
71
60
44
66
46
19
24
16
36
47
87
81
82
74
65
34
28
28
38
74
91
72
97
88
63
44
42
51
56
72
82
106
80
43
30
-5
30
16
16
65
72
53
39
48
48
18
31
37
31
31
57
61
42
17
14
-8
-22
-16
4
8
44
35
20
32
-12
-31
-16
-8
-3
9
25
48
29
-30
-12
-32
-28
-12
20
5
35
28
28
6
8
-13
-29
4
39
24
47
41
22
2
-29
-24
-29
-9
8
10
28
41
40
14
-2
-9
-10
-32
-12
-11
20
32
39
13
-5
-16
-37
-14
-7
-3
23
23
6
-20
-7
-19
-1
27
23
25
43
35
17
11
-6
-14
-8
-7
38
25
23
47
-6
-1
-11
-11
1
-9
17
33
40
31
9
13
-27
-15
-19
2
5
38
26
17
7
2
-27
-16
-8
41
-4
12
14
34
9
-1
-6
-24
-14
6
12
46
62
24
-4
5
-21
-17
1
1
-2
41
30
30
5
-5
-25
-32
-6
-1
7
53
15
9
7
-17
-44
-38
5
40
38
37
36
56
25
-6
-30
-35
-5
-20
-2
39
35
36
8
13
-12
-8
-10
13
20
30
23
25
-1
-33
-22
-19
-42
9
2
32
38
17
-17
0
-9
-18
-17
6
5
19
18
1
-11
14
-3
-5
-16
1
27
26
45
7
-2
-7
-4
-6
-11
15
2
29
45
27
7
-7
-3
-10
6
29
56
63
38
33
31
15
7
12
43
37
36
46
20
27
6
1
-10
-26
-18
20
33
32
26
-3
9
-6
-18
-13
-5
32
29
17
17
1
-3
-20
-41
-6
5
4
53
34
15
15
-1
-18
-16
-23
-3
14
11
19
41
-13
-14
-55
-6
-18
-12
20
42
59
17
-2
-26
-37
-32
1
17
8
23
25
48
13
22
-25
-31
4
13
21
70
107
101
115
139
141
159
151
153
162
149
144
104
97
90
44
8
-31
-34
-7
34
28
17
1
-12
-31
-30
-36
-16
12
19
39
21
-14
-5
-34
-29
-30
-11
35
30
22
22
5
-4
-29
-15
11
25
-9
30
21
17
10
0
-19
-17
-1
18
31
40
35
17
5
-15
-19
-15
-17
-8
10
30
46
23
-2
-16
-11
-10
2
-1
16
34
48
-1
8
-2
-11
-7
0
15
40
25
42
28
14
6
-12
12
19
43
52
56
57
26
19
16
23
11
4
36
75
80
89
80
37
36
12
28
46
42
82
82
73
72
81
50
50
58
61
68
89
86
83
68
34
16
39
63
47
49
83
62
54
56
23
-3
-4
-9
16
30
68
66
50
46
24
-12
-15
-17
31
20
47
50
23
14
7
-2
-4
4
6
14
42
29
13
0
11
-23
-13
3
10
-1
22
54
4
3
-2
-23
-27
4
12
1
20
4
8
28
7
-38
-35
-17
-1
10
44
24
28
3
-12
-31
-5
19
25
34
26
22
12
13
-10
-17
-26
-1
14
36
46
26
8
1
-12
-17
-12
9
1
28
56
40
-4
-9
-24
-33
-26
-9
16
37
40
33
20
-15
-45
9
10
-14
-3
26
31
34
2
13
-17
1
-3
20
8
29
42
32
13
23
-18
-15
-14
12
17
37
33
37
24
-5
-19
-12
-28
0
23
37
34
17
4
9
-19
-28
-9
21
9
26
24
9
11
-11
-10
-17
-16
-7
-11
22
37
21
-8
-4
-34
-7
-6
9
41
46
51
19
-2
3
-8
-14
-4
-7
7
41
48
7
3
-9
-20
-7
-12
1
14
31
15
12
30
3
-36
-44
-37
15
12
34
42
15
32
7
-21
-10
9
-5
25
39
37
15
3
-3
-21
-15
-35
28
28
32
42
28
32
17
0
27
29
43
43
56
64
32
19
11
-14
-16
-9
36
34
51
43
18
20
0
-12
-24
4
17
38
39
27
12
-13
-12
-24
-28
-15
1
27
15
24
3
-9
-30
-21
-23
8
14
22
11
22
19
-1
-11
-17
-13
3
19
18
26
36
-1
1
-11
-2
-7
-13
-7
9
7
9
2
8
-8
-9
19
4
-4
32
46
16
30
34
39
69
92
119
154
195
190
199
161
154
109
79
102
76
70
79
32
-10
-12
-20
-16
-38
-14
10
2
23
34
23
29
-7
-43
1
-12
-4
23
21
32
27
-12
11
-13
-31
-20
9
6
31
12
36
10
-3
-17
-25
1
11
36
41
29
10
6
-4
-8
-48
-15
9
18
29
42
22
11
-4
-21
-39
-10
26
31
30
37
21
11
18
-8
1
14
11
39
60
54
31
11
-14
-9
7
-1
31
45
49
64
43
16
2
-18
2
10
30
51
65
61
46
47
31
14
45
43
43
71
79
65
72
67
48
23
43
59
73
98
116
105
67
89
37
26
30
53
74
94
108
83
70
51
23
13
38
33
32
53
79
43
36
35
5
-4
4
22
27
43
45
32
32
-3
-18
9
-8
19
5
42
49
33
13
2
-12
3
-3
10
1
38
24
46
6
8
-15
-27
-12
10
15
42
53
7
-16
-29
-25
-12
-9
-2
10
56
30
23
24
9
-22
-39
-3
43
12
32
10
9
18
12
-19
-6
5
3
24
23
29
17
11
6
-11
-20
-2
5
33
36
30
9
9
-7
-22
-10
-9
3
38
45
29
28
15
4
-6
-2
-13
12
43
22
14
31
23
13
-9
0
15
27
27
37
22
19
20
-3
7
-7
-6
17
29
24
19
28
-7
-2
8
4
4
3
15
37
37
16
-6
-24
-24
-11
12
3
25
50
52
27
-2
-12
-18
-7
2
22
28
35
19
28
5
-18
-3
-3
9
21
46
35
34
27
0
-17
-9
-18
-1
17
37
24
23
15
6
-15
5
-12
-1
18
29
22
36
-4
-8
-16
-19
-12
1
19
37
51
37
18
-14
-2
-17
-7
-4
32
50
45
21
25
22
0
3
-6
41
54
69
49
46
22
19
17
13
8
15
28
47
50
62
43
15
-3
-20
14
5
24
45
37
21
-15
-26
-23
-28
-1
-4
19
44
39
17
-5
-23
-10
-30
2
28
22
36
30
13
-12
-6
-2
-30
-11
15
3
8
24
18
1
-5
-7
-4
-14
6
33
48
32
7
1
-35
-24
-21
13
32
58
65
57
14
-19
-14
-3
15
33
68
115
151
153
147
157
102
115
114
85
100
86
105
98
13
-31
-72
-44
-17
-5
4
30
41
35
10
11
-19
-33
-16
19
22
23
18
40
20
-13
-18
-24
10
1
8
21
40
25
9
-1
-59
-52
-27
22
6
58
50
49
36
22
-39
-15
3
0
-2
43
62
18
-7
13
-19
-20
-15
15
59
37
31
35
20
10
-22
-12
21
15
25
47
60
43
21
21
-1
-17
2
27
45
48
46
32
24
-15
-10
11
20
32
50
72
58
49
60
50
3
30
45
58
54
65
93
79
55
57
33
39
58
64
70
105
114
87
74
46
54
62
66
68
97
104
86
74
63
44
25
30
38
53
70
66
83
62
45
23
9
17
16
-3
35
56
40
20
16
0
16
-1
9
28
35
35
25
22
1
-24
-10
2
5
3
37
44
54
32
18
-24
-33
-17
4
1
36
23
16
12
-7
-12
-9
3
6
26
34
33
40
6
-16
-14
-4
-25
11
9
33
48
38
15
13
-38
-31
0
43
4
46
34
19
1
0
-4
-5
-32
5
-5
42
54
37
6
-7
-18
-5
0
18
9
28
32
17
8
-2
-9
-5
-8
16
34
35
45
31
24
10
0
-6
11
18
23
45
12
58
18
9
-35
-31
-4
23
27
49
37
17
-20
-23
-12
-22
13
1
14
52
10
27
21
-16
-12
-14
-10
3
38
45
37
22
-4
-8
-10
-6
14
21
56
33
37
29
-3
-39
5
16
22
9
28
41
47
4
-11
-12
-17
-10
-22
16
36
38
27
25
28
-2
17
-5
22
27
68
58
31
22
-9
-22
-1
16
18
43
81
67
57
22
27
11
-1
-9
13
14
54
66
22
12
11
-14
-4
-4
-14
-12
47
22
-6
10
12
-15
-14
12
1
11
29
29
5
4
-1
-20
-36
-35
-24
8
55
45
36
16
-9
-1
-16
-6
6
22
35
33
27
9
8
-21
-35
-12
12
41
41
43
36
4
11
-15
-16
33
36
43
72
88
118
136
140
142
165
168
156
152
159
147
117
99
67
13
-26
-28
-5
18
49
30
37
21
-5
-10
-11
10
17
24
23
7
11
-5
-8
-24
-27
-15
5
38
45
38
25
15
-12
-15
-20
-6
15
38
38
32
11
-14
-28
-20
-3
-8
-31
51
64
62
14
-2
-8
-10
-8
5
32
34
36
54
20
-1
-2
15
-9
-16
17
29
46
36
24
14
1
1
14
27
8
30
39
29
37
44
-10
-9
5
21
24
60
67
62
30
42
15
20
16
44
66
67
73
58
61
41
23
27
34
59
83
93
82
109
50
56
68
-6
53
74
77
84
99
74
79
73
50
41
29
55
73
85
70
56
26
29
16
28
35
50
53
70
42
31
18
34
-6
6
2
1
22
25
43
36
20
8
2
-9
-9
19
25
30
56
26
10
-20
-33
-3
2
20
35
40
45
33
11
-17
-27
-6
7
-8
29
37
40
-4
11
-14
-5
9
20
29
20
34
35
6
18
6
-12
-1
17
18
39
54
41
8
-6
-4
-6
-8
-1
21
40
34
21
18
3
-31
-8
4
10
25
51
38
26
11
1
7
-4
3
-2
14
28
34
35
13
10
-6
-5
11
49
53
35
49
34
-1
10
-9
-19
-5
33
23
16
45
68
44
6
-40
-18
16
19
0
44
46
17
11
8
-7
-2
-23
2
18
39
28
32
8
0
-13
-10
-3
21
50
62
26
-6
5
-9
-25
-1
5
20
25
62
70
71
-12
-26
-13
-20
9
10
29
44
51
21
20
2
-38
-12
12
11
18
40
47
22
10
3
-8
-21
-2
-8
5
42
41
38
4
-15
-9
12
-17
22
41
50
30
-2
3
-16
6
6
23
30
53
42
42
42
18
14
19
11
38
49
61
61
67
60
7
-1
22
-1
38
27
51
26
32
18
24
-18
6
-4
20
-12
37
44
34
3
9
-9
-16
-18
-5
31
41
30
17
12
4
-14
-25
-13
-3
17
54
54
28
26
3
-24
-27
-11
13
16
54
54
35
15
1
-24
-38
1
-2
2
22
20
29
-1
-15
-18
-15
5
30
34
39
48
44
20
10
-8
1
35
66
90
161
166
173
190
219
139
147
123
104
147
162
113
95
23
-18
-30
-23
-15
12
41
26
30
18
-2
-9
-36
-13
6
7
28
29
30
29
4
-27
-25
-23
0
7
18
25
36
26
17
-19
-17
-5
11
22
37
11
57
38
4
1
-10
2
8
23
32
52
38
0
4
-11
11
-4
16
47
33
43
26
15
6
-22
-26
-12
3
7
33
55
31
24
15
6
23
12
18
26
61
63
55
16
2
-11
-13
31
40
53
81
83
63
33
40
23
11
11
43
59
97
80
87
42
18
45
44
35
68
68
73
91
88
84
71
65
50
56
73
82
92
83
73
54
42
41
52
44
69
85
63
62
74
59
36
-20
-26
24
34
39
50
62
35
10
20
-8
-11
12
23
33
36
28
36
22
0
-5
8
30
23
13
35
39
24
-7
-8
-22
-5
-24
22
41
52
42
52
34
-14
-6
-1
-10
13
40
32
47
12
11
-17
-42
0
9
11
34
38
19
22
11
14
5
-13
12
31
30
44
46
33
13
-44
-18
-11
25
22
35
25
28
21
11
-27
-23
-8
18
29
51
48
34
56
-16
-18
0
-17
21
11
46
53
29
6
11
-16
-4
-3
22
24
39
38
40
14
10
-6
-14
0
11
23
63
44
30
-2
-21
-26
9
12
18
9
36
34
12
19
31
0
-33
2
26
30
31
43
37
23
10
-32
1
-4
8
30
52
40
36
13
16
-26
-24
-14
16
22
37
33
42
11
8
-14
10
9
6
24
32
32
17
11
4
-26
-17
-6
6
23
51
22
13
16
6
-17
-18
5
18
32
35
41
37
13
-10
-15
27
21
11
48
50
43
14
11
-23
-27
-8
13
15
24
42
45
29
-3
-20
-23
-6
12
27
20
24
44
13
-14
-38
-45
-5
-5
11
39
34
41
39
37
22
19
26
35
36
71
58
53
50
40
8
14
10
17
38
55
53
52
40
33
-1
0
13
10
11
62
48
0
-17
-9
-26
-38
-11
1
6
17
38
29
8
11
-40
-25
-3
13
4
32
36
27
1
23
-12
-9
3
16
9
38
20
36
11
-4
-6
-19
-3
18
13
34
32
29
-7
0
-15
-23
-2
25
33
54
28
17
32
14
6
0
24
62
97
149
173
194
204
178
92
93
113
114
150
127
133
82
17
-26
-26
-37
-28
17
18
53
42
9
14
9
-10
-27
2
36
56
62
37
7
0
-24
1
-18
-8
12
12
31
16
10
1
-29
-36
-11
11
19
31
22
28
6
19
-18
-54
-1
17
18
32
34
29
47
7
-20
-12
4
33
21
46
53
50
15
8
-20
3
-3
-12
32
56
30
43
32
12
-17
-15
4
5
13
50
46
42
35
25
-8
-4
4
32
23
62
65
59
42
45
22
9
8
31
46
94
61
88
89
77
24
49
60
77
64
94
75
73
62
58
26
43
62
63
84
97
99
70
78
53
22
31
44
44
40
74
58
36
30
28
-12
-5
13
38
61
57
59
50
24
26
-10
3
15
33
44
50
42
31
22
-7
-9
6
17
12
5
46
37
6
7
-15
-33
-14
6
6
25
19
40
22
-4
-23
-18
-16
-24
-14
30
45
34
21
13
-6
0
-2
24
45
46
19
6
7
9
7
10
-2
0
23
45
42
30
31
29
-23
-20
-5
20
13
28
29
15
5
-18
4
-16
-1
10
20
43
39
37
24
19
-15
-12
-31
-5
8
22
43
36
21
0
-11
0
11
13
28
36
57
26
22
34
-7
-1
-9
9
10
36
43
39
7
-1
-25
-18
-10
10
24
55
41
26
12
-16
-26
-28
-1
-1
25
50
47
16
6
0
-9
-18
18
26
27
36
35
28
23
21
-3
-10
-8
3
7
59
52
22
-4
-12
-25
-47
-9
17
29
45
30
18
5
-25
1
-7
2
-9
25
48
34
26
14
-13
-17
-14
-9
0
19
39
37
36
9
26
-19
-27
26
23
20
26
29
13
13
-19
-14
-13
-3
12
40
33
5
32
15
-21
-11
-9
8
23
62
59
37
35
23
9
2
33
26
31
52
45
54
29
22
7
15
12
37
25
49
37
49
0
-10
-20
1
3
1
-1
47
50
18
17
-10
-36
-10
-31
-29
-6
30
54
8
6
15
0
0
-11
5
16
34
48
28
-8
1
-39
-34
-15
7
23
56
52
19
-16
-2
-28
-29
-15
19
12
29
13
30
20
-11
-15
-5
4
11
14
58
59
55
60
77
86
101
128
161
163
189
151
129
122
118
75
59
69
29
8
-10
-4
12
12
-8
-25
-20
-7
6
23
44
24
22
19
-8
-27
-43
-27
5
19
41
30
18
12
-19
-38
-9
-15
15
35
29
23
15
1
-12
-9
-11
14
21
25
44
28
18
8
-8
-16
-8
-2
7
45
48
49
26
4
-21
-13
14
19
28
40
37
21
12
28
6
-17
-20
-4
13
40
35
35
29
18
-15
1
-5
14
21
72
82
30
39
38
27
-6
32
61
46
64
71
60
48
55
31
28
45
50
72
92
98
89
73
71
51
31
40
56
84
110
91
83
85
64
23
63
36
56
49
58
82
67
52
40
4
10
42
62
60
81
80
50
32
15
-17
9
16
23
26
41
45
36
25
6
-14
-4
4
27
43
46
36
27
2
-2
-15
-26
-1
-3
16
17
5
1
13
-1
-6
-23
-14
-10
22
25
38
33
12
-29
-3
3
18
32
58
49
58
38
15
-17
-32
-3
13
9
27
28
36
16
-5
-25
-25
-8
-1
4
27
36
34
20
-5
-34
-14
3
14
17
58
54
34
15
15
-14
-13
10
13
28
26
43
47
9
6
-40
4
6
20
32
62
42
33
26
11
-22
-10
3
0
19
27
30
27
13
0
-1
-7
-3
19
25
49
50
5
16
20
-20
-7
-9
18
25
56
43
33
25
8
-42
-29
0
26
36
43
55
37
30
27
-14
-3
-15
11
0
15
44
27
8
1
-9
-11
-8
6
35
50
46
22
9
7
-11
5
-1
8
41
49
45
26
5
9
-12
-5
6
10
45
56
31
51
23
11
0
10
27
15
39
62
69
52
55
6
9
32
32
18
43
48
52
41
28
20
8
-13
13
37
33
49
48
22
1
0
-5
-15
-11
3
35
49
34
13
-9
-10
2
-8
12
35
44
42
23
-4
-10
-33
-21
-10
15
10
59
43
47
22
1
-23
-6
-16
-13
5
47
36
23
25
6
-13
-8
9
15
-6
23
59
47
27
12
11
13
9
40
66
107
143
154
176
184
168
177
152
156
142
152
132
115
88
42
-16
-41
-13
-1
-4
32
42
36
12
10
-8
-17
-7
4
18
51
53
36
23
2
-8
-24
-6
20
18
30
32
28
22
-2
-10
-13
10
0
19
57
51
33
31
28
-8
-39
9
9
25
77
47
0
-5
-4
-6
-7
7
26
20
44
49
35
15
3
4
16
15
27
43
48
45
48
42
-7
-8
9
13
23
37
39
71
55
46
40
27
29
31
2
42
63
49
34
53
37
5
1
30
51
65
89
95
77
61
46
35
53
63
57
93
109
100
85
68
58
55
40
84
78
107
103
110
90
72
50
31
48
45
57
113
97
84
69
62
11
26
6
22
18
36
48
30
23
8
-7
-9
20
6
16
48
57
42
7
25
-14
8
-9
25
26
48
53
49
39
18
-9
-15
3
12
55
57
62
39
23
38
-3
-8
24
18
2
15
28
32
25
20
-23
-14
-12
-2
26
27
35
3
1
-16
-26
-1
-3
10
38
41
47
29
5
11
0
4
6
35
27
53
59
45
37
7
11
10
37
53
38
26
35
29
-8
-10
-30
0
8
47
22
53
25
18
16
-9
-23
-16
-5
5
31
47
49
22
22
-16
12
-1
11
23
35
46
65
30
14
-1
-2
6
12
25
39
60
55
43
1
-8
-7
-9
13
27
37
48
47
17
23
-2
3
-10
2
3
40
49
26
9
-6
-12
8
-1
-3
5
39
30
33
31
9
-10
1
15
15
17
35
58
29
19
20
8
15
3
7
20
54
52
49
33
13
-4
14
14
46
47
50
80
61
29
38
24
19
21
17
21
28
35
61
28
20
12
13
10
29
29
42
37
34
39
-7
-15
2
-7
8
22
26
32
22
7
-22
-27
-23
9
2
21
44
45
30
15
-8
-23
-13
-7
17
33
38
34
26
1
2
-17
-21
6
11
15
20
28
26
37
-12
-21
1
-10
26
50
62
54
32
21
-19
-12
-3
59
85
153
161
165
199
204
137
136
110
109
123
140
118
98
49
-1
-36
-2
-18
2
1
32
50
32
39
20
-24
-6
-11
12
6
25
38
30
1
-7
-22
-24
-17
13
16
45
39
4
33
11
-52
-29
4
15
15
23
44
-1
-1
-26
-42
-26
-24
9
39
41
45
45
23
9
-15
-9
8
10
17
46
57
44
15
19
-6
-28
-11
29
37
73
48
22
21
2
-7
-3
-3
21
45
64
41
-2
16
14
-13
1
3
62
43
49
62
47
31
-4
-9
-11
56
57
71
87
104
70
52
50
61
53
62
62
80
93
81
73
65
50
64
62
69
59
81
96
84
76
64
53
31
12
24
60
74
63
46
44
27
6
15
-9
-2
11
67
24
10
12
18
-4
15
2
-3
30
41
51
52
31
12
4
-4
4
8
24
30
37
26
9
3
-17
-31
-8
-8
-5
25
39
31
26
3
-39
-23
-3
-10
1
11
6
13
-1
13
-23
-26
-11
7
-6
30
51
32
5
11
-33
-23
9
24
26
28
25
16
-3
-8
-23
-21
-8
19
15
31
31
45
17
0
-21
-17
-15
4
17
25
38
27
-7
-14
-29
-15
-11
1
12
7
17
31
28
-17
-28
-18
2
-5
16
43
48
39
22
8
-4
-15
3
6
23
49
44
25
-6
7
4
-27
-9
3
27
27
25
26
1
-28
-43
-31
-7
-14
16
33
32
29
12
2
-27
-12
11
-8
31
20
15
-6
23
-10
-23
-9
3
8
29
58
45
12
-4
-16
-31
-30
-23
-17
15
11
7
20
6
-25
-17
-5
-20
3
33
25
17
-2
7
-19
-19
-21
0
17
40
12
10
-1
-16
-18
-10
-13
14
14
45
7
25
27
9
-4
2
1
16
27
52
25
56
42
5
-10
-7
-7
18
14
13
33
7
24
15
-29
-18
-21
-11
9
37
36
18
12
-8
-54
-54
-45
-18
-4
26
19
30
-11
-27
-37
-36
-14
-9
22
26
15
-3
-53
-28
-29
-37
-11
-11
11
22
8
8
-17
-25
-44
-38
-48
-40
-9
19
30
-3
-17
-19
-51
-34
-3
41
40
38
30
12
2
4
0
18
58
108
132
180
165
186
173
135
100
94
100
85
104
77
55
11
-25
-58
-49
-45
-29
-14
18
15
25
23
-16
-40
-25
-26
-33
-21
15
12
11
5
5
-28
-30
-20
-18
-10
32
24
25
2
-12
-20
-11
-39
-35
-20
15
11
16
-6
-8
-41
-31
4
-46
-32
12
34
12
-2
-5
-26
-38
-27
-27
-7
36
39
19
5
7
-25
-34
-23
-1
17
14
33
32
3
-21
-16
-34
2
29
33
34
37
35
29
18
-21
-17
-2
-2
16
66
51
26
14
25
-12
3
14
44
53
88
55
61
40
34
16
-7
28
59
64
86
70
76
54
66
4
3
21
70
72
73
81
78
72
35
-9
-7
14
17
50
39
47
40
13
0
-8
-16
-11
28
37
35
8
12
-13
-16
-16
-17
-12
4
1
9
6
-2
-13
-17
-22
-6
-7
-9
-7
8
2
-5
-4
-23
-33
-44
-13
-17
11
22
12
-5
-24
-39
-27
-13
22
13
15
-13
-4
-5
-12
-43
-49
-45
-24
-3
21
14
-3
6
-7
-16
-8
-21
-27
-9
28
20
2
-38
-31
-28
-13
-34
-7
0
29
1
7
-1
-16
-50
-24
-27
-19
-5
24
4
16
-9
-29
-34
-5
-36
23
9
23
-8
7
-4
-5
-41
-22
-30
-7
22
44
23
2
-15
-25
-26
-33
-35
-3
4
37
17
-2
-9
-34
-48
-37
-47
-14
4
18
24
6
-17
-11
-27
-28
-26
-11
-14
7
-5
2
-11
-19
-32
-24
20
0
-15
12
32
13
11
-12
-38
-14
22
13
7
32
25
9
-11
-44
-28
-34
3
1
3
14
18
-14
-9
-27
-38
-30
-11
5
17
33
27
11
-2
-2
0
5
-5
9
71
39
25
19
-9
-48
-15
0
16
12
28
39
18
19
8
-42
-22
-25
0
-4
23
8
13
-3
-35
-43
-53
-46
-37
6
16
8
4
-2
-24
-70
-46
-41
-36
-29
22
22
17
-14
-21
-49
-40
-41
-21
-3
25
17
-27
-14
-32
-41
-48
-56
-35
-19
9
0
25
5
-16
-27
-33
-18
17
15
40
34
24
12
37
22
27
84
111
134
166
130
123
99
77
62
60
60
27
20
0
-24
-22
-28
-36
-54
-39
-8
-3
-16
10
17
-3
-12
-30
-34
-59
-32
-15
-6
-2
-8
-13
-36
-34
-42
-36
-12
-8
13
29
15
3
-13
-34
-45
-44
-28
-13
-26
-9
9
1
-26
-26
-31
-34
-21
17
4
22
9
-6
-17
-14
-20
-19
-23
4
17
25
7
6
-8
-55
-50
-32
0
0
10
18
6
10
1
-14
-38
-46
-14
-6
18
29
13
12
3
-35
-8
18
21
29
56
52
31
54
28
-13
-4
10
34
57
79
62
67
40
21
16
32
17
42
78
95
74
60
38
44
5
24
5
27
51
53
58
33
33
38
1
-9
-4
-7
-3
16
47
30
3
5
0
-3
-16
8
20
13
19
13
-1
-9
-35
-29
-8
-18
-13
6
6
-2
-14
-4
-40
-33
-23
-5
-5
20
20
2
-20
-24
-66
-46
-30
-31
-13
-9
-31
-13
-18
-53
-38
-48
-16
-4
19
16
20
5
-16
-25
-31
-42
-17
9
12
25
0
6
-7
-50
-29
-25
-34
-18
5
-11
5
9
-12
-37
-44
-38
-24
-5
24
4
11
-19
-46
-28
-74
-73
-30
-4
-3
-5
-10
-15
-18
-40
-34
-15
-18
19
50
24
2
6
4
-23
-32
-10
-4
3
14
-1
20
-11
-21
-51
-40
-26
-7
-21
-2
12
9
-30
-22
-37
-51
-42
-25
-31
5
-6
-14
-25
-29
-57
-54
-28
-23
-30
-5
-5
9
-2
1
-33
-24
-17
-14
8
26
13
-5
12
5
-34
-27
-28
-21
-18
40
14
-15
-34
-36
-57
-53
-32
-6
-23
13
-14
-13
-23
-2
-60
-51
-52
-18
-9
8
8
-13
-34
-16
-39
-27
-15
-21
0
13
53
22
13
9
-5
9
0
13
19
33
31
29
9
2
-12
-18
-19
1
6
-14
6
-7
-35
-49
-49
-51
-34
-40
-12
-7
6
-31
-20
-34
-58
-42
-35
-37
-26
-24
-53
-29
-59
-53
-42
-27
-17
-21
-2
15
11
-20
2
-21
-32
-25
-26
-18
3
37
18
-34
-11
-36
-37
-55
-31
-11
10
16
6
-12
-17
-60
-40
-41
0
1
37
60
85
99
105
102
134
133
131
120
109
90
93
75
56
17
-28
-36
-53
-30
4
11
26
-20
-11
-52
-47
-24
-34
-9
27
19
1
-10
-23
-47
-34
-38
-19
-10
-20
-7
-19
-36
-42
-62
-42
-34
-28
-16
-8
-24
-3
-27
-50
-70
-64
-36
-22
-20
11
13
-3
-7
-21
-54
-38
-24
-20
-13
21
17
-14
-9
-19
-48
-34
-28
1
29
13
4
-4
-38
-38
-51
-34
-17
-5
3
14
2
-16
-18
-26
-30
-42
-14
-7
16
22
28
2
-16
-19
-26
-15
1
26
0
18
35
33
0
7
18
-2
9
53
61
70
51
33
30
13
34
30
43
41
66
75
66
39
20
4
12
17
-3
37
42
36
47
32
-8
-29
-15
-34
-23
-6
14
15
26
-2
-25
-56
-46
-27
-18
-16
14
16
14
-9
-16
-68
-39
-34
-14
-5
-2
5
-19
2
-9
-34
-41
-48
-29
-10
15
10
11
-14
-41
-42
-53
-60
-29
-9
30
19
-15
-31
-33
-30
-45
-51
-42
-26
-13
-18
-27
-39
-37
-58
-55
-49
-18
-12
-10
26
-8
-54
-33
-20
-45
-38
-8
-5
10
1
5
-25
-29
-51
-41
-23
-6
1
-3
-7
-23
-27
-12
-23
-49
-40
-16
-17
5
7
-11
-25
-46
-60
-58
-39
-31
3
-18
-8
-26
-54
-43
-39
-68
-27
-16
6
-6
-6
23
-3
-40
-49
-43
-37
-17
-12
17
6
-7
-14
-38
-41
-37
-19
-19
-4
13
1
-6
-24
-48
-78
-44
-28
-28
3
9
-12
-8
-5
-74
-68
-47
-48
-56
-11
8
27
-33
-40
-34
-39
-47
-18
-34
-21
4
-10
-20
-24
-38
-56
-41
-10
-19
4
-5
4
-8
-22
-49
-35
-42
-19
-13
2
14
-19
-33
-34
-58
-55
-52
-21
-33
-17
4
-19
-19
-38
-59
-55
-63
-19
-22
-1
-6
-11
-10
-13
-47
-58
-52
-28
-20
-4
6
1
-22
-21
-34
-39
-36
-29
12
11
12
15
-7
-12
-24
-13
0
8
14
23
22
7
-15
-18
-34
-29
-26
-35
-11
7
-3
7
-11
-37
-49
-77
-61
-45
-26
1
8
-34
-52
-50
-51
-72
-45
-18
7
7
0
-11
-34
-54
-56
-49
-43
-20
1
3
8
-7
-44
-57
-79
-49
-29
-18
7
-11
-26
-33
-16
-59
-59
-58
-44
-23
-22
-9
-7
-14
-31
-45
-37
-57
-39
-22
11
17
24
4
17
46
65
95
154
156
159
161
147
104
97
58
42
24
15
-15
-4
-21
-27
-51
-48
-51
-61
-53
-14
-13
3
8
-14
-20
-38
-68
-78
-52
-34
-33
-2
-10
-39
-33
-26
-54
-63
-35
-33
-29
-14
-7
-24
-25
-49
-48
-39
-45
-19
-13
-32
13
-9
-12
4
-63
-55
-62
-42
-19
1
15
-17
-24
-34
-55
-45
-53
-41
-10
27
-2
-12
-26
-41
-50
-53
-24
-29
5
9
3
-1
-19
-18
-61
-47
-34
-36
-4
17
12
-11
-15
-23
-27
-37
-26
-13
37
49
40
26
-7
-10
-8
-14
12
18
39
47
53
24
2
3
-1
13
23
54
44
66
50
43
34
11
-6
-2
26
31
46
44
38
31
-11
-39
-47
-23
-20
2
13
18
5
7
-4
-39
-43
-55
-27
-5
28
18
17
-2
-32
-68
-58
-52
-29
-24
6
6
8
-24
-50
-47
-59
-46
-30
-21
5
14
-3
-19
-42
-66
-47
-54
-45
-37
-17
-10
-37
-55
-67
-63
-43
-61
-48
-27
-2
16
-7
12
-14
-44
-54
-30
-33
-29
-18
-4
2
-35
-35
-85
-54
-27
-17
-29
12
-7
-6
-28
-45
-58
-52
-48
-41
-16
-14
-28
-19
-31
-42
-51
-60
-57
-29
-4
-10
-5
-33
-36
-50
-63
-57
-27
-27
-24
-4
-8
-11
-16
-61
-43
-44
-24
-2
-20
18
7
-35
-49
-39
-36
-32
-25
-29
-28
-6
-23
-45
-43
-43
-49
-46
-41
-16
-12
-13
-13
-31
-35
-56
-53
-51
-40
-44
-24
-4
-24
-51
-31
-38
-44
-37
-36
-30
-3
20
6
-48
-49
-53
-66
-61
-45
-13
30
-3
-16
-6
-37
-61
-64
-63
-36
-20
4
-12
-22
-39
-16
-52
-65
-49
-33
-34
-18
-9
4
-22
-36
-63
-61
-40
-13
-9
24
16
1
-16
-19
-35
-21
6
-24
-8
-5
-7
-7
-15
-8
-56
-39
-22
-20
-22
7
-2
-23
-29
-43
-72
-36
-16
-31
-44
-19
-30
-30
-37
-54
-52
-37
-48
-41
-23
-8
-4
-27
-46
-53
-68
-57
-35
-32
-26
-26
-31
-24
-45
-69
-63
-73
-34
-54
-25
-13
-17
-32
-52
-37
-42
-58
-41
-42
-18
-5
27
-3
-28
-56
-56
-49
-42
-2
21
56
98
110
111
129
130
109
102
95
110
103
102
58
46
-9
-73
-77
-47
-55
-16
-29
-30
-48
-21
-69
-82
-79
-39
-9
1
-26
-29
-26
-26
-58
-64
-51
-35
-42
-10
-24
-24
-30
-40
-70
-53
-50
-32
-27
-1
4
-7
-14
-47
-61
-41
-69
-52
-31
-5
-10
-14
-32
-46
-76
-53
-54
-41
-21
-10
-5
-24
-41
-47
-50
-71
-54
-42
-22
10
19
-4
-18
-22
-33
-40
-23
-3
-13
-3
20
-8
-18
-32
-54
-33
-32
-18
-5
10
7
7
-6
-1
-25
-30
-22
-16
15
17
30
30
-4
-16
-53
-13
1
30
34
24
46
26
30
38
11
23
22
21
54
68
48
39
12
-19
-14
4
30
37
46
53
27
12
-13
-16
-33
-4
-29
-14
12
2
4
-10
-29
-72
-64
-30
-36
-16
17
5
-31
-34
-31
-40
-79
-63
-73
-52
-14
18
-4
-34
-30
-30
-25
-47
-40
-10
7
-3
-1
-28
-22
-64
-70
-53
-32
-26
-16
-7
-17
-37
-41
-62
-56
-47
-32
-24
8
-35
-41
-32
-37
-61
-62
-60
-58
-39
-6
-10
-17
-32
-63
-66
-53
-50
-39
-13
3
26
-5
-11
-50
-65
-53
-48
-40
-10
-2
-9
-13
-27
-36
-47
-55
-40
-36
-30
-18
-5
-8
-25
-33
-43
-51
-50
-20
-37
-10
-13
-6
-32
-42
-56
-45
-49
-39
-41
-17
-20
-22
-37
-36
-70
-59
-54
-18
-6
-2
30
-22
-29
-48
-62
-39
-52
-21
-13
13
1
-19
-15
-54
-50
-58
-51
-35
-6
6
9
4
-16
-36
-52
-55
-28
-4
11
18
15
-9
-10
-21
-33
-46
-17
-18
25
14
6
-18
-33
-34
-54
-40
-12
2
-21
8
9
6
4
-63
-63
-46
-44
-29
6
-27
-16
-38
-27
-48
-65
-55
-36
-5
1
-14
-29
-41
-39
-47
-60
-74
-43
-27
-17
-13
-11
-23
-48
-59
-70
-58
-41
-35
-24
-21
-31
-35
-37
-63
-70
-71
-54
-42
-6
11
27
14
-15
-38
-45
-51
-40
3
32
32
38
47
84
88
106
114
148
133
112
117
99
79
61
52
21
-16
-41
-59
-37
-15
-29
-30
-40
-62
-65
-34
-34
-7
7
5
-30
-50
-45
-86
-65
-34
-62
-28
-5
-3
-35
-27
-40
-53
-47
-50
-28
-7
-8
7
-14
-47
-56
-58
-44
-42
-30
2
-9
-12
-38
-25
-27
-40
-50
-48
-35
-15
-15
-39
-24
-21
-56
-69
-60
-6
-6
-6
12
9
-22
-35
-50
-71
-70
-42
-33
12
20
6
-3
-5
-42
-57
-30
-5
11
16
18
8
-13
-27
-24
-18
-17
4
13
22
38
49
-1
-18
-23
-14
-10
23
16
25
22
48
38
21
6
10
10
43
52
52
67
56
37
25
-27
-16
-21
15
25
32
12
40
3
-14
-13
-31
-6
-5
-21
2
-4
-7
-12
-14
-61
-51
-36
-26
-18
-6
-7
27
-31
-56
-60
-52
-19
-4
-18
-9
-14
-21
-17
-34
-54
-48
-37
-27
-30
-7
-6
-6
-37
-56
-86
-67
-60
-36
-15
-14
-6
-11
-31
-58
-57
-51
-59
-46
-7
15
23
-26
-38
-67
-71
-58
-18
-5
-16
1
-7
-30
-43
-45
-43
-39
-41
-27
-14
-24
24
-23
-39
-40
-49
-51
-25
-13
-7
-7
1
-9
-22
-89
-71
-57
-53
-19
-7
-9
2
-3
-28
-44
-52
-38
-46
-29
-21
-22
5
7
-19
-35
-55
-47
-36
-14
-4
-5
-6
-6
-26
-26
-68
-41
-10
-22
-5
-20
-15
-11
-30
-57
-61
-56
-53
-22
10
-18
-9
-32
-44
-82
-55
-52
-17
-27
9
-8
-29
-38
-30
-65
-64
-50
-25
-8
-8
2
-7
-24
-23
-52
-55
-37
-35
-21
-2
2
-4
-27
-30
-40
-50
-60
-36
-24
0
17
-17
-51
-38
-64
-73
-32
2
-2
16
16
8
-18
-28
-32
-18
-14
5
-10
1
9
11
-6
-26
-44
-28
-12
-12
-5
10
-11
-6
-25
-56
-62
-54
-48
-30
-9
-15
10
0
