-16
-16
-7
3
1
-4
-8
-11
-3
-6
-7
-20
-14
-9
-14
-9
-14
-18
-6
-8
-15
-19
-25
-5
-6
-14
-12
-14
-9
-12
-19
-3
-1
-12
-24
-23
-15
-15
-10
-13
-18
-8
-11
-12
-12
-20
-20
-18
-5
-11
-13
-15
-13
-12
-25
-20
-23
-20
-16
-17
-24
-18
-19
-20
-23
-14
-23
-17
-16
-12
-20
-22
-17
-20
-31
-23
-24
-28
-23
-22
-23
-9
-20
-15
-21
-20
-19
-21
-26
-20
-25
-16
-16
-19
-21
-26
-26
-27
-30
-25
-19
-12
-22
-20
-28
-24
-17
-31
-27
-20
-20
-22
-15
-19
-23
-20
-22
-29
-31
-24
-25
-16
-17
-16
-22
-25
-20
-15
-21
-23
-27
-21
-19
-23
-16
-18
-27
-22
-18
-23
-26
-21
-16
-18
-18
-15
-22
-23
-15
-24
-20
-14
-18
-20
-24
-27
-24
-20
-23
-11
-21
-19
-23
-25
-22
-24
-23
-13
-10
-24
-26
-15
-15
-11
-13
-15
-16
-16
-20
-11
-20
-21
-9
-3
-2
-20
-25
-24
-21
-27
-19
-15
-19
-15
-12
-24
-17
-16
-24
-18
-16
-14
-21
-12
-22
-27
-26
-16
-28
-39
-26
-27
-24
-29
-31
-35
-29
-25
-24
-24
-30
-30
-24
-29
-32
-40
-36
-29
-34
-37
-27
-40
-49
-51
-58
-70
-70
-60
-47
-30
-5
22
34
51
81
118
151
169
207
256
289
294
300
295
281
241
202
133
64
13
-11
-22
-38
-37
-35
-39
-40
-35
-34
-37
-33
-25
-24
-30
-26
-23
-29
-28
-28
-24
-22
-24
-22
-22
-16
-30
-29
-13
-10
-20
-11
-10
-23
-21
-19
-29
-19
-14
-22
-13
-11
-7
-12
-18
-12
-18
-18
-20
-17
-22
-16
-16
-14
0
-5
-7
-7
-9
-7
-3
8
8
-4
2
3
-5
5
4
8
11
19
20
16
16
11
16
21
18
22
34
32
29
33
31
37
28
21
32
33
44
48
37
47
47
42
52
54
40
33
43
44
38
35
31
23
22
36
36
25
23
28
16
14
13
6
1
-2
-9
-5
-11
-1
2
-5
-8
-6
-6
-15
-14
-22
-14
-26
-23
-18
-17
-25
-24
-24
-29
-30
-16
-18
-26
-23
-18
-26
-27
-20
-29
-30
-19
-14
-21
-27
-28
-18
-25
-25
-29
-30
-20
-21
-26
-26
-10
-26
-33
-20
-24
-38
-25
-18
-15
-18
-29
-24
-21
-26
-30
-22
-19
-18
-32
-29
-22
-25
-26
-18
-24
-25
-15
-20
-24
-17
-16
-32
-27
-39
-29
-27
-23
-16
-28
-25
-26
-27
-23
-22
-22
-30
-16
-18
-27
-21
-36
-37
-26
-32
-27
-18
-12
-16
-22
-21
-19
-23
-24
-24
-33
-34
-30
-24
-22
-23
-25
-19
-27
-21
-20
-24
-27
-35
-25
-22
-32
-37
-34
-30
-25
-20
-19
-20
-25
-28
-31
-28
-25
-27
-27
-21
-25
-36
-34
-30
-24
-19
-18
-19
-32
-35
-29
-29
-30
-21
-30
-32
-30
-26
-26
-22
-23
-26
-30
-30
-24
-19
-26
-27
-40
-22
-19
-30
-29
-21
-27
-27
-35
-35
-30
-12
-16
-32
-31
-22
-25
-31
-29
-26
-30
-24
-26
-26
-28
-35
-31
-26
-29
-26
-24
-21
-30
-26
-28
-26
-27
-25
-24
-31
-41
-21
-20
-22
-29
-24
-21
-24
-30
-34
-33
-21
-24
-24
-23
-20
-22
-21
-21
-35
-33
-20
-20
-14
-28
-23
-29
-28
-19
-24
-31
-25
-25
-28
-21
-21
-20
-14
-26
-24
-16
-15
-14
-14
-14
-16
-21
-21
-16
-17
-16
-12
-19
-16
-22
-17
-24
-27
-15
-20
-17
-18
-15
-18
-8
-14
-21
-25
-18
-25
-26
-26
-23
-27
-22
-26
-33
-37
-34
-31
-23
-26
-29
-27
-24
-31
-33
-40
-39
-30
-18
-24
-25
-23
-29
-45
-55
-57
-67
-63
-62
-61
-27
-21
7
29
44
54
86
120
156
185
220
261
293
297
308
303
280
253
210
147
71
26
6
-20
-31
-40
-28
-32
-30
-30
-35
-27
-24
-28
-23
-26
-27
-26
-16
-22
-27
-24
-22
-33
-27
-18
-22
-24
-16
-26
-19
-11
-25
-31
-20
-26
-17
-14
-11
-17
-25
-26
-16
-27
-22
-16
-18
-24
0
-11
-20
-20
-17
-11
-10
-15
-11
-5
-1
-7
-12
-6
-7
-6
1
0
-5
1
13
9
3
7
9
12
23
28
18
16
14
13
25
30
29
24
33
33
24
29
41
49
46
41
38
27
35
31
40
47
49
47
45
44
41
33
41
39
31
30
33
26
20
24
14
10
9
14
8
9
6
2
3
5
-4
-15
-9
-9
-16
-14
-10
-21
-25
-22
-38
-17
-14
-22
-25
-19
-24
-17
-21
-17
-28
-31
-15
-21
-23
-27
-18
-15
-22
-23
-35
-28
-23
-24
-22
-22
-22
-22
-20
-13
-26
-25
-23
-22
-25
-17
-21
-25
-29
-21
-24
-26
-21
-27
-26
-26
-20
-27
-22
-25
-24
-27
-26
-35
-36
-28
-14
-13
-22
-26
-24
-23
-27
-33
-26
-22
-26
-18
-17
-20
-20
-21
-19
-23
-21
-19
-25
-17
-18
-24
-31
-29
-22
-22
-19
0
-21
-22
-16
-30
-26
-23
-27
-35
-26
-19
-18
-21
-21
-20
-27
-18
-22
-34
-21
-9
-18
-26
-17
-22
-25
-24
-20
-27
-26
-22
-19
-21
-20
-31
-32
-24
-22
-27
-20
-18
-23
-29
-23
-32
-30
-24
-27
-39
-25
-24
-17
-19
-16
-24
-25
-23
-26
-31
-16
-16
-23
-19
-28
-27
-28
-25
-29
-30
-13
-16
-23
-27
-24
-27
-20
-23
-30
-29
-19
-19
-21
-32
-28
-31
-23
-23
-24
-26
-23
-26
-19
-22
-21
-33
-23
-17
-31
-29
-28
-26
-25
-28
-25
-27
-16
-18
-30
-25
-20
-17
-26
-20
-20
-28
-25
-27
-28
-23
-16
-20
-20
-24
-23
-25
-26
-22
-21
-25
-19
-24
-24
-20
-23
-30
-32
-26
-24
-31
-21
-18
-19
-16
-17
-20
-21
-23
-24
-26
-15
-23
-34
-31
-32
-23
-13
-19
-16
-15
-8
-12
-9
-13
-15
-16
-16
-8
-7
-11
-15
-16
-17
-5
-24
-20
-16
-16
-20
-6
2
-10
-16
-15
-21
-17
-10
-28
-25
-18
-19
-24
-22
-25
-31
-34
-28
-25
-29
-20
-22
-33
-29
-24
-19
-21
-24
-40
-30
-14
-16
-19
-32
-27
-40
-49
-60
-60
-69
-59
-65
-44
-16
10
26
38
70
95
126
172
202
231
259
295
305
317
309
292
259
223
175
97
32
9
-20
-25
-28
-30
-35
-27
-26
-30
-36
-27
-23
-20
-16
-21
-22
-19
-19
-21
-24
-21
-25
-30
-32
-29
-30
-14
-6
-22
-18
-11
-27
-30
-20
-16
-13
-17
-20
-20
-20
-13
-15
-19
-21
-22
-12
-9
-9
-11
-14
-17
-23
-17
-2
-2
-5
0
-5
-3
-4
-10
-7
3
-1
3
12
14
5
16
15
2
11
8
14
9
16
20
20
20
37
34
28
24
33
27
36
38
37
39
40
40
35
39
38
41
45
51
44
37
45
43
41
39
38
37
31
36
40
36
28
18
17
12
10
11
10
10
-3
-7
0
-2
-2
0
-3
-13
-11
-15
-9
-17
-22
-28
-19
-14
-15
-21
-14
-16
-20
-23
-20
-28
-24
-32
-18
-21
-29
-28
-21
-22
-14
-26
-26
-21
-18
-30
-20
-22
-32
-24
-25
-35
-29
-27
-21
-19
-21
-29
-25
-19
-17
-29
-24
-23
-27
-31
-27
-24
-27
-29
-27
-28
-20
-20
-28
-27
-18
-24
-27
-27
-21
-22
-20
-25
-25
-29
-21
-20
-20
-21
-17
-20
-31
-23
-24
-28
-25
-25
-22
-16
-21
-35
-28
-19
-25
-23
-26
-21
-16
-16
-26
-31
-29
-22
-29
-30
-25
-28
-27
-21
-16
-25
-16
-23
-36
-23
-17
-18
-26
-31
-38
-34
-17
-24
-30
-19
-28
-31
-29
-23
-25
-16
-28
-21
-24
-25
-25
-30
-29
-23
-30
-28
-31
-25
-27
-24
-28
-28
-29
-28
-31
-20
-23
-33
-35
-28
-34
-40
-34
-20
-31
-28
-25
-32
-30
-18
-21
-22
-21
-22
-33
-36
-29
-23
-30
-25
-25
-31
-30
-22
-36
-27
-27
-32
-33
-31
-34
-29
-31
-20
-29
-23
-28
-31
-26
-21
-35
-45
-30
-23
-32
-21
-21
-19
-27
-24
-20
-27
-30
-31
-34
-30
-29
-26
-28
-25
-21
-21
-28
-35
-38
-29
-31
-39
-35
-26
-31
-29
-25
-21
-34
-33
-31
-29
-25
-23
-21
-19
-19
-21
-17
-19
-23
-33
-33
-22
-18
-18
-26
-7
-25
-21
-18
-18
-18
-21
-35
-45
-29
-18
-12
-17
-16
-23
-23
-21
-24
-25
-22
-23
-26
-21
-19
-38
-40
-30
-33
-33
-35
-39
-30
-29
-37
-45
-32
-34
-28
-31
-26
-46
-56
-42
-32
-36
-36
-35
-40
-53
-53
-62
-79
-83
-79
-61
-39
-13
16
36
57
87
118
149
176
208
253
282
292
302
311
290
258
217
160
82
32
-3
-18
-36
-50
-46
-37
-42
-55
-41
-23
-29
-30
-34
-29
-24
-33
-39
-42
-42
-36
-33
-35
-36
-34
-34
-37
-31
-29
-38
-28
-25
-31
-39
-34
-36
-34
-30
-30
-26
-16
-22
-33
-30
-30
-30
-23
-25
-27
-31
-26
-19
-28
-26
-8
-20
-17
-18
-23
-23
-14
-10
-21
-15
-17
-8
-7
-6
-8
-13
-2
-3
-10
2
6
6
11
12
8
10
11
6
12
20
18
18
21
27
26
31
29
29
32
38
31
24
21
20
20
24
35
23
21
28
27
29
32
32
14
22
11
9
5
6
4
-4
-8
-9
-16
-16
-9
-14
-20
-20
-25
-25
-20
-32
-29
-29
-31
-30
-34
-28
-44
-32
-41
-46
-42
-44
-34
-33
-49
-43
-38
-40
-39
-36
-34
-30
-32
-39
-44
-41
-48
-36
-34
-31
-28
-37
-37
-45
-42
-43
-50
-48
-44
-41
-34
-22
-36
-42
-41
-39
-47
-45
-40
-41
-39
-42
-35
-29
-30
-39
-51
-43
-46
-44
-41
-28
-35
-35
-44
-34
-40
-38
-42
-49
-42
-41
-37
-33
-36
-33
-45
-43
-40
-39
-40
-41
-43
-34
-39
-34
-37
-35
-35
-35
-39
-38
-39
-35
-37
-38
-46
-40
-35
-37
-33
-34
-33
-42
-36
-40
-43
-40
-42
-42
-42
-34
-35
-44
-36
-34
-41
-42
-45
-46
-46
-36
-33
-41
-34
-37
-43
-40
-41
-40
-35
-28
-39
-48
-37
-45
-47
-43
-38
-26
-37
-38
-40
-43
-42
-40
-35
-47
-48
-49
-41
-34
-38
-34
-34
-39
-40
-39
-37
-43
-39
-47
-50
-44
-41
-47
-42
-42
-41
-42
-37
-36
-37
-38
-37
-52
-53
-37
-41
-44
-35
-37
-39
-46
-52
-47
-31
-33
-46
-57
-43
-37
-26
-32
-44
-48
-45
-44
-42
-43
-39
-35
-40
-45
-39
-40
-34
-33
-38
-42
-36
-31
-28
-28
-27
-35
-37
-34
-27
-27
-36
-30
-25
-35
-36
-36
-46
-32
-37
-30
-27
-36
-37
-29
-29
-31
-28
-35
-39
-38
-40
-39
-32
-40
-43
-47
-46
-46
-47
-44
-37
-40
-49
-42
-49
-56
-49
-47
-47
-41
-43
-44
-48
-41
-45
-48
-47
-62
-71
-74
-71
-78
-81
-70
-56
-24
1
15
32
68
90
126
155
186
223
258
285
296
299
298
273
225
178
101
45
-2
-30
-46
-43
-54
-59
-40
-45
-48
-46
-55
-47
-41
-39
-24
-26
-45
-41
-34
-35
-38
-41
-48
-46
-38
-38
-38
-48
-38
-34
-34
-36
-38
-38
-34
-27
-27
-42
-42
-26
-29
-33
-37
-40
-35
-30
-29
-25
-20
-28
-30
-32
-33
-30
-18
-13
-18
-20
-7
-19
-23
-23
-17
-18
-11
-13
-10
-9
-16
-12
-4
-1
-4
-6
-1
7
2
6
3
-2
3
7
17
11
19
29
34
20
25
35
28
28
26
21
31
38
31
30
33
28
28
26
27
33
31
24
22
21
10
4
4
3
2
1
4
2
-10
-8
-19
-28
-25
-28
-28
-19
-18
-20
-27
-28
-27
-27
-36
-42
-45
-35
-34
-36
-41
-40
-41
-38
-30
-37
-34
-32
-42
-40
-31
-34
-44
-44
-43
-35
-35
-39
-46
-50
-38
-30
-37
-41
-31
-28
-36
-32
-37
-39
-33
-31
-44
-44
-45
-41
-44
-32
-27
-27
-37
-29
-38
-26
-29
-35
-41
-45
-40
-34
-36
-33
-40
-34
-38
-36
-34
-26
-29
-34
-27
-35
-44
-38
-31
-31
-37
-30
-31
-35
-27
-33
-40
-35
-37
-35
-36
-35
-26
-26
-32
-33
-41
-37
-30
-40
-38
-27
-36
-31
-31
-32
-34
-30
-33
-39
-30
-29
-37
-35
-35
-30
-30
-33
-34
-32
-32
-29
-32
-33
-35
-40
-35
-33
-30
-40
-38
-29
-37
-38
-30
-36
-32
-32
-34
-34
-28
-33
-35
-44
-32
-30
-31
-29
-23
-36
-36
-29
-24
-35
-34
-15
-20
-32
-21
-22
-31
-24
-19
-21
-23
-21
-29
-30
-24
-23
-26
-30
-37
-33
-24
-19
-27
-29
-23
-15
-18
-25
-22
-26
-28
-30
-32
-35
-30
-42
-52
-34
-29
-35
-44
-36
-37
-35
-34
-44
-40
-38
-42
-41
-30
-32
-36
-37
-35
-43
-39
-48
-55
-62
-63
-79
-83
-72
-67
-59
-33
-4
15
24
57
86
116
152
177
206
261
290
297
316
321
302
255
212
158
80
23
-4
-28
-32
-37
-38
-41
-42
-48
-42
-39
-41
-40
-41
-31
-31
-26
-31
-26
-31
-30
-32
-34
-26
-19
-34
-32
-24
-25
-33
-38
-28
-29
-27
-32
-32
-24
-26
-26
-27
-18
-26
-33
-25
-17
-20
-22
-23
-22
-23
-23
-15
-19
-15
-15
-17
-12
-12
-20
-16
-18
-14
-8
-3
-2
1
-7
-6
-4
2
3
1
2
10
14
17
15
19
14
6
19
17
29
31
18
31
40
39
28
33
39
38
37
46
48
47
41
46
36
31
39
33
31
34
37
38
29
29
28
28
21
8
1
5
-2
1
4
-2
-9
-6
1
-4
-15
-16
-20
-26
-19
-20
-27
-27
-29
-26
-22
-31
-27
-21
-30
-28
-25
-23
-23
-24
-25
-28
-30
-28
-27
-17
-33
-31
-26
-27
-27
-22
-32
-31
-32
-23
-32
-33
-29
-28
-24
-23
-33
-32
-29
-29
-31
-24
-27
-31
-28
-27
-27
-23
-27
-26
-30
-28
-22
-29
-25
-21
-29
-38
-32
-23
-30
-24
-23
-27
-21
-17
-27
-24
-31
-29
-19
-22
-36
-25
-19
-16
-22
-27
-24
-27
-29
-28
-24
-28
-23
-24
-29
-27
-24
-30
-28
-22
-27
-29
-24
-19
-23
-25
-23
-26
-24
-33
-28
-32
-31
-33
-22
-18
-18
-14
-20
-20
-29
-29
-18
-19
-18
-14
-13
-17
-20
-24
-27
-26
-21
-19
-19
-24
-16
-10
-6
-1
-5
-13
-13
-12
-11
-19
-12
-21
-26
-26
-21
-16
-7
-16
-12
-10
-16
-25
-20
-18
-22
-21
-16
-18
-16
-23
-25
-30
-31
-32
-26
-28
-19
-24
-22
-29
-23
-29
-43
-35
-24
-15
-11
-20
-26
-24
-35
-52
-54
-58
-60
-73
-74
-66
-54
-18
-4
11
37
60
89
127
169
199
221
275
303
315
333
332
307
273
238
189
106
42
8
-2
-19
-20
-27
-23
-27
-30
-33
-24
-27
-28
-26
-21
-24
-29
-23
-19
-27
-27
-29
-22
-23
-23
-23
-19
-16
-19
-18
-6
-11
-17
-20
-26
-32
-17
-17
-18
-21
-19
-22
-16
-22
-14
-16
-9
-8
-13
-14
-10
-15
-9
-14
-7
-10
-3
3
-6
-3
5
0
-5
1
4
14
19
2
0
8
19
10
9
14
17
22
27
27
23
27
27
28
40
37
39
35
42
42
41
44
44
43
48
49
48
43
43
49
56
55
47
38
42
46
36
34
43
30
24
26
26
16
13
8
8
5
5
6
3
4
3
-7
-12
-13
-14
-12
-4
-9
-11
-15
-25
-24
-13
-12
-18
-16
-22
-21
-10
-12
-20
-17
-18
-20
-17
-22
-11
-13
-21
-16
-21
-18
-9
-22
-19
-17
-14
-15
-21
-18
-17
-23
-14
-15
-18
-16
-19
-21
-23
-15
-26
-20
-25
-16
-15
-11
-14
-25
-23
-17
-21
-21
-13
-13
-21
-20
-18
-15
-16
-10
-19
-20
-17
-21
-21
-12
-6
-13
-12
-13
-17
-14
-20
-26
-20
-3
-5
-5
-25
-26
-15
-13
-7
-5
-12
-12
-12
-14
-14
-15
-18
-26
-19
-21
-11
3
-13
-17
-13
-9
-15
-11
-16
-16
-12
-6
-12
-22
-21
-22
-20
-10
-13
-16
-17
-10
-15
-13
-7
-10
-18
-28
-21
-14
-15
-14
-6
-10
-10
-14
-12
-3
-11
-32
-24
-19
-8
-8
-8
-10
-10
-12
-8
-9
-13
-1
-3
-7
-1
-4
-9
-1
-6
-14
-7
-5
-5
-2
5
-11
-16
-6
-7
-15
-3
-4
-4
-10
-17
-22
-19
-16
-21
-22
-17
-5
-8
-35
-21
-14
-27
-26
-26
-24
-17
-11
-17
-22
-23
-24
-24
-26
-26
-19
-17
-22
-27
-30
-33
-41
-47
-62
-65
-59
-50
-27
-20
11
32
48
77
118
143
187
212
257
288
315
332
338
327
312
263
219
157
95
45
12
-5
-21
-22
-22
-27
-31
-26
-23
-33
-16
-7
-14
-15
-8
-14
-23
-17
-15
-13
-15
-11
-22
-25
-18
-21
-20
-12
-6
-12
-19
-15
-16
-15
-18
-21
-15
-8
-4
-10
-9
-12
-8
-6
-6
-10
-10
-7
-5
-9
-7
-10
-16
-6
1
1
6
2
-4
-6
7
5
11
11
9
2
3
14
14
7
16
15
19
19
19
23
31
37
36
40
36
32
32
35
43
40
39
48
39
48
49
46
56
51
49
47
49
50
45
45
46
37
34
38
34
33
28
31
25
17
24
13
6
4
12
3
13
4
11
-3
-10
-4
-9
-20
-16
-11
-12
-13
-13
-15
-10
-16
-17
-19
-21
-23
-7
-18
-25
-24
-24
-21
-19
-20
-20
-18
-20
-19
-15
-18
-24
-22
-18
-26
-24
-22
-21
-26
-35
-20
-16
-23
-15
-19
-20
-26
-20
-18
-25
-28
-20
-21
-15
-17
-23
-21
-13
-24
-16
-21
-23
-20
-22
-23
-24
-19
-16
-16
-22
-19
-20
-24
-26
-26
-25
-19
-19
-23
-24
-23
-27
-32
-19
-17
-26
-27
-28
-26
-11
-15
-11
-14
-21
-23
-26
-23
-23
-18
-15
-13
-18
-26
-22
-23
-29
-25
-21
-18
-28
-22
-21
-23
-23
-25
-23
-16
-26
-29
-30
-18
-22
-29
-28
-26
-27
-19
-16
-25
-15
-16
-24
-37
-39
-32
-28
-14
-23
-21
-28
-18
-18
-23
-21
-20
-34
-31
-26
-26
-23
-23
-33
-26
-23
-37
-36
-25
-13
-17
-24
-21
-29
-24
-25
-23
-25
-20
-24
-29
-29
-26
-32
-24
-23
-36
-35
-33
-15
-15
-27
-24
-28
-23
-25
-25
-28
-24
-22
-26
-25
-22
-25
-26
-24
-28
-32
-23
-29
-23
-24
-26
-39
-31
-28
-27
-15
-30
-30
-27
-33
-32
-31
-23
-23
-23
-17
-8
-16
-21
-15
-21
-48
-30
-11
-15
-19
-18
-21
-27
-20
-7
-16
-17
-22
-30
-21
-9
-23
-25
-25
-20
-20
-18
-28
-29
-13
-7
-16
-22
-23
-21
-23
-29
-24
-35
-24
-26
-30
-29
-31
-28
-37
-38
-39
-30
-33
-30
-30
-36
-37
-41
-35
-33
-32
-36
-30
-34
-32
-34
-47
-50
-53
-60
-79
-76
-73
-70
-59
-39
-21
-4
22
54
85
117
153
180
211
248
285
307
317
325
315
281
239
196
115
56
23
-4
-32
-37
-36
-38
-39
-42
-37
-32
-26
-35
-35
-28
-27
-29
-27
-26
-29
-31
-34
-40
-42
-41
-43
-35
-19
-26
-29
-29
-25
-30
-31
-36
-32
-31
-23
-34
-31
-20
-28
-28
-22
-30
-28
-12
-13
-19
-20
-18
-19
-25
-19
-23
-19
-19
-11
-8
-11
-15
-20
-11
-8
-12
-12
-4
0
1
5
2
-1
-1
1
4
8
6
13
10
14
16
9
7
18
13
10
28
37
34
34
32
23
28
35
38
31
34
39
43
33
37
36
28
29
31
27
29
29
30
25
20
13
12
13
5
4
-2
9
-1
-10
-14
-27
-20
-18
-23
-19
-19
-20
-25
-23
-23
-18
-21
-26
-22
-32
-24
-26
-30
-27
-31
-39
-34
-33
-26
-33
-27
-30
-24
-31
-31
-33
-22
-26
-38
-35
-26
-28
-21
-30
-37
-39
-40
-23
-25
-35
-37
-27
-20
-26
-32
-29
-32
-27
-34
-46
-25
-13
-25
-28
-20
-26
-27
-37
-31
-25
-30
-25
-25
-29
-32
-39
-28
-25
-36
-34
-17
-26
-32
-40
-27
-23
-31
-33
-29
-36
-33
-20
-31
-28
-28
-30
-27
-25
-27
-32
-36
-36
-32
-32
-29
-34
-33
-27
-26
-30
-21
-21
-25
-27
-31
-30
-29
-36
-34
-30
-28
-26
-26
-29
-34
-44
-23
-23
-34
-34
-22
-26
-34
-35
-25
-34
-33
-33
-38
-38
-35
-39
-40
-26
-27
-35
-34
-24
-28
-27
-25
-34
-30
-26
-32
-32
-28
-33
-33
-27
-23
-29
-33
-28
-31
-39
-34
-30
-35
-29
-30
-35
-24
-32
-33
-28
-27
-38
-39
-32
-29
-38
-36
-28
-29
-25
-25
-30
-35
-29
-32
-33
-37
-43
-35
-26
-24
-28
-40
-31
-28
-34
-28
-25
-25
-31
-33
-31
-43
-34
-35
-31
-30
-38
-33
-34
-31
-29
-32
-28
-27
-38
-33
-33
-35
-32
-36
-36
-32
-32
-35
-27
-24
-27
-37
-35
-37
-28
-38
-35
-35
-33
-23
-28
-34
-36
-26
-39
-30
-30
-25
-30
-35
-35
-41
-26
-31
-34
-27
-20
-19
-35
-40
-35
-38
-32
-21
-25
-24
-29
-26
-20
-15
-19
-21
-22
-26
-21
-18
-21
-23
-22
-20
-29
-32
-25
-21
-21
-24
-15
-27
-28
-20
-18
-18
-19
-19
-30
-27
-22
-28
-26
-35
-41
-35
-33
-28
-31
-26
-26
-44
-44
-40
-43
-41
-47
-47
-44
-34
-29
-29
-32
-31
-40
-43
-39
-46
-72
-55
-67
-57
-75
-82
-83
-68
-40
-18
-2
22
41
68
102
134
169
196
238
279
301
316
322
311
277
240
193
122
54
12
-11
-28
-39
-39
-41
-37
-36
-48
-45
-35
-28
-25
-33
-38
-40
-42
-45
-43
-31
-28
-28
-35
-43
-36
-31
-30
-37
-31
-31
-36
-36
-28
-23
-31
-39
-36
-38
-25
-23
-27
-21
-26
-39
-31
-24
-27
-23
-19
-28
-23
-21
-20
-19
-17
-16
-22
-19
-15
-8
-10
-16
-6
-14
-21
-11
-14
-12
7
8
-6
-3
8
6
7
7
4
3
9
19
13
12
30
25
27
25
22
24
26
31
34
33
33
32
28
36
32
34
24
23
30
36
33
38
38
35
25
25
18
13
9
16
14
0
10
10
2
-11
-13
-8
-15
-16
-18
-21
-16
-17
-24
-21
-26
-33
-34
-24
-27
-29
-31
-28
-24
-30
-31
-43
-43
-21
-29
-34
-35
-35
-35
-32
-34
-35
-37
-31
-27
-28
-34
-31
-34
-38
-33
-37
-34
-33
-34
-37
-35
-37
-37
-26
-30
-36
-38
-32
-33
-29
-30
-39
-29
-30
-38
-39
-35
-27
-30
-36
-45
-36
-31
-30
-34
-35
-36
-31
-31
-38
-34
-42
-37
-26
-32
-36
-33
-34
-29
-32
-36
-33
-34
-38
-33
-31
-33
-35
-30
-26
-24
-32
-36
-39
-39
-38
-33
-33
-37
-31
-26
-34
-31
-32
-41
-43
-34
-37
-37
-33
-31
-35
-34
-30
-27
-31
-37
-36
-40
-48
-33
-33
-39
-27
-34
-40
-38
-26
-29
-35
-35
-40
-36
-33
-35
-42
-36
-41
-35
-34
-30
-37
-37
-35
-37
-33
-31
-42
-40
-36
-36
-43
-45
-40
-27
-37
-32
-29
-31
-36
-43
-39
-37
-38
-41
-32
-39
-35
-22
-27
-40
-45
-41
-34
-33
-35
-35
-41
-37
-32
-41
-43
-37
-30
-29
-41
-41
-37
-41
-36
-42
-39
-39
-33
-32
-30
-26
-39
-43
-36
-38
-43
-36
-35
-37
-45
-30
-34
-43
-38
-33
-34
-31
-27
-46
-36
-38
-36
-34
-32
-31
-38
-41
-42
-38
-38
-33
-34
-41
-36
-37
-35
-34
-33
-35
-35
-31
-39
-43
-39
-37
-40
-33
-33
-37
-29
-29
-34
-32
-35
-41
-38
-32
-31
-30
-26
-26
-19
-27
-32
-29
-27
-30
-27
-28
-24
-18
-24
-28
-25
-18
-29
-34
-25
-25
-25
-32
-23
-23
-26
-27
-28
-17
-20
-33
-27
-24
-25
-39
-29
-35
-42
-37
-31
-40
-33
-35
-35
-43
-38
-35
-47
-48
-46
-38
-32
-35
-35
-36
-38
-45
-35
-42
-46
-49
-52
-57
-53
-64
-73
-83
-76
-68
-54
-29
6
19
42
62
102
132
153
190
228
273
300
313
320
308
285
242
197
127
61
22
-5
-26
-36
-43
-43
-44
-39
-26
-38
-37
-37
-39
-39
-35
-25
-33
-36
-39
-44
-36
-33
-33
-36
-25
-29
-36
-39
-34
-36
-34
-26
-30
-26
-34
-37
-30
-26
-24
-34
-24
-27
-30
-27
-22
-29
-30
-22
-20
-35
-35
-28
-31
-22
-13
-13
-22
-20
-13
-19
-17
-16
-24
-12
2
-3
-4
-5
-11
-4
5
5
5
-1
4
1
6
16
15
9
16
23
22
16
22
23
28
29
23
27
37
36
26
33
42
31
31
51
52
39
35
33
31
31
32
27
29
29
28
18
19
19
12
6
4
-1
-5
-4
-8
-16
-13
-4
-8
-17
-13
-21
-22
-23
-17
-20
-36
-18
-17
-28
-33
-38
-37
-28
-30
-22
-22
-23
-30
-30
-36
-38
-31
-28
-36
-28
-22
-26
-22
-26
-36
-41
-31
-21
-32
-27
-26
-34
-30
-29
-34
-27
-30
-32
-39
-35
-39
-41
-29
-29
-33
-20
-14
-33
-34
-26
-20
-23
-29
-32
-29
-27
-25
-34
-40
-25
-20
-26
-25
-24
-24
-18
-26
-17
-31
-33
-22
-28
-25
-27
-25
-23
-27
-25
-25
-13
-22
-28
-29
-17
-23
-26
-19
-17
-23
-27
-21
-18
-22
-25
-26
-26
-22
-21
-27
-24
-19
-20
-24
-19
-14
-24
-30
-34
-31
-25
-24
-29
-36
-44
-32
-20
-20
-30
-34
-28
-10
-13
-25
-17
-28
-23
-27
-27
-23
-20
-32
-31
-31
-21
-16
-17
-24
-28
-26
-24
-26
-20
-30
-32
-34
-19
-29
-37
-36
-20
-23
-27
-27
-26
-29
-15
-14
-19
-25
-14
-21
-23
-31
-31
-31
-36
-32
-20
-21
-17
-9
-23
-21
-20
-28
-25
-23
-33
-29
-19
-22
-21
-14
-19
-21
-27
-23
-29
-35
-20
-19
-20
-19
-18
-15
-15
-20
-23
-26
-26
-22
-17
-19
-28
-23
-15
-27
-29
-18
-29
-25
-13
-22
-15
-18
-14
-20
-22
-19
-21
-32
-28
-14
-13
-24
-18
-13
-27
-17
-28
-18
-12
-8
-15
-14
-18
-19
-14
-17
-15
-12
-19
-8
-18
-12
2
4
-1
-9
-16
-8
-10
-9
-26
-10
-9
-8
-10
-8
-6
-9
-15
-9
-30
-35
-17
12
10
-5
-13
-12
-14
-12
-23
-11
-10
-15
-15
-19
-12
-13
-12
-10
-15
-32
-29
-18
-14
-20
-25
-29
-11
-16
-21
-14
-16
-18
-18
-13
-10
-19
-18
-23
-28
-32
-49
-56
-53
-49
-52
-41
-21
3
27
45
61
69
109
151
176
194
252
291
300
322
299
291
260
231
171
112
56
17
-14
-17
-21
-22
-25
-15
-20
-25
-21
-26
-20
-9
-15
-19
-6
-10
-5
-5
-3
-17
-15
-3
-9
0
1
-5
-10
-5
-5
-7
-3
-2
-5
-2
-2
-2
-5
1
9
6
-4
8
4
-5
7
7
2
-2
1
-3
2
11
9
-4
9
18
19
9
11
14
19
20
20
20
28
27
21
21
24
24
32
30
20
28
46
34
46
45
49
54
45
56
53
40
52
61
50
67
74
69
63
65
73
72
73
64
72
76
75
65
71
71
67
75
55
54
45
49
48
35
35
51
41
43
39
29
23
22
25
10
14
8
-3
7
19
20
19
9
7
6
13
1
-2
0
11
-3
0
-1
-9
-11
-5
-8
-9
6
-4
-11
2
12
11
5
-2
-7
-10
-6
3
12
0
-4
-7
-16
10
2
-8
1
-5
-6
-1
-2
-4
-14
-4
-2
0
9
7
5
-2
0
-3
1
-2
-2
-11
-11
8
2
-1
8
-6
1
10
-3
-16
-10
4
1
2
0
-6
-2
-5
-1
-2
2
1
2
-3
-4
-9
2
1
-6
-4
7
5
4
-5
-7
0
-11
-8
2
16
8
-2
-2
-3
0
2
-3
-2
-1
-11
1
9
3
10
-1
-7
-12
-15
-5
3
5
-9
3
-4
-7
-8
-5
0
-5
2
4
-10
4
0
-3
6
-6
-5
-7
-8
-11
-18
-6
7
2
-7
-2
2
1
3
4
-6
-11
-13
-14
7
15
9
5
2
-3
-5
-15
-11
-6
0
-2
0
-14
-6
14
10
1
6
0
-7
-10
-4
-9
-9
3
9
-3
1
-12
-15
16
-4
-2
6
0
-4
7
10
0
2
4
1
1
6
-1
2
12
15
3
-8
-1
4
-11
2
13
14
18
18
10
0
5
7
-4
3
9
7
4
6
1
10
1
0
-3
7
18
12
4
0
-10
0
0
-2
-11
-8
-13
-1
-2
-3
-6
-7
-13
-11
-16
-1
3
-3
-8
-5
-2
-4
-12
-16
-18
-18
-20
-25
-39
-45
-48
-47
-36
-20
-2
21
40
54
73
101
132
162
194
223
252
288
293
310
309
287
264
211
162
81
35
14
-2
-9
-11
-20
-17
-11
-12
-23
-20
-6
-8
-9
-8
-17
-15
-7
-7
1
-6
-5
-15
-16
-5
-11
-13
-15
-3
-5
-9
-14
-4
1
-2
-3
-6
-9
-15
-9
-7
-6
3
-1
4
-3
4
8
2
3
-3
2
7
13
7
2
2
9
1
-4
20
22
8
11
7
-1
15
31
26
7
17
36
37
25
36
29
28
29
25
18
26
44
54
48
54
47
58
55
56
55
50
59
63
53
59
64
62
57
49
52
53
40
52
47
58
56
51
51
46
33
41
35
29
18
21
18
19
15
2
2
8
14
7
-4
8
-6
0
-5
-4
-2
5
-5
-18
-9
-21
-28
-9
-6
-12
-12
-7
-4
-4
-6
-3
-3
-12
-11
-14
-16
-11
-10
-16
-17
-15
-16
-13
-20
-28
-15
-5
-11
-5
-8
-14
-12
-15
-18
-20
-13
-10
-17
-16
-11
-8
-10
-9
-14
-20
-4
-11
-21
-10
-6
-16
-14
-7
-13
-18
-13
-9
-20
-18
-14
-18
-11
-8
-6
-9
-5
-12
-9
-9
-12
-11
-3
-11
-16
-23
-13
3
-6
-15
-11
-18
-14
-16
-15
-14
-4
-2
-16
-20
-17
-12
-15
-20
-12
-19
-17
-19
-23
-8
-1
-17
-15
-15
-19
-21
-10
-18
-19
-14
-11
-19
-21
-18
-8
-12
-13
-19
-18
-20
-16
-15
-15
-23
-21
-21
-14
-11
-16
-31
-28
-11
-20
-26
-29
-16
-7
-12
-21
-12
-11
-27
-23
-25
-17
-21
-13
-17
-14
-14
-12
-24
-23
-20
-18
-20
-27
-19
-19
-15
-19
-27
-24
-13
-14
-16
-16
-23
-22
-21
-29
-27
-19
-28
-36
-21
-16
-11
-7
1
3
-15
-18
-15
-19
-19
-12
-16
-18
-18
-19
-23
-13
-5
-13
-11
-9
-18
-12
-17
-19
-14
-9
-6
-23
-27
-21
-16
-19
-17
-14
-19
-10
-20
-30
-17
-24
-26
-22
-23
-32
-29
-28
-27
-33
-27
-22
-20
-35
-39
-35
-30
-33
-33
-33
-24
-24
-32
-46
-40
-53
-62
-63
-69
-69
-54
-34
-16
7
20
36
69
100
126
149
185
225
254
277
295
300
290
266
224
186
125
57
16
-10
-27
-34
-26
-27
-33
-35
-26
-28
-32
-22
-18
-25
-29
-30
-29
-34
-36
-38
-28
-20
-22
-32
-34
-24
-25
-29
-28
-30
-31
-34
-30
-29
-20
-20
-24
-23
-21
-29
-31
-30
-26
-21
-17
-19
-23
-16
-20
-16
-21
-20
-21
-12
-10
-20
-16
-17
-11
-11
-11
-8
-9
-12
-8
-2
-10
-8
-4
-1
3
9
-2
0
3
2
3
13
17
19
19
13
19
16
22
26
25
35
34
36
38
34
39
33
33
36
32
30
33
30
31
30
21
24
18
17
23
32
30
15
7
12
-1
0
-12
-13
-11
-12
-13
-14
-16
-12
-28
-28
-27
-27
-28
-25
-27
-33
-34
-32
-34
-35
-37
-36
-33
-41
-37
-24
-30
-45
-46
-45
-50
-44
-47
-45
-46
-43
-36
-38
-39
-33
-33
-43
-42
-34
-37
-41
-37
-36
-49
-41
-45
-44
-48
-28
-36
-38
-39
-39
-44
-49
-47
-43
-47
-30
-30
-37
-39
-36
-47
-50
-49
-51
-52
-37
-34
-41
-51
-48
-38
-46
-43
-49
-43
-40
-43
-42
-36
-39
-44
-36
-43
-46
-42
-35
-38
-44
-46
-46
-40
-47
-40
-36
-35
-39
-40
-42
-45
-57
-51
-39
-41
-46
-37
-37
-42
-48
-44
-49
-54
-39
-45
-54
-43
-38
-35
-47
-40
-48
-49
-45
-48
-45
-45
-37
-43
-52
-47
-46
-48
-45
-56
-48
-44
-47
-53
-39
-46
-55
-57
-46
-46
-50
-49
-52
-60
-60
-42
-45
-52
-48
-51
-53
-42
-47
-55
-59
-51
-55
-49
-47
-51
-56
-56
-53
-50
-48
-43
-49
-53
-56
-54
-50
-45
-48
-51
-55
-51
-65
-52
-46
-43
-54
-47
-46
-54
-59
-63
-54
-48
-54
-49
-52
-49
-52
-55
-50
-52
-52
-55
-64
-53
-51
-47
-55
-55
-49
-56
-59
-48
-41
-52
-49
-41
-43
-35
-38
-47
-48
-45
-46
-51
-46
-45
-50
-56
-34
-29
-42
-39
-47
-49
-51
-44
-54
-56
-59
-60
-45
-41
-40
-43
-40
-39
-42
-54
-52
-57
-65
-53
-48
-58
-61
-52
-55
-58
-59
-69
-60
-60
-64
-66
-60
-46
-54
-63
-72
-71
-56
-53
-59
-63
-58
-54
-68
-80
-79
-100
-94
-103
-107
-99
-69
-53
-29
-10
8
27
54
94
127
158
191
230
256
265
282
284
272
227
193
140
69
10
-20
-36
-45
-60
-64
-60
-65
-58
-54
-61
-57
-61
-52
-57
-59
-58
-55
-58
-53
-67
-58
-53
-63
-71
-56
-53
-56
-55
-61
-64
-50
-55
-58
-50
-52
-54
-55
-56
-47
-46
-48
-45
-47
-51
-47
-53
-50
-50
-48
-46
-43
-47
-47
-35
-42
-39
-35
-44
-35
-41
-42
-41
-41
-47
-29
-24
-23
-23
-24
-26
-23
-26
-24
-28
-24
-17
-17
-13
-6
-6
-8
-9
-8
7
1
2
3
6
14
0
1
8
10
7
11
11
6
15
13
4
-4
-2
-8
-4
2
11
4
2
-1
0
-11
-16
-18
-17
-25
-34
-41
-33
-36
-41
-39
-36
-43
-42
-45
-52
-54
-58
-57
-55
-54
-52
-67
-57
-52
-53
-58
-54
-58
-62
-65
-59
-63
-56
-57
-58
-72
-63
-62
-55
-61
-60
-65
-60
-59
-68
-77
-63
-51
-55
-58
-53
-58
-57
-61
-72
-62
-52
-55
-61
-58
-53
-57
-57
-67
-60
-57
-60
-65
-63
-58
-63
-64
-61
-57
-61
-55
-51
-53
-61
-61
-59
-60
-62
-54
-59
-66
-58
-66
-62
-60
-59
-65
-62
-56
-49
-49
-53
-64
-65
-59
-58
-53
-53
-60
-60
-62
-60
-68
-67
-59
-61
-60
-59
-59
-66
-62
-65
-73
-74
-50
-48
-53
-55
-50
-60
-57
-55
-61
-64
-59
-65
-61
-64
-60
-57
-58
-59
-57
-60
-55
-61
-55
-55
-62
-58
-58
-63
-60
-67
-59
-63
-64
-61
-63
-64
-62
-59
-61
-57
-42
-59
-66
-66
-69
-68
-54
-53
-66
-62
-53
-55
-58
-66
-68
-55
-62
-57
-53
-59
-64
-57
-57
-56
-55
-66
-63
-57
-52
-65
-64
-62
-58
-60
-59
-64
-66
-62
-63
-62
-62
-67
-64
-60
-60
-66
-61
-53
-62
-55
-53
-60
-65
-65
-61
-63
-55
-58
-70
-65
-60
-67
-67
-57
-64
-62
-43
-57
-64
-54
-49
-51
-53
-54
-59
-47
-46
-51
-49
-46
-47
-47
-46
-51
-54
-52
-50
-49
-48
-45
-52
-60
-51
-54
-51
-47
-62
-58
-58
-48
-43
-43
-45
-45
-58
-54
-57
-59
-55
-54
-58
-68
-68
-66
-69
-58
-60
-69
-65
-60
-67
-67
-66
-67
-73
-66
-65
-69
-73
-62
-60
-67
-72
-74
-75
-82
-86
-94
-113
-108
-104
-104
-77
-57
-36
-10
5
23
61
102
124
154
195
226
254
282
290
278
260
217
164
118
51
9
-22
-56
-66
-64
-67
-63
-64
-69
-73
-67
-72
-66
-60
-58
-59
-60
-69
-66
-59
-69
-62
-60
-62
-62
-72
-70
-63
-60
-63
-66
-72
-43
-59
-53
-56
-64
-62
-63
-63
-65
-67
-54
-53
-51
-54
-61
-56
-54
-52
-50
-52
-45
-59
-59
-58
-53
-54
-45
-44
-40
-43
-37
-40
-35
-23
-33
-41
-36
-48
-46
-25
-20
-30
-29
-26
-25
-25
-13
-19
-19
-12
2
-12
-10
-1
-2
-7
-2
-2
1
-6
0
5
-4
-2
2
5
8
13
4
5
7
-6
-6
5
-4
-10
-13
-9
-14
-30
-27
-20
-20
-28
-32
-31
-34
-39
-45
-40
-56
-50
-49
-54
-55
-61
-56
-51
-59
-64
-66
-63
-63
-60
-61
-67
-56
-55
-66
-64
-68
-64
-65
-65
-68
-63
-66
-68
-72
-66
-68
-64
-66
-57
-67
-68
-69
-69
-67
-65
-64
-62
-66
-73
-77
-70
-72
-66
-64
-63
-66
-71
-69
-67
-62
-68
-74
-73
-65
-60
-63
-68
-71
-75
-77
-71
-75
-75
-72
-69
-64
-56
-59
-59
-68
-65
-58
-63
-69
-72
-70
-66
-63
-57
-60
-64
-66
-70
-71
-56
-70
-70
-69
-76
-67
-61
-57
-63
-60
-58
-69
-71
-63
-63
-67
-69
-66
-66
-63
-69
-72
-60
-66
-67
-70
-64
-69
-72
-73
-67
-62
-70
-66
-73
-67
-61
-66
-70
-65
-65
-67
-62
-66
-67
-76
-62
-66
-68
-68
-64
-62
-61
-62
-71
-69
-73
-74
-71
-67
-67
-71
-71
-64
-73
-69
-73
-78
-74
-58
-52
-50
-71
-74
-79
-72
-58
-68
-69
-65
-64
-64
-62
-61
-59
-58
-62
-69
-73
-64
-66
-69
-71
-74
-64
-64
-64
-70
-73
-69
-68
-63
-67
-64
-66
-64
-67
-68
-68
-64
-72
-72
-73
-60
-56
-63
-68
-73
-71
-60
-63
-63
-60
-56
-63
-64
-66
-77
-75
-58
-56
-61
-62
-62
-61
-59
-68
-69
-72
-60
-60
-53
-47
-57
-64
-64
-57
-61
-56
-56
-51
-48
-50
-50
-61
-60
-51
-53
-57
-51
-52
-51
-51
-56
-49
-50
-65
-60
-50
-51
-53
-60
-56
-63
-70
-73
-64
-60
-54
-54
-59
-65
-66
-70
-71
-77
-66
-61
-60
-56
-54
-58
-56
-64
-68
-64
-67
-72
-63
-63
-70
-79
-87
-91
-87
-104
-114
-114
-111
-96
-65
-51
-30
-19
12
44
86
107
138
155
200
255
281
288
284
267
248
219
172
95
28
-13
-39
-59
-59
-64
-63
-60
-61
-63
-72
-80
-60
-60
-72
-60
-63
-59
-62
-64
-67
-67
-62
-62
-66
-58
-60
-70
-69
-68
-64
-61
-69
-67
-59
-63
-61
-55
-65
-68
-59
-63
-64
-44
-41
-65
-66
-57
-47
-51
-49
-53
-45
-49
-61
-50
-46
-48
-43
-47
-50
-45
-42
-53
-33
-31
-47
-51
-39
-36
-39
-36
-23
-20
-22
-27
-31
-24
-19
-25
-17
-8
-18
-31
-20
-3
-6
1
-5
-5
0
4
-7
7
-1
-15
-6
10
10
11
2
2
-4
-9
-2
-3
-14
-10
-10
-6
-19
-21
-25
-23
-32
-31
-34
-35
-32
-42
-42
-48
-55
-52
-50
-63
-55
-56
-58
-59
-65
-66
-64
-76
-62
-52
-60
-68
-68
-67
-66
-64
-68
-69
-69
-67
-81
-73
-64
-61
-64
-73
-76
-74
-73
-69
-70
-60
-59
-63
-60
-66
-74
-78
-68
-71
-69
-62
-55
-64
-65
-69
-72
-71
-66
-68
-64
-62
-60
-64
-64
-69
-71
-73
-74
-71
-73
-72
-58
-53
-57
-65
-82
-68
-61
-77
-68
-66
-57
-56
-61
-66
-74
-58
-61
-68
-65
-61
-62
-60
-62
-70
-66
-74
-69
-71
-72
-58
-49
-59
-56
-65
-65
-64
-60
-68
-62
-56
-67
-67
-72
-66
-67
-67
-60
-67
-66
-60
-58
-58
-60
-69
-68
-69
-64
-62
-63
-62
-67
-65
-64
-61
-52
-62
-69
-69
-64
-64
-67
-65
-60
-68
-61
-55
-71
-73
-63
-70
-75
-63
-67
-61
-60
-63
-63
-63
-61
-68
-71
-71
-64
-64
-67
-59
-60
-68
-55
-61
-61
-61
-58
-55
-65
-64
-65
-65
-53
-58
-80
-65
-64
-66
-55
-53
-57
-57
-63
-62
-65
-65
-66
-51
-52
-58
-61
-56
-56
-64
-66
-55
-65
-70
-63
-51
-48
-59
-58
-57
-49
-52
-60
-66
-66
-51
-48
-48
-52
-49
-49
-60
-71
-63
-50
-48
-40
-35
-31
-41
-45
-45
-51
-52
-53
-44
-42
-43
-35
-46
-45
-44
-47
-47
-49
-48
-48
-42
-42
-36
-38
-44
-32
-45
-50
-46
-47
-52
-52
-57
-50
-34
-65
-57
-56
-65
-57
-45
-43
-55
-57
-48
-48
-40
-52
-58
-61
-42
-42
-49
-55
-49
-61
-67
-65
-76
-86
-89
-86
-83
-68
-55
-50
-15
14
21
35
86
133
157
183
219
251
269
279
283
267
240
189
148
72
27
-15
-33
-51
-56
-57
-56
-52
-39
-51
-58
-51
-51
-42
-54
-39
-29
-34
-41
-41
-32
-49
-51
-52
-42
-26
-10
-19
-33
-49
-38
-44
-32
-29
-32
-31
-29
-33
-36
-32
-30
-35
-26
-23
-25
-23
-18
-21
-32
-23
-19
-24
-27
-23
-22
-13
-18
-20
-25
-18
-8
-12
-16
-27
-9
13
3
-2
4
3
5
2
8
13
7
6
15
6
11
13
17
25
31
20
26
25
28
24
33
39
27
32
36
42
39
47
46
30
27
24
40
49
36
38
34
28
39
31
22
14
23
40
26
16
7
-1
-2
-5
0
-1
-2
-8
-11
-13
-22
-6
-11
-12
-9
-21
-37
-32
-32
-14
-19
-19
-19
-11
-19
-29
-20
-26
-19
-18
-25
-25
-30
-32
-20
-14
-17
-27
-25
-21
-24
-25
-15
-23
-23
-23
-22
-21
-24
-25
-24
-25
-18
-17
-25
-22
-28
-26
-17
-35
-33
-12
0
-22
-27
-23
-30
-42
-24
-25
-30
-13
-8
-24
-12
-15
-24
-6
-12
-20
-28
-21
-25
-41
-29
-26
-27
-26
-27
-28
-9
-14
-17
-18
-24
-18
-26
-23
-17
-13
-23
-15
-17
-17
-25
-15
-9
-14
-19
-23
-18
-18
-26
-19
-5
-15
-15
-17
-22
-27
-22
-20
-32
-44
-22
-7
1
-5
-7
-15
-17
-13
-18
-18
-15
-12
-16
-20
-19
-31
-24
-16
-8
-9
-16
-19
-25
-18
-16
-16
-12
-17
-26
-19
-3
-19
-35
-25
-23
-19
-19
-15
-17
-30
-31
-32
-30
-15
4
1
-6
-14
-2
-15
-19
-10
-14
-16
-25
-38
-22
-17
-21
-12
-17
-25
-8
-7
-27
-28
-17
-17
-12
-18
-16
-25
-5
-3
1
-10
-16
-22
-12
-7
-12
-14
-6
-5
-3
-11
1
-3
-15
-12
2
-5
-10
-10
-14
-8
-12
-18
-12
-5
-12
-7
2
-4
-18
-2
-15
-20
-16
-21
-24
-35
-31
-21
-14
-19
-16
-19
-16
-14
-17
-5
-10
-13
-21
-18
-13
-16
-19
-30
-19
-37
-41
-34
-38
-35
-45
-53
-35
-17
-10
14
41
56
73
91
137
168
190
216
237
251
263
292
257
233
219
177
125
64
27
4
-22
-25
-25
-28
-17
-28
-24
-14
-16
-19
-13
-5
-11
-15
-17
-9
-9
-8
-15
-26
-17
-16
-18
-10
-2
-13
-14
-5
-23
-24
-5
-10
-2
1
-12
-6
-9
3
-5
-11
-4
-15
-6
-4
-6
-6
-9
-8
-8
-4
6
4
-6
-2
3
-1
-2
6
-7
5
3
2
12
30
25
17
15
5
-2
11
9
18
38
39
28
39
32
32
12
18
34
43
46
49
43
47
47
52
44
43
34
41
55
70
57
51
63
59
48
36
31
38
47
41
39
23
25
29
23
25
21
12
26
29
-1
6
9
6
-2
-3
-11
-9
-10
-5
-18
-15
-8
-2
-5
-9
-21
-10
-8
-11
-16
-16
-4
-9
-18
-17
-20
-15
-4
-7
-18
-10
-7
-23
-16
-14
-22
-24
-5
-3
-16
-13
-13
-24
-11
-10
-23
-29
-10
-8
-14
-8
-3
-13
-16
-21
-21
-10
-6
-16
-12
-32
-32
-29
-8
-2
-16
-6
-7
-16
-16
-13
-14
-25
-19
-2
-7
-4
-10
-12
-20
-19
-1
-3
-10
-19
-20
-19
-7
-4
-8
-20
-18
-8
-11
-19
-24
-19
-3
-14
-7
-7
-9
-23
-15
-9
-16
-12
-5
-12
-12
-15
-19
-11
-9
-17
-7
-22
-7
-6
-9
-5
-17
-12
-15
-17
-20
-10
-10
-14
-16
-17
-31
-24
-11
-11
-5
0
-10
-14
-19
-24
-31
-30
-1
-6
-22
-24
-13
-12
-16
-23
-29
-27
-21
-13
-12
-16
-10
-13
-8
-12
-25
-25
-20
-21
-23
-5
2
-11
-29
-17
-25
-23
-12
-15
-17
-13
-16
-17
-17
-15
-6
-14
-3
-15
-14
-6
-13
-19
-24
-8
-3
-14
-14
-30
-6
3
-8
-12
-8
-2
-13
-7
-1
-18
-12
-9
-7
-6
-10
-14
-13
-12
0
-12
-15
-5
-4
-12
-12
-11
-17
-21
-14
-17
-7
2
-8
-16
-25
-17
-17
-19
-29
-25
-21
-20
-20
-30
-24
-17
-16
-20
-15
-15
-21
-14
-15
-18
-35
-34
-44
-50
-50
-50
-43
-28
-15
3
17
38
58
89
128
152
168
199
230
261
262
281
281
272
232
197
159
102
48
17
-5
-16
-26
-29
-14
-8
-6
-11
-18
-12
-7
-9
-13
-7
-13
-19
-19
-15
-9
-15
-16
-17
-19
-4
3
-18
-10
-9
-10
-17
-11
-18
-16
-10
-8
-9
-9
-7
-9
-5
-9
-6
-5
-5
-4
-6
2
-2
-1
2
4
-11
2
4
4
7
5
6
8
8
1
6
4
8
10
14
18
28
19
17
19
10
23
20
25
28
21
17
33
36
44
39
41
43
43
43
50
47
49
48
44
38
43
43
41
47
41
46
57
64
49
27
39
40
32
27
34
34
22
26
33
18
18
14
6
-5
6
3
1
-10
-10
-4
-6
-16
-15
-15
-16
-17
-18
-21
-19
-13
-10
-18
-22
-20
-21
-26
-34
-13
-4
-26
-20
-30
-32
-16
-8
-22
-23
-10
-6
-24
-17
-15
-21
-21
-13
-22
-25
-19
-23
-28
-27
-16
-17
-19
-22
-32
-23
-19
-26
-22
-10
-23
-21
-27
-27
-21
-19
-18
-23
-30
-33
-22
-21
-21
-21
-21
-28
-19
-18
-16
-15
-23
-33
-21
-20
-20
-18
-21
-27
-27
-32
-13
-15
-19
-12
-16
-32
-20
-21
-16
-22
-24
-22
-17
-17
-18
-19
-20
-18
-15
-19
-18
-24
-25
-22
-21
-22
-29
-27
-31
-28
-22
-21
-21
-22
-31
-26
-12
-7
-15
-14
-27
-32
-25
-30
-27
-32
-21
-14
-19
-17
-19
-22
-23
-15
-20
-21
-24
-28
-34
-26
-26
-27
-18
-22
-27
-18
-19
-20
-16
-26
-32
-29
-19
-13
-29
-27
-20
-28
-19
-19
-19
-22
-24
-31
-24
-18
-22
-21
-14
-25
-28
-27
-15
-27
-29
-23
-22
-16
-16
-18
-28
-32
-28
-26
-28
-21
-24
-19
-17
-25
-26
-26
-18
-13
-19
-25
-21
-28
-17
-23
-30
-21
-24
-31
-29
-24
-33
-35
-32
-23
-23
-17
-24
-25
-24
-27
-27
-24
-28
-28
-26
-23
-25
-34
-38
-27
-20
-27
-29
-24
-21
-16
-24
-22
-28
-24
-22
-22
-16
-15
-18
-21
-18
-18
-18
-17
-20
-16
-9
-13
-14
-10
-22
-24
-20
-8
-20
-24
-13
-14
-21
-18
-18
-20
-13
-10
-17
-14
-14
-18
-18
-16
-15
-27
-22
-22
-27
-31
-32
-37
-33
-15
-20
-30
-22
-19
-27
-27
-34
-26
-27
-22
-30
-21
-29
-32
-34
-37
-31
-34
-28
-34
-47
-48
-52
-64
-74
-75
-55
-45
-20
-3
12
35
60
95
128
160
182
212
246
276
289
299
299
279
246
206
152
87
35
4
-12
-19
-32
-38
-25
-22
-29
-35
-37
-32
-26
-28
-24
-28
-26
-29
-23
-39
-38
-24
-19
-20
-27
-27
-21
-19
-28
-30
-24
-27
-28
-24
-21
-22
-15
-13
-21
-22
-14
-7
-16
-15
-21
-21
-13
-27
-25
-22
-7
-6
-9
-2
-6
-12
-9
-16
-15
-17
-3
4
-1
-5
-8
-3
11
11
1
-9
4
8
16
5
21
18
9
19
19
14
30
41
32
29
31
33
38
36
33
36
40
44
45
50
41
39
40
47
42
43
46
46
46
41
47
41
38
40
33
22
20
12
30
24
13
12
5
-4
-6
0
17
2
-3
-3
-6
-26
-10
-14
-23
-30
-11
-11
-14
-14
-22
-21
-25
-20
-19
-22
-13
-25
-26
-21
-25
-32
-34
-30
-26
-21
-16
-25
-30
-22
-22
-23
-30
-33
-30
-22
-19
-24
-28
-22
-24
-26
-31
-26
-19
-25
-27
-26
-24
-27
-23
-17
-20
-29
-28
-21
-21
-14
-33
-26
-24
-29
-28
-31
-20
-22
-21
-23
-32
-28
-44
-35
-17
-24
-28
-22
-20
-23
-22
-16
-29
-26
-30
-28
-24
-18
-14
-32
-26
-19
-28
-32
-25
-24
-27
-24
-22
-32
-40
-23
-19
-16
-18
-24
-22
-20
-28
-33
-24
-26
-31
-28
-28
-27
-28
-23
-35
-26
-17
-22
-28
-26
-28
-31
-33
-28
-29
-37
-27
-19
-30
-22
-26
-27
-28
-32
-30
-22
-23
-33
-37
-28
-28
-31
-36
-38
-38
-29
-14
-25
-27
-23
-21
-36
-34
-26
-21
-25
-24
-30
-36
-28
-26
-37
-38
-24
-33
-36
-37
-41
-25
-22
-27
-34
-28
-25
-27
-26
-30
-31
-34
-30
-32
-39
-29
-26
-26
-36
-29
-30
-31
-33
-34
-31
-29
-31
-29
-31
-23
-36
-36
-33
-31
-43
-34
-23
-30
-28
-27
-25
-25
-28
-32
-35
-34
-33
-33
-35
-39
-38
-34
-38
-37
-37
-26
-24
-31
-20
-19
-31
-37
-26
-25
-30
-24
-23
-33
-34
-37
-34
-27
-27
-32
-28
-23
-24
-23
-28
-34
-34
-22
-21
-31
-22
-16
-24
-25
-20
-12
-22
-14
-22
-28
-25
-17
-17
-20
-20
-20
-26
-34
-27
-25
-27
-14
-26
-31
-23
-26
-15
-17
-18
-17
-22
-19
-24
-28
-27
-26
-34
-40
-35
-29
-24
-24
-34
-33
-33
-31
-39
-37
-42
-35
-27
-25
-27
-34
-29
-34
-37
-30
-30
-39
-40
-41
-50
-64
-66
-70
-72
-60
-47
-25
4
22
52
78
107
132
169
201
231
270
292
300
300
297
287
242
210
139
65
23
-8
-17
-34
-38
-30
-48
-43
-32
-34
-32
-26
-24
-29
-33
-27
-29
-27
-31
-37
-41
-33
-29
-29
-30
-22
-28
-36
-33
-21
-30
-20
-21
-31
-23
-23
-37
-30
-21
-10
-26
-28
-13
-14
-23
-22
-34
-27
-20
-23
-18
-11
-10
-17
-10
-14
-15
-17
-11
-9
-11
-7
-10
-2
-3
5
-10
-9
-6
0
3
-1
5
12
17
14
11
16
21
13
15
27
24
24
34
34
31
38
43
37
35
37
36
38
35
43
40
43
46
37
34
42
40
39
41
38
36
29
33
17
21
24
22
9
9
4
3
0
0
-18
-17
1
1
-6
-4
-13
-20
-25
-23
-26
-21
-20
-26
-28
-30
-29
-32
-24
-27
-35
-25
-18
-29
-34
-33
-27
-30
-34
-30
-33
-25
-24
-21
-29
-27
-36
-31
-30
-34
-32
-29
-33
-31
-22
-28
-29
-28
-24
-29
-22
-17
-21
-32
-36
-23
-28
-25
-21
-33
-33
-23
-21
-22
-27
-19
-27
-27
-26
-23
-25
-22
-26
-23
-16
-21
-37
-30
-28
-16
-27
-22
-27
-26
-28
-37
-32
-19
-20
-22
-18
-15
-24
-24
-22
-24
-33
-26
-23
-19
-17
-22
-25
-27
-28
-19
-23
-21
-24
-25
-24
-23
-28
-19
-16
-29
-30
-16
-23
-33
-28
-26
-30
-28
-23
-34
-27
-21
-21
-28
-28
-15
-24
-26
-18
-26
-31
-27
-21
-23
-17
-20
-25
-25
-21
-19
-24
-27
-23
-26
-34
-27
-31
-27
-16
-23
-24
-24
-15
-18
-14
-18
-34
-29
-23
-28
-27
-21
-24
-27
-25
-19
-11
-11
-18
-30
-24
-19
-22
-25
-25
-17
-15
-15
-17
-26
-28
-17
-16
-24
-21
-29
-20
-21
-16
-20
-12
-14
-21
-24
-12
-15
-18
-24
-25
-25
-23
-22
-15
-21
-16
-22
-18
-15
-16
-24
-15
-15
-20
-17
-14
-15
-17
-20
-10
-12
-19
-16
-13
-12
-6
-13
-20
-16
-10
-17
-1
-4
-13
-8
-2
-10
-13
-7
-6
-8
-6
-7
-10
-11
-11
-5
-5
-12
-17
-15
-13
-8
-22
-7
7
1
-7
-1
-7
-14
-21
-13
-15
-20
-22
-17
-25
-24
-19
-20
-18
-21
-25
-19
-18
-22
-20
-12
-25
-21
-6
-21
-24
-15
-16
-25
-30
-38
-34
-39
-49
-57
-62
-71
-62
-29
-15
10
28
50
80
111
145
178
208
241
283
309
317
331
330
303
259
223
152
83
33
7
-12
-17
-19
-25
-27
-21
-22
-27
-27
-17
-23
-22
-27
-16
-23
-14
-7
-19
-29
-20
-23
-16
-18
-21
-21
-16
-15
-23
-22
-19
-20
-10
-15
-24
-15
-14
-12
-11
-13
-12
-16
-16
-6
-3
-8
-11
0
-6
-11
-12
-9
-8
-1
-3
-14
-3
-6
-2
-4
-1
9
10
9
11
7
14
5
13
13
2
10
25
19
18
17
29
32
32
35
34
27
33
37
35
46
50
45
42
46
49
54
53
51
49
56
61
51
56
48
57
49
37
42
45
49
49
46
35
26
31
28
23
20
19
20
11
6
10
6
-5
-1
4
-3
-18
-9
-5
-5
-5
-16
-11
-12
-28
-15
-18
-14
-13
-15
-7
-11
-19
-24
-20
-22
-30
-15
-8
-15
-20
-16
-21
-17
-15
-27
-28
-18
-15
-16
-13
-13
-21
-25
-22
-29
-29
-10
-16
-16
-18
-17
-28
-19
-18
-21
-23
-18
-1
-15
-15
-13
-24
-22
-22
-19
-19
2
7
-15
-24
-15
-13
-17
-20
-22
-18
-10
-6
-10
-26
-19
-19
-18
-15
-15
-22
-16
-14
-9
-11
-17
-13
-13
-13
-18
-22
-19
-19
-19
-16
-10
-14
-14
-14
-19
-22
-26
-14
-4
-13
-16
-19
-17
-16
-15
-14
-12
-14
-22
-22
-6
-11
-19
-23
-23
-11
-6
-17
-23
-13
-14
-13
-9
-26
-24
-15
-12
-17
-17
-14
-23
-20
-15
-6
-21
-21
-18
-14
-9
-30
-26
-24
-12
-5
-17
-16
-14
-11
-12
-17
-29
-24
-22
-20
-18
-12
-19
-11
-25
-16
-17
-19
-18
-16
-19
-14
-20
-17
-18
-22
-28
-34
-29
-24
-10
6
-14
-23
-26
-18
-25
-26
-25
-30
-22
-7
-12
-20
-28
-23
-22
-30
-23
-32
-39
-30
-37
-28
-31
-29
-28
-27
-24
-29
-23
-16
-24
-12
-5
-7
-20
-12
-9
-26
-28
-20
-14
-9
-1
-9
-17
-14
-17
-17
-9
-1
-10
-8
-11
-30
-16
-2
-11
-18
-11
-12
-15
-10
-10
-11
-21
-18
-14
-15
-28
-20
-18
-26
-26
-27
-24
-24
-22
-23
-20
-17
-25
