-56
-66
-77
-67
-54
-38
-22
-6
-20
-33
-54
-76
-84
-75
-60
-42
-32
-17
-24
-45
-49
-56
-66
-63
-52
-42
-33
-22
-33
-46
-52
-71
-83
-69
-48
-32
-19
-15
-17
-31
-49
-60
-70
-66
-52
-44
-34
-34
-37
-50
-57
-72
-68
-62
-45
-32
-14
-16
-24
-49
-60
-74
-71
-62
-46
-41
-17
-15
-28
-44
-50
-66
-73
-71
-52
-41
-25
-28
-38
-51
-56
-70
-63
-57
-38
-30
-12
-20
-41
-57
-61
-88
-83
-72
-52
-44
-24
-27
-36
-56
-60
-75
-69
-63
-51
-36
-20
-27
-33
-49
-53
-74
-76
-66
-48
-36
-18
-23
-37
-47
-51
-75
-76
-73
-50
-40
-24
-18
-34
-59
-64
-77
-73
-64
-55
-46
-28
-30
-42
-55
-65
-77
-72
-67
-49
-38
-24
-25
-36
-48
-64
-72
-75
-63
-50
-52
-36
-33
-45
-62
-65
-72
-64
-56
-44
-42
-38
-33
-50
-59
-63
-63
-62
-62
-57
-53
-41
-42
-51
-59
-73
-76
-69
-54
-54
-40
-29
-35
-51
-51
-65
-69
-70
-56
-43
-27
-24
-29
-54
-71
-88
-85
-78
-54
-44
-24
-24
-34
-55
-67
-80
-76
-69
-55
-55
-36
-39
-36
-51
-57
-75
-74
-77
-62
-49
-25
-37
-37
-45
-52
-75
-70
-63
-47
-33
-16
-13
-21
-47
-56
-80
-68
-61
-35
-31
-19
-17
-25
-34
-41
-63
-61
-54
-33
-27
-4
-5
-9
-22
-31
-49
-56
-48
-36
-25
-9
-15
-28
-41
-47
-66
-63
-51
-42
-37
-32
-32
-42
-58
-67
-85
-79
-67
-53
-40
-23
-22
-36
-54
-76
-88
-79
-72
-64
-55
-43
-47
-48
-62
-71
-82
-69
-50
-29
-8
13
18
13
8
8
18
41
66
74
63
46
18
-15
-54
-99
-149
-197
-224
-220
-220
-201
-197
-186
-173
-172
-166
-144
-125
-114
-91
-80
-82
-91
-90
-95
-95
-87
-74
-67
-39
-39
-37
-52
-63
-83
-80
-67
-48
-46
-21
-26
-29
-41
-50
-66
-63
-52
-34
-30
-15
-21
-31
-45
-46
-69
-63
-54
-43
-32
-13
-17
-20
-32
-40
-63
-56
-44
-30
-21
-4
-5
-13
-25
-30
-42
-37
-34
-25
-20
-2
-10
-21
-30
-39
-56
-50
-29
-9
-8
9
0
-8
-16
-21
-36
-31
-21
-5
1
19
13
1
-9
-12
-22
-13
1
8
17
34
25
12
1
-6
-17
-6
4
20
28
40
34
24
13
2
-10
-2
10
27
34
44
40
23
11
0
-7
-1
12
29
32
42
43
25
8
-2
-9
-11
-9
5
13
16
11
3
-9
-26
-44
-42
-32
-24
-16
-8
-7
-31
-37
-53
-61
-56
-41
-33
-18
-15
-30
-45
-54
-70
-73
-66
-57
-47
-26
-23
-34
-45
-55
-81
-75
-66
-47
-37
-20
-18
-35
-52
-56
-76
-74
-67
-50
-37
-25
-29
-41
-54
-60
-83
-80
-69
-53
-42
-33
-34
-38
-58
-58
-77
-69
-64
-55
-46
-23
-24
-33
-49
-53
-80
-76
-68
-51
-42
-26
-29
-36
-52
-61
-72
-67
-56
-41
-42
-28
-28
-38
-49
-54
-62
-56
-51
-42
-41
-28
-44
-59
-64
-69
-79
-72
-64
-44
-34
-31
-32
-41
-57
-68
-78
-70
-58
-46
-38
-30
-35
-40
-56
-71
-80
-75
-60
-46
-43
-25
-28
-39
-51
-67
-78
-70
-57
-54
-46
-29
-40
-48
-55
-63
-72
-68
-60
-55
-43
-31
-37
-51
-62
-74
-80
-73
-58
-47
-33
-26
-30
-50
-61
-77
-76
-76
-58
-49
-33
-34
-37
-48
-60
-74
-76
-73
-58
-46
-32
-27
-35
-53
-67
-86
-80
-75
-57
-45
-23
-28
-33
-47
-68
-91
-85
-72
-51
-43
-23
-26
-40
-56
-66
-80
-78
-69
-60
-52
-31
-37
-45
-53
-62
-89
-81
-67
-56
-50
-26
-30
-39
-60
-63
-82
-71
-61
-44
-44
-29
-33
-45
-58
-61
-78
-78
-65
-53
-52
-37
-32
-42
-56
-65
-78
-80
-66
-52
-39
-24
-25
-38
-46
-54
-72
-70
-60
-48
-42
-28
-30
-35
-50
-62
-76
-76
-51
-35
-16
-2
-4
-26
-36
-48
-64
-64
-43
-28
-24
-5
-4
-18
-26
-39
-54
-45
-29
-19
-16
-15
-24
-39
-50
-57
-65
-65
-46
-44
-33
-26
-36
-45
-57
-77
-81
-76
-63
-61
-39
-34
-34
-48
-60
-76
-69
-68
-60
-56
-47
-51
-52
-61
-62
-82
-78
-66
-38
-20
9
19
22
17
23
17
39
59
76
65
61
36
12
-33
-81
-142
-185
-211
-201
-198
-182
-181
-179
-178
-170
-175
-156
-140
-121
-106
-85
-85
-81
-85
-88
-103
-104
-90
-69
-55
-34
-30
-35
-53
-55
-73
-66
-57
-47
-38
-16
-12
-28
-49
-53
-70
-72
-57
-44
-33
-13
-20
-29
-39
-50
-56
-57
-50
-31
-26
-15
-17
-22
-36
-39
-46
-43
-32
-21
-15
-9
-11
-24
-31
-38
-47
-38
-30
-24
-14
-2
-9
-18
-28
-33
-42
-30
-12
-4
4
16
6
-11
-21
-28
-27
-32
-19
-9
7
16
19
9
-2
-18
-18
-11
1
9
24
26
18
9
8
-6
-7
0
15
24
39
42
36
23
15
0
0
11
28
35
40
45
39
21
11
-5
-2
2
22
33
52
52
39
20
10
-18
-22
-20
-8
-2
20
15
8
-6
-15
-38
-40
-34
-24
-17
-2
-6
-21
-36
-36
-56
-55
-50
-33
-30
-16
-22
-37
-56
-62
-75
-70
-64
-47
-39
-20
-26
-40
-54
-57
-73
-70
-71
-61
-51
-26
-29
-36
-49
-52
-68
-67
-65
-47
-40
-30
-21
-29
-47
-65
-82
-82
-66
-45
-34
-30
-30
-43
-57
-64
-79
-71
-56
-39
-29
-16
-18
-35
-44
-59
-76
-81
-62
-42
-32
-15
-32
-52
-64
-66
-75
-70
-56
-43
-36
-21
-27
-41
-53
-60
-72
-69
-61
-54
-41
-22
-35
-45
-51
-65
-72
-70
-53
-45
-38
-31
-35
-52
-58
-70
-75
-68
-51
-47
-36
-31
-40
-57
-60
-75
-70
-71
-63
-49
-32
-30
-32
-47
-58
-71
-66
-73
-55
-43
-34
-43
-46
-58
-65
-80
-76
-69
-49
-42
-26
-23
-34
-51
-55
-82
-80
-75
-61
-55
-32
-38
-41
-56
-60
-83
-85
-76
-64
-50
-31
-35
-45
-55
-64
-79
-73
-61
-48
-42
-31
-33
-43
-57
-66
-84
-81
-64
-49
-45
-30
-32
-44
-58
-64
-73
-71
-66
-57
-45
-32
-34
-48
-65
-72
-81
-75
-63
-46
-36
-28
-36
-44
-61
-69
-77
-79
-68
-52
-46
-29
-34
-47
-58
-66
-74
-70
-67
-46
-30
-30
-44
-49
-61
-75
-82
-71
-59
-38
-23
-16
-31
-46
-53
-66
-69
-63
-52
-45
-35
-25
-25
-43
-40
-42
-50
-50
-31
-28
-28
-19
-22
-31
-38
-51
-55
-51
-33
-28
-18
-15
-18
-30
-36
-57
-56
-52
-40
-34
-23
-28
-39
-61
-66
-77
-74
-64
-49
-42
-27
-37
-45
-56
-72
-85
-83
-80
-62
-56
-40
-37
-42
-58
-70
-88
-87
-67
-54
-48
-21
-15
-14
-22
-17
-23
4
28
54
65
86
88
58
19
-10
-41
-69
-99
-134
-179
-183
-185
-202
-212
-213
-213
-199
-170
-144
-127
-101
-101
-103
-112
-119
-127
-116
-91
-72
-66
-53
-51
-54
-64
-70
-76
-74
-52
-41
-34
-29
-31
-47
-55
-50
-68
-68
-55
-42
-32
-21
-24
-33
-37
-42
-58
-47
-42
-34
-40
-33
-36
-43
-50
-55
-61
-51
-40
-32
-18
-11
-17
-25
-27
-41
-48
-45
-35
-26
-3
-7
-20
-29
-32
-44
-37
-25
-10
-6
4
2
-8
-16
-28
-44
-42
-32
-16
-8
10
11
7
-5
-14
-27
-18
-6
5
13
37
29
18
4
-3
-21
-13
-10
5
23
46
39
36
21
16
-7
-1
10
23
23
42
41
30
21
9
-11
-5
12
26
33
47
45
32
5
4
-13
-3
1
12
15
28
20
10
-8
-19
-40
-37
-37
-20
-10
9
-2
-8
-24
-42
-61
-60
-52
-41
-27
-20
-23
-35
-46
-55
-79
-74
-62
-57
-41
-27
-33
-43
-52
-60
-71
-72
-64
-53
-51
-35
-33
-47
-63
-68
-77
-71
-64
-44
-33
-25
-30
-40
-64
-72
-79
-75
-62
-51
-42
-29
-24
-44
-59
-72
-77
-67
-54
-43
-37
-29
-31
-44
-63
-78
-78
-75
-61
-50
-37
-40
-40
-49
-57
-69
-70
-68
-51
-42
-26
-22
-38
-55
-65
-81
-74
-68
-51
-43
-24
-22
-28
-34
-41
-71
-72
-79
-72
-59
-35
-41
-46
-51
-55
-73
-69
-73
-55
-53
-41
-34
-38
-54
-59
-79
-83
-73
-59
-50
-30
-37
-41
-59
-61
-81
-78
-69
-52
-50
-32
-33
-37
-54
-61
-87
-81
-63
-54
-50
-39
-40
-44
-51
-60
-77
-75
-66
-53
-46
-39
-38
-47
-63
-79
-95
-86
-67
-54
-47
-34
-34
-42
-54
-67
-77
-73
-72
-61
-46
-33
-35
-58
-68
-79
-83
-76
-64
-53
-44
-32
-27
-39
-59
-72
-84
-77
-65
-56
-43
-35
-44
-49
-57
-70
-82
-75
-64
-61
-49
-39
-41
-50
-64
-77
-88
-81
-62
-51
-36
-33
-37
-51
-58
-74
-73
-70
-66
-65
-51
-44
-44
-55
-60
-77
-78
-69
-55
-46
-27
-30
-37
-53
-62
-85
-84
-78
-67
-56
-35
-38
-43
-58
-61
-81
-81
-68
-49
-47
-29
-32
-42
-53
-60
-76
-70
-65
-48
-37
-23
-25
-39
-51
-61
-70
-59
-47
-33
-30
-10
-10
-19
-34
-37
-62
-59
-51
-36
-22
-5
-11
-21
-42
-49
-65
-61
-50
-39
-38
-25
-35
-41
-64
-68
-85
-84
-69
-59
-49
-35
-35
-51
-63
-72
-87
-93
-72
-58
-48
-36
-44
-49
-60
-66
-77
-79
-61
-50
-40
-31
-28
-41
-37
-30
-29
-14
19
50
74
100
93
70
36
-6
-38
-55
-84
-109
-148
-187
-203
-219
-221
-220
-211
-195
-167
-147
-124
-112
-117
-124
-129
-137
-127
-112
-99
-82
-56
-42
-43
-52
-67
-77
-76
-70
-59
-49
-30
-27
-43
-53
-58
-77
-70
-59
-40
-33
-15
-13
-31
-52
-56
-81
-69
-61
-46
-39
-19
-15
-23
-29
-36
-54
-49
-52
-35
-31
-21
-17
-19
-33
-45
-60
-55
-46
-26
-9
9
2
-12
-36
-49
-64
-65
-43
-20
-10
6
7
4
-19
-34
-41
-33
-22
-7
-9
13
14
2
-13
-18
-27
-23
-15
0
7
20
18
13
0
-10
-18
-12
6
25
34
46
43
24
4
-5
-9
-5
8
25
34
38
32
28
14
7
-2
1
8
18
29
43
33
19
8
-3
-12
-6
2
9
19
34
26
7
-13
-21
-34
-29
-7
1
-5
0
-7
-24
-44
-52
-50
-47
-39
-37
-20
-14
-21
-38
-51
-69
-77
-74
-51
-39
-24
-19
-24
-45
-59
-73
-67
-65
-60
-53
-32
-31
-42
-53
-61
-80
-70
-65
-49
-35
-27
-34
-52
-56
-60
-81
-72
-69
-58
-49
-25
-26
-29
-47
-55
-82
-84
-72
-57
-48
-24
-22
-32
-46
-54
-65
-68
-62
-46
-41
-25
-24
-33
-48
-53
-74
-77
-72
-52
-43
-26
-31
-45
-64
-62
-76
-71
-61
-51
-45
-30
-32
-40
-54
-67
-78
-71
-62
-56
-47
-32
-33
-42
-50
-65
-83
-78
-59
-46
-42
-33
-34
-44
-54
-61
-76
-72
-59
-46
-43
-29
-31
-41
-46
-61
-78
-76
-60
-48
-50
-39
-43
-56
-66
-77
-81
-77
-59
-53
-38
-27
-36
-54
-61
-71
-80
-74
-61
-56
-39
-27
-37
-52
-59
-73
-73
-69
-52
-49
-41
-33
-42
-59
-63
-80
-81
-68
-51
-39
-21
-28
-42
-64
-75
-87
-80
-74
-56
-52
-32
-36
-40
-57
-64
-86
-83
-69
-53
-42
-26
-27
-31
-46
-48
-71
-73
-76
-72
-56
-31
-34
-44
-63
-63
-87
-83
-71
-55
-54
-30
-30
-43
-52
-67
-85
-80
-70
-55
-48
-28
-24
-36
-54
-61
-81
-81
-78
-64
-54
-31
-30
-44
-57
-67
-78
-71
-60
-43
-39
-35
-46
-55
-62
-67
-83
-85
-80
-58
-42
-26
-34
-47
-60
-74
-77
-70
-62
-54
-40
-34
-26
-34
-46
-57
-65
-53
-47
-47
-46
-36
-40
-45
-57
-60
-65
-58
-43
-23
-17
-13
-20
-28
-37
-41
-56
-51
-37
-32
-18
-16
-26
-39
-51
-68
-67
-59
-35
-25
-19
-15
-22
-40
-51
-72
-77
-75
-67
-59
-40
-32
-41
-55
-64
-84
-80
-74
-60
-48
-40
-37
-44
-65
-74
-87
-78
-70
-58
-53
-31
-40
-47
-55
-46
-42
-25
-17
11
37
67
84
95
79
53
17
-10
-25
-32
-66
-90
-143
-192
-220
-228
-238
-223
-208
-181
-152
-119
-104
-109
-121
-123
-143
-137
-111
-87
-69
-47
-47
-53
-77
-82
-95
-80
-68
-53
-40
-22
-21
-32
-53
-58
-66
-62
-48
-43
-25
-19
-19
-21
-36
-53
-63
-60
-45
-27
-14
1
-5
-29
-41
-46
-52
-43
-36
-25
-11
-1
-8
-19
-34
-40
-51
-46
-36
-18
-6
11
7
-11
-27
-36
-39
-32
-12
-1
9
20
19
11
-5
-23
-28
-20
-1
14
24
22
22
8
-2
-12
-14
-9
5
17
35
38
42
32
22
0
2
7
15
18
37
43
39
27
18
2
1
8
25
28
41
45
41
20
14
2
0
-1
15
22
34
28
28
15
6
-14
-13
-13
-9
-21
0
-8
-10
-27
-32
-49
-45
-40
-22
-18
0
-5
-21
-39
-50
-72
-68
-59
-47
-42
-29
-29
-36
-49
-64
-84
-70
-57
-48
-37
-26
-31
-42
-48
-61
-77
-72
-59
-46
-33
-17
-22
-32
-39
-50
-69
-70
-59
-47
-38
-31
-39
-44
-57
-67
-73
-66
-52
-42
-39
-29
-33
-39
-48
-59
-66
-57
-43
-39
-40
-32
-33
-55
-57
-66
-73
-68
-52
-45
-44
-31
-28
-42
-53
-65
-72
-67
-50
-33
-19
-15
-30
-52
-66
-75
-77
-73
-53
-41
-30
-37
-46
-58
-57
-70
-72
-68
-48
-36
-16
-19
-29
-45
-54
-73
-68
-60
-52
-44
-22
-26
-33
-45
-58
-65
-63
-59
-53
-55
-29
-32
-37
-55
-63
-78
-69
-67
-56
-43
-18
-30
-40
-54
-69
-89
-80
-68
-46
-45
-28
-24
-38
-54
-55
-72
-78
-72
-57
-42
-21
-26
-36
-53
-59
-80
-76
-63
-53
-46
-24
-21
-39
-52
-60
-72
-72
-55
-44
-41
-27
-31
-40
-58
-62
-75
-72
-70
-52
-39
-20
-28
-37
-49
-68
-78
-71
-61
-58
-46
-32
-36
-45
-57
-64
-72
-66
-55
-48
-39
-28
-38
-53
-66
-75
-79
-75
-60
-45
-32
-25
-28
-40
-51
-72
-72
-68
-53
-47
-31
-18
-27
-50
-70
-82
-78
-72
-50
-41
-32
-35
-38
-53
-58
-70
-70
-72
-62
-42
-28
-33
-49
-57
-59
-75
-77
-67
-50
-44
-22
-26
-44
-55
-65
-80
-70
-65
-49
-40
-26
-30
-33
-48
-52
-74
-66
-56
-43
-35
-12
-14
-23
-41
-46
-68
-53
-37
-23
-20
-5
-11
-24
-37
-39
-66
-58
-46
-26
-16
-1
-17
-26
-31
-38
-59
-61
-49
-31
-37
-17
-21
-30
-49
-58
-72
-74
-63
-45
-38
-35
-38
-52
-74
-77
-85
-75
-66
-57
-39
-26
-34
-51
-55
-68
-90
-83
-66
-45
-42
-26
-20
-20
-17
-16
-15
8
36
59
71
88
90
58
27
-7
-31
-55
-83
-116
-166
-199
-208
-223
-228
-223
-214
-195
-163
-134
-106
-84
-85
-103
-129
-131
-129
-115
-90
-70
-54
-42
-42
-52
-60
-70
-74
-67
-50
-42
-27
-29
-33
-46
-54
-64
-62
-54
-41
-36
-16
-8
-24
-41
-45
-62
-56
-49
-35
-26
-13
-9
-17
-35
-32
-54
-48
-46
-37
-22
-2
-6
-18
-29
-34
-60
-47
-37
-22
-20
-3
-3
-6
-18
-27
-40
-41
-38
-13
-5
15
2
-19
-17
-14
-26
-31
-23
-13
-4
20
13
3
-9
-8
-25
-17
-4
10
19
39
35
20
7
0
-16
-11
-8
7
22
43
38
26
13
16
2
2
14
25
34
44
53
39
24
8
1
7
17
34
45
57
49
31
18
9
-2
-3
2
20
31
41
36
20
-4
-27
-34
-32
-19
-16
-6
3
-6
-15
-31
-37
-40
-32
-23
-15
-20
-18
-25
-46
-51
-65
-68
-61
-47
-41
-29
-22
-26
-41
-44
-60
-64
-57
-42
-33
-18
-15
-20
-41
-54
-77
-72
-66
-50
-40
-21
-21
-37
-43
-53
-68
-62
-55
-40
-31
-21
-24
-29
-44
-56
-77
-75
-65
-45
-33
-23
-24
-31
-37
-51
-76
-72
-59
-47
-34
-20
-17
-28
-46
-51
-69
-73
-60
-39
-30
-14
-11
-18
-29
-42
-63
-65
-60
-43
-35
-13
-16
-36
-50
-61
-73
-70
-62
-46
-34
-24
-23
-36
-48
-54
-66
-65
-52
-32
-19
-7
-16
-34
-54
-66
-81
-84
-66
-52
-37
-23
-20
-33
-42
-56
-69
-66
-47
-36
-35
-26
-27
-36
-49
-62
-71
-66
-55
-40
-33
-19
-15
-26
-41
-56
-71
-74
-65
-53
-39
-24
-30
-34
-49
-66
-76
-74
-50
-40
-31
-22
-24
-43
-49
-68
-70
-68
-48
-40
-22
-14
-19
-37
-47
-63
-65
-70
-56
-40
-23
-20
-29
-41
-47
-72
-74
-71
-51
-40
-17
-23
-30
-41
-50
-64
-66
-64
-53
-41
-18
-23
-30
-36
-39
-64
-69
-62
-49
-46
-28
-25
-34
-46
-55
-70
-70
-60
-47
-41
-17
-20
-27
-42
-55
-73
-67
-54
-42
-35
-18
-21
-30
-43
-53
-71
-63
-55
-42
-32
-17
-19
-28
-45
-50
-69
-69
-49
-38
-33
-15
-21
-30
-44
-56
-70
-65
-62
-44
-29
-17
-23
-32
-43
-54
-62
-57
-49
-42
-31
-23
-18
-24
-40
-45
-59
-55
-41
-30
-20
-6
-7
-19
-35
-46
-61
-56
-35
-18
-8
2
-6
-16
-23
-33
-40
-36
-17
-8
1
5
3
-18
-30
-41
-46
-52
-34
-18
-3
6
3
-7
-18
-43
-48
-62
-54
-43
-24
-21
-34
-49
-51
-71
-69
-67
-49
-45
-21
-24
-33
-48
-56
-74
-69
-58
-46
-40
-25
-23
-27
-41
-47
-57
-41
-24
1
20
37
53
71
79
88
73
63
44
22
14
2
-31
-77
-141
-201
-229
-233
-231
-207
-180
-134
-119
-127
-134
-131
-141
-133
-118
-94
-80
-53
-51
-52
-61
-63
-78
-69
-59
-40
-33
-17
-17
-23
-39
-45
-61
-54
-41
-32
-16
5
0
-11
-36
-51
-60
-53
-43
-22
-13
-5
-3
-3
-14
-25
-49
-59
-44
-26
-16
-1
-8
-18
-28
-38
-43
-40
-31
-15
-3
1
9
-11
-18
-24
-24
-26
-14
-4
6
8
2
-7
-19
-27
-26
-23
-6
6
19
23
17
5
-4
-7
-9
-8
-5
6
21
21
22
16
12
-2
-6
-1
17
31
42
45
43
28
21
8
2
17
26
24
40
49
49
38
28
10
8
10
32
43
67
57
46
24
23
7
0
7
30
40
58
55
45
30
12
-18
-15
-9
-1
3
15
18
9
-6
-16
-41
-42
-34
-18
-4
10
1
-11
-25
-43
-68
-64
-56
-37
-25
-8
-22
-29
-39
-51
-68
-67
-53
-40
-35
-12
-17
-29
-38
-44
-61
-58
-52
-48
-51
-23
-23
-35
-54
-56
-69
-65
-56
-33
-21
-8
-19
-27
-42
-59
-65
-65
-50
-40
-38
-25
-20
-37
-54
-54
-63
-64
-51
-34
-29
-21
-20
-34
-47
-56
-66
-62
-44
-31
-20
-14
-22
-39
-46
-58
-63
-60
-53
-40
-29
-16
-20
-31
-36
-48
-53
-64
-59
-50
-28
-23
-32
-44
-45
-64
-66
-61
-48
-44
-29
-21
-27
-30
-42
-65
-65
-55
-41
-34
-15
-19
-27
-36
-47
-67
-68
-58
-47
-40
-25
-24
-30
-39
-50
-72
-70
-61
-45
-46
-35
-23
-31
-50
-66
-76
-67
-50
-33
-26
-6
-16
-24
-49
-65
-73
-72
-62
-46
-39
-23
-27
-38
-48
-52
-68
-62
-55
-42
-31
-16
-23
-40
-48
-60
-82
-73
-61
-44
-33
-19
-26
-35
-42
-49
-70
-76
-53
-45
-39
-28
-28
-36
-62
-59
-72
-72
-56
-44
-35
-20
-27
-43
-59
-66
-80
-72
-55
-43
-32
-20
-24
-31
-43
-57
-76
-74
-59
-58
-48
-37
-43
-52
-49
-59
-69
-67
-54
-42
-28
-15
-31
-50
-61
-72
-83
-68
-50
-37
-28
-27
-25
-40
-46
-52
-59
-56
-43
-40
-24
-25
-23
-32
-41
-55
-56
-44
-31
-30
-9
-2
-4
-22
-33
-57
-52
-45
-42
-31
-9
-11
-21
-36
-42
-56
-54
-45
-27
-32
-16
-29
-47
-71
-67
-79
-73
-70
-51
-44
-28
-30
-42
-58
-62
-86
-80
-77
-58
-48
-29
-33
-46
-64
-61
-72
-68
-61
-39
-21
-1
1
2
-12
-5
2
27
55
83
88
90
62
17
-21
-60
-110
-148
-186
-216
-209
-196
-192
-198
-199
-196
-195
-177
-156
-128
-108
-87
-82
-95
-106
-105
-103
-92
-76
-60
-53
-36
-35
-46
-55
-65
-76
-66
-50
-39
-29
-20
-28
-44
-53
-64
-69
-59
-46
-34
-26
-19
-24
-35
-47
-55
-62
-60
-46
-34
-22
-18
-26
-33
-43
-55
-52
-47
-31
-17
-4
-9
-14
-32
-34
-52
-50
-42
-21
-9
5
2
-16
-27
-31
-48
-40
-33
-21
-11
0
5
-3
-18
-24
-44
-41
-25
-7
2
23
18
9
-6
-10
-26
-17
-8
6
15
33
28
23
6
3
-13
-8
9
25
31
46
38
30
18
19
4
7
11
24
29
45
36
33
21
18
-2
-5
11
22
25
42
42
34
17
10
-17
-20
-14
4
9
27
19
5
-5
-20
-41
-39
-25
-15
-4
0
-11
-19
-40
-56
-72
-69
-54
-36
-31
-18
-17
-31
-49
-64
-78
-82
-78
-61
-47
-30
-34
-53
-63
-70
-76
-75
-64
-53
-43
-27
-28
-41
-60
-76
-79
-78
-64
-53
-40
-35
-43
-51
-58
-68
-72
-69
-61
-51
-37
-33
-39
-51
-63
-71
-67
-66
-61
-57
-40
-38
-45
-46
-63
-78
-79
-77
-65
-52
-29
-27
-31
-45
-60
-88
-80
-73
-57
-56
-39
-33
-37
-49
-62
-83
-74
-76
-65
-53
-33
-31
-40
-55
-63
-80
-80
-72
-62
-56
-39
-38
-40
-55
-62
-82
-77
-66
-50
-47
-30
-38
-47
-59
-71
-84
-82
-71
-57
-58
-37
-33
-45
-62
-65
-85
-81
-72
-56
-40
-27
-29
-41
-57
-71
-83
-85
-73
-65
-56
-32
-37
-45
-60
-71
-82
-75
-62
-52
-41
-28
-32
-42
-58
-66
-82
-78
-65
-51
-47
-32
-30
-42
-59
-73
-75
-70
-56
-46
-37
-29
-40
-51
-66
-77
-82
-74
-59
-50
-39
-24
-23
-41
-56
-64
-74
-67
-48
-45
-35
-26
-34
-43
-46
-57
-62
-49
-36
-28
-15
-9
-9
-21
-23
-35
-46
-39
-30
-33
-22
-18
-22
-41
-46
-58
-55
-48
-38
-30
-19
-28
-38
-52
-63
-88
-83
-76
-59
-49
-30
-35
-45
-59
-66
-84
-81
-72
-51
-46
-25
-34
-49
-66
-76
-91
-83
-72
-46
-50
-28
-32
-32
-37
-34
-38
-27
-5
29
60
94
99
88
52
9
-29
-38
-57
-82
-125
-162
-193
-199
-223
-234
-242
-220
-185
-160
-135
-105
-97
-106
-115
-120
-140
-121
-109
-92
-77
-54
-42
-50
-62
-71
-80
-76
-59
-49
-38
-25
-30
-43
-57
-59
-69
-63
-52
-34
-31
-17
-16
-29
-43
-58
-64
-64
-52
-31
-17
-15
-19
-30
-50
-62
-63
-53
-39
-25
-16
-8
-16
-30
-45
-55
-54
-45
-29
-15
-9
-7
-15
-29
-32
-46
-52
-35
-29
-20
3
9
7
-2
-10
-25
-22
-32
-18
-9
2
7
6
-3
-9
-20
-12
-4
11
24
37
28
25
11
-1
-19
-9
-1
10
17
37
39
35
24
18
-1
0
12
33
36
50
49
36
21
21
3
11
21
37
48
64
53
33
13
7
-16
-10
-3
10
20
39
37
20
4
-13
-35
-35
-26
-11
-6
-2
-9
-22
-31
-36
-54
-56
-46
-36
-23
-20
-25
-36
-43
-61
-80
-75
-62
-42
-32
-19
-25
-36
-56
-61
-76
-72
-61
-49
-42
-28
-25
-38
-50
-58
-74
-74
-59
-43
-33
-21
-30
-42
-54
-66
-80
-82
-61
-56
-50
-28
-27
-38
-47
-59
-81
-69
-57
-47
-30
-23
-26
-47
-64
-74
-79
-71
-50
-40
-26
-19
-26
-45
-55
-71
-75
-69
-49
-36
-19
-24
-34
-48
-67
-78
-73
-67
-41
-29
-15
-19
-39
-62
-68
-83
-75
-70
-60
-51
-27
-30
-35
-44
-56
-72
-71
-67
-52
-50
-36
-38
-35
-54
-58
-79
-72
-61
-50
-46
-29
-29
-41
-57
-54
-67
-66
-58
-46
-49
-34
-39
-53
-62
-60
-73
-70
-67
-52
-48
-35
-31
-41
-53
-60
-83
-76
-65
-47
-40
-31
-31
-47
-64
-69
-78
-79
-69
-56
-41
-29
-29
-42
-56
-68
-79
-75
-59
-51
-49
-35
-36
-45
-60
-64
-75
-68
-58
-60
-42
-32
-28
-44
-62
-72
-82
-83
-64
-47
-40
-24
-30
-49
-60
-70
-78
-67
-53
-34
-26
-28
-38
-49
-59
-65
-73
-67
-55
-44
-29
-18
-24
-35
-44
-61
-70
-62
-47
-32
-13
-8
-14
-26
-35
-54
-56
-41
-23
-15
-3
-9
-21
-38
-50
-56
-46
-36
-26
-24
-14
-35
-47
-59
-64
-81
-79
-75
-62
-49
-31
-43
-50
-58
-61
-81
-74
-74
-60
-52
-31
-33
-45
-61
-65
-84
-80
-70
-53
-50
-37
-24
-22
-29
-21
-34
-22
-4
26
46
81
92
87
57
23
-13
-30
-63
-80
-116
-159
-194
-202
-216
-215
-223
-213
-180
-155
-133
-107
-93
-98
-116
-130
-142
-123
-105
-88
-69
-56
-56
-62
-68
-71
-76
-72
-58
-40
-36
-30
-31
-36
-49
-58
-66
-65
-52
-46
-33
-19
-28
-40
-47
-55
-72
-67
-52
-41
-29
-18
-15
-34
-40
-44
-53
-53
-40
-35
-31
-11
-13
-25
-35
-43
-39
-33
-25
-30
-8
-11
-22
-37
-36
-51
-48
-37
-21
-13
5
4
-1
-12
-17
-26
-28
-18
-6
-9
2
4
3
-13
-15
-26
-27
-19
-4
1
22
28
25
6
-2
-16
-2
5
22
29
43
26
24
19
15
-4
1
14
29
35
55
58
46
34
25
3
8
16
23
35
51
38
33
19
12
-6
-1
2
4
13
37
25
11
-5
-10
-35
-33
-21
-16
-9
8
3
-12
-25
-37
-57
-58
-42
-28
-25
-20
-15
-31
-52
-61
-68
-67
-57
-41
-32
-19
-18
-31
-44
-51
-69
-75
-65
-58
-48
-31
-35
-49
-62
-67
-77
-67
-50
-31
-28
-16
-24
-45
-67
-70
-78
-75
-60
-49
-38
-34
-35
-45
-63
-70
-68
-72
-61
-41
-31
-27
-29
-41
-54
-70
-70
-64
-50
-40
-30
-26
-31
-42
-51
-68
-74
-69
-54
-42
-29
-36
-38
-48
-57
-70
-63
-59
-51
-48
-36
-42
-42
-49
-60
-78
-79
-64
-52
-42
-26
-38
-44
-51
-55
-80
-76
-74
-57
-47
-30
-30
-37
-56
-57
-71
-75
-71
-58
-49
-29
-31
-39
-59
-58
-74
-75
-64
-51
-45
-31
-35
-44
-53
-54
-74
-82
-75
-63
-51
-29
-32
-48
-62
-64
-81
-78
-71
-57
-46
-32
-35
-46
-55
-63
-74
-71
-68
-56
-41
-26
-30
-39
-50
-60
-72
-75
-63
-54
-46
-41
-39
-46
-61
-75
-83
-80
-63
-52
-41
-24
-24
-40
-59
-78
-79
-76
-66
-56
-44
-33
-41
-56
-61
-68
-79
-75
-62
-49
-37
-27
-35
-51
-62
-75
-78
-66
-55
-48
-32
-38
-43
-48
-59
-78
-79
-75
-58
-50
-38
-33
-39
-50
-58
-72
-73
-73
-63
-54
-31
-29
-32
-46
-56
-81
-84
-77
-68
-52
-31
-40
-42
-55
-66
-81
-66
-62
-48
-44
-24
-22
-33
-43
-54
-68
-60
-59
-39
-38
-18
-19
-31
-40
-45
-56
-54
-47
-34
-28
-6
-4
-18
-35
-33
-47
-50
-39
-25
-22
-5
-14
-18
-38
-52
-75
-69
-63
-49
-47
-36
-47
-48
-66
-77
-88
-85
-70
-48
-40
-26
-32
-44
-55
-69
-84
-77
-71
-54
-45
-40
-42
-53
-63
-67
-81
-71
-52
-26
-13
6
12
7
21
30
40
53
66
68
49
30
3
-25
-71
-119
-174
-214
-219
-207
-198
-188
-188
-177
-175
-176
-170
-155
-131
-113
-102
-85
-82
-89
-90
-100
-95
-83
-65
-49
-32
-26
-36
-60
-64
-80
-78
-64
-43
-36
-22
-28
-34
-45
-52
-64
-66
-66
-50
-38
-23
-26
-34
-49
-51
-66
-51
-48
-34
-24
-11
-11
-27
-42
-49
-68
-57
-50
-29
-19
-4
-6
-9
-35
-38
-54
-48
-37
-24
-21
-8
-9
-13
-23
-25
-41
-34
-27
-16
-13
5
9
6
-18
-25
-39
-31
-23
-14
-8
8
13
6
-10
-8
-19
-13
-9
5
15
31
27
23
9
-2
-15
-14
2
10
21
42
44
36
17
5
-8
-6
10
31
34
47
41
24
6
5
-1
-1
11
28
39
51
48
32
11
1
-14
-28
-21
-10
-1
7
10
0
-15
-33
-48
-45
-29
-19
-10
-4
-11
-26
-38
-52
-58
-57
-47
-42
-27
-18
-30
-46
-58
-72
-71
-64
-49
-42
-23
-30
-31
-48
-53
-73
-74
-76
-58
-48
-33
-30
-36
-44
-47
-63
-67
-67
-64
-59
-35
-39
-43
-59
-61
-72
-69
-67
-45
-36
-22
-28
-42
-58
-61
-77
-73
-64
-53
-44
-25
-27
-31
-44
-54
-75
-80
-68
-46
-46
-33
-34
-43
-54
-59
-74
-72
-57
-40
-35
-21
-26
-48
-62
-71
-79
-76
-62
-47
-39
-22
-25
-39
-50
-66
-77
-78
-65
-54
-51
-37
-30
-33
-44
-52
-70
-64
-52
-58
-50
-39
-36
-49
-65
-74
-81
-78
-64
-49
-41
-29
-40
-47
-61
-60
-72
-70
-60
-50
-39
-25
-31
-43
-55
-68
-90
-87
-70
-56
-45
-27
-29
-39
-54
-73
-77
-70
-61
-52
-41
-29
-33
-44
-57
-70
-71
-70
-54
-47
-41
-39
-40
-56
-64
-88
-82
-73
-59
-45
-28
-26
-36
-53
-56
-78
-83
-71
-59
-53
-37
-37
-39
-50
-64
-86
-82
-75
-54
-43
-27
-27
-38
-58
-61
-76
-77
-72
-61
-49
-27
-28
-32
-48
-60
-80
-81
-69
-55
-41
-29
-30
-45
-60
-63
-78
-78
-71
-59
-56
-38
-32
-41
-57
-59
-72
-73
-66
-55
-46
-34
-35
-47
-59
-63
-78
-70
-58
-48
-45
-34
-33
-44
-60
-59
-74
-72
-64
-58
-43
-27
-33
-41
-57
-69
-75
-73
-63
-59
-54
-40
-42
-53
-64
-69
-75
-71
-60
-46
-33
-22
-29
-42
-56
-63
-67
-63
-48
-37
-33
-20
-26
-40
-52
-56
-62
-61
-42
-32
-18
-13
-17
-28
-38
-52
-52
-44
-30
-25
-11
-6
-14
-25
-40
-53
-57
-49
-34
-21
-7
-9
-19
-35
-53
-75
-75
-72
-60
-58
-38
-31
-43
-54
-58
-83
-80
-72
-60
-43
-29
-25
-28
-55
-68
-80
-73
-72
-65
-50
-25
-31
-39
-43
-42
-51
-42
-23
2
18
58
76
86
87
76
42
18
-7
-12
-38
-58
-95
-158
-207
-217
-241
-235
-219
-190
-169
-139
-127
-122
-127
-126
-131
-120
-113
-91
-80
-64
-66
-70
-72
-74
-74
-69
-55
-33
-28
-20
-29
-39
-51
-62
-79
-75
-62
-40
-26
-16
-15
-35
-45
-45
-54
-52
-44
-33
-17
-10
-18
-28
-40
-46
-59
-60
-54
-35
-18
-6
-10
-26
-39
-46
-53
-45
-28
-14
-6
1
-7
-19
-34
-46
-52
-50
-34
-16
0
11
11
-12
-25
-36
-33
-21
-7
9
18
12
11
1
-7
-27
-23
-22
-9
5
21
27
25
7
1
-15
-14
-5
12
19
39
43
40
20
12
-8
1
7
22
22
44
43
37
24
17
-2
4
14
29
37
52
51
43
27
24
8
7
13
24
30
41
40
32
15
2
-15
-11
-14
4
8
19
9
-13
-31
-35
-50
-42
-30
-19
-21
-6
-9
-19
-36
-47
-60
-67
-51
-46
-39
-24
-28
-37
-45
-62
-73
-62
-52
-36
-31
-20
-26
-35
-48
-58
-66
-65
-58
-36
-26
-14
-22
-40
-48
-60
-71
-59
-47
-45
-33
-18
-20
-31
-37
-66
-75
-70
-54
-43
-37
-22
-23
-34
-43
-57
-67
-71
-56
-36
-30
-19
-24
-39
-53
-70
-76
-65
-51
-38
-21
-14
-23
-36
-48
-67
-72
-65
-47
-30
-14
-14
-17
-38
-51
-72
-79
-67
-51
-36
-19
-20
-28
-47
-52
-72
-73
-62
-44
-36
-17
-14
-21
-40
-55
-82
-73
-62
-49
-38
-19
-26
-36
-52
-55
-69
-69
-64
-50
-39
-23
-23
-32
-46
-56
-71
-66
-58
-38
-38
-29
-28
-44
-52
-53
-74
-72
-67
-50
-40
-23
-25
-29
-39
-51
-69
-75
-62
-44
-42
-16
-22
-36
-50
-52
-68
-66
-44
-38
-34
-26
-30
-44
-54
-66
-79
-74
-58
-39
-31
-19
-27
-41
-52
-62
-72
-72
-62
-48
-32
-26
-35
-42
-50
-61
-70
-76
-58
-43
-29
-22
-24
-35
-49
-56
-61
-59
-46
-35
-38
-30
-35
-49
-50
-62
-65
-64
-55
-45
-25
-14
-22
-30
-44
-62
-70
-76
-59
-47
-28
-28
-30
-45
-52
-69
-72
-64
-41
-34
-22
-19
-38
-52
-56
-70
-68
-66
-48
-40
-26
-27
-26
-41
-40
-60
-61
-59
-42
-34
-23
-29
-43
-55
-63
-81
-73
-59
-42
-38
-20
-23
-33
-44
-53
-67
-56
-46
-44
-47
-24
-26
-33
-42
-46
-63
-62
-51
-35
-28
-19
-26
-38
-52
-63
-72
-72
-66
-45
-41
-13
-19
-30
-39
-44
-66
-67
-54
-41
-35
-10
-13
-26
-35
-47
-61
-52
-40
-31
-14
-7
-4
-13
-24
-29
-40
-36
-35
-22
-9
-2
0
-17
-28
-26
-35
-28
-18
-5
-10
-9
-9
-18
-32
-57
-68
-65
-57
-42
-31
-14
-18
-31
-52
-66
-69
-59
-55
-42
-28
-21
-27
-43
-58
-68
-70
-69
-53
-40
-29
-17
-19
-28
-40
-54
-51
-49
-29
-7
15
30
34
37
40
39
61
79
78
60
49
38
7
-39
-84
-151
-204
-201
-187
-174
-154
-150
-144
-148
-149
-154
-140
-125
-105
-92
-67
-62
-66
-74
-75
-96
-85
-68
-52
-43
-20
-17
-29
-42
-51
-68
-62
-48
-37
-31
-9
-11
-22
-35
-32
-41
-44
-42
-18
-10
-15
-16
-23
-36
-36
-51
-40
-32
-19
-7
4
-8
-22
-25
-29
-41
-46
-39
-18
-7
12
12
0
-19
-27
-37
-41
-27
-1
3
12
8
1
-8
-23
-29
-31
-17
-2
10
27
26
15
4
-4
-14
-10
10
15
19
32
28
13
11
-2
-6
4
19
22
30
42
45
33
29
16
5
4
17
36
52
61
58
46
36
24
20
25
40
52
62
60
52
38
32
16
4
18
34
42
62
63
53
40
35
11
0
-2
21
27
42
40
26
8
-4
-29
-23
-21
-13
-5
16
16
-1
-16
-25
-49
-40
-32
-16
-16
2
-8
-14
-30
-41
-60
-48
-44
-30
-28
-12
-18
-24
-37
-50
-61
-59
-48
-30
-17
-1
-1
-17
-38
-49
-62
-58
-48
-39
-29
-15
-18
-30
-42
-48
-62
-57
-45
-28
-25
-15
-12
-21
-32
-41
-56
-49
-44
-34
-19
-8
-13
-20
-36
-45
-55
-51
-43
-27
-28
-15
-14
-25
-31
-41
-48
-43
-36
-30
-27
-20
-21
-31
-46
-50
-61
-54
-41
-26
-15
-7
-17
-33
-47
-54
-66
-58
-46
-33
-20
-12
-14
-24
-36
-51
-55
-51
-29
-19
-23
-27
-25
-31
-44
-58
-56
-49
-32
-39
-19
-9
-21
-37
-49
-68
-72
-62
-44
-34
-16
-11
-22
-31
-42
-58
-52
-50
-43
-35
-17
-23
-24
-39
-49
-67
-65
-62
-45
-35
-14
-16
-22
-31
-42
-62
-52
-51
-45
-36
-16
-18
-27
-34
-35
-56
-58
-47
-33
-30
-5
-6
-24
-40
-46
-60
-61
-60
-43
-35
-20
-24
-37
-50
-53
-69
-64
-56
-39
-30
-14
-19
-27
-38
-48
-63
-65
-50
-38
-32
-17
-16
-29
-47
-49
-55
-64
-55
-36
-32
-21
-18
-32
-45
-52
-65
-59
-43
-35
-25
-13
-15
-34
-42
-46
-61
-67
-57
-41
-35
-21
-27
-34
-47
-52
-58
-53
-37
-29
-33
-33
-28
-39
-53
-61
-64
-62
-46
-34
-22
-13
-15
-35
-40
-62
-69
-57
-46
-38
-25
-24
-19
-29
-35
-55
-61
-58
-50
-34
-18
-14
-25
-38
-45
-65
-59
-56
-48
-36
-16
-16
-22
-39
-56
-72
-63
-58
-44
-39
-27
-23
-28
-40
-47
-69
-63
-51
-33
-28
-9
-11
-22
-43
-58
-69
-66
-56
-34
-21
-7
-10
-25
-44
-55
-70
-65
-48
-30
-23
-13
-17
-31
-46
-45
-56
-48
-37
-23
-19
-9
-15
-28
-34
-37
-56
-49
-40
-22
-22
-6
-1
-15
-23
-28
-46
-40
-18
-1
-3
3
1
-11
-26
-39
-49
-44
-30
-17
-10
-2
-7
-20
-30
-47
-70
-71
-53
-35
-21
-13
-29
-45
-52
-57
-71
-63
-41
-33
-24
-21
-32
-53
-55
-68
-75
-68
-49
-36
-25
-15
-24
-27
-37
-39
-27
-12
10
41
78
98
102
99
79
40
13
-6
-17
-37
-64
-106
-158
-199
-218
-231
-217
-202
-173
-146
-115
-105
-102
-103
-102
-122
-118
-103
-86
-68
-47
-43
-44
-54
-59
-75
-70
-59
-39
-22
-5
-20
-40
-45
-45
-65
-61
-52
-33
-25
-7
-11
-22
-31
-40
-56
-46
-38
-30
-25
-4
-2
-17
-35
-35
-51
-55
-39
-18
-8
2
4
-13
-28
-38
-48
-48
-39
-24
-16
3
5
-8
-19
-31
-41
-32
-16
4
11
15
11
-2
-12
-28
-34
-28
-16
-5
13
29
24
16
8
-5
-16
-14
-6
3
10
22
25
11
2
-5
-11
-9
20
40
45
53
41
29
15
-6
-11
-4
14
29
43
55
49
40
31
28
24
24
30
24
32
47
46
31
18
5
2
6
22
32
49
55
48
22
10
-3
-14
-15
-5
-4
11
8
4
-10
-18
-45
-40
-33
-27
-23
-3
-6
-21
-34
-39
-62
-55
-49
-38
-34
-16
-14
-19
-37
-50
-63
-65
-67
-47
-41
-19
-21
-26
-40
-48
-66
-65
-50
-35
-27
-18
-17
-30
-52
-61
-77
-73
-58
-46
-41
-20
-17
-26
-36
-37
-57
-70
-66
-57
-49
-30
-29
-36
-46
-54
-63
-60
-50
-34
-25
-16
-19
-38
-51
-65
-67
-70
-61
-40
-27
-18
-16
-27
-45
-54
-69
-62
-50
-37
-28
-21
-25
-42
-52
-61
-70
-67
-51
-41
-29
-16
-24
-44
-55
-57
-65
-66
-54
-37
-27
-19
-28
-36
-51
-57
-67
-64
-56
-44
-33
-20
-25
-40
-58
-68
-77
-79
-55
-42
-31
-23
-31
-40
-55
-70
-72
-62
-46
-31
-23
-23
-33
-46
-55
-78
-80
-65
-51
-45
-23
-22
-32
-56
-62
-80
-72
-62
-47
-36
-18
-22
-36
-48
-58
-75
-67
-60
-50
-43
-24
-27
-47
-55
-59
-71
-77
-67
-50
-44
-23
-23
-33
-49
-50
-74
-76
-62
-45
-33
-19
-25
-33
-50
-58
-75
-78
-67
-54
-44
-21
-26
-35
-53
-59
-71
-72
-62
-49
-37
-21
-16
-33
-48
-55
-77
-86
-67
-44
-34
-24
-32
-37
-54
-58
-82
-78
-64
-51
-41
-23
-25
-35
-51
-66
-73
-71
-60
-40
-34
-23
-23
-40
-52
-58
-76
-70
-57
-42
-35
-27
-24
-32
-50
-62
-66
-59
-55
-46
-33
-24
-37
-53
-62
-69
-77
-72
-59
-48
-30
-22
-31
-42
-52
-65
-73
-77
-55
-45
-30
-30
-33
-45
-55
-72
-72
-62
-46
-41
-24
-19
-23
-45
-49
-68
-69
-57
-44
-39
-22
-21
-36
-58
-64
-81
-72
-71
-56
-46
-29
-30
-38
-51
-58
-77
-72
-67
-46
-42
-27
-22
-27
-42
-49
-81
-87
-73
-58
-52
-29
-25
-37
-47
-54
-71
-71
-60
-44
-34
-16
-16
-31
-49
-48
-61
-64
-54
-41
-29
-11
-21
-33
-46
-52
-57
-58
-48
-35
-16
-4
-5
-20
-30
-39
-57
-48
-29
-23
-16
2
0
-16
-32
-48
-58
-48
-35
-27
-17
-12
-14
-25
-41
-53
-62
-62
-54
-38
-35
-28
-32
-46
-53
-67
-81
-71
-52
-46
-35
-28
-32
-41
-56
-69
-76
-77
-60
-54
-28
-16
-29
-48
-49
-53
-44
-32
-6
15
40
69
81
81
79
56
39
26
10
-3
-9
-46
-97
-168
-219
-243
-237
-225
-197
-164
-135
-125
-118
-119
-119
-129
-119
-112
-97
-94
-67
-57
-57
-67
-71
-87
-78
-60
-41
-29
-15
-27
-35
-46
-43
-64
-56
-53
-43
-29
-11
-9
-24
-36
-44
-66
-62
-51
-42
-33
-12
-11
-24
-40
-45
-57
-55
-38
-24
-20
-4
-5
-10
-23
-27
-41
-45
-36
-21
-11
5
9
-4
-22
-36
-37
-43
-24
-13
-7
7
6
-3
-16
-29
-40
-33
-21
-3
4
18
23
12
0
-11
-28
-19
-9
16
24
36
28
17
7
-2
-7
-4
1
16
28
44
43
30
19
8
7
12
27
41
47
51
53
37
27
16
8
12
28
44
65
69
67
43
24
5
-9
-9
5
21
41
43
37
22
12
-3
-8
-3
5
18
26
29
16
-2
-14
-38
-43
-35
-20
-13
2
-1
-12
-18
-27
-42
-45
-44
-39
-38
-24
-24
-29
-36
-43
-56
-52
-49
-32
-31
-18
-23
-33
-45
-53
-66
-66
-52
-38
-28
-11
-8
-27
-47
-65
-72
-65
-52
-45
-40
-22
-18
-24
-36
-35
-60
-54
-50
-41
-37
-22
-20
-35
-51
-59
-77
-70
-50
-33
-24
-3
-14
-28
-42
-47
-65
-61
-49
-31
-26
-17
-22
-40
-56
-55
-64
-61
-54
-39
-29
-16
-21
-28
-42
-47
-58
-50
-48
-39
-31
-24
-32
-40
-45
-57
-65
-61
-44
-31
-26
-19
-22
-31
-42
-56
-66
-71
-59
-43
-24
-27
-34
-45
-57
-66
-71
-67
-50
-41
-29
-21
-25
-40
-44
-55
-55
-59
-55
-43
-26
-29
-30
-45
-51
-70
-68
-55
-38
-39
-20
-16
-25
-46
-55
-76
-69
-62
-50
-35
-12
-21
-24
-44
-54
-74
-66
-61
-53
-48
-37
-28
-38
-48
-55
-70
-61
-53
-40
-32
-17
-22
-34
-38
-54
-75
-72
-56
-47
-45
-23
-23
-34
-47
-51
-70
-70
-56
-41
-36
-19
-24
-32
-46
-51
-66
-73
-66
-51
-43
-28
-25
-35
-46
-54
-66
-65
-57
-41
-33
-23
-30
-40
-49
-58
-67
-64
-53
-34
-35
-23
-16
-41
-58
-63
-75
-72
-57
-42
-29
-18
-26
-40
-50
-61
-78
-66
-54
-47
-38
-24
-22
-33
-45
-55
-66
-59
-50
-44
-32
-15
-22
-34
-49
-66
-80
-73
-51
-41
-29
-24
-29
-40
-54
-75
-70
-64
-53
-40
-28
-23
-33
-50
-53
-69
-71
-65
-56
-42
-28
-22
-35
-44
-54
-72
-66
-58
-48
-38
-20
-22
-29
-39
-45
-61
-59
-51
-45
-40
-24
-26
-29
-39
-51
-69
-66
-64
-57
-52
-24
-18
-25
-37
-47
-69
-69
-54
-32
-25
-17
-24
-35
-50
-51
-66
-54
-42
-20
-11
1
-1
-9
-24
-31
-57
-54
-37
-18
-10
6
8
-2
-17
-29
-50
-61
-60
-35
-20
-5
-6
-15
-40
-52
-66
-67
-56
-46
-29
-18
-25
-39
-56
-76
-85
-75
-62
-44
-35
-20
-20
-32
-48
-70
-79
-83
-68
-44
-30
-22
-29
-36
-35
-35
-33
-16
14
37
63
85
87
73
61
38
6
-12
-13
-31
-46
-80
-128
-180
-196
-196
-197
-188
-162
-148
-130
-128
-126
-124
-125
-132
-126
-119
-97
-78
-57
-50
-48
-53
-58
-76
-75
-71
-55
-41
-25
-19
-26
-35
-41
-61
-55
-46
-35
-26
-21
-19
-26
-46
-60
-73
-60
-46
-31
-23
-5
-6
-15
-29
-35
-54
-51
-36
-26
-20
-5
-8
-15
-28
-38
-50
-47
-39
-16
-2
20
15
2
-19
-31
-49
-53
-43
-20
-12
4
10
5
-17
-19
-32
-31
-14
0
13
30
24
12
-5
-17
-24
-20
0
9
17
27
27
10
2
-4
-14
-15
5
26
33
44
49
34
19
8
0
2
19
33
45
51
49
44
35
26
20
29
35
44
51
56
49
38
24
15
6
6
21
27
34
43
38
27
7
-2
-8
1
18
26
27
18
-1
-12
-22
-35
-41
-44
-30
-22
-4
0
-11
-26
-40
-60
-58
-48
-38
-28
-21
-14
-20
-39
-49
-63
-59
-53
-36
-40
-30
-28
-38
-46
-50
-63
-61
-56
-48
-42
-24
-26
-35
-42
-48
-65
-65
-53
-42
-34
-23
-29
-32
-54
-62
-75
-67
-56
-44
-38
-21
-21
-31
-41
-50
-62
-57
-44
-42
-43
-31
-23
-33
-51
-57
-71
-64
-46
-36
-31
-16
-22
-31
-58
-55
-73
-70
-53
-36
-31
-14
-19
-30
-42
-52
-69
-68
-59
-41
-34
-21
-19
-35
-49
-62
-76
-73
-57
-40
-32
-18
-22
-31
-48
-66
-75
-72
-57
-41
-35
-21
-22
-38
-49
-67
-79
-72
-56
-34
-34
-32
-32
-42
-54
-62
-74
-66
-48
-39
-29
-22
-25
-43
-56
-71
-76
-66
-50
-47
-36
-26
-28
-40
-47
-61
-58
-57
-51
-41
-36
-32
-42
-57
-61
-78
-74
-66
-55
-44
-20
-20
-22
-40
-62
-86
-76
-57
-48
-40
-24
-27
-28
-50
-60
-85
-81
-65
-54
-48
-28
-24
-32
-45
-54
-71
-68
-58
-46
-40
-20
-28
-38
-54
-57
-71
-73
-62
-44
-37
-20
-27
-40
-52
-64
-85
-76
-67
-51
-38
-23
-30
-44
-54
-58
-71
-69
-60
-48
-47
-29
-29
-38
-49
-55
-69
-71
-63
-50
-45
-25
-28
-38
-53
-63
-74
-71
-54
-44
-37
-22
-31
-48
-59
-68
-77
-76
-63
-45
-35
-25
-28
-42
-53
-58
-75
-72
-63
-54
-42
-32
-33
-43
-53
-61
-68
-66
-54
-34
-36
-34
-31
-43
-58
-69
-75
-69
-61
-41
-27
-16
-23
-37
-47
-75
-84
-73
-52
-45
-29
-30
-33
-46
-55
-67
-65
-61
-45
-30
-24
-12
-14
-29
-37
-56
-60
-58
-43
-24
1
-3
-12
-24
-33
-50
-56
-52
-32
-19
-1
-5
-15
-34
-36
-54
-55
-46
-27
-17
2
-7
-24
-40
-54
-77
-75
-64
-52
-50
-40
-35
-38
-60
-71
-84
-77
-70
-53
-38
-21
-23
-41
-56
-56
-87
-86
-69
-51
-43
-21
-12
-20
-33
-28
-28
-24
9
48
68
93
105
89
59
28
-10
-29
-51
-85
-115
-156
-194
-209
-216
-221
-216
-191
-164
-141
-121
-104
-98
-106
-125
-121
-123
-109
-90
-74
-62
-40
-44
-49
-58
-70
-75
-69
-53
-35
-29
-29
-29
-39
-50
-59
-68
-63
-50
-36
-24
-13
-16
-28
-41
-47
-53
-51
-41
-37
-27
-16
-17
-25
-44
-54
-51
-45
-38
-28
-11
-5
-10
-25
-32
-45
-49
-44
-23
-15
3
4
-4
-13
-25
-49
-45
-43
-31
-15
7
2
0
-17
-21
-37
-34
-20
0
3
17
16
11
1
-3
-21
-12
-8
1
1
24
27
21
11
5
-10
-7
-4
19
28
42
42
30
15
12
-8
-6
12
29
28
47
48
43
31
29
12
17
24
33
36
46
44
35
16
13
-5
-6
5
20
22
35
29
16
-2
-16
-27
-16
-6
1
9
18
8
-4
-18
-39
-54
-47
-43
-33
-18
-10
-12
-20
-36
-43
-57
-60
-52
-43
-30
-24
-28
-39
-43
-54
-68
-64
-55
-50
-39
-27
-31
-48
-51
-63
-71
-70
-56
-47
-31
-24
-27
-44
-50
-64
-66
-64
-55
-48
-32
-26
-30
-41
-51
-68
-69
-66
-51
-45
-27
-23
-31
-44
-51
-67
-72
-63
-50
-42
-29
-24
-30
-52
-57
-71
-77
-63
-45
-36
-13
-15
-21
-43
-49
-76
-82
-67
-46
-41
-21
-23
-38
-58
-63
-79
-82
-65
-42
-34
-22
-21
-36
-51
-65
-78
-77
-61
-51
-41
-25
-34
-43
-54
-60
-77
-73
-59
-39
-37
-19
-19
-31
-45
-65
-80
-81
-66
-52
-48
-25
-25
-30
-47
-66
-88
-77
-63
-52
-33
-18
-27
-46
-58
-65
-80
-72
-58
-49
-39
-26
-34
-43
-54
-62
-74
-81
-68
-51
-40
-23
-25
-39
-52
-62
-68
-64
-53
-55
-51
-35
-39
-52
-62
-68
-72
-75
-60
-42
-29
-17
-30
-47
-57
-77
-82
-70
-57
-46
-38
-34
-44
-56
-67
-82
-80
-72
-56
-42
-23
-25
-29
-43
-56
-79
-75
-76
-60
-48
-31
-28
-32
-51
-58
-80
-78
-73
-54
-44
-23
-22
-34
-58
-62
-81
-80
-72
-61
-53
-33
-26
-31
-40
-44
-68
-75
-62
-47
-40
-30
-36
-50
-62
-68
-81
-78
-68
-51
-45
-22
-19
-33
-50
-58
-83
-82
-69
-60
-55
-31
-29
-41
-53
-58
-72
-71
-52
-51
-53
-30
-26
-36
-55
-65
-79
-78
-67
-58
-42
-27
-33
-48
-59
-64
-69
-62
-55
-39
-36
-25
-46
-59
-68
-76
-82
-77
-68
-57
-48
-31
-34
-41
-47
-58
-65
-68
-56
-49
-37
-25
-33
-43
-62
-68
-71
-63
-51
-32
-18
-5
-15
-26
-38
-54
-63
-61
-40
-32
-22
-13
-11
-24
-31
-38
-44
-46
-41
-26
-15
-13
-22
-33
-38
-56
-58
-54
-48
-38
-23
-23
-36
-55
-63
-78
-79
-74
-57
-45
-23
-21
-33
-51
-71
-88
-85
-81
-62
-48
-26
-29
-43
-56
-66
-88
-79
-69
-52
-36
-15
-12
-13
-15
-4
1
22
48
72
81
96
79
40
1
-22
-77
-114
-142
-174
-206
-191
-193
-202
-211
-190
-186
-173
-149
-131
-127
-104
-98
-102
-104
-106
-110
-107
-92
-68
-59
-40
-33
-44
-54
-62
-73
-71
-63
-48
-39
-23
-23
-37
-52
-66
-77
-69
-55
-46
-35
-20
-18
-31
-45
-53
-60
-61
-46
-37
-26
-15
-19
-28
-40
-44
-51
-43
-25
-22
-21
-11
-19
-40
-50
-51
-57
-54
-38
-22
-14
-1
-4
-10
-22
-36
-41
-39
-18
-3
8
6
-3
-17
-29
-38
-35
-31
-22
-8
10
14
8
-6
-10
-19
-23
-15
1
7
25
26
17
12
-1
-21
-16
-4
13
19
38
45
38
26
17
-2
4
6
16
28
53
60
45
29
16
-4
10
17
21
24
43
34
25
12
6
-4
-6
-1
14
21
34
24
16
-4
-15
-34
-36
-20
-13
-10
5
2
-19
-29
-36
-58
-60
-43
-34
-25
-9
-11
-29
-43
-50
-65
-62
-58
-48
-42
-30
-28
-41
-53
-55
-66
-66
-57
-49
-46
-37
-31
-44
-54
-65
-75
-73
-56
-43
-33
-22
-22
-36
-57
-73
-90
-79
-66
-51
-42
-33
-31
-41
-51
-66
-68
-61
-49
-29
-23
-23
-30
-44
-64
-79
-83
-76
-63
-49
-38
-31
-36
-47
-56
-62
-62
-45
-39
-38
-30
-33
-53
-57
-62
-78
-79
-74
-63
-52
-27
-27
-30
-43
-52
-71
-74
-79
-62
-58
-36
-29
-37
-48
-63
-77
-74
-70
-60
-50
-27
-24
-34
-49
-56
-85
-81
-72
-61
-51
-35
-29
-34
-43
-53
-70
-70
-67
-57
-58
-41
-34
-47
-62
-66
-82
-84
-69
-53
-52
-26
-21
-28
-46
-60
-79
-89
-77
-57
-54
-38
-39
-50
-61
-66
-84
-85
-73
-50
-46
-29
-29
-42
-46
-55
-78
-86
-76
-58
-47
-37
-37
-50
-63
-65
-76
-67
-53
-42
-40
-34
-34
-55
-70
-79
-87
-83
-69
-57
-48
-36
-34
-48
-64
-71
-83
-78
-67
-51
-40
-35
-47
-55
-67
-76
-84
-82
-67
-54
-44
-34
-39
-48
-61
-70
-76
-72
-64
-57
-44
-31
-40
-50
-64
-76
-79
-75
-61
-51
-29
-19
-29
-43
-60
-87
-86
-80
-73
-58
-41
-33
-41
-53
-61
-83
-80
-74
-69
-59
-42
-33
-40
-57
-66
-82
-77
-64
-54
-48
-29
-37
-47
-52
-59
-78
-71
-63
-55
-53
-38
-41
-51
-65
-69
-87
-78
-64
-48
-39
-23
-32
-48
-63
-74
-89
-82
-67
-56
-50
-27
-29
-42
-53
-72
-94
-86
-74
-58
-51
-32
-33
-46
-62
-65
-77
-75
-64
-49
-38
-21
-21
-39
-53
-59
-73
-75
-60
-54
-41
-26
-17
-26
-47
-59
-73
-68
-50
-34
-24
-12
-10
-20
-35
-44
-54
-50
-41
-24
-17
-10
-17
-29
-38
-61
-71
-66
-53
-36
-19
-10
-16
-32
-54
-72
-81
-76
-66
-53
-42
-38
-44
-55
-70
-73
-76
-72
-56
-45
-39
-39
-47
-66
-79
-90
-85
-74
-59
-48
-30
-27
-31
-40
-30
-30
-20
-4
23
45
85
95
87
60
33
-12
-36
-54
-73
-99
-123
-179
-203
-223
-230
-234
-214
-186
-164
-152
-120
-112
-107
-118
-123
-137
-128
-110
-89
-71
-46
-51
-66
-68
-73
-87
-82
-69
-55
-42
-20
-23
-34
-46
-55
-78
-75
-62
-42
-35
-17
-20
-31
-45
-59
-80
-77
-59
-47
-36
-19
-17
-27
-44
-51
-67
-68
-55
-37
-24
-10
-8
-19
-39
-44
-55
-52
-36
-23
-12
0
-9
-21
-32
-48
-52
-49
-37
-26
-20
-4
1
-11
-26
-35
-42
-31
-16
-4
2
7
7
-5
-17
-25
-33
-30
-7
7
7
24
18
12
1
-20
-19
-15
5
22
37
44
32
15
12
2
-10
-4
15
27
35
37
30
18
11
0
11
16
22
31
45
50
42
26
8
-9
-7
-2
7
10
33
29
22
5
-9
-37
-36
-18
-5
-7
5
3
-3
-24
-40
-55
-54
-52
-37
-30
-14
-16
-26
-44
-48
-66
-61
-52
-42
-37
-23
-29
-45
-58
-63
-78
-78
-71
-49
-41
-33
-34
-45
-59
-72
-85
-78
-64
-44
-37
-20
-28
-42
-56
-67
-71
-73
-65
-54
-48
-34
-37
-41
-63
-73
-82
-78
-66
-48
-40
-28
-29
-43
-52
-60
-73
-80
-67
-49
-38
-28
-25
-38
-55
-66
-81
-69
-57
-45
-37
-22
-27
-46
-55
-71
-85
-73
-58
-45
-36
-24
-29
-49
-59
-68
-75
-75
-71
-52
-27
-15
-40
-61
-64
-74
-80
-74
-62
-54
-34
-26
-33
-52
-64
-76
-78
-70
-62
-51
-37
-37
-43
-52
-58
-72
-73
-64
-52
-39
-21
-27
-40
-61
-66
-87
-81
-73
-57
-51
-27
-23
-38
-49
-59
-80
-89
-78
-59
-54
-42
-39
-44
-58
-63
-85
-80
-71
-52
-46
-27
-36
-47
-63
-65
-79
-80
-69
-54
-49
-30
-25
-38
-52
-69
-91
-89
-75
-62
-59
-36
-36
-42
-55
-54
-70
-66
-58
-45
-56
-54
-43
-49
-66
-78
-88
-85
-69
-54
-47
-38
-36
-47
-58
-70
-87
-79
-65
-55
-46
-37
-36
-46
-57
-71
-85
-78
-69
-64
-51
-38
-34
-49
-63
-74
-83
-79
-67
-56
-41
-30
-35
-48
-56
-69
-77
-74
-66
-62
-45
-41
-41
-52
-69
-74
-84
-81
-73
-59
-38
-35
-41
-59
-63
-70
-78
-73
-57
-52
-44
-38
-43
-59
-75
-84
-86
-79
-59
-46
-35
-38
-51
-58
-69
-85
-79
-74
-58
-49
-34
-36
-47
-57
-60
-82
-83
-87
-59
-50
-25
-24
-44
-58
-73
-94
-89
-78
-66
-53
-34
-33
-38
-52
-66
-85
-86
-74
-57
-53
-37
-37
-42
-55
-69
-87
-91
-77
-56
-44
-20
-18
-37
-59
-65
-81
-82
-68
-55
-48
-27
-28
-40
-53
-59
-62
-58
-47
-28
-24
-13
-18
-31
-45
-47
-59
-61
-44
-21
-11
-7
-20
-35
-51
-66
-70
-63
-54
-40
-30
-23
-22
-39
-59
-68
-82
-86
-75
-57
-47
-30
-37
-54
-77
-91
-97
-88
-71
-55
-45
-40
-42
-57
-76
-87
-92
-84
-62
-47
-34
-23
-31
-52
-49
-43
-38
-9
23
51
81
94
83
