-72
-71
-76
-76
-75
-75
-75
-76
-76
-74
-65
-72
-72
-72
-72
-81
-78
-78
-76
-69
-64
-69
-72
-72
-72
-77
-70
-71
-74
-68
-64
-66
-68
-69
-69
-71
-67
-68
-71
-70
-66
-69
-69
-69
-74
-79
-72
-68
-73
-69
-65
-66
-67
-67
-70
-72
-69
-69
-74
-68
-66
-65
-65
-65
-75
-76
-69
-70
-71
-66
-68
-69
-69
-68
-75
-74
-72
-68
-69
-65
-64
-67
-67
-66
-74
-73
-67
-62
-66
-60
-61
-63
-68
-64
-67
-62
-59
-61
-62
-55
-54
-55
-57
-54
-57
-53
-50
-50
-51
-44
-46
-45
-48
-48
-55
-55
-57
-56
-58
-55
-56
-65
-72
-69
-74
-69
-69
-68
-68
-63
-66
-67
-72
-72
-78
-73
-70
-71
-71
-61
-65
-71
-75
-68
-72
-69
-71
-71
-70
-65
-68
-72
-68
-69
-75
-70
-70
-72
-71
-63
-66
-68
-67
-67
-74
-74
-76
-74
-67
-62
-61
-58
-46
-30
-18
2
20
35
51
65
66
75
75
59
35
23
3
-19
-36
-50
-64
-71
-67
-72
-74
-68
-64
-72
-71
-65
-64
-64
-64
-67
-69
-67
-67
-72
-66
-64
-66
-66
-67
-66
-71
-66
-65
-71
-61
-62
-64
-63
-62
-68
-66
-63
-64
-65
-61
-61
-60
-60
-60
-68
-64
-63
-65
-69
-57
-56
-57
-59
-59
-63
-64
-63
-62
-64
-59
-58
-60
-61
-59
-62
-59
-58
-58
-60
-55
-58
-59
-61
-58
-57
-56
-56
-55
-57
-49
-49
-52
-56
-53
-55
-51
-53
-53
-49
-42
-44
-46
-45
-42
-49
-46
-44
-43
-40
-34
-32
-35
-36
-35
-40
-37
-37
-37
-35
-32
-35
-35
-36
-34
-37
-34
-36
-39
-38
-32
-34
-39
-39
-35
-42
-41
-40
-44
-46
-41
-44
-47
-49
-53
-58
-53
-51
-53
-56
-57
-60
-57
-59
-60
-65
-62
-61
-64
-61
-57
-59
-59
-59
-63
-66
-65
-64
-67
-62
-57
-60
-64
-61
-63
-66
-69
-69
-70
-62
-63
-63
-63
-61
-63
-64
-63
-66
-69
-63
-61
-64
-63
-62
-68
-68
-63
-62
-63
-59
-57
-61
-65
-62
-66
-63
-61
-57
-65
-61
-58
-60
-62
-60
-67
-65
-63
-59
-58
-50
-52
-57
-61
-58
-63
-61
-60
-61
-61
-54
-55
-59
-59
-58
-60
-59
-61
-60
-59
-55
-54
-60
-61
-60
-65
-63
-60
-62
-62
-56
-59
-62
-65
-58
-58
-61
-62
-61
-59
-57
-58
-57
-60
-57
-65
-63
-63
-65
-65
-58
-58
-60
-65
-62
-65
-64
-62
-58
-61
-55
-58
-59
-58
-59
-65
-62
-62
-62
-58
-52
-55
-56
-52
-55
-66
-60
-57
-60
-57
-52
-57
-55
-56
-54
-57
-52
-52
-51
-47
-39
-42
-42
-40
-45
-48
-46
-43
-48
-41
-42
-47
-49
-52
-54
-54
-51
-60
-62
-56
-54
-58
-64
-62
-65
-65
-63
-62
-63
-57
-57
-60
-62
-62
-67
-66
-66
-64
-66
-61
-60
-62
-65
-62
-67
-64
-66
-63
-69
-63
-64
-65
-63
-59
-59
-62
-60
-61
-72
-63
-61
-70
-71
-69
-73
-61
-49
-50
-42
-23
-9
11
30
48
54
66
72
79
75
63
43
32
12
-12
-45
-58
-63
-70
-72
-62
-60
-57
-60
-58
-58
-59
-59
-63
-64
-58
-62
-62
-58
-59
-66
-65
-63
-66
-66
-58
-60
-61
-61
-60
-64
-58
-56
-55
-58
-51
-51
-55
-58
-57
-62
-58
-59
-59
-56
-50
-53
-53
-54
-54
-59
-55
-54
-62
-57
-51
-54
-56
-53
-58
-60
-56
-55
-55
-56
-52
-54
-51
-50
-52
-58
-56
-57
-57
-49
-41
-44
-49
-46
-50
-52
-49
-45
-46
-41
-42
-43
-46
-42
-47
-49
-45
-41
-46
-36
-31
-34
-35
-34
-36
-36
-34
-34
-34
-28
-26
-28
-27
-26
-30
-32
-31
-27
-30
-26
-26
-29
-31
-29
-34
-34
-34
-35
-37
-28
-27
-36
-35
-33
-38
-40
-42
-43
-47
-44
-45
-45
-45
-49
-56
-54
-52
-53
-53
-49
-53
-56
-56
-54
-59
-60
-58
-57
-56
-49
-54
-58
-58
-62
-62
-55
-60
-60
-60
-52
-56
-62
-63
-58
-61
-60
-56
-63
-58
-52
-54
-59
-60
-57
-61
-58
-60
-59
-58
-51
-54
-54
-53
-58
-62
-60
-59
-62
-55
-50
-54
-55
-57
-57
-59
-55
-54
-56
-53
-48
-52
-55
-57
-55
-56
-58
-55
-50
-48
-46
-48
-49
-51
-55
-57
-57
-58
-57
-48
-45
-50
-51
-52
-54
-56
-54
-53
-58
-51
-48
-46
-50
-52
-58
-61
-59
-56
-57
-50
-48
-52
-53
-53
-57
-56
-54
-55
-56
-53
-56
-52
-48
-50
-55
-57
-59
-57
-58
-51
-50
-47
-46
-47
-55
-58
-52
-52
-53
-45
-48
-50
-51
-48
-51
-45
-45
-45
-42
-36
-35
-37
-41
-37
-38
-37
-32
-33
-36
-31
-34
-37
-36
-41
-44
-43
-46
-48
-51
-47
-50
-57
-58
-57
-55
-55
-55
-54
-55
-50
-54
-62
-59
-52
-57
-56
-57
-60
-61
-54
-55
-55
-55
-55
-60
-58
-55
-61
-62
-52
-55
-54
-56
-56
-60
-53
-54
-57
-52
-47
-52
-55
-58
-60
-67
-62
-62
-60
-54
-44
-44
-30
-19
-1
17
34
48
57
66
76
76
73
53
35
21
7
-17
-44
-55
-55
-60
-68
-66
-67
-67
-57
-52
-56
-52
-48
-50
-54
-53
-57
-58
-54
-51
-55
-52
-50
-50
-49
-47
-54
-54
-53
-54
-57
-51
-50
-47
-49
-47
-54
-54
-55
-54
-54
-47
-46
-51
-49
-48
-52
-50
-48
-51
-53
-46
-45
-45
-48
-48
-55
-53
-48
-43
-45
-42
-43
-47
-44
-44
-49
-49
-47
-47
-47
-44
-44
-44
-43
-41
-47
-41
-41
-42
-43
-38
-38
-41
-42
-37
-38
-37
-35
-33
-31
-28
-31
-34
-33
-31
-35
-33
-30
-29
-28
-22
-22
-21
-23
-21
-24
-21
-20
-21
-23
-19
-21
-15
-17
-20
-22
-18
-17
-23
-22
-20
-23
-27
-29
-31
-31
-29
-31
-38
-34
-31
-33
-38
-42
-40
-46
-45
-47
-46
-46
-45
-46
-47
-46
-51
-57
-50
-49
-50
-47
-47
-50
-52
-52
-57
-59
-56
-57
-58
-51
-52
-55
-53
-55
-57
-56
-57
-58
-63
-55
-52
-55
-53
-52
-59
-62
-59
-59
-58
-51
-49
-52
-50
-52
-60
-60
-57
-53
-52
-46
-47
-48
-49
-47
-52
-52
-52
-51
-53
-47
-47
-51
-47
-43
-48
-47
-49
-50
-50
-44
-48
-47
-48
-48
-55
-54
-50
-51
-55
-39
-41
-47
-49
-48
-50
-49
-49
-52
-52
-47
-50
-51
-52
-48
-52
-48
-48
-50
-52
-46
-45
-48
-54
-51
-56
-53
-55
-55
-55
-50
-46
-46
-52
-51
-56
-51
-49
-52
-55
-48
-50
-48
-49
-52
-59
-53
-47
-57
-52
-45
-51
-52
-53
-51
-57
-54
-53
-57
-55
-42
-45
-46
-46
-48
-52
-47
-49
-52
-49
-41
-45
-44
-44
-44
-46
-39
-37
-40
-38
-33
-35
-33
-31
-37
-41
-37
-35
-39
-33
-31
-34
-35
-34
-39
-44
-42
-42
-49
-44
-47
-57
-55
-50
-57
-57
-51
-50
-55
-49
-53
-56
-53
-53
-59
-58
-58
-55
-53
-47
-45
-54
-56
-53
-59
-58
-52
-55
-61
-54
-52
-57
-57
-56
-60
-55
-51
-52
-54
-51
-47
-48
-53
-54
-62
-60
-56
-50
-47
-29
-14
-3
12
31
44
60
69
75
78
84
68
52
38
24
0
-32
-47
-53
-57
-51
-57
-53
-51
-49
-56
-53
-55
-54
-53
-44
-48
-48
-48
-53
-60
-57
-53
-50
-54
-49
-54
-53
-53
-48
-53
-51
-50
-49
-47
-44
-50
-50
-52
-54
-53
-47
-50
-50
-46
-43
-47
-47
-47
-49
-54
-49
-46
-46
-43
-39
-47
-48
-46
-50
-54
-46
-48
-49
-42
-39
-42
-44
-43
-46
-50
-48
-46
-47
-42
-39
-43
-41
-40
-45
-45
-41
-42
-42
-35
-33
-35
-38
-34
-37
-40
-34
-34
-40
-31
-24
-26
-30
-29
-32
-36
-31
-29
-27
-23
-21
-20
-20
-17
-19
-21
-19
-20
-22
-19
-18
-19
-20
-18
-26
-26
-24
-23
-26
-19
-21
-23
-24
-25
-29
-34
-33
-34
-36
-30
-30
-35
-37
-36
-41
-46
-48
-47
-48
-41
-43
-45
-48
-47
-52
-49
-50
-49
-47
-41
-46
-48
-52
-49
-54
-50
-50
-52
-54
-47
-52
-58
-58
-51
-57
-54
-53
-55
-51
-46
-49
-48
-52
-49
-53
-46
-48
-53
-56
-51
-53
-55
-54
-53
-54
-52
-51
-56
-53
-45
-46
-51
-49
-49
-55
-52
-48
-53
-48
-43
-46
-49
-49
-51
-56
-51
-49
-52
-47
-41
-42
-46
-48
-48
-52
-49
-51
-51
-44
-39
-44
-46
-44
-50
-51
-45
-45
-47
-43
-40
-45
-49
-46
-52
-52
-51
-47
-51
-43
-42
-45
-48
-47
-54
-56
-51
-47
-49
-43
-46
-52
-51
-49
-52
-50
-48
-48
-52
-45
-47
-48
-47
-45
-51
-51
-51
-49
-53
-45
-47
-48
-54
-53
-55
-53
-51
-57
-52
-38
-41
-47
-47
-45
-54
-52
-51
-52
-53
-45
-45
-47
-48
-45
-50
-49
-48
-48
-51
-44
-42
-45
-45
-40
-47
-44
-43
-42
-41
-34
-41
-42
-38
-33
-39
-40
-34
-34
-33
-27
-25
-27
-28
-30
-39
-40
-37
-35
-32
-27
-36
-41
-41
-39
-45
-47
-52
-51
-46
-44
-46
-46
-48
-53
-55
-54
-51
-51
-47
-43
-48
-51
-50
-55
-58
-54
-53
-55
-54
-48
-48
-48
-47
-51
-53
-56
-51
-57
-51
-45
-51
-50
-46
-53
-55
-50
-49
-55
-54
-56
-54
-51
-46
-45
-42
-29
-15
-4
22
40
53
67
77
80
89
89
77
58
49
34
14
-16
-32
-49
-49
-50
-49
-52
-44
-42
-48
-51
-50
-56
-53
-56
-57
-55
-44
-45
-51
-53
-46
-53
-51
-46
-51
-52
-46
-52
-51
-52
-51
-53
-51
-46
-47
-50
-45
-47
-46
-47
-47
-51
-51
-49
-50
-51
-47
-44
-43
-46
-46
-51
-45
-47
-46
-47
-42
-44
-45
-44
-43
-49
-47
-46
-47
-44
-38
-42
-44
-44
-41
-45
-43
-42
-44
-42
-36
-40
-40
-43
-41
-44
-38
-39
-40
-38
-34
-36
-37
-38
-36
-37
-31
-30
-33
-26
-19
-22
-24
-25
-23
-28
-26
-27
-28
-24
-18
-20
-21
-19
-22
-21
-18
-17
-18
-16
-13
-17
-21
-21
-23
-26
-24
-22
-24
-22
-19
-21
-25
-24
-31
-34
-33
-33
-35
-31
-30
-34
-38
-39
-42
-38
-40
-37
-43
-43
-36
-41
-44
-42
-48
-44
-44
-45
-49
-42
-39
-43
-42
-42
-49
-48
-48
-45
-48
-42
-42
-44
-46
-46
-50
-52
-47
-50
-52
-42
-40
-41
-43
-41
-51
-53
-53
-51
-44
-42
-43
-46
-51
-46
-50
-49
-48
-48
-45
-41
-42
-44
-50
-45
-52
-48
-48
-48
-46
-40
-41
-44
-43
-43
-50
-47
-43
-43
-44
-40
-41
-44
-43
-41
-43
-40
-44
-47
-43
-36
-43
-40
-41
-41
-43
-42
-43
-44
-43
-38
-39
-39
-44
-47
-51
-43
-41
-44
-39
-38
-44
-39
-39
-43
-44
-44
-41
-42
-38
-33
-39
-38
-40
-42
-47
-43
-43
-49
-43
-38
-40
-38
-37
-42
-44
-43
-43
-43
-38
-37
-41
-42
-40
-43
-44
-39
-40
-42
-39
-40
-41
-43
-38
-41
-43
-47
-47
-44
-40
-37
-39
-39
-37
-41
-42
-36
-37
-40
-32
-33
-35
-36
-37
-39
-39
-34
-31
-32
-25
-24
-26
-27
-22
-24
-22
-22
-22
-24
-18
-19
-21
-28
-29
-31
-29
-29
-30
-32
-28
-28
-33
-39
-41
-46
-45
-47
-44
-43
-36
-37
-39
-45
-47
-47
-43
-42
-43
-48
-42
-44
-44
-43
-45
-50
-43
-43
-43
-41
-40
-43
-48
-48
-46
-49
-45
-43
-47
-45
-40
-42
-42
-44
-44
-48
-46
-50
-49
-42
-35
-33
-29
-15
-2
13
33
49
65
82
95
101
104
97
78
58
44
29
4
-24
-32
-39
-41
-46
-48
-51
-47
-42
-43
-40
-38
-41
-42
-44
-47
-51
-51
-48
-47
-39
-36
-43
-46
-42
-46
-47
-44
-44
-47
-39
-36
-38
-40
-40
-47
-46
-41
-42
-48
-41
-40
-37
-37
-40
-46
-45
-41
-38
-42
-35
-36
-42
-42
-37
-39
-42
-42
-36
-38
-32
-33
-37
-42
-41
-42
-41
-39
-37
-38
-32
-32
-31
-39
-41
-41
-33
-34
-34
-36
-29
-31
-31
-33
-29
-34
-30
-30
-29
-32
-25
-24
-23
-25
-22
-28
-25
-22
-21
-20
-14
-16
-15
-15
-13
-16
-13
-15
-15
-14
-8
-13
-13
-14
-11
-18
-15
-14
-17
-18
-14
-12
-11
-11
-15
-20
-19
-18
-20
-18
-15
-22
-25
-26
-27
-32
-31
-30
-34
-35
-29
-32
-35
-36
-41
-47
-43
-41
-46
-42
-37
-39
-38
-37
-41
-47
-42
-45
-48
-38
-35
-43
-47
-41
-43
-43
-48
-49
-48
-46
-51
-41
-38
-43
-46
-42
-47
-48
-46
-47
-46
-38
-37
-41
-45
-40
-44
-42
-41
-40
-46
-42
-41
-45
-43
-41
-45
-45
-45
-46
-47
-37
-39
-40
-40
-39
-41
-41
-41
-45
-42
-36
-37
-39
-41
-38
-46
-43
-41
-45
-43
-38
-38
-38
-38
-37
-47
-45
-42
-41
-40
-37
-42
-42
-40
-40
-45
-43
-43
-44
-42
-38
-39
-40
-42
-41
-42
-42
-44
-44
-43
-37
-42
-46
-48
-45
-47
-43
-45
-51
-48
-33
-36
-39
-41
-45
-52
-45
-42
-45
-42
-38
-43
-43
-42
-45
-48
-41
-45
-49
-42
-39
-40
-41
-37
-43
-47
-41
-40
-43
-37
-34
-37
-37
-34
-37
-36
-30
-26
-26
-22
-20
-24
-27
-24
-25
-27
-26
-25
-30
-26
-27
-30
-31
-29
-31
-34
-33
-33
-38
-35
-34
-43
-47
-46
-48
-48
-47
-47
-47
-40
-42
-42
-45
-43
-48
-49
-49
-48
-51
-45
-45
-48
-47
-46
-49
-48
-45
-44
-49
-43
-43
-43
-42
-42
-50
-50
-48
-49
-52
-41
-42
-48
-51
-47
-50
-47
-41
-36
-33
-19
-5
7
27
47
58
74
85
90
99
103
86
68
48
30
9
-14
-33
-45
-47
-44
-46
-45
-45
-42
-48
-47
-45
-49
-48
-41
-45
-43
-45
-47
-50
-49
-49
-47
-46
-39
-45
-44
-40
-38
-46
-42
-40
-44
-39
-32
-36
-42
-44
-46
-49
-42
-43
-46
-41
-36
-38
-38
-35
-42
-47
-44
-37
-41
-39
-34
-38
-39
-37
-40
-44
-36
-36
-40
-38
-34
-37
-37
-37
-40
-42
-39
-37
-37
-33
-32
-33
-32
-30
-34
-34
-35
-31
-36
-30
-28
-27
-28
-27
-30
-30
-28
-30
-30
-21
-19
-25
-22
-17
-22
-22
-20
-15
-17
-11
-10
-14
-18
-14
-17
-13
-12
-11
-12
-5
-6
-11
-12
-11
-15
-13
-10
-13
-14
-8
-10
-12
-15
-11
-21
-20
-21
-26
-28
-19
-21
-24
-26
-31
-38
-36
-36
-35
-35
-27
-32
-33
-38
-35
-42
-42
-39
-37
-39
-35
-36
-38
-39
-37
-39
-40
-44
-43
-41
-36
-39
-40
-44
-41
-47
-44
-44
-45
-41
-38
-44
-40
-38
-39
-44
-40
-42
-47
-47
-37
-38
-38
-38
-39
-47
-45
-44
-46
-39
-33
-40
-42
-39
-40
-46
-43
-43
-45
-41
-35
-39
-38
-37
-40
-44
-40
-41
-43
-36
-30
-34
-35
-35
-42
-44
-42
-40
-39
-33
-33
-36
-39
-38
-34
-37
-35
-32
-35
-33
-33
-35
-38
-36
-39
-42
-43
-44
-43
-32
-29
-34
-34
-31
-36
-35
-38
-39
-44
-37
-35
-36
-36
-37
-42
-42
-41
-41
-43
-35
-35
-39
-38
-38
-45
-40
-37
-37
-39
-35
-35
-38
-40
-36
-36
-36
-34
-39
-38
-33
-34
-36
-40
-39
-44
-43
-43
-44
-46
-37
-35
-33
-38
-39
-45
-38
-37
-35
-38
-32
-35
-35
-34
-30
-34
-35
-36
-36
-32
-25
-26
-25
-23
-20
-27
-20
-20
-19
-14
-11
-15
-18
-23
-20
-26
-28
-29
-29
-24
-16
-22
-25
-31
-37
-43
-38
-39
-43
-38
-34
-37
-41
-42
-38
-40
-38
-40
-43
-40
-35
-40
-35
-33
-39
-42
-39
-40
-42
-36
-33
-37
-37
-39
-42
-42
-39
-36
-39
-31
-31
-36
-36
-37
-42
-43
-42
-42
-46
-39
-35
-41
-37
-29
-26
-11
3
22
40
65
82
92
97
103
106
97
81
64
43
35
13
-19
-28
-40
-46
-47
-47
-40
-39
-33
-33
-35
-42
-38
-40
-39
-41
-42
-42
-34
-33
-35
-36
-37
-43
-40
-39
-40
-41
-34
-35
-36
-35
-33
-41
-41
-43
-39
-41
-36
-31
-30
-34
-32
-38
-35
-35
-37
-38
-31
-34
-35
-39
-35
-37
-41
-35
-31
-31
-29
-30
-31
-36
-36
-42
-34
-31
-30
-34
-30
-29
-32
-32
-27
-35
-34
-33
-34
-27
-21
-24
-25
-29
-30
-32
-28
-28
-29
-24
-21
-24
-23
-22
-18
-23
-19
-21
-19
-15
-12
-12
-10
-9
-10
-13
-13
-13
-12
-5
-4
-10
-12
-6
-11
-12
-7
-8
-13
-8
-4
-6
-6
-6
-13
-15
-13
-12
-13
-7
-12
-14
-16
-17
-27
-28
-26
-27
-33
-24
-20
-25
-29
-33
-37
-36
-39
-37
-37
-29
-29
-34
-37
-42
-44
-45
-41
-41
-43
-34
-41
-45
-46
-39
-41
-44
-48
-42
-43
-40
-38
-40
-41
-42
-46
-44
-43
-44
-44
-40
-44
-45
-48
-41
-45
-42
-41
-42
-43
-38
-42
-42
-46
-44
-49
-44
-40
-37
-37
-37
-42
-43
-44
-40
-43
-42
-42
-41
-39
-34
-37
-40
-42
-40
-44
-35
-35
-35
-36
-29
-37
-41
-42
-41
-42
-39
-39
-38
-36
-33
-37
-38
-37
-35
-39
-36
-34
-39
-35
-31
-35
-37
-35
-40
-45
-40
-41
-41
-36
-30
-34
-35
-36
-42
-41
-36
-35
-44
-44
-33
-36
-38
-36
-41
-44
-40
-40
-41
-36
-32
-32
-35
-34
-42
-44
-41
-39
-41
-33
-33
-38
-42
-40
-44
-44
-40
-39
-42
-34
-31
-36
-38
-36
-40
-42
-38
-36
-40
-33
-33
-32
-35
-32
-40
-36
-38
-35
-31
-22
-23
-22
-22
-19
-24
-24
-25
-23
-21
-16
-21
-25
-28
-24
-24
-22
-22
-25
-24
-22
-26
-31
-41
-39
-42
-44
-42
-44
-47
-37
-39
-36
-40
-40
-43
-41
-41
-43
-40
-36
-39
-42
-45
-43
-48
-44
-41
-47
-45
-38
-40
-39
-41
-41
-43
-42
-43
-42
-42
-39
-41
-39
-39
-42
-47
-42
-49
-45
-42
-31
-28
-25
-18
-5
6
27
46
60
75
86
89
95
91
73
52
43
29
8
-18
-30
-38
-39
-49
-54
-54
-46
-43
-42
-36
-33
-35
-38
-37
-43
-45
-41
-37
-37
-37
-33
-39
-38
-37
-42
-46
-41
-39
-39
-29
-30
-36
-37
-32
-39
-41
-35
-34
-38
-31
-29
-32
-34
-32
-34
-35
-32
-34
-36
-31
-30
-31
-35
-31
-36
-35
-32
-33
-35
-27
-26
-31
-31
-28
-35
-31
-32
-36
-33
-26
-24
-25
-28
-25
-32
-29
-29
-28
-28
-25
-23
-19
-25
-21
-24
-22
-22
-27
-22
-15
-16
-17
-19
-13
-17
-17
-14
-12
-12
-7
-5
-6
-7
-6
-11
-4
-8
-7
-4
-1
-1
1
-5
-5
-9
-6
-7
-9
-6
1
-2
-5
-6
-6
-14
-10
-12
-17
-17
-6
-15
-20
-22
-23
-26
-23
-26
-27
-25
-23
-29
-39
-37
-33
-36
-32
-30
-36
-35
-29
-34
-35
-35
-39
-42
-40
-40
-43
-39
-32
-37
-41
-39
-43
-47
-41
-38
-42
-40
-38
-42
-39
-37
-43
-43
-39
-43
-45
-39
-35
-39
-39
-41
-45
-45
-38
-37
-40
-34
-35
-39
-36
-34
-38
-41
-41
-41
-39
-34
-36
-37
-31
-29
-37
-38
-36
-36
-41
-31
-31
-34
-37
-36
-39
-36
-35
-35
-39
-36
-27
-26
-30
-29
-38
-38
-35
-36
-37
-32
-34
-35
-34
-32
-37
-35
-36
-39
-42
-31
-30
-35
-40
-37
-40
-34
-34
-34
-38
-34
-36
-36
-37
-38
-42
-38
-37
-42
-41
-28
-32
-34
-39
-37
-42
-39
-38
-38
-41
-35
-35
-33
-36
-38
-42
-41
-38
-41
-44
-28
-29
-35
-37
-38
-43
-38
-39
-40
-38
-30
-33
-33
-36
-34
-36
-33
-33
-39
-35
-24
-29
-29
-27
-24
-26
-20
-21
-23
-17
-12
-15
-16
-20
-23
-26
-22
-23
-26
-21
-18
-22
-24
-22
-27
-37
-38
-40
-46
-35
-31
-34
-37
-35
-41
-44
-43
-41
-43
-39
-34
-40
-40
-38
-41
-42
-40
-40
-43
-37
-34
-38
-41
-36
-41
-42
-42
-43
-46
-37
-37
-41
-37
-33
-39
-39
-41
-38
-40
-38
-35
-39
-44
-38
-37
-31
-19
-3
10
34
51
68
78
84
88
98
102
85
64
55
41
16
-12
-27
-36
-39
-42
-45
-42
-28
-29
-32
-38
-39
-45
-41
-38
-39
-38
-32
-32
-35
-38
-38
-42
-39
-40
-37
-38
-33
-33
-32
-37
-34
-37
-37
-34
-35
-36
-28
-34
-34
-35
-35
-34
-28
-31
-33
-34
-27
-34
-34
-32
-34
-40
-35
-35
-37
-29
-22
-28
-28
-31
-33
-33
-30
-26
-32
-30
-27
-25
-27
-26
-31
-35
-29
-28
-30
-26
-19
-26
-26
-24
-25
-29
-24
-20
-25
-20
-13
-18
-19
-18
-22
-24
-16
-15
-15
-11
-9
-10
-10
-7
-10
-13
-8
-8
-10
-2
1
-3
-1
-2
-6
-6
-5
-5
-5
-2
0
-1
0
-2
-8
-9
-7
-6
-8
-3
-4
-8
-13
-14
-18
-16
-16
-18
-22
-18
-13
-18
-27
-23
-27
-27
-24
-26
-32
-28
-29
-32
-32
-30
-36
-34
-33
-34
-34
-27
-27
-33
-33
-27
-35
-36
-35
-35
-36
-29
-29
-33
-34
-32
-37
-35
-32
-35
-35
-31
-35
-35
-33
-33
-38
-34
-33
-36
-35
-27
-32
-35
-31
-33
-36
-29
-32
-36
-32
-28
-29
-29
-33
-31
-34
-33
-33
-33
-28
-24
-25
-26
-27
-32
-35
-29
-27
-31
-28
-22
-24
-24
-27
-29
-32
-27
-23
-29
-24
-19
-23
-27
-29
-29
-32
-31
-32
-34
-24
-20
-26
-29
-27
-27
-28
-28
-29
-30
-21
-16
-22
-27
-25
-31
-29
-26
-26
-31
-27
-26
-27
-28
-27
-31
-29
-29
-27
-28
-21
-23
-27
-28
-27
-33
-30
-25
-26
-31
-25
-26
-28
-29
-25
-32
-29
-23
-26
-29
-26
-28
-28
-29
-27
-31
-27
-28
-31
-31
-22
-24
-26
-27
-26
-31
-34
-30
-28
-28
-21
-23
-26
-28
-24
-28
-26
-22
-24
-24
-18
-19
-20
-19
-14
-17
-14
-9
-9
-10
-5
-9
-6
-10
-10
-16
-14
-16
-16
-15
-9
-14
-15
-17
-12
-17
-16
-23
-32
-32
-27
-31
-26
-27
-29
-37
-34
-30
-33
-30
-22
-25
-31
-33
-32
-34
-28
-33
-38
-36
-22
-22
-29
-30
-33
-36
-30
-32
-34
-28
-23
-27
-30
-30
-33
-33
-28
-29
-33
-30
-28
-34
-33
-30
-29
-29
-23
-6
7
28
47
63
78
92
96
101
114
114
100
89
75
53
36
8
-20
-31
-26
-27
-32
-23
-20
-19
-28
-29
-36
-33
-31
-27
-30
-24
-24
-28
-28
-24
-28
-27
-26
-27
-33
-24
-23
-24
-25
-25
-31
-33
-34
-26
-27
-21
-23
-26
-25
-22
-28
-25
-25
-25
-27
-19
-22
-23
-25
-24
-26
-26
-22
-20
-20
-15
-19
-24
-25
-20
-26
-25
-26
-26
-23
-16
-18
-20
-24
-23
-24
-20
-20
-19
-15
-12
-18
-19
-20
-19
-22
-17
-16
-17
-15
-12
-12
-9
-11
-12
-14
-11
-8
-7
-7
-4
-6
-3
-6
-7
-6
2
4
2
2
9
6
3
2
3
1
4
7
5
8
10
5
5
4
9
1
3
1
-2
3
3
3
1
0
-3
-9
-8
-7
-8
-6
-7
-11
-15
-16
-15
-19
-18
-21
-22
-18
-20
-22
-22
-20
-27
-28
-20
-19
-28
-22
-21
-23
-25
-23
-28
-29
-23
-23
-29
-25
-24
-23
-23
-20
-28
-27
-24
-25
-28
-25
-23
-27
-30
-26
-32
-32
-28
-25
-27
-21
-22
-25
-28
-28
-30
-28
-27
-29
-30
-25
-21
-24
-26
-25
-28
-26
-27
-26
-26
-21
-20
-22
-25
-25
-34
-30
-26
-27
-26
-19
-23
-24
-28
-26
-28
-25
-23
-25
-22
-17
-18
-21
-24
-23
-29
-27
-25
-25
-28
-21
-23
-22
-24
-24
-26
-23
-23
-20
-22
-17
-20
-19
-19
-19
-25
-27
-27
-27
-25
-22
-25
-24
-21
-23
-29
-23
-23
-25
-23
-18
-23
-23
-23
-25
-29
-28
-25
-25
-23
-22
-26
-23
-24
-22
-25
-26
-26
-26
-25
-22
-26
-26
-19
-25
-28
-26
-25
-28
-20
-21
-24
-24
-24
-26
-27
-25
-23
-28
-22
-19
-21
-23
-23
-28
-30
-25
-24
-23
-17
-16
-20
-17
-15
-22
-23
-20
-15
-16
-11
-10
-8
-7
-5
-8
-10
-5
-6
-8
-1
-3
-9
-9
-7
-14
-15
-15
-15
-12
-5
-4
-10
-20
-23
-30
-29
-27
-27
-29
-24
-24
-28
-26
-22
-25
-25
-29
-31
-29
-22
-23
-25
-27
-26
-28
-26
-28
-31
-34
-24
-27
-24
-26
-24
-29
-30
-29
-30
-28
-20
-25
-28
-30
-25
-32
-31
-29
-31
-30
-24
-22
-20
-15
3
14
32
50
66
87
108
111
118
124
118
96
82
64
43
27
5
-12
-22
-25
-29
-31
-23
-21
-25
-24
-25
-28
-27
-26
-29
-31
-26
-25
-27
-23
-18
-21
-22
-23
-29
-35
-27
-26
-26
-21
-20
-23
-22
-22
-30
-27
-20
-18
-21
-18
-20
-23
-24
-20
-28
-26
-23
-22
-27
-21
-15
-19
-17
-19
-24
-25
-24
-21
-25
-18
-16
-18
-18
-21
-24
-18
-16
-18
-18
-14
-11
-14
-18
-18
-24
-21
-16
-16
-20
-11
-12
-14
-17
-14
-17
-15
-13
-12
-12
-5
-7
-5
-5
-3
-8
-4
-2
-4
-1
1
1
0
0
5
3
4
6
5
6
14
8
7
6
9
7
8
8
9
6
11
13
13
5
6
-1
4
5
0
1
4
-3
-6
-7
-6
-12
-7
-11
-12
-12
-6
-13
-16
-17
-13
-18
-21
-23
-26
-21
-16
-18
-18
-19
-25
-34
-28
-25
-27
-21
-17
-21
-19
-21
-24
-29
-29
-24
-25
-22
-20
-21
-22
-23
-29
-34
-29
-26
-27
-24
-21
-23
-22
-20
-27
-30
-28
-25
-29
-22
-21
-25
-24
-26
-29
-29
-25
-24
-28
-23
-20
-26
-27
-26
-24
-25
-24
-24
-28
-21
-20
-24
-25
-23
-30
-29
-25
-23
-27
-18
-18
-21
-21
-19
-23
-22
-21
-21
-24
-18
-20
-23
-24
-21
-25
-23
-24
-24
-24
-18
-19
-20
-22
-19
-24
-21
-20
-22
-24
-17
-17
-20
-22
-20
-26
-26
-24
-25
-26
-20
-19
-21
-23
-17
-23
-24
-23
-26
-24
-17
-20
-23
-23
-23
-26
-24
-23
-29
-27
-17
-22
-25
-21
-21
-25
-23
-24
-26
-23
-15
-21
-24
-25
-22
-27
-21
-18
-23
-18
-16
-25
-24
-25
-23
-28
-25
-24
-26
-21
-17
-20
-23
-22
-22
-27
-21
-22
-27
-24
-13
-15
-19
-18
-21
-22
-17
-19
-23
-18
-10
-13
-12
-11
-11
-9
-3
-5
-9
-2
3
-2
-1
0
-7
-9
-4
-10
-15
-6
-6
-10
-9
-6
-12
-13
-16
-21
-25
-18
-18
-23
-22
-20
-23
-21
-23
-27
-28
-24
-25
-23
-25
-25
-31
-27
-25
-25
-29
-23
-21
-23
-26
-24
-28
-25
-25
-25
-26
-21
-22
-24
-25
-32
-36
-18
-21
-25
-23
-19
-19
-24
-29
-28
-25
-18
-15
-8
6
31
50
61
77
94
103
114
122
121
105
92
76
57
38
9
-15
-19
-23
-26
-26
-17
-18
-19
-21
-23
-29
-26
-25
-26
-24
-16
-20
-19
-22
-23
-25
-21
-22
-20
-19
-22
-27
-24
-22
-24
-25
-23
-22
-23
-18
-15
-16
-17
-16
-17
-24
-21
-19
-20
-16
-12
-18
-19
-20
-20
-25
-23
-18
-20
-16
-13
-16
-17
-16
-19
-20
-17
-16
-19
-13
-12
-15
-14
-14
-17
-19
-14
-14
-16
-14
-15
-16
-11
-7
-9
-9
-9
-16
-16
-8
-7
-7
-8
0
-5
-7
-6
-4
-5
4
5
3
-1
4
1
-1
2
5
1
8
15
12
13
14
8
6
11
14
12
17
15
10
6
9
7
8
9
13
5
9
12
7
6
7
0
3
-2
-4
-6
-1
-3
-5
-10
-9
-12
-9
-13
-13
-15
-9
-10
-14
-15
-16
-25
-18
-18
-19
-18
-9
-13
-15
-18
-18
-21
-18
-19
-19
-21
-14
-18
-18
-20
-19
-23
-24
-23
-26
-20
-12
-16
-20
-20
-20
-27
-22
-23
-22
-19
-17
-18
-17
-18
-22
-23
-23
-23
-23
-21
-16
-20
-19
-19
-21
-23
-16
-18
-21
-15
-16
-19
-19
-17
-20
-18
-13
-11
-14
-9
-10
-15
-17
-15
-21
-23
-21
-20
-17
-7
-6
-12
-17
-12
-18
-20
-18
-17
-16
-13
-9
-13
-16
-15
-17
-15
-13
-10
-17
-11
-7
-17
-17
-14
-21
-17
-16
-21
-20
-11
-10
-13
-15
-15
-21
-21
-18
-18
-20
-10
-9
-13
-18
-13
-19
-17
-17
-18
-18
-12
-12
-16
-14
-17
-21
-21
-20
-17
-15
-8
-13
-17
-17
-12
-17
-22
-23
-20
-18
-13
-14
-15
-18
-15
-15
-15
-16
-17
-16
-10
-10
-15
-19
-18
-17
-12
-8
-9
-10
-6
-9
-11
-11
-7
-9
-1
-1
2
3
9
5
6
3
2
-2
-2
-4
-7
3
6
-2
-4
-2
-4
-10
-10
-15
-19
-17
-11
-15
-16
-15
-17
-23
-21
-17
-19
-15
-15
-22
-20
-20
-27
-29
-24
-20
-21
-15
-13
-18
-18
-16
-20
-25
-23
-23
-20
-14
-13
-15
-20
-18
-19
-21
-18
-14
-18
-13
-11
-22
-25
-22
-22
-21
-14
-7
-4
15
31
44
62
76
85
93
102
107
106
99
82
67
53
37
3
-20
-22
-24
-32
-27
-27
-24
-20
-18
-20
-16
-16
-18
-20
-13
-12
-14
-18
-19
-20
-17
-17
-17
-19
-12
-17
-17
-18
-18
-24
-17
-15
-15
-13
-10
-13
-16
-14
-13
-18
-11
-15
-17
-17
-10
-12
-11
-14
-12
-16
-11
-12
-14
-18
-11
-13
-12
-12
-11
-15
-12
-13
-13
-11
-8
-10
-9
-7
-7
-12
-12
-8
-10
-8
0
-5
-4
-7
-9
-13
-10
-9
-11
-2
2
-4
2
2
-3
-5
-1
0
2
7
10
7
7
6
2
6
14
13
11
14
15
15
14
16
12
12
16
16
12
17
18
19
19
20
14
13
17
15
9
16
19
11
8
8
5
6
5
4
-3
0
1
-5
-3
0
-6
-8
-9
-12
-16
-10
-7
-12
-11
-9
-20
-21
-20
-18
-19
-12
-13
-16
-20
-19
-26
-24
-20
-19
-20
-13
-17
-17
-22
-22
-26
-24
-26
-23
-26
-21
-16
-15
-19
-22
-29
-23
-20
-23
-26
-16
-19
-21
-22
-20
-25
-22
-21
-21
-21
-15
-15
-18
-20
-16
-20
-15
-16
-18
-18
-13
-19
-19
-15
-10
-20
-16
-16
-18
-15
-10
-13
-13
-12
-12
-15
-13
-19
-20
-15
-10
-14
-15
-14
-14
-22
-16
-14
-15
-12
-12
-15
-14
-13
-19
-21
-17
-18
-20
-14
-13
-19
-19
-15
-15
-20
-13
-15
-21
-21
-17
-14
-16
-18
-22
-20
-16
-14
-20
-17
-13
-13
-14
-15
-21
-22
-21
-21
-22
-17
-16
-21
-18
-19
-19
-22
-21
-18
-19
-11
-9
-14
-17
-15
-22
-22
-22
-17
-21
-14
-14
-19
-19
-17
-19
-19
-21
-21
-22
-15
-11
-14
-13
-12
-19
-19
-14
-17
-19
-12
-7
-8
-9
-5
-3
-2
-1
0
-1
5
5
6
3
3
-6
-6
-7
-4
-6
4
2
-2
-7
-8
-12
-10
-17
-22
-21
-16
-18
-20
-20
-19
-24
-21
-19
-22
-22
-13
-16
-19
-21
-19
-24
-22
-22
-23
-22
-16
-20
-20
-21
-21
-26
-22
-21
-22
-22
-14
-19
-18
-16
-15
-23
-20
-18
-21
-22
-16
-19
-20
-21
-21
-25
-21
-9
5
20
41
53
67
87
94
99
109
116
110
99
88
72
57
40
9
-12
-15
-21
-27
-23
-22
-20
-17
-12
-18
-19
-19
-21
-19
-12
-13
-17
-19
-20
-24
-25
-22
-20
-22
-18
-15
-17
-17
-15
-20
-20
-18
-16
-20
-12
-9
-12
-12
-13
-18
-20
-21
-18
-16
-14
-13
-12
-12
-11
-15
-12
-12
-17
-18
-10
-10
-11
-12
-10
-19
-17
-12
-12
-13
-11
-13
-11
-11
-9
-14
-11
-11
-13
-11
-5
-8
-8
-12
-11
-11
-9
-8
-7
-9
-1
1
-2
-3
0
-7
-5
-4
-3
1
6
4
6
3
4
3
7
8
10
11
17
13
12
12
12
9
13
11
10
14
21
16
16
15
16
12
12
9
9
9
14
10
12
6
3
-2
0
-1
-6
0
4
-6
-6
-1
-3
-9
-8
-10
-16
-12
-8
-13
-17
-12
-16
-18
-17
-17
-20
-15
-12
-17
-14
-16
-22
-25
-19
-18
-23
-18
-11
-17
-21
-19
-23
-23
-21
-21
-24
-19
-17
-17
-20
-17
-21
-20
-19
-19
-23
-16
-19
-22
-20
-17
-21
-25
-22
-21
-25
-16
-16
-17
-21
-22
-25
-22
-20
-21
-22
-14
-14
-17
-16
-15
-22
-22
-22
-20
-19
-12
-13
-16
-19
-17
-24
-19
-13
-18
-20
-12
-15
-15
-18
-16
-16
-16
-16
-17
-17
-8
-10
-13
-17
-15
-19
-16
-22
-22
-19
-11
-14
-15
-17
-16
-19
-15
-17
-21
-23
-13
-11
-13
-17
-17
-21
-18
-18
-19
-19
-12
-16
-17
-18
-19
-22
-18
-18
-17
-17
-15
-18
-17
-16
-17
-21
-17
-22
-21
-18
-17
-17
-18
-20
-20
-23
-18
-12
-19
-22
-17
-16
-17
-15
-18
-22
-19
-21
-21
-16
-13
-17
-19
-18
-18
-23
-20
-18
-20
-16
-12
-15
-18
-15
-16
-19
-17
-16
-19
-12
-10
-16
-17
-13
-17
-17
-14
-16
-17
-6
-4
-3
-3
-1
-4
0
0
-2
-2
2
4
1
2
1
-7
-9
-7
-8
-8
3
1
-3
-6
-3
-12
-18
-19
-22
-24
-19
-17
-19
-21
-22
-22
-22
-23
-21
-22
-18
-20
-20
-19
-18
-22
-21
-22
-21
-21
-16
-17
-19
-21
-18
-26
-23
-21
-21
-22
-16
-17
-19
-18
-19
-26
-21
-19
-21
-26
-21
-21
-19
-17
-8
-8
6
19
32
50
71
85
104
110
118
124
123
108
89
75
65
43
14
-6
-15
-21
-19
-21
-22
-18
-12
-19
-20
-20
-16
-21
-19
-21
-22
-20
-16
-17
-17
-18
-22
-27
-22
-20
-23
-19
-12
-17
-19
-21
-22
-20
-17
-18
-21
-11
-12
-16
-17
-18
-21
-24
-20
-20
-20
-15
-12
-11
-14
-15
-20
-19
-16
-17
-19
-10
-7
-14
-14
-16
-21
-19
-16
-14
-17
-14
-12
-12
-10
-7
-16
-15
-10
-12
-15
-7
-7
-7
-7
-6
-15
-10
-11
-10
-9
-3
-3
-1
-4
-2
-4
-5
-4
-1
-2
5
7
5
5
11
8
8
8
2
0
8
10
14
12
16
11
11
12
12
13
18
16
14
12
13
6
8
9
9
9
12
7
7
8
9
-2
-1
-1
-2
-2
4
-2
-6
-8
-11
-18
-12
-8
-10
-8
-6
-14
-15
-16
-14
-18
-16
-16
-19
-17
-10
-15
-18
-16
-17
-21
-22
-19
-23
-18
-11
-15
-19
-20
-22
-22
-21
-21
-18
-14
-13
-20
-19
-17
-19
-23
-21
-21
-23
-20
-20
-18
-14
-15
-20
-22
-19
-24
-26
-19
-19
-15
-15
-16
-19
-21
-17
-19
-23
-16
-11
-16
-18
-19
-22
-21
-15
-17
-21
-15
-15
-18
-14
-9
-15
-19
-21
-18
-23
-17
-12
-14
-16
-14
-18
-17
-16
-17
-20
-15
-10
-10
-15
-15
-19
-16
-12
-16
-19
-15
-14
-14
-17
-15
-19
-18
-17
-17
-18
-11
-14
-18
-21
-18
-19
-15
-16
-16
-19
-9
-11
-13
-15
-15
-21
-19
-19
-23
-21
-10
-14
-18
-17
-11
-20
-19
-17
-18
-17
-9
-15
-17
-18
-18
-21
-19
-19
-19
-18
-9
-13
-15
-13
-13
-22
-19
-18
-18
-16
-9
-14
-18
-16
-17
-21
-19
-20
-23
-17
-8
-11
-16
-15
-16
-20
-18
-17
-18
-15
-8
-11
-12
-13
-14
-16
-13
-15
-14
-8
0
-1
-5
-2
-9
-7
-1
-1
-2
5
10
7
5
3
-1
-2
-1
1
-3
2
1
-11
-8
-3
-9
-9
-12
-15
-18
-15
-14
-15
-18
-16
-22
-21
-18
-20
-20
-15
-16
-18
-18
-16
-24
-25
-22
-23
-24
-17
-17
-18
-20
-19
-23
-22
-19
-20
-22
-15
-17
-17
-17
-14
-20
-23
-24
-22
-25
-23
-30
-27
-20
-16
-16
-10
-4
7
18
42
63
77
92
106
110
118
124
124
105
92
77
59
36
7
-8
-13
-14
-16
-15
-8
-11
-14
-17
-22
-29
-26
-22
-22
-22
-16
-18
-20
-21
-19
-24
-23
-21
-23
-23
-16
-18
-17
-18
-16
-20
-19
-15
-18
-18
-11
-16
-17
-16
-17
-21
-20
-20
-20
-13
-8
-11
-14
-15
-22
-19
-15
-15
-21
-16
-11
-14
-15
-16
-16
-17
-16
-15
-17
-9
-4
-8
-13
-13
-16
-17
-13
-13
-14
-11
-6
-5
-8
-7
-10
-9
-9
-7
-9
-1
2
-2
-3
-2
-7
-4
-2
-2
-3
6
8
3
2
4
0
3
8
5
7
15
13
8
9
18
14
14
16
12
9
18
21
15
11
15
8
6
8
12
10
16
14
11
8
7
2
4
-1
-1
-3
1
2
-1
-1
-3
-13
-10
-10
-9
-13
-8
-12
-12
-15
-17
-20
-15
-15
-16
-19
-10
-11
-15
-19
-15
-18
-18
-18
-18
-20
-17
-16
-13
-17
-18
-22
-20
-19
-22
-20
-16
-15
-14
-15
-15
-18
-19
-18
-20
-19
-16
-20
-17
-18
-22
-26
-23
-21
-23
-15
-13
-17
-17
-19
-19
-23
-19
-19
-19
-15
-13
-16
-11
-13
-16
-17
-17
-17
-19
-15
-11
-14
-13
-13
-17
-19
-17
-17
-19
-14
-11
-15
-13
-15
-22
-19
-10
-10
-16
-10
-8
-13
-14
-13
-19
-21
-16
-10
-16
-8
-9
-12
-14
-13
-18
-19
-15
-16
-19
-11
-8
-12
-18
-16
-17
-14
-15
-18
-22
-14
-14
-15
-14
-13
-18
-18
-17
-16
-17
-11
-11
-16
-18
-19
-21
-20
-17
-18
-21
-12
-15
-15
-15
-14
-19
-18
-15
-10
-17
-12
-12
-17
-21
-19
-19
-20
-22
-22
-18
-13
-17
-12
-15
-14
-16
-15
-16
-15
-13
-9
-17
-15
-15
-15
-19
-17
-17
-19
-17
-12
-17
-13
-12
-17
-16
-12
-15
-16
-17
-9
-9
-10
-11
-11
-17
-13
-8
-8
-1
8
7
5
5
2
-4
-1
2
-1
3
6
4
3
7
0
-6
-4
-2
-6
-1
3
-3
-8
-13
-19
-22
-16
-17
-18
-12
-10
-14
-16
-14
-17
-20
-19
-21
-24
-17
-10
-14
-18
-16
-23
-23
-21
-21
-21
-15
-13
-17
-15
-16
-22
-22
-19
-18
-20
-14
-14
-15
-18
-16
-22
-19
-16
-20
-25
-14
-6
-3
-1
11
22
33
52
66
84
106
111
116
123
125
104
94
81
65
45
19
-3
-8
-17
-22
-26
-22
-19
-18
-16
-11
-10
-14
-17
-15
-17
-14
-13
-15
-15
-12
-14
-15
-15
-16
-20
-16
-15
-18
-18
-10
-9
-13
-14
-13
-18
-13
-13
-14
-14
-8
-14
-13
-12
-14
-15
-12
-13
-14
-11
-4
-12
-13
-11
-6
-13
-11
-8
-12
-11
-6
-10
-6
-6
-9
-15
-12
-10
-11
-6
-4
-6
-8
-6
-10
-11
-8
-9
-7
-1
5
1
-2
-2
-7
-6
0
-2
-4
2
5
4
7
9
3
0
6
10
7
16
19
16
12
15
12
9
12
12
12
20
21
21
20
24
19
19
20
20
13
22
22
19
17
20
14
15
12
13
9
12
14
13
10
9
5
-1
-2
-3
-3
4
5
1
-6
-10
-16
-11
-11
-13
-11
-3
-4
-7
-13
-13
-17
-17
-12
-15
-14
-13
-14
-16
-13
-9
-15
-13
-13
-15
-15
-11
-12
-13
-16
-16
-23
-15
-15
-15
-13
-7
-16
-14
-16
-14
-19
-19
-15
-16
-18
-11
-16
-15
-15
-16
-17
-15
-15
-16
-13
-6
-13
-14
-14
-14
-18
-12
-15
-15
-11
-6
-11
-10
-5
-11
-11
-12
-12
-15
-11
-7
-11
-9
-8
-9
-16
-11
-13
-12
-5
-2
-9
-8
-7
-12
-15
-13
-12
-17
-11
-5
-7
-13
-11
-11
-14
-12
-12
-13
-7
-5
-9
-10
-9
-13
-13
-13
-11
-15
-9
-7
-9
-11
-12
-17
-15
-14
-12
-18
-14
-10
-15
-16
-9
-12
-13
-12
-11
-12
-4
-3
-11
-14
-14
-19
-16
-15
-14
-14
-10
-7
-12
-14
-12
-14
-13
-13
-16
-14
-7
-8
-11
-13
-8
-17
-16
-12
-12
-11
-7
-8
-13
-12
-9
-16
-12
-10
-9
-9
-2
0
-2
-4
0
-2
5
6
9
9
14
11
4
2
8
2
1
1
-2
-2
2
0
4
6
0
-8
-9
-12
-16
-16
-9
-14
-13
-13
-15
-20
-20
-14
-15
-12
-8
-12
-14
-13
-14
-21
-19
-17
-20
-17
-12
-15
-15
-16
-19
-22
-17
-16
-18
-14
-11
-12
-16
-15
-18
-17
-14
-14
-15
-12
-12
-18
-20
-21
-22
-14
-5
2
13
31
47
59
74
92
98
103
112
114
106
96
81
70
56
35
1
-17
-18
-19
-26
-17
-17
-19
-17
-12
-14
-14
-13
-17
-19
-10
-8
-14
-19
-18
-17
-13
-12
-15
-16
-10
-6
-13
-14
-10
-14
-14
-14
-13
-15
-7
-6
-8
-12
-10
-15
-13
-12
-11
-11
-3
-7
-12
-12
-7
-12
-15
-12
-12
-9
0
-6
-5
-10
-7
-9
-7
-11
-12
-9
-5
-5
-7
-8
-7
-11
-8
-5
-1
-2
5
-2
-4
-6
-1
-5
1
1
-1
2
7
3
3
4
4
0
8
9
7
10
16
13
14
15
12
12
15
14
11
17
22
22
20
21
20
19
23
21
21
25
25
23
26
27
21
20
23
18
11
17
21
19
19
17
10
10
13
7
1
7
9
4
2
3
-2
-4
-3
-7
-17
-8
-5
-6
-4
-4
-8
-13
-10
-6
-11
-5
-6
-10
-10
-9
-13
-15
-10
-12
-16
-12
-11
-11
-13
-8
-16
-18
-15
-13
-13
-10
-13
-15
-16
-11
-15
-16
-16
-17
-17
-8
-8
-11
-16
-11
-15
-11
-10
-13
-15
-13
-9
-10
-11
-15
-16
-13
-13
-9
-9
-3
-6
-9
-11
-11
-9
-5
-9
-9
-7
-5
-6
-5
-9
-9
-12
-6
-8
-9
-6
0
-4
-7
-8
-7
-11
-7
-7
-9
-8
1
-4
-6
-6
-7
-14
-10
-8
-11
-8
-2
-5
-7
-10
-10
-15
-13
-10
-12
-9
-7
-8
-9
-7
-9
-13
-12
-11
-15
-10
-7
-7
-5
-6
-10
-14
-9
-12
-15
-9
-4
-9
-11
-7
-9
-11
-11
-14
-15
-9
-4
-7
-8
-8
-12
-13
-11
-12
-14
-8
-7
-8
-9
-7
-12
-16
-11
-12
-15
-8
-8
-10
-8
-8
-14
-16
-12
-12
-12
-4
-4
-7
-11
-8
-7
-8
-8
-3
-3
7
10
9
9
11
6
6
5
6
5
11
10
5
4
7
1
1
0
-2
0
3
4
0
-8
-10
-17
-16
-14
-14
-14
-8
-10
-12
-14
-13
-16
-12
-10
-13
-14
-10
-14
-14
-14
-13
-21
-17
-12
-16
-17
-11
-13
-10
-13
-12
-15
-13
-12
-13
-13
-13
-15
-15
-13
-12
-18
-14
-15
-17
-14
-9
-6
-2
10
20
27
52
71
85
106
117
115
122
128
114
91
80
70
48
27
10
-6
-11
-14
-19
-17
-10
-10
-14
-11
-10
-11
-12
-10
-14
-15
-13
-15
-17
-9
-6
-13
-14
-12
-15
-13
-8
-7
-10
-5
0
-7
-5
-3
-12
-15
-13
-11
-13
-7
-3
-6
-8
-9
-17
-15
-6
-5
-7
0
-4
-8
-8
-3
-9
-11
-9
-8
-11
0
4
-2
-5
-3
-6
-8
-6
-2
-2
0
0
-3
-4
-1
-8
-6
-6
-4
1
7
3
2
0
2
1
4
7
6
5
11
11
7
9
10
6
8
8
12
13
17
16
17
16
19
15
15
16
17
20
28
26
24
23
25
20
22
19
19
22
30
26
25
19
19
16
17
19
17
17
21
15
12
9
8
5
5
8
7
6
8
2
-1
3
0
-3
0
-2
-7
-8
-2
-8
-7
-4
-8
-14
-10
-9
-11
-5
-2
-6
-7
-9
-12
-13
-5
-8
-12
-6
-5
-6
-8
-6
-9
-13
-7
-7
-11
-6
-6
-8
-10
-11
-13
-11
-10
-14
-15
-8
-4
-8
-8
-6
-10
-13
-12
-9
-10
-4
-3
-8
-7
-7
-10
-9
-11
-12
-9
-3
-6
-9
-4
-6
-9
-10
-9
-9
-11
-9
-7
-8
-1
-3
-9
-6
-3
-7
-11
-3
-5
-5
-9
-3
-8
-7
-8
-7
-7
-2
-4
-8
-8
-5
-10
-8
-10
-14
-14
-5
-5
-5
-8
-7
-11
-10
-10
-8
-10
-5
-6
-8
-11
-10
-12
-12
-11
-10
-8
-6
-10
-9
-10
-11
-16
-14
-13
-8
-10
-10
-11
-10
-12
-11
-14
-11
-11
-14
-17
-12
-8
-8
-9
-14
-19
-13
-11
-15
-13
-9
-12
-11
-13
-15
-16
-12
-14
-16
-13
-10
-9
-7
-7
-12
-15
-12
-11
-17
-10
-6
-8
-12
-9
-12
-10
-3
-5
-11
-8
-1
-7
-9
-3
-5
-1
1
2
0
11
10
7
8
11
6
0
1
-1
-1
5
4
0
-1
4
1
-4
-1
-10
-14
-11
-16
-17
-13
-13
-16
-16
-9
-8
-16
-12
-15
-16
-12
-10
-21
-19
-13
-18
-20
-14
-14
-12
-13
-12
-18
-19
-18
-15
-17
-12
-11
-16
-13
-13
-19
-16
-16
-14
-14
-9
-12
-15
-18
-18
-19
-10
-5
0
11
27
40
59
81
100
109
116
122
126
126
116
94
79
60
47
20
3
-7
-11
-12
-8
-9
-9
-11
-13
-21
-18
-14
-15
-14
-9
-9
-9
-12
-15
-21
-16
-13
-16
-12
-7
-11
-11
-9
-13
-16
-12
-13
-16
-11
-5
-9
-10
-10
-13
-13
-8
-6
-10
-10
-9
-9
-9
-5
-10
-16
-19
-13
-12
-9
-5
-3
-2
-5
-10
-9
-8
-7
-9
-4
-1
-8
-6
-1
-8
-14
-11
-12
-12
-3
1
-1
-6
-3
-8
-5
-2
-2
-4
2
2
0
1
4
1
3
5
4
0
6
8
10
10
12
8
8
10
14
11
16
18
20
16
15
13
19
19
19
19
23
22
21
21
22
13
15
14
15
15
22
23
20
18
17
10
10
7
4
4
10
8
3
-1
0
-6
-1
-1
-2
-4
0
-6
-8
-4
-5
-9
-10
-13
-16
-11
-3
-10
-13
-14
-13
-16
-14
-14
-14
-12
-6
-12
-10
-11
-13
-20
-16
-14
-13
-10
-8
-11
-13
-14
-15
-18
-13
-9
-13
-15
-13
-14
-15
-14
-17
-18
-15
-15
-14
-14
-11
-15
-12
-10
-14
-15
-14
-16
-20
-12
-10
-10
-9
-14
-18
-19
-17
-14
-17
-10
-10
-13
-11
-7
-14
-13
-12
-13
-17
-11
-5
-11
-12
-8
-14
-13
-12
-15
-14
-9
-9
-6
-7
-6
-13
-15
-13
-10
-13
-6
-6
-10
-12
-7
-12
-12
-12
-10
-14
-6
-6
-9
-15
-11
-14
-13
-14
-13
-14
-6
-8
-10
-13
-14
-21
-17
-16
-16
-13
-4
-8
-8
-11
-14
-17
-13
-10
-12
-14
-9
-10
-12
-14
-13
-18
-13
-12
-15
-16
-5
-10
-10
-12
-12
-18
-14
-14
-18
-12
-6
-12
-12
-5
-11
-17
-14
-12
-13
-10
-4
-11
-11
-16
-14
-14
-11
-10
-16
-11
-5
-7
-9
-6
-7
-12
-6
-5
-5
1
7
6
8
8
6
2
3
4
4
7
8
3
4
4
2
-1
2
1
-3
3
7
2
-3
-7
-13
-16
-13
-11
-16
-8
-5
-11
-13
-15
-21
-21
-16
-16
-18
-12
-11
-15
-17
-17
-23
-19
-13
-17
-16
-7
-10
-15
-17
-12
-15
-14
-14
-16
-17
-10
-10
-13
-16
-15
-19
-17
-17
-16
-16
-10
-8
-10
-1
6
13
28
47
66
84
102
113
122
127
134
124
108
89
73
61
45
13
-1
-10
-10
-17
-14
-12
-13
-13
-8
-12
-12
-15
-13
-16
-14
-16
-17
-16
-11
-12
-11
-13
-10
-15
-13
-15
-15
-8
-3
-9
-7
-7
-14
-18
-13
-13
-17
-14
-6
-10
-11
-11
-3
-4
-5
-7
-14
-10
-4
-6
-7
-11
-11
-12
-9
-8
-10
-4
0
-2
-6
-4
-6
-10
-7
-5
-7
-4
-4
-10
-7
-4
-4
-6
-4
-4
-4
0
4
-1
4
3
-3
-3
2
2
2
5
8
5
7
10
3
3
11
14
15
17
18
14
16
14
14
15
17
20
20
25
23
21
20
25
20
22
19
24
22
23
27
25
19
24
21
20
19
18
18
23
21
16
9
15
8
7
4
1
1
8
7
5
3
2
-3
-2
-3
-6
-5
3
0
-4
-9
-10
-14
-11
-11
-10
-4
-2
-6
-3
-4
-6
-15
-9
-6
-10
-11
-5
-10
-6
-9
-7
-13
-9
-8
-8
-8
-3
-10
-14
-12
-11
-17
-13
-13
-15
-11
-4
-6
-9
-8
-7
-11
-8
-9
-15
-12
-6
-5
-5
-4
-9
-14
-11
-11
-15
-10
-4
-6
-5
0
-4
-9
-10
-8
-8
-2
-4
-6
-3
-2
-8
-8
-6
-3
-1
2
4
1
-3
-5
-10
-15
-11
-6
-9
2
3
-1
-3
-1
-5
-7
-5
-6
-6
2
1
-2
-3
-1
-8
-9
-4
-4
-6
1
1
-4
-4
-5
-9
-6
-4
-7
-10
-1
-2
-4
-4
-1
-6
-7
-4
-6
-6
-5
-6
-5
-3
-6
-11
-8
-5
-2
-3
4
-1
-8
-6
-3
-6
-6
-10
-9
-9
-2
-6
-4
-2
-4
-10
-7
-4
-6
-7
-2
-3
-3
-4
-5
-12
-4
-7
-9
-8
-5
-2
-4
-6
-3
-7
-5
-4
-4
-4
3
0
-1
-5
-1
-4
3
2
6
7
12
12
12
8
10
8
14
15
11
15
16
13
11
8
8
4
6
9
8
10
12
7
2
-2
-8
-11
-7
-9
-13
-3
2
-3
-3
-2
-10
-13
-7
-7
-9
-5
-4
-7
-9
-9
-13
-15
-10
-8
-11
-3
-2
-8
-6
-8
-10
-12
-9
-6
-9
-1
-4
-12
-10
-5
-11
-11
-13
-10
-17
-11
-5
0
6
12
17
36
52
69
87
110
118
121
125
133
121
106
90
79
62
46
17
2
-8
-13
-20
-15
-9
-7
-8
2
0
-4
-2
0
-6
-7
-7
-5
-2
0
-2
-4
-9
-9
-13
-8
-7
-9
-6
-2
1
1
-3
0
-7
-1
-1
-5
-4
1
2
3
0
-1
-3
1
-4
0
-2
1
1
-2
-3
0
-2
0
1
0
-3
1
3
1
3
1
-5
0
3
-1
-1
7
4
0
2
5
1
3
7
3
8
14
8
7
8
6
1
6
8
8
14
19
15
14
14
16
15
17
20
19
23
29
23
23
27
21
21
24
27
25
30
32
29
31
34
29
28
32
30
27
30
32
28
25
32
29
26
27
26
24
27
29
20
20
25
15
12
13
10
5
13
15
11
7
4
-4
0
-1
1
-5
2
4
2
-4
3
0
-3
-2
-4
-7
2
4
2
-3
-2
-9
-6
-6
-3
-3
4
0
-3
-6
-5
-11
-9
-6
-5
-7
-2
-3
-6
-7
-6
-10
-6
-5
-6
-6
2
-1
-3
-3
0
-9
-5
-8
-8
-4
2
-3
-3
-2
-4
-5
-2
1
-3
-6
4
3
0
-1
-2
-6
-1
-2
-7
0
10
5
5
8
4
-2
4
0
-5
2
12
8
8
4
1
-2
2
2
-4
1
7
5
4
6
2
-1
4
-2
-4
1
7
3
5
3
1
-2
-4
-3
0
3
7
2
-1
0
-1
-2
3
0
-6
-2
6
7
8
6
-5
-8
-2
1
-2
4
6
2
-1
3
-2
-1
4
3
0
6
2
2
-2
3
0
-1
2
3
-2
6
8
5
3
6
1
2
3
3
7
13
14
13
13
14
11
13
14
20
20
25
27
22
21
21
15
14
13
12
13
19
19
22
16
16
5
6
5
-2
-6
6
5
5
0
3
-4
-1
-2
-1
2
10
5
3
-1
-4
-7
-3
-5
-5
-5
8
4
-2
-1
1
-4
-2
-4
-4
0
8
5
2
3
2
-5
0
3
3
5
11
3
-4
-7
-9
-8
4
9
9
20
42
60
78
93
106
115
124
128
129
133
122
103
88
74
50
19
6
-1
-8
-6
3
0
4
5
4
2
3
3
0
6
7
4
4
3
-1
0
0
0
-6
3
11
7
9
9
3
0
0
3
3
8
10
7
6
7
2
3
5
5
4
10
12
11
10
11
5
6
4
5
9
12
11
8
4
11
4
8
9
10
8
13
14
13
10
13
8
9
10
10
10
18
19
16
8
11
8
19
19
17
16
23
18
18
17
23
19
22
23
22
23
31
29
29
29
32
24
28
32
31
34
43
40
40
36
35
31
34
37
35
37
47
41
38
41
40
35
40
38
36
38
40
38
35
36
32
24
29
30
25
25
26
20
20
18
16
13
19
15
10
14
14
12
11
11
4
5
10
6
0
11
12
9
12
10
4
1
5
4
4
12
12
7
5
4
0
-1
5
7
6
6
8
1
-2
0
0
0
1
2
0
5
7
7
6
8
3
7
7
6
4
7
6
9
7
7
-1
1
2
3
0
10
11
10
9
12
7
7
8
6
7
13
12
11
8
10
4
8
7
7
8
15
13
12
10
12
9
10
10
10
7
14
13
14
11
11
8
9
11
14
12
15
13
10
10
9
3
6
5
3
5
10
9
13
10
7
4
9
8
5
11
17
12
12
13
9
4
7
3
4
10
11
6
8
9
11
10
11
8
3
9
13
10
11
11
6
3
5
4
6
12
14
13
11
10
4
3
9
10
4
10
13
11
12
15
8
9
13
14
9
15
19
20
21
23
20
23
26
27
23
29
34
33
25
20
14
13
20
25
20
24
27
24
20
22
15
9
7
3
3
10
8
5
7
9
7
5
7
7
4
10
9
7
6
7
-1
3
7
5
3
9
7
6
4
5
-2
3
4
5
2
9
8
6
2
6
2
6
7
4
4
7
3
0
4
13
13
20
33
47
64
87
101
117
128
135
140
149
146
132
117
103
82
58
31
17
5
6
4
3
8
15
14
12
10
8
5
6
8
6
5
9
4
6
10
7
-1
5
7
3
5
10
8
11
9
7
7
12
9
4
8
14
12
12
13
