50
32
22
8
-5
-4
9
35
52
69
75
51
36
12
16
18
39
55
54
57
56
24
-9
-29
-32
-38
-26
-4
24
43
45
23
12
-13
-14
-15
16
31
51
60
57
37
16
-14
-17
-6
16
34
53
52
42
29
17
-10
-5
-7
6
22
59
71
56
32
15
-8
2
7
20
26
58
51
47
37
25
-2
5
7
28
29
47
44
39
18
17
-6
-3
11
29
42
76
67
58
38
13
-10
10
16
35
44
70
65
47
34
27
14
8
32
40
52
88
83
73
52
41
13
16
24
39
55
84
82
66
52
40
24
31
53
68
67
93
91
79
70
60
32
26
52
68
70
87
85
61
43
30
23
23
34
41
57
82
77
62
43
33
9
15
16
37
51
61
55
36
18
10
1
-6
11
25
36
50
38
14
9
0
-15
-11
22
40
49
54
53
31
11
-13
-16
-4
7
12
46
53
35
25
22
-12
-15
-3
20
32
58
52
35
22
17
-11
-11
-24
-7
5
34
44
33
11
7
-17
-9
-4
14
20
49
47
38
23
14
-8
-6
-5
11
18
42
54
47
18
13
-11
-5
8
26
28
50
36
25
14
7
-21
-12
-6
23
28
53
60
45
18
4
-34
-38
-7
27
31
52
47
43
24
4
-16
-22
-4
14
28
57
60
42
16
3
-12
-14
2
14
20
55
52
30
11
0
-15
-20
-9
8
29
41
40
24
6
-7
-22
-10
3
16
33
56
54
42
30
12
-15
-12
1
19
37
46
52
29
22
3
-11
-23
-9
5
35
50
50
26
9
-9
-13
-11
12
24
43
40
31
12
13
5
0
2
13
17
40
56
53
41
42
10
0
-2
23
29
56
55
52
34
20
10
7
18
28
28
52
51
42
11
-4
-22
-14
-5
20
26
46
43
38
14
-2
-35
-24
-3
12
23
54
53
50
28
10
-25
-26
-19
5
20
42
49
43
26
7
-24
-18
-4
15
11
33
33
24
8
6
-11
-6
6
33
44
61
61
50
27
18
-6
-6
10
32
51
74
68
54
23
6
-19
-31
-15
-1
9
23
14
-5
-15
-15
-25
-30
-7
19
35
57
52
37
21
-4
-17
-13
2
16
33
52
51
34
12
-8
-12
-9
10
24
44
58
55
39
28
3
-14
1
22
32
54
63
60
35
15
-10
-11
1
18
23
49
56
57
40
21
-4
-2
3
17
32
57
58
54
38
22
-12
-7
4
21
35
62
65
52
39
22
-3
-2
15
48
61
89
72
61
34
25
0
12
29
50
58
79
81
78
62
51
20
23
32
49
53
83
83
70
64
58
33
37
49
65
67
85
82
82
66
53
24
20
35
59
62
83
84
61
43
31
10
13
21
38
50
73
65
52
36
21
-10
-9
2
22
42
59
53
47
27
2
-21
-11
7
26
37
51
40
20
8
7
-4
-8
10
17
32
52
44
27
14
-2
-14
-15
3
14
33
39
37
33
32
-1
-19
-11
5
8
25
46
52
35
26
-4
-19
-21
-3
19
50
54
38
14
14
-19
-28
-17
8
20
39
45
39
18
11
-10
-13
-2
23
30
53
55
40
23
12
-19
-12
-10
14
24
52
45
46
38
28
-13
-5
-5
7
10
42
41
41
17
9
-17
-24
-17
10
25
58
60
39
19
10
-22
-17
5
22
22
46
52
41
13
0
-10
-9
-4
9
24
62
74
52
22
9
-21
-26
-3
24
34
56
50
36
20
-2
-32
-27
-4
14
21
45
43
32
27
4
-15
-17
-4
19
27
56
60
53
22
-8
-22
-23
-2
21
38
58
50
26
12
-9
-25
-21
5
16
32
51
48
31
8
-12
-17
-12
1
2
31
56
47
20
8
-11
-18
-12
14
31
44
41
43
31
9
-22
-17
-11
2
16
51
62
54
37
16
-18
-15
-12
6
19
52
63
54
29
22
-7
-9
2
19
31
60
63
55
28
6
-19
-3
9
28
33
66
65
43
15
1
-27
-27
-19
6
22
64
58
42
16
10
-19
-14
0
19
21
46
48
38
16
10
-14
-13
-8
-1
20
54
51
32
11
3
-21
-21
-16
22
40
64
63
54
34
24
-2
2
14
24
40
69
62
48
46
24
-17
-19
-14
2
7
29
35
13
-12
-18
-29
-9
12
20
38
54
59
31
11
0
-20
-16
1
15
30
42
34
26
17
3
-3
8
31
49
53
55
45
28
14
3
-5
-8
25
45
59
64
48
20
16
1
7
-6
15
24
52
58
46
27
23
2
0
6
23
28
51
57
50
37
33
14
20
20
34
47
72
69
68
47
29
-3
0
17
49
54
81
74
67
58
38
7
6
17
43
56
86
79
73
58
54
29
23
31
50
57
93
85
81
67
59
26
32
39
52
63
93
103
91
72
59
24
32
41
61
66
89
99
83
49
36
14
18
41
60
73
84
76
51
33
18
-9
-10
18
36
41
62
66
46
29
13
-9
6
27
41
54
68
59
38
19
14
3
0
17
32
47
55
41
34
31
15
0
-14
11
26
40
58
48
22
11
-3
-13
-7
19
34
45
55
47
29
18
-2
-10
-7
14
21
43
55
49
24
12
-5
-2
-5
11
26
50
48
48
32
17
-11
-11
6
26
26
52
55
40
23
7
-17
-6
-6
9
25
52
50
49
37
21
-14
-11
-13
11
20
48
49
44
26
23
-14
-17
3
25
36
62
56
42
20
13
-23
-16
-3
18
22
45
44
30
14
22
-4
-10
-6
13
20
56
59
52
32
14
-17
-21
1
19
21
50
50
41
22
6
-30
-26
-5
17
26
41
45
38
14
-4
-9
-5
7
22
33
43
43
27
19
9
-13
-18
-4
19
36
55
57
35
24
-2
-20
-11
9
21
41
55
52
27
15
-5
-16
-18
-8
15
39
52
46
27
17
-5
-24
-15
5
20
40
41
38
23
9
-17
-23
-23
4
19
52
56
50
27
17
-13
-20
-19
6
16
37
50
40
25
10
-27
-21
-13
3
19
41
50
33
16
14
-13
-8
0
16
24
50
50
46
26
13
-12
-23
-11
12
24
53
60
53
41
35
2
-8
4
14
19
52
60
52
29
4
-25
-20
2
23
30
52
49
44
24
14
-18
-21
-6
5
8
40
42
34
15
1
-14
-12
-7
13
21
47
53
39
12
5
-19
-26
-11
21
32
54
47
42
45
29
3
-3
11
29
45
58
65
53
37
27
14
17
28
35
33
51
43
11
-4
-20
-52
-50
-18
10
30
59
61
38
22
4
-4
-4
-1
20
34
49
49
36
17
-16
-15
0
16
33
51
60
58
29
8
-14
-9
5
23
37
60
58
54
36
22
-9
-6
-4
25
42
63
64
56
32
19
-5
-9
-4
12
25
56
57
52
38
23
-10
-1
20
38
37
63
68
60
38
25
-5
0
9
32
45
78
77
67
42
27
2
13
13
28
39
85
92
74
55
51
27
34
33
49
62
90
85
69
52
45
32
26
48
63
70
88
91
90
60
44
31
31
46
61
72
87
91
71
48
41
17
-1
15
42
61
85
84
71
53
28
1
1
20
31
41
61
62
44
21
11
-16
-19
9
30
35
56
58
42
25
13
-4
-7
8
26
49
63
57
34
18
2
-11
-14
6
27
46
58
46
25
9
-12
-14
-6
14
35
47
55
50
32
16
-8
-9
-11
8
17
40
52
54
37
21
-19
-20
-15
16
25
46
47
44
26
15
-17
-15
-6
12
24
61
66
57
30
18
-6
-8
0
18
29
66
61
56
27
12
-25
-20
-7
9
28
54
55
47
21
18
-2
-14
-7
12
24
49
45
21
6
3
-25
-13
13
29
38
64
56
35
16
3
-20
-20
-5
25
35
52
60
37
26
13
-18
-24
-11
9
25
50
48
31
9
1
-17
-25
3
25
34
49
46
20
8
-4
-12
-18
-7
11
32
59
49
24
9
-7
-23
-19
2
22
40
46
39
27
19
6
-9
-5
8
12
35
52
54
29
1
-16
-21
-16
0
9
28
45
48
25
7
-21
-16
-15
4
20
37
36
34
13
11
-18
-15
-17
0
16
44
49
34
15
11
-16
-16
-5
17
30
47
36
33
21
13
-19
-15
-4
10
17
49
45
45
27
13
-18
-11
-14
11
18
46
53
35
14
6
-19
-18
-8
10
21
52
49
48
34
25
-7
-10
1
19
23
51
49
32
17
4
-19
-13
-5
11
25
54
47
35
14
-3
-27
-23
-15
-6
6
35
35
20
-7
-17
-32
-29
-12
7
31
54
44
24
3
-16
-44
-37
-12
5
19
38
36
22
5
-5
-13
-5
14
27
46
54
54
48
46
20
-4
-1
14
13
29
41
29
5
-14
-40
-59
-59
-32
-18
3
14
26
9
-6
-24
-20
-14
-5
10
31
31
30
11
-5
-42
-38
-33
0
18
41
42
36
16
2
-31
-23
-19
2
8
37
38
30
11
-7
-37
-31
-14
5
13
30
38
32
15
8
-21
-32
-21
1
11
32
36
18
10
-1
-36
-37
-14
6
11
45
41
31
10
6
-19
-19
-15
6
16
38
37
30
17
8
-25
-27
-9
7
25
62
72
54
21
4
-27
-26
-8
15
26
57
54
43
24
6
-8
-7
11
25
31
58
62
49
33
16
-3
-3
12
27
32
62
51
34
19
2
-24
-21
3
30
33
49
41
32
11
-12
-25
-27
-14
4
18
39
22
0
-23
-34
-46
-40
-20
-20
-2
22
21
-5
-12
-39
-59
-48
-23
-11
12
18
11
-12
-28
-57
-55
-45
-34
-33
4
15
1
-12
-23
-45
-39
-40
-27
-5
17
15
-3
-26
-36
-66
-67
-54
-35
-18
8
7
-2
-22
-37
-67
-59
-56
-34
-19
8
12
2
-21
-29
-57
-66
-54
-38
-22
0
-6
-3
-14
-29
-63
-52
-38
-6
-3
15
18
4
-27
-32
-60
-58
-43
-27
-20
2
-4
-5
-27
-45
-65
-58
-43
-27
-22
7
2
-13
-24
-34
-49
-49
-26
-24
-24
-4
-8
-23
-35
-45
-61
-55
-43
-25
-10
8
8
10
-20
-41
-68
-66
-47
-32
-7
14
7
-8
-30
-44
-58
-51
-38
-22
-4
7
1
-25
-37
-41
-47
-58
-45
-27
-13
0
3
-15
-39
-62
-68
-59
-38
-29
-6
19
14
-13
-37
-58
-71
-64
-44
-28
-2
17
9
-21
-38
-65
-69
-59
-31
-20
6
3
-1
-19
-39
-68
-69
-64
-41
-20
4
-3
-16
-33
-43
-68
-58
-54
-34
-22
16
15
-4
-31
-44
-71
-66
-60
-33
-26
4
4
-6
-24
-30
-61
-63
-53
-23
-18
9
8
-1
-25
-29
-58
-59
-42
-16
-7
16
10
-6
-33
-38
-60
-55
-44
-21
-10
10
2
-21
-43
-45
-71
-62
-46
-37
-32
-14
-2
-11
-29
-31
-59
-69
-56
-31
-16
4
4
-19
-42
-68
-88
-79
-57
-32
-19
-6
-8
-29
-36
-45
-66
-70
-49
-23
-5
15
14
-15
-27
-27
-55
-56
-32
-19
-5
15
18
-10
-35
-59
-70
-77
-67
-50
-28
-23
-34
-45
-52
-70
-73
-70
-39
-30
-22
-14
-15
-33
-49
-67
-67
-59
-38
-32
-11
-2
-13
-37
-47
-67
-72
-68
-42
-30
-1
11
-1
-23
-41
-70
-69
-57
-36
-27
-5
-2
-9
-24
-40
-71
-60
-63
-42
-25
1
-2
-7
-24
-38
-70
-66
-51
-34
-28
14
9
-10
-26
-36
-60
-56
-49
-33
-26
1
2
1
-14
-34
-67
-65
-51
-19
-9
24
20
-1
-23
-34
-47
-41
-30
-10
-3
26
31
13
-7
-13
-44
-45
-38
-9
9
35
35
11
-8
-17
-29
-24
-6
3
9
24
19
1
-18
-23
-28
-34
-23
1
17
20
22
-1
-15
-35
-54
-52
-36
-28
-4
11
1
-28
-38
-58
-66
-70
-62
-40
-20
3
-6
-30
-40
-62
-81
-74
-49
-27
-9
-5
-9
-35
-49
-73
-79
-72
-51
-35
-23
-21
-34
-47
-56
-78
-77
-65
-54
-36
-8
-11
-30
-43
-58
-85
-83
-74
-54
-44
-16
-9
-12
-44
-47
-77
-80
-76
-68
-47
-20
-19
-20
-43
-55
-79
-71
-61
-44
-30
-11
-15
-22
-41
-52
-78
-83
-75
-55
-37
-11
-12
-24
-44
-57
-86
-89
-74
-50
-38
-10
-10
-31
-43
-61
-89
-82
-73
-56
-48
-21
-22
-32
-44
-46
-79
-77
-66
-45
-35
-15
-7
-14
-39
-51
-80
-91
-80
-62
-41
-12
-20
-40
-61
-66
-83
-80
-71
-53
-31
-3
-6
-34
-65
-77
-94
-91
-69
-60
-36
-18
-28
-49
-66
-76
-93
-87
-60
-34
-26
-23
-23
-35
-47
-69
-87
-82
-61
-46
-27
-13
-25
-42
-55
-83
-92
-91
-76
-59
-34
-25
-21
-40
-54
-81
-91
-80
-71
-64
-33
-25
-36
-49
-60
-86
-89
-95
-67
-50
-18
-14
-14
-47
-61
-87
-90
-76
-54
-47
-32
-32
-37
-51
-64
-95
-98
-83
-61
-48
-23
-19
-31
-44
-54
-87
-85
-87
-69
-58
-27
-30
-36
-56
-69
-91
-85
-78
-62
-52
-19
-26
-32
-51
-67
-101
-93
-82
-69
-56
-19
-11
-25
-57
-75
-100
-86
-69
-42
-33
-6
-8
-25
-43
-57
-90
-97
-82
-61
-40
-19
-16
-29
-42
-54
-71
-73
-62
-47
-28
-8
-15
-32
-62
-79
-95
-93
-78
-57
-41
-22
-29
-42
-73
-89
-102
-92
-73
-56
-35
-4
-14
-51
-62
-88
-90
-84
-65
-41
-35
-20
-31
-52
-68
-83
-88
-77
-61
-52
-40
-21
-27
-40
-42
-63
-70
-73
-55
-35
-15
-13
-31
-47
-52
-73
-82
-68
-52
-42
-19
-23
-36
-64
-74
-106
-111
-112
-81
-66
-38
-40
-38
-49
-57
-80
-71
-65
-55
-50
-27
-17
-18
-37
-61
-89
-85
-77
-55
-48
-20
-10
-11
-32
-45
-81
-78
-68
-52
-47
-16
-13
-31
-48
-55
-88
-96
-75
-50
-34
-5
-1
-20
-35
-54
-89
-88
-80
-53
-43
-13
-4
-19
-38
-49
-79
-78
-68
-42
-17
20
8
-11
-34
-53
-74
-66
-56
-43
-32
5
5
-13
-30
-41
-62
-68
-52
-24
-14
9
6
-9
-30
-46
-57
-52
-38
-18
-3
20
21
0
-22
-32
-37
-40
-29
-9
12
20
18
5
-11
-33
-33
-43
-26
-5
6
12
14
-4
-19
-43
-38
-43
-24
-22
1
12
-12
-33
-30
-49
-67
-58
-23
-22
-6
-2
-16
-39
-51
-76
-67
-58
-41
-35
-12
-18
-21
-38
-51
-80
-69
-66
-41
-37
-4
6
-8
-32
-50
-81
-90
-84
-64
-44
-14
-14
-18
-41
-47
-82
-92
-75
-50
-35
-3
-20
-40
-46
-60
-83
-84
-66
-42
-38
-11
-3
-17
-36
-46
-80
-80
-69
-51
-47
-12
-9
-21
-46
-49
-81
-81
-65
-43
-33
0
-3
-18
-43
-50
-77
-73
-60
-51
-39
-15
-11
-26
-42
-44
-65
-70
-53
-33
-31
-13
-18
-35
-44
-53
-76
-76
-49
-39
-35
-18
-14
-22
-38
-56
-70
-73
-59
-31
-11
0
-11
-27
-47
-70
-83
-74
-48
-35
-24
-17
-21
-25
-41
-65
-73
-65
-44
-37
-24
-6
-9
-25
-39
-61
-81
-72
-48
-30
-10
-8
-16
-35
-40
-63
-69
-69
-52
-33
-5
-7
-15
-29
-44
-75
-87
-81
-64
-40
-12
-9
-18
-29
-40
-73
-71
-74
-63
-54
-13
-16
-24
-38
-54
-83
-64
-59
-47
-40
-17
-26
-33
-46
-50
-78
-74
-66
-51
-48
-15
-16
-26
-45
-52
-82
-74
-69
-52
-42
-12
-9
-28
-41
-63
-86
-83
-72
-57
-53
-25
-23
-33
-50
-60
-73
-73
-55
-34
-23
1
1
-13
-26
-48
-86
-84
-69
-59
-40
-8
-10
-30
-50
-58
-76
-74
-68
-52
-39
-11
-12
-23
-43
-67
-92
-79
-56
-45
-22
-8
-15
-24
-37
-58
-76
-68
-54
-32
-16
8
0
-18
-36
-54
-65
-66
-50
-33
-17
4
5
-12
-35
-54
-69
-63
-34
-29
-22
-15
-29
-55
-60
-79
-67
-73
-57
-35
-10
-8
-18
-36
-52
-78
-78
-56
-37
-29
-5
-4
-16
-34
-46
-78
-80
-76
-52
-33
-11
-12
-21
-43
-56
-88
-85
-82
-57
-37
2
2
-9
-20
-24
-49
-47
-40
-30
-31
-2
5
9
-5
-20
-46
-42
-47
-35
-31
-11
-20
-32
-50
-64
-98
-98
-89
-55
-41
-12
-8
-19
-44
-51
-75
-77
-58
-40
-40
3
-2
-6
-25
-39
-64
-59
-43
-30
-25
-6
-5
-18
-30
-40
-63
-63
-61
-46
-31
-13
-9
-26
-38
-47
-59
-51
-36
-21
-14
2
4
-8
-24
-43
-60
-71
-59
-29
-17
7
6
-14
-24
-50
-67
-49
-30
-23
7
11
-2
-15
-30
-53
-58
-51
-29
-12
-1
8
9
-7
-24
-46
-47
-42
-29
-15
11
16
12
-2
-10
-27
-32
-26
-8
-6
16
25
17
2
-8
-37
-39
-33
-13
-2
30
45
33
13
-6
-39
-33
-29
-11
-1
35
32
18
-5
-12
-32
-46
-42
-32
-21
8
15
-1
-19
-27
-56
-56
-48
-32
-15
11
6
-4
-39
-53
-82
-79
-57
-41
-29
-5
-1
-18
-39
-52
-80
-74
-65
-36
-34
-8
-3
-10
-35
-51
-83
-80
-61
-38
-27
-4
-10
-33
-50
-64
-76
-68
-56
-32
-17
-8
-12
-32
-51
-57
-80
-77
-49
-43
-28
-16
-22
-36
-42
-55
-79
-63
-53
-44
-28
3
-9
-33
-50
-65
-81
-67
-47
-19
-2
3
-18
-38
-55
-79
-90
-81
-60
-32
-10
5
6
-14
-31
-51
-74
-69
-56
-44
-17
-2
-13
-35
-51
-75
-81
-76
-48
-29
-1
-7
-13
-31
-45
-69
-78
-71
-46
-43
-16
-10
-17
-32
-47
-74
-70
-67
-57
-36
-8
-6
-29
-44
-50
-75
-66
-66
-38
-23
-8
-7
-16
-39
-41
-74
-78
-73
-52
-38
-6
-3
-3
-23
-34
-72
-79
-63
-29
-22
-7
-13
-20
-48
-59
-81
-67
-62
-43
-32
-15
-7
-13
-35
-50
-78
-72
-46
-25
-25
-2
-2
-14
-39
-60
-81
-74
-59
-47
-37
-11
-9
-16
-31
-45
-60
-63
-54
-36
-17
-1
-11
-29
-44
-57
-73
-76
-52
-31
-7
13
12
-2
-22
-30
-60
-67
-48
-31
-33
-7
-3
-24
-33
-50
-67
-61
-40
-26
-20
2
-6
-33
-42
-62
-71
-65
-43
-32
-11
3
-1
-21
-40
-65
-81
-62
-47
-35
-22
-7
-6
-31
-53
-76
-76
-66
-47
-33
0
-2
-17
-34
-41
-65
-73
-69
-42
-28
0
2
-2
-21
-27
-53
-50
-37
-21
-16
8
12
3
-11
-30
-53
-51
-59
-47
-32
-6
-16
-28
-49
-71
-108
-99
-82
-49
-37
-8
-6
-15
-37
-41
-68
-67
-57
-28
-12
6
-7
-10
-32
-43
-54
-54
-58
-43
-37
-11
-4
0
-21
-37
-73
-59
-40
-13
-11
7
0
-17
-38
-38
-62
-70
-51
-29
-16
3
8
-5
-19
-28
-52
-48
-33
-25
-8
7
12
1
-16
-35
-63
-55
-43
-23
-6
9
2
-6
-17
-30
-45
-39
-16
-4
5
26
27
-4
-16
-36
-28
-31
-14
-5
5
20
26
6
-11
-24
-28
-21
-4
13
36
50
50
23
7
-13
-19
-14
1
17
52
52
41
10
-5
-25
-29
-18
6
13
35
39
30
19
-1
-20
-23
-22
-13
-2
31
32
25
1
-20
-49
-50
-41
-28
-26
13
9
4
-15
-31
-61
-56
-41
-22
-5
18
7
-13
-34
-43
-74
-62
-51
-22
-17
-2
-4
-13
-23
-23
-59
-59
-51
-34
-21
9
13
-4
-28
-40
-66
-67
-45
-25
-23
-1
10
4
-11
-22
-47
-62
-56
-32
-22
1
-3
-21
-36
-49
-61
-64
-49
-34
-18
1
4
-4
-21
-40
-66
-50
-36
-27
-21
7
9
-3
-20
-40
-58
-57
-39
-24
-6
13
11
-9
-32
-50
-62
-55
-35
-22
-7
9
-1
-15
-21
-39
-50
-62
-45
-35
-10
10
8
-16
-38
-62
-62
-58
-31
-14
-1
5
-3
-29
-49
-70
-58
-52
-35
-14
13
13
3
-15
-24
-56
-74
-54
-38
-17
5
15
1
-17
-32
-59
-55
-53
-30
-30
0
4
-2
-27
-31
-56
-55
-45
-28
-32
-4
-4
-20
-30
-29
-61
-51
-45
-28
-18
7
4
-10
-28
-38
-67
-63
-53
-28
-16
16
26
7
-13
-25
-64
-69
-56
-32
-18
6
-3
-25
-44
-45
-70
-53
-34
-18
-13
18
17
2
-22
-46
-72
-79
-66
-44
-23
0
5
-20
-33
-40
-52
-49
-38
-16
-10
8
1
-15
-38
-44
-52
-61
-36
-18
-12
9
20
3
-20
-38
-59
-60
-45
-29
-10
14
10
-4
-17
-31
-48
-41
-21
-9
9
22
14
3
-26
-48
-54
-58
-31
-5
9
18
5
-15
-37
-61
-61
-58
-46
-34
-9
0
4
-6
-23
-67
-63
-51
-28
-15
7
3
-3
-23
-31
-49
-58
-56
-29
-16
-2
2
2
-14
-28
-55
-46
-46
-28
-13
22
16
5
-13
-17
-43
-50
-38
-17
-5
16
16
14
-9
-24
-57
-59
-64
-47
-30
-3
-14
-34
-44
-46
-61
-50
-39
-22
-9
10
8
-6
-25
-33
-53
-51
-44
-15
-1
9
8
-1
-14
-26
-45
-49
-31
-16
-15
7
8
-9
-25
-30
-41
-34
-13
-1
1
18
14
-2
-22
-29
-51
-59
-39
-16
3
22
21
-3
-18
-37
-45
-40
-21
-2
11
19
22
5
-7
-26
-41
-37
-21
-2
15
31
38
19
-1
-25
-36
-31
-7
4
17
31
23
14
11
-19
-42
-31
-8
6
36
49
48
29
14
-20
-22
-12
11
24
58
57
50
28
14
-2
-5
-8
19
20
50
58
49
29
12
-12
-13
-7
15
26
51
57
35
17
5
-28
-22
-15
5
5
31
40
25
-1
-18
-47
-44
-28
-16
-6
21
16
16
-7
-18
-42
-38
-25
-4
1
24
14
1
-23
-30
-46
-48
-31
-9
-3
28
27
10
-13
-29
-51
-55
-50
-19
-9
0
10
0
-11
-24
-37
-39
-24
-12
-9
10
8
5
-11
-30
-54
-45
-30
-14
8
23
25
18
-2
-27
-51
-55
-40
-21
0
23
28
1
-10
-34
-51
-54
-34
-6
18
33
25
6
-4
-30
-39
-41
-24
-7
8
23
17
4
-5
-31
-46
-51
-25
-13
9
20
20
1
-22
-48
-41
-30
-14
5
38
33
24
-4
-17
-47
-45
-39
-16
2
32
34
19
-3
-20
-48
-49
-41
-13
0
14
16
17
9
-4
-33
-18
-23
-12
5
31
15
-7
-15
-23
-52
-42
-29
-12
-8
14
20
2
-13
-13
-39
-46
-39
-15
-9
26
38
34
8
-17
-49
-39
-28
3
10
34
16
-4
-18
-27
-55
-50
-33
-8
7
28
22
9
-1
-12
-40
-41
-22
-19
-9
10
11
-8
-17
-28
-47
-37
-29
-10
0
21
29
14
-4
-17
-36
-46
-36
-14
7
34
28
7
-17
-25
-49
-49
-22
-4
8
20
12
0
-18
-31
-37
-29
-10
10
24
33
27
7
-6
-29
-31
-33
-14
11
41
40
27
1
-6
-21
-31
-21
-7
6
24
22
19
5
-11
-44
-50
-42
-16
6
33
31
15
-9
-24
-49
-39
-30
-6
0
28
28
20
-8
-22
-48
-49
-39
-14
-12
16
14
19
6
-14
-44
-41
-30
-6
11
47
50
36
9
-5
-33
-29
-9
13
12
29
33
27
11
-1
-25
-10
-7
-1
7
37
30
12
-10
-25
-68
-65
-45
-20
-10
28
30
26
10
4
-29
-30
-16
-4
9
35
37
16
8
-8
-22
-23
-13
0
17
41
37
20
2
-18
-36
-32
-14
8
31
48
38
16
5
-2
-22
-25
-15
4
23
47
38
20
14
3
-17
-19
4
22
24
41
44
27
14
-9
-19
-18
3
17
30
48
46
31
18
-5
-23
-19
8
35
49
56
45
27
13
-12
-5
10
27
40
68
77
57
40
28
4
11
19
43
52
70
68
60
45
31
12
19
29
42
52
79
81
74
51
40
9
25
28
37
43
76
74
64
45
34
13
15
19
34
42
67
56
42
22
14
-22
-21
-3
15
18
55
54
33
16
9
-29
-29
-16
12
25
42
43
27
9
8
-20
-12
-4
12
23
48
36
27
7
-7
-35
-35
-20
4
18
41
41
20
0
-2
-14
-17
-9
7
21
37
34
15
-3
-9
-27
-25
-18
-8
10
43
49
23
4
-7
-18
-18
-4
19
42
50
33
18
6
-12
-19
-16
3
13
35
37
29
18
8
-14
-18
-15
5
13
32
45
37
14
6
-24
-32
-22
5
17
37
46
43
18
9
-19
-19
-16
2
8
25
30
27
9
17
-10
-8
-2
13
20
43
35
31
21
8
-22
-22
-20
1
16
52
43
36
13
5
-32
-31
-14
6
20
43
34
40
21
5
-36
-36
-19
5
17
49
60
35
6
-8
-29
-21
-15
6
11
46
45
41
26
14
-31
-29
-13
8
33
59
53
25
7
1
-24
-24
-17
-2
12
35
46
31
12
-4
-14
-16
-7
18
28
41
37
25
6
-11
-32
-10
17
35
43
52
42
27
23
3
-17
-10
4
14
26
43
38
22
17
5
-10
-17
-1
6
28
46
37
21
2
-27
-32
-21
-1
11
51
59
27
14
0
-22
-20
-12
0
17
47
41
29
4
-4
-18
-14
-14
0
1
28
36
36
16
2
-22
-20
-1
24
34
60
60
54
26
19
-3
4
8
28
42
69
60
36
16
-11
-39
-39
-26
-18
-7
34
28
20
2
-10
-35
-30
-16
16
21
43
42
26
7
4
-27
-23
-11
13
15
40
37
24
2
-3
-19
-14
6
22
24
52
53
35
21
22
-9
-20
-13
24
33
48
36
23
6
10
-7
-18
2
23
31
44
48
27
1
-18
-34
-21
-4
16
38
57
65
55
35
19
0
-7
11
32
43
54
54
38
27
18
13
10
25
32
41
60
68
51
34
12
9
8
24
50
68
87
84
60
42
17
16
21
41
48
66
79
75
66
53
21
20
32
55
67
89
92
86
70
53
28
16
8
24
41
62
65
64
46
31
2
3
12
28
25
55
66
60
37
15
-19
-7
4
19
16
50
47
39
17
13
-18
-18
-4
6
21
56
49
30
10
4
-22
-25
-13
10
16
47
54
42
19
12
-13
3
2
7
11
37
43
44
28
6
-13
-4
11
19
24
34
37
26
12
2
-27
-35
-17
6
19
53
44
31
11
-1
-19
-26
-3
19
20
38
48
30
15
3
-18
-15
0
35
48
60
58
29
15
1
-17
-15
6
26
39
61
57
33
17
-10
-23
-27
-2
25
33
44
38
21
14
-6
-15
-7
15
20
47
51
53
31
23
-5
-13
-13
11
23
51
59
46
30
19
-13
-17
-17
-9
7
36
42
41
21
13
-18
-16
-13
10
24
54
55
53
28
15
-17
-22
-10
13
23
48
52
50
25
13
-16
-11
-2
26
37
55
50
43
28
18
-5
-5
-9
11
24
56
48
38
15
0
-31
-31
-15
10
21
50
55
38
13
2
-13
-4
10
33
41
71
73
47
21
15
-14
-11
2
23
35
63
69
55
32
19
-3
-7
-7
14
34
62
61
33
1
-10
-21
-21
-3
13
18
39
39
25
10
-1
-22
-7
8
24
39
52
50
31
11
-8
-16
-21
-1
22
36
49
41
25
9
-4
-14
-6
14
25
39
58
55
52
31
0
-6
6
28
37
60
64
63
49
40
19
20
11
18
30
50
48
27
-9
-20
-44
-43
-19
0
18
49
59
54
29
18
-15
-20
-16
8
20
45
53
49
30
16
-8
-4
4
21
25
55
49
43
25
19
-4
-6
1
28
38
64
58
55
42
27
-5
-5
6
38
50
67
62
48
28
20
-9
-9
7
24
37
65
63
48
33
26
1
11
27
42
42
69
68
49
31
20
-5
-5
9
40
54
75
85
63
36
25
14
25
47
61
74
92
94
75
52
51
33
25
50
72
84
96
94
82
51
36
29
38
61
78
89
98
91
78
67
46
35
36
53
63
70
86
86
70
57
38
23
31
44
55
81
85
88
65
46
14
1
14
35
45
74
77
66
47
31
7
3
9
25
35
49
56
49
36
30
4
4
12
28
46
73
62
51
24
6
-19
-7
0
26
25
52
65
60
39
26
-2
6
13
25
30
59
61
54
27
20
-9
-4
13
31
37
68
72
58
31
34
-3
-8
6
25
39
66
72
54
26
17
-14
-6
6
27
36
73
76
58
37
23
3
-4
14
36
55
80
69
57
34
16
-7
4
17
25
41
72
66
56
32
20
-4
-9
12
38
49
62
71
54
39
21
2
-1
18
44
55
79
84
62
29
12
-6
-1
22
31
41
69
68
55
35
21
5
9
23
42
59
72
62
42
24
1
-1
-2
23
38
61
68
67
44
32
17
3
7
25
38
64
57
55
49
40
19
7
6
20
33
63
66
62
38
21
5
6
17
30
46
78
66
54
36
27
2
1
9
37
53
81
76
62
52
38
-3
0
6
26
44
72
59
43
41
42
9
5
5
20
36
67
67
53
36
37
7
-1
17
43
54
77
74
66
37
20
-10
-4
16
38
34
68
81
68
38
20
6
13
23
43
55
76
83
65
44
28
7
19
37
53
63
78
83
58
41
23
15
12
30
57
78
97
83
59
36
23
12
6
20
46
48
63
55
37
27
19
6
8
16
34
58
79
77
55
38
14
1
11
36
46
68
74
66
51
38
13
-1
5
27
49
71
68
61
38
31
21
29
28
39
53
75
78
64
55
42
15
15
21
55
72
83
81
62
31
14
-11
-7
-4
14
27
62
64
50
42
38
13
26
24
38
51
79
73
57
43
37
14
10
24
37
42
72
76
64
38
39
20
27
42
50
51
79
74
54
33
33
17
26
33
43
52
86
74
59
48
49
22
24
38
54
63
93
94
65
43
30
12
15
38
48
65
90
86
69
46
28
19
25
43
60
75
99
103
95
62
36
22
21
42
64
77
98
101
79
62
46
40
51
64
75
99
113
112
86
79
59
43
47
68
90
102
115
118
97
79
64
62
61
62
80
98
115
113
91
73
48
53
56
65
70
92
106
98
85
63
31
37
50
73
74
90
86
71
55
43
17
27
34
48
57
76
77
77
58
52
22
16
21
38
48
79
72
70
58
48
23
13
18
39
47
73
77
68
48
40
15
8
33
59
69
95
86
71
51
46
13
9
18
29
31
64
73
60
45
36
20
21
25
41
56
82
88
72
52
42
16
19
32
47
61
85
87
68
51
34
19
13
31
43
59
83
79
62
47
31
18
21
37
56
74
92
89
71
58
40
22
7
12
29
59
84
79
58
53
33
22
26
41
55
72
82
66
58
42
17
10
21
48
64
82
86
71
56
53
28
18
31
53
57
74
78
66
48
35
8
9
16
43
61
75
83
78
54
35
18
30
25
44
54
79
81
78
55
57
30
28
23
46
57
88
77
81
61
51
25
23
32
47
42
82
86
73
55
42
3
6
20
47
60
89
86
68
44
42
10
14
29
54
61
90
100
82
52
38
15
12
20
39
50
81
88
68
52
48
25
19
35
57
60
79
87
67
48
30
4
14
36
47
58
83
85
70
44
34
25
23
35
50
69
96
95
70
59
52
32
29
39
61
73
92
95
72
41
33
25
24
37
49
70
90
87
77
59
37
27
24
47
64
87
93
92
79
65
38
22
28
52
74
91
100
90
71
54
26
35
31
53
66
88
88
79
55
34
12
24
25
52
77
97
83
67
50
49
24
21
17
39
57
82
80
80
57
56
25
27
30
50
62
90
86
79
64
51
23
39
55
64
75
107
105
90
80
86
47
43
56
81
84
101
95
87
54
41
17
11
5
20
32
69
76
73
60
62
34
28
50
67
79
95
95
78
52
46
34
35
47
56
73
95
97
87
66
56
31
30
53
72
84
101
95
86
64
52
33
39
60
59
70
87
92
84
70
59
37
46
56
67
85
97
87
66
68
57
39
50
64
82
98
116
109
91
77
61
45
40
60
73
106
122
114
92
76
62
58
63
75
85
112
124
111
96
80
60
64
68
80
94
121
129
121
106
90
68
69
83
99
108
130
142
131
105
85
65
76
86
109
116
141
146
136
108
89
58
66
75
94
102
131
115
103
87
78
43
42
43
66
76
101
110
91
75
65
35
37
45
66
78
96
92
87
66
53
24
31
50
75
82
114
108
90
68
56
31
37
49
66
76
99
92
77
57
50
35
35
48
63
69
89
87
71
54
41
25
26
43
56
71
98
91
68
63
46
21
22
42
70
81
101
105
89
64
49
39
43
56
68
87
104
104
86
62
36
35
28
48
70
84
100
93
84
59
27
22
36
49
62
74
89
80
67
60
39
41
48
70
77
94
100
92
75
63
39
37
34
51
70
108
102
97
74
60
40
37
41
61
72
97
99
89
69
57
26
23
29
54
74
102
94
81
66
57
29
37
45
64
76
99
105
87
69
64
31
31
45
64
67
90
90
79
63
52
21
27
40
65
68
94
92
78
57
55
19
13
46
78
86
118
116
89
65
56
33
33
40
60
69
87
93
78
48
42
26
27
46
77
86
103
93
75
52
39
25
27
42
66
84
109
105
90
69
56
33
27
49
63
81
100
105
84
83
72
56
48
53
74
93
112
110
91
69
45
32
25
43
62
91
106
95
68
49
28
30
30
56
61
90
94
98
75
59
25
21
30
50
66
92
101
87
63
44
21
24
33
52
68
95
100
88
62
52
27
36
40
68
81
111
99
89
82
82
50
44
47
69
95
132
122
110
86
74
37
36
39
44
46
80
72
61
45
43
6
8
29
48
72
97
99
90
70
58
19
23
35
59
66
98
98
85
64
57
29
38
49
70
71
94
101
89
66
52
33
29
48
66
86
103
92
85
71
59
46
43
53
77
84
88
88
69
57
44
37
36
58
78
85
108
108
88
71
46
35
41
60
79
94
107
104
81
68
56
55
58
66
80
105
125
109
86
84
58
54
64
71
84
107
121
116
107
99
75
68
75
89
107
131
130
132
102
87
60
69
66
80
98
128
134
132
120
109
77
71
81
90
100
125
123
123
100
81
53
52
57
78
93
125
114
95
72
54
24
31
42
67
72
91
97
92
71
62
41
32
39
51
64
100
91
92
80
59
21
21
32
52
64
99
93
70
44
45
26
20
34
57
64
89
99
81
57
46
19
19
33
56
63
92
94
83
61
49
32
30
40
61
74
92
80
64
50
35
14
19
30
53
81
95
88
69
48
42
23
27
48
59
75
94
89
68
56
41
20
30
51
63
75
82
76
64
43
31
25
26
47
59
81
96
88
62
46
34
28
23
45
60
75
85
85
70
53
23
21
27
45
50
69
80
87
65
49
13
16
19
38
55
84
86
68
41
36
14
25
31
47
62
96
96
87
59
50
20
24
26
47
54
71
76
68
49
47
23
19
28
45
44
83
82
68
51
51
10
12
21
43
44
77
80
62
45
35
11
13
34
59
64
95
100
81
52
35
6
9
24
45
54
81
74
63
53
42
17
25
47
58
56
77
74
51
24
22
8
11
29
50
70
91
76
62
48
34
12
16
46
57
64
80
71
52
39
32
16
12
30
47
66
85
87
66
36
15
3
11
31
44
71
82
83
66
46
24
16
16
31
44
69
85
83
56
40
17
16
29
44
46
74
89
79
66
59
32
23
25
42
60
82
85
75
57
52
29
28
31
55
66
93
89
83
52
41
23
22
19
43
61
85
83
69
50
46
14
11
17
37
53
85
88
77
55
53
21
16
24
39
56
76
71
66
42
29
18
22
27
56
65
90
86
64
52
42
15
30
46
63
80
104
94
70
51
41
16
12
30
56
77
101
98
88
63
47
14
14
30
39
42
57
63
53
35
33
18
23
46
72
80
90
87
75
58
42
18
23
46
61
81
96
91
71
51
40
27
32
50
69
82
80
84
74
51
34
25
40
53
66
78
91
99
76
58
36
34
42
58
61
86
100
94
69
59
33
36
50
73
82
94
102
98
82
77
46
28
31
63
63
89
101
97
83
82
51
45
51
73
84
109
105
102
84
69
49
51
53
81
100
123
122
114
100
93
57
68
79
83
99
141
137
119
106
94
70
72
84
105
101
133
121
100
72
80
69
73
86
101
96
118
124
112
95
82
50
56
63
80
96
122
121
94
75
56
27
30
52
73
83
95
94
83
72
50
31
41
53
70
87
96
96
78
64
48
22
21
45
79
89
98
91
79
63
38
32
37
53
77
97
110
99
65
40
31
31
30
57
72
87
109
101
73
63
43
30
22
45
67
93
102
103
87
60
35
30
31
54
73
96
101
91
66
61
44
43
48
60
75
100
102
91
74
57
33
38
51
73
82
105
105
92
70
64
35
35
44
65
72
102
107
85
72
64
33
42
61
68
71
99
101
98
78
66
30
29
31
60
74
98
110
95
78
67
36
34
58
72
74
103
104
88
73
60
35
29
53
80
78
103
108
91
65
53
35
34
45
67
89
107
90
66
47
37
18
11
23
47
65
80
85
71
51
35
14
18
35
61
82
81
80
55
37
31
10
20
39
42
54
73
71
61
50
35
26
33
39
46
70
82
82
59
44
18
7
16
36
50
64
69
65
50
34
13
18
19
40
46
73
80
78
53
38
0
5
18
45
52
72
77
74
51
42
22
29
17
34
48
73
78
71
47
28
-3
1
27
50
60
91
80
66
40
26
-4
10
19
49
59
89
85
68
54
35
-2
3
15
49
59
83
80
73
45
38
32
32
43
57
64
83
78
66
50
44
20
23
46
65
81
96
96
84
58
34
5
15
37
55
68
95
92
67
48
39
23
21
34
47
52
78
81
65
40
28
14
14
35
51
68
87
88
73
61
38
29
31
44
58
71
76
60
54
46
40
22
25
39
54
73
91
89
74
63
48
33
37
51
73
94
103
103
88
76
44
33
31
44
46
65
74
67
41
26
9
13
18
40
62
97
102
91
67
59
36
34
38
48
62
86
89
87
70
52
29
38
48
71
74
94
91
86
68
62
42
43
41
48
50
89
91
86
78
66
36
37
47
70
76
100
99
91
73
66
43
37
44
62
77
115
115
103
93
68
33
41
56
75
81
107
101
93
70
69
46
49
69
87
98
122
122
106
88
71
49
51
68
86
95
127
135
118
101
90
72
71
77
95
118
142
140
129
118
95
72
84
97
107
129
147
143
124
107
81
66
80
95
116
123
144
139
113
97
82
68
73
86
96
107
119
114
94
80
55
46
53
69
79
106
110
97
86
80
54
54
60
67
83
115
111
107
89
79
51
48
43
58
66
94
109
101
81
67
47
47
50
73
82
107
107
102
81
81
41
33
42
71
84
119
122
112
81
61
41
43
43
67
93
117
113
104
76
66
34
35
47
72
84
120
122
108
78
81
58
59
64
74
84
122
119
107
93
80
65
59
61
79
90
116
123
103
84
73
49
57
73
90
102
125
124
110
86
70
60
74
98
105
115
126
103
91
72
65
55
53
76
94
116
143
138
108
87
71
57
65
78
91
109
125
127
104
88
76
60
61
79
102
111
123
127
106
96
67
54
61
87
102
123
130
116
97
88
71
68
67
74
77
109
132
126
113
99
75
68
75
97
112
128
131
113
97
83
56
69
85
100
107
125
122
112
100
87
64
74
75
96
108
126
124
119
103
95
71
73
73
79
94
127
129
117
98
93
67
66
81
101
110
143
133
119
109
99
76
82
79
106
116
144
143
126
109
99
84
96
102
108
113
140
141
134
108
99
77
65
85
107
121
131
123
109
96
96
71
63
71
89
106
133
135
119
95
88
71
63
78
104
121
138
136
128
106
90
68
69
82
101
114
127
122
114
103
86
73
81
98
109
132
152
139
123
119
108
89
90
104
117
148
156
150
132
114
87
85
81
91
92
106
111
111
81
67
36
40
56
78
101
128
131
127
107
89
62
63
59
79
98
130
137
126
112
106
73
82
90
110
109
130
122
112
103
92
61
65
73
98
108
135
139
133
103
75
55
63
77
100
101
135
142
127
106
100
60
62
70
96
112
135
140
134
108
106
83
80
92
115
117
143
137
125
111
94
63
66
89
116
120
149
160
146
131
125
101
102
116
133
139
152
150
142
129
112
94
103
122
141
151
165
171
156
143
130
109
107
127
147
167
187
178
162
141
128
103
100
122
145
166
170
160
146
132
115
109
109
120
127
139
147
143
124
113
88
83
80
103
122
147
150
139
123
103
79
67
73
86
98
123
133
133
111
98
70
68
66
92
105
127
134
128
117
101
82
84
83
103
119
136
133
116
92
82
60
65
75
107
117
136
130
133
104
84
62
67
80
105
116
138
141
123
95
90
61
64
79
97
105
142
143
128
98
90
71
74
88
102
113
144
139
122
104
97
79
73
87
105
119
137
137
120
95
92
77
76
89
107
112
130
134
120
112
102
70
81
101
116
133
154
147
120
101
91
68
66
78
99
109
133
144
131
107
87
70
62
84
99
110
136
130
113
102
89
70
70
100
112
122
134
132
108
94
81
73
79
108
131
130
135
127
101
84
70
69
80
102
119
137
143
136
111
95
65
53
66
100
117
135
128
127
107
97
76
71
76
96
106
120
126
129
102
92
68
83
89
103
105
136
132
127
112
106
80
79
83
93
102
132
130
114
93
94
68
63
78
112
118
137
129
111
95
88
65
64
78
104
111
139
138
124
111
89
55
66
82
102
118
146
141
126
100
84
59
61
88
115
123
155
144
119
105
91
75
80
96
108
132
147
135
119
107
81
53
65
101
116
123
144
139
117
100
90
68
62
83
104
115
125
118
107
98
94
81
83
95
99
109
132
121
112
96
77
57
48
73
98
120
126
123
117
94
67
66
78
98
116
141
146
136
118
104
81
79
82
107
121
135
134
143
124
96
71
66
67
85
92
113
111
101
86
90
69
63
75
100
105
137
132
119
105
90
62
68
71
85
99
128
132
137
115
106
78
77
81
97
105
127
119
123
114
111
85
79
84
100
108
138
142
135
112
100
78
77
94
111
110
121
121
118
96
94
77
88
93
113
120
146
148
119
104
101
73
76
88
112
123
143
147
135
120
105
80
83
102
117
134
154
158
143
119
101
90
89
114
128
128
150
163
151
126
112
97
106
122
129
145
159
149
138
128
117
107
116
140
150
161
178
166
146
128
103
99
94
117
129
157
174
167
147
133
103
95
88
109
111
136
144
141
117
106
78
70
72
88
102
137
143
118
101
88
74
68
73
98
109
131
136
130
113
100
69
64
76
102
105
119
123
126
101
77
59
74
92
101
108
131
121
105
93
92
65
64
71
90
98
136
126
115
88
82
59
71
78
95
106
131
133
125
101
92
70
63
77
93
97
123
121
115
99
87
65
55
73
96
117
135
137
117
83
87
67
64
74
99
117
143
139
116
90
69
49
60
73
88
112
130
128
120
105
92
69
63
73
91
112
136
133
121
98
79
61
67
84
91
107
132
132
112
95
77
61
64
90
114
124
125
114
97
85
61
49
57
82
94
132
139
133
105
81
52
49
51
67
79
108
120
124
112
101
60
66
70
93
105
131
129
114
96
90
69
66
62
86
105
130
134
112
83
76
54
53
58
65
80
117
120
120
107
88
59
61
76
100
98
125
121
104
82
75
42
48
65
95
105
135
129
118
88
93
65
59
66
84
87
107
105
108
85
79
53
52
71
91
100
121
118
98
79
74
64
65
84
97
102
128
129
110
96
88
70
77
89
101
112
130
126
98
89
85
71
73
91
104
111
118
120
114
95
82
65
67
82
100
114
115
120
107
93
75
62
70
79
93
113
128
119
102
102
76
64
72
92
101
118
127
120
98
83
63
49
53
75
92
113
116
119
103
91
55
54
63
81
92
121
134
125
108
99
79
74
79
93
111
138
143
142
119
110
82
88
93
103
115
125
103
98
82
72
36
31
40
66
73
114
123
115
95
97
64
59
67
91
98
129
131
120
95
76
50
46
62
88
109
138
140
124
104
99
69
67
80
93
99
126
127
120
103
89
66
67
86
112
117
129
125
113
101
90
66
73
93
112
116
138
137
123
111
94
68
73
94
110
124
142
153
137
120
96
73
74
92
109
127
161
158
137
123
104
86
95
107
122
142
155
144
132
122
113
94
99
126
146
162
160
158
141
121
112
113
110
130
144
168
177
172
163
144
110
112
122
127
122
155
155
147
137
122
99
108
110
122
127
145
139
140
123
106
94
86
83
87
102
143
148
141
123
108
73
71
81
94
108
139
144
126
100
84
58
61
70
91
110
134
129
121
103
99
75
75
81
101
105
139
140
117
88
88
56
49
70
98
104
134
124
110
99
88
59
63
80
97
108
139
136
121
98
102
77
61
76
97
106
121
118
108
96
84
65
74
85
103
109
130
135
122
107
93
65
58
77
100
120
139
132
110
94
83
61
66
88
102
116
136
137
122
109
83
73
82
98
111
126
135
137
110
90
68
55
58
73
96
125
128
129
119
104
76
59
61
97
114
129
130
111
92
82
69
78
76
87
103
133
138
135
120
104
71
60
70
88
104
124
125
129
107
97
58
52
69
91
107
136
131
124
101
88
62
68
80
93
96
134
131
121
101
94
66
62
73
96
106
137
150
128
100
91
50
58
71
83
100
134
135
122
113
99
66
71
91
115
122
136
133
122
99
90
75
69
83
109
120
140
133
116
93
81
57
59
74
96
105
135
129
98
88
86
62
66
86
113
122
121
121
107
88
73
59
64
78
98
101
110
108
97
80
72
57
64
83
93
111
124
120
107
88
69
68
80
97
120
137
146
139
116
105
67
71
93
116
130
143
143
123
105
78
53
50
54
66
74
96
100
100
90
77
46
51
68
90
93
119
124
116
87
85
75
77
72
89
92
113
117
116
100
102
69
65
74
94
93
128
137
124
103
93
67
64
72
94
105
134
130
126
105
83
64
76
77
103
105
137
138
113
95
87
63
73
82
102
107
138
142
119
96
95
74
74
92
108
122
150
145
125
102
101
76
82
99
121
122
144
151
143
118
106
94
93
116
136
145
171
163
146
129
113
103
100
114
136
153
170
169
154
130
123
104
104
120
143
153
165
170
155
132
107
98
102
115
129
150
163
162
133
115
94
90
92
102
112
133
146
142
126
112
81
71
79
87
97
117
121
119
103
94
64
58
58
82
105
126
126
131
115
92
51
54
48
66
88
122
120
112
94
86
63
67
70
92
99
125
127
124
100
88
65
62
73
96
108
134
126
115
92
77
55
68
71
89
104
137
139
115
91
78
56
50
65
84
92
110
114
102
83
77
56
67
82
102
108
134
133
110
96
86
53
51
76
93
107
136
142
109
97
80
52
59
83
102
105
120
118
109
88
75
57
45
66
94
112
125
116
101
75
67
57
60
80
96
111
127
121
112
89
71
53
47
66
82
101
118
112
94
77
60
57
60
76
89
103
118
117
95
81
51
46
53
77
91
109
113
115
85
78
60
62
71
82
81
103
114
107
95
84
65
66
73
90
102
121
110
94
82
69
57
62
57
80
87
111
111
97
79
68
38
52
65
88
94
125
116
102
87
85
56
57
53
73
92
122
127
108
89
84
55
49
54
75
89
120
128
118
98
93
59
58
66
84
100
125
124
110
87
67
43
56
72
85
91
128
116
103
86
73
47
54
78
97
92
117
114
106
86
67
45
41
49
61
92
121
117
98
75
57
45
47
65
73
87
105
103
85
79
61
42
47
59
94
104
112
111
98
82
57
50
59
81
96
104
124
125
104
91
82
77
82
86
88
100
96
83
53
49
18
8
19
48
65
103
112
114
91
72
37
32
41
69
80
110
119
108
81
77
48
53
57
76
90
113
109
97
84
83
60
62
63
75
91
114
110
104
94
84
47
45
65
81
83
120
121
112
89
77
40
38
58
78
87
123
119
97
70
68
46
54
70
89
105
129
124
108
90
79
52
58
70
89
100
129
124
113
92
81
48
54
75
99
104
136
141
121
94
93
75
77
91
112
119
141
140
121
94
85
71
83
104
124
134
157
159
131
106
88
62
66
92
116
132
140
129
121
102
91
70
66
88
95
111
130
118
109
99
58
55
46
57
79
92
106
111
91
71
49
44
53
70
96
114
117
107
72
63
35
30
26
54
69
94
104
96
80
70
44
42
47
68
78
104
108
91
65
58
33
27
30
52
68
98
98
95
65
53
26
30
41
65
67
98
107
100
75
63
36
46
58
69
70
93
95
91
68
66
33
31
44
69
78
96
97
90
65
59
33
31
42
67
69
89
100
88
65
54
37
39
48
61
71
102
106
86
73
57
24
22
45
64
79
102
102
73
52
55
43
43
59
75
80
92
93
70
49
48
26
25
53
82
99
99
75
68
51
31
24
35
54
67
77
91
83
61
48
35
25
26
41
56
82
91
74
49
44
25
33
40
53
72
95
96
82
61
44
23
32
43
55
65
86
95
91
75
59
31
28
34
55
57
78
79
76
62
45
17
20
22
34
50
92
89
85
72
46
2
15
21
55
64
81
75
67
57
49
19
25
29
47
63
97
