-51
-46
-33
-17
-19
10
7
-30
-55
-88
-46
-48
-35
-26
-10
12
0
-23
-45
-87
-45
-46
-39
-17
-12
12
3
-16
-71
-87
-42
-39
-28
-25
-14
1
-7
-25
-59
-83
-54
-50
-29
-9
-7
6
6
-17
-56
-89
-49
-43
-28
-16
-15
19
-8
-20
-58
-78
-42
-46
-33
-7
-7
15
-9
-38
-65
-77
-48
-45
-29
-21
-19
16
-3
-17
-75
-76
-57
-52
-33
-22
-16
10
-9
-27
-81
-66
-55
-62
-39
-24
-18
10
-20
-45
-83
-69
-49
-53
-43
-10
-4
10
-11
-42
-87
-67
-41
-45
-28
-17
1
8
-15
-21
-72
-60
-40
-21
-19
-5
-1
15
-12
-31
-81
-44
-40
-32
-26
-17
9
15
-9
-40
-88
-60
-50
-50
-26
-12
0
9
-38
-39
-90
-73
-49
-46
-29
-16
2
1
-27
-61
-91
-66
-45
-40
-27
-28
-2
-9
-28
-62
-96
-69
-60
-53
-28
-23
3
-6
-28
-64
-96
-60
-51
-42
-26
-18
12
-10
-43
-77
-110
-79
-52
-71
-48
-18
22
31
16
-12
-15
27
42
68
83
102
120
89
41
1
-23
-15
-41
-41
-25
-31
-4
-19
-46
-82
-98
-63
-61
-46
-25
-27
9
-26
-33
-82
-77
-54
-55
-37
-26
-27
13
-14
-33
-81
-79
-46
-36
-37
-29
-18
18
-17
-31
-78
-72
-54
-46
-36
-28
-19
2
-22
-36
-79
-70
-49
-39
-35
-13
-7
17
-18
-31
-79
-72
-51
-45
-30
-16
2
13
-17
-30
-86
-61
-42
-36
-36
-19
4
12
-12
-30
-80
-50
-43
-37
-15
-15
22
12
-29
-42
-71
-41
-43
-24
-18
-5
13
12
-7
-28
-67
-31
-33
-41
-21
9
33
25
4
-32
-59
-35
-25
-15
1
11
36
29
-2
-30
-63
-24
-13
-7
10
1
37
18
-4
-32
-77
-32
-24
-21
2
7
30
25
-10
-51
-79
-47
-47
-24
-16
-13
19
0
-28
-59
-76
-51
-50
-37
-20
-15
10
-6
-53
-69
-90
-58
-55
-32
-21
-22
1
-12
-34
-73
-87
-53
-52
-47
-33
-28
-7
-15
-37
-100
-84
-61
-45
-33
-27
-33
0
-15
-38
-77
-76
-61
-62
-38
-21
-23
-3
-31
-37
-83
-76
-64
-52
-42
-27
-11
5
-20
-49
-82
-68
-56
-52
-38
-24
-13
-5
-26
-44
-84
-64
-62
-51
-31
-20
-2
5
-30
-53
-86
-68
-53
-49
-37
-42
-8
11
-21
-45
-94
-67
-51
-41
-38
-18
-1
3
-24
-44
-88
-74
-57
-53
-33
-23
1
-4
-31
-61
-97
-57
-53
-39
-34
-32
3
-6
-36
-61
-90
-63
-62
-52
-21
-27
-3
-8
-30
-66
-95
-60
-58
-41
-27
-29
0
-11
-32
-62
-97
-69
-69
-45
-17
-23
11
-17
-41
-66
-102
-60
-54
-49
-37
-20
4
-8
-34
-72
-95
-71
-57
-48
-21
-26
4
-12
-52
-76
-93
-58
-66
-48
-37
-26
3
-14
-36
-76
-77
-55
-65
-45
-26
-24
12
-14
-35
-65
-73
-63
-56
-36
-26
-20
17
-9
-32
-82
-71
-49
-41
-28
-9
1
7
-9
-42
-78
-69
-49
-45
-49
-19
-6
0
-16
-32
-76
-62
-56
-56
-41
-22
-7
1
-28
-48
-87
-68
-64
-49
-41
-27
-14
-3
-21
-47
-96
-73
-55
-56
-39
-20
-18
-5
-36
-50
-88
-65
-55
-61
-35
-25
-5
-7
-34
-58
-99
-73
-51
-65
-35
-19
-6
-14
-55
-75
-109
-91
-46
-33
-3
34
72
77
58
34
29
75
85
90
98
81
91
63
28
-34
-86
-60
-55
-48
-34
-20
-13
-5
-38
-73
-90
-63
-52
-44
-27
-22
5
5
-27
-70
-92
-63
-60
-51
-22
-15
14
-6
-36
-73
-102
-53
-55
-45
-22
-15
8
-3
-32
-73
-95
-62
-58
-38
-18
-23
7
-5
-24
-71
-87
-51
-57
-39
-26
-14
16
-8
-31
-70
-77
-48
-58
-41
-10
-28
14
-3
-28
-75
-71
-48
-40
-43
-13
-8
15
-11
-35
-78
-58
-41
-36
-34
-15
-10
18
-12
-28
-73
-60
-35
-39
-21
7
-1
19
-1
-17
-65
-53
-31
-23
-16
0
12
30
-3
-13
-67
-38
-28
-20
-9
8
26
30
4
-11
-61
-37
-20
-11
-11
-2
23
20
-6
-24
-57
-26
-28
-32
-1
-1
19
18
-1
-38
-82
-55
-37
-25
-18
-6
18
9
-6
-61
-97
-47
-42
-40
-24
-18
-3
2
-15
-56
-96
-63
-51
-38
-24
-20
9
-1
-36
-65
-99
-61
-47
-51
-35
-17
11
0
-31
-70
-84
-60
-54
-31
-25
-44
2
-12
-26
-71
-97
-53
-56
-46
-29
-17
11
-6
-36
-74
-91
-56
-59
-43
-22
-27
3
-10
-34
-66
-96
-57
-60
-45
-17
-22
7
-10
-43
-78
-77
-53
-56
-34
-35
-26
9
-14
-37
-83
-76
-57
-54
-39
-11
-17
-1
-22
-34
-81
-82
-56
-51
-34
-27
-18
0
-30
-33
-86
-67
-52
-52
-33
-28
-12
6
-25
-48
-88
-71
-58
-58
-40
-20
-8
0
-27
-33
-96
-79
-52
-44
-32
-15
-12
-2
-39
-37
-85
-69
-62
-51
-36
-13
3
0
-45
-37
-94
-67
-52
-45
-38
-18
11
4
-30
-47
-82
-63
-56
-63
-23
-16
5
-9
-25
-59
-87
-57
-40
-45
-18
-14
22
5
-24
-52
-84
-53
-34
-31
-22
-19
15
1
-17
-59
-80
-65
-60
-35
-36
-24
12
-12
-32
-68
-100
-56
-48
-50
-27
-23
-3
-18
-30
-67
-98
-65
-68
-45
-29
-26
-4
-10
-34
-71
-100
-64
-70
-46
-21
-35
6
-8
-35
-90
-107
-60
-52
-44
-29
-26
7
-33
-54
-94
-100
-74
-69
-53
-21
3
52
50
45
8
19
63
79
96
107
90
114
64
30
-34
-53
-45
-55
-50
-29
-22
-12
-41
-57
-88
-74
-65
-62
-42
-25
-19
-13
-23
-31
-91
-72
-57
-51
-29
-18
-5
0
-39
-38
-96
-52
-54
-52
-36
-13
6
5
-17
-45
-95
-71
-56
-45
-33
-24
1
1
-28
-54
-81
-62
-59
-45
-26
-31
4
-3
-25
-41
-80
-61
-47
-32
-33
-9
13
5
-33
-48
-78
-43
-70
-45
-19
-12
18
13
-21
-66
-91
-43
-46
-31
-9
-9
9
2
-22
-55
-77
-43
-44
-25
-9
-15
15
10
-24
-45
-65
-27
-26
-17
2
-6
30
25
1
-46
-69
-26
-26
-8
1
14
45
17
-5
-40
-55
-27
-28
-4
7
10
36
20
-3
-47
-37
-31
-32
-13
2
-4
28
4
-19
-66
-66
-38
-34
-22
-7
-8
16
-3
-31
-75
-86
-49
-50
-34
-11
-11
12
-13
-30
-84
-74
-51
-56
-35
-22
-20
14
-19
-35
-92
-72
-60
-54
-45
-14
-13
2
-29
-34
-81
-80
-50
-57
-44
-31
-15
-7
-31
-37
-76
-67
-50
-48
-37
-25
-12
6
-24
-57
-89
-72
-62
-42
-30
-16
12
0
-32
-45
-103
-67
-52
-53
-24
-17
0
-2
-29
-53
-102
-56
-48
-39
-17
-28
13
3
-32
-62
-97
-65
-50
-49
-26
-21
5
-5
-34
-56
-102
-62
-49
-34
-29
-27
6
-1
-39
-60
-93
-59
-51
-54
-35
-15
4
-3
-29
-64
-91
-61
-53
-58
-27
-26
20
-5
-33
-82
-94
-57
-50
-47
-29
-18
-3
-7
-34
-65
-80
-66
-60
-48
-29
-22
6
-19
-34
-74
-78
-47
-50
-40
-28
-4
10
-10
-29
-58
-80
-53
-55
-36
-14
-5
21
-1
-33
-70
-71
-49
-41
-30
-28
-21
3
-17
-41
-81
-66
-71
-49
-43
-24
-6
-7
-32
-49
-86
-78
-63
-49
-43
-37
-16
-2
-16
-41
-87
-72
-55
-51
-41
-29
-14
-10
-33
-43
-99
-66
-53
-55
-43
-28
-10
-5
-34
-54
-93
-77
-64
-62
-47
-41
-20
-6
-23
-25
-53
0
25
36
61
95
128
136
110
75
7
18
24
13
5
-12
5
-1
-33
-75
-98
-69
-67
-63
-38
-31
-10
-1
-28
-78
-95
-58
-55
-46
-19
-18
5
2
-38
-61
-99
-56
-59
-56
-20
-20
4
-6
-35
-70
-92
-53
-55
-41
-27
-20
8
-12
-42
-74
-92
-51
-48
-47
-18
-29
10
4
-28
-68
-88
-47
-48
-40
-31
-28
11
-9
-33
-63
-88
-57
-47
-28
-22
-4
13
-6
-34
-71
-73
-61
-54
-24
-15
-18
17
-4
-13
-64
-66
-46
-44
-29
-6
-5
29
-5
-19
-65
-58
-37
-34
-25
6
11
33
10
-18
-80
-31
-17
-26
-15
1
23
33
1
-21
-59
-39
-25
-15
-19
16
31
29
5
-4
-54
-39
-23
-12
-16
8
30
18
0
-16
-58
-38
-29
-20
-18
-6
17
4
-13
-44
-82
-51
-48
-44
-23
-22
14
-2
-23
-47
-86
-59
-50
-49
-29
-22
15
-6
-25
-67
-97
-61
-53
-45
-29
-27
1
-6
-20
-59
-95
-70
-59
-36
-24
-25
-6
0
-29
-70
-102
-63
-50
-47
-38
-21
16
-7
-19
-77
-98
-61
-56
-42
-26
-22
5
2
-38
-63
-101
-64
-60
-40
-20
-23
8
-7
-29
-72
-91
-47
-57
-32
-20
-22
9
-7
-32
-91
-87
-57
-55
-34
-27
-21
-2
-15
-36
-77
-80
-48
-48
-41
-17
-20
8
-21
-29
-82
-75
-54
-59
-42
-20
-15
9
-21
-41
-74
-75
-63
-50
-47
-25
-13
3
-31
-38
-85
-58
-47
-51
-44
-21
-14
-3
-14
-34
-76
-78
-64
-42
-25
-15
10
15
-16
-23
-70
-53
-42
-41
-36
-23
8
10
-13
-39
-86
-45
-46
-30
-28
-17
17
13
-25
-45
-89
-67
-45
-51
-18
-16
6
-1
-29
-45
-100
-67
-49
-46
-24
-27
10
11
-28
-60
-86
-61
-48
-50
-19
-16
13
0
-32
-64
-87
-47
-50
-45
-13
-7
4
-1
-13
-51
-73
-52
-59
-44
-38
-30
-7
-11
-33
-70
-74
-20
-17
16
47
61
101
92
89
52
19
45
28
46
46
39
45
15
-17
-52
-81
-53
-68
-43
-29
-24
5
-5
-40
-68
-72
-30
-31
-30
-8
-2
15
5
-20
-69
-58
-37
-34
-35
-16
-7
25
-8
-18
-66
-58
-48
-33
-17
2
1
23
8
-9
-61
-59
-39
-35
-25
10
14
32
-7
-12
-61
-39
-37
-27
-11
1
17
35
9
-13
-61
-36
-33
-25
-9
2
28
43
10
-12
-60
-34
-19
-14
0
7
18
44
16
5
-60
-35
-17
-17
12
23
42
50
12
-16
-57
-23
-10
0
9
3
61
51
26
4
-35
-18
-5
9
29
34
67
53
13
-2
-44
-3
8
15
25
21
59
48
20
-9
-47
6
8
9
34
23
54
48
14
-16
-35
-13
-2
3
18
28
49
34
17
-31
-54
-31
-30
-8
6
12
46
16
-9
-31
-77
-26
-16
-12
5
8
35
11
-6
-38
-64
-29
-28
-20
2
0
27
19
-14
-53
-54
-33
-24
-11
3
6
38
4
-7
-49
-58
-35
-27
-16
8
12
37
8
-9
-56
-60
-26
-14
-13
4
-1
31
-1
-17
-55
-41
-28
-16
-18
2
9
20
7
-11
-63
-36
-27
-32
-16
10
20
25
11
-9
-64
-43
-25
-20
-12
5
19
32
5
-12
-58
-46
-37
-23
-22
9
33
26
6
-17
-60
-37
-32
-24
-10
-2
23
26
-2
-29
-67
-42
-23
-14
10
-3
29
28
-13
-32
-64
-31
-27
-23
4
4
43
29
1
-31
-64
-29
-20
-22
4
14
40
22
6
-42
-62
-18
-32
-21
14
16
42
36
3
-41
-61
-42
-35
-13
3
-1
24
13
-16
-38
-73
-35
-30
-28
-2
-2
35
-1
-8
-48
-82
-42
-38
-13
-11
-9
24
15
-19
-60
-72
-21
-35
-25
1
2
27
8
-23
-62
-56
-35
-44
-20
-17
-4
23
3
-22
-66
-69
-48
-49
-19
9
37
76
74
59
28
43
68
77
80
102
100
112
52
29
-32
-26
-25
-30
-21
-3
3
4
-9
-22
-81
-54
-40
-34
-29
-3
12
30
0
-14
-63
-66
-40
-25
-18
10
11
16
-1
-11
-69
-43
-37
-30
-4
-3
25
30
-6
-14
-73
-37
-31
-36
-10
6
32
18
-3
-22
-56
-49
-32
-19
4
-4
28
16
1
-29
-66
-42
-25
-14
11
0
30
23
2
-50
-64
-30
-38
-22
-1
11
37
22
-2
-29
-55
-34
-26
-6
7
13
34
20
7
-32
-65
-15
-20
-11
11
22
44
29
12
-28
-53
-16
-13
3
7
23
51
40
10
-26
-52
-11
-3
8
16
21
58
42
15
-23
-45
-4
-7
11
20
20
55
33
7
-35
-40
-12
-12
2
25
8
56
26
5
-47
-45
-22
-26
-7
13
6
25
4
-4
-68
-43
-27
-34
-18
-2
11
29
7
-23
-64
-51
-30
-26
-21
-10
13
31
-6
-14
-61
-55
-34
-27
-25
2
12
22
-10
-17
-64
-47
-28
-21
-21
-6
21
24
-7
-30
-73
-62
-45
-24
-10
-3
23
14
-5
-14
-75
-36
-38
-28
-4
-10
11
22
-4
-28
-74
-40
-37
-33
3
6
19
4
-9
-44
-70
-42
-38
-34
-14
3
17
21
-18
-46
-75
-43
-35
-31
-2
13
19
14
-7
-44
-81
-36
-34
-37
-6
4
21
8
-18
-50
-74
-46
-45
-30
-17
1
21
5
-21
-42
-72
-53
-35
-19
8
-2
20
1
-11
-52
-83
-35
-45
-36
-9
7
20
8
-10
-35
-65
-25
-28
-16
1
-3
36
24
-13
-52
-69
-32
-35
-13
-3
-5
24
7
1
-57
-51
-33
-41
-25
-8
1
21
-3
-28
-83
-55
-40
-45
-27
-10
-8
24
-6
-23
-80
-55
-43
-46
-25
-15
8
12
-13
-24
-67
-57
-42
-42
-39
-16
-6
6
-13
-23
-76
-57
-49
-42
-21
-8
-3
-5
-31
-50
-100
-60
-48
-30
-3
31
68
71
60
50
35
68
74
79
95
77
94
76
25
-15
-57
-33
-38
-37
-27
-9
7
-11
-27
-52
-92
-65
-53
-23
-16
-12
12
3
-16
-54
-86
-41
-34
-29
-20
-3
17
4
-25
-39
-75
-60
-53
-15
-15
-14
17
16
-29
-48
-83
-43
-31
-20
-1
-2
23
5
-19
-57
-81
-47
-43
-28
-11
-9
17
9
-16
-56
-70
-43
-35
-25
-1
0
22
-1
-18
-60
-73
-38
-48
-25
0
1
26
-4
-10
-62
-54
-35
-19
-29
-2
10
26
6
-18
-63
-41
-33
-41
-22
4
13
46
12
-7
-49
-47
-14
-12
-6
-1
21
39
10
4
-48
-31
-24
-24
-5
15
33
49
21
-6
-62
-30
-10
-7
6
14
31
26
1
-12
-57
-34
-15
-11
-2
-2
32
41
15
-11
-54
-50
-44
-31
-10
-11
8
18
-4
-29
-79
-49
-38
-28
-7
-1
20
-8
-26
-49
-83
-44
-48
-51
-9
-1
11
5
-26
-47
-85
-57
-47
-39
-20
-5
21
3
-29
-64
-82
-52
-41
-31
-15
-10
15
-9
-24
-64
-88
-49
-48
-42
-15
-10
20
0
-22
-61
-87
-47
-45
-43
-19
-26
15
2
-27
-61
-86
-45
-56
-38
-13
-15
7
-3
-36
-73
-93
-53
-58
-45
-27
-20
1
-36
-37
-92
-101
-77
-90
-79
-60
-62
-37
-64
-100
-158
-164
-150
-160
-143
-131
-151
-128
-147
-167
-211
-209
-187
-196
-185
-171
-150
-125
-154
-161
-215
-202
-165
-163
-150
-129
-114
-92
-120
-144
-170
-155
-138
-131
-111
-89
-83
-75
-101
-120
-159
-136
-118
-120
-112
-87
-69
-65
-88
-102
-148
-126
-119
-110
-94
-88
-63
-58
-88
-102
-154
-128
-109
-107
-91
-85
-59
-63
-90
-119
-155
-130
-118
-117
-80
-82
-61
-67
-96
-118
-153
-112
-108
-112
-90
-85
-49
-66
-90
-115
-153
-120
-112
-101
-76
-79
-55
-71
-105
-139
-167
-139
-114
-90
-59
-31
16
1
-3
-17
-26
24
40
47
58
53
65
34
-6
-61
-99
-88
-95
-89
-80
-77
-47
-70
-82
-128
-177
-121
-123
-114
-95
-91
-61
-76
-99
-143
-145
-121
-138
-110
-85
-92
-64
-81
-101
-149
-158
-132
-123
-109
-100
-97
-76
-107
-117
-162
-156
-131
-131
-120
-104
-98
-77
-98
-124
-171
-158
-133
-131
-125
-104
-94
-75
-94
-122
-173
-150
-137
-133
-114
-88
-100
-72
-97
-115
-168
-140
-117
-120
-116
-99
-74
-72
-94
-115
-163
-129
-125
-121
-106
-91
-74
-64
-85
-97
-161
-135
-111
-110
-97
-86
-63
-56
-82
-101
-144
-123
-112
-100
-74
-79
-48
-51
-80
-104
-137
-101
-107
-94
-66
-70
-45
-46
-75
-105
-137
-109
-110
-88
-63
-70
-53
-45
-73
-105
-144
-108
-105
-89
-84
-75
-49
-62
-86
-124
-144
-118
-115
-108
-90
-88
-65
-81
-102
-150
-154
-115
-126
-123
-95
-88
-58
-79
-108
-151
-167
-130
-129
-115
-115
-110
-84
-89
-124
-145
-160
-142
-139
-129
-112
-103
-63
-103
-114
-158
-165
-146
-152
-156
-137
-136
-109
-137
-166
-200
-200
-185
-178
-160
-156
-166
-138
-168
-195
-244
-246
-228
-230
-223
-208
-204
-182
-205
-224
-269
-262
-236
-234
-221
-205
-193
-178
-204
-213
-252
-238
-227
-216
-215
-185
-172
-169
-188
-204
-248
-230
-218
-213
-210
-183
-173
-169
-196
-206
-251
-237
-217
-210
-191
-187
-170
-151
-182
-207
-250
-216
-220
-201
-183
-173
-147
-156
-184
-197
-239
-213
-197
-192
-172
-165
-141
-142
-168
-189
-232
-208
-193
-182
-155
-151
-131
-138
-156
-197
-228
-200
-185
-173
-153
-152
-124
-132
-150
-183
-211
-180
-170
-163
-134
-128
-98
-126
-142
-167
-203
-168
-154
-142
-126
-127
-83
-95
-114
-160
-185
-152
-139
-123
-113
-97
-66
-93
-104
-141
-166
-136
-131
-105
-90
-82
-53
-89
-106
-136
-156
-108
-113
-88
-79
-75
-38
-49
-80
-122
-134
-108
-102
-101
-82
-77
-42
-64
-82
-124
-126
-115
-96
-85
-82
-76
-42
-58
-93
-129
-130
-114
-94
-80
-71
-55
-34
-55
-82
-130
-114
-97
-96
-83
-66
-48
-43
-64
-95
-119
-104
-102
-94
-77
-64
-54
-58
-83
-96
-138
-114
-91
-53
-30
7
24
58
40
40
10
52
68
57
44
41
48
31
-17
-50
-107
-74
-70
-76
-71
-53
-10
-27
-66
-75
-110
-82
-79
-74
-55
-49
-27
-28
-49
-86
-125
-91
-84
-66
-49
-47
-21
-30
-53
-81
-111
-90
-81
-74
-51
-54
-15
-31
-53
-81
-121
-83
-83
-69
-49
-43
-16
-26
-54
-80
-113
-76
-76
-69
-43
-39
-8
-22
-53
-106
-110
-71
-67
-59
-43
-35
-6
-19
-49
-78
-101
-74
-76
-59
-37
-44
-10
-19
-48
-80
-97
-71
-69
-55
-37
-36
0
-15
-39
-78
-88
-66
-59
-35
-24
-31
-7
-15
-36
-80
-87
-47
-46
-29
-28
-15
10
-10
-30
-77
-58
-53
-46
-22
-16
-24
17
-9
-26
-71
-69
-37
-37
-43
-17
-5
12
-16
-30
-77
-66
-42
-43
-32
-22
-4
9
-22
-40
-89
-65
-53
-56
-39
-31
-16
-8
-32
-42
-109
-76
-69
-53
-49
-50
-14
-15
-42
-59
-103
-82
-66
-62
-53
-31
-11
-25
-36
-70
-105
-83
-69
-64
-40
-35
-16
-22
-46
-75
-108
-80
-70
-66
-47
-34
-19
-23
-39
-85
-110
-87
-65
-64
-43
-37
-15
-27
-55
-92
-116
-66
-54
-56
-47
-58
-20
-27
-48
-84
-110
-81
-75
-69
-57
-45
-8
-22
-44
-86
-116
-83
-67
-59
-52
-50
-10
-32
-59
-94
-112
-74
-76
-71
-53
-38
-18
-36
-67
-102
-115
-79
-72
-70
-45
-46
-22
-29
-70
-100
-115
-82
-81
-73
-44
-53
-14
-42
-63
-102
-112
-74
-77
-65
-41
-38
-21
-52
-56
-99
-101
-91
-78
-56
-47
-36
-30
-49
-58
-106
-99
-77
-73
-62
-49
-42
-32
-47
-59
-103
-83
-74
-80
-65
-39
-34
-16
-38
-75
-108
-84
-72
-72
-55
-53
-23
-24
-51
-64
-105
-77
-66
-81
-56
-45
-26
-21
-47
-53
-102
-84
-64
-70
-54
-39
-25
-16
-35
-69
-108
-77
-68
-69
-50
-44
-20
-19
-46
-75
-107
-74
-73
-75
-42
-40
-12
-12
-45
-76
-117
-76
-68
-71
-39
-32
-6
-23
-40
-73
-113
-64
-57
-49
-35
-29
3
-14
-48
-62
-88
-59
-54
-52
-25
-30
1
-2
-42
-88
-107
-61
-60
-50
-24
-32
-2
-20
-47
-88
-96
-61
-67
-57
-38
-43
-7
-26
-45
-95
-117
-73
-85
-51
-40
-37
-15
-29
-48
-84
-97
-73
-75
-60
-45
-31
-13
-49
-54
-95
-94
-70
-72
-54
-45
-48
-11
-32
-44
-108
-101
-88
-91
-81
-64
-56
-29
-28
-29
-58
-22
8
23
38
74
109
136
100
70
27
26
23
0
-18
-22
-7
4
-26
-40
-90
-72
-67
-66
-48
-43
-15
-21
-52
-44
-97
-79
-71
-62
-46
-33
-14
-10
-44
-58
-102
-72
-63
-65
-40
-33
-13
-18
-41
-62
-100
-80
-68
-57
-40
-25
-1
-23
-45
-66
-105
-68
-52
-58
-29
-44
-11
-4
-42
-73
-88
-63
-66
-53
-32
-30
-5
-10
-32
-73
-108
-65
-64
-56
-36
-28
2
-11
-36
-73
-99
-63
-62
-47
-23
-22
3
-17
-33
-69
-92
-53
-52
-59
-19
-18
5
-7
-29
-63
-87
-53
-57
-39
-6
-12
9
-7
-29
-53
-80
-50
-44
-31
-10
-12
26
-9
-24
-69
-67
-41
-29
-34
-13
0
29
-3
-14
-60
-53
-53
-39
-21
-11
-1
23
-8
-22
-68
-58
-57
-39
-29
-13
-6
9
-9
-29
-75
-74
-60
-39
-38
-23
-18
-3
-30
-44
-87
-71
-56
-56
-47
-22
-21
-5
-27
-47
-96
-77
-66
-55
-48
-33
-14
-6
-28
-47
-97
-77
-60
-64
-39
-26
-14
-6
-36
-52
-100
-69
-59
-57
-38
-36
-14
-10
-29
-61
-96
-75
-61
-55
-40
-30
-5
-15
-32
-76
-97
-73
-60
-48
-31
-26
0
-16
-45
-68
-101
-67
-61
-57
-34
-37
-6
-11
-42
-67
-102
-67
-59
-58
-33
-30
-2
-14
-46
-80
-108
-74
-60
-42
-35
-24
-1
-13
-49
-90
-100
-63
-75
-56
-43
-36
-5
-16
-41
-75
-93
-66
-76
-68
-41
-36
-10
-34
-49
-90
-92
-66
-74
-59
-46
-29
-2
-32
-57
-97
-98
-72
-71
-53
-40
-42
-12
-34
-51
-100
-93
-72
-72
-55
-47
-35
-7
-28
-47
-101
-95
-80
-61
-50
-50
-33
-2
-54
-54
-102
-86
-66
-63
-58
-51
-26
-7
-37
-57
-102
-87
-74
-64
-52
-43
-28
-12
-40
-56
-105
-84
-71
-64
-53
-42
-22
-27
-43
-54
-106
-85
-71
-63
-46
-33
-17
-17
-46
-61
-104
-69
-61
-62
-36
-28
-6
-16
-28
-59
-94
-71
-57
-52
-32
-29
-9
-6
-35
-79
-110
-59
-59
-61
-36
-26
-2
-3
-36
-68
-113
-85
-79
-67
-53
-36
-13
-18
-46
-83
-110
-84
-81
-66
-54
-43
-25
-26
-55
-91
-106
-80
-79
-73
-50
-43
-14
-24
-60
-95
-114
-80
-83
-66
-52
-42
-8
-36
-65
-99
-125
-92
-96
-88
-70
-59
-30
-32
-38
-61
-47
-2
15
45
76
91
127
110
82
24
-1
-3
-19
-20
-10
-24
-6
-36
-55
-98
-97
-89
-77
-69
-49
-38
-13
-30
-57
-107
-98
-73
-67
-57
-53
-34
-11
-38
-66
-109
-100
-77
-77
-59
-44
-30
-14
-37
-64
-111
-81
-76
-68
-59
-47
-25
-16
-49
-56
-105
-83
-74
-68
-55
-42
-20
-21
-50
-68
-99
-91
-81
-69
-40
-38
-19
-18
-46
-70
-107
-78
-68
-74
-41
-27
-14
-14
-36
-78
-107
-76
-60
-63
-44
-30
-5
-10
-34
-75
-104
-72
-59
-57
-39
-24
-5
-10
-39
-67
-101
-61
-50
-45
-35
-21
-1
-6
-34
-70
-91
-54
-48
-43
-18
-16
11
3
-23
-63
-94
-51
-56
-39
-16
-12
15
-2
-27
-58
-90
-47
-49
-40
-26
-18
13
-4
-30
-63
-72
-54
-61
-40
-28
-20
-10
-26
-42
-77
-92
-66
-70
-60
-43
-36
-4
-19
-45
-109
-105
-71
-72
-57
-42
-41
-13
-38
-53
-99
-95
-74
-68
-56
-42
-35
-15
-46
-52
-100
-84
-70
-63
-57
-40
-34
-4
-35
-74
-103
-81
-67
-69
-44
-37
-41
-14
-40
-50
-99
-90
-73
-63
-56
-44
-22
-16
-40
-50
-111
-89
-62
-63
-53
-42
-24
-9
-37
-57
-93
-75
-70
-57
-52
-39
-14
-2
-29
-68
-103
-72
-68
-58
-32
-27
-20
-14
-39
-70
-104
-72
-66
-55
-39
-37
-16
-16
-46
-74
-102
-77
-68
-56
-34
-41
-10
-35
-46
-71
-108
-77
-69
-66
-41
-46
-14
-21
-40
-76
-108
-71
-75
-68
-37
-35
-9
-26
-48
-83
-102
-66
-71
-56
-37
-36
-10
-27
-54
-86
-108
-67
-63
-59
-46
-39
-10
-27
-42
-83
-103
-72
-77
-61
-37
-36
-8
-28
-51
-105
-97
-74
-65
-55
-54
-37
-6
-38
-57
-84
-94
-67
-68
-58
-49
-41
-11
-33
-51
-92
-84
-62
-75
-63
-23
-41
-16
-24
-44
-92
-89
-73
-65
-53
-41
-20
2
-39
-58
-98
-87
-68
-67
-58
-42
-30
-12
-40
-56
-109
-79
-69
-64
-50
-35
-24
-8
-40
-56
-101
-75
-64
-58
-44
-29
-14
-3
-25
-59
-98
-75
-54
-42
-32
-28
-10
-4
-27
-52
-96
-64
-63
-56
-37
-35
-21
2
-31
-58
-105
-71
-56
-50
-34
-35
-9
-27
-37
-68
-120
-85
-79
-64
-40
-40
-18
-22
-44
-85
-118
-86
-85
-68
-36
-33
-8
-24
-61
-85
-112
-80
-72
-60
-40
-42
-17
-20
-68
-95
-116
-87
-78
-61
-51
-67
-25
-41
-68
-101
-118
-67
-49
-19
17
40
76
67
75
54
42
80
69
73
55
37
54
10
-26
-84
-106
-80
-72
-54
-49
-41
-18
-40
-61
-101
-99
-79
-75
-57
-43
-44
-13
-31
-57
-100
-91
-71
-71
-70
-39
-34
-12
-32
-54
-101
-102
-85
-65
-58
-38
-31
-9
-33
-51
-103
-87
-70
-65
-55
-38
-33
-5
-30
-58
-110
-79
-64
-65
-57
-34
-9
-11
-44
-56
-100
-80
-68
-60
-57
-35
-15
-1
-33
-55
-109
-74
-67
-58
-45
-33
-11
-5
-46
-60
-94
-73
-59
-53
-30
-26
-2
-2
-22
-60
-93
-77
-50
-41
-23
-25
14
0
-38
-63
-87
-48
-49
-50
-21
-9
27
-9
-22
-47
-79
-51
-44
-31
-18
-7
20
14
-15
-54
-73
-44
-47
-38
-8
-5
23
16
-21
-68
-79
-47
-36
-27
-16
-23
17
-5
-28
-63
-79
-58
-63
-43
-30
-24
10
-16
-44
-78
-94
-66
-59
-56
-42
-39
9
-28
-47
-88
-102
-73
-71
-61
-42
-36
-6
-34
-54
-90
-95
-75
-71
-59
-44
-47
-7
-43
-58
-88
-91
-82
-70
-60
-45
-33
-6
-46
-65
-99
-80
-72
-66
-55
-40
-28
-10
-38
-54
-108
-84
-72
-68
-63
-39
-21
-13
-39
-52
-97
-89
-73
-65
-64
-21
-23
-20
-34
-48
-103
-79
-69
-75
-49
-36
-18
-12
-42
-61
-112
-90
-69
-57
-43
-39
-16
-19
-44
-68
-109
-78
-67
-74
-43
-41
-21
-31
-47
-78
-104
-77
-63
-64
-52
-39
-21
-21
-54
-82
-112
-86
-71
-59
-38
-26
-12
-12
-47
-97
-115
-76
-73
-62
-41
-41
-19
-21
-56
-92
-106
-71
-81
-66
-44
-38
-15
-25
-53
-91
-111
-78
-81
-69
-53
-39
-4
-20
-49
-92
-108
-79
-74
-74
-56
-40
-13
-28
-55
-97
-111
-68
-74
-61
-33
-31
-7
-34
-50
-89
-92
-74
-74
-59
-42
-41
-11
-32
-53
-108
-93
-62
-71
-56
-39
-27
-18
-31
-44
-96
-86
-66
-62
-63
-36
-11
13
-29
-45
-88
-63
-53
-54
-41
-29
-16
9
-26
-43
-81
-71
-57
-60
-36
-23
-26
-7
-28
-39
-86
-66
-60
-63
-45
-36
-22
-16
-39
-56
-101
-83
-70
-66
-53
-35
-15
-20
-46
-73
-105
-80
-76
-75
-53
-28
-15
-17
-47
-72
-105
-83
-77
-69
-46
-44
-14
-23
-51
-78
-111
-82
-73
-82
-75
-68
-34
-44
-61
-74
-91
-25
7
27
60
79
146
155
133
99
59
69
62
48
34
8
17
-3
-39
-81
-110
-85
-64
-65
-51
-42
-12
-22
-58
-86
-104
-71
-73
-56
-45
-35
-2
-22
-60
-87
-105
-73
-63
-61
-40
-40
0
-27
-62
-86
-97
-69
-69
-60
-37
-39
-7
-23
-53
-85
-99
-60
-70
-55
-41
-35
-3
-25
-41
-85
-86
-75
-66
-53
-23
-27
-9
-32
-60
-93
-81
-57
-60
-49
-31
-20
-1
-33
-36
-91
-80
-55
-61
-39
-28
-12
-5
-34
-39
-83
-72
-62
-46
-37
-25
-13
6
-20
-36
-86
-56
-39
-43
-32
-13
1
-1
-18
-43
-81
-46
-38
-44
-13
-1
12
4
-18
-33
-76
-44
-39
-27
-3
1
7
16
-17
-32
-69
-49
-30
-38
-3
2
29
10
-16
-48
-80
-41
-32
-22
-12
-18
14
6
-21
-64
-77
-46
-46
-46
-31
-15
4
-5
-37
-71
-92
-68
-64
-42
-45
-27
2
-10
-46
-80
-105
-71
-59
-44
-38
-32
-13
-18
-45
-83
-101
-61
-66
-57
-42
-32
-13
-14
-45
-79
-97
-75
-67
-42
-27
-39
-7
-25
-50
-79
-87
-74
-78
-55
-36
-34
-11
-27
-41
-76
-78
-65
-54
-56
-47
-39
-8
-24
-53
-94
-81
-73
-78
-54
-27
-29
-13
-30
-43
-91
-77
-79
-62
-42
-34
-28
-9
-34
-51
-101
-83
-61
-64
-48
-37
-27
-12
-42
-50
-99
-89
-68
-56
-46
-34
-21
-15
-43
-59
-103
-73
-73
-63
-58
-41
-14
-13
-40
-58
-106
-83
-71
-65
-42
-32
-18
-18
-38
-75
-118
-73
-68
-54
-43
-36
-17
-18
-52
-73
-102
-76
-78
-59
-36
-37
-9
-18
-48
-74
-110
-86
-73
-65
-39
-35
-2
-18
-42
-83
-109
-66
-68
-59
-30
-40
-6
-12
-40
-82
-95
-81
-65
-44
-32
-30
11
-6
-34
-70
-86
-53
-61
-46
-36
-28
-10
-11
-30
-75
-98
-66
-64
-46
-21
-29
-12
-27
-39
-75
-97
-82
-73
-54
-32
-34
-7
-43
-52
-89
-95
-84
-77
-61
-43
-35
-19
-38
-58
-100
-97
-75
-66
-78
-46
-39
-16
-42
-64
-102
-78
-64
-74
-63
-39
-39
-21
-47
-58
-116
-102
-95
-85
-78
-62
-17
15
-12
-2
-27
5
34
63
90
105
131
135
99
45
-12
-15
-21
-39
-40
-39
-34
-22
-51
-72
-118
-90
-85
-79
-59
-38
-17
-31
-43
-66
-107
-79
-74
-69
-49
-43
-15
-9
-45
-51
-85
-81
-82
-67
-29
-36
-26
-20
-39
-64
-97
-84
-66
-58
-37
-33
-11
-18
-44
-83
-109
-76
-71
-47
-32
-32
-1
-17
-39
-72
-100
-72
-60
-57
-36
-27
-6
-27
-36
-73
-99
-65
-53
-42
-30
-28
-4
-16
-37
-74
-89
-58
-68
-34
-17
-31
5
1
-39
-84
-87
-52
-56
-38
-25
-17
14
-5
-29
-63
-69
-49
-51
-27
-13
-9
20
-2
-31
-71
-61
-38
-29
-10
-5
-3
23
11
-30
-54
-49
-35
-33
-29
-2
5
35
2
-6
-65
-54
-43
-24
-23
-1
3
26
-11
-37
-77
-41
-29
-41
-30
-20
-14
5
-17
-35
-82
-67
-48
-57
-41
-33
-26
-2
-21
-48
-91
-73
-61
-52
-55
-34
-9
-13
-42
-57
-102
-81
-68
-58
-47
-31
-31
-15
-42
-72
-108
-75
-68
-59
-43
-32
-6
-12
-47
-76
-105
-66
-66
-72
-33
-35
-13
-19
-52
-70
-104
-80
-71
-53
-35
-38
-8
-21
-38
-72
-99
-69
-65
-61
-37
-34
-11
-15
-52
-74
-100
-70
-68
-58
-25
-39
-11
-19
-48
-74
-102
-70
-85
-54
-36
-38
-12
-21
-51
-82
-99
-65
-73
-58
-52
-38
-4
-23
-49
-85
-95
-67
-64
-60
-38
-45
-8
-31
-52
-89
-100
-74
-72
-53
-46
-36
-7
-34
-49
-98
-90
-67
-71
-52
-27
-39
-11
-35
-65
-101
-97
-70
-76
-57
-37
-34
-2
-39
-49
-102
-92
-71
-68
-47
-42
-36
-9
-35
-57
-103
-85
-67
-55
-47
-31
-28
-14
-33
-53
-98
-77
-64
-62
-46
-33
-18
-12
-29
-39
-93
-82
-60
-47
-35
-17
-2
-5
-22
-49
-93
-72
-57
-53
-35
-32
-13
-6
-26
-56
-95
-64
-60
-43
-27
-27
-16
-11
-40
-68
-102
-73
-68
-59
-37
-38
-19
-29
-50
-78
-107
-80
-66
-60
-48
-47
-19
-21
-43
-83
-114
-76
-74
-62
-36
-42
-14
-22
-55
-85
-115
-76
-71
-73
-47
-51
-34
-40
-67
-94
-127
-85
-57
-36
3
26
74
76
69
52
49
85
81
80
95
73
77
37
-8
-64
-86
-64
-73
-67
-48
-46
-13
-39
-56
-93
-104
-64
-79
-66
-46
-43
-9
-32
-43
-83
-96
-72
-73
-59
-43
-33
-13
-23
-41
-91
-95
-72
-71
-59
-36
-25
-3
-30
-57
-101
-82
-67
-68
-46
-30
-16
-10
-35
-52
-95
-75
-67
-59
-40
-19
-19
-16
-39
-50
-97
-73
-61
-67
-46
-21
-12
-9
-35
-54
-98
-62
-54
-52
-36
-23
-14
-4
-32
-47
-86
-62
-55
-48
-25
-24
2
4
-22
-45
-90
-56
-47
-33
-12
-8
16
15
-18
-43
-71
-46
-43
-30
-9
-9
31
14
-17
-37
-77
-39
-25
-18
-9
-9
23
9
-6
-30
-74
-44
-17
-15
-4
-2
26
13
-8
-39
-71
-43
-36
-29
-4
7
14
11
-21
-53
-86
-46
-46
-34
-13
-17
14
-2
-33
-65
-93
-67
-62
-45
-42
-34
6
-6
-29
-83
-92
-67
-66
-48
-33
-35
-7
-32
-49
-75
-92
-68
-62
-50
-37
-35
-2
-24
-51
-94
-89
-57
-64
-49
-31
-36
-7
-25
-40
-87
-91
-63
-74
-54
-25
-18
2
-29
-53
-95
-82
-64
-57
-48
-29
-28
-3
-33
-46
-90
-71
-70
-64
-45
-31
-16
-9
-36
-51
-100
-74
-66
-55
-43
-30
-3
-5
-45
-53
-90
-68
-60
-50
-56
-38
-21
-6
-28
-61
-101
-72
-57
-58
-45
-31
-10
-1
-37
-72
-97
-74
-58
-66
-39
-28
-6
-18
-40
-69
-107
-79
-67
-56
-38
-34
-8
-12
-33
-77
-106
-75
-72
-59
-40
-26
-4
-19
-42
-67
-103
-75
-68
-53
-33
-31
-6
-23
-41
-72
-107
-64
-56
-65
-37
-26
3
-11
-39
-79
-92
-60
-61
-51
-35
-28
9
-10
-32
-72
-87
-53
-52
-35
-21
-26
7
-11
-27
-78
-88
-67
-48
-43
-19
-28
5
-17
-41
-79
-79
-68
-67
-52
-32
-29
7
-22
-53
-96
-90
-62
-56
-41
-42
-36
-9
-29
-52
-101
-91
-70
-63
-53
-30
-33
-7
-34
-58
-106
-81
-63
-68
-60
-42
-21
-6
-38
-58
-105
-86
-75
-74
-75
-59
-44
-27
-37
-31
-86
-25
13
34
59
83
136
153
129
109
54
49
52
21
24
8
9
4
-31
-56
-106
-78
-72
-67
-54
-33
-7
-15
-36
-66
-97
-73
-61
-55
-37
-29
-4
-11
-40
-73
-114
-80
-62
-56
-38
-27
-8
-22
-38
-59
-94
-70
-51
-48
-39
-34
3
-19
-36
-70
-109
-66
-56
-57
-34
-23
8
-17
-41
-75
-94
-65
-68
-49
-32
-22
6
-12
-32
-78
-99
-58
-56
-42
-27
-30
0
-12
-39
-73
-83
-63
-53
-40
-21
-12
17
-13
-34
-78
-75
-48
-39
-40
-17
-10
15
1
-23
-74
-78
-41
-40
-22
-6
-8
21
-5
-18
-60
-55
-40
-37
-20
-2
4
20
6
-14
-56
-48
-28
-24
-11
-1
12
30
2
-12
-61
-45
-28
-34
-17
-6
13
34
-3
-22
-66
-42
-35
-26
-18
-8
10
4
-11
-18
-84
-51
-41
-39
-39
-21
-3
3
-23
-44
-98
-67
-44
-49
-34
-27
-4
-14
-33
-50
-94
-67
-52
-51
-31
-41
-4
-7
-35
-57
-106
-70
-55
-45
-27
-26
-2
-15
-34
-73
-103
-72
-58
-51
-35
-26
6
-10
-31
-65
-103
-52
-66
-52
-30
-29
5
-10
-34
-67
-87
-64
-61
-58
-44
-31
5
-16
-32
-79
-102
-64
-58
-39
-30
-30
2
-13
-40
-71
-98
-69
-60
-43
-39
-26
18
-7
-51
-87
-87
-59
-63
-45
-33
-38
5
-20
-45
-80
-80
-64
-63
-44
-23
-32
5
-27
-53
-85
-77
-61
-72
-50
-18
-17
0
-32
-48
-87
-83
-60
-56
-54
-24
-20
-6
-30
-38
-93
-80
-57
-61
-48
-33
-23
-3
-28
-38
-100
-71
-55
-67
-36
-15
-2
-6
-35
-43
-89
-70
-55
-55
-36
-19
-5
4
-19
-30
-90
-69
-61
-40
-19
-15
7
4
-23
-34
-76
-62
-41
-38
-19
-21
9
-6
-40
-59
-97
-68
-53
-61
-25
-22
2
-14
-48
-82
-100
-60
-56
-47
-28
-42
-8
-13
-33
-69
-98
-63
-67
-57
-31
-39
-9
-18
-45
-77
-105
-68
-60
-55
-32
-29
-6
-17
-39
-69
-100
-87
-89
-75
-58
-56
-20
-21
-34
-50
-54
7
6
50
79
114
167
155
123
73
44
61
37
30
21
3
18
-5
-30
-78
-83
-61
-64
-51
-41
-23
0
-31
-38
-75
-83
-65
-55
-46
-26
-34
2
-22
-38
-84
-79
-69
-61
-47
-28
-31
0
-25
-39
-83
-80
-55
-57
-48
-27
-17
4
-22
-40
-85
-71
-58
-56
-50
-26
-11
2
-29
-42
-89
-66
-60
-54
-38
-16
-1
-1
-30
-46
-93
-67
-54
-39
-25
-10
10
6
-40
-48
-87
-61
-40
-50
-21
-10
2
-2
-15
-39
-84
-56
-37
-30
-15
-20
14
10
-20
-46
-82
-53
-37
-29
-4
3
31
-1
-15
-29
-75
-28
-30
-19
-7
2
32
16
-7
-43
-74
-25
-30
-11
15
1
19
23
-3
-25
-63
-31
-25
-16
2
8
37
22
-7
-47
-79
-40
-36
-21
-13
-5
13
9
-19
-61
-75
-51
-61
-39
-19
-40
13
-10
-32
-63
-86
-55
-55
-44
-26
-31
3
-18
-37
-80
-84
-65
-63
-42
-34
-25
3
-22
-40
-79
-84
-62
-57
-40
-26
-30
4
-27
-46
-88
-73
-60
-50
-53
-27
-22
-5
-17
-33
-89
-88
-68
-61
-47
-28
-13
4
-27
-44
-82
-82
-72
-59
-44
-33
-14
6
-20
-36
-92
-80
-57
-47
-38
-31
-14
-4
-33
-47
-97
-69
-65
-53
-40
-33
-2
-3
-29
-45
-97
-70
-52
-49
-35
-30
-11
-16
-40
-61
-96
-73
-52
-50
-33
-41
-9
-7
-35
-61
-98
-68
-68
-55
-33
-25
-10
-8
-43
-67
-103
-67
-60
-52
-31
-22
-9
-2
-37
-79
-106
-68
-49
-50
-35
-26
0
-11
-36
-74
-102
-59
-63
-51
-25
-10
8
-10
-29
-53
-76
-61
-56
-34
-27
-19
17
-2
-38
-58
-81
-48
-66
-38
-16
-21
-1
-21
-52
-73
-86
-66
-70
-54
-29
-33
3
-22
-45
-81
-93
-66
-70
-52
-31
-51
-7
-19
-49
-88
-83
-66
-59
-52
-39
-35
-7
-38
-47
-84
-86
-73
-61
-48
-36
-26
3
-30
-61
-97
-94
-90
-86
-78
-53
-44
-19
-34
-20
-54
-9
30
50
80
104
160
189
154
136
64
56
55
37
20
7
19
11
-19
-39
-94
-73
-54
-48
-30
-32
-8
-12
-34
-47
-89
-66
-63
-55
-33
-33
-7
-9
-40
-64
-94
-70
-53
-49
-28
-31
0
-9
-39
-62
-104
-71
-54
-55
-32
-23
2
-4
-30
-58
-110
-70
-49
-37
-29
-25
6
-7
-42
-74
-95
-56
-55
-45
-22
-16
0
-5
-23
-71
-100
-56
-52
-44
-26
-23
20
5
-39
-65
-85
-59
-51
-37
-19
-11
16
4
-34
-57
-84
-45
-44
-33
-9
-7
18
8
-13
-62
-69
-35
-32
-25
-5
-1
26
0
-12
-53
-63
-39
-23
-18
0
-2
36
13
-1
-48
-43
-20
-21
-14
10
11
39
13
-2
-42
-43
-22
-27
-15
21
17
24
7
-13
-54
-42
-37
-29
-17
2
7
26
-12
-30
-71
-58
-49
-49
-30
-14
-3
7
-16
-41
-92
-59
-45
-45
-37
-15
3
4
-27
-43
-96
-67
-54
-49
-30
-25
-5
4
-39
-57
-97
-71
-59
-42
-18
-25
5
-8
-33
-57
-95
-61
-50
-49
-33
-22
9
-4
-34
-56
-89
-59
-62
-47
-25
-25
0
-2
-34
-67
-94
-61
-54
-40
-31
-23
14
-11
-29
-71
-91
-53
-52
-48
-29
-17
2
-4
-29
-66
-98
-62
-48
-37
-30
-32
-2
-7
-34
-60
-91
-61
-62
-46
-28
-23
6
-14
-40
-63
-84
-55
-62
-40
-26
-24
-1
-19
-42
-80
-95
-61
-53
-41
-39
-25
12
-14
-39
-78
-78
-52
-59
-38
-29
-25
7
-22
-31
-94
-73
-54
-57
-31
-32
-18
2
-19
-47
-91
-74
-44
-57
-44
-20
-20
0
-20
-39
-82
-69
-52
-43
-26
-6
1
13
-15
-27
-70
-57
-50
-50
-23
-9
6
26
-12
-30
-72
-45
-52
-40
-33
-35
-5
10
-39
-43
-89
-64
-51
-53
-33
-33
-13
-6
-29
-58
-100
-65
-58
-52
-28
-18
-6
-7
-35
-73
-97
-72
-63
-52
-23
-30
-5
-9
-44
-71
-110
-56
-62
-53
-33
-19
-4
-21
-58
-88
-126
-95
-81
-70
-43
-9
39
55
40
33
22
89
115
147
158
164
178
145
92
43
-19
-12
-19
-18
-8
-13
-10
-17
-43
-63
-87
-58
-64
-47
-29
-17
10
-9
-42
-65
-79
-61
-59
-38
-24
-29
5
-14
-37
-72
-89
-65
-57
-37
-17
-21
9
-22
-39
-85
-79
-52
-63
-48
-22
-12
17
-20
-48
-76
-72
-55
-50
-35
-18
-19
2
-18
-29
-74
-64
-49
-47
-38
-12
2
16
-21
-31
-77
-66
-60
-39
-23
-14
-2
8
-23
-24
-68
-48
-46
-40
-17
-11
1
8
-11
-28
-66
-49
-43
-28
-18
-2
19
22
-3
-27
-72
-42
-26
-15
2
8
22
22
2
-21
-58
-22
-20
-18
6
13
23
34
3
-24
-48
-21
-9
-18
18
16
38
32
1
-26
-49
-20
-22
-10
1
2
38
35
0
-29
-61
-33
-31
-26
-7
2
29
16
-19
-51
-84
-46
-50
-36
-16
-19
16
10
-14
-60
-90
-56
-57
-37
-14
-17
4
-9
-29
-61
-91
-53
-55
-47
-17
-19
8
-6
-38
-65
-78
-59
-59
-40
-14
-19
10
-9
-27
-73
-76
-47
-53
-31
-17
-28
7
-2
-35
-81
-81
-51
-62
-32
-13
-9
6
-20
-34
-72
-70
-43
-45
-41
-19
-21
13
-17
-30
-76
-75
-49
-46
-33
-22
-3
17
-10
-36
-85
-59
-52
-51
-49
-16
-6
-4
-18
-36
-93
-67
-47
-43
-39
-12
8
6
-35
-45
-89
-64
-38
-51
-34
-18
14
3
-21
-46
-89
-61
-57
-47
-16
-18
4
-4
-23
-52
-96
-59
-51
-47
-23
-21
-1
-3
-33
-67
-93
-57
-33
-50
-29
-17
5
2
-28
-57
-85
-51
-50
-34
-22
-8
9
1
-27
-50
-84
-56
-54
-40
-9
-6
24
16
-6
-45
-70
-35
-39
-26
2
-1
34
13
-17
-51
-65
-33
-42
-25
-9
-10
17
7
-37
-65
-85
-49
-57
-48
-20
-15
15
-18
-39
-72
-78
-54
-51
-46
-26
-27
4
-13
-40
-84
-86
-59
-52
-46
-30
-26
0
-18
-35
-77
-72
-68
-47
-44
-22
-22
0
-20
-37
-92
-92
-71
-83
-69
-57
-43
-3
-19
-15
-43
2
42
60
96
133
178
212
187
146
74
75
62
42
19
17
27
25
-9
-30
-87
-62
-40
-47
-41
-26
6
2
-24
-42
-90
-59
-45
-46
-30
-11
-1
1
-19
-52
-97
-66
-52
-47
-23
-17
7
6
-32
-53
-94
-67
-49
-45
-20
-16
10
-1
-37
-50
-87
-64
-48
-37
-27
-8
7
-3
-18
-52
-88
-48
-42
-45
-35
-13
16
9
-23
-44
-93
-55
-45
-30
-24
-7
22
3
-18
-52
-79
-46
-39
-30
-15
-23
20
3
-11
-51
-71
-46
-35
-23
-10
5
27
11
-11
-47
-68
-32
-36
-20
-6
7
41
27
6
-38
-37
-23
-23
-13
16
7
35
21
-4
-36
-37
-6
-6
2
9
22
45
33
-3
-38
-41
-16
-17
6
16
13
34
21
2
-46
-37
-26
-20
-23
-2
16
35
9
-8
-66
-51
-30
-28
-25
-4
13
16
-20
-28
-73
-57
-37
-46
-28
-22
-2
3
-8
-33
-80
-60
-45
-32
-30
-23
3
13
-26
-37
-81
-54
-52
-52
-26
-6
3
2
-23
-31
-89
-56
-46
-37
-17
-12
14
6
-21
-56
-79
-48
-46
-48
-14
-25
17
-3
-16
-43
-87
-56
-52
-31
-22
-10
13
11
-26
-52
-81
-56
-51
-40
-14
-19
12
-1
-24
-67
-73
-57
-54
-45
-31
-13
13
-3
-31
-54
-74
-50
-54
-35
-17
-12
19
-6
-38
-61
-84
-60
-60
-40
-17
-19
18
-13
-30
-64
-83
-68
-62
-32
-12
-11
17
-9
-33
-79
-76
-51
-43
-37
-25
-20
15
-13
-44
-74
-76
-44
-44
-44
-26
-21
12
-15
-34
-79
-71
-53
-49
-43
-29
-13
10
-13
-23
-73
-59
-48
-43
-45
-17
-6
13
-21
-22
-80
-66
-50
-29
-11
-1
-1
11
-5
-18
-55
-48
-47
-29
-16
0
14
21
-5
-16
-71
-47
-44
-48
-39
-17
-6
1
-26
-40
-86
-62
-60
-46
-26
-21
0
4
-34
-51
-99
-68
-52
-53
-24
-23
-4
-4
-28
-49
-94
-78
-58
-51
-36
-19
8
-2
-37
-63
-95
-66
-55
-38
-20
-26
-13
-20
-64
-98
-121
-83
-73
-47
-15
11
65
79
82
73
62
122
144
160
167
156
161
128
80
4
-42
-27
-33
-23
-20
-12
8
-5
-29
-65
-89
-60
-52
-47
-28
-22
15
-5
-43
-76
-85
-56
-59
-47
-35
-28
-4
-10
-33
-75
-89
-49
-50
-42
-26
-17
7
-8
-47
-71
-72
-58
-52
-39
-30
-19
8
-25
-35
-72
-68
-48
-46
-33
-22
-13
9
-17
-30
-81
-65
-49
-50
-33
-16
4
7
-20
-33
-76
-58
-45
-38
-28
-18
0
13
-6
-31
-68
-53
-36
-35
-15
-16
13
16
-8
-26
-71
-41
-34
-33
-18
8
26
32
2
-24
-58
-35
-29
-22
0
2
32
28
2
-23
-55
-26
-23
-13
15
17
37
32
5
-23
-51
-19
-15
-9
7
13
45
38
8
-18
-54
-27
-15
-12
7
11
38
29
-3
-41
-67
-35
-32
-19
-10
2
18
1
-16
-46
-79
-46
-48
-30
-18
-15
17
3
-25
-66
-92
-54
-44
-35
-23
-22
-5
-6
-19
-69
-99
-64
-47
-28
-16
-19
14
-7
-32
-77
-91
-60
-55
-46
-25
-23
7
-12
-32
-82
-86
-59
-49
-34
-29
-16
11
-15
-37
-72
-66
-59
-49
-37
-18
-13
15
-25
-46
-83
-72
-48
-47
-45
-26
-6
17
-15
-37
-77
-70
-50
-45
-41
-23
-4
12
-27
-38
-80
-82
-56
-57
-48
-19
-8
12
-22
-36
-82
-62
-52
-59
-44
-17
-8
8
-26
-41
-88
-62
-53
-61
-44
-23
-4
6
-27
-53
-88
-65
-51
-51
-30
-33
-2
-3
-31
-61
-95
-61
-48
-55
-44
-22
2
-11
-34
-58
-96
-70
-55
-45
-36
-26
5
-3
-34
-52
-87
-67
-56
-50
-27
-20
10
-11
-32
-53
-90
-54
-51
-37
-17
-22
16
2
-31
-55
-79
-51
-43
-35
-15
-7
20
5
-21
-59
-80
-48
-48
-31
-17
-16
0
-16
-34
-82
-91
-55
-60
-44
-29
-22
4
-18
-44
-89
-81
-65
-68
-42
-29
-29
9
-16
-44
-79
-77
-69
-64
-42
-27
-25
-5
-30
-40
-85
-87
-69
-63
-45
-31
-27
2
-26
-49
-91
-85
-73
-79
-69
-47
-46
0
-11
-9
-33
7
38
45
91
123
156
177
149
126
45
42
50
28
2
7
20
22
-26
-49
-99
-91
-62
-46
-32
-27
-7
-3
-24
-46
-89
-66
-62
-43
-36
-25
-9
-2
-27
-60
-93
-62
-52
-42
-24
-19
13
4
-24
-61
-88
-58
-52
-42
-23
-21
7
7
-25
-53
-88
-61
-43
-31
-22
-13
13
6
-25
-57
-86
-61
-46
-30
-18
-8
23
3
-24
-57
-86
-50
-41
-35
-17
-16
17
10
-23
-56
-83
-48
-40
-26
-5
-14
20
-5
-18
-66
-77
-46
-44
-24
-12
-5
26
11
-10
-48
-64
-37
-35
-14
6
11
41
22
-8
-41
-49
-28
-23
-5
9
12
37
15
6
-44
-38
-13
-20
8
11
22
51
22
-10
-42
-26
-6
-17
0
18
5
36
17
-3
-45
-40
-26
-23
-16
6
20
31
5
-11
-74
-50
-53
-41
-19
-13
2
18
-13
-26
-78
-60
-40
-40
-43
-18
1
10
-25
-44
-83
-55
-47
-47
-35
-12
3
1
-22
-45
-93
-63
-51
-39
-22
-19
0
-4
-26
-49
-87
-59
-51
-39
-21
-14
18
-8
-24
-53
-83
-54
-42
-58
-20
-17
8
-2
-24
-49
-76
-54
-40
-31
-22
-11
20
3
-23
-66
-96
-52
-51
-40
-20
-2
31
-2
-30
-59
-77
-51
-52
-33
-14
-17
16
0
-22
-51
-93
-51
-41
-42
-45
-10
21
2
-22
-64
-81
-54
-52
-30
-13
-17
12
-8
-37
-69
-86
-56
-51
-30
-11
-16
9
-16
-35
-67
-65
-51
-54
-26
-13
-11
12
-8
-20
-67
-67
-49
-54
-40
-18
9
25
-2
-17
-59
-52
-48
-40
-20
-7
11
25
-4
-27
-71
-51
-37
-26
-19
-13
6
12
-21
-31
-74
-59
-44
-39
-27
-12
0
12
-21
-42
-82
-59
-51
-37
-33
-15
2
5
-18
-36
-82
-57
-55
-45
-29
-11
11
5
-32
-41
-83
-53
-33
-42
-20
-12
-2
9
-28
-53
-79
-49
-56
-67
-29
-32
-9
-15
-30
-43
-77
-14
12
46
75
88
139
149
130
91
64
89
75
64
62
41
54
7
-14
-51
-79
-44
-51
-38
-20
-13
21
-9
-28
-59
-84
-41
-41
-27
-11
-1
15
3
-19
-50
-81
-45
-48
-20
-14
-18
22
15
-20
-52
-71
-44
-49
-24
-2
-3
24
-3
-19
-59
-84
-33
-34
-21
-9
-4
32
4
-13
-56
-59
-36
-36
-21
-2
9
18
-13
-11
-51
-54
-45
-38
-14
4
7
35
9
-12
-66
-49
-30
-19
-10
8
15
32
14
-7
-51
-46
-30
-11
-12
6
29
47
1
-6
-54
-24
-16
-3
-4
4
36
52
8
3
-47
-20
-13
-5
18
26
44
58
26
0
-38
-6
2
11
28
34
49
52
24
1
-40
-6
4
8
32
40
46
56
16
-11
-62
-13
-20
2
16
19
45
41
4
-26
-61
-39
-30
-10
-1
9
30
16
-3
-39
-73
-38
-31
-18
-7
0
20
20
-1
-42
-67
-32
-41
-35
-12
2
29
8
-10
-49
-75
-26
-47
-31
2
-17
26
8
-15
-56
-73
-42
-43
-22
-8
0
32
13
-20
-65
-65
-39
-46
-24
-4
6
26
13
-8
-55
-60
-45
-33
-26
-1
-1
29
9
-15
-57
-51
-24
-30
-25
-16
-6
26
7
-17
-57
-51
-32
-31
-24
-1
8
28
7
-15
-61
-45
-32
-26
-20
-12
7
17
4
-16
-63
-41
-35
-22
-22
-4
6
21
-6
-27
-62
-44
-40
-30
-18
2
20
20
-13
-27
-64
-40
-43
-33
-14
-7
9
20
-3
-30
-71
-43
-32
-28
-13
-5
28
31
-4
-37
-79
-48
-27
-29
-17
1
20
11
-7
-24
-53
-37
-21
-20
5
6
30
28
8
-35
-73
-37
-25
-10
3
7
31
19
-6
-32
-69
-42
-47
-20
-9
-4
17
15
-17
-51
-74
-41
-48
-32
-10
-4
24
3
-18
-59
-76
-42
-43
-29
-26
-5
35
16
-14
-61
-90
-46
-48
-29
-20
-5
21
-1
-17
-62
-70
-45
-41
-24
-14
-9
14
-25
-48
-85
-83
-61
-60
-35
3
22
71
67
62
53
76
108
136
153
158
155
161
103
76
8
-12
-4
-21
-4
12
14
24
0
-16
-64
-52
-33
-41
-9
-5
-4
23
11
-19
-78
-39
-33
-29
-18
-12
-6
11
-3
-14
-64
-43
-33
-23
-8
3
21
15
-8
-21
-71
-45
-30
-24
-22
5
26
24
-9
-21
-70
-50
-29
-28
-5
1
30
32
-6
-39
-68
-35
-27
-12
-4
-2
35
23
-3
-37
-66
-27
-28
-13
8
0
35
21
5
-31
-68
-26
-14
-9
10
13
39
26
1
-32
-49
-24
-19
-9
22
14
38
22
5
-18
-41
-17
-20
1
20
25
63
39
15
-19
-39
2
-4
1
21
32
62
44
23
-9
-30
-9
3
18
32
27
74
42
18
-20
-28
-3
-3
9
20
31
52
27
16
-34
-39
-12
-20
-5
17
7
42
23
1
-50
-52
-27
-15
-7
1
4
14
1
-10
-50
-46
-32
-29
-19
-3
16
34
1
-24
-66
-50
-37
-37
-17
-5
15
28
-3
-20
-69
-45
-35
-28
-24
-4
24
24
-16
-30
-71
-32
-27
-35
-17
-4
26
25
-3
-37
-71
-40
-29
-27
-6
7
9
13
-8
-35
-72
-18
-28
-17
-5
-15
23
17
-8
-34
-73
-42
-27
-24
-7
0
27
30
-18
-45
-67
-35
-37
-25
-3
-6
18
10
-15
-40
-65
-38
-34
-21
-12
-5
22
4
-9
-38
-72
-38
-33
-29
-7
-3
29
4
-16
-45
-67
-35
-42
-32
-13
5
29
14
-16
-49
-68
-32
-45
-32
-6
-7
22
11
-8
-69
-63
-35
-35
-21
-10
4
26
8
-18
-57
-60
-38
-34
-15
-4
0
22
8
-7
-57
-56
-26
-20
-9
10
15
36
12
-5
-45
-33
-19
-8
1
5
18
37
14
-1
-50
-34
-26
-32
-21
-6
15
39
2
-31
-82
-46
-35
-36
-8
-6
2
13
-8
-17
-75
-59
-46
-33
-17
4
7
9
-16
-30
-83
-42
-36
-36
-16
-7
4
5
-9
-41
-74
-43
-34
-31
-27
-13
24
-4
-41
-61
-103
-73
-69
-51
-25
1
45
65
73
65
53
109
137
171
200
195
220
193
136
82
29
16
5
11
22
15
37
20
-9
-45
-74
-40
-43
-23
-4
3
40
11
-11
-59
-75
-46
-36
-24
-7
-3
27
8
-18
-54
-74
-47
-36
-23
-9
-1
28
11
-17
-59
-73
-50
-39
-5
5
10
14
-1
-19
-55
-63
-37
-39
-22
-7
-9
27
8
-9
-46
-56
-38
-34
-16
1
14
32
5
-11
-59
-64
-29
-31
-19
4
17
27
12
-13
-52
-41
-34
-22
-5
16
12
33
18
-4
-44
-37
-14
-23
-1
1
22
40
17
6
-37
-13
-10
-9
5
22
42
47
26
16
-27
-12
-3
0
15
37
50
49
32
8
-33
-4
12
16
27
37
62
51
33
14
-28
-8
3
11
23
36
56
48
25
-17
-40
-13
-6
-5
14
21
37
29
9
-18
-61
-53
-26
-14
7
-1
28
19
-14
-43
-65
-40
-29
-31
-20
-12
29
18
-10
-45
-72
-42
-37
-33
-16
-1
32
12
-27
-45
-77
-31
-32
-26
2
-18
26
14
-16
-54
-74
-32
-44
-21
-11
0
28
-6
-13
-44
-73
-35
-28
-31
-23
-9
20
10
-17
-59
-62
-38
-33
-26
-10
-10
26
-5
-19
-62
-69
-44
-29
-23
1
-8
25
0
-18
-54
-62
-40
-25
-38
-7
1
20
-14
-28
-72
-46
-27
-40
-29
-1
1
15
0
-20
-68
-34
-47
-43
-27
-10
6
17
-12
-22
-69
-49
-36
-40
-18
