56
53
51
53
54
53
54
63
62
59
58
58
57
57
58
63
61
52
49
54
59
57
55
59
57
53
57
55
57
62
58
63
65
71
65
65
64
61
58
59
52
48
48
50
54
55
50
43
44
50
49
43
50
47
50
49
46
48
48
45
45
53
45
34
34
43
42
33
39
43
42
41
36
39
30
36
29
28
24
31
32
45
56
66
87
111
127
145
164
172
174
171
151
134
103
71
53
45
45
43
52
36
35
34
38
43
38
33
31
32
24
26
40
32
10
30
39
31
35
22
24
31
40
39
-3
3
20
28
32
33
34
34
37
42
40
48
52
46
45
41
36
43
41
50
44
46
48
44
57
43
53
39
45
43
47
44
44
51
48
53
50
50
53
58
61
53
58
59
60
57
69
71
70
66
65
59
58
68
66
62
73
71
68
72
68
68
67
62
64
66
59
60
72
63
58
63
65
62
68
66
63
57
58
56
59
60
60
59
57
52
46
46
49
51
48
46
40
52
40
35
41
37
39
50
46
52
47
41
45
37
39
36
37
38
36
31
30
31
32
25
37
33
41
41
34
34
27
43
38
39
43
44
39
37
46
45
41
37
35
43
42
43
44
39
41
44
44
41
44
49
36
32
36
39
44
39
41
42
37
34
38
40
40
43
39
39
42
45
34
35
40
45
44
40
40
44
56
50
42
23
42
45
43
48
46
51
50
56
54
61
53
74
72
50
46
46
59
47
46
63
55
48
48
48
47
39
41
46
47
50
55
44
46
41
40
44
37
41
37
35
33
33
42
52
32
21
41
37
45
53
46
36
37
35
27
29
35
43
54
60
72
94
113
127
140
161
197
200
188
167
144
115
86
53
24
22
40
32
36
46
38
46
33
31
35
57
43
52
54
41
37
36
44
50
47
42
45
46
49
43
50
49
55
55
52
44
50
50
39
39
44
44
45
53
51
57
60
45
48
40
43
52
50
44
35
41
34
43
47
53
57
51
41
32
46
48
58
55
53
54
51
55
52
60
59
53
46
52
53
63
60
53
59
63
59
54
56
55
64
59
62
76
85
72
53
63
55
50
69
69
63
60
51
58
60
57
53
51
51
61
55
51
51
52
43
42
48
52
46
43
43
41
43
38
24
35
35
41
36
30
30
28
16
29
37
31
20
26
20
22
33
22
15
21
19
14
24
12
25
17
17
15
20
22
15
8
17
24
21
30
30
4
18
9
20
8
16
12
17
13
14
13
20
19
10
10
17
5
9
10
10
8
7
12
19
11
11
14
4
0
10
9
-4
0
0
4
11
14
5
18
4
-4
1
2
-1
11
11
3
-2
-6
-1
2
12
11
0
-9
-5
1
-7
7
14
11
12
8
-2
13
14
12
3
3
13
10
4
13
2
3
6
-10
1
5
3
-8
-6
-9
-2
-1
-6
1
-10
0
-16
-16
0
-8
-10
-17
-11
-11
-16
-8
-8
-8
-10
-7
-11
-7
-9
-8
-14
-18
-24
-21
-13
-19
-6
13
26
48
61
82
103
128
142
158
137
132
117
104
59
33
23
13
11
11
-22
-9
0
-8
-13
-15
-3
-7
-9
-15
-15
-20
-7
-11
-14
-6
-5
-11
-6
-11
-12
-23
-1
-6
-16
-15
-12
-14
4
7
-11
-5
-6
-9
-6
-4
6
-1
-4
-2
-14
0
-6
-10
-4
-2
-5
-7
-8
-2
0
0
0
2
7
3
5
-3
-1
11
4
5
2
4
3
4
6
2
3
10
16
13
13
16
10
14
12
15
21
20
18
26
22
20
20
19
15
22
14
25
18
4
11
20
21
-5
3
8
12
10
12
18
9
8
3
8
11
13
6
11
6
-5
3
6
1
4
6
9
-3
-6
-1
1
-5
-4
0
-5
-4
1
12
-4
-18
-12
-7
-11
-14
-16
-12
-10
-6
-1
-7
-24
-26
-4
1
-1
-3
-8
-5
-8
-16
-7
-11
-6
-3
-20
3
0
-7
-5
-2
-5
-6
-3
-5
-3
-11
0
2
-17
-12
-7
-3
-15
-5
2
-2
-8
-10
-16
-1
-8
-9
-1
4
12
-11
-23
-16
-11
-4
-7
0
-7
-10
-14
-9
-14
-15
-12
-5
-7
-14
-15
-5
-4
-12
-11
-13
-3
-4
-10
-18
-12
-15
-8
-8
-5
-13
-10
-8
-7
-4
-13
-17
-20
-7
-10
-14
-17
-8
-2
-16
-16
-8
-13
-12
-8
-17
-15
-10
-17
-17
-3
2
7
-2
0
-6
-1
-3
2
5
-9
3
-5
10
10
4
-9
-1
-3
-13
1
3
-9
-14
-19
-14
-9
-5
-15
-17
-13
-22
-23
-10
-1
0
-15
-19
-18
-20
-18
-18
-10
-15
-11
-4
-9
-21
-20
-19
-21
-22
-14
-17
-22
-22
-17
-27
-16
-15
-8
14
30
50
75
96
110
139
143
165
169
153
122
96
62
29
18
7
-1
-14
-4
-4
-11
-10
-13
-9
-10
-10
-17
-22
-15
-15
-9
-14
-15
-15
-6
-13
-21
-17
-11
-9
-11
-13
-14
-9
-8
-6
-15
-10
-9
-13
-9
-12
-13
-17
-20
-9
1
-5
5
-7
-14
-6
-3
-7
-5
-15
-19
-4
0
-1
-1
-4
-8
-3
0
2
-1
0
0
-1
0
6
5
4
6
6
2
6
0
4
3
10
10
3
11
15
9
9
11
11
11
18
16
16
14
-2
6
22
13
2
5
10
7
5
12
13
14
9
8
5
7
2
3
9
-1
-1
-5
0
8
13
-8
-11
0
-4
-4
-3
-5
-7
-6
-1
-7
-24
-14
-11
-10
-14
-19
-29
-10
-12
-11
-11
-14
-15
-17
-16
-18
-13
-19
-23
-16
-16
-14
-10
-14
-11
-13
-13
-22
-17
-18
-19
-25
-9
-12
-16
-24
-17
-16
-22
-11
-17
-13
-10
-10
-9
-5
-11
-16
-9
-11
-15
-18
-14
-17
-19
-8
-12
-16
-16
-15
-14
-11
-16
-16
-20
-16
-12
-33
-21
-18
-25
-18
-15
-19
-16
-11
-16
-21
-18
-11
-15
-14
-14
-13
-14
-22
-24
-16
-19
-10
-19
-29
-23
-14
-18
-20
-23
-22
-23
-18
-21
-9
-6
-20
-27
-24
-24
-27
-26
-26
-22
-21
-17
-20
-21
-23
-21
-27
-33
-28
-21
-24
-29
-15
-18
-25
-23
-20
-15
-25
-29
-28
-13
-22
-35
-20
-34
-39
-34
-26
-24
-30
-29
-28
-26
-24
-20
-31
-29
-21
-30
-30
-30
-28
-30
-29
-26
-21
-23
-27
-30
-23
-29
-30
-29
-26
-26
-32
-31
-33
-35
-30
-26
-17
-11
-38
-39
-32
-32
-26
-20
-23
-35
-34
-16
-10
-25
-27
-24
-27
-24
-14
-13
-18
-3
-7
-9
-13
-12
-8
-7
-8
-14
-23
-11
-14
-20
-20
-19
-12
-17
-32
-31
-26
-26
-32
-26
-32
-19
-24
-21
-24
-30
-32
-22
-25
-34
-31
-21
-31
-27
-29
-21
-19
-20
-26
-38
-32
-24
-18
-21
-39
-43
-30
-21
-16
-16
4
40
51
71
98
112
131
142
154
146
120
98
72
27
-1
-4
-2
-14
-20
-20
-5
-15
-24
-26
-18
-14
-22
-23
-25
-17
-16
-27
-34
-23
-18
-19
-21
-14
-18
-25
-21
-14
-17
-16
-21
-22
-19
-24
-12
-20
-22
-22
-23
-21
-19
-12
-9
-16
-21
-23
-20
-17
-27
-8
-7
-12
-21
-15
-14
-14
-4
-8
0
-2
-16
-25
-14
-11
-17
-5
-8
-3
-1
-2
-1
8
-15
-4
-5
-7
1
8
-6
-3
0
8
-1
7
-1
10
11
10
-1
8
5
8
9
-3
1
17
2
1
9
11
12
6
10
6
7
2
-9
-3
-2
5
15
12
-3
-4
-2
-3
2
-2
-10
-15
-7
-7
-9
-14
-14
-7
-6
-10
-22
-11
-15
-17
-21
-26
-15
-16
-16
-19
-19
-19
-20
-22
-24
-14
-14
-22
-7
-11
-27
-27
-16
-21
-17
-20
-22
-19
-19
-22
-16
-16
-15
-16
-19
-16
-15
-14
-20
-15
-12
-15
-16
-19
-20
-16
-18
-12
-17
-18
-14
-18
-24
-11
-13
-9
-5
-9
-26
-19
-19
-20
-20
-15
-12
-7
-15
-23
-4
-15
-12
-19
-15
-14
-16
-24
-14
-13
-11
-13
-16
-20
-19
-16
-16
-16
-18
-14
-8
-16
-14
-18
-21
-18
-22
-21
-17
-15
-15
-13
-15
-23
-24
-27
-9
-12
-14
-10
-20
-24
-28
-19
-13
-17
-25
-21
-14
-14
-22
-16
-22
-13
-16
-18
-10
-26
-29
-20
-23
-21
-23
-30
-21
-10
-15
-23
-20
-19
-22
-26
-21
-16
-21
-36
-36
-21
-22
-19
-25
-18
-18
-22
-32
-18
-16
-22
-7
-18
-28
-26
-18
-21
-22
-21
-25
-23
-21
-21
-11
-14
-18
-26
-21
-16
-19
-24
-19
-27
-23
-17
-23
-29
-23
-27
-21
-12
-17
-14
-21
-28
-30
-24
-18
-19
-15
-17
-32
-23
-19
-14
-15
-27
-29
-17
-15
-10
-11
-24
-36
-30
-21
-9
-13
-12
-10
-7
-8
-16
-9
-6
-5
-11
-13
-3
8
-2
-5
-4
0
-7
-15
-4
-22
-24
-3
-5
-24
-24
-20
-19
-19
-23
-15
-16
-19
-12
-10
-13
-12
-8
-18
-13
-12
-15
-14
-12
-14
-9
-7
-17
-18
-9
-8
-15
-9
-10
-21
-20
-21
-35
-24
-8
10
27
41
53
70
90
109
130
147
171
164
131
111
70
26
14
-3
-5
-13
-13
-10
-9
3
-2
-14
-18
-6
-18
-14
-14
-17
-11
-11
-18
-22
-15
-8
-6
-15
-16
-18
-19
-8
-18
-18
-16
-15
-17
-17
-21
-12
-15
-14
-18
-21
-27
-12
-6
-13
-15
-18
-17
-15
-10
-12
-13
-13
-14
-14
-16
-13
-11
-2
-7
-2
-1
-15
-10
-7
-4
-11
-6
-4
7
-3
-3
5
5
-3
7
5
7
20
22
7
9
14
13
15
17
31
15
12
11
22
28
10
19
17
30
22
24
21
24
19
12
25
21
13
15
11
13
15
6
4
17
16
5
1
1
1
2
-2
17
9
0
-1
-2
2
-3
-6
-5
-5
-11
-7
-10
-10
-16
-15
-12
-13
-21
-15
-14
-15
-7
-8
-8
-15
-15
-12
-15
-18
-12
-16
-10
-12
-4
-8
-15
-15
-14
-15
-11
-6
-11
-8
-10
-12
-9
-16
-14
-6
-6
6
-9
-22
-8
-3
-2
-12
-19
-10
-3
0
-17
-22
-16
-11
-9
-11
-8
0
-6
-3
-22
-13
-6
-14
-22
-8
0
8
-8
-26
-9
-14
-11
-16
-11
-5
-1
-11
-9
-19
-16
-15
-6
-11
-10
-24
-14
-9
-4
-9
-9
-14
-17
2
-8
-10
-6
-8
-5
-11
-5
-3
-6
-8
-10
-8
-7
-7
-4
-16
-14
-13
-10
9
-3
-4
1
-5
-3
-2
0
6
15
14
14
14
6
14
3
-9
-2
4
9
14
15
-2
2
24
17
12
-17
11
33
27
24
1
14
9
7
23
15
13
-2
15
10
10
43
15
-6
11
12
19
12
-9
33
28
16
15
23
39
26
10
19
24
20
6
9
29
24
22
15
33
35
22
3
17
18
19
25
22
34
22
5
37
36
30
35
29
24
8
29
36
40
36
35
29
12
36
22
10
26
14
5
5
1
-3
10
18
14
4
-8
-5
10
12
5
-5
18
11
3
10
11
4
8
12
6
6
24
17
7
-10
9
3
7
4
-2
5
11
10
41
62
56
79
105
123
155
176
157
191
179
166
138
111
62
37
32
37
24
16
15
20
17
22
20
9
5
11
30
20
10
7
43
4
-6
21
23
20
23
30
34
27
27
20
27
21
21
30
22
20
37
39
31
39
25
15
31
31
27
34
47
21
17
29
37
30
40
51
55
52
33
26
33
55
52
48
39
34
38
23
39
55
43
41
40
41
48
49
41
53
44
48
52
64
35
26
49
56
49
55
81
93
69
44
53
51
56
49
43
73
65
58
61
56
60
59
72
63
43
37
38
51
45
44
55
54
69
64
48
47
69
60
44
58
58
46
42
52
51
42
61
60
57
61
72
68
78
87
85
77
95
107
95
105
112
113
103
118
122
134
131
134
148
154
159
167
157
171
170
171
182
181
175
181
187
178
184
190
208
196
210
212
197
207
201
213
214
204
218
202
216
223
211
217
205
204
204
198
197
209
194
209
209
207
217
204
196
197
207
207
199
189
197
201
191
192
205
199
189
176
179
175
176
187
190
170
172
177
178
178
176
180
185
193
191
178
167
162
174
178
186
186
171
178
157
156
167
165
167
165
179
178
161
164
163
165
167
171
169
169
160
176
168
159
161
164
175
175
162
155
162
164
165
164
166
157
168
173
163
177
161
164
161
167
156
156
167
159
151
162
151
152
165
163
160
164
166
170
147
155
161
175
163
173
165
163
163
169
186
173
172
176
183
182
169
176
168
171
173
170
177
169
165
169
163
168
189
177
156
158
167
168
158
165
153
151
148
153
144
140
146
150
145
138
154
160
153
135
139
144
149
151
145
141
143
139
152
145
133
136
136
144
134
141
139
132
126
124
133
136
153
171
189
184
215
238
249
272
294
302
306
290
266
243
210
177
153
145
145
140
134
140
139
134
130
136
136
135
130
127
122
122
127
122
116
127
128
120
132
124
126
126
119
128
118
115
125
130
110
114
116
119
118
122
121
117
128
126
120
124
120
115
113
113
113
119
122
116
121
127
131
106
116
112
110
112
112
111
115
120
119
124
111
113
122
125
121
111
126
126
114
116
127
132
128
127
136
126
133
129
134
138
138
134
133
138
137
144
143
135
129
130
133
132
130
125
123
120
125
131
126
131
126
130
126
96
106
107
111
108
112
110
104
105
102
104
97
89
99
100
100
106
93
78
94
107
77
81
75
72
82
84
82
91
88
79
80
68
70
74
81
76
79
86
78
81
78
82
88
76
70
71
80
83
81
82
85
83
80
81
66
88
86
84
85
89
87
89
76
67
75
80
82
78
83
84
81
85
82
77
84
89
87
81
76
76
76
81
83
78
80
75
69
85
78
76
83
89
87
82
79
82
84
75
66
78
79
81
93
81
69
74
77
79
86
77
73
62
70
76
76
83
79
77
76
62
75
85
66
69
72
77
74
66
63
74
78
73
68
64
70
78
72
68
75
76
76
62
51
68
70
68
64
74
66
73
76
69
64
57
63
62
61
60
70
70
57
53
56
64
68
56
56
59
56
57
57
58
54
61
64
52
49
63
62
65
69
63
56
66
72
70
71
77
59
67
79
66
63
68
62
67
63
65
72
74
60
45
65
71
68
61
58
54
63
56
46
44
50
50
51
49
51
53
47
43
51
45
40
43
43
42
41
41
43
41
47
43
49
57
37
43
43
43
29
35
34
48
59
73
96
110
117
137
166
188
204
223
219
208
177
156
112
81
71
66
58
53
49
51
50
61
59
43
39
52
47
45
49
44
53
58
59
60
58
57
56
67
60
55
60
60
61
63
60
55
64
70
62
64
59
60
67
56
65
61
60
63
63
61
62
63
77
70
51
70
79
67
66
69
74
76
76
72
70
76
76
80
77
73
72
79
82
81
87
79
79
82
90
87
84
79
88
79
90
99
82
90
92
89
89
100
92
93
84
90
90
92
105
92
85
87
94
97
95
100
102
101
86
91
91
95
87
85
88
89
88
92
84
88
81
73
76
73
71
86
81
71
80
77
78
65
68
75
54
62
70
59
60
65
66
68
66
63
61
65
62
67
61
59
57
55
60
57
47
50
52
62
63
55
58
62
60
60
66
61
51
53
55
55
61
62
70
46
58
57
53
57
62
59
64
61
59
60
57
65
65
58
62
66
63
59
65
56
52
58
55
48
57
55
56
57
52
47
53
64
55
56
51
51
33
46
43
55
55
37
48
42
44
45
45
54
46
44
44
47
60
56
48
43
36
46
55
47
51
48
47
39
41
34
45
45
57
49
41
47
50
55
53
41
30
37
53
46
41
45
46
56
50
42
41
42
43
52
58
56
47
58
50
47
47
53
54
47
49
56
51
49
62
63
67
70
65
72
60
71
60
57
56
64
71
71
62
61
44
54
57
46
48
46
50
41
43
42
47
51
50
40
45
49
40
39
48
43
42
48
37
38
47
45
42
40
41
47
40
33
33
39
36
34
36
41
57
56
77
96
108
129
148
164
188
202
202
188
161
137
109
63
46
47
46
40
43
46
40
28
42
51
49
40
42
40
42
33
36
38
44
44
46
38
38
38
34
33
41
37
45
38
39
47
43
36
43
43
35
31
40
34
37
39
39
37
31
35
36
43
41
31
33
26
22
24
32
26
33
34
34
38
32
27
36
31
35
35
45
46
31
38
32
30
41
46
45
35
46
46
45
48
47
49
46
47
52
55
44
43
65
52
51
53
61
57
54
47
62
56
46
51
49
47
52
39
50
58
45
43
44
44
46
31
41
45
47
35
18
30
42
38
32
40
34
30
28
24
29
28
30
20
25
26
28
22
18
27
27
22
25
24
17
29
20
23
24
29
26
13
19
22
19
19
27
35
26
28
34
26
27
27
26
28
32
27
35
33
27
24
30
33
24
32
39
32
29
31
30
42
39
35
37
40
32
23
23
42
28
34
40
31
31
40
34
48
40
39
42
31
31
46
42
40
40
46
37
42
42
43
42
35
47
43
36
45
48
40
33
44
48
45
53
39
45
59
57
52
53
46
54
54
50
52
56
59
56
58
55
56
60
64
48
53
59
65
63
65
63
58
56
63
70
61
58
68
77
74
75
56
67
76
83
82
81
81
80
80
82
84
74
73
79
77
74
74
73
62
68
77
74
48
59
62
65
69
61
62
59
65
53
63
74
70
77
57
65
70
67
65
65
57
58
61
58
53
52
56
59
66
70
96
108
126
141
163
179
204
223
243
229
219
211
178
141
108
86
80
79
71
80
50
63
67
61
60
64
57
65
67
63
65
61
59
67
77
70
62
65
66
71
64
62
70
60
70
74
71
67
61
69
74
70
65
74
67
68
71
74
69
65
67
77
61
72
76
71
80
77
72
66
82
78
72
74
80
78
85
90
83
77
79
85
84
89
88
76
89
92
92
90
89
91
86
91
94
87
95
100
105
103
82
85
93
100
96
106
104
96
97
108
102
94
95
92
97
92
110
97
78
83
94
93
91
94
92
78
79
82
80
96
92
82
75
81
86
78
80
76
75
73
76
78
74
73
52
59
64
71
59
57
65
61
59
62
64
64
69
62
43
48
49
58
55
66
69
57
53
52
53
59
63
53
51
51
46
50
67
60
59
54
61
60
52
53
67
53
41
52
49
49
49
39
38
49
52
54
51
48
49
51
51
41
47
48
47
46
44
37
43
42
40
39
33
46
47
38
39
40
41
36
42
44
40
38
38
36
37
35
42
45
48
20
32
30
33
31
46
43
31
34
41
38
34
37
42
37
37
44
45
37
42
48
50
42
39
52
52
53
43
41
51
49
63
67
39
42
48
43
41
46
37
35
37
28
34
28
28
36
45
40
35
39
35
33
28
29
35
21
37
43
30
38
27
37
39
39
39
39
42
36
31
18
36
40
32
20
23
24
38
61
77
75
88
124
144
157
191
188
206
201
185
166
127
99
70
52
44
46
47
43
43
31
40
44
34
30
31
31
41
35
37
26
34
34
30
31
26
37
40
33
34
34
32
27
28
37
31
31
33
31
22
30
36
42
34
36
35
37
37
41
31
30
33
32
45
40
46
34
38
50
52
43
39
32
36
31
36
51
56
33
41
41
49
47
33
50
34
40
41
45
45
53
56
57
55
52
43
53
54
58
52
58
59
50
52
57
60
56
66
65
55
59
47
42
59
58
66
70
33
40
48
44
41
36
39
41
40
43
40
44
43
44
35
23
26
39
23
23
18
19
26
24
23
23
15
20
22
14
17
19
16
20
18
8
13
15
8
13
9
18
11
9
7
7
8
2
21
10
1
16
25
19
-2
4
10
18
19
9
5
19
13
4
11
12
12
15
6
4
10
4
5
10
1
3
10
11
5
9
15
7
-4
-2
4
16
13
10
1
-1
2
6
11
2
0
7
9
8
1
5
5
8
9
-1
1
3
5
1
10
13
14
2
-2
-1
3
5
7
5
7
6
18
19
5
9
7
10
20
15
12
11
22
20
21
23
20
19
24
17
16
15
21
16
11
11
5
9
15
22
-11
-10
9
1
11
2
-4
-1
-2
5
4
-5
3
-1
-8
-9
-5
-1
-1
-3
-6
6
0
-10
-6
-3
-6
-11
-7
-22
-17
-19
-15
4
27
46
55
82
102
120
146
160
171
155
147
119
93
50
23
17
7
10
11
12
11
1
5
-8
0
-7
-12
-11
-3
-6
-13
-5
-3
0
-15
-10
-7
-9
-6
-1
-13
-8
-3
1
1
-12
-6
13
2
-3
1
2
2
-2
3
-6
-10
1
1
3
8
5
-2
7
5
2
-4
2
7
1
6
3
1
3
12
-3
1
8
2
15
15
0
7
6
7
8
5
4
10
17
12
15
13
22
23
21
21
21
21
27
22
11
15
25
24
29
15
12
22
17
20
36
26
21
13
22
23
11
22
19
19
26
15
8
22
24
23
10
17
17
12
14
18
13
11
5
1
3
14
7
-2
5
5
8
1
-4
2
3
4
-6
-26
-5
5
-2
-7
-14
-16
-10
-5
0
-2
1
0
-10
-12
0
5
-9
3
-3
-9
1
5
0
-13
0
3
-9
-2
1
-2
-1
3
-10
9
2
-3
-19
-3
-5
3
-2
0
-10
-3
-8
-3
-2
0
-1
-5
0
-2
1
-1
-3
-2
-12
-1
9
5
-3
-12
-4
1
3
-3
-16
-8
-8
1
2
-5
-2
-15
-10
1
-4
-3
4
2
-2
-3
-3
-5
10
6
2
10
4
0
11
14
10
19
16
10
11
15
17
14
2
6
-1
3
7
-6
-4
0
-14
-5
-8
-6
-9
-8
2
-2
-15
-10
-8
-1
-15
-14
13
-5
-20
-18
-12
-15
-3
-9
-12
-12
-15
-3
-12
-22
-16
-36
-20
-15
-15
8
22
30
55
67
88
111
138
167
178
168
140
119
97
54
31
17
-7
-1
5
2
-6
3
-2
-2
2
-4
-13
-19
-16
-16
-11
-7
-7
-14
-12
-11
-7
-10
-13
-7
-6
-15
-15
-9
-3
-6
-12
-20
-15
-12
-4
1
-3
-6
-6
-4
-3
-4
-5
-2
-4
2
3
4
-15
-19
-1
-4
-4
-2
-8
-4
-4
4
1
5
8
7
5
6
9
2
6
9
5
5
4
14
14
15
16
8
17
22
17
18
14
17
23
26
24
22
24
14
18
11
20
32
22
22
19
27
25
13
14
19
15
14
16
23
20
23
7
13
21
14
4
14
15
10
8
9
6
1
8
7
6
5
2
-1
-8
-2
-3
-6
-4
-4
3
-7
-14
-13
-7
-1
-12
-6
-3
3
-17
-16
-18
-17
-9
-10
-8
-5
-9
-7
-6
2
-9
-6
-12
-11
-5
-12
-11
-11
-9
-9
-14
-13
-8
-6
-14
-12
-9
-9
-7
-10
-14
-6
-5
-16
-16
-10
-12
-17
-5
-5
-22
-14
-12
-11
-8
-17
-13
-5
-17
-6
-9
-19
-10
-9
-20
-23
-5
-12
-17
-8
-9
-12
-23
-12
-9
-12
-20
-12
-2
-4
-25
-22
-16
-9
-1
1
-1
-15
-12
-3
-3
0
0
-1
1
-1
-1
7
3
-3
-1
-8
-10
-10
-9
-7
-11
-10
-15
-17
-16
-18
-29
-21
-20
-12
-17
-21
-18
-21
-23
-22
-22
-23
-19
-37
-18
-20
-29
-19
-22
-33
-34
-26
-28
-22
-32
-42
-37
-27
-34
-22
-14
23
52
71
86
111
138
152
157
143
129
95
62
27
10
0
-6
-10
-11
-2
-15
-16
-17
-15
-16
-17
-19
-17
-11
-10
-14
-16
-19
-11
-13
-18
-17
-13
-19
-20
-15
-6
-3
-11
-12
-4
-3
-13
-10
-7
-20
-22
-12
-9
-6
-12
-15
-7
-6
-6
-5
-4
-7
-6
-6
-1
-2
-12
-10
-12
0
2
0
1
7
6
0
-2
2
2
1
5
13
5
6
11
12
7
3
17
14
19
4
7
19
9
14
18
17
13
18
12
17
16
16
11
15
19
17
14
21
21
16
13
6
4
6
21
20
-7
2
1
-3
4
-3
4
9
6
9
10
0
-7
-2
3
-6
2
2
-2
-7
-5
-9
-15
-16
-15
-6
-3
-10
-11
-27
-1
-4
-12
-6
-2
-5
-9
-3
-3
5
8
-3
8
15
15
17
3
2
8
-8
-7
-15
2
-4
2
-7
2
16
0
-2
15
-13
-13
-3
-13
-8
-15
-16
-8
-16
-28
-23
-23
-15
-21
-24
-17
-14
-16
-15
-6
-9
-16
-26
-20
-16
-21
-11
-9
-18
-28
-31
-14
-14
-8
-10
-19
-24
-22
-23
-13
-14
-13
-13
-12
-15
-11
-14
-22
-19
-25
-14
-11
-12
-12
-21
-12
-13
-19
-15
-6
-10
-10
-13
-17
-22
-8
-12
-19
-27
-19
-8
-24
-33
-30
-24
-28
-23
-39
-31
-26
-23
-29
-25
-33
-34
-34
-26
-31
-30
-34
-35
-23
-15
-18
-30
-28
-36
-36
-34
-32
-35
-35
-46
-54
-50
-51
-41
-23
-5
4
21
47
62
92
107
128
143
128
113
85
44
2
-9
-13
-32
-28
-22
-41
-36
-37
-41
-31
-37
-45
-49
-44
-30
-41
-38
-40
-39
-38
-38
-31
-38
-34
-37
-35
-42
-31
-31
-30
-45
-36
-39
-38
-31
-32
-32
-37
-33
-31
-30
-33
-30
-26
-23
-21
-21
-34
-15
-14
-43
-28
-21
-20
-26
-23
-20
-27
-17
-20
-19
-10
-14
-15
-15
-16
-17
-15
-12
-7
-6
-7
-10
-12
-2
3
7
-10
-1
-4
-1
0
4
-7
-2
11
0
-1
6
7
-1
6
5
1
6
-6
-1
0
1
-5
-11
-6
3
2
-13
-13
-4
-1
-4
-2
-13
-10
-8
-9
-13
-11
-15
-15
-22
-20
-22
-18
-25
-44
-36
-32
-42
-35
-21
-24
-37
-34
-31
-33
-33
-28
-25
-26
-34
-31
-34
-39
-44
-37
-34
-37
-34
-35
-35
-42
-29
-38
-30
-31
-33
-32
-38
-28
-29
-30
-31
-42
-37
-33
-34
-37
-41
-44
-35
-30
-21
-22
-28
-36
-32
-31
-30
-31
-37
-37
-30
-35
-31
-31
-30
-29
-6
-38
-45
-39
-31
-27
-30
-32
-37
-29
-43
-42
-33
-29
-30
-38
-34
-30
-34
-29
-30
-33
-30
-35
-41
-34
-29
-31
-36
-32
-19
-27
-29
-24
-29
-27
-18
-35
-28
-19
-25
-26
-27
-25
-28
-36
-34
-38
-33
-36
-37
-36
-35
-37
-43
-43
-42
-40
-44
-41
-45
-50
-39
-34
-39
-49
-57
-41
-43
-45
-41
-40
-52
-51
-41
-41
-51
-50
-62
-55
-53
-52
-55
-57
-56
-71
-51
-40
-22
-5
6
34
45
71
97
115
107
103
87
49
20
-1
-21
-46
-42
-36
-36
-42
-39
-44
-48
-43
-42
-38
-33
-46
-53
-46
-43
-43
-48
-47
-50
-48
-37
-43
-52
-45
-35
-46
-43
-42
-48
-44
-45
-48
-41
-43
-40
-40
-42
-46
-44
-41
-34
-36
-46
-50
-45
-42
-35
-41
-38
-35
-39
-47
-38
-29
-42
-41
-32
-35
-36
-35
-34
-32
-41
-37
-30
-29
-46
-32
-34
-36
-27
-28
-37
-28
-25
-22
-21
-25
-22
-22
-23
-30
-33
-28
-22
-16
-25
-22
-26
-21
-19
-33
-30
-24
-16
-24
-23
-25
-24
-26
-30
-31
-20
-28
-25
-29
-27
-36
-33
-29
-33
-36
-36
-28
-36
-34
-43
-42
-36
-40
-39
-47
-44
-39
-47
-46
-48
-43
-43
-46
-49
-48
-44
-44
-44
-48
-55
-51
-56
-54
-44
-50
-53
-47
-49
-51
-42
-35
-48
-58
-60
-49
-33
-47
-53
-48
-54
-52
-57
-45
-45
-48
-43
-53
-45
-47
-46
-43
-48
-51
-47
-45
-46
-52
-48
-48
-50
-43
-50
-46
-43
-42
-45
-46
-48
-50
-51
-45
-46
-45
-42
-44
-61
-47
-44
-43
-44
-49
-50
-47
-43
-45
-47
-49
-44
-40
-39
-42
-58
-52
-55
-53
-41
-43
-39
-44
-44
-40
-42
-37
-40
-41
-38
-38
-34
-28
-26
-31
-31
-37
-30
-32
-37
-43
-40
-41
-49
-49
-43
-54
-50
-39
-41
-63
-51
-42
-46
-45
-48
-51
-60
-50
-38
-45
-54
-53
-51
-47
-46
-48
-49
-52
-50
-57
-48
-53
-54
-58
-60
-61
-59
-55
-51
-37
-29
-7
13
25
46
65
94
112
110
100
75
60
31
-11
-31
-31
-36
-33
-35
-37
-56
-48
-47
-40
-45
-44
-55
-61
-60
-57
-50
-43
-48
-49
-40
-49
-48
-52
-51
-48
-50
-55
-49
-52
-49
-46
-49
-43
-43
-48
-51
-44
-42
-46
-54
-48
-34
-34
-48
-53
-47
-42
-41
-34
-41
-46
-52
-44
-34
-40
-44
-40
-38
-35
-33
-38
-34
-35
-36
-25
-28
-36
-29
-27
-34
-33
-21
-19
-22
-18
-23
-30
-15
-15
-14
-18
-23
-13
-11
-19
-17
-20
-18
-13
-11
-13
-21
-17
-17
-9
-12
-15
-19
-18
-15
-22
-24
-22
-16
-20
-22
-21
-16
-20
-28
-27
-26
-26
-29
-27
-31
-31
-21
-22
-30
-27
-35
-37
-28
-30
-34
-38
-29
-32
-41
-37
-34
-44
-43
-47
-47
-49
-35
-38
-35
-35
-41
-38
-40
-42
-35
-41
-48
-41
-45
-36
-40
-41
-40
-39
-41
-41
-35
-43
-40
-35
-40
-36
-40
-28
-39
-43
-42
-38
-42
-39
-35
-36
-37
-41
-30
-31
-29
-38
-42
-37
-34
-41
-37
-31
-30
-36
-39
-32
-39
-40
-34
-36
-35
-40
-29
-24
-31
-37
-44
-36
-36
-30
-30
-33
-38
-32
-38
-31
-26
-39
-28
-29
-48
-40
-41
-41
-32
-45
-34
-30
-38
-39
-34
-32
-30
-29
-38
-34
-23
-28
-31
-25
-24
-19
-14
-19
-15
-23
-30
-22
-27
-38
-27
-29
-43
-26
-38
-42
-34
-40
-46
-56
-42
-32
-28
-32
-59
-55
-48
-38
-42
-43
-45
-46
-45
-41
-47
-46
-49
-52
-44
-40
-43
-50
-53
-51
-52
-53
-62
-59
-60
-52
-41
-27
-14
9
26
46
62
68
96
116
121
119
97
54
24
0
-19
-23
-33
-38
-37
-36
-45
-33
-26
-34
-50
-51
-44
-36
-39
-47
-43
-47
-39
-45
-55
-35
-39
-38
-40
-43
-40
-43
-36
-42
-40
-35
-41
-43
-39
-37
-38
-34
-32
-50
-48
-46
-35
-35
-30
-51
-37
-45
-36
-31
-28
-31
-43
-39
-32
-27
-33
-36
-37
-23
-29
-28
-35
-32
-34
-14
-23
-39
-28
-15
-14
-16
-28
-21
-17
-20
-21
-24
-18
-17
-9
-14
-19
-12
-18
-21
-11
-8
-12
-3
1
-21
-18
-17
-20
-17
-11
-13
-7
-11
-25
-19
-25
-19
-12
-12
-16
-16
-21
-25
-23
-27
-19
-18
-28
-27
-27
-27
-25
-28
-30
-26
-28
-29
-32
-44
-38
-30
-32
-42
-36
-38
-32
-39
-39
-38
-43
-38
-37
-38
-51
-43
-35
-22
-23
-51
-53
-43
-44
-51
-38
-34
-46
-36
-34
-36
-42
-40
-31
-44
-37
-33
-35
-39
-38
-31
-31
-44
-43
-33
-37
-38
-35
-40
-33
-38
-37
-37
-32
-37
-43
-40
-44
-44
-38
-28
-37
-37
-36
-48
-40
-30
-38
-39
-38
-38
-36
-36
-31
-51
-45
-38
-38
-34
-39
-39
-37
-39
-37
-39
-40
-44
-40
-36
-43
-42
-32
-54
-54
-36
-31
-37
-39
-50
-44
-47
-31
-30
-45
-42
-38
-36
-40
-46
-36
-31
-38
-29
-29
-32
-38
-33
-30
-28
-25
-28
-22
-21
-29
-26
-33
-28
-29
-31
-32
-36
-38
-40
-42
-37
-41
-47
-41
-43
-40
-43
-46
-43
-37
-38
-47
-46
-40
-43
-50
-54
-47
-43
-41
-41
-48
-50
-46
-35
-43
-45
-51
-45
-51
-60
-59
-53
-52
-34
-26
-1
10
35
56
76
100
119
143
123
107
92
79
29
-12
-23
-28
-32
-24
-33
-36
-35
-41
-37
-43
-37
-40
-47
-42
-44
-42
-40
-46
-40
-43
-46
-49
-40
-44
-47
-42
-47
-40
-38
-40
-38
-39
-47
-40
-28
-25
-44
-54
-44
-39
-42
-44
-38
-39
-38
-38
-41
-33
-38
-35
-36
-35
-35
-29
-31
-32
-29
-31
-38
-27
-29
-36
-29
-24
-29
-37
-29
-23
-24
-30
-25
-17
-23
-21
-27
-26
-20
-18
-24
-22
-17
-19
-18
-9
-14
-9
-6
-14
-24
-15
-21
-15
-12
-12
-17
-9
-11
-21
-20
-23
-29
-20
-20
-11
-17
-20
-26
-18
-15
-20
-30
-25
-27
-28
-23
-13
-28
-26
-21
-28
-34
-35
-31
-32
-27
-33
-28
-30
-38
-42
-29
-28
-32
-39
-37
-39
-39
-37
-26
-55
-51
-37
-44
-35
-40
-37
-40
-44
-43
-38
-35
-37
-40
-39
-40
-36
-40
-37
-34
-42
-37
-30
-38
-33
-33
-35
-31
-32
-41
-32
-32
-46
-35
-33
-34
-36
-32
-25
-40
-48
-32
-37
-40
-38
-38
-34
-37
-38
-41
-32
-34
-32
-32
-34
-41
-41
-31
-29
-43
-48
-38
-41
-41
-34
-30
-36
-41
-42
-39
-37
-45
-39
-30
-29
-36
-44
-39
-36
-37
-35
-41
-52
-48
-35
-38
-34
-36
-33
-30
-45
-42
-44
-40
-33
-42
-42
-41
-41
-45
-41
-35
-41
-45
-42
-40
-33
-40
-39
-35
-41
-44
-44
-41
-34
-39
-50
-30
-31
-32
-35
-37
-31
-32
-31
-31
-27
-23
-25
-26
-16
-22
-20
-19
-23
-25
-18
-32
-48
-37
-39
-37
-47
-33
-32
-34
-41
-37
-39
-39
-42
-38
-42
-40
-31
-42
-37
-35
-33
-33
-35
-40
-40
-38
-46
-50
-39
-39
-37
-41
-39
-48
-51
-45
-42
-37
-27
-7
15
28
44
59
87
109
129
136
124
107
86
55
22
2
-28
-26
-28
-37
-34
-33
-37
-41
-34
-34
-34
-42
-41
-35
-35
-38
-33
-33
-33
-27
-29
-35
-39
-35
-29
-16
-25
-46
-41
-34
-28
-31
-28
-25
-29
-22
-36
-27
-23
-26
-22
-20
-29
-37
-26
-26
-22
-22
-17
-23
-27
-26
-22
-22
-17
-22
-16
-15
-19
-16
-14
-20
-19
-23
-22
-16
-17
-14
-20
-14
-9
-10
-8
-13
-12
-13
-6
-12
-12
-13
-2
4
-13
2
-8
-2
-4
-4
-3
-1
-7
-6
0
0
9
9
-15
-15
1
3
1
-4
-11
-11
-6
-9
-9
-4
7
0
-16
-16
-12
-12
-12
-13
-19
-24
-23
-17
-20
-19
-18
-18
-18
-20
-30
-28
-36
-28
-29
-26
-24
-30
-28
-31
-32
-30
-37
-34
-24
-28
-38
-37
-37
-41
-34
-25
-34
-34
-33
-26
-32
-34
-34
-24
-29
-29
-31
-30
-41
-30
-30
-31
-29
-27
-31
-34
-35
-24
-29
-23
-34
-26
-29
-32
-35
-29
-33
-31
-30
-17
-27
-31
-32
-28
-25
-26
-27
-32
-28
-27
-30
-26
-24
-31
-40
-36
-36
-32
-28
-33
-30
-26
-25
-27
-32
-33
-37
-41
-37
-29
-32
-32
-26
-33
-41
-29
-27
-34
-34
-25
-24
-35
-38
-35
-27
-21
-36
-32
-34
-34
-36
-39
-34
-33
-26
-31
-35
-36
-35
-35
-24
-23
-28
-38
-40
-30
-27
-31
-30
-30
-36
-32
-19
-24
-27
-26
-26
-22
-19
-18
-22
-12
-13
-13
-14
-13
-15
-21
-30
-26
-17
-28
-26
-19
-21
-50
-39
-41
-36
-28
-37
-32
-39
-33
-34
-34
-20
-36
-39
-31
-39
-40
-41
-35
-34
-29
-26
-50
-41
-29
-35
-37
-41
-44
-33
-41
-47
-45
-39
-39
-37
-23
-7
6
21
46
59
73
98
110
116
105
82
64
33
-5
-27
-46
-42
-39
-37
-40
-42
-34
-29
-44
-45
-47
-46
-47
-36
-30
-33
-38
-39
-32
-32
-41
-45
-32
-42
-31
-19
-23
-46
-44
-45
-35
-26
-31
-37
-39
-39
-34
-29
-25
-23
-30
-27
-35
-30
-19
-28
-26
-26
-14
-20
-24
-24
-25
-26
-29
-26
-18
-19
-22
-24
-14
-11
-31
-20
-19
-15
-14
-17
-11
-17
-20
-11
-17
-20
-8
-2
-6
-8
-7
-8
-7
-9
-4
-4
-4
2
-4
-6
1
0
3
12
-1
-5
-4
3
4
-6
-3
-7
-1
2
-8
-7
-8
-5
-5
-13
-18
-13
-5
-9
8
-20
-14
-31
-16
-9
-24
-22
-20
-22
-25
-23
-19
-27
-21
-26
-21
-19
-25
-19
-29
-28
-25
-32
-25
-24
-27
-34
-34
-26
-24
-27
-29
-33
-27
-22
-20
-41
-29
-25
-31
-40
-40
-32
-29
-34
-26
-25
-23
-24
-31
-27
-26
-27
-29
-30
-35
-36
-44
-31
-32
-26
-25
-24
-23
-28
-26
-30
-30
-25
-27
-36
-45
-40
-31
-32
-28
-37
-28
-29
-31
-37
-27
-28
-25
-26
-36
-34
-34
-35
-39
-32
-37
-31
-34
-32
-34
-33
-38
-30
-38
-36
-34
-34
-33
-38
-41
-36
-31
-41
-37
-45
-33
-29
-37
-46
-38
-35
-35
-37
-40
-41
-29
-36
-24
-30
-36
-47
-40
-30
-42
-45
-40
-38
-38
-35
-30
-22
-29
-43
-40
-29
-28
-31
-23
-23
-24
-24
-30
-23
-29
-24
-28
-32
-37
-27
-28
-33
-30
-34
-32
-32
-35
-37
-33
-38
-32
-41
-43
-40
-29
-31
-31
-50
-43
-33
-36
-43
-41
-33
-33
-39
-39
-44
-41
-42
-38
-34
-32
-47
-45
-36
-46
-46
-37
-37
-14
5
23
36
54
71
94
111
129
127
120
88
84
52
13
-7
-24
-25
-32
-29
-26
-37
-34
-31
-36
-29
-38
-39
-41
-45
-23
-23
-37
-48
-49
-37
-39
-36
-31
-39
-33
-26
-27
-47
-45
-37
-33
-38
-35
-38
-33
-29
-34
-33
-36
-31
-36
-32
-31
-35
-35
-28
-35
-26
-33
-27
-30
-30
-23
-28
-33
-35
-32
-23
-29
-29
-20
-19
-29
-24
-19
-13
-15
-19
-24
-25
-24
-19
-12
-6
-23
-18
-29
-24
-17
-13
-15
-8
-16
-16
-11
3
-7
-15
-10
-7
-13
-11
-9
-5
-9
-8
-11
-8
-15
-11
-13
-13
-8
-9
-10
-6
-16
-16
-13
-8
-5
-23
-16
-20
-24
-27
-21
-18
-19
-17
-19
-25
-25
-21
-19
-17
-26
-29
-31
-31
-29
-23
-26
-24
-23
-26
-37
-32
-30
-31
-36
-30
-27
-32
-32
-32
-29
-26
-30
-36
-33
-31
-28
-29
-26
-29
-34
-25
-33
-44
-27
-32
-31
-28
-38
-48
-45
-28
-22
-33
-31
-29
-25
-32
-39
-28
-25
-30
-33
-30
-24
-34
-39
-29
-28
-19
-36
-46
-42
-38
-31
-27
-35
-35
-30
-38
-36
-37
-32
-28
-29
-30
-30
-41
-37
-28
-32
-29
-29
-25
-32
-27
-25
-27
-21
-22
-39
-28
-33
-36
-31
-34
-36
-29
-26
-32
-26
-35
-34
-27
-32
-37
-26
-28
-27
-32
-34
-33
-36
-36
-33
-31
-37
-31
-29
-40
-43
-40
-29
-29
-33
-33
-29
-40
-35
-28
-28
-33
-30
-28
-29
-25
-27
-23
-21
-23
-26
-23
-17
-19
-20
-15
-25
-23
-26
-30
-28
-29
-32
-37
-30
-32
-36
-35
-41
-40
-31
-38
-43
-44
-27
-34
-37
-36
-44
-41
-37
-38
-39
-32
-39
-44
-37
-45
-37
-41
-44
-38
-45
-43
-40
-42
-51
-46
-40
-35
-54
-32
-13
4
19
38
57
78
101
120
119
117
104
87
88
41
-5
-18
-23
-23
-38
-36
-35
-34
-35
-36
-36
-33
-39
-43
-38
-36
-34
-30
-47
-48
-39
-31
-29
-35
-40
-39
-37
-35
-30
-40
-46
-51
-36
-34
-38
-35
-27
-31
-31
-32
-31
-35
-41
-32
-27
-35
-27
-30
-32
-34
-40
-39
-32
-32
-32
-32
-28
-29
-29
-29
-23
-16
-26
-24
-36
-35
-28
-20
-24
-25
-31
-27
-18
-16
-18
-19
-21
-21
-23
-20
-20
-14
-19
-14
-13
-19
-10
-8
-10
-10
-11
-17
-8
-9
-9
-8
-9
-12
-11
-12
-11
-12
-20
-25
-11
-14
-24
-18
-18
-21
-14
-18
-16
-18
-19
-24
-32
-21
-21
-27
-30
-26
-29
-30
-27
-22
-28
-34
-38
-37
-34
-35
-31
-33
-46
-33
-34
-29
-38
-41
-38
-42
-39
-43
-38
-41
-41
-36
-39
-40
-42
-34
-34
-36
-35
-45
-31
-29
-38
-44
-33
-39
-36
-34
-39
-39
-37
-46
-39
-31
-39
-32
-36
-33
-31
-31
-41
-35
-34
-38
-33
-34
-40
-37
-34
-42
-30
-30
-37
-33
-43
-39
-38
-36
-33
-38
-38
-38
-39
-36
-39
-38
-36
-33
-36
-31
-36
-34
-34
-39
-41
-41
-36
-40
-35
-37
-45
-45
-35
-39
-36
-42
-41
-36
-27
-34
-48
-46
-44
-39
-36
-34
-35
-32
-40
-47
-42
-38
-32
-33
-31
-38
-45
-45
-29
-31
-41
-33
-36
-35
-39
-37
-34
-40
-44
-44
-39
-37
-35
-39
-35
-39
-34
-31
-48
-43
-37
-42
-42
-34
-34
-38
-34
-37
-35
-33
-48
-30
-36
-27
-32
-26
-27
-18
-18
-18
-22
-25
-39
-29
-36
-31
-40
-37
-27
-31
-40
-39
-41
-38
-42
-40
-43
-43
-42
-40
-42
-47
-41
-45
-47
-44
-37
-43
-42
-42
-34
-43
-53
-54
-54
-41
-50
-51
-46
-50
-53
-42
-42
-59
-60
-38
-26
-3
10
28
60
81
90
109
128
132
127
96
76
47
8
-15
-25
-29
-40
-52
-44
-34
-29
-31
-29
-41
-41
-43
-46
-47
-41
-44
-43
-42
-39
-39
-43
-39
-42
-44
-48
-42
-37
-33
-42
-53
-37
-35
-36
-55
-37
-41
-36
-33
-41
-37
-35
-36
-38
-28
-34
-34
-38
-30
-34
-36
-31
-34
-28
-29
-30
-32
-33
-29
-27
-24
-24
-20
-28
-30
-29
-24
-23
-20
-24
-32
-18
-7
-18
-24
-24
-16
-13
-16
-15
-15
-18
-8
-12
-11
-10
-11
-11
-11
-6
-6
-9
-9
-7
-7
-8
-8
-10
-12
-5
-5
-16
-21
-8
-12
-13
-15
-17
-15
-16
-11
-14
-14
-11
-28
-28
-19
-24
-35
-34
-17
-23
-27
-30
-29
-23
-31
-32
-33
-30
-30
-30
-35
-40
-35
-36
-34
-36
-43
-40
-40
-33
-38
-43
-36
-37
-35
-36
-31
-41
-42
-37
-41
-33
-40
-37
-36
-33
-61
-41
-34
-31
-33
-35
-33
-36
-43
-37
-30
-33
-35
-37
-34
-36
-39
-38
-35
-32
-44
-30
-25
-38
-40
-35
-43
-34
-35
-39
-40
-33
-40
-47
-43
-41
-40
-36
-32
-35
-38
-29
-35
-50
-48
-29
-31
-38
-45
-52
-40
-39
-35
-34
-45
-40
-38
-38
-44
-40
-40
-35
-35
-39
-40
-40
-41
-41
-41
-46
-36
-36
-33
-44
-45
-42
-41
-41
-40
-42
-41
-44
-49
-44
-38
-36
-32
-39
-45
-42
-43
-43
-46
-44
-46
-43
-45
-46
-38
-34
-45
-47
-47
-42
-47
-42
-33
-40
-47
-43
-40
-41
-42
-37
-29
-34
-37
-29
-27
-28
-28
-18
-16
-28
-28
-29
-33
-32
-35
-35
-32
-38
-34
-42
-43
-44
-51
-50
-39
-32
-40
-42
-32
-44
-51
-35
-34
-48
-53
-44
-45
-46
-40
-52
-50
-50
-45
-49
-49
-52
-53
-44
-50
-48
-51
-50
-52
-48
-39
-27
-5
22
37
51
76
94
128
133
136
115
101
78
33
-2
-21
-24
-34
-41
-35
-36
-44
-40
-39
-27
-25
-61
-59
-43
-38
-48
-42
-37
-48
-44
-42
-34
-45
-49
-43
-45
-41
-45
-45
-44
-45
-39
-48
-36
-31
-45
-36
-31
-41
-36
-38
-40
-47
-38
-33
-31
-42
-34
-30
-31
-35
-35
-40
-41
-26
-29
-27
-38
-29
-31
-27
-19
-21
-25
-31
-26
-21
-22
-19
-27
-23
-22
-37
-17
-19
-27
-7
-15
-26
-17
-9
-14
-8
-15
-8
-6
-4
2
1
-4
1
2
2
2
10
5
-2
2
2
-2
-4
5
4
4
0
-3
-5
-2
1
0
-2
-3
-6
-5
-9
-6
-13
-15
-13
-19
-13
-11
-11
-18
-24
-17
-18
-15
-19
-19
-11
-18
-22
-26
-26
-34
-30
-30
-23
-23
-25
-34
-29
-33
-25
-24
-33
-33
-29
-29
-30
-34
-26
-28
-20
-32
-38
-28
-21
-31
-23
-29
-36
-31
-24
-32
-27
-26
-35
-27
-34
-35
-32
-38
-27
-25
-26
-38
-34
-23
-23
-25
-33
-28
-26
-24
-31
-46
-39
-24
-32
-39
-21
-26
-32
-29
-29
-38
-40
-35
-37
-32
-31
-32
-34
-27
-35
-33
-32
-33
-36
-40
-37
-42
-45
-34
-26
-32
-50
-43
-38
-42
-37
-33
-47
-40
-32
-37
-42
-44
-30
-34
-40
-39
-26
-29
-44
-52
-47
-33
-40
-30
-34
-41
-31
-34
-31
-31
-33
-40
-39
-28
-27
-34
-35
-32
-39
-34
-35
-33
-25
-22
-19
-21
-22
-14
-25
-22
-23
-28
-21
-32
-36
-41
-36
-31
-36
-39
-43
-46
-29
-32
-41
-45
-32
-36
-50
-43
-47
-42
-51
-49
-33
-41
-36
-47
-45
-41
-46
-35
-42
-38
-47
-43
-43
-40
-42
-45
-48
-57
-56
-52
-49
-23
-9
-2
23
37
61
86
101
129
134
134
121
94
46
3
-19
-36
-30
-28
-39
-40
-38
-43
-44
-38
-39
-35
-41
-46
-44
-46
-45
-42
-47
-41
-40
-43
-30
-38
-42
-33
-43
-37
-44
-45
-35
-36
-36
-37
-44
-44
-45
-32
-37
-36
-31
-34
-38
-34
-28
-37
-35
-26
-38
-31
-25
-32
-37
-31
-30
-28
-25
-40
-25
-20
-25
-30
-30
-30
-33
-26
-18
-11
-20
-26
-17
-14
-16
-21
-12
-14
-14
-8
-12
-12
-6
-18
-11
-6
-6
-8
-18
-2
0
-7
-9
-12
-8
1
-6
1
-7
-10
-7
9
-5
-2
-6
-7
-7
-20
-1
-7
-16
-7
-10
-8
-16
-12
-16
-5
-11
-11
-17
-17
-17
-28
-21
-12
-19
-20
-26
-14
-38
-34
-31
-26
-36
-26
-23
-22
-42
-47
-23
-29
-36
-32
-40
-33
-33
-44
-33
-31
-38
-41
-34
-35
-27
-35
-31
-35
-30
-33
-30
-25
-27
-41
-34
-32
-38
-32
-29
-26
-34
-37
-29
-33
-27
-29
-27
-34
-37
-28
-32
-30
-33
-37
-38
-35
-30
-30
-26
-35
-31
-21
-34
-34
-35
-28
-34
-36
-31
-35
-30
-35
-39
-38
-33
-34
-33
-24
-32
-38
-41
-34
-32
-33
-25
-35
-42
-42
-30
-33
-39
-37
-30
-31
-37
-34
-36
-29
-28
-31
-46
-32
-31
-32
-34
-44
-35
-31
-32
-45
-30
-28
-33
-33
-36
-44
-32
-22
-20
-25
-22
-15
-15
-4
-16
-28
-25
-18
-29
-16
-28
-39
-35
-32
-30
-29
-35
-39
-36
-42
-43
-38
-45
-38
-39
-36
-31
-40
-45
-38
-44
-36
-40
-44
-32
-37
-36
-45
-38
-42
-45
-50
-44
-42
-48
-60
-47
-54
-51
-48
-34
-38
-14
-1
18
46
69
87
109
129
131
125
101
64
60
14
-17
-19
-33
-43
-39
-41
-42
-38
-52
-44
-47
-56
-53
-43
-70
-51
-48
-47
-53
-44
-48
-43
-52
-50
-54
-42
-49
-44
-44
-45
-36
-38
-42
-38
-33
-37
-50
-47
-39
-33
-43
-44
-46
-44
-44
-36
-38
-30
-26
-34
-30
-31
-28
-31
-31
-41
-35
-28
-21
-26
-33
-19
-18
-17
-36
-32
-22
-14
-13
-15
-21
-28
-29
-19
-8
2
-13
-9
-7
-16
-8
-3
-8
-7
-7
-4
-1
-1
-7
-3
-12
4
8
-5
1
-4
-3
-6
-2
-1
-6
-4
-8
-8
-11
-9
-7
-9
-10
-11
-10
-8
-10
-12
-14
-21
-17
-12
-15
-22
-16
-24
-16
-21
-30
-15
-28
-18
-10
-28
-37
-37
-30
-28
-27
-24
-29
-27
-23
-30
-23
-35
-34
-30
-28
-34
-38
-37
-25
-27
-30
-31
-24
-28
-25
-17
-25
-37
-23
-26
-19
-30
-21
-25
-38
-28
-26
-28
-29
-28
-20
-15
-15
-39
-41
-24
-12
-30
-32
-29
-29
-34
-32
-27
-23
-36
-28
-20
-26
-20
-33
-31
-34
-25
-34
-26
-32
-37
-34
-27
-31
-28
-31
-30
-29
-26
-29
-33
-26
-32
-33
-38
-37
-21
-22
-28
-40
-32
-34
-37
-35
-29
-30
-28
-34
-31
-26
-31
-25
-32
-27
-23
-22
-25
-19
-25
-16
-15
-2
-5
-35
-29
-9
-16
-16
-27
-26
-23
-30
-23
-28
-29
-22
-28
-31
-29
-37
-33
-28
-30
-23
-38
-35
-36
-31
-29
-28
-37
-30
-27
-29
-29
-48
-40
-26
-32
-26
-31
-31
-31
-35
-34
-39
-38
-45
-52
-45
-30
-30
-12
8
20
41
56
74
97
121
137
116
98
83
39
12
-30
-40
-33
-36
-39
-37
-32
-30
-30
-30
-30
-27
-30
-33
-32
-30
-31
-39
-30
-28
-26
-28
-31
-20
-25
-25
-28
-36
-24
-20
-28
-28
-31
-28
-32
-19
-32
-20
-15
-28
-27
-19
-18
-22
-19
-21
-34
-16
-16
-22
-21
-20
-13
-15
-8
-15
-17
-4
-8
-7
-24
-18
-11
-10
-8
-4
-9
-1
-5
-7
-6
-6
-6
8
7
-7
1
1
3
2
4
8
15
15
12
14
9
12
16
9
2
9
9
12
14
16
11
7
4
10
8
7
13
13
10
9
2
3
-3
4
1
6
0
8
9
7
-2
-2
-9
-8
-8
-9
-6
-6
-20
-17
-12
-16
-15
-13
-16
-23
-17
-15
-16
-17
-18
-17
-18
-31
-25
-16
-16
-21
-22
-21
-22
-13
-17
-20
-20
-19
-17
-22
-20
-15
-25
-23
-18
-20
-18
-23
-20
-18
-23
-23
-36
-10
-21
-21
-23
-19
-35
-27
-24
-18
-17
-22
-22
-21
-23
-27
-29
-27
-30
-26
-17
-18
-27
-24
-23
-25
-28
-26
-21
-24
-28
-28
-23
-32
-26
-18
-29
-29
-25
-22
-27
-17
-16
-34
-28
-24
-17
-12
-22
-17
-14
-11
-19
-24
-18
-18
-16
-8
-14
-9
-14
-17
-11
-18
-21
-17
-27
-26
-28
-30
-33
-21
-33
-29
-26
-34
-22
-22
-21
-26
-31
-26
-28
-32
-28
-31
-26
-30
-27
-32
-40
-35
-30
-29
-40
-29
-31
-22
-35
-30
-40
-48
-39
-44
-34
-22
-8
-8
20
36
52
79
93
108
113
92
76
50
9
-18
-36
-35
-39
-33
-25
-44
-36
-33
-26
-31
-34
-18
-30
-25
-25
-21
-26
-25
-22
-18
-16
-16
-31
-20
-17
-18
-17
-20
-17
-12
-13
-15
-7
-20
-18
-6
-7
-17
-22
-18
-19
-12
-16
-17
-19
-13
-10
-12
-12
-13
-3
-8
-13
-10
-5
-7
-15
-19
-4
-4
-1
-4
-6
-1
2
3
-2
-3
-5
-3
0
3
-6
1
4
9
1
-3
12
15
18
16
6
-12
9
3
9
4
12
11
14
9
7
13
10
11
12
13
12
12
17
13
9
8
7
9
1
-3
13
7
0
-1
-2
9
2
-6
-7
-8
-10
-10
-15
-15
-8
1
-4
-13
-16
-15
-21
-20
-20
-20
-17
-14
-19
-26
-18
-20
-14
-10
-23
-36
-21
-16
-26
-17
-16
-26
-21
-15
-16
-26
-28
-27
-19
-15
-18
-19
-24
-34
-16
-14
-18
-16
-10
-20
-20
-16
-13
-23
-24
-16
-18
-17
-19
-17
-15
-11
-14
-27
-22
-25
-18
-18
-21
-21
-23
-27
-20
-19
-29
-27
-5
-11
-14
-25
-18
-21
-23
-16
-17
-18
-21
-26
-22
-13
-14
-14
-13
-29
-15
-11
-7
-16
-11
-9
-14
-9
-11
-7
-14
-10
-16
-19
-23
-16
-19
-23
-20
-24
-31
-18
-10
-26
-18
-24
-31
-34
-28
-23
-27
-26
-18
-28
-35
-29
-23
-28
-32
-29
-31
-30
-24
-24
-27
-34
-31
-43
-35
-28
-44
-52
-33
-22
-16
3
24
35
54
75
97
117
104
112
100
78
66
29
3
-15
-19
-26
-28
-17
-30
-26
-27
-25
-23
-18
-22
-31
-34
-23
-23
-26
-26
-18
-24
-22
-29
-27
-30
-23
-24
-14
-16
-23
-27
-28
-26
-23
-15
-21
-30
-15
-7
-10
-28
-26
-30
-26
-20
-21
-24
-24
-16
-22
-28
-15
-17
-11
-7
-9
-14
-18
-12
-21
-15
-12
-14
-14
-10
-15
-9
-7
-3
-10
-7
-7
-9
-3
-2
-3
-11
-3
-3
-4
-11
6
2
-5
1
5
-2
0
4
0
1
3
-6
-2
-1
-5
1
2
-6
3
3
1
-3
-7
-5
-8
-2
-5
-7
-12
-5
2
-9
-15
-4
-9
-11
-14
-17
-16
-14
-15
-18
-12
-13
-33
-22
-27
-15
-15
-26
-23
-20
-26
-18
-18
-36
-29
-22
-23
-24
-25
-19
-18
-29
-31
-22
-22
-38
-25
-30
-22
-20
-31
-26
-25
-20
-18
-23
-24
-32
-29
-22
-23
-23
-26
-27
-27
-21
-25
-20
-17
-18
-19
-12
-11
-30
-23
-24
-29
-23
-16
-23
-30
-20
-21
-32
-27
-18
-14
-16
-12
-25
-19
-17
-24
-25
-28
-23
-16
-13
-18
-22
-29
-15
-14
-15
-17
-2
-11
-18
-16
-12
-8
-6
-20
-13
-8
-5
-6
-15
-14
-9
-15
-28
-23
-12
-17
-25
-27
-24
-25
-31
