5
14
13
13
7
0
-6
-2
-2
3
13
23
23
20
11
4
1
-2
0
6
10
17
15
9
6
-5
-11
-9
-4
4
15
18
16
14
3
-10
-17
-24
-19
-2
21
35
46
49
47
46
56
68
88
104
112
121
123
118
103
84
66
53
35
21
18
19
24
19
16
14
11
9
8
10
20
21
21
17
8
0
-7
-9
0
4
16
26
22
23
14
3
0
1
3
7
19
22
24
17
11
-1
0
4
6
11
21
24
27
25
14
5
5
6
7
9
22
30
30
20
14
5
2
1
8
16
31
37
37
36
24
17
15
16
19
25
32
33
36
32
24
18
12
14
26
37
44
47
47
47
41
34
32
35
38
46
49
52
58
52
42
35
40
46
56
65
67
66
62
57
43
39
39
39
45
58
62
65
64
54
38
27
20
22
36
49
49
47
44
37
25
17
12
11
14
21
23
29
27
27
18
10
8
5
1
8
18
18
19
21
10
2
1
0
6
16
22
24
19
8
-2
-5
-11
-7
5
15
17
24
21
15
-1
-5
-4
4
11
18
24
23
17
10
-7
-8
-9
-4
12
21
26
24
17
11
0
-4
-3
1
10
23
25
27
22
11
-4
-7
-10
-3
3
15
18
13
10
9
12
6
7
13
19
22
22
22
14
6
-2
-5
-4
6
11
21
23
20
10
4
-11
-9
-5
-1
7
19
25
22
23
9
-2
-2
-2
3
9
17
16
14
11
3
-9
-13
-11
-2
9
14
20
21
13
5
-3
-10
-9
3
14
18
19
16
10
-3
-13
-8
-3
14
24
27
26
24
12
3
-1
3
7
11
17
20
20
22
13
0
1
-2
6
10
17
30
28
23
14
3
-2
4
3
10
14
16
18
12
11
-8
-13
-6
-6
-1
9
18
19
16
10
-2
-9
-14
-7
0
10
15
15
10
4
-7
-14
-13
-9
-6
8
15
17
10
5
-8
-15
-14
-8
0
6
9
16
9
-1
-19
-23
-20
-12
-1
15
24
32
39
51
54
64
83
111
132
138
137
127
109
94
91
73
50
27
10
-1
9
12
12
7
-6
-11
-9
2
13
16
17
16
6
5
6
3
-7
-7
4
13
20
20
14
8
6
4
-1
0
2
16
22
25
16
6
2
2
1
5
14
23
25
20
15
5
-2
-5
-2
4
15
19
23
22
20
11
2
-1
-2
7
22
30
36
29
17
2
1
-2
11
17
29
37
37
37
32
21
11
2
10
21
39
44
35
38
40
32
18
16
20
31
43
53
56
56
49
38
37
36
39
41
56
63
63
55
42
31
18
25
37
46
56
54
52
49
41
28
22
20
17
16
26
27
26
19
14
13
14
13
15
18
24
24
23
17
10
2
-7
-6
0
1
2
12
19
18
5
-6
-11
-5
-3
0
10
14
10
9
2
-13
-18
-13
-4
5
13
10
7
4
-8
-17
-14
-13
-2
9
14
13
13
10
4
-2
-3
-7
0
11
13
14
14
9
1
-7
-9
-7
-1
8
13
17
13
8
-6
-10
-10
-2
-1
-4
5
8
11
8
7
4
0
-2
1
11
16
19
13
5
-10
-14
-12
-5
1
10
14
15
10
4
-3
-9
-5
-6
-4
10
19
17
9
0
-10
-16
-18
-6
-3
9
17
14
11
5
-6
-12
-14
-10
-2
6
12
6
-3
-5
-13
-15
-15
-13
-7
9
16
17
14
6
-9
-13
-20
-21
-12
5
16
18
10
-4
-11
-14
-14
-9
-4
5
2
7
0
-13
-22
-25
-21
-5
4
11
13
13
5
0
-8
-8
-6
-3
4
11
9
10
6
-2
-9
-8
-10
-5
6
17
22
16
9
-2
-13
-19
-15
-6
5
22
25
21
1
-5
-11
-16
-14
-12
-4
3
3
3
6
-3
-15
-23
-18
-10
-7
-7
-2
0
-4
-15
-24
-20
-18
-14
-9
-1
1
-3
-6
-20
-31
-27
-21
-14
-2
-2
-3
-8
-14
-28
-26
-29
-22
-12
-4
-2
2
-6
-16
-25
-28
-21
-7
8
25
39
47
64
82
90
100
107
112
116
116
108
95
74
50
14
-7
-19
-27
-24
-19
-11
-2
3
4
-3
-7
-12
-13
-12
-1
6
3
0
-7
-16
-18
-19
-14
-9
2
7
5
3
-3
-13
-17
-17
-12
-6
1
6
5
1
-5
-13
-15
-10
-4
-1
7
11
15
6
2
-4
-14
-18
-20
-4
6
9
10
-2
-6
-6
-5
-5
0
7
18
17
18
15
7
0
-5
-2
4
11
22
24
21
10
4
7
9
14
19
27
38
37
33
29
20
17
16
21
30
35
38
45
39
34
32
24
24
32
37
45
47
51
48
37
32
28
22
26
32
40
46
43
36
29
13
9
6
6
9
23
26
24
20
15
3
-8
-8
-10
-6
7
13
16
7
2
-6
-15
-18
-18
-15
-4
6
5
1
-7
-21
-23
-21
-20
-11
-2
5
6
-3
-7
-22
-16
-16
-18
-13
-1
0
4
1
-8
-15
-17
-20
-15
-8
3
5
2
4
-6
-14
-16
-19
-16
-9
-3
2
0
-3
-6
-8
-11
-10
-6
-6
-4
6
7
3
-6
-14
-19
-16
-13
-6
5
10
11
8
2
-7
-14
-15
-15
-5
6
7
4
-3
-8
-18
-16
-16
-11
-5
7
9
5
-8
-15
-15
-19
-22
-13
-4
9
19
11
-2
-10
-16
-14
-12
-7
2
2
-1
4
-2
-10
-17
-23
-21
-15
-6
-1
5
2
-1
-10
-17
-14
-12
-10
-1
1
4
4
-6
-15
-26
-21
-12
-9
-2
3
1
1
-3
-21
-23
-23
-27
-15
2
11
12
6
-3
-10
-18
-20
-20
-8
1
3
2
-1
-8
-16
-22
-24
-16
-8
1
9
8
3
-3
-12
-23
-24
-18
-11
-5
4
4
-2
-8
-16
-16
-11
-10
-7
5
1
1
0
-7
-8
-12
-13
-8
-3
6
5
9
5
1
-9
-9
-6
-4
1
11
15
16
8
3
-6
-14
-14
-3
-3
5
14
4
-2
-5
-14
-22
-28
-25
-15
-2
6
5
-5
-13
-23
-30
-33
-25
0
17
18
9
-3
-13
-26
-29
-19
-8
0
9
10
3
-4
-13
-22
-30
-23
-20
-14
-1
9
6
-4
-14
-22
-27
-24
-20
-14
-8
-4
-5
-13
-14
-6
-4
7
22
45
57
76
88
111
114
116
119
114
109
104
94
75
48
20
-8
-27
-30
-18
-14
-7
-1
6
4
8
-4
-13
-13
-7
-2
4
8
11
7
2
-8
-14
-12
-8
-9
4
6
7
2
-5
-9
-11
-10
-6
4
14
11
12
6
-3
-6
-5
-10
-10
-4
7
16
17
12
10
-1
-7
-11
-8
-3
16
16
15
18
11
-2
-5
-6
5
12
20
25
25
22
15
6
0
5
10
16
20
24
26
24
21
14
10
11
19
29
39
42
40
37
30
24
22
26
33
44
49
53
50
43
35
29
25
27
34
48
62
63
62
49
41
34
27
28
33
38
46
48
40
33
23
18
14
16
21
28
33
31
25
15
7
5
2
0
0
7
18
13
11
3
-12
-17
-17
-11
-2
9
12
10
3
2
-2
-15
-25
-15
5
25
21
13
6
5
0
-7
-16
-16
-11
-5
1
9
11
6
-8
-12
-12
-10
-3
8
7
0
0
0
-9
-7
-8
-5
0
7
10
10
3
-3
-13
-18
-14
-6
-2
12
18
19
10
-5
-13
-7
-5
-3
5
13
18
17
10
2
-5
-10
-13
-4
4
6
5
7
2
-7
-13
-15
-9
-3
4
11
13
10
11
2
-5
-17
-24
-7
6
11
8
8
1
-3
-11
-17
-19
-8
1
3
9
8
4
-3
-10
-15
-17
-12
-1
8
11
10
1
-6
-15
-17
-14
-11
-2
1
7
10
6
-2
-10
-14
-13
-8
4
10
8
1
-6
-19
-17
-5
-1
-3
6
9
11
9
5
-9
-14
-19
-19
-13
0
-2
-2
-5
-9
-12
-8
-10
-6
-2
8
13
10
10
2
-11
-18
-21
-12
-5
6
8
8
5
-6
-20
-24
-13
-5
0
5
10
11
9
5
-5
-10
-11
-7
-4
3
4
9
8
4
-3
-10
-14
-17
-7
9
19
23
18
10
-2
-5
-4
-1
5
21
29
30
19
11
0
-7
-8
-5
-2
3
8
13
7
2
-5
-11
-13
-13
-11
1
9
18
13
-1
-13
-20
-18
-11
2
10
13
10
1
-7
-22
-23
-28
-22
-3
8
11
11
4
-1
-11
-16
-12
-3
3
7
8
7
-1
-8
-21
-23
-21
-14
-9
-9
-8
-5
0
0
-2
5
17
30
49
64
84
104
118
120
111
110
107
106
107
97
81
56
24
-8
-25
-23
-17
-9
-1
10
21
15
9
0
-2
-1
-2
-4
4
7
7
8
7
-3
-5
-6
-8
1
10
10
19
18
13
0
-5
-10
-1
7
14
17
19
13
2
-6
-8
-4
0
7
22
28
27
23
14
4
3
1
6
12
23
25
19
13
6
2
5
4
9
18
27
28
28
26
23
12
4
-4
9
28
38
40
40
36
33
30
23
22
24
32
45
46
41
37
30
31
32
36
43
52
56
60
63
59
50
35
33
36
47
48
63
67
60
51
38
38
37
34
42
45
51
56
54
44
34
22
16
13
19
35
40
47
39
27
15
9
2
1
6
14
24
24
18
10
-1
-11
-15
-10
-1
12
15
18
15
5
-10
-11
-6
2
6
13
18
17
15
11
-2
-11
-14
-15
-4
14
22
19
17
9
1
-2
-6
-3
0
9
14
15
14
7
-3
-3
-8
-10
-4
13
20
19
15
8
-2
-6
-3
-7
-1
1
1
11
9
15
7
1
-2
-3
9
19
22
23
18
6
-3
-6
-6
0
5
15
13
10
7
2
0
-3
-3
-2
3
13
22
19
14
4
-3
-8
-9
-4
6
19
19
15
11
0
-8
-8
-10
-2
8
16
17
14
9
-2
-8
-9
-12
-11
-4
7
16
18
12
5
-1
-6
-6
-3
8
19
18
17
9
-8
-14
-13
-16
-10
1
10
15
12
9
2
-6
-15
-18
-15
5
17
20
19
16
9
-3
-11
-15
-4
9
13
19
13
6
-4
-10
-12
-8
-1
10
16
18
13
6
-3
-10
-12
-8
-1
9
12
13
9
0
-13
-13
-16
-11
1
9
9
14
12
17
5
-7
-12
-4
1
10
12
15
10
3
-1
4
2
4
7
17
20
20
16
14
5
-1
-3
1
8
18
20
23
23
19
10
4
4
9
9
19
30
28
17
10
-1
-5
-14
-17
-8
15
23
24
12
0
-8
-9
-4
-1
0
7
10
6
-7
-4
-4
-5
-8
-3
2
13
19
13
4
-1
-8
-13
-15
-7
5
12
15
14
4
-21
-40
-22
-2
3
6
8
8
5
0
-9
-17
-16
-16
-7
7
27
35
45
54
57
60
75
101
120
133
140
130
122
101
83
66
44
16
0
-2
-1
6
1
-4
-8
-13
-7
1
4
6
9
11
13
15
8
-5
-9
-4
6
11
14
18
21
13
-1
-5
-8
-4
-2
10
14
14
9
6
4
-2
4
5
5
20
22
23
17
12
-2
-2
-3
1
9
17
22
20
15
21
11
4
3
7
13
21
23
27
24
17
11
11
14
17
24
32
37
39
35
29
17
5
2
14
19
28
40
50
51
46
35
27
25
30
40
54
62
58
53
51
43
42
44
44
49
61
67
64
56
52
46
40
38
45
50
56
55
56
53
39
23
24
26
30
34
41
48
45
37
30
24
15
11
20
26
30
31
29
23
12
2
-2
2
3
11
19
20
12
7
1
-4
-4
-7
-1
8
15
17
15
11
0
-3
-8
-11
1
9
15
15
10
10
1
-7
-10
-6
1
8
12
20
17
18
3
-7
-10
0
3
10
17
22
17
2
-8
-5
-2
2
7
13
19
18
14
8
-4
0
3
4
6
15
22
23
13
8
-2
-7
-7
0
4
16
19
17
10
5
-5
-10
-6
3
11
25
21
15
12
6
0
-6
-8
-12
-6
7
9
17
14
9
7
1
-5
2
9
22
26
24
15
7
-7
-13
-14
-6
-3
5
12
7
0
9
0
-2
-5
3
12
16
22
19
10
3
-7
-4
-3
-2
6
10
16
13
9
3
-5
-11
-7
-3
9
15
18
14
4
-2
-8
-16
-12
-2
9
13
20
22
16
-1
-9
-8
-5
3
9
15
20
18
8
-6
-13
-14
-6
0
11
14
14
14
8
0
-7
-13
-11
2
13
19
20
16
9
-8
-14
-14
-9
-4
8
16
21
18
8
3
-5
-8
-6
8
22
25
24
15
14
6
-2
-5
2
12
23
25
25
25
15
2
-2
2
0
9
22
24
25
20
14
5
-4
-6
1
7
14
16
20
13
-2
-11
-11
-17
-5
6
12
16
12
7
2
-9
-13
-10
-7
-1
11
12
8
3
1
-3
-9
-10
-3
-1
6
8
8
7
0
-9
-8
-10
-2
2
4
2
2
2
-7
-14
-18
-16
1
18
34
42
58
62
63
68
89
114
126
140
146
140
123
104
72
48
24
7
-6
-4
1
7
10
7
-1
-2
-4
-5
-1
17
24
25
23
13
4
-1
-6
-7
-1
10
19
18
12
8
2
-8
-7
-4
0
9
24
32
25
19
11
5
-2
-5
2
17
21
14
17
19
8
-2
4
11
14
23
30
31
23
21
10
5
4
11
14
21
24
27
22
17
8
3
12
23
28
36
41
43
40
26
19
16
19
26
34
42
48
52
45
40
36
33
35
35
45
60
62
61
55
51
38
35
30
35
49
61
66
66
59
53
50
48
42
47
56
62
62
58
48
42
37
32
31
32
41
46
45
42
34
29
21
15
14
21
25
31
24
24
18
1
3
1
2
15
19
14
12
8
4
1
4
-1
5
0
3
13
11
12
8
-4
-4
-8
-12
-5
9
21
29
31
13
3
-2
-7
-10
-10
-11
6
17
10
17
6
-6
-7
7
9
13
15
11
8
14
2
-1
-5
-5
4
17
23
21
17
16
1
-5
-5
-4
4
8
16
23
17
15
7
0
-1
2
8
12
16
16
7
-1
-17
-23
-10
9
14
21
29
24
19
12
1
-8
-11
-6
1
7
16
15
16
11
3
-3
-9
-1
2
11
17
21
14
5
-6
-12
-16
-10
-1
7
13
25
15
4
-7
-8
-3
6
11
15
19
19
7
1
-10
-13
-9
-7
0
12
13
18
12
10
-1
-4
-5
-2
4
6
12
12
6
-1
-7
-6
-6
-8
6
8
20
17
16
8
-3
-10
-9
-5
14
14
11
7
2
-1
-9
-6
-13
-3
6
14
15
15
5
-3
-11
-16
-8
1
7
17
18
17
10
0
-9
-17
-11
2
15
19
21
20
23
11
0
-4
0
4
14
19
20
17
8
-3
-11
-9
-1
7
20
28
31
27
23
13
3
1
6
10
15
20
20
11
4
3
-2
0
6
6
11
20
18
12
10
7
-1
-8
-6
-5
4
11
12
9
3
-7
-18
-18
-9
-1
2
5
7
6
3
-13
-16
-3
4
13
17
13
13
10
-3
-13
-9
-8
-13
-5
8
12
12
2
-8
-22
-19
-18
-6
16
32
47
58
62
62
78
89
106
121
138
145
124
110
105
97
65
34
14
-1
-4
8
10
5
-1
-7
-13
-11
0
2
10
28
27
24
21
7
-8
-10
-8
3
13
9
17
13
9
0
-5
-8
-2
7
16
18
27
22
17
3
-7
-2
-2
7
20
24
24
21
19
10
5
-4
-7
1
17
22
28
35
28
9
8
5
10
18
25
28
31
29
26
12
5
10
14
16
30
40
38
33
34
25
22
15
14
27
43
50
50
48
45
30
32
34
35
42
52
58
61
58
49
44
42
43
50
61
67
63
63
58
52
38
36
49
53
58
66
67
67
53
48
31
27
29
34
36
45
48
44
31
22
19
23
22
17
18
29
32
28
17
6
3
2
2
4
15
20
19
26
16
5
1
1
-1
-1
7
10
3
4
0
6
-2
-7
-1
3
10
21
20
14
9
3
-7
-12
-6
1
7
9
19
20
15
4
-4
-7
-6
4
14
20
25
18
12
3
-6
-8
-5
2
16
20
18
9
6
-7
-10
-13
-12
1
21
29
24
20
21
6
-1
-6
-1
4
15
21
19
14
14
5
-2
-5
-9
3
13
20
21
14
6
-7
-20
-17
-1
8
17
16
11
10
13
3
-3
-3
0
2
4
17
25
17
7
3
-6
-12
-4
3
16
21
19
10
-2
-9
-15
-10
-1
6
13
14
11
6
-4
-17
-22
-15
-2
10
14
20
17
10
5
-4
-9
-9
-3
4
8
12
11
1
2
1
-6
-6
1
9
14
17
20
13
2
-8
-10
-7
-7
0
7
12
9
-1
-10
-17
-19
-16
1
12
16
17
17
11
1
-6
-9
-1
1
9
13
20
20
11
6
2
0
2
6
14
18
20
18
13
1
-5
4
5
9
20
23
20
18
8
7
1
-4
-7
2
17
28
22
16
6
-6
-11
-14
-17
-4
5
11
13
10
8
-10
-12
-11
-11
-4
5
12
10
7
-12
-25
-24
-24
-12
1
7
12
15
12
3
-7
-12
-14
-10
-6
-3
4
6
6
-7
-18
-16
-18
-15
-12
0
7
2
13
21
17
18
31
51
84
114
139
148
143
136
116
102
89
73
69
60
39
20
-1
-8
-15
-16
-14
-6
8
15
18
12
3
-5
-9
-8
-1
9
18
24
26
21
13
1
-9
-13
-10
3
13
19
23
22
12
2
-3
-3
-6
1
11
16
20
18
14
8
6
3
1
6
15
24
24
26
18
6
2
2
4
8
23
27
27
25
18
12
11
9
10
9
16
26
31
35
31
26
21
19
17
22
36
41
41
45
45
33
27
28
30
36
43
47
50
46
49
40
35
37
38
44
59
70
71
61
58
51
46
42
45
50
58
62
61
58
50
40
34
32
33
41
54
57
53
47
36
24
20
18
16
22
35
42
37
30
24
9
0
1
7
17
22
16
16
21
19
9
4
5
4
9
16
20
24
15
7
-6
-12
-17
-8
2
16
27
23
18
8
-2
-4
-4
-1
10
17
14
10
16
11
5
-3
-2
4
4
10
18
19
21
10
1
-2
-2
3
13
18
22
19
9
1
-4
-10
-7
8
24
21
22
22
17
10
-2
-5
-4
1
9
15
22
21
15
4
-5
-8
-4
5
15
20
21
14
12
7
-3
-7
-4
0
6
17
19
14
8
0
-7
-12
-4
4
14
14
11
12
9
1
-7
-5
3
5
14
11
16
9
2
-7
-7
-12
-13
-7
10
16
14
14
4
-7
-11
-5
-6
-2
11
5
9
8
5
-6
-8
4
9
6
11
11
19
13
10
-4
-9
-8
-7
0
12
18
15
19
14
9
2
-1
5
11
15
28
18
14
12
3
1
-1
4
9
15
23
20
12
4
-3
-16
-12
-6
4
13
11
6
4
-6
-3
-7
-6
-3
2
10
12
11
11
-1
-11
-11
-9
-4
-2
7
14
7
-2
-10
-9
-8
-5
-2
6
12
12
9
2
-11
-14
-17
-10
-8
-6
-8
0
-1
1
-5
-2
8
24
43
71
98
117
138
139
132
122
117
109
101
89
75
55
28
-1
-13
-20
-23
-19
-11
8
16
18
15
12
1
-9
-6
0
5
18
27
25
16
8
0
-5
-10
-7
1
9
12
15
15
6
-3
-9
-4
2
7
14
26
25
19
16
4
2
1
0
7
13
16
23
24
21
6
8
11
11
12
18
23
23
21
21
12
3
0
13
23
29
31
34
34
30
23
8
4
13
25
42
45
41
39
37
29
28
28
31
39
48
51
50
46
48
41
36
40
45
51
56
68
70
62
50
43
36
39
52
60
66
63
59
55
48
39
32
29
39
55
58
54
50
37
29
25
18
18
20
38
44
44
36
30
14
6
5
0
7
22
26
22
25
16
2
-6
-8
-3
4
18
19
23
20
10
3
-2
-3
-2
3
14
19
17
18
11
-3
-3
-3
-1
5
12
25
28
23
18
15
-1
-5
-3
6
23
23
20
13
11
0
-2
-4
-2
8
18
22
25
20
13
7
-1
3
4
10
19
18
20
21
18
8
4
-5
4
10
19
26
27
16
13
5
4
2
10
18
22
24
27
20
8
-3
-6
-2
9
17
19
19
18
11
7
2
-7
-7
2
12
21
23
25
20
12
5
2
-3
10
20
15
24
21
12
0
-8
-6
-2
8
11
21
23
23
18
3
-5
-2
-1
5
16
17
22
21
12
0
-10
-6
0
8
15
17
22
23
14
3
-9
-6
2
7
18
25
24
22
13
2
1
4
17
17
17
22
22
16
14
13
1
4
8
20
32
36
34
30
17
12
3
6
8
13
23
28
29
26
21
10
-2
-5
-4
-1
7
8
9
8
7
0
-2
-5
-3
4
9
18
26
22
5
-9
-15
-11
-1
8
12
17
18
18
10
-3
-12
-14
-8
1
14
17
15
10
7
-3
-12
-11
-4
-2
7
14
1
-8
-14
-13
-12
1
18
37
56
72
77
84
95
109
117
122
138
144
137
124
115
97
73
32
6
-3
-8
-7
1
13
16
13
4
-7
-2
1
10
15
26
32
21
18
6
-4
1
5
12
21
19
21
19
14
10
2
1
1
6
12
19
24
24
19
9
4
7
6
17
27
31
26
21
14
13
6
0
7
13
27
32
28
33
27
18
10
9
10
14
26
29
27
25
22
19
22
19
30
31
43
47
46
41
35
27
24
23
25
28
42
43
52
52
49
38
36
40
43
49
58
65
66
63
53
48
42
43
44
52
69
76
70
64
56
48
46
39
42
53
58
64
58
53
42
33
27
24
30
39
44
52
44
37
30
17
10
12
15
15
18
21
28
24
21
11
2
-5
4
14
20
26
24
24
12
0
-7
-10
-1
15
18
18
19
13
6
0
-5
-3
2
8
17
20
20
3
3
3
-1
0
5
20
26
24
24
20
11
3
0
4
-1
11
16
17
21
17
7
2
-8
-2
8
17
22
29
24
17
10
2
-3
7
15
20
24
27
24
20
6
1
-3
-1
3
20
27
30
16
12
5
-1
1
11
19
25
25
24
19
10
0
-5
-6
3
11
20
28
30
18
12
-4
3
3
4
11
19
21
21
23
14
3
-2
0
6
7
19
25
24
20
15
4
-5
-5
-1
10
21
22
21
15
14
2
-6
-5
0
6
19
17
14
19
11
6
-1
0
9
17
23
24
26
23
9
4
0
7
14
20
24
24
27
25
12
6
5
12
18
29
29
34
32
24
20
11
10
8
10
22
33
35
33
17
0
-2
9
10
9
13
22
22
18
13
6
-4
-14
-11
6
14
16
18
17
14
7
-1
-4
4
5
18
28
29
18
7
0
0
-2
-3
0
8
8
15
21
16
4
-4
-5
-9
-6
4
1
6
12
6
-3
-4
2
13
29
49
68
84
92
103
120
138
141
149
145
149
137
126
100
71
34
2
-6
-7
-4
9
23
27
24
24
8
5
6
7
14
21
21
24
18
13
7
-5
2
8
13
24
29
30
22
17
10
8
2
1
16
26
30
32
30
21
11
4
4
10
17
27
33
32
23
20
19
14
10
17
25
35
32
25
25
22
13
11
12
19
33
41
46
46
39
30
24
20
24
32
36
39
35
37
41
34
25
30
43
43
51
59
56
55
56
48
43
41
42
48
55
64
78
80
70
56
54
52
56
62
69
77
80
74
64
53
40
49
54
60
67
67
64
59
48
38
33
34
34
39
51
57
55
50
41
30
20
11
13
15
27
36
39
31
19
5
1
-7
6
20
25
26
24
22
23
13
6
-3
-2
4
11
18
21
20
20
10
4
3
3
16
28
32
33
27
25
11
0
-8
3
13
20
26
25
21
14
3
-2
-4
4
15
26
27
29
21
15
8
3
1
8
18
27
31
27
16
14
12
9
9
13
18
23
23
19
24
21
12
7
8
11
18
25
27
22
16
13
3
5
7
14
20
28
30
24
21
11
3
7
7
10
17
20
21
23
24
15
2
0
4
9
18
28
29
28
23
10
6
5
10
16
20
25
24
21
15
4
-2
-7
3
12
19
25
29
27
17
9
7
6
12
13
17
17
16
15
17
8
2
6
10
11
25
32
34
27
22
9
6
5
13
20
31
30
32
26
16
10
12
8
14
20
26
37
36
32
25
17
15
15
20
24
25
22
26
21
14
0
-1
-7
1
17
19
27
22
16
5
-1
5
0
9
11
24
32
24
15
11
1
-9
-7
-3
4
13
23
25
19
13
4
3
-3
-4
6
17
19
14
11
2
-2
2
-3
-7
-1
9
19
16
3
2
4
4
12
34
55
77
91
99
112
135
142
144
139
133
132
123
110
89
53
19
-4
-21
-18
-5
5
9
18
20
18
13
15
18
17
16
20
28
35
27
22
17
13
13
9
14
24
20
21
24
24
14
7
5
9
13
17
18
27
29
20
15
17
16
15
15
26
37
40
27
17
8
7
12
20
27
34
36
38
39
34
21
18
19
21
25
32
35
35
33
28
17
19
23
24
30
50
52
53
47
43
33
19
26
38
45
51
59
62
58
51
37
26
35
46
60
70
71
74
66
61
56
56
48
49
60
67
75
74
68
64
54
48
46
44
57
66
62
65
64
53
39
27
23
32
44
45
44
44
38
22
14
10
13
16
29
30
28
31
24
13
6
5
6
11
13
23
32
26
25
13
7
8
-2
-3
9
25
27
20
10
5
11
10
8
17
26
25
25
29
17
9
4
1
5
12
15
19
20
24
14
5
3
3
3
7
20
29
36
31
25
13
4
0
6
7
15
27
27
24
18
13
7
5
13
16
27
33
40
31
17
7
3
-5
-6
7
24
31
34
27
18
6
-3
-10
-1
13
17
23
26
24
19
5
-4
0
17
16
23
28
28
22
13
2
-3
-4
0
9
20
25
25
16
7
-1
-6
-3
9
16
24
21
18
16
15
1
-2
0
6
7
14
23
24
20
15
4
0
-4
2
13
21
28
23
22
10
2
0
2
2
8
16
20
22
23
9
3
3
9
8
11
20
23
25
12
6
2
8
9
9
17
26
26
19
17
11
3
2
5
20
34
32
30
30
22
9
6
9
13
25
23
32
33
18
22
23
10
10
16
23
31
30
34
31
26
13
6
5
2
4
20
17
27
26
20
9
2
9
6
10
21
18
16
13
15
4
1
-1
-4
2
10
14
22
19
11
6
5
2
5
7
17
20
20
14
10
-4
-7
-5
4
7
11
19
24
19
10
-7
-19
-20
-12
2
16
30
47
54
53
60
69
85
111
137
155
165
160
151
124
102
87
63
40
28
17
18
16
4
4
-1
-6
6
17
21
26
21
16
23
13
-2
-3
0
12
17
26
28
29
26
20
10
7
4
4
11
18
22
20
12
16
11
3
-2
6
15
28
22
20
27
11
10
19
23
22
28
33
37
34
31
16
9
4
7
13
20
24
33
22
18
17
22
22
23
23
32
41
47
44
36
30
24
20
29
39
45
53
51
42
39
40
37
29
40
47
53
58
57
58
61
57
50
49
54
55
63
68
72
65
53
47
45
45
50
57
70
83
76
62
56
45
45
43
39
46
54
59
58
51
36
27
14
7
18
31
44
44
38
29
21
10
5
7
12
9
24
26
25
18
9
1
3
4
8
13
21
19
22
18
15
3
-3
-2
0
12
21
22
15
7
0
0
-4
-4
-2
3
17
28
27
16
3
-8
-12
-6
-4
10
22
23
20
9
-5
-3
-1
0
2
13
24
28
28
15
6
2
-1
1
7
15
22
26
24
17
1
0
1
1
0
10
24
22
12
1
2
-3
-5
6
6
12
14
22
20
10
1
-6
-2
-2
9
26
28
33
22
11
-3
-2
-9
-7
-1
10
23
22
15
16
2
-3
-7
-2
2
11
20
16
8
8
2
-3
-10
1
-1
7
15
15
19
22
2
-10
-8
2
13
19
19
15
4
-7
-4
0
-2
1
10
16
19
17
9
5
-2
-8
-5
-2
2
15
21
21
17
9
-3
-14
-16
-8
12
17
23
16
7
1
0
1
-3
1
9
14
17
13
15
7
-2
-7
1
3
12
24
26
23
16
16
-5
-8
5
6
26
32
35
35
28
10
-2
-7
4
12
16
24
23
19
12
3
-4
-2
-1
4
14
14
13
9
-2
-17
-26
-15
-4
1
12
17
23
12
9
-6
-10
-10
-13
-10
7
18
25
20
0
-18
-20
-21
-16
-6
6
14
14
8
5
-2
-15
-18
-20
-7
4
5
-1
-2
-9
-18
-25
-23
-11
-6
15
29
43
40
57
57
63
80
109
139
155
156
158
151
130
98
81
64
45
23
11
6
-1
-2
-7
-12
-11
-9
3
5
15
19
20
18
11
5
-5
-5
0
6
18
20
19
13
7
2
1
3
6
16
30
28
20
8
2
-13
-11
-6
2
5
15
32
26
19
0
-8
6
7
9
15
23
26
29
16
3
-5
2
7
17
28
35
37
32
19
14
-1
3
16
22
25
30
49
39
27
9
4
6
12
20
32
48
51
54
48
39
27
30
31
39
57
59
61
62
54
40
36
37
35
34
39
45
57
55
57
58
55
51
49
52
64
70
65
63
56
40
34
32
41
46
54
54
52
48
33
22
15
14
15
20
28
31
22
21
21
8
9
5
9
12
18
23
19
13
7
-1
-2
-4
4
8
16
15
18
13
11
2
-5
-17
-6
4
17
21
13
3
4
1
-8
-15
-3
-1
24
33
35
19
5
-3
-8
-7
-2
9
15
16
15
18
10
2
1
4
5
8
17
22
16
9
4
-6
-9
-3
1
15
26
28
25
12
-2
-8
-13
-11
0
22
34
34
20
13
3
-3
-1
3
5
11
24
21
21
11
7
0
-5
-3
2
12
21
21
18
10
4
-7
-12
0
5
12
16
16
11
15
6
-2
-5
0
4
16
20
24
24
14
-1
-7
-10
-6
-9
6
15
22
21
14
1
-1
-11
-3
10
17
26
23
18
14
-7
-12
-6
-2
0
10
15
19
16
12
-3
-10
-10
-18
-3
19
21
24
10
9
-6
-15
-9
4
10
8
11
18
10
10
5
-5
-15
-7
-1
7
14
19
16
3
0
-4
-17
-9
7
26
30
28
24
17
7
-2
-1
2
11
19
23
24
20
16
8
2
1
9
10
18
30
37
28
16
3
-1
-3
-3
8
11
10
4
1
6
3
-5
4
3
7
12
10
12
9
-2
-11
-13
-8
-3
2
13
17
12
3
-4
-10
-17
-19
-7
6
7
11
10
5
-8
-15
-17
-16
-9
2
13
18
13
5
-8
-12
-13
-18
-14
-2
5
7
4
10
15
15
22
34
57
85
118
146
158
157
153
138
126
107
93
86
62
41
21
-4
-19
-21
-15
-15
-4
17
24
27
20
15
3
-2
0
-5
4
18
15
22
19
11
2
-4
-4
2
3
14
18
17
19
15
-5
-13
-9
-5
6
11
22
23
17
9
4
7
7
9
8
20
24
23
13
14
4
5
4
9
21
38
38
35
25
22
18
8
6
12
17
27
35
37
33
24
17
16
11
25
37
46
43
39
27
19
14
12
19
25
36
57
73
70
61
53
41
33
35
43
50
62
71
71
63
51
44
42
45
55
56
62
68
72
62
52
39
36
28
25
37
47
60
58
45
39
32
24
24
22
31
38
40
34
19
11
2
-5
6
7
7
16
28
21
15
3
1
4
7
1
10
12
13
11
1
-6
-8
-8
-2
-2
11
16
18
15
9
2
-4
-7
-3
2
11
19
20
11
5
-5
-11
-9
0
7
14
17
19
11
7
-1
-7
-11
-4
8
19
27
25
20
9
-4
-8
-2
2
16
21
25
21
9
2
-8
-6
-11
-4
7
20
25
25
19
9
0
-1
-3
8
9
14
12
20
9
3
-9
-7
-4
-2
11
14
15
11
5
-2
-6
-5
1
-1
5
17
27
29
15
4
-14
-19
-12
-1
2
8
17
21
15
5
-2
-10
-6
1
8
14
11
8
5
-9
-12
-12
-8
-4
8
13
19
13
8
-2
-9
-8
-18
-14
7
11
25
19
10
5
-4
-10
-4
2
9
15
16
12
2
-9
-9
-12
-8
0
12
19
17
11
3
-9
-13
-14
-8
-5
8
15
19
22
13
-1
-7
-8
-2
-1
-2
14
30
33
22
6
3
-3
-3
2
19
24
23
26
19
10
4
7
11
18
26
28
22
17
13
4
-4
-9
-4
11
13
16
17
15
4
-5
-10
-16
-10
1
4
3
4
3
4
-1
-3
-5
-6
8
18
16
13
8
-1
-10
-9
-16
-10
-5
3
11
9
5
4
-5
-11
-17
-10
0
7
10
2
4
-10
-18
-22
-24
-22
-14
-1
9
21
27
21
28
39
50
67
97
125
157
168
164
148
129
113
100
88
76
52
27
8
-8
-22
-22
-20
-11
-4
10
20
16
20
20
12
-1
0
0
3
15
17
18
18
10
1
-1
-4
-5
4
19
25
25
15
9
-2
-5
1
10
14
24
22
24
20
14
6
-4
-6
-2
2
10
20
27
28
20
11
10
12
15
20
32
37
37
33
27
10
5
-1
6
13
25
27
40
39
30
21
18
17
22
32
40
40
34
34
33
22
18
26
41
48
52
52
59
48
47
45
44
42
52
61
70
71
70
63
58
46
43
40
43
58
64
71
71
64
53
44
33
35
42
56
59
59
63
55
38
24
18
20
27
33
38
38
36
29
21
13
7
5
7
17
25
26
24
19
8
0
-4
-4
5
17
22
27
22
17
2
0
0
-1
5
10
13
15
12
3
-2
-2
-4
-2
3
12
18
15
17
12
1
-3
-4
5
8
18
22
24
24
14
-4
-6
-2
2
8
16
16
18
17
7
0
-2
-2
6
21
31
30
24
22
12
-3
-5
-2
4
8
18
21
22
16
10
-3
-9
-8
-5
4
23
24
21
19
16
12
6
3
7
13
18
22
24
20
10
1
-6
-4
1
5
11
18
17
18
12
0
-9
-7
0
8
13
15
17
17
14
4
0
-2
3
9
13
15
13
13
9
4
-3
-6
0
11
22
22
18
13
2
-7
-11
-11
-5
13
22
22
17
13
4
1
-2
2
7
19
23
23
25
17
5
1
-4
-6
4
17
17
16
15
13
2
-1
-1
-1
5
13
16
22
24
25
16
6
5
5
15
21
28
25
20
19
13
5
9
14
17
24
32
40
36
30
17
8
5
10
15
22
29
29
21
13
1
4
0
7
9
21
22
25
16
-1
-5
-7
-10
-4
8
19
22
18
15
11
1
-4
-2
9
17
21
23
22
18
5
-6
-10
-5
6
13
17
18
19
12
5
0
-6
-4
4
7
12
10
10
3
-1
3
12
21
37
56
74
96
112
127
135
132
133
126
128
131
122
109
86
54
22
-6
-16
-13
-9
2
13
17
16
19
24
29
18
11
11
18
26
24
21
18
12
10
6
0
4
14
19
22
21
12
0
3
6
6
11
18
28
30
24
17
14
8
6
4
7
18
28
30
29
27
19
7
3
10
20
31
37
42
42
29
17
14
17
18
21
28
35
36
30
23
14
15
14
18
25
39
52
52
47
43
27
24
27
37
48
58
61
62
58
47
43
38
40
46
58
71
73
72
68
61
53
50
49
58
62
71
68
68
64
55
49
50
48
45
52
61
69
68
57
44
37
30
25
29
35
46
50
42
34
32
19
11
12
18
21
28
25
24
14
-1
-7
-4
7
16
27
37
30
27
26
15
1
-5
-3
4
14
20
18
21
20
10
1
-1
-1
4
10
16
24
22
17
11
4
-1
-4
0
14
27
28
26
14
3
1
-1
6
14
27
27
23
24
17
11
5
-1
-1
11
22
25
23
24
20
8
1
-1
5
12
23
34
35
29
19
11
2
3
2
13
27
26
25
24
21
5
4
4
7
11
15
18
23
27
24
10
5
4
6
13
26
26
26
15
10
5
1
1
6
13
25
30
29
28
19
9
0
-2
5
12
19
23
25
22
11
-2
-1
-2
6
16
24
25
22
14
10
-5
-12
-4
6
11
28
30
28
24
17
8
4
5
8
10
17
18
17
11
7
8
4
5
11
19
27
30
24
20
15
4
-2
-2
7
28
35
34
26
16
11
10
7
8
13
30
39
42
33
30
25
15
7
5
7
18
26
25
22
22
14
11
7
2
8
20
29
26
15
14
3
-2
-9
-1
11
23
21
21
16
14
2
-3
-2
-3
2
9
15
19
19
11
-2
-5
0
1
4
14
17
16
14
11
4
-3
-5
-3
-4
12
19
15
13
1
-10
-20
-17
-9
7
24
39
49
55
60
61
74
89
118
133
152
169
165
144
125
97
72
48
24
16
11
17
20
11
7
-2
0
1
13
23
33
36
34
23
10
0
-1
-7
6
23
30
29
26
14
12
-1
-5
3
10
18
27
28
22
20
25
20
9
6
12
19
26
32
30
25
15
14
17
17
19
19
28
25
29
23
12
11
12
17
26
36
38
38
32
34
19
6
2
16
21
32
38
45
44
39
36
25
27
36
44
54
54
54
50
44
35
32
32
37
47
57
65
70
62
57
55
45
39
44
55
67
66
64
67
66
57
52
51
55
53
64
71
69
65
58
49
42
39
41
37
43
47
48
44
35
25
22
22
21
21
38
40
36
33
26
16
3
-3
10
14
27
24
22
16
17
5
0
1
4
12
21
26
21
19
11
2
-3
-4
0
3
13
22
21
15
15
11
4
6
12
14
23
19
20
18
7
0
5
7
11
17
27
29
22
12
5
5
0
6
13
18
26
27
28
20
12
1
-3
-2
5
16
21
23
25
25
16
9
5
5
8
11
23
26
25
18
6
-3
-4
3
19
26
28
27
24
19
8
4
0
0
6
16
20
20
27
15
-1
-3
0
-2
5
18
19
22
21
16
10
2
-6
-6
-3
11
20
23
17
15
5
-3
-5
-1
1
15
23
25
17
9
-3
-6
-4
-2
-1
4
17
19
14
9
4
1
1
-3
4
14
14
13
10
1
-2
-4
-6
-3
6
12
18
23
18
8
-1
-7
-3
-2
1
13
19
18
10
3
-1
-7
-3
6
16
18
20
19
13
2
-5
-5
5
4
12
23
22
21
15
8
3
1
4
7
16
22
22
22
16
16
6
-1
8
15
18
24
29
31
33
17
3
-3
-4
3
15
25
33
27
20
12
1
-6
-1
2
4
14
9
8
2
0
-1
-6
-5
5
15
18
18
13
9
0
-2
-8
-7
-2
0
5
11
11
1
-6
-6
-6
-9
-4
10
13
20
19
8
-1
-8
-8
-6
-3
3
4
3
-2
-7
-9
-2
8
18
37
63
81
94
110
128
126
131
130
133
129
122
106
88
58
23
-10
-16
-15
-11
0
14
16
15
18
12
1
-3
-4
1
12
20
20
17
12
3
-3
-6
-9
-5
-4
9
12
18
20
13
1
8
6
8
14
21
25
20
16
10
0
-2
-6
2
14
19
15
20
21
16
5
3
5
11
15
23
25
25
20
11
4
-2
0
9
18
25
32
30
30
26
18
18
17
20
30
33
36
39
39
31
25
22
25
31
39
47
48
50
46
39
32
27
33
41
53
55
69
70
58
52
43
44
45
46
53
64
62
57
50
41
43
46
44
49
56
60
59
52
45
33
25
21
19
19
27
32
35
28
20
13
5
4
11
16
27
24
21
16
15
5
-3
-5
-5
0
9
11
12
13
1
-3
-2
-7
-5
-1
12
15
18
17
8
-4
-10
-12
-11
-6
2
9
13
10
9
-1
-9
-13
-6
-3
7
17
20
17
11
-3
-13
-11
-5
-2
3
6
10
1
4
-4
-6
-7
-3
3
9
12
11
12
10
-1
-9
-8
-3
9
12
13
12
8
-3
-12
-7
-6
-1
1
7
11
16
13
4
-9
-12
-15
-5
10
19
15
11
5
-1
-15
-19
-16
-5
2
7
13
18
11
5
-3
-11
-15
-11
-7
3
10
17
11
3
-5
-14
-14
-5
1
2
2
9
6
-5
-16
-11
2
0
5
11
12
10
3
-8
-15
-17
-18
-15
-8
3
15
16
10
-1
-9
-12
-14
-10
-2
9
16
9
-1
-14
-16
-14
-9
-10
3
6
13
13
4
-8
-18
-18
-15
-12
-5
0
4
3
-3
-10
-10
-12
-13
-4
2
9
14
10
5
-5
-11
-13
-9
-8
5
11
12
5
1
-7
-4
3
7
6
8
13
16
12
9
-1
-7
-8
-6
0
10
17
21
15
10
2
4
6
6
15
16
19
19
4
-8
-23
-24
-21
-12
-7
3
8
15
9
0
-11
-10
-11
-8
-4
-1
8
6
0
-10
-20
-23
-22
-8
1
5
9
8
6
-2
-13
-23
-23
-13
-6
6
13
9
3
-2
-18
-27
-29
-25
-10
-3
-4
-10
-14
-14
-15
-15
2
16
37
56
70
83
97
118
130
125
126
121
121
113
99
78
50
14
-11
-27
-22
-9
-5
-2
3
7
13
4
-7
-9
-13
-8
3
6
9
9
4
-10
-12
-16
-13
-5
3
17
16
8
1
-9
-15
-17
-15
-2
14
23
22
10
4
-2
-11
-16
-7
1
10
14
15
16
9
0
-10
-11
1
8
20
20
18
12
8
1
0
1
2
4
22
30
25
18
13
9
4
1
5
12
23
30
33
39
34
22
17
20
21
24
28
33
37
39
37
33
30
35
38
49
54
57
54
51
48
39
36
36
44
57
58
61
57
48
40
33
31
32
35
50
54
58
56
52
38
34
24
20
21
28
28
27
30
21
12
5
7
3
7
23
27
18
11
11
-1
-10
-12
-12
-2
7
7
11
13
4
-8
-13
-15
-15
-6
12
16
17
8
2
-12
-22
-25
-13
-7
9
15
15
17
7
-5
-16
-23
-18
-7
3
12
15
4
-2
-10
-16
-11
-9
-6
3
14
18
11
7
-4
-10
-11
-8
0
9
8
5
7
0
-8
-9
-7
-8
-1
8
7
2
8
9
-7
-15
-8
-2
3
5
13
10
2
-1
-6
-9
-6
-3
4
15
18
15
6
-5
-14
-11
-12
-9
-2
7
15
13
6
-10
-22
-21
-19
-12
-7
5
11
11
4
1
-7
-11
-12
-9
3
8
4
-1
2
-2
-11
-17
-15
-7
-3
7
14
8
1
-1
-14
-22
-20
-10
-5
3
18
13
3
-8
-14
-15
-17
-14
-12
3
15
6
3
-4
-13
-10
-10
-4
3
6
8
10
2
-10
-21
-26
-23
-16
-7
-4
5
6
-1
-3
-6
-6
-5
-4
1
5
6
4
4
-5
-18
-18
-8
-8
2
7
10
9
-3
-12
-14
-12
-10
-3
6
6
7
2
-4
-15
-25
-18
-9
0
9
10
4
8
13
2
-10
-8
5
19
29
27
20
17
9
-5
-7
-4
0
7
15
17
17
10
0
-10
-14
-15
-16
-9
2
3
-1
-1
-5
-10
-6
-12
-17
-14
-3
5
4
4
-3
-18
-24
-21
-13
6
10
9
6
2
-8
-16
-20
-20
-13
-9
-1
2
1
-5
-18
-21
-27
-21
-10
-7
-4
2
-2
-7
-21
-26
-32
-29
-19
-1
15
28
32
41
46
51
68
87
114
137
145
142
130
112
90
69
55
33
15
5
-6
-3
-3
-7
-16
-22
-23
-19
-3
11
17
17
18
12
-1
-10
-10
-11
-10
-3
11
12
7
4
-10
-18
-18
-11
8
16
13
15
7
1
-11
-13
-8
-5
-1
6
9
14
12
8
8
-1
-2
2
6
11
16
10
4
0
-3
-6
-8
-8
6
21
31
28
25
20
7
2
-3
5
16
22
29
30
20
14
11
7
6
11
21
31
36
44
42
35
22
19
22
29
36
42
42
45
47
43
35
29
35
44
55
58
56
55
50
41
30
33
38
42
47
54
54
53
42
37
35
26
23
28
43
49
49
38
24
15
8
7
9
10
21
24
29
16
8
6
-1
-5
0
1
9
13
13
3
0
-3
-13
-16
-7
-6
3
9
7
7
6
-9
-17
-15
-7
-2
8
12
12
5
-6
-18
-21
-22
-19
-2
8
10
13
6
1
-12
-19
-16
-12
-9
-1
10
9
10
10
3
-7
-12
-11
-8
1
3
-3
1
4
-2
-8
-10
-11
-6
2
9
14
11
4
1
-6
-14
-15
-9
4
13
12
4
-5
-9
-12
-15
-11
-8
5
17
18
14
3
-10
-18
-14
-11
-13
-6
-9
-3
4
-4
-14
-16
-12
-8
0
16
14
8
5
-2
-11
-14
-20
-15
-12
-1
2
0
-2
-6
-15
-20
-12
-8
-3
3
7
6
-5
-14
-22
-28
-22
-15
-10
-2
7
3
-1
-11
-18
-22
-26
-20
-13
-9
0
0
-7
-10
-18
-18
-10
-9
0
6
10
9
-1
-14
-14
-12
-14
-12
-3
6
10
6
1
-10
-15
-17
-15
-12
-4
3
0
-4
-7
-15
-24
-26
-19
-11
-2
1
10
5
-2
-10
-16
-17
-14
-8
1
3
5
3
-6
-22
-28
-17
-13
2
9
12
15
13
5
-4
-8
-9
-6
-3
4
3
9
6
3
-7
-13
-12
3
11
17
17
27
20
6
-11
-13
-7
-8
-5
13
17
13
3
-6
-19
-20
-11
-8
-2
8
13
15
0
-5
-11
-22
-22
-22
-12
4
8
5
-3
-11
-26
-28
-18
-19
-13
-1
0
-4
-7
-10
-18
-25
-22
-16
-7
0
3
-1
-11
-19
-27
-28
-29
-21
-10
-14
-15
-3
1
1
3
6
13
25
47
64
82
109
130
127
122
116
113
110
95
82
67
38
21
-11
-30
-34
-29
-24
-6
1
0
7
-1
-8
-8
-11
-9
-8
-5
0
12
14
7
-9
-13
-14
-17
-14
-9
-3
8
15
3
-7
-18
-18
-14
-6
3
8
7
5
1
-13
-9
-5
1
3
10
8
5
6
1
-6
-11
-9
0
9
4
7
10
19
14
1
-5
-8
5
5
13
17
15
9
2
2
4
4
11
20
27
25
25
33
30
19
13
9
15
26
40
40
43
38
37
27
17
23
31
42
46
49
53
53
39
28
26
36
41
44
56
61
60
51
48
38
36
38
45
42
48
53
52
36
26
27
22
20
24
29
28
33
33
24
14
0
-6
-6
1
13
19
20
14
13
0
-4
-5
-10
-8
6
16
21
17
13
0
-13
-24
-18
-12
-3
4
5
2
8
-2
0
-2
-13
-4
2
11
12
10
3
-5
-10
-11
-5
1
13
16
19
18
9
-4
-15
-16
-5
1
10
17
18
13
6
-5
-6
-12
-8
-4
8
22
19
5
-5
-7
-13
-11
-3
6
15
22
22
19
9
-2
-7
-7
-9
-1
19
26
20
14
10
4
-1
-4
-8
0
16
25
25
13
-3
-23
-20
-10
-2
0
4
11
13
3
-6
-25
-27
-16
-6
13
27
23
21
16
12
-4
-1
3
7
16
17
15
14
7
-3
-6
2
9
14
12
28
36
31
20
8
-4
-13
-8
-9
-4
7
7
9
6
4
-5
-9
-2
4
9
15
16
8
5
1
-5
-7
-8
3
15
20
24
21
21
11
2
-4
-8
1
6
12
16
11
5
-5
-8
-9
-2
0
5
10
13
13
4
-2
1
-5
-8
6
23
27
21
23
25
14
11
11
12
11
11
9
16
13
9
7
3
10
15
19
29
36
34
28
22
5
5
6
15
20
24
21
18
12
9
-6
-15
-7
-2
-1
9
17
19
18
9
-8
-5
-9
-4
1
15
21
24
23
15
1
-8
-12
-5
7
16
14
12
4
-4
-8
-4
-3
2
1
16
17
18
15
8
-3
-8
-12
-6
6
12
11
16
11
6
7
18
26
45
65
85
101
115
126
141
144
145
149
147
138
124
105
83
49
25
5
-3
-6
0
4
14
22
25
19
11
1
-2
0
5
15
26
32
35
28
18
4
-4
-1
4
15
20
23
31
30
17
12
16
17
19
23
26
35
33
21
12
6
2
1
18
26
33
46
36
31
17
9
8
18
18
24
28
31
32
29
19
19
19
16
27
39
44
44
40
35
17
12
20
23
30
45
52
63
58
45
32
33
38
46
49
59
59
63
66
71
54
50
41
44
57
76
79
81
72
61
45
42
45
56
66
91
92
90
78
66
56
59
61
59
57
71
70
67
60
57
49
37
34
42
46
50
51
59
55
45
32
26
22
26
34
40
34
34
28
13
4
9
15
21
22
35
34
34
24
6
7
8
9
21
30
31
26
27
22
15
9
6
7
10
21
24
23
27
22
13
18
12
10
16
21
33
34
28
12
5
5
5
4
8
26
39
38
37
34
24
13
10
13
19
19
26
27
23
24
10
6
0
5
18
26
24
33
36
27
17
11
10
9
8
13
27
28
14
16
10
16
14
32
23
27
31
31
25
25
9
16
11
11
18
27
33
32
25
23
11
-2
-5
1
13
13
16
22
33
34
24
14
7
11
22
32
38
33
25
10
6
-5
5
8
24
28
33
34
29
23
9
4
8
11
21
30
34
29
24
11
1
-12
-9
13
23
38
40
30
23
20
11
10
14
18
19
29
33
28
22
10
4
3
7
19
28
40
40
37
22
11
7
14
15
17
34
38
42
38
39
31
22
26
26
26
39
43
50
39
29
23
19
18
8
23
32
38
45
32
24
18
19
9
9
8
14
23
33
40
36
31
19
13
8
7
19
25
17
15
24
12
4
11
15
16
21
25
35
25
23
14
7
3
5
13
25
26
27
29
15
2
2
6
12
14
29
22
15
3
-5
-11
-13
-7
17
38
56
84
97
114
119
132
