-1
4
5
8
-3
1
-1
-1
-3
-1
9
9
3
2
5
-1
2
3
1
-1
4
6
4
7
11
7
0
-5
-1
-6
2
10
8
7
8
0
-3
0
5
6
1
3
4
1
0
5
1
10
3
7
8
11
2
0
-2
3
2
2
-7
4
3
-2
-5
8
10
5
-4
4
1
-1
-1
-3
1
6
9
-3
-12
-11
-5
5
8
6
7
2
6
2
4
-1
-1
1
2
-15
-3
-1
-4
-1
7
-2
-12
-5
1
-9
0
4
-1
13
3
5
-6
-5
-6
-6
-1
0
12
3
3
-4
-4
-4
0
2
1
8
4
-5
4
2
-2
1
-5
-11
-4
9
4
2
6
0
-2
-2
0
-2
-3
-1
1
-3
-3
0
5
2
-2
-7
0
2
2
5
3
2
3
-8
2
2
1
1
-4
-11
2
5
2
1
-4
-4
-4
-2
6
3
7
8
0
2
0
2
16
8
8
-2
11
14
9
11
15
11
19
32
28
23
22
14
8
13
13
6
6
5
5
2
7
0
-3
11
10
6
11
3
1
-2
6
-3
-8
-4
-9
-7
2
-8
6
3
10
1
-4
-5
4
2
9
3
-5
-6
-4
-22
-23
-35
-38
-42
-29
-21
-13
-4
18
36
54
71
86
108
142
165
172
179
179
167
135
106
77
59
27
-7
-20
-17
-13
-18
-11
-8
-16
1
11
13
4
2
2
3
12
9
4
6
9
9
9
4
5
0
6
7
5
16
22
12
2
6
9
3
10
16
5
9
14
10
4
16
2
13
22
11
17
16
11
15
18
17
23
21
21
24
14
12
22
23
25
23
22
23
26
22
33
34
39
32
35
35
32
38
46
36
35
47
50
51
48
50
52
48
54
62
59
70
72
66
71
73
69
75
78
72
73
86
88
86
84
80
89
84
90
98
80
83
82
88
86
88
85
82
70
57
58
59
57
45
51
51
35
40
40
37
35
28
25
21
18
6
12
22
26
14
20
17
24
15
3
3
8
18
15
12
11
18
9
5
8
15
9
13
7
6
13
12
6
11
7
-1
1
8
0
2
17
21
13
6
-7
15
13
13
13
16
12
17
18
12
14
11
13
20
21
17
15
14
5
10
16
14
5
4
9
9
13
18
15
17
17
13
17
8
7
16
22
16
15
16
19
14
16
20
18
17
10
17
14
10
6
14
24
11
13
17
18
20
14
11
14
9
7
21
15
8
11
19
11
10
11
16
18
13
14
16
14
15
15
9
4
17
17
9
10
4
12
20
26
19
22
14
16
19
16
7
19
14
6
6
15
16
11
23
16
16
15
16
9
7
4
9
14
17
17
20
22
17
25
20
11
2
9
19
15
14
21
20
21
20
18
10
13
11
10
12
12
22
11
8
18
15
17
18
13
8
15
14
10
18
20
6
17
19
15
16
17
19
22
15
18
11
16
18
8
17
18
16
12
21
26
17
15
20
12
18
18
17
14
14
17
22
24
22
17
24
29
22
26
35
46
42
36
26
24
28
33
27
19
22
28
22
25
15
14
17
13
9
23
20
18
13
18
22
14
20
16
8
23
19
13
6
15
17
10
19
23
20
18
17
3
-1
15
14
14
12
0
-14
-17
-16
-19
-7
1
6
29
55
67
79
100
119
145
161
164
169
169
175
153
119
86
62
36
7
-6
-20
-24
-4
4
-9
5
15
19
27
30
20
10
15
27
30
23
20
23
19
16
17
14
26
27
18
19
20
20
21
19
12
21
27
17
18
28
19
20
26
20
23
26
23
35
31
20
13
23
24
29
30
29
36
31
23
34
34
29
30
30
33
40
43
41
37
33
39
40
38
41
42
48
48
50
50
45
51
50
62
57
55
58
66
71
71
78
74
72
76
73
73
85
87
87
99
90
81
81
86
95
94
90
99
100
93
93
83
93
88
79
90
101
84
82
79
72
58
48
50
47
52
54
55
48
45
43
37
33
35
28
22
34
29
23
18
17
23
12
15
19
21
30
25
16
3
20
16
17
24
13
9
18
23
24
14
15
13
15
17
6
7
20
16
10
12
16
16
11
12
6
14
26
17
15
18
18
18
22
12
13
19
17
4
-7
2
19
22
27
19
25
21
24
17
16
21
24
17
21
17
15
10
15
13
17
16
27
42
27
13
17
15
19
21
20
17
12
15
21
10
13
12
4
-6
4
18
23
26
26
19
16
22
23
22
17
20
19
14
13
12
7
12
13
4
7
13
11
16
12
18
21
20
22
19
14
10
12
11
13
16
23
21
13
7
9
5
3
2
4
7
10
17
17
16
20
17
14
17
15
9
11
14
16
14
8
8
1
9
11
0
3
2
-1
6
16
19
12
13
17
16
17
14
8
11
12
12
12
6
3
2
8
12
7
3
19
21
13
13
11
11
8
14
5
14
14
9
3
5
6
1
14
11
6
4
16
16
12
13
15
10
13
12
10
-2
-6
-4
6
19
19
14
14
23
23
25
14
18
21
22
29
23
32
25
17
19
33
22
24
20
18
14
19
24
26
15
10
11
5
10
12
5
7
8
2
1
0
8
16
14
11
16
12
8
5
8
9
5
7
3
-4
-9
-20
9
15
12
7
-8
-15
-20
-27
-28
-26
-17
-11
-3
16
37
57
75
87
98
130
153
169
178
187
178
163
125
91
63
44
14
-3
-7
-5
-6
-3
-6
-8
-14
3
15
21
15
12
10
12
13
14
11
16
18
11
13
13
5
10
12
5
8
4
5
7
8
9
7
16
19
16
15
21
20
19
20
22
18
14
20
21
18
16
8
7
-2
10
25
22
20
21
22
29
31
30
34
35
26
33
27
20
15
26
22
32
38
33
30
42
43
42
50
54
48
47
44
49
55
53
56
52
49
59
77
76
79
77
83
77
71
73
84
81
87
84
84
79
77
81
80
86
98
93
76
78
79
76
70
71
66
63
60
63
52
42
45
28
42
46
45
28
23
26
26
18
15
12
12
10
13
12
7
18
16
16
15
6
3
7
11
5
2
2
7
10
5
2
1
7
11
2
-6
3
5
15
13
3
2
3
4
10
15
10
4
7
6
3
3
-5
-3
-4
11
12
2
5
-4
-7
12
18
11
6
12
6
2
9
8
2
8
15
5
7
20
9
7
3
-1
2
7
12
13
12
13
-2
3
14
8
8
9
2
-7
4
12
1
15
23
15
5
6
-1
10
15
16
6
7
13
7
-4
3
11
4
-1
16
1
5
8
8
8
5
1
1
6
11
9
8
1
-5
-3
-6
-15
-8
8
24
15
5
15
8
7
8
7
2
2
6
6
4
1
-3
0
5
5
5
6
8
4
2
-3
-1
3
5
13
-9
-4
-2
4
5
6
3
4
7
9
2
9
9
5
0
9
-1
0
10
4
3
10
2
-3
-3
-1
-12
-8
-1
4
8
5
9
6
2
-4
-10
2
4
1
10
6
9
-1
-3
-2
-1
3
0
-2
6
6
12
5
9
5
3
12
0
-6
-6
-1
4
9
1
1
1
2
2
2
13
13
8
14
11
12
9
18
23
23
23
27
25
28
20
12
8
13
12
10
2
4
5
14
4
5
5
6
7
1
-6
0
-3
8
8
9
3
1
3
-5
-2
-4
-3
2
-3
-8
-1
0
4
1
-2
6
3
-6
-19
-24
-39
-35
-38
-38
-28
-8
-4
12
40
63
71
94
116
147
164
174
181
183
168
138
107
72
44
16
-3
-11
-21
-14
-13
-6
3
6
-1
5
6
10
9
4
3
-7
7
8
0
-3
8
6
8
4
8
4
5
7
2
7
4
2
2
16
13
13
10
6
3
2
17
18
10
8
11
8
7
16
13
10
8
13
16
26
16
18
12
18
18
20
27
26
19
25
21
21
22
22
16
19
22
32
38
39
36
27
39
44
42
41
49
52
51
48
51
48
50
53
54
61
61
64
68
75
74
75
76
71
73
82
92
87
83
79
82
82
82
73
76
79
79
75
82
61
58
60
67
63
57
49
54
45
44
36
30
25
25
25
24
37
22
18
6
12
14
8
15
6
4
9
4
14
16
14
1
7
7
8
7
4
4
6
5
-1
-7
0
-2
-2
7
3
3
-1
7
6
0
6
14
-1
-5
5
4
-5
-3
2
-1
5
9
3
7
11
12
7
4
0
3
3
1
0
1
3
9
-7
2
9
0
-1
1
6
7
8
5
11
8
4
6
5
11
8
3
12
11
14
5
-5
-1
6
3
-1
4
8
9
14
8
4
7
7
7
9
9
16
-3
-3
0
-5
-5
-3
6
8
6
10
12
10
9
8
-3
-3
-5
-6
0
7
5
4
9
9
-10
12
16
9
8
4
5
-2
-9
1
-1
-1
6
3
4
1
4
6
3
2
0
6
2
-2
2
2
0
3
-2
-5
-1
1
-6
-2
12
11
5
-2
-7
-6
4
7
6
-2
-8
-1
10
7
4
5
7
8
-2
0
7
8
7
-6
-1
0
-5
-11
-2
9
9
5
-7
-2
1
9
1
-1
-1
0
-5
6
-2
-12
0
0
4
3
-4
-3
5
11
6
-2
-5
-2
7
6
-3
1
-3
3
7
0
1
5
16
11
6
4
12
16
9
13
23
23
22
21
14
17
25
26
11
13
11
7
9
9
1
1
1
6
11
10
6
-1
-15
-9
2
-2
4
2
-14
0
8
3
1
-4
1
1
-2
-1
-2
-16
-15
-5
2
2
-1
3
-5
-12
-26
-30
-41
-45
-32
-22
-18
-2
13
23
49
69
89
115
148
170
167
167
171
162
140
119
82
48
22
-3
-19
-20
-14
-8
-4
-5
-9
-6
0
6
3
12
13
10
5
-2
-6
-10
1
16
9
1
3
8
7
8
-1
1
6
8
4
4
15
17
6
4
1
10
14
10
10
11
11
9
11
14
11
11
17
14
18
20
23
20
13
19
14
13
9
9
12
30
28
29
29
29
23
33
33
25
32
38
40
37
30
33
33
42
36
41
46
52
52
47
46
50
54
64
62
64
69
80
71
79
77
77
82
81
85
80
87
90
83
79
86
81
78
88
92
76
75
78
71
78
75
67
59
59
54
41
48
43
35
42
42
36
29
23
23
26
28
18
6
5
27
23
8
3
4
9
11
13
14
7
6
13
4
4
6
10
8
4
-8
-1
17
12
10
4
4
4
10
4
11
9
14
17
11
7
18
7
7
3
4
6
17
5
2
10
2
-5
-2
2
5
9
13
10
10
16
7
6
13
14
5
8
12
11
7
4
15
9
12
17
17
4
0
9
11
4
12
17
22
14
9
6
12
18
13
11
10
14
15
8
7
6
1
9
8
16
18
10
11
14
13
22
7
5
9
11
6
6
14
2
15
26
14
8
8
12
6
8
8
8
4
4
5
2
10
5
13
11
17
13
8
4
12
19
16
14
3
-4
6
10
2
17
15
5
6
8
19
20
8
-1
8
11
7
10
11
10
10
11
11
4
9
9
16
12
10
7
12
9
8
6
17
8
10
14
6
7
11
10
13
18
15
10
22
6
-1
5
2
7
5
1
10
10
5
12
12
22
13
18
13
17
20
11
1
14
9
15
14
12
13
16
12
9
9
12
6
16
14
13
11
18
16
1
12
16
12
19
15
21
15
21
29
25
23
31
22
21
33
37
39
34
34
21
26
20
18
20
18
23
26
27
11
12
15
16
8
9
12
6
10
20
17
18
9
7
5
9
15
3
20
27
11
10
8
8
7
24
21
15
12
13
0
3
-15
-21
-24
-23
-16
-1
17
34
47
66
87
89
98
125
154
163
167
175
169
155
125
95
63
37
5
-13
2
1
-5
-4
13
20
16
7
7
10
27
23
13
18
25
26
22
15
9
15
16
21
22
18
23
14
15
16
24
20
18
22
22
20
28
25
19
23
20
29
38
31
28
29
29
28
30
17
30
29
44
33
26
34
33
28
28
35
40
40
38
33
38
43
38
33
47
52
45
40
45
44
55
53
50
57
57
52
56
55
70
73
64
70
70
67
81
85
81
66
79
84
88
93
84
90
81
90
108
107
104
100
97
97
100
103
102
93
82
89
98
98
80
81
78
65
60
78
72
65
60
59
54
52
38
42
33
41
30
37
41
32
27
34
39
14
29
35
27
27
32
30
24
22
19
21
32
30
15
16
27
20
29
22
19
19
28
27
12
15
11
22
25
28
29
17
8
16
13
17
22
20
14
17
20
20
24
23
26
27
25
25
23
21
10
25
31
18
19
24
22
34
26
21
19
17
18
20
30
24
28
30
20
21
28
31
25
27
24
29
30
23
19
34
30
31
23
19
21
23
27
23
26
21
10
16
18
22
21
34
24
23
27
21
17
22
35
23
24
33
26
20
21
24
25
22
19
13
29
27
26
28
25
22
32
17
18
2
17
20
14
18
24
23
12
24
25
22
26
27
23
19
9
11
13
23
32
23
20
21
20
32
27
32
30
25
28
27
19
23
28
19
29
27
20
20
28
27
24
17
5
17
26
32
34
32
28
24
23
30
22
23
26
25
35
21
21
23
26
25
20
25
27
29
12
18
27
22
24
32
19
27
34
27
23
30
26
26
40
37
31
24
26
22
30
32
23
19
16
14
15
42
42
28
24
35
33
30
35
36
38
37
37
34
31
34
47
51
40
43
53
43
31
32
31
27
25
31
37
28
26
33
31
30
38
37
30
38
36
32
38
33
33
31
31
35
29
27
34
30
18
22
26
47
46
30
30
37
45
27
24
17
2
10
1
-1
6
24
26
24
46
68
83
91
113
128
136
156
180
179
174
171
155
129
96
89
54
25
20
21
16
7
34
27
28
33
30
38
37
32
36
37
34
36
45
40
37
45
36
39
34
38
36
37
44
41
42
44
41
42
49
43
31
39
40
49
48
48
51
57
49
48
43
45
54
50
56
62
58
55
50
43
39
40
49
49
59
61
53
54
50
64
65
65
69
55
65
71
63
62
66
71
68
71
74
75
75
80
86
81
86
88
85
88
94
93
93
96
108
101
98
103
103
107
110
105
102
116
110
106
111
123
112
112
121
116
102
106
100
106
101
102
100
101
96
88
82
73
74
85
78
68
58
57
57
62
59
62
59
51
59
54
48
57
44
37
35
47
33
43
57
42
48
55
44
45
42
38
45
43
40
39
33
36
40
43
51
57
57
40
33
38
43
39
36
38
46
52
52
51
44
44
50
49
41
35
49
43
50
38
36
37
37
41
37
35
49
46
46
49
36
36
48
49
56
50
51
43
47
38
48
40
31
39
44
46
48
48
40
42
42
39
47
44
48
44
46
43
42
39
41
41
44
48
51
52
45
56
37
34
44
36
40
50
49
43
49
46
39
37
27
38
55
41
39
43
48
40
43
40
41
35
25
33
42
43
42
40
41
50
42
35
41
43
39
37
39
40
43
36
42
38
38
41
39
43
50
35
36
41
34
36
42
38
38
33
39
51
33
37
29
34
39
38
39
49
48
42
32
37
33
28
38
37
34
48
45
42
43
38
44
41
40
44
39
38
40
36
38
36
40
33
39
44
39
38
44
40
36
42
35
36
30
41
41
44
37
35
39
46
36
36
36
30
31
33
41
30
36
35
39
47
43
41
41
45
43
45
41
31
33
41
42
40
47
57
58
62
56
60
50
45
46
53
49
53
45
39
42
45
39
35
27
30
29
37
37
36
43
36
35
35
33
40
36
39
35
30
32
33
38
33
24
21
26
34
46
44
33
33
20
23
21
7
5
6
0
8
12
20
34
56
77
86
100
116
133
163
180
187
195
198
185
154
129
103
69
34
12
14
12
14
18
20
30
37
35
39
38
36
34
38
42
35
40
37
34
42
38
36
24
38
37
35
41
45
36
38
48
32
34
35
37
36
38
42
35
27
30
32
37
45
52
42
45
47
38
45
44
37
37
43
47
44
48
55
50
51
53
53
58
51
54
54
55
55
56
55
49
52
60
62
60
63
65
71
73
72
69
74
77
78
83
75
82
81
80
79
75
90
100
100
102
103
107
109
111
99
97
95
99
110
109
107
100
111
105
101
118
105
101
98
97
93
87
82
85
77
65
65
63
60
60
58
50
44
46
44
44
39
19
24
30
44
56
43
38
39
41
39
29
34
27
26
30
30
35
30
25
23
23
20
23
26
27
29
36
28
27
28
32
34
34
28
31
25
26
24
28
26
20
27
26
22
24
35
30
18
19
26
35
32
34
34
35
36
32
28
18
22
30
36
32
32
36
26
27
32
31
33
22
23
33
30
31
30
22
27
27
24
37
39
32
27
32
28
35
24
20
17
27
26
27
42
32
30
26
27
27
34
30
29
30
33
33
28
26
28
23
19
18
17
28
31
28
25
33
25
24
20
19
20
21
32
21
22
26
27
23
25
25
23
19
26
30
28
25
23
26
24
19
20
25
36
28
26
26
23
24
22
13
20
26
28
23
17
24
17
11
18
24
14
17
27
25
22
23
24
20
14
20
18
11
15
28
30
31
23
20
14
12
10
29
34
21
15
22
20
15
19
24
29
28
17
15
23
17
23
23
19
21
18
22
26
17
12
10
6
4
25
20
17
27
26
17
15
24
25
17
19
23
21
27
25
15
2
8
13
23
22
26
25
26
30
32
34
40
30
43
47
32
29
25
31
26
29
20
12
20
36
32
29
27
19
13
18
21
13
19
17
13
12
18
17
7
12
15
12
10
21
19
17
18
18
16
22
12
8
17
20
8
7
-1
-13
-14
-26
-33
-23
-11
-7
1
19
43
62
87
97
116
133
147
164
170
187
190
180
141
114
81
54
32
11
-6
-2
14
12
22
9
12
10
17
17
15
23
23
10
14
11
8
14
25
24
16
17
24
17
17
23
14
17
23
21
20
16
20
25
22
14
18
23
20
25
21
23
17
23
29
30
15
27
21
23
19
28
30
27
11
18
15
25
36
33
32
37
39
27
39
40
25
32
42
41
34
40
43
46
52
44
41
49
56
57
53
54
61
58
64
67
64
70
65
63
70
83
82
78
88
87
81
86
83
84
91
97
89
86
85
89
88
92
81
79
76
83
83
78
78
75
60
58
60
49
55
54
40
41
39
36
24
32
38
26
29
27
24
17
15
21
17
21
18
14
14
19
12
13
12
15
7
10
6
8
9
3
1
2
17
19
13
10
14
8
21
17
11
5
3
-3
-3
-2
5
11
7
16
9
16
14
6
8
13
11
9
14
16
12
9
9
14
15
18
12
3
7
23
12
6
12
1
3
8
2
8
20
9
8
29
21
4
5
5
10
10
9
20
9
12
19
15
10
9
8
11
11
7
5
5
11
22
19
9
9
10
15
17
12
14
5
0
7
2
1
12
19
14
7
9
4
4
6
11
11
11
13
9
9
8
10
12
5
10
7
8
10
16
12
7
6
-5
0
7
4
3
-1
11
10
14
11
0
7
8
2
5
13
5
11
7
11
1
9
9
4
5
7
2
-4
0
7
8
3
3
-1
9
16
9
6
2
3
-3
12
1
-4
3
2
16
13
10
5
-10
6
14
12
3
13
-2
10
10
9
3
4
0
-7
9
16
7
13
7
0
-4
5
2
1
5
2
0
-6
5
5
-3
-1
10
6
11
13
5
0
4
-1
1
7
3
7
12
8
7
3
15
10
13
14
16
13
20
32
30
29
30
28
6
9
12
16
9
6
4
6
2
4
5
3
8
7
6
5
2
4
0
3
2
5
-3
-6
3
-6
-2
-2
-7
-3
13
15
5
3
0
-2
2
-2
-8
-12
-25
-26
-37
-44
-37
-30
-15
-3
18
27
50
67
85
94
122
151
160
170
171
162
150
124
92
68
40
13
-10
-17
-22
-10
3
-5
-6
1
11
9
11
9
11
-1
-10
-14
-12
-10
7
13
13
14
12
7
6
9
5
8
7
8
7
7
6
-1
-2
9
4
3
8
15
16
15
13
13
11
8
12
24
15
8
11
15
9
5
-10
15
20
25
27
9
7
15
21
20
22
23
25
28
33
25
30
32
29
25
29
38
28
26
34
33
47
49
40
39
46
43
55
64
67
62
61
61
67
76
68
71
76
76
69
70
70
77
71
78
84
83
84
79
78
76
76
76
68
64
70
58
50
53
51
36
31
45
40
38
35
21
22
24
28
23
10
5
1
6
18
15
10
18
13
3
7
3
-2
2
1
-10
-7
2
5
9
3
-1
-5
0
-4
-1
10
4
1
1
-4
-8
-3
1
-6
-5
7
0
-4
-5
-10
-2
-7
1
-3
-3
1
5
1
12
1
-9
-6
-6
-3
3
12
6
-3
-6
-10
1
13
2
-1
1
3
3
-2
1
-1
-6
-4
10
8
2
-5
-3
0
0
0
-1
-9
0
0
0
0
12
8
-2
-4
-7
-2
0
-1
16
4
0
-1
-3
-3
0
8
1
5
-7
0
-1
-11
7
-6
-3
-4
0
5
-5
1
6
-3
-2
8
3
2
-3
-2
-2
-8
-1
2
-3
-4
-6
4
4
-1
-10
0
6
-5
-8
-2
-9
-2
-3
-12
-6
4
3
-4
-3
-6
-8
5
5
0
-5
2
-5
1
-11
-8
-5
0
5
-1
-3
3
-4
-12
-2
0
-3
-3
-4
-5
5
9
2
-7
-8
-6
-2
-3
1
-4
-5
4
-6
-8
-8
-10
1
4
2
-16
-5
1
-4
1
5
-2
-8
-7
-4
-6
-10
5
-6
-3
4
-4
3
-2
-2
1
1
2
3
-15
-22
-17
-12
4
-6
1
13
7
7
-1
5
0
-2
-2
-1
-9
15
10
5
17
22
18
16
13
13
13
14
13
10
9
-6
-6
4
-1
-13
-28
-11
9
6
-6
-8
-10
-3
-2
-4
-2
-1
4
-1
0
0
-10
-5
-13
-16
-18
-8
-9
2
1
-11
-14
-2
-4
-6
-11
-38
-47
-44
-51
-37
-37
-38
-15
20
41
65
73
88
99
126
150
162
168
167
154
126
80
61
42
7
-26
-28
-23
-16
-5
3
-7
-12
-6
4
3
8
7
-6
-11
-8
1
1
-8
-11
-9
-5
-1
3
0
-1
-7
1
-2
0
6
2
0
-1
1
1
-3
2
-2
-1
-5
6
11
4
3
3
11
5
21
4
0
7
8
11
12
12
1
-5
12
16
11
11
11
19
17
20
13
19
19
14
15
24
25
24
28
27
27
30
27
34
39
37
34
34
47
48
48
59
53
46
52
55
65
75
71
62
64
63
66
60
63
72
82
80
82
69
75
81
84
69
75
69
65
56
61
61
46
49
41
40
38
37
35
37
29
28
28
21
12
16
15
13
9
9
11
2
-4
-1
2
-4
-4
7
3
5
4
4
3
0
-6
-15
-10
6
-3
-7
1
-11
-11
-2
-1
-1
-1
-5
-7
-2
6
0
-3
-5
-1
4
-3
0
-5
-1
-7
-16
-1
4
-2
-8
2
3
-3
-3
-8
4
7
5
4
-4
-5
0
4
3
10
-6
-2
0
-5
-9
-10
-11
-3
4
6
10
3
6
4
4
1
-7
-8
-3
-1
3
-2
2
2
8
26
5
-3
7
2
-3
-2
2
1
-6
2
1
-5
0
9
8
4
-6
-9
-8
3
6
7
5
0
2
1
0
-8
-4
1
-7
0
4
4
5
6
13
-3
-1
3
2
2
6
-21
-9
9
1
-11
-14
-2
6
8
5
1
1
-2
-6
-3
-12
-7
3
1
8
-3
-10
-5
0
4
5
-2
12
14
5
-2
2
7
4
-2
5
1
-6
-6
3
2
-3
-1
-1
0
4
4
-2
-6
-4
4
-1
-1
1
2
-5
-8
-5
8
8
-3
-2
7
-2
-10
2
5
3
-7
4
5
-4
-6
7
8
8
7
0
-3
3
-1
12
8
-1
-2
10
11
8
11
14
7
14
21
17
14
17
14
10
16
13
15
15
3
7
9
2
-5
-1
6
9
11
3
4
6
1
-1
-1
-6
-4
-5
0
16
15
6
3
-7
-3
-8
2
5
6
5
0
-9
-12
-8
0
-6
-16
-30
-30
-38
-35
-37
-24
-14
-10
13
48
58
74
79
90
121
135
157
169
166
161
135
108
81
48
15
-4
-23
-31
-26
-25
-14
-9
-7
-10
-7
3
-1
-3
7
10
4
9
11
10
6
11
14
8
13
11
5
8
4
1
4
12
19
3
5
8
7
11
8
13
9
12
21
5
10
13
13
23
22
13
15
18
16
19
20
31
23
15
16
22
13
15
27
28
20
26
28
24
27
28
22
30
34
34
56
44
33
35
33
45
47
42
38
42
52
51
47
56
62
65
67
72
70
72
76
76
76
81
82
80
80
76
80
85
87
86
81
76
86
86
88
81
78
78
84
76
58
51
54
59
60
51
43
45
45
36
35
36
31
25
33
19
17
20
23
24
17
9
17
1
6
9
0
11
15
12
7
-2
-3
12
15
17
11
6
16
7
3
8
12
-5
4
12
-7
-2
10
10
11
10
5
-9
13
13
4
7
16
11
14
9
10
4
5
9
15
10
7
8
18
5
2
7
12
10
12
12
9
7
7
4
7
9
12
3
2
12
10
11
11
10
6
10
9
16
10
12
19
6
4
7
17
13
11
8
6
12
15
15
13
-2
-6
-7
3
21
17
16
14
12
7
8
-1
-1
0
-3
3
18
19
11
13
15
18
10
5
-2
-8
8
18
9
5
6
6
1
11
11
10
11
10
11
3
-2
3
9
4
5
7
11
4
4
8
9
6
7
6
1
16
5
-6
11
8
11
8
8
8
5
4
8
7
7
5
-1
-2
1
-1
2
6
11
13
15
15
12
7
9
11
1
4
4
5
5
-2
5
20
5
8
6
9
11
8
5
9
8
7
5
9
4
1
6
4
4
5
-2
-1
20
9
7
20
16
17
16
15
6
6
11
19
25
25
23
24
25
22
20
11
10
9
12
17
6
10
14
9
8
1
0
-5
12
14
0
0
-9
3
6
2
6
5
3
14
8
6
7
11
2
-1
3
5
8
0
-8
-10
-11
-19
-26
-17
-19
-26
-25
-17
-13
8
29
52
62
76
87
117
132
161
155
147
148
140
102
82
62
37
6
-13
-15
-24
-17
-12
-12
-6
2
-2
1
1
5
6
3
-1
7
16
12
8
7
16
13
9
-1
-1
3
6
-2
-6
6
15
11
14
15
17
5
0
9
13
13
23
12
15
11
17
20
14
11
6
15
19
12
21
19
25
17
13
20
20
21
20
25
24
28
17
16
25
31
26
26
32
25
34
43
42
34
43
34
35
43
33
42
46
57
54
50
55
59
59
64
69
74
66
72
66
71
84
79
81
86
74
74
77
87
82
76
75
70
80
84
77
73
74
68
60
58
64
54
47
52
52
44
40
33
25
25
24
23
24
18
19
11
13
8
7
19
15
8
11
12
13
4
0
1
3
3
10
9
-4
13
3
8
2
0
1
-2
-7
3
6
2
5
1
-4
-1
6
9
5
2
1
6
5
4
3
1
-2
3
0
3
3
15
5
10
0
-15
-7
9
5
5
3
11
4
3
5
10
3
6
11
10
9
9
15
16
3
-8
12
5
6
6
3
10
6
1
6
8
0
-2
-2
0
4
6
9
1
14
2
-2
7
7
3
4
9
9
1
1
-5
-10
-4
1
4
13
12
0
-1
9
9
2
10
3
0
4
4
3
-2
-3
-3
-10
-1
5
4
1
5
6
0
-2
0
5
5
1
-2
1
-3
-5
-6
-13
-11
4
7
-1
6
5
14
1
-3
-9
-3
-3
-4
-1
5
9
-4
1
2
-7
-9
-6
-2
2
11
3
1
-1
4
-4
-7
0
9
-2
0
-3
1
-1
-4
-10
-22
-9
3
-3
-9
7
11
9
6
2
-3
6
-4
-1
6
4
0
-3
-10
-19
-17
15
16
16
17
15
11
15
25
20
18
16
15
11
8
15
5
4
-8
-7
-10
-7
9
6
4
7
5
5
-3
-10
-5
-5
-1
-3
-1
-6
-12
-9
-10
-13
-4
10
7
-3
9
-1
-2
-5
-10
-9
-12
-13
-13
-30
-38
-37
-49
-45
-22
-24
-15
11
30
48
67
84
94
108
132
147
148
155
160
151
121
90
60
26
-1
-23
-26
-26
-24
-19
-7
-4
-2
3
-3
-6
-8
-12
-7
8
4
2
2
3
-3
-4
-2
4
2
6
7
6
-1
-2
-7
-7
13
8
0
2
10
6
2
0
8
4
8
9
4
2
17
20
9
11
1
-3
7
13
7
10
5
10
17
11
16
14
15
6
14
14
17
13
11
22
27
18
24
33
26
34
27
27
36
42
35
35
40
34
40
47
51
50
51
59
60
54
55
59
63
56
60
67
72
80
73
68
69
69
68
87
80
73
69
69
73
70
70
71
52
62
57
53
48
46
38
35
30
26
23
30
33
11
18
19
17
20
18
0
2
9
11
8
6
2
-3
-2
1
2
1
5
0
-7
-8
-2
-7
-10
-4
-6
-4
-4
0
-4
-6
-1
-2
-10
-5
-9
1
2
0
-2
2
-1
-1
0
-6
-10
-11
2
-6
-14
-4
11
3
-5
-6
-5
2
7
2
-3
-6
-6
-6
-5
-5
8
5
0
1
0
5
1
-11
-15
-14
-14
6
16
13
8
-3
-5
-12
-2
3
-4
4
16
1
-5
-7
-2
-5
-6
-3
-8
-4
4
-4
10
7
4
0
4
-1
-3
-1
0
0
-8
-8
-5
-9
-3
5
1
-1
8
8
2
1
-1
-11
-7
-9
-15
-7
2
-5
-6
4
6
0
-3
-5
2
9
-3
-7
-8
-6
-10
-5
-11
-4
-10
-6
-8
-9
-3
3
8
2
5
-7
-5
1
0
0
-6
-1
0
-11
0
-3
-5
-7
-1
0
-3
-6
-9
-12
-5
-5
-3
-5
-1
-1
-4
-5
-10
-9
-11
-6
-2
5
-3
2
-4
-5
-7
-7
4
4
-4
-6
-13
-3
9
8
-7
1
4
3
12
16
9
15
21
13
18
15
8
9
3
3
6
7
-9
-5
-7
-1
8
12
-16
-17
-5
-2
-9
-3
3
-1
-2
-10
0
6
-3
-15
-13
-13
-5
1
-6
-7
-7
3
-7
-10
-4
-10
-5
-10
-21
-30
-31
-33
-48
-40
-39
-37
-12
1
18
33
65
79
92
105
127
143
163
159
159
149
121
90
67
38
8
-13
-13
-28
-24
-17
-8
-3
1
-7
-6
-10
-4
5
7
7
3
3
6
7
2
-3
6
6
-10
-13
-7
1
4
5
1
-5
-4
-1
10
9
8
7
3
2
0
-2
3
5
1
-1
3
8
1
6
10
9
14
12
19
15
20
13
10
17
18
11
15
12
17
19
18
23
19
26
23
20
26
19
22
21
24
27
27
40
35
38
44
41
43
43
51
51
63
50
55
54
56
56
58
75
80
71
67
73
77
74
74
75
71
75
86
74
67
63
70
70
72
67
65
52
37
35
57
60
51
39
33
32
23
21
23
14
13
15
15
13
11
8
1
10
12
7
3
3
-1
0
8
5
-2
3
-6
-4
-8
-17
-14
-3
3
-3
3
6
2
10
-12
-9
-9
-10
-14
-12
-7
6
13
11
1
1
-6
-3
4
-6
-9
2
-1
-13
-5
-1
-11
-4
-4
6
1
-3
0
0
0
-1
-2
-5
1
-9
-3
4
0
7
-4
7
-13
-7
1
7
3
9
3
1
5
4
7
5
3
-4
-4
-8
-6
3
2
-7
0
5
-11
-7
9
5
5
8
-3
-6
2
1
2
-3
1
5
-7
-12
-2
-6
-2
8
2
-2
8
7
3
-7
0
0
-5
-11
-9
-8
3
6
7
-3
2
0
2
-6
2
-2
-6
1
-8
5
3
2
0
-3
-4
-11
-5
8
4
-10
-5
-5
-3
-8
-2
3
-1
2
4
-6
-9
-8
-12
-7
-5
-4
-5
5
5
0
4
3
-7
1
1
2
0
-3
-7
-17
2
-1
-5
-2
-11
-3
4
4
4
-1
0
-6
-5
-6
-3
-4
-4
0
-6
-2
0
-4
14
10
-1
6
12
7
11
16
10
11
21
23
21
17
11
0
8
11
1
4
5
3
6
3
8
1
2
-1
-5
-2
-3
-4
-2
5
-1
-7
2
-5
-3
-8
4
2
-8
-3
1
-9
-13
-13
-9
-11
5
-1
-9
-16
-17
-27
-35
-30
-41
-46
-24
-8
9
36
58
75
89
111
127
135
156
164
171
170
147
112
76
52
20
-5
-22
-28
-25
-13
-3
2
-5
0
9
2
-2
4
5
6
7
5
7
2
2
11
8
10
6
9
16
-4
-5
11
11
-3
0
2
11
16
10
7
16
3
-6
0
6
5
15
12
4
10
12
11
19
20
13
17
19
24
21
20
23
19
19
15
14
19
21
24
36
21
17
22
24
33
29
26
27
35
34
39
38
39
39
46
47
43
60
52
51
53
54
59
54
67
69
69
69
72
78
85
80
79
80
77
84
84
77
77
79
83
84
86
78
77
75
76
71
72
61
59
67
62
52
48
43
44
39
39
37
34
32
25
14
16
14
7
13
18
30
24
19
2
7
6
9
9
13
16
9
0
2
-8
2
12
1
13
10
5
3
8
11
16
12
8
-2
-3
3
10
15
4
10
5
5
2
10
-2
8
9
7
7
1
17
18
11
7
7
6
14
16
-1
5
8
8
6
3
6
10
3
9
12
19
16
3
3
14
15
18
13
12
4
1
6
21
18
7
4
10
17
11
15
23
14
10
15
3
9
8
2
14
32
21
7
14
21
7
0
0
7
14
14
5
10
20
19
2
4
12
11
13
10
13
17
8
7
6
9
18
20
8
7
10
2
12
16
16
11
16
13
4
5
6
7
14
12
4
13
9
10
7
18
18
10
4
9
16
18
24
12
21
16
10
2
8
17
15
14
14
5
7
11
8
8
9
8
4
11
19
23
12
21
13
10
8
10
14
15
10
4
0
-9
1
22
22
21
20
11
19
23
24
14
13
16
13
21
19
24
27
29
26
31
25
21
32
30
24
9
13
29
28
23
16
17
14
12
13
16
14
14
8
20
17
10
8
13
17
23
21
18
17
8
7
14
10
10
9
10
15
11
5
11
11
12
14
-2
-3
-5
-9
-21
-19
-11
-9
-7
7
36
64
82
98
95
116
137
154
162
166
160
156
134
106
73
45
8
-11
-20
-25
-16
0
3
4
7
19
3
10
13
16
8
23
25
21
16
22
17
13
17
17
30
22
21
16
16
10
18
23
22
19
15
17
23
26
20
23
24
12
12
22
22
27
31
18
22
22
16
21
27
31
29
33
37
34
31
31
36
31
29
38
35
32
39
34
41
46
45
36
43
45
38
47
48
47
51
61
53
46
44
54
59
74
64
70
72
67
71
84
73
72
74
79
77
86
90
89
82
84
99
100
86
90
94
86
92
96
87
85
88
79
71
76
71
65
49
47
50
51
54
43
48
47
45
43
39
29
25
28
22
16
11
26
27
18
21
22
19
17
17
15
16
28
27
16
16
9
2
9
18
15
9
19
14
14
14
5
5
16
22
7
14
15
10
7
6
16
10
14
3
9
15
17
17
22
13
8
11
12
7
11
24
22
14
4
20
17
9
19
17
3
7
16
10
3
8
10
12
19
13
9
25
31
9
8
13
15
15
13
16
6
14
24
22
13
15
11
12
9
7
8
18
27
14
17
14
11
14
16
9
12
9
-9
10
14
7
1
7
22
13
11
9
13
10
6
12
14
12
9
2
7
17
20
17
4
4
4
11
15
16
7
14
11
13
11
13
10
5
-2
-6
6
6
8
5
11
5
4
-1
7
14
16
9
9
3
0
3
8
15
8
-1
6
19
12
16
9
7
4
8
8
3
7
2
2
13
18
16
18
10
1
4
9
11
-4
-3
2
7
2
4
7
3
4
20
17
11
2
7
12
20
15
4
10
10
16
13
12
15
26
25
25
24
29
25
17
16
20
16
9
9
14
12
11
8
6
2
2
5
-3
3
0
3
5
4
2
13
12
1
7
6
3
5
8
2
3
7
3
-1
0
-6
-5
1
9
0
-12
-20
-22
-37
-31
-23
-27
-18
3
23
44
63
74
78
106
139
153
163
166
177
166
135
104
78
47
18
-5
-10
-11
-14
-8
-10
-13
-16
1
6
10
16
20
16
8
8
8
6
15
9
15
12
1
-6
-11
-10
9
10
12
10
7
13
17
11
7
18
13
12
13
11
10
10
7
8
12
9
8
11
16
10
15
22
28
23
24
22
16
15
26
25
21
23
8
18
22
28
30
20
22
36
29
30
34
39
35
34
34
29
29
30
36
48
48
56
58
60
50
57
59
59
69
74
66
66
61
67
68
82
75
74
86
88
79
72
82
91
90
75
83
72
73
81
83
72
63
62
54
52
46
48
39
37
36
36
36
17
14
25
26
23
23
22
15
14
12
10
2
14
19
15
13
5
4
9
3
8
9
11
4
3
4
6
4
4
3
1
0
-2
4
-12
1
11
3
1
11
7
-1
-6
2
2
6
9
3
1
-1
0
8
5
3
8
7
6
3
3
10
5
13
10
5
7
11
17
15
2
-4
-5
1
8
6
10
10
3
6
8
4
4
5
1
1
-2
7
10
10
11
5
-6
13
17
-4
-5
6
13
8
7
5
3
4
-2
3
10
11
7
9
2
11
1
15
14
3
4
10
13
7
2
3
0
7
1
1
5
0
-2
10
7
5
8
2
0
-3
3
7
8
11
9
0
-4
2
9
-3
2
12
8
-6
-1
3
2
-2
3
5
5
3
9
3
4
6
-3
-5
-4
1
1
3
3
0
-4
-2
18
19
10
6
-4
0
1
-10
6
7
1
13
10
2
4
5
14
11
-2
-7
-2
9
-4
-11
-5
-1
-9
0
10
1
-6
4
10
7
0
5
8
9
11
3
8
7
7
3
-2
10
11
23
15
16
13
24
34
26
32
27
11
3
6
8
5
4
1
5
3
11
9
-1
-1
7
5
3
-3
-1
5
-1
-6
-14
2
3
13
7
3
3
2
9
3
9
1
-1
-9
0
-1
-8
-10
-18
-22
-30
-38
-38
-35
-27
-26
-7
19
27
41
55
75
95
120
146
157
158
165
165
141
127
98
68
44
15
-18
-14
-13
-9
0
-6
-3
-7
1
7
0
-6
10
14
2
4
9
0
6
3
-1
7
2
-1
6
8
10
-2
5
-4
0
7
14
8
11
15
18
6
5
12
9
12
13
2
8
10
8
0
22
22
11
16
25
21
11
18
18
12
16
17
7
4
11
21
26
33
23
22
23
29
24
35
38
30
34
32
34
36
34
32
41
31
49
50
43
52
53
59
66
67
63
67
59
66
63
74
70
68
69
75
75
83
86
90
79
82
73
72
76
77
71
76
66
58
53
48
50
50
42
43
40
45
39
31
37
28
19
27
31
17
8
12
4
13
8
7
10
10
14
6
22
12
7
13
14
10
-4
-8
-11
-5
-4
7
8
8
5
1
3
0
1
2
4
14
7
0
5
5
-7
-8
-12
-9
-4
11
21
10
-2
3
-3
3
15
8
7
4
5
3
-5
9
3
-4
-1
-1
5
20
9
3
13
6
9
7
5
7
10
6
-1
-3
-3
2
-3
8
6
11
10
12
6
5
9
10
2
6
6
6
0
-9
3
10
6
3
9
12
10
2
6
11
11
12
2
-2
0
2
5
5
4
6
-2
2
5
7
8
11
3
0
12
9
2
0
0
0
3
7
1
5
7
11
8
11
6
-6
2
6
7
2
-3
-9
-9
5
1
1
4
12
5
5
12
5
5
5
3
4
4
-2
4
4
11
1
7
6
4
3
1
0
-3
-2
2
-3
0
7
7
3
5
4
-1
0
10
1
3
8
4
4
-3
-3
4
0
-2
-8
-6
-1
6
7
8
5
8
9
7
6
20
9
-11
-9
1
-12
-1
4
-2
-1
6
14
6
0
10
-5
-5
6
10
20
13
10
16
11
10
11
11
23
25
24
23
21
9
3
10
13
8
14
9
7
8
9
15
4
2
1
-5
-1
10
3
4
5
1
5
5
5
0
7
-4
3
-1
1
6
1
-6
-5
-5
4
1
-2
-9
-3
-5
-12
-20
-29
-33
-30
-30
-31
-23
-5
12
31
51
68
86
114
137
152
153
163
176
163
133
105
78
63
29
6
-11
-18
-28
-7
0
1
2
-1
11
12
-2
-7
-10
-3
-5
8
18
16
14
9
8
10
5
15
14
6
6
10
18
3
-2
-3
2
7
5
8
12
18
11
9
20
12
5
14
16
13
8
7
8
14
20
8
11
15
8
16
30
38
23
22
18
23
24
20
18
15
32
28
30
26
30
26
19
30
36
40
45
40
40
50
44
39
47
45
46
52
57
56
61
67
62
65
67
71
67
70
80
87
77
71
73
80
73
83
78
80
87
83
87
83
73
67
65
64
62
56
58
57
53
43
39
30
35
48
30
19
29
27
17
14
16
8
12
20
13
11
17
13
11
7
5
-1
-10
-4
4
21
15
13
5
8
1
15
8
7
6
7
11
6
3
-2
-2
0
5
13
5
2
6
5
3
0
4
1
9
3
-1
-3
3
-10
-17
3
20
14
18
19
7
8
11
8
1
0
2
3
6
12
4
9
10
6
9
8
7
7
15
6
5
6
16
6
11
14
8
-12
-3
22
8
-1
-10
8
17
16
13
9
11
13
1
3
13
-1
13
9
0
4
16
4
0
10
15
6
8
8
9
7
6
5
-4
-2
9
14
5
0
10
13
9
0
-2
9
7
3
7
6
2
17
17
12
3
8
10
8
4
-3
-8
-6
0
14
17
14
5
8
9
8
-6
-2
5
8
13
12
2
5
3
5
8
8
7
5
13
5
-4
-6
4
6
6
5
8
11
-2
-2
14
14
11
7
-13
-5
3
17
14
14
13
11
4
6
-3
-6
-6
1
17
12
13
10
4
15
7
-3
-5
8
17
15
7
11
8
5
7
4
18
12
13
18
-3
1
12
4
-2
5
8
7
23
11
5
17
16
9
5
15
22
17
29
28
23
30
37
25
21
13
23
19
21
15
16
16
11
-1
7
19
14
9
8
13
15
13
-2
-1
2
4
5
-1
0
4
6
8
12
2
6
6
4
3
11
16
5
8
9
8
-5
-17
-23
-23
-17
-25
-23
-20
-8
15
39
55
72
84
112
135
152
177
177
170
162
146
115
83
62
33
1
-13
-14
-19
-12
-2
-1
-2
16
13
9
12
16
10
9
6
-5
13
33
20
7
12
13
13
13
13
10
24
17
14
10
9
11
2
17
7
19
26
28
32
24
26
18
9
11
19
20
23
29
24
20
18
24
27
15
9
10
26
42
36
37
43
33
25
27
34
39
44
41
27
24
35
37
38
42
44
50
41
53
56
55
61
51
47
48
60
62
70
69
73
69
67
69
84
70
80
85
89
90
92
89
81
87
95
83
89
97
94
89
76
81
84
81
79
75
80
69
72
61
63
56
50
46
42
42
42
38
37
36
33
35
31
18
24
26
19
19
25
20
16
21
24
17
13
11
12
12
27
13
13
11
15
7
11
20
17
17
23
22
12
17
10
12
17
11
7
10
18
18
7
9
18
14
15
13
11
13
20
22
20
16
13
9
18
21
13
14
14
14
13
23
13
10
10
17
14
29
31
23
12
19
33
17
11
13
15
21
21
19
14
22
21
22
19
23
21
19
25
28
13
10
5
12
16
23
24
29
20
6
21
23
15
12
17
7
7
15
26
27
15
16
13
15
15
22
19
15
20
9
18
24
6
17
21
20
18
12
15
15
11
14
12
11
18
14
20
16
21
12
8
18
23
17
9
5
15
20
12
13
23
18
14
10
18
20
14
10
13
16
18
19
14
14
18
22
11
14
17
18
22
9
12
16
14
13
12
21
16
13
10
6
8
22
21
17
25
13
-3
10
10
8
1
18
18
9
11
20
19
13
21
14
9
20
14
9
12
21
17
7
12
12
10
8
8
16
18
23
22
17
14
20
15
17
11
11
16
22
25
21
14
6
13
18
23
32
30
35
37
30
36
28
23
22
22
19
13
0
10
23
22
15
6
7
18
18
17
16
15
17
20
14
15
10
14
18
5
17
7
9
16
10
8
3
8
13
12
13
3
4
8
0
-7
-18
-20
-22
-18
-15
-6
2
21
38
56
74
95
94
130
153
160
163
170
162
148
107
88
67
49
9
-19
-8
-7
-12
-9
0
1
12
13
15
10
6
14
16
10
11
11
12
13
18
15
14
8
14
15
18
12
22
13
9
12
7
5
18
19
21
17
18
27
31
18
22
24
20
17
20
22
25
27
20
16
16
20
15
18
26
30
26
30
19
29
21
21
32
29
34
30
31
41
38
36
42
36
41
49
41
34
48
44
48
49
46
53
61
58
67
63
60
66
70
74
72
70
77
66
75
78
77
83
86
86
89
67
81
86
88
84
85
93
87
84
73
64
71
75
66
65
63
58
57
48
52
49
38
34
24
30
37
34
29
25
26
21
19
20
21
18
19
13
8
18
19
2
10
15
11
-4
8
9
9
5
2
3
4
17
19
13
8
6
2
8
11
8
4
10
14
5
12
6
2
17
18
3
24
17
14
7
15
9
11
13
5
10
10
6
0
10
11
13
6
11
11
9
11
11
3
17
23
16
14
12
9
8
21
15
11
16
11
5
3
16
16
24
9
4
14
14
15
12
8
18
5
6
4
10
22
17
14
13
10
11
8
2
16
18
20
11
18
11
10
4
4
13
14
4
3
15
17
9
13
15
3
7
14
9
10
22
16
12
4
13
6
3
8
1
6
15
11
6
7
16
8
9
7
4
-4
5
15
12
5
16
10
18
7
0
7
20
10
4
8
11
8
4
6
5
8
15
14
5
11
15
6
4
5
4
9
22
15
5
8
5
6
6
5
2
5
7
7
7
5
-1
5
4
15
12
17
9
9
4
11
5
-6
7
15
22
17
2
1
0
4
6
6
14
22
17
11
12
12
17
13
21
7
11
17
11
18
14
12
10
21
27
24
26
21
26
27
24
23
20
14
15
12
15
12
9
11
11
13
24
10
0
-2
-2
10
5
6
9
9
3
10
10
5
11
10
9
13
5
5
8
1
1
10
8
-3
-2
-4
-13
-29
-31
-31
-21
-14
-1
9
21
41
58
67
89
122
136
158
174
176
171
175
144
109
75
55
21
-9
-13
-19
-12
10
16
5
8
8
11
11
9
9
12
17
15
15
10
8
5
8
16
6
23
14
17
21
11
14
2
9
14
10
12
24
15
16
21
13
4
8
13
12
14
19
20
18
31
26
13
17
19
19
18
26
20
27
23
21
21
22
17
31
31
41
39
33
33
29
34
36
30
32
33
40
45
50
43
38
38
50
48
46
49
48
51
67
64
58
57
57
69
72
81
80
79
70
68
68
76
86
86
87
99
93
87
87
88
91
82
85
84
77
78
74
65
70
61
53
48
56
51
41
47
40
35
34
39
35
27
23
17
18
26
25
16
12
12
11
7
0
10
21
23
22
23
12
14
5
9
11
15
13
15
15
13
12
11
7
6
5
10
13
14
5
4
13
13
12
17
10
4
4
8
6
15
7
2
10
11
8
12
10
18
17
21
17
9
7
16
14
8
9
16
15
13
14
18
9
23
10
11
14
13
10
11
11
12
14
11
9
0
17
23
11
12
12
9
3
8
21
20
18
8
9
19
19
12
11
14
11
8
15
18
15
11
9
18
16
9
20
22
18
9
10
19
6
2
5
10
10
3
13
12
13
14
13
2
4
13
5
7
13
15
9
8
16
7
7
8
15
9
14
22
6
15
9
0
14
17
14
13
8
4
8
9
6
4
8
11
8
17
16
16
16
6
12
3
6
3
6
4
12
9
9
11
5
-1
9
10
12
12
18
18
