-8
-5
-9
-6
-3
-7
-6
-5
-8
-7
-6
-3
-14
-11
4
10
8
-19
-14
-18
-7
-4
0
-7
-11
-9
-10
-6
-8
-5
-11
-8
-16
-13
-5
-6
-15
-13
-5
-9
-10
-9
-14
-11
-1
-15
-14
-10
-17
-16
-11
-10
-12
-9
-15
-6
-8
-16
-13
-12
-7
-17
-10
-12
-12
-8
-14
-8
-16
-13
-11
-13
-15
-14
-11
-12
-11
-15
-11
-11
-5
-12
-17
-4
-12
-14
-23
-9
-9
-12
-4
-2
-6
-7
0
-3
-8
-6
0
8
6
6
4
0
-3
-4
-11
-11
-13
-16
-19
-18
-12
-12
-11
-23
-21
-19
-22
-12
-17
-22
-15
-16
-14
-17
-19
-21
-13
-14
-17
-21
-20
-9
-10
-13
-23
-19
-17
-23
-18
-16
-21
-29
-26
-14
-19
-1
27
36
49
60
73
66
84
87
61
23
11
-9
-26
-49
-59
-46
-35
-20
-30
-33
-31
-15
-16
-9
-12
-13
-17
-11
-16
-14
-10
-16
-16
-20
-19
-19
-17
-13
-14
-10
-20
-9
-14
-16
-18
-17
-12
-14
-17
-8
-15
-11
-6
-8
-7
-14
-14
-12
-2
-5
-6
-9
-14
-12
-4
-13
-15
-6
-5
-8
-11
-12
-2
1
-1
-9
-7
-6
-8
-5
-3
2
4
0
1
-2
15
7
6
5
8
12
5
9
3
10
16
19
15
13
18
16
17
18
16
22
27
24
23
29
20
15
21
24
23
27
18
11
11
19
23
17
5
17
14
7
-2
-3
-2
-2
-7
-5
-9
-17
-6
-11
-16
-18
-16
-15
-16
-15
-16
-15
-12
-22
-26
-20
-19
-18
-20
-20
-17
-23
-16
-18
-22
-23
-15
-25
-24
-21
-27
-17
-20
-21
-22
-20
-18
-28
-25
-24
-19
-22
-13
-18
-23
-15
-13
-27
-22
-23
-21
-18
-17
-20
-12
-7
-26
-23
-21
-23
-27
-22
-15
-14
-21
-25
-21
-26
-24
-14
-9
-24
-22
-19
-22
-23
-22
-22
-11
-25
-25
-24
-17
-18
-10
-22
-17
-13
-22
-28
-23
-16
-24
-12
-22
-18
-18
-20
-21
-22
-27
-34
-19
-17
-18
-21
-21
-20
-19
-23
-23
-18
-18
-13
-9
-17
-13
-12
-20
-24
-14
-11
-19
-24
-18
-9
-12
-7
-1
-17
-23
-25
-13
-5
-12
1
-1
-3
-4
5
-3
-9
-9
-16
-14
-17
-20
-15
-12
-17
-28
-18
-13
-24
-25
-25
-24
-14
-12
-29
-24
-22
-18
-15
-16
-21
-19
-19
-18
-17
-18
-17
-16
-27
-21
-22
-14
-17
-19
-15
-19
-19
-8
-6
-1
18
40
41
64
75
89
101
104
89
54
34
12
-12
-33
-52
-54
-47
-39
-32
-39
-32
-23
-28
-23
-12
-9
-10
-5
-14
-10
-17
-16
-4
-9
-5
-5
-10
-15
-23
-1
-3
-5
-11
-10
-7
-9
-3
-6
-2
5
-9
-7
1
6
0
-7
-10
-13
-6
-4
3
8
6
7
0
-1
-2
2
0
-1
-9
0
4
2
7
12
12
1
3
10
22
11
12
18
12
17
19
10
12
22
22
22
23
19
25
18
30
32
26
31
29
37
31
44
30
34
40
33
38
40
33
35
36
39
38
36
34
37
35
33
31
38
34
22
29
29
26
19
-3
7
9
0
7
0
4
6
0
-6
5
-4
3
-7
-13
-15
-11
-3
-7
-6
-7
-10
-9
-9
-7
-10
-5
-6
-2
-11
-12
-15
-9
-14
-9
-8
-7
-11
0
-4
-14
-9
-4
-4
-4
-4
-5
-4
-14
-13
-15
-20
-6
4
0
2
-6
-11
-5
1
0
-8
-8
-6
-6
-3
2
-7
-10
-8
3
0
3
-6
-9
-7
-8
0
-3
-14
-10
-2
-8
-4
-8
-9
-10
-6
-10
-4
1
-9
3
-6
-6
-18
-11
-7
1
-6
-5
-1
2
-11
-10
-1
-7
-6
-3
-3
-8
-4
1
-2
-6
-11
-3
1
-8
3
-8
-1
4
2
-3
-1
-3
4
5
5
-4
3
9
16
12
7
10
10
6
-4
4
-9
-8
-8
-4
-8
-8
-8
-13
-10
-7
-10
-6
-3
-7
-6
-5
-5
-9
-13
-12
-13
-16
-12
-12
-12
-16
-3
-1
-9
-5
-13
-4
-1
-8
-13
-7
0
-10
7
19
30
55
74
87
92
103
115
99
67
48
28
-5
-24
-46
-56
-44
-32
-27
-28
-10
-15
-15
-17
-12
-5
-1
-5
-7
-9
4
10
0
-12
-10
-6
-7
0
1
-3
3
0
2
-1
-11
1
7
-8
-3
-1
4
-1
2
0
3
3
4
11
-2
11
8
6
9
4
-4
7
6
2
0
-1
3
9
15
16
12
15
9
9
12
12
5
11
19
16
15
17
19
23
26
23
25
27
27
26
25
23
36
33
33
32
34
28
35
52
39
31
37
33
37
38
38
43
41
37
36
36
37
45
37
34
26
27
32
35
28
21
22
19
17
10
10
10
11
7
5
2
0
1
-3
-3
-5
-4
-2
-13
-6
-2
-1
-5
-2
-3
-2
-6
-13
-5
-5
-4
-1
0
-7
-10
-10
-5
2
-7
-3
-3
-6
-7
-8
-2
-12
-9
-3
-7
-7
-2
-1
-1
-6
-6
-1
-1
-8
-6
-8
-5
-5
-9
-12
-6
2
-5
-3
-1
5
-2
-3
-9
-4
-7
-2
2
-1
-15
-16
4
0
-5
-10
-5
-1
-4
0
0
-3
-1
-6
-9
-11
-8
-13
-3
-5
-5
-12
-9
-1
-8
-8
-8
-7
-8
-5
-4
-3
-7
-4
-4
-9
-5
-6
-8
-4
-5
-8
-3
1
0
-8
-8
-1
2
0
4
-10
1
-4
-4
-1
4
18
17
6
-1
-1
4
8
3
0
-10
-10
-14
-10
-11
-5
-6
-1
-9
-10
-11
-10
-14
-8
-8
-8
-14
-10
-10
-11
-7
-6
-9
-7
-16
-14
-5
-7
-10
-11
-10
-10
-13
-16
-10
-11
-5
-14
-5
0
10
22
45
66
71
74
75
86
90
57
41
30
10
-27
-52
-51
-38
-31
-17
-12
-21
-9
-11
-9
-6
-4
-11
-8
-3
-9
-10
-10
-4
-10
-15
-6
-3
-12
-6
-6
-6
-8
-10
-6
-10
-3
-8
-9
2
-1
-12
-2
-4
-8
-5
-3
0
-2
-5
-9
-9
-4
-3
-1
-3
-2
-2
2
-4
-7
1
8
5
0
3
3
0
0
0
-2
-4
11
14
8
6
5
5
17
6
3
15
18
5
20
16
17
15
19
18
16
23
22
19
20
21
34
31
21
23
21
26
25
24
27
34
28
14
17
19
14
22
27
17
15
5
9
8
-3
1
-4
1
-2
-13
-3
-6
-17
3
-4
-15
-14
-15
-14
-16
-24
-12
-16
-16
-16
-15
-16
-11
-19
-17
-17
-15
-18
-16
-17
-14
-18
-20
-19
-17
-9
-13
-16
-15
-25
-12
-19
-13
-11
-13
-13
-15
-29
-27
-21
-9
-8
-21
-15
-15
-21
-19
-12
-15
-24
-12
-11
-10
-22
-23
-15
-10
-8
-19
-26
-15
-16
-12
-16
-18
-18
-23
-21
-17
-26
-20
-21
-22
-15
-12
-12
-23
-24
-15
-22
-15
-18
-18
-18
-33
-15
-11
-12
-14
-22
-16
-13
-20
-4
-12
-19
-19
-10
-18
-9
-13
-19
-7
-8
1
-6
-2
-7
-8
-3
-9
-7
-9
-16
-23
-25
-26
-21
-21
-22
-27
-30
-27
-19
-18
-24
-17
-22
-26
-16
-25
-26
-17
-19
-19
-14
-36
-28
-29
-26
-19
-28
-25
-32
-24
-23
-22
-30
-26
-29
-23
-26
-3
-1
12
25
38
55
63
70
76
82
68
40
13
-16
-25
-53
-71
-56
-44
-34
-30
-30
-34
-22
-24
-29
-27
-13
-13
-13
-10
-14
-21
-20
-26
-14
-25
-9
-15
-19
-20
-15
-16
-28
-17
-17
-15
-16
-14
-13
-10
-10
-10
-10
-15
-22
-7
-5
-10
-9
-13
-6
-10
-8
-9
-17
-13
-12
-4
0
-10
2
-5
-10
-10
0
-11
-11
-4
9
4
4
-1
-5
2
13
4
-2
-2
12
4
9
21
11
5
29
19
8
21
24
18
20
24
17
21
15
28
25
30
30
27
27
27
18
20
24
26
20
28
31
25
22
16
14
15
3
0
10
2
9
8
4
1
-5
-12
-14
1
-18
-3
-13
-12
-13
-5
-9
-13
-16
-15
-19
-14
-18
-18
-5
-10
-23
-21
-17
-8
-20
-14
-6
-21
-11
-13
-15
-15
-7
0
-13
-24
-17
-20
-11
-8
-24
-7
-11
-10
-10
-10
-14
-9
-9
-13
-13
-14
-11
-11
-14
-9
-13
-14
-15
-13
-12
-10
-11
-9
-4
-6
-1
0
-5
-19
-11
-12
-15
-5
2
-1
0
-18
-11
8
0
-5
-6
-3
-2
-5
-5
3
9
11
0
-11
-6
13
11
6
5
3
2
6
-2
11
13
7
3
-3
-6
-5
-11
-8
-3
-17
-9
-6
-17
-11
-13
-10
-4
-10
-11
-12
-8
-1
-6
-10
-3
-13
-12
-5
-13
-11
-11
-6
-11
-5
3
1
-10
-5
-8
-4
-6
-4
1
20
41
66
81
88
102
103
114
91
66
36
10
-11
-36
-56
-55
-38
-31
-32
-34
-22
-14
-15
-11
-3
-4
2
3
3
-2
-3
0
-7
7
14
9
8
-11
-2
-11
0
6
8
5
9
11
10
14
4
5
18
9
6
16
13
4
3
8
14
15
22
16
12
16
18
17
16
19
18
24
19
24
19
25
23
27
16
18
19
29
25
26
33
25
32
30
36
38
40
41
34
42
39
38
43
42
48
50
50
53
56
50
48
49
53
52
46
56
65
53
55
57
57
51
53
59
56
60
53
53
42
43
45
36
31
40
36
36
30
25
29
27
26
25
27
27
6
14
17
17
15
18
10
6
16
12
5
8
9
10
20
12
13
12
12
25
16
7
9
9
12
18
8
9
19
19
15
13
8
13
13
17
16
18
16
7
19
14
14
12
14
17
21
28
17
22
19
22
20
17
14
20
21
19
22
21
14
23
24
19
18
17
19
15
20
22
15
20
23
20
14
20
20
15
24
19
23
25
25
22
20
23
31
29
22
19
22
24
26
35
30
25
30
31
28
26
31
25
31
39
34
29
31
35
30
20
21
30
23
22
22
28
23
17
25
20
16
10
11
14
17
22
21
21
8
28
23
24
23
15
20
14
24
12
18
26
22
10
11
22
28
30
28
32
36
51
65
74
87
103
114
120
129
125
97
67
36
16
5
-18
-24
-15
-8
7
5
12
7
13
13
19
26
27
29
21
29
32
39
37
26
30
22
25
24
25
25
26
23
32
40
37
29
34
30
24
25
27
34
29
36
32
38
37
27
33
38
35
42
36
44
43
40
41
37
27
33
35
38
42
38
43
41
47
48
54
41
56
45
42
48
47
50
56
56
52
55
63
57
56
64
62
59
65
66
62
64
69
63
64
76
75
71
66
70
73
71
68
67
71
69
68
77
72
67
73
68
63
55
57
49
63
63
55
51
52
47
49
40
42
42
38
43
43
36
37
37
33
38
32
37
38
31
36
30
29
28
32
22
30
37
36
35
39
34
35
30
32
34
47
33
32
39
36
29
26
38
41
34
36
38
39
43
38
44
33
30
36
39
46
37
37
36
34
37
32
37
45
42
44
40
45
45
40
41
43
42
45
48
36
36
35
37
39
42
37
41
43
37
50
51
49
42
46
46
39
49
44
46
48
49
45
51
54
51
54
47
48
48
52
52
58
56
59
54
51
58
67
62
53
47
52
57
45
38
46
40
42
38
38
42
41
45
50
48
45
39
39
42
47
48
47
49
49
48
54
56
50
39
41
41
46
49
53
48
53
53
58
54
61
64
69
90
101
119
142
150
148
159
151
128
99
73
54
34
18
8
22
38
50
47
47
39
43
52
64
63
53
60
67
75
67
68
67
67
52
58
65
65
67
73
77
68
69
70
63
78
77
65
72
74
74
78
71
75
72
76
74
75
74
82
75
74
88
86
82
87
87
82
81
80
84
87
87
93
91
90
90
92
92
93
98
111
107
112
113
114
113
120
122
116
115
130
128
132
125
127
130
123
125
127
125
124
127
126
131
136
130
121
121
124
124
117
111
111
116
113
111
109
110
106
99
98
96
94
101
108
100
97
95
98
101
98
91
97
101
97
101
102
91
101
94
101
102
105
98
104
96
103
105
104
106
105
103
112
106
104
102
105
101
103
105
108
107
107
114
117
114
107
113
109
109
106
118
121
115
108
112
108
111
124
117
114
110
114
116
120
119
111
116
112
113
119
116
113
116
119
116
118
118
122
123
129
128
113
120
125
127
121
122
130
130
127
133
126
129
132
130
128
125
121
125
141
135
133
136
136
140
140
141
146
135
143
146
139
141
143
140
139
136
140
129
124
121
130
135
137
137
127
127
136
136
132
141
132
133
130
132
130
137
136
140
137
134
141
132
140
139
135
135
142
140
141
139
135
140
150
160
177
190
202
223
228
234
237
243
229
191
160
149
133
106
99
121
119
128
126
133
138
151
155
154
146
149
152
151
152
151
154
155
160
156
153
150
159
163
150
150
151
150
164
157
162
158
159
164
161
165
164
164
165
159
162
165
164
165
166
167
174
173
171
173
166
166
169
172
176
173
166
167
176
181
177
179
181
179
182
180
173
180
176
178
193
192
188
190
191
195
197
196
182
194
200
200
199
200
191
198
204
206
204
206
206
203
212
215
208
206
210
205
204
211
216
206
199
208
215
204
209
193
190
195
196
191
195
194
196
185
181
184
183
182
178
180
173
174
181
175
167
174
182
184
182
183
181
176
175
178
181
174
165
175
174
179
177
187
173
170
174
180
176
178
188
186
178
186
177
179
183
178
183
183
180
180
184
188
179
186
185
183
192
191
177
191
184
183
180
184
182
189
184
177
177
184
187
187
191
181
182
184
188
181
183
189
199
197
187
192
179
184
193
185
184
193
189
182
185
194
187
191
205
193
185
190
188
192
186
187
187
192
193
188
182
195
206
203
202
196
199
209
215
214
209
202
204
201
198
197
184
187
191
193
199
196
193
184
187
190
188
188
194
190
189
188
194
183
193
190
191
189
196
197
185
197
197
194
192
200
192
190
192
196
201
204
198
201
213
221
234
250
267
276
275
276
279
267
236
210
198
180
173
161
161
163
181
191
194
194
199
204
197
198
199
202
214
212
212
200
197
195
192
200
202
194
200
201
198
194
202
211
209
207
207
205
203
213
214
202
200
206
203
211
213
211
211
210
207
216
214
210
206
211
214
215
212
209
212
208
216
222
208
215
216
217
219
224
224
222
225
217
214
219
221
230
234
229
224
229
233
233
235
232
235
241
243
234
233
237
231
236
241
237
240
234
248
244
241
238
235
240
239
248
245
242
234
233
232
237
225
230
232
226
223
218
221
210
214
209
219
215
216
210
208
206
206
208
213
206
213
213
210
201
207
211
205
204
198
200
204
211
214
213
209
200
205
203
203
200
200
207
215
213
206
205
209
206
210
209
209
206
207
204
205
208
206
206
208
210
209
210
214
211
210
204
205
203
202
204
207
208
199
205
199
209
213
215
206
208
204
207
208
207
207
205
208
202
202
198
206
207
205
212
201
200
201
203
210
209
207
205
216
213
213
202
211
211
208
209
205
210
214
211
213
205
213
221
219
219
216
217
215
217
209
213
201
195
200
199
199
198
195
205
200
199
205
208
196
200
204
203
191
195
200
198
204
203
198
203
200
201
197
198
201
188
191
208
216
204
195
188
195
208
210
230
239
263
268
282
285
293
307
296
266
225
207
192
178
158
163
178
183
190
187
178
184
205
209
198
205
206
201
213
196
203
200
199
201
199
214
211
201
203
198
204
209
209
211
200
204
208
205
200
217
207
202
200
204
205
206
201
207
200
210
206
215
208
203
208
212
209
211
207
214
211
218
213
212
204
213
215
214
216
207
215
223
231
213
219
224
220
219
226
230
226
214
221
226
222
233
226
232
231
233
233
229
225
232
241
239
234
233
235
238
231
230
238
236
241
234
230
231
231
228
220
225
218
227
218
216
216
207
208
208
213
200
203
195
197
200
204
202
195
197
203
191
197
196
188
191
199
208
201
191
179
185
192
193
198
192
189
200
195
190
194
197
190
188
192
191
184
198
186
188
187
185
205
199
199
187
190
193
193
189
189
193
186
188
199
199
194
186
196
194
189
189
197
196
188
193
203
191
192
197
182
198
201
201
187
196
192
198
208
196
198
197
195
192
202
195
191
192
199
205
197
202
203
200
200
199
193
183
185
182
182
182
184
176
181
177
185
180
193
185
176
184
180
167
176
177
177
174
175
176
174
174
180
185
177
178
180
176
175
174
180
187
177
180
176
182
187
199
218
240
258
277
286
293
281
287
264
228
193
165
151
134
125
129
134
132
136
154
161
160
165
176
178
179
173
173
176
177
178
181
177
174
186
174
184
180
177
178
179
175
182
182
183
175
185
183
179
182
183
186
185
175
183
181
178
183
190
182
186
184
186
186
184
184
186
177
184
183
189
192
195
188
178
188
195
190
182
189
190
195
186
188
197
188
197
196
194
201
196
197
198
199
211
203
208
206
210
203
204
208
209
205
203
200
213
213
215
217
196
198
205
203
213
207
205
200
199
204
196
192
196
189
185
181
185
178
175
169
177
178
178
169
164
163
158
152
164
167
165
167
156
152
154
149
155
161
157
151
164
160
149
149
151
167
160
149
156
158
157
154
157
155
161
164
153
157
157
151
156
158
147
157
162
152
155
152
147
163
166
147
150
152
153
152
156
152
156
156
153
163
146
149
149
159
157
156
161
155
152
156
150
154
150
145
153
149
158
153
150
149
148
162
164
154
154
154
161
152
155
156
160
161
158
162
153
152
157
151
152
148
140
133
135
134
133
135
139
147
141
132
138
145
145
134
131
131
132
136
138
134
129
136
139
139
132
132
134
132
137
137
131
122
134
127
130
136
141
144
147
172
185
200
215
217
216
232
218
180
153
143
124
99
85
87
93
110
116
117
118
121
127
121
127
139
145
138
134
126
131
131
132
130
125
122
128
134
133
122
129
136
129
129
130
128
128
130
130
132
136
128
124
128
132
134
135
121
126
140
134
130
138
141
135
128
138
131
135
131
133
127
132
136
140
136
133
145
139
138
134
130
141
138
141
136
138
138
141
136
154
145
139
143
149
144
150
148
159
149
148
145
138
145
153
153
152
153
157
145
153
152
149
155
159
146
146
150
143
139
139
142
141
134
121
129
126
123
125
129
126
121
122
115
102
119
115
114
119
121
107
102
106
116
112
106
103
105
124
116
104
105
104
109
111
107
111
105
100
102
106
108
98
110
120
115
107
112
112
96
108
118
117
105
100
98
107
110
111
105
105
102
100
105
106
114
112
103
109
108
100
99
105
103
101
92
112
108
112
108
106
99
105
104
96
114
109
105
104
101
102
103
101
100
106
103
103
109
102
104
98
96
109
105
109
111
109
106
115
101
110
116
112
104
116
106
95
99
95
98
95
89
86
91
82
89
94
85
94
102
101
86
90
86
86
90
99
86
89
92
90
92
94
92
97
86
87
90
86
88
88
89
95
100
112
107
123
131
162
165
172
172
186
195
167
132
109
99
70
64
50
68
82
92
94
81
91
89
87
88
90
95
97
87
90
89
87
94
97
98
97
91
97
98
94
85
89
93
90
88
88
99
99
96
89
96
90
87
89
92
94
91
92
93
95
95
87
91
98
100
93
93
91
91
87
92
99
91
97
87
93
98
97
97
105
112
100
95
94
93
100
102
100
102
97
107
101
103
110
110
103
98
110
104
104
113
114
116
106
110
107
104
110
109
101
106
113
117
110
111
109
118
111
109
115
105
102
107
98
102
96
100
101
94
86
78
84
76
86
84
76
80
81
79
81
77
84
95
75
77
87
77
66
69
77
79
77
77
78
78
79
84
82
84
78
81
78
75
76
81
68
70
86
79
81
84
72
75
81
82
83
83
86
76
69
80
78
85
88
73
82
81
72
78
78
78
81
85
75
72
78
86
82
78
78
77
90
80
70
77
82
77
80
81
92
91
87
82
83
87
87
80
91
87
84
84
93
94
95
94
91
90
93
92
96
101
100
109
107
98
103
93
101
91
93
93
90
87
85
82
81
91
92
92
94
87
94
98
89
87
96
91
85
91
96
90
83
86
94
98
88
87
89
92
96
101
94
94
90
93
98
101
107
118
145
159
165
179
180
185
194
194
174
146
120
114
80
64
58
71
82
96
92
86
105
100
110
121
109
104
111
114
114
117
115
103
112
115
111
103
112
106
119
126
125
126
128
124
125
119
123
118
122
116
125
130
132
131
124
131
124
128
131
142
133
127
139
130
134
129
134
147
146
139
143
142
142
148
144
142
134
149
154
160
153
159
159
163
163
151
167
164
167
178
165
168
170
162
169
184
181
179
175
177
186
186
184
179
192
179
185
194
194
197
198
207
194
177
180
184
198
201
186
188
185
188
189
186
179
174
178
173
176
177
164
160
180
173
172
177
175
173
164
171
164
162
172
166
171
162
170
170
165
170
180
180
166
163
168
178
168
172
172
180
177
174
174
183
186
181
177
188
183
179
190
194
188
181
180
187
185
189
189
170
186
195
187
189
197
197
193
183
190
201
199
198
187
190
202
205
193
198
208
204
213
211
210
198
200
213
209
212
210
217
216
212
211
217
212
215
211
219
219
220
228
232
226
223
214
217
213
211
213
212
209
209
215
220
213
214
209
220
214
215
217
200
216
216
224
217
224
208
212
217
221
217
213
225
221
223
217
216
214
223
233
237
236
240
223
219
237
247
262
289
310
318
330
336
363
343
316
289
269
237
216
195
183
183
184
197
198
212
216
222
224
224
234
228
243
244
239
238
242
256
242
246
250
256
254
253
249
252
245
251
248
251
244
249
257
258
258
256
253
256
255
255
262
247
247
256
261
268
264
268
264
267
259
272
266
259
262
269
270
273
272
275
269
277
285
269
273
275
286
282
269
272
278
285
281
286
291
285
289
282
292
294
297
303
299
308
305
300
300
302
307
301
302
316
316
301
302
316
321
310
311
299
306
305
299
300
306
301
301
297
304
299
306
280
287
292
301
282
274
281
279
280
274
276
269
280
283
274
277
262
275
267
271
269
269
262
268
269
271
266
269
283
283
275
263
275
283
277
277
279
279
269
273
275
285
276
271
276
279
283
273
286
277
269
283
283
293
278
281
275
281
290
300
296
295
290
280
285
297
297
290
300
295
299
297
294
288
300
300
298
292
283
297
305
308
295
295
287
314
289
303
297
294
291
305
310
314
304
298
299
301
303
307
321
305
304
299
288
296
300
294
287
284
280
291
278
295
276
277
272
265
270
266
251
257
258
253
269
256
256
245
246
262
243
234
230
230
224
227
234
225
220
215
202
233
237
220
230
229
217
213
209
212
234
229
233
210
197
222
258
266
276
296
322
293
301
316
305
259
252
225
246
193
171
151
152
170
168
132
185
174
262
289
244
233
227
200
173
144
195
243
202
304
295
247
232
215
223
233
210
229
204
233
206
240
225
214
270
273
274
267
245
262
285
252
273
311
270
261
313
319
341
300
293
284
312
314
352
357
356
334
331
348
308
324
303
301
340
311
445
450
378
434
438
449
424
396
386
383
398
403
409
425
465
416
446
443
434
470
443
451
461
479
485
502
510
443
458
520
533
505
526
516
513
498
496
466
518
490
523
510
506
493
522
578
488
481
510
512
498
486
524
505
539
498
477
504
522
518
491
493
489
482
520
487
533
514
478
498
538
503
493
503
500
488
491
483
483
519
497
470
451
448
457
498
462
474
437
486
546
525
470
459
487
514
496
474
476
446
447
479
493
470
477
466
473
493
490
480
503
481
477
463
504
468
476
493
487
491
500
474
478
475
448
468
449
473
468
455
457
464
504
482
463
478
434
438
494
500
457
460
485
468
498
436
431
458
479
471
445
435
441
454
453
452
443
431
453
446
446
416
418
448
420
434
431
428
429
449
432
406
404
425
408
413
370
412
431
446
447
455
412
398
388
390
393
410
423
418
409
408
439
442
430
415
425
405
431
442
442
468
487
511
503
501
516
496
460
445
411
396
381
355
369
404
402
380
392
376
387
394
407
408
401
410
419
406
401
393
396
422
417
400
391
391
383
404
407
383
393
408
387
405
396
408
423
396
372
393
413
393
375
374
389
400
404
404
412
414
413
402
393
387
393
388
393
408
393
386
393
391
391
383
405
371
385
423
398
409
373
376
383
402
390
398
396
374
391
414
389
374
367
385
377
370
377
386
407
390
388
369
375
398
375
367
382
379
379
359
370
375
398
375
371
372
370
343
348
341
345
368
357
357
349
347
347
356
344
351
330
322
316
306
323
318
311
319
306
308
316
329
335
326
306
307
292
284
277
290
312
293
308
317
313
295
298
280
283
295
305
288
295
302
304
286
277
280
288
286
292
289
288
277
262
264
271
258
288
302
288
265
277
288
273
297
297
260
254
274
272
281
285
269
267
281
274
281
274
279
290
281
248
273
283
268
266
267
267
271
276
262
273
269
255
247
257
256
261
265
257
251
258
248
240
252
248
240
219
243
230
226
216
215
208
215
210
208
194
193
200
184
186
203
183
189
191
187
181
178
174
176
168
162
157
168
155
154
179
172
162
147
142
148
159
159
166
181
208
216
239
257
270
263
257
226
193
162
119
98
74
65
52
54
58
48
70
67
72
60
74
75
83
71
73
68
74
75
58
71
68
67
76
76
69
52
63
62
37
51
57
45
44
41
47
45
46
47
40
29
38
31
33
38
47
47
37
37
36
42
43
40
32
30
47
44
36
36
46
44
27
32
26
25
27
34
35
25
27
31
28
43
44
31
46
41
40
24
34
47
40
38
44
49
45
45
46
45
43
37
40
35
39
42
31
44
42
47
39
42
33
34
30
32
38
34
26
25
13
29
12
20
20
14
5
-3
-15
1
-10
-5
-1
10
-1
-21
-21
-2
-16
-9
-13
-34
-24
-23
-26
-44
-20
-22
-20
-18
-32
-50
-34
-34
-30
-31
-38
-37
-35
-36
-27
-32
-43
-51
-44
-40
-31
-31
-33
-45
-51
-35
-33
-40
-40
-37
-48
-44
-44
-48
-42
-39
-45
-43
-48
-51
-53
-46
-42
-56
-50
-53
-58
-52
-55
-62
-68
-54
-48
-51
-53
-49
-57
-59
-57
-56
-62
-58
-65
-58
-67
-59
-46
-57
-63
-61
-57
-73
-50
-69
-74
-57
-49
-49
-64
-63
-57
-71
-60
-64
-63
-58
-50
-48
-58
-56
-54
-58
-69
-71
-72
-72
-77
-89
-83
-79
-85
-83
-80
-82
-81
-86
-85
-83
-101
-100
-83
-93
-88
-85
-82
-89
-93
-87
-71
-82
-92
-83
-86
-104
-99
-95
-101
-97
-108
-97
-95
-86
-86
-75
-51
-34
-17
-11
1
14
24
3
-15
-43
-73
-107
-125
-120
-142
-133
-113
-117
-108
-106
-118
-110
-98
-100
-105
-98
-104
-106
-116
-110
-98
-105
-104
-118
-126
-102
-110
-114
-126
-123
-116
-108
-120
-107
-97
-108
-116
-113
-113
-129
-116
-105
-111
-108
-116
-118
-122
-110
-117
-128
-106
-107
-113
-114
-109
-110
-108
-111
-118
-118
-104
-110
-120
-118
-122
-109
-116
-107
-114
-116
-111
-117
-118
-102
-113
-109
-120
-112
-112
-102
-96
-114
-114
-105
-112
-95
-110
-105
-94
-103
-110
-109
-88
-102
-111
-117
-96
-91
-112
-120
-105
-105
-116
-103
-102
-117
-119
-116
-112
-112
-124
-125
-120
-126
-128
-122
-128
-134
-136
-147
-143
-130
-134
-139
-141
-146
-155
-150
-144
-154
-151
-157
-158
-160
-147
-155
-153
-157
-147
-166
-159
-158
-149
-161
-157
-163
-165
-173
-162
-157
-172
-156
-141
-164
-162
-158
-150
-165
-171
-160
-171
-163
-159
-159
-170
-159
-151
-159
-165
-163
-171
-177
-170
-166
-165
-166
-175
-168
-167
-166
-154
-160
-181
-166
-168
-171
-166
-163
-177
-168
-168
-175
-176
-166
-170
-177
-174
-175
-174
-177
-180
-177
-171
-167
-179
-183
-180
-177
-189
-181
-171
-160
-169
-172
-174
-192
-189
-183
-176
-179
-181
-183
-190
-180
-180
-175
-167
-175
-166
-170
-173
-168
-179
-172
-182
-180
-180
-185
-187
-192
-200
-196
-193
-193
-197
-196
-204
-210
-202
-215
-202
-202
-211
-216
-219
-224
-198
-194
-208
-204
-203
-202
-206
-211
-213
-211
-218
-226
-211
-205
-212
-212
-215
-215
-223
-225
-214
-199
-187
-162
-141
-110
-96
-83
-56
-35
-44
-80
-107
-143
-172
-207
-235
-248
-241
-228
-232
-230
-225
-225
-216
-217
-217
-216
-209
-219
-225
-219
-231
-217
-237
-241
-232
-218
-228
-226
-224
-225
-227
-229
-222
-219
-225
-223
-228
-225
-219
-220
-217
-221
-233
-234
-237
-220
-211
-218
-223
-221
-230
-235
-243
-223
-216
-234
-223
-223
-224
-227
-225
-230
-241
-227
-225
-217
-213
-223
-222
-221
-231
-223
-219
-219
-230
-221
-230
-217
-221
-231
-220
-221
-217
-218
-214
-208
-213
-210
-214
-209
-214
-200
-203
-223
-210
-207
-205
-203
-209
-214
-210
-225
-215
-213
-206
-208
-201
-221
-227
-213
-210
-221
-215
-213
-223
-218
-232
-243
-234
-244
-251
-245
-251
-243
-235
-231
-255
-259
-261
-252
-246
-252
-236
-242
-260
-255
-264
-259
-262
-259
-266
-259
-272
-266
-254
-249
-256
-260
-271
-262
-270
-267
-270
-261
-263
-253
-284
-262
-268
-268
-262
-275
-263
-269
-266
-266
-263
-274
-263
-268
-265
-259
-275
-269
-259
-254
-266
-277
-277
-264
-269
-266
-256
-260
-274
-276
-283
-278
-266
-269
-278
-282
-271
-268
-277
-274
-268
-262
-259
-276
-276
-268
-284
-293
-287
-281
-274
-274
-270
-265
-254
-247
-259
-270
-282
-280
-274
-265
-257
-262
-281
-250
-244
-242
-259
-287
-287
-280
-273
-266
-288
-286
-283
-273
-279
-293
-299
-276
-286
-282
-282
-291
-285
-291
-301
-297
-288
-271
-280
-300
-290
-295
-280
-284
-291
-282
-268
-279
-304
-288
-300
-284
-281
-276
-284
-287
-294
-288
-270
-258
-268
-245
-234
-219
-199
-199
-184
-182
-212
-229
-250
-258
-264
-299
-311
-324
-315
-310
-305
-299
-292
-298
-299
-301
-290
-278
-272
-282
-280
-283
-280
-279
-285
-285
-272
-278
-285
-289
-291
-288
-298
-285
-283
-284
-285
-281
-278
-282
-289
-295
-286
-281
-284
-286
-293
-288
-278
-275
-279
-293
-298
-281
-278
-276
-268
-287
-289
-282
-284
-287
-296
-291
-270
-279
-285
-285
-286
-286
-283
-277
-281
-287
-269
-282
-283
-270
-268
-270
-274
-276
-272
-273
-261
-261
-258
-267
-273
-261
-269
-266
-274
-275
-262
-264
-259
-257
-251
-259
-266
-260
-253
-270
-270
-269
-267
-256
-268
-274
-264
-280
-274
-269
-281
-274
-277
-283
-286
-292
-291
-292
-293
-313
-310
-296
-296
-297
-303
-318
-303
-307
-316
-320
-312
-311
-309
-321
-322
-316
-319
-321
-325
-309
-316
-321
-322
-319
-326
-326
-324
-315
-313
-320
-324
-318
-319
-326
-318
-325
-333
-317
-314
-314
-317
-324
-328
-325
-332
-320
-324
-320
-315
-318
-326
-324
-319
-309
-311
-305
-320
-317
-314
-315
-320
-317
-315
-314
-323
-322
-313
-316
-317
-318
-312
-306
-311
-315
-306
-305
-303
-299
-300
-311
-316
-308
-313
-306
-308
-308
-317
-308
-297
-305
-291
-291
-291
-292
-311
-296
-298
-300
-305
-307
-304
-314
-314
-315
-313
-316
-309
-313
-315
-316
-315
-318
-325
-313
-318
-311
-322
-318
-323
-324
-317
-317
-320
-318
-320
-317
-328
-321
-324
-326
-338
-331
-321
-323
-323
-322
-321
-329
-324
-316
-301
-289
-273
-257
-244
-213
-198
-196
-182
-194
-234
-268
-298
-319
-355
-365
-377
-354
-341
-341
-339
-321
-331
-337
-332
-324
-322
-323
-325
-335
-330
-325
-328
-329
-335
-328
-330
-333
-330
-330
-330
-332
-338
-339
-321
-331
-330
-340
-338
-319
-322
-331
-329
-333
-332
-328
-334
-330
-318
-326
-331
-319
-331
-340
-343
-335
-316
-326
-325
-334
-332
-332
-331
-333
-329
-334
-332
-329
-326
-322
-325
-324
-323
-317
-322
-319
-331
-324
-306
-315
-315
-303
-308
-303
-303
-309
-314
-310
-314
-313
-319
-314
-304
-306
-309
-295
-293
-299
-301
-311
-309
-320
-310
-307
-310
-311
-305
-310
-307
-298
-299
-305
-316
-325
-322
-316
-314
-338
-349
-344
-328
-330
-335
-349
-334
-339
-357
-356
-360
-355
-350
-353
-363
-363
-356
-340
-338
-359
-358
-368
-365
-369
-362
-351
-357
-367
-368
-358
-348
-365
-362
-364
-362
-369
-366
-353
-362
-372
-363
-349
-356
-360
-352
-357
-352
-347
-349
-349
-348
-356
-368
-360
-351
-356
-354
-359
-368
-357
-363
-349
-348
-353
-353
-354
-350
-345
-339
-339
-352
-355
-349
-356
-350
-344
-341
-333
-337
-343
-348
-326
-333
-342
-348
-339
-345
-347
-349
-350
-335
-332
-339
-338
-334
-336
-327
-342
-336
-345
-346
-341
-341
-358
-362
-352
-346
-345
-343
-347
-357
-338
-362
-358
-350
-356
-376
-357
-360
-347
-351
-359
-371
-358
-359
-361
-354
-348
-360
-359
-361
-356
-358
-358
-361
-353
-359
-360
-361
-354
-357
-356
-351
-386
-355
-346
-322
-308
-281
-271
-245
-232
-215
-210
-227
-252
-266
-288
-324
-351
-377
-401
-399
-381
-387
-389
-385
-376
-366
-356
-346
-348
-349
-359
-367
-372
-365
-353
-361
-366
-354
-342
-341
-351
-359
-358
-371
-360
-366
-356
-362
-357
-352
-357
-360
-347
-348
-370
-355
-356
-359
-356
-348
-340
-354
-357
-358
-342
-350
-351
-367
-355
-343
-339
-345
-364
-360
-363
-350
-339
-338
-351
-361
-350
-343
-342
-342
-351
-339
-339
-343
-346
-343
-347
-341
-337
-340
-339
-325
-322
-335
-334
-344
-336
-331
-328
-333
-337
-324
-329
-329
-323
-320
-330
-331
-329
-321
-329
-328
-324
-328
-331
-322
-324
-319
-318
-325
-337
-338
-350
-339
-337
-341
-352
-349
-357
-354
-356
-349
-356
-358
-355
-368
-364
-368
-358
-364
-360
-370
-357
-366
-373
-368
-380
-365
-361
-368
-362
-365
-372
-374
-364
-368
-364
-365
-355
-365
-358
-362
-378
-382
-374
-372
-372
-369
-366
-360
-368
-360
-362
-363
-371
-374
-369
-358
-352
-375
-363
-355
-362
-367
-370
-362
-362
-364
-369
-371
-372
-362
-362
-349
-359
-367
-378
-360
-357
-354
-358
-365
-360
-357
-353
-356
-352
-351
-348
-373
-366
-362
-355
-348
-354
-365
-358
-355
-354
-357
-361
-352
-349
-347
-348
-344
-363
-356
-346
-365
-363
-370
-375
-374
-380
-379
-385
-385
-369
-370
-361
-365
-369
-370
-374
-378
-378
-370
-376
-382
-379
-365
-367
-376
-376
-366
-371
-380
-398
-382
-381
-372
-380
-383
-377
-378
-379
-390
-382
-388
-369
-358
-332
-316
-300
-287
-266
-256
-244
-233
-251
-294
-304
-330
-356
-383
-410
-418
-407
-395
-387
-382
-388
-398
-391
-382
-380
-384
-380
-377
-378
-368
-369
-372
-370
-372
-373
-370
-366
-365
-365
-375
-373
-376
-384
-380
-380
-377
-377
-372
-364
-367
-379
-377
-383
-380
-382
-383
-376
-381
-365
-363
-381
-382
-372
-380
-386
-377
-373
-371
-373
-373
-379
-361
-377
-379
-370
-371
-376
-374
-377
-361
-354
-356
-382
-373
-368
-369
-373
-378
-362
-354
-348
-347
-365
-370
-358
-344
-338
-336
-342
-363
-356
-360
-353
-357
-344
-344
-336
-347
-355
-344
-337
-349
-345
-347
-354
-353
-352
-353
-360
-356
-354
-358
-358
-370
-369
-373
-359
-357
-371
-382
-382
-382
-384
-383
-391
-391
-386
-391
-385
-390
-390
-395
-382
-390
-394
-405
-395
-389
-395
-395
-389
-398
-395
-399
-401
-389
-388
-397
-391
-384
-384
-401
-394
-403
-392
-393
-398
-398
-396
-389
-400
-398
-397
-400
-392
-400
-400
-394
-392
-390
-398
-404
-400
-402
-393
-384
-392
-390
-420
-387
-403
-403
-399
-393
-392
-391
-386
-383
-389
-395
-403
-403
-396
-378
-379
-395
-390
-378
-388
-380
-394
-393
-396
-379
-383
-381
-385
-370
-384
-386
-384
-384
-413
-400
-394
-391
-389
-385
-384
-398
-399
-397
-409
-409
-414
-409
-415
-402
-400
-406
-405
-400
-397
-412
-412
-422
-415
-401
-410
-405
-417
-419
-416
-414
-417
-418
-408
-402
-418
-417
-412
-392
-395
-412
-401
-401
-405
-402
-404
-402
-406
-397
-404
-392
-369
-337
-321
-304
-281
-258
-251
-216
-199
-244
-277
-310
-348
-383
-422
-434
-427
-408
-410
-416
-419
-414
-411
-402
-384
-392
-395
-387
-396
-392
-395
-397
-403
-394
-399
-399
-393
-400
-394
-395
-400
-393
-392
-394
-392
-391
-405
-394
-397
-392
-398
-388
-392
-380
-382
-387
-381
-371
-374
-389
-390
-388
-377
-378
-386
-385
-372
-382
-368
-392
-386
-379
-366
-363
-375
-385
-383
-388
-364
-368
-365
-378
-359
-366
-373
-376
-365
-358
-373
-369
-369
-364
-359
-358
-361
-355
-353
-332
-351
-349
-349
-348
-345
-350
-353
-351
-353
-351
-351
-342
-329
-342
-354
-358
-350
-345
-348
-344
-348
-350
-351
-351
-357
-360
-364
-365
-363
-356
-369
-373
-367
-375
-369
-390
-378
-402
-387
-377
-386
-381
-378
-377
-384
-390
-387
-382
-379
-383
-380
-382
-384
-381
-383
-382
-374
-366
-374
-387
-388
-383
-385
-390
-396
-381
-376
-383
-390
-393
-388
-373
-379
-393
-386
-379
-394
-386
-382
-375
-380
-385
-372
-379
-382
-378
-382
-374
-381
-383
-385
-389
-373
-382
-376
-376
-382
-386
-393
-385
-375
-372
-379
-378
-388
-374
-383
-378
-379
-375
-389
-372
-367
-371
-370
-374
-385
-382
-370
-372
-365
-369
-378
-380
-371
-378
-371
-363
-361
-370
-354
-370
-363
-373
-384
-371
-358
-352
-352
-366
-369
-365
-370
-367
-361
-371
-377
-384
-374
-385
-381
-371
-371
-373
-367
-368
-374
-374
-384
-380
-384
-382
-384
-375
-379
-373
-379
-376
-377
-373
-381
-374
-373
-377
-388
-389
-385
-380
-384
-377
-381
-371
-361
-365
-374
-379
-385
-373
-354
-355
-336
-308
-287
-276
-267
-259
-254
-259
-293
-312
-331
-351
-370
-388
-401
-403
-391
-391
-395
-377
-381
-379
-388
-385
-364
-367
-381
-380
-375
-385
-389
-379
-375
-372
-370
-375
-366
-373
-379
-371
-391
-387
-378
-376
-368
-369
-378
-381
-374
-366
-371
-374
-380
-381
-374
-373
-369
-371
-376
-372
-359
-376
-373
-375
-374
-376
-386
-375
-371
-364
-369
-383
-381
-372
-370
-361
-371
-371
-377
-368
-370
-367
-369
-364
-369
-367
-365
-369
-364
-351
-350
-352
-346
-349
-349
-352
-353
-347
-342
-345
-346
-353
-357
-358
-340
-350
-344
-330
-335
-335
-342
-343
-348
-342
-343
-348
-347
-348
-348
-354
-351
-370
-356
-357
-356
-362
-363
-364
-378
-370
-375
-389
-382
-377
-383
-384
-391
-379
-394
-393
-394
-394
-381
-392
-391
-391
-395
-394
-399
-395
-388
-387
-390
-397
-391
-387
-395
-391
-404
-400
-401
-400
-394
-394
-402
-395
-400
-398
-393
-390
-388
-399
-389
-393
-391
-384
-391
-405
-399
-383
-388
-386
-395
-395
-399
-407
-392
-405
-408
-388
-390
-400
-392
-387
-389
-398
-401
-391
-394
-386
-389
-389
-400
-395
-393
-379
-386
-384
-387
-396
-393
-392
-384
-386
-391
-389
-387
-390
-384
-378
-380
-388
-378
-381
-390
-387
-386
-368
-373
-377
-379
-377
-401
-389
-393
-397
-386
-388
-387
-395
-392
-396
-400
-406
-399
-393
-401
-401
-402
-401
-392
-389
-392
-397
-408
-396
-395
-396
-392
-396
-391
-389
-396
-392
-391
-391
-403
-401
-391
-393
-393
-405
-399
-403
-408
-406
-401
-406
-387
-385
-374
-354
-332
-312
-303
-294
-282
-266
-277
-303
-325
-349
-375
-390
-425
-426
-423
-404
-396
-397
-398
-387
-396
-398
-386
-389
-390
-387
-386
-379
-382
-392
-394
-396
-385
-391
-391
-384
-392
-394
-389
-381
-377
-380
-381
-382
-386
-387
-395
-395
-383
-375
-386
-386
-371
-381
-387
-388
-381
-385
-368
-381
-387
-382
-381
-378
-387
-387
-379
-377
-377
-377
-372
-380
-380
-372
-373
-371
-379
-368
-371
-374
-381
-375
-364
-373
-377
-366
-362
-372
-372
-369
-360
-359
-363
-359
-358
-366
-357
-354
-354
-356
-354
-347
-353
-353
-350
-353
-359
-361
-354
-355
-353
-338
-345
-357
-355
-346
-354
-365
-364
-371
-378
-369
-375
-377
-386
-375
-388
-387
-385
-390
-386
-396
-391
-398
-390
-393
-390
-398
-398
-403
-402
-402
-404
-400
-404
-397
-396
-393
-397
-404
-411
-398
-398
-401
-408
-406
-401
-402
-404
-404
-410
-412
-404
-409
-410
-411
-402
-408
-407
-409
-409
-409
-405
-406
-398
-405
-396
-402
-400
-398
-409
-404
-412
-409
-417
-418
-400
-397
-400
-405
-408
-402
-410
-403
-405
-399
-412
-406
-404
-406
-409
-409
-413
-407
-391
-397
-405
-402
-413
-405
-405
-408
-408
-400
-411
-405
-402
-388
-404
-408
-408
-413
-412
-409
-405
-394
-392
-406
-409
-407
-402
-403
-411
-403
-408
-401
-397
-401
-407
-406
-387
-393
-390
-396
-397
-405
-400
-397
-383
-384
-394
-382
-393
-391
-387
-389
-395
-405
-395
-400
-400
-405
-408
-415
-408
-417
-418
-412
-413
-422
-420
-414
-417
-418
-412
-420
-418
-422
-407
-408
-418
-417
-419
-417
-415
-408
-414
-413
-412
-418
-416
-417
-422
-416
-421
-409
-409
-425
-424
-423
-432
-427
-421
-411
-401
-374
-348
-336
-309
-283
-260
-251
-254
-258
-295
-325
-363
-392
-433
-459
-455
-436
-423
-433
-430
-414
-405
-409
-406
-410
-412
-419
-420
-420
-419
-423
-414
-423
-421
-415
-417
-418
-405
-413
-419
-415
-413
-415
-415
-426
-420
-410
-414
-417
-416
-405
-407
-405
-413
-412
-400
-400
-403
-410
-408
-411
-414
-400
-399
-402
-410
-417
-417
-412
-409
-412
-419
-413
-407
-395
-400
-406
-394
-398
-409
-404
-394
-382
-390
-391
-405
-407
-399
-403
-392
-381
-384
-379
-371
-380
-385
-383
-375
-384
-391
-388
-382
-380
-372
-376
-379
-366
-371
-361
-373
-374
-378
-376
-368
-375
-374
-369
-375
-370
-379
-386
-380
-376
-388
-390
-393
-386
-389
-397
-389
-389
-404
-414
-403
-413
-414
-409
-408
-407
-408
-426
-419
-419
-420
-413
-421
-425
-416
-417
-407
-415
-425
-424
-417
-416
-422
-421
-426
-417
-432
-412
-418
-423
-418
-415
-423
-427
-421
-425
-419
-426
-426
-426
-414
-425
-430
-421
-428
-420
-414
-417
-416
-424
-421
-422
-421
-423
-421
-419
-431
-411
-419
-411
-411
-422
-420
-421
-414
-405
-409
-411
-406
-413
-422
-412
-413
-419
-414
-418
-410
-408
-424
-419
-416
-417
-425
-424
-416
-419
-410
-409
-421
-425
-419
-409
-416
-411
-412
-413
-417
-419
-418
-407
-414
-417
-414
-417
-415
-411
-408
-417
-420
-417
-424
-416
-408
-408
-411
-406
-403
-410
-405
-406
-396
-415
-415
-409
-418
-398
-402
-413
-407
-420
-407
-403
-403
-402
-403
-395
-403
-404
-393
-389
-396
-405
-397
-399
-395
-391
-402
-405
-413
-415
-411
-402
-398
-416
-420
-399
-397
-402
-417
-413
-410
-417
-411
-408
-410
-411
-416
-405
-408
-402
-412
-414
-422
-418
-410
-404
-397
-402
-415
-419
-413
-400
-413
-414
-411
-422
-408
-408
-418
-413
-409
-412
-405
-405
-392
-365
-342
-336
-316
-303
-293
-271
-260
-279
-323
-342
-357
-388
-413
-437
-442
-431
-431
-427
-420
-415
-412
-413
-405
-409
-407
-406
-399
-398
-392
-405
-402
-407
-403
-404
-396
-405
-418
-409
-401
-390
-401
-403
-399
-389
-404
-401
-402
-408
-391
-401
-404
-396
-402
-394
-407
-404
-400
-391
-397
-394
-399
-400
-394
-397
-397
-398
-401
-389
-399
-395
-388
-395
-403
-384
-401
-394
-391
-392
-389
-390
-390
-387
-383
-382
-394
-389
-390
-392
-380
-384
-383
-381
-383
-380
-377
-380
-369
-365
-376
-385
-379
-371
-366
-365
-373
-375
-375
-375
-369
-363
-359
-371
-371
-365
-364
-374
-375
-379
-378
-373
-365
-380
-384
-391
-377
-387
-378
-395
-393
-397
-407
-393
-405
-411
-416
-422
-412
-408
-411
-412
-421
-423
-411
-414
-417
-415
-436
-424
-411
-420
-421
-431
-428
-415
-424
-421
-429
-433
-430
-432
-434
-424
-414
-429
-418
-418
-436
-439
-425
-418
-422
-427
-426
-427
-423
-429
-419
-419
-437
-427
-429
-415
-421
-417
-423
-427
-422
-413
-419
-427
-429
-428
-415
-427
-428
-417
-414
-421
-420
-422
-421
-428
-421
-415
-424
-425
-418
-415
-421
-424
-424
-423
-425
-429
-431
-427
-426
-431
-428
-420
-418
-424
-430
-435
-420
-420
-425
-422
-431
-423
-422
-426
-415
-421
-419
-422
-421
-419
-407
-411
-421
-421
-415
-408
-413
-405
-422
-424
-410
-408
-411
-406
-415
-415
-419
-423
-418
-409
-415
-429
-429
-430
-431
-433
-426
-429
-435
-443
-440
-436
-438
-431
-427
-429
-430
-436
-432
-430
-424
-426
-432
-455
-431
-431
-440
-427
-442
-437
-439
-442
-436
-437
-447
-436
-436
-430
-426
-423
-442
-455
-451
-448
-442
-446
-425
-403
-382
-366
-336
-322
-307
-284
-268
-277
-291
-332
-363
-385
-426
-465
-470
-458
-438
-443
-437
-447
-447
-437
-434
-429
-431
-424
-427
-429
-429
-435
-436
-426
-433
-426
-429
-430
-440
-441
-432
-422
-424
-424
-438
-426
-418
-422
-425
-435
-436
-431
-430
-421
-415
-424
-427
-419
-421
-412
-417
-414
-433
-429
-413
-429
-421
-410
-413
-423
-427
-412
-415
-427
-421
-416
-418
-414
-414
-406
-408
-412
-414
-413
-408
-408
-414
-404
-410
-399
-399
-400
-404
-400
-395
-402
-388
-389
-391
-391
-398
-395
-391
-391
-384
-378
-393
-389
-386
-386
-389
-391
-390
-393
-375
-379
-380
-375
-382
-388
-394
-389
-390
-393
-399
-396
-397
-401
-397
-400
-410
-408
-404
-412
-423
-419
-423
-422
-426
-423
-426
-435
-433
-427
-434
-424
-421
-423
-433
-436
-427
-434
-427
-422
-427
-430
-421
-422
-422
-428
-438
-426
-423
-427
-427
-421
-433
-429
-431
-426
-430
-431
-422
-423
-422
-426
-429
-424
-436
-433
-437
-436
-431
-435
-433
-424
-413
-426
-426
-430
-436
-426
-427
-425
-427
-406
-435
-432
-426
-413
-414
-426
-429
-417
-427
-427
-426
-416
-415
-425
-433
-428
-423
-424
-429
-421
-419
-423
-425
-428
-426
-443
-425
-416
-424
-428
-415
-418
-421
-423
-430
-425
-422
-416
-415
-419
-414
-421
-421
-422
-419
-415
-419
-418
-427
-423
-436
-416
-412
-420
-420
-412
-416
-416
-424
-421
-424
-420
-409
-418
-408
-407
-402
-412
-415
-403
-419
-417
-415
-420
-405
-426
-424
-417
-404
-413
-417
-418
-414
-398
-394
-412
-407
-408
-410
-405
-408
-410
-398
-408
-410
-413
-425
-417
-413
-425
-422
-420
-419
-426
-418
-419
-412
-406
-413
-421
-427
-429
-418
-415
-428
-422
-407
-411
-419
-414
-419
-421
-431
-420
-415
-419
-413
-418
-414
-415
-414
-411
-422
-419
-418
-418
-420
-419
-427
-427
-405
-373
-355
-343
-331
-304
-295
-282
-270
-298
-313
-337
-352
-387
-408
-442
-445
-437
-430
-422
-423
-427
-421
-415
-416
-408
-410
-413
-402
-410
-411
-410
-418
-410
-413
-411
-411
-406
-407
-415
-414
-408
-405
-412
-412
-407
-407
-400
-407
-408
-408
-417
-406
-403
-407
-405
-404
-406
-411
-408
-411
-404
-402
-414
-395
-396
-405
-406
-404
-399
-402
-408
-401
-406
-405
-401
-409
-409
-405
-391
-385
-388
-406
-399
-382
-398
-402
-411
-401
-392
-384
-384
-386
-411
-404
-375
-362
-372
-381
-374
-360
-366
-379
-367
-374
-377
-376
-374
-373
-374
-378
-365
-375
-373
-359
-357
-363
-375
-368
-368
-371
-378
-375
-374
-376
-383
-382
-385
-395
-391
-388
-407
-400
-402
-406
-405
-413
-406
-402
-409
-413
-415
-418
-417
-411
-413
-411
-418
-414
-423
-424
-409
-407
-415
-424
-424
-426
-432
-428
-417
-414
-428
-422
-421
-429
-412
-420
-426
-432
-418
-419
-417
-419
-423
-420
-420
-416
-418
-416
-414
-405
-423
-417
-415
-413
-408
-412
-416
-425
-421
-414
-417
-413
-410
-410
-412
-424
-418
-414
-411
-419
-424
-431
-408
-407
-411
-415
-420
-413
-422
-419
-421
-427
-417
-407
-408
-410
-422
-428
-424
-433
-417
-420
-417
-419
-414
-426
-421
-421
-422
-426
-423
-420
-418
-420
-422
-419
-415
-430
-421
-408
-413
-413
-410
-417
-422
-422
-406
-407
-403
-407
-415
-407
-402
-413
-417
-401
-408
-400
-400
-403
-407
-410
-407
-405
-418
-429
-421
-426
-432
-429
-422
-425
-424
-422
-419
-418
-418
-430
-423
-417
-415
-419
-426
-430
-427
-421
-427
-428
-430
-429
-423
-418
-430
-426
-422
-420
-428
-431
-430
-432
-429
-427
-424
-421
-435
-427
-423
-425
-420
-425
-420
-407
-373
-354
-335
-314
-283
-279
-270
-271
-294
-313
-340
-377
-411
-435
-460
-454
-448
-439
-427
-422
-432
-416
-423
-429
-424
-413
-420
-427
-428
-425
-411
-413
-414
-424
-413
-426
-409
-417
-420
-420
-417
-420
-413
-408
-414
-414
-417
-418
-420
-415
-422
-417
-407
-414
-423
-418
-409
-413
-410
-404
-414
-408
-417
-405
-422
-419
-407
-408
-400
-407
-404
-406
-407
-402
-410
-396
-401
-408
-408
-408
-405
-401
-396
-403
-396
-399
-402
-394
-400
-385
-393
-390
-384
-387
-375
-386
-387
-397
-397
-385
-381
-376
-371
-370
-382
-383
-377
-371
-371
-383
-375
-371
-378
-378
-369
-371
-373
-382
-382
-382
-373
-387
-388
-385
-392
-393
-389
-395
-409
-400
-408
-418
-413
-418
-416
-406
-411
-423
-419
-421
-424
-416
-418
-425
-421
-420
-421
-421
-429
-423
-418
-425
-433
-424
-425
-433
-433
-416
-417
-420
-430
-425
-424
-427
-428
-427
-413
-420
-434
-420
-421
-422
-432
-434
-426
-427
-415
-417
-419
-423
-435
-428
-428
-425
-425
-417
-425
-418
-418
-422
-432
-429
-422
-418
-416
-422
-420
-428
-423
-423
-428
-416
-419
-425
-414
-431
-424
-420
-411
-418
-421
-418
-412
-419
-422
-416
-425
-425
-425
-415
-416
-429
-423
-422
-423
-427
-432
-425
-413
-414
-421
-419
-429
-421
-415
-413
-417
-430
-425
-421
-425
-416
-426
-419
-413
-423
-430
-424
-422
-422
-419
-423
-431
-426
-420
-421
-422
-421
-422
-421
-417
-418
-421
-419
-432
-419
-416
-420
-418
-430
-427
-424
-417
-413
-426
-416
-421
-417
-415
-417
-419
-417
-424
-419
-418
-414
-427
-418
-407
-405
-411
-417
-406
-415
-427
-414
-411
-419
-393
-403
-400
-397
-403
-404
-401
-399
-405
-401
-394
-403
-411
-398
-402
-404
-405
-411
-412
-412
-406
-408
-419
-417
-413
-417
-420
-421
-428
-425
-412
-422
-414
-412
-413
-423
-413
-421
-424
-417
-411
-420
-418
-418
-411
-421
-426
-421
-419
-415
-423
-422
-417
-432
-417
-421
-423
-426
-421
-419
-422
-411
-399
-379
-361
-331
-309
-283
-268
-255
-228
-235
-268
-307
-344
-373
-413
-461
-467
-445
-428
-439
-422
-425
-422
-407
-407
-410
-405
-406
-422
-412
-406
-412
-412
-406
-406
-401
-409
-413
-415
-415
-402
-403
-406
-410
-404
-401
-404
-404
-402
-402
-400
-405
-409
-409
-404
-385
-395
-397
-398
-405
-404
-405
-402
-401
-401
-401
-399
-399
-390
-395
-398
-392
-386
-395
-390
-390
-389
-391
-380
-380
-399
-393
-397
-390
-380
-383
-381
-381
-373
-385
-379
-374
-375
-379
-383
-375
-372
-381
-372
-370
-366
-368
-358
-355
-364
-363
-366
-357
-356
-359
-356
-356
-364
-357
-350
-362
-353
-357
-351
-355
-367
-363
-359
-360
-363
-362
-368
-380
-379
-378
-370
-378
-381
-377
-379
-387
-394
-395
-398
-397
-391
-396
-402
-405
-400
-399
-403
-402
-402
-408
-413
-412
-406
-409
-403
-409
-409
-408
-409
-404
-411
-403
-401
-394
-413
-417
-404
-410
-408
-409
-411
-409
-407
-397
-395
-412
-418
-415
-406
-403
-404
-399
-405
-405
-411
-408
-418
-404
-392
-407
-405
-410
-408
-401
-399
-403
-400
-398
-397
-400
-405
-404
-399
-402
-408
-411
-402
-400
-392
-403
-401
-402
-405
-404
-398
-395
-396
-391
-406
-404
-398
-408
-402
-403
-397
-402
-399
-396
-393
-398
-399
-400
-400
-405
-404
-400
-408
-401
-404
-404
-416
-406
-394
-396
-401
-393
-398
-396
-398
-406
-402
-395
-398
-398
-403
-396
-412
-406
-400
-405
-404
-400
-391
-389
-395
-402
-405
-392
-396
-395
-407
-404
-399
-397
-392
-398
-395
-397
-402
-392
-390
-405
