13
-10
-6
0
8
10
6
2
6
-5
2
5
1
0
-1
21
25
8
9
-3
-7
-2
-4
12
18
20
7
15
17
5
4
11
-3
-3
11
9
11
8
13
1
4
10
9
0
7
15
17
3
6
-2
-11
-3
19
8
15
15
4
-7
2
16
-2
1
1
2
10
14
10
0
6
14
8
-2
-4
4
3
14
12
7
3
6
7
-4
4
9
2
3
14
8
19
2
5
6
4
13
18
20
14
26
24
18
26
16
9
14
22
28
24
17
16
3
-1
-3
-6
-6
-1
19
13
5
2
-7
10
-6
-1
0
8
22
12
12
1
10
12
-8
-14
-2
7
13
8
4
-5
-5
-1
2
-1
-3
3
14
9
-4
-11
0
-30
-14
4
19
29
59
85
116
122
122
124
97
73
76
63
30
0
-38
-58
-56
-34
-25
-12
-16
-14
3
19
9
5
4
-3
-13
2
10
8
3
0
3
-3
-4
4
0
-5
10
-10
8
11
11
-2
-3
1
-6
1
-10
4
13
17
18
7
-4
3
-7
12
4
13
11
12
6
0
1
3
6
12
20
16
-2
-3
2
8
11
-4
5
7
13
24
14
10
12
16
12
-4
1
15
17
3
33
23
19
20
15
14
18
20
25
34
33
18
15
22
29
28
25
27
27
41
39
40
39
40
33
45
29
52
41
50
45
49
39
43
45
43
44
51
51
58
45
40
45
40
47
63
24
24
33
35
38
28
14
22
18
13
17
19
11
15
35
31
6
2
11
-3
-1
5
13
13
8
9
3
-1
-9
-4
-6
9
10
22
9
8
3
4
-5
-5
0
2
7
4
0
-4
-2
1
-3
2
5
3
10
15
7
14
2
-9
-1
-9
3
5
5
0
0
5
5
1
-9
2
7
11
9
17
16
-1
3
-3
0
-2
-2
2
2
9
3
3
0
-6
1
0
-3
9
12
3
2
10
4
7
13
-1
-3
1
1
7
6
4
3
-2
-6
-2
2
9
2
2
10
16
8
5
-7
1
15
10
26
22
13
11
12
7
8
12
17
20
19
21
12
4
9
0
-13
-2
7
1
8
8
11
15
21
-8
-26
-19
-14
15
13
4
2
-1
-1
-1
-12
-7
-1
4
18
10
-3
-4
-8
-6
-10
-5
-2
1
-2
-4
-1
-14
-23
-23
-28
-15
3
24
39
69
112
112
130
138
125
103
78
83
66
34
-3
-47
-64
-53
-35
-19
-17
1
6
2
16
3
12
-10
-20
-13
1
3
-1
-6
-2
-4
-2
-27
-20
1
-2
9
-6
10
7
0
-5
-8
-8
-7
-6
9
0
-3
-5
-10
-4
-13
-6
2
1
-6
11
5
5
-6
-8
-7
-8
0
9
10
4
-3
2
-4
1
0
0
-4
14
11
2
1
14
6
-4
-1
14
2
3
11
14
14
9
5
4
-4
7
10
25
29
33
22
22
9
16
12
12
15
35
29
26
17
24
35
26
28
33
36
42
45
43
43
40
40
33
30
39
42
42
44
44
47
38
37
37
43
27
37
34
28
33
16
14
15
5
6
13
14
13
12
9
14
3
5
0
-5
-7
10
12
12
-1
1
3
-3
-7
-8
-5
-3
7
5
-1
-3
-1
-1
-9
-5
-5
3
4
-1
6
2
2
2
-13
-12
0
4
12
3
-2
1
0
-8
-3
-8
6
21
27
-7
-4
-5
-2
0
-10
-7
-3
7
3
0
1
0
-5
-15
-4
-14
9
7
11
-1
5
7
-4
-3
-7
-4
-1
1
12
1
-5
1
-3
-2
3
12
-12
4
3
-8
9
10
-10
-4
-2
-3
3
-1
14
4
2
5
9
8
8
12
5
13
24
7
20
11
10
10
1
13
16
17
17
12
11
4
-8
1
6
13
-6
13
-5
-6
0
-5
-10
-4
-12
-11
-2
3
-1
-7
1
-2
6
-14
-4
-11
-2
4
-3
-1
-5
-11
-16
-8
-16
-10
-8
1
-7
-13
-21
-14
-19
-13
4
18
53
94
119
141
140
144
116
88
78
63
46
13
-24
-47
-42
-29
-20
-14
-10
-5
-2
15
2
0
-13
-5
-9
-11
-9
2
-9
-1
-4
-4
-8
-10
-12
-14
-11
-6
-3
1
1
-1
2
-2
-11
-15
-9
2
-1
2
-7
-4
-2
-7
-9
-8
-7
3
5
8
6
-1
-7
-10
-4
-11
-3
3
8
1
6
-1
-2
-1
-9
-11
-13
11
15
5
2
8
-4
8
6
-3
0
-3
16
13
10
11
15
-1
4
5
7
16
18
29
17
20
17
14
20
22
16
29
30
25
25
32
37
29
34
39
30
28
32
54
39
49
30
29
36
38
34
41
41
39
39
36
31
25
26
18
7
18
30
29
19
15
11
10
-2
5
-4
9
11
11
6
0
-9
0
-1
5
13
4
9
-4
1
-4
0
-5
-8
-11
-7
6
5
1
3
8
-6
-3
-5
-3
1
-6
3
3
-4
-7
2
-4
-4
-9
2
12
11
-2
1
5
1
-14
-6
-7
-6
1
3
-2
8
2
-2
-6
-7
-6
-2
-1
8
1
7
4
-1
-5
-12
-19
-2
-1
14
10
3
7
-6
-1
-20
-12
14
7
5
10
4
-1
-6
2
-8
-9
1
9
11
-8
7
10
2
-3
-3
-3
0
7
9
7
6
8
6
6
-1
8
12
13
21
18
21
16
11
13
1
5
3
16
18
9
7
-5
-2
1
-5
-4
-1
5
15
1
-9
-8
-8
0
-5
0
8
4
0
-3
-6
-5
-6
-6
-10
-4
3
-2
-3
0
-3
-1
-8
-6
-10
-8
6
-3
-14
-21
-20
-17
-6
5
32
55
101
122
136
148
144
116
88
77
49
29
0
-34
-40
-35
-17
-32
-13
0
-12
1
-4
13
9
-1
-6
-8
-12
-11
-8
-14
3
12
3
-4
-11
-3
-10
-9
-9
-5
6
9
6
-5
-11
-6
-4
-15
-10
-4
3
2
4
-4
-3
-2
-10
-10
-3
4
6
15
2
4
9
2
-9
-3
-6
-5
5
12
-1
-4
3
4
8
-7
4
12
13
9
14
14
7
6
6
-7
3
8
19
14
13
12
6
-4
20
10
4
24
30
41
25
22
18
20
13
18
25
33
39
36
34
37
37
29
38
34
39
40
45
36
40
52
48
39
24
34
44
39
39
36
40
40
31
30
25
24
27
27
21
26
6
11
12
13
5
10
5
13
13
15
7
17
-1
-2
0
-4
4
4
5
5
9
9
-1
-9
-8
-13
4
9
13
9
4
9
-1
5
-1
-3
12
-2
5
12
11
5
5
0
-4
-5
-1
7
12
7
10
3
0
11
-9
-7
-1
13
5
8
12
1
8
-3
-3
17
0
2
11
8
5
9
7
-1
-1
-4
8
9
14
11
7
1
-5
-5
7
6
14
11
17
1
12
7
10
4
-2
2
5
14
10
7
8
8
4
3
-3
1
13
26
37
6
4
4
5
1
0
4
10
10
9
10
12
10
4
1
6
2
23
21
15
15
13
15
14
18
8
10
16
32
27
26
18
24
18
15
14
15
21
22
21
9
2
-3
3
3
-7
-3
13
9
12
7
-9
12
8
6
-3
-8
24
20
5
4
11
10
-3
-11
-5
-5
7
12
9
10
8
2
-1
-15
-10
-10
-7
-13
-12
5
15
29
60
82
117
138
159
156
138
122
102
76
54
33
-20
-37
-36
-11
-7
-4
0
-1
5
3
-3
8
5
8
10
14
7
6
-5
-2
-11
4
12
14
6
11
-2
-10
-24
2
7
-4
12
24
15
22
8
5
10
-9
8
13
10
7
11
8
7
3
6
1
1
11
11
17
14
9
11
9
3
3
3
14
10
16
24
13
13
10
19
11
3
14
22
23
19
20
14
17
13
11
17
24
33
32
42
14
23
13
10
26
27
31
23
26
32
44
35
39
28
25
36
43
46
55
52
46
42
43
41
42
44
58
63
61
60
50
54
48
37
34
45
52
58
42
46
45
35
48
23
27
32
29
32
45
26
19
22
26
5
7
17
13
22
17
21
19
15
5
8
16
12
10
16
16
19
14
3
-6
12
8
0
15
34
22
14
6
7
13
5
27
5
17
22
17
12
23
13
9
-1
10
10
17
18
21
18
4
15
14
8
1
19
24
11
17
15
11
20
14
2
8
16
19
24
19
15
14
14
8
7
5
14
32
14
12
15
16
17
4
9
13
18
22
29
32
17
10
18
6
4
25
2
3
16
30
26
16
17
12
8
14
24
22
24
22
15
13
10
8
14
7
21
25
15
11
21
18
24
16
3
7
5
24
22
23
18
10
18
6
16
21
16
27
40
8
16
21
18
9
6
16
24
16
21
22
15
23
12
9
19
27
18
32
34
17
11
16
34
27
13
32
33
42
32
21
35
36
24
36
19
31
35
43
22
24
23
15
11
11
16
16
1
21
28
19
14
15
17
1
9
18
21
21
10
8
14
-2
16
24
9
13
27
37
15
21
15
14
7
2
20
11
12
13
21
9
8
2
17
15
46
77
106
122
154
171
161
135
105
67
71
54
34
-14
-30
-24
-13
5
2
5
16
27
27
17
23
26
21
17
13
9
7
23
23
35
13
15
10
10
10
9
13
23
23
21
9
9
8
22
15
12
22
12
22
17
31
30
9
14
10
15
18
14
28
29
25
24
20
10
15
9
27
43
40
25
26
27
26
22
23
26
24
27
32
29
30
29
36
23
27
38
37
30
25
32
37
48
19
29
37
35
45
52
48
44
49
41
54
30
30
51
61
60
47
51
60
58
57
59
55
53
56
71
92
81
60
53
58
55
57
63
72
77
74
72
65
52
50
49
44
50
55
52
57
38
34
57
47
40
29
21
23
45
44
44
37
13
19
22
20
25
27
34
22
19
24
32
18
24
24
26
24
34
30
27
16
18
18
11
12
17
30
44
41
14
20
19
18
22
21
6
18
33
41
32
20
31
26
11
20
22
26
29
7
34
32
36
28
19
21
18
21
31
26
25
26
22
27
22
17
26
28
35
25
18
24
27
11
9
26
26
23
28
16
22
42
21
12
28
20
35
30
44
45
16
21
18
10
11
17
25
29
33
29
27
24
29
17
9
9
33
31
28
27
24
18
15
10
19
13
35
34
49
26
16
9
23
33
9
18
26
25
35
32
33
19
15
23
20
23
27
31
27
25
24
28
20
14
30
22
31
51
49
52
32
34
36
27
25
28
36
34
37
49
35
29
29
18
-3
17
19
39
32
19
13
20
21
29
21
19
28
26
32
20
24
10
33
27
2
1
9
31
31
19
25
30
18
8
16
22
27
32
18
26
18
24
6
-10
-10
5
21
41
59
83
93
128
150
153
147
125
92
101
87
55
17
-16
-28
-48
-31
-3
14
18
21
26
25
15
16
6
2
13
15
17
12
30
20
25
19
12
10
18
24
21
32
17
17
0
26
5
15
10
26
35
17
22
23
24
9
-3
19
28
24
30
27
19
20
21
24
18
13
19
20
27
44
32
27
13
18
18
26
22
26
27
39
29
6
29
16
3
26
41
43
36
47
49
27
28
31
26
29
34
43
40
43
42
49
23
35
43
35
31
50
62
52
50
45
49
44
41
53
51
56
75
77
53
45
31
48
65
63
70
68
66
60
56
50
53
60
60
50
49
49
38
38
44
32
24
39
32
37
33
30
35
21
25
26
19
26
24
35
25
23
20
17
21
16
7
20
24
28
21
26
26
22
-10
10
9
16
34
29
24
24
23
12
18
15
15
17
25
23
19
22
17
27
36
18
13
13
8
27
31
23
15
19
17
13
15
20
26
27
19
24
12
20
14
22
18
17
28
30
17
23
19
17
18
15
15
24
25
29
20
21
18
21
16
3
2
5
34
66
23
9
23
19
14
5
16
18
13
26
25
22
17
17
9
17
17
25
26
17
23
14
19
14
12
1
17
31
26
20
24
21
24
21
22
22
31
34
19
25
29
15
34
26
24
24
24
35
36
33
35
33
20
31
28
24
0
24
34
17
18
28
16
15
11
13
17
18
18
20
15
14
14
11
10
7
21
29
17
12
12
12
12
11
2
10
16
18
26
17
13
23
22
5
-2
0
8
2
-6
9
28
24
41
75
107
150
136
152
141
125
83
83
65
29
-7
-29
-34
-33
-12
5
11
11
17
12
11
8
13
15
21
17
13
13
19
7
-2
9
16
19
20
17
5
3
14
8
9
7
22
22
19
18
34
12
2
10
12
11
18
25
14
17
19
12
16
10
10
17
22
28
30
29
15
24
8
3
10
13
14
16
22
24
20
14
22
14
17
23
21
34
28
30
23
26
14
22
25
17
20
32
34
54
41
24
27
27
10
33
40
53
51
48
48
44
38
26
29
41
49
49
53
55
52
49
52
48
45
56
62
60
52
61
53
56
58
46
40
51
49
63
55
45
44
43
40
26
24
32
37
35
35
36
28
13
25
16
25
26
31
18
21
25
-8
13
19
15
20
16
17
32
27
26
10
11
4
3
15
12
15
32
18
21
17
9
14
5
9
15
11
15
20
21
10
10
14
12
13
13
22
24
15
17
7
7
5
9
12
22
26
28
13
3
21
13
12
9
9
19
25
24
25
18
16
14
8
9
11
21
33
30
14
21
7
23
7
10
16
15
1
23
23
16
13
9
11
9
8
19
28
26
22
12
11
14
3
7
12
18
20
17
16
23
16
9
2
8
10
10
29
20
24
19
10
9
9
10
13
19
24
14
17
8
7
5
2
7
15
31
26
20
16
12
8
16
5
12
19
17
22
28
12
12
10
12
6
10
20
16
25
16
17
18
14
9
15
15
21
22
34
19
21
30
23
23
23
17
23
25
29
32
21
28
25
20
13
25
29
26
24
15
23
1
9
6
4
2
15
16
12
13
9
-1
7
8
9
17
19
16
15
17
15
8
6
2
-3
3
11
21
11
14
3
10
-1
-12
-22
-14
-9
25
29
41
56
86
115
131
149
159
134
120
94
80
56
37
1
-33
-17
8
-2
-4
10
10
0
-2
-1
7
-5
11
12
19
16
9
19
14
-9
-11
3
8
21
14
5
12
-1
12
7
-7
-2
12
15
21
12
16
7
3
13
-2
1
11
14
17
2
11
24
14
8
5
1
7
11
14
17
15
-2
16
13
15
8
14
19
12
18
19
16
2
15
-3
8
22
24
21
16
28
26
18
14
10
8
25
25
20
26
20
21
26
25
19
24
35
32
45
38
37
36
37
32
32
38
42
52
51
45
45
38
46
47
42
54
56
60
56
53
45
50
50
44
38
46
49
55
47
47
42
44
27
19
21
24
21
33
28
13
27
19
20
18
16
25
11
21
21
12
14
18
11
4
6
18
15
24
16
9
7
22
11
3
1
10
10
18
14
25
16
7
7
-2
6
6
10
9
8
13
19
8
13
2
13
9
12
21
21
9
0
-11
5
0
2
24
20
20
15
15
8
7
-1
3
9
11
18
21
17
9
12
7
11
9
11
10
21
24
11
23
10
9
12
2
15
27
17
19
4
16
17
4
15
4
-3
4
22
27
16
10
8
11
15
10
7
14
17
17
14
14
5
5
9
-1
4
20
20
12
23
18
10
10
15
8
10
16
27
15
5
4
8
22
7
12
12
20
25
16
17
20
18
17
9
27
3
7
16
13
8
20
11
11
8
6
12
15
20
18
11
19
12
0
4
13
23
39
21
7
12
14
11
14
8
11
14
20
23
19
24
16
30
22
13
20
21
25
35
31
30
25
22
23
14
17
41
51
31
23
19
13
9
11
6
7
8
2
26
21
13
12
13
9
8
9
14
19
20
24
20
8
19
13
-4
8
10
14
15
17
14
11
13
10
3
5
8
6
0
-8
-1
1
11
24
47
75
99
145
165
189
145
130
89
73
65
48
21
-12
-31
-13
0
8
8
13
20
10
12
17
17
13
7
-7
17
16
7
12
13
17
18
18
15
11
10
8
8
13
16
18
18
1
21
26
19
11
14
8
11
14
20
23
16
21
11
8
7
13
17
26
16
20
29
11
22
16
13
14
22
29
27
20
20
20
19
13
1
19
28
36
29
22
21
20
17
28
24
12
22
44
33
29
30
28
31
24
21
27
42
47
48
40
41
46
41
30
43
42
50
54
52
51
51
50
44
40
44
60
64
67
70
54
63
53
67
76
40
57
66
52
58
46
45
58
53
42
46
41
46
59
52
35
31
16
35
31
28
33
35
37
29
22
28
20
14
16
18
23
26
27
26
32
20
14
30
17
11
19
37
24
23
23
20
21
11
10
21
21
32
29
31
22
16
25
10
2
24
23
28
32
23
24
23
18
14
21
22
27
40
19
22
19
26
20
17
15
22
17
29
29
24
21
16
24
14
26
38
22
31
30
27
27
24
17
10
21
27
28
33
29
25
28
15
20
35
49
-2
7
34
28
22
20
11
32
12
20
15
37
36
34
25
25
26
26
12
20
30
32
11
24
35
30
21
26
14
18
20
33
33
29
26
23
21
23
16
24
26
33
28
27
31
27
22
17
19
26
26
31
38
34
38
18
30
16
8
19
30
28
37
30
26
22
27
40
17
13
31
40
27
26
24
25
24
21
21
20
32
34
28
31
21
19
22
30
16
17
30
33
32
26
29
26
23
16
29
35
38
38
25
36
32
27
19
30
32
32
56
43
45
43
44
34
34
35
34
37
43
49
40
28
30
29
29
27
20
27
24
32
22
20
28
25
25
18
30
27
28
33
30
23
29
21
20
14
24
20
26
18
24
43
25
31
16
14
16
17
17
31
30
9
24
36
52
57
91
129
154
179
191
155
124
105
90
70
42
14
-16
-13
4
16
17
15
24
23
33
21
30
35
31
26
20
25
20
17
25
15
28
35
30
34
31
24
23
19
22
30
39
35
34
21
18
21
22
37
25
35
38
24
34
35
21
25
21
23
27
26
34
36
32
34
30
26
18
32
20
35
36
29
33
35
41
34
27
27
32
25
40
40
43
36
36
46
34
29
39
37
45
40
42
49
49
44
44
39
47
52
57
50
54
55
61
62
56
36
69
54
65
52
60
78
62
63
63
61
65
69
68
82
63
57
75
76
70
76
83
71
77
77
65
66
61
52
55
46
43
65
73
56
52
52
44
48
47
38
42
39
47
48
40
33
31
45
23
22
38
40
47
44
38
29
24
28
28
27
15
35
38
36
35
36
35
29
28
24
17
47
40
38
41
28
18
33
25
18
40
44
44
40
26
31
33
26
17
23
43
39
43
40
39
35
28
14
28
39
40
55
55
53
23
31
29
25
25
32
45
45
47
49
26
39
37
25
30
31
35
41
39
38
33
28
39
32
37
30
31
35
39
52
29
30
21
16
48
34
42
38
34
33
54
34
35
27
29
37
38
45
37
42
32
29
35
30
27
42
34
53
30
39
35
33
26
30
30
35
37
39
37
17
50
65
27
27
30
33
38
39
42
39
45
27
27
25
36
39
34
41
37
39
43
30
37
30
33
45
48
51
45
48
47
45
34
26
31
49
58
57
48
52
54
52
57
36
45
59
60
60
35
41
38
20
34
26
-6
3
48
68
53
44
34
36
35
30
33
38
44
42
35
35
31
33
28
31
25
37
45
48
33
37
42
19
20
27
32
35
32
26
13
28
36
36
45
63
101
135
164
173
165
154
101
109
95
68
34
17
-9
-27
-19
15
12
8
23
32
45
41
32
29
49
45
32
26
28
25
26
35
34
23
24
42
41
31
26
32
36
44
36
37
37
42
31
30
22
25
37
43
37
35
37
38
36
35
33
36
40
49
52
23
5
26
54
47
30
37
40
47
46
45
44
41
39
35
29
21
35
51
64
66
48
53
41
29
38
40
49
54
53
52
53
48
48
48
40
48
52
59
57
57
65
59
57
55
46
68
77
67
73
73
72
67
67
69
65
71
75
58
91
91
86
74
79
76
63
73
81
86
79
76
74
69
66
47
48
53
58
64
69
67
55
53
53
51
74
27
38
46
41
44
38
30
31
26
19
25
49
48
41
41
40
36
30
29
29
31
37
39
37
35
31
49
51
36
10
7
20
46
44
39
34
32
32
25
30
30
32
42
37
32
36
32
28
23
30
32
44
44
38
22
20
23
15
33
40
35
40
38
37
45
40
37
33
27
37
29
29
43
36
33
34
30
29
22
23
27
25
48
42
41
42
36
33
36
24
27
40
42
33
31
34
29
25
23
35
47
31
38
44
37
28
40
32
12
21
28
37
33
36
32
32
33
30
25
33
33
40
43
33
34
31
29
29
19
23
30
35
41
38
29
32
44
54
27
28
25
47
45
40
36
34
36
30
43
42
48
35
43
37
50
50
40
37
43
40
47
41
46
32
26
23
26
19
14
23
36
42
46
34
34
23
25
28
21
22
32
33
33
34
28
33
27
6
17
26
32
34
30
32
40
21
24
17
16
14
11
20
25
37
42
64
90
110
139
153
167
143
131
111
113
77
53
23
-10
-21
-22
17
29
24
32
29
36
24
26
30
36
43
29
33
22
18
0
13
27
31
33
35
36
25
27
26
30
14
13
24
51
29
31
27
35
18
31
12
29
35
41
34
26
33
29
22
25
25
24
26
39
48
43
41
37
30
31
18
22
25
31
40
23
22
21
27
41
26
32
39
47
43
33
41
34
35
41
42
22
48
51
45
41
36
48
51
39
40
41
39
57
50
44
50
51
46
44
53
57
51
57
59
65
65
65
59
57
66
58
61
71
63
62
65
63
60
53
56
61
61
61
51
62
62
45
42
34
53
57
60
49
40
40
30
36
38
26
23
22
32
45
37
34
37
25
26
10
19
23
36
39
37
35
27
19
28
15
14
22
41
35
27
20
21
29
9
23
23
34
39
29
30
24
26
26
12
13
21
30
40
27
20
25
27
18
24
18
20
31
29
29
23
28
30
22
35
13
8
22
25
43
31
25
22
26
19
13
28
24
37
26
30
24
29
23
26
17
26
21
33
36
28
23
26
25
16
21
30
37
19
19
30
23
23
24
17
12
25
24
32
28
22
22
19
12
15
15
25
31
34
37
33
35
13
18
7
16
24
33
27
26
23
23
19
24
10
17
27
33
30
23
23
23
22
23
6
15
15
23
42
15
24
18
29
20
19
17
26
17
37
34
30
23
20
25
14
29
23
26
37
35
32
31
34
23
25
24
30
50
41
33
36
30
31
28
22
29
32
28
31
28
19
27
19
17
17
5
14
29
27
18
17
23
16
21
18
16
20
32
32
17
12
9
11
-2
-1
23
32
26
32
19
28
21
17
7
-20
7
18
25
48
61
87
119
139
143
152
142
108
96
85
68
47
18
-21
-18
-2
3
3
18
17
14
19
21
7
13
7
17
15
22
13
22
23
21
15
19
4
15
15
26
14
19
14
14
14
9
7
15
12
23
16
14
19
4
25
21
7
12
22
25
23
21
20
13
20
5
3
12
16
29
22
23
31
37
20
-3
7
10
23
32
22
25
21
20
19
12
15
11
34
25
31
22
23
30
18
10
24
28
28
35
31
37
29
21
32
22
28
29
48
45
41
52
63
36
39
24
43
38
44
51
45
43
41
47
49
47
48
50
59
58
61
53
45
52
48
40
39
43
47
45
50
45
30
27
26
23
25
32
37
33
21
27
18
33
9
7
15
21
19
23
20
17
16
11
18
20
19
23
25
8
10
12
17
5
4
5
12
15
18
19
27
12
15
-1
11
7
-2
17
20
16
14
15
9
8
-12
-9
12
16
21
31
20
11
17
11
12
8
11
15
29
13
19
13
-1
6
10
13
12
21
21
17
17
13
9
11
-2
9
16
20
21
17
16
15
12
17
20
3
7
24
25
15
13
10
8
8
1
4
11
19
19
19
14
10
7
8
3
-8
6
17
22
21
22
17
8
6
-2
12
16
10
17
10
13
-6
0
26
-3
-6
17
23
18
19
16
9
8
7
13
11
8
16
16
8
11
9
9
-1
-2
5
14
16
18
12
14
13
4
3
3
-7
18
31
24
25
24
15
14
11
14
18
28
32
27
26
24
18
14
20
6
20
23
28
22
6
7
8
4
-5
10
0
16
14
-3
18
13
0
9
27
2
-16
7
20
17
5
16
2
-2
1
-4
-1
10
9
10
4
-1
-3
-7
-9
-18
-17
-8
1
12
33
46
73
104
122
140
154
144
128
102
79
58
32
5
-33
-44
-30
-3
12
-3
10
8
5
6
-5
0
3
8
11
5
9
12
4
-1
-5
0
11
3
7
9
13
9
6
11
-16
-15
0
10
22
14
11
10
0
-2
11
-1
2
18
25
17
9
5
4
2
-4
-1
12
15
24
25
9
20
-2
4
-6
-2
14
15
18
10
13
10
16
10
5
0
19
23
21
23
25
9
8
19
5
13
20
29
25
22
20
16
19
18
27
26
25
41
37
35
29
35
34
26
24
29
27
36
49
66
60
27
42
39
42
47
53
47
52
50
63
41
40
46
40
34
41
51
44
41
35
37
30
20
16
21
31
32
18
24
24
20
13
6
-5
10
18
18
8
14
10
5
7
2
-5
10
7
12
16
15
9
4
5
-7
4
9
15
13
8
10
6
13
-5
4
11
9
8
16
17
9
-1
6
9
-5
4
5
3
24
16
9
4
-2
-3
-3
10
6
10
17
11
6
3
10
8
-5
3
7
12
16
8
13
6
3
9
-5
9
5
18
15
14
6
5
-6
7
-4
-9
8
23
21
18
13
10
0
10
-5
8
15
22
6
22
8
-3
11
-7
-3
6
10
18
13
9
8
5
7
0
0
-14
-2
23
25
9
9
9
9
3
-2
5
15
13
13
11
7
2
9
-1
9
14
2
12
15
16
5
4
17
-7
-8
13
14
20
23
17
14
23
4
0
10
19
18
21
17
25
22
18
18
12
17
20
19
19
6
36
17
21
13
5
4
5
12
16
10
15
14
15
12
-7
-3
5
12
21
18
4
11
18
2
-6
4
3
5
12
14
11
4
1
6
-15
-2
9
10
19
7
2
-12
-17
-13
-11
1
25
50
76
111
134
140
149
149
124
85
84
72
44
12
-32
-39
-35
-24
-8
-3
6
13
7
5
-2
-1
14
9
5
7
11
5
18
21
18
-2
-4
-5
-1
5
10
24
8
7
10
1
4
3
-13
10
12
25
21
12
8
17
0
-7
-1
8
12
17
13
12
15
7
10
7
4
6
26
25
14
8
18
10
11
7
7
9
18
18
15
20
19
14
14
7
10
18
35
30
33
9
13
14
25
16
15
19
24
43
28
17
31
33
30
25
27
37
44
55
50
44
51
40
32
29
38
49
50
57
50
50
50
51
49
48
48
54
56
60
52
56
50
44
54
41
44
47
43
48
45
37
34
27
23
24
19
17
28
21
25
9
16
12
11
3
16
21
22
26
23
25
17
6
9
2
6
14
21
23
12
9
14
10
11
1
11
11
18
25
20
10
12
11
8
0
10
20
25
16
20
17
13
15
9
7
6
13
15
6
11
25
22
9
9
8
19
16
18
21
23
17
15
0
7
10
6
22
20
22
21
13
8
14
8
7
20
38
38
24
-1
12
11
20
-6
7
15
18
26
22
15
13
9
15
10
8
21
25
14
14
18
20
15
6
8
13
24
23
22
18
17
18
15
14
12
9
14
18
25
26
10
14
12
11
13
11
15
17
29
28
13
11
18
23
11
6
12
26
27
26
27
10
21
17
8
13
12
22
15
31
36
25
30
12
15
7
34
45
37
46
45
21
27
28
21
27
30
39
34
27
18
12
17
18
10
12
24
19
34
30
16
10
13
14
12
11
21
18
17
18
21
26
15
7
10
14
22
26
16
20
18
12
11
7
-6
8
12
8
10
-2
-6
2
35
44
66
102
133
152
174
164
142
107
99
77
61
28
-8
-23
-30
-13
12
2
14
10
3
10
21
24
24
22
17
17
16
7
19
39
10
17
13
16
23
16
10
11
17
23
14
23
24
23
15
28
26
11
12
10
25
23
16
30
32
18
8
12
16
32
27
34
25
11
14
19
25
22
11
26
30
32
19
22
27
30
27
22
22
24
37
34
32
36
29
27
31
21
28
41
35
42
46
31
31
37
37
32
29
41
38
51
58
84
48
33
35
39
54
53
69
57
68
59
56
58
66
48
53
53
77
72
62
70
61
65
56
43
59
72
69
74
58
67
56
55
48
46
44
46
55
45
49
40
39
34
26
31
34
29
39
35
39
39
33
24
19
21
25
35
35
32
34
17
28
21
21
18
17
25
35
34
39
32
17
14
12
13
19
27
40
33
32
24
27
21
14
21
30
36
24
30
25
27
26
18
15
33
14
13
45
38
32
31
29
23
27
14
15
41
44
31
35
34
24
16
10
34
28
28
47
30
26
30
23
27
26
20
26
24
24
19
25
38
28
28
27
26
18
33
39
29
32
25
22
23
25
28
7
20
43
39
33
25
26
22
18
23
28
25
38
40
33
17
19
23
20
23
15
39
35
29
28
30
25
24
23
23
34
34
24
25
43
35
34
30
31
37
44
48
27
44
44
37
31
29
32
33
29
37
36
31
26
27
21
16
18
21
25
34
28
25
16
22
27
21
18
35
29
28
35
29
14
25
14
4
3
32
33
29
38
20
25
6
8
11
18
22
15
18
28
26
31
43
66
97
126
151
165
164
139
113
98
74
50
5
-4
-22
-24
-16
1
12
21
20
40
37
6
15
29
41
26
19
13
14
27
7
26
29
24
27
19
27
23
15
15
16
19
27
34
32
25
25
21
18
24
11
10
24
39
36
32
30
19
22
19
18
22
30
36
33
25
36
26
28
27
20
27
26
38
35
44
18
42
33
26
31
31
34
47
36
41
31
32
31
25
34
36
39
51
47
42
43
42
31
40
38
41
49
52
60
58
48
52
54
49
50
54
60
60
65
68
66
47
66
65
54
64
71
75
72
69
73
61
59
59
64
59
58
73
68
61
58
50
49
46
46
60
44
47
47
50
42
31
30
28
18
32
40
44
38
24
23
29
20
19
10
9
35
40
24
30
35
31
12
12
12
20
30
26
37
25
24
23
17
19
6
28
35
24
29
33
24
19
21
4
17
13
25
30
35
33
20
24
23
28
12
24
36
28
19
19
27
26
20
16
21
24
34
31
26
25
26
28
13
15
19
22
31
36
33
22
19
19
23
9
16
16
17
29
27
32
20
21
21
17
21
24
30
28
28
28
16
24
13
13
16
26
29
20
19
26
23
24
16
24
29
33
37
41
44
34
30
32
26
34
34
33
37
24
35
35
37
39
26
9
24
26
30
27
29
29
16
15
14
11
15
19
28
29
16
13
-3
4
29
17
27
26
24
26
22
18
17
12
6
16
23
30
29
24
12
14
16
1
-7
-8
2
9
33
37
64
88
116
141
148
147
134
123
107
91
70
30
-6
-35
-45
-31
-6
13
17
37
19
13
9
21
2
3
10
19
11
8
18
28
12
15
11
13
15
25
25
19
24
17
15
9
13
5
10
16
18
20
25
24
6
13
15
15
21
23
19
24
20
20
21
10
15
22
18
30
27
20
20
21
19
12
15
12
24
32
33
23
28
22
15
22
17
26
28
34
36
35
27
28
26
23
24
27
40
43
41
29
26
13
38
30
36
42
43
48
56
55
50
47
54
37
33
37
43
67
60
64
62
60
58
58
48
60
60
68
63
61
56
59
62
40
46
47
50
58
49
46
38
35
35
27
28
32
35
38
37
33
20
20
18
11
16
23
30
22
21
24
20
15
14
14
12
22
16
16
16
21
13
11
6
14
9
17
25
27
20
8
9
10
16
0
11
15
20
15
23
26
18
15
11
4
10
15
22
26
22
16
15
9
15
11
16
18
22
20
27
14
12
11
12
11
14
19
28
26
20
21
14
16
7
16
20
24
14
21
14
19
17
13
10
9
3
17
20
16
19
9
20
37
29
-8
11
24
17
8
6
26
19
11
11
13
14
18
26
20
20
16
17
16
6
21
24
16
36
26
29
23
23
20
17
19
21
35
37
30
33
31
25
21
19
28
14
11
19
16
15
17
13
10
2
8
6
14
25
23
16
11
8
13
2
9
10
16
22
15
11
8
9
5
-2
0
11
4
27
40
14
8
1
-5
-11
-3
-15
-5
17
29
51
75
107
133
142
154
151
133
115
96
78
48
21
-19
-42
-33
-12
11
16
16
15
16
16
4
4
15
14
12
15
17
3
4
9
-1
5
8
19
13
12
28
7
8
12
5
3
9
15
17
17
10
7
2
9
-3
-6
11
27
16
22
10
23
18
-1
5
5
9
9
19
15
17
12
3
9
3
10
16
19
23
19
23
20
12
11
7
12
20
21
25
27
19
23
19
20
17
19
22
25
35
29
17
21
25
20
19
33
34
45
60
38
45
34
33
38
38
38
40
43
52
50
48
47
46
46
35
50
57
59
51
57
56
47
40
45
39
44
39
42
46
38
33
28
29
28
18
32
26
41
29
16
20
20
16
14
6
11
14
18
23
17
13
12
8
11
0
7
21
22
21
24
7
9
7
3
-3
5
13
18
15
11
7
5
10
2
3
8
10
12
19
17
9
15
3
1
1
4
11
14
11
11
14
8
1
2
6
15
29
36
3
10
9
7
-4
-7
1
6
-2
11
27
19
11
11
4
4
4
10
12
12
16
12
12
10
3
-2
5
9
9
22
15
8
8
12
4
3
3
4
14
11
9
13
15
21
7
-3
0
16
10
17
7
11
7
9
9
-2
1
6
14
21
16
11
12
10
10
1
1
7
19
27
24
24
18
-3
13
14
14
18
35
28
29
33
28
10
22
11
17
21
22
19
15
19
7
11
-1
0
7
6
14
6
13
15
6
4
4
-3
-3
9
14
11
2
13
-2
-4
-8
5
6
8
13
16
9
14
12
4
-3
-2
-7
0
-2
-2
-2
-3
5
13
35
70
91
129
148
147
150
139
111
88
68
50
27
-13
-34
-23
-13
-1
4
-3
-1
-9
6
19
15
14
21
-2
5
8
8
-1
-1
9
8
13
9
2
6
6
4
7
-1
9
13
9
13
5
8
6
4
-4
5
9
18
5
15
11
9
-2
-3
3
6
18
20
18
19
8
1
13
11
8
8
16
21
21
18
18
12
6
9
7
9
22
21
19
25
23
11
11
9
17
17
23
29
22
30
23
21
21
14
20
26
38
35
39
31
21
36
38
31
26
48
50
50
46
51
49
45
37
35
40
55
56
57
59
51
45
49
43
42
47
45
63
59
44
42
42
42
40
37
26
32
35
38
37
23
30
18
27
-4
-4
18
31
34
30
22
11
9
10
7
10
22
25
17
16
13
7
10
10
5
8
17
22
15
21
13
12
13
5
11
11
7
19
13
17
20
9
10
3
0
10
27
25
19
18
15
10
10
7
11
8
13
14
21
20
14
13
11
9
15
16
16
17
19
18
15
12
14
5
1
19
25
36
23
32
18
8
11
15
6
15
21
25
23
21
14
14
11
9
8
18
24
25
21
17
19
18
17
12
5
33
15
28
25
24
16
13
13
9
10
17
23
22
16
25
20
19
8
8
21
21
25
21
30
25
8
12
15
9
13
18
31
21
22
18
21
14
3
-3
7
18
35
35
41
33
17
16
12
9
23
29
31
30
28
25
15
3
31
33
31
34
43
47
39
35
48
24
22
27
29
28
27
25
15
18
20
19
12
14
21
20
25
26
25
21
22
31
48
-2
7
13
26
28
17
20
10
16
13
16
17
21
22
22
23
21
18
16
17
14
12
17
5
1
12
18
25
31
58
87
112
150
185
182
152
123
101
96
73
40
9
-14
-12
6
11
21
21
24
21
15
15
27
23
19
23
21
21
20
17
14
19
28
30
23
37
30
32
33
10
17
25
32
28
28
26
22
20
24
20
18
27
33
33
30
28
31
27
18
12
24
29
21
30
35
32
29
27
28
20
20
37
40
38
32
31
30
29
30
35
37
34
38
29
27
26
20
31
41
37
39
44
48
56
52
37
40
44
43
39
43
49
47
51
49
50
47
49
50
49
61
61
70
69
61
62
56
64
62
66
74
80
76
76
71
76
68
69
65
63
70
73
75
73
72
67
66
57
56
51
51
52
51
28
56
56
45
49
35
35
42
43
43
41
36
32
23
30
23
27
33
48
42
42
30
35
31
25
27
28
36
47
50
62
30
21
26
32
25
24
31
35
39
34
36
36
29
27
28
29
32
41
39
35
36
35
29
26
22
29
33
34
37
42
40
31
30
33
30
32
43
41
39
33
36
35
29
27
22
22
31
33
45
45
40
35
32
37
31
34
42
40
36
36
38
36
32
22
24
46
45
45
35
39
45
34
31
30
31
38
38
42
38
38
34
33
34
33
31
37
37
42
39
47
49
39
35
26
29
37
33
42
35
33
37
31
31
32
32
36
40
37
40
37
36
44
47
39
35
35
35
40
33
28
28
34
43
32
33
40
46
47
43
48
40
39
32
20
31
29
43
53
44
43
33
18
43
34
39
43
45
49
51
35
43
42
37
35
38
44
49
47
39
48
53
49
46
47
50
61
59
59
49
58
51
48
39
33
34
40
39
40
39
45
36
40
32
29
50
44
60
35
25
21
25
39
41
33
32
40
43
41
41
39
37
30
27
17
10
31
68
56
38
44
39
32
17
17
12
25
36
38
53
67
98
122
147
170
183
180
159
126
115
107
80
44
7
-8
-14
13
31
39
41
42
38
41
48
26
36
44
37
35
39
41
37
39
26
30
41
29
42
31
19
32
56
45
36
39
37
41
52
38
44
44
41
37
32
41
39
41
45
47
40
40
44
40
35
41
39
53
48
40
48
42
45
43
44
43
49
49
53
53
49
45
47
48
45
48
47
50
60
55
52
54
48
43
42
58
63
66
62
57
67
60
58
44
63
64
79
79
71
80
64
72
75
75
69
75
78
86
83
81
82
69
74
82
80
85
85
93
91
88
84
81
78
87
88
74
95
87
71
76
85
69
65
81
64
50
81
70
61
64
58
51
56
42
39
59
56
59
49
60
59
51
44
42
47
46
47
44
47
47
42
45
41
44
45
45
42
50
49
43
42
40
37
45
34
40
48
41
46
41
56
51
44
37
43
47
46
50
45
49
48
42
37
30
50
48
48
50
50
48
54
39
41
39
44
43
56
44
49
50
46
44
41
38
42
47
37
66
62
50
39
41
40
43
57
59
30
53
52
58
49
44
39
39
44
46
55
49
44
51
45
49
45
44
42
47
52
52
49
61
45
44
46
44
43
46
46
46
64
52
48
36
45
46
50
45
57
51
46
54
51
29
38
34
61
47
46
47
48
47
48
35
51
53
50
48
52
54
57
58
58
44
46
46
48
56
50
59
61
57
52
56
56
52
64
75
75
76
58
51
59
49
56
55
63
61
52
48
51
53
53
48
47
39
48
45
39
42
57
47
50
35
34
31
42
61
54
53
55
48
48
45
37
40
45
41
41
51
46
44
46
45
46
38
44
40
42
31
34
42
43
53
72
104
129
163
174
182
173
148
124
111
103
78
47
7
-7
3
13
28
29
41
48
46
47
46
49
49
49
44
41
40
40
43
45
45
44
53
45
44
40
37
31
35
47
52
44
50
53
46
41
45
45
42
54
52
46
46
45
46
49
48
46
43
52
53
46
49
58
48
46
45
48
67
56
57
63
44
45
57
47
42
59
53
54
62
47
47
53
54
56
55
55
57
54
51
50
67
64
58
64
69
62
68
79
72
57
64
64
68
76
69
74
77
87
82
79
74
85
84
79
79
83
83
94
95
88
87
91
83
82
81
86
90
86
88
84
83
79
76
75
73
73
75
70
69
70
83
65
59
54
54
55
52
57
50
54
50
53
44
42
42
44
36
42
40
59
50
52
54
39
39
44
52
47
42
44
38
34
38
40
47
37
39
54
48
44
45
46
46
47
43
43
42
45
46
45
43
41
40
38
38
48
45
49
40
49
46
38
40
46
45
46
46
47
48
50
46
33
38
43
42
45
46
47
45
42
44
44
39
42
45
46
43
42
43
48
45
40
40
44
39
44
43
50
50
50
43
39
37
35
44
42
36
37
50
46
39
37
36
35
43
42
46
45
47
56
39
36
21
37
45
49
46
44
42
46
41
49
37
39
37
39
42
37
49
43
40
39
38
41
39
46
43
48
46
46
37
37
43
37
40
43
45
42
44
46
42
42
41
41
37
39
48
39
39
50
51
42
41
43
47
49
53
50
40
56
51
41
47
54
52
53
65
63
55
50
45
42
41
38
37
43
43
41
43
39
34
41
34
31
35
40
41
40
41
44
37
37
34
34
36
42
41
39
44
40
33
29
32
37
36
41
42
35
30
29
18
4
12
38
39
53
76
95
128
163
166
175
180
159
127
111
99
72
51
7
-10
-6
13
20
33
47
36
41
42
42
40
37
37
31
31
32
39
33
37
31
38
32
28
28
33
37
40
38
37
34
29
29
32
40
31
34
31
37
36
39
33
35
31
36
37
29
33
37
33
36
31
39
36
34
34
35
48
40
34
37
30
35
39
30
28
43
49
46
36
42
43
33
38
41
45
49
38
37
49
45
43
44
40
49
48
52
50
55
53
46
47
53
52
58
56
57
58
65
55
64
64
62
62
75
74
70
67
72
68
75
70
67
76
73
77
77
75
74
76
70
70
68
65
61
58
54
58
51
60
59
58
56
56
54
51
44
47
43
37
36
36
37
41
36
35
38
32
36
36
34
27
35
31
34
36
36
36
34
32
33
30
35
30
33
44
36
32
32
27
33
31
27
31
35
35
33
29
32
28
25
25
30
37
32
36
28
30
35
26
26
15
24
28
32
34
41
35
32
33
29
25
28
31
27
42
42
32
32
28
32
29
26
24
30
31
36
25
36
31
34
29
22
28
35
35
32
28
30
31
32
31
26
26
29
39
39
34
27
24
30
24
26
32
30
33
29
30
29
25
25
24
33
28
29
29
26
27
33
31
20
28
30
28
29
31
26
25
27
30
15
23
38
40
32
29
35
43
26
27
27
27
29
32
26
31
32
31
25
28
27
24
25
31
29
29
30
28
29
29
29
24
27
32
23
30
24
29
27
33
29
27
27
37
26
38
30
38
27
28
30
39
34
32
32
37
37
38
41
44
35
39
45
46
47
32
37
41
35
24
21
25
35
24
27
27
26
29
17
26
27
26
26
30
29
14
10
22
35
24
23
24
28
25
23
26
21
31
31
16
17
26
21
21
19
8
13
9
5
17
26
37
63
90
122
150
166
172
167
137
107
96
87
65
27
-7
-20
-9
10
3
22
23
38
22
27
26
22
25
18
20
17
21
20
22
22
17
22
24
21
18
20
25
17
32
25
24
17
13
27
26
21
26
21
25
29
16
27
25
22
19
17
21
27
27
36
18
31
22
15
23
23
26
25
26
21
26
22
21
26
19
28
35
26
26
26
30
25
28
30
34
25
28
27
31
40
31
35
30
30
33
30
34
39
39
43
34
40
46
40
38
46
46
47
55
45
54
47
48
51
48
58
57
55
65
65
64
62
57
57
56
53
62
67
66
59
56
61
54
43
54
56
50
44
50
46
46
39
37
35
34
36
34
33
24
28
30
23
23
23
23
20
26
26
22
16
17
18
17
21
28
57
57
30
-17
-27
10
16
10
13
40
65
47
24
-21
-32
15
11
18
19
38
72
41
21
-33
-26
9
19
13
20
60
67
42
15
-34
-22
11
19
13
21
54
62
46
9
-31
-25
12
20
22
20
48
72
39
11
-33
-13
12
20
25
16
64
66
29
11
-37
-16
2
10
28
33
59
66
28
4
-42
-8
23
20
22
22
65
63
26
0
-38
-5
12
15
17
17
72
66
30
-1
-43
-3
14
20
23
9
61
60
31
-11
-36
6
16
20
16
17
67
64
27
-10
-34
2
19
18
11
19
74
67
20
-17
-41
0
12
20
14
14
75
64
22
-25
-43
10
4
14
25
33
71
45
12
-21
-41
3
17
17
22
29
69
52
21
-33
-41
6
14
17
16
31
76
50
20
-31
-43
13
19
20
20
38
76
44
18
-25
-34
16
19
32
29
56
80
56
27
-22
-18
16
22
28
32
56
74
37
4
-36
-27
10
19
19
18
56
68
32
5
-39
-27
5
5
19
18
55
65
36
-2
-37
-19
6
12
14
9
57
63
29
2
-45
-16
-1
10
8
-1
38
36
14
-10
-38
9
50
86
117
140
208
206
158
102
38
60
56
37
0
-26
18
33
4
-17
-47
-2
8
11
13
14
65
52
22
-12
-57
-12
10
13
7
6
59
56
15
-25
-61
-21
-7
23
29
15
55
58
22
-29
-50
-1
11
11
10
16
59
52
21
-28
-49
0
9
15
17
26
63
42
19
-32
-52
4
12
18
18
26
70
48
17
-34
-45
0
15
16
20
44
58
44
20
-25
-36
14
17
27
22
47
80
50
23
-25
-32
20
27
28
34
63
78
48
27
-15
-16
13
29
44
41
75
95
66
36
-5
7
39
47
51
56
86
104
69
42
0
11
45
50
50
48
86
98
63
39
5
15
37
40
34
33
50
47
33
30
19
22
25
20
23
13
13
12
17
15
18
17
7
14
10
6
11
12
13
12
12
8
10
11
8
5
5
9
6
13
9
13
15
3
6
-1
4
13
13
9
5
10
15
8
10
4
10
10
14
19
11
12
6
10
10
10
4
10
14
11
11
22
9
7
11
0
8
5
6
13
9
14
13
2
1
12
9
10
10
20
7
9
10
1
7
10
8
11
15
16
2
11
8
8
7
3
-5
-4
3
20
13
14
10
9
-8
-4
-4
5
1
18
25
15
8
4
3
7
11
11
4
12
8
9
12
-1
-1
8
9
11
8
12
9
15
9
4
2
11
11
3
-2
12
11
14
10
4
-4
5
-2
6
13
13
7
5
11
2
8
-3
5
9
4
7
13
18
7
8
7
7
10
15
13
8
16
19
22
15
11
15
18
7
-8
13
30
48
31
21
20
15
8
8
8
9
10
11
11
3
0
-8
-1
10
10
10
11
8
4
5
1
4
1
-1
9
11
7
3
2
3
2
2
4
6
12
8
9
9
-7
0
-7
-14
-21
2
8
16
41
65
90
116
140
140
134
120
89
90
75
45
0
-25
-47
-53
-40
-34
7
8
34
12
4
7
6
2
-5
3
16
11
11
5
5
-2
3
9
7
4
13
10
13
13
7
7
7
1
12
9
14
3
8
11
3
1
3
6
9
13
16
14
13
8
8
5
0
11
10
14
20
19
20
19
15
13
7
17
9
11
16
22
12
