73
94
98
95
85
65
44
41
44
56
79
98
100
101
88
65
47
42
49
65
85
98
100
97
84
62
47
44
48
62
86
97
103
99
87
61
47
44
51
60
89
99
103
98
84
59
48
44
49
63
89
101
104
98
84
58
46
43
50
64
91
101
103
97
83
54
45
46
52
67
93
99
105
97
84
57
47
45
51
65
94
104
106
98
83
55
48
47
56
71
97
103
107
95
79
55
47
46
56
75
101
106
108
98
81
59
52
53
67
85
111
116
114
101
83
55
50
48
61
79
100
103
100
90
70
49
44
45
57
77
98
103
103
91
71
49
45
43
57
79
98
103
100
88
67
48
43
46
59
81
98
101
100
85
61
44
39
45
62
86
113
128
141
150
146
149
163
188
217
242
234
213
186
154
105
64
32
9
5
30
43
45
40
31
12
4
7
17
38
70
84
93
89
79
56
47
46
52
67
93
104
107
99
85
60
53
49
59
71
99
109
111
102
89
64
54
54
62
78
105
110
114
104
89
62
55
54
64
81
107
114
115
107
92
65
58
58
71
86
111
120
123
111
96
70
65
65
76
96
122
128
130
121
103
80
77
77
92
113
138
144
143
133
116
97
92
96
106
128
151
155
154
142
121
103
100
101
114
133
151
155
151
137
112
91
83
83
94
112
125
125
119
102
77
57
50
51
63
85
97
100
93
80
55
40
36
38
51
75
88
91
88
72
46
31
30
35
49
76
84
88
84
68
40
30
28
34
48
74
85
87
79
65
40
28
27
33
48
73
85
85
77
65
37
27
26
34
48
76
84
85
78
63
36
28
26
35
50
77
84
87
77
63
36
28
27
37
54
81
85
87
76
62
36
29
28
39
56
80
84
86
77
60
35
29
28
39
58
81
87
88
74
55
31
28
28
40
56
81
86
86
72
53
31
25
26
38
60
80
85
83
71
51
32
26
27
39
61
79
83
79
68
46
28
24
26
40
63
78
83
79
69
45
29
23
28
41
63
78
83
79
65
41
29
27
28
42
67
76
82
76
62
38
27
23
28
41
69
79
82
76
63
38
26
25
31
42
71
80
87
79
65
37
27
24
32
48
78
88
93
87
74
47
39
34
40
52
76
85
89
76
59
32
23
19
28
44
70
79
81
72
58
31
24
22
31
48
74
80
79
71
54
30
23
20
31
50
73
81
81
69
52
27
22
21
33
51
73
78
80
74
71
59
67
89
121
161
201
227
241
228
185
136
109
89
78
73
63
36
20
6
-12
-30
-33
-26
-8
18
41
52
60
49
34
20
18
23
40
65
80
83
83
70
49
32
29
34
46
71
85
91
85
74
50
36
32
37
50
77
89
92
87
74
50
38
34
40
54
79
92
96
89
76
53
40
40
44
58
88
99
100
94
81
55
45
43
52
67
95
106
109
100
89
63
55
54
63
81
109
117
121
114
101
75
68
67
78
96
123
131
135
127
112
88
82
80
92
109
135
140
143
131
116
90
82
78
89
101
125
126
125
111
89
59
52
48
54
72
92
95
92
79
58
32
28
25
39
54
75
80
77
64
43
22
17
17
29
51
70
74
72
60
37
19
15
17
28
52
67
73
71
58
35
17
13
16
30
54
70
74
69
56
33
17
13
18
29
55
69
74
68
55
32
17
12
17
30
56
69
72
66
54
29
15
14
19
34
57
70
72
68
55
28
17
14
21
35
62
72
74
64
54
30
18
12
22
33
63
74
74
65
48
24
16
14
23
39
64
73
72
62
49
21
11
10
21
35
63
68
69
61
45
20
13
10
22
36
63
68
69
57
40
15
9
9
19
38
62
66
67
56
39
14
7
8
18
38
62
65
65
54
35
11
7
4
19
39
59
63
63
50
32
10
5
5
19
41
61
64
62
50
28
10
4
7
20
39
57
65
59
48
26
9
7
10
21
44
59
65
66
55
33
17
14
19
31
54
64
67
61
48
24
8
2
5
19
46
56
58
51
38
13
3
1
4
21
47
57
59
53
38
12
0
-2
6
21
44
57
58
50
35
8
-1
-3
5
17
45
53
53
45
31
7
1
12
33
61
109
139
158
166
172
162
156
131
112
103
110
94
71
33
-18
-59
-68
-68
-58
-39
-9
3
9
4
-6
-22
-22
-20
-5
17
44
52
52
43
25
1
-3
-3
8
27
49
55
54
44
26
3
-2
1
12
32
52
58
57
44
26
8
1
2
15
37
55
60
60
47
25
6
4
7
21
42
58
64
62
52
28
12
7
11
25
49
64
68
66
53
30
17
14
21
33
58
72
77
74
62
40
27
24
31
47
74
87
93
87
76
52
42
41
47
60
87
95
100
94
82
56
45
42
47
59
84
92
94
83
65
36
23
16
24
32
53
58
61
49
34
3
-6
-11
-5
9
32
40
39
28
14
-14
-23
-24
-14
1
26
33
33
24
8
-17
-23
-25
-15
1
26
30
33
21
6
-18
-27
-28
-17
1
26
32
31
18
-1
-21
-28
-26
-16
3
25
30
29
20
0
-23
-29
-26
-13
7
27
32
30
19
-1
-23
-27
-25
-13
8
27
34
30
16
-4
-24
-26
-23
-13
14
29
30
29
16
-6
-22
-27
-23
-9
13
28
31
27
14
-9
-24
-28
-22
-9
12
25
29
26
13
-11
-26
-29
-22
-10
15
24
28
21
9
-17
-27
-30
-25
-12
14
24
26
19
6
-18
-30
-32
-24
-10
17
25
28
20
6
-21
-29
-33
-24
-13
15
25
28
19
4
-22
-31
-35
-25
-9
18
26
29
19
1
-23
-30
-32
-23
-8
19
24
27
17
1
-24
-30
-30
-21
-4
21
27
28
19
4
-19
-24
-21
-10
5
27
30
28
17
-3
-25
-31
-32
-22
-5
15
18
18
9
-11
-33
-37
-36
-24
-4
17
21
18
9
-12
-32
-38
-35
-23
-4
15
19
16
3
-18
-35
-39
-37
-25
-2
12
17
13
-2
-24
-36
-35
-18
8
47
82
107
122
127
124
127
121
102
89
89
81
61
27
-18
-73
-98
-100
-94
-80
-52
-37
-28
-29
-39
-56
-62
-61
-51
-32
-3
12
17
13
-1
-26
-36
-38
-31
-19
9
18
21
15
0
-26
-34
-37
-28
-12
15
22
24
17
3
-24
-31
-33
-24
-8
17
26
27
19
3
-23
-30
-29
-19
-1
24
31
30
21
7
-17
-24
-23
-13
6
31
36
38
28
11
-13
-17
-18
-4
16
41
49
50
38
23
2
-4
0
13
34
56
62
63
50
36
15
12
14
26
48
69
73
68
57
40
18
14
16
27
47
63
64
58
42
18
-2
-10
-11
-2
17
30
30
26
10
-16
-34
-42
-39
-27
-3
9
10
6
-9
-33
-47
-52
-47
-35
-11
1
3
-3
-13
-38
-51
-55
-49
-38
-12
-1
3
-4
-17
-44
-53
-57
-51
-38
-12
-2
0
-8
-19
-45
-55
-58
-51
-36
-10
-1
2
-7
-21
-45
-55
-57
-51
-35
-7
0
3
-8
-21
-46
-52
-55
-45
-31
-6
1
3
-7
-22
-48
-53
-53
-41
-28
-3
4
3
-7
-23
-46
-52
-55
-44
-27
-3
3
3
-6
-24
-49
-53
-53
-44
-24
-1
3
4
-10
-27
-49
-54
-55
-43
-22
-4
1
-1
-14
-32
-52
-58
-56
-42
-23
-4
1
-2
-13
-34
-52
-58
-57
-41
-19
-4
1
0
-16
-38
-55
-60
-54
-42
-20
-3
0
-3
-16
-39
-54
-56
-53
-39
-16
-2
0
-3
-16
-42
-55
-59
-53
-39
-14
-2
2
-3
-17
-41
-51
-56
-47
-32
-3
9
14
5
-7
-35
-49
-53
-47
-34
-9
1
4
-6
-21
-47
-59
-60
-52
-37
-8
-1
-1
-6
-22
-49
-56
-59
-51
-35
-11
-1
1
-11
-24
-50
-60
-62
-52
-37
-10
-2
0
-11
-27
-53
-59
-60
-50
-35
-10
-4
7
10
5
-2
15
33
62
98
143
162
155
118
77
30
5
-19
-37
-50
-53
-61
-61
-72
-91
-109
-110
-102
-87
-62
-33
-21
-18
-26
-41
-59
-60
-56
-42
-22
-3
1
2
-10
-31
-48
-54
-51
-38
-14
2
8
5
-10
-29
-44
-48
-43
-31
-6
9
11
8
-4
-29
-42
-46
-42
-27
-2
12
15
11
-1
-25
-37
-40
-34
-21
5
18
22
16
4
-20
-31
-32
-27
-11
16
27
31
26
14
-11
-20
-21
-12
1
31
42
46
42
27
2
-5
-7
3
19
48
60
64
57
42
17
8
6
16
31
56
63
67
57
41
12
3
-1
7
20
42
45
44
27
9
-19
-29
-34
-27
-13
8
15
14
3
-16
-42
-49
-52
-42
-25
-2
3
3
-7
-28
-51
-55
-55
-43
-26
-4
-1
-2
-13
-33
-54
-58
-56
-43
-23
-4
0
-2
-12
-32
-52
-56
-55
-43
-24
-6
0
-1
-14
-35
-53
-56
-53
-41
-17
0
0
-1
-15
-37
-51
-56
-53
-40
-15
-1
3
-1
-15
-35
-51
-54
-49
-35
-10
2
6
1
-13
-35
-47
-49
-45
-33
-7
4
8
2
-11
-37
-48
-50
-43
-32
-6
5
8
1
-14
-39
-48
-50
-44
-30
-4
4
8
-1
-15
-39
-49
-51
-43
-30
-2
7
8
-1
-16
-41
-49
-53
-42
-27
1
9
10
0
-16
-42
-48
-50
-41
-27
-1
6
8
-3
-18
-43
-48
-50
-39
-23
2
9
10
-1
-20
-42
-48
-46
-35
-18
4
8
11
-3
-23
-42
-47
-46
-34
-14
7
10
10
-1
-18
-39
-44
-41
-26
-4
17
22
21
9
-13
-33
-42
-40
-29
-7
8
10
8
-3
-29
-45
-49
-45
-31
-10
7
10
9
-4
-27
-43
-47
-43
-29
-4
8
12
8
-5
-31
-45
-48
-42
-30
-3
7
12
7
-7
-31
-46
-48
-44
-31
-7
7
20
26
30
23
34
50
74
109
154
176
165
131
95
49
18
-10
-31
-52
-50
-51
-46
-53
-64
-90
-93
-89
-76
-57
-20
-9
-3
-5
-16
-40
-45
-45
-34
-19
9
14
17
11
-6
-31
-36
-38
-28
-9
15
22
24
15
-3
-26
-33
-34
-22
-5
20
26
27
18
2
-21
-29
-27
-16
1
25
31
30
20
2
-19
-24
-24
-11
6
31
36
38
27
6
-13
-18
-14
-2
19
43
45
45
33
12
-3
-3
0
11
36
54
61
61
49
28
12
10
17
29
54
70
77
73
62
40
25
21
27
41
62
77
81
75
60
36
20
13
14
25
48
55
54
45
30
0
-15
-20
-17
-8
16
24
26
18
5
-23
-34
-39
-31
-19
3
15
19
11
-4
-31
-41
-44
-37
-24
3
10
13
8
-7
-32
-43
-46
-39
-23
2
13
13
7
-8
-35
-45
-45
-36
-19
6
12
16
6
-12
-37
-43
-44
-37
-19
6
12
14
4
-12
-36
-44
-44
-32
-15
9
16
17
7
-11
-37
-40
-42
-30
-12
13
17
16
4
-13
-34
-39
-40
-30
-8
15
17
17
6
-14
-36
-38
-40
-28
-5
13
19
16
6
-17
-37
-39
-40
-27
-6
13
18
14
3
-19
-36
-41
-39
-28
-1
13
15
12
-1
-24
-39
-42
-40
-26
-3
12
15
10
-1
-27
-38
-41
-36
-25
0
13
15
9
-3
-29
-38
-41
-35
-21
3
16
19
13
0
-27
-39
-45
-33
-21
6
15
20
13
1
-29
-38
-42
-31
-16
12
23
30
21
6
-19
-32
-36
-31
-17
9
16
16
5
-7
-36
-44
-47
-35
-20
5
13
14
5
-9
-36
-46
-46
-36
-19
8
12
15
3
-14
-40
19
14
26
45
73
111
151
164
153
120
77
37
14
-11
-30
-36
-41
-44
-45
-59
-79
-96
-95
-89
-70
-41
-18
-7
-5
-15
-33
-46
-47
-42
-28
-3
14
16
13
2
-23
-36
-39
-33
-19
4
17
22
17
3
-20
-32
-36
-32
-19
8
22
25
18
6
-19
-32
-34
-26
-14
14
24
28
24
8
-16
-28
-30
-24
-10
16
29
34
28
14
-12
-21
-24
-14
1
30
40
42
35
22
-5
-11
-12
-5
14
43
53
56
50
35
9
3
5
16
32
59
68
70
61
46
20
14
13
23
40
66
72
73
61
45
19
9
4
14
28
49
50
46
31
10
-17
-25
-28
-22
-6
16
18
18
4
-16
-43
-46
-49
-36
-17
4
6
4
-8
-28
-50
-55
-52
-39
-19
-2
3
1
-13
-34
-53
-58
-56
-42
-20
-3
1
-2
-16
-37
-54
-59
-56
-39
-16
-3
2
0
-14
-39
-55
-57
-52
-38
-14
0
5
-2
-14
-43
-55
-56
-51
-37
-12
1
4
-1
-13
-42
-54
-54
-49
-36
-9
3
5
-2
-15
-42
-53
-57
-47
-34
-6
4
5
-1
-16
-42
-52
-57
-48
-34
-5
3
7
-3
-17
-44
-53
-54
-49
-33
-6
1
3
-4
-20
-48
-55
-58
-49
-33
-5
4
7
-6
-23
-50
-56
-59
-48
-29
-5
0
0
-9
-26
-52
-58
-57
-45
-28
-2
0
-1
-10
-29
-51
-57
-58
-45
-25
-3
2
2
-13
-32
-54
-57
-54
-44
-23
-2
1
2
-11
-31
-51
-55
-50
-40
-14
7
12
10
-2
-28
-46
-52
-53
-41
-17
-3
1
-2
-15
-38
-59
-65
-58
-44
-21
-7
-2
-5
-17
-41
-58
-62
-55
-42
-17
-4
1
-6
-20
-43
-58
-62
-53
-42
-17
-6
-2
-6
-20
-47
-57
-61
-56
-40
-14
-1
12
17
18
10
20
35
60
97
139
155
139
106
70
25
-6
-36
-54
-71
-63
-61
-58
-66
-80
-104
-107
-104
-89
-70
-34
-20
-14
-21
-32
-57
-62
-61
-48
-32
-4
2
3
-7
-23
-48
-55
-56
-44
-25
2
7
8
-3
-22
-44
-50
-51
-38
-18
4
10
10
-1
-20
-44
-49
-47
-32
-14
6
14
12
0
-19
-39
-45
-41
-29
-7
15
20
17
7
-15
-35
-36
-34
-21
5
24
30
29
17
-7
-25
-27
-22
-6
19
38
44
43
31
9
-6
-9
-5
11
38
54
58
56
44
21
7
4
9
23
49
60
64
59
43
15
1
-5
-2
9
32
38
39
30
14
-18
-32
-38
-33
-21
1
10
12
2
-11
-41
-53
-56
-48
-35
-8
1
2
-6
-22
-50
-61
-62
-52
-38
-12
-3
0
-11
-27
-53
-62
-62
-52
-38
-12
-4
-3
-12
-27
-54
-62
-61
-53
-38
-10
-3
-2
-12
-29
-54
-61
-60
-49
-32
-7
0
1
-10
-28
-52
-58
-56
-47
-28
-3
2
3
-10
-29
-52
-57
-54
-42
-21
-1
3
3
-10
-30
-51
-56
-55
-41
-20
0
5
3
-10
-30
-51
-55
-53
-40
-16
1
6
3
-10
-34
-51
-55
-51
-37
-14
-1
6
3
-10
-33
-51
-57
-52
-35
-11
2
6
3
-12
-36
-50
-55
-49
-35
-10
2
7
3
-12
-37
-50
-54
-49
-33
-8
2
4
0
-14
-39
-51
-56
-47
-32
-5
5
7
0
-14
-39
-50
-52
-46
-31
-2
6
10
0
-13
-40
-49
-50
-41
-26
2
10
17
9
-5
-32
-38
-40
-30
-16
7
12
13
1
-13
-39
-48
-51
-43
-26
-1
6
7
-4
-20
-45
-50
-50
-39
-23
2
8
9
-5
-21
-44
-49
-50
-38
-19
3
8
7
-4
-21
-44
-51
-49
-39
-17
4
8
5
-6
-24
-38
-29
-15
17
59
100
122
137
147
139
113
84
60
50
53
46
22
-12
-53
-88
-106
-108
-103
-89
-59
-38
-30
-29
-34
-51
-61
-60
-51
-35
-8
9
14
9
-3
-28
-40
-44
-37
-22
5
17
19
14
1
-24
-37
-38
-32
-19
8
21
24
16
2
-24
-34
-36
-27
-13
13
23
24
17
5
-23
-33
-35
-27
-9
18
26
30
22
7
-19
-26
-28
-18
-2
26
35
38
29
14
-11
-17
-18
-7
12
38
45
49
42
28
4
-1
-1
11
29
57
63
66
56
40
17
13
11
23
42
67
76
75
64
46
21
14
13
22
42
62
64
61
47
23
-4
-11
-12
-4
14
29
32
27
11
-11
-32
-38
-37
-26
-8
10
12
10
-3
-24
-45
-49
-45
-32
-10
6
10
6
-6
-29
-46
-51
-47
-34
-9
3
8
5
-9
-34
-47
-50
-47
-33
-9
5
9
3
-9
-34
-48
-51
-46
-31
-7
7
12
4
-8
-35
-47
-49
-45
-30
-3
7
12
5
-9
-37
-46
-49
-40
-28
-1
10
13
5
-9
-37
-44
-45
-38
-21
3
11
14
5
-9
-37
-44
-46
-36
-21
6
13
13
6
-10
-37
-44
-47
-36
-18
7
14
14
3
-14
-39
-46
-47
-35
-20
5
11
13
1
-16
-41
-45
-47
-34
-17
7
13
13
0
-17
-41
-45
-46
-33
-16
7
10
11
-1
-21
-44
-47
-45
-34
-12
7
10
12
-3
-22
-43
-50
-45
-29
-8
11
14
11
-2
-24
-43
-46
-42
-29
-6
11
15
15
-3
-25
-40
-44
-38
-27
0
15
21
20
9
-16
-31
-35
-31
-20
3
14
16
12
-4
-29
-45
-48
-43
-30
-4
9
10
4
-8
-33
-46
-48
-40
-26
-1
9
13
4
-7
-35
-45
-50
-42
-27
0
11
12
3
-9
-34
-46
-47
-39
-24
4
12
12
5
-7
-23
-16
-5
28
63
106
132
156
165
150
104
70
46
35
29
32
7
-25
-55
-74
-99
-105
-103
-87
-66
-35
-24
-16
-20
-32
-52
-55
-52
-38
-16
10
15
16
3
-16
-36
-42
-42
-29
-8
14
19
19
10
-12
-34
-38
-35
-23
-3
18
23
23
10
-10
-30
-36
-33
-21
2
19
25
24
10
-11
-28
-31
-29
-17
8
24
30
27
13
-8
-23
-24
-20
-7
17
34
36
33
23
-1
-13
-17
-12
5
29
45
49
44
35
12
-1
-2
4
22
51
63
66
61
50
23
13
10
17
34
62
70
73
65
52
25
12
10
16
26
51
58
58
47
28
-1
-14
-20
-13
-2
24
27
26
14
-1
-31
-43
-46
-39
-22
3
9
10
-2
-18
-47
-55
-54
-45
-29
-2
4
6
-6
-23
-48
-55
-57
-45
-27
-4
2
2
-8
-24
-50
-56
-57
-46
-26
-3
2
0
-10
-29
-50
-55
-56
-44
-23
0
3
2
-14
-30
-50
-54
-54
-41
-22
-1
3
3
-11
-33
-50
-55
-51
-39
-20
0
6
3
-10
-33
-50
-56
-51
-38
-13
1
4
3
-12
-34
-50
-53
-51
-37
-14
0
5
1
-14
-40
-55
-58
-51
-39
-14
0
3
-3
-17
-41
-54
-56
-51
-37
-11
0
3
-6
-19
-45
-56
-58
-49
-37
-12
-1
3
-6
-20
-47
-58
-59
-51
-37
-12
-3
2
-9
-22
-49
-58
-59
-50
-34
-10
-2
3
-7
-25
-52
-58
-59
-48
-33
-7
1
1
-9
-26
-50
-58
-60
-49
-30
-5
3
2
-9
-24
-50
-56
-59
-45
-28
1
8
10
-1
-17
-38
-46
-49
-39
-21
-3
2
2
-10
-30
-54
-62
-62
-48
-30
-12
-5
-5
-14
-36
-57
-62
-61
-48
-24
-8
-4
-4
-16
-38
-58
-62
-60
-47
-25
-9
-4
-4
-18
-40
-60
-62
-60
-47
-24
-9
-4
-8
-18
-35
-37
-28
-7
27
71
100
121
136
131
100
63
38
20
15
12
-1
-28
-59
-82
-107
-117
-122
-113
-95
-63
-47
-40
-40
-44
-66
-74
-74
-62
-44
-14
-3
-1
-8
-21
-47
-57
-58
-48
-34
-6
1
5
-3
-18
-44
-53
-55
-46
-30
-2
5
9
-1
-15
-42
-49
-51
-39
-24
3
7
10
1
-15
-40
-47
-49
-36
-22
6
13
14
3
-11
-37
-39
-40
-29
-10
15
21
20
9
-6
-26
-30
-29
-17
2
26
32
32
23
5
-15
-18
-18
-3
20
43
45
47
35
19
1
-5
-2
10
32
50
54
52
40
19
-2
-6
-5
7
26
41
42
35
20
-6
-26
-33
-33
-23
-3
11
10
6
-11
-38
-52
-62
-59
-46
-20
-8
-6
-12
-25
-49
-64
-68
-63
-50
-26
-13
-8
-15
-30
-56
-67
-72
-65
-51
-23
-13
-13
-19
-30
-59
-68
-70
-66
-50
-23
-12
-13
-21
-33
-61
-70
-72
-61
-48
-21
-14
-12
-21
-35
-61
-67
-68
-59
-44
-18
-11
-9
-18
-34
-59
-67
-68
-60
-43
-18
-12
-10
-20
-34
-59
-66
-68
-58
-40
-16
-9
-8
-18
-35
-59
-66
-65
-54
-38
-13
-10
-9
-19
-39
-62
-67
-68
-54
-37
-16
-10
-12
-24
-43
-63
-67
-66
-54
-33
-14
-11
-12
-23
-44
-64
-67
-65
-52
-31
-13
-9
-12
-25
-44
-63
-67
-65
-51
-26
-10
-8
-12
-26
-48
-64
-67
-62
-52
-27
-12
-8
-12
-25
-50
-64
-67
-59
-48
-23
-12
-9
-13
-27
-52
-65
-68
-61
-47
-23
-11
-6
-14
-26
-50
-63
-66
-58
-43
-16
-5
1
-4
-16
-44
-54
-58
-52
-40
-16
-6
-3
-13
-29
-57
-67
-67
-60
-46
-18
-12
-9
-17
-32
-58
-65
-68
-59
-45
-19
-11
-9
-18
-33
-59
-67
-68
-56
-39
-14
-7
-7
-18
-37
-62
-67
-65
-55
-39
-15
-12
-9
-20
-33
-44
-37
-21
12
50
90
112
133
138
118
73
45
25
18
14
7
-18
-49
-79
-100
-119
-124
-120
-103
-78
-54
-46
-41
-43
-60
-74
-73
-66
-52
-28
-7
-3
-4
-17
-39
-55
-58
-55
-41
-17
-2
4
1
-13
-36
-51
-55
-53
-40
-11
3
5
2
-11
-35
-48
-51
-46
-32
-8
5
10
4
-8
-34
-45
-48
-41
-26
-2
10
14
7
-6
-30
-39
-44
-34
-20
6
19
23
17
3
-22
-31
-33
-22
-8
22
29
34
26
17
-8
-15
-14
-4
11
39
50
52
43
31
5
-1
-2
8
23
51
57
59
51
33
8
0
-4
5
21
43
47
45
31
8
-20
-29
-35
-25
-10
11
13
11
-2
-21
-47
-55
-56
-48
-30
-7
-4
-5
-18
-38
-60
-64
-64
-52
-33
-11
-8
-7
-21
-41
-62
-66
-64
-51
-30
-11
-9
-12
-26
-44
-63
-65
-64
-52
-30
-13
-10
-12
-26
-47
-61
-66
-63
-49
-25
-11
-7
-11
-23
-46
-61
-64
-60
-47
-21
-7
-3
-8
-22
-47
-59
-63
-59
-44
-17
-5
-2
-8
-22
-47
-60
-62
-55
-42
-15
-5
-3
-9
-21
-48
-58
-62
-54
-40
-15
-6
-5
-11
-22
-50
-59
-62
-54
-40
-12
-4
-3
-12
-25
-51
-60
-62
-53
-39
-13
-6
-4
-13
-27
-54
-63
-63
-53
-39
-13
-3
-3
-15
-32
-56
-64
-63
-53
-37
-13
-6
-7
-16
-31
-57
-62
-63
-51
-33
-10
-3
-4
-14
-33
-56
-62
-62
-49
-30
-9
-4
-4
-15
-34
-54
-58
-58
-48
-27
-7
-2
-3
-12
-29
-48
-50
-48
-38
-17
-1
2
-5
-19
-37
-56
-61
-61
-50
-27
-11
-5
-8
-21
-43
-60
-64
-60
-47
-24
-10
-6
-10
-22
-48
-60
-65
-60
-47
-24
-12
-6
-11
-24
-50
-61
-66
-61
-45
-21
-8
-3
-11
-26
-52
-62
-62
-42
-17
26
54
76
89
94
89
94
94
81
71
73
64
44
8
-36
-93
-121
-124
-116
-98
-70
-60
-52
-57
-68
-86
-85
-80
-69
-48
-19
-9
-5
-13
-26
-53
-60
-61
-50
-34
-7
0
1
-9
-24
-49
-54
-56
-45
-28
-3
4
3
-7
-21
-44
-50
-50
-39
-22
3
7
8
-3
-20
-43
-48
-47
-34
-14
9
14
13
0
-20
-40
-43
-42
-31
-7
12
18
18
6
-12
-30
-35
-31
-17
5
23
30
29
18
0
-18
-21
-16
0
22
41
46
44
32
11
-4
-5
1
15
39
54
56
56
41
17
1
-1
3
15
38
50
52
44
29
0
-18
-26
-22
-13
10
19
18
8
-7
-35
-49
-52
-48
-38
-12
-5
0
-8
-25
-53
-61
-64
-56
-44
-20
-8
-7
-17
-31
-57
-66
-67
-59
-46
-21
-13
-10
-18
-32
-59
-66
-68
-59
-45
-20
-12
-10
-20
-36
-62
-70
-68
-59
-43
-18
-11
-11
-20
-37
-62
-66
-68
-58
-41
-17
-11
-10
-19
-37
-60
-67
-66
-54
-37
-14
-11
-9
-21
-39
-61
-66
-64
-53
-33
-12
-8
-8
-21
-41
-61
-65
-63
-50
-31
-11
-8
-9
-22
-42
-59
-67
-63
-50
-28
-12
-6
-11
-23
-44
-61
-65
-62
-49
-27
-13
-8
-10
-24
-47
-63
-66
-62
-48
-25
-11
-7
-11
-26
-50
-62
-66
-60
-48
-24
-11
-9
-14
-28
-53
-63
-66
-59
-46
-21
-11
-8
-15
-26
-50
-60
-64
-57
-43
-17
-9
-7
-14
-27
-51
-60
-65
-57
-41
-15
-7
-4
-14
-26
-51
-57
-57
-48
-31
-5
5
6
-4
-22
-50
-60
-63
-53
-39
-14
-10
-9
-19
-34
-59
-65
-67
-58
-41
-14
-9
-9
-19
-35
-62
-67
-68
-58
-40
-14
-10
-10
-21
-37
-62
-66
-66
-55
-37
-14
-11
-10
-23
-40
-63
-67
-68
-55
-38
-15
-1
10
12
11
12
28
46
80
121
151
140
114
77
35
-5
-35
-59
-81
-84
-75
-70
-72
-83
-102
-114
-113
-106
-85
-54
-33
-24
-23
-33
-53
-63
-66
-62
-48
-22
-8
-5
-10
-21
-44
-58
-63
-57
-41
-16
-4
-1
-5
-19
-44
-56
-58
-51
-37
-11
1
3
-4
-17
-43
-53
-56
-48
-34
-8
2
5
-1
-15
-40
-48
-51
-43
-28
-2
7
9
5
-9
-37
-44
-46
-34
-18
10
17
21
12
-2
-27
-32
-34
-22
-5
23
31
35
24
10
-13
-17
-17
-6
12
38
46
48
37
23
0
-7
-7
5
24
47
53
50
39
18
-6
-15
-17
-9
7
25
27
22
7
-16
-42
-48
-51
-42
-22
-6
-4
-4
-20
-40
-61
-68
-67
-56
-34
-18
-14
-18
-30
-51
-69
-73
-70
-61
-36
-19
-15
-19
-32
-55
-72
-75
-70
-58
-35
-21
-16
-20
-34
-57
-72
-75
-69
-58
-36
-22
-18
-24
-36
-61
-74
-76
-70
-57
-32
-19
-16
-21
-34
-60
-72
-74
-69
-54
-28
-17
-15
-21
-35
-62
-72
-74
-66
-53
-27
-16
-15
-23
-35
-61
-70
-73
-64
-51
-23
-16
-14
-20
-35
-61
-69
-72
-62
-49
-23
-15
-15
-22
-38
-65
-71
-73
-65
-49
-18
-13
-11
-25
-39
-64
-72
-72
-62
-45
-20
-15
-13
-25
-41
-65
-70
-72
-62
-42
-19
-13
-13
-28
-45
-67
-70
-70
-59
-40
-16
-14
-15
-27
-48
-68
-72
-71
-58
-39
-18
-12
-16
-26
-47
-66
-70
-68
-56
-36
-20
-13
-16
-31
-51
-68
-70
-65
-54
-31
-17
-12
-15
-30
-52
-69
-71
-67
-52
-26
-16
-11
-15
-28
-48
-65
-69
-63
-46
-21
-6
1
-6
-20
-46
-60
-66
-60
-47
-24
-13
-13
-19
-33
-59
-70
-73
-66
-54
-26
-16
-14
-21
-34
-59
-70
-71
-62
-49
-24
-17
-13
-21
-35
-62
-71
-73
-65
-52
-25
-14
-13
-21
-35
-63
-69
-72
-64
-46
-22
-17
-14
-19
-22
-35
-26
-7
26
59
104
131
151
141
104
53
22
2
-11
-21
-26
-53
-71
-81
-96
-121
-125
-122
-105
-80
-53
-40
-33
-38
-53
-73
-74
-71
-56
-35
-12
-6
-7
-19
-38
-58
-61
-61
-49
-26
-7
-2
-5
-16
-37
-56
-57
-57
-43
-20
-3
0
-1
-13
-36
-51
-55
-51
-38
-14
1
6
1
-12
-35
-51
-54
-49
-34
-8
4
11
4
-6
-30
-43
-44
-39
-25
0
13
18
13
3
-22
-35
-35
-27
-12
15
28
31
26
16
-10
-19
-22
-14
2
31
42
46
40
27
1
-8
-10
-2
15
42
50
51
42
28
1
-9
-13
-6
7
31
35
33
21
4
-26
-37
-43
-35
-23
-1
4
2
-11
-25
-54
-62
-65
-55
-40
-16
-12
-10
-22
-38
-63
-72
-71
-61
-43
-19
-17
-16
-28
-46
-68
-74
-73
-61
-42
-22
-16
-16
-26
-47
-70
-72
-72
-60
-40
-20
-16
-17
-29
-50
-71
-76
-72
-60
-39
-20
-16
-19
-29
-51
-71
-73
-70
-61
-36
-19
-16
-18
-30
-53
-69
-72
-67
-55
-31
-17
-15
-20
-31
-54
-69
-72
-68
-54
-29
-16
-11
-16
-28
-54
-68
-70
-67
-53
-28
-17
-13
-18
-32
-57
-69
-72
-65
-52
-25
-15
-11
-19
-31
-59
-69
-71
-63
-51
-23
-15
-12
-19
-33
-60
-68
-72
-63
-50
-24
-16
-14
-22
-36
-63
-69
-73
-62
-48
-21
-16
-16
-24
-37
-64
-72
-74
-63
-47
-21
-14
-12
-23
-38
-64
-70
-71
-60
-43
-20
-13
-12
-22
-40
-63
-68
-71
-57
-38
-18
-12
-11
-20
-36
-57
-62
-58
-47
-28
-8
-4
-8
-20
-41
-63
-69
-69
-60
-38
-19
-16
-18
-29
-49
-69
-73
-69
-59
-36
-18
-13
-18
-32
-51
-67
-71
-71
-58
-35
-17
-14
-17
-30
-54
-70
-72
-71
-56
-32
-18
-14
-18
-32
-55
-71
-74
-68
-54
-20
7
26
40
47
41
45
63
88
105
113
101
80
55
20
-33
-73
-109
-120
-111
-84
-74
-70
-73
-79
-101
-109
-104
-90
-69
-38
-26
-18
-25
-34
-58
-66
-67
-60
-45
-17
-9
-5
-14
-28
-54
-62
-63
-52
-37
-11
-4
0
-10
-25
-50
-57
-59
-50
-32
-6
0
2
-8
-24
-49
-54
-54
-44
-27
-1
5
7
-5
-21
-46
-53
-51
-40
-19
6
12
11
0
-17
-38
-42
-41
-29
-7
15
21
21
13
-6
-26
-29
-27
-13
9
30
36
36
25
6
-12
-13
-11
3
25
45
50
49
37
17
0
-5
-2
11
33
47
51
45
30
5
-14
-21
-20
-11
8
18
18
12
-5
-32
-47
-54
-52
-41
-17
-7
-5
-12
-26
-50
-65
-68
-64
-50
-26
-15
-11
-16
-32
-57
-69
-74
-66
-53
-25
-17
-15
-21
-35
-60
-71
-75
-66
-53
-27
-17
-14
-21
-35
-63
-73
-74
-66
-51
-24
-15
-12
-22
-35
-62
-69
-72
-63
-48
-22
-14
-13
-23
-37
-64
-71
-72
-60
-44
-19
-13
-11
-24
-37
-62
-68
-69
-57
-41
-15
-12
-11
-21
-39
-62
-68
-68
-56
-40
-17
-11
-10
-22
-41
-62
-66
-67
-56
-35
-16
-11
-13
-24
-45
-65
-68
-66
-56
-36
-16
-11
-14
-25
-46
-66
-70
-67
-55
-31
-15
-11
-14
-27
-49
-65
-70
-66
-53
-30
-14
-10
-13
-26
-51
-65
-69
-66
-53
-29
-14
-10
-15
-29
-51
-66
-71
-66
-51
-27
-15
-10
-17
-29
-54
-66
-70
-62
-49
-24
-14
-10
-16
-30
-53
-66
-69
-62
-50
-23
-14
-11
-18
-31
-58
-66
-69
-61
-48
-21
-11
-7
-17
-31
-58
-65
-65
-55
-39
-9
-1
1
-7
-25
-54
-61
-64
-57
-41
-17
-12
-11
-24
-40
-65
-72
-72
-60
-44
-19
-14
-13
-23
-40
-65
-71
-71
-61
-41
-19
-13
-11
-23
-42
-65
-74
-72
-58
-41
-19
-13
-15
-27
-44
-65
-72
-71
-61
-41
-20
-11
1
0
-4
-4
14
34
66
110
146
152
127
87
43
2
-23
-45
-62
-74
-75
-72
-74
-88
-108
-120
-116
-110
-93
-63
-38
-29
-28
-35
-56
-68
-70
-62
-49
-24
-12
-9
-13
-24
-48
-61
-64
-58
-41
-17
-8
-2
-8
-21
-45
-57
-59
-52
-39
-11
-4
1
-4
-16
-43
-56
-57
-50
-35
-8
2
6
-1
-15
-42
-51
-51
-44
-30
0
8
10
1
-12
-36
-45
-45
-34
-19
7
16
19
11
-2
-28
-33
-33
-22
-6
22
31
35
25
11
-12
-18
-17
-4
15
41
47
50
39
23
-1
-6
-5
6
23
48
51
52
42
21
-1
-9
-11
-1
12
33
34
30
14
-8
-32
-41
-42
-32
-17
1
5
3
-12
-37
-56
-64
-61
-50
-30
-10
-9
-13
-24
-49
-67
-68
-67
-53
-32
-16
-15
-16
-30
-53
-67
-71
-67
-55
-29
-15
-10
-16
-28
-53
-71
-75
-69
-53
-27
-15
-12
-17
-31
-55
-67
-70
-66
-50
-25
-15
-10
-17
-32
-58
-67
-69
-60
-48
-21
-12
-10
-15
-29
-56
-65
-66
-60
-45
-19
-10
-7
-16
-29
-56
-65
-66
-57
-44
-16
-9
-8
-15
-30
-55
-63
-65
-58
-41
-14
-9
-6
-16
-30
-56
-63
-65
-54
-39
-13
-7
-7
-18
-34
-55
-65
-65
-53
-35
-12
-7
-6
-18
-36
-59
-66
-65
-54
-37
-12
-8
-8
-19
-38
-60
-65
-64
-54
-33
-13
-6
-9
-19
-40
-59
-65
-62
-51
-30
-10
-6
-7
-20
-42
-58
-61
-65
-52
-30
-13
-4
-7
-21
-44
-60
-63
-60
-46
-23
-7
-3
-6
-18
-42
-58
-60
-57
-43
-20
-7
-3
-7
-18
-38
-49
-53
-45
-34
-9
2
3
-5
-20
-45
-57
-63
-58
-46
-20
-9
-7
-14
-24
-50
-60
-64
-58
-45
-18
-7
-7
-14
-26
-53
-62
-62
-57
-44
-17
-9
-6
-15
-30
-57
-65
-66
-57
-43
-16
-9
-6
-16
-30
-57
-63
-63
-44
-16
22
47
70
76
78
70
84
91
91
84
87
72
53
16
-29
-84
-114
-125
-113
-92
-69
-61
-56
-64
-74
-94
-93
-86
-69
-46
-21
-11
-10
-19
-34
-57
-60
-59
-47
-27
-6
1
0
-13
-32
-53
-59
-55
-42
-18
-2
2
1
-12
-33
-50
-53
-51
-39
-17
0
5
3
-11
-31
-47
-51
-47
-33
-9
4
10
7
-5
-30
-43
-45
-41
-28
-1
12
16
14
0
-25
-35
-37
-33
-16
10
22
28
23
11
-15
-25
-26
-17
-2
27
38
43
37
25
0
-8
-9
0
15
42
51
55
48
35
7
-2
-4
4
15
39
49
49
37
20
-9
-21
-25
-19
-8
14
18
17
3
-15
-44
-53
-58
-49
-36
-12
-7
-7
-19
-34
-61
-67
-70
-62
-43
-19
-14
-15
-26
-42
-64
-71
-72
-63
-44
-21
-15
-15
-28
-46
-69
-74
-74
-62
-42
-19
-15
-17
-29
-49
-70
-75
-72
-60
-40
-18
-14
-16
-28
-50
-69
-71
-69
-57
-35
-17
-12
-16
-30
-50
-67
-71
-69
-55
-33
-18
-14
-17
-30
-53
-67
-69
-65
-54
-29
-15
-11
-14
-28
-53
-66
-70
-65
-51
-25
-13
-10
-16
-29
-55
-68
-71
-64
-51
-25
-14
-11
-19
-32
-57
-68
-71
-65
-51
-25
-15
-13
-20
-32
-60
-70
-71
-64
-50
-24
-14
-13
-21
-37
-61
-71
-71
-63
-49
-22
-16
-12
-20
-34
-61
-71
-72
-60
-45
-19
-13
-12
-23
-38
-62
-70
-71
-59
-43
-17
-12
-10
-23
-37
-62
-67
-68
-57
-40
-15
-8
-3
-13
-30
-54
-60
-62
-52
-36
-13
-11
-11
-23
-44
-67
-73
-72
-60
-41
-19
-14
-15
-28
-47
-68
-71
-69
-57
-36
-18
-14
-15
-28
-48
-68
-72
-69
-57
-34
-17
-13
-17
-31
-51
-67
-72
-69
-55
-32
-19
-15
-18
-32
-53
-57
-47
-29
4
50
81
105
122
129
110
80
50
31
24
25
12
-10
-51
-87
-115
-125
-130
-123
-107
-75
-59
-50
-53
-56
-75
-81
-78
-69
-51
-22
-12
-8
-14
-28
-55
-64
-67
-59
-44
-16
-8
-3
-12
-25
-53
-60
-62
-55
-38
-11
-3
-1
-10
-24
-50
-57
-59
-47
-33
-7
0
3
-8
-23
-48
-55
-54
-44
-27
-2
5
6
-5
-21
-44
-48
-49
-37
-21
5
10
12
3
-13
-37
-39
-39
-25
-5
18
24
26
15
-2
-22
-25
-23
-7
14
37
42
42
31
13
-5
-9
-6
8
31
51
53
52
39
15
-1
-7
-2
8
29
41
40
34
22
-7
-25
-35
-34
-26
-3
9
10
2
-15
-39
-56
-60
-58
-45
-21
-10
-6
-14
-27
-53
-65
-67
-62
-50
-25
-14
-11
-15
-30
-57
-68
-70
-63
-50
-25
-13
-11
-16
-32
-59
-68
-73
-62
-49
-21
-15
-11
-21
-34
-60
-68
-70
-62
-48
-20
-13
-9
-18
-33
-61
-69
-70
-60
-43
-18
-9
-9
-19
-32
-56
-64
-67
-56
-41
-14
-8
-8
-17
-31
-57
-63
-64
-55
-38
-14
-6
-7
-17
-35
-57
-62
-62
-52
-33
-11
-5
-7
-16
-35
-57
-63
-63
-50
-29
-10
-4
-5
-17
-36
-56
-63
-63
-52
-31
-11
-7
-8
-18
-40
-58
-62
-61
-48
-26
-9
-4
-10
-22
-39
-57
-62
-59
-47
-22
-9
-5
-7
-19
-44
-60
-63
-60
-43
-21
-7
-3
-7
-19
-44
-60
-61
-58
-43
-18
-8
-3
-8
-19
-43
-57
-60
-51
-38
-12
-3
2
-7
-18
-41
-51
-50
-45
-29
-3
6
7
-3
-18
-45
-54
-57
-53
-41
-14
-6
-4
-11
-24
-53
-61
-61
-52
-38
-12
-3
-2
-12
-25
-52
-60
-63
-53
-38
-10
-3
0
-12
-28
-52
-59
-61
-52
-35
-12
-3
-3
-13
-30
-56
-60
-57
-37
-8
29
52
72
81
82
80
90
101
104
96
95
82
65
24
-25
-78
-107
-114
-101
-79
-58
-53
-51
-57
-73
-89
-85
-75
-60
-33
-10
-2
-1
-10
-33
-51
-52
-49
-38
-14
2
8
6
-5
-29
-45
-49
-43
-29
-9
8
13
8
-3
-25
-41
-44
-38
-26
-2
13
14
9
-2
-25
-36
-38
-36
-21
4
21
22
17
6
-20
-30
-34
-30
-14
12
23
30
23
12
-13
-22
-24
-15
-2
26
36
40
35
21
-3
-10
-12
0
13
42
51
58
49
35
12
6
5
17
32
59
66
69
59
45
20
12
10
15
33
59
64
64
50
33
4
-8
-12
-5
8
29
32
29
19
-1
-29
-37
-41
-30
-15
7
11
11
-1
-23
-46
-52
-53
-40
-21
-1
5
5
-6
-26
-50
-56
-53
-42
-21
-4
3
2
-9
-29
-50
-56
-54
-42
-21
-3
4
1
-12
-36
-55
-57
-52
-39
-18
-1
3
0
-14
-34
-51
-54
-52
-38
-16
0
4
0
-13
-35
-48
-53
-49
-36
-10
3
7
3
-12
-36
-48
-51
-46
-32
-4
5
10
3
-12
-36
-48
-52
-45
-31
-4
6
9
5
-10
-36
-47
-51
-43
-28
-1
8
10
2
-11
-37
-48
-51
-44
-28
-1
7
9
0
-14
-40
-48
-51
-43
-27
-3
5
8
-1
-16
-40
-50
-50
-41
-25
3
8
9
0
-17
-43
-49
-50
-38
-22
3
8
9
-3
-20
-42
-48
-48
-37
-20
5
11
13
2
-15
-37
-41
-39
-27
-8
12
14
12
-1
-23
-44
-49
-50
-39
-21
-1
3
3
-9
-30
-48
-54
-51
-39
-17
1
6
4
-9
-31
-49
-52
-49
-35
-14
1
7
2
-11
-34
-49
-53
-52
-38
-14
1
3
1
-11
-37
-51
-53
-47
-21
15
44
68
80
87
79
87
99
106
101
103
95
79
49
8
-48
-88
-109
-103
-89
-63
-51
-46
-48
-56
-78
-81
-78
-65
-47
-17
-4
2
-2
-13
-39
-46
-48
-40
-25
3
9
12
4
-10
-36
-44
-46
-37
-20
9
15
17
8
-7
-34
-40
-41
-30
-14
11
16
19
8
-8
-32
-37
-38
-27
-9
15
23
24
12
-5
-29
-31
-31
-21
-1
22
26
29
17
2
-20
-25
-24
-9
11
32
39
39
27
9
-8
-12
-8
6
28
50
55
54
44
24
8
3
8
22
44
62
66
64
53
32
14
9
13
26
47
60
61
56
41
15
-5
-11
-12
-2
18
28
29
23
5
-24
-38
-43
-42
-32
-10
4
5
0
-13
-40
-54
-58
-51
-41
-15
-4
-1
-9
-22
-46
-57
-60
-53
-41
-14
-5
-2
-10
-21
-49
-60
-62
-54
-42
-15
-6
-5
-13
-26
-53
-63
-63
-55
-40
-14
-5
-4
-13
-27
-52
-59
-61
-53
-36
-11
-3
-2
-12
-28
-53
-59
-60
-49
-33
-8
-2
0
-12
-28
-52
-60
-61
-49
-32
-6
-1
-1
-10
-28
-53
-58
-57
-45
-27
-5
0
-1
-14
-31
-53
-59
-60
-47
-26
-6
-2
-5
-16
-36
-56
-61
-59
-47
-26
-8
-4
-6
-20
-39
-58
-62
-59
-47
-25
-9
-5
-7
-19
-43
-59
-63
-60
-46
-25
-10
-6
-9
-23
-46
-58
-61
-60
-47
-22
-8
-3
-9
-25
-50
-62
-65
-60
-48
-19
-5
-4
-11
-23
-48
-62
-64
-59
-45
-20
-9
-5
-11
-24
-50
-59
-64
-56
-42
-13
-4
-2
-9
-21
-47
-55
-56
-45
-31
-5
5
6
-5
-20
-49
-60
-61
-52
-39
-13
-7
-7
-15
-32
-57
-62
-64
-55
-42
-15
-8
-6
-17
-31
-59
-66
-67
-57
-40
-14
-9
-8
-17
-36
-61
-67
-67
-56
-38
-11
-10
-9
-22
-36
-60
-66
-67
-55
-34
-5
16
28
32
35
33
46
66
99
132
142
124
97
64
24
-23
-51
-82
-99
-87
-70
-65
-66
-75
-90
-102
-104
-96
-74
-44
-24
-17
-16
-28
-47
-61
-64
-62
-47
-22
-9
-3
-8
-19
-44
-57
-60
-54
-41
-16
-3
1
-2
-17
-40
-52
-56
-50
-38
-13
1
3
-2
-16
-39
-50
-53
-49
-35
-8
6
9
0
-14
-39
-50
-49
-117
-60
-18
-5
3
1
-15
-40
-47
-48
-38
-23
7
19
22
13
0
-28
-33
-33
-21
-6
24
32
36
28
12
-12
-15
-16
-7
13
43
50
51
42
29
2
-4
-5
8
24
49
56
56
43
24
-2
-12
-15
-6
8
28
31
29
13
-10
-35
-43
-47
-34
-17
0
7
1
-11
-34
-58
-63
-63
-53
-30
-10
-7
-10
-20
-42
-63
-67
-67
-54
-32
-13
-8
-11
-26
-46
-64
-70
-66
-52
-28
-14
-8
-14
-28
-48
-64
-68
-62
-50
-27
-12
-8
-14
-26
-52
-65
-67
-64
-50
-22
-10
-8
-12
-25
-51
-64
-68
-62
-47
-20
-9
-7
-14
-25
-51
-63
-66
-61
-47
-17
-4
-2
-11
-25
-54
-62
-65
-57
-45
-18
-6
-4
-12
-28
-52
-63
-65
-54
-39
-11
-3
-1
-12
-27
-55
-62
-65
-53
-39
-9
-2
-3
-12
-29
-56
-65
-68
-53
-37
-11
-4
-4
-15
-32
-57
-63
-67
-54
-36
-9
-5
-4
-19
-34
-61
-64
-66
-55
-36
-12
-7
-5
-16
-38
-61
-64
-65
-54
-35
-12
-3
-7
-20
-41
-59
-63
-63
-52
-30
-8
-3
-5
-19
-40
-59
-63
-60
-44
-21
-5
1
-3
-17
-39
-56
-58
-51
-36
-10
5
11
6
-9
-36
-54
-62
-57
-43
-18
-2
0
-10
-24
-46
-60
-61
-58
-43
-17
-5
1
-7
-22
-47
-58
-64
-57
-43
-15
-5
-3
-8
-23
-51
-62
-65
-57
-44
-15
-4
0
-9
-25
-54
-63
-65
-57
-41
-10
1
13
16
14
7
15
30
58
92
138
151
139
104
67
22
-8
-35
-56
-69
-63
-60
-57
-67
-83
-107
-110
-107
-90
-68
-36
-21
-19
-27
-41
-61
-64
-62
-51
-33
-4
1
3
-10
-26
-52
-57
-56
-44
-22
2
8
6
-7
-26
-49
-50
-49
-38
-17
7
8
10
-3
-24
-44
-49
-45
-33
-10
10
14
12
0
-23
-43
-46
-42
-30
-3
13
18
15
5
-19
-34
-39
-35
-21
4
22
28
22
12
-10
-25
-27
-20
-6
21
35
42
37
27
1
-9
-12
-4
11
38
51
58
51
39
15
1
-1
6
22
48
59
59
53
36
8
-3
-8
-2
7
30
38
36
24
7
-25
-38
-42
-35
-23
3
7
9
-5
-22
-47
-57
-63
-54
-39
-12
-4
-2
-11
-30
-57
-65
-67
-57
-40
-14
-7
-7
-18
-33
-60
-66
-67
-54
-39
-14
-6
-5
-17
-37
-60
-66
-68
-56
-36
-14
-4
-4
-18
-38
-59
-64
-67
-54
-33
-11
-6
-6
-18
-40
-61
-67
-64
-52
-31
-9
-4
-7
-17
-39
-58
-63
-60
-49
-25
-7
-3
-4
-18
-41
-60
-63
-60
-46
-22
-5
-3
-8
-19
-42
-58
-62
-59
-45
-21
-8
-3
-7
-19
-44
-59
-63
-58
-46
-21
-8
-2
-8
-21
-50
-62
-64
-57
-45
-18
-6
-5
-10
-24
-52
-61
-64
-57
-45
-18
-7
-1
-10
-23
-50
-62
-63
-57
-43
-14
-8
-7
-14
-28
-55
-62
-62
-54
-39
-12
-5
-4
-11
-28
-54
-61
-63
-53
-36
-11
-5
-1
-12
-28
-52
-58
-61
-49
-32
-3
4
7
-2
-20
-44
-52
-55
-46
-31
-7
-2
-2
-14
-32
-60
-65
-66
-53
-36
-12
-5
-6
-17
-38
-59
-65
-64
-51
-30
-12
-6
-6
-18
-40
-61
-66
-65
-52
-30
-11
-8
-8
-20
-43
-62
-66
-65
-50
-27
-11
-9
-9
-22
-40
-45
-36
-20
14
59
91
113
128
130
108
74
46
26
21
23
10
-15
-47
-77
-104
-119
-121
-114
-99
-68
-49
-42
-41
-48
-66
-76
-74
-65
-48
-18
-6
-1
-7
-19
-44
-54
-58
-50
-35
-8
1
6
-5
-16
-43
-52
-55
-47
-30
-4
6
8
-1
-13
-40
-50
-53
-43
-24
2
9
12
2
-14
-37
-44
-45
-37
-20
5
15
16
6
-11
-33
-41
-41
-29
-12
15
23
23
14
-2
-26
-31
-31
-17
3
26
34
34
26
10
-12
-16
-14
-2
21
44
50
53
42
23
2
-4
-1
12
33
54
60
60
48
26
5
-1
-1
8
31
45
46
39
22
-1
-20
-29
-30
-21
-1
14
15
10
-7
-31
-49
-55
-52
-41
-16
-4
0
-9
-22
-46
-62
-65
-60
-49
-23
-10
-8
-11
-24
-50
-64
-67
-60
-48
-23
-11
-8
-13
-27
-53
-67
-70
-64
-50
-23
-13
-7
-15
-29
-56
-66
-69
-60
-47
-20
-10
-8
-17
-30
-57
-67
-68
-61
-47
-19
-8
-4
-15
-30
-58
-65
-70
-59
-42
-16
-9
-7
-17
-32
-57
-64
-68
-57
-41
-14
-7
-5
-15
-31
-57
-63
-67
-54
-36
-11
-6
-7
-17
-35
-58
-64
-65
-53
-34
-11
-6
-7
-18
-33
-58
-63
-63
-52
-31
-10
-5
-5
-17
-37
-60
-64
-62
-50
-26
-9
-5
-6
-20
-39
-59
-63
-61
-50
-29
-10
-4
-7
-19
-43
-60
-63
-60
-48
-23
-9
-5
-8
-21
-43
-60
-64
-61
-47
-23
-7
-4
-7
-19
-46
-57
-61
-57
-45
-19
-7
-2
-7
-21
-45
-56
-60
-53
-41
-14
-2
2
-4
-16
-40
-50
-53
-45
-31
-5
5
5
-4
-17
-48
-57
-60
-55
-42
-15
-7
-5
-13
-27
-54
-62
-65
-57
-42
-15
-4
-4
-15
-29
-55
-62
-64
-56
-39
-12
-5
-4
-15
-29
-55
-64
-66
-56
-41
-13
-5
-4
-15
-34
-59
-67
-64
-51
-20
16
36
58
69
70
61
77
93
107
103
103
85
66
34
-10
-61
-100
-118
-107
-87
-66
-60
-56
-62
-78
-94
-94
-84
-65
-40
-15
-10
-8
-15
-36
-55
-58
-55
-41
-19
-3
2
-1
-12
-32
-49
-53
-49
-37
-12
3
6
3
-11
-33
-45
-51
-45
-32
-9
4
10
5
-5
-29
-44
-48
-39
-26
-1
12
15
8
-3
-29
-39
-42
-36
-22
7
19
22
16
2
-24
-33
-35
-27
-10
17
26
30
26
13
-11
-19
-21
-12
4
34
44
49
40
28
2
-5
-6
3
22
48
58
60
50
36
10
4
0
12
26
52
58
56
44
25
-3
-12
-16
-9
5
26
29
27
13
-8
-35
-43
-45
-37
-23
1
3
2
-11
-28
-52
-58
-58
-48
-30
-8
-3
-5
-17
-35
-60
-64
-64
-53
-31
-12
-7
-9
-22
-41
-60
-66
-65
-52
-28
-13
-7
-9
-21
-44
-62
-66
-65
-50
-27
-11
-8
-10
-23
-46
-62
-65
-65
-49
-28
-8
-5
-11
-23
-46
-61
-65
-61
-46
-20
-7
-2
-9
-22
-49
-63
-63
-57
-44
-17
-6
-3
-8
-22
-47
-58
-62
-55
-41
-14
-3
0
-6
-20
-47
-58
-61
-54
-40
-14
-4
-2
-10
-25
-51
-60
-64
-55
-40
-13
-7
-3
-11
-26
-53
-62
-65
-53
-39
-13
-6
-3
-12
-29
-56
-63
-63
-53
-37
-12
-6
-4
-14
-31
-56
-62
-64
-52
-35
-12
-6
-4
-15
-34
-54
-62
-62
-51
-33
-10
-4
-5
-16
-34
-57
-64
-64
-51
-31
-9
-5
-6
-19
-37
-59
-65
-61
-48
-26
-7
-3
-4
-16
-34
-54
-56
-50
-37
-16
-1
5
2
-13
-37
-56
-62
-56
-45
-24
-9
-6
-10
-23
-48
-64
-67
-62
-50
-22
-10
-5
-11
-24
-50
-65
-67
-62
-48
-20
-8
-6
-11
-25
-50
-62
-65
-60
-48
-21
-8
-7
-14
-25
-52
-64
-69
-63
-49
-16
5
23
31
39
33
39
55
86
118
150
136
112
80
48
-2
-38
-70
-94
-98
-67
-61
-61
-70
-78
-100
-105
-101
-84
-59
-26
-17
-11
-15
-31
-57
-63
-61
-49
-30
-5
2
2
-10
-25
-51
-54
-55
-45
-25
2
8
8
-4
-23
-48
-52
-52
-39
-17
5
11
9
-1
-22
-45
-50
-48
-35
-12
9
13
12
-2
-22
-41
-45
-43
-29
-5
15
16
16
4
-18
-37
-41
-35
-19
3
22
27
25
13
-9
-25
-26
-22
-7
18
35
44
41
29
5
-8
-10
-5
11
39
50
58
52
39
15
2
-2
5
17
47
57
60
49
35
6
-9
-14
-10
1
27
32
32
20
3
-27
-40
-49
-40
-30
-3
5
7
-4
-18
-48
-59
-64
-57
-42
-13
-6
-5
-15
-29
-57
-64
-67
-55
-41
-12
-7
-5
-19
-32
-58
-69
-71
-56
-40
-12
-7
-6
-19
-34
-63
-67
-68
-58
-42
-12
-7
-5
-20
-37
-60
-68
-67
-54
-35
-12
-7
-8
-21
-38
-62
-67
-65
-53
-33
-12
-7
-7
-18
-39
-61
-67
-63
-52
-30
-10
-3
-7
-19
-41
-61
-66
-62
-48
-27
-7
-2
-5
-18
-42
-62
-65
-61
-48
-26
-8
-1
-4
-19
-44
-60
-65
-59
-47
-23
-7
-2
-7
-21
-47
-59
-65
-55
-45
-19
-7
-4
-10
-23
-50
-62
-64
-60
-45
-18
-7
-2
-12
-25
-51
-64
-68
-59
-44
-16
-8
-5
-12
-28
-56
-65
-66
-58
-43
-16
-6
-5
-12
-27
-53
-63
-65
-56
-41
-15
-4
-3
-12
-29
-58
-65
-66
-58
-42
-12
-5
-3
-13
-30
-55
-60
-64
-52
-37
-9
0
2
-9
-24
-47
-52
-56
-46
-29
-6
-2
-4
-14
-35
-60
-67
-67
-56
-37
-14
-9
-9
-21
-39
-62
-67
-66
-52
-33
-12
-9
-12
-22
-44
-64
-69
-68
-54
-33
-15
-9
-10
-24
-46
-64
-68
-68
-56
-33
-14
-12
-15
-28
-49
-62
-54
-35
-9
34
69
86
101
110
98
86
63
45
35
44
36
11
-22
-65
-109
-122
-124
-120
-104
-72
-57
-50
-50
-59
-79
-85
-86
-72
-54
-25
-10
-5
-13
-25
-51
-63
-64
-57
-44
-14
-5
-2
-9
-21
-49
-58
-60
-52
-39
-10
1
2
-7
-21
-46
-54
-54
-47
-35
-5
6
6
-4
-18
-45
-51
-53
-43
-25
3
9
8
0
-14
-42
-48
-47
-35
-18
7
14
14
4
-13
-34
-39
-35
-22
-4
20
27
27
19
1
-20
-24
-20
-7
16
38
44
43
33
16
-3
-9
-6
9
28
50
56
54
43
19
2
-5
-2
9
32
45
48
42
26
-1
-23
-31
-30
-17
0
13
15
10
-8
-35
-51
-57
-55
-45
-21
-9
-5
-12
-26
-51
-65
-70
-64
-52
-27
-13
-10
-16
-31
-55
-72
-75
-67
-54
-26
-14
-11
-18
-33
-60
-72
-75
-68
-54
-26
-17
-14
-23
-35
-61
-72
-74
-65
-50
-22
-14
-11
-21
-34
-61
-71
-74
-62
-48
-19
-13
-9
-18
-34
-61
-68
-70
-60
-44
-17
-9
-8
-17
-34
-60
-67
-69
-58
-40
-15
-8
-6
-17
-36
-61
-67
-69
-56
-38
-16
-10
-7
-20
-40
-64
-70
-72
-58
-40
-16
-11
-13
-25
-42
-65
-72
-68
-56
-37
-14
-10
-14
-23
-45
-65
-72
-67
-56
-35
-15
-9
-13
-25
-48
-69
-74
-71
-55
-33
-16
-11
-14
-26
-51
-67
-71
-69
-55
-30
-13
-11
-16
-29
-55
-67
-72
-67
-52
-26
-13
-10
-16
-29
-54
-67
-70
-64
-51
-24
-12
-6
-15
-26
-56
-66
-69
-63
-48
-18
-7
-4
-11
-23
-47
-58
-62
-55
-43
-16
-7
-6
-15
-29
-59
-70
-74
-65
-51
-23
-16
-11
-20
-34
-62
-70
-73
-63
-47
-19
-11
-12
-22
-37
-64
-71
-72
-62
-44
-19
-11
-11
-23
-39
-65
-72
-72
-62
-44
-18
-13
-13
-23
-40
-62
-56
-44
-16
22
65
86
103
109
104
84
58
35
26
26
30
6
-24
-64
-102
-126
-130
-125
-115
-88
-62
-53
-51
-57
-73
-86
-88
-79
-66
-37
-17
-9
-10
-23
-46
-64
-68
-62
-49
-25
-10
-3
-7
-20
-44
-59
-62
-57
-43
-17
-3
1
-5
-16
-40
-55
-56
-52
-37
-13
3
6
-1
-13
-39
-52
-54
-46
-33
-5
6
9
3
-10
-36
-47
-49
-41
-28
1
13
18
13
-1
-28
-37
-40
-30
-13
16
26
30
22
9
-19
-26
-24
-12
3
34
42
46
38
23
-3
-10
-11
1
17
48
56
58
47
30
2
-4
-7
2
17
41
47
45
29
8
-21
-31
-34
-27
-12
10
13
11
-1
-23
-50
-58
-60
-51
-32
-9
-3
-5
-19
-40
-62
-70
-69
-55
-35
-15
-11
-11
-24
-47
-66
-70
-69
-57
-34
-14
-11
-13
-24
-48
-68
-72
-68
-56
-33
-15
-10
-14
-26
-51
-68
-73
-68
-54
-30
-14
-11
-14
-29
-51
-67
-67
-64
-53
-27
-14
-8
-15
-27
-52
-67
-68
-62
-49
-21
-9
-6
-12
-25
-53
-66
-69
-62
-48
-17
-6
-6
-13
-27
-53
-64
-68
-60
-45
-19
-8
-4
-14
-26
-55
-64
-67
-58
-43
-15
