40
72
92
97
83
53
17
-7
-3
3
41
74
90
90
81
44
8
-11
-15
-11
26
61
75
73
63
23
-16
-33
-33
-20
16
41
53
48
44
3
-31
-49
-41
-21
8
36
50
47
35
-4
-35
-48
-44
-34
7
41
49
47
32
-6
-41
-51
-46
-25
10
41
53
46
28
-9
-39
-47
-40
-25
7
39
53
44
24
-14
-42
-51
-47
-25
17
42
46
41
23
-10
-40
-52
-46
-21
12
46
49
41
23
-15
-40
-48
-41
-17
22
48
54
53
18
-19
-39
-44
-41
-8
28
46
56
51
21
-15
-39
-45
-38
-8
31
48
54
46
22
-18
-39
-41
-32
-6
29
49
52
50
14
-17
-36
-40
-34
0
32
45
52
47
13
-26
-45
-44
-35
0
32
50
55
44
13
-20
-42
-52
-47
-1
33
50
51
43
5
-31
-47
-45
-33
6
33
53
52
41
3
-31
-47
-39
-30
10
36
49
54
41
3
-27
-41
-49
-34
5
37
44
39
42
4
-36
-48
-45
-28
15
37
57
46
36
3
-31
-42
-45
-28
16
41
54
46
34
-5
-34
-40
-41
-16
18
46
62
53
40
2
-34
-39
-31
-8
30
61
71
61
39
6
-24
-33
-28
-2
36
55
63
65
35
-3
-30
-44
-40
-11
21
45
55
48
23
-11
-40
-44
-38
-15
23
46
51
47
17
-21
-36
-44
-41
-22
20
43
53
44
13
-26
-46
-43
-38
-9
27
51
53
42
14
-23
-46
-47
-41
-7
27
49
49
43
8
-36
-62
-63
-50
-11
31
65
87
100
81
59
74
83
105
145
172
196
208
186
90
7
-25
-31
-27
5
52
57
52
46
5
-25
-42
-37
-31
4
36
51
49
46
3
-31
-50
-46
-27
5
39
51
49
35
-3
-40
-52
-37
-31
5
42
51
45
28
-9
-34
-45
-38
-24
9
39
49
45
33
-5
-30
-40
-39
-27
17
43
56
53
27
-5
-34
-42
-38
-17
22
49
62
45
27
-8
-34
-44
-36
-7
22
52
65
53
26
1
-32
-34
-32
-1
34
54
62
61
40
-4
-29
-33
-19
6
43
72
71
60
30
-3
-21
-23
-20
16
48
68
73
76
54
13
-12
-19
-5
26
63
80
84
83
53
9
-8
-6
-2
38
76
98
93
92
58
24
7
7
7
46
78
98
101
98
62
16
-1
-6
9
43
73
85
85
76
38
3
-13
-23
-12
23
57
69
67
56
14
-20
-34
-32
-25
10
47
62
62
50
9
-30
-45
-38
-25
12
41
55
54
40
4
-26
-40
-42
-26
12
45
58
49
42
0
-32
-46
-38
-19
19
49
57
47
39
-3
-37
-42
-38
-20
26
52
59
55
36
-3
-35
-45
-38
-13
26
52
56
53
32
-5
-33
-39
-33
-9
30
57
66
51
29
-11
-30
-38
-32
-7
29
56
59
55
26
-11
-35
-41
-35
-5
29
57
59
51
25
-11
-40
-40
-33
-6
31
51
59
49
24
-17
-43
-41
-35
-3
37
51
56
52
15
-28
-38
-41
-34
3
37
55
56
46
18
-18
-37
-38
-31
4
39
54
56
46
13
-24
-39
-38
-34
7
45
61
58
47
16
-22
-37
-36
-27
10
39
58
53
46
8
-25
-42
-42
-22
11
39
59
55
45
9
-31
-40
-36
-25
11
44
57
51
40
4
-25
-37
-39
-19
17
49
60
54
43
2
-24
-39
-35
-12
14
57
67
66
46
7
-22
-31
-24
-2
27
49
64
61
46
5
-21
-28
-29
-10
35
52
71
58
41
-5
-31
-50
-51
-11
22
41
46
49
21
-18
-45
-53
-48
-9
25
50
60
53
18
-19
-43
-48
-44
-17
32
56
60
47
18
-25
-49
-52
-43
-16
29
49
46
37
11
-20
-45
-38
-45
-6
13
20
25
25
6
-16
-21
-7
21
74
141
191
212
205
180
146
135
141
152
160
122
97
85
68
22
-19
-38
-42
-35
8
37
65
61
63
14
-33
-29
-47
-31
0
32
45
50
54
8
-41
-49
-42
-45
8
44
62
47
31
-3
-22
-31
-29
-24
16
50
61
49
45
3
-32
-51
-50
-27
17
45
59
51
34
-11
-31
-56
-38
-32
23
56
59
58
37
-2
-18
-39
-37
-16
20
46
62
60
40
-5
-28
-36
-30
-7
29
57
66
63
34
-3
-25
-34
-29
1
36
62
70
65
41
3
-23
-26
-22
14
49
72
74
77
47
13
-7
-17
-16
19
53
86
98
92
67
20
-3
-8
3
41
73
93
104
92
61
27
1
4
16
40
90
97
108
104
63
17
15
17
14
59
90
105
97
97
57
20
-1
-15
-1
28
70
77
78
76
33
4
-21
-27
-14
19
41
64
61
45
10
-18
-34
-28
-26
25
53
57
58
60
18
-20
-37
-34
-24
13
47
70
65
49
12
-24
-34
-35
-22
14
49
65
63
53
13
-22
-37
-31
-16
26
54
71
60
48
3
-24
-37
-32
-7
25
61
64
54
43
13
-20
-27
-29
-9
29
59
68
66
52
6
-24
-32
-30
-13
29
59
68
60
39
5
-25
-32
-32
-4
37
57
63
63
39
-4
-26
-32
-26
3
29
61
65
55
37
-5
-29
-33
-23
0
34
62
69
64
30
-9
-27
-25
-30
12
39
64
63
53
14
-9
-22
-27
-19
4
47
67
63
56
22
-14
-22
-30
-21
12
40
66
68
59
22
-10
-37
-45
-34
22
45
64
72
57
23
-10
-23
-23
-20
18
46
69
66
59
19
-17
-33
-34
-21
12
47
64
66
52
12
-23
-31
-34
-17
18
50
63
64
51
13
-18
-27
-24
-8
31
63
73
71
61
21
-11
-21
-18
1
33
63
81
74
60
23
-9
-11
-6
9
41
68
81
79
60
15
-22
-30
-29
-12
26
58
67
68
51
8
-22
-29
-27
-5
26
47
67
62
31
-11
-32
-32
-26
-1
32
54
60
60
37
-6
-23
-27
-30
7
44
59
67
54
24
-12
-39
-33
-32
-7
32
53
48
45
12
-26
-53
-51
-21
32
104
142
168
191
183
160
146
145
155
185
214
213
147
88
38
-6
-19
-24
-19
9
42
59
62
74
35
5
-17
-24
-16
22
58
74
75
68
27
-11
-26
-32
-23
23
50
71
72
59
24
-9
-19
-21
-11
30
62
65
71
65
23
-10
-19
-19
-10
27
64
82
75
62
24
-11
-25
-20
-7
34
56
77
68
59
20
-8
-30
-24
-4
37
72
79
69
55
15
-11
-26
-16
20
50
72
90
72
54
18
-14
-24
-13
10
55
79
90
92
65
28
5
0
-4
17
48
87
93
86
66
28
3
-2
3
25
68
85
103
95
70
36
8
8
21
47
90
107
106
104
78
47
29
19
23
56
93
124
117
119
89
46
29
26
33
58
95
112
120
115
78
43
17
13
18
53
87
104
105
93
58
15
-4
0
0
32
65
90
83
78
37
1
-7
-14
-1
29
54
72
81
68
24
1
-25
-18
-5
27
65
79
73
68
32
-5
-20
-19
-13
26
59
79
73
63
20
-18
-30
-28
-10
33
69
75
70
55
12
-10
-20
-13
3
28
68
77
71
66
24
-4
-17
-22
-6
32
67
75
71
54
19
-14
-34
-23
-3
33
62
70
64
45
5
-19
-26
-16
9
38
65
79
66
51
13
-18
-32
-20
7
41
67
72
65
47
5
-23
-26
-17
6
47
71
74
64
36
0
-21
-24
-21
6
43
64
69
61
39
7
-24
-27
-18
9
47
65
69
62
32
-8
-24
-30
-17
12
42
66
73
60
28
-7
-29
-35
-23
9
44
66
84
62
35
-1
-28
-30
-10
26
58
76
56
62
36
-13
-31
-28
-20
21
53
58
71
68
33
-9
-19
-24
-10
23
55
77
71
65
31
5
-15
-19
-9
32
65
78
78
75
34
-3
-5
-3
7
45
72
89
84
73
34
3
-6
2
15
47
73
82
70
50
20
-11
-28
-16
0
36
65
73
70
56
16
-17
-28
-19
2
39
65
71
64
50
12
-17
-26
-13
0
39
61
74
73
46
18
-16
-28
-20
4
42
67
81
68
43
6
-23
-38
-28
-15
15
46
67
78
65
51
49
69
97
148
218
251
264
247
219
178
150
83
43
50
57
81
85
89
55
7
3
-4
-4
25
55
73
81
76
40
3
-15
-13
-18
17
48
69
78
80
43
6
-17
-17
-16
11
50
77
74
79
45
3
-16
-19
-7
30
62
79
75
67
28
0
-12
-12
-3
39
71
82
84
73
35
5
-16
-14
1
43
73
89
88
80
37
4
-9
-5
1
46
77
91
84
71
30
-5
-9
9
15
55
87
96
89
77
40
9
-5
3
18
59
87
105
101
79
41
21
7
13
37
73
99
108
106
86
45
18
0
15
25
82
101
124
120
103
61
37
26
26
53
100
118
118
118
100
65
41
38
34
63
96
122
141
129
98
52
34
39
41
73
109
113
123
116
80
46
20
12
16
43
76
102
108
97
68
20
-2
1
7
42
71
91
98
92
52
15
-7
-7
-1
30
70
79
80
82
43
11
-6
-19
-10
42
72
86
92
79
29
-1
-9
-4
-4
36
68
81
85
80
43
5
-17
-17
-6
36
71
84
79
61
30
3
-8
-10
-6
39
70
90
82
79
30
-5
-17
-8
7
40
73
83
77
56
31
10
-14
-10
5
46
82
87
79
63
17
-1
-10
-14
-5
40
79
82
74
53
21
-12
-17
-13
7
42
76
88
85
63
24
-8
-12
-19
4
47
71
87
85
57
10
-13
-23
-13
12
50
73
80
75
47
15
-10
-20
-13
9
42
62
65
63
44
6
-14
-4
5
19
56
85
90
77
46
8
-15
-16
-19
18
56
75
72
67
40
3
-15
-12
-5
23
60
80
83
68
36
-2
-18
-8
-3
31
59
76
80
77
49
5
-12
-13
-9
35
73
91
90
78
40
11
-9
-9
1
35
75
88
83
80
27
-13
-17
-25
8
29
66
81
76
61
12
-20
-37
-28
-14
31
60
64
69
58
18
-17
-29
-23
-7
19
59
69
62
52
15
-17
-31
-29
-13
24
57
69
65
44
4
-24
-29
-20
-4
25
48
51
44
20
-11
-29
-30
-9
33
97
148
182
203
205
170
149
140
151
184
213
196
136
92
47
6
-19
-28
-15
11
42
64
76
64
37
1
-23
-32
-26
-1
33
63
68
65
36
-7
-28
-36
-28
2
35
62
65
59
30
-13
-29
-34
-27
-1
37
59
64
58
26
-4
-29
-33
-26
5
44
61
57
54
23
-8
-24
-33
-22
12
43
64
64
56
21
-17
-24
-27
-19
12
57
66
64
54
19
-9
-22
-26
-29
2
61
76
70
60
24
-13
-24
-27
-21
19
67
80
75
63
26
-6
-17
-17
-5
28
59
75
78
63
24
-7
-13
-5
6
48
71
90
82
67
33
4
-6
7
20
52
85
96
96
80
46
9
-1
10
24
67
97
106
101
79
43
14
4
8
34
74
98
109
103
71
26
-1
-7
0
23
57
84
88
81
55
11
-17
-22
-20
1
36
61
68
64
36
-10
-32
-37
-32
-2
34
56
55
54
26
-19
-37
-41
-35
-7
28
46
57
50
17
-18
-44
-45
-37
-10
31
47
57
58
15
-18
-34
-51
-34
-6
32
54
54
39
8
-30
-49
-41
-30
2
41
54
53
49
15
-21
-47
-43
-36
6
41
56
51
43
5
-34
-49
-49
-33
12
39
54
52
43
3
-31
-48
-40
-31
2
38
52
46
36
1
-33
-45
-37
-28
14
33
47
45
39
-3
-42
-55
-46
-26
7
42
54
45
30
-14
-43
-57
-47
-27
14
41
51
39
23
-13
-43
-56
-48
-31
5
39
47
41
22
-19
-40
-50
-48
-27
9
38
46
42
13
-22
-53
-57
-50
-26
16
45
48
45
17
-25
-55
-57
-51
-21
15
40
39
35
7
-35
-50
-53
-42
-19
13
32
45
36
7
-29
-49
-56
-40
-10
20
43
54
43
18
-25
-45
-48
-45
-17
21
47
49
41
5
-27
-55
-60
-58
-30
14
28
32
29
-11
-47
-69
-70
-60
-19
7
25
24
17
-11
-46
-68
-67
-60
-26
6
20
21
18
-16
-59
-74
-74
-58
-17
16
30
24
17
-25
-61
-79
-68
-59
-21
9
14
3
-9
-40
-65
-69
-41
0
56
113
151
179
176
141
116
104
120
135
164
137
81
43
14
-22
-48
-55
-52
-39
-6
24
33
23
7
-34
-56
-63
-61
-39
-9
19
28
22
1
-31
-58
-69
-60
-43
-10
18
30
25
2
-31
-60
-68
-68
-41
-4
24
27
23
-1
-39
-60
-66
-61
-37
0
23
33
29
0
-43
-65
-67
-62
-29
8
31
28
27
-7
-45
-70
-77
-63
-28
11
29
36
27
-7
-40
-65
-67
-57
-22
12
35
39
26
-3
-41
-64
-64
-55
-16
16
32
42
37
0
-34
-55
-56
-49
-9
26
44
47
41
4
-32
-50
-50
-45
-3
35
57
49
43
8
-26
-39
-38
-24
13
44
59
58
50
15
-16
-33
-28
-17
22
53
68
68
51
11
-21
-33
-26
-11
26
59
71
61
44
-1
-32
-42
-40
-25
5
34
47
43
28
-11
-45
-62
-55
-46
-12
19
30
24
7
-28
-59
-78
-74
-53
-4
23
28
23
2
-42
-68
-78
-77
-51
-8
20
27
22
-6
-41
-69
-80
-77
-54
-17
9
19
10
-15
-54
-77
-84
-72
-43
-9
18
23
14
-16
-53
-81
-87
-81
-48
-11
14
18
4
-20
-57
-80
-86
-77
-43
-10
13
14
13
-22
-61
-81
-85
-81
-50
-12
8
15
5
-27
-65
-86
-88
-82
-47
-17
1
7
2
-32
-70
-88
-90
-83
-49
-15
3
1
-7
-41
-75
-91
-91
-86
-48
-13
7
1
-8
-44
-77
-94
-93
-84
-41
-10
4
1
-11
-55
-85
-97
-93
-81
-45
-10
5
0
-13
-51
-80
-97
-91
-79
-41
-8
2
0
-16
-55
-83
-93
-91
-77
-39
-5
3
-1
-16
-57
-86
-96
-89
-67
-32
-3
8
3
-15
-54
-85
-93
-87
-64
-30
3
6
4
-20
-57
-84
-91
-82
-56
-22
7
13
9
-10
-52
-78
-84
-79
-53
-17
7
14
7
-23
-66
-88
-95
-95
-67
-33
-8
-3
-8
-39
-76
-100
-107
-102
-65
-31
-13
-6
-12
-43
-81
-101
-109
-99
-68
-32
-14
-9
-12
-46
-80
-105
-105
-98
-61
-34
-13
-16
-15
-49
-84
-105
-108
-102
-71
-45
-31
-32
-36
-65
-96
-100
-74
-46
12
62
108
137
140
106
77
67
76
83
100
64
33
15
-3
-47
-81
-99
-101
-90
-50
-23
-10
-11
-21
-58
-93
-111
-102
-91
-52
-23
-13
-15
-23
-61
-96
-109
-107
-95
-56
-25
-12
-17
-27
-67
-100
-116
-108
-89
-51
-20
-11
-15
-34
-75
-103
-112
-108
-90
-50
-21
-13
-19
-40
-76
-101
-109
-104
-82
-42
-20
-11
-18
-38
-78
-100
-109
-106
-81
-44
-21
-7
-13
-33
-76
-101
-106
-100
-73
-36
-12
-5
-12
-37
-72
-100
-100
-92
-65
-31
-7
-1
-5
-31
-69
-94
-96
-91
-57
-18
5
9
2
-25
-64
-85
-86
-76
-46
-8
14
18
14
-21
-57
-76
-78
-70
-35
0
19
23
20
-16
-54
-68
-73
-69
-33
8
27
28
22
-17
-54
-66
-67
-60
-27
7
20
18
6
-33
-68
-83
-83
-80
-43
-7
4
0
-11
-49
-86
-102
-101
-92
-54
-21
-9
-12
-20
-68
-98
-113
-114
-104
-61
-27
-19
-21
-33
-76
-105
-117
-110
-94
-60
-29
-19
-26
-40
-79
-109
-120
-117
-97
-62
-29
-14
-21
-40
-79
-107
-116
-113
-97
-56
-33
-18
-21
-40
-83
-112
-119
-118
-96
-57
-28
-21
-26
-51
-90
-117
-120
-112
-88
-53
-29
-26
-35
-60
-93
-117
-125
-118
-89
-53
-29
-22
-29
-60
-95
-118
-126
-118
-89
-54
-29
-25
-31
-58
-95
-114
-123
-116
-82
-48
-24
-27
-34
-67
-102
-122
-124
-119
-86
-44
-26
-23
-30
-66
-106
-122
-125
-119
-82
-47
-27
-31
-35
-73
-112
-128
-127
-118
-79
-46
-33
-35
-34
-68
-104
-125
-126
-113
-77
-44
-28
-34
-41
-84
-108
-124
-124
-120
-75
-44
-31
-30
-39
-76
-111
-131
-127
-116
-76
-42
-29
-28
-39
-79
-112
-125
-118
-109
-68
-36
-27
-24
-35
-74
-107
-121
-113
-105
-59
-31
-27
-29
-36
-73
-105
-113
-111
-91
-54
-22
-11
-17
-36
-81
-114
-124
-118
-93
-53
-26
-20
-32
-50
-93
-126
-136
-125
-101
-64
-31
-30
-36
-56
-96
-125
-133
-127
-104
-66
-41
-32
-36
-65
-102
-127
-130
-126
-105
-64
-36
-27
-36
-64
-104
-126
-127
-117
-92
-55
-32
-26
-36
-64
-109
-126
-137
-134
-104
-73
-49
-43
-42
-49
-64
-64
-46
-15
49
99
127
133
127
103
72
48
-2
-58
-49
-28
-16
-21
-31
-67
-107
-122
-120
-118
-82
-49
-31
-35
-40
-71
-107
-125
-122
-114
-76
-44
-25
-28
-36
-76
-115
-125
-126
-116
-79
-47
-37
-33
-44
-79
-110
-127
-124
-110
-76
-44
-25
-33
-49
-88
-119
-129
-123
-112
-78
-40
-30
-29
-43
-80
-111
-130
-121
-112
-70
-34
-23
-28
-43
-85
-112
-121
-112
-95
-56
-31
-22
-26
-44
-81
-111
-121
-113
-95
-61
-29
-19
-24
-45
-78
-110
-114
-111
-92
-51
-20
-11
-20
-40
-75
-108
-112
-103
-76
-42
-13
-5
-9
-35
-72
-95
-103
-94
-64
-27
-1
8
5
-22
-59
-83
-86
-80
-52
-19
9
16
10
-21
-55
-77
-80
-74
-44
-9
11
22
17
-21
-54
-77
-75
-72
-42
-10
12
12
3
-36
-71
-96
-94
-87
-52
-18
-3
-4
-12
-49
-90
-108
-111
-104
-68
-33
-19
-23
-26
-62
-97
-122
-122
-110
-75
-40
-24
-20
-29
-68
-104
-123
-120
-108
-68
-33
-16
-24
-33
-68
-104
-117
-112
-103
-68
-40
-22
-24
-35
-75
-110
-125
-120
-101
-66
-38
-23
-30
-43
-81
-110
-124
-121
-99
-59
-31
-26
-31
-41
-80
-110
-122
-113
-96
-65
-33
-22
-22
-42
-84
-114
-121
-115
-93
-58
-30
-21
-25
-46
-82
-116
-123
-114
-90
-52
-24
-18
-29
-52
-88
-115
-121
-114
-86
-48
-26
-17
-26
-57
-91
-110
-115
-113
-83
-48
-23
-21
-25
-53
-95
-116
-119
-111
-80
-42
-20
-16
-23
-49
-89
-113
-116
-108
-80
-45
-19
-21
-26
-53
-91
-110
-112
-106
-70
-37
-19
-20
-29
-60
-95
-112
-110
-102
-67
-36
-16
-11
-17
-57
-92
-109
-106
-97
-62
-29
-11
-13
-18
-59
-94
-106
-104
-96
-60
-20
-10
-10
-17
-53
-88
-107
-106
-93
-47
-14
2
-3
-12
-51
-81
-94
-92
-78
-39
-9
2
1
-14
-53
-82
-93
-85
-70
-36
1
13
11
-1
-43
-67
-85
-82
-63
-21
8
21
9
-10
-49
-85
-98
-95
-74
-37
-5
8
1
-18
-58
-87
-95
-89
-67
-33
-5
0
0
-20
-62
-84
-94
-86
-66
-28
-2
4
0
-21
-62
-89
-89
-81
-62
-21
2
7
0
-25
-64
-88
-93
-88
-58
-22
-2
-1
-20
-47
-85
-97
-91
-65
-9
45
89
113
133
114
89
73
70
88
129
163
139
79
37
-10
-47
-78
-77
-70
-36
0
16
19
11
-26
-60
-73
-78
-75
-37
-7
16
15
9
-27
-66
-85
-81
-73
-36
-1
18
17
9
-30
-64
-81
-80
-70
-33
0
18
13
9
-31
-68
-86
-83
-65
-34
1
19
20
9
-27
-59
-80
-72
-55
-19
10
22
20
7
-32
-63
-73
-65
-51
-9
17
26
21
12
-25
-51
-64
-62
-51
-9
19
30
30
12
-24
-51
-63
-56
-36
3
30
40
37
21
-17
-45
-55
-48
-30
4
32
52
50
28
-10
-39
-43
-33
-11
18
47
60
58
36
-6
-28
-36
-25
4
38
66
68
68
41
0
-21
-24
-18
14
55
77
82
74
46
7
-19
-21
-9
21
57
75
78
70
38
-1
-25
-25
-23
9
42
61
65
50
19
-21
-43
-44
-39
-10
21
38
43
37
2
-31
-49
-49
-45
-10
22
39
41
31
-2
-41
-57
-55
-51
-7
18
35
37
30
-9
-42
-58
-57
-48
-11
22
42
37
32
-13
-52
-59
-55
-49
-9
25
40
36
30
-11
-46
-57
-50
-41
1
31
41
36
24
-13
-46
-55
-49
-36
3
29
43
43
28
-12
-44
-56
-48
-32
6
35
47
37
28
-10
-42
-56
-46
-32
7
37
44
36
18
-17
-40
-57
-45
-29
7
37
43
41
23
-15
-40
-52
-45
-22
20
40
49
43
17
-15
-39
-48
-40
-16
22
45
44
43
23
-18
-41
-49
-42
-14
21
45
53
44
19
-22
-44
-47
-41
-10
25
49
51
44
17
-23
-39
-44
-40
-6
33
49
48
44
11
-28
-45
-43
-39
-1
35
51
58
54
9
-29
-40
-43
-32
1
40
58
52
43
10
-24
-43
-45
-35
2
37
53
54
47
9
-26
-46
-45
-28
7
40
57
57
45
3
-33
-47
-43
-32
7
42
54
55
47
12
-22
-35
-32
-19
19
46
57
53
42
11
-18
-32
-29
-16
25
60
77
63
51
12
-17
-28
-19
-9
23
54
66
61
43
0
-30
-39
-35
-17
25
49
59
55
35
-7
-35
-47
-36
-10
24
52
58
51
29
-8
-37
-42
-33
-11
27
52
55
53
28
-6
-31
-41
-29
-6
29
49
56
54
28
-12
-36
-43
-33
-5
32
54
50
39
6
-31
-50
-47
-32
25
83
122
151
166
157
136
122
122
132
176
222
224
163
105
47
5
-14
-22
-16
15
51
69
72
65
25
-6
-29
-28
-24
12
50
64
65
61
27
-11
-28
-30
-21
11
47
64
65
61
22
-14
-28
-25
-18
19
46
65
64
57
18
-13
-33
-29
-9
28
55
72
70
64
20
-15
-25
-21
-9
28
59
75
69
54
17
-17
-27
-21
-3
38
64
75
68
51
17
-13
-25
-19
-1
43
69
78
72
56
17
-12
-23
-14
2
40
74
85
79
53
14
-5
-12
-7
15
59
82
87
82
60
24
-1
-9
-4
22
58
91
99
96
67
33
10
2
13
39
74
96
102
96
72
42
17
14
22
53
91
111
117
111
83
41
22
16
24
55
89
111
118
109
75
36
15
10
13
44
77
93
99
93
53
17
-4
-9
-2
32
65
81
79
75
35
-3
-23
-20
-15
22
57
73
75
65
27
-5
-23
-21
-16
22
58
71
69
59
21
-14
-32
-29
-25
24
54
71
71
57
25
-11
-27
-23
-7
22
53
72
63
54
17
-15
-29
-22
-8
29
60
72
69
56
13
-16
-23
-17
-10
27
60
74
76
60
17
-8
-23
-24
-3
35
64
77
74
53
11
-12
-22
-16
3
40
69
78
69
49
12
-15
-23
-18
5
46
72
80
71
50
16
-11
-24
-15
11
45
70
79
71
47
7
-15
-23
-10
16
50
72
77
70
47
11
-14
-19
-9
18
54
75
75
71
42
1
-19
-19
-11
20
53
80
83
78
47
7
-16
-16
-11
18
51
69
73
75
41
1
-16
-14
-9
25
61
80
76
73
30
-9
-22
-18
-10
29
62
77
75
73
36
1
-21
-16
-11
25
66
77
76
71
35
1
-18
-21
-12
29
61
75
70
62
30
-1
-18
-12
-3
34
66
77
71
60
21
-10
-19
-21
-8
32
66
76
74
59
25
-7
-17
-14
-1
35
73
84
76
64
18
-3
-14
-9
10
49
79
90
87
68
27
3
-8
1
24
54
89
99
92
69
28
-4
-7
-2
20
60
86
94
91
63
22
-4
-22
-15
10
47
70
81
79
51
15
-11
-15
-12
10
46
72
78
72
45
6
-20
-26
-10
13
50
80
82
74
50
9
-14
-17
-8
26
55
76
78
69
41
6
-9
-10
-11
26
55
70
71
56
19
-18
-25
-15
-3
57
109
148
171
190
176
154
147
155
161
203
245
248
177
128
68
27
8
7
5
41
78
96
92
84
48
15
-9
-4
9
48
80
97
97
84
45
11
-4
2
17
49
83
97
93
85
42
9
-1
7
13
49
78
93
93
80
39
6
-9
2
22
58
86
103
92
78
33
5
-1
3
17
60
89
104
99
78
33
6
5
10
27
64
94
103
98
79
40
8
0
8
29
67
101
109
101
81
39
15
10
16
40
77
98
106
102
80
48
20
18
31
63
92
96
95
91
78
41
22
17
20
47
82
113
125
111
85
46
23
24
34
67
105
127
128
124
92
54
35
29
38
80
115
135
133
130
93
61
41
44
49
83
118
134
138
124
90
50
31
29
38
74
98
114
113
107
70
28
7
13
27
61
86
108
103
91
53
15
-1
-4
7
51
80
97
91
80
43
12
-1
3
8
53
78
92
88
78
40
9
-5
0
12
44
76
92
90
72
38
1
-10
-4
10
48
81
89
85
71
35
-2
-8
0
15
53
89
99
90
69
31
0
-6
-3
21
58
81
93
88
68
35
4
-3
-4
25
63
83
94
84
63
24
3
0
4
27
60
88
94
84
65
22
-2
-8
-1
26
68
91
96
87
58
16
-5
-13
-8
23
63
87
93
87
53
18
-6
-8
-2
30
65
87
89
83
54
13
-5
-7
-2
33
67
84
92
83
52
18
0
-3
1
39
76
85
83
81
44
11
-5
-6
4
42
74
89
88
78
48
12
-10
-4
-5
36
71
87
88
80
44
10
-5
-10
-5
40
71
91
86
73
38
4
-12
-6
5
46
77
89
85
77
40
6
-7
-5
6
46
77
97
91
70
31
3
-5
-4
12
52
76
88
88
73
30
-4
-11
-3
16
56
80
98
87
71
32
-4
-12
-4
27
61
91
98
91
72
36
10
0
8
34
73
97
107
101
77
40
7
3
12
35
70
102
107
98
71
29
5
0
1
27
65
87
94
87
60
26
-1
-7
2
29
66
85
91
84
55
18
-4
-8
2
33
74
94
92
81
58
13
-8
-10
-3
30
65
89
88
79
47
16
0
-9
3
36
74
92
97
85
44
0
-28
-26
-21
31
79
114
140
154
133
126
127
148
166
203
238
268
268
230
127
55
20
9
19
53
83
91
86
86
50
11
2
4
10
53
90
99
89
82
37
4
-6
-2
8
51
84
95
89
77
38
7
-7
-2
15
55
84
95
91
75
40
2
-5
4
18
58
87
99
90
72
34
9
-5
1
21
61
93
103
98
75
36
5
-7
-1
26
69
94
96
93
73
32
7
1
6
30
66
96
105
99
74
34
14
4
8
41
76
103
108
103
80
38
12
6
16
40
78
105
107
103
79
43
20
18
25
59
95
110
121
112
84
54
31
27
38
71
110
129
130
124
84
56
42
44
51
79
117
140
149
138
104
69
50
49
57
97
129
148
142
137
96
59
39
40
48
85
116
130
130
117
76
44
27
30
38
70
105
115
111
97
60
24
10
15
23
57
90
106
107
89
46
12
0
8
15
53
89
102
93
81
44
17
3
2
18
61
93
102
95
83
46
9
-1
11
24
59
95
101
93
84
46
16
1
11
30
70
94
100
86
66
37
11
0
13
34
69
94
102
100
75
39
10
-1
11
37
73
95
102
97
73
32
6
6
12
35
71
99
102
91
66
35
8
0
5
33
64
92
98
96
65
27
5
5
12
43
78
99
98
92
62
26
4
8
8
43
79
98
103
93
62
27
9
9
13
46
81
97
96
90
51
19
6
4
7
45
79
94
91
90
54
21
4
-4
5
48
82
98
96
85
53
19
5
6
10
45
86
97
88
78
48
17
-1
7
14
56
85
101
100
85
48
12
-4
6
18
57
85
96
93
81
40
10
-5
3
20
53
84
95
93
79
40
7
-5
2
22
58
86
94
89
75
39
7
1
8
23
58
87
91
89
71
38
9
-1
9
29
67
95
113
103
79
43
17
12
10
35
74
105
108
103
81
39
16
8
13
40
76
103
107
103
76
32
11
1
0
31
70
92
101
97
69
33
5
-8
6
32
70
99
94
89
57
22
-3
4
11
44
80
95
93
83
52
18
-3
-2
6
45
81
89
97
93
56
20
-4
4
7
41
87
102
95
76
41
-2
-21
-13
4
52
102
136
151
168
151
143
148
156
166
209
249
275
267
207
111
44
24
22
29
66
96
104
102
95
54
24
6
9
19
59
91
102
100
89
49
16
2
14
24
60
86
103
99
82
41
11
3
5
16
60
95
105
96
75
43
11
7
13
30
63
91
103
96
77
39
12
4
10
29
70
95
106
99
73
37
13
1
13
35
72
99
108
104
78
37
14
10
20
46
79
103
109
102
75
31
10
14
18
43
85
105
107
103
73
38
16
14
22
56
92
114
119
108
75
43
23
24
34
61
97
120
124
124
84
48
34
32
40
78
112
132
130
127
93
56
40
43
50
89
127
140
142
135
98
67
53
49
63
92
127
139
147
132
89
58
45
48
50
87
119
131
130
119
73
41
23
26
33
66
96
116
107
94
47
14
1
7
22
64
92
101
95
87
46
12
-2
3
18
56
82
88
90
80
35
5
-6
-1
15
54
87
95
90
73
32
5
-8
1
23
62
92
105
92
67
24
0
-5
-1
29
63
90
97
90
66
24
3
-7
-1
24
63
90
96
92
61
24
8
-1
0
27
66
86
89
86
62
26
3
2
3
31
71
89
88
85
53
16
-2
-4
7
41
70
87
93
84
51
19
-3
-7
2
33
70
94
94
86
51
13
-2
-7
-5
34
72
87
84
83
46
8
-7
-4
4
37
70
88
88
82
43
8
-12
-11
3
38
69
93
96
80
41
-1
-11
-4
12
53
74
85
79
66
34
0
-14
-8
5
47
78
87
83
71
32
2
-11
-6
7
41
74
87
79
65
31
-3
-20
-11
5
46
73
87
79
67
26
-3
-12
-8
13
53
74
85
77
59
22
-1
-19
-8
17
55
83
89
79
60
21
-3
-13
-4
18
49
81
87
80
58
19
-3
-10
-5
20
56
79
84
79
50
17
-6
-8
4
30
65
87
95
90
65
31
3
2
5
38
72
96
101
96
65
27
0
-6
12
47
84
96
98
90
57
24
5
-5
-1
33
68
92
89
83
45
9
-6
-12
-2
40
69
96
94
83
51
13
-9
-17
-8
32
67
88
89
80
47
10
-8
-12
4
41
76
93
91
76
42
10
-8
-5
4
37
74
93
85
71
30
-5
-27
-20
1
49
96
134
145
155
143
139
146
156
165
205
243
261
251
193
91
31
10
18
30
66
91
93
85
73
36
1
-7
6
23
53
86
97
87
69
27
-1
-5
-1
18
57
79
93
85
64
27
-8
-10
1
24
54
88
95
89
65
28
-1
-7
-4
20
60
86
94
86
64
22
-1
-4
-2
26
65
89
95
82
55
23
-2
-5
3
28
65
93
97
91
63
22
0
-4
9
37
68
90
97
95
57
23
3
1
6
42
87
102
97
87
63
26
9
1
10
54
91
113
108
98
60
25
10
9
20
54
91
112
112
106
65
30
15
20
30
74
111
126
127
117
77
43
29
32
45
88
117
135
130
117
80
48
35
43
55
92
124
140
136
121
80
43
25
22
38
79
107
120
113
102
57
25
12
17
30
60
91
99
93
77
34
6
-14
-9
13
61
94
98
86
61
25
-1
-7
3
18
54
84
92
84
61
22
-12
-11
0
21
58
85
90
75
57
17
-8
-18
-9
18
48
76
82
79
59
19
-8
-8
-5
25
62
84
88
79
55
19
-10
-9
-8
25
59
81
88
84
57
24
-5
-22
-17
30
61
85
85
81
50
20
-6
-16
-8
28
59
82
77
66
41
4
-10
-9
1
38
69
81
75
69
38
8
-11
-17
-9
33
66
88
87
77
37
2
-11
-8
-6
33
71
87
83
69
36
5
-15
-14
3
45
73
81
77
69
30
-4
-15
-9
6
47
75
86
87
75
31
-5
-20
-9
14
48
81
90
84
66
29
3
-8
-8
9
46
74
86
85
60
21
-8
-15
-2
20
49
76
88
83
62
23
-9
-16
-6
14
49
81
90
78
61
21
3
0
-1
21
54
76
84
85
66
24
-1
-9
-5
24
58
82
88
76
58
20
-10
-14
-3
16
45
76
89
84
57
13
-12
-18
-4
21
57
86
89
82
52
19
-7
-7
-2
31
67
96
102
89
57
15
-4
-1
11
41
77
99
100
91
57
16
-6
-8
9
46
81
95
97
83
53
9
-13
-6
1
38
69
81
86
78
43
3
-18
-15
-4
38
65
86
88
77
32
-3
-15
-9
2
41
77
88
85
77
41
5
-11
-13
4
39
63
82
77
67
28
-3
-13
-2
6
49
80
92
83
61
13
-13
-30
-17
4
46
82
117
134
139
114
111
119
136
161
200
236
257
250
190
89
33
8
4
18
58
86
90
84
70
28
0
-2
-1
25
60
80
92
82
62
24
2
-8
-7
28
65
86
89
84
59
23
-3
2
5
31
66
87
89
78
46
11
-4
-13
-7
27
66
88
94
86
60
22
1
-6
2
34
63
84
86
79
47
14
1
-1
4
39
74
90
91
89
50
17
4
2
4
39
71
94
99
97
60
29
8
0
5
39
82
99
98
97
60
22
-5
3
21
56
88
106
102
89
55
27
13
17
26
64
101
117
107
97
62
28
14
16
30
71
105
120
117
110
69
40
29
34
45
80
116
129
129
119
81
50
31
38
55
92
125
136
127
116
75
46
29
36
56
83
107
115
111
89
58
26
11
9
31
72
99
101
96
75
35
8
-3
5
27
60
83
87
88
71
32
2
-9
-1
17
48
78
87
84
59
24
1
-4
-4
29
62
84
88
79
47
13
-8
-13
-5
26
63
85
89
81
60
17
-4
-7
-1
27
65
83
83
87
57
14
-3
-6
0
29
69
89
93
91
50
14
-7
-7
2
42
79
94
86
81
38
7
-4
-5
1
36
72
89
88
84
48
8
-8
-10
-4
37
72
85
84
80
45
13
-6
-8
3
40
72
83
83
69
39
8
-6
-5
6
47
79
88
86
71
33
2
-12
-2
13
42
79
92
87
73
38
6
-6
-3
18
55
76
91
85
67
29
1
-15
-9
6
47
81
95
86
65
26
1
-5
0
20
54
74
87
78
62
30
2
-8
-2
19
51
82
87
78
58
24
-5
-15
-8
13
55
86
84
75
55
18
-10
-16
-12
21
54
77
87
83
50
11
-12
-13
-7
24
59
84
85
83
46
14
-4
-5
-2
31
76
101
107
98
63
17
-2
0
7
41
73
94
96
95
65
23
-2
-5
5
38
71
92
93
91
47
9
-10
-14
-1
35
65
80
81
69
34
0
-21
-22
-6
33
65
83
78
72
30
3
-16
-17
-5
34
67
83
75
63
30
-3
-18
-15
-3
39
68
78
77
60
22
-6
-15
-10
2
33
66
66
56
42
7
-17
-21
-5
23
81
131
161
178
185
164
138
130
139
167
205
209
157
114
78
25
-3
-17
-8
14
53
82
81
73
50
14
-11
-16
-8
14
51
77
77
75
52
17
-6
-13
-6
14
49
80
84
79
53
17
-8
-15
-14
17
55
77
85
81
56
18
-4
-7
3
26
54
73
81
74
42
7
-7
-13
-6
25
66
83
86
79
40
8
-5
-11
-8
29
66
86
88
79
51
13
-7
-9
-4
36
70
91
90
79
44
11
-4
-1
9
47
76
94
95
85
46
14
-2
3
11
51
88
108
107
94
44
19
6
9
14
53
93
113
111
101
63
28
17
21
34
72
103
119
115
107
70
37
24
35
52
92
119
129
127
113
74
45
28
40
58
89
117
128
130
109
71
42
15
25
46
84
111
117
107
83
48
18
5
8
29
62
92
100
96
73
33
-1
-11
-3
16
47
75
88
76
51
22
-4
-10
-5
16
55
79
81
80
45
7
-19
-24
-9
22
58
81
84
75
44
9
-11
-17
-7
23
57
73
81
76
42
6
-16
-20
-17
12
53
70
74
76
42
7
-7
-11
-6
25
58
71
80
75
41
3
-13
-15
-12
20
55
70
74
79
46
11
-12
-19
-9
29
58
80
77
67
28
2
-8
-1
6
35
64
78
75
69
32
-4
-19
-20
-7
40
72
82
74
64
25
-8
-15
-4
4
35
73
83
75
61
23
-5
-17
-14
0
37
70
83
80
62
26
-8
-20
-16
1
44
75
86
75
59
24
-8
-24
-17
4
41
71
82
71
53
19
-9
-21
-11
9
40
69
81
74
52
19
-9
-15
-9
13
49
69
80
76
57
18
-7
-13
-12
13
54
75
82
77
55
11
-17
-23
-16
18
59
77
82
75
48
12
-10
-19
-17
17
58
82
83
86
55
21
-3
-4
2
35
73
93
100
93
63
17
-8
-10
2
32
66
90
90
82
46
11
-7
-9
0
33
77
91
90
79
40
1
-16
-14
-11
25
58
77
80
73
34
0
-13
-11
-7
34
63
78
81
68
32
-1
-17
-14
0
34
67
83
82
70
28
-9
-21
-13
-2
35
65
82
79
68
32
-2
-27
-31
-18
25
62
83
81
92
75
60
69
102
139
189
224
235
235
230
193
146
73
34
32
64
90
94
83
60
23
4
-9
-9
14
48
70
80
80
61
26
-5
-16
-10
11
46
71
80
73
58
22
-5
-14
-9
19
58
76
82
79
53
14
-5
-12
-9
23
60
80
85
77
48
12
-6
-6
-3
21
48
77
85
74
49
5
-13
-21
-4
29
64
91
92
82
47
8
-8
-12
-4
32
67
87
89
85
52
11
-8
-3
5
39
66
84
91
83
49
16
-3
-2
8
46
80
96
91
81
42
12
0
2
8
48
87
104
97
87
61
23
11
12
26
65
94
107
107
100
64
29
17
27
36
71
104
123
117
110
71
37
29
32
46
85
115
126
124
102
61
31
25
28
39
78
109
117
108
91
48
16
4
5
25
59
81
95
88
71
32
6
-1
-1
19
51
72
82
79
57
18
-7
-15
-9
14
48
70
81
79
51
9
-15
-19
-11
15
49
72
78
71
42
6
-14
-22
-15
12
53
74
79
72
44
12
-16
-18
-13
16
57
80
86
81
43
5
-6
-17
-11
18
47
73
79
75
42
6
-11
-18
-17
19
59
75
79
69
36
0
-20
-21
-12
19
52
72
72
68
37
0
-21
-24
-20
23
56
71
71
60
24
-8
-27
-23
-15
20
56
71
70
58
20
-12
-22
-24
-12
23
56
70
66
53
15
-17
-34
-22
-12
23
60
69
64
56
13
-20
-29
-21
-5
26
55
69
65
53
11
-16
-26
-22
-5
33
60
74
65
47
14
-13
-25
-18
-1
36
64
73
68
51
10
-11
-18
-16
7
39
68
77
70
48
18
-11
-22
-13
5
45
75
78
73
51
14
-9
-13
-8
20
60
79
85
81
52
19
-4
-12
-6
21
58
79
77
83
51
13
-8
-13
-7
21
55
73
76
64
36
-3
-21
-18
-19
16
48
74
73
63
29
-12
-25
-23
-19
14
50
67
66
60
30
-4
-29
-26
-19
19
56
76
71
61
27
-8
-22
-23
-14
26
55
68
65
56
25
-12
-35
-38
-30
7
46
72
91
103
79
64
70
96
127
178
220
230
234
231
189
114
38
14
18
53
80
86
77
65
28
-3
-20
-11
2
30
63
78
73
57
19
-13
-25
-20
0
35
63
74
68
55
16
-15
-21
-15
-1
40
70
76
69
48
15
-12
-24
-11
5
44
73
83
72
49
9
-19
-24
-17
8
47
73
78
74
54
10
-15
-21
-15
15
51
72
81
70
48
10
-14
-20
-10
19
55
81
87
78
48
15
-13
-15
-4
30
61
82
87
79
53
22
3
-6
3
33
67
88
90
90
56
19
-3
-2
6
38
80
100
99
91
59
25
11
9
16
55
88
108
110
108
66
32
13
18
26
67
99
117
121
112
75
43
24
32
43
78
108
122
120
111
75
41
25
22
27
60
96
110
106
95
55
19
5
6
16
56
84
88
83
74
31
1
-15
-12
2
37
68
81
75
57
22
-13
-25
-16
1
45
67
78
69
49
11
-16
-27
-21
1
36
61
68
65
53
14
-17
-22
-20
1
37
66
73
69
42
11
-20
-27
-19
4
40
66
71
68
42
5
-17
-26
-19
10
41
67
71
65
35
1
-18
-22
-20
10
42
74
71
63
36
-5
-20
-23
-19
10
45
66
70
62
33
-2
-20
-30
-26
10
45
68
72
66
38
-1
-20
-20
-19
16
46
67
71
64
31
-4
-24
-23
-20
19
53
72
74
62
26
-11
-25
-24
-16
20
52
75
67
61
27
-13
-27
-26
-13
21
55
71
65
60
22
-12
-23
-19
-9
26
57
69
69
57
23
-11
-25
-20
-12
26
61
74
67
54
18
-14
-22
-15
-3
37
67
77
73
59
18
-10
-20
-6
11
48
76
88
80
63
23
-4
-19
-15
3
41
76
84
69
48
4
-21
-22
-16
0
34
57
69
63
39
0
-22
-29
-30
-6
35
56
66
59
38
0
-25
-30
-23
-1
38
62
66
59
34
-5
-25
-33
-23
7
37
62
67
62
29
-7
-22
-29
-30
-2
28
44
50
52
31
10
13
29
57
111
171
208
219
221
185
155
145
137
89
66
80
87
83
73
36
-1
-21
-15
-5
23
48
68
71
65
27
-8
-25
-23
-12
20
57
69
73
57
25
-8
-27
-26
-14
25
54
69
70
63
21
-12
-24
-23
-12
28
62
72
66
55
20
-8
-20
-18
-10
27
58
72
67
57
23
-12
-23
-18
0
37
65
74
75
56
21
-8
-23
-14
8
40
69
79
69
52
15
-9
-12
-5
9
46
74
87
80
58
20
-10
-19
-9
21
54
79
88
80
62
26
-1
-8
-2
24
63
85
91
89
63
30
9
-2
5
35
68
93
105
100
73
38
17
14
31
52
86
111
115
106
81
46
26
26
36
64
93
117
124
117
83
46
25
19
25
58
93
111
114
104
66
31
7
5
12
45
77
93
93
82
46
12
-11
-16
-2
39
68
86
81
73
38
-1
-18
-16
-5
34
62
77
74
65
29
-6
-26
-18
-4
29
59
75
71
60
23
-12
-24
-19
-9
29
60
80
79
66
27
-5
-18
-19
-2
37
70
76
71
59
20
-7
-22
-24
-11
30
64
78
74
57
17
-20
-27
-26
-7
34
61
71
66
52
7
-22
-28
-19
3
39
67
71
63
38
2
-22
-30
-23
-2
34
63
75
65
41
7
-18
-28
-21
2
38
62
66
64
42
4
-21
-26
-20
4
39
64
69
62
37
2
-21
-25
-24
4
36
62
70
68
30
-5
-29
-30
-21
10
47
67
69
64
36
-3
-21
-27
-21
13
47
66
70
62
31
-6
-22
-25
-18
19
54
76
72
66
29
-8
-19
-24
-22
17
59
76
69
60
25
-6
-26
-21
-11
29
58
69
70
64
23
-10
-18
-19
-8
31
66
80
75
69
29
-10
-21
-13
-2
36
69
86
80
72
33
2
-11
-9
2
39
71
79
77
64
23
-14
-30
-23
-6
28
60
76
69
47
13
-21
-33
-25
-3
32
62
67
63
43
5
-20
-32
-18
-2
30
59
69
61
42
6
-22
-27
-23
3
34
56
71
63
41
4
-23
-27
-23
1
33
56
60
48
21
-18
-38
-41
-23
16
76
119
148
160
156
132
114
119
132
170
206
227
193
119
66
21
-7
-17
-11
21
53
75
79
70
38
-3
-24
-20
-14
21
50
68
73
70
32
-6
-25
-24
-16
17
49
71
67
61
24
-6
-20
-23
-18
23
55
72
73
63
26
-12
-24
-23
-14
27
60
76
71
63
26
-6
-24
-20
-12
22
59
76
74
62
29
-5
-22
-18
-6
31
64
74
71
64
27
-7
-20
-18
-6
35
68
77
71
58
24
-7
-19
-13
2
40
70
81
72
62
25
-9
-15
-11
10
46
77
88
82
63
27
0
-14
-10
18
61
92
105
93
73
35
5
-4
5
31
71
97
100
92
71
35
13
10
14
41
79
100
109
107
86
46
23
15
22
51
87
105
112
104
78
37
17
8
12
43
73
84
81
73
49
15
-5
-15
-9
19
55
73
73
65
39
4
-17
-18
-20
13
43
56
62
55
22
-18
-34
-36
-33
6
40
54
56
49
15
-16
-30
-24
-21
13
45
59
59
51
19
-13
-35
-36
-23
17
49
74
68
60
21
-20
-33
-34
-24
21
55
66
61
51
12
-19
-36
-31
-18
19
51
62
57
45
8
-24
-40
-32
-22
19
56
70
65
50
9
-27
-46
-33
-10
25
52
63
57
44
9
-24
-33
-27
-5
30
61
70
59
40
7
-24
-32
-28
-5
27
49
56
54
35
0
-31
-39
-29
-3
27
49
58
59
29
-7
-30
-31
-25
2
44
59
64
57
22
-19
-37
-36
-26
6
37
61
64
51
24
-8
-31
-33
-29
11
51
65
66
54
21
-19
-40
-44
-33
5
40
59
64
55
24
-18
-39
-39
-37
3
39
61
64
59
26
-10
-31
-33
-25
9
56
71
69
63
28
-10
-25
-23
-17
20
51
73
65
59
24
-10
-28
-25
-21
20
51
62
61
47
8
-26
-46
-44
-26
7
44
55
57
48
12
-20
-35
-35
-22
16
45
57
55
42
6
-24
-33
-29
-18
19
48
50
47
35
-3
-35
-40
-35
-21
15
48
59
54
39
3
-29
-42
-39
-25
8
35
41
44
35
13
5
20
39
80
131
179
199
197
172
143
123
112
82
53
62
77
79
65
36
3
-24
-32
-26
2
35
60
66
56
30
-4
-29
-35
-22
7
38
59
62
55
26
-14
-34
-34
-32
-2
37
61
62
60
29
-7
-29
-38
-23
4
40
59
61
59
29
0
-20
-28
-27
6
42
64
66
53
26
-12
-29
-29
-21
18
51
64
66
61
24
-11
-22
-23
-21
23
54
68
61
57
23
-13
-32
-27
-13
28
62
80
76
69
33
-6
-25
-22
-10
33
67
78
69
64
29
-2
-9
-6
4
42
71
81
77
71
39
10
-1
1
18
52
87
98
90
78
39
7
-5
1
22
64
98
108
109
89
47
20
11
18
43
79
108
116
109
84
40
19
12
16
39
80
109
114
97
70
31
6
1
7
28
57
84
89
82
62
21
-11
-17
-14
16
53
82
84
74
49
7
-17
-19
-11
16
50
73
73
69
36
3
-13
-17
-5
22
58
77
83
74
41
2
-19
-21
-7
28
63
78
84
75
46
15
-8
-9
-2
36
67
85
87
83
45
12
-3
-4
-1
31
65
87
89
79
46
11
-11
-13
-3
42
70
88
83
68
28
-5
-23
-19
-6
36
68
80
72
64
29
-9
-25
-19
-12
26
60
73
68
53
14
-20
-36
-34
-21
21
60
70
60
45
6
-30
-40
-37
-22
25
52
65
59
43
2
-24
-37
-34
-13
20
45
52
49
30
1
-25
-34
-34
-20
17
47
62
58
33
-10
-39
-50
-38
-12
25
53
58
56
30
-10
-42
-51
-39
-7
35
59
60
49
24
-16
-40
-46
-41
-13
27
56
65
55
32
-11
-41
-46
-38
-5
33
54
56
50
17
-18
-39
-45
-39
-11
30
47
50
47
19
-14
-32
-37
-31
3
41
60
61
58
19
-15
-31
-31
-27
8
40
62
60
55
25
-6
-23
-27
-20
17
52
76
77
71
31
-12
-35
-31
-25
8
40
56
58
40
4
-27
-38
-31
-21
10
40
53
48
33
-2
-26
-38
-30
-24
13
41
54
54
40
-6
-36
-53
-48
-32
11
48
58
55
37
-5
-36
-46
-37
-23
8
35
51
45
33
-8
-37
-56
-56
-44
-7
28
44
48
46
34
25
35
61
108
160
202
209
204
187
153
117
60
12
11
36
59
62
58
32
-8
-27
-38
-37
-15
26
54
56
54
26
-13
-37
-41
-37
-9
25
48
49
43
20
-17
-42
-40
-33
-2
29
52
56
54
26
-10
-37
-44
-43
-8
27
51
57
49
15
-19
-39
-41
-31
1
37
55
52
45
16
-19
-38
-43
-34
10
42
60
61
55
16
-19
-37
-35
-24
6
43
59
57
48
8
-24
-37
-29
-21
20
59
70
68
61
17
-21
-33
-29
-15
27
58
74
67
55
19
-14
-26
-25
-9
31
63
82
73
62
21
-7
-13
-9
4
41
71
86
86
73
36
5
-7
-3
7
48
84
101
94
76
42
14
0
10
33
65
92
98
93
72
38
10
4
6
29
62
84
91
87
66
28
0
-8
-7
17
49
73
76
69
40
0
-26
-35
-20
4
34
58
64
53
29
-8
-32
-34
-28
1
35
53
54
47
16
-12
-36
-32
-21
8
41
57
52
52
28
-9
-23
-35
-31
-1
31
52
61
57
28
-7
-33
-41
-38
-3
33
59
62
54
13
-20
-41
-45
-34
0
37
64
57
38
1
-36
-46
-38
-40
11
48
48
48
59
31
-17
-38
-44
-24
29
55
65
53
39
8
-26
-38
-30
-20
18
56
66
54
35
-1
-33
-46
-37
-16
19
50
62
53
36
-3
-30
-45
-41
-25
9
42
54
50
35
-2
-30
-34
-28
-23
16
44
57
54
35
-2
-29
-40
-39
-14
21
46
53
46
29
-7
-37
-46
-40
-18
19
47
52
41
22
-15
-39
-42
-42
-13
25
56
53
53
26
-13
-34
-45
-40
-13
26
49
60
55
31
-8
-41
-49
-44
-15
25
60
64
58
25
-14
-45
-44
-39
-4
38
63
61
53
10
-28
-48
-47
-42
-3
38
61
65
57
19
-17
-39
-38
-35
-2
35
49
60
51
24
-8
-25
-24
-19
19
47
73
68
63
24
-8
-24
-16
-18
15
42
54
53
47
14
-22
-41
-44
-31
6
46
58
51
40
4
-35
-47
-38
-23
19
50
62
52
41
1
-29
-35
-33
-24
15
37
50
49
36
2
-31
-43
-36
-17
25
53
60
49
31
-5
-31
-46
-43
-26
17
49
59
53
30
-12
-48
-60
-58
-17
41
92
120
130
133
122
109
110
122
151
197
233
229
187
97
22
-18
-27
-22
3
30
61
75
69
41
-4
-33
-40
-37
-2
38
61
61
54
28
-10
-35
-40
-36
-8
31
59
64
55
24
-15
-36
-35
-25
3
41
65
62
51
16
-19
-30
-26
-19
16
48
65
63
56
21
-18
-34
-36
-30
6
44
63
62
60
25
-10
-28
-26
-20
12
43
58
55
53
21
-6
-20
-16
-8
30
55
68
63
56
27
-9
-22
-18
-11
25
57
75
74
69
31
2
-12
-8
2
42
67
80
73
66
23
-11
-22
-15
10
56
89
94
91
69
31
-3
-10
-2
17
58
89
99
92
79
40
17
-1
10
29
66
99
109
104
89
55
29
18
19
39
77
103
111
104
75
37
8
-2
4
27
65
93
101
94
63
27
-6
