-3
13
7
-1
5
11
8
-5
3
-3
-1
17
21
11
14
20
13
13
19
3
-20
-10
9
23
17
21
11
-2
22
0
0
1
7
9
0
13
11
4
0
6
16
6
3
-14
4
24
9
10
9
14
-5
-3
1
-3
0
19
15
2
7
0
12
-2
0
0
0
-11
3
19
29
6
6
18
11
26
16
4
8
-19
12
-2
-4
7
-9
-5
3
17
1
2
0
17
-1
12
17
1
-6
10
9
-2
3
7
20
-8
-40
-6
22
13
9
11
-3
18
12
10
2
12
12
7
-2
4
9
6
9
6
-9
-4
5
1
-1
-7
3
8
11
7
8
-1
13
20
11
7
32
39
22
17
20
-11
-2
30
23
4
2
6
3
-3
-12
4
28
18
23
5
7
-12
-13
14
26
-11
12
9
26
14
1
7
1
9
3
13
12
4
1
6
1
-18
-33
-44
-18
1
8
-7
1
19
42
48
62
71
68
71
112
136
141
135
133
122
98
77
43
17
-23
-36
-44
-28
-26
-31
-27
-1
-1
-5
5
7
-2
-25
-7
20
24
3
5
18
11
26
18
-7
12
19
4
5
-1
6
11
16
0
22
30
16
2
-4
14
4
-1
-2
11
20
14
16
17
18
-3
2
28
24
22
18
-8
26
45
27
11
25
27
19
28
32
33
29
6
20
26
37
30
34
16
21
30
29
32
25
33
36
30
31
59
48
41
44
39
44
40
42
42
60
75
74
69
72
77
79
78
80
83
72
68
57
75
77
48
62
76
86
60
57
65
75
68
70
63
48
36
56
52
47
30
32
34
22
23
18
6
12
30
29
29
21
23
2
4
10
21
31
6
-4
0
14
13
5
-1
-5
-16
-3
8
3
16
11
-9
-13
2
-13
4
-4
-22
-6
17
0
4
13
19
13
17
6
3
-5
11
2
-3
6
7
7
17
3
20
23
25
9
-7
1
6
0
10
3
10
5
-1
-11
-2
-12
-17
-9
22
27
13
6
7
-23
-13
34
15
15
19
19
13
12
8
5
8
15
-3
-15
-4
9
16
9
17
25
8
1
-8
9
12
2
8
-6
6
8
4
10
-2
3
8
-5
13
-13
-9
-12
17
37
22
4
11
16
14
14
26
3
2
4
-1
-1
-5
4
5
8
2
-10
2
5
13
-3
-9
-7
18
11
7
-11
-3
5
9
8
2
9
-11
-1
-9
-14
10
26
16
2
-3
-4
17
7
11
4
8
-15
-10
9
25
7
8
22
18
-2
-3
5
-2
-5
11
-9
3
2
2
7
-3
8
-2
-7
14
12
15
4
-1
9
29
15
7
11
21
-3
10
19
5
-7
1
-4
0
19
-19
-16
8
13
10
4
20
7
-1
-15
-3
10
14
6
2
2
-3
-10
2
-16
-28
-40
-24
-15
-34
-25
-28
-21
-3
8
26
49
60
62
74
84
101
128
131
121
143
145
96
71
42
28
-4
-33
-44
-48
-24
-11
-14
-20
-46
-24
21
8
10
6
23
16
-7
-14
-9
6
14
-3
-28
-13
4
-6
-4
-3
17
8
9
-11
-6
-13
0
-1
4
16
12
5
-1
15
19
16
9
10
11
22
17
6
-10
-11
9
6
11
14
2
8
3
9
24
7
-5
16
-2
8
38
20
16
12
5
9
29
33
36
41
44
33
29
26
31
32
25
39
46
47
43
44
36
50
55
46
53
57
52
49
53
64
59
64
43
69
87
60
71
67
79
59
46
58
71
76
70
59
51
42
46
47
40
50
54
44
34
43
40
31
18
14
3
10
18
-5
-15
13
26
15
4
9
7
4
13
0
1
-3
-6
-12
-14
-6
-11
0
-13
-18
6
12
16
-18
-28
-10
10
7
-10
-12
14
19
3
-13
-17
-12
-2
4
11
-3
-1
13
0
-9
-17
-12
6
8
-10
-17
-5
6
-12
9
6
-12
-9
-13
-8
-2
1
0
0
18
8
-8
-18
-37
-6
6
0
21
8
-4
9
20
16
5
3
10
18
8
12
-4
-18
-27
-16
-19
-3
0
-2
9
1
-3
-1
7
2
7
3
-4
-1
-2
-6
-27
-26
-24
-31
-16
15
8
17
8
-12
12
15
2
1
6
3
8
5
-4
-27
-15
-3
-9
5
-6
-4
-20
-27
1
14
21
17
12
12
12
-1
0
8
-6
-24
-10
-13
-32
-27
-30
-31
-11
-16
3
-10
6
1
3
2
-9
0
-2
-8
-11
3
3
-15
0
-23
-22
-4
0
-1
-12
-26
-18
-17
-4
13
7
-15
2
30
9
-15
-3
10
11
6
16
18
21
6
-6
-16
-15
-22
-11
-19
7
17
-7
5
9
-2
-11
-6
-13
6
-1
-18
-1
-1
-5
-9
-14
-8
0
12
-28
-34
-6
7
-16
-6
3
-6
-5
-13
-22
-22
-24
-30
-42
-50
-49
-50
-19
5
22
45
47
47
56
95
118
119
142
135
126
121
94
55
28
3
-33
-66
-28
-17
-38
-50
-35
-35
-11
12
-4
-8
-11
2
2
2
-1
-12
-3
5
-14
-24
-1
-1
-18
-20
-5
-13
-11
-1
-15
-16
0
-5
0
-7
-13
-31
-6
-1
-8
-11
-1
-7
-16
3
31
19
1
1
6
0
1
17
10
4
-6
14
11
7
-16
13
12
2
4
5
8
3
26
4
3
13
18
16
15
14
10
13
28
29
18
22
35
34
37
25
33
37
45
49
48
46
56
55
52
71
53
56
48
54
48
71
64
56
54
62
53
71
74
59
37
56
53
61
45
22
58
63
41
46
33
40
22
8
12
10
-12
5
28
19
8
1
8
-1
-6
-2
11
-12
-7
-3
-15
-9
-15
-19
-23
4
8
-14
-3
2
-18
-19
-4
-14
-20
-28
7
-2
-19
-17
-23
-6
-6
-19
-11
5
-5
-13
-7
-22
-19
-11
-7
0
4
3
3
-7
-8
-15
-13
-6
-16
-5
-2
0
11
-8
-37
-21
-7
-25
-5
0
3
-12
-9
-19
-23
-15
-1
-3
-3
-12
5
-3
-13
-4
19
10
-4
1
3
-6
-5
-15
-17
-5
-3
-23
-16
-11
-11
-2
10
8
-6
-10
-19
-19
-21
-18
6
2
-10
-7
-2
-6
-3
0
0
-9
-21
-2
-3
-1
-10
-14
-5
-2
-4
2
-10
-12
5
8
-3
-15
5
-6
-21
-9
-24
-10
-9
-12
-7
-14
-15
-30
-23
15
4
-26
-1
6
-2
-16
-5
11
4
-16
-18
2
-19
-19
-15
-13
-13
-12
-17
-21
-19
-8
12
5
-10
-8
-15
0
6
3
-12
6
1
-14
-23
-5
-4
-6
-12
-13
-16
-8
-19
-9
10
-8
-31
-34
-5
24
-10
-11
12
0
19
18
10
24
27
22
4
7
-3
-10
-22
-8
-8
-20
-23
-14
-13
0
-8
-12
-12
-15
-30
-25
-10
-9
8
-2
-13
-7
-19
5
6
-5
-5
-1
-11
4
-13
-20
-1
3
-8
-6
-24
-32
-27
-39
-41
-32
-21
-15
-3
29
44
40
54
96
111
129
124
137
124
117
82
84
52
20
-12
-56
-62
-51
-39
-38
-46
-21
-8
-11
-24
-16
6
8
-2
-1
-1
-16
-26
-18
-5
2
7
-8
-4
-12
10
3
-22
-13
4
-1
-5
-13
-11
16
13
-1
-1
-1
4
1
-7
-18
-3
-11
4
5
-12
-3
-8
-10
5
-7
3
11
23
2
-2
3
9
13
-7
-4
-2
7
30
23
11
8
3
-14
-4
28
47
19
21
4
16
30
50
30
45
46
47
51
28
33
40
45
34
31
44
45
44
59
63
56
63
66
73
63
63
38
48
59
69
50
59
60
58
58
49
43
51
42
41
42
38
24
38
52
39
39
34
17
9
6
11
24
10
8
11
1
0
-4
8
2
5
-8
-3
1
-5
-22
-10
-7
-14
-7
-1
8
-7
-8
-16
-19
-16
-26
-6
-19
-17
-13
-6
-12
5
-9
-4
-12
-20
-12
-12
-15
-13
-3
1
1
-22
-19
5
-5
-6
6
0
-15
-18
-18
4
9
0
0
5
-6
-16
-9
-6
-5
1
-5
-8
-5
5
-13
-16
6
7
-12
-21
-5
-12
-13
-9
-4
7
4
6
-5
-10
-16
-11
-8
-2
0
15
3
-4
-14
-22
-31
-5
1
-15
4
-1
-11
-4
0
13
-2
-11
-1
-4
9
1
-8
-2
-9
-7
-11
0
-8
-2
-2
-10
-7
4
11
12
-7
-6
-14
-13
-6
-2
-8
-28
-25
-18
-24
-21
-26
-16
-10
0
-5
-14
-2
15
-12
-6
2
0
6
-27
-3
-3
-12
-18
-10
1
3
-5
0
-6
-19
-2
-3
7
3
-11
-1
4
-2
-11
-3
-13
-24
3
8
-4
-2
-3
-9
-9
6
-6
-8
-22
-24
-18
-4
-5
-20
-18
-10
-5
2
3
-1
9
-3
-18
-16
19
26
-20
-14
5
0
16
16
16
16
10
3
-3
15
35
2
0
11
-2
6
-1
-1
-1
-25
-13
6
5
-5
-2
-5
7
3
-11
-16
-33
-13
-8
0
-20
-16
5
4
-8
1
3
-6
-13
-6
-13
-16
-22
-46
-44
-35
-25
-12
-16
-2
14
40
61
52
68
77
97
120
140
141
137
132
111
85
54
33
-13
-33
-37
-48
-29
-40
-21
-14
-15
-20
-11
-8
-3
-26
-8
0
12
4
2
-7
0
-5
-3
-2
-3
15
-15
3
5
12
-3
-6
-3
5
-16
-10
4
4
9
6
-2
10
9
14
11
15
-2
9
24
26
14
19
15
7
7
11
-2
6
-4
-12
-7
14
41
43
26
20
28
14
29
16
12
30
18
14
14
41
23
22
30
30
39
43
41
43
41
27
62
50
40
55
68
60
57
61
70
50
63
82
63
56
50
65
79
68
85
87
55
75
86
80
87
76
65
75
78
70
63
55
45
53
42
44
44
39
40
44
52
23
20
20
15
6
-2
9
17
26
14
1
15
10
5
-7
15
11
4
10
-3
-5
27
7
-11
-11
6
8
1
16
4
19
9
3
-2
3
6
-1
-6
21
-10
3
24
24
8
7
6
-2
-16
-7
13
16
17
20
-11
-8
0
-11
7
5
3
10
14
5
8
19
16
-4
5
5
-2
-3
9
4
1
26
16
3
7
19
7
0
8
23
13
8
15
-1
5
8
7
16
6
2
-7
7
12
25
14
16
3
3
-12
3
8
14
17
4
6
-2
2
8
3
-9
-9
-8
-10
8
6
-10
-7
-21
-14
-5
1
28
26
10
12
8
13
10
10
9
2
2
-2
2
8
20
6
-1
-1
4
10
19
13
21
9
-2
4
1
3
-4
-1
6
-5
-17
9
5
4
-21
-2
10
-3
-3
-1
10
8
5
-1
-13
2
-1
-3
-4
26
15
-7
2
18
4
15
2
-1
7
-2
6
9
-1
-15
-19
-2
-7
0
12
4
5
-5
-7
13
26
4
3
15
-4
-6
0
2
4
11
3
8
14
28
20
27
30
26
22
10
7
6
6
-10
-12
-20
22
17
-27
3
6
-2
-4
-2
9
7
0
-6
0
1
-7
11
-4
-1
12
5
-8
7
-2
0
-11
-9
3
-2
4
-4
10
-17
-23
-27
-32
-21
10
35
40
49
44
76
69
81
90
108
122
135
128
114
92
70
28
4
-25
-25
-27
-29
-7
-37
-27
-29
-20
-17
-4
-2
17
5
-2
4
8
9
7
-6
-6
-1
3
10
3
4
14
8
16
13
3
7
0
-1
1
-2
-13
14
13
9
13
28
6
6
5
20
22
20
6
2
2
20
8
7
16
9
13
20
20
0
7
17
13
1
13
28
26
14
12
18
23
37
40
37
34
25
21
19
31
33
31
30
40
35
52
55
38
57
69
67
41
57
69
62
64
55
69
75
77
70
46
62
72
76
80
86
78
67
65
70
74
55
57
69
55
55
75
62
39
23
43
47
26
15
20
11
11
19
16
16
9
-8
-21
11
7
-1
16
-16
-17
3
20
19
-3
-15
-13
-2
8
-2
-7
8
0
-11
12
18
9
4
-3
-6
-6
0
-10
8
2
7
14
5
-2
-5
2
6
6
3
5
9
3
-27
0
5
-13
-12
18
2
-2
10
1
-4
10
5
-5
16
-1
-8
-7
9
-5
8
11
17
5
6
25
23
5
3
0
-7
8
-4
-19
6
9
10
10
16
-8
-23
-6
26
20
-2
-4
-12
-2
16
9
18
7
-7
-4
-2
6
-3
-2
-12
-10
24
12
10
-2
-19
8
10
4
-2
0
1
3
-5
-11
-22
0
10
-4
-6
18
16
5
-14
-12
-2
-12
-12
-13
3
2
-1
0
6
-4
-5
4
2
15
8
-2
-7
14
18
3
-10
-19
-7
13
14
19
-4
-20
-2
14
12
-7
1
-2
-11
2
5
-2
3
-4
-4
-4
-2
-8
-12
-12
-10
-10
0
6
3
7
-4
-9
-9
-11
0
1
2
-10
-1
4
0
-9
1
30
-2
-17
8
2
-2
3
-1
21
30
30
11
14
-4
-2
8
3
-3
6
-3
-10
3
8
-7
-6
-5
1
4
12
4
2
2
13
-10
-13
-18
-17
-10
21
14
-4
-7
-27
-38
-12
5
-2
-12
-6
-9
-11
-29
-29
-25
-18
-21
-26
14
31
37
51
58
66
68
99
119
126
135
130
112
99
81
53
24
1
-28
-44
-37
-30
-32
-24
-21
-41
-14
-16
-6
-9
3
7
4
7
10
12
1
-3
-10
-6
8
-1
-15
17
14
15
-5
4
-2
2
13
18
4
5
-2
-7
-11
-1
-8
-4
5
-4
-12
-22
-21
21
18
11
6
8
28
23
15
16
28
26
3
-7
1
2
10
6
2
14
22
20
15
11
2
21
49
40
32
21
26
14
22
27
16
37
24
36
47
50
57
54
63
33
39
40
32
57
49
41
57
63
61
66
62
78
83
65
65
68
74
63
63
67
59
63
52
56
61
61
60
58
41
45
19
42
38
17
3
14
28
12
4
-6
21
15
13
14
13
9
-1
-11
-13
-14
-7
-5
8
-9
-9
19
8
-5
0
-8
-3
-19
-6
-3
-9
-1
-5
-15
-3
9
2
-17
-3
-8
-6
6
-16
-12
-15
-22
-18
0
9
5
1
-5
-7
-9
-15
0
-11
-14
-6
4
19
12
-10
-12
-6
4
4
-4
-1
-9
-8
-28
-26
-2
3
0
-10
-2
14
-9
-7
-2
-10
-17
5
7
-4
5
6
7
14
10
10
-10
2
1
-26
1
0
-1
-12
-11
-10
-11
-21
-14
2
-3
-4
-2
14
4
-15
-9
-8
-25
5
19
-12
-10
5
-5
-2
5
-9
-17
-5
5
-12
-26
-15
10
-1
-9
-19
-10
-11
-9
-17
3
-5
-4
8
-5
-16
-29
-13
-8
-4
-7
-3
-10
-12
-1
-3
5
-14
-5
2
-12
-12
-1
2
-4
-2
-17
-18
-1
-30
-20
-16
-14
11
11
-5
-10
-9
-10
-6
-8
-8
8
-31
-20
-10
-15
-7
11
-7
-4
-14
-33
-31
-9
-13
-11
-3
-6
-8
-14
-10
1
-1
-11
-19
-23
5
-6
0
-11
-4
1
5
18
12
4
14
-5
-7
4
18
0
-2
3
-8
-12
-1
-8
-11
-24
-19
-11
-3
-24
-20
-12
-13
-10
-18
-7
-6
-15
-16
3
7
-19
-16
-17
0
-19
-25
1
4
-9
-9
-25
-25
-24
-36
-28
-13
-40
-34
-22
-27
-12
22
40
54
54
67
81
114
136
140
124
113
97
85
64
28
-15
-22
-34
-44
-38
-39
-32
-8
-8
-15
-12
-11
-14
-25
-8
-26
-17
-16
2
-7
-11
-3
-3
-11
-7
-16
-35
-9
11
-12
-20
-9
1
-16
-12
1
-10
-7
-9
-4
0
-7
0
-18
2
10
-2
-11
-11
-9
2
2
13
-16
7
8
2
1
-4
-12
8
8
-5
-5
6
7
12
1
5
23
12
14
18
12
7
14
8
-1
6
18
16
18
20
22
30
35
23
14
31
31
54
42
23
53
65
59
49
46
59
65
52
42
51
58
50
79
57
46
53
63
51
44
52
65
65
65
54
47
42
32
35
32
43
39
24
16
24
12
21
9
5
-17
-5
-7
-4
-14
-15
-16
-13
-4
-4
1
-1
-20
-14
-10
-11
-29
-15
-17
-10
-6
-14
-16
-17
-12
-6
-17
-23
-20
-13
-7
-21
-14
-9
-17
-22
-18
-25
-9
2
-16
-10
-8
-23
-22
-32
-13
7
-11
-14
-3
-9
-15
-8
-5
-13
-11
-10
-8
-15
6
-14
-34
-38
-29
11
-1
2
-9
-15
-10
-17
-23
-5
2
6
-14
-12
-21
3
4
-15
-32
-19
-5
-2
-10
-12
-11
-8
-5
-10
-2
-8
-25
-13
-14
-17
-13
-14
-9
-12
-12
-26
-10
-12
-2
-7
-20
-11
-13
-19
-18
-10
-19
-16
-1
3
-9
-13
-7
-13
-19
-14
-10
-16
-5
-17
-20
-18
-17
-12
-15
-6
-15
-23
-16
0
-21
-29
-25
-5
7
-5
-15
-20
-15
-13
0
-6
1
-6
-9
-20
-13
-18
-8
-22
-37
-44
-63
-22
10
7
-10
-21
-15
-3
-4
-11
-17
-23
-30
-30
-8
-4
-18
-39
-39
-8
-4
-2
-19
-22
-4
-8
-3
-11
-16
-12
-11
-5
2
7
-12
-19
-9
-11
-18
-18
-17
-28
-13
-19
-28
-18
-16
-28
-33
-28
-20
10
-4
-4
8
10
0
2
-6
-8
-25
-13
15
2
1
-3
-5
-3
-9
-12
-12
-11
-29
-22
-14
-9
-24
-8
-23
-14
-14
-35
-31
-3
-10
-22
-23
-26
-20
-10
2
0
-14
-17
-35
-33
-32
-33
-60
-99
-79
-66
-71
-65
-68
-63
-60
-44
-25
-11
16
2
10
40
63
92
94
101
100
97
67
31
17
-15
-57
-80
-74
-67
-44
-34
-35
-37
-40
-33
-33
-31
-23
-23
-25
-30
-30
-5
-10
-26
-24
-19
-19
-22
-27
-58
-11
13
-27
-23
-24
-17
-24
-25
-22
-14
-21
-40
-17
3
-15
-22
-27
-20
1
-5
-9
3
7
-35
-34
-20
-8
-9
-9
-11
-3
2
-7
-3
0
0
7
-17
-12
-13
-8
0
-2
3
2
-2
-18
-3
16
-1
13
21
23
19
33
19
9
25
26
16
-8
20
34
48
35
32
25
29
34
45
33
43
57
52
42
54
51
52
48
46
54
49
52
52
64
53
45
46
51
45
43
46
38
36
27
19
22
7
-1
20
9
-21
0
25
8
4
-2
-3
-3
-5
-2
-12
-6
-20
-18
-26
-10
-10
-17
-29
-27
-23
-34
-23
-21
-25
-12
-18
-23
-21
-12
-25
-33
-24
-14
-10
-22
-14
-16
-10
-19
-30
-28
-38
-33
-19
-19
-29
-13
-22
-25
-14
4
-10
-26
-2
-2
-28
-20
-15
-2
-4
-1
-2
-7
-16
-23
-19
-26
-27
-11
-30
-9
-17
-13
-17
-27
-20
-21
-12
-3
-12
-27
-5
-2
-22
-18
8
-12
-16
-6
-17
-29
-22
-22
-10
-13
-16
-22
-19
-14
-3
0
-9
-15
-32
-39
-22
-1
-7
-9
-12
-15
-8
-27
-15
-12
-7
-16
-15
-28
-31
-18
-3
-9
-20
-38
-19
-8
-9
-13
-5
-11
-8
-28
-21
-2
-18
-22
-23
-35
-10
-9
-17
-13
9
-12
-12
-6
-3
-18
-15
-24
-28
-21
-39
-17
-13
-14
-17
-17
-25
-33
-42
-19
-2
-13
-11
-16
-25
-16
-8
1
-2
-14
-18
-16
-22
-12
-4
-13
-22
-15
-5
-17
-22
-24
-16
-16
-4
-19
-23
-19
-18
-6
-2
-10
-16
-13
-9
-17
-37
-31
-13
-26
-16
-16
-15
-15
-12
-19
-26
-18
-31
-21
-27
0
4
6
6
0
-4
-2
7
7
8
-4
-9
-6
-22
-13
-11
-14
-28
-23
-18
-3
5
-6
-19
-18
-29
-13
-18
-12
-5
-4
-21
-19
-19
-9
-13
-25
-11
-6
-13
-11
-17
-32
-35
-28
-21
-23
-44
-50
-49
-49
-50
-37
-9
-14
8
21
31
45
64
65
85
101
111
125
127
118
104
85
47
16
-25
-53
-64
-63
-62
-29
-26
-26
-28
-12
-18
-8
-11
-16
-6
-24
-16
-15
-27
-34
-17
-12
-16
-3
-1
-7
-24
-17
-23
-27
-11
-2
-21
-26
-20
1
-10
-11
-17
-4
-1
-10
-12
11
4
1
12
-6
-4
-11
-13
-9
-6
0
0
-19
-18
10
5
0
3
6
10
15
8
4
-12
5
31
10
4
9
0
-10
7
2
11
1
15
15
15
17
42
24
37
33
31
20
19
23
30
26
42
48
43
55
48
57
68
59
70
65
54
75
57
39
49
54
61
72
63
65
59
48
63
63
52
61
46
40
37
34
34
5
8
-26
0
22
6
-2
5
17
7
6
-8
-19
-9
-7
-12
-4
-3
0
-11
-10
-21
-7
-10
-8
-8
-25
-28
-12
0
-4
-3
-21
-17
-23
-2
-12
-10
-20
-19
-12
-18
-27
-23
-18
-19
-12
-14
-12
-17
-24
-35
0
5
11
-7
-17
-7
-12
-13
-1
-10
-29
-20
-20
-20
14
-1
-4
1
-3
-11
-22
-23
-15
-9
2
-7
-6
-7
-1
-1
-8
-7
-8
-21
-7
1
-1
-17
-23
-10
-8
-3
0
-4
-16
-9
-1
6
-11
-6
-13
-25
-17
4
-11
-28
-18
-28
-31
-4
-19
-10
-7
-9
-6
11
7
5
6
5
-2
-4
-13
-13
-14
-15
-15
-13
-24
-21
-8
2
5
-7
-3
1
-8
-13
-14
-23
-29
-22
-24
-19
-24
-8
-11
0
-11
-30
-16
-1
1
-26
4
10
-5
-10
-12
-17
-12
-37
-27
3
-4
-5
-21
-26
-2
2
-6
-6
-17
-2
-7
10
-6
-5
-12
-7
7
-3
-19
-31
-30
2
13
0
-16
-15
-11
-5
-9
-13
-7
-15
-9
-11
-4
-7
-16
-11
-27
-19
-22
-18
-11
-7
-3
-6
7
-2
2
7
5
-3
15
8
9
-1
22
8
-5
-23
-1
15
4
-3
-8
-3
-16
-19
3
1
-10
-7
3
-4
-12
-14
-8
12
5
-5
0
-1
-8
-14
0
-11
-11
-8
-2
-9
-12
-9
-16
-21
-14
-21
-39
-42
-66
-47
-25
-2
4
29
38
20
53
52
61
93
127
128
133
142
134
110
69
35
18
-3
-30
-48
-42
-48
-45
-30
-18
-11
-12
-1
-29
-27
6
21
0
-11
2
-11
-2
-1
-15
-15
-20
13
2
-7
-11
2
10
-7
-14
-1
24
2
-24
-4
0
-4
-1
9
12
11
-5
-4
0
4
6
-7
0
11
10
21
11
11
10
19
-8
-28
20
25
20
3
32
21
11
-9
-1
19
14
18
28
25
17
8
22
32
19
24
19
41
37
37
29
41
38
50
41
46
46
45
33
52
55
53
45
55
75
74
53
79
63
71
79
60
67
67
83
72
69
73
84
73
61
50
57
58
57
42
55
59
52
49
36
24
34
39
25
34
23
21
18
17
1
9
11
1
0
4
8
14
11
-4
-13
-16
13
14
8
-17
-6
19
9
10
6
-3
11
9
16
-22
-2
3
3
6
-7
-8
-14
-4
4
-8
-21
-7
8
-1
-6
-18
0
4
12
-3
1
1
-11
-2
17
8
6
-9
4
-11
-4
18
20
18
19
18
4
0
-9
-3
9
1
4
9
7
-3
-3
-3
-2
6
10
7
3
3
-3
-20
3
24
-11
-16
16
26
1
2
16
-3
0
1
6
-2
4
6
3
13
-3
0
6
7
3
11
3
2
9
13
-4
-21
-3
12
0
-2
-6
-23
-16
6
19
3
-2
1
11
17
11
0
-16
-1
3
-6
-9
4
15
10
6
-7
0
-1
4
-3
7
2
-11
-12
17
6
-6
-1
19
9
-11
-5
8
10
6
-2
-1
7
9
3
-16
-3
13
11
-1
-3
-12
2
5
2
12
3
-4
11
4
-12
-14
-10
11
11
-1
-5
6
14
13
5
-17
-15
8
3
3
-17
-20
11
36
14
5
19
17
30
8
34
23
29
8
15
11
10
-5
6
17
8
-7
-19
-9
8
2
2
4
10
-3
1
10
10
6
8
-5
0
-24
5
13
-7
3
1
-6
0
-9
-18
4
-5
-27
-37
-39
-25
-36
-16
20
24
28
42
53
66
73
92
105
129
121
127
130
113
93
60
46
32
-5
-22
-33
-37
-36
-22
-11
-27
-40
-17
13
5
-4
2
-4
5
-1
-22
-2
-4
-2
5
5
0
-8
9
14
7
-12
-12
-10
-10
24
17
13
9
4
8
21
16
17
22
27
6
11
11
0
-2
5
14
-4
-6
6
12
7
-1
24
17
13
20
17
30
29
4
3
30
41
20
25
29
13
15
11
-5
28
32
32
16
19
33
38
31
31
32
25
48
51
51
45
46
43
42
61
69
75
73
68
69
69
64
61
65
77
66
63
64
58
80
82
84
75
66
71
53
53
65
61
53
47
33
26
39
31
21
22
38
34
39
30
16
19
11
17
14
7
-2
2
12
13
9
-9
3
8
3
3
-11
-13
17
18
15
-2
-6
-1
3
13
-1
-13
-5
-3
3
1
4
-1
0
-2
-11
-1
-12
-3
-7
-9
2
14
-8
-7
-2
-3
1
-2
8
3
-4
-12
0
5
6
-2
5
5
-2
10
5
2
-6
15
-7
-2
15
13
15
8
12
-7
-3
1
-5
-12
-10
-8
-2
-17
12
17
8
14
18
-4
5
3
6
20
9
5
5
-2
-13
-9
1
1
5
-3
-1
-6
13
16
0
8
5
-4
4
2
-5
-7
3
-3
-5
-6
3
-7
-15
18
12
1
3
-3
-6
-11
-12
8
10
7
-2
-23
2
10
10
-12
-13
-13
1
5
5
5
4
0
-7
-7
-1
-1
10
12
-3
-2
4
2
-7
8
0
-29
-12
20
2
3
-3
-9
-7
10
10
1
6
2
-12
-6
10
8
-11
-26
-13
-6
-19
1
16
-6
-1
-3
-24
-10
4
-4
3
-1
11
18
19
29
15
5
10
-2
10
26
9
4
-3
-12
4
1
8
7
-4
-5
-14
-2
7
-5
-4
-11
-19
-12
11
10
-7
-6
-19
-14
-10
-3
6
-9
-28
-17
2
-4
-11
-10
-15
1
2
-10
-13
-28
-26
-39
-34
-31
-27
-27
0
31
44
51
62
66
80
101
131
117
135
134
117
97
65
45
15
-14
-48
-49
-50
-36
-26
-32
-30
-38
-18
-5
-22
-7
0
6
-3
-4
-10
2
7
-8
-10
-26
-17
-3
-8
-4
-9
-8
-8
-9
7
3
-22
1
18
-7
-23
0
6
-7
2
-8
-10
-9
9
6
-2
7
14
9
8
10
8
9
5
-6
-5
-2
0
-4
3
3
7
4
-2
10
29
17
-2
13
27
20
29
7
-4
2
22
17
19
26
22
32
27
34
26
22
11
32
60
41
41
53
42
46
57
55
65
54
43
56
83
64
55
66
53
58
63
65
66
66
54
72
69
59
49
44
46
34
33
36
35
18
16
2
1
-2
10
5
11
12
2
8
-3
-15
-2
-22
10
16
6
-2
-5
0
-7
-10
-10
-4
-16
-12
-12
-1
-8
3
-4
1
5
-33
-21
-6
-7
-29
-22
-24
-6
-15
-18
-42
-32
-13
1
-18
-12
12
6
1
-9
-10
-8
-18
-11
0
-12
-11
-4
-3
0
-8
-18
-12
-12
-20
-2
-16
-10
-2
3
-7
-11
2
-2
1
7
-8
-11
-15
-7
-4
4
-12
-9
-11
-32
-17
18
13
-2
-7
-1
-32
-25
3
-8
-7
-17
7
15
-1
-4
-15
-15
-13
-5
-5
-11
-14
-12
9
-12
-28
-8
-1
-15
-17
-6
-13
-19
-5
-21
-30
-13
-1
-17
-11
-2
-9
-13
-3
-2
-14
-21
-2
-4
-3
-1
-5
-10
-13
-24
-26
-18
-16
-6
4
-6
-20
-22
4
-4
-13
-23
-30
-9
-1
-4
-16
-23
-10
-14
-15
-4
-14
-29
-20
-4
5
17
-13
-21
-13
-19
-14
-4
-5
-2
1
-16
-28
-25
-28
-3
6
-2
-13
-24
-25
-19
-29
-13
-18
-12
14
10
-5
3
17
17
13
7
-2
1
5
1
3
-11
-16
-8
-8
-5
0
29
1
-23
-17
-25
-22
-15
-4
-2
-12
-13
-9
-5
-14
-9
-6
-12
-7
0
-11
-15
-20
-20
-29
-45
-44
-51
-22
-8
-22
-36
-30
-23
-37
-32
-52
-42
-39
-23
-13
-15
3
28
46
48
71
101
118
128
127
149
140
114
77
51
25
-10
-32
-45
-57
-48
-33
-33
-48
-31
-32
-17
-33
-21
-1
-17
-13
-17
-17
0
-7
-13
-19
-14
-16
-19
-15
-22
-29
-17
-23
-18
-31
-16
-14
-4
2
-12
-16
-8
6
6
-13
-26
-16
-15
-16
-23
-2
8
4
4
-1
-1
7
-4
-13
-21
0
-9
-11
-20
2
-4
2
2
5
12
9
13
15
5
6
14
10
10
5
1
14
3
2
26
26
6
5
11
38
46
28
29
18
39
45
36
24
51
57
53
44
58
54
59
54
57
57
63
58
63
58
54
49
56
41
49
45
42
49
48
34
33
44
40
32
27
22
13
6
1
24
26
-1
6
-1
-9
-15
16
17
-4
10
-4
-15
-5
-14
-21
-21
-6
-12
-23
-13
-11
-9
-21
-20
-15
-15
-21
-19
-18
-15
-19
-21
-8
-21
-27
-13
-9
-2
-31
-38
-31
6
-7
-18
-20
-18
-14
-7
-11
-30
-25
0
-10
3
-2
-3
-10
-2
-24
-9
-19
-25
-42
-14
-1
-8
-6
-6
4
-1
8
-3
-3
-9
2
-3
-20
-19
-8
-6
-22
-20
-17
-2
-8
-6
-2
-21
-22
-9
-18
-20
-4
-7
-18
-17
-13
-21
-19
-12
-21
-18
-12
-16
-2
5
-12
-15
-14
-30
-20
-11
-3
-3
-1
-16
0
3
-4
-10
-11
-15
-20
-14
-20
-16
-10
-10
-8
-6
-3
-22
-41
-24
6
2
-10
-16
-19
-16
-9
-23
-24
-16
-15
-26
-18
-16
-3
-1
-22
-19
-3
-1
-11
-30
-15
-5
-6
-13
-17
-7
-20
-26
-9
-34
-12
3
-2
-19
-6
-10
-1
-20
-13
-12
-19
-18
-1
-8
-23
-26
-18
-18
-13
-22
-23
-10
2
-18
-10
0
-2
-3
-12
-21
-15
2
-4
-1
-5
-13
-12
10
18
21
-2
-16
21
12
0
3
9
-11
-4
-5
-15
-17
-17
-35
-6
-2
-6
-6
-11
-19
-11
-2
-5
-29
-14
-16
-11
-4
-2
-17
-15
-18
4
0
-14
-15
-24
-21
-15
-11
-17
-16
-25
-31
-45
-56
-39
-32
-47
-45
-30
-12
31
46
57
63
78
111
124
117
123
136
109
94
67
40
22
-26
-46
-34
-39
-31
-39
-32
-26
-21
-35
-19
4
-5
0
12
0
-13
-11
-15
-37
-32
-27
-25
-9
5
-22
-23
-4
-9
-17
-31
-23
-11
-13
3
18
-12
-22
-16
-21
-14
-12
-17
-7
14
6
6
7
1
3
-5
-8
7
7
6
9
-9
-2
-3
14
13
5
16
1
4
10
-12
-3
-2
-1
-4
-15
1
23
26
18
10
5
19
24
27
32
13
16
53
48
37
32
20
39
45
41
39
33
29
25
30
43
28
47
71
54
71
94
81
64
60
71
76
85
85
73
71
59
47
47
39
25
14
26
30
-3
9
33
10
34
27
23
17
14
13
7
12
7
7
-3
-3
-7
-3
-5
-6
-9
-8
4
-3
-28
-35
-25
-19
-14
-38
-27
-39
-23
-5
3
23
8
-2
-7
5
-8
-14
-13
-12
-5
-1
-7
-8
-4
-2
-2
-2
-7
-22
-21
-28
-29
-24
-16
-11
-18
-24
-22
-30
-1
-14
-1
22
-18
-37
-30
-8
18
-7
-6
4
-3
6
6
-4
5
7
-9
-11
-7
-25
-19
-19
-18
-15
-12
-7
0
-1
-8
-1
3
-3
-21
-14
-7
-5
-25
-19
11
-6
6
-4
-11
-8
3
6
0
-7
-5
-5
-4
-16
0
1
-19
-18
0
-5
-2
-12
-21
-18
-11
-21
-4
-12
-9
-30
-30
-5
-4
18
1
-13
-19
-6
-16
-35
-24
-15
-11
10
14
-12
-19
-10
-4
6
-6
-8
-17
-13
-13
1
-3
-6
-9
-11
-8
-15
-15
-6
-15
-3
-5
-8
-10
-29
-14
-13
-7
-8
-10
-6
-3
-2
-28
-21
-44
-9
21
12
-7
-13
-21
-14
-15
-9
2
10
-9
-8
-9
-12
-2
11
19
-19
10
7
1
16
21
8
9
20
5
0
2
3
7
16
9
11
-14
-23
-6
-3
-2
-12
-16
-2
0
-6
4
2
-6
-5
-3
-9
-12
-6
-5
-16
-16
-11
-18
-28
-8
-26
-27
19
7
-20
-1
-4
-13
0
-16
-17
-31
-56
-41
-52
-67
-37
-30
20
28
41
52
72
66
84
113
131
118
123
128
143
122
80
60
35
-3
-32
-49
-54
-45
-41
-37
-25
-30
-22
-13
-16
-16
0
-15
-20
-12
-5
-5
9
4
-10
-16
-3
0
7
-23
-25
-9
-7
-19
-4
3
4
-4
4
10
14
4
4
14
10
1
14
6
-3
11
-3
12
9
5
16
-5
1
4
1
-7
7
15
14
10
15
9
13
28
21
16
20
18
27
18
2
14
31
24
23
30
23
34
34
32
25
32
26
33
34
54
42
48
45
50
57
57
43
27
42
76
70
55
70
80
65
61
69
90
82
83
69
78
88
79
74
72
74
70
68
56
55
53
59
43
44
39
53
33
24
20
31
15
11
24
5
-7
-5
25
17
6
-15
21
20
19
5
3
3
13
-3
20
17
8
3
3
3
-3
1
6
4
3
5
9
17
10
1
-13
-2
-8
-21
0
0
-4
-28
11
17
-7
-5
-11
6
29
1
1
3
16
18
13
8
9
11
11
2
-2
3
-1
0
20
22
24
20
18
10
-5
5
-9
1
-5
11
11
8
9
13
8
-14
1
-6
-7
5
13
20
8
7
16
11
19
18
-7
3
-3
6
2
7
6
16
18
17
16
28
13
1
-1
4
9
13
20
-1
1
11
7
6
10
-1
14
21
7
11
11
0
-1
-1
-11
-5
11
5
-3
22
18
3
-9
13
11
-12
0
18
9
13
7
9
8
6
-10
8
17
21
12
8
-1
9
0
16
14
29
20
8
3
12
17
-8
-11
-7
12
8
12
2
-8
-3
8
8
-8
8
10
0
1
0
-8
0
17
10
-5
2
12
6
10
23
14
12
19
30
19
18
17
18
20
24
21
28
24
15
21
21
-7
-11
38
37
22
3
26
25
15
11
4
2
-4
-2
3
14
13
8
9
8
-1
10
16
13
7
6
8
3
10
-4
19
25
20
11
18
3
-9
2
17
-10
-20
-17
-11
-7
-14
16
29
49
76
88
70
62
104
133
140
133
143
135
126
96
56
36
11
-28
-46
-35
-28
-18
-12
0
9
-7
-9
-7
-3
11
17
9
10
12
-7
10
36
20
16
4
1
-9
13
24
25
22
23
31
12
18
28
24
25
23
11
1
0
30
25
25
20
25
35
33
24
11
1
14
39
41
15
13
28
24
17
26
24
29
23
27
21
15
39
27
29
29
46
47
36
25
21
28
44
48
48
41
36
56
56
50
48
42
42
61
68
68
88
70
75
88
65
85
90
89
82
84
88
84
79
81
61
84
80
86
83
70
65
104
89
73
78
90
87
70
65
72
49
43
40
42
34
35
33
18
5
41
64
44
44
41
30
22
9
23
16
5
24
32
33
32
22
25
25
14
3
16
6
-8
1
19
16
20
23
17
15
21
16
14
19
13
14
18
2
-23
-5
32
17
14
24
10
10
17
18
12
18
22
26
17
25
16
21
14
20
13
18
37
39
22
12
8
5
22
34
30
5
17
19
14
10
5
34
22
25
21
18
23
17
1
12
22
7
-1
13
22
25
27
20
16
30
6
15
14
18
35
14
18
23
21
7
-1
17
25
17
18
14
7
10
29
26
14
8
27
27
23
26
11
11
17
6
-4
4
12
12
22
15
16
3
-2
21
20
28
31
21
18
23
12
8
14
10
-10
-13
17
22
19
19
-13
-2
17
17
20
13
22
25
13
33
19
9
15
19
26
22
17
17
13
18
6
2
8
6
10
16
25
10
7
24
18
16
1
-3
-1
11
37
39
17
13
19
3
-19
-22
26
21
34
17
46
51
38
33
49
32
40
41
32
33
5
8
21
6
8
-5
13
13
20
2
0
16
10
26
12
6
10
11
-2
-1
16
33
29
20
24
8
13
3
-8
-7
12
8
9
19
21
6
0
-3
-14
-15
-2
-24
-6
-13
-2
24
70
77
86
82
77
95
125
123
134
124
129
122
76
56
27
-16
-17
-22
-19
-32
-24
-18
-9
-6
-2
3
4
14
16
13
16
6
1
8
1
6
7
14
24
23
28
9
3
-5
24
7
-9
-9
23
4
11
26
20
9
9
14
18
18
24
9
21
17
14
17
24
1
19
33
27
18
18
27
15
11
12
3
10
22
32
28
22
23
14
17
48
57
35
15
29
47
45
35
17
25
39
43
49
41
51
52
62
42
43
38
49
60
60
55
53
59
73
78
74
65
75
72
75
83
82
88
81
77
73
69
67
75
78
65
66
58
71
72
70
72
61
61
40
46
37
26
0
13
40
33
23
18
12
11
14
25
28
12
5
23
13
7
0
8
1
16
13
13
7
-1
11
5
4
7
0
-8
1
13
5
-9
7
10
18
-7
-3
4
-5
9
5
7
15
-2
16
6
-6
-1
-3
-7
-1
-1
-7
3
21
14
15
16
7
-7
1
11
15
20
4
-14
-7
3
9
19
18
16
20
23
13
5
9
5
-10
-13
0
12
8
1
3
13
11
14
11
10
16
6
-4
-3
22
2
-14
11
7
-7
12
1
0
14
1
-19
-26
12
8
7
19
26
-10
-3
6
9
11
10
-10
6
3
-8
5
13
4
3
3
-1
0
12
15
0
5
1
-2
-3
23
12
3
-2
-2
-7
-12
5
12
9
-7
5
9
10
-1
-1
11
13
-6
3
3
10
8
7
10
0
-4
-7
8
-2
3
1
-10
2
-1
-15
15
9
6
-2
-14
-16
15
7
2
7
2
1
2
-4
-15
-32
1
26
11
6
7
6
7
-7
-8
12
11
-6
5
10
5
-6
11
7
14
18
4
-7
23
20
9
32
27
12
33
33
30
20
6
-9
6
2
-13
-16
3
8
6
8
-1
-11
0
2
1
-8
-10
0
-8
1
4
6
-1
-11
7
10
-4
-9
-13
-19
-15
-9
3
-11
-21
-12
-12
-29
-34
-37
-24
-22
4
15
12
30
49
67
65
92
110
134
150
142
137
118
97
80
35
4
-15
-27
-32
-34
-29
-17
-8
4
3
14
-9
17
-3
-22
-15
10
1
1
-3
-10
-9
8
3
-8
-6
-5
-6
-1
0
0
-17
-2
25
10
-4
-15
3
0
3
9
5
-3
-5
9
6
12
30
-1
0
8
6
-13
-4
15
14
7
-3
14
13
25
5
7
22
19
7
5
13
12
13
-3
21
19
18
23
39
36
20
22
24
38
39
42
39
40
45
40
40
42
32
29
41
66
48
48
49
44
60
71
63
77
78
72
50
63
63
73
57
54
43
87
72
63
59
57
57
51
62
54
43
52
46
43
24
29
28
25
25
16
-7
11
9
0
14
19
8
4
12
13
9
11
-10
-16
-18
-9
0
-9
-8
-11
3
-9
-23
-9
-7
-4
4
-10
-11
-8
11
-16
-6
0
-9
-21
-18
5
6
-11
-2
-4
-2
6
-16
-21
-1
5
-1
2
-2
2
7
2
-4
-5
-20
-29
-33
-14
7
-1
-24
-9
12
-5
19
1
-13
3
-5
-12
-6
4
-1
-18
-4
2
1
-14
1
-1
-3
-4
2
4
16
3
-10
-20
-2
0
0
0
6
5
11
10
-7
-11
-7
10
-16
-25
1
5
-6
-13
-20
-4
7
-4
-10
-2
-13
-16
-5
-13
-6
-16
-10
16
5
3
-6
-9
-5
-4
-12
-17
0
-3
5
11
-16
-19
-7
0
0
-5
-1
-4
-8
-10
-24
-19
6
-13
5
8
-8
-22
3
-2
-9
4
10
-8
-14
-8
-22
-11
12
-2
-8
-15
-2
-2
-24
8
-3
-2
-5
-9
-4
8
-11
-11
-5
0
-14
-16
-3
-15
0
-3
-3
-12
-4
0
-8
-25
-15
-17
0
8
6
0
-1
-6
-1
-10
-8
-1
-5
0
0
7
-3
-5
-5
-9
-13
-12
-5
-5
6
21
2
15
32
7
9
11
4
15
16
3
3
-2
3
-10
2
-2
13
-15
-38
-43
-35
-2
17
10
-1
-19
-6
28
11
-8
-17
-11
-12
-17
0
0
-6
-7
-12
-19
-11
-21
-12
-5
-24
-31
-24
-16
-22
-43
-33
-44
-31
-5
9
28
37
42
36
76
98
125
115
125
149
128
120
90
57
31
-16
-20
-60
-54
-47
-42
-39
-24
-4
-15
-9
-5
-3
-6
-3
-12
-12
-21
-2
-14
-15
1
-5
-4
-8
2
-7
-22
-17
18
20
1
-7
-8
-7
-10
-21
-12
-8
3
1
0
-16
-13
0
-6
-1
1
-1
5
8
10
-2
11
13
-4
-4
6
11
16
20
9
-3
-1
11
13
8
4
4
28
10
-4
7
22
27
14
20
26
40
18
20
21
21
23
14
17
40
47
40
29
30
38
35
36
42
65
55
62
75
69
57
57
72
72
56
58
57
63
65
73
67
63
61
70
41
42
84
58
45
41
44
35
42
31
16
15
15
15
22
28
28
19
12
7
-6
-8
2
16
1
-19
-16
7
-1
8
-14
-23
-9
-4
1
-2
-17
-30
-14
-9
2
-3
-10
-7
-1
-10
-9
-13
-5
-22
-28
10
19
-8
-6
-1
-19
-7
-7
-13
-2
8
-6
-7
-11
-8
-23
-12
-6
-2
-4
-3
-2
9
-4
-3
-19
-27
-20
11
8
5
-2
-2
2
24
-12
-19
-9
-12
0
-10
-4
-3
9
6
-3
-12
-12
2
7
-3
-15
-15
-3
4
-6
-18
-10
-11
-4
-7
15
13
1
-19
-21
-18
-5
4
-7
8
-31
-2
10
8
-9
-15
-7
-2
-10
-18
3
6
7
-11
-18
-4
6
-2
-17
-4
-2
-1
-8
-5
-18
-5
-9
-6
-9
0
5
-10
-15
-9
-8
-7
-5
-5
1
-8
-21
-14
-3
-3
-8
-11
0
-5
-5
0
-12
-9
7
12
4
1
-7
-6
-9
0
-2
0
-12
-4
-13
-18
3
-20
-22
-27
-2
-4
-19
-12
-12
-10
-24
-25
9
-11
-17
-5
4
5
5
-3
0
-9
-8
-2
7
14
4
-8
1
-7
-3
-11
0
-1
4
-8
-10
-16
-1
20
0
-2
9
1
3
12
20
14
13
19
4
1
5
-11
-2
18
17
10
-5
11
0
-12
-19
-12
-10
-5
7
4
-17
-17
-1
-6
1
5
-15
-13
-2
-5
-8
13
0
-6
-1
-3
-3
-14
-13
-29
-13
-16
-26
-32
-20
-31
-47
-42
-32
-35
-24
11
21
38
49
58
60
69
72
121
141
147
145
132
105
62
41
23
-8
-38
-38
-53
-49
-35
-25
-11
-34
-29
1
-4
6
4
-6
-3
2
-4
3
-6
-9
-28
-25
-25
-40
-2
-2
-6
-4
-1
2
7
6
8
-1
-1
3
0
-4
-1
15
7
13
-9
-37
-42
-4
-9
-9
-7
19
22
18
21
20
21
0
8
11
14
12
0
5
13
7
7
16
1
-4
7
34
11
22
26
19
15
23
20
15
13
32
43
48
22
26
41
46
43
44
48
43
52
39
37
41
51
44
56
71
69
63
71
71
71
66
69
82
79
75
65
61
54
76
65
61
52
57
74
42
42
25
28
32
14
51
39
25
26
25
23
28
24
14
8
9
13
-2
-7
4
6
1
-10
-5
-5
15
2
0
-7
-14
-5
10
-4
-13
-17
-24
-4
-4
-13
-2
-22
-19
-5
9
-4
2
5
7
11
10
8
-7
4
16
5
-5
-11
-4
0
8
15
3
-1
-17
-10
2
18
16
8
-3
-4
6
21
14
-11
2
7
-4
-7
-11
-1
-1
-20
1
1
-6
-5
22
9
14
-8
1
8
-2
5
0
12
30
14
12
2
3
0
12
-1
11
14
3
8
-3
-7
-5
1
7
5
-6
2
7
0
-1
-6
1
-3
2
-21
12
25
24
18
-4
1
-1
15
6
-2
-6
-8
-3
6
11
12
-5
13
6
3
3
-12
-24
-10
15
-4
-9
23
18
9
4
6
0
-1
1
-8
6
12
11
11
3
2
13
6
8
4
8
9
9
1
2
11
8
-6
-1
13
8
0
-2
-11
-17
0
13
3
-17
-37
1
17
14
23
11
-15
7
17
18
12
-1
-14
1
12
12
18
5
11
19
17
9
9
6
11
15
9
9
12
13
-2
11
6
22
26
19
17
6
40
23
2
17
19
25
23
19
-5
-11
17
40
18
24
7
11
29
16
9
-6
-19
6
19
10
17
-6
-7
6
3
9
9
-5
-8
5
8
0
5
5
11
-1
3
-6
4
-10
-9
-18
-19
-15
-2
-30
6
39
49
54
41
52
79
120
126
143
158
149
122
92
79
54
42
5
-34
-23
-14
-36
-17
2
-2
-11
7
5
1
18
5
12
6
-5
8
3
8
6
25
11
7
11
4
7
-10
18
23
6
-4
2
12
-1
14
10
12
19
25
10
4
21
16
9
13
21
5
22
32
16
28
22
22
12
5
12
29
26
7
-6
25
42
30
30
41
44
9
16
33
31
23
38
26
31
47
46
46
52
43
36
55
58
47
46
49
52
49
68
71
67
71
74
65
51
51
68
53
56
71
84
85
101
87
74
77
59
52
52
77
91
90
89
91
81
76
73
74
55
59
66
53
56
52
41
42
38
31
37
31
29
26
35
28
20
21
29
25
24
12
10
1
9
18
-4
-27
-3
-6
-1
20
30
30
15
-3
-6
13
22
3
10
9
16
19
15
-3
12
16
17
11
7
11
10
3
1
5
5
14
13
2
13
10
-2
13
9
-15
2
14
2
6
15
17
10
23
16
3
13
13
9
20
22
26
19
15
-8
-4
8
-9
18
18
5
7
10
18
11
19
20
20
11
11
11
9
6
9
19
31
-9
-3
11
9
27
13
7
10
7
4
15
0
-21
0
19
30
8
9
20
19
20
10
4
3
-4
-1
-1
11
4
3
8
0
17
15
-6
-11
18
-2
-12
6
-7
7
16
12
17
23
18
13
11
13
15
10
1
12
11
-5
1
-5
-4
-3
-6
6
12
10
9
2
2
19
8
13
20
2
-6
13
8
13
7
4
1
-22
6
7
4
11
11
0
-11
-16
0
22
-3
-17
20
28
28
28
24
6
-11
-7
-7
-3
1
3
20
11
-5
8
8
1
9
15
3
6
19
38
45
13
26
40
28
28
19
32
20
27
26
3
-12
-2
11
19
2
3
7
4
-4
3
5
-17
-5
-1
-1
1
38
28
5
-2
-9
4
-4
3
14
-19
-9
5
9
14
3
-5
-7
12
-2
-14
-31
-22
-14
-15
-15
-13
0
26
42
50
55
70
75
84
110
119
131
131
128
111
85
72
43
25
-1
-31
-37
-39
-59
-46
-9
-22
-10
15
10
-5
-9
2
9
5
2
12
8
0
5
3
11
-10
2
10
18
6
8
6
9
5
16
14
7
11
-1
19
2
-13
3
18
10
-8
19
17
9
28
6
-6
13
12
15
21
11
14
16
8
8
18
24
26
21
10
16
29
15
18
33
20
22
30
23
35
28
21
20
28
32
27
40
35
31
26
56
32
36
51
67
61
51
68
59
48
53
79
70
62
70
83
74
74
82
62
66
87
85
60
86
82
54
65
79
75
72
62
64
65
59
49
46
50
38
38
50
26
18
35
35
43
33
25
19
2
0
11
6
3
7
7
11
15
-3
1
-5
6
6
9
1
-7
-13
-4
-14
-17
-4
4
7
16
15
6
-18
6
15
8
3
6
5
8
0
-11
-5
7
20
12
6
7
9
-2
4
6
1
-6
0
8
1
11
28
18
10
19
4
-17
-4
-7
-4
6
4
0
3
11
4
-4
-4
6
2
10
9
8
2
-5
0
-11
7
7
-3
12
1
3
-3
16
14
0
5
22
28
21
3
11
6
3
0
-2
15
2
3
-1
6
-7
4
22
12
-7
2
-1
8
14
0
9
4
2
-10
-2
12
-4
2
14
-1
-7
-12
-2
7
-6
-11
5
-6
7
-1
-17
-1
7
10
13
2
6
-14
-7
3
-5
5
8
-1
-9
6
-12
-11
7
-11
6
13
14
9
-3
-12
0
9
5
6
-6
5
8
-2
-1
-4
3
12
1
2
4
4
2
-2
6
14
17
-2
-3
-4
-2
8
-16
-22
-18
-25
1
17
17
14
0
11
8
5
-3
-5
8
28
20
13
6
13
19
18
12
19
25
26
16
8
-5
3
8
-2
14
21
14
-9
17
7
14
8
8
-7
2
15
19
-4
-13
-23
-11
-7
-3
-8
-12
-25
-1
17
6
-3
1
-2
-5
-10
5
0
9
-6
-22
-16
-27
-43
-28
-23
-13
3
18
15
18
49
68
70
89
109
118
129
140
134
120
112
87
61
34
-5
-31
-43
-44
-24
-5
-18
-15
-23
-4
0
-22
-21
9
-14
5
-5
-7
5
0
-6
12
8
-8
0
5
6
6
-4
1
9
-4
-8
0
6
17
7
9
12
7
8
4
7
10
-2
-9
-15
3
24
13
4
7
4
10
12
21
17
25
13
-13
-18
-28
22
48
20
6
20
27
28
20
27
33
28
29
26
18
17
16
16
20
-6
23
37
45
55
50
35
43
58
55
53
59
55
50
56
43
47
51
52
54
62
60
57
71
92
87
68
66
75
71
67
84
86
62
65
46
60
39
40
37
42
50
43
35
51
35
25
35
25
18
22
26
12
6
-2
-15
-11
1
10
1
7
-2
-10
5
8
0
8
11
-13
-20
-9
-9
-10
-2
4
-5
-17
8
17
1
-9
-12
1
2
3
-6
4
-15
-27
-5
-17
-13
-4
2
15
1
5
-3
3
13
8
2
-4
3
-2
-10
2
0
-4
-4
-9
1
9
13
8
-3
-10
-12
-12
2
7
2
0
-19
-13
-3
13
-5
10
4
-3
0
-3
-6
6
4
-10
-7
12
6
9
-1
5
2
2
18
15
5
-2
3
-6
6
8
-1
-8
-13
2
8
4
6
-1
-2
0
-6
-19
-15
13
7
-22
-16
-4
3
2
7
-4
-12
1
4
-4
-3
2
-3
2
7
12
1
2
1
-2
-6
-8
10
6
-7
-13
3
5
12
-15
-28
-4
11
0
-9
-5
-15
-14
0
10
11
13
6
5
15
4
-3
8
7
-5
-3
3
0
0
-2
-6
-5
-11
-4
-2
-11
3
7
-10
-11
-8
-10
2
6
8
7
-8
-5
1
4
-8
-3
8
-2
-1
-4
4
-6
17
24
18
15
20
28
18
15
19
35
12
13
11
22
9
6
13
8
-3
4
-10
9
14
-1
11
8
7
11
4
-6
-9
-4
-13
1
1
-24
-25
-8
12
24
-2
0
-7
0
-2
3
5
17
4
-10
-35
-25
-21
-36
-19
-21
-21
-11
-6
9
19
29
48
62
67
86
110
132
126
130
149
123
100
78
36
2
-11
-26
-40
-48
-17
-15
-12
-2
-10
-10
-6
8
1
12
-1
0
-11
2
-3
-9
2
6
-3
1
-2
-11
-14
9
12
9
-19
-8
-1
5
19
0
-4
3
0
1
6
13
10
15
11
7
-6
11
10
10
9
8
13
15
12
15
13
21
5
1
16
22
19
17
19
10
11
22
15
18
28
26
18
19
26
0
32
43
32
23
42
40
19
39
50
26
30
41
61
66
55
72
69
57
58
58
49
75
83
67
66
80
73
82
82
74
78
84
81
80
76
