-30
-21
-15
-12
-10
-18
-16
-21
-28
-30
-27
-21
-20
-16
-10
-6
-13
-24
-29
-26
-22
-20
-12
-8
-5
-10
-13
-16
-20
-29
-21
-18
-12
-15
-14
-13
-16
-24
-26
-35
-26
-25
-20
-14
-10
-10
-12
-18
-22
-21
-22
-11
-8
-6
-9
-14
-18
-27
-29
-29
-23
-22
-15
-17
-17
-15
-22
-29
-37
-36
-27
-20
-12
-9
-5
-13
-25
-34
-37
-32
-25
-25
-18
-20
-13
-15
-25
-30
-27
-28
-24
-19
-12
-9
-12
-21
-23
-34
-36
-34
-29
-22
-15
-8
-8
-15
-16
-24
-32
-31
-24
-13
-5
-7
-6
-15
-20
-29
-27
-26
-21
-13
-3
-2
-8
-12
-14
-13
-21
-18
-15
-8
-5
-3
-7
-11
-20
-24
-18
-22
-20
-15
-7
-7
-13
-20
-27
-34
-33
-31
-27
-24
-20
-17
-22
-25
-28
-33
-34
-31
-25
-24
-20
-20
-18
-21
-32
-33
-37
-33
-24
-17
-11
-10
-19
-23
-33
-34
-37
-35
-31
-24
-22
-27
-32
-35
-37
-32
-30
-9
10
29
52
75
89
99
89
79
62
47
43
44
27
-2
-48
-74
-82
-80
-76
-73
-73
-59
-50
-43
-45
-49
-49
-46
-40
-34
-30
-21
-13
-16
-20
-26
-32
-35
-31
-23
-16
-11
-6
-2
-8
-13
-23
-25
-25
-23
-18
-7
-3
-2
-13
-20
-24
-20
-21
-18
-9
0
2
0
-6
-21
-23
-25
-23
-17
-9
-2
1
-3
-10
-10
-15
-17
-13
-10
-5
6
13
6
-5
-8
-16
-19
-12
-5
3
10
11
7
1
1
-5
-6
-4
7
12
14
17
15
9
5
9
-2
0
13
22
32
30
26
27
19
20
18
23
31
35
41
49
42
31
22
17
15
22
26
36
37
43
37
29
21
12
13
14
22
28
31
25
19
16
9
-1
2
0
-1
-1
0
-2
-8
-16
-23
-28
-26
-18
-11
-6
-11
-9
-19
-23
-31
-40
-38
-32
-26
-16
-12
-16
-15
-15
-24
-32
-34
-36
-30
-24
-21
-16
-18
-23
-37
-40
-37
-33
-28
-16
-11
-12
-20
-22
-29
-34
-34
-22
-25
-23
-13
-15
-18
-27
-31
-24
-26
-22
-17
-11
-12
-12
-20
-26
-33
-35
-34
-19
-17
-13
-8
-5
-15
-22
-27
-30
-29
-22
-25
-21
-22
-14
-16
-22
-28
-33
-29
-25
-21
-17
-16
-12
-27
-29
-35
-29
-28
-24
-19
-16
-14
-16
-20
-24
-33
-34
-32
-29
-19
-16
-18
-18
-25
-29
-34
-37
-32
-26
-18
-14
-14
-19
-24
-33
-38
-39
-29
-28
-24
-12
-15
-22
-23
-27
-31
-30
-29
-25
-17
-15
-19
-17
-22
-29
-32
-34
-27
-19
-18
-15
-8
-4
-16
-23
-28
-22
-11
-14
-11
-8
-12
-15
-17
-21
-28
-27
-24
-20
-16
-11
-13
-17
-23
-29
-31
-36
-36
-29
-21
-20
-19
-30
-31
-34
-37
-36
-32
-25
-19
-16
-16
-25
-28
-33
-44
-39
-35
-29
-15
-19
-18
-29
-31
-37
-38
-37
-34
-34
-27
-21
-26
-38
-48
-50
-52
-51
-38
-17
4
29
41
56
66
86
95
92
87
71
56
55
39
5
-29
-69
-95
-88
-74
-64
-50
-51
-58
-60
-59
-55
-47
-45
-39
-38
-17
-14
-17
-23
-26
-29
-31
-34
-33
-27
-22
-18
-21
-25
-27
-28
-31
-31
-22
-17
-7
-5
-6
-15
-26
-28
-29
-29
-22
-16
-12
-13
-14
-23
-26
-25
-27
-24
-17
-13
-12
-12
-12
-15
-16
-18
-22
-18
-13
-7
-3
-4
-6
-4
-15
-18
-20
-16
-5
-3
-3
-2
-4
-12
-12
-10
-13
-7
-4
9
12
13
5
2
-1
-12
-6
1
10
15
18
18
18
14
9
9
10
11
16
24
23
30
27
21
12
12
11
16
23
33
34
35
31
22
8
8
14
25
27
28
27
21
13
4
-7
-14
-9
0
5
10
7
-4
-22
-28
-32
-30
-20
-21
-20
-11
-12
-21
-27
-26
-35
-36
-33
-23
-21
-18
-17
-18
-28
-35
-39
-42
-49
-36
-23
-22
-17
-17
-26
-34
-40
-43
-42
-33
-30
-21
-13
-17
-30
-35
-41
-44
-40
-31
-28
-25
-24
-22
-23
-30
-35
-36
-36
-26
-20
-16
-18
-26
-29
-36
-46
-42
-35
-24
-15
-11
-14
-22
-24
-26
-30
-27
-28
-27
-22
-18
-20
-22
-21
-26
-33
-32
-26
-23
-19
-16
-17
-23
-30
-36
-38
-36
-30
-22
-17
-14
-17
-21
-24
-32
-35
-35
-32
-25
-17
-12
-18
-27
-33
-38
-40
-40
-27
-23
-19
-22
-21
-28
-32
-35
-35
-37
-37
-31
-22
-18
-19
-21
-28
-32
-39
-40
-33
-26
-20
-19
-19
-27
-33
-42
-38
-32
-29
-24
-21
-23
-27
-33
-38
-42
-40
-35
-30
-28
-24
-22
-26
-26
-23
-31
-36
-35
-27
-29
-21
-19
-19
-22
-29
-35
-33
-35
-27
-23
-12
-12
-14
-26
-31
-37
-39
-34
-31
-21
-9
-4
-4
-8
-17
-28
-30
-27
-18
-8
-7
-10
-14
-24
-30
-31
-36
-32
-26
-27
-24
-21
-25
-28
-36
-38
-43
-43
-37
-29
-28
-30
-34
-36
-40
-41
-38
-30
-24
-21
-21
-24
-27
-33
-38
-37
-39
-32
-29
-32
-27
-24
-31
-40
-45
-47
-50
-49
-45
-40
-28
-17
-16
-10
5
26
48
66
87
110
112
102
75
41
20
6
-20
-38
-57
-72
-69
-62
-70
-67
-67
-68
-63
-53
-38
-27
-25
-25
-29
-35
-37
-39
-47
-40
-33
-23
-19
-17
-17
-27
-28
-30
-30
-30
-26
-20
-16
-16
-24
-29
-33
-32
-24
-22
-18
-9
-10
-14
-25
-28
-30
-33
-36
-27
-22
-14
-7
-7
-15
-25
-31
-36
-31
-24
-16
-11
-8
-12
-12
-16
-20
-23
-20
-18
-14
-10
-5
-10
-13
-20
-27
-27
-19
-16
-10
1
-2
-9
-14
-18
-18
-20
-17
-6
2
12
11
8
3
1
-5
-4
10
14
19
20
24
20
12
8
5
6
10
17
26
29
28
18
9
4
3
0
8
18
23
24
19
16
15
8
3
5
6
3
14
9
5
-7
-9
-15
-22
-20
-21
-24
-14
-9
-11
-16
-23
-36
-44
-41
-35
-26
-17
-21
-22
-26
-24
-31
-35
-37
-29
-26
-20
-17
-20
-23
-29
-42
-44
-43
-33
-31
-20
-17
-23
-31
-30
-35
-39
-39
-32
-26
-20
-17
-19
-25
-35
-43
-46
-43
-32
-23
-16
-15
-23
-31
-34
-40
-41
-38
-36
-35
-28
-20
-22
-22
-24
-32
-33
-33
-29
-23
-17
-18
-25
-30
-34
-39
-33
-33
-36
-25
-21
-17
-23
-24
-30
-37
-44
-39
-30
-26
-21
-17
-22
-23
-31
-31
-35
-33
-27
-23
-20
-17
-24
-29
-35
-43
-40
-36
-30
-21
-19
-22
-23
-28
-31
-36
-40
-34
-30
-26
-21
-18
-26
-29
-35
-35
-36
-35
-31
-23
-19
-20
-21
-26
-41
-46
-44
-38
-31
-25
-20
-19
-25
-27
-38
-40
-38
-30
-24
-19
-18
-16
-26
-31
-37
-45
-47
-35
-28
-21
-15
-17
-26
-30
-36
-40
-37
-34
-28
-21
-20
-23
-33
-33
-37
-41
-42
-36
-27
-22
-16
-17
-25
-30
-36
-36
-33
-29
-26
-18
-17
-19
-21
-27
-32
-32
-32
-21
-17
-12
-12
-13
-22
-29
-35
-34
-28
-19
-18
-10
-8
-10
-15
-23
-27
-32
-32
-27
-22
-15
-16
-21
-28
-40
-40
-39
-31
-29
-25
-20
-20
-25
-33
-34
-41
-43
-39
-35
-30
-27
-21
-25
-30
-34
-44
-39
-37
-34
-33
-26
-25
-26
-34
-45
-43
-42
-36
-36
-31
-31
-33
-39
-38
-42
-32
-26
-13
6
33
57
73
87
91
89
84
66
46
40
31
5
-17
-47
-72
-84
-90
-84
-69
-61
-50
-41
-38
-41
-39
-43
-42
-41
-34
-31
-21
-16
-20
-26
-34
-44
-42
-39
-25
-28
-19
-13
-15
-21
-26
-31
-34
-36
-32
-26
-16
-11
-13
-15
-25
-34
-34
-36
-29
-16
-7
-12
-14
-17
-27
-30
-34
-26
-25
-18
-12
-14
-13
-16
-21
-28
-34
-31
-19
-13
-4
-2
-5
-13
-20
-20
-23
-21
-17
-12
-6
0
-4
-11
-13
-16
-15
-16
-8
-2
10
4
7
-2
-7
-10
-13
-7
5
23
17
16
14
5
1
-6
-3
1
11
19
21
25
25
19
14
10
7
11
19
28
29
26
20
13
7
2
-1
7
9
12
24
23
15
-2
-8
-13
-19
-10
-4
-1
-5
-6
-13
-24
-29
-31
-29
-29
-23
-18
-16
-20
-26
-27
-33
-39
-41
-37
-35
-21
-19
-21
-28
-33
-41
-42
-44
-36
-31
-22
-20
-25
-31
-36
-42
-44
-41
-29
-29
-25
-25
-23
-29
-34
-37
-37
-37
-34
-34
-26
-29
-25
-29
-33
-37
-38
-40
-38
-32
-19
-18
-20
-29
-29
-39
-37
-33
-26
-28
-21
-18
-18
-26
-30
-34
-38
-37
-30
-30
-25
-23
-27
-32
-32
-36
-31
-28
-25
-24
-21
-18
-21
-28
-32
-39
-42
-34
-31
-26
-18
-18
-18
-25
-33
-45
-45
-43
-31
-25
-25
-22
-26
-30
-34
-35
-41
-31
-28
-28
-22
-21
-31
-30
-38
-42
-39
-40
-32
-24
-20
-18
-25
-32
-31
-39
-42
-36
-32
-28
-23
-25
-22
-28
-41
-42
-45
-38
-31
-26
-20
-19
-29
-35
-45
-45
-39
-26
-32
-23
-17
-23
-26
-33
-37
-40
-44
-42
-39
-27
-21
-23
-27
-29
-40
-42
-37
-32
-29
-29
-28
-28
-38
-36
-43
-47
-45
-36
-28
-21
-20
-21
-27
-32
-44
-49
-47
-37
-21
-19
-15
-17
-31
-35
-36
-41
-42
-34
-24
-21
-21
-24
-27
-29
-35
-42
-38
-34
-26
-19
-15
-15
-18
-20
-32
-33
-30
-27
-19
-11
-11
-13
-19
-21
-28
-28
-27
-25
-20
-16
-16
-20
-23
-33
-42
-43
-42
-33
-28
-24
-25
-28
-31
-38
-42
-44
-39
-32
-22
-19
-19
-25
-39
-44
-47
-46
-39
-27
-29
-24
-28
-32
-39
-43
-47
-44
-44
-36
-32
-27
-29
-36
-39
-45
-49
-43
-42
-26
-6
11
25
34
49
64
76
87
91
91
67
49
40
20
-18
-50
-84
-96
-91
-77
-67
-56
-57
-59
-56
-62
-60
-56
-50
-37
-30
-19
-22
-23
-25
-33
-40
-39
-32
-32
-28
-25
-23
-24
-28
-35
-36
-32
-28
-24
-18
-14
-15
-25
-33
-36
-39
-37
-31
-23
-17
-16
-16
-23
-23
-27
-26
-31
-25
-23
-12
-10
-16
-24
-30
-33
-30
-23
-16
-15
-13
-11
-9
-13
-16
-24
-30
-26
-23
-15
-10
-4
-6
-11
-15
-14
-18
-21
-15
-6
1
1
-4
-8
-7
-10
-11
-8
0
11
19
13
10
6
1
0
0
5
9
23
22
21
16
12
11
10
10
10
17
18
21
25
20
16
13
10
3
17
18
19
18
23
17
9
4
0
-8
-5
-1
5
0
-4
-12
-22
-24
-29
-29
-21
-16
-17
-13
-12
-20
-28
-32
-39
-35
-26
-23
-15
-15
-21
-28
-34
-38
-46
-47
-39
-35
-22
-16
-17
-23
-32
-39
-43
-42
-34
-30
-24
-20
-25
-25
-31
-36
-42
-38
-32
-30
-29
-24
-25
-31
-34
-34
-34
-36
-32
-24
-24
-22
-22
-27
-31
-34
-37
-38
-28
-23
-16
-18
-17
-22
-32
-38
-38
-34
-22
-23
-17
-21
-20
-21
-32
-34
-33
-27
-25
-23
-18
-21
-23
-29
-31
-34
-35
-38
-32
-28
-19
-16
-21
-28
-31
-38
-41
-36
-26
-23
-17
-18
-20
-24
-28
-34
-43
-39
-30
-27
-23
-24
-23
-24
-41
-40
-37
-35
-25
-25
-23
-25
-27
-28
-39
-43
-43
-36
-25
-17
-20
-23
-23
-26
-30
-39
-39
-35
-32
-25
-23
-22
-25
-29
-35
-36
-39
-31
-27
-25
-20
-17
-25
-26
-31
-38
-38
-37
-33
-23
-20
-25
-27
-32
-36
-41
-39
-33
-25
-25
-23
-23
-28
-33
-42
-42
-40
-32
-28
-23
-14
-10
-22
-25
-36
-35
-31
-34
-32
-22
-20
-22
-35
-35
-38
-35
-37
-35
-31
-24
-16
-16
-22
-29
-35
-41
-47
-38
-31
-22
-21
-21
-23
-28
-30
-32
-30
-24
-21
-18
-13
-12
-19
-17
-28
-30
-23
-13
-4
-10
-10
-14
-23
-27
-25
-26
-25
-21
-23
-17
-17
-20
-29
-31
-38
-37
-31
-27
-27
-24
-21
-21
-27
-32
-38
-40
-38
-31
-24
-19
-22
-27
-31
-31
-37
-37
-30
-28
-29
-21
-22
-29
-33
-34
-43
-45
-40
-36
-33
-31
-29
-34
-42
-45
-45
-38
-24
-8
16
28
44
62
75
92
95
89
81
64
55
45
24
-3
-45
-84
-92
-83
-76
-76
-70
-67
-58
-55
-56
-56
-49
-42
-33
-26
-21
-18
-20
-25
-28
-27
-32
-36
-29
-22
-14
-15
-14
-19
-25
-28
-33
-31
-25
-18
-12
-11
-12
-20
-20
-32
-31
-23
-17
-18
-13
-9
-5
-10
-12
-29
-27
-23
-15
-15
-9
-5
-5
-12
-17
-20
-24
-20
-16
-10
-2
2
-1
-5
-13
-21
-19
-20
-14
-2
-1
2
3
-4
-7
-4
-7
-10
-2
4
12
11
14
10
3
-5
-5
-1
6
13
20
23
24
21
14
12
3
11
23
32
32
32
30
22
14
13
11
14
21
39
40
38
30
26
19
20
15
14
17
25
31
29
23
16
1
1
7
6
8
7
4
2
-8
-12
-18
-27
-27
-21
-14
-12
-7
-6
-13
-22
-29
-32
-32
-27
-26
-21
-13
-12
-22
-27
-27
-32
-31
-27
-27
-16
-19
-23
-27
-32
-37
-40
-36
-26
-20
-11
-13
-12
-22
-28
-40
-39
-37
-27
-19
-13
-12
-13
-19
-23
-26
-26
-22
-21
-23
-20
-11
-10
-16
-18
-26
-28
-25
-22
-18
-11
-9
-14
-20
-20
-30
-25
-21
-17
-15
-17
-18
-16
-16
-22
-31
-27
-24
-17
-12
-11
-12
-15
-20
-27
-31
-33
-31
-22
-18
-9
-8
-9
-19
-23
-27
-28
-25
-21
-18
-17
-14
-13
-18
-28
-33
-36
-29
-23
-12
-12
-15
-15
-23
-25
-26
-25
-27
-28
-18
-9
-11
-20
-18
-33
-29
-29
-30
-21
-13
-10
-10
-16
-20
-29
-35
-32
-36
-30
-20
-6
-5
-13
-16
-28
-33
-29
-30
-28
-19
-19
-9
-12
-17
-22
-24
-26
-25
-22
-15
-17
-17
-26
-29
-27
-30
-21
-16
-12
-7
-7
-15
-25
-30
-30
-33
-36
-28
-20
-9
-4
3
-10
-14
-23
-25
-31
-21
-18
-11
-10
-10
-23
-30
-34
-37
-24
-16
-9
-1
2
3
-8
-11
-15
-20
-18
-17
-12
-6
4
4
-5
-14
-20
-19
-18
-10
-12
-5
-5
-9
-17
-24
-32
-33
-27
-24
-16
-9
-5
-10
-24
-28
-34
-33
-25
-18
-14
-13
-16
-13
-17
-23
-29
-33
-30
-25
-19
-15
-16
-18
-31
-31
-35
-35
-30
-19
-9
-7
-13
-28
-26
-28
-38
-37
-21
0
28
45
64
75
93
101
94
87
74
46
35
32
11
-15
-45
-74
-79
-77
-68
-58
-55
-53
-46
-40
-37
-40
-40
-34
-26
-28
-12
-9
-12
-15
-23
-29
-28
-21
-22
-15
-6
0
1
-8
-14
-20
-23
-22
-12
-8
-5
1
8
-4
-9
-16
-19
-22
-14
-13
-15
-10
-10
-11
-15
-16
-15
-12
-12
-6
-2
-1
-5
-8
-9
-15
-19
-17
-7
-2
5
7
8
-1
-8
-15
-14
-7
-6
-5
5
13
5
3
1
-7
-4
2
2
12
19
23
17
10
8
4
-3
3
8
16
28
27
19
19
18
13
15
17
18
25
28
35
32
27
31
20
17
18
28
36
42
40
39
29
23
21
21
23
20
21
25
30
25
13
4
-5
-7
-5
0
9
4
10
5
-1
-10
-17
-22
-15
-13
-8
-7
-11
-9
-9
-16
-22
-23
-20
-19
-14
-16
-10
-17
-18
-26
-31
-29
-21
-22
-14
-14
-17
-14
-24
-34
-39
-29
-18
-19
-14
-12
-5
-9
-18
-29
-25
-29
-21
-18
-18
-10
-7
-18
-23
-26
-26
-30
-21
-16
-15
-13
-3
-8
-13
-19
-20
-25
-20
-13
-14
-11
-10
-21
-19
-24
-20
-21
-18
-16
-7
-4
-7
-12
-16
-24
-27
-24
-15
-16
-12
-4
-6
-12
-20
-24
-24
-25
-21
-13
-5
-4
-5
-15
-22
-25
-26
-27
-18
-19
-12
-7
-11
-24
-31
-30
-27
-20
-13
-4
0
0
-11
-14
-16
-22
-25
-26
-16
-12
-9
-11
-17
-21
-25
-27
-30
-21
-18
-14
-12
-12
-21
-29
-32
-39
-40
-30
-22
-11
-5
-2
-7
-13
-25
-29
-32
-27
-20
-8
-8
-8
-18
-21
-23
-29
-30
-24
-18
-12
-9
-14
-20
-23
-28
-29
-29
-19
-12
-7
-13
-12
-13
-20
-24
-24
-29
-25
-26
-12
-7
-10
-18
-27
-26
-22
-19
-15
-11
-12
1
0
-4
-12
-20
-24
-18
-13
-6
8
9
1
-5
-5
-11
-20
-20
-15
-8
0
-9
-17
-24
-28
-27
-36
-33
-23
-21
-16
-15
-21
-24
-30
-36
-32
-24
-18
-19
-12
-13
-15
-20
-24
-30
-31
-36
-28
-17
-13
-9
-14
-20
-29
-30
-26
-20
-28
-22
-16
-13
-19
-25
-27
-33
-28
-17
-5
20
49
66
80
83
90
93
89
71
35
28
28
14
-7
-30
-63
-74
-70
-62
-58
-45
-34
-33
-35
-37
-33
-30
-25
-21
-18
-12
-8
-7
-13
-17
-23
-27
-25
-20
-17
-16
-5
-2
-4
-10
-16
-19
-14
-12
-8
-7
-8
1
-6
-10
-19
-20
-22
-18
-11
3
3
1
2
0
-12
-19
-19
-12
-10
2
3
2
4
-6
-5
-15
-13
-6
-3
-4
-3
1
2
-2
-10
-9
-6
-1
10
14
15
13
8
8
2
-5
-9
4
3
8
14
20
12
12
0
-2
-3
5
19
28
38
31
25
18
16
13
15
18
29
35
34
34
29
27
21
23
24
32
39
43
42
37
29
19
12
16
20
25
22
32
30
25
12
5
2
6
6
6
11
13
11
5
-6
-16
-15
-17
-11
-10
-4
-3
-5
-7
-14
-18
-27
-26
-20
-12
-8
-2
1
-7
-17
-19
-23
-29
-28
-20
-15
-11
-15
-18
-21
-24
-26
-22
-19
-14
-8
-7
-3
-10
-16
-23
-33
-26
-19
-13
-6
-7
-5
-6
-13
-21
-25
-26
-17
-14
-6
1
-4
-10
-13
-23
-28
-26
-19
-14
-12
-6
-2
-5
-8
-20
-16
-22
-21
-15
-6
-5
-5
-5
-10
-14
-25
-27
-10
-4
1
-3
-5
-15
-17
-22
-23
-25
-18
-4
-2
-2
-4
-10
-15
-16
-17
-15
-14
-17
-17
-17
-11
-13
-16
-20
-27
-19
-17
-10
-5
-4
-6
-15
-22
-24
-25
-23
-17
-13
-3
0
-6
-8
-13
-25
-25
-25
-16
-12
-6
-7
-7
-14
-21
-21
-21
-17
-12
-2
1
6
-4
-12
-16
-23
-28
-27
-26
-13
-5
1
-1
-10
-13
-21
-23
-15
-18
-15
-8
-5
-9
-14
-18
-26
-22
-16
-16
-13
-10
2
-1
-5
-14
-22
-20
-21
-13
2
1
0
-4
-6
-6
-10
-20
-11
-10
3
6
1
3
1
0
-8
-11
-7
-4
4
5
8
-1
-4
-12
-13
-9
-8
-8
-5
-1
-1
-9
-15
-21
-26
-25
-19
-9
-4
-6
-8
-16
-16
-26
-18
-20
-21
-18
-11
-7
-6
-11
-17
-23
-30
-30
-20
-12
-9
1
-1
-14
-21
-29
-27
-21
-21
-18
-10
-9
-9
-8
2
12
27
49
71
91
110
122
121
106
73
40
29
16
-2
-17
-36
-52
-62
-60
-53
-55
-55
-46
-36
-26
-20
-11
-15
-20
-21
-25
-23
-17
-16
-12
-4
2
0
-8
-13
-17
-21
-16
-7
-6
2
4
3
-3
-8
-11
-12
-13
-11
-9
-2
0
-4
-2
-5
-10
-17
-19
-13
-4
5
11
1
1
-2
-6
-9
-11
-1
6
10
14
3
4
-4
-3
-5
1
5
11
11
16
4
-1
-8
-9
-3
4
4
14
19
18
11
4
7
2
4
16
20
26
26
32
26
23
16
11
12
21
29
35
37
41
38
32
24
26
25
33
39
45
43
41
36
32
26
23
30
38
42
48
51
44
36
30
22
21
22
29
30
31
28
23
15
7
-2
-8
-7
0
5
8
17
6
0
-8
-13
-17
-12
-4
-4
-3
-1
-3
-8
-14
-23
-22
-18
-10
-9
-8
-4
-9
-19
-20
-24
-22
-22
-8
-9
0
-7
-8
-12
-15
-18
-15
-16
-14
-9
0
-3
-8
-16
-23
-28
-23
-16
-13
-4
3
1
-3
-11
-16
-24
-27
-21
-14
-9
-1
2
0
-3
-11
-24
-25
-17
-10
1
6
0
-2
-14
-18
-20
-24
-10
-7
1
-2
-8
-13
-17
-18
-20
-19
-13
-7
3
2
-2
-7
-18
-22
-26
-27
-20
-13
-5
0
-1
-2
-8
-15
-21
-22
-16
-16
-8
-6
-6
-17
-19
-26
-28
-17
-11
-10
-4
-6
-4
-13
-20
-26
-22
-21
-18
-13
-7
-3
-5
-6
-12
-20
-24
-23
-13
-14
-5
-5
-12
-19
-23
-30
-28
-25
-21
-14
-5
-8
-11
-17
-21
-28
-29
-27
-23
-11
-4
-7
-9
-14
-21
-30
-34
-24
-9
-4
-5
-8
-16
-24
-30
-30
-25
-24
-19
-12
-4
-5
-16
-23
-28
-34
-26
-18
-9
-5
-6
-8
-6
-13
-23
-30
-32
-20
-16
-9
-5
-3
-8
-15
-18
-21
-16
-10
-6
-3
1
0
-3
-9
-20
-26
-25
-18
-7
2
0
-7
-18
-26
-26
-32
-29
-25
-16
-15
-16
-23
-31
-35
-35
-37
-36
-30
-19
-14
-14
-19
-26
-35
-44
-44
-38
-22
-16
-10
-14
-21
-30
-30
-38
-41
-39
-30
-22
-23
-20
-25
-35
-42
-45
-48
-40
-23
-6
14
36
53
64
74
80
86
95
84
61
54
42
7
-29
-59
-92
-91
-84
-74
-66
-57
-54
-55
-62
-59
-55
-50
-42
-36
-24
-19
-18
-27
-29
-37
-44
-44
-34
-25
-20
-22
-21
-21
-26
-31
-32
-33
-26
-23
-14
-12
-14
-23
-29
-32
-35
-36
-31
-28
-20
-16
-9
-18
-24
-34
-36
-25
-23
-18
-15
-14
-15
-18
-24
-31
-36
-36
-23
-18
-13
-8
-6
-17
-15
-19
-27
-27
-27
-20
-15
-13
-9
-12
-17
-23
-27
-22
-12
-9
-2
4
4
2
1
-9
-18
-21
-17
-6
2
10
13
11
9
1
-1
0
0
9
20
22
22
13
7
5
0
3
10
6
12
15
16
10
8
0
-2
2
7
5
15
9
1
-4
-8
-14
-22
-21
-8
-4
-5
-11
-20
-31
-33
-35
-37
-39
-33
-30
-24
-28
-32
-38
-42
-48
-51
-55
-48
-42
-33
-28
-37
-42
-43
-55
-61
-55
-47
-44
-42
-38
-39
-48
-49
-54
-50
-47
-43
-45
-43
-35
-36
-42
-49
-59
-59
-52
-44
-36
-35
-36
-42
-50
-49
-55
-55
-53
-49
-41
-36
-37
-41
-44
-49
-56
-56
-53
-47
-48
-45
-42
-46
-43
-55
-54
-56
-51
-44
-34
-33
-33
-42
-48
-54
-59
-55
-52
-50
-41
-39
-40
-45
-52
-55
-63
-66
-56
-49
-41
-40
-38
-50
-57
-63
-62
-66
-65
-53
-42
-42
-38
-45
-52
-58
-66
-65
-62
-58
-51
-44
-47
-48
-52
-60
-65
-69
-59
-52
-49
-45
-47
-57
-60
-61
-63
-63
-57
-56
-54
-52
-52
-61
-63
-66
-70
-65
-56
-56
-47
-48
-48
-51
-58
-68
-68
-67
-59
-55
-51
-51
-52
-55
-58
-68
-69
-69
-61
-55
-47
-45
-49
-61
-66
-69
-67
-67
-63
-54
-46
-49
-52
-59
-66
-66
-68
-65
-59
-54
-51
-48
-50
-52
-57
-61
-58
-56
-50
-43
-40
-36
-38
-50
-59
-63
-62
-58
-51
-45
-44
-46
-54
-59
-63
-70
-72
-66
-62
-57
-53
-57
-64
-68
-75
-79
-80
-67
-70
-65
-67
-66
-59
-70
-75
-77
-76
-66
-60
-57
-53
-55
-61
-68
-72
-67
-75
-67
-63
-65
-61
-60
-66
-73
-83
-84
-83
-79
-72
-59
-41
-24
-20
-4
14
35
57
62
61
52
27
12
-5
-30
-63
-101
-132
-122
-110
-100
-100
-102
-106
-106
-106
-102
-92
-81
-71
-62
-61
-62
-63
-68
-70
-74
-80
-69
-65
-60
-57
-55
-62
-68
-72
-76
-71
-65
-62
-59
-54
-56
-64
-61
-68
-70
-69
-58
-52
-48
-46
-41
-58
-67
-68
-70
-68
-57
-53
-48
-50
-57
-57
-59
-71
-72
-63
-56
-44
-39
-39
-51
-58
-63
-70
-70
-63
-48
-36
-31
-36
-43
-45
-56
-61
-59
-49
-36
-25
-20
-23
-32
-36
-43
-52
-51
-46
-37
-24
-23
-19
-27
-34
-37
-38
-35
-26
-15
-11
-1
0
-1
-11
-20
-28
-29
-26
-16
-8
-7
-5
-9
-13
-19
-18
-19
-22
-13
-11
-14
-16
-23
-30
-42
-48
-47
-36
-37
-24
-26
-25
-35
-43
-55
-60
-59
-59
-53
-48
-46
-47
-56
-66
-74
-72
-71
-66
-60
-53
-48
-56
-67
-68
-76
-79
-75
-70
-67
-65
-62
-62
-64
-70
-74
-75
-75
-66
-62
-57
-60
-60
-68
-71
-73
-75
-71
-63
-57
-50
-49
-55
-62
-65
-71
-72
-73
-64
-58
-55
-54
-61
-62
-65
-67
-71
-65
-62
-53
-46
-49
-49
-56
-65
-70
-73
-72
-62
-55
-49
-52
-58
-66
-73
-77
-78
-74
-65
-59
-52
-48
-53
-59
-60
-66
-73
-71
-72
-55
-50
-54
-58
-61
-66
-71
-69
-72
-66
-62
-56
-52
-58
-62
-70
-73
-76
-73
-62
-55
-53
-56
-64
-67
-77
-80
-77
-67
-61
-56
-47
-52
-59
-68
-70
-72
-68
-62
-63
-59
-58
-54
-60
-68
-74
-79
-72
-64
-62
-57
-54
-54
-63
-64
-78
-82
-77
-67
-60
-55
-52
-52
-61
-62
-67
-70
-68
-68
-65
-54
-50
-50
-58
-64
-66
-67
-65
-62
-56
-47
-42
-51
-54
-53
-61
-65
-66
-58
-50
-42
-36
-46
-56
-57
-64
-63
-63
-58
-52
-51
-58
-60
-66
-67
-73
-71
-71
-64
-61
-55
-52
-56
-62
-67
-72
-72
-70
-72
-61
-56
-59
-57
-70
-79
-85
-80
-74
-63
-62
-58
-53
-58
-67
-79
-80
-81
-80
-73
-64
-59
-66
-69
-75
-75
-71
-61
-36
-14
7
31
51
67
69
57
47
20
-2
-5
-20
-38
-70
-111
-124
-127
-126
-117
-113
-103
-92
-83
-76
-78
-84
-83
-76
-71
-69
-65
-56
-54
-53
-56
-62
-64
-71
-72
-66
-58
-54
-52
-51
-59
-62
-61
-69
-68
-60
-48
-45
-44
-54
-60
-59
-60
-63
-57
-54
-51
-38
-33
-43
-57
-61
-67
-68
-65
-52
-49
-41
-38
-45
-52
-52
-55
-63
-60
-56
-48
-43
-38
-36
-43
-44
-48
-49
-45
-37
-30
-30
-28
-31
-36
-37
-42
-42
-44
-40
-34
-30
-31
-30
-32
-32
-35
-33
-29
-25
-18
-15
-13
-10
-14
-20
-27
-25
-18
-13
-13
-5
-1
2
1
-8
-12
-15
-16
-10
-12
-7
-3
0
-10
-20
-24
-27
-25
-19
-19
-17
-17
-21
-31
-36
-45
-47
-47
-42
-36
-38
-37
-48
-51
-55
-60
-61
-64
-55
-54
-49
-50
-53
-61
-67
-71
-73
-64
-62
-56
-51
-51
-58
-63
-75
-77
-69
-67
-66
-59
-53
-54
-59
-68
-76
-73
-70
-65
-61
-55
-46
-48
-55
-61
-65
-71
-68
-64
-60
-55
-51
-54
-53
-62
-66
-66
-64
-67
-59
-57
-52
-51
-51
-61
-69
-67
-68
-60
-59
-48
-43
-52
-59
-59
-64
-62
-64
-57
-50
-50
-47
-48
-59
-65
-71
-77
-73
-64
-59
-49
-44
-46
-58
-65
-70
-72
-68
-62
-60
-54
-50
-50
-58
-60
-68
-76
-70
-63
-60
-54
-49
-50
-60
-64
-70
-74
-73
-66
-61
-50
-49
-52
-62
-68
-72
-77
-67
-60
-58
-54
-56
-63
-66
-69
-69
-66
-68
-64
-60
-58
-56
-60
-59
-60
-67
-67
-66
-60
-55
-54
-53
-54
-61
-66
-69
-75
-73
-65
-58
-53
-53
-60
-64
-68
-71
-75
-70
-60
-61
-51
-49
-59
-64
-69
-70
-72
-72
-66
-51
-46
-48
-56
-54
-56
-61
-66
-56
-53
-45
-44
-40
-46
-53
-59
-61
-63
-55
-47
-46
-40
-40
-53
-56
-62
-67
-65
-56
-53
-48
-45
-49
-63
-74
-78
-77
-71
-70
-61
-60
-57
-58
-66
-68
-73
-66
-73
-66
-68
-64
-62
-64
-68
-68
-75
-80
-81
-76
-67
-56
-54
-53
-63
-65
-72
-79
-79
-77
-72
-62
-60
-59
-57
-50
-38
-21
-1
26
55
79
83
75
52
13
-10
-24
-40
-62
-91
-111
-108
-106
-108
-109
-112
-108
-102
-87
-82
-73
-66
-68
-72
-74
-78
-74
-70
-59
-58
-52
-50
-55
-62
-62
-69
-70
-72
-68
-65
-57
-54
-49
-56
-66
-67
-63
-61
-55
-58
-50
-46
-52
-60
-64
-64
-61
-63
-58
-50
-46
-43
-47
-52
-59
-65
-69
-67
-59
-49
-38
-40
-45
-52
-63
-66
-63
-59
-50
-46
-41
-35
-39
-46
-52
-53
-57
-52
-50
-38
-33
-32
-37
-42
-48
-50
-46
-39
-31
-23
-22
-24
-34
-40
-44
-43
-39
-29
-23
-13
-10
-13
-17
-19
-28
-29
-24
-23
-16
-7
-3
-3
-10
-13
-24
-26
-24
-21
-11
-3
-8
-10
-16
-24
-34
-34
-29
-34
-29
-26
-25
-33
-46
-49
-58
-60
-56
-54
-49
-40
-44
-44
-49
-60
-66
-70
-72
-64
-62
-54
-53
-57
-58
-63
-79
-85
-75
-67
-69
-66
-63
-61
-69
-73
-77
-78
-72
-67
-62
-56
-61
-64
-72
-80
-84
-81
-74
-67
-55
-52
-51
-57
-64
-74
-79
-79
-70
-64
-62
-55
-58
-64
-62
-71
-76
-76
-70
-62
-58
-55
-54
-56
-61
-71
-77
-75
-70
-65
-57
-53
-59
-66
-69
-71
-68
-68
-66
-64
-59
-58
-55
-58
-62
-66
-68
-72
-71
-64
-56
-53
-53
-60
-68
-77
-78
-77
-73
-68
-55
-55
-57
-63
-67
-72
-76
-80
-74
-68
-63
-55
-56
-59
-69
-72
-76
-79
-67
-63
-59
-56
-58
-65
-68
-70
-73
-73
-67
-70
-62
-61
-61
-67
-70
-74
-75
-75
-66
-62
-59
-57
-59
-65
-72
-78
-76
-69
-64
-68
-63
-55
-58
-67
-72
-78
-81
-75
-67
-60
-57
-57
-61
-68
-71
-79
-81
-70
-68
-65
-57
-53
-59
-63
-64
-71
-72
-71
-68
-69
-62
-51
-54
-61
-62
-69
-73
-63
-54
-53
-48
-46
-53
-57
-59
-58
-65
-60
-58
-48
-45
-47
-52
-57
-62
-68
-74
-74
-65
-61
-62
-62
-63
-64
-71
-73
-79
-78
-71
-63
-56
-59
-64
-70
-76
-76
-77
-71
-69
-59
-59
-60
-67
-74
-78
-78
-81
-74
-65
-61
-64
-62
-65
-68
-73
-80
-84
-78
-72
-66
-60
-62
-71
-66
-56
-41
-25
2
27
53
76
76
69
51
22
9
-6
-34
-60
-77
-105
-109
-109
-113
-120
-116
-109
-98
-90
-77
-68
-68
-66
-72
-72
-76
-72
-66
-61
-55
-51
-51
-57
-62
-69
-75
-71
-67
-59
-46
-45
-48
-57
-63
-67
-67
-67
-59
-52
-48
-44
-50
-57
-60
-64
-64
-64
-57
-57
-47
-43
-42
-46
-48
-53
-59
-57
-48
-45
-38
-42
-45
-48
-55
-59
-58
-50
-47
-46
-38
-36
-46
-53
-54
-62
-57
-48
-35
-33
-29
-27
-26
-25
-35
-40
-35
-36
-29
-30
-22
-22
-23
-31
-32
-33
-33
-26
-22
-15
-9
-7
-9
-14
-20
-25
-24
-21
-14
-7
-4
-1
-6
-14
-13
-16
-19
-9
-3
-1
1
4
-9
-11
-19
-27
-21
-16
-17
-17
-16
-17
-21
-33
-45
-51
-53
-49
-46
-38
-38
-39
-50
-51
-57
-64
-63
-59
-54
-51
-41
-45
-51
-59
-67
-62
-61
-56
-53
-47
-45
-50
-62
-65
-72
-68
-63
-58
-56
-45
-49
-50
-56
-62
-70
-71
-62
-53
-54
-44
-43
-48
-55
-61
-69
-67
-68
-62
-54
-45
-42
-44
-54
-57
-64
-64
-60
-53
-49
-42
-40
-47
-54
-59
-62
-60
-55
-47
-40
-38
-31
-42
-51
-59
-66
-70
-59
-51
-45
-39
-39
-45
-58
-65
-69
-62
-55
-48
-42
-33
-35
-45
-54
-62
-66
-68
-59
-47
-40
-41
-42
-48
-53
-59
-62
-54
-54
-50
-44
-40
-37
-44
-51
-59
-65
-65
-59
-50
-41
-43
-48
-55
-59
-64
-61
-63
-56
-49
-41
-43
-37
-40
-50
-60
-63
-62
-59
-53
-45
-43
-44
-48
-52
-61
-62
-63
-54
-47
-39
-42
-43
-48
-56
-63
-68
-66
-63
-56
-46
-48
-41
-42
-45
-52
-57
-60
-53
-48
-41
-42
-38
-46
-49
-56
-63
-63
-57
-52
-40
-37
-39
-43
-48
-52
-52
-53
-43
-37
-32
-31
-38
-43
-52
-56
-52
-49
-42
-39
-36
-35
-37
-35
-40
-45
-47
-47
-42
-38
-30
-34
-40
-46
-54
-60
-57
-60
-50
-49
-47
-45
-43
-44
-49
-63
-67
-57
-50
-44
-46
-44
-49
-51
-60
-65
-60
-58
-52
-43
-40
-38
-48
-56
-62
-65
-64
-53
-51
-43
-42
-45
-52
-60
-72
-72
-66
-59
-52
-32
-19
-7
3
18
34
49
64
75
80
73
51
40
28
-8
-43
-84
-112
-106
-100
-91
-78
-75
-83
-86
-93
-91
-84
-69
-64
-49
-40
-37
-43
-44
-47
-52
-52
-43
-43
-38
-35
-35
-38
-41
-47
-51
-52
-49
-43
-30
-27
-28
-36
-38
-43
-51
-47
-44
-39
-31
-25
-31
-40
-42
-44
-44
-44
-38
-26
-22
-21
-24
-33
-38
-44
-43
-43
-37
-29
-16
-22
-23
-31
-33
-39
-40
-30
-27
-21
-15
-12
-13
-18
-20
-29
-35
-28
-24
-17
-13
-11
-12
-18
-24
-22
-25
-18
-6
-3
2
8
1
-3
-7
-11
-9
-6
2
6
14
19
19
12
3
2
3
5
10
13
20
25
19
15
10
3
3
3
9
13
14
10
7
-3
-12
-15
-18
-14
-11
-12
-7
-12
-27
-31
-40
-36
-40
-34
-29
-22
-23
-26
-32
-41
-50
-50
-49
-40
-35
-30
-33
-35
-43
-47
-48
-54
-51
-46
-43
-36
-33
-34
-41
-49
-52
-53
-56
-50
-45
-36
-33
-31
-39
-44
-51
-57
-60
-49
-44
-37
-34
-29
-40
-44
-46
-49
-52
-44
-36
-33
-33
-32
-36
-40
-47
-46
-43
-35
-32
-36
-35
-32
-39
-42
-46
-45
-43
-37
-33
-27
-24
-29
-35
-45
-48
-50
-50
-37
-34
-24
-22
-27
-38
-40
-49
-52
-46
-40
-34
-31
-32
-34
-42
-44
-48
-50
-46
-39
-36
-35
-30
-28
-35
-48
-48
-50
-44
-42
-35
-32
-35
-42
-45
-46
-52
-52
-48
-42
-37
-34
-36
-36
-44
-47
-51
-52
-49
-41
-37
-35
-35
-38
-39
-49
-49
-46
-46
-40
-31
-32
-34
-39
-42
-49
-50
-48
-42
-38
-32
-34
-33
-36
-41
-50
-49
-52
-45
-41
-33
-29
-25
-33
-37
-37
-38
-38
-34
-31
-24
-25
-25
-29
-22
-30
-38
-37
-35
-36
-25
-26
-29
-32
-38
-42
-48
-48
-40
-33
-34
-27
-26
-39
-42
-56
-54
-55
-50
-43
-32
-29
-35
-42
-50
-53
-51
-47
-49
-49
-31
-31
-36
-43
-51
-54
-55
-52
-46
-42
-34
-34
-38
-47
-52
-53
-54
-50
-48
-51
-45
-40
-47
-49
-54
-51
-40
-21
5
31
60
83
95
89
79
56
31
28
23
6
-19
-51
-78
-91
-95
-94
-88
-80
-78
-75
-69
-57
-53
-52
-55
-56
-53
-50
-43
-32
-32
-32
-32
-40
-41
-44
-44
-38
-33
-32
-26
-24
-25
-29
-32
-38
-42
-38
-39
-30
-26
-24
-30
-36
-39
-37
-34
-24
-22
-18
-19
-19
-26
-31
-38
-42
-39
-33
-27
-20
-18
-17
-22
-24
-30
-34
-25
-19
-15
-14
-13
-15
-23
-28
-34
-34
-30
-19
-11
-4
-5
-1
-9
-14
-20
-20
-18
-12
-11
-4
1
4
-2
-1
-8
-11
-8
5
7
14
16
22
21
13
7
1
-1
5
13
24
24
29
24
19
14
9
12
19
23
27
23
21
16
9
-1
2
-1
6
11
18
14
4
-4
-12
-19
-24
-25
-17
-16
-17
-10
-14
-20
-24
-25
-28
-34
-32
-25
-17
-19
-28
-36
-45
-47
-43
-35
-34
-26
-25
-29
-31
-34
-38
-46
-49
-42
-39
-34
-30
-30
-30
-39
-40
-43
-44
-36
-30
-26
-26
-24
-27
-37
-47
-49
-44
-39
-36
-28
-21
-28
-28
-31
-37
-39
-45
-42
-31
-26
-18
-23
-25
-37
-41
-40
-44
-35
-31
-27
-18
-15
-25
-30
-37
-40
-38
-33
-31
-25
-23
-24
-29
-35
-40
-40
-41
-36
-32
-25
-28
-25
-37
-37
-46
-41
-39
-30
-22
-19
-26
-20
-23
-34
-42
-43
-42
-32
-28
-27
-23
-23
-30
-36
-50
-53
-45
-35
-28
-21
-27
-33
-36
-41
-50
-45
-51
-39
-34
-31
-29
-22
-28
-34
-38
-45
-43
-36
-34
-25
-25
-25
-34
-35
-39
-44
-41
-31
-28
-24
-24
-28
-37
-43
-46
-47
-42
-36
-29
-28
-30
-30
-34
-37
-42
-43
-36
-34
-25
-25
-27
-31
-37
-45
-44
-39
-37
-34
-24
-20
-26
-27
-33
-42
-47
-49
-44
-38
-33
-27
-26
-26
-30
-38
-41
-40
-34
-30
-27
-20
-22
-28
-35
-43
-40
-37
-31
-26
-22
-15
-14
-20
-28
-29
-31
-31
-32
-26
-20
-17
-16
-26
-29
-32
-34
-39
-37
-30
-25
-28
-22
-24
-30
-39
-44
-48
-42
-40
-33
-32
-26
-36
-39
-46
-46
-48
-43
-38
-30
-27
-23
-32
-42
-46
-45
-42
-36
-34
-33
-30
-33
-39
-47
-49
-50
-46
-47
-41
-37
-36
-38
-39
-48
-47
-39
-24
2
28
52
72
94
100
92
81
59
36
29
15
-4
-23
-53
-82
-87
-90
-84
-76
-59
-58
-50
-44
-45
-47
-49
-53
-50
-40
-36
-34
-30
-27
-28
-34
-39
-41
-39
-35
-29
-27
-18
-21
-20
-29
-38
-46
-45
-36
-29
-27
-23
-19
-19
-27
-27
-28
-35
-31
-25
-25
-19
-25
-27
-26
-35
-33
-28
-29
-18
-13
-14
-15
-22
-29
-30
-32
-37
-36
-27
-19
-15
-9
-15
-14
-22
-28
-29
-20
-15
-10
-4
-3
-10
-13
-24
-27
-23
-15
-10
-5
-1
4
-3
-7
-14
-14
-13
-6
-7
-2
11
12
12
8
2
3
8
11
16
26
27
25
20
18
6
2
2
9
15
19
21
21
16
16
13
7
10
15
7
16
15
3
-7
-13
-23
-28
-31
-15
-11
-11
-3
-6
-15
-25
-35
-34
-33
-27
-25
-19
-23
-28
-35
-46
-49
-46
-40
-26
-22
-22
-19
-31
-39
-43
-45
-48
-40
-34
-23
-23
-25
-32
-38
-43
-49
-45
-37
-32
-24
-22
-23
-27
-30
-44
-54
-56
-44
-33
-28
-31
-26
-27
-38
-41
-41
-45
-43
-36
-28
-25
-21
-28
-37
-42
-46
-46
-40
-39
-28
-28
-24
-29
-32
-45
-44
-36
-32
-31
-23
-16
-22
-29
-35
-41
-45
-46
-39
-33
-30
-24
-24
-29
-27
-38
-42
-40
-32
-29
-27
-26
-28
-34
-39
-43
-44
-43
-37
-36
-26
-26
-22
-24
-27
-43
-44
-46
-34
-28
-26
-30
-32
-35
-37
-43
-44
-41
-27
-30
-27
-25
-29
-38
-37
-44
-42
-39
-38
-34
-29
-27
-27
-29
-38
-40
-50
-48
-39
-37
-28
-25
-26
-33
-43
-43
-41
-39
-35
-32
-31
-24
-25
-34
-36
-41
-40
-41
-38
-33
-27
-31
-31
-34
-38
-45
-46
-44
-37
-35
-32
-35
-34
-36
-38
-37
-36
-35
-36
-34
-26
-27
-32
-29
-31
-43
-46
-44
-37
-28
-25
-25
-36
-38
-43
-43
-40
-39
-29
-24
-22
-18
-25
-29
-36
-37
-35
-30
-25
-22
-17
-18
-23
-28
-36
-38
-39
-29
-31
-24
-22
-19
-26
-33
-43
-47
-48
-41
-33
-22
-24
-26
-33
-39
-44
-48
-51
-44
-37
-30
-30
-26
-30
-36
-40
-45
-48
-43
-40
-31
-33
-29
-35
-43
-49
-50
-52
-53
-49
-41
-32
-37
-40
-44
-52
-53
-53
-53
-56
-40
-25
-12
-3
14
25
42
63
81
99
108
99
67
43
23
-5
-34
-56
-79
-88
-79
-72
-76
-76
-70
-72
-75
-62
-47
-38
-32
-29
-31
-44
-43
-49
-45
-38
-36
-36
-30
-24
-27
-35
-41
-44
-46
-41
-31
-31
-26
-27
-29
-29
-39
-44
-45
-40
-29
-28
-23
-25
-30
-31
-35
-36
-36
-33
-29
-21
-19
-19
-21
-29
-34
-40
-36
-26
-22
-21
-21
-21
-24
-27
-34
-36
-37
-30
-24
-19
-17
-23
-20
-25
-31
-28
-23
-18
-14
-5
-3
-1
-6
-14
-25
-23
-18
-12
-12
-3
1
9
2
0
-8
-9
-9
-5
8
15
20
21
11
6
0
0
3
5
13
25
19
21
19
14
9
5
6
11
17
22
21
19
11
7
-2
-8
-10
-10
-9
1
1
0
-7
-15
-23
-31
-28
-30
-22
-16
-15
-21
-25
-34
-41
-44
-45
-44
-38
-26
-23
-30
-32
-35
-44
-51
-45
-39
-37
-33
-33
-29
-42
-48
-52
-55
-44
-32
-29
-23
-25
-28
-36
-44
-48
-52
-47
-36
-33
-27
-23
-32
-39
-40
-46
-50
-48
-42
-36
-30
-26
-34
-38
-48
-49
-52
-48
-41
-35
-28
-26
-30
-37
-42
-48
-43
-41
-35
-31
-25
-24
-29
-36
-41
-43
-46
-38
-31
-24
-28
-27
-34
-32
-38
-45
-45
-41
-39
-36
-33
-32
-34
-39
-42
-42
-46
-41
-39
-32
-26
-25
-32
-42
-48
-51
-42
-35
-29
-27
-30
-29
-31
-36
-40
-41
-45
-46
-39
-33
-31
-28
-33
-40
-51
-50
-48
-40
-35
-28
-28
-31
-34
-43
-49
-47
-46
-41
-36
-29
-27
-34
-40
-43
-53
-53
-50
-35
-31
-33
-33
-37
-38
-42
-48
-47
-44
-38
-32
-22
-24
-27
-35
-42
-54
-52
-51
-48
-42
-28
-28
-28
-35
-39
-46
-47
-45
-39
-31
-28
-30
-32
-40
-44
-50
-51
-45
-35
-35
-29
-26
-30
-39
-39
-49
-48
-45
-41
-31
-26
-29
-33
-38
-47
-51
-47
-43
-33
-25
-15
-18
-27
-33
-42
-44
-42
-38
-33
-20
-18
-16
-21
-28
-39
-43
-37
-35
-32
-27
-18
-17
-24
-32
-33
-34
-42
-33
-34
-24
-21
-27
-35
-35
-41
-44
-51
-42
-33
-29
-26
-21
-28
-37
-49
-53
-46
-43
-37
-36
-37
-29
-41
-40
-46
-48
-48
-39
-41
-30
-30
-28
-36
-41
-50
-55
-53
-42
-35
-31
-36
-44
-49
-54
-52
-55
-48
-37
-22
-2
22
33
46
56
77
89
91
87
68
55
54
34
-1
-31
-75
-99
-91
-84
-83
-76
-69
-74
-78
-72
-70
-66
-53
-43
-32
-29
-25
-24
-29
-33
-39
-41
-40
-34
-28
-24
-20
-22
-32
-36
-38
-40
-36
-30
-23
-16
-19
-25
-25
-30
-37
-38
-36
-36
-23
-16
-20
-24
-28
-28
-31
-32
-40
-33
-21
-18
-17
-18
-22
-26
-28
-30
-18
-14
-15
-13
-12
-19
-21
-30
-31
-29
-17
-10
-5
-6
-3
-7
-8
-18
-23
-25
-18
-15
-5
2
5
3
-2
-11
-17
-11
0
6
10
13
14
10
8
3
3
2
16
17
27
32
28
22
17
11
3
7
14
22
36
34
31
23
17
6
3
11
22
26
31
27
25
14
7
0
-6
-4
0
5
6
4
-1
-16
-21
-24
-25
-24
-17
-11
-6
-13
-26
-37
-39
-43
-43
-36
-30
-28
-26
-18
-18
-30
-43
-47
-43
-28
-28
-22
-18
-17
-26
-37
-38
-47
-44
-36
-28
-20
-19
-18
-23
-34
-38
-46
-46
-40
-29
-23
-20
-22
-28
-40
-48
-55
-49
-37
-31
-20
-14
-19
-27
-31
-38
-43
-34
-27
-25
-21
-16
-17
-25
-30
-35
-39
-35
-28
-23
-10
-12
-16
-21
-28
-37
-37
-38
-27
-19
-15
-15
-14
-25
-30
-40
-41
-40
-32
-25
-22
-27
-26
-27
-25
-30
-28
-27
-24
-17
-15
-16
-17
-26
-36
-36
-38
-36
-20
-14
-15
-15
-16
-28
-30
-39
-39
-35
-27
-21
-17
-21
-23
-37
-35
-38
-40
-28
-26
-23
-17
-15
-25
-30
-29
-37
-38
-32
-30
-26
-16
-14
-20
-23
-31
-38
-37
-28
-24
-18
-15
-16
-24
-31
-34
-42
-42
-33
-20
-15
-9
-14
-13
-17
-27
-31
-37
-36
-24
-15
-12
-11
-16
-19
-28
-32
-27
-27
-20
-12
-9
-5
-6
-12
-19
-19
-20
-19
-20
-13
-9
-2
-13
-25
-29
-30
-23
-19
-16
-13
-5
-8
-19
-18
-30
-31
-37
-30
-24
-16
-13
-17
-19
-23
-32
-33
-35
-27
-20
-18
-16
-16
-22
-32
-43
-44
-38
-29
-27
-22
-15
-12
-17
-20
-33
-32
-37
-33
-26
-17
-16
-15
-27
-31
-40
-45
-43
-36
-20
4
25
42
48
61
72
88
91
88
82
68
62
58
32
3
-41
-76
-85
-76
-70
-60
-53
-56
-56
-57
-60
-56
-49
-33
-29
-25
-21
-19
-22
-24
-26
-30
-25
-15
-6
-5
-14
-15
-20
-23
-27
-24
-17
-10
-6
-5
-7
-9
-14
-24
-21
-21
-18
-9
-2
2
4
-9
-14
-9
-13
-17
-14
-15
-10
-3
-7
-8
-9
-6
-9
-13
-10
-2
8
13
7
-1
-10
-17
-23
-8
-1
5
16
17
14
6
-3
-4
-3
-5
-1
2
10
14
19
17
13
11
5
8
11
12
22
29
30
24
19
12
15
20
25
34
39
39
40
39
37
30
29
30
33
37
51
49
47
37
38
29
29
32
32
36
40
43
38
31
26
11
11
9
10
15
22
19
17
6
-3
-9
-10
-14
-11
-8
1
2
-3
-3
-9
-21
-29
-29
-20
-15
-3
-2
-3
-10
-15
-25
-28
-26
-24
-17
-11
-7
-2
-3
-14
-26
-33
-24
-21
-12
-10
-3
-6
-14
-25
-30
-31
-24
-18
-20
-9
-6
-6
-16
-20
-20
-18
-22
-18
-7
0
1
-5
-14
-22
-24
-25
-25
-16
-8
1
4
-6
-12
-13
-20
-17
-14
-11
-7
-6
-6
-8
-14
-22
-25
-25
-17
-11
-4
6
-4
-3
-6
-12
-20
-20
-18
-17
-10
-9
-5
-5
-12
-23
-30
-25
-15
-11
-1
5
4
-1
-8
-20
-26
-29
-22
-18
-14
-6
-4
-12
-17
-22
-26
-25
-19
-13
-6
-5
0
-10
-15
-27
-30
-30
-21
-15
-9
-6
-3
-6
-13
-17
-25
-20
-19
-19
-12
-9
-8
-18
-22
-21
-22
-17
-10
-6
-2
-1
-5
-7
-12
-20
-21
-21
-17
-15
-7
-5
-7
-12
-13
-16
-19
-19
-14
-5
3
6
4
-6
-9
-10
-12
-12
-1
2
5
3
5
-5
-5
-13
-16
-11
-8
0
5
5
4
-2
-11
-22
-23
-19
-13
-8
-5
-5
-6
-16
-21
-23
-24
-23
-16
-8
-6
-3
-5
-7
-16
-20
-29
-24
-20
-11
-14
-10
-7
-13
-19
-17
-24
-23
-17
-9
0
4
-5
-13
-24
-33
-35
-32
-24
-18
-21
-9
1
12
25
34
55
80
109
127
125
110
84
62
44
30
4
-14
-41
-60
-52
-45
-48
-49
-53
-58
-56
-45
-30
-20
-9
-8
-15
-18
-25
-28
-26
-16
-5
-1
1
3
-4
-8
-14
-16
-20
-16
-10
-4
1
9
0
-5
-9
-12
-9
-5
0
4
4
9
3
-1
-5
-8
-10
0
-2
2
7
3
1
4
0
-6
-2
3
3
11
10
8
-1
-4
-5
-3
1
6
8
11
18
13
9
1
-1
-3
0
2
13
26
31
25
21
16
10
8
12
17
17
33
34
27
28
24
22
24
25
30
40
44
48
45
40
33
28
24
33
44
52
50
46
42
45
42
34
29
29
35
48
50
56
49
44
31
26
21
21
23
29
30
30
28
13
-1
-4
-4
1
6
12
13
13
7
-1
-12
-17
-18
-11
-9
-6
-4
-3
-10
-12
-18
-21
-18
-6
-4
0
0
1
-5
-8
-13
-21
-24
-13
-8
-7
-2
-3
-3
-11
-21
-23
-16
-16
-13
-8
-3
-1
-7
-10
-20
-26
-19
-7
-6
1
3
3
-7
-11
-15
-16
-13
-6
-3
4
3
2
-9
-12
-22
-27
-21
-5
-1
6
6
8
-5
-11
-8
-12
-16
-9
-8
-2
2
3
-2
-3
-10
-8
-10
-7
-5
-2
6
4
-8
-12
-14
-16
-15
-10
-5
0
7
6
-6
-7
-16
-21
-19
-15
-7
1
5
0
-6
-14
-16
-17
-17
-12
-12
-8
-3
-4
-9
-8
-9
-15
-13
-6
-6
-4
-7
-11
-16
-16
-15
-8
-9
-11
-5
1
5
2
-3
-9
-16
-23
-17
-8
-1
0
0
-1
-6
-14
-16
-14
-13
-13
-6
0
0
-3
-8
-21
-22
-22
-23
-17
-7
-3
1
-2
-9
-17
-11
-19
-15
-12
3
-1
3
-7
-12
-16
-15
-15
-14
-13
-2
3
1
-10
-14
-21
-22
-16
-4
-2
9
11
3
-5
-14
-16
-19
-21
-6
-8
-1
7
9
6
8
-6
-11
-10
-10
-5
1
13
11
8
-3
-7
-15
-11
-2
4
8
13
9
7
-7
-15
-19
-17
-15
-17
-8
-7
-12
-10
-18
-19
-11
-17
-14
-8
-4
-1
-1
-8
-15
-19
-21
-20
-18
-12
-8
-5
-5
-4
-7
-16
-20
-17
-13
-10
-6
-5
-11
-12
-18
-26
-32
-30
-19
0
6
30
47
60
71
85
103
112
117
110
90
75
60
32
1
-22
-52
-62
-58
-48
-42
-33
-36
-34
-32
-34
-31
-25
-19
-8
-2
-1
-7
-12
-22
-17
-19
-7
-5
2
6
6
-4
-6
-14
-16
-16
-8
-7
3
12
13
4
-2
-7
-12
-10
-10
-9
3
6
1
-6
-7
-14
-7
-6
2
2
9
11
9
4
0
-5
-9
-9
-2
5
14
17
14
11
4
-3
-5
-4
3
8
9
11
13
12
9
-1
2
7
14
18
18
23
23
17
21
11
6
12
17
26
33
39
35
27
24
21
20
23
28
36
45
46
43
38
31
28
29
28
37
49
53
50
50
48
36
28
26
29
33
39
37
38
37
32
25
20
19
23
25
24
25
26
23
14
0
-4
-3
5
5
1
6
3
-6
-10
-11
-16
-14
-5
-3
5
4
0
-4
-8
-18
-22
-21
-16
-8
-4
-9
-7
-7
-5
-12
-18
-16
-12
-7
-1
-2
-2
-8
-15
-20
-21
-21
-11
-6
0
2
2
-4
-7
-15
-17
-18
-16
-14
-8
-6
-5
-9
-14
-17
-19
-19
-11
-1
1
1
-4
-8
-14
-21
-24
-12
-3
-1
1
1
4
1
-4
-12
-12
-16
-15
-9
-6
0
2
-1
-8
-19
-22
-16
-13
-3
5
6
-5
-7
-12
-20
-16
-17
-8
-5
6
2
-2
-8
-14
-18
-21
-14
-5
-3
-2
1
-4
-4
-7
-13
-16
-14
-11
-5
-2
-3
-5
-13
-22
-21
-25
-20
-13
-1
6
3
-4
-11
-16
-20
-21
-19
-13
-6
0
7
7
-1
-11
-16
-17
-13
-8
-2
3
1
-5
-12
-21
-24
-24
-18
-12
-3
-5
-1
-8
-15
-21
-20
-14
-13
-10
-2
0
4
-14
-15
-19
-20
-19
-13
-14
-3
-2
5
3
-7
-10
-14
-16
-15
-10
-3
0
4
-2
-7
-13
-19
-14
-15
-9
1
-2
-3
-5
-4
-11
-10
-5
-2
-2
7
8
7
3
-2
-5
-7
-6
-3
6
9
12
13
7
4
-3
-9
-8
-2
1
8
9
6
-7
-18
-19
-14
-17
-19
-12
1
4
-3
-13
-17
-19
-15
-15
-13
-8
-12
-10
-12
-16
-19
-21
-20
-16
-14
-8
0
0
-7
-8
-18
-27
-21
-15
-12
-11
-10
-8
-15
-19
-24
-26
-16
-5
18
44
62
85
97
105
107
110
102
82
71
66
48
23
-6
-36
-68
-72
-68
-62
-45
-33
-25
-24
-23
-19
-22
-26
-18
-12
-7
-1
-1
3
-6
-15
-19
-19
-15
-3
-2
1
9
10
4
-2
-14
-13
-11
-5
2
10
6
3
-1
-2
-9
-13
-11
-3
-4
7
8
9
2
-5
-9
-11
-7
-2
0
9
9
10
8
5
1
-6
-6
-1
5
16
11
7
2
9
1
2
5
1
5
13
16
16
11
11
6
3
9
19
19
25
29
26
19
20
17
15
18
22
28
37
40
37
32
30
23
25
30
36
40
46
47
52
42
33
36
35
33
33
36
43
49
44
41
39
31
26
34
44
44
45
38
34
25
15
13
12
16
16
20
21
16
14
14
-4
-6
-5
-3
-1
5
8
2
-10
-6
-13
-16
-12
-8
-2
0
3
1
-1
-7
-13
-19
-21
-17
-6
1
4
1
-5
-11
-19
-23
-21
-15
-11
2
4
6
0
-12
-15
-19
-14
-12
-9
-3
2
-1
-12
-15
-14
-17
-18
-12
-3
4
2
1
-4
-6
-11
-18
-16
-12
-12
4
3
-3
-8
-15
-20
-18
-9
-3
1
3
5
9
-1
-8
-16
-17
-13
-8
-7
1
0
-6
-10
-15
-19
-19
-16
-1
6
5
12
5
-11
-13
-16
-17
-12
-9
-7
0
0
-1
-3
-10
-19
-15
-7
-3
-2
1
5
-2
-4
-12
-19
-20
-17
-10
-9
-6
-3
4
-1
-11
-18
-15
-11
-8
-1
5
4
-2
-10
-15
-19
-19
-18
-14
-6
4
3
-4
-11
-16
-22
-21
-18
-9
3
4
2
-7
-11
-13
-19
-20
-12
-6
5
1
0
-3
-7
-12
-13
-11
-12
-4
7
4
4
-3
-12
-20
-21
-21
-15
-11
0
-1
4
-1
-7
-14
-14
-14
-8
-8
-5
-3
1
-3
0
-10
-14
-8
1
3
7
11
8
3
-1
-5
-11
-7
-4
1
15
16
12
-2
0
-6
-8
-4
2
5
12
10
7
-3
-5
-15
-20
-18
-11
-4
3
3
1
-3
-8
-10
-16
-16
-8
-4
-1
-4
-9
-10
-8
-13
-17
-14
-6
-2
-2
1
-3
-8
-14
-26
-25
-21
-14
-6
-4
-1
-8
-13
-15
-23
-25
-22
-16
-2
16
27
39
52
68
87
110
120
125
122
100
85
77
46
15
-18
-53
-67
-57
-45
-35
-32
-43
-46
-48
-38
-27
-16
-11
-1
1
4
-4
-10
-17
-20
-17
-11
-4
1
2
6
4
0
-4
-8
-11
-10
-5
1
9
12
6
-1
-13
-9
-7
-8
-12
1
12
10
6
3
-1
-8
-4
4
5
8
9
9
5
2
-5
-9
0
8
11
17
21
22
11
5
-1
-6
-4
8
14
15
21
24
21
15
5
6
9
13
16
20
21
24
24
19
9
10
19
24
30
34
35
31
29
29
25
31
38
42
55
55
54
51
50
43
37
33
30
38
46
58
59
49
49
44
35
33
39
42
50
57
55
47
39
33
22
17
19
28
33
31
33
23
10
8
6
-1
3
8
12
15
12
5
-2
-6
-6
-10
-10
-9
0
3
3
0
-4
-8
-13
-18
-9
-8
-4
-1
4
2
-7
-16
-18
-18
-15
-9
-2
-3
2
1
-7
-13
-19
-20
-12
-8
2
5
12
4
1
-8
-14
-9
-8
-8
1
8
5
-5
-2
-10
-11
-10
-9
-7
1
4
3
1
-1
