1
12
16
17
12
9
12
8
13
16
12
11
10
11
10
8
9
8
17
15
11
14
21
10
1
13
24
9
9
14
12
17
17
20
9
-12
-3
4
-3
10
19
9
9
23
12
5
12
10
8
0
-2
0
2
5
7
9
12
7
11
8
7
16
11
19
16
7
5
6
6
1
-1
5
4
13
5
0
1
0
0
6
4
3
-2
-2
3
-3
-1
-11
-3
-5
15
10
9
9
11
7
-1
1
1
2
6
3
5
5
5
8
6
0
1
-1
-5
-2
1
4
6
5
1
-11
-8
5
11
13
2
1
-6
3
-3
-3
2
1
-6
-1
-1
2
-3
-4
-10
-18
-18
2
4
10
8
3
8
12
3
10
7
11
18
19
9
8
5
7
17
19
20
26
19
21
14
20
30
31
30
14
21
23
29
13
7
9
15
11
15
9
10
9
11
13
13
4
12
1
-12
1
-3
-1
3
-1
1
-11
-5
-3
1
-6
-7
-11
-7
-6
-6
-11
-13
5
9
2
-1
-1
-1
0
5
0
-9
-1
0
-3
0
9
13
26
30
38
63
78
107
122
147
165
158
164
148
143
145
135
98
58
36
23
12
-12
-43
-57
-58
-51
-52
-26
-15
-10
-5
6
6
-1
1
13
3
-3
-1
5
7
6
-4
-8
3
-2
-8
0
-7
0
6
6
13
8
12
15
9
12
7
6
4
1
4
10
16
13
13
16
14
14
12
16
18
25
22
14
11
17
26
25
22
8
8
17
31
33
27
25
39
39
32
32
29
39
44
40
38
44
44
42
51
46
56
57
61
66
62
61
55
67
76
75
65
69
84
81
82
80
72
75
78
91
78
79
89
87
81
78
74
74
70
66
79
74
79
70
69
63
63
65
55
51
44
35
35
44
52
38
32
30
27
28
13
5
10
21
19
10
12
8
11
8
7
12
5
-1
5
5
1
5
2
9
1
0
-3
-2
7
11
-6
-5
2
-1
-11
-7
-1
-3
4
7
2
-1
2
-5
-5
-6
0
3
8
8
7
5
-1
2
3
-2
0
2
2
2
-2
-1
-3
3
2
2
0
-8
-10
-9
4
7
4
2
4
-1
3
5
1
-6
-2
-1
-3
3
-3
-7
-3
2
0
-9
-10
-4
-5
-5
2
-1
9
2
-12
-11
-7
3
1
7
7
-2
-7
-6
3
-2
-6
-6
4
-5
-7
-1
-9
-15
-11
-7
-5
0
2
-6
-1
-3
-10
-3
-1
-1
-6
-9
-9
-13
-15
-18
-21
-13
-9
-6
-2
-10
3
1
0
3
7
-4
-4
-2
-7
-8
-11
-10
-3
-7
-10
-10
-16
-10
-1
1
2
-4
-7
-16
-12
-4
-9
-7
-4
0
-6
-9
-3
-7
-10
-8
-4
-5
-3
5
5
3
4
3
-2
-2
7
3
3
8
9
8
8
3
8
10
18
12
25
20
14
11
6
8
11
10
9
8
5
-2
6
8
8
-1
-9
-2
2
-4
-10
0
2
-10
-11
-7
-3
-9
-9
-9
-9
-9
-9
-11
-15
-9
-1
-13
-15
-6
0
-4
-5
-7
-1
-3
-10
-3
2
9
9
10
18
38
48
66
95
116
133
142
151
145
143
138
127
102
78
44
25
-6
-36
-66
-86
-88
-67
-49
-47
-33
-18
-13
-13
-13
-11
1
2
5
3
-9
-14
-11
2
-4
-7
-5
-12
-6
-9
-4
1
10
6
8
12
6
-8
-2
6
8
15
17
9
14
6
5
9
2
8
15
17
18
15
11
12
20
14
12
17
21
16
13
21
17
19
26
32
26
30
29
27
28
32
27
25
25
34
46
42
39
40
45
45
43
48
42
41
46
50
54
57
61
68
68
70
76
71
74
76
70
76
73
78
77
72
73
80
84
80
81
79
83
83
72
64
66
60
65
63
56
53
57
47
34
41
44
36
31
33
26
28
30
26
24
13
16
15
16
13
13
-4
5
6
2
0
2
9
7
7
0
-3
-3
-4
-3
-3
-12
-8
4
1
1
-1
4
5
5
-1
-8
-5
-7
-7
-7
-11
1
0
6
7
0
0
6
6
8
11
1
-5
-4
0
2
8
5
5
7
9
13
20
10
-5
2
6
6
4
3
3
-8
-3
2
6
8
6
-3
0
7
4
2
-5
7
10
9
3
5
1
-1
2
-1
-1
-8
0
-9
-8
-4
3
12
6
-8
-16
-10
-1
-4
0
-2
-4
-12
-9
-9
-6
-8
3
4
5
1
5
5
-2
-5
-7
-7
-7
-7
-7
-13
-10
-14
-12
-8
-9
-7
-6
3
7
5
-1
2
7
6
6
-10
-4
-14
-15
-6
-5
-3
-3
-2
-3
-11
-10
-13
-8
-6
-4
-3
-6
-10
-8
-9
-5
-8
-8
-4
0
-6
-5
-2
-2
-3
5
-1
2
4
4
6
3
4
2
7
10
11
12
17
14
12
19
4
0
-2
-4
2
3
6
4
-1
0
2
9
18
10
7
7
3
-3
-5
-10
-15
-13
-16
-10
-7
-6
0
-4
-9
-9
-9
-6
-7
-7
-7
0
-7
-13
-23
-20
-15
-13
-13
-20
-12
-8
-4
-5
4
8
14
25
38
55
71
79
88
110
124
137
138
136
119
116
108
94
59
34
10
-4
-18
-55
-72
-73
-60
-52
-41
-37
-24
-19
-16
-1
-3
0
0
-4
-2
5
0
-11
-13
-7
-4
-7
-11
-11
-11
-7
4
0
-4
-3
-6
-6
-3
0
-5
-4
-2
-6
-4
-6
-6
-3
-2
5
2
6
0
1
-3
4
-2
-7
1
1
4
10
7
13
8
-1
14
28
26
27
22
22
23
25
24
26
34
22
28
30
29
38
45
44
44
41
40
36
35
47
41
47
49
47
54
60
60
61
59
53
64
69
67
74
71
70
68
71
71
75
70
69
67
58
58
56
59
67
66
64
48
34
34
37
40
38
27
28
23
29
25
15
20
22
18
4
6
0
3
2
0
-8
-6
0
2
-2
-6
-8
-6
-2
-10
3
0
-4
-4
-8
-9
-6
-11
-5
-5
-1
-2
-5
-1
-5
3
-9
-9
-15
-16
-3
-3
-4
-7
-9
-7
-3
-6
-3
-6
-4
-10
-11
-5
-13
-15
-6
-10
-3
-3
-6
-7
2
1
2
-7
1
-1
5
-3
-11
-10
-11
-15
-15
-14
-10
-8
-7
1
-1
-6
0
-2
-2
-4
-5
-3
-8
-9
-7
-9
-14
-15
-15
-16
-21
-19
-16
-11
-13
-8
-11
-12
-5
-2
-2
1
-8
-11
-4
-13
-16
-11
-13
-12
-16
-10
-8
-6
-9
-6
-7
-5
-11
-12
-12
-12
-13
-8
-13
-13
-16
-14
-11
-13
-11
-12
-14
-18
-18
-21
-14
-11
-11
-10
-8
-19
-13
-9
0
-9
-12
-19
-25
-24
-20
-20
-19
-6
-9
-12
-11
-16
-8
-7
-3
-5
-8
-6
-1
-3
-5
-1
-3
-3
-2
-2
2
-1
0
-1
-1
5
7
11
12
14
13
7
2
-1
-3
-5
-5
-6
3
3
7
11
3
5
3
2
7
0
-7
-7
-24
-18
-16
-16
-11
-17
-23
-20
-17
-14
-18
-15
-26
-19
-18
-18
-16
-7
-1
-7
-4
-9
-7
-10
-9
-18
-12
-8
-6
3
12
9
24
34
46
67
83
102
125
139
148
153
150
134
124
111
84
48
28
-2
-13
-24
-55
-71
-70
-71
-62
-45
-18
-10
-11
-6
-9
-11
-7
-11
-11
1
0
-4
-5
-4
-8
-9
-9
-14
-12
-11
-3
0
-5
-7
-7
-10
-5
-12
-2
0
-2
-3
3
2
2
6
-1
3
5
-11
3
3
4
2
-3
-2
3
-1
2
13
13
15
11
9
11
15
13
15
22
18
18
10
21
23
21
17
24
25
24
28
30
28
39
38
39
54
54
53
48
53
53
56
50
59
60
61
60
59
55
61
60
72
70
62
59
71
69
72
74
73
67
69
61
60
57
56
53
55
51
49
53
52
47
42
39
31
33
34
26
28
17
22
12
12
11
14
10
11
7
6
-12
-7
-7
-3
5
-1
-3
-4
-10
-18
-24
-15
-10
-14
-11
-5
-5
2
-3
-5
-2
1
-2
-6
-9
-5
-5
0
5
4
-9
-3
-6
0
-2
4
0
-1
-10
-2
-8
-3
-9
-11
-10
0
-3
-8
-7
-6
-4
-1
-11
-11
-11
-17
-11
-10
0
2
-2
-1
2
-6
-8
-14
-12
-13
-6
-2
3
-2
-10
-9
-11
-8
-5
2
0
2
-1
-5
-3
-8
-10
-8
-17
-25
-6
-7
-7
-5
-11
-12
-13
-14
-17
-15
-12
-6
-8
-14
-8
-6
-5
-9
-9
-12
-15
-9
-11
-17
-11
-9
-6
-8
-11
-15
-21
-23
-23
-20
-19
-17
-19
-19
-16
-4
-8
-3
-7
-13
-17
-12
-20
-10
-6
-9
-5
-7
-6
-1
-9
-17
-17
-10
-15
-11
-3
-16
-19
-21
-18
-13
-2
-6
-4
-2
-8
-7
-6
-2
1
-1
-13
-4
-6
-8
3
-1
5
7
5
10
7
8
6
13
16
13
13
9
-6
3
6
0
3
5
9
18
1
-9
-8
-7
-10
-7
-3
-6
-8
-7
-7
-10
-10
-12
-18
-20
-17
-17
-11
-10
-3
-9
-18
-14
-15
-14
-13
-19
-17
-16
-18
-11
-5
0
-5
-9
-7
-5
2
6
31
44
71
86
99
115
140
161
166
172
162
150
146
136
98
59
39
16
-8
-35
-66
-66
-58
-49
-46
-35
-23
-12
-15
-7
-4
1
2
-2
-6
-13
-11
-8
-8
-7
-7
-9
-10
-13
-4
-12
-9
-3
11
14
4
0
-9
0
1
2
-2
-1
-3
1
-3
7
3
-14
-10
-4
8
8
7
12
11
-3
-4
-6
12
12
14
18
19
9
13
15
17
21
24
9
12
18
12
8
14
25
34
42
39
39
46
34
34
41
40
48
54
49
48
50
63
65
62
63
64
69
59
69
71
79
70
71
73
74
70
72
69
67
66
62
59
66
62
56
53
54
49
52
56
57
57
51
37
33
41
34
31
23
23
31
23
23
29
31
26
14
16
7
3
-6
-4
-5
-1
11
0
-2
-5
-8
-4
-10
-6
-11
-11
-5
-5
-7
-1
-4
-3
-1
12
4
-4
-9
-5
-5
1
-7
-9
-14
-14
-19
-6
-8
-2
5
2
4
-9
-11
-12
-8
-1
-3
-11
-11
-3
-3
-6
-7
-7
-10
-19
-14
-4
-4
-8
-3
-11
-11
-14
-15
-7
-2
-4
-4
-5
-4
5
-2
1
-3
3
5
-5
-12
-2
0
-13
-12
0
-12
-9
-4
-9
-6
-9
-19
-5
-9
-7
-14
-11
-6
-4
0
-11
-16
-12
-13
-20
-15
-14
-5
-9
-16
-17
-8
-5
-10
-12
-11
-11
-11
-12
-2
-6
-6
-15
-19
-23
-8
-4
-4
-4
-9
-16
-13
-17
-8
-9
-19
-18
-9
-2
-3
1
-1
-3
-6
-3
-9
-7
-2
-8
-6
-9
-7
-5
7
9
13
6
1
2
9
-5
0
1
5
3
9
12
7
0
5
7
-1
-2
6
9
7
4
-6
-12
-10
-9
-1
-5
-5
-7
-1
-5
-9
-12
-18
-20
-15
-17
-10
-11
-9
-14
-11
-6
-13
-13
-13
-14
-17
-10
-9
-7
-5
-4
-11
-16
-7
-2
0
4
15
22
33
50
69
93
104
120
134
145
148
140
132
119
101
65
39
24
-7
-38
-74
-83
-76
-59
-55
-53
-33
-29
-23
-18
-10
-8
-11
-5
-14
-11
-5
1
3
4
-4
-3
-10
-13
-13
-10
-10
-4
-13
-14
-8
0
2
2
3
4
-2
8
5
-4
0
-7
-9
-7
-6
3
4
4
3
-8
-14
6
13
10
6
10
6
16
14
9
10
10
12
10
18
21
15
15
23
19
31
30
33
34
17
23
26
25
16
31
41
49
47
45
52
54
61
52
58
58
58
66
63
55
62
65
62
61
66
70
77
76
73
75
70
69
67
53
64
60
55
69
56
47
49
43
38
31
34
27
25
31
37
24
21
19
20
22
24
16
14
-2
4
-2
4
-11
-9
-8
-9
-8
-13
-10
-11
-10
-12
-2
-14
-13
-15
-21
-14
-16
-20
-23
-38
-16
-12
-14
-9
-1
-9
-5
-7
-6
-12
-8
-10
-14
-16
-11
-7
-6
-15
-9
-7
-8
-10
-10
-15
-10
-11
-5
0
1
6
-4
-4
-13
-21
-19
-19
-7
-7
-5
-5
-6
-11
-13
-9
-13
-19
-15
-8
-6
-4
-20
-17
-26
-19
-9
-15
-21
-7
-10
-5
-6
-10
-11
-12
-8
-14
-10
-9
-10
-11
-15
-17
-17
-19
-16
-19
-17
-15
-9
-9
-5
-5
-5
-12
-13
-16
-18
-14
-14
-17
-14
-12
-16
-14
-13
-20
-22
-28
-21
-21
-23
-18
-18
-17
-14
-14
-12
-9
-6
-6
-13
-7
-8
-11
-8
-3
-6
-6
-11
-7
1
0
-5
-2
-6
2
3
5
3
10
7
-4
-2
4
3
3
6
5
0
-7
-6
-6
-10
-6
-2
-5
0
-9
-9
-17
-12
-16
-12
-10
-13
-6
-7
-18
-17
-20
-20
-21
-20
-16
-12
-14
-10
-17
-31
-21
-15
-12
-18
-19
-27
-26
-17
-11
-10
-15
-18
-1
0
9
25
41
49
62
84
107
123
130
133
133
127
127
116
95
74
48
31
-3
-36
-69
-83
-67
-49
-46
-48
-36
-19
-22
-19
-16
-20
-14
-13
0
-7
-13
-13
-13
-14
-14
-11
-8
-10
-10
-13
-21
-15
-10
-9
-13
-11
-11
-6
-8
0
-4
-12
-12
-4
-3
-7
-6
-7
0
1
-2
1
-3
-4
-6
-7
1
7
8
7
19
16
10
2
7
4
15
17
12
19
24
24
18
23
22
19
20
24
24
23
19
21
30
32
37
46
49
53
52
49
43
44
54
55
57
56
52
61
65
80
64
65
70
63
53
57
67
69
62
67
64
54
55
52
56
51
50
53
40
46
39
31
34
31
30
25
24
23
24
22
18
3
11
10
6
-5
-6
-3
-1
7
2
2
-12
-12
-6
-7
-12
-8
-10
-18
-13
-18
-14
-10
-14
-20
-14
-15
-10
-9
-10
-9
-10
-6
-3
0
-1
-4
-5
-16
-18
-9
-14
-12
-13
-19
-18
-5
-8
-8
-6
-23
-14
-7
-13
-9
-9
-7
-13
-6
-12
-12
-9
-30
-21
-8
-10
-19
-18
-11
-5
-11
-2
1
1
-8
-3
-9
-4
-4
-9
-3
-1
-14
-8
-11
-12
-8
-15
-12
-8
-12
-18
-13
-9
-13
-6
-7
-16
-6
-12
-17
-19
-15
-28
-12
-13
-15
-11
-16
-14
-26
-30
-20
-9
-11
-12
-14
-13
-24
-21
-23
-28
-13
-14
-10
-10
-10
-9
-8
-2
-12
-7
-6
-16
-11
-10
-2
1
-3
-4
-4
-13
-16
-4
-5
-7
-1
-11
-6
-10
-9
-11
-12
-7
2
0
-3
-1
-5
6
5
3
1
-6
-1
-2
2
1
12
2
-9
-12
-19
-14
-16
-15
-18
-15
-16
-25
-26
-20
-7
-11
-17
-14
-23
-16
-19
-24
-29
-32
-19
-19
-22
-21
-28
-25
-28
-26
-29
-17
-17
-9
-17
-13
-13
-12
-16
-4
5
9
22
44
60
79
88
98
123
125
118
122
133
120
114
99
66
36
18
7
-2
-27
-62
-67
-62
-53
-45
-33
-28
-24
-18
-13
-14
-11
-4
-12
-11
-10
-10
-21
-15
-18
-19
-11
-12
-16
-15
-19
-13
-16
-21
-13
-16
-14
-3
-3
4
-9
-21
-14
-14
-15
-13
-17
-20
-8
-2
0
1
5
11
6
7
2
4
3
5
13
1
10
10
17
18
14
9
5
14
14
10
17
21
21
22
18
24
18
20
24
25
22
28
27
27
29
42
48
50
49
48
46
47
47
44
58
54
52
61
64
56
61
62
68
62
61
52
53
56
54
51
49
53
57
37
47
54
47
44
39
31
37
34
34
33
12
16
10
11
28
22
11
0
-5
-1
-5
5
-7
-10
-12
-1
0
0
-10
-7
-7
-10
-8
-12
-8
-11
-13
-13
-13
-15
-10
-4
-9
-12
-7
-11
-20
-22
-16
-7
-14
-12
-12
-16
-23
-20
-16
-20
-19
-15
-13
-18
-15
-9
-13
-8
-19
-18
-18
-16
-16
-13
-13
-14
-14
-13
-14
-15
-12
-11
-20
-11
-5
-10
-6
-10
-12
-19
-12
-6
-8
-9
-5
-4
-5
-16
-17
-29
-19
-12
-12
-14
-12
-9
-9
-20
-23
-15
-1
-6
-15
-14
-21
-26
-29
-13
-15
-21
-19
-20
-28
-22
-19
-11
-17
-12
-29
-24
-16
-9
-11
-16
-15
-16
-32
-18
-17
-23
-18
-22
-28
-27
-18
-18
-15
-12
-7
-6
-16
-23
-19
-12
-13
-18
-15
-4
-2
-9
-2
-9
-13
4
2
2
-3
-8
-9
-8
-7
-5
-2
-3
-3
-14
-14
-10
-4
-5
-8
0
0
-11
-17
-11
-9
-21
-29
-31
-30
-20
-15
-17
-17
-16
-15
-22
-21
-21
-18
-21
-19
-17
-19
-26
-27
-22
-19
-23
-28
-35
-31
-21
-18
-13
-14
-24
-23
-27
-22
-15
-16
-14
-6
3
23
48
58
61
91
111
123
134
144
139
133
126
125
107
63
24
8
6
-6
-34
-65
-70
-64
-52
-47
-38
-26
-20
-19
-16
-26
-9
-6
-15
-21
-17
-8
-11
-10
-15
-21
-10
-15
-23
-21
-19
-14
-11
-10
-15
-13
-14
-19
-15
-11
-18
-14
-8
-11
-18
-8
-3
-8
-1
-3
-10
-4
-7
-1
1
2
-12
-19
1
7
7
1
0
1
8
15
12
6
5
9
7
4
14
8
8
14
14
19
15
18
17
23
24
21
32
38
42
42
42
39
30
42
39
37
51
54
61
67
56
63
64
55
56
55
57
58
53
57
54
51
52
50
53
57
44
47
46
40
39
42
44
37
34
32
24
16
23
22
-1
11
14
-5
-1
-10
-14
-4
0
-4
-2
-6
-3
-2
-10
-10
-11
-19
-14
-5
-8
-15
-24
-18
-22
-15
-9
-23
-27
-30
-15
-6
-6
-7
-3
-17
-30
-17
-24
-19
-18
-11
-11
-11
-14
-18
-18
-18
-19
-21
-18
-16
-13
-14
-26
-11
-14
-18
-17
-17
-15
-18
-26
-17
-16
-22
-20
-20
-11
-21
-25
-17
-10
-13
-22
-31
-15
-15
-17
-20
-19
-14
-12
-4
-8
-13
-17
-18
-15
-12
-6
-15
-22
-23
-24
-14
-19
-17
-17
-13
-5
-17
-19
-17
-13
-28
-29
-26
-12
-15
-18
-21
-15
-15
-14
-18
-18
-16
-11
-15
-13
-16
-24
-21
-16
-23
-22
-21
-23
-29
-21
-20
-15
-21
-21
-17
-22
-32
-19
-8
-22
-27
-24
-22
-23
-23
-26
-17
-22
-30
-29
-16
-13
-13
-12
-20
-20
-14
-14
-9
-3
0
-5
-18
-9
-7
-12
-8
-5
-4
-9
-5
-5
-10
-21
-4
-8
-12
-6
-4
-12
-14
-9
-6
-8
-2
-11
-8
-11
-5
-5
-1
-6
-6
-7
-15
-15
-26
-28
-29
-30
-24
-25
-22
-19
-16
-16
-25
-27
-25
-22
-28
-23
-28
-21
-21
-23
-19
-27
-28
-16
-12
-16
-14
-19
-18
-17
-13
-15
-15
-23
-21
-18
-18
-13
-9
2
29
43
63
74
91
111
126
137
138
144
135
120
112
99
65
30
6
-6
-6
-38
-67
-74
-62
-55
-45
-30
-30
-23
-21
-17
-16
-28
-11
-13
-22
-14
-15
-19
-8
-10
-24
-29
-30
-19
-15
-11
-18
-22
-19
-21
-17
-14
-14
-8
1
-15
-21
-15
-13
-7
0
-3
-6
-4
-2
-2
-5
-6
-3
-3
-4
-8
-3
-2
8
4
5
9
9
7
8
20
6
-2
11
8
13
17
22
17
10
12
15
16
24
28
18
25
28
20
36
35
34
31
37
44
53
56
59
61
56
48
55
67
64
59
59
61
60
62
61
63
65
60
65
66
59
56
60
56
51
51
41
40
38
43
33
35
38
34
23
20
12
12
21
19
16
16
3
7
1
-6
0
5
-5
0
-16
-20
-13
-16
-12
-4
-8
-7
-9
-6
-8
-17
-12
-21
-14
-9
-5
-3
-9
4
1
-1
-13
-9
-2
-5
-12
-22
-15
-8
-12
-14
-17
-14
-10
-10
-23
-14
-14
-17
-13
-18
-14
-12
-13
-10
-9
-11
-9
-19
-19
-11
-18
-15
-14
-11
-9
-15
-10
-13
-23
-24
-18
-12
-9
-16
-12
-6
-14
-11
-1
-5
-11
-10
-19
-15
-11
-8
-4
-5
-9
-7
-15
-11
-13
-16
-14
-11
-18
-14
-11
-13
-15
-13
-6
-4
-12
-25
-13
-11
-19
-21
-13
-14
-15
-18
-11
-8
-13
-19
-19
-14
-13
-2
-7
-17
-17
-12
-22
-20
-15
-21
-12
-12
-16
-17
-14
-14
-20
-16
-17
-18
-14
-6
-12
-10
-17
-9
-7
-10
-11
-16
-12
-14
-18
-18
-27
-29
-28
-15
-12
-22
-12
-10
-7
-1
-15
-11
-8
-15
-10
-16
-25
-15
3
0
-5
-12
-17
-11
-2
-6
-1
8
2
7
15
15
8
5
5
2
4
2
4
9
9
2
-3
-5
-6
2
6
5
4
-13
-16
-12
-16
-7
-10
-7
-4
-6
-4
-4
-14
-24
-17
-20
-21
-16
-11
-17
-15
-8
-9
-10
-14
-9
-7
-13
-20
-16
-15
-17
-9
-12
-17
-18
-12
-13
-7
-7
1
12
26
40
55
70
89
108
127
147
156
162
159
147
136
124
90
60
40
10
-20
-47
-64
-67
-59
-57
-45
-44
-37
-28
-22
-17
-14
-7
-12
-5
-4
-11
-1
1
1
-6
-10
-15
-6
-11
-10
-3
-5
-11
-8
-3
-3
0
-8
-14
-6
0
-12
-13
4
7
4
6
5
0
-2
5
-5
1
3
9
6
8
11
7
8
9
10
12
16
10
11
16
19
13
12
25
18
15
17
19
19
18
27
29
28
28
28
31
33
36
30
40
56
45
54
54
59
57
65
69
65
68
72
69
71
62
64
66
64
71
74
70
75
73
65
65
67
72
71
58
54
51
46
48
49
47
52
52
37
36
38
38
34
31
23
16
24
26
23
10
14
6
7
11
6
-1
2
-2
-8
-7
-6
2
7
-3
-3
-17
-15
-13
-17
-17
-13
-13
-11
-9
-6
-20
-20
-13
-13
-3
3
-3
-13
-10
-11
-9
-10
-12
-1
-3
-9
-10
-7
-4
-6
-7
-6
-7
1
7
2
-4
-6
-8
-13
-12
-10
2
7
-1
-3
-6
-4
-10
-8
-3
-1
-1
-7
-12
-3
-7
-2
-12
-12
-9
-10
-3
6
-9
-6
-9
-11
-13
-3
-11
-1
6
-6
-2
1
-13
-14
-16
-7
-4
-1
-8
-6
0
0
-4
-9
-16
-20
-14
-12
-7
-5
-5
-8
-8
-7
-10
-14
-19
-20
-7
-6
-8
-16
-16
-10
-6
-8
-7
-14
-9
0
-5
-16
-7
-8
-14
-10
-8
-3
-10
-15
-4
-11
-10
-6
-12
-3
-9
-22
-22
-22
-10
-14
-13
-14
-15
-8
-8
-15
-12
-8
-5
-13
-18
-9
10
1
1
1
9
5
8
5
6
12
-5
-3
5
6
-1
-9
1
8
-1
-3
-5
-4
5
-1
4
9
2
-4
-4
-11
0
-4
-13
-12
-13
-16
-16
-12
-17
-17
-17
-9
-4
-6
-11
-16
-15
-17
-16
-19
-13
-13
-17
-5
-20
-17
-16
-17
-4
-2
-11
-5
0
-1
3
2
10
13
22
30
51
69
85
109
136
142
135
137
128
121
106
96
64
40
16
-12
-31
-59
-82
-72
-55
-53
-50
-35
-24
-27
-15
-20
-12
-9
-6
-3
-7
-7
-9
-5
-8
-12
-8
-4
-15
-11
2
-1
-1
-7
-4
-6
-14
-16
1
0
4
10
12
19
17
-6
-10
3
6
6
9
-1
-2
5
0
8
17
12
11
4
-3
2
12
18
18
22
24
23
28
23
16
18
19
21
23
26
28
38
34
17
28
34
39
43
32
37
44
44
48
45
51
61
53
58
58
62
73
62
60
60
67
71
67
70
74
74
74
68
67
67
64
63
69
71
65
60
59
57
55
41
47
48
46
46
45
45
45
39
31
23
15
15
10
8
8
9
3
-4
-5
-1
7
1
10
5
-1
-1
-11
-11
2
8
-4
-2
-1
-6
0
-3
-15
-14
-19
-16
-20
-14
-5
-5
-1
3
-14
-7
-5
-2
-5
-5
-9
-16
-23
-21
-13
-13
-1
6
-1
1
3
-2
-9
-13
-2
2
3
-1
2
2
0
-15
-12
-2
-3
-9
-8
1
1
-1
-7
-10
-12
-4
-12
-8
-1
-7
-1
-4
-2
1
4
2
-7
-16
-13
-2
-9
-3
-8
-10
-4
-26
-9
-19
-18
-14
-14
-11
-3
-2
-8
-5
2
7
2
-6
-6
-8
-14
-8
-5
-2
-8
-11
-3
-11
-21
-18
-16
-20
-16
-10
-12
-12
-12
-6
-2
-6
-8
-6
-15
-24
-19
-16
-18
-16
-14
-14
-15
-15
-23
-15
-17
-17
-10
-11
-8
-10
-13
-9
-24
-30
-29
-24
-9
-15
2
-2
-6
-3
-2
-10
-15
-19
-13
-8
-3
-2
-7
-17
-9
1
-1
-5
-11
-9
-3
4
3
-2
-4
6
7
3
6
8
3
-3
-6
2
3
2
3
-9
1
-5
-15
-17
-13
-9
-9
-14
-24
-15
2
1
-10
-11
-5
-9
-7
-14
-13
-7
-5
-17
-21
-35
-22
-25
-14
-18
-18
-11
-22
-21
-13
-12
-15
-21
-22
-13
-11
-8
-12
-12
-2
2
19
40
54
70
77
84
109
129
133
136
119
117
117
96
67
32
1
-14
-15
-36
-60
-61
-53
-47
-37
-27
-19
-10
-5
-11
-16
-37
-25
-12
-9
-15
-11
-8
-12
-7
-12
-17
-20
-21
-15
-15
-18
-15
-19
-14
-10
-12
-18
-22
-6
-5
-4
-4
-5
-6
-13
-11
-5
3
-7
-17
-18
-11
-10
-10
2
4
0
0
5
2
1
6
4
3
-4
9
13
16
19
5
8
10
19
23
24
20
12
14
25
29
27
29
26
33
22
33
39
40
40
41
37
46
42
53
59
56
59
55
56
43
43
61
56
57
64
62
54
54
58
64
58
45
52
53
52
45
44
44
46
35
33
30
24
23
20
20
6
-7
1
1
5
14
18
5
1
1
-4
-6
11
6
5
-2
-15
-9
-17
-13
0
-1
0
-11
-8
-13
-19
-18
-13
-14
-13
-13
-14
-15
-19
-25
-19
-18
-21
-16
-13
-9
-15
-18
-15
-19
-15
-15
3
-11
-16
-19
-24
-20
-18
-16
-15
-14
-22
-25
-20
-26
-28
-15
-16
-17
-24
-14
-5
-6
-9
-2
-10
-9
-16
-23
-13
-4
-4
-11
-15
-18
-15
-25
-35
-24
-5
-9
-10
-12
-6
-7
-12
-12
-10
-19
-17
-18
-24
-14
-9
-1
-14
-15
-15
-17
-13
-14
-10
-15
-37
-30
-8
-17
-20
-20
-34
-20
-24
-21
-15
-21
-18
-14
-22
-31
-31
-25
-8
-7
-13
-14
-13
-16
-32
-24
-22
-15
-13
-21
-22
-23
-22
-25
-15
-14
-10
-11
-18
-27
-19
-13
-15
-10
-10
-15
-16
-20
-15
-18
-17
-14
-12
-8
-14
-19
-27
-24
-17
-27
-20
-17
-21
-24
-18
-13
-18
-12
-10
-14
-18
-6
-4
-4
-10
-9
-8
-10
-11
-20
-19
-21
-8
1
-8
-2
13
5
-3
-2
-1
-4
-4
-5
-21
-17
-12
-13
-8
-3
2
0
-4
-5
-15
-9
-14
-13
-8
-10
-16
-11
-6
-13
-18
-22
-18
-14
-12
-21
-21
-15
-16
-23
-22
-22
-14
-15
-9
-4
-10
-16
-19
-24
-30
-39
-32
-21
-17
-16
-11
-18
-10
-9
-1
18
27
37
41
51
81
109
120
139
146
129
130
128
111
92
58
39
19
3
3
-20
-53
-67
-64
-53
-42
-24
-16
-9
-11
-20
-31
-20
-14
-16
-8
-11
-19
-10
-3
-15
-21
-24
-20
-11
-10
-11
-13
-13
-6
-12
-17
-17
-13
-9
-14
-8
-4
-3
-3
-6
-7
-8
-12
-11
-7
-19
-17
-12
-3
9
11
-5
-3
-2
7
5
-1
-2
-3
-2
1
3
10
4
0
1
12
11
8
17
11
8
19
23
23
18
21
32
37
37
26
32
44
48
42
44
36
35
38
39
41
43
53
58
58
53
56
61
56
61
56
61
66
51
49
50
53
61
58
62
49
51
56
55
45
39
41
37
32
33
33
23
11
10
7
7
15
6
2
7
3
-5
-9
-2
3
4
-3
-3
-4
-10
-7
-10
-16
-18
-22
-19
-20
-22
-14
-8
-7
-11
-20
-19
-17
-11
-15
-7
-9
-20
-19
-23
-27
-10
-7
-7
-8
-12
-23
-11
-20
-23
-23
-14
-18
-22
-23
-17
-9
-10
-13
-6
-16
-10
-13
-21
-31
-17
-15
-18
-24
-16
-13
-9
-10
-13
-5
-16
-12
-12
-15
-21
-15
-10
-11
-19
-13
-19
-24
-23
-27
-24
-15
-22
-21
-21
-16
-15
-12
-20
-19
-8
-6
-9
-25
-24
-21
-14
-13
-23
-15
-11
-14
-15
-18
-12
-15
-17
-14
-27
-27
-20
-17
-22
-21
-18
-23
-18
-11
3
-4
-18
-22
-20
-23
-21
-26
-24
-21
-30
-31
-13
-7
-15
-11
-16
-32
-22
-15
-14
-18
-15
-12
-16
-21
-13
-14
-22
-36
-29
-28
-31
-21
-14
-9
-6
-6
0
-13
-24
-19
-19
-19
-20
-26
-34
-27
-20
-17
-20
-22
-11
-14
-13
-19
-20
-13
-23
-32
-21
-13
-6
-14
-19
-21
-16
-17
-15
-7
-7
-1
-4
-5
-8
-9
1
0
-2
-11
-13
-17
-10
0
4
14
-2
-7
-5
-6
2
-3
-15
-11
-7
3
1
0
0
1
0
5
2
3
3
-6
-15
-10
-8
-14
-22
-18
-13
-9
-5
-4
-4
-17
-24
-22
-25
-23
-18
-16
-21
-23
-17
-21
-21
-22
-22
-14
-8
-19
-12
-9
-11
-16
-17
-16
-3
16
23
35
55
70
85
96
111
122
128
135
140
137
137
131
102
64
32
19
19
-3
-33
-61
-57
-37
-43
-28
-28
-25
-15
-18
-12
-8
-13
-6
-4
-5
-3
-8
-20
-16
-8
-10
-8
-7
-11
-14
-19
-27
-16
-5
-3
-5
-7
-5
-4
-5
-7
-2
-4
-10
-4
-10
-2
8
0
-5
1
2
-1
2
-4
7
-2
1
-3
-7
8
5
7
14
16
23
23
23
25
17
16
13
16
19
26
16
26
31
25
37
34
30
31
47
48
43
45
45
51
52
55
62
53
49
49
56
57
69
61
65
66
64
71
74
76
80
73
72
71
73
62
58
67
71
73
68
56
64
61
60
53
62
50
46
43
33
33
25
32
29
24
15
16
12
19
-1
3
7
4
8
5
2
3
4
9
1
2
3
5
0
-2
-2
2
4
-2
1
-2
-5
-5
-19
-11
-1
1
-2
-10
-7
3
-4
-4
-11
-11
1
-5
-16
-9
-9
-10
-9
-9
-10
-9
-11
-6
-2
-2
-5
-9
-16
-15
-5
-9
-4
-4
-4
-5
-4
-6
-11
-14
-11
-12
-17
-8
-16
-5
-4
-5
-13
-11
-22
-15
-14
-4
-4
-17
-11
0
4
1
-11
-19
-8
-13
-3
2
2
0
-2
-3
0
3
-5
-8
-9
-8
-10
-10
-10
1
-4
-9
-12
-8
-12
-8
-15
-18
-15
-13
-16
-13
-13
-12
-11
-6
-6
-10
-18
-18
-7
0
-2
-3
-6
-12
-15
-15
-10
-10
-11
-4
0
0
-11
-10
-19
-14
-11
-15
-9
-4
-17
-21
-24
-19
-13
-9
-12
-15
-13
-12
-4
-12
-25
-14
-11
-13
-14
-16
-7
-9
-7
-4
-3
2
7
-2
-7
-4
-7
-10
-11
-10
-20
-19
-14
-12
-10
-10
-8
-5
-7
-2
-8
-1
3
-6
-11
-12
-1
4
9
5
0
-1
1
9
19
18
9
7
10
12
7
8
6
3
3
7
12
11
7
1
2
5
9
4
0
-3
-2
-3
-5
-11
-15
-12
-11
-8
-5
-5
-11
-5
-11
-10
-5
-14
-8
-2
-2
-10
-5
0
-3
-13
-10
-4
-13
-11
-3
-6
-13
-12
-10
-6
-4
-2
2
9
13
31
45
64
76
71
99
120
133
150
157
144
149
139
117
74
49
27
8
-6
-41
-62
-62
-65
-56
-38
-26
-15
-13
-3
3
6
2
2
-2
-3
-7
-1
-5
-2
6
-2
-2
-2
0
1
-11
-11
-5
-7
3
3
-1
2
10
0
-1
-8
0
0
6
-1
2
3
14
16
4
8
15
18
14
12
12
14
18
16
13
19
12
15
18
19
17
18
22
31
37
35
29
26
26
17
23
35
43
50
39
45
53
47
38
32
41
43
46
46
48
60
62
70
74
63
63
66
73
72
73
75
70
74
78
79
72
79
80
75
77
85
78
73
81
82
81
71
60
49
55
54
57
47
38
41
49
40
35
39
31
33
25
23
21
20
23
19
10
13
12
13
11
7
7
3
2
6
12
12
12
8
-6
3
4
4
1
3
5
5
6
-6
4
5
5
-1
2
10
3
-7
2
-2
7
1
4
0
-1
4
1
-3
4
-5
-1
12
9
17
6
6
0
7
4
-3
-2
-4
-4
-1
6
13
7
11
15
13
3
15
5
7
10
13
11
9
4
4
13
10
8
4
-1
1
3
3
-9
1
0
4
5
4
12
7
-1
0
9
6
3
2
5
7
4
-3
-1
7
5
8
5
-1
7
-1
-1
0
2
-3
-5
-4
-4
-11
-6
-3
-4
3
8
4
0
-7
-6
6
-2
-4
2
3
-2
-4
-4
-6
-4
-1
6
1
-1
0
2
3
0
-4
-4
1
-3
11
4
-9
-19
4
7
-7
-6
-5
-4
-7
-3
-1
1
1
2
-9
-2
-3
-8
-8
-4
-1
-6
-2
-1
-8
-8
-4
-3
-5
-7
-7
-9
-11
-10
-3
-1
-4
-6
2
8
7
12
11
6
5
7
2
4
14
9
17
23
13
12
11
20
20
9
8
3
5
8
10
10
14
21
22
18
17
11
7
5
3
1
0
-1
-2
-6
0
-5
-7
-5
-1
-3
-6
-13
-10
-9
-12
-7
-1
3
-1
-1
-10
-6
1
-4
-7
-4
-2
-4
-7
-1
2
6
8
11
10
15
15
17
38
64
83
104
127
148
156
156
157
152
147
124
114
84
54
33
3
-18
-41
-67
-58
-53
-42
-36
-25
-30
-24
-7
-15
-1
7
4
5
7
4
3
3
-2
3
7
9
3
2
7
5
5
4
12
13
12
18
14
15
11
6
5
12
23
25
21
14
4
-2
4
8
9
14
19
20
25
22
17
23
11
11
14
21
30
27
29
28
28
29
28
39
38
40
43
46
48
35
30
43
45
42
48
50
56
60
61
54
52
60
67
66
65
65
69
79
77
81
75
86
76
82
85
75
81
89
90
88
93
87
83
86
84
86
82
80
58
61
71
67
76
76
66
51
54
54
56
47
49
44
48
48
41
41
37
33
27
26
25
29
24
21
15
18
16
14
15
10
14
10
7
11
5
15
13
6
2
4
6
7
10
19
26
15
1
2
-2
2
8
9
9
10
12
7
13
15
16
14
12
8
7
7
2
4
7
11
9
5
10
-1
10
5
3
4
16
23
21
9
19
15
1
3
6
5
6
14
19
26
17
-4
7
8
17
15
21
19
24
19
16
9
11
9
0
-1
8
8
12
13
16
15
8
1
-1
2
13
10
19
22
13
-3
1
4
4
-1
2
0
-11
-8
-4
12
10
5
9
17
11
4
4
4
-4
0
-3
-7
-2
1
7
16
8
7
8
3
10
10
1
-1
5
6
7
16
22
9
0
5
2
0
8
6
3
-4
-1
13
9
3
2
1
5
6
1
-9
3
8
-5
5
2
-6
-4
-1
0
2
6
6
12
11
2
13
16
13
12
10
9
12
11
3
8
9
15
13
16
13
9
17
17
8
17
21
25
30
34
34
24
13
13
20
12
22
33
21
23
23
13
9
16
23
21
15
11
6
3
8
6
-4
-2
8
8
8
9
9
5
-1
-8
-4
-4
-7
2
1
-3
-1
0
0
7
-3
-1
1
6
17
16
14
6
8
9
14
21
40
46
63
72
100
109
134
158
164
168
170
164
152
136
106
77
49
30
4
-24
-55
-62
-54
-39
-40
-27
-20
-12
-5
-1
10
9
11
15
8
10
2
3
2
6
5
8
7
2
6
12
1
8
4
4
11
23
13
17
15
15
14
4
8
11
9
9
17
20
18
17
24
19
20
19
25
31
20
12
15
20
18
21
21
24
22
28
35
33
40
36
43
38
33
35
43
47
41
34
37
47
44
49
49
59
56
53
60
58
60
69
77
72
78
76
78
75
80
81
75
77
76
71
73
78
81
89
92
86
76
82
80
86
77
82
74
83
75
71
73
69
66
61
48
48
51
57
57
48
44
40
31
38
33
37
30
21
27
16
8
5
11
9
16
22
21
17
18
9
3
6
10
4
3
6
9
15
23
12
11
0
2
6
6
-1
11
12
2
1
4
9
16
19
9
6
0
0
1
6
1
0
14
12
7
5
4
9
10
8
1
11
10
7
9
8
9
17
11
9
3
3
8
6
17
16
16
13
7
7
8
10
10
13
21
28
17
6
9
3
0
5
8
4
10
9
15
10
11
12
3
5
2
3
1
1
0
0
3
6
-1
8
13
6
6
15
7
8
3
6
5
1
-1
-4
5
0
2
8
8
-3
1
0
6
2
1
-1
-7
-8
-1
2
-1
-5
-3
4
8
4
10
14
13
13
9
3
15
11
6
5
13
7
13
4
4
11
8
6
11
10
-3
1
11
17
20
17
13
16
20
23
22
19
9
13
8
13
19
27
20
21
22
29
15
6
15
14
8
8
4
8
15
9
9
0
0
0
-7
-14
-6
-12
-4
0
9
9
6
4
-1
2
-5
3
-1
-6
-5
-14
-10
6
3
5
11
13
10
2
1
16
27
48
64
68
83
103
119
132
140
139
143
132
128
113
89
53
36
19
-15
-40
-63
-64
-52
-49
-37
-31
-17
-17
-4
0
8
5
-2
6
8
18
7
-5
-1
6
13
12
-4
-5
2
9
14
7
10
14
16
21
12
13
17
25
22
5
9
8
3
6
18
16
21
14
14
6
4
12
16
16
19
24
31
35
27
31
19
19
27
30
25
23
27
30
36
41
42
44
33
43
47
40
42
51
48
45
50
49
47
49
65
61
57
63
67
70
79
78
76
84
69
78
80
88
74
77
79
86
88
84
91
91
91
89
91
89
83
80
80
81
74
70
64
65
65
52
43
57
53
50
44
45
45
41
45
36
24
18
13
18
25
17
23
16
8
5
4
-2
-1
3
19
21
11
5
13
12
4
-3
0
6
6
6
2
12
10
15
5
4
-5
-8
-5
-3
2
12
13
11
11
6
2
5
8
-2
-2
1
2
3
6
9
1
-4
1
-4
0
1
4
3
-6
1
5
12
16
4
13
13
11
16
4
4
16
16
14
6
5
8
6
-1
-1
5
11
12
-1
8
10
6
1
7
6
1
6
1
2
1
8
1
-3
-4
-6
-1
14
16
11
4
5
14
15
7
-10
-1
3
9
0
-4
0
-9
-9
-10
-5
-11
1
1
2
1
-2
2
6
0
-4
5
6
2
2
4
4
0
-3
-7
2
2
2
1
14
0
-7
-2
4
5
-6
3
10
8
13
5
-1
4
3
5
16
26
21
17
13
14
13
8
10
17
18
15
21
19
14
10
6
4
14
8
11
8
12
8
11
6
-3
-6
-5
-3
-3
-4
1
3
5
5
-6
-14
-11
-5
-5
-3
5
-8
-1
-2
-4
-1
-8
-10
-14
-8
-3
-3
-6
-2
-8
2
6
-4
5
4
17
23
36
47
56
72
86
105
117
138
133
149
133
131
118
104
80
56
43
25
-10
-45
-59
-59
-41
-40
-16
-19
-21
-11
-16
-17
-6
-9
-3
-5
-2
0
-1
-6
2
3
3
6
8
-1
-2
2
5
-5
3
3
4
3
0
-8
4
6
11
4
-7
-5
1
7
8
20
17
10
9
3
10
23
24
20
16
20
8
11
17
15
16
21
29
24
15
11
11
22
26
23
35
33
33
29
26
35
32
37
38
41
48
45
45
46
40
42
51
61
66
58
62
67
77
78
69
66
74
76
75
80
75
69
80
70
73
71
72
70
71
61
68
72
72
71
66
68
60
50
46
47
44
41
41
35
37
41
34
28
25
26
20
21
17
20
25
24
7
-8
0
-2
-2
2
1
-10
-10
-8
-11
-2
-6
-3
-1
-5
-6
-10
-3
-5
-2
-5
-3
-4
-7
-17
-12
-15
-16
-10
-11
-16
-14
-11
-9
-14
-10
-2
-4
2
3
-1
-3
3
2
-7
-7
-12
-11
-10
-5
-1
-3
-8
-5
-19
-11
-7
-11
-7
-6
-8
-4
0
2
-2
-3
-9
-4
-3
-1
-6
-5
-8
-9
-6
-5
-8
3
-2
-5
-3
-3
-4
-2
1
-9
-3
-2
-11
-14
-7
-4
-3
-4
-3
-7
-6
-11
-7
-13
-11
-15
-18
-18
-5
-7
-7
-10
-15
-8
-2
-15
-18
-20
-19
-18
-18
-11
-14
-11
-6
-6
-3
-2
-2
-17
-13
-13
-7
-3
-11
-1
-2
-4
-1
-4
-9
-3
-6
-5
-5
2
7
0
-2
-8
-15
-7
0
3
-6
-1
5
9
17
19
14
10
7
12
3
4
3
5
12
11
5
4
2
-2
-4
-10
-8
-6
-7
-1
-2
-8
-10
-15
-5
-13
-5
-11
-18
-19
-16
-20
-21
-21
-11
-8
-4
-9
-15
-17
-21
-20
-20
-28
-14
-8
-10
-16
-3
0
-4
-6
-4
7
13
14
20
41
49
68
83
100
121
134
144
151
149
144
127
111
78
54
32
12
-4
-24
-58
-68
-64
-55
-45
-32
-21
-16
-10
-4
2
-3
-18
-19
-9
-4
-8
-5
-5
0
1
0
-12
-15
-14
-12
-9
-3
-13
-9
-5
2
-4
-5
-8
0
4
3
-5
-2
-3
4
4
9
4
-8
-7
-1
3
3
7
8
11
11
16
7
15
11
19
12
1
10
5
12
15
9
12
14
15
20
21
25
30
27
29
35
38
39
42
39
41
42
50
56
59
57
57
59
60
59
64
67
74
71
72
74
76
66
71
76
82
77
77
71
68
65
73
78
72
65
68
74
69
52
55
53
52
57
49
43
45
42
37
30
25
25
17
22
16
8
10
8
6
6
10
9
1
-5
-2
-3
7
9
6
8
9
-2
-11
-5
-2
-7
-6
-4
-6
-6
-3
-2
-8
-4
-8
-4
0
-5
-5
-10
-12
-17
-11
-7
-8
-4
-5
-11
-2
-7
-7
-2
0
-3
-12
-5
-5
-4
-1
2
5
0
1
-3
-11
-6
-7
-5
-8
-7
-8
-10
-6
-6
-2
-2
2
-2
-8
-9
0
-1
-7
-7
-6
-6
-15
-8
-3
-3
-2
-5
4
1
0
0
-1
-3
-8
-7
-10
-11
-3
3
1
-3
-6
-7
-5
-3
-2
-11
-8
-2
-6
-9
-8
-8
-6
-9
-9
-5
-13
-15
-11
-9
-1
-4
-3
-6
-6
-4
-5
-6
-15
-9
-14
-19
-17
-15
-14
-9
-4
-4
-6
-4
-11
-9
-14
-10
-6
-7
-10
-7
-6
-11
-10
-3
0
0
0
0
-3
-5
2
3
3
2
1
10
14
13
14
9
12
6
4
5
6
9
10
5
12
11
6
8
4
5
2
4
4
11
8
-1
-4
-5
-5
-3
-8
-9
-14
-23
-15
-16
-17
-16
-11
-14
0
3
1
-8
-11
-15
-14
-4
-12
-10
-11
-18
-19
-22
-18
-18
-11
-7
-3
-3
16
21
23
40
63
77
84
97
124
138
151
156
159
147
131
130
113
74
51
29
16
7
-22
-52
-63
-53
-47
-28
-24
-24
-19
-9
-8
-8
-2
-1
0
-2
5
8
2
-11
-13
-6
-6
-4
-7
1
-4
-6
-4
-7
0
1
-1
1
5
6
1
-1
3
-1
0
4
9
6
1
8
1
-3
2
13
12
12
12
8
13
9
2
1
7
2
6
9
15
23
27
26
30
28
26
25
28
31
32
32
28
31
35
32
42
48
44
53
49
44
50
51
56
56
62
66
70
70
70
63
68
69
72
71
69
66
76
86
82
76
81
78
76
77
75
70
76
76
77
73
67
61
55
58
63
55
58
49
42
38
38
34
23
26
27
19
20
23
13
11
18
16
12
10
13
2
3
3
-2
6
8
3
-1
9
11
10
10
8
7
5
5
7
11
13
6
2
2
2
2
3
7
5
0
3
4
6
9
3
6
8
0
-1
7
9
13
15
18
12
4
-3
-1
-1
-2
0
-2
-1
3
8
6
9
-1
2
6
2
4
3
9
11
17
10
4
4
5
6
0
5
4
5
5
4
11
10
8
5
8
-1
-3
3
10
10
5
-1
2
7
11
13
7
7
3
1
0
1
3
1
5
3
3
6
8
2
0
-2
-1
0
0
-3
10
7
0
-1
6
3
-1
3
10
6
14
17
7
5
1
-1
-1
1
-1
0
4
0
0
0
6
4
9
-4
-7
-7
-6
-5
-7
-3
-7
-13
-3
6
-3
2
6
12
18
11
3
3
9
11
5
16
16
17
21
23
22
21
20
22
15
19
26
22
21
19
13
8
2
8
6
6
20
20
18
16
11
13
17
9
-2
6
7
3
1
1
4
-1
-3
-1
-2
3
-3
1
0
-8
-6
-4
-7
-5
-7
-2
-1
-3
-10
-11
-5
-4
-4
-2
-6
5
4
-4
3
20
33
39
52
74
90
106
134
153
167
171
172
167
157
152
147
118
75
46
37
26
-1
-26
-41
-37
-29
-21
-13
-9
-9
-9
0
3
3
0
-3
6
5
1
-3
2
7
6
3
-3
-1
2
1
4
1
3
7
4
1
-1
-8
2
8
18
12
2
8
13
12
16
13
10
13
14
16
19
17
21
18
13
12
10
12
16
21
20
16
19
23
29
28
22
27
33
23
22
21
30
40
37
36
35
30
33
33
31
42
53
50
52
62
61
65
70
62
61
64
75
69
69
70
70
83
79
81
82
81
79
78
76
75
73
78
80
77
84
74
64
74
76
70
69
63
58
56
50
47
40
43
39
33
31
35
36
28
32
16
13
16
15
19
16
15
21
19
18
9
9
-5
6
7
6
-3
0
4
2
9
9
2
-13
-8
-7
2
7
10
3
-3
4
-3
-3
7
5
12
3
0
3
3
-6
-2
2
5
1
-1
8
0
1
-3
1
5
1
-4
-9
3
9
1
-5
-7
-10
-15
-5
6
9
5
-2
10
9
4
-1
-4
-2
2
7
0
-3
3
4
4
5
7
8
2
2
-1
-1
-1
3
-2
-3
-1
2
9
17
22
1
1
-4
-8
-8
-2
-2
-3
-4
7
8
-6
-1
2
-5
0
2
7
3
0
4
3
1
-6
-6
-6
7
5
-1
-2
-3
-6
-2
2
0
-2
-8
-3
2
3
-2
-2
-2
-1
-3
-3
-5
5
5
7
4
6
4
5
4
6
11
4
4
14
13
13
18
13
15
18
15
28
29
23
21
20
20
24
16
17
7
19
18
11
10
10
13
11
11
9
13
1
5
1
-3
-2
7
5
-2
6
8
4
5
6
3
-4
1
1
-12
-5
-3
-1
4
2
7
1
7
-3
-1
3
0
1
-6
-2
-1
4
2
8
13
13
29
52
65
85
99
113
130
139
152
153
159
148
134
128
106
76
59
40
9
-5
-28
-46
-34
-27
-27
-24
-16
-8
-4
2
9
7
5
2
5
4
7
-3
-2
-2
7
11
9
9
15
13
10
8
15
20
21
20
23
20
22
17
15
10
10
11
12
9
17
9
14
12
13
14
10
18
25
21
24
19
32
26
31
27
28
27
26
18
20
24
32
32
31
31
30
38
43
51
53
49
48
48
47
49
57
49
48
55
65
73
74
70
78
76
84
79
76
80
77
80
86
85
86
89
90
90
88
91
95
91
91
94
82
83
85
89
78
76
70
78
76
70
69
69
57
56
50
51
52
44
42
39
34
38
30
22
25
19
14
13
19
24
18
11
6
17
17
5
9
11
0
2
6
5
7
7
11
6
10
17
17
9
3
4
3
9
7
1
7
8
7
7
6
11
9
0
4
5
3
7
1
-1
4
6
3
2
2
5
9
7
7
7
1
7
1
4
3
3
8
0
15
9
12
8
7
11
11
13
6
7
-1
15
11
10
10
9
15
17
11
13
14
12
5
8
-1
6
11
6
4
0
0
4
4
8
1
6
14
12
2
8
9
8
4
0
6
5
0
1
-1
1
7
0
2
8
12
5
9
6
4
-7
0
1
-1
-2
-2
-5
5
4
-1
0
-2
0
-1
-4
-5
0
-1
1
5
3
3
-4
-5
-4
5
9
15
19
11
11
12
12
13
10
14
21
18
13
11
15
16
4
8
15
20
18
25
34
21
29
30
18
22
22
22
18
12
19
18
12
5
14
21
21
22
12
9
-3
-6
-4
0
3
-18
-7
-4
0
4
5
4
-2
1
7
5
7
-5
-3
-2
-5
-11
-2
4
-3
-9
-3
-3
-2
-1
-4
1
-1
1
3
6
-5
13
25
34
46
61
89
104
125
117
135
144
156
150
148
132
124
85
66
55
1
-8
-19
-45
-38
-26
-21
-32
-47
-31
-2
10
12
8
8
9
15
12
3
7
5
0
0
0
5
-8
7
5
-2
6
-2
4
-1
-10
-6
10
7
-2
1
4
10
1
-7
-4
5
6
7
14
28
18
15
14
16
16
17
30
19
22
2
6
7
17
26
26
15
19
20
19
20
26
25
33
45
42
23
24
29
41
30
36
40
40
48
54
51
44
48
51
54
56
61
61
63
67
68
69
68
67
75
79
70
81
73
77
68
72
74
76
74
64
66
70
74
63
58
60
60
62
57
54
57
45
46
38
33
25
17
16
16
20
30
34
31
13
8
2
8
4
-1
-3
0
-3
1
-3
-13
-10
-6
-2
-5
-2
-1
-1
3
-1
1
8
-4
-11
-12
-10
-11
-12
-8
-9
-11
-5
-9
-6
-3
-2
-2
-5
1
-2
-14
-10
-5
-3
-3
-5
-4
2
5
3
-7
-9
-11
-17
-14
-6
-7
-10
-15
-16
-17
-11
-10
3
7
-3
-5
-12
-5
2
-1
-7
-9
-2
0
-5
-4
-6
0
1
-6
-9
-8
-2
-6
-1
1
3
0
-11
-21
-17
-11
-2
-5
1
3
2
-14
-21
-18
-11
-15
-5
-14
-20
-16
-6
5
-1
-7
-5
-7
-2
3
3
-4
-4
2
2
-8
-11
-17
-13
-9
-9
-14
-5
-9
-9
1
-1
-10
-10
-6
-1
-2
-2
9
-7
-16
-18
-12
-18
-13
-9
-4
-5
-8
-9
-5
-15
-13
-5
-5
-7
-14
-10
-6
-1
-7
-7
-5
1
-6
-10
2
5
-1
-10
-3
0
-3
-2
-5
7
13
11
5
3
9
6
10
5
12
9
8
4
6
0
0
5
12
11
8
6
4
-5
6
-1
-5
0
1
5
2
3
0
-5
-11
-16
-23
-25
-10
-6
-6
0
0
2
3
1
2
-4
-14
-15
-7
-13
-13
-9
-11
-10
-13
-10
-6
-8
-10
-14
-15
-12
-13
-19
-18
1
24
33
48
69
85
101
116
135
147
158
163
149
141
139
126
82
54
34
19
7
-9
-32
-43
-41
-36
-35
-21
-19
-13
-13
-9
-6
-4
-1
-1
3
1
3
0
-9
-9
-12
-12
3
11
4
1
1
2
3
1
1
6
2
17
18
10
4
1
1
1
15
16
14
9
8
4
7
13
14
1
9
19
15
13
14
13
12
20
17
16
20
19
19
19
13
17
18
27
26
31
36
34
26
25
36
37
40
43
47
48
46
42
48
53
53
56
63
67
66
65
67
66
66
75
78
80
76
70
72
69
73
81
80
77
72
71
76
79
73
73
77
78
72
66
59
49
52
53
50
45
39
35
32
37
36
31
26
27
23
22
16
9
7
4
3
7
8
5
1
2
2
3
6
8
8
10
7
6
3
5
4
6
1
2
3
-2
6
12
4
-2
-4
-6
-9
