4
1
3
1
0
0
7
5
3
2
1
1
6
5
5
8
3
5
4
3
-1
5
4
7
3
5
7
1
-2
4
-3
3
5
-1
6
8
1
0
0
-1
6
8
3
1
5
6
5
5
3
0
1
5
6
1
4
10
1
3
3
4
1
3
1
2
8
4
2
5
1
-1
-1
3
1
0
5
12
3
3
3
-1
1
2
3
2
7
4
3
3
-1
0
3
4
3
6
9
6
4
2
5
3
4
3
3
5
11
14
6
12
6
-2
4
4
3
5
7
5
11
9
8
7
5
6
10
9
18
15
17
20
14
16
16
16
15
17
17
6
8
8
5
2
4
2
-1
3
6
2
0
3
1
-1
0
3
3
2
5
3
-1
-3
6
2
0
2
-3
-4
0
-3
-5
-1
-2
-10
-8
-4
-8
5
14
24
43
65
85
104
122
130
122
122
115
92
51
18
-28
-55
-60
-57
-56
-49
-51
-51
-44
-47
-48
-42
-31
-26
-20
-13
-6
-5
-8
-9
-8
-7
-4
-3
-5
-2
1
-1
3
2
1
0
2
4
4
7
7
1
-1
4
1
1
7
8
9
12
13
12
5
9
7
12
17
13
11
14
12
17
16
18
13
13
9
17
14
15
18
14
11
14
13
17
16
19
34
33
29
34
36
26
24
36
38
39
40
42
48
46
43
48
44
50
52
47
56
61
56
50
60
62
54
58
61
59
65
65
60
57
53
55
58
59
63
51
57
64
54
47
44
45
43
41
39
35
40
38
35
31
31
23
17
20
18
16
20
22
13
9
8
8
6
8
9
11
9
11
6
8
8
6
2
6
7
3
4
8
5
7
6
5
4
4
5
7
4
10
7
2
8
0
3
0
4
1
5
8
5
2
0
4
7
2
3
2
6
7
8
3
5
3
3
5
7
7
9
8
1
4
8
-2
-4
-1
6
11
13
9
10
10
7
7
6
11
5
8
11
8
2
3
5
3
1
7
3
4
9
8
5
3
4
4
8
11
2
6
7
8
6
6
4
7
8
7
6
2
9
6
7
-1
0
-4
0
6
3
4
9
2
6
4
5
-1
5
16
15
17
15
11
6
9
6
5
6
10
7
9
10
10
8
12
11
9
15
15
13
15
19
21
17
20
16
14
19
19
12
13
13
8
9
16
11
3
7
8
4
7
9
12
8
7
5
8
9
10
7
12
16
4
8
4
4
3
7
-2
0
4
4
4
5
2
-1
-6
1
0
4
12
30
50
72
90
108
118
120
114
110
100
71
28
-16
-51
-60
-61
-57
-53
-57
-53
-43
-47
-47
-48
-41
-31
-19
-17
-14
-2
-1
-2
2
2
-4
-3
-1
-3
0
2
5
0
0
1
0
0
3
3
7
13
9
7
6
7
5
3
14
12
10
13
11
10
8
11
9
9
15
9
13
14
13
7
9
8
9
13
10
16
18
25
23
23
21
21
17
19
29
27
26
32
33
31
27
30
27
34
40
37
38
39
38
40
43
38
34
36
44
46
52
58
53
51
52
50
47
49
57
62
63
67
60
56
55
55
52
51
52
46
50
52
46
41
41
38
35
31
30
28
30
30
26
20
16
11
10
11
12
11
9
12
16
11
11
10
7
9
11
10
10
8
9
9
9
5
4
1
1
2
0
-2
-2
3
4
6
-1
2
-4
6
4
7
4
3
2
0
4
4
-3
2
4
7
8
5
4
1
2
3
2
4
8
5
4
2
3
2
-1
0
11
7
7
6
4
4
2
0
4
5
3
2
7
8
1
4
3
-2
2
3
3
4
2
4
4
3
7
1
-1
1
1
2
6
5
4
-1
0
3
-2
5
-2
-1
3
1
1
5
2
4
5
7
3
-2
3
2
2
3
2
2
2
2
-2
4
2
-1
0
1
-4
-4
2
3
7
12
14
8
11
5
-1
3
6
2
4
6
10
10
9
8
7
7
10
9
14
10
12
9
7
10
10
8
13
13
5
1
5
5
5
7
3
3
1
2
2
3
5
0
-2
-1
-6
-5
-4
-2
-2
-3
-13
-5
-1
0
-2
2
-1
-2
-3
0
3
-4
-5
-5
-6
-6
0
6
13
32
51
67
83
103
109
109
106
96
84
58
19
-24
-55
-68
-69
-64
-65
-68
-54
-46
-50
-51
-45
-43
-29
-21
-20
-20
-14
-6
-10
-9
-5
-11
-10
-3
-4
-7
-4
-4
-2
1
-3
-3
-6
-3
3
3
3
6
3
2
10
11
0
6
4
5
6
10
5
4
6
9
4
9
12
14
12
14
15
12
14
5
5
6
9
9
15
20
15
16
17
17
20
23
20
24
32
29
28
24
25
27
32
32
34
38
38
42
39
44
43
40
42
46
41
43
50
53
49
51
49
50
52
58
57
58
59
57
57
53
53
54
51
48
47
46
43
43
41
35
36
30
30
31
30
25
24
23
18
20
14
11
11
9
12
10
13
5
7
11
10
5
3
3
0
3
10
6
9
2
4
-1
-4
0
-5
-6
0
3
4
6
3
-3
-4
-2
-3
3
4
1
4
6
3
0
5
4
-1
2
5
1
-1
2
0
1
2
1
-5
0
4
0
-1
-1
-1
-5
0
3
-1
0
2
2
-1
2
-1
-2
6
4
10
5
6
-1
-2
0
2
-5
0
5
3
5
5
-4
3
3
1
-1
1
0
0
2
4
1
3
-2
-4
-5
-7
0
3
5
4
2
1
-2
-5
-5
4
7
2
1
-4
-2
-3
-2
-6
-6
-1
1
1
5
5
5
-5
-7
-10
-4
5
0
-2
-4
-4
-2
-4
-4
-5
-2
1
-1
-3
2
-1
1
4
3
0
5
7
6
2
5
7
-3
-9
-7
-13
-12
-8
-9
-9
-14
-16
-17
-19
-15
-20
-20
-16
-18
-16
-13
-11
-20
-17
-13
-17
-20
-20
-24
-23
-16
-17
-16
-15
-19
-22
-20
-22
-26
-29
-27
-22
-11
-8
10
27
51
70
85
96
99
92
88
72
41
5
-42
-75
-91
-86
-81
-79
-80
-80
-72
-72
-73
-71
-74
-63
-52
-45
-39
-36
-33
-28
-29
-23
-29
-26
-26
-24
-21
-24
-28
-33
-28
-26
-25
-21
-22
-24
-20
-23
-19
-17
-16
-17
-16
-14
-10
-10
-16
-14
-14
-14
-9
-11
-12
-10
-7
-5
-2
-4
-9
-8
-4
-6
0
8
11
6
6
8
6
6
9
8
12
16
13
14
21
26
21
22
25
20
24
35
39
37
34
33
42
44
44
45
43
50
48
54
54
54
52
56
56
60
61
58
57
61
61
61
54
59
55
52
54
56
56
54
52
45
44
44
46
46
42
40
36
33
32
24
19
22
22
24
27
28
22
8
15
18
16
19
16
11
14
16
15
10
9
3
6
11
13
11
13
13
8
9
6
2
6
6
5
6
9
19
13
14
7
9
11
11
6
6
13
16
14
12
11
8
7
8
9
10
13
12
13
13
10
7
5
9
9
3
4
7
7
8
13
16
18
15
17
12
13
12
6
2
8
9
12
16
10
7
13
11
16
10
9
7
10
10
11
12
12
15
12
6
11
6
5
7
5
9
8
11
12
15
14
11
8
10
9
12
18
13
16
19
12
11
10
11
10
9
14
13
9
14
22
12
10
14
8
17
16
11
16
18
16
12
17
23
23
20
24
15
17
11
8
10
8
7
5
3
9
4
2
-1
0
-2
3
3
4
5
7
2
9
4
2
0
3
0
-4
4
5
2
4
4
0
4
7
6
1
8
1
3
12
14
30
44
64
87
108
115
120
109
102
90
69
35
-13
-48
-55
-49
-43
-47
-44
-53
-43
-39
-34
-31
-30
-26
-19
-19
-17
-14
0
-10
-3
-2
2
2
1
-3
3
3
4
5
9
5
6
11
13
9
9
8
6
5
7
9
5
12
8
7
7
14
4
8
10
11
13
19
17
18
21
21
16
14
15
19
21
28
23
24
20
26
23
25
25
28
29
34
34
33
39
40
23
30
32
39
42
43
45
43
45
52
43
51
57
55
58
58
62
57
62
62
64
68
74
74
66
73
71
67
68
69
66
63
65
66
64
68
61
58
56
56
47
49
47
43
43
46
38
37
38
34
28
33
32
27
25
28
26
26
25
28
22
27
22
14
18
22
20
23
19
20
13
19
10
13
15
15
14
15
14
14
13
9
13
17
19
19
16
14
17
14
13
9
9
11
21
23
23
20
18
17
17
22
18
18
19
25
21
16
20
17
19
24
24
20
21
24
22
21
22
25
19
19
28
36
33
30
25
21
23
25
24
24
21
25
29
32
28
22
28
24
23
25
20
29
23
19
21
16
17
14
18
23
24
23
22
27
25
22
21
19
20
21
20
21
32
31
28
28
28
23
27
24
27
20
25
29
27
23
19
27
30
28
26
28
31
29
28
31
32
27
28
31
24
26
23
19
17
10
9
10
16
18
18
22
26
25
22
19
22
20
21
26
19
20
28
24
23
27
26
23
27
28
27
24
26
23
21
20
22
17
19
16
18
18
31
31
40
60
76
96
118
139
142
137
136
133
112
78
36
-8
-28
-31
-33
-28
-26
-31
-28
-17
-21
-21
-16
-13
-2
-1
8
12
13
14
15
15
17
19
17
19
20
20
16
19
18
15
24
22
18
27
28
20
20
24
22
19
23
21
16
23
23
22
21
23
27
27
27
22
25
31
31
20
20
25
19
23
29
28
29
30
30
30
32
28
26
29
34
35
31
37
34
38
35
38
36
41
43
41
49
52
47
45
45
49
45
53
51
53
51
62
62
62
61
61
58
63
62
62
67
61
64
62
63
66
60
61
57
58
56
57
49
49
45
41
43
41
38
38
36
39
36
31
28
25
24
21
25
21
18
21
18
15
14
11
13
10
12
10
16
17
12
10
10
9
7
7
6
8
12
13
10
10
9
8
3
6
6
4
7
12
9
8
6
7
6
8
7
5
8
6
2
3
12
5
0
7
5
9
11
9
11
4
4
3
8
6
6
6
10
11
9
5
8
8
7
13
11
12
12
10
9
11
7
4
8
6
5
7
10
8
5
6
6
5
5
4
4
7
11
4
6
6
8
4
9
8
4
10
13
9
2
7
10
3
6
4
1
15
6
4
8
12
9
6
5
10
10
8
12
9
10
8
11
7
10
14
13
12
16
15
16
15
12
13
18
14
18
16
21
16
13
14
7
4
7
3
7
4
5
2
3
2
-1
1
3
1
5
5
8
1
6
4
2
-1
2
3
3
4
6
3
2
4
-1
-3
-2
2
-1
3
-2
-1
-5
9
12
27
43
68
86
114
122
123
116
115
99
75
42
6
-37
-59
-60
-64
-57
-58
-60
-57
-42
-42
-41
-33
-26
-24
-18
-12
-11
-5
-5
-1
-4
2
0
-1
-4
0
-7
1
3
1
1
12
9
3
7
8
3
4
4
8
7
9
10
6
9
8
8
11
9
11
10
17
14
9
11
7
11
15
16
15
17
19
16
20
16
15
18
20
19
23
21
26
24
24
26
25
24
26
29
27
34
40
38
36
37
39
36
41
41
46
44
51
52
52
52
55
56
56
58
63
57
54
55
55
53
58
58
53
59
57
51
51
47
49
49
45
42
39
42
44
37
32
27
27
25
27
23
25
22
25
21
16
16
13
14
15
13
13
11
14
9
10
12
7
9
12
11
3
5
13
8
7
6
2
8
8
11
9
11
11
12
11
7
7
10
10
8
8
14
10
12
10
8
6
5
9
7
5
10
5
4
3
6
5
8
7
7
13
9
12
10
10
10
7
8
14
13
11
16
16
13
10
7
10
10
12
11
11
13
9
3
10
8
6
13
12
10
10
16
9
10
12
9
6
13
12
8
11
12
14
15
12
10
7
6
9
11
8
13
10
5
11
11
4
8
8
8
10
14
9
3
10
7
9
11
12
10
5
11
10
11
11
8
9
12
11
13
14
11
9
6
10
10
9
10
16
17
22
20
18
15
20
17
16
17
22
21
24
21
18
15
16
4
6
9
7
4
4
10
3
8
7
3
1
1
2
7
6
7
3
4
5
3
2
1
2
4
7
10
4
8
3
-3
-2
2
3
3
2
3
0
7
17
22
44
68
92
110
129
134
128
119
112
80
45
6
-38
-58
-55
-59
-59
-61
-61
-53
-46
-42
-45
-40
-21
-16
-16
-8
-6
-8
-2
-1
1
0
2
3
3
2
0
-3
6
6
1
13
10
8
7
11
7
8
6
12
9
12
12
11
8
7
12
13
12
18
13
13
21
15
11
16
13
10
13
16
19
20
22
20
18
21
24
20
22
21
25
26
31
26
29
27
28
31
36
31
32
37
39
39
41
41
38
42
45
47
49
55
54
53
54
59
51
52
61
59
55
62
61
60
59
57
57
64
63
62
58
59
58
56
52
51
45
48
48
45
41
43
39
37
33
32
29
28
29
24
24
25
21
21
21
18
18
19
17
17
19
20
20
12
11
15
9
12
12
12
7
12
12
12
14
11
8
10
11
15
13
11
11
9
10
7
4
10
11
6
9
18
9
9
7
7
8
13
9
9
11
13
9
9
10
11
5
9
11
12
10
11
10
9
10
12
7
5
6
8
10
10
6
7
10
10
8
10
12
9
9
17
11
10
7
8
7
7
11
7
9
10
10
11
9
4
3
5
11
9
14
13
8
8
7
5
7
9
9
4
11
14
6
8
9
4
7
7
7
10
8
10
6
10
8
6
8
8
5
9
14
9
4
6
7
5
6
6
3
6
5
6
10
8
8
7
5
6
7
7
11
10
9
4
3
1
8
9
6
8
10
11
7
4
9
10
11
11
5
10
15
14
11
8
8
7
10
8
10
9
17
14
14
16
13
11
14
18
16
16
21
17
17
17
15
13
13
9
10
7
12
6
4
-3
2
3
4
3
-1
4
7
0
3
-2
2
3
3
4
4
5
10
0
3
0
1
-2
0
1
-1
0
0
-4
-6
-7
-4
1
8
20
40
60
83
100
114
116
114
112
108
88
51
9
-35
-57
-53
-52
-52
-55
-56
-50
-41
-36
-34
-34
-42
-26
-26
-16
-14
-12
-7
4
1
0
3
1
2
3
5
3
2
9
11
8
10
7
6
6
8
10
10
13
14
13
13
14
13
10
16
16
19
20
17
17
15
17
16
19
16
17
22
27
27
22
19
22
23
21
29
22
26
29
30
26
30
31
32
32
33
34
38
43
40
41
42
47
42
47
49
49
54
60
55
54
59
63
60
61
64
65
66
69
69
69
67
66
66
69
69
68
63
69
67
64
64
66
61
61
59
56
57
57
52
51
48
44
42
37
43
39
38
36
34
32
29
25
26
24
28
26
25
23
21
22
25
20
19
22
21
18
16
20
19
16
18
16
13
17
15
13
17
21
17
16
18
12
14
21
16
16
12
15
14
14
13
10
12
14
18
17
18
17
14
14
11
13
15
15
14
17
22
19
16
15
11
12
19
21
18
15
18
17
20
17
18
16
17
18
19
18
22
20
19
17
18
17
18
19
17
16
21
18
15
15
24
18
17
17
19
18
18
19
17
14
12
13
19
19
16
16
17
17
15
17
13
12
16
16
15
21
20
21
19
18
17
17
20
22
18
17
22
19
17
17
17
14
17
16
21
21
27
24
25
20
20
17
19
18
21
17
24
22
22
24
24
21
22
18
16
27
32
20
23
30
35
25
28
29
22
21
27
2
12
20
17
16
15
16
14
15
16
15
14
17
13
11
16
14
12
15
15
19
14
17
11
10
15
13
9
16
14
12
6
9
4
3
3
4
7
19
24
36
58
71
92
96
123
128
122
121
111
83
45
-4
-39
-49
-50
-42
-44
-39
-36
-38
-30
-33
-32
-31
-24
-19
-11
-3
-4
-3
2
3
4
4
9
8
7
15
11
3
10
16
8
9
8
17
17
23
19
14
12
13
18
20
17
20
18
23
20
21
19
18
17
13
16
21
27
29
23
24
27
26
22
23
25
25
30
29
28
30
28
30
31
32
32
32
37
40
36
38
41
39
38
45
48
43
46
54
53
55
56
56
55
59
60
63
64
64
63
67
66
69
68
69
69
67
71
65
74
70
67
65
64
67
65
64
60
61
57
46
56
51
49
49
46
45
44
43
38
33
33
30
30
30
24
30
32
27
24
24
23
20
21
19
24
21
24
18
20
17
21
14
19
19
18
19
23
16
18
13
0
20
23
23
18
18
21
19
16
19
19
20
18
18
18
19
21
20
14
22
21
15
9
18
21
19
21
22
19
23
22
13
16
20
19
23
26
21
17
22
17
9
24
22
21
20
30
21
21
23
20
18
23
24
20
19
23
21
22
22
24
16
20
21
23
23
25
22
20
21
21
17
22
23
22
20
23
22
22
19
17
10
19
25
16
18
27
24
22
24
23
20
18
21
20
23
23
22
21
23
20
19
23
25
23
24
26
23
18
20
19
21
24
19
18
28
26
23
16
23
17
17
24
21
19
25
32
28
29
28
24
24
25
26
23
24
29
27
29
27
24
29
29
29
31
33
35
33
34
34
31
31
34
32
31
34
30
31
23
18
21
20
16
24
20
21
18
21
28
21
16
19
17
18
17
24
26
22
20
21
21
23
20
20
21
20
20
18
17
18
15
15
19
13
19
32
38
56
79
97
117
133
140
139
136
129
116
80
42
-3
-32
-35
-40
-34
-35
-32
-26
-21
-22
-24
-20
-12
-9
2
5
11
7
15
16
14
11
19
17
19
21
23
20
21
19
22
21
24
23
21
26
30
24
25
24
24
21
27
27
24
28
29
28
29
28
31
33
28
28
27
33
34
34
33
31
30
30
29
32
37
37
39
36
34
41
36
39
42
41
41
46
46
48
46
46
47
47
52
53
52
60
58
61
61
63
61
64
66
66
71
74
72
71
70
70
72
73
75
75
79
75
79
77
80
74
72
74
75
71
69
73
72
64
64
57
57
58
60
55
51
55
52
48
42
48
40
38
37
36
38
40
35
32
36
32
26
30
30
30
29
32
27
32
28
28
24
27
28
27
26
31
26
28
24
25
25
25
22
26
29
29
27
27
27
25
25
29
28
25
24
30
25
27
29
25
24
27
32
30
31
29
26
23
27
26
21
26
29
26
31
31
24
26
28
25
22
26
27
27
27
37
29
26
26
27
28
29
26
29
30
30
27
30
27
26
28
30
30
32
30
33
29
24
29
24
28
30
27
29
29
28
25
28
32
27
28
28
27
33
31
30
28
26
27
25
26
28
28
28
31
30
27
28
28
23
28
27
27
29
33
32
30
25
26
21
25
30
28
29
32
32
28
26
28
27
27
31
29
27
29
31
27
31
26
27
29
31
28
29
33
33
31
30
28
28
32
32
30
33
34
34
33
35
36
32
37
35
35
37
42
38
40
44
39
39
36
39
39
35
44
36
31
31
30
27
27
25
24
27
31
28
27
26
24
25
30
25
30
29
28
24
27
24
25
24
24
28
25
28
28
22
25
26
24
21
21
24
23
33
38
46
62
87
104
126
145
147
146
142
140
119
82
44
-3
-25
-27
-31
-30
-27
-31
-24
-20
-14
-17
-16
-6
3
7
11
15
18
17
20
21
24
25
24
26
28
27
24
26
27
24
27
32
30
27
36
33
29
29
30
29
32
30
35
33
35
32
31
32
33
30
32
39
37
33
38
39
34
34
37
34
40
37
40
39
42
38
47
45
46
42
47
49
48
48
57
51
48
52
54
53
58
57
57
66
67
64
63
64
69
68
74
76
71
74
79
78
79
81
78
75
81
86
83
83
86
82
82
84
82
77
80
81
77
80
84
78
72
63
67
60
68
65
59
59
60
55
55
53
44
45
47
44
47
44
44
39
40
40
37
36
35
34
35
41
40
35
31
31
30
28
31
31
29
33
34
32
31
31
27
34
31
29
28
30
31
34
30
28
26
30
33
34
35
38
35
30
28
30
32
31
28
27
29
36
34
33
34
32
33
31
32
33
32
34
38
31
33
34
29
29
36
34
36
39
38
36
34
38
36
34
35
32
31
36
35
35
35
32
31
34
33
33
32
37
33
33
34
32
33
36
33
34
35
40
34
38
34
34
35
36
33
36
35
38
39
35
34
36
33
35
36
32
35
39
35
35
35
32
27
36
31
35
36
39
36
34
33
34
34
34
36
38
35
37
41
34
37
34
32
35
36
34
35
41
37
37
38
33
33
32
35
36
35
40
36
35
36
33
37
42
40
38
39
43
41
38
38
36
38
43
39
44
49
46
44
40
43
41
42
47
46
46
53
52
47
43
44
41
40
42
34
35
41
42
37
37
34
35
31
35
38
35
37
37
36
38
36
29
36
42
39
32
41
39
39
33
36
32
33
36
38
32
36
33
31
32
41
39
52
72
87
110
132
144
145
151
141
141
130
104
61
11
-12
-17
-11
-11
-12
-14
-10
-5
-6
0
0
2
6
11
15
18
23
28
24
30
33
32
32
32
35
31
34
40
39
37
40
39
40
38
41
37
39
41
40
45
49
47
53
49
47
49
48
48
48
52
51
48
50
47
49
49
53
50
50
57
55
53
52
58
54
55
58
59
62
68
64
57
62
61
64
65
66
67
68
69
69
74
71
76
72
79
80
82
82
88
86
89
90
88
88
91
91
94
97
99
98
100
100
95
103
94
95
95
98
98
97
95
93
93
87
89
86
84
83
81
79
77
71
71
69
65
67
62
63
64
59
54
55
55
54
54
52
52
51
54
53
48
44
44
40
50
47
42
44
46
48
49
45
40
39
45
44
38
40
47
47
44
45
38
40
43
44
44
45
47
42
41
43
42
40
40
42
42
42
42
46
44
42
43
42
43
45
42
46
46
43
43
44
46
41
48
45
48
45
49
49
47
46
40
45
45
44
44
43
51
44
48
45
42
46
50
49
47
48
47
45
51
42
40
41
46
44
47
49
46
44
43
45
44
44
41
45
44
50
49
45
44
45
40
42
45
44
43
48
44
44
39
45
45
41
41
40
41
50
40
40
45
43
43
46
41
45
45
43
43
42
42
44
40
43
43
41
45
47
44
43
44
44
45
45
46
44
46
47
46
43
44
46
43
44
46
46
48
51
49
49
47
51
47
51
51
53
55
56
55
52
51
50
48
49
46
41
44
48
42
43
40
35
36
39
41
43
36
40
35
39
37
36
34
38
39
31
31
36
31
36
34
33
32
36
42
41
40
41
33
33
31
31
38
49
63
81
102
121
137
148
156
146
141
137
114
79
42
-1
-22
-26
-22
-25
-24
-22
-15
-11
-3
-4
-4
3
8
7
15
27
30
30
36
33
35
28
27
24
28
34
36
42
45
46
44
39
35
39
44
44
44
42
47
47
47
48
43
44
42
48
45
46
51
51
47
47
48
44
49
48
52
51
57
54
50
54
54
52
57
57
59
61
64
63
64
65
62
65
69
67
66
70
75
71
75
75
76
73
77
82
82
87
89
85
88
86
86
86
93
97
97
107
103
99
100
99
101
103
105
99
101
100
101
101
98
95
95
92
93
96
91
88
90
79
80
78
73
69
71
70
65
66
68
62
59
61
60
54
62
58
54
56
58
55
54
57
52
51
54
53
50
52
52
49
48
48
46
47
50
47
47
52
53
45
49
49
46
44
48
46
48
53
56
51
46
48
46
52
48
44
45
48
50
54
45
48
45
48
47
48
46
48
54
48
49
52
46
49
49
48
46
51
52
50
48
46
43
42
44
41
45
54
53
49
47
51
50
51
55
53
51
56
50
49
51
52
46
48
47
49
49
52
48
48
48
46
43
45
49
46
45
51
48
42
47
45
41
46
46
47
50
52
49
49
42
47
43
47
53
52
52
58
48
46
49
52
48
48
49
47
51
51
45
47
50
46
47
53
47
42
46
52
50
47
43
44
45
48
49
45
47
51
49
46
45
47
47
53
53
51
55
53
51
49
48
48
49
48
47
55
54
54
51
53
47
51
48
54
53
55
62
61
62
63
57
56
58
58
54
54
53
52
50
48
53
46
43
46
45
45
50
47
44
45
46
41
44
45
46
41
48
46
46
42
43
46
45
42
41
39
42
41
45
44
37
36
36
45
53
62
82
103
123
140
159
164
166
164
160
146
117
77
31
1
-12
-14
-10
-7
-9
-6
5
4
7
9
7
11
22
26
32
37
42
36
41
42
42
42
42
39
37
43
44
44
43
48
43
41
43
45
43
46
46
48
50
50
45
46
48
50
47
49
51
52
49
50
50
46
52
56
51
56
61
57
50
52
54
54
59
60
58
58
63
62
57
63
60
60
63
65
67
71
70
66
70
75
72
75
82
77
81
85
86
81
83
88
87
91
91
89
93
94
101
99
97
97
96
99
100
97
98
101
99
98
96
95
94
96
95
97
97
90
90
81
80
80
82
77
76
70
70
73
73
68
64
60
59
57
59
56
55
55
54
50
50
45
45
49
53
51
50
53
50
49
48
48
51
47
48
45
48
48
46
48
43
42
41
45
45
41
43
47
49
44
41
42
43
46
50
47
50
48
46
45
48
48
46
48
46
41
46
49
43
50
45
45
45
46
44
42
44
49
49
47
48
48
46
47
50
43
46
49
47
48
50
48
46
48
51
48
53
50
47
45
46
45
43
45
48
48
54
57
48
50
47
44
48
47
47
48
50
52
49
48
48
46
44
44
41
46
51
46
44
48
49
46
44
46
43
41
48
50
42
43
49
46
43
41
45
48
51
46
49
45
49
41
40
43
47
48
55
54
53
50
53
46
49
49
46
49
51
48
53
52
47
49
49
53
48
51
53
57
58
57
56
54
56
57
54
53
53
48
48
41
41
42
42
43
40
44
43
43
43
45
44
43
44
46
43
43
47
46
46
47
44
43
46
46
42
44
46
42
41
43
40
32
36
35
38
41
55
60
79
94
115
127
149
154
154
156
153
142
116
76
25
-5
-3
-1
0
-1
2
0
-1
4
3
2
4
13
16
25
30
30
35
39
37
36
34
39
39
45
45
44
43
45
42
42
46
49
45
49
49
49
46
45
44
44
46
45
44
52
49
43
46
49
47
47
51
53
56
59
57
56
52
50
56
56
55
52
56
63
61
57
58
62
58
60
63
61
63
70
67
67
67
67
68
68
73
71
74
79
82
85
85
87
84
84
96
91
91
99
95
95
95
98
95
98
99
96
97
105
101
98
95
92
89
98
96
89
95
99
84
85
81
77
78
77
71
70
74
78
67
65
61
61
59
58
55
54
55
59
52
48
49
50
42
45
48
43
49
47
44
44
43
42
43
45
43
40
44
44
40
37
36
37
36
40
44
43
46
48
43
41
40
41
39
44
44
39
41
40
37
43
40
39
37
41
39
40
48
45
41
40
39
41
39
42
38
40
39
41
39
39
41
38
46
44
45
40
47
45
44
42
46
41
45
49
43
44
47
47
45
47
44
40
41
39
42
43
44
46
42
41
42
37
42
39
41
41
42
43
41
39
39
39
41
44
42
42
44
43
41
45
43
33
39
45
42
41
41
41
37
38
39
37
40
44
40
39
47
39
42
41
37
37
42
39
41
39
43
40
45
42
41
39
43
43
41
43
47
42
39
38
42
42
43
41
41
44
47
43
46
45
46
46
49
53
52
53
52
51
53
55
49
46
41
44
44
42
43
41
39
38
33
36
40
36
36
37
40
39
36
35
32
36
38
34
36
42
41
38
37
38
32
34
36
36
38
39
35
33
31
33
34
45
67
82
100
124
143
154
157
157
149
140
121
83
42
7
-16
-22
-22
-17
-20
-20
-10
-8
-4
-3
1
8
15
20
25
27
28
32
36
36
35
32
30
33
34
35
36
36
38
40
39
42
41
37
35
39
40
45
40
42
38
40
42
44
41
42
44
41
41
49
46
46
49
47
42
41
44
44
47
49
46
47
48
46
46
50
52
55
56
59
58
58
58
56
58
61
61
61
61
67
63
68
70
68
69
73
75
74
78
81
80
79
80
83
83
84
86
84
85
92
89
90
92
89
94
96
93
92
94
95
92
90
83
82
81
81
81
80
79
78
70
68
68
60
61
59
57
53
59
57
51
46
50
45
48
49
44
44
48
43
41
41
45
42
39
39
42
37
42
40
37
37
39
37
44
39
33
39
44
39
37
39
38
34
37
40
39
34
39
39
36
40
35
31
38
40
35
38
39
41
42
37
37
32
39
35
32
36
37
39
39
38
36
36
37
36
37
42
42
37
35
40
40
39
38
38
39
40
42
40
39
37
34
37
38
41
38
39
47
38
40
38
36
39
38
39
36
40
44
39
35
37
33
38
39
40
40
41
42
41
34
30
37
35
38
41
38
40
45
38
38
38
38
34
36
34
37
41
41
37
39
37
39
36
36
37
39
40
39
38
35
34
37
36
37
39
40
39
37
39
41
34
35
40
38
40
42
40
38
41
35
38
34
37
40
40
40
45
44
43
44
41
39
40
48
47
50
51
52
52
48
46
43
41
39
42
38
39
41
37
36
34
33
34
31
31
36
36
32
33
36
34
33
32
35
34
33
38
32
35
32
31
29
34
35
35
31
33
28
24
29
32
31
44
49
63
85
109
124
143
151
151
149
144
131
100
67
23
-12
-26
-26
-25
-25
-25
-20
-17
-18
-7
-8
-2
5
10
13
23
23
22
29
32
27
32
30
27
29
30
27
30
34
36
33
31
33
32
30
36
33
31
32
37
34
36
37
35
35
34
38
33
35
38
35
37
42
39
37
41
40
42
43
41
42
41
40
40
44
45
47
45
50
48
50
50
51
48
52
57
55
54
61
57
60
54
59
59
61
63
63
70
71
73
72
70
71
74
77
81
80
82
87
87
84
84
84
80
84
85
85
85
86
84
81
83
79
75
79
78
72
72
75
71
63
61
64
56
58
60
49
48
53
45
45
43
40
39
42
39
40
41
44
42
36
37
35
32
35
36
30
34
36
34
34
31
32
24
30
37
34
31
32
31
31
31
27
27
32
28
27
30
32
29
29
31
29
27
30
31
29
28
32
32
31
32
33
32
30
29
31
32
34
30
35
36
33
30
31
32
32
32
38
30
28
29
31
32
31
27
29
30
30
27
31
32
27
29
29
26
30
34
41
38
33
33
34
31
31
31
34
40
35
31
32
28
28
32
36
34
31
36
35
30
27
32
25
28
32
31
32
33
32
31
29
29
27
31
40
39
36
42
43
37
39
38
34
33
36
34
34
37
38
33
33
38
33
31
36
33
35
40
34
33
28
30
30
36
33
30
31
29
29
30
32
32
29
35
37
34
36
41
38
38
35
30
30
39
33
32
38
42
39
42
38
38
37
34
38
42
44
45
45
43
47
43
41
39
39
37
41
41
34
32
30
28
30
29
25
31
33
34
31
33
34
27
29
30
34
29
32
34
29
29
30
23
26
28
23
24
27
26
27
24
19
18
20
20
23
28
42
61
83
96
115
131
145
142
145
140
136
108
67
20
-17
-24
-24
-17
-17
-19
-19
-12
-16
-16
-10
-7
-7
3
7
9
16
19
19
21
20
20
22
28
25
27
31
29
27
28
30
30
29
28
30
29
34
31
32
35
33
31
33
33
31
33
35
31
33
36
35
33
39
36
38
40
45
40
39
41
40
34
37
43
42
45
50
51
48
51
50
45
52
51
52
54
61
57
56
55
61
60
62
63
68
71
70
68
71
74
74
71
77
79
77
86
87
84
85
86
87
82
86
88
88
88
90
88
87
86
83
81
81
78
79
78
79
76
72
67
65
61
62
62
59
59
61
51
48
49
46
42
41
42
42
44
42
43
41
41
34
34
38
35
38
40
36
36
37
35
32
36
33
31
33
34
33
32
31
32
28
29
30
29
28
34
28
33
29
30
28
34
32
30
33
35
34
35
32
31
28
28
31
30
32
36
35
30
31
33
25
29
33
28
30
36
34
33
38
35
29
29
36
30
35
34
31
33
32
32
32
35
33
31
30
36
30
30
30
30
30
38
29
31
34
36
33
32
33
34
27
29
30
30
35
34
31
28
32
25
28
30
29
29
30
36
33
28
26
28
28
32
31
32
31
32
27
25
33
30
26
32
35
24
29
33
29
30
28
27
31
35
26
20
32
28
25
31
33
27
28
32
34
31
33
36
30
26
31
27
27
30
33
33
34
36
34
35
35
34
28
31
35
42
43
41
40
41
42
37
40
36
32
32
36
34
26
27
24
24
28
26
26
24
29
28
24
23
24
21
25
27
27
25
28
25
26
27
27
26
22
22
23
24
27
26
20
17
17
16
20
25
30
43
65
83
101
121
137
135
135
141
130
117
84
41
-5
-26
-32
-36
-28
-26
-25
-22
-16
-15
-17
-16
-10
-3
4
3
8
13
20
17
18
17
18
17
21
25
24
26
25
26
27
28
26
26
27
25
30
30
32
22
26
30
29
28
28
30
29
34
34
31
30
32
31
31
32
32
31
36
39
36
38
37
41
38
36
37
37
42
43
39
38
41
41
42
48
45
47
53
53
51
50
49
52
55
62
61
60
68
64
65
66
66
71
69
73
76
75
80
77
76
74
76
78
77
80
80
82
84
83
81
78
78
78
73
73
67
69
73
67
61
63
59
56
57
55
50
51
52
45
43
44
40
37
39
39
33
33
36
32
31
31
33
31
31
32
30
28
38
25
30
30
28
26
31
28
28
27
32
32
26
25
28
20
24
28
28
30
29
25
28
27
23
23
26
23
23
28
28
25
29
25
24
23
26
27
27
31
31
30
29
27
28
29
31
34
31
29
32
26
28
33
30
28
29
29
29
28
33
32
31
30
28
24
31
26
26
29
34
29
26
30
29
30
31
31
31
32
34
29
30
29
31
28
25
28
30
31
31
30
26
28
26
28
28
29
33
27
30
31
26
25
26
30
29
27
23
27
26
25
27
35
27
28
28
31
29
32
32
29
28
34
25
23
28
29
28
32
32
28
28
28
26
26
29
31
29
33
33
27
28
29
25
30
30
24
24
28
30
29
26
33
26
30
30
31
34
29
31
35
31
29
26
30
31
32
35
36
35
36
36
32
33
37
36
38
40
40
38
40
40
42
35
38
38
37
33
33
31
29
29
24
22
26
29
28
31
28
25
26
27
23
24
31
27
25
27
29
28
29
27
27
20
26
28
23
25
25
24
21
23
20
30
39
50
65
91
112
122
140
150
148
142
136
113
78
42
-2
-28
-32
-28
-25
-27
-27
-18
-18
-12
-14
-8
0
4
5
16
19
17
25
30
25
22
20
22
26
23
24
24
28
30
30
31
29
26
23
29
34
29
27
33
29
35
31
32
29
33
34
35
36
38
35
34
31
35
36
37
36
35
38
41
43
35
37
40
36
39
43
40
43
45
42
45
43
44
42
53
49
49
50
56
54
58
59
57
58
61
62
64
67
67
67
68
69
70
70
75
76
76
78
81
78
77
80
80
78
82
81
80
84
82
81
79
82
78
75
76
73
73
71
65
63
61
61
55
55
55
57
52
48
47
42
42
46
40
38
40
38
35
38
39
35
35
36
32
29
35
33
29
37
32
31
30
30
31
31
31
28
29
37
36
31
29
32
29
27
28
29
29
32
33
32
29
32
30
30
31
30
33
34
34
31
31
32
29
31
31
28
30
35
32
29
28
28
30
30
28
29
32
36
33
33
30
34
30
33
33
30
31
35
31
31
31
31
29
31
33
30
33
34
31
29
32
32
31
31
29
25
29
34
25
29
29
31
33
35
33
29
29
34
29
28
30
29
26
27
31
28
31
32
32
30
29
28
23
25
29
29
30
31
27
28
29
24
26
27
28
26
26
31
31
33
28
25
23
28
30
27
31
32
29
25
30
30
27
28
30
26
31
31
28
32
30
22
24
30
28
27
28
28
28
25
29
28
28
34
33
26
33
32
28
32
32
25
26
31
28
33
36
31
34
33
34
34
33
36
36
37
42
42
43
38
38
32
35
40
37
30
32
33
29
29
26
24
22
26
27
24
27
27
27
25
26
24
24
24
21
25
31
27
23
23
22
23
28
24
18
22
25
27
25
18
20
16
26
37
41
54
80
99
117
140
145
142
143
141
120
97
60
12
-16
-29
-33
-28
-30
-30
-27
-21
-15
-16
-14
-8
-2
3
9
18
18
16
20
22
24
21
23
18
20
25
25
26
25
23
21
22
29
26
30
30
30
29
33
32
28
29
30
28
28
26
24
29
31
29
28
30
30
30
35
35
34
40
34
36
35
36
38
38
40
37
39
43
42
38
41
42
45
44
50
45
46
50
48
52
49
51
51
58
59
59
62
64
67
64
66
64
67
72
76
74
74
76
76
76
75
78
76
77
80
77
78
79
78
79
78
78
75
73
72
70
71
70
62
64
63
59
57
57
51
50
52
52
47
43
42
45
38
38
36
29
34
40
33
28
30
32
29
30
31
26
34
29
27
29
27
27
25
28
29
28
31
29
28
27
23
25
24
28
32
26
25
29
29
28
25
26
25
28
29
25
28
28
30
25
25
21
21
26
27
25
26
30
23
25
30
24
28
30
27
26
29
31
28
23
24
26
23
27
28
26
27
32
30
25
27
24
26
23
26
29
29
27
24
26
26
23
27
28
27
27
30
30
28
27
24
21
26
27
25
28
27
32
29
23
20
28
29
27
25
24
27
26
29
23
25
20
25
26
27
28
27
26
29
25
26
24
30
29
25
26
29
26
25
21
24
22
28
28
26
24
27
25
23
25
22
21
26
30
25
24
31
29
22
25
24
24
28
27
26
28
30
27
26
24
23
23
23
22
23
26
30
26
28
30
27
27
30
29
30
25
27
30
32
27
34
28
26
33
35
33
35
39
35
32
39
35
36
32
34
35
35
31
30
24
26
26
26
22
21
22
26
25
23
25
21
18
23
24
24
24
28
20
20
25
18
20
22
26
25
24
23
19
19
18
13
15
14
14
15
22
32
38
56
77
93
115
137
141
140
143
138
123
92
51
1
-20
-27
-26
-23
-25
-27
-28
-20
-20
-19
-14
-18
-12
-4
0
6
11
12
15
12
14
19
15
20
23
18
23
21
20
18
19
22
23
26
26
28
29
24
28
28
22
23
22
25
34
28
30
27
28
27
27
26
26
27
32
32
30
31
31
29
32
34
34
37
41
38
35
39
40
37
41
42
41
45
47
49
45
44
47
50
55
53
53
58
59
62
64
59
61
63
67
68
65
68
76
75
72
76
75
75
76
77
81
82
84
79
79
81
80
78
80
75
72
70
73
70
70
69
62
60
61
59
56
60
56
49
47
43
39
38
40
35
35
36
35
34
32
35
28
25
31
29
25
32
33
24
22
26
24
25
23
22
25
26
23
23
26
24
21
20
19
20
22
23
20
21
20
22
17
20
18
19
17
23
21
22
21
22
20
21
21
18
20
23
24
24
25
23
20
22
29
24
27
29
24
25
24
23
20
21
22
21
25
25
23
22
25
22
19
22
20
17
20
27
23
24
24
22
19
22
21
24
28
22
18
22
21
18
19
21
21
20
22
24
21
23
23
19
19
23
28
21
22
23
22
22
21
24
18
19
20
19
18
21
19
18
22
18
18
21
21
18
22
20
20
17
19
19
20
22
16
19
23
21
17
15
21
16
21
24
26
25
25
26
21
16
21
21
21
22
22
22
25
22
21
22
26
24
27
28
27
29
33
32
30
31
30
29
31
27
26
22
23
18
20
22
18
20
14
19
17
19
18
16
21
19
19
15
18
19
18
14
17
22
20
19
21
14
17
16
15
18
19
12
13
5
8
10
22
23
29
49
77
91
111
127
129
130
129
129
108
71
39
-13
-35
-36
-39
-40
-35
-33
-29
-24
-22
-25
-24
-18
-13
-7
-3
4
3
8
13
14
11
13
15
10
10
15
11
17
18
17
18
21
18
22
18
17
23
26
24
18
18
19
19
17
21
24
21
25
28
26
26
25
21
23
26
24
23
32
30
26
23
26
25
28
30
29
33
34
32
34
33
37
36
39
40
38
44
47
49
41
44
49
45
54
53
54
55
57
58
61
61
62
59
63
63
64
67
70
69
70
73
73
72
73
74
73
74
75
75
71
72
70
67
66
64
65
67
64
62
59
50
47
44
47
48
41
41
41
36
34
31
28
26
30
33
26
26
27
25
26
23
27
24
23
25
20
23
30
24
22
23
21
20
23
20
19
24
22
16
18
21
17
16
21
21
21
22
24
23
19
22
19
17
18
24
17
18
24
21
20
16
18
20
23
18
20
23
23
24
21
23
20
17
24
25
22
26
26
23
20
25
19
21
22
18
21
26
26
24
20
23
19
23
24
22
22
24
27
22
23
23
22
23
25
21
28
26
23
20
24
25
20
17
22
23
24
27
24
19
17
18
20
20
21
23
21
25
26
22
22
26
15
22
25
19
24
25
22
24
20
23
18
24
24
22
19
21
19
19
23
23
20
25
26
22
23
23
24
25
22
21
18
23
27
22
21
29
24
21
22
25
24
23
24
21
22
30
27
26
25
22
25
27
26
28
30
32
25
29
32
32
30
36
35
35
33
37
31
33
32
26
24
27
23
18
20
25
18
20
20
17
14
18
20
20
22
27
25
18
20
18
18
22
21
18
22
24
19
18
19
15
16
19
12
14
18
19
18
24
30
36
57
79
106
121
139
141
137
135
132
106
69
36
-11
-30
-35
-41
-36
-37
-31
-31
-24
-19
-17
-12
-9
-3
1
4
10
10
18
22
20
21
23
20
19
20
15
17
20
20
21
26
26
26
24
23
25
26
24
25
24
26
29
25
26
26
27
27
30
30
28
29
27
26
29
36
28
27
28
30
32
35
38
32
31
37
37
35
35
33
35
39
45
40
39
40
37
37
46
52
48
53
57
54
55
54
57
58
61
63
66
65
67
66
70
71
68
68
75
71
76
85
80
77
77
75
76
76
76
79
77
73
79
71
68
67
67
63
60
60
55
58
57
49
49
48
44
40
42
41
43
44
43
37
36
33
33
26
26
28
26
31
34
26
28
24
25
22
31
26
22
31
27
23
19
20
14
17
18
21
25
25
26
20
14
18
19
25
27
22
23
32
24
23
22
20
19
25
26
25
24
24
22
25
21
22
21
18
22
24
22
24
23
22
19
22
21
23
22
21
20
22
23
18
21
24
25
23
24
21
22
27
29
26
25
25
22
25
28
22
22
26
26
20
24
21
16
15
19
21
25
25
26
19
23
22
17
19
24
23
25
26
29
25
29
27
21
28
27
25
30
37
33
31
31
30
32
31
27
33
31
32
27
30
32
32
31
32
31
29
33
37
38
37
39
38
39
39
40
40
42
43
44
39
37
37
36
36
39
38
38
36
37
34
38
32
34
37
37
41
43
39
38
35
40
36
40
43
42
39
41
44
39
36
43
37
40
45
42
44
51
48
50
49
45
41
43
48
50
50
48
40
37
38
37
34
33
37
33
34
40
38
33
34
34
33
35
33
34
34
37
33
34
32
32
28
33
31
30
31
26
31
30
25
27
24
25
24
32
44
60
80
97
117
137
149
151
153
150
146
126
85
41
-2
-23
-28
-28
-23
-19
-22
-12
-10
-11
-8
-7
-2
11
11
20
28
32
26
25
28
26
25
27
32
30
33
39
37
33
31
33
29
30
32
34
40
38
40
36
35
33
35
36
38
35
40
45
41
36
39
39
38
41
40
46
47
49
42
42
46
43
47
46
46
47
51
48
49
49
51
45
47
51
52
52
52
54
57
61
64
58
63
67
65
65
72
68
72
71
77
74
72
76
79
82
81
81
82
79
80
78
80
82
82
81
80
82
82
79
82
76
79
76
75
78
78
71
64
62
65
60
58
56
55
52
51
49
48
44
43
37
37
41
40
39
38
37
34
33
26
25
31
32
26
31
29
29
28
26
25
23
27
26
24
25
28
25
24
25
23
19
24
25
22
23
25
22
23
23
19
18
21
19
21
22
23
21
20
16
19
21
19
25
27
24
28
26
23
24
22
24
25
25
21
28
32
31
25
24
20
22
23
26
25
25
26
24
23
27
26
23
23
21
19
25
26
25
24
24
23
26
27
25
24
27
25
25
23
20
18
22
26
20
24
19
19
25
24
22
19
14
19
23
21
24
23
18
21
23
23
24
28
22
25
30
25
20
19
24
19
21
21
26
24
25
20
20
19
18
18
21
18
21
21
21
24
20
16
23
23
25
22
20
28
27
20
24
27
26
20
25
24
20
21
25
25
26
25
27
22
27
29
26
25
29
32
31
36
32
32
35
33
34
35
33
29
22
23
19
17
18
20
18
19
26
22
19
17
13
14
19
13
18
25
22
18
20
23
19
19
16
22
19
20
20
15
16
16
16
13
11
11
10
17
27
33
50
71
86
105
123
131
127
132
125
108
81
43
-8
-34
-37
-30
-28
-27
-29
-33
-26
-19
-20
-21
-19
-16
-12
0
3
-2
3
5
8
12
13
12
12
14
16
21
17
17
15
16
19
21
18
21
20
17
19
20
21
21
21
20
24
23
23
26
26
23
25
24
27
26
28
30
32
31
25
25
27
30
30
29
33
37
35
28
33
31
32
34
37
38
37
40
40
40
39
45
42
46
50
48
51
55
57
53
62
61
57
62
69
73
69
70
66
71
71
68
70
72
73
70
75
78
75
75
75
73
73
71
69
65
70
67
62
63
59
53
54
51
56
46
49
49
45
40
39
37
35
32
30
27
29
33
33
22
24
21
20
20
19
20
24
24
19
15
16
19
19
17
19
16
22
22
15
16
12
16
15
18
17
15
17
16
16
18
17
14
13
15
17
14
14
17
17
13
14
13
15
17
14
14
17
17
18
18
23
16
18
18
20
19
20
18
20
14
16
16
17
18
18
21
24
14
14
19
20
17
17
22
16
18
19
16
13
20
14
13
21
18
16
17
20
17
13
11
17
12
13
20
15
14
19
18
11
14
16
13
15
16
15
17
20
14
12
9
10
7
14
16
16
16
18
17
12
13
10
12
18
18
16
14
14
15
15
17
10
10
12
13
11
12
17
12
11
14
15
15
16
16
14
15
18
16
12
13
14
16
17
16
17
18
17
21
20
24
22
23
27
25
24
25
23
22
19
23
14
13
8
9
12
17
15
14
9
9
8
12
9
9
9
10
13
12
10
12
7
12
12
10
10
12
12
9
9
9
7
7
14
6
7
10
6
5
