-25
-29
-21
-30
0
42
18
-3
6
29
8
-4
-10
2
22
42
14
-7
-12
-12
-5
-9
-2
7
23
15
5
-13
-11
-5
11
22
14
20
8
9
16
10
-6
-10
-20
0
21
32
41
32
15
9
15
6
9
8
23
35
20
-1
-1
-1
-15
8
44
15
30
41
36
30
22
30
26
18
21
11
17
32
40
36
30
25
20
18
25
44
54
52
65
68
55
53
35
31
43
67
55
37
38
56
90
81
52
45
54
58
55
45
68
73
50
55
60
60
50
50
54
58
49
33
30
26
10
17
47
41
25
28
24
30
18
0
-17
-10
13
24
27
25
24
8
2
-10
-35
-5
12
10
10
6
-2
0
-13
-35
-28
7
31
5
11
3
-6
1
4
-11
-19
-19
-18
-26
-6
26
16
9
4
-6
-8
-11
-24
-10
6
10
11
3
-13
-20
-8
-2
-11
5
-2
-5
0
0
0
-6
-20
-26
-4
18
8
17
24
1
-31
-44
-36
3
22
13
21
14
10
3
-19
-28
-20
-14
-8
-2
-8
-4
-5
15
-1
-7
-10
-12
-20
-3
10
4
2
5
-21
-24
-19
-19
-12
0
-9
-14
18
0
-18
-14
-15
-21
-16
-5
-6
1
-10
5
-12
-23
-15
-9
-7
5
3
4
3
-2
-37
-26
-21
-22
-10
-2
-4
-6
3
-9
-39
-28
-13
-4
-13
-9
6
-3
-2
-19
-34
-15
-10
-3
-13
-3
14
7
-10
-11
-13
-15
-14
-22
-12
-11
-3
13
4
-7
-16
-40
-55
-26
21
23
23
33
16
8
0
-13
-8
1
-1
2
8
4
16
1
-8
-6
-3
-12
-5
2
0
13
-10
-42
-55
-33
10
17
4
0
-6
-7
-4
-5
-8
-28
-24
-12
-12
-3
-13
-25
-10
-24
-42
-42
-23
-27
-6
-2
0
-7
-20
-22
-19
0
-12
-36
-45
-8
6
-4
-21
-30
-37
-17
-18
-52
-33
4
3
6
21
22
35
56
80
90
117
143
170
170
163
134
114
84
61
40
5
-17
-27
-24
-6
-35
-39
-30
-30
-22
-10
2
2
-25
-32
-30
-48
-16
0
-3
-7
-1
1
-9
-14
-25
-31
-47
-28
9
12
10
13
5
-10
-14
-12
-6
-16
-8
4
-3
-30
-30
15
-3
-7
-9
-5
-15
-24
-7
11
9
-1
-10
-7
-13
-2
1
7
12
13
10
-6
-6
-11
-23
9
26
31
22
25
25
7
-2
-3
0
5
11
-1
28
37
39
22
7
7
1
13
34
24
64
66
56
42
34
38
25
31
38
47
58
54
51
39
26
23
37
21
19
37
42
45
50
29
25
16
-6
1
38
43
43
32
14
2
12
6
-7
-28
5
17
16
8
6
-7
-22
-37
-35
-15
-6
-11
-6
-4
-8
-31
-29
-24
-26
-20
-11
-14
-14
-11
-10
-13
-12
-17
-16
-18
3
-5
-5
-10
-20
-19
-26
-44
-23
-29
-19
-6
3
-14
-21
-14
1
-26
-23
-21
-14
3
4
-7
-31
-15
-13
-22
-31
-28
-3
12
-2
-3
-9
-9
-4
-19
-24
-7
-1
0
-4
-18
-19
-8
-26
-35
-25
-17
4
10
7
-4
-18
-22
-31
-27
-4
-3
1
-2
-6
-21
-29
-20
-38
-40
-37
-20
-10
5
-1
-21
-11
-11
-12
-26
-18
-5
-14
1
-8
-21
-29
-18
-15
-21
-25
-22
0
-14
-15
-25
-41
-26
-16
-34
-48
-25
29
9
-10
-9
-13
-25
-24
-19
-18
-13
-10
-2
-5
-31
-31
-25
-15
-18
-18
-12
-15
-22
-34
-23
-16
-13
-22
-15
-5
-2
2
-6
-11
-21
-24
-22
-30
-13
1
3
-11
-18
-14
-4
1
9
-18
-16
0
18
14
11
-14
-31
-16
-17
-5
3
1
-4
-5
-9
-8
-7
-28
-51
-43
-27
-6
-1
8
-7
-39
-46
-23
-29
-19
-6
-3
-10
-19
-25
-33
-24
-22
-23
-37
-20
-3
-5
2
-9
-17
-27
-38
-31
-22
-24
-20
-12
-8
-7
-25
-31
-47
-47
-44
-27
-13
-27
-34
-17
-17
-10
4
-8
12
32
59
99
113
135
160
162
151
140
120
95
77
63
48
6
-23
-42
-52
-60
-53
-36
-28
-18
0
-2
-5
-29
-40
-57
-32
-5
-10
-7
-6
-2
-1
-14
-29
-37
-33
-26
-25
-20
-5
22
-3
-21
-10
-15
-19
-6
2
-4
-2
-19
-19
-6
-15
-8
-15
1
9
0
2
-27
-17
-2
-6
-15
-8
-12
-6
-3
-3
-13
-17
-17
0
20
8
-12
14
17
10
2
3
0
3
-4
7
19
23
28
39
16
-6
2
-6
21
16
9
28
46
46
25
18
40
33
20
28
41
49
56
43
11
4
38
41
39
35
50
62
44
43
44
29
33
28
26
17
32
35
28
33
9
3
-5
3
-4
6
15
6
6
-5
-35
-5
2
-3
-9
-3
-4
-14
-10
6
0
-5
-6
-9
-42
-19
-11
-9
-9
-14
-14
-30
-29
-18
-13
-9
-8
-12
-11
-27
-40
-34
-32
-28
-18
-1
9
8
-3
1
-20
-33
-22
-24
-24
-22
-11
-10
-2
-4
4
-22
-23
-32
-28
-23
-14
-4
-15
-11
-7
-22
-14
-8
-14
-10
-4
7
-4
-3
-16
-30
-46
-19
-19
-17
9
3
2
-5
-13
-21
-20
-31
-33
-26
-13
4
13
-6
-20
-25
-28
-22
-22
-18
3
-2
-6
-12
-11
-23
-31
-19
-24
-16
-6
-4
-24
-7
6
-25
-21
-23
-19
-9
-9
-12
-19
-17
-26
-39
-29
-25
-8
-1
-3
-5
-24
-39
-24
-16
-20
-12
-6
1
1
-6
-12
-20
-61
-39
-9
-16
-19
-11
-6
0
10
0
-31
-56
-72
-46
-14
2
5
-2
-7
-18
-34
-55
-48
-18
-6
5
-4
-4
6
-2
-18
-24
-28
-40
-19
5
17
-16
-9
-1
-14
-11
-12
-11
-29
2
2
-13
3
6
-9
-27
-24
-17
-28
-23
13
20
5
-11
-24
-22
-40
-38
-24
-6
-7
-5
-12
-14
-15
-42
-46
-27
-17
-17
-18
-23
-23
-22
-23
-24
-18
-8
-10
-23
-25
-35
-15
-13
-45
-46
-45
-40
-28
-15
-17
-1
-15
-22
-31
-34
-41
-43
-40
-19
-11
-34
-37
-21
-16
-13
-2
10
23
36
64
96
115
108
115
132
142
144
139
102
98
76
41
8
-10
-39
-55
-35
-42
-16
-5
-18
-22
-19
-10
-30
-17
-21
-2
-8
-4
-7
-12
-19
-21
-30
-41
-44
-19
-6
-6
-5
-14
-5
-17
-20
-27
-31
-11
0
3
-7
2
-13
-3
-21
-40
-20
-3
-5
-7
-17
-22
6
16
-7
-10
-6
7
11
13
-9
-24
-13
-30
-51
-15
12
24
19
15
13
12
0
-8
2
3
4
3
-7
8
11
21
16
22
1
-1
18
29
30
40
42
22
4
12
13
30
39
61
48
42
27
24
29
26
23
30
54
60
60
55
48
43
23
5
15
24
21
43
44
29
29
33
10
-2
5
1
15
9
0
13
-3
-12
-37
-37
0
14
21
5
5
-9
-11
0
-20
-28
-18
-22
-16
0
-8
-21
-30
-24
-26
-35
-26
-19
-25
-36
-11
18
-3
-25
-33
-35
-18
-46
-22
4
1
1
-6
-30
-29
-32
-39
-33
-8
8
-5
-12
-3
-23
-27
-31
-10
-6
-16
-28
-18
-1
-11
-29
-31
-32
-21
-6
-4
1
-1
-3
-13
-23
-17
-29
-15
-15
-12
-6
9
-5
-19
-13
-9
-19
1
-18
-18
-1
4
-14
-22
-24
-31
-27
-28
-15
-1
-5
-11
-3
-6
-22
-25
-17
-26
-21
-2
14
1
-7
-19
-33
-16
-37
-31
-14
-7
-8
-4
-5
-18
-40
-19
-18
-17
-4
-2
-9
-11
-14
-24
-30
-42
-42
0
-1
-3
-7
0
-6
-26
-33
-37
-29
-20
-29
-33
-25
12
4
-11
-25
-22
-29
-28
-19
-5
-2
-4
-21
-29
-22
-25
-16
-4
7
1
-10
-6
-19
-14
-18
-48
-34
-9
-2
-2
-4
-4
-6
-19
-24
-24
-21
-21
2
13
17
10
-1
-18
-27
-7
-1
0
4
10
6
5
10
-9
-4
-21
-39
-34
-22
-7
1
-6
-10
-19
-31
-51
-43
-34
-4
22
11
0
-16
-21
-33
-26
-14
-14
-19
-15
-1
-3
-10
-34
-30
-32
-36
-21
-10
-8
5
-18
-22
-21
-28
-32
-19
-14
-8
-16
-18
-21
-33
-48
-52
-41
-38
-8
-4
19
45
46
62
59
78
120
143
169
166
163
151
124
94
91
78
41
4
-2
-21
-13
-10
-24
-24
-29
-24
-14
-9
-4
-15
-4
-3
0
7
-14
-24
-21
-9
-3
-6
-25
-32
-8
-18
-25
-11
-10
-19
-7
2
9
-12
-26
-11
0
-11
-22
-24
8
24
17
10
10
-1
-4
3
-29
-26
10
15
9
8
-5
-21
-27
0
2
-10
4
12
17
10
5
17
-6
-7
-9
-5
12
10
18
28
29
9
20
13
22
20
37
39
33
43
28
15
30
18
33
45
47
44
46
32
18
52
43
21
49
67
74
50
45
56
53
39
34
48
50
59
62
60
55
47
29
0
-15
14
31
44
34
38
34
19
-5
-22
0
18
17
-5
-5
11
12
3
-4
1
-14
-16
4
2
0
0
-5
-30
-20
-14
-19
-32
-9
2
0
0
-8
-10
-10
-18
-24
-24
-34
-9
8
-16
-40
-27
-2
3
-10
-12
-9
-5
-10
8
10
-4
-16
-21
-22
-15
-26
-25
-30
-6
3
18
-1
-8
-28
-25
-9
-6
-3
8
12
8
-17
-19
-29
-26
-17
-9
-7
1
9
10
-9
-17
-21
-13
-15
-8
-5
8
1
-14
-12
2
-3
4
-21
-9
-1
-5
-7
-5
-18
-26
-21
-19
-19
-10
-6
10
5
-6
-20
-33
-37
-8
-12
-1
-7
-36
-9
4
1
-8
-18
-19
-28
-14
11
-9
-19
-6
-5
-9
-16
-8
-8
-23
-10
-10
-18
1
-24
-33
-29
-4
3
0
7
-7
-15
-17
-3
-5
-8
4
-9
-15
-12
-9
7
6
-8
-42
-22
8
13
24
26
18
7
6
-8
-12
-9
-6
-4
-5
-13
8
15
-3
-19
-25
-25
-21
-4
-5
-11
0
-5
-23
-24
-24
-20
-24
-20
-14
-7
4
9
2
-30
-53
-23
-36
-30
-7
7
-9
-3
-15
2
-9
-13
-8
-23
-15
-9
-15
-19
-28
-23
-26
-26
-24
-16
-24
-14
-6
-13
-8
-4
8
2
48
83
76
90
109
142
141
152
151
140
138
127
91
69
37
23
-19
-41
-56
-54
-18
-8
-11
-13
-3
-6
-9
-8
-19
-14
-10
-5
9
32
12
-11
-24
-24
-14
-19
-23
-18
5
35
12
-27
-12
-7
-20
-16
-5
4
13
21
17
21
2
-5
-16
-11
7
17
17
20
8
-2
-12
-14
-16
-9
6
11
9
13
1
-9
-18
-36
-18
-21
5
48
52
34
28
26
19
7
3
12
14
19
29
37
40
33
21
29
28
26
30
42
49
41
34
40
31
35
35
38
38
41
74
71
66
49
25
32
31
50
39
53
58
56
58
44
34
21
38
32
44
41
29
27
51
29
13
6
3
12
25
28
14
11
9
-1
4
-9
-23
-6
13
21
8
-12
-16
-18
0
0
-20
-18
-12
-22
0
15
2
-9
-11
-10
-10
-6
3
5
-16
-17
-1
-11
-19
-13
-2
0
-2
-3
-8
-15
-8
-24
-50
-58
3
-8
-12
12
13
-5
-7
-9
-24
-11
-1
-2
0
8
19
-7
-21
-35
-36
-37
0
7
5
5
9
23
12
-10
-19
-24
-19
-3
-5
-11
-24
-19
-9
-22
0
-19
-5
-2
-7
0
-12
-21
-10
-8
-31
-26
-6
-3
19
1
-14
-2
-10
-11
-16
-19
-4
-9
-4
-1
12
8
-4
-22
-69
-68
10
13
-10
-12
-9
-4
-12
-17
-12
-16
-11
-2
9
9
-3
-8
-5
-11
-24
-15
-9
-9
-20
-7
8
14
-4
-14
-26
-2
11
1
0
5
14
9
1
8
4
-11
-9
18
20
9
-16
-17
-15
-42
-45
-36
-9
12
-13
4
0
-9
-16
-12
-25
-23
0
-7
-22
-21
-19
-15
-16
-21
-24
-14
-17
2
-13
-10
-4
-11
-35
-41
-29
-22
-9
-9
3
7
2
-29
-46
-60
-18
9
-11
-15
-12
-10
-9
-5
-27
-14
-4
43
57
69
100
125
137
146
137
136
133
130
101
69
65
69
32
-4
-29
-40
-49
-65
-42
-3
10
14
11
-7
-9
-10
0
-11
-20
-31
3
18
13
-9
-21
-18
-15
-8
1
17
2
-2
-7
-8
0
-15
-18
-3
1
-2
8
12
7
-3
-17
-19
-28
-13
8
6
14
22
19
4
-19
-21
-17
22
20
23
25
21
13
-6
-16
-9
6
19
30
23
16
18
10
-3
-9
-3
10
14
45
47
31
35
23
14
26
27
14
25
45
53
48
38
39
22
19
27
48
61
57
68
68
39
39
44
33
20
43
65
60
61
33
49
44
45
29
19
32
36
35
38
25
28
29
11
-1
1
19
25
23
23
23
8
-9
-9
6
-13
-3
7
22
15
7
2
-23
-23
-17
9
0
-2
1
13
-1
-22
-29
-27
-26
-26
-14
-5
2
-7
-2
-2
-4
2
-21
-12
-14
-7
14
-13
11
19
3
-18
-15
-18
-19
-8
-5
2
9
0
-19
-20
-27
-24
-21
-7
-11
-16
-4
-15
-26
-10
-12
-19
-17
10
20
6
3
2
-28
-29
-19
-1
9
14
4
-4
4
1
-6
-11
-14
-15
-15
-19
-17
8
6
-9
-20
-19
-13
-15
-21
-6
5
-12
-16
1
4
-13
-17
-8
-16
-5
-14
-6
-4
-13
-17
-15
-31
-13
-3
1
6
-16
-20
-12
-18
-8
-5
-9
1
-3
1
-7
-11
-6
-10
-17
-19
2
-19
-33
-1
15
2
-10
-8
-17
-19
-17
-13
13
25
30
16
-16
-14
-6
-6
-6
-5
9
-6
-5
-6
-6
-15
-22
-14
-5
7
2
-12
-4
-5
-24
-34
-42
-39
-18
-8
0
2
-7
-10
-18
-23
-24
-29
-26
-17
9
3
-10
-19
-15
-36
-27
-9
-14
-13
-2
3
10
3
-16
-26
-31
-28
-30
-25
-15
-21
-35
-19
-24
-35
-30
-23
22
49
55
85
95
107
126
141
142
140
135
141
124
94
60
56
23
-10
-37
-35
-40
-33
-9
-11
-17
-14
-9
1
-11
-11
-14
-5
6
0
-7
-24
-56
-46
-3
1
-4
1
2
-4
-7
-9
-16
-29
-26
-11
8
10
13
9
-4
-11
-19
-17
-9
-7
-9
1
21
-7
-4
6
-11
-16
-16
-13
-3
1
-12
-21
23
20
9
-2
-9
2
13
15
18
19
4
-10
-1
10
-11
-10
20
30
18
23
7
16
14
16
15
14
32
43
43
38
25
13
21
30
32
40
55
63
53
39
32
23
15
29
47
52
56
61
51
54
46
28
21
23
7
-7
5
63
57
33
34
29
10
4
5
9
11
3
-2
9
-4
-4
-23
-8
-5
8
0
-10
-20
-13
-3
-30
-6
-5
-16
-13
1
-6
-2
-2
-9
-10
-22
-26
-37
-23
-7
0
10
-24
-11
-11
-22
-37
-27
-10
-7
-41
-34
15
19
-11
-26
-26
-21
-20
6
4
-22
-11
-21
-16
-13
-9
-3
-5
-11
-3
0
-6
-17
-26
-25
-23
-12
-3
7
6
-2
-22
-32
-19
-21
-18
-26
-16
17
17
12
-9
-13
-9
-22
-43
-59
-17
22
28
15
-2
-17
-10
-11
-26
-21
-16
-6
10
-1
-6
-25
-21
-12
-21
-36
-38
8
6
-1
0
-14
-24
-34
-40
-23
-3
0
-9
-7
9
1
-15
-27
-28
-40
-25
11
15
9
3
-8
-21
-29
-31
-36
-7
-1
7
-4
-17
-25
-4
6
-41
-61
-2
26
18
0
-10
-18
-10
-16
-14
-6
-7
18
22
14
6
-10
-20
-24
1
0
0
4
11
2
-22
-27
-27
-15
-12
-17
-5
3
-33
-53
-13
-2
-9
-3
-20
-22
-14
-9
4
-23
-32
-10
-16
-23
-23
-13
-11
-8
-6
-7
-20
-40
-48
-38
-14
-5
-8
-2
-10
-20
-16
-2
-19
-45
-58
-52
-35
-4
5
-18
-22
-23
-37
-35
-18
2
14
23
48
64
68
94
102
117
117
152
168
155
137
109
77
41
24
3
-10
-21
-18
-25
-31
-29
-23
-29
-10
-7
-10
-18
-10
7
12
-3
-22
-23
-19
-23
-9
21
-10
-21
8
-5
-15
-25
-32
-28
-14
-17
-13
7
-2
-23
-20
-28
-34
-19
-3
6
3
-12
1
-21
-14
-24
-22
8
13
5
19
17
2
-2
-4
-14
-16
-26
-9
14
3
8
4
4
-3
1
-14
-3
14
15
16
15
10
-11
-4
12
7
20
25
32
30
25
17
13
34
25
36
22
32
46
42
26
49
46
41
37
26
33
38
46
45
34
43
48
35
27
21
35
24
41
43
21
28
29
18
11
20
15
14
13
19
27
7
-23
-24
-15
-13
3
3
-4
4
-1
3
-8
-17
-42
-43
-2
12
2
9
11
-16
-27
-34
-42
-35
-28
-21
-4
6
-3
-8
-25
-21
-19
-24
-22
-19
-21
-7
-9
-3
-36
-27
-17
-4
-23
-30
-14
-10
-2
0
-21
-21
-18
-27
-13
-24
-14
-5
15
-10
-26
-28
-27
-28
-21
-15
-5
7
-43
-29
-22
-17
-13
-21
-24
-11
4
6
-7
-12
-21
2
-30
-19
1
-7
-17
-8
-25
-12
-15
-11
-18
-10
-5
-16
-32
-41
-24
-19
-12
-11
-18
-8
-4
-3
-8
-17
-30
-26
-4
-23
-13
-15
-19
-9
2
-10
-18
-27
-16
-12
-4
-51
-36
-6
-1
6
-20
-35
-32
-35
-27
-15
-25
-16
-9
-14
-7
-8
-1
-16
-32
-29
-29
-15
-13
-10
-12
-18
-22
-29
-33
-21
-5
-2
-5
-9
-16
-26
-26
-48
-41
-39
-43
-14
10
6
7
-11
-10
-20
-23
-34
-33
2
15
-3
-3
-20
-31
-24
-23
-19
-11
-1
4
-3
-9
-26
-31
-19
-16
-19
-1
9
4
0
-1
-1
-15
-30
-36
-38
-27
-20
-6
-4
-12
-23
-8
-16
-23
-19
-8
-12
-16
-18
-22
-42
-31
-24
-35
-27
-18
-23
-27
-21
-31
-13
-8
-13
-19
-35
-9
-14
-17
-10
-27
-41
-36
-34
-32
-4
-9
-26
-11
0
-18
-36
-37
-38
-38
-21
-19
4
13
18
22
45
48
79
107
129
152
177
155
139
98
76
60
31
22
17
2
-17
-14
-25
-22
-16
-32
-33
-22
-5
16
3
-15
-10
-25
-29
-32
-38
-53
-29
-6
-2
3
-4
-8
-16
-17
-26
-6
5
15
2
0
-7
-14
-10
-18
-29
-33
-5
0
5
4
-8
-28
-34
-41
-28
19
2
-15
-5
5
0
-34
-25
-10
-1
5
13
4
0
9
-5
-15
-5
-6
-4
6
15
18
14
22
1
-1
5
16
18
19
21
31
33
29
22
-2
-10
8
9
45
55
38
38
33
41
36
30
15
19
37
54
60
51
44
54
38
46
18
4
36
37
36
47
40
36
21
23
8
13
17
11
24
20
22
11
-7
-4
-2
-3
2
7
10
15
-2
-27
-18
-14
-37
1
-20
-19
-11
8
0
-2
-26
-32
-34
-25
-24
-46
-15
3
-3
-17
-26
-11
-22
-22
-19
-8
4
3
-9
-22
-40
-35
-18
-4
-6
-13
-5
6
1
-16
-22
-36
-33
-45
-19
-16
-8
-4
-9
-19
-24
-24
-32
-20
-24
-8
6
-1
-15
-26
-35
-18
-18
-17
10
3
-13
-8
-14
-11
-15
-27
-24
-22
-14
-2
-3
-12
-30
-24
-10
-14
-11
-12
-7
-15
-15
-6
0
-14
-23
-19
-22
-9
5
-13
-22
1
5
-6
-17
-25
-27
-34
-12
-1
-24
-27
-17
-18
-16
-30
-31
-5
13
-4
-12
-25
-25
-23
-10
-12
-16
-12
0
4
1
-13
-13
-21
-26
-33
-34
-20
-2
9
-12
-18
-15
-30
-24
-24
-19
-17
-31
-25
-2
18
-2
-12
-23
-33
-33
-17
-1
6
-6
-14
-25
-30
-16
-32
-36
-6
4
-9
-2
-8
-6
-12
-15
-31
-36
-26
-5
-8
-8
-12
-6
-16
-10
-14
1
-12
-4
2
0
-5
-26
-22
6
0
-8
-2
5
5
15
-2
-31
-26
-29
-26
-11
-9
-18
-12
12
-9
-30
-9
-10
-11
-23
-26
-23
-13
-14
-20
-13
-31
-24
-31
-31
-38
-21
-5
-12
-28
-22
-17
-15
-15
-21
-11
-19
-23
-31
-19
-37
-21
-13
-17
-19
-10
6
-20
-15
-10
-46
-53
-50
-35
-35
-29
-10
9
29
27
29
47
62
74
100
141
150
153
143
130
104
74
58
40
19
5
-12
-36
-28
-12
-40
-38
-42
-21
-16
-11
5
-3
-14
-14
-27
-23
-11
-22
-25
-16
-1
2
-2
-10
-12
-22
-33
-31
-15
-15
1
15
-4
-9
-10
-15
-11
-3
-5
2
-9
-3
-6
-12
-3
0
-3
-9
-16
-8
13
17
13
-2
-18
-14
-4
-16
-14
20
19
19
12
-18
-27
-12
2
12
26
27
26
29
11
14
9
-3
2
7
17
33
38
37
45
28
22
22
28
25
34
36
36
36
52
27
41
25
29
36
47
68
57
53
50
46
38
17
42
46
62
59
46
39
47
24
22
21
32
30
41
29
19
26
29
12
5
-6
-10
-5
17
10
-3
14
17
-4
-25
-28
-16
15
13
-1
6
4
4
-9
-23
-16
-3
-3
-2
1
-10
-34
-6
-1
-20
-16
-9
-10
3
6
-2
0
-20
-22
-30
-17
-26
-34
-9
6
12
9
-18
-15
-27
-23
-27
-14
7
10
-4
-18
-12
-8
-23
-19
-14
6
10
11
11
9
-12
-33
-27
-17
1
15
10
2
2
11
-11
-11
-34
-26
-10
-1
0
-4
2
-7
-22
5
-5
-19
-4
1
-10
20
4
1
2
-28
-29
-15
-10
-20
-11
2
2
3
-10
-12
-21
-12
-12
2
5
9
7
0
-17
-21
-28
-16
-24
-5
-2
13
15
3
-4
-8
-27
-27
-15
5
14
13
-14
-15
-8
-16
-20
-13
-5
9
-5
-2
-3
-2
-15
-27
-18
-3
-8
-1
4
-5
-20
-5
-5
-6
-6
-12
-4
-5
7
5
9
11
-13
-25
-17
-17
-31
-30
14
22
-6
-19
-10
0
-10
-1
1
11
5
-3
-3
-4
-7
-5
-30
-29
-9
-1
30
18
8
8
-1
1
-1
6
7
-2
6
15
5
-8
2
-4
-6
-20
4
15
21
9
-14
-9
-4
-12
-18
0
6
7
-2
-12
4
-8
-25
-36
-24
-2
9
14
-2
-4
-5
-13
-15
-10
1
0
2
0
5
-5
-24
-32
-12
-11
-5
-18
-20
16
15
8
2
-7
-18
-23
-17
-14
-7
-5
4
-16
-16
-13
-16
-20
9
25
45
63
73
96
115
133
157
155
158
162
148
143
129
109
69
32
4
-23
-25
-12
12
18
14
8
11
2
-14
-24
1
-14
-4
27
19
16
23
10
-6
-15
-13
7
24
22
12
2
-6
1
1
-8
-7
1
5
8
3
1
14
12
10
14
-8
17
22
7
11
25
-3
10
8
-1
3
20
18
11
7
21
26
10
6
14
14
28
33
26
23
22
23
22
13
2
4
33
64
38
40
38
29
29
25
29
36
38
42
47
52
50
47
33
37
26
31
55
67
80
78
68
62
60
47
34
47
69
76
67
77
68
58
53
37
45
44
68
65
62
59
53
50
34
32
21
25
27
33
33
16
23
15
8
20
28
25
17
2
18
21
14
7
1
-5
-8
12
6
11
9
-1
5
6
-14
-7
9
31
30
11
14
15
3
0
-6
-1
4
0
11
12
5
3
-2
1
-5
-3
-19
8
10
22
42
2
-11
-8
-5
1
11
15
11
0
13
20
18
14
3
-8
1
6
-2
28
34
17
10
0
4
7
3
-16
-5
18
14
5
3
11
13
6
11
21
22
22
15
17
5
0
2
-3
1
10
14
16
20
7
23
13
-7
3
14
8
8
7
12
20
-4
-4
8
-28
-6
14
30
29
21
18
9
-4
-9
3
9
6
12
17
6
3
-3
-8
0
3
-11
11
23
21
14
1
-5
4
1
-21
-7
20
20
23
8
9
21
-4
-20
-17
-12
33
16
-5
-1
23
2
-5
-4
7
14
10
13
15
10
11
0
-3
1
4
-4
-16
8
13
6
5
14
1
-2
-2
12
25
6
16
9
8
-3
-8
0
23
8
-2
0
7
0
1
10
8
-4
12
18
15
14
14
19
16
1
-4
-11
-3
13
25
28
28
27
33
10
5
1
4
22
26
20
22
14
8
4
11
6
3
8
4
16
10
6
7
-4
-16
-19
0
8
3
5
11
13
8
4
-5
-9
-3
9
20
21
8
-10
-16
-15
-15
-14
-13
5
21
-5
-3
7
-1
-6
5
-3
-11
-12
4
6
0
-9
-10
-32
-32
-28
-16
-12
-27
6
38
45
36
51
69
80
109
132
156
187
186
188
158
141
126
115
82
67
41
13
-18
-10
-18
-14
-23
-15
-8
0
21
16
9
1
2
-14
-24
-2
21
17
8
0
-4
0
-14
-18
-3
-3
-2
13
7
12
23
11
-12
-13
-7
-4
-1
19
19
23
9
0
2
1
-15
-24
-25
-7
20
42
16
-5
-8
-12
1
14
38
39
11
28
22
0
11
15
11
5
15
27
30
13
12
15
26
31
15
19
37
25
48
14
11
23
15
29
32
45
50
55
64
58
48
34
37
33
31
51
64
81
87
71
64
57
47
41
48
38
32
61
68
57
65
58
48
44
34
28
40
61
45
46
43
3
0
20
10
11
34
41
33
10
7
3
-4
-1
1
-6
-5
29
22
9
-19
-20
-8
-7
-25
-9
3
1
6
24
8
-8
-17
-29
-21
0
17
13
3
-12
-12
-11
-9
-3
-9
-4
-6
-8
4
5
-14
-34
-11
-15
6
10
10
3
-1
-8
-6
-12
-26
-15
-16
-17
-6
-16
0
11
-2
-18
-19
-8
-3
7
-3
6
8
-9
-6
1
5
-9
-5
1
2
-3
-11
9
-3
-2
-16
-8
0
5
9
9
1
-15
-21
-25
-35
-30
-23
-17
8
9
8
18
4
-13
-20
-25
-11
2
8
6
-18
-12
-1
-16
-31
-19
-11
-4
-6
3
8
-9
-18
-25
-18
-12
-1
4
-7
-8
-4
-2
-27
-40
-25
-12
-9
-1
-3
0
-1
-8
-20
-14
-25
-16
-4
0
5
8
-2
-10
-22
-30
-34
-22
-12
2
1
-7
13
-4
-22
-23
-30
-31
-22
4
30
13
-12
-21
-13
-11
-15
-13
-7
4
-4
0
-1
-5
-17
-8
2
-6
5
1
9
17
5
12
-18
-23
-14
7
-4
11
-6
6
11
-4
1
-2
-8
4
20
32
11
4
5
-2
-22
-10
-10
-2
0
-2
-5
5
-5
-17
-13
-14
-17
-12
-9
-15
-10
1
-4
-12
-18
-36
-7
-6
-3
-6
5
1
-14
-24
-24
-26
-33
-25
-3
-4
7
8
-15
-8
-18
-29
-19
-10
-5
-7
-4
-10
-29
-31
-20
-26
-32
-11
11
27
42
57
59
68
101
126
151
161
163
155
148
122
88
57
34
5
5
-11
-24
-18
-14
-21
-23
-28
-16
-15
-4
2
4
9
7
-6
-19
-7
-26
-14
-4
-16
-9
-2
-5
-4
5
8
-14
-17
-2
10
16
1
1
0
-6
-2
-13
-19
-12
14
19
14
12
-6
-27
-31
-18
-7
-1
13
12
-5
-8
4
0
-1
6
10
2
10
24
32
19
12
-6
-4
-7
-8
18
14
25
26
20
19
8
1
10
14
8
15
33
51
63
36
17
15
27
16
28
33
43
68
60
48
39
41
33
24
26
47
59
64
54
41
27
34
44
31
39
40
50
48
41
38
36
26
17
19
10
8
19
30
21
11
12
-1
-13
-4
0
14
-5
-2
4
1
-5
-24
-9
-5
-8
-12
-11
-8
-6
-19
0
-9
-19
-14
-15
-18
-16
-21
-6
-10
-6
-15
-26
-22
-16
-7
-14
-2
-10
-13
-15
-21
-25
-22
-27
-15
-5
-9
-15
-12
2
-11
-20
-22
-24
-26
-11
19
20
-8
-19
-18
-30
-41
-30
-9
-3
-4
6
-5
-13
-15
-23
-18
4
3
-4
7
-16
-22
-21
-19
-12
-15
-3
-6
-2
-3
-6
-12
-18
-28
-20
-20
13
-4
3
8
-19
-38
-39
-16
-15
-5
5
15
4
-7
-9
-11
-15
-21
-30
-21
-22
-4
-6
-9
0
-11
-15
-38
-19
-13
-13
0
-5
-9
-10
-26
-25
-22
-24
-10
-6
-7
-12
7
-6
-23
-31
-23
-18
-8
-4
-1
-8
-13
-15
-20
-34
-42
-27
-3
-1
0
7
-1
-15
-24
-28
-19
-9
-23
-11
-10
2
-11
-20
-21
-21
-20
-19
-29
-15
-1
-2
0
-20
-13
-15
-12
-10
-6
0
2
8
-6
-26
-35
-18
-4
-18
-13
-10
0
6
1
-15
-23
1
0
-8
-13
2
5
9
2
-10
-8
-10
-25
-4
-6
0
-15
-18
-13
-29
-24
-10
-17
-21
-10
-6
-12
-17
-24
-26
-19
-30
-54
-20
2
-4
-17
-4
-7
-15
-21
-32
-19
-17
-12
-21
-11
-2
-5
-22
-19
-23
-26
-32
-25
-5
25
9
-7
-33
-38
-51
-51
-43
-40
-37
-9
-3
3
10
20
33
42
60
90
108
117
143
146
142
130
112
92
74
65
39
23
12
-16
-39
-36
-35
-21
-20
-21
-7
4
-8
8
-16
-33
-41
-25
-5
-2
1
5
-3
-12
-15
-26
-18
-12
-9
10
-5
7
4
-16
-24
-25
-20
-12
-19
0
0
1
8
-15
-27
-8
-7
-17
-8
5
-11
-3
-6
-13
-8
-9
-12
13
5
10
20
19
4
-11
-9
-5
7
7
8
4
7
28
2
-7
-7
-13
1
3
4
13
28
31
29
24
19
7
9
18
39
40
42
34
38
32
32
27
17
20
46
60
58
46
37
39
46
42
37
41
48
48
55
45
28
36
22
22
24
21
37
26
29
20
31
16
4
-2
-8
1
15
16
36
15
4
-7
-11
-12
-26
-19
-11
8
-6
4
-12
-12
-27
-25
-20
-9
-13
-15
-8
5
-3
-25
-37
-45
-9
0
-6
-20
-31
-9
1
-22
-30
-14
-11
4
1
-13
-17
-17
-27
-22
-22
-7
-5
-26
-19
2
-8
-20
-13
-12
-21
-26
-5
-3
-7
-3
5
-12
-23
-38
-48
-24
-13
8
14
5
-1
-9
-28
-35
-37
-19
-18
-21
4
13
-16
-22
-17
-5
-8
-3
-8
-12
-2
-5
-8
-8
-18
-26
-29
-20
-8
-7
-3
-5
1
-14
-25
-32
-32
-18
-20
-11
-19
-14
-4
-23
-23
-29
-32
-10
-11
-3
9
0
-11
-12
-23
-26
-25
-29
-35
-6
-13
-14
-5
-4
-9
-25
-24
-13
-16
-16
-15
-20
-21
-21
-17
-25
-32
-25
-18
-10
-3
-10
-10
-11
-20
-20
-29
-37
-6
12
-7
-16
-12
-21
-28
-27
-25
-30
-23
0
-13
-12
-12
-23
-26
-20
-29
-8
13
-7
-6
-7
2
6
-18
-31
-29
-27
0
-9
-5
-8
-5
0
-13
-11
1
2
-3
-9
18
3
-11
-32
-22
-8
-11
-9
-11
-17
-18
-19
-34
-29
-27
-25
-19
-6
-4
-8
-8
-2
-19
-19
-24
-32
-21
-25
-31
-13
-9
-19
-24
-13
-28
-30
-29
-36
-26
-15
-1
-2
-14
-25
-40
-45
-24
-15
-20
-12
-28
-27
-24
-37
-33
-41
-39
-25
-16
-4
-4
-7
31
23
20
46
67
86
124
148
155
163
148
111
73
61
59
38
19
4
-15
-27
-44
-42
-27
-35
-26
-14
-2
5
9
-16
-27
-37
-30
-36
-32
-32
-34
-8
16
4
-8
-18
-14
-31
-24
-5
-10
-19
-10
-12
2
-20
-24
-29
-13
2
-10
0
3
-5
-11
-20
-27
-29
-7
2
-12
3
-1
-15
-9
-6
6
-6
-8
-5
0
-1
3
-3
-11
-8
17
-12
-24
-2
15
32
24
0
13
0
-3
5
9
10
12
21
18
23
18
30
28
22
22
22
5
38
52
38
22
27
29
30
47
46
35
43
47
54
48
34
41
38
23
41
46
37
44
26
13
13
33
29
8
24
31
35
37
29
-6
-5
1
-7
-5
-1
13
15
-7
-14
-14
-20
-7
7
-6
0
-3
-15
-9
-15
-22
-24
-25
-32
-16
-7
-14
-3
1
-11
-23
-28
-36
-33
-23
-11
-11
-9
-9
-13
-22
-30
-40
-43
-36
-5
7
13
4
-25
-44
-21
-29
-35
-19
-7
1
-12
-7
0
-20
-25
-26
-13
-11
-12
-7
-10
-14
-6
-26
-26
-33
-22
-18
-14
-3
8
2
-18
-45
-30
-29
-24
-13
-5
8
-1
1
-14
-28
-25
-32
-28
-27
-19
-9
2
3
-14
-43
-37
-13
-1
-8
-12
9
-14
-20
-17
-19
-15
-34
-34
-15
-14
-19
-18
-27
-22
-27
-20
-11
-21
-9
-13
-16
-7
-12
-24
-31
-37
-11
-11
-20
-19
-14
-27
-45
-27
-24
-22
-24
-8
-8
-8
-21
-20
-31
-27
-31
-28
-17
-10
-15
-14
-19
-18
-32
-26
-26
-40
-55
-48
-2
13
-4
-18
-18
-34
-44
-43
-7
-17
-22
-12
-20
-29
-12
-13
-12
-19
-19
-3
-7
-13
3
-8
-8
-24
-27
-19
-12
-19
-12
-6
-1
2
-24
-1
-11
-9
-9
-4
-8
2
2
-16
-15
-12
-36
-26
-25
-23
-6
-18
-8
-9
-18
-30
-35
-39
-23
-12
-14
-7
-10
-15
-20
-29
-42
-45
-34
-29
-15
-17
-19
-27
-32
-32
-31
-25
-24
-18
-14
-15
-12
-16
-32
-30
-28
-29
-18
-17
-23
-33
-23
-29
-47
-53
-48
-39
-34
2
7
38
40
47
69
66
95
144
162
171
180
167
147
109
84
39
-8
-8
-24
-33
-39
-29
-21
-12
-20
-19
-16
-16
-7
-23
-9
-3
-6
-20
-37
-31
-29
-32
-13
-13
1
10
-7
-20
-23
-33
-16
-21
-4
-9
-9
2
-8
-13
-22
-29
-17
-19
-16
-9
13
8
-8
-13
-31
-22
-8
-6
-4
16
10
5
9
-4
-17
-25
-22
9
7
16
-7
-25
-25
0
8
9
-6
-1
17
13
26
28
22
12
9
9
16
18
6
18
15
30
35
36
18
31
27
33
35
47
51
34
24
39
39
36
33
36
44
56
58
55
53
43
20
11
23
60
66
59
75
49
33
24
23
10
-7
7
21
34
29
26
17
-2
-14
-27
-13
1
22
13
1
-3
-6
0
-6
-18
-18
2
-14
-28
-5
-8
-5
-18
-25
-32
-16
5
3
7
2
-6
-9
-23
-40
-40
-29
-18
-11
-9
-4
-4
-3
-15
-12
-9
-21
-26
-13
-15
-20
-18
-18
-8
-13
-15
-14
-23
-17
-9
-3
20
-7
-26
-33
-20
-16
-12
0
17
8
-11
-5
-15
-15
-22
-31
-24
7
7
-19
-26
-9
-11
-2
-15
-12
-15
-6
-15
-22
-18
-24
-29
-19
-15
-8
-14
-13
-28
-31
-18
-9
0
-8
-15
-12
-10
-5
1
-11
-19
-27
-23
-22
-19
-31
-25
3
-9
-10
-11
-21
-31
-18
-17
-18
-12
-14
-8
-7
-13
-39
-19
-25
-18
-11
-25
-24
-8
-8
-12
-21
-28
-27
-28
-24
0
4
-1
0
-18
-22
-41
-36
-44
-29
-2
-6
-10
-9
-16
-20
-23
-23
-39
-19
-7
-2
-9
-4
12
-18
-29
-26
-10
-6
4
-3
-3
-7
2
-15
-18
-7
-1
-1
14
16
-21
-20
-17
-13
-5
-7
-11
-11
-17
-3
-10
-12
-2
-34
-25
-38
-38
-17
-16
-11
-32
-18
-10
-16
-37
-34
-28
-24
-14
-23
-8
-18
-16
-29
-30
-16
-39
-46
-27
-20
-15
-18
-18
-21
-21
-20
-31
-30
0
-8
-20
-27
-28
-34
-37
-38
-47
-57
-34
2
18
-6
13
31
24
63
106
136
155
160
146
140
126
124
99
64
43
11
-10
-25
-38
-45
-33
-37
-35
-41
-23
-22
-3
1
-3
-14
-32
-34
-32
-40
-23
-23
-22
10
-8
-23
-28
-12
-13
-21
-18
-9
-12
-5
-4
-16
-21
-19
-25
-19
-11
-2
-4
-17
-7
1
-12
-20
-21
-27
-12
5
4
3
-6
-8
-22
-22
-17
-28
1
18
5
-1
5
0
-15
-12
-4
-22
-35
-19
26
21
22
14
5
4
17
7
-12
8
20
17
31
40
28
15
16
8
18
16
26
46
40
29
32
40
46
34
43
49
50
44
44
32
21
25
29
6
25
64
52
47
55
38
28
24
26
13
-16
-2
31
42
35
14
4
-1
-11
-6
2
0
1
2
-1
-30
-9
1
-15
-25
-7
-6
-9
-7
-9
-23
-32
-27
-39
-28
-16
-3
-2
-7
-9
-21
-34
-47
-51
-35
-18
-8
-3
-6
-6
-43
-11
-25
-36
-44
-28
14
19
0
-8
-15
-24
-27
-22
-22
-53
-41
-11
0
-4
-22
-13
-15
-24
-23
-22
-23
-3
-10
2
-9
-20
-20
-30
-32
-13
-36
-19
4
-6
-18
-15
-19
-11
-27
-26
-15
-7
-7
-17
-26
-36
-40
-29
3
-18
-8
-6
-6
-4
-36
-31
-24
-28
-23
-18
-12
-14
-19
-38
-9
-11
-27
-29
-18
-9
2
-3
-7
-22
-45
-33
-35
-31
-17
3
-3
-21
-25
-20
-23
-33
-26
-20
-22
-7
-5
-4
-2
-7
-34
-31
-27
-23
-24
-14
-13
-27
-14
1
-2
-27
-16
-4
5
5
3
2
0
-9
-12
-10
-15
-14
11
0
-10
10
-5
-13
-29
-37
-33
-21
-22
-14
-2
-9
-10
-19
-38
-57
-32
-21
-22
-17
-31
-24
-7
-7
-18
-30
-28
-30
-33
-22
-2
-8
-11
-15
-26
-36
-40
-28
-17
-8
-10
-11
-23
-38
-48
-36
-29
-39
-14
-11
-30
-40
-63
-59
-34
-38
-12
33
32
46
65
82
107
116
113
139
150
138
138
122
110
81
35
10
-23
-53
-41
-41
-28
-22
-19
-26
-24
-31
-34
-21
-29
-26
-33
-28
-1
-7
-6
-14
-22
-33
-32
-10
-10
-9
-12
-11
-19
-18
-17
-15
-25
-26
-9
-2
-4
4
-4
-21
-25
-28
-23
-17
-5
3
-3
-7
-2
-13
-19
-15
-12
-3
-2
11
7
8
-1
-29
-36
-26
-7
-5
3
15
14
0
-13
-12
-27
-9
9
21
27
29
27
0
6
17
14
20
22
33
27
25
17
17
23
28
22
28
29
41
44
51
51
39
30
21
17
27
31
43
55
53
66
52
25
-7
-3
29
39
39
45
47
37
25
9
-2
-6
-15
-2
20
18
16
17
3
-17
-21
-20
-13
-10
-2
-11
-5
3
-5
-22
-31
-42
-30
-12
-6
-6
-15
-17
-13
-32
-30
-30
-21
-22
-11
-9
-5
-18
-38
-22
-36
-38
-27
4
1
-21
-21
-14
-18
-32
-35
-22
-7
-12
-25
-37
-7
-2
-23
-14
-23
-27
-23
-20
-9
-5
-1
-11
-17
-23
-49
-43
-27
0
1
-21
-8
3
-14
-29
-32
-31
-33
-18
-1
-5
-3
-9
-17
-25
-37
-37
-24
4
7
0
7
-18
-32
-33
-47
-24
-17
-21
-11
-9
-14
-27
-37
-33
-13
-11
-16
-17
-3
-17
-16
-5
-15
-33
-41
-35
-39
-16
-3
-9
-10
-22
-36
-35
-32
-18
-16
-3
-11
-15
-37
-26
-50
-50
-26
-24
-21
-10
-11
-8
-8
-9
-30
-32
-21
-24
-17
-28
-31
-9
0
-5
-17
-30
-34
-18
-1
-6
-8
-2
-10
-13
-24
-17
-25
-41
-15
12
4
0
-24
-17
-23
-20
-34
-35
-16
9
-11
-5
-18
-19
-31
-34
-36
-14
-19
-16
-10
-21
-27
-32
-52
-55
-33
-28
-25
-19
-26
-18
-17
-29
-24
-17
-22
-33
-27
-24
-18
-33
-40
-29
-30
-39
-27
-32
-36
-15
-9
-14
-29
-29
-41
-40
-41
-50
-12
-9
13
24
40
50
61
96
121
142
142
151
142
129
104
77
31
3
-10
-14
-23
-28
-27
-27
-29
-26
-25
-30
-32
-26
-12
-2
-9
-3
-3
-29
-41
-53
-25
-28
-11
-19
-6
-15
-17
-20
-23
-16
-29
-30
-21
-5
-7
-13
-18
-24
-29
-30
-33
-25
-23
-36
10
7
-6
-10
-21
-20
-18
-17
-13
-6
3
-5
-14
-23
-12
-3
-1
-8
-4
-2
-19
-14
-4
-3
-4
-14
-9
1
6
6
6
-2
3
-4
-8
0
9
9
5
9
32
11
12
15
17
24
23
34
37
43
40
29
26
25
20
28
35
39
36
34
46
37
31
29
21
21
17
29
39
50
52
28
11
12
6
18
20
11
5
-8
1
3
5
10
6
-7
-15
-12
-2
3
21
0
-20
-29
-22
-19
-25
-23
-19
-7
-10
-3
-26
-28
-25
-33
-28
-23
-10
-8
-22
-21
-39
-52
-24
-24
-15
0
-6
-16
-11
-26
-34
-24
-29
-37
-28
12
13
-5
-11
-21
-28
-24
-23
-33
-29
-12
-20
-24
-17
-8
-21
-40
-22
-14
-30
-12
-2
-3
-22
-17
-19
-43
-38
-22
-17
-16
15
-8
-21
-22
-26
-16
-9
1
-10
-1
-5
-9
-7
-4
-20
-25
-19
-31
-48
-27
4
-8
-15
-19
-27
-33
-23
-22
-16
-18
-22
-2
0
-23
-29
-26
-42
-34
-12
-11
-4
-4
-33
-62
-28
-10
-28
-24
-3
-5
-4
-10
-14
-24
-26
-24
-26
-23
-14
-19
-11
-5
-24
-17
-18
-22
-33
-26
-33
-23
-15
-4
-14
-27
-21
-10
-13
-13
-15
-8
9
6
-19
-30
-10
-14
-13
-13
-7
-3
-5
-6
-10
-31
-45
-25
4
-11
-6
8
-8
-14
-15
-23
-19
-32
-42
-43
-17
-2
11
-12
-19
-25
-22
-28
-40
-31
-21
-13
-17
-16
-15
-24
-38
-46
-42
-20
-20
2
-3
-4
-16
-33
-46
-42
-37
-24
-13
-11
3
-20
-36
-44
-40
-44
-37
-34
-23
-15
-4
-6
-4
-39
10
37
61
84
96
128
148
143
149
143
113
94
81
69
52
28
2
-31
-38
-42
-35
-45
-30
-5
-1
0
-7
-7
-15
-22
-20
-14
-31
-33
-24
-19
-16
13
-24
-26
-26
-23
-8
0
-3
-7
-11
0
4
-18
-27
-32
-16
-4
7
5
-3
-10
-29
-18
-10
0
1
-18
-34
-5
8
-5
-12
-21
-8
-22
-33
4
-9
-4
5
15
2
-2
-6
-10
-11
-1
13
23
24
16
-5
2
-6
1
7
18
19
27
36
30
16
8
5
24
24
33
39
26
16
39
29
18
17
22
25
29
54
56
55
43
27
21
37
29
39
41
41
44
51
51
42
29
21
7
28
38
28
26
14
9
-4
-5
-6
-3
1
19
26
2
-17
-19
-11
-20
-13
-32
-19
-4
5
3
3
-15
-26
-24
-24
-24
-28
-6
7
-13
-12
-21
-36
-29
-15
-18
-15
-14
-17
-11
-17
-25
-19
-22
-19
-14
1
-16
-20
-16
-12
-20
-26
-32
-18
-14
-12
-8
-17
-19
-26
-18
-30
-20
-10
-5
3
2
-8
-17
-9
-15
-23
-36
-40
-31
-21
-2
-7
-7
4
-9
-29
-27
-16
-26
-18
-9
6
-6
-10
-15
-18
-12
-21
-21
-20
-2
8
-17
-19
-22
-38
-31
-22
-9
-11
-2
-6
-9
-38
-39
-32
-31
-21
-14
-13
3
-8
-16
-17
-20
-24
-29
-26
-28
-1
-10
-14
-8
-29
-33
-38
-32
-29
-22
-6
-11
-18
-12
-19
-22
-37
-20
-8
-27
-20
-16
-12
-24
-22
-21
-23
-30
-41
-35
-28
-3
-6
-11
-17
-10
-32
-33
-3
-9
-16
-14
-15
-18
-25
-30
-44
-21
-19
-22
-13
-13
1
5
-10
-18
-34
-21
-8
9
-2
14
3
-7
-8
-7
-23
-35
-36
-13
-1
10
-3
-6
-5
-25
-36
-36
-23
-16
-4
-11
-28
-17
-25
-35
-28
-28
-36
-31
-16
4
-1
-6
-25
-24
-24
-35
-29
-17
-13
-23
-29
-25
-40
-26
-29
-32
-49
-19
-9
-6
-13
-59
-62
-25
-26
-27
-35
-27
-27
-14
-26
-26
-35
-23
-12
8
19
33
53
73
84
117
134
135
138
136
121
113
97
80
51
3
-34
-42
-41
-32
-34
-29
-25
-18
-19
-21
-29
-34
-31
-10
-11
-8
6
-2
-16
-19
-35
-39
-25
-21
-7
-3
-19
-16
-15
-20
-16
-15
-20
-30
-18
-13
-7
-14
-12
-17
-16
-19
-23
-15
-15
-18
-17
-11
-18
-8
-9
-25
-36
-3
16
4
8
5
2
-6
-7
-10
-12
-7
-9
-1
11
7
-6
-6
-2
-17
-8
6
12
14
20
13
5
-4
5
23
17
12
27
41
32
43
43
17
1
13
23
39
37
44
48
46
42
33
34
27
41
41
43
46
45
49
34
28
28
34
21
15
29
63
37
31
17
-2
-12
6
21
10
-4
4
22
18
4
-5
-19
-8
-28
-32
-18
-11
9
0
-10
-11
-28
-28
-31
-22
-11
-6
-9
-6
-41
-23
-38
-37
-26
-20
-15
-3
-10
-19
-25
-28
-27
-37
-31
-13
-2
-13
-23
-9
-23
-40
-37
-27
-21
-24
-12
-11
-5
-1
-17
-38
-42
-40
-15
-23
-23
-37
-13
-6
-16
-26
-31
-13
-17
-13
-17
-6
-3
-30
-26
-10
-8
-25
-24
-18
-14
-16
-14
-16
-19
-31
-29
-23
-14
-6
-20
-15
-10
-10
-38
-38
-31
-32
-29
-22
-6
-12
-12
-15
-17
-30
-38
-13
-2
10
-12
-8
-3
-24
-41
-37
-21
-27
-20
-15
-15
-10
-16
-27
-23
-34
-35
-37
-28
-24
-27
-10
-5
-12
-20
-30
-36
-26
-13
-8
-14
-18
-21
-19
-22
-30
-35
-30
-41
-34
-4
-6
-15
-13
-40
-37
-33
-32
-46
-31
-14
-5
-2
-31
-46
-29
-27
-28
-39
-20
-7
-18
-21
-4
-19
-33
-32
-32
-24
-6
2
-8
-16
-29
-29
-34
-48
-43
-41
-28
-10
-11
-14
-18
-23
-26
-30
-28
-33
-19
-5
-9
-14
-32
-18
-23
-37
-38
-36
5
11
-10
1
-7
-8
-18
-31
-20
-17
1
-1
-16
-6
-8
-27
-27
-19
-21
-16
-13
-13
-19
-15
-21
-26
-31
-36
-48
-18
-13
-26
-15
-19
-40
-53
-61
-49
-21
-24
-15
-21
-32
-19
-35
-63
-51
-29
-25
-27
-15
-23
-24
-16
-30
-37
-44
-39
-20
-17
-14
-6
-17
-34
-41
-45
-59
-55
-43
-40
-23
-7
-1
2
2
12
34
45
74
111
139
149
136
108
94
93
84
42
30
12
-21
-29
-46
-47
-42
-58
-57
-37
-45
-24
-8
-13
-21
-21
-30
-33
-36
-28
-19
-12
-16
3
-2
-52
-34
-22
-25
-33
-34
-18
-18
-10
-1
-12
-23
-26
-23
-26
-9
-2
-16
-30
-18
-21
-16
-6
-13
-6
-3
1
-7
-10
-11
-16
-14
-12
-24
-22
-15
-8
-7
2
-3
-9
-16
0
-6
-16
-17
-20
21
21
16
2
-8
-17
-22
-2
12
11
12
40
19
4
-4
9
19
12
20
27
33
39
23
13
15
22
25
29
29
38
48
51
45
7
1
29
28
35
34
22
27
29
26
23
15
-3
-1
8
26
40
29
18
7
-5
-11
-6
-8
-3
-5
-3
8
-1
-14
-12
-9
-13
-16
-11
-13
-13
-9
-12
-21
-25
-23
-31
-29
-27
-46
-54
-21
7
1
-26
-32
-19
-17
-23
-16
-15
-16
-16
-33
-37
-30
-22
-30
-24
-1
-10
-9
-19
-20
-27
-19
-22
-27
-27
-33
-20
-15
-11
-25
-51
-47
-35
-8
-24
-15
-5
-7
-11
-10
-26
-44
-42
-34
-25
-4
4
3
4
-15
-30
-37
-25
-32
-29
-16
-4
-6
-12
-25
-20
-27
-39
-27
-11
-9
-10
-21
-22
-19
-25
-29
-25
-26
-31
-28
-27
-17
-12
-18
-26
-34
-21
-15
-26
-14
3
-6
-33
-23
-18
-44
-39
-24
-14
-10
-19
-23
-30
-22
-8
-22
-18
-21
-13
-15
-19
-31
-29
-43
-25
-52
-44
-22
-9
-24
-6
-7
-12
-21
-31
-40
-27
-18
-35
-27
-17
-26
-24
-22
-36
-41
-19
-18
1
-9
-11
-16
-21
-26
-34
-34
-29
-14
-13
-13
-20
-22
-24
-47
-38
-31
-37
-19
-13
2
7
-3
-18
-12
-19
-33
-42
-19
0
-12
-34
-14
-12
-26
-28
-22
-11
-9
4
-8
-7
4
-6
-15
-20
-13
-20
-17
-7
-24
-31
-15
-23
-14
1
-16
-22
-21
-22
-35
-22
-25
-22
-34
-23
-17
-16
-13
-11
5
-20
-34
-59
-48
-17
-18
-25
-32
-22
-4
-17
-23
-27
-37
-56
-16
-16
-19
-21
0
-22
-25
-32
-34
-32
-31
-15
-11
-14
-29
-29
-28
-55
-58
-36
-18
-4
10
10
25
48
64
78
81
90
79
108
131
131
109
100
93
54
26
-6
-25
-29
-26
-13
-8
-32
-33
-30
-18
-28
-27
-18
-20
-19
-5
4
-30
-31
-22
-26
-25
-9
-7
-13
-6
-20
-24
-28
-28
-29
-28
-10
3
-4
11
5
-20
-39
-42
-37
-13
-9
-5
-2
1
-5
-7
-23
-34
-36
-17
24
22
-4
-9
0
-18
-16
-20
-11
-6
-3
20
10
8
-4
-8
-6
-10
-9
1
-15
-18
-8
10
19
25
13
4
1
5
16
21
28
27
16
17
17
26
4
21
26
37
43
48
46
36
36
26
18
14
29
48
59
54
49
41
27
11
20
34
44
35
27
32
41
29
14
15
14
12
0
-1
17
13
-2
4
-1
-11
-2
0
1
-8
2
2
-12
-4
-10
-11
-18
-15
-7
-11
-5
-16
-27
-15
-41
-26
-10
-15
-16
-7
-6
3
-5
-35
-25
-15
-34
-17
-8
-9
-12
-10
-14
-26
-29
-28
-27
-15
-14
-7
-7
3
5
-16
-17
-27
-20
-5
-8
-16
-6
-3
-24
-26
-22
-33
-17
7
0
-9
4
-6
-4
-29
-35
-26
-13
-14
-24
-11
8
-2
-13
-16
-17
-18
-18
-15
8
20
9
-4
-14
-33
-37
-44
-24
3
11
1
7
-6
-9
-17
-14
-19
-29
-5
9
-4
-5
3
-10
-45
-34
-18
-19
-9
-15
-11
-21
-13
-13
-26
-29
-24
-25
-3
3
-2
-3
-7
-24
-21
-24
-43
-33
-19
-5
-2
-3
-19
-9
5
-5
-16
-17
-10
-10
14
8
1
-19
-29
-33
-25
-19
-21
-6
-10
-19
-15
-11
-19
-24
-30
-44
-21
1
14
-4
-25
-35
-14
-7
-6
8
5
10
19
1
-25
7
10
-15
-13
-1
3
7
2
7
4
-4
-17
-21
-28
-26
-4
37
27
15
-4
-9
-7
-3
-11
-19
5
-2
-7
-10
-9
-20
-25
-11
-10
2
22
2
-34
-13
-11
-15
-22
-28
-30
-9
-9
-9
-6
-3
-9
-14
-27
-34
-41
-29
-4
-19
-43
-15
11
10
-37
-32
-14
-3
-2
-11
-15
-15
-16
-24
-45
-43
-25
-12
-2
7
20
33
34
28
50
100
124
146
153
155
163
139
82
59
54
42
3
-8
-34
-35
-33
-22
-35
-24
-9
-4
-17
-8
-2
-1
-6
-11
-12
-19
-21
-24
-9
-17
-5
-9
8
7
-22
-19
-17
2
-11
6
7
9
4
2
-1
-15
-20
-15
-10
-6
13
18
14
-4
-1
-1
-7
-3
-4
1
2
11
16
-1
-1
-18
-15
-2
14
41
18
7
11
22
4
8
1
3
9
30
25
29
18
23
10
2
13
23
23
44
38
33
31
31
9
5
32
43
39
30
40
45
51
40
47
50
50
38
45
60
75
49
28
46
48
39
48
70
75
58
54
42
44
37
16
23
18
14
31
26
30
40
13
3
-4
21
11
1
17
29
16
1
-1
14
-1
-23
-7
-11
-2
-3
4
6
5
-15
-30
-25
5
-17
3
9
-6
-3
-9
-12
-15
-33
-28
-21
1
31
10
-7
-13
-28
-25
-31
-23
-7
17
15
9
4
6
-6
-15
-18
-20
-14
-1
2
21
19
-11
-21
-20
-20
-30
-22
0
-5
-2
3
2
-6
-25
-18
-21
-15
4
14
17
-7
-19
-10
-24
-13
-5
-16
6
14
19
3
-10
-10
-4
-13
-18
-9
-6
-10
4
2
5
-9
-21
-27
-18
-22
-34
-12
10
17
13
-7
-12
-17
-21
-27
-3
0
-6
-1
-10
2
-3
-21
-26
-10
-12
-13
-1
0
-5
-12
-19
-24
-28
-8
13
-5
-16
-4
-13
-15
-25
-46
-24
10
8
3
-13
-23
-10
-29
-23
-1
-7
-7
16
10
-3
5
-10
-16
-16
-13
-20
-10
-2
50
16
-8
0
-15
-19
-8
8
18
15
14
14
7
-6
-10
-8
-14
-25
-17
-16
0
2
-8
-17
-16
-13
-15
-6
-12
-10
1
-5
-24
-19
20
-26
-33
-17
-13
-2
-29
-39
-31
-30
-24
-6
-4
-12
-7
0
6
-2
-19
-23
-35
-52
-45
-24
0
7
-10
-29
-24
-14
-15
-24
-18
-29
-25
-9
-19
-21
-22
-6
-8
-5
0
31
51
57
80
119
153
152
124
107
106
105
97
78
60
21
-20
-48
-38
-31
-35
-22
-9
-5
-7
-5
-4
-15
-17
-28
-21
-7
-2
-8
-5
-10
-22
-20
-20
-14
-3
-2
-8
15
-8
-16
-19
-5
-26
-20
-24
-15
4
2
1
-1
-8
-9
-25
-28
-10
6
9
9
7
-2
13
1
-26
-30
-10
26
0
9
9
0
3
-5
-8
-14
-13
13
5
7
32
11
1
2
-4
-5
2
13
13
20
9
30
23
10
14
10
31
30
33
34
36
25
27
29
16
24
20
44
66
56
54
55
31
31
30
25
16
53
53
56
51
48
31
14
7
7
21
51
42
45
31
25
9
2
-3
-4
6
11
-6
1
11
19
-8
8
-9
-11
-8
-5
-2
-5
-1
2
-14
-11
-29
-18
-2
9
-10
-14
-19
-21
-21
-14
-12
-13
-9
-13
-7
-4
-19
-28
-17
-20
-22
-13
-24
-2
-2
3
-12
-26
-27
-28
