21
27
23
13
-25
-38
-28
-24
-14
5
16
21
14
6
-14
-28
-30
-21
-8
13
25
23
10
1
-15
-26
-34
-26
-15
7
22
25
14
-1
-22
-44
-36
-21
-8
7
19
18
16
-1
-21
-28
-30
-23
-3
14
25
26
9
-5
-22
-29
-25
-9
5
19
21
22
19
1
-24
-26
-21
-12
2
22
26
21
11
-9
-26
-33
-34
-34
-18
2
11
6
-3
-22
-38
-43
-39
-29
-13
8
13
7
-2
-28
-51
-49
-39
-30
-13
3
4
-2
-8
-25
-41
-47
-42
-36
-15
0
4
-1
-9
-24
-32
-48
-50
-38
-17
-4
4
-6
-17
-36
-58
-61
-44
-20
17
46
64
68
73
76
80
100
131
144
162
165
154
117
81
36
-5
-39
-54
-54
-31
-17
-4
1
-8
-35
-59
-53
-48
-35
-11
2
0
-7
-12
-34
-48
-47
-38
-22
-7
1
-3
0
-11
-37
-47
-46
-27
-21
-4
9
9
-3
-18
-31
-36
-36
-31
-16
3
16
6
1
-9
-28
-43
-38
-25
-10
8
16
14
8
-7
-28
-37
-32
-19
-3
16
24
23
13
-3
-24
-33
-22
-5
9
20
31
29
25
5
-15
-20
-15
1
23
38
43
38
36
18
1
-1
8
16
39
54
65
55
42
21
13
5
11
23
37
54
63
56
46
22
7
1
16
22
35
35
42
34
28
3
-11
-18
-17
-6
14
19
28
22
7
-15
-31
-34
-25
-21
-5
9
12
9
-4
-29
-45
-51
-36
-20
1
6
-3
-2
-5
-31
-47
-55
-44
-30
-10
4
7
-1
-9
-30
-46
-45
-33
-22
-1
5
7
-4
-10
-32
-44
-44
-35
-21
-1
16
13
0
-11
-33
-55
-44
-31
-12
8
18
9
-4
-14
-30
-40
-37
-27
-15
2
14
14
12
-6
-26
-39
-34
-28
-10
7
14
13
8
-8
-28
-38
-32
-18
-2
19
27
21
12
-5
-20
-33
-35
-22
-15
1
6
4
-4
-27
-45
-48
-49
-41
-18
2
9
-4
-13
-28
-46
-48
-47
-36
-18
-1
8
7
-14
-35
-47
-52
-45
-36
-14
-2
8
-5
-15
-39
-52
-55
-47
-42
-20
-5
1
-6
-17
-36
-47
-50
-50
-46
-22
-7
-1
-4
-14
-40
-57
-52
-34
-17
18
38
46
64
79
77
77
89
116
130
139
143
128
99
65
21
-25
-53
-68
-62
-37
-20
-19
-24
-26
-41
-49
-45
-31
-26
-7
1
5
-5
-19
-35
-40
-42
-41
-32
-9
4
11
1
-14
-41
-53
-46
-36
-22
1
12
6
-5
-15
-35
-44
-40
-32
-19
2
15
6
-1
-11
-30
-44
-42
-26
-16
8
16
13
10
-4
-18
-30
-34
-28
-9
11
22
17
11
-3
-26
-29
-21
-12
-3
15
31
28
24
0
-10
-20
-12
2
26
38
41
40
33
15
2
-1
10
16
36
51
60
60
46
22
10
2
10
19
34
52
58
48
40
18
0
-5
2
10
30
37
45
35
20
-2
-15
-22
-14
-7
16
22
26
15
4
-17
-29
-41
-38
-28
-7
9
14
2
-9
-30
-49
-46
-36
-36
-9
5
7
-2
-13
-33
-47
-51
-41
-28
-7
6
8
-1
-12
-32
-42
-36
-27
-15
-6
2
8
-6
-23
-35
-45
-44
-34
-19
3
8
10
-8
-16
-36
-45
-40
-30
-18
0
8
7
-8
-18
-32
-45
-38
-32
-14
5
6
6
4
-17
-43
-51
-45
-34
-21
-3
7
0
-7
-22
-40
-45
-39
-31
-18
-7
5
0
-12
-24
-39
-53
-46
-31
-12
1
2
0
-9
-25
-39
-50
-45
-29
-12
2
12
8
3
-18
-41
-49
-40
-28
-16
5
13
0
-6
-22
-35
-36
-28
-15
6
11
16
9
2
-19
-34
-38
-28
-29
-6
4
7
-1
-9
-28
-47
-54
-43
-37
-12
-1
4
-4
-15
-35
-41
-48
-45
-35
-19
-1
0
-2
-10
-33
-53
-58
-47
-35
-7
2
-3
-12
-23
-40
-52
-54
-45
-32
-8
5
5
-5
-19
-40
-54
-52
-41
-33
-28
-15
-11
-11
-9
-14
-14
1
33
66
99
125
154
160
143
120
103
87
71
58
54
28
2
-31
-52
-68
-76
-66
-60
-37
-10
1
4
0
-22
-45
-50
-49
-40
-23
-4
8
3
-11
-23
-41
-43
-40
-36
-20
-16
-3
0
-10
-23
-42
-51
-45
-31
-15
3
7
8
-2
-20
-37
-46
-40
-27
-10
7
13
8
-1
-14
-35
-45
-31
-20
-3
14
18
11
1
-16
-29
-32
-29
-25
-5
12
21
19
8
-17
-26
-30
-19
-6
18
30
30
23
16
-1
-8
-11
-1
0
27
49
49
45
36
8
0
-1
4
23
45
55
56
42
29
15
3
2
10
19
40
50
52
45
27
0
-14
-8
-2
2
28
36
34
23
12
-19
-28
-26
-16
-7
11
19
18
6
-4
-25
-38
-42
-29
-20
7
19
9
3
-9
-34
-47
-48
-38
-13
6
7
1
-4
-12
-42
-46
-44
-33
-16
2
9
9
2
-16
-34
-46
-38
-27
-17
0
12
15
-1
-19
-34
-38
-39
-29
-14
4
15
13
5
-17
-34
-35
-32
-31
-9
5
14
9
-2
-13
-33
-39
-31
-21
-7
4
14
7
-1
-19
-35
-38
-26
-18
-6
10
16
16
-4
-22
-44
-44
-33
-27
-4
3
12
4
-3
-21
-35
-40
-30
-17
3
19
23
10
0
-17
-26
-29
-26
-17
2
18
21
15
3
-20
-30
-22
-17
-11
1
21
29
15
9
-10
-26
-28
-20
-10
8
16
21
11
-5
-31
-42
-46
-39
-26
-5
6
6
4
-11
-32
-41
-40
-33
-21
5
14
11
0
-12
-38
-50
-52
-42
-27
-5
11
8
-3
-16
-32
-45
-39
-34
-28
-7
9
10
3
-16
-45
-60
-50
-44
-26
-6
2
-5
-15
-30
-46
-44
-33
-13
13
44
70
81
83
86
100
122
131
137
145
148
136
106
73
30
-21
-57
-68
-52
-26
-7
-1
-3
-9
-18
-29
-44
-39
-30
-16
7
7
-2
-13
-26
-40
-44
-38
-32
-3
8
8
-4
-6
-22
-38
-42
-32
-26
-4
8
13
8
-1
-21
-35
-37
-32
-22
0
11
23
11
1
-17
-29
-40
-33
-19
5
17
21
19
12
-12
-30
-27
-27
-13
15
29
30
19
12
-8
-20
-20
-8
-2
22
36
43
36
21
2
-9
-7
5
16
42
55
58
46
33
19
11
5
11
29
52
64
63
64
51
24
13
5
23
38
57
69
69
59
44
24
9
16
16
26
44
56
50
35
22
-3
-10
-6
2
10
25
33
25
17
5
-14
-28
-30
-17
0
19
29
18
6
-6
-30
-40
-31
-21
-5
8
15
15
4
-14
-33
-38
-37
-24
-5
13
17
14
5
-12
-34
-35
-29
-30
-10
10
19
17
4
-17
-31
-37
-29
-13
2
14
15
11
7
-13
-27
-35
-27
-18
4
24
23
11
3
-17
-29
-33
-24
-18
2
23
25
16
5
-14
-29
-29
-22
-16
7
15
18
8
7
-18
-31
-37
-30
-14
5
14
17
8
2
-21
-33
-36
-29
-22
4
21
31
14
-10
-25
-36
-33
-26
-17
3
17
22
12
3
-20
-33
-29
-21
-11
15
28
16
8
-2
-22
-28
-24
-12
6
21
28
31
19
1
-20
-30
-28
-22
-12
10
24
18
-5
-17
-34
-43
-39
-33
-16
2
14
8
-3
-18
-36
-43
-46
-25
-9
3
7
7
-7
-27
-41
-46
-42
-33
-15
4
8
1
-11
-25
-43
-48
-40
-32
-10
4
16
2
-14
-30
-42
-51
-45
-31
-18
-5
5
8
6
-8
-15
-7
18
45
78
118
144
168
169
148
131
110
93
83
76
60
34
8
-24
-50
-59
-63
-48
-35
-10
11
14
9
-4
-15
-35
-49
-39
-21
1
16
13
0
-7
-30
-37
-38
-32
-24
-3
13
16
6
6
-16
-39
-39
-23
-17
7
19
20
11
4
-21
-31
-33
-24
-7
14
28
29
19
4
-17
-26
-28
-22
-16
14
25
20
16
7
-14
-22
-23
-12
3
21
29
35
25
12
-9
-14
-7
-3
18
33
44
41
37
22
4
-3
1
9
34
52
60
61
52
39
22
10
11
19
40
59
68
61
52
39
22
10
8
25
41
59
63
55
48
31
9
1
6
10
18
36
47
39
22
7
-12
-21
-16
-4
21
30
29
18
6
-25
-36
-36
-32
-28
-5
10
17
10
0
-20
-33
-38
-33
-21
2
11
12
6
-3
-22
-37
-37
-34
-25
-1
12
15
2
-5
-22
-41
-40
-28
-24
-10
5
16
-1
-7
-30
-39
-38
-29
-24
-1
16
19
6
-3
-23
-38
-39
-31
-17
3
11
12
0
-7
-26
-37
-40
-29
-15
8
29
27
4
-20
-37
-46
-42
-26
-15
2
8
12
-3
-9
-27
-40
-39
-29
-18
0
11
7
-1
-10
-34
-47
-38
-30
-18
-4
9
9
-2
-18
-37
-41
-38
-28
-7
4
19
10
-9
-25
-42
-40
-33
-26
-8
5
15
14
4
-14
-33
-40
-33
-17
-2
11
21
17
11
-7
-26
-33
-23
-20
-4
11
21
15
-4
-21
-41
-48
-36
-32
-11
10
11
-3
-13
-27
-43
-48
-35
-31
-19
0
6
0
-8
-34
-42
-47
-38
-31
-9
0
7
1
-10
-32
-43
-47
-42
-34
-9
-2
6
0
-3
-28
-48
-54
-44
-31
-13
-6
3
-8
-20
-47
-55
-57
-46
-29
6
38
50
57
60
46
62
91
124
149
170
173
159
135
99
55
16
-14
-31
-39
-27
-16
-14
-20
-31
-41
-52
-43
-30
-17
3
8
9
1
-11
-30
-32
-39
-34
-22
-1
15
17
5
-12
-39
-45
-39
-25
-13
7
14
11
2
-10
-27
-31
-29
-24
-3
20
24
14
-2
-9
-24
-33
-35
-25
-4
13
22
21
9
-1
-23
-30
-23
-14
3
25
33
28
22
0
-24
-21
-17
-12
8
30
36
36
31
6
-5
-6
2
5
23
36
48
45
41
11
7
4
9
20
42
55
63
60
52
34
19
16
18
20
49
65
68
61
53
33
16
6
12
18
44
59
60
48
38
14
4
-6
0
2
23
33
32
26
17
-9
-22
-24
-18
-12
9
23
27
16
6
-21
-28
-34
-22
-13
6
17
22
5
-12
-27
-32
-38
-30
-17
6
20
20
6
-10
-28
-28
-29
-26
-14
1
15
12
3
-8
-24
-35
-32
-14
-6
7
18
18
9
-6
-25
-36
-31
-20
-2
10
20
21
12
-7
-25
-30
-26
-18
5
19
19
16
7
-12
-27
-34
-30
-17
1
15
28
25
9
-10
-28
-29
-28
-21
3
16
19
19
12
-3
-17
-39
-34
-20
4
20
24
19
10
-17
-34
-34
-27
-15
6
17
16
8
7
-12
-36
-41
-29
-19
2
18
21
14
6
-11
-22
-23
-22
-17
6
21
24
14
7
-15
-28
-29
-16
-5
10
26
29
16
11
-3
-18
-17
-10
-2
17
29
27
23
13
-12
-26
-28
-22
-12
3
19
21
11
-2
-19
-31
-31
-16
-5
3
12
12
2
-2
-22
-35
-30
-27
-21
-5
13
13
2
-3
-22
-39
-33
-30
-19
-1
18
15
4
-9
-31
-41
-41
-29
-11
9
24
16
-11
-19
-37
-49
-45
-38
-22
-1
13
22
28
27
22
33
54
73
105
155
186
186
172
145
112
82
64
44
30
15
2
-11
-22
-40
-48
-44
-42
-25
4
6
11
10
-1
-17
-34
-38
-33
-22
-1
17
22
24
12
-11
-22
-38
-29
-16
1
14
21
17
12
-8
-20
-24
-23
-19
10
33
29
11
0
-13
-25
-27
-20
-10
8
27
30
21
14
-5
-26
-22
-14
-7
19
33
39
28
14
-8
-18
-15
-4
2
26
41
37
23
21
5
-7
-6
4
16
34
45
51
47
33
11
4
7
17
28
48
65
68
59
51
32
21
17
22
38
61
71
69
59
50
28
19
19
26
37
54
65
66
53
38
14
4
5
12
27
48
46
38
26
17
-2
-17
-12
-7
6
23
32
24
14
1
-11
-22
-22
-13
-5
14
26
16
4
-10
-28
-38
-34
-17
2
17
26
20
7
-10
-23
-29
-27
-18
1
15
21
18
16
-11
-28
-17
2
17
28
12
5
-11
-19
-26
-19
-12
1
18
27
26
16
-12
-18
-31
-23
-13
8
26
37
25
12
-10
-26
-31
-20
-3
13
20
30
19
11
-8
-23
-24
-17
-6
14
23
27
22
12
-12
-20
-23
-18
-13
10
23
29
21
7
-13
-26
-27
-19
-11
9
24
21
20
12
-10
-28
-32
-29
-10
13
24
22
15
-2
-18
-28
-27
-14
-7
17
27
25
21
2
-17
-33
-33
-25
-8
15
22
20
15
3
-20
-28
-25
-18
1
20
35
28
23
-3
-18
-24
-20
-10
2
23
29
24
22
4
-11
-20
-13
4
9
18
29
31
30
15
-6
-11
-9
-2
19
25
33
25
18
-1
-18
-27
-21
-10
8
19
27
23
8
-11
-23
-27
-22
-11
3
21
27
16
16
-12
-34
-31
-23
-15
7
24
29
21
6
-17
-26
-32
-22
-7
12
15
24
16
5
-15
-23
-31
-24
-15
1
13
18
11
2
-29
-39
-29
-12
10
46
70
85
93
100
102
117
142
155
158
172
175
162
130
95
39
-14
-33
-44
-37
-9
8
13
15
7
-16
-25
-27
-12
-2
17
33
27
19
3
-18
-25
-25
-17
-3
18
27
29
21
12
-12
-22
-17
-9
5
31
40
40
20
4
-9
-20
-15
-5
8
25
37
35
22
14
1
-14
-14
1
15
31
39
40
31
13
-7
-10
-5
2
13
33
41
43
35
21
5
1
3
11
25
45
59
52
46
30
16
4
13
22
43
60
71
69
62
44
28
25
30
49
63
72
75
78
75
53
36
35
42
49
70
85
87
84
78
52
37
28
33
39
64
75
76
60
55
32
15
6
14
22
42
53
56
49
40
18
0
-9
-2
3
28
49
40
24
19
3
-15
-14
-11
0
23
35
34
26
16
-4
-15
-16
-6
2
14
27
33
14
15
-6
-22
-20
-9
0
25
32
32
24
14
-11
-20
-16
-4
3
20
37
31
22
16
-9
-16
-15
-7
7
31
51
44
22
7
-13
-15
-14
1
10
29
36
36
26
11
-6
-13
-12
-2
15
31
42
41
34
14
-12
-16
-15
-6
12
31
37
32
23
8
-8
-19
-17
-5
12
31
37
30
27
9
-13
-18
-17
-11
12
32
41
31
20
2
-10
-21
-16
-3
14
31
37
32
18
-1
-9
-15
-6
-6
13
30
37
21
16
-3
-17
-22
-4
3
17
25
28
23
19
-2
-19
-27
-13
-4
18
33
35
26
22
-2
-18
-16
-9
-5
17
33
35
25
18
-3
-13
-13
-6
10
30
41
37
24
12
-3
-2
-4
-4
6
30
48
48
41
30
9
-4
-6
3
11
34
38
41
30
18
-9
-19
-18
-8
3
22
38
35
24
5
-10
-19
-21
-10
2
20
35
39
26
5
-15
-19
-12
-3
10
25
29
29
23
12
-8
-18
-20
-13
10
21
33
36
20
3
-15
-21
-14
-8
8
21
27
25
20
6
2
9
25
39
70
108
129
148
163
174
167
159
151
152
157
142
117
81
40
-1
-34
-46
-34
-19
4
25
37
37
30
14
-10
-15
-7
2
18
33
38
35
24
5
-10
-11
-2
2
21
36
46
37
29
8
-6
-10
2
10
40
47
42
25
24
8
-3
-9
3
14
32
45
50
43
35
13
-2
0
10
11
34
52
52
45
35
8
-3
-2
15
25
49
57
54
53
37
16
12
10
16
31
52
67
67
57
48
35
21
21
31
46
64
76
80
78
69
51
36
38
48
61
82
96
95
87
75
46
34
42
51
66
84
97
93
85
69
45
35
32
46
58
61
64
72
63
43
26
11
13
28
38
53
57
51
44
20
-1
-5
0
8
21
32
43
36
29
12
-4
-10
-8
1
21
35
43
35
28
10
-18
-20
-17
0
23
22
33
30
22
3
-12
-12
-3
2
16
31
37
33
26
14
-14
-26
-16
-2
21
40
41
28
19
1
-8
-8
-7
-1
17
35
39
34
26
7
-12
-12
-6
-3
20
31
33
30
23
1
-6
-8
-6
1
24
36
43
36
31
-5
-21
-21
-13
2
24
33
33
27
21
-2
-15
-18
-13
3
27
36
34
23
16
-7
-19
-18
-3
10
26
35
30
23
14
-8
-16
-18
-12
2
25
37
33
21
7
-11
-19
-15
-6
2
27
38
34
27
12
-9
-30
-20
-5
10
27
34
33
24
7
-6
-11
-4
2
16
28
38
38
28
9
-5
-12
-4
5
28
48
49
35
33
10
-5
-9
-8
0
25
34
37
25
14
-4
-19
-22
-21
-22
12
27
29
27
17
-6
-19
-23
-16
-4
11
26
30
23
15
-3
-16
-26
-19
-6
21
32
26
18
15
-3
-25
-27
-16
-7
15
19
21
20
10
-11
-23
-28
-23
-13
11
21
26
14
15
2
1
3
31
53
95
123
144
160
175
157
137
119
118
107
112
98
66
34
-2
-40
-60
-51
-38
-19
5
26
31
22
12
-8
-13
-14
2
4
22
33
34
20
11
-10
-16
-14
-7
6
30
39
35
25
12
-7
-14
-5
-2
10
30
43
39
33
21
-4
-14
-15
-2
12
38
49
43
32
15
1
-7
-5
10
28
42
48
46
30
14
3
-4
5
15
35
50
56
64
49
21
3
-2
12
25
42
53
57
59
53
34
21
20
27
40
59
76
82
69
69
52
38
34
44
54
71
87
96
91
79
52
39
35
47
62
79
96
100
81
62
49
36
31
39
45
55
67
73
60
53
29
17
11
15
22
42
52
52
39
31
6
-7
-7
4
16
29
38
45
36
18
-7
-16
-16
-6
8
31
34
29
26
17
-5
-19
-20
-8
1
22
36
33
26
11
-10
-20
-10
-3
14
26
31
32
22
16
0
-13
-14
0
10
27
39
37
31
16
-6
-15
-11
-2
15
35
51
44
30
10
-14
-18
-12
-2
6
30
43
40
25
10
-3
-14
-11
-3
14
31
37
35
27
10
-8
-16
-8
-1
14
33
42
33
11
-1
-9
-17
-5
-1
19
26
33
29
17
1
-14
-17
-14
-7
13
32
36
25
12
-6
-16
-18
-10
-8
15
27
35
29
20
-1
-17
-19
-12
-7
17
30
37
34
28
3
-12
-24
-18
-8
24
35
34
29
23
-2
-14
-15
-10
2
19
36
38
31
23
2
-10
-16
-12
3
26
38
41
36
28
6
-4
-3
4
11
34
50
46
29
17
-4
-14
-14
-11
0
20
28
32
22
7
-11
-16
-8
-10
-1
14
28
31
22
11
-10
-22
-26
-17
-3
14
37
39
27
-3
-27
-35
-29
-17
1
20
28
24
15
1
-15
-26
-21
-14
3
21
23
21
16
-6
-30
-35
-29
-16
20
51
72
77
84
80
89
105
133
156
172
183
181
159
120
82
38
6
-14
-38
-23
-1
11
9
3
-10
-19
-18
-16
-8
12
25
33
27
14
-7
-23
-23
-17
-7
20
24
26
21
16
-5
-19
-23
-16
-7
20
36
40
23
12
-2
-11
-20
-14
-4
20
38
41
20
15
2
-12
-17
-6
6
30
42
43
34
23
1
-14
-13
-6
7
35
45
46
37
27
8
0
1
10
17
42
51
52
47
40
16
5
4
15
30
54
68
73
64
53
30
18
19
33
48
69
80
81
66
55
37
31
36
40
50
72
92
86
73
61
36
27
27
39
52
67
73
70
57
38
16
8
15
22
28
39
50
45
36
17
-4
-13
-7
3
23
33
38
28
19
7
-12
-23
-19
-7
6
28
36
29
19
-8
-22
-26
-18
-10
9
24
30
22
14
-4
-10
-17
-17
-17
4
16
27
18
13
-5
-19
-22
-13
-7
15
28
32
19
18
0
-17
-20
-13
-5
21
30
22
23
15
-5
-19
-18
-17
-7
19
37
41
26
26
3
-20
-23
-20
-7
18
32
36
23
10
-6
-21
-23
-9
2
21
34
35
27
18
-5
-20
-19
-9
4
28
28
31
17
8
-16
-26
-21
-14
4
22
32
37
26
2
-15
-19
-20
-11
3
22
33
32
23
8
-12
-19
-15
-8
2
19
30
27
23
11
-7
-21
-25
-13
7
26
34
30
13
1
-17
-21
-12
-3
10
27
35
28
21
5
-9
-21
-11
3
22
34
41
27
25
9
-8
-13
-7
6
26
42
55
47
36
15
-7
-13
-11
-1
18
32
38
33
22
-1
-18
-24
-21
-8
12
30
34
28
14
-9
-24
-25
-20
-10
14
34
38
22
15
-10
-26
-23
-16
-7
9
24
33
25
12
-15
-30
-24
-19
-10
17
27
28
19
13
-11
-28
-28
-19
-13
7
19
20
17
14
-4
1
11
37
66
100
132
155
177
187
166
150
141
139
124
124
110
79
37
-5
-36
-47
-41
-24
-10
18
31
36
26
7
-4
-19
-19
-12
-4
19
35
39
30
10
-14
-29
-23
-11
7
29
36
28
25
11
-6
-17
-10
0
12
32
40
31
27
12
-9
-20
-14
-1
18
38
45
38
28
11
-9
-15
-8
3
20
38
44
34
29
14
-1
-7
1
10
29
41
51
48
43
25
4
-1
6
19
38
56
62
53
50
30
20
17
25
31
53
71
81
75
66
48
38
33
31
44
75
88
88
79
73
49
36
40
46
48
69
84
83
75
67
44
28
26
34
41
57
75
72
60
50
23
9
2
6
18
33
44
49
38
27
8
-4
-12
-10
3
24
32
33
28
16
-12
-26
-21
-13
-2
18
35
31
15
8
-13
-27
-22
-12
-1
15
24
27
17
6
-12
-25
-18
-11
0
12
28
27
14
7
-15
-23
-18
-4
8
21
23
29
17
-1
-18
-29
-24
-13
3
25
31
29
18
5
-13
-16
-17
-16
9
28
37
25
13
-1
-16
-22
-19
-7
7
23
32
23
15
-3
-18
-22
-15
-5
14
22
28
19
5
-12
-23
-31
-21
-20
9
27
25
22
15
-6
-22
-29
-23
-14
11
26
22
19
9
-12
-26
-31
-19
-15
6
22
26
12
12
-12
-25
-32
-26
-13
13
23
22
16
0
-19
-30
-31
-24
-10
18
28
28
16
10
-14
-23
-23
-19
-6
21
32
30
20
12
-11
-26
-27
-15
-7
26
38
28
30
12
-4
-15
-20
-14
4
29
33
35
24
8
-15
-25
-27
-14
-4
14
23
20
12
-4
-23
-31
-29
-22
-8
9
22
20
15
-3
-24
-39
-36
-24
-5
3
16
15
10
-7
-21
-33
-44
-26
-10
8
20
21
4
-12
-26
-34
-33
-28
-8
6
12
8
-4
-10
-33
-40
-42
-31
-10
23
50
58
51
49
51
62
96
118
163
191
198
181
156
119
74
39
18
-1
-1
-7
-7
-9
-20
-29
-39
-38
-25
-15
8
19
20
15
2
-14
-27
-32
-27
-14
10
21
23
16
7
-11
-30
-32
-22
-10
16
25
35
18
8
-10
-22
-19
-12
-11
14
30
25
18
11
-14
-22
-20
-17
0
27
35
30
26
12
-1
-13
-16
-9
5
21
35
36
30
21
7
-12
-19
-2
11
37
48
44
34
24
3
-2
-1
11
28
49
64
62
53
38
23
17
15
27
45
66
80
80
70
54
35
27
39
51
60
73
77
75
71
64
40
24
26
40
55
72
84
68
58
34
14
15
17
19
38
50
57
49
38
16
-2
-5
-3
5
23
42
44
35
22
2
-16
-20
-16
-1
18
21
21
23
12
-4
-19
-27
-24
-13
6
21
25
28
18
-9
-30
-30
-20
-14
8
24
29
21
11
-10
-26
-25
-16
0
22
29
26
14
14
-8
-15
-21
-19
-12
19
31
29
17
14
-7
-20
-23
-11
-1
21
32
37
28
14
-3
-14
-15
-14
-6
18
33
29
23
17
-5
-9
-11
-20
-5
21
33
27
18
7
-11
-18
-16
-13
-5
22
34
31
17
8
-8
-19
-19
-8
2
20
33
28
19
8
-11
-21
-22
-5
5
22
31
28
21
9
-13
-27
-26
-14
4
31
39
24
17
2
-15
-18
-14
-5
15
32
35
31
27
14
1
-13
-13
-4
9
26
40
38
30
12
-6
-4
2
6
22
33
47
39
29
10
-2
-17
-14
-6
13
21
32
26
15
-2
-17
-24
-20
-10
14
32
33
28
12
-13
-24
-26
-23
-17
14
26
30
24
14
-8
-21
-21
-13
-12
8
21
27
23
15
-11
-26
-30
-15
-7
22
31
24
13
7
-17
-31
-29
-21
-14
10
17
19
21
27
19
15
28
60
87
128
159
186
190
178
142
124
112
103
86
79
63
37
-7
-25
-44
-52
-44
-26
-7
23
34
33
29
12
-11
-19
-18
-11
4
26
35
34
23
6
-13
-17
-14
-4
6
25
44
42
26
10
-13
-16
-12
-2
13
31
43
43
31
14
-10
-16
-11
-2
25
42
55
36
26
11
-5
-11
-12
2
22
40
44
38
30
18
-1
-10
-7
5
28
42
49
43
37
23
15
9
3
11
38
55
60
59
48
33
19
14
26
33
54
73
77
75
65
44
35
32
37
45
67
82
87
76
74
50
36
32
39
50
73
82
82
79
68
45
23
14
23
37
64
70
61
51
38
16
4
4
10
18
34
43
49
38
26
5
-14
-17
-1
13
30
36
39
31
15
-14
-21
-14
-5
5
24
26
26
18
11
-8
-18
-16
-10
2
21
33
36
23
6
-10
-24
-16
-8
5
24
33
29
21
10
-9
-16
-8
-6
7
26
35
38
16
-2
-12
-13
-14
-7
12
33
44
39
21
3
-8
-15
-16
-5
15
27
37
31
20
5
-12
-17
-12
-4
13
28
38
34
27
6
-11
-27
-19
-7
13
29
36
20
20
5
-17
-24
-18
-7
12
25
30
29
23
0
-23
-27
-18
-11
12
28
30
21
18
2
-11
-22
-18
-12
11
26
33
23
12
-9
-20
-23
-14
-10
15
29
37
24
11
-11
-25
-26
-16
-7
14
26
32
21
12
-10
-17
-22
-5
-2
11
29
45
31
18
-7
-25
-20
-8
6
22
31
34
26
16
-5
-18
-17
-5
12
30
41
45
33
20
3
-11
-5
10
23
35
34
32
25
17
-2
-20
-22
-9
-2
15
25
26
20
4
-21
-25
-21
-12
2
22
32
28
13
3
-12
-24
-26
-14
2
21
34
26
10
-6
-20
-26
-24
-12
2
17
25
24
21
4
-18
-27
-28
-17
4
18
30
21
5
-13
-30
-33
-25
-9
25
51
72
80
86
77
85
102
131
163
182
196
188
167
135
96
53
16
-3
-17
-16
1
17
12
8
-13
-27
-26
-15
-6
12
26
28
19
13
-9
-21
-22
-15
-5
14
30
35
26
17
-6
-20
-11
-7
-7
15
28
38
27
18
-7
-19
-14
-4
2
25
36
32
24
19
-2
-14
-13
-3
11
30
39
44
32
18
-3
-13
-11
-2
15
35
49
41
28
26
7
-2
-2
4
20
43
50
49
42
27
16
9
8
9
30
53
65
61
55
42
21
18
19
33
51
73
82
80
76
59
41
36
34
36
56
80
87
83
75
57
38
27
29
39
58
73
78
68
58
37
18
6
15
24
40
55
61
49
34
15
0
-4
0
0
26
35
32
28
25
-1
-13
-20
-9
-10
12
30
32
18
11
-4
-18
-26
-17
-14
13
28
29
18
12
-4
-22
-31
-23
-13
20
32
25
17
9
-9
-26
-24
-14
-7
12
26
26
21
12
-13
-22
-22
-9
2
15
25
30
28
17
-8
-21
-24
-9
-1
14
29
31
24
14
-8
-20
-16
-6
3
20
29
30
21
9
-10
-25
-23
-17
-1
19
36
36
25
-1
-27
-31
-22
-14
2
21
28
27
21
5
-12
-24
-20
-12
4
27
34
18
16
6
-18
-22
-23
-14
5
24
29
24
14
1
-17
-27
-21
-6
9
22
30
21
12
-3
-19
-24
-19
-8
9
14
20
24
19
-5
-21
-27
-16
-7
4
16
28
22
18
1
-14
-19
-20
-8
22
36
40
34
21
-3
-15
-25
-16
2
18
38
39
29
22
-1
-10
-16
-7
4
25
39
48
36
23
-3
-18
-26
-15
-8
18
26
23
23
10
-10
-27
-31
-20
-10
11
32
39
35
16
-13
-39
-32
-22
-11
13
22
25
16
11
-15
-25
-23
-19
-11
14
19
20
18
9
-18
-32
-26
-17
-4
11
19
21
14
1
-18
-33
-36
-26
-8
22
51
63
58
57
51
60
83
122
153
174
184
174
150
113
70
35
14
-2
-18
-12
-2
-3
-11
-23
-34
-37
-26
-13
4
22
29
20
15
2
-18
-28
-23
-14
3
21
31
21
16
1
-14
-25
-21
-10
10
22
25
26
18
3
-12
-22
-20
-4
13
26
31
31
24
0
-21
-20
-14
-5
18
34
43
34
19
1
-13
-19
-14
-1
22
35
41
35
33
11
-9
-14
-13
5
32
44
51
50
46
17
-6
-9
9
20
42
59
64
58
52
33
18
19
27
35
56
73
80
68
61
40
29
27
38
41
71
87
91
71
55
35
28
26
31
42
74
81
68
60
49
24
9
8
20
26
48
58
58
41
24
3
-10
-10
1
9
27
44
40
29
15
-13
-27
-22
-10
4
21
31
30
18
5
-14
-22
-24
-14
-1
24
33
30
17
1
-20
-23
-22
-10
-2
16
32
28
23
-3
-27
-30
-20
-9
6
23
33
31
22
5
-12
-21
-15
-6
11
26
37
30
16
1
-14
-19
-15
-8
12
27
40
33
23
3
-12
-16
-19
-14
11
23
29
32
28
8
-16
-32
-21
-10
12
30
35
22
20
-1
-19
-25
-19
-8
17
34
34
23
14
-5
-14
-20
-15
-10
11
26
37
28
14
-10
-25
-24
-15
-12
11
29
32
23
11
-16
-25
-26
-14
-8
13
29
34
20
5
-12
-26
-22
-14
-3
13
29
27
23
12
-10
-25
-27
-11
-7
6
23
24
16
8
-13
-25
-24
-18
-9
11
22
23
14
9
-19
-28
-25
-13
3
23
27
26
16
2
-12
-26
-25
-14
-2
20
38
35
23
13
-14
-29
-14
0
8
24
38
34
26
6
-20
-26
-24
-14
2
19
29
23
10
-6
-26
-34
-26
-19
2
14
23
26
11
-13
-25
-30
-26
-25
-1
14
25
21
2
-17
-28
-38
-29
-20
0
15
22
20
11
-17
-34
-33
-29
-18
1
16
18
10
5
-15
-32
-35
-31
-24
-4
14
23
32
41
29
24
27
37
57
106
149
177
171
164
129
103
85
62
50
46
38
20
-1
-17
-34
-45
-43
-31
-10
15
24
27
18
9
-17
-33
-33
-23
-10
14
28
30
18
9
-15
-29
-26
-25
-6
21
35
24
8
-5
-16
-28
-24
-16
-4
12
28
27
16
4
-19
-26
-24
-10
2
24
33
32
23
12
-9
-23
-17
-3
12
25
35
27
21
1
-11
-15
-12
-8
13
37
47
41
26
11
-3
-8
-4
5
29
42
51
58
43
20
7
2
5
25
45
66
73
68
59
47
30
13
17
31
52
70
74
74
65
41
32
29
31
31
51
74
79
63
54
36
20
15
17
19
42
54
54
49
36
16
1
-12
-7
4
21
32
37
36
29
2
-18
-21
-10
-7
10
25
28
17
11
-8
-16
-21
-28
-14
10
23
23
17
7
-19
-27
-32
-21
-10
6
24
20
14
10
-13
-31
-31
-21
-9
17
30
31
18
1
-17
-26
-26
-19
-11
11
24
27
16
2
-11
-17
-19
-11
5
25
27
24
10
10
-10
-24
-25
-18
-1
13
29
35
31
18
-1
-15
-21
-10
6
23
34
29
21
5
-11
-24
-20
-8
5
25
42
26
11
0
-15
-23
-18
-13
-6
16
34
29
18
3
-18
-24
-20
-13
2
24
33
26
19
7
-15
-23
-21
-14
8
22
28
25
14
-2
-15
-32
-27
-13
10
22
29
25
21
-8
-20
-24
-28
-10
13
18
26
17
8
-11
-24
-25
-18
-9
16
30
37
30
21
-1
-22
-24
-15
-11
12
26
27
20
11
-7
-17
-22
-8
1
23
38
35
33
25
1
-13
-7
-9
-6
17
31
32
22
14
-10
-28
-27
-18
-8
12
36
34
18
-1
-23
-29
-29
-18
-6
14
28
23
14
6
-13
-27
-26
-17
-12
4
15
17
9
0
-12
-33
-27
-18
-3
16
21
23
14
-1
-21
-29
-26
-19
-3
15
21
8
-2
-17
-32
-34
-19
4
27
62
81
97
106
108
115
126
126
133
149
152
141
119
87
52
0
-32
-43
-36
-17
7
20
17
14
0
-18
-21
-16
-5
15
24
25
18
12
-10
-23
-26
-20
-8
8
23
33
34
27
-10
-23
-27
-19
-11
15
31
33
29
24
0
-11
-21
-13
-6
18
34
38
25
20
-8
-21
-22
-13
-2
23
37
38
32
24
7
-11
-8
-8
6
26
42
44
44
32
-3
-9
-5
3
12
32
49
53
44
34
18
2
4
18
29
56
67
65
56
48
27
18
16
30
44
67
80
81
75
63
45
27
26
39
51
72
82
81
68
57
35
23
25
38
44
58
72
70
60
45
21
-2
5
16
29
43
50
44
33
13
-5
-15
-14
-5
18
28
39
33
23
-2
-17
-21
-20
-8
6
20
35
33
16
-5
-14
-26
-28
-16
6
20
30
20
14
0
-13
-21
-16
-9
5
18
27
21
17
-8
-21
-20
-21
-11
11
25
31
24
13
-4
-17
-14
-16
-13
7
28
35
28
12
-12
-23
-22
-9
-1
24
33
33
22
11
-8
-17
-25
-19
-8
13
32
32
23
17
-4
-23
-18
-19
-9
12
27
30
25
15
-2
-21
-27
-12
-8
15
28
32
18
8
-7
-19
-20
-13
-3
9
26
29
19
9
-10
-24
-23
-18
-3
18
26
28
18
9
-15
-23
-24
-12
0
23
27
26
17
0
-16
-26
-23
-11
2
21
31
23
10
-10
-18
-28
-24
-15
2
18
26
25
12
-1
-14
-23
-20
-9
6
18
33
28
24
2
-11
-15
-17
-4
10
21
32
31
25
5
-7
-11
-3
1
10
17
39
33
23
10
-7
-17
-15
-5
12
25
31
24
12
-8
-23
-29
-22
-17
-3
16
31
19
9
-16
-27
-32
-25
-4
4
19
28
17
3
-23
-33
-29
-33
-31
-4
18
18
10
5
-14
-31
-34
-30
-21
-5
13
19
17
6
-20
-36
-39
-32
-22
-5
15
15
6
8
3
0
3
26
53
85
130
158
178
180
140
127
118
108
94
94
82
52
22
-19
-48
-52
-52
-36
-18
10
25
28
15
-3
-20
-28
-30
-19
1
15
25
23
12
0
-22
-32
-26
-11
1
20
22
19
15
2
-26
-33
-18
-19
0
23
30
22
16
2
-19
-26
-21
-16
2
21
31
29
19
4
-12
-19
-14
-11
9
27
35
36
32
2
-16
-23
-16
1
22
33
42
43
43
15
-8
-17
-7
4
25
48
65
54
42
30
5
7
10
26
49
68
73
64
60
45
28
26
34
41
60
76
79
71
68
49
32
31
39
43
62
72
78
75
66
48
23
20
23
36
55
60
65
57
48
14
-4
-5
4
11
31
42
40
33
19
0
-12
-16
-13
3
20
29
27
23
17
-8
-21
-24
-14
-1
9
26
29
17
6
-16
-29
-30
-19
-7
16
26
28
25
8
-21
-32
-29
-21
-6
18
26
28
28
11
-15
-31
-27
-17
1
20
28
24
7
2
-11
-25
-27
-16
-5
17
29
28
16
3
-16
-24
-14
-15
-3
13
26
27
9
-1
-14
-26
-24
-8
7
26
26
22
17
3
-22
-31
-18
-14
-4
20
27
24
16
-5
-28
-28
-20
-12
0
22
31
28
9
-1
-23
-30
-27
-21
2
19
23
22
13
-10
-27
-31
-24
-16
10
20
23
21
16
-7
-21
-21
-22
-27
2
21
27
14
11
-8
-25
-32
-23
-18
7
25
26
18
8
-5
-24
-29
-24
-9
9
19
24
15
1
-15
-24
-27
-16
-7
15
26
26
10
2
-7
-20
-26
-20
1
18
25
29
21
9
-13
-18
-14
-9
3
28
43
43
28
17
-2
-13
-23
-16
5
22
32
27
16
6
-13
-20
-23
-20
-8
11
23
20
12
-3
-24
-34
-31
-15
-10
10
18
15
10
-9
-28
-36
-28
-19
-3
10
21
18
9
-7
-26
-37
-28
-23
-6
14
31
25
6
-10
-37
-41
-32
-25
-11
7
11
2
-8
-15
-31
-25
-12
11
49
77
102
110
133
140
149
151
158
154
157
151
138
100
54
2
-34
-58
-56
-38
-13
10
15
11
8
-6
-26
-38
-31
-16
5
21
22
11
5
-15
-26
-29
-21
-12
9
25
30
15
9
-15
-25
-32
-15
-12
11
21
24
22
15
-8
-29
-32
-16
-4
16
23
24
18
10
-7
-20
-21
-13
2
18
33
26
23
13
-5
-16
-22
-7
-1
27
46
47
36
23
-3
-18
-15
4
9
33
48
54
45
30
18
7
7
14
28
52
67
67
60
46
24
19
24
37
47
69
89
85
72
55
37
29
36
49
69
80
82
77
74
58
38
20
26
34
51
69
77
62
49
35
20
12
12
13
26
47
48
38
29
10
-8
-21
-13
-5
11
24
35
31
19
-2
-21
-24
-19
-11
9
27
35
20
1
-12
-25
-31
-19
-1
7
16
19
16
10
-9
-26
-32
-23
-13
12
24
22
14
8
-12
-23
-28
-21
-13
10
26
32
22
13
-5
-21
-31
-20
-14
7
25
27
23
11
-7
-26
-35
-23
-8
17
29
31
16
9
-8
-28
-29
-16
-6
17
33
23
14
9
-13
-27
-25
-13
-8
17
25
27
21
6
-19
-29
-28
-20
-5
17
29
29
19
-4
-18
-22
-22
-19
-9
19
27
23
9
3
-17
-30
-28
-21
-4
18
25
18
8
-5
-22
-30
-22
-16
-4
14
21
18
13
-4
-21
-33
-32
-17
-6
12
22
23
16
-6
-23
-27
-14
-15
-10
11
17
19
10
-13
-30
-28
-17
-10
-2
18
30
23
16
-3
-21
-24
-17
-11
11
22
27
29
18
0
-12
-13
-9
-4
17
35
40
27
19
-2
-17
-23
-19
-15
10
25
22
17
10
-15
-26
-32
-23
-17
1
17
24
18
8
-15
-33
-43
-29
-18
9
21
20
9
-4
-22
-32
-34
-26
-12
10
15
15
13
0
-31
-37
-35
-29
-13
6
20
20
11
0
-19
-30
-34
-36
-20
2
11
16
15
10
10
9
19
42
81
121
152
169
160
154
135
115
97
81
68
64
42
16
-16
-35
-54
-63
-55
-46
-25
6
19
20
10
-3
-21
-32
-32
-26
-2
15
27
21
17
-11
-30
-29
-18
-10
0
15
17
14
6
-8
-20
-29
-23
-10
5
18
33
29
19
-4
-20
-25
-20
-11
13
23
36
31
14
2
-10
-15
-9
-4
12
33
38
27
22
3
-15
-22
-12
-6
20
41
46
31
23
5
-7
-6
1
11
37
47
60
47
42
18
9
8
23
25
53
71
72
64
54
34
27
26
33
44
59
78
79
69
69
47
34
32
35
44
70
76
69
67
55
36
22
18
26
33
52
56
55
44
35
9
-7
-7
3
14
31
41
41
27
14
-8
-20
-9
-2
0
10
17
24
15
-2
-20
-32
-25
-11
-1
17
27
23
15
1
-16
-30
-31
-20
-2
16
28
21
10
-3
-19
-28
-28
-15
0
14
32
29
15
-4
-19
-25
-19
-10
-1
12
19
23
11
0
-18
-30
-23
-12
6
25
31
26
16
-1
-18
-23
-19
-6
11
19
30
26
19
-4
-22
-26
-19
-10
10
23
34
26
11
-7
-15
-24
-26
-22
9
21
19
14
8
-8
-20
-28
-23
-17
6
23
30
25
14
-9
-25
-28
-21
-12
8
24
28
16
6
-11
-24
-24
-25
-17
12
28
22
12
4
-16
-32
-38
-23
-12
9
21
24
13
2
-20
-30
-26
-17
-3
17
24
29
21
6
-22
-27
-24
-19
-9
14
27
32
20
5
-12
-28
-17
-6
-5
17
30
36
30
8
-10
-23
-16
-6
5
18
26
23
12
-4
-17
-32
-30
-18
-6
14
26
25
14
-9
-24
-26
-28
-20
-4
20
25
19
5
-11
-19
-35
-39
-24
-1
14
20
17
6
-12
-31
-34
-26
-25
0
14
21
14
8
-17
-29
-31
-30
-25
-4
7
16
7
-3
-21
-37
-32
-12
12
42
58
77
84
92
88
95
118
121
130
141
142
127
102
75
31
-15
-37
-41
-37
-18
-8
1
6
1
-12
-31
-28
-27
-17
7
22
25
18
13
-9
-30
-35
-24
-15
11
20
23
16
9
-6
-23
-34
-26
-13
12
27
24
12
7
-16
-30
-27
-13
-6
9
28
31
16
4
-16
-23
-22
-13
1
24
35
36
28
15
-5
-17
-16
-5
-1
21
38
35
27
12
-4
-11
-12
1
18
35
46
40
34
26
10
-5
0
13
29
45
58
60
54
49
30
8
17
30
44
61
72
72
66
49
26
20
27
38
50
72
81
72
62
48
24
12
19
34
53
65
67
65
49
25
2
-1
4
12
31
46
53
46
21
4
-13
-22
-19
-11
10
26
30
25
13
-5
-20
-23
-17
-13
5
20
25
17
8
-20
-30
-29
-25
-13
13
19
18
13
11
-9
-23
-29
-26
-17
2
23
26
19
14
-16
-26
-32
-28
-10
12
23
23
15
7
-12
-24
-25
-15
-9
13
25
27
13
7
-16
-26
-26
-23
-8
20
27
33
21
7
-7
-29
-31
-17
-5
11
31
28
15
7
-16
-31
-24
-16
-3
10
24
24
15
5
-17
-26
-29
-18
-9
11
23
28
11
-8
-21
-28
-25
-12
6
21
28
24
14
-1
-20
-30
-24
-15
3
15
25
21
16
-2
-25
-32
-28
-11
8
18
24
17
11
-10
-25
-31
-27
-18
1
18
27
23
13
-2
-17
-27
-22
-11
13
36
44
26
9
-7
-21
-23
-26
-9
16
25
31
27
21
3
-14
-21
-12
-1
19
27
35
21
18
-6
-23
-33
-22
-10
5
19
22
14
7
-16
-24
-20
-14
-16
4
13
8
6
2
-20
-31
-31
-28
-21
3
17
17
12
4
-22
-32
-29
-25
-17
6
22
20
12
-3
-19
-34
-33
-22
-12
9
19
9
3
-2
-22
-40
-49
-34
-19
14
43
50
47
55
46
51
80
114
152
180
188
181
159
126
85
55
24
-2
-12
-15
-7
-5
-14
-19
-31
-34
-30
-17
-1
17
30
27
24
3
-31
-47
-36
-22
-4
17
24
22
18
3
-19
-30
-23
-13
-1
15
26
25
14
-2
-23
-24
-19
-10
8
24
25
26
21
6
-18
-24
-12
0
15
22
26
26
23
6
-6
-22
-19
-8
20
36
38
32
26
3
-14
-11
-2
-5
21
42
37
33
29
11
-3
-8
6
15
42
54
58
52
46
26
16
17
26
31
51
64
73
70
59
40
25
28
37
41
67
76
83
72
63
49
21
16
34
48
62
64
67
63
52
24
13
6
18
30
47
46
50
39
29
7
-9
-15
-7
9
29
36
31
18
8
-9
-19
-25
-18
-1
18
22
25
14
-3
-21
-25
-30
-19
-4
12
24
14
6
-4
-23
-33
-27
-23
-3
19
30
28
16
-5
-18
-28
-26
-13
1
13
22
20
16
-3
-24
-33
-25
-13
2
14
30
25
16
1
-28
-27
-22
-10
7
18
31
22
10
-8
-15
-23
-17
-10
5
17
31
21
16
0
-14
-33
-31
-19
10
21
26
16
6
-10
-27
-31
-17
-12
6
24
30
9
4
-11
-26
-36
-22
-14
7
19
23
15
10
-3
-26
-31
-27
-17
7
23
26
16
2
-17
-33
-36
-27
-20
-1
17
19
10
3
-19
-33
-34
-25
-18
3
14
19
15
-4
-25
-37
-32
-17
-11
5
24
28
14
4
-15
-28
-30
-24
-8
17
23
15
18
1
-24
-37
-33
-15
-3
16
26
32
25
9
-6
-15
-24
-12
-5
16
27
25
16
0
-24
-41
-35
-23
-6
13
14
14
10
-6
-31
-42
-32
-27
-10
8
14
11
2
-18
-36
-42
-36
-30
-16
1
15
4
1
-17
-32
-40
-35
-25
-3
14
14
12
0
-19
-33
-39
-35
-22
-7
5
8
9
-4
-26
-44
-54
-37
-15
29
54
69
74
93
87
91
110
136
154
175
176
164
136
105
55
11
-20
-39
-46
-25
-12
-1
-9
-8
-26
-34
-33
-16
-18
-1
17
22
12
0
-24
-39
-39
-23
-14
11
18
15
8
3
-19
-34
-32
-27
-12
9
25
31
20
-2
-15
-28
-25
-19
-5
18
26
30
19
-2
-19
-25
-19
-7
5
17
19
20
16
9
-11
-22
-23
-7
2
27
37
35
32
19
-7
-15
-11
3
18
41
50
31
31
21
3
-3
2
14
38
54
65
61
51
30
18
19
15
25
48
66
78
68
59
46
24
23
31
41
61
76
88
75
62
51
35
20
23
34
51
68
71
64
55
32
19
14
12
13
35
43
47
44
39
17
-3
-18
-18
-8
12
27
34
28
11
-13
-25
-24
-21
-16
10
24
27
17
9
-9
-29
-28
-20
-16
12
26
24
16
9
-12
-30
-31
-22
-14
10
25
27
21
10
-23
-36
-36
-21
-11
12
28
26
25
8
-16
-28
-30
-20
-9
13
30
32
15
10
-10
-22
-22
-13
-5
17
28
23
13
6
-4
-22
-36
-19
-3
17
28
23
14
6
-12
-24
-27
-16
-10
12
24
26
16
7
-15
-26
-31
-21
-4
19
25
24
21
5
-21
-37
-27
-15
0
15
20
17
9
-5
-21
-27
-28
-15
-3
10
18
16
7
-11
-21
-31
-28
-18
1
18
29
18
6
-4
-26
-31
-23
-12
12
30
30
22
22
1
-21
-35
-24
-16
9
27
37
27
17
-4
-19
-20
-12
-10
10
28
35
29
19
-2
-15
-23
-17
-4
15
15
21
13
7
-12
-25
-27
-26
-19
4
14
19
16
6
-17
-31
-36
-23
-17
-3
15
18
5
-5
-20
-31
-42
-30
-15
4
14
16
12
-5
-24
-34
-40
-30
-16
9
24
19
4
-6
-28
-42
-40
-31
-14
-3
9
9
6
-15
-30
-25
-10
20
52
88
110
136
146
148
137
128
126
120
111
107
93
66
26
-13
-49
-65
-61
-46
-28
-6
9
12
9
-8
-25
-36
-30
-16
-8
3
13
12
9
-7
-24
-32
-26
-19
5
14
17
15
4
-10
-24
-29
-26
-14
1
23
29
28
14
6
-18
-34
-30
-17
5
22
28
26
18
-2
-12
-27
-20
-14
16
30
31
27
24
0
-19
-23
-13
-1
20
33
41
37
26
12
-2
-10
-7
9
22
44
51
51
41
25
1
3
9
20
43
60
68
61
52
31
22
19
30
40
57
74
76
72
64
39
34
19
27
47
72
74
83
74
53
29
18
18
28
39
63
66
61
44
30
12
-4
-2
4
14
27
33
38
28
19
-9
-22
-25
-16
-5
17
28
29
12
-6
-19
-29
-27
-11
-4
10
18
10
9
-2
-15
-28
-29
-18
-1
15
19
14
6
-3
-22
-29
-30
-24
-5
18
27
21
11
-7
-24
-31
-28
-16
-2
10
27
22
8
-10
-26
-21
-17
-19
-6
12
23
19
14
-4
-18
-24
-18
-16
-1
18
17
17
10
-7
-23
-26
-23
-15
6
18
20
20
13
-12
-21
-23
-22
-20
1
23
25
16
1
-13
-25
-33
-24
-14
6
23
32
27
9
-16
-35
-34
-28
-16
11
21
18
11
5
-15
-27
-36
-30
-18
5
18
19
12
7
-11
-33
-32
-18
-14
8
15
9
11
2
-16
-28
-30
-22
-16
-6
15
22
16
3
-19
-37
-31
-24
-10
9
21
19
5
-6
-21
-26
-30
-16
-4
11
25
27
18
1
-13
-28
-21
-13
-8
11
17
17
25
12
-3
-18
-12
-10
3
17
30
29
20
2
-16
-28
-27
-17
-6
12
20
17
8
-7
-21
-29
-27
-21
-6
10
20
14
2
-6
-22
-33
-37
-26
-8
8
7
10
1
-1
-12
-39
-45
-33
-10
4
13
9
3
-13
-29
-34
-30
-24
-7
12
12
8
-3
-25
-34
-42
-35
-33
-15
1
12
17
26
19
14
29
48
75
110
158
190
192
179
142
113
82
69
56
49
29
6
-17
-23
-36
-45
-41
-35
-20
5
18
20
12
1
-19
-31
-32
-26
-15
7
16
17
14
-4
-19
-20
-26
-20
-10
3
22
21
5
-2
-20
-27
-24
-17
-11
9
25
26
16
4
-16
-34
-29
-17
-8
11
25
26
18
9
-16
-26
-22
-8
3
26
36
30
16
10
-8
-20
-17
0
12
26
37
35
25
12
-3
-7
0
12
22
36
46
42
35
31
9
-2
5
15
37
57
69
69
60
44
26
21
29
41
55
70
79
71
61
47
29
22
26
37
53
66
72
68
49
32
20
14
22
24
38
50
51
48
33
13
-5
-9
-5
-4
16
30
30
24
13
-12
-19
-19
-16
-15
9
25
20
16
14
-6
-21
-27
-25
-26
-6
16
22
11
-2
-22
-33
-36
-30
-22
-1
11
16
12
2
-22
-32
-30
-24
-16
5
12
21
9
-1
-25
-37
-32
-27
-15
7
16
21
11
2
-7
-19
-22
-19
-21
10
19
23
10
2
-22
-35
-33
-16
-9
8
22
15
13
4
-23
-33
-30
-24
-7
13
24
18
10
-3
-25
-33
-28
-21
-11
10
24
21
9
-15
-32
-37
-32
-20
1
13
18
14
9
-6
-28
-40
-31
-20
-6
12
17
10
5
-11
-30
-36
-26
-19
-6
11
13
6
1
-14
-30
-41
-31
-25
-1
11
16
9
6
-18
-37
-38
-37
-21
-4
5
19
9
3
-15
-29
-37
-31
-24
0
16
23
20
9
-17
-30
-29
-25
-14
9
22
28
24
10
-14
-30
-33
-20
-4
14
29
27
20
12
-9
-21
-18
-12
-16
4
22
21
2
-5
-23
-37
-34
-31
-22
4
14
17
2
-4
-27
-39
-39
-29
-17
4
18
20
-4
-7
-25
-42
-42
-33
-17
0
4
4
-2
-10
-38
-45
-42
-33
-19
2
14
13
2
-16
-41
-46
-40
-38
-24
-5
4
0
2
-12
-29
-28
-18
6
42
70
97
116
125
135
134
123
121
118
122
111
85
67
24
-17
-53
-69
-67
-52
-31
-8
7
6
-2
-18
-30
-37
-36
-24
-5
10
15
9
-6
-22
-38
-42
-30
-25
-4
16
21
12
1
-15
-36
-31
-24
-21
-6
14
23
13
11
-13
-36
-27
-20
-17
1
16
15
14
12
-7
-19
-26
-25
-16
6
27
29
17
7
-11
-23
-25
-15
-5
26
32
29
28
15
-9
-18
-18
-7
8
30
35
45
35
26
8
0
4
13
22
43
55
60
59
52
24
6
4
22
41
62
73
71
56
45
26
18
23
32
48
69
80
72
54
47
29
14
11
20
33
59
58
56
46
28
0
-9
-7
4
17
31
40
33
19
1
-19
-23
-26
-18
-1
15
20
18
10
-13
-28
-40
-34
-21
-8
9
18
14
7
-19
-31
-30
-30
-27
-7
6
14
11
4
-15
-36
-49
-36
-26
-7
9
16
13
5
-11
-31
-43
-37
-26
-4
10
18
20
3
-16
-30
-35
-27
-20
1
13
28
20
0
-20
-29
-30
-18
-20
0
11
13
12
1
-17
-34
-37
-28
-19
7
19
21
11
3
-15
-31
-37
-31
-22
10
24
26
11
-3
-20
-35
-37
-28
-18
1
14
15
8
-3
-19
-36
-30
-20
-15
12
20
16
2
-9
-30
-39
-39
-26
-15
0
16
11
8
-4
-25
-46
-38
-27
-14
9
21
24
7
-10
-25
-37
-28
-24
-9
8
20
20
7
-3
-19
-36
-33
-17
5
22
17
12
9
-1
-22
-29
-25
-14
5
22
31
30
17
2
-16
-23
-18
-25
-5
6
15
11
5
-13
-30
-36
-34
-21
-2
17
23
14
-5
-22
-32
-41
-40
-28
-11
4
19
10
0
-19
-42
-44
-35
-33
-10
