9
21
16
31
30
42
47
40
27
29
13
6
12
29
30
49
40
26
25
28
13
6
10
15
22
61
86
88
91
98
102
122
168
200
214
231
215
199
169
147
101
75
59
50
33
39
36
30
28
14
14
13
24
35
48
64
57
45
39
16
11
24
25
44
56
47
41
33
34
18
18
23
36
49
56
49
56
48
30
10
-6
5
38
47
64
67
63
50
42
27
33
36
41
47
61
63
67
51
46
27
35
34
46
45
63
68
65
54
54
38
44
44
57
60
77
73
79
68
60
40
34
47
56
70
82
101
102
95
81
53
59
71
90
89
118
120
103
89
76
70
65
77
93
106
115
127
117
97
86
72
88
97
99
100
122
129
114
96
90
68
65
67
88
80
89
98
87
70
66
39
40
41
64
54
64
68
58
48
20
28
25
40
48
53
63
55
43
26
19
12
1
22
28
36
50
48
31
16
10
5
1
16
28
33
28
50
48
21
17
-2
0
19
20
42
52
48
44
37
13
5
4
13
27
46
40
40
32
23
9
14
10
18
31
39
51
53
42
34
11
10
11
30
41
53
50
35
41
27
21
16
16
27
44
51
53
46
37
30
10
1
6
28
39
52
50
53
36
32
2
6
6
17
33
70
60
46
20
16
-1
14
23
24
39
54
58
41
30
26
-6
-8
16
34
28
40
35
43
39
18
2
-2
21
39
24
36
48
39
26
2
-2
8
15
34
42
53
45
18
23
20
3
9
8
25
35
55
53
55
28
10
-2
9
33
33
40
46
48
41
29
21
-1
4
1
36
57
61
53
52
40
26
29
14
36
43
58
59
53
38
33
7
7
15
28
25
46
39
40
34
19
-8
-1
10
13
22
36
40
38
30
16
-2
-2
0
21
23
47
48
38
20
0
-6
10
20
23
19
42
38
34
21
18
5
-8
3
12
13
56
54
35
21
4
-12
-15
-4
26
23
45
48
50
58
57
51
80
95
125
158
205
219
214
216
189
158
146
133
115
73
72
48
27
3
4
-5
-12
3
32
50
66
69
51
42
4
-20
6
25
33
20
55
59
49
30
19
6
-3
15
25
40
45
35
48
40
30
9
14
13
33
51
51
45
46
37
20
6
22
50
38
33
52
54
55
34
20
25
27
28
34
65
71
61
54
43
38
30
29
29
46
55
64
58
62
57
35
40
36
48
68
89
80
73
61
48
37
49
54
77
85
98
95
96
90
70
61
74
69
81
80
99
103
112
89
82
74
60
59
70
75
86
84
74
62
54
37
37
16
35
33
54
48
33
9
-8
-14
-7
-5
-5
2
14
14
2
-31
-37
-50
-40
-43
-39
-33
-13
-19
-34
-49
-67
-83
-79
-80
-67
-54
-47
-54
-51
-70
-71
-100
-93
-76
-64
-72
-49
-54
-63
-65
-68
-99
-97
-88
-70
-73
-55
-62
-67
-77
-81
-89
-93
-80
-66
-52
-42
-68
-81
-83
-81
-102
-105
-97
-78
-72
-43
-49
-57
-67
-74
-94
-96
-86
-75
-59
-46
-55
-68
-67
-84
-85
-84
-74
-75
-74
-42
-58
-70
-79
-85
-93
-108
-87
-79
-61
-57
-55
-44
-55
-70
-81
-83
-62
-63
-52
-43
-46
-54
-63
-79
-72
-62
-57
-43
-40
-43
-48
-63
-70
-75
-81
-69
-52
-53
-34
-24
-51
-56
-63
-73
-63
-64
-52
-36
-16
-25
-37
-43
-46
-61
-48
-49
-34
-26
-18
-14
-31
-26
-36
-58
-63
-52
-37
-31
-14
-17
-26
-33
-30
-50
-54
-42
-39
-26
2
-11
-29
-41
-38
-60
-51
-42
-35
-24
-6
-14
-48
-48
-45
-60
-56
-56
-34
-32
-5
-17
-26
-34
-51
-57
-55
-53
-34
-21
-13
-6
-7
-26
-27
-47
-66
-45
-28
-10
-8
0
-21
-41
-47
-57
-50
-46
-32
-25
-10
-1
-15
-31
-49
-42
-46
-48
-22
0
3
-2
-38
-45
-26
-26
1
15
36
78
100
133
148
153
136
127
122
125
108
106
85
63
18
-31
-58
-78
-72
-51
-47
-20
-19
-19
-26
-43
-56
-40
-31
-27
-14
-10
-24
-10
-25
-29
-47
-50
-42
-36
-26
-4
4
-7
-11
-10
-30
-49
-48
-33
-8
14
1
-18
-17
-31
-41
-38
-40
-20
-7
20
4
-7
-15
-28
-41
-33
-32
-26
-11
8
9
-5
-18
-12
-31
-27
-27
-6
-21
5
16
13
7
-8
-33
-19
-4
14
16
22
30
30
16
13
-7
9
13
20
25
44
48
35
30
34
23
20
22
40
61
80
62
58
61
45
32
39
32
36
50
82
82
77
80
57
28
33
42
49
56
61
78
51
31
34
23
16
6
35
36
37
39
22
17
3
-10
-12
-6
-7
11
25
13
6
13
-18
-19
-28
-26
4
14
10
5
-6
-14
-18
-11
-22
-16
-7
21
19
-10
3
-3
-27
-16
-10
-5
-4
22
15
16
2
-8
-30
-22
-18
-17
4
20
19
36
24
6
-22
-29
-12
3
5
23
28
26
13
4
-10
-2
-5
19
2
19
27
18
7
7
-9
-4
-8
-1
7
33
22
23
20
23
-3
10
-1
6
12
36
40
20
10
7
-20
-2
3
33
17
28
18
32
18
0
-13
-5
15
24
25
44
43
31
19
4
-1
7
27
19
12
40
32
16
12
2
-6
-10
6
28
35
40
40
33
16
-10
3
2
4
26
34
40
43
35
16
-1
-12
-7
4
25
30
45
56
22
6
14
6
5
9
31
32
46
53
29
22
9
5
24
17
32
53
54
49
45
34
13
21
21
38
26
49
60
42
32
45
16
7
7
9
19
45
52
39
35
26
6
7
-7
5
34
39
43
38
27
17
-6
1
5
15
27
46
58
39
22
7
-3
0
0
12
29
41
30
29
36
21
-4
10
9
21
32
49
34
19
21
17
-5
6
3
11
18
32
38
41
29
38
46
63
88
127
138
167
185
210
208
189
176
152
143
137
106
96
73
30
12
6
8
-10
5
11
24
31
47
48
28
28
17
20
28
25
19
41
42
28
26
25
12
11
31
39
34
50
40
28
19
12
18
20
30
45
54
66
73
37
12
12
28
16
34
33
52
58
62
54
35
26
16
20
31
34
54
62
62
56
44
26
23
37
46
51
68
63
65
52
41
29
48
48
53
59
80
79
70
63
72
50
51
47
70
81
110
95
88
82
79
58
59
69
78
83
115
116
111
80
67
71
68
79
103
113
115
110
96
87
87
54
67
75
75
88
92
112
85
67
62
41
51
46
57
74
91
76
77
57
37
19
28
36
38
46
63
60
47
36
40
24
24
25
28
32
36
47
23
11
-7
-9
2
7
16
25
35
41
29
13
3
-10
-13
6
19
23
32
55
37
22
2
13
4
24
29
45
53
45
26
23
9
-1
6
12
25
36
47
50
41
44
40
15
1
8
24
39
49
55
30
28
24
13
18
36
54
66
74
60
44
35
22
9
13
27
36
59
57
53
37
30
13
13
28
36
51
59
46
57
35
34
0
8
25
36
30
53
50
45
40
38
18
16
27
26
41
53
52
48
34
27
9
12
7
24
42
59
59
52
25
21
10
8
22
32
25
49
43
36
29
30
11
23
19
36
53
59
63
37
29
19
6
10
18
43
40
57
58
41
31
25
22
25
16
23
41
60
43
33
33
26
12
17
33
53
46
58
60
79
49
41
26
28
30
36
44
58
59
58
35
39
28
17
27
37
39
40
36
40
23
23
12
5
15
26
35
47
34
30
19
11
8
-5
6
26
36
43
33
36
19
-2
3
6
19
22
27
26
44
31
34
7
6
5
15
11
38
44
35
14
-6
-22
-13
-10
-4
-3
31
37
54
45
51
46
65
92
119
165
206
218
216
184
176
147
128
113
109
80
64
35
25
18
7
-6
-10
-12
19
36
55
52
48
32
18
-4
10
4
17
21
44
53
51
24
22
-8
1
14
31
26
43
45
36
20
16
3
17
33
30
32
57
60
49
32
23
3
11
25
34
29
42
43
44
26
23
5
14
22
43
44
63
49
46
34
32
20
11
26
49
49
63
59
54
50
58
47
30
37
54
68
91
85
66
62
55
40
36
58
72
87
93
95
91
80
60
63
67
82
96
102
106
112
114
97
68
68
85
84
93
124
115
112
107
75
62
76
69
69
80
90
92
80
70
56
45
28
40
47
57
81
66
60
54
38
12
16
26
29
27
48
37
34
27
23
4
11
13
20
20
47
27
31
28
3
-16
-5
5
10
18
36
34
38
21
8
-7
-3
1
11
18
26
40
33
28
10
3
7
-4
5
30
33
37
38
24
14
-4
4
2
18
7
14
34
39
36
-3
-1
2
12
25
26
33
30
34
19
13
-8
-7
2
28
32
36
34
30
10
-11
-11
-12
0
14
20
41
32
33
10
-1
-20
-21
-14
9
19
31
24
9
9
-7
-2
1
-3
18
18
16
19
24
8
-18
-27
-18
-3
10
22
18
28
18
-12
-28
-17
-13
0
7
27
20
13
12
-8
-14
-21
-17
-6
3
25
18
32
21
-7
-16
-8
0
7
5
34
9
16
12
12
-23
-17
-11
6
18
42
33
29
25
12
-10
-5
-7
10
17
35
34
35
25
21
4
13
19
27
39
50
35
34
20
13
2
1
0
4
14
34
34
18
16
1
-9
3
-9
6
11
27
33
18
-3
0
-4
-4
-6
2
8
22
28
17
11
14
-2
6
8
2
13
19
17
6
3
-9
-20
-16
-1
11
18
26
24
21
7
-3
-29
-27
-9
11
25
21
20
20
27
20
27
34
64
94
112
163
192
202
197
191
162
148
130
123
128
104
47
21
-13
-21
-26
-13
2
4
42
45
42
35
21
1
-7
4
16
13
38
34
20
33
26
13
13
26
27
35
38
33
43
28
23
-1
23
15
14
36
43
49
34
31
22
11
12
15
51
28
36
74
46
30
33
8
12
18
23
33
54
54
40
42
41
22
22
26
35
51
69
56
50
36
37
24
21
19
46
52
87
72
69
69
52
39
46
55
60
74
77
74
65
64
67
55
58
69
79
90
100
103
84
73
71
49
48
81
83
94
106
111
96
73
65
53
53
59
83
89
95
85
76
61
43
30
29
49
48
50
57
72
58
39
23
3
16
20
42
52
50
36
23
28
17
4
4
16
23
28
54
27
21
9
-10
-4
6
6
15
20
37
31
22
19
10
4
-5
14
11
33
38
37
23
20
-2
7
11
9
17
47
33
32
22
14
7
0
0
6
26
39
38
36
22
24
-3
2
15
30
35
46
45
21
20
12
3
-1
7
23
31
46
50
46
27
24
-4
-7
15
31
27
53
45
30
23
22
15
10
12
23
30
45
21
27
10
19
1
-2
4
1
11
37
40
32
22
12
0
8
14
40
29
34
34
34
22
8
4
1
2
10
36
32
37
26
7
11
-2
-7
-2
14
32
28
34
29
21
2
5
4
22
35
25
46
34
17
13
-4
-12
-5
10
29
32
39
43
29
16
-3
-19
-10
13
5
32
47
31
8
3
-1
-16
-20
6
25
38
25
28
16
3
-5
2
-5
11
31
50
28
23
17
17
3
-8
1
1
13
32
31
23
18
4
6
12
15
21
26
45
39
17
10
-2
-3
4
7
23
25
43
40
39
26
31
11
2
13
22
18
42
42
23
25
11
-9
-10
10
19
12
35
35
27
9
11
-4
-2
-2
9
16
38
33
25
16
6
-15
-17
-5
2
10
30
29
23
13
11
-2
0
-8
-1
14
26
33
16
8
-3
-12
-9
3
9
19
37
35
17
-13
-15
-19
-12
1
0
5
35
60
57
56
53
68
93
115
152
191
218
212
200
173
137
108
90
83
67
50
34
28
12
-5
-14
-7
-19
13
22
40
36
36
16
20
-4
-2
-14
13
26
29
23
37
14
13
-3
-1
7
6
26
31
45
37
31
23
12
-1
3
6
22
54
51
33
18
11
-3
10
20
32
22
45
26
26
18
-2
-14
9
6
14
49
56
42
40
32
39
29
15
17
35
42
64
49
47
24
48
26
28
31
51
57
80
87
76
71
47
28
34
49
62
58
87
105
91
86
71
64
61
69
79
94
109
116
110
77
63
76
75
86
81
86
107
105
104
88
75
57
61
68
82
90
86
86
71
51
48
43
41
55
53
57
69
69
55
45
25
18
12
22
32
45
43
52
33
23
3
1
1
20
31
42
46
41
35
16
3
-10
1
18
31
44
44
37
26
23
-4
-4
-9
19
2
34
48
30
17
26
1
12
13
14
25
46
35
31
23
13
3
2
8
28
21
39
41
36
33
21
5
6
3
22
20
44
36
36
27
18
11
12
17
37
36
39
47
43
26
30
9
7
7
33
39
47
47
35
27
9
2
15
23
24
32
54
40
39
21
16
-9
7
16
13
23
43
48
34
11
12
11
-3
6
20
17
31
34
25
10
6
-26
-14
-1
19
16
12
25
13
0
8
-3
-22
-15
0
11
13
0
4
4
3
-25
-39
-29
-17
-1
8
1
-13
-22
-35
-33
-39
-33
-26
-8
3
-8
-18
-34
-44
-43
-35
-21
-19
1
4
-4
-14
-32
-57
-53
-36
-20
-9
6
15
11
1
-1
-28
-17
-10
-10
2
25
39
24
6
9
5
-3
-7
17
22
29
34
32
29
23
-8
2
8
27
12
59
60
33
12
8
-15
-2
11
26
20
38
41
31
15
-2
-33
-14
-18
10
21
36
30
23
14
4
-6
0
6
6
16
30
27
15
3
15
-6
-9
-6
10
12
29
36
28
4
7
-8
-10
-1
5
15
29
23
17
-5
4
-4
-11
-4
11
4
27
25
31
9
-11
11
12
51
84
103
131
156
156
175
180
179
155
157
148
142
139
103
49
13
-14
-38
-27
-10
7
23
40
37
10
16
12
15
-4
9
29
26
41
49
28
17
4
-7
16
26
36
44
34
24
30
13
-11
4
6
16
10
48
51
44
22
17
-3
-5
6
20
34
42
51
40
20
25
4
15
13
32
37
58
45
35
39
39
12
14
24
38
38
67
64
43
25
30
16
26
23
32
57
88
68
56
44
47
36
36
49
59
73
87
82
98
85
68
48
61
70
73
77
85
111
111
104
87
66
61
64
78
107
117
111
98
91
87
61
67
77
92
82
80
94
98
76
66
52
61
42
62
68
72
71
69
49
32
20
19
24
36
40
53
56
56
41
18
5
5
7
24
32
46
49
32
18
19
-12
-16
14
34
39
47
45
38
4
4
-1
-8
14
24
30
34
44
15
8
2
4
0
13
11
38
60
44
27
11
-1
-3
12
20
33
31
43
38
39
20
-6
-5
5
19
34
40
51
37
20
18
1
-8
-5
1
20
43
43
41
32
23
19
14
4
13
16
39
34
42
23
11
-3
3
14
25
38
55
35
38
9
-2
-9
1
7
5
12
35
36
33
19
15
-9
-11
6
22
28
38
28
20
14
7
-13
-8
3
15
10
38
26
9
4
15
-6
-4
3
9
15
39
32
29
22
9
-1
-4
6
6
15
31
36
36
29
23
3
-5
-1
6
30
42
32
28
6
8
-1
1
7
20
28
37
46
29
15
10
-17
-7
-3
5
15
33
28
41
22
11
11
-1
17
35
36
42
33
14
19
-7
-5
6
10
14
29
36
32
16
4
-16
-10
-16
-2
-6
19
30
26
3
-4
-27
-10
2
2
7
8
21
18
5
0
-7
-16
-9
2
14
28
16
13
8
-9
-28
-8
-9
-9
10
27
36
13
4
-6
-11
-14
-26
-7
-5
30
20
4
-3
-8
-21
1
25
49
58
80
104
128
145
159
156
159
160
167
163
155
130
105
63
31
-3
-21
-23
-22
-3
26
14
19
5
10
-7
-7
7
14
24
33
26
13
10
6
-9
-18
-15
-3
16
24
25
26
25
10
-9
-10
1
1
19
41
26
17
3
-2
9
2
4
16
26
34
40
34
14
4
-8
1
16
30
35
48
54
41
10
-14
4
11
11
38
49
51
47
38
30
14
-7
8
20
37
42
52
51
37
43
22
16
38
47
51
66
62
56
70
55
46
47
57
50
58
79
92
89
85
77
45
54
61
68
97
108
101
85
85
71
52
55
69
69
68
95
89
76
70
46
26
36
48
57
58
65
54
32
24
31
3
19
4
22
31
33
40
28
25
22
-7
-7
3
7
26
31
36
12
10
-1
-33
-22
-7
7
17
38
41
21
0
5
-26
10
-9
14
15
27
20
9
-1
4
-24
-9
-3
13
20
29
28
28
10
-7
-26
-27
-2
9
25
48
42
28
11
-3
-21
-29
-7
25
24
41
44
44
16
-6
-4
-7
5
20
28
33
21
15
13
12
5
-5
11
11
45
42
20
10
2
-5
3
9
10
19
26
31
32
25
20
-11
1
0
-1
-1
15
22
33
14
2
-6
-15
-20
11
27
35
26
20
27
30
-11
-9
-4
13
26
28
34
33
10
3
-4
-9
11
10
11
35
19
24
6
-3
-3
-16
-11
10
26
44
38
30
12
4
-13
-17
-3
15
17
34
42
38
13
19
-16
-9
7
15
9
27
27
11
17
13
-22
-11
-3
15
36
55
39
27
15
13
-3
0
11
7
33
49
40
25
18
17
8
-1
7
32
39
68
53
21
18
21
-9
15
23
16
18
26
20
17
6
-10
-14
-13
-2
25
24
27
37
19
10
5
-12
-23
-8
7
18
33
22
11
-2
-8
-13
-2
-18
-12
21
40
25
15
17
-10
-6
-18
-2
2
30
29
25
5
4
-19
-14
-23
-15
0
16
11
14
0
21
22
22
23
58
80
121
135
158
182
191
181
175
148
150
130
131
98
74
44
19
-10
-17
-15
-17
-7
11
26
38
7
7
-4
-3
10
24
11
40
36
20
22
7
-9
4
12
15
21
42
34
40
20
25
4
-1
2
4
12
35
42
41
21
23
-2
-1
13
29
17
51
39
33
24
14
-2
16
11
33
31
38
29
34
24
20
14
12
28
33
43
64
65
50
40
20
10
17
26
56
53
61
66
68
52
48
38
26
39
64
72
59
58
69
71
35
42
60
68
78
98
95
102
94
77
62
48
61
88
86
114
108
97
91
87
47
63
69
74
77
103
94
74
71
56
50
45
35
41
48
76
72
56
46
34
20
21
18
18
27
36
48
35
21
16
-2
0
2
18
26
33
34
22
14
9
-21
2
3
12
21
30
32
22
8
7
-8
-7
3
14
-2
19
36
24
5
10
-9
-17
-11
7
13
34
35
14
14
7
-17
6
13
15
17
28
25
21
7
16
-10
-15
-8
7
23
35
32
8
-2
-1
-5
16
37
41
25
27
27
25
10
7
-9
-9
5
17
29
40
32
27
15
-5
-16
-4
-1
12
37
47
42
26
1
-25
-17
-10
11
32
41
42
61
50
16
-35
-43
-24
-10
-7
32
25
12
14
6
-18
-14
-14
-12
5
24
24
29
14
-11
5
-6
-1
7
8
28
23
13
22
16
-3
-12
-11
-1
7
15
15
11
1
-15
-25
-4
-5
-3
4
17
8
10
4
8
-11
-11
-1
7
20
41
41
18
5
-6
-31
-23
-6
16
16
43
44
28
15
22
4
-6
5
14
16
25
27
15
5
12
-16
-19
-18
-8
7
31
19
7
-17
4
0
2
1
9
20
30
34
24
1
-7
-16
-26
12
29
17
20
34
17
0
8
-20
-27
-17
-5
-1
17
38
15
-1
-8
-9
-15
14
22
26
30
19
6
-22
-21
-17
-10
0
25
48
72
76
87
86
91
111
150
184
193
207
208
195
180
131
107
73
22
14
3
15
21
5
9
2
5
12
34
20
10
24
47
43
17
12
-7
0
2
17
32
35
41
27
19
6
-2
-11
-6
16
16
40
43
32
26
16
-8
5
5
2
6
43
40
32
22
17
-5
-1
-2
10
24
49
42
29
20
28
3
14
18
33
39
48
45
50
35
12
0
18
23
29
33
50
63
54
30
48
17
16
33
39
43
59
68
71
65
55
39
48
61
60
69
81
77
79
56
55
46
68
70
75
89
107
102
79
70
70
68
68
74
81
72
74
94
83
83
59
45
37
49
70
75
87
79
59
44
28
16
28
34
34
44
62
51
31
19
-6
-20
9
24
25
39
31
48
22
13
3
-5
0
-9
3
32
36
27
5
10
3
-8
-14
13
23
31
33
29
13
1
-16
-34
-30
3
7
25
15
1
8
11
-6
-6
-23
5
27
33
27
18
9
10
-13
-7
-3
5
17
31
31
36
36
18
-9
-14
7
9
17
20
30
18
16
15
-13
-6
-1
7
19
50
30
18
-3
3
-4
-6
3
16
16
26
32
31
9
10
-1
1
10
17
21
34
23
31
6
0
-25
10
16
10
11
33
27
23
14
6
-14
-9
10
12
19
32
26
28
2
-8
-19
-12
1
7
18
27
29
16
22
5
-14
-19
6
18
22
33
44
30
-2
-4
-4
-3
5
19
15
30
40
22
13
-3
-3
-10
11
30
33
39
34
16
26
18
10
11
18
30
40
34
38
20
10
-3
-6
0
6
10
17
28
29
23
14
-12
-3
-16
1
3
24
19
14
4
3
-24
-18
-21
-15
7
45
34
35
18
-3
-28
-26
-12
0
5
23
21
18
0
1
-18
-18
1
13
12
13
18
1
2
-9
-24
-14
-15
12
5
37
42
48
41
50
60
86
119
163
182
215
224
223
185
160
129
110
84
49
32
27
4
3
8
-7
-38
-17
-6
13
37
35
29
6
3
-5
-16
2
2
20
27
29
35
22
5
-3
-10
-17
6
-1
17
24
32
22
18
19
-5
-16
3
16
31
41
31
17
16
2
-15
-10
7
3
22
39
52
32
26
11
5
12
13
25
41
33
42
24
27
7
5
3
21
34
60
72
65
35
23
10
8
15
40
67
72
58
58
58
47
31
38
39
52
62
107
95
82
68
64
57
51
59
73
72
94
90
89
87
65
60
67
70
77
101
109
87
95
81
77
57
55
56
69
75
85
74
62
45
40
22
24
38
53
35
63
45
39
14
20
3
9
8
22
24
34
26
27
4
3
-19
-11
-4
16
13
24
20
11
-5
-4
-17
-20
-9
8
11
23
21
-2
7
-16
-26
-12
3
10
9
20
12
3
-9
-21
-28
-30
-12
4
12
29
30
13
12
5
-19
-5
-3
1
16
36
32
15
-15
-6
-2
-1
6
18
21
33
24
16
11
-3
-9
-16
-5
17
27
19
31
21
3
-21
-17
-8
-12
12
27
31
26
11
-7
-18
-20
-17
-9
8
25
32
24
1
14
-26
-22
-11
-4
9
28
37
20
19
-7
-27
-15
-18
-2
-5
23
25
25
9
5
-13
-9
-27
-8
-4
22
26
14
7
-9
-30
-17
-4
12
9
27
16
27
-4
-15
-33
-18
-6
9
7
21
30
22
10
19
-15
-11
-6
1
7
53
40
30
0
-1
-4
-4
-4
20
17
28
35
28
18
-3
-5
-1
22
28
15
48
53
36
4
-15
-9
3
-5
-2
26
45
29
23
0
-10
-3
-19
8
9
25
37
34
20
8
-14
-17
-12
1
15
20
7
4
8
11
-6
-15
-13
-1
10
22
23
17
17
-5
-11
-5
-10
-12
1
25
40
36
16
-3
-20
-24
-16
-17
4
14
14
15
20
31
32
41
48
93
106
152
165
194
194
192
167
164
140
118
89
92
53
30
-5
-11
-38
-22
-13
8
23
33
32
32
14
7
-11
-17
-11
14
17
34
33
26
15
7
-17
-9
-5
14
16
39
52
24
14
19
-18
-2
6
12
25
49
48
25
15
16
-8
3
18
32
34
40
36
32
8
15
-1
1
5
29
41
44
44
30
29
20
-6
17
24
42
36
50
45
32
34
38
27
25
38
46
42
60
75
63
58
34
30
38
37
56
62
77
83
91
72
56
59
42
64
75
88
88
89
90
73
58
54
65
81
83
97
107
105
91
82
61
42
45
58
66
95
89
88
64
53
33
37
32
56
50
59
62
51
33
14
21
31
5
15
30
42
42
33
23
18
2
0
-9
6
6
21
19
18
16
4
-22
-18
-15
-1
14
39
23
24
25
17
-8
-15
-3
25
14
22
21
21
6
4
-8
-2
7
16
7
30
26
21
-5
17
1
-11
0
24
20
23
48
14
1
1
6
-3
1
22
21
24
27
37
17
6
-6
-11
4
24
13
30
41
31
16
-1
-6
-4
14
23
9
39
41
14
9
14
-11
-17
-11
9
19
48
48
27
-7
-2
-8
-8
-3
6
35
32
35
13
-6
-11
-10
-23
-11
2
-6
25
36
31
4
-7
2
3
3
16
26
25
26
22
11
-26
-18
-7
18
25
22
21
31
10
5
-17
-7
-5
-10
1
25
43
31
26
16
5
3
-2
1
11
31
29
35
27
29
4
15
4
21
42
29
12
17
15
5
-4
1
2
13
18
52
31
25
6
-9
-33
-7
-10
6
30
52
40
22
-1
-6
-14
0
6
3
15
28
22
8
12
7
-5
-13
-4
3
11
19
24
20
-5
-6
-14
-2
1
14
17
27
30
10
-1
-5
-6
-12
1
-2
15
14
18
10
-8
-11
-5
10
5
32
64
101
104
117
131
158
163
166
170
176
175
165
142
95
69
41
-5
-32
-30
-12
-8
12
23
27
8
-13
-8
6
19
31
27
24
15
9
1
-16
-3
2
8
19
35
28
31
20
16
-8
-13
-7
10
21
45
43
40
11
21
-5
0
-4
19
34
43
39
42
25
12
0
18
18
27
41
64
44
38
29
15
6
13
6
21
31
44
54
61
32
27
26
20
30
42
55
72
81
72
61
44
22
36
32
59
68
87
96
83
91
79
46
48
60
79
82
98
89
78
76
85
78
82
73
86
99
121
98
99
95
102
75
74
79
77
86
103
93
99
86
87
63
66
73
78
87
92
89
76
56
45
28
24
40
27
50
79
67
57
46
38
15
5
16
37
51
50
47
55
47
20
-7
8
23
32
42
64
56
36
24
10
7
19
28
37
28
40
50
42
17
15
22
4
24
47
43
56
50
30
29
4
8
12
28
29
50
68
61
48
29
6
7
21
51
44
45
63
48
35
16
-8
6
24
36
42
60
44
47
42
24
21
20
30
38
39
55
54
52
44
24
6
5
17
31
28
43
51
63
47
24
0
18
22
19
17
61
56
40
31
30
-1
4
28
46
33
64
60
41
32
25
-5
13
22
32
35
44
42
44
34
21
0
10
17
19
36
63
58
43
31
24
3
8
23
31
40
45
65
55
15
18
4
-6
22
24
35
62
56
45
42
20
6
-2
21
38
46
54
62
51
41
25
8
14
20
41
59
63
66
44
34
25
19
23
37
48
67
65
49
43
43
20
17
12
28
41
44
38
41
30
34
5
-7
7
32
39
48
47
46
40
24
2
4
6
21
24
53
52
37
26
25
16
14
17
26
30
32
46
37
10
23
10
8
20
16
25
55
57
47
22
3
-8
-11
-6
27
13
42
38
47
40
49
37
61
83
115
125
162
182
211
202
193
185
169
161
146
125
126
83
50
25
17
-14
1
-3
16
35
56
47
44
47
29
6
19
31
35
39
67
62
44
25
17
15
6
24
31
39
67
60
36
40
20
12
22
31
35
50
61
51
46
37
26
18
7
36
43
51
68
53
48
37
41
23
28
25
34
61
68
64
43
35
26
29
25
36
63
79
81
70
71
50
28
31
42
59
70
91
73
88
68
61
52
53
49
62
70
102
104
99
90
78
66
72
64
74
85
103
97
114
95
70
47
65
76
82
84
103
105
95
85
83
64
68
60
74
93
106
85
82
72
69
41
45
39
50
51
81
82
59
38
30
1
20
19
32
39
53
49
46
34
32
4
3
10
10
22
46
44
39
16
2
-2
-6
11
29
24
22
45
39
31
24
-6
-8
6
25
13
31
35
22
16
15
0
1
13
24
35
38
29
34
12
14
0
5
15
23
30
38
43
32
25
20
10
7
21
31
33
52
41
33
25
10
3
5
25
39
47
52
49
35
21
15
10
13
20
38
48
55
44
37
23
-3
1
15
27
37
41
58
55
38
26
-2
12
27
24
37
50
51
51
42
23
1
12
5
20
21
50
47
42
33
25
10
8
4
13
27
39
37
45
42
27
-7
3
14
34
37
57
49
36
32
26
3
7
8
26
24
38
43
38
29
22
-7
5
20
35
36
50
45
39
23
23
10
2
3
40
39
54
43
47
39
29
7
10
28
34
38
53
54
57
47
37
25
19
18
41
55
53
53
52
28
28
18
11
20
42
35
37
43
44
40
22
-12
-9
11
32
36
47
52
43
28
11
4
18
19
18
36
59
49
29
16
16
12
7
15
15
16
41
38
27
14
4
-6
0
21
31
36
40
44
30
12
0
4
8
14
18
23
30
30
33
34
5
21
42
75
92
114
127
150
170
190
169
166
166
175
163
165
132
98
56
29
-5
-16
-12
15
12
29
42
40
32
43
27
18
13
21
26
41
57
42
30
21
4
8
29
28
40
55
54
49
29
20
4
6
24
31
42
63
59
41
17
21
11
8
17
49
47
66
65
49
41
33
13
11
27
47
45
71
78
53
39
34
28
29
49
59
39
56
64
51
38
56
51
40
38
51
56
78
76
79
60
55
45
38
60
64
83
94
98
88
72
65
54
53
79
84
101
112
114
112
85
68
79
94
103
109
107
128
121
99
95
78
70
72
91
101
113
104
95
98
93
55
56
68
61
76
95
87
66
60
54
40
28
29
57
60
75
60
56
53
42
15
14
15
25
44
70
62
63
26
12
8
12
2
19
32
53
55
51
36
31
3
4
7
17
35
52
57
51
34
14
-4
11
12
29
29
61
64
42
36
31
1
-2
30
44
25
47
55
49
39
26
-5
13
23
36
47
67
55
44
23
18
9
25
22
31
43
60
56
35
26
17
13
9
35
41
46
58
49
45
33
12
4
5
8
25
45
67
63
35
20
13
5
20
22
36
47
67
63
30
9
0
5
17
23
36
43
56
61
40
27
6
7
9
22
29
46
46
46
42
26
9
8
15
19
30
50
40
47
32
26
24
7
10
40
52
50
50
49
23
23
6
13
9
29
41
59
49
42
29
19
7
1
8
13
30
51
49
45
33
37
12
17
13
23
16
32
40
26
12
5
-12
-14
2
16
16
39
30
33
23
13
-14
-10
-11
-5
11
52
40
27
14
8
-14
2
-12
7
19
25
26
33
15
11
-24
-16
10
17
14
38
33
19
19
19
-10
-26
-10
7
13
21
23
24
-8
-3
-12
-12
-5
8
29
49
62
55
59
76
75
103
122
163
186
193
198
185
161
123
87
76
55
38
36
12
13
10
0
-4
-9
-17
6
20
34
41
27
13
10
1
3
-2
19
24
28
25
29
23
27
1
1
-4
18
31
41
50
34
36
8
8
9
12
21
34
44
33
23
19
18
7
11
11
24
39
63
64
54
31
14
-7
6
19
36
32
58
53
42
34
19
11
19
21
32
33
46
51
45
38
26
13
9
13
32
33
70
65
65
48
39
30
28
37
43
42
68
69
67
54
47
19
29
54
74
89
89
85
84
77
74
33
29
48
70
74
90
85
76
59
54
34
40
47
59
62
70
58
46
39
24
14
3
17
21
15
42
53
46
22
-2
-11
-14
-7
9
13
13
16
18
-1
-18
-27
-20
-4
0
-3
18
20
13
0
-15
-24
-25
-14
-7
7
16
12
3
4
-18
-23
-16
2
0
-1
23
23
6
-3
-21
-16
-5
7
8
32
32
29
3
-8
-22
-10
-4
-9
10
25
26
13
3
-9
-12
-3
-7
-6
17
30
28
27
3
4
-11
-20
-16
-17
-11
26
30
31
10
11
-14
-5
6
13
10
25
26
26
-4
3
-8
-16
-13
-3
7
33
29
22
12
14
-3
-16
-19
7
21
38
33
14
-2
-10
-24
-13
-5
3
13
28
34
17
3
-12
-30
-18
0
16
28
20
17
16
-1
-1
-22
-11
-9
7
23
28
33
17
-4
-2
-1
-7
7
3
-2
19
24
20
17
0
-28
-23
-5
9
23
30
21
22
-4
-12
-13
-2
7
13
19
28
27
19
12
-7
-17
-1
9
17
32
42
36
29
3
-7
-27
12
24
25
49
47
46
25
20
-4
3
6
16
24
30
9
27
15
12
-6
-14
-17
-7
23
41
31
25
2
3
-9
-21
-10
-6
14
38
18
20
1
1
-15
-16
2
5
21
34
30
39
19
3
-28
-22
-15
-2
9
25
23
22
5
0
-22
-20
-9
-5
17
39
12
3
-3
4
-16
5
20
33
58
103
110
106
127
165
163
164
177
187
171
151
118
98
62
29
-9
-40
-34
-17
5
29
38
35
27
10
-4
-7
8
20
21
28
30
20
11
12
-11
-12
7
18
33
39
27
23
16
-2
2
2
9
21
33
41
28
22
10
13
4
4
7
23
41
43
48
28
13
5
4
2
14
30
43
49
38
23
35
13
11
15
24
36
53
55
48
33
28
9
16
35
52
41
60
56
50
37
44
32
30
22
38
60
87
81
71
60
63
32
43
51
59
76
104
99
91
83
72
60
57
61
73
77
107
100
91
76
83
61
71
80
71
81
87
87
90
72
70
39
43
54
64
57
73
68
67
45
34
25
14
25
37
35
48
54
46
25
17
4
5
0
20
20
50
50
30
18
5
-9
-6
-3
17
31
47
27
18
18
10
-9
-7
5
13
21
34
38
30
20
-2
-9
-9
-4
6
12
34
40
28
22
21
1
-5
-1
18
38
39
40
28
13
0
2
-6
-9
24
35
47
50
27
12
1
6
-7
16
15
32
38
32
19
7
-9
8
12
22
24
37
37
31
25
28
2
-1
-8
6
13
43
47
33
24
20
7
5
21
7
9
35
31
34
20
1
-8
5
13
22
20
45
35
17
7
2
-11
-12
5
20
22
33
34
20
13
18
13
13
9
4
9
38
41
24
8
2
-13
-3
17
20
11
34
25
23
18
13
-7
-7
4
4
20
43
41
18
21
11
-4
-7
1
18
27
53
34
23
13
1
-11
-10
-9
17
36
45
45
35
31
18
8
0
14
35
46
50
54
35
30
0
-11
5
12
39
39
29
23
4
7
-6
-5
7
5
8
28
25
29
22
5
-4
-21
-16
3
17
38
29
16
23
1
-7
-19
-14
-3
10
27
35
19
12
12
-14
-18
-17
6
11
22
33
26
16
9
-22
-21
-19
-5
12
27
22
9
4
1
-15
10
22
60
74
115
108
129
150
161
170
169
174
174
166
168
139
109
69
25
-22
-27
-22
-1
5
28
30
33
25
18
-12
-2
6
15
22
36
42
25
21
12
-6
-18
-7
15
24
42
38
29
15
21
8
-9
10
28
21
47
44
26
3
9
-10
-2
12
22
31
45
46
31
7
11
6
14
34
42
31
32
44
29
21
14
14
16
21
28
48
62
57
51
33
13
25
24
32
50
55
64
71
64
46
21
22
37
45
39
67
86
70
63
59
51
53
62
59
65
76
78
93
75
87
70
57
59
80
90
109
101
108
89
65
45
57
61
70
82
97
93
89
69
60
31
47
52
46
53
71
62
49
36
21
-1
12
19
21
28
44
56
29
25
1
-10
-13
-2
11
26
44
33
17
10
16
-16
-25
-15
8
18
22
27
15
14
13
-9
-3
-9
2
12
30
30
23
-6
-8
-23
-13
3
13
10
40
44
17
-5
0
-8
-11
1
18
25
31
37
25
-3
6
2
2
-11
16
24
45
41
33
7
-13
-18
-15
12
19
34
43
38
29
21
6
-11
-20
-3
10
25
28
37
30
11
5
-15
-15
3
13
19
37
46
24
2
-12
-7
-2
8
17
40
37
46
21
17
-8
-18
-2
12
22
28
32
35
15
-3
-25
-13
-19
-2
18
35
39
20
16
1
-16
-7
-3
15
24
25
29
24
10
13
6
0
9
-1
7
40
32
32
11
6
-21
-9
-9
2
16
36
32
23
6
8
-29
-13
10
29
24
47
41
30
15
1
1
5
6
9
9
47
49
30
22
22
8
3
8
29
48
61
33
24
13
17
6
-2
-9
15
29
33
24
19
5
1
-20
-13
5
14
10
44
34
15
14
-1
-9
-6
-2
9
22
31
31
21
10
-11
-17
-16
-19
15
28
41
36
14
-8
-22
-26
-21
-3
20
18
23
25
15
2
1
-7
-30
-6
-3
24
23
-7
10
-2
8
21
43
62
87
123
151
172
186
182
179
181
166
165
152
132
104
79
41
3
-34
-24
-18
-1
18
37
41
18
10
31
-11
-4
0
7
14
33
42
32
13
6
-5
-7
9
28
27
51
39
33
14
13
-16
-7
17
23
31
48
47
34
20
21
12
9
20
14
32
41
39
38
27
25
18
10
23
46
46
57
60
47
37
35
17
14
22
35
39
53
53
53
41
29
24
23
23
38
53
60
67
51
45
49
46
40
53
75
72
95
88
74
63
66
64
60
76
89
101
105
112
95
87
79
62
69
81
94
108
97
96
88
100
76
68
72
79
80
96
100
93
88
75
54
52
49
57
65
75
80
81
62
47
32
26
20
36
38
50
50
34
38
31
-3
14
18
33
39
59
50
40
34
10
3
6
2
14
32
49
40
36
27
33
6
16
14
24
15
45
48
27
25
12
-26
-7
7
35
29
47
57
47
31
34
-14
-1
25
29
31
46
48
41
22
25
4
10
29
28
32
50
53
38
20
22
9
4
10
30
31
38
48
45
24
13
-1
17
23
43
40
61
61
42
21
-2
-9
-9
10
36
41
56
43
42
21
23
12
5
17
25
32
48
50
26
17
5
-3
7
18
24
46
57
35
32
15
14
12
7
20
25
26
38
33
28
30
31
11
6
15
31
32
29
42
29
18
-2
5
8
21
19
36
38
42
34
15
6
11
-8
12
28
43
46
36
26
16
2
9
16
16
18
40
48
33
18
26
4
1
7
20
44
37
41
32
17
11
1
-8
-1
15
31
58
51
57
29
34
7
17
21
24
32
50
54
36
31
28
14
14
20
32
25
37
38
39
27
2
-15
3
8
29
38
37
36
36
13
-5
-10
-12
3
18
33
48
31
29
27
20
-9
-8
2
10
17
32
24
28
26
6
-23
-7
5
6
21
34
33
29
18
0
-12
-10
1
8
27
36
23
4
6
-8
-20
13
27
56
73
88
104
124
138
145
167
164
178
181
195
160
131
101
67
27
2
-24
-8
8
21
21
16
15
12
-7
-1
9
17
23
40
43
44
30
1
-9
-7
-1
10
31
32
45
40
36
23
9
6
11
12
25
44
33
27
20
18
6
13
10
21
45
53
63
43
33
33
14
10
11
8
24
62
58
36
31
32
6
22
26
28
28
63
62
43
39
40
29
23
42
34
37
60
75
70
44
43
38
28
53
66
58
81
86
71
66
60
54
47
59
75
81
99
103
89
89
88
63
70
77
90
101
101
80
92
85
70
58
59
65
82
99
104
107
87
70
73
61
46
49
41
67
88
78
65
59
46
35
26
21
36
47
52
53
43
33
5
6
8
35
49
41
42
29
15
5
-4
-6
-2
25
28
38
44
34
14
12
-3
6
5
-2
11
30
37
42
25
6
-5
7
-2
11
25
49
38
28
17
6
-3
10
10
5
12
43
48
32
28
28
-3
13
26
11
25
28
27
30
25
17
-11
-5
12
19
21
34
45
39
23
13
-14
-8
11
14
12
48
30
27
4
1
-3
4
12
26
27
41
35
31
22
14
-1
-2
3
9
-1
22
37
38
21
-7
0
-6
10
11
26
38
31
25
16
13
2
-1
-11
11
9
20
38
23
16
3
-2
3
7
3
19
22
35
35
13
-3
-19
-3
2
19
24
22
31
22
9
-3
-6
-1
8
25
17
27
14
8
15
-16
-21
-9
-6
13
30
20
15
11
8
-21
-18
-1
26
12
34
34
28
11
11
-8
-7
7
19
4
25
30
26
31
15
1
24
21
15
20
37
33
37
31
19
-3
3
9
12
25
34
34
31
33
4
-18
-8
7
13
12
27
29
28
9
8
-18
-16
-7
7
22
39
30
11
-2
13
-10
-17
8
3
15
31
34
21
15
2
-6
-12
-15
10
3
22
25
23
6
11
-12
-7
-2
16
16
18
20
15
0
-17
-23
-36
-11
19
39
68
67
62
76
76
85
119
151
183
195
210
191
162
138
117
74
51
29
24
6
11
19
5
-8
-18
-20
-15
9
14
32
45
33
34
32
6
-7
-11
-2
21
40
48
32
19
-4
-19
3
1
16
38
50
37
36
14
13
-1
11
8
3
16
36
50
40
35
24
-3
1
8
10
33
49
46
47
43
24
-6
3
10
31
39
58
45
52
39
36
6
9
21
32
38
69
58
50
41
44
38
29
28
40
71
80
73
70
57
55
16
32
62
66
82
98
95
85
67
69
52
53
61
86
93
114
108
98
90
97
70
81
71
84
107
104
103
82
69
71
57
47
40
65
74
85
87
69
62
58
39
29
29
46
53
66
63
37
27
31
19
-2
19
26
35
52
49
29
20
2
-8
1
24
32
33
42
30
21
13
7
8
4
5
7
29
37
30
7
-4
-10
5
14
16
24
38
21
30
21
15
3
0
9
34
32
38
35
22
21
-1
-3
-9
-11
7
21
47
37
45
28
16
-1
-3
-1
13
21
49
44
37
41
14
-8
-6
2
19
41
49
39
31
14
9
0
-8
2
31
32
35
31
27
23
16
-7
0
10
20
30
33
33
32
22
9
4
-6
-13
-13
22
50
34
27
10
13
1
-1
14
27
23
31
32
23
9
3
-9
-5
9
16
21
28
31
25
4
0
-21
-8
-3
8
30
43
33
29
10
7
-10
-6
1
12
18
38
41
32
9
-20
-19
3
11
14
18
27
37
18
11
4
-6
14
9
22
20
26
26
18
-4
-10
-17
-16
-1
18
33
41
35
18
5
-14
-19
-19
-2
18
34
42
49
26
-3
-16
-15
-13
5
16
40
45
21
19
15
6
0
13
15
19
30
37
39
22
16
6
2
4
25
38
49
61
41
18
19
2
1
7
12
25
42
40
38
13
10
-7
-7
-10
1
28
40
35
31
15
6
-17
-1
11
6
8
25
30
17
10
1
-13
-15
3
11
4
31
36
17
21
2
-18
-19
-2
3
15
34
24
23
19
15
-2
-2
-17
-8
14
15
14
8
8
-9
-24
-18
1
19
43
74
72
79
74
79
96
126
162
189
206
213
189
174
139
96
64
37
22
18
11
7
12
11
6
-6
-25
-9
9
31
35
37
25
8
18
-8
-6
-15
11
23
34
35
37
24
19
-1
-3
-7
12
21
43
39
39
20
13
1
7
2
21
22
29
34
34
28
11
-2
7
13
23
28
37
38
45
17
20
8
10
18
34
41
53
39
37
13
28
6
16
21
47
47
70
53
54
30
39
23
22
35
38
57
85
72
64
46
47
32
36
53
64
69
90
111
92
65
55
54
62
71
82
93
93
90
82
87
80
66
63
78
80
92
107
82
80
81
61
58
58
70
68
66
84
87
63
52
43
33
34
39
46
51
55
55
36
25
11
3
7
15
30
29
39
28
23
21
-3
-8
0
6
13
27
49
30
4
-1
-4
-7
-16
0
16
30
28
25
17
19
4
-8
-3
2
11
30
21
28
24
0
-23
-9
-17
-1
22
40
42
19
11
16
-11
-14
-16
5
28
29
32
29
12
14
-5
-11
-2
8
11
30
35
35
21
2
-11
-18
7
10
25
43
34
20
15
15
-7
-13
-3
9
8
28
38
27
17
5
-12
-11
2
-13
25
43
28
24
15
17
-15
-19
7
19
11
19
33
11
-8
-2
-6
1
-4
10
15
23
38
9
9
2
-11
-14
-10
-8
8
35
39
25
8
-1
-21
-16
-7
10
32
27
27
15
0
-6
-22
-12
-2
-1
12
26
26
8
1
-13
-14
-16
5
12
20
25
33
19
-2
-10
-16
-16
2
13
8
18
11
20
1
-19
-8
-15
6
18
24
11
26
9
-11
-19
-18
-3
3
0
13
26
26
8
-8
-10
-12
-18
0
13
33
22
20
17
6
-5
-2
4
3
5
23
30
14
19
16
-14
-1
14
-1
2
32
46
38
26
19
1
-1
-4
2
0
22
17
15
-3
9
-17
-28
-14
7
19
39
29
22
-2
-8
-24
-23
-16
2
3
21
20
10
1
-8
-19
-28
-19
14
10
19
14
6
5
7
-10
-23
-30
-22
6
16
8
5
8
-5
-14
-6
-12
-8
7
10
11
10
-6
-22
-22
-16
-5
10
42
67
69
71
84
89
113
145
164
184
175
155
142
125
86
60
23
3
-6
-12
-7
-2
2
5
-4
-28
-13
-4
10
18
22
17
14
10
0
-21
-14
-10
-2
7
39
28
5
9
-7
-21
-18
-17
11
-2
30
31
27
17
2
-11
-8
9
16
12
31
33
23
10
3
-13
-6
-3
13
16
35
21
18
19
21
-10
-13
9
13
33
43
34
28
13
13
5
14
6
6
28
49
50
48
25
17
7
23
19
33
45
67
65
55
43
31
10
22
46
71
60
70
65
51
64
72
56
43
56
67
81
90
81
65
74
66
55
49
59
79
86
87
78
56
56
61
44
38
40
54
70
80
65
50
39
24
13
12
13
25
47
50
29
13
28
13
-7
-1
15
26
23
36
28
9
7
-17
-24
-19
-1
3
17
20
13
11
-2
-16
-10
-21
-8
1
26
14
15
-2
5
-27
-29
-5
4
6
27
26
14
16
-12
-30
-15
-16
0
6
29
18
18
9
-6
-23
-20
-18
-3
21
39
13
12
-10
4
-3
-17
-5
6
7
17
28
18
-3
-4
-21
-22
-1
19
8
27
18
16
17
2
-26
-26
-18
-1
9
29
27
18
12
5
-14
-15
-12
7
16
22
25
20
7
3
-13
-21
-21
6
8
17
24
22
-7
-8
-24
-21
-9
-5
9
28
28
2
-3
-5
-10
-10
-11
2
21
15
11
16
4
-10
-14
-21
-9
1
12
20
9
14
-11
-18
-16
-28
-28
-11
12
24
23
16
0
-8
-20
-26
-6
7
4
21
32
3
-13
-20
-22
-19
-19
-3
18
18
17
7
-2
-22
-26
-27
-18
6
25
16
14
3
-18
-22
-11
-21
-17
-5
18
24
11
5
7
-12
-17
-22
-13
2
23
17
1
-2
-1
-23
-20
-10
12
8
19
19
11
6
11
-17
-26
-11
-3
8
32
34
32
22
4
-9
-10
-2
13
6
26
25
31
11
-6
-19
-10
-2
7
15
28
25
26
6
-4
-24
-24
-22
3
-9
25
25
10
-11
-7
-23
-19
-7
-6
-3
7
13
9
-5
-16
-25
-14
-36
-15
0
13
17
-3
-9
-8
-22
-32
-18
-3
0
17
17
9
-6
-26
-21
-27
-21
-19
-6
10
-4
0
2
9
-10
-4
31
61
85
102
118
134
165
157
157
149
163
159
161
135
102
50
14
-27
-33
-37
-29
-13
10
6
3
11
6
-20
-7
-5
-3
15
31
15
16
10
-11
-23
-18
-6
-7
8
23
19
20
20
7
-20
-21
-14
6
1
31
24
23
4
10
-17
-9
-5
9
17
24
33
30
18
10
-3
5
11
13
9
39
30
17
10
10
-12
2
3
11
30
44
41
41
27
18
-17
1
18
36
33
56
56
39
38
43
10
19
34
32
39
71
58
62
40
57
41
40
50
71
74
81
79
71
61
62
58
44
46
62
84
88
87
89
60
54
34
33
49
64
60
67
69
40
47
43
22
25
28
37
40
51
50
37
27
8
-1
-4
-4
8
20
18
17
11
3
-23
-19
-17
-20
-9
9
11
1
-7
-16
-30
-29
-29
-22
-5
14
13
0
-15
-25
-32
-33
-30
-27
-18
7
-3
-7
-8
-29
-41
-30
-34
-30
-18
9
5
-2
-2
-12
-42
-28
-26
-18
-19
-2
2
4
-18
-25
-39
-27
-21
-13
-12
26
5
-1
-3
-14
-42
-24
-23
-28
-30
15
3
-1
-11
-9
-31
-31
-21
-5
-5
7
5
-10
-25
-46
-35
-19
-17
-17
-13
10
9
10
-13
-13
-34
-41
-42
-21
2
4
-3
-9
-19
-28
-34
-35
-33
-2
7
4
-6
-20
-21
-32
-45
-28
-20
-10
-12
-11
1
-4
-10
-21
-47
-48
-30
-12
4
10
-4
1
-20
-27
-39
-44
-28
-10
8
-2
-1
-11
-22
-43
-38
-43
-24
-3
-5
-5
6
-10
-19
-35
-40
-30
-20
-4
7
-7
-14
-16
-29
-42
-36
-41
-20
-7
9
9
8
-11
-20
-38
-35
-43
-18
-14
6
8
4
-8
