-13
-12
18
30
25
18
9
9
1
-7
2
15
26
33
28
16
7
-3
-7
4
-1
8
26
29
30
8
7
1
-10
3
1
11
22
33
16
27
42
7
16
17
21
23
29
43
34
27
16
1
8
8
9
10
51
67
52
42
36
10
27
27
45
51
46
55
67
72
36
38
41
41
47
56
63
66
87
76
55
35
34
51
41
61
73
79
88
69
53
39
37
29
37
51
54
56
45
29
18
3
12
6
16
26
44
28
31
24
11
-9
-23
-8
12
16
18
19
9
5
-13
2
-10
-4
-7
4
15
20
18
6
-7
-17
-19
-7
-28
-18
18
25
11
4
-6
-1
-18
-15
-7
1
6
20
21
13
-1
-15
-32
-30
1
23
18
13
7
1
-20
-21
-35
-21
5
14
17
27
21
1
-14
-9
-13
-18
-5
4
19
9
-3
7
-5
-3
-20
-37
15
17
22
26
16
4
-7
-11
-3
-7
-19
-8
10
-13
-6
10
2
1
-19
-24
-10
-8
2
13
12
-3
-17
-26
-11
-13
-13
8
14
2
1
-22
-5
-7
-4
-2
-6
10
-4
7
-9
-9
-37
-25
-15
-5
0
21
18
-27
-20
-6
-17
-30
-28
-6
19
10
13
-12
-8
-8
-8
-19
-11
-6
0
6
4
9
-10
-30
-35
-27
-9
-3
5
2
-7
11
-12
-18
-11
-41
-24
-19
2
1
14
8
-6
-26
-15
-11
-9
1
14
9
-7
-13
-3
-25
-34
-29
-21
-3
8
15
20
12
-3
-17
-28
-31
-19
-19
5
23
19
-9
4
-15
-9
-5
-10
-5
21
25
32
26
22
-1
-15
-14
4
14
15
7
4
-4
-8
-25
-36
-28
-16
-19
1
2
-3
1
12
-12
-24
-32
-17
-16
2
17
18
-6
-30
-7
-10
-25
-33
-11
6
9
6
3
-23
-22
-11
-14
-20
-21
-7
-14
-10
6
5
-18
-27
-46
-27
-2
-1
-12
-16
-2
-9
-28
-11
-3
18
34
51
59
89
112
128
121
117
125
118
127
100
80
68
24
-10
-32
-31
-45
-45
-28
1
-1
10
9
-20
-22
-21
-15
-6
12
7
13
-8
-27
-22
-19
-12
-6
-6
23
17
3
-12
13
3
-3
0
-6
-10
-2
12
17
8
-4
-21
-19
-26
-10
6
13
25
12
-4
-6
1
0
0
-6
-17
11
26
36
15
14
11
0
-11
-16
5
24
30
33
29
-6
-7
-15
-17
8
20
34
44
35
35
-2
-15
4
27
45
36
49
46
38
45
26
19
20
33
48
59
61
62
55
51
50
38
28
33
29
32
68
77
72
57
36
52
26
25
28
38
36
38
61
56
16
16
16
10
41
18
21
14
20
23
4
-1
-18
-18
23
20
4
18
24
-13
-16
-33
-35
-10
-8
3
16
4
-14
-11
-13
-40
-28
-42
-31
3
-7
-7
-9
-4
-4
-28
-25
-15
-19
-8
6
13
-7
-23
-23
-23
-43
-29
-29
-9
6
17
13
5
-28
-52
-44
-13
-23
-16
9
27
12
-2
-17
-11
-25
-13
1
17
18
-7
-3
-5
-32
-28
-39
-15
-3
23
13
7
11
1
-28
-25
-24
-20
-14
6
14
12
14
4
-10
-20
-27
-19
-3
14
6
3
-11
-27
-30
-32
-40
-9
14
7
20
11
-11
-20
-26
-36
-37
-4
14
4
0
16
-2
-11
-19
-49
-32
-16
-18
-19
15
18
13
-8
-21
-19
-20
-12
-12
-8
5
7
7
-12
-34
-27
-29
-29
10
15
-2
-18
-7
-11
-6
-25
-34
-34
-19
-5
20
4
-3
-14
-29
-17
-19
-23
-9
6
13
-3
-18
-9
-17
-26
-30
-21
-1
0
-1
8
1
-5
-16
-19
-29
-20
-5
-3
0
-7
-20
-34
-43
-22
-2
-17
-7
8
3
-1
-16
-25
-21
-19
-23
-17
-8
8
21
10
-6
-25
-40
-11
-12
1
11
5
14
-9
-11
-19
-18
-45
-47
-9
16
10
4
5
2
-13
-23
-13
-16
16
27
7
17
6
-13
-26
-30
-24
-9
2
10
13
7
-5
-29
-36
-21
-33
-36
-31
-6
2
-1
-10
-27
-28
-33
-9
-5
-13
-18
6
0
-18
-27
-41
-37
-40
-29
-20
2
2
-13
-29
-37
-14
-30
-19
-32
-22
-19
-5
-2
-8
-40
-54
-42
-43
-26
-7
-9
-20
-9
-1
5
0
-3
5
27
60
80
114
127
128
105
114
109
80
59
72
65
41
3
-18
-28
-39
-56
-71
-42
-18
9
18
9
-2
-23
-21
-17
-17
-17
-25
-15
11
-14
-35
-25
-18
-17
-11
-16
-7
-1
25
-8
-27
-17
-26
-32
-41
-10
11
17
8
-12
-10
-20
-27
-17
-19
-30
0
7
20
10
-18
-8
-30
-26
-11
-13
-12
18
12
0
-6
1
-3
-32
-30
-2
9
5
21
22
-2
-5
-24
-6
10
6
36
30
29
22
21
9
-3
12
9
-1
21
53
43
39
25
11
15
18
37
44
57
58
49
30
29
42
29
19
42
44
64
63
50
47
42
28
29
21
38
48
43
52
48
29
16
13
5
0
-23
23
31
14
6
1
13
-5
-24
-16
-10
5
-13
3
16
7
-23
-51
-52
-43
-21
1
2
1
3
-6
-40
-34
-21
-29
-31
-3
-17
-28
-19
-35
-15
-13
-14
-30
-15
-21
-21
-16
-18
-9
-29
-41
-48
-28
-22
-16
0
3
-5
-17
-26
-36
-49
-40
-23
5
1
-1
-9
-9
-21
-30
-29
-29
-21
-10
1
6
-10
-30
-38
-27
-33
-35
-32
-24
3
13
-3
-14
-29
-38
-29
-23
-12
-16
-9
3
-13
-20
-17
-44
-29
-19
-8
-11
-1
8
-10
-23
-36
-35
-40
-29
-7
-3
-2
-6
-13
-31
-31
-35
-25
-32
-26
-19
-11
-11
-7
-27
-42
-47
-56
-16
-2
12
11
-13
-19
-11
-33
-30
-34
-27
-13
-10
-15
-14
-20
-16
-47
-49
-50
-31
-8
2
-2
-15
-16
-30
-50
-34
-18
-31
-18
-20
-4
9
-26
-40
-34
-36
-48
-38
-17
-10
-1
-4
-18
-21
-31
-32
-35
-32
-26
-21
-18
-32
-36
-10
-35
-41
-15
-6
-9
-10
-8
-12
-25
-39
-40
-77
-46
-18
-5
6
8
-7
-20
-45
-39
-31
-25
-19
-9
-4
-9
-20
-22
-24
-39
-65
-65
-4
18
4
-3
-14
-7
-12
-24
-39
-26
-39
-22
-9
13
1
-18
-16
-33
-42
-31
10
19
8
-4
-4
-13
-18
-24
-19
-26
-19
2
2
-13
-10
-11
-20
-19
-23
-37
-47
-11
-13
-18
-15
-32
-34
-37
-26
-33
-31
-15
-2
-8
-24
-40
-27
-30
-30
-51
-28
-6
-9
-24
-40
-48
-29
-37
-29
-29
-6
-20
-2
-3
-18
-38
-37
-47
-60
-48
-21
-11
-11
-21
-27
-32
-39
-30
-17
10
46
70
72
91
85
87
124
125
117
112
113
112
85
54
1
-28
-39
-46
-51
-42
-23
-21
-20
-13
-11
-50
-54
-21
3
-15
-16
-4
-15
-26
-18
-24
-26
-32
-38
-16
-5
-8
-12
-11
-8
-33
-48
-41
-31
-36
-26
-17
0
-2
-19
-19
-21
-29
-33
-53
-28
25
16
7
-5
-22
-24
-28
-23
-12
9
3
-13
-10
-11
-3
-5
-6
-6
4
-2
2
6
-7
-18
-27
-12
1
4
23
8
-10
-7
19
11
-11
-17
-3
23
37
37
30
38
41
15
3
7
4
12
55
59
68
59
50
16
4
4
26
20
44
58
72
56
52
45
38
22
27
41
50
50
47
44
26
15
2
7
6
14
27
23
25
25
10
-12
-19
-15
-29
-35
-19
20
18
-11
-26
-25
-25
-33
-21
-15
-5
-7
-15
-17
-15
-23
-33
-39
-41
-32
-15
-11
6
-12
-24
-44
-45
-33
-27
-20
-5
-10
-9
-11
-18
-26
-29
-28
-36
-14
-30
-33
-3
-10
-23
-43
-43
-28
-31
-17
-10
-15
-31
-27
-19
-27
-32
-17
-18
-20
-19
-12
-3
-28
-14
-13
-26
-31
-36
-20
-16
-16
-8
-18
-35
-20
-33
-42
-44
-25
-21
-6
-10
8
-36
-28
-27
-37
-35
-36
-13
-4
-17
-24
-11
-22
-33
-33
-23
-43
-24
10
-3
-10
-32
-51
-51
-38
-32
3
-6
-13
-16
-25
-19
-26
-30
-22
-28
-30
-17
-15
-30
-25
-33
-52
-50
-50
-18
-5
-16
-27
-13
-24
-45
-35
-40
-43
-31
-32
-20
-4
4
-31
-28
-50
-49
-32
-14
0
-3
-7
-23
-35
-41
-39
-39
-32
-38
-15
-6
-22
-11
-22
-51
-36
-29
-16
-23
-28
-7
-11
-12
-20
-43
-47
-42
-35
-32
-31
-10
-5
-34
-33
-35
-26
-43
-40
-28
-5
2
-4
-12
-24
-42
-56
-50
-43
-28
8
-8
-25
-19
-26
-30
-32
-48
-19
-9
-6
-15
-34
-20
1
-27
-31
-23
-19
0
5
-11
-20
-20
-11
-21
-25
-38
-40
-23
-12
6
10
-4
-19
-23
-34
-30
-17
-34
-22
-1
-4
-21
-47
-41
-41
-34
-33
-25
8
0
-36
-34
-42
-36
-39
-41
-34
-48
-24
2
-6
-13
-43
-57
-48
-52
-42
-6
-4
-15
-15
-31
-51
-45
-53
-37
-33
-21
-23
-33
-31
-25
-19
-43
-48
-61
-34
-24
-19
-6
2
10
6
22
28
48
97
116
132
117
109
87
56
38
12
11
1
-16
-50
-49
-54
-43
-38
-49
-58
-40
-38
-15
-2
2
-11
-14
-41
-55
-42
-20
-12
6
6
-17
-20
-7
-26
-32
-29
-38
-25
-29
-17
2
-1
-13
-26
-40
-44
-21
3
6
9
-4
-10
-6
-21
-28
-18
-24
-10
10
11
3
-3
-16
-29
-23
-35
-13
0
1
24
6
5
-1
-22
-26
-13
-2
1
11
30
17
-28
-11
-15
-5
12
14
27
8
13
14
27
21
17
0
10
21
29
38
38
24
27
17
28
27
22
35
43
41
43
49
42
23
20
35
48
31
49
36
42
59
73
23
10
12
15
21
28
39
35
27
14
2
-11
-6
-9
-3
22
13
8
-2
-22
-21
-40
-28
-13
-25
-40
-16
-1
-18
-15
-14
-11
-37
-34
-10
-3
1
-3
-19
-19
-23
-29
-39
-37
-24
-7
-4
-4
-8
-19
-30
-33
-42
-29
-29
-5
-12
-17
-9
-15
-52
-66
-26
-19
-5
14
0
-3
-10
-31
-37
-38
-33
-36
-28
-23
-14
3
11
-14
-34
-43
-25
-15
5
11
9
-10
-27
-39
-28
-27
-21
-11
-11
2
3
-2
-17
-21
-28
-45
-60
-24
-5
-9
-26
-20
0
-10
-21
-29
-32
-21
-14
-6
-7
5
-11
-25
-38
-43
-50
-27
-7
0
-5
-4
-11
-32
-27
-24
-33
-19
-16
5
-4
-20
-27
-34
-40
-39
-23
-13
10
17
-2
-27
-8
-37
-44
-44
-30
-18
-20
-15
6
8
-11
-33
-43
-18
-7
-26
-26
-15
-24
-20
-30
-38
-10
-16
-15
-18
-16
10
12
-7
-21
-22
-35
-37
-42
-18
-5
2
-2
-11
-30
-23
-23
-15
-25
-21
7
4
-9
-8
-20
-9
-28
-37
-26
-11
-11
7
-13
2
-5
-27
-43
-28
-8
15
12
5
7
3
-9
-15
-20
-18
-8
9
5
5
6
-10
-19
-40
-54
-25
-5
5
-1
-6
1
-1
-25
-32
-34
-26
-15
-18
-10
-3
6
13
7
-33
-51
-55
-11
-1
8
9
2
-14
-27
-36
-32
-23
-17
-9
-1
7
-11
-26
-40
-39
-38
-60
-53
-13
4
-16
6
21
2
11
14
28
39
64
104
118
117
113
114
98
86
99
89
59
44
15
-9
-20
-47
-39
-46
-41
-36
-7
14
22
-7
-37
-30
-7
-17
-1
-1
2
5
-8
-23
-31
-17
-7
-24
-22
-3
5
13
17
2
-21
-41
-35
-35
-20
-2
2
-5
1
16
-25
-24
-28
-8
-6
-1
13
14
15
15
-6
-19
-18
-23
-4
1
7
25
4
-3
-14
-4
1
-23
-12
-7
12
20
14
17
-6
-9
9
17
19
7
1
52
37
30
13
-3
6
1
-3
17
44
47
52
44
24
24
16
12
19
16
40
44
47
49
41
24
32
42
51
59
62
60
45
42
16
14
17
25
33
35
45
74
46
25
7
-1
-7
-9
-15
5
27
34
19
2
-2
-23
-31
-20
-6
18
7
-9
-1
-14
-39
-26
-6
-32
-23
-13
3
-4
-5
-7
-38
-28
-16
-29
-28
-5
-7
-2
9
-23
-31
-20
-24
-34
-23
-6
1
-6
-8
-25
-23
-33
-25
-29
-17
-20
12
2
-15
-22
-31
-27
-27
-29
-8
10
2
5
-2
-16
-21
-19
-24
-19
-16
-12
-3
18
7
-21
-34
-17
-24
-21
13
11
-8
3
-3
-8
-20
-38
-37
-26
-15
-5
-5
-15
-14
-15
-11
-15
-19
-7
2
-8
-6
11
3
-21
-22
-35
-13
-18
-15
-5
-7
2
7
-1
-24
-37
-23
-23
-3
2
3
3
-16
-30
-55
-32
-5
-5
4
-15
-1
6
9
-19
-35
-19
-31
-28
-1
0
6
-9
-13
-12
-1
-13
-18
-23
-5
-2
-7
-21
0
-18
-30
-27
-7
-8
17
14
9
2
-7
-17
-32
-26
-51
-34
5
-1
-11
-6
-8
-2
-19
-10
-3
1
1
9
-13
-5
0
-19
-15
-8
-21
-4
11
27
28
11
-6
-23
-5
-6
-1
-1
31
18
13
1
-14
-15
-14
-27
-17
0
-6
-10
-7
-2
-11
-61
-48
-10
5
6
-6
3
11
-11
-47
-33
-34
-33
-18
-5
3
27
17
3
-29
-25
-25
-34
-39
-20
-15
-10
-5
-8
-27
-31
-12
-33
-30
-11
-26
-17
1
-16
-40
-49
-56
-37
-14
18
31
47
50
57
53
67
81
118
115
133
151
140
117
84
47
20
7
-3
-25
-35
-26
-20
-28
-34
-35
-9
4
-1
17
13
-7
-21
10
15
-13
-19
-20
-16
2
23
17
25
10
8
-21
-14
1
-5
-4
14
8
10
-7
3
1
-3
-12
6
13
6
29
27
19
-2
-27
-32
-15
19
20
26
14
14
33
11
16
-2
9
9
5
36
27
36
13
-1
11
1
1
-15
19
34
21
27
25
33
46
16
15
35
52
21
22
59
37
4
6
25
38
65
64
53
42
31
36
36
37
57
73
79
82
71
40
40
73
72
32
44
42
43
59
57
78
89
65
42
23
26
30
20
37
58
54
38
26
17
0
1
4
-8
3
26
22
26
3
-29
-10
6
0
7
26
10
5
5
13
-7
-19
-16
12
-10
-1
8
26
13
-1
-19
-20
-28
-19
-4
8
9
3
-16
-16
-9
-19
-17
-24
-11
28
1
3
0
-12
-20
-18
-19
-7
20
23
11
9
5
-5
-1
-21
-31
-36
0
3
-9
6
5
4
-12
-20
-5
6
3
7
9
-8
-6
2
-6
8
6
-4
-2
9
15
14
-10
-27
-9
-22
-16
-22
-11
8
3
10
6
-26
-20
-11
-7
-10
0
-5
20
13
4
-13
-35
-24
15
18
11
11
-6
7
-7
-6
-24
-2
-7
-11
-3
17
16
-1
-13
-31
-29
-13
-13
-9
5
16
1
-8
-3
-16
-28
-28
-2
-11
-5
3
21
7
-20
-17
-15
-17
-9
16
4
-4
12
-2
-20
-27
-25
-23
-1
0
0
18
12
-7
-27
-20
-21
-29
-13
11
26
35
17
2
-7
-32
-35
-34
-15
2
19
20
26
19
16
11
-2
-14
-3
7
6
22
24
21
0
-18
-18
-16
1
13
18
19
1
0
0
-27
-17
-19
-1
11
15
-15
9
-4
-20
-17
-19
-6
-35
-18
5
22
13
-7
-22
-1
-15
-15
-20
-17
6
14
24
3
-18
-41
-11
-13
-6
2
-25
3
11
1
-18
-40
-26
-19
-18
0
-3
19
39
34
24
53
72
79
95
133
146
163
152
119
116
88
49
23
-7
13
-9
-4
7
11
-5
-11
-16
-12
7
5
6
14
30
1
-18
-7
3
-1
-2
17
27
8
22
12
-15
-12
-7
14
-3
-7
12
15
-5
7
-12
-7
8
16
21
34
31
26
2
6
-5
-7
-6
1
14
36
33
17
19
18
7
-20
-11
13
32
26
18
38
31
10
-2
-7
1
22
12
35
48
72
42
33
9
1
6
36
39
51
49
47
62
43
13
29
33
24
33
65
59
70
74
65
48
29
43
48
63
81
66
67
78
46
56
63
59
60
61
66
76
79
62
51
39
29
29
34
44
50
60
66
45
27
-12
4
11
15
12
14
15
10
15
10
-2
1
-23
-15
-1
22
20
25
2
-6
-8
-26
-16
-3
25
29
10
-7
-12
-8
-15
-13
-18
-15
-9
22
18
12
-1
-4
-19
-13
-12
-12
-3
9
7
-14
-19
-14
-17
9
5
-13
12
19
19
15
-7
-21
-19
-8
-5
-10
-4
18
23
5
-15
-46
1
20
19
19
11
4
17
0
-8
-13
-24
-20
-16
-9
-1
-7
6
-5
-4
11
-7
-6
-1
7
11
26
7
-2
5
-23
-30
-34
-8
13
30
12
6
-12
-14
0
-10
-9
5
-19
-10
20
10
-16
-9
-17
-13
-12
4
18
16
9
9
12
-6
-12
-23
-35
-6
4
-6
12
22
10
-12
-14
-30
-19
-7
1
6
11
2
-3
-13
-8
-24
-15
3
11
-4
1
14
-18
-22
-6
-11
0
-9
9
10
-3
2
7
-10
-22
-25
-18
-6
14
9
3
-4
6
-4
-17
-34
-13
-14
-6
1
26
19
-2
6
-4
-10
-13
-8
1
25
8
15
19
-9
-9
-18
1
18
13
14
41
35
14
-3
-10
-2
3
0
-1
-2
6
-10
-14
-21
-16
-11
-8
3
18
15
11
1
-18
-22
-34
-30
-36
-19
-9
-4
11
18
2
-19
-35
-20
2
7
0
8
-7
-17
-6
-19
-42
-29
-14
-11
-14
2
18
13
-4
-33
-34
-44
-38
-15
11
31
24
45
36
37
53
87
123
143
149
160
163
144
109
76
53
33
10
0
-27
-23
-17
-7
-14
-6
-25
-16
-6
4
4
-1
-18
8
4
-6
-19
-17
-12
10
15
10
-1
-6
-6
-4
-22
-30
-15
-4
-6
5
5
-7
-7
-15
-5
9
15
12
17
17
14
3
-11
-17
-10
-6
-2
10
26
26
9
1
-2
-5
-6
-2
10
25
12
16
28
27
4
4
-1
-10
11
32
37
30
38
11
-4
11
34
28
26
29
44
51
34
33
46
21
14
30
37
61
72
61
53
59
47
33
30
47
57
50
80
70
67
64
41
36
30
30
53
58
81
102
72
50
44
47
36
24
25
35
48
44
38
21
7
16
0
16
22
24
32
17
5
-10
-13
3
-18
-3
7
11
14
18
3
-15
-14
-28
-34
-4
5
12
10
19
4
-12
-20
-22
-21
-16
-13
3
1
2
2
-13
-25
-13
-18
-34
-9
5
17
14
6
-21
-22
-27
-21
-5
16
12
4
-6
-1
-18
-26
-10
-1
-3
-10
21
11
-3
0
2
-8
-19
-19
-16
-3
25
33
-1
-15
-27
-11
-28
-26
-10
13
25
4
-16
-21
-16
-9
-20
-7
-6
9
16
12
8
8
-15
-16
-11
-13
0
12
16
-6
-7
-22
-24
-22
-21
-25
5
21
5
-3
2
-8
-11
-6
-12
-17
-25
-8
9
4
-10
-28
-19
-15
-22
-7
3
16
16
4
-14
2
-22
-21
-17
-18
3
-10
-14
18
7
-13
-31
-17
-29
-16
-1
8
11
1
-10
-29
-23
-34
-18
-19
-3
17
10
2
-6
-16
-14
-24
-38
-14
-2
9
15
24
20
-1
-23
-20
-33
-11
7
-15
24
22
-2
-5
-11
-22
-12
-3
15
19
42
39
22
-5
-7
-5
-16
-11
-2
27
21
22
28
2
-15
-11
-19
-34
-33
12
27
3
8
1
-9
-13
-18
-35
-8
-2
14
18
12
4
-10
-20
-11
-6
3
17
10
0
-9
-31
-36
-23
-30
-22
7
-10
-4
12
15
12
-11
-16
-30
-15
-23
-14
-15
-10
-15
-27
-41
-28
-22
15
43
44
67
67
75
91
109
121
135
140
124
134
135
97
58
19
-9
-29
-28
-12
-9
-26
-23
-29
-26
-5
21
4
3
6
-13
4
20
3
-18
-29
-12
-13
-6
26
9
15
15
4
3
-18
-20
-2
2
9
20
17
12
8
-2
-10
-11
-6
-1
16
11
13
9
-10
-8
-25
-30
9
24
27
31
34
13
12
-20
-4
10
-5
2
9
25
27
24
24
9
9
9
10
19
22
35
45
19
23
3
10
12
34
31
42
54
54
51
39
26
41
29
47
45
44
59
91
86
64
41
35
38
36
49
73
75
76
66
53
34
23
47
57
58
55
73
73
63
48
46
32
27
33
34
33
32
26
17
11
25
18
6
8
24
42
20
16
-7
-16
-16
-24
-7
5
6
14
24
-1
2
4
-18
-40
-30
-20
-14
-9
9
18
19
-13
-24
-23
-4
0
-4
7
5
6
-4
-8
-4
-16
-5
1
10
18
10
12
7
-14
-11
-15
-11
-15
1
-5
11
18
14
1
-9
-14
-19
-11
5
11
5
5
16
13
-5
-16
-23
-14
4
-11
-5
11
14
0
3
-6
-17
-11
9
21
19
9
-20
-35
-25
-12
5
-1
12
13
8
3
-9
-14
-12
-19
-20
-18
4
11
15
17
-9
-35
-39
-33
-9
6
19
-5
-9
-9
-10
-2
-4
-20
-23
1
11
24
-2
2
-24
-18
-7
-14
-25
-22
1
10
12
-8
-54
-14
-13
-17
0
6
4
4
16
-6
-20
-32
-26
-19
-6
7
7
-2
3
-9
-1
-44
-30
-19
-6
-6
-7
-7
-8
-12
-9
6
-20
-5
-6
0
13
6
11
2
0
-12
-34
-22
0
-5
8
22
23
18
-12
-19
-25
-28
-24
11
25
25
26
9
-39
-27
-25
-9
-2
-6
4
9
4
6
-11
-27
-21
-19
-4
16
-13
-22
-13
-9
-15
-13
-18
-19
-12
-20
-7
18
-2
-17
-26
-36
-39
-34
-21
0
-13
1
17
-6
-21
-24
-50
-47
-8
21
15
3
2
-9
-29
-45
-49
-43
-22
-20
3
-3
-11
-2
14
17
20
32
49
79
109
130
139
121
134
119
94
84
89
73
54
23
-25
-40
-51
-50
-48
-36
-12
7
18
21
10
-4
-4
-16
-22
-5
-13
-13
15
15
-9
-31
-19
-19
-3
4
7
23
8
6
17
-6
-20
-19
1
2
-10
4
13
23
22
13
-2
-18
-11
-14
-5
11
35
24
22
-8
-24
-25
-10
18
22
24
16
11
22
12
-6
8
2
0
11
26
38
27
9
15
-3
-5
3
4
21
36
72
55
33
16
21
11
7
17
48
67
67
39
15
49
48
36
32
51
66
64
53
68
62
28
31
15
55
67
54
77
83
76
59
42
35
38
37
59
62
65
60
43
23
31
23
11
4
32
37
28
26
12
-1
-7
-12
-19
-13
18
32
19
3
-17
-7
7
6
-10
-2
3
1
12
13
7
-10
0
-19
-16
-17
-4
1
20
16
2
-12
-19
-23
-28
-30
5
28
18
-22
-7
-20
-12
-17
-23
-23
5
26
23
7
-5
-16
-12
-15
-12
-11
-6
8
15
16
-10
-21
-9
-10
-15
-6
0
26
16
11
-11
-26
-31
-41
-7
15
25
22
12
-4
-4
-21
-12
-7
-16
7
9
3
13
20
18
-3
-20
-14
-13
-3
0
11
18
0
-9
-17
-23
-27
-11
-7
9
5
5
-4
8
7
-10
-9
-7
-18
-5
2
4
7
2
-8
0
-15
-19
-9
10
15
7
7
5
-17
-18
-21
-16
3
2
0
9
3
1
-9
-23
-31
-27
-9
11
27
17
15
6
-9
-15
-7
-15
-26
-5
17
0
-10
-14
-14
-7
-4
-24
-7
22
24
5
9
-5
-32
-37
-14
-25
-7
7
22
20
-3
-14
-27
-11
-7
-4
-4
11
18
19
-4
-22
-19
-13
-9
-3
7
19
10
-4
5
-21
-34
-19
-15
-4
0
14
17
7
-5
-23
-40
-25
-4
-1
29
30
20
19
13
5
1
1
2
3
4
23
26
10
0
-18
-25
-23
-19
-13
-5
13
-3
-2
1
-17
-26
-37
-21
-2
7
4
10
1
-5
-29
-40
-21
-16
-5
-10
2
8
2
-5
-20
-35
-31
-24
-11
2
7
0
-4
-26
-13
-6
-36
-43
-20
-12
-5
-29
-17
-25
-10
-5
-6
8
37
64
62
64
79
85
115
132
128
130
124
119
96
70
31
41
15
-22
-31
-25
-19
-7
4
12
-28
-1
5
-4
1
14
9
15
14
7
-16
1
-12
-16
-10
-20
-2
11
36
11
0
1
-10
-19
-25
-6
-10
0
10
27
11
-5
-8
-18
-21
4
26
-9
27
47
26
7
-11
0
10
7
-2
2
14
35
19
19
2
10
3
-8
11
18
15
32
26
21
7
0
8
5
17
27
51
45
33
11
23
24
30
26
37
49
50
44
31
30
28
34
31
46
54
50
78
77
56
40
45
44
51
64
78
78
65
55
50
37
48
33
36
65
72
58
43
60
63
53
24
28
32
35
37
44
15
17
19
10
-12
-13
-15
18
28
24
22
21
17
3
-21
-10
-6
2
14
2
-1
-11
-18
-29
6
-9
-17
-7
10
7
26
24
0
-19
-28
-27
-15
11
37
10
-21
-8
1
-24
-18
-6
-9
16
9
-4
-11
4
2
-7
-9
-14
-2
0
16
13
9
1
-21
-7
-15
-18
-7
8
0
22
20
18
3
-16
-42
-2
-4
-6
-4
23
12
-15
-11
-11
-19
-19
-9
-3
15
23
11
0
-2
-7
-21
-19
-11
-3
12
-2
16
-13
-22
-6
-22
-10
18
0
-4
6
9
-10
-26
-31
-16
-7
-16
5
27
15
8
-3
-17
-25
-19
-21
4
16
4
11
6
-11
-19
-14
-25
-30
2
13
14
36
15
13
-3
-15
-30
-21
-19
-3
20
18
8
-12
-28
-22
-14
14
-1
-5
10
1
6
-11
-16
-18
-2
8
7
14
10
-7
-10
-1
-14
-27
-22
-11
4
14
15
13
-6
-1
3
-12
-16
-14
11
21
19
10
10
-9
-14
-21
-14
-6
14
22
11
12
6
5
5
-9
-16
-6
13
22
22
22
2
1
4
-22
-22
0
25
19
0
18
28
11
-1
1
-2
2
25
24
28
20
16
4
-15
-21
-14
-8
-1
14
21
7
-4
-18
1
2
-15
-9
8
1
-3
-1
-2
-1
-30
-36
-6
5
4
-4
-19
3
13
10
-19
-18
-19
-9
8
12
16
9
3
-8
-39
-30
-18
-15
-1
12
12
-2
-20
-29
-25
-34
-18
-3
30
42
48
20
50
71
75
108
126
158
155
166
136
114
97
70
57
32
6
-9
-7
-8
-12
0
-10
-7
-14
-8
-7
-3
11
30
25
15
1
-21
-2
-5
-12
4
4
18
34
29
-3
-23
-8
-3
3
17
12
20
5
1
11
5
-3
4
-4
20
23
24
26
13
-4
-34
-27
18
24
18
25
30
12
10
22
30
-16
0
14
29
40
39
45
33
17
-8
-8
1
16
38
47
39
36
28
11
10
-8
16
46
59
65
69
54
40
40
8
23
42
47
49
65
85
56
57
59
53
39
59
69
64
57
58
71
61
45
51
54
59
68
75
81
93
72
68
50
35
31
37
49
48
48
36
22
-20
9
50
48
37
42
44
48
33
17
-5
-25
-1
-4
-13
7
5
4
22
5
-4
-7
-6
-4
-19
-7
-5
14
27
17
-6
-13
-27
-23
-8
1
2
8
3
8
-8
-8
-17
-14
0
-12
6
16
18
1
-7
-19
-33
-23
-14
8
4
12
15
2
2
5
-8
-25
-25
9
18
17
21
-7
-13
-10
-7
-14
-16
-4
17
25
-2
-10
-15
-18
-18
12
10
3
11
29
-11
4
-10
-28
-15
16
13
6
24
10
-7
-15
-8
-15
-22
-16
-10
9
22
24
12
-7
-12
-36
-43
-10
16
2
16
16
6
4
-2
-13
-14
-6
0
7
5
7
-5
-10
-17
-15
-12
-3
6
11
15
11
10
-17
-60
-15
4
2
-6
2
-3
9
5
-20
-17
-11
-19
-14
-7
9
15
9
11
-3
3
-26
-27
-11
-5
3
2
-3
12
-1
-22
-28
-19
-24
-8
24
18
5
-4
-9
-17
-29
-34
-24
5
17
15
16
0
-15
-18
-28
-21
-7
-5
2
2
13
7
-26
-31
-12
-2
8
6
11
7
14
8
-20
-28
-35
-26
-19
5
19
19
16
12
-11
-22
-16
-20
-2
5
20
22
-1
-6
-4
-9
-6
5
24
21
8
-1
4
0
2
-9
-8
0
-9
-4
1
0
-8
-14
-22
-26
-21
-13
-4
15
9
5
6
-5
-30
-35
-47
-40
-32
-21
32
18
-2
-19
-11
-15
-26
-23
-19
4
-8
8
5
-5
-17
-30
-42
-14
-13
-20
-15
0
30
4
-29
-41
-34
-20
-12
15
24
31
45
65
105
115
116
127
152
170
147
132
103
71
46
20
-3
-44
-20
-22
-14
13
4
-4
-19
-13
-13
-19
-13
-2
28
29
3
-3
-22
-23
-14
3
20
34
24
15
14
-18
-19
-11
-3
22
22
22
18
16
3
-6
-8
-43
-27
9
10
19
32
10
8
6
-14
-18
-21
-19
8
42
44
26
9
-3
10
2
21
10
13
23
39
36
25
4
-6
7
15
16
22
14
25
26
34
25
24
7
17
14
24
34
36
48
50
25
29
43
38
45
39
49
54
62
83
45
27
29
54
62
73
76
73
70
62
55
53
47
44
35
57
48
61
62
46
32
31
33
44
49
34
37
42
25
26
9
10
-6
11
43
29
24
18
4
-1
-5
2
-23
-20
-17
18
15
23
12
-6
-13
-17
-24
-31
-19
-6
7
13
-1
-16
-18
-19
-10
-8
-1
3
4
9
-2
-18
-19
-16
-19
-12
10
16
0
-14
-15
-21
-43
-18
-20
-1
2
10
8
-4
-13
-21
-9
-8
-3
-3
7
2
10
1
-12
-21
-35
-19
-3
3
30
15
12
8
19
-9
-30
-32
-11
-24
-21
-1
11
4
-17
-15
-22
-26
-28
-32
2
36
15
10
-13
-13
-1
-24
-43
-28
3
14
12
8
-5
-8
-19
-24
-23
1
27
17
0
-6
-7
-24
-47
-16
-4
-11
-1
-2
10
1
3
-6
-10
-25
-33
-32
-33
-10
15
-3
1
-8
-25
-23
-7
-2
-3
3
10
-4
-27
-24
-5
-27
-25
-20
-9
-5
-4
1
1
-1
-31
-47
-28
-19
-6
5
4
-23
-29
-6
-15
-17
-10
4
5
-3
-9
-17
-18
-21
-4
-4
14
12
5
-11
8
-9
-28
1
-17
-18
4
5
13
7
-9
2
-7
-22
-24
-18
-8
13
11
17
0
-6
7
4
-18
-27
-13
3
6
4
-4
-15
-20
-18
-27
-33
-13
-9
15
1
-13
-27
-53
-21
-16
-11
-10
-15
-7
-13
-10
-13
-30
-34
-27
-18
-4
11
5
-8
-23
-16
-26
-21
-17
-4
1
-4
0
-11
-25
-19
-38
-48
-51
-37
-9
-8
-2
7
17
31
33
32
54
73
94
136
140
146
133
104
78
58
24
42
34
-4
-22
-23
-21
-21
-19
-13
-41
-26
-3
6
19
23
19
-21
-25
-7
-10
-7
-9
-8
5
8
14
8
-29
-22
-25
1
11
21
27
9
-2
-12
-13
-17
-12
4
8
-3
5
8
-5
9
2
24
-15
-2
6
1
18
8
5
-7
-2
-15
-5
16
15
23
22
8
-10
-12
9
22
40
12
26
49
32
16
4
-5
-11
-15
7
23
17
27
51
40
20
10
10
25
45
44
50
53
55
55
49
31
22
34
55
50
70
80
73
77
55
17
40
56
55
58
61
55
54
73
48
47
44
34
31
24
55
53
49
36
27
15
-7
-9
-2
22
30
32
30
14
11
1
-12
-11
-19
-7
17
32
25
24
-10
-34
-6
-7
-6
0
-4
7
14
5
-12
-10
-10
-21
-11
3
-5
-14
10
7
-10
-10
-5
-7
-5
2
1
11
-5
-7
-18
-25
-15
-2
7
-4
8
12
15
-1
2
-11
2
-7
-9
6
18
20
14
5
-4
-1
1
-8
-4
15
35
33
16
7
-3
-7
-31
-5
9
23
9
16
10
18
-3
-14
-14
-14
-2
4
25
16
3
5
-1
-4
-11
-16
-17
0
12
16
7
-2
-7
-5
-11
2
-4
-14
19
28
26
-1
-19
-32
-48
-34
-7
11
23
2
-3
8
1
-12
-10
-10
-7
-2
3
-16
-27
-10
4
12
-9
-3
0
2
3
-11
-14
-2
-24
-46
-36
-31
-12
6
37
40
17
-7
-23
-24
-4
-1
-7
5
-5
20
23
-13
-48
-16
9
0
2
-3
-4
6
3
-2
-7
-5
-19
-23
-9
7
19
13
0
12
-1
-14
-20
17
-7
-5
11
28
4
-2
2
-17
-31
1
40
48
28
13
6
-9
-17
-28
-19
0
2
18
5
-5
0
-14
-16
-22
-15
-5
12
16
-4
-22
-2
-17
-27
-37
-18
-9
0
-1
5
-3
2
0
-12
-34
-22
-15
2
-2
-5
-1
-13
-29
-45
-44
-20
-1
-1
24
10
-3
-27
-47
-31
-31
-43
-16
-4
-8
-8
-10
-14
-8
5
20
26
38
73
88
118
160
170
154
117
104
105
111
91
69
29
7
-20
-19
-20
-50
-42
-34
-1
9
18
6
-5
-7
-22
-41
-28
-22
11
34
32
5
-5
3
-14
-10
-5
-12
7
10
11
23
-6
-14
-6
-8
-10
-2
7
14
7
-10
-12
-3
-2
-9
-15
4
22
27
14
19
-2
-12
-12
-31
-15
27
20
19
27
28
3
-3
-6
-2
15
36
15
-11
15
34
12
16
16
0
2
32
36
30
26
12
29
2
10
24
47
38
75
43
5
9
41
49
44
43
46
60
60
57
34
45
51
52
37
44
31
49
80
79
62
45
38
30
42
27
12
52
77
72
53
58
29
7
-12
-24
14
9
12
12
43
36
-5
-9
-4
-12
-1
-4
4
9
10
-5
-18
-49
-50
-33
-22
6
24
19
-3
-9
-15
-35
-23
-27
-28
-17
-29
-25
-14
-1
-1
-27
-28
-20
-17
-1
-9
-21
-21
-14
-37
-31
-43
-22
-1
2
18
6
5
-3
-30
-32
-29
-29
-5
8
9
2
-11
-33
-28
-26
-40
-22
-3
3
-5
6
-20
-31
-18
-3
-16
-17
-8
-23
-5
5
-12
-10
-25
-47
-23
-9
-5
4
7
0
-9
-27
-23
-19
-18
-43
-27
-11
6
-3
-10
-10
-29
-18
-27
-19
-27
-34
-3
-4
-3
0
-25
-48
-26
-21
1
7
7
-1
-12
-32
-34
-34
-21
-26
-10
-4
4
-16
-20
-25
-20
-50
-28
-10
-3
-11
-5
-13
-16
-32
-48
-47
-34
-22
10
16
0
-21
-24
-32
-38
-29
-24
-27
3
8
-2
-17
-28
-23
-25
-12
-20
-22
-14
-15
-18
-40
-35
-17
-19
-15
-26
6
18
13
1
-14
-13
-22
-24
-27
-23
-6
15
7
-8
-13
-10
-33
-24
-9
-1
-6
8
22
6
-10
-22
-21
-2
-9
-38
-37
2
29
-2
-2
-27
-15
-10
-18
-9
0
7
-8
-10
-14
-49
-40
-38
-27
-18
-24
1
5
-16
-28
-19
-23
-27
-35
-45
-32
-10
-1
-10
-32
-32
-39
-31
-26
-22
-19
-1
-6
3
-12
-15
-24
-40
-20
-11
-36
-26
-2
-24
-26
-29
-31
-11
9
52
81
88
96
132
145
142
141
130
97
91
85
77
53
12
-25
-63
-52
-42
-33
-23
-6
1
12
1
3
-10
-17
-41
-28
0
3
5
-3
-28
-23
-20
-17
-24
-28
-15
-2
-4
7
-8
-11
-26
-26
-41
-9
7
0
23
11
-1
-12
-42
-29
19
-6
3
22
21
9
1
-24
-25
-19
3
1
15
18
14
9
3
2
-24
-9
7
3
8
20
21
28
16
5
-1
-14
17
26
30
31
39
35
7
13
25
15
23
26
35
41
59
54
31
21
32
19
27
53
58
62
98
75
58
42
47
55
53
40
41
58
65
93
76
62
46
37
42
40
50
51
57
77
54
33
22
11
0
24
36
32
16
27
21
30
-10
-26
1
6
8
29
28
12
-9
-32
-12
-25
-14
3
10
15
16
9
2
-29
-22
-15
-17
-18
8
37
26
8
7
-13
-16
-26
-16
-4
23
12
8
9
-9
-4
-9
-8
6
1
14
20
17
18
-16
-41
-23
-10
8
14
16
28
15
0
-28
-23
-29
-25
6
-4
11
40
31
18
-8
-13
-12
-11
-3
18
8
7
12
6
-8
-7
-28
-11
-3
32
12
8
16
9
6
-7
-8
-10
-5
3
8
25
14
10
2
-20
-32
-6
-5
4
7
0
-13
6
7
-23
-24
-6
6
12
3
32
8
-2
-11
-9
-9
-6
-5
13
15
-6
-11
-2
-5
-5
-13
2
-16
-5
17
14
-5
-5
-27
-32
-7
3
-9
5
19
18
5
-5
-10
9
15
14
-12
8
20
15
-2
-15
-24
-22
-20
-10
2
20
20
9
11
-1
-8
-19
-20
-15
-5
19
42
26
6
-1
-6
-1
-10
0
-8
8
19
29
24
13
-1
0
-1
-11
-7
7
10
-5
-3
-39
-29
-10
-26
-36
-9
9
6
15
15
5
0
-7
-27
-18
-17
-2
-2
-16
2
-10
-29
-42
-23
-29
-10
-11
6
-8
-1
-24
-50
-32
-23
-24
-17
-16
7
11
1
-5
-13
-17
-23
-33
-15
-8
-14
-23
-24
-18
-25
-8
21
22
50
68
99
112
98
127
112
95
101
105
99
82
63
28
0
-27
-35
-48
-48
-44
-16
-9
-7
-3
-12
-19
-22
-31
-10
-14
18
25
25
6
-21
-35
-30
-35
-5
-1
6
22
16
-24
-24
-9
-13
0
-5
-7
16
23
13
2
4
-37
-48
-15
2
7
13
34
33
6
-4
-5
-15
-20
-15
-13
18
33
16
12
-7
-2
0
-11
-10
20
30
28
20
15
-6
-13
-13
-20
20
28
24
47
46
35
28
19
22
23
7
2
5
51
59
44
22
16
19
22
34
45
50
62
59
47
24
22
23
29
36
52
72
84
61
51
52
44
19
23
42
52
58
48
54
43
21
12
8
-2
-3
30
24
7
8
4
-4
-14
-17
-11
-3
-1
-3
8
3
1
-5
-3
-19
-18
-12
-7
6
5
-2
-18
-35
-25
-26
-31
-17
2
30
-5
-17
-17
-36
-39
-49
-47
-20
-8
1
-15
0
-10
-10
-20
-44
-29
-16
2
7
0
-6
-3
-19
-54
-28
-15
-3
1
0
-7
-14
-10
-15
-45
-35
-27
-16
-2
12
-9
-5
-7
-23
-36
-32
-19
2
1
-10
5
14
-11
-29
-29
-19
-51
-28
0
16
13
-9
-25
-27
-35
-20
-13
7
6
1
-16
-22
-34
-42
-56
-40
-27
-10
-2
18
-3
14
-21
-35
-34
-16
2
-4
-1
-1
2
-1
-22
-42
-67
-35
-27
-3
16
5
-2
0
-33
-44
-18
-26
-25
-35
-36
2
-4
-23
-36
-47
-27
-38
-26
-17
-10
-11
-25
-12
4
3
-31
-33
-24
-22
-6
-13
-8
-30
-40
-20
-18
-18
-9
3
7
0
-2
-4
-38
-38
-22
-23
-7
-8
11
17
2
-26
-22
-9
-25
-16
-7
12
6
6
2
-14
-31
-15
-21
-21
-25
-13
6
3
2
-2
-14
-26
-62
-49
-21
10
1
20
7
-13
-31
-47
-34
-19
-19
-11
-13
-26
-40
-39
1
-23
-40
-35
-13
14
-1
-2
-23
-17
-31
-45
-60
-52
-8
12
25
9
-9
-36
-34
-53
-36
-16
-17
-3
-1
2
2
11
21
38
43
45
64
87
117
146
148
116
104
66
45
47
40
25
-5
-14
-27
-35
-44
-48
-37
2
4
16
16
9
-20
-24
-17
-44
-21
-19
-7
16
4
2
-19
-26
-35
-31
-10
-15
0
3
6
-2
-2
-30
-44
-23
-16
-8
21
17
17
10
-27
-24
-18
-24
-16
-2
-9
11
41
-1
-6
-13
-42
-34
1
25
27
20
9
13
9
-6
-12
-9
4
-17
0
24
38
19
18
-4
-19
-18
10
24
9
8
25
44
29
10
24
26
25
30
50
43
42
52
55
44
33
31
30
34
50
55
42
36
35
35
42
39
40
38
72
79
74
18
6
27
36
26
24
35
56
68
45
39
27
5
4
2
5
8
12
10
12
31
-3
-34
-28
7
10
7
0
-10
0
-7
4
-25
-54
-48
-32
3
15
-2
18
13
-12
-34
-23
-17
-31
-12
-14
-2
3
-9
-13
-10
-6
-19
-13
-4
-22
3
4
7
-12
-19
-4
-8
-14
13
10
-12
-15
-3
-6
-24
-13
-8
7
0
-5
-3
-10
-1
-4
-20
-23
-10
3
21
20
5
-8
1
-3
-15
-14
-9
-26
-18
18
9
-12
-21
-8
-5
-4
-17
8
16
10
11
-6
-25
-20
-28
-36
-15
13
27
22
11
-3
-15
-27
-29
-51
-19
-4
5
16
1
5
0
-7
-9
-8
-29
-25
15
35
10
-1
-13
-44
-26
-20
-13
-6
8
-4
-6
-21
-22
-35
-13
-5
8
-10
-13
-9
1
-3
3
-30
-22
-18
-10
-5
16
20
13
-5
-21
-20
-12
-12
-22
6
11
-2
-21
-15
-18
-15
0
-2
-1
19
4
12
13
-12
-10
-6
-2
0
20
19
32
24
-5
-1
-1
-12
-13
-20
-2
0
-1
5
3
-6
-15
-17
-18
2
-7
-3
-3
16
4
-16
-14
-16
-15
-14
-24
-23
-11
16
-4
-23
-46
-24
-14
-4
13
15
2
-12
-16
-42
-25
-17
-13
-8
-9
-16
1
8
-7
-18
-27
-44
-57
-26
-21
16
15
43
44
38
42
51
63
106
125
140
153
172
145
116
68
31
39
13
-1
-6
-3
-21
-13
-6
-22
-29
-35
-27
-13
3
10
27
9
-18
-28
-24
-11
-1
-9
11
29
16
2
0
-4
-14
-20
-14
4
20
25
4
6
11
-1
-32
-33
-35
1
27
5
0
25
21
4
-2
-6
5
15
12
5
6
6
2
6
-5
-3
-2
12
16
9
11
16
9
1
4
12
25
31
30
31
24
4
10
9
6
27
33
33
46
51
55
35
11
22
23
9
29
45
66
65
55
44
25
30
35
44
50
77
73
83
61
51
47
30
58
71
58
54
45
63
59
46
31
41
44
42
44
40
32
0
38
46
22
8
12
12
10
9
23
15
11
8
-10
-19
-18
-14
15
27
14
3
-6
-9
-13
-10
-14
-16
-4
3
5
1
-12
-11
-24
-10
-6
-13
9
10
6
0
-9
5
-40
-40
-19
1
-22
10
32
17
4
-16
-18
-9
-18
-11
-9
9
15
14
3
-7
-9
-21
-26
-20
-2
10
4
-9
-29
-16
11
4
1
1
4
16
-4
-23
-12
6
-11
-21
-10
0
9
4
-3
2
1
-11
-21
-45
-20
-18
14
23
23
-4
-14
-28
-13
-10
-3
3
15
15
-1
-9
-37
-25
-16
-1
3
12
12
9
-5
-12
-22
-28
-19
-19
2
8
3
0
-9
-16
-11
-20
-28
-15
-9
-5
4
4
-3
-18
-17
-12
-8
-23
-17
-9
9
18
3
-22
-30
-45
-38
-19
-13
9
23
13
16
3
-18
-19
-4
3
7
8
15
17
17
1
-13
-22
-13
-20
-37
-25
-8
3
-8
-4
-2
-17
-15
-14
-4
18
20
11
0
-7
-8
-5
-19
-18
1
14
20
8
4
19
-1
-24
-32
-42
-15
5
12
8
-3
-14
-28
-45
-51
-18
-12
1
-10
3
10
4
-34
-49
-52
-31
-16
4
-31
-7
10
10
-16
-30
-21
-18
-17
-9
-24
-21
0
2
-17
-21
-35
-29
-33
-15
-5
-5
7
13
12
5
29
52
78
110
132
134
115
126
125
81
74
51
45
31
14
1
-22
-28
-41
-45
-33
-34
-10
22
23
7
-8
-13
-22
-18
-10
-18
-13
-7
6
8
2
-25
-24
-27
-24
-5
0
-3
-21
13
31
-2
-8
-11
-22
-24
-5
18
16
9
-4
-17
-13
-18
-6
-9
12
27
22
7
8
-1
-5
-21
-8
1
7
11
15
-12
-21
-10
-11
20
35
7
28
34
36
30
0
-14
3
17
-1
25
35
15
7
7
31
27
25
15
19
11
28
51
49
49
44
39
34
18
32
38
65
69
71
68
49
48
32
30
32
28
33
68
70
56
43
15
16
17
9
26
36
43
50
51
25
6
-2
-6
8
3
24
14
1
17
40
-15
-21
3
-9
2
1
25
-4
-1
-10
-31
-11
-34
-33
-20
-3
13
5
-5
-17
-21
-23
-4
-8
-18
-2
-7
-11
-2
-14
-25
-23
-37
-37
-6
28
21
14
0
-18
-33
-26
-44
-31
-19
-13
-2
16
27
9
-14
-13
-27
-31
-21
11
28
7
2
-10
-12
-13
-26
-18
1
-13
-20
0
-11
-13
-12
4
-14
-23
-20
17
21
20
8
-14
-27
-33
-60
-35
4
9
34
14
-10
-25
-32
-26
-11
-9
-11
-3
6
3
-12
-26
-15
-27
-16
-29
-25
0
23
1
-3
-21
-25
-35
-24
-16
1
10
10
7
-9
-15
-28
-28
-39
-32
-11
-4
16
6
-3
-8
-12
-25
-22
-19
-3
15
11
9
3
-14
-45
-54
-6
-2
10
26
7
3
7
-20
-33
-12
-10
-3
-6
-17
-10
-7
-20
-24
-45
-39
-18
-9
-14
-5
3
-17
-18
-4
-20
-27
-32
-38
-13
-16
-12
-18
-30
-40
-46
-43
-1
-6
-12
-4
-3
-4
-15
-33
-35
-35
-44
-16
-14
3
2
-4
-32
-35
-41
-49
-39
-28
2
-9
-17
-6
-11
4
-16
-4
35
71
83
91
106
107
87
61
29
39
40
26
8
-19
-34
-19
-24
-45
-47
-66
-47
-25
-7
0
-11
-1
-22
-23
-15
-23
-28
-10
0
-14
-22
-7
-14
-26
-16
-11
-11
-11
14
13
0
-6
-22
-17
-11
-7
-3
3
-9
10
-3
-19
-33
-20
-17
-12
0
23
20
18
7
0
-17
-42
-10
3
-6
1
17
12
22
13
2
-17
-24
6
7
12
29
30
14
-1
0
-2
-1
23
16
17
15
24
21
11
16
27
12
20
27
33
40
44
39
36
29
46
40
33
39
42
54
65
45
30
35
52
45
42
46
47
46
37
6
31
26
15
24
20
28
22
48
33
19
22
5
-9
8
14
8
6
3
6
-16
-8
-16
-28
-26
-8
-1
14
-7
-10
-17
-24
-12
-34
-14
-7
-3
-8
3
6
-8
-22
-36
-37
-34
-33
-17
4
-8
12
-2
-34
-27
-28
-28
-30
-8
8
15
-1
-4
-33
-46
-36
-44
-21
-14
-15
-11
-19
-17
-6
-8
-16
-14
-18
-6
-5
-11
0
-17
-23
-11
-29
-24
-18
16
14
0
-8
-12
-15
-23
-28
-21
-11
-11
-4
-1
-14
-25
-25
-17
-31
-14
-8
-2
10
10
2
-20
-29
-37
-55
-36
-10
2
-2
-7
8
-1
-30
-29
-24
-26
-13
5
-3
3
-1
-27
-30
-36
-20
-31
-13
7
11
-2
-12
-24
-41
-45
-25
-20
-7
-1
-4
-2
-26
-37
-10
-14
-10
0
11
-7
-6
-4
-4
-36
-33
-25
-6
0
5
13
15
19
6
-11
-23
-29
-25
-23
-14
-9
17
10
-3
-24
-31
-36
-38
-31
-11
1
-12
-18
-13
-10
-34
-44
-19
-8
-10
-12
-17
-30
-48
-31
3
-17
-34
-17
19
8
-6
-13
-13
-25
-25
-33
-33
-27
-14
-14
5
0
-22
-35
-51
-43
-36
-21
-35
-14
-9
-23
-23
-37
-34
-19
-11
13
45
76
111
113
130
119
89
95
75
101
97
62
44
15
-16
-33
-55
-42
-46
-41
-9
8
1
-1
-12
-27
-32
-53
-46
-10
1
3
1
-12
-45
-33
-35
-16
-1
-12
1
19
4
-6
-19
-33
-36
-28
-14
3
-12
-10
6
12
-7
-28
-23
-29
-14
2
6
3
1
3
-25
-24
-15
-26
-41
-1
7
11
6
-26
-10
-2
-12
-25
-16
-4
12
27
20
7
-5
-14
-15
3
-5
5
23
22
22
19
7
-7
-2
8
7
27
42
54
34
29
8
-3
-2
18
28
30
46
55
54
44
27
11
14
30
26
43
50
55
56
39
19
16
3
5
5
27
53
48
32
21
17
-3
-6
-4
-5
5
3
18
-4
-37
-26
-19
-11
-5
-8
-8
4
10
-1
-11
-24
-20
-31
-18
-35
-26
-14
-16
-6
3
-18
-32
-41
-53
-11
0
10
4
-3
-27
-38
-39
-43
-38
-28
0
-6
-4
-6
-12
-35
-36
-38
-8
-8
-27
-14
-10
-14
-18
-19
-38
-38
-20
-4
4
-6
-13
-10
-39
-46
-33
-30
-31
-16
-20
-13
6
-15
-39
-23
-25
-17
-21
-12
-7
-9
-5
-13
-8
-22
-31
-22
-26
-21
-8
-11
-11
-11
-29
-24
-30
-35
-52
-48
11
20
-3
-12
-25
-27
-44
-40
-41
-28
-16
-23
-12
-13
-24
-36
-33
-26
-17
-8
-8
-6
3
-13
-35
-34
-44
-45
-44
-36
4
-2
-13
-16
-23
-23
-9
-21
-27
-5
-2
-4
-8
-28
-34
-20
-39
-43
-14
-13
12
11
-5
-22
-34
-20
-45
-32
-21
-4
8
-19
-15
-21
-21
-33
-44
-14
-10
-15
13
8
-4
-26
-48
-55
-57
-56
-45
-14
-9
-3
-4
-13
-29
-27
-45
-40
-19
-7
-31
-32
-25
-46
-57
-59
-39
-22
-24
-19
-13
-14
-13
-11
-50
-55
-56
-44
-35
-20
-24
-12
-23
-29
-53
-60
-52
-52
-25
-4
-11
-15
-15
-28
-11
1
32
30
51
70
92
117
110
91
72
60
54
81
68
40
9
-9
-24
-45
-49
-42
-45
-38
-15
-12
-21
-34
-28
-25
-14
-34
-35
-36
-12
8
0
-9
-31
-45
-57
-47
-37
-21
-3
1
4
-12
-20
-30
-34
-34
-19
-13
-10
-14
-12
-15
-21
-33
-34
-33
-21
2
4
-12
-30
-9
-6
-24
-22
-33
-31
-1
8
8
14
-1
-15
-20
-20
-21
-7
-5
-5
-12
11
-1
1
-8
-23
-21
15
14
16
16
21
25
8
-4
-5
-4
2
19
28
28
29
29
21
9
-1
-14
16
25
24
50
60
52
34
23
8
26
40
50
55
51
45
33
23
35
13
3
11
20
28
23
19
15
-6
-17
-12
-9
3
3
-12
-7
0
0
-15
-29
-34
-34
-20
-8
-14
-12
-1
1
-13
-34
-40
-44
-31
-16
-4
-11
-19
-14
-16
-42
-56
-33
-27
-10
-5
-19
-22
-21
-21
-39
-32
-36
-26
-14
-20
-14
-32
-41
-52
-41
-30
-26
3
8
-14
-18
2
-7
-28
-44
-58
-48
-32
-27
-2
7
-11
-17
-42
-48
-34
-31
-44
-15
9
10
-3
-21
-29
-42
-42
-38
-15
0
-14
5
-33
-44
-34
-44
-30
-8
-3
-6
-16
-10
-17
-18
-37
-40
-25
-24
-20
-20
-16
-28
-28
-31
-41
-42
-32
-30
-21
-17
4
-13
-14
-18
-26
-39
-32
-18
-20
-20
-26
-20
-18
-29
-39
-47
-51
-39
-25
14
8
4
-25
-41
-32
-44
-44
-26
-29
-29
-33
-34
-12
-18
-26
-13
-14
-36
-24
-19
-27
-22
-13
-11
-22
-21
-25
-24
-14
-9
-22
-15
-33
-34
-35
-33
-19
-9
-10
-5
0
-18
-10
-16
-24
-27
-23
-4
14
11
-11
-17
-33
-48
-25
-22
-18
-29
-7
-11
-13
-15
-16
-20
-31
-58
-59
-22
-8
-18
-18
-19
-22
-35
-39
-42
-37
-36
-20
-15
-19
-17
-29
-25
-30
-24
-27
-35
-30
-22
-26
-30
5
-22
-45
-53
-27
-22
-13
-18
-14
-15
-27
-42
-61
-68
-43
-9
15
-8
1
46
46
36
45
102
138
138
140
131
114
86
55
36
12
-17
-34
-30
-32
-31
-33
-37
-9
-15
-27
-29
-19
-7
-1
0
0
-16
-33
-49
-40
-37
-39
-13
-16
13
9
-1
-29
-51
-30
-38
-25
-8
2
-4
-2
-2
-26
-40
-28
-29
-18
0
0
-1
-6
-3
-8
-29
-31
-13
-8
-13
-4
1
3
-20
-31
-25
-20
-13
-40
-30
17
35
12
9
11
-14
-18
-16
-15
3
-4
-1
24
26
17
-9
4
4
19
24
20
29
33
30
13
8
5
19
15
42
47
56
27
20
18
32
43
25
42
56
62
45
21
6
34
29
26
40
67
51
43
41
29
25
36
17
7
-5
31
32
25
21
16
12
-9
-26
-37
-11
2
8
5
11
-15
-27
-14
-31
-26
-36
-32
-16
-4
6
10
-13
-26
-29
-28
-34
-32
-19
15
13
-3
-30
-34
-34
-22
-17
-13
-12
-14
-13
-22
-42
-26
-27
-21
-18
-9
-9
-4
-13
-27
-24
-26
-41
-31
-24
-17
0
-5
10
0
-39
-63
-43
-8
-18
-9
-12
2
-10
-16
-15
-23
-21
-25
-22
2
-12
-4
-20
-22
-10
-21
-40
-36
-19
-10
-16
-9
-10
-20
-31
-16
-22
-20
-15
-14
-15
-15
1
-5
-18
-34
-34
-25
-18
-26
-28
-15
4
-1
-22
-15
-33
-22
-16
-13
-4
0
-7
-19
-28
-32
-29
-27
-18
-8
-7
-25
-17
-13
-36
-40
-40
-50
-33
0
-8
-1
-27
-32
-11
-18
-35
-21
-8
1
-22
-26
-35
-30
-18
-9
-18
-19
-16
-4
-2
-10
-19
-22
-31
-47
-49
