-4
-5
-5
-5
-5
-4
-4
-4
-3
-3
-2
-2
-2
-3
-3
-4
-5
-5
-6
-6
-6
-6
-6
-5
-4
-4
-3
-2
-2
-2
-2
-2
-3
-4
-6
-7
-8
-9
-9
-9
-9
-8
-7
-6
-5
-5
-4
-4
-4
-4
-4
-4
-5
-5
-6
-7
-8
-9
-9
-9
-9
-8
-6
-5
-3
-2
-2
-2
-3
-5
-7
-8
-9
-10
-10
-9
-8
-7
-7
-7
-7
-7
-8
-9
-9
-9
-9
-9
-9
-9
-9
-9
-10
-11
-11
-11
-11
-11
-11
-10
-10
-10
-10
-10
-10
-11
-11
-11
-11
-10
-10
-9
-9
-9
-10
-10
-11
-12
-13
-13
-13
-13
-13
-13
-13
-13
-13
-12
-11
-11
-9
-8
-7
-7
-6
-6
-7
-7
-7
-7
-6
-5
-3
-1
1
3
4
5
6
6
7
7
8
9
10
10
10
9
8
7
5
3
1
-1
-2
-4
-6
-8
-10
-12
-13
-14
-14
-13
-12
-11
-9
-9
-8
-9
-10
-11
-11
-12
-12
-12
-11
-11
-10
-10
-10
-10
-10
-10
-10
-9
-9
-10
-11
-13
-14
-15
-13
-8
3
19
40
65
92
118
139
153
157
150
133
109
78
46
16
-10
-30
-43
-48
-48
-44
-37
-30
-24
-18
-14
-11
-9
-7
-6
-5
-4
-4
-4
-5
-5
-6
-6
-6
-6
-6
-6
-6
-6
-6
-6
-5
-5
-4
-4
-3
-2
-2
-1
-1
-2
-2
-2
-2
-1
-1
0
1
3
4
5
6
7
8
8
9
9
10
10
10
10
11
11
12
13
14
15
15
15
15
15
15
15
15
16
17
19
20
22
24
26
27
29
30
31
32
33
34
34
35
36
37
38
39
41
43
44
46
47
48
48
48
48
47
47
47
48
49
50
51
51
51
50
48
46
44
41
38
36
33
30
27
25
22
19
16
13
11
9
7
5
4
2
1
-1
-2
-3
-3
-4
-4
-5
-5
-5
-6
-6
-7
-8
-9
-10
-11
-12
-13
-13
-14
-14
-14
-13
-13
-13
-12
-12
-12
-12
-12
-12
-12
-12
-13
-13
-13
-12
-12
-12
-13
-13
-13
-13
-12
-11
-10
-9
-7
-6
-6
-6
-7
-8
-10
-11
-12
-12
-12
-11
-10
-9
-9
-9
-10
-10
-11
-12
-12
-12
-11
-10
-9
-8
-8
-9
-10
-11
-12
-12
-12
-12
-11
-9
-8
-7
-8
-9
-10
-12
-14
-16
-16
-16
-15
-14
-13
-11
-11
-11
-11
-13
-14
-16
-17
-17
-18
-17
-17
-16
-15
-14
-14
-14
-14
-13
-13
-13
-13
-13
-13
-13
-13
-14
-14
-15
-15
-16
-16
-16
-15
-15
-15
-15
-15
-15
-15
-15
-15
-15
-15
-15
-15
-14
-14
-14
-14
-15
-16
-17
-18
-18
-19
-19
-19
-18
-17
-16
-15
-13
-13
-12
-11
-11
-11
-11
-11
-11
-10
-10
-10
-9
-9
-9
-8
-8
-7
-6
-5
-4
-3
-2
0
1
2
3
4
4
4
5
5
5
5
5
4
3
2
0
-3
-5
-8
-10
-12
-14
-15
-16
-16
-15
-14
-14
-13
-13
-13
-14
-15
-16
-17
-18
-18
-17
-16
-14
-13
-12
-11
-11
-13
-15
-17
-19
-20
-20
-20
-18
-17
-16
-16
-17
-18
-17
-14
-7
6
25
48
75
101
125
142
150
148
135
114
86
55
24
-3
-24
-39
-46
-48
-45
-39
-32
-25
-20
-16
-14
-13
-14
-14
-15
-16
-16
-15
-14
-13
-11
-10
-8
-7
-7
-8
-9
-10
-11
-12
-12
-12
-10
-9
-7
-6
-5
-4
-4
-5
-6
-7
-8
-8
-7
-7
-5
-4
-3
-2
-1
0
0
1
1
1
2
3
4
5
5
6
7
7
7
8
8
9
9
10
10
10
10
10
10
11
12
14
16
18
21
22
24
25
25
25
24
25
25
26
28
31
34
36
39
41
42
43
43
43
43
43
43
44
44
45
45
45
45
45
45
44
43
42
40
37
34
31
28
25
22
20
18
17
16
14
12
9
7
3
0
-2
-4
-5
-5
-5
-4
-3
-2
-2
-3
-4
-6
-8
-10
-12
-13
-13
-13
-13
-12
-11
-11
-10
-10
-11
-11
-12
-13
-13
-14
-14
-14
-14
-14
-13
-13
-12
-12
-11
-11
-11
-12
-12
-12
-12
-12
-12
-11
-11
-10
-10
-9
-9
-9
-9
-10
-10
-10
-10
-10
-10
-10
-10
-9
-9
-9
-9
-9
-9
-8
-8
-8
-8
-8
-9
-9
-10
-10
-9
-9
-8
-7
-6
-6
-5
-6
-6
-7
-8
-8
-9
-10
-11
-12
-12
-13
-13
-13
-13
-12
-12
-11
-10
-10
-10
-10
-10
-10
-10
-11
-11
-11
-10
-10
-10
-10
-11
-11
-12
-12
-13
-13
-12
-12
-11
-10
-10
-9
-10
-10
-11
-12
-13
-13
-13
-12
-11
-10
-9
-8
-7
-7
-8
-9
-11
-12
-14
-15
-15
-16
-15
-15
-14
-13
-13
-13
-13
-13
-14
-15
-15
-16
-16
-15
-15
-14
-14
-13
-13
-13
-13
-12
-12
-11
-10
-9
-9
-8
-8
-8
-9
-9
-10
-10
-9
-8
-7
-5
-3
-2
-1
-1
-1
-1
-1
-1
0
1
3
4
5
5
5
5
4
3
2
2
1
0
-1
-3
-5
-7
-9
-11
-12
-13
-13
-13
-12
-11
-11
-11
-11
-12
-13
-15
-16
-16
-16
-16
-16
-15
-14
-14
-14
-15
-16
-16
-17
-17
-18
-18
-18
-18
-19
-19
-19
-18
-14
-7
5
22
43
68
93
116
134
145
147
140
123
99
70
39
10
-14
-32
-44
-49
-47
-42
-34
-25
-17
-10
-5
-3
-2
-3
-5
-7
-10
-12
-13
-14
-14
-13
-11
-10
-8
-6
-5
-5
-5
-6
-7
-8
-8
-8
-8
-7
-7
-6
-6
-5
-5
-5
-4
-4
-3
-2
-2
-1
-1
-1
-1
-1
-1
-1
-1
-1
-1
0
1
2
3
4
5
6
7
7
8
8
8
8
9
10
11
12
14
15
17
18
19
20
21
22
23
24
25
26
28
29
31
32
32
33
34
34
35
36
38
39
40
42
42
43
44
44
44
44
45
45
46
46
45
45
44
43
42
40
38
36
33
30
27
24
21
18
15
13
12
10
9
8
7
5
3
0
-2
-4
-5
-6
-7
-7
-6
-6
-7
-8
-9
-10
-12
-13
-13
-13
-12
-11
-10
-9
-8
-8
-9
-10
-11
-11
-12
-12
-12
-11
-10
-9
-9
-8
-7
-7
-7
-7
-7
-7
-8
-8
-9
-9
-10
-11
-11
-12
-12
-12
-13
-13
-12
-12
-12
-11
-11
-10
-10
-10
-10
-11
-12
-12
-13
-13
-13
-13
-12
-11
-9
-9
-8
-8
-8
-8
-9
-10
-11
-11
-11
-11
-11
-10
-9
-9
-8
-8
-8
-8
-9
-9
-10
-10
-11
-11
-11
-11
-11
-11
-11
-12
-12
-12
-13
-13
-13
-14
-14
-13
-13
-13
-12
-12
-11
-11
-11
-12
-12
-13
-14
-14
-14
-15
-14
-14
-13
-13
-12
-12
-12
-12
-12
-13
-13
-13
-14
-15
-15
-15
-16
-15
-15
-15
-14
-13
-12
-12
-12
-12
-12
-13
-14
-14
-14
-14
-14
-14
-14
-14
-14
-14
-15
-15
-15
-15
-15
-14
-14
-13
-13
-13
-14
-15
-16
-17
-17
-17
-16
-15
-13
-11
-9
-7
-6
-6
-6
-7
-7
-8
-7
-6
-4
-1
1
3
5
5
5
5
4
4
3
4
4
5
5
5
5
3
2
-1
-3
-5
-7
-8
-9
-10
-11
-12
-13
-14
-16
-17
-17
-17
-17
-17
-17
-17
-17
-17
-17
-18
-18
-17
-17
-16
-14
-13
-12
-12
-12
-12
-13
-14
-15
-17
-18
-19
-20
-20
-17
-11
-2
13
31
54
79
104
127
144
153
153
143
123
97
66
34
4
-21
-39
-49
-53
-50
-44
-35
-27
-19
-13
-9
-7
-7
-7
-8
-9
-10
-10
-10
-10
-9
-9
-8
-8
-7
-7
-7
-7
-8
-8
-8
-8
-8
-8
-7
-6
-5
-4
-3
-2
-2
-1
-1
-1
0
0
0
0
0
0
0
0
1
1
2
2
3
4
4
5
5
5
5
6
6
7
8
9
10
12
13
14
15
16
17
17
18
18
18
19
20
21
22
23
25
26
27
29
30
32
33
34
36
36
37
37
37
38
38
38
39
41
43
45
47
49
50
50
49
48
45
43
40
38
36
35
35
34
34
33
31
28
25
22
18
14
10
6
3
1
-1
-2
-3
-3
-3
-4
-4
-5
-6
-8
-9
-10
-11
-12
-12
-12
-12
-12
-12
-12
-13
-13
-14
-14
-14
-14
-13
-13
-12
-12
-12
-12
-12
-13
-13
-13
-13
-13
-12
-11
-11
-10
-10
-11
-11
-12
-13
-13
-14
-14
-13
-13
-13
-12
-12
-11
-11
-10
-10
-10
-9
-9
-10
-10
-11
-11
-11
-12
-12
-12
-11
-11
-11
-10
-10
-10
-9
-9
-9
-8
-8
-8
-8
-8
-8
-9
-9
-9
-10
-9
-9
-9
-8
-8
-8
-8
-9
-10
-11
-12
-13
-14
-15
-15
-15
-14
-14
-13
-12
-12
-11
-12
-12
-13
-13
-14
-14
-14
-14
-14
-14
-14
-15
-15
-15
-15
-14
-13
-12
-12
-11
-11
-11
-11
-12
-12
-12
-12
-11
-10
-10
-9
-10
-11
-12
-14
-16
-17
-17
-17
-16
-14
-13
-11
-11
-11
-11
-13
-14
-16
-17
-18
-18
-17
-16
-15
-14
-13
-12
-11
-10
-10
-9
-9
-9
-10
-10
-11
-12
-13
-14
-15
-15
-14
-14
-13
-12
-11
-10
-9
-8
-7
-6
-5
-5
-4
-4
-3
-3
-2
-1
0
0
1
2
3
4
5
7
8
9
10
10
10
9
7
5
2
0
-3
-5
-7
-9
-10
-12
-13
-14
-14
-15
-16
-17
-17
-17
-17
-17
-17
-17
-16
-16
-15
-15
-14
-13
-13
-12
-12
-12
-13
-13
-13
-13
-13
-13
-14
-14
-15
-17
-17
-16
-12
-3
10
29
53
79
105
129
146
155
153
141
120
92
60
28
-1
-25
-42
-51
-54
-52
-46
-39
-31
-24
-19
-15
-13
-11
-11
-10
-10
-10
-10
-10
-10
-9
-8
-7
-6
-5
-4
-3
-3
-3
-3
-4
-4
-5
-5
-4
-4
-3
-2
-1
-1
-1
-1
-1
-1
-1
-1
0
1
3
4
5
5
5
5
5
4
4
5
6
7
7
8
8
8
8
8
8
8
10
11
13
14
15
15
15
14
14
14
16
18
21
24
27
30
31
31
30
28
27
26
27
28
31
35
39
42
45
47
47
47
46
45
45
44
45
45
46
47
47
47
47
47
46
44
43
41
39
36
33
30
27
24
22
20
18
15
13
11
9
7
5
3
2
1
1
0
-2
-3
-5
-8
-10
-12
-13
-13
-12
-11
-9
-8
-7
-7
-8
-10
-13
-15
-17
-19
-19
-19
-19
-17
-16
-14
-13
-12
-11
-11
-11
-11
-11
-12
-12
-13
-13
-14
-14
-14
-13
-13
-12
-12
-11
-11
-11
-11
-11
-11
-11
-12
-12
-13
-14
-14
-15
-15
-14
-14
-13
-11
-10
-9
-9
-8
-9
-9
-10
-10
-11
-10
-10
-9
-8
-7
-7
-7
-7
-8
-8
-9
-10
-10
-11
-10
-10
-10
-10
-10
-10
-10
-10
-11
-12
-13
-13
-14
-15
-16
-16
-16
-16
-15
-14
-12
-11
-10
-10
-10
-11
-12
-14
-15
-17
-17
-17
-17
-15
-13
-12
-11
-11
-11
-12
-13
-15
-16
-17
-17
-16
-15
-14
-13
-12
-12
-12
-12
-13
-13
-13
-13
-13
-12
-11
-10
-9
-9
-8
-8
-8
-8
-7
-6
-4
-2
0
2
4
6
7
8
8
8
7
7
6
5
4
3
2
0
-2
-4
-7
-9
-12
-14
-15
-16
-17
-17
-16
-16
-15
-14
-13
-13
-14
-15
-16
-17
-18
-19
-19
-19
-18
-17
-17
-16
-16
-16
-16
-16
-17
-17
-17
-18
-18
-19
-20
-20
-18
-13
-4
10
30
54
80
107
130
148
157
155
143
122
93
61
29
0
-23
-38
-47
-49
-46
-40
-33
-26
-20
-16
-14
-12
-12
-11
-11
-12
-12
-13
-13
-14
-14
-14
-13
-12
-10
-9
-7
-6
-6
-6
-7
-8
-8
-9
-8
-8
-7
-6
-5
-5
-5
-5
-6
-6
-5
-5
-4
-3
-2
-1
-1
-1
-1
-1
0
0
2
3
5
6
7
7
6
6
5
5
5
5
7
8
10
11
13
14
15
16
17
19
20
21
22
22
23
23
23
24
25
27
29
31
33
35
37
38
38
39
40
40
41
42
44
44
45
45
44
44
43
43
43
44
45
45
44
41
36
30
22
14
6
-1
-6
-10
-11
-11
-10
-8
-7
-7
-7
-8
-10
-12
-13
-15
-15
-15
-15
-14
-13
-13
-12
-13
-13
-14
-14
-15
-15
-14
-13
-12
-11
-10
-9
-8
-9
-10
-11
-13
-14
-15
-15
-14
-13
-12
-10
-9
-9
-9
-9
-10
-10
-10
-10
-10
-9
-9
-9
-9
-10
-12
-13
-15
-15
-15
-14
-12
-10
-8
-7
-7
-8
-9
-10
-11
-12
-13
-12
-11
-10
-9
-9
-9
-10
-11
-12
-13
-13
-13
-12
-11
-10
-9
-9
-9
-9
-10
-11
-12
-13
-13
-14
-14
-15
-15
-15
-15
-15
-15
-14
-14
-14
-14
-14
-14
-14
-14
-15
-15
-16
-16
-16
-16
-15
-15
-14
-14
-14
-13
-14
-14
-14
-15
-15
-15
-15
-15
-15
-15
-15
-16
-16
-17
-18
-18
-18
-17
-16
-15
-13
-11
-9
-8
-8
-8
-9
-10
-11
-11
-11
-11
-9
-7
-5
-3
-1
1
2
4
5
6
7
7
8
8
8
7
7
5
4
2
0
-3
-5
-7
-9
-11
-13
-15
-16
-17
-17
-17
-17
-17
-17
-17
-17
-18
-18
-18
-18
-18
-17
-17
-16
-16
-17
-17
-18
-19
-19
-19
-18
-17
-16
-15
-15
-15
-16
-16
-15
-10
-1
14
34
58
86
113
137
155
163
161
147
123
92
58
24
-6
-29
-45
-52
-52
-47
-39
-31
-23
-17
-14
-12
-12
-12
-12
-12
-11
-11
-10
-10
-10
-11
-11
-12
-12
-12
-11
-10
-8
-7
-6
-5
-4
-4
-4
-4
-4
-4
-4
-4
-3
-3
-3
-2
-2
-2
-3
-3
-3
-3
-2
-1
-1
0
1
2
3
3
3
4
4
4
5
6
7
8
9
10
10
11
11
12
12
13
14
16
17
18
18
19
20
20
21
22
23
24
25
27
28
28
29
30
31
33
35
38
40
43
46
47
48
48
48
46
45
43
42
41
41
42
42
43
43
43
42
41
39
37
34
31
29
26
23
20
18
15
12
9
6
4
2
0
-1
-3
-4
-5
-6
-7
-7
-8
-8
-8
-8
-8
-8
-9
-9
-10
-11
-12
-13
-14
-15
-15
-15
-16
-16
-15
-15
-14
-13
-12
-11
-10
-9
-8
-8
-9
-10
-11
-12
-13
-13
-13
-12
-11
-9
-9
-8
-8
-9
-9
-10
-11
-11
-10
-9
-9
-8
-8
-8
-9
-11
-12
-13
-13
-13
-12
-10
-9
-8
-7
-7
-8
-9
-11
-12
-13
-14
-14
-13
-12
-11
-10
-10
-10
-10
-10
-11
-11
-12
-13
-13
-13
-13
-13
-12
-12
-11
-11
-10
-10
-10
-11
-12
-13
-14
-14
-15
-15
-15
-15
-15
-15
-14
-14
-14
-14
-14
-14
-14
-14
-14
-14
-14
-14
-15
-15
-15
-14
-13
-12
-12
-11
-12
-12
-13
-15
-16
-17
-18
-18
-18
-17
-16
-15
-15
-15
-15
-16
-16
-16
-16
-16
-15
-15
-15
-14
-15
-15
-15
-16
-16
-16
-16
-15
-15
-15
-15
-15
-14
-14
-13
-12
-11
-10
-9
-8
-9
-10
-11
-12
-13
-13
-11
-9
-6
-2
2
5
7
8
8
7
6
5
4
4
3
3
3
2
1
-1
-3
-5
-7
-8
-10
-11
-12
-13
-14
-14
-15
-15
-15
-16
-16
-17
-18
-18
-19
-20
-20
-20
-19
-19
-18
-17
-17
-17
-16
-16
-16
-15
-15
-14
-15
-16
-17
-18
-18
-15
-8
5
23
46
73
101
127
148
160
162
153
134
106
74
40
9
-18
-37
-49
-53
-51
-45
-37
-28
-20
-14
-9
-7
-6
-6
-6
-7
-8
-9
-9
-10
-10
-10
-9
-9
-9
-8
-8
-7
-7
-7
-7
-7
-7
-6
-6
-5
-5
-4
-3
-2
-1
-1
-1
-1
-1
-1
-1
0
0
0
1
2
3
4
5
6
6
7
6
6
5
4
3
3
3
4
6
8
10
12
14
14
14
14
13
13
13
13
15
17
19
22
24
25
26
26
27
27
28
30
32
35
38
40
42
43
43
43
41
40
39
39
39
40
41
42
43
44
44
44
42
41
40
38
37
35
34
33
32
30
28
26
24
21
17
14
11
8
5
3
2
2
1
1
1
0
-2
-4
-6
-9
-12
-14
-15
-15
-15
-14
-13
-12
-12
-12
-13
-14
-16
-17
-17
-17
-17
-16
-15
-13
-13
-12
-12
-12
-13
-14
-14
-15
-15
-14
-14
-13
-13
-12
-12
-12
-12
-12
-13
-13
-13
-12
-12
-11
-10
-9
-9
-8
-7
-7
-7
-7
-7
-7
-7
-8
-8
-9
-10
-11
-13
-13
-14
-14
-14
-13
-11
-10
-9
-8
-8
-8
-9
-9
-10
-11
-11
-11
-11
-11
-11
-12
-12
-13
-14
-15
-16
-16
-16
-15
-14
-13
-12
-10
-10
-10
-10
-10
-11
-12
-14
-15
-16
-17
-17
-18
-18
-18
-18
-18
-17
-16
-15
-14
-13
-13
-13
-13
-14
-15
-16
-18
-19
-19
-19
-19
-18
-17
-16
-14
-13
-12
-12
-11
-11
-10
-10
-10
-10
-9
-9
-8
-8
-7
-5
-4
-2
-1
1
2
2
3
3
3
3
3
3
3
3
4
3
2
0
-3
-6
-9
-12
-14
-16
-17
-17
-16
-15
-14
-13
-13
-13
-14
-15
-16
-17
-17
-17
-16
-16
-15
-14
-15
-15
-16
-17
-18
-18
-18
-17
-16
-14
-14
-15
-16
-19
-21
-22
-20
-13
0
18
42
69
97
123
143
155
157
149
131
105
75
43
13
-12
-32
-44
-50
-50
-46
-40
-33
-25
-19
-15
-12
-10
-10
-10
-10
-11
-11
-11
-11
-11
-11
-11
-11
-11
-10
-10
-10
-9
-8
-8
-7
-5
-4
-3
-2
-1
0
0
0
0
-1
-2
-2
-3
-3
-2
-1
1
2
3
3
3
3
2
2
1
2
3
4
6
7
8
9
10
10
10
10
10
11
12
14
15
15
16
16
16
16
17
18
19
21
23
26
28
30
31
33
34
35
37
38
40
41
42
43
43
44
44
44
45
45
46
48
48
49
49
49
48
47
46
45
44
43
41
39
37
35
32
29
26
22
20
17
14
12
10
7
5
3
1
-1
-3
-4
-5
-6
-6
-7
-8
-8
-9
-10
-11
-11
-12
-12
-11
-11
-11
-11
-11
-11
-12
-12
-13
-14
-15
-15
-15
-15
-15
-15
-14
-14
-13
-13
-13
-13
-13
-13
-12
-11
-10
-9
-8
-8
-8
-9
-10
-11
-12
-13
-14
-13
-13
-12
-10
-9
-9
-9
-9
-10
-11
-13
-13
-14
-14
-14
-13
-12
-11
-10
-10
-9
-9
-8
-8
-9
-10
-10
-11
-12
-13
-14
-14
-13
-13
-12
-12
-12
-12
-12
-13
-15
-16
-17
-17
-17
-17
-16
-14
-13
-11
-10
-10
-10
-10
-11
-13
-14
-15
-17
-18
-18
-19
-19
-19
-19
-18
-18
-17
-16
-15
-14
-14
-14
-14
-15
-16
-18
-19
-19
-19
-18
-17
-16
-15
-13
-12
-12
-12
-12
-13
-13
-14
-14
-14
-14
-13
-13
-12
-11
-11
-12
-12
-13
-14
-15
-16
-17
-17
-17
-16
-15
-15
-14
-13
-13
-12
-12
-11
-10
-9
-7
-5
-3
-1
1
2
3
4
4
4
5
6
6
7
8
8
7
6
4
2
0
-3
-4
-6
-7
-8
-10
-11
-13
-14
-16
-18
-19
-19
-19
-19
-18
-17
-16
-15
-15
-14
-15
-15
-16
-17
-18
-18
-19
-19
-19
-18
-17
-16
-16
-16
-16
-17
-17
-15
-11
-1
13
32
56
83
110
133
151
160
159
147
126
97
64
31
0
-25
-43
-54
-57
-53
-46
-37
-27
-19
-13
-10
-8
-8
-9
-11
-12
-13
-13
-14
-14
-13
-13
-12
-12
-11
-9
-8
-7
-6
-6
-5
-6
-6
-6
-7
-7
-6
-6
-5
-4
-3
-3
-3
-3
-3
-3
-4
-4
-4
-4
-3
-3
-2
-1
0
0
1
3
4
5
6
7
8
9
10
10
10
10
9
9
8
8
9
9
10
12
14
17
19
21
23
25
26
27
27
28
28
29
30
32
33
35
36
37
38
39
40
41
41
42
43
44
45
46
47
48
48
49
48
47
46
44
42
40
38
36
34
33
32
30
28
26
23
19
16
12
9
7
6
5
5
5
4
4
2
0
-3
-5
-7
-9
-9
-9
-8
-7
-7
-6
-6
-6
-7
-7
-8
-9
-10
-10
-11
-11
-11
-12
-12
-13
-14
-14
-14
-14
-13
-13
-12
-12
-12
-12
-13
-13
-13
-12
-12
-11
-10
-9
-8
-8
-8
-8
-9
-9
-10
-10
-11
-10
-10
-9
-9
-8
-7
-7
-7
-7
-7
-7
-7
-8
-8
-8
-7
-7
-7
-6
-6
-7
-8
-9
-11
-13
-14
-14
-14
-14
-13
-12
-11
-10
-10
-10
-11
-13
-14
-15
-17
-17
-17
-17
-16
-15
-14
-12
-11
-10
-10
-10
-11
-12
-13
-14
-15
-15
-14
-13
-12
-12
-12
-12
-13
-15
-17
-19
-20
-20
-19
-18
-16
-15
-14
-14
-14
-15
-15
-16
-16
-16
-15
-13
-12
-11
-10
-11
-12
-13
-14
-16
-16
-16
-16
-14
-13
-12
-12
-12
-13
-14
-15
-16
-16
-16
-15
-14
-13
-11
-10
-10
-10
-10
-10
-10
-10
-10
-10
-10
-9
-9
-9
-8
-8
-7
-5
-3
-1
1
3
4
5
5
5
4
4
3
3
3
3
2
1
-1
-4
-7
-10
-13
-15
-17
-17
-17
-16
-14
-13
-12
-12
-12
-13
-13
-14
-15
-15
-15
-15
-14
-13
-12
-11
-11
-11
-12
-13
-14
-15
-16
-16
-17
-18
-18
-19
-19
-18
-14
-7
5
22
43
68
95
120
142
156
160
154
137
112
80
47
14
-13
-34
-47
-52
-51
-46
-39
-31
-25
-20
-17
-15
-13
-12
-11
-10
-8
-7
-6
-6
-6
-7
-8
-8
-9
-8
-7
-6
-5
-4
-3
-3
-2
-3
-3
-4
-4
-5
-5
-5
-6
-5
-5
-4
-3
-2
0
1
2
3
4
4
5
5
5
5
5
5
6
6
6
7
7
8
8
9
10
10
11
12
13
14
15
17
18
19
20
21
21
22
24
25
26
27
28
29
29
29
29
30
30
31
32
34
37
40
43
45
47
48
49
49
48
47
46
46
46
46
47
47
48
47
46
44
42
40
37
34
32
29
27
25
23
20
18
15
13
10
8
6
4
2
0
-1
-3
-4
-5
-6
-7
-8
-8
-8
-8
-7
-7
-7
-7
-8
-9
-11
-13
-15
-16
-17
-18
-18
-17
-16
-16
-15
-14
-14
-13
-13
-13
-13
-14
-14
-14
-14
-15
-15
-16
-16
-17
-17
-17
-17
-16
-16
-15
-15
-14
-14
-13
-13
-12
-11
-11
-10
-10
-10
-10
-11
-12
-13
-14
-15
-16
-16
-16
-16
-15
-15
-14
-13
-13
-12
-12
-12
-12
-12
-11
-12
-12
-12
-12
-13
-14
-14
-15
-15
-15
-15
-15
-15
-15
-14
-14
-14
-13
-13
-13
-13
-14
-15
-15
-16
-17
-17
-18
-17
-17
-16
-15
-14
-14
-13
-14
-14
-15
-17
-18
-19
-19
-20
-20
-20
-20
-20
-19
-19
-19
-19
-18
-17
-16
-14
-13
-12
-12
-12
-12
-13
-14
-15
-15
-14
-13
-11
-9
-6
-4
-1
0
1
1
1
1
0
0
1
1
1
1
0
-1
-3
-6
-8
-11
-14
-16
-17
-18
-19
-20
-20
-20
-20
-20
-20
-20
-20
-19
-19
-19
-19
-18
-18
-18
-18
-18
-18
-19
-20
-21
-23
-24
-24
-24
-24
-22
-21
-21
-21
-21
-22
-21
-18
-11
1
19
43
70
98
123
143
153
154
143
123
95
63
31
2
-21
-38
-48
-51
-49
-44
-37
-30
-24
-19
-15
-13
-11
-10
-9
-9
-9
-9
-9
-10
-10
-10
-10
-10
-10
-9
-8
-8
-8
-8
-9
-9
-9
-9
-9
-8
-7
-6
-5
-5
-5
-5
-5
-6
-6
-5
-4
-3
-1
1
2
4
4
5
5
5
4
4
4
4
5
5
5
5
5
6
7
8
10
11
13
14
15
15
15
15
15
16
18
20
23
25
28
30
31
32
33
33
33
34
34
35
36
37
38
39
39
40
41
42
44
46
47
49
50
50
50
48
47
45
43
41
40
38
37
36
35
33
31
28
25
23
20
18
16
15
12
10
7
4
1
-2
-4
-6
-7
-8
-7
-7
-8
-8
-9
-10
-12
-13
-14
-14
-14
-13
-12
-11
-10
-10
-10
-10
-10
-11
-11
-11
-12
-12
-12
-12
-11
-11
-11
-11
-11
-10
-10
-11
-11
-11
-12
-13
-13
-14
-14
-13
-13
-12
-12
-12
-12
-12
-12
-12
-11
-11
-10
-10
-9
-9
-9
-10
-10
-11
-11
-11
-10
-10
-9
-8
-8
-8
-8
-9
-10
-11
-11
-11
-12
-12
-12
-12
-12
-12
-12
-12
-12
-12
-11
-11
-11
-11
-12
-12
-13
-13
-13
-13
-12
-12
-11
-11
-11
-11
-12
-12
-12
-12
-12
-11
-11
-11
-11
-12
-12
-13
-13
-13
-13
-12
-12
-11
-11
-11
-12
-12
-13
-13
-13
-13
-12
-12
-11
-11
-11
-12
-13
-13
-14
-14
-14
-14
-14
-13
-13
-13
-13
-13
-14
-14
-13
-13
-12
-12
-11
-11
-11
-12
-12
-13
-14
-15
-15
-14
-13
-12
-11
-9
-8
-8
-8
-8
-9
-10
-11
-11
-11
-10
-7
-5
-1
2
5
7
9
9
8
7
6
4
3
2
1
1
0
0
-1
-2
-3
-5
-7
-9
-11
-12
-14
-15
-15
-15
-16
-16
-16
-16
-16
-16
-16
-16
-15
-15
-14
-14
-14
-14
-14
-15
-16
-17
-17
-18
-17
-16
-16
-15
-16
-17
-18
-19
-18
-14
-7
6
24
47
73
100
125
144
156
157
149
130
104
73
41
11
-14
-32
-43
-47
-45
-39
-32
-24
-18
-13
-11
-10
-10
-10
-11
-11
-10
-10
-9
-8
-7
-7
-7
-7
-8
-8
-9
-9
-9
-8
-8
-7
-7
-7
-7
-7
-7
-7
-6
-6
-5
-4
-2
-1
0
0
1
0
0
0
-1
-1
-1
0
0
1
2
3
4
4
5
6
6
7
8
9
10
11
12
13
14
14
15
16
16
17
18
19
20
21
21
22
23
24
25
26
27
28
30
31
32
34
35
36
37
38
39
40
42
43
44
45
46
46
46
46
45
44
44
43
43
43
43
42
42
41
39
37
34
31
28
25
22
20
18
16
14
12
10
7
5
2
-1
-3
-4
-5
-6
-6
-5
-5
-5
-5
-5
-6
-7
-8
-9
-9
-9
-9
-9
-8
-8
-8
-8
-8
-9
-9
-10
-10
-10
-10
-10
-10
-10
-10
-10
-10
-11
-11
-12
-13
-13
-13
-13
-13
-12
-11
-10
-10
-9
-9
-9
-9
-9
-9
-9
-9
-8
-8
-7
-7
-6
-6
-6
-6
-7
-7
-7
-7
-7
-7
-6
-6
-6
-7
-7
-8
-8
-9
-9
-9
-9
-8
-8
-8
-7
-7
-7
-7
-7
-7
-8
-8
-9
-10
-11
-12
-13
-14
-14
-14
-13
-12
-11
-10
-9
-9
-9
-9
-10
-10
-10
-10
-10
-10
-9
-9
-10
-10
-11
-11
-12
-12
-12
-12
-12
-12
-12
-13
-13
-14
-14
-14
-14
-14
-14
-14
-14
-15
-14
-14
-14
-13
-12
-11
-10
-10
-10
-10
-11
-12
-12
-13
-13
-13
-13
-13
-13
-14
-15
-15
-16
-16
-16
-15
-14
-12
-11
-10
-10
-11
-12
-13
-14
-15
-15
-15
-14
-13
-12
-12
-12
-12
-12
-13
-13
-13
-12
-12
-11
-11
-11
-11
-12
-13
-14
-15
-15
-15
-14
-13
-12
-12
-12
-12
-13
-14
-14
-15
-14
-13
-12
-10
-8
-6
-5
-4
-4
-5
-5
-6
-7
-8
-8
-7
-6
-4
-2
1
3
5
7
8
8
8
8
8
7
7
7
7
6
5
4
2
-1
-3
-6
-8
-10
-11
-11
-11
-11
-11
-11
-11
-12
-12
-13
-14
-14
-14
-14
-13
-13
-13
-13
-14
-15
-17
-18
-19
-20
-20
-19
-18
-16
-13
-11
-10
-10
-11
-14
-16
-17
-15
-9
2
19
42
68
96
121
142
155
159
151
134
109
78
46
16
-10
-30
-43
-49
-49
-44
-38
-30
-23
-17
-13
-10
-8
-7
-7
-7
-7
-7
-7
-7
-7
-8
-8
-8
-8
-8
-8
-8
-7
-6
-5
-4
-3
-3
-3
-3
-3
-4
-5
-6
-7
-7
-6
-5
-4
-2
-1
1
2
3
3
3
3
3
3
3
2
2
2
2
2
2
3
3
4
5
6
8
10
11
13
15
16
17
18
18
18
18
18
18
19
19
20
21
22
23
24
26
28
30
33
35
37
39
40
41
41
40
40
40
41
42
44
45
47
48
49
49
48
47
45
44
43
42
41
41
40
39
38
37
35
32
29
26
23
21
18
16
14
12
11
9
8
6
5
3
2
1
-1
-2
-2
-3
-4
-4
-5
-5
-6
-6
-7
-7
-7
-7
-7
-7
-7
-7
-8
-8
-9
-10
-10
-10
-10
-10
-9
-9
-9
-9
-9
-10
-10
-11
-11
-10
-10
-9
-8
-7
-7
-7
-7
-8
-8
-9
-10
-10
-10
-10
-10
-9
-9
-9
-9
-9
-9
-9
-10
-10
-10
-10
-9
-9
-8
-7
-6
-5
-5
-5
-6
-7
-8
-9
-10
-10
-11
-11
-11
-10
-10
-10
-9
-9
-8
-8
-8
-8
-8
-9
-9
-10
-10
-10
-9
-9
-9
-8
-8
-9
-10
-10
-11
-12
-12
-11
-11
-10
-10
-10
-10
-11
-12
-12
-12
-12
-12
-11
-10
-9
-9
-9
-9
-10
-11
-11
-11
-11
-11
-10
-10
-9
-9
-10
-10
-11
-12
-13
-13
-13
-13
-13
-13
-12
-11
-11
-11
-11
-11
-11
-12
-12
-12
-12
-12
-11
-11
-10
-9
-9
-9
-9
-9
-9
-10
-10
-10
-10
-9
-9
-9
-10
-11
-12
-13
-14
-14
-15
-15
-14
-14
-13
-13
-12
-12
-12
-12
-12
-12
-12
-12
-12
-11
-11
-11
-10
-10
-9
-9
-9
-9
-8
-8
-8
-7
-7
-7
-6
-5
-4
-3
-2
0
1
3
4
4
5
5
5
4
4
4
3
2
2
1
0
-1
-2
-3
-5
-6
-8
-10
-11
-13
-15
-16
-17
-17
-17
-16
-14
-13
-11
-10
-10
-10
-11
-12
-13
-14
-14
-15
-15
-14
-14
-14
-13
-13
-13
-12
-12
-11
-11
-11
-12
-13
-15
-17
-17
-15
-9
2
18
40
65
91
116
136
149
152
146
129
104
74
42
12
-14
-33
-46
-52
-52
-48
-42
-35
-29
-24
-20
-17
-14
-12
-11
-9
-8
-7
-6
-7
-8
-9
-10
-11
-11
-10
-9
-8
-6
-4
-2
-1
0
-1
-1
-3
-4
-6
-6
-6
-6
-5
-3
-2
0
1
1
1
1
1
1
1
2
3
5
7
8
9
9
8
6
4
2
1
1
2
3
6
9
12
15
17
19
19
19
18
17
17
17
17
18
20
22
24
26
27
29
30
32
33
35
36
37
38
38
38
39
39
39
40
40
41
42
43
45
46
47
47
47
47
47
46
44
43
41
39
36
34
32
30
28
26
24
22
20
18
16
14
12
10
8
6
4
3
1
-1
-4
-5
-7
-8
-9
-10
-10
-10
-9
-9
-10
-10
-11
-12
-14
-14
-15
-15
-15
-15
-14
-13
-13
-13
-13
-13
-13
-14
-14
-14
-15
-15
-14
-14
-13
-13
-13
-13
-13
-14
-15
-16
-17
-18
-18
-17
-16
-14
-12
-10
-8
-7
-7
-7
-7
-8
-10
-11
-12
-13
-13
-12
-11
-10
-9
-8
-7
-7
-7
-8
-9
-11
-12
-12
-13
-12
-11
-10
-9
-9
-9
-10
-11
-13
-15
-16
-17
-17
-17
-15
-14
-12
-11
-10
-10
-11
-12
-12
-13
-14
-14
-14
-14
-13
-13
-13
-14
-15
-16
-18
-19
-19
-19
-18
-17
-15
-14
-13
-13
-13
-14
-15
-16
-16
-16
-16
-15
-14
-13
-12
-12
-12
-13
-14
-16
-17
-18
-18
-18
-17
-17
-16
-15
-15
-14
-13
-13
-12
-12
-11
-11
-11
-12
-12
-12
-12
-12
-12
-11
-10
-8
-6
-5
-3
-1
0
1
2
3
4
4
4
4
3
2
0
-1
-3
-5
-7
-8
-10
-12
-14
-16
-17
-19
-19
-19
-18
-16
-15
-14
-13
-14
-15
-16
-19
-20
-22
-22
-21
-20
-18
-16
-15
-15
-16
-17
-19
-20
-21
-21
-20
-19
-18
-17
-18
-18
-18
-15
-9
2
19
41
68
95
121
141
153
155
146
127
99
68
35
5
-20
-38
-48
-52
-51
-46
-39
-32
-26
-21
-17
-15
-13
-11
-10
-9
-9
-9
-10
-10
-11
-11
-10
-9
-8
-7
-6
-5
-5
-5
-5
-6
-6
-7
-7
-7
-7
-7
-7
-7
-6
-6
-5
-4
-3
-2
-1
0
1
1
1
1
1
1
1
1
2
2
3
3
4
4
4
4
4
5
5
6
7
7
8
9
11
12
14
16
19
21
23
24
25
26
26
26
27
27
28
30
31
32
34
35
35
36
37
37
38
40
41
43
44
46
47
47
47
47
46
46
46
46
46
46
46
45
43
40
37
33
30
27
25
23
22
21
19
17
15
11
8
4
0
-3
-5
-6
-6
-5
-4
-3
-3
-3
-4
-5
-7
-9
-11
-12
-13
-13
-13
-13
-12
-12
-12
-12
-12
-12
-13
-12
-12
-12
-12
-12
-12
-12
-13
-13
-14
-14
-14
-14
-14
-13
-12
-11
-11
-10
-10
-10
-10
-11
-11
-12
-12
-12
-12
-13
-13
-13
-13
-13
-13
-12
-12
-12
-11
-11
-10
-9
-9
-8
-8
-8
-9
-9
-10
-10
-11
-11
-11
-10
-10
-10
-9
-9
-8
-8
-9
-9
-9
-10
-10
-11
-11
-12
-12
-13
-13
-13
-13
-13
-13
-13
-12
-12
-11
-11
-10
-11
-11
-12
-13
-14
-15
-16
-16
-16
-16
-14
-13
-12
-10
-10
-10
-10
-11
-12
-14
-15
-16
-16
-16
-16
-16
-15
-14
-14
-13
-13
-13
-13
-13
-12
-12
-12
-12
-12
-12
-12
-12
-13
-14
-15
-16
-16
-17
-17
-17
-16
-15
-14
-13
-12
-11
-10
-10
-10
-10
-11
-12
-13
-13
-13
-12
-11
-9
-7
-5
-3
-1
1
2
3
4
5
6
6
7
6
6
4
3
0
-2
-4
-6
-7
-8
-9
-10
-11
-11
-12
-12
-13
-13
-13
-13
-13
-13
-14
-14
-15
-16
-16
-16
-15
-14
-13
-13
-13
-13
-14
-15
-17
-18
-19
-19
-19
-19
-18
-18
-17
-16
-13
-7
3
17
37
61
87
112
135
151
158
155
141
119
89
57
25
-4
-26
-41
-49
-49
-45
-38
-29
-21
-14
-10
-7
-6
-6
-7
-8
-8
-8
-8
-9
-9
-9
-9
-10
-10
-11
-10
-10
-9
-9
-8
-7
-5
-4
-4
-3
-2
-2
-2
-2
-2
-2
-3
-3
-2
-2
-1
-1
0
1
1
1
1
1
1
1
1
1
1
2
2
3
4
4
5
6
8
9
11
12
13
14
14
14
14
14
14
14
15
17
18
20
22
24
26
27
28
29
30
31
32
34
35
37
38
39
40
41
41
42
42
43
44
44
45
46
46
46
45
44
43
42
41
40
39
38
37
35
33
31
29
26
23
20
18
15
13
11
9
7
5
4
2
1
-1
-2
-3
-5
-6
-7
-8
-9
-9
-10
-10
-10
-10
-10
-10
-11
-11
-12
-12
-13
-12
-12
-11
-11
-10
-9
-9
-10
-10
-11
-12
-12
-13
-13
-13
-12
-12
-12
-13
-13
-14
-14
-15
-15
-14
-14
-13
-13
-12
-12
-12
-12
-12
-12
-11
-11
-10
-9
-9
-9
-10
-10
-11
-12
-12
-12
-12
-11
-10
-9
-8
-7
-7
-7
-7
-8
-9
-9
-10
-10
-10
-10
-10
-9
-9
-9
-9
-9
-9
-9
-9
-10
-10
-10
-11
-12
-12
-12
-13
-13
-13
-12
-12
-11
-11
-10
-10
-10
-10
-10
-11
-11
-12
-12
-13
-13
-14
-14
-15
-15
-15
-16
-16
-15
-15
-14
-14
-13
-13
-13
-13
-13
-13
-13
-13
-13
-13
-13
-13
-14
-14
-15
-15
-15
-15
-15
-15
-14
-14
-14
-14
-14
-14
-15
-16
-16
-17
-17
-18
-19
-19
-19
-19
-18
-17
-16
-14
-11
-9
-8
-7
-6
-6
-7
-8
-8
-8
-8
-7
-6
-5
-4
-3
-3
-3
-3
-3
-3
-2
-1
1
2
4
6
8
9
10
10
9
7
5
2
-1
-4
-7
-9
-12
-13
-15
-16
-17
-17
-17
-17
-17
-16
-15
-15
-14
-14
-14
-14
-14
-14
-14
-14
-14
-14
-13
-13
-13
-13
-13
-13
-13
-13
-14
-14
-16
-17
-18
-19
-17
-13
-5
7
25
48
73
100
125
145
158
161
154
136
109
77
43
10
-18
-39
-52
-57
-55
-48
-38
-28
-19
-12
-8
-6
-6
-6
-7
-8
-8
-8
-7
-7
-7
-7
-8
-9
-9
-10
-10
-9
-9
-8
-7
-7
-6
-6
-5
-5
-5
-4
-4
-4
-3
-2
-2
-1
-1
-1
0
-1
-1
-1
-2
-2
-2
-2
-2
-1
0
1
2
3
4
5
6
6
7
8
9
9
10
10
10
10
11
11
12
14
16
18
20
21
23
24
24
24
24
24
24
25
27
29
32
35
38
40
42
42
42
42
41
40
39
39
40
41
42
44
46
47
47
47
46
46
45
44
43
42
41
39
37
34
31
27
23
20
16
14
11
10
8
7
5
4
1
-1
-3
-5
-7
-8
-9
-9
-9
-8
-8
-8
-8
-8
-9
-9
-10
-10
-11
-11
-11
-10
-10
-10
-10
-11
-11
-12
-12
-13
-13
-13
-12
-11
-11
-10
-10
-10
-11
-11
-12
-12
-13
-12
-11
-10
-9
-8
-7
-7
-7
-8
-9
-10
-10
-11
-11
-10
-9
-8
-8
-7
-7
-7
-8
-9
-10
-10
-11
-11
-12
-12
-12
-12
-12
-11
-11
-11
-10
-10
-10
-10
-10
-10
-11
-11
-11
-11
-10
-10
-9
-8
-7
-7
-7
-8
-9
-11
-12
-13
-13
-13
-13
-12
-11
-10
-10
-10
-10
-10
-10
-10
-11
-11
-12
-13
-13
-14
-14
-14
-14
-14
-14
-13
-12
-12
-12
-12
-13
-14
-15
-16
-17
-18
-18
-17
-16
-15
-14
-13
-13
-12
-12
-12
-12
-12
-13
-13
-13
-14
-14
-15
-15
-15
-15
-15
-15
-15
-14
-14
-14
-13
-13
-13
-13
-14
-13
-13
-13
-12
-12
-12
-12
-12
-12
-13
-14
-15
-15
-16
-16
-15
-14
-13
-12
-11
-10
-9
-8
-8
-8
-8
-7
-7
-6
-4
-2
1
3
6
8
9
10
10
9
7
5
3
0
-2
-5
-7
-8
-9
-11
-12
-12
-13
-14
-14
-14
-14
-14
-14
-14
-14
-14
-15
-16
-16
-16
-16
-15
-14
-13
-13
-13
-14
-15
-17
-18
-19
-19
-19
-18
-17
-16
-17
-18
-18
-17
-13
-4
10
31
56
84
112
135
152
159
155
140
116
86
52
20
-8
-30
-44
-52
-53
-50
-44
-37
-30
-24
-19
-15
-12
-10
-8
-8
-7
-8
-8
-9
-9
-9
-9
-8
-6
-5
-3
-2
-2
-3
-3
-5
-6
-6
-7
-6
-6
-5
-3
-2
-2
-1
-1
-1
-2
-2
-3
-3
-3
-2
-2
-1
0
1
2
2
3
3
3
3
4
4
5
5
6
7
8
9
9
10
11
11
13
14
15
17
19
20
21
22
23
23
23
23
24
24
24
25
26
27
29
30
31
33
35
36
37
39
39
40
40
41
42
42
44
45
47
48
50
51
51
50
49
47
44
41
39
37
35
34
32
31
29
26
23
20
16
12
8
6
4
3
3
2
2
2
1
-1
-2
-4
-6
-7
-8
-9
-9
-9
-9
-10
-11
-12
-14
-16
-17
-18
-18
-18
-17
-15
-14
-12
-11
-10
-10
-10
-11
-11
-12
-13
-13
-13
-13
-13
-12
-12
-11
-10
-10
-10
-10
-10
-10
-11
-11
-12
-12
-12
-12
-12
-12
-12
-12
-12
-12
-12
-13
-13
-13
-13
-12
-10
-9
-7
-6
-5
-6
-7
-8
-10
-12
-13
-14
-13
-12
-10
-8
-6
-5
-5
-5
-7
-9
-11
-13
-14
-15
-14
-13
-12
-10
-8
-7
-7
-7
-9
-10
-12
-14
-15
-16
-16
-15
-14
-13
-11
-10
-10
-10
-11
-12
-13
-14
-15
-15
-15
-15
-14
-14
-13
-13
-14
-15
-16
-17
-18
-19
-19
-19
-18
-18
-17
-16
-14
-14
-13
-13
-13
-13
-14
-15
-15
-15
-15
-14
-14
-13
-12
-11
-11
-11
-11
-11
-11
-10
-8
-5
-2
1
4
6
7
7
7
5
3
2
0
-1
-3
-4
-5
-7
-9
-11
-13
-14
-15
-16
-16
-16
-16
-16
-16
-16
-16
-17
-16
-16
-16
-15
-14
-14
-14
-15
-16
-17
-19
-20
-21
-21
-20
-18
-17
-15
-14
-14
-15
-17
-20
-22
-23
-21
-15
-4
13
34
59
85
110
131
145
151
146
132
109
80
49
18
-10
-32
-47
-55
-56
-52
-45
-37
-28
-22
-17
-14
-12
-12
-12
-13
-13
-13
-12
-12
-11
-11
-10
-10
-10
-10
-10
-10
-9
-9
-8
-8
-7
-6
-5
-5
-4
-4
-4
-4
-5
-5
-5
-5
-5
-5
-4
-3
-3
-2
-2
-2
-2
-2
-2
-2
-2
-2
-2
-1
-1
-1
0
1
2
3
5
7
8
10
11
11
12
12
12
12
13
14
15
17
19
20
22
23
24
25
26
27
28
30
32
34
36
37
38
38
38
38
38
38
39
40
41
42
43
44
45
45
45
45
44
43
42
41
40
39
38
36
34
32
30
26
23
19
15
11
8
5
3
2
1
0
0
-2
-3
-5
-7
-9
-11
-12
-13
-12
-12
-10
-9
-9
-9
-9
-11
-12
-14
-16
-17
-18
-18
-17
-16
-14
-13
-11
-10
-10
-10
-10
-11
-12
-13
-14
-14
-14
-14
-14
-13
-13
-12
-12
-12
-12
-13
-13
-13
-13
-13
-13
-13
-13
-12
-12
-12
-12
-11
-11
-11
-12
-12
-12
-12
-12
-12
-11
-11
-10
-9
-9
-9
-9
-9
-10
-11
-12
-12
-12
-11
-11
-10
-9
-9
-9
-10
-10
-11
-12
-12
-12
-12
-11
-10
-10
-9
-9
-10
-10
-10
-11
-11
-12
-12
-12
-12
-12
-12
-12
-12
-12
-12
-12
-12
-12
-12
-12
-12
-12
-12
-13
-13
-13
-14
-14
-13
-13
-13
-12
-12
-11
-11
-11
-11
-12
-13
-14
-14
-15
-15
-15
-15
-14
-13
-12
-12
-12
-12
-13
-14
-16
-16
-17
-17
-16
-14
-13
-11
-10
-9
-8
-9
-9
-9
-10
-9
-8
-7
-5
-3
0
2
3
5
5
6
6
6
6
5
5
4
3
2
1
0
-2
-4
-6
-8
-11
-13
-15
-17
-18
-18
-17
-16
-15
-14
-14
-13
-14
-15
-16
-17
-17
-18
-18
-18
-18
-17
-17
-17
-18
-18
-19
-19
-19
-19
-18
-18
-18
-17
-16
-13
-7
2
15
33
55
80
105
128
145
155
155
145
126
98
67
34
3
-21
-39
-48
-50
-47
-39
-30
-21
-14
-9
-7
-7
-7
-8
-9
-9
-9
-8
-7
-7
-7
-7
-8
-9
-9
-8
-8
-7
-6
-5
-4
-4
-4
-5
-5
-5
-5
-5
-4
-4
-3
-3
-3
-3
-4
-4
-4
-4
-3
-2
-1
0
1
2
2
2
2
1
1
0
0
0
0
0
1
2
4
6
8
10
12
14
15
16
17
18
19
19
20
22
23
25
26
27
28
28
28
28
28
29
30
32
34
36
38
40
43
44
46
46
47
47
47
46
46
45
45
45
45
45
45
45
44
43
41
39
36
33
31
28
25
23
21
18
16
14
12
10
8
6
4
3
1
0
-2
-4
-6
-8
-10
-11
-12
-12
-12
-11
-11
-11
-11
-12
-13
-14
-14
-15
-15
-15
-14
-13
-12
-11
-10
-9
-9
-9
-9
-10
-10
-11
-11
-12
-12
-12
-12
-12
-11
-11
-10
-10
-10
-9
-10
-10
-10
-11
-11
-11
-12
-11
-11
-11
-11
-10
-9
-9
-8
-8
-7
-7
-7
-7
-8
-8
-9
-10
-11
-11
-12
-12
-12
-12
-11
-10
-9
-9
-8
-8
-9
-9
-10
-11
-11
-11
-11
-10
-9
-8
-7
-6
-6
-7
-8
-9
-11
-12
-13
-14
-14
-14
-13
-12
-12
-11
-12
-12
-13
-14
-15
-16
-16
-17
-17
-16
-16
-15
-14
-13
-13
-12
-12
-12
-12
-12
-13
-14
-15
-16
-17
-18
-18
-18
-18
-17
-16
-16
-15
-14
-13
-12
-12
-12
-13
-13
-14
-15
-16
-16
-16
-16
-15
-14
-13
-12
-13
-13
-15
-16
-17
-17
-16
-15
-13
-10
-8
-7
-6
-7
-8
-10
-11
-12
-12
-11
-9
-6
-3
0
2
4
5
6
7
8
9
9
9
8
7
4
1
-3
-7
-10
-12
-13
-13
-14
-14
-14
-15
-16
-18
-19
-20
-20
-20
-19
-19
-18
-17
-17
-18
-19
-20
-21
-21
-21
-21
-21
-20
-19
-18
-17
-17
-17
-18
-20
-21
-22
-21
-17
-8
5
23
47
73
100
125
145
157
160
153
135
110
79
46
14
-14
-35
-49
-55
-54
-48
-39
-29
-20
-13
-8
-5
-5
-6
-7
-9
-10
-11
-11
-11
-11
-11
-12
-12
-12
-13
-13
-12
-11
-10
-9
-8
-7
-6
-5
-5
-5
-4
-4
-4
-3
-3
-3
-3
-4
-4
-4
-4
-3
-2
-1
0
1
2
2
2
2
1
1
1
2
3
5
6
8
9
10
11
11
11
11
10
10
10
11
11
12
13
15
17
19
21
24
27
29
31
33
34
34
35
35
35
35
36
36
37
38
39
40
40
41
41
41
41
42
43
44
45
46
47
47
47
46
45
43
41
40
38
36
34
32
29
26
23
20
17
14
11
9
7
5
3
1
0
-2
-3
-4
-5
-6
-6
-6
-7
-8
-8
-10
-11
-12
-13
-14
-15
-15
-15
-15
-14
-13
-13
-12
-11
-11
-11
-11
-12
-13
-14
-16
-17
-18
-18
-17
-16
-13
-11
-8
-6
-5
-5
-6
-7
-9
-11
-12
-13
-12
-12
-11
-10
-9
-8
-8
-9
-10
-10
-11
-11
-11
-10
-10
-9
-9
-8
-8
-9
-9
-10
-10
-11
-11
-11
-12
-12
-12
-12
-11
-11
-10
-10
-10
-10
-11
-12
-13
-14
-15
-15
-15
-14
-13
-12
-11
-10
-10
-10
-11
-12
-12
-13
-13
-13
-12
-12
-12
-13
-13
-13
-13
-13
-12
-11
-10
-9
-9
-9
-10
-11
-13
-14
-15
-16
-16
-16
-15
-14
-12
-12
-11
-11
-12
-13
-14
-15
-15
-16
-16
-16
-16
-16
-15
-15
-14
-13
-13
-12
-12
-11
-11
-11
-11
-11
-11
-11
-11
-11
-11
-11
-12
-13
-13
-14
-14
-14
-14
-13
-13
-13
-13
-13
-14
-14
-15
-15
-14
-13
-11
-9
-7
-6
-6
-6
-7
-9
-9
-9
-8
-5
-2
1
4
7
7
7
5
3
2
1
1
2
5
7
9
9
8
5
0
-5
-9
-13
-15
-16
-15
-13
-12
-10
-9
-10
-11
-13
-15
-17
-18
-18
-17
-15
-13
-11
-10
-9
-10
-11
-13
-15
-16
-17
-17
-17
-16
-16
-16
-17
-19
-20
-19
-16
-10
2
18
40
65
91
116
138
152
157
153
138
115
85
53
21
-7
-30
-45
-52
-54
-50
-43
-36
-28
-22
-18
-15
-13
-12
-11
-10
-10
-9
-9
-9
-9
-9
-9
-9
-8
-6
-5
-3
-2
-2
-2
-2
-3
-4
-5
-5
-4
-4
-3
-2
-1
-1
-1
-1
-2
-2
-2
-2
-1
1
2
4
5
5
5
5
5
4
5
5
6
8
9
10
11
11
11
11
11
11
12
13
15
17
18
19
20
20
20
20
20
20
21
23
25
27
30
32
34
35
36
36
36
36
36
36
37
38
39
41
43
45
46
48
49
49
50
50
49
49
48
48
47
46
45
44
42
40
38
35
33
30
27
24
21
19
16
14
11
9
7
5
2
0
-2
-4
-5
-7
-8
-9
-9
-9
-9
-8
-8
-8
-8
-9
-10
-12
-13
-14
-15
-15
-15
-14
-13
-12
-11
-10
-10
-10
-11
-11
-12
-13
-13
-14
-13
-13
-12
-12
-12
-12
-13
-14
-14
-15
-15
-14
-13
-13
-12
-11
-11
-12
-12
-13
-14
-14
-14
-13
-12
-11
-10
-9
-9
-9
-10
-10
-11
-11
-12
-12
-12
-12
-12
-13
-13
-13
-14
-13
-13
-12
-12
-11
-11
-10
-11
-11
-12
-12
-13
-13
-13
-13
-13
-13
-13
-13
-14
-14
-14
-14
-14
-13
-13
-12
-12
-13
-13
-14
-15
-16
-16
-17
-17
-16
-16
-15
-15
-15
-14
-14
-14
-14
-15
-15
-15
-15
-15
-15
-15
-15
-15
-15
-16
-17
-17
-17
-17
-17
-16
-15
-14
-12
-11
-10
-9
-8
-8
-8
-9
-9
-9
-9
-9
-8
-6
-4
-3
-1
1
3
4
5
6
6
6
6
6
5
4
3
1
-2
-4
-7
-9
-12
-14
-15
-17
-18
-18
-18
-17
-17
-16
-16
-15
-16
-16
-17
-18
-18
-18
-18
-17
-16
-14
-13
-13
-13
-13
-14
-14
-14
-14
-14
-15
-16
-18
-20
-22
-22
-18
-9
5
26
51
80
108
133
151
159
157
144
121
92
60
28
0
-22
-38
-46
-49
-47
-42
-36
-30
-25
-21
-18
-16
-14
-13
-12
-11
-10
-9
-8
-7
-6
-6
-6
-6
-7
-8
-9
-11
-12
-13
-13
-13
-13
-12
-10
-9
-7
-6
-5
-4
-3
-3
-2
-1
-1
-1
-1
-2
-2
-3
-4
-4
-4
-4
-3
-2
-1
1
2
2
3
3
4
4
5
6
8
9
11
12
13
14
14
14
14
15
15
16
17
19
20
21
23
24
25
26
27
28
29
30
31
32
33
35
36
38
39
41
43
44
45
46
47
47
48
48
48
48
47
46
45
44
42
40
39
37
35
33
30
27
24
21
18
15
13
11
9
7
5
3
1
-1
-4
-5
-7
-8
-8
-8
-8
-8
-8
-8
-8
-9
-10
-11
-12
-13
-14
-15
-16
-16
-16
-15
-15
-14
-14
-14
-14
-14
-14
-14
-15
-15
-15
-15
-15
-14
-14
-14
-14
-14
-14
-14
-14
-13
-12
-12
-11
-11
-11
-11
-11
-12
-12
-12
-11
-10
-10
-9
-8
-7
-7
-8
-8
-9
-10
-11
-11
-11
-11
-11
-11
-10
-10
-10
-11
-11
-11
-12
-12
-12
-12
-11
-11
-10
-9
-9
-8
-8
-8
-8
-9
-9
-9
-9
-9
-9
-9
-9
-9
-8
-8
-8
-9
-9
-10
-11
-12
-13
-14
-15
-15
-15
-14
-13
-12
-11
-11
-10
-10
-10
-10
-10
-11
-12
-12
-12
-12
-12
-12
-11
-11
-11
-11
-12
-13
-13
-14
-15
-15
-16
-16
-15
-15
-14
-13
-11
-10
-10
-9
-9
-10
-10
-11
-12
-13
-14
-14
-15
-15
-15
-15
-16
-16
-16
-16
-16
-16
-15
-14
-13
-11
-10
-9
-9
-8
-8
-8
-8
-7
-6
-5
-4
-2
-1
1
2
2
2
3
3
3
3
4
5
7
8
9
9
8
6
4
1
-2
-5
-8
-9
-10
-10
-10
-10
-10
-11
-12
-13
-15
-17
-18
-19
-19
-18
-17
-15
-13
-12
-12
-12
-12
-13
-15
-16
-16
-16
-16
-15
-14
-13
-12
-12
-13
-12
-10
-6
3
17
37
61
88
115
139
156
164
161
147
123
92
58
24
-4
-26
-40
-46
-46
-41
-34
-27
-21
-17
-15
-14
-13
-12
-11
-10
-8
-7
-6
-5
-5
-6
-6
-7
-7
-7
-7
-7
-6
-6
-6
-6
-6
-6
-5
-4
-3
-2
-1
-1
-1
-2
-3
-3
-4
-4
-3
-3
-2
-1
0
1
2
3
3
4
4
4
5
5
5
5
5
6
6
7
8
9
9
9
9
10
10
11
12
13
16
18
20
22
24
26
27
28
28
29
29
30
31
31
32
32
32
32
33
34
35
37
39
41
42
44
45
46
46
46
47
47
47
48
48
48
48
47
45
43
41
39
37
35
32
29
27
24
21
17
14
11
9
7
5
3
2
1
-1
-2
-3
-3
-4
-4
-4
-5
-6
-7
-9
-11
-13
-14
-15
-16
-15
-15
-14
-13
-12
-12
-11
-11
-12
-12
-12
-12
-12
-12
-12
-12
-13
-13
-14
-14
-13
-12
-11
-11
-11
-11
-12
-13
-14
-15
-16
-16
-15
-14
-12
-11
-9
-9
-9
-9
-10
-11
-12
-13
-14
-14
-14
-14
-13
-13
-13
-13
-12
-12
-12
-12
-12
-12
-12
-13
-13
-13
-13
-13
-13
-12
-12
-12
-12
-12
-12
-12
-13
-13
-13
-12
-12
-11
-11
-11
-12
-13
-15
-17
-18
-18
-18
-17
-16
-14
-12
-11
-11
-12
-13
-14
-15
-16
-16
-16
-15
-14
-13
-13
-13
-14
-15
-17
-18
-18
-18
-17
-15
-14
-13
-12
-13
-14
-15
-17
-19
-21
-23
-23
-24
-23
-23
-22
-22
-21
-21
-21
-20
-20
-20
-19
-19
-19
-19
-19
-20
-20
-21
-21
-21
-21
-21
-21
-20
-20
-20
-20
-21
-22
-24
-25
-26
-26
-26
-26
-25
-23
-22
-20
-19
-17
-16
-15
-14
-14
-14
-13
-13
-13
-13
-14
-13
-13
-12
-11
-9
-8
-6
-5
-4
-4
-4
-5
-6
-6
-7
-7
-7
-6
-6
-7
-7
-8
-9
-11
-13
-15
-17
-19
-21
-23
-24
-25
-25
-25
-25
-25
-24
-24
-23
-23
-23
-24
-24
-25
-25
-25
-25
-25
-25
-25
-26
-27
-28
-29
-29
-29
-29
-28
-28
-28
-28
-29
-28
-26
-21
-11
5
26
52
80
107
130
146
152
147
130
104
72
37
4
-25
-46
-60
-65
-65
-59
-51
-43
-35
-29
-25
-23
-22
-21
-21
-20
-20
-20
-20
-20
-21
-22
-23
-24
-24
-25
-24
-24
-23
-22
-21
-20
-20
-19
-19
-19
-20
-20
-21
-21
-21
-22
-22
-22
-21
-21
-20
-19
-18
-16
-16
-15
-15
-14
-14
-14
-14
-14
-13
-13
-12
-12
-11
-11
-10
-10
-10
-9
-9
-9
-8
-8
-8
-7
-7
-6
-5
-3
-2
0
2
3
4
5
5
6
7
7
9
10
12
14
16
18
19
20
20
19
19
19
19
19
20
21
22
23
24
25
26
26
25
25
