-3
-4
-5
-7
-8
-9
-10
-11
-11
-10
-9
-9
-8
-8
-8
-8
-9
-10
-11
-11
-11
-10
-9
-8
-7
-7
-8
-9
-11
-13
-15
-16
-16
-17
-17
-17
-17
-19
-20
-21
-23
-23
-23
-22
-19
-17
-14
-12
-11
-11
-12
-14
-16
-18
-21
-24
-27
-30
-33
-35
-38
-38
-37
-34
-27
-16
-3
13
31
50
68
85
100
112
121
127
129
126
120
109
94
76
56
35
16
-2
-16
-26
-31
-32
-31
-28
-24
-20
-17
-16
-15
-15
-15
-14
-14
-13
-12
-11
-10
-9
-9
-9
-9
-9
-9
-9
-9
-9
-9
-8
-8
-7
-6
-5
-4
-3
-2
-1
-1
0
0
0
0
0
0
0
1
2
3
4
6
8
9
11
12
13
14
14
15
15
16
16
18
19
21
22
24
25
25
25
25
25
25
26
26
27
28
29
30
31
31
32
32
32
32
32
32
30
29
26
23
19
15
12
9
7
6
6
5
5
4
2
0
-3
-6
-8
-11
-12
-12
-12
-12
-12
-12
-12
-13
-14
-15
-16
-17
-17
-17
-17
-17
-17
-17
-17
-18
-18
-19
-19
-20
-20
-21
-21
-21
-21
-21
-20
-18
-17
-15
-13
-11
-10
-10
-11
-12
-14
-16
-17
-19
-19
-20
-19
-18
-17
-16
-15
-15
-15
-15
-15
-15
-15
-14
-12
-11
-9
-8
-7
-7
-7
-8
-8
-9
-9
-8
-8
-7
-6
-5
-4
-4
-5
-6
-7
-8
-9
-9
-9
-7
-6
-4
-2
0
2
2
2
1
0
-2
-5
-7
-8
-9
-10
-10
-10
-10
-10
-11
-12
-14
-15
-16
-17
-17
-16
-15
-15
-14
-14
-14
-15
-16
-17
-16
-15
-13
-12
-10
-10
-11
-15
-19
-25
-30
-34
-35
-33
-26
-15
-1
16
34
53
72
90
106
119
129
135
137
134
126
113
96
76
55
33
14
-3
-15
-22
-26
-27
-25
-22
-18
-16
-13
-12
-11
-10
-9
-8
-7
-7
-6
-6
-6
-7
-8
-9
-10
-10
-9
-8
-6
-4
-2
1
2
3
3
2
0
-1
-3
-5
-5
-5
-5
-3
-1
1
3
5
6
7
7
8
9
11
13
15
17
18
19
19
19
18
17
16
16
17
19
21
24
26
28
30
31
31
32
33
34
36
37
38
38
38
37
36
34
33
31
31
31
31
30
30
28
25
22
18
14
11
7
5
3
2
0
0
-2
-3
-4
-5
-7
-8
-9
-10
-11
-12
-13
-15
-16
-17
-18
-18
-18
-17
-17
-16
-15
-15
-15
-16
-17
-18
-18
-18
-18
-16
-15
-13
-11
-10
-10
-10
-11
-12
-14
-15
-15
-15
-15
-13
-12
-11
-10
-9
-10
-11
-13
-15
-18
-20
-21
-22
-22
-21
-19
-17
-15
-12
-11
-10
-9
-9
-10
-10
-11
-11
-11
-10
-9
-9
-9
-8
-8
-8
-8
-8
-8
-7
-6
-5
-4
-4
-3
-3
-3
-3
-2
-2
-2
-1
-1
-1
-1
-2
-2
-3
-4
-4
-5
-6
-7
-8
-9
-10
-11
-12
-13
-13
-13
-12
-12
-12
-12
-13
-13
-14
-14
-14
-14
-13
-12
-11
-11
-12
-13
-14
-16
-18
-19
-19
-19
-17
-16
-16
-16
-18
-21
-24
-27
-28
-27
-23
-15
-3
12
30
49
68
86
102
116
126
132
134
131
124
112
96
76
55
33
12
-7
-21
-31
-36
-37
-35
-30
-25
-19
-15
-12
-10
-10
-10
-11
-12
-12
-12
-12
-12
-11
-11
-10
-10
-9
-9
-9
-8
-8
-7
-6
-6
-5
-4
-4
-3
-3
-3
-4
-4
-4
-4
-4
-3
-1
0
2
3
5
5
5
5
5
5
4
5
5
6
8
9
10
11
12
13
14
15
16
18
20
21
23
24
25
26
27
29
30
31
32
33
33
33
31
30
28
26
24
23
22
21
21
19
18
16
13
11
8
5
3
2
0
-1
-2
-3
-4
-6
-8
-10
-11
-13
-15
-16
-18
-19
-20
-20
-21
-21
-21
-21
-21
-21
-21
-21
-21
-20
-19
-19
-18
-18
-18
-18
-18
-19
-20
-20
-20
-19
-18
-17
-17
-17
-17
-18
-19
-20
-20
-19
-18
-16
-14
-13
-12
-12
-13
-15
-16
-18
-19
-19
-18
-16
-14
-12
-11
-11
-11
-12
-13
-15
-16
-17
-16
-16
-15
-13
-12
-11
-11
-11
-12
-13
-14
-15
-16
-16
-16
-15
-13
-12
-10
-8
-7
-7
-7
-8
-9
-10
-11
-11
-12
-11
-11
-10
-9
-9
-8
-8
-8
-7
-7
-6
-6
-5
-5
-5
-6
-8
-10
-13
-16
-18
-20
-21
-21
-20
-18
-17
-16
-15
-15
-15
-16
-17
-19
-20
-21
-21
-22
-22
-22
-22
-22
-21
-20
-19
-18
-18
-19
-21
-24
-28
-31
-33
-33
-30
-24
-14
-1
14
31
49
66
82
96
107
114
118
118
113
104
90
73
53
33
12
-6
-20
-30
-36
-37
-35
-32
-27
-23
-21
-19
-19
-19
-20
-20
-19
-18
-17
-15
-14
-14
-14
-14
-14
-14
-13
-12
-10
-9
-7
-5
-4
-4
-4
-4
-3
-3
-3
-3
-3
-4
-4
-4
-5
-4
-3
-1
2
4
7
9
10
10
9
8
7
6
6
7
8
10
12
14
15
16
17
17
18
20
22
24
27
30
31
32
31
30
28
25
23
22
21
22
23
25
27
28
29
30
29
28
27
26
24
22
19
16
13
9
5
1
-3
-6
-9
-10
-11
-11
-10
-10
-9
-8
-9
-10
-12
-14
-16
-19
-20
-21
-22
-21
-21
-20
-19
-18
-18
-18
-18
-17
-17
-16
-14
-13
-12
-11
-11
-11
-12
-14
-15
-17
-19
-19
-20
-19
-18
-16
-15
-14
-13
-12
-13
-13
-14
-15
-16
-17
-18
-18
-19
-20
-20
-20
-20
-19
-17
-15
-13
-11
-10
-9
-8
-8
-9
-10
-12
-13
-14
-15
-15
-14
-13
-12
-11
-10
-9
-9
-8
-8
-8
-7
-6
-5
-4
-3
-2
-2
-2
-3
-4
-5
-6
-7
-7
-6
-6
-5
-4
-4
-4
-4
-4
-4
-4
-3
-3
-2
-2
-2
-3
-4
-5
-7
-8
-9
-9
-9
-9
-9
-9
-9
-10
-12
-13
-15
-15
-15
-14
-13
-11
-8
-7
-6
-6
-7
-8
-9
-10
-10
-11
-11
-11
-13
-14
-17
-20
-23
-25
-25
-23
-17
-9
3
17
33
50
67
83
98
111
121
128
132
131
125
115
101
83
63
42
23
6
-8
-18
-24
-26
-25
-23
-20
-17
-14
-11
-9
-7
-5
-4
-3
-3
-4
-5
-7
-9
-11
-12
-11
-10
-7
-5
-2
0
1
1
0
-1
-2
-3
-3
-2
-1
0
1
3
4
4
4
4
4
5
5
6
7
7
8
8
9
10
11
12
13
15
16
18
18
19
19
19
19
20
21
23
25
27
28
29
29
29
29
28
28
28
29
30
32
35
36
37
37
36
35
32
30
27
24
22
20
18
17
15
13
11
9
7
6
4
4
3
2
1
-1
-3
-6
-8
-11
-14
-16
-18
-18
-18
-18
-17
-16
-15
-15
-15
-16
-17
-18
-19
-19
-19
-19
-19
-18
-18
-18
-19
-19
-19
-20
-19
-18
-16
-15
-13
-11
-10
-10
-11
-13
-15
-17
-19
-20
-21
-20
-18
-16
-14
-12
-10
-9
-9
-10
-11
-13
-15
-16
-17
-17
-17
-17
-16
-15
-15
-15
-15
-16
-17
-17
-18
-18
-18
-17
-16
-14
-12
-11
-9
-8
-7
-6
-6
-6
-7
-8
-9
-10
-12
-13
-14
-14
-13
-12
-10
-8
-6
-5
-5
-5
-6
-8
-10
-12
-14
-15
-15
-14
-13
-10
-8
-5
-4
-3
-4
-5
-8
-11
-14
-17
-19
-20
-20
-19
-18
-16
-15
-15
-16
-17
-18
-20
-21
-22
-23
-22
-22
-21
-20
-19
-19
-18
-18
-17
-17
-16
-16
-16
-17
-19
-21
-25
-28
-31
-31
-29
-24
-14
-2
13
30
48
66
82
96
108
118
124
127
127
122
114
100
83
64
42
22
3
-12
-23
-29
-30
-28
-24
-19
-15
-12
-11
-12
-13
-15
-17
-18
-17
-16
-14
-12
-10
-9
-8
-8
-8
-9
-10
-11
-11
-11
-10
-9
-7
-4
-2
0
1
1
1
0
-1
-2
-2
-3
-2
-1
0
2
3
4
5
5
5
5
6
6
7
8
10
12
14
16
18
19
21
22
23
24
24
25
26
27
28
29
29
30
31
31
32
32
33
33
34
34
33
32
31
29
27
24
22
20
18
17
17
17
17
16
15
13
11
7
4
0
-3
-6
-8
-10
-11
-11
-11
-11
-11
-11
-12
-12
-13
-14
-15
-16
-17
-18
-18
-18
-17
-16
-15
-14
-13
-13
-13
-14
-16
-18
-20
-22
-23
-23
-22
-20
-18
-16
-15
-14
-15
-16
-17
-19
-21
-22
-23
-22
-21
-19
-17
-15
-13
-12
-12
-13
-14
-15
-17
-18
-19
-19
-19
-18
-17
-16
-15
-13
-12
-10
-9
-8
-7
-7
-8
-8
-9
-11
-12
-12
-13
-13
-13
-13
-13
-12
-12
-12
-12
-12
-12
-11
-11
-10
-9
-9
-8
-8
-8
-8
-8
-9
-9
-9
-9
-9
-8
-6
-5
-4
-3
-2
-3
-3
-4
-6
-7
-9
-10
-11
-11
-11
-11
-11
-10
-11
-11
-12
-13
-14
-16
-17
-18
-19
-18
-18
-17
-15
-14
-12
-12
-12
-12
-14
-15
-17
-18
-19
-19
-19
-19
-19
-19
-21
-22
-24
-26
-26
-24
-19
-11
1
15
30
47
62
76
88
97
103
106
106
102
96
87
75
60
43
25
8
-8
-20
-30
-35
-36
-34
-30
-26
-21
-17
-13
-11
-10
-9
-8
-8
-8
-8
-8
-8
-9
-9
-10
-10
-10
-9
-8
-6
-4
-3
-1
0
1
1
1
0
-2
-3
-4
-5
-5
-4
-3
-1
1
2
4
5
6
6
6
7
8
9
11
13
14
16
17
18
18
19
20
21
22
24
26
27
28
29
30
31
32
33
34
35
36
37
37
37
37
37
36
36
35
34
33
31
29
25
22
18
14
11
10
9
9
10
10
10
9
7
4
1
-2
-5
-7
-9
-10
-11
-12
-13
-14
-15
-16
-17
-17
-17
-15
-14
-13
-11
-11
-11
-11
-12
-13
-15
-16
-16
-17
-17
-17
-18
-18
-18
-18
-18
-18
-17
-16
-14
-13
-12
-12
-12
-12
-14
-16
-18
-19
-21
-21
-21
-20
-18
-16
-14
-12
-11
-9
-9
-9
-10
-11
-12
-13
-14
-15
-15
-15
-14
-14
-13
-13
-12
-11
-11
-10
-10
-10
-10
-11
-11
-12
-13
-13
-14
-14
-14
-13
-13
-12
-11
-11
-10
-9
-8
-7
-6
-5
-4
-4
-5
-6
-7
-8
-9
-10
-9
-8
-6
-4
-2
0
1
0
-1
-2
-4
-5
-6
-6
-6
-6
-6
-7
-8
-10
-12
-14
-16
-16
-16
-15
-13
-12
-11
-10
-11
-13
-15
-17
-19
-20
-20
-19
-18
-15
-14
-12
-12
-12
-13
-15
-16
-18
-19
-20
-21
-22
-23
-25
-27
-27
-27
-24
-19
-10
1
15
31
48
66
82
97
109
118
124
125
121
113
102
87
70
52
34
17
3
-9
-17
-22
-24
-25
-24
-22
-20
-17
-15
-12
-10
-8
-6
-6
-6
-6
-7
-9
-9
-10
-9
-8
-6
-4
-2
-1
0
0
0
-1
-2
-2
-2
-2
-1
-1
-1
-1
-2
-3
-5
-5
-5
-3
-1
2
6
9
11
13
13
12
11
10
9
9
10
11
12
14
16
18
19
21
24
26
28
31
33
34
35
35
34
33
32
31
31
31
33
34
35
36
37
37
36
34
32
30
28
26
24
21
19
16
13
9
6
4
2
1
1
1
2
2
2
0
-2
-6
-10
-14
-18
-21
-22
-23
-22
-20
-19
-17
-16
-15
-14
-15
-15
-15
-16
-16
-15
-15
-15
-15
-16
-16
-17
-18
-19
-19
-19
-17
-15
-13
-10
-7
-6
-5
-5
-7
-9
-11
-13
-15
-16
-17
-16
-15
-14
-14
-13
-14
-14
-16
-17
-18
-18
-18
-17
-16
-14
-13
-12
-11
-11
-11
-12
-12
-12
-12
-12
-11
-11
-10
-10
-11
-12
-13
-14
-15
-14
-13
-12
-10
-8
-6
-5
-5
-6
-8
-10
-13
-14
-15
-15
-14
-12
-9
-7
-4
-3
-2
-2
-3
-4
-5
-5
-6
-5
-4
-3
-1
0
0
-1
-2
-4
-6
-8
-8
-9
-8
-7
-6
-6
-6
-7
-9
-12
-14
-17
-19
-20
-19
-19
-17
-15
-13
-12
-11
-11
-11
-12
-13
-15
-16
-17
-18
-18
-18
-18
-18
-18
-20
-21
-23
-24
-24
-22
-16
-5
9
27
48
71
92
110
124
131
132
126
114
99
81
62
44
27
13
1
-8
-16
-21
-25
-27
-28
-27
-25
-22
-18
-14
-11
-8
-7
-7
-7
-8
-8
-8
-7
-6
-4
-2
-1
0
0
-1
-3
-5
-7
-9
-10
-11
-10
-9
-8
-6
-5
-3
-1
0
1
2
2
2
1
0
-1
-2
-2
-1
0
2
5
8
10
12
13
14
14
13
13
14
15
17
20
24
27
29
31
31
31
30
29
28
28
28
30
31
33
34
35
35
35
34
33
31
30
28
26
24
21
19
16
14
11
9
7
4
2
0
-3
-6
-9
-12
-14
-16
-17
-18
-18
-18
-18
-18
-19
-19
-20
-21
-22
-22
-22
-22
-21
-21
-21
-20
-21
-21
-21
-21
-22
-22
-21
-21
-20
-20
-19
-19
-18
-18
-18
-19
-19
-20
-20
-20
-20
-20
-20
-20
-20
-20
-20
-20
-20
-20
-20
-20
-20
-19
-18
-18
-17
-17
-16
-17
-17
-18
-18
-18
-19
-18
-18
-17
-16
-15
-15
-15
-15
-15
-16
-16
-17
-16
-16
-15
-13
-11
-10
-9
-9
-10
-11
-13
-14
-16
-16
-16
-15
-13
-11
-10
-9
-8
-8
-9
-9
-9
-8
-7
-6
-4
-2
-1
-1
-1
-2
-3
-4
-5
-6
-6
-6
-6
-5
-4
-3
-2
-1
0
0
-1
-2
-5
-7
-10
-13
-15
-16
-16
-15
-14
-12
-12
-11
-12
-14
-16
-17
-19
-20
-20
-20
-19
-17
-17
-16
-16
-16
-17
-17
-18
-18
-19
-19
-21
-22
-24
-26
-26
-24
-19
-10
2
18
37
57
78
99
117
132
143
150
152
150
143
131
116
97
75
52
30
9
-8
-21
-29
-33
-32
-28
-22
-17
-12
-10
-9
-10
-12
-13
-14
-15
-14
-12
-10
-9
-8
-7
-8
-9
-9
-10
-10
-9
-8
-6
-5
-4
-4
-5
-6
-7
-7
-7
-7
-6
-4
-2
0
2
4
6
7
8
10
11
12
12
13
13
13
13
13
13
13
13
14
15
17
19
21
24
26
28
30
31
31
32
32
33
34
36
38
40
41
43
44
44
43
41
39
37
34
32
29
27
25
23
22
21
20
18
17
16
14
12
10
7
4
1
-2
-5
-7
-9
-11
-13
-14
-16
-18
-19
-21
-23
-25
-26
-26
-26
-25
-24
-22
-21
-19
-19
-18
-19
-19
-20
-21
-22
-23
-23
-23
-23
-22
-22
-21
-21
-20
-20
-19
-18
-18
-17
-16
-15
-14
-14
-15
-16
-17
-18
-20
-20
-21
-21
-20
-18
-17
-15
-14
-13
-13
-13
-14
-15
-17
-18
-19
-20
-19
-18
-17
-15
-13
-11
-11
-11
-11
-12
-14
-15
-15
-15
-14
-12
-11
-9
-8
-9
-10
-12
-14
-16
-17
-17
-15
-13
-11
-8
-6
-4
-4
-4
-5
-6
-7
-8
-8
-9
-9
-9
-8
-8
-7
-7
-6
-5
-5
-5
-6
-8
-11
-13
-16
-18
-20
-20
-20
-19
-18
-17
-17
-18
-19
-21
-22
-24
-24
-23
-22
-20
-19
-17
-17
-18
-20
-22
-24
-26
-28
-30
-32
-34
-36
-38
-40
-41
-40
-35
-27
-14
2
22
45
68
91
112
130
145
156
162
164
160
151
137
117
93
67
40
14
-8
-26
-38
-44
-45
-42
-37
-30
-24
-19
-16
-14
-13
-13
-13
-14
-14
-13
-13
-12
-12
-12
-11
-11
-10
-10
-9
-9
-8
-8
-8
-7
-7
-7
-7
-7
-7
-7
-7
-6
-5
-3
-2
0
1
2
3
3
4
4
5
6
8
9
11
13
14
15
16
16
17
18
20
22
24
25
27
28
28
28
28
28
29
30
31
32
34
34
34
33
32
30
29
29
29
29
30
31
31
31
29
26
23
20
16
14
12
10
9
7
5
3
1
-2
-5
-8
-10
-12
-14
-16
-17
-19
-20
-22
-23
-23
-22
-21
-19
-17
-16
-15
-15
-16
-18
-21
-23
-24
-25
-24
-23
-21
-19
-17
-16
-16
-16
-17
-19
-20
-21
-21
-21
-20
-19
-18
-17
-16
-16
-16
-16
-16
-16
-17
-17
-18
-18
-19
-19
-19
-19
-18
-17
-16
-15
-14
-14
-14
-14
-15
-15
-16
-16
-17
-17
-17
-17
-17
-17
-17
-17
-17
-17
-16
-15
-14
-13
-12
-11
-11
-11
-11
-11
-11
-10
-9
-8
-6
-4
-2
-2
-2
-3
-6
-8
-11
-13
-14
-13
-12
-9
-6
-4
-2
-1
-1
-2
-4
-6
-9
-12
-14
-16
-18
-19
-20
-20
-20
-20
-19
-18
-17
-16
-15
-15
-15
-16
-17
-19
-21
-22
-24
-25
-25
-25
-24
-23
-22
-21
-20
-21
-22
-25
-28
-32
-34
-34
-31
-25
-14
1
21
43
67
91
115
135
152
164
171
171
164
152
134
111
86
59
33
10
-10
-25
-35
-40
-41
-40
-37
-33
-30
-27
-25
-23
-22
-21
-19
-17
-16
-14
-13
-11
-11
-10
-10
-9
-9
-9
-8
-8
-8
-8
-8
-8
-7
-5
-4
-2
0
2
2
2
1
0
-1
-2
-2
-1
1
3
6
8
9
10
10
9
8
7
7
8
9
11
12
14
15
16
17
19
20
23
26
29
32
34
35
35
34
32
31
29
28
29
30
31
33
34
34
34
32
30
27
24
21
19
17
16
16
15
14
13
11
9
6
3
0
-3
-6
-7
-8
-9
-9
-10
-11
-13
-15
-17
-20
-21
-23
-24
-24
-23
-23
-22
-22
-22
-23
-23
-24
-25
-25
-24
-24
-23
-21
-21
-20
-20
-20
-21
-21
-21
-21
-21
-21
-20
-20
-19
-19
-19
-18
-18
-18
-17
-17
-16
-16
-16
-15
-15
-15
-15
-15
-16
-16
-16
-16
-16
-16
-16
-15
-15
-14
-12
-11
-10
-9
-9
-9
-9
-10
-11
-11
-12
-12
-11
-10
-9
-8
-7
-7
-7
-7
-7
-8
-7
-7
-5
-4
-3
-2
-1
-1
-2
-3
-4
-4
-5
-5
-4
-4
-5
-6
-8
-10
-13
-15
-17
-17
-17
-16
-15
-15
-16
-18
-20
-23
-26
-29
-30
-30
-29
-27
-25
-23
-22
-23
-24
-26
-28
-29
-29
-27
-26
-24
-24
-24
-27
-31
-35
-39
-41
-40
-34
-23
-7
12
35
59
83
105
126
143
157
167
171
170
163
150
131
106
79
49
21
-3
-23
-37
-45
-48
-46
-41
-36
-30
-25
-21
-18
-16
-15
-15
-15
-16
-17
-18
-19
-19
-18
-16
-13
-9
-6
-3
-2
-2
-4
-7
-10
-12
-13
-12
-10
-7
-3
0
3
4
4
2
0
-2
-3
-4
-4
-3
-2
1
3
5
8
9
11
12
13
13
14
14
15
16
17
19
21
23
25
28
30
31
32
33
33
33
33
32
32
32
33
33
34
35
35
35
34
32
30
28
26
23
21
20
18
17
15
13
11
8
6
3
2
0
-1
-1
-1
-1
-2
-3
-5
-7
-9
-12
-14
-16
-17
-17
-18
-18
-17
-17
-17
-17
-17
-17
-17
-17
-17
-17
-16
-16
-16
-15
-15
-15
-15
-16
-16
-17
-18
-18
-18
-18
-17
-16
-14
-12
-11
-10
-9
-10
-11
-12
-14
-16
-17
-18
-19
-19
-20
-20
-20
-19
-19
-17
-15
-13
-10
-7
-5
-3
-3
-4
-6
-8
-11
-12
-13
-13
-11
-9
-6
-3
-1
1
1
1
0
-2
-3
-3
-3
-2
-1
0
1
2
2
1
0
-1
-3
-5
-7
-9
-10
-11
-12
-13
-13
-14
-14
-14
-15
-14
-14
-14
-13
-13
-12
-12
-13
-14
-15
-16
-17
-18
-19
-19
-19
-18
-17
-16
-16
-15
-15
-16
-17
-18
-21
-24
-27
-30
-32
-33
-31
-26
-17
-5
11
30
51
73
94
113
130
144
154
158
158
153
142
125
105
81
56
31
8
-11
-25
-34
-37
-37
-33
-28
-23
-20
-18
-17
-19
-20
-22
-22
-22
-20
-18
-15
-12
-10
-9
-9
-9
-11
-13
-14
-16
-17
-17
-16
-14
-12
-10
-7
-5
-4
-3
-4
-5
-6
-7
-8
-8
-7
-6
-4
-1
1
2
3
4
4
3
3
3
3
3
4
6
8
10
12
14
16
18
20
21
22
23
24
25
25
26
27
28
29
30
31
31
30
29
27
26
24
23
22
22
22
22
21
20
18
15
11
7
2
-1
-4
-6
-7
-7
-7
-6
-6
-7
-7
-8
-9
-11
-13
-14
-16
-18
-20
-22
-23
-23
-23
-21
-19
-18
-16
-15
-15
-17
-19
-22
-24
-27
-28
-29
-29
-27
-25
-23
-21
-19
-18
-17
-17
-17
-18
-18
-18
-19
-19
-19
-19
-19
-19
-19
-19
-19
-19
-19
-18
-18
-17
-15
-14
-13
-11
-11
-10
-11
-11
-13
-14
-16
-17
-17
-17
-16
-14
-12
-9
-6
-4
-3
-2
-3
-4
-6
-7
-9
-11
-11
-12
-12
-12
-11
-10
-9
-8
-7
-6
-5
-5
-6
-6
-8
-10
-12
-14
-16
-17
-18
-19
-19
-19
-19
-19
-20
-20
-19
-19
-18
-17
-16
-16
-16
-17
-19
-21
-23
-25
-26
-26
-25
-23
-22
-21
-22
-25
-28
-33
-37
-39
-38
-33
-24
-11
6
25
45
65
84
101
117
130
140
146
148
145
136
121
102
79
54
29
6
-12
-26
-34
-38
-38
-36
-32
-28
-24
-21
-18
-15
-12
-9
-7
-6
-6
-8
-11
-15
-18
-21
-23
-23
-22
-19
-16
-12
-9
-6
-4
-3
-2
-2
-2
-3
-4
-5
-7
-8
-8
-8
-8
-6
-4
-2
0
3
5
6
7
8
8
8
8
8
8
9
10
11
12
14
16
18
20
22
23
24
24
24
24
24
23
23
24
25
27
28
30
31
32
32
32
32
31
29
28
27
26
24
23
21
19
16
13
10
7
3
0
-2
-4
-6
-7
-8
-8
-9
-10
-11
-12
-14
-16
-18
-21
-23
-25
-26
-27
-26
-25
-24
-22
-20
-18
-17
-16
-16
-18
-19
-21
-23
-25
-26
-26
-25
-24
-22
-20
-18
-17
-16
-16
-17
-18
-19
-20
-21
-21
-21
-20
-19
-18
-17
-17
-16
-16
-16
-17
-17
-18
-18
-19
-18
-18
-17
-16
-15
-14
-12
-11
-10
-10
-10
-10
-10
-10
-10
-10
-9
-9
-9
-9
-9
-10
-10
-11
-12
-12
-11
-10
-9
-7
-6
-5
-5
-6
-7
-9
-11
-13
-15
-16
-17
-18
-19
-19
-19
-20
-20
-21
-21
-21
-21
-21
-21
-21
-21
-21
-21
-21
-22
-22
-22
-22
-22
-22
-21
-21
-20
-21
-22
-25
-29
-34
-38
-42
-44
-43
-38
-29
-17
0
19
39
61
81
100
118
132
143
151
153
150
142
127
108
84
58
33
9
-11
-26
-35
-38
-38
-34
-30
-25
-21
-19
-17
-17
-17
-16
-15
-14
-12
-10
-9
-9
-10
-11
-13
-14
-16
-17
-16
-16
-14
-12
-10
-9
-7
-6
-5
-5
-5
-5
-5
-5
-5
-4
-3
-2
-1
1
2
4
5
5
6
6
6
7
7
8
10
11
12
14
15
16
17
17
18
20
21
22
24
26
27
27
28
27
27
26
25
25
25
26
28
29
31
32
33
33
32
30
28
25
22
20
18
16
15
14
14
12
10
7
3
-1
-5
-9
-12
-13
-14
-15
-14
-14
-13
-13
-13
-14
-15
-15
-16
-16
-17
-17
-17
-18
-18
-18
-18
-18
-18
-17
-16
-16
-15
-15
-15
-16
-16
-17
-18
-18
-18
-18
-18
-17
-17
-17
-16
-16
-16
-16
-16
-16
-15
-14
-14
-13
-12
-11
-11
-11
-11
-11
-11
-11
-10
-10
-9
-9
-8
-7
-7
-7
-7
-7
-8
-8
-8
-7
-6
-5
-4
-3
-3
-3
-3
-4
-5
-7
-8
-8
-8
-7
-6
-5
-3
-2
-2
-2
-3
-5
-7
-9
-11
-12
-13
-13
-13
-13
-13
-13
-14
-15
-17
-18
-18
-18
-17
-16
-15
-14
-13
-13
-14
-14
-15
-15
-15
-16
-16
-17
-20
-23
-28
-33
-38
-40
-41
-38
-30
-19
-4
13
33
54
75
95
114
130
142
151
154
152
144
131
113
91
67
44
22
3
-11
-21
-26
-26
-24
-19
-15
-10
-7
-5
-5
-6
-8
-11
-14
-16
-17
-17
-17
-15
-14
-12
-10
-9
-7
-6
-6
-5
-3
-2
-1
0
1
2
2
1
1
1
0
0
0
-1
-1
-1
-1
-1
-1
0
2
4
7
11
14
16
17
18
17
16
15
14
14
14
16
18
20
22
23
25
26
27
28
29
31
33
34
35
36
35
34
33
32
30
30
29
30
30
30
30
29
28
26
23
21
18
16
13
11
8
6
3
0
-3
-6
-8
-10
-12
-13
-13
-13
-14
-14
-14
-14
-14
-14
-14
-14
-15
-16
-16
-17
-18
-18
-19
-19
-19
-18
-18
-17
-16
-15
-14
-14
-13
-13
-13
-13
-14
-14
-15
-16
-17
-17
-17
-16
-15
-14
-13
-12
-12
-11
-11
-12
-12
-12
-12
-12
-12
-12
-12
-12
-12
-13
-12
-12
-11
-10
-9
-8
-7
-6
-6
-6
-6
-6
-7
-7
-6
-6
-5
-5
-4
-4
-4
-4
-4
-5
-5
-6
-6
-6
-7
-7
-7
-8
-9
-10
-12
-14
-15
-17
-18
-18
-19
-19
-19
-19
-19
-20
-20
-20
-20
-20
-20
-21
-21
-22
-23
-23
-23
-23
-22
-21
-20
-19
-19
-20
-23
-28
-33
-38
-42
-43
-41
-34
-23
-9
8
28
48
68
87
103
118
129
137
141
139
132
120
102
81
57
33
11
-7
-21
-31
-35
-35
-33
-29
-25
-21
-19
-16
-15
-14
-13
-12
-12
-11
-11
-12
-12
-13
-13
-13
-13
-12
-11
-10
-9
-8
-8
-8
-9
-9
-9
-9
-9
-8
-6
-5
-3
-1
1
2
3
3
3
2
1
-1
-2
-4
-4
-4
-4
-3
-1
1
3
5
6
8
9
11
13
14
16
18
19
20
21
22
23
23
24
25
25
26
26
26
25
25
24
25
25
26
27
27
27
26
24
21
18
14
10
7
5
3
2
1
1
0
-1
-3
-5
-7
-9
-10
-11
-11
-12
-13
-14
-15
-16
-18
-19
-19
-19
-18
-18
-17
-16
-16
-17
-18
-20
-21
-23
-23
-23
-22
-21
-20
-19
-19
-19
-19
-20
-21
-22
-23
-23
-22
-22
-21
-20
-19
-18
-18
-18
-18
-18
-19
-19
-19
-19
-20
-20
-20
-19
-19
-18
-18
-17
-15
-14
-13
-12
-11
-11
-11
-10
-10
-9
-8
-7
-6
-4
-3
-3
-3
-3
-5
-6
-7
-9
-9
-9
-9
-8
-7
-6
-5
-4
-4
-5
-7
-9
-11
-13
-16
-17
-19
-19
-20
-20
-19
-19
-19
-19
-20
-20
-21
-21
-21
-21
-21
-21
-21
-21
-22
-23
-23
-24
-24
-23
-23
-22
-22
-23
-26
-29
-32
-36
-37
-37
-34
-26
-16
-2
15
33
51
68
84
99
110
120
126
128
126
119
108
91
72
50
27
6
-12
-26
-35
-39
-39
-35
-29
-23
-18
-14
-12
-12
-13
-15
-16
-17
-18
-18
-17
-16
-14
-13
-12
-12
-11
-11
-10
-9
-8
-7
-6
-5
-4
-4
-4
-4
-5
-5
-6
-6
-5
-4
-3
-1
0
2
3
4
4
4
5
5
5
5
6
7
8
10
12
14
15
17
19
20
20
20
20
19
19
19
20
21
22
23
25
26
28
29
29
29
29
28
27
26
25
24
22
22
21
21
20
20
19
17
15
12
8
4
0
-3
-5
-6
-6
-6
-5
-5
-5
-7
-9
-11
-14
-16
-18
-20
-20
-21
-21
-21
-21
-21
-20
-20
-19
-17
-16
-14
-13
-13
-13
-13
-14
-14
-15
-15
-15
-15
-15
-15
-16
-18
-20
-22
-24
-25
-24
-22
-19
-16
-13
-11
-9
-9
-10
-11
-12
-14
-15
-15
-15
-15
-14
-14
-14
-14
-15
-14
-14
-13
-11
-10
-8
-7
-6
-6
-7
-8
-9
-10
-10
-9
-8
-7
-6
-5
-5
-5
-6
-7
-8
-8
-9
-8
-7
-5
-4
-3
-2
-2
-2
-3
-5
-7
-9
-11
-13
-14
-15
-15
-15
-14
-14
-14
-14
-14
-14
-15
-16
-16
-16
-16
-16
-15
-15
-15
-14
-15
-15
-16
-17
-19
-22
-25
-28
-31
-34
-35
-35
-32
-26
-16
-4
12
29
49
68
87
104
118
129
136
139
136
128
115
98
78
56
34
14
-4
-18
-27
-31
-32
-29
-25
-20
-16
-13
-12
-12
-13
-14
-16
-16
-15
-14
-12
-9
-7
-5
-5
-5
-5
-6
-7
-7
-6
-5
-4
-2
-1
-1
-2
-3
-4
-6
-7
-7
-6
-5
-3
-1
2
4
6
7
7
7
7
7
7
7
7
8
9
10
12
13
15
18
20
22
23
25
26
26
26
26
26
26
26
27
28
30
31
33
34
35
35
35
34
33
32
31
30
29
28
26
24
21
18
15
11
9
7
5
5
4
4
3
2
0
-2
-5
-8
-11
-13
-15
-16
-16
-15
-14
-13
-12
-12
-12
-13
-14
-15
-16
-17
-18
-19
-19
-18
-17
-16
-15
-14
-14
-14
-15
-16
-17
-18
-18
-19
-19
-18
-17
-16
-16
-15
-15
-16
-16
-17
-17
-16
-15
-14
-12
-11
-9
-9
-9
-10
-11
-13
-14
-15
-16
-17
-17
-16
-15
-14
-12
-10
-9
-7
-6
-4
-3
-2
-2
-2
-2
-3
-4
-5
-6
-7
-8
-7
-7
-5
-4
-2
-1
0
0
0
0
-2
-3
-5
-8
-10
-12
-13
-14
-14
-14
-14
-13
-13
-13
-13
-15
-16
-17
-18
-18
-17
-16
-14
-13
-12
-12
-14
-17
-19
-22
-24
-25
-25
-24
-22
-22
-22
-24
-27
-30
-33
-35
-32
-26
-15
0
18
39
60
81
100
116
128
135
139
137
131
121
106
88
68
47
26
7
-8
-20
-27
-31
-32
-31
-28
-26
-23
-20
-18
-16
-14
-12
-10
-8
-7
-7
-7
-8
-9
-10
-11
-12
-11
-10
-9
-7
-6
-4
-4
-4
-4
-4
-4
-4
-4
-4
-3
-2
-1
0
1
2
3
4
4
5
5
6
6
6
7
7
9
10
11
13
14
15
15
14
14
13
13
13
15
17
20
23
27
29
31
32
32
32
30
29
28
27
27
27
28
29
29
29
29
28
26
24
21
18
16
13
11
9
6
4
1
-1
-4
-6
-9
-11
-12
-13
-13
-14
-14
-14
-14
-14
-14
-15
-15
-15
-15
-15
-16
-17
-18
-19
-21
-22
-24
-25
-26
-26
-26
-25
-23
-22
-20
-18
-17
-17
-17
-17
-18
-19
-20
-21
-21
-21
-20
-18
-16
-14
-13
-12
-12
-13
-14
-15
-16
-17
-17
-16
-15
-15
-14
-14
-15
-16
-17
-18
-18
-18
-17
-16
-15
-13
-12
-11
-10
-9
-9
-8
-8
-7
-7
-7
-7
-7
-8
-9
-11
-11
-12
-12
-12
-12
-11
-10
-10
-9
-9
-8
-8
-7
-7
-6
-6
-6
-6
-7
-8
-10
-11
-13
-14
-15
-15
-15
-15
-15
-15
-15
-16
-16
-17
-17
-18
-18
-18
-18
-18
-19
-19
-19
-19
-19
-19
-19
-19
-20
-21
-24
-27
-30
-33
-35
-34
-30
-23
-11
3
21
39
59
77
93
107
118
125
129
128
124
115
102
85
66
45
24
4
-12
-24
-32
-36
-35
-32
-28
-24
-20
-17
-15
-14
-13
-12
-12
-11
-10
-10
-10
-10
-10
-10
-10
-10
-9
-8
-7
-6
-5
-5
-5
-5
-5
-5
-5
-4
-3
-1
0
1
2
2
2
2
2
2
2
2
2
3
3
4
5
7
9
11
13
14
15
16
16
16
16
16
17
19
21
24
26
28
29
30
30
30
30
30
31
31
32
33
32
31
29
27
24
21
19
18
17
17
17
18
18
17
16
14
12
9
6
4
2
0
-1
-2
-3
-4
-4
-5
-5
-5
-6
-6
-7
-9
-11
-13
-15
-16
-17
-18
-18
-18
-17
-16
-15
-14
-14
-14
-15
-16
-17
-18
-18
-19
-19
-19
-18
-17
-15
-14
-13
-13
-13
-14
-15
-17
-19
-21
-22
-22
-21
-20
-18
-15
-14
-12
-12
-13
-13
-14
-15
-15
-15
-14
-12
-11
-10
-9
-8
-8
-8
-8
-8
-7
-7
-6
-6
-6
-7
-8
-10
-11
-12
-12
-11
-9
-7
-6
-4
-3
-3
-4
-5
-6
-7
-8
-8
-8
-8
-7
-6
-5
-4
-4
-5
-5
-6
-7
-8
-9
-11
-12
-13
-15
-16
-17
-19
-19
-20
-20
-19
-19
-18
-17
-16
-15
-15
-15
-15
-15
-16
-16
-17
-17
-16
-16
-16
-17
-17
-19
-21
-23
-25
-27
-28
-28
-26
-21
-15
-5
6
20
36
53
69
85
100
111
119
123
123
117
107
93
75
55
35
15
-3
-18
-29
-35
-37
-36
-32
-27
-21
-17
-14
-12
-12
-13
-14
-15
-15
-15
-13
-12
-10
-8
-7
-6
-6
-6
-5
-5
-4
-2
-1
1
2
2
2
1
-1
-2
-2
-2
-2
0
2
4
6
7
9
9
9
9
9
8
8
9
9
10
11
12
13
14
14
15
16
16
18
20
22
24
27
29
31
32
32
31
30
28
26
25
25
26
28
29
31
31
31
30
29
27
25
23
22
21
21
20
19
17
14
11
8
4
2
0
-2
-3
-3
-4
-5
-6
-7
-9
-10
-11
-12
-12
-13
-13
-13
-13
-14
-15
-16
-17
-17
-18
-18
-17
-16
-15
-14
-13
-13
-13
-14
-15
-16
-17
-17
-18
-18
-17
-17
-16
-16
-15
-15
-15
-15
-14
-14
-13
-12
-12
-11
-11
-11
-12
-12
-13
-14
-15
-15
-15
-14
-13
-12
-11
-10
-10
-10
-10
-10
-10
-10
-10
-10
-10
-10
-9
-9
-8
-8
-7
-7
-7
-8
-8
-10
-11
-11
-12
-11
-10
-8
-5
-3
0
1
1
0
-2
-5
-7
-10
-12
-12
-12
-11
-9
-7
-6
-5
-5
-6
-7
-9
-11
-12
-12
-12
-11
-10
-9
-9
-10
-11
-12
-14
-15
-17
-17
-17
-16
-14
-13
-12
-12
-12
-13
-14
-15
-16
-17
-17
-18
-18
-18
-19
-20
-22
-24
-25
-26
-25
-23
-19
-12
-4
7
20
34
50
66
83
98
111
121
128
130
126
118
104
87
67
47
27
9
-6
-16
-23
-26
-25
-24
-21
-19
-17
-16
-15
-15
-14
-13
-11
-8
-5
-2
0
1
0
-2
-5
-8
-10
-12
-12
-11
-9
-6
-3
-1
1
1
1
0
-1
-2
-2
-2
-1
0
1
3
4
5
5
5
5
4
3
2
1
1
1
2
4
7
11
14
17
19
20
20
20
19
19
19
21
23
26
29
32
35
36
36
35
34
32
30
29
29
29
29
30
30
30
29
28
26
23
21
18
16
14
12
11
9
7
5
2
0
-3
-5
-7
-9
-10
-11
-12
-13
-14
-15
-17
-18
-20
-21
-22
-22
-22
-22
-21
-19
-18
-16
-15
-14
-14
-15
-16
-17
-19
-21
-22
-22
-22
-22
-21
-19
-18
-17
-17
-16
-16
-16
-16
-15
-15
-14
-14
-15
-16
-17
-18
-19
-19
-19
-18
-16
-14
-12
-11
-11
-12
-14
-16
-18
-20
-21
-21
-20
-18
-16
-14
-13
-13
-13
-14
-15
-16
-17
-17
-17
-16
-15
-13
-12
-11
-10
-10
-10
-10
-9
-9
-8
-7
-6
-5
-5
-5
-6
-7
-8
-9
-10
-11
-12
-12
-11
-11
-10
-9
-8
-8
-7
-7
-6
-6
-7
-7
-8
-9
-10
-11
-12
-13
-14
-15
-16
-17
-18
-19
-19
-20
-20
-19
-19
-18
-17
-16
-16
-16
-17
-18
-19
-20
-21
-21
-21
-21
-21
-21
-22
-23
-25
-27
-29
-29
-28
-23
-17
-7
5
18
33
48
63
77
90
102
111
117
120
118
112
101
87
69
49
29
11
-5
-17
-25
-29
-30
-28
-25
-22
-19
-17
-15
-14
-13
-12
-11
-10
-9
-8
-7
-7
-7
-8
-8
-8
-8
-8
-7
-5
-4
-3
-3
-3
-4
-5
-7
-7
-8
-7
-6
-4
-2
0
1
2
2
2
2
2
3
4
7
10
12
14
15
15
13
10
8
6
6
8
11
15
20
24
28
29
29
28
26
24
22
22
23
26
29
32
35
36
36
35
34
32
30
29
28
28
29
29
28
27
24
21
17
13
10
6
4
2
0
-1
-1
-2
-2
-3
-4
-5
-7
-8
-10
-11
-13
-14
-15
-15
-15
-15
-15
-15
-15
-16
-16
-17
-17
-17
-17
-16
-15
-14
-13
-13
-12
-13
-14
-15
-17
-18
-18
-18
-18
-16
-14
-13
-11
-9
-8
-8
-9
-10
-11
-12
-13
-14
-15
-14
-14
-13
-12
-10
-9
-8
-7
-6
-6
-6
-6
-7
-7
-8
-8
-9
-9
-9
-10
-10
-10
-10
-10
-10
-9
-8
-8
-8
-8
-8
-9
-10
-12
-13
-13
-13
-13
-12
-11
-10
-9
-8
-7
-7
-7
-6
-6
-5
-5
-5
-5
-5
-7
-8
-10
-11
-12
-12
-11
-9
-7
-5
-2
-1
0
0
-1
-2
-4
-6
-7
-8
-9
-10
-10
-11
-11
-12
-13
-14
-14
-15
-15
-14
-14
-14
-13
-12
-12
-12
-12
-12
-12
-13
-14
-16
-18
-20
-22
-23
-24
-24
-24
-24
-24
-24
-25
-25
-24
-22
-18
-12
-3
9
23
38
54
70
84
97
108
116
121
123
121
114
104
89
71
51
31
11
-6
-19
-28
-33
-34
-31
-27
-22
-18
-14
-11
-10
-9
-9
-9
-9
-9
-9
-9
-9
-10
-10
-10
-10
-10
-9
-8
-7
-6
-5
-4
-3
-3
-2
-1
-1
0
1
2
2
3
4
4
4
5
5
6
6
7
7
8
8
7
7
7
7
7
9
11
13
16
18
20
21
21
21
21
20
20
20
21
22
23
24
26
27
28
29
30
31
33
34
35
34
34
32
29
26
22
19
17
15
14
13
13
12
11
9
6
4
1
-2
-5
-7
-9
-10
-12
-13
-14
-15
-16
-16
-16
-15
-14
-14
-13
-14
-15
-17
-19
-21
-22
-23
-23
-23
-21
-20
-18
-17
-17
-17
-17
-18
-19
-20
-20
-20
-19
-18
-18
-17
-17
-17
-17
-17
-17
-17
-16
-15
-14
-13
-13
-12
-13
-14
-15
-16
-17
-18
-18
-17
-16
-15
-14
-12
-11
-11
-10
-10
-11
-12
-13
-14
-15
-15
-15
-15
-14
-12
-10
-9
-7
-6
-6
-5
-6
-7
-7
-8
-9
-10
-10
-11
-11
-12
-12
-13
-14
-14
-14
-14
-13
-12
-10
-8
-6
-5
-4
-4
-4
-4
-5
-5
-6
-6
-6
-6
-6
-5
-5
-5
-4
-3
-2
-1
0
1
1
0
-1
-3
-5
-7
-8
-9
-10
-10
-10
-10
-10
-11
-11
-13
-14
-14
-14
-14
-13
-12
-11
-11
-10
-11
-12
-13
-14
-15
-16
-17
-18
-18
-19
-19
-20
-20
-19
-17
-12
-5
4
17
32
48
66
83
99
113
124
130
132
129
121
109
93
75
55
36
18
2
-10
-19
-24
-26
-25
-23
-20
-16
-13
-11
-9
-7
-6
-5
-5
-4
-4
-4
-5
-6
-7
-8
-9
-9
-9
-8
-6
-4
-2
0
1
2
2
1
0
0
0
0
1
1
2
3
3
3
3
3
3
4
5
7
9
10
11
12
12
11
10
10
10
11
13
15
18
20
22
24
26
27
28
29
30
31
33
34
36
37
37
37
36
36
34
33
32
31
30
29
28
27
26
25
24
23
21
19
17
14
11
8
5
2
0
-1
-2
-3
-4
-4
-5
-6
-7
-9
-11
-12
-14
-15
-16
-17
-17
-18
-17
-17
-17
-17
-16
-16
-15
-15
-15
-15
-15
-15
-15
-15
-16
-16
-16
-15
-14
-13
-11
-10
-10
-10
-10
-11
-13
-14
-16
-17
-17
-17
-16
-15
-14
-13
-13
-13
-14
-15
-16
-18
-19
-19
-19
-18
-16
-15
-13
-11
-10
-10
-10
-10
-11
-12
-12
-12
-12
-11
-10
-9
-9
-8
-9
-10
-12
-13
-15
-16
-17
-17
-17
-16
-15
-14
-13
-13
-13
-13
-14
-14
-14
-14
-14
-14
-15
-15
-16
-16
-16
-16
-15
-14
-12
-11
-9
-8
-8
-8
-8
-9
-10
-12
-13
-13
-14
-13
-13
-12
-10
-9
-7
-5
-4
-4
-4
-4
-6
-8
-10
-12
-14
-15
-16
-16
-15
-14
-13
-12
-11
-11
-12
-14
-16
-19
-21
-23
-24
-24
-23
-21
-19
-17
-15
-14
-14
-16
-19
-22
-27
-30
-33
-33
-31
-26
-18
-6
8
24
41
58
75
91
105
116
123
127
126
121
111
98
81
62
42
23
5
-9
-20
-27
-31
-32
-30
-27
-24
-20
-18
-16
-14
-14
-14
-14
-14
-14
-15
-15
-15
-14
-13
-12
-11
-10
-8
-7
-6
-5
-5
-4
-3
-2
-1
0
0
1
0
-1
-2
-3
-5
-6
-6
-5
-3
-1
2
4
7
8
9
9
8
8
8
8
9
11
13
15
17
19
20
21
21
22
22
23
25
27
29
30
32
32
32
32
31
30
29
28
28
28
28
30
31
32
32
32
31
29
26
23
19
15
12
9
7
5
3
2
1
-1
-2
-5
-7
-9
-11
-12
-13
-13
-12
-11
-10
-10
-10
-10
-11
-13
-15
-16
-17
-18
-18
-17
-16
-15
-14
-13
-12
-12
-12
-13
-15
-16
-17
-18
-19
-19
-19
-18
-17
-16
-14
-12
-11
-10
-10
-10
-10
-11
-12
-13
-13
-12
-12
-11
-10
-9
-9
-10
-12
-13
-15
-15
-16
-15
-14
-13
-12
-11
-12
-13
-15
-16
-17
-18
-17
-16
-14
-12
-11
-10
-10
-11
-12
-14
-15
-16
-16
-16
-15
-14
-13
-12
-12
-11
-11
-11
-10
-10
-9
-9
-9
-9
-9
-10
-11
-12
-12
-12
-12
-11
-9
-7
-5
-4
-3
-3
-3
-4
-5
-7
-8
-10
-11
-11
-11
-10
-9
-8
-6
-6
-6
-7
-8
-10
-13
-15
-16
-16
-16
-14
-13
-12
-12
-13
-15
-18
-21
-23
-24
-24
-23
-21
-18
-15
-14
-14
-16
-19
-23
-27
-29
-29
-26
-20
-11
2
16
32
48
65
81
96
109
119
127
130
129
122
111
96
78
58
37
18
1
-12
-22
-27
-29
-27
-24
-20
-16
-12
-9
-8
-7
-7
-8
-8
-9
-9
-8
-7
-7
-7
-7
-8
-10
-11
-12
-12
-11
-9
-7
-4
-3
-2
-1
-2
-2
-2
-2
-1
2
5
7
10
11
10
9
6
3
1
0
0
1
3
6
9
12
13
14
14
15
15
16
18
20
23
25
27
29
30
31
32
32
33
34
34
35
35
35
34
32
30
28
27
26
26
26
27
27
27
27
25
23
20
17
14
11
9
8
8
7
7
6
4
2
-1
-4
-7
-9
-11
-11
-11
-11
-11
-10
-10
-11
-12
-14
-16
-17
-19
-20
-21
-21
-21
-20
-19
-17
-16
-14
-13
-12
-12
-13
-14
-15
-17
-18
-19
-19
-18
-17
-16
-15
-14
-13
-13
-14
-14
-15
-15
-16
-16
-16
-15
-15
-14
-13
-12
-11
-11
-11
-11
-12
-13
-15
-16
-17
-17
-16
-15
-13
-12
-11
-11
-11
-13
-15
-17
-19
-20
-20
-19
-18
-16
-15
-14
-13
-14
-15
-16
-16
-16
-15
-13
-11
-9
-8
-7
-6
-6
-7
-7
-8
-8
-7
-7
-7
-7
-8
-8
-9
-10
-11
-11
-10
-9
-8
-7
-6
-5
-5
-5
-6
-7
-9
-10
-12
-14
-15
-16
-16
-16
-16
-15
-14
-13
-13
-13
-14
-15
-17
-19
-20
-21
-21
-21
-20
-19
-18
-17
-16
-15
-16
-17
-19
-22
-25
-28
-31
-32
-32
-29
-22
-13
-1
13
28
45
61
77
92
105
117
125
131
131
127
118
104
86
65
42
21
3
-12
-22
-28
-31
-30
-28
-25
-22
-20
-18
-15
-13
-11
-10
-8
-8
-8
-8
-9
-10
-11
-11
-10
-9
-7
-6
-6
-6
-7
-8
-9
-9
-9
-7
-5
-2
0
1
2
1
-1
-3
-5
-5
-5
-3
0
4
7
10
12
12
11
10
9
8
8
10
12
15
17
19
20
21
21
21
21
22
24
26
29
31
33
34
34
34
32
31
29
29
29
29
30
31
31
31
30
28
26
23
21
18
16
14
12
11
9
7
5
3
1
-1
-2
-3
-4
-5
-6
-7
-8
-9
-11
-13
-14
-15
-16
-16
-15
-14
-14
-13
-13
-14
-15
-16
-17
-18
-18
-17
-16
-15
-14
-13
-13
-14
-15
-16
-16
-16
-15
-13
-11
-9
-7
-6
-6
-7
-8
-11
-13
-15
-17
-17
-16
-14
-12
-10
-8
-7
-7
-7
-9
-10
-12
-13
-14
-14
-13
-13
-12
-11
-11
-11
-10
-11
-11
-11
-12
-12
-12
-12
-13
-13
-13
-13
-12
-12
-11
-10
-10
-9
-9
-10
-10
-11
-12
-13
-14
-14
-13
-12
-11
-9
-8
-7
-6
-6
-6
-6
-6
-6
-6
-5
-4
-3
-2
-2
-2
-2
-4
-6
-8
-10
-11
-12
-12
-11
-10
-10
-9
-10
-11
-13
-15
-17
-19
-21
-21
-20
-18
-16
-13
-11
-10
-10
-11
-12
-13
-15
-16
-18
-19
-21
-23
-26
-28
-30
-31
-29
-25
-17
-5
9
27
46
65
84
102
116
127
135
137
135
128
117
102
84
64
44
25
7
-7
-18
-26
-30
-31
-31
-29
-26
-22
-19
-16
-13
-11
-9
-9
-9
-10
-11
-12
-14
-15
-15
-15
-14
-12
-10
-8
-7
-5
-4
-4
-3
-2
-2
-1
0
0
1
0
0
-1
-3
-4
-5
-5
-4
-3
-1
2
4
6
8
10
10
11
11
10
10
10
10
11
12
13
14
16
18
20
23
25
28
30
32
33
33
33
32
30
28
26
25
23
23
23
23
23
23
24
24
23
22
21
19
18
16
13
11
9
6
4
1
-1
-3
-5
-6
-7
-8
-8
-9
-9
-10
-11
-12
-14
-15
-17
-18
-18
-19
-19
-18
-17
-17
-17
-17
-17
-18
-19
-20
-20
-21
-21
-20
-19
-18
-17
-16
-15
-14
-14
-14
-14
-14
-15
-15
-15
-16
-16
-16
-16
-16
-16
-16
-15
-14
-14
-13
-13
-13
-13
-13
-12
-12
-11
-10
-9
-9
-9
-10
-11
-13
-14
-16
-16
-17
-16
-16
-15
-14
-13
-13
-13
-13
-13
-13
-13
-12
-11
-10
-9
-8
-8
-8
-9
-9
-10
-10
-9
-9
-8
-7
-7
-7
-7
-7
-7
-8
-8
-8
-7
-7
-7
-7
-8
-9
-11
-12
-13
-14
-14
-14
-14
-14
-14
-15
-16
-18
-19
-20
-20
-19
-18
-17
-16
-15
-14
-14
-15
-16
-16
-17
-17
-16
-16
-16
-17
-19
-21
-24
-27
-29
-29
-26
-21
-12
0
16
33
51
70
87
101
112
119
121
118
111
99
83
65
46
27
9
-7
-19
-28
-33
-35
-34
-31
-27
-22
-18
-15
-13
-11
-11
-11
-11
-11
-11
-11
-11
-10
-9
-8
-8
-8
-8
-8
-8
-9
-9
-9
-9
-8
-6
-5
-3
-2
-1
-1
-1
-2
-2
-3
-2
-2
-1
0
2
3
4
4
4
4
5
5
6
8
10
13
15
17
19
20
20
20
20
20
21
21
22
23
24
25
26
27
27
28
28
29
30
31
31
31
31
30
29
27
25
22
21
19
18
18
17
17
15
14
12
9
7
4
2
-1
-2
-3
-4
-5
-7
-8
-9
-11
-12
-13
-14
-15
-15
-15
-15
-15
-16
-16
-16
-16
-16
-16
-17
-17
-18
-18
-19
-20
-20
-20
-19
-18
-16
-14
-13
-12
-11
-12
-13
-14
-16
-17
-18
-18
-17
-16
-14
-12
-11
-10
-10
-10
-11
-13
-14
-15
-16
-17
-17
-16
-15
-14
-13
-12
-11
-11
-11
-11
-11
-10
-10
-10
-10
-10
-10
-10
-10
-10
-10
-10
-9
-8
-6
-5
-3
-2
-1
-1
-2
-3
-5
-6
-7
-7
-6
-5
-4
-2
0
1
1
1
-1
-4
-7
-10
-13
-16
-17
-17
-17
-15
-13
-11
-10
-9
-9
-10
-12
-14
-15
-17
-17
-17
-16
-15
-14
-14
-14
-15
-16
-17
-18
-19
-18
-17
-17
-16
-16
-17
-19
-20
-20
-19
-15
-7
3
16
30
45
59
73
84
93
99
103
103
100
93
83
69
52
33
14
-4
-20
-32
-39
-42
-42
-38
-33
-27
-22
-18
-15
-13
-12
-11
-10
-10
-9
-9
-8
-7
-6
-5
-4
-3
-2
-1
0
1
1
1
1
0
-1
-2
-3
-4
-4
-4
-2
-1
2
4
7
9
11
11
11
10
8
7
7
7
8
10
12
15
16
17
18
18
18
18
19
21
24
26
29
30
31
31
31
30
29
28
28
29
31
32
34
36
37
37
37
36
35
34
32
30
28
26
24
22
20
18
17
17
16
15
14
11
9
5
2
-2
-4
-6
-7
-7
-6
-5
-5
-5
-6
-8
-10
-13
-15
-17
-18
-19
-19
-18
-17
-16
-16
-15
-14
-14
-14
-14
-15
-15
-16
-17
-19
-19
-20
-19
-18
-17
-15
-13
-12
-12
-12
-13
-13
-14
-15
-15
-14
-13
-12
-11
-10
-10
-10
-11
-11
-10
-9
-7
-5
-3
-2
-2
-3
-5
-8
-11
-14
-16
-17
-17
-16
-13
-11
-8
-6
-5
-4
-4
-4
-5
-5
-6
-6
-6
-6
-6
-6
-6
-6
-6
-5
-4
-3
-2
-1
0
0
-1
-3
-5
-7
-9
-11
-11
-11
-10
-9
-8
-8
-8
-9
-12
-14
-16
-17
-18
-18
-16
-15
-14
-13
-13
-14
-16
-18
-20
-22
-22
-22
-20
-19
-17
-17
-18
-20
-22
-25
-26
-24
-20
-12
-1
13
28
44
60
75
88
98
105
110
111
109
103
94
81
65
47
28
10
-7
-20
-30
-36
-38
-37
-33
-28
-22
-17
-12
-9
-7
-6
-7
-7
-8
-8
-8
-8
-7
-7
-6
-6
-7
-8
-8
-9
-9
-8
-7
-5
-3
0
1
3
3
3
2
2
1
1
2
3
4
6
7
8
9
10
11
11
11
11
11
11
11
11
12
12
14
15
17
18
20
21
22
23
24
24
25
26
27
29
30
31
32
32
32
32
31
30
30
29
29
28
28
27
25
24
22
20
18
17
15
14
13
11
9
7
4
1
-2
-5
-7
-9
-10
-10
-10
-10
-10
-11
-11
-12
-14
-15
-15
-16
-16
-16
-16
-16
-16
-17
-17
-18
-19
-20
-21
-21
-21
-22
-22
-22
-22
-21
-21
-21
-20
-19
-18
-17
-17
-17
-17
-17
-17
-17
-18
-18
-17
-16
-16
-15
-14
-14
-14
-14
-15
-15
-16
-16
-16
-15
-14
-12
-11
-10
-9
-9
-10
-10
-11
-12
-12
-12
-11
-9
-7
-6
-4
-4
-4
-5
-6
-7
-9
-10
-10
-10
-10
-9
-8
-7
-6
-6
-6
-6
-6
-7
-8
-9
-10
-11
-11
-12
-13
-13
-14
-15
-16
-17
-18
-18
-19
-18
-18
-18
-17
-17
-17
-17
-18
-19
-19
-20
-19
-19
-17
-16
-15
-14
-15
-16
-19
-23
-27
-30
-32
-32
-30
-24
-16
-5
9
25
41
58
75
91
104
114
121
123
121
115
104
90
73
55
36
18
2
-11
-22
-29
-33
-34
-33
-30
-26
-22
-18
-14
-11
-9
-8
-8
-9
-10
-10
-11
-11
-10
-9
-8
-6
-5
-4
-4
-5
-6
-7
-7
-8
-7
-6
-4
-2
0
1
1
1
0
-1
-2
-2
-2
0
2
4
6
7
8
8
7
7
7
8
10
14
17
21
24
26
27
27
26
25
23
22
21
21
22
23
25
26
27
28
29
29
29
29
29
29
30
31
31
31
30
29
26
24
21
18
15
13
11
10
10
10
9
8
6
3
0
-4
-7
-10
-11
-12
-12
-11
-11
-10
-11
-12
-14
-16
-18
-19
-19
-18
-17
-17
-17
-18
-19
-22
-24
-25
-25
-24
-22
-19
-16
-14
-13
-13
-15
-17
-19
-20
-19
-18
-16
-13
-11
-10
-10
-11
-13
-16
-17
-18
-18
-17
-16
-14
-12
-11
-11
-12
-13
-15
-16
-16
-16
-15
-13
-11
-9
-7
-6
-6
-6
-7
-9
-11
-13
-14
-15
-15
-14
-12
-10
-8
-7
-6
-5
-6
-7
-9
-10
-10
-10
-9
-7
-4
-2
-1
0
-2
-4
-7
-10
-13
-16
-17
-17
-16
-15
-14
-13
-14
-15
-16
-18
-20
-21
-22
-21
-20
-18
-16
-15
-15
-16
-17
-19
-22
-24
-26
-28
-30
-32
-34
-35
-35
-34
-31
-25
-17
-5
10
27
45
64
82
97
111
120
126
128
126
119
108
93
75
55
34
14
-3
-18
-28
-33
-35
-34
-31
-27
-24
-21
-19
-18
-17
-17
-16
-15
-15
-14
-13
-13
-13
-13
-14
-13
-12
-10
-8
-6
-5
-4
-3
-4
-5
-6
-8
-8
-8
-8
-6
-5
-4
-3
-2
-2
-2
-1
-1
0
1
3
4
4
5
5
5
5
5
6
7
9
11
13
14
15
16
16
16
16
17
18
20
22
24
26
27
28
28
28
27
27
27
27
28
29
30
30
29
28
25
22
18
14
11
7
4
2
1
0
-1
-2
-3
-4
-5
-7
-9
-10
-12
-14
-15
-17
-18
-18
-19
-20
-20
-21
-22
-22
-22
-22
-22
-22
-21
-22
-22
-23
-23
-24
-25
-26
-26
-26
-25
-25
-24
-23
-23
-23
-23
-24
-24
-25
-24
-24
-22
-20
-19
-17
-17
-17
-17
-19
-21
-23
-24
-25
-25
-24
-23
-21
-19
-17
-16
-15
-15
-15
-16
-17
-18
-19
-19
-19
-18
-17
-16
-15
-14
-13
-12
-12
-13
-13
-13
-14
-14
-15
-15
-15
-15
-15
-15
-14
-14
-13
-11
-10
-9
-8
-8
-9
-10
-12
-14
-17
-19
-21
-21
-21
-21
-20
-20
-19
-20
-21
-22
-24
-25
-26
-26
-26
-26
-25
-25
-24
-24
-23
-23
-24
-24
-25
-27
-29
-33
-37
-40
-43
-44
-42
-36
-27
-13
4
23
43
64
82
98
111
121
126
126
123
114
102
86
67
46
25
6
-11
-23
-32
-37
-38
-36
-33
-29
-26
-24
-23
-22
-22
-22
-22
-22
-21
-21
-20
-20
-19
-19
-19
-20
-20
-20
-20
-20
-20
-19
-18
-16
-15
-14
-12
-12
-12
-12
-13
-14
-15
-16
-16
-16
-14
-12
-10
-8
-6
-5
-5
-5
-6
-6
-7
-7
-6
-5
-3
0
2
4
6
7
8
8
8
8
8
8
8
8
9
9
9
9
10
10
