15
0
-9
-16
-19
-16
-10
-3
3
8
9
8
4
-1
-5
-8
-9
-9
-7
-4
-2
-2
-2
-3
-5
-7
-8
-8
-8
-7
-6
-5
-4
-4
-4
-4
-4
-4
-3
-2
-1
-1
-1
-1
-2
-4
-6
-8
-10
-11
-11
-11
-11
-10
-10
-9
-9
-8
-8
-7
-7
-6
-5
-5
-4
-4
-3
-4
-4
-5
-5
-6
-6
-6
-6
-6
-6
-6
-6
-6
-7
-7
-7
-6
-6
-6
-6
-6
-7
-7
-7
-7
-7
-7
-6
-6
-5
-5
-5
-6
-6
-6
-6
-6
-5
-4
-3
-3
-2
-2
-3
-4
-6
-7
-9
-10
-10
-10
-8
-6
-3
0
3
5
6
7
6
4
1
-1
-4
-6
-6
-6
-6
-5
-5
-5
-5
-6
-8
-9
-10
-10
-10
-9
-8
-7
-6
-6
-5
-5
-6
-5
-5
-4
-4
-3
-3
-4
-5
-6
-7
-8
-8
-7
-6
-4
-2
-1
0
1
1
2
5
10
18
29
43
59
74
87
97
100
96
86
69
47
24
0
-21
-39
-51
-60
-64
-65
-64
-61
-59
-56
-52
-48
-42
-36
-29
-22
-15
-9
-5
-2
-1
-1
-2
-3
-4
-4
-3
-3
-2
0
1
2
3
4
5
5
6
6
7
7
6
6
5
5
5
4
5
5
5
5
5
5
4
4
3
3
4
5
6
8
9
11
12
12
12
11
11
11
11
13
15
17
20
22
23
23
23
22
21
21
21
22
24
26
28
30
32
33
34
34
34
35
36
37
39
41
43
45
46
47
48
48
48
48
48
47
47
46
45
43
41
39
36
33
30
27
24
21
19
16
14
12
10
9
8
7
5
4
3
2
1
0
-1
-2
-3
-5
-6
-7
-8
-8
-8
-8
-8
-7
-6
-6
-6
-6
-6
-6
-7
-7
-8
-8
-8
-8
-8
-7
-7
-6
-6
-5
-5
-5
-6
-7
-8
-9
-10
-10
-10
-9
-8
-6
-4
-3
-2
-3
-4
-6
-8
-9
-10
-10
-10
-9
-7
-6
-6
-6
-6
-7
-8
-9
-8
-8
-6
-5
-4
-3
-3
-3
-4
-6
-7
-9
-9
-9
-8
-7
-6
-5
-4
-3
-3
-3
-3
-2
-2
-2
-2
-2
-2
-2
-3
-3
-3
-3
-3
-2
-2
-2
-2
-3
-4
-5
-7
-9
-10
-10
-10
-10
-10
-9
-9
-8
-8
-8
-7
-7
-6
-4
-3
-1
0
0
-1
-2
-4
-7
-9
-11
-13
-14
-14
-13
-12
-10
-8
-6
-4
-3
-3
-3
-4
-5
-6
-7
-7
-7
-7
-7
-6
-6
-6
-6
-6
-7
-8
-9
-9
-9
-8
-7
-6
-5
-5
-4
-4
-4
-4
-4
-4
-4
-3
-2
-1
1
3
4
5
6
6
5
3
0
-3
-6
-9
-11
-13
-13
-12
-10
-8
-6
-5
-3
-3
-3
-4
-5
-7
-8
-9
-10
-10
-9
-9
-8
-7
-6
-5
-5
-5
-6
-7
-8
-9
-10
-10
-10
-10
-9
-7
-5
-2
1
6
13
23
34
48
62
77
89
98
101
97
87
70
48
23
-2
-25
-43
-57
-66
-69
-69
-67
-62
-57
-52
-47
-42
-37
-31
-26
-20
-16
-12
-9
-7
-5
-4
-3
-3
-2
-2
-2
-2
-3
-4
-5
-5
-5
-4
-2
-1
1
2
3
3
3
3
3
4
4
5
5
4
4
3
2
1
2
3
5
7
9
11
11
10
9
7
5
4
4
5
7
9
11
12
12
12
12
12
13
14
17
19
22
24
25
26
25
25
24
24
25
27
29
32
35
37
39
41
41
40
39
38
37
37
37
38
40
41
43
45
46
46
45
43
40
37
33
29
25
21
18
16
14
13
12
11
10
9
7
5
2
0
-2
-4
-5
-6
-6
-5
-4
-3
-3
-2
-2
-2
-3
-4
-5
-6
-7
-8
-9
-10
-11
-11
-11
-11
-10
-9
-8
-7
-7
-6
-7
-7
-9
-10
-12
-13
-14
-14
-14
-13
-11
-10
-8
-8
-8
-8
-9
-10
-12
-13
-13
-13
-13
-12
-10
-9
-8
-7
-6
-6
-7
-8
-9
-10
-11
-11
-11
-11
-10
-9
-8
-7
-7
-6
-6
-7
-8
-9
-10
-10
-11
-10
-10
-9
-8
-7
-6
-6
-6
-7
-8
-10
-11
-12
-12
-11
-10
-8
-7
-6
-6
-7
-8
-10
-12
-14
-15
-15
-15
-14
-12
-10
-9
-8
-8
-8
-9
-11
-12
-13
-14
-14
-14
-13
-12
-11
-10
-10
-9
-9
-9
-9
-9
-9
-9
-9
-9
-9
-9
-10
-11
-12
-13
-13
-14
-13
-12
-11
-10
-9
-9
-8
-9
-10
-11
-12
-13
-13
-13
-13
-12
-11
-10
-9
-9
-8
-8
-9
-10
-11
-11
-12
-12
-12
-11
-10
-9
-8
-8
-8
-9
-10
-11
-11
-11
-10
-9
-7
-6
-4
-4
-3
-4
-4
-5
-6
-7
-8
-8
-9
-10
-11
-12
-13
-14
-14
-13
-12
-10
-9
-7
-7
-7
-8
-10
-12
-14
-16
-16
-17
-16
-15
-13
-12
-11
-10
-10
-10
-10
-11
-11
-11
-10
-10
-10
-10
-10
-10
-10
-9
-6
-1
6
16
29
43
57
69
79
85
86
82
72
57
38
17
-5
-26
-44
-58
-68
-74
-75
-73
-68
-62
-55
-48
-42
-37
-32
-29
-25
-22
-18
-15
-12
-9
-7
-6
-6
-6
-6
-7
-7
-7
-7
-6
-5
-4
-3
-3
-3
-4
-4
-4
-4
-4
-3
-2
-2
-1
-1
-1
-1
-1
-2
-2
-2
-1
0
0
1
2
2
3
3
3
4
5
6
8
9
11
12
12
11
10
8
7
6
6
7
10
13
17
20
23
25
26
26
25
25
24
24
26
28
30
33
36
38
39
39
39
39
39
39
40
41
42
42
43
42
40
38
36
33
31
29
28
27
26
24
21
18
14
10
6
1
-2
-5
-7
-8
-9
-9
-9
-9
-9
-8
-8
-8
-8
-8
-9
-10
-12
-14
-15
-17
-18
-18
-17
-16
-15
-14
-14
-13
-13
-13
-13
-13
-13
-12
-11
-11
-10
-11
-12
-13
-15
-16
-17
-17
-17
-16
-14
-13
-12
-11
-11
-12
-12
-12
-13
-12
-12
-11
-11
-10
-11
-12
-13
-15
-17
-17
-17
-16
-14
-11
-8
-5
-3
-3
-3
-5
-8
-10
-12
-13
-13
-11
-10
-7
-6
-5
-5
-6
-7
-9
-10
-10
-10
-9
-8
-7
-7
-6
-6
-7
-7
-7
-7
-7
-7
-8
-8
-9
-10
-12
-13
-13
-13
-12
-10
-8
-6
-5
-5
-6
-8
-10
-12
-13
-13
-13
-11
-9
-8
-7
-6
-7
-7
-8
-9
-9
-8
-7
-5
-4
-4
-5
-6
-9
-11
-14
-15
-16
-15
-13
-10
-6
-4
-2
-1
-2
-4
-7
-10
-12
-14
-14
-13
-11
-9
-6
-4
-2
-2
-2
-4
-6
-7
-9
-10
-10
-9
-8
-6
-4
-2
-1
0
-1
-2
-4
-6
-8
-9
-9
-8
-6
-4
-1
2
4
5
5
3
1
-2
-5
-8
-9
-10
-10
-9
-7
-6
-4
-3
-3
-4
-5
-6
-7
-8
-8
-8
-7
-5
-4
-2
-2
-2
-3
-4
-6
-7
-9
-9
-9
-8
-7
-6
-5
-5
-5
-5
-5
-6
-6
-6
-5
-3
0
3
9
17
26
38
51
65
78
88
94
94
87
74
55
32
8
-15
-35
-50
-60
-65
-65
-63
-58
-53
-48
-44
-40
-36
-32
-28
-23
-17
-12
-7
-3
0
2
4
4
4
4
5
5
5
5
5
4
3
2
2
2
2
4
6
7
9
10
10
10
10
9
8
8
9
10
11
12
12
12
11
10
9
8
8
9
10
12
14
15
17
17
18
18
19
19
20
22
23
24
25
26
26
26
27
28
29
31
34
36
38
40
41
41
42
42
43
45
47
50
52
55
56
56
54
52
50
48
47
47
48
51
53
55
56
55
54
51
47
43
40
37
34
31
28
25
22
19
15
13
11
10
11
12
13
13
12
11
8
5
2
0
-2
-2
-2
-1
0
1
1
1
0
0
0
1
2
3
4
4
3
1
-1
-3
-4
-5
-5
-3
-2
0
1
1
0
-1
-2
-3
-2
-1
0
2
3
4
3
1
-1
-3
-5
-5
-5
-3
-1
1
3
4
4
3
2
1
0
-1
-1
0
0
1
2
3
3
3
3
2
1
0
-1
-2
-2
-2
-1
0
2
3
5
5
5
4
2
1
-1
-2
-3
-3
-3
-2
-1
-1
0
1
1
1
1
0
0
-1
-1
-2
-1
-1
0
0
1
2
2
1
0
0
-1
-2
-2
-1
0
1
2
2
3
3
3
2
2
2
1
1
0
-1
-2
-3
-3
-3
-2
0
2
4
5
5
5
3
1
-1
-2
-3
-3
-2
0
1
2
3
3
3
2
1
0
-1
-1
-1
-1
0
0
0
0
0
0
0
-1
-1
-1
-1
-2
-2
-2
-2
-2
-1
1
2
4
5
7
7
7
7
6
5
4
3
2
2
1
1
1
0
-1
-2
-3
-4
-5
-6
-5
-5
-4
-2
-1
0
1
1
1
1
0
0
0
0
0
0
-1
-2
-3
-5
-7
-9
-10
-10
-10
-9
-8
-6
-4
-3
-2
0
3
9
17
27
41
56
72
85
94
97
94
83
66
45
22
-1
-22
-38
-51
-58
-62
-63
-63
-61
-59
-56
-52
-48
-42
-35
-27
-20
-13
-8
-5
-4
-3
-4
-5
-5
-5
-4
-3
-2
-2
-2
-2
-2
-2
-2
-1
0
2
3
4
5
5
4
3
2
2
2
3
4
6
6
7
6
6
4
3
3
2
3
3
4
5
6
6
6
5
5
5
5
6
7
9
11
13
14
14
15
14
14
14
14
14
15
17
19
21
23
24
25
26
27
29
30
31
33
34
36
36
37
36
35
35
34
34
35
36
37
38
38
38
36
33
29
25
21
17
13
11
9
8
7
6
5
2
-1
-5
-8
-12
-14
-16
-17
-17
-16
-15
-14
-14
-14
-15
-16
-18
-19
-19
-19
-19
-19
-18
-18
-18
-19
-20
-21
-22
-23
-23
-23
-22
-22
-22
-22
-22
-22
-23
-23
-23
-22
-22
-22
-22
-22
-22
-23
-24
-24
-25
-25
-25
-25
-24
-24
-23
-22
-21
-20
-19
-18
-18
-17
-17
-18
-20
-21
-23
-25
-26
-26
-25
-24
-22
-21
-20
-20
-20
-21
-23
-24
-24
-24
-23
-22
-21
-20
-21
-21
-23
-24
-25
-26
-25
-24
-23
-21
-21
-20
-21
-22
-24
-25
-26
-27
-26
-25
-24
-23
-22
-22
-23
-25
-27
-28
-29
-29
-28
-27
-25
-23
-22
-21
-20
-21
-21
-23
-24
-24
-25
-25
-24
-23
-22
-21
-21
-21
-22
-23
-25
-27
-28
-29
-29
-28
-27
-25
-24
-23
-22
-21
-21
-22
-22
-22
-22
-22
-23
-24
-25
-27
-28
-30
-30
-29
-28
-25
-21
-18
-16
-15
-16
-19
-23
-27
-30
-32
-33
-31
-28
-24
-20
-17
-16
-15
-17
-19
-22
-25
-27
-28
-27
-26
-24
-22
-21
-21
-21
-22
-22
-23
-23
-22
-20
-17
-15
-12
-10
-9
-8
-9
-10
-11
-13
-14
-16
-17
-17
-18
-18
-18
-18
-18
-18
-19
-19
-19
-19
-19
-19
-19
-18
-17
-17
-16
-15
-14
-14
-13
-12
-12
-11
-11
-12
-12
-13
-14
-15
-16
-17
-17
-16
-15
-14
-13
-12
-11
-10
-9
-6
-2
4
13
24
37
52
66
78
88
92
90
82
67
48
26
4
-18
-37
-52
-62
-68
-70
-70
-68
-64
-60
-55
-49
-43
-35
-28
-20
-13
-7
-3
-2
-2
-3
-5
-7
-8
-7
-6
-4
-2
-1
-1
-2
-3
-4
-5
-4
-3
-1
2
4
6
6
6
5
4
3
2
3
4
5
6
6
6
5
3
2
1
1
1
3
5
7
10
11
12
13
13
13
13
14
15
16
18
19
21
22
23
23
24
24
25
25
26
27
28
29
30
32
34
36
38
40
42
43
44
44
44
44
44
44
45
46
47
48
50
51
52
52
52
51
50
49
47
44
41
38
35
31
28
25
22
20
19
17
15
13
11
9
7
6
5
5
6
7
8
9
10
9
7
5
3
2
1
1
2
4
5
5
5
4
2
0
-1
-2
-2
-2
-1
0
1
1
0
0
0
1
2
4
6
7
7
5
3
0
-3
-4
-3
0
3
7
8
7
2
-4
-12
-19
-23
-23
-19
-10
1
11
19
22
21
17
10
3
-1
-3
-1
3
8
12
13
12
9
5
0
-2
-3
-1
2
6
8
9
8
6
4
2
1
2
4
7
9
11
11
9
7
5
3
2
2
3
4
6
6
6
6
5
4
4
5
6
7
8
8
8
7
6
5
4
4
4
6
7
9
10
11
10
9
8
6
4
3
2
2
3
4
6
7
9
9
10
10
9
8
7
6
4
4
3
3
3
4
5
6
7
7
8
8
8
9
9
10
10
11
12
12
12
12
12
12
12
13
14
15
15
15
14
12
10
8
5
4
4
5
7
9
11
12
12
10
7
4
1
-1
-2
-2
0
2
5
7
8
8
7
5
3
1
0
-1
-1
0
1
2
3
4
5
6
7
8
10
14
19
27
36
47
60
74
86
97
104
105
101
90
74
53
31
8
-13
-31
-44
-53
-57
-58
-57
-53
-49
-45
-40
-35
-29
-24
-18
-12
-7
-3
0
2
3
3
3
4
4
5
6
7
7
7
6
5
4
3
2
3
3
5
6
7
8
9
9
9
9
9
9
10
10
10
11
11
10
10
9
9
9
9
9
9
10
11
11
12
12
13
13
14
15
16
17
18
19
19
20
19
19
19
20
20
21
23
24
26
28
30
31
32
34
35
36
36
38
39
40
42
43
44
46
46
47
47
47
46
45
44
44
43
42
41
40
39
37
34
31
27
24
20
17
14
11
9
7
6
4
3
2
0
-1
-3
-4
-5
-6
-6
-7
-7
-7
-7
-7
-6
-6
-6
-6
-7
-8
-8
-10
-10
-11
-11
-12
-11
-11
-11
-11
-11
-12
-14
-15
-17
-18
-19
-19
-18
-17
-16
-15
-14
-13
-13
-13
-13
-13
-13
-13
-12
-12
-12
-12
-12
-13
-13
-14
-14
-13
-13
-12
-12
-12
-13
-13
-15
-16
-17
-17
-17
-16
-14
-13
-11
-10
-9
-9
-10
-11
-12
-13
-14
-15
-16
-16
-16
-17
-17
-17
-17
-17
-17
-17
-17
-17
-18
-18
-17
-17
-16
-15
-14
-14
-14
-14
-15
-16
-17
-18
-19
-19
-18
-18
-17
-16
-16
-16
-17
-18
-18
-19
-19
-18
-18
-17
-17
-18
-19
-19
-20
-20
-20
-18
-16
-14
-13
-12
-12
-13
-14
-17
-19
-20
-21
-21
-20
-18
-17
-16
-16
-17
-18
-20
-21
-21
-20
-18
-16
-14
-13
-12
-12
-13
-15
-16
-17
-18
-17
-16
-15
-13
-12
-12
-12
-13
-14
-14
-14
-13
-11
-9
-8
-6
-6
-6
-7
-9
-11
-13
-14
-15
-16
-16
-17
-17
-17
-17
-17
-18
-18
-18
-17
-17
-17
-18
-18
-19
-19
-20
-20
-19
-19
-18
-17
-16
-15
-15
-15
-15
-16
-17
-18
-19
-20
-20
-20
-20
-19
-18
-17
-15
-13
-9
-4
3
12
23
35
49
61
72
79
82
79
71
57
40
19
-3
-24
-43
-58
-70
-76
-79
-78
-74
-69
-63
-57
-52
-47
-42
-38
-33
-29
-24
-20
-16
-13
-11
-10
-10
-11
-12
-13
-13
-12
-11
-10
-8
-7
-6
-6
-6
-7
-8
-10
-11
-12
-12
-11
-10
-8
-5
-2
1
3
5
6
5
4
1
-1
-3
-5
-5
-4
-1
1
4
6
7
7
7
6
5
5
5
6
8
11
12
14
14
14
13
13
13
13
15
17
20
23
25
27
28
29
29
30
31
33
35
36
38
39
40
40
40
40
41
42
43
45
46
46
46
44
42
39
35
32
30
27
26
24
22
20
17
14
11
7
4
2
0
-1
-1
-2
-3
-4
-5
-7
-8
-9
-9
-9
-8
-8
-7
-7
-8
-9
-10
-12
-14
-15
-15
-15
-14
-12
-10
-8
-7
-6
-6
-6
-8
-10
-12
-14
-16
-17
-18
-18
-16
-15
-13
-11
-9
-8
-8
-9
-10
-11
-13
-13
-13
-12
-11
-10
-8
-7
-6
-6
-7
-8
-9
-11
-11
-11
-11
-10
-9
-9
-8
-8
-8
-9
-10
-10
-11
-11
-10
-9
-8
-7
-6
-5
-6
-6
-7
-8
-9
-9
-9
-8
-7
-5
-4
-4
-5
-6
-7
-9
-10
-10
-10
-9
-8
-7
-6
-6
-7
-8
-9
-10
-10
-9
-8
-6
-3
-2
-2
-2
-4
-7
-9
-11
-12
-12
-11
-9
-6
-3
-1
0
0
-1
-2
-3
-4
-4
-5
-4
-4
-4
-4
-3
-3
-3
-3
-2
-1
-1
0
-1
-1
-3
-4
-6
-7
-8
-8
-7
-6
-4
-4
-4
-5
-7
-9
-11
-12
-12
-10
-8
-5
-3
-1
-1
-1
-2
-3
-3
-3
-1
2
5
8
10
10
9
8
5
3
0
-1
-2
-3
-3
-4
-4
-4
-4
-4
-3
-2
-1
-1
-1
-3
-5
-8
-10
-12
-12
-10
-8
-4
-1
0
1
0
-3
-7
-10
-12
-13
-12
-10
-7
-4
-2
0
2
3
5
9
15
24
36
49
63
76
87
94
96
91
81
65
45
23
0
-20
-38
-51
-59
-62
-61
-57
-52
-47
-42
-38
-35
-31
-28
-25
-21
-17
-12
-8
-5
-3
-1
0
1
2
3
4
5
5
5
4
3
1
-1
-3
-3
-3
-2
-1
0
2
3
3
4
3
3
3
4
5
6
8
9
11
12
12
12
12
11
11
10
11
11
12
12
13
13
14
14
15
15
17
19
20
22
23
23
23
22
20
19
19
20
21
24
27
30
32
34
36
37
37
38
39
41
42
44
46
47
48
49
48
48
48
48
48
48
48
48
47
45
42
40
37
34
32
29
28
26
24
21
18
15
11
8
5
2
0
0
-1
-1
0
0
0
0
-1
-2
-3
-4
-4
-4
-4
-4
-4
-4
-4
-5
-6
-7
-7
-8
-7
-7
-7
-7
-7
-8
-9
-9
-10
-9
-8
-7
-5
-4
-3
-3
-4
-5
-7
-8
-9
-9
-8
-7
-6
-6
-7
-9
-10
-12
-13
-13
-12
-10
-8
-6
-5
-4
-4
-5
-6
-6
-7
-7
-6
-5
-4
-4
-4
-5
-6
-6
-7
-7
-7
-6
-5
-4
-3
-2
-2
-3
-4
-5
-6
-7
-8
-9
-9
-9
-10
-10
-10
-10
-10
-10
-9
-8
-8
-7
-6
-5
-5
-4
-5
-5
-6
-6
-7
-7
-7
-7
-7
-6
-6
-5
-5
-4
-4
-5
-5
-5
-6
-6
-7
-7
-7
-7
-7
-6
-6
-5
-5
-6
-6
-7
-8
-8
-9
-9
-9
-8
-8
-8
-8
-7
-7
-7
-7
-6
-6
-5
-4
-3
-3
-2
-2
-1
-1
0
0
0
0
-1
-2
-3
-4
-6
-8
-9
-10
-10
-9
-9
-8
-7
-7
-6
-7
-7
-8
-9
-10
-10
-11
-11
-10
-9
-8
-7
-7
-7
-8
-9
-10
-11
-12
-11
-10
-9
-7
-5
-3
-1
3
8
15
24
36
48
61
73
82
85
83
75
62
43
23
1
-19
-37
-51
-60
-66
-68
-68
-65
-61
-56
-51
-45
-39
-33
-28
-24
-20
-17
-14
-12
-9
-7
-5
-4
-2
-1
-1
-1
-2
-3
-5
-6
-7
-7
-6
-5
-4
-2
-1
0
0
-1
-2
-4
-5
-6
-6
-5
-3
0
3
6
8
10
10
9
8
6
5
4
4
5
6
7
8
9
9
8
7
7
7
7
9
11
13
15
18
19
20
21
21
21
22
22
23
25
26
28
29
30
31
32
33
34
35
37
38
40
42
44
45
45
45
44
42
41
39
38
37
36
35
34
33
31
30
27
24
21
17
13
10
7
5
3
2
1
0
-1
-3
-6
-9
-12
-15
-18
-20
-21
-20
-20
-18
-17
-15
-14
-13
-13
-13
-13
-12
-12
-12
-11
-11
-12
-13
-14
-16
-17
-18
-19
-19
-18
-17
-16
-14
-13
-12
-12
-12
-12
-12
-13
-13
-15
-16
-17
-18
-18
-18
-17
-15
-13
-11
-10
-10
-10
-11
-13
-15
-16
-16
-16
-14
-12
-10
-8
-7
-6
-7
-8
-9
-11
-12
-13
-14
-14
-13
-13
-13
-13
-13
-13
-13
-13
-13
-12
-12
-12
-11
-10
-10
-9
-8
-7
-7
-7
-7
-7
-8
-9
-10
-11
-12
-13
-13
-13
-12
-12
-12
-11
-11
-11
-11
-10
-10
-10
-10
-10
-11
-11
-12
-13
-13
-13
-12
-11
-9
-8
-6
-5
-5
-5
-5
-6
-7
-8
-8
-8
-8
-8
-8
-8
-9
-9
-9
-9
-8
-7
-5
-3
-1
0
1
0
-1
-2
-4
-6
-8
-9
-9
-9
-9
-8
-8
-8
-8
-8
-9
-9
-10
-10
-10
-10
-10
-10
-10
-10
-9
-9
-8
-7
-7
-7
-7
-8
-10
-11
-12
-13
-13
-13
-12
-10
-8
-6
-4
-1
1
4
9
16
26
38
52
67
81
92
99
100
94
81
63
41
16
-7
-28
-45
-57
-64
-67
-66
-64
-61
-56
-52
-47
-42
-37
-31
-24
-18
-13
-9
-5
-4
-3
-3
-4
-5
-5
-6
-5
-5
-4
-3
-2
0
1
1
2
2
2
2
2
2
2
2
3
3
4
4
4
3
2
2
2
2
3
5
7
9
11
12
13
13
12
11
10
9
9
10
11
12
14
15
15
16
15
15
15
15
16
17
19
21
23
25
26
28
29
30
31
32
33
34
35
36
37
37
37
37
38
39
41
43
45
47
48
48
47
45
42
39
36
34
32
31
31
31
30
29
27
24
21
17
14
11
9
7
6
4
2
1
-1
-2
-3
-4
-4
-4
-4
-5
-5
-6
-7
-8
-9
-9
-9
-9
-8
-8
-8
-8
-9
-10
-10
-10
-9
-8
-7
-6
-4
-4
-4
-5
-6
-7
-8
-9
-9
-8
-8
-7
-6
-5
-5
-6
-6
-7
-8
-9
-10
-10
-10
-9
-8
-7
-5
-4
-3
-2
-2
-3
-4
-5
-7
-8
-10
-11
-11
-11
-10
-9
-7
-6
-4
-3
-3
-4
-5
-6
-8
-9
-11
-11
-11
-10
-8
-7
-5
-4
-4
-4
-4
-5
-6
-7
-7
-7
-7
-6
-5
-5
-5
-6
-8
-10
-12
-14
-15
-16
-15
-14
-12
-9
-7
-5
-4
-5
-6
-9
-11
-14
-15
-15
-14
-12
-9
-5
-3
-1
0
-1
-3
-6
-9
-11
-12
-12
-11
-10
-7
-5
-4
-3
-2
-3
-4
-5
-6
-6
-7
-6
-5
-5
-5
-5
-6
-8
-11
-13
-15
-16
-16
-14
-12
-9
-7
-5
-4
-4
-6
-7
-9
-11
-12
-11
-11
-9
-8
-8
-8
-9
-11
-13
-14
-15
-15
-14
-12
-10
-8
-6
-5
-4
-4
-3
0
6
14
26
40
56
71
83
92
94
90
79
62
41
18
-5
-26
-44
-58
-67
-71
-72
-70
-66
-60
-54
-48
-41
-35
-30
-25
-21
-18
-15
-13
-12
-11
-10
-9
-8
-6
-5
-4
-3
-3
-2
-2
-2
-2
-2
-2
-2
-2
-2
-2
-2
-3
-3
-3
-3
-3
-3
-3
-2
-2
-1
1
2
4
6
7
8
9
9
9
9
9
9
9
10
10
11
11
10
10
9
8
7
8
9
10
13
15
18
20
22
23
25
26
27
29
31
32
33
33
33
33
33
32
33
33
35
37
40
43
45
46
47
46
45
44
42
41
40
39
39
38
37
36
34
31
28
25
21
17
14
12
10
8
7
6
4
2
0
-2
-5
-6
-8
-8
-8
-7
-6
-5
-5
-6
-7
-9
-11
-13
-14
-13
-12
-11
-10
-9
-8
-9
-9
-10
-11
-11
-10
-9
-7
-6
-5
-6
-7
-9
-11
-12
-13
-13
-12
-11
-9
-7
-6
-5
-5
-6
-7
-8
-8
-9
-8
-8
-8
-8
-8
-8
-9
-10
-10
-11
-11
-11
-10
-9
-8
-6
-5
-4
-4
-4
-4
-5
-6
-7
-8
-9
-10
-10
-10
-10
-10
-10
-10
-9
-9
-8
-8
-8
-7
-7
-7
-7
-7
-8
-8
-8
-9
-9
-10
-10
-10
-10
-10
-10
-10
-10
-9
-9
-8
-8
-7
-7
-7
-7
-8
-10
-12
-14
-15
-16
-16
-16
-14
-11
-9
-6
-5
-4
-4
-5
-6
-7
-7
-6
-5
-4
-3
-2
-2
-2
-3
-5
-6
-6
-7
-6
-5
-4
-4
-4
-5
-6
-8
-10
-12
-13
-13
-13
-12
-10
-9
-8
-7
-7
-7
-8
-9
-11
-12
-12
-12
-12
-11
-10
-9
-8
-9
-9
-10
-11
-12
-12
-12
-11
-9
-7
-6
-4
-3
-1
2
7
14
24
37
51
66
79
89
94
93
86
73
55
34
11
-11
-31
-48
-61
-69
-73
-74
-71
-67
-61
-55
-48
-42
-36
-31
-26
-22
-18
-15
-12
-9
-8
-7
-7
-7
-8
-8
-9
-10
-10
-10
-10
-9
-8
-7
-6
-5
-4
-2
-1
0
1
2
2
2
1
1
1
0
1
1
2
3
4
4
4
4
4
4
4
4
6
7
9
11
12
13
13
13
12
11
10
11
11
13
15
17
18
20
21
22
22
23
25
26
28
30
32
33
34
35
35
36
37
38
39
41
42
43
43
42
41
40
40
40
40
42
43
44
44
43
40
37
32
27
22
19
16
14
12
12
11
9
8
6
4
2
0
-2
-3
-5
-6
-7
-8
-9
-10
-10
-11
-11
-11
-11
-11
-10
-10
-10
-10
-10
-11
-11
-12
-13
-14
-14
-15
-15
-15
-15
-15
-14
-14
-14
-13
-12
-12
-11
-9
-8
-7
-6
-6
-7
-8
-9
-10
-11
-12
-11
-11
-9
-8
-7
-6
-6
-6
-7
-8
-9
-9
-10
-9
-9
-7
-6
-5
-5
-4
-5
-5
-6
-6
-7
-8
-8
-9
-9
-9
-9
-8
-8
-7
-5
-4
-3
-3
-3
-4
-6
-7
-9
-11
-12
-12
-12
-10
-8
-6
-5
-3
-3
-3
-4
-5
-6
-7
-7
-7
-6
-6
-6
-6
-7
-8
-8
-9
-9
-9
-9
-8
-8
-8
-9
-9
-9
-9
-9
-9
-8
-7
-7
-6
-6
-6
-6
-6
-6
-6
-7
-7
-7
-7
-8
-8
-8
-9
-8
-8
-8
-7
-7
-7
-6
-6
-5
-3
-1
1
4
7
8
9
8
6
3
0
-4
-7
-10
-11
-11
-10
-9
-8
-6
-6
-6
-7
-9
-10
-11
-12
-12
-11
-11
-10
-9
-8
-7
-7
-7
-7
-7
-6
-6
-5
-5
-5
-5
-6
-6
-6
-7
-6
-6
-6
-5
-3
0
5
12
23
36
51
67
81
92
98
98
91
76
57
34
10
-13
-32
-48
-59
-66
-69
-69
-67
-64
-59
-53
-47
-40
-33
-26
-21
-16
-12
-10
-9
-9
-9
-8
-7
-6
-4
-2
0
1
1
0
-1
-2
-3
-3
-3
-2
-1
0
0
0
0
0
-1
-1
-1
-1
0
1
3
4
5
5
5
4
4
3
2
1
0
0
0
1
1
2
3
5
7
8
10
11
12
13
14
14
15
16
17
19
21
23
25
27
28
29
30
30
31
31
32
33
34
36
37
39
40
40
40
39
39
39
39
40
41
43
45
46
46
45
42
39
34
30
26
23
21
20
20
20
19
18
15
12
8
3
-1
-4
-5
-6
-6
-5
-4
-4
-4
-5
-7
-9
-11
-13
-14
-14
-13
-12
-11
-9
-8
-8
-8
-9
-10
-12
-13
-14
-15
-15
-14
-13
-12
-10
-9
-9
-8
-9
-9
-10
-10
-11
-11
-11
-10
-10
-10
-10
-10
-10
-10
-10
-10
-10
-10
-10
-10
-10
-9
-9
-8
-8
-7
-7
-7
-6
-6
-6
-6
-5
-5
-5
-5
-5
-5
-6
-7
-8
-9
-10
-10
-10
-9
-8
-7
-6
-6
-6
-6
-7
-8
-8
-8
-8
-7
-6
-5
-5
-5
-6
-7
-8
-10
-11
-11
-11
-10
-9
-9
-8
-8
-9
-9
-10
-11
-12
-12
-12
-11
-11
-10
-9
-7
-6
-5
-4
-4
-4
-4
-5
-7
-9
-10
-11
-12
-12
-11
-10
-9
-8
-8
-8
-9
-10
-12
-13
-14
-15
-15
-14
-13
-12
-11
-11
-11
-11
-11
-10
-10
-8
-7
-5
-3
-1
1
1
1
1
0
-2
-4
-6
-7
-9
-10
-11
-11
-12
-11
-11
-10
-9
-7
-6
-5
-4
-4
-4
-4
-5
-5
-6
-7
-8
-8
-9
-9
-10
-11
-12
-12
-13
-13
-13
-12
-11
-10
-8
-7
-6
-5
-4
-3
-2
2
8
17
29
43
58
73
85
94
97
94
85
69
50
27
4
-18
-36
-51
-61
-66
-67
-65
-62
-57
-51
-46
-41
-36
-32
-28
-25
-21
-18
-14
-11
-9
-6
-5
-3
-2
-1
0
1
1
1
0
0
-1
-1
-1
-1
-1
-1
0
0
1
1
2
3
4
5
6
7
8
7
7
5
4
2
1
1
2
4
7
9
12
14
15
15
15
14
14
13
13
14
14
15
16
17
17
18
19
19
20
22
23
24
26
27
28
28
29
29
30
31
33
36
38
41
44
47
48
50
50
50
50
49
49
48
48
47
45
43
41
39
36
34
31
29
27
25
24
22
21
19
17
16
14
11
8
5
2
-1
-3
-5
-6
-7
-6
-6
-5
-5
-5
-5
-7
-8
-10
-11
-12
-12
-12
-12
-11
-11
-10
-9
-8
-7
-6
-5
-5
-6
-7
-9
-11
-13
-15
-15
-15
-14
-12
-10
-7
-5
-4
-3
-4
-6
-8
-10
-12
-14
-15
-15
-14
-12
-10
-8
-7
-6
-5
-5
-5
-5
-6
-6
-6
-6
-5
-5
-4
-4
-4
-5
-5
-6
-6
-7
-7
-7
-7
-7
-8
-8
-9
-10
-11
-12
-12
-11
-11
-10
-9
-9
-9
-9
-10
-11
-11
-11
-11
-10
-9
-8
-7
-6
-6
-6
-7
-8
-9
-10
-11
-12
-12
-12
-12
-12
-11
-11
-11
-10
-9
-8
-7
-6
-5
-4
-5
-6
-8
-10
-13
-15
-17
-17
-16
-14
-12
-10
-8
-7
-7
-8
-9
-10
-10
-10
-8
-6
-3
-1
1
2
2
1
-1
-3
-6
-9
-11
-12
-12
-12
-11
-10
-9
-8
-8
-8
-8
-9
-10
-11
-11
-11
-10
-8
-7
-6
-5
-6
-7
-8
-9
-11
-11
-11
-10
-9
-8
-7
-6
-7
-7
-9
-10
-11
-11
-11
-9
-5
0
7
16
26
38
50
61
72
79
83
83
77
66
50
30
8
-14
-35
-52
-65
-73
-76
-74
-69
-62
-55
-48
-42
-37
-33
-31
-28
-26
-22
-19
-15
-11
-7
-4
-2
-1
-1
-1
-2
-3
-4
-5
-6
-6
-7
-6
-6
-4
-3
0
2
4
5
5
4
2
0
-2
-4
-4
-3
-1
1
5
8
10
11
11
10
8
6
4
3
3
4
7
9
12
14
16
17
17
17
16
16
16
17
18
20
22
24
26
27
28
29
29
30
30
30
31
32
34
35
37
39
40
41
42
42
43
43
44
45
46
47
48
49
49
47
45
42
38
34
31
28
25
23
22
20
18
15
12
9
6
3
1
0
-1
-1
-2
-2
-3
-5
-7
-9
-10
-11
-11
-10
-9
-8
-7
-7
-8
-10
-12
-14
-15
-15
-14
-13
-11
-10
-9
-9
-9
-10
-11
-13
-14
-15
-15
-15
-16
-16
-15
-15
-14
-12
-11
-9
-7
-6
-5
-5
-5
-6
-7
-9
-10
-12
-12
-12
-12
-11
-10
-8
-7
-6
-4
-4
-4
-4
-5
-7
-8
-9
-9
-8
-7
-5
-3
-1
0
0
-2
-3
-6
-8
-10
-12
-12
-12
-10
-8
-6
-4
-3
-2
-1
-2
-3
-4
-6
-7
-8
-8
-8
-7
-6
-5
-5
-5
-5
-6
-8
-9
-10
-11
-11
-10
-9
-8
-7
-6
-6
-7
-8
-9
-10
-10
-10
-10
-9
-8
-7
-6
-6
-6
-7
-8
-9
-10
-10
-10
-10
-10
-10
-10
-10
-11
-12
-13
-13
-13
-13
-11
-10
-8
-7
-6
-5
-6
-7
-8
-8
-9
-9
-9
-9
-8
-7
-7
-6
-6
-5
-4
-3
-1
0
1
2
2
1
0
-1
-2
-3
-4
-4
-5
-6
-6
-7
-8
-10
-11
-11
-12
-12
-12
-12
-12
-12
-13
-13
-13
-12
-11
-10
-9
-7
-6
-5
-5
-5
-6
-7
-7
-8
-7
-7
-6
-6
-6
-7
-7
-5
-2
4
13
25
40
56
72
85
94
98
95
85
70
51
29
6
-16
-34
-50
-61
-68
-71
-71
-68
-63
-57
-51
-45
-39
-34
-29
-24
-21
-17
-14
-11
-8
-6
-5
-5
-5
-5
-6
-7
-7
-7
-7
-6
-5
-5
-4
-4
-4
-4
-4
-3
-1
1
3
4
6
6
6
4
2
0
-1
-2
-3
-2
-1
0
1
2
3
4
5
6
7
8
8
9
9
8
8
7
7
7
8
9
12
15
18
21
23
25
25
26
26
26
26
27
28
30
32
33
34
35
36
36
37
37
38
39
40
41
42
43
43
43
43
43
42
42
41
41
40
39
37
34
30
26
21
17
14
12
11
11
11
11
10
8
5
1
-3
-7
-10
-10
-10
-8
-6
-4
-3
-4
-5
-8
-10
-12
-13
-13
-11
-9
-7
-5
-4
-4
-6
-8
-10
-11
-12
-12
-11
-10
-9
-7
-7
-7
-7
-8
-9
-10
-11
-12
-12
-12
-13
-13
-13
-13
-12
-11
-10
-9
-7
-5
-3
-2
-2
-2
-4
-6
-8
-11
-12
-13
-13
-11
-8
-5
-1
1
2
2
0
-3
-6
-8
-10
-10
-9
-8
-6
-4
-3
-3
-5
-6
-8
-10
-11
-11
-11
-9
-8
-7
-6
-6
-6
-7
-7
-7
-7
-6
-5
-4
-3
-4
-5
-6
-8
-10
-11
-12
-12
-11
-9
-8
-7
-6
-6
-7
-8
-9
-9
-9
-8
-7
-6
-5
-5
-5
-6
-9
-11
-13
-15
-15
-15
-13
-11
-10
-8
-7
-7
-8
-9
-11
-11
-11
-11
-9
-7
-5
-4
-3
-3
-4
-6
-7
-9
-10
-10
-9
-8
-6
-5
-3
-3
-3
-4
-6
-7
-8
-9
-8
-7
-5
-2
0
1
1
1
0
-2
-4
-5
-7
-8
-8
-9
-9
-10
-10
-9
-9
-8
-7
-6
-5
-4
-4
-4
-5
-7
-9
-10
-11
-11
-10
-9
-7
-6
-4
-3
-2
-2
-3
-4
-5
-7
-8
-8
-9
-9
-9
-8
-6
-4
1
7
16
28
42
57
73
87
97
102
100
92
76
56
32
8
-16
-35
-51
-61
-66
-66
-64
-60
-54
-49
-43
-38
-32
-28
-23
-19
-15
-12
-10
-8
-6
-4
-3
-1
0
1
1
1
0
-1
-3
-4
-5
-5
-4
-2
0
2
4
5
6
6
5
4
3
2
1
1
1
2
3
5
7
8
9
10
9
9
8
7
6
5
5
6
8
10
12
14
15
16
16
15
15
15
16
17
19
21
23
24
24
24
24
23
24
25
27
31
35
39
42
43
44
43
41
38
36
35
36
37
38
40
41
41
40
38
36
35
34
34
35
36
36
36
35
33
30
26
22
18
14
11
8
6
3
1
-1
-2
-3
-4
-4
-4
-4
-5
-6
-6
-7
-7
-6
-5
-4
-2
-1
0
-1
-2
-5
-8
-11
-13
-14
-14
-13
-12
-11
-10
-10
-10
-11
-11
-12
-11
-10
-9
-8
-8
-8
-8
-9
-10
-11
-11
-10
-8
-6
-4
-2
-2
-2
-3
-5
-8
-10
-12
-12
-12
-11
-9
-6
-4
-2
-2
-2
-2
-4
-5
-7
-9
-10
-10
-11
-10
-10
-8
-7
-5
-4
-3
-2
-2
-2
-3
-4
-6
-7
-8
-9
-10
-10
-10
-10
-9
-9
-9
-9
-9
-9
-8
-8
-7
-6
-5
-4
-5
-6
-7
-9
-10
-12
-13
-13
-13
-12
-11
-10
-9
-8
-8
-8
-8
-9
-9
-10
-11
-11
-11
-11
-11
-11
-10
-9
-9
-9
-9
-10
-11
-12
-12
-12
-11
-9
-8
-6
-4
-4
-5
-7
-9
-12
-15
-17
-18
-18
-17
-14
-11
-9
-6
-5
-4
-5
-6
-7
-8
-9
-9
-9
-9
-8
-7
-5
-4
-3
-2
-1
-2
-3
-5
-7
-9
-12
-14
-15
-15
-14
-12
-10
-8
-6
-5
-5
-6
-8
-10
-12
-13
-13
-13
-12
-10
-9
-8
-8
-8
-9
-10
-10
-11
-11
-10
-9
-8
-7
-7
-7
-8
-8
-8
-6
-1
6
17
29
44
58
71
82
88
89
85
75
60
42
21
-1
-22
-40
-55
-66
-73
-75
-73
-69
-63
-56
-48
-40
-33
-27
-22
-18
-15
-13
-12
-11
-11
-11
-10
-10
-9
-8
-7
-6
-6
-5
-5
-6
-6
-5
-5
-4
-3
-1
0
0
0
-1
-2
-4
-5
-5
-5
-5
-3
-1
1
3
4
5
5
5
5
5
4
4
4
5
6
7
8
9
10
11
11
11
12
13
14
15
17
19
21
23
24
25
25
25
25
25
26
27
29
30
32
33
35
36
37
38
39
40
41
42
44
45
45
46
46
45
45
44
42
41
39
37
36
34
33
31
29
26
23
18
14
9
5
2
1
0
1
2
3
4
4
2
-1
-4
-7
-10
-11
-12
-11
-10
-9
-7
-7
-7
-7
-7
-8
-8
-7
-7
-7
-7
-8
-10
-12
-14
-15
-15
-15
-13
-12
-9
-8
-7
-7
-7
-8
-9
-10
-10
-10
-10
-10
-10
-10
-11
-12
-12
-12
-11
-10
-8
-6
-5
-5
-5
-5
-7
-8
-9
-9
-9
-8
-7
-6
-5
-5
-6
-7
-8
-9
-9
-9
-8
-8
-7
-7
-7
-7
-7
-7
-6
-5
-4
-2
-1
-1
-2
-4
-6
-8
-10
-11
-11
-10
-8
-6
-5
-4
-3
-4
-6
-7
-9
-10
-9
-8
-7
-5
-3
-1
0
0
0
-1
-2
-3
-4
-5
-6
-6
-6
-6
-6
-6
-6
-6
-7
-7
-7
-7
-7
-6
-6
-5
-5
-5
-6
-7
-9
-10
-12
-13
-13
-12
-12
-10
-9
-8
-8
-7
-7
-7
-6
-6
-5
-3
-2
0
1
2
2
2
1
0
-2
-4
-7
-8
-9
-9
-8
-7
-5
-3
-1
0
0
0
-2
-4
-6
-7
-8
-8
-8
-7
-6
-6
-5
-6
-7
-8
-9
-10
-11
-12
-12
-11
-11
-10
-9
-8
-8
-7
-7
-6
-5
-2
3
10
19
31
45
59
72
83
90
91
86
75
59
40
19
-2
-22
-38
-51
-61
-66
-69
-70
-68
-64
-59
-53
-46
-38
-31
-25
-19
-15
-12
-10
-9
-9
-9
-8
-8
-7
-6
-4
-3
-2
-1
-1
-1
-2
-3
-4
-4
-5
-5
-4
-3
-2
0
1
2
3
3
4
4
4
5
5
5
6
6
6
5
5
5
6
7
8
9
10
11
11
12
12
12
13
14
15
16
17
17
17
18
18
18
19
20
22
24
27
29
31
32
32
32
32
32
33
34
36
38
40
42
43
44
44
43
42
42
42
43
44
46
47
47
47
45
42
39
35
31
28
26
23
22
20
18
16
14
11
8
5
2
1
0
-1
-1
-1
-1
-3
-4
-7
-9
-11
-13
-13
-12
-10
-8
-6
-4
-3
-3
-3
-4
-5
-6
-7
-7
-8
-8
-8
-9
-11
-12
-13
-14
-15
-14
-13
-11
-9
-8
-8
-8
-9
-10
-11
-12
-12
-11
-10
-9
-8
-8
-8
-9
-10
-11
-12
-12
-10
-8
-6
-4
-3
-3
-3
-4
-6
-7
-8
-9
-9
-8
-8
-7
-6
-5
-4
-4
-4
-4
-3
-4
-4
-5
-6
-8
-9
-9
-9
-8
-7
-5
-4
-3
-3
-4
-5
-8
-10
-11
-12
-12
-11
-9
-8
-7
-7
-7
-7
-8
-9
-10
-10
-9
-9
-9
-10
-10
-12
-13
-14
-15
-14
-13
-11
-9
-7
-5
-5
-5
-6
-7
-8
-9
-10
-9
-8
-7
-6
-5
-4
-5
-6
-9
-11
-14
-16
-17
-17
-16
-15
-12
-10
-9
-7
-7
-7
-8
-9
-10
-10
-9
-8
-6
-4
-2
0
1
2
2
1
0
-1
-2
-4
-5
-7
-9
-11
-13
-14
-15
-16
-15
-14
-12
-10
-8
-7
-6
-6
-7
-9
-11
-14
-16
-18
-18
-17
-15
-12
-10
-9
-8
-9
-11
-13
-15
-16
-16
-15
-13
-10
-7
-4
-2
1
3
8
15
24
37
51
66
80
91
96
95
88
74
54
32
8
-14
-34
-50
-62
-70
-73
-74
-71
-68
-63
-57
-50
-44
-37
-31
-26
-22
-18
-15
-14
-12
-11
-10
-9
-7
-6
-4
-2
-1
0
0
0
0
0
0
0
0
1
1
2
2
1
1
-1
-2
-3
-4
-4
-4
-2
-1
2
4
6
8
9
9
8
7
5
4
3
3
4
6
7
9
10
11
12
12
13
13
14
16
18
20
21
22
22
22
22
22
22
23
25
27
30
32
34
35
35
35
35
36
36
38
40
41
43
44
44
43
42
41
40
39
39
39
39
39
39
37
34
30
26
21
17
13
11
9
8
7
7
5
4
1
-2
-4
-7
-8
-8
-8
-6
-5
-3
-2
-2
-3
-5
-7
-9
-10
-11
-11
-11
-10
-9
-8
-7
-7
-7
-7
-7
-6
-6
-6
-6
-6
-6
-6
-7
-7
-7
-8
-8
-8
-8
-8
-8
-8
-9
-9
-9
-8
-8
-8
-8
-8
-9
-10
-11
-12
-13
-13
-13
-11
-10
-7
-5
-3
-2
-1
-2
-3
-4
-6
-8
-10
-12
-12
-12
-10
-8
-6
-4
-3
-2
-3
-4
-6
-8
-9
-9
-9
-7
-5
-3
-2
-1
-2
-4
-7
-9
-11
-12
-12
-10
-8
-6
-4
-4
-4
-6
-8
-10
-12
-13
-13
-13
-12
-11
-10
-10
-9
-9
-8
-8
-7
-6
-6
-6
-6
-7
-9
-11
-12
-13
-13
-12
-10
-8
-6
-5
-5
-5
-7
-8
-10
-11
-11
-10
-8
-7
-5
-4
-3
-3
-4
-5
-6
-7
-7
-8
-8
-9
-9
-10
-10
-11
-11
-10
-8
-6
-4
-1
1
2
2
2
2
1
0
-1
-2
-4
-5
-6
-8
-9
-10
-10
-10
-9
-9
-9
-9
-9
-10
-11
-12
-12
-12
-10
-8
-6
-5
-5
-6
-8
-11
-13
-15
-15
-14
-11
-8
-4
-1
0
-1
-4
-7
-11
-14
-15
-12
-6
3
16
31
48
64
79
91
99
101
97
86
71
50
27
4
-19
-38
-54
-64
-70
-72
-70
-66
-61
-55
-50
-44
-39
-33
-28
-22
-17
-12
-8
-5
-3
-3
-3
-4
-5
-5
-5
-4
-3
-1
1
2
3
3
2
1
0
-1
-2
-2
0
1
4
6
7
8
8
7
6
5
4
3
4
5
7
9
10
11
10
8
6
4
2
2
2
4
6
9
11
12
13
12
12
11
10
11
12
14
16
18
21
22
23
24
25
25
25
26
27
29
31
32
34
34
35
35
36
36
36
37
38
39
41
42
43
44
44
43
41
39
36
33
30
27
25
24
23
22
21
20
19
16
13
9
6
3
0
-1
-1
-1
-1
-1
-2
-3
-5
-7
-9
-10
-10
-10
-8
-6
-4
-3
-3
-4
-6
-8
-10
-12
-13
-12
-11
-9
-7
-6
-5
-5
-7
-9
-11
-13
-14
-14
-13
-11
-9
-7
-6
-5
-6
-7
-9
-11
-13
-14
-14
-13
-11
-10
-9
-8
-8
-8
-9
-10
-10
-10
-9
-8
-7
-6
-6
-7
-8
-9
-11
-11
-11
-10
-8
-6
-4
-3
-3
-4
-6
-8
-10
-12
-13
-14
-13
-12
-11
-9
-8
-7
-7
-6
-7
-7
-7
-8
-9
-11
-12
-13
-15
-15
-15
-15
-14
-13
-12
-11
-11
-11
-12
-13
-13
-14
-14
-13
-11
-9
-7
-5
-4
-4
-4
-5
-6
-8
-9
-10
-10
-10
-10
-10
-10
-10
-10
-10
-10
-10
-10
-9
-8
-7
-7
-7
-7
-8
-9
-9
-9
-8
-6
-4
-2
0
2
2
2
1
0
-2
-3
-4
-5
-6
-7
-7
-7
-8
-8
-7
-7
-7
-8
-8
-9
-11
-12
-13
-13
-12
-11
-9
-7
-5
-4
-4
-5
-6
-7
-8
-9
-8
-8
-7
-7
-7
-8
-9
-10
-10
-9
-7
-4
1
7
14
22
30
39
49
60
69
78
83
85
82
73
59
40
19
-3
-23
-41
-55
-64
-68
-69
-68
-64
-59
-53
-47
-40
-34
-28
-23
-18
-14
-12
-10
-8
-7
-5
-4
-3
-1
0
0
0
-1
-2
-3
-3
-3
-1
0
3
4
6
6
6
4
3
1
0
-1
-1
0
1
2
4
5
7
8
8
9
9
9
9
9
9
9
9
9
10
10
11
12
13
14
14
15
16
17
18
19
21
22
24
25
26
26
26
26
26
27
28
29
32
34
36
39
41
42
44
44
45
45
44
44
44
44
45
45
46
47
48
49
48
47
45
41
37
33
29
25
23
21
20
20
20
19
17
14
10
6
2
-1
-3
-4
-4
-4
-3
-3
-4
-5
-7
-8
-9
-10
-9
-8
-7
-6
-5
-5
-5
-7
-8
-10
-11
-12
-12
-11
-10
-9
-8
-7
-7
-7
-7
-8
-8
-9
-10
-10
-10
-10
-10
-9
-9
-10
-11
-12
-14
-15
-16
-15
-14
-12
-9
-7
-5
-3
-4
-5
-7
-8
-10
-10
-10
-8
-6
-4
-3
-3
-5
-6
-8
-10
-10
-10
-9
-7
-5
-4
-3
-4
-5
-7
-9
-10
-10
-10
-10
-10
-10
-11
-12
-13
-14
-14
-13
-12
-9
-7
-5
-3
-3
-3
-4
-6
-8
-9
-10
-11
-10
-9
-8
-7
-6
-6
-5
-5
-5
-5
-6
-6
-7
-8
-8
-9
-9
-9
-9
-8
-8
-7
-7
-7
-8
-8
-9
-10
-10
-10
-9
-9
-8
-6
-6
-5
-5
-5
-5
-5
-5
-5
-4
-3
-1
0
0
0
-2
-4
-6
-9
-12
-15
-16
-17
-16
-15
-12
-10
-8
-6
-6
-6
-7
-9
-10
-12
-13
-13
-12
-10
-9
-8
-8
-9
-10
-12
-13
-14
-14
-14
-12
-10
-8
-5
-3
-1
2
6
13
22
34
47
61
74
83
87
86
78
64
45
24
1
-20
-39
-54
-64
-71
-73
-72
-69
-65
-60
-54
-49
-44
-39
-35
-30
-26
-22
-18
-14
-10
-7
-5
-4
-3
-4
-5
-6
-8
-9
-9
-8
-7
-5
-2
0
1
2
2
2
1
0
-1
-1
-1
0
0
1
2
2
3
3
3
3
4
5
6
7
7
8
8
7
7
6
6
6
7
7
8
9
10
11
11
12
13
14
16
17
19
20
21
21
22
23
25
27
29
32
35
37
38
38
38
37
36
36
37
39
42
44
47
48
48
47
45
42
40
38
37
37
37
37
36
34
31
27
22
17
13
10
7
5
4
2
0
-2
-4
-7
-8
-10
-10
-10
-10
-10
-9
-9
-9
-9
-10
-10
-10
-10
-10
-10
-10
-11
-11
-11
-12
-12
-11
-11
-10
-9
-8
-7
-7
-7
-8
-9
-11
-12
-12
-12
-12
-11
-10
-9
-8
-7
-7
-7
-8
-9
-10
-11
-12
-12
-12
-11
-10
-10
-9
-9
-9
-9
-10
-10
-9
-9
-9
-9
-9
-9
-10
-10
-10
-10
-9
-8
-7
-6
-6
-6
-6
-7
-8
-9
-9
-9
-9
-8
-8
-8
-9
-10
-11
-12
-13
-13
-12
-10
-8
-7
-6
-6
-7
-8
-10
-11
-12
-12
-11
-10
-9
-8
-7
-8
-9
-10
-11
-12
-12
-11
-10
-9
-8
-8
-8
-9
-10
-11
-12
-12
-11
-10
-9
-9
-9
-10
-11
-12
-13
-14
-14
-13
-11
-9
-7
-5
-4
-3
-2
-1
-1
0
1
1
2
2
1
0
-1
-3
-4
-6
-7
-8
-9
-9
-10
-9
-9
-8
-7
-6
-5
-5
-4
-4
-4
-4
-5
-5
-6
-6
-7
-8
-9
-10
-11
-11
-11
-10
-9
-8
-6
-5
-5
-5
-5
-6
-6
-5
-2
5
14
27
41
57
72
85
94
98
95
87
72
53
31
7
-16
-36
-52
-64
-70
-73
-71
-67
-62
-55
-49
-43
-37
-31
-26
-21
-16
-12
-8
-6
-4
-3
-3
-2
-1
-1
-1
-1
-1
-2
-3
-4
-5
-5
-4
-3
0
2
4
5
5
4
3
2
1
0
0
1
3
4
6
7
7
7
7
6
6
5
5
5
5
5
5
6
6
6
7
8
9
11
13
14
16
17
18
18
19
20
20
21
22
23
25
26
27
29
30
31
32
33
34
36
37
39
41
42
44
45
46
46
46
45
44
43
41
40
39
37
36
35
34
33
31
29
26
23
20
16
13
10
7
5
4
4
4
3
2
1
-1
-4
-7
-9
-12
-13
-14
-13
-12
-11
-10
-10
-10
-11
-11
-12
-12
-12
-11
-9
-7
-6
-4
-4
-4
-5
-6
-7
-7
-8
-8
-8
-8
-8
-9
-9
-10
-11
-11
-11
-11
-10
-8
-7
-5
-5
-5
-6
-7
-9
-11
-12
-14
-14
-14
-14
-13
-12
-11
-11
-10
-10
-11
-11
-12
-13
-13
-14
-14
-14
-13
-12
-11
-10
-9
-8
-8
-9
-9
-10
-11
-11
-11
-11
-11
-10
-10
-10
-10
-10
-11
-12
-12
-11
-10
-9
-7
-6
-4
-4
-5
-6
-7
-9
-11
-11
-12
-11
-11
-10
-9
-9
-9
-9
-9
-9
-9
-8
-8
-7
-8
-8
-10
-11
-13
-14
-14
-14
-13
-12
-10
-8
-7
-6
-6
-5
-4
-3
-2
0
1
2
2
1
0
-3
-6
-10
-12
-15
-16
-17
-16
-16
-15
-14
-13
-13
-13
-14
-14
-14
-14
-13
-12
-11
-10
-8
-8
-8
-8
-9
-9
-10
-11
-12
-12
-12
-12
-12
-12
-11
-11
-10
-9
-8
-7
-4
-1
3
10
18
28
40
54
68
81
90
96
96
89
76
58
36
13
-10
-31
-49
-63
-72
-77
-79
-78
-74
-68
-61
-53
-44
-35
-27
-20
-15
-11
-10
-9
-10
-10
-11
-11
-10
-9
-7
-6
-6
-6
-6
-6
-6
-5
-5
-4
-3
-2
-2
-2
-2
-3
-3
-2
-1
0
1
2
2
2
1
1
0
0
1
2
4
6
8
10
12
13
13
12
12
11
10
10
9
10
10
11
11
12
13
14
15
16
18
19
21
23
26
28
31
32
34
35
35
36
36
37
38
39
41
42
43
44
43
42
41
40
40
39
39
40
40
40
39
37
35
32
30
27
25
24
22
21
19
17
14
10
6
2
-1
-3
-4
-5
-4
-4
-3
-3
-3
-4
-4
-5
-5
-5
-5
-5
-6
-6
-7
-9
-10
-11
-12
-12
-11
-9
-8
-7
-7
-7
-8
-10
-11
-13
-13
-13
-12
-11
-10
-9
-8
-8
-8
-8
-9
-9
-9
-9
-9
-10
-10
-11
-11
-12
-12
-11
-10
-9
-7
-6
-5
-5
-6
-6
-8
-9
-9
-10
-9
-9
-8
-8
-7
-8
-8
-9
-10
-9
-8
-7
-4
-2
0
1
1
-1
-3
-5
-8
-11
-12
-13
-13
-12
-10
-9
-7
-7
-6
-6
-6
-6
-6
-6
-6
-5
-5
-5
-5
-6
-7
-8
-9
-10
-10
-11
-11
-10
-10
-9
-9
-9
-9
-9
-10
-10
-10
-10
-9
-8
-7
-5
-4
-3
-3
-4
-6
-8
-10
-12
-12
-12
-10
-7
-4
-1
2
3
4
3
1
-1
-3
-5
-6
-7
-8
-8
-9
-10
-10
-11
-11
-11
-11
-10
-9
-8
-8
-8
-9
-9
-10
-10
-9
-8
-7
-6
-6
-7
-8
-10
-12
-13
-14
-14
-13
-11
-9
-7
-5
-4
-4
-5
-4
-3
0
6
15
27
41
57
72
84
93
97
95
86
71
52
29
6
-17
-37
-53
-65
-71
-73
-72
-68
-63
-57
-50
-44
-38
-32
-27
-23
-19
-15
-12
-9
-7
-6
-5
-4
-4
-4
-4
-4
-5
-5
-6
-6
-5
-5
-5
-4
-4
-3
-2
-1
0
2
4
5
6
6
6
5
4
2
2
2
2
4
5
6
7
7
7
6
5
5
6
7
9
12
14
15
16
16
15
13
12
11
11
12
14
17
20
22
25
26
26
26
26
26
26
27
29
31
34
37
40
41
43
43
43
43
43
43
44
44
45
46
46
45
44
42
40
37
35
34
32
31
29
27
25
22
18
14
11
7
4
2
0
-1
-2
-3
-3
-3
-3
-3
-3
-4
-5
-6
-7
-8
-9
-10
-11
-11
-10
-10
-10
-10
-11
-12
-13
-14
-15
-14
-13
-11
-9
-6
-5
-5
-6
-9
-12
-14
-16
-17
-16
-14
-11
-8
-5
-4
-3
-4
-6
-8
-10
-11
-12
-12
-11
-11
-11
-11
-12
-12
-13
-13
-13
-11
-9
-7
-4
-2
-1
-1
-2
-4
-6
-8
-9
-10
-10
-10
-9
-8
-7
-6
-6
-5
-5
-5
-4
-4
-4
-3
-3
-4
-5
-6
-7
-9
-10
-10
-10
-10
-9
-8
-7
-6
-6
-6
-7
-8
-9
-9
-10
-10
-10
-10
-10
-9
-9
-9
-9
-9
-8
-7
-7
-6
-5
-4
-4
-4
-4
-5
-6
-7
-8
-8
-9
-8
-8
-6
-4
-2
0
1
3
3
3
3
2
0
-1
-2
-4
-5
-6
-7
-8
-9
-10
-10
-9
-9
-8
-7
-5
-4
-3
-3
-3
-3
-4
-5
-6
-7
-7
-6
-6
-5
-4
-3
-3
-2
-2
-3
-3
-3
-3
-3
-3
-2
-2
-2
-1
0
2
4
8
13
21
30
42
55
67
79
89
94
94
88
76
58
37
14
-8
-29
-45
-56
-61
-63
-60
-56
-50
-44
-39
-34
-30
-26
-22
-17
-12
-8
-3
0
2
3
2
1
1
0
0
1
3
4
6
7
7
7
7
6
6
5
6
6
7
8
9
10
10
10
10
9
9
9
9
10
11
13
15
16
17
18
18
17
16
16
15
15
15
16
17
19
21
22
23
25
26
27
28
29
31
32
33
34
34
35
35
35
35
36
37
38
39
41
42
44
45
46
47
47
48
50
51
53
54
56
57
58
58
58
57
55
53
51
48
45
42
39
36
34
31
29
26
24
21
19
17
14
12
10
9
7
6
4
3
2
0
-1
-2
-3
-3
-3
-2
0
2
4
6
7
7
6
4
2
-2
