-31
-18
-10
-5
-3
-5
-9
-14
-18
-19
-18
-14
-10
-7
-6
-6
-9
-13
-16
-19
-19
-17
-14
-10
-7
-5
-5
-6
-8
-11
-12
-12
-11
-9
-6
-4
-3
-2
-3
-5
-6
-8
-8
-8
-8
-7
-7
-7
-7
-8
-10
-11
-12
-13
-13
-14
-14
-14
-14
-13
-12
-11
-10
-9
-8
-8
-9
-11
-13
-15
-16
-15
-14
-12
-9
-6
-4
-2
-1
1
4
9
17
28
43
60
78
94
107
114
113
106
91
70
46
20
-6
-29
-48
-62
-71
-75
-76
-73
-69
-64
-58
-53
-48
-43
-38
-33
-27
-21
-16
-10
-6
-3
-2
-2
-2
-4
-5
-5
-5
-4
-2
0
2
4
5
6
5
5
5
5
6
7
8
9
9
9
8
8
7
6
6
7
8
9
10
11
12
12
12
11
12
12
12
13
14
15
16
17
18
19
20
22
24
27
29
31
33
34
34
34
34
34
34
34
34
35
36
36
37
37
37
36
36
35
34
33
33
33
33
33
33
33
33
32
31
29
27
25
22
20
17
15
12
10
7
6
4
3
3
3
2
1
0
-2
-4
-6
-8
-10
-10
-9
-7
-5
-2
0
1
0
-1
-4
-7
-9
-11
-11
-10
-8
-5
-2
0
2
3
3
2
2
1
1
1
1
2
2
2
1
0
-1
-2
-3
-4
-4
-4
-3
-2
-2
-1
-1
0
0
1
2
2
2
2
1
-1
-3
-5
-7
-9
-9
-10
-9
-8
-7
-6
-5
-5
-5
-5
-5
-4
-4
-3
-2
-2
-2
-2
-3
-5
-6
-6
-6
-5
-4
-2
0
1
1
1
0
-1
-1
-1
0
1
2
3
3
2
0
-2
-4
-6
-7
-8
-7
-7
-6
-6
-6
-7
-8
-9
-10
-11
-10
-10
-9
-8
-7
-7
-8
-9
-10
-10
-10
-9
-7
-5
-2
-1
0
0
-1
-1
1
5
12
24
39
58
78
98
114
125
129
125
112
91
65
36
6
-21
-45
-62
-74
-79
-79
-76
-70
-63
-55
-48
-42
-36
-31
-26
-22
-17
-13
-9
-7
-5
-4
-3
-4
-4
-3
-3
-1
1
3
6
8
8
8
7
5
3
1
-1
-1
0
2
4
6
8
8
8
8
7
6
6
7
8
10
11
13
14
14
14
14
14
14
14
15
16
18
18
19
19
18
18
18
19
20
22
25
28
31
33
35
35
35
34
33
32
32
32
32
33
34
35
36
36
36
35
33
31
29
28
27
26
27
27
28
28
28
27
25
22
19
16
13
10
7
4
2
0
-2
-5
-7
-9
-10
-10
-10
-9
-8
-6
-5
-5
-5
-7
-9
-12
-15
-17
-19
-19
-18
-16
-14
-11
-8
-7
-6
-7
-9
-11
-13
-14
-15
-15
-14
-12
-10
-9
-8
-7
-7
-8
-9
-10
-11
-11
-11
-10
-9
-8
-7
-7
-7
-8
-9
-10
-11
-12
-13
-13
-13
-13
-13
-12
-12
-12
-12
-13
-13
-13
-13
-13
-12
-12
-11
-11
-10
-10
-11
-11
-11
-12
-12
-12
-12
-12
-13
-13
-13
-13
-12
-12
-11
-10
-9
-9
-10
-12
-13
-14
-15
-14
-13
-10
-7
-4
-1
1
1
1
-1
-3
-6
-8
-10
-12
-12
-13
-13
-14
-14
-16
-17
-19
-20
-21
-22
-22
-21
-20
-18
-15
-13
-12
-12
-12
-14
-15
-17
-17
-17
-15
-13
-10
-7
-5
-2
0
5
12
24
39
59
80
101
119
131
134
127
110
86
55
23
-8
-35
-57
-72
-80
-84
-84
-81
-77
-72
-67
-61
-54
-47
-39
-30
-23
-16
-11
-7
-6
-6
-8
-9
-11
-12
-12
-11
-9
-7
-4
-2
0
0
0
-1
-2
-4
-4
-5
-4
-3
-2
-1
1
2
3
4
4
5
5
5
5
5
5
5
5
4
4
5
5
6
7
9
10
12
14
16
17
18
19
20
20
20
20
21
22
23
24
25
26
27
28
29
29
30
30
31
32
33
34
34
32
31
28
26
24
23
22
22
22
23
22
21
19
16
14
11
9
8
7
7
6
5
3
1
-3
-6
-9
-10
-11
-10
-9
-8
-8
-8
-10
-12
-15
-18
-20
-21
-21
-19
-17
-14
-12
-11
-10
-11
-12
-14
-16
-17
-18
-18
-18
-17
-16
-15
-14
-14
-14
-15
-15
-16
-15
-14
-13
-11
-10
-8
-8
-7
-8
-9
-10
-11
-12
-12
-11
-11
-10
-10
-10
-11
-13
-15
-17
-18
-19
-19
-18
-16
-14
-13
-12
-12
-13
-15
-16
-18
-18
-18
-18
-17
-15
-14
-14
-14
-14
-15
-16
-17
-17
-17
-17
-16
-16
-15
-15
-16
-16
-17
-17
-17
-17
-16
-15
-14
-13
-13
-13
-13
-14
-14
-14
-13
-12
-11
-9
-7
-6
-5
-5
-5
-5
-6
-7
-8
-10
-11
-12
-13
-14
-14
-14
-13
-13
-12
-12
-13
-14
-15
-15
-16
-16
-15
-14
-12
-10
-9
-8
-7
-8
-8
-9
-11
-12
-13
-13
-12
-9
-3
6
18
34
52
73
93
111
125
133
133
125
109
86
57
27
-4
-31
-53
-70
-79
-83
-81
-76
-70
-63
-56
-51
-47
-43
-38
-33
-26
-19
-12
-6
-2
0
-1
-3
-7
-10
-12
-12
-10
-7
-2
2
5
7
6
4
0
-3
-6
-7
-7
-5
-2
1
3
4
5
4
4
3
4
4
6
7
8
9
9
9
9
9
9
10
12
14
16
17
17
17
17
16
15
16
18
21
24
28
30
32
31
30
28
26
25
26
29
33
37
40
42
41
38
34
28
23
20
19
20
22
24
27
27
27
24
21
18
15
14
15
15
16
16
14
11
6
1
-4
-8
-9
-9
-8
-6
-4
-4
-6
-9
-14
-18
-22
-24
-24
-22
-19
-16
-13
-11
-10
-10
-11
-13
-13
-14
-14
-13
-12
-12
-12
-12
-13
-14
-14
-14
-14
-12
-11
-9
-9
-9
-9
-11
-12
-14
-14
-14
-14
-12
-10
-8
-7
-6
-6
-6
-6
-7
-8
-8
-8
-8
-8
-8
-9
-10
-11
-13
-14
-15
-15
-15
-14
-13
-12
-11
-11
-10
-10
-10
-9
-9
-10
-10
-11
-11
-12
-12
-11
-10
-9
-7
-5
-4
-3
-3
-4
-5
-6
-7
-7
-7
-7
-7
-7
-8
-9
-10
-12
-13
-13
-13
-11
-7
-3
2
6
9
10
10
8
4
-1
-5
-9
-12
-14
-14
-12
-10
-8
-7
-6
-6
-7
-8
-9
-9
-8
-7
-5
-4
-3
-2
-3
-4
-5
-6
-7
-7
-6
-6
-5
-4
-3
-1
4
12
23
39
58
78
97
114
124
128
123
110
90
65
38
11
-14
-35
-52
-63
-70
-73
-72
-69
-64
-58
-52
-45
-38
-32
-26
-21
-16
-11
-8
-5
-4
-2
-2
-2
-2
-2
-1
0
1
3
4
5
5
5
4
4
4
4
6
7
9
11
12
12
12
10
8
7
6
6
7
8
10
13
14
15
15
15
13
12
11
11
11
12
14
16
19
21
23
25
25
26
25
25
25
25
26
28
30
32
34
36
37
37
36
35
34
32
31
30
30
29
29
29
29
29
28
28
28
27
26
26
24
23
21
18
15
13
10
8
6
4
2
1
-1
-2
-3
-4
-5
-6
-6
-6
-6
-7
-7
-9
-10
-12
-13
-13
-13
-12
-11
-10
-8
-7
-7
-7
-8
-9
-10
-11
-12
-12
-11
-10
-10
-9
-8
-8
-8
-7
-7
-7
-7
-7
-7
-8
-9
-10
-12
-13
-13
-13
-12
-11
-9
-8
-8
-8
-9
-10
-12
-13
-15
-15
-14
-13
-12
-10
-9
-8
-7
-7
-8
-9
-9
-10
-9
-9
-8
-6
-5
-3
-2
-2
-3
-5
-7
-10
-12
-14
-16
-16
-16
-14
-12
-10
-8
-7
-6
-6
-7
-7
-7
-7
-6
-5
-3
-2
-1
-1
-1
-1
-2
-3
-3
-3
-3
-3
-3
-3
-4
-6
-8
-10
-12
-13
-14
-15
-16
-15
-15
-14
-13
-11
-10
-9
-8
-8
-9
-9
-10
-10
-10
-9
-9
-8
-7
-7
-7
-5
-3
3
12
26
43
63
83
102
117
125
125
116
98
74
45
15
-14
-39
-59
-72
-79
-80
-76
-70
-62
-54
-47
-42
-37
-33
-30
-27
-23
-18
-14
-9
-6
-3
-2
-2
-3
-5
-6
-6
-5
-4
-1
1
3
4
4
3
1
0
-1
0
0
2
4
5
6
7
7
6
6
7
8
9
10
11
11
11
10
9
8
9
9
11
14
16
18
20
20
20
20
19
19
20
22
24
27
28
29
30
29
29
29
29
31
32
35
36
38
38
37
36
34
33
31
31
31
31
31
31
31
30
28
26
25
23
22
21
20
18
16
12
8
4
-1
-4
-6
-7
-7
-6
-5
-5
-5
-7
-9
-11
-13
-14
-14
-13
-11
-10
-8
-7
-7
-8
-10
-12
-14
-15
-16
-16
-15
-15
-14
-13
-13
-12
-12
-11
-10
-9
-8
-7
-7
-6
-7
-7
-9
-10
-10
-11
-10
-10
-9
-7
-7
-6
-6
-7
-8
-10
-11
-12
-13
-12
-11
-10
-9
-7
-7
-7
-7
-8
-10
-12
-14
-15
-16
-16
-15
-14
-12
-10
-9
-8
-8
-8
-9
-11
-13
-15
-16
-16
-15
-13
-10
-8
-6
-4
-5
-6
-9
-12
-15
-17
-18
-18
-16
-13
-10
-8
-8
-8
-10
-13
-16
-18
-19
-18
-16
-12
-8
-4
-1
2
3
2
1
-1
-4
-6
-8
-10
-10
-11
-11
-11
-10
-11
-11
-12
-14
-16
-17
-19
-19
-19
-18
-16
-14
-12
-10
-9
-10
-11
-12
-14
-16
-17
-18
-18
-17
-16
-15
-13
-10
-5
3
13
27
44
63
83
103
118
128
131
125
110
88
60
29
-2
-30
-53
-69
-79
-83
-82
-77
-70
-62
-55
-47
-41
-35
-29
-23
-18
-14
-10
-7
-6
-5
-6
-6
-7
-7
-7
-6
-5
-3
-1
0
1
2
2
1
0
-1
-3
-5
-6
-6
-6
-5
-3
-1
0
1
2
2
1
1
1
2
4
7
10
13
15
17
17
16
15
13
12
12
13
14
16
18
20
21
23
24
25
27
29
30
32
32
32
31
30
29
29
29
30
32
34
36
38
38
38
36
34
32
31
30
29
30
30
29
28
26
22
19
15
12
10
9
9
10
10
10
8
6
3
0
-3
-6
-9
-10
-11
-12
-13
-13
-15
-16
-17
-18
-18
-17
-15
-13
-11
-9
-8
-9
-10
-11
-13
-15
-15
-15
-14
-13
-12
-10
-10
-9
-9
-10
-10
-11
-11
-10
-10
-10
-11
-11
-13
-14
-15
-16
-16
-16
-14
-13
-11
-10
-10
-10
-10
-11
-12
-12
-11
-11
-10
-10
-9
-10
-11
-12
-13
-14
-15
-15
-14
-13
-12
-10
-8
-8
-7
-8
-9
-10
-11
-12
-13
-13
-13
-12
-12
-11
-10
-10
-11
-12
-13
-15
-16
-16
-15
-14
-12
-10
-8
-6
-6
-7
-9
-12
-14
-17
-18
-19
-19
-18
-16
-15
-13
-12
-12
-12
-12
-13
-14
-15
-15
-16
-17
-17
-17
-17
-17
-16
-14
-13
-11
-9
-7
-6
-6
-6
-6
-7
-8
-9
-10
-10
-11
-11
-12
-12
-13
-13
-13
-13
-13
-13
-13
-12
-12
-13
-13
-14
-15
-16
-17
-18
-18
-18
-17
-16
-14
-12
-10
-8
-7
-7
-8
-9
-11
-12
-12
-9
-3
7
22
39
59
79
98
114
124
127
123
112
94
71
45
17
-9
-33
-54
-69
-79
-84
-84
-81
-74
-66
-57
-48
-41
-34
-29
-26
-23
-20
-18
-15
-13
-10
-8
-6
-4
-3
-3
-3
-2
-2
-1
0
1
2
2
2
2
2
1
0
0
0
0
1
2
3
4
5
6
7
8
8
9
9
9
9
9
8
8
9
10
11
13
15
16
18
19
20
20
20
20
20
21
22
23
24
26
28
29
31
32
34
35
36
37
37
37
37
37
36
35
33
31
29
27
25
23
22
21
21
22
23
24
25
25
23
21
18
14
10
6
3
1
0
0
0
1
1
1
0
-1
-3
-5
-7
-8
-9
-9
-9
-9
-8
-8
-9
-11
-12
-14
-16
-16
-15
-14
-12
-9
-7
-6
-7
-8
-10
-12
-14
-15
-16
-15
-14
-12
-11
-11
-12
-14
-16
-17
-18
-16
-14
-10
-5
-1
1
2
0
-2
-5
-8
-9
-9
-7
-4
-2
-2
-4
-8
-13
-18
-20
-19
-14
-5
6
16
23
26
22
13
1
-11
-20
-25
-24
-19
-11
-3
2
3
0
-6
-13
-19
-22
-21
-16
-10
-3
2
3
1
-3
-9
-13
-15
-15
-13
-9
-5
-3
-3
-4
-6
-8
-10
-10
-8
-6
-3
-2
-2
-2
-4
-5
-6
-5
-3
-1
2
4
4
2
-1
-5
-9
-12
-13
-13
-12
-11
-9
-9
-9
-10
-11
-12
-13
-12
-11
-10
-8
-8
-8
-10
-11
-12
-12
-12
-10
-7
-4
-1
1
2
4
7
13
22
35
52
72
92
110
123
130
128
118
100
76
47
18
-10
-35
-54
-68
-76
-80
-79
-75
-68
-61
-53
-46
-38
-32
-26
-21
-17
-13
-9
-5
-2
2
4
6
7
7
6
4
2
1
0
0
0
2
4
5
7
7
8
7
7
7
7
7
8
8
7
7
6
5
4
4
5
7
9
12
15
18
19
19
18
16
14
13
14
15
18
22
26
29
31
33
33
32
31
31
31
33
36
40
43
46
47
47
46
43
40
38
36
35
36
37
38
40
40
40
39
37
36
34
32
30
29
27
25
23
21
18
15
13
11
10
9
8
6
5
3
0
-2
-5
-7
-8
-9
-9
-8
-8
-8
-8
-8
-9
-10
-11
-12
-12
-12
-12
-12
-11
-11
-10
-9
-8
-8
-7
-6
-5
-5
-4
-4
-4
-4
-5
-5
-6
-7
-8
-8
-9
-9
-9
-10
-10
-10
-10
-10
-10
-10
-10
-9
-8
-7
-6
-5
-4
-3
-3
-4
-5
-6
-8
-10
-11
-12
-13
-13
-13
-12
-11
-9
-7
-5
-4
-4
-4
-6
-8
-10
-13
-15
-16
-16
-15
-14
-12
-10
-9
-8
-9
-10
-11
-12
-13
-13
-13
-12
-11
-9
-8
-8
-8
-9
-10
-12
-13
-14
-14
-14
-13
-12
-10
-9
-7
-6
-6
-5
-6
-7
-8
-9
-10
-10
-10
-10
-9
-7
-6
-5
-4
-4
-4
-5
-7
-9
-11
-13
-14
-15
-15
-14
-14
-13
-12
-12
-12
-12
-13
-14
-14
-14
-14
-14
-13
-13
-12
-12
-11
-11
-10
-10
-11
-11
-12
-12
-12
-11
-8
-2
8
21
37
57
77
97
115
128
134
133
123
105
80
50
18
-12
-40
-62
-78
-88
-91
-88
-83
-75
-66
-58
-51
-45
-39
-34
-29
-24
-19
-15
-12
-10
-10
-10
-10
-11
-11
-11
-9
-8
-5
-3
-2
-2
-2
-3
-4
-5
-5
-4
-3
-1
1
2
4
4
4
3
3
2
2
3
3
5
6
7
7
8
8
8
9
9
10
11
12
13
14
14
15
15
15
15
16
18
20
24
27
30
32
34
35
35
35
34
34
34
34
35
35
35
35
35
34
34
33
33
33
34
34
34
33
32
30
28
26
23
21
19
16
14
11
8
5
1
-1
-4
-5
-6
-7
-7
-7
-8
-9
-10
-11
-11
-12
-11
-11
-11
-10
-10
-11
-12
-13
-13
-14
-14
-14
-13
-11
-10
-9
-8
-8
-9
-10
-11
-12
-12
-13
-12
-12
-12
-12
-12
-13
-14
-16
-17
-18
-18
-17
-16
-14
-12
-10
-9
-9
-10
-12
-14
-15
-15
-13
-11
-8
-6
-5
-5
-6
-9
-11
-14
-16
-16
-15
-13
-11
-8
-7
-7
-7
-9
-10
-11
-12
-12
-12
-12
-12
-13
-14
-15
-16
-16
-15
-13
-11
-9
-8
-8
-9
-11
-13
-16
-17
-18
-18
-18
-16
-15
-14
-13
-14
-15
-17
-18
-18
-18
-16
-14
-11
-8
-7
-6
-6
-8
-11
-13
-15
-16
-16
-13
-10
-6
-3
0
1
1
-1
-4
-7
-10
-12
-13
-13
-13
-13
-13
-14
-15
-18
-20
-21
-22
-22
-21
-19
-17
-16
-16
-16
-18
-19
-20
-21
-21
-20
-18
-16
-15
-14
-14
-13
-12
-10
-5
4
16
32
51
71
92
110
124
132
133
125
109
86
57
26
-5
-33
-57
-74
-85
-89
-88
-83
-77
-69
-62
-56
-50
-45
-40
-35
-29
-24
-18
-14
-11
-9
-8
-9
-10
-10
-11
-10
-9
-8
-6
-4
-3
-2
-2
-2
-2
-3
-3
-4
-4
-4
-3
-2
-1
1
3
4
6
7
8
8
8
7
7
6
6
5
5
6
6
7
8
9
10
11
12
13
14
15
17
18
20
21
23
24
26
28
29
31
33
35
36
37
38
38
37
37
37
37
37
38
38
39
40
39
38
36
34
30
27
25
23
22
22
22
22
22
21
19
15
11
7
3
-1
-3
-4
-4
-4
-3
-3
-4
-5
-8
-11
-14
-16
-18
-19
-18
-17
-15
-13
-12
-11
-11
-12
-13
-13
-14
-14
-13
-13
-12
-12
-12
-13
-14
-14
-14
-13
-13
-11
-10
-9
-9
-10
-11
-12
-13
-14
-15
-15
-14
-13
-12
-10
-8
-7
-5
-4
-4
-4
-4
-5
-6
-7
-9
-10
-10
-11
-10
-10
-9
-9
-9
-9
-10
-11
-12
-14
-14
-15
-14
-14
-12
-11
-10
-9
-8
-8
-9
-10
-11
-12
-13
-13
-13
-12
-11
-10
-9
-8
-7
-7
-8
-9
-10
-11
-11
-11
-10
-8
-6
-5
-4
-4
-4
-5
-7
-9
-10
-10
-10
-9
-7
-5
-3
-2
0
0
-1
-3
-5
-7
-9
-11
-12
-12
-11
-9
-8
-7
-6
-7
-9
-11
-13
-14
-15
-14
-13
-11
-9
-8
-8
-10
-12
-15
-17
-17
-17
-14
-11
-7
-2
2
6
10
17
26
38
54
72
91
108
121
127
124
113
92
66
36
5
-23
-46
-63
-73
-78
-77
-74
-69
-63
-58
-53
-48
-44
-39
-34
-29
-23
-19
-14
-11
-8
-6
-5
-4
-3
-2
-1
1
2
2
3
3
3
2
2
1
1
2
2
3
5
6
8
10
11
12
13
14
14
14
14
14
13
13
12
12
12
13
13
14
15
16
17
18
20
21
23
25
27
29
30
32
33
34
34
35
35
35
36
38
39
40
42
43
43
43
43
42
40
39
39
39
39
40
41
42
42
42
41
39
37
34
31
29
26
24
23
22
20
18
16
13
9
5
1
-3
-5
-7
-7
-6
-5
-4
-4
-4
-5
-7
-9
-11
-12
-12
-11
-10
-9
-9
-9
-10
-12
-14
-15
-15
-15
-13
-11
-10
-9
-9
-11
-13
-15
-16
-17
-16
-14
-11
-8
-6
-4
-4
-5
-6
-8
-9
-9
-9
-8
-6
-5
-4
-5
-6
-7
-9
-10
-11
-11
-10
-9
-8
-7
-7
-7
-8
-9
-9
-9
-9
-9
-9
-9
-9
-10
-11
-11
-12
-13
-13
-13
-12
-11
-10
-9
-9
-8
-8
-9
-9
-9
-9
-9
-8
-8
-7
-6
-6
-6
-6
-7
-9
-10
-11
-12
-12
-12
-11
-10
-9
-9
-9
-9
-10
-10
-11
-11
-11
-11
-11
-11
-11
-11
-12
-12
-12
-12
-10
-8
-6
-3
-1
0
0
0
-2
-4
-6
-8
-9
-10
-10
-9
-9
-8
-8
-8
-8
-9
-11
-13
-15
-16
-16
-15
-14
-12
-10
-8
-7
-7
-8
-10
-11
-13
-14
-14
-13
-11
-9
-8
-7
-6
-5
-3
2
11
24
42
63
86
108
126
139
143
138
124
101
73
42
10
-20
-45
-63
-76
-82
-83
-80
-75
-68
-61
-55
-48
-42
-36
-30
-25
-19
-14
-10
-7
-5
-4
-4
-5
-5
-5
-5
-4
-4
-3
-3
-3
-3
-4
-4
-4
-3
-2
0
1
2
3
4
4
5
5
6
7
8
8
9
8
8
7
7
7
8
10
13
15
17
18
19
19
18
17
17
17
18
20
22
24
26
28
29
30
30
31
31
33
34
35
36
37
38
39
39
39
38
38
38
38
38
38
38
38
38
38
38
37
35
32
29
25
21
18
15
12
11
10
9
9
8
7
5
4
1
-1
-3
-5
-7
-9
-10
-12
-13
-14
-15
-15
-15
-14
-13
-11
-10
-10
-10
-11
-13
-15
-16
-18
-18
-17
-16
-13
-11
-9
-9
-9
-10
-12
-15
-16
-17
-17
-16
-14
-11
-9
-8
-7
-8
-8
-10
-11
-12
-12
-12
-12
-12
-13
-13
-14
-15
-15
-15
-15
-14
-13
-12
-12
-12
-13
-14
-15
-15
-15
-14
-12
-11
-9
-8
-8
-9
-10
-11
-12
-12
-12
-12
-11
-10
-9
-9
-10
-11
-12
-12
-13
-13
-12
-12
-11
-11
-12
-12
-13
-14
-15
-15
-15
-15
-15
-16
-16
-17
-18
-18
-18
-18
-17
-15
-14
-12
-12
-12
-12
-14
-15
-16
-16
-16
-15
-13
-12
-11
-11
-11
-13
-14
-16
-16
-16
-15
-12
-10
-7
-6
-5
-5
-6
-6
-7
-7
-6
-5
-3
-1
-1
-1
-2
-4
-7
-10
-13
-15
-16
-16
-16
-16
-15
-15
-15
-14
-14
-13
-13
-12
-12
-12
-12
-12
-12
-12
-12
-12
-11
-10
-10
-9
-10
-11
-12
-13
-13
-13
-10
-5
2
13
26
42
60
79
97
113
125
130
128
118
100
76
47
17
-13
-39
-59
-74
-82
-85
-83
-78
-72
-65
-58
-51
-44
-38
-32
-26
-20
-15
-11
-9
-8
-8
-9
-10
-11
-12
-12
-10
-9
-6
-4
-2
-1
0
1
1
1
2
2
3
4
4
5
5
5
5
4
4
4
4
4
4
4
5
5
6
7
9
11
13
15
16
16
16
15
14
13
12
13
16
19
23
27
30
33
34
34
33
32
31
32
33
35
37
38
39
39
38
37
35
34
34
34
35
36
37
38
38
37
36
34
32
30
29
27
24
22
19
16
14
11
8
6
4
2
0
-1
-3
-4
-6
-7
-8
-9
-10
-11
-11
-11
-11
-11
-11
-11
-11
-11
-11
-11
-11
-11
-11
-11
-11
-11
-11
-11
-11
-10
-10
-10
-10
-10
-10
-10
-10
-11
-11
-11
-12
-12
-12
-12
-11
-11
-11
-10
-10
-9
-9
-8
-8
-7
-7
-6
-6
-5
-5
-5
-5
-5
-6
-6
-7
-7
-8
-9
-9
-9
-9
-9
-8
-8
-7
-7
-7
-7
-7
-7
-6
-6
-5
-4
-4
-5
-6
-8
-11
-13
-15
-15
-15
-13
-11
-8
-7
-6
-6
-8
-10
-12
-13
-14
-13
-12
-11
-10
-9
-9
-9
-9
-10
-10
-11
-11
-11
-12
-13
-14
-15
-16
-16
-15
-13
-11
-8
-5
-3
-1
-1
-2
-3
-5
-6
-6
-5
-4
-2
-1
0
0
-1
-3
-6
-9
-11
-13
-14
-14
-13
-12
-11
-10
-9
-9
-9
-10
-10
-10
-9
-8
-7
-7
-6
-7
-7
-9
-10
-11
-12
-12
-11
-9
-8
-7
-7
-7
-6
-3
3
12
26
44
66
87
107
123
131
131
122
104
79
51
21
-6
-30
-49
-62
-70
-73
-74
-72
-68
-64
-59
-53
-47
-40
-33
-27
-21
-16
-13
-10
-9
-8
-7
-7
-6
-5
-4
-2
-1
-1
0
0
-1
-1
-1
-1
0
0
1
2
2
2
2
3
3
4
5
5
6
6
6
6
6
6
6
6
7
8
10
11
13
14
16
17
19
20
21
22
23
23
23
23
23
23
24
25
27
29
31
34
35
37
38
39
39
40
40
41
41
40
39
37
35
34
33
33
34
36
39
40
41
40
37
33
27
22
17
13
11
10
10
10
11
10
9
7
4
1
-1
-3
-4
-5
-6
-7
-9
-11
-13
-14
-15
-15
-15
-14
-12
-11
-10
-10
-10
-10
-10
-11
-11
-10
-10
-9
-9
-9
-10
-12
-14
-16
-18
-18
-18
-17
-15
-13
-10
-9
-7
-7
-8
-8
-9
-10
-10
-10
-9
-9
-8
-8
-9
-9
-10
-10
-10
-10
-10
-9
-9
-9
-10
-12
-13
-14
-14
-13
-12
-10
-8
-6
-5
-5
-6
-8
-9
-11
-12
-12
-12
-11
-9
-8
-7
-7
-7
-7
-7
-8
-8
-9
-9
-10
-11
-13
-14
-15
-17
-17
-18
-18
-17
-17
-16
-16
-15
-14
-13
-12
-11
-11
-10
-10
-9
-10
-10
-11
-11
-11
-12
-12
-12
-12
-13
-13
-13
-13
-13
-12
-11
-10
-8
-6
-4
-2
-1
0
0
0
-2
-4
-7
-10
-12
-14
-15
-15
-14
-13
-11
-9
-8
-8
-8
-9
-11
-12
-13
-13
-13
-12
-12
-11
-10
-9
-9
-9
-9
-9
-10
-10
-10
-10
-9
-7
-3
4
14
28
46
65
86
105
121
132
136
131
119
99
73
44
14
-15
-40
-60
-73
-81
-83
-81
-77
-70
-63
-56
-49
-43
-37
-30
-24
-18
-13
-9
-7
-6
-6
-7
-9
-10
-10
-9
-7
-4
-1
1
2
3
2
1
0
-2
-3
-3
-2
-1
1
3
5
7
9
10
10
9
8
6
4
2
1
1
2
5
8
13
17
21
24
25
24
23
20
18
16
16
16
18
21
24
27
29
30
31
31
30
30
30
32
34
36
38
40
41
41
40
39
37
35
33
33
33
35
36
37
37
37
36
34
31
29
26
23
20
18
15
12
9
6
3
1
-1
-2
-3
-4
-5
-6
-7
-9
-11
-12
-13
-14
-14
-14
-13
-13
-13
-14
-14
-15
-15
-16
-16
-15
-15
-15
-15
-15
-15
-15
-16
-16
-16
-16
-16
-16
-16
-16
-16
-15
-14
-13
-12
-11
-10
-10
-10
-11
-12
-13
-14
-14
-14
-12
-11
-9
-7
-6
-6
-6
-7
-9
-10
-11
-12
-12
-12
-12
-11
-11
-10
-10
-11
-11
-11
-12
-11
-11
-10
-8
-7
-6
-6
-6
-7
-8
-9
-11
-13
-14
-15
-16
-17
-17
-17
-16
-16
-15
-13
-12
-10
-9
-9
-9
-10
-11
-12
-13
-13
-12
-11
-10
-9
-8
-8
-9
-10
-10
-11
-10
-8
-6
-3
-1
1
1
0
-2
-5
-9
-12
-14
-16
-17
-17
-16
-15
-15
-14
-14
-14
-14
-15
-15
-15
-15
-15
-15
-15
-15
-14
-14
-13
-12
-11
-10
-8
-7
-5
-4
-3
-3
-3
-3
-4
-3
0
6
15
27
43
61
80
96
108
114
112
102
85
63
37
12
-12
-33
-48
-60
-67
-71
-73
-73
-73
-71
-68
-64
-58
-50
-42
-33
-25
-18
-12
-9
-7
-5
-5
-4
-3
-1
0
2
3
3
3
2
1
-1
-2
-2
-2
-1
1
2
4
5
6
7
8
8
8
9
9
8
8
9
9
10
11
13
14
16
17
18
18
18
17
17
17
18
19
21
23
25
27
28
28
29
29
30
32
33
35
37
39
39
39
39
38
37
37
37
38
40
42
44
46
47
47
45
43
41
38
35
33
31
30
28
27
25
23
21
18
15
12
9
6
3
0
-2
-4
-5
-7
-8
-9
-10
-11
-12
-13
-13
-14
-14
-14
-13
-12
-12
-10
-9
-8
-7
-7
-7
-7
-8
-10
-11
-13
-14
-14
-14
-12
-10
-8
-6
-5
-5
-5
-7
-9
-11
-13
-13
-13
-12
-10
-8
-7
-6
-6
-8
-9
-11
-12
-13
-13
-12
-11
-10
-10
-9
-9
-10
-11
-11
-11
-11
-10
-9
-8
-7
-7
-8
-10
-11
-13
-13
-13
-12
-11
-9
-7
-6
-6
-7
-8
-10
-11
-12
-13
-12
-11
-10
-9
-8
-8
-9
-10
-11
-12
-12
-12
-12
-11
-11
-10
-9
-9
-10
-10
-11
-11
-12
-12
-12
-11
-9
-7
-4
-2
0
1
1
-1
-3
-6
-9
-11
-12
-12
-11
-10
-9
-9
-10
-11
-13
-15
-17
-17
-16
-14
-11
-9
-8
-7
-8
-10
-13
-14
-16
-16
-14
-13
-10
-9
-7
-7
-8
-9
-9
-8
-4
3
14
28
45
65
84
103
117
126
128
121
107
86
60
31
2
-25
-47
-64
-75
-81
-82
-80
-75
-70
-64
-57
-51
-44
-38
-31
-25
-20
-16
-13
-12
-11
-11
-10
-10
-8
-7
-4
-2
0
2
3
4
3
2
1
0
-1
-1
0
1
2
4
5
6
6
6
5
5
4
5
6
7
9
10
11
11
10
9
8
7
7
7
9
11
13
16
18
20
21
23
24
25
26
28
28
29
30
30
30
30
31
32
34
36
39
41
43
44
44
43
42
41
40
39
39
39
39
39
38
37
34
31
28
24
20
16
13
11
9
7
6
5
3
1
-1
-3
-5
-7
-8
-9
-10
-10
-11
-12
-14
-16
-17
-19
-20
-19
-19
-17
-16
-14
-14
-13
-14
-15
-17
-18
-19
-19
-18
-16
-14
-12
-10
-7
-6
-5
-5
-5
-6
-7
-9
-10
-11
-12
-12
-12
-11
-11
-10
-9
-10
-10
-11
-12
-13
-13
-12
-12
-11
-10
-10
-10
-10
-10
-11
-11
-11
-10
-9
-8
-7
-7
-8
-10
-12
-14
-15
-16
-15
-14
-12
-10
-8
-7
-6
-7
-8
-10
-11
-12
-13
-13
-13
-13
-13
-13
-13
-13
-13
-13
-13
-12
-12
-11
-10
-9
-8
-8
-8
-9
-10
-12
-13
-13
-13
-12
-11
-10
-8
-7
-6
-6
-6
-7
-8
-8
-8
-8
-7
-5
-4
-2
-2
-1
-2
-4
-6
-9
-11
-14
-16
-17
-17
-16
-14
-12
-10
-9
-8
-8
-9
-10
-11
-12
-12
-12
-12
-12
-12
-12
-12
-13
-14
-15
-15
-14
-13
-11
-7
-3
2
9
17
27
40
56
74
93
110
124
133
133
126
109
85
56
25
-6
-33
-55
-69
-78
-80
-79
-74
-69
-63
-57
-52
-47
-41
-34
-27
-19
-12
-7
-3
-1
-1
-2
-4
-5
-6
-6
-4
-2
0
1
2
2
0
-1
-2
-3
-2
-1
1
3
5
7
8
8
8
8
8
8
8
8
9
9
10
10
9
9
8
8
8
8
9
10
12
13
15
17
19
22
23
25
27
28
28
29
30
31
33
34
35
37
38
38
38
38
37
37
36
36
37
37
38
39
40
40
40
40
38
37
35
32
30
28
26
24
22
21
19
17
14
11
7
3
-1
-5
-7
-8
-8
-7
-5
-3
-1
0
0
-1
-2
-4
-6
-8
-10
-10
-11
-11
-11
-11
-11
-11
-12
-12
-13
-13
-13
-13
-12
-11
-10
-10
-9
-9
-9
-9
-10
-10
-10
-10
-10
-9
-9
-9
-9
-10
-11
-12
-13
-14
-14
-14
-13
-12
-11
-11
-11
-11
-12
-12
-13
-13
-12
-11
-9
-7
-5
-4
-3
-3
-4
-5
-6
-8
-9
-10
-11
-11
-11
-11
-10
-10
-10
-11
-12
-13
-14
-15
-15
-14
-12
-10
-8
-6
-5
-6
-7
-9
-11
-14
-16
-17
-17
-17
-16
-15
-13
-11
-10
-9
-8
-8
-9
-10
-12
-14
-16
-18
-19
-19
-19
-17
-14
-11
-8
-6
-5
-4
-4
-5
-5
-5
-5
-4
-4
-5
-6
-7
-10
-12
-14
-15
-16
-15
-14
-12
-10
-9
-8
-8
-9
-11
-12
-14
-15
-16
-15
-14
-13
-11
-9
-8
-7
-7
-8
-9
-9
-9
-6
1
11
25
42
62
82
101
116
126
127
121
107
86
60
31
2
-25
-48
-66
-78
-85
-87
-86
-81
-75
-67
-59
-50
-42
-34
-26
-19
-13
-8
-5
-4
-4
-4
-5
-5
-5
-5
-4
-3
-3
-3
-3
-4
-5
-6
-5
-4
-2
0
2
3
3
3
2
1
-1
-1
-1
1
2
4
6
8
8
9
8
8
8
8
9
10
12
14
16
17
19
21
22
23
23
23
22
21
21
20
21
23
25
28
31
34
37
38
39
39
39
38
38
38
38
39
39
40
40
40
39
39
39
38
38
37
36
34
31
28
25
22
18
16
13
11
10
8
7
6
5
3
1
-1
-3
-6
-8
-11
-13
-14
-15
-16
-15
-14
-13
-12
-11
-11
-11
-11
-12
-14
-15
-15
-16
-16
-16
-16
-15
-14
-13
-12
-11
-9
-8
-6
-6
-6
-6
-8
-9
-12
-13
-15
-15
-15
-14
-12
-9
-7
-5
-5
-5
-6
-7
-10
-12
-14
-15
-15
-15
-14
-12
-11
-10
-9
-8
-8
-8
-9
-8
-8
-8
-7
-7
-8
-9
-10
-12
-13
-14
-13
-12
-10
-8
-6
-4
-4
-5
-7
-9
-11
-12
-12
-12
-11
-9
-8
-8
-9
-11
-12
-14
-15
-15
-14
-13
-11
-10
-10
-11
-12
-14
-15
-16
-16
-15
-13
-11
-9
-8
-7
-7
-8
-8
-7
-6
-3
0
3
5
6
4
0
-5
-11
-16
-19
-21
-20
-18
-15
-11
-8
-7
-6
-7
-9
-11
-13
-14
-15
-15
-14
-14
-13
-13
-13
-13
-13
-13
-13
-12
-12
-12
-11
-11
-9
-6
-1
7
19
34
52
71
91
109
123
131
132
124
108
86
58
27
-3
-32
-56
-74
-86
-91
-90
-84
-76
-66
-55
-46
-38
-31
-27
-23
-20
-18
-15
-13
-10
-7
-4
-2
-1
-1
-2
-4
-6
-8
-10
-11
-11
-9
-7
-5
-3
-1
0
1
1
1
1
2
3
3
4
5
5
4
3
3
2
2
3
4
6
7
9
10
10
10
10
11
12
13
15
18
20
22
24
25
25
26
27
28
29
31
33
34
35
36
37
37
37
37
38
38
39
40
40
40
40
39
39
38
37
37
36
35
33
30
27
23
19
15
12
10
9
8
7
7
6
4
1
-2
-6
-9
-11
-12
-12
-10
-9
-7
-6
-6
-7
-8
-10
-12
-14
-15
-16
-16
-16
-15
-14
-14
-14
-14
-13
-13
-12
-11
-10
-10
-10
-11
-13
-15
-17
-18
-19
-18
-16
-14
-12
-11
-11
-11
-12
-14
-15
-15
-14
-13
-11
-9
-7
-6
-6
-6
-7
-8
-9
-9
-9
-9
-9
-9
-9
-10
-11
-12
-13
-13
-12
-11
-9
-7
-5
-4
-4
-5
-7
-9
-11
-12
-13
-13
-12
-11
-10
-9
-9
-10
-11
-13
-14
-14
-13
-12
-9
-7
-6
-6
-7
-10
-12
-15
-16
-16
-14
-11
-8
-5
-4
-4
-6
-8
-11
-14
-14
-13
-10
-6
-2
1
3
3
1
-2
-6
-9
-11
-12
-11
-10
-8
-6
-6
-7
-9
-11
-14
-16
-17
-17
-16
-15
-14
-14
-13
-14
-14
-14
-13
-12
-10
-8
-5
-4
-3
-4
-5
-8
-10
-12
-12
-9
-2
8
23
40
60
81
100
116
126
130
125
112
92
66
37
7
-22
-46
-64
-76
-82
-83
-80
-74
-68
-62
-56
-51
-46
-41
-35
-29
-24
-18
-14
-11
-9
-8
-7
-7
-7
-6
-4
-2
0
2
3
3
3
2
0
0
-1
0
2
3
5
6
7
7
6
5
4
3
2
3
3
5
6
8
9
11
12
13
14
15
16
17
17
17
18
18
18
18
18
19
20
22
23
25
27
28
30
31
32
32
32
33
33
34
35
37
39
42
44
46
47
47
46
45
43
40
38
36
34
33
31
29
27
24
21
18
16
13
11
10
8
7
6
4
1
-1
-4
-7
-10
-12
-12
-13
-12
-11
-10
-9
-9
-9
-11
-13
-16
-19
-21
-22
-22
-21
-20
-17
-15
-13
-12
-12
-12
-14
-15
-16
-16
-16
-14
-12
-10
-7
-5
-4
-4
-4
-5
-7
-8
-10
-11
-11
-11
-11
-10
-10
-10
-9
-9
-10
-10
-11
-11
-12
-12
-11
-11
-10
-9
-8
-8
-8
-8
-9
-10
-10
-11
-12
-12
-12
-12
-12
-12
-12
-12
-12
-11
-11
-11
-10
-10
-9
-9
-8
-8
-7
-7
-6
-5
-5
-5
-5
-6
-7
-8
-9
-10
-10
-10
-10
-9
-9
-9
-9
-10
-11
-12
-14
-15
-15
-15
-14
-13
-12
-11
-11
-12
-13
-14
-14
-14
-13
-10
-7
-3
0
3
4
3
1
-1
-5
-8
-10
-12
-12
-12
-11
-10
-10
-9
-9
-9
-8
-8
-7
-7
-8
-9
-11
-13
-15
-16
-16
-15
-14
-11
-9
-7
-6
-7
-9
-11
-13
-12
-8
0
14
32
54
77
101
121
135
142
140
128
108
82
51
20
-10
-35
-55
-68
-76
-79
-78
-74
-70
-65
-60
-54
-47
-40
-33
-25
-18
-12
-8
-6
-5
-6
-7
-9
-10
-10
-10
-9
-8
-7
-6
-4
-3
-2
0
1
3
3
3
2
1
0
-1
-2
-1
1
4
7
11
14
16
16
16
15
13
11
10
8
8
8
9
11
13
15
18
20
22
23
24
25
25
26
27
28
29
30
32
34
35
37
38
39
39
38
38
37
36
36
36
37
38
40
42
43
44
43
42
39
35
31
28
25
24
23
23
23
23
21
19
15
11
6
2
-1
-3
-4
-5
-5
-6
-7
-8
-9
-10
-10
-10
-9
-9
-8
-7
-7
-7
-8
-8
-8
-8
-8
-8
-8
-8
-8
-9
-10
-12
-13
-13
-14
-13
-12
-11
-11
-10
-11
-12
-13
-15
-16
-16
-17
-16
-15
-14
-13
-11
-10
-9
-9
-8
-8
-8
-9
-9
-9
-9
-9
-8
-8
-7
-7
-6
-6
-5
-5
-5
-5
-6
-6
-7
-8
-9
-10
-11
-12
-12
-13
-13
-13
-13
-13
-12
-12
-12
-12
-13
-13
-14
-15
-15
-15
-14
-13
-11
-9
-7
-6
-5
-6
-7
-8
-10
-11
-12
-11
-10
-9
-8
-7
-7
-8
-9
-11
-12
-12
-11
-10
-8
-5
-3
-2
-2
-3
-6
-8
-10
-12
-12
-12
-12
-10
-10
-9
-9
-10
-11
-12
-14
-15
-16
-16
-16
-15
-15
-14
-13
-13
-12
-12
-12
-13
-13
-13
-13
-12
-11
-10
-9
-8
-7
-6
-4
-2
2
8
18
31
48
66
85
102
115
122
122
113
97
75
48
20
-8
-33
-53
-68
-77
-81
-81
-77
-72
-65
-59
-52
-47
-41
-37
-32
-28
-23
-18
-14
-9
-6
-3
-2
-2
-3
-4
-6
-8
-9
-9
-8
-6
-2
1
5
7
9
10
9
8
7
6
5
5
6
7
8
10
11
12
12
11
10
9
8
7
7
7
8
9
11
12
14
15
16
16
16
17
18
20
22
25
28
31
32
33
33
32
31
31
33
35
37
40
43
44
45
44
42
40
39
39
41
43
45
47
48
46
43
39
34
29
25
21
19
17
15
14
11
9
6
3
1
-1
-3
-3
-4
-5
-7
-9
-11
-14
-16
-18
-19
-20
-19
-19
-18
-17
-16
-15
-14
-13
-13
-12
-12
-11
-11
-12
-12
-13
-14
-15
-16
-17
-18
-19
-19
-19
-17
-16
-13
-11
-8
-7
-6
-6
-7
-8
-11
-13
-15
-16
-16
-16
-15
-13
-11
-9
-8
-8
-8
-9
-11
-14
-16
-18
-20
-20
-19
-18
-16
-15
-13
-13
-13
-14
-15
-16
-16
-15
-14
-12
-10
-8
-7
-7
-9
-11
-13
-16
-17
-18
-17
-15
-13
-10
-9
-7
-7
-8
-10
-12
-14
-15
-16
-16
-16
-15
-14
-13
-13
-12
-12
-12
-12
-12
-12
-12
-11
-11
-11
-12
-13
-14
-16
-17
-17
-17
-16
-14
-11
-7
-4
-1
1
1
1
-1
-3
-7
-10
-13
-15
-17
-18
-19
-18
-18
-17
-15
-14
-13
-13
-12
-13
-13
-14
-15
-16
-17
-17
-17
-16
-15
-13
-11
-10
-9
-9
-9
-10
-11
-11
-10
-5
5
18
36
58
81
104
123
137
142
138
124
103
75
43
11
-18
-43
-63
-76
-83
-86
-84
-80
-74
-66
-58
-50
-42
-34
-27
-22
-18
-15
-14
-13
-12
-12
-11
-9
-6
-3
0
2
4
5
5
5
4
3
2
1
0
0
0
-1
-1
-2
-3
-3
-3
-2
-1
0
1
3
4
4
4
4
5
5
6
9
12
15
19
22
24
26
26
25
24
22
22
22
23
24
26
29
31
32
34
34
35
35
35
36
37
38
40
42
43
44
45
45
44
43
41
39
37
35
34
33
33
33
33
33
33
32
31
28
25
22
18
14
10
7
4
1
-2
-4
-6
-8
-9
-10
-11
-11
-10
-10
-8
-8
-7
-7
-7
-8
-9
-10
-11
-13
-13
-14
-14
-15
-15
-16
-16
-17
-18
-18
-17
-17
-15
-13
-12
-11
-10
-10
-11
-12
-14
-15
-15
-15
-14
-12
-10
-8
-8
-7
-8
-9
-11
-12
-13
-13
-13
-12
-11
-10
-9
-9
-9
-9
-9
-9
-9
-9
-9
-9
-10
-10
-11
-12
-13
-13
-13
-12
-12
-11
-10
-10
-9
-9
-9
-9
-9
-10
-10
-11
-11
-12
-12
-12
-12
-11
-10
-9
-7
-7
-6
-6
-7
-8
-9
-10
-11
-11
-11
-11
-11
-10
-10
-9
-9
-9
-10
-10
-10
-11
-11
-11
-11
-11
-10
-10
-10
-10
-10
-11
-12
-12
-13
-13
-13
-12
-10
-9
-7
-6
-6
-7
-9
-11
-13
-15
-15
-14
-13
-10
-8
-5
-3
-2
-1
-1
0
0
2
3
4
5
6
6
4
2
-2
-5
-8
-10
-11
-12
-11
-10
-9
-8
-8
-8
-9
-10
-11
-12
-12
-11
-9
-7
-5
-3
-3
-3
-4
-5
-6
-6
-7
-6
-6
-4
-2
2
7
15
25
37
52
69
87
103
116
124
125
120
107
88
65
38
11
-14
-36
-53
-65
-72
-74
-73
-68
-62
-56
-48
-42
-35
-29
-24
-18
-13
-9
-5
-2
-1
0
-1
-2
-3
-5
-5
-4
-2
1
4
7
10
11
11
10
8
6
4
4
5
7
10
13
15
16
16
15
13
10
8
7
7
9
12
14
17
19
19
18
17
14
12
11
11
12
15
18
21
24
26
28
29
29
30
31
32
34
36
39
41
43
45
46
46
45
44
42
41
39
38
37
38
39
41
44
46
49
50
50
48
44
40
35
30
26
24
22
21
20
19
17
14
10
5
0
-4
-6
-8
-7
-6
-4
-2
0
0
0
-1
-3
-5
-6
-8
-10
-10
-11
-11
-11
-11
-11
-11
-10
-10
-9
-9
-8
-8
-7
-7
-7
-7
-8
-8
-9
-10
-12
-13
-13
-14
-13
-13
-12
-10
-9
-7
-6
-5
-4
-4
-4
-4
-5
-6
-8
-9
-11
-12
-13
-13
-12
-11
-9
-6
-3
-2
-1
-1
-3
-5
-8
-11
-13
-14
-14
-13
-11
-10
-8
-7
-8
-8
-10
-11
-11
-11
-11
-9
-8
-6
-5
-5
-5
-7
-8
-9
-10
-10
-10
-9
-8
-8
-8
-8
-9
-11
-12
-13
-13
-13
-13
-12
-12
-12
-12
-12
-13
-13
-14
-14
-13
-13
-12
-12
-12
-12
-13
-13
-14
-15
-15
-15
-15
-14
-14
-13
-12
-11
-10
-10
-10
-10
-11
-11
-12
-13
-13
-14
-14
-14
-14
-14
-14
-15
-15
-15
-16
-15
-15
-14
-13
-12
-11
-10
-10
-11
-11
-12
-13
-13
-13
-13
-11
-10
-8
-6
-5
-4
-3
-4
-6
-9
-11
-13
-15
-16
-15
-14
-13
-13
-13
-14
-15
-16
-18
-18
-17
-15
-12
-9
-6
-5
-6
-7
-10
-12
-14
-15
-15
-14
-13
-11
-10
-10
-9
-6
0
9
22
40
61
84
105
122
133
136
130
116
95
68
38
8
-20
-44
-64
-77
-85
-87
-86
-81
-73
-65
-56
-47
-39
-31
-25
-21
-17
-15
-13
-11
-10
-9
-8
-7
-6
-5
-5
-4
-5
-5
-6
-6
-6
-5
-4
-3
-2
0
1
1
1
1
1
1
1
2
2
2
2
2
3
3
4
6
8
10
12
13
14
14
14
13
11
10
10
10
11
11
12
14
15
16
17
18
21
23
26
29
32
33
35
35
35
35
35
36
37
38
39
40
41
41
40
40
40
40
41
41
42
43
42
41
39
35
32
28
24
20
16
13
10
7
4
2
1
0
0
1
2
2
2
0
-2
-4
-7
-10
-13
-14
-15
-14
-13
-12
-12
-11
-11
-12
-12
-13
-14
-14
-14
-14
-13
-12
-10
-9
-8
-8
-9
-10
-12
-13
-14
-15
-15
-14
-13
-11
-10
-9
-9
-10
-11
-12
-13
-14
-13
-12
-10
-8
-6
-5
-5
-5
-6
-7
-7
-7
-7
-6
-6
-5
-5
-6
-7
-8
-9
-10
-11
-11
-10
-9
-8
-7
-6
-5
-5
-5
-5
-6
-6
-6
-7
-8
-9
-10
-11
-12
-13
-13
-13
-12
-12
-11
-11
-11
-12
-12
-13
-13
-12
-12
-11
-10
-10
-10
-12
-13
-15
-17
-18
-17
-16
-13
-10
-6
-4
-2
-1
-2
-3
-4
-6
-7
-8
-9
-10
-11
-12
-13
-13
-14
-13
-12
-10
-7
-5
-3
-2
-2
-3
-5
-7
-9
-10
-12
-12
-13
-12
-11
-10
-9
-7
-6
-4
-3
-3
-3
-5
-6
-8
-10
-12
-13
-13
-12
-11
-9
-6
-4
-2
-1
-1
-1
-1
-2
-3
-4
-4
-4
-3
-2
-1
1
2
3
3
2
1
-1
-2
-4
-5
-6
-6
-7
-7
-8
-9
-10
-11
-12
-12
-12
-11
-10
-9
-8
-7
-6
-6
-6
-6
-6
-6
-5
-4
-3
-2
-1
0
0
1
1
3
7
14
24
39
56
75
94
110
122
126
122
110
90
65
37
8
-18
-39
-55
-66
-71
-72
-70
-66
-61
-55
-50
-44
-39
-33
-28
-24
-20
-17
-14
-11
-9
-6
-4
-2
0
1
2
2
2
2
3
4
5
7
8
9
9
9
8
6
5
4
4
4
5
6
7
7
8
8
8
9
9
10
12
13
14
14
14
13
12
11
10
11
12
14
17
19
22
25
27
29
30
31
32
33
34
35
35
35
35
36
37
38
40
42
44
45
46
46
45
43
40
37
35
34
35
37
39
42
44
45
44
41
36
31
26
21
16
14
12
11
11
11
11
10
8
6
4
1
-2
-5
-7
-9
-11
-12
-13
-12
-12
-11
-9
-8
-7
-6
-7
-8
-9
-10
-12
-13
-14
-15
-16
-17
-18
-19
-19
-19
-18
-16
-14
-11
-9
-7
-5
-5
-6
-7
-8
-10
-10
-10
-10
-9
-8
-7
-6
-5
-4
-4
-4
-5
-6
-7
-8
-10
-11
-12
-13
-13
-13
-12
-10
-9
-8
-8
-8
-9
-10
-12
-12
-13
-12
-11
-10
-8
-6
-4
-2
-2
-2
-3
-5
-8
-11
-14
-16
-19
-20
-20
-19
-18
-15
-13
-11
-9
-8
-7
-7
-7
-8
-9
-10
-10
-10
-10
-10
-9
-9
-9
-9
-10
-11
-12
-13
-14
-15
-15
-15
-15
-13
-12
-11
-10
-9
-8
-7
-7
-7
-7
-8
-9
-9
-10
-11
-12
-12
-13
-12
-12
-11
-11
-10
-9
-9
-9
-9
-10
-10
-11
-12
-12
-13
-13
-13
-13
-13
-12
-12
-12
-11
-11
-11
-10
-10
-9
-8
-6
-4
-3
-1
-1
-1
-1
-2
-3
-4
-5
-5
-6
-6
-6
-7
-8
-9
-10
-12
-13
-13
-13
-12
-11
-11
-11
-11
-12
-13
-14
-14
-15
-14
-14
-13
-12
-11
-11
-11
-11
-10
-9
-8
-4
1
9
20
34
50
68
87
105
120
129
131
126
113
92
66
37
7
-21
-45
-63
-76
-82
-83
-80
-74
-66
-58
-50
-42
-35
-28
-23
-18
-14
-11
-9
-8
-8
-8
-9
-10
-10
-10
-8
-6
-2
1
4
6
6
6
5
4
3
3
3
4
6
7
8
8
7
5
2
0
-1
0
3
6
11
15
18
19
19
17
15
12
10
9
10
12
15
18
20
23
24
25
25
25
26
27
29
31
33
34
36
36
37
38
39
41
43
45
47
48
48
46
44
42
39
38
37
38
39
41
43
44
43
40
37
32
28
24
21
20
20
21
21
20
18
15
10
4
-1
-5
-8
-9
-9
-8
-7
-6
-6
-7
-8
-9
-10
-10
-10
-9
-8
-8
-8
-8
-10
-12
-13
-15
-15
-15
-14
-13
-11
-10
-9
-9
-9
-10
-12
-13
-15
-16
-16
-16
-16
-14
-13
-11
-9
-8
-7
-7
-8
-9
-10
-11
-12
-13
-13
-12
-11
-10
-8
-6
-5
-4
-4
-4
-5
-7
-9
-10
-11
-12
-11
-10
-8
-7
-5
-4
-4
-5
-6
-7
-9
-10
-11
-11
-12
-12
-13
-13
-14
-14
-14
-14
-13
-11
-9
-8
-7
-6
-6
-7
-8
-9
-11
-12
-13
-14
-14
-14
-14
-13
-12
-11
-10
-9
-8
-8
-7
-7
-8
-8
-9
-9
-10
-10
-11
-12
-12
-13
-14
-15
-15
-14
-13
-11
-9
-7
-6
-5
-6
-8
-10
-12
-13
-14
-15
-14
-13
-12
-11
-10
-9
-7
-6
-5
-4
-3
-2
-2
-2
-3
-5
-6
-8
-10
-11
-12
-13
-14
-14
-15
-14
-14
-13
-12
-10
-9
-8
-8
-8
-9
-11
-12
-14
-14
-15
-14
-13
-12
-11
-10
-10
-9
-9
-8
-7
-4
1
7
16
28
43
59
77
95
111
122
127
124
112
93
67
36
5
-25
-50
-69
-82
-87
-87
-83
-77
-69
-62
-55
-49
-43
-38
-32
-27
-22
-18
-14
-10
-8
-6
-5
-4
-3
-2
-2
-1
-1
-1
-1
-2
-2
-3
-3
-3
-3
-3
-3
-2
-1
0
1
3
4
5
6
6
6
5
5
4
4
5
6
8
11
13
15
17
18
18
17
17
17
17
18
19
21
23
25
27
29
30
31
33
35
37
39
41
44
45
46
46
45
44
43
42
42
42
42
43
43
44
43
43
42
40
39
38
36
35
34
32
30
28
25
22
18
14
11
8
6
5
3
3
2
1
0
-2
-3
-6
-8
-9
-11
-12
-12
-13
-13
-14
-15
-16
-17
-17
-18
-17
-16
-15
-13
-12
-12
-13
-15
-17
-18
-19
-18
-16
-13
-9
-6
-3
-3
-4
-7
-11
-15
-18
-19
-18
-16
-13
-9
-7
-7
-7
-9
-12
-15
-17
-18
-18
-17
-15
-13
-11
-10
-10
-10
-11
-11
-12
-12
-12
-12
-12
-12
-11
-11
-11
-11
-10
-10
-10
-10
-10
-10
-10
-9
-9
-9
-9
-9
-9
-9
-10
-11
-11
-12
-13
-13
-12
-11
-10
-9
-9
-9
-9
-10
-12
-13
-15
-16
-17
-16
-15
-13
-11
-10
-9
-9
-9
-10
-11
-12
-12
-12
-12
-12
-11
-12
-13
-14
-15
-16
-16
-15
-13
-11
-9
-7
-6
-6
-7
-9
-11
-13
-14
-14
-14
-13
-12
-11
-11
-12
-13
-14
-15
-15
-14
-13
-11
-9
-8
-6
-5
-4
-3
-2
-2
-1
-1
-2
-3
-5
-8
-10
-12
-14
-15
-15
-14
-13
-12
-11
-11
-10
-10
-11
-10
-10
-10
-9
-8
-8
-8
-9
-10
-11
-13
-14
-15
-16
-16
-15
-13
-11
-7
-1
7
18
32
49
67
86
103
116
123
123
114
97
74
47
17
-11
-36
-56
-70
-78
-82
-81
-77
-72
-67
-61
-55
-50
-44
-39
-33
-27
-22
-17
-13
-10
-7
-6
-6
-6
-6
-7
-7
-7
-6
-6
-5
-4
-4
-5
-5
-6
-6
-5
-3
-1
2
5
7
9
9
8
5
2
-1
-2
-3
-1
2
5
9
13
15
16
16
16
15
14
14
14
16
17
19
21
22
23
24
25
26
27
28
30
31
32
33
33
33
33
34
34
36
37
39
40
42
42
42
42
42
42
42
42
42
42
41
40
39
36
33
30
28
25
23
21
19
17
14
11
7
3
-1
-4
-7
-8
-7
-6
-4
-3
-2
-3
-5
-8
-12
-15
-18
-19
-19
-18
-16
-14
-12
-11
-11
-11
-12
-13
-14
-15
-15
-14
-14
-13
-12
-11
-11
-10
-10
-11
-11
-12
-13
-15
-16
-17
-17
-16
-14
-12
-9
-6
-4
-4
-4
-6
-9
-12
-14
-15
-14
-12
-10
-7
-5
-3
-3
-4
-5
-7
-9
-10
-11
-10
-9
-7
-5
-3
-1
-1
0
-1
-2
-3
-5
-6
-8
-8
-9
-9
-9
-8
-8
-8
-8
-8
-8
-8
-8
-7
-7
-6
-6
-6
-6
-7
-8
-9
-9
-9
-8
-7
-5
-4
-3
-3
-3
-5
-7
-8
-10
-11
-11
-10
-9
-7
-6
-5
-5
-5
-6
-7
-8
-9
-9
-9
-8
-7
-6
-4
-3
-3
-4
-5
-6
-8
-9
-9
-9
-8
-7
-5
-3
-2
-2
-3
-4
-6
-8
-9
-10
-10
-8
-7
-5
-3
-2
-1
-1
-2
-2
-2
-1
1
2
4
5
5
3
1
-2
-5
-7
-8
-8
-6
-4
-1
0
0
-1
-4
-8
-12
-15
-16
-15
-12
-8
-3
1
5
6
6
4
2
-1
-3
-5
-6
-6
-6
-5
-3
0
6
15
27
42
60
79
96
111
121
124
120
108
90
66
39
11
-16
-39
-57
-70
-78
-80
-79
-74
-68
-60
-52
-45
-38
-32
-27
-22
-17
-13
-10
-7
-4
-2
0
1
1
2
2
1
1
1
0
0
0
1
2
3
5
7
8
9
9
8
7
6
5
5
6
7
9
11
13
14
15
15
14
13
13
12
13
14
15
17
19
20
22
23
24
24
25
26
27
29
30
32
33
35
36
37
38
39
39
40
41
42
43
45
46
48
49
50
51
51
51
51
50
50
49
48
46
45
43
41
39
37
35
34
32
31
30
28
26
23
20
16
12
8
5
2
0
-2
-3
-5
-6
-7
-9
-11
-12
-12
-12
-11
-9
-6
-4
-2
-2
-3
-5
-7
-10
-12
-14
-14
-14
-12
-10
-8
-6
-5
-4
-4
-5
-5
-6
-7
-8
-8
-9
-9
-10
-10
-10
-10
-9
-9
-8
-8
-8
-8
-8
-9
-9
-10
-11
-11
-11
-10
-10
-9
-8
-8
-8
-7
-7
-7
-6
-5
-5
-4
-4
-4
-4
-5
-5
-6
-6
-7
-7
-7
-6
-6
-6
-6
-6
-6
-7
-8
-9
-10
-11
-12
-12
-11
-11
-10
-8
-8
-7
-7
-7
-8
-9
-9
-10
-10
-9
-9
-8
-7
-6
-5
-5
-5
-6
-6
-6
-6
-6
-6
-5
-6
-6
-6
-7
-8
-9
-9
-9
-8
-7
-6
-4
-3
-2
-2
-2
-3
-5
-6
-7
-8
-8
-8
-8
-7
-6
-5
-5
-5
-5
-5
-6
-7
-7
-7
-7
-6
-5
-5
-4
-4
-4
-3
-3
-3
-3
-2
-2
-1
0
1
1
2
2
2
2
1
0
-2
-4
-6
-8
-10
-11
-11
-11
-11
-10
-10
-9
-8
-7
-6
-5
-4
-4
-4
-4
-5
-6
-8
-8
-9
-9
-8
-7
-5
-4
-2
0
2
7
13
24
38
55
74
94
113
126
134
133
124
107
83
56
27
-1
-25
-45
-59
-68
-73
-74
-72
-68
-63
-57
-49
-41
-33
-25
-17
