-9
-11
-11
-12
-11
-10
-8
-5
-2
2
4
6
7
6
5
2
-1
-4
-6
-8
-9
-10
-10
-10
-10
-10
-10
-10
-9
-7
-4
-1
2
5
6
6
4
1
-3
-7
-11
-13
-14
-13
-10
-6
-1
2
5
6
6
4
1
-3
-7
-10
-13
-15
-16
-16
-15
-13
-10
-7
-4
0
3
4
5
4
2
-2
-6
-9
-12
-14
-15
-14
-12
-10
-7
-5
-4
-3
-3
-3
-3
-4
-5
-7
-9
-11
-14
-16
-17
-18
-17
-14
-10
-5
-1
3
6
7
5
2
-2
-7
-12
-16
-18
-20
-20
-18
-17
-14
-12
-10
-8
-6
-5
-5
-4
-5
-5
-6
-6
-6
-6
-6
-5
-5
-5
-6
-6
-6
-6
-5
-3
-1
0
1
0
-3
-8
-14
-21
-28
-32
-33
-31
-25
-17
-9
-2
3
4
3
0
-5
-8
-10
-10
-7
-3
1
3
4
3
0
-4
-7
-7
-5
0
6
12
17
20
18
13
6
-2
-10
-15
-18
-18
-17
-14
-11
-10
-10
-11
-13
-14
-14
-13
-11
-8
-5
-3
-3
-5
-7
-10
-11
-11
-10
-7
-3
0
2
1
-2
-7
-12
-17
-21
-24
-24
-23
-22
-21
-20
-19
-17
-13
-4
11
31
56
85
115
142
164
177
181
174
158
136
110
83
58
38
22
11
5
2
1
2
3
4
5
6
7
8
8
6
4
0
-4
-9
-13
-16
-17
-17
-14
-11
-8
-5
-3
-3
-5
-8
-11
-13
-14
-13
-11
-7
-3
2
5
6
5
2
-2
-7
-11
-14
-14
-13
-9
-5
0
2
3
1
-1
-5
-8
-10
-10
-9
-5
-2
2
4
4
2
0
-4
-7
-8
-9
-8
-6
-3
0
3
6
9
11
12
12
11
10
7
3
0
-4
-6
-6
-4
1
7
13
19
24
26
25
23
19
14
12
11
13
18
25
33
41
46
49
50
47
42
37
31
28
26
26
28
32
37
41
44
45
46
44
42
40
38
36
35
36
36
37
38
38
37
36
34
31
29
26
25
23
22
22
21
20
19
17
15
13
11
9
7
4
1
-2
-7
-11
-15
-19
-21
-22
-20
-17
-14
-10
-6
-4
-4
-5
-8
-12
-15
-17
-18
-16
-14
-10
-7
-4
-3
-4
-7
-11
-16
-20
-23
-24
-23
-21
-17
-13
-9
-7
-6
-6
-9
-12
-16
-19
-22
-23
-23
-22
-20
-17
-14
-11
-8
-5
-3
-1
0
1
1
0
-1
-3
-6
-9
-12
-15
-18
-20
-22
-23
-23
-23
-22
-20
-18
-16
-13
-11
-8
-6
-4
-2
-2
-2
-3
-5
-7
-10
-12
-13
-13
-12
-9
-7
-4
-3
-3
-5
-9
-13
-18
-23
-26
-27
-26
-24
-20
-15
-11
-8
-6
-5
-5
-7
-9
-10
-12
-13
-13
-13
-13
-14
-15
-17
-19
-21
-23
-25
-25
-24
-21
-17
-13
-9
-5
-3
-2
-2
-4
-7
-10
-12
-14
-16
-16
-15
-14
-13
-12
-12
-12
-13
-14
-15
-15
-16
-16
-16
-15
-15
-15
-15
-16
-17
-19
-20
-22
-23
-23
-22
-21
-19
-15
-11
-7
-3
0
2
2
0
-3
-8
-13
-18
-21
-23
-23
-21
-18
-14
-11
-8
-6
-6
-7
-10
-13
-15
-18
-20
-21
-21
-20
-19
-17
-15
-13
-12
-11
-10
-8
-6
-4
-1
3
6
9
11
11
9
6
1
-4
-9
-13
-16
-17
-16
-14
-13
-11
-11
-13
-15
-18
-21
-24
-25
-25
-23
-21
-19
-17
-16
-16
-15
-15
-15
-14
-13
-11
-9
-8
-8
-9
-12
-16
-21
-26
-31
-32
-30
-23
-9
11
38
69
103
135
163
184
194
193
180
159
130
99
70
44
24
11
4
2
3
5
6
7
6
5
3
2
1
1
0
-2
-5
-9
-13
-17
-21
-23
-22
-20
-16
-13
-10
-8
-9
-11
-14
-18
-20
-21
-19
-17
-13
-9
-6
-4
-3
-3
-4
-5
-4
-3
-2
-1
-1
-2
-6
-10
-15
-19
-22
-22
-19
-14
-8
-3
1
1
-1
-6
-12
-17
-20
-20
-16
-10
-2
5
11
12
10
4
-5
-14
-21
-25
-25
-21
-14
-5
3
9
12
11
8
3
-2
-6
-8
-7
-4
1
7
12
17
21
24
26
27
28
29
29
29
29
28
26
25
24
23
24
25
27
29
30
30
29
28
26
25
25
25
27
29
32
34
34
33
31
29
27
26
26
28
31
34
36
36
33
29
23
17
13
10
10
12
15
18
19
17
13
6
-2
-10
-17
-21
-21
-19
-14
-9
-5
-2
-1
-3
-6
-10
-13
-15
-16
-16
-15
-13
-12
-11
-11
-12
-13
-14
-14
-14
-13
-11
-9
-8
-6
-5
-5
-5
-6
-7
-9
-10
-12
-13
-13
-13
-11
-9
-6
-4
-3
-2
-3
-5
-7
-10
-11
-11
-9
-7
-4
-1
0
0
-1
-4
-8
-11
-14
-15
-15
-14
-13
-12
-12
-13
-14
-16
-17
-18
-18
-16
-14
-11
-8
-5
-2
-1
1
2
3
3
3
3
2
1
-2
-4
-7
-9
-10
-10
-9
-6
-3
-1
1
1
-1
-4
-8
-11
-15
-17
-17
-17
-17
-16
-16
-16
-17
-18
-19
-19
-16
-12
-7
-2
3
7
7
5
0
-7
-14
-20
-24
-24
-21
-16
-9
-1
5
8
8
4
-1
-8
-14
-19
-21
-21
-18
-14
-9
-5
-3
-3
-5
-8
-12
-15
-18
-18
-17
-14
-10
-6
-3
-2
-3
-5
-9
-12
-16
-18
-18
-17
-15
-12
-9
-8
-7
-8
-9
-12
-14
-15
-16
-15
-14
-11
-8
-6
-3
-1
1
2
2
2
1
-1
-3
-6
-10
-14
-18
-22
-26
-28
-28
-27
-25
-20
-15
-9
-4
0
3
4
3
1
-2
-5
-8
-10
-11
-10
-8
-5
-1
3
7
11
13
14
13
9
4
-3
-10
-17
-23
-26
-27
-27
-25
-22
-20
-19
-19
-20
-21
-21
-21
-19
-16
-12
-9
-7
-7
-8
-11
-14
-16
-17
-16
-14
-11
-8
-8
-9
-13
-17
-20
-20
-14
0
21
48
80
112
142
165
180
185
180
166
146
122
97
73
50
32
17
7
0
-4
-5
-4
-1
2
6
9
11
11
10
6
2
-3
-7
-12
-15
-17
-18
-18
-18
-18
-18
-18
-19
-18
-18
-17
-16
-14
-12
-11
-11
-11
-11
-13
-14
-16
-17
-17
-16
-14
-11
-7
-4
0
2
2
0
-3
-8
-13
-18
-21
-23
-22
-19
-14
-8
-2
3
6
7
7
4
1
-2
-5
-7
-8
-7
-6
-4
-2
-1
1
1
1
0
-1
-2
-3
-4
-5
-5
-5
-4
-2
0
3
6
9
11
14
16
17
19
20
21
22
23
23
24
24
25
25
26
27
29
31
34
36
39
40
41
41
41
40
39
38
37
37
37
37
37
35
34
31
29
27
26
26
28
31
35
39
41
42
41
38
33
27
21
16
11
8
6
4
4
3
3
2
1
0
-1
-2
-3
-4
-5
-6
-9
-11
-14
-16
-18
-18
-17
-15
-13
-11
-9
-8
-9
-11
-14
-17
-20
-21
-21
-19
-16
-12
-8
-5
-3
-3
-4
-6
-9
-12
-14
-15
-15
-14
-13
-11
-9
-8
-7
-6
-7
-7
-8
-9
-10
-11
-13
-15
-18
-20
-21
-21
-19
-17
-13
-9
-5
-2
-1
-1
-4
-7
-11
-15
-17
-17
-16
-13
-10
-7
-5
-5
-6
-9
-13
-17
-20
-21
-20
-17
-13
-9
-6
-4
-3
-5
-8
-11
-14
-16
-16
-14
-12
-9
-6
-4
-5
-7
-10
-14
-17
-19
-20
-19
-17
-14
-11
-8
-6
-5
-5
-6
-8
-9
-11
-12
-13
-14
-15
-15
-15
-14
-13
-12
-10
-9
-8
-8
-9
-11
-13
-15
-17
-19
-20
-20
-20
-19
-17
-15
-13
-10
-8
-5
-3
-2
-2
-3
-5
-9
-12
-16
-19
-21
-21
-20
-19
-17
-15
-14
-13
-13
-13
-13
-13
-12
-10
-9
-8
-7
-7
-8
-9
-10
-11
-12
-11
-11
-10
-10
-10
-10
-11
-11
-12
-11
-9
-6
-3
-1
1
1
-1
-4
-8
-13
-18
-22
-24
-25
-24
-23
-20
-16
-13
-9
-6
-4
-1
1
3
4
5
6
6
6
5
4
2
0
-2
-4
-6
-7
-9
-10
-12
-13
-13
-13
-13
-12
-11
-10
-9
-8
-8
-8
-9
-10
-11
-11
-10
-9
-7
-5
-3
-2
-2
-4
-7
-11
-16
-20
-24
-26
-27
-27
-26
-24
-21
-17
-9
2
18
39
64
93
123
151
174
190
196
192
179
158
132
104
76
51
30
14
3
-4
-8
-10
-10
-9
-7
-5
-3
-1
1
2
3
2
1
-1
-3
-5
-8
-10
-12
-14
-16
-17
-18
-19
-19
-18
-15
-11
-6
0
6
12
16
18
17
14
9
3
-3
-8
-10
-11
-10
-8
-5
-3
-2
-3
-6
-10
-15
-19
-21
-21
-19
-15
-11
-6
-2
0
2
3
4
6
7
9
11
12
12
10
6
1
-4
-8
-10
-9
-6
-1
5
10
14
16
16
15
12
10
9
10
11
14
16
18
18
18
17
16
16
17
19
23
27
31
35
37
39
39
38
38
37
38
39
40
42
44
45
47
49
50
51
52
53
53
52
50
48
45
42
40
39
40
41
44
47
49
49
47
43
36
28
18
10
2
-3
-5
-5
-3
0
4
7
9
9
7
3
-1
-5
-8
-11
-11
-10
-8
-4
0
4
7
8
8
5
1
-4
-9
-15
-19
-23
-25
-25
-25
-24
-23
-23
-22
-22
-23
-22
-22
-21
-19
-16
-14
-12
-10
-10
-10
-11
-13
-14
-14
-14
-14
-13
-11
-11
-11
-11
-13
-14
-15
-15
-14
-11
-8
-4
-2
0
0
-2
-5
-10
-14
-18
-21
-22
-22
-20
-18
-16
-14
-14
-14
-14
-15
-15
-16
-15
-14
-12
-10
-8
-6
-6
-6
-7
-10
-14
-18
-22
-25
-26
-26
-23
-20
-15
-11
-8
-6
-6
-9
-12
-15
-18
-19
-19
-18
-17
-16
-16
-18
-22
-26
-30
-32
-32
-30
-25
-19
-13
-8
-6
-7
-10
-15
-21
-25
-27
-25
-22
-17
-12
-8
-7
-9
-13
-18
-24
-29
-31
-31
-28
-24
-20
-16
-14
-14
-16
-19
-21
-23
-24
-24
-22
-19
-17
-14
-13
-12
-13
-13
-14
-15
-17
-18
-19
-20
-21
-22
-23
-24
-24
-23
-23
-22
-22
-23
-25
-28
-30
-32
-33
-32
-28
-23
-17
-10
-4
1
4
6
5
4
2
1
-1
-2
-3
-5
-7
-10
-13
-16
-17
-18
-18
-17
-16
-15
-17
-20
-25
-31
-36
-40
-40
-38
-33
-26
-18
-12
-8
-7
-10
-15
-21
-27
-30
-31
-28
-23
-18
-13
-10
-11
-15
-21
-28
-35
-38
-37
-29
-15
5
30
59
89
117
142
162
174
179
176
165
147
125
100
74
50
29
12
0
-8
-12
-12
-10
-7
-3
1
4
5
5
4
2
-2
-7
-12
-17
-21
-24
-27
-28
-28
-28
-28
-27
-26
-26
-25
-24
-23
-22
-21
-20
-20
-20
-20
-21
-22
-22
-22
-21
-20
-18
-15
-13
-11
-9
-7
-6
-5
-4
-4
-4
-5
-6
-9
-12
-15
-18
-20
-21
-19
-17
-13
-8
-3
1
4
4
3
-1
-5
-9
-13
-15
-15
-14
-11
-7
-2
2
4
6
7
6
6
5
4
4
5
6
7
9
11
13
15
17
18
19
19
18
17
17
16
16
17
20
23
28
32
36
40
43
45
46
46
47
47
49
50
52
53
53
53
51
49
46
44
42
41
41
41
42
43
43
42
39
36
32
27
23
20
18
17
17
17
17
17
15
13
9
5
0
-4
-7
-10
-11
-11
-11
-11
-12
-12
-13
-14
-14
-13
-11
-8
-4
0
4
6
5
2
-3
-9
-15
-20
-23
-24
-22
-20
-17
-14
-12
-13
-15
-18
-22
-24
-26
-26
-25
-23
-20
-18
-17
-16
-16
-17
-18
-19
-19
-18
-18
-17
-17
-18
-19
-21
-22
-23
-23
-21
-18
-15
-11
-8
-6
-6
-7
-10
-15
-19
-24
-27
-29
-28
-26
-23
-19
-16
-14
-14
-16
-20
-25
-29
-32
-34
-33
-30
-27
-22
-19
-16
-14
-13
-13
-11
-9
-6
-3
1
3
3
1
-3
-9
-15
-20
-24
-25
-24
-21
-17
-12
-8
-5
-4
-3
-4
-6
-8
-10
-13
-17
-21
-26
-30
-34
-37
-37
-35
-30
-23
-15
-6
0
5
7
6
3
-2
-7
-13
-17
-19
-20
-19
-17
-14
-11
-8
-5
-4
-3
-2
-2
-3
-3
-3
-2
-1
1
3
6
8
9
9
7
5
1
-4
-8
-12
-15
-17
-17
-17
-15
-14
-12
-11
-10
-10
-10
-10
-10
-10
-10
-10
-10
-10
-11
-13
-15
-17
-19
-21
-22
-21
-19
-15
-11
-6
-1
2
2
-1
-7
-16
-26
-36
-43
-44
-38
-23
1
33
70
110
149
182
207
221
223
214
195
169
139
108
79
53
33
17
7
2
-1
-1
1
3
5
6
7
6
4
1
-3
-7
-11
-14
-15
-14
-12
-8
-5
-3
-3
-4
-8
-13
-18
-23
-26
-27
-26
-23
-19
-15
-11
-8
-7
-6
-6
-6
-7
-7
-7
-7
-8
-10
-13
-16
-19
-22
-23
-23
-21
-17
-13
-8
-3
2
6
10
12
13
13
11
8
4
0
-5
-9
-12
-13
-13
-11
-9
-6
-3
0
2
3
4
4
4
4
4
5
5
7
8
10
13
16
19
23
26
29
31
32
32
32
31
30
29
28
29
29
30
32
34
36
39
41
44
47
50
52
54
55
54
53
51
49
47
45
44
44
45
47
50
52
54
54
53
50
45
39
33
27
23
20
19
20
22
25
27
29
28
26
22
16
10
3
-3
-7
-9
-10
-9
-7
-6
-5
-5
-7
-9
-13
-16
-18
-19
-19
-17
-14
-11
-7
-5
-4
-4
-5
-7
-10
-12
-13
-13
-13
-11
-10
-8
-7
-7
-7
-9
-11
-13
-15
-16
-16
-16
-14
-13
-12
-11
-12
-13
-14
-16
-17
-17
-16
-15
-14
-13
-13
-13
-15
-17
-19
-20
-20
-19
-17
-14
-11
-9
-8
-9
-11
-13
-16
-17
-17
-15
-12
-8
-5
-3
-3
-6
-10
-15
-20
-24
-26
-25
-22
-17
-11
-6
-3
-1
-1
-4
-7
-11
-14
-17
-18
-19
-19
-19
-18
-18
-19
-19
-19
-18
-17
-15
-13
-11
-10
-10
-11
-12
-14
-17
-19
-20
-21
-21
-20
-20
-19
-18
-17
-16
-16
-15
-16
-16
-18
-19
-20
-21
-21
-20
-18
-14
-10
-6
-3
-2
-3
-5
-9
-14
-19
-23
-25
-26
-26
-24
-22
-20
-19
-18
-18
-19
-21
-23
-24
-25
-25
-23
-20
-15
-9
-3
4
10
14
16
15
12
7
1
-5
-10
-14
-16
-17
-18
-18
-18
-19
-20
-21
-21
-21
-19
-18
-16
-16
-17
-20
-24
-28
-32
-33
-32
-28
-22
-15
-9
-4
-3
-5
-10
-16
-22
-27
-30
-31
-31
-30
-29
-30
-30
-30
-27
-19
-4
18
48
82
118
152
180
199
207
203
189
166
139
110
83
59
40
26
18
13
10
10
9
8
7
4
2
-1
-3
-4
-5
-5
-6
-6
-8
-10
-13
-16
-19
-21
-22
-21
-20
-18
-17
-17
-18
-20
-22
-23
-23
-21
-17
-13
-10
-8
-9
-12
-17
-22
-27
-29
-28
-24
-19
-13
-9
-7
-8
-12
-18
-24
-28
-30
-28
-23
-17
-10
-5
-2
-1
-2
-5
-6
-7
-6
-4
-2
-1
-2
-6
-12
-19
-26
-31
-34
-34
-31
-26
-21
-16
-14
-14
-15
-17
-18
-17
-13
-8
-1
6
12
16
17
16
14
13
14
17
22
29
36
42
45
45
41
35
28
22
20
20
24
31
38
45
49
51
50
46
40
35
31
28
27
28
30
32
34
35
36
37
38
40
42
44
45
45
42
36
28
18
8
-1
-8
-12
-13
-11
-7
-2
2
4
3
0
-5
-11
-17
-22
-26
-27
-25
-23
-19
-15
-13
-12
-12
-14
-16
-19
-21
-23
-23
-22
-21
-19
-18
-17
-17
-17
-18
-19
-20
-21
-22
-23
-23
-22
-21
-19
-17
-14
-11
-8
-7
-7
-8
-11
-15
-20
-23
-26
-26
-24
-19
-14
-10
-6
-5
-6
-9
-14
-19
-24
-28
-29
-29
-27
-25
-22
-20
-19
-18
-18
-17
-16
-14
-12
-10
-7
-6
-5
-5
-6
-8
-10
-12
-14
-15
-17
-18
-19
-20
-20
-20
-18
-14
-10
-5
0
5
7
8
7
4
0
-4
-6
-8
-8
-7
-6
-6
-7
-10
-14
-18
-22
-23
-23
-19
-14
-7
-1
4
6
5
2
-3
-8
-13
-16
-18
-17
-16
-14
-13
-13
-13
-15
-16
-16
-15
-12
-9
-5
-2
1
1
0
-3
-7
-11
-14
-15
-14
-11
-6
-1
4
8
11
13
13
12
9
7
4
1
-1
-4
-5
-7
-8
-8
-9
-9
-8
-8
-7
-7
-7
-8
-10
-12
-14
-17
-20
-22
-25
-26
-27
-26
-24
-22
-18
-15
-11
-9
-8
-10
-14
-20
-28
-36
-42
-45
-42
-31
-12
16
51
91
133
173
208
233
246
247
235
212
181
144
106
70
39
15
-2
-12
-16
-15
-12
-9
-6
-5
-5
-7
-10
-13
-16
-18
-19
-20
-20
-19
-18
-17
-16
-15
-13
-12
-12
-11
-12
-13
-14
-16
-18
-18
-18
-17
-14
-11
-9
-7
-7
-9
-13
-18
-23
-29
-33
-34
-34
-31
-27
-22
-19
-16
-16
-18
-21
-24
-27
-28
-28
-25
-22
-18
-14
-11
-11
-11
-13
-15
-17
-17
-16
-13
-10
-6
-2
0
0
-1
-4
-7
-10
-11
-11
-8
-5
-1
3
6
7
6
3
-1
-4
-6
-7
-6
-3
2
8
14
19
23
26
28
31
33
36
40
43
46
48
48
48
46
44
41
40
39
40
41
43
44
45
46
45
44
42
41
41
41
42
44
45
46
45
43
40
36
33
29
27
25
24
23
22
20
16
10
4
-3
-9
-13
-16
-17
-17
-15
-13
-11
-11
-11
-12
-13
-13
-12
-10
-7
-3
0
2
1
-2
-6
-12
-17
-22
-25
-26
-26
-25
-23
-22
-21
-21
-20
-19
-18
-16
-13
-11
-9
-8
-9
-11
-15
-19
-22
-25
-25
-25
-23
-21
-18
-16
-15
-15
-16
-17
-18
-18
-19
-18
-18
-17
-16
-15
-13
-12
-11
-11
-10
-10
-11
-12
-13
-15
-16
-18
-18
-19
-18
-17
-15
-14
-13
-13
-13
-13
-15
-16
-17
-18
-18
-18
-17
-16
-15
-13
-12
-12
-12
-13
-14
-16
-18
-21
-22
-23
-24
-24
-23
-21
-20
-19
-19
-20
-21
-22
-23
-23
-22
-19
-16
-12
-8
-4
-2
-1
-2
-5
-8
-12
-16
-19
-21
-22
-23
-23
-23
-23
-23
-22
-20
-18
-14
-10
-5
-1
2
4
4
2
-2
-5
-8
-9
-9
-7
-4
-2
0
0
-2
-5
-9
-13
-16
-18
-19
-18
-17
-15
-14
-14
-15
-16
-18
-19
-20
-20
-20
-20
-20
-20
-21
-21
-21
-21
-20
-19
-18
-18
-20
-23
-27
-32
-35
-34
-28
-14
7
35
70
107
144
177
202
217
221
212
193
166
133
98
65
35
12
-6
-16
-21
-22
-20
-17
-13
-9
-5
-3
-1
-1
-1
-2
-4
-6
-9
-11
-14
-15
-17
-17
-17
-17
-16
-15
-14
-12
-10
-8
-6
-3
-2
-2
-2
-4
-7
-10
-13
-16
-17
-17
-17
-15
-14
-12
-10
-10
-9
-9
-8
-8
-7
-5
-4
-3
-3
-4
-5
-6
-8
-9
-10
-10
-10
-8
-7
-5
-4
-3
-3
-2
-2
-2
-2
-2
-1
-1
-1
-1
-3
-4
-6
-7
-7
-6
-4
0
5
10
14
18
20
20
20
18
17
16
16
18
21
25
30
34
38
40
40
40
39
38
37
37
38
39
40
41
42
42
41
40
38
38
38
38
40
42
44
46
47
48
48
46
44
41
37
33
28
23
20
16
14
13
13
13
14
14
14
13
12
9
7
5
3
1
-1
-2
-4
-6
-8
-11
-13
-16
-18
-20
-22
-22
-23
-23
-22
-21
-20
-18
-15
-11
-8
-4
-1
0
-1
-3
-6
-10
-15
-18
-20
-21
-20
-18
-15
-13
-10
-9
-9
-10
-11
-13
-14
-14
-14
-13
-12
-11
-10
-10
-11
-13
-15
-18
-20
-22
-24
-25
-24
-22
-19
-15
-11
-7
-4
-1
-1
-1
-4
-7
-11
-16
-19
-21
-22
-21
-18
-15
-11
-8
-5
-4
-5
-7
-9
-12
-15
-17
-18
-18
-17
-15
-14
-13
-13
-15
-17
-21
-24
-27
-28
-27
-25
-21
-16
-11
-7
-4
-4
-6
-10
-15
-19
-23
-26
-26
-25
-22
-19
-16
-13
-12
-12
-12
-13
-12
-12
-10
-9
-7
-7
-8
-10
-14
-17
-21
-22
-23
-21
-18
-14
-10
-7
-5
-5
-6
-7
-8
-8
-7
-4
-1
1
3
4
2
-1
-5
-9
-13
-16
-17
-16
-13
-10
-6
-4
-3
-5
-8
-12
-17
-21
-23
-23
-21
-16
-11
-5
1
4
6
5
3
0
-4
-7
-10
-13
-16
-19
-24
-30
-37
-43
-48
-48
-44
-33
-14
11
43
79
118
155
188
213
228
231
222
202
173
137
99
62
30
5
-11
-19
-19
-14
-7
2
8
12
12
9
3
-5
-13
-20
-26
-30
-32
-33
-32
-31
-30
-29
-28
-28
-27
-27
-27
-27
-27
-26
-25
-25
-24
-23
-22
-20
-18
-16
-14
-12
-10
-9
-9
-10
-12
-15
-18
-19
-20
-19
-17
-14
-11
-8
-8
-9
-13
-18
-24
-29
-32
-32
-29
-23
-15
-6
1
6
9
8
6
2
-1
-3
-4
-3
-2
0
1
0
-1
-4
-6
-7
-7
-4
0
5
9
13
15
14
12
10
9
9
12
16
22
28
33
36
37
35
32
28
25
23
23
25
28
31
35
38
40
41
43
44
45
46
47
47
46
44
42
39
38
37
37
38
39
39
38
35
31
27
23
20
18
19
21
24
25
24
21
15
7
-3
-11
-18
-21
-22
-20
-16
-12
-9
-8
-8
-10
-13
-16
-18
-20
-20
-20
-20
-20
-21
-22
-23
-24
-24
-22
-19
-16
-13
-10
-9
-10
-13
-16
-19
-21
-22
-21
-18
-15
-11
-9
-7
-7
-8
-11
-15
-19
-23
-27
-30
-33
-34
-34
-32
-29
-25
-20
-15
-11
-8
-6
-7
-8
-11
-14
-17
-19
-21
-22
-23
-25
-26
-27
-28
-27
-24
-20
-16
-10
-6
-4
-5
-10
-16
-24
-32
-39
-42
-42
-39
-34
-27
-20
-15
-12
-10
-11
-11
-12
-13
-13
-12
-12
-13
-14
-16
-18
-19
-20
-19
-18
-15
-12
-9
-8
-9
-11
-14
-18
-21
-22
-23
-22
-20
-18
-16
-14
-14
-13
-14
-14
-13
-12
-11
-10
-9
-8
-9
-11
-12
-14
-15
-14
-12
-9
-4
0
3
5
5
3
-1
-6
-11
-15
-17
-18
-17
-15
-12
-8
-5
-3
-2
-3
-4
-7
-10
-13
-15
-18
-19
-20
-19
-18
-17
-16
-15
-15
-17
-19
-23
-27
-32
-35
-37
-37
-35
-30
-25
-19
-16
-14
-16
-21
-27
-34
-38
-37
-29
-12
14
48
87
128
167
200
223
234
231
217
193
162
127
92
60
34
14
0
-8
-11
-11
-8
-5
-1
1
3
3
2
0
-4
-7
-10
-13
-15
-15
-14
-12
-9
-7
-5
-5
-6
-10
-14
-19
-24
-27
-29
-29
-27
-24
-20
-16
-12
-10
-8
-7
-7
-7
-7
-7
-7
-8
-8
-9
-9
-9
-9
-8
-6
-4
-2
0
1
0
-3
-6
-10
-14
-17
-19
-19
-17
-14
-11
-8
-5
-4
-4
-5
-7
-8
-8
-7
-4
-1
3
7
11
13
13
13
12
11
12
13
15
18
22
24
26
26
24
21
18
16
15
17
20
25
31
37
42
47
50
51
50
48
46
44
42
40
39
39
40
41
43
46
48
51
53
54
54
52
50
48
45
43
41
39
39
38
38
37
34
30
25
19
12
6
1
-3
-5
-6
-6
-5
-4
-4
-4
-6
-9
-13
-17
-20
-23
-24
-25
-24
-21
-18
-14
-10
-6
-3
0
0
-1
-5
-11
-18
-25
-32
-37
-38
-36
-31
-23
-14
-7
-2
0
-3
-9
-18
-27
-35
-41
-43
-41
-37
-30
-22
-15
-9
-5
-2
-2
-2
-4
-5
-7
-9
-11
-13
-15
-16
-18
-18
-18
-17
-16
-15
-14
-14
-14
-15
-16
-17
-17
-18
-18
-18
-18
-18
-18
-19
-19
-19
-18
-16
-14
-12
-11
-10
-11
-13
-16
-20
-24
-26
-28
-28
-27
-24
-21
-18
-15
-13
-11
-9
-7
-7
-6
-6
-8
-10
-12
-15
-18
-20
-21
-21
-19
-17
-14
-12
-11
-11
-12
-14
-17
-19
-20
-20
-19
-16
-13
-10
-7
-6
-5
-5
-5
-6
-6
-6
-5
-3
-1
2
4
5
6
5
2
0
-4
-6
-8
-9
-9
-8
-8
-7
-7
-8
-10
-13
-16
-18
-20
-21
-20
-19
-17
-16
-14
-13
-12
-11
-11
-10
-9
-8
-8
-10
-13
-18
-25
-32
-38
-42
-41
-36
-23
-5
20
50
82
115
145
171
189
199
199
190
172
148
119
89
60
35
16
2
-6
-9
-8
-5
-1
2
5
5
5
3
1
-2
-5
-9
-12
-16
-20
-23
-26
-28
-29
-30
-29
-28
-27
-25
-23
-21
-19
-17
-15
-13
-11
-10
-9
-9
-9
-9
-10
-10
-11
-11
-11
-11
-11
-12
-12
-12
-13
-13
-13
-12
-11
-10
-9
-8
-8
-9
-9
-10
-10
-10
-10
-9
-8
-7
-7
-8
-10
-12
-14
-16
-17
-16
-15
-13
-9
-6
-3
-1
1
2
3
3
4
4
5
5
6
6
6
7
7
9
10
12
14
17
19
21
23
24
24
23
22
21
20
19
19
20
22
25
29
32
35
38
40
40
40
39
38
36
35
34
33
32
32
31
30
29
29
29
29
30
31
32
32
30
26
20
12
4
-4
-10
-14
-14
-12
-8
-4
0
2
1
-2
-8
-15
-21
-26
-27
-26
-22
-17
-11
-7
-5
-5
-9
-14
-20
-24
-27
-27
-25
-21
-15
-10
-7
-6
-8
-12
-18
-25
-30
-34
-36
-35
-33
-28
-23
-19
-15
-13
-14
-15
-17
-19
-20
-20
-18
-15
-11
-8
-5
-5
-6
-10
-14
-18
-21
-22
-19
-15
-10
-5
-1
0
-2
-8
-16
-24
-31
-36
-37
-36
-31
-26
-20
-16
-13
-13
-15
-18
-20
-22
-22
-21
-19
-16
-13
-12
-11
-12
-15
-17
-20
-22
-23
-22
-20
-18
-14
-11
-7
-5
-3
-3
-3
-5
-7
-9
-12
-14
-15
-16
-16
-15
-15
-16
-17
-19
-22
-25
-27
-29
-29
-28
-26
-22
-19
-15
-12
-10
-10
-10
-11
-13
-14
-14
-14
-13
-11
-9
-6
-4
-2
0
1
1
-1
-4
-7
-12
-16
-20
-22
-22
-20
-16
-10
-4
1
3
4
1
-3
-9
-14
-19
-21
-22
-20
-17
-14
-12
-10
-9
-10
-11
-12
-12
-12
-12
-11
-12
-12
-14
-16
-18
-20
-20
-19
-17
-13
-9
-5
-2
-1
-2
-5
-9
-13
-18
-23
-27
-30
-33
-33
-30
-24
-13
4
26
54
86
120
153
181
201
212
211
199
178
151
119
88
60
37
21
11
7
8
11
15
19
21
21
19
16
11
5
-1
-6
-11
-14
-16
-16
-15
-14
-13
-12
-12
-12
-13
-15
-16
-16
-15
-13
-9
-6
-4
-2
-3
-5
-9
-13
-16
-18
-18
-15
-11
-5
0
4
7
7
5
2
-1
-5
-8
-10
-11
-11
-11
-11
-11
-11
-10
-9
-7
-4
-1
2
4
5
5
4
2
0
-1
-1
-1
0
1
2
1
1
-1
-2
-3
-2
1
4
8
13
16
19
20
20
19
18
17
18
19
20
22
23
24
24
24
24
25
26
29
33
37
42
46
49
50
51
52
52
52
53
55
56
56
56
54
51
47
44
41
41
41
44
46
48
49
47
43
37
29
22
15
10
7
7
9
12
15
19
21
21
19
16
11
6
-1
-7
-12
-16
-18
-18
-17
-13
-9
-5
-2
0
1
0
-3
-6
-9
-11
-12
-12
-11
-10
-8
-8
-10
-12
-15
-19
-21
-23
-23
-22
-19
-15
-11
-7
-4
-1
0
2
2
1
0
-1
-4
-6
-9
-12
-14
-16
-16
-16
-15
-13
-12
-11
-10
-11
-13
-14
-16
-17
-18
-18
-18
-17
-16
-16
-16
-17
-19
-20
-21
-21
-20
-18
-15
-11
-6
-2
1
3
4
4
2
0
-2
-5
-7
-8
-10
-12
-15
-17
-20
-22
-23
-23
-23
-21
-18
-15
-13
-11
-10
-10
-10
-11
-12
-13
-13
-13
-13
-13
-14
-15
-17
-19
-20
-21
-21
-20
-18
-15
-13
-11
-9
-8
-8
-8
-8
-9
-11
-12
-14
-16
-18
-19
-20
-20
-20
-19
-17
-15
-14
-13
-13
-13
-14
-14
-14
-14
-13
-11
-10
-9
-10
-11
-13
-16
-18
-19
-20
-20
-19
-18
-17
-17
-18
-20
-22
-23
-23
-20
-16
-10
-3
4
8
11
11
8
4
-1
-6
-9
-10
-9
-6
-3
0
1
1
-2
-7
-13
-19
-24
-27
-28
-27
-24
-20
-16
-13
-11
-10
-12
-14
-17
-19
-20
-20
-19
-16
-13
-10
-7
-6
-6
-7
-10
-15
-20
-25
-30
-34
-35
-33
-27
-15
1
23
50
79
110
140
166
185
196
197
188
171
146
118
89
61
38
20
8
1
-2
-3
-2
-2
-3
-5
-8
-11
-14
-16
-17
-17
-16
-15
-13
-13
-12
-13
-13
-14
-15
-16
-17
-17
-18
-18
-19
-19
-19
-19
-19
-18
-18
-17
-17
-17
-17
-18
-18
-19
-19
-18
-16
-13
-10
-7
-5
-4
-4
-7
-11
-17
-22
-28
-31
-33
-33
-30
-25
-19
-14
-8
-5
-3
-2
-3
-4
-6
-8
-9
-9
-9
-8
-7
-6
-5
-5
-4
-3
-3
-2
-2
-1
-1
-1
-1
-2
-2
-1
0
1
3
6
8
10
12
13
13
12
12
12
13
15
17
21
25
29
33
36
38
40
41
42
43
45
46
48
50
52
52
52
51
49
45
41
36
32
28
25
24
25
26
28
29
30
30
29
26
22
18
15
11
9
8
7
6
4
2
-1
-4
-7
-9
-10
-10
-7
-4
-1
2
3
2
-1
-5
-10
-15
-18
-20
-21
-20
-19
-18
-18
-18
-20
-22
-23
-24
-23
-21
-18
-15
-12
-10
-10
-11
-13
-16
-18
-20
-20
-19
-16
-12
-8
-4
-1
0
-1
-3
-7
-12
-17
-21
-24
-25
-24
-22
-19
-17
-15
-15
-16
-18
-21
-23
-24
-24
-22
-19
-15
-11
-9
-7
-8
-9
-10
-11
-12
-11
-9
-7
-6
-5
-6
-9
-13
-17
-20
-22
-22
-20
-16
-13
-10
-8
-8
-10
-13
-17
-20
-21
-21
-19
-16
-13
-10
-9
-9
-11
-13
-15
-17
-17
-16
-14
-11
-8
-6
-6
-7
-9
-11
-14
-17
-18
-19
-19
-18
-17
-17
-17
-17
-18
-19
-20
-20
-20
-20
-19
-18
-18
-17
-17
-17
-16
-15
-14
-12
-11
-9
-9
-9
-10
-12
-14
-15
-16
-16
-14
-12
-10
-8
-7
-7
-9
-12
-15
-18
-21
-22
-22
-20
-18
-17
-16
-16
-17
-20
-22
-24
-25
-24
-21
-17
-13
-9
-7
-6
-8
-11
-16
-20
-22
-22
-20
-15
-8
-1
5
9
10
9
5
0
-5
-9
-10
-10
-8
-4
-1
2
3
3
1
-1
-3
-6
-7
-8
-8
-9
-10
-12
-15
-18
-21
-23
-24
-24
-22
-19
-15
-11
-8
-6
-6
-8
-10
-13
-16
-19
-21
-22
-23
-23
-23
-23
-24
-26
-28
-28
-26
-21
-9
8
32
62
96
131
163
190
207
214
208
192
167
137
105
74
47
26
10
0
-5
-7
-7
-5
-3
-1
2
3
4
4
3
0
-3
-7
-10
-13
-14
-14
-13
-11
-9
-7
-7
-8
-10
-13
-16
-19
-20
-19
-16
-12
-8
-4
0
2
2
1
-1
-3
-5
-7
-8
-8
-8
-9
-10
-12
-15
-19
-22
-23
-23
-21
-17
-12
-6
0
4
7
7
6
4
2
0
-1
-1
-1
0
1
0
0
-2
-3
-4
-4
-2
2
6
12
17
20
22
22
20
15
10
4
0
-4
-5
-5
-2
2
6
11
15
19
21
23
24
25
26
28
30
33
35
38
40
42
44
45
46
48
51
53
56
58
60
60
59
56
53
49
45
42
39
38
37
38
38
38
38
38
37
36
34
32
29
26
23
19
15
12
8
5
3
1
1
1
2
3
5
6
8
9
9
9
7
5
2
-1
-4
-7
-10
-12
-14
-15
-16
-17
-18
-19
-20
-20
-19
-17
-15
-12
-10
-8
-8
-9
-11
-14
-17
-18
-18
-16
-13
-9
-6
-3
-3
-4
-7
-12
-16
-19
-20
-19
-15
-10
-4
1
4
5
4
0
-4
-9
-14
-17
-18
-18
-16
-13
-10
-7
-5
-3
-3
-3
-4
-6
-7
-9
-10
-11
-12
-12
-13
-12
-12
-12
-12
-11
-11
-10
-10
-9
-9
-8
-7
-5
-4
-3
-2
-1
0
0
0
-1
-3
-5
-7
-9
-11
-13
-14
-15
-15
-14
-14
-13
-13
-14
-14
-15
-16
-16
-16
-15
-13
-11
-9
-7
-7
-6
-7
-8
-10
-11
-11
-11
-10
-9
-8
-7
-6
-6
-6
-7
-9
-10
-11
-11
-11
-11
-10
-8
-7
-7
-7
-7
-9
-11
-14
-16
-18
-20
-20
-19
-17
-14
-11
-7
-4
-2
-2
-2
-4
-6
-9
-11
-12
-12
-10
-7
-4
0
4
8
10
11
10
8
5
0
-4
-8
-12
-15
-17
-18
-18
-18
-16
-14
-12
-10
-8
-6
-5
-5
-6
-8
-11
-15
-18
-21
-22
-23
-21
-19
-15
-11
-7
-4
-2
-2
-3
-6
-9
-13
-17
-21
-24
-27
-29
-31
-32
-32
-30
-27
-20
-9
5
24
47
72
99
125
148
167
178
181
175
160
137
109
78
48
22
1
-11
-16
-15
-9
-1
6
10
10
5
-3
-12
-21
-27
-30
-29
-24
-17
-9
-2
3
5
3
0
-6
-11
-16
-19
-20
-18
-15
-11
-8
-5
-4
-4
-6
-8
-10
-11
-12
-11
-10
-9
-8
-8
-10
-12
-15
-18
-20
-20
-19
-16
-11
-6
-2
1
2
1
-1
-4
-7
-9
-10
-9
-7
-4
-1
1
3
4
3
2
0
-1
-2
-3
-3
-2
-2
0
1
2
3
3
3
2
1
0
-2
-3
-3
-2
0
4
9
15
20
24
27
27
26
24
22
20
21
23
28
34
41
46
50
51
49
45
39
33
28
26
26
28
33
37
41
44
45
44
42
39
36
34
33
33
32
31
29
26
23
19
15
12
10
10
11
13
15
17
18
17
15
11
5
0
-6
-11
-14
-16
-15
-13
-10
-7
-4
-2
-2
-4
-8
-12
-17
-21
-24
-25
-25
-24
-23
-22
-22
-24
-26
-29
-31
-32
-31
-29
-24
-19
-13
-8
-5
-3
-4
-6
-8
-11
-12
-13
-12
-11
-9
-8
-8
-10
-12
-14
-15
-16
-15
-13
-10
-8
-7
-9
-12
-17
-23
-28
-30
-29
-26
-19
-12
-4
1
3
1
-3
-10
-17
-23
-26
-26
-23
-17
-11
-6
-2
-2
-3
-7
-11
-15
-18
-19
-18
-16
-13
-9
-7
-5
-4
-5
-6
-7
-9
-10
-12
-13
-16
-18
-20
-22
-24
-25
-25
-24
-22
-20
-18
-16
-15
-15
-16
-18
-19
-20
-19
-18
-16
-13
-10
-7
-5
-3
-3
-3
-4
-5
-6
-8
-10
-13
-15
-18
-21
-24
-25
-26
-25
-23
-20
-17
-14
-12
-11
-12
-14
-17
-20
-23
-24
-24
-23
-21
-18
-14
-12
-10
-9
-9
-10
-12
-14
-17
-18
-19
-19
-17
-14
-10
-6
-2
1
2
1
-3
-10
-17
-25
-31
-35
-35
-32
-26
-18
-9
-1
5
8
8
6
3
-1
-4
-6
-7
-7
-6
-7
-9
-12
-16
-19
-22
-23
-21
-17
-11
-6
-2
0
-2
-6
-12
-19
-24
-27
-27
-23
-17
-11
-6
-4
-6
-11
-18
-26
-33
-37
-37
-34
-28
-22
-17
-15
-16
-20
-27
-33
-37
-36
-29
-14
7
34
65
95
124
148
165
175
177
172
160
143
122
100
77
56
37
21
9
1
-3
-3
-2
0
3
4
4
2
-1
-6
-11
-15
-19
-21
-20
-19
-16
-12
-9
-7
-6
-7
-9
-12
-15
-17
-19
-19
-18
-17
-14
-13
-12
-12
-13
-15
-17
-20
-21
-21
-20
-18
-16
-13
-11
-10
-10
-11
-13
-15
-17
-19
-20
-19
-18
-16
-14
-12
-11
-10
-10
-10
-11
-10
-9
-7
-4
-1
2
5
6
5
3
-1
-5
-9
-12
-12
-11
-8
-5
-1
1
2
1
-1
-5
-8
-10
-10
-7
-3
3
10
16
21
24
25
24
23
21
21
21
23
26
30
33
36
38
39
41
42
44
46
48
49
50
50
48
44
39
34
30
26
25
26
28
32
36
40
42
42
41
39
36
32
29
27
26
24
23
20
17
13
8
4
0
-2
-2
-1
1
3
5
5
3
0
-4
-9
-14
-17
-19
-19
-17
-15
-12
-9
-8
-7
-8
-9
-11
-12
-13
-12
-12
-10
-9
-8
-7
-8
-8
-9
-11
-12
-12
-12
-12
-11
-10
-9
-7
-5
-3
-2
-1
-1
-2
-5
-8
-13
-19
-24
-27
-28
-27
-24
-18
-11
-5
0
3
4
3
0
-4
-7
-9
-10
-10
-9
-8
-8
-9
-11
-14
-16
-18
-18
-16
-12
-8
-3
0
3
3
2
-1
-4
-6
-8
-9
-10
-10
-11
-12
-13
-15
-15
-15
-13
-10
-6
-2
1
3
3
2
-1
-3
-6
-7
-8
-8
-8
-9
-10
-12
-15
-17
-19
-19
-17
-13
-8
-3
2
4
4
2
-2
-7
-12
-15
-17
-17
-16
-14
-12
-10
-9
-9
-8
-8
-8
-7
-5
-3
-2
0
0
0
-1
-4
-6
-9
-11
-13
-13
-12
-11
-9
-7
-5
-4
-5
-7
-10
-15
-20
-24
-27
-27
-25
-20
-13
-5
2
7
10
10
6
1
-6
-13
-19
-22
-23
-21
-18
-14
-10
-6
-4
-3
-3
-4
-5
-7
-8
-8
-8
-8
-7
-6
-5
-4
-3
-2
0
1
3
4
5
6
6
5
4
2
0
-2
-3
-4
-4
-4
-3
-2
-2
-2
-3
-5
-9
-13
-18
-23
-26
-28
-28
-25
-20
-15
-9
-4
-1
0
-1
-3
-6
-7
-8
-7
-5
-3
-2
-4
-8
-16
-24
-32
-36
-34
-24
-6
21
53
89
123
153
175
187
190
184
169
150
126
102
79
58
40
27
17
12
10
11
14
17
19
20
18
14
8
1
-7
-13
-18
-20
-21
-20
-18
-16
-14
-12
-10
-9
-8
-7
-7
-6
-4
-2
0
2
4
5
5
3
0
-5
-11
-16
-22
-25
-26
-25
-21
-15
-9
-3
1
3
2
0
-3
-6
-8
-8
-7
-5
-2
0
0
0
-3
-6
-9
-12
-14
-14
-13
-10
-8
-5
-2
0
1
2
2
3
3
3
2
1
-1
-3
-4
-5
-4
-2
2
7
12
17
20
22
21
20
17
16
15
15
18
21
26
30
33
36
37
37
37
36
36
36
36
38
39
40
41
42
43
43
44
44
44
44
43
42
40
39
37
36
36
38
40
42
45
47
49
49
47
44
40
34
28
21
15
8
3
-1
-4
-5
-4
-2
2
5
7
8
6
2
-4
-10
-16
-21
-23
-22
-18
-12
-6
-1
3
5
4
1
-2
-6
-8
-9
-9
-8
-7
-7
-8
-10
-13
-16
-18
-19
-19
-17
-16
-14
-14
-14
-15
-17
-19
-20
-21
-20
-18
-16
-14
-12
-11
-11
-11
-11
-12
-12
-12
-11
-10
-9
-9
-8
-8
-8
-7
-5
-3
-2
0
0
-1
-4
-8
-13
-18
-21
-23
-23
-21
-17
-12
-8
-4
-2
-2
-3
-6
-10
-13
-15
-16
-16
-15
-13
-11
-10
-9
-9
-11
-12
-14
-15
-16
-16
-16
-16
-15
-14
-14
-14
-15
-16
-16
-17
-17
-16
-14
-12
-10
-7
-6
-5
-6
-8
-12
-15
-18
-20
-20
-18
-15
-11
-7
-4
-3
-5
-9
-14
-20
-25
-28
-29
-28
-24
-19
-14
-10
-8
-8
-10
-14
-18
-22
-24
-26
-26
-25
-23
-20
-18
-16
-15
-14
-14
-14
-14
-15
-14
-14
-13
-12
-11
-9
-8
-7
-7
-8
-10
-14
-18
-22
-26
-28
-29
-27
-24
-18
-12
-6
-1
1
1
-2
-7
-14
-20
-26
-29
-29
-28
-24
-20
-16
-13
-11
-10
-11
-11
-11
-10
-8
-6
-3
-1
0
0
-1
-2
-4
-5
-5
-5
-5
-6
-8
-12
-18
-24
-30
-36
-38
-38
-35
-29
-22
-16
-10
-6
-5
-5
-8
-11
-14
-16
-18
-19
-19
-19
-19
-19
-19
-19
-19
-19
-19
-19
-20
-22
-24
-26
-24
-19
-9
8
32
60
91
123
151
172
185
188
181
164
141
114
86
59
37
19
8
1
-1
-1
1
2
3
2
1
-2
-5
-8
-10
-13
-14
-15
-17
-18
-20
-22
-23
-24
-24
-22
-20
-18
-15
-13
-12
-12
-13
-14
-15
-15
-14
-13
-10
-8
-7
-8
-11
-14
-19
-24
-27
-28
-27
-22
-16
-9
-2
3
6
5
2
-2
-7
-12
-15
-17
-16
-14
-12
-10
-8
-7
-7
-8
-8
-8
-7
-5
-3
0
3
4
4
3
1
-2
-5
-7
-9
-9
-8
-6
-4
-1
2
5
7
9
10
11
12
13
13
13
13
13
13
12
13
14
15
17
20
23
27
30
33
35
36
37
37
37
36
35
35
35
35
36
38
41
43
46
48
50
50
48
46
42
38
34
31
28
27
27
28
28
28
27
25
21
16
10
4
-1
-4
-7
-7
-7
-6
-5
-3
-2
-1
0
0
0
-2
-5
-9
-14
-20
-25
-30
-33
-33
-30
-25
-18
-11
-4
1
4
3
0
-4
-10
-15
-19
-21
-22
-21
-19
-17
-16
-15
-16
-17
-19
-20
-21
-21
-21
-19
-18
-16
-15
-14
-14
-15
-16
-17
-19
-20
-20
-20
-19
-17
-15
-13
-10
-8
-6
-5
-5
-6
-7
-9
-11
-12
-13
-13
-12
-12
-12
-12
-12
-12
-12
-12
-11
-9
-6
-5
-4
-4
-6
-9
-14
-18
-21
-23
-22
-20
-16
-11
-7
-4
-3
-3
-6
-9
-12
-14
-16
-16
-15
-14
-12
-11
-10
-10
-10
-9
-9
-8
-7
-7
-7
-8
-9
-11
-13
-15
-15
-14
-11
-8
-5
-3
-3
-4
-7
-11
-16
-20
-22
-23
-22
-20
-17
-14
-12
-11
-12
-13
-15
-17
-18
-17
-15
-11
-7
-3
0
1
1
-1
-4
-7
-11
-14
-16
-17
-17
-16
-14
-13
-12
-11
-11
-11
-11
-10
-10
-9
-8
-8
-8
-8
-9
-11
-13
-14
-15
-15
-14
-12
-10
-8
-6
-4
-4
-3
-4
-5
-6
-8
-10
-11
-13
-14
-15
-15
-14
-12
-9
-5
-1
4
8
11
13
13
12
9
6
2
-2
-4
-6
-6
-5
-4
-2
0
1
0
-1
-4
-7
-10
-13
-15
-16
-16
-14
-12
-9
-6
-2
0
2
2
0
-2
-6
-11
-15
-19
-22
-22
-20
-17
-13
-9
-7
-7
-10
-16
-23
-30
-35
-36
-32
-21
-3
22
51
83
116
146
172
192
203
204
196
180
156
127
96
66
40
20
6
0
-1
1
5
8
9
6
1
-5
-11
-16
-17
-16
-12
-7
-2
2
3
1
-4
-9
-15
-19
-21
-20
-17
-12
-7
-3
0
0
-1
-4
-7
-10
-12
-13
-12
-11
-9
-7
-6
-6
-6
-7
-8
-8
-8
-7
-5
-3
-2
-1
-1
-3
-5
-7
-10
-11
-12
-11
-9
-6
-4
-1
0
1
1
0
-2
-4
-6
-7
-6
-4
0
5
10
15
19
21
20
17
11
5
-2
-7
-10
-9
-5
1
8
16
22
25
26
24
21
18
15
14
15
18
23
27
31
34
35
35
34
32
32
33
35
38
43
47
50
52
53
53
51
49
47
46
44
44
43
43
43
43
42
41
40
39
37
34
32
28
25
22
19
16
14
13
12
12
12
11
11
10
9
7
5
2
0
-2
-4
-5
-6
-6
-7
-7
-7
-8
-10
-13
-16
-19
-22
-24
-24
-23
-20
-15
-10
-5
-2
-1
-1
-4
-8
-12
-17
-20
-22
-22
-21
-19
-17
-14
-11
-9
-8
-7
-8
-9
-11
-13
-16
-18
-20
-21
-21
-20
-17
-14
-9
-5
-1
2
4
4
2
-1
-5
-9
-14
-18
-20
-21
-20
-17
-14
-10
-7
-5
-4
-5
-8
-11
-14
-17
-19
-19
-18
-16
-14
-13
-12
-11
-12
-12
-13
-13
-13
-12
-12
-12
-12
-15
-18
-21
-25
-27
-27
-25
-20
-15
-9
-4
-1
-1
-4
-8
-13
-18
-20
-21
-19
-15
-11
-8
-7
-7
-9
-12
-14
-15
-14
-11
-8
-6
-5
-7
-11
-17
-24
-30
-34
-35
-32
-26
-18
-10
-4
-1
-1
-4
-9
-14
-19
-22
-23
-22
-20
-18
-16
-16
-16
-17
-19
-19
-19
-18
-15
-13
-10
-9
-9
-11
-13
-16
-18
-20
-20
-19
-16
-14
-11
-10
-10
-11
-12
-15
-17
-19
-20
-19
-18
-15
-13
-10
-7
-4
-2
0
1
1
1
0
-2
-4
-7
-11
-14
-17
-18
-19
-17
-15
-12
-9
-6
-5
-5
-7
-10
-14
-18
-22
-25
-26
-27
-26
-24
-22
-20
-17
-15
-12
-9
-7
-6
-7
-9
-14
-21
-29
-37
-42
-44
-40
-30
-12
12
40
71
103
132
156
173
181
181
172
155
131
104
74
45
20
-1
-14
-21
-21
-16
-9
-2
3
5
3
-2
-9
-16
-21
-23
-21
-17
-10
-3
2
4
3
0
-6
-13
-19
-22
-24
-22
-19
-15
-11
-8
-7
-6
-7
-9
-10
-12
-13
-14
-15
-16
-17
-18
-19
-20
-21
-20
-19
-18
-16
-15
-13
-12
-11
-11
-10
-8
-7
-5
-3
-2
-1
-1
-1
-1
0
0
1
2
3
3
3
2
0
-2
-4
-5
-5
-4
-3
-1
0
1
2
2
2
3
4
6
8
10
12
12
12
10
8
6
5
7
11
16
24
31
38
43
45
45
43
39
36
32
31
30
32
34
37
39
40
41
42
41
41
41
42
42
42
42
41
40
38
35
32
30
28
27
27
28
28
29
29
30
30
29
28
27
26
24
21
18
13
8
3
-3
-8
-12
-15
-16
-15
-13
-10
-7
-5
-5
-5
-8
-11
-15
-20
-23
-25
-26
-24
-21
-18
-13
-9
-5
-3
-1
-1
-1
-2
-4
-6
-8
-10
-12
-14
-16
-17
-17
-18
-17
-16
-15
-14
-13
-12
-11
-9
-8
-6
-4
-3
-2
-3
-5
-7
-10
-13
-16
-17
-16
-14
-10
-6
-2
1
3
3
2
0
-2
-4
-6
-7
-8
-9
-10
-11
-12
-13
-14
-15
-15
-14
-12
-10
-8
-6
-5
-4
-3
-3
-4
-5
-5
-6
-7
-8
-9
-10
-12
-13
-13
-14
-14
-14
-14
-13
-13
-12
-12
-12
-12
-12
-12
-13
-14
-14
-14
-13
-12
-9
-6
-3
0
2
2
1
-3
-8
-13
-19
-23
-25
-25
-23
-20
-17
-14
-12
-11
-11
-11
-11
-10
-8
-5
-2
1
2
1
-2
-7
-13
-19
-23
-24
-23
-20
-15
-11
-7
-6
-8
-12
-17
-21
-24
-24
-22
-17
-11
-5
-1
1
1
-3
-7
-13
-17
-20
-22
-21
-19
-16
-13
-10
-6
-4
-1
1
3
4
3
2
-1
-4
-8
-11
-14
-14
-13
-10
-5
-1
2
3
2
-1
-5
-11
-15
-18
-19
-18
-15
-10
-6
-3
-2
-3
-6
-9
-13
-16
-18
-18
-17
-16
-14
-13
-12
-13
-14
-16
-17
-17
-16
-15
-13
-11
-10
-11
-14
-18
-24
-30
-36
-40
-40
-36
-27
-11
10
36
65
95
124
149
168
178
178
170
154
131
105
79
54
33
18
7
1
-1
-1
-1
0
0
-1
-2
-4
-6
-8
-10
-12
-14
-15
-16
-17
-17
-16
-15
-14
-12
-10
-9
-9
-10
-12
-13
-15
-15
-15
-13
-12
-9
-8
-7
-7
-9
-11
-13
-15
-16
-15
-14
-11
-8
-6
-4
-4
-5
-7
-9
-12
-14
-15
-15
-14
-13
-11
-9
-7
-6
-6
-6
-6
-6
-7
-7
-8
-9
-9
-9
-8
-7
-5
-3
-1
0
1
0
-1
-3
-4
-5
-6
-4
-2
1
4
6
7
7
6
5
3
3
4
7
11
17
22
27
30
32
32
31
30
29
29
29
32
35
39
43
46
49
50
50
49
48
47
46
45
45
45
45
45
45
45
44
43
41
40
37
35
33
31
30
28
28
27
27
27
26
25
23
21
18
15
11
7
4
1
-1
-2
-3
-3
-3
-4
-4
-5
-7
-8
-10
-11
-13
-14
-15
-16
-17
-17
-17
-17
-17
-16
-16
-15
-13
-12
-11
-9
-8
-7
-7
-7
-8
-9
-11
-12
-12
-12
-12
-11
-10
-9
-10
-11
-14
-17
-21
-23
-24
-24
-21
-17
-13
-8
-4
-2
-1
-2
-5
-7
-10
-12
-13
-13
-12
-11
-10
-10
-11
-11
-12
-12
-11
-9
-6
-3
1
3
3
2
-2
-7
-13
-19
-25
-28
-29
-29
-26
-22
-17
-12
-9
-7
-6
-6
-7
-8
-9
-10
-9
-8
-7
-6
-6
-7
-9
-13
-17
-20
-23
-23
-22
-20
-17
-13
-11
-9
-8
-7
-7
-5
-3
0
3
5
5
2
-3
-10
-17
-24
-28
-29
-27
-22
-15
-8
-2
0
0
-4
-10
-16
-22
-25
-26
-25
-22
-18
-15
-12
-10
-9
-9
-9
-8
-7
-6
-4
-3
-2
-3
-6
-9
-12
-16
-19
-21
-21
-20
-19
-17
-16
-15
-15
-16
-17
-18
-19
-18
-16
-14
-11
-8
-5
-4
-5
-7
-10
-13
-15
-15
-14
-12
-8
-3
0
3
4
3
0
-3
-7
-10
-12
-13
-13
-13
-13
-13
-14
-15
-16
-16
-15
-13
-10
-7
-5
-3
-4
-5
-8
-12
-16
-19
-21
-21
-21
-19
-18
-17
-17
-17
-17
-16
-15
-14
-11
-9
-7
-7
-9
-14
-21
-28
-35
-38
-37
-30
-17
2
26
54
82
109
134
154
168
176
176
170
157
139
116
90
64
39
17
0
-11
-16
-17
-13
-8
-2
2
5
5
2
-2
-6
-10
-13
-14
-14
-11
-8
-4
-1
2
3
2
-1
-5
-10
-15
-19
-22
-22
-21
-19
-16
-13
-11
-10
-10
-12
-14
-15
-17
-17
-16
-15
-13
-12
-11
-12
-13
-15
-18
-19
-20
-19
-17
-13
-10
-6
-4
-2
-2
-3
-6
-8
-10
-12
-12
-11
-9
-5
0
4
9
12
14
14
12
9
5
2
0
-1
0
3
7
11
14
16
16
14
11
6
3
0
-2
-1
1
5
9
14
18
22
26
30
34
37
41
45
48
51
53
53
52
50
48
44
41
38
36
33
32
30
30
30
32
34
37
41
44
46
47
46
43
38
33
28
24
21
20
20
22
24
26
26
26
25
22
19
17
14
12
10
8
5
3
0
-3
-5
-6
-6
-5
-3
0
3
4
4
2
-2
-8
-14
-20
-25
-27
-27
-24
-19
-14
-9
-6
-5
-7
-10
-15
-20
-24
-24
-22
-18
-11
-3
3
8
9
7
3
-4
-11
-17
-21
-22
-21
-18
-14
-10
-6
-4
-2
-2
-3
-4
-5
-6
-6
-7
-7
-8
-8
-9
-9
-9
-8
-8
-7
-6
-6
-6
-7
-8
-9
-10
-10
-10
-11
-11
-12
-14
-16
-18
-21
-22
-22
-21
-19
-15
-11
-7
-4
-1
1
2
1
0
-2
-5
-8
-11
-15
-18
-21
-22
-21
-19
-16
-12
-8
-5
-4
-6
-9
-13
-17
-21
-24
-25
-25
-23
-21
-20
-19
-19
-20
-21
-21
-20
-18
-14
-10
-7
-6
-7
-10
-14
-20
-25
-27
-28
-25
-20
-14
-8
-4
-2
-4
-9
-15
-22
-28
-32
-33
-31
-28
-23
-18
-15
-14
-14
-16
-19
-21
-23
-23
-22
-20
-17
-15
-14
-14
-15
-18
-20
-23
-24
-24
-22
-20
-16
-13
-10
-8
-7
-7
-8
-9
-11
-12
-13
-13
-14
-14
-13
-13
-12
-12
-11
-10
-9
-8
-8
-9
-10
-12
-15
-18
-21
-24
-28
-30
-32
-33
-32
-30
-26
-20
-14
-7
-2
2
2
-1
-7
-15
-24
-33
-38
-41
-40
-35
-29
-23
-18
-17
-18
-22
-26
-29
-27
-20
-5
16
43
73
103
130
152
167
174
173
165
150
131
108
84
61
40
22
9
1
-3
-2
1
5
9
10
8
4
-3
-11
-18
-24
-28
-30
-30
-27
-24
-20
-16
-11
-6
-2
1
3
4
3
-1
-5
-10
-15
-19
-21
-21
-20
-18
-16
-14
-13
-13
-14
-14
-13
-11
-8
-5
-2
0
-1
-3
-8
-13
-18
-22
-23
-21
-18
-12
-6
0
5
8
9
8
6
3
-1
-4
-8
-11
-14
-16
-17
-17
-16
-14
-10
-5
0
6
11
15
19
20
20
18
15
10
5
0
-4
-6
-6
-3
2
9
17
25
31
35
36
35
32
28
24
21
21
22
25
29
33
36
38
37
36
34
33
34
36
41
47
54
59
62
63
60
54
47
40
34
30
28
29
32
35
37
38
37
34
30
26
22
18
15
14
13
13
13
13
12
11
10
9
8
7
5
3
1
-2
-6
-9
-11
-12
-12
-10
-7
-3
0
1
1
-1
-5
-9
-14
-17
-19
-19
-17
-15
-12
-10
-9
-9
-10
-11
-11
-11
-8
-5
-2
1
3
3
1
-3
-7
-10
-12
-13
-11
-7
-3
1
4
4
2
-2
-8
-13
-18
-20
-20
-18
-15
-11
-7
-5
-4
-5
-6
-8
-8
-8
-6
-3
1
4
7
7
6
3
-1
-5
-8
-11
-12
-11
-10
-8
-6
-5
-5
-5
-6
-7
-8
-8
-8
-8
-7
-6
-5
-4
-3
-2
-2
-2
-2
-3
-5
-8
-10
-12
-13
-12
-9
-4
2
7
11
12
10
5
-2
-9
-16
-20
-20
-18
-13
-8
-3
-1
-1
-4
-9
-14
-18
-19
-17
-12
-5
3
9
13
13
10
4
-3
-9
-13
-14
-12
-8
-3
1
5
6
5
3
-1
-4
-7
-8
-9
-8
-8
-8
-9
-10
-12
-13
-13
-11
-8
-3
3
8
11
13
11
7
1
-6
-13
-17
-19
-18
-14
-9
-2
3
7
9
8
4
0
-4
-7
-8
-6
-3
2
7
11
14
14
12
9
5
2
0
0
2
5
8
10
10
10
7
4
1
-1
-1
0
3
6
8
9
7
4
-2
-8
-12
-15
-14
-10
-5
5
