-3
-3
-3
-3
-2
-1
0
1
1
2
2
2
1
0
-1
-2
-2
-3
-3
-2
-2
-2
-1
-1
-1
-1
-2
-2
-2
-1
0
1
3
4
6
6
6
5
3
0
-2
-5
-7
-8
-9
-9
-9
-9
-9
-9
-10
-10
-11
-11
-11
-10
-10
-9
-9
-10
-11
-13
-15
-17
-18
-19
-20
-19
-19
-18
-17
-17
-17
-19
-21
-23
-26
-28
-29
-28
-24
-17
-6
9
27
47
66
84
98
106
108
102
90
73
54
34
16
1
-10
-16
-20
-20
-19
-18
-18
-18
-20
-22
-25
-27
-29
-30
-30
-29
-28
-26
-25
-25
-26
-27
-29
-32
-34
-35
-36
-36
-35
-33
-31
-28
-25
-21
-18
-16
-13
-12
-11
-10
-10
-11
-11
-12
-12
-12
-11
-10
-9
-8
-7
-7
-7
-8
-9
-9
-9
-9
-8
-7
-5
-4
-4
-3
-3
-3
-2
-1
1
3
7
10
12
14
15
14
13
12
11
10
11
12
14
17
19
20
20
19
17
15
12
10
9
8
9
10
11
12
13
13
13
12
11
10
9
8
8
8
8
8
8
7
6
4
2
0
-3
-5
-6
-8
-9
-9
-10
-9
-9
-8
-7
-6
-5
-5
-5
-6
-7
-9
-11
-13
-15
-17
-18
-18
-18
-17
-16
-14
-13
-12
-11
-11
-12
-12
-13
-13
-13
-12
-11
-9
-8
-6
-5
-4
-4
-4
-4
-5
-5
-6
-6
-6
-5
-5
-6
-6
-7
-8
-9
-10
-11
-11
-11
-10
-9
-8
-8
-7
-7
-8
-8
-9
-9
-9
-9
-8
-7
-5
-4
-3
-2
-1
-1
-1
-2
-3
-3
-3
-3
-1
1
4
7
10
14
16
18
18
17
16
14
11
10
9
8
8
8
8
8
7
6
4
2
1
0
0
1
2
3
3
3
1
-1
-4
-6
-8
-9
-9
-7
-5
-3
-1
0
1
0
-1
-2
-4
-5
-6
-7
-6
-5
-1
6
16
29
47
67
88
108
125
137
140
136
123
104
81
56
32
13
-1
-9
-12
-11
-7
-2
3
6
7
7
6
5
4
4
4
5
6
7
8
8
8
8
8
9
11
13
15
16
17
17
16
14
12
10
9
8
9
10
11
13
15
15
15
15
14
12
11
10
9
8
8
8
8
9
10
11
12
13
15
16
17
18
19
20
20
21
21
22
22
23
23
24
24
24
24
24
25
25
26
27
28
29
30
31
31
32
33
34
35
36
36
36
36
35
33
31
29
27
26
26
26
27
28
28
27
26
24
22
20
18
17
16
16
16
16
16
15
13
11
9
8
6
5
5
5
4
4
3
2
0
-1
-2
-3
-3
-3
-3
-3
-3
-4
-5
-6
-7
-8
-9
-9
-9
-9
-8
-7
-7
-6
-6
-6
-6
-7
-7
-7
-8
-8
-9
-10
-10
-10
-10
-10
-10
-10
-10
-10
-10
-11
-12
-14
-15
-16
-16
-16
-16
-15
-13
-12
-12
-11
-12
-13
-15
-16
-18
-20
-20
-20
-19
-17
-15
-13
-12
-12
-12
-13
-15
-17
-19
-20
-20
-20
-19
-18
-18
-17
-18
-19
-20
-20
-20
-19
-16
-14
-11
-8
-6
-5
-5
-6
-7
-9
-10
-11
-12
-13
-14
-15
-17
-18
-19
-20
-21
-21
-20
-20
-19
-19
-20
-22
-24
-26
-27
-28
-29
-28
-28
-27
-26
-25
-25
-25
-25
-25
-25
-24
-23
-23
-23
-24
-26
-29
-31
-33
-32
-29
-21
-10
6
25
46
68
88
105
117
123
122
114
100
83
62
41
22
6
-7
-16
-20
-22
-22
-21
-21
-20
-21
-22
-24
-25
-26
-26
-25
-24
-22
-21
-20
-19
-19
-20
-21
-23
-24
-24
-24
-23
-22
-21
-20
-19
-18
-18
-17
-17
-17
-16
-16
-15
-15
-15
-14
-14
-15
-15
-15
-15
-15
-14
-14
-13
-12
-11
-11
-10
-9
-9
-8
-8
-7
-7
-7
-7
-7
-7
-7
-7
-7
-6
-5
-3
-2
0
2
3
4
6
7
8
9
10
10
11
11
12
12
12
11
11
10
9
8
6
4
3
1
0
-1
-2
-1
-1
0
1
2
2
2
2
1
1
0
-1
-2
-2
-3
-4
-5
-7
-8
-9
-10
-11
-10
-10
-9
-8
-8
-8
-9
-10
-11
-12
-14
-14
-15
-15
-16
-16
-17
-18
-19
-19
-19
-18
-17
-14
-12
-10
-9
-9
-10
-12
-13
-15
-16
-16
-15
-13
-11
-9
-8
-7
-7
-8
-9
-10
-11
-11
-12
-12
-13
-13
-14
-14
-14
-14
-13
-12
-10
-9
-8
-8
-8
-9
-10
-11
-12
-12
-12
-12
-12
-12
-12
-12
-12
-13
-14
-14
-15
-15
-15
-15
-15
-15
-15
-14
-14
-13
-12
-11
-11
-10
-10
-11
-11
-12
-13
-14
-14
-14
-14
-14
-14
-13
-13
-13
-13
-13
-13
-13
-13
-13
-13
-12
-12
-13
-13
-14
-15
-16
-17
-17
-16
-15
-13
-10
-8
-5
-3
-1
0
0
0
0
-1
-1
-1
-1
0
0
1
1
1
0
-1
-3
-5
-7
-9
-11
-13
-14
-15
-16
-15
-15
-14
-13
-12
-12
-12
-12
-13
-13
-14
-14
-14
-14
-14
-14
-14
-14
-14
-15
-15
-15
-16
-16
-17
-18
-19
-19
-18
-16
-11
-3
9
26
46
69
93
115
133
146
151
149
139
122
101
78
55
34
17
4
-4
-8
-10
-10
-9
-8
-8
-8
-9
-10
-11
-12
-13
-13
-13
-13
-13
-12
-11
-10
-9
-8
-7
-6
-5
-5
-6
-7
-8
-9
-9
-10
-9
-9
-8
-7
-6
-6
-5
-4
-4
-3
-2
-1
-1
0
0
0
-1
-2
-3
-4
-5
-5
-4
-2
-1
1
3
5
6
7
8
8
8
8
8
8
8
8
9
10
11
12
13
14
14
14
14
14
13
13
13
14
14
15
16
17
17
17
16
16
15
14
14
14
14
15
15
15
15
14
14
13
12
11
10
9
9
8
8
7
6
6
5
4
4
4
3
3
2
1
-1
-3
-5
-6
-8
-8
-8
-7
-5
-4
-2
-1
-1
-1
-2
-4
-5
-7
-8
-9
-9
-9
-8
-7
-6
-6
-5
-5
-6
-6
-6
-6
-6
-6
-6
-6
-6
-6
-6
-6
-6
-6
-6
-5
-4
-3
-2
0
1
2
2
1
0
-2
-3
-5
-5
-5
-5
-4
-3
-2
-2
-2
-3
-4
-6
-8
-10
-12
-12
-12
-12
-10
-9
-7
-5
-4
-3
-3
-3
-4
-4
-5
-6
-6
-6
-6
-6
-6
-6
-6
-7
-7
-7
-7
-7
-7
-7
-6
-6
-5
-5
-5
-6
-7
-8
-10
-11
-11
-11
-11
-10
-9
-8
-8
-8
-9
-10
-11
-11
-12
-11
-10
-9
-8
-7
-7
-7
-7
-8
-9
-10
-10
-11
-11
-11
-11
-12
-14
-15
-16
-17
-17
-17
-15
-14
-12
-11
-11
-11
-13
-14
-16
-17
-17
-16
-14
-12
-9
-7
-6
-6
-7
-8
-10
-12
-13
-13
-13
-13
-12
-12
-12
-13
-14
-15
-16
-16
-16
-15
-13
-11
-9
-8
-7
-7
-7
-7
-7
-6
-5
-2
0
3
6
8
10
10
10
10
9
8
7
7
7
6
6
5
3
1
-1
-4
-6
-8
-9
-10
-9
-8
-7
-6
-4
-4
-4
-5
-6
-7
-8
-9
-10
-10
-10
-9
-8
-7
-6
-6
-6
-7
-8
-9
-10
-10
-10
-9
-7
-3
3
13
27
44
65
88
111
131
147
157
158
151
137
116
93
69
47
29
16
8
4
4
4
6
6
5
4
2
0
-1
-2
-3
-2
-2
-1
0
0
1
1
2
3
4
4
4
4
3
3
2
1
1
1
2
2
3
4
4
4
3
3
2
2
2
3
4
5
6
8
9
9
10
11
11
12
13
13
13
13
13
12
11
10
10
10
11
13
16
18
21
22
23
22
21
19
18
17
17
19
22
25
29
32
34
34
33
31
28
25
24
23
24
26
29
32
34
35
35
34
32
29
27
25
24
23
23
24
24
25
24
24
23
21
20
19
18
17
17
17
17
17
16
15
14
13
11
10
10
9
9
8
8
7
7
6
5
5
5
6
6
7
8
8
7
6
5
4
3
2
2
3
3
4
5
6
7
7
8
8
8
8
9
9
9
10
10
9
9
8
7
6
5
5
5
5
6
7
9
10
11
11
11
10
9
7
5
3
2
2
3
4
6
8
10
11
12
12
11
10
8
7
6
5
4
4
4
5
5
6
7
7
7
7
7
6
6
5
5
4
4
3
3
3
4
4
4
5
5
5
5
5
5
5
5
5
4
3
2
1
0
0
0
1
3
4
5
6
6
5
4
2
0
-2
-3
-3
-3
-2
-1
0
1
1
0
0
-1
-2
-3
-3
-3
-4
-4
-5
-5
-5
-5
-5
-5
-4
-3
-2
0
0
1
0
-1
-2
-3
-5
-6
-7
-7
-6
-4
-2
0
1
2
2
1
0
-2
-4
-6
-7
-7
-7
-6
-5
-4
-4
-4
-5
-5
-6
-6
-6
-5
-5
-4
-4
-4
-4
-5
-6
-6
-5
-5
-4
-4
-3
-3
-4
-5
-6
-7
-7
-6
-5
-4
-2
0
2
4
5
5
6
7
7
8
9
10
10
10
9
9
8
7
5
4
3
1
-1
-3
-5
-7
-8
-8
-8
-7
-5
-3
-1
0
1
1
0
-1
-3
-5
-6
-6
-6
-5
-4
-2
0
0
1
0
-1
-3
-5
-6
-8
-9
-10
-9
-6
0
8
21
37
56
78
101
122
138
149
152
146
132
112
88
62
38
19
4
-5
-8
-7
-5
-1
1
2
1
-1
-4
-7
-10
-11
-12
-11
-10
-8
-7
-6
-7
-7
-8
-9
-10
-11
-12
-12
-12
-13
-13
-14
-14
-15
-15
-14
-14
-14
-13
-13
-13
-13
-13
-14
-15
-15
-16
-16
-15
-15
-14
-13
-13
-12
-12
-11
-11
-10
-10
-10
-10
-10
-10
-9
-9
-9
-8
-7
-5
-3
-1
2
4
5
6
7
8
8
8
9
10
10
11
11
12
12
12
12
12
12
13
14
15
16
17
17
17
16
14
12
10
9
7
5
4
3
2
1
0
-1
-2
-2
-2
-3
-3
-3
-4
-5
-5
-7
-8
-9
-10
-12
-13
-15
-17
-19
-21
-23
-25
-27
-28
-28
-28
-27
-26
-26
-25
-25
-26
-27
-27
-28
-28
-28
-27
-27
-26
-26
-26
-26
-27
-29
-30
-30
-30
-29
-28
-27
-26
-25
-24
-25
-25
-26
-27
-27
-28
-27
-27
-27
-28
-28
-29
-30
-32
-33
-34
-34
-34
-33
-33
-32
-31
-31
-31
-31
-32
-32
-33
-33
-33
-33
-33
-33
-33
-33
-33
-33
-34
-34
-35
-36
-36
-37
-37
-37
-38
-38
-38
-38
-39
-39
-40
-40
-40
-39
-39
-37
-36
-35
-34
-34
-34
-35
-36
-37
-38
-39
-39
-39
-40
-40
-40
-41
-41
-41
-41
-41
-41
-40
-39
-37
-36
-34
-33
-31
-29
-28
-26
-25
-25
-25
-25
-26
-28
-29
-30
-31
-31
-31
-29
-28
-26
-24
-23
-22
-22
-21
-21
-22
-22
-23
-24
-24
-25
-25
-26
-26
-26
-25
-26
-26
-27
-27
-28
-29
-30
-29
-28
-26
-24
-22
-20
-19
-19
-20
-21
-23
-24
-26
-26
-25
-24
-23
-22
-21
-21
-21
-22
-24
-26
-27
-28
-28
-27
-25
-23
-20
-18
-16
-15
-16
-17
-19
-21
-22
-22
-22
-20
-19
-17
-17
-18
-21
-25
-30
-35
-40
-44
-46
-47
-47
-46
-45
-45
-46
-46
-47
-48
-48
-47
-46
-45
-44
-43
-44
-45
-46
-48
-48
-48
-47
-46
-45
-44
-45
-46
-49
-51
-53
-54
-53
-48
-40
-28
-13
5
25
46
67
85
100
109
111
106
94
76
53
29
5
-16
-32
-43
-48
-50
-49
-46
-44
-43
-43
-45
-47
-49
-50
-50
-49
-48
-47
-46
-45
-45
-45
-45
-45
-44
-43
-41
-39
-38
-38
-39
-40
-42
-43
-43
-42
-40
-38
-36
-34
-34
-36
-38
-40
-43
-44
-43
-41
-38
-34
-31
-28
-27
-26
-27
-28
-29
-30
-31
-31
-31
-32
-33
-34
-35
-37
-37
-37
-35
-33
-31
-29
-28
-28
-29
-31
-33
-34
-33
-31
-28
-24
-20
-17
-16
-15
-16
-18
-21
-23
-25
-25
-24
-23
-21
-20
-19
-19
-20
-22
-25
-28
-31
-33
-35
-36
-35
-33
-31
-29
-27
-25
-24
-25
-26
-28
-30
-31
-33
-33
-34
-33
-32
-32
-30
-29
-27
-25
-22
-18
-13
-8
-3
1
5
8
10
13
16
19
23
27
32
37
42
47
52
57
62
67
71
76
79
82
84
86
87
88
89
91
94
97
101
105
108
111
113
114
114
115
115
116
117
117
118
117
116
114
111
108
106
104
104
105
106
108
110
111
111
110
108
106
103
101
99
98
97
97
96
95
94
92
90
87
84
81
78
76
74
73
73
73
73
75
76
78
79
79
80
79
78
76
74
71
69
67
66
65
64
64
64
64
64
64
64
63
62
61
60
59
58
58
58
59
60
61
62
62
61
60
59
57
56
54
53
53
53
53
54
55
55
56
57
57
56
55
54
53
51
49
48
47
46
46
46
46
47
47
47
47
47
47
47
47
48
49
50
51
52
53
54
55
56
57
58
59
59
60
60
60
60
59
58
56
55
55
54
54
53
53
52
52
51
50
49
47
45
43
41
38
34
31
29
27
26
27
27
29
30
30
30
28
27
25
23
23
23
23
24
25
26
26
24
22
20
18
15
14
13
13
13
14
17
22
29
39
53
70
90
112
132
150
162
168
166
157
141
121
98
74
53
36
23
14
10
8
9
10
12
13
13
12
10
7
5
3
1
-1
-2
-2
-2
-1
0
0
1
1
0
0
-2
-4
-6
-8
-9
-10
-11
-10
-9
-7
-4
-2
-1
0
0
-2
-3
-6
-8
-10
-11
-11
-11
-10
-9
-8
-7
-7
-7
-8
-10
-11
-13
-14
-14
-13
-12
-10
-9
-7
-6
-5
-5
-6
-6
-6
-5
-4
-3
-1
1
3
5
6
7
7
7
7
7
8
10
11
13
13
14
13
12
10
8
6
4
3
2
1
1
1
0
-1
-3
-5
-7
-10
-12
-13
-14
-16
-17
-18
-19
-21
-22
-24
-25
-25
-26
-26
-27
-28
-30
-32
-35
-38
-41
-43
-44
-44
-44
-43
-42
-41
-42
-43
-46
-48
-50
-52
-52
-51
-49
-46
-43
-42
-41
-41
-43
-45
-48
-50
-50
-50
-49
-47
-45
-42
-40
-39
-38
-38
-39
-39
-40
-40
-41
-41
-41
-41
-42
-42
-42
-42
-41
-40
-39
-38
-36
-36
-35
-36
-37
-39
-41
-43
-45
-45
-45
-44
-42
-40
-38
-37
-36
-37
-37
-38
-39
-40
-40
-40
-39
-38
-37
-37
-37
-37
-38
-39
-40
-41
-42
-42
-42
-42
-41
-41
-41
-41
-40
-40
-40
-40
-41
-41
-42
-43
-44
-45
-45
-45
-45
-45
-44
-43
-42
-41
-41
-41
-41
-41
-42
-43
-43
-44
-45
-45
-45
-45
-44
-44
-43
-43
-42
-42
-42
-42
-42
-43
-43
-44
-44
-45
-46
-46
-47
-48
-49
-50
-51
-51
-52
-52
-52
-52
-52
-51
-51
-50
-49
-48
-47
-46
-44
-43
-42
-41
-40
-39
-38
-37
-36
-36
-35
-35
-35
-35
-35
-36
-36
-37
-37
-37
-37
-37
-37
-37
-36
-36
-36
-37
-38
-39
-41
-44
-46
-48
-50
-51
-51
-51
-50
-49
-49
-48
-49
-50
-51
-52
-53
-53
-53
-52
-52
-51
-50
-50
-51
-52
-53
-55
-56
-57
-56
-55
-52
-46
-38
-26
-11
8
29
52
74
93
107
114
113
103
87
65
41
18
-3
-20
-31
-36
-38
-37
-35
-33
-32
-33
-34
-36
-38
-40
-40
-40
-38
-36
-34
-32
-30
-28
-26
-25
-23
-22
-21
-21
-20
-20
-21
-21
-21
-21
-21
-20
-20
-19
-18
-18
-18
-18
-18
-19
-19
-18
-17
-16
-14
-12
-10
-8
-7
-6
-6
-6
-6
-6
-5
-5
-4
-3
-1
0
2
3
3
4
4
4
5
7
8
10
13
14
16
16
16
16
15
14
14
14
16
18
20
22
24
25
25
24
23
22
22
22
23
25
27
28
30
30
30
29
28
27
25
25
24
24
24
24
24
23
22
21
19
18
17
17
17
17
17
16
16
14
12
10
8
6
4
3
2
1
2
2
3
5
6
7
8
8
8
8
7
6
4
3
1
0
0
0
0
2
3
4
5
6
6
6
6
5
5
4
4
4
3
3
4
4
4
5
6
7
8
9
10
11
12
12
13
13
13
13
13
14
14
14
13
12
11
10
9
8
7
7
8
8
9
10
11
10
9
8
6
4
2
1
0
-1
0
0
0
1
2
2
3
3
4
4
5
5
6
7
7
8
8
8
8
7
6
6
5
4
3
3
3
4
5
6
7
7
7
7
7
6
5
5
4
4
4
4
5
6
6
7
8
9
10
10
11
12
13
13
13
13
13
12
12
12
12
13
14
16
18
21
24
26
28
30
31
31
30
29
28
27
25
24
22
21
20
18
17
15
12
10
8
6
5
5
5
6
8
9
10
11
11
10
9
8
7
7
6
6
7
7
7
6
5
4
3
2
1
1
2
3
5
9
15
25
37
53
72
92
112
130
143
149
148
140
124
104
81
58
37
20
8
1
-2
0
3
7
11
14
14
13
11
8
4
2
0
-1
-1
0
2
4
5
5
5
4
3
2
1
1
2
4
5
7
7
6
4
2
-1
-4
-5
-6
-5
-3
-1
1
1
1
0
-3
-6
-8
-10
-10
-10
-9
-7
-5
-3
-2
-2
-2
-3
-3
-4
-4
-4
-3
-3
-2
-2
-1
-1
0
1
2
4
5
7
8
8
8
8
8
7
7
7
8
10
12
13
15
16
17
17
16
15
14
12
11
9
8
7
6
5
3
2
1
0
-1
-2
-3
-4
-5
-6
-7
-7
-8
-8
-8
-8
-8
-8
-8
-10
-11
-13
-15
-17
-19
-20
-20
-20
-19
-19
-18
-18
-19
-19
-21
-22
-23
-24
-25
-25
-25
-24
-24
-24
-23
-23
-23
-22
-22
-21
-21
-20
-20
-20
-19
-19
-19
-19
-19
-19
-18
-18
-19
-19
-20
-21
-21
-21
-20
-19
-17
-16
-14
-13
-13
-13
-15
-17
-19
-20
-21
-21
-20
-19
-17
-15
-13
-12
-11
-11
-11
-11
-11
-11
-11
-10
-10
-10
-10
-11
-11
-12
-12
-11
-10
-10
-9
-9
-9
-10
-11
-12
-12
-12
-11
-10
-7
-5
-3
-1
-1
-1
-2
-3
-4
-4
-4
-4
-3
-1
-1
0
0
-1
-1
-2
-2
-2
-1
1
3
4
6
6
6
6
6
5
6
6
8
10
12
14
16
17
18
18
18
17
17
16
16
16
16
16
16
15
14
12
9
7
4
1
-1
-2
-3
-3
-2
-1
-1
0
0
0
1
1
2
2
3
3
3
3
2
1
-1
-3
-5
-7
-9
-9
-8
-6
-1
8
19
35
53
74
96
117
136
149
156
155
147
131
111
87
64
41
23
9
0
-5
-7
-7
-6
-5
-5
-5
-5
-6
-6
-5
-4
-3
-2
-1
-1
-2
-3
-5
-6
-7
-7
-6
-5
-3
-2
0
0
0
0
-1
-1
-2
-2
-3
-2
-2
-2
-2
-2
-2
-2
-3
-2
-2
0
1
3
5
6
7
8
8
7
6
6
6
6
7
9
11
13
14
14
14
13
12
11
11
11
12
14
16
18
19
20
21
21
20
20
20
20
21
22
23
25
26
27
28
28
28
27
26
25
24
23
22
21
20
19
18
18
18
17
17
16
15
15
14
13
12
11
11
10
10
9
9
9
8
7
6
5
2
0
-4
-7
-10
-12
-13
-13
-12
-11
-9
-8
-7
-8
-10
-13
-16
-18
-20
-20
-19
-17
-15
-13
-12
-13
-14
-17
-19
-21
-23
-22
-21
-18
-15
-12
-10
-9
-9
-11
-12
-15
-16
-18
-19
-19
-20
-20
-20
-21
-22
-23
-24
-25
-25
-25
-24
-23
-22
-21
-21
-21
-21
-22
-23
-23
-24
-24
-24
-25
-25
-25
-26
-27
-28
-29
-30
-30
-30
-30
-29
-28
-27
-27
-27
-28
-29
-31
-32
-34
-34
-34
-33
-32
-30
-28
-27
-26
-26
-27
-28
-28
-29
-28
-27
-26
-24
-23
-22
-21
-21
-21
-20
-20
-18
-16
-14
-12
-10
-9
-9
-10
-12
-13
-15
-17
-18
-20
-21
-22
-24
-26
-27
-29
-29
-28
-27
-24
-22
-19
-18
-18
-19
-21
-24
-27
-29
-29
-29
-27
-23
-20
-17
-15
-14
-15
-16
-18
-20
-22
-24
-25
-25
-25
-24
-22
-19
-13
-4
8
24
43
65
87
108
125
137
141
137
125
107
85
61
38
18
3
-7
-12
-14
-13
-11
-10
-9
-10
-12
-14
-16
-17
-18
-18
-17
-16
-16
-15
-15
-15
-16
-16
-16
-15
-15
-14
-14
-13
-13
-14
-14
-15
-15
-14
-14
-13
-13
-12
-12
-12
-11
-11
-11
-10
-9
-8
-6
-5
-4
-3
-2
-1
-1
0
0
0
0
0
-1
-1
-1
-1
-1
-1
0
1
2
3
3
3
3
4
4
6
8
10
12
14
16
16
16
15
15
14
14
15
16
18
20
22
24
24
24
24
23
22
21
20
19
18
16
15
12
10
8
7
6
6
6
7
8
9
9
9
7
5
2
0
-3
-5
-7
-8
-9
-9
-10
-10
-11
-11
-12
-12
-12
-12
-12
-12
-12
-13
-13
-14
-15
-16
-17
-17
-18
-18
-17
-16
-16
-15
-14
-14
-14
-14
-15
-15
-15
-14
-14
-13
-12
-12
-11
-10
-10
-10
-10
-10
-11
-12
-12
-13
-14
-16
-17
-17
-18
-18
-18
-17
-16
-15
-15
-14
-13
-13
-14
-14
-14
-15
-15
-15
-15
-15
-15
-15
-15
-15
-15
-15
-15
-14
-14
-14
-14
-14
-14
-14
-14
-14
-14
-13
-13
-12
-11
-11
-10
-10
-9
-9
-8
-7
-7
-6
-6
-5
-5
-4
-2
0
2
4
5
7
8
8
8
8
7
7
6
6
6
5
4
2
0
-2
-5
-7
-9
-10
-10
-10
-9
-8
-7
-6
-7
-8
-9
-10
-12
-13
-13
-13
-12
-11
-10
-9
-9
-9
-10
-11
-12
-14
-15
-17
-19
-21
-21
-21
-19
-13
-5
8
25
46
69
93
115
133
144
147
142
129
110
87
63
41
23
10
2
-2
-2
-2
0
0
-1
-4
-7
-10
-13
-14
-15
-15
-14
-13
-12
-12
-12
-13
-13
-14
-13
-13
-12
-10
-9
-7
-5
-3
-2
-1
0
0
-1
-1
-2
-3
-4
-4
-4
-4
-3
-1
1
2
3
4
4
3
1
-1
-2
-3
-3
-3
-1
0
2
4
5
6
6
5
4
3
2
2
2
3
4
6
9
11
13
16
18
19
20
21
21
21
20
20
19
18
18
18
18
19
20
21
22
22
22
21
21
20
19
18
18
18
18
19
19
19
19
18
17
16
14
14
13
13
13
12
12
11
10
9
7
4
2
1
0
-1
-1
-1
-1
-1
-2
-2
-4
-5
-7
-8
-9
-10
-11
-11
-11
-10
-9
-8
-8
-7
-6
-6
-6
-5
-5
-4
-4
-3
-3
-3
-3
-4
-5
-6
-7
-7
-7
-6
-5
-3
-2
-1
-1
-1
-3
-5
-7
-9
-9
-9
-8
-6
-4
-2
-1
0
-1
-2
-4
-6
-7
-8
-8
-7
-5
-3
-2
-2
-2
-3
-4
-6
-7
-8
-9
-9
-9
-9
-8
-8
-8
-8
-8
-8
-8
-7
-7
-6
-4
-3
-2
-1
0
1
2
3
4
5
6
7
8
9
9
10
10
9
8
7
5
2
-1
-3
-6
-8
-9
-10
-10
-10
-10
-10
-10
-11
-11
-12
-12
-13
-13
-13
-13
-13
-13
-13
-14
-15
-15
-15
-15
-15
-14
-14
-15
-16
-18
-21
-23
-25
-25
-22
-17
-7
6
23
44
66
90
112
130
143
148
146
135
117
94
69
45
23
6
-5
-11
-12
-10
-7
-5
-4
-6
-9
-13
-18
-21
-23
-23
-22
-20
-18
-16
-14
-13
-12
-13
-13
-14
-14
-14
-15
-15
-16
-16
-16
-16
-16
-15
-14
-13
-11
-10
-9
-8
-7
-7
-7
-7
-7
-8
-9
-9
-10
-11
-12
-12
-12
-11
-10
-7
-5
-3
-1
1
1
1
0
-1
-2
-2
-2
-2
0
2
4
5
7
8
8
9
9
10
11
13
14
15
16
16
15
15
14
14
14
15
16
17
18
19
18
17
15
13
11
9
9
9
10
11
12
12
12
10
8
6
3
2
1
1
2
3
4
4
4
3
1
-1
-4
-6
-7
-9
-9
-10
-10
-11
-12
-12
-13
-14
-15
-15
-16
-16
-17
-18
-19
-19
-20
-20
-19
-18
-16
-14
-13
-11
-11
-11
-12
-14
-16
-17
-18
-19
-19
-19
-18
-18
-18
-17
-17
-17
-16
-16
-15
-14
-13
-13
-12
-13
-13
-14
-15
-16
-17
-17
-17
-17
-17
-18
-18
-18
-18
-18
-18
-17
-16
-15
-14
-14
-14
-15
-17
-18
-19
-19
-19
-19
-18
-17
-16
-16
-16
-17
-18
-19
-19
-19
-19
-18
-17
-15
-13
-12
-11
-10
-9
-8
-7
-6
-5
-4
-3
-2
-2
-3
-4
-6
-8
-9
-11
-13
-14
-15
-16
-18
-18
-19
-20
-21
-22
-22
-23
-23
-23
-23
-24
-24
-25
-25
-26
-26
-26
-26
-26
-26
-26
-26
-27
-28
-30
-31
-33
-35
-37
-37
-35
-29
-20
-6
13
35
60
85
108
126
137
139
132
117
96
72
47
25
8
-5
-12
-14
-14
-12
-10
-10
-11
-13
-16
-19
-21
-21
-20
-19
-17
-15
-14
-14
-14
-15
-16
-17
-17
-16
-14
-13
-11
-9
-8
-8
-9
-11
-12
-13
-14
-14
-14
-12
-11
-9
-7
-5
-4
-3
-3
-3
-3
-3
-4
-4
-4
-4
-3
-3
-2
-1
0
2
3
4
4
5
5
5
5
6
7
9
11
13
15
16
17
17
16
15
14
13
13
14
16
18
20
22
23
23
23
22
20
19
19
20
21
22
23
24
23
22
19
16
13
10
8
7
7
8
9
10
11
11
10
10
9
8
8
7
8
8
8
7
6
4
2
0
-3
-5
-7
-7
-7
-6
-4
-2
0
2
2
2
2
2
2
3
5
7
11
15
18
20
21
21
19
15
12
8
5
4
4
5
8
10
13
15
15
14
12
10
7
4
1
-1
-2
-3
-3
-4
-5
-6
-8
-9
-10
-9
-8
-6
-4
-2
0
1
0
-1
-4
-6
-8
-9
-9
-8
-6
-4
-2
-1
0
-1
-3
-4
-6
-6
-6
-5
-3
-1
1
1
1
1
-1
-2
-3
-4
-4
-4
-3
-1
0
1
2
3
4
5
5
5
5
5
4
2
0
-3
-5
-7
-9
-10
-11
-11
-12
-12
-13
-14
-14
-15
-15
-15
-15
-14
-14
-13
-12
-11
-10
-9
-8
-8
-9
-9
-10
-11
-12
-14
-15
-17
-20
-22
-25
-26
-25
-21
-13
-1
17
38
62
87
108
125
136
138
132
118
99
77
53
31
12
-3
-13
-19
-22
-22
-20
-18
-17
-16
-16
-17
-18
-19
-21
-22
-22
-21
-20
-18
-16
-14
-12
-12
-12
-13
-14
-15
-16
-17
-17
-16
-15
-14
-14
-13
-13
-13
-12
-12
-11
-10
-9
-7
-6
-4
-3
-3
-3
-3
-3
-3
-3
-3
-2
-1
1
2
4
5
6
6
6
6
6
6
6
7
8
10
12
15
17
19
20
21
21
20
20
20
20
21
22
23
24
25
25
26
26
25
25
26
26
26
27
27
26
25
24
22
20
19
18
17
17
18
18
18
18
18
17
16
15
14
12
11
10
8
5
3
0
-3
-6
-8
-9
-10
-9
-8
-7
-5
-4
-3
-3
-3
-4
-4
-5
-6
-6
-6
-6
-6
-6
-7
-8
-9
-9
-9
-9
-8
-7
-5
-4
-3
-3
-3
-4
-5
-6
-7
-8
-8
-9
-8
-8
-7
-6
-5
-4
-3
-2
-2
-2
-2
-3
-3
-4
-4
-4
-4
-4
-3
-3
-3
-3
-3
-4
-4
-4
-3
-3
-3
-4
-5
-6
-7
-8
-8
-8
-7
-6
-4
-2
0
0
0
-1
-3
-5
-6
-6
-5
-3
-1
1
3
4
4
4
3
2
1
1
2
3
4
5
5
4
2
0
-3
-5
-7
-9
-10
-10
-9
-9
-9
-9
-9
-10
-11
-12
-13
-13
-13
-13
-12
-12
-11
-11
-11
-12
-13
-14
-16
-18
-19
-21
-21
-22
-22
-22
-22
-23
-24
-25
-25
-23
-20
-12
-1
15
35
58
81
103
119
129
131
124
109
88
64
40
19
2
-9
-14
-15
-13
-9
-6
-4
-4
-6
-9
-13
-16
-17
-18
-18
-17
-15
-14
-13
-13
-13
-14
-14
-14
-14
-14
-14
-13
-13
-12
-12
-11
-11
-10
-10
-9
-9
-10
-10
-11
-12
-12
-13
-13
-13
-12
-11
-10
-9
-8
-8
-7
-6
-5
-4
-3
-3
-3
-4
-5
-6
-7
-7
-7
-6
-5
-3
-1
1
2
2
2
2
1
1
2
3
5
7
8
8
8
7
6
5
4
3
4
5
6
7
8
8
7
7
6
5
5
5
5
6
6
6
5
4
2
1
0
0
-1
-1
0
-1
-1
-2
-4
-5
-7
-8
-10
-11
-12
-12
-13
-13
-14
-14
-14
-14
-14
-13
-13
-13
-13
-13
-14
-15
-16
-17
-18
-18
-18
-17
-16
-15
-14
-13
-13
-14
-14
-15
-16
-17
-17
-18
-18
-17
-17
-16
-16
-15
-15
-14
-14
-14
-15
-15
-15
-15
-15
-15
-14
-14
-14
-13
-13
-14
-14
-15
-16
-16
-16
-16
-16
-15
-15
-14
-14
-14
-14
-15
-15
-16
-16
-16
-15
-15
-14
-14
-14
-14
-14
-14
-14
-14
-14
-14
-15
-15
-15
-15
-15
-15
-14
-14
-13
-12
-11
-9
-8
-7
-6
-5
-4
-3
-2
-1
1
2
3
3
2
0
-3
-6
-9
-12
-14
-15
-16
-16
-16
-15
-15
-15
-15
-15
-15
-15
-15
-15
-14
-15
-15
-15
-16
-17
-17
-18
-18
-18
-18
-17
-17
-16
-17
-18
-19
-21
-23
-24
-23
-19
-11
1
18
39
62
84
104
119
128
129
122
109
90
69
48
29
13
2
-5
-9
-10
-10
-10
-11
-12
-15
-17
-20
-22
-22
-22
-21
-19
-17
-15
-14
-13
-13
-14
-15
-16
-18
-18
-18
-18
-16
-15
-14
-13
-12
-12
-12
-12
-12
-12
-11
-11
-10
-9
-9
-9
-9
-9
-9
-9
-9
-8
-8
-7
-6
-5
-5
-6
-6
-6
-6
-5
-3
-1
1
2
3
4
4
4
3
4
5
7
10
12
15
18
20
20
20
20
19
18
17
16
16
17
18
19
20
21
21
21
21
21
20
19
18
16
15
14
14
13
13
13
13
13
13
12
12
11
10
9
9
8
8
8
7
6
6
5
5
5
5
4
4
3
1
-1
-3
-5
-8
-9
-10
-10
-9
-8
-6
-5
-3
-3
-2
-3
-4
-5
-6
-7
-7
-7
-7
-7
-7
-6
-7
-7
-7
-8
-8
-8
-7
-6
-4
-3
-2
-2
-2
-3
-5
-7
-9
-10
-10
-9
-7
-5
-3
-1
0
0
-1
-2
-3
-5
-5
-6
-5
-4
-3
-2
-2
-1
0
0
0
0
0
0
1
1
1
1
1
1
1
1
1
1
0
0
0
-1
-1
-1
-1
-2
-2
-3
-4
-5
-6
-6
-6
-5
-4
-3
-1
1
3
4
5
5
6
7
8
10
12
13
14
14
14
12
9
6
3
0
-2
-3
-3
-3
-3
-3
-4
-5
-7
-9
-10
-11
-12
-11
-10
-9
-8
-8
-8
-9
-11
-13
-15
-15
-15
-15
-13
-12
-11
-11
-12
-14
-17
-20
-22
-23
-21
-17
-10
1
16
34
54
74
95
113
126
134
135
129
116
98
77
55
34
16
3
-5
-8
-8
-6
-3
-1
-1
-2
-4
-8
-11
-13
-14
-13
-12
-9
-7
-4
-3
-3
-4
-6
-7
-8
-9
-9
-8
-6
-5
-4
-4
-5
-6
-8
-9
-10
-10
-10
-9
-8
-7
-6
-5
-5
-5
-5
-5
-5
-4
-3
-1
0
2
3
3
3
3
2
2
2
3
4
6
8
9
11
12
13
13
13
13
14
14
15
15
16
16
17
18
18
19
20
20
21
21
20
20
19
18
17
17
17
17
18
18
18
18
17
16
15
14
14
14
15
15
15
15
14
12
10
7
5
3
2
2
3
4
5
5
5
4
3
0
-2
-4
-6
-7
-8
-8
-7
-7
-6
-6
-6
-6
-6
-6
-7
-7
-7
-8
-8
-9
-9
-10
-11
-11
-11
-11
-10
-9
-8
-7
-6
-5
-5
-5
-5
-6
-6
-7
-8
-8
-7
-7
-6
-5
-4
-4
-4
-5
-6
-6
-6
-6
-6
-5
-5
-5
-6
-7
-8
-10
-11
-11
-11
-9
-7
-4
-2
0
0
-1
-4
-7
-10
-12
-14
-14
-13
-12
-9
-7
-5
-5
-5
-5
-7
-9
-11
-13
-14
-15
-15
-14
-13
-12
-10
-9
-8
-7
-7
-8
-9
-10
-11
-12
-12
-11
-9
-7
-5
-4
-2
-2
-2
-2
-2
-2
-2
-2
-1
1
2
3
4
4
4
4
3
2
0
-1
-3
-6
-8
-10
-12
-13
-14
-13
-13
-12
-11
-11
-11
-12
-13
-15
-17
-18
-18
-18
-17
-16
-14
-13
-12
-12
-13
-13
-15
-16
-18
-20
-21
-22
-23
-21
-17
-10
1
17
37
60
84
107
127
141
147
145
135
118
96
71
47
26
10
-1
-8
-10
-9
-7
-5
-5
-6
-8
-11
-15
-17
-18
-18
-17
-14
-12
-11
-10
-10
-12
-14
-16
-18
-19
-19
-17
-15
-13
-11
-10
-9
-10
-11
-13
-14
-15
-14
-13
-11
-9
-8
-6
-6
-6
-7
-9
-10
-10
-10
-9
-7
-5
-3
-1
0
0
-1
-2
-3
-4
-4
-3
-2
0
2
3
4
5
5
4
3
2
2
3
4
5
7
9
11
12
13
13
13
13
13
14
14
15
15
15
15
14
13
12
11
10
9
8
8
8
9
9
9
9
8
7
6
5
4
3
3
2
2
1
1
0
0
-1
-2
-3
-5
-5
-6
-5
-5
-4
-3
-2
-2
-2
-4
-6
-9
-12
-14
-16
-17
-17
-17
-15
-13
-12
-11
-10
-9
-10
-10
-10
-11
-11
-11
-12
-12
-12
-12
-12
-12
-11
-11
-10
-8
-7
-6
-6
-6
-6
-7
-8
-9
-10
-10
-10
-9
-9
-8
-7
-7
-8
-9
-10
-11
-12
-13
-12
-11
-10
-8
-6
-5
-4
-5
-6
-7
-9
-11
-12
-13
-14
-13
-13
-13
-13
-13
-13
-13
-14
-14
-13
-12
-11
-10
-9
-8
-9
-10
-11
-13
-14
-15
-16
-15
-15
-13
-12
-11
-11
-11
-12
-14
-15
-17
-18
-19
-19
-18
-17
-16
-14
-13
-12
-12
-12
-12
-13
-13
-14
-14
-15
-15
-15
-15
-15
-14
-13
-12
-11
-9
-8
-7
-6
-5
-4
-3
-2
-1
1
2
4
5
5
5
3
0
-4
-8
-12
-14
-16
-16
-15
-13
-11
-9
-8
-8
-9
-11
-13
-15
-16
-16
-15
-13
-11
-9
-8
-8
-9
-10
-13
-15
-17
-18
-18
-18
-17
-17
-17
-17
-17
-15
-11
-3
9
25
46
69
92
113
130
141
143
138
125
107
85
62
41
22
7
-3
-9
-11
-12
-11
-11
-10
-11
-11
-12
-13
-13
-13
-12
-10
-8
-6
-5
-4
-5
-5
-7
-8
-9
-10
-10
-10
-9
-8
-7
-5
-4
-4
-3
-3
-3
-3
-2
-2
-2
-1
0
0
1
1
1
1
1
2
2
2
3
4
5
5
6
6
6
6
6
5
5
5
5
6
7
8
10
11
12
13
14
15
15
16
16
17
17
18
19
19
20
20
20
20
20
20
19
19
19
19
20
20
21
21
22
22
22
21
20
20
19
18
18
18
18
17
17
17
16
15
14
12
11
9
7
6
4
3
3
2
2
2
1
1
0
-1
-2
-3
-5
-5
-6
-7
-7
-7
-7
-8
-8
-9
-10
-10
-11
-11
-12
-12
-11
-11
-10
-10
-9
-9
-8
-8
-7
-7
-6
-6
-6
-6
-7
-7
-7
-7
-7
-7
-6
-6
-5
-5
-5
-5
-5
-4
-4
-4
-3
-3
-3
-3
-3
-4
-5
-5
-6
-6
-6
-5
-5
-4
-4
-4
-5
-7
-9
-10
-12
-12
-12
-11
-10
-8
-6
-5
-5
-5
-6
-8
-9
-11
-11
-11
-10
-9
-7
-6
-5
-5
-5
-6
-7
-8
-9
-10
-10
-10
-9
-9
-8
-8
-8
-9
-9
-9
-9
-9
-9
-8
-7
-6
-6
-5
-5
-5
-5
-5
-5
-5
-5
-5
-4
-4
-4
-4
-4
-4
-4
-3
-2
0
2
4
6
8
9
10
9
8
6
4
1
-1
-4
-6
-8
-9
-11
-12
-13
-14
-14
-14
-14
-14
-13
-12
-11
-9
-9
-8
-9
-9
-10
-12
-13
-14
-15
-15
-15
-15
-14
-13
-13
-13
-13
-14
-15
-16
-17
-17
-15
-10
-2
9
24
41
61
81
100
114
122
123
116
102
83
61
38
16
-1
-13
-20
-23
-23
-21
-18
-16
-15
-16
-16
-18
-18
-19
-18
-17
-15
-14
-13
-12
-11
-11
-11
-12
-12
-13
-14
-14
-14
-14
-14
-14
-14
-14
-13
-13
-13
-12
-11
-10
-8
-6
-4
-2
0
1
1
1
1
0
-1
-2
-2
-1
-1
0
1
2
3
3
3
3
3
3
3
4
5
6
7
9
10
11
12
12
12
12
12
12
13
14
16
17
19
21
22
22
23
22
22
22
22
23
23
23
24
24
23
22
21
19
17
15
14
13
13
13
13
14
14
14
14
13
11
9
7
5
4
2
2
1
1
1
0
0
0
-1
-1
-1
-1
-1
-1
-2
-2
-3
-5
-6
-7
-7
-7
-7
-6
-5
-5
-4
-4
-4
-5
-6
-8
-9
-10
-10
-11
-11
-10
-10
-10
-9
-8
-7
-6
-5
-4
-3
-3
-3
-4
-5
-6
-8
-9
-10
-10
-9
-8
-6
-4
-3
-3
-3
-4
-6
-9
-11
-13
-14
-14
-13
-11
-9
-6
-5
-4
-3
-4
-6
-7
-9
-11
-12
-12
-12
-11
-10
-9
-9
-9
-9
-10
-11
-12
-13
-13
-13
-13
-13
-13
-13
-13
-13
-14
-15
-16
-16
-16
-16
-15
-14
-13
-13
-12
-11
-11
-10
-10
-10
-10
-11
-12
-13
-14
-15
-17
-17
-18
-17
-16
-15
-13
-11
-9
-8
-7
-6
-6
-6
-5
-5
-5
-4
-3
-3
-2
-2
-3
-3
-4
-6
-7
-8
-10
-11
-12
-12
-13
-13
-13
-13
-13
-13
-13
-13
-13
-13
-14
-14
-15
-15
-15
-16
-15
-15
-15
-15
-15
-15
-15
-16
-17
-18
-19
-19
-19
-19
-18
-15
-11
-4
5
18
35
54
75
96
115
130
139
140
133
120
100
78
54
33
15
1
-7
-12
-13
-12
-11
-10
-9
-10
-10
-11
-11
-11
-11
-11
-11
-12
-13
-14
-15
-15
-15
-15
-15
-14
-14
-13
-13
-14
-14
-14
-14
-14
-12
-11
-10
-9
-8
-8
-8
-9
-9
-10
-10
-9
-8
-7
-7
-6
-5
-5
-5
-4
-4
-4
-4
-4
-4
-4
-3
-2
-1
1
3
5
6
7
7
7
5
4
2
1
1
2
3
5
7
9
10
11
12
12
13
14
15
16
17
17
18
17
16
15
14
13
13
13
14
15
16
16
16
16
15
13
11
10
8
8
7
7
8
8
8
9
8
7
6
5
4
3
2
1
0
-1
-2
-2
-3
-4
-4
-5
-5
-4
-4
-3
-3
-3
-4
-5
-6
-7
-7
-8
-8
-8
-7
-7
-7
-6
-6
-6
-6
-5
-5
-4
-4
-3
-3
-4
-5
-7
-8
-10
-11
-12
-12
-11
-10
-8
-7
-6
-5
-4
-4
-4
-4
-4
-5
-5
-5
-6
-6
-7
-7
-8
-9
-10
-11
-12
-12
-12
-12
-11
-10
-10
-9
-8
-8
-7
-7
-7
-7
-7
-7
-6
-6
-5
-4
-4
-3
-2
-1
0
0
0
-1
-2
-3
-5
-6
-7
-7
-7
-6
-6
-5
-4
-4
-4
-4
-4
-4
-4
-4
-4
-4
-4
-5
-6
-7
-8
-9
-9
-10
-9
-9
-8
-7
-7
-7
-7
-7
-8
-8
-8
-8
-7
-6
-4
-3
-1
0
1
3
4
6
7
8
8
7
6
5
3
2
1
0
-1
-1
-2
-3
-4
-6
-8
-10
-11
-12
-12
-11
-10
-9
-8
-9
-10
-11
-12
-14
-14
-14
-13
-11
-10
-9
-9
-10
-12
-14
-16
-18
-19
-20
-20
-19
-18
-16
-13
-8
-1
9
23
40
61
82
104
122
135
141
140
130
114
94
71
49
29
13
2
-4
-7
-7
-6
-5
-4
-5
-7
-9
-12
-14
-15
-15
-14
-13
-11
-10
-9
-8
-8
-9
-10
-11
-12
-12
-12
-11
-10
-9
-7
-6
-5
-4
-4
-4
-4
-4
-4
-4
-4
-4
-4
-4
-4
-4
-5
-5
-6
-6
-6
-5
-4
-3
-2
-1
0
1
1
1
1
1
1
1
1
2
3
4
6
7
9
10
10
11
10
10
10
9
10
10
11
12
14
15
17
18
20
20
21
21
21
20
20
19
19
18
18
17
16
16
15
14
13
12
11
11
11
11
12
12
12
12
11
10
8
6
3
2
0
0
-1
0
0
0
-1
-1
-3
-5
-6
-7
-8
-8
-8
-7
-6
-6
-6
-7
-9
-10
-12
-13
-13
-13
-12
-10
-8
-6
-5
-4
-3
-3
-4
-4
-5
-6
-6
-7
-8
-9
-10
-11
-11
-11
-10
-9
-8
-6
-5
-3
-3
-2
-2
-2
-3
-4
-5
-6
-7
-7
-8
-8
-8
-7
-7
-6
-6
-6
-6
-7
-8
-9
-11
-12
-13
-13
-12
-12
-10
-9
-7
-5
-4
-3
-3
-3
-4
-5
-6
-8
-10
-11
-11
-11
-11
-10
-9
-8
-8
-9
-9
-10
-11
-12
-12
-11
-10
-9
-8
-7
-6
-7
-7
-8
-9
-9
-9
-9
-8
-7
-5
-4
-4
-3
-4
-4
-5
-7
-8
-9
-10
-10
-10
-10
-9
-8
-8
-7
-7
-8
-9
-10
-11
-12
-13
-12
-11
-9
-7
-5
-4
-3
-3
-4
-4
-4
-4
-2
0
2
4
6
7
6
5
2
0
-3
-5
-6
-7
-7
-7
-7
-7
-8
-10
-12
-13
-14
-15
-15
-14
-13
-12
-11
-11
-11
-12
-13
-14
-14
-14
-14
-14
-14
-15
-16
-17
-18
-20
-21
-22
-23
-22
-21
-19
-14
-7
3
17
35
56
79
102
122
138
147
148
140
125
105
81
57
34
15
1
-8
-12
-13
-12
-10
-8
-6
-6
-7
-8
-10
-12
-14
-15
-16
-16
-15
-13
-11
-10
-9
-8
-8
-8
-9
-10
-11
-12
-12
-12
-11
-10
-9
-8
-8
-7
-8
-8
-8
-8
-8
-7
-5
-4
-3
-2
-1
-1
-2
-2
-3
-3
-3
-3
-2
-1
1
2
2
3
3
3
3
3
4
5
7
9
10
12
13
13
12
12
11
11
11
12
13
15
18
20
21
22
22
22
21
21
20
20
21
21
22
23
23
23
22
21
19
18
17
17
17
17
17
17
17
16
14
12
9
7
5
4
3
3
3
3
3
3
3
2
2
1
1
0
0
-1
-1
-2
-3
-4
-5
-7
-8
-8
-9
-9
-9
-9
-9
-9
-8
-8
-8
-7
-7
-7
-8
-8
-9
-11
-12
-13
-13
-13
-12
-11
-9
-7
-6
-5
-5
-5
-6
-6
-7
-7
-7
-6
-6
-6
-6
-7
-7
-9
-9
-10
-10
-9
-8
-7
-6
-6
-7
-8
-10
-12
-13
-14
-14
-13
-12
-10
-9
-8
-7
-8
-9
-10
-11
-11
-11
-11
-10
-10
-10
-10
-12
-13
-14
-15
-16
-15
-14
-12
-10
-8
-6
-6
-6
-7
-8
-10
-11
-13
-14
-15
-15
-16
-16
-16
-16
-16
-16
-15
-14
-13
-12
-11
-11
-12
-13
-14
-16
-17
-18
-18
-17
-16
-15
-14
-14
-14
-15
-16
-17
-17
-17
-17
-16
-15
-14
-13
-13
-12
-12
-11
-11
-9
-8
-6
-3
-1
1
2
3
3
2
0
-2
-4
-5
-7
-8
-10
-11
-13
-14
-16
-17
-18
-19
-18
-17
-16
-14
-12
-11
-11
-11
-12
-14
-16
-17
-19
-21
-21
-22
-23
-23
-23
-23
-23
-23
-23
-23
-23
-23
-23
-22
-20
-16
-10
1
15
34
56
80
104
124
139
147
146
136
120
98
73
49
27
9
-3
-11
-14
-14
-14
-13
-13
-14
-15
-18
-20
-21
-22
-21
-20
-18
-17
-16
-15
-15
-16
-16
-17
-17
-17
-16
-16
-16
-16
-16
-16
-15
-15
-14
-12
-11
-10
-9
-9
-9
-10
-11
-11
-12
-12
-11
-10
-9
-8
-7
-7
-7
-7
-7
-7
-6
-4
-2
1
3
4
5
4
3
2
0
-1
-1
0
2
4
6
8
10
10
10
10
10
10
11
13
15
17
20
22
23
25
25
26
26
26
27
27
28
29
29
30
30
30
30
29
29
29
29
29
29
28
28
27
25
23
21
19
17
15
14
13
12
12
11
11
11
11
11
11
11
11
10
9
8
6
4
2
0
-1
-2
-2
-1
0
0
1
1
0
-1
-2
-3
-4
-4
-4
-3
-2
-1
-1
-1
-1
-2
-2
-3
-3
-3
-3
-2
-2
-2
-2
-2
-3
-5
-6
-7
-7
-7
-7
-6
-4
-2
0
1
2
2
1
-1
-3
-5
-6
-7
-7
-6
-5
-3
-1
0
0
-1
-3
-5
-7
-9
-10
-9
-8
-7
-5
-3
-3
-3
-4
-5
-7
-9
-10
-11
-12
-12
-12
-12
-12
-12
-13
-13
-14
-15
-15
-15
-14
-12
-10
-9
-7
-6
-6
-7
-8
-10
-12
-13
-14
-14
-13
-11
-9
-7
-5
-4
-4
-4
-5
-6
-7
-8
-8
-8
-7
-7
-7
-6
-6
-5
-4
-2
0
3
5
7
8
8
7
4
0
-3
-6
-9
-10
-10
-9
-8
-7
-7
-7
-8
-9
-11
-13
-14
-16
-16
-17
-17
-18
-18
-18
-17
-17
-16
-15
-14
-14
-13
-14
-14
-15
-16
-17
-18
-19
-19
-20
-20
-20
-18
-14
-7
5
21
42
65
90
113
131
144
148
143
129
109
84
58
33
13
-3
-12
-17
-17
-15
-12
-9
-8
-9
-11
-14
-17
-19
-20
-20
-19
-17
-15
-13
-11
-10
-10
-10
-11
-11
-12
-12
-12
-11
-11
-11
-11
-12
-12
-12
-12
-11
-10
-9
-8
-7
-6
-6
-6
-7
-7
-7
-7
-6
-5
-3
-2
-1
0
0
0
-1
-2
-2
-2
-2
-1
0
2
3
5
6
8
9
11
13
14
15
16
16
16
16
15
15
16
16
18
19
21
23
24
24
24
23
22
21
20
19
20
20
22
23
24
24
24
24
23
21
20
18
17
16
16
17
17
17
17
16
15
14
12
11
10
10
9
9
9
8
7
5
2
-1
-4
-6
-7
-7
-7
-5
-3
-2
-2
-2
-3
-5
-7
-9
-10
-11
-10
-9
-8
-7
-6
-6
-6
-7
-8
-8
-8
-7
-6
-5
-4
-4
-5
-6
-7
-8
-9
-9
-9
-8
-6
-4
-3
-2
-1
-2
-2
-4
-5
-6
-7
-7
-8
-8
-7
-7
-6
-6
-5
-4
-4
-4
-4
-4
-4
-5
-6
-6
-7
-8
-8
-8
-8
-8
-8
-8
-8
-8
-8
-8
-8
-8
-8
-8
-8
-9
-9
-9
-9
-9
-8
-8
-7
-7
-7
-7
-7
-7
-8
-8
-8
-8
-8
-8
-8
-8
-9
-9
-9
-10
-9
-9
-8
-7
-5
-3
-1
1
3
5
7
9
10
10
9
7
5
1
-2
-5
-7
-9
-9
-9
-9
-8
-9
-9
-11
-12
-14
-15
-16
-16
-15
-14
-13
-11
-11
-11
-12
-13
-14
-15
-15
-15
-14
-14
-14
-14
-16
-18
-21
-23
-26
-27
-27
-25
-22
-15
-5
8
24
44
66
88
108
126
137
141
136
124
105
81
55
31
10
-6
-16
-20
-21
-20
-18
-17
-18
-21
-25
-29
-32
-34
-34
-32
-29
-25
-22
-20
-19
-20
-21
-23
-24
-25
-24
-22
-20
-17
-15
-13
-13
-13
-15
-17
-20
-22
-23
-24
-23
-22
-20
-18
-15
-13
-11
-10
-9
-9
-9
-10
-10
-10
-9
-8
-7
-5
-4
-3
-3
-3
-3
-3
-3
-2
0
1
3
5
6
6
6
6
6
7
8
11
13
17
19
21
22
22
22
20
19
19
19
19
20
20
21
21
20
19
18
18
17
16
16
16
15
14
12
11
9
9
8
9
9
10
11
10
9
7
5
3
2
1
1
2
3
3
3
1
-1
-4
-7
-10
-12
-12
-12
-10
-8
-7
-6
-6
-7
-8
-10
-12
-13
-13
-13
-12
-11
-9
-8
-8
-8
-7
-7
-7
-6
-5
-4
-3
-3
-4
-4
-6
-7
-9
-9
-10
-10
-9
-8
-7
-6
-5
-5
-5
-6
-7
-9
-10
-11
-12
-13
-12
-12
-11
-9
-8
-7
-7
-7
-8
-9
-10
-11
-12
-12
-12
-12
-12
-12
-12
-12
-12
-13
-12
-12
-11
-10
-8
-7
-7
-7
-8
-10
-12
-13
-15
-15
-16
-15
-15
-14
-14
-13
-13
-13
-12
-12
-11
-9
-7
-6
-4
-3
-2
-2
-1
0
0
1
2
2
2
1
0
-2
-4
-6
-8
-9
-9
-9
-9
-9
-9
-10
-12
-14
-16
-18
-18
-18
-17
-15
-14
-13
-13
-14
-15
-17
-18
-18
-18
-17
-15
-14
-13
-13
-14
-15
-17
-20
-22
-23
-24
-23
-21
-17
-10
0
14
32
52
74
95
112
124
128
124
110
90
66
40
16
-4
-18
-26
-28
-27
-23
-19
-15
-14
-13
-15
-16
-18
-19
-18
-17
-16
-14
-12
-10
-9
-8
-8
-8
-8
-9
-9
-9
-9
-10
-10
-10
-11
-11
-11
-11
-11
-11
-10
-9
-8
-7
-6
-5
-4
-3
-3
-4
-4
-4
-3
-2
-1
1
2
3
4
3
3
2
1
1
1
3
5
7
10
12
14
15
15
15
14
13
12
13
13
15
17
19
22
25
27
28
28
28
27
25
23
22
21
20
20
21
22
23
25
26
26
27
26
26
25
23
22
21
19
18
17
16
16
16
16
16
16
16
16
15
14
12
9
6
3
0
-2
-4
-4
-4
-4
-3
-2
-1
-1
-2
-2
-4
-5
-6
-7
-8
-8
-8
-8
-7
-6
-5
-5
-4
-4
-5
-5
-6
-7
-8
-8
-9
-9
-9
-9
-8
-8
-7
-7
-7
-7
-7
-8
-9
-10
-11
-12
-13
-14
-14
-13
-12
-11
-9
-8
-8
-8
-9
-10
-11
-12
-12
-12
-12
-11
-10
-10
-10
-11
-12
-13
-14
-15
-15
-15
-15
-15
-14
-14
-13
-13
-13
-13
-13
-13
-12
-11
-10
-9
-8
-7
-6
-5
-4
-3
-3
-2
-2
-2
-3
-3
-4
-4
-5
-5
-6
-6
-7
-9
-10
-13
-15
-17
-18
-19
-19
-18
-16
-14
-12
-11
-11
-11
-13
-15
-17
-18
-19
-19
-19
-19
-18
-18
-19
-19
-20
-20
-20
-20
-20
-21
-22
-23
-24
-24
-22
-16
-6
9
28
48
69
87
100
106
104
95
79
60
39
19
2
-12
-21
-27
-29
-29
-27
-25
-22
-19
-16
-13
-11
-10
-10
-10
-11
-12
-13
-14
-13
-12
-9
-7
-5
-4
-4
-4
-5
-5
-6
-5
-4
-2
0
2
2
2
0
-2
-5
-7
-8
-8
-7
-5
-2
1
4
5
6
5
4
3
2
2
2
3
5
6
8
9
10
10
10
10
9
8
8
8
8
8
10
11
14
16
19
21
23
24
24
24
22
21
20
19
18
19
19
21
22
23
24
24
24
24
24
24
24
24
25
24
24
23
22
21
20
18
17
16
16
15
15
15
14
13
12
11
9
7
5
4
2
1
0
0
-1
-2
-2
-3
-4
-4
-4
-5
-5
-5
-5
-6
-6
-7
-8
-9
-10
-10
-10
-10
-9
-8
-7
-7
-6
-6
-7
-7
-8
-8
-7
-6
-5
-3
-2
-1
-1
-2
-3
-4
-5
-6
-7
-7
-6
-6
-5
-5
-5
-5
-5
-5
-6
-5
-5
-4
-4
-4
-5
-5
-6
-7
-8
-8
-7
-6
-5
-3
-2
-1
-1
-2
-3
-4
-5
-5
-5
-5
-4
-3
-3
-3
-3
-3
-3
-3
-2
-1
1
2
3
4
5
4
3
2
0
-1
-3
-4
-5
-6
-6
-7
-7
-8
-8
-9
-10
-11
-12
-12
-13
-13
-13
-13
-12
-12
-11
-12
-12
-13
-15
-16
-17
-17
-17
-16
-15
-15
-15
-17
-19
-21
-23
-23
-20
-14
-3
11
29
49
70
89
104
115
119
116
108
94
76
56
37
19
4
-7
-15
-18
-19
-17
-14
-12
-9
-8
-7
-7
-7
-8
-8
-9
-9
-8
-8
-8
-8
-8
-9
-9
-10
-10
-10
-10
-10
-9
-8
-7
-6
-5
-5
-5
-4
-4
-5
-5
-5
-6
-6
-6
-7
-7
-7
-6
-5
-4
-3
-1
0
0
0
0
-1
-2
-3
-4
-4
-3
-1
1
3
6
8
10
11
12
12
12
11
11
11
11
11
12
13
14
15
15
16
16
16
17
17
17
17
17
17
17
17
16
15
15
14
13
13
13
13
13
13
13
13
13
13
13
13
12
11
11
10
9
8
6
5
4
2
0
-1
-2
-3
-4
-5
-5
-5
-5
-6
-6
-6
-6
-6
-6
-6
-6
-6
-6
-6
-6
-6
-7
-7
-7
-7
-7
-7
-8
-8
-8
-8
-8
-8
-7
-6
-6
-5
-5
-5
-6
-6
-7
-8
-8
-8
-8
-8
-7
-6
-5
-4
-3
-2
-1
0
0
0
0
0
-2
-3
-4
-5
-6
-5
-5
-3
-1
0
2
2
3
2
1
-1
-2
-4
-5
-5
-5
-4
-3
-1
0
1
3
4
5
6
6
7
7
7
7
6
6
6
6
6
6
6
6
5
4
2
1
-1
-3
-4
-6
-7
