5
3
1
-1
-3
-5
-7
-7
-8
-7
-6
-5
-3
-2
-2
-3
-5
-7
-10
-12
-13
-13
-12
-11
-9
-6
-5
-4
-3
-4
-5
-6
-8
-8
-9
-9
-8
-8
-9
-9
-10
-11
-12
-12
-12
-10
-8
-6
-5
-3
-3
-3
-4
-4
-4
-3
-2
1
3
6
7
6
4
1
-4
-8
-12
-14
-15
-15
-14
-12
-11
-11
-12
-14
-17
-19
-22
-24
-25
-25
-24
-23
-22
-21
-20
-19
-18
-17
-16
-14
-13
-11
-11
-11
-13
-15
-18
-21
-23
-23
-21
-17
-10
1
14
30
48
66
85
103
119
131
137
137
130
116
95
68
37
4
-28
-58
-84
-104
-117
-124
-124
-120
-111
-100
-87
-74
-61
-49
-39
-30
-23
-19
-16
-14
-13
-12
-12
-11
-11
-9
-8
-7
-6
-5
-5
-5
-5
-5
-4
-4
-3
-2
-1
0
1
3
4
5
6
6
7
7
6
6
5
5
4
5
5
6
8
10
11
13
15
16
18
19
20
21
23
24
26
27
29
31
33
36
40
44
49
54
60
65
69
73
76
78
80
81
82
84
86
88
91
93
94
95
94
93
91
89
87
85
84
83
82
81
79
77
73
69
64
58
53
49
45
42
40
38
36
33
31
28
25
22
20
17
15
14
12
10
9
7
6
5
4
3
3
3
3
3
4
5
5
6
6
6
6
5
5
4
3
2
2
2
3
5
7
10
13
14
15
15
15
13
11
9
8
7
6
7
8
9
10
11
12
13
13
14
14
15
16
16
16
15
14
13
11
9
8
7
7
7
9
10
12
14
15
16
16
16
16
15
15
14
13
12
12
12
12
12
12
13
14
14
15
15
14
13
12
11
11
10
10
10
10
11
11
12
13
13
14
14
15
15
15
15
15
16
16
17
19
21
23
25
26
26
25
22
19
15
11
8
5
4
3
4
4
4
3
1
-1
-3
-5
-6
-5
-4
-2
0
1
1
0
-3
-6
-9
-11
-12
-11
-10
-8
-6
-6
-7
-10
-15
-19
-22
-23
-22
-16
-6
8
25
44
63
82
99
112
121
123
119
108
90
65
34
-1
-37
-71
-102
-127
-145
-155
-158
-154
-146
-134
-122
-109
-98
-88
-80
-72
-66
-61
-57
-55
-53
-52
-53
-54
-55
-56
-56
-55
-54
-53
-52
-51
-52
-53
-56
-58
-60
-62
-63
-63
-62
-62
-62
-62
-64
-66
-68
-70
-72
-73
-73
-72
-70
-69
-68
-69
-69
-71
-72
-73
-74
-74
-73
-71
-69
-67
-65
-64
-62
-61
-59
-58
-55
-52
-49
-45
-41
-38
-34
-31
-27
-24
-21
-17
-13
-10
-7
-4
-1
1
3
5
8
11
14
18
21
23
25
25
24
21
17
13
8
3
-1
-5
-8
-11
-14
-16
-18
-20
-21
-22
-23
-24
-25
-27
-29
-31
-33
-35
-36
-36
-36
-34
-33
-31
-29
-28
-28
-28
-29
-30
-30
-30
-29
-28
-26
-24
-23
-21
-20
-20
-19
-19
-18
-17
-17
-16
-16
-16
-16
-16
-17
-17
-16
-15
-13
-11
-9
-8
-6
-6
-6
-6
-6
-7
-7
-7
-7
-6
-5
-4
-4
-3
-2
-1
0
1
2
3
4
4
3
3
1
0
0
0
0
1
3
4
6
6
6
5
4
3
3
2
3
4
5
6
7
7
7
6
6
5
5
5
6
6
7
8
9
9
10
11
11
12
12
13
13
13
13
12
12
12
11
11
11
11
11
10
10
10
11
13
16
19
22
25
27
28
27
25
23
20
17
16
15
16
16
17
17
17
15
12
8
5
2
1
2
3
6
9
12
14
15
14
12
10
7
5
3
2
3
3
4
5
6
6
5
4
3
2
1
2
4
9
16
27
40
56
74
94
113
131
146
157
161
158
147
129
105
75
42
7
-26
-55
-79
-97
-108
-111
-109
-101
-90
-77
-63
-50
-37
-26
-18
-10
-5
-1
1
3
3
3
3
3
3
3
4
5
6
7
9
10
10
11
11
11
11
11
11
12
12
13
13
14
15
15
16
16
16
16
16
15
15
16
16
17
18
20
22
23
24
25
26
27
28
29
31
34
37
41
44
47
49
50
51
52
53
54
57
61
66
72
78
83
88
91
93
93
93
92
91
90
90
91
92
93
94
95
94
93
91
88
84
79
74
69
63
58
53
49
45
41
39
37
34
32
30
27
23
19
15
11
7
3
1
-1
-2
-3
-3
-2
-2
-1
-1
-1
-2
-3
-4
-6
-8
-9
-11
-11
-11
-11
-11
-10
-9
-9
-10
-10
-12
-13
-14
-14
-13
-12
-10
-8
-6
-4
-3
-3
-5
-7
-9
-11
-13
-14
-14
-12
-10
-7
-4
-2
0
0
0
-2
-4
-6
-8
-9
-9
-10
-9
-9
-10
-10
-11
-12
-12
-12
-12
-11
-9
-8
-7
-7
-8
-9
-11
-13
-15
-15
-15
-14
-13
-12
-12
-12
-14
-17
-20
-22
-23
-23
-22
-19
-16
-14
-13
-13
-15
-18
-22
-25
-27
-28
-28
-26
-24
-22
-20
-19
-19
-20
-21
-22
-23
-23
-22
-21
-20
-18
-16
-15
-14
-13
-11
-10
-9
-8
-7
-7
-8
-9
-11
-13
-14
-15
-15
-15
-14
-13
-13
-14
-16
-18
-21
-25
-27
-29
-29
-29
-28
-27
-25
-25
-25
-27
-29
-31
-33
-35
-37
-37
-37
-36
-35
-34
-34
-33
-33
-34
-34
-34
-34
-34
-34
-34
-35
-37
-40
-42
-45
-46
-45
-41
-33
-22
-7
11
31
51
71
88
101
110
112
107
96
78
54
25
-6
-39
-71
-100
-124
-142
-153
-158
-155
-148
-137
-123
-109
-95
-83
-73
-66
-60
-56
-53
-51
-50
-48
-47
-46
-45
-43
-42
-40
-39
-37
-36
-35
-35
-35
-35
-35
-36
-36
-36
-36
-35
-34
-33
-31
-30
-30
-29
-29
-30
-30
-31
-31
-31
-30
-29
-28
-26
-25
-23
-22
-21
-20
-19
-18
-17
-16
-14
-13
-11
-9
-7
-4
-1
2
6
10
14
18
21
24
27
30
33
36
39
42
45
48
51
54
56
59
61
62
64
65
65
65
65
63
61
58
54
50
47
43
39
36
33
31
28
26
23
20
16
12
7
3
-2
-7
-11
-15
-18
-21
-23
-25
-27
-28
-29
-29
-29
-28
-27
-26
-25
-24
-24
-25
-27
-29
-31
-33
-34
-35
-34
-34
-34
-34
-35
-37
-40
-42
-45
-47
-49
-49
-48
-46
-44
-42
-41
-40
-39
-39
-39
-39
-39
-38
-37
-35
-33
-31
-30
-30
-31
-33
-36
-38
-41
-43
-44
-44
-44
-43
-43
-42
-42
-43
-44
-45
-46
-47
-48
-48
-48
-48
-48
-49
-49
-50
-52
-53
-54
-54
-54
-54
-52
-51
-50
-49
-49
-50
-51
-53
-54
-55
-56
-56
-55
-54
-52
-51
-50
-50
-51
-52
-53
-54
-54
-53
-51
-49
-46
-44
-43
-42
-43
-44
-46
-47
-48
-48
-47
-44
-40
-35
-31
-28
-26
-25
-25
-27
-29
-31
-33
-33
-33
-31
-29
-27
-24
-23
-21
-21
-20
-20
-19
-18
-16
-13
-11
-8
-6
-4
-2
-1
-1
0
1
2
2
3
3
3
3
3
4
5
7
9
12
15
17
19
19
19
18
16
15
13
12
11
10
10
10
10
10
10
10
10
11
12
13
15
16
18
20
21
22
23
23
23
23
22
22
21
21
21
22
22
22
21
20
19
17
16
17
20
26
36
50
67
87
108
129
150
167
181
189
191
186
173
153
126
94
60
25
-7
-35
-57
-72
-80
-80
-76
-67
-56
-43
-30
-18
-6
5
14
22
29
33
36
38
38
38
38
38
39
41
43
46
48
50
50
50
49
47
46
45
45
46
47
49
52
54
57
59
61
62
63
63
63
63
62
61
61
61
62
63
64
66
68
70
72
73
74
74
74
74
74
75
76
78
80
83
85
88
91
94
98
101
105
108
112
116
119
122
125
128
130
132
135
137
139
141
142
142
142
142
141
140
138
137
135
134
132
129
126
122
118
112
107
101
96
92
89
86
84
82
81
79
76
73
70
66
63
60
58
56
55
54
53
52
51
50
48
47
46
46
46
46
46
46
46
45
44
43
41
39
39
38
39
40
41
41
42
42
42
41
40
39
39
39
40
41
42
42
43
43
42
42
41
41
40
41
41
42
43
43
43
43
42
42
41
41
40
40
40
39
39
38
37
36
35
35
35
36
37
38
39
39
39
38
36
34
32
30
29
28
29
29
30
30
31
31
30
30
29
29
29
28
28
28
28
28
28
27
27
27
27
27
27
26
26
25
23
22
20
19
18
18
19
21
22
23
23
22
20
17
14
10
8
7
7
8
10
12
13
13
12
10
7
4
1
-2
-3
-4
-4
-4
-3
-2
-3
-3
-5
-7
-8
-10
-11
-12
-12
-12
-12
-12
-12
-12
-13
-14
-15
-15
-16
-16
-16
-16
-15
-14
-13
-12
-11
-11
-10
-10
-11
-11
-12
-14
-17
-19
-22
-26
-29
-32
-35
-37
-39
-41
-43
-45
-47
-49
-51
-53
-55
-57
-59
-60
-61
-62
-63
-64
-65
-65
-66
-67
-68
-69
-70
-71
-73
-76
-80
-84
-88
-92
-96
-97
-96
-91
-83
-71
-57
-41
-23
-6
10
23
33
39
39
33
21
2
-23
-53
-87
-123
-158
-190
-215
-233
-244
-246
-241
-232
-220
-207
-195
-184
-176
-170
-166
-163
-161
-159
-157
-156
-155
-154
-154
-154
-154
-155
-156
-157
-159
-161
-162
-164
-165
-166
-166
-165
-164
-161
-158
-155
-152
-149
-146
-143
-140
-136
-132
-127
-122
-117
-112
-106
-101
-97
-93
-89
-85
-81
-77
-73
-69
-66
-62
-59
-56
-53
-50
-46
-42
-37
-33
-28
-24
-20
-17
-14
-12
-9
-7
-5
-2
2
6
10
14
19
23
28
32
36
40
43
46
47
47
45
43
39
36
34
33
33
33
35
36
36
35
33
29
23
18
12
7
3
1
-2
-3
-5
-7
-10
-12
-15
-17
-18
-18
-18
-17
-17
-18
-19
-21
-23
-26
-27
-28
-28
-26
-24
-22
-20
-18
-17
-16
-16
-17
-17
-17
-17
-17
-18
-18
-19
-20
-20
-20
-20
-18
-16
-13
-10
-7
-5
-4
-4
-4
-5
-6
-7
-8
-9
-8
-8
-7
-5
-4
-3
-1
0
1
1
1
1
0
-1
-2
-3
-4
-5
-5
-5
-5
-4
-3
-2
-1
0
0
0
-1
-1
-2
-3
-4
-4
-4
-3
-3
-2
-1
0
0
1
1
1
0
-1
-2
-3
-4
-5
-6
-7
-7
-7
-7
-7
-7
-6
-6
-6
-5
-5
-4
-2
0
1
3
4
3
2
0
-3
-6
-9
-10
-11
-9
-7
-4
-1
2
3
4
3
1
-1
-4
-5
-6
-7
-6
-5
-4
-3
-2
-2
-1
-1
0
0
2
3
4
5
5
5
4
3
2
2
2
3
5
7
9
10
11
11
11
9
7
4
1
-1
-4
-5
-7
-7
-8
-7
-7
-6
-6
-5
-5
-5
-5
-5
-5
-5
-5
-5
-4
-3
-3
-2
-1
-1
-1
-2
-3
-4
-6
-7
-8
-9
-8
-5
1
10
22
37
55
75
95
114
130
141
147
146
138
122
101
74
44
12
-19
-47
-70
-89
-100
-106
-105
-100
-92
-81
-70
-58
-48
-39
-31
-24
-18
-13
-9
-6
-4
-2
-2
-2
-2
-2
-3
-2
-1
0
2
4
5
6
7
7
7
7
7
7
8
9
9
10
11
11
11
11
11
11
12
12
12
13
14
14
15
15
15
15
15
15
16
17
19
21
24
27
30
33
35
37
39
42
44
47
50
54
58
62
67
72
76
80
83
85
86
87
88
88
89
90
91
92
94
96
98
99
100
99
98
95
92
88
84
81
77
73
70
66
63
59
55
51
47
43
40
37
35
33
32
30
27
24
20
16
12
8
6
4
3
4
5
6
6
6
6
5
3
1
-1
-2
-2
-1
0
1
2
2
2
1
0
-2
-3
-4
-4
-3
-2
-1
0
1
2
3
3
3
4
5
6
7
8
9
9
10
10
10
10
10
10
9
8
7
5
4
3
2
2
2
3
4
5
5
6
6
6
5
4
4
3
2
2
1
1
0
0
-1
-1
-2
-1
-1
0
1
1
2
3
3
3
2
2
1
0
0
-1
-1
-1
0
0
1
1
2
2
1
0
-1
-3
-4
-6
-7
-7
-7
-7
-6
-5
-4
-3
-2
-2
-1
-1
-1
0
0
0
0
-1
-3
-4
-6
-8
-9
-10
-10
-9
-7
-5
-3
-1
1
2
2
2
2
2
2
3
3
4
5
6
7
9
10
11
12
12
13
12
11
10
8
7
5
4
3
2
1
0
-1
-3
-4
-6
-6
-7
-7
-7
-6
-6
-5
-6
-6
-7
-8
-9
-9
-9
-8
-7
-5
-4
-4
-5
-6
-8
-11
-14
-16
-17
-16
-13
-6
5
18
34
53
72
91
109
124
135
142
142
136
123
103
77
46
13
-22
-54
-83
-105
-121
-129
-130
-125
-116
-104
-92
-79
-68
-57
-48
-39
-32
-26
-21
-17
-14
-12
-12
-12
-13
-14
-15
-15
-15
-15
-14
-14
-13
-12
-11
-10
-10
-9
-9
-9
-9
-9
-9
-10
-10
-10
-9
-9
-8
-7
-5
-4
-4
-3
-3
-3
-3
-3
-3
-2
-2
-1
0
1
3
6
8
11
14
16
18
19
20
21
21
22
23
25
28
32
37
42
47
52
57
61
65
68
70
72
73
73
74
74
74
74
75
75
76
77
78
78
77
75
72
68
63
57
52
47
43
39
36
34
32
31
29
27
24
21
17
13
9
5
1
-2
-5
-6
-7
-8
-9
-9
-10
-11
-13
-14
-15
-15
-15
-15
-14
-14
-14
-15
-17
-20
-22
-24
-25
-25
-24
-21
-18
-14
-12
-11
-11
-13
-16
-19
-22
-24
-24
-23
-21
-18
-15
-12
-11
-12
-13
-15
-18
-21
-23
-25
-25
-25
-24
-22
-20
-18
-16
-15
-14
-14
-15
-17
-19
-22
-24
-26
-27
-27
-26
-24
-21
-19
-18
-17
-17
-19
-20
-22
-23
-24
-24
-24
-23
-23
-22
-23
-23
-24
-24
-24
-23
-21
-19
-17
-16
-16
-17
-18
-20
-22
-23
-22
-21
-19
-17
-15
-14
-14
-16
-18
-20
-22
-23
-22
-21
-20
-18
-17
-16
-17
-19
-22
-24
-26
-27
-26
-25
-23
-21
-19
-18
-17
-18
-19
-20
-21
-21
-20
-19
-16
-14
-12
-10
-10
-10
-12
-14
-16
-18
-20
-21
-21
-19
-18
-15
-13
-10
-8
-7
-7
-7
-8
-9
-10
-10
-10
-10
-9
-7
-6
-4
-2
-1
0
0
0
0
-1
-3
-5
-7
-10
-13
-16
-19
-21
-22
-23
-23
-22
-21
-20
-19
-18
-18
-19
-19
-20
-20
-21
-21
-21
-21
-21
-22
-22
-23
-25
-26
-28
-29
-29
-28
-26
-21
-14
-5
7
21
36
53
71
88
104
118
128
133
132
124
109
87
59
26
-8
-43
-75
-102
-123
-136
-141
-139
-130
-117
-102
-86
-70
-57
-47
-39
-34
-32
-30
-29
-28
-28
-26
-25
-24
-23
-22
-22
-22
-22
-21
-21
-20
-19
-18
-17
-17
-16
-16
-16
-17
-17
-18
-18
-18
-18
-18
-17
-17
-16
-16
-15
-14
-13
-12
-10
-8
-6
-4
-2
-1
0
0
0
-1
-1
-2
-2
0
2
5
9
13
18
23
27
30
32
34
36
37
39
42
46
51
57
62
67
72
75
77
77
77
76
75
74
74
74
74
75
75
75
75
73
71
68
65
62
58
55
51
48
44
39
35
31
26
22
19
16
14
12
11
9
7
5
2
-1
-4
-7
-9
-10
-11
-12
-12
-12
-13
-13
-15
-16
-17
-18
-18
-18
-17
-15
-13
-11
-10
-10
-10
-10
-11
-12
-13
-14
-15
-15
-15
-15
-15
-15
-16
-16
-17
-17
-16
-15
-13
-12
-10
-9
-8
-8
-8
-8
-9
-9
-10
-10
-10
-10
-9
-9
-9
-9
-9
-9
-9
-10
-10
-11
-11
-11
-11
-11
-11
-11
-10
-10
-9
-9
-9
-8
-8
-9
-9
-10
-10
-11
-12
-12
-11
-11
-10
-9
-7
-6
-6
-6
-6
-7
-8
-9
-11
-12
-12
-13
-13
-13
-13
-13
-13
-13
-13
-13
-12
-11
-10
-9
-8
-8
-7
-7
-7
-7
-7
-7
-7
-7
-7
-7
-7
-7
-8
-9
-9
-10
-10
-10
-10
-9
-8
-6
-5
-3
-1
0
2
3
4
5
6
6
6
5
5
3
2
1
-1
-3
-4
-6
-8
-10
-11
-12
-13
-12
-12
-11
-9
-8
-7
-7
-8
-10
-11
-13
-14
-14
-14
-13
-11
-10
-9
-9
-10
-12
-14
-16
-18
-19
-19
-18
-15
-10
-4
5
16
30
46
65
85
104
120
132
138
136
126
107
82
52
20
-13
-44
-71
-93
-109
-120
-125
-124
-119
-110
-99
-87
-75
-63
-53
-45
-38
-33
-29
-25
-22
-18
-15
-11
-9
-7
-7
-8
-9
-11
-12
-12
-12
-10
-8
-5
-3
-1
0
0
0
-1
-1
-1
-1
1
2
3
4
3
2
1
-1
-3
-4
-4
-3
-2
1
4
7
10
12
13
15
15
16
17
18
20
22
24
27
30
33
36
38
40
42
44
47
50
53
58
62
67
71
75
78
80
81
82
83
84
85
86
88
90
91
90
89
87
83
78
73
68
64
61
58
56
54
51
48
44
40
35
29
24
19
15
12
9
6
4
2
0
-2
-4
-6
-8
-10
-12
-13
-14
-14
-14
-15
-15
-15
-16
-16
-17
-17
-17
-17
-16
-16
-15
-14
-13
-13
-12
-12
-11
-11
-11
-11
-12
-12
-13
-13
-14
-14
-15
-14
-14
-12
-11
-10
-8
-7
-7
-7
-8
-9
-11
-12
-13
-13
-12
-11
-9
-8
-6
-6
-5
-5
-5
-6
-6
-7
-8
-8
-9
-10
-10
-11
-11
-10
-10
-9
-8
-7
-7
-7
-7
-9
-10
-12
-13
-14
-14
-14
-13
-12
-11
-11
-11
-11
-12
-13
-15
-16
-16
-17
-17
-16
-15
-14
-14
-13
-14
-14
-15
-16
-16
-17
-16
-15
-13
-11
-10
-8
-8
-9
-10
-12
-14
-16
-16
-15
-13
-9
-6
-3
0
1
1
0
-1
-3
-5
-7
-8
-9
-10
-11
-13
-15
-17
-20
-21
-23
-23
-22
-21
-18
-16
-15
-14
-14
-14
-16
-17
-18
-19
-19
-18
-16
-15
-13
-13
-13
-15
-17
-20
-24
-26
-27
-26
-24
-18
-11
0
12
26
42
59
76
92
107
119
126
128
122
110
90
64
34
2
-31
-61
-86
-106
-120
-127
-128
-124
-117
-107
-96
-84
-72
-60
-49
-39
-30
-23
-18
-14
-13
-13
-14
-17
-20
-22
-23
-24
-23
-21
-19
-15
-12
-9
-7
-5
-5
-5
-6
-8
-9
-11
-12
-13
-14
-14
-13
-12
-11
-9
-7
-5
-3
-1
0
0
0
-1
-2
-3
-3
-3
-2
0
3
6
10
13
16
19
20
22
23
24
25
26
28
30
34
38
43
48
53
58
62
65
68
69
70
70
70
69
70
71
72
74
77
79
80
80
78
75
71
66
61
57
53
49
47
45
42
40
36
32
27
21
16
11
7
4
2
1
-1
-2
-4
-7
-9
-12
-15
-17
-19
-20
-20
-21
-21
-22
-22
-23
-23
-23
-23
-23
-22
-23
-23
-25
-26
-28
-29
-30
-29
-28
-26
-23
-21
-20
-21
-22
-25
-28
-30
-32
-33
-32
-30
-28
-26
-24
-23
-23
-24
-25
-26
-26
-25
-24
-22
-20
-19
-19
-19
-20
-21
-22
-22
-21
-20
-18
-16
-15
-14
-14
-15
-17
-19
-22
-24
-25
-26
-26
-25
-23
-21
-20
-19
-18
-19
-20
-22
-24
-25
-26
-26
-25
-24
-22
-20
-18
-17
-18
-19
-21
-23
-24
-25
-25
-23
-21
-19
-18
-17
-17
-19
-21
-22
-24
-24
-23
-21
-17
-14
-11
-9
-8
-9
-12
-15
-18
-20
-21
-21
-19
-17
-14
-12
-10
-9
-9
-9
-8
-8
-7
-5
-4
-3
-2
-3
-5
-8
-12
-16
-19
-20
-21
-19
-17
-14
-12
-11
-11
-13
-15
-18
-21
-23
-24
-24
-23
-21
-19
-18
-16
-16
-16
-16
-17
-19
-20
-21
-22
-23
-23
-23
-21
-19
-15
-10
-2
8
20
35
51
69
88
106
121
132
138
136
127
110
86
57
25
-8
-39
-67
-90
-106
-117
-121
-119
-113
-104
-92
-79
-66
-54
-43
-34
-28
-23
-20
-18
-17
-16
-15
-13
-11
-8
-6
-4
-3
-3
-4
-5
-6
-6
-7
-6
-5
-3
-1
1
2
3
4
4
5
4
4
3
3
2
1
0
-1
-2
-2
-1
1
3
5
7
9
11
12
12
12
12
13
14
17
20
24
27
31
34
36
37
38
39
41
44
47
52
57
63
67
71
74
75
75
75
75
75
77
79
82
86
89
92
93
94
93
90
87
83
80
76
73
71
69
66
64
60
56
52
47
42
37
33
29
25
22
19
16
14
12
10
9
9
8
7
6
4
2
-1
-4
-6
-8
-8
-8
-7
-6
-5
-4
-5
-6
-8
-10
-12
-13
-12
-10
-6
-3
1
3
5
4
3
0
-3
-6
-8
-9
-8
-7
-5
-2
0
1
1
0
-2
-4
-7
-8
-10
-10
-9
-8
-6
-4
-2
-1
-1
-2
-3
-4
-6
-7
-8
-7
-7
-6
-5
-4
-3
-3
-4
-5
-6
-7
-8
-9
-9
-8
-7
-6
-5
-4
-4
-4
-5
-7
-8
-9
-10
-10
-9
-8
-6
-5
-4
-3
-3
-4
-5
-6
-8
-9
-11
-12
-13
-14
-14
-15
-15
-15
-15
-14
-13
-12
-12
-11
-11
-11
-11
-11
-12
-12
-12
-12
-12
-12
-11
-10
-9
-8
-8
-8
-8
-8
-8
-8
-8
-7
-5
-3
-1
1
2
3
3
2
2
0
-1
-2
-3
-4
-5
-7
-9
-11
-13
-16
-18
-19
-20
-21
-20
-19
-17
-15
-13
-12
-11
-10
-10
-11
-13
-15
-17
-18
-19
-19
-19
-19
-18
-18
-19
-20
-21
-22
-21
-18
-13
-4
8
23
41
60
80
98
114
126
133
135
131
120
102
79
50
17
-17
-50
-80
-104
-121
-130
-131
-126
-115
-102
-88
-75
-64
-56
-49
-44
-40
-35
-30
-25
-20
-16
-13
-12
-13
-16
-19
-21
-23
-23
-21
-18
-14
-10
-7
-5
-4
-4
-6
-7
-9
-10
-11
-10
-10
-9
-8
-8
-7
-7
-7
-7
-6
-5
-4
-2
-1
0
1
1
1
0
0
0
1
3
5
8
11
14
17
20
24
26
29
32
35
37
40
43
47
50
54
57
60
64
67
69
72
74
75
76
77
78
78
78
79
79
79
79
78
77
76
74
71
68
64
60
56
52
48
45
43
40
37
35
31
28
24
19
15
10
6
3
0
-2
-4
-5
-6
-7
-8
-9
-10
-11
-11
-12
-13
-14
-16
-18
-19
-21
-22
-23
-23
-23
-22
-21
-19
-18
-17
-16
-16
-15
-15
-14
-14
-14
-15
-15
-15
-16
-16
-16
-16
-15
-13
-12
-11
-10
-9
-10
-11
-12
-14
-16
-17
-18
-19
-20
-20
-19
-19
-18
-17
-15
-14
-12
-11
-11
-11
-11
-12
-14
-15
-16
-17
-17
-18
-18
-18
-18
-18
-18
-18
-18
-17
-15
-14
-12
-11
-11
-12
-14
-16
-19
-22
-23
-23
-22
-20
-17
-14
-12
-11
-11
-13
-15
-17
-19
-20
-19
-17
-15
-12
-10
-9
-9
-10
-12
-14
-15
-16
-16
-15
-13
-10
-8
-7
-6
-7
-8
-9
-10
-11
-12
-12
-12
-12
-13
-15
-17
-20
-23
-26
-28
-29
-29
-27
-25
-23
-22
-22
-22
-24
-26
-28
-29
-30
-29
-27
-24
-22
-21
-21
-23
-25
-27
-29
-30
-29
-27
-24
-21
-17
-13
-9
-4
4
14
28
45
64
84
102
115
122
120
110
92
67
38
6
-26
-55
-80
-100
-115
-124
-128
-128
-123
-116
-107
-96
-85
-74
-64
-55
-48
-42
-37
-33
-30
-27
-25
-24
-24
-24
-24
-24
-24
-23
-21
-19
-17
-15
-14
-14
-15
-16
-18
-20
-21
-20
-18
-16
-12
-9
-6
-4
-4
-4
-6
-8
-9
-10
-11
-10
-8
-6
-3
0
2
4
6
7
7
7
7
7
8
9
10
13
16
19
23
27
31
35
38
42
44
47
49
50
52
54
57
59
62
65
68
71
74
76
78
79
79
79
79
78
77
76
74
72
70
67
63
59
55
50
46
42
38
34
31
27
23
19
15
11
8
5
3
2
1
0
-1
-3
-5
-8
-11
-14
-16
-17
-16
-15
-13
-11
-10
-9
-10
-12
-14
-17
-19
-21
-22
-21
-20
-18
-16
-14
-13
-13
-13
-14
-15
-16
-16
-16
-16
-15
-15
-15
-16
-16
-16
-16
-15
-13
-10
-7
-5
-3
-3
-4
-7
-10
-14
-17
-18
-18
-17
-14
-11
-9
-7
-7
-8
-10
-13
-15
-17
-17
-17
-15
-13
-11
-10
-10
-11
-13
-15
-16
-17
-16
-15
-13
-11
-10
-10
-11
-12
-14
-16
-17
-17
-17
-16
-14
-13
-12
-12
-13
-14
-15
-16
-16
-16
-15
-14
-12
-11
-10
-9
-8
-8
-7
-6
-5
-4
-2
0
1
2
2
2
0
-2
-5
-8
-11
-14
-16
-18
-18
-18
-17
-16
-14
-12
-11
-10
-10
-11
-13
-15
-17
-20
-21
-22
-22
-21
-19
-17
-14
-12
-11
-11
-12
-14
-16
-18
-20
-21
-22
-22
-21
-19
-16
-10
-2
8
22
38
57
75
93
107
116
119
114
102
84
60
33
5
-24
-51
-74
-93
-107
-116
-120
-120
-115
-107
-98
-87
-76
-66
-56
-47
-39
-32
-25
-19
-13
-9
-5
-3
-3
-3
-4
-5
-6
-5
-4
-2
-1
0
0
-1
-3
-6
-8
-10
-9
-7
-4
-1
3
5
7
6
5
3
1
0
0
0
2
4
5
6
6
6
6
6
7
9
13
17
20
23
25
25
24
23
21
21
22
25
29
35
42
48
54
59
62
65
67
69
70
72
74
76
77
79
80
81
82
82
83
83
84
84
84
83
82
81
78
75
72
69
65
61
56
52
47
42
37
32
28
24
20
17
13
11
8
6
4
3
1
1
0
-1
-1
-2
-3
-4
-6
-7
-9
-10
-10
-10
-10
-9
-9
-8
-9
-10
-11
-12
-13
-13
-13
-13
-11
-10
-9
-8
-8
-8
-8
-8
-8
-8
-6
-5
-4
-3
-3
-4
-6
-8
-11
-13
-14
-14
-12
-10
-6
-3
0
1
1
0
-3
-6
-10
-12
-14
-14
-13
-11
-9
-8
-7
-8
-9
-11
-13
-14
-15
-15
-14
-13
-11
-10
-9
-9
-10
-12
-13
-15
-15
-15
-15
-13
-12
-12
-11
-11
-11
-11
-11
-10
-9
-7
-5
-4
-4
-5
-8
-11
-14
-16
-17
-17
-14
-10
-5
-1
3
6
7
7
5
3
0
-2
-3
-5
-6
-7
-9
-12
-15
-17
-20
-21
-20
-19
-16
-13
-11
-9
-8
-9
-12
-14
-17
-19
-20
-19
-18
-16
-14
-13
-12
-13
-15
-17
-20
-21
-22
-22
-22
-20
-18
-15
-10
-2
7
20
36
54
72
91
107
120
127
128
122
110
92
69
42
13
-17
-45
-71
-93
-109
-120
-125
-123
-117
-107
-94
-81
-67
-55
-46
-38
-32
-28
-24
-22
-19
-17
-14
-12
-10
-9
-8
-7
-6
-5
-4
-3
-3
-3
-4
-6
-8
-10
-12
-13
-13
-12
-10
-8
-6
-3
-2
-1
0
0
0
1
2
3
4
5
6
6
5
5
4
4
5
7
9
11
14
16
17
18
19
19
19
20
22
24
26
28
31
33
36
39
43
47
52
57
62
66
70
72
74
74
73
73
72
72
72
72
72
72
72
71
70
68
66
64
62
59
55
51
46
41
36
30
25
21
17
14
12
11
9
7
5
2
0
-3
-5
-7
-9
-10
-11
-13
-14
-15
-15
-16
-16
-16
-16
-15
-14
-14
-14
-14
-14
-14
-14
-14
-14
-14
-14
-14
-15
-16
-17
-19
-20
-20
-20
-19
-18
-17
-16
-15
-15
-15
-16
-16
-17
-16
-16
-15
-13
-12
-12
-13
-14
-15
-17
-18
-19
-18
-17
-15
-14
-13
-13
-14
-16
-19
-22
-25
-26
-26
-24
-22
-19
-16
-14
-13
-13
-14
-16
-17
-19
-20
-20
-20
-20
-19
-19
-18
-18
-17
-16
-15
-14
-12
-11
-11
-11
-12
-14
-17
-19
-21
-23
-22
-21
-18
-15
-11
-7
-4
-2
-1
-2
-3
-5
-7
-10
-12
-14
-16
-18
-19
-20
-21
-22
-23
-23
-23
-23
-22
-21
-19
-18
-17
-17
-18
-20
-22
-25
-28
-30
-31
-31
-29
-27
-25
-23
-22
-21
-22
-23
-25
-26
-26
-24
-21
-14
-4
8
23
41
60
79
98
113
125
131
131
123
108
86
58
26
-8
-42
-74
-100
-121
-134
-139
-137
-128
-114
-97
-79
-63
-49
-38
-32
-29
-29
-30
-31
-31
-29
-26
-22
-18
-15
-12
-12
-14
-16
-19
-22
-23
-22
-19
-15
-10
-6
-3
-1
-2
-4
-7
-11
-13
-15
-14
-13
-11
-8
-6
-4
-3
-3
-3
-3
-3
-3
-2
-1
0
1
2
3
4
4
5
7
9
12
16
20
24
27
30
32
34
35
36
38
41
44
48
53
58
62
65
68
70
71
72
73
73
74
75
76
77
77
77
76
75
74
72
70
67
64
61
57
52
48
43
39
35
31
29
27
25
24
22
20
17
14
11
7
3
0
-3
-6
-8
-10
-11
-11
-11
-11
-10
-10
-10
-10
-11
-13
-15
-17
-19
-21
-22
-22
-21
-19
-18
-16
-14
-12
-12
-11
-12
-13
-14
-16
-18
-19
-21
-21
-21
-20
-19
-17
-15
-14
-13
-13
-14
-14
-15
-16
-16
-15
-14
-13
-13
-12
-12
-13
-14
-15
-16
-17
-17
-17
-17
-16
-16
-15
-15
-16
-16
-16
-15
-15
-14
-14
-14
-14
-14
-15
-16
-17
-17
-17
-16
-15
-13
-12
-11
-10
-9
-10
-10
-11
-11
-12
-13
-14
-14
-15
-15
-14
-13
-11
-8
-5
-2
0
2
2
1
0
-3
-6
-9
-12
-14
-16
-17
-18
-19
-20
-21
-21
-22
-22
-23
-23
-22
-22
-21
-21
-20
-19
-18
-18
-17
-16
-16
-16
-17
-18
-19
-21
-23
-26
-28
-30
-31
-31
-29
-24
-18
-8
4
18
34
51
68
85
101
114
123
128
127
119
105
83
55
23
-12
-45
-75
-100
-118
-128
-131
-128
-120
-110
-98
-87
-76
-66
-56
-47
-39
-31
-25
-20
-18
-18
-19
-22
-24
-26
-25
-24
-20
-16
-12
-9
-7
-8
-9
-11
-13
-15
-15
-14
-12
-10
-7
-5
-4
-4
-5
-6
-7
-7
-7
-5
-3
-1
1
2
2
2
1
-1
-2
-2
-1
0
3
6
9
13
15
17
18
20
21
22
25
28
33
37
42
47
51
54
56
58
59
60
62
64
67
71
74
77
80
80
80
79
77
75
73
72
71
71
71
70
68
65
61
57
52
47
43
39
35
32
29
26
22
19
15
10
6
3
0
-3
-5
-7
-8
-9
-9
-10
-10
-10
-10
-10
-11
-12
-14
-15
-17
-18
-18
-17
-15
-13
-11
-10
-10
-11
-13
-16
-18
-20
-20
-20
-19
-17
-15
-14
-13
-14
-15
-16
-18
-18
-18
-16
-13
-10
-8
-6
-6
-7
-9
-11
-13
-15
-15
-14
-12
-9
-6
-5
-4
-5
-7
-10
-12
-14
-16
-16
-16
-15
-14
-13
-12
-11
-11
-11
-12
-12
-12
-12
-11
-10
-9
-9
-8
-8
-8
-8
-8
-7
-7
-6
-6
-5
-4
-3
-3
-3
-3
-3
-3
-3
-2
-2
-1
-1
-1
-1
-3
-5
-8
-10
-13
-14
-15
-14
-14
-13
-12
-12
-12
-13
-15
-16
-18
-18
-18
-17
-16
-14
-12
-11
-11
-11
-11
-12
-14
-15
-16
-17
-17
-18
-19
-20
-21
-22
-23
-23
-21
-17
-10
2
17
35
56
76
95
111
121
124
120
109
91
70
44
18
-10
-36
-60
-82
-100
-114
-123
-127
-126
-120
-110
-98
-84
-70
-58
-48
-40
-35
-31
-29
-27
-26
-24
-22
-20
-18
-16
-15
-14
-13
-13
-12
-12
-11
-11
-11
-11
-11
-12
-12
-13
-13
-14
-14
-13
-13
-13
-12
-11
-9
-8
-6
-4
-2
0
1
2
3
3
2
2
1
0
-1
-1
-1
1
3
6
10
15
20
25
30
33
35
37
37
37
37
39
41
45
50
55
61
66
70
74
76
77
78
79
80
80
81
81
80
79
77
74
72
70
68
66
64
63
61
59
57
54
50
46
41
37
33
28
24
20
16
13
9
6
3
0
-1
-2
-3
-2
-2
-1
-1
-1
-2
-3
-5
-7
-9
-10
-12
-13
-13
-13
-13
-13
-12
-12
-12
-11
-11
-10
-10
-9
-8
-7
-7
-6
-6
-6
-5
-5
-5
-4
-4
-3
-3
-3
-3
-3
-3
-3
-4
-4
-4
-4
-4
-5
-6
-7
-8
-9
-10
-10
-9
-8
-6
-5
-4
-4
-4
-5
-6
-7
-8
-8
-7
-6
-6
-5
-6
-7
-8
-10
-12
-13
-13
-12
-10
-8
-6
-5
-4
-5
-6
-8
-9
-10
-10
-9
-7
-5
-3
-1
-1
-1
-1
-2
-3
-3
-2
-1
0
1
2
2
1
-1
-4
-6
-9
-11
-13
-14
-14
-14
-14
-15
-15
-16
-17
-18
-17
-16
-15
-13
-11
-9
-9
-9
-10
-12
-14
-15
-16
-17
-16
-16
-15
-14
-14
-15
-16
-17
-18
-17
-14
-8
1
13
28
45
64
82
99
114
123
128
126
117
102
80
53
23
-8
-38
-65
-88
-105
-116
-120
-118
-112
-102
-91
-78
-66
-56
-46
-38
-32
-28
-25
-22
-21
-21
-21
-21
-20
-19
-18
-16
-14
-11
-9
-8
-7
-7
-7
-9
-10
-12
-14
-15
-16
-16
-16
-16
-16
-16
-15
-13
-11
-8
-5
-2
1
2
3
2
1
-2
-4
-5
-5
-5
-3
-1
1
3
5
6
6
6
7
8
10
12
16
19
23
26
29
32
35
38
41
45
49
53
57
59
61
63
63
64
65
67
69
72
74
76
76
76
74
71
67
64
60
57
55
52
50
48
45
41
37
31
26
21
16
13
10
8
7
6
5
4
3
1
-1
-2
-4
-5
-7
-8
-9
-11
-12
-14
-15
-15
-16
-15
-15
-14
-13
-12
-11
-10
-10
-10
-10
-11
-13
-14
-16
-18
-19
-20
-20
-20
-19
-17
-16
-14
-14
-13
-13
-14
-14
-15
-14
-14
-13
-12
-10
-10
-9
-9
-10
-11
-12
-13
-13
-14
-14
-14
-14
-14
-14
-14
-13
-12
-11
-10
-10
-10
-10
-11
-13
-14
-16
-17
-17
-17
-16
-15
-14
-14
-14
-14
-14
-14
-14
-13
-12
-11
-11
-12
-13
-16
-18
-20
-22
-23
-22
-20
-18
-16
-15
-14
-15
-16
-18
-21
-22
-23
-23
-21
-19
-17
-15
-14
-14
-14
-14
-15
-16
-16
-16
-15
-14
-12
-10
-8
-7
-6
-6
-7
-8
-10
-13
-15
-18
-19
-20
-21
-21
-20
-19
-19
-19
-19
-20
-20
-21
-22
-22
-23
-22
-22
-22
-22
-22
-21
-21
-20
-19
-17
-17
-16
-17
-18
-20
-23
-25
-27
-26
-22
-16
-6
8
24
42
61
80
99
114
125
131
131
124
109
87
59
27
-6
-39
-69
-94
-113
-124
-129
-127
-121
-111
-98
-86
-73
-62
-52
-43
-37
-32
-28
-26
-24
-23
-23
-22
-21
-21
-20
-19
-18
-18
-17
-16
-16
-15
-14
-14
-13
-12
-12
-11
-10
-9
-9
-8
-8
-8
-8
-8
-9
-9
-10
-11
-11
-11
-11
-11
-10
-9
-8
-7
-6
-4
-3
-1
0
2
3
5
6
8
9
11
13
16
18
21
24
28
31
34
37
40
43
46
49
52
55
57
60
62
64
66
67
68
68
68
68
68
68
67
67
67
66
66
65
63
61
58
55
51
47
42
38
33
29
26
23
20
18
16
13
11
8
4
1
-3
-6
-9
-11
-13
-14
-13
-12
-11
-9
-8
-7
-7
-8
-10
-12
-14
-17
-19
-20
-21
-21
-20
-19
-18
-18
-18
-18
-18
-19
-20
-20
-19
-18
-17
-16
-15
-15
-15
-16
-18
-20
-22
-23
-24
-23
-21
-19
-17
-15
-14
-13
-14
-15
-17
-18
-19
-19
-18
-17
-14
-12
-9
-7
-5
-5
-4
-4
-5
-6
-7
-7
-7
-7
-6
-5
-4
-2
-1
0
-1
-1
-2
-4
-5
-5
-5
-5
-4
-3
-2
-2
-3
-5
-6
-7
-8
-8
-7
-5
-3
-1
0
1
0
-1
-2
-4
-5
-6
-6
-6
-6
-6
-5
-5
-5
-4
-4
-3
-3
-2
-2
-3
-3
-5
-6
-7
-7
-7
-6
-5
-4
-3
-3
-3
-4
-6
-7
-8
-8
-8
-8
-7
-6
-5
-4
-3
-3
-2
-2
-2
-2
-1
0
2
4
6
8
10
11
11
9
7
4
0
-4
-8
-10
-12
-13
-13
-12
-11
-10
-9
-9
-10
-11
-12
-13
-15
-15
-16
-16
-15
-15
-15
-14
-14
-14
-13
-13
-13
-12
-12
-13
-13
-14
-14
-13
-10
-4
5
17
32
50
69
89
108
124
136
142
141
134
120
100
74
43
10
-23
-54
-82
-104
-119
-126
-126
-120
-109
-95
-81
-67
-56
-46
-39
-34
-30
-27
-24
-20
-17
-14
-13
-12
-12
-13
-13
-13
-12
-11
-8
-6
-3
-3
-3
-5
-8
-12
-15
-16
-16
-14
-11
-7
-3
0
2
2
2
0
-2
-3
-4
-5
-4
-3
-1
0
2
4
6
7
9
10
11
11
12
13
13
15
16
18
21
24
28
31
35
38
41
43
45
47
49
52
55
59
63
67
71
74
77
78
79
79
79
78
77
76
76
75
76
76
76
76
75
74
71
68
63
59
55
50
46
42
38
34
30
25
21
17
13
10
8
7
6
6
5
5
3
1
-1
-4
-7
-9
-11
-11
-11
-10
-9
-8
-7
-7
-8
-9
-11
-12
-14
-14
-14
-14
-13
-11
-10
-10
-10
-11
-12
-13
-14
-15
-15
-14
-13
-11
-10
-9
-8
-9
-10
-11
-12
-13
-13
-12
-11
-10
-8
-8
-8
-8
-9
-10
-12
-13
-13
-13
-12
-10
-9
-8
-7
-6
-6
-7
-8
-9
-11
-12
-13
-14
-14
-14
-14
-13
-13
-12
-12
-12
-12
-12
-12
-12
-13
-13
-13
-12
-12
-11
-11
-10
-9
-9
-9
-9
-10
-11
-12
-13
-14
-15
-16
-16
-16
-16
-15
-14
-13
-13
-12
-11
-11
-11
-12
-12
-13
-13
-14
-15
-15
-16
-16
-17
-16
-16
-15
-13
-12
-10
-9
-8
-8
-8
-9
-10
-11
-12
-12
-12
-11
-10
-8
-7
-6
-5
-5
-4
-4
-3
-2
-1
0
1
1
1
1
1
-1
-2
-3
-5
-6
-7
-9
-10
-11
-12
-13
-13
-13
-12
-12
-11
-11
-11
-12
-13
-14
-14
-15
-15
-14
-14
-13
-11
-11
-10
-10
-10
-10
-10
-11
-11
-13
-14
-16
-18
-20
-20
-20
-17
-13
-6
4
16
30
45
61
77
92
105
116
122
123
119
107
90
66
39
8
-23
-52
-78
-99
-115
-124
-127
-125
-118
-108
-96
-82
-68
-55
-44
-34
-27
-22
-20
-19
-18
-18
-18
-17
-16
-14
-11
-9
-7
-6
-6
-6
-6
-6
-7
-7
-7
-7
-7
-6
-6
-5
-5
-4
-4
-3
-3
-2
-2
-2
-3
-4
-4
-5
-5
-5
-4
-3
-1
1
3
4
6
7
8
9
10
11
11
12
13
14
15
17
19
23
27
31
36
41
46
51
54
58
60
63
65
66
68
70
71
72
73
73
73
73
73
73
74
75
76
77
77
76
74
71
66
61
56
52
48
45
43
41
39
37
33
29
24
18
13
8
4
2
0
-1
-2
-2
-3
-5
-7
-9
-12
-13
-14
-15
-15
-14
-13
-12
-12
-13
-14
-15
-16
-18
-19
-19
-19
-19
-18
-17
-17
-16
-16
-16
-17
-17
-17
-17
-16
-15
-14
-12
-11
-10
-10
-10
-11
-11
-12
-13
-13
-13
-13
-13
-13
-13
-13
-13
-12
-12
-11
-10
-9
-9
-10
-11
-13
-15
-18
-20
-21
-22
-21
-19
-17
-16
-14
-14
-14
-15
-16
-17
-17
-17
-16
-15
-14
-13
-13
-14
-14
-16
-17
-18
-19
-19
-20
-20
-20
-20
-20
-20
-19
-18
-16
-15
-14
-14
-14
-16
-18
-20
-22
-23
-22
-20
-17
-14
-11
-8
-7
-7
-9
-11
-14
-16
-18
-19
-18
-17
-14
-12
-9
-6
-4
-3
-2
-2
-3
-4
-5
-7
-9
-10
-12
-14
-16
-17
-19
-20
-21
-22
-22
-22
-22
-21
-20
-19
-18
-18
-18
-19
-20
-21
-23
-23
-24
-23
-22
-20
-18
-17
-17
-17
-18
-21
-23
-25
-26
-27
-25
-22
-17
-9
1
14
29
46
63
81
97
110
119
121
118
107
90
68
42
13
-15
-42
-67
-88
-104
-115
-121
-123
-120
-112
-102
-89
-75
-61
-49
-39
-32
-28
-27
-28
-29
-29
-28
-25
-20
-15
-11
-7
-5
-6
-8
-12
-15
-19
-20
-20
-18
-15
-12
-9
-6
-4
-4
-3
-4
-4
-3
-3
-3
-2
-3
-4
-5
-7
-8
-9
-8
-6
-4
0
4
8
11
12
13
13
11
10
8
8
8
9
12
15
20
25
30
35
39
42
44
46
48
50
52
54
57
61
65
70
73
76
79
80
80
80
79
78
76
75
73
72
70
68
67
65
64
62
60
58
55
51
47
42
37
33
28
24
20
17
14
11
8
5
3
1
0
-1
-2
-3
-4
-6
-8
-10
-12
-14
-15
-15
-14
-13
-12
-10
-10
-10
-11
-12
-14
-15
-16
-16
-15
-14
-13
-12
-12
-12
-13
-13
-14
-14
-13
-13
-12
-12
-12
-12
-12
-12
-12
-11
-8
-6
-3
-1
0
-1
-3
-5
-9
-12
-14
-15
-14
-12
-10
-6
-4
-2
-1
-1
-3
-5
-7
-8
-9
-9
-9
-9
-8
-8
-8
-9
-10
-11
-12
-12
-13
-12
-11
-10
-10
-9
-9
-9
-9
-9
-10
-10
-11
-11
-12
-12
-13
-13
-13
-13
-12
-11
-10
-9
-8
-7
-8
-9
-11
-13
-15
-17
-19
-19
-18
-16
-14
-11
-8
-6
-4
-4
-4
-5
-6
-7
-9
-10
-10
-11
-11
-11
-11
-11
-11
-11
-10
-10
-9
-9
-7
-6
-5
-3
-2
-1
0
1
2
3
3
3
2
2
1
-1
-3
-5
-7
-10
-12
-14
-15
-16
-16
-16
-16
-15
-15
-14
-14
-15
-15
-15
-15
-15
-14
-13
-12
-11
-12
-13
-14
-17
-19
-20
-20
-18
-14
-7
2
13
26
41
57
73
90
105
118
128
134
133
126
111
90
63
31
-2
-34
-64
-88
-106
-117
-121
-119
-113
-103
-91
-79
-67
-57
-47
-39
-32
-27
-22
-18
-15
-13
-11
-11
-11
-12
-12
-13
-13
-13
-12
-11
-10
-8
-6
-5
-4
-3
-2
-1
-1
-1
-1
-1
-2
-3
-4
-5
-6
-7
-8
-8
-8
-8
-7
-5
-3
0
2
4
5
5
5
3
2
0
0
0
1
4
7
12
16
21
25
28
31
32
33
34
35
36
38
41
44
48
52
56
60
63
67
70
72
74
75
76
76
76
76
75
75
74
73
71
68
65
62
58
55
52
49
47
46
44
42
39
34
29
24
18
12
8
4
2
1
0
0
-1
-1
-3
-5
-7
-9
-11
-12
-13
-14
-14
-14
-15
-15
-15
-15
-14
-14
-13
-13
-12
-13
-14
-15
-16
-17
-18
-18
-17
-16
-15
-14
-13
-13
-14
-14
-15
-15
-15
-15
-14
-14
-13
-13
-13
-13
-13
-14
-13
-13
-12
-11
-10
-9
-9
-10
-10
-11
-12
-12
-12
-12
-11
-11
-10
-9
-8
-8
-8
-8
-8
-8
-8
-9
-9
-9
-10
-11
-13
-14
-16
-17
-18
-18
-17
-16
-14
-12
-10
-9
-9
-9
-10
-12
-14
-16
-17
-18
-17
-17
-15
-14
-12
-11
-10
-10
-10
-10
-11
-11
-12
-13
-14
-15
-16
-16
-17
-17
-16
-15
-14
-12
-10
-8
-7
-7
-7
-8
-9
-10
-12
-13
-14
-14
-14
-14
-13
-11
-10
-8
-5
-3
-1
2
3
4
4
3
1
-1
-4
-7
-9
-11
-11
-12
-12
-12
-12
-13
-14
-16
-18
-20
-22
-23
-23
-22
-20
-18
-16
-14
-14
-14
-15
-16
-17
-17
-17
-17
-17
-17
-17
-19
-20
-22
-23
-22
-19
-12
-1
13
31
52
73
93
110
124
132
133
129
117
100
77
50
20
-11
-43
-72
-97
-117
-130
-135
-134
-127
-116
-102
-86
-72
-59
-49
-41
-36
-32
-28
-25
-22
-20
-17
-15
-14
-15
-16
-18
-20
-21
-22
-21
-19
-16
-12
-8
-4
-2
-1
-1
-2
-5
-7
-9
-11
-12
-12
-11
-10
-9
-8
-7
-7
-7
-8
-7
-7
-6
-4
-2
0
1
3
3
3
3
3
4
5
7
10
12
15
18
21
23
25
28
31
34
38
42
46
50
54
58
61
63
64
66
67
68
69
71
72
73
74
75
76
76
76
75
74
72
70
67
64
61
57
54
50
47
44
42
40
37
34
31
26
21
16
10
6
2
0
-1
-1
-1
0
-1
-2
-4
-8
-12
-15
-18
-19
-19
-18
-15
-13
-10
-9
-9
-11
-13
-17
-20
-22
-22
-21
-18
-15
-11
-8
-6
-6
-7
-10
-12
-15
-17
-18
-18
-17
-16
-14
-13
-12
-12
-13
-14
-15
-16
-16
-16
-15
-14
-13
-12
-11
-10
-9
-8
-8
-7
-7
-7
-8
-10
-11
-13
-15
-16
-17
-17
-17
-16
-15
-14
-14
-14
-14
-14
-14
-14
-13
-12
-11
-10
-9
-9
-10
-12
-14
-16
-18
-20
-20
-20
-18
-16
-14
-11
-9
-7
-7
-8
-9
-11
-13
-15
-16
-16
-15
-14
-12
-10
-8
-7
-8
-9
-10
-12
-13
-12
-10
-7
-3
1
5
8
9
8
6
3
0
-3
-6
-7
-8
-9
-9
-11
-13
-15
-18
-21
-22
-22
-21
-18
-15
-11
-9
-7
-7
-8
-10
-13
-15
-17
-18
-18
-16
-15
-13
-11
-10
-10
-11
-13
-15
-17
-17
-16
-12
-4
6
20
37
55
74
92
108
120
128
131
127
117
100
78
50
19
-14
-47
-76
-101
-119
-130
-133
-129
-121
-108
-93
-79
-65
-52
-42
-34
-27
-23
-19
-17
-16
-15
-15
-15
-15
-15
-13
-11
-9
-6
-4
-3
-2
-2
-3
-5
-7
-9
-10
-10
-10
-9
-7
-5
-2
0
1
2
3
3
2
1
-1
-2
-2
-1
0
2
4
7
9
11
13
13
13
13
12
12
12
13
15
17
20
23
27
30
33
36
39
41
44
46
49
53
57
61
66
71
75
78
80
80
79
77
76
74
74
75
77
79
81
82
81
79
75
70
65
60
57
54
54
53
53
52
50
45
40
33
27
21
16
12
10
9
9
8
6
4
2
-1
-4
-6
-8
-8
-9
-9
-9
-10
-11
-12
-13
-14
-14
-13
-11
-9
-8
-7
-7
-8
-9
-11
-12
-12
-12
-10
-8
-5
-3
-1
-1
-1
-2
-3
-4
-6
-6
-7
-7
-6
-6
-6
-6
-6
-7
-7
-8
-8
-9
-9
-9
-9
-9
-8
-7
-6
-5
-5
-5
-6
-7
-8
-9
-10
-10
-9
-7
-5
-3
-1
1
1
0
-1
-3
-4
-6
-6
-6
-5
-4
-3
-2
-2
-2
-3
-4
-5
-5
-4
-2
0
3
6
8
9
9
8
5
3
0
-3
-5
-6
-7
-8
-8
-9
-10
-11
-13
-14
-15
-16
-17
-17
-16
-16
-15
-14
-14
-13
-13
-13
-14
-14
-14
-15
-16
-16
-17
-18
-19
-19
-20
-20
-21
-22
-22
-23
-23
-23
-21
-16
-8
3
17
34
53
72
90
104
114
116
112
101
83
60
33
3
-26
-55
-81
-102
-118
-128
-133
-132
-126
-117
-106
-94
-82
-71
-62
-55
-49
-44
-40
-36
-31
-27
-23
-19
-16
-14
-14
-15
-16
-18
-20
-21
-22
-21
-20
-19
-17
-16
-14
-14
-13
-13
-13
-13
-13
-13
-12
-12
-11
-10
-9
-9
-8
-8
-9
-9
-10
-10
-10
-9
-7
-4
-1
2
5
7
8
8
7
6
5
5
7
9
13
18
22
26
30
33
35
37
40
43
47
52
56
60
63
65
66
66
66
66
66
66
67
68
69
69
69
68
67
65
63
61
58
55
52
48
43
38
32
25
20
14
10
8
6
5
4
4
2
0
-3
-7
-11
-15
-18
-21
-23
-25
-25
-24
-23
-22
-21
-20
-20
-20
-21
-21
-22
-22
-23
-22
-22
-21
-20
-19
-18
-18
-17
-17
-18
-18
-19
-19
-20
-20
-21
-21
-21
-20
-20
-19
-18
-18
-18
-17
-17
-17
-17
-17
-17
-17
-16
-16
-16
-16
-16
-16
-16
-16
-16
-16
-15
-14
-14
-13
-12
-11
-10
-9
-8
-7
-6
-6
-5
-5
-6
-7
-8
-9
-10
-11
-10
-10
-8
-6
-5
-3
-2
-1
-1
-1
-2
-4
-5
-7
-9
-10
-12
-14
-16
-18
-20
-21
-22
-22
-22
-21
-21
-20
-20
-20
-20
-20
-20
-20
-20
-19
-19
-18
-18
-19
-20
-21
-23
-25
-27
-28
-30
-31
-32
-33
-33
-33
-31
-27
-22
-14
-3
11
27
44
62
79
95
106
113
114
108
95
75
50
21
-10
-41
-69
-93
-112
-124
-130
-130
-126
-118
-108
-97
-86
-76
-67
-59
-53
-47
-42
-38
-34
-31
-27
-25
-22
-20
-19
-19
-20
-22
-24
-26
-27
-28
-27
-25
-22
-19
-16
-13
-12
-12
-14
-16
-18
-19
-19
-18
-16
-14
-11
-9
-8
-7
-8
-9
-10
-11
-10
-9
-8
-6
-4
-3
-1
-1
0
1
2
4
6
9
11
13
14
14
15
15
17
20
25
30
37
43
49
54
57
59
60
61
61
63
64
67
69
70
71
71
69
67
65
63
62
61
60
60
58
55
52
47
42
36
31
27
24
21
18
16
13
9
5
2
-1
-4
-5
-5
-4
-4
-4
-5
-7
-10
-14
-17
-19
-20
-20
-18
-15
-13
-11
-11
-11
-13
-15
-18
-19
-19
-19
-17
-16
-14
-13
-14
-15
-16
-18
-19
-19
-18
-17
-15
-14
-12
-12
-12
-13
-13
-14
-14
-14
-14
-13
-12
-12
-12
-13
-14
-15
-16
-17
-17
-16
-15
-13
-10
-8
-5
-3
-2
-2
-2
-2
-4
-5
-7
-9
-10
-11
-11
-10
-8
-6
-4
-1
1
3
4
4
4
3
3
2
2
1
1
0
-2
-3
-5
-7
-10
-12
-14
-16
-18
-19
-21
-22
-23
-23
-23
-23
-22
-21
-19
-17
-15
-14
-13
-13
-14
-14
-15
-16
-18
-19
-20
-21
-22
-23
-24
-25
-25
-25
-22
-19
-13
-4
6
20
35
53
72
90
107
121
129
131
125
112
91
63
31
-4
-38
-69
-94
-113
-125
-129
-127
-121
-111
-99
-88
-77
-68
-60
-53
-46
-40
-34
-28
-23
-19
-16
-15
-16
-18
-21
-24
-26
-27
-26
-23
-20
-16
-13
-10
-9
-9
-9
-10
-11
-12
-12
-12
-11
-11
-11
-11
-11
-12
-13
-12
-11
-10
-7
-5
-2
-1
0
0
-1
-1
-2
-2
0
2
6
10
14
17
19
21
23
24
25
27
29
32
36
41
45
50
54
57
60
62
64
65
67
69
71
73
75
77
79
81
83
84
85
85
83
81
77
73
68
63
58
54
51
49
47
45
44
41
39
35
31
27
23
19
16
13
11
9
7
6
4
2
0
-2
-4
-5
-6
-7
-7
-7
-7
-6
-6
-6
-6
-6
-6
-7
-7
-8
-9
-10
-11
-11
-11
-10
-9
-8
-7
-6
-5
-6
-7
-8
-9
-10
-10
-10
-9
-8
-7
-7
-7
-8
-9
-11
-12
-12
-12
-10
-8
-5
-3
-2
-2
-4
-7
-10
-13
-15
-15
-15
-12
-10
-7
-4
-3
-3
-4
-6
-9
-11
-12
-13
-12
-10
-8
-6
-5
-4
-5
-7
-9
-11
-13
-14
-14
-13
-12
-10
-8
-6
-5
-5
-5
-5
-6
-6
-6
-5
-3
0
3
5
7
7
7
5
3
0
-3
-5
-7
-8
-9
-10
-10
-11
-12
-13
-14
-15
-15
-15
-14
-13
-12
-11
-10
-10
-9
-9
-10
-10
-11
-12
-13
-13
-14
-14
-15
-15
-15
-15
-15
-14
-13
-11
-7
-1
7
19
33
50
69
88
107
122
134
139
137
129
113
90
63
33
0
-31
-60
-85
-105
-119
-126
-127
-122
-112
-98
-83
-67
-52
-38
-28
-20
-15
-13
-12
-12
-13
-13
-12
-10
-9
-7
-5
-4
-3
-3
-3
-4
-4
-4
-4
-4
-4
-3
-3
-3
-4
-4
-4
-4
-4
-3
-2
0
1
3
4
6
7
9
11
12
14
15
16
16
16
16
15
15
15
16
18
20
23
26
28
30
32
34
37
39
42
45
49
53
56
59
61
64
65
67
70
72
75
79
82
84
86
87
87
88
87
87
88
88
88
88
88
86
84
81
76
72
67
62
58
54
51
48
45
42
38
35
32
29
26
24
22
20
19
17
14
12
9
6
3
1
1
1
2
3
4
5
5
5
5
4
3
3
2
2
2
2
2
1
0
-1
-1
-1
-1
0
2
4
5
7
7
7
7
6
6
5
5
4
4
4
3
3
2
1
1
1
2
4
5
7
9
10
11
10
10
9
7
6
6
6
6
7
8
8
8
8
7
6
5
4
3
3
2
2
1
1
1
1
1
2
3
5
8
11
14
16
17
18
17
14
11
8
5
3
1
1
2
5
7
10
13
14
15
15
14
14
13
14
15
17
19
21
22
21
20
17
13
9
6
5
5
7
9
13
16
18
18
17
15
12
9
7
6
7
8
10
12
13
14
13
12
10
8
7
7
7
9
10
12
13
12
11
10
10
11
14
20
31
45
62
81
101
120
136
148
154
154
146
131
109
82
51
19
-13
-41
-66
-84
-96
-101
-100
-95
-85
-74
-62
-49
-37
