-14
-15
-15
-15
-13
-11
-9
-6
-3
0
1
1
0
-2
-4
-6
-8
-10
-11
-11
-10
-9
-8
-7
-7
-7
-7
-8
-8
-9
-9
-10
-11
-11
-13
-14
-16
-19
-21
-23
-24
-25
-26
-25
-25
-24
-24
-24
-24
-24
-24
-24
-24
-24
-23
-23
-22
-22
-21
-20
-19
-16
-13
-8
-1
7
16
27
38
49
60
69
76
80
79
74
63
48
28
6
-17
-38
-57
-71
-80
-83
-81
-75
-66
-56
-47
-38
-32
-27
-24
-22
-20
-18
-17
-14
-12
-10
-9
-8
-7
-7
-8
-9
-9
-9
-8
-7
-6
-4
-2
0
1
2
2
2
2
2
2
3
5
6
8
9
10
10
10
10
11
11
12
14
16
19
21
23
25
26
27
28
29
30
32
35
37
41
44
47
50
52
54
55
56
57
58
59
60
62
63
64
65
65
65
64
63
62
61
60
59
58
57
56
54
52
49
46
42
38
34
31
27
24
21
19
16
14
12
9
7
4
2
1
-1
-2
-3
-3
-3
-3
-3
-4
-4
-5
-7
-9
-11
-12
-13
-14
-13
-13
-12
-10
-9
-9
-9
-10
-11
-12
-13
-14
-15
-15
-15
-15
-15
-15
-16
-17
-18
-18
-18
-17
-16
-14
-12
-10
-9
-8
-9
-10
-11
-12
-12
-12
-10
-8
-6
-3
-1
0
0
-1
-2
-3
-4
-4
-3
-2
0
3
5
7
8
8
8
7
6
4
3
2
1
0
-1
-1
-1
-1
-1
0
1
2
2
2
2
0
-2
-5
-7
-10
-12
-13
-14
-14
-14
-13
-13
-13
-14
-15
-15
-16
-16
-16
-15
-14
-13
-12
-12
-12
-13
-15
-17
-18
-18
-17
-14
-10
-3
5
14
24
34
45
55
64
72
77
79
77
70
58
41
20
-3
-26
-48
-66
-79
-86
-88
-85
-78
-70
-60
-52
-44
-38
-34
-31
-29
-27
-26
-24
-23
-22
-21
-21
-20
-19
-18
-17
-16
-15
-15
-15
-15
-15
-15
-16
-15
-15
-14
-13
-11
-10
-10
-9
-9
-9
-8
-8
-7
-5
-4
-2
0
2
3
4
5
6
7
8
9
10
11
12
13
14
16
18
21
24
28
32
36
40
43
46
48
49
49
49
49
50
50
51
52
54
55
55
56
55
54
53
52
51
50
48
47
44
42
39
35
32
29
25
22
19
15
12
9
5
2
-1
-3
-5
-6
-7
-7
-8
-8
-9
-9
-11
-12
-13
-13
-14
-14
-14
-14
-14
-14
-14
-15
-16
-16
-17
-17
-17
-17
-17
-17
-17
-17
-18
-18
-19
-20
-20
-21
-22
-22
-22
-22
-22
-21
-21
-21
-20
-20
-19
-19
-18
-18
-18
-18
-18
-19
-19
-20
-20
-20
-20
-19
-18
-17
-16
-16
-15
-15
-14
-14
-13
-11
-10
-8
-6
-4
-2
-2
-2
-3
-4
-6
-7
-8
-9
-9
-8
-6
-4
-2
-1
1
1
1
0
-2
-4
-7
-10
-12
-15
-16
-18
-19
-19
-20
-20
-20
-21
-22
-23
-23
-24
-23
-22
-21
-19
-17
-16
-15
-15
-15
-15
-16
-17
-17
-17
-15
-11
-6
1
9
20
32
46
61
76
89
99
105
105
99
86
67
44
18
-9
-34
-56
-72
-83
-88
-88
-83
-75
-66
-55
-46
-37
-30
-25
-22
-20
-21
-22
-23
-24
-24
-24
-22
-19
-17
-14
-12
-11
-11
-11
-12
-13
-14
-14
-13
-11
-9
-6
-4
-3
-2
-3
-4
-5
-6
-7
-6
-5
-3
0
3
6
9
10
12
13
13
14
16
18
21
24
27
31
33
35
36
37
38
39
41
44
48
52
56
60
62
63
63
62
61
60
61
62
64
67
69
71
73
72
71
69
66
63
61
58
56
54
52
50
47
44
41
37
34
31
28
25
23
21
18
14
11
7
3
0
-3
-4
-4
-4
-2
-1
-1
-1
-3
-5
-8
-10
-12
-13
-13
-12
-10
-7
-5
-3
-2
-2
-3
-4
-6
-7
-8
-8
-8
-8
-8
-8
-8
-8
-8
-9
-9
-8
-8
-8
-8
-8
-8
-9
-11
-12
-14
-14
-15
-15
-14
-13
-12
-10
-9
-8
-7
-7
-7
-7
-7
-7
-7
-6
-5
-4
-3
-1
1
2
3
3
3
2
2
1
1
2
2
4
5
6
6
6
6
5
3
2
1
-1
-1
-2
-3
-4
-6
-8
-10
-12
-15
-18
-20
-21
-21
-21
-21
-20
-19
-18
-17
-17
-16
-17
-17
-18
-18
-19
-20
-21
-23
-25
-26
-28
-29
-28
-26
-21
-13
-2
12
28
45
61
76
86
92
91
83
69
48
23
-5
-33
-60
-84
-101
-113
-117
-116
-109
-100
-88
-76
-65
-57
-51
-47
-45
-44
-44
-44
-44
-44
-43
-43
-42
-41
-40
-39
-38
-37
-35
-34
-32
-30
-29
-28
-27
-26
-26
-26
-26
-26
-26
-25
-23
-21
-19
-17
-15
-13
-11
-10
-9
-8
-7
-5
-3
-1
2
4
7
9
10
11
12
12
14
15
18
22
26
31
35
39
43
45
47
49
50
51
52
54
55
56
56
57
57
57
57
56
56
56
55
55
54
52
50
48
45
43
40
37
34
32
28
24
20
16
11
7
3
-1
-4
-6
-7
-9
-10
-11
-13
-14
-16
-18
-20
-22
-23
-24
-25
-25
-26
-27
-27
-27
-28
-27
-27
-27
-26
-26
-25
-25
-25
-26
-26
-27
-27
-28
-29
-29
-30
-30
-30
-29
-28
-27
-26
-25
-24
-23
-23
-24
-24
-25
-27
-28
-29
-29
-30
-30
-30
-30
-30
-30
-29
-29
-28
-27
-25
-24
-22
-20
-19
-18
-17
-16
-17
-17
-18
-18
-18
-17
-16
-14
-12
-9
-8
-7
-6
-6
-7
-8
-9
-10
-10
-10
-9
-8
-7
-7
-7
-8
-9
-11
-13
-15
-17
-19
-20
-22
-23
-25
-26
-26
-27
-27
-27
-26
-26
-25
-25
-24
-24
-24
-24
-23
-23
-22
-21
-20
-19
-18
-18
-16
-14
-11
-7
0
9
20
33
47
61
75
88
98
104
104
99
87
70
47
21
-6
-33
-57
-76
-88
-94
-93
-87
-77
-65
-52
-41
-32
-25
-22
-21
-21
-23
-24
-24
-24
-23
-21
-19
-16
-15
-14
-13
-14
-14
-15
-15
-15
-15
-13
-12
-10
-9
-9
-9
-9
-9
-9
-9
-7
-5
-2
2
4
7
8
8
8
7
6
6
7
9
12
15
18
21
23
25
26
28
29
31
33
36
39
42
45
47
50
51
53
54
55
57
58
59
60
61
61
60
60
59
59
58
58
57
56
56
54
53
51
49
46
44
42
40
37
35
32
30
27
24
21
18
16
14
12
10
8
6
4
2
0
-2
-4
-5
-6
-6
-6
-5
-5
-4
-4
-4
-4
-4
-4
-5
-5
-6
-7
-8
-8
-8
-8
-8
-7
-6
-5
-4
-4
-4
-5
-6
-7
-8
-9
-10
-10
-10
-10
-9
-9
-9
-9
-9
-9
-10
-11
-11
-11
-11
-11
-11
-10
-10
-9
-10
-10
-11
-11
-12
-12
-11
-9
-7
-5
-3
-1
1
2
2
2
2
2
2
3
3
3
3
3
1
0
-1
-3
-3
-4
-3
-2
0
1
2
2
1
-1
-3
-5
-8
-10
-12
-13
-13
-13
-13
-13
-13
-13
-14
-14
-16
-17
-17
-18
-18
-17
-16
-15
-14
-14
-13
-13
-14
-14
-14
-14
-12
-10
-7
-2
3
10
18
27
37
48
59
69
77
83
84
81
72
58
39
17
-7
-30
-51
-67
-77
-82
-82
-77
-68
-58
-48
-38
-30
-23
-18
-15
-13
-12
-12
-12
-12
-12
-13
-13
-13
-13
-12
-11
-10
-9
-8
-7
-7
-7
-7
-7
-7
-6
-4
-3
-1
1
3
4
4
4
3
3
3
3
4
5
7
8
10
11
12
12
13
15
17
20
23
26
30
33
36
38
40
42
43
44
46
48
50
52
54
55
57
57
58
59
60
61
62
63
64
64
64
63
61
59
56
54
52
51
50
50
49
47
45
42
38
34
30
26
23
20
18
17
15
13
11
8
4
1
-2
-5
-7
-8
-8
-7
-6
-5
-5
-4
-4
-4
-4
-4
-4
-5
-5
-5
-6
-7
-7
-8
-9
-9
-9
-9
-9
-9
-9
-10
-10
-11
-11
-11
-11
-10
-10
-9
-8
-8
-8
-8
-9
-10
-11
-12
-13
-14
-14
-14
-14
-14
-13
-13
-13
-12
-11
-10
-9
-8
-7
-6
-5
-5
-5
-5
-6
-6
-5
-5
-4
-3
-1
0
1
1
1
1
0
-1
-2
-3
-4
-4
-4
-4
-4
-4
-5
-5
-7
-8
-10
-11
-12
-13
-14
-15
-16
-17
-18
-19
-19
-20
-20
-19
-19
-19
-20
-21
-22
-24
-25
-27
-27
-27
-26
-24
-21
-18
-16
-14
-12
-11
-11
-9
-8
-4
1
8
17
28
39
50
60
68
72
71
65
54
38
18
-3
-25
-45
-63
-76
-84
-87
-85
-80
-73
-65
-56
-49
-42
-37
-32
-29
-26
-24
-22
-21
-20
-20
-19
-19
-18
-18
-17
-17
-17
-17
-17
-17
-17
-17
-16
-15
-14
-12
-10
-8
-7
-6
-5
-5
-5
-5
-4
-2
0
2
5
7
9
10
10
10
10
10
10
11
13
16
18
21
24
27
29
31
33
34
36
39
41
43
46
48
50
51
52
53
54
55
57
58
59
61
62
63
64
63
62
61
59
56
53
50
47
44
41
38
35
33
31
28
25
22
19
16
12
9
5
2
-1
-3
-6
-7
-8
-9
-9
-9
-10
-10
-11
-11
-12
-14
-15
-16
-17
-18
-18
-18
-18
-17
-17
-16
-16
-16
-16
-16
-17
-18
-19
-19
-20
-20
-20
-19
-19
-18
-17
-17
-17
-18
-19
-21
-22
-23
-23
-23
-22
-21
-19
-18
-18
-18
-18
-19
-20
-21
-22
-22
-21
-20
-19
-18
-17
-17
-17
-18
-18
-18
-18
-17
-16
-14
-12
-10
-8
-7
-6
-6
-7
-8
-9
-10
-12
-13
-14
-14
-14
-14
-13
-12
-10
-9
-9
-9
-9
-10
-12
-14
-17
-19
-21
-23
-24
-25
-26
-27
-27
-28
-28
-28
-28
-28
-28
-28
-28
-28
-27
-27
-26
-25
-24
-23
-23
-23
-23
-23
-23
-22
-20
-16
-9
0
10
23
37
51
63
74
81
84
81
74
60
42
21
-3
-28
-50
-70
-84
-93
-96
-94
-88
-79
-69
-59
-51
-44
-39
-35
-33
-32
-30
-29
-28
-27
-26
-25
-25
-25
-25
-25
-26
-25
-25
-25
-24
-23
-23
-22
-22
-21
-20
-18
-16
-14
-11
-9
-7
-6
-6
-5
-6
-6
-5
-4
-3
-1
1
3
5
7
9
10
11
12
14
15
17
19
21
23
25
28
30
33
35
38
41
44
46
49
51
52
54
55
56
57
59
60
61
61
62
61
60
59
58
56
54
53
51
49
47
45
42
39
36
32
29
26
22
20
17
15
12
10
7
5
2
-1
-3
-5
-6
-6
-6
-6
-6
-6
-7
-8
-9
-11
-13
-14
-15
-16
-16
-15
-14
-13
-12
-11
-10
-10
-10
-10
-10
-10
-10
-10
-10
-11
-11
-11
-11
-11
-11
-11
-12
-12
-12
-13
-13
-13
-13
-13
-12
-12
-12
-12
-12
-13
-14
-16
-17
-18
-19
-19
-18
-18
-16
-15
-13
-12
-10
-9
-8
-8
-8
-8
-8
-8
-9
-9
-9
-8
-7
-5
-3
-1
1
2
3
3
2
0
-1
-3
-4
-4
-4
-3
-1
0
1
2
2
1
0
-3
-6
-9
-12
-14
-16
-18
-19
-20
-20
-20
-20
-20
-20
-21
-21
-21
-21
-22
-22
-22
-22
-22
-22
-21
-21
-20
-19
-19
-19
-18
-17
-16
-13
-8
-1
8
20
34
50
66
81
95
106
112
112
107
94
76
53
26
-2
-29
-53
-72
-85
-92
-92
-88
-80
-71
-60
-51
-43
-37
-34
-32
-30
-30
-29
-28
-27
-26
-25
-23
-23
-22
-22
-22
-23
-23
-23
-22
-22
-21
-20
-18
-17
-16
-15
-14
-13
-13
-12
-12
-11
-11
-9
-8
-7
-5
-4
-3
-2
-1
0
1
2
3
5
7
9
11
14
17
19
22
25
28
31
33
37
40
43
46
48
50
52
54
55
56
57
59
60
62
64
66
67
68
68
67
66
65
64
63
62
61
59
58
55
52
48
44
40
36
32
29
26
24
22
20
17
14
10
6
2
-1
-4
-6
-8
-8
-8
-8
-8
-8
-8
-8
-8
-9
-9
-9
-8
-8
-8
-8
-8
-9
-9
-10
-11
-12
-12
-12
-11
-10
-9
-9
-8
-8
-9
-10
-11
-12
-14
-15
-15
-16
-16
-16
-16
-16
-16
-16
-17
-17
-17
-17
-16
-16
-16
-15
-15
-15
-16
-16
-17
-18
-20
-21
-22
-23
-23
-23
-23
-23
-22
-20
-18
-16
-15
-13
-12
-12
-12
-13
-14
-15
-15
-15
-14
-12
-9
-6
-4
-2
-1
0
-1
-3
-4
-6
-7
-7
-7
-6
-4
-3
-2
-1
-2
-3
-5
-8
-11
-14
-16
-19
-20
-20
-21
-20
-20
-20
-19
-20
-20
-20
-20
-20
-20
-19
-18
-17
-16
-16
-16
-17
-18
-20
-20
-21
-20
-19
-17
-14
-10
-5
2
11
22
35
51
68
85
101
113
121
123
117
104
85
60
32
3
-24
-49
-68
-81
-89
-90
-85
-77
-67
-55
-44
-35
-28
-23
-21
-20
-20
-21
-21
-21
-20
-19
-18
-16
-15
-14
-13
-12
-12
-10
-9
-8
-6
-5
-4
-4
-5
-6
-6
-7
-6
-5
-4
-2
0
1
2
3
3
3
3
4
5
7
10
14
17
19
21
22
22
21
21
21
21
23
25
28
32
37
41
44
47
48
49
50
50
51
52
54
56
59
62
64
65
64
63
61
58
55
52
51
50
51
52
53
53
52
49
46
41
36
31
27
24
21
19
18
16
14
11
8
5
2
0
-2
-2
-3
-3
-3
-4
-5
-7
-8
-9
-10
-10
-10
-9
-9
-8
-8
-9
-9
-9
-10
-9
-9
-8
-7
-7
-6
-7
-7
-8
-10
-11
-12
-13
-13
-12
-11
-11
-10
-9
-8
-9
-9
-10
-11
-12
-14
-15
-16
-16
-16
-16
-15
-15
-15
-15
-15
-15
-16
-17
-17
-18
-18
-19
-19
-19
-18
-18
-17
-17
-15
-14
-13
-11
-9
-8
-7
-7
-6
-6
-6
-6
-5
-4
-3
-2
-1
0
-1
-2
-3
-5
-7
-9
-10
-9
-8
-7
-5
-4
-3
-3
-4
-7
-10
-13
-16
-19
-21
-22
-22
-22
-22
-21
-21
-22
-22
-23
-24
-25
-26
-26
-25
-25
-24
-24
-24
-24
-24
-24
-23
-22
-21
-18
-16
-13
-10
-7
-2
4
12
22
33
46
59
71
80
85
85
79
67
50
30
7
-15
-36
-54
-68
-78
-82
-83
-80
-74
-67
-59
-51
-43
-37
-33
-29
-26
-25
-24
-23
-23
-22
-22
-22
-21
-20
-20
-18
-17
-16
-14
-13
-13
-12
-13
-14
-16
-18
-19
-20
-20
-18
-16
-13
-9
-6
-4
-2
-2
-2
-3
-4
-5
-4
-3
-1
2
4
7
8
9
9
9
9
9
10
13
17
22
27
32
37
40
43
44
44
44
44
45
46
48
51
53
56
58
59
59
58
58
56
55
54
53
53
52
51
49
47
45
42
39
36
32
29
26
23
19
16
13
10
7
5
2
1
-1
-2
-4
-5
-7
-9
-10
-12
-13
-14
-15
-14
-14
-13
-12
-11
-11
-11
-11
-12
-13
-13
-13
-13
-13
-12
-12
-12
-12
-13
-14
-15
-16
-16
-17
-17
-17
-16
-16
-16
-16
-17
-17
-18
-18
-18
-18
-18
-19
-19
-19
-19
-19
-19
-18
-16
-15
-14
-13
-13
-14
-16
-17
-19
-21
-22
-21
-20
-18
-16
-13
-12
-11
-10
-10
-11
-12
-12
-12
-11
-10
-8
-6
-5
-4
-3
-3
-4
-5
-7
-9
-11
-13
-14
-14
-14
-13
-11
-9
-7
-6
-6
-6
-8
-11
-14
-17
-19
-21
-22
-22
-22
-21
-21
-21
-21
-22
-23
-24
-25
-25
-26
-25
-25
-25
-24
-24
-24
-24
-24
-23
-22
-21
-19
-18
-16
-14
-11
-7
-2
5
14
26
39
53
67
80
89
95
94
88
76
58
37
13
-12
-35
-55
-70
-81
-86
-86
-82
-75
-66
-56
-46
-38
-31
-26
-22
-20
-19
-19
-20
-21
-21
-22
-22
-21
-20
-18
-16
-14
-11
-10
-9
-8
-8
-8
-9
-9
-10
-10
-9
-8
-7
-6
-4
-3
-2
0
1
2
3
5
6
8
9
11
12
14
15
16
17
18
19
20
22
23
24
26
28
31
33
37
40
44
47
50
53
55
57
58
59
60
60
61
62
63
63
64
65
65
66
66
66
65
65
64
63
61
59
57
54
50
47
43
39
36
32
29
26
23
20
17
15
13
12
10
9
8
7
6
5
4
2
1
0
-1
-2
-2
-3
-4
-4
-5
-6
-7
-8
-9
-9
-9
-9
-8
-7
-6
-5
-5
-4
-4
-5
-5
-6
-7
-8
-9
-9
-9
-9
-8
-8
-8
-8
-8
-9
-9
-10
-11
-12
-13
-13
-13
-13
-13
-12
-12
-12
-12
-12
-13
-14
-16
-17
-18
-19
-19
-18
-16
-13
-10
-7
-5
-4
-3
-3
-4
-5
-6
-6
-6
-5
-4
-2
-1
0
1
1
1
0
-1
-2
-2
-3
-3
-2
-2
-1
0
1
2
3
3
3
3
1
-1
-3
-6
-8
-11
-13
-15
-17
-18
-18
-19
-19
-20
-20
-20
-20
-21
-20
-20
-20
-20
-20
-20
-20
-19
-19
-18
-18
-18
-18
-18
-18
-18
-17
-14
-10
-4
6
18
32
48
65
82
97
110
118
120
117
106
89
67
40
11
-18
-45
-67
-84
-93
-95
-92
-84
-73
-61
-51
-42
-36
-32
-30
-30
-29
-29
-27
-26
-24
-22
-21
-21
-21
-22
-22
-23
-22
-21
-20
-18
-16
-15
-15
-15
-15
-16
-17
-17
-16
-14
-12
-10
-9
-7
-7
-6
-6
-6
-5
-2
0
4
7
10
12
13
13
13
12
12
13
15
18
21
25
29
32
35
37
40
42
45
48
51
54
56
58
59
59
59
59
59
60
62
64
67
69
70
70
69
67
64
61
57
55
53
51
50
47
45
41
36
31
26
22
18
15
12
11
10
8
7
4
2
-1
-4
-7
-9
-10
-11
-12
-13
-13
-14
-14
-15
-15
-15
-14
-13
-12
-11
-11
-12
-12
-14
-15
-17
-17
-18
-17
-17
-16
-15
-14
-14
-15
-16
-18
-19
-20
-21
-21
-21
-20
-20
-19
-20
-20
-21
-23
-24
-25
-25
-25
-24
-23
-23
-22
-22
-22
-23
-24
-26
-27
-29
-29
-29
-29
-28
-27
-26
-25
-24
-24
-23
-23
-23
-23
-23
-22
-21
-20
-19
-18
-18
-17
-17
-17
-18
-18
-18
-17
-16
-14
-12
-11
-9
-8
-7
-7
-7
-8
-8
-9
-9
-9
-8
-8
-8
-8
-9
-10
-12
-13
-15
-17
-19
-20
-21
-23
-24
-25
-27
-28
-28
-29
-29
-29
-29
-30
-30
-30
-31
-31
-31
-31
-30
-29
-27
-25
-24
-24
-24
-25
-26
-25
-24
-21
-15
-7
4
18
33
49
66
82
96
108
115
118
114
103
85
61
33
3
-27
-54
-76
-91
-99
-101
-97
-89
-78
-68
-58
-50
-44
-40
-37
-35
-33
-31
-30
-29
-28
-27
-26
-26
-25
-25
-25
-24
-23
-23
-22
-21
-20
-19
-18
-17
-16
-16
-15
-15
-16
-16
-16
-15
-14
-13
-11
-8
-6
-4
-2
-1
0
0
1
1
2
3
4
6
7
9
10
11
13
14
16
19
22
26
29
32
36
38
40
42
44
46
48
50
52
54
55
57
58
58
59
58
58
57
56
55
54
53
51
50
48
46
44
42
40
38
36
34
32
30
27
25
22
18
15
12
8
5
3
1
0
-1
-1
-1
-1
-2
-2
-3
-4
-5
-7
-8
-9
-10
-10
-11
-11
-11
-10
-10
-10
-10
-10
-10
-10
-10
-10
-10
-10
-10
-9
-9
-8
-8
-8
-7
-8
-8
-9
-9
-10
-11
-12
-13
-13
-13
-13
-13
-12
-12
-11
-12
-13
-14
-15
-17
-18
-18
-18
-16
-15
-13
-12
-12
-13
-14
-16
-18
-20
-21
-21
-20
-17
-14
-11
-8
-6
-5
-6
-6
-8
-9
-9
-8
-7
-4
-1
2
4
6
6
5
4
1
-2
-4
-6
-7
-7
-7
-6
-5
-4
-3
-4
-4
-5
-7
-8
-10
-11
-12
-13
-14
-15
-16
-16
-17
-18
-19
-20
-21
-21
-22
-22
-22
-21
-21
-21
-20
-20
-20
-20
-19
-18
-17
-16
-14
-11
-9
-6
-3
0
4
9
15
24
34
46
60
73
84
93
96
94
85
70
51
28
4
-19
-40
-57
-69
-76
-79
-78
-74
-69
-61
-54
-46
-38
-30
-23
-18
-14
-11
-10
-11
-13
-15
-17
-18
-18
-17
-15
-12
-10
-8
-7
-7
-8
-9
-11
-12
-12
-11
-10
-8
-7
-5
-3
-2
-1
0
1
2
4
6
8
10
11
13
14
15
15
16
16
16
17
18
20
21
23
25
26
28
30
32
34
36
39
41
44
47
49
51
53
55
57
59
60
61
62
62
62
61
60
60
60
60
60
60
61
61
60
58
56
53
49
46
42
39
36
34
32
29
27
24
21
17
14
11
9
7
5
4
3
2
1
1
0
0
0
0
-1
-1
-2
-3
-4
-5
-7
-7
-7
-7
-6
-5
-4
-3
-2
-3
-4
-6
-7
-9
-11
-12
-12
-12
-12
-11
-10
-9
-8
-8
-7
-6
-6
-6
-7
-7
-9
-10
-11
-12
-13
-13
-13
-13
-13
-13
-13
-14
-15
-15
-16
-17
-17
-17
-17
-16
-16
-15
-14
-13
-12
-11
-10
-9
-8
-7
-6
-6
-6
-6
-6
-5
-4
-3
-1
0
1
1
0
-1
-3
-4
-5
-6
-6
-6
-6
-5
-5
-5
-6
-7
-9
-11
-13
-15
-17
-19
-20
-21
-22
-22
-22
-22
-22
-22
-22
-22
-22
-23
-24
-26
-27
-28
-28
-28
-27
-26
-24
-23
-22
-22
-22
-22
-22
-21
-19
-15
-9
-1
8
19
31
44
56
68
78
84
87
85
78
65
47
25
0
-25
-48
-67
-82
-90
-93
-90
-84
-75
-66
-56
-48
-42
-37
-33
-31
-29
-28
-27
-26
-26
-26
-25
-25
-24
-23
-22
-21
-21
-20
-20
-20
-20
-20
-20
-19
-18
-16
-14
-12
-11
-10
-9
-10
-10
-10
-11
-10
-10
-8
-7
-5
-3
-1
1
2
4
5
7
8
10
11
12
14
15
17
18
21
23
26
29
33
36
39
42
44
46
48
50
52
54
56
58
60
61
62
62
62
62
61
61
61
60
59
58
57
55
53
50
47
43
40
37
34
31
29
26
24
22
20
18
15
12
9
6
3
-1
-3
-5
-7
-8
-8
-8
-8
-9
-9
-10
-10
-11
-11
-12
-12
-12
-12
-12
-12
-12
-12
-13
-13
-13
-13
-13
-12
-12
-11
-11
-11
-10
-10
-10
-10
-11
-11
-12
-12
-13
-13
-14
-14
-14
-14
-13
-13
-13
-13
-13
-14
-14
-15
-16
-16
-16
-16
-16
-16
-16
-16
-16
-17
-17
-17
-17
-16
-15
-14
-13
-12
-11
-10
-10
-10
-9
-9
-8
-7
-6
-5
-4
-4
-3
-3
-4
-4
-4
-4
-4
-4
-3
-2
-1
0
1
1
2
2
2
1
-1
-3
-5
-8
-10
-12
-14
-16
-17
-18
-18
-18
-18
-18
-18
-19
-19
-19
-20
-20
-21
-22
-23
-24
-24
-25
-24
-23
-22
-20
-18
-17
-16
-16
-15
-14
-11
-6
2
14
28
44
62
79
95
108
116
119
116
106
90
69
43
16
-13
-39
-62
-80
-92
-98
-98
-92
-83
-71
-59
-48
-38
-32
-27
-25
-24
-25
-25
-26
-26
-25
-24
-23
-21
-20
-19
-18
-18
-18
-18
-18
-18
-18
-17
-17
-17
-16
-16
-15
-15
-14
-13
-11
-9
-7
-5
-3
-2
-1
0
0
1
1
2
3
5
7
10
12
14
16
18
20
22
23
25
26
28
31
33
36
39
42
45
48
51
53
55
57
58
59
60
61
62
63
64
66
67
67
67
67
65
64
61
59
56
54
52
49
47
45
43
40
37
33
29
24
20
15
11
7
4
1
-1
-3
-5
-7
-9
-10
-11
-12
-12
-13
-13
-13
-13
-14
-14
-15
-15
-16
-16
-15
-15
-14
-14
-14
-15
-16
-17
-18
-19
-19
-19
-18
-17
-16
-15
-15
-16
-17
-19
-20
-22
-23
-24
-23
-23
-22
-21
-21
-21
-21
-23
-24
-25
-27
-27
-27
-27
-26
-25
-24
-23
-22
-22
-23
-23
-24
-24
-25
-25
-25
-24
-24
-23
-22
-21
-21
-21
-20
-20
-20
-19
-18
-16
-15
-13
-11
-9
-7
-6
-5
-6
-6
-8
-9
-10
-10
-10
-9
-7
-5
-3
-2
-2
-3
-4
-7
-10
-13
-16
-18
-20
-22
-23
-24
-24
-24
-24
-24
-23
-23
-23
-23
-23
-24
-26
-27
-28
-28
-27
-26
-24
-22
-20
-18
-18
-18
-19
-20
-20
-18
-14
-7
3
16
31
47
63
79
93
105
113
117
115
107
93
74
49
22
-7
-34
-57
-76
-87
-93
-92
-86
-77
-67
-57
-48
-41
-35
-30
-27
-24
-21
-19
-18
-17
-17
-17
-18
-19
-19
-19
-19
-17
-16
-15
-13
-13
-13
-13
-13
-13
-12
-11
-10
-8
-7
-6
-5
-5
-5
-5
-5
-4
-3
-1
2
4
7
9
11
12
13
13
13
14
15
17
19
22
24
27
30
32
33
34
35
37
38
40
43
47
51
55
58
61
63
64
65
64
64
62
61
60
60
59
59
58
58
57
56
54
52
49
47
44
41
38
36
33
31
28
25
22
18
15
11
8
4
2
-1
-2
-4
-5
-6
-7
-8
-9
-9
-10
-10
-11
-11
-10
-10
-10
-11
-12
-13
-14
-15
-16
-15
-14
-12
-10
-8
-6
-6
-6
-8
-11
-15
-18
-20
-22
-22
-21
-19
-16
-14
-12
-11
-11
-12
-13
-15
-16
-16
-17
-16
-16
-15
-15
-15
-15
-15
-16
-17
-18
-18
-19
-20
-21
-21
-20
-19
-17
-14
-11
-9
-8
-7
-8
-10
-13
-15
-16
-16
-14
-11
-7
-3
1
4
5
4
2
-1
-4
-6
-7
-8
-7
-7
-6
-6
-7
-8
-9
-9
-10
-10
-10
-10
-10
-10
-11
-13
-15
-18
-20
-22
-23
-24
-24
-25
-24
-24
-24
-23
-22
-21
-20
-19
-19
-20
-21
-22
-23
-23
-22
-20
-18
-15
-12
-9
-8
-6
-5
-2
3
11
21
35
50
65
78
87
91
89
81
66
47
26
3
-18
-37
-53
-64
-71
-73
-72
-68
-62
-55
-48
-41
-35
-29
-25
-21
-18
-15
-13
-10
-9
-8
-8
-8
-9
-11
-12
-14
-14
-14
-13
-11
-10
-8
-7
-6
-6
-6
-6
-6
-6
-5
-4
-2
-2
-1
-1
-1
-2
-2
-2
-1
0
2
3
5
7
8
9
10
11
13
15
17
19
22
24
27
29
31
33
36
38
40
42
44
46
47
48
49
50
51
53
54
55
56
57
57
56
54
51
49
47
45
43
42
42
41
40
38
36
33
30
28
25
23
21
18
16
13
10
7
4
1
-2
-4
-5
-6
-6
-6
-5
-5
-5
-6
-7
-9
-11
-13
-15
-18
-19
-21
-22
-22
-21
-20
-18
-16
-14
-11
-9
-8
-7
-8
-9
-11
-14
-17
-20
-22
-23
-24
-24
-23
-21
-20
-18
-18
-17
-17
-18
-18
-19
-20
-20
-20
-20
-20
-20
-20
-19
-19
-19
-19
-19
-19
-19
-19
-18
-16
-14
-11
-7
-4
-1
1
1
0
-2
-4
-6
-7
-7
-5
-2
1
5
8
9
9
7
4
0
-4
-7
-9
-9
-9
-8
-7
-6
-6
-6
-6
-7
-8
-8
-9
-8
-8
-8
-8
-9
-11
-13
-16
-19
-21
-22
-21
-19
-16
-12
-10
-9
-9
-11
-13
-16
-18
-18
-16
-14
-10
-6
-3
-1
-1
-2
-3
-2
2
8
18
30
42
54
62
66
64
56
43
26
6
-13
-30
-45
-55
-62
-64
-64
-61
-57
-52
-47
-42
-37
-32
-27
-23
-19
-15
-12
-9
-7
-6
-6
-6
-8
-10
-13
-15
-16
-17
-16
-14
-11
-9
-7
-6
-6
-7
-9
-11
-11
-10
-8
-5
0
4
8
10
11
11
10
8
7
7
9
11
14
16
18
19
19
17
16
14
13
13
15
18
22
27
31
34
37
38
39
39
39
40
42
44
47
50
53
55
56
56
55
53
52
50
50
50
51
51
51
51
49
46
41
36
31
27
23
21
20
19
19
19
18
17
15
12
9
6
4
2
1
0
0
-1
-3
-4
-6
-8
-9
-10
-9
-8
-6
-4
-3
-2
-2
-3
-4
-5
-7
-8
-8
-8
-8
-7
-7
-7
-7
-7
-7
-7
-6
-6
-6
-6
-6
-6
-6
-7
-6
-6
-5
-3
-1
0
1
2
1
0
-1
-3
-5
-7
-8
-8
-8
-7
-6
-5
-4
-3
-2
-2
-2
-2
-2
-2
-2
-2
-2
-2
-3
-3
-3
-2
-2
-1
1
2
3
4
5
5
4
3
1
-1
-4
-6
-7
-7
-7
-6
-5
-4
-3
-3
-4
-6
-9
-11
-13
-15
-16
-17
-17
-17
-17
-18
-19
-20
-21
-22
-22
-22
-22
-22
-22
-22
-22
-23
-24
-24
-24
-24
-23
-22
-21
-19
-18
-17
-16
-13
-8
-2
7
17
29
39
48
53
54
50
41
29
13
-4
-21
-36
-50
-61
-70
-76
-79
-79
-78
-74
-68
-61
-53
-45
-37
-31
-26
-23
-22
-22
-23
-25
-26
-27
-27
-26
-26
-25
-25
-25
-24
-24
-23
-22
-21
-20
-19
-18
-17
-16
-16
-15
-14
-14
-13
-12
-11
-11
-11
-10
-10
-10
-9
-8
-6
-4
-1
1
3
5
6
6
6
6
6
8
9
12
15
18
22
25
28
30
32
34
36
38
40
43
46
49
52
54
56
57
57
56
55
53
52
50
48
47
46
45
43
42
41
39
37
34
32
29
26
23
20
18
15
13
12
10
9
7
6
3
1
-2
-5
-7
-9
-10
-11
-10
-9
-7
-5
-4
-4
-5
-6
-9
-11
-14
-16
-17
-17
-16
-14
-12
-10
-8
-7
-6
-7
-8
-9
-10
-12
-13
-13
-13
-13
-13
-12
-12
-11
-11
-11
-11
-11
-11
-11
-11
-11
-11
-11
-11
-12
-12
-13
-14
-15
-16
-16
-17
-16
-15
-14
-12
-10
-8
-7
-6
-6
-6
-6
-6
-6
-6
-5
-4
-2
-1
-1
0
0
0
0
0
0
1
1
1
1
0
-1
-2
-2
-3
-2
-1
0
1
2
2
1
0
-2
-5
-7
-9
-11
-12
-13
-14
-15
-15
-16
-16
-16
-15
-14
-13
-12
-11
-11
-11
-12
-13
-14
-15
-15
-15
-15
-15
-14
-13
-12
-10
-8
-4
1
8
17
27
39
53
65
77
86
91
91
86
75
59
39
16
-7
-29
-48
-63
-73
-77
-78
-75
-69
-61
-53
-45
-37
-29
-22
-17
-12
-9
-6
-6
-6
-8
-9
-12
-13
-14
-15
-14
-13
-11
-10
-8
-7
-6
-5
-4
-4
-3
-2
-1
1
3
4
5
6
7
7
7
8
8
9
10
11
13
14
16
18
19
20
21
22
23
25
26
29
31
34
36
39
42
45
47
49
50
52
53
55
57
58
60
63
65
68
70
72
73
74
75
75
75
74
73
72
71
70
68
67
65
63
61
59
57
55
52
49
45
42
38
34
30
27
24
21
19
17
16
14
12
10
9
7
5
4
4
4
4
4
4
3
2
0
-2
-4
-6
-8
-9
-9
-9
-9
-8
-8
-7
-7
-7
-8
-8
-8
-8
-8
-8
-8
-8
-9
-9
-10
-11
-11
-12
-12
-12
-12
-12
-12
-12
-13
-14
-16
-18
-19
-21
-21
-22
-21
-20
-19
-18
-17
-16
-16
-16
-17
-17
-18
-18
-18
-17
-16
-15
-14
-13
-13
-13
-13
-13
-13
-13
-12
-12
-11
-10
-9
-8
-8
-8
-8
-9
-9
-9
-9
-8
-7
-5
-4
-3
-2
-2
-3
-4
-7
-9
-12
-15
-17
-19
-21
-23
-24
-25
-26
-27
-28
-29
-30
-30
-30
-31
-31
-30
-30
-30
-30
-29
-29
-29
-29
-29
-29
-29
-29
-28
-28
-27
-25
-21
-16
-9
0
12
27
44
61
79
95
107
115
117
111
99
80
55
27
-2
-30
-56
-76
-92
-101
-104
-103
-97
-90
-81
-71
-63
-56
-51
-48
-47
-47
-47
-48
-49
-48
-47
-45
-42
-39
-36
-33
-32
-31
-31
-32
-33
-34
-35
-35
-35
-35
-35
-34
-34
-34
-33
-32
-31
-29
-26
-24
-21
-18
-16
-14
-13
-12
-11
-10
-10
-9
-9
-8
-7
-6
-4
-2
1
4
6
10
13
16
18
21
24
27
30
32
35
38
41
43
45
47
49
51
52
53
54
55
55
55
54
54
53
52
52
51
50
49
48
46
44
41
38
34
30
25
21
17
14
10
7
5
2
0
-3
-4
-6
-7
-8
-9
-9
-10
-11
-12
-13
-15
-16
-18
-19
-19
-20
-19
-19
-19
-18
-18
-18
-19
-20
-20
-21
-21
-21
-21
-20
-19
-18
-18
-18
-18
-19
-20
-20
-21
-22
-22
-23
-23
-23
-22
-22
-22
-21
-21
-21
-22
-22
-23
-23
-24
-24
-24
-24
-23
-23
-23
-23
-23
-24
-25
-26
-26
-26
-25
-24
-22
-21
-19
-18
-17
-17
-17
-17
-17
-16
-15
-13
-12
-10
-10
-9
-10
-11
-11
-12
-11
-10
-8
-6
-4
-3
-2
-3
-4
-6
-8
-10
-10
-10
-9
-7
-5
-4
-4
-4
-6
-9
-12
-15
-18
-21
-22
-23
-24
-23
-23
-22
-22
-21
-21
-21
-21
-22
-22
-21
-21
-20
-20
-19
-18
-18
-18
-18
-18
-18
-18
-16
-14
-10
-5
3
13
25
38
53
68
83
96
106
111
112
106
93
75
51
25
-3
-30
-53
-71
-84
-90
-89
-84
-75
-65
-53
-43
-34
-27
-22
-19
-17
-17
-17
-18
-19
-20
-20
-20
-19
-19
-17
-15
-14
-12
-11
-9
-9
-8
-8
-8
-8
-7
-7
-6
-5
-5
-4
-4
-4
-4
-4
-3
-1
0
3
5
7
8
9
10
10
10
10
11
12
14
17
20
23
26
29
31
32
33
34
35
36
38
41
44
48
53
57
60
63
65
66
66
65
64
63
62
61
61
61
60
60
60
59
58
56
55
53
51
49
47
45
42
40
37
34
32
29
26
24
21
19
16
14
12
9
7
5
3
1
-1
-2
-4
-5
-5
-6
-5
-5
-4
-4
-3
-3
-3
-4
-5
-6
-7
-9
-9
-10
-10
-10
-10
-10
-9
-9
-9
-9
-8
-8
-8
-8
-8
-8
-8
-8
-9
-9
-10
-10
-11
-11
-11
-12
-12
-12
-12
-12
-12
-12
-12
-12
-12
-11
-11
-11
-11
-11
-11
-12
-12
-13
-13
-13
-12
-10
-9
-7
-5
-4
-3
-3
-3
-4
-4
-4
-4
-3
-2
0
2
4
5
6
6
5
3
2
0
-1
-2
-2
-2
-2
-1
-1
-1
-2
-2
-3
-3
-4
-4
-4
-4
-5
-5
-7
-8
-10
-11
-13
-14
-15
-15
-15
-14
-14
-14
-14
-15
-15
-15
-15
-15
-14
-13
-12
-11
-10
-9
-9
-8
-8
-7
-5
-1
4
12
21
33
45
58
69
79
85
88
86
78
66
50
31
9
-12
-33
-51
-65
-75
-80
-81
-78
-71
-63
-53
-44
-36
-29
-23
-20
-18
-17
-17
-17
-18
-18
-19
-19
-19
-18
-17
-16
-14
-13
-11
-10
-8
-7
-7
-7
-7
-7
-8
-8
-8
-8
-8
-8
-7
-7
-7
-6
-5
-4
-2
0
2
4
6
7
8
9
10
10
10
11
12
13
15
17
20
22
25
27
29
32
34
37
39
41
44
46
48
50
51
52
54
55
56
57
58
59
60
60
60
60
59
57
56
54
52
51
50
48
47
46
44
41
39
35
32
28
25
22
18
16
13
11
9
7
5
3
2
0
-1
-2
-3
-5
-6
-7
-8
-9
-10
-10
-10
-9
-8
-7
-6
-6
-5
-5
-6
-6
-7
-8
-8
-9
-9
-10
-10
-10
-10
-10
-10
-10
-9
-9
-8
-8
-8
-9
-9
-10
-10
-11
-11
-11
-11
-11
-11
-10
-10
-10
-10
-10
-10
-9
-9
-9
-10
-10
-11
-12
-13
-13
-14
-13
-13
-11
-10
-8
-6
-5
-4
-3
-3
-3
-2
-2
-2
-1
0
1
2
3
4
4
4
4
3
2
1
1
0
0
0
0
0
1
1
1
1
0
-1
-3
-5
-8
-10
-13
-15
-16
-18
-18
-18
-18
-18
-18
-18
-18
-19
-19
-19
-18
-18
-17
-17
-16
-16
-17
-17
-18
-18
-18
-17
-16
-14
-11
-8
-4
1
7
15
24
36
48
61
74
84
91
94
90
81
67
47
25
1
-22
-43
-61
-74
-82
-85
-84
-79
-72
-63
-53
-44
-36
-29
-25
-21
-20
-19
-19
-20
-20
-21
-21
-22
-22
-22
-22
-21
-21
-20
-19
-17
-16
-15
-14
-14
-14
-14
-14
-14
-14
-13
-12
-10
-8
-7
-5
-5
-4
-4
-4
-4
-4
-4
-3
-1
1
3
6
8
11
13
16
17
19
20
21
22
23
24
26
29
32
36
40
44
47
50
52
53
54
55
55
56
58
59
61
62
62
62
62
60
59
58
57
56
55
54
52
51
49
46
42
38
34
31
27
24
21
19
16
14
11
8
5
2
0
-2
-4
-6
-7
-9
-10
-12
-13
-14
-15
-16
-15
-14
-13
-11
-9
-8
-8
-9
-10
-11
-13
-14
-16
-17
-17
-18
-18
-18
-18
-18
-18
-17
-17
-16
-15
-15
-15
-15
-16
-17
-18
-19
-20
-21
-21
-21
-21
-21
-22
-22
-23
-24
-25
-25
-26
-25
-25
-24
-24
-23
-23
-23
-23
-24
-24
-25
-26
-26
-26
-26
-25
-24
-23
-22
-20
-18
-17
-16
-15
-14
-14
-14
-14
-15
-15
-14
-13
-12
-11
-10
-9
-8
-8
-8
-9
-10
-11
-11
-11
-10
-8
-7
-5
-4
-3
-4
-6
-9
-12
-16
-20
-23
-25
-27
-27
-28
-27
-27
-27
-28
-28
-28
-28
-28
-27
-26
-26
-25
-25
-25
-25
-25
-26
-26
-25
-24
-23
-22
-21
-19
-17
-14
-9
-2
7
19
35
52
70
87
102
113
118
116
108
92
71
45
17
-12
-39
-62
-80
-92
-98
-98
-93
-85
-75
-64
-53
-44
-37
-33
-30
-29
-30
-30
-31
-32
-32
-31
-31
-30
-29
-28
-27
-27
-27
-27
-27
-27
-26
-25
-24
-22
-21
-19
-18
-17
-17
-17
-17
-16
-16
-14
-13
-11
-9
-7
-6
-5
-5
-5
-5
-4
-3
-2
1
3
7
10
13
15
17
18
19
21
22
25
28
31
35
39
42
45
48
51
53
55
57
58
60
62
64
65
65
65
64
63
62
61
60
59
58
57
56
54
53
51
48
45
42
38
35
31
27
23
20
16
13
9
6
4
1
-1
-3
-5
-7
-8
-9
-9
-10
-10
-11
-12
-13
-14
-15
-16
-17
-18
-18
-18
-18
-17
-17
-17
-17
-18
-19
-20
-21
-22
-23
-23
-22
-21
-19
-18
-17
-17
-17
-17
-18
-19
-19
-19
-19
-19
-19
-19
-19
-20
-20
-21
-22
-23
-23
-24
-24
-24
-24
-24
-24
-23
-23
-22
-22
-22
-22
-22
-22
-22
-23
-23
-22
-21
-20
-19
-18
-17
-17
-17
-18
-19
-19
-20
-19
-19
-17
-16
-14
-12
-10
-9
-8
-7
-7
-7
-6
-6
-6
-6
-6
-6
-5
-5
-3
-2
-1
0
1
0
-1
-3
-6
-10
-13
-16
-18
-20
-22
-22
-23
-24
-25
-25
-26
-26
-26
-26
-25
-25
-25
-25
-26
-26
-27
-27
-27
-26
-25
-24
-23
-22
-22
-22
-21
-18
-15
-8
1
13
28
45
63
82
100
116
129
136
138
133
121
102
77
48
18
-12
-39
-60
-75
-84
-86
-83
-76
-67
-58
-49
-42
-36
-32
-29
-26
-24
-23
-22
-22
-22
-22
-23
-24
-24
-24
-23
-22
-20
-18
-16
-14
-13
-13
-13
-13
-13
-14
-13
-13
-11
-9
-7
-5
-3
-1
0
1
1
1
1
1
1
2
4
6
8
10
11
13
14
16
17
18
19
21
23
25
27
30
34
38
42
46
50
53
55
56
57
58
58
59
60
62
64
67
69
71
72
71
70
68
65
63
60
59
57
57
56
55
54
52
49
46
42
38
34
29
25
21
17
14
11
8
6
5
4
4
4
3
3
2
1
0
-2
-3
-5
-6
-6
-6
-6
-5
-4
-4
-4
-5
-5
-7
-8
-8
-8
-8
-7
-7
-6
-5
-5
-6
-7
-8
-10
-10
-11
-11
-10
-9
-8
-7
-7
-7
-7
-7
-8
-8
-9
-9
-10
-10
-11
-12
-13
-13
-13
-12
-11
-9
-8
-7
-7
-8
-9
-11
-13
-15
-16
-17
-16
-15
-14
-13
-12
-11
-11
-10
-10
-10
-9
-8
-6
-5
-3
-3
-2
-2
-3
-3
-3
-2
-1
1
2
4
5
6
5
4
3
1
0
-1
-1
-1
-1
0
0
0
0
-1
-2
-3
-4
-5
-7
-8
-10
-11
-13
-15
-16
-17
-17
-16
-15
-13
-12
-11
-11
-12
-14
-16
-18
-19
-20
-20
-20
-18
-17
-15
-14
-13
-12
-11
-9
-6
-2
5
13
24
36
49
63
76
87
96
102
102
98
88
72
52
28
2
-23
-46
-65
-79
-86
-87
-83
-75
-65
-54
-44
-36
-30
-26
-24
-23
-23
-22
-21
-20
-18
-17
-16
-15
-15
-15
-15
-15
-14
-14
-13
-11
-10
-9
-8
-7
-6
-5
-4
-3
-2
-1
0
1
1
0
0
-1
-2
-2
-1
0
2
4
6
8
9
11
12
13
14
15
17
19
22
25
28
30
32
33
35
36
37
38
40
42
44
47
49
52
54
55
57
58
59
60
61
61
62
62
61
61
60
58
57
55
53
51
49
46
44
41
38
35
32
29
27
24
22
20
19
17
15
13
10
7
4
1
-2
-4
-6
-8
-8
-9
-9
-9
-9
-9
-10
-11
-11
-12
-12
-12
-12
-11
-10
-10
-9
-9
-9
-10
-11
-12
-12
-13
-14
-14
-15
-15
-15
-16
-16
-17
-17
-18
-18
-18
-18
-17
-17
-15
-14
-13
-12
-12
-12
-13
-14
-15
-17
-18
-18
-18
-18
-17
-16
-15
-15
-15
-16
-17
-19
-19
-20
-20
-19
-18
-16
-15
-14
-13
-13
-13
-13
-13
-13
-12
-11
-10
-9
-7
-6
-5
-4
-4
-4
-4
-5
-6
-8
-9
-10
-11
-12
-12
-11
-10
-9
-8
-8
-8
-8
-10
-12
-14
-16
-19
-21
-22
-23
-24
-24
-24
-24
-25
-25
-25
-26
-26
-27
-27
-27
-27
-26
-26
-26
-25
-25
-25
-25
-25
-24
-23
-21
-19
-16
-12
-7
-1
7
18
30
43
57
71
82
89
92
88
79
64
44
22
-2
-24
-45
-61
-74
-82
-86
-85
-81
-75
-67
-58
-49
-40
-33
-28
-25
-24
-24
-24
-25
-26
-27
-27
-26
-26
-25
-24
-24
-24
-24
-23
-22
-22
-20
-19
-18
-17
-16
-16
-16
-15
-15
-14
-13
-12
-11
-10
-9
-8
-8
-8
-7
-7
-6
-4
-2
1
3
6
8
10
12
13
14
15
17
18
20
22
25
28
31
35
38
42
45
47
49
50
52
52
53
54
55
56
58
59
60
62
63
63
63
62
61
59
57
55
52
50
47
44
41
38
36
33
31
28
25
22
20
17
14
12
9
7
5
3
0
-2
-4
-7
-8
-10
-11
-11
-11
-11
-11
-11
-11
-12
-13
-14
-15
-16
-17
-17
-17
-17
-16
-16
-15
-14
-13
-12
-12
-11
-11
-11
-11
-12
-13
-14
-16
-17
-19
-19
-20
-20
-19
-19
-18
-18
-17
-17
-17
-17
-17
-17
-17
-17
-18
-19
-20
-20
-21
-22
-22
-23
-23
-23
-24
-24
-24
-24
-23
-23
-22
-20
-18
-16
-14
-12
-11
-10
-9
-10
-10
-11
-11
-11
-11
-11
-10
-8
-7
-6
-5
-5
-6
-7
-9
-11
-12
-12
-12
-10
-7
-4
-1
0
1
0
-3
-6
-11
-15
-18
-20
-21
-21
-21
-20
-20
-19
-20
-20
-21
-22
-23
-23
-23
-22
-22
-22
-22
-23
-24
-24
-25
-25
-24
-23
-21
-20
-18
-15
-12
-7
0
9
22
36
53
70
86
100
110
114
112
103
88
67
42
15
-12
-37
-59
-76
-87
-92
-92
-87
-79
-69
-58
-48
-40
-33
-29
-27
-26
-26
-26
-26
-25
-24
-22
-21
-19
-18
-17
-17
-17
-17
-17
-16
-15
-14
-14
-13
-12
-12
-12
-12
-12
-12
-11
-9
-8
-6
-5
-4
-3
-2
-1
0
2
3
5
7
9
10
11
12
13
14
16
18
21
23
27
30
32
35
37
39
41
43
45
48
51
53
56
58
59
61
62
63
65
67
69
72
74
76
77
76
75
73
71
68
65
63
61
59
57
55
53
51
48
44
41
37
33
29
25
22
19
16
13
10
8
5
3
1
-1
-2
-3
-4
-5
-6
-7
-8
-8
-9
-9
-9
-9
-9
-8
-9
-9
-9
-10
-11
-12
-13
-14
-15
-15
-15
-15
-15
-15
-15
-15
-15
-15
-15
-15
-15
-15
-15
-15
-14
-14
-14
-14
-15
-15
-16
-17
-18
-19
-20
-21
-21
-21
-20
-20
-19
-17
-16
-15
-14
-14
-14
-15
-16
-17
-18
-19
-19
-18
-17
-15
-13
-11
-9
-8
-8
-9
-10
-11
-13
-13
-13
-12
-10
-7
-4
-2
0
1
1
0
-1
-3
-5
-6
-7
-6
-5
-4
-2
-1
1
1
1
0
-2
-5
-8
-12
-16
-20
-23
-25
-27
-27
-27
-26
-25
-23
-22
-21
-20
-20
-21
-22
-23
-25
-25
-25
-25
-24
-23
-22
-21
-21
-21
-21
-21
-19
-15
-9
-1
11
26
43
61
79
96
111
122
128
128
122
109
89
64
35
5
-25
-51
-73
-88
-96
-97
-93
-85
-75
-64
-54
-46
-39
-35
-33
-31
-30
-29
-29
-28
-28
-27
-27
-27
-26
-26
-24
-23
-21
-19
-18
-17
-16
-17
-17
-18
-18
-18
-17
-15
-13
-11
-8
-6
-5
-4
-3
-3
-3
-2
-2
-1
0
1
2
3
5
6
8
10
12
15
17
20
23
25
27
29
31
34
36
39
42
45
48
51
54
57
59
61
63
65
66
68
69
70
70
71
70
69
68
66
65
64
63
62
62
62
61
60
58
55
52
48
44
39
36
32
29
26
23
19
15
11
7
3
0
-2
-4
-4
-4
-4
-4
-4
-5
-6
-8
-10
-11
-12
-12
-11
-10
-10
-9
-9
-9
-11
-12
-14
-16
-17
-17
-17
-16
-15
-14
-13
-13
-14
-15
-16
-17
-18
-19
-19
-18
-17
-16
-15
-15
-15
-16
-16
-17
-18
-18
-17
-17
-16
-16
-16
-16
-17
-18
-20
-20
-21
-21
-20
-20
-19
-18
-18
-18
-19
-21
-22
-23
-23
-23
-22
-21
-19
-17
-15
-14
-14
-14
-14
-14
-14
-13
-12
-11
-10
-8
-7
-6
-6
-5
-6
-6
-6
-7
-7
-7
-8
-8
-8
-7
-7
-6
-6
-5
-5
-5
-5
-6
-8
-10
-13
-16
-18
-20
-22
-23
-24
-25
-25
-25
-25
-25
-24
-23
-23
-22
-21
-21
-21
-21
-22
-22
-23
-23
-23
-23
-22
-21
-19
-17
-14
-10
-4
4
14
26
41
57
73
89
103
113
118
117
109
94
73
47
18
-12
-39
-62
-80
-91
-96
-94
-88
-78
-67
-56
-46
-39
-33
-30
-27
-26
-25
-24
-23
-23
-22
-22
-23
-23
-24
-24
-24
-24
-23
-21
-20
-18
-18
-17
-17
-18
-18
-18
-17
-15
-13
-11
-9
-7
-7
-7
-7
-8
-8
-7
-5
-3
0
3
5
7
8
8
7
6
6
7
9
12
16
20
24
28
30
32
33
34
35
37
39
41
44
48
51
53
55
57
58
59
59
60
60
60
61
61
60
60
59
57
56
54
52
49
47
45
43
41
39
37
35
32
29
26
23
19
15
11
8
5
3
1
0
-2
-3
-4
-6
-7
-9
-11
-12
-13
-14
-14
-15
-14
-14
-14
-14
-14
-14
-14
-14
-14
-14
-14
-14
-13
-13
-13
-12
-12
-12
-12
-13
-13
-14
-14
-14
-14
-14
-14
-14
-14
-15
-16
-16
-17
-18
-18
-18
-17
-16
-15
-14
-14
-14
-14
-15
-17
-18
-20
-21
-21
-20
-20
-18
-17
-17
-17
-17
-18
-19
-19
-20
-20
-19
-18
-16
-14
-13
-12
-11
-10
-9
-9
-8
-7
-6
-4
-3
-3
-3
-4
-5
-8
-10
-12
-13
-14
-13
-11
-9
-7
-5
-5
-5
-6
-8
-11
-14
-16
-18
-19
-20
-20
-20
-20
-20
-20
-21
-22
-23
-24
-25
-27
-28
-29
-29
-29
-28
-27
-25
-24
-22
-20
-19
-18
-18
-17
-17
-15
-12
-8
-3
5
14
24
35
47
59
70
79
85
88
85
78
65
47
26
3
-21
-43
-61
-75
-84
-88
-87
-82
-75
-67
-57
-48
-40
-32
-27
-22
-19
-18
-17
-18
-19
-21
-22
-22
-22
-21
-20
-18
-17
-16
-15
-15
-16
-16
-15
-14
-13
-11
-9
-7
-5
-4
-4
-4
-4
-5
-5
-5
-4
-3
-2
0
1
3
5
6
7
8
9
9
10
11
12
13
15
18
21
24
28
32
35
38
41
43
44
45
47
49
51
54
57
60
62
64
65
66
66
66
65
65
65
65
65
65
65
64
62
60
58
55
52
48
46
43
40
38
35
32
29
26
23
19
16
14
12
10
8
6
4
2
0
-3
-6
-8
-9
-10
-11
-10
-10
-9
-8
-8
-7
-8
-8
-9
-10
-10
-11
-11
-11
-11
-12
-12
-12
-12
-11
-11
-11
-10
-10
-10
-10
-11
-12
-13
-14
-15
-16
-16
-15
-14
-13
-12
-12
-12
-12
-13
-14
-15
-16
-17
-17
-16
-15
-14
-14
-13
-14
-15
-15
-16
-16
-16
-14
-13
-11
-9
-8
-7
-7
-8
-8
-9
-8
-7
-6
-4
-2
1
2
3
4
4
3
2
0
-1
-3
-4
-5
-6
-6
-6
-6
-5
-4
-3
-2
-2
-3
-4
-6
-9
-11
-14
-17
-19
-21
-22
-22
-22
-22
-21
-20
-20
-19
-19
-20
-21
-21
-22
-23
-23
-22
-21
-20
-19
-18
-18
-18
-18
-18
-18
-16
-11
-5
5
17
30
45
61
75
88
97
103
104
100
90
74
54
29
3
-23
-47
-66
-80
-87
-89
-85
-77
-67
-56
-47
-39
-33
-30
-28
-26
-25
-24
-23
-21
-19
-18
-16
-16
-16
-17
-17
-18
-17
-17
-16
-14
-13
-12
-11
-10
-10
-10
-10
-10
-10
-9
-8
-7
-6
-5
-4
-3
-2
-2
-1
1
2
4
6
7
9
10
10
11
11
12
13
15
17
20
23
26
29
31
33
35
36
38
40
42
45
48
52
55
58
60
62
64
65
65
65
65
64
63
62
61
60
59
59
58
57
56
55
53
51
48
46
43
40
38
35
32
29
26
22
18
14
10
6
3
0
-2
-3
-4
-5
-6
-8
-9
-10
-12
-12
-13
-13
-12
-11
-10
-9
-9
-10
-11
-12
-14
-16
-17
-17
-17
-17
-16
-14
-13
-13
-13
-14
-15
-16
-17
-18
-19
-19
-19
-19
-19
-19
-19
-19
-19
-19
-19
-18
-18
-18
-18
-18
-18
-18
-18
-18
-19
-19
-20
-20
-21
-22
-22
-23
-23
-24
-23
-23
-22
-20
-19
-17
-15
-14
-12
-11
-11
-11
-11
-12
-13
-13
-14
-14
-13
-12
-10
-7
-5
-4
-3
-3
-3
-5
-6
-8
-9
-9
-7
-6
-3
-1
0
1
0
-1
-4
-7
-10
-14
-17
-19
-21
-23
-24
-25
-25
-25
-25
-25
-25
-25
-25
-25
-25
-25
-26
-26
-26
-26
-26
-25
-24
-23
-22
-21
-20
-19
-18
-16
-13
-8
0
10
23
38
56
73
90
105
116
122
121
114
100
80
55
27
-2
-30
-54
-73
-86
-93
-94
-90
-83
-73
-63
-54
-46
-39
-34
-31
-29
-27
-26
-25
-24
-23
-23
-23
-23
-23
-23
-23
-23
-23
-22
-22
-21
-21
-21
-21
-21
-21
-20
-19
-18
-16
-15
-13
-13
-12
-12
-12
-11
-10
-9
-6
-4
-2
1
2
3
3
4
4
5
6
8
10
13
16
20
23
26
29
31
33
36
38
40
42
44
46
48
50
52
55
57
59
61
63
65
66
67
68
68
68
67
66
65
63
61
59
57
56
54
53
51
48
45
41
36
31
26
21
16
13
10
8
7
6
5
4
2
-1
-3
-6
-8
-10
-11
-12
-12
-12
-12
-12
-13
-14
-16
-17
-18
-19
-19
-19
-19
-19
-18
-18
-17
-17
-16
-16
-17
-17
-18
-18
-19
-19
-20
-20
-20
-20
-20
-20
-20
-21
-22
-23
-23
-23
-23
-22
-20
-19
-18
-17
-18
-19
-20
-22
-24
-25
-26
-26
-25
-24
-23
-22
-22
-22
-23
-24
-25
-25
-24
-23
-21
-19
-17
-15
-14
-13
-13
-13
-14
-15
-15
-14
-13
-12
-11
-10
-8
-8
-8
-8
-8
-8
-8
-8
-8
-8
-8
-7
-7
-6
-6
-6
-6
-5
-5
-5
-6
-6
-8
-10
-12
-14
-17
-20
-22
-24
-25
-26
-26
-25
-24
-23
-23
-22
-22
-23
-24
-25
-26
-26
-26
-25
-24
-24
-23
-23
-23
-23
-23
-22
-20
-16
-9
0
12
27
43
61
79
97
113
127
136
140
137
127
109
85
56
25
-6
-35
-58
-75
-85
-89
-86
-80
-72
-62
-53
-45
-38
-33
-29
-26
-23
-21
-20
-20
-20
-20
-21
-21
-21
-21
-21
-21
-20
-20
-20
-20
-19
-19
-18
-17
-15
-13
-11
-10
-8
-8
-8
-8
-8
-8
-7
-6
-3
-1
2
4
6
7
7
7
6
6
7
9
11
15
18
22
25
29
31
34
36
37
39
41
44
46
48
50
53
55
57
60
62
64
66
68
69
71
71
72
73
73
73
73
72
71
70
68
66
64
62
60
59
58
57
55
53
49
45
40
35
30
26
22
19
18
16
15
14
12
9
6
3
0
-2
-3
-3
-3
-2
-1
0
0
1
0
0
-1
-1
-2
-2
-1
-1
-1
-1
-1
-1
-1
-2
-2
-2
-1
0
0
1
1
1
0
0
-2
-3
-3
-4
-4
-4
-4
-4
-4
-4
-5
-6
-7
-7
-8
-8
-7
-6
-5
-4
-3
-2
-1
