-22
-20
-17
-14
-11
-8
-6
-3
-2
-1
-2
-3
-5
-7
-10
-11
-12
-11
-10
-8
-6
-4
-2
-1
-1
-1
-2
-4
-5
-6
-7
-7
-7
-6
-5
-4
-2
-1
0
0
0
0
0
-1
-2
-3
-5
-6
-7
-9
-9
-10
-11
-11
-12
-13
-14
-15
-16
-17
-17
-17
-16
-15
-14
-13
-12
-12
-13
-14
-15
-16
-17
-17
-18
-18
-19
-20
-21
-22
-22
-22
-20
-17
-12
-5
4
13
23
34
44
54
64
74
83
91
96
99
98
93
83
69
52
34
15
-1
-15
-24
-30
-31
-29
-26
-22
-18
-15
-13
-13
-14
-14
-14
-14
-12
-10
-7
-4
-2
0
0
-1
-3
-4
-6
-7
-6
-5
-4
-1
1
2
3
4
4
3
3
3
4
5
7
9
10
12
13
14
14
15
14
14
13
13
13
13
13
13
14
15
16
17
18
20
21
23
25
27
29
31
34
36
38
39
39
39
38
36
35
35
35
36
37
39
41
42
42
40
37
32
27
22
18
14
12
10
10
10
11
11
10
9
7
5
3
1
-1
-2
-2
-3
-4
-6
-8
-11
-13
-16
-18
-18
-18
-16
-14
-11
-9
-7
-7
-8
-10
-14
-17
-21
-23
-25
-25
-24
-22
-19
-17
-15
-13
-12
-12
-13
-13
-14
-15
-15
-15
-14
-13
-12
-11
-11
-10
-11
-11
-13
-14
-16
-18
-19
-19
-18
-16
-14
-10
-7
-4
-2
-1
-1
-1
-3
-4
-5
-7
-8
-8
-9
-10
-10
-11
-12
-12
-12
-12
-10
-8
-6
-4
-2
-1
0
-1
-2
-4
-5
-6
-7
-6
-4
-2
0
1
2
2
1
0
-2
-3
-4
-5
-5
-6
-6
-6
-7
-8
-9
-9
-9
-8
-6
-5
-4
-3
-4
-6
-9
-13
-17
-20
-22
-23
-22
-20
-17
-14
-12
-10
-9
-9
-9
-10
-11
-12
-13
-15
-17
-19
-22
-24
-25
-25
-22
-17
-9
1
12
23
35
45
55
65
73
82
89
96
100
102
99
92
80
65
46
27
9
-7
-18
-25
-28
-27
-24
-19
-14
-10
-7
-6
-6
-7
-8
-8
-9
-9
-8
-7
-6
-4
-3
-3
-3
-4
-4
-5
-5
-5
-3
0
3
6
9
11
11
10
7
4
0
-3
-4
-4
-3
0
4
8
12
15
16
17
16
15
14
13
13
13
14
16
18
20
22
24
26
28
30
32
34
36
36
36
35
34
32
31
31
31
32
34
37
39
41
43
43
43
42
41
39
37
34
31
27
23
19
15
11
8
5
3
2
2
2
2
1
1
0
-2
-4
-6
-8
-9
-10
-11
-12
-12
-12
-12
-11
-11
-11
-11
-11
-12
-13
-14
-15
-16
-17
-17
-16
-15
-14
-12
-11
-11
-12
-13
-15
-17
-19
-21
-22
-23
-22
-22
-20
-19
-17
-15
-13
-11
-9
-9
-9
-10
-12
-15
-17
-20
-21
-21
-19
-16
-13
-9
-5
-4
-4
-5
-8
-12
-16
-19
-20
-20
-19
-16
-13
-9
-7
-5
-4
-4
-4
-5
-5
-5
-5
-4
-3
-3
-2
-2
-2
-3
-3
-4
-4
-5
-6
-7
-8
-9
-10
-11
-11
-11
-10
-9
-8
-7
-6
-6
-7
-8
-9
-10
-10
-10
-9
-9
-10
-11
-13
-15
-19
-22
-25
-26
-26
-24
-22
-18
-15
-12
-10
-9
-9
-10
-11
-12
-14
-15
-17
-19
-21
-24
-26
-27
-27
-24
-18
-9
3
16
32
47
62
76
87
97
104
109
111
110
105
96
83
68
50
31
13
-2
-15
-24
-29
-31
-31
-29
-26
-23
-21
-19
-17
-14
-12
-10
-8
-7
-6
-7
-8
-9
-11
-12
-12
-11
-10
-8
-5
-3
-2
-2
-3
-5
-7
-9
-10
-10
-9
-8
-7
-5
-4
-3
-3
-3
-3
-3
-2
-2
0
1
2
3
4
4
4
4
5
7
10
14
18
22
26
29
31
32
32
30
29
27
26
25
25
26
27
29
31
33
34
36
37
37
37
36
34
31
28
24
20
17
14
11
9
8
7
6
5
3
1
-1
-4
-7
-10
-13
-16
-17
-19
-19
-19
-18
-17
-17
-16
-16
-17
-18
-20
-22
-23
-25
-27
-28
-28
-28
-28
-28
-28
-28
-28
-28
-28
-29
-30
-31
-31
-32
-32
-31
-30
-29
-27
-26
-25
-24
-24
-25
-26
-26
-27
-27
-27
-27
-27
-27
-27
-27
-27
-27
-26
-25
-23
-21
-20
-19
-19
-20
-22
-25
-29
-32
-35
-37
-37
-36
-34
-30
-27
-24
-22
-21
-21
-22
-23
-25
-26
-27
-26
-24
-21
-18
-15
-12
-10
-9
-10
-11
-14
-16
-19
-21
-23
-25
-26
-26
-26
-25
-25
-23
-22
-21
-20
-19
-18
-18
-18
-19
-21
-23
-24
-26
-27
-28
-28
-28
-28
-27
-27
-27
-27
-27
-28
-28
-28
-28
-28
-28
-28
-28
-28
-29
-29
-30
-30
-31
-32
-33
-35
-38
-41
-44
-45
-45
-41
-34
-23
-9
8
26
45
62
77
89
99
105
110
111
110
106
97
86
70
51
30
9
-10
-25
-36
-42
-43
-40
-35
-29
-24
-22
-21
-22
-24
-25
-25
-23
-20
-16
-12
-10
-10
-12
-16
-21
-26
-30
-33
-33
-30
-26
-21
-15
-11
-7
-5
-5
-6
-8
-10
-12
-13
-14
-14
-13
-12
-10
-9
-7
-5
-3
-1
0
0
0
0
0
-1
-1
-1
-1
0
1
3
5
8
11
14
18
21
25
27
28
28
28
26
24
22
21
21
21
23
25
28
29
29
29
26
23
19
15
12
10
8
8
7
7
6
5
2
-1
-4
-8
-11
-13
-15
-16
-17
-18
-19
-20
-21
-22
-24
-25
-26
-26
-26
-26
-25
-25
-24
-23
-23
-23
-23
-23
-23
-23
-23
-23
-23
-23
-23
-24
-24
-24
-25
-25
-24
-24
-23
-22
-22
-22
-21
-21
-22
-22
-21
-21
-20
-19
-18
-17
-16
-15
-15
-16
-17
-19
-21
-23
-24
-25
-24
-23
-22
-19
-17
-15
-13
-13
-13
-14
-15
-17
-17
-17
-16
-14
-11
-9
-8
-9
-10
-14
-17
-21
-25
-27
-27
-27
-25
-22
-20
-18
-18
-18
-18
-18
-18
-17
-15
-13
-12
-10
-9
-10
-10
-12
-12
-12
-11
-10
-7
-5
-4
-4
-6
-8
-12
-15
-17
-17
-17
-15
-12
-10
-9
-9
-11
-13
-16
-19
-21
-22
-22
-21
-19
-18
-17
-17
-17
-16
-15
-13
-11
-8
-5
-3
-2
-3
-6
-10
-14
-18
-21
-23
-24
-24
-24
-24
-23
-22
-20
-16
-9
1
15
32
50
70
90
107
122
134
141
144
142
136
126
112
95
75
55
35
16
1
-11
-18
-21
-22
-20
-17
-14
-12
-11
-11
-12
-13
-13
-12
-11
-9
-6
-4
-2
-1
-1
-1
-1
0
0
1
3
4
6
7
7
7
7
6
4
3
2
2
2
2
2
2
3
3
5
6
8
10
13
15
17
18
19
20
20
20
21
22
25
27
31
34
37
40
41
42
43
44
45
47
49
51
53
54
55
55
54
53
51
49
48
47
47
48
49
50
50
50
49
48
47
45
43
41
39
37
34
31
27
23
19
14
11
9
8
8
9
10
12
13
14
14
13
11
10
8
6
4
3
3
2
3
4
5
6
7
8
9
9
9
9
8
7
6
6
5
5
6
6
7
7
7
8
8
8
9
9
10
10
10
10
10
10
10
10
10
10
10
11
11
11
11
11
11
10
9
8
7
6
5
5
5
5
6
7
9
11
13
14
16
16
16
15
14
12
10
9
8
7
7
7
8
9
10
11
12
13
13
12
12
11
10
10
10
10
11
12
13
14
16
16
17
18
18
18
18
18
18
18
18
18
18
19
19
20
20
21
21
22
22
22
21
21
21
21
22
23
24
25
24
23
20
17
13
8
5
2
1
2
4
6
9
12
14
15
14
13
11
9
8
7
7
8
10
11
13
13
13
11
9
6
2
0
-1
0
4
11
22
35
51
69
88
107
125
142
155
166
172
173
170
160
146
128
106
82
59
38
21
8
1
-3
-2
0
4
8
10
12
12
12
11
11
11
11
12
13
14
14
14
15
15
16
18
20
21
23
24
25
24
23
22
20
19
18
18
19
21
23
26
28
30
31
31
30
29
28
26
24
23
23
23
25
27
29
32
34
36
38
40
41
42
43
45
47
49
51
53
54
54
53
52
51
51
51
52
54
57
61
64
66
68
68
66
63
59
55
50
46
43
40
38
37
36
34
33
31
29
28
26
24
23
22
21
20
19
18
16
15
12
10
8
5
3
1
-1
-2
-3
-3
-2
-2
-1
1
2
3
4
4
4
4
3
2
1
0
-1
-2
-3
-3
-3
-3
-3
-2
-1
-1
-1
0
-1
-1
-2
-3
-3
-4
-4
-3
-3
-2
-1
0
1
1
1
1
0
0
0
0
1
2
3
4
5
5
4
3
1
0
-1
-2
-3
-3
-4
-4
-4
-4
-4
-5
-5
-6
-7
-8
-9
-10
-12
-13
-14
-16
-17
-17
-17
-16
-15
-13
-11
-10
-9
-8
-8
-8
-9
-9
-10
-10
-10
-10
-9
-8
-7
-7
-6
-6
-6
-7
-8
-9
-11
-13
-14
-15
-15
-15
-14
-12
-11
-9
-8
-8
-8
-8
-9
-10
-11
-11
-11
-11
-10
-8
-7
-6
-5
-4
-4
-5
-6
-7
-9
-11
-13
-15
-17
-20
-22
-25
-27
-29
-30
-31
-31
-30
-29
-28
-27
-26
-25
-24
-23
-23
-23
-23
-23
-24
-26
-28
-31
-34
-37
-40
-41
-41
-39
-34
-27
-18
-5
9
24
41
58
75
90
102
111
116
116
110
99
83
64
41
19
-3
-22
-38
-49
-55
-58
-57
-54
-50
-46
-42
-39
-36
-35
-34
-34
-34
-34
-34
-35
-35
-35
-35
-35
-35
-34
-33
-32
-31
-31
-31
-31
-32
-33
-34
-34
-34
-34
-32
-31
-29
-27
-26
-25
-25
-25
-25
-26
-26
-25
-25
-24
-24
-24
-24
-25
-24
-24
-22
-19
-16
-13
-11
-9
-9
-11
-13
-16
-19
-21
-21
-19
-15
-10
-5
1
5
8
8
8
5
2
-1
-4
-7
-9
-10
-10
-10
-9
-8
-7
-6
-6
-8
-11
-14
-19
-25
-30
-35
-38
-41
-42
-42
-42
-41
-41
-42
-45
-48
-51
-55
-58
-60
-61
-61
-61
-61
-61
-63
-64
-67
-69
-70
-71
-71
-69
-67
-65
-63
-62
-61
-62
-64
-66
-67
-68
-68
-67
-65
-63
-61
-60
-60
-61
-63
-66
-68
-70
-72
-73
-72
-71
-69
-67
-65
-64
-63
-63
-63
-64
-66
-67
-69
-70
-70
-69
-68
-67
-65
-63
-61
-60
-59
-58
-58
-59
-59
-61
-62
-64
-67
-69
-71
-73
-74
-74
-74
-72
-71
-69
-68
-67
-68
-70
-72
-74
-76
-78
-78
-77
-75
-72
-69
-67
-65
-64
-64
-65
-66
-68
-70
-72
-73
-73
-73
-73
-72
-71
-71
-71
-71
-71
-71
-71
-71
-71
-70
-69
-67
-66
-64
-63
-61
-61
-60
-61
-62
-63
-64
-65
-67
-68
-68
-69
-70
-70
-72
-73
-75
-77
-78
-80
-81
-81
-80
-79
-77
-74
-72
-69
-68
-67
-67
-69
-70
-73
-75
-77
-79
-80
-80
-80
-80
-80
-80
-80
-80
-80
-78
-75
-69
-60
-49
-35
-19
-2
15
31
45
56
64
68
68
63
55
42
27
10
-9
-27
-43
-57
-68
-76
-80
-81
-80
-78
-75
-72
-70
-67
-65
-63
-62
-60
-59
-58
-58
-57
-57
-56
-55
-54
-53
-52
-51
-51
-51
-50
-50
-50
-49
-49
-48
-48
-48
-50
-51
-54
-56
-58
-58
-57
-55
-51
-47
-43
-39
-36
-34
-33
-33
-33
-33
-32
-31
-28
-25
-22
-20
-19
-18
-19
-20
-21
-22
-21
-19
-16
-12
-9
-5
-3
-2
-2
-4
-6
-8
-9
-9
-7
-4
0
3
6
7
7
5
1
-3
-7
-11
-13
-15
-16
-16
-17
-18
-19
-21
-23
-25
-26
-28
-28
-29
-29
-30
-32
-34
-36
-38
-40
-41
-40
-38
-35
-32
-28
-25
-24
-23
-24
-25
-27
-28
-29
-29
-29
-28
-27
-26
-26
-27
-28
-28
-29
-29
-28
-26
-23
-20
-18
-16
-15
-15
-16
-17
-19
-20
-20
-20
-18
-16
-14
-12
-11
-10
-10
-10
-11
-12
-13
-14
-14
-13
-12
-11
-8
-5
-3
0
2
4
5
4
3
1
-2
-4
-5
-5
-4
-3
0
2
4
6
6
6
5
3
2
0
0
-1
0
1
3
5
7
10
12
14
16
17
19
20
21
22
23
24
25
25
25
25
25
24
24
23
23
22
22
23
23
24
26
27
29
31
34
36
37
38
38
37
35
32
30
28
26
26
27
29
31
34
36
37
38
37
36
34
33
32
32
33
34
36
38
40
42
43
44
45
45
45
44
42
40
37
35
33
33
35
40
49
61
76
93
111
129
146
160
170
178
182
182
179
173
163
151
137
122
105
88
73
60
50
43
40
40
43
48
54
59
64
68
71
73
74
75
74
74
73
73
72
73
74
76
78
81
83
85
85
84
82
79
76
73
72
72
74
77
80
84
87
90
91
91
90
90
89
90
91
93
96
98
100
102
103
104
105
106
107
109
111
114
117
119
121
123
123
122
121
120
120
121
122
125
128
132
135
137
138
138
137
135
133
131
131
131
133
135
137
139
140
139
137
133
129
125
120
117
113
111
109
106
104
102
99
97
96
94
93
93
93
93
93
93
92
92
92
92
92
92
93
93
93
93
92
91
90
89
89
90
91
92
93
94
94
94
93
93
92
92
92
93
95
97
98
100
101
101
101
101
100
99
98
98
97
97
97
96
96
96
95
95
94
93
92
92
91
91
91
92
93
95
96
97
98
98
97
96
95
93
93
92
92
93
93
93
93
93
92
91
91
90
89
89
89
89
89
89
88
87
85
84
83
82
81
80
80
79
79
79
78
79
79
80
81
82
83
84
85
85
85
85
86
86
87
87
88
87
87
85
82
79
76
73
70
68
68
68
69
71
73
74
75
75
74
73
71
68
66
63
61
59
58
58
58
58
58
58
58
56
55
54
52
51
51
51
51
51
50
49
47
45
42
40
37
36
35
34
33
33
32
32
33
36
42
50
62
76
93
110
127
144
158
169
177
183
184
182
176
166
151
133
111
88
65
44
27
15
8
6
8
13
18
23
26
27
26
23
19
16
13
11
10
8
7
6
5
3
2
1
1
2
4
6
7
8
8
6
4
0
-3
-5
-7
-7
-6
-4
-1
1
2
2
0
-3
-7
-12
-15
-17
-17
-16
-13
-9
-6
-3
-1
-2
-4
-7
-10
-13
-14
-14
-12
-8
-3
2
5
7
6
3
-1
-7
-12
-16
-19
-20
-19
-18
-16
-15
-15
-17
-19
-22
-24
-26
-28
-29
-30
-31
-34
-39
-45
-52
-58
-64
-68
-70
-70
-69
-67
-66
-67
-69
-74
-80
-87
-93
-98
-100
-102
-102
-101
-102
-103
-106
-109
-114
-117
-120
-121
-121
-120
-118
-117
-117
-119
-122
-126
-131
-136
-139
-141
-141
-140
-137
-135
-133
-132
-133
-136
-139
-143
-147
-151
-153
-154
-154
-153
-152
-150
-150
-150
-151
-154
-157
-160
-164
-167
-170
-172
-173
-174
-175
-177
-180
-183
-187
-190
-192
-193
-193
-190
-188
-185
-183
-183
-185
-190
-196
-203
-209
-214
-217
-218
-217
-215
-212
-211
-210
-212
-215
-218
-223
-227
-230
-233
-234
-235
-236
-236
-237
-239
-242
-245
-249
-252
-255
-256
-256
-254
-251
-249
-247
-246
-247
-250
-255
-260
-266
-271
-275
-277
-277
-276
-275
-274
-274
-275
-276
-279
-281
-284
-286
-288
-290
-293
-296
-299
-302
-305
-307
-308
-308
-308
-307
-308
-310
-314
-319
-326
-334
-340
-346
-349
-350
-349
-348
-347
-346
-347
-348
-350
-352
-354
-357
-358
-361
-363
-366
-370
-374
-376
-375
-371
-362
-349
-331
-310
-288
-266
-247
-231
-221
-216
-217
-224
-236
-252
-272
-295
-319
-343
-366
-387
-403
-416
-423
-426
-426
-422
-418
-414
-411
-410
-411
-414
-417
-419
-421
-422
-421
-420
-418
-418
-418
-420
-424
-429
-435
-441
-446
-449
-451
-451
-449
-447
-444
-441
-439
-438
-439
-440
-442
-444
-446
-449
-451
-452
-454
-456
-457
-459
-461
-462
-463
-464
-466
-468
-470
-473
-477
-482
-486
-491
-494
-497
-499
-501
-503
-506
-510
-515
-520
-523
-523
-517
-504
-482
-453
-416
-374
-329
-283
-237
-191
-146
-101
-54
-5
46
99
151
202
250
294
333
369
402
436
471
510
552
598
646
695
744
793
840
885
931
975
1020
1064
1106
1146
1183
1215
1242
1265
1285
1302
1317
1333
1348
1363
1378
1390
1400
1406
1410
1412
1412
1413
1414
1417
1419
1421
1421
1415
1403
1384
1357
1324
1285
1245
1203
1163
1125
1090
1059
1029
1002
975
949
923
898
872
848
824
802
781
761
742
724
707
690
672
654
635
616
596
577
558
541
525
509
494
480
466
451
436
421
407
393
381
370
360
351
341
331
319
305
291
277
263
252
243
236
231
228
224
220
214
205
195
184
173
163
154
147
142
137
133
129
124
117
110
102
93
86
79
74
69
65
62
59
55
50
45
40
34
28
22
16
11
6
1
-3
-7
-12
-16
-19
-23
-26
-29
-31
-32
-34
-35
-37
-39
-42
-45
-50
-55
-60
-66
-71
-76
-82
-87
-92
-97
-102
-106
-108
-109
-107
-103
-96
-86
-75
-62
-48
-34
-19
-6
6
16
22
24
21
12
-3
-23
-48
-75
-102
-127
-147
-163
-172
-177
-177
-175
-171
-167
-163
-160
-159
-158
-157
-157
-158
-159
-160
-162
-164
-166
-168
-169
-169
-167
-166
-163
-161
-160
-160
-161
-163
-166
-169
-172
-174
-176
-176
-176
-174
-172
-170
-168
-167
-166
-166
-167
-169
-172
-175
-177
-179
-180
-181
-180
-178
-176
-175
-174
-173
-173
-174
-175
-175
-174
-173
-171
-168
-166
-163
-162
-160
-160
-160
-159
-159
-159
-158
-156
-155
-154
-154
-155
-156
-159
-162
-165
-168
-170
-172
-172
-172
-171
-170
-170
-171
-172
-175
-178
-182
-185
-188
-190
-191
-191
-191
-190
-190
-190
-191
-194
-196
-200
-203
-206
-209
-210
-211
-211
-210
-209
-208
-207
-206
-204
-203
-202
-202
-202
-202
-202
-203
-204
-205
-206
-207
-208
-208
-208
-207
-205
-203
-201
-198
-195
-193
-191
-190
-190
-190
-191
-192
-193
-193
-193
-193
-191
-190
-188
-185
-184
-182
-182
-182
-182
-182
-182
-181
-179
-177
-175
-172
-170
-168
-168
-169
-171
-173
-176
-178
-180
-180
-180
-178
-176
-173
-170
-167
-165
-163
-162
-161
-160
-159
-158
-157
-155
-153
-151
-149
-147
-146
-146
-146
-146
-146
-145
-144
-142
-138
-135
-131
-128
-126
-125
-125
-127
-130
-132
-134
-135
-134
-132
-129
-125
-121
-117
-114
-112
-110
-110
-110
-110
-111
-113
-115
-117
-120
-122
-124
-124
-124
-122
-119
-115
-110
-105
-100
-95
-91
-88
-85
-83
-83
-83
-85
-87
-90
-93
-95
-96
-95
-91
-85
-76
-63
-49
-33
-14
5
25
44
63
80
93
101
105
102
94
80
61
40
18
-3
-22
-37
-49
-56
-61
-62
-62
-60
-56
-52
-48
-43
-39
-34
-30
-28
-26
-24
-24
-24
-24
-24
-24
-23
-21
-19
-17
-14
-12
-9
-7
-5
-4
-3
-2
-2
-2
-1
0
1
4
7
11
14
18
21
23
24
24
24
23
23
23
24
26
29
32
36
40
43
47
49
52
53
55
55
56
58
59
62
65
68
72
76
79
81
81
80
79
77
75
74
75
76
79
83
86
89
89
88
85
81
77
72
69
67
67
69
70
72
73
72
70
67
64
60
57
56
55
55
55
55
55
54
51
49
46
44
43
42
43
45
46
48
49
50
50
50
51
52
54
56
57
58
58
58
56
54
52
50
50
51
53
56
60
63
66
68
68
68
67
65
63
61
59
58
58
58
59
61
63
66
68
69
70
69
68
66
63
61
60
61
62
64
67
69
70
70
69
67
66
64
64
64
66
68
70
72
74
75
76
77
78
79
81
82
83
84
83
81
78
76
73
71
71
71
72
73
75
75
76
76
75
75
75
75
76
76
76
76
75
73
71
69
68
68
68
70
71
72
72
71
69
66
63
61
60
60
60
62
63
64
65
64
63
61
59
58
56
55
54
52
49
47
44
42
43
46
53
63
78
96
115
136
156
175
191
204
213
217
217
211
200
184
165
142
118
94
73
56
43
35
30
29
30
33
35
37
38
38
38
38
38
38
38
37
37
36
34
33
31
31
30
31
31
32
32
32
32
31
30
30
29
29
29
30
31
32
32
33
33
33
34
34
34
33
33
32
31
30
29
29
29
30
32
34
37
40
43
45
46
47
46
45
45
44
43
44
45
46
48
49
51
52
54
55
56
57
57
58
57
56
54
52
48
45
42
39
37
35
34
33
32
31
29
27
25
22
19
16
13
11
10
9
8
8
8
7
6
4
1
-2
-5
-7
-10
-11
-11
-11
-10
-9
-8
-8
-9
-11
-13
-16
-19
-21
-23
-23
-23
-21
-19
-16
-14
-13
-12
-12
-14
-16
-18
-21
-23
-24
-25
-24
-23
-20
-18
-16
-14
-14
-15
-18
-21
-25
-27
-29
-28
-26
-23
-20
-16
-14
-13
-15
-18
-23
-28
-32
-35
-37
-37
-35
-32
-29
-25
-23
-21
-20
-20
-20
-21
-23
-24
-25
-26
-26
-27
-27
-27
-27
-27
-27
-27
-28
-27
-27
-26
-25
-24
-23
-23
-23
-24
-26
-28
-30
-32
-33
-33
-33
-33
-32
-32
-32
-33
-34
-36
-39
-41
-43
-45
-47
-48
-49
-49
-49
-49
-48
-48
-48
-48
-48
-48
-48
-47
-47
-46
-44
-44
-43
-44
-46
-49
-54
-59
-63
-66
-66
-62
-54
-41
-24
-5
17
38
59
77
92
104
111
114
112
105
94
77
57
33
9
-16
-37
-55
-67
-73
-74
-71
-66
-60
-54
-51
-50
-51
-53
-55
-56
-57
-56
-54
-52
-50
-48
-46
-46
-45
-46
-46
-47
-48
-49
-51
-52
-54
-56
-56
-56
-54
-52
-49
-46
-43
-41
-40
-39
-39
-38
-37
-35
-33
-31
-30
-29
-29
-30
-31
-33
-34
-34
-33
-32
-29
-26
-23
-21
-19
-18
-17
-17
-17
-16
-15
-14
-12
-10
-9
-7
-6
-5
-5
-5
-6
-6
-7
-7
-8
-8
-9
-10
-11
-13
-15
-18
-20
-23
-24
-26
-27
-28
-28
-29
-31
-33
-35
-38
-41
-44
-46
-49
-50
-52
-53
-55
-56
-58
-59
-59
-59
-58
-56
-54
-52
-50
-50
-50
-51
-52
-53
-54
-54
-53
-52
-51
-50
-49
-50
-51
-52
-53
-55
-55
-56
-55
-54
-53
-52
-52
-51
-51
-51
-50
-50
-49
-48
-48
-48
-48
-49
-50
-50
-51
-51
-50
-47
-45
-41
-38
-35
-33
-32
-33
-35
-38
-41
-44
-46
-47
-47
-46
-43
-40
-37
-34
-32
-30
-29
-28
-28
-27
-27
-25
-24
-23
-22
-22
-22
-23
-24
-25
-26
-25
-24
-21
-18
-16
-14
-14
-15
-18
-21
-25
-27
-28
-28
-27
-25
-22
-21
-20
-21
-23
-25
-27
-29
-29
-28
-26
-24
-22
-21
-21
-21
-23
-24
-25
-24
-23
-21
-18
-16
-14
-14
-16
-20
-24
-29
-34
-37
-37
-35
-31
-23
-13
0
16
32
51
70
89
107
124
137
146
150
148
141
129
112
92
70
47
25
5
-11
-23
-31
-33
-32
-28
-22
-15
-9
-4
-1
1
2
3
4
4
6
7
8
9
8
8
6
6
6
7
9
13
17
20
22
23
21
18
14
10
7
5
4
6
9
13
17
21
25
27
28
29
30
30
30
31
32
32
33
33
34
35
35
37
38
40
42
44
45
46
47
47
46
46
47
49
51
55
58
62
64
65
65
64
63
61
60
59
60
60
61
61
60
58
55
50
45
41
38
36
37
38
41
43
44
44
42
38
33
28
22
17
14
12
11
11
11
11
12
12
12
12
12
13
14
15
15
15
15
14
13
12
11
11
12
13
14
15
16
15
14
12
10
9
9
10
11
14
17
19
21
21
21
20
19
18
17
17
17
17
18
19
20
21
21
22
23
23
24
25
26
26
26
26
25
23
22
20
19
18
18
18
19
21
22
24
25
25
25
25
25
25
26
27
29
31
33
35
35
35
33
31
28
26
24
23
23
25
27
30
33
34
35
35
34
32
30
28
26
25
24
23
23
23
22
21
20
18
17
15
14
12
12
11
12
12
12
13
14
14
15
15
16
17
17
18
18
17
15
13
10
7
4
2
1
3
8
16
27
41
58
77
97
117
137
154
169
179
185
185
179
167
150
129
106
81
57
35
18
4
-4
-8
-8
-5
-1
4
8
12
14
15
16
16
16
16
16
16
15
14
12
11
8
6
4
3
1
0
-1
-2
-2
-3
-4
-4
-5
-5
-5
-5
-5
-5
-6
-8
-9
-11
-12
-13
-13
-11
-9
-6
-3
-1
0
1
0
-1
-3
-5
-7
-8
-7
-6
-3
0
3
7
10
12
14
15
16
17
17
18
18
18
18
19
18
18
17
17
16
15
15
14
14
13
12
11
9
7
4
1
-2
-6
-9
-12
-15
-17
-18
-20
-22
-25
-27
-30
-33
-35
-37
-37
-36
-35
-34
-32
-32
-33
-36
-39
-43
-47
-50
-51
-51
-48
-45
-42
-39
-37
-37
-38
-40
-42
-44
-45
-45
-43
-40
-37
-35
-33
-32
-33
-35
-37
-39
-41
-41
-40
-39
-37
-35
-33
-32
-32
-32
-33
-35
-36
-37
-37
-37
-36
-35
-34
-34
-34
-35
-35
-36
-37
-36
-36
-35
-33
-32
-31
-30
-30
-30
-31
-31
-32
-33
-34
-34
-34
-34
-34
-34
-34
-34
-34
-33
-32
-30
-28
-27
-25
-24
-24
-24
-26
-27
-29
-31
-31
-32
-31
-30
-28
-26
-25
-24
-24
-25
-26
-28
-29
-31
-32
-33
-33
-33
-33
-33
-33
-33
-33
-33
-33
-34
-34
-35
-35
-36
-36
-36
-37
-37
-37
-37
-38
-38
-38
-38
-38
-38
-38
-39
-40
-41
-43
-46
-49
-51
-53
-52
-49
-43
-34
-23
-9
6
22
39
56
72
86
99
109
116
118
116
108
96
80
61
40
20
1
-15
-28
-37
-43
-46
-47
-46
-43
-40
-36
-32
-28
-25
-24
-23
-25
-28
-32
-37
-41
-43
-44
-43
-40
-35
-30
-25
-21
-18
-16
-15
-16
-16
-17
-19
-20
-21
-22
-23
-24
-24
-24
-23
-21
-18
-14
-11
-7
-5
-4
-4
-5
-7
-9
-10
-11
-10
-7
-4
-1
3
5
7
8
8
7
7
7
9
11
14
17
20
22
23
23
21
19
17
15
13
13
13
13
13
14
14
14
14
14
14
14
14
14
12
10
5
0
-7
-13
-19
-24
-27
-28
-28
-26
-23
-21
-19
-19
-20
-22
-24
-26
-28
-30
-31
-31
-32
-33
-34
-35
-36
-37
-38
-37
-35
-33
-30
-28
-26
-25
-26
-27
-30
-33
-35
-37
-38
-38
-37
-36
-35
-34
-33
-33
-32
-31
-29
-28
-26
-24
-24
-24
-26
-28
-30
-33
-34
-35
-34
-32
-29
-25
-22
-20
-19
-20
-21
-22
-24
-26
-27
-28
-29
-29
-29
-29
-28
-27
-26
-24
-23
-21
-20
-19
-19
-20
-20
-21
-22
-22
-21
-19
-16
-13
-11
-9
-7
-7
-8
-9
-11
-13
-15
-16
-17
-18
-18
-18
-18
-17
-16
-15
-14
-12
-11
-11
-10
-11
-12
-14
-16
-18
-19
-20
-20
-19
-18
-16
-15
-14
-14
-15
-16
-17
-19
-20
-20
-20
-18
-17
-16
-14
-14
-14
-16
-17
-20
-22
-24
-26
-28
-29
-29
-28
-25
-21
-14
-5
7
21
36
52
67
81
93
102
109
113
113
111
106
97
86
71
54
36
18
0
-15
-26
-34
-38
-39
-36
-32
-27
-23
-19
-16
-14
-12
-11
-10
-9
-7
-6
-4
-3
-2
-2
-2
-3
-3
-3
-2
-2
-1
0
1
1
2
2
2
2
2
2
3
4
5
7
8
8
8
7
6
5
3
3
2
3
5
7
10
13
16
19
22
24
26
28
30
32
34
35
36
37
37
38
38
38
38
38
39
40
41
41
41
41
41
41
41
41
41
41
41
40
39
36
33
29
24
20
17
15
14
14
15
16
16
16
14
11
9
6
3
1
0
0
0
0
-1
-2
-3
-5
-7
-9
-10
-10
-10
-10
-9
-9
-9
-8
-8
-8
-7
-6
-5
-3
-2
-2
-2
-3
-5
-7
-9
-10
-10
-9
-8
-5
-3
-1
1
2
2
2
2
3
3
3
3
3
3
3
2
0
-1
-2
-2
-2
-1
0
2
4
5
6
7
7
6
5
5
4
4
5
6
7
9
10
11
12
12
11
11
11
11
12
13
15
17
19
21
22
23
23
23
21
20
18
17
15
14
13
13
13
14
14
16
17
18
19
19
19
18
16
14
12
10
8
6
5
5
5
5
6
7
7
7
7
7
7
6
6
6
6
7
7
8
9
10
10
10
10
10
9
8
7
7
7
8
11
14
20
28
37
49
63
78
93
108
120
130
135
135
130
120
106
88
69
50
32
16
4
-6
-11
-14
-14
-12
-8
-2
3
8
13
16
17
17
16
14
12
10
9
10
11
13
16
18
19
19
19
18
16
15
15
15
15
16
17
18
19
19
20
20
21
22
22
23
23
23
22
21
19
18
17
18
19
22
26
31
35
38
40
41
41
40
39
38
38
39
41
45
48
52
55
57
58
57
56
54
53
52
51
51
51
51
51
50
48
46
44
42
40
39
38
38
37
36
34
31
27
21
16
10
6
2
0
-1
0
1
2
3
4
4
4
4
3
2
0
-2
-4
-6
-9
-11
-13
-14
-15
-16
-15
-15
-15
-15
-15
-16
-17
-19
-20
-21
-22
-22
-22
-22
-21
-20
-18
-17
-15
-13
-12
-10
-9
-9
-10
-11
-14
-16
-19
-21
-23
-24
-23
-22
-21
-19
-17
-15
-15
-14
-14
-15
-16
-17
-18
-19
-19
-20
-20
-21
-20
-20
-19
-19
-19
-18
-19
-19
-19
-19
-18
-16
-14
-11
-8
-6
-4
-4
-6
-9
-13
-17
-21
-24
-25
-26
-25
-23
-21
-19
-17
-17
-17
-17
-17
-17
-17
-17
-16
-15
-15
-14
-14
-14
-14
-14
-14
-15
-17
-19
-22
-26
-30
-33
-36
-37
-36
-34
-31
-28
-26
-24
-24
-25
-26
-28
-29
-29
-28
-26
-25
-24
-24
-26
-29
-33
-37
-39
-40
-37
-32
-23
-11
3
19
34
50
64
76
86
94
98
99
96
90
80
67
52
36
20
4
-11
-23
-32
-37
-40
-40
-38
-35
-31
-27
-25
-23
-22
-22
-22
-23
-23
-23
-23
-22
-22
-21
-21
-22
-22
-23
-23
-23
-22
-21
-19
-18
-16
-16
-15
-16
-17
-18
-19
-19
-19
-18
-17
-15
-13
-11
-10
-9
-8
-8
-8
-8
-8
-8
-8
-8
-7
-5
-4
-2
1
3
5
6
7
8
7
7
7
7
7
9
10
12
15
16
18
19
19
19
18
18
18
17
17
16
15
13
11
8
5
1
-1
-3
-5
-6
-6
-7
-8
-9
-11
-13
-15
-17
-18
-19
-19
-19
-19
-20
-21
-23
-26
-28
-31
-33
-35
-36
-36
-35
-34
-34
-33
-33
-34
-35
-36
-37
-37
-38
-38
-38
-38
-37
-36
-34
-31
-29
-27
-25
-25
-25
-27
-30
-34
-38
-41
-42
-42
-40
-37
-33
-29
-26
-24
-24
-25
-28
-32
-35
-38
-39
-39
-37
-35
-31
-27
-24
-21
-20
-21
-22
-26
-29
-33
-35
-37
-37
-36
-34
-31
-28
-26
-25
-25
-25
-26
-27
-28
-29
-29
-29
-28
-27
-26
-24
-23
-21
-20
-18
-17
-17
-17
-17
-18
-18
-18
-18
-17
-15
-13
-12
-12
-13
-15
-19
-22
-25
-27
-27
-26
-23
-21
-19
-19
-21
-24
-28
-32
-35
-36
-36
-33
-30
-26
-23
-21
-20
-21
-24
-26
-28
-29
-29
-27
-24
-21
-18
-17
-18
-20
-24
-30
-34
-38
-38
-34
-25
-11
6
27
49
71
91
109
123
134
140
142
140
135
125
112
97
79
60
41
23
8
-5
-14
-19
-20
-18
-14
-9
-3
1
5
6
5
3
-2
-6
-11
-15
-17
-17
-15
-12
-7
-3
0
2
2
1
-1
-3
-4
-4
-2
0
3
5
7
7
6
4
1
0
0
1
4
8
12
15
18
20
20
20
20
19
20
21
23
26
28
31
33
34
35
36
37
37
37
36
35
33
32
31
30
31
33
35
38
41
43
43
42
40
38
36
34
34
35
37
39
40
40
38
34
29
22
16
10
6
3
1
0
0
-1
-2
-3
-4
-6
-7
-7
-8
-8
-8
-8
-8
-8
-9
-10
-11
-12
-13
-13
-13
-13
-12
-12
-12
-12
-11
-11
-11
-11
-10
-9
-7
-5
-4
-3
-3
-3
-4
-6
-8
-10
-12
-14
-14
-14
-14
-13
-12
-11
-11
-11
-11
-12
-13
-13
-14
-14
-14
-13
-12
-11
-10
-8
-7
-5
-4
-4
-3
-3
-4
-5
-7
-8
-9
-11
-11
-12
-12
-11
-10
-9
-8
-7
-7
-6
-6
-7
-7
-8
-9
-9
-9
-8
-7
-6
-4
-3
-3
-2
-2
-2
-2
-1
0
1
3
4
4
3
1
-2
-6
-9
-12
-15
-16
-16
-16
-17
-17
-18
-20
-21
-22
-22
-21
-18
-15
-11
-8
-7
-7
-9
-12
-15
-18
-20
-20
-19
-17
-16
-16
-18
-22
-27
-32
-35
-36
-32
-23
-9
8
27
47
67
85
101
115
127
136
142
144
142
134
121
104
82
59
35
13
-5
-19
-27
-30
-30
-27
-23
-20
-17
-15
-14
-14
-13
-12
-10
-8
-5
-3
0
1
1
0
-1
-3
-5
-7
-8
-9
-9
-8
-6
-4
-1
1
3
4
4
3
1
-1
-3
-5
-5
-3
-1
3
8
12
15
16
16
15
13
11
9
9
10
12
16
20
24
27
29
30
30
29
28
28
28
28
30
32
34
35
36
36
36
36
35
35
35
34
35
35
35
36
36
35
34
33
31
28
25
21
18
14
11
9
7
6
4
3
0
-2
-5
-8
-11
-13
-13
-13
-11
-9
-6
-4
-4
-5
-8
-11
-16
-20
-24
-26
-26
-26
-24
-22
-20
-18
-17
-16
-15
-15
-14
-13
-12
-11
-10
-10
-11
-12
-15
-18
-21
-23
-24
-24
-23
-21
-19
-16
-14
-12
-11
-11
-11
-12
-12
-13
-13
-13
-13
-13
-14
-14
-14
-14
-14
-14
-13
-11
-10
-9
-8
-7
-7
-7
-9
-10
-12
-14
-15
-16
-16
-15
-14
-13
-12
-11
-10
-10
-10
-10
-10
-8
-7
-4
-1
1
3
3
2
0
-2
-5
-8
-9
-10
-10
-9
-7
-5
-4
-3
-3
-4
-4
-5
-6
-6
-7
-7
-8
-10
-12
-14
-17
-18
-20
-20
-19
-18
-17
-15
-14
-14
-14
-15
-16
-17
-17
-17
-17
-18
-18
-18
-19
-21
-22
-23
-23
-22
-21
-19
-19
-19
-20
-22
-24
-25
-24
-19
-11
2
18
38
60
81
101
119
132
141
145
143
136
124
108
87
65
41
18
-3
-20
-32
-38
-40
-37
-32
-26
-20
-16
-14
-14
-15
-17
-18
-18
-17
-16
-14
-13
-12
-13
-15
-17
-18
-19
-19
-18
-15
-12
-10
-7
-5
-4
-4
-4
-4
-4
-4
-4
-4
-4
-3
-3
-3
-3
-2
-1
0
2
3
5
6
6
7
8
9
10
11
12
13
14
13
13
12
11
10
10
12
14
17
21
25
29
32
33
34
33
31
28
25
23
21
21
22
24
26
28
29
30
29
27
24
21
17
13
9
5
0
-4
-8
-12
-16
-18
-19
-19
-17
-15
-13
-12
-11
-13
-16
-20
-25
-28
-30
-30
-28
-25
-21
-17
-14
-13
-13
-14
-17
-19
-21
-22
-22
-21
-20
-19
-18
-18
-19
-20
-22
-24
-25
-25
-25
-25
-24
-22
-21
-20
-19
-19
-19
-20
-21
-22
-22
-22
-22
-21
-19
-18
-16
-15
-14
-14
-15
-16
-17
-19
-20
-21
-21
-21
-19
-18
-17
-15
-14
-14
-14
-14
-14
-14
-14
-14
-13
-12
-12
-11
-11
-11
-12
-13
-13
-14
-14
-13
-13
-12
-11
-10
-10
-10
-10
-11
-11
-12
-12
-12
-12
-12
-11
-10
-9
-8
-7
-5
-4
-3
-2
-2
-3
-4
-6
-9
-11
-14
-16
-18
-19
-19
-19
-19
-18
-18
-19
-20
-21
-22
-23
-24
-24
-23
-22
-21
-19
-17
-15
-14
-12
-11
-10
-10
-11
-13
-16
-21
-26
-32
-37
-40
-40
-36
-27
-14
2
20
40
59
76
92
105
115
124
130
133
133
130
121
108
90
69
46
24
3
-13
-25
-32
-34
-32
-29
-24
-21
-18
-17
-16
-16
-16
-15
-13
-12
-10
-9
-9
-9
-10
-12
-13
-13
-12
-11
-8
-6
-4
-3
-2
-2
-2
-3
-3
-3
-3
-2
-1
0
0
0
0
0
0
1
2
4
6
9
11
13
15
15
15
14
13
12
11
12
13
16
20
23
27
30
31
32
33
32
32
32
33
35
37
39
41
42
43
42
40
39
38
37
36
36
36
36
35
33
30
26
22
19
16
13
12
11
10
9
8
6
3
1
-2
-4
-5
-6
-7
-7
-7
-8
-9
-10
-12
-14
-16
-17
-18
-19
-19
-18
-17
-15
-14
-12
-11
-10
-9
-10
-11
-13
-15
-17
-18
-19
-18
-17
-16
-15
-14
-14
-15
-16
-18
-20
-21
-21
-19
-18
-15
-13
-11
-10
-10
-10
-10
-10
-10
-9
-8
-7
-7
-7
-8
-10
-13
-16
-18
-19
-19
-17
-16
-13
-11
-10
-10
-10
-11
-13
-15
-16
-16
-16
-14
-12
-10
-8
-7
-6
-6
-7
-8
-8
-9
-8
-7
-6
-5
-4
-3
-4
-4
-5
-6
-6
-5
-3
0
3
5
7
7
6
4
1
-2
-5
-8
-9
-10
-9
-9
-8
-8
-7
-8
-9
-10
-11
-11
-12
-12
-12
-11
-10
-8
-6
-5
-4
-5
-6
-8
-12
-15
-18
-21
-22
-23
-22
-21
-20
-19
-20
-21
-23
-24
-24
-22
-17
-9
3
18
36
55
74
93
111
126
139
148
154
155
151
142
128
110
88
65
42
20
2
-12
-21
-25
-26
-25
-21
-18
-15
-13
-11
-10
-9
-8
-6
-4
-2
0
2
3
3
2
1
0
-1
-1
-2
-1
-1
0
0
1
2
2
3
4
5
5
6
6
6
6
5
5
6
7
9
11
14
16
18
20
21
21
21
21
21
22
22
23
24
24
25
25
25
25
25
26
27
30
32
35
38
41
43
44
45
45
44
43
43
43
43
44
45
45
46
46
45
43
40
36
31
26
21
16
12
9
6
4
2
1
0
-1
-3
-4
-4
-5
-5
-5
-5
-5
-6
-6
-8
-9
-11
-13
-15
-16
-17
-18
-19
-19
-20
-20
-20
-20
-20
-20
-19
-18
-17
-17
-17
-17
-18
-20
-22
-23
-24
-24
-23
-20
-17
-14
-12
-10
-9
-10
-12
-14
-16
-18
-19
-20
-19
-18
-16
-15
-15
-15
-16
-17
-19
-20
-21
-22
-23
-23
-23
-22
-22
-22
-21
-21
-20
-19
-18
-16
-15
-14
-13
-13
-13
-14
-15
-17
-19
-20
-21
-22
-21
-19
-17
-14
-11
-8
-5
-3
-3
-3
-5
-7
-10
-13
-16
-17
-17
-16
-14
-12
-10
-9
-9
-11
-14
-18
-23
-27
-30
-32
-32
-32
-30
-28
-26
-24
-22
-21
-19
-18
-17
-16
-16
-16
-17
-20
-22
-25
-27
-27
-27
-25
-22
-20
-18
-19
-21
-26
-32
-38
-43
-45
-43
-38
-28
-15
0
17
34
52
68
84
98
111
122
129
133
131
124
111
93
72
49
27
6
-10
-22
-29
-33
-34
-33
-32
-31
-30
-30
-29
-28
-27
-24
-22
-20
-18
-17
-16
-17
-17
-17
-17
-16
-14
-13
-12
-11
-12
-13
-16
-18
-20
-20
-20
-18
-15
-11
-8
-5
-4
-4
-5
-7
-10
-12
-14
-15
-15
-14
-12
-9
-6
-4
-1
1
2
3
3
3
3
3
4
5
7
9
12
14
16
18
19
19
20
20
20
20
21
21
22
23
23
23
23
22
21
19
17
16
14
11
9
6
4
1
-1
-2
-3
-4
-5
-7
-9
-12
-16
-20
-25
-29
-32
-33
-34
-34
-33
-32
-31
-32
-33
-34
-35
-35
-35
-34
-33
-32
-31
-32
-34
-37
-39
-42
-43
-42
-40
-37
-33
-30
-28
-29
-30
-33
-37
-40
-42
-42
-41
-38
-35
-32
-29
-29
-30
-32
-35
-38
-41
-43
-43
-43
-41
-39
-37
-35
-34
-34
-34
-35
-35
-35
-35
-34
-33
-31
-30
-29
-29
-29
-30
-32
-33
-34
-35
-34
-32
-30
-27
-24
-21
-20
-19
-20
-22
-24
-26
-28
-29
-29
-28
-26
-25
-24
-23
-23
-23
-23
-23
-23
-22
-21
-19
-18
-17
-17
-18
-20
-23
-26
-28
-31
-32
-33
-32
-31
-30
-29
-29
-30
-32
-34
-36
-38
-40
-41
-40
-39
-37
-34
-31
-29
-27
-25
-25
-25
-26
-27
-28
-30
-32
-34
-37
-39
-40
-41
-39
-36
-30
-21
-10
4
19
35
51
66
80
92
100
105
106
102
93
81
65
47
28
10
-7
-21
-31
-38
-41
-41
-39
-36
-32
-29
-26
-23
-22
-22
-22
-23
-23
-23
-23
-23
-22
-21
-20
-19
-18
-18
-18
-17
-17
-16
-15
-14
-13
-12
-12
-12
-11
-10
-8
-5
-2
2
6
8
9
8
5
1
-3
-7
-9
-8
-5
0
5
11
15
17
17
15
13
10
8
8
9
13
17
22
27
30
31
32
31
30
30
30
31
32
34
35
36
35
34
32
30
28
27
27
27
27
27
26
24
22
18
15
12
9
7
6
6
6
6
5
4
1
-2
-5
-9
-13
-16
-17
-17
-17
-15
-13
-11
-10
-9
-9
-10
-12
-14
-16
-18
-19
-20
-20
-20
-19
-18
-17
-16
-16
-15
-15
-15
-15
-16
-16
-16
-16
-17
-16
-16
-15
-13
-11
-9
-7
-6
-5
-5
-6
-7
-8
-10
-11
-12
-12
-12
-11
-9
-6
-4
-2
0
1
1
1
1
-1
-2
-3
-4
-4
-4
-4
-3
-1
1
3
5
7
9
10
10
10
10
9
8
8
7
7
8
9
11
12
14
14
14
13
11
8
6
3
2
2
3
5
7
10
13
14
15
14
13
11
9
7
5
5
4
4
4
4
4
3
3
3
4
5
7
9
12
13
15
15
15
13
12
10
8
6
4
4
3
4
5
8
12
18
26
36
47
60
74
88
102
116
128
139
147
151
152
149
140
128
112
93
73
54
38
25
15
11
9
11
14
17
20
23
24
25
26
27
28
30
33
34
35
35
34
32
29
26
24
24
24
26
28
31
33
36
37
39
39
39
39
39
39
38
37
37
37
37
38
40
43
46
49
51
53
53
52
51
49
48
47
48
51
55
59
64
67
70
71
71
69
67
66
65
66
68
71
75
79
83
86
87
87
86
83
80
77
73
70
67
65
64
63
63
63
62
61
58
55
51
46
42
38
36
34
35
36
37
38
38
37
34
31
27
23
20
19
19
21
23
25
27
27
26
25
22
20
18
17
17
18
19
20
21
20
20
18
17
17
17
17
18
19
20
20
19
17
15
13
12
11
10
11
12
12
12
11
10
9
7
6
7
8
11
14
18
21
22
22
20
17
13
9
6
3
3
4
7
10
14
17
19
20
19
18
15
13
11
10
9
10
12
14
16
18
19
19
19
17
16
14
12
11
10
9
9
9
9
9
10
11
12
13
13
12
11
9
6
2
-1
-4
-7
-8
-9
-8
-8
-7
-6
-5
-5
-5
-6
-7
-8
-9
-9
-9
-9
-9
-9
-8
-9
-10
-12
-15
-18
-22
-26
-29
-32
-33
-32
-29
-24
-16
-5
7
21
36
51
67
82
95
107
115
120
120
116
106
92
74
54
32
11
-7
-23
-35
-43
-47
-49
-49
-47
-46
-45
-44
-44
-44
-43
-43
-41
-39
-38
-36
-36
-37
-39
-42
-45
-47
-48
-48
-47
-44
-41
-38
-37
-36
-38
-41
-45
-50
-54
-56
-58
-58
-57
-57
-56
-57
-58
-59
-60
-60
-59
-56
-53
-50
-47
-45
-45
-46
-49
-51
-54
-54
-52
-48
-42
-36
-30
-25
-21
-19
-19
-20
-20
-20
-19
-18
-16
-15
-15
-17
-19
-21
-24
-24
-24
-22
-19
-17
-16
-16
-20
-24
-30
-36
-40
-43
-44
-43
-42
-42
-44
-48
-55
-64
-72
-80
-85
-87
-86
-83
-79
-74
-71
-69
-68
-69
-71
-73
-74
-75
-75
-74
-73
-72
-71
-70
-70
-69
-67
-64
-61
-57
-53
-49
-45
-42
-39
-38
-37
-37
-37
-37
-37
-35
-33
-30
-27
-23
-18
-14
-9
-3
2
8
15
22
29
36
42
48
53
57
61
64
67
71
75
80
86
93
100
106
112
116
118
120
119
119
118
117
117
118
120
122
124
125
125
124
122
119
117
114
113
112
112
112
112
112
110
107
102
97
93
88
85
83
82
81
80
79
76
71
65
57
49
41
34
28
23
19
17
15
13
11
9
6
3
-1
-4
-8
-11
-13
-15
-16
-17
-17
-17
-17
-17
-17
-19
-22
-26
-31
-37
-44
-52
-59
-64
-67
-67
-63
-54
-41
-23
-2
22
47
72
96
117
134
147
155
157
152
141
123
99
71
41
10
-19
-43
-61
-73
-79
-79
-75
-68
-62
-56
-52
-49
-48
-49
-50
-51
-52
-53
-53
-53
-52
-51
-48
-45
-41
-37
-33
-29
-26
-25
-24
-25
-27
-29
-30
-32
-33
-34
-35
-37
-38
-39
-41
-43
-45
-47
-49
-50
-52
-53
-54
-54
-53
-51
-49
-46
-44
-42
-42
-43
-45
-48
-50
-51
-50
-48
-43
-37
-30
-23
-17
-12
-9
-7
-5
-5
-5
-5
-5
-6
-7
-9
-12
-15
-19
-23
-26
-29
-31
-33
-34
-35
-36
-37
-39
-42
-45
-48
-52
-56
-60
-63
-66
-68
-70
-71
-71
-71
-71
-71
-72
-72
-73
-75
-77
-79
-81
-83
-85
-87
-88
-90
-90
-90
-89
-87
-85
-81
-77
-72
-67
-63
-60
-57
-54
-52
-51
-49
-47
-46
-43
-41
-38
-35
-33
-31
-29
-29
-28
-29
-29
-30
-29
-29
-28
-26
-25
-23
-22
-22
-23
-25
-27
-29
-31
-33
-33
-33
-33
-32
-32
-32
-32
-33
-35
-37
-39
-41
-44
-46
-49
-52
-55
-58
-61
-62
-62
-62
-60
-58
-57
-57
-58
-60
-64
-69
-74
-78
-81
-82
-81
-80
-78
-77
-77
-79
-82
-87
-92
-97
-101
-104
-106
-107
-108
-109
-111
-113
-115
-116
-117
-117
-117
-116
-116
-117
-119
-123
-128
-134
-139
-144
-147
-150
-151
-151
-152
-153
-154
-157
-160
-162
-165
-166
-167
-167
-167
-167
-168
-170
-173
-178
-184
-190
-197
-204
-209
-212
-213
-210
-202
-191
-176
-157
-136
-113
-90
-69
-51
-38
-30
-28
-32
-43
-59
-80
-105
-131
-157
-181
-201
-218
-229
-236
-238
-238
-236
-234
-232
-231
-231
-231
-231
-231
-230
-228
-225
-223
-220
-218
-217
-217
-217
-216
-215
-213
-209
-204
-197
-190
-183
-177
-172
-168
-165
-163
-160
-157
-153
-148
-142
-136
-130
-123
-118
-112
-107
-101
-96
-89
-82
-74
-65
-56
-47
-39
-31
-23
-16
-9
-3
2
7
12
16
19
21
24
26
28
31
34
37
40
44
48
52
57
62
66
71
75
78
80
80
80
79
78
77
77
78
80
82
84
84
83
80
75
69
62
56
51
48
46
46
46
46
46
45
44
41
38
36
34
33
32
33
35
37
39
42
45
48
51
54
57
60
63
65
67
69
71
73
75
78
80
82
84
86
89
92
95
99
102
106
109
112
114
116
118
121
124
128
134
140
147
153
158
162
164
164
163
162
160
158
158
158
159
161
164
167
169
172
175
177
180
182
183
184
185
184
184
183
182
181
181
183
185
187
191
195
198
201
203
204
205
204
202
201
200
200
201
202
205
208
210
212
212
212
210
207
204
201
200
199
200
201
203
204
205
204
202
199
196
193
191
190
190
191
193
194
194
194
192
190
188
186
184
183
183
183
184
184
185
184
184
183
181
179
178
176
174
173
172
173
175
180
187
198
213
231
252
275
298
320
339
353
360
361
354
340
321
297
271
244
219
196
176
161
149
141
136
134
132
133
134
135
137
139
141
142
143
143
142
140
138
135
133
132
131
131
131
132
132
133
133
132
130
129
127
126
125
125
124
123
121
119
115
111
107
103
100
98
96
96
97
98
99
101
103
104
105
106
106
106
106
105
104
102
99
97
94
93
91
91
91
91
92
92
92
92
90
88
85
82
78
74
70
65
60
55
51
48
47
46
45
45
45
43
41
36
31
24
17
11
5
0
-3
-4
-5
-5
-6
-8
-11
-15
-21
-27
-33
-40
-44
-48
-50
-50
-48
-46
-45
-43
-43
-44
-47
-50
-54
-57
-60
-61
-62
-61
-61
-60
-60
-60
-62
-64
-66
-68
-70
-72
-72
-71
-70
-67
-64
-61
-59
-57
-56
-56
-58
-60
-63
-67
-70
-72
-73
-73
-72
-71
-71
-70
-71
-72
-73
-75
-75
-75
-75
-73
-71
-69
-67
-66
-67
-68
-71
-74
-76
-78
-79
-79
-77
-73
-70
-66
-62
-60
-60
-60
-62
-65
-67
-69
-70
-69
-66
-63
-59
-56
-53
-53
-54
-56
-60
-63
-67
-69
-70
-70
-68
-66
-64
-62
-61
-61
-61
-62
-62
-62
-62
-61
-61
-61
-61
-61
-62
-64
-65
-66
-66
-66
-65
-64
-63
-62
-60
-59
-57
-55
-54
-53
-53
-54
-56
-59
-61
-62
-61
-58
-52
-42
-29
-14
4
23
42
62
80
96
110
120
126
126
120
108
91
70
47
24
3
-14
-27
-34
-38
-38
-37
-35
-34
-33
-34
-34
-35
-36
-36
-35
-33
-32
-31
-30
-30
-30
-30
-30
-30
-30
-29
-29
-28
-28
-29
-31
-32
-35
-36
-38
-38
-38
-37
-35
-32
-30
-29
-29
-29
-31
-33
-35
-38
-40
-41
-41
-40
-39
-37
-35
-34
-32
-31
-30
-29
-28
-27
-26
-25
-24
-23
-21
-20
-18
-16
-13
-10
-7
-5
-4
-5
-7
-11
-15
-20
-25
-28
-30
-30
-29
-28
-26
-25
-25
-27
-29
-33
-38
-43
-48
-52
-56
-60
-64
-67
-71
-75
-78
-81
-84
-86
-88
-88
-89
-89
-90
-90
-90
-91
-92
-93
-95
-97
-100
-102
-104
-106
-108
-108
-108
-107
-106
-105
-104
-104
-105
-107
-109
-112
-113
-114
-114
-113
-111
-108
-105
-103
-101
-101
-101
-103
-105
-108
-111
-112
-114
-114
-113
-112
-110
-108
-107
-106
-106
-107
-108
-108
-109
-109
-109
-108
-107
-107
-107
-108
-109
-110
-111
-112
-112
-111
-109
-107
-104
-101
-98
-95
-93
-91
-90
-90
-90
-91
-92
-94
-95
-96
-97
-97
-97
-97
-96
-95
-93
-92
-90
-89
-88
-87
-87
-87
-88
-89
-90
-92
-93
-94
-95
-95
-96
-96
-95
-95
-94
-92
-90
-87
-85
-82
-81
-80
-80
-82
-84
-86
-88
-90
-90
-89
-87
-84
-82
-81
-81
-83
-87
-91
-96
-99
-100
-98
-92
-83
-71
-57
-41
-25
-10
5
20
33
45
55
63
67
68
64
54
40
23
2
-18
-38
-55
-68
-77
-82
-84
-84
-82
-79
-77
-74
-72
-69
-66
-63
-59
-55
-52
-49
-48
-47
-47
-48
-49
-50
-51
-51
-50
-50
-49
-48
-47
-46
-44
-42
-40
-38
-36
-34
-32
-31
-31
-31
-31
-31
-30
-29
-27
-25
-23
-20
-18
-16
-14
-13
-11
-9
-8
-6
-4
-2
0
1
2
2
2
2
3
5
7
11
14
18
22
24
25
26
24
23
21
19
17
16
16
16
16
16
16
14
13
11
9
7
5
4
3
3
3
3
3
3
3
2
2
1
-1
-2
-4
-6
-8
-9
-11
-12
-13
-13
-13
-13
-12
-12
-11
-11
-11
-12
-13
-14
-15
-15
-16
-15
-15
-14
-13
-11
-10
-9
-8
-7
-7
-6
-6
-5
-5
-4
-3
-2
-2
-1
0
0
0
1
1
1
1
2
2
2
3
4
6
8
9
11
12
12
10
9
6
4
3
3
5
8
13
18
23
27
28
28
25
21
17
12
9
8
8
10
12
16
19
22
24
25
26
26
26
26
26
26
25
24
23
22
21
20
20
19
18
18
17
17
16
16
15
15
15
15
15
14
13
12
10
9
8
8
8
9
11
13
14
15
15
15
14
12
11
11
10
10
10
8
6
4
1
-1
-1
1
7
16
28
43
60
77
93
108
120
131
138
143
146
145
141
132
120
104
86
67
48
31
17
7
2
0
0
3
5
8
10
12
14
16
19
23
27
31
34
35
34
31
27
22
17
13
11
11
14
18
23
29
33
36
37
37
35
33
30
28
27
27
28
29
29
30
30
30
30
30
31
33
36
39
42
45
48
49
49
48
47
45
44
43
43
45
48
52
56
61
65
68
70
70
69
67
64
61
58
55
53
52
50
50
