-147
-109
-83
-61
-49
-46
-50
-58
-66
-72
-72
-69
-62
-54
-47
-43
-43
-46
-50
-55
-57
-57
-55
-50
-46
-42
-40
-39
-38
-38
-36
-32
-25
-18
-12
-7
-6
-9
-15
-24
-32
-40
-44
-43
-39
-32
-23
-15
-8
-4
-3
-4
-8
-12
-18
-22
-26
-28
-29
-29
-27
-24
-20
-15
-11
-8
-8
-9
-14
-20
-27
-34
-38
-39
-36
-30
-21
-11
-2
5
8
7
2
-5
-13
-20
-24
-24
-19
-11
0
10
19
24
26
25
23
22
27
39
59
86
117
148
172
185
181
161
124
75
19
-37
-86
-124
-148
-159
-156
-145
-129
-112
-95
-81
-69
-59
-49
-40
-30
-19
-6
9
26
43
60
77
91
102
107
108
104
96
87
80
76
76
82
92
103
115
123
128
128
124
118
112
108
108
110
115
122
127
131
131
129
126
122
121
123
128
136
145
153
158
159
156
150
142
136
133
134
141
151
163
175
183
186
185
180
172
165
160
158
162
169
179
191
202
211
217
219
218
214
209
204
200
198
198
202
209
217
224
229
230
225
214
198
179
161
145
136
135
141
153
167
178
183
180
166
145
119
94
74
63
63
74
91
111
129
141
143
136
122
104
86
72
64
63
68
76
84
89
91
89
84
78
74
71
71
72
74
74
71
65
57
49
41
37
36
38
41
44
44
40
34
26
19
15
15
19
26
34
40
41
38
30
20
10
3
0
3
8
14
17
15
6
-8
-24
-39
-49
-52
-46
-33
-17
-1
10
15
11
1
-14
-29
-43
-52
-56
-56
-52
-48
-43
-40
-37
-36
-34
-32
-31
-30
-30
-32
-37
-42
-47
-51
-51
-48
-42
-36
-30
-28
-30
-37
-48
-60
-71
-77
-78
-73
-63
-51
-40
-32
-31
-37
-48
-63
-78
-91
-100
-104
-103
-99
-93
-87
-83
-81
-80
-80
-79
-76
-71
-65
-60
-57
-58
-62
-70
-79
-87
-93
-93
-88
-79
-69
-59
-53
-53
-59
-69
-81
-91
-97
-97
-92
-82
-70
-59
-51
-46
-44
-44
-41
-35
-24
-7
13
34
51
61
62
52
30
-2
-41
-86
-133
-179
-222
-258
-287
-305
-313
-310
-298
-279
-255
-228
-202
-179
-158
-142
-129
-120
-113
-108
-105
-104
-104
-106
-107
-106
-101
-92
-80
-64
-49
-37
-31
-32
-41
-56
-72
-86
-93
-91
-80
-62
-41
-22
-10
-8
-16
-33
-53
-73
-86
-89
-82
-66
-47
-29
-17
-16
-26
-44
-65
-84
-95
-95
-81
-58
-29
-1
19
28
24
10
-11
-32
-48
-53
-48
-33
-12
10
28
38
38
31
19
5
-5
-10
-8
-1
10
21
31
36
37
35
32
29
27
29
32
36
38
38
33
23
11
-3
-17
-28
-35
-37
-36
-32
-29
-26
-27
-30
-36
-44
-51
-56
-58
-56
-53
-47
-43
-40
-41
-46
-54
-63
-73
-80
-85
-86
-85
-81
-78
-76
-76
-79
-84
-91
-96
-101
-102
-100
-96
-90
-83
-77
-72
-68
-66
-64
-63
-63
-63
-64
-66
-69
-73
-77
-81
-83
-84
-82
-79
-74
-69
-64
-60
-57
-55
-54
-53
-53
-52
-52
-54
-56
-60
-65
-70
-73
-74
-72
-67
-60
-53
-46
-42
-42
-45
-51
-57
-62
-65
-64
-59
-51
-43
-37
-34
-36
-41
-48
-55
-59
-60
-57
-50
-41
-34
-29
-29
-32
-37
-42
-45
-43
-38
-29
-19
-11
-9
-12
-21
-35
-50
-62
-69
-69
-62
-51
-38
-27
-20
-20
-24
-33
-42
-49
-51
-47
-39
-27
-15
-5
1
1
-5
-15
-26
-37
-46
-50
-50
-46
-40
-32
-23
-16
-10
-5
-2
0
1
1
1
0
-1
-1
-2
-3
-3
-3
-3
-2
0
1
3
5
8
13
21
32
49
69
94
120
145
164
173
170
151
117
70
14
-46
-103
-151
-187
-209
-219
-217
-209
-197
-185
-173
-162
-149
-134
-115
-92
-65
-38
-13
7
21
28
29
27
24
23
26
31
39
47
55
60
63
63
62
62
63
65
68
70
72
72
71
68
66
66
68
72
77
82
86
87
85
81
76
72
72
75
83
93
105
116
124
130
133
134
133
132
132
132
131
130
128
125
123
123
126
132
143
158
173
187
198
205
206
203
197
191
185
183
184
188
195
202
208
213
216
216
214
211
207
203
199
195
191
185
179
171
161
151
140
129
120
113
109
108
109
112
114
115
112
105
94
80
65
51
40
35
35
39
46
53
59
59
55
47
37
26
17
12
12
16
21
27
29
28
23
15
5
-3
-7
-7
-2
7
18
27
34
36
32
24
14
3
-7
-14
-18
-19
-18
-17
-16
-17
-20
-24
-29
-33
-35
-35
-32
-27
-20
-14
-8
-6
-6
-10
-16
-23
-30
-33
-32
-27
-18
-6
5
14
19
19
13
3
-10
-22
-31
-36
-37
-33
-26
-19
-12
-7
-4
-3
-4
-6
-8
-9
-10
-10
-11
-12
-13
-15
-16
-16
-15
-13
-10
-7
-5
-5
-7
-11
-16
-22
-26
-29
-29
-27
-23
-18
-12
-8
-6
-5
-7
-11
-15
-20
-24
-27
-28
-27
-24
-18
-11
-3
3
9
11
9
5
-1
-9
-16
-20
-21
-18
-12
-5
2
7
9
8
4
-2
-6
-8
-6
0
10
22
35
48
59
69
79
89
99
111
121
128
129
121
103
74
37
-6
-50
-91
-125
-151
-168
-177
-180
-179
-175
-170
-163
-153
-139
-121
-99
-74
-49
-25
-5
11
22
29
34
39
46
54
65
76
86
95
100
103
103
102
101
100
100
102
103
105
106
105
104
101
99
98
98
100
104
108
113
117
120
122
124
125
126
128
132
137
143
149
156
161
166
169
172
173
174
176
178
181
185
191
197
204
210
217
224
230
236
241
246
250
254
256
258
259
259
259
259
258
256
254
251
247
242
235
228
219
211
203
194
186
177
167
156
144
130
116
102
88
75
62
51
41
31
21
11
1
-9
-19
-28
-37
-46
-54
-63
-71
-80
-88
-97
-106
-115
-122
-129
-135
-139
-143
-146
-148
-149
-149
-149
-149
-149
-148
-148
-149
-150
-152
-155
-159
-163
-167
-171
-175
-178
-180
-182
-183
-183
-184
-183
-183
-183
-182
-182
-181
-181
-182
-182
-183
-185
-186
-188
-189
-189
-188
-185
-181
-175
-168
-160
-153
-146
-139
-134
-130
-127
-124
-123
-121
-120
-118
-116
-114
-111
-108
-104
-101
-98
-96
-94
-92
-92
-91
-91
-91
-90
-89
-87
-85
-81
-78
-74
-71
-68
-65
-63
-61
-59
-58
-58
-58
-59
-61
-63
-65
-67
-68
-68
-66
-65
-63
-61
-59
-58
-59
-59
-60
-61
-62
-61
-60
-59
-57
-55
-53
-53
-53
-55
-56
-58
-59
-58
-57
-54
-51
-47
-44
-41
-40
-41
-42
-44
-46
-47
-47
-46
-44
-41
-38
-34
-31
-26
-19
-8
7
25
45
64
79
86
82
64
33
-10
-60
-114
-165
-208
-241
-262
-270
-268
-259
-246
-231
-216
-202
-190
-178
-165
-152
-139
-124
-110
-97
-85
-75
-67
-61
-55
-50
-46
-41
-37
-34
-31
-28
-27
-26
-26
-26
-26
-26
-25
-24
-22
-20
-19
-17
-16
-14
-13
-12
-11
-11
-10
-10
-9
-9
-9
-8
-7
-6
-4
-2
0
2
4
7
9
10
12
14
15
17
19
21
24
26
29
32
34
36
38
40
43
45
47
49
52
54
56
57
58
59
59
60
61
63
66
70
74
78
82
85
86
86
84
81
77
73
69
65
62
58
55
51
47
42
37
32
27
22
18
15
12
10
9
7
5
2
-1
-5
-9
-12
-15
-16
-16
-15
-13
-10
-7
-5
-3
-3
-3
-4
-5
-6
-6
-5
-4
-3
-1
1
1
1
0
-1
-4
-6
-8
-10
-11
-11
-10
-9
-7
-5
-3
-1
0
2
3
4
5
6
7
8
9
11
11
12
11
10
9
7
6
6
6
8
11
14
18
21
24
25
25
24
22
20
18
17
16
17
18
20
22
23
24
24
24
24
24
25
26
27
28
28
28
28
27
25
23
22
20
20
19
19
18
18
16
15
13
11
9
7
6
5
5
5
5
5
5
4
3
2
2
2
2
3
5
6
7
8
8
9
9
9
9
9
10
10
10
10
9
7
5
3
1
1
2
4
7
10
12
13
14
16
20
28
42
60
83
109
132
149
156
148
124
84
33
-25
-83
-136
-179
-207
-222
-224
-217
-204
-189
-174
-160
-149
-138
-127
-114
-99
-83
-66
-50
-36
-24
-16
-10
-5
-2
1
4
7
10
12
13
14
13
11
10
9
9
10
12
15
17
19
20
20
20
20
20
20
20
20
21
22
23
25
26
29
31
33
35
37
38
37
36
35
34
33
33
35
38
42
47
51
55
58
60
61
63
66
69
73
77
82
86
89
90
90
90
89
88
88
90
93
97
101
105
108
110
110
108
105
101
97
93
89
86
83
79
75
70
65
59
53
47
42
38
34
30
27
23
19
15
11
7
4
1
-2
-3
-4
-4
-4
-5
-5
-6
-7
-9
-10
-12
-14
-15
-15
-15
-15
-14
-12
-11
-10
-9
-9
-10
-12
-14
-16
-18
-20
-21
-20
-19
-18
-16
-14
-13
-12
-11
-10
-10
-10
-11
-11
-12
-14
-16
-18
-20
-22
-24
-25
-25
-24
-23
-23
-22
-22
-23
-24
-25
-26
-25
-24
-21
-18
-14
-12
-10
-9
-10
-11
-13
-15
-16
-16
-15
-13
-11
-8
-6
-4
-4
-4
-4
-5
-5
-6
-6
-5
-5
-5
-5
-5
-5
-5
-4
-4
-3
-3
-3
-4
-6
-9
-12
-15
-18
-20
-21
-20
-19
-18
-17
-16
-16
-18
-20
-21
-22
-22
-21
-19
-16
-14
-12
-12
-14
-17
-20
-23
-25
-25
-23
-20
-16
-13
-10
-10
-11
-13
-16
-18
-18
-17
-15
-11
-8
-4
0
5
13
24
40
61
85
109
129
141
141
126
96
51
-4
-63
-121
-172
-212
-238
-250
-249
-240
-225
-207
-191
-175
-162
-149
-137
-124
-111
-96
-81
-66
-52
-41
-32
-25
-19
-15
-11
-7
-3
2
6
10
13
15
16
17
17
16
15
14
13
13
12
12
13
15
17
19
22
25
27
29
30
31
32
32
31
31
31
32
32
33
35
37
39
41
43
46
48
50
52
54
55
57
60
62
65
69
72
75
79
82
85
87
90
94
97
101
104
108
110
112
113
113
113
113
113
114
115
116
117
117
115
113
109
103
97
91
86
81
77
74
71
68
64
59
53
47
40
33
27
22
18
15
14
12
12
11
11
10
8
7
4
2
-1
-3
-5
-6
-6
-6
-6
-6
-7
-8
-10
-14
-17
-21
-24
-25
-24
-22
-19
-16
-12
-10
-9
-10
-12
-15
-18
-20
-21
-21
-20
-18
-17
-17
-17
-19
-21
-23
-25
-25
-24
-22
-19
-16
-13
-11
-11
-12
-14
-16
-18
-20
-20
-19
-17
-14
-12
-10
-8
-7
-7
-7
-7
-6
-5
-3
-2
0
1
1
0
-1
-3
-4
-5
-5
-4
-3
-2
0
1
2
3
3
4
5
6
7
8
8
8
8
7
5
4
2
1
0
-1
-2
-3
-4
-5
-6
-7
-8
-9
-9
-9
-9
-9
-10
-10
-11
-11
-11
-11
-12
-12
-13
-14
-16
-18
-19
-20
-20
-19
-16
-13
-9
-7
-6
-7
-10
-14
-17
-19
-20
-18
-14
-9
-3
2
6
10
16
24
37
55
77
101
122
136
139
127
99
57
3
-57
-116
-169
-211
-239
-253
-255
-248
-234
-219
-203
-188
-174
-160
-146
-132
-117
-101
-86
-72
-60
-50
-42
-35
-29
-23
-17
-11
-6
-2
1
2
2
1
-1
-2
-2
-2
0
2
5
7
8
9
9
9
8
8
8
8
9
11
12
14
15
15
16
17
18
19
20
22
23
25
27
29
30
31
32
34
35
37
39
42
44
47
50
53
57
60
64
69
73
78
82
85
88
90
91
92
93
94
95
97
99
100
101
102
102
101
100
99
98
97
95
93
90
86
82
76
70
64
58
52
47
42
38
33
29
24
19
13
8
3
-1
-5
-8
-10
-12
-14
-16
-17
-19
-20
-21
-22
-23
-23
-24
-24
-24
-25
-25
-25
-25
-25
-25
-25
-24
-24
-23
-23
-22
-22
-22
-22
-23
-24
-25
-26
-27
-27
-27
-26
-24
-23
-21
-20
-19
-19
-19
-20
-20
-19
-18
-16
-14
-11
-9
-8
-8
-9
-10
-12
-14
-16
-17
-18
-18
-18
-18
-18
-18
-19
-19
-19
-17
-15
-13
-10
-7
-5
-5
-5
-6
-7
-9
-10
-11
-11
-12
-12
-13
-15
-18
-21
-24
-26
-27
-28
-27
-25
-23
-21
-19
-18
-19
-20
-22
-24
-26
-28
-29
-30
-31
-31
-32
-31
-31
-30
-30
-29
-29
-28
-28
-28
-29
-30
-31
-33
-34
-36
-37
-37
-36
-34
-31
-28
-25
-21
-18
-15
-10
-3
7
21
40
63
86
107
122
126
118
94
56
6
-51
-110
-165
-210
-243
-263
-269
-265
-254
-240
-224
-210
-197
-184
-172
-159
-145
-128
-110
-92
-76
-61
-50
-42
-37
-34
-32
-30
-29
-27
-25
-22
-20
-17
-15
-13
-11
-8
-6
-3
-1
1
3
4
5
5
5
4
4
4
4
4
5
5
6
8
9
12
14
17
19
21
22
22
22
21
20
19
20
22
25
29
34
39
44
48
52
55
58
60
63
65
68
71
74
77
80
83
85
87
90
92
93
95
97
98
99
100
100
100
100
99
98
97
95
92
89
86
81
76
70
64
58
51
46
40
36
32
29
26
23
21
18
14
10
6
3
-1
-3
-5
-6
-7
-7
-7
-8
-9
-10
-12
-14
-16
-18
-19
-19
-18
-18
-17
-16
-15
-14
-14
-13
-13
-13
-13
-13
-13
-14
-15
-16
-17
-18
-18
-18
-17
-16
-15
-14
-13
-13
-14
-15
-16
-16
-16
-15
-14
-13
-11
-11
-10
-11
-12
-12
-13
-13
-12
-10
-8
-6
-4
-3
-2
-1
-1
0
1
2
3
4
5
5
4
3
1
-1
-3
-4
-3
-2
1
4
7
10
12
13
13
13
12
11
10
9
8
6
4
1
-2
-6
-9
-11
-13
-13
-13
-11
-10
-8
-7
-6
-5
-6
-6
-7
-8
-8
-9
-10
-10
-11
-12
-12
-12
-11
-10
-9
-8
-8
-7
-8
-9
-10
-12
-13
-14
-15
-16
-17
-17
-17
-17
-16
-14
-12
-9
-6
-2
1
5
10
19
31
47
67
90
112
131
142
141
126
96
53
-1
-59
-117
-168
-209
-237
-251
-253
-245
-231
-214
-197
-180
-166
-152
-139
-125
-111
-95
-79
-64
-50
-38
-29
-22
-17
-13
-10
-8
-5
-2
0
3
5
7
8
9
9
9
9
9
9
9
10
10
11
12
13
14
16
18
19
21
22
23
24
24
24
25
25
26
27
28
29
30
31
31
32
33
34
35
37
39
42
45
49
53
57
61
65
68
71
73
76
78
81
84
87
90
94
97
100
103
105
106
107
107
107
106
104
103
101
100
98
97
95
93
90
87
84
79
74
69
63
57
51
45
40
36
32
29
26
23
21
19
17
15
12
9
6
2
-2
-5
-8
-11
-12
-13
-12
-12
-10
-9
-8
-7
-7
-7
-8
-9
-9
-9
-8
-7
-6
-5
-5
-5
-6
-8
-10
-12
-13
-14
-14
-12
-11
-9
-7
-7
-8
-9
-12
-14
-16
-18
-18
-17
-15
-13
-11
-9
-8
-8
-8
-9
-10
-10
-9
-7
-5
-2
1
4
6
7
7
6
4
2
0
-2
-4
-5
-5
-5
-5
-4
-3
-2
0
1
3
4
5
5
6
5
5
4
4
4
4
5
6
8
9
10
11
10
9
7
4
2
-1
-4
-6
-8
-9
-10
-10
-11
-11
-11
-12
-12
-13
-14
-15
-16
-16
-16
-16
-15
-13
-11
-10
-9
-9
-9
-10
-11
-13
-14
-15
-16
-17
-18
-19
-21
-23
-24
-25
-24
-21
-18
-14
-9
-6
-3
-1
3
9
19
35
56
81
106
128
142
142
128
97
52
-3
-63
-122
-173
-213
-239
-251
-252
-244
-231
-216
-201
-187
-174
-162
-150
-136
-121
-105
-88
-73
-59
-48
-39
-32
-27
-23
-19
-15
-11
-7
-4
-2
-1
-1
-1
-2
-3
-3
-2
-1
1
3
5
7
8
8
8
8
7
7
8
8
9
10
12
13
14
15
16
17
18
19
21
22
24
25
25
26
27
28
29
32
36
41
47
51
55
58
59
59
58
59
60
63
69
75
83
90
96
100
100
99
95
91
87
85
84
85
88
90
93
94
93
91
88
84
80
77
73
69
66
61
56
50
43
37
30
24
19
15
11
8
5
3
0
-2
-5
-7
-8
-9
-10
-10
-11
-12
-12
-13
-15
-16
-16
-17
-17
-17
-17
-16
-16
-17
-17
-18
-19
-20
-21
-22
-22
-22
-22
-22
-22
-22
-22
-22
-23
-24
-25
-25
-26
-25
-25
-24
-23
-21
-20
-19
-19
-19
-20
-21
-22
-23
-24
-24
-23
-22
-20
-19
-17
-15
-14
-12
-11
-10
-9
-7
-6
-6
-6
-6
-7
-8
-10
-11
-13
-14
-15
-16
-16
-16
-15
-13
-11
-8
-5
-2
1
3
4
5
4
2
0
-2
-4
-6
-7
-8
-8
-8
-9
-9
-10
-11
-13
-14
-16
-18
-19
-20
-21
-22
-21
-21
-20
-19
-19
-18
-18
-19
-19
-20
-20
-20
-19
-19
-18
-18
-18
-19
-20
-21
-22
-22
-22
-21
-20
-20
-20
-21
-22
-23
-23
-22
-21
-18
-15
-11
-7
-4
1
9
19
34
52
74
95
114
125
126
112
84
42
-9
-65
-121
-171
-211
-239
-254
-257
-252
-242
-228
-214
-201
-188
-175
-162
-147
-131
-114
-97
-81
-66
-54
-44
-36
-30
-25
-21
-18
-14
-10
-7
-3
-1
1
2
3
3
3
3
3
4
5
6
8
9
11
13
14
15
16
17
18
19
20
21
23
24
24
25
25
25
25
25
26
27
28
30
32
35
38
40
43
45
47
49
52
55
59
64
69
75
80
84
88
91
92
93
93
94
94
96
99
102
106
109
112
113
113
112
111
108
106
104
102
100
98
95
92
88
83
77
71
65
59
54
48
44
39
35
30
26
22
18
14
12
10
8
7
6
4
2
-1
-3
-6
-8
-8
-9
-8
-8
-8
-8
-9
-10
-11
-11
-11
-10
-9
-7
-5
-4
-3
-5
-7
-10
-13
-15
-17
-17
-16
-14
-12
-10
-9
-8
-9
-10
-12
-13
-14
-14
-14
-13
-12
-12
-11
-10
-9
-9
-8
-7
-6
-4
-4
-3
-3
-4
-4
-5
-6
-6
-6
-5
-4
-3
-2
0
1
2
3
4
5
6
7
8
8
7
5
3
1
-1
-3
-3
-2
-1
2
4
6
8
8
8
7
5
4
2
1
0
0
-1
-2
-3
-5
-7
-9
-11
-12
-12
-12
-11
-11
-11
-11
-12
-13
-15
-16
-17
-18
-17
-16
-15
-14
-14
-14
-14
-15
-15
-16
-16
-16
-16
-17
-18
-18
-19
-18
-17
-15
-11
-7
-4
0
3
5
9
15
25
40
58
80
101
119
129
128
114
85
44
-6
-61
-114
-162
-201
-228
-243
-247
-243
-233
-219
-203
-187
-172
-157
-142
-128
-114
-101
-88
-75
-64
-52
-42
-33
-24
-17
-10
-5
-2
1
2
2
2
2
1
0
0
0
0
0
1
2
3
4
6
8
11
13
14
15
16
16
15
15
15
16
17
19
22
25
27
29
31
31
31
30
29
28
29
30
32
34
37
41
44
47
49
52
55
58
62
67
71
76
81
84
87
88
89
90
91
92
94
97
100
102
105
106
105
104
101
98
94
91
88
86
83
81
77
72
66
59
52
44
38
32
28
25
23
21
19
17
14
11
7
4
1
-1
-3
-4
-4
-4
-4
-5
-6
-7
-8
-10
-11
-12
-13
-14
-15
-16
-17
-18
-19
-19
-19
-18
-17
-15
-14
-12
-11
-11
-12
-13
-15
-17
-19
-21
-22
-23
-22
-21
-20
-18
-16
-14
-12
-11
-10
-10
-11
-12
-14
-15
-16
-16
-16
-15
-13
-11
-10
-9
-9
-9
-10
-12
-12
-12
-11
-9
-7
-5
-3
-2
-2
-3
-4
-6
-7
-8
-7
-6
-3
-1
1
3
4
3
1
-1
-3
-5
-7
-7
-6
-4
-1
2
4
5
5
4
1
-3
-7
-11
-14
-17
-19
-20
-20
-20
-20
-20
-19
-19
-19
-18
-18
-18
-18
-18
-19
-20
-21
-22
-23
-24
-24
-23
-22
-21
-19
-18
-17
-16
-17
-18
-20
-22
-24
-26
-26
-25
-23
-20
-16
-12
-9
-7
-4
0
7
18
33
54
76
99
117
127
125
109
78
35
-16
-71
-123
-169
-203
-226
-238
-239
-234
-224
-212
-199
-185
-170
-155
-139
-121
-104
-87
-72
-60
-50
-43
-37
-32
-27
-22
-17
-12
-8
-5
-4
-4
-5
-6
-7
-7
-6
-3
0
2
5
6
6
6
5
5
5
6
7
9
10
11
11
11
12
12
14
16
19
22
24
26
27
28
27
26
26
26
27
28
31
34
37
40
43
47
50
54
58
62
67
71
75
79
81
83
84
85
86
87
88
90
92
95
97
98
99
99
98
97
96
95
93
92
90
88
84
79
73
67
59
52
45
40
36
33
30
28
25
22
18
13
8
4
1
-1
-2
-1
0
1
1
0
-3
-6
-10
-14
-16
-18
-18
-17
-16
-14
-12
-11
-11
-12
-13
-14
-16
-17
-18
-19
-20
-21
-23
-23
-24
-24
-23
-21
-19
-16
-14
-12
-12
-12
-13
-14
-15
-16
-16
-15
-14
-12
-11
-10
-10
-10
-12
-14
-15
-17
-17
-17
-16
-14
-13
-11
-9
-8
-8
-8
-8
-8
-8
-9
-9
-9
-9
-9
-9
-9
-8
-8
-7
-6
-5
-3
-1
1
3
5
7
7
8
7
6
5
3
1
-2
-3
-5
-6
-6
-6
-6
-6
-6
-7
-9
-11
-13
-16
-18
-20
-21
-21
-20
-18
-16
-15
-14
-14
-15
-17
-18
-20
-21
-22
-22
-21
-21
-21
-21
-22
-22
-22
-21
-20
-18
-16
-15
-14
-15
-17
-19
-20
-21
-21
-19
-16
-13
-10
-7
-4
-1
5
14
29
49
72
97
119
135
138
128
101
61
9
-48
-105
-156
-198
-227
-243
-247
-243
-233
-219
-204
-189
-175
-160
-145
-129
-112
-95
-79
-65
-53
-43
-36
-31
-27
-24
-21
-18
-14
-10
-6
-2
0
2
2
2
1
0
-1
-2
-2
-2
-2
-1
1
3
5
8
11
13
15
17
18
19
19
19
18
18
18
19
20
21
23
24
26
28
30
32
34
36
38
40
42
44
47
50
53
57
60
64
67
70
73
76
79
82
86
89
93
96
98
100
101
101
101
99
98
97
96
96
97
98
99
100
100
98
95
91
84
77
69
60
53
46
40
35
31
28
26
24
22
19
16
13
10
6
3
1
-2
-4
-5
-6
-7
-8
-9
-10
-10
-11
-11
-11
-10
-10
-10
-10
-10
-11
-12
-13
-15
-16
-17
-18
-18
-18
-18
-18
-18
-18
-19
-20
-21
-22
-21
-20
-17
-15
-12
-9
-8
-7
-8
-10
-13
-15
-17
-19
-19
-18
-17
-15
-13
-12
-11
-11
-12
-13
-13
-14
-13
-12
-11
-8
-6
-5
-3
-3
-3
-3
-4
-5
-5
-6
-5
-4
-2
-1
1
3
4
5
5
5
5
4
4
4
5
5
6
7
7
7
6
5
3
1
-1
-4
-6
-8
-10
-11
-13
-14
-15
-16
-16
-16
-16
-14
-13
-11
-10
-9
-9
-9
-10
-11
-12
-13
-14
-14
-15
-16
-16
-17
-18
-18
-18
-18
-18
-16
-15
-14
-14
-14
-15
-16
-18
-18
-18
-17
-15
-13
-10
-8
-5
-2
2
10
21
38
60
84
108
129
141
141
126
96
53
-1
-59
-115
-165
-205
-231
-245
-247
-241
-229
-215
-201
-187
-173
-160
-146
-130
-114
-96
-79
-64
-50
-40
-33
-28
-25
-22
-19
-16
-12
-7
-3
0
3
5
6
6
7
8
9
10
10
11
11
10
10
9
9
9
10
11
13
15
16
18
18
18
18
18
18
19
20
22
25
27
30
33
36
38
40
41
42
43
45
46
49
52
55
59
64
68
72
76
79
82
85
88
91
94
96
98
100
101
102
102
102
101
101
101
102
102
103
102
102
100
97
93
89
83
77
71
65
60
55
50
46
42
37
33
29
25
20
16
12
9
6
3
0
-2
-4
-6
-7
-8
-9
-10
-10
-10
-10
-9
-9
-8
-8
-9
-10
-11
-13
-15
-16
-17
-18
-17
-16
-15
-14
-13
-13
-14
-15
-17
-19
-20
-21
-21
-20
-18
-16
-14
-12
-11
-11
-11
-12
-14
-15
-16
-16
-16
-15
-15
-15
-14
-14
-14
-14
-13
-13
-12
-12
-11
-10
-10
-10
-10
-11
-11
-11
-11
-11
-10
-9
-8
-6
-5
-3
-2
-1
-1
-1
-2
-3
-5
-6
-7
-7
-6
-5
-3
0
2
4
6
6
6
5
4
3
3
3
3
3
2
1
-1
-3
-6
-8
-10
-11
-12
-12
-12
-12
-13
-14
-16
-18
-19
-20
-20
-19
-18
-17
-16
-15
-14
-14
-15
-15
-16
-16
-16
-16
-17
-17
-18
-19
-19
-19
-18
-16
-15
-14
-14
-16
-19
-22
-25
-27
-28
-25
-21
-15
-9
-3
2
6
10
17
27
42
62
85
108
125
134
130
110
76
28
-27
-85
-139
-184
-218
-239
-247
-246
-238
-226
-212
-199
-185
-172
-157
-142
-125
-108
-91
-75
-61
-49
-40
-33
-27
-22
-18
-13
-10
-7
-5
-4
-4
-5
-5
-5
-5
-3
-1
2
4
6
7
7
7
5
5
4
4
5
7
9
11
13
14
16
17
17
18
19
20
22
24
26
29
31
33
35
36
37
37
37
37
38
39
41
45
49
54
59
63
68
72
76
79
82
85
88
91
94
95
97
97
97
97
97
97
98
99
100
101
102
102
102
100
98
94
90
85
80
74
68
62
55
49
42
37
31
27
23
20
17
13
10
7
4
2
0
-2
-2
-2
-1
-1
0
-1
-2
-5
-8
-12
-16
-20
-23
-24
-24
-23
-21
-19
-16
-14
-12
-12
-12
-13
-15
-17
-18
-19
-19
-19
-19
-18
-17
-16
-17
-17
-18
-19
-20
-20
-20
-19
-18
-16
-14
-12
-11
-11
-12
-14
-17
-20
-22
-23
-23
-22
-20
-17
-14
-11
-10
-9
-10
-12
-14
-15
-16
-16
-15
-13
-11
-9
-7
-6
-6
-6
-6
-6
-6
-5
-5
-4
-3
-3
-3
-3
-3
-4
-5
-5
-5
-4
-3
-2
-1
0
2
3
3
4
3
3
2
0
-1
-2
-4
-5
-6
-7
-8
-9
-9
-10
-11
-12
-13
-14
-14
-14
-14
-15
-15
-16
-18
-19
-20
-21
-22
-22
-21
-20
-19
-18
-18
-19
-20
-21
-22
-22
-22
-21
-21
-20
-19
-20
-20
-20
-20
-20
-18
-16
-14
-11
-9
-8
-7
-4
0
9
23
42
66
91
114
130
136
129
107
70
22
-34
-91
-144
-189
-223
-245
-255
-254
-246
-234
-220
-205
-190
-177
-164
-151
-138
-123
-108
-93
-77
-62
-48
-36
-25
-17
-12
-9
-8
-9
-10
-11
-11
-11
-9
-7
-4
-2
1
3
4
6
7
8
9
11
12
14
14
14
13
12
11
10
10
10
12
14
17
20
22
24
25
27
28
30
33
36
39
41
43
44
44
44
43
44
45
49
53
60
66
73
79
83
86
87
88
88
89
90
92
96
99
102
105
107
108
107
107
105
104
103
101
100
98
96
92
89
84
80
75
70
65
61
56
51
46
41
36
31
26
22
18
15
12
9
5
2
-1
-4
-7
-8
-9
-9
-8
-7
-6
-5
-5
-5
-6
-8
-10
-11
-12
-12
-12
-11
-11
-11
-12
-13
-14
-16
-16
-17
-17
-17
-16
-16
-16
-16
-17
-17
-17
-17
-16
-14
-12
-11
-9
-9
-9
-10
-11
-13
-14
-15
-15
-15
-14
-13
-12
-12
-11
-11
-11
-11
-11
-11
-10
-10
-9
-8
-7
-6
-6
-6
-6
-7
-8
-8
-9
-9
-8
-7
-6
-5
-3
-2
-2
-2
-2
-3
-4
-5
-5
-4
-2
0
2
3
3
3
2
0
-1
-2
-2
-1
1
4
6
8
8
7
5
2
-2
-6
-9
-11
-12
-13
-13
-13
-13
-13
-13
-14
-14
-15
-15
-15
-15
-15
-14
-14
-13
-13
-13
-14
-14
-15
-16
-18
-19
-20
-20
-21
-20
-20
-19
-19
-19
-19
-20
-21
-23
-23
-22
-19
-16
-11
-7
-3
0
3
7
12
21
35
53
74
96
114
125
124
109
80
36
-17
-74
-129
-177
-213
-236
-245
-243
-234
-220
-205
-191
-178
-166
-155
-142
-128
-112
-94
-77
-61
-48
-37
-29
-24
-21
-18
-15
-11
-8
-5
-3
-2
-1
-2
-2
-3
-2
-1
1
3
6
7
8
8
7
5
4
4
4
6
8
11
14
17
20
22
23
24
24
25
25
25
25
24
25
25
26
28
30
34
38
42
47
51
55
58
60
61
62
63
64
66
68
71
75
78
82
85
88
90
92
94
95
96
97
97
98
98
97
97
96
95
93
91
89
86
83
79
75
70
66
61
56
52
48
44
39
35
31
26
22
18
13
10
7
5
4
3
3
2
1
-1
-3
-5
-7
-9
-10
-10
-10
-9
-8
-9
-9
-11
-13
-15
-17
-18
-18
-17
-15
-13
-11
-10
-9
-10
-10
-12
-13
-13
-14
-13
-12
-11
-10
-9
-9
-9
-10
-11
-12
-13
-14
-14
-13
-13
-12
-11
-10
-10
-10
-11
-11
-13
-14
-14
-14
-14
-13
-12
-10
-9
-9
-9
-10
-11
-12
-12
-12
-11
-8
-5
-2
1
3
4
4
3
2
0
-2
-4
-5
-5
-5
-6
-5
-5
-5
-5
-4
-3
-1
1
3
4
5
6
6
5
4
3
2
1
1
1
2
2
1
0
-2
-4
-7
-10
-12
-14
-15
-15
-14
-13
-11
-10
-9
-9
-10
-10
-11
-12
-13
-14
-14
-14
-14
-14
-14
-15
-16
-17
-17
-17
-16
-15
-14
-13
-12
-12
-14
-16
-18
-20
-21
-21
-19
-17
-14
-10
-6
-3
1
6
14
25
40
60
82
104
123
134
135
122
95
55
5
-50
-105
-154
-194
-223
-238
-243
-237
-226
-211
-195
-179
-165
-151
-138
-125
-111
-98
-85
-73
-62
-52
-43
-36
-29
-22
-16
-10
-5
0
3
5
5
4
3
1
0
-1
-1
0
2
5
8
11
15
17
19
19
19
17
15
13
10
9
9
10
13
16
20
23
26
27
28
27
26
26
26
27
29
33
37
41
44
47
48
49
50
51
53
56
60
64
70
76
81
86
90
93
95
97
97
98
98
98
98
98
98
98
98
97
97
96
95
93
91
88
85
80
75
69
62
56
50
44
39
36
33
32
31
30
28
25
22
18
13
8
3
-1
-4
-5
-6
-5
-5
-4
-5
-6
-7
-9
-12
-13
-15
-16
-16
-17
-18
-18
-19
-20
-21
-21
-21
-20
-18
-17
-16
-15
-16
-17
-19
-21
-22
-23
-23
-22
-20
-18
-16
-14
-12
-11
-11
-11
-12
-12
-13
-14
-15
-15
-16
-16
-17
-17
-17
-18
-18
-19
-19
-19
-19
-18
-17
-15
-12
-10
-8
-6
-5
-6
-7
-9
-12
-14
-16
-16
-15
-14
-11
-8
-6
-5
-4
-5
-6
-8
-10
-11
-11
-11
-11
-10
-9
-8
-8
-8
-8
-8
-7
-5
-2
1
4
6
8
8
7
5
3
1
-1
-2
-2
-2
-1
0
0
-1
-2
-5
-8
-12
-16
-18
-20
-21
-20
-18
-16
-15
-13
-13
-14
-15
-18
-21
-23
-24
-24
-23
-21
-18
-15
-12
-11
-11
-12
-13
-15
-17
-19
-20
-20
-20
-20
-20
-19
-19
-18
-16
-14
-12
-10
-8
-5
-2
3
11
24
40
62
85
108
126
136
132
114
81
34
-22
-81
-138
-186
-223
-245
-253
-249
-238
-221
-203
-186
-171
-158
-146
-134
-121
-108
-93
-78
-63
-51
-40
-33
-27
-24
-21
-18
-14
-10
-6
-2
2
4
5
4
2
-1
-4
-6
-7
-7
-5
-2
1
5
8
11
13
15
16
16
17
18
19
21
22
23
23
23
23
22
22
21
22
23
25
27
30
33
36
38
41
43
45
47
49
52
55
58
62
66
70
74
78
82
84
86
88
89
90
91
93
95
97
100
103
105
107
107
107
105
103
100
97
94
91
88
84
80
75
69
63
56
50
44
39
34
30
27
25
23
21
19
16
13
10
7
4
0
-4
-7
-10
-12
-13
-13
-12
-11
-9
-9
-9
-10
-12
-14
-17
-19
-21
-21
-20
-18
-16
-14
-13
-13
-14
-16
-18
-20
-21
-21
-19
-17
-15
-12
-11
-11
-11
-13
-15
-17
-18
-18
-18
-17
-15
-14
-13
-12
-11
-10
-10
-10
-9
-9
-9
-9
-10
-12
-14
-16
-19
-20
-20
-20
-19
-17
-16
-14
-13
-13
-14
-15
-16
-16
-16
-14
-12
-9
-6
-4
-2
-1
-1
-2
-4
-5
-6
-7
-6
-5
-3
-1
1
3
3
3
2
0
-3
-5
-6
-7
-6
-5
-4
-2
0
1
2
2
0
-1
-4
-6
-7
-8
-9
-9
-8
-7
-6
-6
-6
-8
-11
-15
-18
-22
-25
-27
-27
-27
-25
-22
-20
-17
-15
-13
-12
-12
-13
-14
-15
-17
-18
-19
-19
-18
-17
-15
-14
-13
-13
-14
-16
-18
-20
-21
-22
-21
-19
-17
-13
-10
-5
1
10
22
38
59
82
104
123
133
132
116
85
41
-13
-72
-129
-180
-219
-245
-258
-258
-250
-236
-220
-203
-188
-174
-161
-147
-133
-117
-101
-85
-70
-56
-45
-37
-31
-27
-24
-21
-18
-15
-11
-7
-3
0
2
3
4
4
4
4
4
5
6
6
7
7
7
8
8
9
10
12
14
16
18
21
22
23
23
22
22
21
21
21
22
24
27
30
32
35
37
38
40
42
44
47
51
55
60
64
68
71
74
76
78
80
82
85
88
91
94
97
99
102
104
106
107
109
111
112
112
111
109
106
102
97
92
88
83
80
76
72
69
65
60
56
51
47
42
38
35
31
27
22
17
12
7
3
-1
-3
-4
-4
-4
-3
-2
-2
-2
-3
-5
-6
-8
-9
-9
-9
-9
-9
-9
-9
-9
-8
-8
-7
-7
-7
-7
-8
-9
-11
-13
-15
-16
-16
-16
-14
-13
-12
-11
-11
-12
-14
-16
-17
-18
-18
-17
-16
-13
-11
-9
-7
-6
-6
-6
-6
-6
-7
-7
-8
-8
-9
-9
-10
-11
-11
-11
-11
-11
-10
-9
-9
-8
-8
-8
-8
-7
-7
-6
-6
-5
-5
-5
-5
-5
-4
-3
-1
0
2
3
3
3
2
0
-2
-3
-3
-3
-2
0
2
4
5
5
4
3
2
1
1
1
1
2
2
1
0
-3
-5
-8
-10
-12
-13
-13
-12
-11
-10
-9
-9
-9
-9
-9
-10
-11
-11
-12
-14
-15
-16
-17
-18
-18
-17
-17
-16
-15
-14
-13
-13
-13
-13
-14
-15
-17
-19
-21
-23
-25
-25
-23
-19
-15
-10
-6
-3
-1
1
4
10
20
36
57
82
106
126
137
135
117
83
36
-20
-79
-135
-183
-218
-239
-247
-245
-237
-224
-210
-197
-185
-172
-159
-144
-128
-109
-91
-73
-57
-45
-36
-30
-26
-23
-21
-18
-15
-11
-7
-4
-3
-2
-2
-3
-4
-4
-3
-1
3
6
10
13
15
15
15
13
11
9
7
6
6
7
8
10
12
15
17
19
22
25
27
30
33
34
36
36
36
36
35
35
36
38
40
43
46
50
54
57
60
63
65
68
71
74
78
82
86
90
93
96
97
99
100
101
102
104
105
107
108
109
108
106
102
97
91
84
77
71
65
60
56
52
48
44
39
34
30
25
21
18
15
13
11
9
7
5
3
1
-2
-3
-4
-5
-5
-6
-6
-6
-7
-8
-9
-11
-13
-14
-15
-16
-15
-14
-12
-10
-8
-7
-7
-8
-9
-12
-15
-18
-20
-22
-22
-20
-18
-15
-12
-9
-8
-7
-8
-9
-11
-12
-14
-14
-14
-13
-12
-11
-11
-11
-12
-13
-14
-16
-17
-17
-17
-16
-15
-13
-12
-10
-8
-7
-6
-5
-5
-5
-6
-7
-9
-11
-13
-14
-15
-14
-13
-11
-8
-5
-3
-2
-2
-2
-3
-5
-6
-8
-8
-8
-8
-7
-5
-3
-2
-1
1
2
2
3
4
5
6
7
7
7
6
5
3
1
0
-2
-3
-3
-4
-4
-5
-6
-7
-9
-11
-12
-13
-12
-12
-10
-8
-7
-6
-6
-6
-7
-9
-11
-13
-14
-15
-15
-16
-16
-17
-18
-19
-21
-22
-23
-23
-22
-21
-19
-16
-15
-14
-14
-14
-16
-17
-18
-18
-17
-15
-12
-9
-6
-2
3
10
20
34
53
74
96
116
130
135
127
105
69
22
-31
-87
-140
-184
-218
-239
-248
-247
-238
-224
-208
-192
-177
-162
-147
-132
-118
-103
-88
-74
-61
-50
-41
-34
-28
-23
-18
-13
-9
-5
-3
-1
0
0
-1
-2
-2
-3
-3
-2
-1
0
1
2
3
4
5
6
8
9
11
13
14
15
15
15
15
16
17
19
21
24
28
30
32
33
33
33
32
31
32
34
37
41
46
50
55
58
60
61
61
61
62
64
67
71
75
80
85
90
94
97
99
101
102
103
102
102
101
99
97
94
92
91
90
88
87
85
82
78
73
67
60
55
50
46
43
41
39
36
33
28
23
16
9
3
-2
-5
-8
-9
-9
-9
-9
-9
-10
-12
-13
-15
-15
-16
-15
-15
-14
-14
-14
-15
-17
-19
-20
-21
-21
-21
-19
-18
-16
-14
-13
-12
-11
-11
-12
-12
-13
-14
-14
-15
-15
-16
-15
-15
-14
-13
-12
-12
-11
-12
-13
-14
-17
-19
-21
-23
-25
-25
-25
-24
-23
-21
-19
-17
-15
-14
-13
-12
-11
-11
-12
-12
-13
-13
-14
-14
-13
-13
-11
-10
-9
-7
-7
-7
-7
-8
-9
-10
-11
-11
-11
-10
-9
-8
-8
-7
-7
-7
-6
-5
-3
-1
1
4
6
7
7
6
4
2
0
-2
-3
-3
-2
-1
1
1
1
-1
-3
-7
-10
-13
-16
-17
-18
-17
-16
-15
-14
-13
-12
-12
-13
-14
-15
-16
-17
-17
-17
-16
-15
-14
-14
-14
-14
-16
-17
-19
-21
-23
-23
-23
-22
-20
-18
-16
-15
-14
-14
-15
-15
-15
-15
-14
-13
-13
-12
-10
-7
0
10
26
47
72
98
122
140
146
138
115
77
27
-30
-89
-143
-188
-221
-240
-248
-246
-237
-225
-211
-197
-184
-170
-155
-140
-123
-106
-89
-73
-60
-49
-41
-36
-31
-28
-24
-20
-16
-12
-8
-6
-4
-2
-2
-2
-1
0
1
3
4
6
8
9
10
10
10
11
11
11
11
12
13
15
17
20
22
25
27
29
29
30
29
29
29
29
29
31
32
34
37
39
41
43
45
48
51
54
58
62
66
70
73
76
79
81
83
86
88
91
93
96
98
101
102
104
106
107
109
110
110
109
108
105
101
97
92
86
81
77
73
70
67
64
61
57
53
47
41
35
29
23
18
14
11
9
7
6
6
5
3
2
0
-2
-4
-5
-7
-9
-10
-11
-12
-13
-14
-15
-16
-16
-17
-17
-17
-16
-15
-15
-14
-14
-15
-16
-16
-16
-16
-15
-12
-10
-7
-5
-4
-4
-6
-10
-13
-17
-20
-23
-23
-23
-21
-19
-16
-14
-12
-10
-10
-10
-11
-12
-13
-14
-15
-16
-16
-16
-16
-15
-13
-11
-9
-7
-5
-5
-4
-5
-6
-8
-9
-10
-10
-10
-8
-6
-4
-2
-1
0
0
0
-1
-3
-5
-7
-8
-9
-9
-9
-9
-7
-5
-3
-1
1
4
5
7
7
7
6
5
3
2
1
0
-1
-1
-1
-1
-1
-2
-3
-4
-6
-7
-9
-10
-12
-13
-15
-16
-18
-19
-19
-19
-19
-18
-17
-16
-15
-14
-14
-14
-15
-16
-17
-18
-19
-20
-20
-19
-19
-18
-17
-16
-15
-15
-15
-15
-16
-16
-16
-16
-15
-14
-12
-11
-9
-7
-4
0
8
19
35
55
78
100
119
130
130
117
90
50
1
-53
-108
-157
-197
-226
-242
-248
-244
-234
-221
-207
-192
-179
-165
-152
-138
-123
-108
-92
-77
-63
-51
-41
-33
-26
-22
-18
-15
-13
-11
-9
-8
-6
-4
-3
-1
0
2
4
5
7
9
10
11
12
12
11
10
9
8
7
7
7
8
10
12
15
18
20
22
24
25
26
27
28
30
32
34
37
39
42
43
45
46
46
47
49
51
54
58
62
67
72
77
81
85
87
89
91
92
94
95
98
100
103
105
106
107
106
105
103
100
98
96
94
92
90
87
84
79
73
67
61
55
50
45
41
38
35
32
28
24
19
14
9
5
2
0
-1
-1
0
0
0
-1
-3
-6
-10
-13
-15
-16
-16
-15
-13
-10
-9
-8
-8
-9
-10
-12
-14
-16
-17
-17
-17
-17
-18
-18
-19
-20
-21
-21
-21
-19
-17
-14
-11
-8
-5
-4
-4
-5
-7
-9
-12
-15
-17
-18
-18
-17
-16
-14
-12
-11
-10
-10
-11
-12
-12
-13
-13
-13
-12
-11
-11
-11
-12
-13
-15
-16
-16
-15
-13
-10
-6
-2
1
2
3
2
0
-2
-4
-5
-5
-5
-5
-5
-5
-5
-5
-6
-6
-5
-4
-2
1
3
5
6
5
4
2
0
-1
-2
-3
-2
-2
-1
0
0
0
-1
-2
-4
-6
-8
-9
-10
-11
-12
-13
-14
-14
-15
-15
-15
-15
-15
-15
-15
-15
-15
-14
-13
-12
-11
-10
-10
-11
-12
-14
-16
-17
-19
-19
-19
-18
-17
-16
-16
-17
-19
-20
-21
-22
-21
-18
-15
-11
-7
-2
3
10
19
31
48
68
90
112
128
137
133
115
83
38
-15
-72
-127
-175
-212
-236
-247
-247
-238
-224
-207
-190
-174
-159
-145
-132
-117
-103
-87
-72
-58
-46
-36
-28
-23
-20
-19
-18
-17
-15
-13
-10
-7
-4
-1
1
3
4
5
6
6
7
7
7
7
7
8
8
9
10
12
13
14
15
15
16
16
16
16
17
19
21
24
28
31
33
35
36
36
36
36
36
37
39
42
46
50
54
58
61
63
64
66
67
69
71
74
78
82
86
89
91
92
93
93
93
93
94
96
97
99
100
101
100
97
94
89
83
77
71
65
60
55
50
46
43
39
36
33
31
28
25
21
18
14
9
4
0
-5
-9
-12
-13
-14
-13
-12
-11
-9
-8
-8
-9
-11
-13
-15
-17
-18
-18
-18
-17
-16
-15
-15
-15
-15
-16
-16
-17
-18
-18
-18
-19
-19
-19
-20
-20
-20
-20
-20
-19
-18
-17
-15
-14
-13
-13
-13
-14
-14
-15
-15
-16
-16
-15
-15
-15
-15
-15
-15
-16
-16
-17
-17
-17
-17
-16
-16
-15
-14
-13
-12
-11
-10
-10
-9
-10
-10
-10
-10
-10
-10
-9
-8
-6
-5
-4
-4
-4
-5
-6
-7
-9
-10
-10
-10
-9
-7
-5
-2
0
2
3
4
4
4
4
3
2
0
-1
-3
-4
-5
-5
-5
-5
-3
-2
-1
-1
-1
-2
-5
-7
-10
-14
-16
-18
-20
-20
-20
-19
-18
-17
-16
-16
-16
-16
-16
-16
-15
-15
-16
-16
-18
-19
-21
-24
-25
-26
-26
-25
-24
-21
-19
-18
-17
-16
-16
-16
-15
-14
-13
-10
-9
-7
-5
-4
-1
5
15
30
50
74
99
121
135
139
129
104
64
14
-42
-99
-151
-193
-223
-240
-246
-243
-234
-221
-207
-192
-178
-163
-149
-133
-116
-100
-84
-69
-57
-46
-38
-32
-27
-23
-19
-15
-11
-8
-4
-2
0
1
1
1
1
1
1
0
0
0
0
0
1
3
5
7
9
11
12
12
11
10
9
9
10
12
15
18
21
23
26
27
28
29
30
31
33
35
38
40
43
46
48
51
53
56
58
61
63
66
68
70
72
74
77
79
83
86
90
94
97
100
102
103
104
104
103
102
102
101
99
98
96
93
89
85
81
76
71
67
62
57
53
47
42
35
29
23
17
13
9
6
5
4
3
2
1
-1
-4
-7
-10
-12
-14
-14
-13
-11
-9
-8
-7
-7
-8
-10
-12
-15
-18
-20
-20
-20
-19
-18
-16
-14
-14
-14
-15
-16
-17
-19
-20
-20
-20
-19
-18
-17
-17
-17
-17
-18
-18
-18
-17
-16
-15
-14
-14
-14
-14
-15
-16
-16
-16
-16
-15
-14
-13
-13
-14
-15
-16
-18
-20
-21
-21
-20
-19
-16
-14
-12
-11
-10
-9
-9
-9
-9
-9
-9
-8
-8
-6
-5
-4
-2
-1
0
1
1
1
0
-2
-4
-6
-8
-10
-11
-11
-10
-8
-6
-3
-1
1
3
4
5
5
5
5
4
4
3
2
2
1
0
-1
-2
-3
-5
-7
-9
-12
-13
-15
-16
-16
-16
-15
-14
-12
-11
-10
-10
-11
-12
-14
-16
-19
-20
-21
-21
-19
-18
-16
-14
-13
-13
-14
-15
-17
-18
-18
-18
-17
-15
-13
-13
-13
-14
-17
-19
-21
-21
-21
-18
-15
-11
-7
-2
4
13
24
40
60
82
105
125
136
137
123
94
51
-2
-61
-118
-170
-210
-237
-250
-252
-244
-230
-214
-198
-183
-169
-156
-144
-131
-116
-101
-86
-72
-59
-48
-39
-31
-25
-20
-15
-10
-6
-2
0
2
2
1
-1
-2
-4
-4
-3
-1
1
4
7
9
12
14
16
18
20
21
22
22
22
21
20
19
19
19
19
20
22
25
27
29
31
32
33
34
35
36
38
40
44
48
53
57
61
65
67
69
70
71
72
74
77
80
84
89
93
98
102
105
107
108
109
108
108
106
105
103
102
101
100
99
99
99
98
96
93
89
83
76
69
61
55
50
47
44
42
40
38
34
29
23
17
10
5
1
-2
-3
-3
-2
-2
-1
-1
-2
-3
-5
-7
-9
-11
-12
-13
-13
-14
-13
-13
-13
-12
-12
-12
-12
-12
-13
-13
-14
-14
-13
-12
-12
-11
-10
-10
-11
-11
-12
-12
-12
-11
-9
-7
-5
-4
-4
-5
-8
-11
-15
-18
-20
-20
-18
-16
-13
-10
-8
-7
-7
-8
-9
-11
-12
-13
-12
-12
-11
-10
-10
-10
-10
-10
-9
-9
-7
-6
-3
-1
1
2
3
3
3
3
3
2
2
1
0
-1
-2
-2
-3
-3
-2
-1
0
1
1
1
0
-2
-3
-4
-4
-3
-1
2
5
8
10
10
9
6
2
-2
-6
-9
-11
-12
-12
-11
-11
-10
-10
-10
-11
-11
-11
-11
-11
-11
-11
-11
-11
-12
-13
-14
-15
-16
-16
-17
-18
-19
-19
-20
-21
-22
-22
-22
-21
-20
-18
-16
-14
-12
-10
-8
-6
-5
-4
-4
-3
-2
1
6
16
30
49
70
93
112
125
129
119
95
58
10
-44
-100
-151
-194
-226
-245
-251
-248
-238
-224
-209
-193
-179
-166
-152
-139
-124
-108
-92
-76
-61
-48
-38
-31
-26
-22
-19
-17
-14
-11
-8
-6
-3
-2
-1
-1
-1
-1
0
1
3
6
9
11
13
15
16
16
16
16
15
15
15
16
16
17
18
18
19
19
19
19
19
20
21
22
24
26
29
32
35
38
42
45
48
52
55
59
63
66
70
72
75
76
78
79
81
83
85
87
90
92
94
96
97
98
99
100
101
101
102
102
101
99
96
92
87
82
77
73
68
65
62
58
55
50
44
38
31
24
18
13
10
8
7
7
6
5
3
0
-4
-9
-12
-15
-16
-16
-14
-12
-9
-6
-5
-4
-5
-7
-9
-11
-13
-14
-15
-16
-17
-18
-19
-20
-21
-22
-22
-22
-22
-21
-19
-18
-17
-17
-16
-16
-17
-17
-18
-18
-19
-19
-19
-19
-18
-17
-16
-15
-15
-15
-16
-16
-17
-18
-18
-18
-17
-16
-14
-13
-12
-12
-14
-16
-18
-20
-21
-20
-19
-16
-13
-10
-7
-6
-6
-6
-8
-8
-9
-8
-7
-5
-3
-2
-1
-2
-3
-5
-7
-8
-8
-8
-6
-4
-2
0
1
1
0
-1
-2
-3
-3
-3
-2
-1
0
1
2
2
1
1
0
-2
-3
-5
-7
-9
-12
-15
-18
-20
-21
-22
-21
-20
-18
-15
-13
-12
-11
-11
-12
-14
-16
-18
-19
-20
-21
-21
-20
-20
-20
-21
-22
-23
-24
-25
-25
-25
-23
-21
-19
-17
-14
-12
-10
-9
-7
-6
-6
-5
-5
-3
2
9
22
39
60
84
107
125
134
131
113
80
34
-21
-79
-135
-183
-218
-240
-248
-244
-232
-215
-197
-181
-167
-156
-145
-134
-122
-107
-92
-75
-60
-47
-36
-29
-25
-22
-21
-19
-16
-12
-8
-4
-1
0
0
-2
-5
-7
-8
-7
-5
-1
4
8
11
13
13
11
8
5
3
2
3
5
8
12
16
19
22
23
24
25
25
25
25
26
27
28
29
30
31
32
34
36
38
42
46
51
56
61
66
70
72
74
75
75
75
76
77
80
83
87
91
96
100
102
104
104
103
101
99
96
93
90
87
85
84
82
80
78
75
72
67
62
55
48
41
35
28
22
17
13
10
8
6
4
3
2
1
-1
-2
-4
-6
-7
-8
-9
-9
-9
-9
-10
-10
-11
-12
-13
-15
-15
-16
-16
-16
-15
-14
-13
-13
-13
-13
-14
-15
-16
-16
-15
-14
-13
-12
-12
-12
-13
-15
-18
-21
-23
-25
-26
-26
-24
-22
-19
-16
-13
-11
-9
-8
-8
-8
-9
-10
-11
-11
-12
-12
-13
-13
-13
-13
-13
-13
-13
-13
-13
-13
-13
-13
-12
-10
-9
-7
-5
-4
-3
-3
-3
-4
-5
-6
-7
-7
-7
-6
-4
-2
0
2
3
5
6
6
5
5
3
2
1
0
-1
-1
0
1
3
4
4
4
2
0
-4
-7
-10
-13
-14
-15
-14
-13
-11
-9
-8
-8
-8
-9
-11
-13
-14
-15
-16
-16
-16
-17
-18
-19
-21
-23
-24
-24
-23
-21
-18
-14
-11
-9
-8
-9
-12
-16
-20
-23
-23
-22
-18
-13
-8
-3
0
2
3
7
15
27
46
69
95
118
136
142
134
110
71
21
-36
-94
-147
-190
-221
-239
-246
-243
-233
-220
-205
-190
-175
-160
-145
-129
-113
-97
-81
-67
-54
-43
-34
-27
-21
-17
-13
-10
-8
-7
-6
-5
-5
-3
-1
1
3
6
7
8
8
7
6
4
4
4
5
6
8
10
11
13
14
14
15
16
17
18
20
21
22
23
24
26
27
29
31
34
37
40
42
44
45
46
47
48
49
52
54
58
62
66
70
74
77
81
84
87
91
94
97
99
100
100
100
99
98
97
97
97
99
100
101
102
101
99
96
91
85
78
72
66
61
56
52
48
43
39
35
30
25
19
14
10
6
2
-1
-3
-5
-6
-7
-7
-7
-8
-8
-8
-9
-9
-10
-11
-12
-13
-13
-14
-14
-14
-14
-14
-14
-14
-14
-14
-14
-14
-15
-15
-16
-16
-17
-17
-18
-18
-18
-18
-18
-18
-17
-18
-18
-18
-18
-18
-18
-17
-16
-14
-12
-10
-9
-9
-9
-10
-12
-14
-17
-19
-20
-21
-20
-20
-18
-17
-16
-15
-14
-14
-12
-10
-8
-5
-2
0
2
3
2
1
-1
-4
-6
-7
-7
-7
-6
-4
-3
-2
-2
-2
-2
-1
0
1
3
6
7
8
8
6
3
-1
-4
-7
-9
-9
-8
-6
-3
-1
1
1
1
-1
-4
-7
-9
-11
-13
-13
-13
-11
-10
-9
-8
-8
-8
-10
-12
-14
-16
-18
-19
-20
-20
-19
-18
-17
-16
-16
-16
-17
-18
-19
-21
-22
-22
-22
-20
-18
-15
-13
-11
-10
-9
-8
-6
-1
9
25
46
71
98
123
141
149
143
122
86
38
-19
-78
-135
-184
-222
-248
-261
-261
-253
-237
-218
-197
-177
-158
-142
-127
-115
-103
-93
-83
-72
-62
-52
-41
-31
-22
-14
-8
-3
0
1
1
1
0
0
-1
0
0
1
2
3
3
4
5
5
6
7
8
9
10
11
12
14
15
16
17
18
18
19
19
19
20
21
23
26
29
33
36
39
42
44
45
46
46
47
49
52
56
60
65
70
74
77
80
81
81
82
82
83
85
88
91
96
100
105
108
111
113
113
112
111
109
106
103
100
96
93
89
85
81
76
72
67
62
56
51
45
39
33
27
23
19
16
14
13
12
12
11
10
8
6
3
-1
-4
-7
-10
-11
-12
-12
-13
-13
-14
-14
-15
-16
-17
-18
-18
-17
-17
-16
-15
-14
-14
-14
-14
-15
-15
-15
-15
-14
-14
-13
-13
-13
-13
-13
-13
-13
-13
-12
-12
-12
-12
-12
-13
-14
-16
-17
-17
-17
-16
-14
-12
-9
-7
-6
-6
-7
-9
-11
-12
-13
-13
-12
-11
-8
-6
-4
-2
-1
0
0
0
0
1
1
1
2
1
0
-3
-5
-7
-9
-10
-10
-8
-5
-2
2
6
9
11
11
10
9
8
6
6
6
7
9
10
11
11
10
8
5
1
-3
-6
-9
-10
-11
-12
-11
-11
-11
-11
-11
-12
-12
-13
-13
-13
-12
-12
-11
-10
-9
-9
-9
-10
-10
-11
-12
-13
-13
-13
-12
-11
-10
-10
-10
-10
-11
-13
-14
-14
-13
-12
-10
-9
-7
-7
-6
-5
-2
5
17
36
59
86
113
136
149
150
135
104
59
4
-55
-113
-163
-203
-230
-243
-246
-240
-229
-216
-202
-189
-175
-162
-148
-132
-114
-97
-80
-64
-51
-40
-32
-26
-21
-16
-11
-7
-2
2
5
7
8
7
