-13
-12
-11
-9
-8
-7
-7
-6
-5
-5
-4
-5
-5
-6
-7
-8
-8
-8
-7
-6
-4
-3
-1
0
0
0
-1
-2
-3
-3
-3
-2
-1
0
1
1
1
1
0
-2
-3
-4
-6
-7
-9
-10
-11
-12
-13
-14
-14
-14
-14
-14
-14
-14
-14
-14
-14
-14
-13
-13
-12
-12
-13
-13
-14
-14
-14
-13
-11
-10
-9
-8
-9
-11
-14
-19
-23
-25
-25
-22
-15
-4
11
27
45
62
77
91
101
108
113
113
111
105
95
83
68
51
34
17
2
-11
-21
-28
-31
-32
-30
-28
-24
-20
-16
-13
-9
-7
-5
-3
-2
-3
-3
-4
-6
-7
-9
-10
-10
-9
-8
-6
-4
-2
0
1
2
3
4
4
3
3
3
3
4
4
5
6
7
8
9
10
10
10
10
10
11
11
12
13
14
16
17
18
19
20
20
21
22
23
25
26
28
30
31
32
33
33
33
33
33
32
32
32
32
32
33
33
34
35
35
36
36
36
35
34
31
29
25
22
19
16
13
11
9
8
6
5
3
2
0
-1
-2
-3
-3
-4
-5
-5
-6
-8
-9
-11
-12
-13
-13
-12
-12
-11
-11
-10
-11
-11
-12
-13
-15
-15
-16
-16
-16
-15
-14
-13
-12
-11
-10
-9
-8
-7
-6
-6
-6
-7
-8
-9
-10
-11
-11
-11
-11
-10
-9
-8
-7
-7
-8
-8
-9
-10
-10
-10
-10
-9
-8
-8
-7
-8
-8
-9
-9
-8
-8
-6
-5
-4
-3
-4
-5
-7
-9
-12
-13
-13
-12
-11
-8
-5
-3
-2
-2
-3
-5
-8
-9
-10
-11
-10
-8
-7
-6
-5
-6
-7
-8
-10
-12
-12
-13
-13
-13
-13
-13
-14
-15
-17
-19
-20
-22
-22
-23
-23
-22
-22
-21
-21
-21
-21
-20
-20
-21
-21
-22
-23
-24
-25
-26
-26
-25
-23
-22
-20
-20
-20
-22
-25
-29
-32
-34
-34
-31
-25
-15
-2
13
29
45
61
75
87
97
105
109
110
107
100
88
73
54
34
13
-5
-21
-32
-39
-41
-40
-36
-31
-27
-23
-21
-19
-19
-19
-19
-19
-17
-16
-14
-13
-12
-12
-13
-14
-15
-15
-16
-15
-14
-13
-11
-10
-9
-8
-7
-7
-6
-5
-4
-3
-2
-2
-2
-2
-2
-2
-2
-1
0
1
3
5
6
7
8
8
8
8
8
8
8
9
11
13
16
18
21
24
25
26
27
26
25
24
23
23
24
25
27
30
32
33
34
34
34
33
31
30
28
27
26
25
23
22
20
18
16
14
12
10
8
6
4
2
0
-2
-4
-6
-8
-9
-10
-10
-11
-12
-12
-13
-13
-14
-14
-14
-14
-14
-14
-15
-15
-16
-16
-17
-17
-17
-17
-17
-17
-17
-17
-18
-18
-18
-18
-18
-17
-16
-15
-13
-12
-12
-12
-12
-13
-13
-14
-14
-14
-14
-14
-15
-15
-15
-16
-16
-17
-17
-17
-16
-16
-15
-14
-13
-13
-14
-14
-15
-16
-16
-16
-16
-15
-13
-11
-9
-7
-6
-6
-6
-7
-9
-10
-12
-14
-15
-15
-15
-14
-13
-12
-10
-8
-6
-5
-4
-4
-4
-4
-5
-6
-7
-8
-8
-9
-9
-8
-8
-8
-8
-8
-8
-8
-9
-9
-10
-10
-11
-12
-14
-15
-17
-18
-19
-19
-19
-18
-17
-15
-14
-12
-12
-11
-12
-13
-14
-15
-16
-16
-16
-15
-15
-16
-18
-20
-23
-25
-27
-26
-23
-17
-7
5
20
37
54
71
87
101
113
122
128
130
128
120
107
90
70
47
25
4
-14
-27
-35
-38
-38
-34
-29
-24
-19
-14
-11
-9
-7
-6
-5
-4
-4
-4
-4
-5
-6
-7
-7
-7
-7
-6
-5
-3
-2
-1
0
1
1
1
1
1
2
3
4
5
7
8
9
10
10
10
10
9
9
9
9
9
10
10
12
13
15
17
19
21
23
24
25
26
27
27
28
29
30
33
35
37
38
39
39
38
36
34
33
32
33
35
37
41
44
46
47
46
44
40
36
31
27
24
22
21
21
21
20
19
16
14
10
7
3
1
-2
-4
-5
-6
-7
-9
-10
-11
-12
-13
-14
-13
-13
-12
-11
-10
-10
-10
-10
-10
-10
-11
-12
-12
-12
-13
-13
-13
-13
-13
-13
-13
-13
-13
-12
-11
-9
-8
-6
-5
-5
-5
-6
-7
-9
-11
-13
-14
-15
-15
-14
-12
-10
-9
-8
-7
-7
-6
-7
-6
-6
-6
-6
-5
-6
-6
-7
-9
-10
-12
-13
-14
-15
-16
-17
-18
-19
-20
-22
-23
-23
-23
-22
-20
-18
-16
-15
-14
-15
-15
-17
-18
-19
-19
-19
-18
-16
-14
-12
-11
-11
-11
-12
-13
-15
-16
-18
-20
-22
-23
-25
-26
-27
-29
-29
-30
-30
-30
-30
-29
-29
-28
-27
-26
-25
-24
-24
-23
-23
-24
-24
-25
-26
-26
-26
-25
-25
-26
-27
-29
-32
-35
-37
-39
-38
-33
-25
-14
1
18
36
54
70
85
97
105
110
111
109
102
92
77
60
40
20
0
-17
-31
-41
-46
-47
-45
-40
-35
-30
-26
-23
-22
-22
-23
-24
-25
-25
-24
-23
-21
-19
-18
-16
-15
-14
-14
-14
-15
-15
-15
-15
-14
-13
-12
-11
-10
-10
-9
-9
-9
-9
-9
-9
-8
-8
-6
-5
-3
-1
1
3
4
5
6
7
8
8
9
9
10
11
12
13
15
16
17
18
19
20
20
21
21
21
22
22
22
23
23
24
24
25
25
26
26
26
25
25
25
25
25
25
25
25
24
23
20
17
13
9
5
1
-2
-4
-5
-5
-5
-5
-5
-6
-8
-10
-11
-13
-14
-14
-14
-14
-14
-14
-15
-16
-17
-18
-19
-19
-19
-18
-16
-15
-15
-14
-15
-16
-17
-18
-18
-18
-17
-16
-15
-13
-12
-12
-11
-12
-12
-12
-12
-12
-12
-12
-11
-12
-12
-13
-14
-14
-15
-15
-14
-13
-11
-10
-9
-8
-8
-10
-12
-14
-16
-18
-19
-19
-18
-15
-12
-9
-6
-4
-3
-3
-4
-6
-8
-9
-10
-11
-11
-11
-10
-9
-8
-7
-6
-6
-5
-5
-4
-4
-4
-5
-6
-7
-8
-9
-10
-11
-11
-11
-10
-10
-9
-9
-9
-9
-10
-11
-13
-14
-15
-17
-18
-19
-20
-20
-20
-20
-20
-20
-20
-19
-19
-19
-18
-18
-17
-16
-16
-15
-14
-14
-15
-17
-19
-22
-26
-28
-30
-29
-25
-18
-7
6
22
38
54
69
82
93
100
104
105
102
96
87
75
61
44
27
10
-6
-19
-29
-35
-38
-38
-35
-31
-27
-22
-18
-15
-13
-12
-12
-12
-12
-12
-11
-10
-8
-7
-5
-4
-3
-2
-2
-2
-3
-4
-5
-5
-5
-4
-3
-2
0
1
3
4
4
4
4
3
3
3
4
5
7
9
11
12
12
12
12
11
10
10
11
12
15
17
21
23
25
27
27
27
26
26
26
26
27
28
30
31
33
34
34
35
35
35
35
35
35
35
35
34
33
31
29
27
26
24
23
22
21
20
18
16
14
11
8
5
3
1
0
-1
-1
-1
-2
-3
-5
-8
-10
-13
-15
-17
-18
-18
-18
-17
-17
-16
-15
-15
-15
-15
-14
-14
-13
-13
-13
-13
-14
-15
-16
-17
-17
-16
-15
-12
-10
-8
-6
-6
-6
-7
-8
-10
-11
-12
-12
-11
-10
-9
-8
-8
-8
-9
-10
-11
-11
-11
-11
-10
-9
-8
-7
-6
-6
-6
-6
-6
-6
-7
-6
-6
-5
-5
-4
-4
-4
-4
-5
-5
-6
-7
-7
-8
-8
-8
-8
-7
-7
-6
-4
-3
-2
-1
0
1
2
2
2
1
0
-1
-2
-4
-6
-8
-10
-12
-13
-14
-14
-14
-14
-14
-13
-13
-13
-13
-13
-14
-14
-13
-13
-13
-13
-12
-12
-12
-11
-11
-11
-11
-11
-12
-14
-17
-21
-24
-27
-28
-28
-24
-18
-9
2
16
31
46
61
76
90
102
112
118
121
120
113
103
88
70
50
31
13
-2
-14
-22
-26
-28
-27
-25
-23
-20
-18
-16
-14
-13
-11
-10
-8
-6
-5
-4
-4
-3
-3
-3
-3
-3
-3
-3
-4
-4
-4
-4
-4
-3
-2
-1
0
1
2
3
3
3
2
1
1
1
2
3
5
7
10
12
14
16
17
17
18
18
18
19
19
20
20
21
21
22
22
23
24
25
27
29
31
33
35
36
37
37
36
34
33
32
31
31
31
32
33
33
33
33
32
31
28
26
23
21
19
17
16
15
14
13
12
11
10
7
5
2
-2
-5
-7
-9
-11
-12
-13
-13
-13
-13
-13
-13
-13
-13
-13
-14
-14
-14
-15
-15
-16
-16
-17
-17
-17
-17
-17
-16
-15
-15
-14
-13
-13
-12
-12
-12
-13
-13
-14
-15
-16
-16
-16
-17
-17
-17
-18
-18
-18
-18
-18
-18
-17
-17
-16
-16
-16
-16
-16
-16
-16
-16
-14
-12
-9
-6
-3
-1
-1
-2
-4
-7
-10
-13
-15
-16
-16
-15
-13
-12
-11
-10
-10
-10
-10
-10
-10
-10
-9
-9
-8
-8
-9
-10
-11
-12
-12
-13
-13
-12
-12
-12
-12
-13
-14
-16
-17
-19
-20
-21
-21
-21
-21
-21
-20
-20
-20
-20
-20
-20
-21
-21
-22
-22
-22
-22
-21
-20
-19
-18
-18
-18
-20
-22
-26
-30
-34
-36
-35
-32
-25
-14
-1
15
32
49
66
81
94
105
113
117
118
115
108
96
81
63
44
25
7
-8
-19
-27
-31
-31
-30
-27
-24
-21
-19
-17
-15
-15
-14
-14
-15
-15
-15
-15
-14
-13
-12
-10
-9
-7
-6
-6
-6
-7
-8
-8
-9
-9
-8
-7
-6
-4
-3
-2
-2
-1
0
0
1
2
2
3
3
3
3
3
4
5
6
7
9
10
11
12
12
11
11
11
12
14
17
19
22
25
27
28
28
28
28
28
28
29
31
32
33
33
33
31
29
27
25
24
23
23
24
24
24
22
20
17
13
9
5
3
1
0
-1
-1
-2
-3
-5
-8
-10
-13
-16
-18
-19
-19
-19
-19
-19
-19
-19
-19
-19
-19
-19
-19
-19
-19
-20
-20
-20
-21
-22
-22
-23
-22
-22
-21
-20
-19
-18
-17
-17
-17
-18
-18
-20
-20
-21
-21
-21
-20
-20
-19
-19
-19
-19
-20
-20
-20
-19
-18
-17
-16
-15
-15
-15
-16
-18
-19
-21
-21
-21
-19
-17
-16
-14
-13
-13
-14
-16
-17
-18
-18
-17
-16
-14
-12
-11
-10
-10
-11
-12
-13
-13
-13
-13
-11
-10
-9
-8
-8
-9
-10
-11
-12
-12
-12
-11
-10
-9
-9
-10
-11
-13
-15
-18
-20
-21
-21
-21
-20
-20
-20
-21
-22
-23
-24
-24
-24
-23
-22
-21
-20
-20
-21
-22
-23
-24
-24
-23
-22
-21
-21
-21
-23
-26
-30
-33
-35
-34
-30
-22
-10
5
22
40
58
74
88
100
109
115
118
117
111
102
89
73
54
35
16
-1
-15
-25
-32
-35
-36
-35
-32
-30
-27
-24
-21
-19
-17
-15
-14
-13
-13
-13
-13
-14
-15
-15
-15
-15
-14
-13
-12
-11
-9
-8
-7
-6
-5
-5
-5
-6
-7
-7
-7
-7
-6
-4
-1
1
4
6
7
6
5
4
3
1
1
1
2
4
6
8
9
11
12
14
15
17
18
21
23
24
26
27
27
27
27
27
27
27
28
29
30
32
33
33
34
33
32
31
29
28
27
26
26
26
25
24
23
20
17
13
9
6
3
0
-2
-3
-5
-7
-9
-11
-13
-15
-17
-18
-19
-20
-20
-19
-19
-19
-18
-18
-17
-16
-15
-13
-12
-12
-12
-12
-13
-15
-16
-17
-17
-17
-16
-14
-13
-12
-11
-11
-12
-13
-14
-15
-16
-16
-16
-15
-14
-12
-11
-11
-10
-10
-9
-9
-9
-9
-9
-9
-9
-9
-10
-10
-10
-10
-10
-9
-8
-8
-7
-8
-8
-9
-10
-11
-11
-11
-11
-10
-9
-7
-6
-5
-4
-4
-3
-3
-3
-2
-2
-2
-3
-3
-4
-5
-5
-6
-6
-6
-5
-5
-5
-5
-6
-7
-9
-10
-12
-12
-13
-12
-12
-11
-11
-11
-11
-11
-11
-12
-12
-11
-11
-11
-12
-13
-15
-17
-19
-20
-21
-20
-18
-16
-13
-11
-10
-10
-12
-15
-19
-23
-26
-27
-25
-20
-13
-2
10
23
37
51
64
76
87
95
101
104
104
100
93
82
68
52
35
18
3
-10
-19
-26
-29
-29
-28
-25
-22
-19
-17
-15
-13
-12
-11
-9
-8
-7
-5
-4
-3
-2
-2
-2
-2
-2
-2
-1
0
0
1
2
2
2
2
2
3
4
5
7
9
11
14
16
18
20
22
23
25
27
28
29
30
29
28
27
26
25
25
27
29
32
35
38
40
40
40
38
36
33
31
30
30
30
31
31
31
31
30
29
27
25
23
21
18
16
13
9
6
3
1
-1
-2
-3
-3
-3
-4
-4
-5
-7
-8
-9
-10
-11
-11
-12
-12
-12
-13
-13
-14
-14
-14
-14
-14
-14
-14
-15
-16
-17
-17
-18
-18
-18
-17
-16
-16
-15
-15
-15
-15
-15
-15
-14
-13
-11
-10
-8
-8
-8
-9
-11
-12
-14
-14
-14
-14
-13
-12
-11
-11
-11
-11
-11
-12
-12
-12
-12
-12
-11
-12
-12
-13
-13
-13
-12
-11
-9
-7
-5
-4
-3
-3
-4
-6
-8
-9
-10
-9
-8
-7
-5
-4
-2
-2
-2
-3
-5
-6
-7
-8
-8
-8
-7
-5
-5
-4
-4
-6
-7
-9
-12
-14
-15
-16
-16
-15
-14
-13
-12
-12
-12
-13
-15
-16
-18
-19
-19
-19
-19
-18
-18
-17
-16
-15
-15
-14
-13
-13
-13
-13
-15
-17
-20
-24
-27
-29
-29
-26
-20
-10
3
18
34
51
67
82
95
106
114
120
122
120
115
105
91
74
55
35
15
-2
-15
-25
-30
-31
-29
-25
-20
-15
-11
-8
-7
-7
-7
-8
-8
-8
-8
-8
-7
-6
-6
-5
-5
-5
-6
-7
-7
-8
-8
-7
-6
-5
-3
-1
0
2
3
3
3
2
2
1
0
0
-1
0
1
2
4
6
8
10
12
13
14
14
14
14
14
15
16
18
20
22
24
26
28
28
28
28
27
27
27
28
29
31
32
34
35
35
35
34
32
31
29
28
27
27
26
26
25
24
23
20
18
15
12
9
6
4
2
0
-1
-2
-4
-5
-6
-8
-9
-11
-13
-15
-16
-18
-19
-20
-20
-20
-20
-19
-18
-18
-17
-17
-17
-17
-18
-18
-19
-19
-19
-18
-17
-17
-17
-17
-18
-19
-21
-22
-23
-24
-24
-23
-22
-20
-19
-18
-18
-19
-19
-20
-21
-21
-21
-20
-18
-16
-14
-13
-13
-13
-14
-15
-17
-19
-20
-21
-22
-22
-21
-20
-19
-18
-17
-15
-14
-13
-13
-13
-13
-13
-14
-14
-15
-16
-16
-17
-16
-16
-15
-14
-13
-12
-11
-11
-11
-12
-13
-14
-15
-15
-16
-16
-15
-15
-14
-13
-12
-12
-13
-13
-14
-15
-16
-16
-16
-16
-16
-16
-16
-16
-17
-18
-18
-19
-20
-20
-20
-20
-21
-21
-22
-22
-23
-23
-23
-22
-22
-21
-20
-19
-19
-19
-20
-22
-24
-26
-29
-30
-31
-30
-27
-21
-14
-3
9
22
37
52
66
79
90
100
106
110
110
106
98
86
71
53
34
16
-1
-15
-25
-31
-34
-33
-30
-27
-23
-19
-16
-14
-12
-10
-9
-7
-6
-6
-6
-6
-6
-7
-7
-6
-5
-4
-2
-1
0
0
-1
-2
-4
-6
-6
-6
-5
-3
-2
0
1
1
0
-2
-3
-4
-4
-3
-1
2
5
7
9
10
10
9
9
10
11
13
16
20
23
26
27
27
26
25
23
23
23
24
26
29
32
34
36
36
35
33
31
29
28
28
28
29
30
31
32
31
30
28
26
23
20
17
15
12
10
9
7
5
4
3
1
0
-1
-2
-3
-4
-5
-5
-5
-6
-6
-7
-8
-10
-11
-14
-16
-17
-18
-18
-16
-14
-12
-10
-9
-9
-11
-13
-17
-20
-23
-24
-24
-23
-20
-16
-13
-10
-8
-7
-7
-9
-11
-12
-14
-15
-16
-16
-15
-15
-14
-13
-12
-11
-10
-10
-10
-10
-10
-10
-11
-12
-12
-13
-13
-13
-13
-13
-13
-13
-13
-13
-13
-12
-11
-10
-9
-8
-7
-6
-6
-7
-8
-10
-11
-13
-14
-15
-15
-15
-14
-13
-11
-8
-6
-4
-3
-3
-3
-4
-5
-6
-7
-7
-7
-6
-5
-4
-3
-3
-4
-5
-7
-9
-12
-14
-16
-17
-17
-18
-17
-17
-16
-16
-16
-16
-16
-16
-17
-17
-18
-19
-19
-19
-19
-18
-18
-18
-17
-17
-16
-16
-15
-14
-14
-14
-14
-16
-19
-22
-25
-28
-29
-27
-22
-15
-5
8
21
36
50
63
75
85
94
102
106
108
106
100
90
76
60
41
23
6
-8
-19
-25
-28
-27
-25
-22
-20
-18
-17
-16
-16
-16
-16
-15
-14
-12
-10
-8
-7
-6
-6
-6
-6
-7
-7
-7
-7
-8
-8
-8
-7
-7
-6
-5
-3
-1
1
2
3
4
3
3
1
0
0
0
0
2
4
6
9
10
12
12
12
13
13
14
15
16
18
20
22
24
25
26
26
26
26
26
27
27
28
29
30
31
32
33
34
35
36
37
37
37
36
34
33
30
28
26
24
23
21
20
18
16
14
10
7
3
0
-3
-4
-6
-6
-6
-6
-7
-7
-8
-10
-12
-14
-16
-17
-18
-18
-19
-19
-19
-19
-20
-20
-21
-22
-22
-22
-22
-22
-21
-21
-21
-21
-21
-21
-21
-22
-21
-21
-21
-20
-19
-19
-18
-17
-17
-17
-17
-17
-17
-17
-18
-19
-19
-20
-20
-21
-21
-20
-20
-19
-18
-17
-16
-16
-15
-15
-16
-16
-17
-18
-18
-18
-18
-17
-16
-15
-14
-14
-13
-13
-14
-15
-15
-16
-17
-17
-18
-18
-17
-17
-17
-16
-16
-16
-15
-15
-15
-14
-14
-13
-13
-13
-12
-12
-11
-11
-11
-10
-10
-10
-11
-11
-11
-11
-11
-10
-8
-6
-5
-3
-1
-1
-1
-2
-3
-6
-8
-11
-13
-14
-16
-16
-17
-17
-17
-17
-17
-17
-17
-18
-18
-18
-18
-18
-18
-17
-17
-16
-15
-14
-13
-13
-13
-13
-13
-14
-15
-16
-16
-17
-18
-20
-22
-23
-25
-25
-24
-20
-14
-5
7
22
39
56
73
89
102
112
119
121
119
112
102
88
72
54
37
20
6
-5
-14
-20
-23
-24
-24
-23
-22
-20
-18
-15
-13
-10
-7
-5
-3
-2
-1
-1
-1
-2
-3
-3
-4
-4
-4
-4
-3
-3
-3
-2
-1
1
2
4
5
6
7
6
6
5
4
3
3
4
6
8
11
13
15
17
18
18
18
18
18
19
21
23
25
27
29
30
30
30
29
29
28
29
30
32
34
36
38
39
39
39
38
37
35
34
34
35
36
37
38
38
38
38
37
36
34
33
31
29
27
25
22
19
17
14
12
10
8
6
5
4
2
0
-2
-3
-5
-7
-8
-8
-9
-9
-10
-10
-11
-12
-13
-13
-13
-13
-11
-10
-8
-7
-6
-6
-7
-8
-10
-11
-13
-14
-14
-14
-13
-13
-12
-11
-11
-11
-11
-12
-12
-12
-11
-11
-11
-10
-10
-11
-11
-12
-13
-13
-13
-13
-13
-12
-11
-11
-10
-10
-11
-11
-11
-12
-12
-13
-13
-14
-15
-16
-17
-17
-17
-16
-14
-12
-11
-10
-10
-11
-12
-15
-17
-19
-19
-19
-18
-16
-15
-13
-13
-13
-13
-14
-15
-15
-15
-14
-13
-11
-9
-8
-8
-8
-8
-8
-8
-7
-5
-4
-2
-1
-1
-2
-3
-5
-8
-10
-12
-12
-12
-10
-8
-6
-4
-3
-2
-3
-5
-7
-10
-12
-14
-15
-15
-15
-14
-13
-13
-13
-13
-14
-14
-15
-15
-14
-14
-13
-13
-13
-13
-14
-14
-15
-15
-14
-13
-12
-11
-10
-12
-14
-18
-21
-25
-26
-25
-21
-13
-1
13
29
45
61
76
90
101
111
117
120
120
116
108
96
81
63
44
25
8
-5
-16
-23
-26
-27
-25
-23
-20
-17
-14
-11
-10
-8
-7
-7
-7
-7
-8
-8
-8
-7
-6
-4
-2
-1
1
2
2
1
0
-1
-2
-3
-3
-2
-1
0
2
4
5
6
7
8
8
8
8
8
8
7
8
8
9
11
13
15
17
20
22
23
24
25
25
25
25
25
26
26
27
27
28
28
28
28
29
29
30
31
33
34
36
38
39
40
40
40
40
39
39
37
36
34
31
28
25
22
19
17
15
13
12
11
10
9
8
6
5
3
1
-1
-2
-4
-6
-8
-9
-10
-11
-11
-11
-11
-10
-10
-11
-11
-12
-14
-16
-18
-19
-20
-20
-20
-19
-17
-16
-15
-15
-15
-16
-17
-18
-19
-20
-20
-20
-19
-19
-18
-18
-18
-19
-19
-20
-21
-21
-21
-21
-20
-19
-18
-17
-17
-18
-19
-20
-22
-24
-25
-25
-25
-24
-23
-21
-20
-19
-19
-20
-21
-22
-23
-24
-24
-24
-24
-23
-22
-21
-20
-20
-20
-20
-21
-21
-21
-21
-21
-21
-21
-22
-22
-23
-23
-24
-24
-24
-24
-24
-24
-23
-22
-22
-21
-19
-18
-16
-15
-13
-12
-12
-12
-13
-15
-17
-19
-21
-22
-22
-21
-20
-18
-16
-15
-14
-14
-15
-16
-17
-19
-21
-22
-23
-24
-24
-25
-25
-26
-27
-28
-28
-29
-29
-28
-27
-27
-26
-26
-26
-26
-27
-28
-28
-28
-27
-26
-24
-22
-21
-21
-22
-24
-28
-32
-36
-39
-39
-37
-31
-21
-9
6
23
41
58
75
91
104
114
120
122
120
113
102
87
69
50
31
13
-2
-14
-23
-28
-31
-31
-29
-27
-23
-20
-17
-14
-11
-8
-7
-5
-4
-3
-2
-2
-2
-2
-2
-2
-3
-4
-4
-4
-4
-4
-3
-2
0
1
2
3
4
5
5
5
6
6
6
7
7
7
7
7
8
9
9
11
12
14
15
17
18
19
20
20
21
21
22
23
24
25
26
28
29
31
33
34
35
36
37
37
37
36
36
35
34
34
34
34
34
35
36
36
37
37
36
35
32
30
27
23
20
17
14
11
9
7
5
4
2
1
0
-2
-3
-4
-5
-6
-7
-8
-10
-11
-12
-13
-14
-14
-14
-14
-14
-13
-13
-13
-13
-13
-14
-14
-15
-16
-16
-16
-17
-16
-16
-16
-16
-17
-17
-17
-17
-17
-17
-17
-17
-16
-15
-15
-14
-14
-14
-15
-15
-16
-17
-18
-18
-18
-19
-19
-18
-18
-17
-17
-17
-17
-17
-17
-18
-18
-18
-18
-17
-16
-16
-15
-15
-16
-17
-19
-20
-21
-21
-21
-20
-19
-17
-15
-14
-14
-14
-15
-16
-16
-17
-18
-18
-18
-18
-18
-18
-18
-17
-16
-15
-14
-13
-11
-11
-10
-10
-11
-11
-12
-13
-13
-13
-13
-13
-13
-12
-12
-11
-10
-9
-7
-6
-6
-5
-6
-7
-9
-11
-13
-15
-17
-18
-19
-20
-20
-20
-20
-19
-19
-19
-19
-18
-18
-18
-19
-19
-20
-20
-20
-20
-20
-19
-18
-17
-16
-17
-19
-21
-24
-27
-29
-29
-26
-21
-12
0
14
31
48
65
82
97
110
120
126
128
125
118
106
90
71
51
31
12
-4
-16
-24
-29
-30
-28
-26
-22
-18
-15
-12
-10
-9
-8
-8
-7
-7
-7
-8
-8
-8
-8
-8
-8
-7
-6
-5
-3
-2
0
1
2
3
3
3
2
1
0
-1
-3
-3
-4
-4
-3
-2
0
2
4
6
8
10
11
12
13
14
14
15
16
17
18
19
20
21
23
24
25
26
27
27
28
28
29
30
31
32
33
34
35
35
35
35
35
34
33
33
33
33
33
32
32
30
29
27
24
22
20
18
16
14
13
11
9
7
4
1
-1
-3
-5
-7
-8
-8
-9
-9
-9
-9
-9
-10
-11
-12
-13
-14
-15
-16
-16
-15
-14
-13
-12
-10
-10
-10
-11
-12
-14
-15
-16
-17
-16
-15
-13
-11
-10
-9
-8
-9
-9
-10
-11
-11
-11
-10
-9
-8
-8
-7
-7
-8
-9
-10
-11
-11
-12
-11
-11
-10
-10
-9
-9
-9
-9
-10
-10
-10
-11
-11
-11
-12
-12
-12
-12
-12
-12
-11
-10
-9
-8
-8
-7
-7
-8
-8
-9
-10
-11
-11
-11
-10
-10
-9
-8
-7
-7
-6
-7
-7
-7
-8
-8
-8
-8
-8
-8
-8
-7
-5
-4
-2
0
1
1
1
-1
-3
-6
-9
-12
-14
-15
-15
-14
-13
-12
-12
-12
-13
-15
-16
-18
-18
-18
-17
-16
-15
-14
-14
-14
-14
-15
-15
-15
-14
-13
-13
-13
-14
-17
-20
-23
-26
-28
-28
-25
-21
-13
-4
6
19
31
45
58
72
85
97
107
115
118
117
111
101
85
67
47
26
7
-9
-22
-32
-37
-39
-38
-35
-31
-26
-22
-18
-15
-12
-10
-9
-8
-7
-6
-5
-4
-3
-3
-2
-3
-3
-3
-4
-4
-4
-3
-1
1
3
4
5
5
5
3
1
-1
-2
-2
-2
-1
1
3
5
6
7
8
8
8
8
8
9
10
12
13
15
17
18
20
21
21
22
22
23
23
23
24
24
25
26
27
28
30
31
33
34
34
35
35
36
36
36
35
34
33
31
29
27
24
22
20
18
17
16
15
14
12
11
9
6
4
1
-1
-3
-4
-5
-6
-7
-8
-9
-11
-12
-13
-15
-15
-16
-16
-16
-16
-17
-17
-17
-17
-17
-17
-16
-16
-15
-14
-13
-14
-15
-16
-18
-20
-21
-22
-22
-22
-20
-19
-18
-17
-17
-18
-19
-20
-21
-22
-21
-20
-19
-17
-16
-15
-14
-14
-14
-15
-15
-15
-15
-14
-13
-12
-12
-11
-11
-11
-12
-13
-14
-15
-16
-16
-17
-17
-17
-17
-16
-16
-15
-15
-14
-14
-13
-13
-12
-12
-12
-12
-12
-13
-14
-14
-15
-15
-15
-15
-14
-14
-13
-11
-10
-9
-9
-8
-8
-9
-9
-10
-11
-12
-13
-14
-14
-14
-14
-13
-13
-13
-13
-13
-14
-15
-16
-17
-18
-20
-21
-22
-22
-23
-23
-23
-23
-23
-22
-21
-20
-20
-19
-18
-18
-18
-18
-18
-19
-21
-24
-26
-28
-28
-27
-23
-15
-4
9
25
41
57
72
85
95
102
106
107
106
102
95
85
72
57
39
21
2
-14
-27
-36
-41
-41
-38
-32
-27
-21
-18
-16
-15
-16
-17
-16
-15
-13
-10
-7
-5
-3
-3
-3
-4
-4
-5
-4
-3
-2
-1
0
-1
-2
-4
-6
-8
-8
-8
-6
-3
-1
2
4
4
4
3
2
0
-1
-1
0
1
2
4
6
8
10
12
14
15
17
18
18
19
19
20
20
21
22
23
25
27
29
31
32
33
33
33
32
31
30
29
28
28
28
28
28
27
27
26
25
23
22
20
18
16
15
12
10
7
5
2
-1
-4
-7
-9
-11
-12
-13
-13
-13
-13
-12
-12
-13
-13
-14
-15
-15
-16
-16
-16
-15
-14
-14
-13
-14
-15
-16
-18
-19
-21
-22
-22
-21
-21
-20
-19
-18
-18
-18
-18
-18
-18
-18
-18
-17
-17
-17
-16
-17
-17
-18
-18
-18
-18
-18
-17
-16
-15
-14
-13
-12
-12
-12
-12
-13
-13
-13
-14
-14
-14
-14
-13
-13
-13
-13
-13
-13
-13
-13
-12
-12
-11
-10
-10
-9
-9
-10
-10
-10
-11
-11
-10
-10
-9
-8
-7
-7
-8
-9
-10
-12
-13
-14
-14
-14
-13
-11
-10
-9
-8
-8
-8
-8
-9
-9
-10
-10
-10
-10
-10
-10
-11
-12
-13
-14
-15
-16
-17
-18
-19
-19
-18
-17
-16
-15
-13
-12
-11
-10
-10
-10
-11
-13
-15
-17
-20
-23
-26
-29
-30
-30
-28
-23
-16
-7
5
19
33
49
64
79
92
104
114
120
123
123
117
108
94
77
58
39
20
4
-8
-17
-21
-22
-21
-19
-16
-13
-11
-10
-9
-9
-9
-8
-8
-8
-8
-7
-7
-7
-6
-6
-5
-5
-4
-4
-4
-3
-3
-2
-2
0
1
2
3
4
4
3
2
1
0
0
1
2
5
7
9
10
11
11
10
10
9
9
9
10
12
15
17
20
22
24
25
27
29
30
32
33
34
35
36
36
36
36
36
37
37
38
40
41
42
43
43
43
42
40
38
36
34
32
30
29
27
26
25
23
21
19
16
14
12
9
7
6
4
3
2
0
-2
-4
-6
-8
-11
-12
-14
-14
-15
-15
-14
-13
-13
-12
-12
-12
-12
-12
-12
-12
-13
-13
-13
-14
-14
-14
-15
-15
-15
-15
-15
-15
-14
-14
-13
-12
-12
-11
-10
-9
-8
-7
-7
-7
-7
-8
-10
-11
-12
-13
-14
-14
-13
-13
-12
-11
-11
-10
-10
-10
-10
-10
-9
-9
-8
-7
-7
-7
-7
-8
-9
-10
-11
-12
-13
-13
-12
-11
-10
-8
-7
-6
-5
-4
-4
-4
-4
-4
-4
-4
-4
-4
-5
-5
-5
-5
-5
-5
-5
-5
-5
-4
-5
-5
-5
-6
-6
-7
-8
-9
-10
-11
-13
-15
-16
-17
-18
-18
-17
-16
-15
-14
-13
-13
-14
-15
-17
-19
-20
-20
-19
-18
-17
-16
-16
-18
-21
-25
-29
-32
-34
-33
-29
-21
-11
3
18
35
51
67
82
96
107
115
120
122
119
112
101
86
68
49
29
11
-5
-18
-27
-32
-35
-34
-32
-28
-24
-20
-16
-13
-11
-9
-9
-10
-11
-12
-14
-14
-14
-14
-13
-11
-10
-9
-8
-8
-7
-7
-7
-6
-5
-3
-2
-1
0
0
0
-1
-2
-3
-4
-4
-4
-3
-1
0
3
5
7
8
10
11
11
12
12
12
13
13
15
16
19
21
24
27
29
32
33
34
35
35
36
35
35
35
35
35
34
34
33
33
32
31
31
30
30
29
29
28
27
25
22
20
17
13
10
7
5
3
1
0
0
0
0
-1
-1
-3
-4
-7
-9
-12
-15
-17
-19
-20
-21
-21
-21
-21
-21
-21
-22
-23
-24
-25
-25
-25
-25
-25
-25
-24
-24
-23
-23
-22
-22
-21
-21
-21
-21
-21
-21
-21
-21
-21
-21
-20
-19
-19
-19
-19
-19
-21
-22
-23
-24
-25
-25
-24
-23
-22
-20
-20
-19
-20
-21
-22
-22
-23
-22
-21
-20
-18
-17
-17
-17
-19
-21
-23
-24
-25
-25
-23
-21
-19
-17
-16
-16
-17
-19
-21
-23
-24
-24
-22
-20
-17
-15
-14
-14
-15
-17
-18
-20
-20
-19
-18
-16
-14
-13
-14
-15
-18
-21
-24
-26
-27
-26
-25
-24
-23
-22
-23
-25
-28
-31
-32
-33
-32
-30
-27
-23
-21
-20
-21
-23
-26
-29
-32
-34
-35
-35
-35
-34
-35
-36
-38
-40
-41
-39
-35
-27
-16
0
17
36
54
71
86
99
107
113
115
114
108
99
85
68
48
27
6
-13
-29
-39
-45
-46
-43
-38
-32
-27
-23
-21
-21
-21
-23
-23
-23
-22
-21
-19
-17
-15
-14
-13
-14
-15
-15
-16
-17
-17
-16
-15
-14
-12
-10
-8
-7
-5
-4
-4
-4
-5
-5
-6
-6
-5
-3
-1
1
3
4
4
4
3
2
2
3
4
6
8
11
13
15
16
16
16
16
17
17
19
20
22
23
25
26
26
27
28
29
31
33
34
36
36
36
34
32
29
26
23
20
18
17
16
15
14
13
12
10
8
6
4
2
1
-1
-2
-3
-4
-5
-7
-8
-10
-12
-14
-15
-17
-18
-19
-19
-19
-19
-20
-20
-20
-21
-21
-21
-21
-20
-19
-18
-17
-16
-16
-16
-16
-17
-17
-16
-14
-12
-10
-8
-7
-6
-7
-8
-11
-13
-16
-17
-18
-18
-17
-15
-13
-11
-10
-9
-9
-9
-9
-9
-9
-9
-8
-7
-7
-6
-6
-6
-6
-6
-5
-5
-4
-3
-2
-1
0
0
-1
-2
-2
-3
-3
-2
-2
-1
0
1
2
2
2
2
2
3
3
4
5
5
6
6
6
6
5
5
5
4
3
2
1
-1
-4
-6
-9
-11
-12
-11
-10
-7
-5
-3
-1
-1
-2
-5
-8
-12
-15
-18
-19
-19
-18
-16
-14
-11
-9
-7
-6
-6
-7
-9
-12
-15
-18
-21
-23
-23
-21
-16
-9
1
14
28
43
59
74
88
99
108
113
114
111
104
93
78
62
44
25
8
-7
-20
-29
-35
-38
-38
-36
-32
-28
-24
-21
-18
-15
-14
-13
-12
-12
-11
-11
-11
-11
-11
-10
-9
-8
-6
-5
-3
-2
-1
-1
-1
-1
-2
-2
-2
-1
0
2
3
5
6
6
6
5
4
3
2
2
2
3
4
7
9
12
15
17
20
22
23
23
23
23
23
23
23
24
25
28
30
33
35
37
38
38
38
38
38
37
38
38
39
39
40
41
41
41
41
40
39
38
36
33
30
27
24
20
17
15
13
11
10
9
8
7
5
2
-1
-4
-7
-10
-11
-12
-11
-11
-9
-8
-8
-8
-9
-10
-12
-13
-14
-15
-14
-13
-12
-11
-10
-10
-11
-12
-14
-15
-16
-16
-15
-14
-13
-11
-10
-10
-10
-11
-12
-13
-14
-14
-14
-14
-13
-12
-11
-11
-11
-11
-11
-11
-11
-11
-11
-11
-10
-10
-10
-10
-10
-10
-9
-9
-8
-7
-6
-6
-6
-6
-7
-8
-9
-9
-9
-9
-8
-7
-6
-5
-4
-3
-3
-4
-4
-4
-4
-5
-5
-4
-4
-4
-3
-3
-2
-2
-2
-2
-3
-3
-4
-6
-7
-8
-9
-9
-10
-10
-10
-9
-10
-10
-11
-12
-13
-15
-16
-17
-18
-18
-18
-18
-17
-17
-17
-17
-17
-18
-18
-19
-19
-18
-18
-18
-18
-20
-22
-24
-26
-28
-28
-25
-20
-11
2
16
33
50
67
82
96
108
117
122
125
124
120
111
98
82
62
40
19
-1
-17
-29
-36
-38
-36
-32
-26
-20
-15
-11
-9
-9
-9
-10
-10
-10
-10
-9
-7
-6
-5
-4
-3
-2
-1
-1
0
1
0
0
-1
-2
-3
-3
-3
-2
-1
1
3
4
5
6
5
5
4
3
3
4
5
6
7
9
10
11
12
12
13
14
14
16
17
18
19
20
21
22
24
25
27
29
30
32
33
33
34
34
34
35
36
37
38
39
39
38
36
34
32
30
27
26
24
23
21
20
18
16
13
10
8
5
3
2
0
-1
-2
-4
-5
-7
-9
-11
-12
-14
-14
-15
-15
-15
-14
-14
-15
-15
-17
-19
-21
-23
-24
-25
-26
-25
-25
-24
-23
-22
-22
-22
-22
-22
-22
-22
-22
-21
-21
-20
-20
-21
-21
-22
-23
-23
-24
-23
-22
-21
-20
-20
-19
-19
-19
-20
-20
-22
-23
-24
-25
-25
-25
-25
-24
-22
-20
-17
-15
-13
-11
-11
-12
-13
-15
-17
-19
-20
-20
-19
-17
-15
-13
-12
-11
-11
-12
-13
-15
-16
-17
-18
-18
-17
-16
-15
-13
-12
-10
-10
-10
-10
-11
-12
-14
-15
-16
-18
-19
-20
-20
-21
-22
-22
-23
-23
-24
-25
-26
-26
-27
-27
-27
-27
-27
-26
-26
-25
-25
-25
-25
-26
-26
-26
-25
-25
-25
-25
-27
-29
-32
-36
-39
-41
-40
-37
-30
-19
-5
12
30
49
67
83
97
108
116
120
119
113
103
89
70
49
28
7
-12
-27
-37
-42
-43
-41
-37
-31
-27
-23
-21
-21
-21
-22
-22
-22
-22
-21
-20
-19
-18
-17
-16
-15
-15
-14
-13
-13
-12
-12
-12
-12
-12
-12
-11
-10
-8
-7
-5
-4
-4
-4
-4
-4
-4
-3
-1
1
3
5
6
7
7
6
5
4
3
3
5
7
9
11
13
14
15
14
14
14
14
15
16
19
21
24
26
28
29
29
29
29
29
30
31
32
33
33
33
31
29
26
23
21
19
18
17
17
17
16
14
12
8
4
0
-4
-8
-11
-12
-13
-13
-13
-12
-12
-12
-13
-14
-16
-18
-19
-21
-23
-24
-25
-25
-25
-24
-23
-21
-20
-18
-17
-17
-17
-17
-18
-19
-20
-21
-22
-22
-22
-22
-21
-20
-19
-17
-16
-15
-15
-14
-15
-16
-17
-18
-19
-20
-20
-20
-19
-17
-16
-14
-13
-12
-12
-12
-12
-12
-12
-13
-13
-13
-13
-13
-13
-13
-12
-12
-12
-11
-11
-12
-12
-13
-13
-13
-12
-10
-8
-6
-4
-3
-3
-4
-5
-7
-9
-10
-10
-10
-8
-6
-4
-2
-2
-2
-3
-5
-8
-9
-11
-11
-11
-11
-10
-10
-10
-11
-12
-14
-15
-16
-17
-17
-17
-17
-16
-16
-16
-16
-17
-17
-17
-17
-16
-15
-14
-13
-13
-13
-14
-16
-19
-23
-26
-29
-31
-30
-27
-21
-11
1
17
34
52
71
89
105
119
128
134
135
130
121
108
91
72
53
33
15
-1
-13
-22
-27
-29
-29
-27
-24
-21
-18
-16
-14
-12
-11
-10
-9
-7
-6
-5
-4
-3
-3
-2
-3
-3
-3
-3
-2
-2
-1
0
1
1
1
2
2
2
2
2
2
3
3
3
3
3
3
3
4
5
7
10
12
15
16
17
18
17
17
16
16
16
17
19
22
24
27
29
31
33
34
34
35
35
36
37
38
39
39
40
40
40
40
40
40
40
40
40
39
37
36
34
31
29
27
24
22
20
18
16
13
11
8
6
3
1
0
-1
-3
-4
-5
-7
-8
-10
-12
-14
-15
-16
-16
-15
-14
-12
-11
-9
-8
-7
-7
-8
-9
-10
-12
-13
-14
-14
-14
-14
-13
-12
-11
-10
-9
-8
-7
-7
-7
-8
-8
-8
-9
-9
-8
-8
-8
-8
-8
-8
-8
-9
-10
-10
-11
-11
-10
-10
-9
-8
-7
-6
-5
-5
-5
-6
-6
-6
-7
-7
-7
-7
-7
-6
-5
-3
-2
-1
0
0
-1
-2
-3
-5
-6
-7
-7
-7
-5
-4
-3
-2
-2
-2
-3
-5
-6
-7
-7
-7
-7
-7
-6
-7
-7
-8
-9
-10
-12
-13
-14
-15
-17
-18
-20
-21
-22
-22
-22
-21
-20
-18
-17
-17
-17
-18
-21
-23
-25
-27
-28
-27
-25
-23
-20
-19
-20
-22
-27
-32
-36
-39
-39
-36
-27
-14
2
21
41
61
80
96
109
118
124
126
124
117
106
92
74
54
34
14
-4
-19
-29
-36
-38
-37
-35
-32
-28
-26
-24
-22
-22
-21
-20
-19
-18
-16
-15
-14
-13
-13
-13
-14
-14
-15
-15
-15
-15
-16
-16
-16
-16
-15
-14
-12
-10
-9
-7
-6
-6
-6
-6
-6
-6
-4
-3
-1
1
3
4
5
4
3
2
2
2
3
5
7
10
13
15
17
18
18
19
19
19
20
21
23
24
25
26
27
28
28
28
29
30
31
32
33
34
34
33
32
30
27
25
23
21
19
18
16
14
11
8
5
1
-2
-5
-6
-8
-8
-9
-9
-10
-11
-13
-15
-18
-20
-21
-22
-22
-21
-19
-18
-17
-17
-18
-19
-21
-22
-23
-23
-23
-22
-20
-18
-16
-15
-14
-14
-14
-14
-15
-16
-17
-18
-19
-20
-21
-21
-22
-21
-21
-20
-18
-17
-15
-14
-12
-11
-11
-10
-11
-11
-12
-13
-14
-16
-17
-18
-19
-19
-19
-17
-16
-14
-13
-12
-12
-12
-14
-15
-16
-17
-16
-15
-12
-9
-6
-3
-2
-2
-3
-5
-7
-10
-12
-13
-13
-12
-10
-8
-6
-5
-4
-4
-5
-5
-6
-7
-7
-7
-7
-7
-7
-8
-10
-12
-14
-16
-18
-19
-19
-20
-19
-19
-18
-18
-17
-17
-17
-17
-17
-17
-17
-17
-17
-18
-18
-19
-19
-19
-19
-18
-18
-18
-19
-20
-23
-25
-28
-29
-28
-23
-15
-3
13
31
51
70
89
105
119
129
135
137
135
129
118
102
84
63
40
19
-1
-17
-28
-33
-35
-32
-27
-21
-16
-12
-9
-8
-9
-10
-10
-11
-10
-8
-6
-4
-3
-1
-1
-1
-1
-2
-2
-3
-3
-3
-4
-4
-4
-5
-6
-6
-6
-5
-4
-2
0
3
5
7
8
8
8
7
6
5
5
6
8
10
13
16
18
20
22
23
23
23
22
22
21
21
21
22
23
25
27
29
32
34
36
38
39
39
39
38
37
36
35
34
34
34
34
34
34
34
33
31
29
26
23
19
17
14
12
10
9
7
5
3
1
-2
-4
-6
-7
-8
-9
-9
-9
-10
-10
-11
-13
-14
-15
-16
-17
-17
-16
-16
-16
-16
-16
-17
-18
-19
-19
-20
-19
-19
-18
-16
-15
-15
-14
-14
-14
-14
-14
-14
-14
-14
-14
-14
-14
-14
-14
-14
-14
-13
-13
-13
-13
-14
-15
-16
-16
-17
-17
-17
-16
-16
-15
-15
-15
-16
-17
-18
-19
-19
-19
-18
-16
-15
-14
-13
-12
-11
-11
-10
-10
-9
-9
-8
-8
-7
-7
-8
-9
-10
-10
-11
-11
-11
-10
-9
-9
-8
-8
-8
-8
-8
-9
-9
-9
-9
-10
-10
-11
-12
-14
-16
-17
-19
-20
-20
-20
-20
-19
-19
-18
-18
-18
-19
-19
-20
-20
-21
-21
-22
-22
-22
-22
-22
-22
-21
-21
-20
-20
-20
-21
-22
-24
-26
-29
-31
-32
-31
-28
-22
-13
-1
14
32
50
70
88
105
118
127
132
131
125
114
99
81
61
40
20
2
-13
-24
-32
-36
-37
-35
-31
-27
-22
-17
-13
-10
-9
-8
-9
-10
-12
-13
-14
-15
-15
-15
-14
-13
-12
-12
-11
-11
-11
-11
-11
-10
-9
-8
-6
-5
-4
-4
-4
-4
-4
-4
-4
-2
-1
1
3
4
5
5
5
5
5
4
4
5
5
6
8
9
11
13
14
16
18
20
21
22
23
25
26
27
28
30
31
32
33
34
34
34
33
33
32
31
31
30
30
30
30
29
28
27
24
22
19
15
12
10
7
6
4
3
3
1
0
-2
-4
-7
-9
-12
-14
-15
-16
-16
-16
-16
-16
-16
-17
-18
-19
-20
-20
-20
-20
-19
-18
-18
-18
-19
-20
-22
-23
-23
-23
-21
-19
-17
-15
-13
-12
-12
-13
-14
-15
-15
-15
-14
-13
-12
-11
-11
-12
-14
-16
-18
-19
-19
-17
-15
-12
-10
-8
-8
-8
-10
-13
-15
-18
-19
-19
-19
-17
-15
-13
-12
-11
-11
-11
-12
-12
-13
-13
-13
-12
-11
-10
-8
-8
-7
-7
-7
-8
-9
-10
-11
-12
-13
-13
-14
-14
-14
-14
-13
-12
-11
-10
-8
-7
-6
-6
-6
-8
-10
-13
-16
-18
-20
-21
-20
-19
-18
-16
-15
-15
-16
-17
-19
-20
-22
-23
-23
-23
-22
-21
-21
-20
-20
-20
-21
-21
-21
-21
-21
-21
-21
-23
-25
-27
-30
-32
-32
-30
-25
-17
-6
7
22
39
56
73
88
102
113
121
124
123
116
104
87
66
44
21
1
-17
-30
-38
-42
-41
-38
-34
-29
-25
-22
-20
-19
-19
-19
-19
-19
-19
-18
-17
-16
-16
-15
-13
-12
-10
-9
-7
-6
-5
-4
-4
-4
-4
-4
-4
-5
-5
-5
-5
-4
-4
-3
-2
-1
1
3
5
7
8
9
10
10
10
10
10
10
11
12
13
15
16
17
19
20
21
23
25
27
29
31
33
35
36
37
37
37
37
37
37
37
38
38
38
38
38
38
37
37
36
35
34
32
30
28
25
22
18
15
12
9
8
6
6
6
5
5
3
1
-1
-5
-8
-11
-14
-16
-17
-17
-16
-15
-13
-11
-9
-8
-7
-8
-8
-10
-11
-13
-14
-15
-16
-17
-17
-16
-15
-14
-13
-12
-11
-10
-10
-10
-10
-11
-11
-12
-13
-14
-14
-14
-14
-14
-14
-13
-12
-11
-10
-9
-9
-9
-9
-10
-11
-12
-13
-13
-13
-13
-12
-11
-10
-9
-8
-7
-7
-8
-8
-9
-10
-11
-11
-12
-12
-11
-10
-9
-8
-6
-5
-4
-4
-4
-4
-4
-5
-5
-5
-5
-4
-4
-4
-4
-4
-5
-5
-6
-6
-7
-7
-7
-7
-7
-7
-8
-9
-10
-11
-12
-12
-12
-11
-10
-10
-9
-9
-9
-10
-11
-13
-14
-15
-16
-17
-16
-15
-14
-13
-12
-12
-12
-13
-14
-15
-16
-16
-17
-17
-16
-16
-17
-18
-21
-24
-27
-30
-31
-30
-25
-16
-4
11
28
47
64
81
95
107
116
122
125
125
121
113
101
85
66
46
26
6
-10
-22
-30
-33
-32
-29
-24
-18
-14
-10
-8
-7
-7
-7
-8
-8
-8
-7
-7
-7
-8
-8
-9
-9
-10
-10
-9
-9
-8
-7
-6
-6
-5
-5
-5
-5
-5
-5
-4
-3
-1
0
2
3
5
6
7
8
9
10
11
12
12
13
13
13
12
12
13
14
16
18
21
24
27
28
30
30
29
28
28
27
27
28
30
31
33
34
35
35
35
35
34
33
33
32
31
31
30
29
28
26
25
23
22
20
18
15
12
9
5
2
-1
-4
-6
-7
-8
-8
-8
-8
-8
-9
-10
-12
-13
-15
-16
-17
-18
-18
-18
-17
-17
-17
-17
-16
-16
-16
-15
-15
-15
-15
-16
-16
-17
-18
-18
-19
-18
-18
-17
-15
-14
-14
-14
-14
-15
-16
-17
-18
-19
-19
-19
-18
-18
-17
-16
-16
-16
-16
-16
-16
-16
-16
-16
-16
-16
-16
-16
-16
-15
-14
-13
-12
-11
-10
-10
-11
-11
-13
-14
-15
-16
-16
-15
-15
-13
-12
-10
-9
-8
-7
-7
-7
-8
-9
-11
-13
-15
-16
-16
-15
-14
-12
-10
-8
-7
-6
-7
-7
-8
-9
-9
-8
-7
-6
-6
-6
-7
-10
-13
-17
-21
-23
-24
-23
-21
-18
-15
-13
-11
-11
-12
-14
-16
-18
-20
-22
-23
-23
-23
-22
-21
-20
-19
-18
-17
-18
-20
-23
-27
-32
-38
-42
-43
-42
-36
-27
-13
3
21
40
58
75
90
103
113
120
124
124
119
110
97
80
60
40
21
3
-10
-20
-26
-29
-30
-29
-27
-25
-24
-23
-23
-23
-23
-22
-22
-22
-21
-20
-19
-18
-16
-15
-13
-11
-9
-8
-7
-7
-8
-8
-9
-10
-10
-10
-10
-10
-9
-9
-8
-7
-6
-5
-3
-2
-1
1
1
2
2
2
2
2
2
2
2
3
3
4
6
7
9
11
13
15
18
20
22
24
25
25
25
24
23
22
22
22
23
24
26
29
31
33
35
36
36
35
33
30
27
24
21
18
16
14
13
11
10
9
7
6
5
3
1
0
-2
-4
-6
-9
-11
-14
-16
-17
-18
-18
-17
-17
-16
-15
-15
-16
-17
-18
-20
-21
-22
-22
-22
-21
-20
-18
-18
-17
-17
-18
-18
-19
-19
-19
-19
-18
-18
-17
-16
-16
-16
-16
-15
-15
-15
-14
-13
-13
-12
-12
-13
-14
-15
-17
-18
-18
-18
-17
-16
-14
-13
-12
-12
-12
-13
-13
-14
-13
-13
-12
-11
-9
-8
-8
-9
-10
-11
-13
-14
-14
-15
-14
-13
-13
-12
-12
-12
-12
-12
-13
-13
-12
-11
-9
-8
-6
-5
-5
-5
-6
-7
-8
-9
-10
-10
-10
-9
-7
-6
-4
-2
0
0
0
-1
-4
-7
-10
-14
-16
-18
-19
-18
-16
-14
-12
-11
-10
-11
-12
-15
-17
-19
-20
-20
-18
-16
-14
-12
-10
-10
-11
-12
-14
-16
-17
-18
-19
-19
-20
-22
-24
-26
-27
-28
-25
-20
-10
3
19
37
56
75
92
107
120
130
136
139
137
131
120
105
86
65
42
19
0
-16
-26
-32
-32
-29
-24
-19
-14
-11
-10
-11
-12
-14
-15
-15
-14
-11
-8
-5
-3
-1
0
0
0
-1
-3
-4
-5
-5
-5
-4
-3
-2
-1
0
1
1
1
0
-1
-1
-1
0
1
3
5
7
8
9
9
8
8
9
10
12
15
19
23
27
29
31
31
30
29
27
25
25
25
26
28
30
32
34
35
36
36
36
36
36
36
37
38
39
40
40
39
38
37
35
33
31
29
28
27
25
23
20
17
14
11
8
5
3
1
0
-2
-3
-5
-6
-8
-9
-11
-12
-12
-12
-13
-13
-14
-15
-16
-18
-20
-21
-21
-21
-20
-18
-17
-15
-14
-13
-13
-14
-14
-15
-16
-16
-16
-16
-16
-16
-17
-17
-17
-18
-18
-18
-18
-17
-16
-14
-13
-12
-11
-11
-11
-11
-13
-14
-15
-16
-17
-17
-17
-16
-14
-13
-11
-10
-9
-9
-9
-10
-11
-12
-12
-12
-12
-11
-10
-9
-9
-9
-9
-10
-10
-11
-11
-11
-10
-9
-8
-7
-6
-6
-7
-8
-9
-11
-12
-12
-11
-10
-7
-5
-2
0
1
1
-1
-4
-7
-10
-13
-16
-17
-18
-17
-16
-15
-14
-13
-13
-13
-14
-15
-17
-18
-19
-21
-22
-22
-23
-22
-22
-21
-19
-18
-18
-18
-18
-19
-19
-20
-19
-19
-18
-17
-17
-18
-21
-24
-28
-30
-31
-28
-21
-10
4
21
39
57
73
87
98
106
111
113
113
109
101
90
76
58
38
18
-1
-17
-29
-37
-39
-38
-34
-28
-23
-18
-15
-13
-13
-13
-13
-13
-13
-12
-11
-10
-9
-8
-7
-7
-6
-5
-4
-3
-2
-2
-2
-3
-4
-6
-7
-8
-8
-7
-6
-4
-1
0
2
2
2
2
1
0
0
0
1
3
4
6
7
8
8
9
9
9
10
12
14
17
20
23
24
25
26
25
24
23
22
23
24
25
28
30
32
33
34
34
33
31
29
28
26
25
24
22
21
20
19
18
17
15
14
12
10
8
6
5
3
1
-1
-2
-4
-6
-8
-10
-12
-14
-16
-18
-19
-21
-21
-22
-22
-22
-22
-23
-23
-23
-23
-23
-23
-23
-22
-22
-21
-21
-21
-21
-22
-22
-23
-24
-25
-25
-25
-24
-22
-20
-18
-15
-13
-12
-11
-11
-12
-13
-14
-16
-17
-17
-17
-17
-17
-16
-16
-15
-15
-15
-14
-14
-14
-14
-14
-15
-16
-18
-19
-20
-20
-20
-19
-18
-16
-14
-12
-11
-11
-12
-13
-14
-15
-15
-15
-15
-14
-13
-12
-11
-11
-12
-12
-12
-12
-11
-10
-9
-7
-7
-6
-7
-8
-10
-13
-15
-16
-16
-15
-13
-11
-8
-6
-5
-5
-7
-9
-11
-14
-16
-17
-17
-17
-16
-15
-14
-14
-15
-15
-16
-17
-17
-17
-16
-15
-14
-13
-13
-14
-16
-17
-19
-21
-22
-22
-22
-21
-20
-19
-19
-20
-23
-25
-28
-30
-31
-29
-25
-17
-6
8
25
43
62
81
99
114
126
133
136
133
126
114
99
81
61
42
23
7
-7
-17
-24
-28
-29
-28
-27
-25
-23
-21
-19
-17
-16
-14
-13
-11
-9
-7
-6
-5
-6
-6
-7
-9
-10
-10
-10
-9
-8
-6
-4
-3
-2
-2
-3
-3
-4
-4
-4
-4
-3
-3
-2
-1
0
1
1
2
2
3
3
4
5
7
8
9
11
12
13
14
15
16
16
17
18
20
22
24
26
29
31
32
34
34
35
35
35
35
36
36
36
36
35
34
34
33
32
31
30
29
29
28
26
25
22
20
17
14
11
8
6
4
3
2
0
-1
-3
-5
-6
-8
-9
-11
-12
-14
-15
-17
-19
-21
-22
-23
-23
-22
-21
-19
-17
-16
-14
-14
-14
-14
-15
-16
-17
-18
-19
-19
-19
-18
-18
-19
-19
-19
-19
-19
-18
-17
-15
-13
-11
-9
-8
-8
-9
-10
-12
-14
-15
-16
-16
-16
-15
-14
-12
-11
-11
-10
-10
-10
-10
-10
-11
-11
-12
-13
-14
-15
-15
-16
-16
-16
-16
-16
-16
-15
-14
-13
-11
-10
-7
-5
-3
-2
-2
-2
-4
-6
-9
-12
-14
-15
-14
-13
-11
-8
-6
-3
-1
1
1
1
0
-1
-3
-6
-8
-11
-13
-15
-17
-18
-19
-19
-18
-17
-17
-16
-16
-16
-16
-16
-16
-16
-15
-15
-14
-14
-14
-14
-14
-15
-15
-15
-15
-15
-15
-14
-14
-14
-15
-17
-19
-23
-25
-27
-27
-24
-18
-9
4
19
36
54
72
90
105
118
127
133
134
130
122
109
92
72
51
31
12
-4
-15
-22
-25
-25
-23
-20
-17
-14
-13
-13
-13
-14
-15
-16
-16
-15
-14
-13
-11
-10
-8
-7
-6
-5
-5
-5
-5
-6
-7
-7
-7
-7
-6
-5
-3
-1
0
1
1
2
2
2
2
3
4
5
7
7
8
7
6
5
4
3
4
6
9
13
17
20
22
24
24
24
23
22
22
23
24
26
29
32
34
37
38
39
40
40
39
39
38
36
35
34
32
30
29
27
26
25
25
25
24
23
22
20
17
14
10
6
2
-2
-5
-7
-9
-10
-11
-11
-12
-12
-12
-13
-13
-14
-14
-14
-15
-15
-16
-17
-18
-19
-19
-20
-20
-20
-20
-20
-19
-19
-19
-20
-20
-20
-21
-21
-21
-20
-20
-19
-19
-18
-17
-17
-16
-16
-15
-14
-14
-13
-13
-13
-13
-14
-15
-16
-16
-17
-17
-17
-16
-16
-16
-16
-16
-16
-16
-15
-14
-13
-13
-12
-11
-11
-12
-12
-13
-14
-15
-15
-15
-15
-14
-14
-13
-13
-13
-13
-13
-13
-14
-14
-14
-13
-13
-12
-11
-10
-9
-7
-6
-4
-4
-3
-4
-5
-6
-7
-9
-10
-11
-11
-11
-11
-11
-11
-11
-11
-12
-12
-13
-13
-14
-14
-15
-15
-16
-17
-18
-19
-19
-20
-20
-21
-21
-20
-20
-20
-19
-19
-18
-16
-15
-15
-15
-16
-19
-22
-26
-30
-33
-35
-33
-28
-20
-9
6
22
39
56
73
88
101
112
121
126
128
126
120
109
95
77
57
37
19
2
-10
-19
-24
-25
-25
-23
-20
-18
-17
-17
-17
-17
-16
-15
-14
-11
-8
-5
-3
-1
0
0
0
-2
-4
-6
-8
-9
-10
-9
-8
-6
-3
0
2
4
6
6
6
5
3
2
1
1
1
2
4
6
8
10
12
13
14
15
15
15
15
15
16
17
19
21
24
27
29
31
32
32
33
32
32
32
33
34
35
37
38
40
40
40
40
39
38
37
36
35
35
34
33
32
31
30
29
27
25
23
21
19
17
15
13
11
9
6
4
2
0
-2
-4
-5
-6
-6
-6
-7
-7
-7
-8
-9
-10
-12
-13
-13
-14
-13
-12
-11
-10
-9
-8
-9
-10
-12
-14
-15
-17
-17
-17
-16
-15
-13
-12
-11
-10
-10
-10
-11
-11
-11
-12
-12
-12
-13
-13
-12
-12
-11
-10
-8
-7
-6
-5
-5
-5
-6
-7
-8
-9
-9
-9
-7
-6
-4
-2
-1
-1
-1
-2
-3
-4
-4
-4
-4
-3
-2
-2
-1
-1
-1
-2
-2
-2
-2
-2
-1
0
1
1
2
2
2
1
1
0
0
0
1
2
3
4
4
5
5
4
4
3
1
0
-2
-3
-4
-5
-6
-7
-6
-6
-5
-4
-3
-2
-2
-1
-1
-1
-2
-2
-2
-3
-3
-3
-3
-3
-3
-2
