-1
-4
-5
-5
-4
-2
0
1
1
0
-3
-7
-11
-14
-15
-14
-12
-8
-5
-2
-1
-1
-3
-6
-8
-9
-9
-7
-4
0
3
5
4
1
-3
-8
-13
-17
-18
-17
-15
-11
-7
-3
-2
-2
-4
-8
-12
-15
-17
-17
-16
-14
-12
-11
-11
-12
-15
-17
-19
-19
-17
-14
-9
-5
-1
1
2
1
-1
-3
-3
-2
1
5
9
13
14
14
11
7
2
-2
-5
-6
-5
-4
-2
-1
-1
-3
-6
-10
-13
-16
-17
-17
-16
-13
-11
-8
-5
-4
-3
-3
-4
-6
-8
-11
-13
-15
-16
-15
-12
-8
-4
1
6
9
11
12
12
10
8
7
5
5
5
5
5
4
4
3
1
0
-2
-3
-5
-7
-8
-10
-11
-11
-10
-8
-5
-1
3
7
9
9
7
3
-3
-9
-15
-20
-24
-25
-25
-24
-23
-22
-22
-22
-23
-24
-24
-24
-23
-20
-17
-14
-11
-10
-9
-10
-13
-15
-18
-20
-21
-21
-19
-17
-14
-11
-8
-6
-5
-5
-5
-6
-8
-10
-11
-11
-10
-5
3
16
34
56
80
106
129
149
161
165
160
147
128
104
78
53
31
13
-1
-10
-15
-16
-16
-13
-9
-5
-1
2
5
5
4
1
-4
-9
-14
-18
-21
-22
-21
-19
-16
-14
-12
-12
-13
-14
-17
-19
-20
-21
-21
-20
-18
-16
-14
-12
-10
-8
-5
-2
0
3
5
5
4
1
-3
-8
-13
-17
-19
-19
-17
-12
-6
0
5
9
11
11
9
5
0
-4
-7
-9
-9
-8
-6
-3
-1
2
3
4
3
2
0
-2
-3
-2
-1
2
5
10
15
19
22
25
26
27
26
26
25
25
26
27
28
30
32
34
37
40
43
48
52
57
62
67
70
72
73
73
73
72
72
73
74
75
76
77
76
73
69
64
59
53
48
44
41
38
36
34
31
27
23
18
14
10
7
4
2
0
-3
-6
-9
-11
-14
-15
-15
-14
-11
-8
-6
-4
-4
-6
-9
-13
-18
-21
-23
-24
-23
-21
-18
-15
-13
-11
-11
-12
-13
-16
-18
-19
-21
-21
-22
-22
-22
-22
-23
-24
-24
-24
-24
-22
-20
-16
-13
-10
-7
-6
-6
-8
-11
-14
-17
-20
-21
-21
-21
-19
-18
-17
-17
-17
-17
-18
-18
-19
-19
-19
-19
-20
-21
-22
-23
-24
-24
-24
-23
-22
-20
-19
-18
-18
-18
-18
-18
-18
-18
-18
-18
-19
-20
-21
-23
-25
-26
-25
-22
-18
-12
-6
0
4
5
5
2
-3
-8
-14
-18
-21
-23
-23
-22
-21
-20
-19
-19
-19
-20
-20
-21
-21
-21
-21
-20
-20
-19
-19
-19
-18
-18
-18
-19
-19
-20
-21
-21
-21
-21
-20
-19
-17
-16
-14
-14
-14
-16
-18
-22
-25
-28
-30
-31
-30
-27
-23
-18
-13
-9
-6
-3
-3
-3
-4
-5
-6
-6
-5
-4
-2
1
3
5
6
7
7
6
5
3
1
-1
-4
-7
-9
-12
-13
-14
-14
-15
-15
-16
-17
-18
-19
-20
-21
-21
-20
-19
-18
-18
-18
-18
-20
-21
-23
-23
-23
-22
-20
-18
-16
-16
-16
-18
-21
-25
-27
-29
-28
-26
-23
-19
-15
-12
-10
-10
-12
-15
-18
-22
-25
-27
-29
-30
-30
-31
-33
-33
-34
-32
-27
-19
-6
13
36
63
93
122
149
172
187
195
195
186
170
149
123
97
70
46
24
7
-5
-14
-18
-19
-19
-17
-14
-13
-12
-12
-14
-15
-17
-19
-20
-20
-18
-16
-13
-10
-7
-5
-3
-3
-4
-6
-8
-12
-15
-19
-22
-24
-25
-24
-23
-21
-18
-14
-12
-9
-8
-8
-9
-10
-12
-13
-14
-15
-14
-12
-9
-7
-5
-3
-3
-4
-6
-10
-13
-16
-18
-19
-17
-15
-11
-7
-4
-2
-2
-4
-6
-9
-11
-11
-10
-7
-2
3
7
10
12
11
9
6
3
2
3
6
10
16
21
26
29
30
29
28
25
23
22
23
26
29
34
40
45
49
53
56
58
60
61
63
65
67
69
71
73
74
74
73
71
68
64
59
55
50
47
43
41
39
38
36
35
33
31
28
25
21
17
13
10
6
3
0
-2
-4
-6
-8
-9
-10
-10
-11
-11
-11
-12
-12
-12
-13
-14
-14
-15
-16
-16
-16
-15
-13
-10
-8
-5
-4
-3
-4
-6
-9
-12
-15
-18
-18
-18
-16
-14
-11
-9
-7
-7
-8
-10
-12
-14
-15
-16
-16
-15
-15
-15
-16
-18
-20
-22
-23
-24
-23
-21
-18
-14
-10
-6
-3
-1
0
-1
-2
-3
-5
-8
-10
-12
-14
-16
-17
-18
-18
-18
-17
-16
-14
-13
-12
-11
-12
-13
-14
-15
-16
-17
-17
-16
-15
-14
-13
-13
-14
-15
-17
-18
-18
-17
-14
-11
-7
-3
1
2
2
1
-2
-5
-8
-10
-12
-12
-13
-13
-14
-16
-18
-20
-21
-22
-21
-19
-16
-12
-7
-4
-1
0
-1
-3
-5
-8
-10
-12
-13
-13
-13
-13
-13
-14
-14
-14
-15
-15
-15
-14
-13
-12
-11
-9
-7
-5
-4
-3
-2
-3
-4
-6
-9
-11
-14
-15
-15
-15
-13
-11
-10
-8
-7
-7
-8
-9
-11
-11
-12
-12
-11
-11
-11
-11
-12
-13
-15
-16
-17
-17
-16
-15
-13
-10
-8
-5
-3
0
2
4
5
6
7
7
7
6
5
4
3
3
2
2
1
-1
-3
-6
-9
-11
-13
-14
-14
-13
-11
-8
-7
-6
-7
-9
-12
-16
-19
-22
-23
-23
-22
-21
-19
-17
-16
-16
-15
-15
-15
-15
-15
-15
-15
-16
-18
-20
-22
-24
-24
-24
-22
-19
-15
-11
-8
-6
-5
-6
-9
-11
-14
-17
-19
-19
-19
-18
-17
-16
-16
-16
-16
-18
-19
-21
-22
-21
-17
-10
2
19
40
65
94
123
150
174
191
200
201
191
174
150
121
91
62
37
16
1
-8
-12
-14
-13
-11
-11
-11
-13
-15
-17
-19
-18
-16
-13
-10
-6
-4
-3
-4
-7
-11
-15
-19
-21
-22
-20
-17
-12
-8
-4
-1
0
0
-3
-6
-10
-13
-16
-18
-18
-18
-17
-16
-16
-15
-14
-14
-14
-13
-11
-10
-8
-6
-5
-4
-5
-6
-8
-10
-12
-13
-13
-12
-9
-6
-3
1
3
5
5
4
3
0
-2
-4
-5
-4
-3
0
4
9
13
17
19
20
19
16
13
10
9
9
11
15
21
27
33
37
39
39
37
34
32
30
30
32
37
43
50
57
63
69
72
75
75
75
73
71
69
67
65
63
62
62
61
60
58
56
52
48
43
37
33
29
26
25
24
24
24
24
22
19
15
10
4
-2
-7
-11
-14
-15
-16
-15
-14
-12
-11
-10
-9
-9
-9
-10
-12
-14
-15
-17
-18
-18
-18
-16
-14
-12
-9
-8
-8
-9
-11
-14
-17
-19
-21
-20
-19
-16
-14
-11
-10
-10
-12
-14
-17
-20
-21
-21
-19
-18
-16
-15
-15
-17
-21
-24
-28
-30
-30
-28
-24
-19
-13
-9
-6
-6
-7
-10
-13
-16
-18
-19
-19
-17
-16
-14
-12
-12
-12
-14
-15
-17
-19
-20
-20
-21
-21
-22
-22
-23
-23
-24
-23
-22
-20
-17
-14
-12
-10
-10
-11
-14
-17
-20
-22
-24
-24
-22
-21
-19
-18
-18
-19
-21
-23
-24
-24
-23
-20
-16
-11
-7
-5
-5
-6
-9
-12
-15
-18
-19
-19
-18
-17
-16
-16
-16
-17
-19
-20
-20
-20
-19
-18
-17
-17
-18
-19
-21
-23
-24
-25
-24
-22
-20
-19
-17
-17
-17
-18
-18
-17
-15
-13
-10
-8
-7
-7
-9
-13
-18
-22
-26
-27
-26
-24
-20
-15
-11
-8
-7
-8
-10
-14
-17
-20
-21
-21
-19
-17
-13
-10
-7
-4
-3
-1
0
2
4
6
9
12
14
15
16
15
12
9
5
1
-3
-6
-9
-11
-13
-15
-16
-17
-18
-18
-18
-17
-16
-14
-12
-10
-8
-8
-8
-10
-12
-15
-17
-19
-20
-19
-17
-13
-9
-5
-1
2
3
2
-1
-5
-10
-16
-22
-28
-32
-35
-36
-36
-35
-33
-30
-26
-23
-21
-18
-17
-16
-16
-15
-15
-14
-12
-11
-10
-10
-11
-14
-17
-21
-25
-26
-24
-18
-6
11
33
58
84
110
133
151
164
170
169
162
149
130
108
84
59
35
13
-5
-19
-28
-32
-33
-30
-26
-21
-16
-12
-9
-8
-8
-8
-8
-9
-9
-9
-9
-9
-10
-10
-11
-12
-12
-13
-13
-14
-15
-15
-16
-17
-17
-17
-17
-16
-15
-14
-13
-12
-11
-11
-11
-11
-11
-11
-10
-9
-8
-7
-7
-7
-8
-8
-9
-9
-8
-7
-5
-3
0
1
2
2
2
2
2
2
2
3
3
4
3
2
1
-1
-2
-3
-2
0
3
7
12
16
19
22
23
24
23
22
21
19
18
17
17
18
19
21
25
29
34
40
46
51
55
58
60
60
60
60
60
61
63
65
68
71
73
76
77
77
76
75
72
69
65
62
59
56
55
53
52
51
50
48
45
41
36
30
24
17
10
5
0
-3
-4
-4
-2
1
3
6
7
7
5
1
-4
-9
-13
-17
-19
-20
-19
-17
-16
-15
-14
-15
-16
-17
-17
-16
-14
-11
-9
-7
-7
-8
-11
-16
-21
-25
-27
-26
-23
-18
-12
-5
0
2
2
-1
-6
-11
-17
-20
-22
-21
-19
-15
-11
-8
-7
-7
-10
-13
-16
-19
-20
-19
-18
-15
-12
-10
-9
-9
-10
-12
-14
-15
-16
-16
-15
-13
-12
-12
-12
-13
-16
-18
-20
-22
-23
-23
-22
-22
-21
-20
-20
-19
-19
-17
-16
-14
-12
-10
-9
-8
-8
-9
-10
-12
-13
-15
-17
-20
-23
-26
-28
-31
-32
-31
-28
-24
-18
-11
-5
-1
1
0
-3
-7
-11
-14
-14
-13
-9
-5
-1
2
2
0
-4
-10
-16
-22
-25
-26
-25
-23
-20
-17
-15
-15
-17
-19
-22
-25
-27
-27
-26
-23
-20
-17
-14
-13
-13
-15
-17
-20
-23
-25
-25
-24
-21
-16
-11
-7
-4
-2
-1
-2
-4
-6
-7
-8
-6
-3
0
4
7
10
10
9
6
3
-1
-4
-7
-10
-11
-12
-12
-12
-11
-11
-11
-11
-12
-13
-14
-16
-18
-20
-23
-24
-26
-27
-27
-26
-25
-24
-23
-22
-21
-20
-20
-20
-20
-19
-19
-18
-17
-16
-15
-14
-13
-12
-12
-12
-13
-13
-14
-16
-18
-20
-23
-26
-28
-31
-32
-32
-31
-30
-27
-23
-20
-16
-14
-13
-13
-14
-16
-18
-19
-16
-9
4
23
47
76
107
136
161
179
188
187
177
158
134
107
79
54
32
13
-1
-11
-18
-22
-23
-21
-18
-14
-9
-4
0
3
3
2
-1
-5
-10
-13
-16
-18
-19
-20
-21
-21
-22
-23
-24
-24
-22
-19
-16
-11
-7
-4
-2
-2
-2
-4
-7
-9
-11
-13
-14
-14
-14
-14
-12
-11
-9
-6
-4
-1
1
3
4
3
1
-3
-7
-12
-16
-19
-20
-19
-16
-12
-6
0
5
8
10
9
7
4
1
-2
-3
-3
-1
2
5
9
11
13
14
15
14
14
14
15
16
18
21
24
26
29
31
33
35
36
38
39
40
41
43
46
49
52
56
60
63
65
66
66
64
63
61
59
59
59
61
63
66
68
69
68
66
63
59
54
50
45
41
37
33
28
24
20
16
12
9
7
5
5
5
5
4
4
3
1
-2
-4
-7
-10
-12
-13
-13
-13
-12
-11
-10
-10
-10
-11
-13
-15
-17
-19
-20
-20
-20
-19
-18
-17
-17
-18
-20
-22
-23
-23
-23
-21
-18
-15
-12
-10
-9
-9
-10
-11
-13
-14
-15
-15
-14
-14
-14
-15
-17
-19
-21
-22
-22
-21
-19
-17
-14
-12
-11
-11
-13
-14
-16
-17
-17
-16
-14
-12
-10
-9
-9
-10
-12
-15
-18
-20
-21
-22
-21
-20
-18
-16
-14
-12
-10
-9
-8
-8
-8
-10
-12
-15
-17
-19
-19
-18
-15
-11
-7
-4
-2
-3
-5
-10
-16
-22
-27
-30
-30
-29
-26
-21
-17
-13
-11
-10
-10
-10
-11
-11
-10
-8
-7
-6
-5
-6
-8
-11
-14
-17
-19
-21
-20
-19
-17
-15
-13
-12
-11
-10
-10
-10
-9
-7
-6
-5
-5
-6
-8
-11
-15
-20
-24
-27
-29
-29
-28
-26
-23
-19
-16
-13
-11
-11
-12
-14
-17
-20
-23
-24
-24
-22
-18
-14
-9
-5
-3
-1
-2
-3
-5
-7
-8
-8
-7
-6
-5
-4
-3
-3
-4
-5
-6
-6
-5
-3
0
3
6
7
8
6
3
-1
-5
-10
-14
-17
-19
-20
-20
-19
-18
-17
-16
-17
-18
-21
-24
-27
-30
-32
-33
-31
-28
-24
-18
-13
-9
-7
-7
-10
-14
-19
-24
-27
-29
-29
-26
-23
-20
-17
-15
-16
-17
-19
-21
-22
-22
-22
-20
-19
-19
-21
-23
-27
-31
-33
-33
-29
-20
-6
14
38
66
95
123
148
168
182
188
186
176
160
138
113
87
61
39
20
6
-3
-8
-10
-9
-8
-6
-4
-3
-3
-4
-6
-9
-11
-14
-16
-18
-20
-20
-20
-18
-16
-14
-11
-9
-8
-7
-8
-9
-11
-13
-15
-16
-16
-16
-14
-12
-9
-8
-7
-6
-7
-7
-8
-9
-9
-8
-6
-5
-3
-1
-1
-1
-2
-4
-7
-10
-13
-15
-17
-18
-19
-19
-18
-17
-15
-13
-11
-8
-5
-3
-1
2
3
5
6
7
7
8
8
8
7
7
7
8
9
10
13
16
19
21
22
22
22
20
19
19
20
22
26
31
37
42
46
48
49
48
47
46
46
48
50
53
56
59
62
64
66
67
68
69
70
71
72
71
70
67
64
60
56
51
47
43
38
34
31
27
24
22
21
20
19
18
16
13
8
2
-5
-12
-18
-23
-25
-25
-23
-19
-14
-10
-7
-5
-5
-6
-8
-11
-13
-15
-17
-17
-17
-16
-15
-14
-13
-13
-13
-14
-15
-16
-17
-17
-17
-16
-14
-13
-12
-11
-11
-11
-12
-14
-15
-16
-16
-15
-14
-13
-12
-11
-11
-13
-14
-16
-18
-20
-20
-20
-19
-18
-16
-15
-15
-15
-15
-16
-16
-15
-14
-12
-11
-9
-9
-11
-13
-17
-22
-26
-29
-29
-28
-24
-19
-12
-6
-1
2
3
1
-2
-6
-10
-14
-18
-20
-22
-24
-26
-27
-28
-28
-27
-25
-21
-17
-12
-7
-2
0
1
0
-3
-7
-12
-17
-22
-25
-28
-29
-29
-28
-27
-26
-23
-21
-19
-16
-14
-11
-10
-9
-8
-9
-10
-12
-13
-15
-16
-17
-17
-17
-17
-16
-16
-16
-15
-15
-14
-14
-13
-13
-13
-13
-13
-13
-13
-13
-13
-14
-14
-15
-17
-19
-21
-23
-24
-25
-24
-22
-20
-18
-16
-15
-15
-15
-16
-16
-16
-14
-11
-8
-6
-4
-5
-8
-12
-17
-23
-26
-28
-27
-23
-18
-11
-6
-2
1
2
1
0
-1
-2
-1
0
1
3
4
4
4
2
1
-2
-4
-7
-9
-11
-12
-13
-13
-12
-12
-11
-10
-9
-10
-11
-12
-14
-15
-16
-16
-15
-14
-12
-10
-9
-9
-10
-12
-15
-18
-20
-22
-22
-21
-19
-16
-14
-11
-9
-9
-10
-12
-16
-20
-24
-28
-32
-34
-35
-34
-32
-29
-25
-21
-16
-13
-11
-10
-10
-12
-15
-18
-22
-25
-27
-28
-27
-23
-15
-5
10
28
50
75
101
127
150
170
183
189
187
177
160
137
112
84
58
35
15
0
-10
-16
-19
-19
-18
-17
-16
-15
-14
-14
-13
-12
-11
-10
-8
-7
-6
-5
-5
-5
-6
-7
-8
-9
-10
-11
-13
-15
-17
-20
-22
-23
-23
-22
-21
-18
-15
-11
-9
-7
-5
-5
-4
-5
-5
-6
-7
-9
-11
-13
-15
-16
-16
-15
-13
-9
-6
-2
1
3
3
2
0
-3
-5
-6
-6
-5
-3
0
2
3
3
3
2
1
0
0
1
3
6
10
14
18
21
22
23
22
22
20
19
19
19
20
21
23
25
26
28
30
32
35
38
41
45
49
53
56
58
59
59
58
57
57
57
59
61
64
68
71
72
73
71
69
66
63
61
60
60
60
61
60
58
55
49
42
34
27
21
16
13
11
9
8
6
3
-1
-6
-10
-14
-17
-18
-18
-16
-14
-12
-11
-10
-11
-11
-12
-13
-13
-12
-11
-10
-9
-9
-10
-11
-13
-15
-16
-17
-16
-15
-12
-10
-8
-7
-7
-7
-9
-11
-14
-16
-18
-19
-20
-20
-19
-19
-18
-17
-16
-15
-14
-13
-12
-11
-9
-8
-7
-6
-6
-6
-7
-8
-9
-11
-12
-14
-15
-15
-15
-15
-14
-13
-12
-12
-11
-11
-11
-11
-12
-13
-14
-14
-15
-16
-17
-18
-18
-18
-17
-16
-14
-12
-11
-9
-9
-9
-10
-11
-13
-14
-15
-16
-15
-14
-13
-12
-11
-12
-13
-15
-17
-19
-20
-20
-19
-17
-15
-11
-9
-7
-6
-7
-9
-13
-17
-20
-23
-24
-23
-20
-15
-10
-6
-2
-1
-2
-4
-8
-12
-16
-18
-19
-18
-17
-16
-16
-16
-17
-19
-20
-21
-20
-18
-14
-10
-6
-3
-3
-5
-9
-14
-19
-23
-26
-26
-24
-21
-16
-12
-9
-7
-7
-8
-10
-12
-14
-15
-15
-15
-15
-15
-15
-16
-17
-18
-19
-20
-20
-19
-17
-14
-12
-9
-7
-4
-3
-1
1
2
4
5
6
7
8
8
8
7
5
3
1
-1
-3
-6
-8
-10
-13
-15
-18
-20
-21
-22
-21
-19
-16
-13
-9
-6
-4
-4
-6
-10
-16
-22
-27
-31
-33
-33
-31
-27
-22
-18
-15
-12
-11
-10
-11
-11
-11
-11
-11
-12
-12
-14
-15
-17
-19
-21
-21
-21
-20
-19
-18
-18
-18
-19
-20
-21
-22
-23
-24
-24
-23
-23
-22
-20
-17
-11
-2
12
30
52
77
103
128
149
164
173
172
164
148
127
101
74
48
24
4
-10
-20
-25
-25
-23
-20
-16
-13
-11
-10
-9
-10
-11
-11
-12
-13
-13
-14
-16
-17
-18
-18
-17
-15
-13
-9
-6
-3
-2
-3
-6
-10
-14
-18
-20
-21
-20
-17
-13
-9
-6
-3
-2
-2
-2
-3
-5
-6
-7
-8
-9
-10
-10
-11
-10
-10
-8
-7
-6
-5
-5
-5
-7
-10
-12
-14
-15
-15
-14
-11
-7
-3
0
3
4
5
5
5
5
5
5
6
7
8
9
10
10
11
11
12
13
15
17
19
21
23
24
26
27
30
33
37
42
47
53
57
60
62
62
62
60
59
58
57
57
58
60
61
63
64
65
65
65
65
64
64
63
61
59
56
52
48
44
40
36
34
32
30
29
28
26
23
20
16
12
8
4
2
0
-1
-2
-3
-4
-6
-9
-12
-15
-17
-17
-16
-14
-11
-8
-5
-5
-6
-9
-14
-19
-24
-27
-27
-26
-22
-17
-12
-8
-6
-6
-8
-12
-16
-20
-23
-25
-24
-23
-20
-17
-14
-12
-11
-11
-11
-13
-15
-17
-19
-22
-23
-25
-25
-24
-23
-20
-17
-14
-10
-8
-6
-6
-8
-11
-15
-20
-24
-26
-27
-26
-23
-19
-15
-11
-8
-6
-6
-8
-11
-14
-16
-18
-19
-19
-18
-17
-16
-14
-14
-14
-14
-14
-15
-15
-14
-14
-13
-13
-12
-12
-13
-14
-15
-17
-18
-19
-19
-20
-20
-20
-20
-20
-21
-21
-22
-22
-22
-21
-19
-17
-14
-11
-8
-6
-6
-7
-9
-12
-15
-19
-22
-23
-24
-23
-21
-18
-16
-14
-13
-13
-15
-17
-19
-21
-22
-22
-22
-20
-18
-17
-17
-18
-19
-22
-24
-25
-25
-23
-19
-15
-10
-7
-5
-5
-6
-9
-13
-16
-17
-17
-15
-11
-7
-2
2
4
4
4
2
0
-1
-2
-2
-1
-1
0
-1
-2
-4
-6
-9
-11
-13
-13
-13
-12
-11
-10
-10
-11
-12
-14
-16
-18
-20
-22
-23
-25
-26
-26
-26
-24
-23
-21
-19
-17
-16
-16
-17
-18
-20
-22
-22
-22
-21
-19
-17
-16
-16
-18
-21
-25
-28
-30
-31
-29
-25
-19
-12
-6
-1
2
3
1
-3
-8
-13
-19
-24
-28
-31
-33
-33
-30
-25
-15
-1
18
42
69
98
126
150
168
177
177
167
149
124
97
69
43
22
7
-3
-9
-10
-10
-9
-9
-9
-11
-13
-15
-17
-18
-18
-18
-16
-15
-14
-14
-14
-16
-17
-19
-20
-20
-19
-17
-15
-12
-9
-6
-4
-4
-4
-5
-7
-8
-10
-11
-12
-13
-13
-13
-12
-11
-10
-8
-7
-5
-4
-4
-4
-5
-6
-8
-9
-10
-10
-9
-8
-6
-3
-1
0
2
2
3
3
3
2
1
-1
-3
-5
-6
-6
-5
-3
0
4
8
12
15
17
18
17
16
15
14
14
14
16
18
20
23
25
28
31
34
37
41
46
49
53
55
56
55
54
53
52
52
53
55
57
60
63
66
67
68
68
69
69
70
71
72
73
73
72
69
65
60
55
50
46
43
41
40
40
38
36
33
29
24
19
13
9
5
2
0
-2
-4
-5
-6
-6
-7
-7
-8
-8
-7
-7
-8
-8
-9
-10
-11
-12
-14
-15
-16
-16
-16
-16
-15
-14
-13
-13
-13
-13
-14
-15
-17
-19
-20
-21
-21
-21
-20
-20
-19
-18
-18
-18
-18
-18
-17
-16
-15
-13
-11
-10
-9
-9
-10
-12
-14
-15
-17
-17
-17
-15
-13
-11
-9
-8
-7
-8
-9
-10
-11
-12
-12
-12
-12
-12
-12
-13
-14
-14
-15
-14
-13
-12
-11
-10
-10
-12
-15
-19
-23
-25
-27
-26
-23
-19
-14
-10
-8
-8
-10
-14
-18
-22
-23
-23
-20
-16
-11
-8
-6
-7
-10
-14
-19
-23
-26
-26
-24
-21
-16
-12
-9
-7
-7
-9
-11
-13
-15
-16
-15
-14
-13
-12
-11
-11
-12
-13
-14
-14
-15
-15
-15
-15
-16
-18
-20
-22
-24
-25
-25
-24
-22
-18
-14
-11
-7
-6
-5
-6
-8
-11
-14
-18
-20
-22
-22
-21
-19
-15
-10
-5
0
4
7
8
8
8
6
4
3
2
2
2
3
4
5
5
4
2
-2
-6
-11
-15
-19
-22
-23
-23
-23
-22
-20
-19
-17
-16
-16
-15
-15
-15
-15
-14
-14
-13
-13
-12
-12
-11
-11
-12
-12
-13
-15
-16
-18
-20
-22
-23
-24
-23
-22
-21
-19
-17
-16
-15
-16
-17
-19
-21
-23
-23
-23
-22
-19
-16
-14
-12
-11
-12
-15
-20
-25
-29
-31
-31
-27
-19
-7
11
32
56
82
109
134
156
173
183
185
179
165
144
118
90
62
37
18
4
-4
-7
-7
-5
-4
-4
-6
-10
-15
-21
-24
-26
-25
-22
-17
-11
-6
-2
0
-1
-2
-5
-9
-12
-14
-15
-15
-15
-13
-12
-11
-9
-9
-8
-8
-8
-8
-8
-8
-8
-8
-7
-7
-6
-6
-6
-6
-6
-7
-7
-8
-8
-9
-9
-9
-9
-9
-8
-7
-6
-5
-4
-2
-1
-1
-1
-1
-2
-3
-4
-4
-4
-4
-2
0
2
5
7
10
12
13
15
16
16
16
16
15
14
13
12
11
12
13
15
19
23
27
31
35
38
41
43
44
46
47
48
49
51
52
53
54
55
55
55
56
57
58
60
62
64
66
68
68
68
67
64
62
59
56
53
50
48
47
45
43
40
36
32
27
22
17
12
8
5
3
2
1
0
-1
-3
-5
-8
-11
-13
-15
-16
-16
-15
-13
-11
-10
-10
-10
-12
-14
-16
-18
-19
-18
-17
-15
-13
-12
-11
-11
-13
-15
-17
-19
-21
-22
-22
-23
-23
-23
-23
-24
-24
-25
-24
-23
-20
-18
-15
-12
-11
-10
-10
-11
-12
-14
-16
-18
-19
-21
-22
-23
-23
-23
-21
-19
-16
-13
-10
-7
-6
-6
-8
-10
-13
-16
-19
-20
-21
-20
-19
-17
-16
-15
-14
-13
-13
-12
-12
-12
-11
-11
-12
-13
-14
-16
-18
-19
-20
-20
-19
-18
-16
-15
-14
-14
-15
-16
-17
-18
-19
-19
-19
-18
-18
-18
-18
-18
-19
-21
-22
-23
-23
-23
-21
-18
-15
-12
-9
-7
-7
-8
-11
-15
-20
-24
-28
-30
-31
-29
-26
-22
-18
-14
-11
-9
-9
-11
-13
-15
-17
-17
-17
-16
-15
-14
-14
-15
-16
-18
-20
-22
-22
-21
-18
-15
-12
-10
-9
-10
-12
-15
-18
-20
-20
-18
-14
-8
-1
6
12
15
17
17
15
12
9
6
3
-1
-4
-7
-10
-13
-16
-17
-18
-18
-17
-16
-15
-15
-15
-17
-20
-23
-26
-29
-30
-31
-30
-27
-24
-20
-16
-12
-9
-7
-6
-5
-6
-7
-9
-11
-13
-15
-16
-16
-16
-16
-16
-16
-17
-19
-21
-24
-26
-29
-30
-31
-30
-29
-29
-28
-29
-30
-32
-34
-35
-34
-32
-28
-22
-15
-8
-2
4
10
18
28
43
63
88
114
141
164
181
188
184
171
148
121
92
64
40
21
7
-2
-8
-13
-16
-20
-23
-25
-27
-26
-25
-21
-17
-13
-9
-6
-4
-3
-2
-2
-3
-4
-6
-8
-12
-15
-18
-21
-22
-21
-19
-16
-13
-10
-9
-9
-10
-12
-15
-17
-18
-18
-18
-17
-16
-16
-17
-18
-19
-20
-19
-17
-14
-9
-5
-2
0
0
-3
-6
-9
-12
-13
-12
-9
-4
1
5
7
8
6
3
0
-4
-6
-7
-6
-4
-2
0
2
3
3
3
4
5
8
12
16
21
24
26
26
25
23
21
20
20
22
26
31
36
41
45
47
47
47
46
46
46
47
50
53
56
59
61
63
63
64
64
64
65
66
68
69
70
70
70
68
65
61
57
53
48
44
40
37
33
30
26
23
19
16
13
9
6
4
2
0
-2
-3
-4
-5
-6
-7
-9
-10
-11
-11
-11
-11
-11
-11
-11
-12
-13
-15
-17
-19
-21
-22
-22
-21
-20
-18
-16
-14
-13
-13
-13
-15
-16
-17
-17
-16
-15
-12
-10
-7
-6
-5
-5
-6
-7
-10
-12
-14
-15
-17
-18
-18
-19
-20
-20
-21
-20
-19
-17
-15
-12
-10
-8
-8
-8
-10
-13
-15
-18
-19
-19
-17
-15
-12
-9
-7
-6
-7
-8
-11
-14
-17
-19
-21
-22
-22
-21
-21
-20
-19
-19
-18
-17
-16
-15
-14
-13
-11
-10
-10
-9
-10
-10
-10
-11
-11
-10
-10
-9
-9
-10
-11
-13
-16
-18
-20
-21
-20
-17
-13
-9
-6
-4
-5
-7
-12
-17
-23
-27
-29
-29
-26
-23
-19
-16
-13
-13
-14
-15
-17
-18
-18
-17
-16
-14
-12
-11
-11
-11
-13
-15
-17
-19
-20
-20
-18
-16
-14
-11
-8
-5
-3
-1
0
1
2
2
2
3
4
4
5
5
4
2
0
-3
-6
-8
-10
-11
-12
-11
-11
-10
-11
-12
-14
-16
-19
-21
-21
-21
-19
-17
-14
-12
-11
-11
-12
-14
-16
-17
-18
-18
-18
-17
-18
-18
-19
-21
-22
-23
-23
-22
-20
-18
-17
-16
-17
-19
-21
-24
-26
-26
-25
-23
-19
-15
-12
-10
-9
-9
-11
-14
-17
-20
-22
-24
-25
-25
-23
-18
-10
2
18
38
61
86
110
132
149
160
163
159
146
127
103
77
49
23
0
-19
-32
-40
-43
-41
-36
-30
-23
-16
-11
-8
-6
-5
-5
-6
-7
-8
-10
-12
-14
-17
-19
-21
-22
-21
-18
-15
-10
-5
-2
0
-1
-4
-9
-15
-20
-23
-24
-23
-19
-13
-6
0
4
5
4
1
-4
-9
-12
-14
-14
-12
-9
-6
-4
-3
-4
-6
-9
-11
-13
-12
-9
-6
-2
2
3
3
1
-3
-6
-9
-9
-8
-4
2
8
14
18
20
20
19
17
15
13
13
15
17
19
21
23
24
24
25
26
29
32
36
40
44
47
48
47
45
43
41
41
43
48
55
63
72
80
85
87
85
81
74
66
59
54
51
51
53
56
60
63
66
66
64
61
56
50
44
39
33
28
24
20
16
13
10
7
5
4
3
3
3
3
2
1
0
-2
-5
-8
-11
-14
-16
-18
-19
-19
-19
-19
-20
-20
-20
-21
-22
-23
-23
-22
-21
-19
-16
-13
-11
-9
-7
-7
-9
-11
-13
-16
-18
-20
-21
-20
-20
-18
-17
-17
-16
-17
-18
-19
-19
-19
-19
-18
-16
-15
-13
-13
-13
-14
-15
-17
-19
-20
-21
-22
-21
-21
-20
-19
-17
-16
-15
-14
-13
-12
-11
-10
-9
-9
-10
-10
-12
-13
-15
-16
-17
-18
-17
-17
-16
-15
-14
-14
-14
-14
-15
-16
-17
-18
-18
-17
-17
-16
-16
-17
-17
-18
-20
-21
-21
-21
-21
-19
-18
-16
-16
-17
-18
-20
-22
-23
-23
-22
-19
-16
-12
-8
-6
-5
-6
-9
-12
-16
-20
-22
-23
-22
-20
-18
-17
-16
-17
-18
-20
-22
-22
-21
-18
-13
-7
-1
3
6
7
5
1
-3
-7
-10
-11
-10
-7
-3
0
3
4
3
1
-2
-5
-8
-10
-12
-13
-15
-17
-19
-22
-25
-28
-30
-31
-30
-28
-25
-21
-17
-13
-10
-7
-6
-6
-7
-9
-12
-15
-18
-20
-22
-23
-23
-22
-20
-18
-17
-17
-17
-18
-19
-21
-22
-22
-22
-20
-18
-16
-15
-15
-17
-19
-21
-24
-25
-26
-25
-23
-21
-19
-19
-20
-22
-24
-24
-22
-15
-2
16
39
65
93
120
142
158
166
165
157
141
119
94
68
43
21
3
-11
-19
-24
-24
-22
-18
-13
-9
-5
-3
-2
-3
-5
-7
-10
-13
-16
-19
-21
-23
-24
-23
-22
-19
-15
-10
-6
-1
1
2
1
-2
-7
-12
-18
-22
-25
-26
-25
-22
-18
-14
-11
-8
-5
-4
-4
-5
-6
-8
-9
-11
-13
-14
-14
-13
-10
-7
-3
1
4
5
4
1
-3
-8
-12
-14
-14
-11
-6
0
6
11
14
14
12
8
4
-1
-4
-5
-4
-1
2
6
9
12
14
15
16
18
20
22
25
28
30
32
33
33
33
33
34
36
38
40
44
47
50
53
55
58
59
61
62
63
63
63
63
62
61
61
60
60
60
61
61
61
61
60
59
57
55
52
49
45
41
36
31
25
18
12
7
2
-1
-3
-4
-5
-5
-5
-6
-7
-8
-10
-13
-14
-16
-17
-17
-17
-16
-16
-15
-15
-16
-16
-17
-17
-17
-16
-15
-13
-11
-9
-7
-6
-5
-6
-7
-8
-11
-13
-15
-17
-19
-19
-19
-19
-17
-16
-15
-14
-13
-13
-13
-13
-14
-15
-16
-17
-18
-18
-18
-17
-16
-15
-15
-14
-13
-13
-12
-11
-11
-11
-10
-11
-11
-12
-13
-15
-16
-17
-17
-17
-15
-14
-11
-10
-9
-9
-10
-13
-17
-21
-24
-27
-29
-29
-28
-26
-23
-20
-18
-16
-15
-16
-17
-18
-19
-19
-18
-15
-11
-7
-4
-1
1
1
-1
-4
-7
-10
-11
-11
-11
-9
-8
-9
-10
-14
-19
-24
-29
-33
-34
-33
-30
-26
-22
-18
-16
-15
-16
-17
-18
-17
-16
-13
-10
-7
-5
-4
-6
-10
-15
-21
-25
-28
-29
-28
-25
-22
-17
-14
-10
-8
-6
-5
-5
-4
-3
-2
-1
0
1
2
3
4
5
6
6
6
4
1
-2
-6
-9
-12
-14
-15
-15
-14
-13
-12
-12
-13
-14
-16
-17
-18
-18
-17
-17
-16
-16
-17
-18
-21
-23
-25
-25
-24
-21
-17
-13
-10
-9
-10
-13
-17
-23
-27
-31
-32
-30
-26
-21
-15
-10
-6
-5
-6
-9
-13
-17
-22
-25
-26
-27
-26
-24
-22
-21
-20
-20
-22
-23
-25
-26
-26
-23
-18
-9
4
21
41
64
88
113
136
156
171
179
180
172
157
135
108
79
51
26
6
-9
-17
-20
-19
-17
-13
-10
-9
-9
-10
-11
-11
-11
-10
-9
-7
-6
-5
-6
-7
-9
-11
-13
-13
-14
-13
-13
-13
-14
-14
-15
-15
-15
-15
-13
-12
-10
-8
-7
-7
-8
-9
-10
-11
-13
-13
-14
-14
-14
-14
-13
-13
-12
-11
-10
-9
-7
-5
-2
0
2
3
4
4
2
-1
-4
-8
-12
-15
-16
-15
-13
-9
-4
2
6
10
12
13
12
10
8
7
6
7
8
10
12
13
14
15
15
16
18
20
25
30
35
40
44
46
47
46
44
42
40
39
40
41
44
47
50
53
55
56
56
57
57
58
59
61
62
63
64
65
64
63
61
59
55
50
45
40
35
31
27
24
23
22
21
20
19
16
12
7
1
-5
-10
-14
-17
-18
-19
-19
-19
-19
-19
-19
-17
-15
-12
-8
-5
-2
-1
-2
-4
-8
-12
-16
-19
-20
-18
-16
-13
-10
-8
-8
-9
-12
-15
-17
-18
-18
-17
-15
-13
-12
-13
-15
-17
-21
-23
-25
-25
-23
-20
-17
-14
-11
-10
-9
-10
-10
-10
-10
-9
-8
-7
-7
-8
-10
-13
-16
-18
-19
-19
-16
-13
-10
-7
-5
-4
-6
-8
-12
-15
-18
-20
-21
-22
-22
-22
-21
-21
-21
-21
-21
-20
-18
-17
-15
-13
-11
-9
-8
-7
-7
-8
-9
-10
-12
-14
-15
-16
-17
-16
-15
-14
-12
-10
-8
-7
-7
-8
-9
-11
-14
-16
-19
-21
-22
-23
-23
-23
-23
-22
-22
-22
-22
-22
-22
-23
-22
-21
-19
-17
-14
-10
-8
-6
-5
-6
-8
-11
-14
-17
-19
-19
-19
-18
-16
-15
-13
-12
-11
-11
-11
-11
-10
-9
-7
-5
-2
0
1
3
3
4
3
3
2
1
0
-2
-5
-8
-11
-14
-17
-19
-19
-19
-18
-16
-15
-14
-14
-14
-16
-17
-19
-19
-19
-18
-17
-15
-13
-13
-13
-14
-16
-18
-19
-21
-21
-21
-21
-20
-20
-20
-21
-23
-25
-26
-26
-25
-24
-21
-18
-16
-15
-15
-16
-19
-22
-25
-28
-30
-30
-29
-27
-25
-24
-23
-23
-23
-22
-20
-15
-6
8
28
52
79
107
134
158
175
185
187
180
166
146
122
96
70
45
23
5
-9
-19
-24
-26
-25
-22
-18
-14
-10
-8
-7
-7
-7
-9
-10
-10
-11
-10
-10
-10
-11
-12
-13
-15
-16
-18
-18
-17
-16
-14
-12
-10
-9
-9
-11
-13
-15
-17
-19
-20
-19
-18
-15
-13
-10
-8
-6
-6
-6
-6
-7
-9
-9
-9
-9
-8
-7
-6
-5
-4
-5
-5
-6
-8
-9
-9
-8
-6
-3
1
5
8
10
11
10
8
5
2
0
-2
-2
-1
1
3
5
7
9
11
13
15
17
20
23
26
28
29
30
30
30
31
33
36
41
47
52
56
58
59
57
54
51
49
48
49
52
56
60
64
68
70
71
72
71
71
71
71
70
68
66
62
57
51
45
40
35
32
29
27
26
25
23
21
17
13
9
4
0
-4
-8
-11
-13
-15
-15
-16
-15
-15
-13
-12
-11
-11
-10
-11
-12
-13
-14
-16
-17
-17
-17
-16
-15
-13
-12
-11
-10
-10
-10
-11
-12
-13
-15
-17
-20
-23
-26
-29
-31
-32
-32
-29
-25
-19
-12
-6
0
3
5
4
1
-3
-8
-12
-15
-17
-17
-16
-15
-13
-12
-12
-12
-13
-15
-16
-17
-19
-20
-21
-22
-23
-23
-24
-23
-22
-19
-16
-13
-10
-8
-7
-8
-10
-13
-17
-20
-23
-24
-23
-20
-16
-12
-7
-4
-1
-1
-3
-6
-11
-16
-22
-26
-30
-31
-31
-28
-25
-20
-16
-12
-9
-8
-8
-8
-10
-12
-14
-16
-17
-18
-18
-17
-16
-15
-13
-12
-12
-11
-12
-12
-13
-14
-14
-14
-14
-13
-13
-13
-13
-15
-17
-21
-25
-28
-30
-32
-31
-29
-26
-22
-19
-17
-16
-16
-18
-19
-21
-21
-21
-20
-18
-16
-14
-13
-12
-12
-12
-11
-10
-8
-6
-3
-1
1
1
0
-2
-5
-7
-8
-8
-6
-4
-1
1
3
4
4
3
1
-1
-4
-6
-9
-11
-13
-15
-18
-20
-21
-22
-22
-21
-20
-19
-18
-17
-17
-18
-20
-21
-23
-23
-23
-22
-20
-19
-18
-18
-18
-20
-22
-25
-27
-28
-27
-26
-23
-20
-17
-15
-13
-12
-13
-14
-16
-19
-21
-24
-27
-29
-31
-32
-33
-33
-33
-32
-31
-29
-26
-22
-16
-7
7
26
49
77
107
137
163
184
197
200
194
178
155
128
99
72
48
28
12
0
-8
-14
-18
-20
-21
-21
-20
-18
-16
-14
-12
-12
-13
-16
-19
-22
-24
-26
-26
-24
-22
-20
-19
-18
-18
-18
-18
-17
-15
-11
-7
-3
1
3
4
3
0
-3
-6
-9
-11
-11
-10
-9
-8
-7
-7
-7
-8
-9
-9
-10
-10
-9
-9
-9
-8
-9
-9
-9
-9
-8
-7
-5
-2
0
3
5
6
6
6
4
3
1
-1
-2
-2
-1
1
3
6
9
12
15
16
17
17
16
15
15
14
15
17
20
23
28
33
38
43
48
52
56
58
59
60
60
60
59
59
59
59
60
61
61
62
62
62
61
60
60
60
61
63
66
69
71
72
71
68
63
57
50
45
40
37
36
35
34
33
29
24
17
9
2
-4
-7
-8
-7
-5
-4
-3
-4
-7
-11
-15
-18
-19
-19
-16
-12
-7
-3
-1
-1
-3
-6
-9
-12
-12
-12
-10
-7
-5
-4
-5
-7
-10
-13
-16
-17
-17
-16
-14
-12
-10
-9
-9
-11
-12
-13
-14
-14
-13
-12
-10
-8
-8
-7
-8
-10
-11
-13
-15
-16
-16
-16
-15
-15
-14
-14
-15
-15
-16
-16
-15
-14
-12
-9
-6
-4
-2
-2
-3
-6
-9
-13
-17
-20
-21
-21
-19
-17
-14
-11
-10
-9
-10
-12
-14
-16
-18
-18
-18
-16
-14
-11
-9
-7
-6
-6
-8
-10
-13
-16
-19
-21
-22
-22
-21
-20
-17
-16
-14
-14
-16
-18
-21
-25
-27
-28
-28
-26
-22
-17
-13
-9
-7
-7
-9
-12
-17
-21
-25
-27
-27
-26
-24
-21
-18
-16
-14
-13
-13
-14
-15
-15
-16
-17
-18
-19
-20
-21
-22
-22
-22
-21
-19
-17
-15
-12
-10
-9
-8
-7
-7
-6
-5
-4
-3
-2
-1
0
1
1
1
0
-1
-3
-5
-6
-8
-10
-11
-12
-13
-14
-14
-14
-14
-15
-16
-18
-21
-23
-26
-28
-29
-29
-28
-26
-23
-21
-19
-18
-19
-21
-24
-26
-28
-29
-29
-28
-26
-24
-23
-21
-21
-21
-22
-22
-23
-22
-21
-20
-18
-17
-17
-17
-17
-18
-18
-17
-16
-15
-14
-14
-16
-19
-23
-27
-31
-32
-31
-26
-16
-1
17
39
63
88
111
132
148
158
160
154
140
119
93
64
35
9
-11
-25
-31
-32
-29
-23
-18
-14
-13
-14
-17
-21
-24
-25
-24
-22
-18
-15
-12
-10
-11
-12
-13
-14
-15
-14
-13
-12
-12
-13
-15
-18
-21
-23
-24
-23
-20
-16
-12
-8
-6
-6
-7
-9
-10
-11
-11
-10
-9
-7
-7
-7
-8
-10
-11
-12
-11
-8
-4
0
4
6
7
5
3
0
-3
-4
-4
-3
-1
-1
-2
-4
-8
-12
-15
-16
-14
-10
-3
4
11
17
20
20
18
14
10
8
7
9
13
18
24
30
35
39
42
44
46
48
49
50
51
52
52
51
51
51
51
52
54
57
60
63
66
69
71
73
74
76
77
79
79
79
77
73
69
63
57
52
47
44
41
39
36
33
29
24
18
12
8
4
3
3
4
6
7
7
5
1
-4
-8
-11
-13
-12
-10
-8
-5
-5
-6
-10
-16
-23
-28
-32
-33
-31
-27
-22
-16
-12
-10
-9
-11
-13
-16
-18
-19
-19
-18
-16
-15
-14
-13
-12
-12
-12
-13
-13
-12
-12
-13
-13
-14
-14
-14
-14
-14
-13
-12
-11
-10
-10
-11
-12
-14
-15
-17
-18
-18
-18
-18
-18
-18
-18
-18
-18
-18
-18
-17
-17
-17
-17
-17
-17
-16
-15
-13
-10
-8
-6
-4
-4
-5
-7
-10
-13
-16
-18
-18
-18
-16
-15
-14
-13
-13
-13
-14
-15
-15
-15
-14
-13
-12
-11
-12
-13
-16
-19
-23
-26
-28
-29
-28
-27
-24
-21
-19
-17
-15
-15
-15
-15
-16
-16
-16
-16
-15
-14
-13
-12
-12
-11
-11
-11
-12
-13
-14
-15
-16
-17
-17
-16
-15
-13
-11
-10
-9
-8
-8
-8
-9
-9
-9
-9
-9
-9
-8
-7
-6
-4
-2
0
3
5
6
7
6
4
1
-3
-7
-11
-15
-17
-18
-17
-16
-14
-13
-11
-11
-11
-12
-14
-17
-19
-22
-24
-26
-27
-28
-28
-27
-25
-23
-21
-19
-17
-16
-16
-16
-18
-20
-22
-24
-25
-25
-24
-21
-18
-14
-12
-11
-11
-13
-16
-18
-20
-21
-20
-19
-16
-14
-13
-14
-16
-20
-25
-29
-32
-32
-28
-21
-10
6
24
46
69
92
115
135
151
162
166
163
153
136
115
90
64
39
17
-1
-14
-23
-28
-29
-28
-26
-22
-18
-14
-11
-9
-7
-7
-9
-11
-14
-17
-19
-19
-18
-16
-12
-8
-4
0
2
2
2
0
-2
-4
-6
-8
-10
-12
-13
-15
-16
-16
-15
-14
-12
-10
-9
-9
-10
-13
-16
-19
-20
-20
-17
-12
-7
0
5
9
10
8
5
0
-6
-10
-14
-15
-14
-11
-8
-3
2
6
10
12
13
13
11
9
6
4
1
0
-1
0
3
6
11
15
19
22
24
25
26
25
25
25
26
28
31
33
36
39
41
42
43
44
45
46
47
50
52
56
59
62
65
68
69
69
68
66
64
61
59
58
57
58
60
62
63
63
61
58
52
45
37
29
22
17
14
12
12
13
13
14
13
12
10
8
5
2
-1
-3
-5
-7
-9
-10
-11
-12
-13
-14
-14
-15
-16
-17
-17
-17
-17
-16
-15
-15
-15
-15
-16
-17
-18
-19
-19
-18
-17
-16
-14
-14
-14
-15
-16
-18
-18
-18
-17
-15
-13
-11
-9
-9
-10
-13
-15
-18
-20
-21
-20
-18
-16
-13
-11
-9
-10
-11
-14
-17
-20
-22
-23
-23
-21
-19
-17
-15
-13
-13
-13
-14
-15
-17
-17
-17
-17
-16
-15
-14
-13
-13
-13
-13
-13
-13
-13
-13
-12
-12
-11
-12
-13
-15
-18
-20
-22
-24
-25
-24
-23
-22
-20
-18
-17
-17
-16
-16
-16
-15
-14
-13
-12
-12
-12
-13
-14
-16
-19
-21
-22
-22
-21
-19
-16
-13
-10
-8
-7
-7
-9
-12
-15
-18
-21
-23
-24
-25
-25
-24
-23
-22
-21
-20
-19
-18
-17
-17
-16
-16
-15
-15
-15
-14
-14
-12
-11
-9
-6
-4
-2
0
1
1
0
-2
-3
-5
-6
-7
-7
-7
-6
-5
-5
-5
-6
-8
-10
-11
-13
-14
-14
-14
-13
-12
-11
-11
-11
-12
-13
-15
-17
-19
-21
-23
-25
-26
-27
-28
-27
-26
-25
-22
-20
-17
-15
-14
-14
-15
-17
-19
-22
-25
-26
-27
-27
-26
-24
-21
-19
-16
-14
-12
-11
-10
-10
-10
-12
-14
-17
-21
-25
-28
-31
-33
-31
-27
-18
-5
12
34
58
84
110
134
155
171
180
182
177
165
146
124
99
73
48
26
8
-7
-16
-22
-24
-23
-21
-17
-13
-9
-6
-4
-3
-3
-4
-6
-9
-12
-16
-19
-21
-23
-23
-21
-19
-16
-13
-11
-10
-10
-12
-13
-15
-17
-17
-17
-15
-13
-10
-8
-7
-6
-6
-8
-9
-10
-12
-12
-12
-12
-11
-11
-10
-10
-10
-10
-9
-9
-8
-8
-7
-7
-6
-5
-4
-2
0
2
5
7
8
8
7
5
2
-1
-4
-6
-7
-7
-6
-4
-2
1
4
7
10
13
17
20
23
25
26
26
26
25
25
25
26
29
33
38
44
49
54
57
59
59
57
55
53
51
50
50
51
53
55
57
60
63
65
66
67
67
65
63
59
55
50
46
43
40
39
38
38
38
37
35
32
28
22
16
11
6
3
1
0
-1
-1
-1
-1
-2
-4
-6
-8
-11
-13
-15
-17
-19
-21
-23
-24
-24
-23
-22
-19
-16
-13
-11
-9
-9
-10
-12
-15
-17
-18
-19
-19
-18
-16
-15
-13
-13
-13
-15
-16
-18
-19
-20
-20
-20
-18
-16
-14
-11
-9
-8
-7
-7
-9
-11
-13
-16
-18
-20
-20
-20
-19
-17
-15
-14
-13
-13
-13
-14
-15
-17
-18
-18
-18
-17
-16
-15
-14
-13
-13
-13
-13
-14
-14
-14
-14
-13
-11
-9
-7
-5
-4
-3
-3
-5
-8
-11
-16
-20
-24
-27
-29
-29
-29
-27
-24
-21
-19
-17
-16
-15
-16
-16
-17
-17
-17
-16
-14
-12
-11
-9
-9
-10
-12
-15
-18
-21
-23
-24
-23
-22
-19
-15
-12
-9
-8
-8
-8
-10
-13
-15
-18
-21
-23
-24
-26
-26
-26
-25
-23
-20
-16
-12
-9
-6
-4
-3
-3
-4
-7
-9
-11
-12
-13
-12
-11
-9
-7
-4
-2
1
2
3
4
4
3
2
0
-2
-4
-6
-8
-9
-10
-11
-11
-12
-13
-15
-17
-19
-21
-23
-24
-24
-23
-22
-20
-18
-15
-14
-13
-13
-13
-15
-17
-19
-22
-25
-27
-29
-30
-30
-30
-28
-26
-24
-20
-17
-14
-11
-10
-9
-10
-12
-16
-21
-26
-30
-33
-33
-31
-26
-20
-13
-8
-5
-6
-10
-17
-26
-34
-38
-37
-27
-10
16
47
81
115
146
170
186
193
192
182
166
146
122
97
72
48
27
9
-5
-14
-19
-20
-19
-15
-11
-8
-5
-3
-3
-4
-5
-8
-10
-12
-15
-17
-18
-20
-20
-20
-20
-18
-16
-15
-14
-14
-15
-17
-19
-20
-21
-21
-20
-17
-15
-12
-11
-10
-11
-12
-13
-14
-15
-14
-12
-10
-7
-4
-3
-1
-1
-1
-1
-1
-1
-1
-2
-3
-5
-7
-10
-12
-13
-12
-10
-6
-2
2
5
6
5
3
0
-3
-6
-6
-4
-1
4
9
13
15
16
15
13
12
11
11
13
15
18
19
21
21
20
19
19
21
24
29
35
43
50
56
60
63
64
64
64
63
63
62
62
62
62
62
63
63
64
65
67
69
71
72
72
71
68
65
60
54
47
40
33
25
19
13
8
5
3
2
3
4
5
6
6
5
2
-1
-4
-8
-10
-11
-11
-11
-9
-8
-8
-8
-10
-13
-17
-20
-22
-23
-23
-21
-17
-14
-11
-9
-8
-8
-10
-12
-14
-16
-17
-18
-17
-17
-16
-15
-15
-15
-15
-15
-15
-15
-14
-13
-11
-10
-9
-9
-9
-9
-10
-11
-11
-12
-12
-12
-13
-13
-15
-17
-19
-22
-24
-25
-25
-24
-22
-19
-16
-13
-11
-9
-9
-9
-10
-11
-12
-12
-11
-10
-9
-9
-8
-9
-10
-11
-12
-14
-15
-16
-17
-17
-18
-19
-21
-23
-24
-25
-25
-23
-20
-17
-13
-10
-9
-8
-10
-13
-18
-22
-25
-27
-27
-26
-23
-19
-15
-12
-9
-8
-8
-9
-10
-11
-13
-14
-15
-17
-18
-19
-20
-21
-20
-19
-18
-16
-14
-13
-12
-13
-15
-18
-20
-23
-25
-25
-25
-24
-21
-19
-17
-15
-14
-13
-12
-11
-11
-11
-11
-11
-11
-12
-13
-14
-14
-14
-14
-12
-10
-8
-5
-3
-2
-1
0
0
0
0
0
0
1
1
1
1
1
-1
-2
-4
-6
-8
-10
-12
-14
-16
-18
-19
-19
-18
-17
-16
-15
-14
-14
-15
-17
-19
-20
-21
-21
-20
-18
-15
-13
-11
-11
-13
-15
-19
-22
-25
-27
-27
-26
-24
-21
-19
-17
-17
-18
-20
-22
-25
-26
-25
-23
-20
-16
-13
-11
-10
-11
-14
-18
-22
-26
-29
-31
-32
-31
-27
-21
-12
3
22
47
75
105
135
160
179
189
189
179
161
137
109
81
54
31
12
-3
-14
-23
-28
-30
-30
-28
-23
-17
-10
-4
1
3
3
0
-5
-10
-15
-18
-19
-18
-15
-11
-8
-6
-6
-8
-12
-16
-21
-24
-26
-26
-24
-20
-15
-10
-6
-3
-1
-2
-4
-7
-11
-13
-15
-16
-15
-14
-12
-11
-9
-8
-7
-7
-6
-5
-4
-2
0
1
1
0
-1
-4
-6
-8
-9
-9
-8
-5
-2
2
5
8
9
10
10
9
8
8
7
7
8
8
8
9
9
10
11
13
15
17
20
22
25
28
30
33
36
39
42
44
46
47
48
47
46
46
46
48
51
54
59
64
68
71
73
73
73
71
69
67
65
63
62
61
60
58
56
54
51
49
47
46
44
43
41
38
34
28
21
14
6
0
-6
-9
-10
-10
-9
-6
-4
-3
-4
-5
-8
-12
-17
-21
-24
-26
-27
-27
-26
-24
-22
-19
-16
-14
-12
-10
-10
-10
-11
-13
-15
-18
-20
-22
-23
-22
-21
-19
-16
-13
-11
-9
-8
-9
-10
-12
-13
-15
-16
-16
-16
-15
-15
-14
-15
-15
-15
-15
-14
-12
-10
-6
-3
0
1
0
-2
-5
-10
-15
-19
-22
-24
-25
-24
-23
-21
-20
-20
-19
-19
-19
-18
-17
-16
-15
-14
-14
-14
-14
-14
-14
-13
-12
-11
-10
-9
-10
-12
-15
-18
-21
-23
-23
-20
-16
-10
-5
0
2
2
0
-5
-9
-14
-18
-21
-22
-22
-21
-21
-21
-21
-22
-22
-22
-20
-18
-14
-10
-7
-5
-5
-7
-10
-15
-20
-24
-26
-27
-25
-22
-18
-14
-11
-10
-11
-12
-15
-17
-19
-19
-19
-17
-14
-12
-9
-6
-4
-2
0
1
3
4
6
6
6
4
2
-1
-4
-7
-8
-8
-7
-5
-3
-2
-2
-3
-7
-12
-17
-23
-28
-31
-33
-33
-32
-29
-27
-25
-24
-23
-23
-22
-21
-19
-17
-15
-14
-12
-12
-12
-13
-14
-15
-15
-16
-16
-17
-17
-18
-19
-20
-20
-20
-19
-17
-14
-11
-9
-8
-8
-9
-12
-17
-22
-27
-32
-36
-38
-39
-37
-33
-27
-17
-5
10
27
46
67
88
108
127
142
153
160
159
153
140
121
99
74
48
24
3
-13
-24
-30
-32
-31
-28
-25
-21
-18
-16
-14
-12
-10
-9
-7
-7
-7
-8
-9
-12
-14
-15
-16
-16
-15
-14
-13
-12
-12
-12
-14
-16
-17
-18
-18
-17
-15
-13
-10
-7
-6
-6
-6
-7
-9
-10
-11
-10
-9
-6
-4
-1
0
1
0
-1
-4
-6
-7
-8
-6
-4
0
4
7
10
10
9
6
2
-2
-6
-8
-9
-8
-5
-1
3
8
11
13
13
13
11
10
8
8
9
12
16
21
27
33
38
42
44
45
45
45
43
42
42
42
42
44
46
49
51
54
56
57
58
59
59
60
61
63
65
68
71
73
75
75
75
73
70
66
62
59
56
55
53
52
50
47
42
36
29
21
14
8
4
2
2
3
4
5
5
3
0
-5
-10
-16
-20
-23
-24
-24
-23
-21
-19
-18
-17
-17
-18
-18
-18
-18
-17
-15
-13
-12
-12
-12
-13
-14
-16
-16
-16
-14
-12
-9
-7
-6
-7
-9
-12
-16
-20
-23
-25
-26
-25
-23
-21
-19
-18
-17
-17
-18
-18
-18
-18
-17
-16
-15
-14
-13
-13
-13
-14
-15
-16
-16
-16
-15
-14
-13
-12
-11
-11
-12
-13
-14
-15
-16
-16
-16
-15
-15
-14
-14
-14
-16
-17
-19
-21
-22
-22
-20
-17
-12
-8
-3
1
3
2
0
-4
-10
-16
-22
-26
-28
-29
-27
-24
-19
-15
-12
-10
-9
-10
-12
-14
-17
-20
-22
-23
-24
-23
-22
-21
-20
-18
-17
-16
-16
-15
-13
-12
-12
-11
-12
-14
-16
-19
-23
-27
-29
-30
-29
-25
-20
-13
-6
-1
3
4
3
-1
-5
-11
-15
-17
-18
-15
-11
-6
0
5
9
11
12
11
9
7
4
2
1
0
-2
-3
-5
-7
-9
-12
-15
-17
-18
-18
-17
-15
-13
-11
-10
-9
-10
-12
-15
-19
-22
-25
-26
-25
-24
-21
-18
-14
-12
-11
-11
-12
-15
-18
-21
-23
-24
-25
-25
-24
-24
-24
-25
-26
-28
-28
-28
-27
-25
-21
-18
-14
-11
-9
-8
-9
-10
-11
-13
-14
-15
-17
-18
-19
-20
-20
-18
-13
-3
12
33
58
87
117
145
167
182
189
185
173
153
128
100
72
47
24
6
-7
-16
-22
-24
-23
-21
-17
-13
-8
-4
-1
0
0
-2
-5
-9
-13
-17
-19
-20
-20
-19
-17
-15
-12
-11
-10
-10
-10
-11
-12
-12
-12
-12
-11
-10
-10
-10
-10
-10
-11
-12
-12
-11
-10
-9
-8
-7
-7
-7
-9
-11
-14
-16
-16
-16
-14
-11
-6
-2
1
3
3
1
-2
-6
-10
-12
-13
-12
-9
-5
0
4
7
9
9
9
7
5
3
3
3
4
6
8
11
14
17
20
23
26
28
30
31
31
31
29
28
27
27
28
31
36
42
48
53
58
60
60
60
58
57
56
57
60
64
68
72
74
74
72
69
65
61
57
56
55
55
55
55
53
49
44
39
33
29
26
25
25
26
26
25
22
17
10
2
-6
-13
-18
-22
-23
-23
-21
-19
-16
-14
-13
-12
-12
-13
-14
-15
-16
-18
-19
-20
-20
-20
-20
-18
-17
-15
-14
-14
-13
-14
-15
-16
-18
-18
-18
-18
-17
-16
-15
-14
-14
-14
-14
-15
-16
-16
-16
-16
-15
-15
-14
-14
-14
-14
-14
-13
-12
-11
-10
-9
-8
-9
-11
-13
-17
-20
-22
-24
-24
-23
-21
-18
-15
-13
-11
-10
-11
-12
-13
-15
-17
-20
-22
-24
-25
-26
-26
-25
-22
-18
-14
-9
-6
-3
-2
-4
-7
-12
-17
-23
-27
-30
-31
-30
-28
-25
-21
-18
-16
-15
-15
-17
-20
-23
-26
-28
-30
-29
-28
-24
-20
-15
-10
-6
-4
-4
-5
-9
-13
-17
-21
-25
-27
-28
-28
-28
-27
-26
-26
-25
-25
-24
-24
-23
-21
-20
-18
-17
-15
-15
-14
-15
-16
-18
-20
-22
-25
-27
-29
-30
-30
-30
-29
-28
-27
-25
-23
-22
-20
-19
-18
-16
-15
-14
-13
-12
-12
-11
-11
-12
-12
-11
-10
-9
-7
-5
-3
-2
-1
-2
-4
-7
-10
-14
-17
-19
-20
-19
-18
-16
-15
-14
-15
-17
-20
-23
-27
-29
-31
-31
-30
-29
-28
-27
-28
-30
-32
-35
-37
-37
-37
-34
-30
-26
-23
-21
-21
-22
-25
-29
-33
-36
-37
-36
-35
-33
-31
-30
-31
-32
-35
-38
-40
-41
-41
-38
-35
-32
-29
-28
-28
-30
-32
-33
-31
-27
-17
-3
16
40
67
95
122
146
165
177
181
175
162
142
116
88
60
34
12
-6
-18
-26
-30
-32
-32
-31
-30
-29
-28
-27
-26
-25
-24
-24
-25
-26
-28
-30
-32
-33
-33
-32
-30
-28
-26
-24
-23
-23
-23
-25
-26
-28
-29
-30
-31
-31
-30
-30
-28
-27
-25
-23
-22
-21
-21
-21
-21
-22
-22
-23
-23
-22
-21
-19
-18
-17
-17
-17
-19
-21
-24
-27
-29
-31
-31
-30
-27
-25
-22
-20
-18
-17
-17
-18
-19
-20
-20
-21
-20
-19
-17
-15
-13
-11
-8
-5
-2
1
3
6
8
9
10
10
10
10
10
11
13
15
18
22
25
28
30
31
31
31
31
30
30
31
32
34
36
38
40
42
44
46
47
48
48
49
48
47
44
41
38
34
31
28
26
24
24
