-11
-9
-8
-6
-5
-3
-2
-2
-2
-2
-2
-3
-4
-5
-6
-6
-6
-6
-6
-6
-6
-6
-6
-5
-4
-3
-3
-2
-2
-2
-2
-3
-4
-5
-5
-5
-5
-5
-4
-3
-2
-1
-1
-2
-2
-3
-3
-3
-2
-1
1
3
5
6
7
8
8
8
8
8
9
11
12
14
16
16
16
15
13
11
7
4
1
-2
-4
-7
-9
-11
-12
-14
-15
-15
-15
-15
-14
-13
-12
-12
-12
-12
-13
-13
-14
-14
-13
-13
-12
-11
-11
-11
-11
-12
-12
-13
-15
-16
-17
-17
-15
-10
-2
11
29
50
74
98
119
133
138
134
119
95
66
35
6
-19
-35
-44
-45
-40
-31
-22
-13
-7
-4
-3
-4
-6
-8
-9
-9
-9
-8
-8
-8
-8
-9
-10
-10
-10
-10
-9
-8
-7
-6
-5
-5
-5
-5
-5
-4
-3
-1
0
1
2
3
3
4
3
3
3
3
2
2
2
2
3
3
4
6
7
9
10
11
11
11
11
11
11
12
14
16
18
20
21
21
21
20
19
18
17
17
18
19
20
22
23
24
25
25
25
24
24
25
25
26
27
27
28
29
29
29
30
30
30
30
29
28
27
25
23
20
17
14
12
9
8
6
5
3
2
0
-2
-4
-6
-8
-10
-11
-12
-13
-14
-14
-13
-13
-12
-12
-11
-11
-11
-11
-12
-12
-13
-14
-15
-15
-14
-14
-13
-12
-12
-12
-13
-14
-16
-17
-19
-19
-19
-18
-17
-16
-14
-13
-13
-13
-14
-15
-16
-16
-17
-17
-16
-15
-14
-13
-13
-12
-12
-13
-13
-14
-14
-14
-14
-14
-14
-14
-14
-14
-14
-15
-15
-15
-15
-16
-15
-15
-15
-15
-14
-14
-14
-14
-14
-14
-14
-14
-14
-15
-15
-15
-16
-16
-16
-16
-16
-15
-15
-14
-13
-13
-13
-13
-14
-14
-15
-15
-14
-13
-12
-11
-9
-8
-7
-7
-7
-8
-9
-9
-9
-8
-7
-5
-2
0
2
3
3
3
2
1
0
0
-1
-1
0
0
1
0
-1
-3
-6
-9
-13
-16
-19
-21
-21
-20
-18
-16
-14
-13
-12
-12
-13
-14
-15
-16
-16
-16
-16
-16
-16
-16
-17
-18
-19
-19
-18
-17
-16
-15
-15
-15
-16
-16
-15
-9
2
18
40
66
93
118
137
147
146
134
111
80
47
14
-15
-36
-50
-55
-53
-47
-40
-32
-25
-20
-18
-16
-16
-15
-15
-14
-14
-13
-13
-13
-13
-12
-12
-11
-9
-8
-7
-7
-8
-9
-10
-11
-12
-12
-11
-9
-6
-4
-3
-2
-2
-2
-3
-4
-4
-4
-4
-3
-3
-2
-2
-2
-2
-1
-1
0
1
2
3
3
4
4
4
4
5
5
6
7
8
9
10
11
11
13
14
16
19
22
24
26
26
26
25
24
23
22
23
24
26
28
31
32
33
33
33
32
32
31
32
32
32
33
32
32
30
28
26
24
22
21
20
19
18
17
15
12
9
6
3
1
-1
-3
-4
-4
-4
-5
-5
-5
-6
-6
-7
-8
-9
-11
-12
-13
-14
-15
-16
-16
-16
-15
-15
-14
-14
-14
-14
-15
-15
-15
-15
-15
-15
-15
-14
-13
-13
-13
-13
-13
-12
-12
-12
-11
-11
-10
-10
-10
-10
-11
-11
-12
-12
-12
-12
-11
-11
-10
-9
-9
-8
-8
-8
-9
-10
-10
-11
-13
-14
-15
-15
-15
-15
-15
-14
-13
-12
-12
-12
-12
-13
-14
-14
-15
-14
-14
-13
-13
-12
-12
-13
-13
-13
-13
-12
-10
-9
-6
-5
-4
-3
-4
-5
-6
-7
-8
-7
-6
-4
-1
1
2
3
3
2
1
0
-1
-1
0
0
1
1
1
-1
-3
-6
-9
-12
-14
-16
-16
-16
-15
-15
-14
-14
-14
-14
-15
-16
-17
-18
-18
-18
-18
-19
-19
-19
-20
-21
-21
-21
-21
-20
-19
-17
-15
-14
-14
-15
-16
-17
-17
-14
-7
4
20
41
64
88
110
126
134
132
120
98
70
39
8
-19
-40
-53
-58
-56
-50
-41
-33
-26
-21
-18
-17
-17
-16
-16
-14
-12
-9
-7
-6
-6
-7
-8
-10
-12
-13
-13
-13
-12
-10
-8
-7
-6
-5
-5
-4
-4
-4
-4
-4
-4
-4
-3
-3
-3
-2
-2
-1
-1
0
1
1
2
2
2
2
2
2
2
3
3
4
5
7
8
9
11
12
13
14
15
15
16
17
18
19
20
21
23
24
26
28
30
31
33
34
35
35
35
35
35
35
35
35
36
36
36
37
37
37
37
37
36
36
35
34
33
31
28
26
23
19
16
13
10
8
6
4
3
1
0
-2
-4
-6
-8
-10
-10
-11
-10
-10
-10
-10
-11
-12
-13
-15
-17
-18
-18
-17
-15
-13
-12
-10
-10
-10
-11
-12
-14
-15
-16
-16
-16
-15
-15
-15
-14
-14
-14
-14
-14
-14
-13
-12
-10
-9
-9
-8
-9
-9
-11
-12
-13
-13
-13
-12
-11
-10
-9
-8
-9
-9
-10
-11
-13
-13
-13
-13
-11
-10
-8
-7
-7
-7
-8
-9
-11
-12
-13
-13
-13
-12
-12
-11
-11
-11
-12
-12
-13
-13
-13
-11
-10
-8
-6
-5
-4
-4
-5
-6
-8
-9
-9
-9
-8
-6
-4
-3
-1
0
1
1
1
2
3
4
5
6
7
7
5
3
0
-3
-6
-9
-11
-12
-13
-13
-13
-13
-13
-13
-14
-14
-15
-16
-16
-17
-17
-17
-17
-16
-16
-16
-16
-16
-17
-17
-18
-18
-17
-16
-15
-13
-12
-11
-11
-13
-15
-17
-18
-17
-12
-2
14
34
57
81
104
120
129
128
118
98
71
42
12
-13
-33
-44
-48
-45
-38
-28
-18
-10
-5
-3
-4
-6
-9
-11
-12
-12
-11
-10
-8
-7
-7
-7
-9
-10
-12
-13
-13
-12
-11
-9
-8
-7
-6
-6
-6
-6
-5
-5
-3
-2
0
1
2
2
1
0
-2
-4
-5
-4
-3
-1
2
4
6
8
8
8
7
6
5
4
4
5
7
8
10
12
14
15
15
16
16
16
16
17
17
18
19
20
22
23
25
27
29
31
32
32
32
31
31
30
29
29
29
29
29
30
31
31
31
31
30
29
27
25
23
21
19
17
15
14
12
11
9
7
5
3
1
-1
-3
-5
-7
-8
-9
-9
-10
-10
-11
-11
-12
-13
-13
-14
-14
-14
-14
-14
-14
-14
-15
-15
-16
-16
-16
-16
-16
-15
-13
-12
-11
-9
-9
-8
-8
-9
-9
-10
-10
-10
-10
-9
-9
-8
-8
-8
-9
-9
-10
-11
-12
-12
-13
-13
-12
-12
-11
-10
-10
-10
-9
-9
-9
-10
-10
-11
-12
-12
-13
-13
-13
-12
-12
-12
-12
-12
-13
-14
-15
-16
-16
-15
-14
-13
-12
-12
-12
-13
-14
-15
-15
-15
-14
-12
-10
-8
-7
-6
-6
-7
-7
-8
-8
-7
-6
-4
-2
0
1
2
2
2
1
1
2
2
3
4
4
3
2
0
-3
-7
-10
-14
-17
-19
-21
-22
-22
-21
-20
-19
-17
-16
-15
-14
-14
-14
-15
-16
-17
-18
-18
-18
-18
-17
-17
-16
-16
-16
-16
-16
-16
-17
-18
-19
-20
-21
-21
-18
-12
-1
14
35
58
83
106
125
136
137
127
109
82
52
20
-8
-31
-46
-52
-52
-45
-35
-24
-15
-8
-4
-3
-4
-7
-10
-13
-14
-14
-13
-12
-10
-9
-8
-8
-8
-9
-10
-11
-11
-11
-10
-9
-8
-6
-5
-4
-4
-4
-4
-4
-3
-3
-3
-2
-1
0
0
1
1
1
1
2
2
2
3
3
4
4
3
3
3
3
3
4
5
7
10
12
14
16
17
17
17
16
15
14
14
16
18
21
24
28
30
32
32
32
31
30
29
28
28
29
30
32
34
35
36
36
36
35
34
33
31
30
29
28
26
25
24
22
21
18
16
13
11
8
6
3
2
0
-1
-1
-2
-3
-4
-5
-7
-8
-10
-11
-12
-13
-13
-13
-13
-13
-13
-12
-12
-12
-12
-12
-12
-12
-12
-12
-13
-13
-13
-13
-13
-13
-13
-13
-13
-13
-13
-14
-14
-14
-14
-15
-15
-14
-14
-14
-14
-14
-14
-14
-14
-13
-13
-12
-12
-11
-11
-10
-10
-11
-11
-12
-12
-13
-13
-14
-14
-15
-15
-16
-16
-17
-17
-16
-16
-15
-14
-12
-11
-11
-10
-10
-10
-10
-11
-12
-13
-15
-16
-17
-17
-17
-16
-15
-14
-12
-11
-10
-10
-10
-11
-12
-13
-13
-13
-12
-11
-10
-8
-7
-6
-5
-5
-4
-4
-3
-2
-1
0
1
2
4
5
6
7
7
7
7
5
3
1
-2
-5
-7
-9
-10
-11
-11
-12
-12
-13
-14
-16
-17
-18
-19
-19
-19
-19
-18
-17
-15
-14
-14
-13
-13
-14
-15
-16
-18
-18
-18
-18
-17
-15
-14
-13
-14
-16
-19
-21
-20
-16
-7
8
29
54
82
107
128
141
143
134
114
87
55
22
-8
-32
-48
-56
-56
-51
-42
-32
-22
-14
-9
-6
-6
-7
-8
-10
-11
-12
-12
-11
-10
-9
-8
-7
-7
-6
-7
-7
-7
-7
-7
-7
-6
-4
-3
-1
-1
0
0
-1
-2
-2
-3
-3
-3
-2
0
1
2
3
4
4
3
3
3
3
3
4
4
4
5
5
5
5
5
6
6
7
9
10
12
13
14
14
15
15
16
16
18
20
22
24
27
29
31
33
33
33
32
31
29
29
28
29
30
32
34
36
38
39
38
37
35
32
29
27
24
22
21
20
19
18
17
16
14
12
10
7
5
3
0
-2
-4
-6
-8
-10
-11
-11
-11
-11
-10
-9
-9
-8
-9
-9
-10
-12
-13
-14
-14
-14
-13
-12
-12
-11
-10
-10
-11
-12
-13
-13
-14
-14
-14
-13
-11
-10
-9
-8
-7
-7
-7
-8
-8
-8
-9
-8
-8
-7
-7
-7
-7
-8
-10
-11
-13
-13
-13
-12
-10
-8
-5
-3
-2
-2
-3
-5
-8
-11
-13
-14
-14
-13
-11
-10
-9
-9
-10
-12
-14
-16
-17
-18
-17
-16
-14
-12
-11
-11
-11
-12
-13
-14
-15
-15
-14
-13
-12
-12
-11
-11
-10
-10
-10
-10
-10
-9
-9
-8
-7
-7
-7
-7
-6
-6
-5
-5
-4
-4
-3
-2
-2
-1
1
2
4
6
8
9
10
10
9
7
4
1
-2
-6
-9
-12
-14
-16
-16
-17
-16
-16
-15
-15
-15
-15
-16
-16
-17
-18
-17
-17
-16
-15
-14
-13
-13
-13
-13
-14
-15
-15
-15
-14
-13
-12
-12
-12
-13
-14
-16
-15
-12
-5
7
24
46
71
96
117
132
139
134
119
95
64
30
-2
-30
-50
-61
-63
-58
-47
-34
-22
-13
-7
-5
-6
-9
-12
-15
-15
-14
-11
-8
-6
-5
-5
-6
-8
-10
-12
-12
-10
-8
-5
-3
-1
-1
-2
-4
-5
-7
-8
-7
-6
-4
-2
0
1
2
1
0
-1
-2
-2
-2
-1
0
2
4
5
6
6
7
7
7
8
8
9
10
11
13
13
14
15
15
15
16
16
17
18
19
20
22
23
24
26
27
27
28
28
29
29
29
30
30
30
30
30
31
31
31
31
31
31
31
31
31
30
30
29
27
26
24
21
18
16
13
11
9
8
7
5
4
2
0
-2
-3
-5
-6
-7
-7
-7
-7
-7
-8
-9
-10
-12
-13
-13
-14
-13
-13
-12
-11
-10
-10
-10
-10
-11
-12
-12
-12
-12
-12
-11
-11
-12
-12
-12
-13
-13
-14
-14
-14
-13
-13
-13
-13
-14
-14
-13
-13
-12
-11
-10
-10
-9
-9
-10
-11
-12
-13
-14
-14
-14
-13
-12
-11
-10
-9
-10
-10
-11
-13
-14
-14
-15
-15
-14
-13
-13
-12
-13
-14
-15
-17
-18
-19
-20
-19
-19
-17
-16
-15
-14
-14
-15
-15
-16
-16
-16
-15
-14
-13
-11
-10
-10
-10
-11
-11
-12
-12
-11
-10
-8
-5
-3
-1
0
0
0
-1
-1
-1
-1
1
2
4
5
6
7
6
4
2
-1
-4
-8
-10
-13
-15
-17
-18
-18
-18
-17
-16
-15
-14
-14
-14
-14
-15
-15
-16
-16
-16
-15
-15
-14
-14
-14
-15
-16
-16
-17
-16
-16
-15
-14
-13
-14
-14
-14
-13
-8
1
16
37
62
89
115
136
149
151
142
122
93
59
24
-7
-32
-49
-56
-56
-50
-41
-31
-23
-17
-14
-14
-14
-15
-14
-13
-11
-9
-6
-5
-5
-6
-8
-11
-13
-14
-14
-13
-10
-7
-4
-2
0
0
-1
-3
-5
-7
-9
-9
-8
-7
-4
-1
3
6
9
11
13
14
14
14
14
14
15
16
17
18
19
20
22
23
25
26
27
28
28
29
29
28
28
27
27
26
26
26
26
26
27
28
29
30
30
31
31
31
30
29
28
26
24
23
21
18
16
14
12
10
7
4
2
-1
-3
-5
-6
-7
-7
-7
-7
-8
-8
-10
-11
-13
-14
-16
-16
-16
-15
-14
-13
-13
-13
-14
-15
-16
-17
-17
-17
-16
-15
-14
-13
-12
-11
-11
-11
-11
-11
-11
-11
-11
-11
-11
-11
-10
-10
-10
-10
-10
-10
-11
-11
-12
-12
-12
-12
-12
-11
-11
-10
-10
-11
-12
-13
-14
-14
-14
-13
-12
-11
-10
-10
-11
-12
-13
-15
-17
-18
-17
-16
-14
-12
-10
-9
-8
-8
-9
-10
-12
-12
-12
-12
-10
-8
-6
-3
-1
0
1
1
1
0
0
-1
-1
-1
0
0
1
2
2
2
2
1
-1
-3
-5
-8
-10
-12
-14
-15
-16
-16
-16
-16
-15
-15
-15
-14
-14
-15
-15
-15
-16
-16
-17
-17
-17
-17
-18
-18
-19
-19
-20
-19
-19
-18
-16
-15
-14
-14
-15
-16
-16
-14
-9
1
17
37
61
85
107
124
131
128
115
92
62
30
-1
-28
-47
-59
-63
-61
-54
-45
-36
-28
-21
-16
-13
-11
-10
-9
-9
-9
-9
-10
-11
-12
-13
-13
-12
-11
-10
-8
-7
-6
-6
-7
-8
-8
-8
-8
-7
-6
-4
-3
-2
-1
-2
-3
-4
-5
-6
-6
-5
-4
-2
0
2
3
4
5
5
5
4
4
4
4
4
5
5
6
7
8
9
9
10
10
11
13
14
16
18
19
21
22
23
23
24
25
27
29
30
32
34
35
36
36
36
36
35
35
34
34
34
34
33
33
31
30
28
27
26
24
23
22
21
19
18
15
13
11
8
6
4
2
0
-2
-3
-5
-6
-7
-8
-8
-9
-10
-10
-11
-12
-13
-14
-15
-15
-16
-16
-15
-15
-15
-14
-14
-13
-12
-12
-11
-11
-10
-10
-10
-11
-11
-12
-13
-14
-14
-14
-13
-13
-12
-11
-10
-9
-9
-9
-9
-9
-9
-9
-9
-10
-10
-10
-10
-10
-9
-8
-8
-8
-8
-9
-10
-11
-13
-14
-14
-14
-13
-12
-10
-9
-8
-8
-8
-9
-10
-12
-12
-12
-11
-9
-7
-5
-4
-3
-3
-3
-4
-4
-5
-5
-4
-4
-3
-2
-1
-1
0
1
2
2
3
3
3
2
0
-3
-5
-8
-11
-14
-16
-17
-17
-16
-15
-13
-12
-11
-10
-11
-11
-13
-14
-15
-16
-16
-16
-16
-15
-15
-15
-15
-16
-16
-17
-17
-17
-16
-15
-15
-15
-16
-16
-16
-13
-8
1
14
30
49
69
85
97
102
97
85
65
41
15
-10
-30
-43
-50
-49
-44
-35
-26
-17
-10
-6
-5
-6
-7
-9
-10
-11
-11
-10
-9
-8
-8
-7
-7
-8
-8
-8
-8
-8
-8
-8
-8
-9
-8
-8
-7
-5
-4
-2
-1
-1
-1
-2
-4
-5
-6
-7
-6
-5
-4
-2
-1
0
0
-1
-1
-2
-1
-1
1
3
5
6
8
8
8
8
8
9
10
11
13
15
16
17
17
17
16
16
16
17
18
20
22
25
26
27
28
28
27
27
27
27
28
28
29
29
28
27
26
25
24
23
22
21
21
19
18
16
14
12
10
9
7
7
6
5
4
2
0
-2
-4
-5
-6
-7
-7
-7
-7
-8
-9
-10
-11
-11
-11
-11
-10
-8
-7
-7
-7
-8
-9
-11
-13
-15
-16
-16
-15
-13
-11
-10
-9
-8
-9
-9
-10
-11
-12
-12
-12
-12
-12
-12
-12
-12
-13
-13
-13
-12
-12
-11
-10
-8
-7
-7
-6
-6
-6
-7
-8
-8
-9
-9
-9
-9
-9
-8
-7
-6
-5
-4
-3
-3
-3
-3
-4
-6
-7
-8
-9
-8
-7
-5
-3
-1
2
3
4
5
5
4
4
3
3
4
4
5
6
5
5
3
1
-1
-3
-5
-7
-8
-9
-10
-10
-11
-12
-12
-13
-14
-15
-16
-17
-18
-18
-18
-18
-17
-16
-15
-14
-13
-13
-13
-13
-14
-15
-15
-16
-16
-17
-18
-19
-20
-20
-18
-14
-6
6
22
41
63
83
100
111
114
108
94
73
48
23
0
-19
-30
-36
-35
-30
-24
-17
-12
-8
-7
-8
-9
-10
-11
-11
-9
-8
-6
-6
-6
-7
-8
-9
-10
-10
-10
-8
-6
-5
-3
-3
-3
-3
-4
-5
-6
-5
-4
-3
-1
1
3
4
4
4
3
2
1
0
-1
-1
-1
0
2
3
5
7
8
10
10
11
11
10
10
9
9
10
10
12
13
14
15
16
17
17
17
18
19
20
21
23
24
25
26
26
27
27
28
28
29
31
32
33
34
34
34
33
31
29
28
27
26
25
24
24
23
21
19
16
13
10
7
4
2
0
-2
-3
-4
-5
-6
-6
-7
-8
-8
-9
-10
-10
-11
-12
-12
-12
-12
-12
-11
-10
-9
-9
-9
-9
-9
-10
-10
-11
-11
-11
-11
-11
-11
-11
-11
-12
-12
-12
-11
-11
-10
-9
-9
-9
-9
-10
-11
-12
-13
-14
-14
-14
-13
-12
-10
-9
-8
-7
-7
-6
-6
-7
-7
-8
-10
-11
-11
-12
-12
-11
-11
-10
-9
-9
-9
-10
-11
-12
-13
-13
-13
-12
-10
-9
-7
-6
-5
-5
-5
-6
-7
-7
-7
-7
-6
-4
-3
-1
0
1
2
3
3
4
5
6
6
7
7
7
6
4
2
-2
-5
-9
-12
-15
-17
-18
-17
-16
-15
-14
-13
-12
-13
-14
-16
-18
-19
-19
-19
-17
-15
-13
-12
-12
-13
-15
-18
-21
-22
-22
-21
-19
-17
-16
-16
-17
-18
-19
-15
-7
7
27
52
79
105
125
135
134
122
98
66
31
-3
-32
-54
-65
-68
-63
-54
-42
-32
-23
-18
-15
-15
-16
-17
-17
-16
-14
-12
-10
-9
-9
-9
-10
-11
-13
-14
-15
-15
-14
-14
-13
-12
-11
-11
-10
-9
-8
-8
-7
-7
-7
-8
-8
-8
-8
-8
-7
-6
-5
-3
-2
-2
-1
-2
-2
-3
-3
-2
-1
0
2
4
5
6
6
6
7
7
8
9
11
12
13
14
15
15
14
14
14
15
16
18
20
21
22
23
23
23
23
23
24
25
26
28
29
30
30
30
29
28
27
26
26
25
25
24
23
21
19
17
14
12
10
8
7
5
4
3
2
1
-1
-3
-4
-6
-7
-8
-9
-10
-11
-11
-11
-11
-12
-12
-12
-12
-12
-12
-12
-12
-12
-12
-13
-13
-13
-12
-12
-11
-10
-10
-9
-9
-9
-10
-12
-13
-15
-15
-15
-14
-13
-11
-10
-9
-8
-8
-9
-10
-11
-12
-12
-12
-12
-11
-11
-10
-10
-10
-11
-11
-12
-12
-12
-12
-12
-12
-12
-12
-13
-14
-14
-15
-15
-15
-14
-14
-14
-14
-13
-13
-13
-13
-13
-13
-13
-13
-14
-15
-16
-17
-18
-19
-18
-18
-17
-15
-13
-11
-10
-9
-9
-9
-9
-10
-10
-10
-10
-9
-8
-7
-5
-3
-1
1
2
4
5
7
7
8
8
8
7
7
6
5
3
2
-1
-3
-6
-10
-13
-15
-18
-19
-19
-19
-18
-17
-16
-16
-15
-15
-16
-16
-16
-16
-16
-16
-16
-16
-16
-17
-19
-20
-20
-20
-19
-18
-17
-16
-16
-17
-17
-16
-13
-5
8
27
51
78
105
129
144
150
144
126
98
64
28
-7
-36
-57
-68
-71
-67
-58
-47
-36
-27
-20
-15
-13
-13
-13
-13
-13
-12
-11
-10
-8
-7
-7
-7
-7
-8
-9
-10
-12
-12
-13
-13
-13
-12
-11
-9
-7
-5
-3
-2
-2
-1
-1
-2
-2
-2
-2
-1
0
2
4
5
7
7
7
7
6
4
4
3
3
4
5
7
8
9
10
11
11
11
11
12
12
14
15
17
18
20
21
23
24
24
25
26
26
26
26
27
27
27
27
28
28
29
31
32
32
33
33
33
32
31
30
29
29
28
28
27
26
25
24
22
20
18
16
14
13
11
9
7
5
3
1
-2
-4
-6
-7
-8
-9
-9
-10
-10
-10
-10
-10
-10
-10
-10
-10
-10
-10
-10
-10
-10
-10
-10
-10
-10
-10
-11
-11
-12
-12
-12
-12
-11
-11
-10
-9
-8
-8
-8
-8
-8
-9
-9
-9
-9
-8
-8
-8
-7
-8
-8
-9
-10
-11
-12
-12
-11
-10
-9
-8
-7
-6
-7
-8
-9
-11
-12
-13
-13
-13
-12
-11
-11
-10
-10
-10
-11
-11
-12
-12
-12
-12
-12
-11
-11
-11
-11
-11
-11
-12
-12
-13
-14
-15
-15
-15
-15
-14
-12
-10
-8
-7
-5
-4
-4
-4
-5
-5
-5
-5
-4
-2
0
2
4
5
7
8
9
9
10
10
10
10
10
8
6
4
1
-1
-4
-6
-8
-9
-11
-12
-13
-13
-14
-14
-14
-14
-13
-12
-11
-11
-11
-12
-14
-16
-17
-18
-18
-17
-16
-14
-13
-11
-10
-10
-11
-12
-13
-14
-15
-16
-14
-10
-2
11
29
51
77
103
127
146
155
154
141
118
86
49
13
-19
-44
-59
-65
-63
-56
-45
-35
-26
-19
-16
-14
-14
-14
-14
-13
-11
-10
-9
-8
-9
-10
-11
-12
-13
-13
-12
-11
-10
-9
-8
-7
-6
-5
-3
-2
0
1
2
3
2
2
0
-1
-2
-2
-2
-1
0
1
3
4
4
4
4
4
4
4
5
6
7
9
11
12
13
14
13
13
12
12
11
12
13
14
16
18
19
20
21
21
22
22
23
24
26
29
31
33
34
34
34
33
32
30
29
29
29
30
31
32
33
33
33
32
31
30
28
27
25
23
21
19
16
13
11
8
6
4
2
0
-2
-4
-6
-8
-10
-11
-12
-12
-11
-10
-9
-9
-9
-10
-11
-12
-14
-15
-15
-15
-14
-13
-13
-12
-12
-12
-13
-14
-15
-15
-16
-16
-16
-16
-17
-17
-17
-16
-15
-14
-13
-12
-11
-10
-10
-11
-12
-12
-13
-13
-12
-12
-12
-12
-12
-13
-14
-15
-15
-15
-14
-12
-10
-8
-7
-7
-8
-9
-11
-13
-15
-15
-14
-13
-11
-10
-9
-10
-11
-13
-15
-17
-18
-18
-17
-15
-13
-11
-10
-10
-10
-10
-11
-11
-11
-10
-9
-8
-7
-6
-6
-6
-6
-6
-5
-5
-4
-3
-1
0
1
1
1
1
0
0
-2
-3
-5
-6
-8
-11
-13
-15
-16
-18
-19
-20
-20
-21
-21
-22
-22
-22
-22
-21
-21
-20
-19
-18
-18
-19
-20
-22
-23
-25
-25
-25
-24
-23
-21
-19
-17
-16
-17
-18
-19
-19
-18
-13
-4
10
29
51
75
99
118
130
133
126
109
83
51
18
-14
-40
-59
-69
-71
-67
-58
-48
-37
-29
-23
-19
-18
-17
-17
-17
-16
-15
-14
-12
-12
-11
-12
-12
-13
-13
-13
-12
-12
-11
-11
-10
-10
-9
-9
-8
-7
-6
-6
-5
-5
-5
-5
-4
-4
-2
-1
0
1
2
2
2
1
0
0
0
2
4
6
9
11
12
12
11
10
8
7
7
8
10
12
15
17
19
20
20
20
20
20
21
22
24
27
29
32
34
36
37
37
36
36
35
34
33
32
32
33
34
35
36
37
37
37
36
34
32
29
27
24
22
19
17
15
13
11
8
6
4
2
1
-1
-2
-4
-5
-6
-8
-9
-10
-11
-11
-12
-12
-12
-12
-13
-13
-13
-13
-13
-13
-13
-12
-11
-11
-10
-10
-11
-12
-13
-13
-14
-14
-14
-13
-12
-11
-10
-10
-10
-10
-11
-12
-12
-12
-12
-11
-10
-9
-9
-8
-8
-9
-9
-10
-11
-11
-10
-10
-9
-9
-9
-9
-10
-11
-12
-13
-14
-14
-14
-13
-12
-12
-11
-11
-12
-12
-12
-12
-12
-12
-11
-10
-10
-9
-9
-9
-8
-8
-8
-7
-7
-6
-5
-5
-4
-4
-3
-3
-2
-1
0
1
1
2
2
1
1
1
1
1
1
1
0
-2
-4
-7
-11
-15
-19
-21
-22
-22
-22
-20
-19
-18
-17
-18
-18
-19
-20
-20
-19
-19
-18
-17
-17
-18
-20
-21
-23
-24
-23
-22
-20
-18
-17
-16
-16
-17
-18
-17
-12
-3
11
31
54
79
103
122
133
135
127
109
84
54
22
-6
-30
-47
-55
-57
-53
-46
-36
-27
-19
-14
-11
-10
-10
-12
-13
-15
-15
-16
-16
-15
-15
-14
-14
-14
-13
-13
-13
-12
-11
-10
-9
-8
-8
-7
-6
-6
-6
-6
-6
-6
-6
-6
-5
-4
-4
-3
-2
-2
-1
-1
-1
0
0
0
0
0
0
0
1
2
3
5
6
8
9
10
11
12
12
12
12
13
13
14
16
17
19
22
24
26
28
29
30
30
30
30
29
28
28
28
28
29
31
32
34
35
36
36
36
36
35
34
33
31
29
27
24
21
19
16
14
12
10
8
7
6
4
2
0
-3
-5
-7
-8
-9
-10
-10
-10
-10
-11
-12
-13
-14
-15
-16
-16
-17
-17
-17
-17
-17
-17
-16
-16
-14
-13
-12
-11
-11
-12
-13
-15
-16
-17
-18
-17
-16
-13
-11
-9
-8
-7
-8
-9
-11
-13
-14
-15
-14
-13
-12
-10
-9
-9
-9
-10
-12
-13
-14
-14
-14
-13
-12
-11
-10
-10
-9
-10
-10
-11
-11
-11
-11
-10
-9
-8
-8
-8
-8
-9
-10
-11
-12
-13
-12
-11
-9
-7
-5
-3
-2
-1
-2
-2
-3
-3
-3
-3
-1
0
2
3
4
4
3
2
1
0
-2
-3
-4
-5
-7
-9
-12
-15
-17
-19
-21
-21
-21
-20
-19
-18
-18
-18
-18
-19
-19
-19
-19
-19
-18
-17
-17
-18
-18
-19
-20
-20
-19
-18
-17
-16
-16
-17
-18
-19
-19
-15
-7
7
27
51
78
105
127
142
148
142
126
101
71
40
10
-15
-32
-43
-46
-44
-38
-31
-24
-18
-14
-12
-11
-12
-12
-12
-12
-12
-12
-12
-11
-11
-11
-10
-10
-10
-9
-9
-9
-9
-9
-10
-10
-10
-10
-9
-9
-9
-8
-8
-7
-7
-6
-6
-5
-5
-4
-4
-4
-4
-3
-3
-2
-1
1
2
4
5
6
6
6
6
5
5
5
6
7
9
10
11
12
13
13
14
14
15
16
18
20
22
24
27
28
30
31
31
31
31
31
31
31
32
32
32
33
34
34
35
35
36
35
35
34
33
32
30
28
26
23
20
17
14
11
8
6
4
3
1
0
-1
-3
-4
-6
-8
-10
-11
-12
-13
-13
-13
-13
-13
-13
-14
-15
-16
-16
-17
-17
-16
-16
-15
-15
-15
-15
-15
-16
-17
-18
-18
-19
-19
-18
-17
-16
-15
-14
-13
-12
-12
-11
-11
-11
-12
-12
-13
-14
-14
-14
-13
-12
-11
-10
-10
-10
-10
-11
-13
-14
-16
-17
-17
-17
-16
-15
-14
-13
-12
-13
-13
-15
-16
-17
-18
-17
-16
-14
-11
-9
-7
-5
-5
-5
-6
-8
-10
-11
-11
-10
-9
-7
-4
-2
0
2
2
2
1
0
-1
-1
-1
0
2
3
5
6
6
6
4
2
-1
-4
-8
-11
-14
-16
-18
-19
-19
-20
-19
-19
-18
-17
-17
-17
-16
-17
-17
-17
-18
-18
-18
-18
-18
-17
-18
-18
-18
-18
-18
-18
-17
-16
-15
-14
-15
-16
-17
-18
-17
-13
-5
8
26
49
73
97
118
132
137
131
116
92
63
31
1
-24
-42
-53
-56
-54
-47
-39
-31
-24
-19
-17
-16
-16
-17
-18
-18
-17
-16
-15
-15
-14
-15
-15
-15
-15
-15
-14
-13
-11
-9
-8
-7
-6
-6
-6
-6
-6
-7
-7
-7
-6
-6
-5
-4
-4
-3
-2
-1
0
1
2
2
2
2
2
1
1
1
1
1
1
2
3
5
6
8
10
12
13
14
15
16
17
17
18
20
21
23
25
27
28
29
30
31
31
32
32
33
33
34
34
35
35
35
34
35
35
36
37
38
39
39
38
37
35
33
30
26
23
20
18
15
13
11
9
7
5
3
1
-1
-3
-5
-7
-8
-10
-11
-11
-12
-11
-11
-11
-10
-10
-10
-11
-11
-12
-12
-13
-13
-13
-14
-14
-15
-16
-16
-16
-16
-16
-15
-14
-13
-12
-12
-11
-11
-12
-12
-12
-12
-12
-12
-12
-11
-11
-11
-11
-11
-11
-10
-10
-9
-9
-8
-8
-8
-8
-8
-8
-7
-7
-6
-6
-5
-6
-6
-7
-8
-9
-10
-11
-11
-11
-10
-9
-9
-8
-9
-9
-10
-10
-10
-11
-10
-10
-10
-9
-8
-7
-7
-6
-5
-5
-5
-6
-6
-7
-8
-8
-7
-6
-4
-1
1
3
5
6
6
6
5
5
5
5
5
5
5
4
3
1
-1
-3
-5
-7
-8
-9
-10
-12
-13
-14
-16
-17
-18
-18
-17
-16
-15
-14
-14
-13
-14
-14
-15
-15
-16
-15
-15
-14
-13
-13
-12
-12
-12
-12
-13
-14
-15
-17
-18
-19
-18
-15
-7
7
25
48
74
99
120
134
139
133
117
93
63
31
2
-22
-38
-46
-47
-43
-35
-27
-20
-15
-12
-11
-11
-12
-12
-12
-11
-9
-8
-7
-7
-8
-9
-10
-11
-11
-11
-10
-10
-9
-8
-8
-8
-7
-7
-7
-6
-5
-4
-3
-3
-2
-3
-4
-4
-5
-6
-6
-5
-4
-3
-1
1
2
4
5
5
5
5
5
5
5
5
6
7
8
9
11
12
13
14
14
15
16
17
18
20
21
23
25
26
27
28
28
28
28
28
28
29
30
31
32
33
34
34
34
34
33
33
33
33
33
33
32
32
30
29
26
23
20
17
15
12
9
7
6
4
2
0
-1
-3
-4
-5
-6
-7
-7
-8
-9
-10
-11
-12
-13
-14
-15
-16
-17
-17
-17
-17
-16
-16
-16
-15
-15
-15
-15
-15
-16
-16
-17
-17
-17
-17
-17
-16
-15
-14
-12
-11
-10
-9
-9
-10
-10
-12
-13
-13
-14
-14
-13
-13
-12
-12
-11
-11
-11
-11
-12
-12
-13
-13
-14
-14
-14
-14
-14
-14
-13
-13
-12
-11
-10
-10
-10
-11
-11
-12
-13
-14
-14
-14
-13
-13
-13
-13
-13
-13
-14
-15
-16
-17
-17
-17
-16
-15
-13
-12
-11
-11
-11
-12
-12
-13
-14
-15
-16
-16
-16
-15
-15
-14
-13
-12
-11
-10
-10
-9
-8
-8
-8
-8
-9
-9
-9
-9
-9
-8
-7
-6
-5
-3
-2
-1
-1
0
0
0
0
0
1
2
3
4
4
5
4
3
2
0
-3
-6
-9
-11
-14
-16
-18
-19
-19
-19
-19
-18
-17
-16
-16
-16
-17
-18
-20
-21
-21
-21
-21
-20
-18
-17
-16
-15
-15
-15
-15
-15
-15
-14
-14
-15
-16
-17
-19
-20
-18
-13
-3
13
35
60
87
113
133
145
146
136
116
88
57
25
-3
-24
-38
-43
-42
-36
-28
-20
-13
-9
-8
-8
-8
-9
-9
-8
-7
-6
-6
-6
-7
-8
-10
-10
-11
-10
-8
-6
-4
-3
-3
-3
-4
-5
-6
-7
-7
-6
-4
-2
0
2
3
3
3
3
2
2
2
2
3
4
4
5
5
4
4
3
3
4
5
6
8
10
12
13
14
14
15
15
15
15
16
17
18
19
21
22
23
24
24
25
26
27
28
30
31
33
34
35
36
36
36
36
36
36
36
36
36
36
36
37
37
37
37
36
35
33
31
28
25
22
19
16
13
11
10
8
7
5
4
2
1
-1
-3
-4
-6
-7
-8
-9
-9
-9
-9
-9
-9
-9
-10
-10
-11
-11
-12
-12
-12
-12
-12
-11
-11
-10
-10
-10
-10
-9
-9
-9
-10
-10
-10
-10
-10
-11
-11
-11
-11
-11
-10
-10
-9
-9
-9
-9
-9
-9
-9
-9
-8
-8
-7
-7
-7
-7
-7
-8
-8
-8
-9
-8
-8
-7
-7
-7
-7
-7
-8
-9
-10
-11
-12
-12
-12
-11
-11
-10
-9
-9
-9
-8
-8
-8
-8
-8
-8
-8
-8
-8
-9
-10
-11
-13
-13
-14
-14
-13
-12
-11
-10
-9
-9
-9
-10
-11
-12
-13
-14
-14
-14
-14
-14
-13
-13
-13
-13
-13
-12
-12
-12
-13
-13
-13
-14
-14
-14
-14
-13
-13
-12
-12
-12
-12
-12
-13
-14
-14
-15
-15
-15
-15
-14
-14
-14
-14
-13
-13
-12
-11
-10
-9
-8
-8
-8
-8
-8
-8
-8
-8
-8
-7
-5
-3
-2
-1
0
1
1
1
1
1
2
2
4
5
6
7
8
7
6
4
2
-1
-4
-8
-11
-13
-15
-16
-16
-16
-15
-14
-13
-12
-12
-12
-12
-13
-14
-14
-15
-15
-15
-15
-15
-14
-14
-14
-14
-14
-14
-15
-15
-14
-14
-14
-14
-15
-16
-18
-20
-21
-20
-15
-5
10
31
55
82
107
129
143
147
141
125
101
71
39
8
-17
-35
-46
-48
-44
-36
-26
-17
-9
-5
-3
-4
-6
-9
-11
-12
-12
-11
-10
-8
-7
-6
-6
-7
-7
-7
-8
-7
-7
-6
-5
-4
-4
-4
-5
-5
-6
-6
-6
-6
-5
-4
-3
-2
-1
0
0
1
1
1
2
2
2
3
3
4
4
5
6
6
7
7
7
7
8
8
9
10
12
13
15
17
18
19
19
19
19
19
20
21
23
25
28
30
33
34
35
35
35
34
34
33
33
34
35
36
38
39
39
39
38
36
34
33
31
30
30
30
30
31
30
29
27
24
20
16
12
8
5
3
2
1
1
1
0
-2
-3
-6
-8
-9
-11
-11
-11
-10
-9
-9
-8
-8
-9
-10
-12
-13
-14
-14
-14
-13
-12
-11
-11
-11
-11
-12
-12
-13
-13
-12
-11
-10
-9
-8
-7
-7
-7
-8
-9
-9
-9
-9
-8
-7
-6
-6
-6
-6
-7
-9
-10
-11
-11
-11
-11
-11
-10
-10
-10
-10
-11
-11
-11
-11
-11
-10
-9
-9
-8
-8
-9
-10
-11
-13
-14
-15
-15
-15
-14
-13
-12
-11
-11
-11
-11
-12
-12
-13
-14
-14
-14
-14
-14
-14
-14
-13
-13
-13
-13
-13
-13
-14
-14
-15
-15
-15
-14
-13
-12
-12
-11
-11
-12
-13
-15
-17
-18
-19
-18
-17
-16
-14
-13
-12
-12
-12
-13
-14
-15
-15
-15
-15
-14
-13
-13
-13
-14
-15
-16
-16
-16
-15
-14
-13
-12
-11
-10
-10
-9
-9
-9
-9
-8
-7
-7
-6
-6
-6
-6
-6
-6
-5
-4
-2
0
1
2
3
3
2
2
2
2
2
3
4
4
3
2
0
-3
-7
-10
-13
-16
-18
-18
-18
-18
-17
-16
-15
-14
-14
-14
-14
-15
-15
-16
-16
-16
-16
-16
-15
-14
-13
-12
-12
-13
-14
-16
-17
-18
-18
-17
-16
-15
-14
-15
-16
-16
-15
-10
-1
15
36
61
88
113
133
145
145
134
114
85
54
22
-5
-26
-39
-45
-44
-39
-31
-24
-18
-14
-12
-10
-10
-10
-9
-8
-7
-6
-6
-6
-6
-6
-6
-6
-5
-4
-3
-2
-2
-2
-2
-3
-4
-5
-6
-6
-6
-5
-5
-4
-4
-3
-3
-2
-2
-1
1
2
2
3
3
2
2
2
2
3
5
7
9
10
11
11
11
10
9
9
9
10
12
14
16
18
19
20
20
20
19
20
20
22
25
27
30
32
34
35
35
35
35
35
35
35
36
37
38
39
40
40
41
41
40
40
39
39
38
37
35
34
33
31
30
28
26
24
22
19
16
13
10
8
6
4
3
2
1
0
-1
-2
-3
-5
-7
-9
-11
-12
-13
-13
-13
-12
-12
-11
-11
-11
-11
-12
-12
-12
-13
-13
-13
-13
-13
-13
-13
-13
-13
-12
-11
-11
-10
-9
-8
-8
-8
-7
-7
-8
-8
-9
-9
-10
-11
-11
-11
-11
-11
-11
-10
-10
-9
-9
-9
-9
-9
-10
-10
-10
-10
-10
-10
-9
-9
-9
-9
-9
-9
-9
-9
-9
-8
-8
-8
-8
-8
-8
-8
-9
-9
-9
-8
-8
-8
-8
-9
-9
-10
-11
-12
-13
-14
-14
-14
-13
-12
-11
-10
-10
-9
-9
-10
-11
-11
-12
-13
-13
-13
-13
-13
-12
-13
-13
-13
-13
-13
-13
-13
-12
-11
-11
-11
-11
-11
-11
-11
-11
-10
-10
-9
-8
-7
-6
-6
-6
-6
-7
-7
-7
-7
-6
-5
-4
-3
-3
-2
-2
-2
-1
0
0
2
3
4
5
5
5
5
4
3
2
0
-1
-3
-5
-7
-9
-10
-12
-14
-14
-15
-14
-12
-10
-8
-6
-4
-4
-4
-6
-8
-11
-14
-16
-17
-17
-17
-16
-16
-15
-16
-17
-17
-18
-17
-16
-15
-13
-11
-11
-11
-13
-15
-15
-12
-5
8
27
50
75
100
120
134
138
131
115
91
62
33
5
-17
-33
-42
-44
-40
-34
-27
-20
-14
-10
-8
-7
-7
-7
-7
-7
-6
-4
-3
-2
-1
-1
-1
-1
-2
-3
-4
-4
-4
-3
-2
-1
0
1
2
3
2
2
1
0
-1
-2
-2
-1
0
1
3
4
5
7
8
8
9
9
10
10
10
9
9
9
10
10
11
12
13
14
15
16
17
18
19
20
21
22
24
25
26
28
29
29
30
30
30
31
32
33
35
37
40
42
43
44
44
43
42
40
38
37
36
36
36
37
37
36
35
33
31
29
27
25
24
23
22
20
17
13
8
3
-1
-5
-8
-8
-8
-7
-6
-5
-5
-7
-9
-12
-14
-16
-17
-17
-17
-15
-14
-13
-14
-15
-17
-18
-20
-20
-19
-17
-14
-11
-9
-8
-8
-10
-13
-16
-19
-22
-23
-23
-21
-19
-16
-14
-12
-12
-12
-14
-15
-17
-19
-20
-21
-20
-20
-19
-17
-16
-15
-14
-14
-14
-15
-15
-16
-16
-16
-16
-16
-15
-15
-14
-14
-14
-14
-15
-16
-18
-19
-20
-20
-20
-19
-19
-18
-18
-19
-19
-20
-21
-22
-22
-22
-21
-20
-18
-17
-15
-15
-15
-16
-17
-19
-21
-22
-23
-24
-24
-24
-24
-24
-23
-23
-22
-22
-22
-21
-21
-21
-20
-20
-20
-20
-20
-20
-20
-20
-21
-21
-21
-20
-20
-19
-18
-17
-16
-16
-16
-16
-16
-16
-16
-16
-16
-15
-15
-15
-14
-14
-13
-12
-11
-10
-8
-7
-6
-5
-4
-4
-4
-3
-2
-1
1
3
4
6
6
5
4
1
-2
-5
-9
-12
-15
-18
-20
-21
-22
-22
-21
-20
-19
-18
-17
-17
-17
-18
-18
-19
-20
-21
-21
-20
-19
-18
-17
-17
-17
-18
-19
-20
-21
-21
-21
-19
-18
-17
-16
-17
-19
-21
-23
-22
-16
-6
11
34
61
88
113
132
141
140
128
107
79
48
18
-8
-27
-38
-42
-41
-36
-29
-22
-17
-13
-10
-9
-8
-8
-7
-7
-7
-8
-8
-10
-11
-13
-13
-13
-13
-11
-10
-8
-7
-6
-5
-5
-5
-5
-4
-3
-3
-2
-2
-1
-1
-1
-1
-1
0
0
1
1
2
2
2
2
2
2
2
2
2
3
3
4
4
5
6
7
8
9
11
12
13
15
16
16
17
17
18
19
21
23
25
27
30
31
33
33
33
33
33
32
33
33
35
36
39
41
43
44
45
45
44
43
41
40
38
38
37
37
38
38
38
38
36
34
31
27
23
20
16
13
11
9
7
5
3
1
-1
-3
-5
-6
-7
-6
-6
-5
-4
-4
-4
-5
-6
-7
-8
-9
-8
-8
-7
-6
-5
-5
-5
-6
-8
-9
-10
-10
-10
-10
-9
-8
-7
-7
-7
-7
-8
-8
-9
-10
-10
-10
-10
-10
-11
-11
-11
-10
-9
-8
-6
-5
-3
-2
-2
-3
-4
-6
-8
-9
-11
-11
-11
-11
-10
-9
-9
-8
-8
-8
-8
-8
-8
-8
-8
-8
-8
-9
-9
-10
-10
-10
-10
-10
-9
-9
-9
-9
-10
-11
-12
-12
-13
-13
-13
-13
-13
-13
-13
-13
-13
-12
-11
-10
-8
-7
-6
-6
-7
-8
-9
-10
-10
-11
-10
-9
-8
-6
-6
-5
-5
-6
-7
-7
-8
-8
-8
-7
-6
-6
-6
-6
-6
-7
-8
-8
-8
-8
-7
-6
-5
-3
-2
-1
-1
-1
-1
-1
-1
0
1
2
4
6
7
7
7
5
2
-1
-4
-8
-11
-13
-14
-15
-14
-14
-14
-13
-13
-14
-14
-15
-15
-16
-16
-16
-16
-16
-17
-17
-18
-18
-19
-19
-20
-20
-20
-19
-19
-18
-17
-16
-15
-14
-13
-13
-14
-15
-17
-19
-19
-15
-7
6
25
48
74
100
122
137
144
141
127
105
78
48
19
-6
-24
-35
-40
-39
-34
-27
-19
-13
-9
-6
-5
-5
-5
-6
-6
-6
-6
-6
-7
-7
-8
-9
-10
-10
-11
-11
-10
-9
-8
-7
-6
-4
-4
-3
-3
-4
-4
-4
-5
-5
-5
-5
-4
-4
-4
-4
-4
-4
-4
-3
-3
-1
0
2
3
5
6
6
6
5
5
5
5
6
7
9
11
12
14
15
16
17
18
19
21
23
25
26
28
28
28
28
28
27
28
28
30
31
33
35
36
37
38
38
38
38
38
39
39
39
40
40
39
38
36
33
30
27
25
22
20
19
18
17
16
15
13
12
9
7
4
2
-1
-3
-5
-7
-8
-9
-10
-11
-12
-13
-13
-13
-13
-13
-12
-12
-12
-12
-12
-11
-11
-11
-11
-10
-10
-11
-11
-11
-12
-12
-12
-12
-11
-11
-10
-10
-10
-10
-11
-12
-12
-13
-13
-13
-13
-13
-13
-13
-13
-12
-11
-10
-9
-7
-6
-5
-5
-5
-6
-7
-8
-9
-9
-9
-8
-7
-6
-6
-6
-7
-8
-10
-11
-12
-13
-13
-12
-12
-11
-11
-11
-12
-13
-13
-14
-14
-13
-13
-12
-11
-10
-10
-11
-11
-12
-13
-14
-14
-15
-14
-14
-14
-13
-13
-13
-13
-13
-13
-13
-12
-12
-11
-10
-9
-8
-7
-6
-6
-5
-4
-3
-3
-2
-1
-1
0
0
1
2
3
3
4
3
2
0
-3
-6
-9
-12
-14
-16
-16
-17
-16
-16
-17
-17
-18
-19
-19
-19
-18
-17
-15
-14
-12
-12
-12
-12
-13
-14
-15
-17
-18
-19
-20
-20
-21
-21
-20
-19
-18
-16
-15
-15
-16
-17
-19
-19
-17
-10
1
18
39
64
88
109
124
130
127
114
93
66
38
11
-12
-29
-40
-44
-42
-37
-30
-23
-16
-11
-7
-5
-5
-6
-8
-9
-12
-13
-14
-15
-15
-13
-11
-9
-7
-6
-5
-5
-6
-7
-9
-10
-10
-10
-9
-8
-7
-6
-5
-5
-5
-5
-5
-5
-4
-3
-1
0
1
2
3
3
3
2
3
3
3
4
4
5
5
6
6
7
7
9
10
11
13
14
15
15
16
16
16
17
19
21
24
27
30
33
36
37
38
37
36
35
34
34
34
34
35
37
39
40
41
41
41
40
39
37
36
36
35
34
33
31
29
25
22
18
14
11
8
6
4
3
2
0
-1
-3
-5
-7
-9
-10
-11
-12
-12
-12
-12
-12
-12
-13
-13
-14
-14
-14
-13
-13
-12
-12
-12
-12
-13
-14
-14
-15
-15
-14
-14
-13
-12
-12
-12
-13
-14
-15
-16
-16
-16
-16
-15
-15
-14
-14
-14
-14
-14
-15
-15
-15
-14
-13
-13
-12
-11
-11
-12
-13
-14
-16
-17
-17
-18
-17
-16
-14
-12
-11
-9
-8
-8
-7
-8
-8
-8
-9
-9
-9
-9
-9
-10
-11
-13
-15
-16
-18
-18
-18
-18
-17
-16
-16
-15
-15
-16
-16
-16
-16
-15
-14
-12
-11
-10
-9
-10
-11
-12
-14
-15
-15
-15
-14
-12
-10
-8
-6
-5
-4
-4
-3
-3
-3
-2
0
1
2
3
3
3
2
0
-3
-6
-10
-14
-17
-20
-22
-24
-24
-24
-23
-22
-21
-20
-20
-19
-20
-20
-20
-21
-21
-22
-22
-21
-20
-20
-19
-19
-19
-20
-21
-22
-23
-24
-24
-24
-22
-21
-20
-19
-19
-20
-20
-19
-15
-6
8
28
52
78
104
125
139
143
135
117
90
58
25
-5
-30
-46
-54
-55
-49
-41
-31
-23
-17
-14
-13
-13
-14
-14
-14
-13
-11
-9
-8
-7
-7
-8
-9
-10
-10
-10
-9
-8
-7
-6
-5
-6
-7
-8
-10
-12
-12
-12
-11
-10
-7
-5
-2
-1
0
1
1
1
1
1
1
2
3
3
3
2
2
1
1
1
1
3
4
6
8
10
10
11
11
11
11
12
13
15
17
19
21
23
25
26
27
28
29
30
31
32
32
32
32
32
32
32
33
34
35
37
38
40
40
40
38
37
35
34
32
31
30
29
27
25
22
18
15
12
9
7
6
5
4
3
2
1
-1
-3
-6
-8
-10
-11
-12
-12
-12
-12
-11
-11
-11
-12
-12
-12
-12
-12
-12
-12
-11
-10
-9
-8
-8
-8
-9
-10
-11
-12
-12
-13
-13
-12
-11
-11
-10
-9
-9
-9
-10
-10
-11
-11
-11
-11
-11
-12
-12
-12
-13
-13
-14
-14
-13
-12
-11
-10
-9
-8
-7
-6
-6
-6
-7
-7
-8
-8
-9
-9
-8
-8
-8
-7
-7
-7
-8
-9
-10
-11
-12
-12
-12
-12
-12
-11
-11
-11
-11
-11
-12
-13
-13
-13
-13
-12
-11
-10
-9
-8
-7
-8
-9
-10
-12
-13
-14
-14
-14
-13
-12
-11
-10
-9
-8
-8
-7
-7
-7
-6
-5
-5
-4
-3
-2
-1
0
1
2
3
4
5
5
5
4
4
4
3
3
2
1
-1
-3
-6
-9
-11
-14
-16
-16
-16
-15
-14
-13
-12
-11
-12
-13
-15
-16
-18
-19
-19
-19
-18
-17
-16
-15
-15
-15
-14
-14
-14
-14
-13
-13
-13
-13
-14
-16
-18
-19
-19
-16
-9
3
19
40
63
88
110
127
137
138
128
110
84
54
22
-7
-31
-48
-57
-57
-52
-42
-31
-20
-11
-6
-3
-4
-6
-9
-11
-13
-13
-12
-10
-7
-6
-5
-5
-6
-7
-8
-9
-9
-8
-7
-6
-4
-3
-2
-2
-2
-2
-1
-1
0
0
1
1
1
1
1
1
1
1
2
2
3
3
4
4
5
6
7
8
9
10
10
10
10
10
10
10
11
12
14
16
18
20
21
21
21
21
21
21
23
25
27
29
31
32
33
33
33
32
32
33
33
34
35
35
36
36
36
36
36
36
37
37
37
36
35
33
30
28
26
24
22
21
20
18
17
15
12
9
6
4
1
-1
-2
-3
-4
-5
-6
-7
-7
-8
-9
-9
-10
-10
-10
-11
-11
-12
-13
-13
-13
-13
-13
-12
-11
-10
-10
-9
-9
-10
-10
-10
-11
-11
-11
-11
-10
-10
-10
-11
-11
-10
-10
-9
-8
-7
-5
-4
-3
-3
-4
-5
-7
-9
-11
-13
-15
-15
-15
-14
-13
-12
-11
-10
-10
-11
-11
-12
-12
-13
-13
-13
-12
-12
-12
-12
-12
-12
-13
-13
-13
-13
-13
-13
-13
-14
-14
-14
-15
-15
-15
-15
-14
-14
-13
-13
-13
-13
-14
-15
-15
-16
-16
-15
-14
-13
-12
-11
-10
-10
-10
-9
-8
-7
-5
-2
0
2
4
4
3
2
1
-1
-1
-1
1
3
5
7
8
8
6
3
-1
-5
-9
-12
-14
-14
-14
-14
-14
-15
-16
-17
-18
-19
-20
-20
-18
-17
-15
-14
-13
-13
-13
-14
-16
-17
-18
-19
-20
-20
-20
-19
-19
-18
-17
-16
-15
-15
-15
-16
-17
-17
-15
-9
1
16
37
63
90
116
138
151
154
145
124
95
61
25
-7
-32
-49
-58
-58
-52
-42
-32
-23
-16
-12
-11
-11
-12
-13
-14
-14
-13
-12
-10
-9
-9
-8
-9
-9
-10
-10
-11
-10
-10
-10
-9
-9
-8
-8
-8
-8
-7
-6
-5
-4
-3
-2
-1
-1
-2
-2
-3
-4
-5
-5
-4
-3
-1
0
1
2
2
1
0
-1
-1
-1
0
1
3
5
7
9
11
12
13
14
14
15
16
17
18
20
21
22
23
24
26
27
28
28
29
29
29
29
29
30
30
31
32
34
35
36
36
36
35
34
32
30
29
28
27
26
25
24
23
20
18
14
11
8
5
3
2
1
0
-1
-3
-4
-6
-7
-9
-11
-12
-12
-13
-14
-14
-15
-17
-18
-19
-19
-20
-19
-18
-17
-16
-15
-14
-14
-14
-14
-14
-14
-14
-14
-14
-14
-13
-13
-13
-12
-12
-12
-12
-12
-12
-13
-13
-14
-14
-15
-15
-15
-14
-14
-14
-13
-13
-13
-13
-13
-12
-12
-12
-12
-13
-13
-14
-15
-15
-16
-16
-16
-15
-14
-14
-13
-13
-13
-14
-14
-14
-14
-14
-13
-13
-13
-14
-15
-17
-18
-19
-20
-19
-18
-16
-13
-11
-9
-8
-8
-9
-10
-11
-12
-12
-12
-11
-9
-7
-5
-3
-1
0
0
1
1
0
0
0
0
0
0
0
-1
-1
-2
-4
-6
-9
-13
-16
-19
-21
-22
-22
-21
-19
-17
-15
-13
-13
-14
-15
-17
-20
-22
-23
-23
-22
-20
-18
-17
-16
-16
-17
-19
-20
-21
-21
-20
-19
-17
-16
-15
-15
-15
-14
-11
-4
8
25
47
72
96
117
131
135
128
111
85
54
21
-10
-35
-52
-61
-63
-60
-53
-44
-37
-30
-25
-22
-19
-17
-15
-13
-11
-9
-9
-9
-10
-12
-13
-14
-14
-13
-11
-9
-7
-5
-4
-4
-4
-5
-5
-5
-5
-4
-2
-1
0
0
-1
-2
-3
-4
-5
-5
-5
-3
-2
0
2
3
4
5
5
5
4
4
4
4
4
5
6
8
9
11
14
16
17
19
20
20
20
20
19
20
21
22
24
27
29
31
33
34
34
34
34
33
33
33
34
36
37
39
40
41
42
41
41
40
39
38
37
36
35
33
32
29
27
25
22
20
18
16
15
13
11
9
7
5
3
1
0
-1
-3
-4
-5
-7
-8
-10
-11
-12
-12
-12
-11
-10
-9
-9
-9
-10
-12
-13
-14
-15
-15
-14
-13
-12
-11
-10
-10
-10
-11
-11
-11
-11
-11
-10
-9
-9
-8
-8
-8
-8
-8
-9
-9
-9
-10
-10
-11
-11
-11
-11
-10
-9
-8
-7
-5
-5
-5
-6
-7
-8
-10
-11
-12
-12
-12
-11
-10
-9
-8
-8
-9
-10
-12
-13
-14
-14
-14
-13
-12
-11
-10
-10
-10
-10
-10
-11
-11
-11
-11
-10
-10
-9
-8
-7
-7
-7
-7
-7
-8
-8
-7
-6
-4
-2
0
3
4
6
6
6
5
4
2
0
-2
-3
-6
-8
-10
-13
-16
-18
-20
-22
-22
-21
-19
-17
-14
-12
-11
-10
-11
-12
-14
-16
-17
-17
-17
-17
-16
-15
-15
-15
-16
-18
-19
-20
-20
-19
-18
-17
-16
-15
-15
-14
-12
-8
0
13
29
49
70
90
105
113
113
104
86
62
34
7
-17
-36
-47
-51
-48
-40
-31
-21
-12
-6
-4
-4
-6
-8
-10
-12
-12
-11
-10
-8
-7
-7
-7
-8
-10
-11
-11
-12
-11
-10
-9
-7
-6
-6
-5
-5
-5
-5
-4
-3
-2
-1
-1
0
-1
-1
-2
-3
-3
-3
-3
-2
-1
1
2
2
3
3
3
3
2
2
2
3
3
4
6
8
10
12
14
16
17
17
17
17
16
16
16
17
19
21
23
25
27
27
27
26
25
25
25
26
28
30
32
34
35
36
36
35
33
32
31
30
30
29
28
27
24
21
18
14
10
7
5
3
2
2
2
2
1
0
-1
-3
-4
-6
-7
-8
-8
-9
-10
-10
-11
-11
-12
-12
-13
-13
-13
-13
-12
-12
-11
-10
-9
-8
-8
-8
-9
-10
-12
-13
-15
-16
-17
-17
-16
-15
-14
-12
-11
-10
-9
-10
-10
-11
-12
-13
-13
-13
-13
-13
-12
-11
-11
-11
-11
-11
-12
-12
-12
-12
-12
-12
-11
-11
-11
-11
-11
-12
-12
-13
-14
-14
-15
-14
-14
-13
-12
-11
-9
-8
-8
-7
-7
-8
-9
-10
-11
-12
-13
-13
-12
-11
-9
-7
-4
-2
0
1
2
3
3
3
3
3
4
5
5
5
6
5
4
3
1
-1
-3
-5
-7
-9
-11
-14
-16
-17
-18
-19
-19
-18
-17
-16
-15
-15
-15
-16
-17
-19
-20
-21
-21
-20
-20
-19
-18
-17
-17
-17
-17
-17
-17
-17
-17
-17
-17
-17
-17
-16
-12
-5
6
23
44
67
91
113
129
136
133
120
97
68
36
4
-23
-43
-55
-59
-56
-48
-38
-28
-19
-13
-9
-8
-8
-9
-10
-11
-11
-11
-11
-11
-10
-10
-9
-9
-8
-8
-8
-8
-8
-9
-9
-10
-9
-8
-7
-5
-4
-2
-2
-2
-2
-3
-3
-3
-3
-2
0
1
2
3
2
1
0
-1
-1
-1
1
3
5
8
9
10
10
9
8
7
7
8
9
12
15
18
20
22
22
22
22
21
20
20
20
21
22
23
25
27
28
30
31
32
33
34
34
34
33
33
32
32
33
33
34
34
35
34
34
32
30
27
25
22
20
17
15
13
11
9
7
5
3
1
0
-1
-2
-2
-3
-3
-4
-6
-7
-9
-10
-11
-12
-13
-13
-12
-12
-12
-12
-12
-13
-13
-13
-13
-13
-13
-12
-12
-12
-12
-12
-13
-13
-14
-14
-14
-13
-12
-11
-10
-9
-8
-8
-8
-9
-9
-10
-11
-11
-10
-10
-9
-8
-7
-7
-7
-8
-9
-10
-11
-12
-12
-12
-11
-10
-10
-9
-9
-10
-10
-11
-12
-13
-13
-13
-13
-12
-11
-11
-10
-9
-9
-9
-9
-9
-10
-11
-11
-12
-13
-13
-13
-12
-12
-10
-9
-7
-6
-4
-3
-3
-2
-2
-2
-2
-2
-1
0
1
3
4
6
7
8
9
10
10
10
9
8
6
4
2
-1
-4
-7
-9
-11
-13
-13
-13
-13
-12
-11
-11
-11
-12
-13
-14
-16
-17
-18
-19
-19
-19
-18
-17
-17
-17
-17
-18
-18
-19
-18
-17
-16
-15
-13
-13
-13
-13
-14
-12
-7
2
17
38
63
90
116
137
150
152
142
121
91
56
21
-11
-37
-53
-61
-61
-55
-45
-36
-27
-20
-17
-15
-14
-14
-14
-13
-12
-11
-9
-9
-9
-9
-10
-10
-10
-9
-7
-4
-1
2
