31
23
16
9
4
-1
-5
-8
-10
-12
-14
-15
-16
-17
-16
-14
-10
-6
0
5
9
10
9
5
-1
-8
-15
-21
-25
-26
-24
-20
-15
-9
-5
-2
0
0
-2
-5
-8
-11
-12
-12
-10
-6
0
7
14
21
25
26
24
17
6
-8
-24
-42
-58
-73
-86
-97
-104
-109
-111
-111
-107
-101
-91
-80
-67
-53
-41
-30
-23
-18
-17
-17
-18
-18
-16
-12
-6
1
8
13
15
14
9
3
-4
-10
-13
-13
-10
-5
1
6
10
12
12
10
7
4
2
1
2
4
6
8
9
10
10
10
10
10
11
12
14
15
17
18
19
19
19
18
17
16
15
14
13
13
12
11
11
11
12
14
17
21
26
32
38
43
47
48
47
44
40
36
32
30
31
33
37
42
46
50
52
53
53
53
53
54
56
58
59
58
55
50
43
36
29
23
20
19
19
20
22
22
22
20
18
16
15
14
15
16
18
18
16
13
8
2
-4
-9
-12
-13
-12
-9
-5
-1
2
4
3
1
-2
-6
-10
-13
-15
-15
-13
-11
-8
-5
-3
-2
-2
-3
-3
-4
-4
-4
-4
-3
-3
-3
-4
-6
-9
-11
-12
-12
-12
-10
-8
-7
-8
-9
-12
-16
-20
-24
-25
-24
-21
-16
-9
-2
4
8
10
10
7
3
-1
-5
-8
-9
-8
-6
-3
-1
1
1
0
-3
-7
-12
-16
-19
-20
-20
-19
-17
-14
-12
-10
-9
-8
-8
-8
-8
-7
-5
-4
-2
-1
0
-1
-2
-4
-7
-9
-11
-11
-10
-8
-5
-2
0
1
0
-2
-5
-8
-11
-12
-13
-12
-11
-10
-10
-10
-12
-14
-16
-17
-16
-14
-10
-5
0
3
5
4
1
-4
-8
-11
-13
-12
-10
-6
-3
-1
0
-1
-5
-9
-14
-17
-19
-19
-18
-15
-12
-9
-6
-3
-1
0
2
4
6
8
10
10
10
8
6
4
1
0
0
0
1
1
2
2
1
-1
-3
-5
-8
-10
-12
-14
-16
-17
-18
-18
-18
-17
-16
-14
-12
-11
-10
-8
-7
-6
-5
-3
-1
0
1
0
-1
-4
-7
-10
-11
-10
-7
-2
5
12
19
23
25
24
20
13
4
-7
-18
-31
-45
-60
-75
-89
-102
-112
-118
-119
-116
-108
-97
-84
-71
-59
-48
-39
-33
-27
-22
-17
-12
-7
-2
1
3
3
2
0
-3
-6
-8
-9
-9
-9
-8
-8
-7
-7
-7
-6
-4
-2
1
5
9
12
14
15
15
14
13
12
11
10
11
12
13
15
16
17
18
17
16
15
13
12
10
10
10
10
11
13
14
15
16
16
16
15
15
15
15
16
18
22
26
30
34
37
40
42
42
42
42
42
42
45
48
53
57
62
65
65
64
60
54
47
40
34
29
26
25
26
26
27
28
28
28
28
28
29
30
30
30
29
26
21
17
13
10
9
9
11
13
15
16
14
12
8
5
2
0
0
0
-1
-2
-5
-9
-13
-17
-19
-18
-15
-9
-3
2
5
4
1
-4
-10
-14
-16
-15
-12
-6
-1
3
4
3
-1
-7
-11
-15
-15
-12
-8
-1
5
10
12
12
9
4
-2
-7
-11
-13
-13
-12
-8
-4
1
4
6
6
4
1
-3
-7
-10
-11
-11
-8
-5
-2
0
1
0
-2
-5
-7
-8
-7
-4
0
5
10
13
13
11
6
0
-6
-11
-14
-15
-13
-10
-5
-1
3
5
5
4
1
-2
-6
-10
-13
-15
-15
-15
-14
-13
-10
-8
-5
-3
0
2
5
6
7
7
6
4
0
-3
-7
-9
-9
-7
-4
0
4
8
9
8
4
0
-6
-11
-14
-15
-14
-11
-8
-6
-5
-5
-8
-12
-15
-18
-18
-16
-12
-7
-1
4
8
10
10
8
6
5
5
7
10
14
18
20
20
17
11
4
-4
-11
-16
-19
-20
-18
-15
-11
-8
-5
-5
-5
-7
-9
-11
-12
-12
-12
-10
-8
-6
-4
-3
-3
-3
-4
-6
-7
-8
-9
-7
-4
0
7
14
21
28
32
34
32
26
18
6
-8
-22
-37
-51
-64
-77
-89
-99
-108
-113
-116
-114
-108
-98
-84
-69
-54
-39
-28
-20
-16
-14
-14
-15
-15
-14
-11
-6
-1
4
7
9
9
7
4
0
-4
-6
-7
-7
-5
-3
0
4
6
9
10
11
12
12
12
12
12
12
12
12
11
11
11
12
12
13
14
15
16
17
17
16
14
12
11
9
9
9
11
14
17
20
23
26
28
30
32
33
35
37
39
40
40
40
38
37
35
34
34
35
37
40
43
46
48
49
48
47
45
44
43
44
46
47
49
49
47
44
39
34
30
28
28
30
34
39
44
46
45
40
33
23
13
4
-2
-4
-3
0
6
11
15
16
15
10
4
-3
-9
-14
-16
-17
-15
-13
-10
-7
-5
-4
-4
-4
-4
-3
-2
0
2
4
5
5
2
-2
-6
-11
-14
-16
-15
-12
-7
-1
3
6
7
5
1
-5
-10
-15
-18
-18
-17
-14
-10
-7
-4
-2
-2
-2
-3
-4
-5
-5
-6
-5
-5
-5
-4
-3
-2
-1
0
1
1
1
1
1
1
1
1
1
1
0
-2
-5
-10
-15
-20
-24
-26
-25
-21
-16
-9
-2
3
6
6
3
-2
-7
-13
-16
-17
-15
-11
-6
0
4
6
6
3
-2
-7
-12
-15
-16
-15
-13
-11
-10
-9
-10
-12
-14
-15
-14
-13
-9
-5
-1
2
3
3
0
-3
-6
-9
-10
-10
-8
-5
-2
1
3
4
5
6
6
7
8
9
8
7
4
-1
-6
-12
-18
-23
-25
-26
-26
-24
-22
-19
-17
-15
-13
-12
-10
-8
-6
-4
-3
-3
-3
-5
-8
-10
-12
-14
-14
-12
-10
-7
-4
-2
-2
-2
-4
-6
-8
-8
-8
-6
-2
2
6
9
11
10
6
1
-7
-16
-26
-37
-49
-61
-73
-85
-96
-104
-111
-114
-114
-110
-102
-92
-79
-66
-52
-39
-28
-18
-10
-5
-1
0
-1
-3
-6
-9
-12
-13
-14
-13
-11
-9
-7
-6
-5
-5
-5
-4
-3
-1
2
5
7
8
8
6
4
2
1
1
2
5
9
12
14
15
14
12
8
4
1
0
-1
1
5
10
15
19
22
24
23
20
16
11
7
4
4
6
11
19
26
34
39
42
42
40
37
33
30
28
28
30
33
35
38
40
41
41
41
42
43
45
48
51
54
56
57
56
54
51
48
45
41
38
36
34
32
29
27
24
21
19
17
15
15
15
16
18
18
18
16
13
8
2
-4
-9
-12
-12
-10
-6
0
5
9
11
11
8
4
-1
-4
-7
-7
-6
-4
-3
-3
-6
-10
-15
-21
-26
-29
-29
-26
-21
-15
-9
-3
0
2
2
1
-1
-2
-3
-4
-4
-3
-3
-4
-5
-6
-7
-7
-6
-4
-1
3
7
10
11
11
8
3
-3
-9
-15
-20
-23
-24
-23
-20
-17
-13
-10
-7
-4
-3
-1
0
1
2
3
3
3
3
2
1
1
0
1
2
3
4
5
4
3
0
-3
-7
-9
-11
-10
-9
-6
-2
1
4
5
4
2
-2
-5
-8
-10
-11
-9
-7
-3
1
5
9
11
13
13
12
10
8
6
3
1
-1
-3
-4
-4
-3
-2
0
2
4
5
5
4
2
-1
-5
-9
-12
-15
-18
-19
-19
-19
-18
-16
-14
-11
-8
-5
-3
-1
0
0
-2
-4
-6
-7
-8
-7
-4
0
5
11
16
20
22
22
19
13
4
-7
-21
-36
-52
-67
-81
-93
-101
-106
-107
-105
-100
-92
-84
-75
-67
-60
-54
-49
-44
-39
-34
-28
-21
-14
-7
-1
2
4
4
2
-1
-4
-7
-8
-8
-6
-3
1
5
8
11
12
11
9
7
4
2
1
2
3
6
10
13
16
18
18
16
14
10
7
5
5
6
8
11
15
18
20
22
22
22
22
22
23
24
25
26
27
27
26
25
25
25
26
29
33
37
40
43
45
46
46
47
47
49
51
54
56
58
57
56
52
48
43
40
38
39
42
47
51
55
56
55
51
45
38
32
26
23
22
23
26
28
31
32
33
32
31
29
26
24
21
18
15
11
7
3
-1
-4
-6
-6
-6
-4
-1
2
4
5
4
2
-1
-6
-10
-14
-17
-17
-17
-15
-12
-10
-8
-7
-8
-9
-10
-10
-10
-9
-6
-3
0
2
3
3
2
0
-3
-5
-6
-6
-6
-5
-4
-4
-5
-7
-9
-11
-14
-15
-16
-16
-16
-15
-14
-13
-12
-12
-12
-12
-12
-11
-9
-6
-3
1
4
6
7
7
6
3
1
-2
-4
-5
-6
-5
-4
-3
-1
0
1
2
2
2
1
0
-1
-3
-5
-9
-12
-15
-18
-20
-21
-20
-18
-16
-13
-10
-7
-5
-4
-3
-2
-1
0
1
2
3
4
5
4
4
2
1
0
-1
-1
0
2
5
8
10
12
12
10
7
3
-2
-6
-9
-10
-10
-8
-6
-3
-1
0
-1
-3
-6
-9
-12
-15
-16
-16
-16
-16
-16
-17
-18
-20
-22
-22
-21
-18
-13
-7
0
6
11
14
14
13
10
7
5
5
5
8
10
11
10
5
-3
-14
-29
-44
-59
-72
-83
-90
-95
-97
-97
-96
-94
-91
-87
-80
-71
-59
-44
-29
-14
-2
6
8
5
-1
-10
-19
-26
-29
-28
-23
-16
-8
0
5
8
9
7
6
4
4
5
6
6
6
4
0
-3
-7
-8
-7
-2
4
12
19
25
28
28
25
21
15
10
7
5
6
7
9
11
12
12
11
11
10
10
11
12
13
14
15
15
14
14
14
16
20
25
31
38
45
50
53
53
51
46
41
36
32
30
30
32
35
38
41
43
44
43
42
41
41
40
40
39
38
37
35
33
31
28
26
24
22
20
18
16
14
13
14
16
20
24
28
31
30
27
21
13
4
-3
-9
-12
-12
-10
-8
-6
-6
-8
-11
-15
-19
-22
-24
-24
-22
-19
-16
-12
-10
-9
-8
-8
-9
-9
-11
-12
-13
-14
-14
-13
-11
-7
-3
1
4
7
7
6
3
-1
-6
-10
-14
-15
-15
-14
-12
-10
-9
-8
-8
-9
-11
-13
-15
-16
-16
-15
-14
-12
-10
-8
-6
-4
-2
0
2
4
5
6
5
4
1
-3
-7
-11
-14
-16
-17
-17
-15
-12
-9
-6
-4
-4
-5
-7
-11
-15
-18
-20
-21
-19
-15
-10
-4
2
6
9
9
6
1
-5
-11
-15
-16
-15
-12
-7
-2
2
4
4
2
-1
-3
-5
-5
-3
0
3
6
7
5
1
-4
-10
-16
-20
-21
-20
-17
-12
-7
-3
0
1
1
-1
-4
-7
-9
-10
-11
-10
-9
-8
-7
-6
-5
-5
-4
-4
-3
-3
-2
-3
-4
-7
-10
-13
-16
-17
-17
-15
-10
-4
3
9
15
17
16
11
3
-8
-21
-34
-46
-58
-67
-76
-84
-90
-96
-101
-103
-103
-100
-93
-82
-70
-56
-42
-31
-22
-15
-11
-9
-7
-5
-2
1
4
6
7
5
1
-5
-10
-14
-17
-16
-13
-8
-2
4
8
11
11
10
8
5
3
3
3
4
5
6
7
8
8
8
9
11
14
18
21
24
26
26
23
19
15
10
6
5
6
9
13
18
23
26
27
27
25
23
21
20
20
22
26
29
32
34
34
33
32
30
29
30
31
35
39
44
49
54
58
60
60
59
57
54
51
48
44
42
40
38
37
37
36
34
32
29
27
24
21
19
17
16
14
13
12
11
10
9
9
9
10
11
12
11
10
7
4
0
-4
-6
-7
-7
-6
-4
-2
-2
-3
-5
-7
-10
-13
-14
-14
-13
-11
-8
-6
-5
-4
-4
-5
-6
-7
-7
-7
-7
-6
-5
-4
-4
-3
-3
-2
-1
0
1
2
2
1
-1
-2
-4
-5
-5
-5
-4
-3
-3
-2
-3
-4
-6
-8
-11
-13
-15
-16
-16
-15
-14
-13
-11
-10
-8
-6
-4
-2
0
3
4
6
6
6
4
3
1
-1
-2
-3
-3
-2
-2
-3
-4
-5
-7
-10
-11
-12
-11
-9
-7
-4
0
2
4
4
4
3
1
-1
-2
-4
-5
-6
-7
-7
-7
-6
-5
-3
-1
2
3
5
5
5
5
5
4
4
5
5
6
6
6
5
4
3
2
2
2
2
3
3
2
0
-3
-7
-10
-13
-14
-14
-12
-10
-8
-6
-5
-6
-7
-9
-11
-12
-11
-10
-7
-5
-3
-2
-3
-4
-5
-6
-6
-3
1
6
13
20
26
30
31
29
23
13
0
-16
-34
-54
-73
-91
-106
-118
-125
-126
-122
-113
-101
-86
-71
-56
-44
-34
-27
-21
-17
-14
-11
-8
-6
-3
-2
-2
-3
-3
-3
-2
1
6
13
19
25
29
30
27
21
13
4
-5
-11
-15
-16
-14
-10
-6
-1
3
6
7
7
7
6
6
6
7
9
11
14
16
18
19
19
18
17
17
17
17
19
22
25
27
29
29
28
26
24
22
21
22
24
27
31
35
38
39
39
37
35
33
31
31
31
34
37
41
44
47
49
50
50
50
50
51
51
52
52
52
49
46
40
34
27
22
18
16
17
19
22
25
26
25
22
16
11
5
1
-1
-1
1
3
6
9
9
9
7
4
1
-1
-2
-2
-2
-2
-3
-4
-5
-6
-7
-6
-3
0
5
8
10
10
7
1
-6
-14
-21
-26
-27
-25
-20
-14
-7
-2
1
2
0
-4
-7
-10
-11
-10
-7
-4
-1
0
0
-3
-6
-10
-13
-15
-14
-12
-9
-5
-2
0
-1
-3
-6
-10
-12
-14
-14
-12
-10
-7
-4
-2
-1
0
1
1
2
3
4
5
6
6
5
2
-1
-5
-9
-13
-17
-19
-19
-17
-14
-10
-5
0
4
6
8
7
5
3
0
-4
-7
-9
-12
-13
-14
-14
-13
-10
-6
-1
4
9
13
14
12
7
1
-6
-13
-17
-19
-18
-14
-9
-4
0
3
4
4
3
2
2
3
5
7
9
10
10
8
4
0
-4
-7
-10
-11
-11
-10
-9
-7
-5
-4
-3
-2
-2
-3
-4
-6
-8
-10
-11
-12
-12
-11
-10
-8
-7
-6
-6
-7
-9
-11
-13
-14
-14
-13
-10
-7
-2
3
9
13
17
19
19
17
13
7
-1
-12
-24
-38
-53
-68
-83
-97
-108
-115
-119
-118
-113
-103
-91
-77
-63
-49
-37
-28
-21
-17
-14
-12
-11
-9
-8
-6
-4
-3
-2
-2
-1
0
2
4
7
11
14
16
18
17
16
13
10
7
4
2
1
0
-1
-2
-3
-4
-5
-6
-5
-3
1
6
11
16
20
23
25
24
23
20
16
13
10
8
7
8
10
13
17
20
23
24
25
24
23
23
23
25
28
31
35
37
39
38
36
33
31
29
29
31
36
41
46
51
55
57
58
57
56
53
51
48
45
42
39
36
34
33
33
33
34
35
35
34
32
29
25
21
18
14
12
10
9
8
7
6
5
4
2
1
-1
-2
-2
-2
-1
0
1
2
3
2
0
-2
-6
-10
-13
-16
-18
-18
-17
-15
-12
-10
-9
-9
-9
-11
-12
-13
-13
-11
-8
-5
-2
1
1
1
-2
-5
-8
-10
-11
-10
-8
-5
-2
-1
0
-2
-4
-8
-11
-13
-14
-13
-11
-8
-6
-5
-5
-7
-10
-13
-15
-16
-15
-13
-10
-8
-6
-6
-7
-9
-12
-14
-14
-12
-8
-3
2
6
9
9
6
1
-5
-10
-14
-17
-17
-15
-11
-8
-4
-2
-1
-1
-2
-4
-5
-6
-7
-8
-8
-9
-10
-11
-12
-14
-15
-15
-13
-11
-7
-3
2
5
7
8
6
3
-1
-5
-10
-13
-14
-14
-13
-11
-9
-8
-7
-8
-10
-12
-13
-14
-13
-11
-7
-2
2
6
8
8
7
5
4
2
3
4
7
9
11
11
8
4
-1
-6
-10
-13
-13
-12
-9
-7
-5
-6
-8
-13
-18
-23
-26
-26
-25
-21
-15
-10
-6
-3
-2
-3
-5
-8
-10
-11
-11
-10
-8
-5
-2
2
5
8
12
15
18
21
22
22
19
12
3
-10
-26
-43
-62
-79
-94
-106
-114
-117
-115
-110
-101
-90
-78
-66
-54
-44
-35
-28
-22
-18
-15
-13
-11
-11
-11
-11
-11
-10
-7
-3
2
8
14
19
22
23
21
18
13
8
4
1
0
0
2
4
6
9
11
12
12
12
12
12
12
12
12
12
12
12
12
13
15
18
21
25
29
32
35
37
37
37
37
36
36
36
38
40
43
46
47
47
45
41
36
31
26
22
21
23
26
32
38
44
48
51
52
51
50
48
46
44
43
42
42
41
41
40
40
39
39
39
38
37
36
34
33
33
33
34
36
37
38
37
33
28
21
13
6
1
-2
-3
-3
-2
-2
-3
-5
-9
-14
-18
-20
-20
-17
-13
-8
-3
0
1
0
-2
-4
-6
-5
-3
0
4
7
8
7
4
0
-5
-9
-11
-11
-9
-6
-3
-1
-1
-3
-7
-13
-19
-24
-27
-28
-26
-22
-17
-12
-7
-4
-3
-4
-6
-9
-11
-11
-10
-7
-4
0
3
5
5
3
1
-2
-5
-6
-7
-6
-5
-4
-3
-4
-6
-8
-10
-10
-10
-8
-5
-2
0
1
0
-4
-8
-12
-15
-17
-15
-12
-6
-1
4
7
8
6
3
-2
-6
-10
-12
-12
-11
-10
-8
-6
-5
-5
-6
-7
-7
-7
-6
-4
-2
0
3
5
6
6
6
4
2
0
-3
-6
-9
-10
-11
-11
-10
-9
-7
-6
-5
-5
-6
-7
-8
-9
-10
-9
-7
-5
-2
0
2
3
3
2
1
0
0
1
2
5
8
10
11
10
8
4
-1
-7
-11
-14
-16
-15
-12
-8
-4
0
2
3
1
-1
-5
-8
-11
-12
-11
-10
-7
-5
-4
-4
-6
-9
-13
-16
-18
-18
-16
-13
-8
-3
1
4
6
7
8
8
9
10
10
9
5
-1
-12
-26
-43
-61
-79
-93
-104
-111
-112
-110
-104
-96
-87
-77
-67
-58
-48
-39
-31
-24
-18
-15
-13
-13
-13
-14
-13
-12
-9
-5
0
3
5
6
4
1
-3
-6
-9
-10
-9
-7
-4
-1
2
4
5
5
6
6
8
10
12
15
17
18
18
15
12
7
2
-3
-6
-7
-7
-4
1
6
12
18
23
26
28
28
28
27
25
24
22
21
20
20
21
22
25
28
31
35
37
37
36
33
30
26
25
25
28
33
39
46
51
53
54
52
49
45
43
42
43
44
44
44
41
37
31
26
22
20
20
23
27
30
31
30
26
20
15
10
8
9
12
16
19
21
18
13
6
-3
-11
-16
-19
-18
-15
-11
-8
-5
-5
-7
-9
-12
-15
-15
-14
-12
-9
-6
-4
-3
-4
-7
-10
-13
-15
-16
-15
-12
-9
-5
-1
2
4
5
5
5
4
2
1
0
-2
-3
-5
-7
-10
-12
-14
-16
-17
-17
-17
-15
-14
-13
-11
-9
-7
-4
-2
1
3
4
5
4
1
-2
-5
-8
-10
-10
-8
-4
1
6
10
13
14
13
11
7
3
0
-3
-4
-4
-4
-2
-1
1
2
3
3
2
1
-1
-3
-6
-8
-10
-11
-11
-9
-6
-3
1
4
6
6
5
3
0
-3
-5
-6
-6
-5
-4
-4
-5
-6
-8
-10
-11
-11
-10
-8
-5
-2
0
1
1
0
-2
-3
-4
-3
-1
2
5
8
9
9
8
6
3
2
1
3
5
9
13
17
18
18
15
11
6
1
-3
-5
-6
-4
-1
3
6
8
8
7
4
0
-4
-7
-9
-9
-7
-4
1
5
8
8
7
3
-2
-8
-14
-19
-21
-22
-21
-19
-16
-14
-12
-11
-11
-12
-12
-13
-12
-9
-5
1
9
18
28
36
42
44
42
34
20
3
-18
-39
-60
-78
-92
-101
-105
-105
-102
-96
-88
-80
-71
-63
-56
-50
-45
-41
-39
-37
-35
-32
-27
-22
-16
-11
-6
-3
-2
-2
-4
-6
-7
-6
-3
1
6
10
13
14
12
9
5
2
1
1
3
6
9
11
12
11
10
8
6
6
6
7
8
9
10
8
7
4
2
0
-1
0
1
4
7
10
13
16
20
23
27
30
32
33
33
33
32
31
31
33
34
37
39
41
41
41
40
39
38
39
40
43
47
50
51
51
49
45
41
36
32
30
30
31
33
36
39
41
41
41
39
37
35
32
30
28
25
23
21
20
19
18
19
19
20
20
19
17
13
8
2
-5
-11
-16
-19
-21
-21
-20
-17
-14
-11
-8
-6
-5
-5
-5
-6
-6
-7
-8
-9
-10
-10
-11
-12
-13
-13
-13
-12
-10
-8
-5
-2
1
3
4
3
0
-4
-9
-15
-20
-25
-28
-28
-26
-21
-15
-9
-3
2
4
4
2
-1
-5
-9
-12
-12
-12
-10
-7
-4
-2
-1
-2
-3
-6
-8
-10
-11
-10
-8
-6
-4
-3
-3
-4
-6
-9
-13
-15
-16
-15
-13
-10
-6
-2
0
2
2
1
0
-3
-5
-8
-10
-12
-13
-14
-15
-14
-13
-11
-8
-5
-1
2
4
6
5
4
1
-3
-6
-10
-12
-14
-14
-14
-14
-13
-11
-9
-7
-3
0
4
7
10
12
13
13
13
11
10
9
9
8
8
8
7
6
3
1
-2
-4
-6
-7
-7
-7
-6
-5
-4
-3
-3
-3
-5
-6
-8
-9
-10
-10
-9
-7
-5
-3
-1
0
0
-2
-4
-6
-7
-8
-8
-6
-4
-3
-2
-3
-5
-9
-13
-16
-17
-15
-10
-1
9
20
29
35
36
32
21
5
-14
-34
-55
-73
-88
-99
-106
-109
-108
-105
-100
-93
-84
-75
-66
-56
-47
-39
-32
-26
-22
-19
-17
-15
-14
-12
-9
-7
-4
-1
1
3
4
5
5
4
3
1
0
-2
-4
-6
-7
-8
-7
-4
-1
3
8
11
13
14
14
12
11
10
10
11
13
16
18
20
19
17
13
9
6
5
7
11
17
24
31
36
38
37
34
30
26
23
21
22
24
28
31
34
36
37
37
37
38
40
43
46
50
52
54
54
52
50
48
46
45
46
47
50
53
56
57
58
56
54
51
47
44
42
40
38
37
37
35
34
32
29
26
24
22
20
19
18
17
15
13
10
6
2
-1
-3
-4
-4
-3
-2
-1
-1
-1
-1
-2
-2
-1
0
1
1
1
0
-2
-6
-10
-14
-17
-18
-18
-17
-14
-11
-8
-6
-4
-4
-4
-4
-4
-4
-4
-3
-3
-2
-1
-1
-2
-3
-5
-7
-9
-11
-12
-12
-10
-7
-3
2
6
9
10
9
6
1
-5
-10
-14
-17
-17
-15
-11
-6
-2
2
4
4
3
0
-3
-6
-9
-11
-11
-10
-8
-4
-1
2
4
4
3
0
-4
-8
-12
-15
-16
-16
-14
-11
-8
-6
-5
-5
-5
-7
-8
-9
-9
-8
-6
-5
-3
-2
-2
-3
-4
-6
-8
-8
-9
-8
-7
-5
-3
-2
-1
0
1
1
0
-1
-2
-3
-5
-7
-9
-11
-13
-14
-14
-14
-12
-10
-8
-5
-1
3
7
11
14
17
18
17
14
9
3
-4
-10
-14
-17
-17
-15
-11
-7
-3
0
1
0
-2
-6
-10
-15
-18
-21
-22
-22
-22
-20
-18
-16
-13
-10
-8
-5
-4
-3
-2
-3
-4
-5
-5
-4
-1
4
10
16
22
27
28
26
20
11
-2
-16
-32
-48
-64
-79
-92
-102
-111
-117
-120
-119
-116
-109
-99
-87
-74
-59
-46
-33
-22
-13
-7
-2
0
1
1
0
0
0
1
2
3
4
5
5
4
3
0
-2
-4
-6
-6
-5
-3
-1
0
0
0
-1
-2
-3
-2
1
5
9
14
18
20
19
15
11
5
1
-1
0
4
9
16
22
27
28
27
23
18
13
9
7
8
10
14
17
20
22
22
21
19
17
17
17
19
23
28
33
39
44
49
53
56
57
57
56
53
50
46
42
39
37
37
39
41
44
45
45
44
41
36
30
25
20
17
15
15
16
17
18
18
17
15
12
10
8
7
6
7
8
10
11
12
11
8
4
-2
-9
-16
-23
-27
-29
-29
-26
-21
-15
-9
-5
-2
-2
-4
-7
-11
-15
-18
-19
-20
-19
-19
-17
-16
-15
-12
-9
-6
-1
2
5
6
5
2
-3
-9
-14
-18
-21
-21
-20
-18
-16
-14
-14
-13
-13
-12
-11
-7
-3
1
5
7
7
5
2
-2
-6
-9
-10
-9
-6
-3
1
3
5
4
3
0
-2
-5
-7
-8
-8
-8
-9
-9
-9
-10
-11
-11
-10
-9
-7
-5
-3
-1
1
1
2
1
1
1
1
1
1
0
0
-1
-2
-3
-4
-5
-5
-4
-3
-2
-1
-1
-2
-4
-6
-7
-7
-6
-3
0
4
7
9
9
8
5
2
0
-1
-1
0
3
5
6
6
5
3
0
-2
-2
-1
2
5
9
11
12
10
7
3
-1
-4
-4
-3
-1
3
6
8
8
6
2
-3
-8
-12
-15
-15
-13
-10
-5
0
4
7
8
7
5
1
-3
-7
-10
-13
-13
-13
-11
-9
-6
-2
2
6
10
15
19
22
22
20
14
4
-10
-26
-44
-60
-75
-86
-93
-96
-95
-92
-87
-83
-79
-75
-71
-66
-60
-52
-43
-33
-23
-15
-9
-5
-4
-6
-8
-11
-14
-15
-15
-13
-10
-7
-3
0
3
5
7
9
10
11
12
12
12
11
10
9
8
7
7
8
8
9
10
10
11
10
10
10
10
11
11
12
13
13
13
12
10
8
6
6
6
8
11
15
18
21
22
23
22
22
22
22
24
27
31
34
37
39
41
41
41
41
40
40
40
40
39
38
36
35
34
33
34
36
39
42
46
48
50
49
47
44
40
36
32
29
28
27
27
28
29
29
28
26
22
18
13
9
5
2
1
0
0
0
0
-1
-3
-5
-8
-10
-12
-12
-12
-10
-7
-4
-2
0
1
1
-1
-3
-5
-8
-11
-14
-16
-19
-20
-21
-21
-20
-18
-15
-11
-7
-4
-3
-3
-5
-9
-13
-17
-20
-21
-20
-17
-13
-8
-4
-1
0
-1
-3
-7
-9
-11
-12
-11
-9
-7
-5
-4
-5
-7
-11
-15
-19
-20
-20
-17
-12
-7
-1
4
6
6
4
0
-4
-9
-13
-15
-15
-13
-9
-4
0
4
5
5
2
-3
-9
-14
-18
-20
-20
-17
-13
-8
-3
-1
0
-1
-5
-9
-12
-15
-16
-14
-12
-8
-5
-3
-2
-3
-4
-6
-7
-6
-3
1
6
11
16
18
18
16
12
7
1
-3
-6
-7
-7
-4
0
4
9
14
19
22
24
24
22
18
13
7
0
-6
-11
-13
-13
-10
-5
1
7
11
13
12
9
3
-3
-9
-13
-15
-14
-11
-8
-4
-1
1
1
-1
-3
-5
-6
-6
-4
-1
2
6
9
11
13
14
15
16
16
14
12
7
-1
-11
-24
-38
-53
-68
-81
-91
-99
-103
-104
-102
-98
-91
-82
-72
-62
-51
-42
-33
-25
-18
-12
-7
-3
1
4
6
7
6
3
0
-3
-6
-7
-6
-3
1
6
11
14
16
16
14
10
5
1
-2
-3
-3
-1
1
4
7
9
11
11
11
10
10
10
11
13
15
18
21
24
25
26
25
24
22
21
20
20
21
22
23
24
23
22
20
18
17
17
18
21
25
29
32
35
37
37
37
37
37
37
39
42
45
48
50
52
52
51
49
47
45
43
41
40
38
38
37
36
36
36
35
35
34
34
33
32
31
29
27
25
22
18
14
9
5
1
-1
-3
-3
-1
1
3
6
7
7
6
4
1
-2
-4
-5
-5
-3
0
3
5
5
4
2
-2
-6
-9
-11
-12
-12
-10
-8
-6
-5
-4
-5
-6
-7
-7
-6
-5
-3
0
2
3
2
1
-2
-5
-7
-9
-8
-7
-5
-3
-1
-1
-3
-6
-10
-14
-17
-19
-18
-17
-14
-12
-10
-10
-11
-12
-13
-14
-14
-12
-9
-6
-3
-2
-1
-1
-1
-2
-2
-1
0
2
3
3
2
-1
-5
-9
-12
-15
-16
-15
-13
-10
-6
-2
0
1
0
-2
-6
-10
-14
-17
-18
-18
-16
-12
-7
-2
1
3
3
0
-4
-9
-13
-16
-17
-16
-12
-7
-2
2
4
4
3
-1
-4
-8
-11
-13
-13
-13
-12
-10
-8
-5
-2
1
4
7
8
8
6
1
-5
-11
-17
-20
-21
-19
-14
-8
-2
3
5
4
2
-3
-8
-12
-15
-16
-15
-13
-10
-9
-8
-9
-11
-14
-17
-19
-20
-19
-18
-16
-14
-13
-13
-14
-16
-17
-17
-16
-14
-9
-4
2
8
13
17
17
16
11
3
-7
-19
-32
-46
-61
-74
-85
-94
-99
-101
-100
-95
-88
-80
-70
-61
-52
-45
-38
-33
-30
-28
-28
-30
-33
-36
-38
-38
-36
-31
-23
-13
-2
8
16
21
23
22
19
15
13
13
16
21
28
35
41
44
44
42
37
30
24
19
15
13
12
12
12
12
11
10
9
8
7
6
7
8
10
12
15
18
21
23
25
26
27
27
26
26
26
28
31
34
37
39
40
39
37
33
29
27
25
26
29
32
36
39
41
40
39
36
34
33
33
35
39
42
45
46
46
43
40
35
31
28
26
24
24
23
23
24
24
25
26
27
29
30
30
28
25
20
14
9
4
0
-1
0
2
4
6
7
7
6
4
1
0
-1
-1
-1
-1
-2
-3
-4
-6
-6
-4
0
6
13
18
22
22
17
10
0
-10
-18
-23
-24
-20
-14
-7
-1
2
2
-2
-8
-14
-19
-22
-21
-17
-11
-5
1
4
5
3
1
-2
-5
-6
-7
-7
-6
-6
-7
-8
-9
-11
-12
-13
-13
-14
-15
-18
-21
-25
-28
-30
-30
-28
-24
-19
-14
-10
-9
-9
-12
-15
-19
-21
-22
-21
-19
-16
-13
-11
-11
-11
-13
-16
-18
-20
-21
-21
-21
-21
-20
-20
-19
-18
-16
-14
-13
-11
-10
-11
-13
-15
-18
-21
-22
-22
-21
-18
-14
-11
-8
-6
-6
-6
-8
-9
-10
-9
-8
-5
-1
4
8
11
14
15
15
14
12
10
8
5
4
3
2
3
3
5
6
7
8
8
8
7
6
5
4
3
4
4
4
4
3
1
-1
-4
-6
-7
-7
-6
-4
-1
2
5
8
9
10
10
10
8
7
5
4
3
2
1
1
1
2
3
4
7
11
16
21
27
32
34
34
29
19
3
-15
-36
-57
-76
-90
-98
-101
-98
-92
-84
-75
-67
-59
-53
-46
-39
-32
-24
-16
-8
-2
1
3
2
1
-1
-2
-2
0
3
6
8
9
9
6
3
-1
-4
-6
-7
-6
-5
-2
0
2
4
6
7
8
8
8
8
8
8
8
8
9
10
12
15
18
21
24
25
26
25
23
20
17
15
13
13
13
15
17
20
23
25
27
28
28
28
27
27
27
28
29
31
33
35
37
39
40
42
42
42
42
41
40
39
38
37
37
39
41
43
46
49
52
53
53
53
51
49
47
46
44
43
42
40
38
34
29
23
17
10
3
-2
-5
-7
-7
-6
-3
-1
2
4
5
5
5
5
4
3
1
0
-2
-3
-4
-6
-7
-8
-8
-9
-10
-10
-9
-8
-6
-4
-1
1
2
1
-1
-4
-9
-13
-17
-19
-19
-16
-13
-9
-5
-2
0
0
-1
-3
-4
-4
-3
-2
0
2
2
1
-1
-4
-7
-9
-10
-9
-7
-5
-3
-3
-5
-8
-13
-17
-20
-21
-18
-13
-7
1
7
11
11
9
4
-2
-8
-11
-12
-10
-6
-1
3
6
6
4
0
-5
-10
-13
-14
-12
-9
-6
-2
0
1
0
-2
-5
-8
-10
-11
-10
-8
-6
-4
-2
0
0
-2
-4
-8
-12
-16
-19
-21
-22
-20
-15
-9
-3
4
9
12
12
9
5
-2
-8
-12
-15
-14
-11
-6
0
5
10
12
12
9
5
0
-5
-9
-11
-12
-12
-11
-10
-10
-11
-13
-15
-18
-20
-21
-20
-17
-12
-7
-2
1
2
1
-2
-7
-12
-17
-20
-20
-19
-16
-12
-8
-5
-2
0
2
4
7
10
13
15
14
11
3
-8
-22
-37
-53
-67
-79
-88
-94
-96
-97
-96
-93
-90
-86
-80
-72
-63
-52
-41
-31
-23
-17
-15
-15
-18
-21
-24
-24
-23
-20
-15
-9
-3
1
4
4
4
2
0
-1
-2
-3
-3
-3
-2
-2
0
4
9
15
21
27
30
30
26
19
9
-3
-13
-20
-23
-22
-17
-9
-2
5
9
9
8
5
3
3
6
11
18
25
31
35
35
32
27
21
17
16
17
21
28
34
39
41
41
38
34
29
26
26
27
31
36
40
43
43
42
38
35
32
30
31
34
39
44
48
50
50
47
43
39
35
32
30
29
30
30
29
28
26
23
20
18
16
15
13
11
8
4
-1
-7
-13
-17
-19
-19
-16
-13
-9
-5
-4
-3
-5
-7
-10
-12
-12
-12
-10
-8
-6
-6
-8
-10
-14
-18
-21
-22
-22
-19
-15
-10
-5
-1
2
2
1
-1
-5
-8
-12
-14
-15
-16
-15
-14
-13
-12
-11
-11
-12
-12
-13
-13
-12
-11
-9
-7
-5
-4
-3
-3
-3
-4
-6
-7
-9
-10
-10
-10
-10
-10
-9
-8
-8
-7
-6
-5
-5
-5
-6
-7
-8
-10
-12
-13
-13
-12
-11
-9
-7
-5
-4
-3
-3
-4
-4
-4
-4
-3
-2
-1
-1
-1
-1
-3
-6
-9
-12
-14
-15
-15
-14
-11
-9
-6
-3
-1
0
0
-1
-2
-4
-5
-6
-6
-7
-7
-7
-8
-10
-11
-13
-14
-14
-14
-12
-10
-8
-6
-4
-2
-1
0
1
2
5
7
9
10
10
8
4
-1
-6
-11
-14
-15
-13
-10
-5
0
5
9
11
11
9
7
5
2
1
0
1
1
2
3
4
4
3
2
0
-3
-6
-8
-10
-11
-11
-10
-9
-6
-4
-1
1
2
1
0
-2
-4
-6
-8
-8
-8
-7
-6
-5
-4
-3
-3
-3
-2
-1
1
4
8
12
17
20
21
19
13
4
-8
-23
-40
-57
-73
-86
-96
-102
-103
-100
-94
-86
-76
-66
-56
-48
-40
-33
-26
-20
-14
-9
-4
-1
2
3
4
4
3
4
4
5
7
8
9
8
7
5
3
1
1
3
6
10
14
16
18
17
15
12
8
6
5
7
9
13
18
21
23
25
24
24
23
22
22
22
23
24
24
24
24
23
22
21
21
21
21
22
22
23
24
26
28
32
37
42
47
51
53
53
52
50
47
45
43
43
43
45
47
49
51
52
53
53
53
53
53
53
54
54
54
53
52
50
49
47
46
46
46
46
47
47
46
44
40
35
29
23
18
15
15
16
19
23
26
27
27
24
20
14
9
5
2
2
3
5
8
10
10
9
7
5
3
2
2
4
7
10
12
14
14
12
10
7
4
2
2
2
4
5
7
8
8
8
7
6
6
6
8
9
11
13
14
14
14
13
11
10
9
8
8
8
8
8
8
7
7
7
7
7
8
10
11
12
12
13
13
13
14
14
15
16
16
14
12
9
6
4
2
3
5
9
14
18
20
21
19
15
10
6
3
4
6
11
17
23
28
30
29
25
20
15
9
6
4
4
5
7
9
10
10
8
6
3
0
-2
-5
-8
-10
-12
-13
-15
-16
-16
-17
-17
-17
-17
-18
-20
-22
-25
-29
-33
-37
-40
-43
-45
-47
-49
-50
-53
-55
-59
-64
-69
-74
-79
-83
-87
-89
-92
-94
-96
-98
-100
-103
-105
-107
-106
-103
-99
-92
-85
-77
-71
-66
-63
-61
-61
-60
-59
-57
-53
-48
-43
-38
-35
-34
-35
-38
-42
-47
-49
-51
-49
-46
-42
-36
-31
-27
-24
-23
-23
-25
-27
-28
-29
-29
-27
-25
-23
-21
-19
-18
-17
-15
-14
-11
-7
-2
3
8
12
13
13
10
6
-1
-7
-14
-21
-28
-36
-44
-55
-66
-79
-91
-102
-111
-115
-114
-108
-98
-83
-66
-48
-31
-17
-6
0
3
3
0
-3
-5
-6
-5
-2
2
7
10
11
9
5
0
-6
-10
-12
-10
-5
3
11
18
22
23
20
15
9
4
1
2
5
10
17
23
27
28
27
25
21
18
16
15
16
18
20
22
23
25
26
27
28
30
31
33
33
33
31
29
25
22
19
17
18
21
26
33
40
48
54
59
61
62
60
56
51
46
42
40
39
41
44
49
55
60
64
67
68
66
64
60
56
52
48
46
45
45
45
45
45
44
41
38
34
30
27
24
23
22
21
21
20
18
17
14
13
12
12
13
15
17
19
20
19
15
11
5
-1
-7
-10
-11
-9
-6
-2
2
6
8
9
8
7
5
3
3
3
5
6
8
9
10
9
7
5
3
2
2
2
3
5
6
6
5
3
1
-2
-3
-3
-2
1
4
8
10
10
9
6
2
-2
-4
-5
-3
0
3
7
10
10
10
8
6
4
4
6
8
11
12
12
10
6
1
-5
-8
-10
-8
-4
2
8
13
15
14
10
5
-1
-6
-9
-8
-5
-1
5
10
14
15
14
11
7
4
1
0
0
2
5
7
9
10
9
8
6
4
2
1
0
-1
-2
-2
-2
-3
-3
-2
-2
-1
-1
-1
-1
-2
-3
-4
-5
-4
-3
0
2
4
5
4
2
-1
-4
-6
-6
-5
-2
1
4
5
4
1
-3
-8
-12
-14
-13
-10
-4
2
7
11
12
11
7
3
-1
-4
-4
-2
1
6
11
16
19
20
19
17
13
9
4
-1
-5
-9
-11
-12
-12
-11
-9
-6
-4
-1
1
2
2
3
3
2
3
3
4
4
4
3
1
-2
-6
-11
-15
-19
-20
-20
-16
-10
-2
5
12
16
16
13
6
-2
-10
-16
-18
-15
-8
1
12
21
27
28
23
13
-2
-19
-37
-53
-69
-81
-91
-98
-102
-103
-101
-96
-88
-77
-64
-51
-39
-28
-19
-14
-11
-11
-12
-13
-14
-14
-13
-12
-10
-7
-4
-1
3
6
10
13
15
15
14
12
9
5
3
1
2
4
8
11
14
15
15
12
9
5
1
0
0
2
5
9
13
16
18
19
19
18
16
15
13
12
11
11
11
11
11
13
14
16
19
22
25
27
30
32
33
33
33
32
31
30
29
28
29
30
31
34
37
41
44
47
49
50
49
48
47
45
43
42
42
41
41
40
38
37
36
35
35
36
38
40
42
42
39
34
27
19
11
4
-1
-2
-1
1
4
7
7
5
1
-4
-9
-13
-14
-12
-9
-4
0
3
4
2
-2
-6
-11
-15
-16
-16
-15
-12
-10
-9
-9
-11
-12
-14
-15
-16
-15
-14
-13
-13
-13
-14
-16
-18
-20
-20
-18
-15
-11
-7
-4
-2
-2
-3
-6
-9
-11
-13
-14
-13
-11
-9
-8
-7
-8
-10
-13
-17
-20
-22
-23
-22
-20
-18
-15
-13
-11
-10
-9
-8
-6
-5
-2
0
2
4
4
3
0
-4
-8
-12
-15
-16
-17
-16
-15
-14
-13
-14
-15
-17
-20
-22
-23
-22
-20
-16
-10
-5
1
5
8
8
7
3
-1
-7
-12
-16
-19
-21
-21
-19
-16
-13
-11
-9
-9
-10
-12
-14
-16
-17
-17
-16
-14
-11
-8
-6
-6
-7
-9
-11
-14
-15
-15
-14
-11
-7
-3
1
3
3
2
-1
-5
-9
-12
-14
-14
-14
-12
-11
-10
-10
-10
-11
-13
-14
-15
-14
-13
-10
-7
-3
0
2
3
4
3
2
2
1
1
1
2
2
3
4
4
4
2
0
-3
-7
-11
-15
-18
-19
-19
-17
-14
-11
-8
-6
-5
-5
-7
-9
-12
-13
-14
-14
-12
-10
-8
-6
-5
-3
-2
-1
0
1
2
3
2
0
-3
-7
-10
-13
-14
-12
-9
-4
2
7
10
11
8
3
-6
-16
-29
-43
-57
-70
-81
-91
-97
-101
-101
-97
-91
-83
-74
-65
-56
-48
-41
-34
-29
-23
-19
-14
-10
-7
-5
-3
-3
-3
-3
-4
-3
-3
-1
0
2
4
5
6
7
8
9
9
9
9
9
9
9
8
8
8
8
8
8
8
7
6
5
5
4
5
6
8
10
12
13
14
14
14
13
13
14
16
18
21
25
28
30
31
31
30
30
29
29
30
31
32
32
32
31
28
26
24
24
25
29
34
41
48
54
58
59
57
53
48
43
39
37
37
38
41
44
46
47
46
43
40
37
34
32
30
30
29
28
26
24
20
16
13
9
7
5
5
5
6
6
6
5
4
1
-2
-5
-7
-8
-9
-8
-7
-6
-4
-3
-2
-1
0
0
0
0
0
-1
-3
-6
-10
-14
-18
-21
-23
-22
-19
-14
-7
-1
5
9
11
10
6
2
-4
-9
-12
-15
-15
-14
-11
-8
-4
-1
2
3
3
1
-1
-4
-6
-8
-9
-9
-8
-6
-4
-2
-1
-1
-1
-1
-1
0
1
2
3
4
4
3
2
0
-1
-2
-2
-1
-1
0
0
-1
-3
-5
-6
-7
-6
-4
-1
1
3
3
2
-2
-5
-9
-11
-10
-7
-2
4
9
13
14
13
8
2
-4
-8
-11
-11
-9
-6
-3
0
0
-2
-5
-8
-12
-14
-14
-13
-11
-7
-3
0
3
4
5
6
5
4
3
2
1
0
-1
-1
-1
-1
0
1
2
3
3
3
2
1
-1
-2
-4
-5
-7
-8
-9
-9
-9
-9
-8
-7
-5
-4
-2
-1
-1
0
0
0
0
0
1
1
2
2
2
2
2
1
1
1
2
3
4
5
6
6
6
6
5
4
4
3
3
3
3
3
2
1
1
0
-1
-1
-1
-1
-1
0
0
0
0
0
-1
-2
-3
-5
-7
-8
-10
-11
-11
-11
-11
-11
-10
-9
-8
-7
-5
-2
1
5
10
14
18
21
22
22
18
12
3
-9
-23
-38
-54
-68
-81
-91
-97
-100
-98
-94
-87
-79
-70
-62
-55
-48
-43
-37
-33
-28
-23
-18
-14
-10
-6
-4
-2
-2
-1
-1
-1
0
2
3
5
7
9
11
12
12
12
11
10
9
8
8
8
8
9
10
11
13
15
16
18
18
17
15
12
8
3
-1
-5
-6
-5
-2
3
8
14
19
23
25
25
25
24
23
23
23
24
26
27
28
28
29
29
28
29
29
31
33
36
39
42
44
45
45
44
41
37
33
29
26
24
25
28
32
37
43
48
51
53
53
51
49
46
44
42
42
41
40
39
36
33
28
23
18
13
9
5
1
-3
-6
-9
-11
-14
-15
-15
-14
-13
-10
-6
-2
1
5
7
9
10
10
9
7
4
1
-3
-6
-8
-10
-10
-10
-10
-10
-10
-12
-14
-17
-20
-23
-25
-26
-26
-25
-24
-22
-20
-17
-15
-12
-8
-4
0
5
9
12
14
13
11
6
2
-3
-7
-10
-11
-9
-6
-3
1
4
6
6
4
1
-3
-7
-10
-13
-15
-15
-13
-11
-9
-6
-4
-3
-3
-4
-6
-8
-9
-11
-12
-11
-10
-9
-7
-5
-4
-4
-4
-5
-6
-8
-8
-8
-6
-4
-1
3
6
8
10
10
9
6
3
0
-4
-6
-8
-9
-8
-7
-5
-4
-3
-3
-4
-6
-8
-10
-11
-11
-10
-8
-5
-3
-3
-3
-5
-8
-10
-11
-10
-7
-2
4
10
14
16
15
11
6
0
-4
-6
-5
-2
3
8
12
14
13
9
4
-2
-8
-13
-16
-17
-17
-16
-14
-12
-9
-7
-6
-4
-2
-1
0
-1
-2
-3
-5
-6
-7
-7
-6
-4
-2
-1
0
-1
-3
-6
-8
-11
-12
-13
-12
-11
-10
-8
-7
-6
-5
-3
-1
3
8
13
18
21
23
21
16
7
-4
-17
-31
-45
-57
-68
-75
-81
-84
-84
-84
-82
-79
-76
-72
-67
-62
-57
-51
-45
-38
-32
-26
-19
-14
-8
-4
0
3
4
4
4
3
2
3
4
7
11
15
18
20
20
18
14
10
5
2
1
2
4
8
11
13
14
13
11
9
8
7
8
10
13
15
17
17
17
17
17
17
19
22
25
28
30
31
31
30
28
25
23
22
22
22
23
24
26
27
29
32
35
38
41
44
46
47
47
47
47
47
49
51
53
56
59
62
63
63
62
60
57
53
50
47
44
43
42
42
43
43
44
43
42
39
35
30
24
18
12
7
3
1
0
0
2
4
5
6
7
6
6
6
6
8
10
13
16
17
17
15
11
5
-2
-8
-13
-16
-16
-15
-13
-11
-9
-9
-11
-14
-17
-20
-21
-20
-17
-13
-8
-4
-2
-2
-4
-8
-12
-16
-18
-18
-16
-12
-7
-2
3
6
7
6
3
-1
-6
-9
-12
-14
-14
-13
-12
-11
-10
-11
-12
-14
-16
-18
-20
-19
-18
-16
-12
-9
-7
-4
-3
-2
-2
-1
-1
-1
-1
-2
-3
-5
-8
-11
-13
-14
-13
-11
-8
-5
-3
-3
-4
-7
-11
-15
-17
-19
-18
-15
-12
-9
-6
-5
-5
-6
-8
-10
-10
-9
-7
-4
0
3
6
6
6
3
0
-3
-7
-9
-11
-11
-10
-8
-6
-5
-4
-5
-6
-8
-11
-13
-14
-13
-12
-9
-5
-1
2
3
4
3
2
0
0
0
1
2
3
4
3
1
-1
-3
-4
-3
0
4
9
13
16
15
12
6
-1
-9
-15
-20
-22
-22
-20
-17
-14
-11
-10
-10
-11
-11
-12
-11
-10
-8
-6
-5
-5
-6
-8
-10
-13
-15
-16
-16
-15
-12
-10
-8
-6
-6
-7
-9
-11
-12
-12
-10
-7
-1
5
10
14
15
12
6
-5
-18
-34
-49
-64
-76
-85
-92
-95
-96
-95
-93
-90
-86
-81
-76
-70
-63
-55
-48
-41
-34
-28
-23
-20
-17
-15
-13
-12
-11
-9
-8
-7
-6
-5
-6
-7
-9
-12
-15
-18
-20
-22
-22
-20
-17
-13
-8
-3
1
4
6
7
6
6
5
4
3
2
1
0
0
-1
-1
-1
1
3
6
9
11
12
12
10
6
2
-1
-3
-4
-2
2
6
11
15
17
18
17
14
12
10
10
12
16
20
26
30
34
35
35
34
33
32
32
33
35
38
42
44
45
44
41
37
33
28
25
22
21
21
22
24
25
26
27
28
27
26
25
23
21
18
15
12
8
5
2
0
-1
-1
0
1
3
4
5
4
2
-1
-4
-8
-12
-16
-18
-19
-18
-17
-16
-14
-13
-12
-12
-12
-11
-11
-10
-8
-6
-4
-2
-1
0
-1
-2
-3
-5
-7
-8
-8
-7
-6
-5
-4
-3
-4
-5
-6
-8
-10
-11
-12
-12
-10
-8
-6
-3
-1
1
2
1
0
-1
-3
-5
-6
-7
-7
-7
-5
-4
-3
-2
0
0
1
1
2
2
2
1
1
1
2
2
3
4
5
6
6
7
6
5
4
2
0
-1
-2
-2
-2
-2
-2
-1
-1
-2
-3
-3
-4
-4
-3
-2
0
2
4
5
6
6
4
2
0
-2
-4
-4
-4
-2
0
3
5
6
7
6
5
4
4
4
4
6
6
7
6
5
2
-1
-4
-7
-8
-8
-7
-5
-2
0
2
3
4
5
5
7
8
10
12
13
14
15
15
15
14
13
12
10
9
7
5
3
0
-1
-2
-2
-2
0
1
2
3
2
1
-1
-4
-6
-7
-7
-6
-4
-1
0
2
2
1
-1
-2
-3
-3
-2
0
2
4
5
6
7
8
9
11
14
16
17
16
13
6
-3
-15
-28
-41
-53
-64
-72
-78
-82
-84
-85
-84
-82
-79
-74
-67
-58
-49
-39
-29
-21
-15
-11
-10
-9
-10
-10
-9
-8
-5
-2
2
5
7
7
7
6
4
3
1
0
-1
-1
0
1
2
4
6
8
9
10
10
9
7
5
4
4
5
7
11
14
17
18
18
16
13
10
7
6
6
9
13
18
23
27
29
30
30
28
25
22
20
17
15
14
14
15
16
19
22
25
28
31
34
35
37
37
38
39
40
41
43
44
45
46
45
44
43
42
41
41
42
43
45
46
48
48
48
47
44
41
36
31
26
21
17
14
12
12
12
12
11
10
7
3
-1
-6
-9
-11
-11
-9
-5
-1
3
6
8
8
6
3
0
-3
-5
-7
-7
-7
-6
-6
-6
-7
-7
-8
-7
-6
-4
-2
1
3
3
2
-1
-6
-11
-15
-18
-19
-16
-12
-5
2
8
12
13
11
8
3
-2
-5
-7
-7
-4
-2
1
3
3
3
1
0
0
1
3
6
8
9
8
6
2
-1
-4
-5
-3
0
4
9
13
15
16
14
12
10
7
6
5
4
3
2
-1
-4
-8
-11
-13
-14
-12
-9
-4
1
6
9
11
10
7
4
0
-3
-4
-4
-1
2
7
12
15
17
17
15
11
6
1
-3
-6
-7
-7
-5
-2
1
4
6
8
8
8
6
4
2
0
-2
-2
-1
2
6
10
14
17
17
16
12
8
3
0
-1
1
5
11
17
22
24
22
18
11
4
-3
-7
-9
-8
-6
-3
0
1
1
0
-2
-2
0
3
7
12
16
18
17
12
6
-2
-8
-13
-14
-11
-6
1
8
15
19
20
19
16
12
7
3
-1
-4
-6
-6
-5
-3
2
8
15
21
26
26
21
9
-11
-37
-67
-98
-126
-149
-164
-171
-168
-158
-143
-125
-108
-91
-77
-65
-54
-44
-34
-25
-16
-8
-2
1
0
-3
-8
-14
-18
-21
-21
-18
-14
-8
-3
2
5
6
5
3
0
-2
-5
-6
-7
-8
-7
-7
-5
-4
-1
2
5
9
13
17
20
23
24
24
23
21
19
17
15
13
12
12
12
12
13
13
13
13
14
14
14
15
15
15
16
16
17
18
21
24
27
31
35
37
38
38
36
33
30
27
27
28
32
37
42
48
52
54
54
52
49
46
43
42
43
44
45
46
45
42
37
32
25
20
16
13
13
14
15
16
17
16
14
11
8
5
3
2
1
1
1
2
4
5
6
8
9
9
8
6
4
0
-5
-9
-12
-14
-15
-14
-12
-9
-7
-6
-6
-7
-9
-11
-13
-14
-14
-13
-12
-10
-8
-6
-4
-3
-1
0
1
3
3
3
2
0
-2
-5
-7
-9
-10
-10
-10
-9
-9
-10
-11
-13
-15
-17
-17
-17
-16
-14
-12
-10
-9
-8
-9
-10
-11
-12
-12
-12
-11
-9
-7
-6
-5
-4
-4
-3
-3
-2
-1
0
1
1
0
-2
-4
-8
-11
-14
-16
-17
-16
-15
-13
-11
-10
-10
-12
-15
-18
-22
-26
-29
-30
-29
-27
-23
-19
-16
-12
-10
-9
-9
-10
-11
-12
-13
-13
-12
-11
-9
-8
-8
-8
-10
-13
-17
-21
-24
-26
-26
-25
-23
-20
-17
-15
-14
-14
-14
-15
-17
-17
-17
-17
-16
-14
-13
-12
-11
-11
-11
-10
-8
-6
-2
3
7
11
14
15
13
10
5
-1
-6
-10
-13
-14
-14
-12
-11
-10
-10
-11
-12
-12
-11
-9
-6
-3
0
1
1
-1
-5
-10
-16
-20
-22
-22
-20
-15
-11
-6
-1
2
4
5
5
6
6
6
6
6
6
5
4
3
1
-2
-7
-14
-23
-36
-51
-67
-83
-98
-108
-114
-114
-109
-100
-88
-74
-61
-50
-40
-31
-24
-18
-12
-7
-3
-1
-1
-2
-4
-7
-10
-11
-10
-8
-4
0
4
7
8
8
7
5
3
2
1
1
2
2
3
3
3
3
3
3
4
6
8
10
12
13
14
14
14
14
14
14
14
14
15
15
15
14
13
13
12
13
14
16
18
21
25
27
29
30
29
27
25
22
19
18
17
19
21
24
28
32
36
39
42
44
46
48
49
51
52
53
53
53
52
50
48
45
43
41
41
42
44
46
49
50
51
50
47
42
36
29
21
14
9
4
1
-1
-1
-1
-1
0
1
1
2
2
3
3
3
3
2
2
1
0
-1
-2
-3
-4
-5
-5
-4
-3
-1
2
4
7
8
8
6
3
-2
-7
-13
-17
-20
-22
-23
-22
-21
-19
-17
-15
-13
-10
-8
-5
-1
1
3
4
4
2
0
-4
-7
-9
-10
-10
-9
-6
-3
0
3
5
5
5
4
2
-1
-3
-6
-8
-10
-12
-13
-14
-14
-13
-12
-10
-8
-6
-5
-4
-3
-3
-4
-6
-7
-9
-10
-11
-11
-11
-10
-10
-10
-10
-10
-11
-12
-12
-12
-11
-10
-8
-6
-4
-3
-3
-4
-5
-7
-10
-11
-12
-13
-12
-11
-9
-7
-6
-6
-6
-7
-7
-8
-9
-9
-9
-10
-10
-10
-10
-9
-9
-7
-6
-5
-4
-4
-6
-9
-13
-18
-23
-27
-29
-28
-26
-21
-15
-10
-5
-2
-1
-1
-2
-4
-6
-6
-6
-5
-3
-2
-1
0
0
0
1
2
5
8
11
13
12
10
4
-4
-13
-23
-31
-37
-40
-39
-35
-29
-22
-15
-9
-5
-2
-1
-1
-2
-3
-5
-7
-9
-11
-12
-13
-12
-10
-8
-4
-2
0
0
-2
-6
-11
-16
-20
-22
-22
-19
-13
-7
-1
6
11
15
18
