-10
-8
-6
-5
-4
-4
-5
-7
-9
-10
-11
-12
-11
-10
-9
-7
-6
-5
-5
-5
-6
-7
-8
-9
-9
-9
-8
-7
-7
-6
-6
-6
-7
-8
-8
-9
-10
-10
-10
-10
-10
-10
-10
-11
-11
-11
-11
-10
-10
-10
-9
-9
-9
-9
-9
-8
-8
-8
-8
-8
-8
-8
-8
-8
-9
-10
-10
-11
-12
-12
-13
-13
-13
-14
-15
-16
-16
-17
-17
-17
-16
-15
-13
-11
-9
-8
-7
-7
-8
-10
-11
-12
-13
-12
-12
-11
-10
-8
-8
-7
-7
-7
-7
-7
-6
-5
-3
-1
0
2
3
4
4
5
5
6
6
6
5
4
2
0
-2
-4
-7
-9
-10
-11
-12
-13
-14
-15
-16
-17
-18
-18
-19
-19
-19
-18
-18
-17
-16
-16
-16
-16
-17
-18
-19
-21
-22
-22
-22
-21
-19
-16
-14
-12
-13
-15
-19
-24
-30
-34
-34
-29
-19
-2
21
49
78
107
133
153
166
169
163
148
125
95
62
27
-6
-36
-60
-77
-86
-88
-84
-75
-63
-50
-38
-28
-20
-16
-13
-13
-13
-14
-15
-14
-14
-13
-12
-11
-10
-9
-8
-8
-8
-7
-7
-7
-7
-7
-7
-7
-7
-7
-7
-7
-6
-5
-4
-3
-1
0
1
2
2
2
2
2
2
1
2
2
4
6
9
11
14
16
17
18
17
16
15
15
15
17
19
23
27
31
34
37
39
39
40
40
41
42
44
48
51
56
60
63
66
68
70
72
74
76
79
82
85
88
90
92
93
93
93
92
92
92
92
92
93
93
93
91
88
83
77
70
63
55
48
42
36
31
27
23
20
16
13
10
6
4
1
-1
-3
-5
-6
-8
-10
-11
-13
-14
-15
-15
-15
-15
-15
-15
-15
-16
-16
-17
-17
-17
-17
-16
-15
-14
-13
-12
-12
-11
-12
-12
-13
-14
-14
-15
-16
-16
-16
-16
-16
-16
-16
-16
-16
-16
-16
-17
-17
-18
-18
-18
-17
-17
-15
-14
-12
-11
-11
-11
-11
-13
-14
-16
-17
-17
-17
-17
-16
-14
-13
-12
-12
-12
-12
-13
-14
-15
-16
-16
-16
-16
-16
-15
-15
-15
-14
-14
-14
-14
-13
-13
-12
-12
-11
-11
-12
-13
-14
-16
-17
-19
-20
-20
-20
-19
-19
-18
-17
-17
-17
-18
-18
-18
-17
-17
-16
-14
-13
-12
-12
-12
-13
-14
-16
-17
-18
-19
-19
-18
-17
-16
-14
-13
-12
-11
-11
-11
-12
-13
-15
-17
-18
-19
-19
-19
-18
-17
-15
-14
-12
-11
-9
-9
-8
-8
-8
-8
-8
-7
-7
-6
-5
-4
-3
-2
-1
-1
-1
-1
-1
-1
-2
-2
-2
-2
-2
-1
-1
-2
-3
-6
-9
-12
-15
-18
-21
-22
-22
-21
-20
-18
-17
-16
-16
-16
-17
-18
-19
-20
-20
-20
-19
-18
-18
-18
-18
-19
-21
-22
-23
-24
-24
-24
-24
-25
-27
-29
-32
-35
-35
-33
-25
-12
7
31
59
89
118
143
161
172
172
163
145
119
87
52
17
-15
-43
-65
-79
-86
-86
-80
-71
-59
-47
-35
-26
-20
-16
-14
-14
-14
-16
-17
-18
-18
-18
-17
-15
-14
-12
-10
-9
-9
-9
-10
-11
-12
-12
-12
-11
-9
-6
-4
-1
1
2
2
1
-1
-2
-3
-4
-4
-3
-1
1
2
3
4
5
5
5
5
6
7
8
9
10
11
12
12
13
14
15
17
19
22
25
28
31
33
35
36
38
40
43
46
49
52
56
58
60
62
64
65
66
68
70
73
77
81
84
88
91
94
96
98
99
101
101
102
101
100
98
96
92
87
81
74
67
60
53
47
41
35
31
27
23
20
17
14
11
7
4
-1
-5
-8
-12
-14
-15
-16
-15
-14
-13
-12
-11
-11
-11
-12
-13
-15
-16
-17
-17
-16
-15
-15
-14
-14
-14
-15
-16
-18
-19
-20
-19
-18
-17
-14
-12
-10
-8
-8
-8
-9
-10
-12
-14
-16
-18
-19
-20
-20
-20
-19
-18
-17
-16
-14
-13
-13
-13
-13
-14
-16
-17
-18
-19
-19
-18
-17
-16
-15
-15
-15
-16
-17
-19
-21
-23
-25
-26
-26
-26
-25
-24
-23
-23
-23
-23
-24
-25
-26
-27
-27
-27
-26
-25
-24
-23
-23
-22
-23
-23
-24
-26
-27
-28
-28
-29
-28
-28
-27
-26
-26
-25
-26
-26
-27
-28
-29
-29
-28
-27
-25
-24
-23
-22
-22
-23
-24
-26
-28
-29
-30
-30
-29
-29
-28
-28
-29
-29
-30
-31
-31
-30
-28
-26
-24
-21
-19
-18
-18
-18
-20
-21
-22
-23
-24
-23
-22
-20
-18
-15
-13
-10
-8
-6
-6
-6
-6
-7
-8
-9
-10
-11
-12
-13
-14
-16
-19
-22
-26
-30
-34
-36
-37
-36
-34
-32
-29
-27
-26
-26
-27
-29
-31
-33
-33
-33
-31
-30
-28
-27
-26
-27
-28
-30
-31
-32
-32
-31
-31
-31
-32
-34
-38
-43
-47
-51
-51
-47
-38
-23
-2
23
52
81
109
132
148
156
155
143
123
95
61
26
-9
-41
-67
-86
-97
-101
-98
-91
-80
-68
-56
-46
-38
-32
-29
-27
-27
-27
-27
-27
-26
-25
-24
-23
-22
-21
-20
-19
-18
-16
-15
-14
-14
-14
-14
-15
-16
-18
-18
-19
-18
-17
-15
-13
-11
-9
-8
-7
-7
-8
-8
-8
-8
-7
-5
-3
0
3
5
6
7
8
8
9
9
10
10
12
13
14
16
18
19
21
23
25
27
29
31
33
36
39
43
47
51
56
59
62
64
65
65
65
65
65
67
69
72
76
80
83
86
87
88
88
88
87
87
88
89
90
90
89
87
83
77
70
63
55
48
42
36
31
27
23
20
16
12
8
5
2
0
-3
-4
-6
-8
-10
-12
-14
-16
-17
-18
-19
-18
-18
-17
-17
-17
-18
-19
-20
-20
-21
-21
-20
-19
-18
-17
-17
-17
-17
-17
-18
-18
-17
-17
-15
-14
-12
-11
-11
-11
-12
-14
-16
-18
-19
-20
-21
-20
-19
-18
-16
-14
-12
-12
-12
-13
-14
-16
-18
-20
-21
-22
-21
-20
-19
-17
-16
-15
-14
-14
-14
-15
-15
-15
-14
-14
-13
-13
-13
-13
-14
-15
-17
-18
-20
-20
-21
-20
-20
-19
-18
-17
-17
-17
-17
-17
-17
-17
-17
-18
-18
-18
-18
-18
-17
-17
-16
-16
-15
-15
-14
-14
-14
-15
-15
-16
-16
-17
-17
-16
-16
-15
-14
-12
-10
-9
-7
-6
-4
-3
-2
-1
-1
0
0
0
-1
-2
-3
-5
-7
-10
-12
-14
-16
-17
-18
-18
-19
-19
-19
-19
-19
-19
-19
-18
-17
-16
-15
-13
-12
-12
-12
-13
-15
-16
-18
-20
-21
-21
-21
-20
-19
-18
-18
-19
-20
-22
-22
-21
-18
-11
0
15
32
52
73
92
109
121
126
125
117
102
81
56
29
2
-24
-47
-65
-77
-85
-86
-84
-77
-68
-58
-48
-39
-31
-25
-21
-18
-16
-15
-15
-15
-14
-14
-13
-11
-10
-7
-5
-2
1
4
6
8
8
7
4
1
-4
-8
-11
-14
-15
-15
-13
-11
-8
-5
-2
0
1
3
4
6
8
10
12
13
14
15
14
13
12
12
12
14
16
19
23
26
28
30
30
30
29
28
28
29
32
35
39
44
49
53
56
58
59
59
59
59
59
61
63
66
70
75
79
83
85
86
86
86
84
83
82
82
83
83
84
84
83
80
76
72
66
61
56
51
46
42
38
34
30
25
19
13
8
3
-1
-4
-6
-7
-8
-8
-9
-9
-11
-12
-13
-15
-16
-18
-19
-19
-20
-20
-20
-20
-21
-21
-21
-21
-21
-21
-21
-21
-21
-20
-20
-20
-20
-20
-21
-22
-22
-22
-22
-22
-21
-20
-19
-17
-16
-15
-15
-15
-15
-16
-17
-18
-18
-19
-18
-17
-16
-15
-13
-12
-11
-10
-10
-10
-11
-11
-12
-13
-14
-14
-15
-15
-15
-15
-15
-15
-14
-14
-13
-13
-12
-12
-11
-11
-11
-10
-10
-9
-8
-7
-6
-6
-5
-6
-6
-6
-7
-7
-6
-5
-3
-1
0
2
2
2
1
0
-2
-5
-7
-9
-10
-12
-13
-14
-16
-17
-19
-21
-22
-24
-24
-24
-24
-23
-21
-20
-19
-19
-19
-19
-20
-20
-21
-21
-21
-22
-23
-24
-26
-28
-30
-31
-32
-32
-32
-31
-31
-31
-33
-35
-37
-37
-34
-26
-13
5
28
53
78
100
117
127
128
121
106
84
58
29
0
-27
-50
-70
-84
-93
-96
-93
-87
-77
-65
-53
-43
-34
-29
-26
-26
-27
-28
-29
-29
-28
-27
-24
-22
-20
-19
-19
-20
-20
-21
-20
-19
-18
-16
-14
-12
-11
-11
-12
-14
-15
-16
-17
-17
-16
-14
-12
-10
-8
-7
-6
-5
-5
-5
-4
-4
-3
-2
0
2
4
6
8
9
9
10
10
10
10
11
12
14
16
19
21
23
25
26
27
28
30
32
34
38
41
45
49
52
54
57
59
60
62
64
67
70
72
75
77
79
80
80
80
79
78
77
76
75
73
71
67
62
56
50
44
38
33
29
25
22
19
16
12
7
2
-3
-8
-11
-13
-14
-14
-13
-12
-12
-13
-15
-17
-20
-22
-24
-25
-25
-24
-22
-21
-20
-20
-20
-20
-21
-20
-20
-19
-17
-16
-15
-15
-16
-17
-19
-21
-23
-25
-25
-25
-23
-21
-19
-17
-16
-15
-14
-15
-15
-16
-16
-16
-16
-16
-16
-16
-17
-18
-18
-19
-20
-20
-20
-20
-19
-18
-18
-17
-17
-18
-19
-20
-22
-23
-25
-26
-26
-25
-24
-23
-22
-21
-21
-21
-22
-23
-23
-24
-24
-24
-23
-22
-21
-21
-20
-20
-20
-19
-19
-19
-19
-18
-18
-17
-18
-18
-19
-20
-21
-22
-22
-21
-20
-19
-18
-16
-15
-14
-13
-12
-12
-11
-10
-9
-7
-6
-4
-4
-4
-5
-7
-10
-13
-16
-19
-21
-23
-23
-22
-21
-20
-19
-18
-18
-18
-19
-21
-22
-23
-24
-24
-24
-24
-24
-24
-24
-25
-26
-26
-26
-26
-25
-23
-22
-20
-20
-21
-24
-27
-31
-34
-35
-34
-27
-16
0
21
44
69
94
115
132
141
143
137
122
100
73
43
12
-18
-43
-62
-75
-81
-81
-76
-68
-59
-49
-40
-33
-28
-24
-21
-18
-16
-15
-14
-13
-13
-14
-15
-16
-17
-17
-16
-15
-13
-11
-10
-10
-10
-11
-12
-12
-12
-11
-10
-8
-6
-5
-4
-4
-4
-5
-6
-6
-5
-3
-1
1
3
4
4
3
2
2
2
4
6
9
12
14
16
16
16
15
15
15
17
20
24
27
31
33
35
35
35
36
36
38
41
45
50
54
58
61
63
65
65
66
67
69
71
74
77
81
84
87
89
91
92
92
91
90
88
86
84
81
77
74
70
65
60
56
51
46
41
37
32
28
23
18
13
8
3
-1
-5
-9
-11
-12
-12
-12
-11
-11
-10
-9
-9
-10
-10
-11
-12
-13
-14
-14
-15
-15
-15
-15
-15
-15
-14
-14
-14
-14
-14
-14
-14
-14
-14
-13
-13
-13
-12
-12
-11
-11
-11
-11
-12
-12
-13
-13
-14
-15
-16
-17
-17
-16
-15
-14
-12
-10
-9
-9
-9
-11
-12
-14
-15
-16
-16
-15
-14
-12
-11
-11
-12
-12
-13
-14
-15
-15
-14
-13
-12
-12
-12
-12
-13
-14
-14
-14
-12
-11
-9
-7
-6
-6
-7
-8
-10
-12
-13
-14
-14
-13
-13
-12
-12
-12
-12
-13
-14
-15
-16
-16
-17
-17
-17
-17
-16
-15
-14
-12
-11
-10
-9
-10
-11
-13
-16
-18
-19
-20
-18
-16
-13
-9
-7
-5
-6
-7
-11
-14
-17
-19
-20
-19
-17
-14
-11
-9
-8
-8
-9
-11
-12
-12
-12
-11
-9
-6
-5
-3
-2
-2
-2
-2
-1
0
1
2
3
3
3
1
-1
-4
-6
-9
-10
-10
-10
-10
-10
-10
-11
-12
-15
-17
-19
-21
-21
-20
-18
-16
-13
-11
-10
-10
-11
-13
-15
-17
-19
-20
-20
-20
-19
-18
-17
-17
-16
-16
-17
-17
-18
-20
-23
-27
-31
-35
-37
-36
-31
-21
-4
18
45
74
103
129
148
160
162
154
137
112
83
51
19
-11
-36
-55
-68
-75
-75
-70
-62
-52
-41
-32
-24
-19
-16
-15
-15
-16
-16
-17
-16
-15
-14
-12
-11
-11
-11
-12
-12
-13
-13
-12
-11
-10
-8
-6
-5
-3
-3
-3
-3
-3
-3
-4
-4
-3
-3
-2
-1
0
1
2
3
3
4
4
4
4
5
5
5
5
5
6
7
9
12
15
19
23
26
28
29
28
27
25
24
25
28
34
42
53
63
74
82
89
92
93
92
91
89
89
89
91
93
94
95
93
89
84
77
70
63
56
51
47
43
39
35
31
25
20
13
7
2
-2
-5
-7
-8
-8
-9
-9
-10
-10
-11
-11
-11
-11
-10
-9
-8
-7
-7
-7
-9
-10
-12
-14
-16
-17
-17
-17
-16
-14
-12
-11
-11
-11
-12
-14
-15
-16
-17
-17
-16
-15
-13
-11
-10
-10
-10
-11
-12
-14
-14
-15
-15
-14
-13
-11
-10
-8
-8
-7
-7
-8
-9
-10
-10
-11
-12
-12
-13
-13
-12
-12
-12
-12
-11
-11
-11
-12
-12
-12
-13
-13
-14
-15
-15
-15
-16
-16
-17
-17
-17
-17
-17
-16
-15
-14
-14
-13
-13
-13
-13
-14
-15
-15
-16
-17
-17
-17
-17
-16
-16
-17
-17
-17
-18
-18
-18
-18
-17
-17
-16
-16
-16
-16
-16
-17
-18
-18
-19
-19
-19
-18
-18
-17
-17
-16
-16
-16
-17
-18
-19
-19
-20
-20
-20
-19
-18
-17
-15
-13
-12
-12
-12
-13
-14
-16
-17
-18
-18
-18
-16
-15
-13
-12
-11
-10
-9
-9
-9
-8
-8
-7
-7
-7
-7
-9
-10
-13
-15
-18
-20
-22
-23
-25
-25
-26
-26
-25
-25
-24
-23
-23
-22
-23
-23
-24
-26
-27
-28
-28
-27
-26
-25
-24
-24
-24
-25
-27
-29
-31
-32
-33
-33
-33
-34
-36
-38
-40
-41
-40
-34
-23
-5
19
46
76
105
129
145
152
148
134
112
83
51
19
-12
-39
-60
-75
-85
-89
-88
-83
-75
-65
-54
-44
-35
-28
-23
-22
-22
-25
-28
-30
-32
-32
-31
-28
-24
-21
-18
-17
-17
-19
-21
-24
-27
-28
-28
-27
-24
-20
-16
-13
-10
-8
-7
-7
-7
-7
-7
-7
-7
-7
-7
-7
-7
-7
-7
-7
-6
-5
-3
-2
1
3
4
6
6
7
7
8
8
9
11
13
16
18
21
24
26
29
31
34
36
39
41
44
46
49
51
54
56
58
61
64
67
70
74
77
80
82
84
85
86
86
87
87
88
88
89
90
90
90
89
87
84
79
73
66
59
51
44
37
32
27
23
20
17
14
10
5
0
-5
-9
-13
-15
-15
-15
-13
-12
-10
-10
-11
-12
-14
-16
-18
-19
-19
-19
-17
-15
-14
-13
-13
-13
-15
-17
-19
-20
-21
-20
-20
-18
-16
-14
-12
-10
-10
-9
-9
-10
-10
-10
-10
-10
-9
-9
-9
-9
-10
-12
-13
-15
-17
-19
-19
-18
-17
-15
-12
-10
-9
-8
-9
-10
-11
-13
-15
-16
-16
-16
-16
-15
-14
-14
-13
-13
-13
-14
-14
-15
-16
-16
-17
-17
-17
-17
-17
-16
-15
-15
-14
-14
-14
-14
-15
-16
-16
-16
-16
-15
-15
-14
-13
-13
-12
-12
-13
-13
-14
-15
-16
-16
-17
-17
-17
-16
-15
-14
-12
-11
-10
-9
-9
-10
-11
-11
-12
-11
-11
-10
-8
-8
-7
-7
-7
-7
-8
-7
-7
-6
-5
-3
-3
-2
-3
-3
-4
-4
-4
-4
-4
-4
-4
-5
-6
-8
-10
-12
-14
-15
-16
-17
-17
-17
-18
-18
-18
-18
-18
-18
-18
-17
-17
-17
-17
-17
-18
-19
-20
-21
-22
-22
-22
-21
-20
-18
-17
-17
-17
-19
-21
-25
-28
-31
-32
-31
-26
-17
-3
14
35
58
81
103
122
135
142
140
131
113
89
60
28
-4
-34
-59
-77
-88
-92
-89
-82
-72
-60
-49
-40
-32
-27
-23
-21
-20
-19
-18
-17
-16
-15
-14
-13
-13
-12
-11
-10
-9
-9
-9
-9
-8
-8
-8
-7
-6
-5
-5
-4
-4
-5
-5
-6
-6
-6
-5
-4
-3
-2
-2
-2
-2
-2
-2
-2
0
3
6
10
13
16
18
19
19
18
17
17
17
18
20
22
25
27
30
31
32
33
35
36
39
42
46
50
53
56
58
60
61
62
64
66
69
72
76
79
83
85
88
89
91
92
93
95
96
97
98
98
97
95
92
87
82
77
71
66
60
55
50
45
40
35
29
24
19
15
11
8
6
4
1
-1
-3
-6
-8
-11
-13
-15
-16
-16
-16
-15
-14
-12
-11
-10
-10
-10
-11
-12
-14
-15
-16
-16
-15
-14
-13
-12
-12
-12
-13
-15
-16
-17
-17
-16
-15
-13
-11
-10
-10
-11
-13
-15
-17
-18
-18
-17
-15
-13
-12
-11
-11
-12
-13
-14
-14
-14
-13
-12
-11
-11
-11
-11
-12
-13
-14
-14
-14
-13
-12
-11
-11
-12
-13
-14
-15
-16
-16
-16
-15
-14
-14
-13
-14
-14
-15
-16
-16
-16
-16
-16
-15
-15
-15
-16
-17
-18
-19
-19
-19
-18
-17
-15
-14
-13
-12
-12
-12
-13
-14
-15
-16
-17
-17
-17
-17
-16
-16
-15
-14
-14
-14
-15
-16
-17
-18
-19
-20
-21
-21
-20
-19
-17
-16
-15
-14
-14
-15
-16
-17
-19
-20
-22
-22
-22
-22
-20
-18
-16
-14
-11
-9
-8
-7
-6
-6
-6
-6
-6
-6
-6
-7
-7
-7
-8
-10
-12
-15
-17
-19
-21
-21
-21
-20
-19
-17
-17
-16
-16
-17
-18
-19
-19
-19
-18
-17
-16
-15
-15
-16
-18
-20
-22
-24
-25
-25
-26
-26
-27
-28
-30
-31
-31
-28
-20
-8
11
34
61
89
116
139
156
163
161
149
128
100
67
32
-2
-33
-59
-77
-88
-91
-88
-79
-67
-54
-41
-29
-21
-16
-14
-14
-16
-18
-19
-20
-21
-20
-19
-18
-17
-16
-15
-15
-14
-13
-12
-11
-10
-9
-8
-8
-8
-8
-8
-7
-7
-6
-5
-5
-4
-4
-4
-4
-4
-3
-2
0
1
3
4
5
5
4
4
3
3
4
5
6
9
11
13
15
17
18
19
20
21
22
23
24
25
27
29
31
34
37
40
44
47
51
54
57
59
61
64
65
67
69
71
73
75
77
79
81
83
85
87
88
90
91
91
90
88
86
82
77
72
67
61
56
51
47
42
38
33
28
23
17
11
6
0
-4
-8
-10
-11
-12
-12
-11
-11
-11
-12
-13
-15
-17
-19
-20
-21
-21
-20
-19
-18
-16
-16
-16
-16
-17
-19
-20
-21
-21
-21
-21
-21
-21
-21
-21
-21
-21
-21
-21
-21
-20
-20
-20
-20
-20
-20
-21
-20
-20
-20
-19
-18
-18
-18
-18
-19
-20
-20
-21
-21
-21
-21
-20
-20
-20
-20
-21
-23
-24
-25
-25
-24
-23
-21
-19
-17
-16
-16
-17
-18
-20
-21
-23
-23
-22
-21
-20
-19
-19
-19
-21
-22
-25
-26
-27
-27
-27
-25
-23
-22
-21
-20
-20
-20
-20
-20
-20
-20
-19
-19
-19
-20
-21
-22
-23
-24
-25
-25
-25
-24
-24
-23
-22
-22
-22
-22
-22
-22
-22
-22
-23
-24
-25
-25
-26
-25
-24
-23
-21
-20
-18
-18
-18
-20
-22
-24
-26
-27
-26
-26
-24
-22
-20
-19
-19
-19
-20
-22
-23
-24
-24
-23
-21
-19
-17
-15
-13
-11
-9
-8
-7
-7
-7
-7
-8
-9
-11
-13
-15
-17
-19
-20
-22
-23
-24
-24
-25
-25
-25
-25
-25
-25
-24
-24
-24
-24
-24
-24
-24
-24
-24
-23
-23
-23
-23
-23
-24
-24
-24
-25
-25
-25
-25
-26
-28
-31
-35
-37
-38
-35
-27
-13
7
32
61
92
120
144
160
166
162
147
124
94
61
26
-6
-34
-57
-72
-80
-82
-79
-71
-61
-51
-40
-31
-23
-18
-14
-13
-13
-14
-15
-18
-20
-21
-22
-22
-22
-20
-19
-16
-15
-13
-12
-11
-11
-11
-11
-11
-11
-10
-9
-9
-8
-8
-8
-8
-7
-6
-5
-4
-3
-2
-1
0
-1
-1
-1
-1
0
2
4
6
8
9
10
10
10
10
10
11
12
14
17
20
23
25
27
29
30
32
33
34
36
38
40
43
45
48
51
54
57
61
64
68
72
75
78
81
84
86
87
88
89
90
91
91
91
92
92
91
90
89
86
83
78
73
68
62
57
52
46
41
36
31
25
20
14
9
5
1
-1
-3
-3
-3
-3
-3
-3
-3
-4
-6
-7
-9
-11
-12
-13
-14
-15
-15
-15
-15
-14
-14
-13
-13
-13
-13
-14
-15
-16
-17
-18
-18
-19
-19
-18
-18
-18
-17
-17
-18
-18
-18
-18
-17
-16
-14
-13
-11
-11
-10
-11
-12
-13
-13
-14
-14
-13
-12
-10
-9
-9
-10
-11
-12
-14
-16
-17
-17
-15
-14
-11
-9
-7
-6
-6
-6
-8
-9
-11
-12
-13
-13
-12
-12
-11
-11
-11
-11
-11
-12
-12
-11
-10
-9
-7
-6
-5
-5
-6
-7
-8
-10
-11
-12
-12
-12
-10
-9
-8
-7
-6
-7
-8
-9
-11
-12
-13
-14
-14
-13
-12
-11
-11
-10
-10
-10
-10
-10
-10
-11
-11
-12
-12
-12
-12
-12
-12
-12
-13
-13
-13
-12
-12
-12
-11
-10
-9
-7
-6
-5
-5
-5
-6
-7
-9
-10
-11
-12
-13
-13
-13
-12
-12
-12
-12
-12
-12
-12
-12
-11
-10
-9
-7
-5
-3
-2
0
1
1
1
1
0
-2
-4
-7
-9
-11
-13
-14
-15
-15
-14
-14
-13
-13
-13
-13
-14
-14
-15
-16
-16
-16
-15
-15
-14
-14
-13
-13
-14
-14
-15
-16
-17
-17
-17
-16
-16
-17
-18
-21
-25
-29
-32
-33
-30
-22
-7
14
40
70
101
131
156
173
181
178
165
142
111
75
38
1
-31
-57
-75
-85
-86
-81
-71
-58
-45
-33
-25
-19
-17
-17
-19
-21
-22
-22
-20
-18
-15
-12
-11
-10
-10
-11
-12
-12
-13
-12
-11
-10
-9
-7
-7
-7
-8
-9
-10
-11
-12
-11
-11
-9
-8
-6
-4
-3
-2
-1
0
1
1
2
2
3
3
4
5
6
7
9
11
13
15
17
18
19
19
20
20
21
22
23
26
28
30
32
34
36
37
39
41
43
46
49
53
57
60
64
66
69
70
72
74
75
77
79
82
84
85
87
88
89
90
91
91
91
90
88
85
81
77
71
65
58
52
46
40
34
28
23
18
14
10
6
3
0
-2
-4
-7
-9
-11
-13
-14
-16
-16
-17
-17
-17
-16
-17
-17
-18
-18
-19
-20
-20
-21
-21
-21
-21
-21
-21
-22
-22
-22
-23
-23
-23
-22
-22
-22
-22
-22
-23
-23
-23
-23
-22
-21
-20
-20
-20
-20
-21
-22
-24
-25
-26
-26
-25
-24
-23
-21
-20
-20
-20
-21
-22
-22
-23
-23
-23
-23
-22
-21
-20
-20
-20
-21
-21
-22
-23
-23
-23
-22
-22
-21
-21
-20
-20
-21
-21
-22
-22
-22
-22
-22
-23
-23
-23
-23
-23
-23
-22
-21
-20
-20
-20
-20
-21
-23
-25
-26
-28
-28
-28
-26
-25
-23
-21
-20
-20
-21
-22
-23
-24
-25
-24
-23
-22
-20
-18
-17
-16
-15
-15
-14
-14
-14
-13
-11
-10
-8
-6
-5
-5
-5
-6
-8
-10
-13
-15
-18
-20
-21
-22
-22
-22
-22
-21
-21
-20
-20
-20
-20
-20
-21
-22
-23
-24
-25
-26
-26
-26
-26
-25
-25
-24
-23
-23
-22
-21
-21
-21
-21
-23
-26
-29
-32
-35
-35
-32
-24
-10
9
33
61
91
119
143
161
169
167
155
132
102
67
30
-5
-36
-61
-78
-87
-89
-85
-77
-67
-56
-45
-37
-30
-26
-23
-21
-20
-20
-20
-20
-20
-21
-20
-20
-19
-18
-17
-15
-14
-13
-12
-12
-12
-12
-12
-12
-12
-11
-10
-9
-8
-6
-6
-5
-5
-5
-5
-4
-4
-3
-2
0
1
1
2
1
1
0
0
0
0
1
3
5
8
11
14
17
19
21
22
23
23
24
24
25
26
28
30
33
36
40
43
46
49
52
55
58
61
64
67
70
72
75
77
78
79
80
81
81
82
83
83
83
84
83
83
82
81
80
78
76
73
69
64
59
52
45
38
31
25
20
15
11
7
4
0
-4
-8
-11
-15
-18
-20
-21
-21
-21
-20
-19
-18
-18
-18
-18
-19
-19
-20
-20
-20
-20
-21
-21
-22
-24
-25
-26
-27
-27
-27
-26
-24
-22
-21
-20
-20
-21
-22
-24
-25
-26
-26
-25
-24
-22
-21
-19
-18
-18
-17
-18
-18
-19
-19
-19
-18
-18
-18
-18
-18
-18
-18
-19
-19
-19
-18
-17
-16
-15
-15
-15
-15
-16
-17
-18
-18
-18
-18
-17
-16
-15
-14
-14
-15
-16
-19
-21
-24
-25
-24
-23
-20
-18
-15
-13
-13
-14
-16
-18
-20
-21
-21
-20
-18
-16
-14
-13
-13
-14
-16
-18
-20
-21
-22
-21
-20
-18
-17
-16
-15
-16
-16
-17
-18
-18
-18
-18
-17
-16
-15
-15
-14
-14
-14
-14
-13
-13
-12
-10
-10
-9
-9
-9
-10
-11
-11
-11
-11
-10
-9
-7
-6
-5
-4
-4
-5
-5
-5
-5
-4
-3
-3
-2
-3
-4
-6
-8
-11
-13
-15
-16
-17
-17
-18
-18
-18
-19
-20
-21
-23
-24
-24
-24
-23
-22
-20
-18
-16
-15
-14
-13
-14
-15
-17
-20
-23
-26
-28
-29
-29
-28
-27
-26
-26
-28
-30
-33
-34
-31
-24
-10
11
37
67
99
130
154
171
177
172
156
130
98
63
26
-7
-36
-58
-73
-80
-80
-75
-65
-54
-42
-32
-23
-17
-13
-12
-13
-14
-16
-17
-18
-17
-16
-15
-13
-11
-10
-9
-10
-10
-11
-12
-13
-13
-13
-12
-11
-9
-7
-6
-5
-5
-5
-6
-6
-7
-7
-6
-5
-4
-3
-2
-1
0
1
3
4
6
8
9
10
10
10
10
9
9
10
11
13
16
18
21
24
25
27
28
29
30
32
34
37
41
44
47
50
52
54
56
57
58
60
61
63
66
69
73
76
80
84
88
91
93
95
96
97
97
96
95
94
93
90
87
83
78
72
66
59
53
47
42
37
33
29
24
20
15
11
6
2
-1
-4
-6
-7
-8
-9
-9
-10
-10
-11
-11
-11
-11
-11
-11
-12
-12
-13
-14
-15
-16
-16
-16
-16
-16
-15
-15
-15
-16
-16
-17
-18
-18
-19
-19
-19
-19
-19
-19
-19
-19
-19
-19
-18
-18
-18
-18
-19
-20
-22
-23
-24
-24
-24
-23
-21
-19
-17
-16
-16
-16
-17
-19
-21
-23
-24
-25
-24
-24
-23
-22
-21
-21
-21
-22
-22
-23
-23
-23
-23
-22
-22
-21
-21
-22
-22
-22
-23
-23
-23
-22
-22
-22
-22
-23
-24
-24
-25
-25
-25
-25
-24
-23
-21
-20
-19
-19
-19
-19
-20
-21
-22
-22
-22
-23
-23
-23
-23
-23
-23
-22
-21
-20
-19
-18
-16
-15
-14
-13
-13
-12
-11
-11
-10
-10
-10
-10
-12
-13
-15
-18
-20
-22
-24
-25
-26
-27
-27
-28
-28
-29
-29
-29
-29
-28
-27
-27
-26
-26
-26
-27
-28
-29
-29
-29
-29
-29
-29
-29
-29
-29
-30
-31
-32
-33
-35
-37
-39
-42
-44
-45
-42
-36
-24
-5
19
48
80
112
141
163
175
176
166
144
114
77
39
1
-33
-60
-80
-91
-95
-92
-85
-74
-61
-49
-38
-30
-24
-20
-19
-19
-20
-21
-22
-22
-22
-21
-20
-19
-19
-19
-19
-20
-20
-21
-20
-20
-19
-18
-16
-16
-15
-15
-15
-15
-15
-15
-14
-12
-10
-8
-7
-6
-6
-6
-6
-7
-7
-6
-4
-1
2
5
7
9
9
9
7
6
5
5
5
7
9
12
15
18
20
22
25
27
29
31
33
36
38
41
43
44
46
47
49
51
54
57
61
65
70
74
78
81
83
85
87
87
87
88
87
87
87
87
87
86
85
83
80
75
70
64
57
50
43
37
31
26
22
19
16
13
10
6
3
0
-4
-7
-9
-11
-12
-13
-13
-13
-13
-13
-12
-12
-11
-11
-10
-10
-10
-10
-10
-11
-13
-15
-17
-18
-19
-19
-19
-18
-17
-16
-15
-15
-16
-18
-19
-20
-21
-21
-20
-18
-16
-14
-13
-12
-12
-13
-13
-14
-15
-15
-15
-15
-14
-14
-14
-14
-14
-14
-13
-12
-11
-9
-8
-8
-8
-8
-9
-10
-11
-11
-10
-9
-8
-8
-9
-10
-12
-15
-17
-18
-19
-18
-16
-13
-11
-9
-8
-8
-10
-12
-15
-18
-20
-20
-20
-19
-17
-15
-14
-13
-13
-13
-14
-14
-15
-15
-16
-16
-15
-15
-15
-16
-16
-17
-18
-18
-19
-19
-19
-18
-17
-17
-16
-16
-17
-17
-19
-20
-21
-21
-21
-21
-19
-17
-15
-13
-12
-12
-12
-12
-12
-12
-11
-9
-7
-4
-1
1
3
3
2
-1
-4
-8
-12
-16
-19
-20
-20
-20
-19
-17
-16
-15
-15
-15
-16
-17
-18
-18
-17
-15
-13
-10
-8
-7
-7
-8
-10
-13
-16
-18
-19
-20
-19
-18
-16
-16
-16
-18
-21
-23
-25
-24
-19
-11
3
21
42
66
90
113
132
144
149
146
133
113
86
54
21
-11
-39
-62
-78
-87
-89
-86
-78
-68
-57
-46
-36
-28
-21
-16
-13
-11
-10
-10
-10
-12
-13
-15
-16
-16
-16
-16
-14
-13
-11
-10
-8
-7
-6
-5
-4
-3
-1
0
2
3
4
5
4
2
0
-2
-5
-7
-7
-7
-4
0
4
9
13
15
16
15
13
10
7
5
4
4
6
8
11
13
14
14
14
14
14
16
19
22
27
32
36
40
42
43
44
44
44
45
48
51
55
60
64
68
70
72
72
72
73
73
75
78
81
85
88
91
93
93
91
88
84
79
73
68
63
58
54
50
46
41
37
32
27
22
17
12
8
4
0
-3
-6
-9
-11
-13
-14
-14
-14
-14
-13
-13
-13
-14
-15
-17
-18
-19
-20
-20
-19
-17
-16
-15
-15
-15
-16
-18
-19
-20
-19
-19
-17
-16
-15
-15
-16
-18
-21
-24
-25
-26
-25
-22
-19
-16
-14
-13
-13
-14
-15
-17
-19
-19
-19
-17
-16
-15
-14
-14
-14
-16
-17
-18
-18
-18
-18
-17
-15
-15
-14
-15
-16
-17
-18
-20
-21
-22
-23
-24
-25
-25
-25
-25
-24
-22
-20
-18
-16
-15
-14
-14
-15
-16
-16
-16
-15
-13
-10
-8
-7
-7
-8
-10
-13
-17
-20
-22
-23
-23
-22
-20
-18
-17
-17
-18
-19
-21
-24
-26
-28
-29
-29
-28
-27
-25
-22
-20
-18
-17
-17
-18
-19
-21
-23
-24
-25
-24
-23
-22
-21
-20
-19
-20
-21
-23
-24
-25
-25
-24
-21
-19
-16
-14
-12
-12
-11
-10
-9
-7
-5
-2
0
1
1
0
-3
-7
-11
-15
-17
-18
-17
-15
-13
-10
-9
-8
-9
-10
-12
-14
-16
-18
-19
-21
-23
-24
-25
-26
-26
-26
-24
-23
-20
-19
-17
-16
-16
-18
-20
-23
-26
-29
-31
-32
-30
-24
-15
0
19
41
67
92
116
134
146
150
144
129
107
79
48
17
-13
-38
-58
-73
-81
-83
-79
-72
-62
-50
-39
-28
-19
-13
-9
-7
-7
-8
-9
-9
-9
-7
-4
-2
0
1
1
1
-1
-2
-3
-3
-2
0
2
4
5
5
5
4
2
1
0
0
1
3
5
8
10
11
12
13
13
15
16
18
21
23
24
25
24
22
19
16
13
12
11
13
15
19
23
26
29
30
31
31
30
30
30
30
32
34
37
40
43
46
48
50
52
54
56
59
62
65
69
72
75
77
79
80
81
82
83
84
85
86
86
86
85
83
80
76
70
65
59
54
49
45
41
38
34
30
26
21
16
11
6
1
-3
-6
-9
-11
-12
-12
-12
-12
-12
-12
-12
-13
-13
-14
-15
-17
-19
-20
-22
-23
-23
-23
-22
-21
-20
-18
-17
-16
-16
-16
-17
-18
-20
-21
-23
-24
-25
-26
-27
-27
-27
-27
-26
-25
-23
-22
-20
-19
-18
-18
-19
-20
-22
-23
-24
-25
-25
-24
-24
-24
-24
-25
-26
-27
-28
-28
-27
-26
-25
-23
-21
-20
-20
-20
-21
-22
-23
-23
-23
-22
-21
-19
-18
-18
-18
-19
-20
-22
-24
-25
-25
-25
-24
-23
-22
-21
-21
-21
-22
-22
-23
-23
-23
-23
-22
-22
-22
-23
-24
-26
-27
-28
-29
-28
-27
-24
-22
-20
-19
-18
-19
-20
-23
-25
-26
-27
-26
-24
-22
-18
-15
-12
-11
-11
-11
-13
-15
-16
-17
-17
-15
-14
-11
-10
-9
-9
-10
-12
-15
-18
-20
-23
-24
-25
-26
-26
-27
-28
-28
-29
-29
-28
-26
-25
-23
-21
-21
-21
-22
-23
-25
-27
-28
-29
-29
-28
-27
-25
-23
-22
-22
-22
-24
-27
-30
-33
-35
-35
-32
-24
-11
8
31
57
85
111
132
146
151
147
133
111
82
49
16
-17
-45
-67
-83
-92
-94
-91
-84
-74
-63
-52
-42
-34
-27
-23
-20
-18
-17
-17
-18
-18
-19
-20
-20
-19
-18
-17
-15
-13
-11
-10
-10
-11
-13
-14
-16
-17
-17
-17
-15
-13
-11
-9
-7
-6
-5
-5
-5
-4
-4
-3
-3
-2
-1
0
1
2
4
5
7
8
9
9
9
9
9
9
10
12
15
18
21
25
28
31
33
34
35
36
37
38
39
41
44
47
51
55
59
63
66
69
71
73
74
74
75
75
76
77
80
82
86
89
92
94
95
95
93
91
87
83
79
74
70
65
61
56
51
46
40
34
29
23
18
14
9
5
1
-3
-6
-9
-11
-13
-13
-12
-10
-8
-7
-6
-7
-8
-11
-14
-17
-19
-20
-20
-19
-17
-15
-14
-13
-13
-14
-16
-17
-19
-19
-19
-19
-18
-16
-15
-15
-15
-15
-15
-15
-15
-15
-15
-15
-16
-17
-18
-20
-22
-23
-23
-21
-19
-15
-12
-9
-8
-8
-9
-12
-16
-19
-21
-22
-21
-19
-16
-13
-11
-11
-11
-13
-16
-18
-20
-21
-21
-20
-19
-18
-17
-16
-16
-16
-15
-14
-13
-13
-12
-12
-13
-14
-15
-17
-18
-17
-16
-15
-13
-11
-10
-10
-11
-14
-16
-19
-20
-21
-21
-20
-18
-17
-16
-15
-16
-17
-17
-18
-18
-17
-16
-15
-14
-13
-14
-14
-16
-17
-18
-18
-17
-16
-15
-14
-13
-13
-13
-13
-13
-13
-12
-11
-10
-10
-10
-10
-11
-12
-13
-14
-14
-14
-14
-13
-13
-14
-14
-15
-16
-16
-17
-16
-15
-13
-12
-11
-10
-10
-9
-9
-8
-7
-5
-3
-1
1
2
2
0
-3
-6
-10
-14
-17
-19
-20
-21
-21
-21
-20
-20
-20
-20
-19
-19
-19
-18
-18
-17
-17
-17
-18
-19
-20
-21
-22
-22
-22
-21
-20
-19
-18
-17
-18
-20
-23
-28
-33
-36
-37
-34
-26
-11
10
36
65
95
123
146
162
168
163
149
126
96
62
27
-7
-37
-62
-80
-92
-96
-95
-89
-80
-68
-56
-45
-35
-27
-22
-18
-16
-14
-14
-13
-13
-14
-15
-16
-18
-19
-21
-21
-20
-17
-13
-9
-5
-2
-1
-2
-4
-8
-12
-16
-18
-19
-17
-14
-10
-5
-1
1
3
3
2
1
0
0
0
1
3
4
6
7
7
7
6
6
7
8
9
11
13
16
18
20
22
25
27
30
32
35
37
39
41
43
44
46
48
51
54
58
62
65
69
71
74
76
78
80
83
85
88
90
92
93
94
94
95
95
96
97
97
97
96
94
90
85
79
73
67
62
57
52
48
43
38
31
25
18
11
6
3
1
1
2
2
2
1
-2
-6
-10
-15
-18
-20
-21
-20
-19
-18
-17
-16
-16
-17
-18
-18
-19
-19
-18
-17
-17
-16
-16
-15
-15
-15
-15
-15
-15
-15
-16
-17
-18
-20
-22
-24
-25
-25
-25
-23
-21
-19
-17
-16
-16
-18
-20
-23
-26
-29
-30
-30
-29
-27
-23
-19
-16
-14
-13
-14
-16
-20
-23
-26
-27
-27
-25
-22
-19
-16
-13
-12
-13
-14
-17
-19
-20
-20
-20
-18
-16
-14
-13
-12
-13
-14
-15
-17
-19
-19
-20
-20
-19
-19
-19
-18
-18
-18
-17
-17
-16
-15
-15
-15
-15
-15
-16
-17
-18
-18
-19
-19
-19
-20
-20
-20
-21
-21
-21
-21
-21
-21
-20
-20
-19
-19
-18
-18
-17
-16
-15
-14
-13
-12
-11
-11
-11
-10
-10
-8
-7
-4
-2
0
1
1
-2
-5
-10
-16
-21
-25
-28
-28
-27
-25
-21
-18
-15
-13
-13
-15
-17
-19
-22
-24
-25
-25
-24
-22
-20
-19
-18
-19
-19
-20
-21
-22
-22
-21
-21
-20
-21
-23
-25
-29
-33
-35
-34
-29
-19
-1
22
51
83
116
145
168
181
184
176
156
126
90
51
12
-25
-55
-79
-94
-101
-100
-94
-83
-69
-54
-40
-29
-20
-14
-12
-12
-15
-18
-22
-25
-26
-25
-23
-20
-16
-13
-10
-9
-8
-9
-10
-10
-11
-11
-11
-10
-9
-9
-9
-9
-9
-9
-9
-9
-8
-6
-4
-2
0
1
0
-1
-3
-5
-6
-6
-5
-2
2
7
11
14
15
15
14
12
10
9
9
11
15
20
25
29
32
34
34
34
33
32
33
34
37
41
46
50
55
59
62
65
67
69
71
74
76
79
81
83
86
88
90
92
94
96
97
98
97
96
93
89
85
80
74
69
63
58
53
48
42
37
31
25
20
15
11
8
6
5
3
2
0
-2
-5
-9
-12
-16
-19
-21
-23
-24
-24
-24
-25
-25
-25
-26
-26
-25
-25
-24
-23
-22
-21
-20
-20
-21
-21
-22
-23
-23
-24
-24
-24
-23
-23
-23
-23
-23
-24
-24
-25
-26
-27
-28
-29
-29
-30
-30
-30
-29
-28
-28
-27
-26
-25
-25
-25
-25
-25
-26
-26
-26
-26
-26
-26
-26
-26
-27
-27
-27
-27
-27
-26
-25
-24
-22
-21
-20
-20
-21
-22
-23
-24
-24
-25
-24
-24
-23
-23
-23
-24
-25
-26
-27
-27
-27
-27
-26
-25
-24
-24
-24
-25
-25
-25
-25
-24
-23
-21
-20
-18
-18
-19
-21
-23
-26
-28
-30
-30
-30
-29
-27
-25
-23
-22
-21
-20
-18
-16
-14
-11
-7
-3
0
1
2
1
-2
-5
-9
-13
-16
-18
-19
-19
-20
-20
-21
-22
-24
-27
-29
-31
-32
-33
-32
-32
-30
-29
-28
-27
-26
-26
-25
-25
-25
-25
-25
-24
-24
-24
-24
-24
-25
-26
-28
-30
-31
-31
-29
-24
-15
-1
17
38
62
87
109
128
140
146
143
131
112
86
56
23
-9
-40
-66
-86
-99
-105
-104
-98
-88
-76
-63
-51
-41
-33
-27
-23
-20
-18
-17
-15
-14
-14
-14
-15
-16
-17
-19
-19
-19
-17
-14
-11
-7
-4
-2
-1
-2
-4
-7
-10
-12
-13
-13
-11
-7
-2
3
7
10
11
10
8
5
2
-1
-1
0
2
6
11
14
17
18
18
17
16
15
16
18
22
26
30
33
35
36
35
34
34
35
37
40
45
50
55
58
60
61
61
61
61
63
66
70
75
80
85
89
92
95
96
97
98
98
99
100
101
101
100
98
95
91
86
81
76
71
66
61
56
50
45
39
32
26
21
16
11
7
4
1
-2
-5
-8
-10
-11
-12
-11
-10
-8
-7
-6
-6
-8
-11
-14
-19
-23
-26
-27
-26
-24
-22
-19
-16
-15
-15
-16
-18
-20
-21
-23
-23
-22
-21
-20
-19
-18
-18
-19
-19
-20
-21
-21
-21
-21
-21
-20
-20
-19
-19
-19
-18
-18
-18
-18
-17
-17
-18
-18
-18
-19
-20
-20
-20
-20
-20
-19
-18
-17
-16
-16
-16
-16
-17
-17
-17
-17
-16
-16
-15
-15
-15
-15
-17
-18
-20
-21
-21
-20
-18
-16
-13
-11
-10
-10
-11
-14
-16
-19
-20
-21
-20
-18
-16
-14
-12
-10
-9
-8
-8
-8
-8
-8
-7
-6
-5
-4
-4
-4
-5
-6
-8
-10
-13
-16
-18
-21
-23
-24
-24
-24
-23
-22
-20
-20
-20
-20
-22
-23
-25
-26
-26
-26
-25
-24
-24
-24
-25
-27
-28
-29
-29
-28
-26
-24
-23
-23
-25
-29
-33
-37
-39
-35
-26
-9
14
42
74
105
132
154
167
170
163
147
123
93
59
23
-11
-41
-66
-85
-95
-98
-95
-86
-73
-60
-47
-37
-29
-24
-22
-21
-21
-21
-21
-19
-18
-16
-15
-15
-15
-16
-17
-17
-17
-17
-16
-15
-15
-14
-15
-15
-16
-16
-15
-13
-10
-6
-3
1
3
4
4
3
1
-1
-2
-3
-3
-3
-1
1
3
6
8
10
12
14
15
16
15
15
14
12
12
11
12
14
17
21
25
29
33
36
38
40
42
44
46
48
51
54
57
59
62
64
66
68
71
75
78
81
84
87
88
89
89
89
89
89
90
90
91
91
89
87
83
78
72
66
60
55
50
46
43
40
37
34
30
25
20
15
9
3
-3
-8
-12
-15
-17
-17
-17
-16
-15
-15
-16
-18
-20
-22
-24
-26
-26
-26
-25
-23
-21
-20
-19
-19
-20
-21
-22
-22
-22
-22
-21
-20
-20
-19
-19
-19
-19
-20
-20
-21
-22
-22
-23
-24
-25
-26
-27
-27
-26
-25
-24
-22
-21
-21
-21
-21
-22
-23
-25
-26
-26
-26
-26
-25
-25
-25
-25
-26
-27
-27
-27
-26
-25
-24
-23
-23
-23
-23
-23
-24
-24
-25
-24
-24
-23
-23
-23
-24
-26
-27
-29
-31
-32
-33
-32
-32
-31
-29
-28
-27
-27
-26
-27
-27
-28
-28
-29
-29
-29
-29
-29
-29
-28
-28
-27
-27
-28
-28
-29
-30
-30
-30
-29
-28
-26
-24
-22
-20
-19
-18
-18
-18
-18
-18
-17
-16
-15
-15
-15
-17
-21
-25
-30
-35
-38
-41
-42
-41
-39
-36
-34
-32
-31
-32
-33
-34
-35
-36
-36
-35
-33
-31
-30
-30
-30
-32
-33
-35
-37
-38
-38
-37
-36
-36
-36
-36
-38
-40
-40
-39
-34
-23
-7
15
41
71
101
129
151
165
170
163
146
120
87
51
14
-20
-50
-74
-90
-99
-101
-97
-88
-77
-64
-50
-38
-27
-18
-13
-10
-9
-11
-13
-17
-20
-22
-24
-24
-23
-21
-19
-17
-16
-15
-14
-14
-14
-14
-13
-12
-10
-9
-7
-6
-6
-6
-7
-8
-8
-8
-7
-5
-2
0
3
4
5
5
4
2
1
1
1
3
5
8
11
14
16
17
18
18
18
19
20
22
24
27
30
33
36
38
40
42
44
46
49
53
57
62
67
71
74
76
78
78
79
79
80
81
84
88
92
96
99
101
102
102
100
98
96
93
91
90
88
86
83
79
73
66
59
52
45
39
34
30
27
24
22
19
16
12
8
4
-1
-4
-7
-10
-11
-12
-12
-13
-13
-13
-13
-14
-14
-14
-14
-14
-14
-14
-14
-15
-15
-16
-17
-17
-17
-17
-17
-16
-16
-15
-15
-15
-15
-16
-16
-16
-16
-15
-14
-13
-13
-12
-13
-14
-15
-17
-18
-19
-20
-19
-18
-17
-16
-15
-14
-14
-14
-14
-15
-15
-16
-16
-17
-17
-17
-18
-18
-17
-17
-16
-15
-14
-14
-14
-14
-15
-16
-17
-17
-17
-17
-16
-15
-15
-15
-15
-15
-16
-16
-17
-17
-16
-16
-15
-15
-16
-17
-18
-20
-22
-23
-23
-23
-23
-23
-23
-23
-24
-25
-25
-26
-25
-24
-22
-20
-18
-16
-15
-16
-17
-19
-21
-23
-25
-26
-26
-25
-23
-20
-18
-15
-13
-11
-11
-12
-14
-16
-19
-22
-25
-26
-26
-25
-22
-19
-15
-12
-9
-7
-6
-5
-5
-5
-6
-5
-5
-4
-4
-4
-5
-7
-10
-15
-20
-24
-27
-29
-30
-28
-25
-22
-20
-18
-18
-19
-22
-25
-28
-30
-31
-31
-29
-27
-25
-23
-23
-23
-24
-25
-26
-27
-27
-26
-26
-25
-26
-27
-29
-31
-32
-32
-27
-17
-2
19
44
73
103
131
154
169
175
170
155
130
97
61
23
-14
-45
-70
-87
-96
-98
-94
-86
-74
-62
-50
-40
-31
-24
-19
-16
-15
-15
-17
-18
-20
-22
-23
-24
-23
-21
-19
-16
-14
-11
-9
-8
-7
-7
-7
-8
-8
-8
-7
-6
-5
-4
-3
-2
-1
0
0
0
1
1
2
3
5
6
8
9
9
10
9
8
8
8
8
10
13
17
21
25
28
31
33
34
34
34
35
35
37
39
41
43
46
48
50
52
54
56
58
61
64
67
70
73
76
79
82
84
87
90
93
96
98
101
102
103
104
104
103
101
99
96
93
89
84
79
74
68
63
58
53
48
44
39
34
29
24
18
12
6
1
-3
-5
-7
-8
-8
-8
-8
-9
-10
-12
-14
-16
-18
-20
-20
-20
-18
-16
-14
-12
-11
-10
-11
-12
-13
-15
-16
-18
-18
-18
-18
-16
-15
-13
-12
-11
-11
-11
-12
-14
-17
-19
-21
-23
-23
-22
-21
-19
-16
-14
-13
-13
-14
-15
-17
-19
-21
-20
-19
-16
-13
-10
-8
-7
-7
-8
-11
-14
-16
-18
-18
-18
-17
-16
-15
-15
-16
-18
-20
-22
-23
-23
-22
-20
-17
-15
-13
-12
-11
-12
-14
-16
-17
-18
-18
-17
-16
-14
-13
-12
-12
-12
-13
-13
-14
-14
-14
-14
-14
-15
-15
-16
-18
-19
-20
-21
-21
-20
-20
-19
-19
-19
-19
-19
-19
-19
-19
-17
-16
-15
-13
-13
-12
-12
-13
-13
-12
-11
-10
-9
-7
-6
-6
-6
-7
-7
-7
-7
-5
-3
-1
0
1
1
0
-3
-7
-11
-14
-16
-18
-18
-17
-16
-15
-15
-15
-16
-17
-19
-21
-23
-24
-25
-26
-26
-26
-26
-25
-25
-24
-24
-24
-24
-25
-26
-26
-27
-27
-27
-27
-27
-27
-28
-29
-30
-28
-24
-16
-2
17
42
71
101
130
154
171
178
174
158
133
99
61
22
-16
-49
-75
-93
-103
-105
-100
-90
-77
-63
-49
-37
-28
-21
-17
-16
-17
-19
-20
-22
-22
-22
-20
-18
-16
-13
-12
-11
-11
-11
-12
-13
-14
-14
-13
-12
-11
-9
-8
-7
-7
-7
-7
-8
-8
-8
-7
-6
-4
-2
1
3
5
7
9
10
10
10
9
8
7
7
7
8
10
13
16
19
21
23
24
24
25
25
26
27
29
32
36
39
43
46
48
51
53
56
58
61
64
67
69
72
74
75
77
78
79
81
83
84
87
89
91
93
94
95
95
94
93
90
87
83
78
74
68
63
57
51
45
39
33
28
22
16
11
6
1
-3
-8
-11
-14
-16
-17
-17
-17
-16
-15
-15
-15
-16
-18
-20
-23
-25
-27
-28
-29
-30
-30
-30
-30
-30
-30
-29
-29
-29
-29
-28
-27
-26
-26
-25
-24
-24
-24
-25
-26
-27
-28
-30
-31
-32
-33
-33
-33
-33
-33
-33
-33
-33
-33
-33
-34
-34
-34
-34
-33
-32
-31
-30
-29
-28
-26
-25
-25
-25
-25
-25
-25
-25
-24
-22
-20
-18
-16
-15
-14
-16
-18
-21
-25
-28
-29
-29
-28
-25
-21
-18
-15
-13
-13
-15
-17
-20
-23
-25
-27
-28
-28
-28
-27
-27
-26
-26
-26
-26
-26
-26
-26
-26
-25
-24
-23
-22
-21
-21
-21
-21
-22
-23
-24
-24
-24
-24
-22
-21
-19
-17
-15
-13
-12
-12
-12
-12
-12
-13
-14
-15
-16
-17
-18
-19
-21
-22
-23
-23
-23
-23
-22
-21
-19
-18
-16
-15
-14
-12
-12
-11
-10
-10
-11
-12
-13
-16
-18
-21
-24
-26
-28
-29
-29
-28
-26
-24
-22
-20
-19
-18
-19
-20
-22
-24
-26
-27
-28
-29
-29
-29
-29
-28
-28
-27
-26
-25
-23
-22
-21
-20
-21
-22
-25
-28
-31
-33
-32
-27
-17
-2
20
46
75
105
132
154
168
172
165
147
120
86
48
9
-27
-58
-82
-97
-106
-106
-102
-93
-82
-69
-57
-46
-37
-29
-24
-21
-20
-21
-22
-24
-25
-26
-26
-25
-23
-21
-20
-19
-19
-19
-20
-21
-22
-21
-20
-18
-15
-13
-11
-10
-9
-9
-9
-9
-9
-8
-7
-6
-5
-5
-6
-6
-7
-8
-8
-7
-6
-4
-1
1
3
4
5
5
5
6
7
9
12
15
18
21
23
25
26
27
27
28
28
29
30
32
34
37
40
44
48
51
55
58
60
62
64
66
69
71
73
76
78
80
82
82
82
82
82
81
80
80
80
79
79
77
75
72
69
64
59
54
49
43
38
33
28
23
19
14
10
6
3
1
-1
-2
-3
-5
-6
-7
-9
-10
-12
-13
-14
-14
-15
-15
-15
-15
-16
-17
-18
-18
-19
-19
-19
-19
-18
-17
-16
-15
-14
-13
-13
-13
-13
-14
-14
-15
-16
-16
-17
-17
-17
-17
-16
-15
-14
-13
-12
-11
-11
-11
-11
-12
-12
-13
-14
-14
-15
-15
-14
-14
-13
-12
-11
-10
-9
-9
-9
-9
-10
-11
-12
-13
-14
-14
-15
-15
-16
-16
-16
-16
-15
-15
-14
-12
-11
-10
-10
-10
-10
-11
-12
-13
-13
-14
-14
-13
-12
-12
-11
-11
-11
-11
-12
-12
-11
-10
-8
-6
-4
-2
0
1
1
0
-2
-4
-6
-7
-9
-10
-11
-12
-12
-12
-13
-13
-14
-14
-14
-14
-14
-14
-14
-13
-13
-13
-13
-13
-13
-13
-12
-12
-11
-10
-10
-10
-10
-11
-12
-13
-15
-17
-18
-19
-18
-16
-11
-3
7
21
37
55
73
90
104
115
120
119
112
99
81
58
32
5
-20
-43
-62
-76
-84
-87
-85
-78
-70
-59
-49
-39
-30
-22
-16
-12
-8
-6
-5
-5
-5
-7
-8
-9
-10
-11
-10
-8
-6
-3
-1
1
2
2
1
0
-1
-2
-3
-2
-1
0
2
4
5
6
6
6
6
6
6
6
7
8
10
11
13
14
15
16
16
17
17
17
18
19
21
23
25
27
29
31
32
34
35
36
38
39
41
43
45
47
49
51
53
55
56
59
61
64
67
70
72
74
76
76
76
76
77
78
80
82
85
87
88
88
85
82
77
71
66
60
56
52
48
44
40
34
29
23
17
12
8
5
3
1
0
-1
-3
-4
-5
-7
-8
-9
-10
-11
-12
-14
-17
-20
-22
-24
-24
-24
-23
-21
-19
-18
-17
-17
-18
-19
-20
-21
-22
-22
-22
-22
-22
-22
-23
-23
-23
-23
-22
-21
-19
-18
-18
-18
-19
-20
-21
-22
-22
-21
-20
-19
-17
-16
-16
-16
-17
-18
-19
-19
-19
-18
-17
-16
-14
-13
-11
-10
-10
-9
-9
-8
-8
-8
-8
-7
-7
-7
-6
-4
-3
-1
1
2
3
3
2
1
-1
-3
-4
-6
-7
-8
-9
-11
-12
-14
-17
-19
-22
-24
-25
-25
-25
-23
-21
-20
-18
-17
-17
-18
-19
-21
-22
-23
-23
-22
-22
-21
-20
-20
-21
-22
-24
-26
-27
-29
-29
-29
-28
-27
-27
-29
-31
-35
-39
-43
-44
-41
-33
-18
1
26
53
80
104
122
132
133
124
107
84
56
27
-2
-28
-50
-67
-79
-85
-86
-83
-76
-67
-57
-47
-37
-29
-23
-19
-18
-18
-19
-21
-23
-24
-25
-25
-25
-25
-25
-25
-26
-26
-26
-26
-26
-24
-23
-21
-20
-20
-20
-20
-21
-22
-23
-22
-21
-20
-18
-16
-14
-14
-14
-15
-16
-18
-18
-18
-17
-15
-12
-10
-8
-7
-7
-7
-7
-8
-8
-7
-5
-3
-1
2
4
5
6
7
8
9
10
13
15
19
22
25
27
28
29
30
30
31
32
34
36
39
43
46
49
51
53
53
53
53
52
51
50
49
49
48
47
45
42
39
34
29
24
18
12
7
2
-3
-7
-11
-15
-18
-20
-22
-24
-24
-25
-25
-25
-26
-27
-29
-30
-32
-33
-33
-32
-30
-28
-26
-24
-24
-24
-26
-28
-31
-33
-34
-34
-32
-30
-26
-23
-20
-18
-17
-18
-20
-23
-25
-28
-29
-30
-29
-27
-24
-20
-16
-13
-9
-7
-7
-7
-9
-11
-15
-18
-21
-22
-23
-22
-20
-18
-15
-12
-10
-9
-9
-10
-11
-13
-14
-16
-17
-17
-17
-17
-17
-17
-16
-15
-14
-13
-12
-11
-11
-11
-11
-12
-13
-14
-15
-16
-17
-17
-16
-16
-17
-17
-18
-20
-21
-23
-24
-24
-24
-23
-22
-21
-19
-18
-17
-16
-16
-16
-17
-18
-18
-18
-18
-17
-17
-16
-16
-17
-18
-19
-20
-21
-21
-20
-18
-16
-14
-13
-14
-16
-20
-24
-26
-26
-21
-12
3
22
45
69
92
112
128
137
140
134
121
102
78
51
22
-5
-29
-49
-62
-68
-67
-61
-51
-39
-27
-17
-9
-5
-4
-5
-7
-9
-11
-11
-11
-9
-6
-4
-1
1
2
2
2
2
1
1
1
0
0
0
1
2
4
5
7
9
10
11
11
11
10
9
8
8
8
9
10
12
14
16
18
19
20
20
20
20
20
19
19
19
20
22
24
26
28
30
33
34
36
38
40
42
44
46
48
50
51
52
52
53
53
54
55
57
59
62
64
67
69
71
73
75
77
78
80
81
82
82
81
79
76
72
67
62
58
54
51
48
46
43
39
35
30
24
19
13
9
5
2
0
-2
-3
-4
-5
-6
-7
-8
-9
-9
-9
-9
-8
-7
-7
-6
-6
-6
-7
-8
-9
-10
-11
-12
-11
-10
-9
-7
-6
-4
-3
-3
-3
-4
-6
-8
-10
-11
-13
-13
-14
-14
-14
-15
-16
-16
-17
-18
-18
-17
-17
-15
-14
-12
-11
-11
-12
-13
-14
-16
-18
-19
-20
-21
-20
-19
-18
-17
-16
-15
-14
-14
-14
-14
-14
-14
-14
-14
-14
-14
-14
-14
-14
-14
-14
-14
-14
-14
-15
-15
-16
-16
-16
-16
-16
-16
-16
-16
-17
-18
-19
-20
-21
-21
-21
-20
-19
-18
-18
-17
-17
-17
-17
-17
-17
-17
-17
-17
-16
-16
-16
-16
-16
-16
-16
-16
-15
-14
-13
-12
-11
-11
-11
-12
-12
-13
-14
-14
-14
-13
-12
-10
-8
-7
-5
-4
-4
-3
-3
-4
-4
-5
-7
-9
-11
-13
-15
-17
-18
-19
-19
-19
-19
-18
-18
-17
-18
-18
-19
-21
-22
-24
-25
-26
-27
-27
-27
-27
-26
-26
-26
-26
-27
-28
-29
-30
-30
-30
-28
-25
-23
-21
-21
-22
-26
-31
-37
-42
-43
-38
-27
-9
16
45
75
104
128
145
152
150
138
117
91
60
27
-4
-33
-56
-74
-85
-89
-87
-80
-69
-57
-45
-35
-27
-22
-19
-19
-19
-20
-20
-20
-19
-18
-18
-17
-17
-18
-18
-19
-19
-19
-18
-16
-14
-12
-10
-9
-8
-8
-8
-8
-8
-7
-7
-6
-5
-4
-4
-3
-3
-3
-3
-4
-4
-4
-4
-4
-4
-4
-4
-4
