-5
-5
-5
-5
-5
-6
-6
-6
-6
-6
-6
-6
-5
-5
-5
-4
-4
-3
-3
-3
-2
-2
-1
-1
-1
-1
-2
-3
-5
-6
-8
-9
-9
-9
-8
-6
-5
-4
-3
-3
-3
-4
-5
-7
-8
-8
-9
-9
-8
-8
-7
-7
-7
-7
-7
-8
-8
-8
-8
-8
-8
-9
-9
-9
-10
-10
-10
-10
-9
-9
-8
-8
-8
-8
-9
-10
-11
-11
-11
-11
-11
-10
-9
-9
-8
-8
-9
-9
-10
-10
-10
-10
-10
-10
-11
-11
-12
-12
-13
-13
-13
-12
-11
-10
-9
-8
-8
-8
-9
-10
-11
-11
-12
-11
-11
-10
-10
-10
-11
-12
-12
-13
-14
-15
-16
-16
-17
-17
-17
-18
-17
-17
-16
-15
-14
-13
-13
-13
-14
-15
-16
-17
-17
-16
-14
-12
-10
-8
-7
-6
-7
-9
-10
-12
-14
-14
-14
-13
-12
-10
-9
-8
-8
-8
-9
-10
-11
-12
-12
-12
-12
-12
-12
-13
-14
-15
-16
-17
-17
-17
-17
-16
-15
-14
-13
-12
-11
-11
-11
-12
-13
-14
-15
-16
-17
-17
-16
-15
-14
-12
-10
-9
-8
-9
-9
-11
-13
-14
-16
-16
-16
-16
-15
-14
-13
-12
-12
-12
-12
-12
-12
-12
-11
-11
-10
-10
-9
-9
-8
-8
-8
-7
-7
-7
-7
-6
-6
-6
-6
-6
-6
-7
-7
-8
-8
-9
-9
-9
-9
-9
-8
-8
-8
-8
-8
-9
-10
-11
-12
-13
-13
-14
-14
-14
-15
-16
-17
-19
-20
-21
-21
-21
-21
-21
-20
-20
-20
-20
-19
-19
-19
-18
-19
-21
-24
-29
-36
-42
-49
-53
-55
-51
-43
-31
-14
7
30
56
83
112
143
176
211
245
277
303
320
324
315
291
255
209
159
109
64
27
1
-15
-22
-22
-19
-16
-13
-12
-12
-14
-16
-17
-17
-16
-14
-13
-12
-13
-14
-16
-18
-19
-20
-19
-18
-16
-14
-12
-10
-9
-9
-8
-8
-8
-7
-6
-5
-4
-3
-3
-3
-3
-3
-3
-3
-2
-1
0
1
3
3
4
4
4
4
4
5
6
7
9
10
12
13
13
13
13
13
13
14
16
19
22
25
27
29
30
30
30
30
31
32
35
39
43
47
51
53
54
54
54
55
56
58
61
64
68
72
75
77
77
78
78
78
78
79
80
81
82
82
82
80
78
75
73
70
67
64
61
57
53
48
42
36
31
27
23
20
18
17
15
13
10
7
3
0
-3
-5
-7
-7
-7
-7
-8
-8
-9
-10
-11
-12
-13
-13
-13
-13
-13
-13
-13
-14
-15
-15
-16
-16
-16
-15
-14
-13
-13
-12
-12
-12
-13
-13
-14
-15
-16
-16
-17
-17
-17
-17
-17
-17
-17
-17
-18
-18
-18
-18
-18
-18
-18
-17
-17
-17
-17
-17
-17
-18
-18
-19
-19
-18
-18
-17
-16
-15
-14
-14
-14
-15
-16
-17
-18
-19
-20
-21
-21
-22
-21
-21
-20
-18
-17
-15
-15
-14
-14
-15
-17
-18
-19
-20
-20
-19
-18
-17
-16
-16
-16
-17
-18
-19
-21
-21
-22
-21
-21
-20
-19
-19
-19
-19
-19
-20
-20
-20
-20
-19
-18
-17
-16
-15
-15
-15
-16
-17
-18
-20
-21
-22
-23
-23
-23
-22
-22
-22
-22
-22
-23
-24
-25
-25
-25
-25
-24
-23
-22
-21
-21
-21
-21
-21
-22
-22
-23
-23
-23
-22
-21
-20
-19
-18
-18
-18
-18
-19
-19
-20
-21
-21
-21
-21
-21
-21
-22
-22
-22
-23
-23
-23
-23
-23
-22
-22
-22
-22
-22
-23
-23
-24
-24
-24
-23
-22
-21
-20
-19
-19
-19
-20
-21
-22
-22
-23
-23
-23
-23
-22
-22
-22
-22
-22
-23
-24
-25
-25
-26
-26
-26
-25
-25
-24
-24
-24
-24
-24
-24
-24
-24
-24
-24
-24
-24
-24
-24
-24
-24
-24
-24
-24
-24
-24
-25
-24
-24
-24
-23
-22
-21
-21
-20
-21
-21
-22
-22
-23
-23
-22
-21
-20
-18
-16
-15
-13
-12
-12
-11
-11
-11
-11
-11
-11
-11
-12
-13
-14
-16
-17
-18
-19
-19
-18
-16
-15
-13
-11
-10
-9
-10
-11
-13
-16
-19
-22
-24
-26
-27
-28
-28
-27
-27
-26
-26
-26
-25
-25
-25
-25
-25
-26
-27
-28
-29
-29
-29
-28
-26
-25
-24
-24
-26
-31
-38
-46
-53
-59
-60
-57
-48
-34
-16
5
28
53
79
107
137
170
205
240
272
299
315
319
309
283
246
199
149
100
56
21
-3
-18
-24
-24
-22
-19
-17
-16
-17
-19
-20
-20
-19
-17
-14
-11
-10
-9
-11
-13
-15
-18
-20
-21
-21
-19
-17
-15
-13
-12
-12
-12
-13
-14
-15
-16
-16
-15
-14
-12
-11
-10
-9
-9
-9
-9
-10
-9
-9
-7
-5
-4
-2
0
1
1
2
2
2
3
4
5
7
8
9
10
11
11
12
12
13
14
15
17
19
21
23
25
27
30
32
35
37
40
42
44
47
48
50
52
55
57
60
62
65
68
70
72
73
74
75
75
76
77
78
80
81
82
82
81
79
77
74
70
67
63
60
57
54
51
47
43
38
33
28
23
18
14
10
8
5
4
2
1
0
-1
-3
-4
-5
-6
-7
-8
-9
-10
-11
-12
-13
-14
-15
-15
-16
-16
-16
-16
-16
-16
-17
-17
-18
-18
-17
-17
-16
-14
-13
-13
-12
-13
-14
-15
-17
-19
-20
-21
-21
-20
-19
-18
-17
-16
-16
-16
-16
-17
-17
-17
-17
-16
-15
-14
-13
-13
-12
-13
-14
-15
-17
-19
-20
-20
-20
-19
-17
-15
-13
-12
-12
-13
-14
-16
-17
-18
-18
-17
-16
-15
-14
-13
-13
-14
-15
-16
-17
-18
-17
-16
-15
-13
-13
-12
-13
-14
-15
-16
-16
-16
-15
-15
-14
-13
-13
-14
-15
-17
-18
-18
-18
-18
-16
-15
-14
-13
-13
-14
-15
-16
-18
-18
-19
-18
-18
-17
-16
-16
-16
-17
-17
-18
-18
-18
-18
-17
-16
-15
-15
-15
-16
-17
-18
-19
-19
-19
-19
-18
-17
-16
-15
-15
-15
-15
-16
-17
-18
-19
-20
-21
-21
-21
-20
-20
-19
-18
-17
-17
-17
-17
-18
-19
-20
-20
-20
-19
-18
-17
-16
-16
-15
-15
-15
-16
-16
-17
-17
-17
-17
-18
-18
-19
-20
-21
-22
-22
-22
-22
-21
-21
-20
-20
-21
-21
-22
-22
-22
-22
-21
-20
-19
-18
-17
-17
-16
-16
-17
-17
-17
-17
-17
-16
-16
-16
-15
-15
-15
-15
-15
-15
-15
-16
-16
-17
-18
-19
-19
-20
-20
-20
-20
-19
-19
-19
-19
-19
-19
-19
-19
-19
-18
-18
-18
-17
-17
-17
-17
-17
-17
-17
-17
-17
-17
-17
-17
-17
-16
-15
-14
-12
-10
-8
-6
-5
-4
-4
-4
-5
-7
-8
-10
-11
-12
-12
-13
-13
-13
-13
-13
-13
-12
-12
-11
-11
-11
-11
-11
-12
-12
-14
-15
-16
-16
-17
-18
-19
-20
-21
-23
-24
-25
-26
-26
-25
-24
-23
-23
-23
-23
-25
-26
-28
-28
-28
-27
-25
-23
-22
-23
-26
-32
-39
-47
-54
-58
-59
-54
-43
-27
-6
18
46
74
105
136
169
202
236
267
293
311
319
312
292
259
215
166
116
69
30
2
-16
-24
-25
-22
-17
-13
-11
-11
-13
-16
-18
-20
-20
-19
-17
-16
-14
-13
-13
-14
-14
-15
-16
-16
-16
-16
-16
-16
-16
-16
-15
-15
-15
-14
-14
-13
-13
-12
-12
-10
-9
-8
-6
-5
-4
-4
-4
-5
-5
-5
-5
-4
-2
-1
1
2
3
4
4
4
4
4
5
6
7
9
10
12
14
16
18
20
23
25
27
28
30
31
32
34
35
37
39
41
43
46
48
50
53
55
56
58
60
62
64
66
67
69
71
73
74
76
77
79
80
81
81
81
80
79
77
75
73
70
67
64
60
56
51
46
41
36
31
27
23
20
18
15
13
11
8
5
2
-1
-4
-6
-8
-8
-8
-8
-7
-7
-8
-9
-10
-12
-14
-15
-16
-16
-15
-14
-13
-13
-12
-12
-13
-14
-14
-15
-16
-16
-16
-15
-15
-15
-15
-15
-16
-16
-16
-17
-17
-17
-17
-17
-17
-17
-17
-17
-16
-16
-15
-15
-14
-14
-14
-15
-16
-16
-17
-17
-17
-16
-16
-16
-16
-17
-17
-18
-18
-18
-18
-17
-15
-14
-13
-12
-12
-12
-13
-14
-15
-16
-17
-17
-17
-17
-16
-16
-16
-16
-16
-16
-16
-16
-16
-15
-14
-14
-13
-12
-12
-12
-13
-14
-14
-15
-16
-17
-18
-18
-18
-18
-18
-17
-17
-17
-16
-16
-16
-16
-16
-16
-16
-16
-16
-17
-17
-18
-18
-19
-19
-19
-20
-21
-21
-21
-22
-21
-21
-20
-19
-18
-17
-16
-16
-17
-18
-19
-20
-21
-21
-21
-21
-20
-19
-19
-18
-18
-18
-19
-19
-19
-18
-18
-17
-17
-16
-16
-16
-17
-17
-17
-18
-17
-17
-17
-16
-16
-16
-17
-18
-19
-21
-22
-22
-22
-22
-21
-21
-20
-20
-20
-21
-22
-23
-23
-23
-22
-21
-19
-18
-16
-16
-16
-17
-19
-21
-23
-24
-24
-24
-23
-21
-19
-17
-17
-16
-17
-17
-18
-19
-19
-20
-19
-18
-18
-17
-16
-16
-16
-17
-17
-18
-19
-19
-20
-21
-21
-22
-22
-22
-22
-21
-21
-20
-19
-19
-19
-19
-19
-20
-20
-21
-21
-22
-22
-22
-22
-21
-21
-21
-21
-21
-21
-20
-20
-19
-18
-17
-17
-17
-17
-17
-18
-18
-18
-17
-16
-14
-13
-11
-9
-9
-9
-9
-10
-12
-13
-14
-14
-14
-14
-13
-13
-12
-12
-12
-13
-13
-13
-13
-13
-12
-12
-12
-13
-14
-16
-17
-19
-19
-20
-19
-19
-19
-19
-19
-20
-22
-24
-25
-26
-26
-25
-24
-22
-21
-21
-21
-21
-22
-23
-24
-24
-24
-25
-27
-30
-35
-40
-47
-52
-55
-55
-49
-39
-24
-4
19
45
73
102
133
166
199
233
265
293
312
321
317
298
266
223
174
124
76
36
6
-13
-22
-24
-21
-16
-12
-11
-11
-13
-16
-19
-20
-20
-17
-14
-11
-9
-8
-8
-10
-13
-16
-18
-20
-20
-19
-17
-14
-12
-9
-8
-7
-7
-8
-10
-11
-13
-13
-13
-12
-10
-8
-6
-5
-4
-4
-5
-6
-7
-7
-7
-6
-4
-2
0
2
3
4
4
4
5
5
6
8
10
11
13
15
16
17
18
19
20
22
24
26
28
30
33
35
36
38
39
41
42
44
46
49
52
55
58
60
62
64
66
67
68
69
70
71
73
75
77
79
80
80
80
79
78
76
75
73
72
70
68
65
62
58
53
47
42
37
32
29
26
24
22
20
17
14
11
7
3
-1
-3
-5
-6
-6
-6
-5
-5
-6
-8
-9
-11
-13
-14
-14
-14
-13
-12
-11
-11
-12
-13
-15
-17
-18
-19
-19
-18
-17
-17
-16
-15
-15
-16
-16
-16
-15
-15
-14
-14
-13
-14
-14
-16
-17
-18
-19
-19
-18
-16
-14
-13
-12
-11
-12
-13
-15
-16
-18
-19
-19
-19
-18
-17
-17
-17
-17
-18
-18
-19
-19
-19
-19
-18
-18
-17
-16
-16
-16
-16
-16
-16
-16
-17
-17
-17
-17
-16
-16
-16
-15
-14
-14
-13
-13
-12
-12
-12
-13
-14
-15
-16
-17
-18
-19
-19
-18
-17
-15
-14
-14
-14
-15
-16
-18
-19
-20
-20
-19
-17
-15
-14
-13
-13
-14
-16
-17
-18
-18
-18
-17
-16
-15
-15
-16
-18
-20
-22
-23
-23
-23
-21
-20
-18
-17
-17
-18
-20
-21
-22
-22
-22
-20
-19
-17
-16
-16
-17
-19
-21
-23
-24
-25
-24
-23
-21
-19
-17
-15
-15
-15
-16
-17
-19
-21
-22
-23
-24
-24
-23
-23
-22
-22
-21
-21
-21
-20
-20
-19
-19
-19
-20
-21
-22
-23
-25
-26
-26
-25
-24
-22
-20
-19
-17
-17
-17
-17
-18
-19
-20
-20
-20
-19
-19
-18
-18
-17
-17
-18
-19
-19
-20
-21
-21
-20
-19
-18
-17
-16
-15
-15
-15
-16
-16
-17
-18
-18
-18
-18
-18
-18
-18
-18
-19
-19
-20
-20
-20
-20
-19
-19
-19
-18
-18
-19
-19
-19
-19
-18
-18
-17
-16
-15
-14
-14
-14
-15
-15
-15
-15
-15
-14
-14
-13
-12
-12
-12
-12
-12
-12
-12
-11
-9
-8
-6
-5
-5
-5
-5
-6
-8
-9
-10
-10
-10
-10
-11
-11
-11
-12
-12
-12
-12
-12
-12
-11
-10
-9
-9
-9
-9
-9
-9
-9
-10
-10
-11
-12
-14
-16
-18
-20
-22
-22
-22
-21
-20
-19
-19
-19
-20
-22
-23
-23
-23
-21
-19
-17
-17
-18
-22
-28
-35
-43
-50
-53
-53
-48
-39
-25
-9
11
33
58
87
119
156
194
233
267
293
306
304
286
253
209
157
105
58
20
-7
-22
-26
-24
-18
-12
-8
-7
-8
-11
-15
-17
-17
-16
-13
-9
-6
-5
-5
-6
-9
-11
-13
-14
-13
-11
-9
-7
-6
-5
-6
-7
-8
-9
-9
-9
-8
-6
-5
-3
-2
-1
-1
-2
-2
-3
-3
-3
-3
-2
-1
0
2
3
4
6
7
9
10
11
12
13
14
14
15
16
16
18
19
21
22
24
25
26
27
28
28
30
31
33
36
38
41
44
46
48
50
52
53
55
58
60
63
66
69
72
74
77
79
82
84
85
86
87
87
86
85
84
82
81
80
79
78
77
75
72
68
63
58
52
46
41
37
33
30
28
25
23
19
16
12
8
4
1
-1
-2
-3
-3
-4
-4
-6
-8
-10
-12
-14
-15
-15
-15
-14
-12
-11
-11
-11
-11
-13
-14
-15
-15
-15
-14
-13
-13
-13
-13
-14
-15
-17
-17
-18
-18
-17
-16
-15
-14
-14
-14
-15
-16
-17
-17
-17
-16
-15
-14
-12
-11
-10
-10
-10
-11
-11
-13
-14
-15
-17
-19
-21
-23
-24
-24
-24
-22
-20
-17
-15
-13
-11
-11
-12
-14
-17
-19
-21
-22
-22
-21
-19
-17
-15
-14
-13
-14
-14
-15
-17
-17
-18
-18
-17
-17
-16
-16
-16
-17
-17
-18
-19
-19
-20
-20
-20
-20
-20
-20
-21
-21
-21
-21
-20
-19
-18
-17
-16
-16
-16
-16
-17
-18
-19
-20
-21
-21
-22
-22
-22
-23
-24
-24
-25
-25
-24
-24
-22
-21
-20
-20
-19
-19
-20
-21
-22
-22
-22
-23
-23
-23
-23
-23
-23
-23
-23
-22
-22
-21
-21
-20
-20
-21
-21
-22
-23
-23
-23
-22
-22
-21
-21
-21
-22
-23
-24
-26
-27
-27
-27
-27
-26
-25
-25
-25
-24
-24
-24
-23
-22
-21
-20
-20
-20
-20
-21
-22
-22
-23
-23
-22
-21
-19
-18
-18
-18
-19
-21
-22
-24
-24
-24
-23
-22
-20
-19
-19
-19
-19
-20
-20
-21
-21
-20
-19
-19
-18
-17
-17
-18
-18
-19
-19
-19
-19
-19
-19
-19
-19
-19
-20
-20
-20
-19
-18
-17
-16
-16
-16
-17
-18
-20
-21
-23
-24
-24
-23
-22
-20
-18
-17
-16
-15
-14
-14
-14
-13
-13
-12
-11
-11
-10
-9
-9
-8
-8
-8
-8
-9
-9
-10
-12
-13
-14
-15
-15
-15
-14
-13
-12
-11
-11
-11
-10
-10
-10
-10
-10
-10
-9
-10
-10
-12
-13
-15
-18
-20
-21
-22
-23
-23
-22
-21
-21
-20
-20
-20
-21
-21
-22
-23
-23
-23
-23
-22
-21
-21
-21
-24
-28
-33
-39
-45
-49
-51
-50
-44
-34
-20
-2
18
42
67
94
123
154
186
219
249
275
292
298
291
271
237
194
145
95
50
12
-14
-30
-36
-35
-30
-24
-19
-17
-18
-20
-22
-23
-23
-21
-17
-13
-10
-8
-7
-8
-10
-13
-15
-16
-16
-16
-15
-14
-13
-13
-13
-13
-13
-12
-11
-9
-6
-4
-3
-2
-3
-4
-6
-7
-9
-9
-8
-7
-5
-3
-1
0
1
1
1
1
2
2
3
4
5
7
8
8
9
9
10
11
12
13
14
16
18
20
23
25
27
30
32
34
36
38
40
42
44
46
48
51
54
56
59
62
65
67
68
70
71
72
73
75
76
78
80
82
83
83
83
82
81
79
76
74
71
69
68
66
65
63
61
58
54
49
43
37
30
24
19
15
12
9
8
7
5
3
0
-2
-5
-8
-10
-11
-11
-11
-10
-10
-10
-11
-13
-15
-17
-19
-20
-21
-21
-20
-19
-18
-17
-17
-17
-17
-17
-17
-17
-16
-15
-15
-15
-15
-17
-18
-20
-22
-23
-23
-23
-23
-22
-21
-21
-21
-22
-22
-22
-22
-21
-20
-19
-18
-17
-16
-16
-16
-17
-17
-18
-19
-19
-20
-20
-21
-20
-20
-20
-19
-18
-17
-16
-16
-16
-17
-19
-21
-22
-23
-24
-23
-22
-20
-19
-17
-17
-17
-17
-18
-19
-19
-20
-19
-19
-18
-18
-18
-19
-20
-21
-22
-23
-23
-23
-22
-22
-21
-21
-21
-22
-23
-24
-24
-24
-23
-22
-21
-20
-19
-19
-20
-21
-23
-24
-25
-25
-25
-24
-22
-21
-20
-19
-19
-20
-21
-23
-24
-25
-25
-25
-25
-24
-22
-21
-20
-20
-19
-19
-19
-20
-20
-21
-22
-23
-24
-25
-26
-27
-28
-29
-29
-30
-30
-29
-28
-27
-26
-25
-23
-22
-21
-21
-21
-21
-22
-22
-23
-23
-23
-23
-22
-22
-22
-22
-23
-24
-26
-27
-27
-27
-27
-26
-24
-23
-22
-21
-21
-22
-22
-23
-24
-24
-23
-22
-21
-20
-19
-18
-19
-19
-20
-22
-23
-24
-25
-26
-26
-26
-26
-25
-25
-24
-23
-22
-21
-20
-20
-20
-20
-21
-22
-22
-23
-23
-24
-24
-23
-23
-22
-22
-21
-20
-20
-19
-18
-17
-16
-15
-15
-15
-16
-16
-17
-17
-17
-17
-16
-16
-15
-14
-14
-15
-16
-17
-18
-19
-19
-19
-18
-17
-16
-15
-15
-16
-17
-19
-22
-24
-25
-26
-26
-26
-25
-24
-23
-22
-22
-23
-23
-24
-25
-26
-27
-28
-28
-28
-26
-25
-23
-21
-19
-19
-21
-25
-31
-38
-45
-51
-55
-55
-51
-42
-29
-12
7
29
52
78
106
137
169
203
236
265
287
299
298
284
256
218
171
122
75
34
1
-21
-33
-37
-35
-30
-24
-19
-16
-14
-15
-16
-17
-17
-17
-17
-16
-15
-15
-15
-16
-16
-17
-17
-16
-15
-13
-12
-11
-10
-10
-10
-11
-12
-12
-13
-13
-12
-11
-10
-9
-8
-7
-6
-6
-6
-5
-5
-6
-6
-6
-5
-5
-4
-3
-1
0
1
3
4
5
6
7
8
9
10
11
12
13
15
16
17
19
20
21
22
24
25
27
30
32
35
38
41
43
45
47
48
50
51
53
55
58
61
63
66
68
70
71
72
74
75
76
78
80
82
84
84
84
83
80
78
75
72
69
67
65
63
61
58
55
50
46
41
36
31
27
24
22
19
17
15
12
9
5
2
-1
-4
-6
-8
-8
-8
-7
-7
-6
-6
-6
-6
-7
-8
-9
-10
-11
-12
-12
-12
-12
-12
-12
-12
-12
-12
-12
-13
-13
-14
-15
-15
-15
-15
-16
-16
-16
-16
-16
-16
-16
-16
-15
-14
-14
-13
-12
-11
-11
-11
-11
-12
-13
-13
-14
-14
-14
-14
-14
-13
-13
-13
-13
-13
-13
-14
-14
-14
-14
-14
-14
-14
-13
-13
-13
-13
-12
-12
-11
-11
-11
-11
-11
-11
-12
-12
-12
-11
-11
-10
-9
-9
-9
-9
-9
-10
-10
-10
-9
-9
-8
-8
-8
-9
-11
-13
-15
-16
-17
-16
-15
-13
-11
-10
-9
-8
-9
-10
-11
-12
-12
-12
-12
-11
-10
-9
-8
-8
-8
-8
-8
-7
-7
-7
-7
-8
-9
-10
-10
-11
-12
-12
-12
-12
-12
-12
-12
-13
-14
-14
-15
-15
-15
-15
-15
-14
-13
-13
-13
-12
-12
-12
-12
-12
-12
-12
-11
-11
-12
-12
-12
-12
-13
-13
-13
-13
-14
-14
-14
-15
-15
-15
-16
-15
-15
-14
-13
-12
-12
-13
-14
-15
-16
-17
-17
-17
-16
-15
-14
-12
-11
-11
-11
-12
-13
-14
-14
-13
-12
-11
-10
-9
-9
-9
-10
-11
-12
-13
-14
-14
-15
-15
-15
-15
-16
-16
-16
-15
-15
-14
-13
-12
-11
-11
-11
-11
-12
-12
-12
-12
-11
-11
-10
-10
-9
-10
-10
-10
-10
-9
-9
-8
-7
-6
-5
-5
-5
-6
-7
-7
-8
-8
-9
-9
-9
-9
-9
-9
-9
-8
-8
-7
-7
-7
-7
-7
-8
-9
-11
-12
-13
-14
-14
-15
-15
-16
-17
-18
-20
-21
-21
-21
-21
-20
-19
-18
-18
-18
-18
-18
-17
-16
-14
-13
-12
-12
-15
-21
-29
-37
-46
-52
-53
-50
-41
-26
-6
16
41
66
92
118
146
175
206
236
265
289
305
309
299
276
241
197
149
102
59
26
2
-12
-18
-18
-15
-12
-10
-9
-10
-11
-13
-13
-13
-12
-10
-9
-9
-9
-10
-11
-12
-13
-13
-12
-11
-10
-9
-9
-9
-10
-10
-11
-11
-11
-11
-10
-9
-9
-9
-9
-9
-10
-10
-10
-10
-9
-8
-7
-5
-4
-3
-3
-3
-2
-2
-1
0
2
4
6
8
9
10
10
10
9
8
8
7
8
9
11
13
16
20
22
25
27
28
29
30
31
32
33
35
38
41
44
47
51
54
57
59
61
62
63
64
65
66
66
67
69
70
72
73
75
75
75
74
73
70
68
65
62
59
56
53
51
47
44
40
35
30
25
20
16
12
8
5
3
0
-1
-3
-5
-7
-9
-11
-13
-15
-17
-18
-20
-21
-22
-22
-22
-22
-21
-21
-21
-21
-22
-24
-25
-26
-27
-28
-27
-27
-26
-24
-23
-22
-22
-22
-23
-24
-25
-26
-27
-27
-27
-26
-25
-23
-22
-21
-20
-20
-21
-22
-24
-25
-26
-27
-28
-28
-28
-28
-27
-27
-27
-27
-28
-28
-29
-29
-29
-29
-29
-29
-29
-29
-29
-29
-28
-28
-28
-28
-27
-27
-26
-26
-25
-25
-26
-26
-26
-27
-27
-28
-28
-28
-28
-27
-27
-27
-27
-28
-29
-30
-31
-32
-33
-34
-34
-33
-32
-31
-31
-30
-29
-28
-28
-28
-28
-28
-28
-28
-28
-28
-28
-28
-28
-28
-27
-27
-26
-26
-25
-25
-25
-26
-27
-27
-28
-29
-30
-30
-30
-30
-30
-30
-30
-29
-29
-29
-29
-29
-29
-30
-30
-31
-32
-32
-32
-32
-31
-30
-29
-28
-27
-27
-28
-28
-29
-30
-31
-31
-31
-31
-30
-30
-29
-29
-29
-29
-29
-29
-30
-29
-29
-29
-28
-28
-28
-28
-28
-28
-28
-28
-28
-29
-29
-29
-30
-30
-31
-31
-31
-31
-30
-29
-28
-27
-27
-26
-27
-27
-28
-30
-31
-31
-31
-31
-30
-28
-27
-26
-25
-24
-25
-25
-26
-27
-27
-28
-28
-29
-29
-29
-29
-28
-27
-26
-25
-24
-24
-24
-24
-26
-28
-30
-32
-33
-33
-32
-31
-28
-25
-22
-20
-19
-19
-20
-21
-22
-24
-25
-26
-27
-27
-28
-28
-28
-28
-28
-27
-26
-25
-24
-23
-21
-21
-21
-21
-21
-22
-23
-23
-24
-23
-22
-21
-19
-18
-16
-16
-15
-15
-16
-16
-17
-17
-18
-17
-17
-16
-15
-15
-15
-15
-15
-16
-17
-17
-17
-16
-16
-15
-15
-15
-15
-15
-15
-15
-15
-14
-14
-13
-14
-15
-16
-19
-21
-24
-26
-28
-29
-29
-29
-28
-28
-27
-26
-26
-26
-26
-25
-25
-25
-24
-23
-23
-22
-22
-22
-24
-28
-33
-39
-45
-52
-56
-57
-54
-46
-33
-16
5
29
54
81
109
138
168
200
232
263
290
309
317
312
293
260
217
168
119
73
35
7
-10
-18
-18
-15
-11
-8
-7
-8
-10
-12
-14
-13
-12
-10
-8
-6
-6
-7
-8
-9
-11
-11
-11
-10
-9
-8
-8
-8
-9
-9
-9
-8
-7
-5
-3
-1
1
1
1
1
0
0
0
1
2
4
5
6
6
6
6
5
6
6
8
10
12
14
16
17
18
19
19
18
18
18
19
20
21
23
25
28
30
32
34
36
38
40
41
43
45
47
49
51
53
56
58
61
64
66
68
70
72
73
75
77
79
80
82
84
86
88
89
90
91
91
91
90
89
88
87
85
83
81
79
76
73
69
65
61
56
52
48
44
40
37
34
31
28
25
21
18
14
12
10
9
8
8
8
8
7
6
4
2
0
-1
-2
-2
-2
-1
-1
0
0
-1
-2
-3
-4
-5
-5
-5
-5
-4
-3
-2
-2
-1
-1
-1
-1
-1
-1
-1
0
0
0
1
0
0
-1
-2
-3
-4
-5
-5
-4
-3
-2
-2
-1
-2
-2
-3
-4
-4
-4
-3
-2
0
1
2
3
3
1
-1
-3
-5
-6
-7
-7
-7
-6
-5
-4
-3
-3
-2
-2
-1
0
0
1
1
1
0
-1
-2
-4
-5
-5
-6
-6
-5
-5
-4
-4
-4
-4
-4
-5
-5
-4
-4
-4
-4
-4
-4
-5
-6
-6
-6
-6
-5
-4
-3
-2
-1
-2
-3
-5
-7
-9
-11
-11
-11
-11
-10
-9
-8
-7
-7
-7
-7
-7
-7
-7
-6
-6
-6
-7
-8
-8
-9
-10
-10
-10
-9
-8
-7
-7
-6
-7
-8
-9
-10
-11
-12
-11
-11
-10
-10
-9
-9
-10
-10
-11
-11
-11
-10
-9
-8
-7
-7
-7
-7
-8
-10
-11
-12
-13
-14
-14
-13
-13
-12
-12
-11
-11
-10
-10
-10
-10
-10
-11
-12
-13
-14
-15
-16
-16
-15
-14
-13
-12
-12
-12
-12
-13
-14
-15
-16
-17
-17
-17
-16
-16
-16
-16
-16
-16
-16
-17
-16
-16
-16
-15
-14
-14
-13
-13
-13
-14
-14
-15
-16
-16
-17
-17
-18
-18
-18
-18
-18
-19
-19
-19
-20
-20
-20
-20
-20
-19
-18
-17
-16
-15
-16
-16
-17
-18
-19
-20
-20
-19
-19
-18
-17
-17
-17
-18
-18
-19
-20
-20
-20
-19
-18
-17
-16
-15
-15
-16
-17
-18
-20
-21
-22
-22
-21
-20
-19
-18
-17
-16
-16
-15
-14
-14
-13
-12
-11
-10
-10
-10
-10
-10
-11
-12
-12
-12
-12
-12
-12
-11
-12
-13
-14
-17
-19
-22
-24
-25
-25
-24
-22
-19
-16
-13
-12
-12
-14
-17
-20
-24
-27
-29
-30
-29
-28
-27
-26
-25
-25
-25
-26
-27
-28
-28
-28
-29
-29
-29
-29
-29
-29
-28
-28
-27
-28
-30
-33
-39
-46
-53
-59
-64
-64
-61
-52
-38
-20
2
26
51
78
107
137
170
204
238
269
295
312
317
308
284
249
204
154
104
59
22
-4
-20
-28
-29
-26
-23
-20
-19
-19
-21
-22
-23
-23
-22
-21
-19
-18
-18
-18
-19
-20
-21
-21
-20
-19
-18
-17
-16
-15
-15
-16
-16
-16
-16
-15
-15
-14
-13
-13
-12
-12
-12
-12
-12
-11
-10
-9
-8
-7
-7
-7
-7
-7
-7
-7
-7
-6
-5
-4
-3
-2
-1
0
2
3
4
6
7
8
8
9
10
11
12
14
16
19
22
24
26
27
28
29
29
30
32
35
38
42
47
51
55
58
61
62
63
64
66
67
69
71
73
74
75
75
74
73
71
70
69
69
69
68
67
66
63
59
55
49
44
39
34
30
27
24
22
21
19
16
14
11
7
4
0
-4
-7
-10
-12
-14
-14
-15
-15
-14
-14
-13
-14
-14
-15
-17
-18
-20
-21
-22
-22
-21
-21
-19
-19
-18
-18
-18
-18
-19
-19
-20
-20
-21
-21
-21
-20
-20
-20
-20
-20
-19
-19
-18
-17
-17
-16
-15
-15
-15
-16
-17
-18
-19
-21
-22
-23
-24
-24
-24
-23
-22
-21
-20
-20
-20
-20
-21
-22
-23
-24
-25
-25
-25
-24
-23
-23
-22
-22
-22
-22
-22
-22
-21
-20
-20
-19
-19
-19
-20
-21
-22
-23
-24
-24
-23
-21
-19
-18
-16
-16
-16
-17
-18
-20
-23
-25
-26
-28
-28
-28
-28
-27
-26
-26
-26
-26
-27
-27
-28
-28
-28
-28
-27
-27
-26
-25
-24
-24
-24
-24
-24
-24
-24
-25
-25
-25
-25
-26
-26
-27
-27
-27
-27
-27
-26
-26
-25
-24
-24
-24
-24
-25
-26
-26
-27
-27
-27
-26
-25
-25
-24
-24
-24
-24
-25
-25
-26
-26
-26
-27
-27
-27
-27
-28
-28
-28
-28
-27
-27
-26
-25
-24
-24
-23
-23
-22
-22
-21
-21
-21
-22
-22
-23
-24
-25
-26
-26
-26
-25
-24
-22
-22
-21
-21
-22
-23
-24
-24
-25
-24
-23
-22
-20
-19
-18
-17
-18
-19
-20
-21
-22
-23
-24
-24
-24
-24
-24
-23
-22
-21
-19
-18
-17
-17
-17
-17
-18
-19
-20
-21
-22
-22
-23
-22
-22
-21
-21
-20
-19
-18
-17
-16
-16
-15
-15
-15
-16
-16
-17
-18
-19
-20
-20
-21
-21
-20
-19
-19
-18
-17
-17
-16
-16
-16
-17
-17
-17
-16
-16
-16
-16
-15
-16
-16
-16
-17
-17
-17
-17
-16
-15
-15
-14
-14
-15
-16
-16
-17
-16
-15
-14
-12
-10
-8
-7
-7
-8
-8
-9
-9
-8
-6
-4
-2
0
2
2
2
1
0
-1
-3
-4
-5
-6
-7
-8
-8
-9
-8
-7
-5
-3
-1
1
1
0
-3
-7
-11
-15
-18
-19
-19
-17
-15
-12
-10
-10
-10
-12
-14
-17
-18
-19
-19
-18
-17
-16
-16
-16
-17
-18
-19
-20
-21
-22
-24
-26
-30
-34
-39
-43
-45
-44
-38
-27
-11
9
33
60
89
119
150
181
213
243
269
290
302
303
291
266
230
186
138
90
47
13
-11
-25
-31
-30
-26
-21
-17
-15
-14
-14
-13
-12
-10
-8
-5
-3
-3
-4
-6
-8
-10
-12
-13
-12
-11
-9
-8
-7
-7
-7
-6
-6
-4
-3
-2
-1
-1
-2
-3
-5
-6
-6
-5
-3
-1
2
4
5
5
4
2
1
1
2
5
8
12
15
18
19
19
18
16
14
13
13
14
16
18
20
23
25
27
29
30
32
35
37
40
43
45
46
47
48
48
49
50
51
54
58
63
68
73
76
79
80
80
79
77
77
77
79
82
86
90
94
95
95
93
90
85
79
74
70
67
65
63
62
60
57
53
49
45
40
35
30
26
22
18
15
12
10
8
6
5
4
3
2
1
0
-1
-1
-1
-1
0
1
1
2
2
1
-1
-3
-6
-8
-10
-12
-12
-13
-12
-12
-11
-11
-12
-13
-14
-15
-15
-15
-14
-12
-10
-8
-6
-5
-5
-5
-7
-8
-9
-10
-10
-9
-9
-8
-8
-8
-9
-10
-11
-12
-12
-12
-11
-9
-8
-6
-4
-4
-4
-5
-6
-8
-9
-11
-12
-12
-13
-13
-12
-12
-11
-10
-9
-8
-7
-6
-6
-6
-6
-7
-8
-9
-10
-11
-12
-12
-11
-11
-10
-10
-10
-10
-10
-11
-11
-13
-14
-15
-16
-17
-17
-17
-17
-17
-16
-14
-13
-12
-12
-12
-13
-14
-15
-16
-17
-17
-16
-15
-14
-13
-12
-12
-12
-13
-15
-16
-17
-18
-19
-19
-19
-20
-20
-19
-19
-18
-17
-16
-14
-13
-12
-11
-11
-11
-12
-13
-14
-15
-17
-18
-18
-18
-18
-17
-15
-14
-12
-11
-11
-11
-12
-14
-16
-19
-20
-21
-21
-21
-19
-18
-17
-16
-17
-17
-19
-20
-22
-22
-22
-20
-18
-16
-13
-11
-10
-9
-9
-9
-9
-10
-10
-10
-10
-11
-11
-11
-12
-12
-13
-13
-13
-14
-14
-15
-15
-16
-17
-17
-17
-17
-16
-15
-14
-14
-14
-14
-14
-15
-16
-17
-18
-18
-17
-16
-16
-15
-15
-16
-17
-17
-18
-19
-19
-18
-17
-16
-16
-15
-15
-15
-16
-17
-18
-19
-20
-20
-19
-19
-18
-17
-16
-15
-14
-14
-13
-13
-12
-12
-13
-13
-14
-16
-17
-18
-19
-20
-19
-19
-17
-16
-14
-12
-10
-10
-10
-12
-14
-17
-20
-23
-25
-26
-26
-25
-24
-22
-22
-22
-23
-25
-27
-29
-31
-32
-32
-31
-30
-28
-26
-25
-24
-24
-25
-27
-31
-36
-41
-46
-51
-54
-55
-52
-46
-37
-23
-7
12
33
56
82
110
139
170
201
229
252
267
271
263
242
210
169
125
81
42
11
-11
-24
-28
-28
-25
-22
-21
-22
-24
-28
-30
-32
-31
-29
-25
-22
-19
-17
-17
-18
-19
-21
-22
-21
-20
-17
-15
-13
-12
-11
-12
-13
-15
-17
-18
-19
-18
-18
-16
-14
-13
-11
-9
-9
-8
-8
-9
-10
-11
-12
-13
-12
-11
-10
-8
-5
-4
-2
-2
-2
-3
-3
-4
-3
-2
0
4
7
10
13
15
16
16
15
15
15
16
17
19
22
25
28
31
34
36
38
40
41
43
45
48
51
54
57
60
63
64
66
66
66
66
66
66
66
67
68
68
69
69
69
68
67
65
63
60
57
53
48
44
39
33
28
23
19
15
12
10
9
7
6
5
3
1
-2
-4
-7
-9
-11
-12
-13
-14
-15
-15
-16
-17
-17
-18
-19
-20
-20
-21
-21
-21
-21
-21
-20
-20
-19
-18
-18
-18
-19
-20
-21
-22
-22
-22
-21
-20
-19
-17
-16
-15
-15
-16
-16
-17
-17
-17
-17
-16
-16
-16
-17
-19
-21
-23
-25
-26
-26
-25
-23
-21
-18
-16
-15
-15
-16
-17
-18
-19
-19
-20
-20
-19
-19
-19
-19
-19
-19
-19
-18
-18
-17
-16
-15
-14
-14
-14
-14
-15
-16
-18
-20
-22
-23
-24
-25
-25
-24
-23
-21
-19
-18
-17
-16
-16
-16
-16
-17
-17
-17
-17
-17
-16
-15
-14
-14
-14
-15
-16
-17
-18
-19
-19
-19
-18
-17
-16
-16
-16
-17
-18
-20
-22
-23
-23
-23
-21
-20
-18
-17
-16
-17
-18
-20
-22
-24
-24
-24
-23
-20
-17
-15
-13
-12
-13
-15
-17
-20
-23
-24
-25
-24
-22
-20
-17
-15
-14
-14
-15
-16
-18
-19
-20
-21
-21
-21
-21
-20
-20
-20
-19
-19
-19
-18
-18
-17
-17
-18
-19
-20
-21
-23
-23
-23
-22
-20
-18
-16
-14
-14
-14
-14
-16
-18
-20
-22
-23
-24
-24
-23
-23
-22
-21
-21
-21
-21
-21
-22
-22
-22
-21
-20
-19
-18
-17
-16
-15
-15
-15
-15
-15
-16
-16
-16
-16
-15
-14
-12
-10
-9
-8
-8
-8
-10
-11
-13
-14
-15
-15
-15
-14
-13
-13
-12
-11
-11
-11
-11
-10
-10
-9
-9
-8
-9
-10
-11
-13
-14
-16
-17
-18
-19
-20
-20
-20
-20
-20
-20
-20
-19
-19
-19
-19
-19
-20
-21
-22
-23
-23
-22
-21
-21
-22
-24
-28
-33
-40
-46
-51
-52
-50
-42
-30
-13
7
29
53
78
103
130
158
187
215
241
263
276
279
269
247
213
172
127
84
45
14
-8
-20
-25
-25
-22
-19
-17
-17
-18
-20
-21
-20
-19
-17
-14
-13
-13
-14
-16
-19
-21
-23
-23
-21
-18
-15
-12
-10
-9
-10
-12
-14
-16
-17
-17
-16
-15
-13
-12
-11
-10
-10
-10
-10
-10
-9
-9
-7
-6
-5
-5
-5
-5
-6
-7
-6
-6
-4
-1
2
5
7
10
11
11
12
12
12
12
14
15
17
18
20
21
22
22
23
25
27
29
32
35
37
40
41
43
44
46
48
50
53
55
58
60
61
61
60
60
60
61
63
67
72
77
81
84
85
84
81
76
70
65
60
57
55
53
52
51
48
45
40
34
28
23
18
15
13
12
11
10
9
7
4
1
-3
-6
-8
-9
-10
-10
-10
-10
-10
-11
-12
-13
-13
-14
-14
-14
-14
-13
-13
-13
-14
-14
-15
-16
-16
-16
-16
-16
-16
-16
-17
-17
-17
-16
-15
-14
-13
-12
-11
-11
-12
-13
-15
-17
-18
-19
-19
-18
-16
-15
-13
-12
-11
-11
-12
-12
-12
-13
-13
-13
-13
-13
-14
-15
-16
-17
-17
-18
-17
-16
-15
-14
-13
-13
-13
-13
-14
-15
-16
-17
-17
-18
-18
-19
-19
-20
-21
-21
-21
-21
-20
-20
-19
-18
-17
-17
-17
-16
-16
-16
-16
-16
-16
-16
-16
-16
-17
-17
-18
-18
-18
-19
-18
-18
-19
-19
-19
-19
-19
-18
-17
-15
-13
-11
-8
-7
-6
-6
-7
-8
-9
-11
-12
-13
-12
-12
-11
-10
-9
-9
-9
-10
-12
-13
-14
-15
-14
-14
-13
-11
-10
-9
-9
-10
-10
-11
-12
-13
-13
-13
-12
-11
-10
-9
-8
-8
-7
-6
-6
-5
-4
-3
-3
-3
-3
-4
-6
-7
-8
-9
-9
-9
-9
-9
-8
-8
-8
-8
-8
-8
-7
-7
-6
-5
-4
-3
-2
-2
-3
-3
-3
-4
-3
-3
-2
-2
-2
-2
-3
-4
-6
-7
-9
-10
-10
-9
-8
-7
-5
-4
-3
-2
-3
-4
-5
-7
-9
-11
-12
-13
-14
-14
-14
-13
-13
-12
-12
-12
-13
-14
-15
-16
-17
-18
-18
-18
-17
-16
-16
-15
-15
-15
-16
-16
-16
-16
-15
-14
-13
-11
-10
-10
-10
-10
-12
-13
-15
-16
-17
-18
-18
-19
-18
-18
-18
-18
-18
-17
-16
-15
-13
-12
-10
-10
-9
-10
-11
-13
-15
-17
-18
-20
-21
-22
-23
-24
-26
-27
-29
-30
-31
-31
-30
-28
-27
-26
-25
-25
-26
-27
-29
-29
-30
-29
-28
-28
-29
-31
-35
-41
-48
-55
-59
-59
-55
-46
-31
-12
10
33
58
84
111
139
168
197
227
253
274
286
286
273
247
210
165
117
72
32
2
-17
-28
-30
-28
-24
-20
-18
-18
-19
-21
-22
-21
-20
-17
-14
-12
-12
-12
-14
-16
-18
-19
-20
-20
-19
-19
-19
-20
-21
-23
-24
-23
-22
-19
-16
-13
-10
-8
-8
-8
-10
-11
-12
-13
-12
-10
-8
-5
-3
-1
1
1
2
2
2
3
3
4
4
5
6
7
7
8
8
9
10
10
11
12
14
15
17
20
22
25
27
29
31
32
33
34
36
38
40
43
45
48
50
52
54
55
57
59
61
64
67
70
72
74
76
76
76
76
75
75
75
75
76
76
76
74
73
70
66
62
58
54
51
47
44
40
37
33
29
25
21
17
13
10
7
5
3
2
0
-1
-2
-4
-6
-8
-10
-12
-14
-15
-16
-16
-16
-16
-16
-15
-15
-15
-16
-17
-18
-19
-20
-21
-21
-20
-19
-18
-17
-16
-15
-15
-16
-17
-18
-19
-20
-21
-22
-23
-23
-23
-23
-23
-23
-22
-21
-21
-20
-20
-19
-20
-20
-21
-22
-23
-24
-25
-25
-25
-25
-24
-24
-23
-22
-22
-22
-22
-21
-21
-20
-20
-18
-17
-16
-15
-15
-15
-15
-15
-16
-16
-16
-16
-16
-16
-15
-16
-16
-17
-18
-19
-20
-21
-21
-20
-19
-18
-17
-17
-16
-16
-17
-18
-18
-19
-20
-20
-21
-21
-21
-21
-21
-21
-21
-21
-21
-21
-21
-20
-20
-20
-20
-20
-19
-19
-19
-19
-19
-20
-20
-20
-20
-21
-21
-22
-22
-23
-23
-22
-21
-20
-19
-18
-17
-17
-17
-18
-19
-21
-23
-25
-26
-27
-27
-26
-25
-25
-24
-23
-23
-23
-23
-23
-23
-22
-21
-20
-20
-19
-19
-20
-21
-22
-23
-24
-25
-25
-25
-24
-23
-22
-21
-21
-21
-22
-22
-23
-24
-23
-23
-22
-20
-18
-17
-16
-16
-17
-18
-20
-21
-22
-22
-22
-20
-19
-17
-15
-14
-14
-15
-16
-18
-19
-20
-20
-19
-18
-17
-16
-16
-16
-17
-18
-19
-20
-21
-21
-20
-20
-19
-18
-17
-17
-17
-18
-19
-20
-21
-22
-22
-22
-22
-22
-21
-21
-20
-20
-19
-19
-19
-18
-17
-17
-16
-15
-14
-14
-14
-14
-14
-14
-14
-13
-12
-10
-8
-6
-5
-5
-5
-6
-7
-8
-9
-10
-10
-9
-9
-9
-9
-10
-12
-13
-14
-15
-15
-15
-13
-12
-11
-10
-10
-10
-11
-13
-15
-17
-18
-19
-19
-19
-20
-20
-21
-21
-22
-23
-23
-23
-22
-21
-20
-20
-20
-20
-21
-22
-22
-23
-23
-23
-24
-25
-29
-34
-39
-45
-50
-51
-48
-40
-27
-9
14
39
66
93
121
150
180
210
239
266
289
303
306
297
274
239
195
147
99
57
23
-1
-14
-18
-17
-13
-9
-8
-9
-12
-16
-20
-22
-22
-20
-16
-13
-9
-8
-8
-9
-12
-15
-18
-19
-20
-19
-18
-16
-14
-12
-11
-10
-10
-10
-10
-10
-10
-10
-10
-10
-9
-9
-8
-7
-7
-6
-7
-7
-8
-9
-9
-9
-8
-7
-4
-2
0
2
3
4
5
5
5
6
7
8
9
11
12
12
13
13
13
14
15
16
19
22
25
28
30
32
34
35
36
38
39
41
44
46
49
52
54
56
57
59
60
62
64
67
69
71
72
73
73
72
71
70
69
69
69
69
69
69
68
66
63
59
54
49
43
38
33
28
24
21
17
14
12
9
6
3
0
-2
-4
-7
-9
-10
-12
-13
-14
-15
-15
-16
-16
-16
-16
-17
-17
-17
-17
-17
-17
-18
-18
-18
-18
-19
-20
-21
-21
-21
-21
-21
-20
-20
-20
-20
-21
-22
-24
-24
-25
-24
-23
-22
-20
-19
-17
-17
-18
-19
-21
-22
-24
-24
-24
-24
-22
-21
-19
-17
-16
-15
-14
-14
-14
-14
-14
-15
-16
-17
-18
-18
-19
-19
-18
-17
-15
-14
-12
-12
-11
-12
-13
-14
-16
-17
-18
-18
-18
-17
-16
-15
-15
-15
-15
-15
-16
-16
-16
-15
-15
-14
-13
-13
-13
-14
-15
-15
-16
-16
-17
-17
-17
-17
-17
-17
-17
-18
-19
-19
-20
-20
-19
-19
-17
-16
-15
-14
-13
-12
-12
-12
-13
-14
-15
-16
-17
-17
-18
-18
-19
-18
-18
-17
-16
-14
-13
-12
-11
-11
-10
-10
-10
-10
-10
-10
-9
-9
-9
-9
-10
-11
-12
-14
-15
-16
-17
-17
-16
-15
-14
-13
-12
-11
-12
-12
-13
-14
-14
-15
-15
-15
-15
-15
-16
-17
-18
-20
-21
-22
-23
-22
-21
-20
-18
-16
-15
-14
-13
-13
-14
-15
-16
-17
-17
-18
-18
-18
-18
-18
-19
-19
-20
-21
-21
-21
-21
-21
-21
-20
-19
-17
-16
-16
-15
-15
-15
-16
-16
-18
-19
-20
-21
-22
-22
-22
-21
-19
-18
-16
-15
-14
-14
-14
-14
-14
-14
-13
-13
-12
-10
-9
-7
-6
-5
-4
-3
-4
-4
-5
-6
-7
-9
-10
-11
-11
-11
-10
-9
-7
-6
-5
-5
-6
-8
-10
-12
-13
-14
-15
-15
-15
-14
-15
-16
-17
-19
-21
-23
-25
-25
-25
-23
-22
-20
-19
-19
-20
-21
-22
-24
-25
-25
-25
-26
-27
-30
-34
-40
-46
-51
-55
-55
-49
-39
-23
-2
22
49
78
109
140
172
205
237
267
292
308
314
308
287
255
212
164
116
71
33
5
-12
-21
-24
-22
-19
-17
-16
-16
-17
-17
-17
-17
-16
-15
-15
-16
-18
-21
-24
-26
-27
-26
-24
-21
-17
-15
-13
-13
-15
-16
-18
-20
-20
-19
-18
-16
-14
-13
-12
-11
-11
-11
-12
-12
-11
-11
-10
-9
-9
-8
-7
-5
-4
-3
-2
-1
-1
-2
-3
-4
-5
-5
-4
-1
2
6
10
13
15
16
16
15
14
13
14
15
18
22
26
29
32
34
36
37
38
40
43
45
49
52
55
57
58
58
58
58
59
61
64
67
71
74
76
77
76
75
73
72
70
69
69
69
69
69
67
64
60
55
50
45
40
36
32
29
26
23
19
15
11
6
3
-1
-3
-4
-5
-6
-6
-6
-7
-8
-9
-11
-12
-13
-14
-15
-16
-17
-18
-20
-21
-23
-24
-25
-25
-25
-24
-22
-21
-19
-18
-17
-16
-16
-16
-17
-18
-18
-19
-20
-20
-21
-21
-21
-20
-20
-20
-20
-20
-20
-20
-20
-20
-20
-20
-20
-20
-20
-21
-22
-23
-24
-25
-25
-25
-25
-24
-22
-21
-19
-18
-17
-17
-17
-17
-18
-18
-18
-18
-18
-18
-18
-18
-18
-18
-18
-19
-19
-18
-18
-18
-17
-17
-17
-17
-17
-18
-19
-21
-22
-23
-23
-23
-23
-23
-22
-22
-22
-21
-21
-21
-21
-20
-20
-20
-19
-20
-20
-20
-21
-22
-22
-22
-22
-21
-21
-20
-20
-20
-20
-21
-21
-22
-22
-22
-22
-21
-21
-21
-21
-22
-23
-24
-25
-25
-24
-23
-22
-21
-20
-20
-20
-21
-23
-24
-25
-26
-25
-24
-22
-20
-18
-17
-17
-18
-20
-22
-24
-25
-26
-26
-25
-24
-22
-21
-21
-21
-22
-24
-26
-27
-27
-26
-25
-23
-20
-18
-17
-17
-18
-20
-21
-22
-23
-22
-21
-19
-18
-17
-16
-17
-19
-22
-24
-26
-26
-25
-23
-21
-18
-15
-14
-14
-16
-19
-21
-24
-25
-26
-24
-22
-19
-16
-14
-12
-12
-12
-13
-14
-14
-14
-13
-12
-11
-11
-11
-11
-12
-13
-14
-14
-13
-12
-11
-10
-9
-9
-10
-12
-14
-17
-18
-19
-19
-18
-17
-16
-14
-14
-13
-13
-13
-14
-15
-16
-17
-18
-19
-21
-22
-23
-24
-24
-24
-23
-22
-21
-20
-20
-20
-21
-22
-23
-24
-26
-28
-32
-37
-42
-48
-53
-55
-53
-48
-37
-22
-3
18
42
67
94
122
151
183
215
247
274
295
305
302
284
253
210
161
110
63
24
-5
-23
-32
-33
-30
-25
-21
-19
-19
-19
-20
-21
-20
-18
-16
-15
-14
-14
-15
-17
-18
-19
-19
-18
-16
-14
-12
-11
-11
-11
-13
-14
-15
-15
-15
-15
-14
-13
-12
-11
-10
-9
-9
-9
-9
-9
-9
-10
-10
-10
-10
-8
-6
-3
1
4
7
9
9
8
7
5
3
2
3
4
7
10
13
15
17
18
18
19
19
20
22
24
27
29
31
33
34
36
37
39
41
45
49
53
57
61
64
66
67
68
69
70
71
73
75
77
78
80
80
81
80
79
78
76
75
74
73
72
70
68
65
61
56
51
45
40
35
31
27
24
22
19
17
14
11
7
3
0
-4
-7
-10
-11
-12
-13
-13
-13
-13
-12
-12
-13
-13
-14
-15
-16
-17
-18
-19
-20
-21
-21
-21
-20
-20
-19
-18
-18
-18
-18
-18
-19
-19
-19
-19
-19
-19
-19
-19
-19
-19
-20
-21
-21
-21
-21
-21
-20
-19
-19
-19
-19
-20
-21
-21
-22
-22
-22
-22
-22
-22
-22
-23
-23
-24
-24
-24
-23
-20
-18
-15
-13
-12
-12
-14
-16
-20
-23
-25
-26
-26
-24
-22
-19
-17
-15
-14
-15
-16
-18
-20
-22
-22
-22
-22
-20
-19
-19
-19
-20
-21
-23
-24
-25
-25
-24
-22
-20
-18
-16
-15
-15
-15
-16
-17
-18
-18
-17
-17
-16
-16
-17
-18
-20
-22
-24
-25
-26
-25
-24
-22
-21
-20
-20
-21
-22
-23
-24
-24
-24
-22
-20
-19
-18
-18
-20
-22
-25
-28
-29
-29
-28
-25
-22
-19
-16
-15
-15
-17
-19
-22
-25
-27
-28
-29
-29
-28
-28
-28
-27
-27
-27
-27
-26
-25
-24
-23
-22
-22
-23
-23
-24
-25
-25
-25
-23
-22
-20
-18
-17
-17
-17
-17
-18
-18
-18
-18
-18
-17
-16
-16
-17
-17
-18
-19
-19
-19
-18
-17
-17
-16
-16
-17
-19
-21
-24
-26
-28
-29
-29
-29
-29
-29
-29
-29
-30
-31
-31
-31
-30
-28
-26
-23
-21
-19
-19
-19
-21
-23
-26
-28
-30
-31
-33
-34
-36
-39
-43
-46
-49
-50
-48
-43
-34
-21
-4
16
39
65
92
122
153
184
215
243
265
279
283
274
252
218
176
128
81
38
4
-21
-35
-40
-39
-34
-28
-24
-22
-23
-25
-27
-28
-27
-25
-22
-19
-16
-15
-16
-18
-21
-23
-24
-24
-22
-18
-15
-12
-11
-11
-13
-15
-17
-19
-20
-20
-19
-17
-14
-12
-10
-9
-9
-10
-10
-11
-11
-11
-11
-10
-10
-10
-9
-9
-9
-8
-8
-7
-6
-5
-4
-3
-2
0
1
3
4
7
9
11
13
15
16
17
18
19
20
21
23
26
29
33
37
40
43
44
45
46
46
46
47
48
50
53
56
59
62
64
66
68
69
70
71
72
73
74
75
76
75
74
72
70
67
63
59
56
52
48
45
42
38
35
31
27
22
18
13
8
4
1
-2
-4
-6
-7
-8
-10
-12
-14
-17
-19
-21
-22
-22
-22
-20
-18
-17
-15
-15
-16
-17
-19
-20
-22
-23
-23
-23
-22
-22
-22
-22
-23
-24
-25
-25
-25
-25
-24
-23
-22
-22
-23
-23
-25
-26
-27
-27
-27
-26
-25
-24
-23
-23
-23
-23
-24
-25
-26
-26
-26
-26
-25
-24
-23
-22
-21
-20
-19
-19
-19
-19
-19
-20
-21
-22
-23
-23
-24
-24
-24
-24
-23
-22
-21
-21
-20
-20
-21
-21
-22
-22
-23
-23
-22
-21
-20
-19
-18
-18
-18
-18
-18
-18
-18
-18
-17
-17
-17
-18
-19
-21
-23
-25
-26
-28
-28
-28
-27
-27
-26
-25
-25
-25
-25
-26
-25
-24
-23
-21
-19
-18
-17
-17
-18
-20
-23
-25
-27
-28
-28
-27
-25
-23
-22
-21
-20
-21
-22
-24
-26
-26
-26
-26
-24
-22
-21
-19
-19
-19
-21
-22
-24
-25
-25
-25
-24
-22
-21
-19
-18
-18
-18
-19
-19
-19
-18
-17
-15
-13
-12
-11
-11
-13
-15
-17
-18
-19
-19
-18
-16
-14
-12
-11
-11
-13
-15
-17
-20
-22
-24
-24
-24
-24
-23
-23
-23
-23
-23
-23
-23
-22
-22
-22
-22
-22
-24
-25
-27
-29
-30
-30
-29
-28
-26
-25
-26
-29
-34
-41
-48
-54
-57
-55
-48
-36
-19
1
24
48
74
100
127
155
184
214
241
264
279
283
275
253
219
177
130
84
43
9
-14
-27
-32
-31
-27
-23
-20
-19
-20
-21
-23
-24
-23
-22
-20
-19
-19
-19
-21
-23
-25
-27
-26
-25
-22
-18
-15
-12
-10
-10
-12
-14
-17
-19
-21
-22
-22
-21
-20
-18
-16
-14
-13
-12
-12
-12
-12
-13
-13
-13
-12
-11
-10
-8
-6
-5
-4
-3
-3
-3
-3
-2
-1
0
3
6
8
11
13
15
15
15
15
15
15
16
17
19
22
24
27
30
32
33
35
37
38
40
43
46
49
53
56
59
62
64
66
67
68
68
69
69
70
71
71
71
72
72
71
70
69
67
65
61
58
54
50
45
41
38
34
31
28
25
22
19
16
12
9
6
3
0
-3
-5
-7
-8
-9
-10
-11
-11
-12
-12
-12
-13
-14
-15
-16
-17
-18
-18
-18
-18
-17
-16
-15
-15
-15
-15
-15
-15
-16
-16
-16
-16
-16
-16
-16
-16
-16
-16
-16
-16
-16
-16
-16
-15
-15
-16
-17
-18
-19
-21
-22
-23
-23
-22
-20
-18
-16
-14
-13
-12
-12
-13
-15
-17
-18
-19
-19
-18
-18
-17
-16
-15
-15
-15
-15
-16
-16
-16
-16
-16
-16
-16
-16
-15
-15
-14
-13
-13
-13
-13
-13
-14
-16
-17
-19
-19
-19
-18
-16
-15
-13
-12
-12
-12
-13
-14
-15
-15
-15
-14
-13
-12
-11
-11
-11
-12
-13
-13
-14
-15
-15
-15
-15
-16
-16
-16
-17
-16
-16
-15
-14
-13
-12
-12
-13
-15
-16
-18
-19
-20
-20
-20
-19
-19
-18
-18
-18
-18
-18
-18
-17
-16
-15
-13
-12
-11
-10
-11
-12
-13
-15
-16
-17
-17
-17
-16
-15
-13
-12
-11
-10
-10
-9
-9
-8
-8
-7
-6
-5
-5
-5
-5
-6
-7
-9
-10
-10
-10
-10
-9
-8
-7
-5
-5
-4
-4
-5
-6
-7
-9
-11
-13
-15
-16
-17
-18
-19
-19
-19
-20
-20
-21
-21
-21
-20
-19
-18
-17
-16
-16
-16
-17
-19
-20
-22
-23
-24
-25
-27
-29
-33
-37
-42
-47
-50
-51
-47
-39
-26
-10
10
32
56
81
108
136
167
199
232
261
285
300
303
292
267
231
185
136
89
47
14
-8
-21
-26
-25
-21
-18
-15
-14
-15
-16
-17
-17
-17
-16
-14
-13
-13
-14
-15
-16
-17
-17
-16
-14
-13
-11
-11
-11
-11
-13
-14
-14
-14
-13
-11
-10
-8
-7
-7
-7
-7
-8
-9
-9
-9
-8
-7
-6
-6
-5
-4
-3
-2
-1
1
2
3
4
4
4
4
4
5
5
6
8
10
12
13
15
17
18
20
21
23
24
26
28
30
31
33
34
35
37
39
41
43
45
48
51
53
56
58
61
63
65
67
69
71
72
73
73
74
74
74
74
74
74
73
71
69
66
63
59
56
53
51
48
45
42
38
34
28
22
17
11
7
4
2
0
-1
-2
-3
-4
-7
-9
-12
-14
-16
-17
-18
-17
-17
-17
-17
-17
-18
-19
-20
-22
-23
-23
-23
-23
-22
-21
-20
-20
-19
-20
-20
-21
-22
-24
-25
-25
-26
-25
-25
-24
-24
-23
-22
-21
-21
-20
-20
-20
-20
-20
-20
-21
-21
-21
-22
-22
-22
-23
-23
-24
-25
-26
-27
-28
-28
-28
-27
-25
-23
-21
-20
-19
-19
-20
-21
-23
-24
-24
-24
-22
-20
-19
-17
-17
-17
-18
-19
-21
-22
-23
-22
-22
-21
-20
-20
-21
-22
-24
-26
-27
-27
-27
-26
-24
-22
-20
-18
-18
-18
-18
-19
-20
-21
-22
-22
-23
-23
-24
-24
-23
-23
-22
-20
-19
-17
-16
-16
-17
-19
-20
-22
-24
-24
-23
-22
-20
-18
-16
-15
-15
-16
-17
-18
-19
-20
-21
-21
-21
-21
-21
-22
-22
-23
-23
-22
-22
-21
-20
-19
-18
-18
-19
-19
-19
-19
-18
-17
-16
-14
-13
-13
-14
-16
-18
-21
-23
-25
-27
-27
-27
-25
-23
-22
-20
-18
-18
-17
-18
-18
-20
-21
-22
-23
-24
-24
-24
-24
-23
-22
-20
-19
-17
-16
-16
-16
-17
-18
-19
-21
-21
-21
-21
-20
-19
-18
-18
-18
-18
-18
-18
-18
-17
-16
-14
-12
-11
-11
-12
-14
-17
-21
-24
-26
-27
-27
-25
-23
-20
-18
-17
-17
-18
-19
-21
-22
-23
-23
-22
-21
-19
-17
-16
-16
-16
-17
-18
-19
-19
-20
-20
-20
-20
-20
-20
-20
-20
-20
-20
-20
-20
-20
-20
-20
-21
-22
-23
-23
-24
-24
-23
-22
-21
-20
-20
-19
-19
-20
-20
-21
-22
-23
-23
-23
-23
-22
-21
-20
-19
-18
-17
-17
-17
-17
-17
-17
-18
-18
-19
-19
-19
-18
-17
-16
-16
-15
-14
-14
-14
-14
-14
-14
-14
-14
-15
-15
-16
-17
-18
-18
-19
-19
-19
-18
-17
-16
-15
-14
-12
-12
-11
-12
-12
-14
-15
-16
-18
-19
-20
-20
-21
-21
-21
-21
-20
-21
-21
-21
-22
-23
-24
-25
-26
-27
-28
-28
-27
-26
-24
-24
-24
-25
-29
-34
-40
-47
-51
-54
-52
-45
-34
-18
2
24
49
76
103
133
164
196
227
258
283
302
309
305
286
255
214
166
117
71
33
4
-14
-22
-23
-20
-15
-11
-9
-10
-13
-16
-20
-21
-21
-20
-17
-14
-12
-10
-10
-10
-11
-12
-13
-13
-13
-13
-12
-12
-13
-14
-15
-17
-18
-19
-19
-18
-17
-16
-14
-12
-11
-9
-8
-7
-7
-6
-5
-5
-5
-4
-4
-4
-3
-3
-3
-2
-1
-1
0
1
2
4
5
7
8
10
11
12
13
13
13
14
14
15
16
18
20
23
26
29
32
34
35
36
37
38
39
40
43
46
50
54
58
62
65
66
67
67
67
66
66
67
68
70
72
74
76
77
78
78
77
76
74
72
69
66
63
59
55
50
45
39
34
30
26
23
21
19
17
15
13
10
6
3
-2
