4
4
4
3
2
1
-1
-2
-3
-3
-2
-1
0
1
1
1
-1
-3
-6
-9
-11
-12
-12
-11
-9
-7
-5
-3
-2
-2
-3
-4
-5
-6
-7
-8
-8
-8
-8
-8
-8
-8
-8
-7
-7
-6
-5
-5
-5
-5
-5
-6
-6
-6
-6
-5
-4
-3
-1
0
0
0
-1
-2
-4
-5
-6
-6
-6
-6
-7
-7
-8
-8
-9
-10
-10
-10
-9
-7
-5
-3
-2
-1
-2
-3
-4
-6
-7
-8
-8
-8
-6
-5
-4
-4
-3
-4
-4
-5
-6
-6
-7
-7
-7
-7
-7
-8
-8
-9
-9
-10
-9
-9
-8
-7
-7
-6
-6
-7
-8
-9
-10
-10
-11
-11
-11
-11
-11
-12
-12
-13
-12
-12
-11
-9
-7
-6
-5
-4
-5
-6
-7
-10
-12
-13
-15
-16
-16
-16
-16
-15
-14
-12
-11
-9
-7
-6
-5
-5
-6
-8
-10
-12
-14
-15
-15
-14
-12
-10
-8
-7
-6
-7
-8
-9
-10
-11
-12
-12
-11
-10
-9
-8
-7
-7
-7
-7
-7
-7
-6
-5
-3
-2
0
1
2
3
4
5
6
7
8
9
10
10
11
11
11
11
11
11
12
11
11
10
9
7
4
1
-2
-5
-8
-10
-12
-13
-14
-15
-15
-14
-14
-14
-13
-13
-12
-11
-11
-10
-10
-11
-11
-12
-13
-14
-15
-16
-16
-15
-15
-15
-15
-15
-16
-17
-18
-19
-20
-21
-20
-18
-15
-10
-1
12
29
50
77
106
137
166
191
207
212
205
186
157
120
80
42
8
-18
-35
-42
-42
-36
-28
-20
-14
-10
-9
-11
-13
-16
-18
-19
-19
-18
-17
-16
-16
-16
-17
-18
-18
-18
-18
-17
-16
-15
-15
-15
-15
-16
-17
-17
-17
-16
-14
-13
-11
-9
-8
-7
-7
-7
-8
-8
-8
-8
-8
-7
-7
-6
-6
-7
-7
-7
-8
-8
-7
-7
-6
-4
-3
-3
-3
-3
-4
-5
-6
-7
-7
-7
-7
-5
-4
-2
1
3
5
7
8
9
9
9
8
8
8
9
10
12
14
16
18
20
21
21
22
22
23
25
27
31
34
38
42
45
47
48
49
49
49
49
50
51
52
53
54
54
54
53
52
51
50
50
50
51
52
53
53
51
49
45
41
36
31
26
23
19
17
15
13
12
10
8
6
4
2
1
0
-1
-1
-1
-1
-1
-1
-2
-2
-3
-4
-5
-6
-7
-8
-9
-9
-10
-10
-10
-10
-9
-8
-8
-7
-7
-8
-9
-10
-11
-12
-12
-12
-12
-11
-10
-10
-10
-11
-12
-14
-15
-16
-17
-16
-16
-15
-13
-13
-12
-12
-13
-13
-14
-14
-14
-14
-13
-13
-13
-13
-13
-14
-14
-14
-14
-13
-11
-9
-8
-7
-7
-8
-9
-11
-13
-14
-14
-13
-12
-11
-10
-9
-9
-9
-10
-11
-11
-11
-11
-10
-9
-8
-8
-9
-10
-12
-13
-15
-16
-16
-16
-14
-12
-10
-8
-7
-6
-6
-8
-9
-11
-13
-14
-16
-16
-17
-16
-16
-15
-13
-12
-11
-10
-9
-9
-9
-10
-11
-12
-14
-15
-16
-17
-18
-18
-18
-17
-16
-15
-13
-12
-12
-12
-12
-13
-15
-16
-17
-18
-18
-18
-17
-17
-16
-15
-15
-14
-14
-13
-13
-12
-11
-10
-9
-9
-9
-10
-12
-14
-16
-17
-18
-19
-19
-18
-16
-14
-13
-11
-10
-9
-9
-10
-11
-12
-13
-15
-16
-17
-18
-18
-17
-16
-14
-13
-11
-11
-10
-11
-11
-12
-12
-12
-12
-11
-10
-9
-9
-9
-10
-11
-12
-14
-15
-15
-14
-13
-12
-10
-8
-7
-6
-5
-4
-3
-2
0
2
5
7
9
11
12
12
11
10
8
7
6
5
5
5
5
5
4
2
0
-2
-5
-7
-9
-10
-11
-11
-11
-11
-11
-12
-13
-14
-15
-16
-17
-17
-17
-16
-16
-15
-14
-14
-14
-14
-15
-15
-15
-15
-15
-15
-14
-14
-14
-15
-16
-18
-20
-22
-23
-23
-22
-17
-9
3
20
43
69
98
127
155
177
192
197
191
174
147
114
77
41
8
-18
-35
-44
-46
-42
-35
-26
-19
-13
-10
-9
-10
-12
-14
-15
-16
-15
-14
-13
-12
-12
-12
-13
-14
-15
-16
-16
-17
-16
-16
-15
-13
-12
-11
-10
-10
-10
-10
-11
-12
-13
-13
-14
-13
-13
-12
-11
-10
-10
-9
-9
-10
-10
-11
-11
-12
-12
-11
-11
-10
-9
-8
-7
-6
-5
-5
-6
-6
-6
-6
-6
-5
-3
-1
1
3
5
6
6
6
5
4
3
2
2
3
4
6
8
10
12
14
16
18
20
22
23
25
26
26
26
27
27
28
29
31
34
37
40
43
45
46
46
46
46
47
48
50
53
55
58
59
60
59
56
53
49
45
42
39
37
36
35
35
34
33
31
29
26
22
18
14
11
8
6
4
3
3
2
2
1
0
-2
-4
-5
-6
-6
-6
-6
-5
-4
-4
-5
-7
-9
-11
-13
-14
-14
-14
-12
-10
-9
-7
-7
-8
-9
-11
-13
-14
-14
-14
-13
-11
-9
-7
-7
-7
-8
-10
-12
-14
-15
-16
-15
-14
-13
-11
-9
-8
-8
-8
-9
-10
-11
-11
-12
-12
-11
-11
-10
-10
-10
-10
-11
-11
-12
-12
-12
-12
-12
-11
-11
-10
-10
-9
-9
-9
-9
-9
-9
-9
-9
-10
-10
-10
-10
-9
-8
-8
-7
-7
-7
-8
-10
-11
-14
-15
-16
-17
-16
-14
-12
-9
-6
-5
-4
-4
-5
-7
-9
-11
-12
-13
-13
-13
-13
-12
-12
-12
-13
-13
-14
-14
-14
-13
-12
-11
-10
-9
-9
-9
-10
-11
-11
-12
-11
-11
-10
-9
-9
-9
-10
-12
-14
-15
-16
-16
-14
-12
-10
-8
-7
-6
-6
-8
-9
-11
-13
-14
-15
-15
-14
-13
-13
-12
-11
-10
-9
-8
-8
-8
-8
-9
-10
-11
-13
-14
-14
-14
-14
-13
-12
-12
-12
-12
-13
-14
-15
-16
-16
-15
-14
-13
-12
-12
-12
-13
-14
-15
-15
-15
-15
-15
-14
-14
-14
-14
-14
-14
-14
-13
-12
-11
-10
-9
-9
-9
-10
-12
-13
-15
-16
-16
-15
-14
-12
-9
-7
-5
-4
-3
-3
-3
-3
-2
-2
-1
0
2
3
5
7
8
8
8
7
6
5
4
2
1
-1
-2
-3
-4
-5
-6
-7
-8
-8
-8
-8
-7
-6
-5
-4
-3
-3
-3
-4
-6
-8
-11
-13
-15
-17
-18
-18
-17
-16
-14
-12
-11
-10
-10
-10
-11
-12
-13
-14
-15
-16
-16
-16
-16
-14
-11
-6
1
13
29
49
73
99
126
149
166
175
174
163
141
111
76
40
6
-23
-44
-57
-61
-57
-49
-39
-28
-19
-12
-9
-8
-10
-13
-16
-18
-19
-19
-17
-14
-11
-9
-7
-6
-6
-6
-8
-10
-11
-13
-13
-13
-12
-11
-9
-7
-6
-6
-6
-7
-9
-10
-12
-12
-12
-11
-9
-7
-5
-4
-4
-5
-6
-8
-10
-11
-11
-11
-9
-6
-4
-2
-1
0
-1
-2
-4
-5
-6
-6
-5
-4
-2
0
2
3
4
5
6
6
6
5
5
5
5
6
7
9
12
14
18
21
23
25
27
27
28
28
29
30
32
33
35
36
38
38
39
39
40
41
43
45
48
51
53
55
56
57
57
57
57
58
58
58
58
58
56
54
51
47
43
40
37
35
33
32
31
29
28
25
22
19
16
13
10
8
6
5
4
3
2
1
1
0
-1
-2
-2
-3
-3
-4
-4
-5
-6
-8
-9
-11
-12
-13
-13
-12
-11
-9
-7
-6
-5
-5
-6
-8
-10
-12
-13
-14
-15
-15
-14
-13
-13
-13
-13
-14
-14
-15
-16
-15
-14
-13
-11
-9
-7
-6
-5
-6
-7
-9
-11
-12
-14
-15
-15
-15
-15
-14
-13
-13
-12
-11
-10
-10
-9
-9
-9
-9
-9
-9
-10
-10
-10
-9
-9
-8
-7
-7
-7
-8
-8
-9
-10
-11
-11
-10
-9
-8
-6
-5
-5
-5
-6
-7
-9
-10
-11
-12
-12
-12
-12
-11
-11
-11
-11
-12
-12
-12
-12
-12
-11
-10
-9
-8
-7
-6
-6
-7
-7
-8
-10
-11
-11
-12
-12
-12
-11
-11
-11
-10
-11
-12
-13
-14
-15
-16
-16
-15
-14
-12
-10
-9
-7
-7
-7
-9
-10
-11
-12
-13
-13
-13
-13
-13
-13
-13
-14
-15
-16
-16
-16
-14
-12
-10
-8
-7
-7
-7
-9
-11
-13
-14
-15
-15
-14
-13
-12
-11
-11
-12
-13
-15
-16
-17
-18
-17
-16
-14
-12
-11
-10
-10
-11
-12
-14
-15
-16
-16
-15
-13
-11
-8
-7
-5
-5
-5
-6
-6
-7
-7
-6
-5
-4
-3
-3
-3
-3
-3
-3
-2
0
3
5
8
10
12
12
10
8
5
2
0
-1
-2
-2
-2
-2
-2
-3
-4
-6
-8
-10
-12
-13
-13
-14
-14
-14
-14
-14
-15
-15
-15
-15
-15
-15
-15
-15
-15
-15
-14
-14
-14
-13
-12
-12
-11
-11
-11
-12
-14
-16
-18
-20
-22
-23
-23
-19
-13
-3
12
32
56
84
113
142
167
186
196
196
184
162
132
97
60
26
-3
-24
-37
-42
-41
-35
-27
-19
-13
-10
-9
-10
-12
-14
-16
-17
-16
-15
-14
-14
-13
-13
-14
-14
-15
-15
-15
-15
-14
-14
-14
-14
-14
-14
-14
-14
-14
-14
-14
-14
-14
-14
-14
-13
-13
-12
-11
-9
-8
-8
-7
-8
-9
-10
-12
-13
-14
-14
-13
-13
-12
-10
-9
-9
-9
-9
-10
-10
-10
-10
-9
-8
-7
-5
-4
-2
-1
0
0
1
1
2
3
4
5
6
7
8
9
10
11
12
13
15
17
19
21
22
23
24
24
24
25
25
27
28
31
34
38
42
45
48
50
52
52
52
51
50
50
49
49
49
49
50
51
51
51
50
49
46
43
40
36
33
29
26
24
22
21
19
18
17
15
12
10
6
3
-1
-4
-6
-8
-8
-8
-8
-7
-6
-5
-4
-4
-5
-6
-7
-9
-10
-11
-11
-11
-10
-9
-8
-8
-7
-7
-7
-7
-8
-9
-10
-11
-12
-12
-12
-11
-11
-11
-11
-12
-13
-15
-18
-19
-21
-21
-20
-18
-15
-12
-10
-8
-7
-7
-8
-10
-12
-14
-15
-15
-15
-14
-12
-11
-10
-10
-11
-12
-13
-14
-14
-14
-14
-12
-11
-10
-9
-9
-9
-10
-10
-11
-12
-12
-12
-12
-12
-12
-12
-13
-13
-13
-13
-13
-13
-12
-11
-10
-10
-10
-10
-11
-12
-13
-13
-13
-13
-13
-12
-11
-11
-11
-11
-12
-12
-13
-13
-13
-12
-12
-11
-10
-10
-10
-11
-11
-12
-12
-13
-13
-12
-12
-11
-10
-10
-10
-10
-11
-12
-13
-14
-15
-16
-15
-14
-13
-12
-11
-11
-11
-12
-13
-14
-15
-16
-15
-15
-14
-13
-12
-12
-12
-13
-14
-14
-15
-14
-14
-13
-12
-11
-11
-12
-13
-14
-15
-16
-16
-16
-15
-14
-13
-13
-12
-13
-13
-14
-14
-14
-14
-14
-13
-13
-13
-13
-13
-13
-13
-13
-13
-13
-12
-12
-12
-13
-13
-14
-14
-14
-14
-13
-13
-12
-11
-11
-11
-12
-13
-14
-14
-14
-14
-13
-12
-10
-8
-6
-5
-3
-1
2
4
5
6
7
7
6
5
4
3
3
4
6
8
11
13
14
15
14
11
8
4
0
-3
-6
-8
-9
-10
-11
-11
-12
-13
-15
-16
-17
-17
-16
-15
-13
-11
-10
-9
-9
-10
-11
-13
-16
-17
-18
-17
-16
-13
-11
-9
-9
-10
-12
-15
-19
-22
-24
-25
-24
-21
-16
-11
-3
8
22
40
62
89
119
149
176
198
210
210
198
174
141
102
63
28
-2
-22
-33
-37
-34
-29
-22
-16
-13
-11
-12
-13
-15
-16
-16
-15
-13
-12
-11
-11
-11
-13
-14
-15
-15
-15
-14
-12
-9
-7
-6
-6
-6
-8
-10
-12
-14
-15
-15
-15
-14
-13
-12
-12
-12
-12
-12
-12
-11
-10
-9
-8
-7
-7
-7
-8
-9
-10
-11
-12
-12
-11
-11
-10
-8
-7
-6
-5
-4
-4
-3
-2
-2
-2
-2
-2
-2
-2
-1
0
1
2
4
5
6
7
8
8
9
10
11
13
16
18
21
23
25
26
27
27
26
26
26
27
27
29
31
34
37
40
43
45
48
49
51
51
52
52
52
52
52
52
52
52
52
51
50
49
47
45
43
41
39
37
35
32
29
26
23
20
16
13
10
8
6
5
5
5
5
4
3
1
-1
-3
-6
-8
-9
-10
-10
-9
-9
-8
-7
-8
-8
-9
-10
-11
-11
-11
-11
-10
-9
-8
-8
-7
-7
-8
-8
-8
-9
-9
-9
-9
-10
-10
-11
-12
-13
-14
-14
-14
-14
-13
-12
-12
-11
-12
-13
-14
-16
-17
-19
-20
-20
-20
-19
-18
-16
-14
-13
-11
-10
-10
-10
-10
-11
-11
-12
-12
-12
-12
-11
-11
-10
-9
-9
-9
-10
-11
-12
-13
-14
-15
-15
-15
-14
-13
-12
-11
-10
-10
-9
-9
-10
-10
-11
-11
-12
-12
-12
-12
-11
-10
-10
-9
-9
-9
-10
-11
-13
-14
-15
-15
-15
-15
-14
-13
-12
-11
-10
-8
-7
-7
-7
-7
-8
-9
-11
-12
-14
-15
-16
-16
-16
-15
-14
-13
-13
-12
-12
-12
-12
-11
-11
-11
-11
-11
-12
-12
-13
-14
-15
-16
-17
-17
-17
-16
-16
-15
-14
-14
-14
-13
-13
-13
-13
-13
-12
-12
-12
-12
-12
-12
-12
-12
-13
-13
-14
-14
-14
-14
-15
-15
-15
-16
-16
-17
-17
-17
-17
-16
-15
-14
-12
-11
-10
-10
-10
-11
-12
-13
-15
-16
-17
-17
-17
-16
-14
-12
-10
-8
-6
-5
-4
-3
-3
-3
-3
-3
-3
-3
-3
-2
-2
-1
0
2
3
5
6
8
9
10
11
12
12
12
11
10
8
6
3
0
-3
-6
-8
-10
-11
-12
-12
-12
-12
-13
-13
-14
-14
-14
-14
-14
-14
-13
-13
-14
-15
-16
-17
-18
-18
-18
-17
-16
-15
-14
-14
-14
-15
-16
-17
-19
-19
-20
-20
-19
-19
-18
-15
-10
-1
12
32
57
87
119
151
179
199
209
207
192
166
132
93
54
19
-9
-29
-40
-43
-40
-33
-25
-18
-13
-10
-10
-11
-13
-15
-16
-17
-17
-16
-14
-13
-12
-11
-11
-12
-12
-14
-15
-16
-17
-17
-17
-17
-17
-16
-16
-15
-14
-13
-13
-13
-13
-13
-13
-13
-13
-13
-13
-13
-12
-12
-10
-9
-8
-8
-7
-7
-8
-9
-10
-11
-12
-12
-11
-9
-7
-5
-3
-2
-1
-1
-2
-3
-5
-6
-6
-6
-4
-2
0
2
4
5
6
5
4
3
3
3
4
6
8
11
14
16
17
18
19
20
21
22
24
26
29
31
33
35
36
37
38
39
41
43
45
47
49
51
52
52
53
53
53
54
55
56
57
58
59
58
56
54
50
45
41
36
31
27
23
20
18
16
14
13
13
12
11
10
9
8
6
4
2
-1
-3
-5
-7
-8
-8
-8
-7
-6
-5
-4
-3
-3
-4
-6
-8
-10
-12
-13
-14
-14
-12
-10
-8
-6
-5
-4
-4
-4
-5
-6
-7
-8
-9
-10
-11
-11
-12
-13
-13
-14
-15
-15
-15
-16
-15
-15
-14
-13
-12
-11
-10
-10
-9
-10
-10
-11
-12
-13
-13
-13
-13
-13
-13
-13
-13
-12
-12
-12
-12
-11
-11
-10
-9
-8
-7
-7
-7
-7
-7
-8
-8
-8
-9
-9
-10
-11
-11
-12
-13
-13
-13
-13
-12
-12
-11
-11
-11
-11
-11
-11
-10
-9
-8
-7
-5
-4
-3
-3
-4
-5
-7
-8
-10
-11
-12
-13
-12
-12
-11
-10
-9
-8
-7
-6
-6
-5
-5
-6
-7
-8
-9
-11
-12
-12
-12
-12
-11
-10
-9
-8
-8
-9
-10
-11
-13
-14
-14
-14
-14
-13
-11
-10
-9
-9
-9
-9
-10
-11
-11
-12
-12
-11
-11
-10
-8
-8
-7
-6
-6
-7
-8
-8
-9
-10
-11
-11
-12
-11
-11
-10
-9
-8
-7
-6
-5
-5
-5
-6
-7
-8
-10
-11
-11
-11
-11
-10
-9
-8
-8
-7
-6
-6
-7
-7
-8
-8
-8
-8
-8
-8
-7
-7
-6
-5
-5
-4
-3
-2
0
2
3
5
6
6
7
7
7
8
8
9
9
10
10
9
8
6
4
2
0
-1
-3
-4
-6
-7
-9
-11
-13
-14
-15
-15
-14
-13
-12
-11
-10
-11
-12
-14
-16
-18
-19
-20
-20
-20
-19
-18
-17
-16
-15
-15
-14
-13
-13
-13
-14
-14
-16
-17
-19
-20
-21
-20
-18
-13
-6
6
22
42
66
92
119
143
163
175
177
167
147
117
81
44
8
-23
-45
-57
-61
-56
-47
-35
-23
-14
-8
-5
-5
-7
-9
-12
-13
-13
-12
-11
-10
-10
-10
-12
-13
-15
-17
-18
-18
-18
-18
-17
-17
-16
-16
-16
-15
-14
-14
-13
-12
-11
-11
-11
-11
-11
-12
-12
-13
-12
-12
-11
-11
-10
-10
-10
-10
-11
-11
-11
-11
-10
-9
-8
-7
-6
-6
-6
-6
-7
-8
-8
-7
-7
-5
-4
-2
-1
0
0
0
-1
-1
-1
-1
1
3
5
7
9
11
11
12
12
12
13
14
17
20
24
27
30
32
33
33
33
32
32
33
35
38
42
46
50
53
55
56
56
55
55
54
53
52
52
52
52
51
50
49
47
46
44
43
42
40
39
36
34
30
26
22
18
14
11
9
8
7
7
7
7
6
4
1
-1
-4
-5
-6
-6
-5
-4
-2
-1
0
0
-2
-4
-6
-9
-11
-12
-13
-13
-12
-12
-12
-12
-12
-13
-13
-13
-12
-11
-10
-8
-7
-7
-8
-10
-12
-14
-16
-18
-18
-17
-15
-13
-10
-7
-5
-4
-3
-3
-4
-6
-8
-9
-11
-13
-14
-15
-15
-15
-15
-14
-12
-10
-9
-7
-6
-5
-5
-5
-6
-7
-7
-8
-8
-8
-8
-8
-9
-9
-9
-9
-10
-10
-10
-10
-9
-8
-7
-7
-7
-7
-7
-8
-9
-10
-11
-11
-11
-10
-9
-8
-7
-7
-7
-7
-7
-8
-8
-8
-9
-9
-10
-11
-12
-13
-13
-13
-12
-11
-9
-7
-5
-3
-3
-3
-4
-6
-9
-11
-13
-14
-15
-15
-14
-13
-11
-10
-9
-8
-8
-8
-8
-8
-8
-9
-9
-10
-10
-11
-11
-12
-12
-12
-13
-13
-14
-14
-15
-15
-15
-15
-14
-14
-13
-12
-11
-11
-10
-10
-10
-10
-10
-10
-10
-10
-9
-9
-9
-9
-9
-9
-10
-10
-11
-12
-12
-13
-14
-14
-15
-15
-14
-14
-13
-12
-11
-11
-11
-11
-11
-12
-12
-13
-13
-12
-12
-10
-9
-7
-6
-4
-3
-2
-1
0
1
1
2
3
4
5
7
8
9
10
11
11
11
10
9
8
6
4
2
1
0
-1
-2
-2
-3
-4
-5
-7
-9
-11
-13
-15
-17
-18
-18
-18
-17
-16
-15
-13
-12
-11
-11
-11
-11
-13
-14
-15
-17
-17
-17
-17
-16
-15
-13
-13
-12
-12
-13
-15
-16
-17
-18
-18
-16
-12
-5
5
19
38
62
88
117
144
168
185
192
188
173
147
112
74
36
2
-25
-43
-51
-51
-44
-34
-23
-14
-8
-5
-5
-7
-10
-12
-14
-15
-14
-14
-13
-13
-14
-15
-17
-19
-21
-22
-22
-21
-20
-18
-17
-15
-13
-13
-12
-12
-12
-13
-13
-14
-14
-14
-14
-13
-13
-13
-12
-12
-12
-12
-11
-11
-10
-9
-9
-8
-8
-8
-9
-10
-11
-12
-13
-14
-13
-12
-11
-9
-7
-6
-5
-5
-4
-4
-4
-4
-4
-3
-3
-4
-4
-5
-5
-5
-4
-2
1
4
8
11
13
14
15
14
14
14
14
16
19
22
26
29
32
33
34
34
34
35
36
38
40
43
45
47
48
49
49
49
49
50
51
53
55
56
57
55
53
49
45
40
36
33
31
29
28
27
25
24
21
19
15
12
9
7
4
3
1
0
-1
-2
-3
-4
-4
-5
-6
-6
-7
-8
-9
-9
-10
-10
-11
-11
-11
-10
-10
-10
-10
-10
-10
-11
-11
-11
-12
-13
-13
-14
-14
-14
-14
-14
-13
-12
-11
-11
-10
-10
-11
-11
-12
-13
-13
-14
-13
-13
-12
-12
-11
-11
-11
-12
-12
-12
-12
-12
-12
-12
-12
-12
-12
-12
-12
-13
-13
-13
-14
-14
-14
-14
-14
-14
-13
-12
-11
-10
-9
-8
-7
-7
-7
-8
-8
-9
-10
-10
-10
-10
-10
-9
-9
-8
-8
-8
-8
-8
-9
-9
-9
-9
-8
-8
-8
-8
-8
-7
-8
-8
-8
-9
-9
-10
-10
-11
-10
-10
-9
-8
-8
-8
-8
-8
-9
-10
-10
-10
-10
-9
-8
-7
-6
-6
-7
-8
-10
-12
-14
-15
-16
-16
-15
-14
-13
-12
-12
-12
-12
-12
-12
-12
-11
-10
-9
-9
-8
-8
-8
-9
-10
-10
-11
-12
-12
-12
-11
-11
-10
-9
-9
-9
-9
-10
-11
-11
-12
-12
-12
-12
-12
-11
-11
-11
-11
-11
-11
-12
-11
-11
-11
-12
-12
-13
-14
-15
-15
-15
-14
-12
-10
-9
-7
-6
-7
-8
-9
-11
-13
-14
-14
-13
-12
-11
-10
-9
-9
-9
-9
-10
-10
-10
-9
-8
-7
-6
-6
-6
-6
-6
-7
-6
-5
-3
-1
1
3
5
6
6
6
6
6
6
7
8
9
10
11
11
10
9
7
5
2
-1
-3
-5
-7
-8
-9
-9
-9
-9
-9
-10
-10
-11
-12
-13
-13
-13
-12
-11
-9
-8
-7
-8
-9
-12
-14
-17
-19
-19
-18
-16
-13
-10
-8
-8
-9
-12
-15
-19
-23
-24
-24
-23
-19
-14
-7
2
13
29
48
73
101
132
162
188
206
213
207
189
159
121
81
41
8
-17
-33
-39
-38
-32
-25
-17
-12
-8
-7
-8
-9
-10
-10
-10
-10
-10
-10
-11
-11
-12
-13
-13
-13
-13
-12
-11
-11
-11
-11
-12
-13
-13
-12
-11
-9
-7
-5
-4
-4
-5
-6
-8
-9
-11
-11
-10
-9
-8
-7
-7
-7
-7
-9
-10
-12
-12
-12
-11
-9
-7
-5
-3
-2
-1
-2
-3
-5
-6
-7
-8
-8
-7
-6
-5
-3
-2
-1
-1
-1
0
0
1
2
4
5
6
8
9
10
11
12
13
15
16
18
20
21
22
23
24
25
27
29
32
35
39
43
46
48
49
50
49
48
47
46
46
47
47
49
50
51
51
51
50
49
48
46
45
44
42
40
38
35
32
29
25
22
19
17
15
13
11
9
6
4
2
0
-1
-2
-1
-1
0
1
1
1
0
-2
-4
-6
-8
-9
-10
-10
-10
-10
-10
-11
-11
-12
-13
-14
-14
-15
-14
-13
-12
-11
-10
-8
-8
-7
-7
-8
-8
-9
-9
-9
-9
-8
-8
-7
-7
-8
-9
-10
-11
-12
-12
-13
-12
-11
-10
-9
-9
-9
-10
-11
-13
-14
-15
-15
-15
-14
-14
-13
-12
-12
-13
-13
-14
-15
-15
-15
-14
-13
-12
-11
-10
-9
-8
-8
-9
-9
-10
-10
-11
-10
-10
-9
-8
-8
-7
-7
-7
-7
-7
-8
-8
-9
-9
-9
-9
-9
-9
-9
-10
-10
-11
-11
-11
-10
-9
-8
-6
-5
-5
-5
-5
-7
-8
-10
-11
-13
-14
-15
-15
-16
-16
-15
-15
-14
-12
-11
-9
-8
-7
-7
-8
-9
-11
-14
-16
-17
-18
-17
-16
-15
-13
-12
-11
-11
-11
-12
-12
-12
-12
-12
-11
-11
-11
-11
-12
-13
-14
-15
-16
-16
-16
-16
-15
-14
-14
-14
-14
-15
-15
-15
-15
-14
-13
-12
-11
-11
-11
-11
-13
-14
-16
-17
-18
-18
-17
-15
-14
-13
-12
-12
-13
-14
-15
-16
-17
-17
-17
-16
-15
-14
-14
-13
-13
-13
-13
-13
-12
-11
-10
-9
-8
-8
-8
-8
-10
-11
-12
-13
-13
-13
-12
-11
-10
-9
-9
-9
-10
-10
-11
-10
-9
-7
-5
-1
2
5
7
8
8
7
6
5
4
4
5
6
8
10
12
13
13
12
10
7
4
0
-3
-7
-9
-11
-13
-13
-13
-12
-12
-11
-10
-10
-11
-12
-13
-14
-15
-16
-16
-16
-15
-15
-14
-14
-14
-14
-15
-16
-16
-17
-17
-17
-17
-17
-17
-18
-19
-21
-23
-24
-25
-24
-21
-14
-4
11
32
57
87
118
149
177
197
208
207
194
170
137
99
60
25
-5
-26
-38
-42
-39
-32
-23
-16
-11
-9
-9
-11
-14
-17
-19
-19
-19
-17
-16
-14
-14
-13
-14
-15
-15
-16
-16
-16
-16
-16
-17
-17
-17
-17
-17
-16
-15
-14
-13
-11
-10
-9
-9
-9
-10
-10
-11
-11
-11
-11
-11
-11
-11
-11
-11
-11
-11
-11
-11
-10
-10
-9
-9
-9
-9
-9
-9
-8
-8
-7
-6
-5
-3
-2
-1
-1
0
0
0
-1
-1
-1
-1
0
0
1
3
4
6
8
9
11
12
14
15
17
18
20
22
24
26
28
29
31
32
33
34
36
38
40
42
44
46
47
48
48
48
49
49
50
52
53
53
54
53
52
51
49
47
45
44
43
41
39
37
34
30
25
20
16
12
9
7
6
6
6
6
6
5
4
2
1
-1
-1
-2
-1
-1
0
-1
-1
-3
-5
-7
-9
-11
-12
-12
-11
-10
-9
-8
-8
-8
-9
-11
-12
-14
-15
-15
-15
-14
-12
-11
-9
-8
-8
-8
-9
-10
-12
-14
-15
-16
-17
-16
-15
-13
-11
-10
-8
-7
-7
-7
-7
-8
-9
-9
-9
-9
-8
-8
-8
-8
-9
-10
-11
-12
-13
-13
-13
-12
-11
-10
-9
-9
-9
-9
-10
-10
-10
-10
-10
-9
-8
-7
-6
-5
-4
-5
-6
-7
-10
-12
-15
-16
-17
-16
-14
-12
-9
-6
-4
-3
-3
-4
-7
-9
-11
-12
-12
-12
-11
-9
-8
-7
-7
-7
-7
-8
-9
-10
-11
-12
-12
-12
-13
-13
-13
-13
-13
-13
-12
-11
-11
-10
-10
-10
-10
-11
-11
-11
-12
-12
-12
-12
-13
-13
-13
-14
-13
-13
-12
-11
-10
-9
-8
-8
-8
-9
-10
-12
-13
-15
-16
-17
-17
-16
-15
-14
-12
-11
-11
-10
-10
-11
-12
-13
-14
-15
-15
-16
-16
-15
-15
-15
-14
-14
-14
-14
-14
-14
-14
-13
-12
-11
-11
-10
-10
-10
-11
-12
-13
-14
-15
-15
-15
-15
-14
-13
-12
-10
-9
-7
-6
-5
-4
-4
-4
-4
-4
-3
-3
-2
-1
0
1
2
3
4
4
5
6
6
7
9
10
12
13
14
15
16
15
14
12
9
6
2
-2
-6
-8
-10
-11
-11
-10
-9
-8
-7
-8
-9
-11
-13
-15
-16
-17
-17
-16
-15
-14
-13
-13
-13
-13
-14
-14
-14
-14
-14
-14
-15
-16
-18
-19
-21
-22
-22
-21
-18
-14
-8
1
12
27
46
68
92
117
140
159
170
171
162
142
114
79
43
8
-21
-41
-53
-57
-54
-46
-37
-28
-22
-18
-17
-18
-19
-20
-21
-20
-19
-17
-15
-14
-14
-14
-14
-14
-14
-14
-13
-12
-11
-10
-10
-10
-11
-12
-13
-14
-14
-14
-14
-14
-14
-14
-14
-14
-13
-12
-11
-9
-8
-8
-8
-8
-10
-12
-14
-15
-16
-16
-15
-12
-10
-7
-5
-3
-3
-3
-4
-6
-8
-9
-11
-11
-11
-10
-9
-7
-6
-4
-2
0
2
3
4
5
5
6
5
5
5
6
7
9
12
15
18
21
23
25
25
26
26
27
28
29
32
34
37
41
43
46
48
50
51
52
53
54
55
55
56
56
56
56
55
54
53
51
50
49
49
48
47
46
45
43
41
38
35
31
27
22
18
14
11
8
6
4
3
2
1
1
0
0
0
0
0
0
0
-1
-2
-3
-5
-7
-9
-10
-11
-11
-10
-9
-8
-7
-6
-6
-6
-7
-8
-9
-9
-10
-9
-9
-8
-7
-7
-6
-6
-6
-7
-8
-9
-10
-10
-11
-11
-11
-10
-10
-9
-8
-8
-7
-7
-7
-7
-8
-7
-7
-7
-6
-6
-5
-5
-6
-6
-6
-6
-6
-5
-4
-3
-3
-2
-2
-3
-5
-6
-7
-8
-8
-8
-6
-5
-3
-1
0
0
-1
-2
-3
-5
-6
-6
-7
-6
-6
-5
-4
-3
-3
-3
-3
-4
-4
-5
-6
-6
-6
-6
-5
-5
-5
-5
-5
-6
-7
-8
-9
-10
-10
-10
-10
-9
-7
-6
-4
-3
-2
-1
-1
-2
-3
-5
-7
-9
-10
-11
-12
-11
-10
-8
-7
-5
-4
-4
-4
-5
-6
-7
-7
-8
-7
-7
-6
-5
-5
-6
-7
-7
-8
-9
-9
-8
-8
-8
-8
-9
-10
-11
-12
-13
-13
-13
-11
-9
-8
-6
-5
-5
-6
-7
-7
-8
-8
-7
-6
-5
-5
-5
-6
-7
-8
-9
-10
-10
-9
-8
-7
-6
-6
-6
-6
-7
-8
-9
-10
-10
-9
-8
-7
-5
-4
-3
-2
-1
0
1
3
4
6
8
10
11
11
10
9
7
6
4
4
4
4
5
6
6
5
3
1
-3
-7
-10
-13
-14
-15
-14
-13
-13
-13
-13
-15
-16
-17
-18
-17
-16
-14
-12
-10
-9
-9
-10
-12
-15
-17
-18
-19
-18
-17
-16
-16
-16
-17
-18
-20
-22
-24
-24
-23
-20
-16
-9
0
12
28
48
72
98
126
152
173
185
188
179
158
128
92
54
18
-13
-35
-48
-52
-50
-43
-34
-26
-20
-16
-15
-15
-16
-17
-17
-17
-16
-15
-15
-15
-16
-17
-18
-19
-19
-18
-17
-16
-14
-14
-14
-15
-16
-17
-18
-18
-18
-17
-16
-15
-14
-14
-14
-15
-16
-17
-17
-17
-16
-16
-15
-14
-13
-13
-14
-14
-14
-15
-15
-14
-13
-12
-11
-10
-10
-9
-9
-8
-8
-7
-6
-4
-3
-2
-2
-3
-4
-6
-8
-9
-9
-9
-7
-5
-2
1
3
4
5
5
5
5
5
6
8
10
13
16
18
20
22
24
26
29
31
34
37
40
42
44
45
45
45
45
45
46
47
49
51
52
53
53
53
51
50
48
46
44
42
41
40
39
37
36
33
31
28
25
22
18
15
11
8
4
1
-2
-5
-6
-7
-7
-6
-5
-5
-4
-5
-6
-8
-10
-12
-13
-13
-13
-12
-10
-9
-8
-8
-9
-11
-13
-14
-15
-15
-15
-13
-12
-11
-11
-12
-13
-16
-18
-20
-21
-20
-18
-16
-13
-11
-9
-9
-11
-13
-16
-19
-21
-22
-22
-21
-19
-18
-17
-16
-16
-16
-17
-18
-18
-18
-18
-17
-16
-15
-14
-13
-13
-13
-13
-13
-13
-14
-14
-14
-14
-14
-14
-13
-12
-11
-10
-9
-9
-8
-8
-8
-8
-9
-9
-9
-10
-10
-11
-12
-14
-15
-15
-15
-15
-13
-12
-10
-9
-9
-10
-11
-13
-15
-16
-16
-16
-14
-12
-10
-9
-8
-9
-10
-11
-13
-14
-14
-14
-13
-12
-11
-10
-11
-12
-13
-15
-16
-17
-17
-17
-16
-14
-13
-12
-11
-11
-12
-13
-14
-15
-15
-15
-15
-14
-13
-12
-11
-10
-10
-10
-10
-11
-12
-13
-14
-15
-16
-16
-16
-15
-15
-14
-13
-12
-11
-10
-9
-9
-10
-11
-12
-13
-14
-15
-16
-16
-15
-14
-13
-11
-9
-8
-7
-7
-7
-9
-10
-11
-13
-14
-15
-15
-15
-14
-14
-13
-12
-11
-11
-10
-10
-9
-9
-9
-9
-8
-7
-6
-5
-3
-1
0
1
1
1
1
0
0
0
1
2
3
5
6
8
9
9
10
10
10
10
10
9
7
4
1
-4
-8
-12
-15
-16
-16
-15
-12
-10
-8
-7
-7
-9
-11
-13
-15
-16
-17
-17
-17
-16
-16
-16
-16
-16
-16
-15
-14
-12
-11
-10
-9
-10
-13
-15
-18
-21
-22
-21
-19
-14
-6
4
18
35
55
79
106
134
161
184
200
206
200
182
154
118
78
39
6
-20
-35
-42
-40
-34
-25
-17
-11
-8
-8
-9
-12
-14
-15
-14
-12
-10
-8
-8
-8
-9
-11
-14
-16
-17
-17
-16
-14
-12
-10
-9
-8
-8
-8
-8
-9
-9
-10
-10
-11
-11
-12
-12
-13
-13
-12
-12
-10
-9
-7
-6
-6
-6
-7
-9
-11
-13
-14
-14
-12
-10
-8
-6
-4
-3
-3
-5
-6
-8
-9
-8
-6
-3
1
4
6
7
6
4
1
-2
-4
-4
-3
0
3
7
10
12
13
12
11
9
9
10
13
16
20
24
27
29
30
30
29
29
30
32
35
39
43
47
49
51
51
51
50
50
50
50
51
53
53
53
53
52
50
49
47
46
46
45
44
42
38
34
28
23
18
15
13
13
14
15
16
17
16
13
9
5
0
-4
-7
-9
-9
-8
-7
-6
-5
-4
-5
-6
-7
-7
-8
-8
-8
-8
-8
-9
-9
-10
-10
-11
-11
-11
-10
-10
-9
-9
-9
-9
-9
-9
-9
-9
-8
-8
-8
-7
-7
-8
-8
-8
-9
-9
-9
-9
-9
-9
-9
-9
-9
-10
-10
-11
-11
-11
-10
-9
-9
-8
-8
-8
-9
-10
-11
-12
-13
-13
-13
-12
-10
-9
-8
-8
-8
-8
-9
-10
-11
-12
-12
-11
-10
-9
-8
-7
-6
-6
-6
-7
-7
-8
-8
-8
-8
-8
-8
-8
-9
-9
-10
-11
-11
-11
-11
-10
-9
-8
-7
-7
-7
-8
-9
-10
-11
-12
-13
-13
-14
-14
-13
-13
-13
-14
-14
-13
-13
-13
-12
-11
-9
-8
-8
-8
-8
-9
-10
-11
-12
-13
-13
-12
-11
-10
-8
-7
-7
-7
-9
-10
-12
-13
-14
-15
-14
-14
-13
-12
-12
-11
-11
-12
-12
-11
-11
-10
-10
-9
-9
-9
-9
-10
-11
-12
-13
-14
-14
-15
-15
-14
-14
-13
-13
-12
-11
-10
-10
-9
-9
-9
-9
-10
-10
-11
-11
-11
-10
-10
-10
-9
-9
-10
-10
-10
-10
-9
-9
-8
-8
-7
-7
-7
-7
-6
-5
-4
-2
1
3
5
7
8
9
9
9
9
9
9
10
10
10
10
9
9
8
7
6
6
5
4
3
1
-1
-4
-6
-9
-11
-12
-14
-14
-15
-15
-16
-17
-18
-18
-18
-18
-17
-15
-13
-11
-9
-9
-9
-10
-12
-13
-13
-13
-13
-12
-11
-10
-11
-12
-14
-17
-20
-23
-24
-24
-21
-15
-6
8
25
47
73
101
131
159
184
201
208
204
188
162
127
87
48
12
-17
-37
-47
-48
-43
-33
-23
-14
-8
-5
-5
-8
-11
-15
-17
-17
-16
-14
-12
-11
-11
-12
-13
-15
-16
-17
-16
-15
-13
-11
-9
-8
-8
-9
-11
-13
-15
-17
-17
-17
-15
-14
-12
-10
-9
-8
-8
-8
-8
-9
-10
-11
-12
-13
-14
-14
-14
-13
-12
-10
-9
-7
-5
-5
-5
-5
-6
-8
-9
-9
-9
-9
-8
-6
-5
-4
-3
-3
-3
-3
-3
-2
-1
0
3
5
8
10
12
13
13
14
14
14
14
14
15
16
18
19
22
24
26
29
31
33
35
37
38
39
41
42
43
45
46
48
49
51
53
54
56
56
56
56
55
53
51
49
47
44
42
40
38
36
33
31
29
26
22
19
15
12
9
6
4
3
2
1
0
0
-1
-3
-4
-5
-7
-8
-8
-9
-9
-9
-9
-9
-9
-10
-11
-12
-13
-14
-14
-13
-12
-11
-9
-8
-7
-6
-6
-6
-7
-8
-9
-10
-12
-12
-13
-13
-12
-12
-11
-10
-10
-10
-10
-11
-12
-13
-15
-15
-16
-16
-16
-15
-14
-14
-14
-14
-14
-15
-15
-16
-17
-17
-17
-17
-16
-15
-14
-13
-12
-12
-11
-11
-11
-11
-11
-12
-12
-12
-12
-12
-12
-12
-11
-11
-11
-10
-10
-10
-9
-10
-10
-11
-11
-12
-13
-14
-15
-15
-15
-14
-13
-11
-10
-10
-10
-10
-11
-12
-13
-14
-15
-15
-14
-14
-13
-11
-11
-10
-10
-10
-10
-11
-12
-12
-13
-13
-13
-13
-13
-13
-13
-13
-14
-15
-16
-16
-17
-17
-17
-17
-17
-17
-17
-16
-15
-15
-14
-13
-13
-13
-13
-14
-15
-16
-17
-18
-18
-18
-18
-17
-16
-15
-15
-15
-15
-16
-16
-16
-17
-16
-16
-15
-15
-14
-14
-14
-14
-15
-15
-17
-18
-18
-19
-19
-18
-17
-15
-13
-11
-10
-9
-8
-9
-10
-11
-12
-12
-13
-12
-12
-10
-9
-9
-8
-8
-8
-9
-9
-9
-8
-7
-5
-3
0
2
4
5
6
6
6
6
6
6
7
7
8
9
9
9
7
5
2
-1
-4
-8
-11
-13
-14
-15
-15
-14
-14
-14
-14
-14
-14
-15
-15
-15
-15
-15
-15
-16
-16
-17
-18
-19
-20
-21
-21
-21
-20
-19
-18
-18
-18
-18
-19
-20
-21
-21
-22
-21
-20
-17
-12
-4
8
24
44
68
94
121
146
166
178
180
172
153
125
91
55
21
-9
-32
-47
-53
-53
-48
-39
-30
-22
-15
-11
-9
-8
-9
-11
-13
-15
-18
-19
-21
-22
-22
-21
-20
-19
-17
-15
-14
-12
-12
-11
-12
-12
-13
-14
-15
-15
-15
-15
-14
-14
-13
-13
-13
-13
-13
-13
-13
-12
-11
-10
-9
-9
-8
-8
-9
-10
-11
-12
-13
-13
-13
-12
-11
-9
-8
-8
-8
-8
-9
-9
-8
-7
-5
-3
0
1
2
2
1
0
-1
-2
-1
0
3
6
9
13
15
17
18
18
18
19
20
22
24
27
29
31
32
33
34
35
36
37
39
41
43
45
48
50
52
54
55
57
58
58
58
58
56
54
52
50
49
48
47
47
48
49
49
49
48
45
42
38
33
28
24
19
15
12
10
8
7
7
6
5
5
3
2
0
-1
-2
-3
-4
-4
-4
-4
-4
-4
-5
-6
-7
-8
-9
-10
-11
-11
-11
-11
-11
-11
-11
-11
-11
-10
-9
-9
-9
-9
-9
-10
-10
-11
-12
-12
-13
-12
-12
-12
-12
-11
-11
-11
-11
-11
-11
-10
-10
-10
-10
-10
-10
-10
-10
-9
-8
-7
-7
-7
-7
-7
-8
-9
-9
-9
-8
-7
-6
-5
-4
-4
-4
-5
-6
-7
-7
-7
-7
-6
-5
-5
-4
-4
-5
-6
-7
-7
-8
-8
-8
-7
-6
-6
-6
-6
-7
-7
-8
-9
-9
-10
-10
-10
-10
-10
-10
-10
-10
-10
-10
-10
-9
-8
-7
-5
-4
-3
-2
-2
-2
-3
-5
-7
-9
-11
-13
-14
-16
-16
-16
-16
-15
-14
-13
-11
-10
-8
-7
-6
-5
-5
-5
-6
-7
-8
-9
-10
-12
-12
-12
-12
-12
-11
-10
-9
-9
-8
-8
-8
-8
-9
-10
-10
-11
-12
-12
-12
-12
-12
-11
-10
-9
-9
-9
-9
-11
-12
-14
-16
-18
-18
-18
-17
-15
-12
-10
-7
-6
-5
-6
-7
-9
-11
-12
-13
-13
-12
-10
-8
-5
-3
-1
0
1
2
2
3
4
5
6
7
9
10
11
11
12
11
10
9
7
4
2
-1
-3
-5
-7
-8
-8
-8
-7
-7
-7
-8
-9
-10
-11
-12
-13
-13
-13
-12
-11
-11
-11
-11
-12
-14
-16
-18
-19
-19
-18
-17
-15
-13
-12
-12
-13
-15
-18
-20
-22
-23
-22
-21
-18
-15
-11
-6
2
12
26
45
68
94
121
146
166
177
178
168
147
117
82
46
12
-16
-36
-47
-51
-48
-41
-33
-25
-19
-15
-13
-13
-14
-15
-15
-15
-15
-14
-13
-12
-11
-11
-11
-11
-11
-12
-12
-13
-14
-14
-14
-15
-15
-15
-15
-15
-14
-14
-13
-13
-12
-12
-12
-12
-12
-13
-13
-14
-14
-14
-14
-13
-12
-12
-11
-11
-10
-10
-10
-10
-9
-8
-6
-5
-3
-1
-1
-1
-3
-5
-7
-9
-10
-10
-9
-6
-3
0
3
6
7
8
8
8
7
7
8
8
9
11
12
12
13
13
14
15
17
19
22
26
29
31
34
35
36
36
37
38
39
42
45
48
51
54
56
57
56
55
54
52
51
51
51
53
54
55
56
56
54
52
48
45
41
37
34
31
29
27
24
22
19
16
13
11
9
7
6
6
5
4
3
1
-1
-3
-5
-7
-8
-8
-8
-6
-5
-4
-3
-2
-2
-3
-4
-5
-6
-8
-9
-10
-11
-12
-13
-13
-13
-13
-13
-12
-12
-11
-11
-10
-10
-10
-10
-11
-11
-12
-12
-13
-13
-14
-14
-14
-14
-14
-14
-14
-14
-14
-13
-13
-13
-12
-11
-10
-8
-7
-7
-6
-7
-8
-9
-11
-13
-14
-14
-14
-13
-11
-9
-8
-6
-6
-6
-7
-8
-10
-11
-11
-11
-11
-10
-9
-8
-7
-7
-7
-7
-8
-8
-9
-9
-10
-10
-11
-11
-12
-12
-12
-11
-11
-10
-9
-9
-8
-8
-9
-9
-10
-10
-11
-11
-11
-10
-10
-9
-8
-7
-7
-7
-7
-8
-8
-10
-11
-12
-13
-14
-14
-13
-13
-13
-12
-12
-13
-14
-15
-17
-18
-18
-19
-18
-17
-16
-14
-13
-11
-10
-10
-9
-9
-9
-9
-10
-10
-11
-12
-13
-14
-15
-15
-15
-15
-14
-13
-12
-12
-11
-11
-12
-13
-13
-14
-14
-15
-15
-15
-15
-15
-15
-15
-15
-16
-16
-16
-16
-16
-16
-16
-15
-15
-15
-14
-13
-13
-12
-11
-11
-11
-12
-13
-14
-14
-14
-13
-11
-9
-6
-3
-1
0
1
0
-1
-2
-3
-3
-2
-1
2
4
6
7
8
8
7
7
6
6
5
5
4
3
1
-1
-4
-7
-10
-12
-14
-14
-14
-14
-14
-13
-13
-13
-13
-13
-12
-11
-10
-10
-10
-12
-14
-17
-21
-23
-25
-25
-24
-22
-19
-17
-15
-15
-16
-18
-20
-22
-23
-23
-22
-20
-16
-10
-2
9
24
44
69
97
128
158
184
202
209
204
185
156
120
79
40
6
-20
-36
-44
-44
-39
-31
-23
-17
-13
-12
-13
-15
-17
-18
-19
-18
-17
-16
-15
-14
-14
-14
-14
-15
-16
-16
-16
-15
-14
-13
-13
-12
-12
-13
-13
-14
-15
-16
-16
-16
-16
-16
-15
-14
-13
-13
-12
-12
-13
-13
-14
-14
-15
-15
-16
-16
-16
-16
-15
-14
-13
-12
-11
-10
-9
-9
-9
-8
-8
-8
-7
-6
-5
-4
-3
-3
-2
-2
-1
-1
-1
0
0
1
1
1
1
2
2
2
4
5
7
10
13
16
18
21
23
24
26
27
29
31
34
37
39
42
43
45
45
45
45
44
44
45
46
47
49
51
52
52
51
50
48
46
44
43
42
41
41
41
41
40
38
35
31
27
22
17
13
10
7
5
4
3
3
3
3
2
2
1
-1
-3
-4
-6
-7
-8
-9
-9
-9
-9
-8
-7
-7
-7
-7
-8
-8
-9
-10
-10
-10
-8
-7
-5
-4
-3
-2
-3
-4
-6
-8
-11
-13
-14
-15
-15
-15
-15
-14
-13
-12
-12
-12
-12
-12
-12
-13
-13
-14
-15
-16
-16
-17
-16
-16
-15
-13
-12
-10
-10
-9
-10
-10
-12
-13
-14
-15
-16
-16
-15
-15
-14
-12
-12
-11
-10
-10
-11
-11
-12
-12
-12
-12
-12
-11
-10
-9
-9
-8
-8
-9
-10
-11
-11
-12
-12
-12
-11
-11
-11
-11
-11
-11
-12
-12
-11
-11
-10
-9
-8
-8
-9
-10
-11
-13
-15
-16
-17
-17
-17
-16
-15
-14
-14
-13
-13
-13
-13
-12
-12
-11
-10
-9
-9
-8
-7
-7
-7
-8
-8
-9
-10
-11
-12
-12
-13
-13
-14
-13
-13
-13
-12
-11
-11
-11
-12
-12
-13
-14
-16
-16
-17
-17
-16
-14
-12
-10
-9
-8
-8
-9
-10
-12
-14
-15
-15
-15
-13
-11
-9
-7
-6
-6
-7
-8
-9
-10
-11
-11
-11
-10
-10
-9
-9
-9
-10
-11
-11
-11
-10
-10
-9
-8
-7
-7
-7
-7
-7
-7
-7
-6
-5
-5
-4
-4
-4
-4
-3
-3
-1
0
3
5
7
9
11
11
12
11
11
11
12
12
12
12
11
10
7
3
0
-4
-7
-9
-10
-9
-8
-6
-5
-4
-5
-6
-7
-9
-11
-12
-13
-13
-12
-10
-9
-8
-8
-8
-10
-11
-14
-15
-17
-17
-17
-16
-15
-14
-14
-15
-16
-17
-19
-20
-20
-20
-17
-14
-8
0
11
26
45
68
95
125
155
182
202
213
212
199
173
139
99
59
23
-6
-26
-37
-38
-34
-26
-17
-10
-6
-5
-6
-9
-13
-15
-16
-16
-14
-13
-11
-10
-10
-11
-12
-14
-15
-15
-15
-15
-14
-12
-11
-11
-10
-10
-10
-10
-10
-9
-9
-9
-9
-10
-10
-10
-11
-11
-10
-9
-8
-7
-6
-6
-6
-6
-7
-8
-9
-10
-10
-9
-8
-7
-6
-5
-4
-4
-5
-5
-6
-6
-6
-5
-3
-1
1
2
3
4
4
3
3
2
2
2
3
3
5
6
7
8
10
11
13
14
16
18
20
22
23
24
25
26
27
29
30
33
35
38
41
44
47
49
50
51
50
50
49
49
49
49
49
50
50
50
50
49
48
46
43
41
38
36
34
33
31
30
28
26
23
20
17
14
10
7
5
3
1
0
-1
-1
-1
-2
-3
-5
-6
-8
-10
-11
-11
-11
-10
-9
-8
-6
-6
-5
-6
-7
-8
-10
-12
-13
-14
-15
-15
-15
-15
-15
-15
-14
-14
-14
-13
-13
-13
-13
-13
-13
-13
-12
-12
-12
-11
-11
-11
-11
-12
-14
-15
-17
-17
-17
-17
-15
-13
-11
-10
-9
-9
-10
-11
-13
-14
-15
-15
-15
-14
-14
-13
-14
-14
-15
-16
-17
-17
-17
-16
-15
-15
-15
-15
-15
-16
-17
-17
-16
-15
-14
-12
-10
-8
-8
-8
-8
-9
-10
-11
-12
-12
-12
-11
-11
-11
-11
-12
-13
-13
-14
-14
-13
-12
-11
-10
-9
-8
-8
-8
-9
-10
-10
-11
-11
-11
-11
-11
-11
-12
-13
-14
-16
-17
-18
-19
-18
-17
-16
-14
-12
-11
-9
-9
-8
-9
-9
-11
-12
-13
-14
-14
-15
-14
-13
-12
-11
-10
-10
-10
-10
-10
-11
-11
-12
-12
-12
-11
-11
-11
-12
-12
-13
-13
-14
-14
-14
-13
-12
-12
-12
-12
-13
-14
-15
-16
-16
-16
-14
-13
-11
-10
-9
-9
-9
-10
-11
-12
-12
-12
-12
-12
-11
-11
-11
-11
-11
-11
-11
-11
-10
-9
-8
-7
-6
-5
-5
-5
-5
-6
-6
-6
-5
-4
-1
1
4
6
8
9
10
10
10
10
9
9
10
10
10
10
10
9
7
4
2
-1
-4
-5
-6
-7
-7
-8
-8
-9
-11
-12
-13
-14
-14
-14
-12
-11
-10
-9
-9
-10
-12
-13
-15
-16
-16
-16
-15
-14
-13
-13
-13
-14
-16
-17
-19
-21
-21
-21
-21
-19
-16
-12
-6
4
18
37
59
86
114
142
167
185
194
192
178
154
123
86
49
15
-13
-33
-45
-48
-45
-39
-30
-22
-15
-10
-8
-8
-8
-9
-10
-11
-11
-12
-12
-13
-14
-15
-15
-16
-15
-15
-14
-13
-13
-12
-13
-13
-14
-15
-15
-15
-15
-14
-13
-12
-10
-9
-9
-9
-9
-9
-10
-11
-12
-13
-13
-13
-13
-13
-12
-11
-11
-10
-10
-9
-9
-9
-9
-8
-7
-7
-6
-5
-4
-4
-4
-4
-4
-4
-3
-3
-2
-1
-1
0
0
0
0
1
2
3
5
8
10
12
14
14
14
13
13
13
13
15
18
22
26
31
34
37
39
40
41
41
42
42
44
45
47
48
50
51
53
53
54
54
54
54
54
54
53
52
51
50
48
46
44
42
41
39
37
34
32
29
25
21
18
14
11
9
8
7
6
6
5
5
3
2
-1
-3
-5
-6
-7
-8
-7
-6
-5
-4
-3
-3
-4
-5
-7
-9
-11
-13
-14
-13
-13
-11
-9
-8
-7
-6
-6
-6
-7
-8
-8
-8
-8
-8
-7
-7
-8
-8
-10
-11
-13
-14
-14
-14
-13
-12
-11
-9
-8
-8
-8
-8
-9
-10
-10
-11
-11
-11
-11
-11
-11
-11
-10
-10
-10
-10
-10
-9
-9
-9
-8
-8
-7
-7
-6
-6
-6
-6
-6
-7
-8
-9
-10
-11
-11
-12
-12
-11
-11
-10
-10
-10
-10
-10
-11
-11
-11
-11
-10
-8
-7
-5
-3
-2
-2
-2
-3
-4
-6
-7
-8
-8
-8
-8
-8
-8
-8
-8
-8
-8
-8
-8
-8
-8
-8
-10
-11
-14
-16
-18
-20
-21
-21
-19
-17
-15
-12
-11
-9
-9
-10
-12
-14
-16
-18
-19
-19
-19
-18
-16
-15
-13
-12
-11
-10
-10
-10
-11
-12
-13
-15
-16
-16
-17
-17
-17
-16
-15
-14
-14
-13
-13
-13
-13
-14
-14
-15
-15
-14
-14
-14
-13
-13
-13
-13
-13
-14
-15
-15
-16
-16
-16
-16
-16
-16
-15
-15
-15
-14
-13
-13
-12
-11
-10
-9
-9
-9
-9
-9
-10
-9
-9
-8
-6
-4
-3
-1
0
0
0
0
0
0
0
1
3
5
7
9
10
10
9
7
4
0
-4
-7
-10
-11
-12
-11
-10
-9
-8
-8
-9
-10
-12
-14
-16
-18
-18
-17
-16
-15
-14
-13
-13
-14
-15
-17
-18
-20
-21
-21
-21
-20
-19
-18
-18
-18
-18
-18
-18
-18
-18
-18
-17
-15
-12
-6
3
16
33
55
81
107
133
155
170
176
172
157
133
102
67
32
1
-24
-41
-50
-51
-47
-40
-31
-24
-18
-14
-13
-14
-15
-17
-18
-18
-17
-15
-13
-12
-11
-11
-11
-13
-14
-16
-17
-17
-16
-15
-14
-12
-10
-9
-8
-8
-8
-9
-9
-10
-10
-10
-10
-10
-10
-10
-10
-11
-11
-12
-12
-12
-12
-12
-12
-12
-12
-12
-12
-11
-11
-10
-8
-7
-5
-4
-3
-3
-3
-4
-5
-6
-6
-6
-5
-3
-1
0
2
2
3
2
2
2
2
3
5
7
9
12
13
15
15
16
16
16
17
18
21
25
29
34
38
41
43
44
44
43
41
40
40
40
42
44
47
49
52
53
54
54
54
54
54
55
55
55
54
53
51
48
44
40
36
32
28
25
23
21
19
18
16
15
13
12
10
9
8
6
5
4
2
0
-2
-4
-6
-7
-8
-9
-9
-9
-9
-9
-9
-9
-10
-11
-11
-11
-11
-11
-10
-9
-8
-7
-7
-7
-8
-8
-9
-10
-11
-12
-13
-15
-16
-17
-18
-18
-18
-16
-14
-12
-9
-6
-4
-3
-4
-5
-7
-10
-12
-14
-16
-16
-16
-14
-13
-11
-9
-8
-7
-6
-6
-6
-7
-7
-7
-7
-7
-7
-7
-7
-8
-8
-8
-8
-8
-8
-7
-7
-6
-5
-5
-5
-6
-7
-9
-10
-12
-12
-12
-11
-10
-9
-8
-7
-7
-8
-9
-11
-12
-12
-12
-11
-10
-8
-7
-5
-5
-4
-5
-5
-5
-6
-5
-5
-5
-5
-5
-6
-7
-9
-11
-12
-14
-15
-15
-14
-12
-10
-8
-6
-5
-4
-3
-4
-5
-6
-8
-9
-10
-10
-10
-9
-8
-7
-6
-5
-5
-5
-5
-6
-7
-8
-9
-9
-9
-9
-7
-6
-5
-4
-4
-4
-5
-7
-8
-10
-11
-11
-10
-9
-7
-5
-4
-4
-5
-7
-9
-12
-14
-16
-16
-15
-13
-10
-7
-5
-2
-1
-1
-2
-3
-5
-6
-8
-9
-10
-11
-11
-10
-10
-9
-8
-7
-7
-6
-6
-6
-6
-6
-5
-5
-4
-3
-1
0
1
2
3
3
2
2
2
3
4
6
9
12
15
18
20
20
20
19
16
14
11
8
5
3
2
1
1
1
1
1
0
-1
-2
-4
-6
-8
-10
-11
-12
-11
-11
-10
-10
-9
-10
-11
-12
-13
-14
-15
-15
-15
-14
-13
-12
-13
-14
-16
-18
-21
-23
-25
-26
-26
-25
-24
-22
-20
-17
-12
-4
8
25
48
75
105
135
163
185
198
200
191
171
142
107
70
34
4
-20
-35
-43
-44
-40
-33
-26
-20
-16
-14
-14
-16
-18
-21
-22
-23
-24
-23
-22
-22
-21
-20
-19
-18
-17
-17
-16
-15
-15
-15
-16
-17
-18
-19
-19
-19
-19
-18
-18
-18
-18
-18
-19
-20
-20
-20
-19
-18
-16
-15
-14
-13
-13
-14
-14
-15
-15
-14
-13
-12
-11
-10
-9
-9
-9
-9
-9
-9
-9
-8
-8
-7
-7
-7
-8
-9
-9
-9
-8
-7
-6
-4
-3
-2
-1
-2
-2
-2
-1
0
3
6
9
12
14
16
17
17
16
16
17
19
22
25
29
33
37
39
41
42
42
42
42
43
44
45
47
49
50
51
51
51
50
49
48
47
47
46
44
43
41
38
35
32
29
26
24
22
20
19
17
16
15
13
11
10
8
7
5
4
2
1
-2
-4
-6
-8
-10
-10
-10
-8
-6
-4
-2
-1
-1
-2
-3
-5
-7
-9
-11
-11
-11
-11
-11
-10
-10
-11
-11
-11
-12
-12
-11
-10
-9
-8
-8
-7
-8
-8
-9
-11
-12
-13
-13
-13
-12
-12
-11
-11
-11
-12
-13
-14
-16
-17
-17
-17
-17
-15
-13
-11
-9
-8
-7
-6
-6
-6
-7
-8
-9
-10
-12
-13
-14
-14
-15
-15
-14
-13
-11
-10
-9
-8
-8
-9
-10
-11
-12
-13
-13
-12
-11
-9
-8
-6
-6
-6
-7
-8
-9
-10
-11
-11
-11
-10
-10
-10
-10
-10
-11
-12
-13
-14
-14
-13
-12
-11
-9
-8
-7
-7
-8
-9
-10
-12
-12
-13
-13
-13
-12
-11
-11
-10
-10
-9
-9
-8
-7
-6
-6
-6
-6
-7
-9
-11
-14
-16
-18
-19
-19
-18
-16
-14
-12
-10
-9
-8
-8
-9
-10
-11
-12
-12
-13
-13
-13
-14
-14
-13
-13
-13
-12
-12
-11
-11
-10
-10
-10
-10
-11
-11
-11
-11
-11
-11
-12
-13
-14
-16
-17
-19
-20
-20
-19
-17
-15
-13
-11
-10
-10
-10
-12
-13
-14
-14
-14
-13
-11
-9
-8
-6
-6
-5
-5
-5
-5
-4
-4
-3
-1
0
1
1
1
1
1
1
2
3
5
7
9
11
12
13
14
13
12
11
8
6
3
0
-2
-5
-7
-9
-10
-11
-12
-13
-14
-14
-15
-15
-16
-16
-16
-16
-16
-15
-15
-14
-13
-12
-12
-12
-13
-14
-15
-16
-17
-18
-18
-18
-17
-17
-16
-16
-17
-18
-20
-21
-22
-21
-19
-15
-8
3
19
39
64
93
123
153
180
200
210
208
195
170
137
98
58
22
-8
-28
-40
-43
-40
-32
-23
-16
-10
-7
-7
-9
-11
-14
-15
-15
-14
-12
-11
-10
-9
-9
-10
-11
-11
-12
-12
-12
-11
-11
-11
-11
-11
-11
-12
-12
-12
-11
-11
-10
-10
-9
-9
-10
-10
-11
-12
-13
-14
-15
-16
-16
-16
-16
-16
-15
-14
-12
-11
-9
-7
-5
-4
-3
-2
-2
-2
-3
-4
-4
-5
-5
-4
-4
-2
-1
1
2
3
3
3
2
1
1
1
1
2
4
6
9
11
12
13
14
14
14
15
16
18
22
26
30
35
39
42
44
45
45
45
44
43
42
42
43
44
46
48
51
53
55
57
58
58
58
58
56
55
54
52
51
49
48
46
44
41
38
34
30
27
23
21
19
17
16
14
13
11
9
7
4
3
1
1
1
2
3
4
4
4
3
2
0
-2
-4
-6
-7
-8
-7
-6
-4
-2
0
2
4
4
4
2
-2
-6
-11
