7
0
-5
-9
-12
-13
-12
-10
-8
-7
-6
-6
-7
-8
-10
-11
-11
-11
-10
-9
-8
-7
-6
-6
-7
-7
-8
-8
-8
-7
-7
-7
-7
-7
-7
-8
-9
-10
-11
-11
-12
-12
-11
-11
-10
-9
-9
-8
-7
-7
-7
-7
-8
-9
-11
-12
-14
-15
-15
-15
-15
-14
-13
-11
-10
-10
-9
-9
-9
-10
-10
-10
-10
-10
-10
-10
-10
-10
-10
-10
-10
-10
-11
-11
-12
-12
-13
-13
-14
-14
-14
-14
-14
-14
-14
-15
-15
-15
-15
-15
-14
-12
-11
-11
-10
-11
-12
-13
-14
-14
-14
-14
-14
-13
-13
-14
-15
-17
-19
-21
-22
-22
-22
-20
-18
-16
-15
-14
-14
-14
-16
-17
-17
-17
-17
-16
-15
-15
-15
-15
-16
-16
-17
-17
-16
-15
-13
-12
-12
-12
-13
-14
-16
-18
-19
-19
-19
-18
-16
-15
-13
-13
-13
-13
-14
-15
-15
-16
-16
-16
-15
-14
-13
-11
-9
-7
-4
-2
-1
0
1
1
0
-1
-1
-2
-3
-3
-4
-4
-5
-5
-6
-6
-7
-7
-7
-6
-5
-5
-5
-5
-7
-9
-11
-14
-17
-20
-22
-24
-24
-24
-24
-22
-20
-18
-16
-14
-13
-13
-14
-16
-17
-19
-20
-20
-20
-19
-18
-19
-21
-25
-31
-38
-45
-49
-50
-46
-38
-24
-6
14
37
61
87
113
142
173
204
235
263
285
296
295
280
252
213
167
119
73
35
6
-13
-22
-24
-23
-20
-18
-17
-18
-19
-21
-21
-19
-16
-12
-8
-6
-6
-7
-10
-13
-16
-19
-19
-19
-17
-15
-14
-13
-14
-15
-16
-17
-18
-17
-15
-13
-10
-7
-6
-5
-5
-6
-7
-8
-9
-8
-7
-6
-4
-3
-3
-3
-3
-4
-4
-4
-3
-1
1
3
6
8
9
10
9
9
9
9
9
10
12
14
16
18
20
21
21
21
21
22
23
25
29
34
40
46
52
56
60
61
61
60
59
58
58
61
64
69
74
78
81
82
81
79
76
73
71
71
72
75
77
80
80
79
75
69
63
56
51
46
42
40
38
36
33
29
24
19
14
10
6
4
3
3
3
2
0
-2
-5
-8
-11
-12
-13
-12
-11
-10
-8
-7
-7
-8
-9
-10
-11
-12
-13
-13
-13
-13
-14
-14
-15
-16
-16
-16
-16
-16
-15
-15
-14
-14
-14
-14
-15
-15
-15
-15
-16
-16
-16
-17
-18
-19
-19
-19
-19
-19
-18
-18
-17
-17
-17
-17
-17
-16
-16
-15
-14
-14
-13
-13
-14
-15
-16
-17
-18
-19
-19
-18
-17
-16
-15
-14
-13
-13
-13
-13
-13
-14
-14
-15
-15
-16
-16
-16
-17
-17
-17
-17
-17
-17
-17
-16
-16
-16
-16
-16
-16
-16
-16
-15
-15
-14
-13
-13
-12
-12
-12
-12
-12
-13
-13
-14
-15
-16
-17
-18
-19
-19
-19
-19
-19
-17
-16
-15
-14
-14
-14
-15
-17
-18
-19
-20
-20
-20
-19
-17
-16
-16
-16
-17
-19
-21
-23
-24
-24
-24
-22
-20
-18
-17
-16
-17
-18
-20
-22
-23
-23
-22
-21
-19
-18
-17
-17
-18
-20
-21
-23
-23
-23
-21
-20
-18
-17
-17
-17
-19
-21
-22
-23
-23
-22
-21
-19
-18
-18
-19
-20
-22
-24
-25
-25
-24
-23
-20
-18
-17
-16
-16
-17
-18
-19
-20
-19
-18
-15
-12
-9
-7
-6
-7
-8
-10
-13
-15
-16
-17
-16
-15
-14
-12
-11
-10
-10
-11
-12
-13
-14
-15
-16
-16
-16
-17
-18
-19
-21
-23
-26
-28
-30
-31
-32
-32
-31
-30
-29
-28
-28
-28
-29
-31
-31
-32
-32
-31
-29
-28
-28
-29
-32
-38
-44
-52
-59
-63
-64
-61
-53
-39
-22
-1
22
47
73
100
129
159
190
221
250
273
288
292
283
260
225
182
135
88
45
12
-12
-26
-31
-31
-27
-22
-19
-18
-19
-20
-22
-23
-23
-22
-20
-18
-17
-16
-17
-17
-19
-20
-21
-22
-22
-23
-23
-24
-25
-25
-25
-24
-22
-19
-16
-14
-11
-10
-10
-11
-13
-15
-16
-17
-16
-15
-13
-10
-8
-6
-5
-5
-6
-7
-8
-8
-8
-7
-6
-4
-2
0
1
1
1
1
1
1
2
4
7
10
13
16
18
19
20
20
20
20
21
24
27
31
35
40
44
47
50
51
52
52
52
53
55
57
60
63
67
69
71
72
73
73
73
72
72
72
72
72
72
71
69
67
64
61
58
54
51
47
43
39
35
31
27
23
19
15
11
8
5
2
-1
-3
-5
-7
-9
-11
-12
-13
-15
-16
-17
-18
-20
-21
-21
-21
-21
-20
-18
-17
-16
-16
-16
-17
-19
-21
-22
-24
-24
-24
-23
-22
-20
-19
-18
-17
-18
-19
-20
-21
-23
-24
-26
-26
-26
-26
-25
-23
-22
-21
-20
-19
-19
-19
-20
-20
-21
-22
-23
-24
-24
-25
-24
-24
-23
-22
-21
-19
-18
-17
-17
-17
-18
-19
-21
-22
-24
-25
-25
-25
-23
-22
-20
-19
-18
-17
-18
-19
-20
-21
-22
-22
-22
-21
-20
-18
-17
-16
-16
-16
-17
-18
-20
-22
-23
-24
-24
-23
-22
-20
-18
-16
-15
-15
-15
-16
-18
-20
-22
-23
-23
-22
-21
-20
-19
-18
-18
-18
-18
-19
-20
-21
-22
-22
-22
-22
-22
-21
-22
-22
-22
-23
-23
-23
-23
-23
-23
-22
-22
-22
-21
-21
-21
-20
-20
-20
-20
-20
-21
-21
-22
-23
-24
-25
-25
-25
-25
-24
-22
-21
-20
-19
-19
-19
-20
-21
-21
-22
-23
-23
-22
-22
-21
-19
-18
-17
-16
-16
-17
-17
-18
-20
-21
-21
-22
-22
-22
-22
-21
-20
-20
-19
-19
-19
-20
-21
-22
-23
-24
-24
-24
-23
-20
-18
-16
-15
-14
-15
-16
-18
-20
-22
-22
-21
-19
-17
-14
-12
-12
-12
-13
-15
-17
-18
-18
-18
-17
-16
-15
-14
-14
-14
-15
-16
-16
-16
-16
-14
-13
-12
-11
-10
-10
-10
-10
-10
-10
-10
-9
-9
-8
-9
-9
-9
-10
-10
-10
-10
-9
-8
-8
-7
-7
-8
-9
-10
-12
-14
-15
-16
-17
-17
-18
-19
-20
-21
-22
-22
-23
-22
-22
-22
-21
-21
-22
-23
-24
-25
-26
-26
-26
-25
-23
-22
-22
-24
-27
-32
-39
-46
-53
-57
-57
-53
-44
-30
-13
9
33
59
86
115
146
178
211
243
272
295
309
311
300
275
239
193
144
95
52
17
-8
-22
-27
-26
-22
-17
-13
-11
-12
-13
-16
-18
-18
-18
-17
-15
-14
-14
-14
-16
-17
-18
-18
-18
-16
-14
-13
-11
-11
-11
-12
-14
-15
-16
-17
-17
-16
-15
-14
-12
-11
-10
-8
-7
-6
-5
-4
-4
-3
-3
-3
-3
-2
-2
-1
0
1
2
4
5
6
8
9
10
11
12
13
14
14
15
15
15
15
15
16
18
20
22
24
27
30
32
35
37
39
42
45
47
50
52
54
56
58
59
61
64
66
69
72
74
77
79
80
81
82
82
81
81
81
81
80
79
78
76
74
71
68
64
61
58
54
51
48
44
40
36
31
27
22
18
14
11
8
7
5
4
3
2
0
-2
-4
-7
-9
-12
-15
-17
-19
-20
-20
-19
-18
-16
-13
-11
-9
-7
-6
-6
-7
-8
-10
-12
-14
-15
-16
-17
-17
-17
-17
-17
-16
-16
-16
-15
-15
-15
-15
-15
-15
-16
-16
-16
-16
-16
-15
-15
-14
-14
-13
-14
-14
-15
-16
-16
-17
-17
-17
-17
-17
-17
-17
-17
-18
-18
-19
-18
-18
-17
-15
-14
-13
-12
-12
-13
-14
-15
-17
-17
-18
-17
-16
-15
-13
-12
-11
-11
-12
-13
-15
-16
-17
-18
-18
-18
-18
-18
-18
-19
-19
-19
-19
-19
-18
-18
-17
-16
-16
-16
-16
-17
-18
-19
-20
-20
-20
-20
-19
-18
-18
-17
-16
-16
-16
-16
-15
-16
-16
-16
-17
-18
-19
-20
-21
-21
-21
-21
-19
-18
-17
-16
-15
-15
-15
-16
-16
-18
-19
-20
-21
-22
-23
-23
-24
-24
-24
-24
-23
-22
-21
-19
-18
-18
-17
-18
-18
-19
-21
-22
-23
-24
-24
-24
-24
-23
-22
-21
-20
-20
-20
-20
-21
-22
-23
-24
-25
-25
-25
-24
-24
-22
-21
-20
-20
-20
-20
-20
-21
-21
-21
-21
-21
-20
-19
-19
-18
-18
-19
-20
-20
-21
-22
-22
-21
-21
-20
-19
-18
-17
-17
-17
-18
-19
-20
-20
-20
-20
-19
-18
-16
-15
-15
-15
-15
-15
-15
-15
-15
-14
-14
-12
-11
-10
-9
-8
-8
-7
-7
-7
-8
-8
-9
-9
-10
-11
-11
-12
-11
-11
-10
-9
-8
-8
-8
-9
-11
-13
-15
-18
-19
-21
-22
-23
-24
-25
-26
-28
-29
-30
-30
-29
-27
-25
-22
-21
-21
-21
-23
-25
-27
-29
-30
-30
-29
-29
-31
-34
-39
-46
-54
-60
-63
-62
-56
-43
-26
-5
19
45
71
99
127
157
189
222
254
282
304
315
312
296
265
224
175
124
76
36
6
-14
-24
-27
-25
-22
-19
-18
-18
-19
-21
-21
-21
-19
-17
-16
-15
-15
-17
-19
-21
-22
-22
-21
-19
-16
-15
-14
-15
-16
-18
-20
-21
-21
-20
-19
-17
-16
-15
-14
-15
-16
-16
-16
-16
-14
-12
-10
-8
-6
-5
-5
-6
-6
-6
-6
-5
-4
-2
0
2
3
4
4
4
4
5
5
7
9
11
14
16
18
20
21
22
23
23
24
25
27
29
32
35
39
42
44
47
49
50
52
54
57
59
62
65
67
69
71
73
74
75
76
78
79
81
82
82
82
81
79
75
72
68
65
62
59
56
54
52
50
47
44
40
36
32
27
22
17
12
8
5
1
-1
-3
-4
-5
-6
-7
-8
-9
-10
-12
-13
-14
-15
-16
-16
-16
-15
-15
-15
-15
-16
-17
-17
-18
-19
-19
-19
-18
-18
-17
-16
-16
-16
-16
-17
-17
-18
-18
-18
-18
-18
-18
-18
-19
-19
-19
-19
-19
-18
-18
-17
-15
-14
-14
-13
-13
-14
-15
-16
-16
-17
-18
-18
-17
-17
-16
-16
-16
-16
-17
-18
-19
-20
-21
-21
-21
-21
-20
-19
-17
-16
-15
-15
-16
-17
-19
-21
-23
-25
-25
-25
-24
-22
-20
-17
-16
-14
-14
-14
-15
-16
-17
-17
-17
-17
-16
-16
-15
-16
-16
-17
-18
-19
-20
-20
-19
-18
-17
-16
-15
-15
-15
-16
-17
-18
-20
-21
-22
-22
-23
-23
-22
-22
-21
-20
-19
-17
-16
-15
-14
-13
-13
-13
-14
-16
-17
-20
-22
-23
-24
-24
-23
-21
-19
-16
-15
-14
-14
-15
-17
-19
-21
-22
-23
-22
-21
-19
-17
-16
-16
-17
-18
-20
-22
-23
-23
-22
-21
-19
-18
-17
-17
-17
-18
-19
-20
-20
-20
-19
-18
-17
-17
-17
-17
-19
-20
-21
-22
-22
-21
-20
-18
-17
-16
-16
-17
-18
-20
-21
-22
-23
-22
-21
-20
-19
-18
-17
-17
-18
-19
-20
-20
-21
-21
-20
-19
-18
-18
-17
-18
-18
-19
-20
-21
-22
-22
-22
-22
-21
-21
-20
-19
-18
-17
-16
-15
-15
-14
-14
-14
-14
-15
-16
-17
-17
-17
-17
-17
-16
-15
-15
-15
-14
-14
-14
-14
-13
-12
-10
-9
-8
-7
-7
-7
-7
-8
-8
-8
-8
-7
-6
-5
-5
-6
-7
-8
-10
-12
-13
-14
-15
-15
-15
-15
-15
-16
-17
-19
-21
-23
-24
-25
-25
-24
-22
-21
-19
-18
-18
-19
-20
-22
-24
-25
-26
-26
-24
-22
-20
-19
-19
-22
-27
-35
-43
-52
-58
-62
-60
-54
-43
-27
-8
15
39
65
93
123
155
190
225
258
287
308
318
315
299
269
228
182
133
87
47
16
-6
-18
-24
-24
-22
-19
-17
-16
-15
-15
-16
-15
-15
-14
-13
-13
-13
-14
-15
-16
-17
-18
-18
-18
-17
-16
-16
-15
-15
-15
-16
-16
-16
-16
-15
-14
-14
-13
-12
-11
-10
-9
-9
-8
-8
-7
-7
-7
-6
-6
-5
-3
-2
0
2
3
4
4
4
3
2
1
1
1
2
4
6
8
10
12
14
14
15
15
16
17
18
20
23
26
29
33
36
39
41
44
45
47
48
50
52
54
56
59
61
64
66
69
70
72
74
76
78
80
82
84
85
85
84
83
81
78
76
73
71
69
66
63
60
56
52
48
44
40
36
32
28
24
19
15
11
7
4
1
-1
-2
-3
-4
-5
-6
-7
-9
-11
-12
-14
-14
-14
-14
-14
-13
-13
-14
-15
-16
-17
-18
-19
-20
-20
-19
-19
-18
-18
-18
-18
-18
-18
-18
-18
-18
-17
-17
-16
-16
-16
-16
-16
-17
-17
-18
-18
-18
-19
-18
-18
-18
-18
-18
-18
-19
-19
-19
-19
-19
-19
-19
-19
-19
-19
-20
-20
-20
-20
-19
-18
-17
-16
-15
-14
-14
-15
-16
-19
-21
-23
-24
-24
-23
-21
-19
-17
-16
-16
-16
-17
-19
-21
-22
-22
-22
-20
-19
-17
-16
-16
-17
-18
-20
-22
-23
-23
-23
-22
-20
-19
-18
-19
-19
-20
-22
-23
-24
-24
-24
-23
-22
-22
-21
-21
-22
-22
-23
-23
-23
-23
-23
-22
-22
-21
-21
-20
-20
-20
-20
-20
-20
-21
-22
-23
-24
-25
-25
-25
-25
-24
-22
-21
-19
-18
-17
-17
-17
-17
-18
-18
-19
-20
-20
-21
-22
-23
-25
-26
-26
-27
-27
-26
-25
-24
-23
-22
-22
-22
-22
-23
-23
-23
-22
-21
-20
-19
-18
-17
-17
-17
-17
-18
-18
-18
-18
-18
-19
-19
-19
-19
-20
-20
-21
-21
-21
-21
-20
-20
-20
-19
-19
-19
-19
-19
-19
-18
-18
-18
-17
-17
-18
-18
-20
-21
-22
-22
-22
-22
-20
-18
-16
-15
-14
-13
-14
-15
-17
-18
-20
-20
-20
-19
-17
-15
-13
-11
-10
-9
-8
-7
-7
-7
-7
-8
-8
-8
-7
-7
-7
-7
-7
-7
-7
-8
-8
-9
-9
-10
-10
-10
-10
-10
-10
-11
-12
-14
-16
-18
-21
-23
-25
-26
-27
-26
-25
-24
-22
-21
-19
-19
-19
-19
-21
-22
-24
-26
-27
-28
-28
-27
-27
-27
-28
-30
-34
-40
-46
-51
-55
-56
-52
-43
-30
-12
10
34
61
89
120
151
185
218
251
279
302
314
313
299
271
232
184
134
86
44
11
-10
-22
-25
-23
-19
-15
-12
-12
-14
-17
-19
-21
-20
-18
-16
-13
-12
-11
-12
-14
-16
-18
-19
-19
-19
-18
-16
-15
-15
-15
-15
-15
-15
-14
-13
-12
-10
-8
-7
-7
-7
-7
-8
-9
-9
-8
-7
-6
-4
-3
-2
-1
-1
-2
-2
-2
-2
-1
0
2
4
6
8
9
9
10
10
10
10
11
12
13
15
17
18
20
21
23
25
26
28
31
33
35
38
41
44
46
49
52
55
58
60
61
62
63
64
64
65
67
69
72
75
78
80
82
83
83
82
81
80
78
77
75
73
71
68
65
61
56
52
48
44
40
36
33
29
25
21
17
13
9
6
4
3
1
0
-1
-3
-5
-8
-10
-13
-15
-17
-18
-18
-17
-16
-16
-16
-16
-16
-17
-18
-20
-20
-21
-21
-21
-21
-20
-19
-18
-18
-17
-16
-16
-15
-14
-14
-14
-13
-13
-14
-14
-15
-16
-17
-19
-20
-22
-23
-23
-24
-23
-23
-22
-21
-21
-20
-20
-20
-20
-20
-20
-20
-20
-19
-19
-18
-18
-17
-17
-16
-16
-16
-16
-16
-16
-17
-18
-20
-21
-22
-22
-22
-22
-22
-21
-20
-20
-19
-19
-19
-20
-20
-21
-21
-21
-21
-21
-20
-19
-18
-18
-18
-18
-19
-20
-21
-23
-24
-24
-23
-22
-20
-17
-15
-14
-14
-15
-17
-20
-23
-25
-27
-28
-27
-26
-24
-22
-20
-19
-18
-18
-19
-20
-21
-22
-23
-23
-22
-21
-20
-19
-19
-19
-19
-19
-20
-21
-22
-23
-24
-24
-24
-24
-24
-23
-22
-21
-19
-17
-16
-16
-16
-17
-18
-20
-23
-25
-26
-27
-27
-27
-26
-26
-25
-25
-25
-24
-24
-23
-22
-21
-19
-18
-18
-18
-20
-22
-24
-25
-26
-26
-26
-24
-22
-21
-20
-20
-20
-21
-22
-23
-23
-23
-22
-20
-18
-16
-15
-15
-16
-17
-19
-20
-22
-23
-24
-24
-24
-23
-22
-22
-21
-21
-20
-20
-20
-20
-20
-20
-20
-20
-20
-19
-19
-18
-18
-18
-18
-18
-19
-19
-20
-20
-20
-19
-18
-16
-15
-13
-11
-9
-8
-7
-7
-7
-7
-7
-7
-6
-6
-5
-5
-5
-6
-7
-8
-10
-12
-13
-14
-14
-14
-13
-13
-12
-12
-12
-14
-15
-17
-19
-21
-23
-24
-25
-25
-25
-24
-23
-22
-21
-20
-20
-19
-19
-20
-21
-22
-23
-24
-25
-25
-26
-26
-27
-29
-33
-39
-45
-51
-55
-57
-54
-47
-34
-17
4
29
56
85
115
146
178
211
243
272
295
310
313
303
278
241
195
144
94
49
13
-12
-25
-29
-27
-21
-14
-10
-8
-9
-12
-16
-19
-20
-20
-18
-16
-14
-13
-13
-15
-17
-20
-22
-22
-22
-21
-18
-16
-13
-12
-10
-10
-11
-12
-13
-14
-15
-16
-16
-16
-15
-13
-10
-8
-6
-4
-3
-2
-2
-3
-3
-4
-5
-5
-5
-4
-3
-2
0
2
3
5
6
7
8
9
9
10
10
11
12
13
15
17
19
21
24
27
29
32
34
37
39
42
45
47
49
51
52
53
54
55
56
58
61
64
67
71
73
75
77
77
77
77
76
76
77
78
79
80
81
82
81
81
79
77
74
70
66
61
56
51
45
39
33
28
24
20
18
16
14
13
10
8
4
1
-3
-6
-9
-11
-12
-13
-13
-13
-13
-14
-15
-16
-17
-18
-18
-18
-17
-16
-14
-13
-12
-12
-12
-12
-13
-15
-16
-17
-18
-19
-19
-19
-18
-18
-17
-16
-16
-16
-16
-17
-18
-18
-19
-20
-20
-19
-19
-18
-17
-16
-16
-16
-16
-17
-18
-18
-19
-19
-19
-18
-18
-17
-16
-16
-15
-15
-15
-15
-16
-16
-16
-17
-17
-17
-16
-16
-15
-15
-15
-15
-16
-18
-19
-21
-22
-21
-21
-19
-17
-16
-15
-14
-15
-17
-19
-21
-22
-22
-22
-21
-19
-17
-16
-15
-15
-16
-17
-19
-20
-20
-20
-20
-19
-19
-19
-19
-19
-19
-19
-18
-18
-17
-16
-16
-17
-17
-19
-20
-21
-22
-22
-21
-19
-18
-17
-16
-16
-17
-18
-20
-22
-24
-25
-25
-25
-24
-24
-23
-22
-22
-21
-21
-21
-21
-21
-20
-20
-19
-19
-18
-19
-19
-19
-20
-21
-21
-21
-21
-21
-21
-20
-21
-22
-23
-24
-25
-25
-25
-24
-22
-20
-18
-17
-16
-17
-17
-19
-21
-22
-23
-24
-24
-23
-23
-22
-22
-22
-22
-22
-21
-20
-19
-18
-17
-17
-17
-18
-19
-21
-22
-23
-23
-23
-23
-22
-22
-22
-22
-22
-22
-22
-21
-20
-18
-17
-16
-16
-16
-17
-19
-20
-21
-21
-21
-19
-17
-15
-13
-12
-12
-12
-13
-15
-16
-17
-17
-16
-15
-14
-12
-10
-8
-7
-6
-5
-5
-4
-5
-5
-6
-7
-8
-10
-10
-11
-11
-11
-11
-11
-11
-11
-11
-12
-13
-14
-15
-16
-16
-17
-18
-19
-21
-23
-26
-28
-29
-30
-29
-28
-26
-24
-22
-21
-21
-21
-23
-24
-25
-26
-26
-26
-27
-29
-32
-36
-41
-46
-50
-51
-48
-41
-30
-14
5
26
50
76
104
134
165
198
230
259
281
294
294
281
253
214
166
114
65
23
-10
-31
-40
-41
-36
-28
-21
-16
-15
-16
-20
-23
-26
-26
-25
-22
-19
-16
-15
-15
-16
-18
-20
-21
-20
-19
-17
-16
-14
-13
-13
-13
-14
-14
-13
-12
-10
-9
-8
-8
-9
-11
-14
-16
-18
-18
-17
-14
-11
-8
-5
-2
-1
-1
-2
-3
-4
-4
-3
-1
2
5
8
11
13
15
16
16
16
16
15
14
14
14
15
17
20
23
26
29
32
35
38
40
42
44
46
48
50
52
54
56
58
60
62
65
67
70
73
76
79
81
83
85
86
86
86
86
86
86
86
85
84
83
80
77
73
69
66
62
58
55
51
47
43
38
32
27
22
18
15
12
10
8
6
4
0
-4
-7
-11
-13
-14
-14
-13
-11
-10
-9
-10
-11
-14
-17
-20
-23
-24
-25
-24
-23
-21
-20
-19
-18
-18
-18
-18
-17
-17
-16
-15
-15
-15
-15
-16
-18
-19
-20
-21
-21
-21
-21
-21
-21
-21
-23
-24
-25
-26
-27
-26
-25
-23
-20
-18
-17
-16
-16
-17
-18
-18
-19
-19
-18
-17
-16
-16
-15
-16
-17
-18
-19
-19
-18
-17
-15
-13
-12
-11
-11
-13
-14
-17
-18
-19
-19
-18
-16
-14
-12
-11
-11
-12
-14
-16
-19
-21
-22
-21
-20
-18
-16
-15
-14
-14
-14
-16
-17
-18
-18
-17
-16
-15
-15
-15
-16
-18
-20
-21
-22
-22
-21
-20
-17
-15
-13
-12
-13
-14
-15
-18
-19
-21
-22
-22
-21
-20
-19
-18
-17
-18
-18
-19
-21
-22
-23
-24
-24
-24
-24
-23
-22
-20
-18
-17
-15
-14
-14
-14
-15
-16
-18
-20
-22
-24
-26
-26
-26
-25
-23
-21
-19
-17
-16
-16
-17
-18
-19
-21
-22
-23
-24
-25
-25
-25
-25
-25
-24
-24
-23
-22
-21
-20
-19
-19
-20
-20
-22
-23
-25
-26
-27
-27
-27
-26
-25
-23
-22
-20
-18
-17
-16
-15
-15
-14
-14
-14
-14
-14
-14
-13
-13
-13
-13
-13
-14
-14
-15
-15
-15
-15
-14
-13
-12
-11
-11
-11
-11
-13
-14
-17
-19
-21
-22
-23
-24
-24
-23
-23
-23
-24
-25
-26
-27
-28
-30
-30
-31
-31
-30
-30
-29
-29
-28
-27
-27
-26
-26
-27
-29
-33
-37
-43
-48
-52
-54
-53
-48
-39
-25
-9
11
33
57
83
110
139
169
199
229
255
275
285
284
270
244
207
162
115
69
29
-1
-22
-32
-35
-31
-26
-20
-17
-16
-18
-21
-24
-26
-27
-25
-22
-19
-16
-14
-14
-15
-18
-20
-22
-23
-23
-22
-19
-17
-15
-14
-14
-15
-16
-18
-20
-21
-21
-19
-17
-14
-11
-8
-6
-5
-6
-7
-8
-10
-11
-11
-10
-8
-6
-4
-2
-1
0
-1
-2
-3
-5
-5
-4
-3
0
3
6
9
11
13
14
15
16
17
19
22
25
28
31
32
34
34
34
34
34
36
38
42
46
51
55
59
62
63
64
64
65
65
66
67
69
72
74
76
77
78
77
77
76
74
73
72
71
70
68
66
63
59
55
50
45
40
35
31
27
24
21
17
14
11
8
4
2
0
-1
-2
-3
-3
-4
-6
-8
-11
-14
-17
-20
-22
-22
-22
-21
-19
-18
-16
-16
-15
-16
-17
-18
-19
-20
-20
-21
-21
-20
-20
-19
-19
-18
-17
-17
-16
-16
-16
-16
-16
-17
-17
-18
-18
-18
-18
-17
-17
-16
-16
-16
-16
-17
-18
-19
-20
-21
-21
-21
-21
-20
-20
-19
-18
-17
-17
-17
-16
-16
-16
-16
-17
-17
-17
-18
-18
-19
-19
-19
-19
-19
-18
-17
-17
-16
-15
-15
-15
-15
-15
-16
-16
-17
-18
-18
-18
-18
-17
-16
-15
-14
-13
-13
-13
-14
-16
-17
-18
-19
-19
-18
-17
-16
-16
-16
-16
-17
-18
-19
-20
-20
-19
-19
-18
-17
-17
-17
-18
-19
-19
-20
-19
-18
-17
-16
-16
-16
-16
-18
-19
-21
-22
-23
-22
-21
-20
-18
-17
-16
-16
-16
-18
-19
-21
-21
-22
-21
-20
-19
-18
-16
-15
-15
-15
-15
-16
-17
-17
-18
-18
-18
-17
-17
-16
-16
-17
-18
-19
-20
-21
-22
-22
-22
-22
-21
-20
-19
-19
-18
-18
-19
-19
-19
-19
-19
-19
-19
-19
-19
-19
-19
-20
-20
-19
-19
-18
-18
-17
-17
-17
-18
-18
-18
-18
-18
-17
-17
-16
-15
-15
-16
-17
-18
-18
-18
-18
-16
-14
-12
-10
-8
-7
-7
-7
-8
-9
-10
-10
-10
-9
-8
-8
-8
-8
-10
-12
-14
-15
-17
-17
-17
-16
-15
-14
-13
-13
-13
-15
-16
-18
-20
-21
-22
-23
-23
-23
-24
-24
-25
-25
-26
-27
-27
-27
-27
-27
-26
-26
-25
-25
-26
-27
-29
-33
-37
-42
-48
-53
-56
-56
-52
-44
-30
-13
8
32
58
86
114
144
174
204
233
259
279
291
291
279
254
218
174
126
79
38
6
-16
-28
-31
-29
-23
-18
-15
-14
-15
-18
-22
-24
-24
-23
-21
-18
-16
-15
-15
-15
-17
-18
-18
-17
-16
-14
-12
-10
-9
-9
-10
-11
-13
-14
-15
-15
-15
-14
-13
-12
-10
-9
-8
-7
-7
-7
-7
-6
-6
-5
-5
-4
-3
-2
-1
-1
-1
-1
-1
-1
0
2
3
5
7
9
10
10
11
11
12
14
15
18
20
22
24
26
27
28
29
30
32
35
38
42
45
48
51
52
53
54
55
56
58
61
64
68
72
75
78
80
81
82
81
81
80
79
78
78
77
76
75
74
72
70
67
63
59
54
49
45
40
35
31
27
24
20
17
14
11
9
7
5
3
1
0
-2
-4
-6
-8
-11
-12
-14
-15
-15
-16
-15
-15
-15
-15
-15
-16
-17
-18
-18
-19
-19
-18
-18
-17
-17
-16
-16
-16
-15
-15
-15
-14
-14
-14
-15
-15
-16
-17
-18
-18
-18
-17
-16
-15
-13
-13
-13
-13
-15
-17
-19
-21
-22
-22
-21
-20
-18
-16
-14
-13
-13
-14
-15
-17
-19
-20
-20
-20
-18
-17
-15
-13
-12
-13
-14
-15
-18
-19
-21
-22
-21
-21
-19
-18
-16
-16
-15
-15
-16
-17
-18
-18
-19
-19
-19
-18
-18
-18
-18
-18
-18
-18
-18
-18
-19
-19
-19
-19
-19
-19
-19
-19
-18
-18
-17
-16
-16
-15
-15
-15
-16
-16
-17
-18
-18
-19
-19
-18
-18
-17
-17
-16
-17
-17
-17
-18
-19
-19
-19
-19
-19
-18
-18
-18
-18
-19
-20
-22
-23
-23
-23
-23
-22
-20
-19
-18
-17
-17
-18
-20
-21
-23
-24
-25
-24
-24
-22
-21
-19
-18
-18
-18
-19
-19
-20
-20
-20
-20
-19
-18
-18
-17
-17
-18
-18
-19
-19
-19
-19
-19
-19
-18
-18
-18
-18
-18
-19
-19
-18
-18
-17
-17
-17
-17
-17
-18
-19
-20
-21
-21
-22
-22
-22
-21
-21
-20
-19
-19
-18
-18
-17
-18
-18
-19
-20
-21
-22
-22
-22
-22
-20
-19
-17
-16
-16
-16
-17
-19
-21
-23
-25
-25
-24
-22
-19
-16
-13
-11
-10
-10
-11
-12
-13
-14
-14
-13
-12
-10
-9
-8
-8
-8
-9
-9
-8
-8
-7
-5
-4
-3
-3
-3
-4
-5
-6
-7
-8
-7
-7
-6
-6
-6
-6
-7
-8
-9
-10
-11
-12
-13
-14
-15
-16
-17
-19
-20
-21
-22
-21
-21
-20
-20
-19
-19
-19
-20
-21
-22
-23
-23
-24
-24
-24
-24
-24
-24
-24
-26
-28
-31
-35
-40
-45
-49
-52
-52
-49
-42
-31
-16
2
23
47
73
102
132
164
197
230
260
285
302
307
300
280
248
206
159
111
66
28
0
-18
-26
-28
-25
-20
-17
-14
-14
-16
-18
-19
-20
-19
-17
-15
-14
-13
-14
-16
-19
-21
-23
-23
-22
-20
-18
-16
-14
-13
-13
-13
-13
-13
-13
-12
-11
-10
-10
-10
-12
-13
-14
-15
-14
-13
-10
-7
-4
-1
1
2
1
1
-1
-2
-2
-2
-1
0
2
4
6
7
8
9
10
11
11
12
13
14
15
16
18
19
21
23
26
28
31
34
36
38
40
42
44
45
47
49
50
52
54
56
59
61
63
66
69
71
73
75
77
78
79
80
80
81
81
81
81
80
78
75
72
69
66
63
61
58
55
52
49
44
40
35
30
26
22
19
16
14
11
8
4
0
-4
-7
-10
-11
-12
-11
-10
-9
-9
-9
-11
-13
-15
-17
-19
-19
-19
-18
-16
-15
-13
-12
-12
-13
-14
-16
-17
-19
-20
-20
-21
-21
-20
-20
-19
-18
-18
-18
-17
-18
-18
-18
-19
-19
-19
-19
-19
-18
-18
-18
-17
-17
-18
-18
-19
-20
-20
-20
-20
-20
-19
-17
-16
-15
-15
-15
-15
-16
-18
-20
-21
-23
-24
-24
-23
-22
-20
-18
-16
-15
-15
-15
-16
-17
-19
-20
-21
-21
-20
-19
-18
-17
-16
-15
-15
-15
-16
-16
-16
-15
-15
-14
-14
-15
-16
-17
-18
-19
-19
-19
-18
-17
-15
-14
-13
-14
-14
-16
-18
-19
-20
-21
-20
-18
-16
-15
-13
-13
-14
-15
-17
-19
-21
-22
-22
-22
-21
-20
-19
-18
-18
-19
-19
-20
-20
-20
-20
-20
-19
-19
-19
-20
-20
-21
-22
-22
-22
-22
-21
-20
-19
-18
-18
-19
-20
-21
-22
-22
-22
-22
-21
-21
-20
-20
-20
-20
-20
-21
-21
-21
-21
-20
-19
-18
-17
-16
-16
-17
-18
-19
-21
-22
-23
-24
-24
-24
-24
-24
-23
-23
-23
-22
-22
-21
-21
-20
-19
-19
-18
-18
-19
-19
-20
-21
-22
-23
-24
-25
-25
-25
-24
-23
-22
-21
-21
-20
-20
-20
-20
-21
-22
-22
-23
-22
-22
-21
-19
-18
-17
-17
-18
-19
-20
-22
-24
-26
-26
-26
-25
-24
-21
-19
-16
-14
-12
-10
-10
-9
-9
-10
-10
-10
-10
-10
-10
-10
-10
-11
-11
-11
-11
-11
-11
-11
-11
-11
-11
-12
-12
-12
-12
-11
-10
-9
-9
-9
-10
-12
-15
-19
-22
-25
-27
-28
-28
-27
-25
-23
-22
-21
-21
-22
-23
-24
-25
-25
-25
-24
-23
-21
-20
-19
-19
-20
-23
-27
-32
-38
-44
-50
-55
-57
-56
-52
-43
-30
-12
9
33
59
87
117
149
182
216
249
278
300
313
314
301
274
236
189
139
91
48
14
-9
-22
-26
-25
-21
-17
-14
-14
-15
-18
-20
-21
-21
-20
-17
-15
-13
-12
-13
-14
-16
-17
-18
-18
-16
-15
-14
-13
-13
-14
-15
-17
-17
-17
-16
-14
-11
-9
-6
-4
-2
-2
-2
-2
-3
-4
-4
-4
-3
-2
-2
-1
0
0
1
1
1
2
2
4
5
7
8
9
10
11
12
12
12
12
13
14
16
18
21
24
26
29
30
32
33
33
34
36
38
41
45
49
53
56
59
62
63
65
66
67
68
69
71
73
75
76
78
79
79
80
81
82
83
83
83
83
82
80
78
75
72
68
64
60
55
50
45
39
34
29
25
22
19
17
15
14
11
8
5
1
-2
-5
-8
-9
-10
-10
-10
-10
-10
-11
-11
-12
-13
-13
-13
-13
-12
-12
-11
-11
-11
-12
-13
-14
-15
-17
-18
-19
-19
-20
-20
-20
-19
-19
-18
-17
-16
-16
-15
-15
-15
-16
-17
-19
-20
-21
-21
-20
-19
-18
-17
-15
-15
-14
-15
-16
-17
-19
-19
-20
-19
-18
-17
-15
-15
-14
-15
-16
-17
-19
-20
-20
-20
-19
-17
-16
-15
-14
-14
-15
-16
-17
-18
-19
-20
-21
-21
-21
-21
-21
-22
-22
-22
-22
-21
-20
-20
-19
-18
-17
-17
-17
-18
-18
-19
-19
-20
-20
-20
-20
-20
-20
-20
-20
-20
-19
-19
-19
-18
-18
-18
-18
-18
-19
-19
-20
-20
-21
-21
-21
-22
-23
-23
-24
-24
-24
-24
-23
-23
-22
-21
-21
-21
-22
-23
-23
-24
-24
-24
-24
-23
-22
-22
-21
-21
-22
-23
-24
-24
-24
-24
-24
-23
-22
-21
-20
-20
-21
-22
-23
-24
-25
-25
-24
-23
-22
-21
-20
-19
-19
-19
-19
-19
-19
-19
-19
-19
-19
-19
-20
-21
-22
-23
-24
-24
-23
-22
-21
-20
-19
-18
-18
-18
-19
-20
-21
-21
-21
-21
-21
-20
-20
-19
-19
-20
-20
-20
-21
-21
-21
-21
-21
-21
-22
-22
-21
-21
-20
-19
-18
-17
-17
-17
-17
-19
-20
-22
-23
-23
-23
-22
-21
-19
-18
-18
-18
-19
-21
-23
-24
-25
-25
-24
-23
-21
-19
-17
-15
-14
-13
-12
-12
-11
-11
-11
-10
-10
-10
-10
-10
-9
-9
-9
-9
-9
-10
-11
-11
-12
-12
-11
-11
-10
-8
-8
-7
-8
-9
-12
-14
-17
-20
-22
-24
-25
-25
-25
-25
-25
-25
-25
-25
-25
-25
-26
-26
-26
-26
-26
-26
-26
-25
-24
-22
-21
-21
-23
-26
-31
-38
-45
-52
-56
-57
-53
-45
-32
-14
6
29
54
81
110
141
174
209
243
274
298
314
318
308
284
249
204
156
108
64
28
1
-16
-25
-27
-25
-22
-19
-16
-15
-15
-15
-15
-14
-14
-13
-13
-13
-14
-15
-16
-17
-18
-18
-18
-17
-15
-14
-13
-13
-12
-13
-13
-14
-14
-14
-13
-12
-11
-9
-8
-7
-7
-6
-7
-7
-8
-8
-8
-8
-6
-5
-3
-2
-1
0
0
1
1
2
3
4
5
6
7
8
8
9
9
10
11
13
15
16
18
19
20
21
22
23
25
27
30
34
38
42
46
48
50
51
51
52
52
53
55
57
60
63
66
69
71
73
75
75
76
77
78
79
80
81
82
83
83
82
81
78
75
71
67
63
58
53
49
44
40
36
32
28
24
21
18
14
11
8
5
2
-1
-4
-6
-7
-8
-8
-8
-8
-8
-9
-10
-12
-13
-15
-16
-17
-17
-17
-16
-15
-14
-14
-15
-16
-17
-19
-20
-21
-22
-21
-21
-20
-19
-18
-17
-16
-15
-15
-15
-15
-15
-15
-15
-15
-15
-15
-15
-15
-15
-15
-16
-17
-18
-19
-20
-21
-21
-21
-20
-19
-18
-18
-18
-18
-18
-19
-19
-19
-19
-18
-17
-17
-16
-16
-17
-18
-18
-19
-20
-20
-19
-19
-18
-18
-17
-17
-17
-17
-17
-17
-17
-17
-16
-17
-17
-18
-19
-20
-20
-20
-20
-19
-18
-17
-17
-16
-17
-18
-20
-21
-23
-24
-24
-23
-21
-19
-17
-16
-15
-16
-17
-19
-21
-23
-24
-24
-24
-24
-23
-22
-22
-21
-21
-22
-22
-22
-22
-23
-23
-23
-24
-24
-24
-24
-24
-23
-22
-21
-20
-20
-20
-20
-21
-22
-23
-24
-24
-25
-25
-24
-24
-23
-23
-23
-22
-22
-22
-22
-22
-22
-23
-23
-24
-25
-25
-26
-26
-26
-26
-25
-24
-23
-22
-21
-20
-20
-19
-19
-20
-20
-21
-22
-23
-24
-25
-25
-26
-25
-25
-25
-24
-24
-23
-23
-23
-22
-22
-21
-21
-21
-21
-20
-20
-20
-20
-20
-20
-19
-18
-18
-17
-17
-17
-17
-18
-18
-19
-20
-20
-21
-21
-21
-21
-21
-22
-22
-22
-22
-22
-21
-21
-21
-21
-21
-22
-22
-22
-23
-22
-22
-21
-20
-19
-19
-18
-18
-18
-18
-17
-17
-16
-15
-13
-12
-11
-10
-10
-10
-11
-12
-13
-14
-15
-15
-15
-15
-14
-13
-12
-12
-11
-11
-11
-12
-13
-13
-14
-15
-17
-18
-20
-22
-24
-25
-26
-27
-27
-27
-26
-24
-23
-22
-22
-23
-24
-25
-26
-26
-26
-26
-24
-23
-22
-22
-23
-27
-33
-40
-47
-53
-57
-58
-54
-46
-32
-15
6
29
55
82
111
141
174
207
240
271
296
313
319
311
289
254
210
159
108
62
23
-5
-23
-30
-31
-26
-21
-16
-13
-12
-13
-15
-16
-17
-17
-16
-14
-13
-12
-12
-13
-14
-16
-16
-17
-16
-16
-15
-14
-13
-13
-13
-12
-11
-10
-9
-9
-8
-8
-9
-9
-10
-11
-11
-11
-9
-7
-4
-2
0
1
1
0
-1
-3
-4
-5
-4
-3
-1
1
4
6
7
9
9
9
9
10
10
12
13
15
17
20
22
23
25
26
26
27
28
29
31
33
36
38
41
45
48
51
54
57
60
62
65
68
71
73
76
78
80
82
82
83
83
82
82
82
82
82
82
81
81
79
77
75
71
67
63
58
54
49
45
41
37
34
31
27
24
21
17
13
10
6
2
-1
-3
-5
-6
-7
-6
-6
-6
-5
-6
-6
-8
-9
-11
-13
-14
-16
-17
-17
-18
-18
-17
-17
-17
-17
-17
-17
-18
-18
-18
-19
-19
-19
-18
-18
-17
-16
-15
-15
-15
-16
-17
-18
-19
-20
-20
-20
-19
-18
-16
-15
-14
-13
-12
-12
-12
-13
-14
-14
-15
-16
-17
-18
-19
-19
-19
-19
-19
-18
-17
-17
-16
-16
-17
-17
-17
-18
-18
-18
-19
-19
-18
-18
-18
-18
-18
-17
-17
-16
-16
-16
-16
-17
-18
-19
-21
-22
-22
-22
-22
-21
-20
-19
-18
-18
-18
-19
-20
-21
-22
-22
-22
-21
-20
-18
-17
-17
-16
-17
-18
-19
-20
-20
-21
-21
-21
-21
-21
-21
-21
-21
-21
-22
-22
-21
-21
-20
-19
-19
-19
-19
-19
-19
-19
-19
-19
-19
-19
-19
-19
-20
-21
-23
-25
-27
-28
-28
-28
-27
-25
-23
-21
-19
-18
-18
-18
-19
-20
-20
-21
-21
-20
-20
-21
-21
-22
-24
-25
-27
-27
-28
-27
-26
-24
-22
-20
-18
-17
-16
-16
-16
-16
-16
-17
-17
-18
-19
-20
-22
-22
-23
-22
-22
-20
-19
-17
-16
-16
-16
-16
-17
-18
-19
-19
-19
-19
-19
-19
-19
-19
-20
-20
-21
-20
-20
-19
-17
-16
-15
-15
-15
-15
-16
-16
-16
-16
-16
-15
-14
-12
-11
-11
-11
-11
-12
-12
-13
-13
-13
-13
-12
-11
-10
-9
-8
-8
-8
-8
-9
-9
-10
-11
-11
-12
-13
-14
-16
-17
-18
-20
-21
-21
-21
-21
-20
-20
-19
-18
-19
-19
-20
-22
-23
-24
-26
-26
-26
-26
-25
-24
-23
-22
-23
-24
-28
-32
-37
-43
-48
-52
-52
-50
-43
-33
-19
-2
18
41
66
94
124
157
191
225
256
281
296
300
290
266
230
185
135
86
42
6
-19
-34
-40
-39
-34
-28
-22
-17
-15
-13
-13
-14
-14
-14
-15
-15
-16
-17
-18
-19
-19
-18
-17
-16
-15
-14
-15
-15
-16
-17
-18
-17
-16
-13
-10
-8
-7
-6
-7
-8
-10
-12
-12
-12
-10
-8
-5
-2
0
1
2
2
1
0
-1
-1
-2
-2
-1
-1
0
2
3
5
7
10
12
13
15
16
17
17
18
19
21
23
26
28
32
34
37
39
41
42
44
45
46
48
49
51
54
56
59
62
65
68
72
75
77
80
81
82
82
82
82
81
81
81
81
81
82
82
81
79
76
72
67
62
57
51
47
43
39
36
33
30
27
24
21
17
14
10
7
4
1
-1
-4
-6
-8
-10
-11
-12
-13
-14
-15
-16
-16
-17
-18
-18
-18
-19
-19
-19
-20
-20
-21
-22
-22
-22
-22
-22
-21
-21
-21
-21
-22
-23
-24
-25
-25
-24
-23
-21
-19
-17
-15
-15
-15
-16
-18
-20
-22
-23
-24
-24
-24
-23
-23
-22
-22
-23
-23
-24
-24
-24
-23
-22
-21
-20
-19
-19
-19
-20
-21
-22
-23
-23
-24
-24
-24
-24
-24
-24
-24
-23
-23
-22
-22
-21
-21
-21
-22
-22
-23
-24
-25
-25
-24
-23
-21
-20
-18
-18
-18
-18
-19
-20
-22
-23
-24
-25
-25
-25
-24
-24
-23
-22
-21
-21
-21
-21
-22
-23
-24
-25
-25
-25
-24
-22
-21
-19
-18
-18
-20
-23
-26
-30
-33
-35
-35
-34
-31
-27
-23
-20
-18
-18
-18
-20
-22
-24
-25
-25
-24
-22
-20
-18
-17
-17
-18
-20
-22
-24
-26
-27
-28
-27
-26
-24
-23
-22
-21
-22
-22
-24
-25
-26
-26
-26
-25
-24
-22
-21
-20
-20
-20
-22
-24
-25
-27
-28
-28
-27
-26
-24
-22
-21
-20
-20
-20
-21
-21
-22
-23
-23
-23
-23
-23
-22
-22
-22
-23
-24
-24
-25
-25
-25
-24
-23
-22
-21
-20
-20
-20
-21
-22
-23
-23
-23
-22
-20
-18
-15
-12
-10
-9
-9
-10
-12
-15
-17
-19
-20
-20
-19
-17
-14
-11
-9
-8
-8
-9
-11
-14
-17
-20
-23
-24
-25
-24
-23
-22
-20
-19
-18
-19
-21
-23
-25
-28
-30
-31
-32
-32
-31
-30
-28
-26
-25
-23
-22
-23
-25
-29
-35
-41
-48
-54
-57
-56
-50
-39
-24
-4
17
41
66
91
118
147
177
208
238
265
285
295
292
276
245
204
156
106
59
19
-10
-28
-36
-36
-32
-25
-20
-16
-15
-16
-17
-19
-19
-19
-18
-17
-16
-16
-16
-17
-18
-18
-18
-18
-17
-16
-16
-16
-17
-18
-19
-19
-19
-18
-17
-15
-13
-12
-12
-12
-12
-12
-12
-11
-9
-8
-6
-5
-4
-5
-5
-6
-7
-7
-6
-5
-3
-1
1
2
3
4
4
5
6
7
9
11
13
15
16
17
17
17
18
19
21
24
26
29
31
33
34
35
36
37
39
41
44
47
51
54
57
59
61
63
65
67
69
72
75
78
80
82
83
83
82
81
80
78
77
76
75
74
73
71
68
66
62
58
54
50
45
40
34
29
24
20
16
14
12
11
10
9
8
6
3
-1
-5
-9
-12
-13
-14
-14
-13
-12
-11
-11
-12
-14
-16
-17
-18
-18
-17
-16
-15
-14
-14
-14
-16
-18
-19
-20
-21
-20
-19
-17
-15
-14
-13
-12
-12
-13
-13
-14
-14
-15
-15
-15
-15
-15
-16
-16
-17
-17
-17
-17
-17
-17
-17
-16
-16
-16
-15
-14
-13
-12
-12
-11
-12
-12
-13
-14
-15
-16
-16
-16
-15
-14
-14
-14
-14
-15
-16
-16
-16
-16
-15
-14
-12
-11
-10
-9
-9
-10
-12
-13
-15
-16
-17
-17
-17
-17
-16
-15
-14
-14
-13
-13
-13
-13
-14
-14
-15
-15
-15
-16
-16
-16
-16
-16
-16
-16
-16
-16
-16
-16
-16
-15
-15
-14
-14
-13
-13
-14
-15
-16
-17
-18
-19
-20
-20
-20
-19
-18
-17
-15
-15
-14
-14
-14
-14
-15
-17
-18
-20
-21
-21
-21
-20
-19
-17
-16
-14
-13
-13
-14
-15
-16
-18
-19
-19
-19
-19
-19
-18
-18
-18
-18
-19
-20
-20
-21
-21
-20
-19
-18
-16
-15
-14
-14
-14
-15
-16
-17
-17
-18
-18
-18
-18
-18
-19
-19
-20
-21
-21
-21
-20
-19
-17
-15
-14
-13
-14
-15
-16
-18
-20
-21
-22
-22
-21
-20
-19
-18
-17
-17
-16
-16
-16
-17
-17
-18
-18
-19
-19
-19
-19
-19
-19
-19
-19
-19
-19
-19
-19
-18
-18
-17
-15
-14
-13
-12
-11
-10
-10
-9
-9
-9
-8
-8
-9
-9
-10
-12
-14
-16
-18
-20
-21
-20
-19
-17
-14
-11
-8
-6
-5
-5
-6
-9
-11
-14
-17
-18
-19
-19
-19
-18
-17
-16
-16
-17
-18
-20
-22
-24
-25
-26
-26
-26
-25
-23
-21
-20
-19
-19
-20
-23
-27
-32
-39
-46
-52
-57
-59
-58
-52
-42
-27
-9
13
37
63
90
119
150
181
212
242
268
287
297
295
280
253
216
171
124
78
39
7
-14
-26
-31
-29
-25
-21
-18
-16
-16
-18
-19
-20
-20
-19
-17
-16
-15
-14
-15
-16
-18
-18
-19
-19
-18
-17
-16
-15
-15
-16
-16
-17
-17
-17
-15
-14
-12
-10
-8
-6
-5
-5
-6
-6
-7
-7
-8
-8
-7
-6
-5
-4
-3
-2
-1
0
0
1
1
1
2
2
3
3
4
5
6
8
10
12
14
17
19
21
22
24
25
26
27
28
30
31
33
34
37
39
42
45
48
51
54
56
58
60
61
63
65
67
69
71
74
76
78
79
79
79
78
78
78
77
78
78
78
77
76
73
69
65
60
55
50
45
42
38
35
32
29
25
21
17
13
10
6
4
2
1
0
-2
-4
-6
-9
-11
-13
-14
-15
-15
-14
-14
-14
-14
-15
-17
-19
-21
-23
-24
-23
-22
-21
-19
-17
-16
-15
-15
-16
-17
-18
-19
-20
-21
-21
-21
-21
-20
-20
-19
-18
-17
-16
-16
-16
-16
-17
-18
-20
-21
-22
-22
-22
-21
-20
-19
-18
-17
-17
-17
-18
-19
-20
-21
-21
-21
-21
-20
-20
-19
-18
-18
-18
-19
-19
-20
-20
-20
-19
-19
-18
-17
-16
-16
-17
-17
-19
-20
-21
-21
-22
-21
-21
-20
-19
-19
-19
-19
-21
-22
-24
-25
-26
-26
-25
-24
-22
-20
-18
-16
-15
-14
-14
-15
-16
-17
-19
-20
-21
-21
-20
-20
-19
-18
-18
-18
-19
-20
-21
-22
-22
-22
-21
-20
-19
-18
-17
-17
-17
-17
-18
-19
-20
-21
-22
-23
-23
-24
-24
-24
-24
-23
-22
-22
-21
-21
-22
-22
-23
-23
-23
-22
-21
-19
-18
-17
-16
-17
-18
-21
-23
-25
-27
-27
-27
-26
-25
-24
-23
-22
-22
-22
-22
-22
-22
-22
-22
-22
-21
-21
-21
-20
-20
-19
-18
-18
-17
-17
-18
-18
-18
-19
-18
-18
-17
-16
-15
-14
-15
-15
-17
-18
-19
-20
-20
-19
-18
-17
-16
-16
-16
-16
-17
-18
-18
-18
-18
-17
-15
-14
-14
-13
-13
-14
-15
-16
-17
-18
-18
-18
-18
-18
-17
-16
-16
-15
-15
-15
-15
-16
-16
-15
-15
-14
-13
-12
-12
-12
-12
-13
-14
-15
-16
-16
-15
-12
-10
-7
-4
-2
-2
-2
-3
-5
-7
-9
-10
-10
-10
-10
-9
-9
-9
-10
-10
-11
-12
-12
-11
-10
-9
-7
-6
-5
-4
-5
-7
-9
-11
-13
-15
-17
-19
-20
-21
-21
-22
-22
-23
-23
-23
-23
-22
-22
-22
-22
-22
-22
-22
-21
-21
-20
-20
-21
-24
-28
-34
-41
-48
-54
-57
-56
-51
-41
-26
-8
13
36
61
88
116
146
179
212
245
275
298
312
314
302
276
239
194
145
98
56
23
-1
-15
-21
-21
-19
-15
-12
-11
-12
-13
-14
-15
-15
-14
-12
-10
-9
-8
-9
-11
-14
-16
-18
-18
-18
-16
-14
-12
-10
-8
-7
-7
-6
-6
-6
-6
-6
-6
-6
-7
-7
-8
-9
-9
-9
-9
-8
-6
-5
-3
-2
-1
0
1
2
3
4
5
6
7
8
9
8
8
7
7
7
7
9
11
14
18
21
24
26
28
29
30
31
32
33
35
37
40
42
44
45
47
48
50
52
54
57
60
63
66
68
69
70
71
72
72
74
75
77
79
81
82
82
81
80
77
74
71
69
68
67
66
65
64
61
58
53
47
41
34
28
23
20
17
14
12
10
8
5
3
0
-3
-5
-7
-8
-9
-10
-10
-11
-12
-13
-14
-14
-15
-15
-14
-14
-14
-14
-15
-15
-16
-17
-18
-18
-17
-17
-16
-15
-14
-14
-14
-15
-15
-16
-17
-17
-17
-17
-17
-17
-17
-17
-18
-18
-18
-18
-17
-16
-15
-14
-14
-14
-14
-15
-16
-17
-18
-19
-19
-19
-18
-18
-17
-17
-18
-18
-19
-20
-21
-21
-21
-20
-19
-18
-18
-17
-17
-18
-18
-19
-19
-19
-19
-18
-17
-15
-14
-13
-13
-13
-14
-15
-17
-19
-20
-22
-22
-22
-22
-22
-21
-21
-20
-20
-19
-19
-18
-16
-15
-14
-13
-13
-13
-14
-15
-17
-19
-20
-22
-23
-23
-22
-21
-20
-18
-16
-15
-14
-14
-14
-15
-17
-18
-20
-21
-22
-23
-23
-22
-22
-21
-20
-19
-18
-17
-17
-17
-17
-18
-19
-20
-21
-21
-22
-22
-21
-20
-19
-18
-17
-16
-15
-15
-15
-15
-16
-16
-17
-18
-19
-20
-21
-22
-23
-23
-24
-23
-23
-22
-21
-20
-19
-19
-18
-18
-18
-19
-19
-20
-21
-22
-23
-24
-24
-24
-24
-23
-22
-21
-20
-19
-19
-20
-21
-22
-22
-22
-21
-19
-18
-16
-16
-16
-18
-20
-23
-26
-27
-28
-27
-24
-21
-18
-16
-14
-14
-15
-17
-20
-22
-24
-25
-25
-24
-23
-21
-20
-19
-18
-18
-19
-20
-21
-21
-20
-20
-18
-17
-17
-17
-18
-20
-23
-25
-27
-28
-28
-28
-26
-25
-23
-21
-21
-20
-21
-21
-22
-23
-22
-22
-21
-20
-18
-17
-17
-16
-16
-16
-16
-16
-15
-14
-13
-11
-10
-9
-9
-9
-9
-9
-10
-11
-12
-14
-15
-16
-17
-17
-17
-17
-16
-14
-12
-11
-9
-8
-7
-7
-8
-9
-11
-13
-15
-17
-18
-18
-19
-19
-20
-21
-22
-23
-24
-25
-25
-25
-24
-24
-23
-23
-23
-23
-24
-25
-26
-26
-26
-26
-25
-26
-28
-32
-37
-44
-50
-56
-59
-58
-52
-42
-26
-7
16
41
68
96
125
156
189
221
253
281
302
312
311
295
266
225
177
127
79
38
7
-14
-25
-27
-25
-20
-15
-12
-12
-13
-15
-18
-19
-19
-18
-17
-15
-14
-14
-15
-16
-18
-19
-19
-18
-16
-14
-12
-10
-9
-9
-9
-10
-11
-11
-12
-12
-12
-11
-11
-11
-10
-10
-9
-9
-8
-7
-6
-5
-5
-5
-5
-6
-6
-6
-6
-5
-4
-2
0
3
5
6
7
8
8
9
9
10
12
13
15
17
18
19
20
21
22
22
23
25
27
29
32
35
37
40
42
44
46
48
51
54
57
60
63
66
68
70
71
71
71
71
71
72
73
75
76
78
79
80
80
79
77
75
72
70
68
66
63
61
58
54
49
44
38
32
27
22
18
16
13
12
10
8
6
3
0
-3
-5
-7
-9
-10
-10
-11
-11
-11
-12
-12
-13
-13
-14
-15
-16
-17
-18
-19
-20
-21
-22
-22
-22
-22
-21
-20
-20
-19
-20
-20
-21
-21
-22
-22
-22
-22
-21
-20
-19
-18
-17
-17
-17
-17
-18
-18
-18
-18
-19
-19
-19
-19
-19
-20
-21
-22
-22
-23
-23
-23
-23
-23
-23
-22
-22
-22
-22
-21
-21
-21
-21
-21
-21
-21
-21
-21
-21
-22
-22
-21
-20
-19
-18
-17
-16
-16
-16
-16
-18
-19
-20
-21
-21
-20
-19
-17
-15
-13
-12
-11
-11
-12
-13
-15
-16
-17
-17
-16
-15
-14
-13
-12
-11
-11
-11
-11
-11
-11
-11
-11
-10
-10
-10
-10
-11
-11
-11
-12
-12
-13
-14
-14
-15
-16
-16
-16
-16
-15
-15
-14
-13
-12
-12
-12
-12
-13
-13
-14
-14
-14
-13
-13
-12
-12
-12
-12
-12
-13
-13
-13
-14
-14
-14
-15
-15
-16
-17
-17
-18
-18
-18
-17
-17
-16
-15
-14
-13
-13
-13
-14
-15
-16
-17
-17
-18
-18
-17
-16
-15
-14
-12
-11
-11
-11
-11
-13
-14
-16
-18
-19
-19
-19
-18
-16
-14
-13
-12
-12
-12
-13
-14
-15
-16
-17
-17
-17
-16
-16
-16
-16
-16
-16
-17
-17
-17
-17
-17
-17
-16
-16
-15
-15
-14
-14
-14
-14
-15
-16
-17
-18
-18
-19
-19
-19
-18
-18
-18
-18
-19
-19
-19
-19
-20
-19
-19
-18
-18
-17
-17
-16
-15
-15
-14
-14
-13
-13
-13
-13
-14
-15
-16
-17
-18
-18
-18
-17
-15
-13
-11
-10
-8
-7
-6
-5
-5
-5
-6
-7
-7
-9
-10
-12
-14
-15
-16
-16
-16
-14
-13
-11
-9
-8
-7
-7
-8
-10
-11
-13
-14
-15
-15
-16
-17
-18
-19
-21
-22
-24
-25
-25
-24
-24
-23
-22
-21
-20
-20
-19
-19
-19
-19
-20
-23
-27
-33
-40
-47
-53
-57
-56
-51
-41
-25
-6
16
40
66
94
123
154
186
220
253
283
306
318
318
303
274
234
186
135
86
45
12
-9
-21
-24
-23
-19
-15
-13
-12
-13
-15
-16
-17
-16
-14
-11
-9
-8
-8
-10
-12
-14
-16
-18
-18
-17
-16
-14
-13
-12
-11
-10
-10
-10
-11
-11
-11
-11
-11
-11
-11
-11
-11
-10
-10
-9
-9
-8
-7
-5
-4
-3
-2
-1
0
0
1
2
3
3
4
4
5
6
6
7
9
10
12
14
16
18
20
22
24
25
26
27
27
27
28
29
30
32
35
37
40
43
46
49
51
53
55
57
59
61
64
67
70
73
76
78
80
81
82
83
83
83
83
83
84
84
84
84
83
82
79
76
72
68
63
58
53
48
43
39
35
32
28
25
22
19
16
13
10
8
6
4
2
0
-2
-4
-5
-8
-10
-11
-13
-14
-14
-14
-13
-12
-12
-11
-12
-12
-13
-14
-15
-16
-16
-15
-15
-15
-15
-15
-16
-17
-18
-19
-19
-19
-19
-19
-18
-18
-18
-18
-18
-18
-18
-17
-16
-15
-15
-14
-14
-15
-17
-18
-20
-21
-22
-22
-21
-20
-19
-17
-16
-15
-15
-15
-15
-16
-16
-17
-17
-17
-17
-18
-18
-19
-19
-19
-20
-20
-19
-19
-18
-18
-18
-17
-17
-17
-17
-17
-17
-16
-15
-15
-14
-15
-16
-18
-20
-22
-24
-25
-25
-24
-22
-20
-17
-16
-15
-15
-16
-17
-19
-21
-23
-24
-24
-24
-24
-23
-23
-22
-22
-21
-20
-19
-18
-17
-16
-16
-16
-17
-17
-18
-18
-18
-18
-17
-17
-17
-18
-19
-21
-23
-25
-26
-26
-25
-23
-21
-19
-18
-17
-17
-18
-20
-21
-23
-24
-24
-23
-22
-21
-20
-19
-19
-19
-20
-21
-22
-22
-22
-22
-21
-20
-18
-17
-16
-16
-16
-17
-18
-20
-22
-23
-24
-25
-25
-25
-24
-23
-22
-21
-20
-19
-19
-19
-19
-20
-20
-21
-22
-22
-22
-23
-23
-23
-22
-22
-21
-21
-20
-20
-20
-21
-21
-22
-23
-23
-23
-23
-23
-22
-22
-22
-22
-22
-22
-22
-22
-23
-23
-23
-23
-23
-24
-25
-26
-26
-27
-27
-27
-26
-25
-24
-23
-22
-21
-20
-21
-21
-22
-23
-24
-25
-27
-27
-28
-27
-26
-25
-23
-20
-18
-16
-15
-14
-14
-15
-16
-18
-19
-19
-19
-18
-17
-15
-14
-13
-12
-12
-13
-14
-15
-16
-17
-17
-17
-17
-17
-17
-17
-17
-17
-18
-18
-18
-18
-18
-17
-17
-17
-17
-18
-18
-19
-21
-22
-23
-24
-26
-27
-29
-30
-30
-30
-30
-28
-27
-26
-25
-24
-25
-26
-28
-29
-30
-31
-31
-32
-32
-34
-37
-42
-47
-52
-54
-54
-48
-38
-23
-4
18
43
70
98
127
158
190
222
252
277
294
300
292
270
236
191
142
91
46
9
-17
-32
-38
-37
-33
-28
-25
-23
-24
-25
-27
-27
-25
-22
-18
-14
-11
-9
-9
-10
-12
-15
-17
-18
-19
-19
-18
-17
-17
-16
-15
-14
-13
-12
-10
-9
-9
-8
-9
-10
-10
-11
-11
-11
-10
-9
-8
-7
-6
-6
-6
-6
-6
-6
-6
-5
-4
-3
-1
-1
0
0
1
1
2
4
5
8
10
12
14
16
18
20
22
23
25
27
28
30
31
32
33
34
35
37
39
42
45
49
52
55
58
60
62
64
67
69
71
74
77
80
82
84
85
86
86
86
86
86
86
86
85
85
84
82
79
76
72
67
63
58
54
49
45
41
37
33
29
25
21
17
13
10
7
5
3
2
1
-1
-2
-3
-5
-6
-7
-7
-8
-8
-9
-9
-9
-10
-10
-10
-11
-11
-11
-11
-11
-11
-12
-12
-13
-14
-15
-16
-17
-18
-19
-19
-20
-20
-20
-20
-19
-18
-16
-15
-14
-13
-12
-12
-12
-13
-14
-15
-15
-15
-15
-15
-14
-14
-14
-14
-15
-15
-16
-16
-16
-16
-15
-15
-14
-13
-12
-12
-11
-11
-10
-10
-9
-9
-9
-9
-10
-11
-12
-14
-15
-16
-16
-15
-14
-13
-12
-11
-11
-11
-11
-12
-12
-12
-11
-10
-9
-8
-7
-7
-7
-7
-8
-9
-10
-12
-12
-13
-13
-13
-13
-12
-11
-11
-11
-10
-10
-10
-11
-11
-11
-11
-11
-11
-11
-11
