16
15
13
12
11
10
9
8
8
8
8
8
7
7
5
4
3
2
1
1
2
3
4
4
5
4
2
1
-2
-3
-5
-6
-6
-5
-4
-3
-2
-2
-2
-2
-3
-4
-5
-5
-5
-5
-4
-4
-3
-2
-2
-2
-3
-3
-4
-5
-6
-6
-7
-7
-7
-8
-8
-9
-10
-10
-11
-11
-10
-10
-10
-10
-11
-13
-14
-16
-18
-19
-19
-18
-16
-14
-12
-10
-9
-9
-9
-11
-12
-13
-14
-15
-15
-15
-14
-14
-14
-14
-14
-14
-14
-14
-13
-12
-11
-11
-11
-11
-12
-14
-15
-16
-16
-16
-16
-16
-16
-16
-17
-18
-19
-20
-21
-21
-20
-19
-17
-16
-15
-15
-15
-16
-16
-17
-18
-18
-18
-17
-17
-17
-17
-17
-18
-19
-19
-20
-19
-18
-17
-15
-13
-12
-11
-10
-10
-10
-10
-10
-10
-10
-10
-9
-8
-7
-5
-4
-3
-1
0
1
2
2
3
3
3
3
3
3
3
2
2
2
1
1
0
0
-1
-3
-4
-5
-7
-8
-10
-11
-12
-13
-14
-15
-15
-15
-15
-15
-14
-14
-14
-14
-14
-15
-15
-15
-15
-16
-16
-15
-15
-15
-16
-16
-16
-16
-15
-13
-10
-5
1
10
21
35
50
66
84
101
118
131
141
146
144
135
120
99
74
47
20
-5
-25
-41
-51
-55
-55
-52
-47
-42
-36
-32
-27
-24
-20
-18
-15
-13
-11
-11
-11
-13
-15
-17
-19
-20
-20
-19
-18
-16
-14
-13
-13
-13
-14
-15
-16
-16
-16
-15
-14
-13
-12
-11
-11
-11
-11
-11
-11
-10
-10
-8
-6
-5
-3
-1
0
1
2
2
1
0
-1
-2
-2
-2
-2
-1
1
3
5
7
9
10
11
11
11
10
10
10
11
12
14
16
19
22
25
27
29
31
31
32
32
33
35
37
40
43
47
51
55
57
59
60
61
61
61
62
63
64
66
67
67
67
67
66
65
63
62
61
60
58
56
53
49
45
40
35
31
27
24
22
19
17
15
12
10
7
4
1
-1
-3
-4
-6
-7
-9
-11
-13
-16
-18
-20
-21
-21
-20
-19
-17
-16
-15
-15
-16
-17
-20
-22
-24
-25
-25
-24
-23
-21
-19
-18
-18
-18
-20
-22
-24
-26
-28
-28
-28
-26
-24
-22
-19
-18
-17
-17
-18
-20
-22
-24
-26
-26
-26
-26
-25
-23
-22
-21
-21
-21
-21
-22
-22
-23
-23
-23
-22
-22
-21
-20
-20
-20
-20
-21
-21
-22
-22
-23
-22
-22
-22
-21
-21
-21
-22
-22
-23
-24
-24
-24
-24
-24
-24
-23
-23
-23
-23
-23
-23
-23
-22
-21
-20
-19
-19
-19
-20
-22
-24
-26
-27
-27
-27
-25
-23
-22
-20
-20
-21
-23
-25
-27
-29
-30
-30
-29
-28
-26
-25
-25
-26
-27
-29
-30
-30
-30
-29
-27
-25
-24
-23
-22
-22
-23
-24
-24
-25
-24
-24
-24
-24
-24
-25
-27
-29
-30
-31
-32
-32
-31
-31
-30
-30
-30
-30
-31
-32
-32
-32
-32
-31
-30
-29
-27
-26
-25
-24
-23
-23
-22
-22
-23
-23
-23
-24
-23
-23
-22
-21
-20
-19
-18
-18
-18
-18
-18
-18
-18
-16
-14
-12
-9
-6
-4
-3
-3
-4
-5
-7
-8
-9
-10
-10
-9
-8
-7
-7
-7
-8
-9
-11
-13
-15
-16
-18
-19
-20
-21
-23
-25
-27
-29
-31
-32
-32
-32
-32
-32
-31
-31
-31
-31
-31
-31
-31
-30
-29
-28
-27
-27
-27
-29
-30
-31
-31
-30
-25
-18
-8
6
22
39
59
78
98
117
133
147
156
160
156
145
127
102
72
40
9
-20
-42
-58
-66
-68
-64
-56
-48
-39
-33
-28
-24
-22
-21
-19
-16
-14
-11
-8
-6
-5
-6
-7
-8
-10
-10
-11
-10
-9
-7
-6
-5
-5
-6
-7
-7
-8
-8
-7
-6
-4
-2
0
2
3
3
3
3
2
2
2
2
3
4
6
8
10
12
13
13
13
12
11
9
9
9
10
11
14
17
20
23
25
26
27
28
28
29
29
30
31
33
35
37
40
42
46
49
52
56
59
62
64
65
66
67
68
70
73
76
79
83
87
90
92
93
93
93
92
91
91
91
91
92
93
93
92
90
88
84
80
76
73
69
66
62
59
55
52
48
43
39
35
31
27
24
21
18
16
13
11
8
6
3
1
-2
-4
-7
-8
-10
-11
-12
-11
-11
-11
-11
-11
-12
-14
-16
-18
-19
-20
-21
-20
-18
-16
-14
-13
-13
-14
-16
-18
-21
-23
-24
-24
-24
-23
-21
-20
-19
-18
-18
-19
-19
-19
-19
-19
-18
-18
-17
-17
-18
-18
-19
-19
-18
-17
-16
-15
-14
-13
-13
-13
-14
-15
-16
-16
-15
-14
-12
-10
-8
-7
-6
-6
-6
-7
-8
-9
-9
-9
-8
-7
-6
-5
-5
-6
-6
-7
-7
-7
-7
-5
-3
-1
1
2
3
3
2
1
-1
-3
-5
-6
-6
-6
-5
-5
-4
-4
-4
-5
-5
-6
-6
-6
-5
-4
-3
-2
-2
-2
-3
-5
-7
-9
-11
-11
-12
-11
-10
-9
-9
-9
-10
-12
-14
-17
-18
-20
-20
-20
-19
-18
-17
-15
-14
-13
-12
-11
-10
-8
-7
-5
-4
-3
-3
-2
-2
-2
-1
0
2
5
7
10
12
13
14
13
11
8
5
1
-1
-3
-5
-5
-5
-4
-3
-3
-2
-3
-5
-7
-10
-13
-16
-18
-21
-22
-23
-24
-24
-25
-25
-26
-27
-28
-28
-28
-28
-27
-27
-26
-26
-26
-26
-26
-27
-28
-28
-28
-28
-27
-26
-25
-22
-19
-12
-2
12
31
55
83
114
146
176
202
220
228
225
211
185
149
107
62
18
-23
-56
-81
-96
-102
-99
-91
-79
-65
-52
-41
-33
-28
-24
-23
-23
-24
-25
-26
-26
-26
-26
-25
-24
-23
-22
-22
-21
-21
-21
-22
-23
-23
-24
-24
-23
-22
-20
-18
-16
-15
-14
-14
-14
-14
-13
-13
-12
-11
-10
-8
-8
-7
-7
-7
-7
-6
-5
-4
-3
-1
0
2
2
3
3
3
3
3
4
5
6
8
9
11
13
14
16
18
20
22
24
27
29
32
34
36
39
41
44
47
50
53
55
57
59
61
63
65
67
70
73
76
79
82
83
85
85
85
85
85
84
84
83
83
82
81
80
79
76
74
71
67
63
58
53
48
43
38
33
28
24
20
17
13
10
7
3
0
-3
-7
-9
-12
-14
-15
-17
-18
-19
-20
-21
-22
-23
-24
-25
-26
-26
-26
-26
-26
-27
-27
-28
-29
-30
-31
-31
-31
-31
-30
-29
-29
-28
-28
-28
-28
-29
-29
-29
-29
-29
-30
-30
-30
-30
-30
-30
-30
-30
-29
-29
-28
-28
-28
-28
-28
-28
-28
-28
-28
-28
-28
-27
-26
-26
-26
-26
-26
-27
-27
-28
-29
-29
-29
-29
-29
-29
-29
-29
-29
-30
-30
-30
-30
-31
-31
-30
-30
-30
-30
-30
-30
-31
-32
-33
-34
-35
-35
-36
-36
-37
-36
-36
-35
-34
-33
-33
-32
-32
-33
-34
-35
-36
-37
-38
-39
-40
-40
-40
-40
-39
-38
-37
-36
-34
-33
-32
-31
-31
-31
-31
-31
-32
-32
-32
-32
-31
-30
-29
-27
-26
-24
-23
-21
-19
-17
-15
-13
-11
-10
-9
-9
-9
-9
-10
-11
-12
-13
-15
-16
-17
-19
-20
-21
-23
-24
-24
-25
-26
-28
-30
-32
-34
-37
-39
-41
-42
-42
-41
-40
-38
-37
-35
-35
-34
-35
-36
-36
-37
-37
-37
-37
-36
-36
-35
-35
-35
-35
-35
-35
-34
-31
-25
-16
-4
13
33
58
86
115
144
170
192
206
211
205
188
161
125
83
40
-3
-41
-71
-92
-103
-106
-101
-91
-78
-65
-53
-44
-37
-32
-29
-28
-27
-26
-25
-24
-24
-23
-23
-23
-23
-24
-24
-24
-23
-23
-23
-22
-22
-22
-22
-21
-21
-19
-18
-16
-15
-13
-12
-11
-11
-11
-11
-11
-11
-10
-9
-8
-7
-5
-4
-4
-3
-3
-2
-2
-1
0
1
3
4
5
6
7
8
9
10
11
13
15
17
20
22
24
26
27
28
29
31
33
36
39
42
45
48
50
52
54
55
56
57
59
62
65
69
74
78
81
84
86
87
87
86
86
86
87
87
88
89
89
89
88
86
84
81
78
74
70
67
63
59
55
51
47
43
39
36
32
28
24
20
16
12
8
5
2
0
-2
-3
-5
-6
-7
-7
-8
-9
-10
-12
-13
-14
-15
-16
-17
-18
-19
-19
-18
-18
-17
-16
-16
-16
-16
-17
-18
-20
-20
-21
-20
-19
-18
-17
-15
-14
-14
-14
-15
-15
-16
-16
-16
-15
-15
-15
-16
-17
-19
-21
-23
-24
-24
-24
-22
-20
-18
-16
-15
-15
-15
-16
-17
-19
-20
-20
-20
-20
-20
-20
-20
-20
-20
-21
-21
-21
-21
-21
-20
-19
-19
-19
-20
-21
-22
-24
-24
-25
-24
-23
-21
-19
-17
-15
-15
-15
-16
-17
-19
-21
-23
-24
-24
-23
-22
-21
-20
-18
-18
-17
-17
-17
-17
-17
-16
-16
-16
-16
-16
-16
-16
-16
-16
-15
-13
-11
-8
-5
-2
0
1
2
2
1
0
-1
-2
-3
-3
-4
-4
-5
-6
-6
-7
-8
-8
-9
-10
-11
-12
-14
-15
-17
-19
-20
-21
-22
-22
-22
-22
-22
-22
-23
-23
-24
-25
-26
-26
-27
-26
-26
-26
-26
-27
-27
-28
-28
-29
-28
-26
-23
-19
-12
-4
7
20
35
53
73
93
113
131
145
155
158
154
142
123
98
68
37
6
-23
-46
-63
-74
-77
-75
-69
-60
-50
-41
-33
-27
-23
-21
-19
-18
-18
-17
-17
-17
-17
-18
-19
-20
-21
-21
-21
-20
-19
-18
-16
-16
-15
-15
-15
-16
-16
-16
-15
-14
-13
-12
-11
-10
-10
-9
-9
-9
-8
-8
-7
-7
-6
-4
-3
-2
-1
0
0
1
1
1
1
2
2
3
4
5
7
9
11
12
14
15
15
16
17
17
19
20
22
25
27
29
30
31
32
34
35
37
39
42
46
49
52
54
55
56
57
58
59
60
62
65
68
70
72
74
74
74
73
72
71
70
69
68
66
65
63
60
56
53
49
45
41
37
34
30
27
23
20
17
14
11
9
6
4
3
1
-1
-3
-4
-6
-7
-8
-9
-9
-10
-11
-12
-14
-15
-17
-18
-19
-20
-20
-20
-19
-18
-18
-17
-16
-15
-15
-14
-14
-14
-13
-13
-13
-13
-14
-14
-14
-14
-15
-15
-15
-15
-16
-16
-17
-18
-18
-19
-19
-18
-18
-17
-16
-15
-15
-14
-14
-14
-14
-14
-15
-15
-15
-14
-14
-14
-14
-13
-13
-12
-11
-10
-9
-8
-7
-6
-6
-7
-8
-10
-12
-14
-15
-15
-15
-15
-14
-13
-12
-11
-12
-12
-14
-15
-16
-18
-18
-18
-18
-17
-16
-14
-13
-12
-12
-11
-11
-10
-10
-9
-9
-8
-8
-8
-8
-7
-7
-7
-6
-6
-4
-3
-2
-1
0
0
0
0
-1
-2
-3
-3
-4
-4
-4
-4
-5
-5
-6
-7
-9
-10
-12
-14
-16
-17
-18
-19
-20
-20
-20
-19
-19
-19
-19
-20
-22
-24
-26
-28
-29
-30
-29
-28
-27
-25
-24
-23
-23
-24
-24
-24
-23
-20
-14
-6
5
19
36
54
73
93
111
128
141
150
152
147
136
117
92
62
32
2
-25
-46
-60
-67
-68
-65
-58
-50
-42
-35
-31
-27
-25
-24
-22
-21
-19
-18
-17
-17
-18
-20
-23
-25
-26
-26
-25
-24
-21
-20
-18
-18
-18
-19
-21
-22
-23
-23
-22
-20
-18
-16
-14
-12
-12
-12
-12
-13
-13
-13
-12
-11
-10
-8
-6
-5
-4
-3
-4
-4
-5
-5
-5
-4
-3
-1
2
4
6
7
8
9
9
8
8
8
9
10
12
14
16
19
22
24
26
28
30
31
33
35
37
39
42
44
47
49
51
53
55
57
59
60
61
62
63
64
64
65
65
65
66
66
66
65
64
63
61
58
54
50
46
43
39
36
34
31
29
26
23
20
16
11
7
3
0
-3
-5
-6
-7
-8
-9
-10
-11
-12
-13
-15
-16
-16
-17
-17
-17
-18
-19
-19
-20
-21
-22
-22
-22
-22
-22
-21
-21
-21
-22
-22
-23
-23
-23
-23
-23
-23
-23
-23
-24
-24
-25
-26
-26
-26
-25
-25
-24
-23
-22
-22
-22
-22
-22
-23
-24
-24
-24
-24
-24
-24
-24
-24
-24
-23
-23
-22
-21
-21
-20
-20
-20
-20
-20
-21
-21
-20
-19
-19
-18
-18
-18
-19
-20
-21
-23
-23
-24
-23
-23
-22
-21
-20
-20
-20
-20
-20
-20
-20
-18
-17
-15
-14
-13
-13
-13
-14
-15
-16
-16
-15
-13
-11
-8
-6
-4
-3
-3
-3
-3
-4
-4
-5
-5
-5
-5
-5
-6
-7
-8
-9
-10
-11
-12
-13
-14
-16
-18
-20
-22
-24
-26
-27
-27
-27
-26
-25
-24
-24
-24
-25
-25
-26
-27
-27
-26
-26
-25
-24
-24
-24
-25
-26
-26
-26
-25
-21
-16
-8
3
16
31
49
67
86
104
121
134
144
147
144
133
116
93
67
38
10
-16
-37
-52
-61
-65
-64
-59
-53
-45
-38
-31
-26
-22
-19
-17
-16
-16
-16
-17
-18
-19
-21
-22
-22
-22
-22
-21
-20
-19
-19
-19
-20
-20
-21
-21
-20
-19
-17
-15
-13
-12
-11
-11
-12
-14
-15
-15
-15
-14
-12
-10
-8
-6
-5
-5
-6
-6
-7
-8
-7
-6
-5
-3
-1
0
1
1
0
-1
-1
-1
0
1
4
6
9
11
13
14
15
16
17
18
20
22
25
28
30
33
35
38
39
41
43
45
48
50
53
55
57
59
61
62
63
64
65
66
67
67
67
66
65
64
62
61
59
57
55
52
49
46
42
38
34
29
25
21
18
15
13
10
7
5
2
-1
-3
-5
-7
-8
-8
-9
-10
-11
-12
-14
-16
-18
-19
-20
-20
-20
-20
-20
-20
-21
-23
-24
-26
-27
-27
-26
-24
-22
-20
-19
-18
-18
-19
-20
-22
-23
-24
-24
-24
-23
-22
-21
-20
-19
-19
-19
-20
-21
-22
-23
-23
-23
-23
-23
-23
-23
-22
-22
-22
-21
-21
-21
-20
-20
-20
-20
-20
-20
-21
-21
-20
-20
-20
-19
-18
-17
-17
-17
-17
-17
-17
-18
-18
-18
-18
-18
-17
-17
-16
-16
-15
-15
-14
-14
-13
-13
-12
-11
-9
-8
-7
-7
-6
-7
-7
-7
-8
-8
-7
-6
-5
-4
-3
-2
-1
-1
-2
-3
-4
-5
-5
-5
-4
-3
-1
0
0
0
-1
-4
-7
-10
-13
-16
-19
-20
-22
-23
-23
-23
-23
-23
-23
-23
-23
-22
-23
-23
-23
-24
-25
-25
-26
-25
-25
-24
-23
-23
-23
-23
-23
-22
-21
-19
-14
-7
3
16
32
49
68
87
105
122
135
144
148
145
136
120
98
73
45
17
-8
-30
-45
-55
-59
-58
-53
-47
-40
-34
-29
-25
-23
-21
-20
-18
-17
-16
-15
-15
-15
-15
-16
-17
-18
-18
-19
-19
-19
-19
-19
-18
-18
-17
-16
-15
-14
-13
-12
-11
-10
-10
-10
-10
-10
-10
-10
-10
-9
-9
-8
-7
-7
-6
-5
-4
-4
-3
-3
-2
-2
-2
-1
0
1
2
4
6
7
9
10
11
12
13
13
14
15
16
17
19
21
24
26
28
29
31
32
33
34
36
38
40
43
46
49
53
55
57
59
60
61
62
63
64
66
67
68
70
70
70
70
68
66
64
62
59
57
54
52
49
47
44
41
38
35
32
28
25
22
18
15
12
9
6
3
1
-1
-3
-5
-6
-7
-8
-9
-9
-10
-10
-10
-10
-10
-9
-10
-10
-11
-11
-12
-14
-15
-15
-16
-16
-17
-17
-16
-16
-16
-16
-16
-15
-16
-16
-16
-17
-17
-18
-19
-19
-19
-19
-18
-17
-17
-16
-16
-16
-16
-16
-17
-17
-18
-17
-17
-16
-16
-15
-14
-14
-14
-14
-15
-15
-14
-14
-13
-12
-12
-11
-11
-12
-13
-14
-15
-16
-17
-18
-18
-18
-18
-17
-17
-17
-18
-18
-18
-18
-17
-17
-16
-14
-14
-13
-12
-12
-13
-13
-14
-15
-15
-16
-16
-16
-17
-17
-17
-17
-17
-17
-17
-17
-16
-16
-15
-15
-14
-14
-14
-14
-15
-15
-15
-15
-15
-14
-13
-12
-11
-10
-9
-8
-7
-7
-7
-6
-6
-6
-5
-5
-4
-3
-2
-2
-2
-3
-3
-4
-6
-7
-8
-9
-10
-10
-10
-11
-11
-13
-14
-17
-19
-22
-24
-26
-27
-28
-27
-27
-26
-25
-25
-25
-25
-26
-26
-27
-26
-26
-25
-24
-24
-24
-24
-26
-27
-28
-28
-26
-22
-16
-6
7
22
39
58
78
97
115
130
142
149
150
145
133
115
92
65
38
10
-14
-34
-48
-57
-61
-60
-57
-51
-45
-39
-34
-30
-27
-25
-24
-23
-22
-22
-22
-22
-22
-22
-22
-21
-21
-20
-19
-19
-19
-19
-20
-20
-21
-21
-21
-20
-20
-19
-19
-18
-18
-17
-17
-16
-15
-15
-14
-13
-13
-13
-13
-13
-13
-13
-13
-12
-11
-10
-8
-7
-6
-5
-4
-3
-2
-2
-1
0
1
1
2
3
4
5
7
9
11
14
17
19
21
23
24
25
25
26
26
27
29
31
34
37
41
45
48
52
55
57
59
60
61
61
62
63
64
66
68
69
71
71
71
70
69
67
64
61
59
56
54
52
50
47
44
41
38
35
31
27
24
20
17
13
10
7
4
2
0
-1
-2
-2
-3
-3
-4
-5
-7
-9
-10
-11
-12
-12
-11
-11
-10
-9
-9
-10
-10
-11
-12
-12
-13
-13
-12
-12
-11
-11
-11
-11
-11
-11
-12
-12
-12
-11
-11
-10
-10
-10
-9
-9
-9
-8
-8
-8
-8
-8
-8
-8
-9
-9
-10
-10
-10
-10
-10
-10
-10
-10
-11
-12
-12
-13
-13
-13
-13
-12
-11
-10
-9
-8
-9
-9
-10
-11
-12
-12
-12
-11
-10
-9
-8
-7
-7
-7
-8
-8
-9
-10
-10
-10
-10
-10
-10
-10
-10
-10
-10
-10
-10
-11
-11
-11
-11
-11
-12
-12
-12
-12
-12
-12
-11
-11
-10
-10
-10
-11
-11
-11
-12
-12
-12
-13
-13
-13
-14
-14
-15
-15
-16
-16
-16
-16
-16
-15
-15
-15
-15
-15
-15
-15
-15
-14
-14
-14
-14
-15
-15
-16
-16
-17
-17
-16
-16
-15
-14
-14
-14
-14
-14
-15
-15
-16
-17
-17
-17
-17
-17
-17
-17
-17
-17
-17
-17
-17
-17
-16
-16
-16
-15
-15
-16
-16
-16
-17
-17
-17
-16
-15
-15
-14
-14
-14
-14
-15
-15
-15
-15
-14
-12
-10
-8
-7
-7
-7
-8
-9
-10
-10
-9
-7
-4
-1
2
5
7
8
7
6
4
1
-1
-3
-4
-4
-4
-4
-3
-3
-3
-3
-4
-5
-7
-9
-11
-13
-15
-17
-18
-19
-19
-19
-18
-17
-17
-17
-17
-18
-19
-20
-20
-21
-21
-20
-20
-19
-19
-19
-19
-20
-21
-22
-23
-23
-23
-21
-17
-13
-6
2
12
25
41
59
78
99
119
137
151
159
162
157
144
126
103
76
49
22
-1
-20
-35
-44
-48
-48
-45
-41
-35
-29
-24
-20
-17
-15
-15
-15
-15
-15
-16
-16
-17
-17
-17
-17
-17
-17
-17
-17
-16
-16
-15
-14
-13
-12
-11
-10
-9
-9
-8
-8
-8
-8
-8
-8
-8
-8
-8
-8
-8
-7
-7
-6
-6
-5
-4
-3
-3
-2
-2
-1
-1
0
0
1
2
3
4
5
5
6
6
7
7
8
9
10
11
13
15
17
20
22
25
27
30
32
35
37
39
41
42
44
45
46
48
50
53
56
59
62
64
67
68
69
70
70
70
69
69
69
70
70
71
71
72
72
71
70
67
65
62
58
55
51
48
44
41
38
35
32
29
25
22
18
15
12
10
7
5
4
3
2
1
0
-1
-2
-3
-4
-5
-6
-6
-7
-7
-7
-7
-7
-7
-8
-8
-9
-10
-11
-12
-12
-12
-12
-11
-10
-10
-9
-9
-10
-10
-11
-11
-12
-12
-12
-13
-13
-14
-14
-15
-15
-15
-15
-15
-15
-14
-14
-14
-14
-15
-15
-16
-16
-16
-16
-15
-14
-13
-12
-12
-12
-12
-13
-14
-14
-15
-16
-16
-16
-16
-16
-16
-16
-16
-15
-15
-15
-14
-14
-13
-13
-13
-13
-13
-13
-13
-13
-14
-15
-15
-16
-16
-16
-16
-16
-16
-16
-15
-15
-14
-14
-14
-13
-13
-13
-13
-14
-14
-15
-16
-17
-17
-18
-18
-18
-18
-18
-18
-17
-17
-17
-17
-16
-16
-16
-16
-16
-16
-16
-17
-17
-18
-18
-18
-18
-17
-17
-16
-16
-16
-16
-16
-17
-18
-18
-19
-19
-18
-18
-17
-16
-16
-16
-16
-17
-17
-17
-17
-17
-16
-16
-16
-17
-17
-19
-20
-21
-23
-23
-23
-23
-22
-21
-20
-19
-19
-19
-19
-19
-19
-19
-19
-19
-19
-19
-19
-19
-19
-19
-20
-20
-20
-20
-20
-20
-19
-18
-17
-16
-15
-14
-12
-11
-11
-10
-10
-10
-10
-9
-8
-7
-5
-3
-1
0
1
1
0
-1
-2
-3
-5
-6
-6
-7
-7
-7
-7
-8
-8
-9
-10
-11
-12
-13
-14
-14
-15
-15
-15
-16
-16
-17
-18
-19
-20
-21
-22
-22
-21
-21
-20
-19
-19
-19
-20
-21
-22
-23
-23
-24
-23
-23
-22
-21
-21
-21
-21
-22
-23
-23
-21
-18
-12
-4
7
21
38
57
76
96
116
133
147
156
159
155
144
126
103
76
47
19
-5
-25
-40
-48
-51
-50
-46
-41
-35
-30
-26
-23
-21
-20
-19
-18
-17
-17
-17
-17
-17
-17
-17
-17
-16
-16
-16
-16
-16
-16
-16
-16
-16
-15
-14
-13
-12
-12
-12
-12
-13
-14
-14
-14
-13
-11
-9
-6
-4
-2
-1
0
-1
-2
-3
-3
-3
-3
-2
-1
0
1
2
3
4
4
4
4
5
5
6
7
8
9
11
13
15
18
20
23
25
28
30
32
34
35
37
39
41
43
44
46
48
50
52
55
57
60
63
66
68
70
72
73
74
75
76
77
78
79
79
78
77
75
73
72
70
69
67
66
65
63
60
56
51
46
41
36
31
28
25
23
21
19
17
15
13
10
8
6
5
4
3
3
1
0
-2
-4
-6
-7
-8
-8
-7
-6
-5
-4
-4
-5
-6
-7
-9
-10
-11
-12
-12
-12
-12
-12
-12
-13
-13
-14
-14
-14
-13
-13
-12
-12
-12
-13
-14
-15
-16
-16
-17
-16
-15
-14
-13
-12
-11
-11
-12
-13
-15
-16
-16
-16
-15
-14
-13
-11
-10
-10
-10
-11
-11
-12
-13
-13
-13
-12
-12
-12
-12
-12
-13
-14
-14
-14
-14
-13
-12
-12
-11
-10
-10
-11
-11
-11
-11
-11
-11
-10
-9
-9
-9
-10
-11
-12
-14
-15
-15
-15
-15
-15
-15
-15
-15
-16
-16
-17
-17
-16
-15
-13
-11
-10
-9
-9
-9
-11
-13
-15
-17
-18
-19
-19
-18
-17
-16
-15
-14
-14
-15
-15
-16
-16
-16
-16
-15
-15
-14
-14
-13
-13
-14
-14
-15
-15
-15
-15
-15
-15
-14
-14
-14
-14
-15
-16
-17
-17
-18
-19
-19
-19
-18
-18
-17
-17
-16
-16
-16
-16
-16
-16
-17
-17
-17
-17
-18
-18
-18
-18
-19
-19
-19
-19
-19
-19
-19
-19
-18
-18
-18
-17
-17
-17
-17
-17
-17
-18
-19
-20
-20
-21
-21
-20
-20
-19
-18
-16
-16
-15
-15
-15
-16
-16
-17
-18
-18
-18
-18
-17
-17
-16
-15
-14
-14
-13
-12
-12
-11
-11
-10
-9
-8
-7
-6
-4
-3
-1
0
1
1
2
2
2
2
2
1
1
1
0
0
-1
-2
-3
-5
-6
-7
-8
-10
-11
-12
-14
-15
-16
-17
-18
-19
-18
-18
-17
-17
-16
-16
-16
-17
-17
-18
-18
-19
-19
-18
-18
-18
-19
-19
-21
-22
-23
-24
-24
-23
-22
-21
-19
-18
-16
-14
-10
-4
4
16
31
49
69
90
111
129
144
153
156
153
144
128
108
84
58
32
7
-15
-32
-44
-51
-52
-50
-45
-38
-31
-25
-21
-17
-15
-14
-13
-13
-12
-11
-10
-10
-10
-10
-11
-12
-13
-14
-14
-14
-13
-12
-11
-10
-10
-9
-9
-9
-9
-8
-8
-7
-7
-6
-6
-5
-5
-5
-5
-4
-4
-3
-3
-2
-1
-1
-1
-1
-1
0
0
1
2
3
5
6
7
8
8
8
8
7
7
8
9
10
12
14
16
18
20
21
23
25
26
28
30
32
34
36
39
41
44
47
50
52
55
57
60
62
64
65
67
68
69
69
70
70
70
70
70
71
71
72
73
74
75
75
74
72
69
66
62
57
53
49
46
43
40
38
36
33
30
26
23
19
16
13
11
9
7
6
5
4
2
1
-1
-3
-5
-7
-9
-10
-10
-11
-10
-9
-9
-8
-8
-8
-9
-10
-11
-12
-13
-14
-14
-13
-13
-12
-11
-11
-11
-12
-12
-13
-14
-14
-14
-14
-14
-14
-13
-13
-13
-13
-13
-13
-13
-13
-14
-14
-14
-14
-14
-14
-14
-14
-14
-14
-14
-14
-14
-13
-12
-11
-10
-9
-8
-8
-7
-7
-7
-8
-8
-9
-9
-9
-9
-8
-7
-5
-5
-4
-4
-5
-5
-6
-7
-8
-8
-8
-7
-6
-6
-6
-6
-7
-8
-9
-9
-9
-9
-8
-7
-7
-6
-6
-6
-7
-8
-9
-10
-11
-12
-11
-11
-10
-9
-8
-7
-7
-7
-7
-8
-9
-10
-11
-12
-13
-13
-13
-12
-12
-11
-10
-10
-11
-11
-12
-13
-13
-13
-13
-13
-12
-11
-11
-11
-11
-12
-12
-13
-13
-14
-13
-13
-13
-12
-12
-12
-12
-13
-13
-14
-15
-15
-15
-15
-15
-15
-15
-15
-15
-15
-14
-14
-14
-14
-14
-14
-14
-14
-14
-14
-14
-13
-13
-12
-12
-11
-11
-12
-12
-13
-14
-14
-14
-14
-14
-14
-14
-14
-13
-13
-14
-14
-14
-14
-14
-15
-15
-15
-15
-15
-15
-15
-15
-15
-15
-15
-14
-13
-13
-12
-11
-11
-12
-12
-13
-14
-15
-15
-15
-15
-14
-13
-12
-10
-9
-8
-8
-7
-8
-8
-8
-8
-8
-7
-6
-5
-3
-1
0
1
3
3
4
5
5
5
5
5
4
2
1
-1
-3
-4
-5
-5
-5
-5
-4
-4
-5
-6
-8
-11
-13
-16
-18
-20
-20
-20
-20
-19
-19
-18
-19
-19
-20
-21
-21
-22
-22
-22
-22
-22
-22
-22
-22
-22
-22
-22
-22
-22
-23
-23
-24
-23
-22
-18
-13
-5
7
21
38
56
76
96
115
132
145
153
156
152
141
124
101
74
45
17
-9
-30
-46
-55
-58
-57
-51
-44
-36
-30
-25
-22
-20
-19
-19
-18
-17
-16
-15
-15
-14
-14
-15
-16
-16
-17
-16
-15
-14
-13
-12
-11
-11
-11
-12
-13
-14
-15
-15
-14
-13
-12
-11
-9
-8
-8
-7
-6
-6
-5
-4
-3
-2
-1
-1
0
0
-1
-1
-1
-1
-2
-1
-1
0
0
1
3
4
6
8
9
11
12
13
14
15
15
16
17
18
19
21
23
25
28
30
32
35
37
39
41
43
45
48
50
52
55
57
60
62
64
66
68
69
70
71
72
73
74
75
76
76
76
75
73
71
69
66
64
63
61
59
57
54
50
46
41
37
33
29
26
23
21
19
16
13
10
7
4
2
0
-2
-3
-4
-5
-6
-7
-8
-10
-11
-12
-12
-12
-11
-11
-11
-11
-12
-13
-13
-14
-14
-14
-13
-13
-13
-12
-13
-14
-15
-16
-17
-18
-18
-17
-17
-16
-15
-15
-16
-16
-17
-18
-18
-18
-18
-17
-17
-16
-15
-14
-14
-14
-14
-14
-14
-14
-13
-13
-13
-13
-14
-14
-14
-14
-14
-14
-13
-13
-12
-11
-11
-11
-11
-11
-12
-13
-14
-14
-14
-14
-14
-13
-12
-11
-10
-9
-8
-8
-8
-9
-9
-10
-11
-12
-13
-13
-13
-12
-12
-12
-11
-11
-11
-12
-13
-13
-14
-15
-15
-15
-15
-15
-14
-13
-13
-12
-12
-13
-13
-14
-15
-15
-16
-16
-16
-16
-16
-16
-16
-17
-17
-17
-17
-17
-17
-16
-16
-15
-15
-15
-16
-16
-17
-18
-19
-20
-20
-20
-19
-19
-18
-17
-17
-16
-16
-16
-16
-16
-16
-15
-15
-15
-15
-15
-16
-17
-18
-19
-20
-20
-20
-19
-18
-17
-16
-16
-16
-16
-16
-15
-15
-14
-14
-13
-13
-13
-13
-14
-15
-16
-17
-18
-18
-18
-18
-17
-16
-16
-15
-15
-14
-14
-15
-15
-16
-16
-17
-18
-18
-18
-18
-18
-17
-16
-15
-15
-14
-15
-16
-17
-18
-19
-20
-20
-19
-18
-17
-16
-15
-15
-14
-15
-15
-15
-16
-15
-15
-14
-13
-13
-13
-14
-14
-15
-16
-17
-17
-17
-16
-15
-13
-12
-11
-11
-11
-11
-12
-13
-13
-13
-12
-11
-9
-7
-5
-3
-1
1
2
4
5
6
7
7
6
6
5
4
3
2
2
1
1
1
0
0
-1
-2
-3
-4
-6
-8
-10
-12
-13
-15
-16
-17
-17
-18
-18
-18
-18
-18
-18
-18
-19
-19
-19
-19
-19
-19
-18
-17
-17
-17
-17
-18
-19
-20
-20
-21
-21
-20
-18
-14
-8
0
10
23
40
58
79
100
121
139
153
162
165
160
148
129
106
79
51
24
0
-21
-37
-47
-51
-51
-48
-41
-34
-27
-21
-16
-13
-12
-12
-12
-13
-13
-12
-12
-10
-9
-8
-8
-8
-8
-9
-10
-10
-11
-10
-9
-8
-7
-7
-6
-6
-6
-6
-6
-5
-4
-3
-1
0
1
1
1
0
-1
-2
-2
-2
-1
1
2
4
6
7
7
7
8
8
9
9
10
12
13
13
14
14
14
14
14
15
16
18
20
23
25
26
28
29
30
31
33
35
38
40
44
47
49
52
54
56
57
59
60
62
63
65
67
69
70
72
73
74
76
78
79
81
82
83
83
82
81
79
76
74
72
69
67
65
63
60
57
54
50
46
41
36
32
27
24
20
18
15
14
12
11
9
7
5
3
1
-2
-4
-6
-7
-8
-8
-8
-7
-7
-6
-6
-6
-7
-8
-9
-10
-10
-10
-10
-10
-11
-11
-12
-13
-14
-15
-16
-16
-15
-14
-12
-11
-9
-8
-8
-9
-11
-13
-15
-17
-18
-18
-17
-15
-13
-10
-8
-7
-6
-7
-7
-8
-9
-10
-11
-11
-11
-11
-11
-11
-10
-10
-10
-10
-10
-10
-9
-9
-8
-8
-8
-7
-7
-7
-7
-7
-7
-7
-8
-8
-9
-9
-10
-10
-11
-11
-11
-11
-11
-11
-10
-10
-10
-10
-10
-10
-11
-11
-12
-12
-12
-12
-12
-13
-13
-13
-13
-13
-12
-12
-12
-12
-12
-12
-13
-13
-13
-13
-13
-13
-12
-12
-11
-11
-10
-10
-10
-10
-11
-12
-13
-14
-15
-16
-17
-18
-18
-17
-17
-16
-16
-16
-16
-16
-17
-17
-17
-17
-17
-16
-16
-16
-16
-17
-18
-19
-21
-22
-22
-22
-22
-21
-19
-18
-17
-17
-17
-18
-19
-20
-20
-21
-21
-20
-20
-19
-18
-18
-18
-19
-19
-20
-20
-21
-21
-21
-21
-20
-19
-19
-18
-17
-17
-17
-17
-17
-18
-18
-19
-19
-19
-19
-19
-18
-18
-18
-17
-18
-18
-19
-19
-20
-20
-19
-19
-18
-17
-16
-15
-15
-15
-15
-16
-16
-17
-17
-17
-17
-17
-17
-17
-16
-16
-16
-16
-16
-16
-15
-14
-13
-12
-11
-10
-10
-9
-8
-7
-5
-3
-1
1
3
5
6
6
5
3
1
-1
-3
-4
-5
-5
-4
-3
-2
-1
-1
-2
-4
-6
-9
-12
-15
-18
-20
-22
-22
-22
-21
-20
-19
-18
-18
-18
-18
-19
-20
-21
-22
-22
-23
-23
-23
-23
-23
-23
-23
-23
-23
-23
-21
-19
-16
-10
-2
9
22
37
54
73
91
110
126
139
147
150
146
135
117
94
67
38
10
-15
-36
-51
-60
-64
-62
-57
-49
-42
-34
-28
-24
-21
-19
-18
-18
-18
-18
-18
-18
-18
-18
-18
-18
-17
-16
-16
-15
-14
-14
-13
-13
-13
-14
-14
-13
-13
-12
-11
-10
-9
-9
-8
-8
-8
-8
-7
-7
-6
-5
-4
-4
-3
-3
-2
-2
-2
-2
-1
-1
0
1
2
3
4
5
6
7
7
8
9
10
11
12
14
15
15
16
17
18
19
21
23
25
28
30
33
35
36
37
38
40
41
44
47
50
54
57
61
63
65
66
66
67
67
69
70
72
74
76
77
78
78
77
76
74
73
72
70
69
68
66
63
60
56
52
47
43
39
35
32
29
26
24
22
19
17
15
12
10
8
5
3
1
-1
-3
-5
-6
-7
-7
-7
-7
-7
-7
-7
-7
-8
-8
-9
-10
-11
-12
-12
-13
-13
-13
-13
-13
-13
-13
-13
-13
-13
-14
-14
-14
-14
-15
-15
-16
-16
-16
-16
-15
-14
-14
-13
-12
-11
-11
-11
-11
-12
-12
-12
-11
-11
-10
-9
-8
-8
-7
-7
-8
-8
-9
-10
-11
-11
-11
-11
-11
-11
-10
-10
-9
-9
-8
-8
-7
-6
-6
-5
-5
-5
-5
-6
-7
-7
-8
-9
-9
-9
-8
-8
-8
-8
-8
-9
-10
-11
-13
-13
-14
-13
-13
-12
-10
-10
-9
-9
-10
-11
-11
-12
-12
-11
-11
-10
-10
-10
-11
-12
-13
-14
-15
-15
-14
-14
-13
-12
-11
-11
-11
-12
-13
-14
-15
-15
-15
-15
-15
-15
-14
-14
-14
-14
-14
-14
-13
-13
-13
-14
-14
-15
-16
-17
-18
-18
-19
-19
-19
-19
-18
-17
-16
-16
-15
-15
-15
-15
-15
-16
-16
-17
-18
-18
-18
-18
-18
-18
-18
-17
-17
-17
-17
-17
-17
-17
-17
-17
-17
-17
-17
-18
-18
-18
-18
-18
-17
-17
-17
-16
-16
-16
-16
-16
-16
-17
-17
-17
-18
-18
-18
-18
-18
-18
-18
-18
-18
-18
-17
-17
-16
-15
-15
-15
-15
-15
-16
-17
-18
-19
-19
-19
-19
-18
-17
-16
-14
-13
-12
-12
-12
-13
-14
-15
-16
-17
-18
-18
-17
-16
-15
-13
-11
-10
-9
-8
-8
-8
-8
-9
-9
-10
-10
-9
-9
-8
-6
-4
-2
0
2
4
5
6
6
6
6
5
3
2
1
1
0
0
-1
-1
-2
-3
-5
-6
-7
-9
-10
-10
-11
-12
-13
-13
-14
-15
-16
-17
-18
-18
-18
-17
-16
-15
-15
-14
-14
-15
-15
-16
-17
-18
-18
-18
-17
-16
-14
-11
-6
0
9
21
35
52
71
90
110
127
142
152
156
154
144
128
107
81
53
26
0
-22
-39
-50
-56
-56
-53
-47
-41
-34
-28
-23
-20
-18
-17
-16
-15
-14
-13
-12
-11
-11
-11
-11
-12
-12
-12
-12
-12
-11
-10
-9
-9
-9
-10
-11
-12
-13
-14
-14
-13
-11
-9
-7
-5
-4
-3
-3
-3
-4
-5
-5
-4
-3
-2
0
2
3
5
6
6
6
5
5
4
5
5
6
8
9
11
12
13
14
14
15
15
16
17
18
20
23
26
28
31
33
34
35
36
37
38
40
42
45
48
51
54
57
60
63
65
67
69
70
71
71
72
72
73
73
74
75
76
77
78
78
78
77
76
74
72
69
67
64
61
59
56
53
49
45
41
36
32
28
25
23
21
20
18
17
14
12
9
6
3
1
-1
-2
-3
-3
-3
-3
-3
-4
-5
-6
-7
-8
-8
-8
-7
-7
-7
-8
-8
-9
-10
-11
-12
-13
-13
-13
-13
-13
-13
-13
-13
-13
-13
-13
-12
-12
-12
-12
-12
-12
-12
-12
-12
-13
-13
-12
-12
-11
-10
-9
-8
-7
-7
-7
-7
-8
-8
-9
-10
-11
-12
-12
-13
-12
-12
-12
-11
-11
-10
-10
-9
-9
-10
-10
-10
-11
-11
-11
-11
-11
-11
-10
-9
-9
-9
-9
-9
-10
-10
-10
-10
-10
-10
-10
-10
-11
-12
-13
-14
-15
-16
-16
-15
-14
-13
-12
-12
-11
-11
-11
-12
-12
-12
-12
-12
-12
-12
-12
-13
-14
-16
-17
-18
-19
-19
-18
-17
-16
-15
-14
-14
-14
-14
-14
-15
-16
-16
-16
-16
-16
-15
-15
-15
-15
-15
-15
-15
-15
-15
-15
-16
-16
-16
-17
-17
-18
-18
-18
-18
-17
-17
-17
-17
-17
-17
-18
-18
-18
-18
-18
-17
-17
-16
-16
-16
-16
-17
-17
-18
-18
-18
-18
-18
-17
-17
-16
-17
-17
-17
-18
-18
-17
-17
-16
-15
-15
-14
-14
-15
-16
-18
-19
-20
-21
-21
-20
-19
-18
-18
-17
-17
-17
-18
-18
-19
-20
-20
-19
-19
-18
-17
-16
-15
-15
-15
-14
-14
-14
-14
-14
-14
-14
-14
-15
-16
-17
-18
-18
-19
-19
-19
-18
-17
-15
-14
-13
-12
-11
-11
-11
-10
-10
-10
-10
-10
-9
-9
-8
-7
-5
-4
-2
-1
0
2
3
4
5
6
7
8
8
7
7
6
4
3
1
0
-2
-3
-4
-4
-5
-5
-6
-6
-7
-8
-10
-12
-15
-17
-19
-20
-21
-20
-19
-18
-17
-16
-15
-16
-17
-18
-20
-21
-21
-20
-20
-19
-18
-18
-18
-18
-18
-16
-12
-5
5
19
35
54
74
93
112
128
141
149
153
150
142
127
105
80
51
22
-6
-30
-48
-59
-64
-62
-57
-49
-41
-34
-28
-24
-22
-20
-19
-18
-17
-15
-13
-12
-11
-10
-11
-12
-12
-13
-13
-13
-12
-11
-11
-10
-10
-10
-10
-10
-11
-11
-10
-10
-10
-9
-9
-9
-8
-8
-8
-7
-6
-6
-5
-5
-4
-4
-4
-3
-2
-1
0
1
2
4
5
5
6
6
6
7
7
8
8
9
10
11
12
13
14
15
16
17
19
20
22
23
25
27
30
32
34
37
40
43
46
48
51
53
55
57
58
59
61
63
64
66
68
70
71
72
73
74
74
74
74
74
74
74
74
74
74
73
72
70
68
66
63
60
56
52
49
44
40
36
32
28
25
22
19
17
15
14
12
11
10
8
6
3
0
-3
-5
-7
-9
-9
-10
-9
-9
-9
-9
-9
-10
-10
-10
-10
-10
-10
-10
-9
-10
-10
-11
-13
-14
-15
-16
-16
-15
-14
-13
-12
-11
-10
-9
-9
-9
-10
-11
-11
-12
-13
-13
-13
-12
-12
-11
-11
-10
-10
-10
-10
-11
-11
-12
-13
-13
-13
-13
-13
-13
-13
-13
-13
-12
-12
-11
-10
-10
-9
-9
-10
-11
-11
-12
-13
-13
-13
-13
-12
-12
-11
-10
-10
-10
-11
-11
-12
-12
-12
-12
-12
-12
-11
-11
-11
-11
-12
-12
-12
-13
-13
-13
-13
-13
-13
-13
-14
-15
-16
-17
-17
-18
-18
-18
-18
-17
-16
-16
-15
-15
-16
-16
-17
-17
-18
-18
-18
-18
-17
-17
-17
-17
-17
-18
-18
-18
-18
-18
-18
-17
-17
-17
-17
-17
-17
-17
-17
-17
-18
-18
-18
-18
-18
-18
-18
-19
-19
-19
-18
-18
-18
-17
-17
-17
-17
-17
-18
-18
-19
-19
-19
-19
-18
-18
-17
-17
-17
-18
-18
-18
-19
-19
-19
-19
-19
-19
-19
-19
-19
-19
-20
-21
-21
-22
-22
-22
-22
-21
-21
-20
-19
-19
-19
-18
-18
-18
-18
-18
-18
-18
-18
-18
-18
-18
-18
-18
-18
-18
-19
-18
-18
-17
-16
-15
-14
-13
-12
-12
-12
-12
-12
-12
-11
-11
-10
-8
-7
-5
-3
-2
-1
-1
0
0
0
0
0
0
0
0
-1
-1
-2
-2
-2
-1
0
0
1
1
0
-1
-4
-6
-9
-12
-14
-15
-16
-16
-17
-16
-16
-17
-17
-18
-19
-20
-21
-22
-22
-23
-23
-23
-23
-23
-22
-22
-21
-20
-19
-19
-19
-20
-21
-22
-22
-21
-19
-14
-7
3
15
30
47
65
84
102
120
134
145
150
149
141
125
104
77
47
17
-11
-35
-53
-64
-69
-68
-63
-56
-47
-39
-32
-26
-22
-20
-18
-17
-16
-16
-15
-14
-13
-13
-12
-11
-11
-12
-12
-13
-14
-15
-16
-16
-15
-14
-12
-10
-7
-5
-4
-3
-3
-4
-5
-6
-7
-8
-9
-8
-8
-7
-5
-4
-3
-1
-1
0
0
1
1
1
2
3
3
4
4
4
4
4
4
5
6
7
9
11
14
16
18
19
20
21
21
22
22
23
24
26
29
32
36
39
43
46
49
51
54
55
57
59
60
61
62
64
65
66
67
69
71
73
75
77
79
80
81
81
81
80
79
78
77
75
74
72
70
68
65
62
58
54
50
45
42
38
35
32
28
25
22
19
16
13
10
8
6
4
2
1
-1
-2
-4
-5
-6
-7
-8
-8
-9
-9
-10
-11
-12
-13
-14
-15
-16
-15
-15
-14
-13
-12
-11
-11
-11
-11
-12
-13
-14
-15
-16
-16
-15
-15
-14
-14
-13
-13
-13
-14
-14
-14
-15
-15
-15
-14
-14
-14
-13
-13
-13
-13
-13
-14
-14
-13
-13
-12
-12
-11
-11
-10
-10
-10
-10
-10
-10
-10
-10
-10
-11
-11
-12
-12
-13
-13
-13
-13
-12
-11
-10
-10
-10
-10
-11
-12
-13
-14
-15
-15
-15
-14
-13
-13
-12
-12
-13
-14
-15
-16
-16
-17
-16
-16
-15
-14
-13
-13
-13
-13
-14
-15
-16
-17
-18
-19
-20
-20
-19
-19
-17
-16
-15
-15
-14
-15
-15
-16
-17
-18
-19
-19
-18
-18
-18
-18
-18
-19
-20
-21
-22
-22
-22
-21
-20
-18
-17
-16
-15
-15
-15
-16
-17
-17
-18
-18
-19
-19
-19
-19
-18
-18
-18
-18
-17
-17
-17
-16
-16
-17
-17
-17
-18
-18
-18
-19
-19
-19
-19
-19
-19
-18
-18
-17
-17
-16
-16
-16
-16
-17
-17
-18
-18
-18
-17
-17
-16
-15
-15
-14
-14
-14
-14
-14
-14
-14
-14
-13
-12
-11
-10
-8
-7
-7
-6
-5
-5
-4
-2
-1
1
2
4
5
5
6
5
5
4
3
2
1
0
0
-1
-1
-2
-2
-3
-4
-4
-5
-6
-7
-8
-9
-10
-12
-15
-17
-19
-21
-22
-22
-22
-21
-20
-19
-18
-17
-17
-18
-19
-20
-21
-22
-22
-22
-22
-21
-20
-20
-19
-19
-19
-19
-17
-15
-10
-3
6
17
32
48
66
85
103
121
135
146
150
148
140
124
102
75
46
17
-10
-32
-50
-61
-65
-65
-61
-54
-46
-38
-31
-25
-21
-19
-17
-17
-17
-16
-16
-16
-15
-14
-14
-13
-12
-12
-12
-12
-12
-12
-12
-12
-12
-12
-11
-11
-10
-10
-10
-9
-9
-9
-8
-7
-6
-5
-4
-4
-4
-4
-5
-5
-6
-6
-5
-4
-3
-1
1
3
4
5
5
5
5
4
4
5
5
6
8
9
11
12
14
15
16
17
18
19
20
21
22
24
26
28
30
33
35
37
39
41
43
45
47
49
51
53
56
59
62
65
68
70
72
74
75
76
76
76
76
76
76
76
77
77
78
77
76
75
72
70
66
63
59
56
52
49
46
43
40
37
33
30
26
22
19
16
13
10
9
7
6
5
4
3
1
-1
-3
-4
-6
-8
-9
-9
-9
-9
-9
-9
-9
-10
-11
-12
-13
-14
-15
-16
-17
-17
-17
-17
-16
-16
-15
-15
-15
-15
-16
-16
-16
-16
-16
-16
-15
-14
-13
-12
-12
-11
-11
-10
-10
-10
-10
-10
-9
-9
-9
-9
-9
-10
-10
-11
-11
-12
-12
-12
-12
-12
-12
-12
-12
-12
-12
-11
-11
-11
-11
-11
-11
-10
-10
-10
-9
-9
-9
-10
-10
-11
-11
-12
-12
-12
-12
-12
-11
-10
-10
-10
-10
-11
-12
-13
-14
-15
-16
-16
-16
-16
-16
-16
-16
-16
-16
-17
-17
-18
-18
-17
-17
-16
-16
-15
-15
-15
-15
-15
-15
-16
-16
-16
-15
-15
-15
-15
-15
-15
-15
-16
-17
-17
-18
-18
-19
-19
-19
-19
-19
-19
-19
-19
-19
-20
-20
-20
-20
-20
-19
-18
-18
-17
-17
-17
-17
-18
-19
-21
-22
-23
-23
-23
-23
-22
-21
-20
-19
-18
-18
-18
-18
-18
-19
-20
-20
-20
-20
-20
-19
-19
-18
-18
-18
-18
-18
-19
-20
-21
-22
-22
-22
-21
-20
-19
-17
-16
-15
-15
-15
-15
-15
-15
-15
-15
-14
-13
-12
-11
-10
-9
-8
-7
-5
-4
-2
0
1
2
3
4
3
2
1
0
-1
-2
-2
-3
-3
-3
-3
-4
-5
-6
-7
-8
-9
-10
-11
-12
-13
-14
-15
-16
-18
-19
-20
-21
-21
-21
-21
-21
-21
-21
-21
-21
-21
-21
-21
-20
-20
-20
-20
-20
-21
-21
-22
-23
-22
-19
-14
-7
3
16
32
49
68
87
105
122
136
145
149
147
138
122
100
73
44
14
-13
-36
-53
-64
-68
-67
-63
-56
-48
-40
-33
-28
-23
-20
-18
-16
-15
-15
-15
-16
-16
-17
-18
-18
-18
-17
-15
-14
-12
-11
-11
-11
-13
-14
-16
-17
-17
-16
-14
-12
-10
-8
-6
-6
-5
-6
-6
-6
-7
-6
-5
-4
-3
-1
0
0
0
0
0
0
1
2
3
4
5
6
7
7
8
8
8
8
9
11
12
14
15
17
18
19
20
21
22
23
26
28
31
34
37
40
42
44
46
47
49
50
52
54
57
60
63
65
67
69
69
69
70
70
70
72
73
75
77
79
79
79
77
75
72
69
66
63
61
59
58
56
53
49
45
41
36
32
28
25
23
22
20
19
17
14
11
8
4
1
-1
-3
-4
-4
-4
-5
-5
-6
-6
-8
-9
-10
-11
-13
-13
-14
-15
-15
-15
-15
-14
-14
-13
-13
-12
-12
-12
-13
-13
-14
-14
-14
-14
-14
-13
-13
-13
-13
-13
-13
-14
-14
-14
-15
-15
-15
-14
-14
-13
-13
-12
-11
-11
-10
-10
-10
-10
-10
-10
-11
-11
-12
-12
-12
-13
-13
-13
-13
-13
-13
-13
-13
-13
-12
-12
-11
-10
-10
-9
-8
-7
-7
-7
-7
-8
-9
-11
-12
-13
-14
-14
-14
-14
-14
-14
-14
-14
-14
-14
-14
-14
-14
-13
-12
-12
-11
-11
-12
-13
-15
-16
-18
-19
-20
-19
-19
-17
-16
-14
-13
-13
-13
-13
-14
-16
-17
-18
-18
-18
-17
-16
-15
-15
-15
-15
-16
-16
-17
-18
-18
-18
-18
-18
-18
-17
-17
-17
-18
-18
-18
-18
-18
-18
-18
-18
-17
-17
-17
-17
-17
-18
-18
-18
-19
-19
-19
-20
-20
-19
-19
-19
-18
-18
-17
-17
-16
-16
-16
-16
-16
-16
-16
-15
-15
-15
-16
-16
-16
-17
-17
-18
-18
-18
-18
-17
-16
-15
-13
-11
-9
-7
-6
-5
-5
-5
-5
-5
-5
-5
-4
-3
-2
0
1
2
2
3
2
2
2
1
1
1
2
2
3
3
2
2
0
-1
-2
-4
-5
-6
-8
-9
-11
-13
-14
-16
-17
-17
-17
-16
-16
-15
-15
-16
-17
-18
-19
-20
-21
-21
-20
-19
-18
-18
-18
-19
-20
-22
-22
-21
-18
-12
-4
6
18
33
49
67
85
104
121
136
147
153
152
143
127
104
77
47
16
-11
-34
-52
-63
-68
-68
-64
-57
-50
-42
-34
-28
-23
-19
-16
-15
-14
-14
-14
-15
-15
-16
-16
-16
-16
-15
-15
-14
-14
-13
-13
-13
-13
-13
-13
-13
-13
-13
-13
-12
-11
-10
-8
-7
-6
-5
-4
-4
-5
-6
-7
-7
-7
-7
-7
-6
-5
-4
-3
-2
-1
0
1
2
3
4
5
6
7
7
8
9
10
11
13
15
17
19
20
21
21
21
21
22
23
25
27
30
33
35
37
39
41
42
44
46
49
52
55
58
61
63
65
66
67
68
69
70
71
71
72
73
73
73
72
72
72
71
71
71
70
68
66
63
59
54
49
45
40
36
32
29
26
24
22
20
18
16
14
12
10
8
5
1
-2
-5
-8
-10
-11
-11
-10
-8
-7
-6
-5
-6
-8
-10
-12
-14
-16
-17
-18
-18
-17
-17
-17
-18
-18
-19
-20
-20
-20
-20
-19
-18
-17
-17
-17
-17
-17
-17
-17
-16
-16
-16
-16
-16
-16
-16
-17
-17
-16
-16
-15
-14
-13
-13
-13
-14
-15
-16
-18
-19
-19
-18
-17
-16
-14
-13
-12
-12
-12
-13
-14
-14
-15
-15
-16
-16
-16
-16
-16
-16
-17
-17
-17
-16
-16
-15
-14
-14
-13
-13
-14
-14
-15
-15
-16
-16
-17
-18
-18
-19
-19
-20
-20
-20
-19
-19
-18
-18
-17
-17
-18
-18
-19
-20
-20
-20
-20
-20
-19
-18
-18
-18
-18
-19
-20
-22
-23
-24
-24
-23
-22
-20
-18
-17
-16
-16
-16
-18
-20
-22
-23
-24
-24
-23
-21
-18
-16
-15
-14
-14
-15
-16
-18
-20
-21
-22
-22
-22
-22
-21
-21
-21
-21
-22
-22
-23
-23
-23
-23
-23
-22
-22
-21
-20
-19
-18
-17
-17
-17
-18
-19
-20
-22
-23
-24
-24
-23
-23
-21
-20
-19
-18
-17
-16
-16
-16
-16
-16
-16
-16
-16
-15
-15
-14
-13
-12
-10
-8
-6
-4
-2
0
1
2
2
1
0
-1
-2
-3
-3
-4
-4
-5
-5
-6
-6
-7
-9
-10
-11
-13
-14
-15
-16
-17
-18
-19
-20
-20
-21
-21
-22
-22
-22
-22
-22
-21
-21
-20
-20
-19
-19
-19
-20
-21
-22
-24
-24
-24
-22
-19
-14
-7
3
14
28
44
61
79
97
115
131
143
150
150
144
130
109
83
54
25
-4
-29
-48
-62
-69
-71
-68
-62
-54
-45
-37
-30
-24
-19
-16
-15
-15
-15
-16
-18
-18
-19
-19
-18
-18
-17
-16
-15
-14
-14
-14
-14
-13
-12
-11
-10
-9
-8
-8
-8
-9
-10
-11
-11
-11
-11
-10
-8
-7
-5
-4
-3
-2
-2
-2
-1
-1
-1
-1
-1
0
0
1
2
3
5
7
8
10
11
12
13
13
14
14
15
16
18
20
22
25
27
28
29
30
31
32
33
35
37
40
42
45
48
50
52
54
56
59
62
65
68
71
73
74
75
75
75
75
74
75
75
77
78
79
80
80
79
78
76
73
70
67
65
63
60
57
54
51
47
42
38
34
30
27
24
22
19
17
14
12
10
7
6
4
3
2
1
0
-1
-3
-5
-6
-8
-9
-10
-11
-11
-12
-12
-12
-12
-12
-12
-12
-12
-11
-11
-11
-11
-11
-12
-12
-12
-12
-12
-11
-11
-11
-11
-12
-13
-15
-16
-16
-16
-15
-13
-11
-9
-7
-6
-6
-7
-9
-11
-12
-14
-14
-14
-13
-11
-10
-8
-8
-8
-8
-9
-10
-11
-12
-12
-11
-10
-9
-7
-6
-6
-6
-6
-7
-8
-9
-10
-11
-11
-11
-11
-12
-12
-12
-13
-13
-14
-14
-14
-14
-14
-13
-13
-12
-12
-11
-11
-11
-11
-11
-11
-11
-12
-12
-13
-13
-14
-14
-14
-14
-14
-14
-14
-14
-15
-15
-16
-17
-19
-20
-21
-21
-21
-21
-20
-20
-19
-18
-18
-17
-17
-17
-18
-18
-18
-19
-19
-19
-19
-20
-20
-21
-22
-22
-22
-22
-22
-21
-20
-19
-19
-18
-18
-19
-19
-20
-20
-20
-20
-20
-20
-19
-19
-20
-20
-21
-22
-22
-22
-22
-21
-20
-20
-19
-19
-19
-19
-20
-20
-21
-21
-21
-20
-19
-19
-18
-18
-19
-19
-20
-21
-21
-21
-20
-19
-17
-15
-13
-11
-10
-9
-9
-9
-8
-8
-8
-7
-6
-4
-3
-1
0
1
1
1
1
1
0
-1
-2
-2
-2
-2
-2
-2
-1
-1
-2
-2
-3
-4
-6
-7
-9
-10
-12
-13
-14
-16
-17
-19
-20
-20
-21
-21
-21
-21
-20
-20
-20
-21
-21
-21
-22
-22
-22
-22
-21
-21
-21
-20
-20
-18
-16
-11
-4
5
17
31
48
67
86
105
123
137
148
152
150
140
124
102
75
45
15
-13
-36
-54
-65
-71
-70
-66
-58
-50
-41
-34
-28
-24
-21
-18
-17
-16
-16
-16
-16
-16
-16
-16
-16
-16
-16
-15
-15
-14
-14
-13
-13
-14
-14
-15
-15
-15
-14
-13
-12
-10
-8
-7
-5
-4
-4
-3
-4
-4
-4
-4
-4
-4
-4
-3
-2
-2
-1
0
0
1
1
2
2
3
4
5
6
7
8
9
10
11
12
13
14
15
16
17
19
20
22
23
25
26
28
30
31
33
36
38
40
43
46
48
51
53
56
58
60
62
64
66
68
70
72
73
75
76
77
77
78
78
78
78
78
77
75
74
71
69
67
65
63
61
59
56
53
50
45
40
35
30
25
21
18
15
14
13
12
11
9
8
6
4
2
0
-1
-2
-3
-4
-5
-6
-8
-9
-11
-13
-15
-16
-16
-16
-15
-14
-13
-12
-11
-11
-11
-11
-11
-11
-12
-12
-12
-12
-12
-13
-13
-13
-13
-14
-14
-14
-14
-13
-13
-13
-13
-13
-13
-13
-13
-13
-13
-13
-12
-12
-11
-11
-11
-11
-11
-11
-11
-12
-12
-13
-13
-13
-13
-13
-12
-12
-11
-11
-11
-12
-13
-14
-15
-16
-16
-16
-16
-15
-14
-13
-13
-12
-13
-13
-14
-15
-15
-15
-15
-15
-15
-14
-14
-14
-14
-14
-15
-16
-16
-17
-17
-17
-17
-17
-16
-16
-16
-16
-16
-16
-17
-17
-17
-17
-17
-18
-18
-18
-18
-18
-18
-18
-18
-18
-18
-19
-19
-19
-19
-20
-20
-20
-21
-22
-23
-23
-24
-24
-24
-23
-22
-20
-19
-18
-18
-18
-19
-20
-21
-22
-22
-23
-22
-22
-21
-19
-18
-18
-18
-18
-18
-19
-20
-20
-20
-21
-20
-20
-20
-19
-19
-19
-19
-19
-19
-19
-20
-20
-20
-20
-20
-20
-20
-21
-21
-21
-22
-22
-23
-22
-22
-20
-18
-15
-13
-11
-9
-8
-8
-9
-10
-10
-11
-11
-10
-8
-5
-3
0
1
3
3
2
1
-1
-2
-4
-5
-5
-5
-5
-5
-5
-5
-5
-5
-6
-7
-8
-9
-11
-13
-14
-16
-18
-19
-20
-20
-20
-20
-20
-20
-20
-20
-21
-22
-22
-23
-23
-23
-22
-22
-21
-21
-22
-22
-23
-23
-22
-19
-15
-8
1
13
27
43
60
79
98
117
133
146
154
156
151
138
118
92
62
31
1
-26
-47
-61
-69
-71
-68
-61
-53
-44
-36
-29
-24
-21
-18
-17
-17
-16
-16
-16
-16
-16
-16
-16
-16
-16
-16
-16
-15
-15
-15
-15
-15
-15
-15
-14
-14
-13
-12
-11
-10
-9
-9
-8
-8
-7
-7
-6
-6
-5
-5
-4
-4
-4
-4
-4
-4
-4
-3
-2
-1
1
2
2
3
3
3
4
4
5
6
8
10
12
14
16
17
18
19
19
20
21
23
25
27
30
32
34
37
39
40
42
44
46
48
51
54
56
59
61
63
65
66
67
68
70
71
73
74
76
77
78
78
78
78
78
77
77
76
75
73
71
69
66
63
60
57
53
49
46
43
39
36
33
30
26
23
20
17
14
11
9
7
5
4
2
1
0
-1
-2
-3
-3
