-13
-11
-10
-10
-9
-10
-10
-9
-9
-7
-5
-2
0
2
4
4
4
3
1
0
-1
-1
-1
0
1
1
1
0
-1
-2
-3
-3
-2
0
2
5
8
10
11
11
9
7
5
2
0
-1
-1
0
2
4
6
8
10
12
13
13
13
12
11
9
6
3
-1
-4
-7
-10
-11
-10
-9
-7
-5
-3
-2
-2
-4
-7
-10
-13
-15
-16
-17
-16
-14
-11
-9
-6
-4
-3
-2
-1
-1
-1
-1
-2
-2
-1
-1
-1
-1
-1
-2
-2
-3
-5
-6
-8
-10
-11
-12
-11
-11
-9
-7
-5
-2
0
2
3
3
2
1
-1
-3
-6
-9
-13
-16
-19
-22
-24
-24
-24
-23
-20
-17
-14
-11
-9
-7
-7
-7
-9
-10
-12
-13
-13
-13
-13
-12
-10
-9
-8
-8
-7
-7
-8
-8
-9
-10
-12
-13
-14
-15
-15
-14
-13
-10
-8
-7
-5
-5
-6
-8
-10
-12
-13
-13
-12
-10
-7
-5
-5
-5
-7
-10
-14
-17
-20
-22
-23
-22
-21
-19
-17
-15
-14
-12
-11
-9
-8
-6
-5
-5
-5
-6
-7
-9
-10
-11
-11
-9
-7
-5
-2
-1
0
-1
-3
-5
-8
-9
-10
-9
-7
-5
-1
2
4
5
6
5
4
2
-1
-4
-7
-11
-14
-18
-21
-23
-24
-25
-25
-24
-22
-20
-18
-17
-16
-15
-14
-13
-13
-13
-13
-13
-14
-16
-17
-19
-21
-21
-21
-20
-19
-18
-18
-18
-21
-24
-27
-30
-30
-28
-20
-9
7
26
47
67
87
104
119
130
140
147
153
157
159
157
152
142
126
105
80
53
26
3
-16
-28
-33
-32
-26
-18
-9
-1
5
7
6
3
-2
-7
-11
-14
-15
-15
-13
-11
-9
-7
-5
-4
-3
-3
-4
-4
-5
-5
-5
-4
-4
-3
-2
0
1
2
4
5
6
6
7
7
7
7
6
5
4
3
2
1
1
1
2
3
5
7
9
10
11
10
8
6
4
2
1
2
4
7
11
16
20
23
25
25
25
23
21
20
20
20
22
25
29
33
36
39
41
43
44
45
46
47
48
49
50
51
52
52
53
53
53
53
53
54
54
54
55
56
57
58
59
61
62
62
62
61
59
56
53
49
46
44
42
41
40
40
38
37
34
30
26
22
18
15
13
12
11
10
8
5
1
-4
-9
-13
-17
-19
-20
-19
-17
-14
-10
-7
-5
-4
-3
-4
-5
-6
-8
-10
-12
-14
-15
-15
-15
-14
-12
-10
-8
-6
-5
-5
-6
-8
-11
-14
-17
-19
-19
-19
-16
-13
-10
-7
-5
-5
-5
-6
-8
-11
-13
-14
-15
-16
-16
-16
-17
-17
-16
-16
-14
-13
-11
-9
-7
-6
-5
-6
-7
-9
-10
-11
-11
-10
-9
-7
-5
-4
-4
-5
-6
-7
-7
-7
-6
-5
-4
-3
-4
-6
-9
-13
-18
-21
-24
-26
-25
-24
-21
-18
-16
-14
-13
-14
-14
-16
-17
-18
-18
-19
-19
-19
-19
-19
-19
-20
-20
-20
-19
-19
-19
-19
-19
-19
-19
-19
-19
-18
-18
-17
-17
-17
-18
-19
-20
-20
-19
-17
-14
-11
-7
-3
-1
0
-1
-5
-10
-16
-22
-28
-32
-35
-35
-33
-30
-26
-22
-18
-15
-15
-16
-18
-22
-25
-29
-31
-32
-31
-29
-25
-22
-18
-16
-15
-15
-16
-18
-20
-21
-21
-21
-21
-20
-20
-20
-21
-23
-25
-27
-27
-27
-25
-22
-18
-15
-11
-9
-8
-9
-11
-14
-17
-19
-21
-22
-22
-21
-20
-18
-17
-17
-17
-18
-20
-23
-26
-28
-30
-30
-29
-28
-25
-23
-20
-18
-17
-16
-17
-18
-19
-19
-18
-17
-15
-13
-11
-10
-11
-11
-13
-14
-14
-14
-12
-10
-7
-4
-3
-3
-4
-7
-11
-15
-18
-20
-20
-19
-17
-14
-11
-10
-9
-10
-11
-14
-16
-18
-20
-21
-21
-21
-20
-19
-18
-18
-19
-20
-22
-24
-27
-29
-30
-31
-31
-30
-28
-27
-26
-26
-27
-29
-32
-35
-37
-36
-32
-24
-13
2
19
37
54
70
83
93
103
111
120
129
139
148
154
156
151
139
119
94
65
35
8
-13
-26
-32
-31
-25
-17
-9
-5
-3
-6
-11
-16
-21
-24
-24
-21
-16
-10
-4
0
1
0
-4
-8
-12
-15
-17
-16
-14
-10
-6
-3
0
1
1
1
0
-1
-2
-2
-2
-2
-2
-2
-2
-3
-3
-3
-1
1
4
7
10
13
15
15
13
11
7
3
0
-3
-4
-4
-2
1
4
9
13
16
19
21
22
22
22
22
21
21
21
22
23
24
25
27
28
30
32
35
37
39
42
44
46
47
48
48
48
48
48
47
47
47
49
50
53
56
59
61
64
65
65
65
63
60
56
53
50
47
46
45
45
46
46
47
46
45
42
39
35
30
26
22
19
16
14
12
10
7
5
2
-1
-4
-7
-9
-11
-12
-13
-13
-12
-11
-9
-7
-5
-4
-3
-4
-5
-8
-11
-14
-17
-19
-20
-19
-18
-15
-13
-10
-9
-9
-10
-12
-15
-17
-18
-18
-17
-16
-14
-12
-11
-11
-11
-13
-14
-16
-17
-17
-17
-16
-15
-14
-13
-13
-14
-15
-16
-17
-18
-18
-17
-16
-14
-12
-10
-8
-7
-6
-6
-6
-6
-6
-7
-7
-7
-8
-7
-7
-6
-5
-4
-3
-3
-4
-7
-11
-16
-21
-26
-30
-31
-30
-27
-21
-15
-8
-3
1
2
0
-3
-7
-11
-15
-18
-19
-18
-17
-15
-14
-13
-13
-13
-14
-15
-16
-17
-17
-16
-16
-16
-16
-16
-17
-18
-19
-20
-19
-19
-18
-16
-15
-14
-13
-12
-12
-12
-12
-13
-13
-14
-15
-16
-17
-18
-19
-20
-21
-22
-22
-22
-21
-20
-18
-17
-16
-16
-16
-16
-16
-17
-18
-18
-19
-20
-21
-22
-24
-25
-26
-27
-27
-26
-24
-22
-19
-16
-14
-12
-10
-10
-11
-12
-13
-15
-16
-17
-16
-15
-13
-11
-9
-8
-8
-9
-11
-15
-19
-24
-29
-32
-35
-36
-35
-34
-31
-29
-26
-24
-23
-22
-21
-21
-21
-21
-21
-21
-20
-20
-19
-18
-17
-16
-14
-13
-13
-12
-12
-12
-12
-12
-12
-12
-12
-12
-12
-13
-13
-13
-13
-12
-10
-8
-5
-1
2
5
6
6
4
1
-2
-6
-9
-11
-12
-11
-9
-7
-5
-5
-5
-7
-10
-13
-17
-20
-23
-25
-26
-27
-27
-27
-26
-26
-26
-25
-23
-21
-19
-17
-15
-13
-13
-15
-17
-20
-23
-25
-26
-25
-24
-22
-21
-20
-22
-24
-27
-30
-30
-27
-19
-7
9
28
46
64
80
93
103
112
120
129
139
149
158
164
165
158
143
121
93
62
31
3
-18
-33
-40
-40
-35
-27
-18
-10
-4
-1
0
-1
-2
-4
-5
-6
-7
-7
-6
-6
-6
-7
-7
-7
-7
-6
-5
-3
-1
1
2
3
3
2
2
1
1
2
3
5
8
10
11
11
10
8
5
2
-1
-3
-4
-3
-1
1
3
5
6
7
6
6
5
5
4
5
5
6
6
7
8
9
10
12
15
18
22
26
29
32
34
34
35
34
34
33
33
34
35
37
38
40
42
43
44
44
44
43
43
43
43
44
47
50
55
59
63
67
69
69
68
65
61
57
53
50
47
46
46
47
48
49
50
50
49
47
45
43
40
37
34
31
29
27
25
24
23
22
21
20
18
16
13
10
8
6
4
4
5
6
6
6
5
3
-1
-5
-10
-14
-17
-19
-20
-19
-18
-17
-16
-16
-16
-16
-17
-17
-18
-18
-18
-18
-18
-18
-19
-19
-19
-18
-17
-16
-14
-12
-10
-9
-8
-8
-9
-10
-10
-11
-10
-10
-9
-8
-7
-6
-5
-5
-5
-5
-5
-4
-3
-1
0
1
2
2
0
-1
-4
-6
-9
-10
-12
-13
-13
-12
-12
-11
-11
-10
-10
-9
-9
-8
-8
-8
-8
-9
-10
-12
-14
-15
-16
-17
-16
-14
-12
-10
-7
-6
-5
-6
-8
-10
-13
-16
-18
-20
-21
-21
-20
-18
-17
-15
-13
-11
-10
-9
-9
-9
-11
-13
-15
-18
-20
-22
-23
-24
-23
-22
-21
-19
-17
-15
-13
-10
-8
-6
-5
-4
-5
-6
-9
-12
-16
-19
-21
-23
-24
-23
-22
-21
-20
-19
-19
-19
-20
-22
-23
-24
-24
-24
-23
-22
-21
-20
-19
-19
-19
-20
-22
-23
-25
-26
-26
-26
-26
-24
-22
-19
-17
-14
-12
-10
-10
-10
-11
-13
-15
-16
-18
-19
-18
-18
-16
-15
-13
-12
-12
-12
-13
-15
-17
-20
-22
-24
-26
-28
-29
-29
-28
-27
-25
-24
-23
-22
-21
-21
-21
-21
-21
-21
-21
-20
-20
-21
-21
-23
-24
-26
-27
-27
-26
-24
-22
-19
-17
-15
-14
-14
-15
-16
-16
-15
-14
-12
-11
-10
-9
-10
-12
-15
-17
-19
-19
-18
-15
-12
-10
-9
-9
-12
-16
-20
-23
-26
-26
-24
-21
-17
-13
-9
-8
-8
-9
-11
-14
-16
-17
-17
-17
-17
-16
-16
-17
-19
-20
-21
-22
-22
-22
-21
-20
-20
-21
-22
-23
-24
-24
-23
-20
-17
-13
-9
-6
-4
-4
-5
-7
-11
-15
-19
-22
-25
-27
-28
-28
-28
-27
-27
-27
-28
-30
-32
-34
-34
-33
-28
-19
-6
10
29
48
67
84
98
110
119
127
134
141
148
152
153
149
138
120
95
66
36
7
-16
-32
-39
-39
-33
-23
-13
-4
2
4
3
1
-1
-3
-3
-1
1
4
6
7
6
4
0
-4
-7
-10
-12
-12
-12
-12
-12
-13
-13
-14
-14
-13
-12
-10
-6
-3
0
3
4
5
4
2
0
-2
-3
-4
-4
-4
-2
0
1
3
5
6
7
8
8
9
10
10
11
12
13
14
15
17
19
22
25
28
30
32
33
33
32
30
29
27
26
25
24
24
24
24
25
26
28
30
33
36
39
42
44
46
47
48
48
49
51
53
55
57
59
60
61
60
59
58
58
58
58
59
61
62
62
60
58
55
51
47
44
42
40
39
38
37
36
34
31
28
24
22
20
19
19
18
18
16
13
9
4
-2
-8
-13
-16
-17
-17
-15
-12
-9
-6
-5
-5
-7
-9
-12
-15
-17
-17
-17
-16
-14
-11
-10
-8
-8
-8
-9
-11
-12
-13
-13
-12
-11
-9
-6
-3
0
4
7
10
12
14
14
13
10
6
0
-5
-10
-15
-18
-19
-19
-17
-15
-13
-11
-10
-10
-10
-11
-12
-12
-12
-11
-9
-7
-5
-3
-3
-3
-3
-4
-5
-6
-6
-6
-5
-5
-4
-5
-5
-6
-8
-9
-10
-11
-11
-10
-10
-9
-8
-8
-8
-7
-6
-5
-3
-1
1
2
3
2
0
-2
-5
-8
-10
-12
-13
-12
-11
-10
-10
-10
-11
-12
-14
-16
-18
-19
-18
-17
-16
-15
-14
-14
-14
-15
-17
-18
-19
-19
-18
-16
-14
-12
-10
-9
-9
-10
-11
-13
-14
-15
-16
-15
-14
-13
-12
-11
-10
-10
-10
-10
-9
-9
-8
-7
-6
-6
-7
-8
-10
-13
-16
-18
-19
-20
-19
-18
-16
-15
-14
-13
-14
-16
-18
-20
-21
-22
-23
-22
-20
-19
-17
-15
-15
-15
-16
-17
-19
-20
-22
-22
-22
-21
-19
-18
-16
-14
-13
-12
-11
-10
-9
-8
-8
-7
-8
-8
-9
-11
-12
-13
-13
-13
-13
-12
-12
-12
-12
-13
-15
-17
-19
-21
-23
-23
-24
-23
-22
-21
-19
-17
-16
-14
-13
-12
-12
-12
-13
-13
-14
-15
-16
-17
-17
-17
-17
-17
-17
-17
-17
-17
-17
-16
-14
-13
-11
-9
-8
-7
-6
-5
-3
-1
1
3
5
6
6
4
0
-4
-9
-14
-17
-18
-18
-15
-11
-7
-4
-1
0
-1
-4
-7
-11
-14
-17
-19
-20
-21
-22
-23
-24
-25
-24
-24
-23
-21
-20
-19
-19
-20
-21
-24
-26
-28
-29
-30
-31
-32
-34
-37
-40
-43
-43
-40
-32
-19
-1
21
45
69
91
109
123
133
140
145
150
154
159
161
161
155
143
124
99
70
39
11
-13
-31
-40
-42
-38
-30
-21
-12
-6
-3
-3
-5
-8
-11
-14
-15
-16
-16
-15
-14
-12
-11
-10
-9
-8
-7
-6
-4
-3
-3
-3
-3
-4
-5
-6
-7
-8
-9
-9
-10
-10
-9
-9
-8
-7
-6
-5
-3
-2
-1
0
1
2
2
2
3
3
3
3
4
3
3
3
2
2
2
2
3
4
5
7
9
11
13
15
17
19
21
23
24
25
26
26
27
27
27
29
30
33
36
40
43
47
49
51
51
51
51
51
52
53
55
57
60
62
63
62
60
57
52
47
42
38
35
34
33
34
34
35
35
33
31
28
24
20
16
13
10
8
6
5
3
1
-1
-3
-4
-6
-7
-8
-9
-10
-10
-11
-12
-12
-13
-13
-13
-13
-12
-12
-13
-14
-16
-18
-20
-22
-23
-23
-22
-21
-20
-18
-18
-18
-19
-20
-21
-21
-19
-16
-12
-8
-3
2
4
5
4
2
-2
-6
-10
-13
-14
-15
-15
-14
-13
-13
-13
-14
-15
-15
-15
-14
-11
-7
-2
2
5
7
6
3
-1
-7
-12
-17
-20
-21
-21
-19
-16
-13
-10
-9
-8
-9
-10
-11
-12
-12
-11
-9
-6
-3
-1
1
2
1
0
-3
-6
-9
-12
-14
-14
-14
-13
-11
-9
-7
-6
-6
-6
-7
-8
-9
-9
-9
-7
-4
-2
1
3
5
4
2
-1
-5
-9
-14
-17
-20
-21
-22
-21
-20
-18
-17
-16
-16
-16
-16
-17
-16
-16
-14
-12
-10
-8
-7
-6
-6
-8
-10
-12
-14
-15
-16
-16
-15
-14
-14
-14
-14
-15
-15
-15
-14
-13
-11
-9
-7
-5
-5
-6
-8
-11
-14
-16
-18
-18
-17
-15
-13
-10
-7
-5
-4
-4
-5
-6
-9
-12
-16
-20
-23
-27
-28
-29
-28
-26
-23
-20
-16
-13
-11
-11
-11
-13
-15
-18
-20
-21
-22
-22
-21
-20
-18
-15
-12
-10
-7
-5
-3
-3
-4
-6
-9
-13
-17
-20
-22
-23
-22
-20
-18
-15
-13
-12
-12
-13
-15
-16
-18
-18
-18
-17
-16
-15
-13
-12
-11
-11
-10
-10
-9
-9
-9
-10
-11
-13
-16
-18
-20
-20
-19
-17
-13
-9
-5
-2
0
1
0
-2
-4
-6
-7
-8
-7
-6
-5
-4
-4
-5
-6
-9
-10
-12
-12
-11
-9
-7
-5
-4
-6
-9
-14
-20
-26
-32
-36
-38
-37
-34
-28
-22
-17
-12
-10
-10
-12
-16
-20
-23
-25
-25
-23
-21
-18
-16
-16
-18
-22
-28
-34
-38
-40
-36
-28
-15
3
23
44
63
80
93
103
111
117
123
129
137
145
151
154
152
144
129
107
81
53
27
5
-12
-22
-26
-24
-20
-16
-12
-10
-11
-13
-16
-17
-18
-16
-12
-8
-4
0
1
0
-2
-6
-9
-12
-13
-13
-11
-9
-6
-4
-2
-2
-2
-3
-3
-3
-2
0
2
4
5
5
4
2
-1
-5
-7
-8
-7
-5
-1
3
8
11
13
12
10
6
2
-3
-6
-8
-7
-5
-1
4
8
12
14
15
15
14
13
12
11
11
13
15
17
20
22
25
27
29
30
31
32
33
33
34
35
37
38
41
43
45
48
50
51
53
54
54
55
56
57
58
58
59
60
60
61
61
62
62
63
63
63
63
61
59
55
51
45
40
35
31
29
27
26
26
25
25
23
22
19
16
12
9
6
4
2
1
0
-1
-2
-3
-4
-5
-6
-7
-8
-9
-9
-9
-9
-8
-6
-5
-5
-5
-6
-8
-11
-14
-17
-20
-22
-23
-23
-22
-21
-19
-17
-15
-13
-11
-9
-8
-7
-7
-7
-8
-10
-12
-15
-17
-18
-19
-19
-18
-17
-17
-17
-16
-17
-17
-16
-15
-14
-11
-9
-6
-4
-2
-2
-2
-3
-5
-6
-7
-7
-7
-6
-4
-2
-1
1
2
2
1
-2
-5
-8
-12
-16
-19
-21
-21
-21
-19
-16
-14
-12
-11
-10
-11
-12
-13
-14
-15
-16
-16
-17
-17
-17
-17
-17
-16
-14
-12
-10
-8
-6
-5
-5
-5
-6
-7
-7
-7
-8
-8
-9
-10
-12
-14
-17
-20
-22
-22
-22
-20
-17
-15
-12
-11
-12
-14
-17
-20
-23
-26
-27
-26
-24
-22
-20
-18
-17
-17
-18
-20
-22
-23
-23
-22
-20
-16
-13
-10
-9
-8
-9
-11
-13
-16
-19
-21
-23
-23
-23
-22
-20
-19
-17
-15
-12
-10
-8
-6
-5
-5
-5
-6
-9
-12
-16
-19
-23
-25
-27
-27
-27
-25
-23
-21
-19
-18
-18
-19
-20
-21
-22
-22
-22
-21
-19
-18
-17
-17
-18
-19
-21
-23
-23
-22
-20
-16
-12
-8
-5
-4
-5
-8
-12
-16
-19
-21
-21
-19
-16
-12
-7
-4
-3
-4
-6
-10
-14
-18
-21
-23
-23
-22
-21
-18
-16
-14
-14
-14
-15
-16
-17
-18
-18
-18
-16
-14
-12
-10
-8
-7
-7
-7
-9
-11
-12
-13
-14
-14
-13
-11
-10
-9
-9
-9
-9
-10
-11
-11
-11
-10
-9
-8
-6
-5
-4
-4
-5
-6
-8
-11
-14
-17
-20
-23
-25
-27
-28
-29
-29
-30
-29
-29
-28
-27
-26
-25
-23
-23
-23
-25
-27
-30
-31
-31
-28
-20
-9
6
24
44
63
81
97
109
120
129
136
144
152
158
162
161
155
141
121
95
65
35
8
-14
-29
-35
-35
-29
-20
-10
-1
4
6
4
0
-5
-10
-14
-17
-18
-18
-18
-16
-15
-15
-14
-14
-13
-13
-12
-10
-8
-6
-3
-1
0
1
1
-1
-3
-5
-6
-7
-7
-6
-4
-2
0
1
2
1
0
-1
-1
-1
1
3
6
9
12
14
14
14
13
13
13
13
13
14
14
13
12
9
7
5
5
6
9
14
20
26
32
35
37
36
34
31
28
25
24
24
26
28
31
35
38
40
43
45
47
49
51
53
54
55
56
56
57
56
56
57
57
57
57
58
57
57
56
55
54
53
53
53
53
54
55
55
55
54
51
47
43
39
34
30
27
24
23
21
19
17
15
11
6
1
-4
-9
-13
-16
-17
-17
-16
-14
-12
-10
-8
-8
-8
-9
-11
-13
-15
-16
-17
-17
-17
-16
-14
-13
-13
-12
-13
-14
-15
-16
-16
-15
-14
-13
-11
-10
-10
-10
-11
-12
-14
-15
-15
-15
-14
-12
-11
-10
-10
-10
-12
-13
-15
-16
-16
-16
-15
-14
-13
-12
-12
-13
-13
-13
-13
-13
-12
-10
-9
-8
-8
-8
-9
-10
-11
-12
-13
-12
-11
-10
-9
-7
-6
-6
-6
-8
-9
-12
-14
-16
-18
-20
-20
-20
-19
-17
-15
-14
-12
-11
-11
-10
-10
-9
-8
-7
-5
-4
-3
-3
-5
-8
-12
-16
-21
-24
-27
-28
-28
-27
-26
-25
-24
-24
-24
-24
-24
-23
-21
-18
-16
-14
-13
-13
-14
-16
-19
-21
-22
-22
-21
-18
-15
-13
-11
-10
-10
-12
-14
-16
-17
-16
-15
-12
-10
-7
-6
-6
-8
-12
-17
-22
-27
-31
-33
-33
-32
-30
-28
-26
-25
-24
-24
-24
-24
-24
-23
-23
-22
-21
-21
-22
-23
-24
-25
-26
-25
-24
-22
-19
-18
-17
-17
-18
-20
-22
-24
-24
-23
-21
-19
-17
-15
-15
-16
-18
-20
-21
-22
-20
-16
-12
-7
-3
-2
-3
-6
-12
-20
-27
-33
-37
-38
-37
-33
-29
-24
-19
-16
-14
-14
-15
-16
-16
-17
-16
-15
-14
-13
-11
-11
-11
-12
-13
-14
-15
-15
-15
-14
-13
-12
-11
-10
-10
-10
-9
-9
-9
-9
-9
-9
-10
-11
-14
-17
-20
-24
-27
-29
-29
-29
-27
-24
-21
-18
-16
-14
-14
-15
-17
-19
-22
-25
-27
-28
-27
-26
-24
-22
-20
-20
-21
-25
-30
-35
-39
-42
-40
-34
-23
-8
11
30
49
66
81
92
102
110
119
128
138
148
156
160
157
147
130
106
78
48
21
-1
-16
-24
-24
-19
-12
-5
0
3
1
-3
-8
-12
-16
-17
-16
-14
-11
-9
-8
-9
-10
-12
-14
-15
-15
-13
-10
-6
-4
-2
-3
-5
-9
-13
-16
-18
-18
-16
-13
-8
-4
0
3
3
2
1
-1
-3
-4
-3
-2
0
3
5
7
7
8
8
7
7
7
8
9
10
11
11
12
12
12
11
11
12
13
14
16
19
23
27
31
34
38
40
41
41
40
38
35
32
29
27
26
27
29
32
37
41
46
50
53
55
55
55
54
52
51
50
51
51
53
55
57
59
60
61
61
61
60
58
57
55
53
51
49
46
43
41
38
35
32
29
27
24
21
18
15
12
9
6
3
1
0
0
1
3
5
6
6
4
1
-4
-9
-15
-20
-24
-27
-27
-26
-24
-21
-18
-17
-16
-16
-17
-19
-19
-19
-18
-17
-15
-13
-12
-12
-13
-14
-16
-17
-17
-17
-15
-13
-11
-10
-10
-10
-12
-14
-16
-18
-18
-17
-15
-13
-10
-8
-8
-8
-9
-10
-12
-13
-14
-13
-12
-10
-8
-6
-5
-4
-4
-5
-6
-8
-10
-13
-16
-19
-21
-22
-22
-21
-19
-16
-12
-9
-6
-5
-5
-6
-9
-12
-15
-17
-19
-20
-20
-19
-17
-15
-13
-11
-9
-8
-7
-7
-8
-9
-11
-13
-15
-17
-17
-18
-17
-16
-14
-13
-12
-13
-14
-16
-18
-20
-21
-22
-22
-20
-18
-16
-14
-13
-13
-14
-16
-18
-20
-21
-22
-21
-20
-18
-16
-15
-14
-14
-14
-15
-16
-17
-17
-18
-19
-19
-20
-21
-21
-21
-20
-19
-18
-17
-16
-15
-15
-16
-17
-19
-19
-20
-20
-19
-18
-17
-16
-16
-17
-17
-18
-18
-17
-17
-16
-16
-17
-18
-20
-22
-25
-26
-25
-23
-20
-16
-12
-10
-9
-10
-14
-18
-22
-25
-26
-25
-21
-16
-11
-5
-2
0
1
0
-2
-3
-3
-3
-2
0
1
1
0
-2
-4
-8
-10
-12
-13
-14
-14
-14
-15
-17
-20
-23
-26
-28
-28
-27
-25
-22
-19
-16
-14
-15
-16
-18
-21
-24
-26
-27
-27
-26
-24
-22
-20
-18
-16
-16
-16
-18
-21
-26
-31
-36
-40
-42
-41
-35
-24
-9
10
31
52
72
90
104
115
124
131
138
145
152
157
159
157
147
130
106
77
47
17
-7
-24
-33
-35
-29
-21
-11
-4
1
1
-2
-7
-12
-16
-19
-19
-17
-13
-10
-7
-6
-6
-7
-9
-10
-11
-12
-11
-10
-9
-7
-5
-4
-3
-2
-1
-1
-2
-2
-4
-5
-7
-8
-9
-9
-9
-7
-6
-4
-2
-1
1
2
3
3
4
5
7
8
9
9
9
9
9
9
8
8
7
7
7
7
8
9
11
12
15
17
20
22
24
25
26
26
26
26
27
28
30
33
36
39
42
43
44
44
43
42
42
44
47
51
56
61
65
67
68
67
64
62
59
58
58
59
61
63
64
64
62
59
55
51
48
45
44
43
42
42
40
38
34
30
26
22
20
18
17
17
17
16
15
12
9
4
0
-4
-7
-10
-11
-11
-11
-11
-11
-11
-13
-14
-15
-16
-16
-14
-12
-9
-5
-1
1
2
2
0
-4
-9
-14
-19
-23
-26
-28
-28
-27
-24
-21
-18
-14
-12
-10
-8
-8
-8
-8
-9
-9
-9
-9
-9
-8
-8
-8
-9
-10
-11
-11
-12
-13
-13
-13
-13
-14
-14
-15
-16
-17
-17
-17
-15
-13
-11
-8
-5
-3
-1
1
2
2
1
1
0
-2
-4
-6
-8
-10
-12
-14
-15
-15
-15
-14
-13
-12
-10
-9
-7
-6
-6
-6
-6
-8
-10
-13
-16
-19
-21
-23
-24
-24
-24
-23
-22
-21
-20
-20
-20
-20
-20
-19
-18
-18
-17
-16
-15
-14
-13
-11
-10
-8
-7
-6
-6
-8
-10
-15
-19
-24
-28
-30
-30
-28
-24
-18
-13
-8
-5
-4
-5
-8
-11
-15
-19
-21
-23
-23
-22
-21
-20
-19
-19
-19
-20
-22
-24
-26
-27
-28
-29
-28
-28
-27
-26
-25
-24
-23
-22
-20
-19
-17
-15
-13
-12
-12
-13
-15
-19
-22
-26
-28
-29
-28
-24
-20
-15
-10
-5
-3
-3
-5
-8
-13
-18
-22
-25
-26
-25
-23
-20
-17
-15
-13
-14
-15
-18
-21
-24
-26
-27
-26
-25
-23
-20
-19
-19
-20
-21
-23
-24
-24
-23
-20
-16
-12
-8
-5
-3
-3
-5
-7
-10
-12
-13
-14
-14
-14
-14
-14
-14
-15
-15
-16
-15
-14
-13
-11
-10
-9
-9
-10
-11
-13
-16
-18
-20
-22
-22
-23
-23
-23
-23
-23
-23
-23
-23
-23
-23
-23
-23
-23
-24
-24
-24
-23
-22
-22
-21
-22
-24
-27
-31
-35
-39
-40
-39
-33
-24
-10
6
24
42
60
76
90
103
115
127
139
150
159
165
166
161
148
129
105
76
47
20
-2
-18
-28
-30
-28
-22
-15
-9
-5
-4
-6
-9
-14
-18
-20
-21
-19
-15
-11
-6
-2
1
1
-1
-5
-9
-14
-17
-18
-18
-16
-12
-8
-4
-1
0
-1
-3
-6
-9
-12
-14
-15
-14
-13
-10
-8
-5
-2
1
3
4
5
5
4
3
2
1
0
0
0
2
4
7
10
12
14
15
14
13
11
9
7
6
5
6
8
10
13
16
18
21
24
27
29
31
33
34
36
37
37
38
39
40
41
43
44
44
45
44
44
44
44
45
47
49
53
56
59
61
62
60
58
55
51
48
46
45
45
46
48
49
49
49
48
47
45
43
41
39
37
34
32
29
25
20
15
11
6
2
-1
-4
-6
-8
-10
-11
-12
-13
-14
-14
-14
-14
-13
-12
-11
-11
-11
-12
-13
-14
-15
-17
-18
-19
-19
-19
-18
-17
-15
-13
-11
-9
-8
-7
-8
-9
-11
-13
-15
-17
-18
-18
-17
-15
-12
-8
-5
-3
-1
-1
-2
-4
-7
-10
-14
-18
-20
-21
-22
-21
-19
-16
-14
-12
-11
-10
-11
-11
-12
-12
-12
-11
-10
-10
-10
-10
-12
-14
-16
-17
-18
-18
-17
-14
-11
-8
-5
-3
-3
-3
-4
-6
-8
-10
-11
-13
-14
-15
-17
-19
-20
-22
-22
-22
-20
-18
-16
-13
-11
-11
-11
-12
-15
-17
-19
-21
-22
-22
-22
-21
-20
-19
-19
-18
-18
-18
-18
-18
-18
-18
-19
-20
-20
-22
-23
-23
-24
-24
-23
-21
-20
-18
-17
-15
-14
-14
-14
-15
-16
-17
-17
-17
-16
-15
-14
-13
-13
-13
-14
-16
-18
-21
-24
-27
-28
-28
-26
-23
-20
-16
-13
-11
-10
-11
-13
-16
-19
-22
-24
-25
-25
-23
-21
-19
-17
-16
-16
-16
-16
-17
-17
-16
-15
-14
-12
-10
-9
-9
-9
-10
-11
-11
-10
-9
-8
-6
-4
-3
-2
-3
-5
-8
-11
-14
-17
-19
-21
-21
-21
-21
-21
-21
-21
-22
-22
-23
-24
-24
-24
-24
-23
-23
-22
-22
-22
-22
-23
-24
-25
-25
-25
-24
-23
-21
-20
-20
-21
-24
-28
-33
-37
-39
-38
-32
-21
-6
12
31
51
68
82
94
104
113
122
131
141
151
158
161
157
146
127
101
70
38
9
-15
-32
-42
-43
-39
-31
-22
-14
-8
-5
-4
-5
-7
-9
-10
-11
-12
-12
-12
-12
-12
-12
-12
-12
-11
-10
-8
-6
-5
-4
-4
-4
-6
-7
-8
-9
-9
-8
-7
-6
-4
-3
-1
-1
0
1
2
3
5
7
8
10
10
10
10
9
8
7
7
7
7
8
7
7
6
4
3
3
3
4
6
9
12
15
18
20
21
22
22
22
22
23
24
26
28
30
31
33
34
36
38
40
43
47
50
53
56
57
57
57
55
53
52
52
52
54
57
60
63
66
67
67
66
63
60
57
54
52
51
51
51
52
53
53
53
51
48
45
40
35
30
25
20
15
11
8
5
3
2
2
2
2
1
1
-1
-2
-4
-6
-8
-9
-10
-10
-9
-8
-7
-7
-8
-9
-12
-14
-17
-18
-19
-19
-18
-16
-13
-10
-8
-7
-7
-8
-10
-12
-14
-16
-18
-18
-18
-17
-16
-15
-13
-12
-10
-9
-8
-8
-8
-8
-8
-9
-10
-12
-13
-15
-17
-18
-19
-18
-18
-16
-14
-11
-9
-7
-6
-6
-6
-7
-9
-10
-12
-12
-13
-12
-12
-11
-10
-9
-9
-10
-11
-12
-13
-15
-15
-16
-16
-15
-15
-14
-14
-14
-14
-14
-15
-15
-16
-15
-15
-15
-14
-14
-13
-13
-12
-12
-12
-11
-10
-9
-8
-7
-7
-7
-8
-10
-12
-14
-17
-19
-21
-23
-23
-24
-23
-22
-20
-18
-16
-14
-13
-13
-15
-17
-20
-24
-28
-31
-32
-33
-31
-29
-26
-23
-21
-20
-19
-20
-21
-23
-23
-23
-22
-21
-19
-17
-15
-14
-14
-15
-16
-17
-18
-19
-18
-18
-16
-15
-13
-12
-12
-12
-13
-15
-17
-20
-22
-24
-26
-27
-28
-27
-26
-25
-23
-21
-20
-19
-19
-20
-21
-23
-24
-26
-27
-27
-26
-25
-23
-21
-20
-19
-19
-19
-20
-20
-21
-20
-19
-17
-15
-12
-9
-6
-5
-4
-4
-4
-4
-5
-5
-5
-4
-4
-3
-4
-5
-6
-8
-10
-12
-13
-14
-14
-14
-14
-15
-16
-18
-21
-25
-28
-32
-34
-35
-35
-33
-31
-28
-25
-22
-20
-19
-19
-20
-21
-22
-24
-25
-26
-27
-27
-27
-26
-26
-25
-24
-25
-26
-28
-30
-33
-34
-32
-27
-18
-4
14
35
57
77
95
108
117
122
126
129
132
137
142
147
149
145
134
115
89
58
25
-5
-30
-46
-52
-51
-42
-30
-18
-8
-2
0
-2
-6
-12
-16
-19
-20
-18
-15
-11
-7
-4
-3
-2
-2
-3
-4
-5
-7
-8
-9
-9
-8
-7
-4
-1
3
6
9
11
11
9
6
1
-4
-9
-13
-15
-16
-16
-14
-12
-9
-6
-3
-1
0
2
2
3
2
2
1
1
0
0
1
2
4
6
8
10
11
13
15
16
18
21
23
26
28
30
30
30
29
27
26
24
24
25
28
31
35
39
42
46
48
50
52
54
56
59
61
63
63
62
59
55
50
45
41
39
40
43
47
51
55
57
57
55
51
46
42
39
38
38
38
39
40
38
35
31
25
19
14
10
7
6
5
5
4
3
2
-1
-3
-5
-6
-7
-7
-6
-6
-5
-5
-5
-6
-6
-6
-5
-4
-2
-1
0
0
-1
-4
-9
-14
-20
-26
-30
-33
-35
-34
-32
-29
-25
-21
-17
-13
-10
-8
-7
-6
-6
-6
-6
-6
-6
-6
-6
-6
-6
-6
-7
-7
-7
-8
-8
-9
-9
-10
-10
-10
-10
-10
-10
-10
-10
-10
-9
-9
-8
-7
-7
-6
-5
-3
-2
0
2
3
3
3
1
-1
-4
-8
-11
-14
-17
-19
-20
-20
-19
-19
-19
-19
-20
-21
-21
-21
-21
-19
-16
-14
-11
-10
-9
-10
-12
-14
-17
-19
-20
-20
-19
-17
-16
-15
-15
-15
-17
-18
-18
-18
-15
-12
-8
-5
-3
-3
-4
-8
-11
-15
-16
-16
-14
-11
-8
-6
-6
-8
-13
-20
-27
-34
-37
-39
-37
-33
-28
-22
-19
-17
-16
-18
-20
-23
-24
-24
-23
-22
-20
-18
-17
-18
-19
-22
-24
-26
-27
-27
-26
-23
-20
-18
-15
-14
-13
-14
-14
-15
-14
-13
-12
-9
-7
-5
-5
-6
-9
-13
-18
-22
-25
-26
-25
-22
-18
-14
-11
-9
-10
-13
-17
-22
-27
-30
-32
-32
-30
-27
-24
-21
-19
-18
-18
-19
-20
-21
-21
-21
-20
-19
-17
-16
-15
-14
-14
-14
-14
-13
-13
-11
-10
-8
-6
-5
-4
-4
-4
-5
-6
-7
-8
-8
-9
-9
-9
-9
-10
-11
-13
-15
-17
-20
-21
-22
-23
-23
-23
-23
-24
-25
-27
-29
-31
-32
-32
-31
-29
-26
-23
-20
-19
-19
-21
-23
-26
-29
-30
-31
-30
-30
-29
-30
-31
-34
-36
-37
-35
-28
-17
-1
19
41
62
82
99
111
121
128
135
142
150
157
163
164
158
145
124
96
64
32
3
-18
-32
-37
-34
-27
-19
-11
-7
-6
-9
-13
-18
-20
-20
-17
-13
-8
-4
-1
-2
-4
-9
-13
-17
-19
-19
-18
-15
-12
-10
-8
-7
-8
-8
-9
-9
-9
-7
-6
-4
-2
-1
0
1
1
2
2
2
1
1
0
-1
-2
-2
-1
1
3
6
9
11
12
12
10
8
5
2
1
1
2
4
7
11
14
17
18
18
18
17
17
17
19
21
24
28
31
34
35
36
36
36
36
37
38
39
42
44
47
49
51
53
54
56
58
59
61
62
63
62
61
58
55
51
48
46
45
46
47
50
53
55
57
57
57
55
52
48
44
40
36
32
28
25
23
21
19
18
17
16
15
12
9
6
2
-1
-5
-7
-9
-10
-10
-10
-9
-8
-8
-7
-7
-7
-8
-8
-9
-10
-10
-11
-12
-12
-12
-12
-12
-11
-10
-10
-9
-10
-11
-12
-14
-15
-15
-15
-14
-13
-11
-10
-9
-9
-11
-13
-16
-18
-20
-20
-19
-17
-14
-10
-6
-3
-1
1
1
0
-1
-3
-5
-8
-10
-11
-13
-13
-13
-12
-11
-9
-7
-5
-4
-4
-4
-5
-6
-7
-8
-8
-9
-9
-10
-11
-12
-14
-16
-18
-19
-19
-18
-15
-12
-9
-6
-4
-3
-4
-7
-10
-13
-16
-17
-17
-15
-13
-10
-7
-5
-4
-5
-7
-10
-14
-17
-19
-21
-20
-19
-17
-15
-13
-11
-11
-10
-11
-11
-11
-12
-12
-12
-12
-13
-14
-15
-16
-17
-18
-19
-20
-20
-21
-23
-24
-26
-28
-29
-29
-28
-26
-23
-19
-15
-12
-10
-10
-11
-13
-16
-18
-20
-21
-20
-19
-18
-17
-16
-16
-16
-17
-18
-18
-18
-18
-17
-16
-15
-15
-16
-17
-19
-20
-21
-21
-21
-20
-18
-17
-15
-15
-14
-15
-16
-17
-18
-19
-21
-22
-23
-24
-25
-26
-26
-27
-27
-27
-26
-25
-24
-23
-22
-20
-18
-16
-14
-12
-10
-8
-6
-4
-3
-2
-2
-3
-4
-5
-7
-8
-9
-10
-10
-11
-11
-11
-11
-12
-13
-15
-17
-19
-20
-22
-22
-23
-23
-22
-22
-21
-22
-22
-23
-24
-25
-26
-27
-27
-27
-27
-27
-27
-28
-29
-30
-32
-33
-34
-35
-35
-34
-33
-33
-33
-34
-35
-36
-37
-36
-32
-24
-13
2
20
40
60
80
97
113
126
138
148
157
165
170
172
168
158
140
117
88
58
27
1
-20
-34
-41
-42
-38
-32
-24
-18
-13
-10
-8
-8
-9
-10
-12
-13
-14
-15
-15
-15
-14
-13
-11
-9
-7
-7
-8
-10
-13
-17
-19
-20
-19
-15
-10
-5
0
3
4
3
0
-4
-8
-10
-11
-10
-8
-6
-4
-3
-2
-3
-4
-5
-4
-2
1
6
10
13
15
14
12
9
5
2
0
0
2
5
9
12
14
16
16
16
15
16
17
19
22
24
27
29
30
31
31
30
30
31
32
34
37
40
43
46
48
50
52
53
54
55
55
56
56
56
56
56
57
58
59
60
62
63
64
64
63
61
58
53
48
44
39
36
34
33
33
34
34
34
33
30
26
21
15
9
4
0
-2
-2
-1
0
1
1
0
-2
-6
-10
-14
-16
-17
-17
-14
-11
-7
-4
-1
0
-1
-3
-5
-8
-11
-13
-14
-14
-13
-13
-12
-11
-11
-11
-12
-14
-15
-16
-17
-18
-18
-18
-18
-17
-17
-16
-15
-15
-14
-14
-13
-13
-13
-14
-14
-15
-15
-16
-16
-17
-16
-16
-15
-14
-13
-11
-10
-8
-7
-6
-6
-6
-7
-8
-9
-10
-11
-11
-11
-10
-9
-8
-6
-5
-5
-5
-5
-7
-8
-10
-12
-13
-15
-15
-16
-16
-16
-16
-16
-15
-15
-14
-13
-11
-10
-9
-8
-9
-10
-12
-15
-19
-22
-25
-26
-27
-25
-23
-20
-17
-15
-13
-13
-13
-14
-16
-17
-17
-17
-16
-14
-14
-13
-14
-15
-16
-18
-20
-21
-21
-20
-19
-18
-16
-15
-15
-15
-16
-17
-18
-19
-19
-19
-19
-19
-19
-19
-20
-21
-23
-23
-24
-24
-23
-22
-20
-18
-18
-17
-18
-20
-23
-25
-28
-29
-29
-27
-25
-21
-17
-13
-10
-9
-10
-12
-15
-19
-22
-24
-25
-25
-23
-21
-18
-14
-12
-10
-8
-8
-8
-8
-8
-8
-8
-8
-8
-8
-7
-7
-7
-7
-8
-9
-11
-13
-16
-18
-20
-22
-23
-23
-22
-21
-21
-20
-21
-22
-24
-26
-28
-29
-29
-29
-28
-26
-25
-23
-21
-20
-19
-19
-19
-19
-20
-21
-23
-25
-27
-28
-29
-29
-29
-28
-27
-27
-28
-29
-31
-31
-29
-23
-12
3
22
43
63
82
98
110
118
124
128
133
137
140
141
138
129
113
91
63
34
5
-19
-36
-46
-47
-43
-34
-25
-16
-10
-7
-7
-8
-9
-10
-10
-10
-8
-8
-8
-8
-10
-12
-13
-13
-11
-8
-4
-1
2
2
1
-2
-6
-9
-12
-14
-13
-11
-8
-4
-2
-1
-2
-4
-6
-9
-11
-11
-10
-8
-5
-2
0
0
0
-2
-4
-5
-6
-5
-3
1
5
10
13
14
14
13
11
9
8
7
8
9
11
14
16
18
20
21
22
23
25
27
29
32
35
38
41
43
45
47
48
49
50
51
51
50
49
48
47
46
46
47
48
50
53
56
58
60
60
59
57
54
51
47
45
43
42
42
42
42
42
41
40
37
34
31
28
24
21
19
17
15
13
12
10
9
8
6
5
4
3
3
2
2
1
0
-2
-3
-5
-6
-8
-9
-9
-10
-10
-10
-10
-12
-13
-16
-19
-22
-25
-27
-28
-27
-25
-22
-18
-14
-10
-8
-8
-9
-12
-16
-20
-24
-26
-27
-26
-25
-22
-20
-18
-17
-17
-18
-20
-22
-23
-23
-23
-21
-18
-15
-12
-9
-7
-6
-5
-4
-4
-3
-3
-2
-1
0
0
0
-1
-3
-5
-8
-10
-12
-13
-13
-13
-12
-11
-10
-10
-11
-12
-14
-17
-19
-21
-23
-24
-25
-25
-25
-25
-25
-24
-24
-22
-21
-19
-17
-16
-14
-14
-14
-15
-16
-18
-19
-19
-20
-20
-21
-21
-21
-21
-21
-20
-18
-16
-13
-11
-9
-8
-9
-10
-13
-16
-18
-19
-19
-18
-16
-14
-13
-13
-13
-15
-17
-19
-20
-20
-19
-17
-14
-12
-11
-11
-12
-15
-17
-19
-21
-21
-20
-19
-17
-15
-14
-13
-13
-14
-16
-18
-21
-23
-25
-27
-28
-28
-27
-26
-24
-22
-20
-20
-20
-21
-22
-24
-25
-25
-24
-22
-20
-17
-16
-16
-17
-20
-24
-28
-31
-33
-33
-31
-28
-26
-24
-25
-28
-33
-38
-41
-42
-38
-29
-15
2
21
40
58
72
82
91
97
103
110
118
125
131
133
130
120
103
80
53
24
-2
-24
-39
-48
-49
-44
-35
-25
-16
-9
-4
-2
-4
-6
-10
-14
-16
-18
-18
-17
-15
-12
-9
-7
-5
-3
-2
-2
-3
-4
-5
-7
-9
-11
-13
-15
-17
-19
-20
-21
-21
-21
-19
-17
-14
-10
-6
-3
0
1
2
2
1
1
1
1
2
3
4
5
4
4
2
1
0
0
1
3
6
9
13
16
18
19
20
20
20
19
19
18
18
18
17
17
18
20
23
27
32
37
42
46
49
50
50
48
46
44
43
43
45
48
51
55
58
59
59
58
55
52
50
48
47
48
50
52
55
56
57
56
53
49
45
41
38
36
36
36
37
38
38
36
32
27
20
13
6
0
-4
-6
-7
-7
-6
-6
-6
-7
-9
-11
-14
-17
-19
-19
-18
-16
-14
-11
-8
-7
-6
-7
-9
-11
-14
-17
-19
-20
-21
-21
-20
-19
-18
-18
-18
-18
-19
-20
-21
-22
-22
-22
-22
-22
-22
-22
-22
-22
-21
-20
-18
-15
-11
-7
-4
0
2
3
2
-1
-4
-9
-13
-17
-19
-20
-20
-19
-17
-15
-13
-12
-11
-11
-12
-12
-12
-12
-11
-11
-10
-10
-10
-11
-11
-12
-12
-13
-13
-13
-13
-13
-14
-14
-14
-14
-14
-13
-13
-13
-13
-13
-15
-17
-18
-20
-21
-20
-19
-16
-14
-12
-10
-10
-11
-13
-16
-19
-20
-21
-20
-19
-16
-14
-12
-12
-13
-14
-17
-19
-20
-20
-20
-19
-17
-16
-16
-17
-19
-22
-25
-28
-29
-30
-29
-27
-25
-23
-22
-22
-23
-25
-27
-29
-29
-28
-25
-22
-18
-15
-12
-10
-9
-8
-8
-7
-6
-5
-2
0
2
3
3
1
-3
-7
-12
-16
-20
-21
-22
-21
-20
-18
-16
-16
-16
-18
-20
-22
-24
-26
-27
-27
-27
-27
-27
-28
-29
-30
-31
-31
-31
-30
-28
-26
-24
-22
-21
-21
-22
-24
-25
-26
-26
-25
-24
-23
-23
-24
-26
-29
-31
-31
-29
-23
-13
1
18
37
55
71
84
93
100
105
110
116
123
130
137
141
141
134
121
100
75
46
18
-7
-27
-39
-44
-43
-37
-28
-19
-11
-7
-5
-5
-7
-10
-13
-14
-14
-13
-12
-10
-9
-8
-8
-9
-9
-10
-9
-9
-8
-6
-5
-5
-5
-6
-7
-8
-9
-10
-9
-8
-6
-3
-1
1
3
4
3
2
0
-3
-5
-7
-9
-9
-9
-8
-6
-4
-2
-1
0
0
0
-1
-1
-2
-1
0
3
6
9
12
15
17
17
18
17
17
17
18
20
22
26
29
32
35
37
39
39
40
41
42
43
45
48
51
53
55
56
55
53
49
45
40
37
34
33
34
37
41
46
51
54
56
56
55
52
49
46
44
42
42
42
42
42
41
40
37
33
28
24
20
17
15
14
13
13
13
13
12
11
9
8
6
5
3
2
0
-2
-5
-9
-14
-18
-23
-26
-28
-28
-27
-24
-20
-15
-11
-9
-8
-9
-11
-14
-18
-22
-25
-27
-28
-28
-27
-26
-24
-22
-20
-18
-15
-13
-11
-9
-8
-8
-8
-9
-9
-10
-9
-8
-6
-3
0
3
4
4
3
0
-4
-7
-10
-12
-11
-9
-7
-4
-2
-2
-3
-6
-10
-14
-18
-20
-21
-19
-17
-13
-10
-7
-5
-5
-5
-7
-9
-11
-12
-14
-15
-16
-16
-16
-17
-17
-17
-16
-16
-16
-15
-15
-15
-14
-14
-13
-12
-12
-12
-11
-12
-12
-13
-14
-14
-14
-13
-12
-11
-10
-9
-9
-9
-11
-13
-15
-17
-19
-19
-19
-18
-17
-17
-16
-16
-17
-18
-18
-19
-20
-20
-20
-19
-19
-19
-19
-20
-20
-21
-21
-21
-20
-19
-18
-17
-16
-16
-16
-16
-16
-16
-17
-18
-19
-21
-22
-23
-23
-22
-21
-19
-17
-15
-13
-12
-12
-12
-13
-14
-15
-16
-16
-14
-13
-11
-9
-8
-7
-8
-9
-12
-15
-18
-21
-23
-25
-26
-26
-25
-23
-22
-20
-18
-17
-17
-18
-19
-21
-23
-24
-25
-24
-23
-22
-19
-17
-15
-13
-12
-11
-10
-10
-9
-9
-9
-10
-11
-12
-14
-16
-17
-17
-17
-16
-14
-11
-8
-6
-4
-4
-5
-7
-9
-12
-15
-17
-17
-17
-15
-13
-11
-9
-8
-8
-8
-9
-11
-12
-13
-13
-13
-12
-10
-9
-8
-8
-9
-11
-14
-16
-18
-19
-18
-17
-15
-12
-10
-8
-7
-8
-10
-13
-16
-20
-22
-23
-23
-21
-18
-15
-11
-8
-7
-6
-8
-10
-13
-15
-17
-19
-19
-19
-19
-20
-23
-27
-32
-37
-40
-41
-38
-29
-16
2
22
43
63
80
93
103
110
117
124
131
140
149
157
159
156
145
126
101
72
42
15
-6
-20
-25
-24
-17
-8
1
7
10
10
6
1
-5
-9
-12
-13
-12
-9
-6
-3
0
3
4
5
5
4
2
-1
-4
-8
-12
-15
-17
-17
-17
-15
-12
-9
-6
-4
-2
-2
-1
-1
-1
0
0
0
1
1
2
2
2
3
3
4
5
6
7
7
8
8
8
9
9
10
12
13
14
16
17
18
19
20
21
23
25
27
29
31
32
32
32
31
29
28
26
25
24
23
23
24
25
27
30
33
37
41
45
49
52
54
55
55
55
54
54
54
55
56
57
59
60
60
60
59
56
54
51
49
47
46
46
46
46
46
45
43
41
37
34
30
26
23
21
19
18
16
14
12
8
5
2
-2
-4
-5
-6
-6
-6
-6
-6
-7
-8
-10
-12
-14
-15
-15
-14
-13
-12
-11
-10
-11
-11
-11
-11
-10
-9
-7
-4
-2
-1
-1
-2
-5
-8
-11
-13
-13
-12
-10
-6
-2
0
2
1
-1
-5
-9
-12
-14
-14
-12
-9
-5
-1
2
3
2
0
-4
-9
-13
-16
-18
-18
-17
-15
-13
-11
-10
-9
-8
-8
-8
-8
-8
-7
-6
-5
-4
-4
-4
-5
-6
-7
-9
-10
-10
-10
-9
-8
-7
-5
-3
-2
-1
0
0
0
-1
-3
-6
-10
-13
-17
-20
-22
-23
-23
-22
-20
-18
-15
-12
-10
-8
-8
-9
-10
-12
-14
-16
-18
-20
-20
-20
-20
-18
-17
-16
-15
-15
-15
-17
-19
-21
-23
-25
-26
-26
-25
-23
-21
-19
-17
-15
-14
-13
-12
-12
-12
-13
-13
-13
-13
-14
-14
-15
-15
-16
-17
-18
-20
-21
-23
-24
-25
-26
-26
-25
-24
-21
-19
-16
-14
-12
-12
-13
-15
-17
-20
-23
-26
-27
-27
-26
-25
-23
-22
-21
-20
-20
-20
-20
-20
-21
-21
-21
-21
-21
-22
-22
-21
-21
-19
-17
-15
-13
-11
-9
-9
-9
-10
-12
-14
-16
-17
-18
-19
-18
-18
-17
-17
-16
-17
-17
-18
-19
-21
-22
-24
-25
-26
-27
-27
-27
-26
-24
-23
-22
-21
-20
-20
-20
-20
-20
-20
-18
-17
-15
-13
-11
-10
-9
-9
-9
-10
-10
-9
-8
-7
-6
-5
-4
-4
-5
-6
-6
-7
-7
-7
-7
-7
-7
-8
-10
-13
-16
-18
-20
-21
-21
-20
-18
-18
-18
-19
-22
-25
-30
-33
-36
-37
-36
-33
-29
-25
-20
-17
-16
-16
-17
-19
-22
-25
-28
-30
-32
-34
-36
-36
-35
-32
-25
-15
-1
16
35
54
72
87
100
109
117
124
132
140
148
155
159
157
149
132
107
77
43
11
-17
-37
-47
-48
-41
-28
-13
0
9
13
12
5
-4
-13
-21
-26
-28
-27
-23
-18
-14
-10
-8
-7
-8
-8
-8
-8
-7
-6
-4
-3
-2
-3
-3
-4
-5
-6
-6
-5
-4
-2
-1
-1
-1
-2
-3
-3
-3
-3
-1
1
4
7
8
9
9
9
7
6
5
5
5
6
8
10
12
13
14
14
13
12
11
10
10
10
11
13
15
17
19
21
22
23
25
25
26
28
29
30
32
34
36
38
40
41
43
44
45
46
47
48
49
51
53
55
57
60
62
63
64
64
64
63
62
62
61
61
61
60
60
59
57
54
50
45
41
36
31
28
25
23
21
20
19
18
17
15
14
12
10
9
8
7
7
6
5
4
2
-1
-3
-6
-8
-10
-12
-13
-13
-13
-12
-10
-8
-5
-3
-1
0
0
-1
-4
-7
-9
-11
-12
-11
-9
-5
-1
3
6
7
5
2
-2
-6
-11
-14
-17
-18
-18
-18
-18
-17
-16
-16
-15
-15
-14
-12
-11
-9
-8
-7
-6
-6
-5
-5
-4
-4
-3
-3
-2
-2
-2
-3
-3
-2
-1
0
2
3
4
4
2
0
-4
-7
-10
-13
-13
-12
-10
-7
-3
0
1
1
0
-3
-7
-12
-16
-19
-20
-21
-19
-17
-15
-13
-12
-12
-12
-14
-16
-19
-21
-21
-21
-20
-19
-17
-15
-13
-12
-12
-13
-14
-15
-17
-17
-17
-17
-16
-15
-15
-14
-14
-14
-14
-13
-11
-9
-7
-5
-3
-2
-3
-6
-10
-15
-20
-25
-29
-31
-32
-31
-30
-28
-26
-25
-25
-26
-27
-28
-28
-27
-26
-23
-20
-17
-14
-12
-11
-12
-14
-16
-19
-21
-23
-24
-25
-25
-25
-24
-23
-22
-21
-20
-19
-19
-19
-18
-18
-18
-18
-18
-17
-15
-13
-11
-8
-6
-4
-3
-3
-5
-7
-11
-15
-19
-24
-28
-32
-35
-37
-37
-37
-35
-33
-30
-26
-23
-20
-17
-15
-13
-12
-11
-11
-12
-13
-14
-16
-18
-21
-23
-24
-25
-25
-24
-21
-19
-16
-13
-10
-8
-7
-7
-7
-7
-7
-7
-6
-5
-5
-4
-4
-4
-4
-4
-5
-6
-7
-8
-10
-13
-16
-20
-25
-30
-35
-39
-42
-43
-43
-42
-39
-36
-33
-29
-26
-24
-22
-21
-21
-22
-23
-24
-25
-26
-26
-26
-25
-26
-27
-29
-31
-34
-36
-36
-32
-23
-10
7
27
49
69
88
103
115
124
132
140
148
156
162
165
163
152
133
106
72
37
3
-24
-41
-48
-44
-32
-16
0
12
17
15
6
-7
-21
-33
-40
-42
-39
-32
-24
-15
-9
-6
-5
-7
-10
-13
-15
-16
-15
-13
-10
-8
-7
-6
-6
-7
-7
-7
-6
-4
-2
1
3
5
6
5
5
3
2
0
-1
-3
-4
-4
-5
-5
-5
-5
-4
-3
-1
2
5
8
10
12
13
13
12
11
10
10
10
12
14
17
21
24
26
27
28
27
26
26
25
25
25
27
28
30
31
33
34
34
35
36
37
39
42
45
48
51
54
56
58
59
59
59
59
59
59
59
59
59
58
57
55
54
53
51
50
50
49
49
48
48
47
45
43
40
37
33
28
23
18
13
9
5
1
-1
-3
-4
-4
-4
-4
-4
-5
-6
-7
-8
-9
-10
-11
-11
-11
-11
-11
-11
-12
-12
-12
-12
-11
-10
-8
-7
-5
-4
-3
-3
-4
-6
-9
-12
-14
-17
-18
-19
-20
-19
-19
-17
-16
-14
-11
-9
-6
-4
-2
-1
0
-1
-3
-6
-9
-11
-14
-15
-16
-16
-16
-15
-14
-13
-12
-12
-11
-11
-10
-10
-10
-10
-9
-9
-9
-8
-8
-8
-7
-6
-6
-5
-5
-5
-5
-6
-7
-9
-11
-13
-15
-15
-15
-14
-12
-10
-8
-7
-7
-8
-10
-13
-16
-19
-20
-21
-20
-18
-16
-14
-12
-12
-13
-14
-16
-18
-20
-21
-21
-21
-21
-21
-21
-20
-20
-20
-19
-19
-19
-18
-19
-19
-20
-20
-21
-20
-19
-17
-15
-12
-9
-8
-8
-9
-11
-13
-16
-19
-20
-20
-20
-18
-17
-16
-16
-17
-19
-22
-26
-29
-31
-31
-31
-29
-26
-22
-19
-15
-13
-12
-12
-13
-15
-18
-21
-24
-26
-27
-27
-26
-24
-21
-19
-17
-16
-17
-18
-21
-23
-25
-26
-25
-24
-21
-18
-16
-14
-12
-12
-12
-12
-12
-10
-8
-6
-4
-2
-1
-2
-4
-7
-10
-14
-16
-18
-18
-18
-18
-18
-18
-18
-19
-20
-20
-20
-19
-17
-16
-15
-14
-15
-17
-19
-21
-23
-24
-24
-24
-22
-21
-21
-21
-23
-25
-28
-31
-33
-33
-32
-30
-27
-24
-22
-22
-23
-26
-31
-35
-38
-38
-34
-26
-14
2
20
38
56
73
86
97
107
115
123
132
140
147
152
152
146
133
113
88
61
33
8
-11
-22
-27
-25
-19
-12
-5
-1
-1
-4
-9
-16
-22
-26
-28
-27
-24
-19
-15
-11
-9
-8
-9
-10
-13
-15
-17
-18
-18
-17
-15
-12
-9
-5
-1
2
4
5
6
5
3
1
-2
-4
-5
-6
-7
-7
-7
-7
-6
-6
-5
-3
-1
2
5
7
9
11
10
9
7
4
1
-1
-2
-1
2
6
11
16
20
22
23
22
21
18
16
15
15
16
18
22
25
28
31
32
33
33
33
33
34
37
40
44
48
52
55
57
57
56
54
53
51
51
52
53
55
57
58
59
58
58
56
55
55
56
57
58
59
59
57
53
48
42
35
28
23
19
17
17
17
18
18
18
16
14
11
8
5
2
1
0
-1
-2
-3
-5
-8
-11
-14
-17
-20
-21
-21
-20
-17
-13
-9
-6
-4
-3
-4
-7
-11
-17
-21
-25
-28
-28
-27
-24
-21
-18
-15
-14
-13
-14
-15
-17
-18
-19
-19
-19
-19
-18
-18
-17
-17
-16
-16
-15
-14
-13
-12
-11
-11
-11
-12
-12
-11
-11
-10
-9
-8
-8
-8
-9
-11
-12
-12
-12
-11
-10
-8
-6
-5
-5
-6
-8
-10
-11
-12
-12
-11
-10
-9
-8
-9
-11
-14
-17
-21
-24
-26
-27
-26
-25
-22
-20
-18
-16
-14
-14
-13
-13
-14
-14
-15
-15
-16
-17
-17
-18
-18
-18
-17
-17
-17
-17
-17
-18
-19
-20
-21
-22
-22
-22
-22
-21
-20
-18
-17
-16
-15
-14
-14
-14
-14
-15
-15
-16
-17
-19
-20
-22
-23
-24
-26
-27
-29
-30
-31
-31
-31
-30
-28
-26
-24
-22
-20
-19
-18
-18
-18
-18
-19
-19
-19
-19
-19
-19
-20
-21
-22
-22
-23
-22
-20
-16
-12
-8
-4
-1
0
1
0
-3
-5
-8
-10
-11
-11
-11
-10
-10
-10
-10
-11
-12
-14
-16
-19
-21
-24
-26
-29
-31
-32
-33
-33
-33
-31
-30
-28
-26
-25
-24
-24
-25
-25
-26
-27
-27
-27
-27
-27
-27
-27
-28
-28
-28
-28
-28
-29
-29
-31
-34
-37
-41
-43
-43
-40
-32
-20
-3
18
40
62
83
101
116
127
136
144
150
156
161
163
162
155
142
122
96
66
35
6
-19
-36
-46
-47
-42
-33
-22
-12
-5
-1
-1
-4
-9
-14
-17
-19
-19
-17
-14
-11
-7
-5
-4
-4
-5
-6
-7
-8
-8
-8
-7
-6
-5
-3
-2
-2
-2
-3
-4
-6
-8
-9
-9
-8
-6
-2
2
7
10
12
12
9
5
-1
-6
-10
-12
-13
-11
-7
-3
1
4
5
6
5
5
5
6
9
12
15
18
21
22
22
22
21
20
20
21
23
26
29
32
34
36
38
39
40
41
42
44
46
48
50
53
55
57
59
61
63
65
66
67
68
68
66
64
61
58
54
51
48
46
45
46
47
49
51
53
54
54
52
48
44
39
35
31
29
28
28
28
28
28
26
22
18
13
8
4
1
0
0
2
4
5
7
7
6
4
1
-2
-6
-9
-12
-15
-17
-18
-19
-19
-17
-15
-11
-7
-3
0
3
4
3
1
-2
-6
-10
-14
-17
-19
-21
-22
-23
-23
-23
-22
-21
-19
-17
-14
-10
-7
-4
-2
-1
-2
-3
-4
-6
-7
-7
-6
-6
-5
-4
-4
-4
-5
-6
-6
-6
-6
-4
-3
-1
0
0
0
0
-1
-1
0
1
3
5
6
6
4
1
-4
-9
-14
-19
-21
-22
-20
-17
-13
-10
-7
-6
-6
-8
-10
-12
-14
-14
-14
-14
-13
-12
-12
-13
-14
-16
-17
-19
-19
-19
-18
-16
-15
-14
-13
-13
-13
-14
-14
-15
-15
-15
-15
-15
-15
-15
-16
-16
-15
-14
-11
-8
-5
-3
-1
-1
-3
-7
-12
-20
