7
3
0
-3
-5
-6
-7
-7
-6
-6
-5
-5
-5
-6
-6
-7
-8
-8
-8
-8
-7
-7
-6
-5
-5
-4
-4
-3
-3
-2
-2
-2
-1
-1
-2
-2
-3
-4
-5
-6
-6
-6
-6
-6
-5
-4
-3
-2
-2
-1
-1
-1
-1
-2
-3
-4
-6
-7
-8
-9
-9
-9
-8
-7
-6
-5
-4
-3
-4
-4
-5
-6
-7
-7
-7
-6
-5
-4
-3
-2
-2
-1
-1
-1
-1
-1
-1
-1
-1
-1
-1
0
1
2
3
5
6
8
9
9
9
8
5
2
-2
-6
-9
-11
-12
-12
-11
-9
-6
-4
-3
-3
-4
-5
-8
-10
-13
-15
-16
-16
-16
-15
-13
-12
-10
-9
-7
-6
-4
-3
-2
-2
-2
-2
-3
-4
-6
-8
-9
-11
-13
-15
-17
-19
-21
-21
-19
-15
-7
6
23
43
65
88
108
125
134
137
131
118
99
76
53
31
12
-2
-11
-14
-14
-12
-9
-6
-4
-4
-5
-6
-8
-10
-11
-11
-10
-9
-7
-7
-6
-7
-8
-9
-11
-11
-12
-11
-11
-10
-9
-9
-9
-9
-10
-11
-13
-13
-14
-14
-13
-12
-11
-10
-10
-10
-10
-11
-11
-12
-12
-11
-10
-8
-6
-4
-2
-2
-2
-3
-5
-7
-9
-11
-11
-11
-9
-7
-5
-4
-3
-3
-3
-3
-3
-3
-2
0
2
4
5
5
5
3
2
0
-1
-1
1
3
7
10
14
16
17
17
16
15
14
13
14
15
17
19
21
22
23
23
22
22
21
20
20
20
21
22
22
23
23
23
22
21
19
18
17
15
14
13
12
11
10
9
8
7
7
6
5
5
4
3
1
0
-1
-3
-4
-5
-6
-7
-8
-8
-8
-7
-6
-5
-4
-3
-3
-3
-4
-6
-7
-8
-9
-9
-8
-7
-5
-3
-2
-1
-1
-1
-2
-3
-4
-4
-4
-4
-4
-5
-5
-6
-7
-8
-9
-10
-11
-10
-9
-8
-5
-3
-1
0
1
0
-1
-3
-5
-7
-8
-9
-8
-7
-5
-3
-2
-1
-1
-2
-3
-5
-6
-6
-6
-5
-3
-2
-1
0
0
0
-1
-1
-1
-1
-1
0
1
1
1
0
-2
-3
-5
-6
-7
-8
-8
-8
-8
-7
-7
-7
-6
-6
-5
-5
-4
-3
-2
-2
-2
-2
-2
-2
-3
-3
-3
-2
-1
0
1
2
3
4
4
4
3
2
1
1
0
0
1
2
3
5
5
6
5
4
2
0
-2
-3
-4
-5
-5
-4
-4
-3
-3
-3
-3
-4
-5
-5
-6
-6
-7
-7
-7
-7
-7
-7
-7
-7
-6
-6
-7
-7
-8
-10
-11
-12
-12
-12
-11
-9
-8
-7
-7
-8
-11
-15
-19
-22
-22
-18
-9
6
26
50
76
102
125
142
151
153
145
131
111
88
64
41
22
7
-4
-11
-13
-14
-12
-10
-8
-7
-6
-6
-7
-8
-8
-9
-10
-10
-10
-9
-9
-9
-9
-9
-10
-11
-11
-12
-13
-13
-12
-12
-11
-10
-9
-8
-8
-9
-10
-11
-12
-13
-13
-13
-13
-13
-12
-12
-11
-11
-11
-11
-11
-10
-9
-8
-8
-7
-7
-7
-7
-7
-7
-7
-7
-6
-5
-4
-3
-2
-1
-1
-1
-2
-3
-3
-4
-4
-4
-4
-3
-2
-1
0
1
1
1
0
0
1
1
3
5
7
10
12
14
14
15
14
14
13
12
12
12
13
14
15
16
17
17
18
19
20
20
21
21
21
20
18
16
14
12
11
10
11
12
13
13
13
12
10
7
4
2
0
-1
-1
0
1
2
2
2
1
-1
-4
-6
-8
-9
-9
-9
-8
-8
-7
-7
-7
-7
-8
-9
-9
-10
-10
-10
-10
-10
-9
-8
-8
-7
-6
-6
-5
-5
-5
-5
-5
-5
-5
-6
-7
-7
-8
-10
-11
-11
-12
-12
-12
-11
-10
-8
-7
-6
-5
-5
-5
-6
-7
-8
-9
-10
-11
-11
-10
-10
-9
-8
-7
-7
-6
-6
-6
-6
-6
-6
-6
-6
-6
-6
-6
-6
-7
-8
-8
-9
-9
-9
-8
-8
-7
-7
-6
-6
-6
-6
-6
-6
-6
-6
-6
-5
-5
-5
-5
-5
-5
-5
-6
-5
-5
-5
-5
-4
-5
-5
-5
-6
-6
-5
-4
-3
-1
0
2
3
3
2
1
0
-1
-2
-1
-1
0
2
2
2
2
1
-1
-3
-5
-6
-7
-7
-7
-7
-7
-8
-9
-10
-12
-13
-14
-14
-13
-12
-11
-10
-9
-8
-8
-9
-10
-10
-11
-11
-10
-10
-9
-9
-9
-9
-9
-9
-10
-11
-13
-15
-17
-21
-24
-27
-28
-26
-20
-9
8
29
54
81
106
127
142
150
148
138
121
99
75
51
30
13
1
-6
-9
-9
-8
-7
-6
-7
-9
-12
-15
-17
-19
-19
-19
-17
-15
-13
-11
-10
-9
-9
-9
-9
-10
-10
-10
-11
-12
-13
-14
-16
-16
-17
-17
-16
-15
-14
-13
-12
-12
-12
-13
-14
-14
-14
-14
-14
-13
-12
-11
-10
-10
-10
-10
-10
-10
-10
-10
-9
-9
-8
-8
-8
-8
-9
-9
-10
-10
-10
-9
-9
-8
-8
-7
-7
-7
-6
-6
-6
-5
-4
-3
-2
-2
-2
-2
-2
-2
-2
-1
1
3
5
8
10
11
12
13
13
14
15
16
17
19
20
20
20
19
18
16
15
14
14
15
15
16
16
15
14
12
10
8
7
7
8
9
11
12
12
11
9
6
3
0
-2
-3
-4
-3
-3
-2
-1
-1
-1
-2
-3
-4
-5
-5
-5
-5
-5
-5
-5
-6
-6
-6
-7
-7
-6
-6
-5
-5
-5
-6
-7
-8
-8
-8
-8
-7
-6
-4
-3
-3
-4
-6
-7
-9
-10
-10
-10
-8
-6
-4
-3
-3
-4
-6
-9
-12
-15
-17
-18
-18
-16
-14
-12
-10
-10
-10
-11
-12
-13
-13
-13
-12
-10
-8
-6
-5
-5
-6
-8
-10
-12
-14
-14
-14
-12
-10
-8
-6
-5
-5
-6
-7
-8
-10
-10
-10
-8
-7
-4
-3
-1
-1
-1
-2
-3
-5
-6
-7
-7
-7
-6
-4
-3
-1
-1
0
0
-1
-2
-2
-2
-2
-1
0
1
2
3
4
3
3
1
0
-1
-1
-1
-1
0
0
1
0
-1
-2
-4
-6
-8
-10
-12
-14
-15
-17
-18
-18
-19
-19
-19
-18
-17
-16
-15
-14
-13
-13
-13
-13
-14
-14
-14
-15
-15
-15
-16
-16
-16
-17
-17
-17
-17
-17
-17
-18
-20
-23
-27
-32
-37
-40
-42
-40
-32
-18
3
30
62
96
129
158
179
191
191
181
162
137
108
78
52
30
14
3
-3
-7
-8
-9
-9
-10
-12
-14
-15
-16
-17
-18
-18
-18
-18
-19
-20
-20
-21
-21
-21
-21
-21
-21
-21
-20
-20
-19
-19
-18
-17
-17
-17
-17
-17
-18
-18
-17
-17
-16
-16
-15
-14
-14
-15
-15
-16
-16
-16
-16
-15
-14
-13
-12
-12
-11
-11
-11
-12
-12
-12
-12
-12
-11
-11
-10
-10
-10
-9
-9
-9
-9
-8
-7
-6
-5
-4
-4
-3
-3
-4
-4
-5
-5
-5
-4
-3
-1
2
4
6
9
10
11
12
13
14
15
16
17
18
19
19
20
20
20
20
21
22
23
23
24
23
23
22
20
19
18
17
17
16
16
15
14
12
10
7
5
3
1
-1
-2
-3
-3
-3
-3
-3
-3
-2
-2
-1
-1
-2
-3
-4
-5
-7
-8
-9
-9
-9
-8
-8
-7
-7
-6
-7
-7
-7
-7
-7
-6
-5
-5
-4
-5
-6
-7
-9
-10
-11
-12
-12
-11
-10
-9
-7
-6
-5
-5
-5
-5
-5
-6
-6
-6
-6
-6
-6
-6
-6
-5
-5
-3
-2
0
1
3
3
3
2
0
-3
-6
-8
-10
-11
-11
-10
-8
-5
-2
0
2
2
2
1
0
-1
-2
-3
-3
-3
-2
-2
-1
0
0
1
1
2
2
3
4
4
4
4
3
3
3
3
3
4
5
7
9
10
11
12
12
12
12
12
11
10
10
8
7
6
4
2
0
-1
-2
-3
-4
-5
-6
-7
-8
-10
-11
-12
-13
-13
-12
-11
-9
-8
-7
-6
-6
-7
-8
-8
-9
-9
-8
-8
-8
-8
-9
-10
-12
-13
-15
-15
-16
-15
-15
-16
-19
-23
-28
-34
-39
-42
-40
-31
-15
9
39
74
111
145
173
192
200
196
182
158
129
98
68
41
20
6
-3
-7
-7
-6
-4
-3
-4
-5
-8
-10
-13
-15
-16
-17
-17
-16
-16
-17
-17
-18
-18
-19
-19
-19
-19
-19
-19
-19
-19
-19
-19
-19
-18
-16
-15
-13
-12
-11
-11
-11
-12
-12
-13
-13
-13
-13
-14
-14
-14
-15
-15
-15
-15
-15
-14
-13
-12
-12
-12
-13
-14
-15
-16
-16
-15
-14
-12
-10
-8
-7
-6
-7
-8
-9
-10
-10
-10
-9
-7
-5
-4
-3
-2
-3
-3
-3
-2
0
3
7
11
14
16
17
16
15
12
10
9
9
11
13
16
19
21
22
22
21
19
18
17
16
16
17
18
18
18
17
16
15
13
12
11
10
9
9
8
7
6
4
2
-1
-3
-5
-7
-8
-9
-9
-9
-9
-8
-8
-8
-8
-9
-9
-10
-11
-12
-13
-13
-14
-14
-15
-16
-17
-18
-18
-18
-17
-16
-15
-13
-12
-11
-11
-12
-13
-14
-16
-17
-18
-19
-19
-19
-19
-19
-19
-19
-19
-19
-18
-17
-16
-15
-14
-13
-13
-13
-13
-14
-14
-15
-15
-14
-14
-14
-14
-15
-15
-15
-16
-16
-17
-17
-17
-17
-16
-16
-16
-16
-15
-15
-15
-15
-15
-15
-15
-16
-16
-16
-15
-13
-11
-9
-7
-5
-3
-3
-4
-5
-7
-9
-11
-12
-12
-12
-10
-8
-6
-4
-2
-1
0
1
1
0
-1
-3
-4
-7
-9
-12
-14
-16
-18
-19
-19
-20
-20
-20
-21
-21
-21
-22
-21
-21
-19
-18
-16
-15
-15
-15
-16
-18
-20
-21
-23
-23
-23
-23
-22
-21
-20
-20
-20
-20
-20
-21
-21
-22
-24
-26
-30
-35
-41
-47
-51
-52
-48
-37
-18
7
39
73
108
139
163
178
182
175
159
135
107
78
51
28
9
-3
-11
-14
-15
-15
-13
-13
-12
-13
-15
-17
-19
-20
-22
-23
-22
-22
-20
-19
-18
-17
-18
-19
-21
-23
-25
-26
-26
-25
-23
-21
-18
-16
-15
-15
-16
-17
-19
-20
-21
-21
-21
-20
-18
-17
-15
-15
-14
-14
-15
-15
-14
-14
-14
-13
-13
-13
-13
-13
-14
-14
-15
-14
-14
-13
-13
-12
-11
-10
-10
-9
-9
-8
-8
-7
-6
-6
-6
-6
-6
-5
-5
-3
-1
1
4
8
11
13
15
17
18
18
18
18
18
18
17
17
16
15
15
15
16
18
20
22
25
27
29
29
29
27
26
24
22
20
19
18
18
18
19
19
20
20
19
18
17
15
13
10
8
7
6
5
5
6
6
6
6
6
5
5
4
4
4
6
7
9
10
10
10
9
7
5
3
1
0
0
1
3
4
5
5
5
4
3
3
2
2
3
4
6
7
8
8
8
6
5
3
2
1
1
2
4
6
8
10
12
13
13
13
12
11
10
10
9
9
9
10
10
10
11
11
11
10
10
10
9
10
10
11
12
13
15
16
18
19
20
20
20
19
18
18
17
16
16
17
18
19
20
22
23
25
26
27
28
29
30
30
30
29
28
26
23
21
18
15
14
13
12
13
13
13
13
12
10
8
6
5
4
4
5
6
8
9
9
9
8
7
5
3
2
2
2
3
4
5
6
7
7
8
7
6
4
2
-3
-8
-13
-18
-21
-21
-15
-3
16
42
73
106
139
168
190
203
205
196
178
153
125
96
70
48
32
22
16
13
13
13
13
12
11
9
8
6
5
5
5
4
4
3
2
1
0
0
0
0
0
0
0
0
-1
-2
-3
-3
-3
-3
-2
-1
0
0
-1
-2
-3
-4
-4
-4
-4
-3
-1
0
1
1
1
1
1
0
0
1
1
2
3
3
3
2
1
-1
-2
-3
-4
-4
-3
-3
-1
0
1
2
3
4
4
4
3
2
1
0
-1
-1
-1
0
2
5
8
11
14
16
17
18
17
16
15
14
13
12
12
13
14
16
17
18
19
19
19
18
17
16
15
15
16
17
18
19
19
19
18
17
14
12
10
8
6
5
4
4
3
1
0
-2
-3
-5
-5
-6
-5
-5
-4
-4
-4
-6
-8
-11
-15
-18
-21
-23
-24
-24
-23
-23
-22
-21
-21
-22
-22
-23
-23
-22
-21
-20
-19
-17
-17
-17
-18
-20
-22
-25
-26
-27
-27
-26
-24
-22
-20
-19
-20
-21
-23
-25
-27
-29
-29
-29
-28
-26
-24
-22
-21
-21
-21
-21
-22
-22
-23
-23
-24
-25
-25
-26
-26
-26
-25
-24
-23
-23
-23
-24
-26
-28
-30
-32
-32
-30
-28
-24
-20
-17
-15
-14
-15
-17
-19
-21
-23
-23
-22
-20
-19
-17
-16
-16
-17
-18
-19
-21
-23
-24
-25
-26
-27
-28
-28
-29
-29
-28
-28
-28
-28
-29
-30
-31
-33
-34
-35
-35
-35
-34
-32
-31
-31
-31
-31
-32
-33
-34
-35
-35
-35
-35
-34
-33
-33
-34
-35
-36
-39
-43
-47
-52
-57
-61
-63
-62
-56
-45
-27
-4
23
53
83
109
130
142
145
138
123
101
75
48
24
3
-14
-25
-31
-34
-35
-34
-33
-33
-34
-35
-37
-39
-41
-42
-43
-44
-45
-44
-44
-43
-42
-40
-38
-37
-36
-35
-36
-38
-40
-42
-44
-45
-45
-44
-42
-39
-37
-35
-34
-34
-36
-37
-39
-40
-41
-41
-39
-38
-36
-34
-33
-32
-32
-33
-33
-34
-34
-34
-34
-33
-33
-34
-34
-35
-35
-36
-35
-35
-33
-31
-29
-28
-27
-26
-26
-27
-28
-28
-28
-28
-26
-24
-22
-20
-18
-16
-16
-16
-16
-16
-16
-15
-14
-12
-9
-7
-4
-2
-1
-1
-1
-1
-1
-1
0
1
3
5
6
7
7
7
6
5
4
4
4
4
4
5
5
4
3
2
1
0
-1
-2
-3
-3
-4
-6
-7
-9
-12
-14
-15
-15
-14
-12
-10
-8
-6
-5
-6
-7
-10
-12
-15
-16
-17
-17
-15
-14
-12
-10
-9
-9
-9
-9
-10
-10
-10
-10
-9
-8
-7
-7
-7
-7
-8
-9
-10
-10
-10
-9
-7
-5
-3
-2
-1
0
-1
-1
-2
-3
-3
-3
-3
-2
-1
0
0
0
0
0
0
0
0
0
1
1
1
0
0
0
1
1
3
4
6
7
8
8
8
7
6
5
4
4
5
7
9
11
12
13
14
14
13
13
13
13
14
15
16
18
19
20
21
22
22
22
21
20
19
17
15
13
12
10
9
9
9
9
10
10
10
10
10
10
9
9
10
10
11
12
12
12
12
11
9
8
7
6
6
6
7
8
9
10
11
11
10
9
6
3
-1
-5
-10
-13
-15
-12
-4
10
30
55
83
112
138
158
170
172
164
148
126
101
76
54
36
24
16
13
12
13
13
13
13
11
10
8
7
6
6
6
6
6
6
6
5
5
4
4
4
4
5
5
6
6
7
7
7
7
7
6
6
5
5
4
4
5
5
5
6
6
7
7
7
7
7
7
8
8
8
8
8
8
7
6
5
4
3
3
3
3
3
4
5
5
6
7
8
10
11
12
13
13
13
13
12
11
10
10
10
10
12
14
16
18
20
22
23
24
25
26
27
28
30
32
34
36
36
35
34
31
28
26
24
23
23
24
26
27
29
30
30
30
28
27
25
24
23
22
21
21
20
20
19
18
17
16
15
15
14
14
13
12
11
9
8
6
5
4
3
3
3
3
4
5
6
6
6
5
4
3
1
0
-1
-1
0
1
3
5
6
7
7
7
5
3
1
-1
-2
-3
-3
-2
-1
0
0
0
0
0
0
1
2
2
3
4
4
3
2
1
0
-1
-1
0
1
3
4
4
4
3
2
0
-1
-2
-3
-3
-2
-2
-2
-2
-3
-4
-4
-4
-4
-3
-1
0
2
3
4
4
3
2
1
-1
-1
-2
-2
-1
1
3
5
7
10
11
13
13
13
12
11
9
8
7
5
4
3
2
1
-1
-3
-5
-7
-8
-9
-10
-10
-9
-8
-8
-7
-8
-9
-10
-11
-11
-12
-12
-12
-11
-11
-11
-12
-13
-13
-14
-14
-14
-14
-13
-11
-10
-9
-9
-9
-11
-14
-18
-23
-28
-33
-36
-35
-29
-18
0
24
52
81
108
129
144
149
144
131
111
87
62
40
21
7
-3
-8
-11
-12
-13
-14
-15
-17
-18
-20
-20
-21
-20
-20
-20
-21
-22
-24
-25
-27
-27
-27
-27
-25
-23
-22
-20
-19
-18
-18
-18
-18
-19
-20
-20
-21
-21
-22
-22
-22
-22
-22
-22
-22
-22
-22
-22
-22
-22
-22
-22
-23
-23
-23
-23
-24
-24
-24
-24
-23
-23
-22
-21
-20
-19
-19
-19
-19
-20
-21
-22
-22
-22
-22
-21
-19
-17
-15
-13
-11
-9
-8
-8
-7
-7
-8
-8
-8
-8
-8
-7
-7
-6
-5
-4
-3
-2
-1
0
0
1
1
2
2
2
2
2
2
2
3
3
4
4
5
5
4
4
3
2
1
-1
-2
-3
-5
-5
-6
-7
-7
-7
-7
-8
-8
-8
-9
-9
-10
-11
-12
-13
-14
-15
-16
-17
-18
-18
-19
-19
-19
-18
-18
-18
-17
-17
-18
-18
-19
-19
-19
-18
-17
-17
-16
-16
-16
-17
-18
-19
-20
-21
-21
-20
-19
-19
-19
-19
-20
-22
-23
-24
-24
-23
-22
-20
-18
-17
-17
-17
-18
-19
-20
-21
-20
-19
-17
-15
-14
-13
-13
-14
-15
-17
-18
-18
-18
-18
-17
-16
-15
-15
-15
-16
-16
-16
-16
-15
-13
-11
-9
-8
-7
-7
-8
-9
-10
-10
-11
-10
-10
-9
-9
-8
-7
-6
-5
-4
-3
-1
0
1
2
2
2
1
1
1
0
0
0
0
-1
-2
-5
-7
-10
-12
-13
-13
-12
-10
-8
-5
-4
-3
-4
-5
-8
-11
-13
-14
-14
-13
-10
-8
-6
-4
-4
-4
-6
-7
-8
-9
-9
-8
-6
-4
-3
-3
-5
-8
-13
-18
-24
-28
-30
-28
-21
-9
9
32
58
86
112
135
151
158
156
144
125
101
75
50
29
14
4
0
0
2
4
4
3
0
-4
-9
-12
-14
-14
-12
-8
-5
-2
-1
-1
-2
-4
-7
-9
-11
-12
-12
-12
-11
-10
-9
-8
-8
-7
-7
-6
-6
-6
-7
-8
-9
-11
-12
-12
-13
-12
-11
-10
-9
-8
-8
-8
-9
-10
-10
-10
-9
-8
-6
-5
-4
-4
-5
-6
-7
-7
-7
-7
-5
-3
-1
1
2
2
1
0
-1
-2
-2
-1
1
4
7
10
12
13
14
13
12
10
8
7
7
7
9
11
14
17
19
21
23
23
23
23
21
21
20
20
20
21
22
23
24
24
24
23
23
22
21
21
20
19
18
17
15
13
11
9
8
7
7
7
8
8
8
8
7
6
4
2
0
-1
-1
-1
-1
0
1
1
1
0
-1
-2
-3
-3
-3
-3
-2
-1
0
1
1
1
0
-1
-2
-3
-3
-3
-2
-1
-1
-1
-1
-1
-2
-3
-3
-3
-3
-1
0
1
2
2
2
1
0
-1
-2
-3
-3
-2
-2
-1
0
1
1
1
0
0
-1
-2
-2
-3
-3
-3
-3
-3
-4
-3
-3
-2
-1
0
1
2
2
2
2
1
0
-1
-2
-2
-1
0
2
5
7
8
8
8
7
5
4
3
3
4
5
7
9
11
12
12
11
9
8
7
6
7
8
9
10
10
9
7
4
1
-2
-5
-6
-7
-6
-5
-4
-3
-2
-2
-3
-5
-6
-8
-8
-9
-8
-7
-6
-5
-5
-5
-5
-5
-5
-5
-5
-5
-4
-4
-4
-4
-5
-6
-7
-9
-11
-13
-16
-18
-20
-21
-19
-14
-5
9
28
50
76
101
123
140
150
151
143
128
108
84
60
38
21
8
-1
-5
-6
-6
-4
-3
-3
-4
-6
-8
-10
-12
-14
-15
-15
-15
-14
-13
-12
-11
-10
-9
-9
-9
-9
-10
-10
-11
-12
-12
-12
-12
-12
-11
-11
-10
-9
-8
-8
-7
-7
-8
-8
-9
-10
-11
-11
-10
-10
-9
-8
-8
-8
-8
-8
-8
-8
-8
-7
-6
-4
-3
-2
-2
-3
-4
-6
-9
-11
-12
-12
-11
-9
-7
-4
-1
1
3
3
3
1
0
-2
-3
-4
-4
-2
-1
2
4
7
9
10
12
12
13
13
13
13
12
12
12
12
13
13
13
14
14
15
16
16
16
16
15
14
13
11
10
8
7
6
5
4
4
4
5
5
6
6
6
5
4
2
-1
-3
-5
-7
-8
-8
-8
-8
-8
-8
-8
-9
-9
-10
-11
-11
-12
-12
-12
-12
-13
-14
-15
-16
-16
-16
-15
-14
-13
-12
-11
-11
-11
-12
-13
-15
-16
-17
-17
-17
-16
-16
-15
-15
-15
-16
-15
-15
-14
-13
-11
-10
-9
-9
-10
-10
-11
-12
-13
-12
-12
-11
-10
-10
-10
-11
-13
-14
-15
-15
-15
-13
-10
-8
-5
-4
-5
-6
-9
-12
-15
-17
-18
-18
-17
-15
-14
-12
-11
-11
-11
-11
-11
-10
-10
-9
-8
-7
-7
-8
-9
-11
-13
-15
-16
-16
-15
-13
-11
-8
-6
-5
-4
-4
-5
-6
-7
-7
-8
-7
-6
-5
-3
-2
0
1
1
0
-2
-4
-7
-10
-12
-14
-15
-15
-14
-12
-10
-8
-7
-7
-8
-10
-12
-14
-16
-16
-16
-15
-13
-11
-10
-10
-11
-12
-13
-15
-16
-16
-16
-15
-15
-14
-14
-14
-15
-15
-16
-16
-17
-17
-19
-22
-26
-30
-33
-32
-27
-16
2
26
54
84
112
134
149
154
149
135
114
89
64
41
23
9
0
-5
-8
-8
-8
-7
-7
-7
-8
-9
-10
-12
-13
-15
-16
-17
-17
-16
-14
-11
-9
-7
-5
-5
-7
-10
-13
-17
-20
-22
-24
-24
-22
-21
-19
-18
-16
-15
-14
-13
-13
-12
-11
-10
-9
-9
-10
-11
-12
-13
-13
-13
-13
-12
-11
-10
-10
-10
-10
-11
-12
-12
-12
-11
-10
-9
-9
-8
-9
-9
-10
-11
-10
-9
-7
-4
-2
1
2
3
3
2
0
-1
-2
-1
0
1
4
6
8
10
11
12
12
13
13
14
14
15
16
16
17
18
18
18
18
17
16
16
15
15
15
16
17
18
18
18
18
17
15
13
10
8
6
4
3
3
3
3
3
3
2
2
1
1
1
2
2
2
2
2
1
-1
-2
-4
-4
-5
-4
-4
-3
-2
-2
-3
-4
-6
-8
-9
-10
-10
-10
-9
-7
-6
-4
-4
-4
-4
-5
-6
-7
-8
-8
-8
-8
-7
-7
-6
-6
-6
-7
-7
-7
-7
-6
-6
-5
-5
-4
-4
-3
-3
-3
-2
-1
0
1
1
2
2
1
0
-2
-3
-4
-5
-4
-4
-3
-1
0
1
1
0
0
-1
-1
-2
-2
-1
-1
0
0
-1
-1
-2
-3
-3
-4
-3
-2
-2
-1
-1
-2
-3
-4
-5
-6
-6
-6
-4
-2
0
1
2
3
2
1
-1
-2
-3
-2
-2
0
1
3
3
4
3
3
2
2
3
5
7
10
12
13
13
12
10
7
3
0
-2
-3
-3
-2
-2
-1
-1
-1
-3
-4
-6
-8
-8
-8
-7
-6
-4
-3
-3
-3
-4
-6
-7
-8
-8
-8
-6
-5
-3
-2
-1
-1
-2
-4
-5
-7
-9
-10
-12
-14
-17
-20
-22
-23
-20
-13
-1
16
39
65
92
117
137
150
155
150
138
119
96
72
49
30
15
5
0
-2
-2
-1
1
2
2
0
-1
-4
-6
-8
-9
-9
-8
-7
-6
-5
-5
-5
-7
-9
-12
-14
-15
-15
-15
-13
-11
-10
-8
-7
-7
-8
-9
-9
-10
-10
-9
-8
-7
-7
-7
-7
-8
-9
-9
-10
-10
-10
-10
-10
-9
-9
-8
-8
-8
-8
-7
-7
-6
-6
-6
-6
-7
-7
-7
-7
-7
-7
-6
-4
-3
-1
0
0
1
1
0
0
-1
-1
0
1
3
5
7
9
11
11
11
11
10
10
10
10
11
13
14
15
15
15
15
14
13
13
14
15
17
20
22
23
23
23
21
19
16
14
12
11
10
10
10
10
10
10
9
8
7
6
5
4
3
2
1
0
-1
-2
-3
-4
-5
-5
-4
-3
-2
-1
-1
-2
-4
-6
-9
-12
-13
-13
-11
-9
-5
-2
0
1
1
-1
-4
-7
-10
-11
-11
-10
-9
-7
-6
-6
-7
-9
-10
-11
-12
-11
-9
-7
-5
-3
-3
-3
-5
-8
-11
-13
-15
-16
-15
-14
-12
-10
-9
-8
-8
-8
-9
-10
-10
-10
-10
-8
-7
-6
-4
-4
-3
-3
-3
-3
-3
-3
-2
-2
-1
-1
-2
-3
-4
-5
-6
-6
-6
-6
-5
-5
-5
-6
-7
-8
-10
-11
-12
-12
-12
-12
-11
-10
-10
-9
-9
-9
-8
-7
-5
-4
-2
-1
0
-1
-2
-3
-4
-5
-6
-6
-6
-5
-5
-4
-3
-3
-2
-2
-2
-3
-3
-4
-4
-4
-5
-5
-5
-5
-4
-4
-5
-6
-7
-9
-11
-13
-14
-15
-16
-15
-14
-13
-13
-12
-13
-14
-15
-17
-18
-18
-18
-16
-14
-11
-8
-7
-6
-7
-8
-11
-13
-16
-17
-18
-18
-18
-17
-17
-18
-20
-24
-27
-29
-29
-26
-17
-4
16
39
65
91
113
130
140
141
133
117
96
72
47
26
8
-4
-12
-15
-15
-13
-11
-10
-10
-10
-12
-14
-16
-18
-19
-19
-19
-19
-18
-18
-18
-18
-18
-18
-17
-16
-15
-13
-12
-10
-10
-9
-10
-11
-13
-15
-17
-18
-19
-19
-19
-17
-16
-14
-12
-11
-10
-11
-12
-13
-14
-15
-16
-15
-14
-11
-8
-6
-4
-3
-3
-5
-7
-9
-10
-11
-11
-10
-9
-7
-6
-5
-5
-5
-6
-7
-7
-6
-5
-3
-1
2
3
4
4
3
1
0
0
0
0
2
4
6
9
11
13
15
16
17
18
18
19
19
18
18
17
16
16
15
15
15
15
15
15
15
16
16
16
16
17
17
17
16
16
15
13
12
10
8
7
6
5
4
3
2
1
-1
-2
-3
-4
-4
-4
-4
-4
-4
-4
-4
-4
-5
-5
-5
-5
-6
-6
-6
-6
-6
-7
-7
-7
-7
-7
-6
-5
-5
-4
-4
-4
-5
-5
-6
-8
-9
-10
-10
-11
-11
-10
-9
-8
-7
-6
-6
-5
-5
-5
-6
-7
-7
-8
-8
-8
-8
-7
-6
-6
-5
-4
-4
-4
-4
-5
-5
-6
-6
-6
-5
-3
-1
0
2
3
2
2
0
-2
-4
-5
-6
-6
-5
-4
-2
-1
-1
-1
-2
-3
-4
-4
-5
-5
-5
-4
-4
-5
-5
-5
-5
-5
-4
-3
-1
0
1
1
1
0
-1
-3
-3
-3
-2
0
2
5
6
7
7
6
5
4
3
3
4
6
8
10
11
11
9
7
4
0
-3
-6
-7
-8
-7
-7
-6
-5
-5
-6
-7
-8
-8
-9
-8
-8
-7
-5
-4
-4
-4
-5
-5
-6
-7
-7
-7
-6
-6
-6
-6
-7
-8
-10
-11
-12
-12
-12
-11
-11
-11
-12
-15
-18
-20
-21
-18
-10
3
23
47
73
100
123
140
149
148
138
121
99
74
51
30
15
4
-1
-4
-4
-4
-4
-5
-7
-8
-10
-11
-11
-10
-9
-8
-7
-8
-9
-12
-14
-16
-17
-17
-16
-14
-11
-8
-5
-4
-3
-4
-7
-9
-12
-14
-16
-16
-15
-13
-11
-9
-7
-6
-6
-7
-9
-10
-12
-13
-13
-12
-11
-10
-8
-7
-7
-6
-7
-7
-8
-9
-9
-9
-10
-10
-10
-9
-9
-7
-6
-4
-2
0
2
2
2
2
1
0
-1
-1
0
1
2
3
4
5
5
5
5
5
6
7
9
10
12
13
13
13
13
13
13
13
15
16
18
19
20
21
21
20
20
20
20
20
20
20
19
18
16
15
13
12
11
10
10
10
9
8
6
4
2
0
-1
-2
-1
0
1
2
2
1
-1
-3
-6
-9
-11
-12
-12
-11
-9
-7
-5
-3
-3
-3
-5
-7
-9
-11
-13
-13
-13
-12
-10
-8
-7
-6
-5
-6
-7
-9
-10
-12
-13
-13
-12
-11
-10
-9
-8
-8
-7
-8
-8
-9
-10
-11
-11
-11
-11
-10
-9
-8
-8
-8
-8
-9
-10
-11
-13
-14
-15
-14
-14
-12
-10
-8
-7
-6
-5
-5
-6
-7
-8
-9
-9
-9
-8
-7
-6
-4
-3
-2
-2
-2
-2
-4
-5
-7
-8
-9
-9
-9
-9
-8
-8
-7
-7
-6
-6
-6
-7
-7
-7
-7
-7
-8
-8
-8
-7
-7
-6
-4
-3
-1
0
0
0
-1
-1
-1
-1
-1
1
2
4
4
4
3
1
-1
-4
-6
-7
-7
-6
-5
-3
-2
-2
-3
-5
-7
-9
-11
-13
-13
-13
-12
-10
-9
-8
-7
-7
-7
-8
-9
-10
-11
-12
-12
-12
-12
-11
-11
-11
-11
-11
-11
-11
-11
-11
-12
-14
-16
-19
-22
-23
-22
-17
-6
10
31
56
82
107
128
143
149
147
136
119
97
73
51
30
15
3
-4
-8
-9
-9
-8
-8
-8
-9
-10
-11
-12
-12
-13
-13
-13
-13
-13
-13
-13
-14
-14
-14
-14
-13
-12
-11
-9
-8
-6
-6
-6
-7
-9
-11
-14
-15
-16
-16
-15
-13
-10
-8
-6
-5
-5
-6
-8
-10
-13
-15
-16
-17
-17
-17
-16
-15
-14
-13
-12
-12
-11
-10
-9
-8
-7
-6
-5
-5
-4
-4
-4
-4
-4
-5
-5
-6
-6
-5
-5
-5
-4
-3
-3
-2
-1
0
1
2
3
5
7
10
12
13
14
15
15
16
16
17
18
19
20
22
22
22
21
19
17
15
13
12
12
14
16
19
21
22
22
21
18
15
12
8
6
4
4
4
4
5
6
6
6
6
5
4
2
1
-1
-3
-5
-7
-8
-9
-10
-10
-9
-8
-7
-6
-6
-5
-5
-5
-6
-6
-6
-7
-7
-7
-7
-7
-7
-7
-8
-8
-8
-8
-8
-8
-8
-7
-7
-7
-7
-7
-7
-7
-7
-7
-7
-8
-8
-8
-8
-7
-7
-7
-7
-8
-8
-8
-9
-9
-10
-10
-10
-9
-9
-8
-7
-7
-7
-7
-7
-7
-7
-7
-7
-7
-6
-6
-6
-6
-6
-7
-8
-8
-8
-8
-7
-6
-5
-3
-2
-2
-3
-4
-5
-7
-8
-8
-8
-7
-6
-4
-3
-2
-1
-1
-2
-3
-3
-4
-3
-2
-1
0
1
1
1
0
0
-1
-2
-2
-2
-1
0
1
2
4
5
7
8
9
9
9
8
6
3
0
-2
-5
-6
-8
-8
-8
-8
-8
-8
-9
-9
-9
-9
-9
-8
-7
-6
-6
-6
-6
-7
-8
-9
-10
-10
-9
-8
-7
-6
-5
-4
-3
-3
-3
-3
-3
-3
-3
-5
-7
-11
-15
-19
-23
-25
-24
-20
-11
3
22
43
67
92
114
132
144
148
145
134
117
95
71
47
26
9
-2
-8
-10
-8
-5
-2
0
1
0
-3
-6
-9
-11
-11
-11
-10
-8
-7
-6
-7
-8
-10
-12
-13
-14
-14
-13
-12
-11
-11
-11
-12
-13
-14
-14
-14
-13
-11
-9
-7
-7
-7
-8
-9
-11
-12
-13
-13
-13
-13
-13
-13
-13
-14
-15
-15
-15
-14
-13
-11
-9
-7
-6
-6
-6
-6
-7
-7
-8
-8
-9
-9
-10
-10
-10
-10
-9
-7
-5
-3
-1
1
2
2
2
2
1
1
1
2
3
5
7
8
10
11
12
13
14
15
16
17
18
18
18
18
18
17
17
18
18
18
19
19
18
17
16
15
14
13
13
12
12
11
10
8
7
5
3
1
-1
-2
-2
-3
-2
-2
-2
-2
-3
-4
-5
-6
-7
-8
-9
-9
-9
-9
-9
-9
-9
-8
-8
-8
-8
-7
-7
-7
-7
-7
-7
-8
-8
-8
-8
-8
-8
-8
-7
-7
-6
-6
-6
-6
-6
-7
-8
-9
-10
-11
-12
-12
-12
-12
-12
-11
-11
-11
-11
-11
-11
-11
-12
-12
-12
-12
-11
-10
-9
-8
-7
-6
-6
-6
-7
-9
-10
-11
-11
-11
-11
-10
-8
-7
-6
-5
-4
-3
-3
-3
-3
-3
-4
-4
-6
-7
-8
-9
-10
-11
-11
-10
-9
-8
-7
-7
-6
-6
-6
-5
-5
-4
-3
-2
-2
-1
-1
-2
-2
-3
-4
-4
-4
-3
-2
-1
0
0
0
-1
-2
-3
-4
-4
-4
-3
-2
-1
-1
-1
-1
-2
-4
-5
-6
-7
-7
-7
-6
-6
-5
-5
-6
-6
-7
-8
-8
-8
-8
-7
-6
-5
-5
-5
-5
-6
-6
-7
-7
-6
-6
-5
-4
-4
-5
-6
-8
-11
-13
-16
-17
-17
-17
-17
-17
-17
-18
-19
-18
-15
-8
4
22
44
70
97
122
141
153
156
149
133
111
85
59
36
17
4
-4
-7
-7
-5
-4
-3
-4
-6
-8
-10
-12
-14
-14
-14
-13
-13
-13
-14
-15
-16
-17
-18
-18
-17
-15
-14
-12
-10
-9
-9
-9
-10
-11
-12
-12
-13
-12
-11
-10
-8
-7
-6
-6
-6
-7
-8
-10
-11
-12
-13
-12
-11
-10
-9
-7
-6
-6
-7
-8
-9
-11
-12
-13
-13
-13
-13
-12
-11
-9
-7
-5
-4
-2
0
1
1
1
0
-1
-2
-4
-4
-5
-4
-3
-1
1
3
5
7
9
10
11
12
14
15
16
17
18
19
20
20
20
20
19
18
18
17
16
15
15
15
15
16
17
18
19
20
21
21
21
20
18
16
14
11
8
5
3
2
2
2
2
3
3
3
3
2
0
-1
-3
-4
-5
-5
-5
-4
-4
-3
-3
-3
-4
-5
-6
-7
-8
-8
-9
-9
-8
-8
-8
-8
-7
-7
-7
-7
-7
-8
-8
-8
-8
-8
-7
-6
-5
-3
-2
-1
-1
-1
-2
-4
-5
-7
-8
-9
-9
-8
-8
-7
-7
-7
-8
-9
-10
-11
-12
-12
-11
-10
-9
-8
-8
-7
-8
-8
-9
-9
-9
-8
-7
-6
-5
-5
-5
-5
-6
-6
-7
-6
-6
-5
-4
-3
-2
-2
-2
-3
-4
-4
-4
-4
-3
-2
-1
0
-1
-2
-3
-5
-6
-7
-8
-7
-6
-5
-3
-2
-2
-2
-2
-3
-4
-5
-5
-5
-4
-3
-1
0
1
2
2
3
3
3
4
4
4
4
4
4
3
2
1
0
-1
-3
-4
-5
-6
-7
-8
-8
-9
-10
-10
-11
-12
-13
-13
-14
-13
-12
-11
-9
-8
-7
-7
-7
-7
-8
-9
-9
-9
-9
-9
-8
-8
-8
-8
-8
-9
-9
-10
-11
-13
-15
-17
-19
-19
-16
-9
3
20
43
68
94
118
136
147
149
141
126
105
81
56
35
17
5
-2
-6
-6
-6
-5
-4
-4
-5
-6
-7
-7
-8
-8
-9
-11
-12
-14
-16
-17
-17
-17
-15
-14
-12
-11
-10
-10
-11
-12
-13
-13
-14
-14
-13
-13
-12
-12
-12
-12
-13
-13
-14
-14
-15
-14
-14
-13
-11
-9
-8
-6
-5
-5
-5
-6
-8
-10
-12
-14
-14
-14
-13
-12
-10
-8
-6
-5
-5
-6
-7
-9
-10
-10
-11
-10
-9
-7
-6
-4
-3
-1
-1
0
0
1
1
1
2
3
4
5
6
7
8
9
10
10
10
10
10
11
12
13
15
17
20
22
24
25
25
24
23
22
21
20
19
18
18
17
16
14
12
10
8
6
5
4
3
3
3
3
2
2
1
1
0
-1
-2
-3
-3
-4
-5
-7
-8
-9
-9
-9
-9
-8
-7
-6
-5
-5
-4
-4
-5
-6
-7
-7
-8
-8
-8
-8
-8
-8
-9
-9
-9
-9
-9
-9
-8
-8
-8
-8
-8
-9
-9
-10
-10
-10
-9
-8
-8
-7
-7
-7
-7
-7
-8
-8
-8
-7
-6
-5
-4
-4
-4
-4
-5
-7
-8
-10
-10
-11
-11
-11
-10
-10
-10
-10
-10
-10
-10
-9
-9
-8
-7
-7
-7
-7
-8
-9
-10
-10
-10
-9
-7
-5
-3
-1
1
1
1
-1
-3
-4
-6
-6
-6
-5
-4
-3
-2
-1
-2
-3
-4
-5
-6
-7
-7
-7
-6
-5
-4
-4
-3
-3
-3
-3
-4
-3
-3
-2
-1
1
2
4
5
5
5
4
2
1
-1
-2
-3
-3
-3
-2
-2
-2
-2
-3
-4
-5
-7
-8
-10
-11
-12
-12
-12
-12
-12
-12
-12
-12
-11
-11
-10
-9
-8
-7
-6
-6
-5
-6
-6
-7
-8
-9
-10
-10
-11
-11
-11
-12
-13
-16
-19
-22
-24
-23
-19
-10
5
25
49
76
102
126
144
154
155
147
132
110
86
61
38
19
5
-4
-8
-9
-8
-6
-4
-2
-2
-3
-5
-7
-9
-10
-12
-13
-14
-14
-14
-14
-13
-13
-11
-10
-9
-8
-7
-7
-8
-9
-9
-10
-11
-11
-11
-11
-11
-11
-11
-11
-12
-13
-13
-13
-11
-10
-8
-6
-4
-4
-4
-5
-7
-9
-11
-12
-13
-13
-12
-11
-9
-8
-7
-6
-6
-5
-5
-4
-4
-4
-4
-4
-5
-6
-6
-7
-7
-6
-5
-4
-3
-2
-1
0
0
0
0
0
1
2
4
5
7
9
10
12
13
14
15
16
16
17
17
16
16
16
16
16
17
18
20
22
23
24
24
24
22
21
19
17
16
14
13
12
11
10
8
6
5
4
3
3
3
3
3
2
2
1
-1
-2
-4
-5
-5
-6
-6
-6
-6
-7
-7
-7
-7
-8
-8
-8
-8
-9
-10
-10
-11
-12
-12
-12
-12
-11
-9
-8
-6
-5
-5
-4
-5
-6
-7
-8
-10
-10
-11
-11
-10
-9
-9
-8
-7
-7
-7
-7
-8
-8
-8
-9
-9
-8
-8
-8
-7
-7
-7
-6
-6
-6
-5
-5
-5
-5
-6
-7
-7
-8
-9
-10
-10
-10
-9
-8
-7
-6
-5
-5
-5
-6
-7
-7
-7
-6
-5
-4
-2
-1
0
0
-1
-3
-5
-7
-8
-9
-9
-8
-7
-5
-4
-3
-3
-4
-5
-5
-6
-6
-5
-3
-2
-1
0
-1
-2
-4
-6
-7
-8
-7
-6
-4
-2
0
0
0
-1
-2
-3
-3
-3
-2
0
2
3
5
5
4
2
0
-2
-4
-5
-6
-7
-7
-7
-7
-7
-7
-7
-7
-7
-7
-8
-8
-9
-9
-9
-10
-10
-10
-10
-10
-10
-10
-10
-10
-9
-9
-8
-7
-5
-4
-4
-4
-5
-6
-7
-8
-10
-11
-13
-15
-17
-19
-20
-20
-16
-9
4
21
43
68
93
114
131
140
140
131
115
94
71
48
28
12
1
-5
-8
-8
-8
-7
-8
-8
-9
-11
-12
-12
-12
-12
-12
-12
-12
-13
-13
-14
-15
-16
-16
-16
-16
-15
-13
-12
-11
-10
-9
-9
-9
-9
-10
-10
-11
-11
-12
-11
-11
-10
-9
-8
-7
-7
-7
-8
-9
-10
-11
-12
-12
-12
-11
-10
-9
-8
-8
-7
-6
-6
-6
-6
-6
-7
-7
-8
-8
-8
-8
-7
-6
-5
-3
-2
-1
-1
-1
-2
-3
-4
-4
-4
-2
-1
1
3
5
7
8
9
9
10
11
12
14
15
16
17
18
18
18
18
18
19
20
22
23
25
25
25
23
21
18
15
13
13
13
14
16
19
20
21
20
18
15
12
8
4
1
0
-1
-1
-1
0
0
0
0
-1
-2
-3
-4
-5
-5
-5
-5
-5
-5
-5
-5
-5
-6
-7
-7
-8
-8
-8
-8
-7
-6
-5
-4
-4
-3
-3
-4
-4
-5
-6
-7
-8
-9
-9
-10
-10
-10
-10
-9
-8
-8
-7
-6
-5
-5
-5
-5
-5
-5
-5
-6
-6
-5
-5
-5
-5
-5
-6
-7
-8
-8
-9
-9
-9
-9
-8
-7
-6
-5
-5
-4
-4
-3
-2
-2
-1
-1
-1
-2
-3
-4
-5
-6
-7
-7
-7
-6
-6
-5
-5
-5
-5
-6
-8
-9
-9
-9
-9
-8
-7
-6
-6
-6
-6
-7
-7
-8
-7
-6
-5
-4
-3
-2
-2
-2
-2
-3
-3
-3
-2
-2
-1
0
0
0
0
0
0
1
1
2
4
5
5
6
5
4
3
1
0
-1
-2
-3
-3
-4
-4
-5
-6
-7
-7
-8
-7
-7
-7
-7
-7
-8
-9
-10
-10
-10
-10
-9
-8
-7
-6
-6
-7
-8
-10
-12
-13
-14
-15
-14
-14
-12
-11
-11
-10
-10
-10
-12
-13
-16
-19
-21
-23
-22
-18
-10
2
20
41
65
90
113
131
142
146
141
128
109
86
62
39
20
5
-4
-9
-10
-8
-6
-5
-4
-4
-6
-8
-10
-11
-11
-11
-9
-8
-7
-7
-8
-10
-12
-14
-15
-16
-16
-15
-14
-12
-11
-9
-9
-8
-8
-9
-9
-10
-11
-12
-12
-13
-14
-15
-15
-15
-15
-14
-12
-10
-8
-7
-6
-6
-6
-7
-8
-9
-10
-11
-11
-11
-11
-10
-10
-9
-9
-8
-8
-8
-7
-7
-7
-6
-6
-6
-5
-5
-4
-3
-2
-1
0
1
1
1
1
0
-1
-1
-1
0
2
4
7
10
13
15
17
18
19
19
19
18
18
17
17
17
17
18
19
19
20
20
20
19
19
18
17
17
16
16
17
17
16
16
14
12
9
6
3
0
-2
-3
-4
-4
-3
-3
-3
-3
-4
-5
-7
-7
-8
-8
-7
-6
-5
-5
-4
-4
-5
-6
-6
-7
-7
-7
-7
-6
-4
-3
-2
-2
-2
-3
-4
-5
-7
-9
-10
-11
-11
-10
-9
-8
-7
-7
-7
-8
-9
-11
-12
-13
-13
-12
-10
-7
-5
-3
-2
-2
-3
-5
-7
-9
-10
-10
-9
-8
-7
-5
-5
-5
-6
-7
-9
-11
-12
-13
-13
-12
-11
-9
-8
-7
-6
-5
-5
-5
-5
-5
-6
-6
-7
-7
-7
-6
-5
-3
-2
-2
-2
-3
-4
-6
-8
-9
-10
-10
-9
-7
-6
-4
-2
-1
0
0
0
0
0
-1
-1
-2
-2
-3
-4
-5
-5
-5
-4
-2
0
1
3
4
4
4
3
1
0
-1
-1
-1
0
1
1
1
0
-1
-2
-4
-6
-7
-8
-9
-10
-10
-10
-11
-11
-11
-11
-11
-10
-10
-9
-9
-9
-8
-8
-8
-8
-7
-7
-7
-7
-7
-7
-8
-9
-10
-10
-10
-10
-9
-8
-7
-7
-8
-11
-15
-19
-21
-21
-17
-7
8
28
52
78
103
124
139
146
145
136
120
100
77
55
35
18
6
-1
-5
-7
-7
-7
-6
-7
-8
-9
-11
-12
-12
-13
-13
-12
-12
-12
-12
-12
-12
-12
-13
-13
-13
-13
-13
-13
-13
-12
-12
-12
-11
-10
-9
-9
-9
-9
-9
-10
-11
-12
-12
-12
-11
-11
-10
-10
-10
-11
-11
-12
-13
-13
-13
-12
-11
-10
-9
-8
-7
-7
-7
-8
-8
-9
-9
-9
-9
-10
-10
-10
-10
-10
-9
-8
-8
-7
-6
-5
-5
-5
-6
-6
-6
-6
-4
-2
0
4
7
9
11
12
11
11
10
8
7
7
8
9
11
14
17
19
21
23
23
22
21
20
18
18
17
18
19
20
22
22
22
21
19
17
14
12
10
9
9
9
9
9
8
6
4
1
-2
-5
-7
-8
-8
-8
-8
-7
-6
-6
-5
-4
-4
-3
-3
-2
-1
-1
-2
-2
-3
-5
-6
-7
-8
-9
-10
-10
-10
-9
-9
-8
-7
-6
-6
-6
-6
-7
-8
-9
-9
-9
-9
-8
-8
-7
-6
-6
-6
-7
-8
-9
-10
-11
-10
-9
-8
-7
-7
-6
-6
-7
-7
-8
-8
-7
-7
-6
-6
-6
-7
-8
-9
-10
-10
-10
-8
-6
-3
-2
-1
-1
-2
-4
-6
-8
-10
-10
-10
-9
-8
-6
-6
-6
-6
-7
-9
-10
-11
-11
-11
-10
-9
-8
-8
-7
-7
-8
-8
-9
-9
-9
-9
-8
-6
-4
-2
-1
1
2
2
2
2
1
0
0
0
0
1
2
3
4
4
4
4
3
2
1
1
1
1
2
2
2
1
0
-2
-4
-6
-8
-9
-10
-10
-10
-9
-8
-7
-6
-4
-4
-3
-3
-4
-6
-8
-10
-11
-13
-13
-13
-12
-10
-9
-7
-6
-6
-7
-8
-9
-10
-10
-11
-11
-11
-11
-12
-15
-18
-21
-24
-25
-24
-18
-9
6
25
47
72
96
118
134
145
147
142
129
111
89
66
44
25
11
1
-4
-7
-7
-6
-4
-4
-5
-6
-7
-9
-11
-12
-13
-13
-14
-14
-15
-15
-15
-15
-15
-14
-14
-14
-13
-13
-14
-14
-14
-13
-13
-11
-10
-9
-8
-8
-8
-9
-10
-10
-11
-11
-10
-9
-8
-8
-8
-8
-8
-9
-10
-11
-11
-11
-11
-11
-10
-10
-10
-10
-10
-10
-10
-10
-10
-9
-9
-9
-9
-9
-10
-9
-9
-8
-7
-5
-4
-3
-3
-3
-3
-3
-3
-3
-2
0
2
4
6
8
9
10
10
10
11
12
12
13
13
13
13
13
13
13
13
14
16
18
19
20
20
20
19
18
16
15
15
15
15
15
15
14
13
11
9
6
4
2
1
1
2
3
5
6
6
5
4
1
-1
-3
-6
-7
-8
-8
-7
-7
-7
-7
-7
-8
-9
-9
-9
-9
-8
-7
-6
-5
-4
-5
-6
-7
-9
-10
-11
-10
-9
-7
-5
-3
-2
-2
-2
-3
-5
-6
-8
-9
-10
-10
-9
-9
-9
-9
-8
-9
-9
-9
-8
-8
-7
-7
-6
-6
-6
-6
-6
-6
-7
-7
-8
-8
-8
-8
-8
-8
-7
-7
-7
-7
-8
-8
-8
-8
-7
-6
-6
-5
-5
-5
-5
-6
-7
-8
-8
-8
-7
-6
-5
-4
-3
-3
-4
-5
-6
-8
-9
-9
-8
-7
-5
-3
-1
0
0
-1
-3
-5
-6
-7
-8
-7
-6
-4
-3
-1
0
1
1
1
2
2
3
3
4
4
4
4
3
2
2
1
0
0
0
0
0
-1
-2
-4
-5
-7
-8
-9
-9
-9
-8
-8
-7
-6
-7
-7
-8
-9
-11
-12
-13
-14
-14
-14
-13
-12
-10
-8
-6
-5
-4
-3
-4
-4
-5
-6
-7
-8
-9
-11
-13
-17
-20
-24
-26
-25
-19
-9
7
29
53
79
104
126
141
148
147
138
123
102
80
57
36
19
5
-4
-10
-12
-12
-10
-8
-7
-6
-5
-6
-7
-8
-9
-10
-11
-11
-10
-10
-10
-10
-11
-11
-12
-13
-13
-12
-11
-9
-7
-6
-5
-5
-6
-8
-9
-10
-11
-12
-12
-12
-11
-11
-10
-10
-11
-11
-11
-11
-10
-10
-9
-8
-8
-7
-7
-7
-7
-7
-7
-7
-8
-8
-9
-9
-9
-9
-9
-9
-8
-8
-7
-7
-7
-7
-7
-7
-7
-6
-6
-5
-4
-3
-2
-1
0
1
2
3
4
5
6
7
8
9
10
12
13
14
16
18
19
20
21
21
20
20
19
18
18
18
19
20
21
22
22
22
21
19
16
14
12
11
10
10
10
11
11
10
8
6
4
1
-1
-2
-3
-2
-1
1
3
4
4
3
2
-1
-3
-5
-6
-7
-7
-7
-7
-6
-6
-6
-6
-6
-7
-7
-7
-6
-6
-5
-5
-5
-5
-6
-7
-7
-8
-9
-10
-10
-10
-10
-9
-9
-8
-8
-7
-7
-7
-6
-6
-6
-6
-7
-7
-8
-8
-9
-8
-8
-7
-7
-6
-5
-5
-5
-5
-6
-6
-7
-7
-8
-7
-7
-7
-6
-6
-5
-5
-4
-4
-3
-3
-3
-4
-4
-5
-7
-7
-8
-8
-8
-7
-6
-5
-4
-3
-4
-4
-6
-7
-7
-7
-7
-5
-4
-3
-2
-2
-3
-4
-6
-7
-8
-8
-7
-5
-4
-2
-1
-1
-2
-4
-5
-6
-6
-5
-3
-1
1
3
5
5
4
3
2
1
0
1
2
3
4
4
4
3
2
0
-1
-2
-2
-3
-3
-3
-4
-5
-7
-8
-10
-10
-10
-10
-8
-6
-4
-3
-2
-2
-3
-4
-5
-6
-7
-8
-8
-8
-8
-7
-7
-7
-7
-7
-8
-8
-9
-11
-11
-12
-13
-13
-13
-14
-14
-15
-16
-16
-15
-11
-4
9
26
47
71
95
117
133
143
144
136
120
98
74
49
26
8
-4
-12
-16
-16
-15
-13
-11
-10
-9
-9
-9
-9
-8
-8
-7
-7
-7
-8
-9
-9
-10
-11
-11
-12
-11
-11
-11
-10
-10
-10
-10
-9
-9
-9
-9
-9
-9
-8
-8
-8
-8
-8
-8
-8
-9
-10
-11
-12
-13
-13
-12
-11
-10
-9
-8
-7
-7
-7
-7
-7
-7
-6
-5
-4
-3
-3
-3
-4
-6
-8
-10
-10
-11
-10
-8
-6
-4
-2
-1
0
0
0
0
0
0
0
1
1
2
3
4
5
7
10
13
16
19
20
21
20
18
15
13
11
11
11
13
16
18
20
22
21
20
19
17
15
14
14
14
15
15
16
15
14
13
11
10
9
8
7
6
5
4
3
1
0
-1
-2
-2
-3
-3
-4
-5
-5
-6
-7
-6
-6
-4
-2
-1
0
0
-1
-3
-6
-9
-12
-13
-13
-12
-11
-9
-7
-7
-7
-8
-10
-13
-14
-15
-15
-14
-12
-10
-8
-6
-6
-6
-7
-9
-11
-12
-12
-13
-12
-11
-10
-10
-10
-10
-10
-10
-10
-9
-9
-8
-7
-6
-5
-5
-5
-5
-6
-7
-7
-8
-8
-8
-8
-8
-7
-7
-6
-5
-5
-4
-3
-3
-3
-3
-3
-3
-4
-4
-4
-3
-3
-3
-4
-5
-6
-7
-8
-9
-10
-10
-9
-8
-7
-6
-5
-5
-6
-7
-7
-8
-7
-6
-5
-2
-1
1
1
1
0
-2
-4
-6
-6
-6
-5
-4
-2
-1
0
0
-1
-1
-2
-2
-2
-1
1
2
3
4
3
2
0
-3
-5
-7
-8
-9
-9
-9
-8
-8
-8
-8
-8
-9
-9
-8
-8
-7
-7
-6
-7
-7
-8
-9
-10
-11
-11
-10
-9
-7
-6
-6
-6
-8
-10
-12
-15
-16
-18
-19
-19
-20
-21
-22
-23
-24
-23
-19
-10
3
20
42
65
89
111
128
138
140
134
121
102
79
56
34
16
2
-7
-11
-13
-12
-10
-9
-8
-8
-8
-9
-11
-12
-13
-13
-13
-13
-13
-12
-11
-10
-8
-7
-7
-7
-8
-9
-11
-14
-16
-17
-18
-18
-17
-17
-16
-15
-15
-15
-15
-15
-15
-15
-14
-13
-12
-12
-11
-11
-11
-10
-10
-9
-7
-6
-5
-5
-6
-8
-10
-12
-13
-14
-14
-13
-11
-9
-8
-6
-6
-6
-7
-8
-9
-9
-9
-8
-7
-6
-5
-5
-5
-5
-5
-4
-4
-3
-1
1
3
5
6
7
7
7
7
7
8
10
12
15
17
20
21
22
22
21
20
19
18
17
17
18
18
19
19
19
19
18
17
16
14
13
11
10
8
7
6
6
5
5
5
4
4
3
3
2
1
1
0
-2
-3
-4
-5
-6
-7
-7
-7
-6
-5
-4
-3
-3
-2
-3
-4
-6
-7
-9
-10
-11
-11
-10
-9
-7
-6
-5
-5
-5
-6
-7
-9
-10
-11
-11
-11
-10
-9
-8
-7
-7
-6
-7
-7
-8
-8
-9
-9
-8
-7
-6
-6
-5
-5
-6
-7
-9
-10
-10
-10
-9
-7
-5
-3
-2
-1
-2
-3
-5
-8
-10
-11
-12
-11
-10
-8
-7
-5
-4
-3
-3
-3
-4
-4
-5
-5
-6
-7
-7
-8
-8
-8
-8
-6
-4
-2
-1
1
2
2
2
1
0
-1
-2
-3
-3
-3
-4
-4
-5
-5
-5
-5
-5
-4
-2
-1
0
1
1
1
0
-1
-1
-1
-1
0
2
3
4
4
3
2
0
-1
-2
-3
-4
-4
-4
-4
-5
-6
-7
-8
-9
-9
-9
-9
-8
-7
-6
-6
-6
-7
-9
-10
-11
-12
-12
-11
-10
-9
-8
-7
-7
-8
-9
-11
-12
-12
-13
-13
-13
-13
-14
-16
-18
-19
-19
-15
-7
6
24
47
72
98
121
138
148
149
141
127
107
84
62
41
25
13
6
2
-1
-2
-3
-5
-7
-9
-11
-12
-13
-13
-12
-11
-10
-10
-9
-9
-10
-10
-11
-11
-11
-10
-10
-9
-8
-7
-7
-8
-9
-10
-11
-13
-13
-14
-14
-13
-12
-11
-9
-8
-8
-7
-7
-7
-7
-7
-6
-6
-5
-5
-5
-6
-7
-8
-9
-10
-10
-10
-10
-9
-9
-9
-9
-10
-10
-10
-10
-8
-7
-5
-2
-1
1
1
1
0
-2
-3
-3
-3
-2
-1
2
4
6
7
9
9
10
10
10
10
11
11
12
13
15
16
17
19
20
21
22
22
22
21
20
19
19
19
19
21
22
23
23
22
20
18
15
12
10
8
8
9
10
11
12
12
12
10
8
6
4
2
0
-1
-1
-1
-1
-2
-2
-4
-5
-6
-7
-7
-7
-6
-4
-2
0
2
3
3
3
2
0
-2
-3
-5
-6
-6
-6
-6
-5
-4
-4
-3
-3
-3
-4
-4
-5
-5
-6
-6
-7
-7
-8
-8
-9
-9
-9
-9
-8
-6
-4
-3
-1
0
0
-1
-2
-4
-6
-8
-9
-9
-9
-7
-5
-3
-1
0
0
-1
-2
-3
-4
-4
-3
-2
-1
0
0
0
-2
-5
-8
-10
-12
-12
-11
-8
-5
-2
1
3
3
2
1
-1
-3
-4
-5
-4
-3
-2
0
1
2
3
2
2
1
0
-1
-1
-1
-2
-2
-1
0
1
2
3
4
5
6
7
7
6
5
4
3
2
1
0
-1
-1
0
0
0
0
-1
-2
-3
-5
-7
-8
-9
-10
-10
-9
-8
-7
-6
-5
-4
-3
-3
-3
-3
-4
-4
-4
-5
-5
-6
-6
-7
-8
-9
-10
-10
-10
-9
-8
-8
-9
-11
-14
-18
-23
-26
-27
-23
-13
2
23
48
76
103
126
144
154
155
147
132
111
87
63
41
23
8
-1
-7
-10
-10
-9
-8
-7
-6
-6
-6
-7
-7
-7
-8
-8
-9
-9
-9
-10
-10
-10
-9
-9
-8
-8
-8
-8
-8
-9
-11
-12
-13
-13
-13
-12
-11
-9
-8
-7
-6
-7
-8
-9
-11
-12
-12
-13
-12
-12
-11
-11
-11
-11
-12
-13
-14
-15
-14
-13
-12
-10
-8
-6
-5
-4
-4
-4
-4
-5
-6
-6
-6
-6
-6
-6
-6
-6
-5
-5
-4
-3
-2
-2
-2
-2
-2
-3
-3
-2
-1
0
3
6
9
12
14
15
16
16
16
16
16
17
19
20
22
23
24
24
23
21
19
18
16
16
16
16
16
15
15
14
12
11
9
8
7
7
6
6
6
6
6
5
5
5
5
5
6
5
5
4
3
1
-1
-3
-4
-6
-7
-7
-8
-8
-8
-8
