-5
-5
-5
-6
-6
-7
-7
-7
-7
-6
-5
-3
-2
-1
0
0
0
-2
-3
-5
-6
-7
-7
-7
-5
-4
-2
0
1
1
1
0
-1
-2
-3
-4
-5
-5
-5
-5
-4
-3
-2
0
1
2
2
3
2
2
1
0
-1
-2
-2
-2
-1
-1
0
0
0
-1
-2
-3
-5
-6
-6
-6
-4
-2
0
3
5
5
5
4
2
-1
-3
-6
-7
-8
-7
-6
-5
-3
-2
-2
-1
-2
-2
-3
-4
-4
-4
-4
-3
-3
-2
-2
-2
-2
-2
-3
-3
-3
-3
-3
-2
-2
-2
-3
-4
-5
-6
-7
-8
-8
-7
-6
-5
-5
-4
-4
-5
-5
-6
-6
-7
-6
-6
-5
-4
-3
-3
-3
-3
-3
-4
-5
-6
-6
-7
-7
-8
-8
-8
-8
-7
-7
-7
-7
-7
-7
-8
-8
-9
-9
-10
-10
-10
-10
-10
-10
-10
-10
-9
-9
-9
-8
-8
-8
-8
-7
-7
-7
-7
-7
-7
-6
-6
-5
-4
-4
-4
-4
-4
-5
-6
-6
-6
-6
-6
-6
-6
-6
-6
-7
-7
-8
-8
-8
-9
-8
-8
-8
-8
-8
-8
-8
-8
-8
-8
-7
-7
-7
-7
-7
-7
-7
-7
-7
-6
-6
-5
-3
-2
-1
0
0
-1
-2
-3
-5
-6
-7
-8
-8
-7
-7
-6
-6
-6
-6
-6
-7
-8
-8
-8
-8
-7
-7
-6
-5
-5
-4
-4
-4
-5
-5
-5
-5
-4
-4
-3
-2
-1
0
1
2
2
3
3
3
3
3
3
4
6
8
10
11
13
14
14
14
13
12
11
11
12
13
14
16
17
18
17
16
13
10
7
4
1
-2
-3
-5
-6
-7
-8
-9
-10
-11
-13
-14
-15
-16
-17
-17
-16
-16
-15
-14
-13
-13
-13
-14
-15
-16
-17
-18
-19
-19
-18
-17
-14
-9
-1
11
28
49
76
106
136
166
189
205
209
200
179
147
107
63
19
-19
-51
-73
-86
-91
-90
-84
-78
-71
-64
-59
-54
-50
-45
-39
-33
-27
-21
-16
-13
-11
-10
-10
-10
-9
-9
-8
-7
-6
-5
-5
-5
-6
-7
-8
-9
-10
-10
-9
-8
-6
-5
-3
-2
-1
0
1
1
1
1
0
0
-1
-1
-1
0
0
1
2
3
4
5
5
6
7
7
8
9
10
11
11
12
12
13
13
14
15
16
18
20
22
24
25
26
26
27
26
26
27
28
30
33
36
40
43
46
48
50
51
52
53
54
56
58
61
63
66
68
70
71
72
73
74
75
76
78
79
80
80
79
77
74
72
69
66
64
62
61
59
56
52
47
42
36
30
25
20
18
16
15
15
15
14
12
10
8
4
2
-1
-3
-4
-4
-4
-4
-5
-6
-8
-10
-13
-15
-16
-17
-17
-16
-15
-13
-11
-9
-8
-7
-7
-8
-9
-10
-11
-11
-12
-12
-12
-12
-13
-13
-13
-13
-14
-14
-14
-14
-14
-14
-13
-13
-13
-12
-13
-13
-13
-14
-14
-15
-15
-14
-14
-13
-11
-10
-9
-8
-7
-6
-6
-6
-6
-6
-7
-7
-7
-7
-6
-6
-5
-4
-3
-3
-3
-3
-4
-5
-6
-7
-8
-8
-7
-6
-5
-4
-4
-3
-4
-4
-6
-7
-8
-9
-10
-10
-10
-10
-10
-9
-9
-9
-9
-9
-8
-8
-7
-6
-5
-5
-5
-5
-6
-7
-8
-9
-9
-8
-8
-7
-7
-7
-7
-8
-9
-10
-10
-10
-10
-9
-9
-8
-8
-8
-8
-9
-9
-9
-10
-10
-10
-10
-10
-11
-11
-12
-12
-13
-13
-12
-11
-10
-10
-9
-9
-10
-10
-11
-11
-11
-11
-11
-10
-10
-10
-10
-11
-11
-12
-12
-12
-11
-10
-8
-7
-7
-6
-7
-8
-9
-11
-12
-13
-13
-13
-12
-12
-12
-12
-12
-13
-15
-16
-16
-17
-17
-17
-16
-16
-15
-16
-16
-17
-18
-18
-19
-20
-20
-20
-20
-19
-19
-18
-17
-17
-16
-16
-16
-16
-17
-18
-19
-20
-22
-23
-23
-23
-23
-22
-21
-20
-20
-20
-21
-22
-23
-24
-24
-23
-22
-21
-20
-19
-18
-17
-18
-18
-19
-19
-20
-20
-19
-19
-19
-19
-20
-21
-23
-24
-25
-26
-25
-25
-23
-22
-20
-19
-19
-18
-19
-19
-19
-20
-20
-20
-19
-19
-19
-20
-20
-21
-21
-22
-22
-22
-22
-21
-21
-20
-20
-19
-19
-18
-18
-17
-17
-16
-16
-16
-16
-16
-15
-15
-15
-14
-13
-12
-10
-9
-9
-8
-8
-9
-9
-9
-8
-8
-6
-4
-2
0
2
3
4
4
4
4
3
2
2
2
2
3
4
4
5
4
3
1
-1
-5
-8
-12
-14
-16
-18
-18
-18
-17
-17
-16
-16
-17
-18
-19
-20
-21
-21
-22
-22
-22
-22
-22
-22
-22
-22
-22
-22
-22
-23
-25
-26
-26
-25
-22
-14
-1
18
42
72
104
137
167
191
205
209
199
178
147
109
67
26
-11
-42
-64
-78
-85
-86
-82
-77
-70
-63
-57
-52
-46
-41
-35
-30
-24
-19
-15
-13
-11
-11
-11
-12
-12
-13
-13
-12
-12
-12
-11
-11
-11
-11
-11
-10
-10
-9
-8
-7
-7
-7
-7
-7
-8
-9
-9
-10
-10
-10
-10
-9
-8
-6
-5
-4
-2
-1
-1
0
0
0
0
-1
-1
-2
-2
-2
-2
-2
0
1
4
6
9
12
14
16
17
17
17
16
16
16
16
17
19
21
24
27
30
32
34
36
38
40
42
44
46
49
51
53
55
57
59
61
63
66
69
71
74
76
77
78
78
78
77
76
76
75
75
74
74
72
70
67
63
59
55
51
47
43
39
36
33
30
27
24
21
18
15
13
11
10
8
7
5
3
0
-3
-6
-8
-10
-10
-10
-10
-8
-7
-6
-5
-4
-5
-6
-7
-8
-9
-10
-11
-11
-11
-11
-11
-10
-10
-10
-10
-11
-11
-11
-12
-12
-13
-13
-13
-13
-12
-11
-10
-9
-8
-8
-8
-8
-8
-9
-10
-11
-11
-11
-11
-10
-8
-7
-6
-6
-6
-7
-8
-9
-10
-11
-11
-10
-9
-8
-6
-5
-4
-3
-2
-2
-3
-3
-4
-5
-6
-7
-8
-8
-8
-7
-6
-4
-3
-2
-2
-2
-3
-4
-5
-7
-7
-7
-7
-6
-5
-4
-4
-3
-4
-4
-5
-6
-7
-8
-9
-9
-9
-9
-8
-8
-8
-8
-8
-8
-7
-7
-7
-6
-6
-6
-7
-8
-9
-10
-12
-13
-15
-15
-15
-15
-14
-12
-10
-8
-7
-5
-5
-5
-5
-6
-8
-10
-11
-12
-13
-13
-13
-12
-12
-11
-11
-11
-11
-12
-12
-13
-14
-14
-14
-14
-13
-12
-12
-12
-12
-12
-12
-13
-13
-13
-13
-12
-11
-10
-9
-9
-8
-9
-9
-9
-10
-11
-11
-11
-12
-12
-12
-13
-14
-14
-15
-15
-15
-14
-13
-11
-10
-9
-8
-7
-7
-8
-9
-10
-12
-13
-14
-15
-16
-16
-16
-15
-13
-12
-11
-10
-9
-9
-9
-9
-10
-11
-12
-13
-14
-15
-16
-17
-18
-18
-19
-19
-18
-18
-17
-16
-14
-13
-12
-12
-11
-11
-11
-11
-11
-11
-11
-11
-11
-11
-11
-12
-12
-12
-12
-12
-12
-11
-10
-10
-10
-10
-11
-12
-13
-14
-14
-15
-14
-14
-14
-13
-13
-13
-13
-13
-13
-13
-12
-12
-11
-11
-10
-10
-10
-10
-10
-10
-9
-8
-7
-6
-6
-6
-7
-8
-10
-12
-14
-15
-15
-14
-12
-10
-7
-5
-4
-3
-3
-3
-4
-5
-6
-6
-5
-4
-2
0
2
4
5
7
8
9
10
11
11
12
12
12
11
11
10
9
8
8
7
7
7
7
6
5
4
2
0
-2
-4
-6
-7
-8
-9
-10
-11
-12
-13
-13
-14
-15
-15
-15
-14
-13
-12
-12
-12
-12
-13
-14
-15
-17
-19
-20
-21
-21
-21
-18
-12
-3
10
29
53
82
113
144
172
194
207
208
197
173
140
100
57
15
-22
-52
-73
-86
-91
-90
-85
-77
-69
-62
-55
-49
-44
-39
-34
-29
-25
-21
-17
-14
-12
-10
-9
-9
-8
-8
-8
-8
-9
-9
-10
-11
-11
-12
-12
-11
-10
-9
-7
-6
-5
-5
-5
-6
-7
-8
-9
-9
-9
-8
-6
-4
-1
2
4
6
7
7
6
6
5
5
5
5
6
6
7
8
8
8
9
9
10
11
12
14
16
18
20
21
22
22
22
22
22
22
23
25
28
31
34
37
40
42
44
46
47
49
52
55
58
61
65
67
69
71
71
72
73
73
74
76
77
79
81
83
84
85
85
84
83
81
79
76
73
69
66
62
58
55
51
47
43
39
35
31
27
23
20
17
14
12
10
8
7
6
5
4
2
1
-1
-3
-6
-8
-10
-12
-14
-15
-15
-15
-15
-14
-14
-14
-14
-14
-14
-15
-15
-14
-14
-13
-12
-11
-10
-10
-10
-10
-11
-11
-12
-13
-14
-14
-15
-15
-16
-16
-16
-16
-15
-14
-13
-12
-11
-10
-9
-9
-9
-10
-10
-12
-13
-14
-14
-15
-15
-15
-14
-13
-12
-11
-9
-9
-8
-8
-8
-8
-8
-9
-9
-9
-9
-9
-9
-8
-9
-9
-10
-10
-11
-12
-12
-13
-12
-12
-11
-11
-10
-10
-10
-11
-11
-11
-11
-11
-11
-10
-10
-10
-10
-10
-10
-10
-10
-10
-9
-8
-8
-7
-7
-8
-9
-10
-11
-13
-13
-14
-14
-14
-14
-14
-14
-14
-14
-15
-15
-15
-14
-14
-14
-13
-13
-14
-14
-15
-16
-16
-16
-16
-15
-14
-13
-12
-12
-12
-12
-13
-13
-14
-14
-14
-14
-13
-13
-13
-14
-14
-15
-16
-16
-17
-16
-16
-15
-13
-13
-12
-12
-13
-14
-15
-16
-17
-17
-17
-17
-17
-16
-16
-16
-16
-16
-16
-16
-16
-15
-15
-15
-14
-14
-14
-14
-14
-14
-14
-14
-14
-14
-14
-14
-14
-14
-15
-15
-15
-15
-15
-16
-16
-16
-16
-16
-16
-16
-15
-15
-14
-14
-13
-13
-14
-14
-15
-16
-17
-18
-19
-19
-19
-18
-17
-16
-15
-15
-14
-14
-14
-14
-15
-16
-17
-18
-19
-19
-19
-19
-18
-17
-16
-15
-15
-15
-16
-17
-18
-18
-18
-18
-17
-16
-15
-14
-14
-14
-15
-16
-18
-19
-19
-19
-18
-17
-16
-15
-14
-13
-13
-13
-13
-13
-14
-15
-16
-17
-18
-19
-20
-21
-21
-20
-18
-16
-14
-11
-9
-7
-6
-6
-6
-6
-6
-7
-7
-7
-7
-7
-7
-7
-7
-6
-5
-4
-1
1
4
7
10
12
14
14
14
13
12
10
8
6
4
3
3
2
2
2
2
2
1
-1
-3
-5
-7
-9
-11
-12
-14
-14
-15
-15
-15
-16
-16
-17
-17
-18
-18
-19
-19
-19
-20
-20
-20
-20
-19
-19
-18
-18
-18
-19
-20
-21
-21
-18
-12
-1
15
38
67
99
132
163
189
206
211
204
184
154
116
74
32
-6
-39
-63
-79
-87
-88
-85
-79
-72
-65
-58
-52
-46
-40
-35
-29
-24
-20
-16
-13
-12
-12
-12
-13
-14
-14
-14
-13
-12
-11
-10
-10
-10
-10
-10
-10
-10
-10
-9
-8
-7
-7
-6
-6
-6
-6
-6
-5
-5
-4
-3
-2
-1
0
0
1
1
1
2
2
2
2
2
3
3
3
4
4
5
5
6
6
7
9
10
12
14
15
17
19
20
21
22
23
24
25
26
27
28
29
31
32
33
35
37
39
42
45
49
52
55
57
60
62
64
66
68
70
72
74
76
77
77
77
77
77
77
77
77
78
77
76
74
71
68
64
60
56
53
51
49
47
44
41
37
32
27
22
17
13
11
9
8
8
7
6
5
3
1
-2
-4
-6
-7
-8
-9
-10
-10
-11
-12
-13
-13
-13
-13
-12
-12
-12
-12
-12
-13
-14
-15
-16
-16
-16
-16
-15
-14
-13
-13
-12
-12
-12
-12
-12
-12
-12
-12
-13
-13
-13
-13
-13
-13
-12
-11
-10
-9
-9
-9
-9
-10
-10
-11
-11
-11
-11
-10
-9
-8
-8
-7
-7
-8
-8
-9
-9
-10
-10
-10
-10
-10
-9
-9
-9
-9
-8
-8
-8
-9
-9
-9
-10
-11
-11
-11
-12
-11
-11
-11
-11
-11
-10
-10
-10
-10
-10
-10
-10
-10
-10
-10
-11
-10
-10
-10
-9
-9
-9
-9
-9
-9
-10
-11
-11
-12
-12
-12
-11
-11
-10
-9
-9
-8
-8
-9
-9
-10
-11
-13
-14
-15
-16
-16
-16
-15
-14
-13
-12
-11
-11
-11
-12
-13
-14
-15
-16
-16
-16
-15
-13
-12
-11
-11
-10
-11
-11
-12
-12
-12
-12
-12
-12
-11
-11
-11
-12
-12
-13
-14
-15
-16
-16
-15
-14
-13
-11
-10
-9
-8
-9
-10
-12
-14
-15
-16
-16
-15
-14
-12
-10
-9
-8
-9
-10
-11
-13
-14
-15
-15
-14
-13
-11
-10
-10
-10
-11
-13
-14
-15
-16
-15
-14
-12
-11
-9
-9
-9
-11
-12
-14
-16
-17
-18
-17
-16
-14
-13
-12
-11
-11
-11
-12
-12
-13
-14
-14
-14
-14
-14
-14
-14
-14
-14
-13
-13
-12
-12
-12
-12
-12
-13
-13
-14
-14
-14
-13
-13
-12
-11
-11
-10
-10
-11
-11
-12
-12
-13
-13
-12
-12
-11
-11
-10
-10
-10
-10
-11
-11
-11
-10
-9
-8
-7
-7
-6
-6
-7
-8
-9
-11
-12
-13
-13
-13
-12
-11
-9
-8
-7
-6
-5
-5
-5
-6
-6
-6
-6
-6
-6
-5
-4
-3
-1
1
3
6
9
11
14
16
17
17
16
15
14
12
11
10
9
9
10
10
10
11
10
9
8
6
4
1
-2
-5
-7
-10
-11
-12
-13
-13
-12
-12
-11
-11
-11
-11
-12
-13
-14
-15
-16
-17
-17
-16
-15
-14
-13
-13
-13
-14
-16
-18
-19
-19
-16
-9
3
22
46
75
106
139
169
193
209
214
208
189
160
123
81
39
-1
-35
-61
-78
-86
-87
-83
-75
-66
-57
-49
-43
-37
-32
-28
-24
-20
-16
-13
-11
-10
-9
-10
-10
-11
-11
-10
-9
-8
-7
-6
-5
-5
-5
-5
-5
-4
-4
-3
-3
-2
-1
0
0
1
1
1
0
0
0
-1
-1
-1
0
0
1
2
2
3
3
3
3
3
3
4
5
6
8
10
11
12
13
13
13
13
13
13
14
16
18
21
23
25
27
29
30
30
31
31
32
33
34
36
38
40
42
44
46
48
49
51
54
56
59
62
65
68
71
74
76
78
79
80
80
81
82
82
83
83
83
83
82
80
77
74
70
66
61
57
52
48
44
40
37
34
31
29
26
24
22
19
16
12
9
6
3
1
-1
-1
-1
-1
0
-1
-1
-2
-4
-5
-7
-7
-8
-7
-7
-6
-6
-6
-7
-8
-10
-10
-11
-11
-10
-10
-9
-9
-10
-11
-12
-14
-15
-16
-16
-15
-13
-11
-9
-7
-6
-6
-7
-8
-9
-10
-10
-10
-10
-10
-10
-10
-10
-11
-12
-13
-14
-14
-13
-13
-12
-10
-9
-8
-8
-8
-8
-8
-9
-9
-9
-8
-8
-7
-6
-6
-5
-5
-5
-5
-6
-6
-7
-7
-7
-7
-7
-7
-7
-7
-7
-8
-8
-8
-8
-8
-8
-8
-9
-9
-10
-10
-11
-11
-11
-10
-10
-9
-9
-8
-8
-9
-10
-11
-12
-13
-13
-14
-14
-14
-14
-14
-15
-15
-16
-17
-17
-17
-16
-15
-14
-13
-12
-12
-13
-14
-15
-16
-17
-17
-16
-15
-14
-13
-12
-12
-12
-13
-14
-15
-16
-17
-17
-17
-17
-16
-16
-15
-15
-16
-17
-17
-18
-18
-18
-18
-18
-18
-17
-17
-18
-18
-18
-19
-19
-19
-19
-19
-18
-17
-17
-16
-16
-15
-16
-16
-17
-18
-19
-20
-20
-21
-21
-21
-20
-20
-19
-19
-18
-18
-18
-18
-19
-18
-18
-18
-17
-17
-17
-17
-17
-17
-18
-19
-20
-20
-20
-20
-20
-19
-19
-18
-18
-17
-17
-17
-16
-16
-16
-17
-17
-17
-17
-17
-17
-17
-16
-16
-17
-17
-18
-19
-20
-21
-22
-22
-22
-21
-19
-17
-15
-13
-11
-10
-10
-11
-12
-14
-16
-17
-19
-20
-20
-20
-19
-19
-18
-17
-17
-16
-16
-16
-16
-16
-17
-17
-18
-18
-19
-18
-18
-17
-16
-14
-13
-12
-11
-11
-12
-13
-14
-15
-17
-17
-17
-16
-15
-14
-12
-11
-10
-10
-10
-10
-10
-9
-9
-8
-8
-7
-6
-6
-5
-5
-4
-4
-3
-1
0
2
4
5
6
6
6
6
6
5
4
4
3
2
1
0
-1
-2
-3
-4
-5
-7
-9
-11
-13
-16
-18
-19
-20
-21
-21
-21
-21
-21
-21
-21
-21
-21
-20
-19
-19
-18
-18
-18
-18
-19
-20
-20
-21
-22
-21
-21
-19
-17
-12
-5
6
22
43
69
98
129
159
184
200
205
196
175
142
101
56
11
-29
-61
-83
-96
-100
-97
-90
-81
-73
-66
-60
-56
-52
-48
-43
-38
-32
-26
-21
-17
-14
-13
-12
-12
-12
-12
-12
-11
-10
-10
-10
-10
-11
-12
-13
-13
-13
-12
-11
-9
-7
-5
-4
-2
-1
-1
0
0
0
0
1
1
1
1
1
1
0
0
-1
-1
0
0
2
3
5
6
7
8
9
9
10
10
10
10
10
11
12
13
15
17
18
20
22
24
26
27
28
29
30
32
33
35
38
41
43
46
48
50
51
52
53
54
55
58
60
64
67
71
74
76
78
79
80
80
81
81
82
82
82
82
81
79
76
73
70
66
63
60
58
55
52
49
46
42
38
33
29
25
21
17
14
12
10
8
7
5
4
2
0
-2
-3
-5
-6
-8
-9
-10
-10
-10
-10
-10
-9
-8
-7
-6
-6
-5
-5
-5
-5
-6
-7
-8
-10
-11
-13
-14
-14
-15
-14
-14
-13
-11
-10
-10
-9
-9
-9
-10
-11
-11
-12
-12
-12
-11
-11
-11
-10
-10
-10
-9
-9
-9
-8
-7
-6
-5
-4
-3
-2
-2
-2
-2
-3
-4
-5
-5
-6
-6
-6
-6
-6
-6
-6
-6
-7
-7
-7
-7
-6
-5
-5
-4
-4
-4
-5
-5
-6
-7
-7
-7
-7
-6
-6
-5
-5
-6
-7
-8
-8
-9
-9
-8
-7
-6
-5
-4
-4
-4
-5
-6
-8
-9
-10
-11
-11
-11
-10
-10
-9
-8
-7
-7
-6
-6
-7
-7
-8
-9
-10
-11
-12
-13
-13
-12
-11
-10
-8
-7
-6
-6
-6
-7
-8
-9
-11
-12
-13
-13
-13
-13
-13
-12
-12
-12
-11
-11
-11
-11
-12
-12
-12
-13
-13
-13
-14
-14
-15
-15
-15
-14
-14
-13
-13
-12
-11
-10
-10
-10
-10
-11
-12
-13
-14
-15
-15
-15
-15
-14
-14
-13
-13
-12
-12
-12
-12
-13
-13
-14
-14
-15
-15
-15
-15
-15
-15
-14
-13
-12
-11
-10
-10
-10
-10
-11
-12
-13
-14
-14
-14
-13
-13
-12
-12
-12
-12
-12
-12
-12
-12
-12
-12
-12
-13
-13
-13
-13
-13
-13
-13
-12
-12
-11
-10
-10
-10
-10
-11
-11
-12
-12
-11
-11
-10
-10
-10
-10
-10
-11
-12
-13
-13
-13
-13
-12
-12
-11
-10
-10
-10
-11
-11
-12
-13
-14
-14
-14
-14
-13
-13
-12
-11
-10
-9
-8
-8
-8
-7
-7
-7
-7
-7
-7
-6
-6
-5
-4
-3
-1
0
2
3
5
6
7
9
10
11
12
12
13
13
13
12
12
12
11
11
10
9
9
8
7
7
6
5
4
3
1
-1
-3
-5
-7
-9
-12
-14
-16
-17
-18
-18
-18
-18
-17
-16
-16
-15
-15
-15
-14
-14
-14
-13
-13
-13
-14
-15
-16
-18
-19
-19
-17
-11
0
17
40
68
100
133
164
190
208
215
210
193
165
130
89
48
10
-24
-50
-68
-79
-83
-81
-76
-69
-61
-52
-45
-38
-31
-25
-20
-16
-12
-10
-9
-9
-9
-10
-12
-12
-13
-12
-11
-9
-7
-5
-4
-3
-3
-3
-3
-3
-3
-3
-3
-2
-1
-1
-1
-1
-2
-3
-3
-4
-3
-3
-2
0
1
2
3
3
3
3
2
1
1
1
1
2
3
5
7
8
10
11
12
13
14
14
15
16
16
16
16
16
16
17
18
19
21
24
27
29
32
34
35
36
37
38
39
41
43
46
49
52
56
59
62
65
67
70
72
74
76
77
79
80
81
81
81
81
80
79
79
78
77
75
73
70
67
63
59
55
51
47
43
41
38
36
33
30
27
24
20
16
12
9
5
3
1
0
-1
-2
-2
-3
-3
-4
-5
-6
-6
-7
-7
-7
-8
-8
-8
-8
-9
-9
-10
-10
-11
-12
-12
-13
-14
-14
-14
-15
-15
-14
-14
-14
-13
-13
-13
-14
-14
-15
-16
-16
-17
-17
-17
-16
-16
-15
-14
-13
-12
-12
-12
-12
-12
-12
-12
-13
-13
-13
-13
-13
-12
-12
-11
-11
-10
-9
-8
-7
-7
-7
-8
-9
-10
-11
-12
-13
-13
-12
-12
-11
-10
-10
-9
-9
-10
-10
-10
-10
-9
-9
-8
-8
-8
-8
-9
-10
-11
-12
-13
-13
-13
-13
-12
-12
-11
-10
-10
-10
-10
-10
-10
-10
-10
-9
-9
-8
-8
-8
-8
-9
-10
-11
-12
-13
-14
-14
-15
-15
-16
-16
-15
-15
-14
-13
-11
-10
-10
-10
-10
-11
-12
-14
-15
-16
-17
-17
-16
-15
-14
-14
-14
-14
-14
-15
-15
-16
-16
-16
-16
-16
-16
-17
-19
-21
-22
-24
-24
-23
-22
-19
-17
-14
-12
-11
-10
-11
-13
-14
-16
-18
-20
-21
-21
-21
-21
-21
-20
-19
-18
-18
-17
-16
-15
-15
-15
-15
-16
-17
-18
-19
-19
-19
-19
-19
-19
-19
-19
-19
-19
-19
-19
-19
-19
-18
-17
-17
-17
-17
-17
-18
-18
-18
-18
-17
-16
-15
-15
-14
-15
-15
-16
-18
-19
-20
-21
-21
-21
-21
-20
-20
-20
-20
-21
-21
-21
-22
-22
-21
-21
-20
-19
-18
-18
-17
-17
-17
-17
-17
-18
-18
-18
-19
-19
-20
-20
-20
-20
-20
-20
-19
-19
-18
-17
-17
-17
-18
-19
-20
-22
-22
-23
-22
-21
-20
-18
-16
-15
-14
-14
-14
-14
-14
-14
-14
-13
-13
-12
-11
-11
-10
-10
-10
-9
-8
-6
-4
-1
1
4
5
7
7
6
5
3
1
0
-1
-2
-2
-2
-2
-2
-2
-2
-3
-4
-5
-7
-9
-10
-12
-14
-15
-17
-17
-18
-19
-19
-20
-20
-21
-21
-22
-22
-22
-22
-21
-20
-19
-19
-18
-17
-17
-18
-19
-20
-21
-22
-23
-23
-21
-16
-7
8
28
54
84
118
150
179
200
211
209
194
166
130
88
45
4
-31
-58
-76
-86
-89
-87
-82
-75
-68
-61
-55
-49
-43
-37
-32
-27
-22
-19
-17
-15
-14
-14
-13
-13
-12
-11
-10
-10
-10
-10
-11
-11
-12
-12
-12
-11
-11
-10
-10
-10
-10
-10
-10
-9
-8
-7
-6
-4
-2
-1
0
0
-1
-1
-3
-4
-4
-5
-5
-4
-3
-1
0
2
3
4
4
5
5
5
5
5
5
5
6
6
7
8
9
11
13
15
17
20
22
24
26
28
29
31
32
34
36
39
41
44
46
48
49
50
52
53
54
57
59
62
65
69
72
74
75
76
77
77
77
77
78
78
79
80
80
79
77
74
69
64
59
54
50
47
44
42
40
37
34
31
26
22
17
13
10
8
6
5
4
3
2
1
-1
-3
-6
-8
-9
-10
-10
-10
-9
-8
-7
-6
-6
-6
-7
-8
-10
-11
-12
-13
-14
-14
-13
-13
-12
-11
-10
-10
-10
-10
-10
-11
-12
-13
-13
-14
-14
-14
-13
-13
-12
-11
-10
-9
-9
-9
-9
-10
-10
-11
-12
-13
-13
-13
-13
-12
-11
-10
-9
-8
-7
-7
-8
-8
-9
-9
-9
-8
-7
-6
-5
-4
-4
-4
-5
-6
-7
-8
-9
-9
-10
-9
-9
-8
-8
-8
-7
-7
-7
-7
-7
-7
-6
-7
-7
-7
-7
-7
-7
-7
-7
-7
-8
-8
-8
-8
-9
-9
-8
-8
-8
-7
-6
-6
-6
-6
-6
-6
-7
-8
-8
-9
-9
-10
-10
-10
-10
-10
-10
-10
-10
-10
-10
-9
-9
-10
-10
-10
-10
-11
-11
-11
-11
-11
-10
-10
-10
-9
-9
-9
-9
-9
-8
-8
-8
-7
-7
-7
-6
-6
-6
-6
-7
-7
-8
-9
-10
-11
-12
-12
-12
-11
-10
-9
-8
-7
-7
-6
-6
-7
-7
-8
-8
-8
-8
-8
-8
-8
-9
-9
-9
-9
-8
-8
-7
-6
-6
-6
-6
-7
-8
-9
-10
-11
-12
-12
-12
-11
-11
-10
-10
-9
-9
-9
-8
-8
-8
-8
-8
-8
-7
-7
-7
-7
-7
-7
-7
-7
-6
-6
-6
-6
-6
-6
-6
-6
-6
-6
-6
-7
-7
-8
-8
-9
-8
-8
-7
-6
-6
-5
-6
-6
-7
-8
-9
-9
-9
-8
-8
-7
-7
-7
-8
-8
-9
-9
-8
-7
-6
-4
-3
-2
-1
-2
-3
-4
-6
-7
-8
-7
-7
-5
-3
-2
0
1
2
2
2
2
2
1
1
1
1
2
3
5
6
8
9
11
12
13
15
16
17
18
20
21
22
22
21
20
19
17
15
13
11
11
11
10
10
10
8
6
4
1
-2
-4
-6
-7
-8
-8
-8
-8
-8
-8
-9
-9
-10
-10
-10
-10
-11
-11
-11
-12
-13
-15
-16
-18
-19
-20
-20
-20
-18
-14
-7
3
19
40
66
95
126
155
180
197
204
198
180
151
114
71
29
-11
-45
-70
-86
-94
-95
-91
-85
-78
-72
-66
-60
-55
-50
-45
-39
-32
-27
-22
-18
-16
-15
-16
-18
-19
-20
-21
-21
-20
-19
-18
-17
-17
-16
-16
-16
-16
-16
-16
-17
-17
-18
-18
-18
-18
-17
-16
-15
-14
-12
-11
-10
-10
-10
-11
-11
-12
-12
-11
-10
-9
-7
-6
-4
-3
-3
-3
-3
-3
-4
-4
-4
-4
-3
-2
-1
1
4
6
7
9
10
11
11
12
12
13
14
16
18
21
23
26
28
31
33
35
37
39
42
44
46
49
51
53
56
58
60
62
64
65
66
67
68
68
68
69
71
72
74
75
76
75
73
69
65
59
53
48
44
40
38
35
33
31
28
24
19
15
10
6
3
0
-1
-2
-3
-4
-6
-7
-8
-10
-11
-12
-12
-13
-13
-14
-14
-15
-17
-18
-19
-20
-21
-21
-21
-20
-20
-20
-19
-19
-19
-19
-20
-20
-20
-20
-20
-20
-20
-20
-20
-19
-19
-19
-19
-19
-20
-20
-20
-21
-21
-21
-20
-20
-19
-17
-16
-15
-14
-14
-14
-14
-14
-15
-16
-16
-16
-16
-16
-16
-15
-15
-15
-14
-14
-14
-14
-14
-14
-14
-14
-14
-14
-14
-14
-14
-15
-15
-15
-15
-14
-14
-13
-13
-12
-12
-11
-10
-10
-10
-10
-11
-12
-13
-14
-15
-16
-16
-15
-14
-13
-11
-10
-10
-9
-10
-11
-12
-13
-14
-14
-15
-15
-15
-14
-14
-14
-14
-14
-14
-14
-14
-15
-15
-16
-16
-16
-16
-16
-16
-15
-15
-14
-13
-12
-12
-11
-11
-11
-12
-12
-13
-14
-14
-15
-16
-17
-17
-18
-18
-18
-18
-17
-16
-16
-15
-14
-13
-13
-12
-12
-12
-12
-12
-12
-12
-13
-13
-14
-15
-16
-17
-17
-17
-17
-16
-15
-14
-14
-13
-13
-13
-13
-13
-13
-13
-13
-12
-12
-12
-11
-11
-10
-10
-10
-10
-9
-9
-9
-9
-9
-10
-11
-12
-13
-14
-15
-16
-16
-15
-14
-13
-12
-10
-10
-9
-10
-10
-11
-12
-12
-12
-12
-11
-11
-11
-12
-13
-14
-16
-16
-17
-16
-14
-12
-9
-7
-5
-3
-3
-4
-5
-6
-7
-7
-7
-7
-7
-7
-7
-8
-9
-11
-12
-12
-12
-11
-9
-7
-5
-4
-3
-3
-4
-4
-5
-5
-4
-3
-1
0
2
3
4
5
6
7
8
10
12
15
17
19
20
19
19
17
15
13
12
10
9
9
9
9
9
10
9
9
8
7
5
3
0
-2
-5
-7
-8
-9
-9
-9
-8
-8
-8
-8
-8
-9
-9
-9
-9
-9
-10
-10
-10
-10
-10
-10
-10
-9
-9
-9
-9
-9
-8
-4
3
16
35
59
89
122
156
185
207
219
218
204
178
142
100
56
14
-22
-50
-70
-81
-84
-82
-76
-69
-61
-54
-48
-42
-37
-32
-27
-22
-16
-11
-7
-3
0
1
1
1
0
-1
-2
-2
-2
-1
0
1
3
4
6
7
8
8
8
8
7
6
5
3
2
2
2
3
4
6
8
9
10
10
10
9
7
6
6
6
6
8
9
10
11
12
13
13
13
13
13
13
13
13
13
13
13
14
15
16
18
19
21
23
25
27
28
29
30
31
32
34
35
36
37
38
40
41
43
46
49
53
57
62
66
69
71
72
73
73
73
73
74
74
75
76
77
78
78
78
77
75
72
69
65
61
56
52
47
43
39
36
33
30
28
25
22
19
16
12
8
5
1
-1
-4
-6
-7
-8
-8
-8
-9
-9
-9
-10
-11
-12
-14
-15
-16
-16
-17
-17
-16
-16
-16
-16
-17
-18
-19
-20
-20
-20
-20
-19
-19
-18
-18
-19
-19
-19
-20
-20
-19
-18
-17
-15
-14
-13
-13
-14
-15
-16
-17
-18
-19
-19
-18
-18
-17
-17
-17
-17
-17
-18
-18
-18
-18
-18
-18
-17
-17
-16
-15
-14
-13
-12
-12
-11
-11
-11
-12
-12
-13
-14
-14
-14
-14
-14
-14
-14
-14
-14
-14
-13
-13
-12
-11
-10
-10
-9
-9
-9
-10
-11
-11
-12
-12
-13
-12
-12
-12
-12
-12
-13
-13
-14
-15
-15
-16
-16
-17
-17
-17
-17
-17
-18
-18
-18
-18
-19
-19
-19
-19
-20
-20
-20
-20
-19
-19
-18
-17
-16
-15
-14
-14
-14
-14
-15
-16
-17
-18
-19
-20
-20
-20
-20
-20
-20
-19
-19
-19
-20
-20
-21
-21
-22
-22
-21
-21
-20
-19
-19
-19
-19
-20
-21
-22
-23
-23
-22
-21
-19
-16
-14
-12
-11
-12
-13
-15
-17
-20
-21
-22
-22
-21
-20
-18
-17
-16
-15
-15
-15
-16
-16
-17
-17
-18
-18
-18
-18
-17
-17
-17
-16
-16
-16
-16
-17
-18
-19
-19
-20
-20
-21
-20
-20
-19
-18
-17
-16
-16
-16
-16
-16
-16
-16
-16
-15
-15
-14
-14
-14
-14
-15
-15
-16
-16
-16
-15
-15
-14
-13
-12
-12
-12
-12
-12
-13
-14
-15
-16
-16
-16
-16
-16
-15
-14
-13
-12
-11
-11
-11
-11
-12
-13
-14
-15
-15
-16
-15
-15
-15
-15
-14
-14
-14
-14
-14
-14
-13
-12
-11
-10
-9
-8
-8
-8
-8
-8
-8
-7
-7
-5
-3
-1
1
4
6
8
9
10
10
10
9
9
9
8
8
8
7
7
6
5
5
4
3
2
0
-2
-4
-6
-8
-11
-13
-15
-16
-17
-17
-16
-15
-15
-14
-14
-15
-16
-17
-18
-19
-19
-18
-18
-17
-17
-17
-17
-19
-21
-23
-25
-26
-26
-23
-18
-9
4
22
44
72
102
133
163
188
204
210
203
183
151
111
67
22
-18
-51
-74
-86
-91
-88
-82
-74
-66
-60
-56
-52
-49
-45
-40
-34
-28
-23
-18
-15
-13
-13
-14
-15
-16
-16
-16
-15
-13
-11
-10
-10
-9
-10
-10
-10
-10
-10
-9
-8
-7
-7
-6
-6
-6
-6
-6
-6
-6
-5
-5
-5
-4
-4
-4
-3
-2
-2
-1
0
1
2
3
3
4
4
4
4
3
2
2
2
3
4
6
9
11
13
15
16
16
16
16
16
18
19
22
25
29
32
34
37
38
39
40
41
42
44
47
50
53
56
59
62
65
67
69
71
72
74
76
77
79
80
82
83
84
84
84
83
82
79
76
73
69
65
60
56
53
49
46
43
41
38
35
31
28
25
21
18
15
11
8
5
2
0
-2
-4
-4
-5
-4
-4
-3
-3
-3
-4
-6
-8
-10
-12
-14
-15
-15
-15
-15
-14
-14
-13
-12
-12
-12
-11
-11
-11
-11
-11
-11
-11
-12
-12
-13
-13
-14
-14
-13
-13
-12
-12
-11
-10
-10
-10
-10
-10
-10
-10
-11
-11
-12
-13
-13
-13
-13
-12
-11
-10
-9
-9
-8
-8
-9
-10
-11
-12
-12
-13
-12
-11
-10
-8
-7
-6
-5
-5
-6
-8
-9
-11
-12
-13
-14
-13
-12
-10
-8
-6
-5
-4
-3
-4
-4
-6
-7
-8
-9
-10
-10
-11
-11
-10
-10
-9
-9
-8
-7
-7
-6
-7
-7
-9
-10
-11
-13
-13
-14
-13
-12
-10
-9
-7
-6
-6
-6
-7
-8
-9
-9
-10
-11
-11
-11
-11
-11
-11
-11
-10
-10
-10
-10
-9
-9
-10
-10
-10
-11
-11
-11
-11
-10
-10
-9
-9
-9
-10
-10
-11
-11
-11
-10
-9
-8
-6
-5
-5
-5
-6
-7
-9
-10
-12
-13
-14
-14
-14
-15
-14
-14
-14
-13
-12
-11
-10
-9
-8
-8
-8
-9
-10
-11
-12
-13
-13
-13
-13
-12
-12
-11
-10
-9
-8
-7
-6
-6
-6
-7
-8
-10
-11
-12
-13
-13
-13
-12
-11
-11
-10
-10
-9
-9
-9
-8
-7
-7
-7
-7
-8
-10
-11
-13
-14
-14
-14
-13
-11
-9
-8
-6
-6
-6
-7
-8
-9
-10
-11
-11
-11
-10
-10
-10
-10
-10
-10
-10
-10
-10
-10
-10
-10
-11
-11
-11
-11
-10
-10
-9
-8
-8
-9
-9
-10
-11
-12
-12
-12
-10
-8
-6
-4
-2
0
1
1
0
-1
-2
-2
-2
-2
0
1
3
6
8
9
11
12
13
13
14
14
14
14
14
14
13
13
12
11
10
9
7
6
4
2
0
-2
-4
-6
-8
-9
-10
-11
-11
-12
-12
-13
-13
-14
-14
-14
-14
-14
-14
-13
-13
-14
-14
-15
-16
-17
-18
-19
-20
-20
-19
-18
-15
-11
-4
8
24
46
72
102
134
163
187
203
208
200
180
149
110
68
27
-11
-41
-64
-78
-84
-84
-81
-75
-69
-62
-55
-49
-42
-35
-28
-22
-16
-11
-7
-6
-5
-6
-8
-9
-10
-10
-10
-10
-9
-9
-8
-8
-8
-8
-8
-8
-7
-7
-7
-6
-6
-6
-6
-5
-4
-3
-3
-2
-1
-1
-2
-3
-4
-5
-5
-5
-4
-2
0
2
4
5
5
5
4
3
1
0
-1
-1
0
1
2
3
5
6
7
8
9
11
12
14
16
18
21
23
25
26
28
29
30
31
33
34
36
37
40
42
45
48
51
54
56
59
61
63
65
67
69
70
72
73
74
76
77
77
78
78
78
77
76
74
72
69
65
61
57
53
49
45
42
39
36
32
29
25
21
18
14
11
9
7
6
6
5
4
3
1
-1
-3
-5
-7
-9
-10
-11
-11
-12
-13
-13
-14
-15
-15
-15
-15
-14
-14
-14
-13
-14
-14
-15
-15
-15
-15
-15
-15
-14
-14
-14
-15
-15
-16
-16
-17
-17
-16
-15
-14
-14
-13
-13
-14
-14
-15
-15
-15
-15
-14
-13
-12
-11
-11
-11
-11
-12
-13
-13
-14
-14
-14
-13
-13
-12
-11
-10
-10
-10
-10
-11
-12
-13
-13
-14
-14
-14
-13
-12
-11
-10
-9
-8
-7
-7
-7
-8
-9
-10
-11
-11
-12
-12
-12
-12
-12
-11
-10
-10
-10
-10
-10
-10
-11
-12
-12
-13
-13
-13
-12
-12
-11
-11
-11
-11
-11
-11
-11
-11
-12
-12
-12
-13
-13
-14
-14
-15
-15
-15
-15
-14
-14
-13
-13
-13
-13
-14
-15
-15
-15
-15
-15
-15
-14
-14
-13
-13
-13
-13
-13
-13
-12
-12
-12
-11
-11
-11
-11
-11
-12
-13
-14
-15
-16
-17
-17
-17
-17
-16
-15
-15
-14
-14
-14
-14
-14
-15
-15
-16
-15
-15
-15
-14
-14
-13
-14
-14
-15
-16
-17
-18
-19
-19
-18
-17
-16
-15
-14
-13
-13
-12
-12
-12
-11
-11
-10
-10
-10
-9
-10
-10
-11
-12
-14
-15
-16
-17
-18
-18
-17
-16
-16
-15
-14
-14
-14
-14
-15
-15
-15
-15
-14
-14
-13
-13
-13
-13
-14
-15
-15
-16
-16
-16
-16
-15
-14
-13
-13
-13
-14
-15
-16
-16
-17
-17
-16
-15
-15
-14
-14
-14
-15
-15
-16
-17
-18
-19
-19
-19
-19
-18
-17
-16
-15
-14
-13
-12
-11
-11
-11
-12
-12
-13
-13
-13
-13
-13
-13
-13
-13
-14
-15
-17
-18
-18
-18
-18
-16
-14
-12
-10
-9
-9
-10
-11
-12
-13
-13
-13
-12
-11
-9
-7
-6
-5
-3
-3
-2
0
1
3
5
7
9
11
12
13
13
12
11
9
6
4
2
1
0
0
1
1
2
2
2
1
-2
-4
-7
-10
-12
-13
-14
-14
-13
-13
-12
-13
-13
-14
-15
-16
-17
-16
-16
-15
-15
-15
-16
-17
-18
-19
-20
-20
-21
-21
-21
-22
-22
-20
-16
-7
8
28
55
86
120
153
181
200
210
206
191
164
130
90
49
10
-23
-50
-69
-80
-85
-85
-81
-75
-68
-60
-52
-45
-39
-33
-27
-23
-19
-16
-14
-12
-11
-10
-10
-10
-10
-11
-11
-12
-13
-13
-13
-13
-12
-11
-9
-8
-6
-5
-5
-5
-6
-6
-7
-7
-7
-7
-5
-4
-2
-1
-1
-1
-2
-3
-4
-4
-4
-4
-2
0
2
4
5
6
7
7
7
6
6
7
7
8
9
10
12
13
13
14
14
14
14
15
15
17
18
20
23
26
29
31
34
37
39
40
42
43
45
47
49
51
54
57
60
63
65
67
69
71
73
74
76
77
78
80
80
81
80
79
78
76
74
73
71
69
68
66
64
62
58
55
50
45
40
36
31
28
25
23
21
19
17
15
12
10
7
4
2
0
-1
-2
-2
-2
-1
-1
-1
-1
-1
-2
-2
-4
-5
-6
-7
-8
-9
-9
-9
-9
-9
-9
-10
-10
-11
-12
-13
-13
-13
-12
-10
-8
-7
-6
-6
-6
-7
-9
-10
-12
-12
-12
-11
-11
-10
-9
-9
-10
-11
-12
-13
-13
-13
-12
-11
-9
-8
-7
-6
-7
-8
-9
-10
-11
-11
-11
-10
-9
-9
-8
-8
-8
-8
-8
-8
-7
-7
-6
-5
-5
-4
-4
-4
-5
-6
-6
-7
-7
-8
-7
-7
-6
-6
-5
-5
-5
-5
-5
-5
-6
-6
-7
-7
-7
-7
-6
-6
-6
-5
-5
-5
-5
-6
-6
-7
-8
-8
-9
-9
-10
-10
-9
-9
-8
-8
-7
-7
-7
-7
-8
-8
-9
-10
-10
-10
-10
-9
-9
-8
-8
-8
-9
-9
-10
-10
-9
-9
-8
-7
-7
-7
-8
-10
-11
-13
-14
-15
-15
-14
-12
-11
-10
-9
-9
-9
-10
-11
-11
-11
-11
-10
-10
-9
-8
-8
-8
-9
-10
-10
-10
-10
-10
-10
-10
-10
-10
-10
-10
-10
-10
-9
-9
-8
-8
-8
-8
-9
-10
-12
-13
-14
-14
-14
-13
-12
-11
-11
-11
-11
-12
-13
-14
-15
-15
-16
-16
-16
-16
-15
-14
-12
-11
-10
-9
-8
-8
-8
-8
-9
-9
-10
-10
-10
-10
-10
-9
-9
-9
-9
-10
-10
-11
-12
-13
-13
-13
-12
-11
-11
-10
-9
-8
-8
-8
-8
-8
-8
-9
-10
-10
-11
-12
-13
-13
-14
-14
-14
-14
-13
-12
-12
-11
-10
-10
-10
-9
-9
-10
-10
-10
-11
-11
-12
-12
-13
-13
-14
-14
-14
-14
-13
-13
-12
-12
-11
-10
-10
-10
-10
-10
-10
-10
-11
-11
-11
-11
-11
-11
-10
-9
-8
-7
-6
-5
-4
-4
-5
-5
-6
-7
-7
-7
-7
-6
-4
-3
-1
1
4
6
9
11
13
15
16
17
16
15
13
11
9
7
6
6
7
8
9
10
11
10
8
6
2
-2
-5
-8
-10
-11
-11
-11
-11
-11
-11
-12
-13
-14
-14
-14
-14
-13
-13
-12
-13
-14
-15
-17
-19
-20
-21
-21
-21
-20
-20
-19
-18
-16
-13
-6
5
21
44
72
104
137
168
193
210
214
206
185
154
114
71
28
-10
-42
-65
-79
-85
-86
-82
-76
-69
-63
-57
-52
-47
-42
-36
-30
-24
-19
-15
-12
-11
-10
-11
-12
-12
-12
-12
-11
-10
-10
-9
-10
-10
-11
-11
-12
-12
-11
-11
-10
-9
-9
-8
-8
-8
-8
-8
-7
-6
-5
-4
-3
-1
0
0
1
1
1
0
0
-1
-1
-2
-2
-1
-1
1
3
5
7
10
12
13
14
14
14
13
12
12
12
13
14
17
19
22
24
25
27
27
27
28
29
30
32
35
39
43
47
51
54
57
59
60
62
63
64
66
68
71
73
75
77
79
80
81
82
82
82
83
82
81
79
76
73
69
64
60
56
53
50
48
45
43
39
36
32
28
24
20
17
14
11
9
8
6
4
3
1
-1
-2
-4
-5
-5
-6
-6
-7
-8
-10
-11
-13
-14
-15
-16
-15
-15
-14
-13
-12
-12
-12
-12
-13
-14
-15
-16
-16
-16
-16
-16
-15
-15
-15
-14
-14
-13
-12
-12
-11
-10
-9
-9
-9
-9
-10
-11
-12
-12
-13
-13
-12
-12
-11
-11
-10
-10
-11
-11
-12
-13
-13
-13
-13
-13
-13
-13
-13
-13
-13
-13
-12
-12
-10
-9
-8
-6
-5
-5
-5
-6
-8
-10
-13
-15
-16
-17
-16
-15
-13
-11
-9
-7
-7
-7
-8
-9
-11
-13
-14
-14
-14
-13
-12
-11
-10
-9
-9
-9
-10
-10
-11
-12
-12
-12
-12
-11
-11
-12
-12
-13
-14
-14
-15
-15
-15
-15
-15
-14
-14
-14
-15
-16
-17
-18
-18
-19
-19
-19
-18
-17
-16
-16
-15
-14
-14
-14
-14
-15
-15
-16
-16
-16
-16
-16
-15
-15
-14
-14
-14
-14
-14
-15
-15
-16
-16
-17
-18
-18
-18
-18
-18
-17
-17
-17
-17
-18
-19
-20
-21
-22
-22
-22
-21
-19
-17
-15
-13
-12
-11
-12
-13
-15
-17
-19
-21
-22
-22
-21
-21
-20
-19
-18
-18
-18
-19
-20
-21
-21
-21
-21
-20
-20
-19
-18
-17
-16
-16
-16
-16
-17
-18
-19
-19
-20
-21
-22
-22
-22
-22
-21
-20
-19
-18
-17
-17
-17
-18
-19
-20
-21
-22
-23
-23
-23
-23
-22
-21
-21
-20
-19
-19
-18
-18
-18
-18
-18
-17
-17
-17
-18
-18
-19
-20
-21
-21
-21
-20
-19
-18
-17
-16
-15
-15
-15
-16
-17
-19
-20
-21
-21
-21
-20
-20
-19
-19
-19
-20
-21
-21
-22
-22
-22
-22
-21
-20
-19
-18
-17
-17
-17
-17
-17
-18
-19
-20
-20
-20
-20
-20
-19
-18
-16
-15
-14
-12
-11
-11
-10
-9
-8
-6
-5
-4
-2
-1
-1
-1
-2
-2
-2
-2
-1
1
4
7
9
11
12
12
11
9
7
5
4
3
4
4
5
5
5
3
0
-3
-7
-11
-15
-17
-18
-18
-17
-15
-13
-11
-10
-9
-9
-9
-10
-11
-12
-13
-15
-16
-16
-17
-17
-16
-15
-14
-13
-12
-12
-13
-13
-12
-9
-1
11
29
53
82
115
147
177
200
213
214
202
177
143
101
57
14
-23
-53
-73
-85
-88
-86
-80
-72
-65
-60
-55
-52
-48
-44
-39
-33
-26
-19
-12
-7
-3
-1
0
-1
-2
-3
-4
-4
-4
-3
-3
-2
-2
-2
-3
-4
-5
-5
-6
-6
-6
-6
-6
-5
-5
-4
-3
-1
0
2
4
6
7
8
9
8
8
7
6
5
5
5
6
7
8
10
11
12
13
13
13
13
13
13
14
14
15
16
17
18
19
20
21
23
24
26
27
28
30
31
32
34
36
38
40
43
46
49
52
55
58
61
64
67
68
70
70
70
70
70
70
70
71
72
74
76
77
79
79
80
79
78
77
75
72
69
65
61
58
54
50
46
43
40
37
35
32
29
26
23
19
16
14
12
10
9
7
5
3
0
-2
-5
-8
-9
-10
-11
-10
-9
-9
-8
-8
-8
-9
-9
-9
-8
-7
-5
-4
-3
-2
-2
-3
-5
-7
-9
-11
-12
-13
-12
-11
-10
-9
-8
-8
-8
-9
-9
-10
-10
-10
-9
-8
-7
-6
-5
-5
-4
-4
-4
-4
-4
-3
-2
-2
-2
-2
-2
-3
-4
-5
-5
-6
-7
-7
-7
-6
-6
-6
-6
-6
-6
-6
-5
-4
-3
-3
-2
-2
-2
-2
-2
-3
-3
-3
-3
-3
-2
-2
-2
-1
-1
-2
-1
-1
-1
-1
0
0
-1
-2
-3
-4
-6
-8
-9
-10
-11
-11
-10
-10
-9
-9
-8
-7
-7
-6
-5
-5
-4
-4
-3
-4
-4
-5
-6
-7
-8
-8
-9
-9
-9
-9
-9
-9
-9
-10
-10
-11
-11
-11
-11
-11
-10
-10
-9
-9
-9
-10
-11
-12
-13
-14
-15
-15
-15
-15
-14
-13
-12
-10
-8
-7
-6
-6
-7
-8
-10
-12
-14
-15
-15
-15
-14
-13
-11
-10
-10
-10
-11
-12
-14
-15
-15
-15
-14
-13
-12
-12
-12
-12
-12
-12
-13
-13
-12
-11
-11
-10
-10
-10
-11
-13
-15
-16
-18
-18
-19
-18
-17
-16
-14
-13
-12
-11
-11
-11
-12
-13
-13
-14
-15
-16
-16
-16
-16
-15
-15
-14
-14
-14
-15
-16
-17
-19
-20
-21
-21
-21
-19
-18
-16
-14
-13
-12
-12
-13
-14
-16
-17
-17
-17
-17
-16
-15
-14
-13
-13
-14
-14
-16
-17
-18
-18
-18
-18
-18
-18
-18
-18
-18
-18
-18
-18
-18
-17
-16
-16
-15
-15
-15
-14
-14
-14
-13
-12
-11
-9
-7
-6
-5
-4
-3
-3
-2
-2
-1
1
3
4
6
8
8
8
8
7
5
4
3
2
2
2
3
3
3
2
1
-1
-3
-6
-9
-12
-14
-16
-17
-17
-17
-16
-15
-15
-15
-16
-16
-17
-18
-19
-19
-19
-19
-18
-17
-17
-17
-18
-18
-19
-20
-21
-21
-22
-23
-23
-21
-17
-9
4
23
47
76
109
142
171
194
207
208
195
171
136
95
52
11
-25
-53
-73
-83
-87
-84
-79
-72
-65
-59
-53
-48
-43
-38
-33
-27
-21
-16
-12
-9
-7
-8
-9
-10
-12
-13
-14
-15
-14
-14
-14
-13
-13
-13
-13
-13
-12
-12
-11
-10
-9
-8
-8
-7
-6
-6
-5
-4
-4
-3
-3
-2
-2
-2
-2
-2
-2
-2
-2
-2
-1
-1
0
0
1
2
3
4
5
6
7
8
8
9
10
10
11
11
11
11
12
12
14
15
17
20
23
26
28
30
32
33
34
35
36
38
40
43
47
51
55
58
61
63
65
66
66
67
67
68
69
70
72
73
74
74
75
75
74
73
72
70
68
66
63
60
56
52
48
44
40
35
31
28
25
23
21
19
18
17
16
14
11
8
5
2
-1
-4
-6
-7
-8
-8
-9
-10
-12
-13
-15
-16
-16
-16
-15
-13
-11
-9
-8
-8
-9
-10
-12
-13
-14
-15
-15
-14
-13
-12
-12
-12
-12
-13
-14
-14
-14
-15
-15
-15
-15
-15
-15
-16
-16
-16
-15
-14
-13
-12
-10
-9
-9
-9
-9
-10
-10
-11
-11
-10
-10
-10
-10
-10
-11
-12
-14
-14
-15
-15
-14
-12
-11
-10
-8
-8
-8
-8
-8
-8
-8
-7
-6
-5
-4
-4
-3
-4
-4
-5
-7
-8
-8
-9
-9
-9
-9
-8
-7
-7
-6
-5
-4
-4
-4
-4
-5
-5
-6
-6
-7
-7
-6
-6
-5
-5
-5
-5
-7
-8
-11
-13
-14
-15
-16
-15
-14
-13
-11
-9
-8
-7
-7
-7
-8
-8
-9
-10
-11
-12
-13
-14
-14
-15
-15
-15
-15
-14
-12
-11
-9
-8
-8
-8
-9
-10
-12
-15
-17
-18
-20
-20
-20
-19
-18
-16
-15
-14
-13
-13
-13
-13
-14
-15
-16
-17
-18
-19
-20
-20
-20
-20
-19
-18
-16
-15
-14
-14
-14
-14
-15
-16
-18
-19
-20
-21
-21
-21
-20
-19
-18
-18
-17
-17
-16
-17
-17
-17
-18
-18
-18
-19
-19
-18
-18
-19
-19
-19
-19
-20
-20
-20
-20
-20
-20
-20
-19
-19
-18
-17
-16
-16
-15
-15
-15
-15
-15
-16
-17
-18
-18
-18
-18
-18
-18
-17
-17
-16
-16
-16
-16
-16
-16
-16
-15
-15
-14
-14
-13
-13
-14
-14
-15
-16
-17
-17
-17
-17
-17
-16
-15
-15
-14
-13
-13
-12
-12
-11
-11
-11
-10
-9
-8
-7
-6
-5
-4
-4
-3
-3
-3
-2
-2
-2
-1
0
1
3
5
7
9
10
11
11
11
11
10
10
10
10
11
11
11
11
11
9
7
5
2
0
-3
-5
-7
-9
-10
-11
-12
-13
-13
-14
-15
-16
-17
-18
-18
-18
-17
-16
-16
-15
-15
-15
-16
-17
-19
-20
-21
-22
-23
-24
-24
-24
-21
-17
-9
3
20
43
70
101
134
164
189
205
211
204
184
154
116
74
32
-7
-40
-64
-80
-88
-90
-87
-82
-76
-69
-63
-57
-50
-44
-37
-30
-23
-18
-13
-10
-9
-9
-10
-11
-12
-13
-13
-13
-12
-11
-10
-10
-9
-9
-10
-11
-11
-12
-12
-11
-11
-10
-9
-8
-7
-6
-5
-5
-5
-5
-5
-4
-4
-4
-4
-4
-4
-4
-3
-2
-1
0
2
3
4
5
5
5
5
4
4
4
5
6
8
10
12
14
15
16
16
17
17
18
19
21
23
25
27
28
30
32
33
34
36
38
40
42
45
48
51
54
57
60
63
65
67
68
70
71
71
72
73
74
76
77
79
80
81
82
81
80
78
76
73
71
68
65
63
60
58
54
50
46
41
36
31
26
22
19
16
14
12
10
9
7
5
3
2
1
0
-1
-1
-2
-3
-4
-5
-6
-6
-7
-7
-7
-8
-8
-9
-10
-11
-12
-12
-12
-11
-9
-8
-7
-7
-7
-8
-10
-12
-13
-13
-13
-11
-9
-7
-6
-5
-5
-7
-9
-11
-13
-14
-14
-14
-12
-10
-9
-8
-7
-8
-9
-10
-11
-12
-12
-11
-10
-9
-7
-5
-4
-3
-3
-3
-3
-3
-4
-4
-5
-6
-7
-8
-9
-9
-9
-8
-8
-7
-6
-6
-6
-6
-7
-8
-8
-8
-8
-8
-7
-6
-6
-6
-6
-7
-7
-8
-9
-9
-9
-8
-8
-8
-7
-7
-8
-8
-8
-9
-9
-10
-10
-11
-12
-13
-14
-15
-16
-17
-16
-15
-14
-13
-12
-11
-12
-13
-14
-15
-17
-18
-18
-17
-16
-14
-13
-11
-10
-10
-10
-11
-12
-12
-13
-13
-13
-13
-13
-12
-12
-11
-12
-12
-12
-13
-14
-14
-14
-14
-14
-13
-12
-11
-11
-11
-11
-12
-13
-14
-15
-16
-16
-15
-15
-15
-14
-14
-14
-14
-14
-14
-14
-13
-11
-10
-9
-9
-9
-10
-11
-13
-14
-15
-15
-15
-14
-14
-13
-13
-12
-13
-13
-13
-13
-13
-12
-12
-11
-10
-10
-9
-9
-9
-9
-9
-9
-9
-10
-10
-11
-12
-13
-14
-14
-15
-15
-15
-15
-15
-15
-15
-15
-15
-15
-15
-14
-14
-13
-12
-11
-11
-10
-10
-10
-11
-11
-12
-12
-12
-13
-13
-12
-12
-12
-11
-11
-10
-10
-9
-9
-9
-9
-9
-9
-9
-9
-8
-8
-8
-8
-7
-7
-7
-7
-6
-6
-5
-3
-1
1
2
3
4
5
6
6
7
8
10
12
13
14
15
15
13
11
9
7
5
5
4
5
5
5
4
2
-1
-4
-7
-10
-13
-14
-13
-13
-11
-11
-11
-11
-13
-16
-19
-21
-23
-23
-22
-20
-18
-16
-15
-14
-15
-17
-19
-21
-23
-24
-24
-22
-18
-12
-1
14
35
60
90
122
153
180
199
207
202
184
154
115
71
27
-14
-48
-73
-89
-96
-97
-94
-88
-81
-74
-68
-62
-55
-49
-42
-35
-28
-23
-18
-15
-14
-13
-13
-13
-13
-12
-12
-12
-13
-13
-14
-15
-16
-16
-16
-15
-14
-12
-11
-10
-9
-9
-9
-9
-9
-9
-8
-7
-6
-5
-4
-4
-5
-5
-5
-6
-6
-5
-5
-5
-5
-5
-5
-5
-5
-3
-1
1
4
7
9
10
10
9
8
7
5
5
5
6
7
9
12
14
15
17
18
19
20
22
24
26
29
32
35
38
40
43
45
47
49
51
54
56
58
60
62
63
64
65
66
67
68
69
71
73
74
76
77
77
77
75
73
70
67
63
60
56
53
50
47
43
40
36
32
28
25
21
18
16
14
12
10
8
6
5
3
1
0
-2
-3
-4
-5
-6
-7
-8
-9
-9
-9
-9
-9
-9
-9
-10
-11
-13
-15
-16
-18
-19
-19
-18
-16
-14
-12
-11
-10
-9
-10
-11
-12
-13
-14
-14
-14
-13
-12
-10
-9
-8
-7
-7
-8
-9
-10
-10
-11
-11
-11
-11
-11
-11
-11
-11
-12
-12
-13
-13
-13
-13
-13
-12
-12
-11
-10
-9
-8
-7
-7
-7
-7
-8
-9
-10
-11
-12
-12
-12
-11
-10
-9
-8
-8
-8
-9
-10
-11
-12
-12
-12
-11
-9
-8
-6
-5
-4
-5
-6
-8
-10
-13
-14
-15
-15
-14
-12
-11
-10
-9
-8
-8
-8
-9
-9
-10
-10
-10
-11
-11
-11
-12
-12
-13
-13
-13
-13
-12
-12
-11
-10
-9
-9
-9
-9
-10
-11
-11
-12
-12
-12
-12
-12
-12
-12
-12
-12
-13
-13
-14
-15
-15
-15
-15
-14
-14
-14
-13
-13
-13
-12
-12
-12
-12
-11
-11
-11
-12
-12
-13
-14
-14
-14
-14
-14
-13
-11
-10
-9
-8
-8
-8
-9
-10
-11
-13
-13
-14
-14
-13
-13
-13
-13
-13
-14
-15
-15
-15
-15
-15
-14
-13
-12
-12
-12
-12
-13
-14
-15
-15
-15
-15
-15
-14
-13
-12
-11
-11
-11
-11
-11
-12
-12
-12
-12
-11
-11
-11
-11
-11
-11
-11
-12
-12
-13
-13
-13
-13
-12
-12
-12
-12
-12
-11
-11
-10
-9
-8
-8
-7
-7
-6
-6
-6
-6
-5
-4
-3
-1
1
3
6
8
9
11
12
12
12
12
12
12
11
11
10
10
10
9
9
9
8
6
4
2
-1
-4
-6
-9
-10
-11
-12
-12
-11
-11
-11
-12
-12
-13
-15
-16
-17
-17
-17
-17
-17
-17
-16
-16
-16
-17
-17
-18
-20
-21
-22
-24
-24
-23
-20
-14
-4
11
31
56
85
117
148
176
197
208
208
195
170
135
93
49
7
-30
-60
-80
-91
-95
-92
-86
-78
-69
-62
-55
-50
-44
-38
-32
-26
-20
-15
-11
-9
-8
-8
-9
-10
-11
-11
-11
-11
-11
-10
-10
-11
-11
-11
-11
-11
-10
-9
-8
-7
-6
-6
-6
-7
-7
-7
-7
-7
-7
-6
-5
-5
-5
-5
-5
-5
-5
-4
-3
-1
2
4
6
7
8
8
7
5
3
2
1
2
3
6
9
12
15
17
19
20
20
20
21
21
23
25
27
29
30
32
33
33
34
35
36
38
41
45
49
53
57
60
62
64
65
66
67
69
71
72
74
76
77
78
78
78
78
78
78
78
78
77
76
73
70
66
62
58
54
50
47
44
41
38
34
30
26
22
18
15
13
11
10
10
9
8
7
5
2
0
-3
-5
-7
-8
