-7
-6
-5
-4
-3
-3
-3
-3
-3
-3
-3
-4
-4
-5
-5
-6
-6
-6
-6
-6
-6
-6
-5
-5
-4
-4
-4
-3
-3
-3
-4
-4
-5
-6
-7
-8
-9
-9
-8
-8
-7
-6
-5
-5
-5
-6
-6
-7
-7
-6
-5
-4
-4
-3
-3
-4
-5
-7
-10
-11
-13
-14
-13
-13
-12
-11
-10
-10
-10
-11
-11
-11
-11
-10
-9
-7
-5
-3
-2
-1
-1
-1
-1
-1
-1
-1
0
1
2
4
4
5
5
6
6
7
8
10
11
13
13
13
11
8
4
-1
-5
-9
-12
-14
-15
-15
-14
-14
-14
-13
-13
-13
-13
-12
-11
-10
-9
-8
-8
-10
-13
-16
-19
-22
-23
-22
-20
-17
-13
-10
-8
-7
-8
-10
-13
-15
-17
-18
-19
-18
-17
-16
-14
-10
-3
9
26
50
79
113
147
178
202
217
218
207
184
150
111
69
29
-6
-34
-54
-66
-71
-72
-70
-66
-62
-58
-54
-51
-47
-44
-39
-35
-30
-25
-22
-18
-16
-15
-14
-15
-15
-16
-16
-17
-16
-16
-15
-14
-13
-12
-12
-12
-13
-13
-14
-14
-14
-13
-12
-11
-9
-7
-5
-4
-3
-3
-4
-5
-6
-7
-8
-8
-7
-6
-4
-2
0
2
4
4
5
4
4
4
4
5
6
8
10
13
14
16
17
18
19
19
20
21
23
24
25
27
29
30
31
33
34
35
35
36
35
35
34
32
31
31
31
31
32
34
36
37
38
38
37
36
34
33
31
29
28
27
26
25
23
21
19
15
12
9
6
4
2
1
0
0
0
0
-1
-2
-4
-5
-6
-7
-8
-8
-8
-8
-8
-9
-10
-11
-12
-13
-13
-13
-12
-11
-10
-9
-8
-8
-8
-9
-11
-12
-13
-13
-13
-13
-13
-13
-13
-13
-14
-14
-15
-16
-16
-15
-14
-12
-11
-9
-8
-8
-8
-9
-10
-11
-13
-14
-14
-13
-12
-11
-10
-9
-8
-8
-9
-10
-10
-11
-11
-11
-11
-11
-11
-11
-11
-11
-12
-12
-11
-11
-10
-9
-8
-8
-9
-10
-12
-15
-17
-18
-18
-18
-16
-14
-13
-11
-11
-11
-12
-13
-14
-14
-15
-14
-14
-13
-12
-12
-12
-13
-14
-15
-16
-16
-16
-15
-13
-11
-9
-8
-7
-7
-7
-7
-7
-7
-7
-7
-6
-6
-5
-4
-4
-2
-1
1
3
5
7
8
8
8
7
5
3
1
-1
-3
-4
-4
-5
-5
-6
-8
-10
-12
-14
-16
-18
-18
-19
-18
-17
-16
-15
-14
-13
-13
-14
-15
-16
-17
-18
-18
-18
-17
-16
-15
-14
-13
-13
-14
-16
-17
-19
-20
-21
-21
-22
-23
-23
-24
-22
-19
-11
2
21
47
79
114
149
182
208
224
227
217
195
162
121
78
37
0
-30
-52
-65
-71
-72
-69
-65
-60
-56
-52
-48
-43
-39
-34
-28
-24
-19
-16
-14
-14
-14
-15
-17
-17
-18
-18
-17
-16
-14
-13
-13
-12
-12
-12
-13
-13
-13
-13
-12
-11
-9
-7
-5
-3
-1
0
0
0
-1
-2
-4
-5
-6
-6
-6
-4
-2
1
3
5
7
8
8
8
7
7
7
7
9
11
14
16
18
19
20
21
22
22
23
24
26
28
30
32
33
35
35
36
37
38
39
40
41
41
41
41
40
40
39
39
39
40
40
41
42
42
42
41
40
38
37
35
34
32
30
27
25
22
19
17
15
13
12
11
10
9
8
6
4
2
0
-2
-3
-3
-2
-2
-2
-2
-3
-4
-6
-8
-10
-11
-11
-10
-9
-7
-6
-5
-5
-6
-8
-9
-11
-12
-13
-13
-13
-13
-12
-12
-12
-12
-12
-13
-12
-12
-11
-10
-9
-9
-8
-7
-7
-7
-6
-6
-6
-5
-5
-5
-5
-6
-7
-8
-9
-10
-11
-12
-13
-13
-12
-11
-10
-9
-8
-7
-7
-7
-7
-8
-9
-10
-10
-10
-10
-9
-9
-9
-9
-9
-10
-10
-10
-10
-10
-9
-9
-9
-10
-11
-12
-13
-14
-15
-14
-13
-12
-10
-8
-7
-7
-8
-10
-12
-13
-14
-14
-14
-13
-12
-11
-10
-10
-10
-9
-8
-7
-6
-5
-3
-3
-2
-2
-2
-3
-2
-2
0
2
5
7
9
9
9
8
6
3
0
-2
-4
-6
-7
-8
-9
-10
-11
-12
-13
-14
-15
-16
-17
-17
-19
-20
-22
-23
-24
-24
-24
-22
-20
-19
-17
-16
-17
-18
-20
-22
-24
-25
-26
-26
-24
-23
-22
-21
-21
-21
-22
-24
-25
-26
-26
-25
-20
-13
-1
16
37
65
96
129
161
190
211
221
219
203
175
138
94
50
8
-27
-54
-71
-79
-80
-77
-72
-66
-61
-58
-55
-53
-50
-47
-42
-37
-31
-27
-24
-23
-23
-23
-24
-24
-24
-22
-20
-17
-15
-14
-14
-15
-17
-20
-22
-23
-24
-24
-22
-21
-19
-18
-17
-16
-16
-16
-16
-16
-16
-16
-15
-15
-14
-13
-11
-10
-9
-7
-6
-5
-4
-3
-3
-3
-3
-3
-2
-1
0
2
4
5
6
6
7
7
7
8
9
11
13
16
19
21
22
23
23
23
22
23
23
24
26
28
30
32
33
34
34
33
32
30
29
27
26
25
25
24
24
24
24
23
21
19
16
12
7
3
0
-3
-5
-5
-4
-2
0
2
2
1
-2
-7
-12
-17
-22
-24
-25
-24
-21
-17
-14
-11
-9
-10
-12
-15
-18
-22
-25
-26
-27
-26
-24
-22
-20
-19
-19
-19
-20
-21
-21
-22
-22
-21
-21
-20
-19
-19
-19
-20
-21
-23
-24
-25
-25
-24
-23
-21
-20
-18
-17
-17
-18
-19
-20
-22
-23
-24
-24
-23
-23
-22
-21
-21
-21
-21
-22
-22
-22
-21
-21
-20
-19
-19
-19
-20
-20
-20
-21
-20
-20
-20
-20
-20
-21
-22
-23
-24
-25
-24
-23
-21
-18
-16
-13
-12
-11
-11
-13
-15
-17
-19
-20
-21
-22
-22
-22
-21
-20
-20
-19
-19
-19
-18
-17
-17
-15
-14
-12
-10
-8
-7
-5
-4
-4
-3
-3
-2
-2
-1
-1
0
0
1
1
1
0
-1
-2
-3
-4
-5
-6
-7
-9
-11
-13
-15
-17
-18
-19
-20
-20
-20
-19
-18
-18
-17
-16
-16
-15
-15
-14
-14
-14
-14
-14
-14
-14
-14
-14
-14
-14
-15
-16
-17
-18
-19
-19
-20
-20
-20
-20
-21
-21
-20
-17
-11
1
17
40
68
100
133
165
190
207
214
208
190
162
127
88
50
14
-15
-37
-52
-59
-62
-60
-56
-52
-47
-43
-38
-35
-31
-27
-23
-20
-17
-14
-13
-12
-11
-10
-10
-9
-7
-6
-5
-5
-5
-5
-6
-7
-8
-8
-8
-8
-8
-7
-7
-7
-7
-6
-6
-5
-3
-1
0
2
2
2
2
0
0
-1
0
1
3
5
8
9
10
10
9
9
8
9
10
13
16
20
22
24
25
24
23
21
20
20
21
24
27
31
34
36
38
39
39
38
38
38
39
40
41
42
43
43
43
42
41
40
40
40
40
40
40
39
38
37
36
34
33
31
30
30
29
28
27
26
24
21
19
16
14
12
10
9
8
6
5
3
1
0
-1
-2
-2
-2
-1
-1
-1
-2
-3
-5
-6
-8
-9
-8
-7
-5
-2
0
2
3
2
0
-3
-6
-9
-11
-12
-11
-10
-8
-7
-5
-5
-5
-6
-8
-10
-11
-12
-12
-10
-8
-6
-3
-1
0
1
1
1
-1
-2
-4
-5
-7
-8
-8
-8
-8
-7
-6
-5
-5
-4
-4
-4
-5
-5
-5
-5
-5
-5
-4
-4
-4
-4
-5
-6
-7
-8
-9
-9
-8
-8
-6
-5
-4
-3
-3
-3
-4
-4
-5
-6
-7
-7
-7
-8
-8
-9
-10
-11
-13
-13
-13
-13
-11
-9
-7
-5
-3
-3
-3
-4
-6
-8
-9
-10
-11
-10
-8
-5
-3
0
3
4
6
6
6
6
6
7
7
8
8
8
8
7
5
2
-2
-6
-10
-13
-16
-17
-17
-16
-15
-14
-13
-13
-13
-14
-16
-17
-17
-17
-16
-15
-14
-13
-14
-15
-17
-19
-20
-21
-20
-19
-17
-15
-14
-14
-16
-18
-21
-23
-26
-27
-28
-28
-27
-26
-24
-19
-10
4
25
52
85
121
158
190
214
226
224
208
179
142
99
56
18
-14
-38
-53
-60
-61
-59
-56
-53
-50
-47
-45
-43
-40
-37
-33
-29
-24
-21
-18
-16
-15
-15
-15
-15
-16
-16
-17
-19
-20
-21
-22
-22
-21
-19
-17
-14
-11
-9
-8
-8
-9
-11
-13
-14
-15
-14
-12
-10
-7
-4
-2
-1
-1
-1
-2
-3
-4
-4
-4
-4
-3
-2
-1
0
1
3
4
6
8
9
11
13
15
16
17
18
19
20
21
23
24
26
28
30
32
33
34
35
36
36
36
36
36
36
37
38
40
41
42
43
43
43
42
41
40
38
36
35
34
34
34
33
32
31
30
27
25
21
18
15
13
10
8
7
6
4
3
2
1
0
-1
-2
-2
-2
-2
-3
-4
-5
-6
-8
-9
-11
-12
-12
-12
-12
-12
-11
-10
-10
-10
-10
-10
-10
-10
-10
-10
-11
-11
-11
-12
-12
-13
-14
-15
-16
-16
-16
-16
-15
-13
-12
-11
-11
-11
-11
-11
-12
-12
-12
-11
-11
-10
-9
-9
-10
-10
-11
-13
-14
-15
-15
-16
-16
-16
-16
-15
-15
-15
-14
-13
-13
-12
-11
-11
-12
-12
-13
-15
-15
-15
-15
-13
-11
-10
-8
-7
-7
-8
-9
-12
-14
-16
-17
-17
-17
-17
-17
-16
-17
-17
-18
-18
-18
-18
-17
-15
-13
-11
-10
-10
-10
-11
-12
-13
-13
-12
-11
-9
-6
-4
-2
-1
-1
-1
-2
-3
-4
-4
-3
-2
0
2
3
4
4
3
2
0
-2
-4
-6
-8
-9
-10
-11
-13
-14
-16
-18
-19
-19
-19
-19
-18
-17
-16
-16
-16
-17
-18
-19
-20
-20
-20
-20
-20
-20
-20
-21
-22
-23
-24
-25
-25
-25
-24
-23
-22
-20
-20
-20
-21
-23
-26
-28
-28
-26
-19
-6
13
39
71
107
144
178
205
222
227
218
196
163
123
79
37
0
-29
-51
-64
-70
-71
-69
-66
-63
-60
-58
-55
-52
-47
-42
-36
-30
-25
-22
-20
-19
-20
-21
-22
-23
-23
-23
-22
-22
-21
-20
-20
-19
-19
-19
-19
-20
-20
-20
-20
-20
-19
-18
-16
-15
-13
-12
-12
-13
-14
-16
-17
-18
-18
-17
-15
-12
-10
-7
-5
-4
-4
-5
-6
-8
-8
-8
-8
-6
-4
-2
0
2
4
5
6
7
8
9
10
12
13
15
16
18
19
20
21
22
24
25
26
28
29
30
30
30
30
29
28
28
27
27
28
29
29
30
30
29
28
26
24
21
18
16
14
11
10
8
6
4
1
-1
-4
-6
-8
-10
-11
-13
-14
-14
-15
-16
-17
-17
-18
-19
-19
-20
-20
-20
-19
-19
-18
-18
-18
-18
-18
-18
-18
-19
-20
-20
-21
-21
-21
-21
-21
-20
-20
-19
-19
-18
-18
-17
-17
-17
-17
-18
-18
-19
-20
-20
-20
-20
-20
-19
-18
-17
-16
-15
-15
-16
-16
-17
-17
-16
-15
-14
-12
-10
-9
-9
-10
-11
-12
-14
-14
-14
-14
-13
-12
-11
-11
-12
-14
-16
-19
-20
-21
-21
-19
-18
-15
-14
-13
-12
-13
-14
-15
-17
-17
-18
-17
-17
-16
-16
-15
-15
-15
-15
-15
-15
-15
-15
-14
-14
-13
-13
-13
-14
-14
-15
-16
-16
-17
-17
-17
-16
-15
-13
-11
-9
-7
-6
-6
-6
-6
-6
-6
-5
-3
0
5
9
13
16
17
17
16
13
10
8
6
5
4
4
3
1
-1
-5
-9
-13
-16
-18
-19
-18
-16
-13
-11
-10
-10
-11
-12
-14
-16
-16
-16
-14
-12
-10
-9
-9
-10
-12
-15
-17
-18
-18
-17
-14
-12
-9
-7
-6
-6
-7
-10
-13
-16
-18
-19
-18
-13
-4
11
32
60
92
127
163
195
220
235
238
227
203
168
126
81
39
1
-28
-48
-58
-62
-60
-56
-51
-46
-43
-41
-39
-36
-32
-26
-19
-11
-5
0
2
2
-1
-4
-8
-11
-13
-13
-12
-10
-8
-7
-7
-7
-8
-8
-8
-8
-7
-6
-5
-4
-4
-4
-5
-5
-5
-4
-2
0
1
3
3
3
2
1
0
-1
-1
0
2
4
6
8
9
9
8
8
8
8
10
12
14
17
19
21
22
23
23
23
23
24
26
28
30
32
34
35
36
36
35
35
36
36
38
40
41
43
44
44
44
43
42
41
40
40
41
41
41
41
40
37
35
31
28
24
21
19
17
16
14
12
10
8
5
3
2
1
1
1
2
2
1
0
-3
-6
-8
-10
-11
-11
-11
-10
-9
-8
-9
-10
-12
-14
-15
-15
-14
-13
-11
-9
-7
-6
-7
-8
-10
-12
-13
-14
-14
-13
-12
-10
-8
-7
-6
-6
-6
-6
-7
-8
-9
-9
-10
-10
-10
-10
-10
-9
-9
-8
-9
-9
-10
-11
-12
-13
-12
-12
-10
-9
-7
-5
-4
-4
-5
-6
-7
-9
-10
-11
-12
-12
-12
-12
-11
-11
-10
-9
-9
-8
-8
-9
-9
-10
-11
-13
-14
-14
-15
-14
-13
-12
-11
-10
-9
-9
-9
-10
-12
-14
-16
-17
-18
-18
-18
-17
-15
-13
-12
-11
-10
-10
-11
-11
-11
-10
-10
-8
-7
-6
-5
-4
-3
-3
-3
-3
-2
0
2
4
6
9
10
11
11
10
9
6
4
1
-1
-2
-3
-4
-4
-4
-5
-6
-9
-12
-16
-20
-23
-26
-27
-27
-25
-22
-19
-16
-14
-13
-13
-15
-18
-21
-24
-26
-27
-26
-25
-23
-22
-21
-20
-20
-21
-21
-22
-22
-21
-21
-20
-20
-21
-22
-23
-24
-22
-16
-5
12
35
64
98
133
167
196
216
225
221
204
174
136
92
47
5
-30
-56
-72
-80
-82
-78
-73
-67
-62
-58
-56
-53
-49
-45
-40
-34
-28
-23
-20
-18
-18
-18
-19
-19
-18
-17
-15
-13
-12
-12
-12
-14
-16
-18
-19
-19
-18
-17
-15
-13
-12
-11
-11
-12
-13
-14
-14
-13
-12
-10
-8
-6
-4
-3
-3
-3
-3
-4
-4
-4
-3
-2
0
2
3
5
6
7
7
8
9
10
11
13
16
18
21
22
23
24
24
24
24
24
25
26
28
30
32
34
35
36
36
37
37
38
39
40
42
43
43
43
43
42
40
39
38
38
38
38
38
38
37
36
34
32
29
26
24
22
20
18
16
13
10
7
4
2
0
-1
-2
-2
-1
-2
-2
-3
-5
-7
-9
-11
-13
-13
-13
-13
-12
-12
-12
-12
-12
-13
-13
-12
-11
-10
-8
-7
-7
-7
-8
-9
-10
-12
-13
-13
-13
-13
-13
-13
-14
-15
-16
-17
-17
-16
-16
-14
-12
-11
-10
-9
-10
-10
-11
-12
-12
-13
-12
-12
-12
-12
-12
-13
-14
-15
-16
-15
-14
-13
-11
-10
-9
-8
-8
-8
-8
-9
-10
-11
-12
-12
-13
-14
-15
-15
-15
-14
-13
-12
-10
-8
-7
-7
-6
-7
-8
-9
-11
-13
-14
-15
-15
-15
-14
-13
-11
-9
-7
-5
-4
-4
-5
-6
-8
-10
-11
-12
-12
-12
-10
-9
-7
-6
-5
-4
-3
-2
-1
0
1
2
3
4
5
6
8
9
11
13
15
16
17
17
17
16
15
13
12
11
9
8
5
2
-1
-5
-8
-11
-13
-14
-14
-13
-12
-11
-11
-12
-13
-15
-17
-19
-20
-20
-20
-20
-19
-18
-18
-18
-18
-18
-19
-19
-19
-19
-19
-19
-19
-19
-20
-21
-23
-24
-26
-28
-29
-28
-26
-21
-11
4
26
52
84
118
153
183
207
220
221
209
184
148
106
61
18
-20
-50
-71
-83
-87
-85
-80
-75
-69
-65
-63
-60
-58
-54
-49
-42
-35
-27
-20
-15
-13
-12
-14
-17
-20
-23
-25
-25
-24
-22
-19
-17
-15
-14
-14
-15
-15
-16
-16
-15
-13
-12
-10
-9
-9
-10
-11
-12
-13
-13
-12
-11
-8
-6
-4
-2
-2
-2
-3
-4
-5
-4
-2
0
3
7
9
11
11
11
9
8
7
8
9
12
15
19
22
24
25
26
26
26
27
28
30
32
33
34
34
34
33
31
30
29
29
30
31
32
33
34
34
33
32
31
30
30
30
29
29
29
28
27
25
23
20
18
15
14
12
10
8
6
3
1
-2
-5
-7
-9
-11
-12
-12
-12
-12
-12
-13
-13
-15
-16
-17
-19
-20
-21
-22
-22
-23
-23
-23
-23
-24
-24
-25
-25
-25
-24
-24
-23
-22
-21
-21
-21
-21
-22
-22
-23
-22
-22
-21
-20
-19
-19
-20
-21
-22
-24
-24
-24
-23
-21
-19
-16
-14
-13
-13
-14
-16
-19
-22
-24
-25
-25
-23
-21
-18
-16
-14
-13
-12
-13
-13
-14
-15
-16
-16
-16
-15
-15
-15
-15
-15
-15
-15
-15
-15
-15
-15
-14
-14
-15
-15
-15
-15
-15
-15
-15
-14
-14
-13
-13
-13
-13
-13
-14
-14
-14
-14
-13
-13
-12
-12
-11
-11
-11
-11
-11
-11
-11
-10
-10
-9
-9
-9
-8
-8
-7
-6
-4
-1
2
4
7
9
10
11
11
11
10
9
7
5
2
-1
-3
-6
-8
-10
-10
-11
-11
-12
-13
-15
-18
-21
-24
-27
-29
-30
-29
-28
-26
-24
-22
-22
-22
-24
-26
-29
-31
-32
-32
-31
-29
-27
-26
-25
-25
-26
-28
-29
-31
-32
-33
-34
-35
-35
-36
-37
-37
-36
-31
-21
-5
17
46
80
117
154
187
211
225
225
211
184
147
102
56
11
-27
-56
-76
-87
-90
-88
-83
-78
-73
-70
-68
-67
-64
-60
-55
-47
-39
-31
-24
-19
-16
-15
-16
-18
-21
-24
-25
-26
-25
-24
-21
-19
-16
-15
-14
-13
-13
-14
-15
-15
-16
-15
-15
-13
-12
-11
-9
-8
-7
-5
-4
-3
-1
0
1
2
3
3
4
5
6
7
9
11
12
14
15
16
16
17
18
19
20
22
25
27
30
32
34
35
37
38
40
42
44
46
48
49
50
50
50
49
49
49
49
50
51
54
56
58
60
61
62
62
61
60
58
56
54
52
51
49
47
45
43
41
38
36
33
30
28
25
22
19
16
13
11
10
8
8
8
8
8
9
8
7
5
2
-2
-5
-7
-9
-9
-8
-7
-5
-3
-2
-3
-4
-7
-9
-11
-13
-13
-12
-10
-8
-6
-5
-4
-5
-6
-8
-9
-10
-10
-9
-8
-6
-5
-5
-7
-8
-11
-13
-15
-16
-15
-14
-12
-10
-9
-8
-8
-8
-10
-11
-13
-14
-15
-16
-15
-15
-14
-13
-12
-11
-9
-8
-7
-6
-6
-6
-7
-9
-10
-12
-14
-14
-14
-13
-12
-10
-8
-7
-7
-8
-10
-12
-14
-16
-17
-17
-16
-14
-12
-11
-10
-9
-10
-11
-13
-15
-16
-17
-17
-16
-14
-12
-10
-9
-7
-7
-6
-6
-5
-4
-3
-2
-1
1
2
3
4
5
5
6
7
9
11
14
16
18
18
18
17
15
12
9
6
3
2
0
-1
-2
-4
-6
-9
-12
-14
-17
-18
-18
-18
-17
-16
-14
-14
-13
-13
-14
-14
-15
-15
-15
-14
-14
-13
-14
-15
-16
-17
-18
-19
-19
-19
-18
-17
-16
-15
-15
-17
-20
-23
-25
-26
-24
-17
-4
17
44
78
116
156
193
224
244
252
245
223
190
147
100
53
11
-25
-51
-68
-77
-80
-78
-74
-69
-63
-58
-52
-46
-40
-34
-28
-23
-20
-19
-19
-21
-23
-25
-26
-25
-23
-21
-18
-15
-13
-12
-12
-12
-13
-13
-13
-13
-12
-11
-11
-10
-10
-10
-10
-11
-11
-11
-11
-10
-10
-9
-8
-6
-4
-3
-1
1
2
2
1
0
-1
-2
-2
-1
1
3
6
9
11
12
13
13
13
13
14
16
19
22
25
27
29
30
31
31
31
32
34
36
38
41
43
44
44
43
42
41
40
40
40
40
41
41
40
40
39
39
38
38
38
39
38
38
36
34
31
28
25
22
19
17
16
14
13
11
9
7
5
3
1
-1
-2
-4
-6
-8
-10
-12
-14
-14
-14
-12
-11
-9
-8
-8
-9
-11
-15
-18
-21
-23
-24
-23
-21
-19
-17
-16
-16
-16
-17
-17
-18
-18
-18
-17
-16
-15
-15
-15
-16
-17
-18
-19
-20
-19
-18
-17
-16
-14
-13
-12
-12
-11
-11
-11
-11
-11
-11
-12
-13
-14
-15
-15
-16
-16
-16
-16
-15
-15
-16
-16
-17
-17
-17
-17
-16
-15
-15
-15
-15
-16
-17
-18
-19
-19
-18
-17
-16
-15
-14
-14
-15
-17
-19
-21
-22
-22
-20
-18
-16
-14
-13
-13
-15
-17
-20
-22
-23
-23
-22
-20
-17
-15
-13
-12
-11
-12
-12
-12
-11
-10
-7
-5
-2
0
1
1
1
1
1
2
3
6
8
9
10
9
7
3
-1
-5
-8
-11
-12
-12
-11
-11
-10
-11
-12
-14
-16
-19
-21
-23
-24
-24
-23
-22
-20
-19
-18
-18
-19
-20
-21
-23
-25
-27
-28
-29
-29
-28
-27
-26
-24
-23
-22
-22
-23
-24
-26
-29
-32
-35
-38
-39
-37
-31
-21
-3
21
51
87
125
163
197
222
236
236
222
194
157
112
65
20
-19
-50
-72
-84
-90
-90
-87
-82
-77
-72
-68
-63
-58
-53
-46
-40
-34
-29
-25
-23
-23
-24
-25
-27
-27
-27
-27
-25
-23
-22
-21
-21
-21
-21
-22
-22
-22
-21
-19
-18
-16
-15
-15
-15
-15
-15
-15
-14
-13
-11
-8
-6
-4
-3
-2
-3
-4
-6
-7
-9
-9
-8
-6
-4
-1
2
4
6
7
7
8
8
8
9
11
13
16
18
21
22
23
24
23
23
23
23
24
26
28
31
34
36
38
40
41
42
42
43
43
44
44
43
42
40
39
37
35
34
33
32
32
31
30
29
27
25
23
20
18
16
15
13
12
11
10
9
8
7
5
3
1
-2
-5
-8
-10
-11
-12
-12
-11
-10
-10
-9
-10
-11
-13
-15
-16
-18
-18
-18
-18
-17
-16
-16
-16
-17
-17
-18
-18
-18
-18
-17
-17
-16
-16
-16
-17
-16
-16
-15
-14
-12
-11
-10
-10
-11
-12
-14
-15
-17
-18
-18
-18
-17
-16
-15
-13
-12
-12
-12
-12
-13
-14
-15
-15
-16
-15
-15
-14
-14
-13
-13
-13
-14
-15
-15
-16
-16
-15
-14
-13
-12
-12
-12
-12
-12
-12
-13
-13
-13
-13
-13
-12
-12
-11
-11
-10
-10
-10
-10
-10
-11
-11
-12
-12
-13
-12
-11
-10
-8
-6
-4
-3
-3
-4
-5
-7
-9
-11
-11
-9
-7
-4
0
4
6
8
9
8
7
6
4
3
2
1
-1
-3
-5
-7
-10
-12
-14
-16
-18
-19
-19
-20
-20
-20
-20
-20
-20
-19
-18
-17
-17
-17
-18
-18
-19
-20
-20
-20
-19
-18
-17
-17
-18
-19
-21
-22
-23
-22
-21
-19
-17
-15
-14
-14
-13
-11
-4
8
28
55
88
126
164
197
222
235
233
218
190
152
109
65
24
-11
-39
-59
-72
-79
-81
-81
-79
-75
-71
-65
-59
-52
-44
-37
-31
-26
-22
-19
-18
-17
-17
-17
-17
-17
-17
-17
-17
-17
-17
-17
-18
-17
-17
-16
-15
-14
-13
-13
-12
-12
-12
-12
-11
-11
-10
-9
-9
-8
-7
-7
-6
-5
-3
-2
0
1
2
2
1
0
-1
-2
-2
-1
1
3
7
10
12
14
14
14
14
13
13
13
14
16
19
22
24
26
27
28
28
28
29
30
32
34
37
39
41
42
43
42
41
40
39
39
39
41
42
44
46
46
46
45
44
42
40
38
36
35
34
33
31
29
26
22
18
15
11
8
6
4
3
3
2
2
1
0
-1
-2
-3
-4
-5
-6
-7
-7
-8
-9
-9
-10
-10
-11
-11
-11
-11
-11
-11
-11
-10
-10
-10
-10
-11
-12
-12
-13
-13
-13
-12
-11
-9
-7
-5
-5
-5
-6
-8
-10
-12
-14
-15
-15
-15
-15
-14
-14
-13
-13
-13
-13
-12
-11
-10
-9
-8
-8
-8
-9
-11
-12
-13
-14
-14
-14
-14
-13
-13
-13
-13
-12
-12
-11
-11
-10
-10
-10
-11
-13
-15
-17
-19
-20
-19
-18
-15
-12
-9
-6
-5
-5
-6
-7
-9
-11
-12
-12
-11
-10
-8
-7
-7
-6
-6
-7
-7
-7
-6
-5
-4
-2
0
2
3
5
6
6
6
6
5
3
1
-2
-4
-6
-8
-10
-11
-11
-12
-12
-13
-14
-16
-18
-20
-21
-22
-22
-21
-20
-19
-18
-17
-17
-18
-19
-20
-21
-21
-20
-19
-17
-16
-15
-15
-15
-17
-19
-21
-22
-24
-24
-25
-26
-26
-27
-27
-26
-23
-15
-1
19
46
80
117
155
190
217
233
235
223
197
160
117
71
27
-12
-42
-62
-74
-79
-80
-77
-73
-70
-66
-63
-60
-55
-50
-44
-37
-30
-25
-21
-18
-17
-17
-18
-18
-19
-19
-19
-19
-18
-18
-18
-17
-16
-15
-14
-13
-11
-10
-10
-9
-9
-10
-10
-10
-9
-9
-8
-7
-7
-7
-7
-8
-8
-8
-7
-6
-4
-1
1
3
4
4
3
2
2
1
2
3
5
7
9
11
13
13
14
15
15
16
18
20
23
25
28
30
32
33
34
35
35
36
36
37
38
38
39
39
39
40
40
41
41
42
43
44
45
45
45
44
42
40
37
34
31
29
27
25
24
23
22
20
18
16
13
9
6
3
1
0
-1
-1
0
1
1
0
-1
-3
-5
-8
-10
-11
-11
-11
-11
-10
-10
-10
-11
-13
-14
-15
-16
-16
-16
-14
-13
-12
-12
-12
-13
-15
-17
-18
-19
-19
-18
-17
-15
-13
-11
-10
-11
-12
-13
-15
-17
-18
-19
-19
-19
-18
-17
-15
-14
-13
-13
-13
-13
-13
-14
-15
-15
-16
-17
-17
-17
-17
-16
-15
-14
-13
-13
-14
-14
-16
-16
-17
-17
-16
-14
-12
-11
-10
-9
-10
-12
-14
-17
-19
-20
-20
-20
-19
-17
-16
-15
-15
-15
-15
-16
-16
-15
-13
-11
-9
-7
-5
-3
-2
-2
-2
-2
-2
-2
-2
-2
-2
-1
-1
0
0
0
-1
-2
-3
-5
-7
-9
-12
-14
-16
-18
-19
-20
-20
-20
-20
-20
-20
-20
-20
-21
-22
-23
-24
-25
-26
-26
-26
-26
-25
-25
-24
-23
-22
-21
-21
-21
-22
-23
-24
-25
-26
-27
-27
-28
-29
-31
-33
-35
-36
-33
-26
-13
8
36
71
110
151
189
219
238
244
235
211
176
133
86
40
0
-33
-57
-72
-79
-80
-77
-72
-67
-63
-59
-56
-52
-49
-44
-39
-33
-28
-23
-20
-18
-18
-19
-20
-22
-22
-21
-20
-18
-16
-14
-13
-13
-14
-15
-17
-18
-19
-19
-17
-15
-13
-11
-9
-8
-7
-7
-6
-5
-4
-3
-2
-1
-2
-3
-4
-6
-7
-7
-7
-5
-3
0
3
6
7
7
7
7
6
7
8
10
13
16
19
20
21
22
21
21
21
22
24
26
30
33
36
38
39
40
39
39
39
40
41
43
44
46
47
47
46
45
43
41
40
39
39
39
39
39
38
36
34
31
28
25
22
19
17
14
12
10
8
5
3
2
1
0
0
0
0
0
-1
-3
-5
-7
-10
-12
-14
-14
-14
-14
-13
-12
-11
-11
-11
-12
-14
-16
-17
-19
-20
-21
-20
-19
-18
-16
-15
-13
-12
-11
-11
-11
-12
-13
-15
-16
-17
-18
-18
-18
-17
-16
-16
-15
-15
-14
-15
-15
-16
-16
-16
-16
-16
-15
-15
-16
-16
-17
-18
-19
-19
-19
-18
-17
-16
-14
-13
-12
-12
-13
-14
-14
-15
-15
-15
-14
-14
-13
-13
-13
-14
-15
-15
-16
-16
-16
-15
-15
-15
-15
-15
-15
-15
-15
-14
-12
-10
-8
-6
-4
-3
-3
-3
-3
-3
-3
-2
-1
1
2
4
5
5
6
6
6
6
6
6
5
3
1
-2
-5
-9
-12
-14
-15
-16
-15
-15
-14
-14
-14
-15
-16
-17
-18
-19
-19
-19
-18
-18
-17
-17
-18
-18
-19
-20
-21
-21
-21
-20
-20
-20
-21
-21
-22
-22
-23
-23
-23
-23
-24
-25
-26
-26
-24
-19
-7
11
37
71
109
150
189
221
243
252
245
224
191
148
101
55
13
-22
-48
-65
-74
-76
-75
-71
-66
-62
-57
-53
-48
-44
-38
-33
-28
-23
-19
-17
-15
-15
-14
-15
-15
-15
-15
-14
-14
-15
-15
-16
-16
-17
-17
-16
-15
-14
-13
-12
-10
-10
-9
-9
-9
-9
-10
-10
-10
-10
-9
-8
-7
-5
-4
-2
-1
0
1
2
2
3
4
6
7
8
10
10
11
11
11
10
10
10
11
13
16
19
22
25
28
30
32
33
33
34
34
34
35
36
37
38
39
40
41
42
42
43
43
44
44
44
44
44
44
44
44
44
43
43
42
41
39
38
36
33
31
29
26
23
20
18
15
12
10
8
6
4
2
0
-1
-2
-4
-5
-5
-6
-6
-6
-7
-7
-8
-8
-9
-10
-10
-11
-12
-12
-13
-14
-15
-16
-17
-17
-17
-16
-15
-14
-12
-12
-11
-12
-13
-14
-15
-16
-17
-16
-16
-15
-14
-13
-13
-14
-14
-15
-16
-16
-15
-14
-12
-11
-10
-10
-10
-10
-11
-13
-14
-15
-16
-16
-17
-17
-17
-17
-16
-16
-15
-13
-12
-11
-10
-10
-10
-11
-12
-13
-14
-14
-15
-15
-15
-15
-15
-16
-16
-17
-18
-19
-19
-19
-19
-18
-16
-15
-14
-13
-12
-11
-10
-10
-9
-8
-8
-7
-8
-8
-8
-9
-8
-7
-5
-2
1
5
8
11
12
12
10
8
5
2
-1
-3
-5
-6
-7
-9
-11
-13
-16
-18
-20
-21
-20
-19
-17
-16
-14
-14
-15
-17
-19
-22
-24
-26
-26
-25
-24
-22
-20
-19
-18
-17
-17
-17
-18
-19
-20
-21
-22
-23
-24
-25
-27
-29
-31
-32
-32
-30
-24
-13
4
27
58
93
131
167
199
222
233
229
212
182
142
96
50
7
-29
-55
-72
-81
-82
-79
-74
-69
-65
-61
-58
-55
-52
-48
-42
-36
-30
-25
-21
-19
-18
-19
-20
-22
-23
-24
-24
-24
-23
-22
-20
-19
-19
-18
-19
-19
-20
-21
-22
-22
-22
-22
-21
-20
-19
-18
-17
-16
-15
-15
-14
-13
-12
-10
-9
-8
-7
-6
-6
-7
-8
-8
-8
-7
-5
-2
0
2
4
6
6
7
7
8
8
10
12
14
16
18
19
19
19
19
19
19
20
22
24
27
30
32
34
36
37
37
37
37
37
38
38
38
38
37
36
35
33
31
30
28
28
27
28
28
28
28
27
25
22
19
15
11
7
4
2
0
-1
-2
-4
-5
-8
-10
-13
-15
-17
-18
-18
-18
-17
-16
-15
-15
-15
-16
-17
-18
-19
-19
-20
-19
-19
-18
-18
-17
-16
-16
-15
-15
-14
-14
-14
-14
-15
-16
-18
-18
-19
-19
-19
-18
-17
-16
-16
-17
-17
-18
-19
-19
-18
-17
-15
-14
-13
-12
-12
-14
-16
-18
-19
-21
-21
-20
-19
-18
-16
-15
-14
-14
-14
-14
-14
-13
-13
-12
-12
-12
-13
-14
-15
-17
-18
-18
-18
-17
-16
-14
-13
-12
-11
-12
-13
-14
-16
-17
-18
-19
-19
-19
-19
-18
-17
-16
-15
-14
-13
-11
-10
-8
-7
-5
-4
-4
-3
-3
-2
-2
-1
0
1
2
3
4
4
5
5
6
6
6
6
5
4
1
-1
-5
-8
-11
-14
-16
-16
-17
-16
-16
-15
-15
-16
-17
-18
-20
-21
-21
-21
-20
-19
-18
-18
-18
-18
-19
-20
-20
-20
-20
-19
-18
-16
-15
-15
-15
-16
-18
-20
-22
-26
-29
-32
-33
-32
-26
-15
2
27
59
96
135
174
208
233
247
246
232
204
166
121
74
28
-12
-44
-67
-80
-86
-85
-80
-74
-67
-61
-56
-51
-47
-43
-38
-32
-26
-21
-16
-14
-13
-14
-16
-20
-22
-24
-25
-24
-21
-18
-15
-13
-11
-11
-11
-13
-14
-14
-14
-13
-12
-10
-8
-6
-5
-5
-5
-6
-7
-8
-8
-7
-7
-6
-6
-5
-5
-5
-5
-5
-3
-1
1
4
6
8
10
11
12
12
13
14
15
17
19
20
22
23
23
24
24
25
26
27
29
31
34
36
38
40
41
42
43
43
43
43
43
43
42
43
43
44
46
47
48
49
49
49
47
45
42
40
38
36
34
33
32
30
27
24
20
16
12
8
5
3
3
4
5
6
7
6
5
2
-1
-4
-6
-8
-9
-9
-8
-7
-7
-7
-8
-10
-11
-13
-14
-14
-14
-12
-11
-10
-9
-9
-10
-11
-13
-14
-15
-15
-15
-14
-13
-12
-11
-10
-10
-10
-9
-9
-8
-8
-8
-8
-9
-10
-12
-13
-14
-13
-13
-11
-9
-7
-6
-6
-6
-8
-10
-13
-15
-16
-16
-15
-13
-11
-9
-8
-7
-7
-8
-9
-10
-11
-11
-11
-11
-11
-11
-11
-12
-14
-15
-17
-17
-17
-16
-14
-12
-9
-8
-7
-7
-8
-9
-12
-14
-15
-16
-16
-16
-15
-14
-13
-12
-12
-12
-13
-13
-13
-13
-12
-12
-10
-9
-8
-6
-5
-3
-1
1
4
6
8
10
10
10
9
8
6
3
2
0
0
-1
-1
-1
-1
-2
-4
-7
-10
-13
-16
-18
-19
-20
-20
-20
-20
-20
-20
-21
-21
-21
-21
-21
-20
-20
-20
-21
-22
-22
-23
-23
-22
-22
-21
-20
-20
-20
-21
-23
-24
-26
-27
-27
-28
-28
-29
-29
-29
-27
-22
-11
6
31
62
100
140
179
212
236
246
242
223
191
149
101
53
8
-30
-58
-76
-85
-87
-84
-78
-71
-65
-60
-56
-53
-49
-46
-41
-36
-30
-25
-20
-17
-15
-15
-15
-16
-18
-19
-20
-21
-22
-22
-22
-22
-21
-20
-18
-16
-13
-11
-9
-8
-8
-8
-9
-9
-10
-10
-9
-8
-7
-6
-5
-4
-4
-4
-4
-3
-2
0
3
6
9
11
12
12
11
9
8
7
7
8
10
13
16
18
21
22
24
25
26
28
30
33
35
38
40
41
42
42
43
43
44
45
47
48
50
50
51
50
50
49
48
48
49
50
52
53
54
54
53
50
47
43
39
36
32
30
28
27
26
26
26
26
26
25
24
22
19
15
11
7
3
-1
-3
-4
-4
-3
-2
0
0
0
-2
-4
-6
-9
-11
-13
-14
-15
-15
-15
-15
-15
-15
-15
-16
-16
-15
-15
-14
-13
-12
-12
-12
-12
-12
-13
-13
-13
-13
-13
-13
-14
-14
-15
-15
-16
-17
-18
-18
-18
-17
-17
-16
-16
-16
-17
-18
-20
-21
-22
-23
-23
-22
-21
-20
-18
-17
-16
-16
-16
-17
-17
-18
-18
-18
-17
-16
-16
-15
-15
-15
-16
-17
-19
-20
-21
-22
-22
-22
-21
-21
-20
-19
-19
-20
-21
-22
-23
-24
-24
-24
-24
-23
-22
-21
-21
-21
-22
-23
-24
-25
-26
-25
-24
-21
-18
-15
-12
-10
-8
-8
-8
-8
-9
-9
-9
-9
-7
-5
-3
0
3
6
8
9
10
9
7
5
2
-1
-4
-6
-7
-8
-8
-9
-9
-10
-11
-13
-15
-17
-18
-19
-20
-20
-20
-20
-20
-20
-20
-21
-22
-23
-24
-24
-24
-24
-23
-22
-21
-21
-21
-21
-21
-21
-22
-22
-22
-22
-22
-22
-22
-23
-25
-27
-29
-30
-28
-21
-8
13
40
74
111
150
186
214
232
236
225
201
165
122
74
28
-13
-46
-69
-83
-88
-87
-82
-75
-68
-62
-57
-53
-50
-47
-43
-39
-34
-29
-24
-21
-18
-17
-18
-19
-21
-23
-24
-26
-26
-26
-26
-26
-25
-24
-23
-22
-21
-20
-20
-19
-18
-18
-17
-16
-15
-14
-13
-12
-12
-11
-11
-11
-11
-11
-11
-11
-10
-9
-8
-7
-6
-4
-3
-1
1
2
3
4
4
4
3
3
2
3
4
6
8
12
15
19
22
24
25
25
24
23
22
21
21
22
23
26
28
31
34
35
37
37
37
37
36
36
37
38
39
40
40
40
39
38
35
33
30
28
27
25
24
23
22
20
17
14
10
8
5
4
3
3
3
2
0
-2
-5
-8
-11
-13
-14
-14
-13
-11
-10
-9
-9
-10
-11
-13
-15
-15
-15
-14
-12
-10
-9
-8
-8
-8
-10
-12
-13
-15
-15
-15
-15
-14
-13
-12
-12
-11
-11
-11
-11
-11
-11
-10
-10
-10
-10
-10
-10
-10
-10
-10
-10
-10
-10
-11
-11
-11
-10
-10
-9
-8
-7
-6
-6
-6
-8
-9
-11
-12
-13
-14
-13
-12
-11
-9
-8
-7
-7
-7
-9
-11
-13
-14
-15
-16
-15
-14
-12
-10
-8
-6
-5
-5
-5
-7
-9
-11
-13
-15
-16
-15
-14
-12
-10
-7
-6
-5
-5
-5
-6
-7
-7
-7
-5
-3
-1
2
5
6
7
6
5
4
3
3
4
6
8
9
10
10
9
6
2
-2
-6
-10
-13
-14
-16
-16
-16
-16
-16
-17
-17
-17
-17
-17
-16
-15
-14
-14
-14
-14
-15
-16
-17
-18
-18
-17
-17
-16
-16
-16
-16
-17
-19
-20
-21
-21
-21
-21
-21
-21
-23
-24
-25
-24
-19
-9
8
33
64
99
137
172
201
221
229
223
203
172
133
89
46
6
-28
-53
-69
-78
-80
-79
-74
-70
-65
-61
-57
-53
-48
-43
-38
-32
-26
-21
-17
-15
-14
-14
-15
-15
-15
-15
-14
-13
-12
-12
-12
-12
-13
-14
-14
-14
-13
-12
-10
-9
-8
-7
-7
-8
-9
-10
-10
-9
-7
-5
-2
0
1
1
0
-2
-5
-7
-8
-7
-5
-2
2
6
9
11
11
10
8
7
6
7
10
14
19
24
29
32
33
32
31
29
27
26
26
27
29
31
34
36
38
40
41
42
43
44
44
44
44
44
43
42
42
41
41
41
41
41
40
38
36
34
32
29
27
26
25
23
22
20
18
15
11
8
5
3
2
1
2
2
2
2
1
0
-2
-4
-6
-7
-8
-9
-10
-10
-11
-12
-13
-14
-15
-15
-15
-14
-13
-12
-11
-11
-11
-11
-12
-12
-12
-12
-11
-11
-10
-10
-10
-11
-11
-12
-12
-12
-12
-11
-10
-9
-8
-8
-8
-9
-9
-10
-10
-10
-9
-8
-8
-8
-8
-9
-10
-12
-13
-13
-13
-13
-12
-11
-10
-10
-10
-10
-11
-12
-12
-12
-12
-12
-11
-10
-10
-9
-9
-10
-10
-11
-12
-12
-13
-14
-14
-14
-14
-14
-14
-13
-12
-12
-11
-12
-12
-13
-15
-16
-16
-17
-16
-15
-15
-14
-13
-12
-12
-12
-12
-11
-11
-10
-8
-7
-5
-4
-3
-3
-3
-3
-2
-2
-1
0
2
3
5
6
6
5
4
2
-1
-4
-7
-10
-13
-15
-16
-17
-17
-17
-17
-17
-18
-19
-21
-22
-23
-23
-23
-22
-20
-18
-17
-16
-16
-17
-18
-20
-22
-23
-23
-23
-23
-22
-22
-21
-21
-21
-22
-22
-22
-22
-23
-24
-25
-27
-27
-24
-18
-6
13
40
72
110
148
185
214
234
240
231
209
175
133
87
42
1
-32
-56
-70
-77
-78
-74
-69
-64
-59
-55
-51
-48
-43
-39
-33
-28
-24
-20
-18
-18
-18
-20
-21
-22
-21
-20
-17
-15
-12
-11
-10
-11
-13
-15
-17
-19
-19
-19
-17
-14
-12
-9
-7
-7
-7
-7
-9
-10
-11
-11
-11
-9
-8
-6
-4
-3
-1
-1
0
1
1
2
3
5
6
8
9
10
12
13
13
14
14
15
15
15
15
15
16
17
19
21
23
25
28
30
32
34
35
35
36
36
37
37
38
39
40
41
42
43
43
43
43
43
42
41
40
39
37
35
33
31
29
28
26
25
24
23
21
19
17
14
10
6
3
0
-2
-4
-5
-6
-6
-6
-7
-7
-9
-10
-12
-13
-15
-16
-16
-16
-15
-15
-14
-13
-13
-13
-14
-16
-17
-19
-20
-21
-21
-20
-19
-18
-18
-17
-17
-17
-18
-18
-19
-19
-18
-18
-17
-16
-15
-15
-15
-15
-16
-16
-17
-17
-18
-18
-18
-17
-16
-15
-14
-13
-12
-11
-11
-11
-12
-13
-14
-16
-17
-18
-18
-18
-18
-17
-17
-17
-17
-17
-17
-17
-17
-17
-16
-16
-16
-16
-15
-15
-16
-16
-16
-15
-15
-15
-15
-15
-16
-17
-18
-19
-19
-20
-20
-19
-18
-17
-15
-14
-12
-12
-11
-11
-11
-11
-11
-10
-9
-8
-6
-5
-4
-2
-1
0
1
2
3
4
4
4
4
3
2
1
0
-2
-3
-4
-6
-7
-9
-11
-13
-15
-17
-19
-20
-21
-21
-21
-21
-21
-20
-19
-19
-19
-19
-19
-19
-20
-21
-22
-23
-23
-23
-22
-21
-19
-18
-18
-18
-18
-19
-21
-23
-24
-26
-27
-28
-28
-28
-27
-25
-18
-7
10
33
63
99
137
175
208
233
245
243
226
195
154
107
59
14
-24
-53
-71
-80
-82
-78
-73
-67
-61
-57
-54
-51
-48
-43
-37
-31
-24
-18
-13
-11
-11
-12
-15
-18
-21
-22
-23
-22
-20
-18
-16
-15
-14
-14
-14
-14
-15
-14
-14
-13
-11
-10
-9
-9
-8
-8
-8
-7
-7
-5
-4
-2
-1
0
0
0
0
-1
-1
-1
0
1
3
5
7
9
10
10
10
10
10
10
11
13
16
19
22
25
27
28
29
29
29
29
29
29
31
32
35
37
38
40
41
41
41
41
41
42
42
43
43
44
44
45
45
44
44
44
43
42
41
40
38
35
32
28
24
21
18
16
14
13
13
12
11
9
8
5
3
1
-1
-2
-3
-3
-3
-3
-4
-4
-5
-7
-9
-11
-12
-13
-13
-12
-12
-11
-10
-10
-11
-12
-13
-15
-17
-18
-18
-18
-16
-14
-12
-10
-9
-8
-8
-9
-10
-11
-12
-12
-12
-12
-12
-12
-13
-13
-14
-15
-15
-16
-16
-16
-15
-14
-13
-12
-11
-11
-11
-10
-10
-10
-11
-11
-11
-11
-12
-12
-13
-13
-13
-14
-14
-14
-14
-14
-15
-15
-16
-17
-18
-19
-19
-19
-18
-18
-17
-16
-16
-16
-17
-18
-19
-20
-21
-22
-22
-21
-20
-19
-18
-16
-16
-15
-15
-15
-15
-15
-15
-14
-14
-13
-12
-11
-10
-10
-9
-8
-7
-6
-5
-3
-2
-1
1
2
3
3
2
0
-2
-5
-9
-13
-16
-19
-21
-23
-23
-22
-21
-20
-19
-19
-19
-20
-22
-23
-25
-27
-28
-28
-28
-27
-25
-24
-22
-21
-21
-21
-22
-23
-25
-26
-27
-28
-28
-28
-27
-27
-26
-25
-25
-25
-25
-26
-26
-24
-19
-10
5
27
55
88
125
162
196
222
236
237
223
195
156
110
61
16
-23
-52
-70
-79
-80
-76
-70
-65
-61
-59
-58
-59
-58
-56
-52
-46
-39
-31
-23
-17
-12
-10
-9
-10
-12
-14
-16
-18
-20
-21
-22
-22
-21
-20
-18
-17
-15
-14
-13
-12
-12
-11
-11
-10
-8
-7
-6
-4
-3
-3
-3
-3
-4
-5
-5
-5
-5
-4
-2
0
1
3
4
4
4
4
5
5
6
8
10
12
14
16
16
17
16
16
15
16
17
18
21
24
28
31
34
36
38
38
38
38
37
37
36
36
37
37
38
39
40
40
41
41
41
40
40
40
40
40
40
39
38
37
34
31
28
25
22
19
17
16
15
14
13
11
9
6
3
1
-1
-3
-3
-4
-4
-4
-5
-7
-9
-11
-12
-13
-14
-13
-12
-10
-9
-8
-9
-10
-12
-14
-16
-17
-18
-17
-16
-14
-13
-12
-12
-12
-13
-14
-14
-14
-13
-12
-11
-11
-10
-10
-11
-12
-12
-13
-12
-11
-10
-9
-8
-8
-9
-11
-14
-16
-17
-17
-16
-15
-12
-10
-8
-8
-9
-11
-14
-16
-18
-18
-17
-15
-13
-10
-8
-7
-8
-10
-12
-15
-16
-17
-17
-16
-15
-14
-14
-14
-14
-15
-16
-16
-15
-14
-12
-11
-10
-9
-10
-11
-13
-14
-15
-15
-13
-11
-7
-4
0
2
4
5
5
5
4
4
5
5
6
6
6
4
2
-1
-4
-7
-10
-12
-13
-14
-15
-16
-17
-17
-18
-19
-19
-19
-18
-17
-16
-16
-16
-17
-18
-20
-21
-22
-23
-22
-21
-20
-20
-19
-20
-20
-21
-22
-22
-22
-22
-21
-20
-21
-22
-24
-27
-30
-32
-32
-29
-20
-5
16
45
80
118
157
193
222
240
244
234
210
174
129
81
33
-9
-42
-66
-80
-85
-84
-79
-72
-66
-60
-56
-53
-50
-46
-42
-38
-32
-27
-22
-17
-14
-12
-10
-10
-10
-11
-12
-14
-15
-16
-17
-17
-17
-16
-14
-13
-11
-10
-9
-9
-10
-10
-11
-12
-12
-12
-11
-9
-7
-5
-4
-2
-2
-1
-2
-2
-3
-4
-3
-3
-1
1
4
7
10
12
14
15
16
16
16
16
16
17
18
19
20
21
21
20
20
20
20
20
22
25
29
32
36
39
40
41
41
40
40
39
39
40
42
44
47
49
50
51
50
49
46
44
41
38
36
33
31
29
27
25
23
21
20
18
16
14
13
10
8
5
2
-1
-3
-5
-6
-7
-7
-7
-7
-7
-7
-8
-10
-11
-13
-14
-15
-16
-15
-15
-14
-13
-12
-12
-12
-13
-14
-14
-15
-16
-16
-16
-16
-15
-15
-15
-15
-15
-16
-17
-18
-18
-18
-17
-16
-15
-14
-13
-13
-13
-13
-13
-14
-15
-15
-16
-16
-15
-14
-13
-12
-11
-11
-11
-12
-13
-15
-16
-17
-17
-16
-15
-14
-12
-11
-10
-9
-9
-10
-11
-12
-13
-15
-16
-18
-19
-19
-19
-18
-17
-15
-13
-11
-9
-8
-8
-9
-10
-11
-13
-14
-14
-13
-11
-9
-7
-5
-3
-2
-1
0
1
1
3
4
6
8
9
9
9
8
5
2
-1
-3
-6
-7
-8
-8
-8
-8
-9
-10
-12
-15
-17
-19
-21
-22
-22
-21
-20
-18
-18
-17
-18
-18
-19
-20
-20
-19
-18
-17
-16
-16
-16
-17
-19
-22
-24
-26
-27
-27
-26
-24
-23
-22
-23
-24
-26
-27
-25
-19
-7
13
40
75
115
156
194
225
244
249
239
214
176
131
81
33
-9
-43
-67
-81
-86
-86
-81
-75
-68
-63
-58
-54
-50
-46
-41
-36
-30
-26
-22
-19
-18
-19
-20
-21
-21
-21
-20
-19
-17
-15
-14
-14
-15
-16
-17
-18
-18
-18
-17
-16
-15
-15
-14
-14
-14
-14
-13
-12
-11
-9
-6
-4
-2
-1
-1
-1
-2
-3
-3
-4
-3
-2
0
2
4
5
6
6
6
5
5
5
6
7
10
13
16
19
21
23
24
25
25
26
26
27
29
32
35
38
41
42
43
44
43
42
40
39
39
40
41
42
44
45
45
45
43
41
38
35
33
31
29
28
27
27
26
25
23
21
19
16
13
10
8
6
4
2
1
-1
-2
-4
-6
-8
-11
-13
-15
-16
-17
-17
-17
-16
-14
-13
-12
-12
-12
-13
-14
-15
-16
-16
-15
-15
-13
-12
-12
-12
-12
-13
-14
-15
-16
-16
-15
-14
-13
-12
-11
-11
-12
-13
-15
-16
-17
-17
-17
-16
-14
-13
-12
-11
-12
-13
-14
-16
-17
-18
-19
-18
-18
-17
-16
-15
-15
-14
-14
-13
-13
-12
-13
-13
-15
-17
-19
-21
-23
-23
-23
-21
-18
-15
-12
-11
-11
-12
-15
-17
-20
-21
-20
-19
-16
-12
-9
-7
-6
-6
-8
-9
-11
-12
-12
-10
-8
-5
-3
0
1
1
1
0
-1
-2
-1
-1
0
1
1
0
-1
-4
-7
-11
-14
-17
-19
-20
-20
-19
-19
-18
-18
-19
-20
-21
-23
-24
-25
-25
-25
-24
-24
-23
-22
-22
-22
-21
-21
-21
-21
-21
-21
-22
-22
-23
-23
-23
-23
-23
-23
-23
-24
-25
-25
-23
-17
-6
11
35
66
101
138
172
201
220
226
219
198
166
125
81
36
-4
-38
-62
-77
-85
-85
-82
-77
-71
-66
-62
-59
-56
-53
-49
-43
-37
-30
-24
-20
-16
-15
-15
-16
-18
-19
-20
-20
-19
-17
-15
-13
-11
-10
-10
-10
-10
-11
-12
-12
-13
-12
-11
-10
-9
-7
-6
-6
-5
-5
-6
-6
-6
-6
-6
-4
-3
-2
0
1
1
2
2
2
3
5
6
8
10
12
12
13
12
12
11
12
13
16
19
24
28
31
33
33
32
30
28
26
25
25
27
30
33
36
38
40
40
40
39
38
38
39
40
42
44
45
45
44
43
41
38
36
34
32
30
28
27
25
23
20
18
15
14
12
11
9
8
6
4
1
-1
-4
-6
-7
-7
-7
-7
-7
-7
-7
-8
-10
-11
-12
-13
-12
-12
-11
-10
-9
-9
-9
-10
-11
-11
-11
-11
-10
-10
-10
-10
-11
-12
-13
-14
-15
-15
-14
-13
-12
-10
-9
-9
-9
-10
-11
-12
-12
-12
-12
-11
-10
-10
-10
-11
-11
-12
-13
-14
-14
-13
-13
-12
-10
-10
-9
-9
-9
-10
-11
-12
-13
-14
-14
-14
-14
-14
-14
-14
-14
-13
-13
-13
-13
-13
-14
-14
-14
-14
-14
-14
-14
-14
-13
-13
-12
-12
-11
-10
-9
-8
-7
-6
-6
-5
-4
-4
-3
-3
-2
-1
0
2
3
5
6
7
7
6
4
2
-1
-5
-9
-12
-15
-17
-18
-19
-19
-18
-18
-18
-18
-19
-21
-22
-23
-24
-24
-24
-24
-24
-25
-25
-26
-26
-26
-26
-25
-24
-22
-21
-20
-19
-19
-20
-20
-21
-21
-22
-22
-23
-24
-25
-25
-23
-18
-6
12
37
69
105
144
180
209
228
233
224
200
165
121
74
29
-11
-43
-65
-77
-82
-80
-75
-69
-64
-60
-57
-55
-53
-51
-47
-42
-36
-30
-24
-20
-17
-16
-15
-16
-17
-19
-20
-20
-20
-20
-19
-18
-17
-16
-14
-13
-13
-13
-14
-15
-17
-19
-20
-20
-20
-18
-15
-12
-9
-6
-3
-2
-2
-2
-4
-5
-7
-8
-8
-8
-7
-5
-3
-2
0
2
4
5
6
7
8
9
10
10
11
13
14
16
18
20
22
23
24
24
23
23
23
23
24
26
29
32
34
36
38
38
38
38
37
37
38
39
40
42
42
43
42
41
39
36
34
32
30
29
28
27
26
25
23
20
17
13
10
7
4
2
0
-1
-2
-2
-4
-5
-7
-8
-10
-11
-12
-11
-11
-10
-10
-10
-10
-12
-13
-15
-17
-18
-18
-18
-17
-15
-14
-13
-13
-13
-14
-16
-17
-19
-20
-20
-20
-19
-18
-17
-16
-15
-15
-16
-16
-17
-18
-19
-19
-18
-17
-16
-15
-14
-12
-12
-12
-12
-13
-14
-15
-17
-18
-19
-20
-20
-20
-20
-19
-18
-17
-15
-14
-13
-13
-13
-13
-14
-16
-17
-19
-20
-20
-20
-19
-17
-16
-15
-14
-14
-15
-16
-18
-19
-20
-20
-19
-17
-15
-13
-11
-9
-8
-8
-8
-8
-7
-6
-4
-2
1
3
5
6
6
5
3
1
-2
-4
-6
-8
-10
-12
-13
-15
-17
-18
-20
-21
-23
-23
-24
-24
-24
-23
-22
-22
-21
-22
-22
-24
-25
-27
-29
-30
-30
-29
-28
-26
-24
-22
-21
-20
-21
-22
-23
-25
-26
-28
-29
-31
-33
-35
-37
-37
-35
-29
-17
2
28
61
98
138
176
209
231
241
236
217
185
142
95
47
2
-34
-61
-77
-83
-83
-77
-70
-62
-56
-52
-49
-48
-46
-43
-39
-34
-30
-25
-22
-21
-20
-21
-22
-23
-23
-23
-22
-20
-19
-18
-18
-19
-20
-20
-21
-21
-20
-18
-17
-15
-14
-13
-12
-12
-11
-11
-10
-9
-9
-8
-8
-8
-8
-8
-7
-6
-4
-1
1
4
5
6
5
3
1
0
-1
-1
1
4
8
12
15
17
19
19
19
18
17
18
19
21
24
27
30
32
34
35
36
36
36
36
36
36
37
38
39
39
40
40
41
41
41
40
40
40
39
38
37
36
35
33
31
28
26
24
21
19
17
14
12
10
9
7
6
4
3
1
0
-2
-4
-6
-8
-10
-11
-13
-14
-14
-14
-14
-13
-13
-13
-13
-14
-14
-15
-16
-16
-15
-14
-13
-12
-12
-12
-14
-16
-18
-19
-20
-20
-18
-15
-12
-9
-7
-6
-7
-10
-13
-16
-19
-21
-21
-20
-18
-16
-15
-14
-14
-15
-16
-17
-18
-17
-16
-14
-12
-10
-9
-9
-10
-11
-12
-14
-15
-15
-15
-14
-14
-13
-12
-11
-11
-11
-11
-11
-12
-12
-13
-13
-14
-14
-14
-13
-13
-11
-10
-8
-6
-5
-4
-3
-3
-3
-4
-4
-5
-5
-5
-4
-3
-1
1
3
5
6
8
8
9
9
8
8
8
7
7
6
5
4
2
-1
-3
-5
-7
-8
-9
-10
-11
-12
-13
-15
-16
-17
-18
-18
-18
-17
-16
-15
-14
-14
-15
-16
-18
-19
-19
-19
-19
-17
-16
-14
-13
-12
-11
-11
-12
-13
-14
-15
-18
-20
-23
-26
-28
-27
-22
-11
6
32
64
101
141
180
215
240
253
252
236
207
168
122
74
28
-11
-42
-63
-75
-79
-77
-71
-65
-58
-52
-47
-43
-39
-34
-29
-23
-18
-13
-10
-8
-9
-10
-12
-14
-16
-16
-15
-14
-12
-10
-9
-8
-8
-8
-9
-9
-9
-9
-8
-7
-6
-6
-5
-5
-5
-6
-6
-6
-6
-6
-5
-4
-3
-2
0
2
5
7
10
12
14
16
16
16
15
15
14
14
15
16
18
20
22
24
25
26
26
27
27
28
30
32
34
36
38
40
41
42
43
43
44
45
47
49
51
53
54
55
55
55
54
54
53
52
51
50
49
48
46
45
43
42
41
40
40
39
38
37
34
31
27
24
20
17
15
14
13
13
12
12
11
9
7
5
3
1
-1
-2
-2
-3
-3
-3
-4
-5
-6
-6
-7
-7
-7
-7
-7
-7
-7
-7
-7
-7
-6
-5
-5
-4
-4
-4
-3
-3
-3
-3
-3
-3
-2
-2
-2
-3
-4
-5
-7
-7
-7
-7
-5
-3
-1
0
1
1
0
-2
-4
-6
-7
-8
-8
-8
-8
-7
-7
-6
-7
-7
-8
-8
-8
-8
-8
-7
-7
-6
-5
-4
-3
-2
-1
0
1
2
3
3
2
1
0
-1
-2
-3
-3
-3
-1
0
2
4
5
6
6
5
5
5
5
6
8
10
13
16
19
21
22
23
22
21
19
18
17
16
15
15
14
14
12
11
9
7
4
2
0
-1
-2
-2
-2
-1
0
1
2
3
3
2
1
-1
-2
-2
-3
-2
0
1
3
5
6
5
5
3
1
0
-1
-1
-1
0
0
0
0
1
3
8
19
37
61
92
128
166
201
230
248
254
246
224
191
151
106
63
23
-9
-33
-49
-56
-57
-54
-45
