-12
-10
-8
-6
-4
-2
-1
0
1
1
0
0
-1
-2
-2
-2
-2
-1
0
0
0
0
0
0
-1
-1
-2
-2
-1
-1
-1
-2
-3
-4
-6
-8
-9
-10
-11
-10
-8
-6
-3
-1
1
2
2
0
-3
-6
-9
-12
-14
-15
-14
-12
-9
-5
-2
0
2
2
0
-2
-4
-7
-8
-10
-10
-10
-10
-9
-9
-9
-9
-10
-10
-10
-10
-11
-11
-12
-13
-14
-15
-16
-17
-16
-14
-12
-9
-7
-5
-4
-4
-5
-7
-10
-12
-13
-14
-14
-13
-12
-11
-9
-9
-9
-9
-10
-11
-12
-13
-13
-13
-13
-12
-12
-11
-11
-11
-11
-12
-13
-13
-14
-14
-14
-14
-14
-14
-15
-16
-17
-19
-20
-21
-20
-19
-18
-15
-12
-9
-7
-5
-4
-4
-4
-4
-5
-4
-4
-3
-2
0
1
2
3
3
4
5
6
8
10
12
13
13
12
10
8
5
2
-1
-3
-4
-4
-4
-3
-3
-2
-3
-4
-5
-7
-8
-10
-11
-13
-14
-14
-16
-17
-18
-19
-20
-21
-21
-21
-21
-20
-19
-18
-17
-16
-16
-16
-16
-16
-16
-16
-16
-15
-15
-14
-14
-15
-15
-15
-14
-11
-6
3
15
30
48
67
86
105
121
133
141
144
142
134
122
105
85
62
37
13
-10
-30
-45
-56
-61
-62
-58
-51
-42
-33
-24
-17
-12
-9
-8
-8
-9
-10
-10
-11
-11
-11
-11
-12
-13
-15
-16
-18
-18
-18
-16
-13
-9
-6
-3
-1
0
-1
-3
-5
-7
-9
-9
-9
-7
-5
-3
-1
1
2
3
4
4
5
5
5
5
5
5
4
4
4
5
6
8
10
12
15
17
19
20
21
22
22
23
24
26
28
30
32
34
35
37
39
41
43
45
48
51
54
56
58
59
60
60
60
61
61
62
64
65
67
69
70
71
71
70
69
67
65
63
60
58
57
55
54
53
51
49
47
44
40
37
33
29
26
23
20
17
14
12
9
6
3
0
-1
-2
-3
-3
-3
-3
-3
-4
-5
-7
-9
-10
-11
-11
-11
-10
-10
-9
-10
-11
-13
-15
-17
-19
-21
-21
-20
-19
-17
-15
-13
-12
-11
-12
-13
-14
-16
-16
-17
-16
-15
-14
-13
-12
-11
-11
-11
-12
-12
-13
-14
-14
-14
-14
-13
-13
-13
-12
-12
-13
-13
-13
-13
-13
-13
-12
-12
-12
-12
-12
-13
-14
-15
-16
-16
-16
-16
-17
-17
-17
-17
-17
-17
-17
-16
-16
-16
-16
-16
-16
-16
-17
-17
-18
-18
-17
-16
-15
-14
-14
-13
-14
-14
-15
-16
-17
-18
-19
-20
-21
-21
-22
-22
-22
-21
-21
-20
-19
-18
-17
-17
-17
-17
-18
-20
-22
-24
-26
-27
-27
-27
-26
-24
-22
-20
-18
-16
-15
-15
-15
-16
-17
-19
-20
-21
-22
-23
-23
-23
-23
-22
-22
-21
-21
-21
-20
-20
-20
-20
-20
-20
-21
-21
-22
-22
-22
-22
-21
-20
-19
-17
-16
-16
-15
-15
-15
-15
-14
-14
-13
-12
-11
-10
-9
-8
-8
-7
-7
-6
-5
-3
-2
0
1
2
2
2
1
-1
-2
-3
-4
-5
-5
-5
-6
-7
-9
-11
-14
-16
-17
-19
-19
-19
-19
-20
-20
-22
-23
-25
-26
-27
-27
-27
-26
-25
-24
-23
-22
-22
-21
-21
-20
-19
-18
-17
-17
-16
-16
-16
-15
-13
-8
-1
9
23
38
55
73
90
106
119
128
133
132
125
111
91
66
38
8
-20
-45
-65
-78
-83
-83
-76
-67
-56
-45
-35
-28
-23
-20
-18
-17
-17
-16
-16
-16
-17
-18
-19
-20
-21
-21
-20
-19
-16
-14
-12
-10
-9
-8
-8
-8
-7
-6
-5
-4
-3
-2
-2
-3
-4
-5
-6
-6
-6
-5
-3
-1
1
3
4
4
4
4
3
3
4
5
7
9
11
12
13
14
14
15
15
15
16
17
19
21
23
25
27
29
30
31
31
31
31
31
32
33
36
39
43
48
52
56
59
61
62
62
61
60
60
60
60
62
63
65
67
68
68
67
66
64
61
59
56
54
52
49
47
44
40
36
33
29
26
23
21
19
18
17
15
14
12
10
7
5
2
0
-2
-4
-5
-6
-6
-7
-7
-7
-8
-9
-10
-11
-13
-15
-16
-16
-17
-16
-15
-14
-12
-10
-9
-9
-9
-10
-11
-13
-14
-15
-15
-15
-14
-12
-10
-9
-7
-6
-6
-7
-8
-9
-10
-11
-12
-12
-11
-10
-9
-8
-6
-5
-4
-3
-3
-3
-3
-4
-5
-6
-8
-9
-10
-11
-11
-10
-9
-8
-7
-6
-5
-5
-5
-5
-5
-5
-5
-5
-5
-6
-7
-8
-10
-12
-14
-15
-16
-17
-16
-15
-14
-12
-11
-11
-11
-11
-13
-14
-16
-17
-18
-18
-18
-17
-16
-15
-13
-12
-10
-9
-8
-7
-8
-8
-10
-12
-15
-18
-20
-23
-25
-25
-25
-23
-20
-16
-13
-9
-6
-4
-4
-4
-7
-9
-12
-15
-17
-19
-19
-19
-19
-18
-17
-17
-17
-17
-17
-17
-16
-16
-15
-15
-14
-14
-15
-15
-16
-17
-17
-17
-17
-15
-14
-12
-11
-9
-8
-7
-7
-7
-7
-6
-6
-5
-3
-1
0
2
3
4
4
3
1
-1
-3
-5
-6
-7
-8
-8
-7
-6
-5
-4
-2
-2
-1
-2
-3
-5
-8
-11
-15
-18
-21
-23
-25
-25
-24
-21
-19
-16
-14
-12
-12
-12
-14
-16
-19
-21
-23
-24
-24
-24
-23
-22
-21
-19
-17
-14
-9
-3
5
15
28
41
55
69
83
95
105
113
118
119
116
109
97
80
59
36
11
-13
-34
-52
-64
-70
-71
-67
-60
-50
-40
-31
-24
-18
-14
-12
-11
-10
-11
-11
-12
-13
-15
-16
-17
-18
-19
-18
-17
-15
-13
-12
-10
-9
-9
-10
-11
-12
-14
-14
-14
-14
-13
-12
-11
-10
-9
-8
-8
-7
-7
-6
-6
-6
-6
-7
-7
-7
-7
-5
-3
0
3
7
11
14
17
18
18
17
16
15
15
15
16
18
21
24
26
29
31
32
33
34
34
35
35
36
38
39
40
42
44
45
47
50
52
55
57
60
62
63
64
65
64
63
62
61
60
59
58
58
57
56
55
53
50
47
43
40
36
33
30
28
26
24
22
20
17
14
11
8
5
2
0
-2
-3
-5
-6
-7
-8
-10
-11
-12
-12
-13
-12
-11
-11
-10
-9
-9
-10
-11
-12
-13
-13
-13
-13
-12
-12
-11
-11
-11
-12
-12
-13
-13
-13
-13
-12
-12
-11
-11
-11
-12
-13
-14
-15
-16
-16
-16
-15
-15
-14
-14
-14
-13
-13
-12
-11
-10
-8
-7
-6
-6
-7
-8
-10
-12
-14
-16
-18
-19
-19
-18
-17
-15
-12
-10
-8
-7
-6
-6
-7
-8
-9
-11
-13
-14
-16
-17
-19
-20
-22
-23
-25
-25
-25
-24
-22
-19
-17
-14
-12
-10
-10
-10
-12
-13
-15
-17
-18
-19
-18
-18
-17
-16
-15
-14
-14
-14
-14
-14
-15
-16
-16
-17
-17
-18
-18
-19
-19
-20
-20
-20
-20
-20
-20
-20
-19
-19
-19
-19
-19
-18
-18
-18
-18
-18
-18
-19
-20
-21
-21
-22
-22
-22
-22
-20
-19
-18
-16
-15
-14
-14
-13
-13
-13
-12
-11
-11
-10
-9
-9
-9
-9
-9
-9
-10
-9
-8
-7
-5
-3
0
2
3
3
3
1
-1
-4
-6
-8
-9
-9
-7
-6
-4
-2
-2
-2
-4
-7
-11
-15
-19
-22
-24
-25
-25
-25
-25
-25
-25
-26
-26
-27
-27
-27
-25
-23
-21
-19
-16
-15
-14
-13
-14
-15
-16
-17
-17
-17
-15
-10
-4
4
15
28
43
58
75
91
106
120
130
135
136
131
119
102
81
55
29
2
-22
-42
-56
-65
-68
-67
-61
-54
-45
-36
-28
-22
-17
-13
-11
-9
-9
-9
-10
-11
-12
-14
-15
-16
-17
-18
-18
-18
-17
-17
-16
-15
-14
-13
-12
-10
-9
-7
-6
-6
-6
-6
-7
-8
-8
-8
-7
-7
-6
-5
-4
-5
-5
-6
-6
-6
-6
-4
-2
0
3
5
7
8
8
8
7
7
8
9
11
13
16
17
19
20
20
21
22
24
26
30
34
37
41
44
46
46
46
46
46
45
46
46
48
50
52
54
56
58
60
61
62
62
63
64
64
64
63
62
60
58
55
52
49
47
45
43
43
42
42
41
39
36
33
28
23
17
13
9
6
4
3
3
3
2
0
-2
-5
-8
-11
-13
-15
-16
-16
-16
-15
-15
-15
-16
-17
-17
-18
-17
-16
-14
-12
-10
-9
-8
-8
-8
-10
-11
-12
-12
-12
-11
-9
-8
-6
-6
-6
-7
-9
-10
-11
-12
-13
-12
-12
-11
-11
-11
-12
-13
-15
-17
-19
-20
-20
-19
-17
-15
-13
-12
-11
-10
-11
-12
-13
-14
-15
-15
-16
-15
-15
-15
-15
-15
-15
-16
-16
-15
-14
-13
-11
-9
-8
-8
-8
-10
-12
-15
-17
-18
-19
-19
-19
-18
-17
-16
-16
-16
-17
-18
-19
-20
-20
-19
-18
-17
-16
-16
-15
-16
-17
-17
-18
-19
-19
-18
-18
-17
-17
-18
-19
-20
-22
-24
-25
-25
-25
-24
-22
-19
-17
-16
-15
-15
-16
-17
-18
-19
-20
-20
-19
-18
-17
-16
-16
-16
-18
-19
-21
-23
-24
-25
-24
-23
-22
-20
-18
-17
-16
-15
-15
-14
-14
-13
-13
-12
-11
-10
-9
-8
-7
-6
-5
-4
-2
0
1
3
4
4
4
3
2
1
0
-2
-3
-4
-5
-5
-6
-7
-8
-9
-10
-11
-12
-13
-14
-15
-15
-16
-17
-18
-18
-19
-20
-21
-21
-21
-20
-20
-20
-20
-20
-21
-22
-23
-23
-23
-22
-21
-20
-18
-17
-16
-16
-15
-13
-10
-4
5
18
33
51
71
91
110
127
140
150
154
153
146
133
115
93
67
39
11
-14
-36
-52
-62
-66
-64
-58
-49
-38
-29
-20
-14
-10
-8
-8
-9
-11
-12
-14
-15
-16
-16
-16
-16
-16
-16
-15
-14
-13
-12
-11
-9
-8
-6
-5
-4
-4
-4
-5
-6
-8
-9
-10
-10
-10
-9
-8
-7
-6
-5
-4
-4
-3
-3
-3
-2
0
1
3
5
6
7
7
7
6
6
5
5
5
6
8
10
13
16
19
22
25
28
30
32
34
35
36
37
39
41
43
46
48
51
53
55
56
57
58
59
60
60
62
63
64
65
65
65
64
63
62
60
58
56
54
52
50
49
47
46
45
44
43
41
39
36
33
29
26
23
21
19
19
18
17
16
15
12
8
5
1
-3
-7
-9
-11
-13
-13
-14
-14
-14
-13
-13
-13
-13
-13
-13
-13
-13
-12
-11
-10
-9
-7
-6
-5
-6
-7
-9
-12
-15
-17
-19
-19
-18
-16
-13
-11
-10
-9
-10
-11
-13
-14
-16
-16
-16
-15
-14
-13
-12
-12
-12
-13
-15
-16
-17
-17
-17
-16
-16
-16
-16
-16
-17
-17
-17
-17
-16
-14
-12
-9
-7
-5
-4
-4
-5
-7
-9
-12
-14
-15
-16
-17
-17
-16
-16
-15
-15
-15
-15
-15
-16
-17
-18
-18
-19
-19
-20
-20
-20
-20
-19
-19
-19
-20
-20
-20
-20
-20
-19
-18
-17
-16
-14
-13
-13
-13
-14
-15
-16
-17
-17
-17
-17
-16
-15
-15
-14
-15
-16
-17
-19
-20
-21
-21
-21
-20
-18
-15
-13
-12
-11
-11
-12
-13
-15
-15
-15
-15
-13
-10
-7
-5
-3
-1
-1
-2
-3
-4
-5
-6
-5
-4
-3
-2
0
0
0
-1
-2
-3
-5
-6
-7
-8
-9
-9
-9
-10
-10
-11
-11
-12
-13
-14
-15
-16
-18
-19
-21
-22
-22
-22
-21
-20
-18
-17
-16
-16
-16
-17
-18
-18
-19
-18
-18
-17
-16
-14
-13
-10
-7
-2
5
15
27
42
58
75
92
108
121
130
134
133
125
112
92
68
41
12
-15
-39
-58
-71
-77
-76
-71
-62
-51
-41
-32
-25
-21
-19
-17
-16
-15
-14
-12
-11
-10
-9
-10
-11
-13
-15
-17
-19
-19
-19
-19
-17
-16
-13
-11
-9
-7
-5
-4
-3
-3
-4
-5
-6
-8
-9
-9
-9
-8
-7
-6
-4
-3
-2
-1
0
1
2
2
3
4
4
4
4
4
4
5
7
9
13
16
19
22
23
22
21
19
18
17
18
21
25
29
34
39
43
45
47
47
48
48
49
50
52
54
56
57
58
59
59
59
60
61
63
64
65
65
65
63
61
58
55
52
49
47
45
43
41
38
34
30
26
22
18
16
14
14
14
14
14
13
10
7
3
-1
-6
-9
-12
-14
-15
-15
-15
-15
-15
-16
-16
-17
-17
-18
-19
-19
-20
-21
-22
-23
-24
-24
-24
-23
-21
-19
-16
-14
-12
-11
-12
-12
-14
-15
-17
-17
-18
-17
-17
-16
-15
-15
-15
-15
-15
-15
-15
-15
-14
-13
-13
-12
-12
-12
-13
-14
-15
-16
-17
-18
-18
-18
-17
-17
-16
-15
-15
-15
-16
-17
-18
-20
-21
-22
-22
-22
-21
-20
-19
-17
-16
-15
-14
-13
-13
-14
-15
-15
-16
-17
-18
-19
-20
-21
-22
-23
-24
-24
-24
-23
-22
-20
-18
-17
-16
-15
-15
-15
-16
-18
-19
-20
-21
-22
-22
-22
-22
-22
-22
-23
-24
-25
-26
-27
-27
-27
-25
-24
-21
-19
-16
-14
-13
-12
-12
-12
-12
-12
-12
-12
-11
-10
-9
-8
-7
-6
-5
-4
-4
-3
-2
-2
-1
-1
-1
-1
-1
-2
-3
-4
-5
-5
-6
-7
-8
-9
-10
-12
-13
-15
-15
-16
-16
-16
-15
-15
-15
-16
-17
-19
-20
-22
-24
-25
-25
-25
-24
-23
-22
-21
-20
-20
-21
-22
-23
-24
-25
-25
-25
-25
-23
-21
-17
-12
-4
5
17
30
45
60
75
90
103
114
122
126
126
120
109
92
70
45
19
-7
-31
-49
-62
-67
-67
-62
-54
-45
-36
-28
-23
-20
-19
-19
-19
-19
-18
-16
-15
-14
-13
-13
-14
-15
-16
-17
-18
-18
-18
-17
-16
-14
-13
-12
-12
-11
-11
-11
-11
-11
-10
-10
-10
-9
-8
-8
-7
-7
-7
-7
-6
-6
-4
-2
0
3
5
7
8
9
9
8
8
8
8
9
11
13
15
16
17
17
17
17
17
18
19
21
23
26
28
31
33
35
38
40
43
46
49
51
53
54
55
56
56
57
57
59
60
61
62
63
62
61
60
58
56
55
54
53
52
51
49
47
44
41
38
35
33
32
31
30
29
27
24
21
18
14
10
7
4
2
0
-1
-2
-3
-4
-5
-7
-8
-9
-10
-11
-12
-13
-15
-16
-17
-19
-19
-19
-19
-18
-16
-15
-13
-11
-10
-9
-9
-9
-9
-10
-10
-11
-12
-12
-13
-14
-14
-14
-15
-16
-16
-17
-17
-17
-17
-17
-15
-14
-13
-12
-12
-12
-13
-15
-17
-18
-20
-20
-20
-19
-18
-17
-16
-15
-14
-13
-12
-10
-9
-7
-6
-5
-5
-5
-6
-8
-10
-12
-13
-14
-15
-15
-15
-16
-16
-15
-15
-15
-14
-13
-12
-12
-12
-12
-13
-15
-16
-18
-19
-20
-20
-20
-19
-19
-18
-18
-19
-19
-20
-20
-21
-21
-21
-20
-20
-19
-19
-18
-18
-17
-17
-16
-15
-14
-13
-12
-11
-10
-10
-10
-10
-10
-11
-11
-11
-11
-10
-9
-8
-8
-8
-8
-10
-11
-12
-13
-13
-12
-10
-8
-5
-3
-1
1
2
2
1
1
0
-1
-1
-2
-3
-4
-5
-6
-8
-11
-13
-16
-18
-20
-21
-21
-21
-21
-20
-19
-18
-18
-18
-18
-19
-20
-21
-22
-23
-24
-25
-26
-27
-28
-28
-27
-26
-24
-22
-20
-18
-16
-16
-15
-14
-11
-7
-1
9
21
35
51
67
83
97
108
117
122
123
121
115
104
90
73
52
30
8
-13
-31
-45
-54
-58
-58
-53
-46
-38
-30
-23
-18
-15
-14
-13
-14
-14
-14
-14
-14
-14
-14
-14
-15
-16
-17
-17
-18
-18
-17
-16
-14
-13
-12
-11
-10
-10
-11
-12
-13
-14
-15
-16
-16
-15
-13
-11
-8
-5
-1
2
5
7
8
7
7
5
5
5
6
7
10
12
14
15
16
15
14
13
13
13
14
16
18
21
22
23
24
23
23
23
24
27
30
34
38
43
46
48
50
50
51
51
52
53
54
55
57
58
59
59
59
58
58
57
56
55
54
53
51
49
47
45
44
44
43
43
43
41
39
35
31
26
22
18
15
13
13
12
11
10
8
4
0
-5
-8
-11
-12
-11
-9
-7
-4
-2
-2
-3
-5
-8
-11
-14
-15
-16
-15
-13
-11
-9
-8
-8
-9
-10
-12
-14
-16
-17
-18
-18
-17
-17
-16
-16
-16
-16
-16
-17
-17
-16
-16
-15
-14
-14
-14
-14
-15
-15
-16
-17
-17
-17
-17
-16
-16
-16
-15
-14
-14
-13
-12
-11
-10
-9
-8
-8
-8
-9
-10
-11
-12
-13
-14
-14
-15
-15
-15
-15
-15
-15
-15
-14
-14
-13
-13
-13
-13
-13
-14
-14
-15
-16
-17
-18
-18
-19
-20
-21
-21
-22
-22
-21
-20
-19
-18
-17
-16
-16
-16
-17
-18
-19
-20
-21
-22
-22
-22
-21
-21
-21
-20
-19
-19
-18
-17
-15
-14
-13
-12
-11
-11
-11
-10
-9
-8
-6
-4
-2
0
1
2
2
1
-1
-3
-5
-7
-8
-10
-10
-10
-9
-8
-7
-5
-4
-3
-3
-4
-6
-9
-12
-16
-19
-22
-24
-24
-24
-23
-22
-20
-19
-19
-19
-19
-20
-20
-21
-21
-21
-21
-21
-22
-23
-24
-25
-25
-25
-25
-24
-23
-22
-21
-20
-19
-18
-18
-16
-14
-10
-3
7
19
34
51
69
87
104
119
130
137
139
135
126
112
94
73
50
26
4
-16
-33
-45
-53
-57
-56
-52
-45
-38
-29
-22
-16
-12
-11
-10
-11
-13
-14
-15
-16
-15
-15
-14
-12
-12
-11
-12
-12
-13
-13
-13
-14
-14
-14
-14
-14
-14
-14
-14
-13
-11
-9
-7
-5
-3
-2
-2
-3
-4
-5
-6
-6
-5
-4
-2
0
3
5
6
7
7
7
7
7
8
9
10
12
13
14
14
14
14
14
14
15
16
18
21
24
28
31
34
37
39
41
42
44
45
46
48
50
52
54
57
59
61
62
62
62
61
59
58
57
56
55
55
54
54
53
52
50
48
46
44
42
41
40
39
38
36
33
29
24
18
12
6
1
-2
-4
-4
-3
-2
-1
-1
-1
-2
-4
-6
-7
-8
-9
-9
-9
-9
-10
-11
-13
-16
-18
-19
-19
-18
-16
-14
-11
-10
-9
-9
-10
-12
-14
-16
-17
-16
-15
-13
-11
-10
-9
-9
-11
-12
-14
-16
-17
-17
-16
-15
-13
-12
-11
-10
-11
-12
-14
-16
-17
-19
-20
-20
-20
-19
-18
-17
-15
-14
-14
-14
-14
-15
-15
-16
-16
-16
-15
-14
-13
-12
-11
-11
-11
-12
-13
-15
-16
-17
-18
-18
-18
-17
-16
-15
-14
-13
-13
-14
-15
-16
-17
-18
-19
-19
-18
-17
-16
-15
-13
-12
-12
-12
-12
-13
-14
-15
-16
-16
-16
-16
-16
-16
-16
-16
-17
-18
-20
-20
-21
-21
-20
-19
-19
-18
-17
-17
-18
-19
-20
-20
-21
-21
-21
-21
-20
-19
-18
-18
-17
-16
-15
-14
-13
-12
-11
-10
-9
-8
-7
-7
-6
-5
-5
-4
-4
-4
-4
-4
-4
-5
-5
-6
-6
-6
-6
-6
-6
-6
-6
-7
-7
-7
-7
-7
-6
-6
-5
-5
-5
-6
-8
-10
-12
-15
-18
-21
-23
-25
-25
-25
-24
-23
-22
-22
-21
-21
-22
-23
-23
-24
-24
-24
-23
-22
-21
-20
-19
-18
-17
-16
-16
-15
-15
-15
-16
-17
-18
-19
-18
-16
-11
-3
8
22
38
56
73
91
106
119
129
135
137
134
125
112
94
73
48
24
0
-21
-37
-48
-54
-56
-53
-48
-41
-34
-29
-24
-20
-17
-15
-14
-13
-12
-12
-12
-13
-15
-16
-18
-19
-19
-20
-19
-18
-17
-16
-15
-15
-14
-14
-14
-13
-13
-12
-11
-10
-9
-8
-7
-6
-5
-4
-3
-3
-2
-1
-1
0
0
1
1
1
1
2
2
3
5
6
8
9
11
12
13
14
14
14
14
14
15
15
15
16
17
19
21
23
26
29
31
34
36
38
40
42
44
46
49
52
55
59
62
64
65
66
65
64
62
61
60
60
60
61
62
63
63
62
61
58
55
52
48
45
42
40
38
35
33
31
28
25
22
20
17
15
13
12
10
8
6
4
0
-3
-7
-10
-13
-14
-15
-14
-12
-10
-8
-6
-6
-7
-9
-11
-13
-15
-16
-15
-13
-11
-8
-5
-3
-3
-4
-5
-8
-11
-13
-14
-14
-13
-12
-11
-11
-11
-11
-13
-14
-16
-16
-17
-16
-15
-13
-12
-11
-10
-10
-12
-13
-15
-17
-19
-20
-20
-19
-17
-15
-14
-13
-13
-13
-15
-16
-18
-18
-18
-17
-14
-11
-9
-7
-6
-6
-8
-10
-13
-15
-16
-16
-15
-12
-10
-8
-7
-8
-10
-12
-15
-17
-19
-19
-18
-17
-16
-14
-14
-13
-14
-15
-16
-17
-18
-18
-18
-18
-17
-17
-16
-16
-15
-15
-15
-14
-14
-15
-15
-17
-18
-19
-21
-22
-22
-22
-21
-19
-18
-17
-16
-16
-16
-17
-18
-18
-18
-17
-16
-15
-13
-12
-11
-11
-12
-14
-16
-19
-22
-24
-25
-25
-24
-22
-20
-18
-16
-15
-14
-14
-15
-15
-16
-16
-15
-14
-13
-12
-11
-10
-10
-9
-9
-9
-8
-7
-5
-2
0
3
5
7
8
8
7
6
4
2
0
-1
-2
-3
-4
-5
-6
-7
-8
-10
-11
-12
-13
-14
-14
-14
-14
-14
-14
-14
-14
-15
-16
-17
-18
-20
-21
-21
-21
-21
-20
-19
-17
-16
-15
-15
-15
-16
-17
-18
-19
-19
-20
-20
-19
-18
-16
-13
-8
-2
6
17
30
46
63
81
99
116
131
143
149
150
145
133
114
90
63
34
6
-19
-39
-54
-62
-65
-63
-58
-52
-44
-38
-32
-27
-23
-19
-16
-13
-10
-8
-7
-6
-7
-8
-9
-11
-12
-13
-14
-14
-14
-14
-13
-13
-13
-13
-13
-12
-12
-11
-10
-8
-8
-7
-6
-6
-6
-5
-5
-4
-4
-3
-2
-2
-1
-1
-1
0
0
1
1
2
3
4
6
7
8
8
9
10
11
12
13
14
15
16
17
17
17
18
19
21
23
26
30
34
39
43
46
49
51
53
55
56
57
59
60
61
62
62
62
62
61
61
60
60
61
61
61
61
61
59
58
55
53
50
48
45
43
40
38
36
33
31
29
28
26
25
23
21
19
15
12
8
4
1
-2
-3
-4
-4
-4
-4
-5
-6
-9
-11
-14
-16
-18
-20
-20
-20
-20
-21
-21
-22
-22
-23
-23
-23
-22
-21
-20
-18
-17
-16
-16
-16
-16
-16
-16
-15
-15
-14
-13
-12
-11
-11
-11
-12
-12
-12
-12
-12
-11
-11
-10
-10
-10
-10
-10
-10
-10
-11
-11
-11
-12
-12
-12
-12
-12
-12
-12
-12
-13
-13
-14
-15
-16
-16
-17
-17
-16
-16
-15
-14
-14
-14
-14
-14
-15
-15
-15
-16
-16
-15
-15
-15
-14
-14
-15
-16
-16
-17
-17
-17
-17
-16
-15
-15
-15
-15
-15
-16
-17
-18
-18
-19
-19
-19
-19
-19
-20
-20
-21
-21
-21
-20
-19
-18
-17
-15
-15
-14
-15
-16
-17
-18
-19
-20
-19
-18
-17
-16
-16
-16
-16
-18
-20
-23
-25
-26
-26
-26
-25
-23
-22
-20
-19
-19
-19
-20
-20
-20
-19
-17
-14
-11
-8
-5
-3
-2
-2
-2
-3
-5
-7
-8
-9
-9
-9
-8
-8
-7
-7
-7
-7
-8
-9
-9
-9
-9
-9
-8
-8
-8
-9
-10
-12
-15
-18
-21
-23
-24
-25
-24
-23
-21
-20
-18
-17
-17
-17
-18
-19
-21
-22
-23
-23
-24
-24
-23
-23
-22
-21
-19
-18
-16
-14
-13
-11
-9
-6
-1
6
15
27
41
58
75
92
108
120
128
131
127
117
102
82
58
33
8
-16
-36
-52
-63
-69
-70
-67
-61
-53
-44
-35
-28
-22
-18
-16
-14
-14
-14
-15
-15
-15
-16
-16
-16
-16
-16
-15
-15
-14
-13
-12
-11
-10
-9
-8
-7
-7
-6
-5
-4
-3
-3
-3
-3
-3
-4
-5
-5
-5
-4
-3
-1
0
2
3
3
3
2
2
2
3
4
7
10
13
16
18
20
20
19
18
18
17
18
19
21
23
25
26
27
28
28
29
30
32
35
39
43
47
51
53
55
56
56
56
56
57
58
59
61
63
64
64
65
64
64
64
63
63
63
62
60
58
56
53
50
47
45
43
42
41
40
39
36
33
30
25
20
15
10
6
3
0
-1
-2
-3
-4
-4
-4
-4
-5
-6
-6
-7
-8
-9
-10
-10
-11
-11
-11
-12
-13
-14
-15
-17
-18
-19
-19
-18
-17
-15
-13
-11
-9
-9
-9
-10
-12
-14
-16
-18
-18
-18
-17
-16
-13
-10
-7
-5
-3
-2
-2
-3
-4
-7
-9
-11
-12
-12
-11
-10
-8
-7
-6
-5
-5
-6
-8
-9
-11
-13
-13
-14
-13
-12
-11
-9
-8
-6
-6
-6
-6
-7
-9
-11
-12
-14
-15
-16
-16
-16
-17
-18
-18
-19
-20
-19
-18
-16
-13
-10
-7
-4
-2
-2
-2
-4
-7
-9
-11
-12
-13
-12
-12
-12
-12
-14
-16
-18
-20
-22
-22
-21
-18
-16
-13
-11
-10
-11
-13
-16
-19
-21
-23
-24
-24
-23
-22
-20
-19
-18
-17
-16
-15
-14
-14
-15
-16
-17
-19
-21
-23
-24
-23
-21
-18
-15
-11
-8
-7
-7
-8
-10
-13
-15
-15
-15
-13
-11
-8
-6
-4
-4
-4
-5
-6
-7
-7
-6
-4
-2
0
2
3
3
3
3
2
2
1
1
0
-1
-3
-5
-8
-10
-13
-14
-15
-15
-14
-13
-12
-10
-9
-9
-9
-9
-10
-12
-13
-15
-16
-17
-18
-19
-20
-20
-20
-21
-21
-21
-21
-21
-20
-20
-19
-18
-17
-17
-16
-15
-14
-11
-7
-2
6
16
28
43
58
74
90
103
114
121
124
121
114
102
85
65
43
21
-1
-20
-36
-47
-53
-54
-51
-44
-36
-28
-20
-15
-12
-11
-13
-15
-18
-20
-21
-20
-18
-15
-12
-9
-8
-8
-9
-11
-14
-17
-19
-20
-20
-18
-16
-13
-9
-6
-4
-2
-2
-3
-5
-7
-9
-11
-13
-13
-13
-12
-10
-8
-5
-3
-2
-1
0
1
1
2
2
3
4
4
5
6
7
8
9
11
12
14
16
17
19
20
21
21
23
24
26
28
30
32
34
35
37
39
41
43
45
48
50
52
53
54
54
53
53
53
53
54
55
57
58
59
59
58
57
55
54
52
50
49
48
46
45
43
41
38
35
31
27
22
17
13
8
5
2
1
1
2
4
6
7
8
8
6
3
0
-3
-6
-8
-8
-8
-7
-7
-6
-7
-8
-9
-11
-13
-14
-15
-15
-15
-14
-14
-13
-14
-15
-16
-18
-19
-19
-19
-18
-16
-14
-13
-11
-11
-11
-11
-12
-13
-14
-15
-16
-17
-17
-18
-18
-19
-19
-19
-18
-17
-16
-14
-13
-11
-10
-9
-8
-8
-7
-7
-8
-8
-9
-10
-11
-12
-14
-16
-17
-17
-17
-16
-15
-13
-12
-10
-10
-10
-10
-11
-12
-13
-14
-14
-14
-14
-14
-14
-14
-14
-15
-16
-16
-17
-17
-17
-17
-17
-17
-17
-17
-18
-18
-19
-20
-21
-21
-22
-22
-21
-20
-19
-18
-16
-15
-14
-13
-13
-13
-14
-15
-16
-17
-18
-18
-19
-19
-19
-19
-18
-17
-16
-15
-14
-13
-12
-12
-12
-12
-12
-13
-13
-14
-14
-13
-13
-13
-13
-13
-13
-14
-15
-16
-17
-18
-19
-19
-19
-18
-17
-16
-14
-12
-11
-9
-8
-7
-6
-6
-6
-6
-8
-9
-10
-11
-12
-12
-11
-9
-6
-3
0
3
5
6
5
3
1
-3
-6
-9
-11
-11
-11
-10
-8
-5
-3
-2
-2
-2
-4
-5
-7
-9
-10
-11
-11
-11
-11
-11
-11
-11
-12
-13
-14
-15
-16
-16
-16
-15
-14
-13
-11
-10
-10
-11
-13
-15
-18
-20
-22
-23
-23
-21
-18
-14
-10
-6
-1
4
11
20
31
46
63
81
99
116
129
137
139
136
126
112
94
74
52
31
11
-8
-23
-36
-44
-48
-48
-44
-38
-30
-22
-15
-11
-9
-9
-11
-13
-14
-15
-14
-12
-10
-9
-8
-8
-9
-11
-13
-13
-13
-12
-9
-7
-5
-4
-5
-6
-8
-10
-11
-11
-10
-8
-7
-6
-5
-6
-7
-8
-9
-9
-7
-5
-2
2
5
7
8
7
6
5
3
2
2
3
4
6
9
11
12
14
15
15
16
17
19
21
23
25
27
30
33
35
37
40
41
42
42
42
41
40
39
39
40
43
46
51
55
59
62
64
64
62
59
57
55
54
54
55
56
58
58
59
58
56
54
52
50
48
46
44
41
38
33
28
23
18
13
10
8
7
7
7
7
6
5
3
1
-2
-4
-5
-5
-5
-5
-5
-6
-7
-10
-12
-15
-16
-17
-17
-15
-14
-12
-10
-9
-10
-11
-13
-15
-16
-17
-16
-15
-13
-11
-9
-8
-8
-9
-10
-13
-15
-17
-18
-18
-17
-15
-13
-11
-10
-9
-9
-9
-11
-12
-14
-16
-18
-19
-19
-18
-16
-14
-12
-10
-8
-7
-7
-8
-9
-11
-13
-14
-15
-15
-15
-14
-14
-15
-16
-18
-20
-22
-23
-24
-23
-21
-19
-15
-13
-11
-11
-12
-14
-17
-19
-21
-21
-20
-18
-15
-12
-9
-8
-9
-10
-13
-17
-20
-23
-24
-25
-24
-22
-19
-17
-15
-13
-12
-12
-13
-14
-15
-17
-19
-21
-22
-22
-22
-21
-20
-19
-17
-16
-16
-16
-16
-17
-17
-17
-17
-16
-15
-15
-15
-15
-17
-19
-21
-23
-25
-26
-25
-23
-19
-16
-12
-9
-8
-8
-10
-13
-18
-22
-25
-27
-28
-27
-24
-21
-18
-15
-14
-13
-14
-16
-18
-20
-21
-21
-21
-20
-18
-16
-15
-14
-13
-12
-12
-11
-10
-9
-7
-6
-5
-4
-4
-4
-4
-5
-5
-5
-5
-5
-4
-3
-2
-2
-3
-4
-5
-7
-8
-9
-9
-8
-6
-4
-1
1
2
2
1
-1
-4
-8
-11
-14
-16
-17
-17
-17
-16
-16
-15
-15
-15
-15
-16
-17
-19
-20
-21
-22
-23
-23
-23
-22
-21
-20
-18
-17
-16
-16
-16
-16
-15
-14
-10
-4
5
17
30
46
62
77
92
105
115
123
129
131
129
124
113
98
78
56
32
8
-14
-31
-43
-49
-49
-46
-40
-33
-26
-21
-18
-16
-15
-15
-14
-13
-12
-11
-11
-11
-12
-14
-16
-17
-18
-18
-17
-16
-14
-13
-12
-11
-11
-11
-10
-10
-9
-8
-8
-7
-7
-6
-7
-7
-7
-6
-5
-4
-3
-2
-2
-2
-3
-4
-4
-4
-3
-1
2
5
9
12
14
16
16
16
15
14
13
13
13
14
15
18
20
23
27
30
32
35
36
38
38
39
40
42
43
45
46
48
49
51
52
53
55
56
58
60
62
64
65
66
67
66
65
65
64
63
62
62
62
62
62
61
60
59
56
54
51
47
43
40
36
32
29
25
21
18
14
10
7
4
2
0
-1
-1
-1
-1
-1
-1
-1
-2
-3
-4
-5
-6
-7
-7
-7
-7
-8
-8
-9
-11
-12
-13
-13
-13
-12
-11
-10
-9
-9
-9
-9
-10
-11
-13
-14
-15
-16
-17
-18
-18
-17
-17
-16
-15
-14
-13
-12
-12
-12
-12
-13
-14
-15
-16
-17
-17
-17
-16
-15
-14
-14
-14
-15
-16
-18
-19
-21
-21
-21
-20
-19
-18
-17
-16
-16
-17
-17
-17
-17
-16
-15
-14
-12
-11
-10
-10
-10
-10
-11
-12
-12
-12
-11
-11
-11
-10
-11
-11
-12
-13
-13
-14
-14
-15
-15
-16
-17
-19
-20
-22
-24
-25
-25
-25
-25
-24
-22
-21
-20
-19
-18
-17
-16
-15
-14
-14
-14
-14
-15
-17
-18
-19
-19
-20
-19
-18
-18
-17
-18
-18
-20
-22
-24
-26
-27
-27
-27
-26
-24
-23
-21
-20
-20
-20
-21
-22
-22
-22
-22
-22
-21
-20
-18
-17
-16
-15
-13
-12
-11
-10
-10
-10
-11
-13
-15
-18
-21
-23
-25
-26
-26
-25
-23
-20
-18
-15
-13
-12
-11
-11
-12
-12
-13
-13
-12
-11
-8
-6
-3
0
2
3
3
2
1
-1
-2
-3
-4
-4
-4
-3
-3
-3
-3
-4
-4
-5
-6
-7
-8
-9
-10
-12
-13
-14
-15
-16
-17
-18
-18
-19
-19
-19
-20
-20
-20
-19
-18
-17
-16
-15
-15
-15
-16
-17
-19
-20
-21
-22
-21
-21
-20
-19
-18
-17
-15
-13
-9
-3
5
16
29
43
59
75
90
104
116
125
131
132
128
118
102
81
55
27
-1
-26
-47
-62
-70
-70
-65
-56
-45
-34
-25
-18
-14
-12
-12
-13
-14
-14
-14
-14
-14
-14
-14
-15
-16
-17
-18
-18
-18
-17
-16
-14
-13
-11
-10
-9
-9
-9
-10
-10
-11
-11
-11
-10
-9
-7
-6
-4
-2
-1
0
0
1
1
2
2
3
3
3
4
4
4
4
5
6
9
11
13
15
16
17
16
16
15
15
17
20
23
28
32
35
36
36
35
33
32
31
32
35
39
44
48
53
55
57
57
57
56
56
56
58
59
62
64
65
66
66
66
66
66
65
65
65
64
62
59
56
51
47
42
38
35
32
30
28
26
25
24
22
20
17
15
12
10
7
4
2
0
-1
-3
-3
-4
-4
-5
-5
-5
-6
-6
-6
-7
-7
-7
-8
-8
-9
-10
-11
-11
-12
-13
-13
-13
-13
-12
-12
-11
-11
-11
-11
-11
-12
-12
-12
-12
-12
-12
-12
-12
-12
-11
-11
-10
-9
-8
-7
-6
-6
-7
-8
-9
-11
-13
-14
-15
-14
-13
-10
-7
-5
-3
-1
-1
-2
-2
-3
-4
-5
-5
-5
-4
-5
-5
-6
-8
-10
-12
-14
-15
-15
-15
-14
-13
-11
-10
-9
-9
-8
-8
-8
-9
-10
-10
-11
-12
-12
-13
-12
-12
-11
-10
-9
-9
-9
-10
-11
-13
-15
-17
-18
-20
-20
-20
-20
-19
-18
-16
-15
-14
-13
-13
-13
-14
-14
-15
-16
-17
-18
-19
-19
-19
-18
-18
-17
-16
-15
-15
-15
-15
-16
-16
-16
-16
-16
-15
-15
-16
-16
-17
-18
-20
-21
-22
-22
-22
-22
-21
-20
-20
-20
-20
-20
-21
-21
-22
-22
-23
-23
-23
-22
-22
-22
-21
-21
-21
-22
-22
-22
-23
-22
-22
-21
-19
-16
-14
-11
-9
-7
-6
-6
-7
-8
-9
-9
-9
-8
-7
-5
-3
-1
0
0
-1
-3
-5
-6
-8
-8
-8
-7
-5
-3
-1
0
1
0
-1
-4
-7
-10
-13
-16
-18
-20
-20
-21
-21
-20
-21
-21
-22
-23
-24
-24
-25
-24
-24
-23
-22
-21
-21
-20
-20
-19
-19
-19
-19
-18
-18
-19
-19
-19
-18
-16
-12
-7
2
13
27
43
61
79
97
113
126
135
139
137
128
114
93
69
42
15
-10
-33
-50
-62
-69
-71
-68
-62
-55
-46
-38
-31
-24
-19
-15
-12
-10
-9
-9
-10
-11
-13
-14
-15
-16
-16
-15
-14
-12
-11
-9
-8
-7
-6
-6
-6
-6
-6
-5
-4
-3
-3
-3
-3
-3
-4
-5
-6
-6
-6
-5
-4
-2
-1
0
0
0
-1
-1
-2
-2
-1
1
4
7
11
14
17
19
21
21
22
22
22
23
23
24
25
27
28
29
31
33
35
37
40
42
45
47
49
51
53
55
56
58
59
60
61
62
62
63
64
65
67
69
71
72
72
71
69
65
61
57
53
50
48
47
46
46
45
44
42
39
36
33
30
28
26
25
24
23
21
19
16
13
10
7
4
2
0
-1
-2
-3
-4
-6
-7
-8
-9
-10
-10
-10
-10
-9
-9
-9
-9
-10
-10
-10
-11
-11
-11
-12
-12
-12
-12
-12
-12
-11
-10
-10
-9
-8
-7
-6
-6
-7
-8
-9
-11
-13
-14
-15
-15
-15
-14
-12
-10
-9
-7
-7
-6
-7
-8
-9
-10
-10
-11
-11
-11
-11
-10
-10
-10
-10
-9
-9
-9
-8
-6
-5
-3
-2
-1
-1
-2
-3
-6
-8
-11
-13
-15
-16
-16
-15
-13
-12
-11
-10
-10
-11
-12
-13
-13
-13
-13
-13
-13
-13
-15
-17
-20
-23
-25
-25
-25
-22
-18
-14
-10
-7
-6
-7
-10
-14
-18
-22
-24
-25
-24
-22
-19
-16
-14
-12
-11
-11
-12
-13
-13
-14
-13
-13
-12
-12
-11
-11
-12
-13
-13
-14
-15
-16
-16
-17
-17
-17
-18
-18
-18
-19
-19
-19
-20
-20
-20
-20
-20
-20
-21
-21
-21
-21
-21
-21
-20
-18
-16
-13
-11
-8
-7
-6
-5
-6
-8
-9
-11
-12
-12
-12
-10
-9
-7
-5
-4
-4
-4
-5
-5
-4
-3
-1
1
3
4
5
4
2
-1
-4
-6
-7
-7
-5
-3
-1
0
0
-2
-5
-8
-12
-16
-18
-19
-19
-18
-16
-15
-15
-15
-16
-17
-18
-20
-21
-22
-22
-23
-23
-24
-25
-25
-25
-24
-22
-20
-17
-14
-11
-10
-10
-10
-10
-9
-7
-1
8
20
36
53
72
91
109
124
135
142
143
139
128
112
90
64
37
9
-18
-40
-57
-68
-72
-71
-65
-57
-47
-38
-30
-23
-19
-16
-14
-14
-14
-14
-14
-15
-15
-16
-16
-17
-17
-17
-16
-16
-15
-14
-13
-12
-11
-10
-9
-8
-7
-7
-7
-8
-8
-9
-9
-9
-9
-8
-7
-5
-4
-2
-2
-1
-1
-2
-2
-3
-3
-3
-3
-2
-1
1
3
6
9
11
14
16
18
19
19
19
18
18
18
18
19
21
24
27
29
32
34
36
38
39
41
43
45
47
50
52
55
56
57
57
56
55
54
53
53
53
55
57
60
62
64
65
64
63
61
59
56
54
53
51
50
49
47
44
41
37
33
29
26
24
22
20
19
17
15
11
7
2
-2
-6
-9
-11
-11
-10
-8
-7
-6
-5
-6
-8
-10
-13
-15
-17
-18
-18
-16
-15
-13
-12
-11
-12
-13
-15
-17
-19
-20
-21
-20
-18
-16
-15
-13
-12
-12
-13
-15
-16
-17
-18
-18
-17
-16
-15
-14
-13
-12
-12
-12
-13
-13
-13
-13
-13
-13
-13
-13
-12
-12
-13
-13
-13
-13
-13
-12
-12
-11
-11
-10
-10
-10
-10
-10
-10
-10
-10
-10
-10
-10
-11
-12
-13
-14
-15
-16
-16
-16
-15
-14
-13
-13
-13
-14
-15
-17
-18
-20
-21
-21
-21
-20
-18
-17
-15
-14
-14
-14
-14
-15
-16
-17
-17
-18
-18
-18
-19
-19
-19
-19
-19
-19
-19
-19
-19
-19
-19
-20
-21
-23
-24
-24
-24
-24
-22
-20
-17
-15
-12
-10
-9
-9
-9
-10
-11
-12
-13
-14
-14
-15
-15
-16
-16
-16
-16
-16
-16
-15
-14
-12
-10
-8
-6
-4
-3
-3
-3
-3
-4
-6
-7
-8
-8
-8
-7
-6
-4
-3
-2
-2
-3
-4
-6
-8
-11
-13
-15
-17
-18
-19
-20
-21
-22
-24
-26
-27
-29
-29
-29
-27
-25
-23
-21
-19
-19
-19
-20
-22
-24
-26
-26
-26
-25
-23
-20
-18
-16
-13
-10
-7
-2
6
15
28
42
59
75
91
104
114
119
119
113
102
85
65
42
18
-6
-29
-48
-62
-71
-75
-74
-68
-59
-49
-39
-30
-23
-18
-16
-15
-16
-17
-18
-18
-18
-17
-17
-17
-17
-17
-18
-19
-19
-18
-16
-14
-11
-8
-5
-4
-4
-5
-7
-9
-11
-12
-12
-11
-10
-9
-8
-8
-9
-9
-10
-11
-10
-9
-7
-4
-1
2
5
6
7
6
5
4
3
3
4
5
7
10
13
15
18
20
21
22
23
23
24
26
27
29
31
33
35
36
38
39
41
43
45
48
51
54
56
57
58
58
57
57
57
57
59
61
64
67
69
71
71
70
68
66
63
60
57
54
51
48
45
42
39
36
34
32
30
29
27
25
22
19
15
11
7
4
1
-2
-4
-6
-8
-10
-11
-13
-13
-13
-12
-11
-9
-8
-8
-9
-10
-12
-15
-16
-18
-18
-17
-15
-13
-12
-11
-11
-13
-15
-17
-19
-20
-20
-18
-16
-14
-12
-11
-11
-12
-14
-17
-19
-21
-22
-22
-21
-19
-18
-17
-16
-17
-17
-18
-19
-19
-19
-17
-15
-13
-11
-10
-9
-8
-7
-7
-7
-7
-7
-7
-7
-8
-9
-11
-13
-15
-17
-17
-17
-16
-14
-12
-10
-9
-9
-9
-11
-13
-15
-17
-18
-18
-18
-17
-16
-15
-13
-12
-11
-10
-10
-9
-9
-10
-10
-12
-13
-15
-17
-19
-20
-21
-21
-21
-21
-21
-21
-22
-23
-23
-23
-22
-20
-18
-15
-13
-11
-10
-9
-10
-11
-12
-13
-14
-14
-14
-14
-13
-13
-14
-14
-15
-15
-15
-15
-15
-14
-13
-12
-11
-11
-10
-9
-9
-7
-6
-5
-3
-2
-2
-2
-2
-2
-3
-3
-2
-1
0
2
2
3
2
1
-2
-4
-6
-8
-8
-9
-8
-8
-7
-8
-9
-11
-14
-16
-19
-21
-21
-21
-20
-19
-18
-17
-17
-17
-18
-19
-20
-21
-21
-21
-21
-20
-20
-19
-19
-19
-19
-19
-19
-18
-17
-15
-13
-9
-5
0
7
16
27
40
54
69
85
99
111
120
125
124
119
107
91
71
48
23
0
-20
-37
-48
-54
-55
-52
-47
-40
-33
-28
-24
-22
-21
-22
-22
-22
-21
-19
-17
-15
-12
-11
-10
-10
-10
-11
-12
-13
-13
-13
-12
-11
-10
-9
-8
-8
-9
-10
-11
-13
-13
-14
-13
-11
-8
-5
-2
1
3
4
4
4
4
3
3
3
3
4
5
6
6
6
5
5
4
4
5
7
9
12
15
18
20
22
23
24
24
24
25
25
27
28
31
33
35
37
39
41
44
46
49
52
55
58
61
63
64
65
65
65
64
63
63
62
61
61
60
60
60
60
59
59
58
57
56
54
52
49
45
42
38
34
30
27
24
22
20
18
17
15
13
12
10
7
5
2
0
-3
-5
-7
-10
-12
-14
-15
-17
-18
-18
-17
-17
-15
-14
-13
-13
-13
-13
-14
-15
-16
-16
-17
-17
-18
-18
-19
-20
-22
-24
-25
-26
-26
-25
-22
-19
-15
-11
-8
-6
-5
-7
-9
-12
-15
-18
-20
-20
-20
-19
-18
-16
-16
-16
-17
-18
-19
-20
-21
-20
-19
-17
-15
-13
-11
-10
-10
-10
-11
-12
-14
-14
-15
-15
-14
-13
-12
-11
-10
-10
-10
-11
-12
-13
-15
-16
-16
-17
-16
-15
-14
-14
-13
-13
-14
-15
-16
-18
-20
-21
-22
-22
-21
-20
-19
-17
-16
-16
-17
-18
-19
-21
-23
-24
-25
-25
-24
-23
-21
-20
-18
-18
-17
-18
-18
-19
-19
-20
-19
-19
-17
-16
-14
-12
-11
-9
-9
-9
-9
-10
-11
-12
-12
-13
-13
-12
-12
-11
-11
-10
-9
-8
-7
-6
-4
-2
-1
1
2
2
2
1
0
-1
-3
-4
-6
-7
-8
-9
-11
-12
-12
-13
-13
-13
-13
-13
-13
-14
-15
-17
-19
-21
-23
-25
-26
-26
-25
-24
-23
-22
-22
-22
-23
-25
-26
-27
-27
-26
-25
-23
-20
-18
-16
-14
-13
-11
-9
-6
-1
6
16
28
41
56
72
88
103
117
127
133
134
129
119
103
82
58
32
6
-18
-37
-52
-61
-64
-62
-56
-49
-40
-32
-25
-20
-17
-16
-16
-17
-18
-18
-18
-17
-16
-15
-14
-13
-13
-14
-15
-16
-18
-19
-20
-19
-18
-17
-15
-13
-11
-10
-9
-9
-9
-9
-9
-9
-9
-8
-8
-9
-9
-9
-9
-9
-7
-6
-3
-1
2
4
6
6
6
5
3
1
-1
-2
-2
-1
0
3
5
8
11
13
16
18
20
22
25
27
29
31
33
35
37
40
43
45
48
50
52
53
55
56
57
58
60
61
63
64
65
65
65
65
65
64
63
63
62
61
61
60
59
57
56
53
51
48
46
43
40
38
35
32
29
26
22
18
13
9
5
2
-1
-3
-4
-4
-4
-4
-4
-4
-4
-5
-5
-6
-7
-7
-8
-9
-10
-11
-12
-13
-15
-16
-17
-17
-18
-17
-16
-15
-14
-13
-12
-12
-13
-15
-17
-19
-20
-21
-20
-19
-17
-15
-13
-12
-12
-12
-13
-15
-16
-17
-18
-17
-16
-14
-12
-10
-10
-10
-10
-11
-13
-14
-15
-16
-16
-15
-15
-14
-14
-14
-13
-13
-13
-13
-13
-14
-14
-15
-16
-16
-17
-17
-17
-16
-15
-13
-12
-11
-10
-10
-11
-12
-13
-14
-15
-16
-16
-16
-16
-15
-16
-16
-16
-17
-17
-17
-17
-17
-16
-16
-17
-17
-18
-18
-19
-20
-20
-21
-20
-20
-19
-19
-18
-18
-17
-17
-17
-18
-19
-21
-23
-24
-26
-27
-27
-26
-25
-23
-21
-20
-18
-18
-18
-19
-20
-21
-22
-22
-22
-21
-19
-17
-15
-13
-11
-10
-9
-9
-8
-8
-7
-6
-5
-4
-3
-2
-2
-2
-3
-4
-4
-5
-5
-4
-4
-3
-2
-2
-2
-2
-3
-4
-5
-6
-8
-9
-10
-12
-13
-14
-15
-17
-19
-21
-23
-25
-26
-26
-26
-25
-23
-22
-20
-18
-18
-18
-18
-20
-22
-24
-25
-27
-28
-28
-28
-28
-27
-26
-24
-21
-17
-12
-5
4
15
27
41
56
72
88
103
116
126
133
136
133
125
111
94
73
49
26
3
-17
-34
-47
-55
-58
-58
-55
-50
-43
-36
-29
-22
-17
-14
-11
-11
-11
-13
-15
-17
-19
-21
-22
-22
-21
-20
-19
-18
-17
-16
-15
-15
-14
-13
-12
-11
-10
-10
-9
-9
-9
-10
-11
-11
-11
-11
-10
-9
-7
-6
-4
-3
-2
-2
-2
-3
-4
-6
-7
-8
-7
-7
-5
-3
0
3
6
9
12
14
15
16
17
17
17
17
18
19
21
24
27
30
34
36
38
40
40
41
41
42
43
45
48
51
53
55
57
57
58
58
58
59
61
63
65
67
68
68
67
65
62
60
57
55
53
52
50
49
47
45
42
38
35
32
28
25
22
18
15
12
9
6
4
2
1
1
0
0
-2
-3
-6
-8
-10
-12
-13
-13
-12
-11
-9
-7
-5
-3
-2
-2
-2
-3
-5
-7
-9
-11
-12
-14
-15
-15
-15
-14
-13
-12
-11
-10
-10
-10
-11
-12
-13
-14
-14
-13
-11
-9
-7
-6
-6
-6
-7
-9
-11
-14
-15
-16
-16
-15
-14
-13
-12
-12
-12
-12
-12
-12
-12
-11
-10
-9
-8
-7
-8
-9
-10
-11
-12
-12
-12
-11
-9
-7
-7
-6
-7
-9
-11
-13
-14
-14
-14
-12
-11
-9
-8
-7
-8
-9
-10
-12
-14
-15
-15
-15
-15
-15
-15
-15
-15
-16
-16
-16
-16
-16
-15
-15
-14
-14
-14
-14
-14
-14
-14
-13
-12
-11
-10
-10
-10
-10
-11
-13
-14
-15
-16
-16
-16
-16
-16
-15
-15
-15
-16
-17
-18
-19
-21
-22
-23
-24
-24
-23
-22
-21
-19
-18
-16
-14
-13
-12
-10
-9
-7
-6
-5
-4
-3
-3
-2
-2
-3
-2
-2
-1
1
3
4
5
5
4
2
-1
-4
-6
-8
-9
-9
-8
-6
-4
-3
-3
-3
-5
-7
-10
-12
-15
-17
-18
-19
-19
-19
-19
-19
-19
-20
-20
-21
-21
-22
-23
-23
-24
-24
-25
-25
-25
-25
-24
-23
-23
-22
-22
-21
-20
-19
-17
-14
-9
-2
7
18
33
49
68
87
106
124
138
148
153
152
145
132
115
93
70
45
22
0
-18
-32
-43
-48
-50
-49
-45
-40
-34
-28
-23
-19
-16
-15
-15
-15
-16
-16
-17
-17
-17
-17
-16
-16
-17
-17
-18
-19
-19
-20
-20
-20
-19
-18
-17
-16
-15
-14
-13
-11
-10
-9
-8
-8
-8
-8
-7
-7
-6
-6
-5
-4
-4
-5
-5
-6
-6
-6
-5
-4
-2
1
3
5
7
7
7
7
6
6
6
7
9
11
13
14
15
17
18
19
21
24
28
32
36
39
42
44
45
45
45
45
45
46
48
51
54
57
60
62
63
64
63
62
60
59
57
56
55
55
55
54
54
53
52
50
47
43
39
34
30
26
22
19
16
14
11
9
7
4
2
1
-1
-2
-3
-3
-4
-5
-6
-7
-9
-11
-13
-15
-16
-17
-17
-17
-18
-18
-18
-19
-20
-21
-22
-22
-22
-22
-21
-20
-19
-17
-16
-16
-16
-17
-18
-19
-20
-21
-21
-21
-21
-21
-20
-19
-19
-19
-19
-19
-20
-20
-20
-21
-21
-20
-20
-21
-21
-22
-22
-23
-23
-23
-22
-20
-19
-17
-16
-15
-14
-15
-16
-18
-20
-21
-22
-22
-22
-21
-20
-19
-18
-18
-19
-19
-21
-22
-22
-23
-22
-21
-20
-18
-17
-16
-16
-16
-18
-19
-21
-22
-23
-24
-24
-24
-23
-22
-22
-21
-21
-21
-22
-22
-21
-21
-20
-19
-18
-18
-18
-18
-19
-20
-21
-22
-23
-23
-24
-23
-23
-22
-22
-21
-21
-22
-22
-23
-23
-23
-23
-23
-22
-20
-19
-18
-17
-17
-16
-16
-16
-16
-16
-16
-15
-14
-13
-12
-10
-8
-6
-4
-3
-1
0
1
1
0
0
-2
-3
-4
-5
-6
-7
-7
-7
-7
-7
-8
-9
-10
-12
-13
-15
-17
-18
-19
-20
-20
-19
-19
-18
-18
-17
-17
-18
-18
-20
-21
-22
-23
-24
-24
-24
-23
-22
-20
-19
-18
-18
-18
-18
-20
-21
-23
-24
-24
-24
-21
-16
-10
0
11
25
40
56
72
87
101
113
122
128
129
126
117
104
87
66
42
19
-4
-23
-39
-50
-55
-56
-54
-48
-42
-35
-28
-23
-20
-18
-17
-16
-16
-17
-17
-17
-17
-17
-16
-15
-15
-14
-13
-12
-11
-9
-8
-6
-4
-3
-1
0
1
1
0
-1
-3
-5
-7
-9
-10
-11
-11
-10
-9
-7
-5
-3
-2
0
2
4
5
7
8
9
9
8
6
5
3
2
2
3
5
9
12
17
20
23
26
27
27
28
28
29
30
32
35
38
42
45
49
52
54
57
58
60
61
61
61
61
61
61
61
62
64
66
68
70
71
71
70
68
66
63
60
59
58
57
58
58
57
56
53
50
45
40
36
32
28
26
24
22
20
17
14
11
7
3
0
-2
-4
-4
-4
-4
-3
-4
-5
-7
-9
-12
-15
-17
-18
-18
-17
-15
-12
-10
-8
-6
-6
-7
-9
-11
-13
-15
-15
-16
-15
-14
-13
-12
-11
-11
-11
-12
-13
-14
-15
-15
-16
-16
-16
-16
-16
-16
-16
-16
-15
-15
-15
-15
-14
-14
-14
-14
-13
-13
-12
-11
-11
-11
-11
-11
-12
-12
-13
-13
-12
-11
-9
-7
-5
-4
-3
-3
-4
-6
-7
-8
-9
-10
-10
-10
-10
-11
-12
-13
-15
-16
-18
-18
-18
-17
-15
-13
-11
-9
-7
-7
-7
-8
-10
-12
-14
-16
-17
-18
-18
-18
-17
-16
-14
-13
-13
-13
-13
-14
-15
-16
-16
-16
-16
-15
-15
-15
-16
-17
-18
-19
-20
-20
-19
-18
-18
-17
-17
-17
-17
-18
-19
-20
-19
-18
-16
-14
-12
-10
-8
-7
-6
-5
-5
-5
-4
-4
-3
-3
-3
-4
-5
-5
-5
-4
-3
-1
2
5
7
9
10
10
8
6
4
2
1
0
-1
-1
-1
-1
-2
-3
-5
-7
-10
-13
-16
-19
-22
-24
-25
-25
-24
-22
-20
-18
-16
-15
-14
-13
-14
-15
-16
-17
-18
-19
-20
-20
-21
-21
-21
-20
-20
-19
-19
-19
-19
-19
-18
-17
-15
-11
-4
5
16
30
46
62
78
94
108
119
127
132
131
126
115
100
80
56
32
7
-15
-33
-46
-53
-55
-53
-47
-40
-32
-24
-18
-13
-10
-8
-7
-6
-6
-6
-7
-8
-9
-11
-13
-14
-15
-16
-15
-15
-14
-13
-13
-13
-14
-15
-16
-17
-16
-16
-15
-14
-13
-12
-11
-10
-9
-8
-6
-4
-1
1
2
3
3
2
1
-1
-2
-3
-3
-3
-1
0
2
3
4
6
7
8
10
12
14
16
17
18
18
18
18
17
18
19
22
25
28
32
35
37
39
40
41
42
42
44
46
49
51
54
57
59
60
60
60
59
59
58
58
57
56
56
55
54
52
51
50
49
49
48
46
44
41
38
34
29
25
20
17
14
12
10
9
8
7
5
3
1
-1
-4
-6
-8
-11
-13
-16
-18
-20
-21
-22
-22
-21
-19
-17
-15
-14
-13
-13
-14
-15
-17
-19
-21
-23
-23
-23
-23
-22
-21
-20
-19
-18
-17
-16
-16
-16
-16
-17
-17
-18
-18
-18
-18
-17
-16
-15
-14
-14
-14
-15
-17
-20
-22
-25
-26
-27
-28
-27
-26
-24
-23
-21
-19
-18
-17
-16
-15
-14
-14
-14
-14
-15
-16
-16
-17
-17
-17
-17
-17
-16
-17
-17
-17
-17
-18
-18
-18
-19
-19
-19
-20
-21
-21
-22
-22
-23
-23
-23
-23
-24
-24
-25
-25
-25
-25
-23
-21
-19
-17
-14
-13
-12
-12
-13
-14
-16
-17
-19
-20
-21
-21
-21
-21
-21
-21
-21
-20
-19
-18
-17
-16
-16
-15
-15
-16
-17
-18
-19
-21
-21
-22
-22
-22
-22
-21
-21
-20
-20
-19
-19
-19
-19
-19
-19
-19
-19
-20
-20
-19
-19
-17
-16
-14
-13
-11
-11
-11
-11
-12
-13
-13
-13
-13
-11
-9
-7
-5
-4
-3
-2
-2
-3
-3
-4
-4
-3
-3
-2
-2
-2
-2
-4
-5
-7
-8
-9
-10
-10
-9
-8
-8
-7
-8
-9
-11
-13
-16
-19
-21
-23
-23
-23
-21
-19
-16
-14
-11
-10
-10
-11
-12
-15
-17
-19
-21
-22
-22
-22
-21
-20
-19
-19
-20
-20
-22
-22
-22
-19
-14
-7
4
18
34
51
70
89
106
122
134
143
146
144
136
123
105
84
61
38
16
-4
-19
-31
-38
-42
-43
-42
-39
-36
-32
-27
-23
-18
-14
-10
-8
-6
-6
-7
-8
-10
-12
-14
-14
-14
-12
-10
-8
-6
-4
-2
-1
0
0
0
0
0
-1
-1
-1
-2
-2
-2
-1
-1
0
1
1
2
2
2
2
2
2
2
3
4
5
6
7
8
9
9
9
9
9
9
10
11
12
15
17
20
22
24
26
27
28
29
31
32
34
36
38
40
43
45
47
49
51
53
55
57
59
62
65
68
70
71
72
72
71
70
69
68
68
68
68
69
69
70
69
68
67
65
62
59
55
51
48
44
40
36
33
31
29
27
25
24
22
20
18
15
12
8
5
3
1
-1
-2
-3
-3
-4
-4
-4
-4
-4
-4
-3
-3
-2
-1
0
0
0
1
0
0
-1
-2
-4
-5
-6
-8
-9
