-52
-14
7
21
21
10
-8
-27
-40
-45
-40
-29
-15
-2
4
3
-4
-15
-25
-32
-32
-28
-19
-11
-4
-3
-6
-12
-18
-23
-23
-19
-12
-4
2
4
3
-2
-8
-14
-17
-17
-14
-10
-7
-6
-7
-11
-16
-20
-23
-24
-23
-21
-19
-17
-18
-18
-19
-19
-17
-14
-9
-4
-1
1
0
-3
-6
-9
-11
-12
-11
-9
-7
-5
-5
-6
-8
-9
-10
-10
-10
-10
-11
-13
-15
-17
-18
-17
-15
-12
-8
-4
-1
-1
-2
-4
-5
-6
-5
-3
0
3
5
6
4
1
-3
-6
-8
-9
-9
-7
-6
-5
-4
-4
-4
-3
-2
0
3
5
6
7
6
4
3
1
1
1
2
4
6
9
13
19
27
39
55
75
98
124
151
178
202
222
235
239
233
217
192
158
118
77
37
3
-24
-41
-50
-52
-48
-43
-37
-33
-31
-30
-31
-30
-29
-26
-22
-16
-11
-7
-5
-3
-3
-3
-3
-2
-1
1
2
3
4
5
5
5
5
6
7
9
10
12
14
15
17
18
18
19
20
20
20
19
19
18
18
17
17
17
18
19
20
22
24
26
29
31
34
36
37
38
39
40
41
42
44
45
47
48
50
51
52
53
55
57
60
63
66
70
73
76
79
82
84
86
88
89
89
89
89
88
87
87
87
88
89
91
92
92
91
90
89
88
87
86
87
87
87
87
85
82
79
74
70
66
63
59
56
53
50
46
42
38
34
31
29
27
25
23
22
20
18
16
15
14
14
14
13
12
11
9
6
3
1
-1
-2
-2
-2
0
1
3
5
7
8
8
8
8
7
6
5
5
5
5
5
5
4
3
2
0
-1
-2
-3
-3
-2
-1
0
1
1
1
0
-1
-1
-2
-2
-2
-3
-4
-5
-7
-8
-10
-10
-10
-10
-9
-10
-11
-13
-16
-19
-22
-24
-24
-23
-21
-19
-18
-18
-19
-21
-24
-26
-28
-30
-31
-31
-32
-33
-34
-36
-37
-39
-39
-39
-39
-38
-38
-39
-40
-42
-44
-46
-46
-47
-47
-46
-47
-48
-49
-50
-52
-52
-53
-52
-52
-52
-54
-56
-59
-62
-64
-66
-66
-65
-64
-62
-61
-60
-61
-63
-65
-66
-66
-65
-63
-60
-58
-57
-57
-58
-59
-60
-60
-59
-58
-56
-55
-54
-54
-53
-53
-52
-51
-48
-45
-42
-40
-38
-37
-36
-36
-36
-35
-35
-34
-33
-33
-34
-35
-36
-36
-36
-35
-34
-33
-32
-32
-33
-35
-37
-38
-38
-36
-33
-30
-27
-25
-24
-25
-26
-26
-26
-25
-24
-22
-20
-20
-21
-24
-27
-30
-32
-33
-32
-31
-30
-29
-29
-30
-31
-32
-31
-30
-27
-25
-23
-22
-23
-25
-27
-29
-29
-28
-25
-22
-19
-18
-18
-20
-23
-26
-29
-29
-28
-25
-23
-21
-20
-21
-22
-24
-26
-26
-25
-24
-22
-20
-20
-20
-22
-23
-24
-23
-22
-20
-17
-16
-15
-16
-17
-18
-19
-20
-19
-18
-16
-16
-16
-17
-18
-19
-20
-19
-18
-17
-16
-17
-19
-22
-24
-25
-23
-17
-8
5
21
38
57
77
98
121
146
171
194
214
226
228
218
196
164
123
79
36
-2
-32
-52
-63
-67
-64
-59
-53
-48
-43
-40
-38
-36
-33
-30
-26
-21
-17
-14
-11
-10
-10
-10
-11
-11
-11
-10
-7
-4
-1
1
2
3
3
3
4
5
7
9
12
14
15
15
15
14
14
14
16
18
20
22
23
23
21
20
20
20
23
27
31
35
37
37
36
33
30
29
29
32
37
42
47
51
53
52
51
50
49
50
52
55
58
61
64
66
67
69
72
75
78
82
85
87
88
89
89
89
90
92
94
96
98
98
98
97
96
95
95
95
95
95
93
90
86
81
76
71
68
67
66
65
64
61
57
52
47
42
38
36
35
34
33
32
29
25
22
18
15
13
12
10
9
7
4
1
-2
-5
-6
-7
-6
-6
-6
-7
-8
-10
-13
-15
-17
-18
-18
-17
-17
-17
-18
-18
-19
-19
-18
-18
-16
-16
-15
-15
-16
-17
-17
-16
-15
-14
-12
-11
-10
-10
-11
-11
-11
-10
-8
-6
-4
-4
-4
-6
-8
-10
-11
-11
-10
-8
-5
-4
-5
-6
-9
-13
-15
-17
-16
-15
-13
-11
-10
-11
-14
-16
-19
-20
-20
-18
-16
-13
-11
-10
-11
-12
-13
-13
-12
-10
-7
-4
-2
-2
-2
-3
-5
-6
-7
-7
-6
-5
-4
-4
-4
-4
-4
-4
-4
-3
-3
-3
-4
-5
-7
-10
-11
-12
-12
-11
-10
-10
-11
-12
-15
-17
-19
-20
-20
-20
-19
-18
-19
-20
-23
-26
-28
-30
-30
-29
-28
-26
-26
-26
-27
-28
-30
-30
-30
-29
-27
-26
-24
-24
-25
-25
-26
-26
-25
-24
-23
-22
-21
-21
-22
-23
-25
-26
-26
-26
-26
-25
-25
-24
-24
-24
-24
-23
-23
-22
-22
-22
-22
-22
-22
-21
-20
-18
-17
-16
-16
-17
-19
-21
-22
-22
-21
-18
-16
-13
-12
-11
-12
-13
-14
-13
-11
-7
-2
3
6
7
5
2
-2
-5
-7
-7
-5
-3
-1
0
0
-2
-5
-8
-10
-10
-9
-7
-4
-3
-3
-4
-6
-8
-10
-11
-11
-11
-11
-11
-11
-12
-14
-14
-14
-13
-10
-7
-5
-4
-4
-5
-6
-7
-7
-7
-5
-3
-2
-2
-3
-5
-8
-10
-11
-11
-10
-8
-7
-7
-9
-13
-18
-23
-26
-26
-23
-17
-8
3
16
30
47
68
91
118
146
174
199
217
225
222
206
179
142
100
55
12
-25
-54
-74
-85
-89
-86
-80
-73
-66
-60
-56
-54
-52
-50
-48
-44
-40
-37
-34
-33
-34
-36
-38
-41
-42
-42
-40
-37
-35
-33
-33
-35
-37
-40
-41
-41
-40
-37
-34
-31
-31
-32
-34
-37
-38
-39
-37
-34
-30
-27
-26
-26
-28
-30
-33
-33
-32
-29
-26
-23
-21
-21
-23
-25
-27
-27
-25
-21
-16
-10
-5
-3
-1
-1
-2
-1
1
4
9
14
18
21
22
23
23
25
27
32
38
44
49
53
55
57
57
58
60
63
67
71
74
75
75
73
71
68
66
64
64
64
64
63
61
58
55
51
47
43
40
37
34
30
26
22
18
14
12
9
8
6
3
0
-4
-7
-10
-12
-13
-13
-13
-13
-14
-16
-18
-20
-23
-24
-25
-25
-25
-24
-25
-26
-29
-31
-33
-35
-35
-35
-34
-33
-33
-33
-34
-36
-37
-38
-37
-36
-34
-32
-31
-29
-28
-27
-26
-26
-25
-25
-25
-26
-28
-30
-33
-34
-35
-35
-34
-32
-31
-29
-29
-29
-29
-29
-29
-27
-26
-24
-23
-23
-24
-26
-27
-28
-28
-26
-24
-22
-21
-20
-21
-23
-24
-25
-24
-21
-17
-13
-9
-7
-6
-7
-9
-11
-11
-10
-9
-6
-5
-4
-5
-8
-11
-15
-16
-16
-15
-11
-8
-5
-3
-3
-4
-6
-7
-7
-6
-5
-3
-2
-1
-2
-3
-4
-5
-6
-6
-6
-5
-6
-6
-7
-9
-9
-9
-9
-8
-7
-7
-9
-11
-14
-17
-19
-18
-16
-12
-7
-3
0
1
1
-1
-3
-3
-3
-1
2
5
7
7
7
5
4
3
4
5
8
10
11
11
10
8
6
5
5
7
9
13
16
18
19
20
20
21
22
24
26
28
29
28
27
26
24
23
23
23
25
26
27
27
27
26
25
25
25
26
27
27
27
27
26
26
26
27
28
29
30
30
29
28
26
25
23
23
23
24
24
24
23
21
18
16
15
15
15
16
17
17
16
14
12
9
8
7
8
9
11
12
12
11
9
8
7
7
8
9
9
10
8
6
4
1
-2
-3
-3
-3
-2
-1
-1
-1
0
3
9
18
31
49
69
93
119
146
173
197
217
231
236
232
217
192
158
119
77
38
4
-23
-40
-50
-54
-54
-53
-51
-51
-51
-51
-51
-50
-47
-43
-38
-32
-27
-23
-20
-18
-16
-14
-12
-9
-6
-4
-1
1
3
4
5
6
6
6
6
6
5
5
5
5
6
6
7
7
7
7
7
7
8
9
11
14
16
19
21
22
24
26
28
30
32
34
36
37
36
35
34
32
30
28
27
26
26
26
26
26
28
31
34
38
43
46
49
51
51
51
51
52
53
56
59
62
65
67
67
67
68
68
70
73
76
79
81
82
81
80
77
75
73
72
72
72
71
68
65
59
53
48
43
39
36
34
32
30
27
22
18
13
8
5
2
-1
-3
-6
-9
-12
-15
-17
-19
-19
-18
-18
-17
-16
-16
-17
-17
-19
-20
-20
-21
-23
-25
-27
-31
-34
-37
-39
-40
-41
-41
-41
-42
-44
-47
-50
-54
-56
-57
-56
-55
-54
-53
-53
-54
-55
-57
-58
-57
-56
-54
-51
-50
-49
-49
-50
-51
-51
-50
-48
-45
-42
-39
-36
-35
-34
-33
-33
-32
-30
-29
-27
-25
-24
-23
-22
-22
-20
-19
-18
-17
-17
-18
-20
-22
-25
-27
-29
-30
-30
-30
-30
-31
-33
-35
-38
-40
-41
-41
-41
-41
-42
-43
-46
-49
-52
-54
-54
-53
-52
-50
-49
-49
-50
-53
-55
-57
-57
-57
-55
-52
-51
-51
-52
-56
-60
-64
-68
-69
-69
-67
-65
-63
-62
-63
-64
-66
-68
-70
-71
-71
-71
-72
-72
-73
-75
-76
-77
-76
-75
-73
-71
-69
-68
-67
-66
-65
-64
-62
-60
-58
-57
-57
-58
-59
-61
-63
-64
-64
-64
-63
-62
-61
-62
-63
-64
-65
-66
-67
-68
-69
-70
-72
-74
-77
-80
-81
-81
-80
-78
-75
-73
-72
-72
-72
-73
-74
-75
-74
-72
-70
-68
-66
-65
-64
-63
-63
-61
-59
-57
-54
-52
-51
-51
-51
-52
-52
-52
-51
-49
-46
-43
-41
-38
-36
-34
-32
-30
-28
-26
-24
-23
-22
-21
-20
-18
-15
-12
-9
-6
-5
-5
-5
-6
-7
-6
-3
3
12
22
36
51
68
88
111
136
162
188
210
226
232
227
210
182
147
107
67
31
1
-21
-36
-45
-48
-49
-48
-46
-44
-42
-40
-37
-35
-32
-29
-27
-24
-21
-17
-14
-9
-5
-2
1
3
4
5
6
6
7
8
10
11
12
13
15
16
18
20
23
25
28
29
30
30
29
30
31
33
36
40
43
45
46
45
44
42
41
41
42
45
48
51
54
56
57
59
60
63
66
70
74
78
82
85
87
90
92
96
99
103
106
109
112
113
114
116
118
120
124
128
132
135
137
137
137
137
137
137
138
140
142
143
144
145
145
145
144
144
144
144
143
142
140
138
136
135
134
134
133
132
130
127
123
118
113
109
106
104
104
104
103
102
99
97
93
91
89
89
89
89
89
88
86
84
81
80
79
79
79
80
80
79
78
76
74
73
73
73
72
70
66
59
49
38
26
16
8
3
0
-1
-2
-3
-5
-9
-14
-19
-23
-26
-28
-28
-28
-29
-29
-30
-31
-33
-34
-35
-37
-39
-42
-46
-51
-56
-61
-64
-66
-66
-66
-65
-64
-65
-66
-68
-70
-70
-69
-67
-63
-60
-57
-56
-57
-59
-61
-63
-63
-62
-59
-55
-52
-50
-49
-49
-51
-52
-53
-53
-52
-50
-48
-47
-46
-46
-46
-47
-47
-46
-45
-44
-43
-42
-42
-43
-43
-44
-43
-43
-41
-40
-39
-39
-39
-39
-40
-39
-38
-36
-35
-33
-33
-34
-35
-37
-38
-38
-37
-35
-32
-29
-27
-25
-25
-24
-22
-20
-17
-14
-10
-8
-6
-6
-7
-9
-9
-9
-7
-4
-1
0
0
-1
-5
-8
-11
-12
-12
-9
-6
-4
-3
-4
-7
-11
-14
-17
-19
-19
-19
-19
-20
-23
-27
-31
-35
-38
-38
-36
-34
-31
-29
-30
-32
-37
-42
-46
-49
-51
-50
-49
-47
-46
-46
-46
-46
-46
-46
-45
-43
-42
-41
-41
-41
-43
-44
-45
-46
-47
-48
-50
-54
-58
-63
-68
-70
-70
-67
-63
-58
-54
-52
-52
-55
-58
-61
-62
-60
-54
-44
-31
-16
0
18
38
60
84
110
136
160
178
189
188
176
152
120
81
41
3
-30
-57
-76
-88
-94
-95
-93
-89
-85
-80
-77
-74
-71
-70
-68
-66
-63
-60
-55
-51
-46
-42
-39
-38
-37
-36
-35
-33
-31
-28
-25
-22
-20
-19
-18
-17
-16
-15
-13
-12
-12
-12
-13
-15
-16
-17
-16
-13
-10
-6
-3
-1
-1
-2
-4
-6
-6
-4
-1
4
8
12
14
15
15
16
17
19
23
28
33
37
40
42
43
44
45
48
52
57
62
66
69
71
72
72
72
73
75
78
81
84
87
88
88
87
87
87
87
87
88
87
86
85
83
81
79
78
78
78
77
76
73
70
66
62
59
57
56
54
52
49
45
40
35
30
26
23
22
21
21
21
20
18
16
13
11
10
8
8
6
5
3
0
-2
-4
-5
-4
-3
-2
0
0
-1
-2
-4
-5
-6
-5
-4
-2
0
2
2
2
1
1
0
0
1
2
3
4
4
4
4
3
3
3
3
3
3
3
3
3
4
5
7
9
11
13
13
12
11
9
8
8
9
10
12
13
13
12
10
8
6
5
5
5
6
5
4
1
-2
-5
-8
-10
-10
-10
-9
-9
-9
-11
-14
-17
-19
-21
-21
-19
-17
-16
-16
-17
-20
-24
-29
-32
-35
-36
-35
-34
-34
-34
-35
-37
-39
-42
-45
-47
-49
-52
-54
-57
-60
-63
-66
-67
-67
-66
-65
-64
-63
-64
-64
-65
-66
-66
-65
-64
-62
-60
-59
-59
-60
-61
-61
-62
-62
-61
-60
-60
-60
-62
-63
-65
-66
-66
-65
-62
-59
-56
-54
-52
-51
-51
-51
-50
-48
-46
-42
-39
-36
-33
-31
-29
-27
-24
-21
-19
-16
-14
-13
-13
-14
-16
-18
-19
-20
-20
-20
-20
-21
-21
-21
-22
-22
-22
-21
-20
-19
-18
-17
-17
-16
-15
-15
-14
-13
-12
-12
-12
-13
-13
-13
-12
-11
-9
-7
-5
-5
-6
-8
-10
-12
-12
-11
-8
-3
1
4
6
6
4
2
1
0
2
4
7
9
10
9
7
3
0
-2
-1
3
10
20
32
45
60
77
97
120
145
173
200
225
243
253
251
238
213
178
138
95
53
16
-14
-35
-47
-52
-50
-45
-38
-31
-26
-23
-22
-22
-22
-21
-19
-15
-10
-6
-2
-1
-1
-3
-6
-8
-8
-6
-3
2
6
9
11
10
9
8
7
8
11
15
19
22
23
23
20
17
14
12
12
13
16
19
21
22
22
20
19
18
17
18
18
19
19
18
17
16
14
14
14
14
16
17
18
19
20
21
23
25
27
29
30
29
29
27
26
26
27
30
34
38
41
43
44
44
43
43
44
47
50
54
56
58
58
56
54
53
52
53
55
57
58
58
55
51
45
39
33
29
26
23
21
17
13
8
2
-4
-8
-11
-13
-14
-15
-17
-20
-25
-30
-34
-37
-39
-38
-36
-34
-32
-31
-31
-32
-34
-34
-34
-32
-29
-27
-24
-23
-22
-23
-23
-24
-24
-23
-22
-22
-21
-22
-23
-24
-25
-26
-25
-23
-22
-20
-20
-21
-22
-24
-26
-27
-27
-25
-24
-23
-23
-23
-25
-27
-28
-28
-27
-25
-22
-20
-18
-18
-19
-20
-22
-23
-23
-22
-20
-19
-18
-19
-20
-21
-22
-23
-22
-20
-18
-16
-14
-14
-15
-16
-18
-19
-20
-20
-19
-18
-17
-16
-15
-14
-13
-12
-11
-9
-8
-7
-6
-6
-6
-5
-3
-1
1
4
6
7
8
8
8
8
9
10
12
15
16
17
16
15
13
12
12
13
15
17
19
20
19
17
14
12
10
10
10
11
12
12
11
9
6
3
1
0
1
1
2
3
2
1
-2
-4
-6
-6
-6
-5
-4
-4
-4
-5
-6
-8
-9
-9
-9
-8
-6
-5
-5
-5
-6
-8
-9
-9
-9
-9
-8
-8
-8
-8
-9
-9
-9
-8
-8
-7
-8
-9
-12
-16
-20
-23
-26
-28
-28
-27
-27
-26
-26
-26
-27
-28
-28
-27
-26
-25
-24
-23
-23
-23
-24
-24
-24
-24
-23
-22
-21
-21
-21
-22
-24
-25
-26
-26
-24
-23
-21
-19
-18
-17
-17
-17
-16
-16
-15
-15
-14
-14
-14
-14
-13
-12
-11
-9
-6
-5
-3
-3
-3
-4
-4
-4
-4
-4
-5
-6
-9
-13
-18
-23
-29
-33
-36
-38
-40
-42
-45
-50
-55
-59
-63
-64
-61
-56
-47
-35
-22
-8
8
25
45
69
95
122
150
174
192
201
198
184
158
124
84
43
4
-29
-56
-74
-85
-88
-86
-81
-74
-68
-62
-59
-57
-56
-56
-55
-54
-52
-48
-45
-41
-38
-37
-37
-37
-39
-40
-41
-41
-41
-41
-41
-42
-43
-44
-44
-43
-41
-37
-32
-28
-25
-24
-25
-26
-29
-31
-32
-32
-31
-28
-26
-24
-23
-23
-23
-24
-24
-24
-23
-22
-21
-22
-23
-24
-26
-27
-27
-26
-24
-20
-17
-14
-11
-9
-8
-6
-3
-1
2
6
9
11
13
14
16
18
21
25
29
33
36
39
41
42
43
45
46
49
51
53
54
54
53
52
52
52
53
55
56
57
57
55
52
49
46
44
42
41
40
38
34
29
23
17
11
8
6
5
6
6
6
3
-1
-6
-10
-14
-16
-16
-16
-14
-13
-14
-15
-17
-19
-21
-21
-20
-17
-15
-13
-12
-13
-14
-16
-17
-16
-15
-13
-10
-9
-9
-10
-12
-14
-15
-16
-15
-13
-11
-10
-9
-10
-12
-14
-15
-16
-15
-13
-11
-9
-7
-7
-7
-8
-8
-7
-5
-3
0
3
5
6
6
5
5
5
6
7
8
9
8
7
5
3
1
0
1
2
4
5
6
6
6
5
5
5
6
8
10
12
12
12
12
10
10
9
10
11
13
15
16
17
17
16
16
15
15
15
16
16
17
17
17
16
16
15
14
13
12
11
11
11
11
12
14
16
18
20
21
21
21
21
21
22
23
25
27
29
30
30
29
28
28
27
28
29
30
31
31
31
30
29
29
30
31
33
35
37
37
36
35
33
31
31
32
34
36
38
39
39
38
36
34
32
32
33
34
36
36
36
35
32
30
27
26
25
25
24
24
23
21
19
16
14
12
11
10
9
7
5
2
-1
-3
-5
-6
-5
-4
-4
-3
-3
-4
-4
-5
-4
-3
-1
1
3
3
2
0
-2
-4
-6
-6
-5
-4
-3
-2
-3
-4
-7
-9
-11
-12
-12
-11
-9
-8
-8
-8
-9
-9
-10
-10
-9
-8
-7
-6
-6
-6
-7
-7
-8
-8
-8
-9
-9
-9
-10
-11
-12
-12
-12
-12
-11
-11
-12
-13
-16
-18
-20
-21
-21
-20
-18
-17
-16
-17
-19
-22
-26
-28
-29
-27
-23
-16
-6
6
20
37
57
80
105
132
160
185
205
218
222
215
197
169
134
95
55
17
-16
-42
-59
-68
-70
-67
-61
-55
-50
-47
-46
-46
-46
-45
-42
-37
-31
-24
-18
-14
-12
-13
-15
-18
-20
-21
-20
-18
-15
-12
-10
-9
-9
-10
-10
-11
-10
-9
-7
-6
-5
-5
-6
-7
-7
-7
-6
-5
-3
-2
-2
-3
-4
-5
-5
-5
-3
-1
2
4
4
4
4
3
3
4
7
11
16
20
23
25
25
25
26
26
28
31
35
38
42
45
48
50
53
56
60
63
67
69
71
72
73
73
75
77
79
83
86
88
90
91
91
91
91
91
92
93
94
94
93
91
88
85
83
81
79
78
75
72
68
64
59
55
52
50
49
47
46
44
40
36
32
29
27
26
26
26
26
24
22
18
14
10
9
9
10
13
15
16
16
15
12
10
9
9
11
14
16
19
20
19
18
17
17
18
20
23
26
28
29
29
27
25
24
23
24
26
28
30
31
30
29
27
26
25
26
28
30
33
36
38
39
39
40
40
41
43
45
46
47
47
47
46
45
45
44
44
44
44
43
43
43
42
43
44
45
46
46
47
46
45
44
44
43
44
45
46
47
49
50
51
52
53
55
57
59
61
62
63
62
61
59
58
56
56
55
55
55
54
52
50
48
47
46
46
46
46
47
47
47
47
46
46
45
45
45
45
44
43
42
40
39
39
39
40
40
39
38
36
33
30
28
26
26
26
26
26
24
22
18
15
12
11
11
13
15
16
17
15
13
9
5
2
0
0
0
0
-1
-2
-5
-9
-12
-15
-16
-16
-14
-11
-7
-5
-3
-2
-2
-2
-2
-2
-3
-3
-3
-5
-6
-8
-10
-11
-12
-13
-14
-14
-16
-17
-19
-21
-22
-23
-24
-24
-24
-25
-26
-28
-31
-34
-36
-37
-37
-36
-35
-34
-34
-34
-36
-38
-41
-43
-44
-44
-44
-43
-43
-43
-44
-45
-46
-46
-45
-45
-44
-43
-43
-44
-45
-46
-47
-47
-46
-45
-44
-44
-44
-45
-47
-49
-51
-50
-47
-40
-31
-18
-2
17
39
64
91
118
144
166
182
190
188
176
153
122
86
47
9
-25
-53
-74
-89
-96
-99
-98
-94
-91
-88
-86
-85
-86
-87
-87
-86
-83
-79
-74
-69
-65
-63
-62
-64
-66
-68
-69
-69
-67
-65
-62
-60
-60
-61
-64
-67
-70
-72
-72
-71
-69
-68
-68
-69
-71
-74
-76
-78
-78
-77
-75
-73
-73
-73
-74
-76
-78
-79
-79
-78
-76
-74
-72
-70
-70
-70
-71
-71
-70
-69
-67
-65
-64
-63
-62
-62
-61
-60
-57
-54
-51
-48
-46
-45
-44
-44
-44
-43
-41
-38
-35
-33
-31
-30
-29
-29
-29
-29
-27
-25
-23
-21
-20
-20
-21
-22
-24
-24
-24
-23
-22
-21
-21
-23
-25
-29
-32
-36
-38
-41
-43
-45
-47
-51
-55
-59
-63
-67
-70
-73
-75
-77
-78
-80
-82
-84
-85
-86
-87
-88
-88
-89
-90
-92
-93
-93
-93
-92
-91
-91
-91
-91
-93
-95
-97
-97
-97
-96
-94
-92
-92
-93
-95
-98
-101
-102
-102
-101
-98
-94
-91
-90
-90
-92
-94
-95
-95
-94
-91
-88
-84
-82
-82
-83
-84
-85
-85
-84
-82
-79
-77
-75
-75
-77
-79
-81
-82
-81
-80
-77
-75
-73
-73
-74
-75
-76
-77
-77
-75
-73
-71
-70
-69
-71
-73
-75
-76
-77
-77
-76
-75
-74
-74
-75
-76
-77
-78
-78
-78
-77
-77
-78
-80
-82
-84
-86
-86
-86
-84
-81
-79
-78
-79
-80
-82
-84
-85
-85
-83
-80
-78
-76
-75
-75
-76
-77
-77
-76
-74
-71
-69
-67
-66
-65
-66
-66
-67
-66
-64
-62
-59
-57
-56
-55
-56
-57
-57
-58
-58
-58
-57
-56
-55
-54
-52
-51
-49
-47
-46
-45
-44
-44
-44
-44
-44
-42
-41
-38
-37
-35
-35
-35
-36
-37
-37
-36
-34
-31
-28
-26
-24
-24
-25
-25
-25
-24
-22
-19
-17
-14
-13
-14
-14
-15
-15
-14
-11
-8
-4
-1
0
0
-2
-4
-6
-6
-4
-1
3
6
8
7
4
0
-3
-6
-6
-5
-3
-1
1
1
-1
-3
-5
-7
-7
-5
-2
1
3
5
5
3
2
1
1
2
5
7
10
11
11
11
10
9
10
11
14
16
18
18
18
16
14
12
12
12
13
15
16
16
16
14
13
12
12
14
18
24
32
42
53
68
84
104
127
152
178
204
227
246
257
259
251
233
206
171
132
91
53
20
-6
-22
-31
-33
-29
-24
-18
-13
-11
-10
-10
-9
-7
-3
2
7
12
15
16
16
13
10
8
7
8
10
12
15
16
18
18
19
20
22
24
26
27
28
28
27
25
25
25
26
28
30
31
31
29
27
24
22
21
22
24
26
28
28
26
22
19
15
13
14
16
20
24
27
30
31
31
31
32
34
37
41
46
49
52
54
54
55
57
59
63
67
71
74
76
76
75
74
73
74
76
79
82
86
89
92
94
95
96
97
98
99
99
99
97
94
92
89
87
85
83
81
78
73
67
60
53
47
42
39
38
38
37
35
33
29
25
21
18
16
16
16
17
17
16
14
12
9
7
6
6
6
6
6
4
2
-1
-4
-7
-8
-9
-9
-9
-9
-10
-11
-12
-13
-14
-14
-14
-13
-12
-12
-11
-12
-12
-12
-11
-10
-9
-7
-6
-6
-6
-6
-5
-5
-3
-1
1
3
4
5
6
7
9
12
15
19
23
25
27
27
27
26
25
26
28
31
34
36
37
37
35
32
30
29
30
32
35
38
40
41
40
38
36
35
35
36
37
39
39
39
37
34
32
30
30
32
35
38
42
44
46
46
45
45
45
47
49
51
53
55
55
55
55
54
54
53
53
53
51
49
46
43
41
39
39
40
42
44
46
47
46
45
43
41
40
39
39
40
40
40
39
37
35
34
34
35
36
38
39
40
40
39
39
38
38
38
39
39
39
39
37
34
32
29
27
26
25
24
24
24
23
22
22
22
23
24
26
28
30
32
34
35
36
37
39
40
41
42
42
42
42
42
43
43
44
44
44
44
43
42
42
42
42
43
45
47
49
50
51
52
53
54
55
57
59
60
61
59
57
54
50
48
47
47
48
50
51
50
49
46
43
40
38
37
38
41
43
45
46
46
46
45
45
46
48
51
54
56
58
58
58
58
57
56
56
55
55
54
53
53
52
52
52
54
55
57
58
59
59
59
59
59
59
59
59
58
55
52
49
46
45
48
54
64
78
94
112
131
152
173
196
219
241
260
272
276
269
249
219
180
137
94
55
25
4
-8
-12
-12
-9
-6
-4
-4
-5
-5
-5
-4
-1
2
4
6
7
6
4
2
-1
-3
-4
-5
-5
-4
-2
0
2
3
4
4
3
1
-2
-4
-5
-6
-6
-6
-6
-6
-7
-8
-10
-12
-14
-15
-14
-14
-13
-12
-12
-14
-15
-17
-17
-17
-15
-12
-9
-7
-5
-5
-6
-6
-6
-4
0
5
11
16
19
21
20
17
13
9
5
3
0
-1
-3
-5
-7
-9
-10
-10
-9
-7
-5
-2
-1
0
-1
-1
-2
-1
0
2
5
7
8
8
7
4
2
0
-1
-2
-2
-2
-4
-6
-10
-16
-21
-27
-32
-36
-39
-42
-45
-48
-51
-55
-58
-61
-65
-68
-71
-76
-81
-87
-93
-99
-103
-106
-107
-107
-107
-107
-108
-110
-114
-118
-122
-125
-127
-127
-126
-124
-122
-121
-121
-120
-120
-120
-119
-117
-116
-114
-113
-112
-112
-112
-113
-113
-112
-111
-110
-109
-108
-107
-106
-105
-104
-103
-102
-101
-99
-98
-97
-96
-95
-93
-91
-90
-88
-87
-87
-88
-90
-92
-93
-94
-92
-90
-87
-84
-82
-82
-83
-85
-88
-91
-92
-91
-89
-86
-83
-81
-80
-80
-81
-82
-81
-80
-78
-76
-74
-74
-74
-76
-78
-79
-79
-78
-75
-71
-67
-63
-61
-60
-60
-60
-60
-59
-57
-54
-52
-51
-52
-53
-56
-59
-61
-62
-62
-62
-60
-59
-58
-57
-57
-57
-56
-55
-54
-53
-52
-52
-53
-55
-57
-58
-58
-57
-56
-53
-51
-50
-49
-50
-50
-51
-52
-51
-50
-49
-49
-50
-52
-54
-57
-59
-59
-58
-56
-54
-51
-50
-50
-52
-54
-57
-59
-60
-60
-59
-57
-56
-56
-56
-58
-60
-61
-61
-61
-59
-57
-55
-54
-53
-53
-54
-54
-55
-55
-54
-52
-51
-49
-48
-46
-46
-45
-45
-45
-45
-44
-44
-43
-41
-39
-36
-33
-31
-30
-30
-30
-31
-32
-32
-30
-28
-24
-19
-15
-12
-10
-9
-9
-9
-8
-7
-5
-2
-1
0
0
-1
-2
-3
-2
0
3
7
10
12
13
11
9
7
6
7
10
14
18
22
24
24
22
20
17
16
17
20
23
27
31
33
34
34
35
36
38
41
44
48
51
52
53
52
52
52
53
55
58
62
65
68
70
72
73
74
75
77
79
83
87
92
99
109
123
140
161
185
213
243
274
304
331
353
368
374
370
355
330
296
257
216
178
147
124
111
107
111
119
129
137
144
149
152
155
159
164
171
180
189
197
203
208
211
213
215
218
222
226
230
235
239
242
245
248
251
254
257
260
264
267
270
274
278
282
286
291
295
299
302
304
306
309
313
317
322
328
334
338
341
344
345
347
349
353
358
364
371
377
382
387
390
392
396
400
405
412
418
425
430
434
438
441
444
449
454
460
466
471
476
479
481
483
485
490
495
502
509
515
520
523
524
524
525
526
529
533
538
544
549
553
555
557
558
558
560
561
563
565
566
567
567
566
565
565
565
566
567
568
569
568
568
567
566
567
568
570
572
574
575
575
575
574
574
576
578
582
587
592
596
600
603
606
609
612
615
620
625
630
635
639
643
646
650
654
659
664
670
675
680
685
690
694
698
702
705
709
711
714
716
719
723
728
734
740
746
752
756
759
761
763
766
770
776
783
790
794
797
797
797
797
801
809
821
834
843
842
824
782
712
615
493
353
204
56
-84
-209
-319
-412
-492
-565
-635
-704
-776
-849
-920
-987
-1045
-1092
-1127
-1151
-1166
-1175
-1183
-1192
-1204
-1217
-1230
-1241
-1245
-1243
-1234
-1220
-1204
-1190
-1181
-1177
-1179
-1184
-1189
-1191
-1188
-1179
-1166
-1152
-1141
-1133
-1132
-1134
-1139
-1142
-1142
-1137
-1127
-1114
-1101
-1092
-1088
-1088
-1092
-1097
-1098
-1095
-1086
-1072
-1056
-1043
-1034
-1031
-1034
-1039
-1043
-1042
-1032
-1012
-984
-951
-917
-886
-861
-842
-828
-816
-802
-785
-764
-741
-719
-701
-691
-690
-697
-709
-724
-737
-746
-751
-754
-758
-764
-776
-792
-810
-826
-834
-833
-820
-796
-767
-738
-715
-705
-710
-729
-758
-790
-821
-843
-853
-851
-839
-821
-801
-785
-776
-773
-775
-780
-785
-786
-783
-775
-765
-752
-741
-733
-728
-727
-728
-728
-728
-726
-721
-714
-706
-698
-691
-686
-682
-680
-678
-675
-671
-666
-661
-654
-648
-642
-637
-633
-629
-626
-622
-618
-613
-608
-603
-598
-593
-588
-584
-580
-576
-571
-567
-563
-558
-553
-549
-544
-539
-535
-530
-526
-522
-517
-513
-508
-503
-498
-494
-489
-485
-480
-476
-472
-468
-464
-459
-455
-450
-445
-440
-436
-432
-428
-424
-420
-416
-411
-406
-401
-396
-391
-387
-384
-380
-377
-373
-369
-364
-359
-354
-349
-345
-341
-337
-334
-330
-326
-322
-317
-311
-306
-301
-297
-293
-290
-287
-284
-280
-276
-272
-267
-263
-258
-254
-250
-246
-242
-239
-235
-231
-226
-222
-218
-214
-210
-206
-202
-198
-194
-190
-187
-183
-179
-176
-172
-168
-164
-160
-156
-152
-148
-144
-141
-137
-134
-130
-126
-122
-118
-114
-110
-107
-104
-101
-97
-94
-89
-85
-80
-76
-72
-68
-66
-63
-60
-57
-54
-49
-44
-40
-35
-31
-28
-26
-24
-21
-19
-16
-12
-8
-4
-1
3
6
9
12
15
19
22
26
29
33
36
39
42
45
49
52
55
58
61
64
67
70
73
76
79
82
85
89
92
94
97
100
102
106
109
112
116
119
122
124
126
129
131
134
137
141
144
147
150
152
154
156
158
161
164
168
172
176
179
181
183
185
186
187
189
191
194
198
201
204
207
209
211
213
216
218
220
223
225
227
229
231
232
234
236
238
241
244
247
250
253
255
257
259
261
262
263
265
266
268
270
273
275
278
281
284
286
288
289
290
291
291
293
295
297
300
303
306
309
311
312
314
315
316
317
319
321
323
325
327
329
330
332
333
334
336
337
339
341
342
344
345
347
348
350
351
353
354
355
357
358
360
361
363
364
366
367
368
369
370
371
373
375
376
378
380
381
382
383
384
385
386
388
389
391
393
394
395
395
396
396
397
399
400
402
404
405
406
407
407
407
408
409
411
413
415
417
419
420
420
420
420
420
420
422
423
425
427
428
429
429
430
430
431
432
433
435
436
437
438
439
439
439
439
439
440
441
442
444
445
446
447
447
447
447
447
448
448
449
450
451
452
454
455
456
456
456
456
455
455
455
455
455
457
458
459
461
461
462
461
460
459
458
458
458
458
459
461
463
464
466
466
466
466
465
464
463
463
463
463
464
465
466
466
466
466
466
465
464
464
464
464
464
465
466
467
467
467
467
466
465
465
464
464
464
464
464
464
464
464
464
463
462
461
460
459
458
458
458
458
458
458
457
456
455
454
454
453
453
453
452
452
451
450
449
448
447
446
446
446
446
445
445
444
443
441
440
439
438
438
438
438
437
437
436
434
433
431
430
429
429
428
428
428
427
425
423
421
420
418
418
417
418
418
417
416
415
413
411
409
407
406
405
404
403
403
402
400
399
397
395
394
393
392
392
391
390
389
387
384
382
379
377
376
375
374
374
373
372
371
369
367
364
362
359
357
355
354
353
352
351
350
349
347
345
343
340
338
335
333
331
329
327
326
325
324
322
320
318
315
312
309
306
304
302
300
299
297
296
294
292
290
288
285
283
280
278
276
273
271
268
266
263
261
258
256
253
251
249
247
245
243
240
238
235
233
230
227
225
222
220
217
215
212
210
207
204
200
198
195
192
190
188
186
184
182
179
176
173
169
166
163
160
158
155
152
149
146
143
140
137
134
132
129
127
124
122
119
116
112
109
105
102
98
95
92
89
86
83
80
77
75
72
70
67
64
61
57
53
49
45
41
38
35
32
30
27
24
21
17
13
9
5
1
-2
-5
-9
-12
-15
-19
-23
-26
-30
-33
-36
-39
-42
-45
-48
-52
-57
-61
-65
-69
-73
-76
-79
-81
-84
-88
-92
-97
-101
-106
-110
-113
-116
-119
-122
-125
-128
-133
-137
-142
-147
-151
-155
-158
-161
-164
-167
-171
-176
-180
-185
-189
-193
-197
-200
-203
-206
-210
-214
-219
-224
-229
-233
-238
-242
-246
-249
-253
-258
-262
-267
-272
-276
-280
-284
-288
-291
-295
-299
-304
-308
-313
-318
-323
-327
-330
-334
-338
-341
-346
-350
-355
-359
-364
-369
-373
-378
-382
-386
-391
-395
-399
-404
-408
-412
-416
-420
-425
-430
-435
-440
-445
-450
-455
-459
-462
-466
-470
-475
-480
-485
-490
-496
-501
-505
-510
-514
-517
-522
-527
-532
-538
-544
-550
-556
-561
-566
-569
-573
-576
-580
-585
-590
-596
-603
-609
-615
-620
-624
-629
-633
-637
-642
-647
-652
-658
-663
-669
-674
-679
-684
-689
-694
-699
-704
-709
-715
-720
-725
-731
-737
-743
-750
-756
-762
-767
-771
-775
-779
-783
-787
-793
-800
-808
-815
-822
-828
-832
-835
-838
-841
-846
-853
-862
-871
-879
-886
-889
-889
-887
-884
-883
-885
-891
-899
-908
-915
-918
-916
-907
-894
-878
-864
-852
-846
-843
-843
-843
-840
-832
-818
-801
-782
-765
-753
-746
-743
-744
-744
-741
-733
-722
-707
-691
-678
-668
-663
-660
-659
-656
-651
-643
-631
-618
-606
-597
-591
-589
-588
-587
-585
-581
-575
-567
-560
-554
-550
-549
-550
-551
-551
-550
-547
-544
-540
-538
-536
-536
-536
-536
-534
-531
-527
-523
-519
-517
-515
-516
-516
-517
-516
-514
-510
-507
-504
-501
-500
-500
-500
-499
-496
-491
-485
-478
-472
-467
-464
-462
-462
-462
-461
-458
-455
-450
-446
-441
-438
-437
-435
-434
-433
-430
-427
-423
-418
-414
-411
-408
-406
-404
-403
-400
-398
-396
-394
-392
-391
-391
-391
-391
-390
-388
-385
-382
-380
-378
-377
-377
-378
-378
-378
-377
-375
-373
-371
-370
-369
-370
-371
-372
-373
-373
-373
-373
-372
-372
-373
-374
-375
-375
-375
-373
-370
-367
-365
-364
-365
-368
-371
-375
-377
-376
-372
-367
-361
-357
-358
-363
-372
-383
-392
-394
-386
-365
-329
-282
-227
-169
-115
-69
-35
-12
0
4
5
3
2
1
-1
-4
-9
-17
-27
-37
-45
-49
-50
-47
-43
-40
-40
-44
-53
-65
-77
-88
-95
-96
-93
-87
-80
-74
-71
-71
-74
-78
-80
-80
-75
-66
-55
-43
-33
-25
-21
-19
-20
-20
-19
-15
-9
-1
9
18
27
34
39
44
47
50
54
57
60
64
67
70
74
79
84
90
96
103
109
115
119
122
125
128
131
134
138
143
149
154
158
162
166
169
171
174
177
180
183
188
192
197
201
206
210
213
216
219
221
224
227
230
233
237
240
242
244
245
246
247
248
250
254
259
263
268
272
275
277
278
279
281
284
287
292
297
301
304
306
306
305
304
304
305
309
315
323
333
345
358
373
390
410
432
457
484
512
539
563
580
589
586
572
547
513
474
433
395
363
340
325
319
319
323
330
336
341
345
349
353
359
366
374
383
391
397
401
402
402
402
402
404
408
414
420
426
432
436
438
439
440
441
443
446
449
453
456
458
459
459
460
460
461
463
465
468
471
475
478
482
485
489
492
496
499
503
507
510
513
516
520
523
527
530
534
537
540
544
547
551
555
559
562
566
569
571
574
576
579
583
588
593
599
603
607
610
613
615
618
621
625
630
635
640
643
646
648
649
651
654
657
662
666
671
673
674
673
671
669
667
666
666
667
669
670
670
669
667
665
663
661
661
661
661
661
659
657
653
649
646
644
643
644
646
648
651
653
654
655
655
655
655
655
656
657
658
659
661
663
666
669
671
674
675
675
674
672
671
670
671
674
678
682
685
687
687
686
683
680
678
677
678
680
683
686
688
688
688
688
688
689
691
694
698
702
705
707
708
708
708
709
711
714
718
722
725
728
729
729
729
729
729
731
733
736
739
741
743
745
746
746
747
749
751
754
757
759
761
761
762
762
762
764
767
772
778
784
790
794
796
795
794
792
791
792
796
801
806
810
810
807
802
795
791
792
798
809
822
833
838
834
822
805
790
784
792
817
854
890
911
899
839
721
547
327
80
-169
-398
-587
-725
-811
-852
-861
-853
-841
-833
-834
-841
-851
-860
-863
-862
-856
-850
-847
-848
-853
-860
-863
-862
-853
-837
-817
-796
-778
-765
-760
-760
-764
-767
-768
-763
-754
-742
-728
-715
-705
-698
-694
-691
-689
-685
-680
-673
-666
-659
-653
-649
-646
-643
-639
-634
-628
-621
-614
-607
-600
-595
-590
-585
-579
-574
-567
-561
-555
-550
-546
-543
-540
-536
-533
-528
-523
-518
-513
-509
-506
-503
-502
-500
-497
-494
-490
-486
-482
-478
-475
-472
-469
-466
-462
-458
-454
-449
-446
-442
-439
-436
-434
-431
-428
-425
-423
-420
-418
-416
-415
-412
-410
-406
-401
-396
-391
-387
-384
-382
-382
-382
-382
-382
-380
-377
-373
-368
-363
-358
-354
-350
-348
-345
-341
-337
-331
-323
-311
-297
-280
-259
-234
-207
-177
-145
-115
-86
-62
-45
-36
-37
-49
-72
-102
-139
-177
-214
-247
-271
-287
-293
-291
-284
-273
-262
-252
-244
-239
-236
-233
-230
-225
-218
-211
-204
-198
-193
-190
-187
-185
-182
-178
-173
-167
-161
-155
-151
-148
-147
-146
-145
-144
-142
-139
-137
-135
-134
-133
-132
-131
-128
-124
-119
-112
-106
-101
-97
-95
-94
-94
-93
-90
-87
-81
-75
-69
-64
-59
-55
-52
-49
-45
-41
-36
-31
-27
-23
-21
-19
-17
-15
-12
-8
-2
4
10
16
21
26
31
36
41
46
51
57
63
68
72
76
80
82
85
87
88
89
88
88
87
87
88
91
95
100
104
108
110
110
109
106
102
98
94
91
88
86
83
81
79
77
76
74
73
72
71
69
66
63
59
56
55
55
56
58
60
61
62
61
60
60
61
63
67
71
74
76
77
76
74
71
70
71
74
78
83
88
91
92
91
89
86
84
84
84
85
87
88
88
87
85
83
81
81
81
81
82
83
83
83
84
84
86
88
91
93
95
95
95
95
95
97
100
104
109
113
116
118
118
118
118
119
122
127
133
139
144
146
146
145
143
144
147
154
163
172
179
182
181
176
170
166
167
174
188
204
217
219
203
163
97
6
-103
-222
-339
-443
-526
-583
-612
-617
-606
-586
-565
-551
-546
-552
-565
-581
-595
-603
-602
-591
-573
-552
-532
-516
-507
-504
-508
-513
-518
-520
-518
-511
-502
-492
-483
-477
-476
-476
-479
-481
-480
-478
-473
-467
-462
-458
-456
-457
-458
-459
-459
-456
-451
-444
-437
-431
-426
-424
-423
-423
-423
-422
-420
-417
-413
-409
-407
-405
-404
-404
-403
-401
-399
-396
-393
-390
-389
-387
-386
-385
-383
-380
-376
-372
-366
-361
-356
-351
-346
-342
-338
-334
-331
-328
-326
-325
-325
-324
-323
-321
-316
-310
-303
-296
-290
-285
-283
-283
-283
-284
-283
-280
-276
-270
-263
-257
-252
-248
-246
-245
-244
-243
-241
-239
-237
-234
-231
-228
-225
-222
-218
-214
-210
-206
-203
-200
-199
-198
-197
-197
-195
-193
-190
-186
-182
-179
-175
-172
-169
-165
-162
-158
-154
-149
-145
-142
-139
-136
-134
-131
-127
-124
-120
-116
-113
-110
-108
-108
-107
-106
-105
-101
-96
-89
-79
-66
-51
-33
-11
13
40
69
98
126
149
167
175
173
160
137
104
65
24
-17
-52
-81
-100
-110
-113
-110
-104
-97
-91
-88
-86
-85
-83
-80
-75
-68
-61
-55
-50
-48
-49
-51
-54
-55
-55
-53
-49
-44
-38
-34
-32
-31
-31
-32
-32
-30
-28
-24
-20
-17
-14
-12
-11
-10
-9
-8
-5
-2
1
4
7
9
12
15
18
21
25
29
32
34
35
36
37
39
42
47
52
58
63
67
69
70
71
72
74
77
82
88
93
99
103
107
110
113
116
120
125
131
137
142
146
150
154
157
160
164
168
172
176
179
181
182
182
183
183
184
184
185
184
183
181
179
176
173
171
169
167
165
163
160
156
152
147
143
140
138
137
136
135
133
132
130
129
127
127
127
127
127
127
127
126
125
125
126
127
130
132
134
136
137
137
137
138
140
142
145
149
152
155
156
156
155
155
155
155
157
159
160
161
160
159
159
158
160
163
167
172
177
180
183
183
183
182
181
182
183
185
187
188
188
187
185
183
182
183
185
188
191
194
196
196
194
192
190
188
187
187
188
189
190
190
190
190
190
191
191
193
195
196
197
198
199
199
199
199
200
200
200
199
198
196
194
193
191
191
191
192
193
194
195
197
198
200
202
204
206
208
209
210
210
210
211
213
215
218
221
223
225
226
225
225
224
223
223
224
225
226
228
229
229
230
231
232
234
236
238
240
241
241
241
240
240
239
238
236
234
231
226
222
217
213
211
211
212
214
217
218
219
218
216
214
213
212
213
214
214
214
212
209
204
198
193
189
187
186
186
186
185
184
182
179
176
174
174
175
177
180
183
185
188
190
193
196
201
205
210
214
217
218
218
217
216
215
215
215
216
216
216
216
215
213
213
212
212
212
212
211
209
206
202
199
196
195
195
196
198
198
197
195
192
189
187
187
191
198
210
226
246
268
294
320
348
373
395
409
415
409
391
362
326
285
244
207
176
154
141
134
132
133
133
133
131
128
124
120
117
115
115
116
119
122
126
129
131
133
132
131
128
125
121
119
117
116
116
116
116
115
113
111
109
108
107
107
108
108
108
107
105
102
100
98
98
98
100
101
102
100
98
94
91
89
88
89
92
95
98
99
98
96
93
91
91
92
96
100
104
107
108
107
105
102
100
100
100
102
104
105
104
103
100
97
95
94
95
96
97
98
99
98
96
93
91
90
89
88
87
85
82
79
75
70
67
64
61
58
54
49
43
35
27
19
12
6
1
-3
-8
-13
-19
-25
-32
-38
-43
-46
-48
-49
-51
-54
-58
-63
-68
-73
-77
-79
-79
-79
-78
-78
-78
-80
-82
-84
-86
-89
-91
-93
-97
-101
-106
-112
-119
-125
-129
-133
-135
-137
-139
-140
-143
-146
-149
-152
-156
-159
-162
-166
-170
-175
-181
-187
-192
-197
-200
-201
-203
-204
-206
-209
-213
-218
-222
-225
-226
-226
-225
-223
-222
-221
-221
-222
-223
-223
-223
-222
-220
-220
-219
-220
-222
-223
-224
-224
-222
-220
-217
-215
-214
-215
-217
-220
-223
-224
-225
-225
-224
-225
-227
-231
-237
-243
-247
-250
-250
-247
-243
-238
-233
-231
-230
-231
-232
-233
-233
-232
-230
-228
-228
-229
-231
-235
-239
-243
-244
-244
-242
-239
-236
-235
-234
-235
-237
-238
-239
-239
-238
-237
-236
-237
-239
-241
-245
-248
-250
-252
-252
-252
-253
-254
-255
-256
-258
-258
-258
-256
-254
-252
-251
-250
-250
-251
-251
-251
-250
-248
-245
-242
-240
-239
-239
-240
-240
-240
-238
-235
-231
-227
-225
-224
-224
-226
-228
-230
-232
-232
-231
-229
-227
-225
-224
-223
-221
-219
-216
-212
-207
-202
-198
-194
-191
-190
-189
-189
-189
-189
-188
-188
-187
-187
-185
-184
-181
-178
-175
-172
-170
-170
-172
-174
-178
-181
-182
-181
-177
-171
-163
-153
-142
-129
-115
-99
-79
-56
-30
-1
28
53
73
85
85
74
52
20
-18
-59
-99
-134
-163
-183
-194
-198
-197
-191
-185
-178
-174
-171
-169
-168
-165
-161
-154
-145
-136
-128
-122
-118
-117
-117
-119
-119
-118
-116
-112
-107
-102
-99
-96
-95
-95
-95
-93
-90
-86
-81
-77
-73
-70
-69
-69
-70
-70
-69
-68
-66
-63
-61
-59
-57
-56
-56
-55
-53
-52
-50
-49
-48
-48
-48
-48
-48
-47
-45
-42
-40
-37
-35
-33
-31
-30
-28
-26
-23
-19
-15
-12
-8
-6
-3
-1
2
5
8
12
15
18
20
22
24
25
28
30
33
36
39
40
40
39
37
36
36
37
39
41
44
45
46
45
44
41
38
36
33
31
28
25
22
18
15
12
10
8
5
3
0
-4
-9
-14
-18
-21
-23
-24
-24
-24
-25
-26
-29
-32
-34
-35
-35
-33
-30
-27
-25
-24
-25
-27
-30
-33
-34
-33
-32
-30
-27
-26
-27
-28
-30
-32
-32
-31
-29
-25
-22
-19
-18
-17
-18
-18
-19
-19
-19
-18
-18
-18
-19
-20
-21
-21
-22
-21
-21
-20
-21
-24
-28
-32
-36
-40
-42
-43
-44
-45
-46
-50
-55
-60
-66
-69
-71
-71
-68
-65
-62
-60
-60
-61
-63
-64
-65
-64
-61
-58
-55
-52
-51
-51
-51
-52
-51
-49
-46
-42
-39
-36
-35
-35
-36
-36
-36
-36
-34
-31
-29
-26
-24
-23
-22
-21
-20
-19
-19
-18
-18
-19
-19
-19
-18
-16
-12
-8
-4
-1
0
-1
-3
-5
-7
-7
-6
-3
1
5
7
9
9
8
6
6
7
9
12
16
18
20
21
21
22
24
28
32
36
38
39
38
34
29
25
22
21
23
26
29
32
33
32
30
27
25
24
25
27
30
33
35
36
36
36
36
37
39
42
45
47
47
47
45
43
42
42
43
44
46
47
48
47
45
44
42
42
43
44
46
48
49
50
50
50
50
49
49
49
48
47
46
45
47
51
59
72
88
108
130
153
176
199
221
241
257
268
272
267
251
225
189
147
103
61
26
1
-15
-21
-19
-13
-6
1
5
6
6
5
5
4
4
4
3
1
-4
-9
-15
-20
-24
-26
-26
-24
-22
-19
-17
-16
-16
-17
-17
-18
-18
-18
-17
-16
-14
-12
-10
-8
-7
-6
-6
-6
-7
-8
-9
-9
-9
-9
-8
-7
-6
-5
-4
-2
-1
2
5
9
12
16
18
20
22
23
25
28
32
36
41
44
46
47
47
47
47
47
49
52
56
59
62
63
63
62
60
59
59
60
62
65
68
71
73
74
75
76
78
79
81
83
85
86
86
85
84
82
80
78
75
72
69
65
61
57
54
52
50
48
47
44
41
37
33
28
25
22
21
20
18
16
13
9
3
-2
-6
-8
-9
-7
-6
-4
-2
-2
-3
-4
-6
-6
-6
-4
-2
0
1
1
0
-1
-2
-2
-1
1
5
8
11
14
16
17
18
18
19
20
21
22
23
23
22
22
21
21
22
23
25
26
28
29
30
31
32
34
35
35
35
34
33
33
32
33
35
38
42
45
48
50
51
52
53
55
58
62
67
71
74
75
75
74
72
71
71
72
75
77
79
79
78
76
73
72
72
73
76
80
84
86
87
86
84
82
82
83
85
89
93
96
97
98
97
96
95
96
98
101
104
107
110
112
113
114
116
117
120
122
125
127
128
128
128
128
129
129
130
131
132
132
131
129
127
126
126
127
129
131
133
135
136
137
138
139
140
143
145
147
149
150
149
148
146
145
144
144
144
145
146
146
145
144
143
142
142
143
145
147
149
150
150
150
150
151
151
153
154
155
155
155
155
154
154
155
156
158
161
163
164
164
164
164
164
166
168
171
174
176
177
177
176
175
175
176
179
182
185
186
186
184
181
178
177
178
184
194
208
225
243
263
285
308
334
362
393
423
450
470
480
479
464
438
402
361
319
280
248
224
208
199
197
198
202
206
210
214
218
220
223
226
229
233
237
241
246
251
255
258
259
260
261
261
262
264
267
271
275
278
281
283
285
286
287
289
290
292
293
293
293
293
293
293
295
298
301
306
310
312
314
314
313
312
312
313
316
320
324
327
329
330
329
328
327
327
328
330
332
334
336
337
338
338
339
341
345
349
353
358
361
364
366
367
368
370
372
375
378
381
383
385
386
387
388
388
389
389
390
389
389
388
388
388
389
390
391
391
391
390
387
383
380
376
373
370
368
365
362
357
351
344
337
332
327
325
323
322
320
318
314
311
307
305
303
304
305
306
306
305
303
299
295
292
291
291
293
296
299
301
301
300
298
296
294
294
295
297
298
299
299
298
296
296
296
297
300
303
307
309
310
311
310
309
309
310
312
314
317
318
319
318
316
313
311
310
310
310
310
310
309
308
307
306
306
307
309
311
313
314
314
314
312
311
310
310
310
310
311
311
311
311
310
310
310
310
311
311
310
308
305
302
299
296
295
293
292
290
287
284
280
276
274
272
272
273
274
274
271
267
260
253
246
242
241
242
244
246
245
240
233
224
215
209
208
211
218
225
228
226
218
205
191
180
177
182
196
214
230
237
232
213
184
154
131
122
129
148
172
186
179
146
88
15
-56
-108
-126
-110
-69
-23
2
-14
-83
-195
-328
-447
-521
-532
-484
-408
-352
-368
-493
-732
-1054
-1390
-1659
-1789
-1745
-1548
-1274
-1037
-954
-1104
-1492
-2040
-2595
-2977
-3032
-2693
-2020
-1200
-511
-246
-632
-1747
-3482
-5550
-7551
-9071
-9789
-9567
-8484
-6812
-4940
-3264
-2079
-1510
-1497
-1829
-2235
-2474
-2412
-2055
-1531
-1031
-727
-714
-970
-1375
-1756
-1960
-1909
-1628
-1233
-883
-716
-799
-1097
-1493
-1829
-1973
-1867
-1550
-1146
-812
-681
-806
-1144
-1566
-1909
-2038
-1897
-1535
-1084
-718
-578
-725
-1112
-1599
-2005
-2172
-2029
-1619
-1085
-622
-404
-523
-949
-1541
-2088
-2392
-2329
-1902
-1246
-579
-136
-88
-480
-1211
-2060
-2753
-3042
-2782
-1971
-756
619
1874
2776
3197
3137
2718
2132
1585
1239
1168
1354
1700
2076
2356
2462
2381
2160
1887
1659
1546
1576
1726
1934
2124
2232
2223
2107
1929
1754
1646
1642
1745
1918
2098
2219
2233
2129
1936
1721
1560
1520
1626
1855
2136
2370
2464
2364
2080
1688
1317
1108
1166
1516
2087
2712
3171
3249
2805
1825
434
-1120
-2530
-3508
-3869
-3584
-2788
-1743
-765
-128
9
-351
-1055
-1849
-2464
-2702
-2494
-1922
-1182
-523
-163
-220
-675
-1386
-2129
-2673
-2840
-2559
-1867
-891
197
1232
2093
2716
3083
3199
3072
2694
2056
1164
67
-1126
-2251
-3122
-3573
-3518
-2983
-2114
-1147
-347
62
-34
-605
-1479
-2393
-3064
-3264
-2890
-1985
-723
639
1836
2661
3014
2922
2512
1967
1476
1173
1118
1285
1589
1914
2159
2260
2206
2036
1816
1619
1501
1485
1562
1697
1843
1957
2010
1994
1920
1813
1702
1616
1575
1586
1649
1750
1867
1972
2030
2006
1869
1596
1185
650
27
-630
-1259
-1801
-2213
-2471
-2582
-2573
-2490
-2382
-2291
-2244
-2249
-2294
-2358
-2415
-2446
-2443
-2413
-2370
-2334
-2319
-2332
-2368
-2414
-2451
-2465
-2449
-2409
-2359
-2321
-2311
-2339
-2398
-2470
-2530
-2554
-2529
-2458
-2362
-2276
-2234
-2258
-2352
-2490
-2629
-2719
-2719
-2618
-2437
-2233
-2077
-2035
-2143
-2387
-2700
-2979
-3118
-3040
-2732
-2264
-1776
-1446
-1439
-1848
-2662
-3745
-4865
-5748
-6153
-5937
-5107
-3822
-2361
-1048
-166
113
-220
-1017
-2017
-2915
-3452
-3473
-2963
-2034
-884
271
1249
1950
2354
2506
2473
2308
2022
1587
956
103
-943
-2083
-3150
-3951
-4310
-4124
-3395
-2239
-862
493
1600
2303
2552
2405
1997
1504
1087
858
850
1028
1306
1581
1768
1820
1740
1570
1376
1220
1145
1163
1254
1379
1493
1561
1565
1512
1425
1335
1269
1244
1262
1310
1369
1417
1440
1431
1397
1351
1307
1277
1269
1281
1305
1331
1350
1356
1346
1326
1301
1279
1265
1262
1267
1277
1287
1292
1290
1281
1268
1255
1243
1237
1235
1237
1241
1243
1242
1237
1230
1221
1212
1205
1201
1199
1199
1199
1197
1194
1189
1182
1175
1168
1163
1159
1157
1155
1153
1151
1146
1141
1135
1128
1121
1115
