3
0
-3
-5
-6
-6
-6
-5
-4
-3
-2
-2
-2
-2
-2
-2
-2
-1
-1
0
0
-1
-2
-4
-5
-7
-7
-7
-6
-5
-3
-1
0
0
-1
-2
-3
-5
-6
-6
-6
-5
-3
-1
1
2
3
2
1
0
-2
-3
-4
-4
-4
-3
-1
1
2
3
4
3
2
1
-1
-2
-2
-2
-2
0
1
3
4
5
5
4
3
1
0
-1
-2
-2
-2
-3
-3
-4
-5
-6
-7
-8
-8
-8
-7
-5
-3
-2
0
0
0
0
-1
-2
-3
-3
-4
-5
-6
-7
-7
-8
-8
-8
-8
-6
-5
-3
-1
1
2
3
2
2
1
0
0
0
0
0
0
0
0
-1
-2
-2
-2
-2
-2
-2
-3
-3
-4
-5
-5
-6
-5
-5
-3
-2
-1
-1
-1
-2
-3
-3
-3
-2
-1
1
4
6
7
7
7
6
5
4
4
5
6
8
10
12
13
13
13
12
10
9
7
6
5
4
3
3
2
1
0
-1
-3
-5
-8
-10
-13
-14
-15
-15
-14
-13
-10
-8
-7
-6
-6
-7
-9
-10
-11
-12
-12
-11
-11
-10
-9
-9
-9
-10
-11
-12
-12
-12
-12
-11
-10
-10
-12
-14
-17
-20
-20
-17
-9
5
25
50
78
106
131
150
161
160
150
129
101
70
38
10
-13
-29
-37
-40
-38
-33
-27
-22
-19
-17
-16
-16
-17
-16
-16
-14
-13
-12
-12
-12
-12
-13
-14
-15
-15
-14
-13
-11
-10
-9
-9
-9
-10
-12
-13
-14
-15
-14
-13
-10
-7
-4
-2
0
2
1
0
-2
-5
-7
-9
-10
-9
-8
-6
-4
-2
-1
-1
-2
-4
-5
-6
-6
-5
-2
0
3
5
6
7
7
6
5
5
5
5
6
7
8
9
10
11
11
13
15
17
19
21
22
22
21
20
19
19
20
22
25
29
33
36
38
39
39
39
39
40
42
45
49
52
55
57
57
56
55
54
54
54
56
57
59
60
60
59
57
55
52
50
48
47
46
44
42
40
38
36
33
31
29
27
25
23
20
17
13
10
6
3
1
-1
-3
-4
-5
-7
-8
-9
-10
-10
-10
-9
-8
-7
-6
-6
-8
-9
-11
-13
-15
-16
-16
-15
-14
-13
-13
-13
-14
-15
-17
-18
-19
-18
-17
-16
-14
-12
-11
-11
-12
-13
-16
-18
-20
-21
-21
-19
-17
-14
-12
-9
-8
-8
-9
-11
-13
-16
-19
-21
-22
-21
-20
-19
-17
-15
-14
-13
-12
-13
-13
-13
-12
-11
-10
-10
-9
-9
-10
-11
-13
-15
-17
-18
-17
-16
-13
-10
-7
-5
-4
-4
-5
-7
-9
-12
-13
-14
-13
-12
-11
-9
-9
-9
-10
-11
-13
-15
-16
-16
-15
-14
-11
-9
-7
-5
-4
-4
-5
-6
-8
-9
-11
-12
-13
-13
-13
-12
-10
-7
-5
-2
0
2
2
3
3
2
1
1
1
1
2
2
3
3
3
2
2
1
1
1
2
3
4
4
4
2
0
-4
-7
-11
-13
-15
-15
-14
-12
-10
-8
-6
-6
-6
-7
-8
-10
-12
-14
-15
-16
-16
-16
-15
-14
-13
-12
-10
-9
-8
-7
-7
-7
-7
-7
-8
-9
-11
-13
-15
-17
-20
-23
-25
-27
-27
-24
-18
-8
8
29
54
83
112
140
162
177
181
175
158
132
100
65
32
4
-18
-30
-35
-33
-26
-18
-9
-3
0
0
-2
-5
-8
-10
-11
-11
-10
-9
-8
-8
-9
-10
-11
-11
-11
-10
-8
-6
-4
-3
-3
-4
-5
-7
-8
-9
-8
-7
-5
-3
-1
-1
-2
-4
-7
-10
-12
-14
-14
-12
-9
-5
-2
0
1
-1
-3
-7
-10
-12
-13
-11
-8
-3
2
6
8
9
8
5
2
-1
-2
-3
-2
0
3
5
7
7
7
6
5
5
5
5
7
8
10
12
13
14
16
17
19
20
22
23
25
26
27
28
29
30
32
34
36
38
40
41
42
42
43
43
44
45
47
48
49
49
48
47
46
45
44
43
43
43
42
41
39
36
32
27
23
19
16
14
12
11
9
6
4
0
-3
-6
-7
-8
-8
-7
-7
-6
-6
-7
-8
-11
-13
-16
-18
-20
-21
-21
-21
-21
-20
-19
-18
-17
-16
-16
-15
-16
-16
-17
-18
-19
-20
-20
-19
-19
-18
-18
-19
-20
-21
-22
-24
-25
-26
-26
-26
-25
-24
-22
-22
-21
-21
-21
-22
-23
-24
-25
-25
-24
-24
-23
-21
-21
-20
-20
-21
-21
-22
-23
-24
-24
-23
-23
-22
-21
-21
-21
-21
-22
-22
-22
-22
-21
-20
-20
-20
-21
-22
-24
-26
-27
-28
-28
-27
-25
-23
-21
-20
-20
-20
-21
-21
-22
-22
-22
-22
-21
-20
-20
-21
-22
-23
-24
-25
-24
-23
-21
-19
-18
-16
-16
-17
-19
-21
-23
-25
-26
-27
-26
-25
-24
-23
-23
-23
-24
-26
-27
-28
-28
-26
-24
-22
-18
-15
-13
-11
-11
-11
-13
-15
-17
-19
-21
-21
-21
-20
-18
-16
-15
-13
-13
-12
-12
-12
-12
-11
-11
-10
-9
-8
-8
-10
-12
-15
-18
-21
-25
-27
-28
-29
-28
-27
-25
-24
-22
-22
-22
-23
-25
-28
-30
-32
-32
-32
-31
-30
-28
-27
-27
-27
-28
-30
-32
-33
-33
-32
-30
-28
-26
-25
-25
-26
-28
-30
-32
-35
-37
-38
-39
-38
-36
-31
-23
-9
10
35
64
94
123
148
164
169
163
144
117
83
48
15
-13
-32
-43
-46
-44
-37
-30
-23
-18
-16
-17
-19
-22
-26
-28
-29
-30
-29
-28
-26
-24
-23
-21
-21
-20
-20
-20
-21
-21
-22
-22
-22
-22
-23
-23
-24
-25
-26
-27
-27
-27
-26
-25
-23
-22
-20
-19
-18
-18
-19
-20
-21
-22
-23
-23
-23
-22
-21
-19
-16
-14
-11
-9
-8
-8
-8
-10
-12
-15
-17
-19
-20
-19
-17
-14
-10
-7
-4
-1
-1
-1
-1
-3
-3
-4
-3
-1
0
2
4
5
6
6
5
4
4
4
5
6
8
10
13
15
17
19
21
23
25
27
30
33
35
38
40
41
42
41
41
40
38
37
36
36
36
36
36
36
36
35
35
34
34
33
32
31
29
26
22
17
13
8
4
1
-1
-2
-2
-2
-2
-3
-4
-7
-11
-14
-18
-21
-23
-24
-23
-22
-19
-17
-15
-14
-13
-14
-16
-18
-19
-20
-21
-20
-19
-18
-17
-16
-16
-17
-18
-20
-21
-22
-22
-21
-19
-17
-16
-15
-14
-15
-16
-18
-19
-20
-20
-19
-18
-17
-16
-16
-16
-17
-18
-19
-20
-21
-20
-19
-17
-15
-13
-12
-11
-10
-11
-11
-11
-12
-11
-11
-10
-9
-8
-8
-9
-9
-10
-11
-12
-11
-11
-10
-8
-7
-7
-7
-8
-9
-10
-11
-12
-11
-10
-9
-8
-7
-7
-7
-8
-9
-9
-10
-9
-8
-7
-5
-4
-4
-4
-5
-6
-6
-6
-5
-4
-2
-1
0
1
0
-1
-3
-4
-5
-6
-6
-6
-6
-6
-7
-7
-7
-6
-5
-3
-1
1
2
3
3
3
2
1
0
0
0
1
1
2
1
0
-1
-2
-3
-3
-1
1
4
6
8
9
9
8
6
4
2
0
-1
-1
-2
-1
-1
0
0
1
2
4
5
6
7
7
6
4
2
1
0
1
2
5
8
11
13
13
12
10
7
3
0
-2
-2
-1
0
3
5
7
9
9
9
9
9
8
8
8
8
8
7
7
8
8
9
10
12
14
16
17
18
18
18
17
17
17
17
18
19
20
21
21
21
20
19
18
18
18
17
17
17
17
16
15
14
13
12
12
11
11
10
9
8
7
5
4
4
4
5
6
8
9
9
9
8
7
5
4
3
3
4
5
6
7
8
8
8
7
7
6
6
7
6
6
4
2
1
0
1
7
17
33
56
83
112
142
168
187
197
196
184
162
134
102
70
42
21
7
1
2
7
14
20
25
27
26
22
17
12
9
7
7
9
12
15
17
19
19
18
16
14
12
11
12
12
14
15
16
17
17
16
15
14
13
13
14
16
18
21
23
25
26
26
25
22
19
17
15
14
14
16
18
21
23
25
26
26
25
24
23
23
24
25
27
28
29
30
30
30
29
28
28
29
30
32
34
35
36
36
36
36
36
36
37
39
40
42
43
43
43
42
40
39
39
40
42
46
49
53
57
60
62
64
65
65
66
67
67
68
68
67
66
65
65
65
66
68
70
72
74
74
73
71
69
66
64
63
63
63
64
64
63
61
57
53
49
44
41
38
36
34
33
31
28
25
22
19
16
15
14
15
16
16
16
15
13
10
7
5
4
4
5
6
8
9
10
10
10
9
8
7
7
7
8
8
8
7
6
5
3
3
2
3
4
5
5
5
5
4
2
1
0
1
2
4
7
9
11
11
11
10
8
5
4
2
2
2
3
3
4
3
2
1
-1
-2
-3
-3
-2
0
3
5
7
8
7
6
4
2
0
-1
0
1
3
4
5
6
5
3
0
-2
-3
-4
-4
-3
-1
1
2
2
2
2
1
1
0
0
0
0
-1
-1
-2
-3
-3
-3
-2
-1
0
1
1
0
-1
-2
-4
-5
-6
-6
-6
-5
-5
-5
-5
-6
-8
-9
-10
-11
-10
-10
-9
-8
-8
-8
-9
-10
-12
-13
-14
-15
-14
-14
-13
-13
-12
-13
-14
-15
-17
-19
-20
-21
-21
-21
-19
-18
-17
-15
-15
-14
-15
-16
-16
-17
-17
-17
-16
-16
-16
-16
-17
-19
-22
-24
-27
-28
-29
-28
-27
-25
-24
-22
-21
-21
-22
-23
-24
-25
-26
-26
-27
-27
-27
-27
-28
-29
-30
-30
-31
-31
-30
-30
-30
-30
-30
-30
-31
-31
-32
-33
-35
-36
-38
-40
-41
-43
-44
-43
-42
-40
-38
-35
-33
-32
-31
-32
-34
-36
-37
-38
-39
-38
-37
-35
-34
-34
-35
-37
-39
-42
-44
-45
-46
-45
-43
-42
-40
-39
-39
-40
-42
-44
-47
-49
-50
-50
-50
-49
-48
-47
-46
-46
-47
-48
-49
-50
-51
-51
-51
-50
-50
-51
-51
-52
-54
-54
-54
-54
-53
-51
-50
-48
-47
-47
-48
-49
-50
-51
-51
-52
-52
-52
-52
-53
-54
-55
-56
-56
-57
-56
-56
-56
-56
-56
-58
-59
-61
-62
-62
-61
-59
-56
-53
-50
-48
-47
-47
-48
-50
-52
-53
-55
-56
-56
-56
-56
-56
-55
-55
-54
-54
-54
-54
-54
-55
-57
-60
-63
-66
-68
-70
-71
-71
-71
-70
-69
-69
-69
-69
-70
-71
-72
-73
-74
-74
-74
-74
-73
-72
-72
-71
-71
-71
-71
-72
-74
-75
-77
-79
-81
-83
-85
-87
-88
-88
-86
-81
-72
-59
-40
-16
11
39
66
88
103
107
101
85
61
32
2
-27
-51
-69
-79
-83
-83
-80
-76
-72
-70
-70
-72
-74
-76
-77
-76
-75
-73
-70
-68
-67
-66
-67
-67
-67
-67
-66
-64
-62
-58
-55
-52
-49
-47
-45
-43
-41
-40
-38
-37
-35
-34
-34
-33
-33
-32
-31
-29
-26
-24
-21
-18
-16
-14
-13
-12
-12
-12
-11
-10
-8
-7
-5
-3
-2
-1
0
1
1
2
2
3
5
6
8
10
13
14
15
16
16
15
15
15
15
16
18
21
24
26
29
31
33
34
35
35
36
37
38
38
38
38
39
40
41
44
48
53
58
63
67
70
71
70
68
66
64
63
63
64
66
68
69
70
69
68
67
66
67
68
70
72
73
74
73
70
66
61
55
50
46
44
43
43
44
44
44
43
41
38
35
32
29
26
24
24
23
23
24
24
25
25
26
26
26
25
24
23
21
19
17
16
15
16
17
19
21
22
22
22
20
18
15
13
11
11
13
15
18
20
22
22
21
18
15
12
9
8
8
9
11
14
16
18
19
19
19
20
20
20
21
21
21
20
20
18
17
16
16
16
17
18
20
21
22
23
23
22
21
20
20
20
20
20
21
21
21
21
20
20
20
21
21
21
22
22
21
21
20
20
20
20
20
20
20
20
20
20
19
19
18
18
18
18
18
17
17
16
16
16
16
16
17
17
17
17
17
16
15
14
13
13
12
12
12
12
11
11
10
10
10
10
11
12
12
13
13
13
12
12
12
12
12
13
14
14
15
15
14
13
12
11
9
8
8
8
8
9
10
11
12
13
14
14
14
14
13
12
11
11
10
10
10
10
10
10
9
8
7
7
6
7
8
9
11
12
12
12
11
9
8
7
6
7
8
10
11
12
11
10
7
4
2
0
-1
0
2
5
8
10
12
12
10
9
7
6
5
5
6
8
9
9
9
8
7
5
4
3
4
5
7
9
12
14
16
18
19
19
19
19
19
18
18
17
17
16
16
15
14
13
12
11
10
9
9
9
9
9
9
9
8
7
6
4
3
2
1
1
1
2
4
5
5
5
4
3
2
0
0
-1
0
1
3
5
6
7
7
5
4
2
0
-1
-2
-3
-3
-3
-3
-3
-2
1
8
19
35
56
81
108
134
156
170
176
171
156
133
104
74
45
20
1
-11
-17
-17
-15
-10
-5
-1
2
3
4
3
3
2
2
1
2
2
3
4
5
6
8
10
11
11
11
10
9
7
6
5
4
5
6
7
9
10
10
10
10
9
8
6
5
4
4
4
4
5
7
9
11
13
14
14
14
13
11
9
7
6
6
6
8
10
11
13
14
14
14
13
12
12
12
12
13
14
16
18
19
21
22
23
24
25
25
26
26
26
26
26
27
28
29
31
33
36
39
42
44
46
47
47
47
46
46
45
46
47
49
52
55
58
60
62
63
62
61
59
57
54
53
52
53
54
56
57
59
59
59
57
54
50
46
41
37
33
30
27
24
22
19
16
13
10
7
5
4
3
3
2
2
0
-1
-3
-5
-7
-8
-9
-9
-9
-8
-8
-8
-8
-9
-10
-10
-11
-11
-11
-11
-11
-11
-11
-12
-12
-13
-14
-15
-15
-16
-17
-17
-18
-20
-21
-21
-22
-21
-20
-18
-15
-14
-12
-12
-13
-15
-17
-20
-23
-24
-25
-24
-22
-19
-16
-13
-11
-11
-12
-14
-17
-19
-22
-23
-24
-23
-21
-19
-17
-15
-14
-13
-12
-12
-11
-11
-10
-10
-10
-11
-12
-14
-16
-17
-18
-19
-18
-17
-16
-15
-14
-14
-14
-15
-15
-16
-17
-17
-18
-19
-20
-22
-23
-25
-26
-26
-26
-25
-23
-22
-21
-20
-21
-22
-24
-25
-26
-25
-24
-21
-18
-16
-14
-13
-13
-15
-17
-20
-22
-24
-24
-24
-22
-20
-18
-16
-15
-15
-15
-16
-17
-18
-19
-20
-20
-20
-20
-20
-20
-21
-22
-23
-24
-25
-25
-24
-23
-22
-20
-19
-19
-19
-21
-23
-25
-28
-29
-30
-30
-29
-27
-25
-23
-22
-21
-21
-22
-23
-24
-25
-25
-25
-25
-25
-24
-25
-25
-26
-26
-27
-28
-28
-28
-27
-27
-27
-27
-28
-28
-29
-29
-29
-28
-28
-27
-28
-29
-31
-34
-37
-40
-41
-42
-40
-37
-33
-30
-27
-25
-25
-27
-29
-32
-34
-35
-34
-32
-29
-26
-24
-23
-24
-26
-29
-31
-34
-35
-36
-35
-33
-32
-30
-30
-30
-32
-34
-36
-38
-39
-40
-40
-38
-37
-35
-33
-31
-29
-28
-28
-28
-29
-30
-31
-32
-33
-33
-32
-31
-29
-27
-26
-24
-23
-22
-22
-23
-23
-24
-25
-25
-25
-26
-26
-25
-25
-25
-25
-25
-26
-27
-29
-31
-33
-36
-38
-39
-40
-39
-38
-36
-34
-32
-31
-30
-30
-31
-32
-34
-35
-37
-38
-38
-39
-39
-39
-38
-38
-38
-37
-37
-37
-37
-38
-38
-39
-39
-40
-39
-39
-39
-40
-41
-44
-46
-49
-50
-49
-43
-32
-16
6
33
62
90
114
132
142
142
132
114
89
60
31
4
-18
-35
-45
-49
-48
-45
-40
-36
-32
-31
-31
-33
-36
-38
-40
-40
-39
-37
-34
-32
-29
-28
-27
-28
-29
-30
-32
-33
-33
-33
-33
-33
-32
-32
-31
-31
-31
-30
-30
-30
-29
-28
-28
-28
-27
-27
-26
-26
-25
-24
-23
-22
-21
-21
-20
-20
-20
-21
-21
-21
-20
-20
-20
-20
-19
-19
-19
-19
-19
-19
-19
-18
-18
-17
-15
-13
-11
-8
-4
-1
2
4
5
6
7
8
9
10
12
15
17
20
22
24
25
26
27
28
30
31
33
34
36
37
38
39
39
39
39
40
41
43
45
48
52
56
59
63
65
68
69
70
71
72
72
72
71
71
70
69
68
67
64
62
59
56
53
50
47
44
42
40
38
37
35
33
31
29
27
25
22
20
19
17
16
15
14
13
12
10
9
7
6
6
7
8
10
12
14
15
15
15
13
11
8
5
2
1
0
-1
0
0
1
1
2
2
1
1
1
1
1
2
2
3
3
3
3
3
2
2
1
0
0
-1
-1
-2
-2
-1
-1
0
1
2
3
4
4
3
2
1
0
0
0
0
2
4
6
7
8
8
7
5
3
1
0
-1
0
1
3
5
7
8
8
7
5
2
0
-2
-3
-2
-1
1
4
6
7
8
7
6
4
2
0
-2
-2
-2
-1
0
2
3
4
4
3
3
2
2
2
2
3
4
5
5
6
6
5
5
5
6
7
7
8
8
7
6
5
4
3
3
2
3
3
4
4
3
2
2
1
1
1
1
2
3
3
2
1
-1
-3
-5
-5
-4
-2
1
4
7
9
10
10
8
6
4
2
1
1
2
3
4
5
5
5
5
4
4
4
4
4
4
5
5
5
5
4
4
3
3
4
5
6
7
8
8
8
8
7
6
5
4
3
2
1
1
1
1
2
3
4
5
7
8
8
9
8
6
4
2
0
-1
-2
-2
0
2
4
6
8
9
9
8
7
5
4
2
2
1
1
1
2
2
3
4
4
4
5
5
4
4
3
2
2
1
1
1
1
2
4
5
7
8
9
10
11
11
11
11
12
12
12
12
11
11
11
10
10
11
11
12
13
13
12
11
9
8
6
5
5
6
8
11
14
16
19
20
21
20
20
19
17
16
15
13
11
9
6
4
2
0
-1
-1
-2
-2
-2
-2
-3
-4
-5
-6
-7
-7
-8
-9
-9
-9
-9
-10
-9
-9
-9
-8
-8
-8
-9
-10
-11
-12
-14
-14
-14
-12
-10
-8
-6
-5
-5
-7
-10
-14
-17
-19
-18
-13
-3
13
34
59
86
113
138
157
168
171
164
148
125
96
67
38
13
-5
-17
-23
-23
-20
-14
-9
-5
-3
-3
-4
-6
-9
-10
-11
-10
-9
-7
-5
-5
-5
-6
-8
-10
-12
-14
-14
-15
-14
-13
-12
-12
-12
-13
-13
-14
-15
-15
-14
-12
-9
-7
-4
-2
-1
-1
-3
-5
-7
-10
-11
-12
-11
-10
-8
-6
-5
-4
-4
-5
-5
-6
-6
-5
-4
-3
-2
-2
-3
-4
-5
-7
-8
-7
-6
-4
0
3
5
7
7
7
6
4
3
3
4
5
6
8
10
11
12
13
14
15
17
20
24
28
31
35
38
40
42
43
43
44
44
44
45
45
46
46
47
47
47
47
46
47
47
48
49
51
52
54
54
54
53
50
47
44
40
37
34
32
31
31
30
29
27
24
20
15
9
5
1
-2
-4
-4
-4
-3
-3
-2
-3
-4
-5
-7
-8
-10
-11
-12
-12
-13
-13
-12
-12
-12
-11
-11
-11
-11
-11
-11
-12
-14
-16
-18
-19
-21
-21
-21
-20
-18
-17
-16
-15
-15
-15
-17
-18
-20
-21
-21
-21
-21
-20
-19
-18
-17
-17
-18
-19
-20
-21
-22
-22
-22
-22
-21
-20
-19
-19
-19
-20
-22
-23
-24
-25
-25
-25
-23
-21
-19
-17
-15
-14
-14
-15
-16
-18
-19
-21
-21
-22
-22
-21
-20
-19
-18
-17
-16
-16
-16
-16
-17
-17
-18
-19
-19
-20
-20
-20
-20
-20
-21
-21
-21
-21
-21
-22
-22
-22
-22
-22
-21
-21
-20
-20
-19
-17
-16
-16
-15
-15
-15
-16
-17
-18
-19
-19
-19
-18
-17
-16
-14
-13
-12
-12
-12
-13
-14
-16
-17
-19
-21
-22
-23
-23
-23
-23
-22
-22
-22
-23
-23
-23
-23
-22
-20
-18
-16
-13
-12
-10
-10
-10
-12
-13
-14
-15
-16
-15
-14
-13
-12
-10
-10
-10
-11
-11
-12
-13
-13
-13
-13
-13
-12
-12
-13
-13
-14
-15
-16
-17
-17
-17
-17
-17
-17
-17
-17
-16
-16
-16
-16
-16
-17
-17
-18
-19
-20
-21
-21
-20
-19
-17
-15
-13
-12
-10
-10
-10
-10
-11
-12
-13
-13
-14
-14
-15
-15
-15
-15
-16
-16
-16
-16
-16
-15
-14
-13
-12
-11
-11
-11
-12
-13
-15
-16
-17
-18
-18
-18
-17
-15
-15
-14
-14
-14
-14
-15
-14
-14
-12
-10
-8
-5
-3
-2
-2
-2
-3
-4
-5
-5
-6
-5
-5
-4
-4
-3
-4
-4
-5
-7
-8
-9
-10
-10
-11
-11
-11
-11
-11
-12
-12
-13
-14
-14
-15
-16
-17
-17
-17
-18
-18
-17
-17
-16
-15
-14
-13
-12
-12
-12
-13
-14
-16
-17
-18
-18
-18
-17
-17
-17
-18
-19
-21
-23
-23
-20
-12
2
21
46
74
103
129
149
162
163
155
137
112
84
55
28
7
-9
-18
-21
-21
-18
-14
-10
-7
-6
-6
-7
-8
-10
-12
-13
-14
-14
-14
-12
-10
-7
-4
-2
-1
-2
-4
-7
-10
-13
-15
-15
-14
-12
-9
-6
-4
-2
-2
-3
-6
-8
-10
-11
-12
-11
-10
-8
-6
-5
-4
-4
-4
-5
-5
-6
-6
-6
-6
-6
-6
-5
-5
-4
-3
-2
0
1
2
3
3
3
2
1
0
0
0
1
3
5
8
10
11
12
12
12
11
10
9
9
9
11
12
14
16
18
20
21
22
23
23
25
26
28
30
33
35
38
40
42
44
45
47
48
49
51
52
53
53
53
52
51
51
51
51
52
52
53
54
53
52
49
46
43
40
37
36
35
34
33
31
29
26
22
17
13
9
6
5
5
6
6
6
5
2
-1
-5
-8
-10
-11
-11
-9
-7
-4
-2
-1
-1
-2
-5
-7
-9
-10
-11
-11
-10
-9
-8
-8
-8
-8
-9
-10
-10
-11
-12
-13
-14
-14
-14
-14
-13
-12
-10
-8
-7
-6
-6
-8
-10
-13
-16
-18
-19
-18
-17
-14
-12
-9
-8
-7
-7
-8
-9
-10
-11
-12
-12
-12
-11
-10
-9
-8
-8
-7
-7
-7
-7
-7
-7
-7
-7
-7
-6
-5
-4
-3
-2
-3
-4
-5
-7
-9
-11
-12
-12
-12
-11
-10
-9
-9
-8
-8
-8
-8
-8
-7
-7
-7
-6
-6
-7
-7
-7
-7
-6
-5
-5
-4
-4
-5
-6
-8
-9
-10
-11
-10
-9
-8
-7
-6
-6
-6
-8
-9
-11
-12
-13
-13
-12
-10
-9
-8
-7
-7
-7
-8
-8
-8
-9
-9
-9
-9
-10
-11
-13
-14
-14
-14
-12
-11
-9
-7
-6
-5
-6
-8
-10
-11
-13
-13
-13
-12
-10
-8
-6
-4
-3
-3
-3
-4
-4
-4
-3
-2
0
2
4
5
7
8
8
7
6
5
3
1
0
0
0
1
3
4
5
6
5
3
0
-3
-6
-8
-10
-11
-11
-11
-10
-10
-10
-11
-12
-14
-16
-17
-17
-17
-17
-15
-13
-12
-10
-9
-9
-10
-11
-13
-14
-15
-16
-16
-15
-13
-12
-10
-10
-11
-13
-16
-19
-23
-25
-26
-23
-16
-5
13
35
61
88
115
139
157
166
165
154
134
107
76
44
16
-8
-24
-32
-34
-30
-24
-16
-10
-7
-6
-7
-11
-14
-17
-19
-19
-18
-15
-13
-11
-9
-9
-9
-11
-12
-13
-13
-13
-12
-11
-10
-9
-8
-8
-8
-9
-9
-9
-9
-9
-8
-7
-7
-7
-8
-9
-10
-11
-12
-12
-11
-9
-7
-4
-2
-1
0
0
-1
-2
-2
-2
-2
0
1
3
4
4
2
1
-2
-4
-5
-4
-3
0
3
6
9
11
11
10
9
8
8
8
9
11
14
16
19
20
22
22
23
24
25
26
28
29
30
32
32
33
34
36
37
40
42
45
48
50
52
52
52
52
51
51
51
51
52
54
55
57
58
58
57
56
54
51
48
45
43
40
37
35
32
30
26
23
20
16
12
9
6
4
3
2
1
0
0
-1
-2
-4
-5
-6
-8
-9
-10
-10
-11
-11
-11
-11
-10
-10
-10
-10
-10
-11
-13
-15
-17
-19
-21
-22
-23
-22
-21
-19
-17
-16
-15
-14
-14
-15
-16
-17
-18
-18
-17
-16
-14
-13
-11
-11
-11
-12
-14
-15
-17
-18
-18
-19
-18
-18
-18
-18
-18
-18
-18
-18
-17
-16
-14
-13
-12
-12
-12
-13
-14
-16
-17
-18
-19
-19
-18
-17
-16
-15
-14
-13
-12
-12
-12
-12
-12
-12
-11
-11
-10
-9
-8
-8
-7
-8
-9
-10
-12
-14
-15
-16
-17
-18
-17
-17
-16
-15
-14
-13
-12
-12
-12
-12
-13
-14
-15
-16
-17
-16
-15
-14
-12
-10
-9
-9
-9
-11
-13
-15
-17
-18
-19
-18
-17
-15
-13
-12
-12
-12
-12
-13
-14
-14
-14
-14
-14
-13
-13
-14
-15
-16
-17
-19
-19
-19
-18
-16
-14
-12
-10
-9
-9
-10
-11
-12
-13
-15
-15
-15
-15
-14
-13
-12
-11
-10
-9
-9
-9
-9
-9
-9
-9
-9
-9
-9
-9
-9
-10
-10
-9
-9
-7
-6
-4
-3
-1
0
0
0
-1
-2
-3
-4
-4
-4
-3
-2
-1
0
0
0
-1
-2
-4
-6
-7
-9
-10
-11
-11
-11
-11
-11
-11
-11
-11
-11
-11
-11
-11
-12
-12
-13
-14
-16
-18
-20
-21
-22
-22
-21
-19
-17
-14
-12
-12
-12
-13
-15
-18
-20
-21
-23
-24
-24
-24
-24
-22
-17
-8
6
25
50
78
107
135
157
170
173
165
146
120
88
56
26
1
-16
-27
-30
-29
-24
-18
-13
-9
-7
-6
-6
-7
-8
-9
-10
-10
-10
-10
-10
-11
-12
-13
-14
-15
-15
-14
-13
-12
-10
-9
-9
-9
-9
-10
-10
-11
-11
-11
-10
-9
-8
-7
-6
-5
-5
-4
-4
-4
-5
-6
-6
-7
-8
-9
-9
-9
-8
-6
-5
-3
-2
-1
0
0
0
0
0
1
1
1
1
1
0
-1
-2
-2
-2
-1
1
4
6
9
11
13
14
14
13
13
13
13
14
15
17
18
20
21
22
24
25
27
30
32
34
35
36
37
37
38
39
40
43
46
50
54
57
58
59
58
56
53
51
50
49
49
50
52
53
53
53
51
48
44
40
36
32
29
26
25
23
22
20
19
17
15
13
11
9
7
5
3
0
-2
-4
-5
-6
-7
-6
-6
-5
-5
-5
-6
-8
-10
-12
-14
-15
-16
-16
-16
-15
-14
-14
-14
-14
-15
-15
-15
-15
-14
-13
-12
-11
-11
-12
-13
-15
-16
-17
-18
-18
-17
-17
-16
-16
-17
-18
-19
-19
-20
-20
-19
-18
-17
-16
-15
-15
-16
-16
-17
-17
-16
-15
-14
-12
-11
-10
-10
-10
-11
-13
-14
-15
-15
-14
-13
-12
-11
-11
-11
-12
-12
-13
-14
-14
-14
-13
-12
-12
-11
-11
-12
-12
-13
-13
-12
-11
-10
-9
-8
-8
-9
-10
-11
-13
-13
-13
-12
-11
-9
-8
-8
-8
-10
-12
-15
-17
-18
-18
-18
-16
-14
-13
-11
-10
-10
-10
-11
-12
-12
-13
-14
-14
-14
-15
-15
-15
-15
-15
-14
-13
-11
-10
-9
-8
-8
-9
-10
-12
-13
-14
-14
-14
-14
-13
-12
-12
-11
-11
-11
-11
-11
-11
-10
-9
-7
-6
-6
-6
-6
-7
-8
-9
-10
-10
-10
-10
-11
-11
-12
-13
-15
-16
-17
-17
-17
-15
-13
-11
-9
-8
-7
-7
-7
-7
-7
-7
-7
-7
-7
-8
-8
-9
-9
-10
-10
-9
-8
-6
-5
-4
-4
-6
-8
-11
-13
-15
-17
-16
-15
-12
-9
-7
-6
-5
-6
-8
-10
-12
-13
-13
-12
-11
-9
-8
-7
-7
-7
-8
-9
-10
-10
-10
-10
-10
-11
-11
-12
-13
-13
-13
-12
-10
-8
-7
-5
-4
-3
-3
-3
-4
-5
-6
-6
-7
-8
-10
-11
-12
-12
-12
-11
-9
-6
-4
-2
0
0
-1
-3
-5
-7
-9
-9
-9
-8
-6
-3
-1
1
3
4
5
6
7
7
7
7
6
5
4
2
0
-1
-2
-3
-3
-3
-2
-3
-4
-5
-7
-9
-11
-13
-14
-14
-13
-13
-11
-10
-10
-9
-9
-9
-9
-10
-10
-10
-10
-11
-12
-13
-14
-15
-15
-16
-15
-15
-14
-14
-14
-14
-14
-13
-13
-11
-10
-8
-7
-7
-8
-10
-14
-16
-17
-15
-7
6
26
49
76
102
125
142
150
148
137
117
91
62
33
7
-14
-28
-36
-38
-37
-32
-27
-23
-19
-17
-16
-16
-16
-16
-15
-14
-13
-11
-9
-8
-7
-5
-4
-2
-1
1
1
1
1
-1
-2
-4
-4
-4
-3
-2
1
3
5
6
6
6
6
6
5
6
6
7
7
7
6
5
5
5
6
8
11
13
16
17
17
16
13
11
8
6
6
7
10
13
17
20
22
23
23
22
21
21
20
20
21
22
23
23
24
24
24
24
25
26
28
30
31
33
33
32
31
29
28
27
28
31
35
40
45
50
54
56
58
58
58
58
58
58
59
60
61
62
62
62
63
63
62
63
62
62
62
61
59
57
55
52
50
48
45
43
41
39
36
32
28
24
20
16
13
11
9
8
7
6
4
1
-1
-4
-7
-8
-9
-9
-8
-7
-6
-5
-5
-6
-8
-11
-13
-15
-17
-17
-18
-17
-17
-17
-17
-17
-18
-19
-19
-19
-18
-17
-17
-16
-15
-15
-16
-16
-16
-16
-16
-15
-14
-13
-13
-13
-13
-15
-16
-18
-18
-18
-18
-16
-14
-12
-9
-8
-7
-7
-7
-8
-8
-9
-9
-9
-9
-9
-8
-8
-7
-7
-7
-8
-8
-9
-9
-9
-9
-9
-9
-8
-8
-7
-5
-4
-3
-1
0
0
0
0
0
-1
-2
-4
-5
-5
-6
-6
-7
-7
-7
-6
-6
-6
-5
-5
-5
-4
-4
-4
-3
-3
-4
-4
-4
-5
-6
-6
-7
-8
-9
-10
-11
-12
-12
-12
-11
-11
-10
-9
-8
-8
-8
-8
-8
-8
-9
-9
-9
-9
-8
-8
-9
-9
-10
-11
-12
-12
-12
-12
-11
-9
-7
-5
-3
-2
-3
-4
-6
-9
-13
-16
-18
-20
-20
-19
-17
-14
-11
-8
-5
-3
-1
-1
-1
-2
-3
-5
-7
-8
-9
-10
-9
-8
-6
-5
-3
-2
-1
-2
-3
-6
-8
-10
-12
-12
-12
-10
-8
-6
-4
-3
-3
-3
-4
-5
-5
-5
-5
-4
-2
-1
-1
-1
-1
-2
-3
-4
-4
-5
-6
-7
-7
-8
-8
-8
-9
-9
-9
-9
-10
-10
-11
-12
-12
-12
-11
-10
-8
-6
-4
-3
-2
-2
-3
-4
-5
-6
-6
-6
-5
-4
-3
-2
-2
-2
-3
-3
-3
-2
-2
-1
0
0
0
-2
-3
-5
-6
-6
-5
-4
-1
1
3
4
5
4
3
2
0
0
0
1
2
3
4
4
4
3
3
3
4
6
8
9
10
9
6
2
-3
-8
-13
-16
-17
-17
-15
-12
-9
-7
-7
-7
-9
-11
-13
-15
-16
-16
-15
-14
-14
-13
-14
-15
-17
-18
-19
-20
-19
-18
-17
-15
-14
-14
-15
-17
-20
-22
-25
-26
-27
-25
-21
-13
-2
15
36
62
90
119
145
166
179
181
172
153
127
95
62
32
8
-9
-19
-21
-19
-14
-9
-6
-5
-7
-10
-15
-20
-23
-24
-23
-21
-18
-15
-13
-13
-13
-14
-16
-18
-20
-20
-20
-19
-18
-17
-17
-17
-18
-19
-21
-22
-22
-22
-21
-20
-20
-19
-19
-20
-20
-21
-21
-20
-19
-16
-14
-12
-11
-11
-12
-13
-15
-16
-16
-16
-15
-13
-11
-10
-8
-8
-8
-9
-10
-11
-11
-10
-9
-8
-6
-4
-3
-2
-2
-2
-3
-3
-3
-4
-4
-3
-2
-1
0
1
1
2
2
3
3
4
5
7
10
12
15
17
19
19
19
18
17
17
17
19
22
26
30
35
38
40
41
40
38
37
35
34
35
36
37
39
40
41
40
39
36
33
30
26
23
20
17
15
14
12
11
10
8
6
4
1
-2
-5
-8
-10
-12
-13
-13
-13
-13
-12
-12
-13
-13
-14
-16
-17
-18
-18
-18
-18
-18
-18
-18
-19
-19
-20
-20
-21
-21
-21
-21
-20
-20
-20
-19
-19
-20
-20
-20
-20
-20
-20
-20
-20
-21
-22
-23
-25
-27
-29
-30
-31
-30
-28
-25
-21
-18
-15
-12
-11
-12
-13
-15
-18
-21
-23
-24
-24
-24
-24
-23
-22
-22
-21
-21
-21
-20
-20
-19
-18
-17
-17
-17
-17
-18
-19
-19
-19
-19
-18
-16
-14
-12
-11
-10
-9
-9
-8
-8
-8
-9
-9
-9
-10
-10
-10
-10
-10
-9
-8
-7
-6
-5
-4
-3
-3
-4
-4
-4
-5
-5
-6
-6
-7
-7
-8
-8
-9
-9
-8
-7
-6
-5
-4
-3
-2
-1
0
1
2
3
3
3
2
0
-1
-3
-5
-6
-6
-6
-5
-3
-2
-1
-1
-1
-2
-2
-3
-4
-5
-4
-4
-3
-2
-1
0
1
1
1
0
-1
-3
-5
-6
-8
-9
-8
-7
-5
-3
0
2
3
3
2
0
-1
-3
-3
-3
-3
-1
0
0
0
0
-1
-3
-3
-4
-3
-2
-1
1
2
3
3
2
0
-2
-4
-5
-6
-6
-5
-5
-3
-2
-1
0
1
1
1
0
-1
-2
-3
-4
-4
-4
-2
-1
1
3
5
6
5
5
3
2
0
0
0
1
2
3
5
6
7
7
7
7
7
7
8
9
10
11
11
11
10
9
8
7
6
5
5
5
4
3
2
1
-1
-3
-5
-7
-8
-8
-8
-8
-7
-8
-8
-9
-10
-11
-11
-11
-10
-8
-7
-5
-4
-4
-5
-6
-8
-10
-12
-14
-14
-15
-14
-14
-13
-13
-13
-13
-13
-14
-15
-17
-19
-21
-22
-19
-11
3
25
53
87
122
155
182
197
199
187
161
126
87
47
12
-16
-33
-41
-41
-36
-28
-20
-15
-12
-11
-11
-12
-13
-13
-12
-11
-10
-10
-10
-11
-12
-12
-12
-11
-9
-8
-6
-5
-5
-5
-7
-8
-9
-9
-9
-8
-7
-6
-5
-5
-5
-5
-5
-5
-4
-3
-2
-1
0
0
-1
-1
-2
-2
-1
1
3
5
6
7
7
6
4
2
0
-1
-1
1
3
6
10
13
16
18
19
21
22
22
23
23
24
23
23
22
21
20
20
20
22
25
28
31
35
37
39
40
40
39
39
38
38
39
41
43
46
48
51
53
55
56
57
58
58
59
60
60
61
61
62
62
62
62
62
62
62
62
62
62
62
61
59
56
53
48
43
38
32
27
23
19
17
15
13
12
11
9
6
3
0
-4
-8
-11
-13
-15
-15
-15
-14
-14
-14
-14
-15
-17
-18
-20
-21
-22
-23
-23
-24
-24
-25
-27
-29
-30
-32
-32
-33
-32
-32
-31
-30
-30
-30
-30
-30
-31
-31
-31
-31
-31
-31
-31
-31
-32
-32
-33
-33
-33
-33
-32
-32
-31
-31
-30
-30
-30
-30
-30
-30
-30
-30
-30
-30
-30
-30
-30
-30
-30
-29
-28
-27
-26
-24
-22
-19
-17
-15
-14
-14
-14
-16
-18
-21
-25
-27
-29
-30
-30
-28
-26
-24
-22
-21
-21
-21
-22
-23
-24
-25
-24
-23
-22
-20
-19
-18
-18
-18
-20
-21
-22
-23
-24
-24
-23
-22
-21
-19
-18
-17
-16
-16
-17
-18
-20
-22
-25
-27
-28
-29
-28
-26
-24
-20
-17
-14
-12
-12
-13
-14
-17
-20
-22
-23
-24
-23
-22
-20
-19
-18
-18
-19
-21
-22
-24
-25
-26
-25
-24
-22
-21
-19
-18
-17
-17
-16
-15
-15
-14
-14
-14
-14
-15
-17
-19
-21
-22
-23
-23
-21
-19
-16
-14
-11
-10
-9
-9
-8
-8
-8
-6
-5
-3
-1
0
1
1
0
-1
-2
-2
-3
-2
-2
-1
0
1
1
0
0
-1
-1
-1
-1
-1
-1
-2
-3
-4
-5
-6
-6
-7
-7
-6
-6
-5
-5
-6
-6
-7
-8
-8
-7
-6
-4
-2
-1
0
0
-2
-4
-8
-11
-14
-17
-19
-19
-17
-12
-3
11
29
52
79
108
136
159
175
181
176
160
135
103
68
36
8
-12
-24
-28
-26
-20
-13
-7
-3
-2
-2
-3
-5
-6
-6
-4
-3
-1
-1
-1
-2
-3
-5
-6
-7
-7
-6
-5
-4
-4
-5
-6
-8
-9
-9
-9
-7
-5
-3
-1
-1
-1
-2
-5
-7
-8
-9
-8
-6
-3
0
3
6
7
7
6
4
2
0
-2
-3
-2
-1
1
4
7
10
12
13
13
12
11
8
6
3
2
2
3
4
7
10
12
14
16
16
16
16
16
16
17
19
21
23
26
29
31
33
34
35
37
37
38
39
40
41
42
43
45
48
51
54
57
60
62
64
64
64
63
62
61
61
61
62
63
63
64
63
62
61
59
57
55
53
51
49
46
44
40
36
32
28
24
20
17
15
12
10
9
7
5
3
1
-1
-2
-3
-4
-5
-7
-8
-11
-13
-16
-18
-20
-21
-21
-20
-19
-17
-15
-13
-13
-13
-14
-16
-17
-18
-19
-19
-18
-17
-16
-16
-15
-16
-17
-19
-20
-22
-24
-25
-26
-26
-27
-27
-28
-28
-29
-29
-30
-30
-29
-29
-28
-27
-27
-27
-27
-27
-27
-28
-28
-29
-30
-31
-32
-32
-32
-32
-31
-30
-28
-27
-26
-25
-26
-27
-28
-30
-31
-31
-30
-29
-27
-26
-25
-25
-26
-28
-30
-31
-32
-32
-31
-30
-29
-29
-29
-30
-32
-33
-34
-34
-34
-32
-30
-27
-26
-25
-26
-28
-31
-34
-37
-38
-38
-37
-35
-31
-28
-26
-24
-23
-24
-25
-26
-27
-28
-28
-27
-26
-25
-24
-23
-22
-21
-20
-19
-18
-16
-15
-13
-12
-11
-10
-10
-10
-10
-10
-10
-10
-9
-9
-10
-10
-11
-12
-14
-15
-16
-16
-16
-15
-15
-15
-15
-16
-17
-18
-19
-20
-20
-20
-18
-17
-16
-14
-13
-13
-12
-12
-11
-11
-11
-11
-12
-12
-13
-14
-15
-15
-15
-14
-12
-11
-10
-9
-9
-10
-11
-13
-16
-19
-21
-24
-25
-24
-21
-13
0
19
45
75
109
142
170
190
198
194
178
151
117
80
45
16
-6
-20
-25
-25
-21
-16
-11
-9
-8
-10
-12
-15
-17
-19
-19
-18
-16
-14
-12
-10
-9
-8
-7
-6
-6
-6
-7
-7
-7
-8
-7
-7
-6
-5
-4
-4
-4
-4
-4
-5
-5
-5
-4
-4
-3
-3
-3
-4
-5
-6
-8
-9
-10
-10
-9
-7
-4
-1
1
2
3
2
0
-2
-4
-5
-6
-5
-4
-1
1
3
4
4
4
4
3
3
3
3
5
6
8
9
10
11
12
13
15
17
20
23
27
29
32
33
33
33
32
32
33
35
37
41
45
49
51
53
54
54
54
54
56
58
61
65
68
70
70
69
67
63
60
57
56
56
58
60
61
62
60
57
53
47
41
36
32
28
26
24
22
20
17
14
11
8
6
5
3
3
2
1
-1
-2
-4
-5
-6
-7
-7
-7
-7
-7
-8
-9
-11
-13
-15
-15
-15
-14
-13
-11
-9
-8
-7
-7
-7
-7
-8
-9
-9
-10
-10
-10
-10
-10
-10
-10
-10
-10
-11
-11
-13
-14
-16
-17
-18
-18
-18
-18
-17
-16
-16
-16
-17
-18
-19
-20
-20
-20
-19
-18
-17
-16
-14
-14
-14
-14
-15
-16
-17
-17
-18
-18
-19
-19
-19
-19
-19
-19
-18
-18
-18
-17
-16
-15
-13
-12
-12
-11
-12
-12
-14
-15
-17
-18
-18
-18
-17
-15
-13
-12
-11
-10
-11
-12
-14
-15
-16
-16
-15
-13
-12
-10
-9
-10
-11
-14
-18
-21
-23
-25
-24
-23
-20
-16
-12
-9
-7
-6
-6
-7
-8
-8
-9
-9
-9
-9
-10
-11
-13
-15
-17
-18
-18
-17
-15
-12
-10
-8
-7
-7
-8
-10
-12
-15
-16
-17
-17
-16
-16
-16
-16
-17
-18
-20
-21
-21
-20
-18
-15
-12
-9
-6
-4
-3
-2
-2
-3
-3
-4
-4
-5
-5
-4
-4
-4
-3
-2
-2
-1
-1
-2
-3
-5
-8
-10
-13
-15
-16
-16
-16
-16
-16
-16
-17
-18
-20
-22
-24
-25
-26
-25
-24
-21
-19
-16
-15
-14
-14
-15
-16
-18
-19
-20
-21
-21
-21
-20
-20
-20
-20
-20
-19
-19
-19
-20
-21
-22
-24
-26
-26
-23
-15
-1
20
46
77
110
140
165
181
185
178
159
132
99
65
34
8
-11
-21
-25
-24
-20
-15
-10
-7
-7
-8
-10
-12
-14
-14
-14
-13
-11
-10
-9
-9
-9
-10
-11
-12
-12
-12
-11
-10
-9
-8
-7
-7
-8
-9
-11
-12
-14
-14
-15
-14
-13
-12
-11
-11
-10
-11
-11
-11
-12
-12
-11
-10
-9
-8
-6
-5
-3
-3
-3
-3
-3
-4
-5
-5
-5
-4
-3
-1
1
3
4
6
7
7
7
7
7
7
7
7
6
6
5
5
5
4
5
6
8
11
14
17
20
23
24
25
26
26
26
26
26
26
27
28
29
30
32
33
34
36
38
40
43
46
48
50
51
52
52
51
50
49
48
47
46
45
44
44
43
42
42
41
39
37
34
30
25
20
16
12
9
7
5
5
4
3
2
1
-1
-4
-5
-6
-6
-6
-4
-3
-2
-2
-4
-6
-10
-14
-18
-22
-24
-24
-23
-21
-18
-15
-13
-12
-12
-13
-14
-16
-17
-18
-18
-17
-16
-15
-14
-13
-14
-15
-18
-20
-22
-24
-24
-24
-22
-20
-18
-17
-16
-16
-17
-19
-20
-21
-21
-21
-20
-19
-18
-18
-18
-19
-19
-20
-19
-18
-17
-16
-15
-15
-16
-19
-22
-25
-27
-28
-27
-24
-20
-16
-12
-10
-10
-11
-15
-19
-24
-27
-28
-28
-26
-23
-19
-15
-12
-11
-10
-10
-11
-12
-13
-13
-13
-12
-12
-11
-11
-10
-10
-9
-8
-7
-6
-5
-3
-2
-2
-1
-1
-1
-2
-2
-3
-4
-5
-5
-5
-5
-5
-4
-3
-3
-3
-3
-5
-6
-8
-10
-11
-12
-11
-10
-8
-6
-4
-4
-4
-5
-7
-9
-11
-12
-12
-10
-8
-5
-1
1
3
4
3
2
0
-2
-3
-5
-6
-7
-7
-8
-8
-8
-8
-7
-6
-5
-4
-4
-4
-5
-6
-9
-12
-14
-17
-19
-20
-20
-21
-21
-22
-23
-25
-27
-28
-28
-27
-25
-22
-19
-16
-14
-13
-14
-16
-19
-21
-24
-25
-25
-24
-22
-20
-18
-17
-17
-18
-20
-22
-24
-26
-28
-29
-30
-31
-30
-27
-21
-10
6
27
54
83
112
139
159
170
171
160
140
113
82
51
23
1
-13
-20
-22
-19
-13
-8
-5
-4
-5
-8
-13
-17
-21
-23
-23
-23
-21
-18
-15
-12
-9
-7
-6
-6
-6
-7
-8
-9
-9
-9
-9
-8
-8
-8
-8
-9
-10
-12
-13
-13
-13
-11
-9
-7
-5
-4
-3
-3
-4
-5
-5
-5
-4
-2
0
2
3
3
2
0
-3
-6
-7
-8
-7
-5
-2
0
2
2
1
0
-1
-1
0
2
5
9
12
14
15
14
12
9
7
6
7
9
13
17
20
23
24
24
24
22
21
21
22
25
28
31
35
38
40
41
41
41
41
42
42
44
45
47
48
49
50
51
52
52
53
55
56
57
58
58
57
55
53
50
47
43
40
38
35
34
32
30
28
25
23
20
17
15
13
12
11
10
9
8
6
3
0
-2
-4
-5
-5
-4
-2
-1
1
1
1
0
-2
-5
-7
-8
-9
-9
-8
-6
-4
-2
-1
1
1
1
-1
-2
-4
-7
-9
-11
-12
-12
-12
-11
-9
-7
-5
-3
-2
-1
-1
-2
-3
-5
-6
-8
-10
-11
-12
-12
-12
-11
-10
-8
-7
-6
-5
-6
-6
-8
-9
-10
-10
-10
-9
-8
-6
-5
-5
-6
-7
-9
-11
-12
-13
-13
-11
-10
-8
-6
-5
-4
-5
-6
-8
-9
-11
-11
-12
-12
-11
-11
-10
-9
-8
-7
-6
-6
-6
-7
-8
-10
-12
-14
-15
-15
-14
-12
-9
-6
-3
-2
-2
-3
-5
-7
-10
-12
-14
-14
-13
-11
-10
-8
-8
-8
-8
-10
-12
-14
-16
-17
-17
-17
-16
-15
-13
-12
-11
-11
-11
-11
-11
-11
-12
-12
-12
-12
-13
-13
-13
-14
-14
-14
-13
-12
-11
-10
-9
-8
-8
-8
-9
-10
-10
-10
-10
-9
-8
-7
-7
-7
-8
-9
-12
-14
-16
-18
-18
-17
-14
-11
-8
-6
-5
-5
-7
-10
-13
-16
-18
-20
-19
-18
-15
-12
-9
-7
-6
-7
-9
-11
-14
-16
-18
-19
-19
-18
-16
-14
-11
-9
-8
-7
-6
-6
-7
-7
-8
-8
-8
-8
-7
-6
-5
-4
-3
-1
0
0
0
0
0
0
-1
-1
-1
-2
-2
-2
-3
-3
-4
-6
-7
-8
-10
-11
-12
-14
-14
-15
-16
-17
-18
-19
-19
-20
-20
-20
-19
-18
-16
-14
-13
-12
-12
-12
-12
-13
-15
-16
-17
-17
-17
-16
-16
-15
-15
-15
-15
-16
-17
-18
-20
-21
-21
-20
-17
-10
2
19
41
67
96
124
148
166
175
174
162
142
114
84
53
26
5
-10
-19
-21
-20
-16
-12
-8
-6
-5
-5
-6
-7
-8
-8
-9
-9
-9
-10
-10
-11
-11
-12
-13
-14
-15
-16
-17
-17
-16
-15
-12
-9
-6
-3
-1
0
-1
-2
-4
-6
-7
-8
-9
-9
-9
-8
-9
-10
-10
-11
-12
-11
-10
-8
-6
-4
-3
-3
-3
-5
-7
-8
-9
-9
-8
-6
-4
-3
-2
-2
-2
-3
-4
-5
-4
-3
-1
1
3
6
7
8
9
9
9
9
10
12
13
15
17
19
20
21
21
21
21
21
21
21
21
22
23
25
27
30
32
35
37
39
40
41
41
42
42
43
44
45
47
47
48
47
46
45
44
43
42
42
42
42
42
41
38
35
32
28
24
20
17
15
14
13
12
10
8
6
3
0
-2
-5
-6
-7
-7
-7
-6
-6
-5
-5
-5
-6
-6
-6
-6
-7
-7
-9
-10
-12
-14
-16
-17
-17
-17
-16
-14
-12
-11
-11
-11
-12
-13
-15
-17
-18
-18
-18
-18
-17
-15
-14
-13
-12
-12
-12
-13
-13
-14
-15
-16
-17
-17
-17
-16
-15
-13
-11
-9
-8
-8
-8
-9
-10
-11
-13
-14
-14
-14
-14
-14
-13
-13
-13
-13
-12
-12
-11
-11
-10
-11
-11
-12
-13
-14
-15
-14
-13
-11
-9
-6
-4
-3
-4
-5
-6
-8
-9
-10
-10
-9
-8
-7
-6
-6
-7
-8
-10
-12
-13
-13
-13
-12
-10
-9
-7
-6
-6
-6
-7
-7
-8
-8
-8
-9
-9
-9
-9
-8
-8
-7
-6
-5
-4
-3
-3
-4
-5
-6
-8
-10
-11
-11
-11
-10
-10
-9
-8
-8
-7
-7
-6
-5
-3
-2
-2
-2
-3
-5
-7
-9
-10
-11
-10
-9
-8
-6
-5
-4
-5
-6
-7
-8
-9
-9
-8
-7
-5
-4
-4
-4
-5
-7
-8
-9
-10
-10
-10
-10
-9
-9
-10
-10
-11
-11
-11
-10
-9
-7
-6
-5
-5
-5
-5
-6
-6
-6
-6
-5
-4
-4
-3
-3
-4
-5
-7
-8
-9
-9
-9
-9
-8
-8
-7
-6
-6
-5
-4
-4
-3
-3
-3
-4
-5
-6
-8
-9
-9
-10
-9
-8
-7
-6
-6
-5
-5
-6
-6
-7
-8
-9
-9
-10
-11
-11
-11
-11
-10
-9
-7
-5
-3
-1
0
0
-1
-2
-5
-7
-9
-11
-12
-11
-11
-9
-8
-7
-6
-6
-6
-6
-6
-5
-4
-2
-1
0
1
0
-1
-2
-3
-4
-4
-3
-1
1
3
5
6
6
6
5
3
2
1
1
0
0
-1
-2
-3
-5
-6
-8
-9
-10
-9
-8
-7
-6
-5
-5
-5
-6
-7
-9
-10
-11
-12
-12
-12
-12
-12
-11
-11
-11
-11
-11
-11
-11
-11
-11
-10
-10
-10
-9
-10
-11
-12
-14
-17
-19
-20
-19
-14
-6
8
26
48
73
99
124
144
158
163
159
146
125
99
69
40
14
-7
-22
-29
-31
-27
-22
-15
-10
-6
-5
-6
-8
-10
-12
-13
-13
-12
-11
-10
-9
-9
-10
-10
-11
-10
-9
-8
-6
-4
-3
-3
-4
-5
-7
-8
-9
-9
-9
-8
-6
-5
-5
-4
-4
-4
-4
-3
-2
-1
0
-1
-2
-4
-7
-10
-12
-13
-12
-10
-7
-3
1
4
5
4
3
1
-2
-3
-3
-2
0
2
5
7
9
9
8
7
6
5
5
6
8
10
12
14
15
16
17
17
17
18
19
20
21
23
24
25
26
27
28
29
29
30
32
33
35
37
38
40
42
44
45
47
48
50
51
51
52
52
52
51
50
50
49
49
48
48
48
47
46
44
42
39
36
33
30
27
24
22
20
18
17
14
12
10
7
5
3
1
0
0
-1
-1
-2
-3
-4
-6
-8
-10
-12
-13
-14
-14
-14
-13
-13
-13
-13
-13
-13
-13
-12
-12
-11
-10
-9
-9
-9
-9
-11
-12
-14
-15
-16
-16
-16
-15
-14
-13
-13
-13
-14
-15
-17
-18
-18
-18
-17
-16
-14
-13
-13
-13
-13
-14
-15
-15
-15
-13
-11
-9
-8
-7
-7
-8
-10
-13
-15
-17
-17
-17
-15
-14
-12
-11
-10
-10
-10
-10
-9
-9
-8
-7
-6
-6
-6
-7
-8
-10
-11
-12
-12
-12
-12
-11
-10
-10
-10
-10
-11
-12
-12
-12
-12
-12
-12
-12
-12
-13
-13
-14
-14
-14
-13
-13
-12
-12
-12
-12
-12
-13
-13
-13
-12
-11
-10
-8
-7
-6
-6
-7
-8
-10
-11
-13
-14
-14
-14
-13
-12
-11
-10
-9
-9
-9
-9
-10
-11
-12
-13
-14
-14
-13
-12
-11
-10
-9
-9
-9
-10
-12
-14
-16
-17
-17
-17
-16
-14
-12
-9
-8
-6
-6
-6
-7
-8
-10
-11
-13
-14
-15
-15
-15
-14
-13
-12
-11
-10
-10
-10
-10
-10
-10
-10
-10
-9
-9
-9
-9
-10
-12
-14
-15
-16
-17
-16
-15
-14
-13
-12
-12
-13
-13
-14
-14
-13
-13
-11
-10
-9
-9
-9
-10
-11
-11
-12
-12
-11
-11
-10
-10
-11
-12
-13
-15
-16
-16
-15
-13
-11
-8
-6
-5
-6
-7
-9
-12
-14
-16
-17
-16
-15
-14
-13
-11
-11
-10
-9
-8
-7
-6
-5
-4
-3
-3
-4
-5
-6
-7
-8
-8
-8
-8
-7
-7
-8
-8
-8
-9
-9
-8
-7
-5
-4
-3
-2
-2
-3
-3
-3
-3
-2
0
2
4
4
4
1
-2
-5
-9
-11
-13
-12
-11
-8
-6
-4
-3
-4
-5
-7
-9
-11
-12
-12
-12
-11
-11
-11
-10
-10
-10
-10
-9
-9
-8
-8
-9
-10
-12
-15
-17
-19
-19
-18
-15
-12
-8
-6
-4
-5
-7
-11
-15
-20
-23
-24
-21
-13
0
18
40
67
94
121
144
161
170
168
157
138
112
83
54
28
8
-7
-14
-16
-15
-10
-6
-2
0
0
-2
-5
-8
-11
-13
-15
-15
-15
-14
-13
-12
-11
-11
-10
-10
-10
-10
-10
-10
-9
-9
-9
-8
-8
-8
-8
-7
-7
-7
-7
-6
-6
-5
-5
-5
-5
-5
-5
-6
-6
-5
-4
-3
-2
-1
-1
-1
-2
-3
-4
-6
-7
-7
-7
-6
-4
-2
1
3
5
6
6
6
6
6
6
6
8
9
11
13
13
13
13
12
10
9
8
8
9
11
13
16
18
20
22
23
24
25
26
27
28
30
31
32
34
35
37
39
41
43
46
48
49
50
50
50
50
49
49
50
51
53
54
54
54
53
52
50
48
47
45
44
43
41
39
36
31
27
22
18
15
13
13
13
14
14
13
11
8
5
2
-1
-3
-4
-4
-3
-3
-2
-1
-2
-2
-3
-4
-4
-5
-6
-7
-8
-9
-10
-10
-10
-9
-7
-5
-4
-3
-2
-2
-3
-5
-7
-8
-10
-11
-12
-13
-14
-15
-16
-16
-16
-15
-13
-11
-8
-6
-5
-4
-4
-6
-7
-9
-11
-12
-12
-11
-10
-9
-8
-7
-7
-7
-7
-8
-9
-10
-10
-11
-11
-10
-9
-8
-6
-4
-2
-2
-2
-3
-5
-8
-11
-12
-13
-12
-9
-5
-2
1
3
3
2
-1
-4
-7
-9
-10
-9
-7
-4
-2
-1
-1
-2
-4
-5
-7
-8
-8
-7
-6
-4
-4
-3
-4
-4
-5
-6
-6
-6
-5
-4
-3
-2
-2
-1
-1
-2
-2
-2
-2
-2
-3
-3
-4
-4
-5
-5
-5
-5
-4
-4
-4
-4
-5
-6
-7
-9
-9
-9
-7
-5
-2
1
3
5
5
4
2
0
-3
-6
-7
-8
-8
-6
-4
-2
0
2
2
2
2
0
-1
-2
-2
-2
-2
-1
-1
0
0
0
0
-1
-2
-2
-3
-2
-2
-1
0
1
2
1
1
0
-1
-2
-3
-3
-4
-3
-3
-3
-2
-2
-1
-1
0
0
1
1
2
2
2
2
2
3
3
3
4
4
3
2
0
-1
-3
-4
-5
-5
-4
-1
1
4
6
8
8
8
6
4
1
-1
-3
-4
-4
-4
-3
-1
0
1
2
2
2
2
1
1
1
1
2
2
2
2
3
3
3
2
2
1
0
0
-1
-2
-2
-1
-1
1
2
3
4
5
6
7
7
7
6
6
6
6
5
4
3
2
1
0
-1
-1
-1
-1
-1
-1
0
0
1
2
4
6
9
11
14
17
18
19
19
17
16
14
13
12
12
13
14
15
16
15
14
12
10
8
5
4
3
3
4
5
6
7
7
6
5
3
1
-1
-2
-3
-3
-3
-2
-2
-1
-1
-1
-1
-1
-1
-1
-1
0
0
1
2
2
2
1
0
-1
-3
-5
