-8
-5
-2
1
3
5
6
6
5
3
0
-3
-6
-7
-8
-7
-6
-4
-2
-1
0
-1
-2
-4
-5
-6
-5
-4
-2
0
1
1
0
-1
-4
-6
-7
-8
-8
-6
-4
-2
0
1
1
0
-2
-4
-5
-7
-8
-9
-10
-10
-10
-10
-10
-11
-11
-11
-12
-12
-12
-11
-11
-10
-9
-9
-8
-8
-9
-10
-11
-12
-14
-14
-15
-14
-14
-12
-11
-10
-9
-9
-9
-10
-10
-11
-11
-11
-11
-10
-10
-10
-11
-12
-13
-15
-16
-17
-17
-17
-16
-15
-15
-14
-14
-14
-14
-14
-14
-14
-14
-13
-13
-13
-13
-13
-13
-13
-14
-14
-14
-14
-14
-13
-12
-12
-11
-10
-10
-10
-10
-11
-12
-13
-14
-14
-14
-13
-12
-11
-10
-9
-9
-9
-9
-10
-11
-11
-11
-11
-11
-10
-10
-11
-11
-12
-13
-14
-15
-15
-14
-14
-13
-12
-11
-10
-10
-9
-9
-9
-8
-8
-7
-6
-5
-5
-4
-4
-4
-4
-5
-5
-6
-7
-8
-9
-11
-12
-13
-14
-14
-13
-12
-10
-9
-7
-6
-6
-6
-7
-9
-10
-12
-13
-15
-16
-17
-18
-19
-19
-19
-19
-19
-19
-18
-17
-17
-17
-18
-19
-20
-21
-22
-23
-23
-23
-24
-25
-28
-32
-37
-42
-47
-50
-50
-45
-36
-23
-5
16
40
66
94
123
154
186
218
248
273
290
297
291
272
241
199
151
102
56
17
-11
-29
-37
-38
-34
-28
-23
-20
-19
-19
-21
-22
-22
-21
-19
-17
-16
-15
-15
-16
-17
-18
-18
-17
-15
-13
-10
-8
-7
-7
-8
-10
-12
-13
-13
-13
-11
-9
-7
-5
-3
-3
-3
-4
-6
-8
-9
-9
-9
-8
-6
-4
-2
0
2
4
5
6
6
7
8
9
10
12
13
15
16
18
19
20
22
23
25
26
28
30
31
33
35
37
38
39
40
41
42
42
43
44
46
48
50
52
54
55
56
56
56
54
53
51
49
47
45
44
42
41
39
37
35
32
29
26
23
19
15
12
8
5
3
1
0
0
0
1
0
-1
-3
-5
-9
-12
-15
-17
-17
-17
-16
-14
-13
-12
-12
-12
-14
-15
-16
-17
-17
-16
-15
-14
-13
-13
-13
-14
-14
-15
-16
-16
-16
-15
-15
-14
-14
-13
-13
-13
-14
-14
-14
-14
-14
-14
-13
-13
-13
-12
-12
-12
-13
-14
-15
-16
-17
-17
-17
-16
-14
-12
-10
-9
-8
-8
-9
-11
-13
-16
-18
-19
-20
-20
-20
-20
-19
-18
-17
-16
-15
-13
-12
-11
-11
-12
-13
-15
-17
-19
-20
-19
-18
-16
-13
-10
-8
-7
-7
-9
-11
-14
-16
-18
-19
-18
-17
-16
-14
-13
-12
-12
-13
-14
-15
-16
-18
-19
-21
-21
-22
-22
-21
-20
-19
-17
-15
-13
-12
-12
-13
-14
-16
-18
-20
-21
-21
-20
-19
-18
-16
-15
-15
-15
-16
-17
-18
-19
-19
-19
-19
-18
-17
-17
-16
-16
-16
-16
-16
-16
-16
-16
-16
-16
-17
-18
-19
-19
-20
-20
-19
-18
-17
-16
-15
-15
-15
-16
-17
-18
-18
-18
-18
-18
-18
-17
-17
-18
-18
-19
-20
-20
-20
-20
-19
-18
-18
-17
-16
-16
-15
-15
-14
-14
-14
-14
-15
-15
-16
-16
-17
-17
-16
-16
-15
-14
-14
-15
-15
-16
-17
-17
-17
-17
-16
-16
-15
-15
-15
-15
-15
-15
-15
-14
-14
-13
-11
-11
-10
-10
-11
-11
-12
-13
-13
-12
-11
-9
-7
-5
-5
-4
-5
-6
-8
-10
-12
-12
-12
-12
-11
-9
-8
-6
-6
-5
-6
-6
-7
-8
-9
-10
-11
-13
-15
-17
-19
-21
-22
-23
-22
-21
-20
-19
-18
-18
-19
-20
-21
-22
-22
-21
-20
-19
-18
-19
-22
-27
-33
-39
-45
-47
-46
-40
-29
-13
6
27
50
75
101
129
159
191
224
254
281
299
306
300
281
248
205
158
109
64
28
1
-16
-25
-26
-24
-21
-18
-17
-17
-18
-19
-20
-20
-18
-16
-15
-14
-14
-14
-15
-17
-17
-18
-17
-16
-14
-13
-11
-11
-11
-11
-12
-12
-12
-12
-12
-12
-12
-12
-12
-11
-11
-10
-9
-7
-6
-6
-5
-5
-6
-6
-5
-5
-3
-2
1
3
5
6
7
7
7
8
8
10
12
14
16
18
20
21
22
22
22
23
25
27
30
33
36
38
40
42
43
43
44
44
45
46
47
48
49
49
49
49
48
48
49
49
50
50
49
48
46
42
38
34
30
27
24
22
21
20
19
18
17
15
12
9
6
3
0
-3
-6
-8
-10
-12
-14
-14
-15
-15
-14
-14
-13
-13
-13
-13
-13
-13
-14
-13
-13
-12
-12
-11
-11
-12
-13
-14
-16
-18
-19
-20
-20
-20
-19
-18
-17
-15
-14
-13
-13
-13
-13
-13
-14
-15
-15
-16
-16
-15
-15
-15
-15
-15
-15
-16
-18
-19
-21
-22
-22
-21
-20
-18
-16
-15
-14
-14
-15
-16
-18
-19
-20
-20
-19
-18
-16
-14
-13
-13
-13
-14
-15
-16
-17
-17
-17
-16
-15
-15
-14
-14
-14
-14
-14
-15
-16
-16
-17
-17
-18
-18
-18
-18
-17
-17
-16
-15
-14
-14
-13
-13
-13
-14
-14
-15
-15
-16
-16
-17
-18
-18
-19
-19
-19
-19
-19
-18
-17
-16
-15
-15
-15
-15
-16
-18
-19
-21
-22
-22
-22
-22
-21
-19
-18
-17
-16
-15
-15
-14
-14
-14
-15
-15
-16
-17
-18
-19
-19
-18
-17
-16
-15
-14
-13
-14
-15
-16
-18
-19
-20
-21
-20
-19
-18
-17
-17
-17
-17
-17
-18
-18
-17
-17
-16
-16
-17
-18
-20
-21
-23
-24
-24
-24
-22
-20
-18
-16
-14
-14
-14
-15
-16
-17
-18
-18
-18
-18
-17
-16
-16
-15
-15
-15
-16
-16
-16
-16
-16
-16
-17
-17
-17
-18
-18
-18
-18
-17
-17
-17
-17
-17
-16
-16
-15
-14
-14
-13
-13
-14
-15
-16
-18
-19
-20
-21
-20
-18
-16
-14
-11
-9
-8
-7
-6
-6
-5
-4
-3
-2
-2
-2
-3
-5
-8
-10
-11
-12
-11
-10
-7
-5
-3
-2
-3
-6
-9
-13
-16
-18
-19
-19
-18
-16
-15
-15
-16
-17
-19
-20
-21
-22
-21
-20
-19
-18
-18
-18
-18
-17
-17
-16
-16
-17
-19
-23
-29
-36
-44
-50
-53
-52
-46
-35
-18
2
26
51
78
107
136
167
198
230
260
286
304
312
308
290
259
218
170
121
74
34
4
-17
-27
-30
-28
-24
-20
-18
-17
-18
-20
-21
-21
-19
-17
-14
-12
-11
-11
-13
-15
-17
-19
-20
-19
-18
-16
-13
-12
-10
-10
-10
-11
-11
-12
-12
-11
-10
-9
-8
-7
-6
-5
-5
-4
-4
-4
-4
-4
-4
-3
-2
-1
0
1
2
2
3
3
3
4
5
7
9
11
14
16
18
19
19
19
19
19
19
21
24
27
31
35
39
41
43
43
43
42
42
42
42
43
44
46
47
48
48
49
49
50
51
52
53
53
53
52
50
48
44
41
38
36
34
31
29
26
23
20
16
12
9
6
5
4
4
3
2
1
-1
-4
-7
-9
-10
-11
-10
-9
-7
-6
-6
-7
-9
-11
-14
-16
-18
-18
-17
-16
-14
-12
-11
-11
-11
-12
-14
-16
-17
-17
-17
-17
-16
-16
-15
-14
-14
-14
-13
-14
-14
-14
-14
-15
-15
-16
-16
-16
-16
-16
-16
-16
-15
-15
-15
-14
-14
-14
-13
-13
-13
-13
-13
-14
-14
-15
-14
-14
-13
-12
-11
-10
-9
-9
-10
-11
-12
-13
-13
-14
-14
-14
-14
-14
-14
-14
-13
-13
-13
-12
-11
-11
-11
-11
-12
-13
-14
-16
-17
-17
-17
-16
-14
-13
-11
-9
-9
-9
-10
-11
-13
-14
-15
-15
-15
-15
-14
-14
-13
-13
-14
-14
-14
-14
-13
-12
-11
-11
-11
-12
-13
-14
-16
-18
-19
-19
-18
-17
-16
-14
-13
-13
-13
-14
-15
-16
-17
-18
-19
-19
-19
-19
-19
-18
-18
-16
-15
-14
-12
-11
-10
-10
-11
-12
-13
-15
-16
-16
-16
-16
-15
-14
-14
-14
-14
-15
-16
-17
-17
-17
-16
-15
-14
-13
-12
-12
-13
-14
-15
-17
-18
-18
-17
-16
-15
-13
-11
-10
-9
-9
-9
-10
-11
-12
-13
-13
-13
-13
-12
-11
-11
-11
-12
-13
-14
-15
-16
-17
-18
-18
-18
-17
-17
-16
-15
-14
-13
-13
-12
-11
-10
-10
-9
-9
-8
-8
-7
-7
-6
-6
-5
-4
-4
-4
-4
-5
-6
-7
-8
-9
-10
-10
-10
-9
-8
-7
-6
-5
-5
-5
-6
-7
-9
-10
-12
-14
-15
-16
-17
-18
-18
-17
-17
-16
-15
-15
-15
-16
-17
-19
-21
-22
-23
-23
-22
-20
-20
-20
-22
-26
-32
-40
-47
-52
-53
-50
-40
-25
-4
20
47
75
104
134
164
195
225
255
280
300
310
308
293
264
224
177
127
78
36
4
-18
-29
-32
-29
-24
-18
-14
-12
-12
-13
-15
-16
-16
-15
-14
-14
-14
-15
-16
-18
-19
-20
-19
-18
-16
-15
-13
-13
-13
-13
-14
-15
-15
-15
-14
-12
-11
-9
-8
-7
-7
-8
-8
-8
-8
-8
-8
-7
-6
-5
-4
-3
-2
-2
-1
-1
0
0
1
2
3
4
6
8
10
12
14
16
17
18
19
21
22
23
25
27
28
30
32
33
35
37
39
41
43
45
47
48
49
50
49
49
47
46
45
44
44
43
43
43
44
44
44
43
43
42
40
37
34
31
27
23
19
15
12
9
7
5
3
2
-1
-3
-5
-7
-9
-10
-11
-12
-12
-12
-13
-14
-16
-18
-19
-21
-23
-23
-23
-23
-22
-21
-20
-19
-18
-17
-17
-17
-17
-16
-16
-15
-15
-15
-15
-16
-18
-20
-21
-23
-24
-24
-24
-23
-21
-19
-18
-16
-16
-16
-18
-19
-20
-21
-22
-21
-21
-19
-18
-17
-17
-17
-18
-19
-20
-20
-20
-20
-19
-18
-17
-16
-16
-17
-18
-20
-21
-22
-22
-21
-20
-18
-17
-16
-15
-15
-16
-17
-18
-18
-19
-18
-18
-17
-16
-16
-15
-15
-15
-16
-16
-17
-17
-17
-17
-17
-16
-16
-16
-16
-16
-16
-16
-17
-17
-18
-18
-18
-18
-18
-17
-17
-16
-16
-16
-16
-17
-17
-17
-18
-18
-18
-19
-19
-19
-19
-19
-20
-19
-19
-19
-18
-18
-17
-17
-17
-18
-19
-21
-22
-23
-24
-25
-24
-24
-22
-21
-19
-17
-16
-16
-16
-16
-18
-19
-21
-22
-23
-24
-24
-24
-23
-22
-22
-21
-20
-20
-20
-20
-20
-20
-19
-19
-19
-18
-18
-18
-18
-18
-19
-20
-21
-21
-21
-21
-20
-19
-18
-18
-17
-18
-18
-19
-20
-21
-21
-21
-20
-19
-18
-16
-15
-14
-13
-13
-13
-13
-13
-13
-12
-12
-11
-10
-9
-9
-9
-10
-11
-12
-13
-14
-14
-14
-14
-13
-12
-11
-10
-10
-10
-10
-11
-11
-12
-13
-14
-15
-16
-18
-19
-20
-22
-22
-23
-23
-23
-23
-23
-23
-24
-25
-26
-27
-27
-26
-24
-21
-19
-18
-19
-22
-28
-35
-43
-50
-54
-55
-50
-41
-27
-10
11
34
58
84
111
141
173
206
239
269
293
308
311
299
274
237
191
140
91
47
12
-13
-27
-33
-32
-27
-22
-18
-17
-17
-19
-21
-23
-22
-20
-17
-14
-12
-11
-11
-13
-16
-19
-21
-22
-22
-20
-17
-14
-12
-11
-10
-11
-12
-14
-15
-16
-16
-15
-13
-12
-11
-10
-10
-10
-11
-11
-12
-12
-12
-10
-8
-6
-3
0
2
4
5
5
5
4
3
3
3
3
5
7
9
12
14
16
18
19
20
21
21
23
24
25
27
29
31
33
36
39
42
45
48
50
51
52
51
49
48
47
46
46
47
49
51
52
52
51
48
45
41
37
33
31
29
27
25
23
20
17
12
8
3
0
-3
-4
-5
-5
-4
-4
-5
-6
-7
-10
-12
-14
-16
-17
-18
-18
-19
-19
-19
-19
-19
-19
-19
-19
-18
-18
-18
-18
-19
-19
-19
-20
-20
-20
-20
-20
-19
-19
-18
-18
-17
-17
-16
-16
-16
-16
-17
-18
-19
-20
-20
-21
-20
-19
-18
-16
-13
-12
-11
-11
-12
-13
-16
-18
-21
-22
-23
-23
-22
-20
-18
-17
-15
-14
-14
-14
-15
-16
-16
-16
-16
-16
-15
-15
-14
-14
-14
-15
-15
-15
-15
-15
-14
-14
-13
-14
-14
-16
-17
-19
-20
-21
-21
-20
-18
-16
-14
-13
-12
-13
-14
-15
-17
-18
-18
-19
-18
-17
-17
-16
-15
-15
-15
-15
-15
-15
-15
-15
-15
-16
-18
-19
-21
-22
-22
-22
-20
-19
-17
-16
-15
-15
-15
-16
-17
-18
-18
-19
-19
-18
-18
-17
-17
-16
-16
-14
-13
-11
-9
-8
-7
-6
-7
-8
-9
-10
-11
-11
-11
-10
-10
-10
-10
-11
-13
-14
-16
-17
-16
-15
-13
-10
-7
-5
-5
-6
-8
-12
-16
-20
-23
-25
-26
-25
-24
-23
-22
-21
-22
-22
-24
-25
-26
-27
-27
-26
-25
-24
-22
-22
-22
-25
-28
-34
-40
-47
-54
-59
-61
-59
-52
-40
-24
-4
18
43
69
97
127
158
191
224
256
284
304
314
311
293
261
219
169
117
68
27
-4
-24
-34
-36
-33
-28
-24
-22
-21
-23
-25
-26
-27
-25
-23
-19
-17
-15
-14
-15
-17
-19
-21
-22
-21
-20
-18
-16
-15
-14
-14
-15
-16
-17
-18
-19
-18
-17
-15
-13
-12
-11
-10
-11
-11
-12
-13
-13
-12
-10
-8
-6
-5
-3
-3
-3
-4
-5
-6
-6
-6
-4
-2
1
4
7
10
12
13
14
14
15
16
18
20
23
26
29
31
32
33
34
34
35
36
37
39
42
45
48
51
53
53
53
52
50
48
46
44
43
42
41
40
39
38
36
33
30
26
22
17
14
10
8
6
4
4
3
1
0
-2
-4
-7
-10
-13
-15
-17
-19
-20
-21
-22
-22
-22
-22
-22
-22
-22
-22
-21
-21
-20
-20
-21
-21
-22
-22
-23
-24
-24
-24
-24
-24
-23
-23
-23
-22
-22
-23
-23
-23
-24
-24
-24
-24
-24
-24
-23
-22
-22
-21
-21
-21
-22
-22
-23
-23
-23
-24
-24
-24
-24
-24
-25
-25
-24
-24
-23
-22
-21
-20
-20
-20
-21
-22
-23
-23
-23
-23
-22
-21
-20
-20
-19
-20
-20
-22
-23
-23
-24
-24
-24
-24
-24
-24
-24
-25
-25
-25
-24
-23
-21
-20
-20
-20
-21
-23
-25
-27
-28
-29
-28
-26
-23
-20
-18
-17
-16
-16
-17
-18
-19
-20
-19
-18
-17
-15
-14
-14
-15
-16
-18
-19
-19
-19
-17
-14
-11
-8
-6
-5
-6
-8
-11
-14
-17
-20
-22
-22
-21
-19
-17
-15
-14
-13
-13
-14
-15
-16
-17
-18
-19
-19
-20
-21
-23
-24
-25
-26
-26
-27
-26
-26
-26
-26
-27
-27
-27
-27
-26
-25
-24
-22
-23
-25
-30
-37
-45
-54
-62
-66
-66
-61
-49
-33
-12
12
38
65
94
124
156
190
225
258
287
308
318
315
297
266
223
175
124
77
37
7
-13
-24
-28
-27
-25
-23
-23
-24
-25
-27
-29
-29
-29
-27
-25
-24
-23
-22
-22
-22
-22
-22
-21
-20
-19
-18
-17
-17
-17
-17
-18
-18
-19
-20
-21
-21
-22
-21
-21
-20
-18
-16
-14
-12
-11
-11
-11
-12
-12
-13
-13
-12
-11
-9
-6
-4
-2
-1
0
0
0
1
1
2
3
5
7
8
9
10
11
12
14
16
18
21
24
28
30
32
34
35
35
35
36
36
36
37
39
40
42
43
45
46
47
47
47
46
45
43
41
38
35
32
29
26
23
20
17
14
11
9
7
5
3
1
-1
-3
-5
-7
-10
-11
-13
-14
-15
-15
-16
-16
-16
-17
-17
-18
-19
-19
-19
-19
-18
-18
-18
-18
-18
-18
-18
-19
-19
-19
-20
-20
-20
-20
-21
-21
-21
-21
-21
-20
-19
-19
-18
-18
-18
-19
-20
-21
-22
-23
-23
-23
-23
-23
-23
-22
-21
-21
-20
-19
-19
-18
-19
-19
-20
-20
-21
-21
-21
-21
-20
-19
-18
-17
-17
-17
-17
-18
-19
-19
-18
-18
-16
-15
-15
-15
-15
-16
-17
-18
-19
-19
-18
-18
-16
-15
-14
-14
-14
-14
-15
-16
-17
-18
-18
-18
-17
-16
-15
-13
-12
-12
-12
-13
-14
-16
-18
-20
-21
-21
-21
-20
-19
-17
-16
-15
-15
-15
-15
-16
-17
-17
-17
-17
-16
-15
-14
-14
-13
-13
-14
-14
-15
-16
-17
-18
-18
-19
-19
-18
-17
-15
-13
-11
-9
-7
-6
-5
-4
-4
-5
-5
-6
-7
-7
-8
-8
-8
-9
-9
-9
-8
-8
-7
-7
-7
-7
-8
-10
-11
-13
-15
-17
-18
-19
-19
-19
-20
-20
-21
-22
-23
-24
-24
-24
-23
-22
-22
-21
-21
-21
-21
-21
-21
-21
-21
-22
-24
-28
-33
-40
-47
-52
-55
-54
-48
-37
-20
1
26
54
83
113
145
178
212
245
276
302
319
325
317
295
260
215
165
114
67
29
1
-17
-25
-27
-25
-22
-20
-19
-19
-20
-21
-20
-18
-15
-12
-10
-9
-9
-11
-14
-17
-19
-20
-20
-19
-17
-15
-14
-13
-14
-15
-15
-16
-16
-16
-14
-13
-11
-9
-8
-8
-8
-8
-9
-10
-10
-10
-9
-8
-7
-5
-4
-3
-2
-1
0
1
2
3
4
5
7
8
9
10
11
12
13
14
15
17
18
20
23
25
28
30
33
35
37
38
39
40
40
41
42
43
45
47
50
52
54
55
55
55
53
51
49
47
45
43
42
40
39
37
34
31
28
25
21
18
16
14
12
10
9
7
5
3
0
-3
-6
-8
-10
-11
-12
-12
-12
-11
-11
-11
-11
-11
-12
-13
-14
-16
-17
-19
-20
-20
-20
-20
-18
-17
-16
-15
-15
-15
-16
-18
-20
-22
-23
-24
-23
-22
-20
-18
-16
-15
-15
-15
-16
-17
-18
-19
-19
-18
-17
-16
-15
-14
-14
-15
-16
-17
-18
-19
-19
-18
-18
-17
-16
-16
-15
-16
-16
-17
-17
-18
-18
-17
-17
-17
-17
-17
-17
-18
-18
-18
-18
-18
-17
-17
-16
-15
-14
-14
-14
-13
-13
-14
-14
-14
-14
-15
-15
-15
-16
-16
-17
-18
-18
-19
-19
-19
-19
-19
-18
-18
-17
-17
-17
-18
-18
-19
-20
-21
-21
-21
-20
-19
-18
-17
-17
-17
-17
-19
-20
-22
-23
-24
-24
-23
-21
-19
-17
-15
-14
-13
-14
-15
-17
-19
-21
-23
-24
-24
-24
-24
-23
-22
-21
-19
-18
-17
-16
-16
-15
-16
-16
-17
-18
-18
-19
-20
-21
-21
-22
-23
-24
-24
-24
-23
-22
-20
-18
-16
-14
-13
-13
-14
-15
-17
-18
-20
-20
-20
-19
-18
-17
-17
-17
-17
-18
-19
-20
-20
-21
-20
-20
-20
-20
-21
-22
-23
-24
-24
-24
-22
-19
-16
-13
-11
-9
-8
-9
-11
-13
-15
-17
-17
-16
-15
-13
-10
-8
-6
-6
-6
-7
-10
-12
-14
-16
-17
-17
-16
-14
-12
-11
-9
-9
-9
-9
-10
-12
-13
-15
-16
-17
-17
-17
-18
-18
-20
-21
-22
-24
-25
-25
-25
-25
-24
-23
-23
-23
-23
-23
-24
-24
-24
-23
-23
-24
-25
-29
-34
-41
-49
-56
-60
-61
-57
-48
-33
-14
9
35
63
92
123
155
188
221
254
283
305
319
320
307
281
243
196
146
97
52
17
-8
-23
-30
-31
-28
-25
-22
-21
-22
-23
-25
-25
-24
-22
-19
-16
-15
-15
-16
-18
-21
-23
-25
-25
-23
-21
-19
-16
-15
-14
-15
-16
-18
-20
-21
-21
-20
-19
-16
-13
-11
-9
-8
-7
-8
-9
-9
-10
-10
-9
-7
-5
-3
-2
0
1
1
1
2
2
2
3
4
6
7
9
10
11
12
13
15
16
18
20
21
23
25
26
27
29
30
32
34
37
39
42
44
45
46
47
47
46
46
46
46
46
47
48
49
49
49
49
48
46
45
43
40
38
36
33
30
27
23
19
14
10
6
2
-1
-3
-5
-6
-6
-6
-7
-7
-7
-7
-8
-8
-9
-9
-10
-10
-11
-12
-13
-15
-16
-17
-17
-17
-16
-15
-14
-13
-12
-12
-12
-13
-14
-14
-15
-15
-15
-15
-15
-15
-15
-14
-14
-14
-14
-13
-13
-13
-12
-13
-13
-13
-14
-14
-13
-12
-11
-10
-9
-9
-9
-10
-11
-13
-14
-15
-16
-15
-15
-14
-13
-13
-12
-12
-12
-12
-12
-12
-12
-12
-12
-13
-14
-14
-15
-15
-15
-14
-13
-12
-11
-11
-11
-11
-12
-14
-15
-16
-17
-17
-17
-16
-14
-12
-10
-8
-7
-6
-6
-7
-8
-10
-13
-15
-17
-18
-18
-16
-14
-12
-10
-8
-8
-8
-9
-11
-13
-14
-16
-17
-17
-17
-16
-16
-15
-15
-15
-15
-15
-15
-14
-13
-12
-11
-11
-11
-12
-13
-13
-14
-14
-14
-14
-13
-12
-11
-11
-11
-11
-12
-13
-14
-15
-15
-15
-14
-13
-12
-11
-10
-11
-12
-13
-15
-16
-18
-18
-18
-17
-15
-13
-11
-9
-9
-9
-10
-11
-13
-14
-15
-16
-15
-14
-12
-10
-9
-8
-7
-8
-9
-10
-12
-14
-15
-16
-16
-15
-14
-14
-13
-13
-13
-13
-14
-15
-15
-15
-15
-15
-14
-13
-13
-12
-12
-12
-12
-12
-12
-12
-12
-13
-13
-14
-14
-15
-15
-14
-14
-13
-12
-11
-11
-11
-11
-12
-12
-13
-13
-12
-12
-11
-10
-9
-9
-9
-10
-10
-11
-11
-11
-11
-10
-8
-7
-5
-3
-2
-1
-1
-1
-1
-1
-2
-2
-3
-4
-4
-5
-5
-5
-4
-4
-3
-3
-2
-1
-1
-1
-1
-1
-1
-2
-4
-6
-8
-10
-11
-13
-13
-13
-13
-13
-13
-13
-14
-16
-18
-20
-22
-24
-24
-23
-21
-19
-16
-14
-12
-12
-14
-17
-22
-28
-35
-42
-48
-52
-54
-52
-47
-37
-24
-8
12
35
60
88
119
151
186
220
254
284
307
321
324
313
288
251
206
156
106
60
23
-4
-21
-28
-29
-25
-19
-15
-12
-13
-15
-17
-20
-22
-22
-21
-18
-16
-14
-12
-12
-12
-13
-13
-14
-14
-14
-13
-13
-12
-12
-12
-13
-13
-12
-12
-11
-10
-9
-8
-8
-8
-7
-7
-7
-7
-7
-7
-6
-6
-5
-5
-4
-2
-1
1
3
5
7
8
8
9
9
9
9
10
12
14
17
20
22
24
26
27
28
28
29
30
32
35
37
40
43
46
47
48
49
49
49
49
49
50
51
51
52
52
52
51
50
50
50
50
50
51
51
50
48
45
42
37
33
28
25
21
19
17
16
14
13
10
8
5
2
0
-2
-3
-4
-4
-4
-4
-5
-6
-8
-10
-12
-14
-15
-15
-14
-13
-12
-11
-10
-10
-10
-11
-13
-14
-14
-14
-14
-13
-12
-11
-11
-11
-12
-13
-15
-16
-16
-16
-15
-14
-14
-13
-13
-14
-14
-15
-15
-15
-14
-13
-12
-11
-11
-11
-12
-14
-15
-17
-18
-18
-17
-16
-14
-13
-12
-12
-12
-13
-15
-16
-17
-18
-17
-16
-15
-14
-13
-13
-13
-13
-14
-15
-15
-15
-14
-13
-13
-12
-12
-13
-14
-16
-17
-18
-18
-18
-17
-16
-14
-13
-12
-12
-13
-14
-15
-16
-17
-18
-18
-18
-17
-16
-15
-14
-13
-13
-14
-15
-16
-17
-18
-18
-17
-16
-15
-13
-12
-12
-12
-13
-14
-15
-16
-17
-18
-18
-18
-17
-17
-17
-17
-17
-18
-19
-19
-19
-19
-19
-19
-19
-19
-18
-18
-18
-17
-17
-16
-16
-16
-16
-16
-17
-18
-18
-18
-18
-18
-17
-17
-16
-16
-16
-17
-17
-18
-18
-18
-18
-18
-18
-18
-18
-18
-19
-20
-20
-21
-21
-20
-19
-19
-18
-17
-17
-17
-17
-17
-17
-17
-17
-17
-17
-18
-18
-18
-18
-18
-18
-18
-18
-18
-18
-18
-18
-19
-19
-19
-20
-20
-20
-19
-19
-19
-19
-19
-18
-18
-18
-17
-17
-17
-17
-17
-17
-18
-19
-20
-20
-20
-20
-19
-17
-15
-14
-13
-12
-13
-14
-15
-17
-18
-18
-17
-16
-14
-12
-9
-8
-7
-7
-7
-8
-9
-9
-9
-8
-7
-6
-6
-6
-6
-7
-8
-8
-8
-7
-6
-5
-4
-3
-4
-5
-7
-8
-10
-12
-13
-14
-14
-15
-15
-17
-18
-20
-22
-23
-23
-23
-22
-21
-20
-20
-21
-22
-24
-25
-26
-25
-24
-22
-20
-19
-19
-22
-28
-35
-43
-50
-55
-56
-52
-44
-31
-13
8
31
56
83
112
143
176
210
243
274
300
316
320
311
288
252
208
158
108
62
25
-3
-20
-28
-29
-26
-21
-17
-14
-14
-16
-18
-21
-22
-22
-20
-18
-17
-15
-15
-15
-16
-18
-19
-19
-19
-18
-17
-16
-15
-15
-16
-17
-17
-18
-17
-16
-15
-12
-10
-9
-8
-8
-9
-11
-13
-15
-16
-15
-14
-12
-9
-7
-4
-3
-2
-2
-3
-3
-3
-2
0
3
6
9
12
14
15
16
17
17
17
18
20
21
23
26
28
30
31
33
34
36
37
38
40
41
43
44
45
47
48
50
52
53
55
56
57
58
57
56
55
52
50
47
45
42
40
38
35
33
30
27
24
20
15
11
8
5
3
1
0
-1
-1
-2
-3
-4
-6
-8
-10
-12
-14
-15
-15
-15
-15
-15
-14
-14
-13
-13
-14
-14
-15
-15
-16
-17
-17
-18
-18
-18
-17
-17
-17
-17
-17
-17
-17
-17
-17
-17
-17
-16
-17
-17
-18
-19
-20
-21
-21
-21
-20
-18
-16
-15
-13
-13
-12
-13
-13
-14
-14
-15
-16
-16
-16
-16
-17
-17
-17
-16
-16
-15
-14
-13
-13
-13
-13
-13
-14
-15
-16
-17
-17
-16
-15
-14
-12
-11
-11
-11
-11
-11
-12
-12
-12
-12
-11
-10
-10
-10
-10
-11
-12
-13
-14
-14
-13
-13
-11
-11
-10
-10
-11
-12
-14
-16
-18
-19
-20
-20
-20
-20
-19
-18
-17
-16
-15
-14
-12
-11
-10
-10
-11
-12
-14
-16
-19
-21
-21
-21
-20
-18
-16
-15
-13
-13
-13
-15
-17
-19
-20
-21
-22
-22
-21
-20
-19
-19
-18
-17
-16
-15
-14
-12
-11
-10
-9
-10
-11
-13
-16
-18
-20
-21
-21
-20
-19
-17
-15
-14
-13
-14
-15
-16
-18
-19
-20
-20
-19
-18
-16
-15
-15
-15
-15
-16
-17
-17
-17
-17
-17
-16
-15
-15
-15
-16
-16
-17
-17
-18
-18
-18
-19
-19
-19
-20
-20
-19
-18
-17
-15
-14
-12
-12
-12
-13
-15
-17
-18
-19
-19
-18
-17
-16
-15
-14
-15
-15
-16
-16
-16
-16
-15
-14
-14
-13
-13
-13
-13
-12
-11
-9
-7
-4
-2
-1
-1
-2
-4
-6
-8
-10
-10
-10
-10
-9
-9
-9
-10
-11
-11
-12
-12
-10
-9
-7
-5
-5
-5
-7
-9
-12
-14
-16
-16
-15
-14
-13
-12
-13
-14
-17
-20
-23
-24
-25
-24
-22
-19
-17
-15
-14
-14
-15
-16
-17
-18
-18
-19
-20
-23
-27
-32
-38
-43
-47
-48
-45
-37
-24
-8
12
34
58
83
111
140
171
203
235
263
284
296
296
281
254
215
169
120
73
34
3
-16
-27
-29
-28
-24
-21
-20
-20
-21
-23
-23
-22
-19
-15
-11
-8
-6
-6
-7
-10
-12
-14
-14
-13
-11
-9
-7
-6
-6
-7
-9
-10
-11
-11
-10
-8
-5
-2
0
1
2
1
0
-1
-3
-4
-4
-4
-4
-3
-2
0
1
2
3
4
5
5
6
7
8
9
11
13
15
16
18
19
20
21
22
23
24
26
29
32
35
38
40
42
44
45
46
46
48
49
52
54
57
59
62
63
64
64
64
63
63
63
63
62
61
59
56
53
48
44
40
36
34
32
31
30
29
27
24
21
16
11
7
3
0
-1
-1
0
1
2
3
3
2
-1
-4
-7
-10
-13
-15
-16
-16
-16
-16
-15
-15
-14
-13
-13
-11
-10
-8
-7
-6
-6
-7
-9
-11
-13
-15
-15
-15
-14
-13
-11
-10
-10
-11
-13
-16
-18
-20
-20
-19
-17
-15
-12
-9
-8
-8
-9
-10
-12
-13
-14
-14
-13
-12
-12
-11
-11
-12
-13
-14
-15
-16
-16
-15
-14
-13
-13
-12
-12
-13
-14
-15
-16
-16
-16
-16
-15
-15
-14
-13
-13
-13
-14
-15
-16
-17
-18
-18
-17
-17
-15
-14
-13
-13
-13
-14
-16
-17
-18
-19
-19
-18
-16
-15
-13
-12
-12
-13
-14
-16
-17
-19
-19
-20
-19
-19
-19
-20
-20
-20
-21
-20
-19
-18
-16
-14
-12
-12
-12
-14
-16
-19
-21
-22
-23
-22
-20
-18
-16
-15
-15
-16
-17
-19
-20
-20
-19
-17
-14
-12
-10
-9
-11
-14
-18
-22
-25
-27
-27
-25
-21
-17
-13
-10
-8
-9
-11
-14
-18
-21
-23
-23
-22
-21
-19
-17
-16
-16
-16
-16
-16
-16
-16
-15
-14
-14
-13
-13
-13
-14
-14
-14
-14
-13
-13
-13
-13
-13
-14
-14
-15
-14
-13
-11
-9
-7
-5
-4
-5
-7
-9
-12
-15
-16
-17
-16
-15
-13
-11
-10
-9
-9
-9
-10
-11
-11
-12
-12
-13
-14
-15
-17
-19
-22
-23
-24
-24
-24
-22
-21
-20
-19
-19
-20
-21
-21
-22
-21
-21
-20
-21
-24
-28
-35
-42
-49
-55
-58
-56
-49
-37
-21
-3
18
41
64
88
114
142
172
202
232
257
275
283
278
260
230
190
144
98
55
20
-6
-23
-31
-33
-31
-28
-26
-25
-26
-27
-29
-29
-29
-27
-25
-22
-20
-19
-19
-20
-21
-22
-23
-23
-22
-21
-20
-19
-19
-19
-19
-19
-19
-19
-18
-18
-17
-16
-16
-16
-16
-15
-15
-13
-12
-10
-9
-8
-8
-8
-9
-10
-10
-9
-8
-5
-3
0
1
2
3
2
1
1
1
3
6
10
14
17
20
21
21
20
19
17
17
18
20
24
29
35
39
43
46
47
48
47
47
46
47
47
48
49
49
49
47
45
43
42
40
40
40
41
41
41
39
36
32
27
21
16
11
7
5
3
1
0
-1
-3
-4
-6
-7
-8
-9
-10
-12
-13
-15
-17
-18
-20
-21
-21
-20
-20
-19
-17
-17
-16
-16
-15
-15
-15
-15
-15
-16
-16
-17
-19
-20
-21
-22
-23
-23
-23
-22
-21
-19
-18
-17
-16
-16
-15
-16
-16
-17
-18
-19
-20
-20
-19
-18
-17
-15
-14
-14
-13
-14
-15
-16
-17
-18
-18
-18
-17
-17
-16
-17
-17
-18
-19
-20
-19
-18
-16
-13
-11
-9
-8
-8
-9
-11
-12
-14
-15
-15
-14
-13
-13
-12
-13
-14
-15
-17
-18
-19
-19
-18
-17
-16
-15
-15
-15
-16
-17
-17
-18
-18
-17
-16
-15
-13
-12
-12
-12
-13
-15
-16
-17
-18
-18
-17
-16
-15
-14
-13
-13
-13
-13
-14
-14
-15
-15
-16
-16
-17
-18
-19
-19
-20
-19
-19
-17
-16
-15
-14
-14
-14
-15
-17
-18
-19
-19
-18
-17
-16
-14
-13
-13
-13
-14
-15
-17
-18
-19
-19
-19
-18
-17
-16
-15
-14
-14
-13
-13
-13
-13
-14
-16
-17
-19
-21
-21
-21
-20
-17
-14
-11
-8
-6
-5
-5
-6
-7
-9
-10
-11
-11
-11
-10
-9
-8
-7
-7
-6
-7
-7
-7
-8
-8
-9
-9
-9
-10
-10
-10
-11
-11
-11
-11
-10
-10
-9
-9
-9
-10
-11
-13
-15
-17
-18
-19
-20
-20
-20
-19
-19
-20
-21
-21
-22
-22
-22
-21
-20
-20
-20
-22
-26
-31
-37
-43
-47
-49
-47
-39
-28
-12
8
30
54
79
106
135
165
196
226
255
278
293
298
289
267
234
191
144
97
54
20
-5
-19
-25
-24
-19
-14
-10
-9
-9
-11
-14
-16
-17
-17
-16
-14
-13
-13
-13
-14
-15
-16
-16
-16
-15
-13
-12
-11
-10
-10
-11
-11
-11
-10
-10
-9
-9
-9
-9
-9
-10
-11
-11
-10
-8
-6
-4
-1
0
1
2
2
1
1
1
2
3
5
7
8
10
10
10
10
10
10
10
12
14
16
19
21
23
25
27
29
30
32
34
37
39
41
43
45
46
48
49
51
53
55
56
57
56
56
54
52
49
47
46
45
45
45
46
46
45
44
41
38
34
29
24
20
17
14
12
10
9
8
7
5
4
2
0
-2
-4
-6
-7
-8
-9
-9
-9
-9
-10
-10
-11
-12
-14
-15
-17
-18
-19
-21
-21
-22
-22
-22
-22
-21
-20
-19
-17
-15
-14
-13
-13
-13
-15
-16
-18
-19
-20
-19
-18
-16
-14
-13
-12
-12
-13
-15
-17
-19
-20
-20
-19
-17
-15
-14
-14
-14
-15
-17
-19
-21
-21
-21
-21
-19
-18
-17
-17
-17
-18
-19
-20
-20
-19
-17
-15
-13
-11
-10
-10
-12
-14
-16
-19
-20
-20
-19
-17
-15
-12
-10
-9
-9
-10
-12
-15
-17
-18
-19
-19
-17
-16
-14
-13
-13
-13
-15
-16
-17
-18
-19
-19
-18
-17
-16
-16
-15
-15
-14
-15
-15
-15
-15
-16
-17
-18
-19
-20
-21
-21
-20
-19
-18
-16
-15
-15
-15
-16
-18
-20
-22
-23
-23
-23
-21
-20
-18
-17
-17
-17
-17
-18
-19
-19
-20
-20
-20
-20
-20
-21
-21
-22
-23
-23
-23
-23
-23
-22
-21
-20
-20
-19
-19
-19
-19
-19
-20
-20
-20
-20
-20
-19
-19
-19
-19
-19
-19
-20
-20
-20
-20
-20
-19
-19
-18
-18
-18
-18
-19
-20
-21
-22
-22
-23
-22
-22
-20
-19
-17
-14
-12
-10
-9
-8
-8
-9
-10
-11
-12
-13
-13
-12
-10
-9
-7
-6
-6
-7
-9
-12
-15
-17
-18
-18
-17
-15
-12
-10
-8
-7
-7
-8
-11
-13
-15
-17
-19
-20
-20
-21
-22
-22
-23
-24
-25
-25
-24
-24
-23
-23
-23
-23
-24
-25
-26
-26
-26
-25
-24
-23
-24
-27
-32
-38
-46
-53
-59
-61
-58
-51
-39
-22
-2
20
45
70
98
127
157
190
222
254
280
300
309
305
288
259
220
174
126
81
42
12
-8
-20
-25
-25
-23
-20
-18
-18
-19
-20
-21
-22
-22
-21
-20
-19
-19
-20
-20
-21
-22
-22
-21
-19
-17
-16
-14
-14
-14
-14
-15
-15
-15
-14
-13
-11
-9
-7
-6
-6
-6
-7
-9
-10
-11
-12
-12
-10
-8
-6
-4
-2
0
1
1
1
0
0
0
0
1
3
5
8
10
12
14
15
16
17
17
18
19
20
22
24
26
29
32
35
38
41
43
44
44
44
44
44
45
45
47
48
50
52
52
52
51
49
46
43
40
39
38
38
38
40
40
40
39
36
31
26
20
14
9
5
3
1
1
1
1
1
0
-2
-5
-8
-11
-14
-16
-18
-18
-17
-16
-14
-13
-12
-12
-12
-14
-15
-17
-18
-19
-19
-19
-18
-18
-17
-17
-17
-17
-17
-18
-18
-18
-18
-17
-16
-15
-14
-13
-13
-14
-14
-15
-16
-16
-16
-16
-15
-15
-14
-14
-15
-16
-17
-19
-20
-20
-20
-19
-18
-16
-14
-13
-12
-12
-12
-13
-13
-14
-15
-15
-16
-15
-15
-15
-15
-15
-15
-15
-14
-14
-13
-12
-11
-10
-10
-11
-12
-13
-14
-15
-16
-16
-16
-16
-16
-16
-17
-17
-18
-19
-19
-19
-18
-16
-14
-12
-10
-9
-8
-9
-10
-11
-12
-14
-15
-15
-16
-16
-16
-16
-16
-15
-14
-13
-12
-11
-10
-10
-10
-10
-11
-13
-14
-16
-17
-18
-18
-18
-17
-16
-15
-14
-13
-13
-13
-13
-13
-14
-15
-15
-15
-15
-15
-14
-14
-14
-13
-13
-13
-14
-14
-14
-14
-14
-13
-12
-11
-11
-11
-12
-13
-14
-16
-17
-17
-17
-16
-15
-14
-13
-12
-12
-12
-13
-14
-15
-16
-16
-16
-15
-14
-13
-13
-12
-12
-12
-13
-13
-13
-14
-14
-15
-15
-16
-17
-18
-18
-17
-16
-15
-13
-11
-8
-7
-5
-4
-4
-3
-3
-2
-2
-2
-1
-1
-2
-2
-3
-4
-5
-5
-5
-5
-4
-3
-2
-2
-3
-4
-5
-7
-9
-10
-10
-10
-8
-6
-4
-3
-2
-1
-2
-4
-6
-9
-11
-14
-16
-17
-18
-18
-18
-17
-17
-16
-16
-16
-17
-18
-19
-20
-22
-22
-22
-21
-19
-18
-17
-18
-21
-26
-33
-41
-49
-54
-56
-53
-45
-32
-15
6
29
54
80
107
137
169
202
235
267
294
312
319
313
293
260
217
168
119
73
35
7
-10
-19
-21
-19
-16
-14
-14
-16
-19
-22
-24
-25
-23
-20
-16
-13
-10
-10
-11
-13
-16
-19
-21
-21
-20
-17
-14
-11
-9
-8
-8
-9
-11
-13
-15
-16
-16
-15
-13
-11
-10
-8
-8
-7
-7
-8
-8
-8
-8
-8
-8
-8
-7
-6
-4
-2
1
4
7
10
12
12
13
12
11
10
10
10
11
13
15
17
19
21
24
26
28
31
34
36
39
41
43
43
44
44
43
43
43
44
45
46
47
48
49
50
50
50
50
49
49
48
46
44
41
37
34
30
27
25
23
22
21
20
18
15
11
7
3
-1
-4
-6
-8
-8
-9
-9
-10
-11
-12
-13
-14
-15
-15
-15
-15
-15
-15
-15
-16
-17
-18
-18
-19
-18
-18
-18
-17
-17
-17
-18
-19
-20
-20
-21
-22
-22
-22
-23
-23
-23
-22
-22
-22
-21
-20
-20
-19
-19
-18
-19
-19
-20
-21
-22
-22
-22
-22
-21
-21
-20
-20
-20
-21
-22
-24
-25
-26
-27
-26
-24
-22
-19
-16
-14
-13
-13
-13
-15
-17
-19
-20
-21
-21
-20
-19
-18
-17
-17
-17
-17
-18
-19
-20
-20
-20
-19
-19
-18
-17
-16
-16
-15
-16
-16
-17
-18
-19
-19
-19
-19
-19
-18
-18
-18
-18
-19
-20
-21
-21
-22
-22
-22
-21
-20
-18
-17
-16
-16
-16
-16
-16
-17
-18
-18
-18
-18
-18
-18
-18
-18
-18
-18
-18
-18
-18
-19
-19
-20
-20
-21
-21
-22
-22
-22
-21
-20
-19
-19
-18
-18
-18
-18
-18
-19
-19
-19
-19
-19
-18
-18
-17
-17
-16
-16
-16
-16
-16
-17
-17
-18
-18
-19
-19
-20
-20
-20
-20
-20
-20
-20
-19
-19
-18
-18
-17
-17
-17
-17
-18
-18
-19
-18
-18
-17
-16
-15
-14
-14
-14
-15
-16
-17
-18
-19
-19
-18
-17
-16
-15
-15
-14
-15
-15
-16
-16
-16
-16
-15
-14
-13
-11
-10
-9
-8
-8
-7
-7
-7
-7
-7
-7
-7
-6
-5
-4
-3
-2
-1
-1
-1
-2
-3
-4
-4
-5
-6
-6
-6
-7
-8
-9
-10
-11
-12
-13
-13
-12
-12
-12
-12
-13
-14
-15
-16
-16
-16
-15
-13
-11
-10
-10
-10
-11
-13
-14
-16
-18
-20
-23
-27
-32
-39
-46
-52
-56
-57
-53
-43
-28
-9
13
38
64
92
121
151
184
217
250
281
305
321
325
314
290
252
206
156
106
62
26
1
-14
-20
-19
-16
-12
-9
-9
-10
-13
-16
-18
-19
-19
-17
-15
-13
-12
-11
-12
-13
-14
-16
-17
-18
-18
-18
-19
-18
-18
-17
-16
-15
-13
-11
-10
-9
-8
-9
-9
-10
-10
-10
-9
-7
-5
-3
-1
0
1
1
0
-1
-1
-2
-2
-1
1
3
4
6
7
7
8
8
8
10
12
14
18
21
23
25
26
26
26
26
26
27
30
33
36
40
43
45
46
47
46
46
46
46
47
49
51
53
55
56
55
54
52
49
46
43
40
38
35
33
31
29
27
25
22
19
17
14
12
9
7
4
2
0
-3
-5
-8
-11
-13
-15
-16
-17
-17
-16
-16
-16
-16
-16
-17
-19
-21
-22
-24
-24
-24
-24
-23
-22
-21
-21
-21
-21
-22
-23
-23
-23
-22
-21
-19
-18
-16
-15
-15
-16
-17
-19
-21
-22
-23
-24
-23
-23
-21
-20
-19
-18
-18
-18
-18
-19
-20
-21
-21
-21
-21
-21
-21
-20
-19
-18
-18
-18
-18
-19
-20
-21
-21
-22
-21
-21
-19
-17
-15
-13
-12
-11
-11
-13
-14
-17
-19
-21
-22
-22
-21
-20
-19
-17
-16
-16
-16
-16
-17
-18
-19
-20
-21
-21
-21
-21
-21
-21
-21
-21
-21
-22
-22
-22
-22
-22
-22
-21
-20
-20
-20
-20
-20
-20
-21
-22
-22
-22
-22
-21
-20
-19
-18
-18
-18
-19
-21
-23
-24
-26
-26
-26
-25
-23
-22
-21
-20
-20
-21
-22
-24
-25
-26
-27
-26
-26
-24
-23
-21
-19
-18
-17
-17
-18
-19
-20
-21
-23
-24
-25
-25
-25
-24
-22
-21
-19
-19
-18
-19
-19
-20
-21
-21
-21
-21
-20
-19
-18
-17
-16
-16
-17
-18
-19
-20
-21
-22
-23
-23
-23
-23
-22
-20
-19
-17
-15
-14
-13
-13
-14
-15
-16
-18
-19
-19
-19
-17
-16
-14
-12
-10
-9
-9
-9
-9
-8
-8
-8
-8
-7
-8
-9
-10
-11
-12
-13
-13
-13
-12
-10
-9
-7
-6
-5
-5
-5
-6
-7
-8
-9
-11
-12
-15
-17
-20
-22
-24
-25
-25
-24
-23
-21
-19
-17
-16
-16
-15
-16
-16
-16
-16
-16
-16
-17
-18
-21
-25
-31
-37
-43
-49
-52
-53
-50
-42
-30
-13
7
31
57
85
114
146
178
211
241
268
288
298
296
282
254
216
171
123
77
37
5
-16
-28
-32
-31
-27
-23
-20
-19
-19
-19
-20
-19
-17
-15
-12
-11
-10
-10
-11
-12
-13
-13
-12
-10
-8
-6
-4
-4
-4
-5
-7
-8
-9
-9
-9
-8
-7
-6
-5
-4
-4
-3
-2
-1
0
1
2
2
2
2
1
1
1
1
2
3
5
7
10
12
14
16
17
19
20
22
24
25
26
27
28
28
28
28
29
30
32
34
37
40
42
44
46
47
47
48
49
50
51
53
55
56
57
57
57
56
56
55
55
54
54
54
53
52
50
48
45
42
38
35
32
29
25
22
19
15
12
10
8
7
6
5
4
3
1
-2
-5
-8
-10
-11
-11
-10
-9
-7
-5
-4
-4
-5
-6
-8
-10
-11
-11
-11
-11
-10
-10
-10
-10
-10
-10
-11
-12
-12
-13
-13
-13
-14
-14
-14
-14
-14
-14
-14
-14
-14
-14
-14
-14
-14
-14
-14
-14
-13
-13
-12
-12
-13
-13
-15
-16
-16
-16
-14
-12
-9
-6
-4
-3
-4
-6
-10
-15
-20
-25
-28
-28
-27
-24
-19
-15
-10
-7
-6
-6
-8
-11
-14
-16
-17
-18
-17
-15
-13
-11
-10
-9
-10
-10
-11
-12
-12
-12
-12
-12
-12
-12
-12
-13
-14
-16
-17
-19
-19
-19
-18
-16
-14
-11
-9
-7
-6
-6
-6
-8
-10
-12
-14
-16
-18
-19
-19
-18
-17
-15
-13
-12
-12
-12
-12
-14
-15
-16
-18
-19
-19
-19
-19
-20
-20
-21
-22
-23
-24
-25
-25
-24
-21
-18
-14
-9
-6
-3
-3
-5
-8
-12
-17
-21
-24
-25
-25
-23
-20
-17
-15
-14
-14
-15
-17
-19
-20
-21
-20
-19
-17
-15
-13
-12
-11
-11
-12
-12
-13
-13
-12
-12
-11
-10
-9
-8
-8
-7
-7
-8
-8
-9
-9
-10
-11
-12
-14
-14
-15
-15
-14
-13
-12
-10
-10
-11
-12
-15
-19
-24
-28
-31
-32
-32
-30
-27
-23
-20
-17
-15
-14
-14
-16
-17
-19
-21
-22
-23
-24
-26
-29
-33
-37
-41
-45
-47
-47
-43
-37
-26
-12
5
25
47
71
96
123
150
177
203
226
243
254
256
248
229
200
165
124
83
44
11
-14
-30
-38
-39
-35
-30
-24
-20
-17
-17
-18
-20
-21
-22
-22
-21
-21
-20
-19
-20
-20
-21
-22
-22
-22
-22
-21
-20
-19
-18
-17
-16
-16
-15
-14
-12
-11
-10
-10
-10
-10
-11
-13
-14
-15
-16
-16
-15
-13
-11
-8
-7
-6
-5
-6
-6
-7
-6
-5
-3
1
4
7
10
11
12
11
9
8
8
9
11
14
17
20
22
24
24
24
25
25
27
29
33
36
39
41
42
42
42
41
41
42
44
46
48
50
49
48
44
39
34
30
26
24
23
22
22
22
21
18
15
12
8
4
2
-1
-2
-4
-6
-8
-11
-14
-17
-19
-20
-20
-19
-18
-16
-15
-14
-14
-15
-16
-17
-19
-19
-19
-19
-19
-18
-18
-18
-19
-20
-21
-21
-22
-22
-21
-21
-20
-19
-19
-19
-19
-20
-20
-21
-22
-22
-22
-21
-20
-19
-17
-17
-17
-18
-20
-22
-24
-26
-28
-28
-27
-25
-23
-20
-18
-16
-15
-16
-17
-18
-19
-20
-20
-19
-18
-17
-15
-14
-13
-14
-14
-15
-17
-18
-19
-20
-20
-19
-18
-17
-16
-16
-16
-16
-17
-18
-20
-21
-21
-20
-19
-18
-16
-15
-14
-14
-15
-16
-17
-18
-19
-19
-18
-17
-15
-14
-13
-13
-13
-13
-14
-15
-15
-16
-16
-16
-16
-17
-17
-18
-19
-19
-20
-19
-19
-17
-16
-15
-15
-15
-15
-17
-18
-20
-21
-22
-23
-23
-23
-23
-22
-22
-21
-21
-20
-19
-19
-18
-18
-17
-18
-18
-18
-19
-19
-19
-19
-18
-18
-17
-17
-18
-18
-19
-20
-20
-20
-19
-18
-16
-15
-13
-12
-12
-12
-13
-13
-14
-14
-14
-14
-13
-12
-12
-11
-10
-10
-9
-9
-9
-9
-10
-10
-11
-13
-14
-14
-14
-14
-13
-11
-10
-9
-8
-9
-10
-11
-12
-14
-14
-14
-13
-12
-11
-10
-10
-11
-12
-14
-17
-19
-21
-22
-23
-22
-22
-21
-20
-19
-19
-18
-17
-15
-14
-14
-14
-16
-20
-25
-31
-38
-43
-46
-46
-41
-32
-19
-1
19
42
66
91
117
143
171
198
223
246
262
271
269
256
231
198
158
115
74
38
10
-9
-20
-23
-21
-16
-11
-7
-5
-4
-5
-7
-8
-10
-11
-11
-11
-11
-11
-11
-11
-11
-10
-9
-8
-7
-6
-6
-6
-7
-8
-9
-10
-10
-10
-9
-7
-5
-3
-2
-1
0
0
0
0
0
0
0
1
1
2
2
3
4
5
6
7
8
9
9
10
10
11
12
13
14
16
18
21
23
24
25
27
27
28
29
30
32
34
36
39
41
43
45
47
48
49
50
50
51
51
51
51
51
50
50
50
50
50
50
50
49
48
46
43
40
37
34
31
29
27
25
24
22
19
16
12
8
4
1
-1
-3
-4
-4
-4
-4
-6
-7
-9
-12
-13
-15
-15
-15
-14
-13
-12
-12
-13
-15
-17
-18
-19
-19
-18
-16
-14
-11
-10
-9
-9
-10
-11
-13
-14
-15
-15
-14
-14
-13
-12
-12
-12
-13
-14
-14
-15
-16
-16
-16
-17
-17
-17
-17
-17
-17
-16
-16
-16
-16
-15
-15
-15
-14
-14
-13
-13
-12
-12
-12
-12
-13
-13
-14
-15
-16
-16
-16
-16
-16
-15
-14
-13
-12
-11
-11
-11
-11
-12
-13
-13
-14
-14
-14
-13
-12
-11
-11
-11
-11
-12
-13
-14
-15
-16
-17
-17
-17
-18
-18
-18
-19
-19
-18
-18
-17
-16
-14
-13
-12
-12
-12
-13
-14
-15
-17
-18
-18
-19
-18
-18
-17
-16
-15
-14
-13
-13
-13
-13
-14
-15
-17
-18
-18
-18
-16
-15
-13
-11
-10
-10
-12
-14
-16
-19
-21
-21
-20
-18
-15
-12
-10
-9
-9
-10
-12
-14
-17
-18
-19
-18
-17
-16
-15
-14
-14
-14
-16
-17
-18
-19
-19
-19
-18
-17
-17
-16
-16
-16
-17
-17
-17
-17
-16
-15
-14
-13
-12
-11
-11
-12
-12
-14
-15
-17
-18
-20
-21
-21
-21
-20
-19
-18
-17
-16
-16
-16
-16
-17
-18
-19
-20
-20
-20
-20
-19
-18
-17
-17
-17
-17
-18
-18
-18
-17
-16
-15
-13
-12
-11
-10
-9
-9
-9
-10
-10
-9
-9
-8
-7
-7
-7
-7
-8
-9
-9
-10
-10
-9
-8
-7
-6
-6
-6
-6
-6
-7
-8
-8
-8
-8
-8
-8
-9
-9
-10
-12
-13
-15
-16
-17
-18
-18
-18
-18
-18
-17
-16
-16
-15
-15
-15
-15
-16
-17
-19
-21
-22
-23
-23
-23
-22
-22
-23
-25
-29
-35
-41
-47
-51
-51
-46
-37
-22
-2
21
47
75
103
132
162
191
220
247
271
288
296
292
276
248
210
165
118
73
35
7
-12
-22
-24
-22
-19
-16
-14
-15
-17
-20
-22
-22
-21
-19
-17
-15
-14
-14
-15
-16
-17
-18
-17
-16
-14
-12
-11
-11
-12
-13
-15
-15
-14
-13
-10
-8
-5
-4
-3
-4
-6
-9
-11
-12
-12
-11
-8
-5
-2
2
4
5
5
5
4
3
2
2
3
5
6
9
10
12
13
14
15
16
17
18
20
23
26
28
31
33
35
37
38
39
41
42
44
46
48
50
51
52
53
53
53
53
52
52
52
53
54
55
56
56
56
56
54
52
49
45
42
38
35
32
30
27
25
23
20
17
14
11
8
5
3
1
0
-1
-1
-2
-3
-3
-4
-5
-6
-6
-6
-7
-7
-7
-8
-9
-10
-11
-12
-13
-14
-15
-15
-15
-14
-14
-13
-13
-13
-13
-14
-15
-16
-16
-16
-16
-15
-13
-12
-11
-11
-12
-13
-14
-15
-16
-16
-15
-13
-12
-10
-9
-9
-10
-12
-13
-15
-16
-17
-16
-14
-12
-11
-10
-10
-11
-13
-15
-17
-19
-19
-18
-16
-14
-12
-10
-10
-10
-11
-13
-14
-15
-16
-16
-15
-14
-13
-12
-11
-11
-11
-12
-12
-13
-14
-14
-14
-14
-13
-12
-12
-11
-10
-10
-10
-11
-12
-13
-14
-15
-16
-17
-17
-16
-15
-14
-13
-12
-12
-12
-12
-13
-14
-15
-16
-17
-17
-17
-17
-16
-16
-15
-15
-14
-14
-15
-15
-16
-17
-18
-18
-18
-18
-18
-17
-16
-15
-15
-15
-15
-15
-15
-16
-16
-16
-16
-16
-15
-16
-16
-17
-17
-18
-19
-20
-21
-21
-20
-20
-19
-18
-17
-16
-15
-15
-15
-15
-15
-16
-16
-17
-18
-19
-19
-20
-20
-20
-20
-19
-19
-19
-18
-18
-18
-18
-19
-19
-20
-21
-22
-22
-23
-23
-22
-21
-20
-18
-16
-14
-13
-12
-12
-13
-14
-16
-19
-21
-23
-25
-26
-26
-25
-24
-22
-19
-17
-15
-13
-12
-11
-12
-13
-14
-16
-18
-19
-20
-20
-19
-18
-17
-16
-15
-15
-15
-15
-15
-15
-15
-15
-14
-13
-12
-11
-10
-9
-8
-8
-8
-8
-8
-8
-8
-9
-10
-10
-11
-12
-12
-13
-14
-14
-14
-14
-13
-12
-10
-8
-7
-6
-6
-6
-8
-10
-13
-15
-18
-19
-20
-20
-20
-20
-20
-20
-21
-22
-23
-24
-25
-25
-24
-23
-22
-21
-20
-19
-18
-18
-18
-19
-20
-23
-26
-32
-38
-44
-49
-52
-51
-45
-34
-17
4
29
57
86
117
147
178
208
237
263
285
299
304
297
277
246
204
157
108
62
24
-6
-24
-33
-35
-31
-25
-20
-17
-15
-16
-17
-19
-20
-20
-20
-19
-19
-19
-20
-22
-23
-24
-24
-22
-20
-17
-15
-14
-13
-14
-16
-18
-20
-20
-19
-17
-15
-12
-10
-8
-8
-9
-11
-13
-15
-16
-16
-15
-12
-10
-7
-4
-3
-2
-1
-1
-1
-1
-1
0
1
2
3
3
3
3
4
5
7
9
13
17
20
23
25
27
28
28
28
29
31
33
36
39
42
44
46
48
48
48
48
47
47
46
46
46
47
47
48
48
48
48
47
46
44
41
38
34
31
27
23
20
17
14
12
10
8
7
5
3
1
0
-2
-4
-6
-8
-10
-13
-15
-16
-17
-18
-19
-19
-19
-19
-19
-20
-20
-21
-22
-22
-23
-22
-22
-21
-20
-20
-20
-20
-20
-21
-22
-23
-24
-25
-25
-25
-25
-25
-24
-23
-22
-21
-20
-19
-18
-18
-17
-17
-17
-17
-18
-18
-19
-19
-19
-19
-18
-18
-17
-16
-16
-16
-16
-17
-18
-18
-18
-18
-18
-18
-17
-17
-18
-19
-20
-21
-22
-23
-22
-21
-20
-18
-17
-16
-15
-15
-16
-16
-17
-18
-18
-18
-18
-17
-16
-16
-16
-16
-17
-17
-18
-18
-19
-19
-19
-19
-19
-18
-18
-18
-17
-18
-18
-19
-20
-21
-22
-23
-24
-24
-24
-23
-21
-20
-18
-17
-16
-16
-16
-16
-17
-18
-18
-18
-18
-18
-17
-16
-16
-16
-16
-17
-18
-19
-20
-21
-22
-21
-20
-19
-17
-16
-14
-13
-13
-14
-15
-17
-19
-20
-20
-20
-19
-18
-16
-15
-13
-13
-13
-13
-14
-15
-15
-15
-14
-13
-12
-11
-10
-10
-10
-12
-13
-15
-17
-18
-18
-17
-15
-13
-11
-9
-8
-8
-8
-9
-11
-13
-15
-16
-17
-17
-17
-16
-15
-14
-13
-12
-11
-11
-11
-11
-11
-11
-11
-11
-10
-9
-8
-7
-6
-6
-6
-7
-8
-8
-9
-9
-8
-7
-5
-3
-2
-1
-1
-2
-3
-4
-4
-4
-4
-3
-1
0
0
-1
-2
-4
-6
-8
-10
-10
-9
-6
-3
0
2
4
3
2
-1
-5
-8
-12
-15
-16
-17
-17
-16
-16
-15
-15
-15
-15
-16
-16
-16
-16
-16
-15
-14
-13
-12
-11
-11
-12
-15
-19
-25
-31
-38
-44
-48
-50
-48
-42
-31
-15
5
28
55
84
114
147
180
213
246
275
298
314
319
311
291
258
216
168
118
71
32
2
-18
-27
-29
-25
-20
-14
-11
-10
-12
-14
-17
-18
-19
-18
-15
-13
-11
-10
-10
-12
-13
-15
-17
-18
-18
-17
-16
-15
-13
-12
-11
-9
-8
-7
-7
-6
-6
-6
-6
-6
-6
-5
-4
-2
-1
0
1
1
1
0
-1
-2
-3
-2
-1
1
3
6
8
11
12
13
14
15
15
16
17
18
19
20
21
22
24
26
28
31
33
36
38
40
42
43
44
45
47
48
50
52
55
57
59
61
61
61
59
58
57
55
55
55
55
54
54
53
51
48
45
42
39
36
33
31
29
26
22
18
14
10
6
3
1
0
0
0
0
0
-1
-3
-6
-8
-11
-12
-13
-13
-12
-11
-10
-9
-9
-9
-10
-11
-12
-13
-13
-14
-14
-13
-13
-13
-12
-12
-11
-11
-10
-10
-9
-9
-9
-9
-10
-11
-11
-12
-12
-12
-13
-13
-12
-12
-12
-12
-11
-11
-11
-10
-10
-9
-9
-8
-8
-7
-7
-7
-6
-6
-6
-6
-7
-8
-9
-10
-11
-11
-12
-11
-11
-9
-8
-7
-7
-6
-7
-7
-8
-9
-9
-10
-9
-9
-8
-8
-7
-7
-7
-8
-9
-9
-9
-9
-9
-9
-8
-8
-8
-8
-9
-10
-10
-10
-10
-10
-9
-8
-7
-7
-7
-7
-8
-8
-8
-9
-8
-8
-8
-8
-8
-8
-8
-8
-9
-9
-9
-9
-9
-9
-8
-8
-8
-9
-9
-9
-9
-9
-9
-9
-8
-8
-7
-6
-6
-6
-6
-7
-7
-8
-9
-10
-11
-11
-12
-12
-12
-12
-11
-10
-10
-9
-9
-9
-9
-9
-10
-11
-11
-12
-12
-11
-11
-10
-9
-9
-8
-8
-9
-9
-10
-11
-11
-11
-11
-11
-10
-10
-9
-10
-11
-12
-13
-15
-17
-18
-20
-21
-21
-22
-22
-22
-21
-20
-18
-15
-12
-9
-6
-4
-2
-2
-2
-3
-4
-6
-7
-7
-6
-5
-4
-2
-1
0
1
2
2
2
2
1
1
0
0
-1
-1
-2
-2
-2
-2
-2
-2
-2
-2
-3
-4
-6
-8
-9
-11
-12
-13
-13
-13
-12
-12
-12
-12
-12
