-4
-6
-7
-8
-9
-9
-9
-8
-8
-8
-8
-8
-9
-9
-9
-10
-10
-10
-10
-10
-11
-11
-12
-12
-12
-12
-11
-10
-9
-7
-6
-5
-5
-5
-5
-5
-5
-4
-2
-1
1
3
5
6
6
6
5
3
1
0
-2
-2
-2
-1
1
4
7
9
12
13
14
13
12
10
7
4
2
-1
-3
-5
-7
-9
-11
-13
-14
-16
-17
-17
-17
-17
-16
-15
-14
-13
-12
-11
-11
-11
-11
-12
-12
-12
-12
-13
-13
-13
-12
-11
-9
-5
0
8
17
27
40
53
67
81
94
105
113
117
116
109
96
77
52
25
-4
-32
-56
-75
-88
-94
-94
-89
-81
-70
-60
-50
-42
-35
-30
-26
-24
-22
-20
-19
-19
-18
-18
-18
-18
-17
-17
-17
-16
-16
-15
-15
-15
-15
-14
-13
-12
-10
-9
-7
-6
-5
-5
-5
-5
-5
-5
-4
-3
-2
0
1
2
2
2
2
1
1
2
3
5
7
9
11
13
14
16
17
18
19
20
22
23
25
27
28
30
32
35
37
41
44
48
51
54
55
56
57
56
56
56
56
58
59
62
64
65
66
66
65
64
62
60
59
58
57
56
55
54
51
48
45
41
37
34
31
29
27
25
24
22
20
18
15
12
9
6
4
1
-1
-2
-3
-3
-4
-4
-4
-4
-4
-4
-5
-6
-7
-8
-9
-10
-11
-11
-11
-10
-10
-9
-8
-8
-8
-7
-8
-8
-8
-9
-9
-9
-9
-9
-9
-9
-10
-10
-11
-12
-12
-13
-14
-14
-13
-12
-12
-11
-11
-11
-12
-13
-15
-17
-18
-18
-18
-17
-16
-14
-13
-12
-12
-12
-13
-14
-15
-16
-16
-16
-16
-16
-16
-17
-17
-17
-18
-17
-17
-16
-15
-14
-13
-12
-12
-12
-11
-11
-11
-10
-9
-8
-7
-6
-5
-4
-3
-2
-1
0
1
1
1
0
-1
-2
-4
-4
-5
-4
-2
0
2
3
4
3
2
-1
-5
-8
-12
-14
-16
-17
-17
-17
-18
-19
-21
-23
-25
-26
-27
-28
-27
-26
-24
-23
-22
-21
-22
-22
-23
-24
-24
-24
-23
-22
-20
-18
-16
-14
-11
-7
-1
8
19
32
47
63
80
94
106
113
115
111
100
83
61
36
8
-20
-46
-68
-86
-98
-103
-104
-99
-92
-82
-71
-60
-51
-43
-36
-31
-28
-26
-24
-23
-23
-23
-23
-23
-23
-24
-24
-23
-23
-22
-22
-21
-21
-20
-20
-19
-19
-18
-18
-17
-16
-15
-15
-14
-13
-13
-12
-10
-9
-8
-6
-5
-5
-4
-4
-3
-3
-2
-1
0
1
3
4
6
7
8
9
10
12
13
15
17
19
21
23
25
27
29
31
33
35
37
39
40
42
45
48
51
54
58
61
63
65
66
66
65
64
63
62
61
61
60
59
58
56
53
50
46
42
38
35
33
32
31
30
30
29
27
24
20
16
12
8
4
2
0
-1
-1
-2
-3
-4
-5
-7
-9
-11
-12
-13
-14
-14
-14
-13
-13
-13
-14
-14
-14
-14
-14
-14
-14
-13
-13
-12
-12
-13
-14
-15
-16
-16
-17
-16
-16
-16
-15
-15
-15
-15
-15
-15
-15
-15
-14
-14
-13
-13
-14
-15
-17
-18
-20
-20
-21
-20
-19
-17
-15
-14
-14
-15
-17
-19
-22
-24
-25
-26
-25
-24
-22
-20
-19
-19
-19
-20
-21
-22
-22
-22
-20
-19
-17
-15
-13
-13
-13
-13
-13
-13
-13
-12
-11
-10
-9
-8
-7
-7
-7
-7
-7
-6
-5
-3
-2
-2
-2
-3
-4
-5
-7
-7
-7
-6
-4
-2
0
1
1
0
-2
-5
-8
-11
-13
-15
-16
-16
-16
-16
-17
-17
-18
-19
-21
-22
-23
-24
-24
-24
-24
-23
-23
-22
-22
-22
-22
-22
-22
-21
-21
-20
-18
-16
-14
-10
-5
2
11
22
36
51
67
84
99
111
119
122
118
108
91
69
42
14
-14
-40
-62
-80
-92
-99
-99
-96
-88
-79
-68
-57
-47
-38
-32
-28
-25
-25
-25
-25
-25
-25
-25
-24
-24
-23
-22
-22
-22
-22
-22
-22
-22
-21
-20
-19
-17
-15
-14
-13
-12
-12
-11
-11
-11
-11
-10
-9
-8
-7
-5
-4
-3
-1
0
1
2
3
3
4
4
5
6
7
9
11
13
15
17
19
20
21
22
22
22
23
25
27
30
33
36
39
42
45
47
49
51
53
56
58
60
61
62
63
62
62
61
60
60
60
60
60
60
60
59
57
55
53
50
48
46
44
42
39
37
34
30
26
22
19
16
14
13
12
11
10
9
7
5
2
-1
-4
-5
-6
-6
-6
-5
-4
-4
-5
-5
-7
-8
-10
-11
-12
-12
-11
-10
-9
-8
-7
-6
-5
-5
-5
-5
-6
-7
-9
-11
-13
-14
-15
-15
-14
-13
-11
-9
-8
-7
-6
-7
-8
-9
-10
-11
-12
-13
-13
-12
-12
-11
-11
-11
-11
-12
-13
-14
-15
-16
-17
-18
-17
-17
-16
-14
-13
-13
-13
-14
-16
-18
-19
-20
-20
-19
-16
-13
-10
-7
-5
-4
-4
-5
-7
-8
-9
-9
-8
-6
-3
0
2
3
4
3
1
0
-2
-4
-4
-4
-3
-1
0
2
4
4
4
3
1
-2
-5
-8
-11
-14
-16
-17
-18
-18
-18
-18
-18
-18
-19
-20
-21
-22
-23
-24
-24
-25
-25
-24
-24
-23
-22
-21
-19
-18
-18
-17
-17
-17
-17
-16
-14
-10
-4
4
15
29
45
61
78
94
107
116
121
121
114
101
82
59
32
4
-24
-50
-72
-88
-97
-101
-99
-92
-83
-72
-61
-51
-43
-37
-33
-31
-29
-28
-27
-26
-24
-23
-22
-21
-20
-20
-21
-22
-23
-23
-23
-22
-20
-18
-16
-14
-12
-11
-10
-10
-11
-12
-13
-13
-14
-14
-13
-12
-11
-10
-8
-7
-6
-6
-5
-5
-4
-4
-3
-1
1
4
6
9
11
12
13
13
14
14
15
16
18
21
24
27
31
34
37
39
42
43
45
47
49
51
53
55
58
60
61
62
63
63
62
62
62
62
62
62
63
62
62
60
58
55
52
49
46
43
42
40
39
38
36
34
31
28
24
20
17
14
13
12
11
10
9
7
4
1
-2
-5
-8
-9
-10
-9
-8
-7
-6
-5
-5
-5
-6
-7
-9
-9
-10
-10
-10
-10
-10
-9
-9
-9
-9
-8
-8
-8
-8
-8
-9
-9
-9
-9
-9
-8
-8
-8
-8
-8
-8
-9
-10
-11
-12
-13
-13
-12
-12
-12
-11
-12
-13
-14
-15
-16
-17
-17
-17
-17
-16
-16
-15
-15
-15
-15
-15
-16
-15
-15
-15
-14
-13
-13
-12
-12
-12
-12
-12
-11
-10
-9
-8
-6
-5
-4
-3
-3
-3
-2
-2
-1
-1
0
0
1
1
1
1
0
1
1
2
3
4
6
7
8
8
7
6
4
1
-3
-6
-10
-13
-16
-18
-19
-19
-18
-18
-17
-16
-16
-17
-18
-19
-20
-21
-22
-22
-22
-22
-21
-21
-21
-21
-22
-22
-23
-23
-22
-21
-18
-14
-9
-1
9
22
36
52
69
86
102
114
123
125
121
111
94
71
45
16
-12
-39
-62
-81
-94
-101
-102
-99
-93
-83
-73
-62
-52
-44
-38
-34
-32
-31
-31
-32
-33
-33
-32
-31
-29
-28
-26
-25
-25
-25
-26
-27
-28
-28
-28
-27
-25
-23
-21
-20
-19
-18
-18
-19
-19
-19
-18
-17
-15
-12
-9
-6
-4
-2
-2
-3
-4
-6
-7
-7
-6
-4
-1
2
5
8
10
10
10
10
9
10
11
13
15
19
22
25
28
31
33
35
37
38
40
41
43
45
46
48
50
51
53
55
56
58
59
60
60
60
59
58
57
55
54
52
50
48
46
43
40
37
34
30
27
24
21
19
16
14
12
9
7
5
3
1
-2
-4
-6
-8
-9
-10
-10
-10
-10
-10
-10
-11
-12
-14
-16
-17
-18
-19
-18
-17
-16
-15
-14
-14
-14
-16
-17
-19
-20
-21
-21
-20
-19
-18
-17
-16
-16
-16
-17
-18
-19
-20
-21
-21
-21
-22
-22
-22
-22
-21
-21
-20
-20
-19
-19
-20
-21
-22
-24
-25
-26
-27
-27
-26
-25
-23
-22
-22
-22
-22
-23
-24
-25
-25
-25
-25
-24
-23
-22
-22
-21
-21
-20
-20
-20
-19
-18
-17
-16
-14
-12
-11
-9
-8
-7
-7
-7
-8
-9
-10
-12
-12
-13
-12
-11
-10
-8
-7
-5
-4
-4
-4
-4
-5
-6
-8
-10
-13
-16
-19
-22
-24
-26
-28
-28
-28
-27
-25
-24
-23
-22
-22
-23
-24
-26
-28
-29
-30
-31
-31
-30
-29
-27
-26
-25
-23
-22
-21
-19
-16
-12
-6
1
11
23
38
53
69
85
99
110
116
116
110
97
78
54
26
-3
-32
-58
-79
-94
-103
-106
-103
-96
-85
-74
-62
-51
-41
-33
-28
-24
-22
-22
-22
-22
-23
-24
-24
-25
-25
-25
-24
-23
-22
-21
-20
-18
-17
-16
-16
-15
-15
-14
-14
-13
-12
-12
-11
-11
-11
-11
-11
-11
-10
-9
-8
-6
-4
-2
-1
1
2
2
2
3
3
4
5
6
9
11
14
16
18
20
22
23
25
26
28
31
33
36
40
43
46
48
51
53
54
56
58
59
61
62
63
64
65
65
65
65
64
64
63
62
62
61
61
60
58
57
55
52
50
47
44
41
39
37
35
33
31
29
26
23
20
16
12
8
5
2
0
-2
-3
-4
-4
-5
-6
-7
-7
-8
-9
-9
-9
-8
-8
-8
-7
-7
-8
-8
-9
-9
-10
-10
-10
-10
-10
-9
-9
-8
-8
-8
-9
-9
-10
-11
-12
-13
-14
-14
-13
-13
-12
-10
-9
-8
-7
-7
-7
-7
-8
-9
-10
-10
-11
-12
-12
-12
-13
-13
-14
-14
-14
-14
-14
-13
-12
-10
-9
-8
-6
-5
-4
-4
-4
-4
-5
-6
-8
-9
-9
-9
-8
-6
-3
-1
2
3
3
3
1
-2
-4
-6
-8
-8
-8
-6
-4
-2
0
0
0
-1
-3
-6
-8
-10
-11
-12
-12
-12
-13
-13
-14
-16
-17
-18
-18
-19
-18
-18
-17
-16
-15
-15
-15
-15
-16
-16
-17
-17
-17
-16
-15
-14
-12
-10
-8
-6
-3
1
5
10
17
26
36
48
60
71
81
88
90
88
80
66
47
25
2
-21
-43
-61
-76
-85
-90
-91
-87
-81
-73
-63
-53
-44
-35
-28
-23
-21
-19
-19
-20
-20
-20
-20
-18
-17
-15
-13
-12
-12
-12
-13
-13
-13
-12
-10
-8
-6
-5
-3
-3
-3
-4
-4
-5
-5
-4
-3
-2
-1
1
2
2
3
3
4
4
5
5
6
7
9
10
11
12
13
15
17
19
21
23
25
26
28
28
29
30
31
33
36
40
43
47
50
53
56
58
59
61
62
63
65
67
69
70
72
73
73
73
73
72
71
70
69
67
65
62
59
56
53
50
47
45
42
40
38
36
34
32
29
26
23
20
16
13
11
9
8
7
7
6
5
3
1
-1
-3
-4
-5
-5
-5
-4
-3
-3
-3
-3
-5
-6
-8
-9
-10
-10
-10
-9
-8
-7
-6
-5
-5
-5
-5
-6
-6
-7
-7
-7
-7
-7
-7
-7
-8
-8
-9
-10
-11
-12
-13
-15
-16
-17
-17
-17
-17
-17
-16
-15
-14
-13
-13
-13
-13
-13
-12
-12
-11
-10
-9
-9
-9
-9
-10
-10
-11
-11
-10
-9
-8
-6
-5
-4
-4
-4
-5
-6
-8
-8
-9
-9
-9
-9
-9
-9
-10
-10
-11
-11
-10
-10
-10
-9
-9
-10
-11
-14
-16
-18
-20
-21
-22
-21
-21
-20
-20
-20
-22
-23
-25
-26
-27
-26
-25
-23
-21
-20
-19
-20
-21
-23
-25
-26
-26
-25
-22
-18
-13
-7
-1
6
13
22
32
42
53
62
69
72
71
65
55
40
21
1
-19
-37
-53
-65
-74
-79
-80
-78
-74
-68
-61
-54
-47
-40
-35
-31
-29
-28
-27
-27
-26
-26
-25
-24
-22
-21
-19
-19
-18
-18
-19
-19
-19
-18
-17
-16
-15
-14
-13
-12
-12
-12
-12
-13
-13
-14
-14
-14
-14
-13
-12
-11
-10
-8
-7
-5
-3
-2
-1
0
1
2
2
2
2
3
3
4
6
8
10
12
14
17
19
21
22
24
26
29
32
35
39
42
45
48
50
52
53
53
54
55
55
56
56
57
57
56
55
54
52
51
49
48
47
46
45
43
41
39
36
32
29
25
21
18
15
13
11
10
10
9
8
7
5
2
0
-3
-6
-8
-10
-12
-13
-13
-14
-15
-15
-16
-17
-17
-17
-17
-16
-15
-14
-13
-13
-13
-14
-15
-15
-16
-16
-16
-16
-16
-16
-16
-16
-16
-17
-17
-17
-17
-17
-16
-15
-15
-14
-14
-13
-13
-13
-14
-13
-13
-13
-13
-12
-11
-11
-11
-11
-11
-11
-12
-13
-14
-14
-14
-14
-13
-11
-9
-8
-6
-5
-5
-6
-7
-8
-9
-10
-11
-11
-11
-11
-11
-10
-10
-10
-11
-11
-11
-11
-11
-11
-10
-11
-11
-12
-14
-16
-19
-21
-24
-26
-28
-30
-30
-31
-30
-29
-28
-27
-25
-24
-23
-23
-22
-23
-23
-24
-24
-24
-24
-23
-22
-21
-20
-19
-17
-15
-11
-6
1
9
20
31
42
53
62
69
71
70
65
56
42
26
8
-12
-31
-48
-63
-74
-81
-84
-82
-77
-69
-59
-50
-41
-34
-28
-25
-23
-23
-24
-24
-24
-24
-23
-21
-19
-17
-15
-13
-12
-11
-11
-11
-11
-11
-10
-9
-8
-7
-6
-5
-5
-4
-4
-4
-5
-5
-5
-5
-5
-4
-4
-3
-2
-1
0
1
2
3
4
4
5
5
4
4
4
4
4
5
7
9
12
16
20
23
27
30
32
33
34
34
34
34
35
37
39
42
45
47
50
52
53
54
54
54
54
54
55
55
55
56
55
54
53
51
49
46
44
41
39
37
34
33
31
29
27
26
24
22
20
18
15
12
9
6
3
1
-1
-2
-2
-2
-2
-2
-2
-3
-4
-6
-8
-9
-11
-12
-12
-13
-13
-13
-13
-14
-14
-14
-14
-14
-13
-12
-10
-9
-8
-8
-9
-10
-11
-13
-15
-16
-16
-16
-15
-14
-12
-11
-10
-9
-9
-10
-10
-11
-12
-13
-14
-14
-14
-14
-13
-13
-12
-11
-11
-10
-10
-9
-9
-8
-8
-7
-6
-5
-4
-4
-3
-3
-3
-3
-4
-4
-4
-3
-3
-2
-2
-2
-2
-2
-3
-4
-6
-8
-9
-10
-10
-10
-10
-9
-8
-7
-5
-5
-4
-4
-5
-6
-8
-9
-11
-13
-14
-15
-16
-16
-16
-16
-16
-16
-16
-17
-18
-19
-20
-20
-21
-20
-19
-18
-17
-15
-15
-15
-15
-16
-17
-17
-17
-15
-13
-8
-3
5
13
24
35
47
59
70
79
86
88
86
80
68
53
34
14
-6
-24
-39
-51
-60
-65
-67
-66
-64
-60
-55
-49
-43
-37
-32
-27
-23
-21
-19
-20
-20
-22
-23
-23
-23
-22
-20
-19
-17
-16
-15
-14
-14
-14
-14
-14
-13
-12
-11
-11
-11
-11
-11
-12
-12
-12
-11
-11
-10
-9
-8
-7
-6
-6
-5
-4
-3
-2
-1
1
2
3
3
4
4
5
5
6
7
9
10
12
14
16
18
20
22
25
27
29
30
32
34
36
38
40
42
44
46
49
51
53
55
56
57
57
57
56
55
54
52
50
47
45
43
42
40
38
37
34
32
30
27
24
22
20
19
17
16
15
13
11
8
5
1
-2
-4
-6
-6
-6
-6
-5
-5
-5
-6
-7
-9
-10
-11
-12
-12
-11
-10
-9
-8
-7
-7
-8
-9
-10
-12
-13
-14
-14
-15
-15
-14
-14
-13
-12
-10
-10
-9
-9
-10
-11
-12
-13
-14
-15
-15
-14
-13
-12
-11
-11
-11
-11
-12
-13
-14
-14
-14
-13
-12
-11
-11
-10
-10
-11
-11
-12
-13
-12
-12
-10
-9
-7
-6
-5
-4
-4
-4
-4
-5
-5
-4
-4
-2
-1
0
1
2
2
2
2
1
0
-1
-3
-4
-5
-5
-5
-5
-4
-3
-2
-1
-1
0
-1
-1
-2
-3
-5
-6
-7
-9
-10
-11
-12
-13
-15
-15
-16
-16
-17
-16
-16
-16
-16
-16
-16
-17
-18
-18
-18
-18
-18
-17
-16
-16
-15
-15
-14
-13
-11
-8
-3
4
13
24
35
48
60
71
80
87
91
91
87
79
67
51
33
12
-8
-28
-44
-57
-66
-70
-69
-66
-60
-53
-46
-40
-34
-30
-26
-24
-22
-21
-20
-20
-20
-20
-20
-19
-19
-18
-17
-16
-15
-14
-13
-12
-12
-12
-11
-11
-11
-10
-10
-10
-10
-11
-12
-13
-14
-15
-15
-14
-12
-10
-7
-4
-2
0
0
0
-1
-2
-3
-4
-4
-2
0
2
5
7
9
10
11
12
12
14
15
18
21
24
27
30
32
34
36
37
38
40
41
43
46
48
50
53
55
56
57
57
57
56
55
54
52
51
50
49
49
48
48
48
47
45
42
39
35
30
26
22
20
18
17
17
17
17
16
15
13
11
8
5
3
0
-1
-3
-4
-6
-7
-8
-9
-11
-12
-12
-12
-12
-11
-11
-10
-9
-9
-10
-10
-11
-12
-13
-13
-13
-12
-11
-11
-10
-10
-10
-10
-11
-13
-14
-14
-15
-15
-14
-14
-13
-13
-13
-14
-14
-14
-15
-15
-15
-15
-14
-14
-14
-14
-14
-14
-14
-14
-13
-13
-13
-12
-12
-12
-13
-13
-13
-13
-13
-13
-13
-12
-12
-12
-13
-14
-15
-16
-17
-18
-18
-17
-16
-14
-11
-9
-7
-5
-4
-4
-5
-6
-8
-9
-10
-10
-10
-9
-7
-5
-3
-1
0
0
0
-1
-3
-4
-6
-8
-8
-9
-8
-8
-7
-6
-6
-6
-6
-7
-8
-9
-10
-11
-12
-13
-13
-14
-15
-16
-16
-17
-18
-19
-19
-19
-18
-18
-17
-16
-15
-14
-14
-14
-14
-15
-16
-16
-17
-16
-15
-14
-11
-8
-4
1
8
16
26
38
52
66
80
93
103
108
108
101
90
73
52
30
7
-14
-33
-48
-59
-66
-69
-69
-66
-61
-54
-47
-40
-34
-28
-24
-21
-20
-19
-19
-19
-20
-20
-21
-21
-20
-20
-20
-19
-18
-17
-16
-16
-15
-14
-14
-14
-15
-15
-16
-16
-15
-15
-14
-13
-11
-10
-9
-9
-8
-8
-7
-7
-6
-5
-4
-4
-3
-3
-3
-3
-2
-1
0
1
3
5
7
9
11
12
14
15
16
17
18
19
21
22
24
26
28
31
34
37
39
42
45
47
49
50
52
53
54
54
55
55
54
53
52
51
50
49
48
48
48
47
47
46
45
42
39
36
32
29
26
23
20
19
17
16
14
13
11
8
6
3
1
-1
-3
-4
-5
-6
-7
-8
-9
-10
-11
-12
-12
-12
-11
-11
-11
-11
-12
-14
-16
-17
-19
-19
-19
-18
-16
-15
-14
-13
-12
-13
-14
-15
-16
-17
-17
-17
-16
-15
-15
-15
-16
-17
-18
-19
-20
-20
-20
-19
-17
-16
-14
-14
-14
-14
-16
-18
-19
-21
-21
-21
-20
-19
-18
-17
-17
-17
-17
-18
-18
-19
-19
-19
-18
-18
-17
-17
-16
-16
-16
-15
-15
-13
-12
-11
-9
-8
-8
-8
-8
-8
-9
-9
-8
-7
-6
-4
-3
-2
-2
-2
-3
-3
-4
-4
-3
-2
0
1
2
3
4
3
3
2
1
0
-1
-3
-3
-4
-5
-5
-5
-5
-4
-3
-1
1
2
3
3
2
1
-2
-6
-10
-13
-17
-19
-20
-20
-19
-17
-15
-13
-11
-9
-9
-9
-10
-11
-12
-12
-12
-12
-12
-12
-12
-12
-13
-13
-13
-11
-8
-3
4
13
23
36
49
62
76
88
99
107
112
113
109
100
85
66
44
21
-3
-25
-43
-57
-66
-71
-71
-68
-63
-57
-50
-43
-37
-31
-26
-22
-18
-16
-15
-15
-15
-15
-16
-17
-18
-18
-18
-17
-17
-16
-16
-15
-15
-14
-13
-12
-11
-9
-8
-7
-7
-7
-7
-8
-8
-9
-9
-9
-8
-7
-6
-4
-2
-1
0
1
1
1
1
2
3
4
5
6
7
8
9
10
10
11
12
13
15
17
19
20
22
23
24
26
27
30
33
36
40
44
47
49
50
50
50
50
50
51
53
55
57
60
61
62
61
60
57
55
53
51
50
48
47
46
44
41
38
35
31
28
25
23
21
19
18
16
14
11
9
6
4
2
1
0
-1
-1
-2
-3
-4
-5
-6
-7
-8
-9
-9
-10
-10
-10
-10
-10
-10
-10
-10
-10
-11
-11
-12
-13
-13
-13
-13
-12
-12
-11
-10
-10
-10
-11
-12
-13
-13
-14
-13
-12
-11
-10
-9
-9
-9
-10
-11
-12
-13
-14
-15
-15
-15
-14
-14
-14
-14
-13
-13
-13
-12
-12
-12
-12
-12
-13
-14
-15
-16
-17
-18
-18
-18
-17
-17
-17
-16
-17
-17
-17
-17
-16
-16
-15
-14
-13
-12
-12
-12
-13
-14
-15
-16
-17
-17
-18
-18
-18
-18
-18
-18
-18
-17
-17
-16
-15
-14
-13
-12
-11
-9
-8
-6
-5
-4
-4
-4
-5
-6
-7
-7
-8
-8
-7
-6
-4
-3
-2
-2
-2
-2
-3
-3
-3
-3
-2
-1
0
0
-1
-3
-6
-9
-13
-17
-19
-21
-21
-21
-20
-18
-17
-16
-16
-17
-18
-19
-20
-20
-21
-20
-20
-19
-18
-18
-17
-17
-18
-18
-19
-19
-19
-18
-16
-13
-9
-2
6
17
30
44
60
75
89
100
108
112
111
104
92
76
56
34
10
-13
-34
-52
-66
-76
-81
-81
-77
-70
-62
-52
-43
-35
-29
-25
-23
-22
-23
-23
-24
-25
-24
-23
-22
-20
-18
-16
-14
-13
-13
-14
-14
-15
-16
-16
-16
-15
-14
-13
-11
-10
-9
-8
-8
-8
-8
-8
-8
-7
-6
-5
-5
-4
-4
-3
-3
-3
-2
-1
1
2
4
5
5
5
5
4
4
4
5
7
10
13
17
21
24
26
28
30
31
33
35
37
40
43
46
49
50
51
50
50
49
49
50
51
52
54
55
56
56
55
54
52
50
49
47
46
46
45
44
43
42
40
38
36
34
32
29
27
24
20
17
13
10
7
4
1
0
-2
-3
-4
-5
-6
-7
-8
-9
-10
-10
-10
-10
-10
-9
-9
-9
-9
-9
-9
-10
-10
-10
-10
-10
-10
-11
-11
-12
-13
-14
-15
-15
-15
-14
-14
-13
-13
-13
-14
-15
-16
-16
-17
-17
-17
-16
-14
-13
-12
-11
-11
-11
-12
-13
-14
-15
-16
-17
-17
-17
-17
-17
-17
-17
-16
-16
-16
-16
-15
-15
-15
-16
-16
-17
-18
-19
-20
-21
-21
-22
-21
-20
-19
-18
-17
-17
-17
-18
-19
-20
-21
-22
-22
-21
-21
-20
-19
-19
-20
-21
-23
-24
-24
-24
-23
-21
-18
-15
-13
-11
-10
-11
-12
-14
-15
-16
-16
-15
-14
-12
-10
-8
-7
-6
-6
-6
-7
-8
-9
-10
-10
-11
-12
-12
-12
-11
-10
-9
-8
-7
-7
-7
-8
-10
-12
-14
-16
-19
-21
-22
-23
-24
-25
-27
-28
-29
-30
-31
-32
-32
-31
-31
-30
-29
-28
-27
-26
-25
-24
-23
-22
-21
-21
-20
-20
-20
-18
-16
-12
-6
2
14
27
43
60
76
92
105
114
118
117
109
94
74
50
23
-5
-32
-55
-75
-88
-96
-98
-95
-89
-81
-71
-62
-53
-47
-42
-39
-37
-37
-37
-36
-36
-35
-35
-34
-33
-32
-33
-33
-34
-35
-35
-35
-33
-31
-28
-25
-22
-20
-18
-18
-18
-18
-19
-18
-18
-16
-14
-11
-9
-6
-4
-2
-1
0
1
2
2
3
3
3
3
3
3
4
5
7
10
12
15
18
20
22
23
23
24
25
26
28
31
33
36
39
41
43
45
47
49
52
54
57
59
61
62
63
64
64
64
64
64
64
64
64
64
63
62
61
59
57
55
53
51
50
48
46
43
40
36
31
27
23
19
16
15
14
14
14
14
13
12
11
8
5
2
0
-2
-4
-5
-5
-5
-4
-4
-3
-3
-3
-3
-3
-3
-2
-2
-2
-3
-3
-4
-6
-7
-9
-9
-9
-8
-6
-4
-2
-1
-1
-1
-3
-5
-6
-7
-7
-6
-3
-1
2
3
3
2
0
-2
-5
-7
-7
-6
-5
-2
0
2
3
3
2
1
0
-1
-1
-1
0
2
3
3
3
2
1
-1
-3
-5
-5
-6
-5
-4
-2
-1
0
1
1
1
0
0
0
-1
-1
-1
-2
-2
-3
-3
-3
-4
-3
-3
-2
-2
-1
-1
-1
-1
-2
-2
-2
-2
-2
-1
0
1
2
3
4
4
5
5
6
7
7
8
9
9
9
8
8
8
8
8
9
10
10
11
11
10
9
9
8
8
8
9
9
9
7
5
2
-2
-6
-10
-13
-14
-14
-12
-10
-8
-6
-5
-5
-5
-7
-9
-11
-12
-13
-14
-14
-14
-14
-14
-14
-14
-14
-14
-14
-13
-12
-10
-6
0
8
18
30
43
58
74
89
104
116
125
130
129
124
112
94
72
46
17
-11
-36
-58
-74
-85
-88
-87
-81
-72
-62
-52
-43
-35
-29
-25
-22
-20
-19
-18
-17
-17
-17
-18
-19
-20
-21
-21
-21
-20
-19
-18
-16
-15
-15
-14
-14
-14
-13
-12
-11
-10
-9
-8
-8
-8
-9
-9
-9
-9
-8
-5
-2
1
3
6
7
7
6
4
2
0
-1
-1
0
2
4
7
9
11
13
14
15
16
18
20
22
24
27
29
32
34
36
37
39
40
41
43
45
47
50
52
54
55
56
57
57
58
58
59
59
60
60
60
59
58
56
54
52
49
47
45
43
40
38
35
32
29
26
23
21
18
17
15
13
11
9
7
4
2
-1
-3
-4
-5
-5
-5
-5
-5
-5
-6
-7
-8
-9
-10
-11
-12
-12
-12
-12
-13
-13
-14
-15
-16
-17
-18
-18
-17
-16
-14
-13
-12
-11
-11
-11
-12
-13
-13
-14
-14
-15
-15
-15
-15
-15
-16
-17
-17
-18
-18
-18
-17
-16
-16
-16
-16
-17
-18
-20
-21
-22
-22
-23
-23
-23
-22
-22
-21
-21
-20
-19
-18
-17
-17
-17
-18
-19
-20
-22
-23
-24
-25
-25
-24
-23
-22
-21
-20
-20
-20
-20
-20
-21
-21
-21
-22
-22
-23
-24
-25
-25
-25
-25
-24
-23
-21
-19
-18
-16
-15
-14
-14
-13
-13
-13
-12
-12
-11
-10
-9
-8
-7
-7
-6
-6
-7
-7
-7
-7
-8
-7
-7
-6
-6
-6
-5
-6
-6
-8
-9
-11
-13
-15
-17
-19
-20
-21
-23
-24
-25
-26
-27
-28
-28
-28
-28
-27
-26
-25
-25
-24
-24
-25
-25
-26
-26
-26
-26
-26
-26
-25
-25
-24
-23
-20
-14
-7
3
16
30
47
63
80
95
108
118
123
122
116
104
85
62
35
6
-22
-48
-70
-86
-96
-100
-98
-92
-83
-73
-63
-55
-47
-42
-38
-35
-33
-32
-31
-31
-31
-30
-30
-30
-30
-30
-29
-29
-28
-28
-28
-27
-27
-27
-27
-26
-25
-24
-23
-22
-21
-20
-20
-19
-18
-18
-16
-15
-14
-13
-12
-11
-11
-11
-11
-11
-11
-10
-8
-5
-3
0
2
4
4
4
4
3
3
4
6
9
13
16
19
22
23
24
25
26
27
30
32
36
39
43
46
48
49
50
51
51
52
53
54
55
56
57
57
57
56
56
55
54
54
53
52
51
49
47
44
41
38
35
33
31
29
27
25
23
20
17
13
10
7
4
2
0
-1
-2
-3
-3
-4
-4
-5
-6
-7
-8
-9
-10
-11
-11
-11
-11
-11
-10
-10
-10
-10
-10
-11
-11
-11
-11
-11
-11
-11
-11
-12
-12
-13
-13
-13
-13
-12
-11
-10
-10
-11
-11
-13
-14
-15
-15
-15
-14
-13
-12
-11
-11
-11
-12
-13
-14
-14
-15
-15
-15
-14
-14
-14
-14
-14
-14
-14
-14
-14
-13
-13
-13
-13
-14
-16
-17
-19
-20
-21
-21
-20
-18
-17
-15
-14
-14
-15
-16
-17
-18
-18
-19
-18
-18
-17
-17
-17
-17
-17
-17
-17
-16
-16
-15
-13
-12
-11
-10
-9
-8
-8
-7
-7
-6
-5
-4
-3
-3
-3
-3
-3
-3
-4
-4
-3
-2
-2
-1
0
0
0
0
0
0
0
0
-1
-1
-3
-4
-6
-9
-11
-13
-15
-17
-18
-18
-19
-19
-20
-20
-20
-20
-19
-19
-19
-18
-18
-19
-19
-20
-20
-21
-21
-20
-19
-18
-17
-15
-13
-10
-5
2
12
25
40
58
77
95
111
124
133
136
133
124
109
90
67
41
14
-12
-37
-58
-75
-87
-92
-92
-87
-78
-67
-56
-45
-37
-30
-26
-24
-24
-24
-24
-24
-23
-22
-22
-21
-21
-21
-22
-23
-23
-23
-23
-23
-22
-20
-18
-16
-14
-13
-11
-10
-9
-9
-9
-9
-9
-10
-10
-9
-8
-7
-5
-4
-2
-1
0
0
0
0
-1
-1
0
1
3
5
8
11
13
16
18
20
22
23
23
24
25
26
28
30
33
36
39
42
45
47
49
51
53
55
56
58
59
60
61
62
62
62
62
62
62
61
61
60
59
58
56
54
52
50
48
46
45
43
42
40
38
35
32
29
26
24
22
20
19
18
16
14
12
10
7
5
2
1
0
-1
-1
-1
-2
-3
-5
-7
-9
-11
-12
-12
-12
-11
-9
-8
-7
-8
-8
-10
-11
-13
-14
-14
-14
-13
-12
-11
-10
-10
-10
-11
-12
-13
-14
-14
-14
-14
-13
-13
-13
-12
-13
-13
-13
-14
-14
-15
-15
-15
-15
-15
-15
-14
-13
-13
-12
-12
-12
-12
-13
-14
-16
-18
-19
-20
-20
-20
-19
-19
-18
-18
-17
-18
-18
-18
-18
-18
-18
-17
-16
-16
-16
-16
-17
-17
-18
-18
-17
-16
-14
-12
-10
-9
-8
-8
-8
-9
-9
-8
-7
-6
-4
-2
-1
0
-1
-2
-3
-5
-6
-7
-6
-5
-4
-2
-1
0
0
0
-1
-1
-2
-2
-2
-2
-3
-4
-5
-8
-10
-13
-15
-16
-17
-18
-18
-17
-17
-17
-17
-17
-17
-18
-18
-19
-19
-19
-18
-18
-17
-17
-16
-16
-15
-15
-14
-13
-12
-10
-7
-3
3
11
22
35
49
65
81
96
109
119
124
124
117
104
84
59
31
2
-27
-52
-73
-87
-94
-95
-90
-81
-70
-59
-48
-39
-33
-29
-26
-25
-25
-25
-24
-22
-21
-19
-17
-15
-14
-14
-14
-14
-14
-14
-13
-13
-12
-11
-10
-9
-9
-9
-9
-9
-10
-9
-9
-8
-6
-4
-3
-1
0
0
1
1
0
0
0
0
1
1
3
4
5
7
8
10
10
11
11
12
12
12
14
15
18
21
25
28
32
35
38
40
42
43
44
46
47
49
51
54
56
58
60
62
63
65
65
66
66
66
65
64
63
62
61
60
59
58
57
56
55
53
50
46
42
39
35
32
30
29
28
27
25
23
20
17
13
8
5
2
-1
-2
-3
-3
-3
-3
-3
-3
-4
-5
-6
-7
-8
-10
-11
-12
-12
-13
-13
-13
-13
-12
-11
-10
-9
-8
-7
-7
-7
-8
-9
-10
-11
-12
-13
-13
-13
-12
-12
-11
-11
-11
-11
-12
-12
-13
-14
-15
-15
-16
-16
-16
-16
-16
-16
-16
-16
-16
-15
-15
-14
-14
-14
-15
-16
-17
-18
-18
-19
-18
-17
-16
-15
-14
-13
-14
-14
-15
-16
-17
-17
-16
-15
-13
-10
-8
-7
-6
-6
-6
-7
-8
-8
-8
-7
-6
-4
-3
-2
-1
-1
-2
-4
-5
-7
-9
-10
-10
-9
-8
-6
-4
-2
-1
0
-1
-2
-5
-8
-11
-15
-18
-20
-22
-22
-22
-22
-21
-20
-20
-21
-21
-22
-23
-24
-24
-24
-23
-22
-20
-19
-19
-19
-19
-20
-21
-21
-21
-21
-19
-16
-13
-8
-3
3
11
20
30
42
55
68
81
91
98
100
96
86
70
50
26
0
-25
-47
-66
-81
-90
-95
-95
-92
-85
-77
-67
-57
-47
-39
-32
-26
-23
-22
-23
-24
-27
-29
-31
-31
-31
-30
-28
-26
-23
-21
-19
-18
-18
-18
-18
-19
-20
-20
-20
-20
-19
-17
-16
-15
-13
-13
-12
-12
-12
-12
-12
-11
-10
-9
-7
-6
-4
-3
-3
-2
-2
-1
-1
0
1
3
4
6
8
9
10
12
13
15
16
18
19
21
23
24
26
28
31
33
36
39
41
44
47
49
51
52
52
52
52
52
51
51
51
51
52
53
53
54
53
53
51
49
47
44
41
39
37
34
32
30
27
24
20
16
13
9
6
4
2
0
-1
-2
-3
-4
-6
-8
-9
-11
-11
-12
-12
-11
-10
-10
-10
-10
-11
-12
-13
-14
-14
-15
-15
-14
-14
-14
-14
-14
-14
-15
-15
-16
-16
-16
-15
-15
-15
-15
-15
-15
-15
-15
-15
-14
-13
-12
-12
-12
-12
-14
-16
-18
-20
-21
-21
-20
-19
-16
-14
-13
-12
-12
-13
-15
-17
-19
-21
-21
-21
-19
-18
-16
-15
-14
-14
-14
-14
-14
-14
-13
-13
-12
-11
-11
-10
-10
-9
-9
-8
-7
-6
-6
-5
-4
-4
-4
-4
-3
-4
-4
-4
-4
-4
-5
-5
-6
-6
-6
-6
-6
-5
-5
-4
-4
-4
-5
-7
-9
-12
-14
-17
-19
-21
-21
-21
-21
-20
-20
-19
-19
-20
-21
-22
-23
-24
-24
-24
-23
-22
-20
-19
-18
-18
-19
-19
-19
-17
-14
-9
-1
8
19
32
45
58
70
81
90
96
99
97
91
79
63
43
19
-5
-30
-52
-70
-84
-92
-95
-93
-88
-79
-69
-59
-49
-41
-34
-30
-27
-25
-25
-25
-25
-25
-24
-23
-21
-19
-17
-16
-15
-15
-16
-17
-18
-18
-18
-17
-15
-14
-12
-10
-10
-10
-11
-12
-14
-15
-16
-17
-16
-15
-13
-11
-8
-6
-4
-2
-1
-1
-1
-1
-2
-2
-2
-1
0
2
4
6
7
9
10
11
12
13
14
16
18
21
25
28
31
34
36
38
40
41
42
44
46
48
50
53
54
55
56
56
56
55
55
54
54
54
54
55
54
54
53
52
50
48
45
42
38
35
31
27
24
21
18
16
15
13
12
11
9
6
4
2
0
-2
-3
-4
-4
-4
-5
-6
-7
-9
-11
-12
-13
-14
-13
-12
-10
-9
-8
-7
-8
-10
-12
-14
-16
-17
-17
-17
-15
-14
-12
-11
-10
-10
-10
-11
-11
-11
-11
-11
-11
-11
-12
-13
-14
-16
-17
-17
-17
-16
-14
-12
-11
-10
-9
-9
-10
-11
-12
-13
-14
-14
-14
-14
-14
-13
-12
-12
-11
-10
-9
-9
-8
-8
-8
-8
-8
-7
-7
-6
-5
-3
-2
0
1
2
2
2
1
1
0
-1
-2
-2
-3
-4
-5
-5
-5
-5
-4
-2
-1
0
1
1
0
-2
-5
-8
-11
-13
-15
-16
-17
-17
-17
-18
-18
-20
-21
-21
-21
-21
-20
-18
-16
-15
-14
-14
-15
-16
-17
-18
-19
-18
-17
-15
-13
-10
-7
-2
3
11
21
33
46
61
76
90
101
107
109
104
94
78
58
34
9
-16
-40
-60
-76
-87
-93
-93
-89
-82
-72
-61
-50
-40
-33
-27
-24
-23
-22
-22
-22
-22
-21
-20
-19
-17
-17
-16
-16
-17
-18
-19
-20
-20
-20
-19
-17
-14
-12
-9
-8
-7
-7
-8
-9
-11
-12
-12
-12
-10
-7
-4
-1
1
3
4
4
3
3
2
1
1
2
3
5
7
8
10
12
14
15
17
19
21
22
24
25
26
27
28
30
32
34
38
41
45
48
51
54
56
58
59
60
61
62
63
63
63
63
62
61
59
57
55
53
52
51
50
50
49
49
48
46
44
41
37
34
30
26
22
19
16
14
12
10
9
7
6
5
3
2
-1
-3
-5
-8
-10
-12
-13
-14
-14
-14
-13
-13
-12
-12
-12
-12
-12
-12
-12
-12
-12
-12
-11
-11
-11
-10
-10
-9
-9
-8
-8
-8
-8
-9
-10
-11
-12
-13
-14
-15
-15
-15
-14
-13
-12
-12
-11
-11
-11
-11
-12
-12
-13
-14
-15
-16
-16
-16
-16
-16
-15
-14
-13
-12
-10
-9
-8
-7
-6
-6
-6
-5
-5
-5
-5
-4
-3
-2
-1
-1
0
0
0
0
-1
-1
-2
-3
-3
-3
-3
-3
-2
-2
-1
0
1
1
2
2
2
2
1
-1
-3
-6
-9
-12
-14
-16
-17
-17
-17
-16
-15
-14
-13
-14
-15
-16
-17
-19
-20
-20
-20
-19
-18
-16
-14
-13
-13
-13
-13
-14
-13
-12
-9
-4
4
14
26
39
53
68
81
93
102
106
106
100
88
70
48
23
-3
-29
-52
-70
-83
-90
-92
-89
-83
-74
-64
-55
-46
-38
-32
-28
-25
-23
-22
-21
-22
-22
-22
-22
-22
-21
-20
-19
-18
-17
-16
-16
-15
-15
-14
-13
-12
-11
-10
-10
-10
-9
-9
-9
-9
-8
-7
-6
-4
-2
-1
0
1
1
1
0
0
-1
-1
0
1
2
4
6
8
10
11
13
13
14
14
14
14
15
16
19
22
25
29
33
36
40
42
44
46
47
48
49
49
50
51
52
54
55
56
57
58
58
58
58
57
57
55
54
53
52
51
50
49
48
46
43
40
37
34
31
29
26
24
22
19
16
12
8
4
1
-2
-4
-5
-5
-5
-6
-6
-7
-8
-10
-11
-12
-14
-14
-15
-15
-16
-16
-16
-16
-16
-16
-15
-13
-12
-11
-10
-9
-10
-11
-12
-13
-14
-15
-16
-16
-16
-16
-16
-16
-16
-16
-16
-17
-17
-17
-17
-17
-17
-17
-18
-18
-18
-18
-18
-18
-18
-17
-17
-17
-17
-17
-18
-18
-19
-19
-19
-18
-17
-16
-15
-14
-13
-12
-11
-11
-11
-11
-11
-10
-10
-8
-7
-6
-4
-3
-3
-4
-5
-7
-10
-12
-14
-15
-15
-13
-12
-9
-7
-4
-3
-2
-2
-3
-4
-6
-9
-11
-14
-16
-18
-20
-22
-23
-24
-24
-24
-24
-23
-23
-22
-22
-22
-23
-24
-24
-25
-26
-27
-27
-28
-29
-29
-30
-30
-30
-29
-27
-25
-21
-17
-11
-4
5
16
29
44
61
78
93
106
114
117
113
102
85
62
36
9
-19
-44
-66
-83
-95
-102
-103
-100
-94
-85
-74
-63
-53
-44
-37
-32
-29
-28
-28
-28
-29
-30
-30
-30
-30
-29
-28
-28
-27
-27
-26
-25
-24
-23
-22
-21
-20
-19
-19
-19
-19
-20
-20
-20
-19
-19
-18
-17
-15
-14
-13
-12
-11
-10
-9
-8
-7
-6
-6
-6
-5
-4
-3
-2
0
2
5
7
9
11
12
13
14
15
17
18
20
23
26
28
31
34
36
37
39
40
42
43
45
47
49
52
54
56
57
58
58
58
57
56
55
53
52
51
50
49
47
46
44
42
40
38
36
33
31
28
26
22
19
16
12
9
7
5
3
2
1
0
-2
-4
-6
-7
-9
-10
-11
-12
-12
-12
-12
-12
-13
-13
-14
-15
-15
-15
-16
-16
-16
-16
-16
-17
-17
-17
-17
-17
-16
-15
-13
-12
-11
-11
-12
-13
-14
-15
-16
-17
-17
-16
-15
-15
-14
-14
-15
-15
-16
-17
-17
-16
-16
-15
-14
-13
-13
-13
-14
-15
-17
-18
-20
-20
-21
-21
-20
-18
-16
-14
-12
-10
-8
-7
-6
-6
-6
-7
-8
-9
-9
-8
-6
-5
-3
-1
0
1
1
-1
-2
-4
-6
-8
-9
-9
-9
-7
-5
-3
-1
1
2
2
2
1
-1
-4
-7
-9
-12
-14
-16
-17
-18
-18
-18
-18
-18
-18
-18
-18
-18
-17
-17
-17
-17
-18
-18
-18
-18
-18
-18
-17
-17
-16
-16
-16
-15
-13
-10
-5
3
13
25
39
54
68
81
93
102
107
107
103
93
77
56
31
4
-24
-49
-70
-86
-95
-98
-95
-87
-77
-65
-54
-45
-37
-31
-27
-24
-22
-21
-20
-20
-20
-21
-22
-23
-24
-24
-24
-23
-21
-19
-17
-16
-14
-13
-13
-13
-13
-13
-13
-13
-13
-12
-11
-10
-8
-6
-4
-2
-1
0
0
0
-1
-2
-3
-3
-2
-1
1
3
5
7
8
9
9
9
9
9
9
10
12
14
17
20
23
26
29
31
33
35
37
39
40
42
44
46
49
51
54
56
58
59
60
60
60
60
60
60
60
59
58
57
56
54
52
50
49
47
46
44
43
41
39
37
34
31
28
25
22
19
17
15
13
11
9
7
5
2
0
-1
-3
-4
-4
-5
-5
-5
-6
-6
-7
-7
-8
-8
-9
-10
-10
-10
-11
-11
-12
-12
-12
-13
-13
-12
-12
-11
-10
-8
-8
-7
-7
-7
-7
-8
-9
-9
-10
-10
-10
-11
-11
-11
-12
-12
-12
-12
-11
-11
-10
-9
-8
-7
-7
-7
-7
-8
-8
-8
-8
-8
-8
-8
-8
-8
-8
-9
-9
-9
-9
-8
-6
-5
-3
-2
-1
0
1
1
1
1
1
1
1
0
0
0
-1
-2
-2
-3
-2
-2
-1
0
1
1
1
0
-2
-4
-6
-9
-11
-13
-14
-15
-15
-16
-17
-18
-20
-21
-23
-24
-24
-23
-22
-21
-19
-18
-16
-15
-15
-14
-14
-15
-15
-16
-16
-16
-16
-15
-12
-6
1
10
22
35
49
63
75
84
90
92
90
83
71
56
37
16
-6
-28
-48
-65
-78
-87
-91
-90
-85
-76
-66
-54
-44
-34
-27
-23
-21
-21
-22
-24
-26
-26
-26
-25
-23
-20
-18
-16
-16
-16
-17
-18
-19
-19
-19
-17
-15
-13
-11
-9
-9
-10
-11
-12
-13
-13
-13
-12
-9
-7
-4
-2
0
1
1
1
0
0
0
0
1
2
4
5
7
9
10
11
11
12
13
15
17
19
22
25
28
31
33
35
36
37
39
41
43
46
49
53
56
59
60
61
60
59
58
57
57
57
58
59
60
62
62
62
61
59
57
54
52
49
46
44
41
39
36
33
30
27
25
22
19
17
15
13
11
9
8
6
5
4
2
1
-1
-2
-4
-5
-6
-7
-8
-9
-10
-10
-11
-12
-13
-13
-14
-14
-13
-12
-11
-11
-10
-10
-10
-10
-10
-10
-10
-10
-10
-9
-9
-10
-10
-12
-13
-15
-17
-17
-17
-17
-16
-15
-13
-12
-12
-12
-12
-12
-11
-11
-11
-10
-10
-9
-10
-10
-11
-12
-13
-13
-13
-13
-12
-11
-10
-9
-9
-9
-9
-9
-9
-8
-8
-7
-5
-4
-3
-1
-1
-1
-1
-1
-2
-3
-4
-5
-5
-6
-6
-6
-6
-6
-5
-4
-4
-3
-3
-4
-5
-7
-9
-11
-14
-16
-17
-18
-19
-20
-20
-20
-21
-21
-22
-23
-23
-23
-23
-22
-21
-19
-18
-17
-17
-16
-16
-17
-17
-17
-18
-18
-17
-15
-13
-8
-2
7
18
31
45
61
76
89
100
106
107
103
93
78
58
35
9
-16
-40
-61
-77
-89
-94
-95
-91
-83
-74
-63
-53
-44
-37
-32
-29
-28
-28
-28
-29
-30
-30
-30
-30
-29
-28
-27
-26
-24
-23
-22
-21
-20
-20
-19
-18
-17
-17
-17
-17
-17
-17
-17
-17
-16
-16
-15
-14
-14
-13
-13
-12
-11
-11
-10
-9
-9
-8
-8
-7
-6
-5
-3
-1
1
3
5
6
7
8
9
10
11
12
14
17
20
24
27
30
33
35
36
37
38
39
41
42
44
46
48
49
51
51
52
53
53
54
55
55
56
55
54
53
51
48
45
43
41
39
38
37
36
35
33
30
26
23
19
16
13
11
9
7
5
3
0
-3
-6
-8
-10
-12
-13
-13
-13
-13
-14
-15
-16
-18
-19
-21
-21
-21
-21
-19
-18
-16
-15
-14
-14
-15
-15
-16
-17
-18
-19
-19
-19
-20
-19
-19
-19
-18
-17
-16
-15
-15
-15
-15
-16
-17
-18
-18
-19
-18
-18
-17
-15
-14
-14
-14
-14
-15
-16
-18
-19
-19
-19
-19
-18
-17
-16
-15
-15
-15
-15
-15
-15
-15
-14
-14
-13
-12
-11
-11
-10
-10
-10
-9
-8
-8
-6
-5
-4
-4
-3
-4
-4
-5
-6
-6
-7
-6
-5
-4
-2
0
1
1
1
0
-1
-2
-4
-6
-8
-9
-11
-13
-14
-16
-18
-20
-21
-22
-22
-22
-21
-19
-17
-16
-15
-14
-14
-15
-17
-18
-20
-22
-23
-23
-23
-23
-22
-22
-21
-20
-19
-16
-11
-4
5
17
30
46
63
80
97
111
123
131
134
131
121
105
83
56
26
-4
-33
-58
-77
-90
-95
-95
-90
-81
-72
-62
-53
-47
-41
-38
-35
-34
-33
-32
-32
-32
-32
-31
-31
-30
-29
-27
-25
-24
-23
-23
-23
-25
-26
-27
-27
-26
-23
-20
-17
-13
-11
-9
-9
-10
-12
-14
-15
-15
-15
-13
-11
-10
-8
-7
-6
-6
-6
-5
-4
-2
0
3
5
7
8
8
8
8
7
7
8
10
13
17
21
24
28
31
34
36
37
39
40
42
44
45
47
49
51
52
54
54
55
55
56
56
57
58
59
59
59
59
58
56
54
51
47
44
41
38
36
35
33
32
30
27
24
21
16
12
9
5
3
2
1
1
1
1
0
-1
-2
-4
-7
-10
-12
-14
-16
-16
-16
-15
-14
-13
-12
-12
-13
-14
-16
-17
-18
-19
-19
-18
-17
-16
-15
-15
-15
-15
-16
-17
-18
-18
-18
-17
-15
-13
-12
-11
-11
-12
-13
-15
-17
-19
-19
-19
-18
-17
-15
-14
-13
-13
-13
-14
-16
-17
-18
-19
-19
-19
-18
-16
-15
-14
-14
-14
-14
-15
-16
-17
-18
-19
-20
-20
-19
-19
-18
-18
-17
-16
-15
-14
-13
-13
-12
-12
-12
-12
-13
-13
-13
-13
-12
-10
-8
-6
-3
-1
0
1
0
-1
-3
-5
-7
-8
-9
-8
-8
-6
-5
-4
-3
-2
-2
-2
-2
-2
-3
-4
-6
-8
-10
-13
-15
-18
-20
-21
-22
-23
-23
-22
-22
-22
-22
-22
-22
-22
-21
-21
-20
-19
-18
-18
-17
-17
-17
-18
-18
-18
-16
-13
-9
-2
7
18
31
46
62
79
95
110
122
130
133
130
120
104
81
55
26
-3
-29
-51
-68
-79
-83
-83
-78
-72
-64
-56
-49
-43
-38
-34
-30
-27
-25
-23
-22
-21
-21
-22
-24
-25
-25
-25
-24
-22
-20
-17
-14
-12
-11
-11
-12
-13
-14
-15
-15
-15
-15
-13
-12
-10
-9
-8
-7
-6
-6
-5
-5
-5
-5
-5
-4
-3
-2
-1
1
2
4
5
5
6
6
7
7
8
10
12
14
17
21
24
27
29
31
32
33
34
35
36
38
41
44
47
50
52
54
55
56
56
57
57
57
58
59
60
60
59
58
57
54
52
49
47
45
43
42
40
39
38
36
34
32
30
28
26
24
23
21
19
17
15
12
9
6
4
1
-1
-2
-3
-4
-4
-4
-4
-5
-5
-6
-7
-8
-8
-9
-9
-9
-9
-8
-8
-8
-8
-8
-9
-10
-10
-11
-11
-11
-10
-10
-9
-7
-6
-5
-5
-5
-5
-5
-5
-5
-6
-6
-6
-6
-6
-6
-6
-6
-6
-7
-7
-8
-9
-10
-12
-13
-13
-13
-13
-12
-11
-10
-9
-8
-8
-8
-8
-9
-10
-10
-11
-11
-11
-10
-9
-8
-7
-7
-7
-6
-7
-7
-7
-8
-8
-7
-6
-5
-3
-1
1
2
4
5
5
5
4
2
1
-1
-3
-4
-5
-5
-4
-3
-1
1
3
4
5
4
3
2
0
-2
-4
-5
-6
-7
-8
-8
-9
-9
-10
-12
-12
-13
-13
-13
-12
-11
-11
-11
-11
-12
-14
-15
-17
-18
-18
-17
-16
-14
-11
-8
-4
-1
3
8
14
20
28
38
49
60
72
83
92
98
100
97
88
74
56
35
12
-11
-32
-49
-62
-70
-73
-72
-68
-62
-55
-47
-40
-34
-29
-25
-23
-21
-20
-20
-20
-21
-21
-22
-21
-20
-18
-16
-14
-12
-11
-11
-11
-13
-14
-16
-17
-17
-16
-14
-12
-10
-9
-9
-10
-11
-13
-13
-13
-12
-10
-8
-5
-3
-2
-2
-2
-3
-4
-4
-4
-2
0
2
5
7
8
9
9
10
10
10
10
11
13
15
17
20
23
26
29
32
35
38
41
44
46
47
48
49
50
50
52
53
55
57
58
60
60
60
58
56
54
52
50
49
49
49
48
48
47
45
42
39
35
31
28
26
24
22
21
19
17
15
12
9
5
2
0
-2
-4
-4
-5
-5
-6
-6
-6
-7
-7
-8
-10
-11
-13
-14
-15
-16
-16
-15
-13
-12
-10
-9
-8
-8
-9
-10
-11
-12
-13
-13
-13
-12
-12
-11
-11
-11
-12
-12
-12
-12
-12
-12
-11
-10
-10
-10
-10
-10
-11
-11
-11
-11
-10
-10
-10
-10
-10
-11
-11
-11
-11
-11
-11
-10
-10
-9
-10
-11
-12
-14
-15
-16
-15
-14
-13
-10
-8
-5
-4
-2
-2
-2
-3
-4
-5
-6
-7
-7
-8
-8
-8
-8
-9
-9
-9
-9
-9
-9
-10
-11
-12
-13
-14
-15
-16
-15
-14
-13
-11
-10
-9
-10
-11
-13
-15
-18
-20
-22
-23
-24
-24
-23
-23
-22
-22
-23
-23
-24
-25
-25
-26
-27
-27
-27
-27
-27
-27
-27
-27
-27
-27
-26
-26
-24
-23
-21
-18
-13
-7
0
9
19
31
43
56
68
77
85
88
87
82
71
57
39
18
-3
-24
-43
-59
-71
-79
-82
-82
-78
-72
-65
-57
-50
-43
-37
-33
-29
-27
-25
-24
-24
-24
-24
-24
-25
-25
-25
-25
-25
-24
-23
-22
-21
-20
-19
-19
-20
-21
-22
-23
-23
-23
-22
-21
-19
-17
-15
-13
-12
-12
-12
-12
-13
-13
-13
-13
-12
-11
-9
-8
-7
-6
-6
-5
-5
-4
-2
0
2
4
6
7
8
9
10
10
11
13
16
19
22
26
29
32
33
35
35
36
38
40
42
45
49
52
54
55
55
54
53
51
50
49
49
49
49
49
48
47
44
42
39
36
33
31
29
27
25
23
20
17
14
11
8
7
6
5
4
3
1
-1
-4
-7
-10
-13
-15
-16
-16
-15
-14
-13
-13
-13
-14
-15
-16
-17
-18
-18
-18
-17
-17
-17
-17
-17
-18
-18
-19
-19
-19
-18
-17
-16
-16
-15
-15
-15
-15
-15
-15
-15
-14
-14
-14
-14
-14
-15
-16
-17
-18
-18
-17
-16
-15
-13
-12
-11
-11
-12
-13
-14
-15
-16
-16
-16
-16
-16
-15
-15
-16
-16
-17
-17
-17
-17
-16
-16
-15
-15
-15
-15
-15
-15
-15
-15
-14
-13
-12
-11
-10
-10
-10
-10
-10
-10
-9
-8
-7
-6
-5
-4
-3
-3
-3
-4
-5
-6
-6
-7
-7
-8
-8
-8
-8
-7
-7
-6
-6
-5
-5
-6
-7
-8
-10
-12
-15
-17
-19
-20
-22
-23
-23
-23
-23
-22
-21
-20
-19
-17
-16
-15
-15
-14
-14
-15
-15
-15
-16
-16
-16
-16
-16
-15
-14
-11
-7
-2
6
15
26
38
52
65
79
91
100
107
109
107
100
88
71
51
29
6
-15
-35
-50
-61
-68
-70
-68
-64
-58
-51
-44
-38
-32
-27
-23
-21
-18
-17
-16
-16
-16
-17
-18
-19
-19
-20
-20
-19
-19
-18
-17
-16
-15
-14
-13
-12
-12
-11
-10
-10
-9
-9
-9
-9
-9
-9
-9
-9
-9
-8
-7
-6
-4
-3
-1
0
1
2
3
3
4
5
6
7
8
9
10
11
12
13
14
16
18
20
23
25
28
31
33
34
36
37
38
40
42
44
47
51
54
57
60
61
62
62
61
60
59
59
59
58
58
58
58
56
55
52
50
47
45
44
42
42
41
40
38
35
32
28
24
21
17
15
13
12
12
12
11
11
9
7
4
2
-1
-3
-5
-6
-7
-7
-7
-6
-6
-5
-5
-4
-4
-4
-5
-5
-6
-7
-8
-8
-8
-8
-8
-8
-7
-7
-6
-6
-6
-6
-6
-7
-8
-8
-8
-9
-9
-9
-9
-10
-10
-11
-11
-12
-12
-13
-13
-13
-12
-12
-11
-11
-11
-10
-11
-11
-11
-11
-12
-12
-12
-11
-11
-10
-10
-10
-10
-10
-10
-11
-11
-11
-11
-11
-11
-11
-11
-11
-12
-12
-13
-14
-14
-14
-14
-12
-11
-9
-8
-7
-6
-6
-7
-7
-7
-7
-7
-5
-4
-2
0
2
3
3
3
2
1
-1
-2
-4
-5
-6
-6
-6
-6
-5
-5
-4
-3
-2
-2
-1
-2
-2
-3
-5
-7
-9
-10
-12
-14
-15
-16
-17
-17
-18
-17
-17
-16
-16
-15
-14
-13
-13
-13
-13
-14
-15
-16
-17
-18
-18
-18
-17
-16
-13
-11
-7
-2
3
10
18
28
40
53
68
82
95
107
114
117
114
105
91
72
50
26
2
-21
-40
-56
-67
-73
-75
-74
-70
-63
-56
-47
-39
-32
-26
-22
-19
-18
-18
-19
-20
-21
-21
-21
-21
-20
-19
-18
-17
-17
-17
-17
-17
-16
-16
-15
-14
-12
-10
-9
-7
-6
-6
-6
-7
-7
-8
-9
-9
-9
-9
-9
-8
-7
-6
-5
-4
-3
-3
-2
-1
0
1
3
5
6
8
10
11
12
13
14
15
17
18
20
22
25
27
29
31
34
36
38
39
41
43
45
46
48
49
50
52
53
54
55
56
57
57
56
56
55
54
53
52
52
51
50
49
48
47
45
43
40
37
35
32
29
27
24
22
19
17
14
11
9
6
4
2
0
-1
-2
-3
-4
-5
-5
-5
-6
-6
-6
-6
-7
-7
-7
-8
-8
-8
-9
-9
-9
-8
-8
-8
-9
-9
-10
-10
-11
-12
-13
-13
-13
-13
-13
-13
-12
-12
-11
-11
-10
-10
-10
-9
-9
-9
-8
-8
-8
-8
-8
-9
-9
-10
-11
-11
-12
-12
-12
-12
-12
-12
-11
-11
-10
-10
-9
-9
-8
-8
-7
-6
-6
-6
-6
-6
-6
-7
-7
-8
-9
-9
-10
-10
-11
-11
-12
-12
-12
-12
-12
-12
-12
-11
-11
-11
-10
-10
-10
-9
-9
-8
-7
-6
-5
-4
-2
-1
1
2
3
3
3
3
2
2
1
0
0
0
0
0
1
1
1
0
0
0
0
0
0
1
2
2
1
-1
-4
-7
-11
-14
-17
-19
-20
-19
-17
-15
-13
-11
-10
-10
-10
-10
-11
-12
-12
-12
-12
-12
-12
-12
-12
-12
-13
-13
-12
-11
-9
-6
-1
6
14
24
36
49
64
78
92
104
113
117
116
110
98
81
60
36
13
-10
-31
-47
-60
-68
-72
-72
-69
-63
-56
-47
-38
-29
-21
-15
-10
-8
-7
-8
-10
-12
-15
-17
-18
-18
-18
-16
-15
-13
-11
-9
-7
-6
-5
-4
-4
-3
-3
-4
-5
-6
-7
-9
