-4
-8
-11
-13
-14
-13
-13
-11
-10
-9
-9
-8
-8
-8
-8
-7
-7
-6
-6
-7
-7
-9
-10
-11
-12
-12
-10
-9
-7
-5
-4
-4
-5
-7
-8
-9
-10
-10
-9
-8
-7
-6
-5
-6
-6
-7
-8
-9
-9
-9
-9
-9
-9
-10
-10
-11
-12
-13
-13
-13
-12
-11
-11
-11
-11
-12
-12
-13
-13
-12
-11
-9
-7
-6
-5
-6
-7
-9
-12
-15
-17
-18
-17
-16
-14
-12
-11
-10
-10
-11
-12
-14
-15
-16
-15
-14
-12
-10
-8
-7
-7
-7
-9
-11
-13
-14
-15
-15
-14
-13
-11
-10
-10
-9
-10
-10
-11
-12
-12
-12
-12
-11
-10
-9
-8
-7
-7
-7
-7
-8
-9
-9
-9
-9
-7
-5
-3
-1
1
1
1
-1
-3
-6
-8
-10
-10
-9
-8
-5
-3
-2
-2
-3
-5
-7
-10
-13
-15
-17
-17
-17
-17
-16
-16
-16
-17
-18
-18
-18
-18
-18
-16
-15
-14
-14
-13
-14
-14
-14
-14
-14
-14
-15
-17
-20
-24
-31
-38
-45
-51
-54
-53
-48
-38
-23
-3
20
46
74
103
135
168
201
233
263
287
302
306
296
273
236
190
139
88
41
4
-22
-36
-40
-37
-31
-23
-18
-15
-16
-18
-22
-24
-25
-23
-21
-18
-15
-14
-14
-15
-17
-19
-20
-20
-19
-17
-15
-14
-13
-13
-13
-14
-14
-13
-12
-10
-8
-6
-5
-4
-4
-4
-5
-5
-5
-4
-3
-2
-2
-1
-1
-1
-1
-1
0
1
2
4
5
7
9
10
12
12
13
13
13
12
12
12
12
14
16
20
25
30
35
39
43
45
46
47
47
47
48
49
51
53
55
58
60
62
63
64
64
63
61
59
57
54
51
48
46
44
43
42
41
40
39
37
35
31
27
22
18
14
10
7
5
4
3
2
1
-1
-2
-5
-7
-9
-11
-12
-13
-14
-14
-14
-14
-15
-15
-16
-16
-17
-17
-17
-17
-17
-17
-18
-18
-19
-20
-20
-21
-20
-20
-18
-17
-15
-14
-13
-13
-14
-16
-17
-19
-20
-21
-20
-19
-18
-17
-16
-16
-16
-16
-17
-18
-19
-20
-20
-20
-20
-19
-18
-17
-15
-14
-12
-11
-10
-10
-11
-12
-14
-16
-18
-20
-21
-20
-19
-17
-14
-12
-11
-11
-12
-13
-16
-18
-20
-20
-20
-18
-17
-15
-13
-12
-12
-12
-13
-14
-14
-14
-14
-14
-14
-14
-14
-15
-16
-17
-18
-19
-19
-18
-18
-18
-18
-18
-18
-18
-17
-16
-15
-15
-14
-14
-15
-16
-18
-20
-22
-22
-22
-21
-19
-18
-17
-17
-17
-18
-20
-21
-22
-22
-21
-19
-17
-15
-14
-14
-15
-16
-18
-20
-22
-23
-24
-24
-23
-22
-20
-19
-17
-15
-13
-11
-9
-8
-7
-7
-8
-10
-12
-13
-14
-15
-14
-13
-11
-9
-8
-7
-6
-7
-7
-9
-11
-12
-13
-14
-15
-15
-14
-14
-13
-12
-12
-11
-11
-12
-14
-16
-19
-22
-25
-27
-28
-27
-26
-23
-21
-19
-18
-18
-21
-24
-28
-32
-34
-34
-33
-30
-27
-25
-25
-28
-34
-41
-48
-53
-53
-49
-39
-24
-4
18
41
65
90
115
143
172
202
232
258
278
287
284
266
236
195
148
100
56
19
-8
-25
-32
-33
-30
-26
-22
-21
-20
-21
-23
-24
-24
-23
-22
-20
-19
-18
-17
-17
-17
-17
-17
-17
-17
-17
-17
-18
-19
-20
-21
-21
-20
-18
-16
-14
-12
-11
-10
-10
-10
-10
-11
-11
-10
-9
-8
-7
-5
-5
-4
-4
-5
-5
-6
-6
-6
-5
-4
-3
-1
1
3
4
6
7
8
9
11
12
14
16
18
20
22
23
25
27
29
30
32
33
35
37
38
40
42
44
46
48
50
52
53
54
54
54
53
51
49
46
44
41
39
37
35
33
31
29
27
25
22
18
15
11
8
5
3
1
-1
-3
-5
-7
-9
-11
-13
-15
-16
-16
-17
-17
-17
-17
-17
-18
-19
-21
-22
-22
-23
-23
-22
-22
-21
-21
-21
-22
-23
-23
-23
-23
-22
-21
-20
-20
-19
-20
-21
-22
-23
-25
-25
-26
-25
-24
-23
-22
-21
-21
-22
-23
-24
-24
-25
-25
-25
-24
-23
-22
-21
-21
-21
-21
-22
-22
-22
-22
-21
-19
-18
-17
-17
-17
-18
-20
-22
-23
-24
-25
-24
-23
-21
-19
-18
-16
-16
-16
-17
-18
-20
-22
-23
-24
-25
-25
-24
-22
-21
-19
-18
-17
-17
-17
-18
-19
-20
-21
-22
-22
-22
-22
-22
-22
-23
-24
-24
-24
-24
-23
-21
-18
-16
-14
-13
-14
-15
-17
-20
-23
-25
-25
-25
-24
-22
-20
-18
-17
-17
-17
-19
-20
-22
-23
-23
-23
-23
-23
-22
-22
-22
-22
-22
-22
-21
-19
-17
-15
-13
-12
-12
-12
-13
-15
-16
-17
-17
-17
-15
-13
-11
-9
-8
-8
-9
-10
-12
-14
-15
-15
-14
-13
-12
-11
-10
-11
-12
-14
-15
-17
-18
-19
-19
-19
-19
-20
-21
-22
-23
-25
-25
-25
-25
-23
-22
-22
-22
-23
-25
-27
-29
-29
-28
-27
-26
-26
-27
-30
-36
-43
-49
-53
-54
-50
-40
-25
-5
17
42
67
93
119
147
175
204
232
257
274
282
278
261
231
191
145
98
56
21
-4
-19
-25
-25
-22
-19
-17
-17
-19
-22
-25
-26
-24
-21
-17
-14
-11
-10
-12
-15
-18
-21
-24
-25
-24
-22
-19
-16
-14
-12
-11
-11
-11
-12
-13
-13
-13
-13
-12
-12
-12
-12
-12
-11
-11
-11
-10
-10
-9
-8
-7
-5
-4
-3
-1
0
1
2
3
3
4
4
5
6
7
8
10
12
14
16
18
20
21
23
24
26
27
29
30
32
33
34
36
37
39
41
43
45
48
50
52
54
55
56
57
57
56
54
52
49
46
42
39
35
33
31
30
30
30
30
29
27
24
20
16
11
7
4
2
0
-1
-3
-5
-7
-10
-13
-16
-17
-18
-18
-17
-15
-14
-13
-13
-15
-17
-19
-20
-21
-20
-19
-17
-16
-15
-15
-15
-17
-19
-21
-22
-22
-21
-19
-17
-16
-15
-16
-17
-19
-21
-22
-23
-22
-21
-18
-16
-14
-13
-14
-15
-17
-18
-20
-21
-20
-20
-18
-17
-15
-15
-15
-16
-17
-18
-19
-20
-20
-19
-18
-17
-16
-16
-15
-16
-16
-16
-16
-16
-16
-16
-16
-16
-17
-18
-19
-20
-21
-21
-21
-20
-18
-17
-15
-14
-13
-12
-12
-12
-12
-13
-14
-15
-16
-17
-17
-18
-18
-18
-17
-17
-17
-17
-18
-20
-21
-22
-22
-22
-20
-19
-17
-15
-14
-14
-15
-16
-18
-19
-20
-20
-18
-16
-14
-12
-11
-10
-12
-14
-16
-19
-20
-21
-21
-19
-18
-16
-16
-16
-17
-18
-20
-22
-22
-22
-21
-18
-16
-14
-12
-12
-13
-15
-17
-19
-21
-21
-21
-19
-16
-13
-10
-8
-6
-5
-4
-5
-5
-6
-7
-7
-8
-9
-10
-11
-12
-13
-13
-13
-13
-11
-9
-7
-5
-4
-3
-4
-6
-9
-12
-16
-19
-21
-22
-22
-21
-20
-19
-19
-18
-18
-19
-20
-20
-21
-22
-22
-22
-23
-23
-23
-23
-22
-22
-21
-21
-22
-24
-28
-33
-38
-43
-47
-48
-45
-38
-26
-10
9
31
55
80
107
135
164
194
224
252
274
288
291
282
260
227
185
138
93
52
18
-5
-19
-25
-24
-21
-18
-15
-15
-15
-17
-19
-19
-18
-15
-12
-8
-6
-5
-5
-7
-10
-13
-16
-17
-18
-18
-18
-17
-16
-15
-14
-14
-14
-13
-13
-14
-14
-14
-14
-13
-12
-10
-8
-6
-4
-2
-2
-2
-3
-4
-6
-6
-6
-5
-3
-1
2
5
6
8
8
8
9
9
10
12
14
16
18
20
22
23
23
24
25
26
28
30
32
35
36
38
39
40
41
42
44
46
48
51
53
55
57
58
58
57
56
54
52
50
49
48
47
46
45
44
42
39
36
32
27
23
18
14
10
7
4
2
0
-2
-4
-6
-7
-8
-9
-10
-10
-11
-12
-13
-14
-15
-16
-17
-17
-16
-15
-13
-12
-11
-11
-12
-13
-15
-17
-18
-19
-20
-20
-19
-18
-17
-16
-15
-15
-14
-14
-14
-13
-14
-14
-15
-17
-19
-20
-21
-22
-21
-19
-17
-14
-11
-9
-8
-9
-10
-11
-13
-14
-15
-15
-15
-14
-14
-14
-14
-15
-16
-17
-18
-17
-16
-14
-12
-11
-10
-9
-10
-12
-14
-16
-18
-19
-20
-20
-19
-18
-17
-16
-15
-15
-15
-15
-15
-14
-13
-12
-11
-11
-10
-10
-11
-12
-13
-14
-15
-16
-17
-17
-16
-16
-15
-14
-13
-12
-12
-13
-14
-15
-17
-18
-19
-19
-18
-17
-16
-15
-13
-13
-13
-15
-16
-18
-20
-22
-22
-22
-21
-19
-17
-15
-14
-13
-13
-14
-15
-17
-18
-20
-21
-21
-21
-20
-18
-17
-16
-15
-15
-16
-17
-19
-20
-21
-22
-21
-20
-19
-17
-16
-15
-15
-16
-17
-19
-20
-20
-21
-21
-21
-21
-21
-21
-21
-21
-21
-21
-21
-21
-20
-20
-20
-20
-20
-21
-21
-20
-19
-18
-17
-15
-14
-14
-14
-15
-17
-18
-20
-20
-21
-20
-19
-18
-16
-15
-13
-12
-12
-12
-12
-13
-13
-14
-14
-15
-14
-14
-13
-12
-11
-9
-9
-8
-8
-8
-9
-10
-11
-11
-12
-12
-12
-12
-11
-11
-10
-11
-11
-12
-14
-16
-18
-20
-22
-23
-24
-23
-22
-21
-19
-18
-17
-16
-17
-17
-18
-19
-21
-23
-24
-26
-27
-27
-27
-26
-24
-22
-21
-21
-24
-29
-36
-45
-52
-57
-58
-53
-42
-25
-4
20
46
72
99
126
155
185
216
246
274
296
308
307
292
263
223
175
125
77
36
5
-15
-25
-28
-26
-22
-18
-15
-14
-13
-13
-13
-13
-12
-12
-11
-12
-13
-15
-16
-17
-17
-16
-14
-13
-11
-11
-12
-13
-15
-17
-18
-18
-17
-16
-14
-13
-12
-12
-12
-12
-12
-12
-11
-10
-8
-7
-7
-7
-8
-8
-9
-8
-7
-5
-2
0
3
5
7
8
9
10
11
12
14
16
18
19
20
19
19
18
18
18
20
23
27
32
35
39
41
42
42
41
41
41
41
42
44
46
48
50
51
52
52
52
52
53
53
54
55
55
56
55
54
52
49
45
40
35
31
26
21
17
13
9
6
4
3
2
1
1
1
1
0
-2
-4
-7
-11
-14
-17
-18
-19
-19
-18
-16
-14
-13
-13
-13
-13
-14
-15
-17
-17
-18
-18
-19
-19
-19
-19
-19
-19
-18
-17
-16
-14
-13
-12
-11
-11
-11
-12
-14
-15
-16
-17
-18
-18
-18
-17
-17
-16
-15
-15
-15
-14
-14
-14
-14
-15
-15
-15
-15
-14
-14
-13
-13
-13
-13
-14
-15
-15
-16
-16
-16
-15
-14
-13
-12
-12
-13
-14
-16
-18
-19
-19
-19
-17
-15
-14
-12
-12
-12
-12
-13
-14
-15
-15
-15
-15
-14
-14
-15
-15
-17
-18
-18
-18
-18
-16
-15
-13
-11
-10
-10
-10
-11
-12
-14
-15
-16
-17
-17
-16
-16
-16
-15
-14
-14
-13
-13
-12
-12
-11
-11
-11
-11
-11
-11
-12
-12
-13
-13
-14
-14
-14
-15
-15
-16
-17
-17
-17
-17
-16
-15
-14
-13
-12
-12
-13
-14
-15
-15
-16
-16
-15
-14
-13
-11
-11
-11
-12
-14
-16
-18
-20
-21
-20
-19
-17
-15
-13
-11
-11
-11
-12
-14
-15
-17
-17
-17
-16
-15
-13
-12
-11
-11
-12
-14
-16
-18
-20
-21
-22
-22
-21
-19
-18
-17
-15
-15
-14
-14
-14
-14
-14
-15
-15
-15
-16
-15
-15
-14
-14
-13
-13
-12
-13
-14
-15
-16
-16
-17
-17
-16
-16
-15
-14
-14
-14
-14
-15
-15
-16
-16
-15
-15
-14
-13
-12
-12
-13
-13
-14
-15
-16
-16
-15
-14
-12
-11
-9
-8
-7
-7
-7
-8
-8
-9
-9
-9
-8
-7
-6
-5
-5
-5
-5
-6
-7
-9
-9
-10
-10
-10
-10
-10
-9
-9
-9
-10
-10
-10
-10
-9
-9
-9
-9
-10
-11
-13
-15
-18
-20
-21
-21
-20
-19
-17
-15
-14
-13
-14
-15
-16
-17
-17
-16
-16
-16
-17
-21
-26
-33
-41
-48
-53
-53
-49
-39
-24
-5
17
41
67
94
122
153
185
217
249
278
299
311
310
296
267
228
181
132
84
43
11
-11
-23
-27
-26
-22
-18
-15
-14
-16
-18
-20
-22
-22
-20
-18
-15
-12
-10
-9
-10
-11
-13
-15
-17
-18
-18
-18
-17
-16
-15
-13
-12
-10
-9
-8
-7
-6
-5
-5
-6
-7
-8
-9
-9
-9
-8
-6
-5
-3
-2
-2
-1
-2
-2
-2
-1
1
3
6
9
11
13
15
16
17
18
20
22
25
28
32
35
37
39
40
41
42
43
44
45
46
47
48
48
49
49
50
51
53
55
57
58
60
60
60
60
58
57
55
53
50
47
44
41
37
34
30
27
24
22
20
19
18
16
15
13
11
8
5
2
-1
-4
-7
-9
-12
-14
-15
-17
-18
-18
-18
-18
-17
-16
-15
-15
-14
-14
-14
-15
-16
-16
-17
-18
-18
-19
-18
-18
-18
-17
-16
-15
-15
-15
-15
-16
-17
-18
-18
-19
-19
-19
-18
-17
-16
-15
-14
-14
-14
-14
-14
-15
-15
-15
-15
-15
-14
-13
-13
-12
-12
-12
-12
-13
-13
-13
-13
-13
-13
-12
-12
-11
-10
-10
-9
-9
-10
-10
-10
-11
-11
-12
-12
-12
-12
-12
-11
-11
-12
-12
-13
-13
-14
-14
-14
-14
-13
-11
-10
-8
-7
-7
-7
-9
-10
-12
-13
-14
-14
-14
-12
-11
-10
-9
-8
-9
-10
-12
-13
-15
-15
-15
-15
-14
-12
-11
-10
-9
-9
-9
-10
-10
-11
-12
-13
-14
-14
-15
-15
-15
-15
-15
-14
-14
-14
-14
-14
-14
-14
-13
-13
-11
-10
-9
-8
-7
-7
-8
-10
-11
-13
-14
-15
-16
-15
-15
-14
-13
-12
-12
-11
-10
-9
-9
-9
-9
-10
-11
-12
-14
-15
-17
-17
-17
-17
-16
-15
-13
-12
-11
-10
-9
-9
-9
-9
-10
-11
-13
-15
-17
-18
-19
-18
-16
-14
-11
-9
-8
-8
-10
-12
-15
-17
-19
-20
-20
-19
-17
-15
-13
-11
-10
-10
-10
-11
-11
-12
-12
-13
-13
-13
-13
-12
-11
-10
-9
-7
-6
-4
-3
-3
-3
-3
-4
-5
-5
-5
-5
-4
-4
-3
-3
-3
-3
-3
-4
-5
-6
-7
-8
-9
-10
-11
-11
-11
-10
-9
-9
-9
-9
-10
-11
-13
-15
-17
-19
-20
-20
-19
-19
-18
-17
-18
-19
-20
-22
-24
-25
-25
-24
-22
-20
-20
-21
-25
-30
-38
-45
-52
-56
-55
-50
-39
-23
-4
18
41
65
90
117
146
177
210
244
276
301
317
320
308
282
242
194
141
90
46
11
-12
-24
-28
-25
-20
-15
-12
-12
-14
-17
-20
-22
-23
-22
-20
-18
-16
-15
-15
-15
-16
-16
-17
-17
-16
-16
-16
-16
-16
-17
-16
-15
-14
-12
-10
-8
-7
-6
-7
-8
-9
-10
-11
-11
-10
-8
-6
-4
-2
-1
-1
-1
-3
-4
-5
-6
-6
-4
-3
0
3
6
8
10
12
13
14
15
16
17
19
22
25
27
30
32
33
34
34
34
34
35
36
37
39
41
43
46
48
50
53
54
56
57
58
58
57
56
55
53
51
49
47
45
44
43
41
39
37
34
30
27
23
19
16
14
12
10
9
7
5
3
0
-3
-6
-9
-12
-14
-15
-15
-15
-15
-14
-13
-13
-14
-15
-17
-20
-22
-23
-24
-24
-22
-21
-19
-17
-16
-15
-16
-16
-17
-18
-19
-20
-20
-20
-20
-21
-21
-21
-21
-21
-20
-19
-18
-17
-16
-16
-17
-19
-20
-22
-23
-23
-23
-22
-20
-19
-18
-17
-16
-16
-17
-17
-17
-18
-19
-20
-21
-22
-23
-24
-23
-22
-20
-17
-15
-13
-12
-12
-14
-17
-21
-24
-26
-27
-27
-25
-23
-21
-19
-18
-18
-19
-20
-21
-21
-21
-20
-19
-17
-16
-15
-15
-16
-17
-19
-20
-21
-22
-22
-22
-23
-23
-23
-24
-23
-23
-22
-20
-18
-16
-15
-14
-14
-15
-17
-19
-22
-24
-25
-25
-24
-22
-20
-17
-16
-15
-15
-16
-17
-19
-20
-21
-21
-21
-20
-19
-18
-17
-17
-18
-18
-20
-21
-22
-22
-23
-23
-22
-21
-20
-19
-17
-16
-15
-14
-14
-14
-15
-17
-19
-22
-23
-24
-24
-24
-23
-22
-21
-20
-20
-20
-20
-21
-21
-20
-20
-20
-19
-19
-20
-20
-21
-22
-22
-22
-21
-20
-19
-18
-18
-18
-19
-20
-20
-21
-20
-20
-19
-18
-18
-18
-20
-21
-22
-23
-23
-22
-21
-19
-17
-16
-16
-17
-18
-20
-21
-21
-21
-20
-18
-15
-13
-11
-10
-10
-10
-11
-11
-11
-12
-12
-13
-13
-14
-15
-15
-15
-15
-13
-11
-9
-8
-8
-9
-11
-14
-17
-20
-22
-23
-23
-21
-20
-19
-19
-19
-21
-23
-24
-26
-26
-25
-25
-24
-23
-24
-25
-27
-29
-30
-31
-30
-28
-26
-25
-25
-28
-34
-41
-49
-55
-59
-59
-54
-44
-29
-11
10
32
57
84
113
144
178
213
247
276
297
308
305
287
257
216
169
120
74
35
4
-16
-28
-33
-34
-32
-30
-28
-27
-27
-27
-26
-25
-24
-22
-21
-21
-22
-24
-25
-27
-27
-26
-24
-22
-19
-17
-16
-15
-16
-17
-19
-20
-20
-20
-19
-18
-18
-17
-18
-18
-18
-18
-18
-17
-15
-13
-12
-11
-10
-11
-11
-12
-12
-10
-8
-6
-2
0
2
3
3
2
0
-1
-1
0
2
5
9
13
16
18
20
20
21
21
22
23
25
28
31
34
36
39
40
41
42
43
43
44
44
45
45
46
47
47
47
47
46
45
44
42
40
38
36
35
33
32
30
28
25
22
19
15
10
7
3
1
-1
-3
-4
-5
-7
-10
-13
-16
-19
-21
-23
-24
-24
-23
-22
-21
-21
-21
-23
-25
-27
-29
-30
-31
-30
-30
-28
-27
-26
-25
-25
-26
-27
-28
-29
-30
-30
-30
-29
-28
-26
-25
-24
-23
-24
-25
-26
-28
-30
-31
-30
-29
-27
-24
-21
-19
-18
-18
-19
-21
-24
-27
-29
-30
-29
-28
-25
-22
-20
-18
-17
-18
-19
-22
-24
-26
-28
-29
-28
-27
-25
-23
-22
-20
-20
-20
-21
-21
-21
-21
-21
-19
-18
-17
-16
-16
-17
-18
-21
-23
-25
-27
-27
-27
-26
-24
-22
-21
-20
-19
-20
-21
-22
-23
-24
-24
-25
-25
-25
-24
-24
-24
-24
-23
-23
-22
-22
-22
-22
-22
-22
-23
-23
-24
-23
-22
-21
-20
-19
-18
-19
-20
-21
-24
-26
-27
-28
-29
-28
-27
-26
-25
-24
-23
-23
-22
-21
-20
-19
-18
-17
-16
-16
-16
-16
-17
-17
-16
-15
-13
-11
-9
-7
-7
-8
-10
-13
-16
-17
-18
-18
-16
-14
-12
-11
-10
-11
-12
-14
-17
-19
-20
-20
-20
-19
-17
-15
-14
-13
-12
-12
-13
-13
-13
-13
-13
-12
-11
-10
-9
-8
-7
-7
-7
-6
-5
-4
-2
1
3
6
8
9
10
11
11
12
13
15
16
18
20
20
21
21
20
20
21
23
26
30
35
39
43
45
45
44
42
40
38
37
37
39
41
43
45
46
47
48
48
49
50
51
52
54
54
54
53
51
49
48
47
46
46
44
41
36
29
20
11
3
-2
-3
3
14
31
53
78
105
133
162
193
224
255
287
315
339
353
356
345
320
281
233
180
128
81
44
19
6
2
4
10
15
18
18
15
11
6
3
2
2
5
8
11
12
12
11
9
6
4
3
3
3
4
5
5
5
5
4
4
4
5
5
6
7
7
7
7
6
6
6
6
6
7
8
9
11
12
13
13
13
13
13
13
12
12
12
12
13
15
16
19
21
23
24
25
26
25
25
25
25
25
26
28
31
33
36
38
41
42
44
45
46
48
50
52
54
56
57
58
58
58
57
55
54
53
53
52
52
52
51
50
49
47
44
41
36
32
27
22
17
13
9
5
3
1
0
-1
-2
-5
-7
-11
-14
-17
-19
-21
-21
-20
-18
-17
-16
-17
-19
-21
-24
-27
-30
-31
-30
-29
-27
-24
-22
-21
-21
-22
-24
-25
-27
-29
-30
-31
-31
-32
-33
-33
-34
-34
-34
-33
-31
-29
-28
-27
-26
-27
-28
-30
-31
-32
-33
-33
-32
-30
-29
-28
-27
-28
-29
-30
-32
-33
-34
-33
-32
-31
-30
-28
-27
-27
-27
-28
-28
-29
-30
-30
-30
-30
-30
-30
-30
-29
-29
-29
-28
-28
-28
-29
-30
-31
-32
-34
-35
-36
-37
-37
-36
-35
-34
-33
-33
-33
-33
-33
-34
-35
-36
-37
-37
-37
-37
-36
-35
-34
-33
-32
-32
-32
-32
-33
-33
-34
-34
-34
-34
-34
-33
-33
-33
-34
-34
-35
-35
-35
-35
-35
-35
-35
-36
-36
-37
-38
-38
-38
-38
-37
-37
-36
-35
-35
-36
-37
-38
-38
-39
-38
-38
-36
-35
-34
-34
-35
-37
-39
-41
-43
-43
-43
-42
-39
-36
-34
-31
-30
-30
-31
-33
-35
-37
-39
-40
-40
-40
-39
-38
-37
-36
-35
-34
-34
-34
-34
-34
-33
-33
-32
-31
-30
-28
-27
-26
-26
-26
-27
-29
-31
-33
-35
-35
-35
-33
-31
-28
-26
-25
-24
-25
-26
-29
-32
-35
-38
-40
-41
-41
-41
-40
-39
-37
-36
-35
-34
-34
-35
-37
-38
-40
-42
-43
-43
-42
-41
-40
-40
-41
-45
-50
-57
-64
-70
-73
-72
-67
-57
-43
-25
-5
17
41
66
93
123
156
190
224
254
277
288
287
270
239
196
147
96
48
8
-22
-41
-49
-50
-47
-42
-38
-36
-37
-39
-41
-42
-42
-40
-37
-33
-29
-26
-25
-25
-27
-28
-30
-31
-31
-31
-31
-30
-30
-29
-29
-29
-29
-28
-26
-25
-23
-21
-20
-19
-19
-19
-19
-19
-19
-19
-18
-17
-15
-14
-13
-12
-11
-11
-11
-10
-10
-9
-8
-7
-5
-3
-1
1
3
4
5
6
7
9
10
12
14
17
19
21
22
23
24
24
25
26
27
30
33
37
41
45
48
51
53
55
56
56
56
57
57
56
56
55
54
52
50
48
46
44
42
39
37
34
31
27
24
20
15
11
8
4
1
-1
-3
-5
-6
-7
-7
-8
-8
-9
-10
-11
-13
-14
-16
-17
-17
-18
-17
-17
-17
-17
-17
-17
-18
-19
-21
-22
-23
-24
-24
-23
-22
-21
-19
-17
-16
-14
-13
-13
-13
-13
-14
-15
-16
-17
-18
-19
-20
-20
-19
-18
-17
-16
-14
-13
-13
-13
-13
-14
-15
-15
-15
-15
-14
-13
-11
-9
-9
-9
-9
-11
-12
-14
-15
-16
-15
-14
-12
-11
-10
-10
-10
-11
-13
-14
-15
-15
-14
-13
-12
-11
-10
-10
-10
-10
-10
-10
-10
-9
-9
-9
-10
-11
-13
-14
-15
-15
-14
-12
-10
-7
-5
-4
-4
-5
-7
-10
-12
-13
-13
-12
-11
-10
-9
-9
-10
-11
-13
-14
-14
-13
-12
-9
-7
-5
-3
-2
-3
-4
-6
-8
-10
-12
-13
-14
-14
-14
-13
-12
-11
-9
-8
-6
-5
-4
-4
-4
-4
-5
-5
-6
-6
-7
-7
-7
-7
-7
-7
-7
-7
-7
-7
-7
-8
-9
-9
-10
-10
-10
-9
-7
-6
-3
-1
1
2
3
3
3
3
2
2
1
1
0
-1
-2
-3
-4
-4
-4
-3
-2
-1
1
2
2
2
0
-3
-6
-9
-11
-13
-14
-13
-13
-12
-11
-10
-10
-10
-11
-11
-12
-13
-14
-14
-14
-14
-14
-14
-13
-13
-14
-16
-19
-23
-28
-34
-39
-42
-42
-38
-31
-19
-4
14
34
55
78
103
130
159
191
223
254
281
300
308
303
283
250
206
157
106
59
19
-10
-28
-35
-34
-28
-20
-13
-8
-5
-5
-6
-9
-11
-12
-12
-11
-9
-7
-6
-6
-7
-8
-10
-12
-14
-16
-16
-16
-15
-13
-10
-8
-5
-4
-3
-3
-3
-4
-4
-5
-4
-4
-3
-3
-2
-2
-2
-1
-1
0
1
3
5
7
9
9
9
8
7
6
5
5
6
8
11
14
16
19
20
21
21
21
21
21
22
25
28
31
35
39
42
44
46
48
49
50
51
53
54
55
56
57
57
58
58
58
58
58
58
57
56
55
53
51
48
45
43
40
37
34
31
28
24
20
16
13
10
7
5
4
3
1
0
-1
-3
-5
-8
-10
-12
-14
-14
-15
-15
-14
-14
-13
-14
-14
-15
-16
-18
-19
-21
-22
-22
-21
-20
-19
-18
-16
-15
-15
-15
-16
-17
-18
-19
-19
-18
-17
-16
-15
-14
-14
-15
-16
-18
-20
-22
-22
-22
-21
-20
-18
-16
-15
-14
-14
-14
-14
-15
-15
-16
-15
-15
-14
-14
-13
-13
-13
-14
-15
-16
-17
-18
-18
-18
-17
-17
-16
-15
-15
-15
-15
-15
-16
-16
-16
-16
-15
-15
-14
-14
-14
-14
-15
-16
-17
-18
-19
-19
-19
-19
-18
-18
-17
-17
-17
-17
-17
-17
-18
-18
-19
-19
-19
-19
-18
-17
-15
-14
-12
-12
-12
-13
-15
-18
-21
-24
-25
-26
-25
-23
-20
-18
-16
-15
-15
-16
-18
-20
-22
-23
-24
-23
-22
-21
-20
-19
-19
-19
-19
-19
-19
-19
-19
-20
-20
-20
-20
-20
-20
-20
-20
-19
-19
-19
-19
-19
-20
-19
-19
-18
-17
-15
-14
-13
-13
-13
-14
-15
-16
-16
-16
-15
-14
-12
-10
-10
-9
-10
-12
-15
-17
-19
-20
-20
-18
-17
-15
-14
-13
-14
-15
-17
-19
-21
-22
-23
-23
-22
-21
-21
-21
-22
-24
-25
-27
-28
-29
-29
-29
-28
-27
-25
-24
-22
-21
-22
-23
-26
-30
-36
-43
-50
-57
-61
-61
-58
-50
-37
-21
-2
19
43
67
94
123
154
186
218
248
273
290
296
289
269
237
196
150
103
60
24
-3
-21
-30
-33
-32
-29
-26
-25
-24
-24
-24
-23
-22
-20
-18
-17
-17
-18
-20
-23
-26
-28
-29
-29
-28
-25
-22
-20
-18
-16
-16
-16
-17
-17
-17
-17
-17
-16
-15
-14
-13
-12
-11
-11
-11
-11
-12
-13
-13
-14
-13
-13
-11
-9
-7
-6
-4
-3
-2
-1
0
1
2
4
6
7
9
10
11
11
12
13
14
16
20
24
28
32
35
38
39
39
39
38
38
38
38
40
42
44
47
50
52
53
54
54
53
52
50
48
46
44
42
40
38
37
35
32
29
26
22
18
13
10
7
4
2
1
0
-1
-2
-4
-6
-9
-11
-14
-16
-17
-19
-20
-21
-22
-23
-23
-24
-24
-24
-23
-21
-20
-18
-16
-14
-14
-13
-13
-14
-14
-15
-16
-18
-19
-21
-22
-24
-25
-25
-25
-24
-23
-21
-20
-19
-19
-20
-21
-23
-24
-25
-25
-23
-21
-19
-17
-15
-15
-15
-17
-18
-20
-22
-22
-22
-22
-20
-19
-18
-17
-17
-17
-17
-18
-18
-19
-19
-19
-19
-18
-18
-18
-17
-17
-17
-18
-18
-19
-19
-20
-20
-21
-21
-21
-21
-20
-20
-20
-20
-20
-20
-20
-19
-19
-18
-18
-17
-17
-17
-17
-18
-19
-19
-20
-20
-20
-19
-18
-17
-16
-15
-15
-15
-15
-16
-16
-17
-17
-17
-17
-17
-17
-17
-18
-19
-20
-22
-22
-22
-22
-21
-20
-18
-17
-16
-15
-15
-15
-15
-15
-15
-15
-16
-17
-18
-20
-21
-22
-23
-23
-22
-20
-18
-16
-14
-13
-12
-12
-13
-15
-16
-17
-18
-18
-18
-17
-16
-15
-15
-15
-15
-16
-17
-18
-19
-21
-22
-22
-22
-22
-21
-21
-19
-18
-17
-15
-14
-13
-12
-11
-11
-11
-11
-11
-12
-12
-12
-12
-11
-9
-7
-6
-5
-4
-4
-5
-6
-8
-9
-10
-11
-11
-11
-10
-9
-9
-9
-9
-10
-10
-11
-11
-11
-11
-10
-10
-11
-12
-13
-16
-18
-21
-22
-23
-23
-22
-20
-18
-16
-15
-15
-15
-16
-18
-19
-19
-19
-18
-18
-19
-22
-27
-33
-41
-48
-53
-55
-53
-45
-33
-17
2
23
45
68
93
119
149
181
215
248
276
298
308
305
287
257
216
169
120
75
37
9
-10
-20
-23
-22
-19
-16
-15
-14
-14
-15
-14
-14
-12
-10
-8
-7
-6
-7
-8
-10
-12
-14
-15
-15
-15
-14
-14
-13
-13
-14
-14
-14
-15
-15
-15
-14
-14
-12
-11
-10
-9
-8
-7
-7
-6
-5
-4
-3
-2
-1
0
1
2
3
4
5
6
7
8
9
11
12
13
13
14
15
15
16
17
19
20
22
24
25
27
28
30
32
35
38
41
43
46
47
47
47
47
46
46
47
48
51
53
56
59
61
62
62
61
59
56
53
50
47
44
41
37
34
31
28
26
23
22
20
18
16
13
10
6
2
-2
-5
-8
-9
-10
-10
-10
-9
-8
-8
-8
-9
-10
-11
-12
-13
-14
-14
-14
-14
-14
-15
-15
-16
-17
-18
-18
-18
-18
-18
-17
-16
-15
-13
-12
-12
-11
-12
-12
-13
-13
-14
-15
-15
-15
-14
-14
-14
-14
-15
-15
-16
-17
-18
-18
-19
-18
-18
-18
-17
-17
-17
-17
-17
-17
-17
-16
-16
-15
-15
-15
-15
-16
-17
-18
-19
-19
-19
-19
-18
-17
-16
-16
-15
-15
-16
-16
-17
-17
-17
-17
-16
-15
-14
-13
-12
-12
-12
-13
-14
-15
-16
-16
-17
-16
-16
-16
-15
-15
-16
-16
-17
-18
-19
-19
-19
-19
-18
-17
-17
-16
-16
-16
-16
-16
-16
-17
-17
-17
-17
-18
-18
-19
-19
-20
-20
-21
-21
-21
-21
-21
-21
-20
-19
-17
-15
-14
-12
-12
-12
-12
-14
-15
-17
-19
-20
-20
-20
-19
-18
-17
-17
-17
-18
-19
-20
-22
-22
-22
-22
-21
-19
-17
-16
-15
-15
-16
-16
-17
-18
-18
-18
-19
-19
-19
-19
-19
-20
-20
-21
-21
-21
-21
-20
-19
-18
-17
-16
-16
-16
-17
-17
-17
-18
-18
-18
-17
-17
-16
-16
-15
-15
-15
-15
-16
-16
-17
-17
-18
-18
-17
-17
-16
-16
-15
-14
-13
-12
-12
-12
-12
-11
-11
-11
-11
-10
-10
-9
-8
-8
-8
-9
-9
-10
-11
-11
-12
-12
-11
-11
-10
-9
-9
-9
-9
-9
-10
-11
-12
-13
-13
-14
-14
-14
-15
-16
-17
-18
-19
-21
-22
-22
-23
-23
-23
-23
-22
-22
-22
-22
-21
-21
-20
-19
-19
-19
-20
-23
-26
-31
-37
-43
-48
-50
-51
-47
-40
-29
-15
3
23
46
71
99
130
163
197
232
263
288
305
310
301
278
244
200
151
103
59
23
-3
-19
-26
-26
-23
-19
-16
-15
-15
-17
-19
-21
-20
-18
-15
-12
-9
-8
-7
-8
-10
-12
-13
-14
-14
-13
-13
-12
-11
-12
-12
-13
-14
-14
-15
-14
-14
-13
-13
-12
-11
-10
-9
-7
-5
-4
-2
-1
0
0
0
0
0
1
1
2
3
4
6
6
7
7
7
7
8
10
11
14
17
19
22
25
27
28
30
31
33
35
36
39
41
43
45
47
49
50
51
52
53
54
55
55
56
57
57
58
58
58
58
57
56
55
53
51
48
46
43
41
38
36
33
31
28
25
21
18
14
10
7
4
2
0
-1
-2
-3
-4
-5
-6
-6
-7
-8
-8
-8
-8
-8
-9
-10
-11
-13
-14
-16
-17
-18
-18
-18
-18
-17
-17
-17
-16
-16
-16
-16
-16
-16
-15
-15
-14
-13
-13
-13
-13
-13
-13
-13
-13
-13
-13
-13
-13
-13
-14
-15
-16
-18
-19
-20
-21
-21
-21
-21
-19
-18
-16
-15
-13
-12
-11
-10
-11
-11
-12
-14
-15
-17
-18
-18
-18
-17
-16
-14
-12
-11
-11
-12
-13
-15
-16
-18
-19
-19
-18
-17
-16
-14
-14
-13
-13
-14
-14
-14
-14
-14
-13
-12
-11
-10
-10
-10
-10
-11
-12
-13
-14
-15
-16
-18
-19
-19
-19
-19
-19
-18
-17
-16
-15
-14
-14
-14
-15
-15
-16
-17
-18
-18
-19
-19
-18
-18
-18
-18
-18
-18
-18
-19
-19
-19
-19
-18
-16
-15
-13
-12
-12
-12
-14
-16
-19
-21
-23
-24
-23
-22
-20
-17
-15
-13
-12
-12
-12
-13
-13
-14
-14
-14
-13
-13
-13
-13
-14
-15
-16
-17
-18
-19
-20
-20
-20
-20
-19
-18
-17
-16
-15
-14
-13
-13
-14
-15
-16
-16
-17
-17
-17
-16
-15
-14
-14
-14
-14
-15
-16
-17
-18
-18
-18
-18
-18
-18
-17
-17
-18
-18
-18
-19
-19
-18
-17
-16
-15
-14
-14
-14
-14
-15
-16
-18
-19
-19
-19
-19
-18
-16
-15
-15
-15
-15
-16
-17
-18
-19
-19
-18
-17
-15
-13
-11
-11
-11
-12
-14
-16
-17
-17
-17
-15
-12
-9
-5
-3
-2
-2
-4
-6
-9
-11
-12
-12
-11
-9
-6
-4
-2
-2
-3
-5
-7
-9
-11
-12
-12
-11
-9
-7
-6
-5
-5
-5
-7
-8
-10
-13
-15
-17
-19
-20
-21
-21
-21
-20
-19
-17
-16
-15
-15
-16
-17
-19
-20
-20
-20
-19
-18
-17
-18
-21
-26
-33
-40
-47
-51
-52
-48
-39
-25
-8
13
36
60
86
114
144
177
210
243
273
297
311
314
303
278
241
196
146
98
54
18
-7
-22
-28
-28
-24
-19
-14
-12
-11
-12
-14
-15
-16
-16
-15
-14
-12
-11
-10
-10
-9
-9
-8
-8
-8
-8
-8
-10
-12
-13
-15
-15
-15
-13
-11
-8
-6
-4
-3
-3
-4
-5
-6
-6
-6
-6
-6
-5
-4
-2
-1
1
2
4
6
8
10
11
11
11
11
11
11
11
11
12
14
15
17
20
22
24
27
29
31
33
35
36
36
36
37
38
39
42
44
48
51
54
56
57
58
58
57
57
57
58
59
61
62
63
63
62
60
58
55
52
49
46
43
40
37
33
29
25
22
19
16
14
12
10
8
6
4
1
-2
-5
-7
-8
-9
-10
-9
-9
-8
-8
-8
-9
-10
-11
-13
-15
-16
-17
-18
-18
-18
-17
-17
-17
-17
-17
-17
-18
-19
-19
-18
-18
-16
-15
-13
-11
-10
-9
-9
-10
-12
-14
-16
-18
-20
-20
-20
-18
-17
-15
-13
-13
-13
-15
-16
-18
-20
-21
-21
-20
-18
-16
-14
-12
-11
-11
-11
-13
-14
-16
-17
-18
-18
-18
-17
-16
-15
-14
-13
-13
-14
-14
-15
-15
-15
-15
-14
-14
-14
-13
-14
-14
-15
-17
-17
-17
-17
-15
-14
-11
-9
-8
-8
-10
-12
-15
-18
-21
-22
-22
-21
-19
-17
-15
-14
-14
-15
-17
-19
-21
-22
-21
-20
-17
-15
-13
-12
-12
-14
-16
-18
-20
-21
-22
-21
-20
-19
-17
-16
-16
-17
-18
-19
-20
-21
-21
-21
-21
-20
-19
-19
-19
-20
-20
-21
-21
-21
-21
-21
-20
-19
-18
-17
-16
-16
-16
-17
-18
-19
-21
-22
-23
-25
-25
-25
-24
-23
-21
-18
-16
-14
-13
-13
-13
-15
-17
-19
-21
-22
-22
-22
-21
-20
-18
-17
-17
-18
-19
-20
-22
-23
-24
-23
-23
-21
-20
-19
-18
-17
-18
-19
-20
-21
-22
-22
-22
-21
-19
-17
-16
-15
-14
-14
-14
-15
-16
-16
-17
-18
-18
-18
-19
-19
-19
-18
-17
-16
-14
-12
-10
-8
-7
-6
-6
-7
-8
-10
-11
-13
-15
-15
-16
-15
-14
-13
-11
-10
-9
-8
-8
-9
-10
-11
-12
-13
-14
-15
-15
-15
-15
-15
-16
-16
-17
-18
-20
-21
-22
-22
-22
-22
-22
-22
-22
-23
-23
-23
-24
-23
-22
-22
-21
-21
-24
-27
-33
-40
-47
-53
-56
-54
-48
-37
-21
-1
20
44
68
93
120
149
181
213
246
275
297
310
309
294
265
224
176
125
76
35
3
-18
-30
-34
-32
-29
-25
-22
-20
-20
-21
-21
-21
-21
-20
-20
-21
-21
-22
-23
-23
-22
-20
-17
-14
-11
-10
-10
-11
-13
-15
-17
-18
-18
-16
-14
-11
-9
-7
-7
-8
-10
-12
-14
-14
-14
-12
-10
-7
-5
-3
-3
-3
-4
-5
-5
-5
-4
-2
1
5
8
11
13
14
14
14
13
12
12
12
14
17
21
24
28
31
33
35
36
38
39
41
44
46
49
51
52
52
52
51
51
50
51
52
54
56
58
60
61
60
59
56
52
49
45
42
39
37
35
34
32
30
27
24
21
18
15
12
8
5
2
0
-3
-5
-7
-8
-9
-10
-11
-12
-13
-14
-15
-16
-17
-17
-17
-17
-17
-17
-17
-18
-18
-18
-19
-19
-19
-18
-18
-17
-17
-17
-17
-17
-16
-16
-16
-16
-15
-16
-16
-17
-18
-20
-22
-23
-23
-23
-22
-21
-20
-18
-17
-16
-16
-16
-16
-17
-17
-17
-17
-17
-17
-18
-18
-19
-19
-20
-19
-19
-17
-16
-14
-13
-12
-11
-11
-12
-13
-14
-15
-16
-17
-18
-18
-18
-19
-19
-20
-20
-19
-19
-17
-15
-13
-11
-9
-9
-9
-11
-13
-16
-18
-20
-21
-20
-18
-16
-13
-10
-8
-8
-8
-10
-12
-15
-18
-20
-21
-21
-20
-18
-17
-15
-14
-14
-14
-15
-16
-17
-18
-18
-18
-18
-17
-16
-15
-15
-15
-15
-16
-18
-19
-20
-21
-21
-21
-20
-19
-17
-16
-15
-15
-15
-16
-18
-19
-21
-23
-23
-23
-22
-20
-18
-16
-14
-13
-13
-14
-15
-17
-18
-19
-20
-20
-19
-18
-18
-18
-18
-19
-20
-21
-22
-23
-22
-21
-19
-17
-15
-14
-14
-14
-16
-18
-20
-21
-22
-22
-21
-19
-17
-15
-14
-13
-14
-14
-16
-17
-18
-18
-18
-18
-18
-18
-18
-18
-18
-19
-19
-19
-19
-18
-17
-16
-15
-13
-12
-11
-10
-10
-10
-10
-10
-11
-12
-13
-14
-14
-14
-13
-11
-9
-7
-5
-4
-4
-4
-6
-9
-12
-15
-17
-18
-17
-16
-14
-11
-9
-7
-6
-7
-8
-10
-13
-15
-16
-17
-17
-16
-15
-15
-15
-15
-17
-19
-21
-23
-24
-24
-24
-23
-22
-21
-21
-21
-21
-22
-24
-26
-30
-33
-38
-44
-49
-53
-56
-56
-52
-43
-30
-12
9
33
58
85
114
144
176
208
240
269
292
307
310
300
276
241
196
147
98
55
20
-4
-19
-25
-26
-23
-20
-18
-18
-19
-20
-21
-21
-20
-17
-15
-12
-12
-12
-14
-17
-19
-21
-21
-20
-18
-16
-13
-11
-9
-8
-8
-9
-9
-10
-10
-10
-10
-9
-9
-8
-7
-6
-4
-2
0
2
4
5
7
7
7
7
6
5
4
3
3
5
7
9
13
16
19
22
23
23
22
21
20
19
20
21
24
27
31
35
38
41
42
43
43
44
45
47
50
53
56
58
60
61
61
60
59
57
56
56
56
56
57
58
59
59
58
57
55
53
50
46
43
40
36
33
30
28
25
22
20
17
14
10
6
3
0
-3
-6
-7
-8
-8
-8
-8
-8
-9
-9
-10
-11
-12
-14
-15
-15
-16
-17
-17
-18
-18
-19
-20
-20
-21
-21
-21
-20
-19
-18
-17
-15
-14
-13
-13
-13
-13
-14
-14
-15
-17
-18
-20
-21
-22
-22
-21
-20
-19
-17
-15
-14
-14
-14
-15
-17
-18
-19
-19
-19
-18
-17
-16
-15
-15
-15
-16
-17
-18
-19
-19
-20
-20
-20
-19
-19
-18
-17
-15
-14
-12
-10
-9
-9
-10
-12
-15
-18
-21
-24
-25
-25
-24
-22
-19
-17
-15
-14
-14
-15
-17
-18
-20
-21
-21
-21
-20
-18
-17
-16
-15
-14
-14
-14
-14
-15
-16
-17
-18
-19
-20
-21
-22
-22
-22
-20
-19
-17
-16
-14
-14
-15
-16
-18
-21
-23
-24
-24
-22
-20
-17
-15
-13
-12
-13
-14
-16
-19
-21
-22
-22
-22
-21
-20
-19
-19
-19
-19
-19
-19
-18
-18
-17
-16
-15
-16
-16
-18
-19
-21
-22
-23
-22
-21
-19
-18
-17
-16
-16
-17
-18
-19
-19
-18
-17
-16
-15
-15
-15
-17
-19
-22
-25
-26
-26
-24
-21
-18
-14
-12
-11
-12
-15
-18
-21
-24
-25
-25
-23
-21
-19
-17
-16
-16
-17
-18
-19
-19
-18
-16
-14
-11
-9
-8
-8
-8
-9
-10
-10
-11
-11
-10
-10
-9
-9
-10
-11
-11
-12
-12
-12
-11
-10
-9
-8
-7
-7
-7
-8
-9
-10
-11
-12
-14
-15
-16
-17
-18
-18
-18
-18
-17
-16
-16
-15
-15
-16
-16
-18
-19
-19
-19
-19
-18
-17
-17
-19
-22
-27
-34
-42
-49
-55
-58
-56
-49
-38
-22
-2
19
42
67
93
120
150
182
215
247
276
299
311
310
295
266
226
178
127
78
37
4
-17
-28
-31
-29
-24
-19
-15
-14
-14
-16
-18
-20
-21
-20
-20
-19
-18
-18
-19
-19
-19
-19
-19
-18
-17
-17
-17
-17
-17
-17
-18
-17
-17
-16
-14
-13
-12
-11
-11
-11
-11
-11
-11
-11
-10
-9
-8
-6
-5
-5
-4
-4
-3
-3
-2
-1
0
1
2
4
5
5
6
7
7
8
9
11
13
15
17
19
22
24
26
27
28
29
31
32
34
36
39
41
44
46
47
48
49
50
51
52
54
57
59
61
61
61
59
56
53
49
46
44
43
43
43
43
42
40
37
32
26
20
14
9
5
2
1
0
1
1
1
0
-2
-4
-6
-9
-12
-14
-16
-17
-17
-17
-17
-16
-15
-14
-14
-14
-15
-17
-19
-21
-22
-23
-23
-22
-21
-19
-17
-16
-16
-16
-17
-19
-21
-22
-23
-23
-23
-22
-21
-21
-21
-21
-21
-21
-20
-19
-17
-15
-13
-12
-11
-12
-13
-16
-18
-20
-21
-21
-21
-20
-19
-18
-18
-19
-20
-22
-24
-25
-26
-25
-24
-22
-19
-17
-16
-15
-15
-16
-17
-18
-19
-20
-20
-19
-18
-16
-15
-13
-12
-12
-13
-14
-15
-16
-17
-17
-18
-18
-17
-17
-17
-17
-16
-16
-16
-16
-15
-15
-15
-15
-15
-16
-18
-19
-20
-21
-21
-20
-19
-17
-16
-15
-14
-15
-16
-19
-21
-23
-24
-24
-24
-22
-20
-18
-17
-16
-17
-18
-20
-22
-23
-23
-23
-22
-20
-18
-16
-15
-14
-14
-15
-16
-17
-19
-20
-21
-22
-22
-21
-20
-19
-18
-17
-16
-16
-16
-17
-18
-19
-20
-21
-21
-21
-21
-21
-20
-20
-19
-19
-18
-17
-15
-14
-12
-11
-11
-11
-13
-16
-19
-21
-23
-23
-21
-18
-14
-9
-5
-2
0
0
-1
-4
-7
-9
-11
-13
-13
-13
-12
-12
-12
-12
-13
-14
-14
-15
-14
-14
-13
-12
-12
-12
-13
-15
-17
-19
-21
-23
-24
-24
-24
-23
-22
-21
-21
-20
-20
-20
-20
-21
-21
-21
-21
-21
-21
-21
-21
-23
-26
-31
-38
-45
-51
-56
-59
-57
-50
-38
-22
-2
21
47
74
102
132
163
196
229
260
286
305
313
308
289
255
211
161
109
60
20
-10
-28
-36
-36
-32
-26
-20
-17
-16
-17
-19
-20
-21
-20
-18
-16
-15
-16
-17
-19
-21
-23
-23
-23
-22
-20
-18
-17
-17
-17
-19
-19
-20
-19
-17
-14
-11
-9
-8
-8
-9
-11
-13
-15
-16
-15
-13
-11
-7
-5
-3
-2
-2
-2
-3
-4
-4
-3
-1
2
5
8
10
12
12
12
11
10
9
9
11
14
17
22
27
31
35
38
39
38
37
36
34
34
35
38
42
47
52
57
60
61
61
59
57
55
53
52
53
54
56
57
58
57
54
50
46
42
37
33
30
27
24
22
19
16
13
10
8
6
4
4
3
1
-1
-3
-6
-9
-12
-14
-15
-15
-14
-12
-11
-10
-10
-11
-13
-15
-18
-20
-22
-23
-23
-22
-21
-20
-20
-20
-21
-21
-22
-22
-21
-20
-19
-18
-17
-16
-16
-16
-17
-17
-18
-18
-19
-19
-19
-19
-19
-19
-19
-18
-18
-17
-17
-17
-17
-17
-17
-17
-16
-15
-14
-13
-12
-12
-12
-13
-15
-17
-19
-21
-22
-22
-21
-20
-19
-17
-16
-16
-16
-16
-16
-16
-16
-15
-15
-14
-14
-15
-15
-16
-16
-17
-17
-17
-16
-15
-15
-14
-14
-15
-15
-16
-16
-17
-17
-17
-17
-17
-17
-17
-17
-17
-17
-17
-16
-16
-15
-15
-16
-16
-18
-19
-20
-22
-22
-22
-22
-21
-20
-20
-20
-20
-20
-20
-20
-19
-18
-16
-14
-12
-11
-11
-12
-14
-16
-19
-21
-23
-24
-23
-22
-20
-18
-16
-15
-14
-14
-15
-16
-18
-19
-21
-22
-22
-22
-21
-20
-18
-16
-14
-13
-12
-11
-12
-12
-13
-14
-14
-14
-13
-12
-11
-10
-9
-9
-9
-10
-11
-11
-12
-11
-10
-9
-9
-8
-8
-9
-10
-12
-14
-15
-17
-17
-17
-17
-17
-17
-17
-18
-19
-21
-23
-25
-26
-26
-26
-24
-22
-20
-18
-17
-18
-20
-22
-24
-27
-28
-28
-28
-28
-28
-31
-34
-40
-46
-52
-55
-55
-50
-40
-25
-6
16
40
65
91
119
149
180
212
243
271
291
301
297
279
247
204
154
103
55
16
-13
-31
-39
-40
-36
-30
-26
-23
-22
-23
-24
-24
-24
-23
-21
-18
-17
-17
-17
-19
-20
-21
-22
-21
-19
-17
-15
-14
-13
-14
-14
-15
-16
-17
-17
-16
-15
-14
-12
-11
-10
-10
-9
-9
-8
-7
-6
-5
-3
-1
1
2
2
3
2
1
1
0
0
0
2
5
8
12
15
18
20
21
21
20
19
18
19
20
22
26
29
33
36
39
41
42
43
44
45
46
48
50
53
55
56
58
58
59
59
60
60
60
60
59
58
57
55
52
50
47
45
42
40
38
36
33
30
26
22
18
13
10
6
3
1
0
-1
-2
-3
-4
-5
-6
-7
-8
-9
-10
-12
-14
-15
-17
-18
-19
-20
-19
-18
-17
-16
-14
-13
-12
-12
-13
-14
-15
-16
-18
-19
-20
-20
-20
-20
-19
-18
-17
-16
-15
-14
-14
-14
-15
-17
-19
-20
-21
-21
-21
-20
-19
-17
-16
-15
-15
-15
-16
-16
-17
-18
-19
-20
-20
-20
-20
-20
-20
-20
-20
-20
-19
-19
-19
-18
-18
-17
-16
-15
-15
-14
-14
-15
-16
-17
-18
-18
-19
-18
-17
-15
-13
-12
-11
-11
-12
-14
-16
-18
-20
-20
-20
-19
-18
-16
-15
-15
-15
-16
-17
-18
-18
-17
-16
-14
-13
-12
-11
-11
-13
-14
-16
-18
-20
-20
-20
-19
-18
-16
-15
-15
-15
-16
-17
-18
-19
-19
-19
-18
-17
-16
-15
-15
-15
-15
-16
-17
-18
-19
-19
-20
-20
-20
-19
-19
-19
-18
-17
-17
-16
-16
-17
-17
-19
-20
-21
-22
-22
-22
-21
-20
-18
-17
-17
-16
-17
-17
-17
-16
-16
-15
-13
-12
-11
-11
-11
-11
-11
-12
-12
-12
-12
-12
-11
-11
-11
-11
-11
-12
-13
-14
-14
-15
-14
-14
-13
-12
-11
-10
-8
-8
-7
-7
-8
-9
-10
-12
-14
-16
-19
-22
-24
-26
-27
-28
-27
-26
-25
-24
-23
-22
-23
-23
-24
-25
-26
-26
-25
-24
-24
-25
-28
-33
-39
-45
-50
-51
-49
-41
-28
-11
10
33
58
83
108
135
163
193
222
249
272
286
288
278
254
218
174
125
78
37
4
-19
-33
-38
-37
-34
-30
-27
-25
-24
-23
-22
-21
-20
-19
-18
-19
-20
-23
-26
-28
-29
-29
-27
-25
-22
-20
-20
-20
-21
-23
-24
-24
-23
-21
-18
-15
-12
-10
-9
-9
-10
-12
-14
-15
-16
-15
-14
-12
-9
-7
-6
-5
-5
-5
-5
-6
-5
-5
-4
-2
0
2
4
6
7
9
10
10
11
11
12
13
15
17
20
23
25
28
30
32
33
34
35
36
36
38
39
41
43
45
47
49
49
49
49
48
47
47
46
46
47
47
47
46
44
41
38
34
29
25
21
18
15
13
11
9
7
4
0
-4
-8
-12
-15
-18
-19
-21
-21
-21
-20
-19
-19
-18
-18
-17
-17
-17
-18
-18
-19
-20
-22
-23
-24
-25
-26
-26
-25
-24
-22
-21
-20
-19
-19
-19
-21
-22
-23
-25
-25
-25
-25
-24
-23
-22
-22
-21
-21
-21
-22
-22
-22
-22
-21
-20
-20
-19
-19
-20
-21
-21
-22
-22
-22
-21
-20
-19
-19
-19
-20
-21
-22
-23
-24
-24
-23
-22
-21
-19
-19
-18
-19
-19
-20
-20
-21
-21
-21
-20
-20
-20
-21
-21
-21
-22
-21
-21
-20
-20
-19
-18
-18
-18
-19
-19
-20
-20
-20
-20
-21
-21
-22
-22
-23
-24
-25
-25
-25
-24
-23
-23
-22
-22
-22
-21
-21
-20
-20
-19
-18
-18
-17
-18
-19
-20
-21
-22
-23
-23
-23
-23
-23
-23
-23
-23
-22
-22
-21
-20
-18
-17
-16
-17
-18
-19
-22
-24
-25
-26
-26
-25
-23
-22
-21
-20
-20
-21
-21
-21
-21
-20
-19
-17
-16
-15
-15
-15
-16
-17
-18
-18
-17
-15
-12
-9
-6
-4
-3
-4
-5
-7
-10
-13
-15
-17
-18
-18
-17
-16
-15
-14
-13
-13
-13
-13
-14
-14
-15
-16
-16
-17
-18
-19
-20
-21
-22
-23
-24
-24
-24
-24
-24
-24
-24
-24
-25
-26
-26
-26
-26
-25
-25
-25
-27
-30
-35
-40
-46
-50
-51
-49
-42
-31
-17
1
20
41
63
86
111
138
167
197
227
254
274
285
284
270
243
206
162
116
73
36
7
-12
-22
-26
-25
-23
-20
-19
-20
-21
-23
-25
-26
-25
-24
-22
-21
-20
-19
-19
-19
-20
-20
-20
-19
-18
-16
-15
-14
-13
-13
-14
-15
-16
-16
-17
-17
-17
-16
-15
-14
-12
-10
-9
-7
-7
-6
-7
-7
-8
-8
-8
-8
-7
-6
-4
-2
0
2
4
5
6
7
8
9
10
10
11
11
12
12
13
14
16
19
21
25
28
32
35
38
41
43
46
48
49
50
51
52
51
51
50
50
51
53
55
59
64
68
72
75
76
76
74
72
68
65
62
60
57
54
51
47
42
37
32
27
22
19
17
16
16
15
14
13
11
9
7
6
5
5
5
6
6
5
3
1
-2
-6
-8
-10
-10
-9
-8
-6
-5
-4
-4
-5
-5
-6
-7
-7
-6
-5
-4
-3
-3
-3
-5
-6
-8
-10
-11
-12
-12
-11
-10
-9
-8
-7
-7
-7
-7
-8
-9
-10
-10
-11
-11
-11
-11
-11
-10
-10
-9
-9
-8
-8
-8
-9
-10
-11
-12
-13
-15
-15
-15
-14
-13
-11
-9
-7
-6
-6
-6
-7
-9
-11
-13
-15
-15
-15
-14
-13
-12
-10
-9
-9
-9
-9
-10
-10
-10
-10
-10
-9
-9
-8
-8
-9
-10
-11
-11
-12
-12
-12
-12
-11
-10
-10
-10
-10
-10
-11
-12
-13
-14
-15
-16
-16
-17
-17
-17
-17
-16
-16
-16
-15
-15
-15
-15
-16
-16
-17
-17
-17
-17
-16
-15
-14
-14
-13
-13
-13
-13
-14
-15
-15
-16
-16
-16
-15
-14
-14
-14
-14
-15
-16
-18
-19
-21
-22
-22
-21
-20
-18
-16
-15
-14
-14
-14
-15
-16
-17
-18
-18
-18
-17
-16
-15
-14
-12
-11
-11
-10
-10
-10
-11
-11
-11
-11
-11
-10
-10
-9
-8
-8
-7
-7
-7
-7
-8
-9
-10
-11
-12
-12
-12
-11
-9
-7
-6
-5
-5
-6
-7
-9
-12
-14
-16
-18
-20
-21
-22
-22
-23
-23
-23
-23
-22
-22
-21
-20
-19
-19
-19
-19
-20
-21
-21
-21
-21
-21
-22
-24
-28
-33
-40
-46
-52
-56
-56
-50
-40
-24
-4
20
45
72
99
127
155
184
214
242
267
286
296
294
279
250
210
163
113
67
27
-2
-20
-28
-28
-23
-17
-12
-10
-11
-15
-19
-23
-25
-25
-22
-19
-16
-14
-13
-14
-16
-18
-19
-20
-20
-19
-18
-16
-16
-16
-16
-17
-18
-17
-17
-15
-13
-11
-10
-9
-9
-10
-11
-12
-12
-11
-10
-8
-7
-5
-4
-4
-4
-4
-5
-5
-4
-3
-1
1
3
5
7
8
9
10
12
13
14
15
16
18
19
19
21
22
24
26
29
32
35
38
40
41
43
44
45
46
47
49
50
51
52
51
50
49
47
46
45
45
45
46
47
48
48
46
43
39
34
29
24
19
15
12
10
8
7
5
4
2
0
-2
-4
-6
-7
-8
-9
-10
-11
-13
-15
-17
-19
-21
-22
-22
-22
-21
-20
-19
-19
-19
-19
-20
-22
-23
-24
-25
-25
-24
-23
-22
-21
-19
-17
-16
-15
-15
-15
-16
-17
-18
-19
-21
-22
-23
-23
-23
-22
-21
-20
-19
-18
-17
-16
-16
-16
-16
-16
-16
-17
-17
-17
-17
-17
-17
-17
-17
-18
-18
-19
-20
-21
-22
-22
-22
-22
-22
-21
-20
-20
-19
-19
-18
-18
-18
-17
-17
-17
-18
-18
-19
-20
-22
-23
-23
-23
-23
-22
-21
-19
-18
-17
-16
-15
-16
-16
-17
-19
-20
-21
-22
-23
-23
-22
-21
-20
-19
-18
-17
-17
-18
-19
-20
-21
-22
-22
-22
-22
-22
-22
-22
-23
-23
-23
-23
-23
-22
-21
-20
-19
-18
-18
-18
-19
-20
-22
-23
-25
-26
-26
-26
-26
-25
-24
-22
-21
-19
-19
-19
-19
-20
-22
-23
-24
-25
-25
-25
-24
-23
-22
-22
-22
-21
-21
-21
-21
-20
-20
-19
-19
-19
-19
-20
-21
-21
-22
-21
-21
-20
-19
-18
-18
-18
-20
-22
-24
-26
-28
-28
-27
-25
-23
-20
-18
-17
-17
-18
-19
-21
-22
-23
-23
-23
-22
-21
-19
-18
-17
-17
-17
-18
-18
-19
-20
-20
-20
-20
-20
-19
-19
-18
-18
-17
-17
-17
-17
-18
-18
-18
-19
-18
-17
-16
-14
-11
-9
-7
-6
-7
-8
-11
-14
-17
-20
-21
-21
-20
-18
-15
-12
-10
-8
-8
-8
-9
-10
-12
-13
-14
-15
-16
-17
-18
-20
-21
-23
-25
-26
-26
-26
-26
-25
-24
-23
-22
-22
-22
-23
-23
-24
-24
-24
-24
-25
-27
-29
-33
-37
-42
-46
-49
-49
-45
-37
-25
-9
10
33
57
84
114
146
179
214
247
277
299
311
311
297
269
230
183
133
85
44
11
-11
-22
-26
-24
-20
-15
-12
-12
-13
-15
-17
-18
-18
-17
-16
-14
-14
-14
-15
-17
-19
-20
-21
-20
-19
-16
-14
-13
-12
-12
-12
-13
-13
-13
-13
-12
-10
-8
-6
-5
-5
-5
-6
-7
-9
-9
-10
-9
-8
-6
-4
-2
-1
0
1
1
1
1
1
2
3
5
7
10
13
15
18
20
22
24
26
27
28
28
28
28
29
29
30
32
34
38
42
46
50
53
56
57
58
58
58
58
57
57
57
58
58
58
58
58
58
58
57
56
55
53
51
48
45
41
37
34
30
27
24
21
18
15
12
9
6
3
0
-2
-3
-3
-4
-4
-4
-4
-5
-6
-7
-9
-10
-11
-12
-12
-12
-12
-11
-11
-11
-10
-10
-10
-10
-10
-11
-11
-12
-12
-13
-13
-12
-12
-11
-10
-9
-9
-10
-11
-12
-13
-14
-14
-14
-13
-12
-11
-10
-9
-9
-9
-11
-12
-13
-13
-13
-12
-11
-9
-8
-6
-6
-5
-5
-5
-5
-6
-6
-6
-6
-6
-6
-6
-6
-6
-7
-7
-7
-8
