-14
-14
-13
-11
-9
-6
-3
0
3
6
7
7
6
4
2
0
-1
-3
-3
-4
-5
-6
-7
-9
-10
-11
-10
-9
-6
-3
0
3
5
5
3
1
-2
-5
-7
-8
-7
-5
-2
0
2
3
2
0
-2
-5
-7
-9
-11
-11
-10
-9
-7
-4
-2
0
2
2
2
0
-2
-4
-6
-7
-8
-8
-6
-5
-4
-3
-3
-3
-5
-7
-10
-11
-13
-13
-13
-12
-10
-8
-6
-4
-1
1
2
3
4
3
2
1
-1
-3
-4
-4
-4
-3
-2
-2
-1
-2
-3
-6
-8
-11
-14
-15
-15
-14
-12
-9
-7
-5
-5
-5
-7
-9
-12
-15
-17
-18
-18
-17
-16
-13
-11
-9
-7
-6
-6
-6
-7
-8
-9
-11
-11
-12
-12
-11
-10
-9
-7
-4
-2
1
3
4
3
2
-1
-5
-9
-13
-17
-19
-19
-18
-16
-14
-12
-10
-9
-10
-11
-12
-13
-13
-13
-12
-11
-10
-9
-9
-9
-10
-11
-12
-12
-12
-12
-12
-11
-10
-10
-9
-7
-6
-5
-4
-3
-3
-3
-4
-6
-7
-8
-7
-6
-4
-1
1
3
5
5
4
2
0
-1
-1
0
2
5
8
9
10
9
6
2
-3
-7
-11
-13
-14
-13
-12
-10
-9
-9
-10
-12
-14
-16
-17
-16
-14
-11
-7
-3
-1
1
0
-3
-7
-12
-16
-20
-21
-21
-19
-16
-11
-7
-3
0
2
2
0
-3
-6
-9
-12
-14
-16
-16
-15
-13
-10
-7
-5
-4
-3
-4
-6
-9
-13
-16
-19
-20
-19
-14
-7
4
19
37
58
79
100
119
133
142
144
139
126
108
87
63
40
18
0
-14
-23
-28
-29
-28
-24
-20
-14
-9
-4
0
3
4
3
2
-1
-4
-7
-9
-10
-11
-10
-9
-8
-7
-6
-5
-5
-6
-6
-6
-6
-6
-5
-4
-2
0
1
2
3
2
1
-1
-3
-6
-8
-10
-11
-10
-9
-7
-5
-2
1
4
6
8
8
8
7
6
3
0
-2
-5
-6
-7
-6
-4
-1
2
6
9
11
12
12
11
9
7
5
5
5
6
8
11
13
15
17
17
16
15
14
13
14
16
19
24
29
34
38
40
41
41
40
39
37
37
37
39
42
46
50
54
59
62
65
67
67
67
66
65
64
63
64
65
68
71
73
76
77
76
74
70
66
62
57
54
50
47
44
41
37
32
27
22
17
13
11
9
8
8
8
7
5
3
0
-3
-6
-8
-10
-10
-10
-9
-8
-7
-6
-7
-7
-8
-10
-11
-12
-12
-13
-12
-12
-11
-11
-11
-11
-12
-13
-14
-14
-14
-14
-13
-13
-12
-13
-13
-14
-14
-15
-14
-13
-12
-10
-8
-7
-8
-10
-13
-16
-19
-21
-21
-19
-15
-10
-5
-1
1
1
-2
-6
-10
-15
-18
-20
-20
-19
-17
-16
-15
-15
-16
-16
-17
-17
-16
-14
-12
-10
-8
-7
-6
-6
-6
-6
-6
-7
-8
-9
-10
-12
-14
-15
-16
-16
-14
-12
-9
-7
-5
-5
-6
-8
-11
-14
-17
-19
-19
-18
-17
-15
-13
-12
-13
-14
-16
-18
-19
-20
-20
-19
-18
-15
-13
-12
-11
-11
-12
-13
-14
-14
-14
-13
-12
-10
-9
-9
-10
-11
-14
-17
-19
-21
-22
-22
-21
-18
-15
-12
-10
-8
-7
-7
-8
-10
-12
-15
-18
-21
-23
-24
-24
-22
-19
-15
-11
-7
-5
-4
-5
-9
-14
-19
-24
-28
-30
-29
-26
-21
-16
-10
-5
-2
0
0
-1
-3
-4
-6
-7
-8
-8
-8
-8
-7
-7
-6
-5
-4
-3
-3
-3
-4
-5
-6
-8
-8
-8
-7
-5
-3
-2
-1
-1
-2
-4
-7
-10
-12
-14
-16
-17
-17
-17
-17
-17
-18
-19
-20
-21
-22
-22
-22
-22
-21
-20
-18
-16
-14
-12
-11
-10
-10
-11
-12
-14
-17
-20
-22
-23
-24
-24
-23
-20
-18
-15
-13
-12
-12
-12
-14
-17
-19
-22
-23
-24
-23
-22
-20
-18
-16
-15
-15
-16
-16
-14
-8
1
16
36
60
86
112
134
151
160
160
151
134
112
87
61
39
20
7
-2
-6
-8
-7
-6
-6
-6
-6
-7
-8
-9
-10
-11
-11
-12
-12
-13
-14
-16
-16
-17
-17
-16
-14
-11
-8
-6
-4
-3
-4
-6
-8
-12
-15
-17
-18
-18
-16
-13
-9
-6
-3
-2
-3
-4
-7
-10
-12
-14
-14
-13
-11
-9
-6
-4
-3
-4
-5
-7
-9
-12
-14
-15
-15
-14
-12
-8
-5
-2
1
2
1
-1
-3
-6
-9
-11
-11
-10
-7
-4
0
2
4
5
4
4
3
4
6
8
12
15
18
19
19
17
14
12
10
10
13
16
21
27
31
35
37
38
39
39
39
41
43
47
50
54
57
59
61
62
62
63
64
65
66
66
67
66
64
62
58
55
51
47
44
41
38
35
32
29
26
23
20
17
14
11
8
6
4
1
-1
-3
-6
-8
-11
-13
-14
-16
-16
-17
-16
-15
-14
-13
-11
-10
-9
-9
-9
-10
-11
-13
-14
-16
-16
-17
-17
-16
-16
-15
-15
-15
-16
-16
-17
-18
-18
-18
-17
-16
-15
-15
-15
-16
-17
-17
-18
-18
-17
-16
-14
-12
-11
-12
-13
-16
-20
-24
-27
-28
-27
-24
-20
-14
-9
-6
-3
-4
-5
-9
-13
-17
-19
-21
-22
-21
-19
-17
-15
-13
-12
-12
-13
-15
-17
-19
-20
-21
-20
-18
-15
-12
-8
-6
-4
-5
-6
-9
-12
-15
-18
-19
-18
-17
-15
-13
-11
-11
-12
-14
-16
-19
-21
-21
-21
-19
-17
-14
-11
-8
-7
-7
-8
-10
-13
-16
-18
-20
-21
-20
-19
-17
-15
-13
-11
-9
-8
-8
-8
-8
-9
-10
-11
-12
-14
-15
-17
-18
-18
-18
-17
-16
-14
-13
-12
-12
-12
-14
-16
-18
-19
-21
-21
-20
-19
-18
-17
-16
-15
-15
-15
-16
-16
-17
-18
-18
-18
-18
-17
-16
-13
-11
-7
-4
-2
-1
-1
-3
-6
-10
-15
-20
-23
-25
-26
-24
-21
-17
-12
-8
-4
-1
0
0
-2
-4
-7
-9
-11
-12
-11
-10
-7
-5
-2
0
1
2
1
0
-1
-2
-3
-2
-1
1
3
4
5
5
3
1
-2
-4
-6
-7
-8
-7
-6
-5
-4
-5
-6
-9
-12
-16
-19
-21
-23
-23
-23
-22
-21
-20
-19
-18
-16
-14
-11
-9
-6
-5
-5
-6
-9
-13
-17
-20
-22
-23
-22
-19
-16
-13
-10
-9
-8
-9
-9
-9
-8
-7
-6
-5
-5
-7
-12
-18
-24
-29
-32
-31
-24
-13
4
26
50
75
100
122
142
156
165
168
164
154
138
118
94
69
45
23
6
-6
-13
-15
-13
-10
-5
-1
1
2
2
1
1
1
1
2
2
2
1
-1
-4
-7
-10
-13
-15
-15
-15
-14
-13
-11
-10
-9
-9
-8
-8
-7
-6
-6
-5
-5
-5
-5
-5
-6
-7
-8
-8
-9
-9
-8
-8
-7
-6
-5
-4
-3
-3
-2
-1
0
2
4
6
8
10
10
9
6
2
-2
-7
-12
-16
-17
-18
-16
-14
-11
-8
-4
-2
1
3
6
8
10
12
14
15
15
15
14
13
13
14
17
20
24
28
32
35
37
38
38
37
37
37
37
39
41
43
45
47
49
50
51
52
54
56
57
59
61
62
63
63
64
64
65
67
68
69
70
69
67
64
60
55
50
46
43
41
40
39
38
35
31
24
17
9
2
-4
-9
-11
-10
-9
-6
-4
-2
-1
-2
-4
-6
-8
-9
-9
-9
-7
-6
-4
-3
-3
-4
-6
-8
-9
-11
-11
-11
-11
-11
-10
-11
-12
-14
-17
-19
-21
-23
-23
-22
-19
-15
-11
-7
-4
-1
0
-1
-3
-7
-10
-13
-16
-17
-17
-16
-15
-14
-14
-16
-18
-20
-23
-24
-24
-21
-18
-13
-8
-3
-1
0
-1
-4
-7
-11
-14
-16
-16
-15
-14
-12
-11
-10
-10
-10
-11
-11
-11
-11
-11
-10
-10
-11
-12
-13
-15
-15
-15
-14
-12
-9
-6
-4
-3
-3
-5
-7
-10
-13
-15
-16
-16
-16
-16
-15
-15
-15
-16
-17
-18
-19
-19
-19
-19
-18
-17
-16
-15
-14
-12
-10
-7
-4
-2
-1
0
-1
-3
-6
-9
-11
-13
-14
-13
-11
-9
-7
-6
-6
-8
-10
-13
-16
-18
-20
-19
-18
-17
-15
-14
-13
-14
-15
-16
-17
-17
-17
-16
-14
-12
-11
-10
-10
-11
-13
-15
-17
-19
-20
-20
-20
-19
-18
-16
-15
-15
-14
-13
-13
-12
-11
-10
-8
-8
-8
-9
-10
-12
-14
-16
-17
-17
-16
-15
-13
-11
-10
-10
-11
-12
-14
-15
-15
-14
-11
-7
-2
2
6
9
10
10
9
7
6
4
3
2
1
0
-1
-3
-6
-9
-11
-14
-15
-16
-17
-17
-16
-16
-15
-14
-13
-12
-11
-10
-9
-9
-10
-11
-13
-14
-16
-17
-17
-17
-16
-15
-14
-13
-14
-15
-16
-19
-21
-22
-23
-23
-22
-20
-19
-18
-18
-18
-19
-20
-21
-22
-22
-21
-20
-18
-17
-15
-13
-12
-11
-11
-12
-12
-12
-10
-6
2
13
27
45
64
84
102
117
127
131
129
121
108
91
72
51
31
13
-2
-15
-23
-27
-29
-27
-23
-19
-14
-10
-7
-6
-5
-5
-5
-5
-6
-6
-6
-7
-9
-11
-13
-16
-17
-18
-18
-17
-15
-12
-10
-9
-8
-9
-10
-11
-13
-14
-14
-13
-12
-10
-8
-6
-4
-2
-1
-1
-1
-3
-5
-7
-10
-12
-14
-14
-14
-13
-11
-10
-9
-8
-9
-9
-10
-10
-9
-6
-2
3
8
12
15
16
16
14
12
9
6
5
4
4
5
6
7
7
7
7
8
8
9
9
10
11
11
12
13
14
17
20
24
30
35
40
43
45
44
42
39
37
35
35
37
41
47
53
59
63
65
65
63
61
58
57
57
58
61
64
67
69
69
68
65
63
60
57
55
53
51
49
46
43
38
33
28
23
19
15
12
10
9
7
6
5
4
3
2
0
-2
-5
-8
-11
-15
-17
-19
-19
-18
-16
-13
-11
-9
-9
-10
-12
-15
-17
-20
-20
-20
-19
-17
-14
-12
-11
-10
-10
-10
-11
-11
-12
-12
-13
-15
-17
-19
-22
-24
-25
-24
-22
-18
-13
-8
-4
0
2
1
0
-3
-6
-9
-11
-12
-13
-13
-13
-13
-14
-15
-17
-18
-18
-18
-16
-15
-13
-12
-12
-13
-14
-15
-15
-15
-12
-9
-5
-2
0
1
-1
-5
-10
-15
-21
-24
-26
-25
-22
-18
-13
-9
-5
-3
-3
-4
-6
-9
-13
-16
-18
-20
-20
-19
-17
-15
-13
-11
-10
-9
-10
-10
-11
-11
-11
-10
-9
-8
-8
-9
-11
-13
-16
-17
-18
-17
-14
-10
-7
-4
-4
-5
-9
-15
-20
-25
-27
-27
-25
-20
-15
-10
-7
-6
-7
-9
-13
-16
-19
-20
-20
-20
-19
-18
-17
-16
-15
-14
-13
-12
-11
-11
-11
-12
-13
-14
-14
-13
-11
-8
-4
0
3
4
3
1
-3
-7
-9
-10
-10
-7
-4
0
3
4
3
1
-1
-3
-5
-4
-3
0
2
3
3
1
-4
-9
-15
-20
-22
-23
-21
-18
-14
-11
-8
-7
-8
-10
-12
-14
-16
-16
-16
-16
-15
-15
-16
-17
-19
-21
-23
-24
-24
-22
-20
-18
-16
-15
-15
-15
-17
-19
-20
-20
-19
-16
-12
-8
-4
-1
1
1
-2
-6
-11
-16
-20
-23
-25
-24
-21
-17
-10
0
11
25
42
61
81
101
118
130
136
135
125
107
84
58
32
9
-9
-21
-27
-28
-25
-20
-15
-11
-7
-6
-5
-4
-4
-4
-3
-3
-4
-5
-7
-10
-13
-15
-18
-19
-20
-20
-19
-19
-19
-19
-18
-17
-16
-13
-11
-8
-6
-5
-5
-6
-8
-10
-12
-12
-11
-9
-6
-2
2
4
5
4
1
-3
-7
-11
-13
-15
-14
-13
-10
-7
-4
-2
0
1
2
2
2
3
3
3
3
2
2
1
0
-1
-1
-1
-1
0
1
2
4
5
7
8
9
10
11
12
13
15
16
18
19
21
22
24
25
27
29
31
33
35
36
37
37
37
37
38
40
44
48
53
59
63
67
69
69
67
64
62
59
58
59
60
62
65
66
66
65
62
59
55
52
49
47
45
44
41
37
32
25
17
10
4
0
-1
-1
1
4
5
5
4
0
-5
-11
-15
-19
-20
-19
-16
-12
-8
-5
-4
-4
-6
-8
-11
-13
-15
-16
-16
-16
-16
-16
-16
-17
-17
-17
-16
-15
-13
-11
-10
-9
-9
-10
-12
-14
-16
-17
-18
-18
-19
-19
-20
-20
-21
-21
-20
-18
-15
-12
-8
-5
-3
-3
-5
-9
-13
-18
-21
-23
-22
-20
-16
-11
-7
-4
-2
-2
-4
-6
-9
-11
-12
-12
-12
-11
-11
-11
-12
-13
-14
-15
-16
-16
-16
-15
-14
-13
-13
-13
-13
-14
-14
-14
-14
-14
-13
-13
-12
-12
-11
-11
-10
-10
-9
-9
-8
-9
-10
-12
-14
-17
-19
-21
-21
-20
-18
-16
-13
-11
-11
-11
-13
-15
-17
-17
-17
-15
-12
-9
-6
-5
-6
-8
-12
-17
-21
-24
-24
-23
-19
-15
-11
-8
-7
-8
-10
-13
-16
-18
-19
-18
-16
-13
-9
-6
-4
-4
-4
-5
-6
-6
-5
-4
-1
2
6
8
10
11
10
9
6
4
1
0
-1
-2
-2
-2
-2
-3
-5
-8
-11
-16
-20
-24
-27
-28
-28
-27
-24
-22
-19
-17
-16
-15
-15
-16
-16
-15
-15
-13
-12
-10
-9
-9
-10
-12
-14
-17
-19
-21
-21
-21
-19
-17
-15
-13
-13
-13
-15
-17
-19
-22
-23
-23
-22
-20
-18
-16
-15
-14
-15
-16
-18
-19
-20
-19
-15
-8
2
15
31
49
69
89
108
124
136
143
143
137
124
106
83
59
36
15
-2
-14
-20
-22
-20
-15
-9
-4
1
4
5
5
3
1
-2
-5
-8
-11
-14
-15
-16
-16
-15
-14
-12
-10
-8
-7
-8
-9
-11
-14
-16
-18
-19
-19
-19
-17
-16
-14
-12
-11
-9
-8
-7
-6
-5
-4
-4
-4
-4
-5
-6
-6
-7
-6
-6
-5
-4
-3
-3
-3
-4
-5
-6
-7
-6
-6
-4
-2
0
2
2
2
0
-2
-4
-6
-8
-7
-5
-2
3
8
12
15
16
16
14
11
9
7
7
7
9
12
15
18
19
20
21
21
21
23
25
29
33
38
42
45
48
50
51
52
53
55
57
59
60
61
62
61
60
59
58
57
57
57
57
57
57
56
55
53
51
50
48
47
45
44
41
38
34
30
25
21
17
13
9
6
3
-1
-4
-8
-11
-13
-15
-15
-16
-15
-15
-15
-16
-16
-17
-16
-15
-13
-10
-7
-3
-1
0
0
-3
-7
-11
-16
-19
-20
-20
-18
-15
-11
-8
-6
-5
-6
-7
-10
-12
-14
-16
-17
-17
-16
-15
-14
-13
-11
-10
-9
-9
-9
-10
-11
-13
-16
-19
-21
-24
-25
-26
-25
-23
-20
-16
-13
-10
-9
-9
-11
-14
-17
-19
-21
-21
-19
-16
-12
-8
-4
-1
0
0
-1
-3
-5
-7
-9
-11
-12
-12
-12
-13
-13
-12
-12
-11
-10
-10
-9
-10
-11
-13
-15
-18
-20
-21
-21
-20
-19
-17
-15
-14
-14
-14
-15
-15
-15
-14
-12
-10
-8
-7
-6
-7
-8
-11
-14
-16
-18
-20
-20
-19
-18
-16
-14
-13
-12
-11
-12
-12
-13
-14
-14
-14
-14
-13
-12
-11
-11
-11
-12
-13
-14
-15
-15
-15
-14
-12
-11
-9
-9
-9
-11
-14
-17
-20
-22
-23
-23
-21
-19
-16
-13
-11
-10
-9
-9
-9
-9
-8
-8
-8
-8
-9
-10
-12
-13
-13
-13
-12
-10
-8
-6
-4
-4
-5
-8
-10
-14
-16
-17
-17
-16
-13
-10
-7
-5
-3
-1
-1
0
0
1
1
2
2
1
0
-2
-4
-7
-9
-10
-11
-10
-10
-9
-8
-8
-9
-11
-13
-16
-17
-18
-17
-16
-15
-13
-13
-13
-14
-16
-18
-20
-22
-23
-23
-23
-23
-22
-22
-23
-23
-24
-24
-24
-23
-21
-18
-15
-12
-9
-8
-8
-9
-11
-13
-16
-18
-19
-20
-19
-18
-16
-15
-14
-12
-9
-5
3
14
31
51
75
100
123
144
158
164
161
151
133
111
87
64
43
25
12
2
-5
-9
-11
-12
-12
-12
-10
-8
-5
-2
1
2
2
0
-3
-7
-11
-14
-16
-17
-16
-15
-13
-12
-11
-10
-11
-12
-13
-13
-14
-13
-13
-12
-10
-9
-8
-8
-6
-5
-4
-2
-1
0
0
-1
-2
-4
-7
-9
-10
-11
-11
-11
-10
-9
-8
-8
-7
-7
-7
-6
-6
-6
-6
-6
-6
-6
-6
-6
-5
-4
-3
-1
0
2
3
4
5
6
7
8
9
11
12
12
12
12
11
9
8
8
8
9
10
12
14
15
17
19
21
22
25
27
30
33
36
39
42
43
45
46
47
49
52
55
58
61
63
64
64
62
60
58
56
55
56
58
61
63
64
63
59
53
46
38
30
24
21
19
19
21
22
23
23
20
17
12
7
3
0
-2
-2
-2
-2
-2
-4
-6
-9
-13
-16
-18
-19
-18
-16
-14
-11
-8
-6
-4
-4
-5
-7
-10
-13
-16
-19
-21
-23
-24
-24
-23
-20
-16
-12
-7
-4
-1
-1
-2
-5
-9
-14
-17
-20
-20
-19
-16
-12
-9
-6
-4
-4
-6
-8
-11
-13
-15
-16
-17
-16
-16
-15
-14
-13
-11
-10
-9
-8
-8
-8
-9
-11
-13
-16
-18
-20
-20
-19
-17
-13
-9
-6
-3
-1
-1
-2
-4
-6
-9
-11
-13
-14
-14
-14
-14
-13
-13
-13
-14
-14
-14
-14
-14
-12
-11
-9
-8
-8
-9
-12
-15
-19
-22
-24
-25
-24
-22
-18
-13
-9
-6
-4
-4
-5
-6
-8
-10
-12
-13
-13
-13
-14
-14
-14
-15
-15
-15
-15
-15
-14
-13
-13
-13
-13
-14
-15
-16
-16
-16
-16
-14
-13
-11
-9
-9
-8
-9
-9
-10
-11
-12
-13
-13
-12
-12
-11
-11
-12
-13
-14
-16
-18
-21
-23
-26
-27
-28
-28
-27
-24
-21
-16
-11
-7
-3
-2
-3
-6
-10
-15
-19
-22
-23
-22
-19
-15
-10
-7
-5
-4
-6
-8
-10
-12
-13
-12
-10
-8
-6
-4
-4
-6
-8
-11
-14
-16
-17
-16
-15
-12
-9
-6
-3
-1
1
3
3
3
3
2
1
-1
-2
-3
-4
-4
-4
-4
-4
-3
-4
-4
-6
-7
-8
-9
-10
-11
-12
-13
-15
-17
-19
-21
-22
-23
-22
-21
-18
-15
-12
-10
-8
-8
-9
-11
-14
-16
-18
-20
-20
-19
-18
-17
-16
-16
-16
-17
-18
-20
-21
-22
-23
-22
-20
-17
-13
-9
-5
-2
-1
-2
-4
-8
-13
-18
-23
-26
-26
-24
-17
-6
9
28
51
76
103
128
150
167
176
176
167
150
126
98
70
44
23
7
-2
-5
-5
-3
0
2
2
1
-1
-3
-4
-4
-3
-2
-1
-1
-2
-4
-7
-9
-11
-13
-12
-12
-10
-9
-8
-8
-8
-9
-9
-9
-8
-6
-4
-2
-2
-4
-7
-11
-16
-19
-22
-22
-19
-15
-10
-5
0
2
2
1
-2
-6
-9
-11
-11
-9
-5
0
6
11
15
17
17
15
10
5
-1
-6
-10
-13
-14
-12
-9
-5
-1
3
6
8
9
8
7
6
5
5
6
8
11
14
17
19
19
19
18
16
14
12
11
13
15
20
26
32
39
46
51
55
56
56
54
52
49
46
45
46
48
52
56
61
66
69
71
71
69
66
63
59
56
53
51
50
50
50
51
51
50
48
46
43
39
36
33
30
28
26
24
21
18
14
9
4
-2
-6
-9
-11
-10
-9
-6
-3
-1
1
1
0
-3
-5
-8
-11
-14
-16
-18
-20
-22
-22
-23
-21
-19
-15
-10
-5
1
5
7
8
6
2
-4
-9
-14
-18
-20
-20
-18
-16
-13
-10
-8
-8
-9
-11
-14
-17
-19
-21
-21
-20
-17
-13
-8
-3
2
4
5
4
1
-5
-11
-18
-23
-27
-29
-28
-25
-21
-15
-10
-5
-1
1
1
-1
-3
-6
-9
-12
-14
-15
-16
-16
-15
-15
-14
-13
-12
-11
-11
-10
-10
-9
-9
-8
-7
-6
-5
-4
-5
-6
-8
-11
-13
-15
-16
-17
-16
-14
-13
-11
-10
-10
-11
-13
-14
-15
-16
-15
-14
-13
-12
-12
-13
-14
-17
-19
-21
-21
-21
-19
-16
-13
-11
-10
-11
-14
-17
-20
-22
-23
-21
-17
-13
-8
-4
-2
-2
-4
-8
-12
-16
-18
-20
-20
-18
-17
-15
-13
-13
-13
-13
-14
-14
-15
-14
-14
-13
-12
-11
-11
-12
-13
-15
-16
-18
-18
-18
-17
-14
-12
-9
-7
-7
-8
-10
-14
-18
-21
-23
-24
-22
-19
-16
-13
-11
-10
-11
-13
-15
-16
-16
-15
-13
-10
-8
-7
-7
-8
-10
-12
-13
-12
-10
-7
-3
0
1
1
-2
-7
-12
-16
-19
-19
-16
-10
-3
4
9
12
13
11
7
2
-2
-4
-5
-4
-3
-1
0
0
-2
-6
-10
-14
-18
-20
-20
-19
-18
-16
-14
-14
-15
-16
-18
-19
-20
-19
-18
-16
-13
-11
-9
-9
-9
-11
-13
-15
-17
-19
-20
-21
-21
-20
-20
-19
-19
-20
-21
-22
-22
-23
-22
-21
-19
-17
-15
-14
-15
-17
-20
-24
-28
-31
-32
-31
-27
-20
-9
5
22
42
64
87
110
131
148
159
163
160
150
134
113
89
64
41
20
3
-9
-18
-23
-24
-23
-20
-16
-12
-7
-4
-3
-3
-5
-9
-13
-17
-19
-21
-20
-18
-15
-12
-9
-7
-7
-7
-8
-10
-11
-11
-11
-11
-10
-11
-12
-14
-16
-18
-20
-20
-19
-16
-12
-7
-2
1
3
2
0
-3
-7
-10
-12
-12
-10
-7
-4
-2
-1
-2
-4
-7
-12
-15
-18
-19
-18
-15
-11
-7
-3
1
3
4
4
2
0
-2
-3
-4
-5
-5
-4
-2
0
3
6
9
11
14
15
16
16
16
16
16
18
20
24
28
33
37
39
40
40
38
35
32
30
30
31
34
38
43
48
53
58
62
65
66
67
67
65
63
59
56
53
50
49
50
51
53
55
57
56
55
51
47
42
37
33
29
27
25
23
21
18
14
10
7
4
1
0
-1
-1
-2
-4
-6
-9
-13
-16
-19
-21
-21
-21
-19
-17
-14
-12
-11
-11
-12
-14
-16
-19
-21
-22
-22
-22
-20
-18
-15
-13
-12
-13
-14
-17
-20
-22
-22
-21
-18
-14
-9
-6
-4
-5
-9
-15
-21
-26
-30
-30
-28
-23
-16
-9
-4
-1
-2
-5
-10
-15
-20
-22
-22
-20
-17
-13
-10
-8
-8
-10
-12
-15
-17
-18
-17
-15
-12
-10
-7
-6
-7
-8
-11
-13
-15
-16
-16
-15
-14
-13
-13
-13
-14
-15
-16
-16
-15
-13
-10
-7
-4
-3
-4
-6
-10
-14
-17
-19
-20
-19
-17
-14
-12
-12
-13
-16
-20
-23
-26
-26
-25
-22
-18
-14
-10
-8
-8
-10
-12
-15
-17
-18
-17
-16
-14
-12
-11
-10
-10
-11
-11
-11
-11
-10
-9
-7
-6
-5
-5
-6
-8
-10
-12
-14
-15
-16
-17
-17
-17
-18
-19
-20
-21
-22
-22
-22
-21
-19
-17
-14
-11
-9
-7
-6
-6
-6
-7
-7
-8
-7
-6
-4
-1
2
5
8
9
10
9
7
5
3
1
0
-1
-1
0
0
0
-2
-4
-7
-10
-14
-16
-17
-17
-16
-15
-14
-14
-15
-17
-19
-22
-23
-23
-22
-19
-16
-12
-10
-9
-10
-12
-16
-19
-22
-24
-24
-23
-22
-20
-19
-19
-19
-20
-21
-22
-21
-19
-17
-13
-10
-8
-7
-7
-9
-13
-16
-20
-22
-24
-24
-23
-20
-17
-13
-8
0
10
24
41
62
85
108
130
146
157
159
153
139
119
95
70
45
24
7
-6
-15
-19
-22
-22
-21
-19
-17
-14
-10
-7
-3
-1
0
0
-2
-6
-10
-13
-16
-17
-15
-13
-9
-5
-2
-1
-3
-6
-10
-14
-18
-19
-19
-17
-13
-9
-6
-4
-3
-4
-5
-7
-8
-9
-9
-8
-7
-5
-4
-4
-4
-5
-6
-6
-7
-7
-7
-6
-5
-4
-4
-4
-4
-6
-7
-9
-10
-11
-12
-11
-9
-7
-4
0
4
8
11
13
13
12
10
8
6
4
2
2
4
6
9
12
15
17
19
20
20
20
20
20
22
24
27
30
35
39
43
46
48
49
49
48
46
44
44
45
48
52
58
65
71
76
80
81
79
76
72
68
64
62
61
61
62
62
61
60
57
54
49
45
42
39
37
35
33
30
27
23
18
13
8
3
-1
-4
-6
-8
-8
-9
-9
-9
-10
-11
-12
-14
-16
-18
-19
-20
-19
-17
-15
-13
-10
-9
-9
-9
-11
-12
-14
-14
-13
-10
-8
-6
-4
-4
-6
-10
-14
-19
-22
-24
-24
-23
-20
-17
-15
-13
-14
-15
-17
-20
-21
-22
-22
-21
-19
-17
-15
-15
-15
-15
-16
-17
-18
-18
-18
-17
-16
-16
-17
-18
-19
-21
-22
-22
-22
-21
-19
-16
-13
-9
-7
-5
-5
-5
-6
-8
-10
-13
-14
-15
-15
-14
-13
-10
-8
-6
-5
-4
-5
-6
-8
-10
-13
-15
-18
-20
-21
-23
-23
-24
-23
-22
-21
-20
-19
-18
-18
-18
-19
-20
-20
-20
-19
-17
-15
-12
-9
-7
-6
-6
-7
-9
-11
-14
-16
-18
-19
-20
-20
-20
-19
-19
-18
-17
-16
-16
-15
-14
-13
-12
-11
-10
-10
-11
-12
-13
-15
-17
-18
-19
-20
-19
-18
-16
-14
-13
-13
-13
-14
-16
-17
-18
-18
-17
-16
-13
-11
-9
-8
-8
-9
-10
-12
-15
-17
-19
-20
-19
-18
-15
-11
-6
-2
1
3
3
1
-2
-6
-9
-11
-11
-8
-4
0
4
7
8
6
3
-2
-6
-9
-11
-10
-9
-6
-4
-3
-3
-5
-9
-13
-18
-22
-25
-27
-27
-28
-27
-26
-25
-23
-21
-18
-15
-12
-9
-8
-7
-8
-10
-12
-15
-17
-19
-19
-18
-16
-14
-12
-11
-10
-11
-12
-13
-15
-16
-17
-17
-18
-18
-19
-20
-21
-22
-22
-23
-23
-23
-23
-23
-23
-24
-23
-21
-17
-10
2
18
38
62
87
111
133
150
161
165
160
148
130
107
82
58
35
16
2
-8
-14
-16
-16
-14
-11
-9
-7
-6
-5
-4
-5
-5
-6
-7
-9
-11
-14
-16
-19
-21
-22
-23
-21
-19
-15
-11
-7
-3
-1
0
-1
-3
-7
-10
-13
-15
-16
-14
-11
-8
-4
-1
0
0
-2
-5
-8
-11
-13
-13
-12
-9
-6
-3
-1
-1
-2
-4
-7
-9
-11
-12
-12
-11
-9
-7
-5
-3
-2
-2
-2
-2
-2
-3
-3
-3
-3
-3
-2
-1
1
4
7
11
14
16
17
18
17
16
15
14
14
14
16
17
20
22
24
27
28
30
32
33
35
37
39
42
46
49
52
55
56
57
56
55
53
52
51
52
55
58
63
67
71
74
75
74
72
69
65
62
59
57
55
53
50
47
42
37
31
25
20
17
15
13
12
11
9
6
3
-2
-6
-9
-12
-13
-12
-12
-11
-10
-10
-11
-13
-14
-15
-16
-15
-14
-13
-12
-12
-12
-12
-13
-13
-13
-12
-10
-8
-6
-5
-6
-7
-10
-13
-16
-17
-16
-14
-11
-7
-5
-4
-5
-8
-12
-16
-20
-21
-21
-19
-16
-13
-11
-10
-11
-14
-18
-21
-24
-25
-25
-22
-18
-13
-9
-6
-5
-5
-7
-9
-12
-15
-16
-17
-17
-17
-16
-16
-15
-15
-14
-14
-13
-12
-11
-10
-10
-10
-11
-12
-14
-15
-16
-15
-14
-12
-10
-8
-6
-5
-6
-7
-9
-11
-12
-12
-12
-10
-8
-5
-4
-3
-4
-7
-10
-14
-18
-21
-22
-21
-18
-15
-12
-10
-9
-10
-13
-16
-20
-22
-23
-21
-18
-13
-8
-4
-1
-1
-4
-8
-12
-17
-21
-23
-23
-21
-19
-16
-14
-12
-11
-12
-13
-14
-15
-17
-18
-18
-18
-18
-17
-17
-16
-15
-14
-13
-13
-13
-14
-15
-16
-17
-17
-16
-15
-14
-13
-12
-11
-10
-10
-11
-11
-10
-10
-8
-7
-5
-4
-3
-3
-3
-3
-4
-4
-4
-4
-4
-4
-4
-4
-5
-5
-5
-5
-4
-3
-1
1
3
5
6
6
6
4
2
-1
-4
-6
-8
-9
-10
-10
-10
-10
-11
-12
-13
-15
-17
-19
-20
-20
-19
-17
-14
-12
-10
-10
-11
-13
-16
-18
-20
-21
-21
-19
-16
-13
-10
-9
-9
-10
-12
-14
-16
-17
-17
-16
-15
-13
-12
-11
-11
-12
-13
-15
-17
-19
-21
-22
-22
-22
-22
-19
-15
-8
4
19
39
62
88
114
138
157
170
173
168
154
133
108
82
56
34
17
4
-3
-7
-9
-10
-10
-10
-11
-13
-14
-14
-14
-13
-12
-10
-8
-8
-8
-9
-11
-13
-15
-16
-16
-15
-13
-11
-8
-6
-4
-4
-4
-5
-7
-8
-10
-10
-10
-9
-7
-6
-4
-3
-3
-4
-6
-9
-11
-14
-16
-17
-17
-16
-14
-12
-9
-6
-4
-2
-1
0
0
0
0
-1
-1
-2
-2
-1
-1
-1
-1
0
-1
-1
-1
-1
0
0
1
1
2
2
3
3
4
5
6
7
9
10
12
13
15
17
20
23
26
29
32
35
37
38
37
36
35
34
34
35
37
41
46
51
56
60
62
63
63
61
60
58
57
56
57
59
61
63
65
66
67
67
66
65
64
63
62
60
58
55
51
46
41
34
28
23
17
13
10
8
6
4
3
1
-1
-3
-5
-7
-9
-10
-11
-12
-12
-12
-13
-13
-13
-14
-14
-14
-15
-15
-15
-15
-15
-15
-16
-16
-15
-15
-14
-13
-13
-13
-13
-15
-17
-19
-20
-21
-21
-19
-17
-13
-10
-7
-5
-5
-6
-7
-9
-12
-14
-15
-16
-17
-18
-18
-19
-20
-20
-20
-20
-19
-17
-15
-13
-12
-11
-11
-11
-13
-15
-16
-18
-18
-18
-17
-15
-14
-12
-11
-11
-11
-13
-14
-16
-17
-18
-18
-17
-16
-14
-13
-12
-12
-12
-13
-15
-16
-17
-18
-18
-17
-17
-16
-15
-15
-15
-16
-17
-18
-19
-19
-19
-19
-18
-17
-17
-16
-17
-18
-20
-22
-24
-26
-26
-26
-24
-22
-19
-17
-15
-13
-13
-14
-16
-17
-19
-20
-20
-19
-19
-18
-18
-18
-19
-20
-21
-21
-22
-21
-20
-19
-18
-17
-17
-18
-19
-22
-24
-26
-27
-27
-25
-23
-21
-18
-17
-16
-17
-18
-20
-22
-24
-25
-25
-23
-20
-17
-14
-11
-9
-8
-9
-10
-12
-14
-15
-15
-14
-12
-9
-7
-5
-5
-5
-7
-9
-11
-12
-12
-11
-8
-4
-1
1
1
0
-3
-8
-12
-16
-18
-19
-19
-18
-16
-16
-16
-18
-20
-23
-26
-28
-28
-28
-27
-25
-23
-23
-23
-24
-26
-27
-28
-28
-27
-24
-22
-19
-17
-16
-17
-18
-20
-21
-22
-22
-21
-20
-17
-15
-14
-13
-13
-15
-17
-20
-23
-26
-29
-31
-33
-33
-32
-30
-26
-20
-12
-1
11
26
42
59
77
94
110
122
129
131
125
113
95
73
48
24
1
-17
-30
-38
-41
-40
-38
-34
-31
-28
-25
-23
-21
-18
-16
-13
-10
-8
-7
-6
-6
-5
-4
-3
-1
0
2
2
1
-2
-5
-9
-13
-16
-18
-18
-16
-13
-10
-7
-5
-3
-3
-3
-3
-3
-4
-4
-4
-4
-3
-3
-3
-3
-3
-4
-4
-5
-5
-5
-5
-4
-2
0
4
7
10
12
12
11
8
5
1
-2
-4
-5
-3
0
3
7
11
13
13
13
11
9
8
7
7
8
10
13
16
19
21
23
25
26
27
28
30
32
34
37
39
42
45
48
50
53
55
57
58
60
61
63
64
65
67
69
71
73
75
77
78
78
77
75
73
71
68
65
63
62
60
59
57
55
52
48
43
37
31
25
20
17
15
14
15
16
17
17
16
13
10
5
1
-3
-7
-9
-10
-10
-11
-11
-12
-13
-14
-14
-14
-12
-10
-7
-4
-2
-1
-1
-3
-6
-9
-12
-13
-14
-13
-11
-9
-8
-8
-10
-13
-16
-19
-22
-24
-24
-23
-21
-18
-15
-12
-10
-8
-8
-8
-9
-10
-12
-13
-14
-15
-15
-14
-13
-12
-11
-11
-11
-12
-14
-16
-17
-19
-19
-18
-16
-13
-9
-6
-4
-2
-2
-2
-4
-7
-9
-12
-14
-16
-16
-16
-15
-13
-10
-8
-6
-5
-5
-7
-8
-10
-12
-13
-14
-14
-13
-11
-10
-8
-7
-7
-7
-7
-7
-7
-7
-7
-8
-10
-12
-14
-17
-19
-20
-21
-20
-18
-15
-11
-7
-4
-2
-2
-3
-5
-9
-13
-18
-22
-25
-28
-28
-26
-23
-18
-12
-7
-2
1
2
2
0
-3
-7
-10
-12
-13
-13
-12
-11
-10
-9
-9
-9
-9
-10
-10
-10
-11
-11
-11
-11
-10
-10
-9
-7
-6
-4
-2
0
1
2
2
1
0
-1
-2
-4
-6
-7
-9
-10
-10
-10
-9
-8
-6
-5
-5
-6
-8
-12
-17
-22
-26
-28
-28
-26
-22
-17
-12
-8
-6
-6
-9
-12
-16
-19
-21
-22
-21
-20
-18
-16
-15
-15
-15
-16
-16
-16
-16
-15
-14
-14
-14
-16
-18
-21
-23
-26
-27
-27
-27
-25
-22
-18
-14
-7
1
11
24
40
57
76
95
112
126
135
138
134
124
109
90
68
46
26
8
-6
-16
-22
-25
-25
-23
-20
-16
-12
-9
-5
-2
0
1
1
0
-2
-5
-9
-13
-16
-19
-20
-20
-19
-17
-15
-13
-12
-11
-11
-11
-10
-10
-10
-9
-9
-10
-12
-13
-15
-16
-16
-14
-10
-6
-1
3
5
5
3
-1
-6
-11
-14
-16
-15
-13
-10
-7
-4
-3
-4
-5
-6
-7
-7
-6
-4
-2
0
1
1
0
-2
-3
-5
-4
-3
0
3
6
8
9
9
8
6
6
6
8
11
15
18
20
21
20
19
17
15
15
17
20
24
29
34
39
42
44
46
46
47
48
49
51
54
56
58
60
61
61
61
60
60
61
62
63
64
65
64
63
60
57
53
49
46
44
42
41
40
38
36
32
27
21
16
10
6
3
1
0
0
0
0
-1
-3
-5
-6
-8
-10
-11
-12
-13
-13
-14
-15
-16
-17
-17
-17
-16
-14
-12
-10
-8
-7
-6
-7
-9
-11
-14
-17
-19
-21
-21
-20
-19
-17
-15
-13
-13
-13
-13
-15
-16
-17
-18
-19
-19
-19
-19
-18
-18
-18
-18
-17
-16
-15
-13
-12
-11
-11
-12
-13
-15
-18
-20
-21
-20
-19
-17
-15
-12
-10
-8
-8
-7
-8
-8
-9
-10
-12
-14
-17
-19
-22
-24
-25
-24
-22
-18
-14
-9
-6
-4
-4
-6
-9
-12
-15
-16
-17
-15
-13
-11
-9
-8
-8
-9
-11
-13
-14
-14
-14
-13
-11
-11
-11
-12
-13
-15
-18
-19
-19
-19
-17
-16
-14
-14
-15
-17
-20
-23
-25
-27
-26
-25
-21
-17
-13
-10
-8
-8
-9
-12
-15
-18
-21
-22
-23
-22
-20
-18
-15
-13
-12
-11
-10
-10
-10
-10
-10
-11
-12
-13
-15
-17
-19
-20
-21
-20
-19
-17
-15
-12
-11
-9
-9
-9
-10
-11
-12
-13
-14
-15
-16
-15
-14
-12
-9
-5
-1
3
6
7
6
4
0
-5
-8
-10
-10
-7
-2
3
9
12
13
10
5
-3
-12
-19
-25
-28
-28
-25
-21
-17
-14
-12
-12
-14
-16
-19
-21
-22
-22
-21
-20
-19
-19
-19
-20
-21
-22
-22
-20
-18
-14
-11
-8
-7
-7
-9
-13
-17
-21
-24
-25
-25
-24
-21
-18
-16
-14
-14
-14
-16
-18
-21
-23
-25
-26
-26
-24
-20
-13
-3
10
27
48
70
93
115
134
147
154
154
146
132
112
90
67
45
26
11
1
-4
-6
-5
-3
-1
1
1
-1
-4
-7
-10
-13
-15
-16
-15
-14
-13
-11
-10
-9
-9
-9
-9
-9
-9
-10
-10
-12
-13
-15
-18
-19
-20
-20
-18
-15
-12
-8
-5
-4
-3
-4
-6
-8
-11
-12
-13
-12
-11
-9
-8
-6
-6
-5
-5
-5
-5
-4
-3
-2
-1
-1
-2
-3
-5
-7
-9
-10
-10
-9
-8
-5
-3
-1
0
1
1
1
0
1
2
3
5
7
8
9
10
9
8
7
7
8
9
12
15
19
22
24
27
28
30
32
34
36
39
43
46
49
51
52
53
54
54
55
56
57
58
59
59
59
58
57
57
56
56
57
57
58
58
58
57
56
55
53
51
49
46
43
40
35
31
26
22
18
16
13
11
9
7
4
0
-4
-7
-10
-11
-11
-10
-8
-7
-6
-6
-7
-9
-13
-16
-18
-19
-18
-17
-14
-11
-8
-7
-7
-9
-12
-16
-21
-24
-26
-26
-24
-21
-16
-12
-8
-5
-4
-5
-7
-9
-12
-14
-15
-15
-14
-11
-9
-6
-5
-4
-5
-7
-9
-11
-12
-13
-12
-10
-9
-7
-7
-8
-10
-13
-17
-21
-24
-26
-26
-24
-21
-17
-13
-10
-7
-6
-6
-7
-9
-11
-12
-13
-13
-13
-12
-11
-11
-10
-11
-11
-12
-14
-14
-15
-15
-15
-14
-14
-13
-13
-13
-13
-13
-14
-13
-13
-12
-11
-10
-9
-9
-10
-11
-13
-15
-17
-19
-19
-18
-16
-13
-10
-7
-6
-5
-6
-8
-11
-13
-15
-16
-16
-15
-13
-10
-8
-7
-7
-9
-11
-13
-15
-17
-18
-18
-17
-16
-15
-14
-13
-14
-15
-17
-18
-20
-22
-22
-22
-21
-19
-17
-15
-13
-12
-12
-13
-14
-15
-16
-16
-16
-15
-14
-13
-12
-11
-10
-10
-10
-10
-10
-11
-11
-12
-13
-15
-16
-17
-18
-19
-18
-17
-15
-13
-11
-9
-9
-9
-9
-10
-10
-10
-8
-6
-3
-1
1
1
0
-2
-5
-7
-9
-10
-9
-7
-5
-2
0
1
1
1
1
1
1
2
3
3
3
2
0
-2
-4
-6
-8
-8
-7
-6
-6
-6
-8
-10
-13
-16
-18
-18
-17
-15
-12
-9
-7
-6
-7
-9
-12
-16
-19
-21
-22
-22
-21
-19
-18
-17
-16
-16
-16
-16
-16
-16
-16
-16
-16
-16
-16
-16
-16
-15
-13
-10
-7
-4
-2
-1
-2
-5
-9
-15
-19
-23
-23
-20
-11
2
20
41
65
90
113
134
151
162
166
164
156
141
122
100
76
52
30
11
-4
-14
-20
-22
-21
-17
-12
-7
-3
-1
-1
-2
-4
-7
-11
-13
-14
-13
-11
-7
-4
-1
1
1
0
-2
-5
-8
-10
-11
-12
-11
-9
-7
-5
-4
-4
-4
-6
-9
-11
-14
-16
-17
-18
-17
-15
-11
-8
-4
-1
2
3
3
2
0
-1
-2
-2
0
3
6
9
11
12
11
8
4
0
-5
-9
-12
-13
-13
-11
-9
-6
-3
-1
2
3
4
5
4
4
3
2
2
2
4
6
9
13
16
19
21
23
24
24
24
25
27
30
33
37
41
45
48
51
52
53
53
53
53
54
55
57
59
61
63
64
65
65
65
64
63
63
63
63
64
64
63
62
59
56
52
47
42
38
34
30
27
24
21
18
14
11
9
6
5
4
3
3
2
2
1
-1
-2
-4
-6
-7
-9
-10
-11
-12
-13
-15
-16
-18
-19
-19
-19
-18
-17
-15
-14
-13
-13
-13
-14
-16
-17
-18
-19
-19
-18
-17
-16
-14
-12
-10
-8
-7
-5
-5
-4
-5
-5
-6
-7
-9
-10
-11
-11
-12
-12
-12
-12
-12
-11
-11
-10
-10
-10
-10
-10
-11
-12
-14
-15
-16
-17
-18
-18
-18
-17
-17
-16
-16
-15
-15
-15
-15
-15
-16
-17
-18
-19
-20
-20
-19
-16
-13
-10
-6
-2
0
1
1
-1
-3
-6
-9
-11
-13
-15
-16
-17
-18
-20
-22
-23
-24
-24
-23
-21
-19
-16
-13
-11
-9
-8
-8
-9
-10
-11
-12
-12
-13
-14
-15
-16
-17
-18
-18
-18
-17
-15
-13
-11
-9
-7
-7
-7
-8
-9
-11
-12
-14
-15
-16
-16
-16
-16
-15
-14
-13
-11
-10
-9
-9
-10
-12
-15
-17
-20
-22
-23
-22
-21
-19
-17
-15
-14
-14
-14
-16
-17
-18
-18
-18
-17
-16
-14
-12
-10
-9
-8
-7
-6
-5
-5
-6
-8
-11
-14
-18
-21
-24
-25
-25
-23
-21
-18
-14
-12
-10
-8
-8
-8
-8
-7
-7
-6
-5
-4
-3
-2
-1
0
0
1
2
2
2
2
1
-1
-2
-4
-5
-5
-5
-6
-6
-8
-10
-12
-15
-17
-19
-19
-18
-15
-12
-9
-7
-6
-7
-9
-12
-14
-17
-18
-18
-17
-15
-13
-13
-13
-14
-15
-17
-19
-19
-18
-16
-14
-12
-10
-11
-13
-16
-20
-24
-27
-28
-26
-23
-17
-11
-5
-1
2
1
-1
-5
-10
-14
-19
-22
-23
-24
-23
-20
-15
-8
2
15
32
52
73
94
113
128
138
140
134
121
103
81
58
36
16
0
-13
-21
-25
-28
-28
-27
-26
-24
-22
-20
-17
-15
-13
-11
-10
-10
-9
-9
-9
-8
-8
-7
-7
-8
-9
-11
-13
-14
-15
-14
-13
-11
-9
-7
-5
-5
-5
-6
-7
-8
-9
-9
-8
-8
-7
-6
-6
-5
-5
-4
-4
-2
-1
1
2
3
4
3
2
1
-1
-3
-4
-5
-5
-5
-4
-3
-2
-2
-1
-1
0
0
1
3
4
6
8
10
11
12
12
12
11
10
9
8
7
7
7
8
9
11
14
16
19
22
24
27
30
32
35
38
41
44
47
50
52
54
56
56
57
58
59
60
62
64
66
68
70
70
70
70
69
68
68
67
67
66
65
63
60
56
51
46
41
37
34
32
31
30
29
26
23
19
14
8
3
-2
-6
-9
-10
-10
-8
-6
-4
-3
-1
-1
-1
-2
-4
-6
-7
-8
-8
-8
-8
-7
-7
-8
-10
-14
-18
-23
-28
-32
-34
-35
-33
-29
-24
-18
-13
-9
-6
-5
-6
-7
-8
-9
-10
-10
-9
-8
-8
-8
-9
-11
-12
-13
-14
-15
-15
-14
-14
-14
-15
-17
-18
-20
-21
-21
-20
-18
-15
-12
-10
-8
-8
-9
-11
-14
-15
-16
-15
-12
-8
-4
-1
1
0
-3
-9
-15
-22
-27
-30
-31
-28
-23
-17
-11
-5
-2
0
-1
-3
-6
-8
-11
-12
-13
-12
-12
-12
-11
-12
-12
-12
-13
-13
-14
-15
-17
-18
-20
-22
-22
-22
-21
-18
-15
-11
-8
-6
-5
-6
-7
-9
-11
-12
-11
-10
-8
-7
-7
-8
-11
-16
-22
-27
-32
-34
-34
-31
-27
-22
-17
-12
-9
-8
-8
-9
-10
-11
-12
-13
-13
-14
-15
-16
-17
-18
-19
-18
-17
-15
-12
-9
-6
-4
-4
-6
-8
-11
-15
-17
-18
-18
-17
-14
-11
-9
-7
-7
-7
-8
-9
-10
-9
-7
-5
-1
2
4
5
5
3
0
-4
-7
-9
-10
-9
-8
-5
-3
-1
0
0
-1
-2
-3
-4
-4
-4
-4
-4
-5
-6
-8
-11
-14
-16
-18
-19
-19
-18
-17
-16
-16
-17
-18
-20
-21
-21
-21
-20
-19
-17
-16
-15
-16
-17
-19
-21
-23
-23
-23
-21
-18
-15
-13
-10
-9
-8
-9
-9
-10
-11
-12
-12
-13
-14
-16
-18
-20
-22
-24
-24
-23
-19
-13
-3
11
28
47
69
91
111
129
141
147
145
135
119
98
73
48
25
6
-8
-16
-19
-18
-15
-11
-8
-7
-8
-10
-12
-15
-17
-17
-16
-14
-11
-8
-5
-3
-1
0
0
0
-1
-3
-5
-7
-10
-13
-15
-16
-15
-13
-10
-7
-4
-2
-2
-4
-8
-12
-16
-18
-19
-16
-13
-8
-3
1
2
2
-1
-5
-8
-11
-13
-12
-10
-8
-5
-3
-2
-2
-3
-4
-5
-5
-4
-2
0
3
5
6
7
7
7
6
6
5
5
5
5
5
4
4
4
4
5
6
8
10
12
14
15
15
15
15
16
17
20
23
27
32
37
42
46
48
50
51
52
52
53
55
57
60
62
65
66
67
68
67
67
67
67
67
68
69
69
69
68
66
63
59
55
50
46
42
38
34
31
27
23
19
15
11
7
3
1
-1
-1
0
1
3
5
7
7
6
4
1
-2
-6
-9
-11
-12
-12
-12
-11
-10
-10
-11
-12
-14
-16
-17
-18
-18
-17
-15
-14
-12
-11
-11
-12
-13
-14
-15
-16
-16
-15
-14
-13
-13
-13
-14
-15
-16
-17
-18
-18
-18
-17
-16
-15
-14
-13
-11
-9
-7
-5
-3
-2
-2
-3
-5
-9
-12
-16
-19
-20
-21
-20
-18
-16
-13
-11
-10
-9
-9
-10
-11
-11
-12
-13
-13
-13
-12
-12
-11
-10
-9
-8
-7
-7
-7
-7
-7
-8
-10
-11
-12
-12
-12
-12
-11
-9
-8
-7
-6
-5
-5
-6
-6
-7
-8
-10
-12
-14
-16
-18
-19
-19
-18
-17
-15
-13
-11
-9
-9
-10
-11
-13
-15
-16
-17
-16
-15
-14
-12
-10
-9
-8
-8
-9
-11
-12
-14
-15
-15
-15
-15
-14
-13
-11
-10
-9
-8
-8
-8
-9
-10
-11
-12
-14
-16
-17
-18
-19
-19
-19
-17
-16
-13
-11
-8
-6
-5
-5
-6
-9
-12
-16
-20
-23
-24
-23
-21
-18
-15
-13
-11
-11
-12
-13
-15
-17
-17
-17
-15
-13
-10
-8
-6
-4
-3
-3
-2
-2
-2
-1
-1
-2
-2
-3
-4
-5
-5
-4
-2
1
3
6
7
6
5
2
-1
-4
-6
-7
-7
-7
-6
-6
-6
-7
-8
-11
-14
-16
-18
-19
-19
-18
-16
-14
-13
-12
-12
-13
-15
-17
-19
-20
-21
-22
-21
-20
-18
-16
-13
-11
-10
-9
-8
-8
-8
-9
-9
-9
-10
-10
-11
-11
-12
-12
-13
-13
-13
-13
-13
-14
-15
-17
-19
-22
-24
-26
-27
-26
-24
-20
-13
-3
10
26
44
65
87
108
128
143
154
158
155
145
130
111
88
66
44
25
10
-1
-8
-12
-13
-12
-10
-7
-5
-3
-1
0
0
0
-1
-3
-4
-6
-8
-9
-10
-11
-11
-11
-10
-10
-11
-11
-12
-13
-14
-15
-16
-16
-16
-16
-15
-14
-14
-13
-13
-12
-12
-11
-10
-10
-9
-8
-8
-7
-6
-5
-5
-4
-4
-4
-5
-6
-7
-8
-9
-10
-10
-11
-11
-11
-11
-10
-9
-7
-4
-1
2
5
7
8
8
7
4
0
-4
-6
-8
-7
-4
0
6
12
17
20
21
20
18
14
10
7
5
6
10
15
21
27
33
36
38
38
37
37
37
38
41
46
50
54
57
58
57
54
50
47
46
47
50
56
63
70
75
78
77
73
67
59
51
44
40
38
39
40
42
43
42
38
33
27
20
14
9
5
4
3
4
5
5
6
5
4
3
2
0
-2
-3
-5
-7
-10
-12
-14
-16
-17
-18
-17
-16
-14
-12
-11
-10
-10
-10
-12
-14
-16
-18
-19
-20
-19
-18
-17
-15
-13
-12
-11
-10
-10
-10
-11
-12
-12
-13
-14
-15
-16
-17
-17
-17
-16
-15
-14
-13
-11
-10
-10
-10
-11
-12
-13
-13
-13
-13
-12
-11
-10
-9
-9
-10
-11
-12
-13
-14
-15
-15
-14
-14
-13
-13
-13
-14
-15
-15
-16
-16
-15
-14
-12
-11
-9
-8
-7
-7
-8
-9
-10
-11
-13
-14
-14
-15
-15
-15
-16
-16
-16
-17
-16
-16
-14
-11
-8
-5
-2
0
0
-2
-5
-10
-15
-21
-25
-27
-28
-26
-23
-19
-14
-10
-7
-6
-5
-6
-8
-11
-13
-16
-17
-18
-18
-17
-15
-13
-11
-9
-8
-8
-10
-12
-14
-17
-18
-19
-19
-17
-15
-13
-11
-10
-11
-12
-14
-16
-17
-18
-17
-15
-12
-10
-8
-7
-7
-8
-10
-13
-15
-16
-17
-16
-16
-15
-14
-15
-15
-17
-18
-19
-20
-20
-19
-18
-17
-17
-17
-17
-18
-20
-21
-22
-22
-21
-20
-18
-16
-14
-12
-10
-9
-8
-7
-7
-7
-8
-9
-10
-11
-13
-14
-15
-16
-15
-14
-12
-10
-7
-3
0
2
4
4
3
1
-2
-5
-8
-10
-11
-10
-8
-5
-2
1
3
5
6
5
5
4
3
2
2
1
0
-2
-4
-7
-10
-13
-15
-17
-18
-18
-17
-16
-15
-13
-12
-11
-10
-10
-10
-10
-10
-11
-12
-14
-16
-18
-19
-20
-20
-19
-17
-15
-14
-13
-12
-13
-14
-16
-18
-18
-18
-17
-15
-12
-10
-9
-8
-9
-11
-13
-16
-18
-19
-21
-22
-23
-24
-26
-26
-26
-24
-19
-12
-1
14
32
52
73
95
116
134
150
160
165
164
156
141
121
98
72
48
26
8
-5
-13
-16
-16
-14
-11
-9
-8
-8
-8
-8
-9
-9
-9
-10
-10
-11
-13
-15
-16
-16
-16
-14
-11
-8
-5
-3
-2
-3
-4
-7
-9
-10
-11
-11
-9
-8
-7
-6
-7
-8
-10
-13
-15
-16
-16
-15
-13
-10
-8
-6
-5
-5
-6
-6
-7
-7
-7
-7
-6
-5
-4
-3
-3
-2
-2
-1
-1
0
2
3
4
5
6
6
5
4
4
2
2
1
0
0
0
1
2
4
6
8
11
13
15
17
18
19
19
20
20
21
22
24
26
29
33
36
38
41
42
44
45
45
46
47
48
50
52
54
57
59
62
65
67
69
71
72
72
72
70
68
66
63
60
58
56
54
51
49
45
41
36
30
25
21
17
14
12
10
8
7
4
1
-2
-5
-8
-9
-10
-9
-8
-6
-5
-5
-6
-8
-10
-14
-16
-18
-18
-16
-13
-9
-5
-2
0
1
-1
-4
-8
-13
-18
-22
-24
-25
-24
-22
-20
-16
-13
-11
-9
-8
-8
-9
-9
-10
-11
-11
-11
-11
-12
-13
-14
-16
-17
-18
-18
-17
-15
-12
-9
-6
-4
-2
-1
-2
-3
-5
-7
-9
-11
-13
-14
-15
-15
-15
-15
-14
-13
-12
-12
-11
-11
-11
-11
-11
-11
-11
-11
-11
-11
-11
-12
-12
-12
-11
-10
-9
-7
-5
-3
-2
-2
-3
-5
-8
-11
-13
-15
-17
-17
-16
-15
-13
-12
-11
-11
-11
-12
-13
-14
-15
-16
-16
-17
-17
-17
-16
-15
-14
-13
-12
-10
-9
-8
-9
-10
-12
-15
-17
-19
-19
-18
-16
-13
-9
-6
-4
-3
-4
-5
-7
-9
-10
-11
-10
-9
-8
-7
-6
-6
-7
-9
-11
-13
-16
-17
-19
-20
-20
-20
-19
-19
-18
-18
-17
-17
-17
-16
-16
-15
-14
-13
-12
-11
-10
-10
-10
-11
-12
-13
-15
-16
-16
-16
-16
-15
-14
-13
-12
-12
-12
-12
-13
-14
-15
-15
-15
-14
-14
-13
-12
-12
-12
-12
-11
-11
-9
-8
-6
-4
-2
-1
-1
-1
-2
-2
-2
-2
0
2
4
5
6
6
5
2
-1
-3
-5
-6
-6
-5
-3
-2
-2
-3
-5
-8
-11
-14
-16
-16
-15
-13
-11
-9
-8
-8
-9
-10
-11
-12
-13
-12
-12
-11
-10
-10
-10
-10
-11
-12
-13
-14
-15
-15
-16
-17
-18
-19
-20
-20
-19
-18
-17
-15
-14
-14
-15
-16
-18
-19
-19
-19
-17
-14
-11
-8
-7
-7
-9
-13
-16
-20
-21
-18
-11
1
17
38
61
85
107
125
138
143
141
131
115
94
71
48
26
8
-6
-15
-20
-22
-21
-20
-18
-17
-16
-16
-16
-16
-16
-16
-15
-13
-11
-10
-9
-8
-8
-8
-9
-9
-8
-8
-6
-5
-4
-3
-3
-4
-5
-6
-7
-8
-9
-8
-8
-7
-6
-6
-7
-8
-10
-12
-13
-14
-13
-11
-9
-7
-5
-3
-2
-2
-3
-3
-4
-4
-5
-4
-4
-4
-4
-4
-4
-4
-3
-1
1
4
6
8
10
10
9
8
5
3
2
1
2
3
6
8
10
11
11
10
9
7
5
5
6
9
12
17
22
26
30
33
34
34
34
33
33
33
35
38
43
48
54
61
66
71
74
76
76
75
73
71
69
67
65
64
63
63
62
61
60
58
57
56
54
53
52
51
50
49
47
45
42
38
35
30
26
21
17
12
9
6
4
2
1
0
-1
-1
-2
-3
-3
-4
-5
-7
-8
-11
-13
-15
-17
-18
-17
-16
-14
-11
-9
-7
-7
-8
-11
-14
-17
-19
-20
-20
-19
-17
-15
-14
-14
-15
-17
-19
-20
-20
-19
-17
-14
-12
-10
-9
-9
-10
-11
-11
-10
-9
-6
-4
-1
-1
-2
-4
-8
-12
-16
-18
-20
-20
-19
-18
-16
-15
-15
-15
-16
-17
-18
-18
-18
-18
-17
-16
-16
-15
-15
-15
-14
-13
-11
-9
-7
-5
-4
-4
-4
-5
-5
-6
-6
-5
-5
-4
-4
-4
-5
-6
-8
-10
-12
-14
-15
-15
-15
-15
-15
-16
-16
-17
-17
-17
-16
-15
-13
-11
-9
-8
-8
-8
-10
-13
-16
-18
-20
-21
-20
-18
-16
-13
-11
-9
-9
-9
-11
-12
-14
-16
-16
-16
-16
-15
-14
-13
-12
-12
-12
-11
-11
-11
-12
-12
-13
-15
-16
-18
-19
-20
-20
-19
-17
-15
-13
-12
-12
-13
-15
-17
-20
-22
-23
-23
-21
-19
-16
-12
-9
-6
-4
-4
-4
-4
-4
-5
-5
-4
-4
-3
-2
-1
-1
-1
-1
-1
-1
-1
-1
0
1
1
1
0
-1
-3
-5
-7
-9
-11
-13
-13
-14
-13
-13
-12
-12
-12
-12
-13
-14
-15
-15
-16
-17
-17
-16
-16
-16
-15
-15
-15
-16
-16
-17
-17
-18
-18
-18
-19
-20
-21
-21
-22
-23
-22
-21
-19
-17
-14
-11
-9
-8
-7
-8
-9
-11
-13
-14
-15
-15
-16
-16
-17
-18
-19
-21
-21
-20
-17
-12
-2
10
26
44
63
83
101
117
128
135
135
128
116
99
78
55
32
12
-5
-16
-23
-24
-22
-17
-11
-5
-1
2
3
3
1
0
-2
-4
-5
-7
-9
-11
-13
-15
-16
-16
-15
-14
-12
-9
-7
-5
-4
-5
-6
-9
-11
-14
-15
-16
-15
-13
-11
-8
-6
-3
-2
-2
-2
-3
-5
-7
-8
-8
-8
-7
-6
-4
-2
0
0
0
0
-1
-2
-3
-3
-2
-1
1
2
2
2
1
-1
-3
-5
-6
-6
-4
-2
2
5
7
8
7
5
3
1
0
1
3
7
13
18
22
25
26
26
25
24
23
23
24
26
30
33
37
41
43
46
47
49
50
51
51
52
53
55
57
59
62
65
68
71
74
75
76
75
73
71
69
68
67
67
68
68
67
65
62
57
50
43
35
28
23
19
16
14
13
13
13
12
11
10
9
7
5
3
0
-2
-5
-7
-9
-10
-11
-11
-11
-10
-9
-8
-7
-6
-6
-6
-6
-6
-6
-5
-5
-4
-4
-4
-5
-6
-7
-9
-10
-12
-13
-14
-14
-13
-12
-11
-10
-9
-9
-9
-9
-11
-12
-13
-14
-14
-14
-13
-12
-10
-9
-8
-8
-8
-8
-9
