-2
-4
-5
-6
-6
-5
-4
-2
-1
0
0
-1
-3
-4
-7
-8
-9
-10
-9
-8
-7
-5
-4
-4
-4
-4
-5
-5
-6
-6
-6
-6
-6
-6
-6
-7
-7
-8
-8
-8
-8
-8
-7
-7
-6
-6
-6
-6
-7
-7
-7
-7
-7
-7
-7
-8
-8
-9
-9
-9
-9
-9
-9
-9
-9
-9
-9
-10
-10
-10
-9
-9
-8
-8
-8
-9
-9
-10
-11
-11
-11
-10
-9
-8
-8
-8
-8
-9
-9
-10
-10
-10
-9
-7
-6
-5
-5
-5
-5
-7
-8
-9
-11
-11
-11
-11
-10
-9
-8
-7
-6
-5
-4
-4
-4
-4
-5
-6
-7
-9
-11
-12
-13
-13
-13
-12
-11
-9
-8
-7
-7
-7
-8
-9
-10
-11
-11
-11
-11
-10
-9
-9
-9
-9
-9
-9
-9
-9
-9
-8
-8
-8
-8
-8
-9
-10
-11
-11
-12
-11
-10
-9
-7
-6
-5
-5
-5
-6
-8
-9
-11
-11
-12
-12
-12
-11
-11
-10
-10
-9
-9
-9
-8
-8
-7
-7
-7
-7
-7
-8
-9
-10
-11
-11
-12
-12
-11
-11
-11
-10
-10
-10
-10
-10
-10
-10
-11
-11
-11
-11
-11
-11
-10
-10
-9
-9
-9
-9
-8
-8
-9
-9
-9
-10
-10
-11
-12
-13
-13
-13
-13
-12
-11
-9
-8
-6
-6
-6
-6
-8
-9
-11
-12
-12
-12
-12
-11
-11
-10
-10
-11
-11
-12
-13
-13
-12
-11
-10
-9
-9
-8
-8
-8
-9
-9
-8
-7
-6
-4
-3
-1
-1
-1
-1
-2
-3
-3
-3
-3
-2
-1
-1
-1
-2
-3
-4
-6
-7
-7
-6
-5
-3
-2
-1
0
-1
-3
-5
-7
-9
-10
-11
-12
-12
-13
-14
-15
-17
-19
-20
-21
-20
-19
-17
-15
-14
-12
-11
-11
-11
-11
-11
-11
-11
-13
-16
-20
-26
-34
-41
-47
-49
-48
-42
-30
-14
7
30
55
82
109
138
167
198
229
258
282
300
307
302
283
252
210
163
114
68
29
1
-16
-23
-23
-19
-13
-7
-5
-5
-7
-9
-12
-13
-12
-11
-9
-7
-6
-6
-8
-11
-13
-15
-16
-15
-13
-10
-7
-5
-5
-5
-6
-8
-10
-11
-12
-11
-9
-7
-5
-4
-3
-3
-4
-6
-7
-8
-9
-8
-6
-4
-1
1
3
4
4
3
3
2
2
2
3
5
6
8
9
10
11
11
11
11
12
14
16
18
20
22
23
24
25
26
27
29
31
33
36
38
39
41
41
42
43
44
47
50
54
58
61
64
65
64
63
61
60
59
59
60
62
64
67
68
69
68
66
62
58
54
50
47
44
42
41
39
37
33
30
25
20
16
12
9
7
6
5
4
3
1
-1
-4
-6
-9
-10
-11
-11
-10
-9
-8
-7
-7
-7
-8
-10
-11
-12
-13
-14
-15
-15
-15
-15
-16
-16
-17
-17
-17
-17
-17
-16
-15
-13
-12
-11
-10
-10
-10
-11
-12
-13
-14
-15
-15
-15
-15
-15
-15
-15
-15
-15
-15
-15
-15
-14
-14
-14
-13
-13
-13
-14
-14
-15
-16
-17
-17
-18
-18
-18
-17
-17
-16
-15
-14
-14
-13
-13
-13
-13
-13
-13
-14
-14
-14
-14
-13
-13
-12
-11
-10
-10
-10
-10
-11
-12
-13
-15
-16
-17
-17
-17
-16
-16
-15
-15
-15
-16
-16
-17
-18
-18
-18
-17
-15
-14
-12
-11
-11
-11
-12
-13
-15
-16
-17
-18
-18
-18
-18
-17
-17
-16
-16
-16
-16
-15
-15
-15
-16
-16
-16
-17
-18
-19
-20
-20
-20
-20
-19
-19
-18
-17
-17
-16
-16
-16
-16
-16
-16
-16
-16
-17
-17
-18
-18
-19
-19
-18
-18
-17
-17
-17
-17
-18
-19
-20
-20
-21
-21
-20
-19
-19
-18
-17
-17
-17
-18
-18
-19
-19
-19
-19
-18
-18
-17
-17
-17
-17
-17
-18
-18
-18
-17
-17
-16
-15
-15
-15
-15
-15
-16
-17
-18
-18
-19
-19
-19
-19
-18
-18
-17
-17
-17
-18
-19
-19
-20
-20
-21
-20
-19
-18
-17
-16
-16
-16
-16
-17
-18
-18
-19
-19
-19
-19
-19
-18
-18
-19
-19
-20
-20
-20
-21
-20
-20
-19
-19
-18
-18
-18
-18
-17
-17
-17
-16
-16
-15
-15
-16
-17
-18
-19
-21
-22
-23
-23
-23
-23
-22
-21
-20
-19
-18
-17
-17
-16
-16
-16
-15
-15
-14
-14
-13
-13
-12
-12
-12
-11
-11
-11
-11
-11
-11
-11
-11
-11
-11
-10
-9
-9
-8
-8
-8
-9
-11
-13
-15
-17
-19
-19
-18
-17
-15
-13
-11
-11
-12
-13
-15
-16
-18
-18
-18
-18
-17
-17
-18
-18
-20
-21
-23
-24
-25
-25
-25
-25
-26
-26
-27
-28
-28
-27
-26
-25
-25
-26
-29
-34
-41
-48
-54
-56
-54
-47
-35
-18
3
25
49
73
98
124
152
182
214
245
272
293
303
299
281
249
206
157
107
61
23
-4
-21
-29
-30
-26
-22
-19
-17
-17
-17
-18
-18
-17
-16
-14
-13
-13
-14
-16
-19
-22
-23
-24
-22
-20
-18
-15
-14
-13
-14
-16
-17
-19
-20
-20
-19
-17
-15
-13
-11
-10
-10
-9
-9
-9
-9
-9
-9
-9
-8
-8
-9
-9
-9
-9
-8
-7
-6
-4
-3
-2
-1
0
0
1
1
2
3
4
5
7
9
10
11
12
13
14
15
16
18
21
24
27
29
32
34
35
36
37
37
37
38
39
42
44
47
50
54
56
59
61
62
62
63
63
62
62
62
61
61
61
61
60
60
59
57
56
53
51
48
45
42
38
35
32
29
26
22
19
16
13
10
8
6
4
2
1
0
-2
-3
-4
-5
-6
-7
-8
-8
-9
-9
-10
-11
-12
-14
-15
-16
-16
-15
-14
-12
-10
-9
-8
-8
-9
-11
-12
-14
-14
-14
-12
-11
-9
-8
-9
-9
-11
-13
-15
-16
-16
-15
-13
-11
-10
-9
-9
-10
-11
-12
-13
-14
-13
-12
-11
-10
-9
-10
-11
-12
-14
-15
-16
-16
-15
-14
-12
-11
-10
-10
-10
-11
-12
-13
-13
-13
-12
-11
-11
-10
-11
-11
-12
-13
-14
-14
-13
-12
-10
-9
-8
-8
-9
-10
-11
-13
-14
-14
-14
-13
-12
-11
-11
-11
-12
-13
-14
-15
-15
-15
-14
-13
-12
-11
-11
-11
-12
-12
-13
-13
-13
-12
-11
-11
-11
-11
-12
-12
-12
-12
-12
-11
-11
-11
-12
-13
-14
-16
-17
-18
-18
-17
-16
-14
-12
-11
-11
-12
-13
-15
-17
-18
-19
-18
-16
-13
-10
-8
-6
-6
-6
-8
-10
-12
-14
-16
-18
-18
-18
-18
-16
-14
-13
-11
-10
-10
-10
-11
-12
-14
-15
-15
-15
-15
-14
-13
-12
-12
-12
-13
-15
-16
-16
-17
-16
-16
-15
-14
-13
-13
-13
-14
-15
-15
-15
-15
-14
-13
-12
-11
-10
-10
-11
-11
-12
-13
-13
-13
-13
-13
-13
-14
-14
-14
-14
-14
-14
-13
-13
-12
-12
-11
-12
-12
-13
-13
-13
-13
-12
-11
-10
-8
-8
-8
-8
-10
-11
-13
-15
-16
-16
-16
-15
-15
-14
-14
-14
-14
-15
-16
-16
-16
-15
-14
-13
-12
-11
-10
-10
-10
-11
-11
-12
-12
-13
-14
-15
-16
-17
-18
-19
-19
-18
-17
-15
-13
-11
-10
-10
-10
-11
-12
-13
-13
-14
-14
-13
-12
-12
-11
-11
-11
-11
-12
-12
-12
-13
-12
-12
-10
-9
-7
-5
-3
-2
-1
-1
-1
-2
-4
-7
-9
-11
-12
-12
-12
-10
-9
-7
-5
-4
-4
-4
-5
-6
-7
-8
-9
-10
-11
-12
-13
-14
-15
-16
-17
-18
-18
-18
-18
-18
-18
-18
-19
-20
-21
-23
-24
-25
-25
-24
-23
-21
-19
-18
-18
-20
-24
-29
-35
-41
-46
-48
-47
-42
-33
-20
-4
16
38
62
89
117
148
180
212
243
270
290
301
300
286
261
224
181
135
90
50
18
-5
-18
-24
-23
-20
-16
-12
-10
-10
-12
-14
-15
-16
-16
-14
-12
-11
-9
-9
-9
-10
-10
-11
-11
-11
-10
-10
-9
-9
-9
-9
-9
-10
-10
-11
-10
-10
-10
-9
-9
-9
-9
-9
-9
-8
-7
-6
-4
-3
-2
-1
0
0
-1
-1
-2
-2
-2
-2
0
1
3
5
6
8
9
9
10
12
13
14
16
18
20
21
22
23
24
24
25
25
26
27
29
31
33
34
36
38
40
41
43
45
47
49
51
54
56
58
61
63
64
65
66
66
67
67
66
66
66
65
64
63
61
59
57
55
52
50
47
45
42
39
36
33
29
25
22
19
16
14
12
11
9
6
3
0
-3
-6
-9
-11
-12
-13
-12
-12
-11
-10
-10
-10
-9
-10
-10
-10
-11
-11
-12
-12
-12
-12
-12
-12
-12
-12
-13
-14
-14
-15
-15
-15
-15
-14
-13
-13
-12
-12
-12
-13
-13
-13
-13
-13
-13
-13
-13
-13
-13
-14
-15
-16
-17
-18
-18
-18
-18
-17
-16
-15
-14
-13
-12
-12
-12
-12
-12
-13
-14
-16
-18
-19
-21
-21
-21
-20
-18
-16
-13
-11
-11
-11
-12
-15
-17
-19
-20
-21
-20
-18
-16
-15
-14
-14
-15
-17
-19
-20
-20
-19
-18
-15
-13
-12
-12
-12
-14
-16
-18
-19
-19
-18
-16
-14
-12
-11
-12
-14
-17
-20
-22
-24
-24
-23
-21
-18
-16
-14
-13
-13
-14
-16
-18
-20
-21
-22
-21
-21
-20
-19
-18
-18
-18
-18
-19
-20
-20
-20
-21
-20
-20
-19
-19
-18
-18
-18
-18
-18
-18
-18
-18
-18
-18
-17
-17
-17
-17
-17
-18
-19
-20
-21
-22
-22
-23
-23
-23
-22
-21
-20
-19
-18
-17
-17
-17
-17
-18
-19
-19
-19
-19
-18
-18
-17
-16
-15
-15
-15
-16
-16
-17
-18
-18
-18
-18
-17
-17
-17
-16
-17
-17
-17
-18
-19
-19
-20
-20
-19
-19
-18
-17
-15
-14
-14
-14
-14
-15
-16
-17
-18
-19
-19
-19
-18
-18
-17
-17
-17
-18
-19
-20
-21
-21
-20
-19
-18
-17
-17
-17
-18
-19
-21
-23
-23
-23
-22
-20
-17
-14
-12
-10
-10
-11
-13
-14
-16
-17
-17
-16
-15
-14
-12
-12
-12
-13
-15
-16
-17
-18
-17
-16
-14
-12
-10
-8
-7
-7
-7
-9
-10
-11
-11
-11
-9
-7
-5
-3
-1
0
-1
-2
-5
-8
-11
-13
-14
-14
-13
-10
-8
-5
-3
-2
-2
-4
-7
-10
-13
-15
-16
-17
-17
-16
-15
-15
-16
-17
-18
-19
-20
-20
-20
-19
-17
-16
-16
-16
-17
-18
-19
-19
-19
-18
-17
-16
-18
-21
-27
-34
-42
-48
-51
-50
-43
-31
-14
7
30
54
79
105
131
159
189
219
248
274
292
300
296
278
248
207
161
113
69
32
4
-14
-23
-26
-24
-20
-17
-14
-13
-13
-14
-15
-15
-15
-14
-15
-15
-16
-18
-19
-20
-20
-19
-17
-15
-13
-12
-11
-11
-12
-13
-14
-14
-14
-13
-12
-10
-9
-9
-9
-9
-9
-10
-10
-10
-10
-9
-8
-7
-6
-5
-4
-3
-3
-3
-3
-3
-3
-4
-3
-2
-1
1
4
7
10
12
13
13
12
11
9
9
9
10
12
15
18
21
24
26
27
28
28
29
31
33
36
40
43
46
48
49
49
49
48
48
48
49
52
55
60
64
67
70
71
71
69
67
64
62
60
58
57
57
57
56
54
52
49
45
40
36
31
27
23
20
17
14
11
8
6
4
2
0
-2
-3
-5
-6
-8
-10
-12
-14
-15
-16
-16
-15
-15
-14
-13
-13
-13
-13
-14
-15
-16
-17
-17
-16
-15
-14
-14
-14
-15
-16
-17
-18
-19
-19
-18
-17
-15
-14
-13
-13
-14
-16
-18
-20
-21
-21
-20
-19
-16
-14
-12
-12
-12
-13
-15
-17
-19
-19
-20
-19
-18
-17
-16
-15
-15
-15
-16
-17
-17
-17
-17
-16
-15
-15
-14
-14
-15
-15
-16
-17
-17
-17
-17
-17
-17
-17
-17
-17
-17
-16
-16
-15
-14
-13
-12
-13
-13
-14
-16
-18
-19
-19
-19
-18
-16
-14
-13
-12
-12
-13
-15
-17
-18
-20
-20
-20
-19
-19
-18
-18
-18
-19
-20
-21
-22
-21
-20
-19
-17
-16
-15
-15
-16
-18
-21
-23
-25
-25
-25
-24
-22
-20
-17
-15
-14
-13
-14
-15
-16
-18
-20
-22
-23
-23
-23
-22
-21
-19
-18
-17
-17
-17
-18
-18
-19
-19
-19
-19
-18
-17
-17
-16
-16
-17
-18
-20
-21
-22
-22
-21
-19
-18
-16
-15
-14
-15
-17
-19
-21
-23
-25
-25
-25
-24
-22
-20
-18
-17
-17
-17
-18
-18
-17
-16
-14
-11
-9
-7
-6
-6
-7
-9
-11
-13
-15
-15
-15
-14
-13
-11
-10
-9
-9
-9
-10
-12
-13
-14
-14
-14
-14
-14
-14
-15
-16
-18
-21
-23
-25
-27
-28
-28
-28
-26
-25
-23
-22
-22
-22
-23
-24
-26
-27
-27
-27
-26
-25
-24
-25
-28
-32
-39
-46
-52
-56
-57
-53
-43
-29
-9
14
39
66
94
122
152
183
215
245
273
294
305
305
292
265
227
180
130
82
40
7
-15
-27
-31
-29
-24
-19
-16
-14
-15
-17
-18
-20
-20
-19
-18
-17
-16
-17
-18
-19
-21
-22
-22
-21
-19
-17
-16
-15
-14
-15
-16
-17
-18
-19
-19
-18
-16
-14
-11
-9
-8
-7
-7
-8
-9
-10
-11
-11
-10
-9
-7
-5
-2
-1
0
-1
-2
-3
-5
-6
-6
-5
-4
-2
1
3
4
5
6
6
6
6
7
8
10
13
16
18
20
22
23
23
24
25
26
29
32
36
40
43
46
48
49
50
50
51
52
54
57
61
64
66
68
69
68
67
64
62
60
59
57
57
56
55
54
51
48
45
40
36
32
29
26
22
19
16
12
8
4
0
-4
-6
-8
-9
-9
-9
-8
-8
-7
-8
-9
-10
-12
-14
-16
-17
-18
-18
-18
-17
-17
-16
-16
-16
-17
-17
-18
-19
-19
-19
-19
-19
-19
-19
-20
-21
-22
-22
-23
-22
-21
-20
-18
-17
-16
-16
-17
-19
-22
-24
-25
-26
-26
-24
-22
-20
-19
-18
-18
-18
-19
-19
-20
-20
-20
-19
-18
-18
-17
-17
-18
-18
-18
-18
-17
-17
-16
-15
-15
-16
-16
-17
-18
-19
-19
-19
-19
-18
-17
-17
-17
-17
-17
-18
-18
-19
-18
-18
-18
-17
-17
-17
-17
-17
-18
-19
-20
-20
-20
-19
-19
-18
-17
-17
-18
-19
-19
-20
-20
-19
-18
-16
-14
-13
-13
-13
-15
-17
-19
-21
-22
-23
-22
-21
-20
-18
-17
-16
-16
-17
-17
-18
-18
-18
-17
-17
-16
-16
-17
-18
-19
-21
-21
-22
-21
-21
-20
-19
-18
-18
-18
-19
-19
-20
-20
-20
-19
-19
-18
-17
-16
-15
-15
-14
-14
-14
-14
-14
-15
-15
-16
-17
-17
-17
-17
-16
-16
-15
-15
-15
-16
-16
-17
-17
-17
-17
-16
-15
-13
-12
-12
-12
-13
-15
-17
-19
-20
-21
-22
-21
-20
-19
-17
-16
-15
-15
-15
-15
-15
-16
-16
-16
-16
-16
-16
-16
-16
-16
-16
-15
-15
-14
-14
-13
-13
-14
-14
-15
-17
-18
-18
-18
-18
-17
-16
-14
-13
-12
-12
-12
-13
-14
-15
-16
-16
-17
-17
-16
-16
-15
-14
-14
-13
-12
-11
-11
-10
-9
-9
-10
-11
-12
-13
-15
-16
-17
-17
-16
-14
-13
-11
-9
-8
-8
-8
-8
-8
-8
-8
-7
-6
-5
-4
-4
-4
-4
-4
-4
-4
-3
-3
-2
-1
-1
-2
-3
-4
-6
-8
-9
-10
-10
-9
-7
-6
-4
-3
-2
-3
-4
-5
-7
-9
-11
-12
-13
-14
-15
-15
-16
-16
-16
-17
-16
-16
-15
-14
-13
-12
-12
-12
-12
-12
-13
-13
-13
-12
-12
-13
-15
-18
-23
-30
-36
-43
-47
-48
-45
-37
-24
-7
14
37
63
89
117
147
178
209
239
267
289
303
307
297
275
242
199
153
106
63
27
1
-16
-24
-25
-22
-17
-13
-9
-8
-8
-9
-10
-11
-12
-11
-10
-9
-8
-7
-7
-8
-9
-11
-13
-15
-17
-17
-17
-16
-13
-11
-8
-6
-5
-4
-5
-6
-7
-8
-8
-8
-8
-7
-6
-6
-6
-6
-6
-7
-6
-5
-3
-1
0
2
2
2
1
0
-1
-1
0
2
5
8
10
12
12
12
11
10
10
10
11
14
16
19
22
23
24
25
25
27
28
31
35
38
42
45
47
49
50
51
52
53
55
58
60
63
64
65
66
66
66
66
67
68
69
70
71
71
69
66
63
59
55
52
49
47
46
46
45
43
41
37
33
28
22
16
11
7
3
1
-1
-2
-2
-1
-1
-1
-1
-2
-3
-5
-8
-10
-12
-13
-14
-14
-13
-12
-10
-9
-8
-8
-8
-8
-8
-9
-9
-9
-9
-10
-10
-11
-11
-12
-12
-12
-12
-11
-10
-9
-9
-8
-9
-9
-10
-12
-13
-14
-15
-15
-15
-14
-13
-12
-11
-10
-9
-8
-8
-8
-9
-9
-10
-10
-11
-11
-11
-12
-12
-12
-12
-13
-13
-13
-14
-13
-13
-12
-12
-11
-10
-10
-10
-11
-11
-12
-13
-13
-12
-12
-11
-10
-9
-8
-8
-9
-10
-11
-13
-14
-14
-14
-14
-13
-11
-10
-9
-9
-9
-10
-11
-12
-14
-15
-15
-15
-14
-13
-12
-11
-10
-9
-9
-10
-11
-12
-13
-14
-15
-16
-16
-16
-15
-15
-14
-13
-13
-12
-12
-12
-12
-12
-13
-14
-15
-16
-17
-18
-18
-18
-18
-17
-16
-16
-16
-16
-17
-18
-19
-19
-20
-20
-20
-20
-18
-17
-16
-16
-15
-15
-15
-16
-16
-17
-17
-17
-17
-17
-17
-17
-18
-18
-19
-19
-19
-19
-18
-18
-17
-16
-15
-15
-16
-16
-18
-19
-20
-20
-20
-20
-20
-20
-19
-19
-19
-19
-19
-19
-19
-20
-21
-22
-23
-24
-24
-24
-24
-23
-21
-20
-18
-17
-16
-16
-16
-17
-18
-19
-20
-21
-21
-22
-22
-23
-23
-23
-23
-22
-21
-20
-18
-17
-17
-16
-17
-17
-18
-20
-20
-21
-21
-21
-20
-20
-20
-20
-20
-21
-22
-22
-22
-22
-22
-22
-21
-21
-21
-21
-22
-23
-23
-23
-23
-22
-22
-21
-20
-20
-20
-21
-22
-23
-24
-26
-26
-27
-26
-25
-24
-22
-20
-19
-17
-17
-17
-19
-20
-22
-23
-24
-25
-25
-24
-23
-22
-21
-21
-20
-20
-20
-20
-20
-20
-19
-19
-18
-18
-18
-18
-19
-20
-20
-20
-20
-20
-18
-17
-15
-14
-13
-12
-12
-13
-13
-14
-14
-14
-14
-13
-13
-12
-12
-11
-11
-12
-12
-12
-12
-12
-12
-11
-11
-10
-9
-8
-7
-7
-6
-6
-6
-7
-7
-8
-9
-10
-11
-11
-11
-10
-9
-8
-7
-6
-5
-5
-5
-6
-6
-6
-6
-5
-3
-1
1
2
4
5
5
5
4
2
1
-1
-2
-4
-5
-5
-5
-4
-4
-2
-1
-1
0
1
1
0
0
-1
-1
-2
-2
-2
-3
-3
-4
-4
-5
-5
-6
-7
-8
-9
-10
-12
-13
-13
-14
-13
-13
-12
-11
-10
-9
-8
-8
-8
-9
-10
-13
-16
-20
-25
-30
-36
-40
-43
-42
-37
-28
-14
5
26
51
78
105
134
163
193
223
252
278
298
310
311
299
274
237
192
142
94
51
17
-5
-17
-20
-16
-9
-2
2
4
2
-2
-6
-10
-11
-11
-9
-6
-3
-1
0
0
-2
-3
-5
-6
-7
-7
-6
-6
-6
-6
-6
-6
-7
-6
-5
-4
-3
-2
-1
0
0
0
-1
-1
-1
-1
0
0
1
2
3
3
4
4
5
5
6
6
7
8
9
10
11
12
14
15
16
17
18
19
19
20
21
22
23
24
26
27
28
29
30
31
32
34
36
39
42
46
49
52
54
55
55
55
54
54
55
57
60
64
68
71
74
75
75
73
71
68
66
64
63
63
63
64
65
64
63
61
58
54
50
46
42
38
35
32
29
26
23
21
18
15
12
9
7
5
4
3
2
1
0
0
-1
-2
-3
-4
-5
-6
-7
-8
-9
-11
-12
-13
-14
-14
-14
-13
-12
-11
-9
-8
-8
-8
-10
-11
-13
-15
-17
-17
-17
-16
-14
-12
-10
-8
-7
-7
-8
-9
-11
-12
-13
-14
-14
-13
-12
-11
-11
-10
-11
-12
-13
-14
-15
-15
-15
-14
-12
-11
-10
-9
-9
-10
-11
-12
-13
-13
-12
-12
-11
-10
-10
-10
-11
-12
-14
-15
-15
-15
-15
-14
-13
-12
-12
-12
-12
-12
-13
-13
-13
-12
-11
-10
-10
-10
-10
-11
-12
-13
-13
-13
-13
-12
-11
-10
-10
-11
-12
-14
-16
-18
-19
-20
-20
-19
-18
-17
-17
-17
-18
-19
-20
-21
-21
-20
-19
-18
-16
-15
-14
-15
-15
-16
-17
-18
-19
-19
-18
-18
-18
-18
-18
-18
-19
-19
-20
-20
-19
-18
-17
-17
-16
-17
-18
-19
-20
-21
-22
-22
-22
-22
-21
-21
-20
-20
-20
-20
-20
-20
-19
-19
-18
-17
-17
-16
-16
-17
-17
-17
-18
-18
-18
-18
-18
-19
-20
-21
-22
-23
-24
-24
-23
-22
-21
-20
-19
-19
-19
-19
-20
-21
-22
-23
-23
-23
-22
-21
-20
-19
-18
-16
-15
-14
-13
-13
-14
-15
-17
-19
-22
-24
-25
-25
-24
-22
-19
-17
-15
-14
-14
-15
-17
-19
-21
-22
-23
-22
-21
-20
-19
-18
-18
-18
-19
-20
-20
-21
-20
-20
-19
-18
-18
-17
-17
-17
-17
-17
-17
-17
-17
-18
-18
-19
-19
-19
-19
-18
-17
-16
-15
-14
-14
-14
-15
-17
-19
-21
-22
-23
-23
-23
-22
-21
-20
-19
-18
-18
-18
-19
-19
-19
-18
-18
-17
-16
-16
-16
-17
-18
-19
-20
-21
-21
-21
-21
-20
-19
-17
-16
-16
-15
-15
-16
-16
-17
-17
-18
-18
-18
-19
-19
-19
-19
-19
-19
-18
-17
-16
-15
-15
-14
-14
-14
-13
-13
-12
-11
-10
-9
-9
-9
-10
-10
-11
-11
-11
-10
-9
-8
-6
-6
-7
-8
-10
-12
-14
-14
-14
-12
-10
-7
-4
-3
-3
-4
-7
-10
-14
-17
-19
-21
-21
-20
-19
-18
-18
-19
-20
-21
-22
-23
-24
-23
-22
-21
-19
-18
-17
-16
-16
-16
-16
-18
-20
-23
-28
-33
-40
-46
-52
-55
-55
-51
-42
-29
-12
8
31
55
80
106
134
163
194
224
253
277
293
298
291
272
240
198
152
105
63
27
1
-15
-23
-25
-22
-19
-17
-16
-16
-17
-19
-19
-18
-17
-15
-13
-12
-12
-13
-15
-17
-19
-20
-20
-19
-17
-15
-14
-12
-12
-12
-12
-13
-13
-13
-12
-11
-10
-8
-6
-4
-3
-2
-1
-2
-2
-3
-5
-6
-7
-7
-7
-6
-5
-4
-2
-1
0
0
1
1
1
1
2
3
4
5
7
9
10
12
14
17
19
21
22
23
24
25
26
26
28
29
30
32
34
35
36
37
38
40
42
45
49
53
57
61
64
66
66
66
65
64
63
63
63
65
66
68
70
71
71
71
69
67
64
61
57
54
51
47
44
40
37
34
30
27
24
21
18
16
14
12
10
8
6
4
2
0
-3
-5
-7
-9
-10
-10
-11
-10
-9
-8
-8
-7
-8
-9
-11
-13
-15
-17
-18
-17
-16
-13
-9
-6
-4
-4
-4
-7
-10
-13
-15
-16
-16
-13
-10
-7
-4
-3
-3
-5
-8
-11
-13
-15
-15
-13
-11
-9
-7
-6
-7
-8
-10
-13
-15
-16
-16
-15
-14
-13
-11
-11
-10
-10
-10
-10
-10
-10
-9
-9
-10
-11
-12
-13
-14
-14
-13
-12
-11
-10
-9
-8
-8
-8
-7
-7
-7
-6
-5
-5
-6
-8
-10
-13
-15
-17
-17
-16
-14
-11
-9
-7
-6
-7
-8
-9
-11
-12
-13
-12
-12
-11
-11
-11
-12
-14
-16
-17
-18
-17
-16
-14
-12
-10
-8
-8
-8
-10
-11
-12
-13
-14
-14
-14
-14
-14
-14
-15
-16
-17
-17
-18
-17
-16
-15
-13
-12
-10
-10
-10
-10
-12
-13
-14
-15
-16
-16
-15
-15
-14
-13
-13
-14
-14
-15
-16
-17
-17
-16
-15
-14
-14
-13
-14
-14
-16
-17
-18
-19
-19
-19
-18
-17
-16
-15
-15
-14
-14
-14
-14
-13
-12
-11
-11
-12
-13
-15
-17
-19
-21
-21
-21
-19
-17
-14
-12
-11
-11
-12
-14
-15
-17
-18
-18
-18
-17
-17
-16
-16
-17
-18
-19
-20
-20
-20
-19
-18
-17
-15
-14
-13
-13
-13
-14
-15
-16
-17
-18
-19
-19
-19
-19
-18
-17
-16
-15
-15
-14
-14
-14
-15
-16
-17
-18
-19
-20
-20
-19
-17
-16
-15
-14
-13
-13
-14
-16
-17
-18
-19
-19
-18
-16
-14
-13
-12
-12
-12
-14
-15
-17
-18
-18
-18
-18
-17
-16
-15
-15
-15
-15
-15
-15
-15
-14
-14
-13
-13
-12
-13
-14
-14
-15
-15
-14
-13
-11
-8
-6
-5
-4
-4
-5
-6
-7
-8
-9
-9
-10
-10
-11
-11
-11
-12
-12
-11
-11
-9
-8
-7
-5
-5
-4
-5
-7
-9
-11
-13
-16
-18
-19
-20
-21
-21
-21
-20
-19
-18
-16
-15
-14
-15
-16
-17
-20
-22
-24
-25
-25
-24
-22
-21
-20
-21
-25
-31
-39
-46
-52
-54
-52
-44
-31
-12
9
33
58
83
109
136
165
195
225
255
279
296
302
295
273
239
194
145
96
51
16
-10
-25
-30
-30
-25
-20
-16
-14
-14
-14
-16
-16
-16
-16
-15
-14
-14
-15
-16
-18
-19
-19
-18
-17
-16
-15
-14
-14
-15
-16
-17
-18
-18
-17
-16
-15
-14
-13
-13
-13
-13
-14
-14
-14
-13
-13
-12
-12
-11
-10
-10
-9
-8
-7
-5
-3
-2
0
1
1
1
0
0
-1
-1
-1
0
1
3
6
9
11
14
16
18
19
20
21
21
22
23
25
27
29
31
33
35
37
39
40
42
44
46
49
51
54
56
58
59
60
60
61
61
62
64
65
66
67
67
67
65
64
62
60
58
57
57
56
56
55
53
50
47
42
38
33
29
25
22
19
17
14
12
8
5
1
-3
-6
-8
-9
-9
-8
-6
-4
-3
-3
-3
-5
-7
-10
-12
-14
-15
-15
-15
-14
-13
-12
-11
-11
-11
-10
-11
-11
-12
-13
-15
-16
-17
-17
-17
-16
-14
-12
-11
-10
-9
-10
-12
-14
-16
-17
-18
-18
-18
-17
-15
-15
-14
-14
-14
-14
-14
-13
-12
-11
-11
-11
-12
-13
-15
-17
-19
-19
-18
-17
-14
-11
-9
-7
-6
-7
-8
-10
-12
-14
-16
-17
-17
-16
-16
-15
-14
-14
-14
-14
-14
-14
-14
-14
-14
-13
-13
-13
-13
-13
-13
-14
-14
-15
-16
-16
-16
-16
-15
-14
-13
-13
-13
-13
-14
-15
-16
-16
-17
-17
-16
-16
-15
-15
-15
-15
-16
-16
-17
-18
-19
-20
-20
-20
-20
-19
-18
-17
-16
-15
-14
-13
-13
-13
-14
-14
-15
-16
-16
-16
-16
-16
-16
-16
-16
-17
-17
-17
-17
-16
-16
-16
-16
-17
-18
-19
-20
-21
-21
-20
-19
-17
-15
-13
-12
-12
-12
-14
-16
-18
-20
-21
-20
-19
-18
-16
-15
-14
-14
-15
-16
-17
-18
-18
-17
-16
-15
-14
-14
-14
-15
-16
-17
-18
-18
-18
-17
-15
-14
-12
-11
-10
-11
-11
-12
-14
-15
-16
-16
-17
-18
-18
-19
-20
-20
-20
-19
-18
-16
-15
-13
-12
-12
-12
-12
-13
-13
-14
-14
-14
-13
-14
-14
-15
-16
-17
-18
-19
-18
-17
-16
-14
-12
-11
-10
-11
-12
-13
-14
-15
-16
-16
-15
-15
-14
-13
-13
-13
-14
-15
-16
-17
-17
-17
-16
-15
-14
-14
-13
-13
-14
-14
-15
-15
-15
-14
-14
-13
-12
-11
-11
-12
-13
-14
-15
-16
-17
-16
-15
-14
-12
-10
-8
-6
-6
-6
-6
-7
-8
-9
-9
-8
-7
-5
-4
-3
-3
-3
-5
-7
-9
-10
-11
-10
-9
-7
-4
-2
-1
-1
-3
-5
-7
-10
-12
-13
-13
-12
-11
-11
-11
-12
-14
-16
-19
-20
-20
-19
-17
-15
-13
-13
-13
-15
-18
-20
-23
-24
-24
-23
-23
-24
-27
-32
-38
-45
-50
-51
-48
-39
-24
-5
17
41
66
92
117
143
171
200
229
257
281
297
302
294
273
239
196
149
101
59
26
2
-12
-17
-18
-15
-12
-11
-11
-13
-14
-15
-14
-11
-7
-4
-1
-1
-3
-7
-11
-16
-20
-21
-21
-19
-15
-12
-9
-8
-7
-8
-9
-11
-12
-12
-12
-11
-10
-10
-9
-8
-8
-7
-6
-5
-3
-2
-1
-1
-1
-2
-2
-3
-2
-2
0
1
3
4
5
5
5
6
6
7
9
10
12
14
15
16
15
15
14
14
14
15
17
20
22
25
28
31
33
35
37
39
41
43
45
47
49
50
52
53
54
56
58
60
63
65
66
67
68
68
68
68
69
70
71
72
73
73
71
69
66
62
58
54
51
48
45
43
40
37
33
29
25
20
15
11
8
6
5
4
3
3
3
2
1
0
-1
-3
-4
-6
-8
-10
-12
-13
-14
-13
-13
-12
-11
-10
-9
-9
-9
-10
-11
-11
-12
-12
-12
-12
-13
-14
-15
-16
-17
-18
-18
-17
-16
-14
-12
-11
-9
-9
-9
-10
-11
-12
-13
-14
-14
-14
-14
-13
-13
-14
-14
-14
-14
-14
-14
-13
-13
-13
-13
-13
-13
-14
-14
-14
-14
-14
-13
-13
-12
-12
-12
-12
-13
-13
-13
-13
-12
-12
-12
-12
-13
-14
-14
-15
-15
-15
-14
-13
-12
-11
-11
-12
-13
-15
-17
-18
-19
-19
-18
-16
-13
-12
-11
-11
-12
-15
-17
-20
-22
-22
-22
-20
-18
-16
-15
-14
-14
-16
-17
-19
-19
-20
-19
-17
-15
-14
-13
-13
-15
-17
-20
-23
-25
-26
-26
-25
-22
-20
-17
-15
-14
-13
-14
-16
-18
-20
-21
-22
-21
-20
-19
-18
-17
-17
-17
-18
-20
-21
-22
-23
-23
-23
-22
-21
-20
-19
-19
-19
-20
-21
-21
-22
-22
-22
-22
-22
-22
-22
-22
-22
-21
-21
-21
-21
-20
-20
-20
-21
-21
-22
-23
-23
-23
-23
-22
-21
-20
-19
-19
-19
-20
-21
-22
-23
-24
-25
-25
-24
-23
-22
-21
-20
-20
-19
-19
-19
-18
-18
-18
-18
-18
-19
-19
-21
-22
-23
-24
-25
-24
-23
-22
-20
-18
-17
-16
-17
-18
-19
-21
-22
-24
-24
-24
-24
-23
-22
-22
-22
-22
-23
-24
-26
-26
-26
-25
-24
-21
-19
-16
-15
-14
-15
-16
-18
-19
-20
-20
-19
-17
-14
-12
-11
-11
-11
-13
-15
-16
-18
-18
-17
-16
-15
-13
-13
-13
-13
-13
-14
-13
-12
-10
-8
-7
-6
-6
-8
-11
-14
-16
-18
-18
-16
-14
-11
-8
-7
-8
-10
-13
-17
-21
-24
-26
-27
-26
-25
-24
-23
-23
-23
-24
-24
-24
-23
-22
-21
-19
-19
-18
-18
-19
-19
-19
-20
-21
-23
-28
-33
-40
-48
-53
-57
-55
-48
-36
-18
3
28
53
78
103
128
154
180
207
232
255
271
278
273
256
226
186
141
94
51
16
-10
-26
-33
-34
-30
-26
-22
-21
-21
-22
-23
-23
-22
-20
-18
-15
-14
-13
-14
-15
-17
-18
-19
-19
-18
-17
-17
-16
-17
-18
-18
-19
-19
-18
-16
-14
-13
-12
-11
-12
-13
-14
-15
-16
-16
-15
-14
-12
-11
-9
-8
-8
-7
-7
-6
-5
-5
-4
-3
-2
-1
0
1
2
3
4
5
6
7
7
7
8
8
9
10
12
15
18
21
24
26
28
29
29
29
29
30
32
35
38
42
46
50
52
54
54
53
53
52
52
54
57
60
64
68
71
73
73
72
70
67
63
61
59
58
58
57
57
56
54
50
46
42
37
33
30
27
24
22
19
16
12
8
4
0
-3
-5
-6
-6
-5
-4
-4
-4
-4
-5
-6
-8
-9
-10
-11
-11
-11
-11
-11
-11
-12
-12
-12
-12
-12
-12
-12
-13
-13
-13
-13
-13
-12
-12
-12
-11
-10
-10
-9
-9
-9
-10
-10
-11
-11
-12
-12
-12
-12
-12
-12
-12
-11
-11
-9
-8
-6
-5
-4
-4
-4
-6
-8
-10
-12
-14
-14
-14
-13
-12
-10
-8
-6
-6
-6
-6
-8
-9
-11
-13
-14
-14
-14
-13
-12
-11
-10
-9
-9
-9
-9
-10
-10
-11
-10
-10
-9
-7
-6
-6
-6
-6
-8
-9
-11
-11
-12
-11
-10
-9
-8
-8
-9
-10
-11
-12
-13
-13
-13
-11
-10
-8
-7
-7
-7
-8
-9
-11
-12
-13
-14
-13
-13
-13
-12
-12
-12
-12
-12
-13
-13
-14
-14
-15
-15
-16
-17
-17
-17
-16
-15
-14
-13
-12
-11
-10
-10
-11
-12
-13
-15
-16
-16
-16
-15
-14
-12
-11
-9
-8
-8
-9
-10
-11
-13
-15
-17
-18
-19
-20
-19
-19
-17
-16
-15
-14
-13
-13
-13
-14
-15
-16
-16
-16
-16
-15
-14
-14
-13
-13
-13
-14
-15
-15
-16
-17
-17
-17
-17
-17
-17
-17
-18
-18
-19
-19
-19
-19
-18
-17
-16
-15
-14
-14
-14
-14
-15
-16
-17
-18
-19
-19
-19
-18
-17
-16
-15
-15
-15
-16
-17
-18
-19
-20
-19
-18
-16
-13
-11
-9
-7
-7
-8
-9
-11
-12
-12
-12
-12
-11
-10
-9
-9
-10
-11
-12
-13
-14
-13
-12
-10
-8
-6
-5
-5
-7
-9
-12
-15
-18
-20
-21
-22
-22
-21
-21
-20
-19
-18
-17
-16
-15
-15
-15
-16
-17
-18
-19
-20
-21
-21
-22
-23
-24
-27
-31
-36
-42
-46
-47
-45
-39
-28
-13
6
27
49
72
96
120
145
170
194
216
234
245
248
239
219
188
150
108
66
29
-2
-23
-36
-40
-39
-35
-30
-27
-25
-25
-25
-26
-25
-23
-19
-15
-12
-9
-8
-9
-12
-14
-17
-19
-19
-18
-16
-14
-12
-10
-10
-11
-12
-13
-13
-13
-13
-11
-10
-8
-8
-8
-9
-10
-10
-11
-10
-8
-6
-3
0
1
2
2
1
-1
-3
-4
-5
-4
-3
0
3
6
8
10
11
12
12
12
12
12
13
14
16
18
20
21
23
24
24
25
27
28
30
33
36
40
43
46
48
50
52
53
54
56
57
59
61
63
66
68
69
71
71
71
71
71
71
70
70
69
68
66
64
61
58
55
51
48
45
42
39
37
34
31
28
24
20
16
11
8
5
3
2
2
2
1
0
-1
-3
-5
-7
-9
-10
-11
-12
-11
-11
-11
-11
-11
-11
-12
-12
-12
-12
-12
-13
-13
-15
-16
-18
-19
-20
-20
-19
-18
-17
-15
-14
-14
-15
-16
-17
-18
-20
-20
-21
-20
-19
-18
-17
-17
-16
-16
-16
-16
-16
-16
-16
-16
-15
-15
-14
-14
-14
-14
-13
-13
-13
-13
-13
-14
-15
-15
-16
-16
-16
-16
-16
-15
-15
-15
-15
-16
-16
-16
-16
-15
-14
-14
-13
-13
-13
-14
-15
-16
-18
-18
-19
-19
-19
-18
-18
-17
-18
-18
-19
-20
-20
-20
-20
-19
-18
-17
-16
-16
-16
-16
-17
-18
-19
-19
-19
-19
-18
-18
-18
-18
-18
-19
-21
-22
-23
-24
-23
-23
-21
-20
-18
-17
-15
-15
-15
-16
-17
-18
-19
-19
-19
-19
-18
-16
-15
-14
-14
-15
-16
-19
-21
-24
-26
-27
-27
-26
-25
-22
-20
-18
-16
-15
-15
-15
-15
-16
-16
-16
-16
-16
-16
-16
-17
-17
-18
-18
-19
-19
-18
-18
-17
-17
-16
-16
-17
-18
-19
-20
-20
-20
-20
-19
-18
-18
-18
-18
-19
-20
-20
-21
-20
-19
-17
-15
-12
-11
-10
-10
-11
-13
-15
-17
-18
-19
-18
-16
-14
-11
-9
-8
-8
-8
-9
-11
-13
-14
-15
-15
-15
-14
-13
-12
-12
-12
-13
-15
-16
-17
-17
-17
-17
-16
-16
-16
-17
-18
-20
-22
-23
-24
-23
-22
-21
-19
-18
-18
-18
-19
-20
-21
-22
-22
-21
-20
-20
-20
-21
-25
-30
-37
-43
-48
-50
-48
-41
-30
-13
6
28
52
76
100
124
148
173
196
217
234
244
245
236
216
186
148
107
66
29
0
-21
-31
-34
-31
-26
-20
-15
-14
-14
-17
-20
-22
-23
-22
-20
-18
-15
-13
-13
-13
-14
-16
-17
-18
-18
-18
-16
-14
-13
-12
-11
-11
-12
-13
-14
-15
-16
-17
-17
-16
-14
-12
-10
-8
-6
-4
-4
-5
-6
-8
-10
-12
-13
-13
-12
-10
-8
-5
-2
1
4
5
6
5
4
3
2
2
2
3
5
7
10
12
15
17
19
20
20
21
22
22
23
25
26
28
30
33
35
38
40
42
44
46
48
49
50
52
53
55
57
58
60
61
62
62
63
63
62
62
61
59
57
54
51
48
44
41
37
34
32
29
27
25
23
20
16
13
9
5
2
-1
-3
-5
-6
-6
-7
-7
-8
-9
-9
-10
-11
-13
-14
-15
-17
-18
-19
-19
-19
-18
-17
-16
-15
-14
-13
-13
-13
-14
-16
-18
-19
-21
-22
-22
-22
-21
-20
-18
-17
-15
-15
-14
-14
-15
-15
-15
-15
-15
-15
-16
-16
-17
-18
-18
-19
-18
-17
-16
-14
-13
-12
-12
-12
-14
-16
-19
-21
-22
-23
-23
-22
-20
-19
-17
-16
-15
-15
-15
-16
-16
-16
-17
-16
-16
-16
-15
-15
-15
-15
-15
-15
-15
-16
-16
-16
-16
-16
-16
-16
-15
-15
-15
-14
-14
-14
-14
-13
-13
-12
-11
-11
-11
-11
-12
-14
-15
-16
-17
-18
-18
-17
-17
-16
-16
-15
-16
-16
-17
-17
-17
-17
-16
-16
-15
-14
-14
-14
-15
-15
-16
-17
-17
-17
-17
-16
-15
-15
-14
-14
-14
-14
-15
-16
-17
-18
-19
-20
-19
-19
-17
-16
-14
-12
-11
-10
-10
-10
-11
-12
-13
-14
-16
-17
-17
-18
-18
-18
-17
-16
-15
-14
-14
-13
-12
-13
-13
-14
-14
-15
-16
-16
-16
-16
-15
-15
-14
-14
-14
-13
-13
-12
-12
-12
-12
-13
-13
-14
-15
-15
-15
-15
-14
-13
-12
-12
-12
-12
-13
-15
-16
-17
-18
-18
-17
-16
-15
-14
-14
-13
-13
-14
-14
-14
-14
-14
-13
-13
-12
-12
-12
-12
-12
-13
-13
-14
-14
-15
-15
-14
-14
-13
-12
-10
-9
-7
-6
-5
-4
-4
-5
-6
-7
-8
-8
-8
-7
-6
-5
-3
-1
-1
0
0
-1
-2
-4
-6
-7
-9
-10
-10
-10
-10
-8
-7
-5
-3
-2
-1
-2
-3
-5
-8
-10
-12
-13
-13
-13
-12
-12
-13
-13
-14
-16
-16
-17
-17
-16
-15
-14
-14
-14
-15
-15
-16
-16
-15
-14
-14
-15
-17
-22
-29
-37
-44
-49
-51
-47
-37
-23
-4
18
41
63
86
108
130
154
179
204
229
250
264
269
262
242
212
173
130
88
50
19
-2
-14
-19
-18
-16
-13
-12
-12
-14
-17
-19
-19
-17
-14
-11
-8
-6
-5
-7
-9
-12
-15
-16
-16
-14
-11
-8
-6
-4
-4
-5
-7
-9
-10
-11
-11
-9
-7
-5
-3
-1
0
0
-1
-1
-2
-3
-4
-4
-4
-3
-2
-1
0
1
1
2
3
3
4
4
5
5
6
7
7
8
9
10
12
13
14
15
17
18
19
21
22
24
25
26
27
28
29
31
32
35
37
40
43
45
46
47
46
46
46
47
49
51
54
58
61
64
66
66
65
63
61
59
58
58
58
59
60
60
59
58
56
53
49
45
41
37
33
29
25
21
17
14
11
9
8
6
6
5
4
3
2
0
-3
-6
-8
-11
-13
-15
-15
-15
-14
-13
-11
-9
-8
-7
-7
-7
-8
-9
-11
-12
-13
-14
-15
-15
-15
-16
-16
-16
-16
-16
-16
-15
-14
-13
-12
-11
-11
-10
-10
-11
-11
-12
-14
-15
-16
-17
-18
-18
-17
-17
-15
-14
-12
-11
-10
-10
-10
-11
-12
-14
-16
-18
-19
-19
-19
-18
-17
-15
-14
-12
-11
-10
-10
-10
-10
-10
-11
-11
-11
-12
-13
-14
-15
-16
-17
-18
-18
-17
-17
-16
-14
-13
-12
-12
-12
-12
-13
-15
-16
-18
-18
-19
-18
-17
-15
-14
-13
-12
-12
-13
-14
-16
-17
-17
-17
-16
-15
-13
-12
-12
-12
-13
-14
-15
-16
-17
-18
-18
-19
-20
-21
-22
-23
-23
-23
-22
-20
-17
-15
-13
-12
-12
-13
-16
-18
-20
-21
-22
-22
-21
-19
-18
-17
-17
-17
-17
-18
-18
-18
-17
-16
-15
-14
-14
-14
-15
-16
-17
-18
-18
-18
-18
-17
-16
-16
-17
-18
-19
-21
-23
-24
-24
-24
-22
-20
-18
-17
-16
-16
-17
-19
-21
-23
-24
-24
-23
-21
-18
-16
-14
-14
-14
-16
-18
-20
-21
-22
-21
-20
-18
-17
-15
-15
-16
-17
-19
-21
-23
-24
-24
-23
-21
-20
-18
-17
-17
-18
-19
-21
-22
-23
-23
-22
-21
-19
-17
-16
-15
-15
-16
-16
-17
-18
-19
-18
-18
-17
-15
-14
-13
-13
-13
-14
-16
-17
-18
-18
-18
-16
-14
-12
-10
-8
-6
-6
-7
-9
-11
-13
-15
-16
-17
-17
-16
-15
-14
-13
-13
-13
-13
-13
-12
-12
-11
-10
-9
-8
-8
-8
-9
-10
-11
-12
-12
-12
-11
-10
-9
-7
-6
-6
-6
-7
-8
-10
-11
-12
-12
-12
-11
-11
-10
-10
-9
-9
-9
-9
-9
-10
-10
-10
-11
-11
-12
-13
-13
-13
-13
-12
-10
-9
-8
-7
-7
-7
-8
-9
-10
-11
-12
-12
-12
-12
-11
-10
-8
-8
-7
-7
-7
-7
-7
-7
-7
-7
-6
-6
-5
-5
-5
-6
-7
-9
-10
-11
-12
-12
-11
-10
-8
-6
-4
-2
-1
0
1
1
1
1
2
2
3
4
4
5
5
5
5
5
5
4
4
4
3
3
2
1
0
0
-1
-1
0
1
3
5
6
7
7
6
4
2
-1
-3
-5
-6
-6
-6
-6
-6
-6
-6
-7
-8
-9
-9
-9
-8
-7
-6
-5
-5
-5
-5
-6
-6
-6
-6
-7
-8
-10
-14
-20
-26
-33
-38
-39
-37
-30
-18
-1
20
42
67
92
117
143
170
198
226
254
277
295
303
300
284
256
218
174
129
86
51
24
7
-1
-3
0
3
5
6
4
2
-1
-3
-3
-3
-1
0
1
0
-3
-6
-10
-13
-15
-15
-15
-13
-10
-8
-7
-7
-7
-8
-8
-8
-8
-8
-7
-5
-4
-4
-3
-3
-2
-2
-1
0
0
1
1
0
0
-1
-2
-2
-1
1
3
6
9
11
12
12
11
9
7
6
5
4
5
7
9
12
15
17
19
20
21
22
22
23
24
26
28
30
32
34
36
37
38
39
40
41
42
43
46
48
52
55
59
61
63
64
64
64
63
62
61
61
61
61
62
62
62
61
60
58
56
54
53
51
49
47
44
41
38
34
30
26
22
19
16
13
11
10
8
7
5
4
2
0
-1
-3
-5
-6
-7
-8
-8
-8
-8
-9
-9
-10
-11
-12
-12
-13
-14
-14
-13
-13
-13
-12
-12
-12
-12
-12
-12
-13
-13
-13
-14
-14
-14
-14
-14
-13
-13
-12
-11
-11
-11
-12
-13
-14
-15
-17
-18
-18
-18
-17
-15
-14
-12
-10
-9
-8
-8
-8
-9
-11
-12
-13
-15
-15
-16
-16
-16
-15
-15
-15
-15
-15
-15
-15
-14
-14
-13
-11
-10
-10
-10
-11
-12
-14
-16
-18
-19
-20
-21
-20
-20
-18
-17
-16
-15
-15
-15
-16
-16
-17
-17
-18
-18
-18
-17
-17
-16
-16
-16
-17
-17
-18
-19
-20
-20
-20
-20
-19
-19
-18
-17
-16
-16
-17
-18
-19
-20
-21
-22
-23
-23
-22
-22
-21
-21
-21
-21
-21
-21
-20
-20
-19
-19
-18
-18
-18
-18
-19
-20
-20
-20
-20
-19
-18
-17
-16
-15
-15
-16
-17
-19
-20
-21
-22
-23
-23
-22
-22
-22
-22
-22
-22
-23
-23
-23
-23
-22
-22
-21
-21
-20
-20
-20
-20
-20
-20
-20
-20
-21
-21
-22
-23
-24
-24
-25
-24
-24
-23
-22
-21
-21
-21
-21
-21
-22
-22
-22
-21
-20
-18
-17
-16
-15
-16
-17
-19
-21
-23
-25
-26
-26
-26
-25
-24
-24
-23
-24
-24
-25
-25
-25
-25
-23
-21
-19
-17
-16
-15
-15
-15
-16
-17
-18
-18
-18
-18
-18
-17
-17
-17
-18
-19
-20
-21
-22
-23
-24
-24
-24
-23
-22
-20
-18
-17
-16
-15
-15
-16
-17
-19
-20
-21
-22
-21
-20
-19
-18
-17
-16
-16
-17
-18
-20
-21
-22
-22
-22
-20
-19
-17
-15
-14
-14
-15
-16
-17
-19
-20
-20
-20
-19
-18
-17
-16
-16
-17
-18
-19
-20
-20
-19
-18
-16
-14
-12
-10
-10
-11
-13
-16
-18
-21
-22
-23
-22
-21
-18
-16
-14
-13
-13
-13
-14
-16
-17
-17
-17
-17
-17
-17
-17
-18
-18
-19
-20
-20
-19
-18
-17
-16
-14
-13
-12
-12
-11
-10
-10
-9
-8
-7
-6
-6
-6
-7
-9
-10
-12
-13
-13
-13
-12
-11
-10
-9
-8
-8
-8
-9
-11
-12
-13
-14
-15
-16
-16
-16
-16
-17
-17
-18
-19
-20
-20
-21
-22
-22
-22
-21
-21
-20
-19
-19
-18
-17
-16
-15
-14
-13
-14
-16
-20
-26
-34
-41
-48
-52
-52
-47
-36
-21
-2
20
44
69
95
121
149
178
208
238
265
287
300
302
292
269
234
191
145
100
59
27
4
-9
-15
-15
-13
-10
-8
-7
-7
-9
-10
-10
-10
-8
-7
-6
-6
-7
-8
-10
-12
-14
-14
-14
-13
-12
-11
-10
-9
-10
-10
-11
-11
-12
-11
-11
-10
-8
-7
-6
-5
-4
-4
-3
-2
-1
-1
0
0
1
1
1
1
1
2
3
4
5
6
7
8
9
10
10
10
10
10
10
10
11
12
14
16
18
20
22
24
26
28
29
30
31
33
34
35
36
37
39
40
42
44
47
49
51
54
56
58
60
61
63
64
65
66
67
67
68
68
68
68
69
69
70
70
70
69
68
66
64
61
58
54
50
46
42
38
34
31
29
27
25
24
23
21
20
17
15
12
8
5
3
0
-1
-2
-3
-3
-4
-4
-4
-4
-5
-5
-4
-4
-4
-4
-4
-5
-5
-6
-7
-7
-8
-7
-7
-6
-6
-5
-5
-6
-6
-7
-7
-8
-8
-7
-6
-5
-4
-4
-3
-4
-4
-5
-6
-7
-8
-8
-8
-8
-8
-8
-8
-8
-8
-8
-8
-8
-8
-7
-6
-5
-4
-4
-4
-4
-5
-7
-8
-9
-10
-10
-10
-10
-9
-9
-9
-9
-9
-10
-11
-12
-13
-14
-14
-14
-13
-12
-10
-9
-8
-8
-8
-9
-11
-12
-13
-13
-13
-12
-11
-10
-9
-9
-10
-11
-12
-14
-14
-15
-14
-14
-13
-13
-13
-14
-15
-16
-17
-17
-17
-16
-15
-14
-13
-13
-14
-15
-17
-19
-20
-21
-21
-20
-19
-17
-16
-15
-15
-15
-16
-16
-17
-18
-18
-18
-17
-17
-17
-17
-17
-18
-18
-19
-20
-20
-21
-21
-20
-20
-20
-20
-20
-20
-20
-21
-21
-21
-20
-19
-17
-15
-13
-12
-10
-9
-8
-9
-10
-11
-12
-14
-15
-16
-17
-17
-17
-16
-16
-15
-15
-14
-14
-14
-14
-15
-16
-17
-18
-19
-20
-20
-21
-21
-20
-19
-18
-16
-15
-14
-13
-13
-13
-13
-13
-14
-15
-15
-15
-16
-15
-15
-14
-14
-13
-13
-13
-14
-15
-16
-17
-18
-18
-18
-18
-16
-15
-13
-12
-10
-10
-11
-12
-14
-17
-19
-21
-23
-23
-22
-20
-18
-16
-14
-14
-15
-16
-18
-19
-20
-20
-19
-17
-15
-12
-11
-10
-11
-13
-15
-18
-21
-22
-23
-22
-21
-20
-19
-18
-19
-20
-22
-24
-25
-26
-26
-26
-24
-23
-21
-20
-18
-18
-17
-18
-18
-19
-20
-21
-21
-22
-22
-21
-20
-18
-16
-14
-12
-10
-9
-8
-9
-10
-12
-14
-15
-16
-17
-17
-17
-17
-17
-17
-17
-18
-18
-18
-18
-17
-16
-15
-15
-15
-15
-16
-17
-18
-19
-20
-20
-20
-19
-20
-20
-21
-22
-24
-25
-25
-25
-23
-22
-20
-18
-17
-17
-18
-20
-22
-23
-24
-25
-25
-26
-27
-30
-34
-38
-42
-44
-44
-39
-30
-16
2
23
46
71
96
121
146
172
197
220
240
253
257
251
232
203
165
122
78
38
5
-19
-33
-37
-35
-30
-23
-19
-16
-16
-18
-20
-21
-21
-19
-16
-12
-9
-7
-7
-8
-9
-11
-12
-13
-12
-11
-10
-9
-8
-8
-9
-9
-9
-9
-8
-7
-6
-6
-5
-6
-6
-7
-8
-7
-7
-5
-3
-1
0
1
1
0
-1
-1
-2
-1
1
4
8
11
14
16
17
16
15
13
11
10
10
10
12
14
16
18
20
22
22
23
24
25
26
29
32
35
39
42
45
48
49
50
50
50
51
52
54
57
60
63
67
70
72
73
73
73
73
72
72
73
74
74
75
75
74
73
70
67
64
61
58
55
52
49
46
42
38
33
29
25
22
19
17
16
14
12
10
7
4
1
-1
-3
-5
-6
-6
-6
-6
-5
-6
-6
-7
-9
-10
-12
-12
-12
-12
-11
-9
-7
-6
-6
-6
-7
-9
-11
-12
-14
-14
-14
-13
-12
-10
-9
-9
-9
-9
-10
-11
-12
-13
-13
-13
-13
-14
-14
-15
-16
-18
-18
-19
-18
-17
-16
-14
-13
-12
-12
-13
-15
-17
-18
-18
-18
-16
-14
-10
-7
-5
-3
-3
-4
-7
-10
-13
-16
-18
-19
-18
-16
-14
-12
-11
-10
-10
-12
-13
-15
-17
-18
-19
-18
-17
-15
-14
-13
-13
-14
-15
-16
-17
-16
-15
-14
-11
-9
-8
-7
-8
-10
-13
-16
-18
-19
-19
-17
-15
-12
-9
-7
-7
-9
-12
-16
-20
-23
-25
-26
-24
-21
-18
-14
-11
-10
-9
-10
-11
-13
-16
-17
-18
-19
-19
-19
-18
-18
-17
-16
-16
-15
-15
-15
-15
-16
-17
-19
-20
-21
-22
-22
-20
-19
-16
-14
-13
-12
-12
-14
-15
-17
-19
-20
-20
-20
-20
-20
-20
-20
-21
-23
-24
-25
-25
-25
-24
-22
-20
-19
-18
-17
-17
-18
-19
-20
-20
-21
-21
-21
-21
-20
-20
-19
-19
-18
-17
-16
-16
-15
-15
-16
-17
-19
-20
-22
-23
-23
-23
-23
-22
-21
-21
-21
-21
-21
-20
-20
-18
-16
-14
-11
-10
-9
-9
-10
-12
-14
-15
-16
-16
-16
-15
-13
-12
-12
-12
-13
-14
-15
-17
-18
-19
-19
-18
-17
-16
-15
-14
-13
-13
-13
-14
-16
-18
-20
-21
-22
-22
-21
-20
-18
-17
-17
-17
-19
-20
-22
-24
-24
-24
-22
-20
-17
-15
-14
-14
-15
-18
-22
-26
-31
-36
-40
-44
-45
-44
-39
-31
-19
-3
15
36
59
82
105
128
151
172
192
209
221
227
225
214
193
163
127
88
50
16
-11
-28
-36
-36
-31
-24
-17
-12
-11
-13
-17
-21
-24
-25
-24
-20
-16
-12
-9
-8
-9
-12
-16
-20
-23
-24
-24
-23
-20
-18
-16
-15
-14
-14
-14
-14
-13
-12
-11
-10
-9
-9
-8
-8
-9
-9
-9
-9
-8
-7
-6
-5
-5
-5
-5
-5
-5
-5
-5
-4
-3
-1
1
2
3
4
5
5
6
7
8
10
12
13
15
15
16
16
17
17
19
20
22
25
27
29
31
33
33
34
35
36
38
40
42
45
48
51
53
54
56
57
57
58
58
59
59
59
59
59
59
58
57
56
55
53
51
49
46
43
40
37
34
31
27
24
21
18
15
12
8
5
2
-1
-4
-7
-9
-10
-11
-12
-12
-12
-12
-12
-13
-13
-14
-16
-17
-18
-19
-19
-20
-20
-20
-20
-20
-20
-20
-20
-19
-19
-19
-18
-18
-18
-19
-19
-19
-19
-19
-18
-17
-16
-14
-14
-13
-14
-15
-16
-18
-18
-18
-17
-16
-15
-14
-13
-14
-15
-18
-20
-22
-22
-22
-20
-18
-16
-14
-13
-13
-14
-16
-18
-20
-20
-19
-17
-14
-12
-10
-9
-10
-12
-15
-19
-22
-24
-24
-23
-21
-19
-16
-15
-14
-14
-14
-15
-16
-17
-17
-17
-17
-16
-16
-16
-16
-16
-16
-16
-15
-14
-13
-12
-12
-12
-13
-14
-15
-17
-18
-18
-18
-17
-16
-16
-15
-15
-15
-16
-16
-17
-17
-16
-16
-14
-13
-12
-12
-12
-12
-13
-15
-17
-18
-20
-21
-21
-21
-20
-18
-17
-16
-15
-15
-15
-16
-18
-19
-20
-21
-21
-19
-18
-16
-14
-12
-11
-12
-13
-15
-17
-19
-21
-22
-22
-21
-19
-17
-15
-14
-14
-14
-14
-15
-16
-17
-17
-17
-16
-15
-15
-14
-14
-15
-15
-15
-15
-15
-14
-14
-13
-13
-14
-15
-16
-17
-18
-18
-18
-18
-17
-15
-14
-13
-13
-12
-12
-12
-13
-13
-13
-13
-13
-12
-12
-12
-12
-11
-11
-10
-9
-7
-5
-3
-2
-1
-1
-2
-4
-6
-9
-12
-14
-16
-17
-17
-16
-13
-11
-8
-5
-3
-3
-3
-5
-7
-9
-12
-14
-15
-15
-16
-16
-16
-16
-16
-17
-18
-18
-17
-16
-15
-14
-12
-12
-13
-14
-16
-18
-20
-21
-22
-24
-25
-28
-32
-36
-41
-44
-45
-42
-34
-22
-5
16
39
62
86
109
132
155
178
201
221
237
247
248
239
219
188
151
110
69
34
7
-12
-22
-24
-22
-18
-15
-12
-12
-14
-16
-17
-17
-15
-12
-9
-6
-4
-4
-6
-8
-11
-13
-14
-14
-14
-12
-11
-9
-8
-7
-7
-7
-7
-6
-6
-6
-6
-6
-6
-6
-6
-6
-5
-5
-4
-3
-3
-2
-2
-3
-2
-2
-1
1
3
5
7
8
8
7
5
4
2
1
1
2
4
7
10
12
15
16
17
18
18
18
19
20
22
23
25
27
28
30
31
33
35
37
40
43
46
48
50
51
52
53
54
55
57
59
62
65
68
69
70
69
68
65
63
61
60
59
59
60
60
60
58
56
52
48
44
40
36
33
30
28
26
24
22
19
16
13
9
6
3
0
-2
-4
-5
-6
-6
-6
-6
-6
-6
-6
-6
-7
-8
-9
-10
-11
-12
-12
-12
-12
-11
-10
-9
-8
-7
-7
-7
-7
-8
-9
-11
-13
-15
-17
-18
-19
-18
-17
-16
-14
-12
-10
-9
-8
-8
-8
-9
-9
-9
-9
-8
-8
-8
-8
-8
-9
-10
-12
-13
-13
-13
-12
-11
-10
-8
-7
-6
-6
-7
-8
-9
-10
-11
-11
-11
-11
-10
-10
-10
-10
-10
-11
-11
-12
-12
-12
-11
-10
-10
-9
-9
-10
-10
-11
-12
-12
-12
-12
-12
-12
-11
-11
-12
-12
-13
-13
-13
-13
-12
-10
-9
-8
-7
-6
-6
-7
-8
-10
-12
-13
-14
-15
-16
-16
-16
-16
-16
-15
-15
-14
-14
-14
-13
-13
-13
-13
-12
-12
-11
-11
-11
-11
-11
-11
-12
-12
-13
-13
-14
-14
-14
-14
-14
-14
-13
-13
-12
-12
-12
-12
-11
-11
-11
-11
-11
-10
-10
-10
-9
-9
-9
-9
-10
-11
-12
-13
-13
-14
-14
-14
-14
-13
-13
-13
-13
-13
-13
-14
-14
-14
-15
-15
-15
-15
-15
-15
-15
-15
-14
-14
-14
-13
-13
-12
-12
-12
-12
-12
-13
-13
-13
-12
-12
-11
-11
-10
-10
-10
-10
-11
-11
-12
-12
-12
-13
-13
-13
-13
-13
-13
-13
