-1
-2
-3
-4
-5
-6
-7
-7
-7
-6
-6
-5
-4
-3
-3
-4
-5
-6
-6
-7
-7
-7
-6
-5
-5
-4
-5
-6
-7
-8
-10
-11
-11
-11
-11
-10
-10
-10
-11
-12
-13
-14
-14
-15
-14
-13
-12
-11
-11
-10
-11
-11
-11
-12
-11
-11
-10
-8
-7
-5
-5
-5
-5
-6
-7
-7
-7
-6
-5
-3
-1
1
2
2
2
1
0
-1
-1
-2
-2
-2
-2
-1
-1
-1
-1
-1
-1
0
0
1
2
3
3
2
1
-1
-3
-6
-9
-12
-15
-16
-17
-17
-17
-16
-16
-15
-14
-14
-14
-14
-14
-15
-15
-16
-16
-16
-16
-16
-15
-14
-13
-12
-12
-11
-11
-11
-11
-9
-6
-1
8
18
31
46
62
78
94
108
120
128
132
132
127
117
101
80
56
30
3
-22
-43
-59
-69
-73
-71
-66
-59
-51
-44
-38
-34
-31
-28
-26
-25
-22
-20
-18
-17
-17
-17
-18
-19
-20
-21
-20
-19
-17
-15
-14
-13
-13
-13
-14
-15
-15
-15
-14
-12
-10
-8
-6
-4
-3
-3
-2
-2
-3
-3
-4
-4
-5
-5
-5
-4
-3
-2
0
2
4
6
8
9
9
9
10
10
11
13
15
17
20
22
24
26
27
28
29
30
32
34
37
40
44
47
50
52
54
56
56
57
58
59
60
61
63
64
65
65
65
64
63
62
60
59
58
57
57
55
54
52
50
48
46
43
41
38
35
33
30
27
25
22
20
18
16
15
13
12
11
10
9
7
5
4
2
1
1
0
0
-1
-1
-2
-3
-3
-4
-5
-6
-7
-7
-7
-7
-8
-8
-8
-8
-8
-7
-7
-6
-6
-5
-5
-5
-6
-6
-7
-8
-9
-9
-10
-9
-9
-9
-9
-10
-11
-13
-14
-16
-17
-18
-17
-17
-16
-15
-14
-13
-13
-14
-15
-17
-18
-20
-21
-21
-22
-21
-21
-20
-19
-19
-19
-19
-19
-20
-20
-21
-21
-22
-22
-21
-21
-20
-20
-20
-20
-20
-20
-21
-22
-23
-23
-24
-24
-25
-25
-25
-25
-25
-25
-25
-25
-25
-25
-25
-24
-24
-23
-21
-20
-19
-18
-17
-16
-16
-16
-16
-16
-17
-17
-17
-17
-17
-15
-14
-12
-11
-9
-8
-7
-7
-7
-9
-10
-11
-13
-14
-14
-13
-12
-11
-9
-7
-6
-4
-3
-3
-4
-5
-6
-9
-12
-15
-18
-20
-22
-23
-23
-22
-21
-19
-18
-18
-18
-19
-21
-23
-24
-25
-25
-25
-24
-23
-22
-21
-21
-22
-22
-23
-24
-23
-23
-21
-19
-16
-12
-6
1
10
23
38
55
74
93
111
126
137
143
143
136
123
105
82
57
30
3
-21
-43
-60
-72
-79
-80
-76
-69
-60
-50
-42
-35
-30
-28
-27
-27
-28
-28
-28
-27
-26
-25
-24
-24
-23
-23
-23
-22
-22
-20
-19
-18
-18
-18
-18
-19
-19
-19
-18
-17
-15
-13
-12
-11
-11
-12
-13
-14
-15
-15
-14
-13
-10
-8
-6
-4
-3
-3
-3
-4
-4
-4
-3
-1
1
4
7
9
11
13
14
15
16
17
18
20
21
23
25
27
29
31
33
36
38
40
43
45
47
50
52
53
54
55
55
56
56
56
56
56
57
57
57
57
57
56
56
54
53
51
49
47
44
41
38
35
32
30
28
26
24
23
21
19
17
15
13
10
8
7
6
5
5
4
3
2
0
-1
-3
-5
-7
-8
-9
-9
-10
-10
-11
-11
-12
-13
-13
-14
-14
-13
-13
-12
-12
-11
-11
-11
-10
-10
-10
-11
-11
-12
-13
-14
-15
-15
-15
-15
-14
-13
-13
-12
-12
-13
-14
-16
-17
-17
-17
-15
-14
-12
-10
-9
-8
-9
-11
-14
-17
-19
-22
-23
-23
-22
-20
-19
-17
-16
-16
-16
-17
-18
-19
-19
-19
-19
-18
-18
-17
-17
-17
-18
-20
-21
-22
-22
-22
-21
-20
-19
-17
-17
-17
-17
-18
-19
-19
-19
-19
-19
-18
-18
-19
-20
-21
-22
-23
-24
-24
-23
-21
-19
-17
-16
-15
-15
-15
-15
-15
-14
-13
-11
-10
-8
-7
-7
-8
-9
-10
-10
-10
-9
-7
-5
-3
-2
-1
-2
-3
-4
-6
-7
-7
-7
-5
-3
-1
1
2
2
2
1
1
0
0
0
1
1
1
1
0
-3
-6
-10
-13
-16
-19
-20
-20
-19
-18
-17
-16
-16
-17
-18
-19
-20
-20
-20
-20
-18
-17
-16
-16
-15
-15
-13
-11
-7
-1
8
20
33
49
66
84
102
118
132
143
150
151
145
133
115
92
64
35
6
-21
-43
-60
-71
-75
-75
-71
-65
-58
-51
-45
-39
-35
-31
-29
-27
-26
-25
-24
-24
-25
-25
-25
-25
-25
-24
-23
-21
-19
-18
-17
-17
-17
-17
-18
-18
-19
-18
-18
-17
-15
-14
-13
-12
-12
-11
-11
-10
-9
-8
-7
-6
-5
-4
-4
-4
-4
-4
-4
-3
-2
0
2
4
7
9
10
12
12
13
14
15
16
17
19
21
22
24
26
28
29
31
33
35
37
39
41
44
46
48
51
53
55
57
58
59
60
60
60
60
60
60
60
60
59
58
56
54
52
50
48
46
44
43
42
40
38
36
32
28
25
21
18
15
14
14
14
14
13
13
11
9
6
3
0
-2
-4
-5
-6
-7
-8
-9
-10
-10
-11
-12
-12
-12
-12
-12
-12
-13
-13
-14
-15
-15
-15
-14
-14
-12
-11
-11
-10
-11
-12
-13
-15
-16
-18
-18
-19
-18
-18
-17
-16
-16
-15
-16
-16
-16
-17
-17
-16
-16
-15
-14
-14
-14
-14
-14
-15
-16
-16
-17
-17
-18
-18
-18
-19
-20
-21
-22
-22
-22
-22
-20
-19
-17
-16
-15
-15
-15
-16
-18
-19
-20
-21
-21
-21
-21
-21
-20
-20
-20
-20
-20
-19
-19
-19
-18
-18
-19
-20
-21
-22
-22
-23
-23
-22
-21
-20
-19
-19
-19
-20
-21
-22
-23
-23
-23
-22
-20
-18
-16
-13
-11
-10
-8
-7
-7
-7
-7
-7
-7
-7
-8
-8
-8
-8
-8
-7
-7
-6
-5
-5
-5
-5
-5
-5
-5
-5
-4
-3
-1
0
1
2
2
2
1
-1
-4
-6
-9
-11
-14
-16
-17
-18
-19
-19
-19
-18
-17
-15
-15
-14
-14
-15
-17
-18
-20
-21
-22
-22
-21
-20
-18
-17
-16
-16
-16
-17
-17
-16
-14
-10
-3
7
19
34
51
69
87
105
121
134
145
151
152
147
136
119
96
69
39
9
-20
-45
-65
-78
-84
-84
-79
-71
-62
-53
-46
-40
-36
-33
-31
-30
-28
-27
-25
-23
-22
-22
-22
-23
-24
-24
-23
-22
-19
-17
-15
-13
-13
-14
-15
-17
-19
-20
-20
-19
-17
-14
-12
-10
-8
-8
-8
-8
-9
-9
-8
-7
-6
-4
-3
-3
-2
-3
-3
-3
-2
-1
1
3
6
8
10
11
11
11
10
10
11
13
15
18
22
25
28
31
33
35
36
38
40
42
45
48
51
54
56
57
57
57
57
57
57
58
59
60
61
61
62
61
60
58
57
54
52
50
48
46
45
43
41
39
37
36
34
32
29
27
24
22
19
16
14
12
10
9
7
6
5
3
1
-1
-3
-5
-6
-7
-8
-8
-8
-9
-9
-10
-10
-11
-12
-12
-11
-11
-10
-8
-8
-7
-7
-8
-9
-10
-11
-12
-13
-13
-12
-12
-11
-10
-10
-10
-10
-11
-11
-12
-13
-14
-14
-15
-15
-15
-15
-15
-16
-16
-16
-15
-15
-15
-15
-14
-14
-14
-14
-14
-15
-16
-17
-18
-19
-19
-19
-19
-17
-16
-14
-12
-12
-12
-13
-15
-17
-19
-21
-22
-22
-22
-20
-18
-16
-15
-15
-15
-17
-18
-20
-21
-22
-22
-22
-22
-21
-21
-21
-21
-21
-21
-20
-19
-17
-16
-15
-15
-15
-16
-17
-18
-19
-19
-19
-18
-16
-15
-13
-13
-12
-12
-13
-13
-13
-12
-10
-8
-6
-5
-4
-3
-3
-4
-5
-6
-7
-8
-8
-7
-7
-6
-5
-4
-3
-2
-2
-1
0
0
0
-1
-3
-5
-8
-11
-15
-18
-20
-22
-23
-23
-22
-22
-21
-20
-19
-19
-18
-18
-19
-19
-19
-20
-20
-20
-20
-20
-19
-19
-18
-18
-18
-18
-18
-17
-16
-13
-8
-1
8
20
34
50
67
85
102
118
131
140
144
143
135
120
99
72
43
11
-19
-46
-67
-82
-90
-91
-87
-78
-68
-58
-48
-40
-35
-31
-30
-29
-28
-28
-27
-26
-24
-23
-21
-20
-20
-19
-19
-20
-20
-20
-19
-19
-18
-18
-17
-17
-17
-17
-18
-18
-19
-18
-18
-16
-15
-13
-10
-8
-7
-5
-5
-5
-6
-7
-8
-8
-8
-7
-6
-3
-1
2
4
6
7
8
9
9
9
9
10
11
13
15
17
20
23
26
28
31
33
35
36
37
39
40
42
44
46
48
51
53
54
56
57
57
58
58
58
58
59
59
59
58
58
57
55
54
52
50
49
47
46
44
42
40
37
35
31
28
25
23
21
20
19
19
18
17
15
13
10
6
3
0
-2
-4
-5
-5
-4
-4
-4
-5
-6
-7
-9
-10
-12
-13
-14
-14
-15
-16
-16
-17
-17
-17
-16
-15
-14
-13
-12
-11
-11
-12
-12
-13
-13
-13
-12
-11
-10
-10
-10
-11
-12
-14
-15
-16
-16
-16
-15
-14
-12
-11
-11
-11
-11
-12
-14
-15
-15
-16
-17
-17
-18
-19
-20
-21
-21
-22
-21
-20
-18
-16
-14
-13
-12
-13
-14
-16
-19
-21
-22
-23
-23
-21
-19
-17
-15
-14
-14
-14
-15
-16
-18
-19
-19
-19
-19
-18
-17
-16
-16
-16
-16
-16
-15
-15
-14
-13
-12
-11
-10
-10
-10
-10
-10
-9
-9
-7
-6
-5
-5
-5
-5
-6
-7
-8
-8
-9
-8
-7
-6
-5
-5
-4
-4
-4
-4
-5
-5
-5
-6
-6
-7
-8
-10
-11
-13
-15
-16
-17
-17
-17
-17
-17
-16
-16
-16
-16
-17
-18
-19
-19
-20
-21
-22
-22
-22
-22
-21
-20
-19
-18
-16
-14
-11
-7
-3
3
12
22
34
48
64
81
97
112
125
133
137
134
125
110
89
63
36
7
-20
-44
-63
-76
-84
-85
-82
-76
-67
-58
-49
-42
-36
-31
-28
-26
-25
-24
-24
-24
-23
-23
-22
-22
-22
-21
-21
-20
-20
-19
-19
-19
-19
-19
-19
-19
-18
-17
-15
-14
-12
-11
-11
-10
-10
-10
-10
-10
-9
-9
-8
-7
-6
-6
-6
-5
-5
-4
-2
0
3
6
8
10
11
12
11
11
10
10
11
12
14
17
19
22
24
26
28
30
32
34
36
39
42
44
47
49
51
53
55
57
59
61
62
64
65
65
65
64
63
63
62
62
62
62
61
60
59
56
54
50
47
44
41
38
36
35
33
31
29
27
25
22
20
17
15
13
10
8
5
3
0
-3
-6
-8
-9
-10
-10
-9
-8
-7
-7
-7
-7
-9
-10
-12
-13
-14
-15
-15
-15
-15
-14
-14
-14
-14
-14
-14
-13
-13
-13
-12
-12
-12
-12
-12
-12
-11
-11
-11
-10
-10
-10
-11
-11
-12
-12
-12
-12
-12
-11
-11
-11
-12
-13
-15
-16
-18
-19
-19
-18
-17
-16
-15
-14
-14
-15
-16
-18
-20
-21
-21
-21
-19
-18
-16
-15
-15
-16
-17
-18
-19
-20
-21
-20
-19
-18
-18
-17
-17
-18
-19
-19
-20
-20
-19
-18
-17
-17
-16
-15
-15
-15
-14
-13
-12
-11
-10
-8
-7
-7
-7
-7
-7
-7
-6
-5
-4
-3
-2
-2
-1
-2
-3
-4
-5
-6
-6
-6
-6
-5
-4
-3
-3
-4
-5
-7
-9
-11
-13
-15
-17
-18
-19
-19
-20
-20
-21
-22
-22
-22
-22
-21
-20
-19
-18
-18
-18
-19
-20
-21
-22
-23
-23
-22
-22
-21
-20
-19
-17
-14
-10
-4
5
16
30
46
63
81
98
113
126
135
139
138
131
119
100
77
51
22
-6
-32
-53
-70
-80
-84
-83
-77
-69
-59
-50
-42
-36
-31
-28
-27
-26
-26
-26
-26
-25
-25
-24
-24
-23
-23
-22
-22
-21
-21
-20
-20
-19
-18
-18
-17
-17
-17
-17
-17
-18
-19
-19
-19
-18
-17
-16
-14
-12
-10
-9
-8
-8
-7
-7
-7
-7
-6
-6
-5
-4
-2
-1
0
1
3
4
6
7
9
11
12
14
15
17
18
19
21
22
24
26
29
32
35
38
41
43
46
48
49
50
51
51
52
53
55
56
58
60
61
62
63
62
61
60
58
56
54
52
50
49
47
46
44
42
40
37
34
31
28
25
23
20
19
17
15
14
12
11
9
8
6
4
2
0
-3
-5
-8
-10
-12
-14
-15
-15
-15
-15
-14
-13
-12
-12
-12
-13
-14
-15
-16
-17
-17
-18
-18
-18
-18
-18
-17
-17
-16
-15
-15
-14
-13
-13
-13
-12
-12
-12
-12
-12
-12
-12
-12
-12
-13
-13
-14
-14
-15
-16
-16
-17
-17
-17
-16
-16
-15
-15
-15
-15
-15
-15
-16
-16
-17
-17
-18
-18
-18
-19
-19
-20
-20
-21
-21
-22
-22
-22
-22
-22
-21
-21
-20
-19
-18
-17
-17
-17
-17
-18
-19
-20
-20
-20
-20
-19
-18
-17
-16
-15
-14
-14
-14
-14
-13
-12
-11
-10
-8
-7
-5
-5
-4
-5
-5
-6
-7
-7
-8
-9
-10
-10
-11
-11
-10
-9
-8
-6
-4
-2
0
0
0
-1
-3
-6
-10
-13
-15
-17
-18
-19
-19
-19
-19
-19
-19
-20
-21
-21
-22
-22
-22
-22
-22
-21
-21
-20
-20
-20
-20
-20
-20
-21
-21
-21
-20
-19
-17
-12
-6
2
12
25
39
56
73
90
108
124
137
147
152
151
143
128
108
81
52
21
-8
-34
-55
-69
-78
-81
-79
-74
-68
-60
-53
-47
-41
-36
-31
-28
-25
-23
-22
-21
-22
-23
-24
-25
-25
-25
-24
-23
-21
-20
-19
-19
-18
-19
-19
-19
-20
-19
-19
-18
-17
-16
-15
-14
-13
-13
-12
-11
-10
-9
-8
-8
-7
-6
-5
-4
-3
-2
-1
0
1
2
2
2
2
3
3
4
6
8
10
13
15
17
18
20
21
23
24
26
29
32
35
37
39
41
43
45
47
49
51
54
56
59
60
62
63
63
62
62
61
61
61
61
61
60
59
58
56
54
52
50
48
46
44
43
41
38
36
33
30
27
24
22
20
18
16
14
12
9
6
3
0
-2
-3
-4
-4
-4
-5
-5
-6
-7
-9
-11
-12
-13
-13
-12
-12
-11
-10
-9
-9
-9
-9
-9
-10
-10
-10
-10
-10
-10
-10
-11
-12
-12
-13
-13
-13
-13
-12
-12
-12
-12
-13
-13
-14
-14
-14
-14
-13
-13
-13
-13
-13
-14
-15
-15
-15
-15
-14
-13
-12
-12
-12
-12
-14
-15
-17
-18
-19
-19
-18
-18
-17
-16
-15
-15
-16
-16
-17
-18
-18
-19
-18
-18
-18
-17
-17
-16
-16
-17
-17
-18
-19
-21
-22
-23
-23
-24
-24
-23
-23
-21
-20
-18
-17
-15
-14
-12
-11
-11
-10
-10
-10
-10
-10
-10
-10
-10
-10
-9
-8
-8
-7
-6
-5
-5
-5
-5
-6
-6
-7
-7
-7
-6
-5
-3
-2
0
1
2
2
1
-1
-4
-7
-10
-13
-15
-17
-17
-18
-18
-18
-18
-18
-19
-19
-19
-19
-19
-19
-19
-19
-20
-20
-21
-22
-22
-22
-22
-21
-20
-19
-18
-18
-17
-16
-14
-11
-5
4
15
30
47
65
84
103
120
134
144
150
150
145
134
116
94
68
39
9
-20
-45
-65
-79
-86
-87
-82
-74
-64
-53
-44
-36
-31
-28
-26
-26
-26
-26
-26
-25
-25
-24
-25
-25
-26
-26
-27
-26
-25
-23
-21
-18
-16
-15
-15
-15
-16
-17
-18
-18
-17
-15
-13
-11
-9
-8
-8
-9
-10
-12
-12
-12
-10
-8
-4
-1
2
4
4
4
4
3
2
2
2
4
6
8
10
12
13
14
14
15
16
17
19
22
25
28
31
34
36
38
40
42
44
46
47
49
50
51
53
54
55
57
58
59
60
60
59
59
58
57
55
54
53
52
51
50
48
46
44
41
39
36
34
32
30
29
27
25
23
21
18
15
12
9
7
5
3
2
0
-1
-2
-3
-4
-6
-8
-9
-11
-13
-14
-15
-16
-16
-15
-15
-14
-13
-13
-13
-13
-13
-14
-15
-16
-16
-16
-16
-15
-15
-14
-14
-15
-16
-17
-18
-18
-19
-19
-18
-17
-16
-15
-14
-14
-14
-14
-14
-14
-15
-15
-15
-15
-15
-15
-15
-15
-15
-16
-16
-16
-17
-17
-17
-18
-18
-19
-19
-19
-19
-19
-19
-19
-18
-18
-18
-17
-17
-17
-17
-18
-18
-18
-19
-20
-20
-21
-21
-21
-21
-21
-20
-19
-19
-18
-18
-18
-19
-19
-20
-21
-21
-21
-21
-21
-20
-19
-18
-17
-16
-15
-14
-14
-13
-13
-12
-12
-11
-10
-10
-9
-9
-9
-8
-8
-8
-8
-7
-7
-6
-6
-6
-6
-5
-5
-5
-5
-5
-4
-4
-4
-3
-3
-3
-3
-3
-3
-4
-5
-7
-10
-13
-16
-19
-22
-24
-25
-25
-25
-23
-22
-20
-19
-19
-20
-21
-22
-23
-24
-24
-24
-23
-21
-19
-18
-17
-17
-17
-18
-18
-18
-16
-13
-7
1
12
26
41
59
78
97
114
130
141
148
149
144
132
113
88
60
29
-1
-29
-53
-72
-84
-90
-90
-86
-79
-71
-62
-54
-46
-40
-35
-32
-29
-26
-25
-24
-24
-24
-24
-25
-26
-26
-26
-25
-24
-23
-22
-21
-21
-21
-21
-21
-20
-20
-18
-17
-15
-13
-11
-10
-10
-10
-10
-10
-10
-9
-9
-8
-8
-7
-7
-6
-6
-5
-4
-3
-2
0
1
3
4
6
7
8
10
11
13
15
17
19
21
23
25
27
28
30
31
33
34
36
38
40
42
44
47
49
52
54
57
59
60
61
62
63
63
63
62
61
60
59
57
56
55
54
54
53
52
52
50
49
47
44
42
39
36
34
32
30
28
26
24
21
19
17
14
12
10
8
7
5
4
2
1
-1
-3
-5
-7
-8
-9
-10
-10
-10
-9
-9
-9
-9
-10
-10
-10
-10
-10
-10
-9
-9
-8
-8
-8
-8
-8
-9
-10
-10
-11
-11
-12
-12
-12
-12
-12
-12
-12
-12
-12
-12
-12
-11
-11
-11
-11
-11
-11
-12
-13
-13
-14
-15
-16
-16
-17
-17
-18
-18
-18
-18
-18
-18
-17
-17
-16
-15
-14
-13
-12
-12
-13
-13
-14
-14
-15
-16
-16
-17
-18
-18
-19
-20
-20
-21
-21
-21
-21
-21
-20
-20
-20
-20
-20
-20
-20
-20
-20
-20
-19
-19
-17
-16
-15
-14
-12
-12
-11
-10
-10
-10
-9
-9
-8
-8
-7
-6
-6
-5
-4
-3
-3
-2
-2
-2
-2
-3
-3
-4
-5
-5
-4
-4
-3
-1
0
1
1
0
-2
-4
-7
-10
-13
-15
-17
-19
-20
-20
-20
-21
-21
-21
-21
-22
-22
-22
-22
-22
-21
-19
-18
-17
-15
-14
-14
-15
-16
-18
-19
-20
-20
-19
-17
-13
-7
-1
8
17
28
40
55
70
87
104
119
131
139
141
136
124
105
81
54
25
-3
-29
-51
-68
-79
-85
-86
-83
-76
-67
-57
-48
-39
-32
-27
-24
-22
-22
-23
-24
-25
-25
-25
-25
-25
-25
-26
-26
-27
-28
-28
-28
-27
-25
-22
-20
-17
-14
-12
-11
-11
-11
-12
-13
-14
-15
-15
-14
-13
-11
-10
-8
-7
-6
-5
-5
-5
-4
-4
-4
-3
-2
0
1
3
5
7
9
10
12
13
14
16
17
19
21
23
26
29
32
35
38
40
42
44
45
46
47
49
51
54
56
59
61
63
64
64
64
64
64
64
64
64
64
63
62
61
59
57
55
53
51
50
48
47
45
44
42
39
36
33
30
27
24
22
20
18
17
16
15
14
12
10
7
5
2
0
-2
-4
-5
-6
-7
-7
-8
-8
-9
-10
-11
-11
-12
-12
-12
-11
-11
-10
-9
-9
-9
-9
-9
-10
-10
-10
-10
-11
-11
-12
-12
-13
-13
-13
-13
-12
-11
-10
-9
-9
-9
-9
-10
-12
-13
-14
-14
-14
-13
-12
-11
-11
-10
-11
-11
-12
-13
-14
-15
-15
-15
-14
-14
-13
-13
-14
-14
-15
-16
-17
-18
-19
-19
-19
-19
-18
-18
-18
-18
-18
-18
-17
-17
-17
-17
-16
-16
-16
-16
-17
-17
-17
-18
-18
-17
-17
-16
-15
-14
-13
-12
-11
-10
-10
-9
-9
-8
-8
-7
-7
-6
-5
-5
-5
-4
-4
-3
-3
-3
-3
-4
-4
-5
-6
-6
-6
-6
-6
-5
-3
-2
-1
-1
-1
-3
-5
-7
-10
-13
-15
-18
-20
-21
-22
-22
-22
-22
-22
-22
-22
-23
-23
-23
-23
-22
-21
-20
-19
-18
-17
-17
-18
-19
-21
-23
-24
-25
-24
-22
-19
-13
-7
2
11
21
33
47
61
77
93
108
122
131
136
134
125
110
88
62
33
4
-23
-46
-65
-77
-84
-85
-83
-77
-69
-60
-52
-45
-39
-34
-31
-29
-28
-27
-26
-26
-25
-25
-25
-24
-24
-24
-23
-22
-22
-21
-21
-21
-22
-22
-22
-22
-22
-21
-19
-17
-15
-14
-13
-13
-13
-14
-15
-16
-16
-16
-14
-12
-10
-8
-6
-5
-4
-4
-4
-4
-4
-3
-3
-2
0
1
2
3
4
5
6
8
10
12
14
17
19
22
24
27
29
31
34
36
39
41
43
45
47
50
52
54
56
57
58
59
59
58
58
58
57
57
57
57
56
55
54
52
50
48
46
44
43
42
41
39
38
35
33
30
26
23
20
18
16
14
13
12
10
8
6
4
1
-2
-4
-6
-8
-9
-9
-9
-9
-9
-9
-10
-10
-11
-11
-12
-13
-13
-14
-14
-14
-14
-14
-13
-13
-13
-13
-14
-14
-15
-16
-16
-17
-17
-17
-16
-16
-15
-14
-13
-12
-12
-12
-12
-13
-13
-14
-14
-15
-15
-16
-16
-16
-16
-16
-16
-16
-16
-17
-17
-17
-17
-17
-16
-16
-15
-14
-13
-13
-14
-15
-16
-17
-19
-20
-20
-20
-20
-19
-18
-18
-18
-18
-17
-17
-17
-16
-16
-16
-16
-16
-17
-18
-20
-21
-21
-21
-20
-20
-18
-17
-16
-16
-15
-15
-15
-15
-15
-15
-15
-14
-14
-13
-13
-12
-11
-10
-8
-7
-6
-4
-4
-3
-3
-3
-4
-5
-6
-7
-8
-9
-10
-10
-10
-10
-9
-7
-5
-4
-3
-3
-3
-5
-7
-10
-13
-16
-18
-19
-21
-21
-22
-22
-23
-23
-23
-23
-23
-22
-21
-19
-17
-16
-15
-15
-15
-15
-16
-18
-19
-21
-22
-24
-24
-25
-24
-21
-18
-12
-4
5
17
30
45
61
77
92
107
120
130
136
138
133
123
106
84
58
30
2
-24
-47
-64
-75
-80
-80
-75
-69
-61
-53
-46
-40
-36
-33
-31
-29
-28
-26
-24
-23
-22
-22
-22
-22
-23
-23
-23
-23
-22
-22
-20
-19
-18
-18
-17
-17
-17
-17
-17
-17
-17
-16
-16
-16
-15
-15
-14
-13
-11
-10
-8
-7
-5
-5
-5
-5
-5
-5
-5
-4
-3
-1
1
3
5
6
7
7
8
8
10
12
14
17
20
23
25
26
27
28
29
30
32
35
38
42
45
48
50
51
52
53
53
54
55
57
58
60
60
60
59
58
57
55
54
54
54
54
54
53
52
51
49
46
43
41
38
36
34
32
29
27
24
22
19
16
14
12
10
8
7
6
5
4
2
1
-1
-3
-6
-8
-10
-12
-12
-13
-12
-11
-10
-10
-9
-10
-11
-12
-14
-15
-16
-16
-16
-14
-12
-10
-9
-8
-8
-9
-10
-12
-14
-15
-16
-15
-14
-13
-12
-11
-10
-10
-11
-12
-13
-14
-14
-14
-14
-13
-12
-11
-11
-11
-12
-13
-14
-15
-15
-15
-15
-14
-13
-12
-11
-11
-12
-13
-14
-15
-16
-17
-17
-16
-16
-15
-14
-14
-14
-14
-15
-15
-16
-16
-17
-17
-16
-16
-15
-14
-14
-14
-15
-15
-16
-17
-18
-19
-19
-18
-17
-16
-15
-15
-15
-15
-15
-16
-17
-18
-18
-18
-17
-16
-15
-13
-12
-11
-10
-9
-9
-9
-9
-9
-8
-7
-6
-5
-3
-2
-1
0
-1
-2
-4
-6
-8
-9
-9
-9
-7
-6
-4
-2
-1
-1
-1
-2
-4
-6
-8
-10
-11
-12
-14
-15
-16
-18
-19
-20
-21
-22
-22
-22
-21
-21
-20
-20
-20
-20
-20
-20
-20
-20
-20
-19
-18
-17
-17
-16
-16
-16
-16
-16
-14
-11
-6
2
13
26
41
59
77
95
112
127
138
144
144
138
126
108
85
59
31
4
-21
-42
-59
-69
-74
-75
-71
-65
-58
-50
-44
-38
-34
-31
-29
-28
-28
-28
-28
-28
-27
-27
-26
-25
-24
-23
-22
-20
-19
-18
-18
-18
-18
-18
-19
-19
-20
-20
-19
-18
-17
-15
-14
-13
-12
-12
-12
-13
-13
-13
-12
-11
-9
-8
-6
-4
-3
-2
-2
-2
-2
-1
0
1
3
5
7
9
11
12
12
13
13
14
16
18
21
24
27
30
32
35
36
38
40
41
43
45
47
50
52
55
57
59
60
61
61
61
61
61
61
60
60
60
59
59
58
57
56
55
53
50
48
46
43
41
38
36
34
31
29
27
25
22
20
18
15
13
11
9
7
6
4
3
2
1
1
0
-1
-2
-3
-4
-6
-8
-9
-10
-11
-11
-11
-11
-10
-10
-10
-10
-10
-11
-11
-12
-12
-12
-12
-12
-12
-12
-12
-12
-12
-12
-13
-13
-14
-16
-17
-17
-18
-17
-16
-15
-13
-11
-10
-9
-9
-10
-12
-14
-15
-17
-18
-18
-18
-17
-17
-16
-15
-15
-15
-14
-14
-14
-14
-14
-14
-14
-15
-15
-15
-15
-15
-15
-14
-14
-14
-15
-15
-16
-17
-18
-19
-19
-18
-18
-17
-17
-17
-17
-17
-17
-17
-17
-17
-17
-16
-16
-15
-15
-14
-14
-14
-14
-15
-16
-16
-17
-18
-18
-19
-19
-18
-18
-17
-17
-16
-16
-16
-16
-17
-17
-16
-16
-15
-14
-14
-13
-12
-12
-12
-11
-11
-11
-10
-9
-8
-6
-4
-2
-1
0
0
0
-1
-2
-4
-5
-6
-7
-7
-7
-6
-5
-4
-2
-1
-1
-1
-1
-2
-4
-6
-8
-10
-12
-13
-14
-15
-15
-15
-16
-17
-18
-19
-20
-21
-21
-21
-20
-18
-17
-16
-16
-17
-18
-20
-22
-24
-24
-24
-23
-21
-19
-16
-14
-11
-7
-2
4
14
26
41
58
76
94
112
127
138
144
146
142
132
117
96
72
45
17
-11
-35
-55
-69
-77
-79
-75
-68
-59
-50
-42
-36
-31
-29
-28
-28
-28
-27
-26
-24
-23
-21
-20
-20
-20
-20
-21
-21
-21
-21
-21
-20
-20
-19
-18
-18
-17
-16
-15
-14
-13
-12
-11
-10
-10
-9
-9
-8
-8
-8
-7
-7
-7
-6
-6
-5
-4
-3
-1
0
2
3
4
5
6
8
9
10
11
13
14
15
16
16
17
18
20
22
24
26
29
32
35
38
40
42
44
46
48
50
52
55
58
60
61
62
63
62
62
61
60
59
59
59
60
60
61
61
60
60
58
57
55
52
49
46
43
39
36
33
31
29
28
27
26
25
23
21
18
14
11
7
4
2
0
-2
-3
-4
-5
-6
-7
-7
-7
-7
-7
-6
-5
-5
-5
-6
-8
-10
-12
-13
-14
-14
-14
-13
-12
-10
-9
-9
-8
-9
-9
-10
-11
-11
-12
-12
-13
-13
-13
-13
-13
-13
-12
-11
-11
-10
-10
-10
-10
-11
-12
-13
-14
-15
-15
-15
-14
-12
-11
-9
-7
-7
-7
-8
-9
-11
-12
-14
-15
-15
-15
-14
-13
-13
-13
-14
-15
-17
-19
-20
-20
-20
-20
-18
-17
-16
-15
-14
-14
-15
-16
-16
-17
-17
-17
-17
-17
-17
-17
-17
-17
-17
-17
-16
-16
-16
-15
-16
-16
-17
-18
-19
-20
-20
-20
-19
-18
-18
-17
-17
-18
-18
-19
-20
-20
-20
-20
-20
-19
-18
-18
-17
-17
-17
-17
-16
-15
-14
-12
-11
-9
-8
-8
-8
-8
-9
-9
-10
-10
-9
-8
-7
-6
-4
-3
-1
-1
-1
-1
-2
-3
-4
-5
-6
-6
-5
-3
-2
0
1
2
2
1
-1
-3
-5
-8
-10
-12
-13
-13
-13
-13
-13
-14
-14
-15
-17
-18
-19
-20
-21
-21
-21
-21
-21
-22
-22
-22
-22
-22
-21
-20
-19
-18
-17
-17
-16
-16
-16
-14
-11
-6
2
14
27
44
62
80
99
116
131
143
151
154
150
140
124
103
77
48
18
-10
-36
-57
-72
-80
-84
-81
-76
-67
-58
-49
-41
-34
-30
-26
-25
-24
-25
-25
-26
-27
-27
-27
-26
-26
-25
-24
-24
-23
-23
-22
-22
-21
-20
-19
-18
-16
-15
-14
-13
-13
-13
-14
-14
-15
-15
-15
-14
-12
-10
-8
-5
-3
-2
-1
-1
-1
-1
-2
-2
-1
-1
1
2
3
4
5
6
7
8
9
11
13
16
19
22
24
25
26
27
28
28
30
32
35
38
42
46
49
52
54
55
55
56
56
57
58
60
61
63
64
64
64
62
60
58
56
54
53
52
52
52
51
50
49
46
44
40
37
34
32
29
27
26
23
21
18
15
12
9
6
4
2
1
1
1
1
0
0
-1
-2
-3
-5
-6
-7
-8
-9
-10
-11
-11
-12
-12
-12
-11
-10
-10
-9
-9
-9
-10
-12
-13
-14
-15
-16
-16
-15
-15
-14
-13
-13
-13
-13
-14
-15
-15
-15
-14
-13
-12
-11
-10
-11
-11
-12
-13
-15
-15
-16
-15
-15
-13
-12
-11
-10
-10
-10
-10
-11
-12
-13
-14
-15
-15
-16
-17
-17
-18
-18
-18
-17
-17
-17
-16
-16
-16
-16
-16
-16
-16
-16
-16
-16
-17
-17
-17
-17
-16
-16
-16
-16
-16
-17
-18
-19
-21
-22
-23
-23
-23
-21
-19
-18
-16
-15
-15
-15
-16
-18
-20
-21
-22
-23
-22
-22
-21
-20
-19
-18
-18
-19
-20
-21
-22
-23
-24
-24
-23
-22
-20
-18
-16
-15
-15
-15
-15
-16
-17
-18
-18
-17
-15
-13
-11
-9
-7
-7
-7
-8
-9
-9
-10
-10
-9
-7
-6
-4
-3
-3
-4
-5
-6
-7
-8
-8
-8
-6
-5
-2
-1
1
1
1
0
-2
-4
-7
-10
-12
-14
-15
-16
-17
-17
-18
-18
-18
-18
-18
-19
-20
-20
-21
-22
-23
-23
-23
-23
-22
-22
-21
-20
-20
-19
-19
-20
-20
-20
-21
-20
-18
-15
-10
-2
7
20
34
50
68
85
102
118
131
140
144
142
134
120
100
74
46
16
-13
-38
-59
-74
-83
-86
-83
-77
-68
-59
-50
-43
-37
-33
-31
-29
-29
-29
-28
-28
-27
-26
-25
-24
-23
-23
-22
-22
-22
-22
-22
-22
-22
-21
-21
-20
-19
-18
-17
-17
-16
-16
-15
-15
-15
-14
-14
-13
-13
-12
-12
-11
-11
-11
-10
-9
-8
-7
-6
-5
-4
-4
-3
-2
-2
-1
0
2
5
7
11
14
16
19
20
22
22
23
24
25
27
29
31
34
36
38
41
43
44
46
47
48
50
51
53
55
57
59
61
63
64
64
64
62
60
58
55
52
50
48
47
47
47
46
45
43
41
38
34
31
28
25
24
23
22
21
20
18
15
13
10
7
4
1
0
-2
-4
-5
-7
-9
-10
-12
-14
-14
-15
-14
-13
-12
-10
-9
-9
-9
-10
-12
-13
-15
-16
-16
-16
-15
-15
-13
-12
-11
-11
-10
-10
-11
-11
-12
-13
-14
-15
-15
-15
-15
-14
-14
-13
-13
-14
-14
-15
-16
-17
-17
-17
-16
-15
-14
-13
-12
-13
-14
-15
-15
-16
-15
-14
-12
-11
-9
-9
-9
-10
-12
-14
-16
-17
-17
-16
-16
-15
-14
-15
-15
-17
-18
-19
-20
-21
-20
-19
-19
-18
-17
-17
-17
-17
-18
-18
-17
-17
-16
-16
-15
-16
-16
-17
-18
-19
-19
-19
-19
-18
-17
-17
-17
-18
-19
-21
-22
-23
-23
-22
-21
-20
-18
-17
-15
-14
-14
-13
-13
-12
-12
-11
-11
-10
-10
-9
-9
-8
-7
-7
-6
-5
-5
-5
-5
-6
-6
-6
-7
-6
-6
-5
-3
-2
-2
-2
-2
-2
-3
-4
-4
-5
-5
-5
-5
-6
-7
-9
-11
-13
-15
-17
-18
-18
-18
-17
-16
-16
-16
-17
-18
-20
-22
-23
-24
-23
-22
-21
-19
-17
-15
-14
-14
-15
-16
-17
-18
-18
-16
-13
-8
-1
8
18
30
44
60
76
93
108
123
133
139
139
132
119
99
74
47
19
-8
-32
-50
-64
-72
-75
-74
-70
-65
-58
-51
-44
-37
-31
-27
-23
-20
-19
-18
-19
-19
-20
-21
-21
-20
-19
-18
-16
-15
-15
-14
-14
-14
-14
-14
-14
-14
-14
-14
-13
-13
-12
-11
-10
-8
-6
-4
-2
-1
0
1
0
0
-1
-1
-1
0
1
2
4
5
7
8
8
8
9
9
11
12
14
17
19
22
24
25
26
27
28
29
31
34
37
41
46
50
53
56
58
59
59
58
58
58
58
59
61
64
66
70
72
75
76
77
76
75
73
70
68
65
63
61
60
59
58
57
56
54
52
49
45
41
37
34
30
28
26
25
24
24
23
22
20
18
15
12
8
5
2
0
-1
-2
-2
-2
-1
-1
-1
-2
-2
-2
-2
-2
-2
-2
-2
-2
-3
-4
-5
-7
-8
-9
-9
-9
-8
-6
-5
-4
-2
-2
-2
-2
-3
-3
-4
-4
-5
-5
-5
-5
-4
-4
-3
-3
-3
-3
-3
-4
-4
-5
-6
-6
-7
-7
-6
-5
-4
-3
-2
-2
-2
-2
-4
-5
-7
-8
-9
-9
-9
-8
-8
-7
-6
-6
-7
-7
-8
-9
-10
-11
-12
-11
-11
-10
-9
-7
-6
-5
-5
-5
-6
-6
-7
-9
-10
-10
-11
-10
-10
-9
-8
-8
-7
-7
-8
-9
-10
-11
-12
-13
-13
-13
-12
-10
-9
-7
-6
-5
-4
-4
-4
-4
-4
-4
-4
-4
-3
-2
-1
1
2
3
3
4
4
4
4
4
4
3
2
2
1
1
0
0
1
2
3
5
6
7
7
6
4
2
-1
-4
-7
-9
-11
-12
-13
-13
-14
-14
-14
-13
-13
-13
-12
-11
-11
-11
-11
-11
-12
-13
-15
-15
-16
-15
-15
-14
-13
-12
-11
-11
-10
-8
-4
2
11
22
36
52
70
88
105
120
132
141
146
145
140
129
113
92
67
40
12
-15
-38
-57
-69
-76
-77
-73
-66
-57
-48
-40
-34
-30
-27
-26
-25
-25
-24
-23
-22
-20
-19
-17
-16
-16
-15
-15
-15
-14
-14
-13
-13
-12
-12
-12
-12
-12
-12
-12
-11
-11
-11
-10
-10
-10
-10
-9
-9
-8
-7
-5
-3
-2
-1
0
1
0
0
0
-1
-1
-1
0
1
2
3
4
5
7
8
10
11
14
16
19
21
24
26
27
29
30
31
32
34
37
40
44
47
50
53
56
58
59
60
60
60
61
61
61
61
61
61
60
60
60
59
59
59
58
58
57
56
54
51
48
44
41
37
33
31
28
26
24
23
21
19
17
14
11
9
6
4
1
0
-2
-3
-4
-5
-6
-7
-8
-10
-11
-13
-15
-16
-18
-19
-19
-19
-19
-19
-18
-18
-18
-18
-18
-19
-20
-21
-21
-21
-21
-21
-20
-20
-20
-20
-20
-20
-21
-21
-21
-22
-22
-22
-22
-22
-22
-22
-22
-22
-22
-22
-21
-21
-21
-21
-22
-23
-25
-26
-27
-27
-26
-25
-23
-21
-20
-19
-19
-20
-21
-24
-26
-27
-29
-29
-29
-29
-28
-27
-26
-26
-25
-25
-25
-26
-26
-27
-28
-29
-30
-32
-32
-33
-33
-33
-32
-31
-30
-29
-28
-28
-28
-28
-29
-30
-31
-32
-33
-34
-34
-34
-34
-33
-32
-31
-31
-31
-31
-32
-32
-32
-32
-32
-30
-29
-27
-25
-23
-22
-21
-22
-22
-22
-23
-23
-23
-23
-22
-22
-21
-21
-20
-20
-20
-20
-20
-20
-20
-20
-21
-21
-21
-21
-21
-20
-19
-18
-17
-17
-18
-20
-23
-26
-29
-32
-34
-35
-35
-35
-34
-34
-34
-35
-38
-40
-43
-45
-46
-46
-46
-44
-42
-41
-40
-40
-41
-42
-44
-46
-48
-48
-48
-47
-45
-42
-39
-36
-31
-25
-17
-6
7
22
40
59
78
96
111
121
127
125
118
104
84
59
32
2
-27
-55
-78
-97
-110
-118
-119
-116
-109
-100
-90
-81
-74
-68
-64
-62
-62
-62
-62
-62
-62
-62
-62
-62
-62
-62
-62
-63
-63
-63
-62
-62
-62
-61
-61
-61
-60
-60
-59
-58
-57
-56
-55
-54
-54
-54
-54
-55
-55
-55
-55
-55
-54
-53
-52
-51
-49
-48
-47
-47
-47
-47
-48
-50
-51
-52
-51
-48
-44
-38
-31
-23
-17
-11
-8
-6
-7
-9
-11
-13
-13
-12
-10
-6
-2
2
7
11
15
19
24
30
37
45
53
60
65
69
71
71
70
69
68
69
71
75
80
85
90
93
93
92
88
83
78
72
68
64
60
58
56
54
53
52
52
52
54
55
57
59
58
56
52
46
39
30
23
16
11
7
6
5
5
5
4
3
1
-1
-3
-5
-7
-7
-8
-8
-9
-9
-10
-12
-13
-14
-14
-14
-14
-13
-13
-13
-13
-13
-13
-14
-14
-14
-13
-13
-13
-13
-13
-12
-11
-9
-6
-1
4
9
13
16
18
18
16
13
10
8
7
7
9
11
14
17
19
19
18
16
12
9
6
4
3
2
2
2
2
2
1
0
0
-1
-2
-2
-2
-2
-2
-1
-1
0
1
1
1
1
1
0
-1
-1
-1
-1
1
3
5
8
10
12
13
13
12
10
8
6
5
4
3
4
5
6
8
9
11
13
14
15
16
16
17
17
17
17
18
20
22
25
28
31
33
35
35
35
34
32
31
29
29
29
30
31
32
32
33
32
32
30
29
27
26
24
22
21
19
18
17
16
16
16
17
18
20
21
22
23
22
21
19
17
15
13
12
11
10
11
12
13
14
15
16
17
17
16
16
15
15
16
18
22
29
37
48
61
76
92
109
127
143
158
170
177
180
177
167
150
127
100
69
38
7
-20
-43
-59
-70
-74
-73
-68
-61
-52
-43
-35
-29
-25
-22
-21
-21
-20
-20
-20
-18
-17
-15
-14
-13
-13
-14
-15
-16
-17
-17
-15
-12
-7
-2
3
7
10
12
12
12
10
8
7
6
6
7
8
9
9
10
9
9
8
7
7
7
7
8
8
9
9
9
9
9
9
8
8
8
8
8
9
9
9
10
11
12
14
17
20
24
28
33
38
42
46
50
52
54
55
56
56
57
58
59
61
64
66
68
70
71
70
69
66
63
59
55
52
49
47
46
46
46
45
44
41
38
33
28
22
17
13
11
10
11
12
13
15
14
13
10
5
0
-5
-9
-12
-15
-15
-16
-15
-15
-16
-17
-19
-21
-23
-25
-26
-27
-28
-28
-27
-27
-27
-27
-27
-27
-26
-26
-26
-26
-26
-26
-27
-27
-27
-27
-26
-25
-23
-22
-20
-19
-18
-18
-18
-18
-19
-19
-19
-18
-17
-16
-15
-15
-15
-15
-16
-18
-19
-20
-20
-20
-20
-19
-18
-18
-18
-18
-19
-20
-20
-20
-20
-19
-17
-15
-14
-12
-12
-12
-13
-14
-17
-19
-21
-23
-25
-27
-29
-30
-31
-32
-32
-32
-31
-29
-28
-26
-25
-24
-24
-24
-24
-24
-25
-25
-25
-25
-24
-23
-23
-22
-21
-20
-18
-17
-15
-14
-12
-11
-10
-9
-9
-9
-9
-10
-10
-10
-10
-10
-9
-9
-9
-8
-8
-9
-9
-9
-10
-10
-10
-10
-10
-9
-9
-8
-7
-6
-6
-5
-5
-5
-6
-7
-9
-11
-13
-15
-17
-19
-20
-22
-23
-23
-24
-24
-24
-24
-24
-24
-24
-23
-23
-23
-22
-21
-20
-18
-15
-12
-10
-7
-6
-5
-6
-6
-6
-6
-3
2
11
22
37
54
73
92
111
127
141
150
154
151
142
127
106
79
50
19
-10
-37
-58
-72
-80
-81
-77
-69
-59
-49
-39
-31
-26
-22
-20
-19
-19
-18
-18
-17
-16
-15
-14
-13
-12
-12
-11
-11
-11
-11
-11
-10
-10
-10
-9
-9
-9
-9
-10
-10
-10
-10
-10
-9
-7
-6
-5
-3
-3
-3
-3
-4
-4
-4
-4
-3
-2
0
1
2
3
4
5
6
8
9
11
14
16
18
20
22
23
24
25
26
28
30
33
36
39
42
44
47
49
50
52
55
57
59
62
64
66
68
69
69
69
69
68
67
67
67
67
67
67
67
66
65
63
60
58
55
53
50
48
46
44
41
38
35
31
27
23
19
15
12
9
6
3
0
-2
-5
-8
-10
-12
-14
-16
-17
-18
-19
-20
-22
-23
-24
-25
-26
-27
-27
-27
-27
-27
-27
-28
-28
-29
-30
-31
-32
-33
-33
-32
-32
-32
-32
-32
-32
-33
-34
-34
-34
-34
-34
-33
-32
-32
-31
-31
-31
-32
-33
-33
-33
-33
-33
-32
-31
-31
-31
-31
-32
-33
-34
-35
-36
-37
-37
-38
-38
-38
-37
-37
-37
-36
-36
-36
-36
-36
-36
-37
-38
-39
-39
-40
-40
-39
-38
-37
-36
-36
-36
-36
-37
-38
-39
-39
-40
-39
-39
-39
-38
-38
-37
-37
-37
-36
-36
-36
-35
-35
-35
-34
-34
-34
-33
-33
-32
-32
-31
-30
-29
-29
-28
-27
-27
-26
-25
-25
-24
-24
-24
-25
-26
-27
-28
-29
-30
-30
-29
-27
-25
-23
-22
-21
-21
-21
-23
-26
-28
-31
-34
-36
-38
-39
-39
-39
-39
-39
-38
-37
-37
-36
-35
-35
-35
-35
-36
-37
-38
-39
-40
-40
-39
-38
-37
-35
-34
-32
-31
-29
-27
-23
-17
-10
1
13
28
44
61
78
93
106
116
122
124
119
109
93
71
45
16
-13
-41
-66
-85
-97
-103
-102
-96
-87
-75
-64
-55
-47
-41
-38
-36
-34
-33
-32
-31
-30
-29
-29
-30
-30
-31
-32
-33
-33
-32
-31
-29
-27
-26
-24
-23
-23
-23
-23
-23
-22
-22
-21
-21
-20
-19
-18
-18
-17
-16
-15
-15
-14
-14
-13
-13
-12
-11
-10
-9
-7
-5
-3
-1
0
1
2
2
3
5
7
9
12
15
17
19
20
20
21
21
22
24
27
30
34
39
43
47
50
52
53
54
55
56
57
58
60
61
63
65
66
66
66
65
64
63
62
61
60
59
59
58
57
56
53
51
47
43
39
36
33
31
29
28
27
25
23
21
18
16
13
11
10
8
7
7
6
4
3
1
-1
-3
-4
-5
-5
-5
-5
-5
-4
-4
-3
-3
-3
-2
-2
-1
-2
-2
-3
-5
-6
-7
-8
-8
-7
-5
-3
-1
1
1
1
-1
-3
-5
-7
-8
-9
-8
-7
-5
-3
-1
0
1
1
1
0
-1
-1
-2
-3
-4
-6
-7
-8
-8
-8
-8
-7
-5
-3
-2
-1
-1
-1
-3
-4
-5
-6
-7
-6
-4
-3
-1
0
1
0
-1
-4
-6
-8
-9
-9
-8
-7
-5
-3
-3
-2
-3
-4
-6
-7
-8
-9
-8
-8
-7
-6
-6
-6
-5
-5
-4
-3
-2
0
1
2
3
4
3
3
3
3
3
4
5
6
8
8
9
9
9
8
8
8
9
9
10
11
11
11
11
11
10
10
10
9
9
8
7
5
3
0
-2
-5
-7
-8
-9
-9
-9
-9
-8
-8
-8
-9
-9
-9
-10
-9
-9
-8
-8
-7
-6
-6
-6
-6
-7
-8
-8
-9
-8
-7
-4
0
5
13
23
36
50
66
84
102
119
136
149
158
162
161
152
138
117
92
64
35
7
-19
-40
-55
-65
-69
-69
-65
-58
-51
-43
-36
-30
-24
-20
-17
-15
-13
-13
-13
-13
-13
-14
-15
-15
-14
-14
-13
-11
-10
-10
-9
-10
-10
-11
-12
-12
-12
-11
-10
-8
-7
-5
-4
-3
-2
-2
-2
-2
-2
-2
-1
-1
0
0
0
1
1
2
3
4
5
7
9
10
11
12
13
14
14
15
17
18
21
23
26
29
31
33
35
37
38
39
41
42
44
46
48
50
52
55
57
59
61
63
64
65
66
67
67
68
68
69
69
69
68
67
65
63
60
57
54
52
50
49
49
48
47
46
44
41
38
34
30
27
23
20
18
16
14
12
10
8
6
4
3
1
0
-1
-3
-4
-4
-5
-6
-7
-8
-9
-9
-10
-10
-11
-11
-12
-13
-14
-14
-14
-14
-13
-12
-12
-11
-10
-10
-11
-11
-12
-12
-13
-13
-12
-12
-12
-13
-14
-15
-16
-17
-18
-18
-18
-17
-16
-14
-13
-13
-13
-14
-14
-15
-16
-16
-16
-16
-15
-14
-14
-14
-14
-15
-16
-17
-18
-19
-20
-20
-21
-21
-21
-21
-21
-20
-20
-20
-20
-20
-20
-21
-22
-23
-24
-25
-25
-25
-24
-23
-22
-21
-20
-20
-20
-21
-22
-23
-24
-24
-25
-25
-25
-25
-26
-26
-26
-25
-24
-23
-22
-20
-19
-18
-17
-17
-17
-18
-19
-20
-21
-21
-21
-19
-18
-15
-13
-11
-10
-9
-9
-9
-10
-10
-11
-11
-10
-9
-9
-8
-7
-7
-7
-7
-7
-7
-6
-6
-6
-5
-5
-6
-7
-9
-12
-14
-17
-19
-21
-23
-24
-24
-25
-25
-25
-26
-26
-27
-27
-27
-27
-27
-27
-27
-27
-27
-27
-27
-27
-26
-25
-25
-25
-25
-26
-27
-27
-26
-24
-19
-11
0
14
30
47
66
84
102
118
131
142
148
149
144
133
115
91
62
31
0
-29
-53
-72
-84
-90
-89
-85
-78
-70
-62
-55
-49
-44
-40
-37
-35
-33
-33
-33
-33
-35
-36
-37
-37
-37
-35
-33
-30
-28
-26
-24
-24
-24
-25
-27
-27
-28
-27
-26
-24
-22
-21
-19
-19
-18
-18
-18
-18
-17
-17
-16
-14
-13
-12
-11
-10
-10
-9
-9
-8
-8
-7
-5
-4
-3
-2
-1
0
1
2
3
4
5
7
10
12
16
19
23
27
30
33
35
37
38
38
39
39
40
42
44
47
50
53
56
58
59
59
59
58
57
56
55
55
55
56
56
55
54
52
50
48
46
43
41
39
38
36
34
32
30
28
25
22
20
17
14
12
9
6
4
1
-1
-3
-4
-6
-7
-8
-9
-10
-11
-12
-13
-13
-14
-14
-13
-13
-12
-12
-13
-13
-14
-15
-16
-16
-17
-17
-16
-16
-16
-16
-17
-17
-17
-18
-18
-17
-16
-15
-14
-12
-12
-12
-13
-14
-16
-18
-19
-20
-21
-20
-19
-18
-17
-16
-16
-16
-17
-18
-19
-20
-20
-20
-20
-19
-18
-18
-17
-17
-18
-18
-18
-19
-19
-18
-18
-17
-17
-17
-17
-17
-17
-18
-19
-19
-19
-18
-18
-16
-15
-14
-13
-13
-14
-15
-17
-19
-21
-22
-22
-22
-21
-20
-19
-18
-17
-17
-18
-18
-19
-19
-19
-19
-19
-18
-18
-18
-17
-17
-17
-17
-17
-17
-17
-17
-17
-17
-17
-17
-16
-16
-15
-14
-13
-12
-11
-10
-9
-8
-7
-7
-6
-5
-4
-3
-2
-1
-1
0
0
0
0
-1
-1
-2
-3
-3
-3
-3
-2
-1
1
3
4
5
4
3
0
-3
-7
-11
-14
-16
-17
-17
-16
-15
-14
-14
-14
-15
-16
-17
-18
-18
-18
-17
-16
-15
-14
-15
-16
-17
-18
-20
-20
-20
-20
-19
-19
-18
-17
-16
-15
-12
-7
-1
9
21
35
52
69
88
106
123
138
149
156
157
152
139
119
94
64
32
1
-28
-51
-69
-80
-84
-83
-77
-69
-61
-52
-45
-39
-34
-30
-28
-25
-23
-21
-20
-19
-19
-19
-19
-20
-20
-21
-20
-20
-19
-17
-16
-15
-15
-14
-14
-15
-15
-16
-16
-17
-16
-16
-15
-14
-12
-11
-9
-8
-7
-6
-7
-7
-8
-8
-7
-5
-3
0
4
6
9
10
10
9
8
7
6
6
8
10
13
15
18
20
21
22
23
24
25
27
30
33
36
39
42
44
46
47
48
50
52
54
57
59
61
63
65
65
65
65
64
63
63
62
61
60
60
58
57
55
54
52
50
49
48
47
46
44
42
40
37
34
30
27
24
21
19
17
15
14
12
10
8
5
3
1
-1
-2
-3
-3
-3
-3
-3
-3
-4
-5
-7
-8
-9
-10
-10
-10
-9
-9
-8
-7
-7
-8
-8
-9
-10
-11
-11
-11
-11
-11
-11
-11
-11
-11
-11
-12
-12
-12
-12
-12
-11
-11
-10
-10
-10
-10
-10
-11
-12
-12
-13
-14
-14
-15
-14
-14
-13
-13
-12
-12
-12
-12
-13
-13
-14
-14
-15
-15
-14
-14
-14
-14
-14
-14
-15
-16
-16
-17
-18
-18
-19
-19
-19
-19
-19
-18
-17
-17
-16
-16
-16
-16
-16
-17
-18
-18
-18
-19
-18
-18
-18
-17
-16
-16
-16
-15
-16
-16
-16
-17
-17
-18
-19
-20
-20
-21
-21
-21
-20
-20
-18
-17
-16
-15
-14
-14
-14
-14
-14
-14
-13
-12
-10
-8
-6
-4
-3
-2
-2
-3
-4
-6
-7
-8
-9
-9
-9
-9
-8
-8
-8
-7
-7
-6
-5
-5
-4
-4
-4
-5
-7
-9
-11
-13
-16
-17
-19
-20
-20
-21
-21
-21
-22
-22
-22
-22
-22
-21
-20
-19
-19
-19
-20
-21
-23
-24
-25
-26
-26
-25
-24
-23
-22
-20
-18
-15
-10
-4
4
14
26
41
57
75
93
109
124
134
140
141
134
121
102
77
49
20
-8
-34
-56
-71
-82
-86
-86
-81
-74
-66
-57
-49
-42
-36
-31
-28
-26
-25
-25
-26
-26
-26
-26
-26
-25
-24
-24
-23
-23
-23
-23
-23
-23
-22
-21
-20
-19
-17
-16
-16
-16
-16
-16
-16
-15
-14
-13
-11
-10
-8
-8
-8
-9
-9
-10
-10
-9
-8
-6
-4
-2
0
1
2
2
2
3
4
5
7
8
10
12
13
15
15
16
17
18
20
23
26
30
34
37
40
42
44
45
46
47
49
51
53
56
59
61
63
64
64
63
63
62
61
60
60
60
60
59
59
58
56
54
52
49
46
43
40
38
35
33
31
29
27
25
23
20
18
15
13
10
9
7
6
5
5
3
2
0
-2
-5
-7
-9
-10
-11
-11
-10
-10
-10
-10
-10
-11
-12
-13
-14
-14
-15
-15
-15
-15
-15
-14
-14
-13
-12
-10
-9
-7
-6
-5
-4
-5
-6
-7
-9
-11
-13
-14
-15
-14
-13
-12
-11
-10
-9
-9
-10
-11
-12
-13
-14
-14
-14
-14
-14
-13
-14
-14
-15
-16
-16
-16
-16
-15
-13
-12
-11
-10
-10
-11
-13
-15
-16
-18
-19
-19
-19
-18
-17
-16
-15
-14
-14
-14
-14
-14
-14
-14
-13
-13
-14
-15
-16
-17
-18
-19
-19
-19
-18
-18
-17
-16
-16
-17
-17
-17
-18
-18
-17
-17
-16
-15
-15
-15
-15
-16
-16
-15
-15
-13
-12
-10
-9
-7
-7
-6
-6
-6
-7
-7
-6
-5
-5
-4
-3
-2
-1
-1
-1
-1
-1
-1
-1
-2
-2
-3
-3
-3
-4
-3
-3
-2
-2
-1
-1
-2
-4
-6
-9
-12
-15
-18
-19
-20
-21
-21
-21
-21
-21
-22
-22
-22
-22
-21
-20
-20
-19
-18
-18
-18
-18
-18
-18
-19
-19
-18
-18
-17
-17
-15
-13
-9
-3
6
17
30
45
62
80
97
113
126
136
141
141
135
122
104
81
55
26
-2
-27
-48
-64
-74
-79
-78
-74
-68
-60
-53
-47
-42
-37
-34
-30
-27
-25
-22
-20
-20
-19
-20
-21
-23
-24
-25
-25
-24
-23
-21
-20
-19
-18
-17
-17
-17
-17
-17
-16
-16
-15
-14
-14
-13
-13
-13
-12
-12
-11
-10
-9
-9
-8
-7
-6
-6
-5
-5
-4
-4
-3
-2
-1
0
1
2
4
5
6
8
9
11
12
14
16
18
20
22
24
27
29
31
33
35
37
39
41
44
46
48
50
53
54
56
57
57
58
58
59
59
61
62
63
64
64
63
62
59
57
54
52
50
48
48
47
46
45
43
40
37
33
29
26
23
21
19
18
17
16
15
13
11
9
7
5
4
2
1
-1
-2
-4
-5
-7
-8
-8
-8
-8
-7
-7
-7
-7
-8
-10
-11
-12
-13
-13
-13
-12
-11
-10
-9
-9
-10
-11
-13
-14
-14
-14
-13
-12
-11
-10
-9
-9
-10
-10
-11
-12
-13
-13
-13
-13
-13
-12
-12
-12
-12
-11
-11
-11
-10
-10
-10
-10
-10
-11
-12
-14
-15
-17
-18
-18
-18
-17
-17
-16
-15
-14
-14
-14
-14
-15
-15
-15
-15
-15
-14
-14
-13
-14
-14
-15
-15
-16
-17
-17
-17
-17
-17
-17
-17
-17
-17
-17
-18
-18
-18
-18
-18
-17
-17
-17
-17
-18
-18
-19
-19
-19
-18
-18
-17
-16
-15
-14
-14
-14
-15
-15
-16
-16
-16
-15
-14
-13
-11
-9
-8
-7
-6
-7
-7
-8
-9
-10
-10
-9
-8
-6
-4
-1
1
3
5
5
5
5
4
2
2
1
1
1
1
1
2
2
1
1
0
-1
-3
-5
-6
-8
-10
-12
-14
-16
-18
-19
-20
-21
-20
-20
-19
-17
-16
-16
-16
-17
-19
-20
-22
-22
-22
-21
-20
-17
-15
-13
-13
-13
-13
-15
-16
-17
-15
-12
-6
4
16
30
46
64
82
100
117
131
142
149
150
144
133
115
92
65
37
8
-18
-41
-58
-69
-75
-77
-74
-69
-63
-56
-49
-42
-36
-30
-25
-21
-18
-16
-16
-16
-18
-20
-23
-25
-27
-28
-27
-26
-24
-22
-20
-19
-18
-17
-16
-16
-16
-16
-16
-15
-15
-14
-14
-13
-13
-12
-12
-12
-11
-11
-10
-9
-8
-7
-6
-5
-5
-4
-4
-4
-3
-2
-1
0
2
4
6
8
9
9
10
11
11
12
14
16
18
20
23
25
26
28
30
32
34
36
39
42
45
48
50
52
53
54
54
55
56
58
60
61
63
64
64
64
63
63
62
61
61
61
60
60
58
56
53
50
47
44
41
39
36
35
33
30
28
25
22
19
16
14
12
11
11
10
9
8
6
4
1
-2
-4
-6
-8
-9
-9
-9
-9
-8
-9
-9
-9
-10
-10
-11
-10
-10
-10
-9
-9
-9
-9
-9
-10
-10
-11
-11
-10
-10
-10
-9
-9
-9
-9
-9
-9
-9
-8
-8
-8
-8
-8
-8
-8
-9
-9
-10
-10
-11
-11
-11
-11
-11
-11
-11
-11
-11
-10
-10
-10
-9
-9
-9
-9
-9
-9
-9
-9
-9
-9
-10
-10
-10
-10
-9
-9
-8
-7
-6
-6
-7
-8
-10
-12
-14
-16
-18
-19
-19
-18
-17
-15
-14
-13
-11
-10
