-5
-5
-6
-6
-5
-5
-4
-3
-2
-2
-3
-4
-5
-6
-7
-7
-6
-5
-4
-4
-3
-3
-4
-4
-5
-6
-7
-7
-7
-7
-7
-6
-6
-6
-6
-6
-6
-6
-6
-6
-6
-6
-7
-7
-7
-7
-7
-7
-6
-6
-6
-6
-7
-7
-8
-8
-8
-9
-8
-8
-8
-8
-8
-8
-9
-10
-11
-11
-12
-12
-12
-11
-10
-9
-8
-8
-8
-8
-9
-10
-11
-12
-12
-12
-13
-13
-13
-13
-13
-13
-13
-13
-13
-13
-13
-13
-14
-14
-14
-14
-14
-14
-14
-13
-13
-13
-13
-13
-13
-14
-14
-15
-15
-15
-16
-16
-16
-16
-15
-14
-13
-11
-10
-9
-8
-8
-8
-8
-8
-8
-7
-5
-4
-1
1
3
4
4
4
4
3
2
1
1
1
2
2
2
1
0
-1
-3
-4
-5
-6
-6
-6
-6
-6
-6
-7
-8
-10
-13
-16
-18
-20
-21
-22
-22
-22
-21
-20
-20
-19
-19
-19
-19
-19
-19
-19
-20
-20
-20
-20
-20
-20
-19
-17
-15
-10
-5
4
14
28
44
63
83
103
123
139
152
158
158
150
135
114
88
60
30
3
-22
-41
-54
-62
-64
-62
-56
-49
-42
-34
-28
-22
-18
-15
-14
-13
-12
-13
-13
-13
-14
-14
-14
-13
-12
-12
-11
-10
-10
-11
-12
-13
-14
-14
-14
-13
-12
-10
-8
-6
-5
-4
-4
-4
-5
-5
-6
-6
-5
-4
-3
-2
0
1
1
2
1
1
1
0
0
1
2
3
5
7
10
11
13
13
14
13
13
13
13
14
16
18
21
24
27
30
32
33
34
34
35
36
38
40
43
47
50
54
57
59
61
62
63
64
65
66
67
69
71
73
75
76
77
77
76
76
75
74
73
72
71
69
68
66
64
61
58
55
52
48
45
42
39
36
32
28
24
19
15
10
7
4
2
2
2
2
2
2
0
-2
-5
-8
-11
-13
-14
-14
-13
-11
-10
-9
-8
-8
-10
-11
-13
-14
-15
-15
-15
-15
-15
-15
-16
-16
-17
-17
-17
-16
-14
-13
-12
-11
-12
-13
-14
-16
-18
-19
-18
-17
-15
-13
-12
-11
-12
-13
-15
-18
-19
-20
-20
-19
-16
-14
-12
-10
-10
-11
-12
-14
-16
-18
-19
-19
-19
-18
-16
-15
-14
-13
-13
-13
-13
-13
-14
-15
-15
-16
-17
-17
-18
-18
-18
-18
-18
-19
-19
-19
-19
-19
-19
-18
-18
-18
-18
-18
-19
-19
-20
-21
-22
-22
-21
-21
-20
-19
-18
-18
-18
-19
-20
-22
-23
-23
-23
-23
-22
-21
-20
-20
-19
-19
-20
-20
-21
-21
-22
-23
-24
-24
-25
-25
-25
-25
-24
-23
-23
-22
-22
-21
-21
-22
-22
-22
-21
-21
-20
-19
-18
-18
-17
-17
-17
-18
-18
-19
-19
-18
-17
-16
-15
-14
-12
-11
-10
-9
-8
-7
-7
-6
-5
-4
-3
-2
-2
-1
-1
-1
-2
-3
-4
-6
-7
-8
-8
-9
-9
-10
-11
-12
-14
-17
-19
-21
-23
-24
-24
-24
-24
-24
-24
-24
-24
-24
-25
-26
-26
-26
-27
-27
-27
-27
-27
-27
-27
-27
-27
-26
-25
-24
-23
-20
-17
-12
-5
5
18
34
53
73
94
113
130
143
151
153
148
136
117
94
66
36
6
-21
-44
-61
-71
-75
-72
-65
-55
-44
-35
-28
-23
-20
-19
-19
-19
-19
-18
-17
-17
-17
-17
-18
-19
-20
-20
-20
-18
-16
-14
-13
-12
-12
-13
-15
-17
-19
-20
-20
-18
-16
-13
-10
-8
-7
-6
-7
-8
-9
-9
-9
-8
-7
-5
-4
-3
-2
-2
-3
-3
-2
-1
0
2
5
7
9
10
10
10
10
9
9
10
12
14
17
19
21
22
23
24
25
26
28
30
33
36
39
41
43
45
46
48
49
50
52
55
57
60
63
66
68
70
71
71
72
72
73
73
74
75
75
75
75
74
73
71
68
65
63
60
58
56
54
51
47
43
38
33
27
22
18
15
13
12
11
11
9
7
5
1
-2
-6
-9
-11
-12
-12
-11
-11
-11
-11
-11
-12
-13
-15
-16
-17
-17
-17
-17
-17
-17
-18
-18
-19
-20
-20
-20
-20
-19
-19
-18
-18
-18
-19
-19
-20
-19
-19
-17
-16
-14
-13
-12
-12
-13
-15
-16
-17
-18
-19
-19
-18
-17
-16
-16
-16
-16
-16
-16
-16
-16
-15
-14
-13
-12
-13
-13
-15
-16
-18
-19
-20
-20
-19
-18
-17
-16
-15
-15
-15
-15
-16
-16
-17
-16
-16
-16
-16
-16
-16
-16
-16
-16
-16
-16
-16
-16
-15
-15
-15
-16
-16
-17
-19
-20
-21
-22
-22
-22
-22
-21
-20
-20
-19
-18
-17
-17
-17
-17
-18
-18
-19
-19
-19
-20
-20
-21
-21
-22
-23
-23
-24
-24
-24
-23
-22
-20
-19
-17
-16
-15
-15
-15
-15
-16
-17
-18
-19
-19
-20
-20
-19
-19
-18
-16
-15
-14
-13
-12
-12
-12
-13
-13
-14
-14
-13
-12
-11
-9
-6
-4
-2
-1
0
0
0
0
0
-1
-1
-1
-1
-1
-1
-1
-2
-2
-3
-5
-6
-7
-9
-11
-12
-14
-16
-17
-19
-21
-22
-24
-24
-25
-25
-25
-24
-24
-24
-23
-24
-24
-24
-25
-25
-25
-25
-24
-23
-22
-22
-21
-21
-21
-20
-19
-16
-11
-4
5
18
34
53
74
95
116
135
150
160
164
160
149
132
108
80
49
19
-9
-32
-50
-61
-66
-65
-60
-53
-44
-36
-29
-24
-20
-18
-17
-16
-16
-15
-14
-14
-13
-13
-13
-13
-14
-15
-15
-16
-16
-16
-15
-14
-14
-13
-12
-11
-11
-11
-11
-11
-11
-10
-10
-10
-9
-8
-6
-5
-4
-2
-1
-1
0
0
-1
-1
-2
-2
-2
-1
0
1
3
5
7
9
11
12
13
13
13
12
12
12
13
14
16
18
21
23
26
28
30
31
33
34
35
36
38
40
43
45
48
50
52
53
55
57
59
61
63
66
69
72
74
75
76
76
75
75
74
73
73
73
74
74
73
72
70
67
64
60
57
54
51
48
46
43
40
36
32
27
21
17
13
10
7
6
5
4
2
1
-2
-4
-6
-8
-9
-10
-10
-9
-9
-9
-9
-10
-11
-13
-14
-15
-16
-16
-17
-17
-17
-17
-17
-17
-17
-17
-17
-16
-16
-16
-15
-16
-16
-17
-18
-20
-20
-21
-20
-20
-18
-17
-16
-15
-14
-13
-14
-14
-15
-15
-16
-16
-16
-16
-15
-15
-14
-14
-13
-13
-13
-13
-13
-13
-14
-14
-15
-15
-15
-15
-16
-16
-16
-16
-17
-17
-17
-17
-18
-18
-18
-17
-17
-17
-17
-17
-16
-16
-17
-17
-18
-18
-19
-20
-20
-21
-21
-21
-21
-21
-21
-21
-21
-21
-21
-22
-22
-22
-23
-23
-24
-24
-25
-25
-25
-24
-24
-23
-22
-21
-20
-19
-19
-20
-21
-22
-23
-24
-24
-25
-24
-24
-23
-23
-23
-23
-23
-22
-22
-21
-20
-19
-18
-17
-16
-16
-16
-17
-17
-17
-17
-16
-15
-14
-12
-11
-9
-8
-7
-6
-6
-5
-5
-4
-3
-3
-3
-3
-3
-4
-5
-6
-7
-8
-10
-11
-12
-14
-15
-17
-19
-20
-22
-23
-24
-25
-26
-26
-26
-26
-26
-27
-27
-27
-27
-28
-28
-28
-28
-28
-28
-27
-27
-28
-28
-28
-29
-29
-29
-27
-25
-20
-14
-5
6
20
37
55
76
96
115
132
145
151
150
142
126
103
75
44
12
-17
-42
-61
-74
-80
-80
-76
-69
-60
-51
-43
-35
-30
-25
-22
-19
-18
-17
-17
-18
-19
-21
-22
-24
-24
-24
-24
-23
-22
-21
-20
-19
-19
-19
-19
-18
-18
-17
-16
-15
-14
-13
-12
-12
-12
-13
-13
-13
-13
-13
-12
-10
-9
-8
-7
-7
-6
-7
-7
-7
-6
-5
-4
-2
1
3
5
7
8
9
10
10
10
10
11
11
13
14
16
18
21
23
25
27
29
30
32
33
35
36
38
40
42
45
48
51
54
56
59
61
64
66
68
70
72
74
75
76
77
77
77
76
75
75
74
73
72
70
69
66
63
60
56
52
48
45
41
38
35
32
29
26
22
19
15
12
9
6
4
2
0
-2
-4
-6
-9
-11
-13
-14
-15
-15
-15
-14
-13
-13
-12
-12
-13
-14
-15
-16
-17
-18
-18
-18
-18
-19
-19
-19
-19
-19
-19
-19
-19
-18
-18
-18
-18
-19
-19
-19
-19
-19
-18
-17
-16
-15
-14
-14
-14
-14
-15
-17
-18
-18
-18
-18
-17
-16
-15
-15
-14
-14
-15
-15
-15
-15
-14
-12
-11
-9
-9
-9
-10
-12
-14
-17
-19
-20
-20
-19
-17
-15
-14
-13
-13
-14
-16
-18
-19
-20
-20
-19
-18
-16
-15
-15
-15
-15
-16
-17
-17
-18
-17
-17
-16
-15
-15
-16
-17
-18
-19
-20
-20
-20
-20
-19
-18
-17
-16
-16
-17
-18
-19
-20
-20
-21
-20
-20
-19
-19
-19
-19
-19
-19
-20
-21
-22
-22
-22
-22
-22
-21
-20
-20
-19
-18
-18
-18
-18
-19
-18
-18
-17
-16
-14
-12
-11
-9
-9
-9
-10
-10
-10
-10
-9
-6
-3
0
3
6
8
8
8
7
5
4
2
1
1
0
0
0
-1
-2
-3
-5
-6
-7
-8
-10
-11
-13
-15
-17
-19
-20
-22
-22
-23
-22
-21
-20
-19
-18
-17
-17
-17
-18
-18
-18
-19
-19
-19
-20
-20
-21
-21
-21
-21
-20
-18
-15
-10
-3
7
19
35
53
73
94
114
133
149
159
163
160
150
132
108
80
50
20
-7
-30
-47
-59
-64
-63
-59
-52
-44
-37
-30
-25
-21
-19
-17
-16
-15
-14
-14
-13
-12
-12
-12
-12
-12
-13
-13
-14
-14
-14
-14
-14
-14
-15
-15
-15
-15
-15
-14
-12
-10
-8
-5
-3
-2
-1
-1
-1
-1
-2
-3
-3
-3
-2
-1
-1
0
1
1
1
2
2
3
3
4
5
6
7
9
10
11
12
13
14
14
15
16
17
18
19
21
23
26
29
32
35
37
39
40
41
42
43
44
46
49
52
56
59
62
65
67
68
69
70
71
72
74
75
76
76
77
76
76
75
74
73
72
71
70
69
67
64
61
57
53
48
43
38
34
30
27
24
22
20
17
14
11
8
5
2
0
-2
-3
-4
-5
-5
-6
-7
-8
-10
-12
-13
-15
-16
-17
-18
-18
-18
-17
-17
-16
-16
-16
-16
-17
-18
-19
-19
-20
-20
-19
-19
-18
-17
-17
-17
-18
-18
-19
-19
-20
-19
-18
-17
-16
-15
-14
-14
-14
-14
-14
-15
-16
-16
-17
-17
-18
-18
-19
-19
-20
-20
-21
-21
-20
-19
-18
-17
-15
-14
-13
-12
-13
-14
-15
-17
-18
-19
-20
-20
-20
-20
-19
-19
-19
-20
-20
-20
-20
-19
-19
-18
-18
-17
-17
-18
-18
-19
-20
-20
-20
-21
-21
-21
-21
-21
-22
-22
-21
-21
-20
-19
-18
-18
-18
-18
-19
-20
-22
-23
-23
-23
-23
-22
-21
-21
-20
-21
-22
-23
-25
-26
-27
-27
-26
-26
-25
-24
-23
-23
-23
-23
-23
-24
-23
-23
-22
-22
-21
-20
-20
-20
-20
-20
-20
-19
-19
-18
-18
-18
-18
-18
-18
-18
-17
-16
-14
-12
-9
-7
-4
-3
-2
-2
-3
-3
-4
-5
-5
-4
-3
-3
-2
-2
-3
-4
-5
-6
-7
-8
-9
-10
-11
-11
-13
-14
-16
-18
-21
-23
-24
-25
-26
-26
-25
-24
-23
-21
-21
-20
-21
-22
-24
-26
-28
-29
-29
-29
-28
-26
-24
-23
-22
-21
-21
-20
-17
-13
-5
6
20
38
58
79
101
122
140
154
163
166
161
149
131
106
77
46
15
-13
-37
-54
-64
-67
-65
-59
-51
-43
-35
-29
-25
-23
-22
-21
-21
-20
-20
-19
-19
-19
-19
-20
-20
-21
-21
-20
-19
-18
-16
-15
-13
-12
-11
-11
-11
-11
-11
-12
-12
-12
-13
-12
-12
-11
-10
-8
-7
-5
-4
-3
-2
-2
-3
-3
-3
-3
-2
-1
0
2
3
4
5
5
6
6
7
8
10
11
13
15
17
18
19
20
21
22
24
26
28
31
33
35
36
37
37
37
38
39
41
44
48
52
56
59
62
65
66
67
68
68
69
69
70
71
72
73
74
75
75
76
75
75
74
73
72
70
68
65
62
58
53
49
45
40
36
33
30
27
24
22
19
17
14
11
8
5
3
1
-1
-2
-3
-4
-6
-7
-9
-10
-12
-13
-14
-15
-15
-15
-15
-15
-15
-15
-15
-15
-15
-15
-16
-17
-17
-18
-19
-20
-20
-20
-21
-20
-20
-19
-18
-17
-16
-15
-15
-14
-14
-15
-15
-16
-17
-18
-18
-19
-19
-18
-17
-16
-15
-15
-14
-14
-14
-15
-15
-16
-17
-18
-18
-18
-18
-17
-17
-16
-16
-16
-16
-16
-17
-16
-16
-16
-16
-16
-16
-16
-16
-16
-16
-16
-16
-17
-17
-18
-19
-20
-21
-21
-21
-20
-20
-19
-18
-18
-19
-20
-21
-22
-23
-24
-24
-24
-23
-21
-20
-19
-18
-18
-18
-19
-20
-20
-21
-21
-21
-21
-21
-20
-19
-19
-18
-18
-18
-18
-18
-19
-21
-22
-23
-24
-24
-24
-23
-22
-21
-19
-19
-18
-18
-18
-19
-19
-18
-17
-16
-15
-14
-13
-12
-12
-11
-11
-10
-8
-7
-6
-4
-3
-3
-2
-2
-3
-3
-3
-3
-3
-2
-2
-1
-1
-2
-3
-4
-5
-7
-9
-11
-12
-14
-15
-17
-18
-19
-20
-21
-21
-22
-23
-24
-25
-25
-26
-26
-25
-25
-25
-24
-24
-24
-24
-25
-25
-26
-26
-26
-26
-25
-24
-23
-21
-19
-15
-10
-2
9
23
39
59
80
102
123
141
155
162
163
156
140
118
90
59
28
-2
-28
-48
-62
-69
-71
-67
-61
-53
-45
-38
-33
-29
-26
-24
-23
-21
-20
-18
-17
-16
-16
-16
-17
-18
-19
-20
-20
-20
-19
-18
-17
-16
-16
-15
-15
-15
-15
-16
-15
-15
-14
-13
-12
-11
-10
-10
-10
-10
-10
-10
-10
-10
-9
-8
-7
-5
-4
-3
-2
-1
-1
0
0
1
1
2
2
3
5
6
8
9
11
12
13
13
14
14
15
16
18
20
23
26
29
32
35
37
38
39
40
41
43
45
48
52
56
59
62
64
66
67
67
68
68
69
71
72
74
75
75
75
74
72
70
68
66
64
63
61
59
56
53
49
45
41
37
33
29
26
23
20
17
14
10
7
4
1
-2
-4
-5
-6
-7
-7
-8
-9
-10
-12
-13
-15
-16
-17
-18
-18
-19
-19
-19
-19
-18
-18
-18
-18
-19
-20
-20
-21
-22
-23
-23
-23
-22
-22
-21
-21
-20
-20
-20
-20
-21
-21
-21
-22
-22
-22
-21
-20
-19
-18
-17
-16
-15
-15
-14
-15
-15
-16
-17
-18
-19
-19
-19
-19
-18
-17
-17
-16
-16
-16
-16
-16
-15
-15
-15
-14
-15
-15
-16
-16
-17
-18
-19
-19
-19
-19
-18
-18
-18
-18
-18
-18
-18
-18
-18
-18
-18
-18
-18
-18
-18
-18
-18
-18
-19
-19
-19
-19
-20
-20
-21
-21
-22
-22
-22
-22
-22
-21
-20
-20
-20
-20
-20
-21
-22
-23
-23
-23
-23
-22
-21
-19
-18
-17
-17
-18
-19
-21
-22
-24
-25
-26
-26
-25
-24
-23
-22
-21
-20
-19
-18
-18
-17
-16
-15
-13
-12
-11
-10
-10
-9
-9
-8
-8
-7
-6
-4
-3
-1
0
1
1
1
1
1
0
-1
-2
-3
-4
-5
-6
-7
-7
-8
-9
-9
-10
-11
-12
-14
-15
-17
-19
-21
-22
-22
-22
-21
-20
-20
-19
-18
-18
-19
-19
-20
-20
-21
-21
-20
-19
-19
-18
-18
-18
-19
-20
-20
-20
-18
-13
-6
5
18
35
53
73
93
113
130
145
154
159
156
147
131
108
80
49
18
-11
-36
-54
-66
-70
-68
-62
-53
-43
-34
-26
-21
-17
-15
-15
-14
-14
-13
-13
-12
-12
-11
-11
-11
-12
-12
-13
-13
-13
-14
-14
-13
-13
-12
-11
-10
-9
-8
-7
-6
-6
-5
-5
-5
-5
-5
-4
-4
-4
-3
-3
-2
-1
0
2
3
5
7
8
9
10
10
9
9
8
8
7
8
9
10
12
14
16
18
19
20
21
21
22
23
24
26
28
30
32
34
35
37
38
39
40
42
45
48
51
55
58
62
64
66
68
69
70
71
73
74
76
77
78
78
78
77
76
74
73
72
71
71
70
68
66
63
59
54
49
44
40
35
32
29
26
24
22
19
16
13
10
7
4
1
-2
-4
-5
-6
-6
-6
-5
-5
-5
-6
-6
-8
-9
-11
-13
-14
-15
-16
-16
-16
-16
-16
-16
-16
-17
-17
-17
-17
-17
-16
-16
-16
-16
-16
-16
-17
-17
-18
-18
-18
-18
-17
-17
-17
-18
-18
-18
-18
-18
-17
-16
-15
-14
-14
-14
-14
-15
-17
-18
-19
-19
-19
-18
-17
-16
-15
-14
-13
-13
-13
-13
-13
-13
-14
-14
-14
-14
-14
-14
-14
-13
-13
-13
-13
-13
-13
-13
-13
-14
-15
-15
-16
-17
-17
-18
-18
-18
-19
-19
-18
-18
-18
-19
-19
-19
-19
-19
-19
-18
-18
-17
-17
-17
-17
-17
-17
-18
-19
-20
-20
-21
-21
-21
-21
-20
-19
-19
-18
-18
-17
-18
-18
-18
-18
-19
-19
-19
-19
-19
-19
-18
-18
-18
-18
-18
-18
-19
-20
-21
-22
-23
-24
-24
-24
-24
-23
-22
-21
-20
-20
-19
-19
-19
-19
-19
-18
-18
-18
-17
-17
-17
-16
-16
-15
-15
-14
-13
-13
-12
-12
-12
-12
-11
-11
-10
-8
-6
-4
-3
-1
-1
-1
-1
-2
-3
-3
-4
-4
-4
-4
-4
-4
-4
-5
-6
-7
-8
-9
-11
-12
-13
-14
-15
-16
-17
-18
-19
-21
-22
-22
-23
-23
-24
-24
-24
-24
-24
-25
-25
-25
-25
-25
-24
-23
-22
-22
-21
-22
-22
-22
-22
-21
-18
-13
-4
8
22
40
60
80
101
120
137
149
157
158
153
141
122
99
71
41
12
-15
-37
-54
-63
-67
-65
-58
-50
-41
-33
-27
-23
-21
-20
-19
-19
-19
-19
-18
-17
-17
-17
-17
-17
-17
-17
-17
-16
-15
-15
-14
-14
-15
-15
-15
-16
-16
-16
-15
-14
-14
-13
-12
-11
-10
-9
-8
-7
-6
-5
-4
-4
-4
-5
-5
-5
-5
-4
-3
-1
2
4
5
6
6
5
4
4
3
4
5
7
9
11
13
14
15
16
16
17
18
20
23
25
28
31
33
35
36
38
39
41
43
45
48
51
53
56
58
60
62
63
65
67
70
72
74
76
77
77
77
77
76
75
74
74
73
71
70
67
65
61
58
54
50
47
43
40
37
34
30
27
24
20
17
14
10
8
5
2
0
-2
-3
-5
-5
-6
-7
-7
-8
-9
-10
-12
-13
-14
-16
-16
-16
-16
-15
-15
-14
-13
-13
-13
-14
-14
-15
-15
-15
-15
-15
-15
-15
-15
-15
-15
-16
-16
-17
-17
-17
-17
-16
-16
-16
-16
-16
-17
-17
-18
-18
-19
-19
-20
-20
-20
-19
-19
-19
-18
-18
-18
-17
-17
-16
-15
-14
-13
-13
-13
-13
-13
-14
-15
-15
-15
-15
-14
-14
-13
-13
-13
-14
-15
-16
-17
-18
-18
-17
-16
-15
-14
-13
-13
-14
-15
-16
-17
-17
-17
-16
-16
-15
-15
-15
-16
-17
-18
-20
-20
-21
-21
-20
-19
-18
-17
-16
-16
-17
-17
-18
-18
-19
-19
-19
-18
-18
-18
-19
-19
-20
-20
-21
-20
-20
-19
-18
-17
-16
-16
-17
-18
-19
-21
-22
-22
-22
-21
-20
-18
-17
-16
-17
-18
-19
-21
-23
-24
-25
-26
-26
-25
-24
-23
-22
-22
-21
-20
-20
-19
-19
-18
-18
-18
-18
-19
-19
-19
-19
-18
-17
-16
-15
-13
-12
-12
-12
-12
-12
-13
-13
-12
-11
-10
-7
-5
-2
0
2
3
3
2
1
0
-1
-2
-2
-1
0
2
2
2
1
0
-3
-6
-8
-11
-12
-13
-13
-13
-13
-14
-14
-16
-18
-19
-21
-22
-23
-22
-22
-21
-20
-19
-19
-19
-19
-20
-20
-20
-20
-20
-20
-20
-20
-21
-21
-21
-19
-16
-11
-4
7
20
36
54
73
93
113
131
146
157
162
161
153
137
115
89
60
30
1
-23
-42
-55
-61
-62
-58
-51
-43
-35
-28
-23
-20
-18
-18
-18
-18
-17
-16
-15
-14
-13
-13
-13
-13
-14
-15
-16
-16
-16
-15
-15
-14
-13
-12
-12
-11
-11
-11
-10
-10
-9
-8
-7
-7
-6
-6
-7
-6
-6
-5
-4
-2
0
2
3
4
4
3
3
2
1
1
2
3
4
6
8
10
11
13
14
15
16
18
19
21
23
24
25
26
26
26
27
28
29
31
35
38
42
46
50
53
55
56
57
58
58
59
61
63
65
68
71
73
76
77
78
78
78
77
77
76
75
75
74
73
72
71
70
68
66
63
60
56
52
48
43
38
33
29
26
23
21
19
17
15
12
8
5
1
-2
-4
-5
-5
-4
-4
-4
-5
-6
-8
-11
-13
-14
-15
-15
-14
-12
-11
-9
-9
-10
-11
-12
-14
-16
-17
-18
-18
-17
-17
-16
-15
-14
-14
-13
-13
-13
-14
-15
-16
-18
-19
-20
-21
-21
-21
-19
-18
-17
-16
-15
-15
-15
-15
-16
-17
-17
-16
-16
-16
-15
-15
-15
-15
-15
-15
-15
-15
-15
-14
-14
-14
-15
-15
-16
-17
-18
-18
-18
-17
-17
-16
-16
-17
-17
-17
-18
-17
-17
-16
-15
-14
-13
-13
-13
-14
-15
-16
-17
-17
-17
-16
-15
-15
-14
-14
-15
-15
-16
-17
-17
-17
-16
-16
-16
-16
-16
-17
-18
-20
-21
-21
-21
-20
-19
-17
-15
-14
-13
-14
-15
-16
-18
-19
-20
-21
-20
-20
-19
-18
-17
-17
-17
-18
-19
-19
-20
-20
-19
-18
-17
-16
-15
-15
-16
-17
-18
-19
-20
-20
-20
-19
-19
-18
-17
-17
-17
-17
-18
-18
-18
-18
-18
-18
-17
-17
-17
-17
-18
-19
-20
-20
-21
-20
-20
-19
-19
-18
-18
-18
-19
-19
-20
-20
-19
-18
-17
-15
-12
-10
-9
-7
-7
-7
-7
-7
-7
-7
-6
-5
-3
-1
1
2
3
4
4
4
3
2
1
1
0
-1
-2
-2
-3
-3
-4
-4
-5
-6
-7
-8
-10
-11
-13
-15
-17
-19
-20
-21
-22
-22
-22
-22
-22
-21
-21
-21
-21
-22
-22
-23
-23
-23
-23
-23
-22
-22
-21
-21
-22
-22
-22
-21
-19
-14
-6
5
20
37
57
78
99
119
136
150
159
162
158
148
131
108
81
52
22
-7
-31
-49
-61
-66
-66
-61
-53
-44
-36
-29
-24
-20
-18
-17
-16
-16
-16
-15
-15
-15
-15
-16
-16
-16
-16
-15
-14
-13
-12
-11
-12
-12
-13
-14
-15
-15
-14
-13
-11
-9
-8
-6
-6
-6
-7
-7
-8
-8
-7
-6
-5
-3
-2
0
1
1
2
2
3
4
5
6
7
8
9
10
11
12
13
13
14
15
16
17
18
19
20
22
23
24
26
27
29
31
32
34
37
39
41
44
46
48
50
52
53
54
56
58
60
62
65
68
71
74
76
77
78
78
77
77
76
75
74
74
73
73
73
73
72
71
69
66
63
60
55
51
46
41
37
33
29
26
23
20
18
15
12
10
7
4
2
0
-2
-3
-4
-5
-5
-6
-7
-8
-8
-9
-10
-10
-10
-11
-11
-12
-13
-14
-15
-16
-17
-17
-17
-17
-16
-16
-16
-16
-15
-15
-15
-14
-14
-13
-13
-13
-14
-15
-17
-18
-20
-20
-20
-19
-18
-16
-15
-13
-13
-12
-12
-13
-13
-14
-14
-14
-14
-14
-14
-14
-15
-16
-16
-16
-16
-16
-15
-14
-13
-12
-11
-11
-12
-13
-13
-14
-15
-16
-16
-16
-17
-17
-17
-17
-17
-16
-16
-15
-15
-14
-14
-15
-16
-17
-18
-19
-20
-20
-20
-19
-18
-18
-17
-17
-17
-18
-19
-20
-20
-20
-20
-19
-18
-18
-18
-18
-18
-19
-19
-20
-20
-19
-19
-18
-18
-19
-20
-21
-22
-24
-25
-25
-25
-24
-23
-22
-21
-21
-20
-21
-21
-21
-22
-22
-22
-23
-23
-23
-23
-22
-22
-21
-21
-20
-20
-19
-19
-20
-20
-21
-22
-23
-23
-23
-23
-23
-22
-22
-21
-20
-20
-19
-19
-18
-18
-17
-16
-15
-15
-14
-14
-13
-12
-11
-9
-8
-6
-4
-2
-1
0
0
0
0
-1
-2
-3
-4
-4
-5
-5
-6
-7
-8
-9
-10
-12
-14
-15
-17
-19
-20
-21
-22
-22
-22
-22
-21
-21
-20
-20
-20
-20
-21
-22
-23
-24
-25
-25
-25
-24
-23
-22
-20
-20
-19
-19
-20
-20
-20
-19
-16
-10
-2
9
23
40
59
79
99
118
134
146
152
152
145
130
109
83
52
21
-9
-35
-56
-71
-78
-78
-74
-66
-56
-45
-36
-28
-23
-19
-17
-16
-15
-15
-14
-14
-14
-14
-14
-15
-15
-15
-15
-15
-16
-16
-16
-16
-16
-16
-16
-15
-14
-13
-12
-11
-11
-10
-11
-11
-11
-12
-12
-11
-11
-10
-8
-7
-6
-5
-4
-3
-1
0
1
2
3
3
3
3
3
3
3
4
5
6
8
10
12
14
15
16
17
17
18
19
21
23
25
28
30
32
34
36
38
39
41
43
45
48
51
53
56
58
60
61
63
64
65
66
68
70
72
74
76
78
79
79
80
79
79
78
77
75
73
70
67
64
60
56
52
49
46
43
40
37
34
31
27
23
19
15
11
8
5
2
0
-2
-5
-7
-9
-10
-11
-11
-10
-10
-9
-9
-10
-11
-12
-14
-16
-17
-18
-19
-19
-19
-18
-18
-18
-19
-20
-21
-22
-23
-23
-23
-23
-22
-22
-21
-21
-20
-20
-20
-21
-21
-20
-20
-19
-18
-17
-16
-16
-16
-16
-17
-17
-18
-18
-19
-19
-18
-18
-17
-16
-16
-15
-14
-13
-13
-12
-11
-11
-11
-12
-13
-15
-16
-17
-18
-18
-18
-16
-15
-13
-11
-11
-11
-11
-13
-14
-16
-17
-18
-18
-17
-16
-15
-14
-14
-13
-14
-14
-14
-15
-15
-16
-16
-17
-17
-18
-18
-19
-19
-19
-19
-19
-18
-18
-18
-18
-18
-18
-18
-18
-18
-18
-18
-18
-18
-17
-17
-17
-18
-18
-18
-19
-19
-19
-19
-19
-19
-18
-18
-18
-18
-19
-19
-19
-19
-19
-18
-18
-18
-18
-18
-18
-18
-19
-19
-20
-19
-19
-18
-17
-16
-14
-13
-12
-11
-10
-9
-9
-8
-8
-7
-7
-6
-6
-5
-5
-4
-2
-1
0
2
3
3
4
3
2
1
0
-2
-4
-5
-6
-7
-8
-8
-9
-10
-12
-14
-16
-19
-22
-24
-25
-25
-25
-24
-22
-21
-20
-20
-20
-21
-23
-24
-25
-25
-24
-22
-20
-19
-18
-18
-19
-21
-23
-23
-22
-19
-12
-3
10
25
42
60
78
96
113
127
139
146
148
144
132
114
90
61
30
0
-26
-48
-63
-70
-72
-68
-61
-53
-45
-37
-31
-27
-23
-20
-17
-14
-11
-10
-9
-10
-11
-13
-16
-18
-19
-19
-18
-17
-15
-14
-13
-13
-13
-14
-15
-16
-16
-15
-14
-12
-10
-8
-7
-6
-6
-6
-6
-6
-5
-5
-4
-3
-3
-2
-2
-2
-2
-2
-1
-1
1
2
3
4
5
6
6
6
6
6
6
7
9
10
12
15
17
19
21
23
25
26
27
27
28
29
31
32
34
37
39
42
44
46
48
50
52
54
57
59
62
66
68
71
73
73
74
73
73
73
73
73
73
74
75
74
73
72
69
66
62
59
56
53
50
48
45
42
39
35
31
28
24
21
18
16
14
12
10
7
5
2
-1
-4
-6
-8
-9
-10
-10
-10
-10
-11
-11
-12
-13
-14
-15
-16
-17
-17
-17
-17
-17
-17
-17
-18
-18
-18
-19
-19
-19
-19
-19
-19
-19
-19
-19
-19
-20
-20
-20
-19
-19
-19
-18
-18
-18
-17
-17
-17
-17
-17
-17
-18
-18
-18
-18
-18
-18
-17
-16
-15
-13
-12
-11
-11
-12
-12
-13
-14
-15
-15
-15
-15
-15
-15
-15
-15
-16
-16
-17
-17
-17
-17
-16
-16
-16
-15
-15
-16
-16
-17
-17
-17
-18
-18
-18
-18
-19
-19
-20
-20
-21
-21
-20
-20
-19
-18
-18
-18
-18
-19
-19
-19
-19
-19
-18
-18
-17
-17
-18
-18
-19
-20
-21
-21
-21
-20
-19
-18
-18
-17
-17
-18
-19
-21
-22
-23
-24
-24
-24
-23
-22
-21
-20
-19
-19
-19
-19
-19
-19
-19
-19
-19
-19
-19
-19
-20
-20
-21
-22
-22
-22
-21
-21
-20
-18
-17
-16
-15
-14
-14
-14
-14
-14
-14
-14
-14
-14
-14
-13
-12
-11
-9
-7
-5
-3
-2
0
0
0
0
-1
-2
-3
-3
-4
-4
-3
-3
-2
-2
-2
-2
-3
-4
-5
-7
-9
-11
-13
-15
-17
-19
-21
-23
-24
-25
-26
-26
-25
-24
-23
-22
-21
-20
-20
-20
-21
-22
-23
-24
-25
-25
-25
-25
-24
-23
-22
-21
-19
-15
-9
0
12
27
44
64
85
105
124
139
149
154
152
144
128
107
82
53
24
-3
-28
-47
-60
-67
-68
-65
-59
-51
-43
-35
-29
-25
-22
-20
-19
-19
-18
-17
-17
-16
-16
-16
-15
-15
-15
-15
-15
-15
-15
-14
-13
-13
-12
-11
-10
-10
-10
-9
-9
-9
-9
-9
-9
-9
-9
-8
-8
-8
-8
-8
-8
-7
-6
-5
-4
-2
0
2
3
4
4
4
4
4
5
6
7
9
11
12
13
13
13
13
13
12
13
14
16
18
21
24
26
28
29
31
32
33
35
37
39
42
45
47
50
52
54
56
58
59
62
64
66
68
70
71
72
73
73
72
72
73
73
74
74
74
74
73
71
67
63
58
53
48
44
41
39
38
36
35
33
31
27
23
19
15
11
9
7
6
5
3
2
0
-3
-6
-9
-12
-14
-15
-15
-15
-14
-12
-11
-10
-10
-10
-11
-11
-12
-13
-14
-14
-15
-16
-16
-17
-17
-17
-17
-17
-17
-16
-16
-16
-16
-16
-16
-16
-16
-16
-16
-15
-15
-15
-15
-15
-15
-15
-15
-15
-14
-14
-14
-14
-14
-14
-14
-14
-14
-14
-13
-12
-12
-11
-11
-11
-12
-12
-13
-13
-13
-12
-12
-11
-10
-9
-9
-9
-10
-11
-12
-13
-15
-16
-17
-17
-17
-17
-16
-16
-15
-14
-13
-12
-12
-13
-13
-14
-15
-15
-16
-16
-15
-14
-14
-13
-13
-13
-14
-14
-15
-16
-16
-17
-17
-17
-18
-18
-18
-17
-17
-17
-16
-15
-14
-14
-14
-14
-14
-14
-15
-16
-17
-17
-17
-17
-17
-17
-16
-16
-17
-17
-17
-17
-17
-17
-17
-16
-16
-16
-16
-17
-17
-17
-17
-17
-17
-16
-16
-15
-16
-16
-18
-19
-20
-21
-21
-20
-19
-17
-16
-14
-13
-13
-12
-12
-13
-13
-12
-12
-11
-10
-9
-8
-8
-7
-7
-6
-5
-4
-2
0
2
3
4
4
3
2
0
-1
-3
-4
-4
-4
-4
-3
-3
-2
-2
-2
-3
-4
-6
-8
-10
-12
-14
-16
-18
-19
-19
-19
-19
-18
-18
-18
-18
-18
-19
-19
-19
-19
-19
-18
-18
-17
-17
-18
-18
-19
-21
-22
-23
-23
-22
-18
-13
-6
5
17
33
50
69
89
109
127
142
152
157
155
146
130
109
82
53
23
-5
-29
-48
-61
-67
-67
-63
-56
-47
-39
-31
-25
-20
-17
-16
-15
-14
-14
-13
-12
-12
-12
-11
-12
-12
-13
-13
-14
-15
-15
-16
-16
-15
-15
-14
-13
-12
-10
-10
-9
-8
-8
-8
-8
-7
-7
-7
-6
-6
-6
-6
-6
-6
-6
-6
-5
-4
-2
0
2
4
5
6
7
7
7
8
8
8
9
10
11
12
13
14
16
17
18
19
20
21
22
24
26
28
30
32
34
36
38
40
42
43
45
47
49
51
54
56
58
61
63
65
67
69
70
71
72
73
73
73
73
73
73
73
73
73
73
72
71
69
67
63
59
55
50
46
41
38
35
32
30
28
25
22
18
14
10
6
2
0
-2
-3
-3
-3
-3
-3
-4
-5
-7
-8
-10
-11
-12
-13
-14
-15
-16
-17
-18
-19
-19
-19
-19
-18
-17
-16
-16
-16
-16
-16
-16
-17
-17
-16
-16
-16
-16
-16
-17
-18
-20
-21
-22
-22
-22
-21
-19
-18
-16
-14
-13
-13
-14
-15
-16
-17
-17
-17
-17
-16
-15
-14
-13
-13
-13
-14
-14
-15
-16
-17
-17
-16
-16
-15
-15
-15
-15
-15
-15
-16
-16
-16
-16
-16
-16
-16
-16
-17
-17
-18
-19
-19
-19
-18
-17
-16
-14
-13
-12
-12
-13
-14
-15
-17
-18
-19
-19
-18
-18
-17
-17
-17
-18
-18
-20
-21
-22
-22
-23
-23
-23
-24
-24
-24
-24
-24
-24
-24
-24
-24
-24
-24
-24
-24
-24
-23
-23
-23
-23
-23
-23
-23
-23
-23
-23
-23
-23
-23
-22
-21
-21
-20
-20
-20
-21
-21
-22
-23
-23
-23
-22
-21
-20
-18
-17
-16
-16
-16
-16
-16
-16
-15
-14
-13
-11
-9
-7
-5
-4
-3
-3
-3
-4
-5
-6
-7
-7
-8
-9
-9
-10
-11
-11
-12
-12
-12
-13
-13
-14
-16
-17
-19
-21
-22
-23
-23
-23
-22
-22
-22
-22
-24
-25
-27
-28
-28
-28
-26
-24
-22
-21
-20
-20
-20
-22
-24
-25
-26
-25
-23
-19
-12
-4
7
20
35
52
70
88
106
122
134
141
141
135
122
102
77
49
20
-8
-33
-53
-67
-76
-78
-76
-70
-61
-52
-43
-36
-29
-25
-22
-20
-19
-19
-19
-19
-18
-18
-18
-17
-17
-17
-16
-16
-16
-16
-16
-16
-16
-15
-14
-13
-12
-10
-9
-7
-6
-5
-4
-4
-4
-5
-6
-7
-7
-7
-6
-5
-3
-1
0
1
1
1
2
2
2
2
3
4
5
6
7
7
8
9
9
10
12
13
15
17
19
21
23
24
25
25
26
27
29
31
33
35
38
40
43
45
47
49
51
54
56
58
60
63
65
66
68
69
70
70
71
72
72
73
74
74
75
76
76
76
76
75
73
71
68
64
60
56
52
48
44
42
40
38
36
34
32
29
25
21
16
12
8
4
2
1
0
0
0
0
-1
-2
-4
-6
-8
-9
-10
-11
-11
-11
-10
-11
-11
-12
-13
-15
-16
-16
-16
-16
-15
-15
-14
-14
-15
-16
-17
-18
-19
-19
-18
-18
-17
-16
-16
-16
-16
-16
-16
-16
-16
-15
-14
-12
-11
-10
-10
-10
-10
-11
-11
-12
-12
-12
-12
-12
-11
-11
-12
-12
-12
-13
-13
-13
-13
-13
-13
-13
-12
-12
-12
-12
-13
-13
-13
-14
-14
-13
-13
-13
-13
-13
-13
-14
-14
-15
-15
-16
-15
-15
-14
-13
-12
-12
-11
-12
-13
-14
-14
-15
-16
-16
-16
-16
-16
-16
-16
-16
-17
-17
-17
-17
-17
-17
-17
-18
-18
-18
-18
-18
-18
-17
-17
-16
-16
-16
-16
-17
-17
-18
-19
-19
-20
-20
-20
-21
-21
-21
-21
-22
-22
-22
-21
-21
-20
-20
-19
-19
-18
-18
-17
-17
-16
-15
-15
-14
-14
-14
-14
-14
-14
-14
-14
-14
-13
-12
-10
-8
-5
-2
0
2
3
3
2
1
0
-1
-3
-4
-4
-5
-5
-5
-6
-7
-9
-10
-11
-12
-12
-13
-13
-13
-13
-14
-16
-17
-19
-21
-22
-22
-23
-22
-22
-22
-22
-22
-23
-24
-25
-26
-27
-27
-27
-26
-26
-25
-25
-26
-26
-25
-24
-21
-16
-9
0
12
26
42
59
76
94
110
124
134
140
140
134
122
104
81
55
27
1
-23
-42
-56
-64
-67
-66
-62
-56
-50
-44
-38
-33
-28
-25
-22
-19
-17
-16
-16
-16
-17
-18
-19
-20
-20
-19
-19
-18
-18
-18
-18
-18
-19
-19
-20
-20
-19
-17
-15
-13
-10
-8
-7
-6
-6
-7
-8
-9
-10
-10
-10
-10
-9
-7
-5
-3
-1
0
1
2
3
3
4
4
5
5
6
6
7
7
8
9
10
11
13
15
16
18
20
21
22
23
24
25
26
27
28
29
30
32
35
38
41
45
48
52
56
58
60
62
62
63
63
64
64
66
67
69
71
72
73
73
72
71
70
69
67
66
64
62
61
59
56
53
49
45
40
36
31
28
24
21
19
17
15
13
11
9
7
4
2
-1
-3
-5
-7
-8
-9
-10
-10
-10
-11
-11
-12
-12
-13
-14
-15
-16
-17
-18
-19
-19
-20
-19
-19
-19
-18
-18
-17
-17
-17
-17
-17
-17
-17
-17
-16
-16
-16
-16
-16
-17
-17
-18
-19
-19
-19
-19
-18
-17
-17
-16
-16
-16
-16
-17
-18
-19
-20
-20
-20
-20
-19
-18
-16
-15
-14
-13
-13
-13
-14
-14
-15
-16
-17
-17
-17
-18
-18
-17
-17
-16
-16
-15
-14
-14
-14
-14
-14
-16
-17
-18
-19
-20
-20
-20
-19
-18
-17
-16
-16
-16
-16
-17
-18
-18
-18
-18
-18
-17
-17
-17
-17
-17
-18
-19
-19
-20
-20
-21
-21
-20
-20
-20
-19
-19
-18
-18
-18
-18
-19
-19
-20
-21
-21
-21
-21
-21
-20
-19
-19
-19
-19
-20
-21
-22
-22
-22
-22
-21
-20
-19
-17
-16
-16
-16
-16
-17
-18
-18
-18
-18
-18
-17
-15
-14
-12
-9
-7
-5
-3
-2
0
0
1
1
0
0
0
0
0
0
0
0
-1
-1
-2
-4
-6
-8
-10
-12
-13
-15
-16
-17
-18
-19
-20
-22
-23
-24
-25
-25
-25
-25
-25
-25
-24
-24
-24
-24
-23
-23
-23
-23
-22
-22
-22
-22
-22
-22
-22
-22
-21
-19
-15
-8
2
14
29
46
65
84
103
121
136
147
153
152
144
130
109
83
54
24
-4
-29
-48
-61
-67
-68
-64
-58
-50
-42
-35
-30
-25
-22
-20
-18
-17
-16
-15
-15
-15
-15
-16
-17
-18
-19
-19
-18
-17
-16
-15
-14
-13
-12
-12
-12
-12
-12
-12
-12
-11
-11
-10
-9
-8
-8
-7
-6
-5
-5
-4
-5
-5
-5
-6
-6
-6
-6
-5
-3
-1
1
3
5
6
6
6
6
6
6
6
7
9
11
14
16
19
21
22
23
24
25
26
27
28
29
31
32
34
36
37
40
42
44
47
50
53
56
59
61
63
65
66
67
68
68
68
69
70
70
72
73
74
74
75
74
73
71
69
66
63
60
58
55
52
50
47
44
40
36
31
27
23
19
16
14
12
11
10
9
7
5
3
1
-1
-3
-4
-5
-6
-7
-7
-9
-10
-11
-13
-14
-15
-15
-15
-15
-14
-14
-15
-15
-16
-18
-19
-19
-20
-20
-19
-18
-17
-16
-15
-14
-14
-14
-14
-15
-15
-15
-15
-15
-15
-15
-15
-14
-14
-13
-12
-11
-11
-10
-10
-10
-11
-12
-12
-13
-14
-14
-14
-13
-12
-11
-10
-10
-9
-9
-9
-9
-10
-10
-10
-10
-10
-10
-9
-10
-10
-11
-12
-12
-13
-14
-14
-14
-13
-12
-11
-11
-11
-11
-12
-13
-14
-16
-16
-16
-16
-14
-13
-11
-10
-9
-9
-9
-11
-12
-13
-15
-16
-17
-17
-17
-17
-17
-17
-17
-17
-17
-17
-16
-16
-16
-16
-15
-15
-16
-16
-17
-18
-18
-19
-20
-20
-20
-20
-20
-19
-18
-17
-16
-15
-15
-15
-16
-16
-17
-17
-18
-18
-18
-17
-17
-16
-16
-16
-16
-16
-16
-15
-15
-14
-13
-12
-11
-10
-9
-8
-7
-7
-6
-6
-5
-4
-3
-1
1
2
4
5
5
5
5
4
2
1
0
-1
-2
-2
-2
-3
-3
-4
-5
-6
-8
-9
-11
-13
-14
-15
-17
-18
-20
-21
-22
-23
-23
-23
-22
-21
-20
-19
-19
-19
-20
-21
-22
-23
-24
-24
-23
-22
-21
-19
-18
-16
-15
-12
-7
0
10
23
40
59
80
101
120
137
150
157
158
152
139
119
94
66
36
6
-20
-42
-58
-67
-69
-66
-59
-50
-40
-31
-25
-20
-18
-18
-18
-19
-19
-19
-18
-18
-17
-16
-15
-15
-15
-15
-15
-15
-15
-15
-15
-15
-15
-15
-15
-14
-14
-13
-12
-11
-11
-10
-10
-9
-9
-9
-9
-9
-8
-8
-7
-6
-5
-3
-2
-1
0
0
1
1
2
2
3
3
4
4
5
6
7
8
9
10
11
12
13
15
16
17
19
20
21
23
24
26
28
30
32
34
36
38
40
41
42
44
45
47
49
52
55
58
60
63
65
66
67
68
68
68
68
69
69
70
70
69
68
67
66
64
62
61
59
57
55
53
49
45
41
36
31
27
23
20
17
15
13
12
10
9
7
6
4
3
1
0
-2
-3
-5
-7
-9
-10
-12
-13
-13
-14
-14
-14
-14
-14
-15
-15
-15
-16
-16
-16
-15
-15
-15
-15
-15
-15
-16
-17
-17
-18
-19
-19
-18
-18
-17
-17
-17
-16
-16
-16
-16
-16
-16
-15
-15
-15
-15
-14
-14
-14
-15
-15
-14
-14
-14
-14
-14
-15
-15
-15
-16
-16
-16
-16
-16
-15
-15
-16
-16
-17
-18
-19
-19
-20
-19
-19
-17
-16
-15
-15
-15
-15
-16
-17
-18
-19
-19
-20
-19
-19
-19
-19
-19
-19
-19
-19
-19
-19
-18
-17
-16
-16
-16
-17
-18
-19
-21
-22
-23
-23
-22
-22
-21
-21
-21
-21
-22
-23
-24
-25
-25
-25
-24
-24
-23
-22
-22
-22
-22
-22
-23
-23
-23
-23
-22
-22
-23
-23
-24
-25
-26
-27
-27
-27
-26
-25
-24
-22
-20
-19
-19
-18
-18
-18
-18
-18
-16
-15
-13
-11
-10
-9
-9
-9
-10
-10
-10
-9
-7
-5
-3
-2
-2
-3
-5
-7
-10
-12
-13
-14
-13
-13
-12
-12
-12
-13
-15
-18
-20
-23
-24
-25
-25
-25
-25
-25
-25
-25
-26
-26
-26
-26
-27
-27
-28
-28
-29
-30
-30
-29
-29
-27
-26
-25
-24
-24
-25
-25
-24
-22
-18
-11
0
13
29
47
66
85
103
120
133
142
145
142
132
115
92
64
33
3
-26
-49
-66
-76
-79
-77
-71
-63
-54
-46
-39
-34
-31
-28
-26
-23
-22
-20
-20
-20
-20
-22
-23
-24
-25
-24
-23
-22
-20
-18
-16
-16
-16
-16
-16
-17
-17
-16
-16
-14
-13
-12
-11
-11
-11
-11
-11
-11
-11
-11
-10
-9
-9
-8
-7
-6
-5
-4
-2
-1
0
1
2
3
4
5
6
7
8
9
11
12
14
15
16
17
17
17
18
19
20
23
25
29
32
35
38
40
42
43
45
47
49
51
54
57
60
62
65
67
69
71
73
74
76
78
79
80
80
80
80
79
79
78
77
76
75
74
73
71
69
67
63
59
54
49
44
39
35
31
27
25
22
20
18
16
14
12
9
6
4
1
-1
-2
-4
-5
-6
-7
-8
-9
-10
-11
-12
-12
-13
-13
-13
-13
-14
-14
-15
-17
-18
-19
-20
-21
-21
-21
-21
-20
-19
-19
-18
-17
-17
-16
-16
-16
-16
-16
-16
-16
-16
-15
-15
-14
-13
-12
-11
-11
-11
-12
-12
-13
-14
-15
-15
-14
-13
-12
-11
-11
-10
-10
-11
-12
-13
-14
-15
-15
-14
-13
-12
-10
-9
-8
-7
-7
-8
-9
-10
-12
-13
-13
-13
-13
-12
-11
-11
-11
-11
-12
-13
-15
-16
-17
-18
-18
-18
-18
-17
-16
-16
-15
-15
-15
-15
-15
-16
-16
-16
-16
-16
-16
-16
-16
-17
-17
-18
-18
-18
-19
-19
-19
-18
-18
-17
-16
-15
-15
-15
-15
-15
-15
-16
-16
-16
-16
-17
-17
-17
-17
-17
-18
-18
-19
-20
-20
-20
-20
-19
-18
-17
-16
-15
-14
-14
-14
-15
-15
-16
-16
-15
-15
-14
-12
-11
-9
-8
-7
-6
-6
-6
-6
-6
-6
-6
-5
-4
-2
0
2
3
5
6
6
5
4
2
0
-1
-2
-3
-3
-3
-3
-3
-3
-4
-5
-6
-7
-9
-10
-12
-13
-14
-15
-16
-17
-18
-19
-19
-19
-20
-20
-20
-20
-20
-21
-21
-22
-22
-23
-23
-22
-22
-21
-20
-19
-18
-17
-16
-14
-11
-7
1
11
24
41
61
83
105
126
143
156
163
163
156
142
122
97
68
38
10
-16
-38
-54
-64
-67
-66
-60
-51
-42
-33
-25
-20
-16
-15
-15
-15
-16
-17
-17
-17
-16
-16
-16
-16
-16
-16
-17
-17
-16
-16
-15
-14
-14
-13
-13
-13
-13
-13
-13
-13
-12
-11
-10
-9
-8
-8
-7
-7
-6
-6
-5
-5
-5
-5
-5
-4
-4
-3
-2
0
1
3
5
6
8
8
9
9
9
10
10
11
12
14
15
16
17
18
19
21
22
24
26
28
30
32
33
34
35
36
38
40
43
46
49
52
55
57
58
60
61
62
64
66
68
70
72
74
75
76
75
74
73
72
70
69
69
68
68
67
66
64
61
57
52
47
41
36
32
28
25
23
21
19
18
15
13
10
6
2
-1
-4
-7
-9
-10
-11
-11
-12
-12
-12
-13
-13
-13
-14
-14
-15
-15
-16
-17
-18
-19
-20
-20
-20
-19
-18
-17
-16
-15
-15
-15
-15
-16
-18
-19
-20
-21
-21
-21
-22
-21
-21
-21
-21
-20
-20
-20
-20
-20
-19
-19
-19
-18
-17
-17
-16
-15
-15
-15
-15
-15
-15
-15
-15
-15
-15
-15
-16
-16
-17
-18
-19
-20
-20
-20
-20
-19
-18
-17
-17
-17
-17
-18
-19
-19
-19
-19
-19
-18
-17
-17
-17
-17
-18
-20
-21
-22
-23
-24
-24
-24
-23
-23
-23
-23
-23
-22
-21
-20
-19
-18
-17
-17
-18
-19
-20
-21
-23
-23
-23
-23
-22
-21
-20
-19
-19
-20
-21
-21
-22
-23
-23
-23
-22
-22
-22
-22
-23
-23
-24
-24
-24
-23
-23
-22
-22
-22
-22
-22
-22
-23
-24
-24
-25
-25
-25
-25
-25
-24
-24
-23
-23
-22
-21
-20
-19
-19
-19
-19
-19
-20
-20
-19
-19
-18
-17
-16
-14
-13
-12
-12
-11
-10
-9
-8
-7
-5
-4
-3
-2
-1
-2
-2
-3
-3
-4
-5
-5
-5
-5
-6
-6
-6
-7
-8
-9
-10
-12
-13
-15
-17
-19
-22
-24
-26
-28
-29
-29
-28
-27
-25
-24
-22
-22
-22
-23
-24
-26
-27
-28
-27
-26
-24
-22
-21
-21
-21
-22
-23
-22
-19
-13
-4
9
26
46
66
88
108
127
143
154
160
160
153
140
119
93
63
31
1
-26
-48
-62
-70
-71
-67
-59
-50
-41
-33
-27
-23
-20
-19
-18
-17
-17
-17
-17
-18
-18
-19
-20
-20
-20
-19
-18
-17
-16
-15
-15
-15
-15
-15
-15
-15
-14
-12
-11
-10
-9
-8
-8
-8
-7
-7
-7
-6
-5
-4
-3
-3
-2
-2
-2
-1
-1
0
1
3
4
6
8
9
9
9
9
8
8
8
8
9
11
14
16
19
22
24
25
26
27
28
29
30
31
33
36
38
41
43
46
48
51
53
56
58
61
63
65
67
69
70
72
74
76
77
79
80
81
81
80
79
78
76
75
74
73
72
71
70
68
65
62
59
55
51
48
45
41
39
36
33
30
26
23
20
16
13
10
7
4
1
-1
-3
-5
-6
-6
-6
-6
-5
-5
-5
-6
-7
-9
-10
-11
-12
-13
-13
-12
-12
-11
-10
-10
-10
-10
-11
-11
-12
-13
-13
-13
-13
-12
-12
-11
-11
-11
-11
-11
-11
-12
-12
-12
-12
-12
-12
-11
-11
-12
-12
-13
-13
-14
-13
-13
-12
-11
-9
-9
-8
-9
-10
-11
-12
-14
-14
-15
-14
-13
-12
-10
-9
-9
-8
-8
-9
-9
-9
-10
-10
-10
-11
-11
-12
-13
-13
-14
-13
-13
-11
-10
-8
-7
-6
-6
-7
-9
-11
-12
-14
-15
-15
-15
-14
-13
-13
-12
-12
-13
-14
-15
-16
-16
-16
-16
-15
-14
-13
-12
-12
-11
-12
-12
-13
-14
-15
-16
-17
-18
-18
-18
-17
-17
-16
-16
-16
-16
-17
-18
-18
-19
-19
-19
-19
-18
-17
-16
-16
-16
-16
-16
-16
-16
-17
-17
-17
-17
-17
-17
-17
-17
-17
-17
-17
-17
-16
-17
-17
-17
-18
-19
-20
-20
-20
-20
-19
-17
-16
-15
-14
-13
-13
-13
-13
-13
-12
-12
-11
-10
-8
-7
-5
-4
-2
0
2
4
5
6
7
6
5
3
1
-1
-3
-4
-5
-4
-3
-2
-1
0
0
-1
-3
-6
-8
-11
-14
-16
-18
-19
-20
-21
-21
-21
-21
-21
-20
-20
-19
-19
-20
-21
-22
-23
-23
-24
-24
-23
-22
-22
-22
-22
-23
-23
-24
-23
-20
-16
-9
1
13
28
44
63
82
102
121
138
152
161
163
158
144
123
96
65
32
1
-26
-48
-62
-69
-70
-66
-58
-49
-40
-32
-26
-21
-18
-16
-15
-14
-14
-13
-13
-13
-13
-14
-14
-15
-16
-16
-17
-17
-17
-16
-16
-15
-14
-13
-12
-11
-11
-10
-10
-9
-9
-8
-6
-5
-3
-2
-2
-1
-1
-2
-2
-2
-2
-2
-1
-1
0
1
1
1
0
0
-1
0
0
1
3
5
6
8
10
11
12
13
13
14
14
15
16
18
19
21
23
25
28
30
32
35
37
39
40
42
44
46
48
50
53
56
59
61
63
65
66
66
67
67
68
68
70
71
72
73
73
73
72
70
69
67
65
63
61
59
56
53
49
45
41
37
33
29
26
24
21
19
16
13
10
7
4
1
-1
-2
-4
-5
-6
-8
-10
-12
-15
-16
-18
-18
-18
-18
-17
-16
-15
-15
-15
-17
-18
-20
-21
-23
-23
-24
-24
-24
-23
-23
-22
-22
-22
-22
-22
-22
-22
-22
-22
-22
-22
-21
-21
-20
-20
-20
-20
-20
-21
-22
-22
-23
-22
-21
-20
-19
-18
-18
-18
-19
-20
-21
-23
-23
-23
-23
-21
-20
-18
-17
-16
-17
-17
-19
-20
-21
-22
-22
-21
-20
-19
-18
-17
-16
-17
-17
-18
-20
-21
-22
-24
-25
-25
-26
-26
-27
-26
-26
-25
-24
-22
-21
-21
-21
-21
-22
-23
-25
-27
-28
-29
-29
-29
-29
-28
-27
-27
-26
-26
-26
-26
-26
-26
-26
-26
-26
-26
-26
-26
-26
-26
-27
-27
-27
-27
-26
-26
-26
-26
-27
-27
-27
-27
-27
-27
-27
-26
-26
-26
-27
-27
-27
-28
-28
-28
-28
-28
-27
-26
-24
-23
-22
-21
-20
-20
-19
-19
-18
-17
-16
-14
-13
-11
-10
-9
-9
-9
-9
-10
-10
-10
-10
-10
-9
-8
-8
-8
-9
-10
-11
-13
-14
-16
-17
-17
-18
-18
-18
-19
-20
-22
-24
-25
-27
-27
-28
-28
-27
-26
-26
-26
-26
-26
-27
-28
-28
-28
-28
-27
-27
-26
-26
-26
-26
-26
-25
-23
-20
-14
-6
4
17
33
51
70
89
108
126
139
148
150
144
132
112
86
57
27
-2
-28
-48
-62
-69
-71
-68
-61
-53
-45
-38
-31
-26
-23
-20
-18
-17
-17
-17
-17
-17
-17
-17
-17
-17
-16
-15
-14
-13
-13
-12
-11
-11
-10
-10
-10
-9
-9
-8
-8
-7
-6
-5
-4
-3
-2
-2
-2
-3
-3
-4
-4
-3
-2
-1
1
2
4
5
6
7
7
8
8
9
9
10
10
11
11
11
12
13
14
16
18
21
24
26
27
28
28
28
28
29
30
32
35
38
41
44
47
49
50
52
53
55
58
61
64
68
71
74
75
76
77
77
77
77
77
78
78
78
78
77
76
75
74
72
71
69
68
65
63
59
55
51
46
42
37
33
30
27
25
23
20
18
15
12
10
7
4
2
0
-1
-2
-3
-4
-5
-6
-7
-8
-9
-11
-12
-13
-13
-13
-13
-12
-12
-12
-13
-14
-15
-16
-16
-17
-17
-17
-16
-16
-15
-15
-16
-16
-17
-17
-17
-17
-16
-14
-13
-12
-12
-13
-13
-14
-15
-16
-16
-15
-14
-12
-11
-10
-10
-10
-11
-12
-13
-13
-13
-13
-12
-10
-9
-8
-8
-8
-8
-9
-9
-10
-11
-12
-13
-13
-14
-14
-15
-15
-15
-15
-15
-14
-13
-13
-12
-13
-13
-14
-15
-16
-16
-16
-16
-15
-14
-13
-12
-12
-12
-12
-13
-15
-16
-17
-17
-17
-16
-15
-13
-12
-11
-11
-12
-13
-14
-16
-17
-18
-19
-19
-19
-19
-19
-19
-19
-18
-18
-18
-17
-17
-17
-17
-17
-17
-18
-18
-18
-18
-18
-18
-18
-17
-17
-17
-17
-18
-19
-20
-20
-20
-20
-18
-17
-15
-14
-13
-13
-13
-14
-15
-17
-18
-18
-18
-18
-17
-17
-16
-16
-16
-17
-17
-17
-17
-17
-15
-14
-11
-9
-7
-6
-5
-4
-4
-4
-3
-3
-2
-2
0
1
2
2
3
3
2
2
1
0
-1
-3
-3
-4
-5
-5
-6
-6
-7
-7
-8
-10
-11
-12
-14
-16
-17
-18
-19
-20
-20
-20
-20
-20
-21
-21
-21
-21
-21
-21
-20
-20
-20
-20
-19
-20
-20
-20
-21
-21
-21
-20
-17
-13
-7
2
13
27
44
63
83
103
122
138
151
157
157
150
136
116
90
62
33
5
-19
-38
-51
-58
-60
-58
-53
-46
-39
-32
-26
-21
-17
-15
-13
-12
-12
-12
-13
-14
-15
-15
-16
-16
-16
-15
-15
-14
-14
-13
-13
-12
-12
-11
-10
-8
-7
-6
-6
-6
-6
-7
-8
-8
-8
-8
-7
-6
-4
-3
-1
1
2
3
3
3
3
3
3
3
3
3
4
4
4
4
4
5
6
6
8
9
11
12
14
15
16
17
18
19
21
23
25
27
30
32
35
37
38
40
41
43
45
48
51
54
57
60
63
65
66
67
68
68
69
70
71
72
72
73
73
73
73
72
72
72
73
73
73
72
70
68
64
60
55
51
47
44
42
39
37
34
30
26
21
16
12
9
6
5
4
3
3
2
2
1
-1
-2
-3
-3
-4
-4
-4
-5
-6
-7
-8
-9
-10
-12
-12
-13
-13
-13
-13
-13
-12
-12
-12
-11
-11
-11
-10
-10
-10
-10
-11
-11
-12
-12
-13
-13
-13
-12
-12
-12
-11
-11
-11
-11
-12
-12
-12
-12
-12
-12
-11
-11
-11
-11
-11
-11
-11
-12
-12
-12
-13
-13
-13
-12
-12
-11
-10
-9
-8
-8
-7
-7
-7
-7
-7
-8
-9
-9
-10
-10
-10
-10
-10
-10
-9
-9
-8
-8
-9
-9
-10
-11
-12
-13
-14
-14
-15
-15
-15
-15
-15
-15
-15
-15
-15
-16
-16
-16
-16
-17
-17
-17
-18
-18
-19
-19
-19
-19
-18
-17
-16
-15
-14
-13
-12
-12
-11
-11
-11
-11
-11
-11
-10
-10
-10
-11
-11
-12
-13
-14
-14
-14
-14
-14
-14
-13
-13
-13
-13
-13
-12
-12
-11
-11
-10
-10
-10
-10
-11
-11
-12
-13
-13
-13
-13
-12
-12
-11
-11
-11
-11
-11
-12
