-11
-13
-13
-13
-13
-13
-12
-12
-12
-12
-14
-15
-16
-17
-17
-17
-16
-14
-12
-11
-10
-10
-9
-9
-9
-9
-9
-8
-8
-8
-8
-9
-9
-10
-11
-11
-11
-10
-9
-8
-6
-6
-5
-5
-6
-7
-7
-8
-7
-7
-6
-5
-4
-4
-3
-3
-3
-2
-1
0
1
3
3
3
2
1
-2
-5
-8
-10
-13
-15
-16
-17
-17
-17
-17
-16
-15
-14
-13
-12
-12
-13
-14
-16
-19
-22
-24
-25
-25
-23
-20
-16
-12
-9
-8
-8
-10
-13
-17
-20
-22
-23
-22
-21
-21
-22
-25
-31
-38
-45
-50
-50
-43
-28
-5
26
60
95
127
151
167
171
164
147
124
98
71
46
25
10
0
-5
-7
-7
-6
-5
-4
-5
-7
-9
-12
-15
-17
-18
-19
-19
-19
-18
-17
-16
-16
-16
-16
-16
-16
-15
-15
-14
-13
-12
-12
-13
-14
-15
-17
-18
-19
-19
-19
-18
-17
-15
-14
-13
-12
-12
-11
-11
-11
-11
-11
-11
-11
-11
-11
-11
-11
-12
-12
-12
-13
-12
-12
-11
-10
-9
-8
-7
-6
-6
-7
-8
-9
-10
-10
-10
-10
-9
-7
-6
-4
-3
-3
-3
-4
-5
-6
-6
-7
-6
-5
-4
-2
0
2
5
8
10
13
15
17
18
18
17
15
14
12
12
12
13
15
16
17
17
17
15
14
13
13
14
16
19
22
24
25
24
22
18
14
10
8
6
6
6
7
8
7
6
4
2
1
0
0
2
4
6
7
8
7
5
3
0
-3
-5
-5
-5
-4
-3
-2
-1
-1
-2
-2
-3
-3
-3
-3
-2
-1
0
1
1
2
2
2
2
1
1
1
0
0
-1
-1
-1
-1
0
0
1
1
0
-1
-3
-5
-6
-6
-6
-4
-2
0
2
4
5
5
5
4
4
4
4
4
5
5
5
5
4
4
4
5
7
9
11
13
15
15
15
14
14
13
13
13
14
15
15
15
15
13
11
9
6
5
4
3
3
4
4
5
5
4
4
4
4
5
6
7
8
9
8
7
5
3
0
-2
-3
-3
-2
-1
1
2
4
5
5
5
5
4
3
0
-3
-8
-14
-21
-27
-29
-28
-19
-3
20
49
82
116
147
171
187
192
188
174
153
129
103
78
56
39
25
16
10
7
6
6
6
6
7
7
7
6
5
4
2
1
0
-1
-1
0
0
1
1
0
-1
-2
-3
-4
-4
-4
-3
-1
0
1
2
2
1
0
-1
-2
-2
-2
-2
-1
0
1
1
2
1
1
0
0
-1
-1
-2
-1
-1
-1
0
1
1
2
2
2
2
1
1
0
-1
-1
0
1
3
5
7
8
10
10
10
10
9
9
9
8
8
8
8
8
8
8
9
9
10
11
12
13
13
14
14
14
14
14
14
15
16
17
18
19
20
20
19
19
19
19
19
20
21
22
22
21
20
19
17
15
14
14
14
16
17
17
17
16
14
12
9
7
5
4
4
4
5
6
6
6
5
4
3
1
1
0
0
0
0
-1
-1
-2
-3
-3
-3
-3
-3
-3
-3
-3
-3
-4
-4
-5
-5
-5
-5
-5
-5
-5
-5
-6
-7
-8
-9
-10
-10
-10
-9
-9
-8
-7
-7
-7
-7
-8
-8
-9
-9
-10
-10
-10
-11
-11
-11
-12
-12
-13
-13
-12
-12
-11
-10
-9
-9
-8
-8
-8
-8
-8
-7
-6
-5
-3
-2
0
0
1
0
-1
-2
-4
-5
-6
-6
-5
-4
-3
-2
-1
-1
-2
-4
-6
-8
-11
-13
-14
-15
-16
-16
-17
-18
-19
-20
-21
-21
-21
-20
-19
-18
-17
-16
-16
-17
-17
-19
-20
-21
-21
-21
-21
-21
-21
-20
-20
-20
-21
-22
-24
-27
-32
-37
-43
-48
-50
-48
-40
-25
-4
23
54
86
115
139
156
163
160
148
129
106
80
55
33
14
1
-8
-13
-15
-15
-13
-11
-10
-9
-10
-12
-15
-19
-22
-25
-26
-27
-26
-25
-23
-21
-20
-20
-21
-22
-24
-26
-27
-27
-27
-26
-25
-24
-23
-23
-23
-24
-24
-25
-25
-25
-25
-24
-23
-23
-23
-24
-25
-26
-27
-26
-26
-24
-22
-20
-18
-17
-16
-17
-18
-19
-21
-23
-24
-24
-24
-24
-23
-23
-22
-22
-21
-21
-20
-19
-17
-16
-15
-14
-14
-14
-15
-17
-18
-20
-21
-22
-22
-21
-19
-17
-15
-13
-11
-9
-8
-8
-7
-7
-7
-7
-7
-7
-7
-7
-7
-6
-5
-4
-3
-2
-1
-1
-1
-2
-3
-4
-5
-6
-6
-6
-5
-5
-4
-4
-4
-5
-6
-8
-10
-11
-12
-12
-12
-11
-10
-10
-10
-10
-11
-12
-13
-15
-16
-17
-18
-19
-21
-22
-23
-24
-24
-23
-22
-21
-19
-18
-17
-17
-17
-19
-20
-21
-22
-23
-22
-22
-21
-20
-19
-19
-19
-19
-19
-19
-18
-17
-16
-15
-14
-15
-16
-17
-19
-20
-21
-21
-21
-20
-18
-17
-16
-16
-17
-18
-19
-20
-20
-20
-19
-18
-17
-16
-16
-15
-15
-15
-15
-14
-12
-11
-9
-8
-8
-9
-11
-13
-15
-17
-17
-17
-16
-14
-11
-9
-7
-6
-6
-6
-6
-6
-5
-4
-3
-1
1
3
4
5
5
5
4
3
1
-1
-4
-8
-11
-13
-15
-15
-14
-11
-7
-4
-1
1
1
-1
-3
-6
-9
-11
-12
-11
-10
-9
-7
-6
-6
-7
-8
-9
-10
-11
-11
-10
-8
-7
-6
-6
-7
-11
-16
-22
-29
-33
-35
-32
-22
-4
20
50
84
117
147
171
184
187
179
162
137
109
81
55
34
19
9
4
3
3
5
6
6
5
4
2
0
-2
-4
-5
-5
-5
-5
-4
-3
-2
-1
-1
0
-1
-2
-3
-4
-5
-6
-6
-5
-5
-4
-2
-1
0
1
1
1
1
1
1
1
1
0
0
0
0
0
0
0
-1
-1
-2
-3
-3
-4
-4
-3
-2
0
2
4
6
6
7
6
5
4
3
3
2
2
2
1
1
0
-1
-1
0
1
3
5
8
10
12
13
13
13
12
11
11
11
12
13
14
14
15
16
16
16
17
18
19
21
23
24
26
26
27
27
26
26
25
25
25
25
25
24
24
23
22
21
21
21
21
21
21
21
21
19
18
16
14
12
11
10
10
11
12
12
13
12
12
10
9
7
6
5
5
5
6
7
7
8
9
10
10
10
10
10
10
10
10
10
10
10
10
10
9
7
5
4
2
1
0
0
1
2
3
3
3
3
2
1
1
1
2
3
4
6
6
6
5
4
2
1
0
0
1
3
5
7
8
8
7
6
5
3
2
2
2
2
2
3
3
3
3
4
4
5
6
7
7
8
8
8
8
8
9
9
10
11
11
11
11
11
11
11
11
12
13
15
16
18
19
20
21
21
21
21
20
19
18
16
14
12
10
8
6
6
6
7
8
9
9
8
6
4
2
0
-2
-2
-2
0
2
3
5
5
5
4
2
1
0
-1
-1
0
1
3
3
2
0
-4
-9
-15
-20
-23
-23
-17
-5
14
39
70
103
136
164
185
196
195
182
160
132
100
70
43
23
9
2
-1
-1
0
0
-2
-5
-10
-14
-18
-20
-20
-19
-17
-15
-13
-13
-14
-15
-18
-20
-21
-22
-23
-22
-21
-21
-21
-21
-22
-23
-24
-25
-26
-26
-26
-25
-25
-25
-25
-26
-27
-28
-29
-30
-30
-29
-27
-25
-23
-21
-20
-20
-20
-21
-22
-23
-25
-26
-26
-27
-27
-27
-26
-26
-26
-25
-24
-22
-21
-20
-19
-18
-19
-19
-20
-22
-23
-24
-26
-26
-26
-26
-26
-25
-24
-23
-22
-21
-21
-20
-20
-21
-20
-20
-20
-19
-18
-17
-17
-16
-16
-17
-18
-18
-19
-19
-19
-19
-18
-16
-15
-14
-13
-12
-11
-11
-11
-11
-11
-12
-12
-13
-14
-16
-18
-20
-21
-23
-24
-25
-24
-24
-23
-21
-20
-19
-19
-19
-20
-22
-25
-27
-29
-30
-30
-29
-27
-25
-22
-20
-19
-19
-20
-22
-24
-26
-28
-29
-30
-29
-29
-28
-28
-28
-28
-29
-30
-31
-32
-32
-33
-33
-33
-32
-32
-30
-29
-27
-26
-24
-23
-23
-23
-24
-25
-27
-29
-31
-32
-33
-33
-33
-32
-30
-28
-27
-25
-24
-24
-24
-25
-25
-26
-26
-25
-24
-22
-21
-19
-19
-19
-20
-23
-26
-28
-31
-31
-31
-29
-27
-24
-21
-20
-19
-20
-22
-25
-27
-29
-30
-29
-28
-27
-26
-25
-25
-25
-26
-27
-28
-28
-27
-26
-25
-23
-22
-22
-22
-22
-23
-23
-23
-21
-19
-17
-15
-13
-12
-12
-13
-13
-14
-14
-13
-11
-8
-6
-5
-4
-5
-7
-10
-13
-16
-18
-18
-18
-16
-14
-13
-12
-12
-13
-13
-14
-14
-14
-13
-12
-11
-10
-10
-10
-11
-12
-13
-13
-14
-14
-14
-13
-13
-12
-12
-11
-11
-11
-13
-16
-20
-27
-33
-39
-42
-40
-32
-16
6
36
69
103
135
161
179
187
185
172
153
127
99
72
47
27
12
2
-2
-3
-2
1
2
3
1
-1
-5
-9
-11
-12
-12
-10
-7
-4
-2
-1
-2
-4
-7
-10
-12
-14
-13
-11
-8
-4
0
2
4
4
3
0
-2
-4
-6
-7
-8
-7
-6
-5
-3
-1
0
2
4
5
6
6
5
5
3
2
1
0
0
1
2
3
5
6
7
7
6
5
4
3
2
2
2
2
3
4
5
6
7
8
8
9
10
10
10
10
10
10
11
12
13
15
17
19
20
21
21
20
19
18
18
19
20
23
25
27
29
30
30
29
28
27
26
26
27
28
29
31
32
32
33
32
32
31
31
31
30
29
29
28
27
26
25
25
25
25
26
26
27
27
26
25
24
22
19
17
14
13
12
12
12
14
16
18
19
20
19
18
16
13
11
9
8
9
10
12
15
16
17
17
16
13
10
8
6
5
5
7
9
11
13
14
15
14
13
12
10
9
8
7
7
8
9
10
11
12
13
13
12
11
10
8
6
5
5
5
6
8
10
11
12
11
10
8
5
3
1
0
1
2
4
6
8
10
11
11
11
11
11
10
10
9
8
7
5
3
1
0
-1
-1
0
1
2
4
4
4
3
2
0
-2
-3
-4
-3
-2
0
2
3
3
3
2
0
-1
-2
-2
-2
0
2
4
6
7
8
8
7
7
6
6
7
7
7
7
7
6
4
2
0
-2
-4
-6
-7
-7
-7
-6
-6
-6
-7
-7
-8
-9
-10
-10
-10
-9
-8
-7
-7
-7
-7
-8
-9
-11
-12
-13
-14
-13
-12
-10
-7
-4
-1
0
-1
-4
-10
-18
-27
-36
-42
-44
-39
-27
-8
19
50
85
119
149
173
187
191
185
169
146
118
89
61
38
19
6
-1
-4
-4
-3
-1
0
0
-1
-3
-4
-5
-4
-4
-3
-1
-1
-1
-2
-4
-6
-8
-8
-8
-6
-3
-1
2
3
3
2
-1
-3
-6
-8
-9
-9
-9
-8
-7
-7
-7
-7
-7
-7
-7
-6
-5
-3
-2
-2
-3
-4
-7
-9
-11
-12
-11
-9
-6
-3
0
2
2
1
-2
-5
-7
-9
-10
-10
-8
-6
-3
-1
-1
-1
-2
-4
-5
-6
-7
-6
-5
-2
0
2
4
6
7
7
7
7
6
6
5
5
5
5
6
7
8
10
12
14
16
17
17
17
16
15
13
12
11
11
11
12
12
13
14
14
14
14
14
13
12
11
9
8
6
5
4
4
4
3
3
3
2
1
-1
-3
-6
-7
-9
-9
-9
-9
-8
-8
-8
-9
-11
-12
-14
-15
-16
-15
-14
-12
-11
-9
-8
-8
-9
-10
-11
-12
-13
-13
-12
-12
-11
-11
-11
-12
-13
-15
-16
-16
-16
-15
-14
-12
-11
-10
-9
-9
-11
-12
-14
-16
-17
-17
-17
-16
-15
-14
-13
-13
-14
-14
-16
-17
-18
-18
-17
-17
-15
-14
-12
-12
-11
-12
-12
-13
-15
-16
-17
-18
-18
-18
-18
-17
-16
-15
-13
-12
-10
-10
-9
-9
-10
-11
-13
-14
-15
-15
-15
-15
-14
-14
-13
-13
-14
-14
-14
-14
-14
-14
-14
-14
-14
-14
-15
-15
-15
-15
-15
-15
-14
-14
-13
-13
-13
-13
-12
-12
-12
-11
-11
-10
-10
-9
-8
-7
-6
-5
-4
-3
-4
-5
-7
-10
-13
-15
-17
-19
-19
-19
-19
-18
-18
-19
-19
-20
-21
-21
-20
-19
-18
-17
-17
-17
-18
-19
-20
-21
-21
-20
-19
-18
-16
-15
-14
-14
-14
-16
-17
-20
-23
-28
-32
-37
-41
-43
-41
-33
-20
0
27
57
90
121
147
166
175
173
161
141
115
86
58
33
13
-2
-11
-16
-17
-17
-15
-13
-12
-12
-12
-13
-14
-16
-17
-19
-21
-22
-22
-22
-21
-19
-17
-14
-13
-12
-12
-13
-14
-17
-19
-21
-22
-23
-23
-22
-22
-20
-19
-17
-16
-15
-14
-14
-14
-15
-17
-19
-20
-21
-21
-20
-18
-15
-13
-11
-11
-12
-13
-15
-18
-19
-19
-19
-17
-15
-14
-13
-13
-15
-17
-19
-21
-22
-21
-20
-18
-16
-14
-12
-12
-12
-12
-13
-13
-13
-12
-10
-8
-7
-6
-5
-5
-6
-7
-7
-7
-5
-3
-1
2
4
5
6
5
4
3
1
0
0
1
2
3
5
7
8
9
10
11
11
11
11
11
11
10
10
9
8
7
5
4
2
1
0
-2
-3
-3
-4
-5
-6
-6
-6
-7
-7
-7
-7
-8
-8
-9
-9
-10
-11
-12
-13
-14
-15
-15
-16
-16
-15
-15
-14
-13
-12
-11
-10
-9
-9
-9
-10
-11
-12
-13
-13
-13
-12
-11
-10
-10
-10
-11
-13
-15
-17
-18
-19
-20
-19
-18
-17
-15
-14
-13
-13
-13
-12
-12
-11
-10
-9
-8
-8
-8
-9
-11
-13
-14
-16
-17
-16
-15
-13
-11
-8
-6
-4
-4
-4
-6
-8
-10
-12
-14
-15
-14
-13
-11
-9
-6
-5
-4
-5
-6
-8
-10
-11
-11
-10
-8
-6
-4
-3
-2
-4
-6
-9
-12
-14
-15
-15
-15
-13
-11
-9
-8
-8
-8
-9
-11
-12
-12
-12
-11
-9
-7
-5
-3
-2
-1
0
0
1
1
2
3
3
3
3
2
1
-1
-2
-3
-3
-3
-2
0
2
4
5
5
4
3
0
-2
-4
-6
-7
-8
-9
-9
-9
-9
-9
-8
-8
-7
-7
-6
-5
-5
-4
-4
-5
-5
-6
-6
-7
-7
-7
-7
-8
-8
-8
-9
-11
-13
-17
-21
-27
-32
-37
-38
-36
-28
-12
11
40
74
111
145
174
195
204
202
189
167
139
109
80
55
35
22
13
9
7
7
6
5
3
0
-3
-5
-7
-8
-7
-6
-5
-3
-2
-1
0
0
-1
-1
-2
-4
-5
-6
-8
-9
-11
-11
-12
-12
-11
-10
-9
-7
-5
-4
-4
-4
-4
-6
-7
-8
-8
-7
-6
-5
-3
-1
0
1
0
0
-1
-2
-2
-2
-2
-2
-2
-2
-2
-3
-4
-4
-4
-4
-3
-2
-1
1
2
3
4
5
6
6
6
6
6
6
5
5
5
5
5
5
6
6
7
8
9
11
12
13
14
15
16
16
16
15
15
15
15
15
17
18
20
22
23
23
23
23
22
21
21
22
23
24
25
25
25
25
23
22
20
19
19
19
19
18
18
16
14
12
9
7
6
5
5
5
5
6
5
4
3
2
1
0
0
1
2
3
3
3
2
1
-1
-2
-3
-3
-3
-2
-1
-1
-1
-1
-2
-3
-4
-5
-5
-4
-3
-2
-1
-1
-1
-2
-3
-4
-6
-7
-8
-8
-7
-6
-5
-4
-3
-3
-2
-2
-1
-1
-1
0
0
0
0
0
0
0
0
0
0
0
0
0
0
0
0
0
-1
-1
-1
-2
-2
-3
-3
-4
-5
-5
-5
-5
-4
-3
-2
-1
0
0
0
0
-1
-2
-3
-3
-3
-3
-2
-1
-1
-2
-2
-4
-6
-8
-9
-10
-9
-8
-6
-4
-2
0
1
1
0
-1
-3
-4
-5
-5
-4
-2
0
2
4
6
7
8
8
7
7
6
5
5
4
4
4
4
3
2
1
0
-2
-3
-5
-6
-6
-6
-5
-4
-3
-2
-1
-2
-3
-5
-7
-9
-11
-12
-13
-12
-10
-9
-7
-7
-7
-9
-11
-13
-15
-16
-16
-15
-13
-13
-14
-17
-23
-31
-39
-46
-48
-44
-32
-10
20
56
96
135
169
194
209
211
202
183
157
126
95
67
43
23
10
2
-3
-5
-5
-4
-4
-4
-5
-6
-8
-11
-13
-15
-16
-17
-17
-16
-15
-14
-13
-12
-11
-11
-11
-11
-13
-14
-16
-17
-19
-19
-19
-19
-18
-17
-15
-14
-14
-13
-14
-14
-15
-15
-16
-15
-14
-13
-11
-10
-9
-9
-10
-12
-14
-16
-18
-19
-19
-18
-16
-14
-12
-10
-9
-9
-10
-11
-12
-12
-12
-11
-10
-8
-7
-6
-6
-6
-7
-8
-9
-10
-10
-9
-8
-7
-5
-4
-3
-3
-3
-3
-3
-3
-3
-3
-2
-1
0
2
4
6
7
8
9
10
11
11
11
12
12
13
13
14
15
16
16
16
16
15
14
12
11
10
9
8
8
9
10
10
11
10
9
7
4
1
-2
-4
-5
-6
-5
-4
-3
-3
-3
-4
-6
-8
-10
-11
-12
-11
-10
-9
-7
-7
-7
-9
-10
-12
-14
-14
-14
-13
-12
-10
-10
-9
-10
-11
-12
-14
-14
-15
-14
-13
-12
-11
-11
-11
-13
-14
-15
-16
-16
-15
-13
-11
-10
-8
-8
-9
-10
-11
-13
-13
-14
-13
-12
-11
-11
-10
-11
-11
-12
-13
-13
-12
-11
-10
-9
-8
-7
-8
-8
-9
-10
-11
-12
-12
-11
-11
-11
-11
-11
-12
-13
-13
-14
-14
-14
-14
-14
-14
-15
-16
-16
-16
-15
-14
-12
-10
-8
-7
-8
-9
-11
-14
-17
-18
-19
-17
-15
-12
-9
-6
-5
-5
-7
-10
-13
-15
-16
-16
-13
-10
-6
-1
2
5
6
7
6
5
4
3
3
2
2
1
0
-2
-4
-6
-9
-11
-12
-14
-14
-14
-14
-14
-14
-13
-13
-13
-13
-14
-14
-15
-15
-16
-16
-16
-16
-16
-16
-15
-15
-15
-16
-16
-16
-16
-16
-16
-16
-16
-16
-18
-22
-28
-35
-42
-49
-53
-52
-44
-29
-5
26
62
100
137
168
191
203
203
192
172
144
113
82
54
30
13
1
-5
-8
-7
-6
-5
-5
-5
-7
-10
-12
-15
-16
-18
-18
-19
-19
-20
-20
-21
-21
-21
-21
-20
-19
-18
-18
-18
-18
-19
-20
-21
-22
-22
-21
-20
-19
-17
-16
-15
-14
-14
-14
-15
-15
-15
-15
-15
-15
-16
-17
-18
-19
-20
-20
-19
-18
-16
-15
-14
-13
-13
-13
-13
-12
-12
-10
-9
-8
-7
-8
-9
-11
-13
-14
-15
-14
-13
-11
-8
-6
-4
-3
-4
-5
-6
-6
-6
-5
-3
0
2
3
4
3
2
2
1
2
3
6
9
11
13
13
12
10
8
5
4
4
5
6
8
10
12
13
13
14
14
14
16
17
19
20
21
21
19
17
14
10
7
4
2
0
-1
-2
-3
-4
-4
-5
-4
-4
-3
-3
-2
-3
-4
-5
-6
-7
-7
-6
-5
-3
-2
-1
0
-1
-2
-4
-6
-7
-8
-8
-8
-7
-6
-5
-4
-4
-4
-4
-4
-5
-5
-5
-6
-6
-7
-8
-9
-10
-11
-10
-10
-9
-8
-7
-6
-6
-7
-8
-9
-10
-10
-10
-9
-7
-6
-4
-3
-3
-2
-2
-2
-2
-2
-1
-1
-1
-1
-2
-3
-4
-6
-7
-8
-9
-9
-8
-7
-7
-6
-5
-4
-4
-3
-3
-2
-2
-3
-3
-4
-5
-5
-6
-5
-4
-3
-2
-1
-1
-2
-2
-3
-5
-5
-5
-5
-4
-3
-2
-1
-1
-1
-2
-3
-3
-4
-4
-3
-1
1
2
4
5
5
5
4
3
3
3
3
4
5
6
7
7
7
6
5
4
3
2
0
-1
-2
-4
-5
-6
-8
-9
-9
-10
-10
-9
-9
-8
-6
-5
-4
-4
-3
-3
-2
-2
-2
-2
-3
-4
-5
-7
-8
-10
-11
-11
-11
-11
-12
-13
-17
-22
-27
-33
-36
-35
-28
-13
11
42
78
116
152
182
202
211
207
192
169
140
109
79
54
33
18
9
3
1
0
-1
-2
-2
-4
-5
-6
-8
-9
-10
-11
-11
-11
-11
-11
-11
-10
-10
-9
-9
-9
-9
-9
-9
-9
-10
-10
-11
-12
-14
-16
-17
-18
-18
-17
-15
-12
-9
-7
-6
-5
-5
-7
-8
-10
-11
-11
-11
-11
-10
-10
-9
-10
-10
-10
-10
-10
-9
-8
-7
-6
-6
-6
-7
-8
-9
-10
-11
-11
-10
-9
-8
-7
-6
-6
-6
-6
-7
-7
-6
-6
-5
-4
-3
-2
-1
-1
0
0
1
3
5
7
8
10
10
10
9
7
5
4
3
4
5
8
11
14
16
18
19
19
18
17
17
17
17
18
19
19
19
19
17
15
13
11
9
8
8
8
8
8
7
5
4
2
0
-1
-1
-1
-1
-1
-1
-1
-2
-4
-5
-7
-8
-9
-9
-9
-9
-8
-7
-7
-7
-7
-7
-8
-9
-10
-11
-13
-14
-14
-14
-14
-13
-12
-10
-9
-8
-7
-8
-9
-10
-11
-12
-12
-12
-10
-9
-8
-7
-7
-7
-8
-10
-11
-12
-12
-12
-10
-8
-6
-4
-2
-2
-2
-3
-5
-7
-9
-10
-11
-11
-11
-10
-9
-9
-9
-9
-9
-10
-10
-9
-8
-7
-6
-4
-3
-3
-3
-4
-5
-7
-8
-9
-9
-9
-8
-7
-6
-4
-3
-3
-3
-3
-5
-6
-8
-10
-12
-13
-13
-12
-11
-10
-9
-8
-8
-8
-8
-8
-8
-7
-6
-3
-1
2
4
6
6
6
4
3
2
1
1
2
2
3
4
4
3
1
-1
-4
-7
-9
-11
-12
-14
-14
-15
-14
-13
-12
-11
-9
-8
-8
-9
-11
-13
-16
-18
-19
-19
-18
-16
-14
-12
-11
-11
-13
-15
-17
-18
-19
-18
-18
-17
-17
-20
-24
-30
-36
-39
-37
-29
-12
14
47
85
124
159
186
203
207
199
180
154
123
92
64
40
22
9
2
-2
-4
-4
-5
-5
-5
-6
-6
-7
-8
-9
-10
-11
-12
-13
-13
-14
-14
-14
-14
-14
-15
-16
-18
-19
-20
-20
-19
-18
-16
-14
-12
-11
-10
-10
-10
-11
-12
-13
-14
-14
-14
-13
-12
-10
-9
-8
-8
-8
-9
-10
-11
-12
-12
-12
-10
-9
-7
-5
-4
-3
-4
-6
-8
-10
-11
-12
-11
-10
-8
-6
-5
-4
-5
-6
-7
-8
-9
-9
-8
-6
-4
-2
0
1
2
3
4
5
7
8
8
8
6
4
1
-1
-3
-3
-1
3
7
12
16
19
20
20
18
15
13
12
12
14
16
18
20
20
19
16
13
9
6
4
3
4
6
9
10
11
11
9
7
4
2
0
-1
-1
0
1
2
2
1
-1
-3
-5
-8
-10
-11
-12
-13
-14
-14
-14
-14
-13
-12
-10
-8
-6
-3
-2
-1
-2
-4
-7
-9
-12
-14
-15
-14
-12
-10
-8
-6
-5
-5
-6
-8
-10
-13
-14
-15
-14
-14
-12
-11
-9
-9
-8
-8
-9
-9
-9
-9
-9
-9
-8
-8
-7
-7
-6
-6
-6
-7
-7
-8
-9
-9
-9
-9
-8
-7
-5
-4
-2
-1
-1
-2
-4
-7
-9
-10
-11
-11
-9
-7
-4
-2
-1
-1
-2
-4
-6
-8
-10
-10
-9
-7
-4
-2
0
1
0
-2
-4
-7
-9
-11
-11
-10
-8
-6
-4
-2
-1
1
1
2
2
4
5
7
9
11
13
14
13
12
11
8
6
3
2
1
0
1
1
2
2
1
0
-2
-4
-6
-7
-8
-7
-6
-5
-4
-4
-4
-6
-8
-10
-12
-13
-14
-14
-13
-12
-12
-13
-14
-15
-16
-16
-16
-15
-14
-14
-15
-19
-24
-32
-40
-46
-48
-44
-32
-11
18
53
92
131
166
193
209
213
205
186
159
127
94
64
39
20
7
0
-2
-2
-1
0
0
-1
-3
-6
-9
-12
-14
-15
-16
-16
-17
-18
-19
-21
-23
-24
-25
-26
-26
-25
-23
-22
-21
-20
-19
-19
-19
-19
-19
-19
-18
-18
-18
-17
-18
-18
-19
-19
-20
-20
-20
-20
-20
-19
-19
-19
-18
-18
-18
-18
-18
-18
-18
-17
-17
-17
-17
-17
-17
-17
-17
-16
-15
-14
-13
-12
-11
-10
-10
-11
-12
-13
-14
-15
-15
-14
-13
-11
-9
-6
-5
-3
-3
-2
-3
-3
-3
-3
-3
-2
-1
-1
0
0
0
1
1
1
2
3
5
7
8
10
11
11
10
10
8
7
6
5
5
4
5
5
6
7
8
8
9
8
7
6
5
3
2
1
0
-1
-1
-1
-1
-1
-1
0
0
-1
-1
-2
-3
-5
-6
-7
-7
-8
-8
-8
-8
-8
-8
-9
-10
-11
-12
-12
-12
-10
-8
-6
-4
-3
-4
-5
-8
-11
-14
-16
-17
-16
-14
-11
-8
-6
-4
-4
-4
-6
-7
-8
-9
-10
-9
-8
-8
-7
-6
-6
-5
-5
-4
-4
-3
-3
-3
-3
-4
-5
-6
-6
-7
-6
-6
-5
-5
-4
-3
-2
-1
0
0
0
0
0
0
-1
-2
-3
-4
-4
-4
-3
-2
-1
0
0
1
1
0
-1
-2
-2
-3
-4
-4
-4
-4
-4
-4
-4
-4
-3
-2
0
2
4
6
7
8
8
8
7
7
6
6
6
6
7
7
7
6
5
3
0
-3
-5
-7
-9
-10
-10
-10
-9
-9
-8
-8
-8
-8
-8
-9
-10
-11
-13
-13
-14
-13
-12
-10
-8
-7
-6
-6
-7
-9
-10
-11
-12
-12
-12
-13
-16
-20
-27
-35
-43
-50
-51
-46
-32
-9
23
62
103
143
178
205
219
222
212
192
165
133
101
71
45
25
10
1
-3
-5
-4
-3
-2
-2
-3
-5
-7
-9
-11
-13
-13
-13
-12
-12
-11
-10
-11
-11
-13
-14
-16
-17
-18
-18
-18
-17
-16
-16
-15
-14
-14
-14
-14
-15
-15
-16
-17
-18
-18
-19
-19
-19
-19
-18
-16
-15
-13
-12
-12
-12
-12
-13
-14
-16
-16
-16
-16
-15
-14
-13
-12
-12
-11
-11
-11
-11
-11
-11
-10
-10
-9
-8
-8
-8
-9
-9
-10
-10
-10
-9
-8
-6
-5
-4
-3
-3
-3
-3
-3
-3
-2
-1
1
4
6
8
9
10
11
11
10
9
9
9
9
11
12
15
17
19
20
21
21
19
17
15
13
11
9
8
7
7
6
5
4
2
0
-2
-3
-4
-4
-4
-3
-2
-1
-1
-2
-3
-5
-7
-9
-10
-10
-10
-9
-8
-7
-7
-7
-8
-10
-12
-14
-16
-16
-16
-15
-13
-10
-7
-4
-2
-2
-2
-3
-5
-6
-8
-9
-10
-10
-10
-10
-11
-11
-12
-13
-13
-14
-14
-13
-12
-10
-8
-7
-6
-5
-5
-5
-6
-7
-7
-8
-8
-8
-8
-8
-9
-10
-11
-11
-12
-11
-10
-9
-7
-5
-3
-3
-3
-4
-6
-9
-11
-12
-13
-12
-10
-8
-6
-4
-3
-3
-3
-5
-6
-7
-8
-8
-7
-5
-3
-1
0
1
2
3
3
4
5
6
7
9
10
11
12
13
14
14
14
14
13
11
9
6
3
0
-4
-6
-8
-9
-9
-9
-8
-8
-8
-8
-9
-9
-10
-11
-11
-10
-10
-9
-9
-9
-9
-10
-11
-11
-12
-12
-12
-12
-11
-10
-9
-8
-7
-7
-8
-11
-16
-22
-30
-39
-46
-51
-51
-44
-28
-3
31
70
112
152
187
212
224
224
212
190
160
128
96
68
44
27
15
7
4
2
1
1
0
-2
-3
-5
-7
-9
-11
-12
-13
-13
-14
-14
-13
-13
-12
-12
-12
-12
-12
-13
-14
-15
-15
-16
-16
-16
-16
-16
-16
-15
-15
-14
-13
-12
-11
-10
-9
-9
-9
-10
-10
-11
-11
-12
-11
-10
-9
-8
-7
-6
-6
-7
-7
-8
-9
-10
-10
-9
-8
-6
-4
-3
-2
-2
-3
-5
-7
-9
-10
-11
-10
-9
-7
-4
-2
0
1
1
1
0
0
0
0
0
1
2
3
4
5
6
7
9
10
11
12
13
14
14
14
14
13
12
12
11
10
10
10
10
11
12
12
13
14
15
15
14
13
12
10
8
7
6
5
5
5
5
5
5
4
3
2
2
2
2
3
3
4
4
3
1
-1
-3
-5
-6
-6
-6
-5
-4
-3
-3
-4
-6
-8
-10
-11
-11
-10
-7
-4
-1
1
3
3
2
0
-2
-4
-5
-6
-6
-5
-5
-4
-4
-5
-6
-8
-9
-9
-10
-9
-8
-7
-6
-5
-5
-6
-6
-6
-7
-7
-7
-7
-8
-8
-9
-10
-12
-13
-13
-13
-12
-11
-9
-8
-6
-5
-5
-5
-5
-5
-6
-6
-6
-7
-6
-6
-6
-5
-5
-5
-5
-5
-5
-5
-5
-6
-5
-5
-4
-3
-2
-1
0
1
2
2
2
2
1
1
0
-1
-2
-3
-5
-6
-8
-9
-10
-11
-11
-11
-10
-9
-8
-8
-8
-8
-9
-11
-12
-12
-12
-11
-9
-6
-4
-2
-1
-2
-4
-7
-10
-14
-16
-17
-16
-14
-12
-10
-10
-11
-15
-21
-29
-35
-40
-40
-35
-23
-4
21
52
84
116
143
164
175
176
166
146
120
91
62
36
15
1
-7
-9
-7
-3
0
2
2
-1
-4
-7
-10
-11
-11
-9
-8
-6
-5
-5
-7
-8
-10
-12
-13
-13
-12
-11
-10
-10
-10
-11
-12
-13
-14
-14
-13
-13
-13
-13
-14
-16
-18
-19
-20
-19
-18
-15
-13
-10
-8
-7
-7
-9
-11
-13
-15
-16
-15
-14
-13
-12
-11
-12
-13
-15
-18
-19
-20
-20
-19
-16
-14
-12
-11
-10
-10
-11
-13
-14
-14
-14
-14
-13
-12
-11
-10
-10
-10
-11
-11
-11
-11
-10
-9
-7
-5
-3
-1
0
1
2
2
2
2
2
3
3
4
5
5
5
5
5
4
3
3
3
3
4
6
7
9
9
9
8
6
4
1
-3
-5
-8
-10
-11
-12
-12
-11
-10
-9
-8
-8
-7
-7
-8
-9
-10
-11
-12
-12
-13
-12
-12
-11
-10
-10
-10
-11
-12
-13
-14
-15
-16
-16
-16
-16
-16
-15
-15
-15
-15
-15
-15
-15
-15
-15
-15
-14
-13
-13
-12
-12
-13
-13
-13
-14
-14
-14
-13
-13
-13
-12
-12
-12
-12
-13
-13
-13
-13
-12
-11
-10
-8
-8
-7
-7
-8
-9
-10
-11
-12
-13
-13
-13
-13
-13
-13
-13
-12
-12
-10
-9
-7
-5
-3
-2
-2
-2
-3
-4
-5
-7
-7
-7
-6
-4
-3
-1
1
2
3
3
4
4
4
5
5
5
5
4
3
1
-1
-3
-4
-6
-7
-8
-10
-10
-11
-12
-12
-12
-11
-10
-8
-7
-6
-6
-6
-7
-9
-11
-13
-14
-15
-14
-13
-11
-8
-6
-4
-3
-3
-3
-4
-6
-10
-14
-20
-26
-32
-38
-41
-40
-34
-22
-3
22
52
84
115
142
162
174
175
167
150
126
99
72
46
25
9
-1
-6
-6
-5
-3
-1
0
-1
-3
-6
-9
-12
-13
-13
-13
-11
-10
-8
-8
-9
-10
-12
-14
-15
-15
-13
-11
-7
-4
-2
-1
-2
-4
-7
-11
-14
-16
-16
-15
-12
-10
-7
-6
-6
-7
-9
-12
-14
-15
-15
-13
-10
-7
-4
-2
0
0
-1
-2
-3
-4
-5
-4
-3
-2
-1
0
-1
-2
-3
-5
-7
-8
-8
-7
-5
-2
1
4
5
6
5
4
2
-1
-3
-4
-4
-2
0
2
5
7
9
10
11
11
10
9
9
8
8
9
10
12
13
14
15
15
15
14
13
13
13
13
14
16
17
17
17
16
14
12
11
9
9
9
11
12
13
13
12
9
6
2
-1
-3
-4
-3
-1
2
4
6
6
6
4
1
-1
-4
-5
-6
-6
-5
-4
-3
-3
-2
-3
-3
-3
-4
-4
-4
-5
-5
-5
-5
-5
-5
-4
-3
-3
-2
-3
-3
-4
-6
-8
-9
-11
-11
-11
-11
-10
-9
-7
-6
-5
-4
-4
-4
-4
-4
-5
-7
-8
-9
-10
-11
-11
-10
-9
-7
-6
-4
-2
-1
0
0
0
0
0
0
0
0
0
1
1
1
1
1
1
0
0
0
0
0
0
-1
-1
-2
-2
-2
-1
0
1
3
5
6
8
8
8
7
7
5
4
4
3
3
3
4
4
3
2
1
0
-1
-3
-4
-5
-5
-6
-6
-6
-7
-7
-7
-7
-8
-8
-8
-8
-8
-9
-9
-9
-10
-10
-10
-10
-9
-9
-8
-8
-7
-7
-7
-6
-7
-8
-10
-14
-19
-25
-30
-33
-33
-26
-13
8
35
68
102
135
161
178
184
179
162
137
107
77
49
26
10
1
-2
-2
0
2
2
1
-1
-4
-8
-10
-12
-12
-12
-12
-11
-11
-12
-12
-13
-14
-15
-15
-15
-14
-13
-12
-12
-11
-11
-10
-9
-8
-7
-6
-6
-6
-7
-8
-9
-10
-10
-10
-10
-9
-9
-8
-8
-9
-9
-10
-11
-12
-12
-12
-13
-13
-13
-14
-14
-14
-14
-12
-10
-8
-5
-3
-2
-3
-4
-6
-8
-11
-12
-12
-12
-10
-9
-7
-6
-6
-6
-7
-8
-8
-8
-7
-5
-3
-1
1
3
4
4
5
5
6
6
7
8
8
8
8
7
7
7
8
9
11
13
15
16
16
16
15
13
12
11
11
11
12
12
12
12
11
9
8
7
7
8
8
9
9
8
6
4
1
-2
-4
-6
-6
-6
-5
-5
-4
-5
-6
-7
-8
-9
-10
-9
-8
-6
-5
-4
-4
-4
-5
-6
-8
-9
-9
-9
-8
-8
-7
-7
-7
-8
-9
-10
-12
-13
-14
-14
-15
-15
-14
-14
-13
-12
-12
-11
-10
-10
-9
-9
-10
-10
-10
-10
-10
-10
-10
-10
-9
-9
-10
-10
-10
-11
-10
-10
-9
-8
-8
-7
-7
-8
-8
-9
-10
-10
-10
-9
-9
-7
-6
-6
-5
-6
-6
-7
-8
-8
-9
-10
-10
-10
-9
-8
-7
-5
-3
-1
0
0
-1
-3
-6
-8
-10
-10
-9
-6
-3
0
3
4
3
1
-2
-4
-6
-5
-4
0
3
6
7
7
4
0
-5
-10
-13
-15
-14
-13
-10
-8
-6
-6
-8
-10
-12
-14
-15
-15
-14
-13
-11
-11
-10
-10
-11
-11
-11
-11
-10
-10
-11
-12
-13
-15
-16
-17
-17
-17
-18
-20
-23
-27
-32
-37
-38
-35
-25
-8
17
48
81
115
144
166
178
179
170
152
128
101
74
49
28
12
1
-6
-9
-9
-7
-5
-3
-2
-1
-2
-5
-8
-11
-14
-16
-18
-18
-16
-15
-12
-11
-9
-9
-10
-11
-13
-15
-16
-17
-17
-16
-15
-14
-13
-13
-13
-13
-13
-13
-12
-11
-10
-9
-8
-8
-9
-10
-11
-13
-14
-15
-15
-15
-13
-12
-10
-9
-8
-8
-8
-10
-11
-13
-15
-16
-17
-16
-14
-11
-8
-5
-3
-1
-2
-3
-5
-8
-11
-14
-15
-14
-13
-10
-7
-4
-1
1
2
3
2
1
0
-2
-2
-2
-1
1
3
5
7
8
8
7
5
3
2
1
2
4
8
11
15
18
19
20
19
17
15
14
13
13
14
15
17
17
16
15
12
9
6
4
2
1
1
1
2
3
3
3
2
1
-1
-2
-4
-5
-7
-8
-8
-8
-8
-7
-6
-5
-4
-4
-5
-6
-7
-9
-11
-12
-12
-12
-11
-9
-8
-7
-6
-6
-5
-5
-4
-4
-4
-5
-5
-6
-8
-9
-10
-11
-12
-12
-11
-10
-9
-7
-6
-5
-5
-5
-5
-5
-6
-7
-8
-9
-10
-11
-11
-10
-8
-6
-4
-2
-1
-1
-2
-3
-5
-7
-9
-9
-9
-8
-8
-7
-7
-8
-10
-12
-14
-15
-15
-14
-12
-10
-7
-5
-4
-3
-3
-4
-5
-6
-7
-8
-9
-9
-10
-10
-10
-10
-9
-8
-7
-6
-4
-3
-2
-2
-2
-3
-3
-4
-4
-5
-4
-3
-1
1
3
4
5
4
3
1
-1
-2
-3
-3
-2
0
3
5
6
5
3
0
-4
-9
-13
-16
-17
-17
-16
-14
-12
-10
-9
-8
-9
-10
-11
-13
-14
-14
-14
-14
-13
-12
-12
-11
-11
-11
-12
-13
-15
-15
-16
-16
-15
-15
-15
-16
-20
-24
-30
-36
-40
-41
-36
-23
-4
23
54
89
122
150
171
181
181
170
150
125
97
69
43
22
7
-4
-10
-12
-11
-10
-8
-6
-5
-5
-6
-7
-9
-11
-12
-14
-14
-14
-14
-14
-13
-13
-13
-13
-13
-14
-14
-15
-15
-15
-15
-14
-14
-14
-15
-15
-16
-16
-16
-15
-14
-13
-11
-9
-7
-7
-7
-7
-9
-11
-12
-14
-15
-14
-14
-12
-10
-9
-8
-7
-7
-8
-9
-9
-9
-8
-8
-7
-7
-8
-10
-13
-15
-18
-20
-20
-18
-15
-11
-7
-4
-1
0
0
-2
-4
-6
-7
-7
-6
-4
-1
2
4
5
5
5
3
2
1
1
1
2
3
5
6
7
8
8
8
9
9
10
12
13
15
17
18
18
18
17
16
15
14
13
13
12
12
12
12
10
9
6
4
2
0
0
1
3
5
7
8
8
7
5
2
-1
-4
-5
-5
-3
-1
1
2
3
3
2
1
0
-1
0
1
3
5
6
7
7
7
6
5
4
4
5
7
8
9
10
10
8
7
5
3
2
1
1
1
1
1
1
1
1
1
2
3
4
4
5
5
4
3
3
2
2
2
3
3
4
5
5
4
3
1
0
-1
0
1
2
4
5
6
5
4
3
1
-1
-2
-3
-3
-2
0
1
1
2
2
1
1
0
0
1
1
2
2
2
2
2
2
2
2
3
3
3
2
1
-1
-4
-6
-8
-9
-8
-6
-4
-1
1
3
2
1
-2
-6
-9
-11
-12
-12
-10
-7
-5
-2
-1
-1
-2
-4
-6
-7
-8
-8
-8
-6
-5
-3
-2
-2
-3
-4
-5
-6
-7
-7
-7
-6
-5
-5
-5
-5
-5
-6
-8
-9
-10
-11
-11
-11
-11
-12
-13
-14
-16
-17
-18
-19
-19
-19
-18
-17
-16
-16
-17
-18
-19
-21
-22
-22
-22
-21
-20
-19
-18
-18
-19
-20
-21
-22
-23
-24
-26
-28
-32
-37
-42
-48
-51
-50
-43
-30
-9
19
51
85
117
144
162
170
167
154
133
107
79
52
28
9
-5
-14
-19
-21
-22
-22
-23
-24
-25
-26
-27
-28
-28
-27
-25
-24
-22
-21
-21
-20
-20
-20
-19
-18
-17
-15
-13
-12
-10
-9
-9
-10
-11
-12
-13
-13
-13
-13
-12
-10
-9
-8
-7
-7
-7
-7
-8
-8
-8
-8
-7
-7
-6
-6
-5
-5
-5
-5
-4
-4
-3
-2
-1
0
1
2
2
3
3
2
2
2
1
1
1
2
3
4
6
7
7
8
7
6
5
5
4
5
6
9
11
13
15
16
16
15
13
11
9
9
9
11
14
17
20
23
25
26
26
25
24
23
22
22
23
24
25
26
27
27
27
27
26
25
24
23
22
21
21
20
19
19
18
17
17
16
15
14
13
12
10
9
7
5
4
3
2
2
2
3
3
2
1
0
-1
-2
-3
-3
-2
-1
0
2
3
3
3
2
1
-1
-2
-3
-3
-3
-1
0
1
2
2
1
0
-2
-4
-5
-6
-6
-5
-3
-2
-1
0
0
-1
-2
-5
-7
-9
-11
-12
-12
-11
-9
-7
-5
-3
-2
-2
-2
-3
-4
-5
-5
-6
-6
-5
-5
-4
-3
-3
-3
-4
-4
-4
-5
-5
-5
-5
-4
-4
-4
-4
-4
-5
-6
-7
-8
-8
-9
-8
-7
-6
-6
-5
-4
-4
-4
-5
-5
-5
-5
-4
-3
-2
-2
-1
-2
-2
-4
-5
-6
-7
-7
-7
-6
-5
-4
-3
-4
-5
-6
-8
-9
-9
-9
-8
-6
-4
-3
-2
-2
-3
-4
-6
-8
-9
-11
-12
-12
-13
-13
-13
-13
-13
-12
-11
-10
-8
-6
-5
-3
-2
-2
-1
-1
0
0
1
1
2
3
3
3
3
3
2
2
1
-1
-2
-3
-5
-7
-8
-10
-11
-11
-11
-11
-10
-9
-8
-7
-7
-7
-8
-9
-10
-11
-12
-11
-11
-10
-10
-9
-10
-10
-12
-13
-15
-16
-16
-15
-13
-12
-10
-9
-9
-11
-15
-20
-26
-31
-36
-37
-35
-27
-13
8
35
65
98
129
156
175
184
183
171
150
123
94
65
40
20
7
-1
-4
-4
-3
-2
-1
-2
-4
-7
-9
-12
-13
-14
-15
-16
-16
-17
-18
-19
-20
-20
-21
-21
-20
-20
-20
-19
-19
-19
-19
-19
-19
-18
-16
-15
-13
-11
-10
-10
-10
-11
-13
-14
-16
-17
-17
-16
-15
-13
-11
-10
-9
-8
-9
-10
-11
-12
-14
-15
-16
-16
-16
-16
-15
-14
-13
-13
-12
-12
-13
-14
-15
-15
-15
-15
-14
-12
-10
-9
-7
-6
-6
-6
-7
-8
-8
-9
-9
-9
-8
-6
-5
-3
-1
0
2
3
4
5
6
6
6
6
6
5
5
5
6
7
9
11
13
16
18
19
20
19
19
17
16
14
12
11
10
10
10
10
10
9
8
7
6
5
4
3
2
1
1
0
-1
-2
-3
-4
-5
-5
-6
-6
-6
-7
-7
-8
-8
-9
-10
-10
-10
-9
-9
-8
-7
-6
-6
-6
-6
-7
-7
-8
-8
-8
-8
-8
-9
-9
-10
-11
-11
-11
-11
-10
-9
-8
-7
-6
-6
-6
-7
-7
-8
-8
-8
-9
-9
-10
-11
-12
-13
-13
-14
-13
-13
-11
-10
-9
-8
-7
-7
-7
-6
-6
-6
-5
-5
-5
-5
-6
-6
-7
-8
-8
-7
-6
-5
-4
-3
-3
-4
-5
-7
-9
-10
-10
-10
-8
-6
-4
-3
-2
-2
-2
-3
-3
-3
-3
-2
-1
0
0
-1
-3
-5
-7
-9
-10
-10
-9
-7
-5
-3
-1
0
1
0
0
-1
-3
-4
-4
-5
-5
-5
-4
-3
-1
1
2
3
4
4
3
1
-2
-4
-6
-7
-8
-9
-8
-8
-8
-8
-8
-8
-7
-7
-5
-3
-1
1
2
2
1
0
-2
-3
-4
-4
-3
-1
2
4
7
8
9
9
9
8
8
7
7
8
8
8
8
7
6
4
2
0
-2
-4
-6
-7
-7
-7
-7
-7
-7
-7
-7
-7
-7
-7
-7
-8
-8
-8
-8
-6
-5
-3
-1
1
2
2
1
-1
-4
-6
-8
-9
-9
-8
-7
-6
-6
-8
-12
-17
-23
-27
-28
-23
-12
7
33
65
100
134
164
185
195
193
180
158
131
101
72
49
31
19
12
10
9
9
8
5
2
-1
-4
-5
-6
-5
-3
-2
-1
-2
-3
-4
-6
-7
-8
-8
-8
-7
-7
-7
-8
-10
-11
-11
-11
-10
-7
-5
-3
-1
-1
-2
-4
-6
-8
-10
-11
-11
-10
-8
-7
-6
-6
-7
-9
-10
-11
-11
-11
-9
-7
-5
-4
-3
-3
-4
-5
-7
-8
-9
-10
-10
-10
-9
-8
-6
-5
-3
-2
-1
-1
-2
-3
-4
-5
-7
-7
-8
-7
-6
-5
-3
-1
0
2
3
4
5
5
5
6
6
7
8
9
10
12
13
15
15
16
15
15
14
14
14
14
15
17
18
20
20
20
19
18
16
15
13
13
13
14
15
15
15
14
12
9
6
2
0
-2
-3
-3
-2
-1
0
1
2
2
1
0
-1
-3
-4
-5
-5
-5
-5
-5
-5
-6
-7
-7
-8
-9
-9
-8
-8
-7
-6
-5
-5
-5
-6
-7
-8
-10
-11
-12
-13
-13
-12
-11
-9
-8
-6
-6
-5
-6
-7
-9
-10
-12
-13
-13
-13
-11
-10
-9
-8
-7
-8
-8
-9
-9
-9
-9
-9
-9
-8
-8
-9
-9
-10
-11
-12
-13
-13
-13
-13
-12
-11
-10
-9
-8
-8
-7
-7
-7
-8
-9
-10
-11
-11
-11
-10
-8
-7
-5
-4
-3
-3
-4
-5
-7
-9
-10
-11
-11
-11
-11
-11
-10
-9
-8
-7
-5
-5
-4
-4
-5
-7
-9
-11
-13
-14
-15
-14
-13
-11
-9
-7
-6
-6
-6
-8
-9
-11
-12
-13
-13
-12
-11
-11
-10
-10
-11
-12
-12
-13
-12
-11
-10
-9
-7
-7
-7
-7
-9
-11
-12
-13
-14
-14
-12
-11
-9
-8
-7
-6
-6
-5
-5
-4
-3
-2
0
1
2
3
2
1
0
-1
-3
-4
-5
-6
-7
-8
-8
-9
-10
-12
-13
-13
-14
-13
-13
-12
-10
-9
-9
-8
-9
-10
-11
-12
-13
-14
-14
-14
-13
-12
-11
-10
-10
-10
-11
-13
-15
-16
-17
-18
-18
-17
-18
-19
-22
-26
-31
-35
-37
-34
-25
-8
16
47
82
117
148
173
187
189
180
161
135
105
76
50
29
14
5
0
-1
-1
-1
-1
-3
-5
-8
-11
-14
-15
-16
-15
-14
-12
-11
-9
-8
-8
-8
-9
-10
-12
-13
-14
-14
-13
-12
-11
-10
-9
-9
-10
-11
-13
-14
-15
-15
-14
-14
-12
-11
-10
-10
-10
-11
-12
-14
-15
-16
-17
-17
-17
-17
-16
-15
-14
-12
-11
-10
-9
-9
-9
-9
-10
-10
-10
-10
-10
-10
-9
-9
-8
-8
-7
-7
-7
-7
-7
-7
-8
-8
-8
-8
-8
-7
-6
-4
-2
0
1
3
4
5
5
5
5
6
7
8
10
12
13
14
14
13
12
11
10
9
10
11
13
15
17
18
19
19
19
19
18
17
17
16
15
14
13
11
10
8
7
6
6
5
5
4
3
2
0
-1
-3
-3
-3
-3
-2
-1
0
1
0
-1
-3
-6
-7
-9
-10
-9
-8
-7
-5
-4
-3
-2
-2
-2
-3
-4
-5
-6
-6
-6
-6
-6
-6
-6
-6
-6
-7
-7
-7
-7
-6
-5
-5
-4
-4
-4
-5
-5
-6
-6
-6
-5
-5
-4
-3
-3
-3
-4
-4
-5
-6
-7
-7
-7
-6
-6
-6
-6
-7
-7
-8
-8
-8
-7
-6
-5
-4
-3
-2
-1
-1
-1
-1
0
0
0
0
0
-1
-1
-3
-4
-5
-6
-6
-6
-5
-4
-3
-1
-1
0
0
-1
-1
-2
-2
-2
-2
-2
-2
-2
-2
-2
-1
-1
-1
0
0
0
0
0
-1
-1
-2
-2
-2
-2
-2
-2
-2
-2
-2
-3
-4
-4
-5
-5
-4
-3
-2
0
1
2
2
1
0
-1
-1
-2
-1
-1
0
2
3
3
4
4
4
3
3
3
2
2
2
3
3
4
5
6
7
9
9
9
8
6
3
-1
-4
-7
-9
-10
-10
-8
-7
-5
-3
-2
-1
-1
-1
-2
-2
-2
-3
-4
-5
-6
-7
-8
-9
-10
-9
-9
-8
-8
-7
-7
-7
-8
-9
-10
-11
-13
-16
-20
-24
-28
-30
-29
-23
-11
8
33
64
97
129
156
177
187
187
177
158
132
104
77
52
32
18
9
4
3
3
4
4
3
1
-2
-5
-8
-10
-11
-11
-11
-10
-9
-8
-8
-8
-8
-8
-9
-9
-10
-10
-9
-9
-9
-9
-9
-10
-11
-11
-11
-11
-11
-10
-9
-8
-7
-7
-7
-9
-10
-12
-13
-14
-14
-13
-11
-9
-7
-4
-3
-2
-2
-2
-3
-4
-5
-6
-7
-7
-7
-7
-7
-8
-8
-8
-8
-8
-7
-6
-5
-4
-3
-3
-3
-3
-3
-3
-3
-2
-1
0
1
2
3
4
5
6
7
8
8
9
9
9
8
7
6
6
5
6
7
9
12
14
17
19
20
20
20
19
18
17
17
17
17
18
20
21
21
21
20
18
15
13
11
9
9
9
9
10
10
10
9
8
7
5
4
3
3
2
2
1
0
-2
-5
-7
-9
-10
-9
-8
-6
-4
-3
-2
-3
-4
-7
-9
-11
-13
-13
-12
-10
-9
-7
-6
-6
-7
-8
-8
-9
-9
-8
-7
-6
-5
-5
-5
-6
-7
-8
-9
-9
-10
-9
-9
-9
-9
-8
-8
-8
-8
-8
-8
-7
-6
-6
-5
-5
-5
-6
-6
-7
-7
-8
-8
-8
-8
-7
-6
-5
-5
-4
-4
-4
-4
-5
-6
-8
-9
-9
-9
-9
-8
-7
-7
-6
-6
-7
-7
-8
-8
-8
-8
-8
-8
-8
-8
-9
-10
-11
-12
-12
-11
-10
-8
-7
-5
-4
-4
-5
-5
-6
-6
-6
-5
-3
-2
0
0
0
-1
-3
-6
-8
-10
-10
-10
-9
-7
-4
-2
-1
-1
-1
-2
-4
-6
-8
-10
-11
-11
-11
-11
-10
-9
-7
-5
-4
-3
-2
-1
-1
-1
-2
-2
-3
-3
-3
-3
-2
-1
1
2
3
3
3
2
0
-1
-3
-4
-6
-7
-8
-8
-9
-10
-10
-10
-11
-10
-10
-9
-8
-8
-8
-8
-9
-10
-12
-13
-14
-14
-13
-12
-11
-10
-9
-8
-9
-9
-10
-12
-12
-13
-14
-14
-16
-18
-21
-25
-29
-31
-30
-24
-13
5
29
57
88
118
144
164
174
174
165
146
122
94
67
42
22
7
-2
-6
-7
-5
-3
-1
0
-1
-2
-4
-7
-10
-13
-16
-18
-19
-20
-19
-18
-16
-14
-12
-10
-9
-9
-11
-13
-15
-18
-20
-21
-20
-18
-16
-13
-10
-9
-8
-8
-9
-11
-13
-14
-14
-14
-13
-11
-9
-8
-7
-7
-7
-9
-11
-13
-15
-17
-17
-17
-16
-14
-11
-9
-7
-5
-5
-5
-7
-10
-12
-15
-16
-17
-16
-14
-12
-9
-6
-4
-3
-3
-4
-6
-7
-9
-9
-8
-7
-6
-4
-2
-1
-1
-1
-2
-2
-2
-1
0
3
5
7
9
10
10
9
8
7
6
6
7
8
10
12
13
14
15
15
14
15
15
15
16
16
15
14
11
9
6
3
1
0
0
0
1
2
3
2
1
-1
-3
-5
-7
-8
-9
-9
-9
-9
-10
-10
-11
-11
-11
-11
-10
-10
-9
-9
-9
-10
-11
-13
-15
-16
-17
-17
-16
-15
-14
-13
-12
-11
-10
-10
-10
-10
-10
-11
-12
-14
-15
-16
-16
-16
-14
-12
-10
-9
-7
-7
-8
-9
-11
-12
-14
-14
-14
-13
-11
-10
-10
-10
-10
-12
-13
-14
-14
-14
-13
-12
-11
-11
-11
-12
-13
-15
-15
-15
-14
-12
-10
-8
-7
-6
-7
-9
-11
-12
-14
-14
-12
-10
-7
-5
-3
-2
-2
-4
-6
-9
-11
-13
-14
-14
-13
-13
-12
-11
-10
-9
-9
-9
-8
-8
-8
-8
-7
-7
-7
-7
-7
-7
-7
-7
-6
-6
-6
-6
-7
-7
-8
-8
-8
-8
-7
-7
-6
-6
-5
-5
-5
-4
-4
-4
-3
-2
-1
0
1
2
3
3
2
1
-1
-3
-5
-8
-9
-10
-10
-10
-9
-7
-6
-5
-5
-5
-5
-7
-8
-10
-11
-12
-13
-13
-13
-13
-12
-12
-11
-11
-10
-10
-9
-9
-9
-9
-9
-9
-10
-11
-12
-14
-15
-17
-19
-21
-24
-28
-31
-34
-34
-29
-20
-4
19
48
80
113
144
169
184
189
183
166
141
112
81
52
27
9
-3
-9
-11
-9
-7
-4
-3
-2
-4
-6
-8
-10
-12
-13
-13
-13
-12
-11
-10
-10
-10
-11
-13
-15
-16
-18
-18
-18
-18
-16
-15
-13
-11
-10
-10
-10
-10
-11
-12
-13
-14
-16
-17
-18
-19
-19
-18
-17
-15
-13
-11
-9
-7
-7
-8
-9
-11
-13
-14
-15
-14
-13
-11
-9
-7
-6
-5
-5
-6
-7
-8
-9
-9
-9
-8
-7
-6
-5
-5
-5
-5
-6
-7
-7
-7
-7
-7
-6
-5
-4
-3
-2
-1
0
1
2
3
4
5
5
6
7
7
8
9
10
11
12
13
14
14
15
15
15
15
16
17
19
21
22
23
23
22
19
16
12
9
6
5
5
6
8
10
11
12
11
9
7
5
3
2
1
0
-1
-3
-4
-6
-8
-9
-9
-8
-6
-4
-2
0
0
-1
-3
-5
-8
-10
-10
-10
-9
-7
-5
-3
-2
-3
-4
-5
-7
-9
-10
-11
-10
-9
-8
-6
-4
-3
-2
-2
-3
-4
-6
-8
-9
-10
-9
-8
-5
-2
0
3
3
3
1
-1
-5
-8
-9
-10
-9
-7
-4
-1
2
4
5
4
3
1
-1
-3
-4
-5
-5
-6
-6
-6
-6
-6
-6
-6
-5
-3
-2
0
1
1
1
0
-1
-2
-3
-3
-3
-1
0
2
3
2
1
-1
-3
-6
-8
-8
-8
-6
-3
1
4
7
8
8
7
5
3
1
0
-1
0
1
3
5
7
10
12
14
16
18
18
18
18
16
14
11
8
6
4
3
2
3
3
4
4
4
3
2
0
-2
-4
-6
-7
-8
-8
-7
-6
-5
-4
-3
-2
-2
-1
-1
-1
-1
-1
-2
-3
-3
-4
-4
-4
-4
-3
-3
-4
-6
-9
-14
-19
-23
-26
-24
-17
-3
17
44
74
105
135
159
177
185
184
173
155
131
105
79
55
35
20
10
4
1
1
3
5
7
9
11
11
11
9
7
3
0
-4
-7
-9
-10
-9
-8
-5
-2
0
1
1
-1
-3
-5
-7
-7
-7
-6
-5
-3
-2
-1
-2
-3
-5
-6
-7
-6
-5
-4
-2
0
1
2
2
1
0
-1
-1
-2
-1
-1
0
1
2
3
3
4
3
3
3
2
1
1
0
-1
-1
0
0
1
3
4
5
6
7
8
9
9
10
11
12
13
13
13
12
11
10
9
8
9
10
13
15
18
20
21
21
20
19
19
18
18
19
20
21
22
23
22
21
20
19
19
19
20
21
22
24
24
23
22
20
17
15
14
13
12
13
13
12
12
10
8
5
2
0
-1
-2
-2
-2
-1
-1
0
-1
-1
-2
-3
-4
-5
-6
-6
-5
-5
-4
-3
-2
-1
-1
-2
-2
-3
-4
-6
-7
-8
-9
-9
-9
-9
-8
-7
-6
-6
-6
-7
-8
-9
-11
-12
-12
-12
-11
-9
-8
-6
-5
-5
-6
-8
-9
-11
-13
-14
-14
-13
-12
-11
-10
-10
-9
-9
-9
-9
-9
-8
-8
-7
-7
-7
-8
-8
-9
-10
-10
-10
-9
-8
-6
-5
-4
-5
-5
-6
-6
-7
-7
-7
-6
-6
-6
-7
-8
-10
-12
-14
-15
-15
-15
-14
-12
-11
-10
-9
-8
-9
-9
-9
-10
-9
-9
-8
-6
-5
-4
-3
-2
-1
-1
-1
-1
-1
-2
-2
-3
-4
-4
-5
-5
-5
-6
-7
-8
-9
-10
-11
-12
-12
-12
-12
-11
-10
-10
-10
-12
-13
-15
-17
-19
-19
-19
-18
-16
