-3
-3
-3
-4
-5
-6
-7
-8
-9
-9
-8
-7
-5
-3
-2
-1
-1
-2
-4
-7
-10
-12
-14
-14
-13
-11
-8
-5
-3
-2
-2
-3
-4
-6
-8
-9
-10
-10
-10
-10
-10
-9
-9
-8
-8
-7
-7
-7
-7
-8
-9
-10
-12
-14
-15
-15
-14
-12
-10
-8
-6
-5
-5
-6
-7
-9
-10
-11
-11
-11
-10
-9
-8
-7
-7
-7
-6
-4
-2
0
3
5
7
7
6
4
1
-3
-6
-8
-9
-10
-9
-8
-7
-6
-5
-4
-4
-4
-4
-6
-7
-10
-12
-15
-18
-20
-21
-21
-20
-17
-14
-11
-9
-8
-8
-9
-10
-12
-13
-14
-15
-15
-16
-18
-20
-23
-26
-29
-29
-27
-20
-10
6
25
47
71
96
118
137
151
159
159
152
137
117
93
66
40
16
-3
-17
-26
-29
-29
-27
-24
-22
-21
-21
-22
-23
-24
-23
-22
-19
-16
-13
-11
-10
-11
-12
-15
-17
-18
-19
-19
-17
-15
-13
-11
-9
-7
-6
-6
-5
-4
-4
-4
-4
-4
-5
-6
-7
-8
-9
-9
-8
-6
-4
-2
-1
1
1
0
-1
-3
-5
-7
-7
-7
-5
-1
3
7
11
14
16
17
17
16
16
16
17
19
22
25
27
29
31
31
30
30
29
29
30
32
34
38
41
44
46
47
48
48
47
47
46
45
43
42
39
37
34
32
30
28
27
25
24
21
18
14
10
5
1
-2
-4
-5
-4
-3
-2
-1
-1
-3
-6
-10
-13
-16
-18
-18
-16
-13
-10
-7
-5
-4
-4
-5
-7
-9
-11
-12
-13
-13
-13
-12
-11
-9
-8
-7
-6
-5
-5
-4
-4
-5
-6
-8
-11
-13
-15
-16
-16
-15
-14
-11
-9
-7
-5
-4
-4
-4
-4
-4
-4
-4
-4
-3
-3
-4
-5
-5
-6
-7
-7
-7
-6
-5
-4
-4
-5
-6
-8
-10
-11
-12
-13
-12
-11
-9
-7
-6
-6
-6
-8
-10
-12
-13
-14
-14
-13
-11
-10
-9
-8
-8
-8
-8
-8
-7
-6
-4
-2
-1
-2
-3
-6
-8
-11
-12
-12
-11
-8
-4
-1
2
4
4
3
3
2
1
1
1
0
0
-1
-3
-6
-8
-10
-11
-11
-11
-9
-8
-8
-9
-11
-14
-17
-20
-22
-23
-21
-18
-14
-11
-8
-6
-7
-9
-12
-16
-20
-22
-23
-22
-21
-18
-16
-16
-17
-19
-23
-27
-29
-28
-23
-13
3
24
48
73
97
117
131
139
138
131
117
98
77
55
34
15
0
-12
-20
-25
-27
-27
-26
-24
-23
-21
-20
-20
-20
-20
-19
-18
-17
-15
-14
-13
-13
-13
-14
-14
-15
-16
-15
-15
-13
-12
-10
-9
-9
-9
-9
-9
-9
-8
-8
-7
-6
-5
-5
-5
-6
-6
-6
-6
-5
-3
-2
0
1
1
1
0
-1
-2
-2
-1
0
2
5
7
10
11
13
13
14
14
15
15
16
17
19
20
21
21
22
23
23
24
26
28
30
32
35
36
38
39
39
40
40
39
39
39
39
38
37
35
34
32
29
27
25
24
23
21
20
19
17
15
13
10
7
5
2
0
-2
-4
-5
-6
-6
-6
-6
-6
-5
-4
-4
-4
-5
-7
-9
-12
-14
-14
-14
-12
-10
-6
-4
-2
-2
-3
-5
-9
-12
-14
-15
-15
-13
-11
-9
-7
-6
-6
-6
-7
-7
-8
-8
-7
-6
-6
-5
-6
-6
-7
-8
-9
-8
-8
-6
-5
-4
-3
-4
-5
-6
-8
-9
-10
-9
-7
-3
1
6
11
14
15
13
9
3
-5
-12
-18
-22
-23
-21
-17
-12
-7
-3
-2
-3
-6
-10
-13
-16
-16
-14
-10
-5
-1
2
3
2
-2
-5
-9
-11
-11
-8
-5
0
4
7
8
7
4
1
-2
-4
-4
-3
0
3
5
6
5
2
-2
-6
-9
-11
-12
-11
-9
-7
-5
-4
-5
-7
-10
-14
-17
-20
-21
-22
-20
-19
-17
-15
-14
-13
-13
-13
-13
-12
-11
-10
-9
-8
-8
-8
-10
-13
-17
-21
-25
-28
-29
-28
-24
-17
-8
4
19
35
52
70
86
101
113
120
122
118
107
90
69
45
20
-2
-21
-35
-42
-44
-42
-37
-31
-25
-21
-18
-18
-18
-19
-19
-18
-16
-14
-12
-11
-10
-11
-12
-13
-15
-15
-14
-12
-9
-6
-5
-4
-5
-8
-11
-14
-17
-18
-18
-17
-14
-11
-9
-7
-6
-7
-7
-8
-8
-7
-5
-2
0
1
1
0
-2
-5
-7
-9
-10
-9
-8
-5
-2
0
1
1
0
-1
-2
-1
2
6
11
17
22
26
29
29
29
27
25
24
23
24
26
29
32
34
35
35
34
32
31
29
28
28
29
30
30
30
28
26
23
19
15
11
8
5
3
2
1
0
-1
-2
-3
-4
-5
-6
-7
-8
-10
-13
-16
-19
-23
-26
-28
-29
-29
-28
-27
-25
-22
-20
-18
-16
-14
-13
-11
-9
-8
-8
-8
-9
-10
-12
-15
-17
-18
-19
-20
-19
-19
-18
-17
-16
-15
-14
-12
-11
-10
-9
-8
-9
-10
-13
-16
-19
-22
-23
-24
-23
-20
-17
-13
-10
-8
-8
-9
-11
-13
-16
-18
-19
-19
-19
-18
-18
-17
-18
-18
-19
-20
-20
-19
-17
-16
-14
-13
-12
-13
-14
-17
-19
-21
-22
-22
-21
-18
-16
-13
-11
-10
-10
-11
-14
-17
-20
-23
-24
-24
-23
-20
-16
-12
-9
-7
-5
-5
-6
-7
-8
-9
-10
-10
-9
-9
-10
-11
-13
-15
-17
-18
-19
-18
-17
-16
-15
-15
-15
-17
-18
-20
-21
-21
-20
-18
-15
-13
-11
-11
-14
-17
-22
-27
-31
-34
-34
-33
-29
-25
-21
-18
-17
-18
-21
-25
-30
-35
-37
-37
-33
-26
-14
0
17
35
53
70
84
95
101
101
97
88
75
60
44
28
13
0
-11
-19
-25
-30
-32
-34
-34
-33
-32
-29
-26
-23
-20
-18
-17
-18
-20
-22
-23
-24
-24
-23
-21
-18
-17
-16
-17
-19
-22
-26
-29
-31
-30
-28
-25
-20
-16
-12
-10
-10
-12
-14
-18
-21
-22
-22
-20
-17
-12
-8
-5
-4
-5
-8
-12
-17
-21
-23
-24
-22
-17
-12
-6
0
4
6
7
6
4
3
2
2
3
5
8
10
12
13
14
14
14
15
16
18
21
23
25
27
27
27
26
24
23
22
21
21
21
21
22
22
21
20
18
15
11
7
3
-1
-3
-5
-5
-4
-4
-3
-3
-4
-7
-10
-13
-15
-17
-17
-16
-15
-14
-13
-13
-14
-16
-18
-19
-20
-18
-16
-13
-9
-7
-5
-6
-7
-10
-13
-16
-18
-19
-19
-17
-15
-11
-8
-4
0
4
7
10
11
10
9
6
2
-1
-4
-6
-6
-5
-3
0
4
6
8
8
8
7
6
5
4
2
1
0
-1
-1
-1
0
3
5
9
12
14
14
13
11
7
3
0
-2
-3
-1
1
4
7
8
9
8
6
4
2
0
0
0
0
1
1
1
0
-1
-2
-2
-2
0
2
5
7
9
10
10
9
7
6
4
3
2
2
1
0
-2
-3
-4
-5
-4
-3
0
2
5
7
8
8
6
4
2
1
0
0
1
3
6
8
11
12
14
14
15
14
14
13
11
9
7
5
3
1
0
0
0
0
0
0
0
-1
-1
-2
-2
-2
-2
-1
-1
-1
-1
-1
-1
-1
0
1
2
3
4
4
3
0
-4
-8
-11
-13
-13
-9
-2
10
25
43
64
85
105
122
135
144
146
142
132
118
100
80
61
42
26
14
5
-1
-4
-6
-6
-5
-5
-5
-6
-7
-8
-8
-9
-9
-8
-6
-4
-2
0
2
4
6
7
8
9
10
9
9
7
6
3
1
-2
-4
-6
-7
-8
-7
-5
-3
0
2
4
5
5
4
3
2
1
0
0
1
2
3
5
6
7
8
9
10
12
14
16
18
20
21
21
21
21
20
19
19
20
22
24
27
31
33
35
36
36
36
36
36
37
38
41
43
45
47
47
46
45
42
40
38
38
38
38
39
39
39
37
34
31
27
23
20
17
16
15
14
14
13
11
8
6
4
2
0
-1
-1
-1
-1
-2
-3
-4
-5
-5
-5
-5
-4
-3
-3
-2
-3
-4
-5
-7
-8
-10
-11
-11
-12
-12
-12
-13
-13
-13
-12
-10
-8
-6
-3
-1
0
-1
-2
-3
-5
-6
-7
-6
-5
-4
-4
-4
-6
-10
-13
-17
-19
-19
-18
-14
-9
-4
0
2
3
2
-1
-3
-5
-5
-4
-1
1
3
3
2
-1
-6
-11
-15
-17
-18
-17
-14
-11
-8
-6
-5
-5
-5
-5
-5
-5
-4
-3
-3
-4
-5
-7
-9
-10
-10
-9
-7
-6
-4
-4
-5
-8
-12
-15
-17
-18
-16
-11
-6
1
6
9
10
7
2
-5
-11
-17
-21
-22
-20
-16
-10
-5
0
2
2
0
-4
-9
-14
-18
-21
-22
-21
-19
-15
-10
-6
-4
-2
-3
-5
-9
-13
-16
-18
-19
-18
-14
-10
-5
0
4
6
6
3
0
-5
-10
-15
-19
-21
-21
-20
-18
-14
-10
-5
-1
2
5
7
7
6
4
1
-3
-6
-9
-12
-13
-14
-14
-13
-13
-12
-11
-11
-10
-10
-10
-9
-9
-9
-9
-10
-11
-14
-16
-18
-20
-21
-20
-18
-15
-12
-10
-9
-9
-11
-14
-19
-24
-28
-32
-34
-33
-30
-23
-12
3
22
44
69
95
119
139
154
161
160
150
134
113
90
66
44
25
10
-2
-11
-18
-23
-26
-28
-29
-28
-26
-23
-20
-16
-14
-12
-13
-14
-16
-17
-18
-18
-17
-15
-14
-14
-14
-17
-19
-22
-25
-25
-24
-20
-16
-11
-7
-5
-5
-8
-13
-18
-23
-26
-26
-24
-20
-15
-10
-7
-7
-8
-12
-16
-20
-22
-22
-20
-15
-10
-4
0
2
2
0
-4
-8
-12
-13
-13
-10
-5
1
7
12
16
19
20
20
20
20
20
20
22
24
26
28
30
32
34
35
36
37
37
37
36
35
34
32
30
28
27
26
25
25
24
23
21
18
14
9
4
0
-3
-5
-6
-6
-6
-7
-8
-10
-13
-16
-19
-21
-21
-20
-18
-15
-12
-11
-11
-13
-16
-20
-23
-25
-26
-25
-22
-19
-16
-14
-13
-15
-18
-23
-27
-31
-34
-35
-35
-33
-30
-27
-25
-23
-22
-22
-22
-23
-23
-23
-22
-21
-20
-20
-20
-20
-20
-21
-22
-23
-23
-22
-22
-21
-20
-20
-20
-20
-20
-20
-20
-19
-17
-15
-14
-13
-14
-15
-17
-20
-23
-26
-27
-27
-26
-25
-23
-21
-20
-19
-19
-19
-20
-20
-20
-20
-20
-21
-21
-22
-24
-25
-25
-25
-24
-22
-20
-19
-18
-18
-19
-22
-25
-28
-30
-31
-31
-29
-26
-23
-20
-19
-19
-20
-23
-25
-28
-29
-30
-30
-28
-26
-24
-22
-20
-19
-18
-16
-15
-14
-13
-13
-13
-13
-15
-17
-19
-22
-23
-24
-24
-23
-22
-20
-20
-19
-18
-18
-17
-15
-12
-9
-6
-5
-4
-5
-8
-12
-16
-19
-22
-22
-21
-18
-15
-13
-12
-12
-15
-19
-24
-28
-31
-32
-31
-29
-26
-23
-21
-20
-20
-20
-21
-21
-21
-20
-19
-18
-19
-20
-24
-29
-36
-42
-46
-48
-45
-37
-24
-6
17
42
69
95
118
138
152
160
160
154
141
123
100
75
50
26
5
-11
-22
-27
-29
-27
-24
-21
-18
-17
-18
-20
-22
-24
-25
-25
-23
-19
-16
-13
-11
-10
-10
-12
-14
-16
-18
-20
-21
-21
-21
-20
-19
-18
-17
-15
-13
-11
-9
-8
-7
-7
-7
-8
-8
-9
-9
-8
-8
-7
-6
-5
-5
-4
-4
-3
-1
0
1
2
2
1
0
-2
-3
-3
-2
1
5
10
15
20
23
25
25
24
23
22
22
23
26
29
32
35
38
39
40
39
39
38
38
37
37
38
39
40
41
42
43
43
42
40
36
32
27
21
15
11
7
5
5
6
7
9
11
12
12
11
9
5
1
-3
-8
-12
-15
-17
-18
-18
-16
-15
-14
-13
-13
-14
-16
-19
-21
-23
-24
-23
-21
-18
-15
-13
-12
-12
-14
-16
-18
-20
-20
-19
-16
-12
-8
-5
-3
-4
-6
-9
-14
-18
-21
-23
-23
-21
-18
-14
-10
-8
-6
-6
-7
-9
-10
-11
-12
-11
-10
-8
-6
-4
-3
-3
-3
-5
-8
-10
-13
-15
-16
-16
-15
-14
-12
-10
-8
-7
-6
-5
-5
-4
-2
0
3
6
7
7
5
2
-2
-7
-10
-11
-10
-7
-2
3
7
9
8
4
-1
-6
-9
-10
-6
0
9
18
25
29
29
25
19
12
6
2
-1
-1
1
2
3
3
1
-2
-4
-5
-5
-4
-1
2
3
3
2
-2
-6
-9
-11
-11
-8
-4
0
5
7
8
5
1
-4
-9
-13
-17
-18
-19
-18
-18
-16
-14
-11
-5
5
19
38
62
89
117
144
166
182
189
187
176
158
134
108
81
56
35
18
6
-3
-9
-12
-15
-17
-19
-20
-20
-19
-17
-13
-9
-5
-2
1
4
5
5
6
5
5
5
4
4
4
5
6
8
10
13
15
17
18
17
15
11
8
4
2
1
2
5
9
13
17
20
21
21
20
18
17
17
17
18
19
21
21
21
21
19
18
17
16
17
18
21
23
26
27
28
29
29
30
30
32
34
37
41
44
47
49
50
50
50
50
50
51
52
53
54
54
52
49
45
41
37
33
31
29
28
26
25
23
20
17
13
10
7
6
5
5
4
3
1
-2
-5
-8
-10
-11
-10
-8
-6
-3
-2
-3
-5
-9
-14
-19
-24
-27
-28
-27
-25
-21
-17
-14
-11
-9
-8
-8
-10
-12
-15
-18
-20
-22
-23
-23
-21
-19
-16
-12
-10
-8
-7
-8
-10
-13
-16
-19
-21
-23
-23
-23
-22
-20
-18
-17
-16
-15
-15
-15
-16
-16
-17
-17
-16
-15
-13
-11
-9
-8
-9
-10
-13
-16
-18
-21
-21
-20
-18
-15
-11
-8
-6
-6
-8
-12
-16
-20
-22
-23
-22
-19
-15
-10
-6
-4
-3
-4
-7
-11
-16
-20
-23
-25
-25
-23
-21
-19
-17
-15
-14
-14
-14
-15
-16
-17
-17
-17
-17
-17
-17
-17
-17
-17
-17
-17
-16
-16
-16
-16
-16
-17
-17
-17
-18
-17
-17
-15
-14
-13
-11
-10
-10
-10
-10
-10
-10
-10
-10
-10
-11
-12
-13
-14
-15
-16
-16
-15
-15
-14
-14
-15
-17
-20
-22
-24
-25
-25
-23
-21
-19
-18
-17
-19
-21
-23
-25
-27
-27
-26
-24
-22
-22
-22
-23
-26
-29
-32
-34
-36
-37
-38
-40
-41
-41
-40
-36
-27
-12
8
34
64
95
125
150
167
176
175
165
147
123
95
66
38
12
-9
-25
-35
-41
-43
-42
-39
-36
-34
-33
-33
-33
-33
-33
-32
-30
-27
-23
-21
-19
-18
-18
-19
-20
-21
-21
-20
-19
-17
-16
-15
-15
-16
-17
-20
-22
-25
-27
-29
-30
-30
-28
-26
-22
-17
-12
-8
-5
-4
-5
-8
-13
-17
-22
-25
-25
-23
-19
-13
-7
-1
4
7
7
6
5
3
2
2
3
4
7
8
10
10
10
9
9
10
13
17
22
28
34
39
43
46
46
46
44
43
41
41
40
40
40
40
39
38
37
36
35
35
35
34
33
30
25
19
12
5
0
-4
-5
-3
0
5
9
12
12
9
3
-5
-13
-20
-26
-28
-28
-25
-20
-14
-9
-6
-4
-4
-6
-9
-12
-15
-17
-17
-17
-16
-14
-13
-12
-13
-14
-15
-17
-17
-17
-16
-14
-11
-9
-7
-6
-6
-6
-8
-9
-11
-12
-12
-11
-11
-9
-8
-7
-6
-5
-4
-3
-1
0
2
3
3
2
1
-2
-5
-7
-10
-11
-12
-11
-10
-8
-7
-6
-6
-7
-8
-9
-10
-10
-9
-7
-5
-3
-2
-2
-4
-6
-9
-12
-15
-17
-17
-15
-13
-9
-6
-4
-2
-1
-1
-2
-3
-5
-5
-6
-6
-5
-4
-2
0
2
5
7
8
8
7
5
2
-2
-6
-8
-10
-10
-9
-7
-6
-5
-5
-7
-9
-12
-15
-18
-19
-20
-20
-20
-20
-20
-20
-20
-20
-20
-20
-19
-17
-16
-15
-16
-17
-18
-20
-22
-24
-24
-25
-25
-25
-26
-27
-29
-31
-33
-32
-28
-19
-5
13
36
61
88
113
135
151
159
159
150
134
111
84
55
27
2
-18
-32
-41
-46
-46
-45
-42
-40
-39
-38
-37
-36
-34
-31
-28
-24
-21
-19
-19
-20
-22
-26
-29
-31
-32
-30
-27
-22
-17
-13
-9
-8
-8
-10
-13
-16
-18
-20
-20
-19
-17
-15
-12
-10
-9
-8
-7
-7
-7
-8
-9
-10
-11
-12
-12
-11
-9
-5
-1
4
8
11
13
12
9
5
1
-4
-6
-7
-5
0
6
12
18
23
27
29
30
30
31
32
33
35
38
41
43
44
45
46
46
46
47
48
48
49
49
48
46
43
41
37
35
32
30
27
25
23
20
17
14
11
9
8
7
7
7
7
6
4
1
-1
-4
-7
-9
-9
-8
-7
-4
-1
1
3
5
5
4
3
0
-2
-5
-9
-12
-15
-17
-18
-18
-16
-14
-10
-6
-3
-1
1
0
-2
-4
-7
-9
-10
-9
-7
-3
0
3
5
5
3
1
-3
-6
-9
-10
-10
-10
-8
-6
-4
-3
-1
0
0
1
1
1
0
-2
-4
-6
-8
-9
-10
-9
-8
-6
-4
-2
-1
-1
-2
-4
-6
-8
-10
-11
-12
-13
-13
-14
-15
-16
-17
-17
-15
-12
-9
-4
0
3
5
5
3
-1
-5
-9
-13
-16
-17
-17
-15
-12
-8
-4
0
3
4
4
2
-1
-4
-8
-12
-15
-16
-16
-15
-13
-9
-6
-3
-2
-2
-3
-7
-11
-17
-22
-27
-30
-32
-32
-31
-28
-24
-20
-16
-13
-12
-12
-14
-16
-19
-23
-26
-29
-31
-33
-34
-34
-34
-31
-27
-18
-5
12
34
59
86
112
136
154
166
169
163
149
129
104
77
50
26
5
-11
-23
-30
-34
-35
-34
-32
-30
-29
-27
-27
-27
-27
-27
-28
-28
-27
-25
-23
-19
-16
-13
-10
-9
-8
-9
-11
-13
-16
-18
-19
-20
-20
-20
-20
-20
-19
-19
-18
-17
-15
-12
-9
-7
-5
-5
-6
-9
-12
-15
-17
-17
-16
-13
-9
-5
-1
2
3
3
2
1
1
2
4
7
11
14
16
17
16
16
15
14
15
17
19
23
27
30
33
35
36
37
37
38
39
40
41
42
43
44
44
44
44
44
44
44
44
43
41
38
35
31
27
23
20
17
15
14
13
11
10
9
7
5
3
1
-1
-3
-5
-7
-9
-11
-13
-14
-15
-16
-16
-15
-14
-12
-11
-10
-10
-10
-11
-13
-14
-16
-16
-16
-15
-13
-11
-10
-9
-9
-10
-11
-11
-11
-10
-9
-7
-5
-5
-5
-7
-11
-15
-20
-24
-26
-28
-27
-25
-22
-18
-15
-12
-11
-11
-11
-12
-12
-13
-13
-13
-13
-13
-13
-14
-16
-17
-19
-21
-22
-21
-19
-16
-13
-8
-4
0
2
3
2
-1
-6
-11
-16
-21
-24
-26
-26
-24
-20
-16
-12
-9
-7
-6
-6
-7
-8
-9
-9
-10
-9
-9
-8
-7
-7
-6
-6
-5
-4
-3
-3
-4
-5
-8
-12
-16
-20
-23
-25
-25
-25
-23
-21
-20
-19
-19
-20
-21
-23
-24
-24
-23
-22
-20
-19
-17
-17
-17
-19
-21
-24
-27
-30
-33
-35
-37
-38
-40
-41
-41
-41
-38
-32
-21
-6
13
38
64
92
119
141
157
166
165
157
140
118
92
65
39
16
-2
-16
-24
-28
-29
-27
-26
-25
-25
-27
-30
-34
-37
-39
-39
-37
-35
-32
-30
-29
-29
-30
-31
-32
-31
-29
-26
-22
-18
-16
-15
-16
-19
-22
-25
-28
-28
-27
-24
-21
-17
-15
-13
-13
-14
-16
-17
-18
-18
-17
-17
-16
-16
-16
-16
-17
-17
-17
-16
-13
-10
-7
-4
-1
1
2
3
3
3
3
3
3
3
3
4
5
7
10
13
17
21
25
29
32
34
36
37
37
38
38
39
39
39
39
38
37
36
35
34
32
31
29
27
24
20
16
12
9
6
4
3
3
3
3
2
1
-2
-6
-9
-13
-15
-17
-17
-17
-16
-16
-16
-17
-19
-20
-22
-22
-22
-20
-17
-15
-13
-12
-14
-16
-19
-23
-26
-27
-26
-25
-22
-20
-18
-18
-20
-22
-26
-28
-29
-27
-23
-18
-12
-6
-3
-3
-6
-11
-18
-25
-31
-34
-34
-31
-27
-22
-18
-15
-15
-16
-19
-21
-23
-23
-21
-18
-13
-9
-6
-4
-4
-5
-8
-12
-16
-20
-23
-26
-29
-30
-31
-30
-28
-25
-20
-15
-10
-6
-3
-2
-4
-7
-11
-15
-19
-21
-21
-21
-19
-17
-16
-14
-13
-11
-9
-5
0
7
14
20
25
27
27
24
19
14
9
5
2
1
2
2
3
2
1
-2
-5
-9
-12
-14
-15
-15
-14
-13
-10
-8
-5
-3
-1
1
1
1
0
-1
-3
-5
-7
-8
-8
-8
-8
-8
-9
-12
-16
-20
-25
-27
-26
-21
-10
6
27
53
80
107
132
154
170
179
181
176
163
145
122
96
68
42
19
0
-14
-22
-25
-25
-21
-17
-13
-10
-9
-10
-11
-13
-14
-15
-14
-12
-10
-7
-5
-4
-3
-3
-4
-5
-6
-6
-6
-6
-6
-6
-8
-10
-13
-15
-16
-15
-11
-6
1
8
14
17
18
15
10
3
-3
-9
-12
-12
-10
-6
-1
4
7
9
9
8
7
7
7
10
13
17
21
25
26
26
25
24
22
21
21
23
27
31
36
40
43
44
44
42
40
38
37
36
37
39
42
45
48
50
50
50
49
47
46
45
44
44
43
42
40
37
32
28
23
19
16
14
13
13
13
12
11
8
5
2
-2
-5
-7
-8
-8
-7
-7
-6
-7
-7
-8
-9
-10
-10
-9
-9
-8
-9
-10
-11
-13
-15
-17
-17
-17
-16
-14
-12
-10
-8
-6
-4
-3
-3
-3
-3
-4
-6
-9
-11
-14
-17
-19
-19
-18
-16
-13
-10
-8
-6
-6
-6
-7
-8
-9
-9
-9
-8
-7
-7
-7
-8
-9
-9
-10
-9
-8
-6
-4
-2
-2
-2
-4
-6
-10
-12
-14
-15
-15
-14
-12
-11
-10
-10
-10
-10
-10
-9
-8
-6
-5
-4
-4
-5
-6
-8
-10
-12
-12
-11
-10
-7
-5
-4
-2
-2
-3
-4
-5
-5
-5
-5
-4
-3
-1
0
0
-1
-2
-5
-9
-13
-17
-20
-23
-24
-23
-21
-19
-16
-13
-11
-10
-11
-13
-15
-17
-18
-18
-17
-15
-13
-12
-12
-14
-17
-22
-27
-31
-34
-35
-34
-33
-31
-29
-28
-27
-26
-24
-20
-11
3
23
47
74
103
131
154
170
178
177
167
148
124
95
66
38
13
-7
-21
-29
-33
-33
-31
-29
-26
-25
-25
-26
-27
-29
-29
-29
-27
-25
-21
-18
-15
-13
-11
-11
-11
-12
-14
-16
-18
-21
-23
-25
-26
-27
-26
-24
-20
-16
-12
-8
-6
-4
-5
-6
-8
-10
-12
-13
-12
-11
-8
-6
-5
-4
-4
-5
-7
-7
-7
-6
-3
1
5
8
11
12
12
11
9
8
8
8
10
13
16
19
22
25
26
27
28
28
29
30
31
33
35
37
40
42
44
46
47
47
46
44
42
40
37
34
32
30
29
28
27
26
24
22
20
17
14
11
8
5
2
0
-2
-3
-4
-5
-6
-7
-8
-9
-11
-13
-15
-16
-17
-18
-18
-18
-17
-15
-14
-12
-11
-10
-9
-9
-10
-12
-14
-17
-20
-22
-24
-23
-22
-20
-17
-15
-13
-12
-12
-14
-16
-18
-19
-19
-18
-17
-16
-15
-14
-15
-16
-18
-20
-21
-22
-22
-21
-20
-18
-17
-16
-15
-14
-14
-14
-13
-12
-11
-9
-8
-8
-8
-10
-11
-14
-17
-19
-22
-23
-25
-25
-25
-24
-23
-22
-20
-19
-19
-18
-19
-19
-21
-22
-22
-22
-21
-20
-17
-14
-10
-7
-5
-4
-5
-7
-10
-14
-18
-22
-24
-26
-27
-26
-25
-24
-22
-21
-19
-17
-14
-12
-10
-8
-6
-6
-6
-8
-10
-13
-16
-19
-20
-21
-20
-20
-19
-19
-19
-21
-23
-26
-28
-30
-30
-29
-27
-25
-23
-20
-19
-19
-19
-20
-21
-23
-24
-24
-24
-23
-22
-21
-20
-20
-21
-24
-27
-32
-36
-39
-40
-38
-31
-20
-4
17
41
67
94
121
144
162
174
178
173
159
137
109
77
44
14
-11
-30
-41
-45
-43
-39
-34
-30
-29
-30
-32
-35
-37
-37
-34
-28
-21
-15
-10
-7
-8
-11
-16
-21
-25
-28
-28
-27
-24
-21
-18
-16
-15
-15
-16
-16
-17
-18
-18
-19
-20
-20
-21
-21
-20
-18
-15
-12
-8
-5
-3
-2
-3
-5
-9
-12
-15
-17
-16
-14
-11
-6
-1
4
8
10
10
9
7
4
2
0
0
1
4
8
13
18
23
27
31
33
35
36
36
35
34
32
30
28
27
27
27
29
32
35
38
40
40
40
37
34
30
25
20
17
13
11
9
8
6
4
1
-2
-5
-7
-9
-9
-9
-8
-7
-6
-6
-6
-8
-10
-14
-18
-21
-25
-27
-28
-28
-26
-24
-21
-18
-15
-14
-13
-14
-16
-19
-21
-24
-26
-28
-28
-27
-25
-23
-20
-18
-16
-15
-15
-16
-17
-18
-20
-20
-20
-19
-16
-13
-10
-8
-7
-7
-9
-11
-14
-17
-19
-20
-19
-17
-14
-11
-9
-7
-6
-6
-6
-6
-5
-5
-4
-3
-3
-4
-6
-8
-10
-12
-13
-12
-11
-9
-7
-6
-6
-7
-9
-12
-15
-17
-18
-17
-16
-15
-13
-12
-12
-12
-12
-12
-11
-9
-6
-4
-1
0
0
-2
-5
-9
-12
-15
-15
-14
-11
-6
-1
4
8
10
11
10
8
5
3
2
1
1
1
1
0
-2
-5
-8
-10
-12
-13
-12
-10
-7
-4
-1
0
-1
-3
-6
-10
-14
-18
-20
-21
-21
-19
-17
-15
-14
-12
-12
-12
-13
-14
-16
-18
-21
-25
-28
-30
-30
-28
-22
-12
2
21
43
67
91
114
134
149
157
158
151
138
118
94
68
43
19
0
-15
-25
-30
-32
-32
-30
-28
-26
-25
-24
-23
-22
-19
-17
-13
-9
-6
-4
-2
-3
-4
-6
-9
-12
-14
-15
-15
-15
-13
-11
-8
-6
-3
-2
-1
-2
-2
-4
-5
-7
-8
-9
-10
-9
-8
-7
-5
-3
-1
1
2
2
1
0
-1
-2
-2
-1
1
5
9
13
16
18
18
17
15
13
11
11
12
15
19
23
27
29
29
28
25
23
21
22
26
32
39
47
53
56
56
53
47
42
37
34
35
38
44
50
55
58
58
54
48
40
33
27
22
19
18
17
16
14
9
3
-3
-10
-16
-19
-20
-18
-14
-9
-3
1
4
6
5
4
3
1
-1
-2
-3
-4
-5
-7
-9
-11
-12
-11
-10
-7
-4
-1
2
3
2
-1
-4
-7
-9
-9
-7
-3
1
4
6
6
4
0
-5
-9
-11
-11
-9
-7
-4
-2
-1
-3
-5
-8
-11
-12
-12
-10
-8
-6
-4
-4
-5
-7
-10
-11
-11
-9
-7
-3
-1
1
0
-1
-4
-8
-11
-13
-13
-12
-10
-8
-6
-5
-5
-6
-7
-8
-9
-9
-9
-9
-9
-9
-10
-10
-10
-10
-8
-6
-3
0
2
3
2
0
-3
-6
-9
-11
-11
-10
-8
-4
-1
2
3
4
3
2
1
0
-1
0
0
1
2
2
1
0
-3
-5
-7
-9
-10
-11
-12
-12
-13
-14
-15
-16
-17
-17
-17
-16
-14
-11
-8
-5
-2
0
1
0
-1
-4
-9
-14
-20
-25
-30
-33
-35
-34
-31
-27
-21
-13
-3
8
21
37
54
73
92
109
124
133
136
132
122
105
85
64
43
24
9
-2
-10
-16
-20
-23
-26
-28
-28
-27
-24
-20
-15
-10
-7
-6
-6
-9
-12
-15
-17
-17
-15
-13
-10
-8
-7
-9
-13
-17
-21
-23
-23
-20
-15
-10
-4
0
2
2
1
-2
-6
-8
-9
-8
-6
-3
0
2
3
4
3
2
0
-1
-2
-2
-1
0
1
2
3
4
5
6
8
9
10
12
13
14
14
15
16
17
19
21
24
28
31
35
37
38
38
37
35
33
30
29
28
28
29
31
33
34
35
35
33
31
27
24
21
19
17
16
16
16
16
15
14
12
9
6
3
-1
-4
-6
-8
-9
-9
-9
-8
-8
-8
-9
-10
-11
-13
-13
-14
-14
-14
-13
-13
-13
-12
-12
-12
-12
-12
-12
-12
-12
-11
-11
-10
-10
-10
-10
-10
-11
-11
-12
-13
-13
-12
-11
-9
-8
-6
-5
-4
-5
-6
-8
-10
-12
-13
-13
-13
-13
-12
-11
-11
-11
-12
-14
-15
-16
-17
-16
-15
-13
-11
-8
-6
-4
-3
-3
-4
-5
-7
-10
-14
-17
-20
-22
-24
-24
-24
-22
-20
-17
-14
-11
-8
-5
-3
-2
-1
-1
-3
-5
-7
-10
-12
-13
-14
-13
-12
-10
-8
-6
-5
-5
-7
-9
-12
-14
-17
-18
-18
-18
-16
-14
-13
-11
-11
-11
-12
-13
-14
-14
-14
-13
-13
-12
-12
-13
-14
-17
-20
-23
-25
-26
-26
-24
-22
-19
-18
-17
-18
-20
-23
-26
-29
-30
-31
-31
-31
-31
-31
-32
-33
-34
-33
-30
-23
-13
1
18
37
56
74
89
100
106
106
102
94
82
67
52
36
21
7
-5
-15
-23
-28
-32
-33
-34
-33
-32
-31
-30
-28
-26
-24
-23
-21
-20
-20
-20
-21
-23
-25
-27
-28
-29
-28
-25
-23
-19
-17
-15
-15
-16
-18
-22
-25
-27
-28
-28
-26
-23
-20
-17
-14
-14
-14
-16
-18
-20
-21
-22
-21
-19
-17
-14
-11
-8
-5
-2
0
2
4
5
5
5
3
1
-1
-2
-3
-3
-1
2
5
10
14
17
20
21
21
21
21
21
22
23
24
26
27
28
29
28
28
28
28
28
29
30
30
29
27
24
19
15
11
8
6
6
6
7
7
8
7
5
3
2
0
1
2
5
8
11
14
14
13
10
6
1
-4
-9
-12
-13
-13
-12
-9
-7
-4
-2
-1
-1
-2
-3
-4
-5
-6
-6
-5
-4
-2
-1
1
1
1
1
0
-1
-2
-3
-3
-3
-2
-1
-1
-1
-1
-3
-5
-8
-11
-13
-13
-12
-10
-6
-2
3
8
11
12
11
9
5
1
-4
-8
-12
-14
-15
-14
-12
-9
-5
-1
3
7
10
11
10
8
4
-1
-7
-11
-15
-17
-18
-17
-16
-14
-13
-11
-10
-9
-6
-4
0
3
7
10
11
11
9
6
1
-4
-9
-12
-14
-13
-11
-7
-2
3
7
11
13
13
10
6
0
-6
-12
-16
-18
-19
-17
-14
-10
-7
-6
-5
-6
-8
-10
-12
-12
-11
-9
-5
-2
0
1
0
-3
-7
-11
-16
-20
-23
-25
-25
-25
-24
-23
-21
-20
-18
-16
-12
-6
2
13
25
40
56
71
85
97
105
109
108
102
93
80
65
50
36
23
12
4
-2
-6
-9
-11
-12
-14
-16
-18
-19
-20
-20
-19
-17
-15
-12
-9
-6
-4
-3
-2
-2
-3
-5
-7
-11
-14
-18
-20
-22
-21
-19
-15
-10
-4
1
5
8
8
6
2
-2
-6
-10
-12
-13
-13
-12
-10
-8
-6
-4
-3
-2
-1
0
2
4
6
9
12
13
14
13
11
8
4
1
-2
-3
-2
1
7
13
20
26
31
34
34
33
32
30
28
28
29
31
33
35
36
36
35
34
33
32
33
34
36
38
39
38
36
32
26
20
15
10
8
7
7
8
9
9
8
6
3
0
-3
-5
-5
-5
-4
-2
-1
-1
-3
-5
-9
-13
-16
-18
-18
-17
-15
-12
-9
-6
-4
-4
-6
-8
-10
-12
-13
-12
-11
-9
-6
-5
-5
-6
-9
-12
-15
-17
-18
-16
-13
-9
-4
-1
1
1
-2
-6
-10
-14
-18
-19
-19
-17
-15
-11
-8
-6
-4
-3
-2
-1
-2
-2
-3
-4
-6
-8
-9
-10
-9
-7
-5
-1
1
3
3
0
-4
-10
-15
-20
-22
-23
-21
-17
-13
-9
-7
-6
-6
-7
-8
-8
-8
-6
-5
-3
-3
-5
-8
-12
-16
-19
-20
-19
-16
-12
-7
-4
-2
-2
-4
-8
-13
-16
-19
-20
-19
-16
-14
-11
-9
-8
-8
-8
-9
-9
-9
-8
-8
-8
-9
-10
-13
-15
-18
-20
-22
-22
-21
-20
-18
-16
-14
-13
-12
-12
-12
-12
-12
-11
-11
-10
-10
-9
-8
-7
-6
-5
-5
-4
-5
-5
-6
-6
-7
-7
-6
-5
-4
-2
-1
-1
-2
-3
-6
-8
-10
-12
-13
-12
-11
-10
-8
-7
-7
-7
-8
-10
-12
-13
-14
-15
-15
-15
-14
-14
-14
-14
-14
-14
-13
-13
-12
-11
-10
-9
-9
-9
-11
-14
-18
-23
-28
-32
-35
-34
-30
-21
-8
10
31
54
76
97
114
126
133
134
128
118
103
85
66
45
26
9
-5
-16
-22
-24
-24
-22
-18
-15
-12
-11
-10
-10
-10
-11
-10
-10
-9
-9
-10
-11
-12
-14
-16
-17
-17
-16
-14
-10
-7
-4
-1
0
-1
-2
-4
-7
-10
-12
-13
-14
-14
-14
-14
-14
-13
-12
-10
-7
-4
-1
2
4
5
5
4
2
0
-3
-5
-6
-6
-6
-4
-2
1
4
7
10
13
16
18
21
23
25
26
26
25
23
22
21
20
20
21
22
25
27
30
33
35
37
38
39
39
39
38
38
37
37
37
37
36
36
34
31
28
24
20
16
14
13
13
15
16
18
17
15
11
5
-2
-8
-13
-17
-18
-16
-14
-10
-7
-5
-3
-3
-4
-4
-4
-3
-2
-1
0
0
-2
-4
-8
-12
-15
-17
-17
-16
-14
-10
-7
-4
-2
-1
-1
-2
-4
-6
-9
-11
-12
-14
-14
-14
-14
-13
-11
-8
-6
-3
0
3
5
6
6
6
4
2
-1
-4
-8
-10
-12
-13
-13
-12
-11
-8
-6
-4
-2
-1
-1
-1
-3
-4
-5
-7
-7
-7
-7
-6
-5
-4
-4
-3
-4
-4
-5
-5
-6
-6
-6
-6
-6
-6
-7
-8
-10
-12
-13
-14
-15
-14
-12
-10
-7
-4
-2
-1
-1
-2
-4
-7
-9
-12
-14
-16
-17
-17
-16
-15
-12
-9
-5
-2
1
3
3
1
-3
-7
-13
-17
-20
-22
-21
-19
-16
-13
-10
-7
-6
-6
-6
-7
-8
-9
-10
-11
-12
-13
-14
-16
-17
-18
-19
-19
-18
-16
-12
-9
-5
-1
2
4
4
3
1
-3
-6
-9
-12
-13
-13
-11
-9
-6
-4
-2
-1
-2
-3
-4
-5
-5
-5
-4
-2
0
1
2
2
1
-1
-3
-5
-8
-9
-11
-11
-11
-10
-9
-7
-6
-6
-5
-6
-6
-7
-9
-11
-12
-14
-15
-16
-16
-16
-16
-15
-14
-13
-11
-10
-10
-11
-14
-18
-23
-29
-33
-35
-31
-23
-8
13
38
65
92
116
135
147
150
146
136
121
103
83
63
44
27
12
-1
-11
-18
-23
-25
-24
-22
-19
-15
-13
-12
-12
-12
-14
-15
-15
-15
-13
-10
-8
-5
-4
-4
-6
-8
-11
-13
-15
-15
-15
-13
-11
-9
-7
-6
-5
-5
-5
-6
-6
-7
-7
-7
-8
-8
-9
-9
-8
-7
-5
-2
0
3
5
6
5
3
1
-2
-5
-6
-6
-4
0
5
10
14
17
19
19
17
15
13
11
11
11
13
15
18
20
23
26
29
32
35
38
41
42
43
42
40
37
35
33
33
34
36
39
43
45
45
44
40
35
30
24
19
16
13
12
12
11
11
10
9
7
5
2
-1
-3
-6
-9
-12
-14
-15
-16
-15
-13
-11
-8
-6
-6
-6
-8
-11
-14
-17
-18
-17
-16
-13
-9
-6
-5
-5
-6
-8
-11
-14
-16
-17
-17
-16
-15
-15
-14
-15
-16
-16
-16
-15
-13
-10
-6
-3
-1
0
0
-1
-4
-6
-8
-10
-10
-10
-10
-11
-11
-12
-13
-14
-15
-16
-15
-14
-13
-12
-11
-10
-10
-11
-11
-12
-12
-11
-10
-9
-8
-7
-8
-9
-11
-13
-14
-14
-13
-11
-9
-6
-4
-4
-5
-8
-11
-16
-19
-22
-23
-22
-19
-15
-12
-10
-9
-10
-12
-15
-18
-20
-20
-19
-16
-12
-9
-6
-5
-6
-8
-12
-16
-19
-20
-20
-18
-15
-11
-8
-6
-5
-6
-8
-11
-13
-16
-17
-17
-16
-14
-12
-11
-10
-10
-11
-13
-15
-18
-20
-20
-20
-18
-15
-12
-9
-6
-5
-4
-5
-7
-8
-10
-10
-10
-10
-9
-8
-8
-9
-11
-13
-15
-16
-15
-14
-12
-9
-5
-3
-1
-1
-2
-3
-5
-6
-6
-6
-4
-2
0
1
2
1
-1
-3
-5
-7
-8
-9
-8
-8
-8
-8
-9
-11
-14
-16
-17
-17
-16
-14
-12
-10
-9
-8
-9
-11
-13
-15
-16
-15
-14
-12
-10
-10
-11
-14
-20
-26
-31
-35
-35
-31
-23
-9
8
29
52
75
97
116
132
144
149
149
142
130
112
91
68
45
24
6
-8
-17
-23
-25
-26
-26
-26
-26
-26
-26
-25
-23
-20
-17
-14
-11
-10
-10
-12
-15
-17
-19
-19
-17
-14
-9
-5
-1
2
2
0
-3
-7
-11
-14
-15
-15
-14
-12
-9
-7
-6
-5
-5
-6
-7
-8
-8
-8
-7
-6
-5
-4
-4
-4
-4
-3
-3
-1
1
4
7
10
12
14
15
15
14
13
11
10
10
11
12
15
18
21
24
28
30
33
35
36
36
36
36
37
37
38
40
41
43
44
44
44
43
42
40
38
36
35
34
34
33
32
30
28
25
22
19
16
12
10
7
5
3
1
0
-2
-3
-4
-6
-7
-8
-8
-9
-8
-8
-6
-5
-4
-3
-3
-4
-7
-10
-14
-18
-21
-22
-22
-19
-14
-9
-3
1
3
3
1
-3
-8
-13
-17
-19
-20
-19
-16
-13
-11
-8
-6
-5
-4
-4
-4
-5
-6
-7
-9
-11
-14
-16
-17
-16
-15
-12
-9
-5
-2
1
2
1
-1
-3
-5
-8
-9
-10
-10
-9
-8
-7
-5
-4
-4
-3
-4
-4
-5
-6
-7
-8
-7
-7
-5
-4
-3
-2
-2
-4
-7
-10
-13
-15
-15
-14
-12
-9
-6
-3
-2
-3
-5
-9
-13
-16
-19
-20
-20
-18
-16
-13
-11
-9
-7
-5
-3
-2
-1
0
0
0
-2
-5
-9
-12
-14
-15
-15
-14
-11
-8
-6
-5
-6
-7
-10
-12
-14
-15
-15
-14
-12
-10
-9
-8
-8
-8
-8
-8
-6
-5
-2
0
2
3
3
0
-3
-7
-11
-14
-15
-15
-13
-11
-8
-5
-4
-3
-3
-3
-4
-4
-3
-2
-1
0
0
-1
-3
-6
-9
-11
-13
-14
-13
-12
-10
-8
-6
-6
-7
-8
-11
-14
-17
-19
-21
-22
-22
-21
-21
-20
-19
-18
-17
-16
-15
-15
-15
-17
-19
-22
-26
-30
-32
-31
-25
-14
3
26
54
84
113
139
159
170
172
165
150
128
103
76
50
27
9
-6
-17
-24
-29
-31
-32
-32
-30
-28
-26
-23
-20
-17
-15
-13
-12
-12
-12
-13
-13
-13
-13
-13
-13
-12
-12
-12
-11
-11
-11
-11
-11
-11
-11
-11
-12
-13
-14
-15
-16
-16
-15
-15
-14
-13
-12
-11
-10
-10
-9
-9
-8
-7
-5
-4
-2
0
2
3
4
4
5
5
5
6
5
5
5
4
4
4
6
8
11
15
20
24
28
31
32
33
33
32
32
33
34
36
38
40
42
43
43
43
43
43
43
44
45
46
47
46
45
42
37
32
26
21
17
14
13
12
12
12
11
10
7
4
0
-3
-6
-8
-9
-9
-9
-8
-8
-7
-7
-7
-8
-8
-9
-10
-11
-12
-13
-14
-16
-16
-17
-16
-15
-13
-11
-9
-7
-6
-6
-7
-9
-10
-12
-14
-15
-15
-15
-15
-14
-14
-15
-15
-15
-15
-14
-13
-10
-8
-5
-3
-3
-3
-4
-7
-9
-11
-12
-12
-11
-8
-6
-4
-4
-4
-6
-10
-13
-17
-19
-21
-21
-20
-18
-16
-14
-12
-11
-10
-9
-9
-9
-9
-8
-8
-8
-9
-9
-10
-11
-11
-11
-10
-9
-8
-7
-7
-8
-9
-11
-12
-14
-15
-15
-15
-14
-13
-12
-11
-12
-13
-15
-17
-18
-19
-19
-17
-15
-13
-11
-10
-10
-11
-14
-16
-18
-20
-20
-19
-18
-16
-14
-13
-12
-11
-11
-10
-9
-7
-5
-4
-3
-3
-4
-7
-9
-12
-14
-15
-15
-13
-11
-9
-7
-6
-4
-4
-3
-3
-2
-1
0
0
0
-2
-4
-8
-11
-15
-18
-19
-19
-18
-17
-15
-13
-12
-12
-13
-15
-16
-17
-18
-18
-18
-17
-17
-17
-18
-19
-20
-20
-20
-20
-19
-18
-18
-20
-22
-25
-29
-31
-30
-26
-17
-3
16
39
65
90
114
135
150
158
160
154
141
123
101
76
50
25
4
-14
-28
-36
-41
-41
-39
-36
-32
-28
-24
-21
-19
-17
-16
-15
-14
-14
-14
-15
-16
-17
-18
-19
-19
-19
-18
-17
-16
-14
-13
-13
-12
-12
-12
-11
-11
-11
-11
-12
-12
-12
-12
-12
-11
-10
-10
-9
-9
-8
-8
-8
-9
-9
-9
-9
-8
-8
-7
-6
-4
-2
0
3
6
9
12
14
15
15
15
14
14
14
16
18
21
24
28
31
33
34
34
35
35
35
37
39
42
45
48
51
53
54
53
51
49
46
42
39
37
35
34
34
34
34
33
32
30
27
23
18
12
7
3
-1
-2
-2
-1
1
3
5
5
4
2
-1
-5
-9
-12
-14
-16
-16
-16
-15
-15
-14
-12
-11
-10
-8
-7
-6
-6
-6
-7
-9
-12
-14
-17
-18
-18
-17
-15
-13
-10
-8
-8
-8
-9
-11
-12
-12
-12
-9
-6
-2
1
3
3
1
-3
-7
-12
-16
-19
-19
-19
-17
-15
-13
-11
-11
-11
-11
-11
-10
-8
-6
-3
-2
-2
-3
-6
-10
-14
-18
-20
-20
-19
-16
-13
-10
-8
-7
-7
-9
-10
-12
-12
-12
-12
-10
-9
-8
-8
-9
-10
-12
-14
-15
-16
-17
-17
-17
-16
-15
-14
-13
-13
-13
-13
-14
-15
-16
-16
-17
-16
-15
-13
-10
-7
-5
-3
-2
-3
-4
-5
-7
-9
-10
-10
-8
-6
-4
-1
2
3
4
4
3
0
-3
-6
-9
-12
-14
-16
-17
-17
-18
-18
-19
-20
-21
-22
-23
-22
-21
-19
-17
-15
-13
-13
-13
-14
-16
-18
-19
-20
-19
-18
-16
-16
-16
-18
-23
-28
-34
-39
-41
-39
-32
-19
-1
23
50
78
106
131
151
165
171
169
159
142
120
94
67
40
16
-4
-20
-31
-37
-40
-40
-39
-36
-33
-31
-28
-25
-21
-18
-15
-13
-11
-11
-11
-13
-15
-18
-20
-22
-23
-22
-21
-20
-18
-17
-15
-14
-13
-12
-12
-11
-10
-10
-10
-10
-11
-12
-12
-13
-13
-13
-12
-10
-9
-7
-5
-4
-4
-4
-5
-6
-7
-7
-7
-7
-6
-5
-3
-1
1
3
5
7
9
11
12
13
14
15
16
18
21
24
28
31
34
37
38
38
37
36
34
34
34
36
39
42
46
49
51
52
51
48
44
40
35
31
27
24
22
20
18
16
15
13
11
10
9
8
8
7
6
5
2
-1
-4
-8
-11
-14
-15
-16
-16
-15
-14
-12
-11
-11
-11
-11
-11
-11
-11
-11
-12
-13
-14
-16
-17
-18
-18
-17
-15
-12
-9
-6
-4
-4
-5
-7
-10
-14
-17
-18
-19
-18
-15
-13
-11
-10
-10
-12
-14
-16
-17
-18
-17
-15
-13
-11
-9
-9
-9
-10
-11
-11
-11
-10
-9
-8
-7
-7
-7
-9
-11
-13
-15
-16
-16
-16
-15
-14
-12
-11
-10
-9
-8
-7
-7
-7
-8
-10
-12
-14
-16
-17
-17
-16
-14
-11
-8
-6
-6
-6
-7
-8
-9
-9
-8
-5
-2
2
5
7
8
7
5
2
0
-2
-3
-3
-3
-3
-3
-5
-9
-13
-17
-21
-23
-24
-24
-21
-18
-14
-12
-10
-10
-11
-13
-16
-18
-20
-21
-20
-19
-17
-15
-14
-13
-13
-14
-17
-21
-26
-31
-36
-40
-41
-40
-35
-26
-12
7
31
58
88
117
143
164
178
182
177
162
140
112
81
50
22
-1
-18
-29
-34
-36
-34
-31
-28
-25
-24
-23
-24
-24
-25
-25
-25
-25
-24
-24
-23
-23
-23
-22
-22
-21
-20
-18
-17
-16
-15
-15
-15
-15
-15
-16
-16
-16
-16
-15
-15
-14
-13
-13
-12
-11
-10
-9
-9
-8
-8
-7
-8
-8
-8
-8
-7
-5
-4
-2
0
1
1
1
0
-2
-3
-3
-2
0
3
7
11
16
21
24
27
29
30
30
29
28
28
28
29
31
33
35
38
40
41
42
43
43
43
42
43
43
43
43
43
42
40
37
34
31
28
26
24
22
20
18
16
13
9
4
0
-4
-7
-9
-9
-9
-9
-8
-8
-9
-11
-13
-15
-17
-18
-18
-17
-15
-13
-11
-10
-10
-11
-13
-16
-18
-20
-20
-19
-17
-14
-11
-9
-7
-6
-6
-7
-8
-10
-12
-13
-13
-14
-13
-13
-12
-11
-10
-9
-8
-7
-7
-7
-8
-9
-10
-12
-13
-13
-12
-11
-9
-6
-4
-3
-2
-3
-4
-6
-9
-12
-14
-16
-17
-17
-16
-15
-13
-10
-8
-5
-4
-2
-2
-2
-2
-3
-5
-6
-7
-8
-9
-8
-8
-7
-5
-4
-3
-2
-1
-1
-1
-1
-1
-2
-2
-3
-4
-5
-7
-9
-10
-12
-13
-14
-15
-15
-14
-14
-13
-12
-12
-13
-14
-16
-18
-20
-22
-24
-24
-24
-24
-23
-23
-22
-22
-22
-23
-24
-26
-29
-31
-34
-36
-38
-37
-35
-28
-18
-3
17
41
68
96
123
146
164
174
174
166
149
125
96
66
36
9
-12
-27
-36
-39
-37
-33
-28
-23
-21
-20
-22
-26
-30
-33
-36
-36
-34
-31
-28
-24
-21
-18
-18
-18
-19
-20
-21
-22
-22
-22
-21
-21
-21
-21
-21
-21
-20
-19
-17
-16
-13
-12
-11
-10
-11
-12
-14
-15
-16
-16
-15
-12
-9
-6
-3
-2
-2
-3
-5
-9
-11
-13
-13
-12
-8
-2
4
10
15
19
20
21
20
19
18
17
18
18
20
21
22
22
23
24
26
29
32
36
40
44
46
46
45
43
40
37
35
34
34
35
37
38
39
38
36
33
29
25
21
17
14
12
9
6
3
0
-4
-7
-11
-13
-16
-17
-18
-18
-17
-16
-15
-14
-12
-11
-10
-10
-11
-13
-15
-18
-20
-21
-21
-20
-17
-14
-10
-7
-4
-3
-3
-4
-5
-6
-6
-7
-7
-7
-8
-9
-11
-13
-16
-18
-19
-19
-19
-17
-15
-14
-13
-13
-13
-15
-16
-17
-17
-16
-15
-12
-10
-7
-6
-5
-6
-7
-8
-10
-12
-13
-15
-15
-16
-16
-17
-18
-19
-20
-20
-20
-19
-17
-14
-11
-8
-6
-3
-2
-1
-1
0
0
0
1
1
2
2
1
-1
-4
-8
-12
-16
-19
-21
-21
-20
-18
-15
-12
-11
-10
-11
-13
-16
-19
-21
-23
-23
-23
-23
-22
-23
-23
-24
-26
-26
-26
-24
-22
-19
-16
-15
-16
-19
-24
-30
-36
-40
-41
-37
-26
-9
14
42
73
104
135
161
182
194
198
192
177
154
125
93
59
28
1
-20
-34
-41
-43
-41
-37
-32
-29
-27
-27
-29
-30
-32
-32
-31
-29
-26
-24
-22
-21
-21
-22
-23
-24
-24
-22
-20
-17
-15
-13
-13
-14
-15
-17
-18
-19
-18
-16
-13
-11
-8
-7
-7
-9
-11
-13
-14
-15
-14
-13
-12
-10
-8
-7
-7
-6
-4
-3
0
3
6
8
10
10
9
7
5
3
2
3
5
8
13
18
23
28
31
34
35
35
35
34
33
33
33
34
35
38
40
43
45
46
47
47
46
43
40
37
33
30
28
27
26
25
25
24
23
21
19
16
13
11
9
7
5
3
2
0
-1
-3
-5
-6
-7
-8
-9
-9
-11
-12
-14
-16
-18
-19
-20
-20
-19
-17
-16
-14
-12
-12
-11
-11
-11
-11
-10
-9
-8
-7
-7
-7
-8
-10
-11
-13
-14
-14
-14
-13
-11
-10
-9
-8
-8
-8
-9
-9
-10
-10
-10
-10
-9
-9
-9
-9
-10
-11
-13
-14
-15
-15
-15
-14
-12
-10
-8
-7
-6
-5
-5
-6
-6
-7
-8
-9
-10
-11
-12
-13
-13
-12
-11
-8
-4
-1
3
6
7
6
4
1
-2
-5
-6
-6
-4
-1
1
3
2
-2
-7
-14
-21
-27
-30
-31
-28
-23
-17
-12
-8
-6
-7
-10
-15
-20
-24
-26
-26
-25
-22
-18
-15
-12
-11
-10
-11
-13
-14
-17
-19
-22
-25
-29
-34
-39
-43
-44
-42
-33
-19
3
31
63
98
131
160
181
192
193
183
164
138
107
75
44
16
-8
-25
-37
-43
-44
-41
-35
-28
-22
-17
-14
-14
-16
-19
-24
-28
-32
-33
-32
-29
-25
-21
-16
-13
-11
-11
-13
-16
-18
-21
-22
-23
-23
-22
-21
-20
-20
-20
-19
-19
-18
-16
-14
-11
-9
-7
-6
-6
-8
-10
-12
-14
-14
-13
-10
-7
-3
0
2
2
1
-2
-4
-6
-8
-7
-6
-3
0
3
6
8
9
10
11
12
14
16
18
21
23
25
27
28
29
30
32
33
35
36
37
37
37
36
34
32
29
27
26
25
24
23
22
20
17
14
10
6
3
0
-2
-3
-3
-3
-3
-3
-4
-6
-8
-11
-14
-16
-17
-17
-17
-16
-16
-16
-17
-19
-21
-23
-25
-26
-26
-24
-21
-18
-14
-12
-12
-13
-16
-20
-24
-27
-28
-28
-26
-23
-19
-15
-13
-12
-13
-16
-19
-23
-25
-26
-26
-24
-21
-18
-15
-14
-13
-14
-15
-17
-19
-20
-21
-21
-20
-20
-20
-20
-20
-21
-22
-23
-24
-24
-24
-23
-22
-20
-19
-17
-16
-16
-16
-17
-18
-20
-21
-22
-22
-21
-19
-17
-14
-11
-9
-7
-7
-8
-10
-14
-17
-20
-22
-23
-22
-19
-15
-11
-7
-4
-2
-3
-5
-8
-10
-13
-13
-11
-7
-2
4
8
11
11
8
2
-4
-11
-16
-18
-18
-15
-10
-6
-3
-2
-3
-6
-10
-14
-16
-16
-14
-11
-7
-4
-2
-4
-7
-14
-21
-28
-33
-37
-37
-35
-29
-20
-7
9
28
50
73
97
119
138
151
156
153
142
124
101
76
51
29
10
-4
-14
-19
-22
-23
-23
-23
-23
-22
-22
-21
-19
-17
-15
-12
-9
-7
-4
-3
-2
-2
-3
-5
-8
-11
-14
-17
-19
-20
-19
-17
-14
-11
-8
-5
-4
-3
-3
-3
-3
-3
-3
-3
-3
-3
-4
-4
-5
-6
-7
-8
-8
-8
-8
-8
-8
-7
-6
-5
-3
0
4
7
11
13
15
15
14
12
11
9
9
11
14
18
23
27
31
34
36
36
35
34
33
32
32
32
33
35
36
38
39
40
40
39
37
34
30
27
23
20
18
17
17
18
19
19
19
17
14
10
5
1
-3
-5
-6
-6
-5
-3
-2
-2
-2
-3
-4
-6
-8
-11
-12
-14
-16
-17
-17
-17
-17
-15
-13
-11
-8
-6
-4
-3
-3
-4
-6
-8
-11
-15
-17
-20
-22
-23
-24
-23
-22
-19
-16
-14
-11
-9
-8
-8
-9
-11
-12
-13
-13
-13
-11
-10
-8
-7
-7
-7
-8
-8
-8
-8
-7
-5
-4
-3
-4
-5
-7
-9
-12
-14
-15
-16
-15
-14
-12
-10
-8
-6
-6
-6
-7
-8
-10
-12
-14
-15
-16
-15
-14
-13
-11
-10
-10
-11
-12
-13
-14
-15
-14
-13
-10
-8
-5
-5
-5
-8
-11
-16
-20
-22
-24
-23
-21
-18
-15
-12
-10
-10
-10
-10
-11
-11
-10
-9
-8
-6
-4
-4
-3
-4
-4
-5
-5
-4
-3
-2
-1
0
1
1
2
1
1
0
-1
-2
-4
-6
-8
-10
-11
-12
-12
-10
-9
-7
-6
-6
-7
-10
-14
-18
-21
-24
-24
-23
-20
-16
-13
-10
-8
-7
-8
-10
-12
-15
-17
-19
-21
-22
-24
-25
-26
-25
-22
-16
-6
10
29
52
77
101
121
137
145
145
137
122
103
80
57
35
16
1
-10
-18
-23
-27
-28
-29
-29
-27
-25
-22
-19
-16
-13
-11
-10
-11
-11
-12
-13
-13
-13
-12
-11
-10
-9
-9
-10
-11
-11
-12
-11
-10
-7
-5
-3
-1
-1
-2
-4
-7
-9
-11
-12
-11
-10
-7
-4
-1
1
2
2
2
1
-1
-1
-1
-1
0
1
3
4
5
6
7
8
8
10
11
13
15
17
19
22
24
27
29
30
31
30
30
29
28
27
28
29
33
37
41
46
49
51
51
49
45
40
36
32
30
30
31
33
35
37
38
37
35
31
26
20
15
10
7
4
3
3
3
4
4
5
5
5
4
4
3
2
0
-1
-2
-3
-4
-5
-6
-7
-8
-9
-10
-10
-9
-8
-7
-6
-5
-4
-4
-5
-6
-7
-8
-9
-8
-7
-5
-2
1
4
6
7
7
5
2
0
-3
-4
-5
-4
-3
-2
-1
-1
-2
-4
-7
-9
-11
-11
-9
-6
-2
1
5
7
7
6
3
0
-3
-6
-7
-8
-8
-7
-7
-7
-8
-9
-10
-11
-12
-11
-10
-7
-4
-1
1
2
2
1
-2
-4
-6
-8
-8
-8
-6
-5
-3
-3
-3
-5
-7
-9
-12
-13
-14
-13
-12
-11
-9
-9
-8
-9
-10
-10
-11
-10
-9
-7
-4
-2
0
1
0
-1
-3
-5
-7
-9
-9
-9
-8
-6
-4
-2
-1
0
0
-1
-2
-4
-6
-8
-9
-11
-12
-14
-14
-14
-14
-13
-12
-11
-9
-8
-7
-7
-8
-9
-11
-14
-16
-19
-20
-21
-22
-21
-21
-20
-20
-20
-21
-22
-24
-24
-23
-19
-12
0
16
37
60
84
108
129
145
154
156
150
137
118
96
72
49
29
12
0
-8
-13
-16
-18
-20
-22
-24
-27
-28
-28
-27
-23
-18
-13
-7
-3
-1
-1
-3
-7
-11
-16
-19
-22
-23
-24
-23
-22
-20
-18
-16
-14
-11
-9
-7
-6
-6
-7
-9
-12
-15
-17
-18
-18
-16
-13
-10
-7
-5
-4
-4
-5
-6
-6
-6
-5
-3
0
2
4
5
6
5
4
3
2
3
4
6
9
12
15
17
19
22
24
26
28
30
32
34
34
35
34
33
32
31
31
31
33
34
36
38
40
41
41
40
38
35
33
30
27
24
22
20
19
17
15
13
10
7
4
1
-1
-3
-5
-6
-6
-6
-5
-5
-5
-6
-7
-9
-11
-13
-14
-15
-16
-17
