0
-1
-2
-4
-5
-7
-8
-8
-9
-8
-8
-7
-6
-5
-5
-6
-7
-9
-11
-12
-13
-13
-13
-12
-11
-10
-9
-8
-7
-7
-7
-7
-8
-9
-10
-11
-12
-12
-13
-13
-12
-12
-12
-12
-12
-12
-13
-14
-15
-16
-16
-16
-14
-13
-10
-8
-6
-4
-3
-2
-2
-2
-2
-1
0
1
2
3
3
3
2
1
0
-1
-1
-1
0
0
0
-1
-2
-5
-9
-13
-16
-19
-20
-21
-20
-19
-19
-19
-20
-21
-23
-24
-25
-24
-23
-20
-18
-16
-16
-17
-18
-20
-22
-24
-24
-24
-22
-20
-18
-17
-17
-18
-19
-21
-23
-25
-27
-29
-31
-31
-28
-21
-8
11
38
71
108
146
181
209
225
228
218
194
160
119
77
36
1
-27
-47
-59
-64
-64
-62
-58
-54
-51
-48
-45
-42
-39
-36
-32
-27
-23
-19
-15
-12
-10
-9
-9
-10
-11
-12
-13
-13
-12
-12
-11
-10
-10
-10
-10
-11
-12
-12
-11
-10
-7
-5
-2
0
0
0
-1
-2
-4
-5
-6
-5
-4
-2
0
2
4
5
6
7
7
8
8
9
10
10
10
11
12
13
14
16
18
20
23
24
25
26
26
27
27
28
30
32
34
36
38
39
39
39
39
39
39
40
42
44
47
49
51
52
52
52
51
49
47
45
43
41
39
37
35
33
32
31
30
29
27
25
23
20
17
14
11
9
8
7
6
6
5
4
3
1
0
-2
-3
-3
-4
-4
-4
-5
-6
-7
-9
-11
-13
-14
-14
-14
-13
-11
-10
-9
-8
-8
-8
-8
-9
-10
-11
-11
-11
-11
-11
-11
-11
-12
-12
-13
-13
-14
-14
-13
-13
-12
-11
-10
-9
-9
-9
-9
-9
-10
-10
-11
-11
-11
-11
-11
-11
-11
-12
-12
-12
-12
-12
-11
-11
-10
-9
-9
-9
-10
-11
-12
-13
-14
-14
-14
-14
-14
-15
-15
-15
-16
-16
-17
-17
-16
-16
-16
-16
-16
-17
-17
-18
-18
-17
-16
-14
-12
-11
-10
-10
-11
-12
-13
-15
-16
-16
-16
-15
-13
-12
-10
-9
-8
-7
-6
-5
-3
-2
-1
1
2
3
4
4
3
1
-1
-5
-9
-13
-18
-23
-27
-30
-31
-31
-30
-28
-25
-23
-20
-19
-18
-18
-19
-20
-21
-23
-24
-25
-25
-25
-25
-25
-24
-24
-23
-23
-23
-23
-24
-24
-25
-25
-26
-27
-28
-29
-31
-34
-37
-38
-38
-34
-25
-10
12
40
74
110
147
181
208
225
230
222
202
171
134
92
51
13
-18
-42
-59
-68
-72
-71
-69
-65
-62
-58
-55
-51
-47
-42
-37
-33
-29
-26
-24
-23
-24
-25
-26
-26
-26
-25
-24
-23
-22
-22
-21
-22
-22
-21
-20
-19
-18
-16
-14
-14
-13
-14
-14
-15
-15
-15
-15
-14
-13
-12
-11
-11
-10
-10
-10
-10
-10
-9
-9
-8
-8
-8
-7
-7
-6
-4
-2
1
3
6
8
10
11
11
11
11
12
14
16
18
21
22
23
23
22
21
20
20
21
23
26
29
32
34
35
35
35
34
34
34
35
36
37
38
37
35
33
30
27
25
24
24
25
25
25
24
21
18
13
8
4
0
-2
-3
-4
-4
-4
-5
-6
-8
-10
-11
-12
-13
-13
-13
-12
-12
-13
-14
-15
-17
-18
-18
-17
-16
-15
-14
-14
-14
-15
-16
-18
-19
-19
-19
-18
-16
-15
-15
-15
-16
-17
-18
-19
-18
-17
-16
-14
-13
-12
-13
-14
-16
-18
-20
-21
-21
-20
-18
-17
-15
-14
-13
-14
-15
-16
-17
-18
-19
-19
-19
-19
-19
-19
-18
-18
-17
-16
-14
-13
-12
-11
-11
-12
-14
-16
-18
-20
-21
-20
-19
-18
-16
-14
-13
-12
-12
-12
-13
-14
-14
-15
-15
-15
-15
-15
-16
-17
-17
-18
-17
-16
-15
-13
-11
-9
-8
-8
-8
-8
-8
-8
-7
-6
-5
-3
-1
1
2
4
5
5
6
6
6
6
4
3
0
-2
-5
-8
-10
-12
-13
-14
-15
-15
-15
-15
-15
-15
-15
-15
-15
-16
-17
-18
-19
-20
-21
-22
-21
-21
-20
-18
-17
-16
-16
-16
-17
-18
-19
-21
-22
-23
-23
-22
-22
-22
-22
-24
-26
-27
-28
-27
-21
-10
9
34
67
104
145
184
218
243
255
254
238
208
169
124
77
33
-4
-33
-52
-63
-66
-64
-60
-55
-51
-47
-43
-41
-38
-34
-31
-27
-24
-21
-20
-19
-20
-20
-21
-21
-20
-19
-17
-16
-14
-13
-12
-12
-12
-12
-11
-10
-9
-8
-7
-6
-6
-6
-6
-6
-7
-7
-7
-7
-7
-7
-6
-5
-4
-3
-2
0
1
2
3
4
4
3
3
2
2
3
4
5
7
10
12
14
16
17
18
19
20
21
23
24
26
28
30
31
33
34
35
37
40
43
47
51
53
55
55
53
50
47
43
41
39
39
41
43
45
47
48
48
47
46
44
42
41
39
38
36
34
32
29
26
22
18
15
12
10
9
9
8
8
9
8
8
7
5
3
1
-1
-2
-3
-4
-4
-4
-4
-5
-5
-7
-8
-9
-9
-9
-8
-6
-3
-1
0
1
0
-1
-4
-6
-9
-10
-11
-10
-7
-4
-1
1
3
4
3
2
0
-2
-4
-6
-6
-6
-6
-5
-4
-4
-4
-5
-7
-8
-10
-10
-10
-10
-8
-6
-4
-2
-1
-1
-2
-4
-6
-7
-9
-9
-9
-7
-6
-3
-2
0
0
-1
-2
-3
-4
-4
-4
-3
-2
0
1
2
2
1
0
-1
-3
-4
-6
-7
-8
-10
-11
-12
-12
-12
-11
-9
-6
-3
0
3
5
7
7
6
5
4
2
2
2
3
5
7
10
13
15
17
18
18
18
17
16
14
12
10
8
6
4
2
0
-1
-3
-4
-5
-6
-7
-7
-7
-8
-9
-9
-10
-10
-11
-11
-11
-11
-10
-10
-10
-11
-11
-11
-11
-11
-10
-10
-10
-10
-11
-13
-16
-18
-20
-22
-23
-23
-22
-20
-19
-16
-12
-6
5
22
45
74
109
146
182
212
234
242
237
217
185
144
98
53
13
-21
-45
-61
-69
-71
-69
-65
-60
-56
-52
-48
-44
-39
-34
-29
-23
-18
-14
-12
-10
-10
-10
-11
-11
-12
-12
-13
-13
-13
-13
-13
-13
-12
-12
-12
-11
-10
-10
-9
-9
-9
-9
-9
-9
-10
-10
-9
-9
-8
-8
-7
-6
-5
-4
-3
-2
-1
-1
0
0
-1
-1
-2
-2
-2
-2
0
2
4
7
9
12
14
15
16
16
16
17
18
20
22
24
27
29
31
32
32
32
31
30
30
30
31
32
34
36
38
38
38
38
37
35
35
34
34
35
36
36
36
36
34
32
29
25
22
19
17
15
13
11
9
8
5
3
1
-1
-3
-5
-6
-8
-9
-10
-11
-12
-13
-15
-16
-17
-18
-19
-19
-19
-18
-18
-17
-16
-16
-16
-16
-17
-18
-19
-20
-22
-23
-24
-24
-23
-23
-21
-19
-18
-16
-15
-14
-14
-15
-16
-18
-19
-20
-21
-21
-21
-20
-19
-19
-18
-19
-20
-22
-23
-25
-26
-26
-25
-24
-22
-21
-19
-18
-18
-18
-19
-19
-20
-20
-19
-18
-17
-16
-15
-15
-15
-15
-15
-15
-16
-16
-16
-16
-17
-18
-20
-22
-23
-25
-25
-25
-24
-22
-20
-18
-17
-16
-17
-18
-20
-22
-23
-23
-23
-22
-20
-18
-17
-16
-16
-17
-17
-18
-18
-18
-16
-15
-13
-11
-10
-10
-10
-11
-12
-13
-14
-13
-12
-10
-8
-7
-6
-6
-7
-10
-13
-16
-19
-20
-22
-22
-22
-22
-23
-24
-25
-27
-28
-29
-30
-30
-29
-28
-27
-27
-27
-29
-30
-31
-32
-32
-31
-30
-28
-26
-25
-24
-25
-27
-29
-31
-33
-34
-34
-34
-33
-33
-33
-33
-32
-30
-25
-16
-1
20
47
78
111
143
170
190
199
196
180
153
117
76
34
-5
-38
-62
-78
-85
-85
-81
-75
-69
-64
-61
-59
-58
-56
-53
-48
-42
-36
-30
-25
-23
-23
-24
-26
-28
-29
-29
-28
-26
-24
-22
-21
-22
-23
-24
-26
-27
-27
-26
-24
-22
-20
-19
-18
-18
-18
-19
-19
-18
-16
-15
-13
-11
-11
-11
-12
-14
-15
-17
-17
-16
-14
-12
-9
-6
-3
-1
-1
-1
-2
-3
-4
-4
-3
-2
0
2
5
7
9
10
11
11
11
11
11
12
13
16
19
22
25
28
29
29
28
26
24
22
21
21
22
24
26
27
28
28
27
26
23
21
19
18
16
15
13
11
8
5
1
-2
-4
-5
-6
-6
-6
-6
-7
-8
-11
-14
-17
-19
-20
-20
-20
-19
-18
-18
-18
-20
-22
-24
-26
-27
-27
-26
-25
-23
-21
-21
-21
-22
-24
-27
-29
-30
-31
-30
-29
-28
-26
-25
-25
-25
-25
-25
-26
-25
-25
-24
-23
-22
-22
-22
-22
-23
-24
-24
-24
-23
-23
-22
-21
-20
-20
-21
-21
-22
-23
-25
-26
-27
-28
-29
-29
-29
-28
-26
-24
-21
-19
-17
-16
-17
-18
-20
-22
-24
-25
-26
-25
-24
-23
-21
-20
-20
-21
-21
-22
-23
-23
-23
-21
-20
-19
-18
-18
-19
-20
-21
-22
-23
-23
-22
-21
-19
-18
-16
-15
-14
-13
-12
-10
-8
-6
-4
-2
0
2
2
3
2
1
0
-2
-4
-6
-9
-11
-13
-15
-17
-18
-18
-18
-18
-17
-17
-17
-18
-19
-21
-23
-24
-25
-24
-23
-20
-18
-15
-13
-13
-14
-16
-19
-22
-25
-27
-26
-25
-22
-19
-16
-14
-14
-16
-18
-22
-25
-27
-29
-30
-29
-28
-24
-18
-9
5
25
51
83
119
155
189
216
231
234
221
196
160
117
72
30
-5
-32
-50
-59
-61
-59
-56
-52
-49
-47
-46
-45
-42
-38
-33
-27
-21
-16
-13
-11
-11
-13
-14
-16
-16
-15
-13
-11
-7
-5
-3
-2
-3
-4
-6
-8
-9
-9
-9
-7
-5
-4
-2
0
1
1
2
2
2
2
2
2
3
3
4
5
6
7
8
9
11
12
14
15
15
16
16
16
15
15
16
17
18
20
22
25
27
29
30
31
32
33
33
34
35
37
39
41
44
45
47
48
48
49
49
50
51
53
54
56
57
58
59
58
57
55
52
50
48
47
46
45
45
45
44
43
41
39
35
32
28
25
22
21
20
20
21
21
20
19
17
14
12
9
7
6
6
7
8
9
10
11
10
8
6
4
2
1
1
1
3
5
7
9
10
10
9
7
5
3
2
1
1
2
3
5
6
7
7
7
6
5
5
5
6
7
9
11
13
14
14
13
12
10
8
7
5
5
6
7
8
9
10
11
11
10
10
9
9
9
9
10
10
10
10
10
10
9
9
9
9
10
10
11
12
12
12
11
10
9
8
7
7
7
7
8
9
10
11
12
12
12
11
11
10
10
11
12
13
15
16
18
19
19
19
19
18
17
17
17
18
20
22
25
27
30
31
32
33
32
31
29
28
26
24
22
20
18
15
13
11
8
7
6
6
6
8
9
10
11
11
11
10
9
8
8
8
8
9
9
10
10
10
10
9
9
9
10
10
11
11
11
10
8
6
4
1
-2
-4
-5
-4
0
8
22
42
70
103
141
181
218
249
270
277
270
248
214
171
126
81
42
12
-10
-22
-28
-29
-28
-26
-25
-25
-25
-25
-24
-21
-17
-11
-5
1
5
7
8
7
6
5
4
4
5
7
9
11
13
14
14
13
11
9
7
5
4
3
4
6
8
11
14
16
18
18
17
15
13
10
8
7
7
9
11
14
17
20
22
24
25
26
26
27
27
27
27
28
28
28
28
28
29
30
31
33
35
36
37
38
38
37
37
36
35
35
35
36
36
37
38
39
39
39
39
38
37
37
37
37
39
40
42
43
44
45
44
43
40
37
34
31
28
25
22
20
18
16
14
12
11
9
7
6
4
2
0
-2
-5
-7
-10
-12
-14
-16
-18
-19
-20
-20
-21
-22
-23
-24
-24
-25
-26
-27
-27
-28
-28
-28
-29
-30
-31
-33
-34
-36
-38
-40
-43
-45
-47
-49
-50
-52
-54
-56
-59
-61
-64
-68
-71
-75
-78
-81
-84
-86
-88
-88
-89
-89
-89
-89
-90
-92
-95
-99
-104
-108
-112
-116
-119
-122
-125
-128
-131
-135
-141
-147
-154
-162
-168
-173
-178
-180
-182
-183
-183
-183
-183
-184
-184
-183
-182
-179
-174
-168
-160
-151
-142
-132
-122
-112
-103
-95
-87
-80
-73
-68
-64
-60
-58
-57
-55
-54
-51
-47
-43
-37
-32
-27
-23
-21
-21
-23
-26
-29
-32
-34
-34
-33
-31
-29
-26
-25
-25
-27
-29
-32
-34
-37
-38
-39
-39
-38
-37
-35
-34
-32
-31
-30
-30
-29
-29
-29
-30
-30
-31
-31
-32
-31
-30
-29
-27
-26
-24
-23
-22
-22
-23
-26
-29
-33
-37
-40
-40
-37
-28
-13
9
38
73
112
152
190
222
245
256
252
235
205
165
120
73
29
-9
-38
-57
-66
-68
-65
-59
-53
-47
-43
-41
-39
-37
-34
-29
-24
-19
-14
-10
-9
-9
-11
-14
-17
-18
-19
-18
-15
-12
-10
-7
-6
-6
-7
-8
-8
-9
-8
-8
-7
-6
-5
-5
-4
-4
-3
-2
0
1
3
4
5
5
5
5
4
4
5
6
8
10
12
14
15
16
16
17
17
18
20
21
23
25
26
27
27
28
29
30
32
34
37
39
42
43
44
44
43
43
43
44
46
49
51
54
56
57
56
55
54
52
51
51
52
53
55
57
57
56
54
51
47
43
39
36
33
32
31
31
31
31
30
28
25
22
19
15
12
9
7
6
5
4
4
3
2
1
0
-1
-3
-3
-4
-4
-3
-3
-2
-1
-1
-1
-2
-3
-4
-4
-5
-5
-5
-5
-4
-2
-1
1
2
3
4
4
4
3
2
0
-2
-4
-5
-6
-6
-5
-4
-3
-2
-1
0
0
-1
-2
-3
-4
-4
-4
-3
-2
-1
0
1
1
0
-1
-3
-4
-5
-5
-4
-3
-2
-1
1
1
2
1
1
0
-2
-3
-4
-5
-5
-5
-4
-4
-3
-3
-3
-2
-2
-2
-2
-2
-2
-2
-2
-3
-4
-5
-6
-7
-7
-7
-7
-6
-4
-2
-1
1
2
2
2
1
1
1
1
2
4
7
10
13
15
17
18
19
18
17
15
14
12
10
9
7
6
4
2
0
-1
-3
-5
-7
-8
-9
-10
-11
-11
-12
-12
-12
-12
-11
-10
-10
-9
-9
-9
-10
-11
-13
-14
-15
-16
-15
-14
-12
-11
-10
-9
-10
-12
-15
-17
-20
-22
-23
-24
-24
-23
-21
-18
-11
-1
15
37
66
100
136
173
205
229
241
239
224
195
156
112
67
24
-11
-38
-56
-66
-69
-67
-64
-59
-55
-51
-48
-44
-40
-35
-29
-23
-18
-13
-10
-9
-10
-11
-13
-15
-16
-16
-15
-14
-13
-11
-11
-11
-11
-11
-12
-12
-11
-10
-9
-8
-6
-6
-5
-5
-5
-5
-5
-4
-2
-1
1
3
4
5
5
5
4
4
3
3
3
4
5
7
8
9
10
12
13
14
16
17
18
20
21
22
23
24
26
28
30
33
36
39
41
43
43
43
42
41
40
40
41
43
45
48
50
52
52
52
50
48
47
45
45
45
46
47
47
47
46
44
41
38
34
32
29
28
26
25
24
23
21
19
16
13
10
8
5
4
2
1
0
-1
-3
-4
-5
-6
-8
-9
-10
-10
-11
-12
-12
-12
-12
-12
-12
-11
-11
-10
-10
-10
-11
-11
-12
-13
-13
-14
-14
-15
-15
-15
-16
-16
-16
-16
-17
-17
-17
-17
-17
-17
-17
-17
-18
-19
-20
-20
-20
-20
-19
-18
-16
-15
-14
-13
-13
-14
-16
-18
-19
-21
-21
-21
-20
-18
-17
-16
-16
-16
-18
-20
-22
-24
-25
-25
-24
-23
-21
-19
-17
-17
-18
-19
-21
-23
-25
-26
-26
-25
-24
-23
-22
-21
-21
-21
-21
-21
-21
-20
-20
-20
-20
-20
-20
-20
-20
-19
-18
-16
-14
-12
-10
-8
-8
-7
-8
-8
-8
-9
-9
-8
-8
-7
-6
-5
-4
-3
-3
-2
-3
-4
-6
-8
-11
-14
-16
-18
-18
-18
-18
-18
-18
-19
-20
-22
-24
-25
-26
-25
-24
-22
-20
-19
-19
-19
-20
-22
-24
-25
-26
-25
-24
-22
-20
-18
-17
-17
-17
-19
-20
-22
-24
-25
-27
-27
-27
-25
-21
-12
2
21
47
77
110
143
174
198
211
213
201
177
142
101
57
16
-20
-47
-64
-73
-75
-72
-67
-61
-57
-54
-53
-52
-51
-48
-44
-38
-32
-26
-22
-19
-17
-17
-18
-19
-19
-19
-17
-15
-13
-11
-10
-9
-9
-10
-11
-12
-13
-13
-13
-12
-11
-10
-8
-7
-5
-4
-3
-3
-3
-3
-4
-4
-5
-5
-5
-5
-4
-4
-3
-3
-3
-3
-3
-3
-3
-2
-1
1
3
6
9
12
15
17
19
20
20
20
20
20
20
21
22
23
25
27
29
30
32
33
33
34
35
36
37
38
39
40
40
40
40
40
40
40
41
41
40
40
39
37
35
33
31
29
27
26
24
23
21
19
16
14
12
10
8
7
6
5
4
2
0
-3
-5
-7
-8
-9
-9
-8
-7
-7
-7
-7
-8
-10
-11
-12
-13
-12
-12
-11
-10
-10
-10
-11
-13
-14
-16
-17
-17
-16
-15
-13
-11
-9
-8
-7
-8
-8
-10
-11
-12
-13
-13
-13
-12
-12
-11
-11
-10
-10
-10
-10
-10
-10
-11
-11
-11
-11
-12
-12
-12
-11
-11
-11
-11
-11
-12
-13
-14
-14
-15
-15
-14
-14
-13
-12
-11
-10
-10
-11
-11
-11
-11
-11
-10
-9
-9
-8
-8
-9
-10
-12
-13
-14
-15
-15
-15
-14
-14
-13
-13
-12
-12
-13
-13
-14
-14
-14
-13
-12
-11
-9
-7
-6
-4
-3
-2
0
1
2
3
5
6
7
7
7
6
5
4
2
0
-1
-2
-3
-5
-6
-7
-9
-11
-13
-14
-16
-17
-17
-17
-17
-18
-19
-19
-20
-21
-22
-22
-22
-21
-20
-19
-17
-16
-15
-15
-15
-15
-16
-16
-17
-18
-19
-20
-21
-23
-24
-25
-27
-28
-28
-27
-24
-19
-9
7
28
55
86
121
155
185
207
218
217
203
176
140
99
56
17
-17
-43
-60
-69
-72
-71
-67
-63
-60
-57
-55
-52
-49
-45
-40
-35
-30
-25
-21
-18
-17
-17
-17
-17
-18
-18
-18
-18
-18
-18
-19
-20
-20
-21
-21
-20
-19
-18
-17
-15
-14
-13
-12
-11
-10
-10
-9
-8
-7
-6
-6
-6
-6
-7
-7
-7
-7
-7
-5
-4
-2
0
1
2
3
3
2
2
2
3
4
6
9
11
13
15
16
16
16
15
15
16
18
20
23
27
30
33
35
36
36
36
36
35
35
35
36
37
37
38
37
37
36
35
34
34
34
34
35
35
35
34
32
30
27
24
20
17
14
12
10
8
6
5
3
1
0
-2
-3
-4
-5
-5
-5
-5
-6
-7
-9
-11
-14
-16
-18
-19
-19
-18
-16
-14
-13
-12
-12
-14
-16
-19
-21
-23
-24
-24
-22
-20
-19
-17
-17
-17
-18
-19
-20
-20
-20
-20
-19
-18
-17
-16
-16
-17
-17
-17
-18
-18
-17
-17
-16
-16
-15
-15
-14
-14
-14
-13
-13
-13
-14
-14
-15
-15
-16
-16
-16
-15
-14
-13
-12
-11
-11
-11
-12
-13
-15
-16
-18
-19
-19
-19
-19
-18
-17
-16
-15
-16
-16
-17
-17
-18
-18
-17
-16
-15
-14
-14
-14
-15
-16
-17
-19
-19
-19
-18
-16
-14
-13
-11
-10
-11
-11
-12
-14
-15
-15
-15
-15
-13
-12
-11
-9
-8
-7
-6
-4
-3
-1
1
3
5
6
8
9
9
9
9
8
6
4
2
-2
-5
-8
-11
-14
-16
-17
-17
-17
-17
-17
-17
-17
-18
-18
-18
-18
-18
-18
-17
-17
-17
-17
-18
-18
-18
-18
-18
-17
-16
-15
-15
-15
-16
-17
-18
-19
-20
-20
-20
-20
-21
-23
-25
-28
-30
-30
-25
-14
5
31
65
103
144
182
215
238
248
245
228
199
161
118
75
34
0
-26
-44
-54
-57
-56
-53
-49
-45
-43
-41
-40
-39
-37
-34
-31
-27
-24
-21
-19
-18
-18
-18
-17
-17
-15
-14
-12
-11
-10
-11
-12
-14
-16
-18
-19
-19
-18
-15
-12
-9
-7
-6
-6
-6
-7
-8
-8
-8
-7
-5
-3
-1
0
1
1
1
0
-2
-3
-3
-3
-3
-1
0
2
4
6
7
8
9
10
10
11
12
14
16
18
20
23
25
27
29
29
30
30
30
31
32
34
36
38
40
42
42
42
41
40
38
37
36
36
37
38
39
40
40
40
38
36
34
32
31
30
29
28
27
26
24
21
18
15
11
8
6
4
3
2
1
0
-2
-3
-5
-6
-8
-9
-9
-10
-10
-11
-11
-12
-13
-14
-14
-14
-14
-14
-13
-12
-12
-11
-11
-11
-11
-11
-11
-12
-12
-12
-12
-12
-12
-12
-12
-12
-12
-12
-12
-12
-12
-12
-12
-12
-11
-11
-11
-10
-10
-10
-11
-11
-12
-13
-13
-14
-15
-15
-15
-14
-13
-12
-12
-11
-10
-10
-11
-12
-13
-15
-16
-18
-18
-18
-17
-15
-12
-10
-8
-7
-6
-7
-9
-10
-12
-14
-15
-15
-14
-14
-13
-13
-14
-15
-16
-17
-17
-18
-17
-16
-15
-14
-13
-13
-14
-15
-16
-17
-17
-17
-16
-14
-12
-10
-8
-7
-6
-5
-6
-6
-7
-8
-8
-8
-7
-5
-3
-1
1
4
6
8
9
9
9
9
8
7
6
5
4
2
0
-2
-5
-8
-11
-14
-16
-18
-19
-20
-19
-19
-19
-19
-19
-19
-19
-20
-20
-19
-19
-18
-18
-18
-18
-18
-18
-19
-19
-19
-19
-19
-18
-18
-18
-18
-19
-20
-21
-22
-24
-26
-28
-29
-30
-28
-23
-13
3
27
57
93
132
171
206
233
248
249
236
208
171
126
79
35
-2
-31
-51
-63
-67
-66
-64
-60
-56
-53
-50
-47
-42
-37
-31
-25
-19
-15
-13
-12
-13
-14
-15
-16
-16
-16
-15
-14
-13
-12
-12
-12
-12
-11
-11
-10
-10
-10
-11
-13
-14
-16
-16
-15
-13
-10
-6
-2
1
2
1
0
-3
-5
-7
-8
-7
-4
-1
2
5
6
7
7
6
5
4
4
5
6
8
10
11
13
14
14
15
15
17
19
21
23
26
28
30
32
33
33
34
34
34
35
36
36
37
38
38
39
39
40
41
42
43
45
46
46
46
45
43
40
36
33
30
27
25
24
23
22
21
20
19
17
15
13
10
8
5
3
1
-1
-2
-3
-4
-5
-5
-6
-6
-6
-7
-8
-9
-11
-12
-14
-15
-15
-15
-14
-12
-11
-9
-8
-8
-9
-11
-13
-16
-18
-20
-19
-18
-15
-12
-9
-6
-4
-4
-6
-8
-10
-12
-14
-14
-12
-10
-7
-5
-3
-2
-2
-2
-4
-5
-7
-8
-9
-10
-11
-12
-12
-13
-13
-13
-12
-11
-10
-9
-9
-9
-9
-10
-11
-12
-12
-12
-11
-10
-9
-8
-8
-8
-9
-10
-11
-11
-11
-11
-10
-8
-7
-7
-7
-7
-8
-9
-9
-10
-11
-11
-11
-12
-12
-12
-12
-13
-13
-13
-13
-14
-14
-14
-14
-14
-14
-14
-14
-13
-12
-10
-9
-8
-8
-7
-8
-8
-8
-8
-7
-6
-4
-1
2
5
7
9
10
9
8
6
4
1
-1
-4
-5
-7
-8
-9
-10
-11
-12
-13
-15
-16
-18
-19
-21
-22
-23
-24
-24
-24
-23
-21
-20
-19
-18
-18
-18
-19
-20
-20
-21
-21
-20
-19
-19
-18
-18
-19
-21
-22
-24
-26
-27
-27
-27
-27
-28
-28
-27
-26
-21
-12
2
22
49
81
115
150
180
202
214
213
199
173
137
96
53
12
-23
-50
-69
-79
-83
-81
-77
-71
-66
-61
-58
-55
-52
-49
-45
-41
-36
-31
-26
-22
-20
-18
-18
-19
-20
-21
-22
-22
-22
-21
-20
-19
-18
-17
-17
-17
-17
-18
-18
-18
-18
-18
-17
-17
-16
-16
-16
-16
-16
-17
-18
-18
-18
-18
-17
-15
-13
-11
-9
-7
-5
-4
-3
-3
-3
-3
-2
-2
-1
0
1
3
4
5
6
7
9
11
13
14
16
17
18
20
21
22
24
26
28
30
32
33
33
33
33
32
32
32
33
34
34
35
36
36
35
35
34
34
34
34
35
35
34
32
30
27
24
21
18
16
14
13
12
11
10
8
6
3
1
-1
-3
-5
-6
-7
-8
-9
-10
-11
-13
-14
-15
-15
-15
-14
-12
-11
-10
-10
-10
-11
-12
-14
-15
-16
-16
-16
-16
-15
-15
-14
-15
-15
-16
-17
-17
-17
-17
-16
-14
-13
-12
-11
-11
-12
-13
-14
-15
-16
-17
-17
-18
-18
-18
-17
-17
-16
-15
-14
-12
-11
-10
-9
-9
-10
-11
-13
-14
-14
-15
-14
-13
-12
-10
-9
-9
-9
-10
-12
-14
-15
-17
-17
-17
-16
-15
-13
-12
-12
-12
-13
-14
-15
-16
-16
-16
-16
-15
-15
-14
-14
-15
-15
-16
-17
-17
-17
-16
-15
-14
-13
-12
-11
-11
-10
-11
-11
-11
-10
-10
-9
-8
-7
-5
-4
-3
-1
0
1
2
2
3
3
3
2
1
0
-1
-3
-5
-7
-9
-12
-14
-15
-17
-18
-18
-17
-16
-15
-13
-12
-12
-12
-12
-14
-15
-17
-18
-19
-19
-18
-17
-16
-15
-14
-14
-15
-16
-18
-19
-20
-20
-19
-18
-16
-15
-15
-16
-18
-20
-21
-21
-16
-6
9
32
60
93
127
160
189
209
219
216
201
174
139
98
56
17
-16
-42
-60
-70
-73
-71
-67
-62
-58
-54
-50
-47
-43
-38
-32
-26
-21
-16
-13
-12
-12
-13
-14
-15
-16
-15
-14
-12
-11
-10
-10
-10
-11
-12
-13
-12
-11
-10
-8
-6
-4
-3
-3
-3
-4
-5
-6
-6
-6
-6
-5
-4
-3
-2
-2
-2
-1
-1
0
1
3
4
6
8
10
11
11
11
10
10
9
9
9
10
12
14
16
19
22
24
26
28
29
29
30
31
31
32
33
34
36
37
39
41
43
44
45
45
45
44
42
41
39
39
38
39
39
40
40
40
39
38
36
34
32
31
30
29
28
27
24
22
19
15
12
10
7
6
4
3
1
0
-2
-5
-7
-8
-9
-9
-8
-6
-5
-4
-4
-5
-6
-8
-11
-13
-14
-15
-15
-14
-13
-11
-9
-8
-7
-7
-7
-7
-8
-8
-8
-8
-8
-8
-9
-10
-11
-12
-13
-13
-13
-13
-13
-13
-12
-11
-10
-10
-9
-8
-7
-6
-6
-6
-6
-8
-9
-11
-13
-14
-14
-13
-11
-9
-8
-7
-7
-8
-10
-11
-13
-14
-14
-12
-10
-8
-6
-5
-6
-7
-9
-12
-14
-15
-15
-15
-13
-12
-10
-10
-10
-10
-11
-12
-13
-13
-12
-11
-11
-10
-10
-11
-12
-13
-14
-15
-15
-14
-13
-11
-9
-7
-6
-6
-6
-7
-8
-8
-8
-7
-5
-2
1
4
7
9
10
11
10
8
6
4
2
1
-1
-1
-2
-3
-4
-5
-7
-10
-12
-14
-16
-18
-18
-18
-17
-16
-14
-13
-12
-12
-13
-15
-17
-19
-20
-20
-20
-18
-16
-14
-11
-10
-9
-9
-11
-13
-15
-17
-19
-20
-21
-21
-22
-22
-23
-23
-21
-17
-7
8
29
57
90
126
161
192
216
228
228
214
188
152
109
65
24
-11
-38
-56
-65
-68
-65
-61
-56
-52
-49
-48
-47
-46
-43
-39
-33
-28
-22
-17
-14
-13
-13
-14
-16
-17
-18
-18
-17
-16
-14
-13
-12
-12
-13
-13
-13
-13
-12
-10
-8
-6
-4
-3
-2
-2
-3
-4
-5
-6
-6
-6
-5
-4
-3
-1
-1
0
0
0
0
0
0
1
2
4
6
8
10
11
11
12
12
12
13
14
15
16
18
20
21
22
23
25
26
27
29
30
31
33
33
34
35
36
37
39
41
43
46
47
48
48
47
45
43
41
38
37
36
36
36
36
36
35
33
31
29
26
24
21
19
17
15
12
10
7
4
2
0
-1
-2
-2
-2
-2
-3
-3
-5
-6
-8
-10
-11
-13
-14
-15
-15
-15
-15
-14
-13
-11
-10
-8
-8
-8
-9
-11
-13
-16
-18
-19
-20
-19
-18
-16
-14
-12
-11
-11
-11
-12
-13
-14
-15
-15
-14
-14
-13
-13
-13
-13
-14
-15
-15
-16
-16
-16
-15
-15
-14
-14
-14
-14
-14
-14
-14
-14
-14
-14
-14
-14
-15
-15
-16
-16
-16
-15
-15
-14
-14
-14
-15
-17
-19
-20
-21
-21
-21
-19
-17
-15
-14
-13
-14
-16
-18
-20
-21
-21
-20
-18
-15
-13
-11
-10
-11
-12
-14
-17
-19
-21
-22
-22
-21
-20
-18
-17
-15
-13
-12
-10
-8
-5
-3
-2
-1
0
0
-1
-1
-1
-1
0
1
2
3
3
2
0
-3
-6
-9
-12
-14
-16
-16
-17
-17
-17
-18
-19
-21
-23
-25
-26
-27
-27
-26
-25
-23
-22
-20
-20
-20
-21
-22
-24
-25
-25
-24
-23
-22
-21
-19
-19
-19
-21
-23
-25
-27
-29
-31
-31
-32
-31
-30
-27
-21
-11
4
26
54
88
125
162
195
219
231
230
213
183
143
98
51
8
-28
-54
-70
-78
-78
-74
-68
-63
-58
-55
-53
-51
-49
-45
-40
-34
-28
-22
-18
-16
-16
-17
-20
-22
-24
-25
-25
-24
-22
-20
-18
-16
-15
-15
-15
-15
-15
-15
-14
-13
-11
-10
-9
-9
-9
-10
-11
-12
-13
-13
-12
-12
-11
-10
-9
-9
-8
-8
-7
-6
-4
-2
1
3
4
5
5
4
4
4
4
6
9
12
16
19
22
23
24
23
23
22
21
21
22
23
26
28
31
33
34
36
36
36
35
34
34
33
33
34
35
36
38
40
41
42
42
41
39
37
35
33
31
30
28
27
26
25
24
23
21
19
17
14
11
8
5
2
-1
-3
-4
-6
-7
-7
-8
-9
-9
-10
-11
-12
-12
-13
-13
-13
-13
-13
-14
-15
-16
-16
-17
-16
-16
-15
-14
-14
-14
-14
-14
-15
-15
-15
-15
-14
-12
-11
-11
-10
-11
-12
-13
-15
-16
-17
-17
-16
-16
-14
-13
-12
-12
-12
-12
-13
-14
-16
-17
-19
-20
-20
-20
-20
-18
-17
-16
-14
-13
-13
-13
-13
-13
-14
-14
-14
-14
-14
-14
-14
-14
-15
-15
-16
-17
-17
-18
-18
-18
-18
-18
-18
-18
-18
-18
-17
-17
-17
-16
-16
-15
-15
-15
-15
-15
-15
-15
-15
-15
-15
-15
-14
-14
-13
-12
-12
-11
-11
-11
-11
-10
-9
-8
-6
-4
-3
-2
-1
-1
-1
-2
-3
-3
-3
-3
-2
-1
-1
-2
-4
-6
-9
-12
-15
-17
-19
-19
-20
-20
-20
-21
-22
-23
-24
-24
-24
-22
-20
-17
-15
-14
-14
-15
-16
-19
-21
-23
-23
-22
-20
-18
-15
-14
-13
-13
-14
-16
-18
-19
-21
-22
-23
-24
-23
-21
-16
-6
10
34
65
101
140
177
209
231
239
231
209
175
132
85
40
1
-30
-51
-63
-68
-68
-66
-63
-59
-57
-54
-51
-48
-43
-37
-31
-26
-21
-18
-16
-15
-15
-16
-16
-16
-16
-16
-16
-15
-16
-16
-16
-16
-15
-14
-13
-12
-12
-11
-12
-13
-14
-15
-16
-16
-16
-14
-13
-11
-9
-9
-8
-9
-10
-10
-11
-11
-10
-8
-5
-2
1
3
5
5
5
5
4
4
3
4
5
6
8
11
13
15
17
19
20
21
22
22
23
23
24
25
26
28
29
31
32
33
33
34
34
34
34
34
35
36
37
38
38
39
39
39
38
38
37
37
36
35
34
32
29
26
22
18
14
10
8
5
4
4
4
4
5
5
4
2
0
-3
-6
-9
-11
-13
-14
-14
-14
-13
-11
-10
-9
-9
-10
-10
-11
-13
-13
-14
-14
-15
-15
-16
-16
-17
-17
-18
-17
-16
-15
-14
-13
-12
-12
-13
-14
-15
-16
-16
-16
-15
-13
-12
-10
-9
-9
-10
-11
-12
-13
-14
-14
-14
-14
-13
-12
-12
-12
-12
-13
-14
-15
-16
-17
-17
-17
-17
-16
-15
-14
-13
-12
-11
-11
-11
-12
-13
-15
-16
-17
-18
-17
-17
-15
-14
-13
-12
-12
-13
-14
-15
-17
-18
-18
-18
-17
-16
-15
-14
-13
-13
-14
-14
-15
-15
-15
-15
-15
-15
-15
-15
-15
-15
-16
-16
-15
-15
-13
-12
-10
-8
-5
-3
-2
0
1
1
2
2
2
2
2
1
1
0
-1
-3
-6
-9
-12
-16
-19
-22
-23
-24
-23
-22
-20
-18
-17
-16
-16
-17
-18
-19
-20
-21
-21
-21
-21
-21
-20
-20
-21
-21
-21
-22
-22
-21
-20
-19
-18
-17
-17
-17
-18
-20
-22
-25
-29
-31
-32
-29
-22
-9
11
38
72
110
150
187
219
241
250
245
225
194
154
109
64
23
-10
-34
-50
-57
-58
-55
-51
-47
-44
-41
-39
-37
-33
-28
-22
-15
-8
-3
1
2
1
-1
-3
-6
-8
-8
-8
-6
-5
-3
-1
0
0
0
0
0
0
1
2
3
5
6
7
7
8
8
8
8
8
8
9
10
12
13
15
16
16
15
13
11
10
9
9
11
14
18
23
28
31
33
34
32
30
28
26
25
25
27
29
32
35
38
39
41
42
43
44
46
48
49
50
50
50
48
47
46
45
45
46
49
51
54
56
57
57
55
53
50
47
44
41
40
38
37
36
35
34
32
29
27
24
21
19
17
15
13
11
10
8
7
5
4
2
1
0
-1
-2
-3
-4
-4
-5
-5
-5
-5
-6
-6
-6
-6
-6
-7
-7
-8
-10
-11
-12
-12
-12
-11
-10
-8
-7
-6
-5
-5
-6
-7
-8
-9
-10
-10
-10
-10
-10
-9
-9
-9
-8
-8
-8
-7
-7
-7
-7
-8
-9
-10
-11
-11
-11
-11
-10
-9
-7
-6
-6
-6
-7
-8
-9
-10
-11
-11
-10
-9
-8
-7
-6
-6
-6
-6
-7
-7
-7
-8
-8
-8
-9
-10
-11
-12
-12
-12
-12
-11
-9
-8
-8
-8
-9
-10
-11
-13
-13
-13
-13
-11
-9
-8
-6
-5
-5
-5
-5
-5
-5
-5
-4
-2
-1
1
2
3
4
5
6
7
8
10
11
12
12
12
10
8
4
-1
-6
-11
-15
-18
-20
-20
-20
-19
-18
-18
-18
-18
-19
-20
-21
-21
-22
-22
-21
-21
-21
-22
-22
-23
-23
-24
-24
-24
-23
-23
-23
-23
-23
-23
-23
-24
-25
-26
-28
-31
-34
-38
-40
-41
-37
-28
-12
12
42
79
118
158
193
220
235
237
224
197
160
115
68
22
-18
-50
-72
-85
-90
-89
-85
-79
-73
-69
-65
-62
-58
-54
-49
-43
-38
-34
-31
-30
-32
-34
-38
-41
-43
-44
-44
-43
-41
-39
-37
-36
-36
-37
-37
-37
-37
-37
-36
-35
-34
-33
-32
-31
-31
-30
-30
-29
-29
-29
-30
-30
-30
-30
-29
-28
-26
-24
-22
-19
-18
-16
-16
-16
-16
-17
-17
-16
-15
-14
-12
-11
-9
-8
-7
-6
-4
-3
0
2
5
7
10
11
13
13
14
14
15
16
17
19
21
23
24
25
26
27
27
27
26
26
26
26
26
26
27
27
27
27
27
27
26
24
22
20
18
15
13
11
9
7
6
4
3
1
-1
-3
-5
-7
-9
-11
-12
-14
-15
-16
-17
-18
-18
-19
-19
-19
-19
-18
-18
-17
-17
-17
-17
-18
-19
-20
-21
-22
-23
-23
-23
-22
-21
-20
-20
-19
-19
-18
-18
-18
-18
-17
-17
-16
-16
-17
-18
-19
-20
-21
-21
-20
-19
-18
-16
-14
-13
-12
-13
-14
-15
-17
-19
-21
-22
-22
-22
-21
-20
-19
-18
-17
-17
-17
-17
-17
-17
-17
-16
-16
-15
-14
-14
-14
-14
-14
-15
-16
-17
-17
-17
-18
-18
-18
-18
-18
-18
-18
-18
-19
-19
-19
-19
-20
-20
-19
-19
-18
-16
-15
-13
-11
-10
-9
-9
-10
-11
-12
-13
-13
-12
-10
-7
-4
-1
3
6
8
10
10
11
10
10
9
8
6
4
1
-2
-5
-8
-11
-12
-13
-13
-13
-12
-12
-12
-12
-14
-16
-18
-20
-21
-22
-22
-21
-20
-19
-18
-18
-18
-18
-19
-20
-20
-20
-20
-19
-18
-17
-16
-16
-16
-16
-16
-17
-18
-19
-21
-22
-22
-19
-13
-1
17
43
75
112
151
188
220
242
251
246
225
191
147
99
50
6
-31
-57
-73
-80
-80
-75
-69
-62
-57
-53
-50
-47
-44
-39
-33
-27
-21
-16
-12
-11
-11
-12
-14
-15
-15
-13
-11
-9
-7
-6
-6
-7
-10
-12
-14
-14
-13
-11
-8
-4
-1
1
2
2
1
-1
-3
-4
-5
-6
-6
-5
-4
-3
-1
0
2
4
6
8
10
12
13
14
14
14
14
13
13
12
12
12
12
14
16
20
24
28
32
35
37
37
37
35
34
33
33
34
36
39
43
46
48
49
49
48
46
44
43
43
43
45
47
48
50
50
50
49
48
46
44
43
42
42
41
41
39
37
33
29
25
20
16
13
11
10
9
9
9
8
7
4
2
0
-3
-4
-5
-5
-5
-4
-4
-4
-4
-5
-6
-8
-9
-10
-11
-11
-11
-11
-11
-11
-11
-11
-10
-10
-9
-9
-9
-9
-9
-10
-10
-11
-12
-12
-13
-13
-13
-13
-13
-13
-13
-13
-12
-11
-10
-8
-7
-6
-6
-6
-7
-9
-10
-12
-13
-14
-14
-14
-14
-13
-13
-12
-11
-10
-10
-9
-9
-9
-10
-10
-11
-12
-12
-12
-12
-12
-12
-11
-11
-11
-12
-12
-13
-13
-13
-12
-11
-11
-10
-10
-10
-11
-12
-12
-13
-12
-10
-8
-5
-2
0
1
1
1
0
-1
-2
-2
-1
1
3
6
9
11
12
12
11
9
7
5
3
1
0
-2
-3
-5
-7
-10
-12
-14
-16
-17
-17
-17
-17
-16
-16
-16
-16
-17
-18
-19
-19
-20
-20
-20
-19
-18
-17
-16
-15
-15
-14
-14
-15
-16
-16
-18
-19
-20
-21
-22
-23
-24
-25
-25
-24
-20
-14
-3
14
37
66
100
136
172
203
225
236
233
215
184
142
95
47
3
-34
-62
-79
-87
-87
-84
-78
-72
-67
-64
-61
-57
-53
-48
-42
-35
-28
-22
-18
-16
-16
-16
-17
-18
-18
-17
-15
-13
-10
-9
-8
-8
-8
-9
-10
-10
-10
-9
-8
-7
-5
-3
-2
-1
-1
-1
-1
-1
0
0
1
2
4
5
6
6
6
6
5
5
5
6
7
8
10
11
12
13
13
13
13
13
14
15
17
19
21
23
24
24
24
24
24
25
26
28
30
33
35
37
38
38
38
38
37
37
37
38
39
39
39
39
38
37
35
33
32
31
31
32
33
35
35
35
34
32
29
25
21
16
12
9
6
3
1
0
-2
-4
-6
-8
-10
-11
-13
-14
-15
-16
-17
-18
-19
-21
-23
-24
-26
-26
-27
-27
-26
-26
-25
-25
-25
-26
-26
-27
-27
-28
-27
-27
-27
-26
-26
-26
-27
-27
-27
-27
-26
-26
-25
-24
-23
-23
-23
-23
-24
-25
-25
-24
-24
-22
-21
-21
-20
-21
-22
-23
-24
-25
-25
-25
-24
-22
-21
-20
-19
-19
-19
-19
-19
-19
-18
-17
-16
-15
-15
-15
-16
-18
-20
-21
-23
-23
-23
-23
-22
-20
-19
-17
-16
-15
-15
-15
-15
-15
-15
-15
-15
-14
-13
-12
-11
-10
-9
-8
-8
-8
-8
-8
-7
-6
-4
-1
3
6
9
12
13
13
12
10
7
4
1
-1
-2
-3
-5
-6
-8
-11
-14
-16
-19
-20
-21
-21
-20
-19
-17
-17
-17
-17
-18
-20
-21
-22
-23
-24
-24
-24
-23
-22
-21
-21
-20
-20
-20
-20
-21
-22
-23
-24
-25
-25
-25
-26
-26
-25
-24
-21
-15
-5
11
34
64
99
137
174
207
230
242
239
221
189
148
100
52
6
-32
-60
-79
-89
-92
-90
-85
-79
-73
-68
-63
-58
-52
-46
-40
-33
-28
-24
-21
-20
-20
-21
-22
-22
-22
-21
-20
-18
-17
-16
-15
-15
-15
-15
-15
-15
-15
-14
-14
-14
-14
-13
-12
-11
-9
-7
-5
-3
-2
-2
-2
-3
-5
-6
-7
-7
-6
-3
-1
2
5
7
9
10
10
11
11
12
13
15
16
17
18
18
17
16
16
16
17
19
22
25
29
32
34
36
37
37
36
36
36
36
36
37
38
39
40
41
42
42
43
44
45
46
47
47
47
46
45
42
40
38
36
34
33
32
32
30
29
26
23
19
15
12
8
6
5
5
5
5
5
5
4
2
0
-3
-5
-7
-9
-10
-10
-10
-10
-10
-11
-11
-12
-14
-14
-15
-15
-14
-13
-12
-12
-12
-12
-13
-14
-16
-17
-18
-18
-17
-16
-14
-13
-11
-10
-10
-11
-12
-14
-15
-17
-18
-19
-19
-18
-17
-15
-14
-12
-11
-11
-12
-14
-15
-17
-18
-18
-17
-15
-13
-10
-9
-8
-8
-9
-12
-15
-18
-20
-21
-20
-18
-16
-13
-11
-9
-9
-10
-13
-16
-19
-22
-24
-25
-25
-24
-22
-20
-18
-16
-14
-13
-13
-12
-12
-11
-10
-9
-8
-6
-5
-4
-3
-2
-2
-2
-2
-2
-2
-1
0
1
2
3
3
3
2
0
-3
-7
-10
-14
-17
-20
-22
-22
-22
-22
-21
-21
-21
-21
-22
-23
-24
-25
-25
-25
-24
-23
-23
-23
-24
-25
-26
-26
-25
-24
-23
-21
-20
-19
-20
-21
-23
-25
-27
-28
-29
-30
-30
-30
-28
-25
-19
-8
9
33
64
100
139
176
207
227
234
226
202
166
121
72
25
-17
-49
-72
-85
-89
-88
-84
-79
-75
-71
-68
-65
-61
-55
-48
-40
-32
-24
-18
-15
-14
-14
-16
-19
-21
-21
-21
-20
-17
-15
-13
-13
-13
-14
-15
-17
-18
-18
-17
-16
-14
-11
-9
-8
-7
-7
-8
-9
-9
-9
-9
-8
-7
-5
-4
-2
-2
-1
-1
-2
-3
-3
-3
-2
-1
1
3
6
8
10
12
13
14
14
15
15
16
18
19
22
24
26
27
29
30
32
33
35
37
38
40
41
41
41
40
39
38
37
38
39
41
43
45
47
47
47
45
42
39
37
35
34
34
34
35
35
34
31
28
23
19
15
12
10
10
11
12
12
12
11
9
7
3
0
-2
-4
-5
-6
-6
-6
-7
-7
-8
-9
-10
-10
-11
-11
-10
-10
-10
-10
-10
-10
-9
-9
-9
-9
-9
-9
-9
-9
-10
-10
-10
-10
-9
-9
-9
-8
-8
-8
-8
-9
-9
-9
-9
-9
-8
-8
-8
-8
-9
-9
-9
-10
-10
-10
-10
-10
-9
-9
-8
-8
-8
-9
-9
-10
-10
-11
-11
-10
-9
-8
-6
-5
-5
-5
-6
-8
-10
-11
-12
-13
-12
-11
-10
-9
-8
-8
-9
-10
-11
-11
-11
-9
-7
-4
-2
-1
0
-1
-2
-2
-3
-2
0
4
7
11
13
15
14
13
10
7
4
2
0
-1
-1
-1
-2
-3
-4
-7
-10
-13
-17
-20
-22
-24
-25
-26
-26
-25
-25
-24
-23
-22
-21
-21
-21
-21
-22
-22
-22
-21
-21
-20
-20
-19
-20
-20
-21
-22
-23
-23
-24
-24
-24
-24
-24
-23
-20
-15
-6
9
30
57
89
124
160
191
214
227
226
211
183
145
102
56
13
-24
-53
-72
-82
-86
-84
-79
-74
-69
-65
-62
-59
-55
-51
-45
-38
-31
-25
-20
-16
-15
-15
-16
-18
-19
-20
-19
-18
-17
-15
-14
-13
-13
-14
-15
-16
-17
-17
-17
-17
-16
-16
-15
-15
-15
-15
-14
-14
-13
-12
-11
-10
-10
-9
-9
-8
-8
-7
-6
-4
-2
0
1
2
3
3
3
3
3
4
5
6
8
10
12
14
15
17
17
18
19
20
20
21
22
23
24
24
25
27
28
30
32
35
38
40
42
44
44
44
43
41
39
37
36
35
34
34
34
34
33
32
31
28
26
23
21
18
17
15
14
12
11
9
7
5
2
0
-1
-2
-3
-3
-4
-5
-6
-8
-10
-13
-16
-18
-20
-20
-20
-19
-18
-16
-15
-15
-15
-17
-18
-20
-21
-22
-22
-22
-22
-21
-20
-20
-20
-20
-21
-21
-21
-20
-19
-18
-17
-17
-16
-16
-16
-17
-17
-17
-17
-17
-17
-17
-18
-18
-19
-20
-20
-20
-19
-18
-17
-15
-14
-13
-13
-13
-14
-15
-16
-17
-18
-18
-18
-17
-17
-15
-14
-13
-12
-12
-12
-14
-15
-17
-19
-21
-22
-23
-22
-21
-19
-17
-14
-11
-9
-7
-5
-4
-4
-4
-5
-6
-7
-7
-6
-5
-3
-1
1
4
5
6
5
4
3
1
-2
-3
-5
-6
-7
-7
-9
-11
-13
-16
-19
-21
-23
-25
-25
-24
-23
-22
-20
-19
-18
-17
-17
-18
-18
-18
-18
-18
-18
-18
-19
-19
-19
-20
-21
-21
-22
-22
-21
-21
-21
-21
-21
-22
-24
-26
-28
-30
-29
-26
-18
-4
16
43
76
113
151
187
216
234
239
229
205
168
124
76
29
-12
-44
-65
-77
-80
-78
-73
-67
-62
-59
-57
-55
-53
-49
-43
-37
-29
-22
-17
-13
-12
-13
-14
-16
-18
-18
-18
-17
-15
-14
-13
-12
-13
-13
-14
-14
-14
-14
-13
-12
-11
-10
-10
-9
-9
-8
-8
-8
-7
-7
-7
-7
-7
-7
-7
-6
-4
-2
1
4
6
8
8
8
6
4
2
1
0
1
3
6
10
14
17
20
22
23
23
23
22
22
22
23
25
28
31
34
36
38
40
40
40
40
40
40
40
41
42
44
45
46
46
46
46
46
45
44
43
42
40
38
36
34
32
30
28
26
24
22
20
18
15
12
10
7
5
3
2
1
1
0
-1
-2
-3
-5
-6
-7
-8
-9
-9
-10
-11
-13
-14
-16
-17
-18
-18
-18
-17
-16
-15
-14
-14
-13
-13
-14
-14
-14
-14
-13
-13
-13
-13
-13
-14
-15
-15
-15
-15
-14
-13
-12
-12
-12
-13
-15
-16
-17
-18
-17
-16
-14
-12
-11
-10
-11
-12
-14
-16
-18
-19
-19
-18
-17
-15
-13
-12
-12
-13
-14
-16
-17
-17
-17
-17
-16
-16
-16
-17
-18
-19
-20
-21
-21
-20
-19
-17
-15
-13
-11
-10
-9
-8
-7
-7
-7
-6
-6
-6
-5
-5
-5
-4
-2
-1
2
4
6
8
9
9
7
5
1
-3
-7
-10
-13
-15
-17
-18
-18
-19
-19
-19
-20
-20
-20
-20
-20
-20
-19
-19
-18
-19
-19
-20
-21
-22
-23
-23
-22
-22
-21
-20
-20
-21
-21
-23
-23
-24
-23
-22
-21
-20
-20
-21
-23
-26
-29
-29
-25
-15
3
28
61
100
140
179
211
233
242
236
215
183
141
94
47
4
-31
-58
-75
-84
-85
-83
-78
-72
-66
-61
-57
-53
-49
-44
-39
-33
-27
-22
-18
-16
-15
-16
-18
-20
-22
-23
-23
-22
-21
-20
-19
-18
-18
-17
-17
-17
-17
-17
-16
-16
-15
-15
-14
-13
-12
-11
-10
-9
-9
-8
-8
-8
-8
-8
-8
-7
-5
-4
-2
0
1
2
2
2
2
2
2
3
4
5
7
8
10
11
12
12
13
15
16
18
21
24
27
30
32
35
36
37
37
37
37
36
35
35
35
36
38
39
41
42
43
43
43
41
40
38
36
35
35
34
33
32
30
28
25
23
20
18
16
15
15
14
13
11
9
5
1
-3
-6
-8
-9
-10
-9
-8
-8
-8
-9
-11
-14
-16
-19
-20
-21
-21
-21
-20
-19
-19
-19
-20
-20
-21
-21
-21
-20
-19
-18
-17
-16
-16
-16
-15
-15
-15
-14
-14
-13
-12
-12
-11
-12
-13
-13
-15
-16
-16
-17
-17
-17
-17
-16
-15
-15
-14
-14
-14
-14
-15
-15
-15
-15
-15
-15
-14
-14
-13
-13
-13
-12
-12
-12
-11
-10
-9
-9
-8
-8
-8
-8
-9
-9
-10
-11
-12
-12
-12
-12
-12
-11
-9
-8
-7
-6
-6
-6
-6
-8
-9
-10
-10
-10
-9
-6
-2
2
6
9
12
13
14
14
13
12
11
10
10
9
9
8
6
4
1
-2
-5
-7
-9
-10
-10
-10
-11
-12
-14
-16
-18
-20
-21
-21
-20
-18
-15
-13
-11
-11
-12
-14
-17
-21
-24
-26
-26
-26
-24
-22
-20
-18
-17
-18
-19
-21
-24
-27
-30
-32
-33
-32
-28
-20
-7
13
39
70
106
143
179
208
229
236
230
209
176
134
87
40
-2
-37
-62
-78
-85
-86
-83
-78
-73
-68
-65
-62
-58
-54
-49
-43
-36
-30
-25
-21
-19
-18
-19
-20
-21
-22
-22
-22
-21
-21
-21
-21
-21
-21
-21
-21
-20
-19
-18
-17
-17
-16
-16
-15
-15
-15
-15
-15
-15
-15
-14
-14
-12
-11
-9
-7
-5
-3
-1
0
0
-1
-2
-3
-3
-3
-2
-1
2
5
8
10
12
13
14
14
14
14
15
16
17
19
21
23
26
29
32
34
37
39
40
40
40
39
38
37
37
37
38
40
43
45
47
48
48
47
45
43
41
38
37
35
35
34
34
33
32
30
27
24
20
16
13
9
7
5
4
3
3
3
3
2
1
-1
-3
-6
-8
-11
-12
-13
-13
-13
-12
-12
-12
-12
-12
-13
-14
-14
-15
-15
-15
-15
-15
-15
-15
-16
-16
-17
-17
-17
-16
-15
-14
-13
-13
-13
-14
-15
-16
-18
-18
-19
-19
-18
-16
-15
-14
-13
-12
-12
-13
-13
-14
-14
-15
-15
-15
-15
-16
-16
-17
-17
-17
-17
-17
-16
-15
-14
-14
-13
-14
-14
-14
-15
-15
-14
-14
-13
-12
-12
-12
-13
-13
-14
-14
-13
-13
-11
-10
-9
-8
-7
-7
-7
-7
-7
-7
-6
-6
-5
-5
-5
-5
-5
-5
-4
-3
-1
2
4
7
9
11
11
10
8
5
2
0
-2
-4
-5
-7
-8
-9
-11
-13
-15
-17
-19
-20
-20
-19
-17
-16
-14
-13
-12
-13
-14
-16
-18
-21
-22
-23
-24
-23
-22
-20
-19
-18
-17
-17
-18
-20
-21
-22
-23
-23
-23
-23
-24
-25
-26
-26
-25
-19
-8
9
34
65
102
141
179
211
234
244
240
221
189
147
100
53
8
-29
-57
-75
-84
-85
-81
-75
-68
-62
-56
-52
-48
-45
-41
-36
-31
-26
-21
-18
-16
-15
-15
-16
-17
-17
-17
-17
-16
-14
-13
-11
-9
-8
-7
-6
-5
-5
-4
-4
-4
-4
-4
-4
-4
-3
-2
-1
0
1
2
3
3
3
2
1
1
1
1
1
2
3
4
6
7
8
9
11
12
14
15
17
19
20
22
23
24
25
26
26
27
27
28
29
30
31
33
35
37
39
40
41
42
42
41
41
40
40
40
41
42
43
45
46
47
48
48
47
45
44
41
39
37
35
32
30
28
26
24
22
20
19
17
16
15
14
12
11
9
8
6
4
1
-1
-4
-6
-8
-10
-10
-11
-10
-10
-8
-7
-6
-5
-6
-6
-8
-10
-12
-14
-16
-17
-18
-18
-18
-17
-16
-15
-14
-13
-11
-10
-9
-8
-8
-9
-10
-12
-14
-16
-17
-18
-19
-18
-18
-17
-16
-15
-14
-14
-13
-13
-13
-13
-13
-13
-12
-12
-12
-11
-12
-12
-13
-14
-15
-16
-17
-17
-17
-16
-14
-13
-11
-10
-10
-10
-11
-13
-15
-16
-18
-18
-19
-19
-19
-18
-19
-19
-19
-20
-20
-21
-21
-20
-20
-19
-17
-16
-15
-13
-12
-10
-9
-7
-6
-4
-3
-2
-2
-1
-1
0
0
1
1
1
1
1
1
0
0
-1
-2
-3
-4
-6
-8
-11
-13
-16
-18
-21
-22
-24
-25
-25
-25
-25
-25
-25
-25
-25
-25
-25
-25
-24
-24
-24
-24
-23
-23
-22
-21
-20
-19
-18
-19
-20
-21
-23
-26
-28
-30
-32
-33
-34
-35
-34
-31
-26
-15
1
24
54
89
127
165
199
223
236
235
218
189
149
104
57
13
-25
-53
-73
-84
-88
-87
-83
-78
-73
-68
-64
-59
-54
-49
-43
-37
-32
-28
-25
-24
-24
-25
-26
-27
-27
-27
-26
-24
-22
-21
-20
-20
-21
-22
-24
-25
-25
-25
-25
-23
-21
-19
-18
-16
-16
-15
-15
-16
-16
-16
-15
-14
-13
-12
-12
-11
-11
-10
-10
-9
-8
-7
-5
-4
-2
-1
0
0
0
1
2
3
4
6
8
9
10
11
11
12
12
13
15
17
19
22
25
27
29
30
30
29
29
28
28
27
27
28
28
29
30
31
32
33
34
34
33
33
31
30
29
27
25
24
22
20
18
15
13
10
6
3
1
-2
-4
-6
-7
-9
-11
-13
-16
-18
-20
-22
-24
-24
-25
-25
-25
-26
-27
-29
-31
-32
-33
-34
-33
-31
-30
-28
-26
-26
-26
-28
-29
-31
-32
-33
-33
-32
-30
-29
-28
-27
-27
-28
-29
-30
-30
-29
-28
-26
-24
-23
-22
-21
-21
-21
-22
-22
-21
-20
-19
-17
-15
-13
-12
-11
-10
-9
-9
-8
-7
-6
-5
-4
-4
-3
-3
-3
-3
-2
-2
-1
0
0
1
1
0
0
-1
-2
-2
-2
-2
-1
0
1
2
3
3
3
3
3
3
3
4
5
6
7
7
7
7
6
6
6
6
7
9
11
14
17
20
22
24
26
26
26
25
24
22
20
17
14
11
8
5
3
1
-1
-3
-4
-4
-5
-6
-7
-8
-9
-10
-11
-11
-11
-11
-11
-11
-11
-12
-12
-13
-14
-15
-16
-16
-16
-17
-17
-18
-19
-20
-20
-21
-22
-24
-25
-27
-30
-32
-33
-33
-28
-19
-3
21
52
88
127
165
199
224
237
235
219
190
151
105
58
13
-26
-57
-79
-92
-97
-98
-95
-90
-85
-80
-76
-71
-66
-61
-55
-49
-43
-37
-33
-30
-28
-28
-28
-28
-28
-29
-29
-30
-30
-31
-31
-31
-31
-30
-29
-28
-26
-25
-24
-24
-24
-25
-26
-26
-26
-26
-26
-24
-23
-22
-21
-20
-19
-18
-18
-17
-16
-15
-13
-12
-11
-10
-9
-9
-8
-8
-8
-7
-6
-5
-3
-1
1
2
3
5
5
6
7
8
9
11
12
15
17
19
21
23
24
26
27
28
28
29
29
30
30
30
30
30
29
29
28
27
27
26
26
26
26
25
25
24
23
21
19
17
14
11
9
6
3
