0
-1
-1
-1
0
0
0
0
0
0
-1
-1
-1
-1
0
1
3
4
4
4
3
2
0
-1
-2
-3
-3
-3
-3
-4
-5
-6
-8
-10
-11
-12
-12
-12
-11
-10
-8
-7
-5
-4
-3
-1
0
0
1
0
0
-2
-3
-5
-6
-7
-7
-7
-6
-5
-3
-3
-2
-3
-4
-6
-7
-9
-10
-10
-10
-10
-9
-8
-7
-7
-6
-6
-6
-6
-6
-7
-7
-7
-7
-8
-8
-9
-10
-10
-10
-10
-9
-8
-7
-5
-3
-2
0
2
3
4
5
5
5
6
6
7
8
8
8
8
8
7
6
4
3
1
-1
-2
-4
-5
-6
-7
-7
-8
-8
-7
-7
-7
-8
-8
-9
-9
-10
-11
-11
-11
-11
-10
-9
-9
-8
-8
-9
-10
-11
-12
-14
-15
-16
-17
-18
-18
-19
-18
-16
-12
-5
5
19
35
55
76
97
118
135
147
153
152
143
127
103
73
38
2
-33
-66
-94
-115
-128
-134
-132
-125
-113
-99
-85
-71
-59
-49
-41
-35
-31
-27
-24
-21
-19
-16
-14
-13
-12
-11
-11
-11
-11
-11
-11
-11
-10
-9
-8
-7
-6
-5
-5
-5
-5
-5
-6
-6
-7
-7
-6
-5
-5
-4
-3
-2
-2
-2
-1
-1
0
2
3
4
5
6
6
6
5
5
5
6
8
11
15
18
21
24
26
27
27
28
29
30
33
35
39
42
46
49
53
56
60
64
67
71
75
78
80
81
81
80
80
80
80
82
84
86
88
88
88
85
82
77
73
68
64
61
58
56
53
51
47
43
38
33
28
24
21
18
16
14
12
10
7
3
-1
-5
-8
-11
-13
-14
-14
-13
-11
-9
-6
-4
-2
-2
-2
-3
-6
-8
-11
-14
-16
-17
-17
-17
-15
-14
-12
-11
-10
-10
-10
-9
-9
-9
-9
-9
-9
-11
-12
-14
-16
-17
-17
-15
-12
-8
-5
-2
-1
-1
-3
-7
-11
-14
-17
-18
-18
-16
-14
-12
-10
-9
-9
-10
-11
-13
-13
-13
-13
-12
-12
-12
-13
-15
-17
-19
-20
-19
-17
-14
-10
-7
-4
-3
-4
-6
-9
-12
-15
-16
-17
-17
-16
-15
-14
-13
-13
-14
-14
-15
-16
-17
-17
-18
-18
-19
-19
-19
-19
-19
-18
-17
-16
-16
-16
-18
-21
-24
-28
-31
-33
-34
-33
-30
-27
-24
-21
-19
-19
-20
-22
-24
-27
-29
-30
-31
-30
-30
-28
-27
-25
-24
-22
-21
-21
-22
-23
-25
-27
-30
-32
-34
-35
-35
-34
-32
-31
-29
-28
-27
-27
-27
-27
-26
-26
-25
-24
-23
-22
-21
-21
-20
-19
-18
-16
-14
-13
-12
-13
-15
-18
-22
-26
-30
-32
-34
-34
-33
-31
-29
-28
-28
-28
-29
-31
-33
-34
-35
-35
-34
-33
-32
-30
-28
-27
-26
-25
-25
-26
-27
-29
-32
-35
-38
-40
-41
-40
-37
-33
-26
-17
-7
5
19
35
52
71
90
109
126
139
145
144
133
112
83
47
7
-35
-73
-107
-132
-149
-157
-156
-148
-135
-119
-102
-86
-72
-61
-52
-45
-40
-37
-34
-32
-30
-29
-27
-26
-24
-24
-23
-23
-22
-22
-22
-21
-21
-20
-19
-18
-18
-17
-17
-16
-16
-16
-17
-17
-18
-18
-18
-18
-17
-16
-14
-12
-10
-8
-7
-6
-7
-8
-9
-9
-9
-8
-7
-4
-1
2
4
6
8
8
8
9
9
10
11
13
15
18
21
24
27
31
35
39
42
46
49
52
55
57
59
61
64
66
68
70
72
74
75
76
76
77
77
78
78
79
79
78
77
74
71
67
64
60
56
52
49
46
42
39
34
30
24
19
15
10
7
4
3
1
0
-1
-3
-5
-7
-10
-13
-17
-20
-23
-26
-27
-28
-27
-26
-23
-20
-17
-14
-11
-10
-10
-11
-12
-15
-17
-19
-20
-21
-20
-19
-18
-17
-16
-16
-17
-18
-19
-20
-21
-22
-22
-22
-21
-21
-20
-19
-18
-17
-15
-14
-13
-13
-13
-14
-15
-17
-18
-20
-21
-21
-20
-18
-15
-11
-8
-5
-3
-2
-2
-3
-5
-7
-9
-10
-11
-11
-10
-9
-8
-7
-7
-8
-9
-11
-13
-15
-16
-16
-15
-14
-12
-10
-8
-6
-5
-5
-6
-9
-12
-15
-18
-20
-21
-19
-16
-12
-7
-2
2
4
5
3
0
-4
-7
-10
-11
-11
-9
-7
-5
-4
-4
-5
-6
-8
-10
-11
-12
-11
-10
-9
-8
-8
-8
-10
-11
-13
-15
-16
-18
-18
-19
-19
-18
-16
-14
-12
-8
-5
-2
0
0
0
-2
-4
-7
-9
-10
-10
-9
-7
-4
-2
-1
-1
-1
-2
-3
-4
-4
-2
-1
2
4
6
7
7
5
4
2
1
0
-1
-1
-1
-1
-2
-3
-4
-6
-8
-10
-12
-13
-15
-15
-15
-14
-13
-12
-11
-10
-10
-11
-12
-13
-14
-15
-14
-13
-11
-9
-8
-7
-8
-11
-15
-20
-25
-28
-29
-27
-22
-13
0
15
33
53
73
95
115
134
149
160
163
159
147
125
95
59
19
-21
-59
-92
-118
-134
-142
-140
-131
-117
-100
-82
-65
-50
-39
-31
-27
-24
-23
-23
-22
-21
-19
-17
-14
-12
-10
-9
-9
-10
-11
-12
-12
-11
-9
-6
-3
0
3
4
5
4
3
2
1
1
1
1
2
3
4
5
6
6
7
8
7
7
5
4
1
-1
-2
-2
-1
1
5
9
13
16
19
20
21
22
23
24
27
31
35
39
43
46
49
51
52
53
55
58
62
67
71
76
79
82
83
84
84
85
86
88
90
93
95
96
96
94
91
87
83
80
77
76
75
75
76
76
75
72
69
64
59
53
47
41
36
31
27
24
21
18
16
14
12
11
10
9
8
8
7
7
6
5
4
2
0
-2
-3
-5
-6
-6
-6
-5
-4
-3
-2
-2
-1
-1
-1
-1
-1
0
1
2
3
4
4
4
4
4
5
5
6
7
8
9
9
9
8
7
6
5
4
4
4
4
3
3
2
2
1
1
2
3
5
7
9
10
11
10
8
6
4
3
2
2
3
4
5
6
6
6
5
5
5
6
7
9
10
10
10
8
6
3
0
-2
-4
-5
-4
-3
-2
0
2
3
4
5
6
7
7
7
6
5
4
2
0
-2
-4
-5
-4
-4
-2
-1
1
2
3
4
4
4
4
3
2
1
1
0
-1
-1
-1
0
1
2
3
4
5
5
5
4
4
4
4
5
7
10
12
15
17
18
18
16
13
9
5
1
-2
-4
-5
-6
-5
-4
-3
-3
-3
-4
-5
-6
-7
-8
-8
-8
-8
-7
-7
-6
-5
-4
-3
-2
-1
-1
0
-1
-2
-4
-6
-8
-10
-11
-11
-9
-5
0
8
18
30
43
59
76
93
108
121
129
131
125
111
89
61
28
-6
-40
-70
-95
-114
-125
-131
-130
-125
-117
-106
-94
-82
-71
-59
-49
-40
-32
-26
-21
-18
-15
-13
-11
-10
-9
-8
-8
-8
-8
-8
-8
-8
-9
-9
-9
-10
-10
-11
-12
-13
-13
-13
-11
-8
-5
-1
2
5
5
4
2
-2
-6
-9
-11
-12
-11
-9
-7
-4
-2
-1
-1
-2
-3
-5
-5
-5
-4
-3
0
2
3
4
5
4
3
3
3
4
7
11
16
22
28
33
38
41
43
44
46
47
49
53
57
61
65
68
69
69
67
64
60
57
54
52
52
52
53
54
54
53
50
46
42
37
32
28
24
21
17
12
7
2
-4
-10
-15
-18
-20
-21
-21
-20
-19
-18
-19
-20
-23
-27
-31
-35
-39
-43
-45
-47
-48
-48
-48
-46
-44
-42
-40
-38
-37
-36
-37
-38
-39
-40
-40
-41
-41
-40
-40
-40
-40
-41
-42
-43
-44
-44
-43
-42
-40
-39
-37
-36
-35
-35
-35
-36
-37
-37
-38
-38
-38
-38
-39
-40
-40
-41
-41
-41
-41
-41
-40
-39
-38
-37
-37
-37
-37
-37
-38
-37
-37
-36
-35
-34
-33
-32
-31
-30
-30
-31
-32
-33
-34
-36
-37
-37
-37
-37
-36
-35
-34
-33
-32
-32
-33
-34
-36
-38
-40
-42
-43
-44
-43
-42
-40
-38
-35
-33
-31
-29
-28
-28
-28
-29
-29
-30
-30
-30
-30
-30
-29
-28
-26
-24
-21
-19
-17
-15
-13
-12
-12
-12
-12
-13
-14
-16
-18
-21
-24
-28
-31
-34
-36
-37
-37
-35
-32
-29
-26
-24
-23
-23
-25
-27
-29
-30
-31
-31
-30
-28
-26
-25
-24
-23
-24
-25
-26
-28
-29
-30
-31
-31
-29
-26
-20
-12
0
14
31
50
70
89
106
118
126
126
120
105
84
57
26
-8
-41
-72
-97
-117
-129
-134
-132
-126
-115
-103
-89
-77
-65
-55
-46
-38
-31
-24
-19
-15
-12
-10
-9
-9
-9
-9
-9
-7
-5
-3
-1
1
2
2
1
-1
-3
-4
-5
-5
-4
-2
0
2
4
6
7
8
9
9
10
10
11
11
11
12
12
12
13
14
16
18
20
22
24
26
27
27
28
28
28
29
30
31
32
34
35
38
41
44
49
54
60
66
72
76
80
83
84
85
85
85
85
86
88
91
94
97
101
105
108
110
112
113
112
111
108
105
101
97
94
91
88
85
83
81
78
74
70
65
59
54
49
45
42
40
39
38
38
39
39
39
39
38
37
35
34
32
30
28
27
26
26
25
25
26
26
26
27
27
27
28
28
28
28
28
28
28
28
27
27
26
26
26
26
26
27
28
30
31
32
34
35
36
37
37
37
37
38
38
39
40
42
43
44
45
45
45
44
43
42
41
41
41
41
42
43
44
45
46
47
47
48
48
48
47
47
46
45
44
44
43
43
44
45
47
49
51
53
55
56
58
59
60
61
61
61
61
61
60
60
60
60
61
63
64
66
67
67
67
66
64
62
60
59
58
59
59
60
60
60
60
59
58
57
57
57
58
59
59
59
57
54
50
45
41
37
35
34
36
38
41
44
45
45
44
41
38
34
31
29
28
27
26
25
23
19
16
12
8
6
6
7
10
14
18
23
29
37
45
56
69
83
98
112
122
128
126
118
101
79
51
20
-11
-41
-69
-92
-110
-123
-130
-133
-130
-124
-115
-105
-93
-82
-72
-64
-58
-53
-49
-46
-44
-41
-37
-34
-32
-30
-29
-29
-30
-32
-33
-34
-35
-35
-34
-33
-33
-33
-33
-35
-36
-37
-38
-38
-38
-37
-35
-34
-33
-33
-33
-33
-34
-34
-34
-33
-32
-31
-29
-27
-26
-26
-27
-28
-29
-31
-32
-31
-30
-28
-25
-22
-19
-16
-14
-13
-13
-13
-13
-13
-13
-11
-9
-6
-3
0
2
4
6
8
10
12
14
16
19
22
25
27
28
28
27
26
25
23
21
20
19
17
16
14
11
8
5
1
-2
-6
-10
-14
-18
-23
-29
-35
-41
-48
-54
-61
-66
-71
-74
-77
-79
-81
-82
-82
-83
-84
-85
-87
-89
-92
-95
-99
-102
-105
-108
-110
-112
-112
-112
-112
-112
-111
-112
-112
-114
-115
-117
-118
-119
-120
-120
-120
-120
-120
-122
-123
-126
-129
-131
-133
-135
-136
-136
-136
-135
-134
-134
-134
-135
-136
-138
-139
-141
-143
-145
-146
-147
-148
-149
-150
-152
-153
-154
-156
-157
-159
-160
-161
-161
-162
-162
-163
-164
-166
-169
-173
-177
-180
-183
-185
-186
-185
-184
-183
-181
-180
-180
-182
-183
-186
-188
-191
-193
-194
-196
-197
-198
-200
-202
-203
-205
-205
-205
-204
-203
-202
-201
-201
-202
-205
-208
-212
-216
-219
-221
-222
-222
-221
-220
-219
-219
-219
-219
-219
-220
-220
-221
-222
-223
-225
-228
-231
-236
-240
-244
-247
-249
-250
-250
-248
-247
-245
-242
-239
-235
-230
-224
-216
-206
-196
-185
-174
-163
-153
-144
-135
-127
-120
-112
-105
-98
-92
-86
-81
-76
-70
-64
-56
-47
-35
-21
-5
13
32
52
72
92
110
125
137
143
143
135
119
97
68
36
3
-28
-54
-74
-86
-90
-86
-77
-63
-47
-30
-14
0
12
21
28
34
39
43
47
51
55
59
63
66
69
71
73
74
74
74
75
76
78
80
82
85
88
90
93
94
95
95
95
96
96
98
100
102
106
109
112
114
115
115
113
110
107
104
102
102
104
109
115
122
128
134
138
140
140
138
135
133
132
134
139
146
155
165
176
185
193
199
204
206
207
207
208
208
209
209
209
209
209
208
206
204
202
200
199
197
196
194
192
189
185
180
176
171
168
165
162
160
159
157
154
151
146
141
136
132
129
128
128
130
133
136
138
140
140
138
135
132
128
125
123
123
123
124
125
126
127
126
125
123
121
119
118
117
116
115
115
115
116
116
116
116
117
117
118
118
118
118
118
117
116
116
115
115
115
114
114
113
112
111
109
108
107
106
105
105
106
107
109
111
113
114
115
115
115
114
112
109
107
104
103
101
100
100
100
100
100
100
99
98
97
96
96
96
97
98
98
99
99
99
98
97
95
93
91
90
88
87
87
86
86
87
87
87
88
87
87
86
84
82
81
81
81
82
85
88
91
94
95
95
94
92
88
84
80
76
73
70
68
65
63
61
60
58
56
55
55
54
54
55
55
55
54
54
53
52
52
51
50
49
49
48
47
46
45
43
42
41
39
37
35
33
32
31
31
34
39
47
58
73
91
110
131
151
169
182
189
189
181
163
138
107
71
33
-3
-36
-63
-82
-94
-97
-94
-85
-73
-58
-44
-31
-20
-11
-5
0
3
4
5
5
4
3
1
0
-1
-1
-1
0
2
4
6
8
9
11
12
12
12
11
10
9
7
5
4
2
1
0
-1
-2
-2
-2
-2
-1
0
2
3
4
4
4
4
3
2
1
0
-1
-2
-2
-1
0
2
4
7
9
12
14
16
17
19
20
21
22
23
24
25
26
27
28
30
32
34
38
42
46
51
55
59
62
63
63
62
60
58
55
53
51
50
48
47
46
44
41
38
35
31
27
23
19
14
9
5
-1
-6
-11
-16
-20
-24
-28
-30
-32
-33
-34
-35
-36
-36
-38
-39
-42
-45
-48
-51
-54
-57
-59
-60
-60
-59
-58
-56
-55
-55
-55
-56
-58
-60
-63
-65
-66
-67
-66
-65
-63
-61
-60
-59
-59
-61
-63
-65
-67
-68
-68
-67
-65
-62
-60
-58
-58
-59
-61
-64
-68
-71
-74
-75
-76
-75
-73
-70
-68
-66
-65
-65
-66
-67
-68
-69
-71
-71
-72
-72
-72
-72
-72
-72
-71
-71
-71
-71
-71
-72
-74
-76
-78
-80
-82
-82
-81
-79
-77
-74
-72
-71
-71
-72
-73
-76
-78
-79
-80
-79
-78
-77
-75
-73
-72
-70
-68
-66
-63
-60
-57
-55
-55
-58
-62
-68
-74
-81
-86
-89
-90
-88
-85
-81
-78
-75
-75
-77
-79
-82
-84
-86
-86
-85
-83
-82
-81
-81
-83
-85
-88
-90
-90
-90
-88
-85
-82
-80
-78
-78
-78
-80
-82
-84
-86
-86
-84
-81
-75
-67
-57
-43
-27
-8
12
32
50
63
71
71
62
45
21
-9
-43
-77
-111
-140
-165
-184
-195
-200
-198
-190
-178
-163
-146
-129
-115
-103
-94
-88
-85
-84
-83
-83
-82
-80
-78
-76
-73
-72
-70
-69
-68
-67
-65
-63
-60
-58
-56
-56
-57
-60
-62
-64
-65
-64
-61
-57
-52
-48
-45
-44
-45
-47
-50
-53
-55
-55
-53
-51
-47
-45
-42
-41
-41
-42
-42
-42
-41
-38
-36
-32
-30
-28
-26
-26
-26
-25
-24
-22
-18
-14
-9
-3
1
6
9
12
14
17
20
23
26
30
33
36
37
38
39
39
40
41
43
45
48
50
52
52
51
49
46
43
39
36
34
32
32
31
30
28
25
20
14
7
1
-4
-8
-11
-12
-12
-12
-12
-13
-14
-17
-20
-24
-27
-30
-32
-33
-33
-34
-34
-34
-35
-35
-36
-35
-35
-33
-31
-30
-28
-28
-28
-29
-30
-32
-33
-33
-33
-31
-29
-27
-25
-24
-23
-23
-24
-25
-27
-27
-28
-27
-26
-24
-23
-21
-20
-20
-20
-21
-21
-21
-21
-21
-20
-19
-19
-18
-18
-19
-20
-21
-22
-23
-22
-22
-20
-18
-17
-15
-14
-13
-13
-13
-13
-12
-12
-10
-9
-8
-8
-8
-9
-11
-13
-16
-17
-18
-18
-17
-15
-12
-10
-8
-8
-8
-9
-11
-12
-13
-13
-13
-11
-8
-6
-4
-3
-3
-3
-4
-5
-6
-6
-5
-4
-2
-1
0
0
0
-1
-2
-3
-3
-3
-2
-1
0
1
2
1
1
1
1
3
5
8
11
14
16
18
19
19
18
17
16
14
13
12
11
10
9
8
7
6
5
5
4
3
3
3
3
4
4
4
4
4
3
2
1
0
-1
-1
0
1
3
5
6
7
7
6
4
2
0
-2
-2
-1
3
8
16
26
39
53
70
88
107
126
143
156
165
166
160
145
122
92
58
21
-15
-47
-75
-95
-108
-113
-111
-103
-91
-77
-61
-46
-32
-20
-11
-3
2
6
8
10
11
11
11
11
11
12
12
13
14
16
18
20
21
23
23
23
23
22
20
19
18
18
19
20
22
24
25
27
28
28
29
29
29
29
29
28
28
27
27
26
25
26
26
28
31
34
37
41
45
47
50
51
51
51
50
49
48
48
49
51
54
58
63
67
72
76
80
83
85
87
88
90
92
95
98
100
103
104
105
105
105
104
103
103
103
104
105
105
105
103
100
95
91
86
82
78
76
73
71
68
64
59
54
49
45
42
40
39
40
40
39
37
34
29
24
20
17
16
16
17
19
20
20
18
15
11
8
6
6
8
11
15
18
20
20
18
15
12
9
8
8
10
13
16
18
18
17
13
10
6
3
2
3
5
8
10
12
12
11
9
6
4
2
2
3
5
8
9
10
10
9
6
4
1
-1
-1
-1
-1
1
2
2
2
1
0
-2
-3
-4
-4
-3
-2
-1
0
1
1
1
1
0
-1
-2
-3
-4
-5
-5
-5
-5
-4
-3
-2
-1
-1
-1
-1
-2
-3
-4
-5
-6
-5
-5
-4
-2
-1
-1
-1
-2
-4
-6
-8
-9
-9
-8
-7
-5
-3
-2
-1
-2
-3
-5
-8
-10
-11
-11
-10
-9
-7
-5
-4
-3
-3
-3
-3
-3
-2
-1
1
3
4
5
5
4
4
3
3
2
2
2
1
0
-2
-5
-8
-11
-14
-15
-16
-16
-15
-13
-12
-10
-9
-9
-9
-10
-12
-13
-14
-15
-15
-15
-15
-14
-14
-14
-13
-14
-15
-16
-18
-21
-23
-25
-27
-26
-24
-19
-11
-1
12
27
45
63
82
100
116
128
136
137
132
120
101
75
45
12
-22
-54
-83
-107
-124
-135
-139
-136
-128
-117
-103
-88
-73
-60
-49
-41
-34
-30
-28
-26
-25
-23
-22
-20
-18
-17
-17
-17
-17
-18
-18
-18
-17
-15
-13
-11
-10
-9
-9
-9
-11
-12
-12
-13
-12
-12
-11
-11
-11
-11
-12
-12
-12
-12
-11
-9
-7
-5
-4
-3
-3
-3
-3
-2
-1
1
3
6
9
11
12
12
11
10
10
11
13
17
21
26
31
35
38
40
41
41
42
42
44
46
49
52
56
60
64
67
70
72
73
73
73
71
69
67
65
64
63
63
63
63
63
62
59
56
51
45
40
35
31
28
26
24
22
19
16
12
7
2
-3
-6
-9
-10
-11
-11
-12
-14
-16
-18
-19
-21
-21
-20
-19
-17
-16
-16
-17
-19
-22
-25
-27
-29
-29
-28
-25
-22
-20
-19
-19
-20
-23
-26
-29
-31
-32
-32
-31
-30
-28
-27
-25
-25
-25
-25
-25
-25
-26
-26
-26
-27
-28
-29
-29
-30
-29
-28
-27
-25
-23
-22
-21
-21
-21
-23
-24
-26
-27
-29
-29
-29
-29
-28
-27
-26
-25
-24
-24
-25
-25
-26
-28
-29
-30
-31
-31
-31
-31
-31
-31
-31
-31
-31
-32
-33
-34
-34
-34
-33
-32
-30
-28
-27
-26
-25
-25
-26
-27
-29
-30
-30
-30
-29
-27
-25
-23
-23
-23
-24
-26
-29
-32
-34
-36
-36
-36
-35
-33
-31
-29
-27
-26
-25
-25
-26
-26
-26
-26
-25
-23
-21
-19
-17
-15
-14
-13
-13
-14
-15
-16
-17
-18
-19
-20
-20
-20
-20
-20
-21
-22
-24
-26
-28
-30
-31
-32
-33
-33
-32
-31
-29
-28
-27
-26
-26
-26
-26
-25
-25
-25
-25
-25
-25
-25
-26
-27
-28
-29
-29
-29
-28
-27
-25
-21
-16
-8
2
15
32
50
70
89
107
121
129
130
124
109
87
59
27
-8
-42
-74
-101
-122
-137
-144
-144
-138
-128
-115
-100
-85
-70
-58
-48
-40
-34
-30
-27
-25
-22
-21
-19
-17
-16
-16
-16
-16
-16
-16
-16
-16
-14
-13
-11
-10
-9
-8
-7
-7
-7
-7
-6
-6
-5
-4
-3
-2
-2
-3
-3
-4
-4
-4
-4
-3
-1
1
3
5
6
7
8
9
9
9
9
9
9
10
11
12
15
18
22
26
29
32
35
37
39
40
42
43
46
49
53
57
62
66
70
73
75
77
79
80
82
83
84
85
86
86
86
86
86
85
84
83
81
79
76
73
69
65
60
56
52
48
44
42
40
38
36
34
32
29
26
23
19
16
13
11
10
9
8
8
8
7
5
3
1
-1
-2
-2
-2
-2
-1
0
0
-1
-2
-4
-6
-8
-9
-9
-9
-7
-5
-4
-2
-1
-1
-1
-2
-2
-2
-3
-3
-3
-4
-4
-5
-6
-6
-6
-6
-5
-3
-2
-1
0
1
1
1
1
1
0
-1
-1
-2
-3
-5
-6
-6
-6
-6
-5
-4
-4
-3
-3
-4
-5
-6
-6
-7
-6
-4
-2
0
2
2
2
0
-3
-6
-10
-13
-15
-15
-13
-11
-7
-4
-2
0
0
-1
-3
-5
-7
-7
-7
-6
-5
-4
-3
-4
-6
-8
-11
-13
-15
-15
-14
-12
-9
-7
-5
-4
-6
-8
-11
-15
-18
-19
-19
-17
-14
-11
-8
-6
-5
-6
-7
-9
-11
-12
-12
-10
-7
-4
0
3
5
6
5
4
2
-1
-2
-4
-4
-4
-4
-3
-2
-2
-1
-1
-1
-2
-2
-3
-5
-6
-8
-10
-11
-12
-12
-12
-11
-10
-9
-9
-9
-10
-11
-13
-15
-16
-18
-18
-17
-16
-14
-12
-10
-9
-7
-6
-5
-5
-5
-5
-6
-8
-10
-12
-13
-12
-8
-1
10
24
41
60
80
98
113
124
129
128
119
104
82
54
23
-11
-44
-74
-99
-118
-129
-133
-130
-121
-109
-95
-81
-69
-58
-50
-42
-36
-30
-25
-19
-14
-10
-8
-7
-7
-8
-10
-12
-13
-13
-12
-11
-9
-7
-6
-5
-5
-4
-4
-4
-3
-3
-2
-2
-2
-2
-3
-3
-3
-3
-2
-1
1
3
5
6
6
7
7
7
7
7
8
8
9
10
10
10
11
12
13
15
17
20
22
25
26
28
29
30
32
33
36
39
43
48
52
57
61
64
66
68
70
71
72
73
75
77
78
80
81
82
82
81
81
79
79
78
78
78
78
78
77
75
71
66
60
53
47
41
36
33
30
29
27
26
23
21
17
13
9
6
2
0
-2
-4
-5
-6
-7
-8
-9
-10
-11
-11
-11
-12
-12
-12
-13
-13
-14
-14
-14
-14
-15
-16
-18
-20
-22
-24
-26
-26
-24
-21
-18
-14
-10
-8
-7
-8
-11
-14
-18
-20
-22
-22
-22
-20
-19
-18
-17
-17
-19
-20
-21
-21
-21
-20
-19
-19
-19
-19
-21
-23
-25
-27
-27
-27
-25
-23
-20
-17
-16
-15
-15
-15
-17
-18
-18
-19
-18
-17
-17
-17
-17
-18
-20
-23
-25
-27
-28
-28
-26
-24
-21
-17
-14
-11
-9
-9
-9
-11
-13
-15
-17
-19
-21
-21
-20
-19
-17
-14
-13
-12
-13
-16
-19
-23
-27
-30
-31
-29
-26
-20
-13
-6
1
7
11
14
15
15
15
14
14
14
15
15
15
15
14
12
10
8
7
6
6
7
8
9
10
10
10
9
7
5
3
1
1
2
3
5
7
9
10
9
8
6
4
1
-1
-3
-4
-5
-6
-7
-7
-8
-9
-10
-11
-12
-12
-12
-12
-13
-13
-13
-12
-10
-5
2
12
25
38
52
64
74
79
80
75
65
49
30
7
-18
-42
-66
-87
-104
-116
-123
-124
-120
-112
-101
-89
-77
-66
-57
-50
-46
-43
-40
-39
-37
-36
-34
-32
-31
-30
-29
-30
-30
-30
-30
-29
-28
-25
-23
-21
-20
-19
-20
-21
-23
-24
-26
-26
-26
-26
-24
-23
-22
-22
-22
-22
-23
-24
-25
-25
-25
-25
-24
-22
-20
-18
-16
-13
-10
-8
-6
-4
-3
-3
-4
-5
-7
-8
-8
-8
-6
-4
-1
3
6
9
11
12
14
15
17
19
22
25
29
32
36
38
41
43
45
48
50
53
56
59
62
63
64
63
62
59
56
53
49
46
42
39
36
32
29
25
21
18
16
14
13
13
12
11
10
7
3
-1
-6
-11
-15
-18
-20
-20
-19
-17
-14
-12
-10
-10
-9
-10
-12
-13
-15
-17
-19
-21
-22
-22
-22
-22
-22
-21
-21
-21
-22
-22
-24
-25
-25
-26
-25
-24
-23
-20
-17
-14
-11
-9
-7
-6
-5
-6
-7
-9
-11
-13
-14
-14
-14
-12
-9
-6
-4
-1
0
0
0
-1
-3
-4
-5
-5
-5
-4
-3
-1
0
1
2
2
1
0
-2
-4
-6
-8
-10
-11
-11
-10
-7
-4
-1
3
5
6
6
5
2
0
-3
-4
-4
-3
-1
1
3
4
4
3
2
0
0
0
2
4
8
11
14
15
15
14
12
9
6
5
4
4
6
8
9
11
12
13
12
11
10
9
8
8
8
9
10
12
13
14
14
14
12
9
6
3
0
-3
-4
-4
-4
-2
-1
1
3
4
5
6
6
6
6
6
7
8
9
10
11
11
11
10
9
7
6
5
5
7
12
19
29
43
58
76
93
108
121
128
129
124
113
95
73
48
21
-5
-29
-49
-66
-78
-86
-89
-88
-83
-76
-67
-57
-47
-37
-27
-20
-14
-10
-7
-5
-4
-3
-3
-2
-2
0
1
3
5
7
8
10
11
11
10
8
6
4
1
-1
-2
-2
-1
1
3
6
8
9
9
9
9
9
8
9
9
10
11
12
12
13
12
12
12
12
13
14
16
17
19
21
22
23
24
25
25
26
26
26
27
28
29
30
32
34
37
40
44
48
51
53
55
57
58
58
58
59
59
61
62
64
66
67
68
68
67
66
64
63
61
59
57
55
54
52
49
47
44
41
38
35
31
27
23
18
14
9
5
3
1
0
0
0
0
-1
-2
-4
-6
-8
-10
-11
-11
-11
-10
-10
-10
-11
-13
-15
-18
-21
-22
-23
-22
-20
-18
-17
-16
-16
-17
-19
-21
-23
-25
-26
-26
-26
-25
-25
-24
-24
-24
-24
-24
-25
-25
-26
-26
-27
-28
-28
-29
-30
-31
-31
-32
-32
-33
-33
-33
-32
-32
-31
-30
-29
-28
-28
-29
-30
-31
-33
-34
-35
-35
-35
-34
-32
-31
-31
-31
-32
-34
-36
-38
-39
-38
-37
-35
-33
-31
-30
-29
-29
-30
-30
-30
-30
-29
-28
-26
-26
-26
-27
-29
-31
-33
-34
-34
-33
-31
-28
-25
-22
-20
-20
-20
-21
-23
-24
-25
-26
-26
-26
-25
-23
-21
-19
-17
-14
-11
-8
-5
-4
-3
-4
-6
-10
-14
-18
-23
-26
-29
-31
-31
-31
-29
-27
-25
-23
-21
-20
-18
-18
-17
-18
-18
-20
-21
-23
-25
-26
-26
-26
-25
-24
-22
-20
-19
-19
-20
-22
-24
-26
-28
-28
-26
-21
-14
-3
9
24
40
56
72
87
99
108
112
111
104
89
69
42
12
-20
-52
-81
-105
-122
-131
-132
-127
-117
-103
-88
-73
-60
-49
-40
-35
-32
-31
-30
-31
-32
-33
-33
-32
-31
-29
-26
-23
-20
-16
-12
-10
-7
-6
-6
-6
-6
-6
-6
-6
-6
-5
-5
-6
-7
-8
-9
-10
-11
-10
-8
-6
-3
0
3
4
4
2
0
-2
-4
-5
-5
-3
-1
3
6
9
12
13
13
14
14
14
15
16
18
20
22
25
28
30
33
36
39
42
45
47
49
50
51
52
54
56
58
61
64
67
69
70
71
71
70
70
68
67
66
65
64
63
61
60
58
55
53
50
47
44
41
38
36
33
30
28
26
23
21
18
14
11
7
4
1
-2
-3
-3
-3
-3
-2
-1
0
0
0
0
-1
-2
-2
-3
-4
-4
-5
-5
-5
-5
-5
-4
-4
-3
-2
-1
0
0
0
0
-1
-2
-3
-4
-5
-6
-7
-8
-7
-7
-5
-4
-3
-2
-2
-2
-3
-4
-4
-4
-3
-2
-1
0
1
0
-1
-4
-7
-10
-12
-13
-13
-12
-10
-8
-6
-4
-3
-4
-5
-7
-9
-11
-13
-14
-14
-13
-12
-10
-8
-6
-5
-4
-3
-3
-4
-5
-7
-8
-9
-9
-8
-7
-5
-4
-3
-2
-3
-5
-8
-11
-13
-15
-16
-17
-16
-15
-13
-11
-10
-8
-7
-6
-5
-5
-5
-6
-6
-8
-9
-10
-10
-10
-9
-7
-5
-3
-1
0
1
2
2
2
2
2
3
3
3
2
0
-3
-6
-9
-11
-13
-15
-15
-15
-14
-13
-12
-11
-11
-12
-13
-14
-15
-15
-15
-15
-14
-14
-14
-14
-15
-16
-16
-17
-16
-16
-14
-13
-11
-10
-10
-9
-9
-8
-6
-3
4
13
24
39
55
72
89
105
118
126
130
128
120
104
82
55
25
-8
-40
-70
-94
-112
-123
-126
-123
-114
-102
-88
-74
-61
-51
-42
-35
-30
-26
-23
-20
-17
-15
-13
-12
-11
-11
-10
-10
-10
-10
-10
-10
-9
-9
-8
-7
-7
-6
-5
-4
-4
-4
-4
-4
-4
-5
-5
-6
-6
-5
-4
-3
-1
0
2
3
4
4
4
4
3
3
3
3
3
5
6
8
10
11
12
13
14
15
15
16
18
20
22
24
26
28
30
32
34
37
41
45
49
54
58
61
63
64
64
64
64
65
67
70
73
76
78
80
79
77
74
71
67
64
62
61
61
61
60
58
55
51
45
40
34
29
26
24
23
23
22
21
19
16
12
8
3
-1
-5
-7
-8
-8
-7
-6
-5
-4
-3
-2
-3
-3
-4
-5
-6
-7
-8
-8
-9
-9
-10
-10
-11
-11
-11
-11
-10
-10
-9
-8
-7
-7
-6
-6
-7
-7
-8
-8
-8
-7
-7
-6
-6
-6
-6
-7
-8
-9
-10
-10
-9
-8
-7
-5
-4
-2
-2
-2
-3
-5
-7
-9
-11
-12
-14
-15
-15
-15
-15
-14
-13
-11
-9
-7
-5
-3
-2
-2
-3
-5
-7
-10
-12
-14
-16
-16
-16
-15
-14
-12
-11
-10
-10
-11
-12
-14
-16
-17
-19
-19
-19
-18
-17
-15
-13
-11
-10
-9
-8
-8
-9
-10
-11
-12
-13
-13
-14
-15
-15
-15
-15
-14
-13
-12
-11
-10
-8
-6
-5
-3
-1
0
1
1
1
0
-2
-4
-7
-10
-13
-15
-16
-17
-17
-16
-15
-14
-13
-13
-14
-14
-15
-16
-18
-19
-20
-21
-21
-21
-21
-20
-18
-16
-14
-13
-12
-13
-14
-16
-19
-21
-23
-24
-23
-22
-20
-18
-14
-11
-6
1
10
22
38
56
75
94
112
124
131
130
121
104
81
52
20
-14
-46
-75
-99
-118
-129
-134
-132
-125
-113
-99
-84
-69
-56
-45
-37
-31
-28
-26
-25
-23
-22
-20
-19
-17
-16
-15
-15
-15
-15
-15
-15
-15
-14
-13
-11
-10
-8
-7
-6
-5
-5
-6
-7
-8
-10
-12
-13
-14
-14
-13
-12
-10
-7
-5
-2
0
1
1
1
0
0
-1
-2
-2
-1
-1
1
3
6
8
11
14
16
17
18
19
19
19
20
21
23
26
30
33
37
41
45
48
50
52
55
57
59
61
63
65
66
67
68
68
69
70
71
72
72
73
73
72
70
68
65
63
60
57
53
50
46
42
37
31
25
20
14
10
7
5
4
4
5
6
7
6
5
2
-1
-6
-10
-15
-18
-20
-21
-21
-20
-19
-17
-15
-14
-14
-14
-14
-15
-15
-16
-15
-15
-14
-14
-14
-14
-15
-16
-17
-18
-19
-20
-20
-20
-20
-20
-20
-19
-18
-16
-14
-13
-11
-11
-11
-12
-13
-15
-18
-20
-21
-22
-22
-22
-22
-22
-21
-21
-21
-20
-19
-18
-16
-14
-12
-10
-10
-10
-11
-14
-16
-18
-20
-21
-21
-20
-18
-17
-16
-16
-17
-18
-20
-22
-23
-24
-23
-23
-22
-20
-19
-18
-18
-18
-19
-19
-20
-21
-21
-21
-20
-19
-18
-18
-18
-18
-19
-20
-21
-22
-21
-21
-19
-18
-16
-15
-14
-15
-16
-17
-19
-20
-21
-20
-19
-16
-14
-12
-10
-9
-9
-10
-11
-13
-14
-16
-17
-19
-20
-21
-22
-23
-25
-26
-27
-28
-28
-28
-27
-26
-25
-24
-23
-23
-24
-25
-25
-26
-27
-27
-27
-26
-25
-24
-23
-22
-21
-22
-23
-25
-28
-30
-32
-31
-28
-22
-12
1
18
37
56
76
93
108
118
123
121
112
96
73
45
12
-22
-56
-86
-112
-130
-140
-142
-138
-128
-115
-99
-84
-70
-58
-47
-39
-33
-28
-25
-23
-22
-21
-21
-21
-21
-20
-19
-17
-15
-13
-10
-9
-8
-7
-7
-8
-9
-10
-10
-10
-10
-9
-8
-6
-5
-4
-2
-1
-1
0
0
-1
-2
-4
-5
-6
-6
-6
-5
-3
-1
1
2
4
4
5
5
5
6
7
9
11
14
16
19
21
22
24
25
25
27
28
30
32
34
37
41
44
48
52
57
61
64
67
69
71
72
73
73
74
74
74
74
74
73
73
73
72
71
70
68
66
63
59
55
51
46
41
37
33
30
27
25
23
20
18
15
13
10
7
4
2
1
0
-2
-3
-4
-6
-8
-11
-13
-15
-16
-16
-16
-15
-14
-13
-12
-12
-13
-14
-16
-18
-20
-20
-21
-20
-19
-17
-16
-14
-13
-13
-12
-12
-12
-11
-10
-10
-9
-9
-9
-10
-11
-13
-14
-15
-15
-14
-13
-11
-8
-5
-3
-1
1
1
1
1
0
-1
-1
-2
-2
-1
0
1
2
4
5
6
7
7
6
5
4
2
1
-1
-1
-1
0
1
2
4
4
4
3
1
-1
-2
-3
-4
-3
-1
1
2
4
5
4
3
2
0
-1
-2
-2
-1
1
3
4
5
6
6
5
5
5
6
7
9
10
11
12
11
9
7
4
2
-1
-3
-5
-6
-8
-9
-11
-12
-13
-13
-12
-11
-10
-8
-7
-6
-5
-5
-5
-6
-7
-8
-9
-9
-10
-10
-10
-10
-10
-10
-10
-11
-13
-14
-16
-17
-16
-15
-12
-6
2
12
23
37
52
68
85
101
116
127
135
136
130
116
93
63
27
-11
-48
-82
-109
-127
-137
-138
-132
-120
-106
-91
-77
-64
-54
-45
-39
-34
-30
-27
-24
-21
-18
-16
-13
-11
-10
-9
-9
-10
-11
-12
-13
-14
-13
-12
-10
-8
-6
-4
-3
-3
-3
-4
-5
-6
-6
-5
-4
-3
-2
-1
0
0
-1
-1
-1
0
0
1
1
2
2
3
3
4
5
6
8
10
13
16
18
20
21
23
24
25
26
27
29
30
31
31
33
34
37
41
46
51
57
63
69
73
75
75
74
73
71
69
69
70
71
74
76
79
80
81
80
78
75
72
69
65
62
59
55
52
48
44
40
37
33
29
25
22
19
16
13
11
8
5
3
0
-3
-5
-7
-9
-9
-10
-10
-10
-10
-10
-10
-10
-11
-12
-12
-13
-13
-12
-12
-12
-12
-12
-13
-14
-14
-15
-15
-15
-14
-13
-12
-11
-11
-11
-12
-12
-13
-14
-14
-13
-13
-12
-11
-11
-11
-11
-12
-12
-12
-12
-12
-12
-11
-11
-11
-11
-11
-12
-11
-11
-11
-11
-12
-13
-14
-15
-16
-16
-16
-16
-14
-13
-12
-12
-12
-13
-14
-15
-16
-17
-17
-16
-15
-14
-14
-14
-15
-16
-17
-18
-18
-17
-16
-14
-12
-10
-10
-10
-12
-14
-17
-19
-20
-20
-19
-18
-17
-16
-16
-16
-16
-17
-17
-18
-18
-17
-16
-15
-15
-14
-14
-14
-15
-16
-16
-16
-16
-15
-14
-12
-11
-9
-7
-5
-4
-3
-2
-3
-4
-5
-7
-10
-12
-14
-16
-17
-19
-20
-20
-20
-20
-19
-19
-18
-17
-17
-17
-17
-18
-20
-21
-22
-22
-23
-23
-23
-23
-22
-22
-22
-22
-22
-22
-21
-21
-21
-21
-22
-22
-21
-18
-13
-5
6
21
38
57
76
94
109
121
127
128
123
111
92
67
37
3
-33
-68
-98
-123
-140
-148
-147
-138
-125
-108
-91
-75
-63
-53
-47
-42
-39
-36
-32
-29
-26
-23
-21
-20
-21
-21
-22
-23
-22
-21
-19
-16
-13
-11
-10
-10
-10
-11
-11
-12
-12
-11
-10
-9
-7
-6
-6
-6
-6
-7
-8
-9
-9
-10
-9
-9
-8
-7
-5
-4
-3
-1
0
1
2
3
5
6
8
10
11
12
13
14
15
16
18
20
23
26
29
32
36
39
42
45
48
50
52
54
56
57
59
62
64
67
70
72
74
75
76
76
76
75
75
75
75
76
76
76
74
72
67
61
55
49
43
38
35
34
33
33
32
31
29
25
21
16
12
8
5
3
2
1
0
-2
-3
-5
-7
-9
-10
-11
-12
-13
-14
-15
-16
-17
-18
-18
-17
-15
-13
-10
-8
-6
-5
-5
-7
-10
-13
-15
-17
-17
-16
-14
-12
-9
-7
-6
-6
-7
-9
-11
-14
-16
-16
-16
-15
-13
-12
-10
-9
-8
-8
-9
-10
-12
-13
-14
-15
-16
-16
-16
-15
-15
-14
-14
-14
-13
-13
-13
-12
-13
-13
-13
-14
-14
-15
-15
-15
-14
-13
-12
-11
-9
-9
-9
-9
-10
-12
-14
-16
-18
-19
-19
-18
-16
-15
-14
-14
-15
-16
-17
-18
-18
-17
-16
-14
-12
-11
-11
-13
-15
-18
-21
-23
-23
-23
-20
-17
-14
-11
-9
-8
-8
-9
-10
-10
-10
-9
-7
-5
-3
-2
-1
-2
-3
-5
-8
-10
-11
-13
-14
-14
-15
-15
-15
-14
-14
-14
-14
-14
-15
-16
-17
-19
-21
-22
-24
-24
-24
-23
-22
-20
-19
-17
-17
-17
-17
-17
-18
-18
-19
-19
-20
-21
-22
-23
-23
-21
-18
-11
-1
13
30
50
71
91
109
123
131
132
126
112
92
64
33
-2
-36
-69
-98
-120
-136
-143
-143
-137
-127
-114
-99
-86
-73
-62
-53
-45
-39
-33
-28
-24
-21
-20
-19
-19
-20
-21
-22
-22
-21
-20
-18
-17
-15
-14
-14
-14
-14
-14
-13
-12
-11
-9
-8
-6
-6
-5
-6
-6
-7
-8
-9
-9
-9
-9
-9
-8
-7
-6
-4
-3
-2
-1
0
1
2
3
4
6
7
9
10
11
13
13
14
16
17
20
23
26
30
34
38
41
43
45
46
48
49
51
54
57
61
64
67
70
72
73
73
73
73
73
73
73
73
73
73
72
71
69
67
64
61
57
54
51
48
45
43
41
39
36
32
28
23
17
12
8
4
2
1
0
0
0
-1
-3
-5
-8
-11
-14
-16
-17
-18
-18
-17
-17
-16
-16
-16
-15
-15
-15
-14
-13
-12
-12
-11
-11
-10
-10
-10
-9
-9
-9
-9
-10
-11
-12
-14
-16
-17
-17
-16
-14
-13
-11
-9
-8
-8
-8
-9
-9
-9
-8
-8
-7
-7
-7
-8
-9
-10
-10
-10
-9
-7
-6
-5
-4
-5
-6
-8
-10
-11
-11
-11
-9
-7
-5
-4
-3
-4
-5
-7
-9
-10
-11
-12
-12
-12
-12
-11
-12
-12
-13
-13
-14
-14
-14
-14
-13
-13
-12
-11
-11
-11
-11
-11
-11
-11
-11
-10
-9
-8
-7
-6
-6
-5
-6
-7
-8
-10
-12
-13
-14
-14
-13
-12
-10
-9
-8
-8
-8
-8
-9
-10
-10
-10
-8
-6
-2
1
5
7
8
8
6
4
1
-3
-6
-8
-10
-11
-11
-11
-11
-11
-12
-13
-15
-17
-18
-19
-20
-20
-18
-17
-14
-12
-10
-9
-8
-9
-11
-14
-17
-20
-21
-22
-21
-19
-16
-14
-12
-12
-12
-14
-16
-17
-16
-12
-4
8
24
44
66
88
108
124
136
141
139
130
113
89
60
27
-7
-41
-72
-98
-118
-131
-137
-135
-129
-117
-104
-89
-75
-61
-50
-41
-33
-28
-23
-20
-18
-16
-15
-14
-14
-14
-15
-15
-16
-16
-16
-16
-15
-13
-11
-8
-6
-3
-1
0
1
0
-1
-3
-5
-7
-9
-9
-9
-8
-7
-5
-3
-1
0
0
0
0
1
1
3
5
7
10
12
14
14
14
13
11
10
9
9
10
13
16
20
24
27
30
33
36
38
40
43
46
49
52
55
57
60
62
64
66
68
70
71
72
73
73
74
74
74
75
76
77
79
80
81
81
80
78
74
70
66
62
58
54
50
46
43
39
35
31
27
23
20
18
16
15
13
12
10
8
6
3
1
-1
-3
-4
-4
-5
-4
-4
-5
-5
-6
-8
-9
-10
-11
-12
-12
-11
-10
-8
-7
-6
-5
-5
-5
-6
-7
-8
-9
-10
-11
-11
-11
-11
-10
-10
-9
-8
-8
-8
-8
-8
-8
-8
-8
-8
-8
-8
-8
-8
-9
-10
-11
-12
-13
-13
-13
-12
-11
-9
-8
-7
-6
-7
-8
-10
-12
-14
-15
-16
-15
-13
-11
-9
-7
-7
-7
-8
-10
-12
-13
-14
-14
-14
-13
-13
-12
-12
-13
-13
-14
-15
-15
-15
-14
-14
-13
-13
-14
-14
-15
-15
-15
-15
-14
-12
-11
-11
-11
-12
-13
-14
-15
-16
-16
-15
-15
-14
-13
-13
-14
-15
-16
-17
-17
-17
-17
-16
-15
-15
-15
-15
-16
-16
-17
-17
-17
-16
-15
-13
-12
-11
-10
-9
-9
-9
-10
-10
-10
-9
-7
-5
-2
1
4
6
7
6
4
1
-3
-8
-12
-15
-18
-19
-19
-17
-16
-15
-14
-14
-15
-17
-18
-19
-19
-18
-16
-14
-12
-11
-10
-11
-13
-16
-18
-21
-22
-23
-22
-21
-19
-18
-16
-16
-17
-18
-19
-19
-18
-14
-8
2
15
31
50
71
92
111
127
137
141
137
124
103
76
43
8
-28
-62
-91
-113
-129
-136
-137
-131
-120
-107
-92
-78
-66
-56
-48
-43
-39
-36
-33
-29
-25
-21
-17
-13
-10
-9
-8
-9
-10
-12
-13
-13
-12
-10
-8
-6
-5
-5
-5
-7
-9
-11
-14
-15
-15
-14
-13
-10
-8
-5
-3
-2
-2
-2
-2
-3
-3
-3
-2
-1
0
1
2
3
5
6
7
9
11
13
14
16
17
19
20
22
23
25
28
30
32
33
35
36
36
37
39
42
46
51
56
61
66
70
72
73
73
72
71
71
71
72
75
77
79
80
81
80
78
75
72
69
66
64
63
61
58
55
51
46
40
34
28
23
19
15
13
11
9
7
4
1
-2
-5
-8
-10
-11
-11
-10
-9
-8
-6
-6
-5
-6
-7
-9
-11
-13
-14
-16
-16
-16
-14
-12
-11
-9
-8
-7
-8
-9
-10
-12
-14
-14
-15
-15
-14
-14
-14
-14
-14
-15
-15
-15
-15
-14
-13
-12
-11
-11
-11
-11
-12
-13
-13
-14
-13
-13
-12
-11
-11
-11
-11
-12
-13
-14
-14
-13
-12
-10
-8
-6
-5
-5
-6
-8
-10
-12
-13
-14
-15
-15
-15
-15
-16
-16
-17
-18
-18
-17
-16
-15
-14
-13
-13
-14
-16
-18
-19
-20
-20
-19
-17
-14
-11
-9
-8
-8
-9
-12
-16
-19
-22
-24
-25
-25
-24
-23
-21
-20
-18
-17
-15
-14
-13
-12
-11
-11
-12
-14
-16
-18
-19
-20
-20
-19
-18
-17
-15
-14
-14
-15
-16
-17
-18
-19
-19
-19
-17
-16
-13
-11
-9
-7
-5
-4
-2
-2
-2
-2
-4
-7
-10
-14
-17
-20
-21
-21
-20
-19
-17
-15
-15
-15
-17
-19
-22
-24
-25
-25
-25
-24
-23
-23
-23
-23
-24
-25
-25
-24
-23
-20
-18
-16
-14
-14
-16
-18
-21
-24
-27
-27
-25
-21
-13
-3
9
24
41
59
78
95
111
123
130
130
123
107
84
55
20
-16
-51
-83
-109
-128
-138
-141
-137
-128
-115
-101
-87
-74
-62
-52
-44
-38
-33
-29
-26
-25
-24
-23
-24
-24
-23
-22
-21
-19
-17
-14
-12
-11
-11
-11
-11
-12
-13
-13
-12
-11
-10
-8
-8
-8
-8
-9
-11
-12
-12
-12
-11
-9
-6
-3
0
2
3
3
2
1
0
0
0
1
2
3
4
5
6
6
7
8
10
12
16
20
25
29
33
35
37
37
37
37
37
39
42
46
50
55
60
64
66
68
70
70
71
73
74
77
79
81
83
83
82
80
78
74
72
69
68
67
66
66
64
62
59
55
50
44
38
32
27
23
18
15
12
9
6
4
2
1
-1
-1
-1
-1
-1
0
0
0
-1
-2
-3
-6
-8
-11
-13
-14
-15
-14
-13
-11
-8
-6
-4
-4
-4
-5
-6
-8
-10
-11
-11
-10
-9
-7
-6
-5
-4
-5
-5
-6
-7
-7
-8
-7
-6
-6
-5
-5
-5
-6
-8
-9
-10
-11
-11
-11
-10
-8
-7
-6
-5
-4
-4
-5
-5
-5
-6
-5
-5
-5
-5
-5
-6
-7
-8
-9
-10
-11
-12
-12
-11
-11
-10
-10
-9
-9
-9
-8
-8
-8
-8
-8
-9
-9
-10
-11
-12
-12
-13
-13
-13
-13
-12
-12
-11
-11
-11
-11
-12
-12
-13
-14
-15
-15
-15
-15
-15
-13
-12
-11
-9
-8
-8
-8
-9
-11
-12
-14
-15
-15
-15
-14
-13
-12
-11
-11
-12
-13
-15
-17
-18
-18
-18
-16
-13
-10
-7
-5
-3
-3
-4
-5
-7
-9
-11
-12
-12
-12
-10
-8
-6
-4
-2
-1
0
0
-1
-1
0
1
3
6
8
9
9
7
4
-1
-5
-9
-12
-12
-11
-9
-6
-4
-2
-3
-5
-9
-13
-16
-19
-20
-20
-18
-16
-13
-11
-10
-9
-9
-9
-10
-10
-11
-12
-13
-14
-16
-18
-20
-20
-19
-16
-11
-4
5
16
28
42
58
74
91
108
122
134
139
138
129
111
85
54
18
-17
-51
-79
-101
-116
-123
-124
-120
-112
-101
-89
-76
-63
-50
-39
-30
-22
-17
-14
-14
-15
-18
-20
-22
-23
-23
-21
-18
-14
-11
-9
-8
-9
-10
-12
-14
-15
-15
-15
-14
-12
-10
-8
-6
-6
-6
-7
-8
-8
-9
-8
-7
-5
-3
-1
0
0
0
-2
-3
-5
-6
-6
-5
-3
0
3
6
8
9
10
10
10
11
13
15
17
20
23
25
27
28
29
31
33
36
40
45
49
53
57
60
62
63
65
66
69
71
74
77
79
80
79
77
74
70
67
64
63
63
64
65
66
66
64
61
57
52
46
41
36
33
30
28
25
22
19
14
9
3
-2
-5
-7
-6
-4
-1
3
7
9
9
8
5
0
-5
-9
-13
-15
-16
-16
-14
-11
-9
-6
-5
-4
-3
-3
-4
-4
-5
-5
-6
-6
-6
-6
-6
-7
-7
-8
-8
-9
-9
-9
-9
-9
-8
-8
-7
-6
-6
-6
-6
-6
-7
-7
-8
-9
-9
-9
-9
-8
-6
-5
-3
-2
-2
-2
-3
-3
-4
-5
-5
-4
-3
-2
-2
-2
-2
-4
-7
-9
-12
-13
-13
-13
-11
-8
-6
-4
-3
-4
-6
-9
-11
-14
-15
-14
-12
-10
-7
-5
-3
-3
-4
-6
-8
-10
-10
-10
-9
-7
-6
-5
-6
-7
-9
-12
-13
-14
-13
-11
-9
-6
-4
-3
-4
-7
-10
-14
-18
-20
-21
-19
-17
-13
-9
-6
-4
-4
-5
-8
-11
-13
-15
-17
-17
-16
-14
-13
-12
-11
-11
-11
-11
-12
-12
-12
-11
-10
-9
-8
-7
-7
-7
-8
-8
-9
-9
-8
-7
-5
-2
0
2
4
4
2
0
-3
-7
-10
-13
-15
-16
-16
-16
-15
-14
-13
-13
-13
-13
-13
-14
-14
-15
-15
-16
-16
-17
-17
-17
-17
-17
-17
-16
-15
-15
-14
-14
-14
-15
-16
-17
-18
-19
-20
-21
-20
-17
-11
-2
10
26
44
64
85
103
119
131
136
136
128
114
94
69
39
6
-28
-62
-91
-116
-133
-143
-143
-136
-123
-106
-88
-71
-56
-45
-38
-33
-30
-28
-27
-25
-22
-20
-18
-18
-18
-18
-19
-19
-18
-15
-13
-10
-7
-6
-7
-9
-12
-15
-17
-17
-16
-13
-9
-5
-2
-1
-2
-5
-8
-11
-14
-15
-14
-12
-10
-7
-5
-5
-5
-6
-7
-7
-7
-6
-4
-1
2
4
5
6
7
7
7
8
10
13
16
20
23
27
29
31
33
34
35
37
38
41
44
47
51
56
59
63
66
68
69
70
70
71
72
73
75
77
79
80
80
79
77
73
69
64
59
54
51
48
46
44
42
40
37
33
29
24
19
15
10
7
4
1
-1
-2
-4
-5
-6
-7
-8
-8
-8
-8
-8
-7
-6
-6
-6
-7
-9
-10
-12
-14
-14
-15
-14
-13
-12
-11
-11
-11
-12
-13
-14
-15
-16
-16
-16
-15
-14
-13
-12
-12
-12
-12
-13
-14
-15
-15
-15
-15
-14
-13
-12
-11
-11
-10
-10
-11
-11
-12
-12
-13
-13
-12
-11
-10
-9
-9
-9
-9
-10
-12
-13
-14
-15
-15
-14
-13
-12
-12
-11
-12
-13
-14
-15
-16
-17
-18
-18
-17
-17
-16
-15
-14
-13
-12
-11
-11
-11
-11
-11
-12
-13
-14
-15
-16
-16
-15
-14
-14
-13
-13
-13
-14
-14
-15
-15
-15
-14
-13
-12
-11
-10
-9
-9
-10
-10
-12
-13
-14
-16
-17
-18
-19
-19
-18
-17
-16
-14
-13
-13
-13
-14
-15
-17
-19
-19
-19
-18
-16
-14
-11
-8
-7
-7
-8
-10
-12
-15
-17
-18
-18
-16
-14
-10
-6
-2
2
4
6
6
6
4
2
-2
-5
-9
-13
-17
-20
-22
-23
-24
-23
-23
-22
-22
-22
-23
-23
-24
-23
-22
-20
-18
-15
-13
-13
-14
-16
-20
-23
-27
-29
-29
-28
-26
-24
-22
-20
-19
-20
-20
-20
-18
-14
-7
3
16
31
47
65
82
100
115
127
135
137
132
118
96
66
30
-8
-47
-82
-111
-132
-144
-148
-143
-133
-119
-103
-87
-73
-60
-49
-41
-34
-30
-27
-24
-23
-22
-22
-21
-19
-17
-15
-12
-10
-7
-6
-6
-7
-8
-10
-12
-14
-15
-14
-13
-11
-9
-7
-5
-4
-3
-2
-2
-1
0
1
3
4
4
4
4
2
1
0
0
0
2
4
6
8
9
9
8
6
5
5
6
8
11
15
18
22
24
26
27
28
30
32
37
42
48
53
58
61
63
64
64
64
64
67
70
75
80
86
90
93
94
93
90
87
84
81
79
78
77
76
76
74
72
68
64
60
55
51
47
44
41
38
36
33
29
25
21
17
13
8
5
2
-1
-2
-3
-4
-4
-4
-4
-4
-5
-6
-7
-8
-9
-10
-11
-11
-11
-10
-9
-8
-7
-7
-7
-8
-10
-11
-13
-14
-14
-12
-10
-8
-5
-3
-1
-1
-2
-4
-7
-10
-13
-14
-14
-12
-10
-7
-4
-3
-2
-3
-5
-8
-10
-13
-14
-15
-14
-14
-12
-12
-11
-11
-12
-12
-13
-13
-13
-12
-12
-11
-11
-11
-12
-12
-13
-14
-14
-14
-14
-13
-13
-12
-11
-11
-11
-12
-12
-13
-13
-13
-13
-13
-12
-11
-11
-10
-10
-11
-12
-13
-15
-16
-18
-18
-19
-18
-16
-14
-12
-10
-9
-8
-9
-9
-10
-12
-13
-14
-14
-14
-14
-14
-14
-15
-15
-16
-16
-17
-17
-17
-16
-15
-13
-11
-8
-6
-5
-4
-4
-4
-6
-7
-9
-10
-10
-10
-9
-7
-5
-3
-2
0
0
0
1
1
1
1
1
0
0
-2
-5
-8
-11
-14
-16
-17
-17
-16
-14
-12
-10
-10
-11
-12
-14
-17
-19
-19
-18
-16
-13
-10
-7
-5
-5
-6
-8
-11
-14
-16
-18
-18
-18
-17
-15
-12
-7
-1
8
20
35
53
73
94
114
130
142
146
144
133
114
88
58
24
-11
-45
-75
-101
-121
-133
-139
-138
-131
-120
-106
-91
-76
-62
-50
-41
-34
-29
-26
-25
-23
-22
-20
-18
-16
-13
-11
-10
-10
-11
-12
-14
-15
-16
-15
-13
-10
-7
-4
-2
-1
-2
-3
-5
-8
-9
-10
-9
-8
-6
-4
-3
-2
-3
-3
-3
-3
-2
-1
2
4
6
8
8
8
7
6
5
5
4
5
5
6
8
9
11
14
17
21
25
30
34
38
42
44
47
48
51
53
56
59
62
64
66
67
67
67
68
70
73
77
83
88
92
94
94
91
86
81
75
70
66
64
63
62
61
59
56
52
47
41
36
31
27
24
22
19
16
13
9
5
1
-2
-5
-7
-8
-8
-9
-9
-10
-10
-11
-11
-12
-11
-11
-11
-11
-11
-12
-13
-15
-17
-18
-19
-19
-17
-16
-14
-12
-11
-11
-12
-13
-15
-16
-17
-17
-16
-15
-13
-11
-9
-7
-7
-6
-7
-8
-9
-10
-12
-12
-13
-13
-13
-12
-11
-11
-10
-10
-10
-10
-11
-11
-11
-11
-11
-10
-9
-7
-5
-3
-2
0
0
0
-2
-4
-7
-10
-14
-17
-19
-20
-20
-19
-16
-13
-10
-8
-6
-5
-6
-7
-9
-12
-14
-15
-15
-15
-14
-13
-12
-11
-10
-9
-9
-9
-8
-8
-7
-7
-6
-6
-6
-6
-6
-6
-5
-4
-3
-2
-2
-2
-3
-6
-8
-11
-12
-12
-9
-5
0
5
9
12
12
9
5
-1
-6
-11
-13
-13
-11
-7
-3
0
2
2
0
-3
-6
-10
-13
-14
-15
-15
-14
-14
-13
-13
-13
-13
-14
-14
-14
-14
-14
-14
-14
-14
-13
-13
-13
-13
-13
-13
-14
-16
-16
-16
-14
-10
-2
10
25
43
62
82
100
116
128
135
136
131
119
101
76
46
12
-23
-57
-88
-113
-130
-138
-138
-131
-119
-104
-88
-74
-62
-53
-47
-41
-36
-30
-24
-17
-11
-6
-3
-3
-4
-6
-10
