-2
-2
-2
-2
-2
-1
0
0
1
1
0
0
-1
-2
-3
-3
-3
-2
0
2
4
5
6
6
5
3
1
-1
-3
-3
-3
-2
0
2
4
5
5
4
2
0
-2
-4
-4
-3
-2
0
2
3
4
3
2
0
-1
-2
-2
-2
-1
0
1
1
1
0
-1
-3
-3
-3
-2
-1
0
1
1
1
-1
-3
-6
-8
-9
-9
-8
-6
-3
0
2
4
4
2
0
-3
-6
-8
-10
-10
-9
-8
-6
-4
-2
-2
-1
-2
-2
-3
-4
-4
-3
-3
-2
-2
-2
-3
-4
-6
-7
-8
-9
-9
-8
-7
-6
-5
-4
-4
-5
-6
-7
-8
-9
-8
-7
-6
-4
-3
-2
-1
-1
-1
-2
-3
-4
-5
-6
-6
-6
-5
-5
-4
-3
-2
-1
0
1
1
1
0
-1
-3
-4
-5
-6
-5
-2
1
5
9
12
14
15
14
12
9
5
2
0
-1
0
1
4
7
10
12
13
12
10
7
3
-1
-5
-9
-11
-13
-13
-12
-11
-10
-9
-9
-9
-10
-11
-13
-14
-14
-15
-14
-14
-13
-13
-12
-12
-12
-13
-13
-14
-15
-15
-15
-14
-14
-13
-12
-11
-10
-9
-9
-9
-9
-11
-12
-14
-16
-17
-18
-18
-18
-16
-13
-10
-7
-4
-1
1
3
7
12
19
30
43
59
75
91
104
113
115
110
99
82
61
37
14
-7
-24
-37
-45
-49
-48
-45
-40
-35
-29
-24
-20
-17
-16
-15
-16
-17
-17
-17
-17
-15
-13
-10
-8
-6
-5
-6
-7
-9
-11
-12
-13
-12
-10
-8
-6
-4
-4
-5
-7
-9
-11
-12
-12
-11
-9
-6
-3
-1
1
2
1
1
-1
-2
-3
-3
-2
-2
-1
0
0
0
-1
-1
-2
-3
-3
-2
0
2
5
8
10
13
14
15
15
15
15
15
16
18
21
25
29
33
36
38
39
38
36
34
32
31
31
33
35
38
42
44
46
47
47
46
44
43
42
40
39
38
37
35
33
30
28
26
24
23
22
21
20
18
17
14
12
10
7
5
3
1
-1
-2
-4
-5
-6
-6
-7
-7
-7
-7
-7
-7
-6
-6
-5
-4
-3
-2
-1
-2
-3
-5
-7
-10
-12
-14
-15
-15
-15
-14
-12
-11
-9
-8
-6
-5
-4
-3
-3
-2
-3
-4
-5
-6
-8
-9
-9
-9
-9
-8
-7
-7
-8
-9
-10
-11
-12
-12
-11
-9
-7
-4
-2
0
1
0
-1
-4
-7
-9
-12
-13
-13
-12
-9
-7
-3
-1
1
2
1
0
-3
-5
-7
-8
-8
-8
-7
-6
-6
-6
-7
-9
-12
-14
-15
-16
-16
-14
-12
-9
-6
-4
-3
-2
-3
-4
-6
-8
-10
-12
-12
-12
-12
-11
-10
-8
-7
-6
-5
-5
-5
-6
-7
-8
-9
-10
-11
-12
-12
-11
-10
-9
-8
-7
-6
-6
-6
-5
-5
-5
-4
-3
-2
0
2
4
5
5
5
4
3
2
1
0
0
1
2
3
4
4
3
2
0
-2
-5
-6
-8
-9
-10
-12
-13
-14
-16
-17
-17
-17
-16
-15
-13
-12
-12
-12
-13
-15
-18
-20
-21
-21
-20
-18
-16
-14
-13
-12
-13
-14
-15
-17
-18
-18
-18
-17
-17
-16
-16
-17
-18
-19
-20
-20
-20
-18
-17
-15
-14
-13
-14
-15
-16
-17
-18
-18
-17
-14
-11
-6
-1
6
14
25
37
51
67
82
96
107
112
111
102
87
66
41
16
-8
-28
-43
-53
-57
-57
-53
-48
-42
-37
-32
-28
-24
-20
-17
-15
-13
-12
-12
-12
-14
-16
-17
-18
-18
-17
-15
-13
-10
-8
-6
-5
-4
-4
-5
-5
-7
-8
-10
-12
-13
-13
-13
-11
-9
-6
-4
-2
-2
-2
-3
-5
-6
-6
-6
-4
-2
1
2
3
2
0
-2
-4
-6
-6
-5
-3
0
4
7
9
10
11
11
12
12
13
15
16
18
19
20
21
21
23
24
27
29
32
35
37
39
39
39
39
39
39
40
41
42
43
43
44
43
42
42
41
41
41
41
41
41
40
37
34
30
26
21
18
15
14
14
14
15
14
13
10
6
2
-3
-6
-8
-9
-8
-6
-4
-2
-2
-2
-4
-7
-9
-10
-11
-10
-8
-5
-3
-2
-2
-4
-7
-10
-13
-16
-16
-16
-14
-11
-9
-7
-7
-7
-9
-11
-12
-13
-12
-11
-10
-8
-7
-6
-6
-8
-9
-11
-12
-12
-11
-10
-8
-6
-5
-4
-5
-5
-7
-9
-10
-11
-12
-12
-12
-11
-11
-10
-9
-9
-9
-8
-8
-8
-7
-7
-6
-5
-5
-5
-5
-5
-6
-6
-6
-6
-6
-6
-6
-6
-6
-6
-7
-8
-9
-10
-11
-12
-12
-13
-13
-12
-12
-11
-10
-9
-8
-7
-7
-7
-7
-7
-6
-5
-3
0
3
6
8
10
10
9
8
6
4
2
1
1
0
1
1
1
1
0
0
-1
-1
-2
-2
-3
-5
-7
-9
-11
-13
-15
-15
-15
-14
-12
-10
-9
-8
-9
-11
-13
-16
-18
-21
-22
-22
-21
-20
-19
-17
-16
-16
-16
-16
-17
-18
-19
-19
-19
-19
-18
-18
-18
-17
-17
-17
-18
-17
-17
-17
-16
-15
-14
-14
-13
-14
-14
-14
-13
-12
-10
-7
-3
2
8
16
26
38
51
66
82
96
107
112
112
103
87
65
39
12
-14
-36
-52
-61
-64
-62
-56
-48
-41
-35
-31
-29
-28
-27
-25
-23
-20
-16
-12
-9
-6
-5
-5
-6
-8
-9
-10
-11
-11
-10
-9
-8
-8
-8
-9
-10
-12
-13
-13
-13
-12
-10
-9
-8
-7
-7
-8
-8
-9
-10
-10
-10
-9
-8
-7
-5
-4
-2
-1
1
1
1
1
1
0
-1
-1
-1
0
1
4
6
8
10
11
12
12
12
13
14
16
19
22
26
28
31
32
33
34
35
35
37
38
40
42
43
44
45
45
46
46
47
48
50
51
52
52
51
49
46
44
41
39
37
35
33
31
29
26
23
19
15
11
8
6
5
5
5
4
4
2
0
-3
-6
-8
-10
-10
-9
-8
-5
-3
-2
-2
-2
-4
-6
-8
-10
-11
-11
-10
-9
-7
-6
-6
-7
-9
-11
-12
-14
-14
-13
-11
-8
-6
-3
-2
-1
-1
-3
-5
-7
-9
-11
-11
-11
-10
-9
-6
-4
-2
0
1
1
-1
-3
-5
-8
-10
-12
-13
-12
-10
-8
-5
-2
0
2
2
2
1
0
-1
-3
-5
-7
-8
-10
-10
-10
-9
-7
-4
-1
1
3
5
5
4
3
1
1
1
2
4
7
10
12
14
14
13
11
9
7
5
4
4
5
6
6
6
4
1
-2
-6
-10
-14
-16
-17
-18
-18
-17
-16
-16
-17
-18
-20
-21
-23
-24
-24
-24
-23
-22
-21
-20
-20
-20
-20
-20
-21
-21
-22
-22
-22
-23
-24
-25
-26
-27
-28
-27
-27
-25
-24
-22
-21
-21
-22
-23
-24
-25
-25
-25
-24
-22
-21
-18
-15
-12
-6
3
15
31
49
70
89
106
117
120
114
99
77
50
20
-8
-33
-52
-65
-72
-73
-71
-65
-59
-53
-47
-42
-38
-34
-30
-27
-24
-22
-21
-20
-21
-22
-23
-24
-24
-25
-24
-23
-22
-20
-18
-17
-15
-15
-14
-15
-15
-16
-16
-17
-17
-16
-14
-13
-11
-9
-8
-8
-8
-9
-10
-11
-12
-12
-11
-10
-8
-7
-5
-4
-3
-3
-3
-3
-3
-3
-2
-2
0
1
3
5
6
7
8
8
9
9
10
11
13
15
17
20
22
25
27
28
30
31
33
34
36
38
40
42
44
45
46
46
47
47
47
48
48
49
49
48
47
46
44
41
39
37
35
33
31
29
26
23
20
17
14
11
9
8
7
6
5
4
2
-1
-3
-6
-8
-9
-9
-8
-7
-5
-4
-3
-2
-3
-4
-6
-8
-10
-11
-12
-13
-13
-12
-12
-11
-11
-11
-10
-9
-9
-8
-7
-6
-5
-5
-5
-5
-5
-6
-7
-7
-8
-8
-8
-8
-8
-8
-7
-7
-6
-6
-6
-5
-5
-5
-5
-6
-6
-5
-5
-3
-2
0
2
3
4
5
4
3
2
1
0
1
2
3
5
7
8
9
8
7
5
4
2
2
2
3
4
5
6
6
6
4
2
0
-3
-5
-8
-10
-12
-13
-14
-14
-14
-13
-12
-12
-12
-12
-13
-14
-16
-17
-19
-20
-20
-20
-19
-18
-18
-17
-17
-17
-17
-18
-19
-19
-20
-20
-20
-20
-20
-19
-19
-18
-17
-16
-15
-14
-13
-13
-13
-14
-15
-16
-16
-16
-15
-13
-10
-6
-1
5
13
23
35
49
64
80
94
105
110
107
97
80
56
29
2
-23
-42
-55
-61
-60
-55
-47
-38
-30
-25
-22
-20
-20
-21
-21
-20
-19
-18
-16
-15
-15
-14
-14
-14
-14
-13
-12
-11
-10
-9
-10
-11
-12
-14
-15
-15
-15
-14
-13
-11
-10
-9
-8
-8
-9
-9
-9
-9
-8
-7
-6
-5
-4
-4
-4
-4
-4
-5
-5
-6
-5
-5
-4
-3
-2
0
2
4
5
6
7
7
7
6
6
6
7
8
11
13
17
20
22
24
25
25
26
26
27
29
31
34
37
40
43
45
45
46
45
45
44
43
43
43
43
43
42
41
40
38
36
34
31
29
26
23
20
18
16
14
13
12
11
11
10
9
7
5
2
-1
-4
-7
-10
-11
-12
-12
-12
-10
-9
-7
-6
-6
-7
-8
-10
-11
-13
-13
-13
-12
-11
-9
-8
-8
-8
-9
-11
-12
-13
-14
-13
-12
-10
-8
-7
-7
-8
-9
-10
-12
-13
-14
-14
-13
-12
-12
-11
-11
-12
-12
-11
-10
-9
-6
-3
-1
2
3
3
2
1
-1
-3
-4
-4
-3
-1
1
3
5
7
8
8
8
7
7
6
5
4
3
2
0
-2
-4
-5
-7
-8
-10
-11
-12
-13
-14
-15
-16
-17
-17
-17
-16
-15
-15
-14
-14
-15
-15
-16
-16
-16
-16
-16
-16
-16
-17
-18
-21
-23
-26
-28
-29
-28
-27
-24
-21
-18
-15
-13
-13
-13
-15
-17
-19
-20
-22
-23
-23
-24
-24
-23
-22
-19
-16
-11
-4
5
15
27
41
55
69
82
93
101
105
103
95
82
63
40
16
-8
-30
-47
-59
-64
-64
-59
-51
-42
-33
-26
-22
-19
-19
-20
-21
-21
-21
-19
-17
-14
-12
-10
-9
-9
-10
-11
-13
-15
-17
-18
-18
-18
-18
-17
-16
-15
-14
-13
-12
-11
-11
-12
-12
-13
-13
-13
-13
-13
-12
-10
-9
-7
-7
-6
-6
-7
-8
-8
-8
-7
-5
-3
-1
1
2
3
2
1
-1
-2
-4
-4
-3
-1
2
5
9
13
16
19
21
22
23
24
25
26
26
28
29
30
32
33
35
37
39
42
44
45
46
47
46
45
43
41
39
37
35
33
32
30
29
27
26
24
22
20
18
16
14
12
10
8
5
3
1
-2
-4
-6
-7
-8
-9
-10
-10
-10
-10
-10
-10
-9
-8
-8
-7
-6
-5
-5
-5
-5
-6
-6
-7
-8
-8
-9
-10
-11
-12
-12
-12
-12
-11
-10
-10
-9
-10
-11
-12
-14
-16
-18
-19
-19
-18
-15
-13
-10
-7
-5
-4
-4
-4
-5
-5
-4
-4
-2
-1
1
2
2
2
1
0
0
0
1
3
5
7
8
10
10
9
8
7
6
6
6
6
6
5
4
1
-2
-6
-10
-13
-16
-18
-19
-18
-17
-16
-14
-14
-13
-14
-15
-16
-17
-17
-18
-17
-17
-16
-16
-16
-16
-16
-17
-19
-19
-20
-20
-20
-19
-18
-18
-17
-18
-18
-20
-21
-23
-24
-24
-23
-22
-20
-18
-16
-15
-14
-15
-16
-17
-19
-19
-19
-16
-12
-5
4
14
27
41
56
71
85
97
105
108
105
95
78
56
31
4
-21
-42
-57
-65
-67
-63
-56
-47
-38
-31
-26
-24
-23
-23
-23
-22
-21
-19
-17
-15
-13
-12
-12
-12
-13
-12
-12
-11
-10
-10
-10
-11
-13
-15
-17
-19
-19
-19
-17
-14
-11
-9
-7
-6
-6
-8
-10
-11
-13
-13
-13
-11
-9
-7
-5
-4
-3
-3
-4
-5
-6
-6
-6
-5
-4
-3
-1
0
1
1
2
2
3
5
7
10
13
16
19
21
22
22
22
21
21
21
23
26
30
34
37
40
42
42
42
42
41
41
42
43
45
46
47
47
45
43
40
37
34
31
29
27
26
25
24
22
21
20
19
18
18
17
16
14
11
8
5
1
-3
-6
-9
-11
-11
-11
-11
-10
-9
-7
-6
-5
-4
-3
-3
-4
-4
-5
-7
-8
-9
-9
-9
-8
-8
-7
-6
-6
-7
-7
-8
-8
-8
-8
-7
-6
-5
-5
-5
-6
-8
-10
-11
-13
-13
-13
-12
-10
-8
-6
-5
-4
-3
-3
-3
-3
-3
-3
-2
-2
-1
-1
0
0
0
0
0
1
2
3
5
6
7
7
8
8
8
8
8
9
9
8
7
6
4
1
-1
-4
-6
-7
-8
-8
-7
-7
-7
-7
-8
-9
-11
-13
-15
-17
-19
-21
-22
-22
-22
-21
-19
-17
-14
-12
-10
-9
-9
-11
-13
-16
-19
-21
-21
-20
-18
-16
-13
-12
-12
-13
-16
-18
-20
-22
-21
-20
-17
-14
-12
-10
-10
-11
-12
-14
-15
-16
-15
-13
-10
-5
2
10
21
34
48
64
81
96
107
113
112
104
88
67
41
14
-11
-33
-48
-57
-60
-58
-53
-46
-39
-33
-29
-26
-24
-22
-21
-19
-17
-15
-14
-13
-13
-14
-15
-17
-18
-18
-18
-17
-15
-13
-12
-11
-10
-11
-11
-11
-12
-11
-10
-8
-7
-6
-5
-5
-6
-7
-7
-8
-7
-6
-5
-4
-4
-4
-5
-6
-8
-10
-11
-11
-10
-8
-5
-3
0
2
3
4
5
6
6
7
8
10
11
12
14
15
17
18
21
23
25
27
29
30
30
30
29
28
28
28
30
33
37
40
44
47
49
49
49
47
46
44
43
41
41
40
39
38
37
35
32
30
27
25
23
21
19
18
16
14
11
9
6
2
-1
-3
-6
-7
-8
-8
-7
-6
-5
-4
-4
-4
-5
-6
-8
-10
-12
-13
-13
-12
-10
-8
-6
-4
-3
-3
-3
-4
-6
-7
-9
-9
-10
-10
-9
-8
-7
-6
-6
-6
-6
-6
-6
-7
-7
-8
-9
-9
-9
-10
-10
-9
-9
-9
-8
-8
-7
-7
-7
-7
-7
-7
-7
-7
-6
-4
-2
0
2
4
5
5
5
4
3
1
0
-1
-1
-1
0
1
3
4
5
6
6
6
6
5
5
5
4
3
2
1
-1
-3
-6
-8
-10
-12
-13
-14
-14
-13
-12
-11
-10
-10
-10
-11
-12
-13
-14
-16
-17
-18
-19
-19
-19
-18
-17
-16
-15
-14
-14
-14
-15
-15
-15
-16
-16
-15
-15
-15
-15
-16
-17
-19
-20
-21
-22
-22
-22
-22
-21
-20
-20
-19
-19
-19
-19
-18
-17
-14
-11
-5
3
12
24
39
55
71
87
100
109
112
108
96
78
54
27
1
-23
-42
-56
-62
-63
-59
-52
-45
-37
-31
-27
-24
-23
-22
-21
-20
-19
-17
-16
-15
-15
-15
-16
-18
-18
-19
-19
-18
-16
-15
-14
-13
-13
-13
-14
-14
-14
-14
-13
-11
-10
-9
-9
-9
-9
-10
-10
-10
-10
-10
-9
-8
-7
-7
-7
-8
-8
-9
-8
-7
-6
-4
-2
0
1
1
0
0
-1
-1
-1
1
3
6
9
12
15
17
18
19
20
21
22
23
24
25
26
27
28
29
30
31
33
36
39
42
44
46
46
46
44
41
38
36
34
34
34
35
37
38
38
37
35
32
28
23
19
14
11
9
8
8
8
8
7
6
5
2
-1
-3
-6
-8
-8
-8
-8
-7
-5
-5
-5
-5
-6
-7
-9
-10
-10
-11
-10
-9
-8
-8
-7
-7
-7
-8
-9
-10
-11
-12
-13
-14
-14
-14
-14
-13
-12
-11
-10
-9
-9
-9
-9
-10
-11
-12
-13
-13
-13
-13
-12
-11
-10
-9
-8
-7
-5
-5
-4
-4
-4
-5
-7
-8
-9
-10
-10
-9
-8
-7
-5
-4
-4
-5
-6
-7
-8
-9
-9
-8
-6
-4
-2
-1
-1
-2
-3
-4
-4
-4
-3
-1
2
5
7
9
10
10
8
6
3
1
-1
-2
-2
-2
-2
-3
-4
-6
-8
-11
-13
-14
-14
-14
-13
-12
-12
-12
-14
-15
-17
-19
-19
-19
-18
-16
-13
-12
-11
-11
-13
-15
-18
-20
-21
-21
-20
-18
-16
-15
-14
-14
-14
-15
-17
-17
-18
-18
-18
-18
-18
-19
-20
-21
-23
-24
-24
-24
-23
-21
-20
-18
-17
-16
-15
-14
-13
-11
-7
-1
8
19
32
47
62
77
90
100
104
103
96
83
64
41
17
-6
-27
-43
-54
-59
-59
-55
-50
-43
-37
-32
-28
-26
-24
-21
-18
-15
-11
-8
-6
-6
-7
-11
-15
-19
-22
-24
-23
-21
-17
-13
-10
-8
-7
-8
-11
-14
-17
-18
-18
-17
-14
-11
-8
-6
-5
-6
-6
-8
-9
-9
-9
-8
-6
-5
-4
-3
-4
-5
-6
-7
-8
-7
-5
-3
1
4
7
10
11
11
11
9
8
7
7
8
10
12
16
19
22
25
28
29
31
32
33
33
34
35
36
37
37
38
39
40
41
42
43
44
45
46
47
48
48
47
45
43
41
38
36
34
32
31
30
29
28
25
22
19
15
11
7
4
2
1
1
0
0
0
-1
-2
-3
-4
-5
-5
-6
-6
-6
-6
-7
-7
-9
-10
-11
-12
-12
-12
-12
-11
-10
-9
-8
-8
-8
-9
-9
-10
-10
-10
-10
-10
-9
-9
-9
-9
-9
-9
-9
-8
-8
-7
-7
-7
-7
-7
-8
-8
-9
-8
-7
-5
-4
-2
-1
-1
-2
-3
-6
-8
-10
-11
-12
-11
-9
-8
-6
-5
-5
-6
-8
-9
-10
-11
-10
-9
-8
-6
-5
-5
-5
-6
-8
-9
-9
-9
-8
-7
-5
-3
-2
-1
-1
-2
-3
-4
-5
-5
-5
-4
-3
-1
0
2
4
6
8
9
10
10
10
9
8
7
7
6
6
6
6
4
2
-2
-6
-11
-15
-18
-19
-19
-18
-16
-13
-11
-10
-10
-11
-13
-16
-17
-19
-19
-19
-18
-17
-17
-17
-17
-18
-19
-19
-18
-17
-15
-12
-10
-9
-9
-10
-12
-14
-17
-19
-20
-20
-20
-19
-18
-16
-15
-14
-13
-13
-12
-12
-12
-13
-13
-14
-15
-15
-16
-17
-16
-15
-13
-10
-6
0
8
18
30
44
60
77
92
105
113
115
110
98
80
57
31
6
-17
-35
-48
-55
-57
-54
-49
-43
-37
-31
-27
-25
-23
-21
-20
-19
-17
-15
-13
-11
-9
-9
-9
-9
-11
-12
-14
-15
-15
-15
-13
-11
-9
-6
-4
-4
-4
-5
-7
-8
-10
-11
-11
-10
-9
-7
-6
-6
-5
-5
-5
-5
-5
-4
-2
0
1
2
2
2
1
0
-1
-2
-2
0
1
4
6
9
11
13
14
15
16
17
17
18
19
20
20
21
22
23
24
25
27
29
31
34
36
38
40
42
44
45
47
48
48
48
48
48
47
46
45
44
43
42
41
40
40
39
38
36
34
31
28
24
19
15
12
8
6
4
3
3
2
2
1
0
0
-1
-1
-1
-1
0
1
1
2
1
1
-1
-2
-4
-6
-8
-9
-10
-10
-10
-10
-10
-9
-8
-7
-6
-6
-6
-5
-6
-6
-6
-7
-7
-6
-6
-5
-4
-3
-2
-2
-2
-3
-4
-5
-6
-7
-7
-8
-9
-9
-9
-10
-9
-9
-8
-7
-5
-4
-3
-3
-4
-5
-7
-9
-10
-11
-11
-9
-7
-5
-2
0
1
1
0
-1
-3
-5
-7
-9
-9
-9
-9
-9
-9
-9
-9
-9
-9
-9
-9
-9
-9
-9
-9
-9
-9
-10
-10
-10
-10
-11
-11
-11
-10
-10
-9
-8
-6
-5
-4
-3
-3
-3
-5
-7
-9
-11
-12
-13
-12
-10
-8
-5
-3
0
1
2
3
3
2
2
2
2
2
2
2
2
2
2
2
2
3
3
3
2
1
-1
-3
-5
-7
-9
-9
-10
-10
-10
-10
-11
-13
-15
-17
-19
-21
-21
-22
-21
-20
-19
-18
-18
-17
-17
-16
-16
-15
-14
-13
-12
-11
-11
-11
-12
-13
-15
-16
-17
-18
-18
-18
-18
-18
-17
-17
-16
-16
-15
-15
-15
-15
-15
-17
-18
-20
-21
-22
-22
-21
-18
-15
-11
-7
-2
2
8
14
22
33
46
61
77
92
104
112
113
107
93
73
49
22
-4
-26
-44
-56
-61
-61
-57
-50
-42
-33
-27
-21
-18
-16
-16
-16
-16
-16
-16
-15
-14
-12
-11
-10
-9
-9
-10
-10
-11
-12
-13
-13
-14
-14
-13
-13
-13
-12
-12
-11
-10
-9
-7
-5
-3
-2
0
0
0
-1
-2
-4
-5
-6
-7
-6
-5
-4
-3
-2
-2
-2
-3
-4
-5
-5
-4
-2
0
2
5
7
8
9
10
10
11
13
16
18
22
24
27
29
30
31
31
32
32
33
35
36
38
40
41
42
42
42
42
41
41
40
40
40
41
41
42
43
43
44
44
44
43
41
39
36
32
29
26
22
19
16
13
10
8
6
4
3
2
1
1
0
0
0
-1
-2
-3
-4
-5
-6
-7
-7
-7
-7
-6
-5
-5
-4
-4
-5
-5
-6
-7
-8
-8
-9
-10
-10
-11
-11
-11
-11
-11
-10
-9
-8
-8
-7
-8
-9
-10
-11
-12
-13
-13
-12
-10
-8
-6
-4
-2
-2
-2
-4
-5
-7
-8
-9
-9
-8
-7
-6
-6
-6
-6
-7
-8
-9
-9
-9
-9
-8
-7
-7
-7
-7
-8
-9
-10
-11
-11
-12
-11
-11
-11
-10
-10
-10
-11
-11
-11
-11
-10
-10
-9
-9
-10
-11
-13
-16
-19
-21
-22
-22
-20
-17
-14
-10
-6
-3
-2
-1
-2
-4
-5
-7
-8
-8
-8
-8
-7
-7
-7
-8
-9
-10
-10
-10
-9
-8
-7
-5
-4
-2
-1
-1
0
1
2
3
4
5
6
7
7
6
5
4
2
1
-1
-2
-4
-5
-6
-8
-9
-10
-10
-11
-11
-11
-12
-12
-13
-15
-16
-17
-19
-19
-19
-19
-18
-17
-17
-16
-16
-16
-16
-17
-18
-18
-18
-18
-18
-18
-17
-17
-16
-16
-16
-15
-15
-15
-15
-16
-17
-18
-19
-20
-21
-22
-21
-20
-19
-18
-17
-17
-17
-18
-19
-21
-21
-21
-20
-17
-13
-7
0
8
17
27
40
53
68
82
95
105
110
109
101
85
64
38
11
-14
-36
-51
-60
-63
-60
-54
-47
-39
-33
-29
-27
-25
-24
-23
-21
-18
-14
-11
-9
-8
-9
-11
-13
-16
-18
-18
-18
-15
-12
-8
-5
-3
-3
-4
-7
-10
-13
-15
-16
-15
-13
-10
-6
-4
-2
-3
-4
-6
-9
-11
-12
-12
-10
-7
-4
-2
0
1
1
0
-1
-2
-1
0
2
5
8
10
11
12
12
11
11
11
12
13
16
18
21
24
26
27
27
27
27
26
26
26
27
28
29
31
34
36
39
43
45
48
50
51
52
51
51
50
49
48
47
47
46
46
45
43
41
38
35
31
28
25
23
21
19
17
14
12
10
7
5
3
2
1
1
1
2
1
1
0
-1
-2
-3
-3
-3
-2
0
1
1
0
-2
-5
-8
-12
-15
-17
-18
-17
-16
-14
-12
-11
-10
-10
-12
-13
-15
-16
-16
-15
-14
-11
-8
-5
-2
0
1
1
0
-1
-3
-4
-5
-6
-7
-7
-7
-7
-8
-8
-8
-8
-8
-8
-7
-6
-5
-4
-3
-3
-3
-3
-5
-6
-7
-9
-9
-9
-9
-8
-7
-6
-5
-5
-5
-6
-7
-8
-10
-11
-12
-12
-12
-12
-11
-10
-9
-9
-8
-7
-7
-7
-8
-9
-10
-12
-13
-13
-13
-11
-8
-5
-1
3
6
8
8
7
5
3
0
-1
-1
0
3
7
10
13
15
16
16
14
12
10
7
6
4
3
1
0
-2
-4
-7
-9
-12
-13
-14
-14
-14
-14
-14
-15
-16
-17
-18
-19
-19
-19
-19
-18
-16
-15
-14
-14
-14
-15
-16
-18
-20
-22
-23
-24
-24
-23
-21
-19
-17
-15
-14
-14
-14
-16
-17
-18
-19
-19
-18
-18
-17
-17
-18
-19
-21
-23
-24
-23
-21
-17
-11
-4
5
15
26
39
53
69
85
100
112
120
120
113
97
74
45
13
-17
-44
-64
-76
-80
-77
-71
-61
-52
-44
-38
-35
-32
-31
-29
-27
-24
-21
-18
-15
-12
-11
-10
-10
-10
-10
-11
-11
-12
-12
-13
-13
-14
-13
-12
-11
-10
-9
-8
-7
-7
-7
-7
-7
-7
-6
-6
-5
-6
-6
-7
-8
-9
-8
-7
-5
-3
0
2
3
4
4
4
4
4
5
7
10
12
13
13
12
11
10
9
9
11
14
18
23
27
30
32
33
33
32
32
32
34
35
38
40
42
44
44
45
45
45
46
48
51
53
56
58
60
60
59
57
54
51
49
46
44
42
40
39
38
36
34
32
29
27
24
21
17
14
10
7
3
0
-3
-6
-8
-9
-11
-11
-12
-12
-11
-11
-9
-8
-7
-5
-4
-4
-4
-4
-5
-7
-8
-10
-10
-11
-10
-10
-9
-8
-8
-8
-9
-10
-12
-13
-14
-14
-15
-14
-14
-14
-14
-15
-15
-16
-17
-17
-16
-15
-14
-12
-10
-9
-7
-6
-6
-6
-7
-8
-9
-11
-12
-13
-13
-13
-13
-12
-11
-10
-9
-8
-8
-8
-8
-9
-10
-11
-11
-11
-11
-10
-9
-9
-8
-9
-9
-10
-11
-11
-11
-11
-10
-10
-9
-8
-7
-7
-6
-4
-3
0
2
5
7
9
9
9
8
7
7
6
7
8
10
12
13
14
13
11
8
5
2
-1
-3
-4
-5
-5
-6
-7
-9
-11
-14
-16
-18
-20
-21
-22
-22
-22
-22
-22
-22
-22
-21
-21
-20
-19
-18
-17
-16
-15
-15
-16
-17
-18
-20
-21
-22
-23
-23
-22
-22
-21
-20
-20
-20
-21
-21
-22
-22
-22
-22
-21
-20
-19
-17
-16
-15
-13
-9
-3
6
20
36
54
74
91
104
111
111
102
85
62
35
6
-22
-45
-64
-76
-83
-84
-80
-74
-67
-59
-51
-44
-38
-33
-29
-25
-22
-20
-18
-17
-17
-17
-17
-17
-17
-16
-14
-12
-10
-9
-7
-6
-6
-7
-7
-8
-9
-10
-10
-10
-10
-10
-9
-9
-8
-7
-5
-4
-3
-2
-1
-1
-1
-2
-4
-5
-7
-9
-10
-11
-11
-10
-8
-6
-4
-2
-1
-1
-1
-1
-2
-2
-1
0
3
7
11
15
19
22
24
26
27
28
30
32
34
37
40
42
44
45
44
43
42
41
40
40
42
44
47
50
52
54
55
54
53
51
49
47
45
43
42
40
39
38
36
34
32
30
28
25
21
17
13
10
6
3
1
0
-1
-1
-1
-2
-2
-3
-4
-5
-7
-8
-8
-8
-8
-8
-7
-7
-7
-7
-7
-7
-7
-6
-5
-4
-3
-3
-3
-3
-5
-6
-8
-9
-10
-10
-10
-8
-7
-6
-5
-4
-4
-4
-4
-4
-3
-3
-3
-2
-3
-3
-4
-6
-8
-9
-10
-11
-10
-10
-9
-7
-6
-6
-5
-5
-5
-6
-6
-6
-6
-5
-3
-1
1
3
5
7
8
9
9
9
7
6
5
4
4
6
9
12
16
19
21
21
20
17
14
10
7
5
4
4
4
3
2
-1
-5
-10
-15
-20
-23
-25
-26
-25
-24
-23
-22
-22
-22
-22
-23
-23
-22
-21
-20
-19
-18
-17
-18
-19
-20
-22
-24
-25
-26
-26
-26
-25
-25
-24
-24
-23
-22
-20
-19
-18
-17
-17
-17
-18
-19
-21
-22
-24
-24
-24
-23
-21
-17
-11
-2
10
24
41
59
78
95
108
116
116
109
93
71
44
15
-12
-37
-56
-69
-75
-76
-74
-69
-63
-56
-51
-45
-40
-35
-30
-25
-20
-16
-14
-13
-14
-16
-19
-22
-23
-24
-23
-21
-19
-16
-14
-13
-12
-13
-13
-14
-15
-15
-15
-14
-14
-13
-13
-13
-13
-13
-13
-12
-11
-10
-8
-6
-6
-6
-7
-9
-11
-12
-13
-13
-12
-10
-6
-3
0
2
3
3
3
2
2
1
1
2
3
5
6
8
10
12
14
16
17
19
21
23
25
26
27
28
29
31
32
33
34
35
37
38
39
41
42
44
45
46
47
47
46
44
41
37
33
29
26
23
21
20
20
21
22
22
21
19
16
13
9
5
2
0
0
0
1
2
3
3
3
1
0
-2
-4
-5
-6
-6
-5
-5
-5
-5
-6
-7
-7
-8
-8
-8
-7
-6
-6
-5
-5
-6
-6
-7
-8
-9
-10
-11
-12
-13
-13
-14
-14
-13
-13
-11
-10
-8
-6
-5
-4
-3
-2
-2
-2
-3
-3
-4
-4
-3
-2
-1
2
4
7
9
10
11
10
8
6
3
1
-1
-2
-1
1
3
6
8
10
10
10
8
6
3
1
-2
-3
-4
-5
-5
-5
-4
-5
-5
-6
-7
-9
-10
-11
-12
-13
-12
-12
-11
-11
-11
-11
-11
-12
-14
-15
-16
-16
-16
-16
-15
-15
-14
-14
-14
-15
-16
-17
-18
-19
-19
-19
-18
-17
-16
-15
-15
-16
-18
-19
-21
-23
-24
-23
-22
-19
-16
-12
-8
-4
0
5
11
20
32
46
62
78
94
105
111
110
101
85
64
40
14
-9
-28
-42
-51
-54
-54
-50
-46
-41
-36
-32
-29
-26
-23
-21
-19
-17
-16
-16
-16
-16
-16
-16
-15
-14
-12
-11
-9
-8
-8
-9
-11
-12
-14
-15
-15
-15
-14
-13
-12
-11
-10
-10
-10
-11
-11
-11
-10
-10
-9
-8
-8
-8
-7
-7
-7
-7
-7
-7
-7
-7
-6
-6
-4
-3
-1
1
3
5
6
7
7
7
7
8
10
13
16
19
23
25
27
28
28
27
26
25
24
24
25
26
28
29
31
33
34
36
38
40
42
43
44
44
43
42
40
39
38
37
37
36
35
34
32
28
25
20
17
13
10
8
7
6
4
3
1
-1
-3
-5
-7
-8
-9
-9
-9
-10
-10
-11
-11
-12
-12
-12
-11
-11
-11
-11
-13
-15
-17
-19
-20
-20
-18
-15
-11
-7
-3
0
1
0
-2
-5
-8
-12
-14
-16
-16
-15
-14
-13
-12
-11
-11
-11
-11
-12
-12
-11
-9
-7
-5
-3
-1
0
0
-1
-3
-5
-7
-8
-8
-6
-3
1
5
8
11
12
11
9
7
4
2
0
0
0
0
-1
-1
-3
-5
-7
-10
-12
-14
-15
-14
-14
-13
-12
-11
-11
-12
-12
-13
-14
-15
-16
-17
-18
-18
-19
-19
-19
-19
-19
-18
-17
-17
-17
-17
-17
-18
-19
-21
-22
-22
-23
-22
-22
-21
-19
-18
-18
-17
-17
-18
-19
-21
-22
-24
-24
-24
-22
-18
-13
-6
3
14
27
41
55
70
83
94
101
103
100
90
74
54
31
7
-16
-36
-50
-58
-61
-58
-52
-45
-37
-30
-25
-22
-21
-22
-22
-23
-23
-23
-23
-22
-21
-21
-21
-21
-21
-21
-20
-19
-18
-16
-15
-15
-15
-15
-16
-16
-17
-17
-17
-16
-16
-16
-16
-16
-17
-17
-17
-16
-15
-14
-12
-11
-10
-10
-10
-11
-12
-12
-12
-11
-10
-8
-6
-5
-4
-4
-4
-5
-6
-6
-6
-4
-3
0
3
6
8
10
11
12
13
13
14
16
17
20
22
24
26
27
28
28
28
27
28
29
31
33
35
37
38
38
37
35
33
30
28
27
26
27
27
28
28
26
24
20
15
11
7
4
2
1
1
1
0
-2
-5
-8
-11
-14
-17
-18
-17
-16
-14
-12
-11
-10
-9
-10
-10
-11
-12
-12
-12
-13
-13
-13
-13
-12
-12
-12
-11
-11
-10
-10
-11
-11
-12
-13
-14
-14
-14
-13
-11
-10
-8
-7
-5
-4
-3
-2
-1
0
0
1
1
1
1
0
0
-1
-2
-2
-2
-1
0
1
3
5
6
7
8
8
7
5
4
2
0
-1
-3
-5
-6
-8
-10
-12
-13
-14
-15
-15
-15
-14
-14
-13
-12
-11
-11
-11
-12
-12
-13
-13
-14
-14
-14
-14
-14
-13
-13
-13
-13
-13
-14
-15
-16
-17
-19
-19
-19
-19
-18
-17
-17
-17
-17
-17
-18
-18
-18
-17
-15
-13
-10
-6
-3
0
4
9
16
25
37
51
66
82
95
104
108
105
95
79
59
36
12
-9
-27
-39
-47
-50
-50
-46
-41
-36
-30
-25
-21
-18
-15
-13
-11
-9
-8
-8
-8
-9
-11
-13
-14
-15
-14
-13
-10
-7
-4
-2
-1
-1
-3
-6
-8
-11
-12
-12
-10
-7
-4
-1
3
5
6
5
4
2
0
-1
-2
-3
-2
-1
0
2
3
5
5
6
6
6
6
7
8
9
10
12
12
13
13
13
13
14
15
16
18
21
23
25
27
28
29
31
32
34
35
37
38
38
38
37
36
35
34
35
37
40
44
47
49
50
49
46
42
38
34
31
28
26
24
23
21
19
17
16
14
14
15
17
19
21
22
21
19
14
9
2
-4
-8
-12
-13
-12
-10
-7
-4
-1
0
0
-2
-4
-7
-10
-11
-12
-11
-10
-8
-5
-3
-2
-1
-1
-2
-3
-4
-5
-6
-7
-8
-8
-8
-8
-7
-6
-5
-3
-1
1
3
5
6
7
7
8
8
9
9
10
11
12
14
15
15
16
16
15
15
13
12
10
8
5
3
0
-2
-5
-7
-9
-10
-11
-11
-11
-11
-11
-10
-10
-10
-10
-10
-10
-11
-12
-12
-13
-14
-15
-16
-17
-18
-18
-17
-16
-15
-13
-11
-10
-9
-10
-11
-13
-15
-17
-20
-21
-22
-22
-21
-20
-18
-17
-16
-16
-16
-16
-17
-18
-19
-19
-18
-16
-12
-5
5
18
33
51
70
89
106
119
126
126
118
103
80
52
21
-10
-38
-61
-77
-86
-88
-83
-75
-64
-54
-44
-37
-32
-29
-28
-27
-26
-24
-21
-18
-14
-10
-7
-5
-4
-3
-4
-5
-6
-7
-8
-10
-11
-13
-14
-15
-15
-15
-15
-14
-13
-12
-12
-11
-11
-11
-10
-9
-7
-5
-4
-2
-1
0
0
0
-1
-1
0
1
2
3
3
2
1
-1
-3
-4
-4
-2
1
5
9
14
17
20
21
22
21
21
21
22
23
25
28
30
33
35
36
37
38
39
39
40
42
43
45
46
48
49
50
51
52
52
53
53
53
52
51
50
47
44
40
35
30
25
20
15
11
8
5
2
0
-2
-4
-6
-7
-8
-9
-9
-9
-9
-9
-10
-11
-11
-12
-13
-13
-12
-11
-10
-9
-8
-8
-8
-10
-12
-14
-16
-18
-19
-19
-18
-17
-16
-14
-13
-12
-11
-10
-9
-8
-7
-5
-3
-2
0
0
0
-1
-3
-5
-6
-8
-9
-9
-8
-6
-3
0
3
5
6
7
7
6
5
4
3
2
2
2
2
1
-1
-4
-8
-13
-18
-22
-26
-28
-30
-30
-29
-28
-26
-24
-23
-21
-19
-18
-18
-18
-19
-21
-24
-28
-31
-34
-36
-37
-35
-33
-29
-26
-23
-22
-21
-22
-25
-27
-30
-31
-32
-32
-31
-29
-28
-27
-27
-28
-29
-30
-31
-31
-30
-29
-27
-24
-22
-19
-16
-12
-6
4
17
33
52
72
90
104
112
111
101
81
53
20
-13
-45
-71
-89
-99
-101
-97
-89
-79
-69
-61
-55
-51
-48
-46
-43
-39
-35
-30
-25
-21
-20
-20
-21
-24
-28
-30
-32
-31
-29
-26
-22
-18
-15
-14
-15
-18
-22
-26
-29
-31
-30
-28
-24
-19
-15
-11
-9
-8
-9
-11
-13
-14
-14
-13
-11
-9
-7
-6
-5
-6
-7
-8
-8
-8
-7
-5
-3
0
2
3
4
4
4
5
6
9
12
17
22
27
31
34
37
38
39
40
42
44
48
52
57
61
65
67
67
65
61
54
47
39
32
26
22
21
22
24
27
30
33
34
34
33
30
27
24
21
18
16
14
12
10
9
6
4
1
-1
-4
-6
-9
-10
-12
-13
-14
-14
-15
-15
-16
-16
-17
-17
-17
-17
-17
-16
-14
-13
-12
-10
-10
-11
-12
-14
-17
-19
-21
-21
-20
-18
-14
-10
-7
-4
-2
-2
-3
-5
-8
-9
-10
-10
-9
-8
-6
-5
-4
-3
-3
-2
-1
1
3
5
7
8
9
8
7
4
2
0
-1
-2
-2
-3
-3
-4
-6
-8
-11
-13
-14
-15
-15
-13
-12
-11
-10
-10
-10
-11
-12
-13
-14
-14
-14
-14
-14
-14
-15
-16
-17
-19
-20
-21
-21
-20
-19
-18
-17
-16
-15
-14
-14
-15
-15
-16
-17
-18
-20
-20
-21
-21
-21
-20
-18
-17
-15
-13
-11
-10
-9
-7
-4
0
5
12
21
32
44
57
69
80
88
91
90
84
72
55
35
13
-9
-29
-46
-58
-65
-67
-65
-60
-53
-45
-38
-31
-26
-22
-19
-17
-16
-15
-14
-13
-13
-12
-12
-12
-12
-12
-12
-12
-12
-11
-11
-10
-9
-9
-9
-9
-9
-10
-10
-10
-10
-9
-7
-5
-3
-2
0
0
0
-1
-2
-3
-4
-4
-4
-3
-1
0
1
2
2
3
3
4
5
6
8
10
11
13
14
14
15
15
16
16
18
20
22
25
28
30
33
35
36
37
37
38
38
38
39
39
40
41
42
43
44
46
47
48
48
49
49
48
47
46
43
41
38
35
33
31
30
29
28
27
26
23
20
15
10
5
1
-1
-3
-3
-2
-1
-1
-1
-1
-3
-4
-6
-7
-8
-8
-8
-7
-7
-8
-9
-11
-13
-14
-15
-14
-13
-11
-8
-6
-4
-4
-5
-6
-8
-11
-12
-12
-11
-8
-5
0
4
7
9
10
8
6
3
0
-3
-4
-4
-3
-1
1
3
5
5
5
4
3
3
3
4
6
8
9
10
10
9
7
4
2
0
-1
-2
-3
-5
-7
-10
-14
-19
-24
-28
-30
-31
-29
-26
-21
-16
-12
-10
-8
-8
-9
-11
-11
-12
-11
-11
-10
-11
-12
-15
-18
-21
-24
-25
-25
-22
-19
-15
-12
-10
-9
-11
-14
-17
-20
-22
-23
-22
-20
-18
-14
-10
-6
0
7
16
28
42
58
75
92
106
117
122
120
111
95
74
48
21
-5
-28
-46
-59
-65
-66
-63
-57
-50
-43
-36
-31
-27
-25
-22
-20
-19
-17
-16
-16
-17
-18
-20
-22
-23
-24
-23
-22
-19
-17
-14
-12
-11
-11
-12
-13
-14
-15
-16
-16
-15
-13
-11
-8
-6
-4
-3
-3
-4
-6
-8
-9
-10
-10
-8
-5
-2
1
4
5
5
3
0
-4
-7
-9
-10
-9
-6
-2
3
7
10
11
12
11
10
10
11
12
16
20
25
30
34
37
39
40
39
39
38
37
36
36
37
38
39
40
42
43
44
44
45
45
45
44
44
43
42
40
38
37
35
32
30
27
25
22
19
15
12
8
5
1
-2
-4
-6
-7
-8
-9
-9
-10
-10
-10
-10
-10
-10
-9
-9
-8
-7
-7
-8
-8
-9
-10
-11
-11
-10
-9
-7
-6
-5
-5
-6
-8
-9
-11
-12
-12
-11
-9
-7
-4
0
2
4
6
6
6
5
4
3
1
0
-2
-3
-5
-6
-6
-6
-5
-4
-2
1
3
5
6
7
8
7
6
5
3
1
-2
-4
-6
-8
-10
-12
-13
-15
-16
-16
-17
-17
-17
-18
-19
-19
-21
-22
-23
-24
-25
-25
-25
-25
-24
-24
-23
-23
-23
-22
-21
-20
-19
-18
-17
-16
-17
-17
-19
-20
-22
-23
-24
-25
-25
-24
-24
-24
-24
-23
-22
-20
-16
-10
-2
8
20
35
51
68
85
100
112
119
119
112
96
73
44
12
-20
-49
-73
-88
-95
-94
-87
-75
-62
-49
-38
-30
-24
-21
-20
-19
-19
-18
-17
-17
-17
-18
-19
-20
-21
-22
-22
-21
-21
-20
-20
-21
-22
-24
-26
-26
-26
-25
-23
-20
-17
-15
-13
-13
-13
-13
-13
-13
-13
-13
-12
-11
-11
-11
-11
-11
-10
-8
-5
-3
0
1
2
0
-2
-6
-9
-11
-11
-10
-6
-1
4
9
12
14
14
13
13
13
14
17
21
26
30
34
36
36
35
33
31
29
29
30
33
37
41
44
47
49
50
50
50
50
49
49
48
46
44
40
36
32
28
25
22
20
19
18
17
16
14
11
7
4
0
-3
-5
-7
-8
-8
-8
-8
-8
-7
-7
-8
-8
-10
-11
-12
-13
-14
-14
-14
-12
-10
-7
-4
-2
-1
-2
-3
-5
-7
-9
-11
-11
-10
-9
-8
-7
-7
-7
-8
-10
-12
-13
-14
-13
-11
-9
-6
-4
-2
-1
-1
-2
-4
-6
-8
-9
-9
-9
-7
-5
-2
1
3
5
6
7
6
5
4
2
2
1
2
4
7
10
13
15
16
16
15
12
8
4
1
-3
-5
-6
-7
-7
-7
-8
-10
-12
-14
-16
-18
-19
-19
-19
-18
-16
-15
-14
-14
-14
-16
-17
-19
-20
-21
-22
-21
-20
-19
-17
-16
-14
-14
-14
-15
-17
-18
-20
-22
-23
-23
-24
-24
-24
-25
-25
-26
-26
-26
-26
-25
-24
-21
-18
-15
-11
-5
2
11
22
37
53
70
86
100
109
112
107
95
75
50
23
-5
-31
-51
-66
-74
-75
-72
-65
-57
-48
-40
-34
-30
-28
-26
-26
-25
-24
-23
-20
-18
-16
-15
-14
-15
-17
-20
-23
-25
-26
-26
-24
-21
-18
-15
-12
-11
-12
-13
-15
-17
-18
-18
-17
-14
-11
-9
-7
-7
-8
-10
-12
-13
-14
-13
-10
-7
-3
0
3
4
3
2
0
-1
-3
-3
-3
-2
-1
0
1
3
5
8
11
14
18
21
23
25
25
25
24
24
24
25
27
30
33
36
38
40
41
42
43
43
44
44
45
47
48
49
49
49
49
47
45
43
40
37
35
33
31
30
29
28
26
23
19
15
10
6
3
1
2
3
5
6
6
5
2
-3
-8
-12
-15
-16
-15
-13
-9
-5
-2
0
0
-1
-4
-6
-9
-10
-10
-9
-8
-6
-5
-5
-4
-5
-5
-5
-4
-4
-3
-3
-3
-4
-6
-9
-11
-13
-14
-14
-13
-11
-8
-6
-5
-4
-4
-5
-6
-6
-6
-6
-5
-3
-2
-2
-2
-2
-3
-4
-4
-4
-3
-2
-2
-1
-1
-2
-3
-4
-4
-3
0
3
7
10
13
14
13
12
9
7
6
6
6
8
9
10
10
8
5
1
-4
-8
-12
-14
-16
-16
-17
-17
-16
-16
-16
-15
-14
-12
-10
-9
-7
-7
-8
-11
-14
-17
-20
-22
-22
-21
-19
-17
-14
-13
-13
-15
-18
-21
-24
-27
-27
-26
-24
-20
-16
-13
-12
-12
-13
-16
-19
-21
-22
-22
-20
-16
-11
-6
0
7
15
24
36
51
69
87
104
118
126
126
117
99
74
44
12
-18
-43
-60
-71
-74
-72
-66
-58
-51
-45
-41
-37
-34
-31
-27
-23
-19
-15
-13
-11
-11
-12
-13
-15
-16
-16
-15
-14
-12
-12
-11
-12
-13
-14
-16
-16
-16
-15
-14
-12
-10
-8
-7
-6
-6
-7
-7
-8
-8
-7
-7
-6
-5
-5
-5
-6
-7
-8
-8
-8
-7
-5
-3
1
4
7
10
11
12
11
9
8
6
5
5
5
7
9
12
16
19
23
27
30
33
36
37
38
39
39
39
40
41
42
45
47
50
52
54
55
56
56
56
56
56
56
55
54
52
50
47
43
39
35
31
27
23
20
16
11
7
3
0
-2
-3
-3
-2
-2
-1
-2
-4
-6
-10
-13
-16
-17
-16
-15
-12
-9
-6
-5
-4
-5
-7
-8
-9
-9
-9
-8
-7
-6
-6
-6
-7
-9
-10
-11
-11
-11
-9
-8
-7
-6
-6
-8
-10
-12
-14
-15
-16
-15
-14
-12
-9
-7
-5
-3
-3
-4
-5
-7
-9
-11
-12
-12
-11
-8
-4
-1
3
5
7
7
5
3
1
-1
-2
-2
-1
1
4
5
7
7
7
6
5
5
6
7
8
9
9
8
5
2
-2
-6
-10
-13
-14
-14
-14
-14
-14
-15
-17
-19
-21
-23
-24
-23
-22
-21
-20
-19
-20
-22
-25
-28
-31
-33
-34
-33
-31
-27
-24
-21
-19
-18
-19
-20
-21
-22
-22
-22
-21
-19
-18
-18
-18
-20
-22
-24
-26
-27
-26
-24
-20
-14
-7
2
12
24
37
52
67
83
96
107
112
111
102
86
63
35
5
-24
-49
-68
-80
-84
-82
-74
-63
-52
-42
-34
-29
-27
-27
-28
-30
-30
-29
-27
-24
-21
-19
-17
-17
-18
-19
-21
-23
-23
-23
-21
-19
-16
-14
-13
-12
-11
-12
-12
-12
-12
-12
-12
-12
-13
-14
-16
-18
-20
-20
-20
-19
-17
-15
-13
-11
-10
-10
-9
-9
-9
-9
-8
-7
-6
-4
-4
-3
-2
-1
0
2
5
8
11
14
16
17
18
18
18
19
21
23
26
29
31
33
34
34
33
33
33
34
35
37
40
42
45
46
48
49
50
50
51
51
50
49
46
42
38
33
29
25
23
21
20
19
18
16
14
10
7
3
0
-2
-4
-5
-5
-5
-5
-6
-7
-9
-10
-11
-12
-12
-13
-13
-13
-13
-13
-13
-13
-13
-12
-11
-10
-9
-8
-8
-9
-10
-11
-12
-13
-13
-13
-12
-11
-10
-9
-9
-9
-9
-9
-10
-10
-10
-10
-9
-8
-7
-6
-5
-4
-4
-4
-5
-6
-7
-7
-7
-6
-4
-2
0
2
3
4
3
2
1
0
0
1
3
5
8
11
13
13
13
12
10
8
6
4
2
1
1
0
-1
-2
-3
-5
-7
-9
-11
-12
-13
-14
-15
-15
-15
-16
-16
-17
-18
-19
-20
-21
-21
-21
-20
-19
-17
-16
-15
-15
-15
-15
-16
-18
-19
-21
-22
-23
-24
-24
-24
-23
-22
-22
-21
-20
-19
-19
-18
-17
-17
-17
-17
-17
-16
-16
-14
-10
-4
4
16
31
48
67
85
101
113
119
117
108
91
68
41
11
-17
-42
-61
-74
-80
-79
-73
-64
-53
-43
-34
-28
-25
-24
-24
-25
-26
-26
-25
-23
-20
-18
-16
-14
-13
-13
-14
-14
-15
-15
-14
-13
-11
-10
-9
-8
-8
-8
-8
-9
-10
-10
-10
-9
-8
-8
-8
-8
-9
-10
-12
-13
-14
-14
-13
-11
-9
-6
-4
-2
-1
0
0
1
1
2
3
5
6
8
8
9
9
9
9
10
11
13
16
19
22
25
27
29
31
33
34
35
36
37
37
37
37
37
37
38
40
43
45
48
50
51
51
50
47
45
42
40
38
38
38
39
39
39
38
35
31
27
22
18
14
11
9
7
6
4
2
0
-2
-4
-6
-7
-7
-7
-7
-7
-7
-7
-8
-8
-9
-9
-9
-8
-7
-6
-5
-5
-5
-5
-7
-8
-9
-10
-10
-10
-10
-9
-9
-9
-9
-9
-9
-8
-7
-6
-5
-4
-3
-3
-4
-5
-6
-7
-8
-8
-7
-5
-2
1
3
5
6
7
6
5
4
4
3
4
5
6
8
9
11
12
12
13
13
12
12
11
11
10
8
7
6
4
2
0
-3
-5
-8
-10
-12
-14
-15
-15
-15
-14
-13
-12
-11
-10
-10
-11
-13
-14
-16
-17
-19
-19
-20
-19
-19
-18
-18
-18
-18
-19
-20
-20
-20
-19
-18
-16
-14
-13
-12
-12
-13
-15
-18
-20
-21
-21
-20
-18
-16
-12
-9
-4
1
8
17
29
45
63
82
101
115
124
124
116
99
75
46
16
-14
-39
-59
-71
-77
-77
-72
-65
-56
-47
-39
-33
-29
-26
-24
-23
-23
-22
-22
-21
-19
-18
-16
-15
-15
-15
-16
-17
-18
-19
-19
-18
-17
-15
-14
-12
-12
-12
-13
-14
-14
-15
-14
-13
-12
-10
-8
-6
-5
-4
-2
-2
-1
0
0
0
0
-1
-3
-4
-6
-6
-6
-5
-3
-1
1
3
4
5
5
5
6
7
8
10
13
15
17
18
19
20
21
22
24
26
29
32
35
38
41
42
43
43
43
43
42
42
43
43
44
45
46
46
46
46
45
44
43
41
40
38
36
35
33
31
29
26
22
18
13
8
3
-3
-7
-10
-13
-13
-12
-10
-7
-4
-1
1
2
2
0
-2
-5
-8
-10
-12
-13
-12
-11
-10
-9
-7
-7
-7
-7
-8
-8
-9
-9
-10
-10
-11
-12
-12
-13
-13
-13
-12
-11
-10
-9
-8
-7
-7
-7
-8
-8
-8
-8
-7
-6
-5
-4
-2
-1
0
1
2
3
4
6
7
8
8
8
7
6
5
4
3
4
5
6
7
8
8
7
5
2
-1
-4
-7
-10
-12
-12
-13
-13
-13
-13
-13
-14
-15
-17
-18
-20
-21
-22
-22
-22
-22
-21
-21
-21
-21
-21
-21
-22
-22
-22
-23
-23
-23
-24
-24
-25
-25
-26
-26
-26
-26
-25
-24
-23
-23
-23
-24
-25
-26
-26
-26
-26
-24
-21
-18
-14
-10
-4
2
10
21
35
51
69
87
103
115
120
116
104
83
55
24
-7
-36
-60
-77
-86
-89
-86
-78
-69
-60
-51
-43
-36
-31
-27
-24
-22
-20
-19
-18
-17
-17
-17
-17
-17
-18
-18
-19
-20
-20
-21
-21
-21
-21
-21
-21
-20
-20
-20
-20
-20
-19
-19
-18
-16
-15
-12
-10
-8
-7
-6
-6
-6
-7
-9
-10
-11
-12
-12
-11
-9
-7
-5
-3
-1
1
2
3
3
4
4
5
6
7
9
11
13
15
16
18
20
21
23
25
27
28
30
31
33
34
36
37
39
41
42
44
45
45
45
44
43
42
41
40
39
39
39
39
38
38
37
35
33
31
28
25
22
18
15
12
10
7
5
3
2
1
-1
-2
-3
-5
-6
-8
-9
-9
-9
-9
-8
-7
-7
-6
-6
-7
-8
-10
-12
-13
-14
-14
-13
-12
-10
-8
-7
-6
-6
-6
-7
-7
-8
-9
-9
-9
-9
-9
-9
-9
-10
-10
-10
-10
-10
-9
-7
-6
-5
-5
-5
-5
-4
-4
-3
-2
0
2
4
5
5
4
3
1
-1
-1
-1
0
3
6
10
13
16
17
17
15
12
9
5
1
-2
-3
-3
-2
-1
0
1
0
-1
-3
-7
-10
-13
-16
-18
-19
-19
-19
-19
-18
-17
-16
-16
-16
-16
-16
-17
-17
-17
-17
-16
-15
-14
-14
-13
-13
-14
-15
-17
-19
-21
-22
-22
-21
-20
-18
-15
-13
-12
-11
-12
-14
-16
-18
-20
-21
-21
-19
-16
-13
-8
-3
4
11
21
32
46
61
77
92
103
110
110
102
88
67
41
15
-11
-33
-50
-61
-65
-63
-57
-50
-41
-33
-26
-21
-18
-16
-15
-14
-13
-13
-13
-13
-13
-13
-13
-14
-14
-14
-14
-13
-13
-12
-12
-12
-12
-12
-12
-12
-11
-11
-10
-9
-9
-8
-8
-8
-8
-8
-8
-8
-8
-8
-7
-7
-7
-7
-6
-6
-6
-5
-4
-2
-1
1
3
4
5
6
6
7
7
7
7
8
9
10
11
12
14
15
17
20
22
24
26
29
30
32
33
33
33
33
32
32
32
33
33
34
35
36
37
38
38
39
39
40
40
40
40
39
38
37
35
32
30
26
23
20
16
13
10
7
5
3
1
0
-1
-2
-2
-3
-3
-4
-5
-6
-8
-10
-11
-12
-12
-12
-12
-11
-10
-8
-7
-7
-6
-6
-6
-6
-6
-7
-7
-7
-7
-7
-8
-9
-10
-11
-12
-12
-13
-13
-12
-11
-10
-8
-6
-4
-3
-2
-3
-4
-6
-8
-10
-12
-13
-13
-11
-9
-6
-3
-1
0
0
-1
-3
-5
-6
-6
-5
-2
2
7
10
13
15
15
14
12
10
7
5
3
2
2
2
1
0
-1
-2
-4
-6
-7
-9
-11
-12
-13
-14
-14
-15
-16
-16
-17
-18
-19
-20
-20
-21
-21
-20
-19
-18
-16
-15
-14
-13
-13
-13
-14
-15
-15
-16
-17
-17
-17
-16
-16
-16
-15
-15
-15
-15
-16
-16
-17
-18
-19
-20
-20
-20
-19
-18
-16
-14
-13
-11
-9
-6
-2
5
15
28
43
59
76
91
101
106
105
97
83
64
42
20
-1
-20
-34
-44
-50
-52
-51
-47
-43
-38
-33
-28
-24
-20
-17
-14
-13
-13
-13
-14
-16
-17
-19
-19
-18
-17
-14
-11
-9
-6
-5
-5
-6
-7
-10
-12
-14
-15
-15
-14
-12
-10
-9
-8
-8
-8
-9
-11
-12
-13
-13
-12
-11
-9
-7
-5
-4
-3
-2
-2
-3
-3
-3
-2
-2
-1
1
2
3
4
6
7
9
10
13
15
17
19
20
21
21
21
21
21
21
22
24
26
28
30
31
31
30
29
28
27
28
29
31
34
37
39
41
41
40
38
36
33
31
31
31
31
31
31
30
27
23
18
12
7
3
0
-2
-2
-2
-3
-3
-4
-6
-9
-11
-13
-14
-14
-13
-12
-10
-9
-8
-7
-8
-9
-10
-12
-12
-12
-12
-11
-10
-8
-8
-8
-8
-9
-11
-12
-13
-14
-14
-13
-12
-11
-10
-10
-10
-11
-12
-12
-13
-12
-12
-10
-9
-8
-8
-8
-9
-11
-12
-14
-15
-15
-15
-14
-13
-11
-10
-9
-8
-7
-7
-7
-8
-9
-10
-11
-11
-12
-12
-12
-11
-10
-9
-7
-6
-5
-5
-6
-7
-8
-9
-10
-9
-9
-8
-6
-5
-3
-2
-2
-2
-2
-2
-1
-1
0
1
2
2
3
3
2
0
-1
-4
-6
-8
-10
-12
-13
-15
-16
-17
-17
-17
-18
-18
-18
-18
-18
-18
-19
-20
-21
-22
-23
-23
-24
-24
-23
-23
-22
-21
-21
-20
-20
-20
-19
-19
-19
-18
-18
-17
-17
-17
-17
-18
-20
-21
-23
-24
-24
-24
-23
-22
-21
-20
-20
-20
-20
-21
-21
-19
-17
-13
-6
1
11
22
33
46
59
71
82
91
96
96
90
78
60
38
13
-12
-34
-51
-62
-66
-65
-59
-51
-42
-35
-30
-28
-27
-28
-29
-30
-29
-27
-24
-21
-18
-16
-15
-15
-15
-16
-16
-17
-17
-17
-17
-18
-18
-19
-19
-19
-18
-17
-16
-15
-14
-13
-14
-15
-17
-18
-20
-21
-21
-19
-17
-14
-11
-8
-5
-4
-3
-3
-4
-5
-6
-6
-6
-6
-6
-6
-6
-7
-7
-8
-8
-8
-7
-5
-2
0
4
7
10
12
13
14
15
16
16
18
19
21
23
25
27
29
31
33
34
35
36
37
37
37
36
36
35
33
32
30
28
27
25
24
22
21
21
20
19
18
16
15
13
10
8
5
2
