3
3
4
4
4
3
3
3
2
2
2
2
3
4
5
7
9
11
12
12
12
10
7
4
0
-2
-3
-3
-1
2
6
11
14
16
16
14
11
7
2
-2
-4
-6
-6
-5
-3
0
2
5
6
7
7
6
5
3
1
0
-2
-2
-3
-3
-2
-2
-1
-1
0
0
1
1
1
1
2
2
2
2
1
-1
-2
-4
-6
-8
-9
-10
-10
-9
-8
-6
-5
-3
-1
0
1
2
2
1
-1
-3
-5
-8
-10
-11
-12
-11
-9
-6
-4
-2
-1
-2
-3
-5
-7
-9
-10
-10
-8
-6
-3
-1
1
2
1
-1
-3
-6
-9
-11
-12
-12
-11
-9
-6
-4
-2
0
1
0
-1
-3
-6
-9
-12
-14
-15
-15
-14
-13
-10
-7
-4
-1
1
2
2
0
-2
-5
-9
-12
-14
-15
-15
-13
-10
-7
-4
-2
-1
-1
-2
-3
-5
-7
-9
-10
-10
-10
-10
-10
-10
-9
-9
-8
-7
-6
-5
-5
-4
-5
-6
-7
-9
-12
-13
-15
-16
-17
-17
-17
-18
-19
-20
-21
-23
-23
-24
-23
-22
-20
-18
-15
-13
-11
-9
-8
-9
-10
-11
-13
-15
-17
-18
-19
-19
-18
-17
-16
-15
-14
-13
-12
-12
-11
-10
-9
-9
-8
-8
-8
-9
-10
-12
-13
-15
-16
-16
-16
-16
-15
-14
-13
-12
-11
-10
-9
-9
-9
-8
-9
-9
-10
-10
-11
-11
-11
-11
-10
-9
-8
-7
-7
-8
-10
-13
-17
-20
-23
-24
-24
-23
-20
-16
-12
-7
-4
-2
-2
-3
-6
-9
-12
-14
-15
-16
-15
-14
-13
-11
-10
-9
-9
-9
-9
-9
-10
-10
-11
-11
-11
-11
-10
-9
-7
-6
-4
-4
-3
-4
-5
-6
-8
-9
-9
-9
-9
-8
-7
-6
-5
-4
-3
-3
-2
-1
0
2
3
4
5
6
6
5
5
4
3
2
1
-1
-3
-5
-8
-11
-14
-16
-17
-16
-15
-12
-9
-6
-4
-4
-5
-7
-10
-14
-17
-20
-20
-20
-18
-15
-12
-10
-9
-9
-10
-12
-14
-16
-18
-20
-20
-21
-21
-20
-19
-17
-12
-3
9
27
49
76
105
135
164
189
210
224
231
230
222
207
185
158
129
97
66
37
12
-8
-22
-32
-37
-39
-39
-37
-36
-34
-33
-33
-31
-30
-27
-24
-21
-18
-16
-14
-13
-12
-12
-12
-12
-12
-11
-11
-10
-10
-10
-10
-10
-10
-10
-10
-9
-9
-8
-8
-7
-6
-6
-5
-5
-4
-4
-3
-3
-3
-3
-3
-2
-2
-2
-1
-1
-1
-1
0
0
0
1
2
3
4
5
7
8
8
8
8
7
6
4
3
4
5
7
11
16
20
25
27
28
28
26
23
19
17
16
17
19
22
27
31
34
36
37
37
36
36
36
36
38
40
43
45
47
49
50
50
50
50
50
50
51
52
52
53
52
52
51
50
50
50
52
54
56
59
60
61
60
58
55
51
47
43
40
37
35
33
31
30
28
25
23
20
18
16
15
13
12
10
8
6
3
0
-2
-4
-4
-3
-2
0
2
3
3
2
1
-1
-3
-4
-5
-4
-3
-2
0
0
0
-1
-2
-4
-5
-6
-7
-7
-7
-8
-9
-10
-11
-12
-13
-12
-10
-8
-5
-2
1
2
2
1
-2
-5
-7
-9
-11
-11
-10
-10
-9
-10
-10
-12
-13
-14
-14
-14
-13
-12
-10
-10
-10
-11
-13
-16
-18
-19
-20
-19
-17
-15
-13
-12
-12
-12
-14
-15
-17
-19
-20
-19
-18
-17
-15
-14
-13
-13
-14
-17
-19
-22
-24
-25
-25
-24
-22
-19
-16
-14
-12
-11
-12
-14
-16
-19
-22
-25
-26
-27
-27
-27
-26
-25
-25
-25
-25
-25
-25
-25
-24
-24
-23
-23
-22
-22
-22
-22
-21
-21
-21
-21
-21
-21
-21
-21
-22
-23
-23
-23
-23
-22
-21
-20
-20
-19
-19
-20
-20
-21
-21
-21
-21
-20
-19
-18
-18
-19
-20
-21
-22
-23
-24
-23
-23
-21
-20
-19
-19
-20
-21
-22
-23
-24
-25
-25
-25
-24
-24
-23
-23
-23
-23
-24
-23
-22
-21
-20
-19
-18
-17
-17
-18
-20
-22
-23
-24
-25
-25
-24
-24
-23
-23
-24
-25
-26
-27
-28
-27
-26
-24
-22
-19
-16
-13
-12
-12
-13
-15
-18
-22
-25
-28
-29
-29
-29
-27
-24
-22
-19
-18
-17
-17
-17
-18
-19
-19
-20
-19
-19
-19
-18
-18
-18
-18
-19
-20
-21
-23
-24
-25
-25
-25
-23
-21
-18
-14
-10
-7
-4
-2
-2
-3
-6
-8
-11
-14
-15
-16
-15
-13
-11
-9
-8
-7
-7
-8
-10
-12
-14
-15
-16
-17
-17
-18
-18
-18
-19
-20
-21
-21
-22
-22
-21
-20
-18
-17
-16
-15
-16
-16
-18
-20
-22
-24
-26
-27
-28
-28
-28
-28
-28
-27
-27
-27
-27
-28
-28
-29
-29
-28
-24
-17
-5
11
31
56
83
111
139
164
185
201
210
214
211
203
189
171
149
124
97
70
43
19
-1
-17
-29
-36
-39
-39
-37
-34
-31
-28
-26
-24
-23
-22
-21
-21
-20
-20
-21
-21
-22
-23
-23
-23
-23
-22
-20
-18
-17
-15
-14
-13
-13
-14
-15
-16
-17
-18
-19
-18
-17
-15
-13
-10
-7
-5
-4
-4
-5
-6
-8
-9
-10
-10
-9
-6
-4
-1
2
4
5
4
4
2
1
0
0
1
2
4
6
8
10
11
11
11
11
11
11
12
14
16
19
21
24
26
28
29
29
29
29
29
29
30
31
33
35
37
40
43
45
47
48
49
50
50
50
50
51
52
54
56
59
62
66
68
71
72
72
71
69
67
65
63
61
60
59
59
59
59
58
58
57
56
55
54
53
51
49
45
42
38
33
29
25
21
17
14
12
10
7
5
3
0
-2
-5
-7
-8
-8
-8
-7
-6
-5
-5
-4
-5
-5
-7
-8
-10
-12
-13
-13
-13
-12
-10
-9
-7
-5
-4
-2
-1
0
1
1
2
1
0
-1
-2
-3
-5
-6
-6
-6
-5
-4
-3
-2
-1
-1
-2
-3
-5
-7
-9
-11
-12
-13
-12
-12
-10
-8
-6
-4
-2
-2
-1
-2
-3
-5
-7
-9
-10
-10
-10
-9
-8
-8
-7
-7
-7
-7
-8
-8
-9
-9
-9
-9
-10
-11
-12
-13
-14
-15
-15
-15
-14
-13
-12
-12
-12
-13
-14
-15
-16
-16
-16
-15
-13
-12
-11
-11
-12
-13
-15
-17
-18
-18
-18
-18
-17
-16
-16
-16
-17
-18
-18
-18
-17
-16
-15
-15
-15
-16
-18
-20
-22
-24
-24
-23
-20
-17
-13
-10
-8
-8
-9
-11
-14
-16
-18
-18
-18
-17
-15
-14
-14
-14
-14
-16
-17
-18
-18
-18
-17
-17
-16
-15
-15
-14
-15
-15
-15
-16
-17
-19
-20
-22
-24
-26
-26
-26
-24
-21
-18
-15
-12
-11
-11
-12
-14
-16
-18
-19
-19
-19
-18
-16
-16
-16
-17
-19
-21
-24
-26
-27
-26
-26
-24
-23
-22
-22
-22
-23
-23
-23
-22
-20
-17
-15
-13
-12
-12
-14
-16
-19
-21
-23
-24
-23
-23
-22
-21
-21
-21
-22
-22
-22
-22
-21
-19
-17
-15
-14
-13
-14
-16
-17
-19
-21
-21
-21
-21
-20
-19
-18
-18
-19
-20
-21
-21
-21
-21
-19
-17
-14
-10
-7
-5
-2
-1
0
0
0
-2
-4
-7
-9
-12
-15
-16
-17
-17
-17
-16
-14
-13
-12
-12
-13
-14
-16
-17
-18
-18
-18
-17
-16
-15
-14
-14
-16
-18
-20
-23
-26
-27
-28
-28
-27
-25
-23
-21
-20
-20
-21
-22
-24
-25
-26
-26
-25
-25
-24
-24
-25
-28
-30
-33
-34
-33
-27
-16
0
22
48
78
109
140
168
192
211
224
229
228
219
204
184
159
132
103
74
47
22
0
-18
-31
-41
-47
-49
-48
-45
-40
-34
-28
-22
-18
-16
-15
-17
-19
-22
-24
-26
-26
-24
-20
-16
-12
-8
-6
-5
-6
-9
-12
-15
-18
-20
-21
-20
-18
-15
-12
-9
-8
-7
-7
-8
-10
-11
-12
-12
-10
-8
-5
-2
0
1
1
-1
-3
-7
-9
-11
-12
-11
-9
-6
-2
2
5
7
9
9
9
9
8
8
8
8
9
10
11
13
15
18
20
22
24
26
27
28
28
28
29
29
30
32
34
36
39
41
44
46
47
49
50
51
53
55
57
60
63
65
68
70
71
72
72
73
73
74
75
76
77
77
77
76
75
73
71
68
65
63
60
58
56
54
52
50
47
46
44
42
40
38
36
33
30
26
22
18
14
11
9
8
7
7
6
4
2
-1
-4
-7
-10
-12
-13
-13
-11
-9
-7
-5
-4
-3
-4
-6
-9
-11
-14
-16
-17
-17
-16
-14
-11
-8
-6
-3
-2
-2
-3
-4
-6
-8
-9
-10
-10
-10
-10
-10
-10
-10
-11
-13
-13
-14
-14
-12
-11
-8
-7
-5
-5
-5
-6
-8
-9
-10
-10
-9
-9
-8
-8
-8
-9
-11
-14
-16
-17
-18
-17
-16
-14
-13
-12
-11
-12
-14
-15
-17
-18
-18
-17
-16
-14
-13
-12
-11
-11
-12
-13
-15
-17
-19
-21
-23
-25
-26
-26
-25
-24
-21
-19
-17
-16
-15
-16
-18
-20
-23
-25
-25
-25
-23
-21
-18
-16
-15
-15
-16
-18
-20
-21
-22
-21
-20
-19
-17
-15
-15
-15
-16
-18
-20
-23
-25
-26
-26
-26
-24
-23
-21
-19
-18
-18
-18
-19
-20
-21
-22
-22
-22
-21
-20
-19
-18
-17
-17
-17
-18
-20
-21
-22
-23
-23
-22
-21
-21
-20
-19
-19
-19
-20
-20
-20
-20
-20
-20
-21
-21
-23
-24
-25
-25
-25
-24
-22
-20
-18
-16
-16
-16
-18
-20
-23
-25
-26
-27
-27
-27
-26
-25
-24
-23
-23
-22
-21
-20
-19
-19
-19
-20
-22
-24
-26
-27
-28
-27
-25
-22
-19
-15
-12
-10
-8
-8
-8
-9
-9
-10
-9
-9
-9
-10
-10
-11
-13
-14
-14
-14
-13
-12
-10
-8
-7
-7
-9
-12
-15
-19
-23
-25
-27
-28
-28
-27
-25
-24
-23
-22
-21
-21
-21
-21
-21
-20
-20
-20
-20
-21
-21
-22
-23
-24
-24
-25
-26
-27
-27
-28
-29
-29
-29
-29
-29
-29
-29
-28
-26
-23
-18
-9
4
21
42
67
94
122
150
174
194
208
216
217
211
198
179
156
128
99
68
39
13
-10
-28
-41
-49
-53
-53
-51
-47
-43
-38
-33
-29
-25
-22
-19
-18
-18
-19
-21
-23
-24
-25
-24
-23
-21
-18
-16
-15
-14
-15
-16
-18
-19
-19
-18
-16
-13
-10
-9
-8
-9
-11
-13
-15
-17
-16
-14
-10
-5
-1
3
4
4
1
-2
-6
-10
-12
-12
-10
-7
-3
1
4
5
4
2
0
-2
-4
-4
-2
2
5
9
13
15
16
15
15
14
15
16
19
23
27
30
32
33
32
29
27
24
23
24
27
31
36
41
46
49
52
53
53
53
52
52
51
51
51
51
51
50
51
51
53
55
58
61
63
66
67
67
66
64
62
59
57
55
54
53
52
52
51
51
49
48
46
43
41
37
33
29
24
19
13
8
5
2
1
2
3
5
6
7
6
4
1
-3
-7
-10
-12
-13
-13
-13
-12
-11
-10
-10
-10
-10
-10
-10
-10
-9
-9
-9
-9
-10
-10
-10
-10
-9
-8
-6
-5
-4
-5
-5
-7
-9
-10
-11
-12
-11
-9
-7
-5
-4
-3
-3
-4
-5
-7
-7
-7
-6
-4
-3
-2
-2
-3
-5
-8
-10
-13
-14
-15
-14
-12
-10
-8
-6
-6
-6
-7
-9
-12
-14
-17
-18
-19
-18
-17
-15
-13
-11
-9
-9
-9
-10
-11
-13
-16
-18
-20
-22
-24
-25
-25
-25
-24
-23
-21
-20
-18
-17
-16
-15
-14
-13
-12
-12
-12
-12
-12
-13
-14
-15
-17
-19
-20
-21
-22
-22
-22
-22
-22
-21
-21
-20
-20
-20
-19
-19
-18
-17
-17
-16
-15
-15
-15
-16
-16
-17
-19
-20
-22
-23
-24
-25
-25
-24
-23
-21
-19
-16
-14
-13
-12
-12
-13
-15
-17
-18
-18
-18
-17
-16
-15
-14
-15
-16
-18
-21
-24
-26
-28
-28
-27
-25
-22
-19
-17
-15
-15
-15
-16
-16
-17
-16
-16
-14
-13
-12
-10
-10
-10
-11
-13
-15
-17
-18
-19
-20
-20
-20
-19
-18
-17
-16
-15
-15
-14
-13
-13
-12
-10
-9
-9
-9
-10
-11
-14
-18
-22
-26
-29
-30
-30
-29
-26
-22
-19
-15
-13
-12
-11
-12
-13
-15
-16
-16
-16
-15
-14
-13
-13
-13
-14
-16
-18
-21
-23
-24
-24
-22
-19
-15
-10
-6
-1
2
5
6
6
5
4
2
0
-2
-5
-6
-8
-9
-10
-10
-9
-7
-5
-3
-1
1
1
0
-2
-4
-8
-11
-14
-16
-17
-16
-16
-14
-13
-12
-12
-12
-13
-14
-16
-17
-18
-19
-19
-19
-19
-19
-19
-20
-20
-21
-22
-24
-25
-27
-28
-30
-30
-31
-30
-29
-27
-24
-19
-13
-5
7
22
40
63
89
116
144
171
194
213
224
229
226
216
200
178
152
123
93
63
34
8
-14
-31
-43
-49
-51
-48
-43
-37
-32
-27
-24
-23
-23
-23
-23
-21
-19
-15
-11
-7
-5
-4
-6
-10
-16
-21
-26
-29
-30
-29
-26
-23
-19
-16
-14
-14
-14
-14
-15
-15
-15
-14
-14
-14
-14
-15
-15
-15
-13
-11
-7
-3
2
6
8
10
10
9
7
5
3
2
2
2
2
3
3
3
2
2
2
3
4
5
6
6
6
6
6
7
8
11
16
21
26
30
34
35
35
34
32
31
30
31
33
37
42
47
51
55
57
59
59
58
57
56
56
56
56
57
57
58
59
59
60
61
63
64
66
68
70
71
72
73
74
74
73
73
72
70
68
66
63
60
56
53
50
47
44
42
39
37
34
31
28
25
22
20
17
14
12
9
6
2
-1
-4
-7
-9
-10
-10
-9
-7
-5
-3
-2
-2
-3
-5
-7
-10
-14
-16
-19
-20
-19
-18
-16
-13
-9
-6
-2
1
3
5
5
5
4
2
0
-2
-4
-6
-7
-7
-6
-5
-4
-4
-3
-4
-4
-5
-6
-7
-7
-7
-7
-6
-6
-6
-7
-9
-10
-12
-12
-11
-10
-7
-4
0
3
4
4
2
-1
-4
-8
-11
-14
-15
-15
-15
-14
-14
-14
-15
-17
-19
-21
-21
-21
-19
-15
-11
-7
-4
-2
-2
-5
-10
-15
-21
-26
-29
-30
-28
-24
-19
-13
-9
-6
-5
-6
-8
-12
-15
-17
-19
-20
-19
-19
-18
-18
-18
-19
-19
-20
-21
-21
-20
-19
-18
-17
-16
-16
-16
-17
-17
-18
-18
-18
-18
-18
-18
-18
-18
-18
-18
-18
-19
-19
-19
-19
-19
-20
-20
-21
-21
-20
-19
-17
-15
-13
-12
-11
-12
-14
-17
-20
-23
-25
-26
-25
-23
-20
-16
-13
-11
-11
-13
-16
-20
-24
-27
-28
-27
-24
-20
-15
-11
-8
-7
-9
-13
-17
-22
-26
-28
-29
-27
-24
-19
-15
-11
-9
-9
-10
-12
-14
-17
-19
-20
-21
-20
-19
-18
-17
-16
-16
-16
-17
-18
-19
-20
-21
-22
-23
-24
-24
-23
-21
-19
-17
-14
-13
-11
-12
-13
-15
-17
-20
-22
-23
-23
-22
-22
-21
-21
-21
-22
-22
-22
-21
-19
-17
-14
-11
-10
-11
-13
-17
-22
-27
-31
-32
-32
-29
-24
-19
-14
-11
-9
-9
-10
-13
-17
-20
-23
-25
-26
-26
-24
-23
-20
-18
-15
-13
-10
-9
-8
-8
-9
-9
-10
-10
-9
-7
-4
-1
1
3
4
2
0
-4
-8
-13
-16
-18
-19
-18
-15
-13
-10
-8
-6
-6
-7
-8
-10
-13
-15
-17
-19
-20
-21
-21
-21
-20
-20
-20
-19
-19
-19
-19
-20
-20
-21
-22
-23
-24
-26
-28
-30
-31
-31
-30
-27
-24
-20
-16
-13
-12
-12
-13
-14
-14
-12
-5
7
25
49
77
109
141
171
197
218
230
235
231
219
201
177
150
121
91
63
36
12
-8
-24
-37
-46
-52
-54
-53
-50
-45
-39
-32
-25
-19
-14
-12
-12
-13
-17
-21
-24
-26
-27
-25
-21
-17
-12
-7
-4
-3
-5
-8
-12
-17
-20
-23
-24
-23
-20
-17
-13
-9
-7
-5
-5
-5
-6
-6
-6
-5
-4
-3
-2
-1
-2
-2
-3
-3
-3
-3
-1
0
1
2
3
3
2
0
-1
-2
-2
-1
1
4
7
11
15
18
20
22
22
22
22
21
19
18
17
16
17
19
23
28
34
39
44
48
51
51
50
48
45
43
41
41
41
43
46
49
51
53
53
53
53
52
52
53
54
57
61
65
68
71
71
71
68
65
62
59
57
56
57
59
62
64
66
65
63
58
52
46
39
33
29
25
23
22
21
19
17
14
10
6
1
-2
-5
-7
-8
-8
-8
-7
-6
-6
-5
-5
-6
-7
-8
-8
-9
-10
-10
-10
-9
-9
-8
-7
-5
-4
-3
-3
-3
-3
-5
-6
-8
-10
-11
-12
-11
-10
-9
-7
-6
-5
-5
-6
-8
-10
-12
-14
-16
-17
-16
-15
-12
-9
-6
-3
0
2
3
3
2
0
-2
-4
-6
-8
-9
-10
-11
-11
-10
-10
-9
-8
-7
-6
-6
-7
-8
-9
-12
-14
-17
-19
-20
-20
-19
-18
-15
-13
-10
-8
-7
-7
-7
-9
-11
-14
-16
-18
-20
-20
-20
-19
-18
-17
-16
-15
-15
-16
-17
-18
-20
-21
-22
-22
-21
-20
-18
-15
-13
-10
-9
-8
-9
-10
-13
-16
-19
-22
-24
-25
-26
-25
-24
-23
-22
-21
-20
-20
-20
-19
-19
-18
-17
-16
-16
-15
-16
-17
-19
-21
-23
-25
-26
-27
-27
-26
-24
-22
-20
-18
-17
-17
-17
-18
-19
-21
-22
-23
-24
-24
-23
-21
-19
-17
-15
-14
-13
-13
-14
-15
-16
-17
-18
-19
-19
-19
-19
-19
-19
-20
-20
-21
-22
-23
-24
-24
-24
-24
-22
-21
-20
-19
-19
-19
-20
-22
-24
-26
-27
-28
-28
-28
-27
-26
-25
-24
-23
-22
-20
-19
-18
-17
-17
-17
-17
-17
-18
-18
-18
-17
-16
-15
-14
-13
-14
-15
-17
-19
-22
-25
-27
-28
-29
-29
-28
-27
-26
-25
-24
-23
-23
-23
-23
-23
-24
-25
-25
-25
-25
-23
-21
-17
-14
-10
-7
-5
-3
-3
-3
-4
-5
-6
-7
-8
-8
-9
-9
-10
-10
-10
-11
-11
-11
-10
-9
-8
-7
-6
-6
-6
-8
-10
-13
-16
-20
-24
-27
-29
-30
-29
-26
-23
-19
-16
-13
-12
-14
-16
-21
-25
-29
-32
-33
-32
-30
-26
-23
-20
-19
-19
-21
-24
-28
-32
-35
-37
-38
-37
-35
-32
-26
-18
-6
9
28
50
76
104
133
160
184
203
217
223
223
217
204
186
163
137
110
81
54
28
4
-15
-30
-41
-47
-49
-48
-45
-41
-36
-31
-26
-22
-19
-15
-13
-11
-9
-9
-9
-10
-13
-16
-19
-22
-24
-25
-25
-23
-20
-16
-13
-10
-8
-7
-7
-8
-9
-10
-11
-12
-12
-11
-11
-11
-12
-12
-13
-12
-12
-10
-7
-4
0
3
5
5
5
3
1
-2
-3
-4
-3
-2
0
2
4
5
6
6
7
8
10
13
17
20
22
24
23
22
19
16
14
12
12
14
18
22
26
30
33
36
37
38
40
41
44
46
49
51
53
53
53
53
52
52
52
54
56
59
62
64
66
67
68
67
67
67
67
67
68
69
69
69
69
68
68
67
67
67
67
66
65
62
58
52
46
39
34
29
27
26
26
27
28
28
26
23
19
13
8
4
0
-2
-3
-3
-3
-4
-5
-7
-9
-11
-13
-13
-13
-11
-10
-8
-7
-7
-7
-8
-9
-10
-10
-10
-9
-7
-5
-4
-3
-3
-4
-5
-6
-7
-7
-7
-6
-5
-3
-2
0
0
0
-1
-2
-4
-5
-7
-8
-8
-8
-7
-5
-3
-2
0
0
0
-1
-3
-6
-8
-11
-13
-14
-14
-13
-11
-9
-7
-5
-4
-3
-2
-3
-3
-4
-4
-5
-6
-7
-8
-9
-9
-9
-9
-9
-9
-9
-9
-9
-9
-9
-10
-10
-10
-9
-9
-8
-8
-8
-9
-11
-12
-14
-16
-17
-17
-16
-15
-14
-12
-11
-10
-11
-12
-13
-15
-17
-18
-19
-20
-20
-20
-19
-17
-15
-13
-11
-8
-7
-6
-6
-7
-10
-13
-16
-18
-19
-19
-17
-14
-11
-8
-5
-4
-4
-5
-7
-10
-11
-12
-12
-11
-10
-9
-9
-11
-13
-16
-18
-20
-21
-21
-20
-17
-15
-13
-11
-11
-12
-14
-16
-17
-18
-17
-15
-12
-10
-7
-6
-5
-7
-9
-11
-14
-16
-16
-15
-13
-11
-8
-6
-6
-7
-9
-12
-15
-18
-19
-19
-17
-15
-12
-10
-8
-8
-9
-11
-13
-15
-17
-18
-18
-18
-18
-17
-17
-16
-15
-14
-12
-10
-8
-7
-6
-7
-8
-11
-14
-17
-20
-22
-23
-23
-22
-20
-18
-17
-16
-15
-15
-15
-15
-15
-15
-15
-14
-15
-15
-16
-16
-17
-17
-17
-16
-15
-14
-13
-12
-12
-13
-14
-16
-17
-17
-17
-15
-13
-11
-9
-8
-8
-9
-12
-14
-17
-20
-21
-21
-21
-19
-18
-17
-16
-16
-17
-18
-19
-20
-21
-21
-21
-20
-20
-20
-20
-20
-20
-19
-19
-18
-16
-15
-14
-13
-13
-14
-15
-17
-18
-19
-19
-19
-19
-17
-16
-15
-15
-15
-15
-15
-16
-16
-17
-16
-16
-16
-15
-15
-14
-13
-13
-12
-12
-12
-12
-12
-12
-12
-12
-12
-11
-11
-9
-8
-7
-6
-6
-5
-5
-5
-6
-6
-7
-7
-8
-9
-9
-10
-10
-10
-9
-9
-8
-8
-9
-10
-11
-13
-14
-15
-16
-16
-15
-15
-15
-15
-16
-17
-18
-19
-19
-18
-17
-16
-15
-15
-16
-17
-19
-22
-24
-25
-26
-25
-25
-24
-24
-25
-27
-29
-31
-32
-30
-25
-16
-2
16
38
63
89
116
142
166
187
203
215
220
220
213
200
181
157
130
101
73
46
22
3
-12
-23
-30
-33
-33
-32
-30
-27
-24
-21
-19
-17
-16
-16
-17
-19
-20
-22
-23
-23
-23
-21
-19
-17
-15
-13
-12
-12
-12
-13
-13
-13
-13
-13
-11
-10
-8
-7
-6
-6
-6
-7
-8
-9
-10
-9
-9
-7
-6
-4
-2
0
0
1
0
0
-1
-1
-1
-1
-1
0
0
1
1
0
0
0
1
3
5
8
11
15
18
21
22
23
23
23
23
22
22
22
23
23
24
25
26
27
28
30
32
34
36
38
39
39
39
39
40
41
43
46
50
54
58
61
63
64
64
64
64
64
65
66
68
69
70
70
70
70
69
69
69
70
71
72
73
73
71
67
61
54
46
39
33
30
29
30
32
36
39
41
41
39
34
28
22
15
8
3
-1
-3
-4
-4
-4
-4
-3
-3
-3
-3
-4
-5
-6
-7
-8
-10
-11
-12
-13
-13
-13
-12
-12
-11
-11
-12
-12
-13
-14
-14
-13
-11
-9
-6
-2
1
3
4
3
1
-3
-7
-11
-14
-16
-15
-13
-10
-6
-2
0
1
0
-4
-8
-13
-17
-20
-21
-20
-17
-14
-10
-7
-5
-4
-5
-7
-10
-12
-15
-16
-17
-16
-14
-12
-9
-6
-4
-2
-1
-2
-5
-8
-13
-17
-21
-24
-25
-24
-22
-20
-18
-16
-16
-17
-19
-22
-24
-25
-24
-22
-20
-17
-14
-13
-13
-15
-18
-21
-24
-25
-26
-25
-22
-19
-17
-14
-13
-13
-14
-16
-18
-20
-21
-22
-23
-23
-23
-23
-23
-24
-24
-24
-24
-24
-23
-22
-21
-19
-18
-17
-16
-16
-17
-18
-20
-22
-24
-25
-26
-26
-25
-24
-22
-20
-20
-20
-21
-22
-24
-25
-26
-25
-24
-22
-19
-17
-15
-15
-15
-16
-17
-18
-19
-19
-18
-17
-17
-17
-19
-22
-25
-28
-31
-33
-32
-30
-27
-23
-20
-17
-15
-15
-16
-17
-19
-21
-22
-22
-23
-22
-22
-22
-21
-21
-20
-19
-17
-15
-14
-13
-14
-15
-17
-20
-22
-24
-25
-25
-23
-21
-18
-16
-15
-15
-16
-18
-20
-22
-23
-23
-22
-20
-18
-16
-15
-14
-15
-17
-18
-20
-21
-21
-21
-20
-19
-17
-16
-15
-15
-16
-16
-18
-20
-22
-24
-25
-26
-26
-26
-25
-23
-21
-19
-18
-17
-17
-17
-16
-15
-12
-10
-6
-3
0
2
2
0
-3
-8
-12
-16
-18
-19
-18
-16
-13
-10
-7
-6
-5
-6
-7
-9
-11
-12
-12
-12
-12
-12
-12
-14
-16
-19
-22
-24
-26
-26
-25
-23
-20
-18
-15
-14
-14
-15
-16
-18
-20
-22
-23
-23
-23
-23
-22
-22
-22
-22
-23
-24
-25
-26
-26
-25
-23
-17
-8
5
22
45
71
101
131
161
187
208
223
230
229
221
207
187
164
138
110
82
54
28
5
-15
-31
-42
-49
-52
-51
-48
-44
-40
-36
-31
-28
-25
-22
-19
-16
-13
-11
-10
-9
-10
-10
-11
-13
-14
-14
-15
-15
-15
-15
-14
-14
-13
-11
-9
-7
-5
-4
-3
-2
-3
-4
-5
-7
-8
-9
-10
-10
-9
-8
-6
-5
-5
-4
-5
-5
-6
-6
-6
-5
-4
-2
0
2
4
6
8
9
10
10
11
11
11
12
12
12
12
12
12
13
15
17
19
22
25
27
28
28
28
27
27
28
30
33
36
40
44
46
48
48
48
47
47
47
49
52
55
58
61
62
62
62
60
59
58
59
60
63
66
69
71
73
73
71
69
67
65
63
61
60
60
59
58
57
55
52
48
44
40
36
32
29
26
23
21
18
16
14
12
11
9
7
5
2
0
-2
-4
-6
-7
-8
-9
-10
-10
-11
-11
-12
-12
-12
-12
-12
-11
-10
-9
-8
-8
-8
-9
-11
-13
-16
-18
-20
-21
-21
-20
-18
-15
-12
-8
-5
-3
-2
-2
-3
-5
-8
-11
-13
-15
-16
-16
-15
-13
-10
-6
-3
0
1
1
0
-3
-7
-11
-14
-18
-19
-20
-19
-17
-15
-12
-10
-9
-9
-9
-11
-13
-15
-16
-18
-19
-20
-21
-21
-21
-20
-19
-17
-15
-14
-12
-11
-11
-12
-14
-16
-18
-19
-20
-19
-18
-16
-14
-13
-13
-14
-16
-19
-21
-24
-25
-25
-25
-25
-24
-24
-24
-24
-24
-24
-24
-23
-22
-21
-20
-20
-21
-21
-22
-22
-21
-20
-17
-14
-11
-9
-9
-11
-15
-19
-24
-28
-31
-32
-31
-29
-26
-23
-21
-20
-21
-22
-24
-25
-27
-27
-27
-26
-25
-24
-22
-21
-20
-20
-19
-19
-19
-19
-20
-20
-20
-21
-21
-21
-21
-20
-19
-19
-18
-18
-18
-19
-20
-22
-24
-26
-27
-27
-27
-26
-25
-23
-21
-19
-18
-18
-18
-19
-20
-21
-22
-23
-23
-22
-20
-18
-17
-16
-16
-17
-18
-21
-23
-25
-26
-26
-25
-24
-22
-20
-19
-19
-19
-19
-19
-20
-19
-18
-16
-13
-10
-7
-5
-3
-3
-3
-5
-8
-11
-14
-17
-19
-20
-19
-18
-16
-14
-11
-9
-8
-7
-7
-7
-8
-9
-10
-12
-14
-16
-18
-19
-21
-22
-22
-22
-22
-22
-22
-22
-23
-25
-27
-28
-29
-29
-27
-25
-22
-19
-16
-15
-15
-16
-19
-23
-27
-30
-33
-33
-33
-31
-29
-27
-24
-20
-16
-9
1
15
33
56
83
111
141
168
191
208
219
222
218
208
191
169
144
117
88
60
34
11
-8
-23
-32
-38
-39
-37
-34
-30
-26
-24
-22
-22
-22
-23
-23
-23
-22
-21
-19
-17
-15
-12
-11
-9
-8
-8
-9
-10
-12
-15
-17
-19
-21
-21
-21
-19
-17
-14
-12
-9
-8
-7
-7
-8
-10
-12
-14
-15
-16
-15
-14
-11
-9
-6
-4
-2
-2
-2
-3
-4
-4
-5
-4
-3
-1
2
4
6
8
9
10
10
10
11
11
12
13
14
14
15
15
15
16
17
19
21
24
27
30
33
34
35
35
34
33
32
32
32
34
38
42
46
51
55
57
59
59
59
59
58
59
60
62
65
67
70
72
73
74
74
73
72
72
71
71
71
72
72
71
69
65
61
55
49
44
40
37
36
36
38
40
41
41
39
35
29
21
12
5
-1
-5
-7
-6
-4
-1
2
4
4
3
1
-1
-4
-7
-10
-12
-13
-14
-15
-16
-18
-19
-20
-20
-20
-19
-17
-15
-13
-10
-8
-7
-6
-6
-7
-8
-9
-9
-10
-10
-10
-10
-10
-9
-9
-8
-8
-9
-9
-10
-11
-11
-11
-11
-10
-9
-7
-5
-3
-2
-2
-4
-6
-9
-14
-18
-21
-24
-25
-25
-23
-20
-17
-14
-12
-10
-10
-10
-11
-12
-13
-13
-13
-12
-10
-8
-7
-6
-6
-7
-8
-10
-13
-14
-16
-17
-18
-18
-18
-19
-20
-21
-22
-23
-24
-24
-24
-23
-22
-21
-20
-20
-19
-20
-20
-20
-21
-21
-21
-21
-21
-21
-21
-22
-22
-22
-22
-21
-20
-19
-17
-15
-14
-14
-14
-15
-16
-18
-19
-19
-19
-19
-19
-19
-19
-20
-22
-24
-26
-28
-29
-28
-26
-24
-21
-19
-18
-18
-19
-21
-23
-26
-27
-28
-27
-26
-25
-23
-23
-23
-23
-24
-25
-25
-24
-22
-20
-17
-14
-12
-11
-10
-10
-11
-12
-13
-14
-15
-15
-17
-18
-21
-23
-26
-28
-30
-31
-30
-28
-25
-22
-19
-17
-15
-15
-15
-17
-19
-21
-22
-24
-25
-25
-24
-23
-21
-20
-18
-16
-16
-16
-16
-18
-20
-23
-25
-27
-28
-27
-26
-24
-22
-19
-18
-17
-17
-18
-19
-19
-20
-20
-19
-19
-19
-19
-19
-20
-22
-23
-23
-23
-21
-19
-16
-12
-8
-5
-3
-2
-2
-4
-6
-9
-12
-15
-18
-19
-19
-18
-16
-13
-9
-5
-2
0
1
0
-2
-5
-9
-12
-15
-17
-18
-18
-18
-19
-20
-21
-23
-26
-28
-30
-31
-31
-30
-28
-26
-23
-21
-19
-18
-18
-19
-20
-21
-23
-25
-27
-29
-31
-34
-36
-37
-37
-36
-32
-25
-14
1
21
44
71
99
128
156
181
201
216
225
227
222
211
194
172
146
118
89
61
35
12
-7
-21
-31
-37
-39
-39
-37
-33
-30
-27
-25
-23
-22
-21
-21
-21
-22
-22
-23
-23
-23
-22
-21
-19
-17
-14
-12
-10
-8
-7
-8
-9
-11
-13
-15
-16
-16
-14
-12
-9
-6
-5
-5
-7
-10
-14
-17
-20
-20
-19
-16
-11
-6
-1
3
4
5
3
2
0
-1
-1
0
2
4
5
6
6
5
4
3
4
5
8
11
15
19
22
23
23
22
20
18
17
16
17
18
21
24
28
31
35
38
41
43
45
46
46
47
47
47
47
47
49
50
53
56
59
62
65
68
71
73
73
73
73
71
69
67
66
65
65
66
68
70
71
72
72
71
69
66
63
60
58
57
56
55
53
51
47
43
37
30
24
19
15
13
12
12
13
13
12
10
7
4
1
-1
-3
-4
-5
-5
-5
-5
-6
-6
-7
-6
-6
-4
-2
-1
0
0
-1
-3
-6
-10
-13
-15
-16
-15
-13
-10
-6
-4
-2
-1
-2
-3
-5
-8
-9
-10
-9
-8
-6
-3
0
3
4
5
5
5
3
1
-1
-3
-4
-6
-7
-8
-9
-10
-11
-12
-13
-14
-15
-15
-15
-14
-13
-12
-12
-12
-12
-12
-12
-12
-12
-12
-12
-12
-12
-13
-15
-17
-20
-23
-24
-25
-25
-23
-21
-18
-15
-13
-13
-14
-16
-19
-22
-25
-27
-28
-28
-27
-25
-23
-20
-18
-16
-14
-12
-10
-9
-7
-6
-5
-5
-6
-8
-10
-13
-16
-18
-20
-21
-22
-22
-22
-22
-23
-25
-27
-29
-31
-33
-33
-33
-31
-27
-24
-20
-17
-16
-17
-19
-22
-25
-29
-31
-31
-30
-26
-22
-17
-13
-10
-8
-8
-10
-13
-17
-21
-25
-28
-31
-32
-33
-32
-30
-27
-24
-21
-18
-16
-15
-14
-15
-15
-16
-16
-17
-17
-16
-17
-18
-20
-23
-27
-30
-33
-34
-33
-31
-27
-22
-17
-14
-13
-13
-16
-19
-23
-26
-27
-27
-26
-23
-20
-17
-15
-14
-15
-16
-19
-22
-25
-27
-28
-29
-28
-27
-26
-23
-21
-20
-18
-18
-18
-19
-20
-22
-23
-25
-25
-25
-25
-23
-21
-19
-17
-14
-12
-10
-9
-8
-7
-7
-8
-8
-9
-9
-9
-9
-8
-7
-6
-6
-5
-6
-7
-9
-12
-16
-19
-23
-26
-28
-29
-29
-28
-26
-22
-19
-15
-12
-10
-10
-11
-13
-16
-19
-22
-24
-25
-24
-23
-21
-18
-17
-17
-18
-20
-23
-27
-30
-32
-34
-34
-33
-32
-30
-28
-27
-26
-25
-23
-20
-15
-8
2
17
35
56
80
106
133
158
180
198
209
213
209
197
179
155
127
98
68
40
14
-8
-26
-40
-50
-57
-60
-60
-57
-53
-46
-39
-32
-26
-20
-16
-13
-12
-12
-13
-15
-18
-20
-22
-23
-24
-23
-22
-20
-18
-14
-11
-8
-6
-5
-5
-6
-8
-10
-12
-14
-15
-15
-15
-14
-13
-12
-11
-10
-9
-8
-6
-5
-3
-1
0
0
-1
-2
-5
-7
-9
-10
-9
-6
-2
3
8
13
16
18
18
16
13
11
8
7
6
7
8
11
13
15
17
19
20
21
22
23
24
26
28
31
33
35
37
38
38
38
37
36
35
36
37
40
45
51
57
64
71
76
79
80
79
76
72
67
63
59
57
56
56
58
60
62
64
66
68
68
69
68
67
65
62
58
54
49
45
42
39
37
35
34
33
31
29
25
21
16
11
7
4
2
0
-1
-2
-3
-4
-6
-7
-8
-9
-9
-9
-8
-7
-6
-5
-5
-5
-5
-5
-5
-6
-6
-6
-7
-8
-10
-11
-13
-13
-13
-12
-10
-8
-6
-4
-3
-2
-3
-4
-5
-7
-8
-9
-11
-12
-13
-14
-15
-16
-16
-16
-15
-13
-12
-10
-8
-7
-7
-6
-6
-6
-5
-5
-4
-4
-4
-6
-8
-11
-14
-18
-20
-22
-22
-21
-18
-14
-10
-6
-4
-3
-4
-7
-11
-16
-20
-24
-26
-27
-26
-24
-21
-18
-15
-12
-11
-11
-12
-14
-17
-20
-22
-24
-25
-26
-25
-23
-21
-19
-17
-15
-14
-13
-14
-14
-16
-17
-19
-21
-22
-24
-25
-25
-26
-26
-26
-25
-25
-25
-24
-24
-23
-22
-22
-21
-21
-21
-21
-21
-20
-19
-18
-16
-14
-12
-10
-8
-8
-8
-8
-10
-13
-16
-20
-24
-27
-29
-30
-31
-30
-29
-27
-25
-23
-21
-18
-16
-14
-12
-11
-10
-10
-11
-13
-14
-16
-17
-17
-16
-15
-12
-10
-7
-5
-3
-1
0
0
0
-1
-2
-4
-6
-8
-11
-14
-17
-20
-23
-24
-26
-27
-27
-26
-25
-24
-21
-19
-17
-15
-15
-16
-18
-21
-25
-29
-33
-35
-35
-33
-30
-27
-24
-23
-23
-25
-28
-32
-36
-39
-39
-38
-34
-26
-16
-3
13
32
53
76
100
124
145
164
177
185
186
182
172
157
140
120
100
79
59
39
20
2
-14
-28
-39
-47
-51
-53
-51
-48
-42
-36
-31
-26
-22
-20
-19
-19
-19
-19
-20
-21
-22
-22
-24
-25
-26
-27
-28
-28
-27
-26
-25
-23
-22
-22
-22
-23
-24
-24
-24
-23
-20
-17
-12
-8
-4
-3
-4
-6
-10
-15
-19
-22
-22
-19
-15
-9
-3
2
6
7
6
3
0
-4
-7
-9
-9
-8
-7
-5
-3
-1
0
3
5
7
9
11
12
12
11
10
8
6
5
5
7
9
13
16
20
23
25
27
28
30
32
35
38
41
43
45
46
46
45
45
45
46
47
50
53
55
57
57
57
55
53
51
50
50
52
54
57
59
61
61
60
58
55
50
46
42
38
35
32
29
26
23
21
19
17
16
15
14
13
12
11
8
4
0
-5
-9
-13
-16
-18
-18
-17
-15
-13
-11
-10
-10
-11
-12
-14
-16
-18
-19
-20
-20
-19
-18
-17
-16
-15
-15
-14
-14
-13
-12
-11
-10
-10
-10
-10
-11
-12
-14
-15
-15
-15
-14
-13
-12
-12
-11
-11
-12
-12
-13
-12
-10
-8
-6
-4
-4
-5
-8
-12
-17
-23
-27
-29
-29
-26
-22
-16
-10
-5
-2
0
-1
-4
-8
-12
-15
-18
-19
-20
-19
-18
-16
-15
-13
-13
-13
-14
-15
-17
-18
-20
-21
-22
-22
-22
-20
-19
-18
-17
-16
-16
-17
-18
-19
-20
-21
-22
-22
-22
-22
-23
-23
-23
-23
-23
-23
-22
-20
-19
-17
-16
-15
-16
-17
-19
-21
-23
-24
-25
-25
-24
-23
-22
-21
-20
-21
-23
-25
-27
-28
-29
-28
-26
-23
-19
-15
-12
-11
-10
-11
-14
-17
-20
-23
-24
-23
-21
-17
-13
-9
-5
-3
-2
-2
-3
-5
-7
-8
-9
-10
-10
-10
-10
-11
-12
-14
-16
-19
-20
-21
-21
-21
-19
-18
-17
-18
-19
-22
-25
-29
-33
-35
-36
-35
-32
-28
-23
-19
-16
-15
-17
-20
-25
-30
-35
-38
-40
-41
-39
-37
-35
-32
-28
-24
-18
-10
2
18
38
63
90
118
145
170
190
204
211
212
205
192
174
152
128
103
77
52
30
9
-8
-22
-33
-40
-45
-46
-45
-43
-39
-36
-33
-31
-30
-30
-31
-32
-33
-32
-30
-27
-23
-18
-14
-10
-8
-8
-9
-11
-13
-16
-18
-19
-19
-19
-18
-18
-17
-18
-18
-20
-22
-23
-24
-24
-23
-21
-18
-15
-11
-7
-4
-2
-2
-2
-3
-5
-7
-8
-10
-10
-10
-9
-9
-8
-7
-6
-5
-4
-2
-1
1
4
6
7
8
9
9
10
10
11
13
16
18
20
22
23
23
22
20
19
18
18
19
21
24
28
31
35
38
41
43
45
46
47
48
49
50
51
52
53
54
55
56
57
58
57
57
56
55
53
52
52
52
52
53
54
55
56
56
55
52
49
46
42
37
33
28
24
19
16
12
9
7
6
5
4
3
2
1
-1
-3
-5
-8
-10
-11
-12
-12
-12
-13
-13
-14
-15
-16
-16
-16
-15
-14
-12
-10
-9
-9
-11
-13
-17
-21
-25
-28
-29
-28
-26
-22
-18
-13
-9
-6
-4
-2
-2
-3
-5
-8
-11
-14
-18
-20
-22
-22
-21
-18
-14
-10
-7
-5
-5
-7
-10
-14
-18
-21
-24
-25
-24
-23
-21
-18
-17
-15
-15
-14
-14
-14
-13
-12
-12
-11
-11
-11
-12
-14
-17
-19
-21
-23
-23
-23
-22
-20
-18
-17
-16
-15
-16
-17
-19
-21
-22
-23
-23
-22
-21
-19
-16
-14
-13
-13
-14
-15
-17
-19
-21
-22
-23
-24
-24
-23
-23
-22
-22
-22
-23
-23
-23
-23
-23
-23
-23
-22
-22
-21
-20
-19
-18
-17
-16
-16
-16
-17
-18
-21
-23
-26
-28
-29
-29
-27
-24
-21
-16
-12
-8
-5
-3
-3
-3
-5
-7
-9
-11
-12
-13
-13
-13
-13
-13
-12
-12
-11
-10
-9
-9
-8
-7
-7
-8
-10
-13
-17
-20
-23
-25
-26
-26
-25
-23
-22
-21
-20
-21
-22
-24
-26
-27
-28
-27
-25
-23
-20
-16
-14
-13
-13
-15
-17
-21
-25
-28
-31
-32
-32
-31
-29
-27
-26
-24
-23
-20
-16
-9
2
17
38
61
88
114
140
162
179
191
197
197
191
181
166
149
128
105
80
55
30
7
-12
-28
-40
-47
-49
-48
-44
-38
-31
-25
-19
-14
-11
-9
-8
-8
-10
-12
-14
-17
-20
-22
-23
-23
-23
-22
-21
-19
-18
-17
-17
-17
-17
-18
-18
-18
-18
-17
-16
-15
-13
-10
-8
-5
-3
-1
0
0
-1
-3
-6
-8
-11
-13
-13
-12
-10
-6
-2
2
6
8
9
8
6
3
0
-2
-3
-4
-3
-2
-1
1
3
6
8
12
15
19
22
25
27
28
27
26
24
22
21
20
21
23
26
29
33
37
41
45
47
49
50
51
50
49
48
47
46
47
49
52
56
60
64
67
69
70
69
67
66
65
64
65
66
67
68
67
66
63
60
55
51
47
44
42
40
38
35
32
28
24
19
14
10
7
5
5
5
5
5
5
4
2
-1
-3
-6
-9
-11
-12
-13
-13
-13
-12
-11
-10
-8
-7
-6
-6
-5
-5
-5
-6
-7
-8
-10
-12
-14
-15
-17
-17
-17
-15
-13
-10
-7
-4
-1
1
2
1
0
-1
-3
-5
-7
-8
-10
-11
-12
-14
-15
-17
-18
-18
-18
-15
-12
-8
-4
-1
2
2
1
-2
-5
-8
-11
-12
-13
-12
-11
-10
-9
-10
-12
-15
-18
-21
-22
-22
-20
-17
-13
-10
-7
-5
-5
-6
-8
-11
-14
-17
-18
-19
-19
-18
-17
-15
-14
-13
-12
-11
-10
-9
-9
-9
-9
-10
-12
-14
-16
-17
-19
-19
-19
-18
-16
-15
-14
-14
-14
-16
-18
-20
-21
-22
-22
-21
-19
-16
-14
-12
-12
-12
-13
-14
-17
-19
-21
-22
-23
-24
-24
-23
-22
-20
-18
-16
-13
-10
-7
-6
-5
-6
-9
-13
-17
-21
-25
-28
-29
-29
-28
-25
-22
-19
-16
-14
-13
-11
-10
-8
-7
-5
-4
-3
-3
-5
-7
-11
-15
-18
-22
-24
-25
-24
-22
-20
-17
-14
-13
-11
-11
-11
-12
-13
-13
-13
-14
-14
-15
-16
-18
-20
-22
-24
-24
-23
-21
-18
-14
-11
-9
-9
-10
-12
-16
-19
-23
-25
-25
-24
-21
-18
-13
-10
-7
-6
-5
-6
-8
-11
-13
-15
-17
-19
-21
-22
-24
-25
-26
-26
-25
-23
-20
-16
-12
-8
-6
-4
-5
-7
-10
-14
-17
-20
-22
-23
-24
-24
-24
-24
-25
-25
-25
-25
-23
-21
-18
-14
-11
-9
-8
-9
-12
-15
-19
-22
-23
-23
-21
-18
-14
-10
-7
-6
-5
-5
-6
-6
-6
-5
-4
-3
-2
-2
-2
-4
-7
-9
-11
-13
-13
-12
-10
-8
-6
-5
-4
-4
-5
-7
-9
-10
-12
-13
-14
-15
-15
-15
-15
-14
-13
-11
-9
-8
-8
-9
-11
-14
-19
-24
-28
-31
-33
-32
-30
-27
-23
-19
-15
-13
-11
-11
-13
-15
-19
-23
-28
-32
-35
-37
-35
-30
-20
-4
16
41
68
96
124
150
172
189
202
209
211
208
200
188
171
150
127
101
73
47
22
1
-16
-29
-38
-42
-44
-42
-40
-36
-32
-28
-24
-20
-17
-15
-14
-14
-15
-17
-19
-20
-21
-21
-20
-18
-15
-13
-12
-11
-12
-14
-17
-20
-22
-22
-22
-20
-17
-14
-10
-8
-8
-9
-11
-14
-17
-19
-20
-19
-17
-13
-9
-5
-1
0
1
0
-2
-4
-5
-6
-6
-4
-2
0
2
4
5
6
6
7
8
9
10
11
12
11
11
10
10
10
11
12
15
18
21
24
26
27
27
27
28
29
31
34
37
39
41
42
41
41
40
40
42
44
48
53
57
61
63
63
62
59
57
55
54
55
57
60
63
66
68
69
69
68
68
67
66
66
65
65
64
63
60
57
53
49
45
41
37
33
30
28
26
25
24
23
23
22
21
19
16
13
9
6
3
2
1
1
1
1
0
-1
-3
-5
-8
-9
-10
-8
-6
-3
1
3
5
5
3
0
-4
-7
-10
-12
-13
-14
-13
-12
-11
-10
-9
-7
-5
-3
-1
1
2
2
1
-1
-4
-6
-9
-11
-12
-12
-10
-8
-5
-1
1
3
4
4
2
0
-3
-7
-10
-13
-15
-16
-16
-15
-13
-10
-7
-5
-3
-3
-4
-7
-10
-13
-15
-17
-18
-18
-16
-14
-12
-11
-10
-9
-10
-11
-13
-15
-17
-18
-18
-18
-17
-16
-16
-16
-16
-17
-19
-20
-21
-22
-21
-19
-17
-13
-10
-8
-7
-7
-9
-12
-16
-20
-23
-25
-25
-24
-22
-19
-16
-14
-12
-12
-13
-15
-18
-21
-24
-26
-27
-27
-26
-23
-20
-17
-14
-11
-10
-10
-11
-12
-14
-16
-17
-18
-18
-18
-18
-17
-17
-16
-16
-16
-17
-18
-20
-21
-22
-23
-23
-22
-21
-20
-18
-16
-15
-13
-13
-13
-13
-13
-14
-14
-15
-15
-16
-17
-17
-19
-20
-21
-22
-22
-23
-23
-23
-23
-23
-23
-22
-22
-21
-20
-19
-17
-16
-14
-13
-12
-12
-13
-15
-17
-20
-21
-22
-22
-21
-18
-16
-13
-11
-10
-10
-11
-13
-16
-19
-22
-24
-26
-26
-26
-25
-23
-21
-19
-17
-16
-15
-15
-16
-18
-20
-22
-23
-24
-25
-24
-22
-20
-18
-16
-14
-14
-15
-17
-19
-21
-22
-22
-22
-20
-18
-15
-13
-12
-11
-12
-14
-16
-18
-20
-21
-21
-21
-20
-19
-18
-18
-17
-17
-16
-14
-12
-10
-7
-6
-4
-4
-5
-7
-9
-12
-14
-15
-15
-15
-14
-12
-10
-9
-7
-7
-7
-7
-8
-9
-10
-11
-11
-11
-10
-10
-9
-9
-9
-10
-12
-14
-17
-20
-22
-23
-23
-22
-21
-19
-18
-18
-19
-20
-22
-23
-23
-23
-21
-19
-16
-14
-13
-14
-16
-19
-22
-26
-29
-32
-33
-34
-33
-32
-29
-23
-14
0
18
42
71
102
136
168
197
221
238
247
247
239
224
203
177
148
117
86
57
29
6
-14
-28
-38
-43
-45
-43
-39
-33
-28
-23
-19
-16
-15
-16
-18
-19
-21
-22
-22
-21
-19
-17
-15
-14
-15
-16
-18
-21
-23
-24
-23
-21
-18
-14
-10
-7
-6
-6
-7
-9
-11
-13
-13
-13
-11
-9
-6
-4
-2
-1
0
0
0
0
-1
-1
-1
-1
-1
-1
-1
0
1
2
2
3
3
4
3
3
3
3
4
5
8
12
15
19
23
25
27
28
28
27
26
26
27
28
30
33
35
38
40
42
42
42
42
41
41
41
42
44
47
51
55
59
63
65
67
67
65
63
61
59
58
58
60
62
65
69
71
73
74
73
72
71
69
68
68
67
67
66
63
60
56
51
46
41
37
35
34
33
33
32
30
27
22
16
10
5
0
-2
-3
-2
0
3
5
7
7
6
4
2
-1
-4
-6
-8
-9
-10
-10
-10
-10
-9
-8
-7
-5
-4
-2
-1
-1
-2
-4
-6
-9
-12
-15
-16
-17
-16
-14
-12
-9
-6
-4
-2
-1
0
0
0
-1
-2
-5
-7
-11
-14
-17
-19
-20
-20
-18
-15
-12
-8
-6
-4
-4
-6
-8
-10
-13
-15
-17
-18
-19
-19
-19
-19
-20
-20
-20
-20
-19
-18
-16
-14
-12
-11
-10
-11
-12
-14
-17
-19
-21
-22
-22
-22
-21
-20
-20
-20
-20
-21
-22
-23
-24
-25
-25
-25
-24
-23
-22
-21
-21
-21
-21
-22
-22
-23
-24
-25
-26
-27
-27
-26
-25
-23
-21
-19
-18
-17
-16
-17
-18
-19
-21
-21
-22
-22
-22
-21
-21
-22
-23
-25
-27
-28
-29
-30
-29
-28
-26
-24
-23
-22
-21
-21
-21
-21
-22
-22
-22
-23
-24
-25
-26
-26
-27
-26
-25
-22
-19
-16
-14
-13
-13
-15
-18
-21
-25
-27
-29
-28
-27
-24
-21
-18
-16
-15
-16
-17
-20
-22
-25
-27
-28
-28
-28
-28
-27
-26
-25
-23
-21
-19
-17
-15
-14
-15
-16
-18
-21
-24
-26
-28
-28
-26
-24
-21
-19
-18
-17
-18
-20
-22
-24
-26
-28
-28
-27
-26
-24
-21
-19
-16
-14
-12
-11
-10
-10
-10
-11
-11
-11
-12
-12
-12
-12
-13
-13
-14
-14
-14
-14
-14
-13
-11
-9
-8
-7
-6
-7
-9
-12
-14
-17
-20
-21
-22
-23
-23
-23
-24
-25
-27
-29
-30
-31
-31
-31
-29
-27
-25
-23
-21
-20
-19
-19
-20
-21
-23
-24
-25
-26
-27
-28
-29
-29
-30
-31
-32
-33
-32
-30
-24
-14
1
21
46
76
107
139
168
193
212
223
226
221
209
191
168
142
115
86
58
32
9
-12
-28
-40
-49
-54
-56
-55
-52
-49
-44
-39
-35
-31
-27
-24
-22
-21
-20
-19
-19
-19
-19
-20
-20
-20
-20
-21
-21
-20
-20
-19
-18
-17
-15
-14
-13
-13
-12
-12
-12
-12
-12
-12
-12
-12
-13
-13
-13
-13
-13
-12
-10
-8
-6
-3
-1
1
3
3
3
2
1
-1
-2
-3
-3
-3
-2
-1
0
2
4
5
7
9
10
12
13
14
14
14
15
15
15
16
17
19
21
24
28
32
36
39
41
43
44
43
42
40
38
36
34
33
33
35
37
40
44
49
55
60
66
70
73
74
74
71
67
63
57
53
49
48
48
50
54
58
63
67
69
70
69
66
61
56
50
44
38
33
29
26
23
20
18
15
13
10
7
4
2
0
-1
-1
0
0
1
1
1
-1
-3
-6
-9
-13
-15
-17
-18
-18
-17
-15
-14
-12
-10
-8
-7
-6
-5
-4
-4
-4
-4
-5
-7
-9
-11
-12
-13
-14
-13
-11
-9
-8
-6
-6
-6
-7
-9
-10
-12
-13
-13
-13
-12
-11
-11
-11
-12
-13
-15
-16
-17
-18
-18
-17
-16
-15
-14
-13
-12
-12
-13
-14
-15
-16
-17
-18
-18
-17
-16
-15
-14
-14
-14
-15
-16
-17
-18
-19
-19
-19
-19
-19
-20
-21
-22
-24
-25
-26
-26
-25
-24
-21
-19
-17
-16
-16
-17
-20
-22
-25
-26
-27
-27
-26
-25
-23
-22
-22
-22
-23
-24
-25
-25
-24
-23
-21
-19
-18
-17
-17
-18
-20
-22
-23
-25
-25
-25
-24
-23
-22
-21
-21
-22
-23
-25
-26
-27
-27
-27
-26
-24
-22
-21
-20
-19
-20
-21
-22
-24
-25
-26
-26
-25
-23
-22
-20
-20
-20
-22
-24
-27
-30
-32
-34
-34
-33
-30
-27
-24
-21
-19
-18
-19
-19
-21
-22
-22
-22
-20
-17
-13
-9
-5
-3
-1
-1
-2
-4
-6
-9
-11
-12
-12
-12
-11
-10
-10
-10
-11
-13
-15
-16
-18
-18
-17
-16
-15
-14
-13
-13
-13
-14
-16
-17
-18
-19
-20
-20
-21
-22
-23
-25
-27
-29
-29
-29
-27
-24
-20
-17
-14
-12
-12
-15
-18
-23
-28
-32
-35
-37
-37
-35
-32
-29
-26
-21
-15
-6
6
22
44
69
99
130
161
189
212
229
238
238
230
215
193
167
137
106
76
47
21
-1
-19
-33
-42
-47
-50
-49
-47
-43
-38
-33
-29
-25
-23
-21
-20
-21
-21
-21
-21
-20
-19
-16
-14
-11
-9
-8
-9
-10
-12
-14
-16
-17
-17
-16
-14
-12
-10
-8
-7
-8
-9
-11
-13
-15
-15
-15
-13
-11
-8
-5
-2
1
3
4
4
4
4
3
3
3
3
3
4
4
5
5
6
8
9
10
11
12
12
12
12
13
14
15
17
19
22
24
26
27
27
27
26
25
25
26
28
30
33
37
40
42
43
44
44
45
45
45
46
47
49
51
53
56
58
60
62
64
64
65
65
65
64
64
64
64
63
63
63
62
61
59
58
56
55
54
53
52
50
48
46
43
39
35
31
27
24
21
18
15
13
10
8
5
3
1
0
-1
-2
-2
-3
-4
-5
-7
-8
-10
-12
-12
-13
-12
-11
-9
-7
-6
-5
-4
-4
-4
-5
-6
-7
-7
-8
-8
-8
-8
-7
-7
-6
-5
-4
-3
-2
-2
-2
-2
-3
-5
-6
-8
-10
-11
-13
-14
-15
-15
-15
-15
-14
-13
-12
-11
-9
-8
-7
-7
-7
-7
-8
-9
-11
-12
-13
-15
-16
-16
-17
-16
-15
-14
-12
-11
-9
-8
-7
-8
-9
-11
-13
-15
-16
-17
-17
-16
-15
-14
-14
-14
-15
-17
-20
-22
-24
-25
-25
-23
-21
-19
-16
-15
-14
-14
-15
-16
-17
-18
-18
-18
-16
-15
-14
-13
-14
-15
-17
-20
-22
-23
-23
-22
-20
-17
-15
-13
-12
-12
-13
-15
-17
-19
-21
-22
-22
-23
-23
-23
-22
-22
-21
-20
-19
-18
-18
-18
-19
-20
-22
-24
-25
-25
-25
-23
-21
-19
-16
-15
-14
-15
-17
-20
-22
-24
-24
-23
-21
-19
-16
-13
-12
-11
-12
-14
-16
-17
-18
-18
-17
-16
-16
-15
-15
-17
-18
-20
-22
-23
-25
-25
-25
-25
-25
-25
-25
-25
-25
-25
-24
-23
-22
-21
-20
-20
-20
-21
-21
-22
-22
-21
-20
-18
-16
-14
-13
-13
-14
-16
-18
-21
-24
-26
-27
-27
-26
-25
-23
-21
-19
-18
-17
-16
-17
-17
-18
-19
-19
-20
-19
-19
-18
-17
-17
-17
-18
-19
-20
-21
-22
-23
-22
-22
-21
-21
-22
-23
-25
-27
-29
-29
-29
-27
-24
-19
-14
-9
-6
-4
-3
-4
-5
-7
-10
-11
-13
-13
-14
-13
-13
-12
-11
-9
-8
-6
-4
-3
-2
-2
-4
-5
-8
-10
-12
-13
-13
-13
-12
-11
-11
-12
-14
-17
-20
-23
-25
-26
-26
-26
-24
-23
-21
-20
-20
-20
-21
-21
-21
-21
-21
-20
-20
-20
-21
-22
-24
-26
-28
-30
-31
-31
-31
-30
-27
-23
-16
-7
7
25
47
73
101
130
158
182
202
216
222
221
214
200
181
158
133
106
80
54
30
10
-7
-20
-29
-35
-37
-36
-34
-31
-27
-25
-23
-22
-22
-22
-23
-24
-24
-23
-22
-20
-18
-17
-16
-16
-17
-19
-21
-23
-25
-25
-24
-22
-19
-16
-14
-12
-10
-10
-10
-11
-12
-12
-12
-10
-8
-6
-3
-1
1
3
3
3
2
0
-3
-5
-7
-8
-8
-7
-5
-3
0
2
4
5
5
4
3
1
0
0
1
2
5
8
11
13
16
17
18
18
18
19
20
21
23
25
27
29
30
31
32
33
34
36
39
42
45
48
51
53
53
53
51
50
48
47
47
49
51
54
58
62
65
68
70
71
71
71
69
68
66
63
61
60
59
58
58
59
60
60
61
61
59
57
54
49
45
40
35
31
28
25
24
23
22
20
19
17
14
11
8
5
3
1
0
0
0
0
0
-1
-1
-3
-5
-7
-8
-10
-10
-11
-10
-10
-10
-10
-10
-10
-11
-12
-12
-11
-10
-8
-5
-2
1
3
4
4
3
1
-2
-5
-8
-10
-11
-11
-9
-7
-4
-2
0
0
0
-1
-2
-3
-4
-4
-3
-2
-1
-1
-2
-4
-7
-10
-14
-16
-17
-17
-15
-12
-8
-5
-4
-3
-4
-6
-8
-10
-12
-13
-13
-12
-11
-10
-8
-8
-8
-9
-10
-11
-12
-14
-15
-16
-16
-17
-17
-16
-16
-15
-13
-12
-10
-9
-7
-6
-6
-6
-7
-8
-10
-12
-13
-15
-16
-16
-16
-15
-14
-12
-12
-11
-12
-13
-15
-17
-20
-21
-22
-22
-21
-19
-16
-13
-10
-7
-5
-4
-3
-4
-4
-5
-7
-8
-10
-11
-12
-13
-14
-15
-16
-16
-17
-17
-17
-16
-15
-14
-13
-11
-10
-9
-8
-8
-8
-10
-11
-12
-14
-15
-15
-15
-15
-14
-13
-13
-13
-13
-13
-13
-13
-13
-12
-12
-11
-11
-10
-10
-11
-12
-13
-14
-15
-15
-15
-15
-15
-15
-14
-14
-13
-11
-10
-7
-5
-3
-2
-2
-3
-5
-7
-10
-13
-15
-16
-15
-13
-10
-7
-5
-3
-3
-4
-6
-8
-11
-13
-14
-14
-14
-13
