-10
-6
-2
0
2
2
2
0
-2
-3
-5
-6
-7
-7
-6
-5
-4
-2
-1
0
0
-1
-2
-4
-7
-9
-11
-12
-12
-11
-9
-7
-4
-2
-1
0
-1
-3
-5
-6
-7
-7
-6
-4
-2
-1
0
-1
-3
-6
-8
-11
-13
-13
-12
-10
-7
-4
-2
0
0
-1
-3
-5
-7
-9
-10
-10
-10
-9
-8
-8
-8
-8
-8
-9
-9
-9
-9
-9
-8
-9
-10
-11
-12
-13
-14
-14
-12
-10
-7
-4
-1
0
1
0
-2
-5
-8
-11
-13
-15
-15
-14
-13
-12
-11
-10
-10
-11
-11
-12
-13
-14
-14
-14
-14
-13
-12
-10
-9
-7
-6
-6
-6
-6
-8
-10
-13
-15
-17
-18
-17
-15
-10
-6
0
4
7
7
5
1
-5
-11
-17
-22
-25
-25
-23
-20
-15
-10
-5
-2
0
0
-2
-5
-8
-11
-13
-14
-14
-12
-10
-7
-5
-4
-3
-4
-7
-10
-13
-16
-18
-19
-18
-17
-14
-11
-7
-3
0
2
4
4
5
5
5
5
5
6
6
6
6
6
5
4
3
2
2
2
3
4
5
5
3
1
-3
-8
-12
-16
-18
-17
-15
-11
-6
-1
2
4
4
1
-3
-9
-14
-18
-21
-22
-22
-20
-18
-15
-14
-12
-11
-11
-10
-10
-9
-8
-7
-7
-8
-9
-10
-12
-14
-15
-16
-16
-16
-16
-16
-16
-16
-16
-17
-17
-17
-17
-18
-19
-20
-21
-22
-21
-17
-8
5
25
49
77
107
137
163
183
196
200
196
184
166
143
117
91
65
42
21
4
-8
-17
-22
-23
-22
-18
-14
-9
-5
-2
-1
0
-1
-1
-2
-3
-4
-4
-5
-7
-8
-10
-12
-13
-13
-13
-12
-11
-10
-8
-7
-7
-7
-7
-7
-7
-6
-4
-2
0
2
3
3
1
-1
-5
-8
-11
-13
-15
-15
-15
-14
-13
-11
-9
-7
-5
-3
-1
1
3
4
5
4
4
2
1
-1
-1
-1
0
2
5
7
9
10
10
9
8
7
7
7
8
10
12
14
15
15
15
16
17
20
24
28
34
38
42
44
45
44
44
43
44
46
50
55
60
64
66
66
65
62
60
59
59
62
65
69
72
73
72
69
64
59
54
51
49
49
49
48
47
43
38
30
23
16
10
7
5
6
7
9
10
11
9
7
3
-1
-6
-11
-15
-19
-21
-23
-22
-20
-17
-13
-9
-6
-4
-4
-5
-7
-10
-13
-15
-15
-14
-12
-10
-7
-6
-5
-6
-7
-9
-11
-13
-13
-13
-13
-13
-13
-14
-14
-15
-16
-16
-15
-15
-14
-13
-13
-14
-16
-18
-19
-21
-22
-21
-20
-17
-15
-13
-11
-11
-11
-12
-13
-13
-14
-13
-12
-11
-9
-9
-9
-9
-11
-12
-14
-16
-16
-17
-17
-16
-16
-16
-15
-15
-15
-14
-13
-12
-10
-8
-7
-6
-5
-5
-6
-7
-9
-10
-12
-13
-15
-16
-16
-17
-17
-16
-15
-14
-13
-13
-14
-15
-16
-18
-19
-18
-17
-14
-10
-7
-5
-5
-6
-10
-14
-19
-22
-22
-21
-18
-13
-9
-6
-6
-9
-14
-21
-27
-32
-33
-32
-28
-22
-15
-10
-6
-6
-8
-11
-16
-20
-23
-23
-21
-18
-14
-10
-7
-6
-6
-8
-11
-14
-17
-19
-20
-20
-19
-18
-16
-14
-13
-11
-11
-10
-11
-11
-11
-12
-13
-15
-16
-18
-19
-20
-21
-21
-21
-21
-21
-21
-20
-20
-19
-18
-17
-15
-14
-12
-11
-10
-10
-11
-12
-13
-15
-15
-16
-16
-15
-15
-15
-15
-15
-16
-16
-16
-15
-14
-13
-13
-12
-13
-13
-14
-16
-17
-17
-17
-16
-14
-12
-10
-7
-4
-1
1
3
5
6
6
7
7
7
8
8
8
8
7
5
2
-2
-7
-12
-17
-22
-25
-26
-27
-25
-23
-21
-19
-17
-16
-15
-15
-14
-13
-12
-11
-9
-8
-8
-9
-10
-13
-17
-21
-24
-27
-29
-30
-29
-27
-24
-20
-17
-14
-11
-9
-8
-8
-9
-10
-12
-14
-16
-17
-19
-20
-22
-22
-23
-23
-22
-21
-21
-20
-21
-22
-23
-25
-26
-24
-19
-9
7
28
54
82
112
140
163
179
188
189
181
166
145
121
95
69
44
22
5
-9
-17
-21
-20
-17
-12
-6
-2
0
1
-2
-5
-10
-14
-17
-18
-18
-17
-15
-13
-11
-10
-10
-11
-12
-12
-12
-12
-11
-10
-9
-9
-9
-11
-13
-15
-18
-20
-20
-19
-17
-13
-9
-5
-1
1
1
-1
-4
-7
-10
-12
-12
-11
-9
-6
-2
0
1
1
-1
-4
-7
-9
-10
-10
-7
-4
1
5
8
10
11
10
8
6
4
3
2
3
3
5
6
7
8
8
9
11
13
15
19
22
26
29
31
33
34
34
35
36
38
40
43
47
51
55
58
61
62
63
63
62
62
62
63
64
65
67
68
69
70
70
69
68
66
65
62
60
57
54
50
46
41
37
33
30
27
25
23
21
19
16
12
7
3
-1
-4
-5
-6
-4
-3
-2
-1
-3
-6
-10
-15
-20
-23
-26
-26
-25
-23
-20
-17
-14
-12
-11
-10
-10
-10
-10
-11
-11
-12
-12
-13
-14
-14
-14
-13
-11
-9
-7
-7
-7
-9
-11
-15
-18
-20
-20
-20
-18
-15
-12
-10
-9
-10
-11
-13
-15
-16
-16
-15
-13
-11
-10
-8
-8
-8
-8
-8
-8
-7
-6
-5
-3
-3
-4
-6
-10
-14
-18
-21
-22
-21
-19
-15
-11
-8
-6
-5
-7
-10
-13
-17
-19
-21
-20
-19
-16
-14
-12
-11
-11
-12
-14
-15
-16
-15
-13
-10
-7
-5
-3
-4
-5
-8
-12
-16
-19
-20
-20
-19
-16
-13
-10
-8
-7
-7
-8
-10
-12
-15
-17
-18
-19
-19
-19
-17
-16
-14
-11
-9
-7
-6
-6
-6
-8
-10
-13
-16
-19
-21
-22
-22
-20
-18
-14
-11
-8
-5
-4
-5
-6
-8
-11
-14
-16
-18
-19
-20
-20
-19
-18
-16
-14
-13
-12
-11
-11
-11
-12
-13
-15
-16
-17
-17
-17
-17
-16
-15
-14
-14
-14
-13
-14
-14
-14
-14
-14
-14
-14
-14
-14
-14
-14
-14
-14
-15
-16
-17
-17
-18
-18
-17
-16
-15
-14
-14
-14
-15
-16
-17
-19
-20
-21
-20
-19
-18
-16
-14
-12
-11
-11
-11
-12
-12
-13
-13
-13
-12
-11
-9
-8
-6
-5
-4
-3
-2
-1
0
2
3
4
5
6
5
4
2
0
-3
-5
-6
-6
-5
-3
0
3
5
5
4
2
-2
-6
-10
-14
-17
-19
-20
-20
-19
-17
-16
-14
-13
-11
-10
-10
-10
-10
-11
-12
-14
-15
-16
-16
-16
-15
-14
-14
-13
-13
-13
-14
-16
-17
-19
-20
-20
-20
-20
-20
-19
-17
-16
-14
-12
-11
-10
-9
-10
-11
-13
-16
-19
-22
-24
-25
-25
-23
-20
-14
-7
4
19
38
61
88
116
144
168
186
195
195
185
165
140
110
81
54
32
16
5
-1
-4
-5
-6
-7
-9
-12
-14
-16
-16
-15
-13
-10
-7
-5
-4
-4
-5
-7
-9
-10
-11
-10
-9
-6
-4
-1
0
0
-1
-4
-7
-11
-14
-16
-17
-16
-14
-11
-8
-5
-3
-3
-4
-5
-8
-10
-11
-11
-10
-8
-6
-4
-2
-2
-1
-2
-2
-2
-1
0
0
0
-1
-2
-4
-5
-6
-6
-5
-2
2
6
9
11
11
10
8
5
2
1
1
3
7
13
18
24
28
32
34
34
34
32
31
30
29
28
28
28
30
32
34
37
41
45
49
52
56
59
60
62
62
61
61
60
59
59
60
62
66
70
74
77
79
79
77
73
66
59
50
43
37
32
29
28
27
27
26
25
22
18
14
9
3
-1
-5
-8
-10
-10
-8
-6
-2
1
4
6
5
3
-1
-6
-13
-18
-23
-25
-25
-23
-19
-14
-9
-6
-4
-5
-7
-11
-15
-20
-24
-27
-28
-28
-26
-23
-19
-15
-11
-8
-6
-5
-6
-7
-10
-12
-15
-17
-17
-16
-15
-13
-11
-10
-10
-11
-12
-13
-14
-15
-14
-13
-12
-11
-10
-10
-11
-12
-14
-15
-15
-15
-14
-14
-13
-14
-15
-16
-17
-18
-18
-16
-13
-9
-6
-2
0
1
-1
-3
-7
-11
-15
-18
-20
-21
-20
-18
-16
-13
-10
-8
-6
-6
-7
-8
-11
-13
-15
-17
-18
-17
-17
-15
-14
-14
-14
-15
-17
-18
-20
-21
-20
-19
-17
-15
-13
-11
-11
-12
-13
-15
-17
-17
-17
-16
-14
-12
-11
-10
-10
-10
-12
-13
-14
-15
-15
-14
-13
-13
-13
-15
-18
-21
-24
-26
-27
-26
-23
-20
-16
-12
-10
-10
-10
-12
-14
-16
-17
-17
-16
-15
-14
-14
-14
-15
-17
-20
-21
-22
-22
-20
-18
-16
-14
-13
-13
-13
-14
-15
-16
-17
-17
-18
-18
-18
-18
-18
-18
-18
-17
-16
-15
-14
-13
-12
-11
-10
-10
-10
-10
-10
-9
-9
-8
-7
-6
-4
-3
-1
0
2
3
3
3
3
3
2
0
-1
-3
-5
-7
-10
-12
-15
-17
-19
-20
-20
-19
-18
-17
-16
-14
-13
-13
-13
-14
-15
-16
-18
-20
-22
-23
-24
-25
-24
-23
-21
-19
-17
-14
-13
-12
-12
-13
-14
-16
-18
-20
-22
-23
-24
-23
-23
-22
-21
-19
-18
-17
-16
-15
-15
-16
-17
-18
-20
-22
-24
-27
-29
-30
-30
-27
-21
-11
4
24
49
77
106
134
157
175
184
183
173
154
130
101
72
45
21
2
-11
-19
-23
-23
-20
-16
-12
-9
-6
-5
-4
-5
-6
-9
-11
-14
-16
-18
-18
-18
-17
-15
-12
-10
-9
-8
-9
-10
-11
-13
-15
-16
-16
-16
-14
-11
-8
-4
-1
2
3
2
1
-2
-6
-9
-12
-13
-13
-11
-8
-5
-1
1
1
0
-2
-6
-9
-12
-13
-13
-10
-7
-2
2
5
7
7
6
4
2
-1
-3
-4
-4
-3
-1
1
4
7
10
12
15
17
19
20
21
22
23
24
25
26
27
28
30
31
33
35
38
41
44
47
50
53
55
57
58
59
60
61
62
64
66
68
70
72
74
75
76
76
75
74
73
71
69
67
64
60
55
50
45
40
36
33
30
29
28
27
26
25
22
17
12
7
1
-3
-6
-7
-7
-4
-2
1
2
2
0
-3
-8
-12
-15
-17
-17
-16
-13
-11
-9
-8
-9
-11
-14
-17
-19
-20
-21
-20
-19
-17
-15
-14
-13
-12
-12
-12
-13
-14
-15
-16
-17
-18
-19
-20
-20
-19
-17
-15
-12
-10
-8
-6
-6
-6
-7
-8
-9
-10
-10
-10
-10
-10
-10
-10
-11
-12
-14
-16
-18
-19
-20
-20
-19
-17
-15
-13
-11
-10
-9
-10
-11
-12
-12
-13
-12
-12
-11
-10
-10
-10
-11
-12
-13
-14
-14
-14
-13
-13
-13
-14
-15
-16
-18
-18
-18
-17
-14
-12
-9
-7
-7
-8
-11
-15
-18
-21
-22
-21
-19
-16
-13
-11
-10
-11
-13
-15
-18
-19
-20
-19
-18
-16
-14
-13
-13
-13
-13
-14
-14
-14
-14
-13
-12
-12
-12
-12
-13
-13
-14
-15
-16
-17
-18
-19
-20
-20
-20
-19
-18
-16
-15
-13
-13
-13
-14
-15
-16
-17
-18
-17
-16
-14
-13
-11
-11
-11
-12
-13
-14
-14
-14
-13
-13
-13
-13
-14
-16
-19
-21
-23
-24
-23
-22
-20
-17
-15
-14
-14
-14
-14
-14
-14
-12
-9
-6
-3
0
2
4
4
4
3
3
2
2
3
3
3
3
3
2
1
0
-2
-3
-4
-6
-8
-10
-14
-17
-21
-24
-26
-26
-25
-23
-19
-15
-11
-9
-8
-9
-11
-14
-17
-19
-21
-21
-20
-18
-17
-16
-16
-17
-18
-20
-20
-20
-19
-18
-16
-14
-14
-15
-17
-21
-25
-27
-28
-27
-24
-19
-15
-11
-10
-11
-14
-19
-25
-30
-34
-35
-33
-29
-22
-13
-2
13
30
51
76
102
130
155
176
190
195
189
173
149
120
89
58
32
12
-3
-12
-17
-19
-19
-19
-19
-19
-18
-17
-14
-11
-8
-6
-5
-6
-8
-11
-15
-18
-20
-21
-20
-19
-17
-15
-13
-12
-11
-10
-9
-7
-6
-6
-6
-7
-10
-14
-18
-21
-22
-21
-18
-14
-8
-3
1
3
3
1
-4
-8
-12
-15
-16
-16
-13
-10
-7
-4
-1
0
1
0
-1
-1
-2
-3
-2
-2
-1
0
1
2
3
3
3
2
2
3
4
5
8
10
13
16
18
19
20
20
20
20
21
23
25
28
30
31
33
33
34
34
35
37
39
43
47
52
57
61
65
67
69
69
68
66
65
63
62
62
63
65
67
70
72
74
73
71
67
62
56
50
44
40
37
35
34
32
30
27
23
18
13
7
2
-3
-5
-6
-5
-2
1
4
6
7
7
4
0
-5
-10
-15
-19
-21
-22
-22
-20
-17
-14
-11
-10
-9
-9
-10
-12
-15
-17
-19
-21
-21
-21
-19
-16
-13
-10
-7
-5
-5
-7
-10
-14
-18
-21
-23
-24
-22
-19
-15
-11
-7
-4
-2
-3
-4
-7
-9
-12
-13
-14
-13
-12
-11
-10
-9
-9
-10
-11
-11
-12
-12
-12
-11
-10
-8
-8
-7
-7
-8
-9
-11
-12
-13
-14
-15
-14
-14
-13
-13
-12
-12
-12
-12
-13
-14
-16
-17
-18
-18
-17
-16
-14
-11
-9
-7
-7
-8
-10
-14
-17
-20
-22
-23
-21
-18
-15
-11
-7
-5
-4
-5
-7
-10
-14
-18
-21
-24
-25
-25
-24
-22
-19
-15
-12
-9
-8
-8
-10
-13
-16
-19
-20
-20
-18
-15
-11
-7
-4
-3
-4
-7
-12
-17
-22
-26
-28
-29
-28
-26
-24
-22
-20
-19
-18
-17
-16
-15
-13
-11
-9
-8
-7
-8
-10
-12
-15
-17
-19
-20
-20
-19
-17
-15
-13
-11
-10
-10
-10
-10
-11
-11
-11
-11
-11
-12
-13
-16
-18
-20
-21
-21
-18
-14
-8
-1
6
11
15
16
14
10
5
0
-4
-7
-8
-7
-6
-4
-2
-1
-1
-3
-4
-6
-7
-8
-9
-10
-11
-13
-16
-20
-24
-27
-30
-31
-29
-26
-22
-17
-13
-10
-9
-11
-14
-18
-21
-24
-25
-24
-21
-16
-12
-8
-6
-6
-7
-11
-16
-21
-25
-29
-30
-30
-28
-25
-22
-19
-16
-14
-13
-13
-15
-16
-19
-21
-24
-26
-27
-25
-21
-13
0
19
43
70
100
130
156
177
190
194
189
174
153
128
101
74
50
30
14
3
-5
-10
-13
-15
-15
-15
-15
-15
-15
-15
-15
-16
-17
-18
-18
-18
-18
-17
-15
-14
-13
-12
-13
-14
-15
-16
-18
-18
-17
-16
-14
-11
-9
-7
-5
-5
-5
-6
-8
-10
-11
-11
-11
-10
-8
-6
-3
-1
1
2
3
3
3
2
0
-1
-3
-5
-7
-8
-9
-9
-8
-6
-3
0
2
4
5
4
2
-1
-4
-7
-9
-10
-9
-6
-2
3
7
11
14
16
17
18
18
18
20
21
24
27
30
34
36
39
40
41
41
40
40
40
40
41
43
46
49
53
56
59
61
63
65
65
66
66
67
68
69
70
71
72
73
72
71
68
65
61
56
52
49
46
44
42
39
36
32
26
20
12
6
0
-4
-6
-7
-6
-4
-3
-3
-5
-8
-12
-16
-19
-20
-19
-16
-12
-8
-5
-4
-5
-8
-12
-16
-19
-20
-19
-16
-12
-8
-6
-5
-6
-10
-14
-18
-21
-23
-23
-21
-18
-16
-15
-16
-18
-21
-24
-27
-28
-28
-26
-22
-18
-14
-10
-9
-9
-10
-12
-14
-16
-18
-18
-18
-18
-17
-17
-17
-16
-16
-14
-12
-9
-5
-2
0
1
0
-3
-8
-13
-19
-23
-25
-26
-24
-20
-16
-12
-8
-6
-6
-7
-9
-13
-16
-18
-20
-21
-20
-20
-18
-17
-16
-15
-15
-14
-14
-14
-14
-14
-15
-16
-18
-20
-22
-24
-25
-25
-24
-21
-18
-15
-11
-9
-8
-8
-10
-12
-14
-15
-17
-17
-17
-17
-16
-16
-16
-16
-17
-17
-18
-17
-17
-16
-16
-15
-15
-14
-14
-15
-15
-15
-15
-15
-15
-16
-17
-18
-20
-21
-21
-21
-19
-16
-13
-9
-6
-6
-7
-10
-15
-20
-25
-28
-28
-25
-20
-13
-6
0
4
4
2
-1
-6
-9
-11
-10
-7
-2
3
7
9
9
6
1
-5
-11
-16
-18
-19
-18
-17
-15
-14
-14
-15
-17
-19
-20
-21
-21
-20
-19
-19
-19
-19
-21
-22
-24
-24
-24
-22
-20
-17
-15
-14
-15
-17
-20
-23
-25
-26
-26
-23
-20
-15
-12
-9
-8
-9
-11
-14
-18
-21
-23
-23
-23
-21
-20
-19
-19
-20
-21
-23
-25
-25
-23
-18
-10
3
19
39
62
87
112
134
152
163
166
160
146
124
97
68
39
13
-8
-24
-33
-38
-38
-35
-31
-27
-23
-20
-18
-17
-15
-14
-13
-11
-10
-9
-8
-8
-9
-10
-11
-12
-13
-14
-15
-16
-16
-17
-17
-16
-16
-15
-14
-12
-11
-9
-8
-7
-7
-7
-8
-9
-11
-12
-13
-14
-14
-13
-13
-11
-10
-8
-7
-5
-4
-3
-2
-1
-1
-1
-1
-1
-2
-3
-4
-5
-5
-6
-6
-6
-5
-4
-3
-2
0
1
3
5
7
9
11
13
14
15
16
16
16
17
18
19
21
23
25
26
28
30
31
33
35
38
42
46
51
55
59
63
65
67
67
66
65
63
62
60
60
60
62
64
67
71
76
79
82
83
82
78
72
65
57
48
41
35
31
29
27
26
25
24
21
18
14
10
7
4
1
-1
-3
-4
-6
-8
-10
-11
-13
-14
-14
-14
-13
-12
-11
-10
-10
-10
-11
-12
-14
-16
-17
-18
-18
-19
-18
-18
-17
-17
-17
-17
-17
-17
-16
-16
-16
-17
-17
-18
-20
-21
-23
-25
-25
-25
-23
-21
-17
-14
-10
-7
-6
-5
-6
-8
-10
-12
-13
-14
-14
-14
-13
-12
-12
-12
-12
-12
-12
-13
-13
-13
-13
-14
-15
-17
-19
-20
-21
-21
-20
-17
-13
-10
-6
-4
-3
-3
-5
-8
-11
-14
-15
-16
-16
-15
-14
-14
-14
-14
-15
-17
-18
-19
-19
-18
-16
-14
-11
-9
-7
-5
-5
-5
-6
-7
-9
-11
-14
-17
-19
-21
-22
-22
-21
-20
-17
-15
-13
-11
-10
-10
-11
-13
-15
-17
-19
-21
-23
-23
-24
-23
-22
-20
-17
-13
-10
-7
-4
-3
-4
-6
-9
-13
-16
-20
-22
-23
-23
-22
-20
-17
-14
-12
-11
-10
-10
-11
-13
-15
-16
-17
-17
-16
-14
-11
-7
-3
-1
1
1
-1
-3
-6
-8
-8
-6
-2
3
8
13
15
16
13
8
1
-7
-14
-19
-22
-23
-22
-20
-17
-14
-12
-11
-12
-13
-14
-16
-17
-17
-16
-15
-14
-12
-11
-10
-10
-11
-13
-15
-17
-18
-19
-20
-19
-19
-18
-17
-17
-17
-19
-21
-22
-24
-24
-23
-21
-18
-14
-10
-7
-6
-5
-6
-8
-11
-13
-16
-18
-20
-21
-21
-19
-16
-9
1
16
35
59
85
113
141
164
181
191
191
182
165
142
116
88
62
39
20
5
-5
-12
-15
-16
-16
-15
-13
-11
-9
-7
-6
-6
-7
-9
-10
-12
-13
-13
-12
-11
-9
-8
-8
-9
-11
-15
-18
-22
-24
-24
-24
-22
-19
-17
-15
-15
-15
-16
-16
-16
-15
-13
-10
-7
-5
-3
-2
-3
-4
-6
-8
-8
-8
-7
-5
-3
-1
0
1
0
-2
-5
-9
-12
-15
-17
-17
-17
-14
-11
-7
-3
2
5
8
9
9
8
6
4
2
1
1
2
5
8
11
14
17
19
21
23
24
25
26
27
29
32
36
40
44
48
52
54
56
55
54
52
51
50
50
52
56
61
65
70
72
72
70
66
61
56
52
49
48
49
51
52
52
50
46
40
34
27
22
19
18
18
19
20
19
17
13
7
2
-4
-8
-10
-11
-10
-9
-9
-9
-10
-13
-16
-19
-21
-21
-19
-16
-12
-7
-3
-1
0
-2
-5
-10
-14
-18
-21
-23
-23
-21
-19
-16
-13
-11
-11
-11
-12
-14
-16
-18
-18
-18
-18
-17
-16
-16
-17
-18
-21
-24
-26
-26
-26
-23
-19
-14
-10
-7
-6
-7
-9
-13
-17
-20
-21
-21
-19
-16
-13
-11
-10
-11
-12
-13
-13
-13
-12
-10
-7
-5
-4
-4
-5
-8
-10
-13
-14
-15
-15
-15
-16
-17
-18
-21
-23
-25
-25
-25
-23
-20
-17
-15
-13
-12
-12
-12
-12
-13
-13
-13
-14
-15
-17
-19
-22
-24
-24
-24
-21
-17
-13
-10
-8
-8
-10
-14
-18
-22
-24
-24
-22
-17
-13
-9
-6
-6
-8
-11
-14
-17
-17
-16
-14
-11
-8
-7
-8
-12
-17
-22
-27
-30
-30
-29
-25
-20
-15
-11
-9
-9
-10
-12
-15
-18
-21
-22
-23
-23
-22
-20
-18
-16
-14
-13
-12
-12
-12
-12
-12
-11
-9
-6
-2
3
7
10
12
12
10
7
3
1
-1
-1
0
2
4
6
7
5
2
-2
-7
-12
-17
-21
-23
-24
-24
-22
-20
-18
-15
-13
-11
-10
-10
-11
-12
-15
-17
-19
-21
-22
-22
-21
-19
-17
-14
-11
-10
-9
-10
-13
-17
-22
-27
-31
-34
-35
-34
-32
-28
-23
-19
-15
-13
-12
-13
-14
-17
-19
-21
-23
-24
-25
-26
-27
-28
-28
-27
-25
-20
-11
2
19
40
64
90
116
140
160
176
185
187
182
169
150
126
99
71
44
20
0
-15
-25
-30
-32
-30
-26
-22
-18
-14
-11
-8
-7
-7
-7
-8
-10
-11
-13
-13
-13
-12
-10
-8
-6
-5
-5
-7
-9
-12
-15
-18
-20
-20
-19
-17
-15
-13
-12
-11
-11
-11
-11
-10
-9
-8
-6
-5
-4
-5
-6
-8
-11
-14
-16
-17
-17
-15
-12
-9
-5
-2
1
2
2
1
-1
-4
-6
-7
-7
-6
-3
1
6
9
12
13
12
10
7
4
2
1
2
5
9
14
19
23
26
27
27
27
27
27
28
30
32
34
36
38
40
41
43
45
48
51
55
59
62
64
66
66
66
66
65
65
66
67
68
69
69
68
66
62
58
54
50
47
44
42
41
40
39
37
35
31
26
21
15
9
4
0
-2
-3
-3
-3
-2
-2
-2
-3
-5
-6
-8
-9
-9
-9
-10
-11
-12
-15
-18
-21
-24
-26
-26
-24
-21
-17
-12
-8
-6
-6
-7
-10
-13
-16
-18
-19
-18
-16
-14
-12
-11
-10
-11
-13
-15
-17
-18
-18
-17
-15
-14
-13
-12
-12
-12
-11
-10
-8
-6
-4
-2
-2
-4
-7
-13
-19
-24
-28
-30
-30
-27
-23
-17
-12
-8
-5
-5
-5
-7
-10
-12
-13
-14
-14
-14
-14
-13
-13
-13
-13
-12
-12
-11
-10
-10
-10
-11
-12
-13
-14
-15
-15
-14
-12
-10
-8
-7
-7
-9
-12
-16
-21
-25
-28
-29
-29
-27
-25
-21
-18
-15
-12
-11
-10
-10
-10
-10
-10
-9
-9
-8
-8
-8
-8
-9
-10
-12
-14
-16
-18
-20
-21
-22
-22
-22
-21
-20
-19
-18
-17
-16
-15
-15
-16
-16
-17
-18
-19
-20
-21
-21
-20
-20
-19
-18
-17
-16
-16
-16
-17
-17
-18
-18
-18
-18
-18
-17
-17
-16
-16
-15
-15
-15
-14
-14
-13
-13
-13
-13
-14
-16
-18
-20
-22
-23
-24
-24
-24
-22
-20
-18
-15
-12
-9
-6
-3
-1
1
2
2
2
2
2
2
3
4
5
6
7
7
7
6
4
2
0
-2
-5
-7
-8
-10
-11
-13
-15
-18
-20
-22
-24
-26
-27
-26
-25
-24
-21
-19
-16
-15
-14
-13
-14
-15
-16
-17
-18
-19
-19
-18
-17
-16
-16
-15
-16
-17
-18
-19
-19
-19
-17
-15
-13
-11
-9
-9
-9
-11
-14
-17
-20
-23
-24
-25
-25
-25
-26
-26
-27
-27
-25
-19
-9
7
28
55
84
116
146
172
191
202
203
195
177
153
125
94
64
38
15
-2
-13
-19
-21
-20
-17
-13
-9
-6
-3
-2
-2
-2
-3
-5
-7
-9
-12
-15
-17
-19
-20
-20
-19
-18
-17
-15
-13
-12
-11
-11
-10
-10
-9
-9
-8
-7
-7
-6
-6
-6
-6
-6
-6
-6
-6
-6
-7
-7
-8
-9
-10
-11
-11
-10
-8
-6
-3
0
2
4
4
3
1
-2
-5
-7
-9
-9
-8
-6
-3
0
2
3
4
4
3
2
2
3
4
7
10
14
16
18
19
19
18
18
18
19
21
25
29
33
36
38
39
39
39
38
39
40
44
48
53
59
64
68
70
71
71
70
69
69
69
70
71
73
75
75
75
73
70
66
62
57
52
48
45
42
39
35
32
28
23
19
14
10
7
5
4
5
6
8
9
10
10
8
4
0
-4
-8
-12
-15
-16
-17
-17
-16
-16
-16
-16
-17
-18
-18
-18
-17
-15
-13
-11
-10
-9
-9
-9
-10
-11
-12
-12
-11
-10
-9
-8
-8
-9
-11
-13
-17
-20
-22
-23
-22
-20
-16
-12
-9
-6
-5
-6
-9
-12
-15
-18
-19
-18
-16
-12
-9
-5
-4
-4
-5
-8
-12
-16
-18
-20
-20
-19
-17
-15
-15
-14
-15
-16
-18
-19
-20
-21
-20
-19
-18
-16
-15
-14
-13
-12
-11
-10
-9
-8
-7
-7
-8
-9
-11
-13
-15
-18
-20
-21
-22
-22
-21
-19
-16
-14
-12
-10
-9
-10
-11
-12
-14
-15
-16
-16
-16
-15
-15
-16
-17
-19
-21
-22
-23
-22
-20
-16
-12
-8
-4
-3
-3
-5
-9
-14
-19
-23
-25
-26
-26
-23
-21
-18
-15
-12
-11
-11
-11
-12
-13
-15
-17
-19
-20
-20
-20
-18
-16
-13
-11
-8
-7
-7
-8
-11
-15
-20
-23
-26
-26
-25
-22
-18
-14
-10
-8
-7
-7
-9
-12
-15
-17
-18
-18
-17
-15
-12
-10
-8
-7
-6
-7
-8
-10
-11
-11
-10
-8
-6
-3
0
2
4
4
4
3
2
1
0
-1
-2
-3
-6
-9
-13
-17
-21
-24
-26
-25
-23
-19
-15
-10
-7
-6
-7
-10
-14
-19
-23
-25
-26
-25
-23
-20
-18
-16
-15
-16
-18
-20
-21
-23
-23
-23
-22
-20
-19
-18
-17
-17
-16
-16
-15
-14
-13
-14
-15
-17
-20
-24
-27
-30
-30
-29
-26
-22
-18
-15
-13
-13
-15
-15
-13
-5
9
30
57
88
120
148
169
180
179
168
148
122
93
65
41
21
6
-4
-11
-16
-20
-23
-24
-24
-23
-20
-16
-12
-9
-6
-6
-8
-11
-15
-18
-20
-20
-18
-15
-11
-8
-6
-5
-6
-8
-11
-14
-16
-17
-17
-16
-15
-14
-13
-13
-13
-14
-14
-14
-13
-12
-11
-9
-8
-7
-7
-6
-5
-4
-2
0
2
4
4
4
2
0
-3
-6
-8
-9
-9
-8
-5
-2
0
2
3
3
2
1
-1
-1
-1
1
3
7
10
14
16
17
17
16
15
14
14
15
18
22
27
32
36
40
42
42
42
41
40
39
39
39
41
43
46
49
53
57
62
68
73
77
81
83
83
82
79
75
72
69
67
66
66
66
65
64
61
56
51
46
40
36
33
31
31
31
31
30
28
25
20
15
9
4
-1
-4
-5
-6
-5
-3
-2
-1
0
0
-2
-4
-7
-11
-14
-18
-22
-24
-26
-26
-26
-24
-21
-17
-14
-11
-9
-8
-9
-10
-11
-13
-14
-14
-14
-14
-13
-13
-14
-15
-16
-17
-18
-18
-17
-16
-15
-14
-14
-15
-16
-18
-18
-18
-17
-14
-11
-8
-5
-3
-3
-5
-7
-10
-12
-13
-13
-12
-12
-11
-12
-15
-18
-21
-24
-26
-25
-22
-17
-12
-7
-4
-3
-5
-8
-13
-18
-22
-24
-24
-23
-20
-16
-12
-9
-6
-5
-4
-4
-5
-6
-7
-9
-11
-14
-17
-19
-21
-22
-21
-19
-17
-14
-11
-9
-8
-8
-10
-12
-14
-17
-18
-19
-19
-18
-17
-15
-14
-13
-13
-14
-15
-16
-16
-17
-17
-17
-17
-16
-16
-16
-16
-16
-16
-16
-16
-15
-15
-14
-14
-13
-13
-13
-13
-12
-12
-11
-11
-11
-11
-12
-14
-16
-19
-21
-23
-24
-24
-22
-20
-17
-15
-12
-10
-9
-8
-7
-6
-6
-5
-3
-2
-1
0
1
1
1
0
0
1
2
3
5
7
7
7
5
1
-4
-10
-15
-21
-24
-26
-26
-23
-20
-15
-10
-6
-4
-4
-6
-9
-14
-19
-23
-27
-29
-28
-26
-23
-18
-13
-10
-8
-7
-9
-11
-15
-18
-20
-21
-21
-21
-20
-19
-19
-21
-23
-26
-29
-31
-31
-30
-26
-21
-15
-10
-5
-3
-3
-6
-10
-16
-22
-29
-34
-38
-39
-36
-30
-19
-3
19
44
73
102
131
156
176
188
192
188
176
158
134
108
81
56
33
13
-1
-11
-16
-17
-15
-11
-6
-2
0
-1
-3
-8
-13
-18
-22
-23
-23
-21
-17
-14
-11
-10
-11
-12
-15
-17
-18
-18
-16
-13
-9
-6
-4
-4
-6
-8
-11
-14
-16
-17
-16
-14
-12
-9
-8
-7
-7
-8
-8
-9
-8
-8
-7
-6
-5
-6
-7
-8
-9
-9
-9
-7
-4
-1
2
3
3
1
-3
-8
-12
-15
-17
-16
-13
-8
-3
2
7
9
11
12
12
12
13
14
16
17
18
19
18
18
17
16
17
19
22
27
31
36
40
44
46
48
49
50
52
53
54
56
58
59
61
62
63
64
65
65
65
65
64
63
61
59
57
55
54
54
53
53
52
50
48
44
39
34
29
24
19
14
11
7
4
1
-1
-3
-4
-5
-6
-6
-7
-7
-8
-10
-12
-15
-17
-19
-20
-20
-19
-17
-14
-11
-9
-8
-8
-10
-13
-17
-21
-24
-27
-27
-26
-24
-20
-16
-12
-10
-9
-9
-10
-13
-15
-17
-18
-17
-16
-14
-12
-11
-9
-9
-10
-11
-13
-15
-16
-18
-18
-19
-19
-18
-18
-18
-17
-17
-17
-17
-17
-18
-19
-19
-20
-22
-23
-24
-24
-24
-23
-20
-17
-13
-8
-4
-1
1
1
-1
-5
-10
-15
-20
-24
-25
-26
-24
-22
-19
-16
-15
-14
-14
-14
-15
-16
-16
-16
-16
-15
-14
-14
-14
-14
-14
-15
-16
-17
-18
-18
-19
-20
-20
-20
-20
-19
-18
-18
-18
-18
-19
-20
-21
-21
-20
-17
-14
-10
-7
-4
-3
-4
-7
-11
-16
-20
-23
-25
-24
-23
-20
-18
-16
-15
-15
-17
-18
-19
-20
-19
-17
-15
-13
-11
-10
-10
-11
-12
-15
-17
-19
-21
-22
-22
-22
-21
-19
-17
-15
-13
-12
-11
-11
-12
-14
-16
-17
-18
-18
-16
-13
-9
-5
-2
1
3
3
3
2
0
0
-1
0
0
1
1
1
-1
-3
-7
-10
-13
-16
-18
-18
-18
-18
-17
-17
-17
-17
-18
-19
-19
-19
-19
-18
-18
-17
-17
-18
-18
-18
-17
-17
-15
-14
-13
-13
-14
-16
-19
-22
-24
-25
-25
-23
-20
-16
-13
-11
-11
-13
-17
-21
-25
-28
-29
-28
-25
-21
-17
-14
-13
-14
-17
-21
-25
-28
-29
-27
-22
-12
2
20
42
67
94
121
146
168
184
193
193
184
166
142
112
81
51
25
5
-9
-16
-19
-18
-16
-14
-12
-12
-13
-14
-14
-13
-11
-8
-5
-2
-1
-2
-5
-9
-13
-16
-19
-20
-20
-19
-18
-17
-18
-19
-21
-22
-23
-22
-19
-15
-10
-6
-4
-2
-3
-5
-8
-11
-13
-14
-14
-13
-12
-11
-11
-11
-12
-12
-13
-12
-10
-7
-3
0
3
4
4
2
-1
-4
-7
-8
-8
-6
-3
0
3
5
6
5
4
2
2
2
4
7
11
15
18
20
21
20
18
16
14
13
14
17
21
26
32
37
41
44
45
45
44
44
44
45
47
51
55
60
64
67
68
69
68
67
66
65
65
66
66
67
68
68
67
65
62
60
57
55
53
51
48
46
42
38
33
27
21
15
10
7
4
3
3
4
5
5
5
5
3
1
-2
-6
-10
-15
-19
-22
-25
-25
-24
-22
-18
-14
-9
-6
-5
-6
-9
-13
-17
-21
-23
-24
-23
-20
-17
-14
-11
-10
-10
-11
-13
-14
-15
-14
-13
-11
-10
-9
-9
-10
-12
-14
-15
-16
-17
-16
-15
-15
-15
-15
-17
-18
-20
-20
-20
-19
-17
-14
-11
-9
-7
-6
-6
-6
-7
-8
-9
-10
-10
-11
-12
-13
-14
-15
-15
-16
-16
-15
-15
-14
-13
-13
-13
-13
-14
-14
-15
-15
-15
-16
-16
-16
-16
-16
-16
-15
-15
-13
-12
-10
-9
-9
-9
-10
-11
-13
-15
-16
-17
-16
-15
-12
-10
-8
-6
-6
-7
-9
-12
-15
-18
-21
-23
-24
-24
-24
-24
-23
-22
-21
-19
-16
-13
-10
-7
-5
-5
-7
-10
-14
-18
-22
-23
-23
-20
-16
-11
-7
-5
-4
-7
-11
-16
-21
-24
-26
-26
-25
-22
-20
-18
-17
-17
-17
-18
-18
-17
-15
-13
-10
-8
-7
-7
-7
-8
-8
-9
-8
-6
-4
-2
0
1
1
1
-1
-3
-4
-5
-6
-5
-3
0
2
5
6
7
6
4
0
-4
-9
-14
-18
-20
-22
-22
-20
-18
-15
-13
-12
-11
-12
-14
-17
-19
-21
-22
-22
-21
-19
-18
-17
-17
-18
-19
-21
-22
-22
-21
-19
-16
-12
-9
-8
-9
-11
-16
-21
-26
-29
-30
-29
-25
-19
-13
-7
-3
-1
-3
-6
-12
-19
-25
-31
-36
-38
-37
-34
-27
-17
-4
14
35
59
84
111
135
157
173
181
182
175
160
138
112
84
56
30
9
-7
-16
-20
-20
-17
-13
-8
-5
-3
-3
-5
-7
-10
-12
-13
-14
-14
-14
-15
-16
-17
-18
-19
-19
-19
-18
-15
-13
-10
-7
-6
-5
-5
-6
-8
-10
-11
-12
-12
-11
-10
-9
-7
-7
-7
-8
-9
-11
-13
-14
-13
-11
-8
-4
-1
2
3
2
-1
-4
-8
-10
-11
-9
-6
-2
3
6
8
7
4
-1
-6
-10
-12
-12
-9
-4
2
9
14
19
21
22
21
19
16
14
13
13
15
17
21
24
28
31
34
36
37
38
38
39
40
41
42
44
47
50
53
56
59
61
62
63
63
63
62
62
62
63
65
68
71
74
75
75
73
69
63
56
48
40
34
29
26
25
24
25
25
24
22
19
16
11
7
3
0
-2
-4
-5
-6
-8
-11
-14
-17
-19
-21
-20
-19
-16
-12
-9
-7
-7
-8
-11
-16
-20
-24
-26
-27
-26
-23
-20
-17
-15
-14
-14
-14
-14
-14
-12
-10
-7
-4
-2
-2
-4
-7
-11
-16
-20
-24
-25
-26
-25
-23
-21
-18
-17
-15
-15
-14
-14
-14
-14
-14
-15
-16
-17
-18
-19
-19
-18
-16
-14
-11
-9
-8
-8
-10
-13
-17
-20
-23
-24
-25
-23
-21
-19
-16
-13
-11
-10
-9
-9
-9
-9
-10
-11
-12
-14
-15
-16
-17
-17
-17
-16
-15
-14
-13
-13
-13
-13
-14
-15
-16
-17
-17
-17
-16
-15
-14
-13
-13
-13
-14
-16
-17
-19
-19
-19
-19
-17
-15
-13
-11
-11
-11
-13
-15
-19
-22
-24
-26
-26
-25
-22
-19
-16
-14
-13
-12
-13
-15
-17
-19
-20
-20
-20
-19
-17
-15
-13
-11
-9
-8
-7
-6
-5
-4
-2
0
3
5
7
9
9
9
7
4
1
-3
-6
-10
-12
-14
-15
-15
-15
-14
-13
-13
-13
-14
-15
-17
-19
-21
-23
-24
-24
-23
-22
-20
-19
-18
-18
-18
-19
-20
-21
-22
-22
-22
-21
-21
-20
-19
-19
-20
-20
-21
-21
-21
-21
-20
-19
-18
-17
-16
-17
-17
-18
-18
-19
-19
-18
-17
-16
-14
-14
-14
-16
-19
-22
-26
-30
-32
-32
-29
-22
-9
9
32
58
87
116
142
163
177
181
176
162
140
114
86
57
32
11
-5
-16
-22
-25
-26
-25
-24
-22
-21
-19
-18
-17
-16
-15
-14
-14
-14
-15
-15
-16
-16
-15
-15
-14
-13
-13
-12
-12
-11
-12
-12
-12
-12
-13
-13
-13
-13
-13
-13
-12
-12
-11
-10
-9
-9
-8
-7
-7
-6
-6
-6
-6
-6
-6
-7
-7
-7
-7
-7
-7
-8
-8
-8
-8
-8
-6
-5
-2
1
5
7
9
9
8
5
1
-3
-7
-10
-11
-10
-7
-2
5
11
17
22
25
27
28
28
28
27
27
27
28
30
32
35
38
41
45
48
51
54
56
58
59
60
61
61
62
62
63
64
64
66
67
69
70
72
72
73
72
70
67
64
60
56
52
49
46
44
42
40
37
33
29
25
21
17
14
12
10
8
5
2
-2
-6
-10
-14
-17
-18
-18
-17
-15
-13
-12
-11
-12
-13
-15
-17
-17
-17
-15
-12
-9
-5
-3
-2
-2
-3
-6
-9
-12
-15
-17
-18
-18
-18
-18
-17
-16
-16
-16
-16
-17
-18
-18
-18
-18
-18
-17
-17
-16
-15
-15
-16
-16
-17
-17
-17
-16
-15
-13
-11
-9
-9
-9
-11
-14
-16
-19
-20
-20
-19
-16
-12
-9
-5
-3
-2
-3
-6
-9
-13
-16
-19
-19
-19
-17
-14
-11
-8
-6
-7
-8
-11
-14
-17
-19
-20
-18
-15
-12
-8
-6
-4
-4
-6
-8
-11
-13
-14
-14
-13
-12
-12
-12
-13
-14
-16
-18
-19
-19
-18
-17
-16
-15
-15
-16
-18
-20
-22
-23
-22
-20
-17
-13
-9
-6
-5
-5
-7
-9
-13
-15
-17
-19
-19
-19
-19
-20
-20
-21
-21
-22
-22
-20
-18
-16
-13
-11
-10
-10
-12
-15
-19
-22
-24
-25
-23
-19
-14
-8
-2
2
4
3
0
-4
-9
-13
-16
-17
-15
-12
-8
-4
0
2
2
2
1
0
0
0
1
2
3
4
4
4
3
1
0
-2
-3
-5
-7
-9
-12
-15
-19
-23
-26
-28
-28
-27
-23
-19
-15
-11
-9
-8
-8
-10
-13
-16
-19
-21
-23
-25
-25
-26
-26
-26
-26
-24
-21
-18
-14
-11
-8
-8
-10
-14
-20
-26
-32
-35
-36
-34
-29
-23
-16
-10
-6
-5
-7
-11
-17
-23
-29
-33
-34
-31
-24
-12
5
26
52
81
110
139
164
182
193
194
185
168
144
116
87
59
36
17
4
-4
-8
-10
-10
-9
-9
-9
-9
-9
-10
-10
-11
-12
-13
-15
-17
-19
-21
-21
-21
-20
-18
-16
-13
-12
-11
-11
-12
-14
-16
-17
-18
-18
-18
-17
-16
-15
-14
-13
-13
-12
-11
-10
-9
-7
-6
-5
-4
-4
-5
-6
-8
-9
-10
-10
-9
-7
-4
-2
0
0
-1
-4
-7
-10
-13
-15
-15
-15
-13
-11
-9
-7
-5
-5
-4
-2
0
3
7
10
14
16
17
17
16
14
12
11
11
13
16
19
24
27
30
33
34
36
37
39
41
44
47
50
51
52
51
50
48
47
46
47
49
53
58
63
68
72
74
74
73
70
66
62
57
53
49
46
43
41
39
38
36
34
31
28
25
21
17
13
9
6
3
0
-2
-4
-6
-7
-9
-10
-10
-11
-11
-10
-10
-10
-10
-10
-11
-11
-12
-13
-13
-13
-13
-13
-14
-14
-14
-14
-13
-12
-9
-7
-5
-3
-4
-6
-9
-13
-17
-20
-22
-21
-20
-17
-14
-13
-12
-13
-14
-16
-17
-17
-15
-13
-9
-7
-5
-6
-8
-12
-15
-18
-20
-19
-17
-13
-10
-7
-5
-5
-7
-10
-13
-16
-19
-20
-20
-20
-20
-20
-19
-18
-17
-15
-12
-10
-8
-7
-7
-8
-11
-13
-16
-17
-17
-15
-12
-8
-5
-3
-3
-6
-11
-16
-21
-25
-27
-26
-24
-20
-16
-12
-10
-9
-10
-13
-15
-17
-17
-16
-15
-12
-10
-8
-8
-10
-13
-17
-21
-25
-27
-27
-26
-22
-18
-14
-10
-7
-6
-5
-7
-9
-12
-14
-17
-18
-20
-20
-21
-20
-20
-19
-19
-18
-17
-16
-16
-16
-17
-18
-18
-19
-19
-18
-17
-15
-14
-13
-13
-14
-16
-19
-21
-24
-26
-26
-25
-24
-21
-18
-14
-12
-9
-8
-6
-5
-4
-2
-1
1
3
4
4
4
4
3
1
0
-2
-3
-4
-5
-5
-6
-6
-7
-8
-10
-12
-14
-16
-17
-18
-17
-16
-14
-12
-10
-10
-10
-12
-15
-17
-19
-20
-19
-16
-13
-10
-8
-8
-9
-12
-17
-21
-25
-27
-28
-27
-25
-22
-20
-20
-20
-21
-23
-24
-25
-24
-21
-19
-15
-13
-11
-10
-11
-12
-13
-14
-16
-17
-18
-20
-22
-25
-27
-27
-25
-18
-8
8
29
53
79
105
129
149
164
173
174
167
154
134
110
83
56
30
7
-10
-23
-30
-31
-29
-23
-17
-10
-4
1
4
5
4
2
-1
-5
-10
-16
-20
-24
-27
-27
-26
-23
-19
-14
-10
-6
-3
-2
-3
-5
-7
-10
-13
-15
-16
-17
-16
-15
-13
-11
-10
-8
-8
-8
-9
-11
-13
-15
-16
-15
-13
-9
-5
0
4
6
7
5
2
-1
-5
-8
-9
-9
-7
-5
-3
-2
-2
-4
-6
-8
-9
-8
-6
-2
3
8
12
15
16
15
14
13
13
14
18
23
29
34
38
40
40
37
33
29
27
26
27
30
36
42
48
53
57
59
60
60
60
60
60
60
61
62
63
64
65
66
67
67
67
68
68
67
65
63
60
56
52
48
44
41
38
37
36
35
33
32
29
25
20
14
8
2
-3
-8
-10
-12
-11
-11
-9
-8
-7
-7
-8
-9
-10
-11
-13
-13
-14
-15
-16
-17
-18
-19
-19
-18
-16
-13
-10
-7
-5
-4
-4
-5
-8
-11
-14
-17
-19
-20
-20
-19
-18
-16
-14
-12
-11
-10
-10
-9
-9
-10
-11
-12
-14
-15
-17
-17
-18
-17
-16
-14
-12
-10
-8
-8
-8
-9
-11
-13
-16
-18
-20
-21
-21
-20
-19
-17
-15
-14
-13
-13
-13
-14
-14
-13
-12
-10
-8
-6
-3
-2
-2
-2
-4
-6
-9
-11
-13
-14
-15
-15
-15
-14
-14
-13
-13
-13
-12
-12
-12
-13
-13
-14
-15
-15
-15
-14
-13
-11
-9
-8
-7
-8
-10
-13
-15
-17
-19
-18
-17
-15
-13
-11
-11
-12
-14
-17
-19
-20
-19
-17
-14
-10
-7
-6
-6
-8
-13
-17
-22
-26
-27
-27
-25
-21
-17
-13
-10
-8
-8
-9
-11
-14
-17
-19
-21
-22
-21
-20
-18
-15
-13
-10
-9
-8
-7
-7
-8
-9
-10
-11
-11
-10
-9
-7
-4
-2
1
3
4
5
5
4
2
1
0
-1
-1
-1
0
0
0
-1
-3
-6
-9
-13
-16
-19
-20
-21
-20
-18
-15
-13
-12
-12
-12
-14
-17
-20
-23
-25
-26
-26
-25
-23
-20
-17
-14
-12
-10
-10
-11
-14
-16
-18
-20
-21
-20
-18
-16
-14
-12
-11
-12
-14
-17
-20
-22
-24
-25
-24
-22
-20
-18
-17
-17
-19
-21
-23
-23
-20
-14
-3
13
33
58
85
113
141
164
182
193
194
186
169
146
117
87
57
31
10
-5
-15
-20
-22
-21
-18
-16
-12
-9
-6
-3
-1
0
0
-2
-4
-8
-12
-15
-18
-18
-18
-16
-14
-12
-10
-10
-10
-12
-13
-15
-16
-17
-18
-18
-19
-19
-20
-21
-21
-20
-18
-16
-12
-9
-5
-2
0
1
1
1
0
-1
-2
-4
-6
-8
-10
-12
-13
-13
-11
-9
-6
-3
0
0
0
-3
-7
-10
-13
-13
-11
-7
0
7
14
19
21
19
15
10
4
-1
-4
-4
-1
4
10
15
19
22
23
22
20
19
19
20
24
28
33
38
42
45
47
48
48
48
48
49
51
53
55
58
60
62
63
64
64
63
62
61
60
58
56
54
52
50
49
48
47
46
44
41
37
31
24
17
9
3
-1
-4
-5
-4
-2
-1
0
-2
-5
-9
-14
-19
-22
-23
-22
-19
-14
-10
-7
-6
-7
-10
-15
-20
-25
-28
-29
-27
-24
-19
-15
-12
-11
-12
-14
-17
-20
-22
-22
-20
-17
-13
-9
-7
-6
-7
-9
-12
-15
-16
-17
-17
-17
-16
-17
-19
-22
-25
-28
-29
-28
-24
-19
-13
-7
-3
-1
-2
-6
-10
-15
-19
-21
-21
-20
-17
-14
-12
-12
-13
-16
-19
-21
-22
-21
-20
-17
-14
-13
-13
-14
-16
-19
-20
-20
-18
-15
-10
-6
-3
-2
-3
-7
-12
-17
-22
-25
-26
-24
-21
-17
-13
-10
-8
-8
-9
-12
-15
-18
-21
-22
-23
-23
-22
-21
-19
-17
-15
-13
-11
-10
-10
-11
-13
-15
-17
-19
-21
-22
-23
-23
-23
-23
-23
-22
-21
-20
-18
-16
-14
-12
-10
-9
-9
-10
-11
-12
-13
-14
-13
-12
-11
-9
-7
-5
-5
-5
-6
-6
-7
-6
-5
-2
2
5
8
10
11
9
5
0
-5
-11
-16
-19
-20
-19
-17
-14
-11
-10
-9
-10
-12
-14
-16
-18
-18
-17
-16
-15
-14
-15
-17
-19
-23
-26
-28
-28
-26
-23
-18
-13
-9
-5
-4
-5
-7
-11
-15
-19
-22
-24
-25
-25
-24
-23
-21
-20
-18
-16
-15
-13
-12
-12
-12
-13
-15
-17
-20
-23
-26
-28
-29
-30
-29
-27
-23
-16
-8
3
17
35
55
77
100
122
142
158
168
170
164
150
129
103
75
48
23
3
-12
-20
-23
-22
-18
-14
-10
-7
-6
-6
-7
-8
-10
-11
-12
-12
-12
-12
-12
-11
-11
-12
-11
-11
-11
-11
-11
-11
-12
-14
-15
-17
-18
-19
-19
-18
-15
-13
-10
-8
-6
-6
-6
-8
-9
-11
-12
-12
-11
-9
-5
-2
1
2
3
2
0
-2
-5
-7
-8
-8
-7
-5
-3
-1
-1
-1
-3
-5
-7
-8
-8
-8
-5
-2
1
4
7
9
10
10
10
9
9
9
10
12
15
18
22
25
29
33
37
41
45
48
50
52
53
53
53
52
50
48
46
45
45
45
47
49
53
58
62
66
69
71
72
71
69
67
64
63
61
61
61
61
61
59
57
54
49
45
40
35
32
28
25
22
18
13
7
1
-6
-12
-16
-19
-19
-18
-14
-10
-6
-2
0
1
0
-2
-6
-10
-13
-17
-19
-20
-20
-19
-18
-16
-15
-14
-14
-15
-16
-17
-18
-19
-19
-18
-17
-16
-16
-17
-19
-22
-25
-28
-30
-31
-30
-27
-24
-19
-15
-12
-10
-10
-12
-15
-18
-22
-25
-27
-27
-27
-25
-22
-20
-17
-15
-13
-12
-13
-13
-14
-16
-17
-18
-18
-18
-18
-17
-16
-15
-14
-13
-11
-10
-10
-10
-10
-12
-13
-15
-16
-17
-18
-18
-18
-17
-17
-17
-17
-18
-18
-19
-19
-19
-20
-20
-21
-22
-24
-26
-29
-31
-31
-31
-28
-25
-21
-16
-13
-11
-12
-14
-17
-20
-24
-25
-25
-23
-19
-14
-8
-4
-1
-1
-3
-6
-11
-17
-22
-25
-27
-27
-26
-23
-21
-18
-17
-16
-16
-17
-18
-19
-19
-20
-20
-20
-21
-22
-24
-25
-26
-26
-25
-23
-20
-17
-14
-12
-11
-10
-11
-12
-14
-14
-14
-13
-11
-8
-5
-2
0
2
3
4
3
2
1
-1
-2
-4
-4
-4
-3
-2
0
0
0
-1
-5
-9
-14
-20
-24
-26
-26
-23
-19
-13
-9
-6
-5
-7
-12
-18
-24
-29
-32
-33
-32
-28
-24
-20
-16
-15
-15
-17
-20
-23
-26
-28
-29
-29
-28
-25
-23
-20
-17
-15
-13
-11
-10
-10
-10
-12
-13
-15
-18
-21
-24
-27
-29
-30
-30
-29
-25
-18
-8
6
25
47
72
99
126
151
172
186
191
188
175
155
130
101
72
45
22
4
-9
-18
-23
-25
-24
-23
-21
-18
-16
-13
-10
-8
-7
-7
-7
-9
-11
-13
-15
-16
-18
-18
-18
-19
-18
-18
-18
-17
-16
-13
-10
-7
-4
-1
0
-1
-3
-6
-10
-14
-17
-19
-18
-15
-11
-7
-3
1
2
2
0
-3
-7
-10
-13
-15
-16
-16
-16
-15
-15
-14
-12
-11
-8
-6
-3
0
3
4
4
4
2
1
-1
-2
-1
0
2
4
7
10
13
16
18
20
21
23
24
25
25
25
24
23
21
20
20
21
24
28
33
39
45
50
53
55
56
56
55
55
56
57
60
63
66
68
69
70
69
69
68
67
67
66
65
64
62
58
54
49
44
39
34
31
28
26
24
22
20
17
14
11
8
5
3
2
0
-1
-2
-4
-5
-7
-9
-10
-12
-13
-15
-16
-17
-17
-18
-18
-17
-17
-16
-15
-14
-13
-12
-12
-12
-13
-14
-14
-14
-15
-15
-15
-15
-15
-16
-16
-17
-17
-17
-16
-14
-13
-12
-10
-10
-10
-10
-11
-11
-12
-12
-11
-10
-10
-9
-8
-9
-10
-12
-14
-17
-19
-21
-22
-21
-20
-18
-15
-13
-12
-12
-13
-15
-17
-20
-22
-22
-22
-20
-16
-13
-9
-7
-6
-7
-9
-12
-16
-18
-20
-19
-17
-14
-9
-4
1
4
6
7
5
2
-3
-8
-12
-16
-19
-21
-21
-19
-17
-14
-11
-10
-9
-10
-12
-14
-16
-17
-18
-17
-14
-12
-9
-7
-7
-8
-10
-13
-16
-19
-20
-21
-20
-19
-18
-17
-17
-18
-19
-20
-20
-20
-19
-17
-14
-11
-9
-7
-7
-7
-9
-11
-13
-14
-14
-14
-12
-10
-9
-8
-9
-10
-12
-15
-17
-17
-17
-15
-12
-9
-6
-4
-4
-4
-5
-7
-9
-9
-9
-7
-5
-2
1
3
4
3
1
-2
-5
-7
-9
-10
-10
-11
-11
-11
-13
-15
-16
-18
-18
-17
-15
-12
-9
-6
-5
-5
-8
-12
-17
-22
-26
-28
-28
-26
-23
-20
-17
-14
-13
-13
-14
-16
-18
-20
-21
-21
-22
-22
-22
-22
-22
-22
-22
-20
-19
-17
-14
-12
-11
-10
-10
-12
-14
-16
-18
-21
-23
-25
-27
-28
-28
-26
-22
-14
-3
13
33
56
82
109
134
156
173
182
184
177
163
142
117
89
62
36
14
-3
-14
-21
-24
-23
-21
-18
-15
-13
-12
-11
-12
-12
-13
-13
-13
-13
-12
-12
-11
-11
-12
-12
-13
-13
-13
-13
-13
-13
-13
-14
-15
-16
-18
-20
-22
-23
-23
-23
-22
-20
-17
-15
-13
-11
-10
-10
-9
-9
-9
-9
-9
-8
-8
-7
-7
-8
-8
-8
-7
-7
-5
-4
-2
-1
0
0
0
-1
-2
-2
-3
-2
-1
0
2
4
6
7
7
8
8
8
9
10
12
14
17
19
22
24
27
28
29
31
32
33
34
36
39
41
44
47
49
51
52
53
53
53
53
53
54
56
58
61
64
67
69
72
74
75
75
74
72
69
66
62
58
55
52
50
49
47
45
43
39
34
28
23
17
13
10
9
9
9
8
6
3
-1
-6
-11
-15
-16
-16
-14
-10
-6
-2
0
0
-3
-6
-10
-14
-17
-18
-17
-15
-13
-11
-9
-9
-10
-12
-14
-16
-17
-18
-17
-17
-15
-15
-14
-14
-14
-14
-14
-14
-13
-12
-11
-10
-10
-10
-11
-12
-14
-15
-15
-14
-13
-11
-9
-7
-6
-7
-8
-11
-14
-16
-18
-19
-19
-18
-15
-13
-11
-11
-11
-12
-14
-17
-18
-19
-18
-16
-13
-10
-7
-5
-5
-6
-9
-12
-15
-18
-19
-18
-16
-14
-11
-8
-7
-7
-8
-11
-14
-18
-20
-21
-21
-20
-18
-16
-15
-14
-14
-14
-14
-14
-14
-13
-11
-10
-9
-9
-10
-11
-14
-16
-18
-19
-18
-17
-14
-12
-10
-9
-10
-12
-14
-17
-20
-21
-21
-19
-16
-13
-10
-7
-6
-6
-7
-9
-12
-15
-17
-19
-20
-21
-21
-21
-20
-19
-18
-16
-14
-12
-10
-8
-8
-8
-9
-11
-13
-15
-15
-15
-12
-9
-4
1
6
10
12
13
12
9
5
1
-3
-6
-8
-8
-7
-5
-2
0
2
2
1
-2
-5
-9
-13
-16
-18
-20
-20
-19
-18
-16
-16
-16
-16
-18
-21
-23
-25
-26
-25
-24
-21
-17
-13
-10
-7
-7
-8
-10
-14
-18
-23
-26
-29
-30
-29
-27
-25
-23
-21
-20
-19
-19
-20
-20
-20
-20
-19
-18
-18
-18
-19
-22
-25
-29
-32
-35
-35
-32
-26
-16
-2
16
37
62
88
115
139
161
177
187
188
182
169
148
124
96
69
42
19
0
-14
-23
-27
-27
-24
-19
-14
-8
-4
-2
-2
-5
-8
-12
-16
-19
-21
-21
-20
-18
-16
-15
-15
-15
-16
-18
-19
-20
-19
-18
-16
-14
-12
-11
-11
-12
-12
-13
-13
-13
-12
-10
-8
-5
-3
-2
-1
-1
-1
-2
-3
-4
-6
-8
-10
-12
-13
-14
-15
-15
-14
-13
-11
-10
-8
-6
-4
-2
0
2
4
4
4
3
1
-2
-5
-7
-7
-6
-3
2
7
13
18
22
24
24
23
21
19
17
15
15
16
18
21
25
30
35
41
45
50
54
56
58
59
60
60
61
61
62
63
64
65
66
66
67
67
66
66
67
67
67
66
65
63
60
56
52
47
42
37
33
29
26
22
18
13
8
3
-1
-5
-7
-8
-7
-6
-6
-5
-6
-8
-10
-13
-16
-17
-18
-17
-17
-16
-15
-15
-16
-17
-18
-18
-17
-15
-12
-9
-6
-5
-6
-9
-12
-17
-20
-23
-24
-23
-22
-19
-18
-17
-17
-19
-21
-23
-24
-25
-24
-22
-20
-18
-16
-15
-15
-16
-17
-19
-20
-20
-20
-19
-18
-17
-17
-17
-17
-18
-20
-22
-24
-26
-28
-28
-28
-27
-24
-21
-18
-15
-13
-12
-13
-15
-18
-21
-23
-25
-25
-25
-23
-22
-20
-19
-18
-17
-17
-16
-14
-13
-12
-11
-12
-14
-16
-20
-24
-27
-30
-31
-31
-29
-27
-24
-22
-21
-20
-20
-20
-21
-22
-22
-22
-21
-21
-20
-21
-21
-23
-25
-28
-30
-32
-33
-33
-32
-30
-27
-23
-20
-17
-14
-13
-14
-16
-19
-23
-27
-31
-35
-36
-36
-35
-32
-29
-25
-22
-19
-18
-18
-19
-21
-22
-24
-25
-25
-26
-26
-27
-27
-27
-28
-28
-27
-25
-23
-20
-17
-14
-12
-10
-9
-9
-9
-10
-11
-11
-12
-12
-13
-14
-14
-15
-15
-16
-16
-17
-17
-18
-19
-20
-22
-23
-25
-27
-28
-29
-30
-30
-31
-32
-33
-35
-36
-38
-38
-39
-38
-37
-35
-34
-33
-33
-33
-35
-38
-40
-42
-42
-42
-40
-38
-35
-33
-31
-31
-32
-33
-35
-36
-36
-36
-35
-33
-31
-30
-31
-32
-35
-39
-43
-46
-49
-50
-48
-44
-37
-26
-12
6
28
53
81
109
136
158
174
180
176
162
139
110
77
45
17
-6
-21
-30
-34
-33
-31
-30
-29
-31
-33
-36
-40
-42
-43
-42
-41
-39
-38
-37
-36
-36
-35
-35
-34
-34
-34
-34
-36
-38
-40
-43
-45
-45
-44
-41
-37
-32
-27
-23
-21
-22
-24
-28
-32
-37
-40
-43
-43
-43
-42
-40
-38
-37
-35
-34
-34
-33
-33
-32
-32
-32
-33
-35
-37
-39
-41
-42
-43
-42
-40
-38
-35
-31
-29
-26
-25
-25
-26
-28
-30
-31
-32
-32
-31
-29
-26
-23
-19
-15
-12
-10
-8
-7
-7
-6
-6
-5
-3
-1
1
3
5
7
8
10
11
13
15
18
21
24
26
29
30
32
33
34
36
37
39
40
