-124
-69
-31
2
20
26
20
8
-7
-18
-24
-23
-17
-8
0
5
6
1
-7
-15
-22
-24
-22
-16
-9
-3
-1
-2
-6
-13
-18
-21
-20
-15
-9
-3
0
0
-4
-10
-16
-21
-23
-21
-17
-11
-7
-6
-7
-11
-15
-19
-20
-19
-16
-11
-7
-4
-4
-7
-11
-14
-17
-18
-17
-14
-11
-7
-4
-1
4
11
22
39
60
86
115
145
173
198
215
225
225
215
195
166
130
92
53
18
-11
-32
-45
-50
-50
-47
-44
-42
-41
-42
-43
-43
-41
-38
-33
-28
-22
-18
-15
-14
-13
-13
-13
-12
-10
-9
-8
-8
-9
-11
-12
-13
-13
-12
-10
-8
-7
-6
-5
-5
-6
-6
-5
-4
-3
-2
-2
-2
-3
-4
-4
-4
-3
-1
2
5
7
8
8
7
7
7
8
10
13
16
18
19
20
19
19
19
19
21
24
27
31
34
36
38
39
40
41
43
45
48
52
55
58
61
64
66
67
68
70
71
72
74
75
76
77
78
79
79
79
79
79
79
78
78
78
77
76
75
73
70
68
65
62
59
56
53
49
45
41
37
33
30
26
24
21
19
16
13
10
7
3
0
-2
-4
-4
-4
-3
-3
-4
-5
-7
-9
-11
-13
-13
-13
-13
-12
-11
-10
-10
-10
-11
-11
-12
-12
-12
-12
-12
-12
-12
-11
-11
-11
-12
-12
-13
-13
-14
-14
-14
-14
-13
-12
-11
-10
-10
-12
-14
-16
-17
-19
-19
-18
-16
-15
-13
-12
-12
-13
-14
-15
-15
-15
-15
-14
-13
-13
-12
-13
-13
-14
-14
-14
-14
-13
-13
-13
-14
-14
-14
-14
-14
-13
-12
-11
-12
-12
-14
-16
-17
-19
-19
-18
-17
-15
-14
-13
-12
-13
-14
-14
-15
-15
-15
-15
-15
-15
-15
-15
-14
-14
-13
-12
-12
-12
-12
-14
-15
-16
-17
-17
-16
-15
-13
-12
-12
-12
-14
-15
-16
-16
-15
-14
-12
-11
-10
-10
-11
-12
-13
-14
-14
-13
-12
-12
-13
-14
-16
-18
-20
-20
-19
-17
-14
-12
-10
-10
-10
-12
-13
-14
-14
-14
-13
-11
-10
-10
-11
-12
-13
-14
-15
-14
-13
-11
-9
-8
-7
-6
-6
-6
-6
-6
-6
-7
-8
-10
-12
-14
-15
-16
-16
-15
-14
-15
-15
-17
-19
-21
-23
-23
-23
-21
-20
-19
-18
-19
-21
-22
-24
-25
-24
-23
-22
-21
-20
-20
-21
-23
-25
-26
-26
-25
-24
-23
-22
-21
-21
-21
-21
-21
-20
-20
-19
-18
-18
-19
-20
-21
-22
-23
-24
-24
-23
-21
-18
-13
-7
1
12
27
45
66
91
117
144
170
193
210
219
219
208
186
156
119
80
41
6
-21
-41
-52
-57
-57
-55
-52
-49
-48
-47
-46
-44
-41
-37
-32
-28
-24
-21
-20
-20
-19
-19
-18
-16
-14
-12
-11
-10
-11
-12
-12
-13
-12
-11
-9
-7
-5
-4
-3
-3
-4
-4
-4
-4
-3
-2
-1
0
1
1
1
2
3
4
5
5
6
6
7
7
8
9
11
13
14
16
17
17
17
17
17
18
19
21
23
25
27
29
30
32
33
36
38
41
44
47
49
50
52
53
54
57
59
62
64
66
67
68
68
67
68
68
70
71
73
74
74
74
73
72
71
69
68
67
65
63
59
55
51
47
44
41
38
35
33
29
26
21
17
14
11
9
7
6
4
2
-1
-5
-7
-10
-11
-11
-11
-10
-10
-10
-12
-14
-16
-17
-17
-16
-14
-13
-12
-12
-14
-16
-18
-20
-21
-20
-18
-15
-13
-13
-13
-15
-18
-20
-21
-21
-19
-16
-14
-12
-12
-13
-15
-16
-17
-17
-16
-14
-12
-11
-10
-11
-12
-14
-15
-15
-15
-13
-12
-11
-11
-11
-13
-14
-15
-16
-16
-15
-15
-14
-14
-14
-15
-15
-15
-15
-14
-14
-14
-15
-17
-19
-21
-23
-23
-21
-19
-17
-15
-14
-15
-17
-20
-23
-25
-25
-25
-23
-21
-20
-19
-19
-20
-21
-22
-23
-23
-23
-22
-21
-21
-21
-22
-22
-22
-22
-21
-20
-19
-19
-19
-19
-20
-20
-20
-20
-20
-19
-19
-19
-20
-20
-19
-19
-18
-16
-15
-15
-15
-15
-16
-17
-18
-18
-17
-17
-16
-16
-16
-18
-19
-20
-21
-20
-18
-16
-14
-12
-12
-14
-16
-18
-20
-20
-19
-17
-15
-13
-12
-12
-14
-16
-18
-19
-18
-17
-14
-12
-10
-10
-11
-13
-14
-16
-15
-14
-12
-9
-7
-6
-6
-7
-8
-8
-9
-9
-8
-8
-8
-9
-11
-13
-15
-16
-16
-16
-15
-14
-13
-13
-14
-15
-16
-17
-17
-17
-16
-16
-16
-17
-18
-20
-22
-22
-22
-22
-21
-21
-21
-22
-24
-26
-28
-28
-28
-27
-25
-24
-23
-23
-25
-26
-28
-29
-29
-27
-25
-23
-21
-21
-22
-25
-28
-30
-32
-32
-29
-24
-17
-7
4
17
32
50
70
92
117
143
170
193
212
224
225
215
194
162
123
80
37
-1
-32
-53
-64
-66
-63
-56
-49
-43
-40
-39
-38
-38
-37
-34
-29
-24
-20
-17
-16
-16
-18
-19
-21
-21
-20
-18
-16
-14
-14
-14
-14
-15
-14
-13
-11
-9
-8
-6
-6
-7
-8
-9
-10
-9
-8
-6
-4
-3
-3
-3
-4
-4
-3
-1
2
6
9
11
11
11
10
8
8
9
10
13
16
18
19
20
20
19
20
22
25
28
32
36
38
40
40
40
41
42
43
46
49
52
55
57
59
60
61
62
63
64
65
66
67
67
68
68
70
71
72
73
73
72
71
69
68
66
65
65
65
64
63
60
57
52
47
42
37
33
30
27
24
21
18
15
12
9
6
4
2
0
-2
-4
-6
-8
-9
-10
-10
-9
-9
-8
-8
-9
-10
-11
-12
-13
-13
-13
-13
-13
-14
-15
-16
-17
-18
-17
-16
-15
-13
-12
-12
-12
-13
-13
-14
-13
-13
-12
-11
-11
-12
-14
-16
-18
-20
-20
-18
-16
-13
-11
-10
-10
-12
-14
-16
-16
-16
-14
-12
-10
-9
-9
-10
-12
-13
-15
-15
-15
-14
-13
-13
-13
-14
-15
-16
-17
-17
-15
-14
-12
-11
-11
-11
-12
-13
-13
-13
-12
-12
-12
-12
-13
-14
-15
-15
-15
-15
-14
-14
-14
-16
-19
-22
-24
-26
-26
-24
-22
-20
-18
-17
-18
-21
-24
-26
-27
-27
-25
-23
-20
-18
-18
-18
-20
-22
-23
-24
-24
-23
-21
-20
-20
-20
-21
-22
-22
-22
-21
-20
-20
-19
-19
-19
-20
-21
-21
-21
-20
-20
-19
-19
-19
-20
-21
-21
-21
-21
-20
-20
-19
-18
-18
-17
-16
-15
-14
-14
-13
-14
-15
-17
-18
-19
-19
-18
-16
-13
-12
-11
-12
-14
-17
-19
-20
-20
-17
-14
-10
-7
-5
-5
-6
-8
-9
-9
-9
-7
-4
-2
-2
-2
-4
-7
-10
-13
-14
-14
-14
-13
-13
-14
-15
-16
-17
-18
-17
-16
-14
-13
-12
-13
-15
-17
-19
-20
-20
-19
-17
-15
-14
-14
-14
-16
-17
-19
-20
-20
-19
-18
-18
-18
-18
-19
-20
-21
-22
-22
-22
-22
-22
-22
-23
-24
-24
-25
-25
-25
-24
-24
-22
-18
-13
-5
7
23
42
64
89
115
141
167
190
209
221
225
219
202
175
140
98
55
15
-19
-44
-59
-65
-64
-59
-52
-46
-43
-41
-41
-40
-39
-36
-32
-27
-23
-19
-17
-17
-18
-19
-20
-20
-19
-18
-16
-14
-13
-12
-12
-12
-11
-10
-9
-8
-8
-8
-8
-8
-8
-7
-5
-3
-1
0
1
1
0
-1
0
1
3
5
8
10
10
9
8
7
6
7
9
13
17
20
23
23
23
22
21
22
24
27
31
34
37
39
39
39
39
40
42
46
50
55
58
61
63
63
63
63
64
65
68
71
73
75
77
78
79
80
82
83
85
86
86
84
82
80
77
75
74
72
71
69
66
62
57
53
49
46
43
41
40
37
34
29
23
18
13
9
6
5
4
3
2
-1
-4
-7
-9
-11
-12
-12
-11
-11
-11
-11
-13
-14
-15
-15
-14
-13
-11
-10
-10
-10
-12
-14
-15
-16
-16
-15
-14
-13
-13
-13
-13
-14
-14
-13
-13
-12
-11
-11
-11
-12
-14
-15
-15
-15
-13
-12
-11
-11
-12
-13
-14
-15
-14
-13
-11
-9
-7
-7
-8
-10
-12
-13
-13
-12
-10
-7
-5
-5
-6
-8
-11
-14
-16
-15
-14
-11
-8
-6
-6
-7
-9
-11
-12
-13
-13
-11
-10
-10
-11
-12
-14
-16
-17
-17
-15
-13
-10
-8
-8
-9
-11
-13
-15
-16
-15
-14
-12
-10
-9
-10
-11
-13
-15
-16
-17
-16
-16
-16
-16
-17
-18
-19
-19
-19
-18
-17
-17
-17
-19
-21
-23
-25
-26
-26
-24
-22
-20
-19
-18
-18
-20
-21
-22
-23
-23
-22
-21
-20
-19
-19
-19
-20
-20
-20
-19
-18
-18
-18
-18
-19
-20
-20
-20
-20
-19
-18
-18
-18
-19
-20
-21
-22
-22
-22
-21
-20
-18
-18
-17
-17
-16
-16
-16
-16
-16
-16
-17
-18
-19
-19
-19
-17
-15
-13
-10
-9
-8
-9
-10
-11
-11
-11
-10
-9
-8
-8
-9
-12
-15
-18
-19
-19
-17
-15
-12
-10
-10
-11
-15
-19
-23
-25
-25
-24
-21
-18
-16
-15
-15
-16
-18
-20
-21
-20
-19
-18
-18
-18
-20
-22
-24
-25
-25
-24
-22
-20
-19
-18
-18
-19
-21
-22
-23
-23
-22
-21
-21
-20
-20
-21
-22
-23
-24
-25
-25
-25
-22
-19
-13
-4
9
25
45
69
95
123
151
176
198
213
220
217
203
179
146
107
65
24
-12
-40
-59
-69
-70
-66
-60
-53
-48
-45
-45
-45
-45
-44
-41
-36
-31
-26
-22
-21
-21
-23
-25
-26
-27
-25
-23
-21
-18
-16
-14
-14
-13
-13
-13
-13
-12
-12
-11
-11
-10
-9
-8
-7
-6
-5
-5
-5
-6
-7
-7
-7
-5
-3
0
2
4
5
5
5
4
4
6
8
10
13
15
16
16
15
15
16
18
21
26
31
34
37
38
37
36
36
36
38
41
46
50
54
56
58
59
59
61
63
65
68
71
73
75
75
74
74
74
75
77
78
80
82
82
81
80
78
77
75
74
72
70
67
64
60
56
52
48
45
42
38
34
29
23
18
12
8
5
4
3
3
2
1
-1
-5
-8
-10
-12
-13
-12
-11
-11
-11
-12
-14
-16
-18
-19
-19
-19
-17
-16
-16
-16
-16
-17
-18
-19
-19
-18
-17
-17
-16
-16
-16
-16
-15
-15
-14
-14
-14
-15
-15
-16
-17
-17
-17
-15
-14
-12
-11
-11
-11
-12
-13
-13
-12
-11
-10
-9
-9
-10
-12
-15
-17
-17
-16
-14
-11
-9
-7
-8
-9
-12
-14
-16
-16
-15
-13
-10
-8
-8
-9
-11
-14
-16
-17
-17
-15
-13
-11
-10
-11
-13
-16
-18
-19
-19
-17
-15
-13
-11
-11
-12
-13
-15
-16
-16
-15
-14
-12
-11
-11
-12
-14
-16
-17
-18
-17
-16
-15
-15
-15
-15
-16
-17
-17
-18
-18
-18
-18
-19
-20
-21
-23
-23
-23
-22
-20
-19
-19
-19
-20
-22
-24
-25
-25
-24
-23
-22
-21
-20
-21
-22
-24
-25
-25
-24
-23
-21
-19
-19
-18
-19
-20
-21
-21
-21
-20
-20
-19
-18
-18
-19
-19
-20
-20
-19
-19
-18
-18
-17
-16
-15
-13
-11
-9
-7
-6
-5
-6
-7
-9
-11
-12
-12
-11
-10
-9
-10
-11
-13
-16
-18
-19
-19
-18
-15
-13
-12
-12
-13
-16
-18
-20
-21
-20
-18
-15
-12
-11
-12
-13
-15
-17
-18
-18
-17
-16
-15
-15
-16
-18
-20
-22
-23
-22
-21
-19
-17
-16
-16
-17
-18
-19
-20
-19
-18
-16
-15
-14
-15
-16
-16
-15
-12
-5
6
21
40
63
88
114
141
167
189
205
213
210
197
173
141
103
64
27
-5
-29
-45
-54
-57
-57
-56
-55
-54
-54
-54
-53
-51
-48
-43
-39
-35
-31
-28
-26
-24
-22
-21
-19
-18
-18
-17
-17
-17
-17
-17
-16
-15
-14
-13
-13
-13
-13
-13
-13
-12
-10
-8
-6
-5
-4
-3
-3
-3
-3
-2
-1
0
1
2
3
3
4
4
6
7
9
10
12
12
13
13
14
15
17
20
23
26
28
30
31
32
33
34
37
40
44
48
50
52
53
53
54
55
58
61
65
68
70
72
72
71
71
71
73
75
79
82
84
84
83
81
78
76
76
76
77
79
79
78
75
71
66
60
56
52
50
47
45
42
38
34
29
25
21
19
16
14
12
9
5
1
-2
-4
-6
-6
-5
-5
-6
-8
-11
-15
-18
-20
-21
-20
-18
-16
-15
-15
-17
-21
-24
-26
-27
-26
-24
-20
-17
-15
-15
-16
-18
-20
-22
-22
-21
-20
-19
-18
-18
-19
-20
-20
-21
-20
-19
-17
-16
-16
-16
-16
-17
-17
-17
-16
-15
-14
-14
-14
-15
-16
-17
-17
-16
-14
-13
-12
-12
-13
-15
-17
-18
-18
-17
-15
-12
-10
-9
-10
-12
-15
-17
-18
-18
-16
-14
-12
-11
-11
-13
-15
-17
-17
-16
-14
-12
-10
-9
-10
-12
-15
-18
-20
-20
-18
-15
-13
-12
-12
-13
-16
-19
-20
-21
-19
-17
-14
-12
-12
-13
-15
-16
-18
-18
-17
-15
-13
-12
-12
-13
-15
-17
-18
-18
-17
-16
-14
-14
-14
-16
-18
-19
-20
-20
-18
-16
-14
-13
-14
-15
-17
-20
-21
-21
-20
-19
-17
-17
-17
-19
-21
-23
-24
-24
-23
-21
-19
-19
-19
-20
-22
-23
-23
-21
-18
-14
-11
-8
-8
-8
-10
-11
-12
-12
-11
-9
-7
-7
-7
-9
-13
-16
-19
-20
-21
-20
-19
-19
-19
-19
-20
-21
-21
-20
-19
-17
-16
-15
-15
-16
-18
-19
-20
-20
-20
-19
-18
-17
-17
-17
-17
-18
-17
-17
-16
-16
-16
-17
-19
-21
-22
-23
-23
-21
-19
-17
-15
-15
-15
-16
-18
-20
-22
-23
-22
-20
-17
-11
-4
6
19
35
55
78
104
131
158
182
202
216
221
217
202
177
144
104
63
23
-11
-37
-54
-61
-61
-57
-50
-44
-41
-40
-41
-43
-44
-43
-39
-34
-27
-22
-18
-16
-16
-17
-18
-18
-17
-15
-13
-12
-12
-13
-16
-19
-20
-21
-19
-16
-12
-8
-6
-6
-7
-9
-11
-13
-13
-11
-9
-7
-6
-5
-6
-6
-7
-6
-5
-3
0
2
4
4
4
3
3
3
5
8
11
14
16
17
18
18
19
20
23
26
30
33
36
37
38
38
39
40
43
46
49
52
55
57
58
60
61
64
66
69
71
73
73
73
73
72
72
73
73
74
75
75
74
72
71
70
69
69
69
68
67
63
59
53
47
42
38
36
35
33
32
29
26
21
16
11
8
6
5
5
5
4
2
-1
-5
-8
-9
-9
-8
-6
-4
-4
-5
-7
-10
-13
-15
-16
-15
-13
-11
-10
-9
-9
-10
-12
-14
-14
-14
-13
-12
-11
-10
-10
-10
-10
-10
-10
-10
-10
-10
-11
-12
-14
-16
-17
-17
-16
-14
-12
-11
-11
-12
-14
-16
-18
-20
-20
-19
-17
-16
-15
-15
-15
-17
-17
-18
-18
-17
-15
-15
-14
-15
-17
-18
-20
-20
-20
-19
-17
-16
-15
-14
-14
-15
-15
-16
-16
-16
-16
-16
-17
-18
-18
-19
-18
-17
-16
-15
-13
-13
-14
-15
-16
-17
-17
-17
-17
-16
-16
-16
-17
-18
-19
-19
-19
-17
-15
-14
-13
-14
-15
-18
-20
-22
-22
-20
-18
-15
-14
-13
-15
-17
-19
-21
-22
-21
-18
-15
-13
-12
-13
-15
-18
-20
-21
-20
-18
-16
-14
-13
-14
-16
-19
-21
-23
-23
-21
-18
-16
-14
-14
-15
-18
-20
-22
-23
-22
-20
-18
-15
-14
-14
-15
-16
-17
-18
-17
-16
-14
-12
-11
-10
-10
-11
-11
-11
-10
-10
-11
-12
-14
-16
-19
-21
-21
-21
-20
-18
-17
-17
-19
-21
-23
-26
-27
-28
-27
-25
-24
-23
-23
-24
-25
-26
-27
-27
-26
-25
-23
-22
-22
-23
-24
-24
-25
-25
-24
-23
-23
-23
-23
-24
-25
-26
-27
-26
-26
-24
-23
-22
-21
-21
-21
-21
-21
-21
-22
-22
-23
-23
-21
-18
-13
-5
6
19
35
54
74
97
121
146
171
195
214
225
226
216
194
161
121
78
36
0
-28
-46
-56
-58
-56
-51
-46
-43
-40
-37
-35
-32
-28
-25
-22
-19
-18
-18
-18
-19
-19
-18
-17
-15
-14
-13
-13
-14
-15
-15
-15
-13
-12
-10
-8
-7
-6
-6
-7
-7
-7
-6
-5
-4
-2
-1
0
0
1
2
3
4
5
6
6
5
5
4
4
6
7
9
11
13
13
13
13
12
12
13
16
18
21
24
25
26
26
26
26
28
31
34
38
42
45
47
48
49
50
51
53
55
58
61
64
65
66
67
67
68
68
69
70
71
71
71
70
70
69
69
69
70
69
68
66
64
61
57
54
51
48
45
42
38
34
30
26
22
19
17
16
14
12
9
5
1
-3
-5
-6
-6
-5
-4
-3
-3
-5
-7
-10
-11
-12
-11
-8
-6
-4
-3
-4
-7
-10
-13
-15
-15
-14
-11
-9
-8
-7
-9
-11
-13
-15
-15
-14
-13
-11
-10
-10
-11
-13
-15
-16
-17
-16
-15
-14
-13
-12
-13
-13
-14
-15
-15
-14
-13
-13
-13
-14
-15
-17
-18
-18
-18
-16
-15
-14
-14
-15
-16
-19
-20
-21
-20
-18
-16
-14
-13
-13
-14
-16
-18
-19
-19
-18
-16
-15
-14
-15
-16
-18
-20
-21
-21
-21
-19
-17
-16
-15
-15
-15
-16
-16
-16
-16
-15
-15
-15
-16
-17
-18
-19
-20
-19
-18
-16
-14
-14
-14
-15
-16
-17
-18
-18
-17
-16
-15
-15
-15
-17
-19
-21
-22
-22
-21
-20
-18
-16
-15
-15
-15
-15
-15
-15
-16
-16
-17
-17
-18
-19
-19
-18
-17
-16
-15
-14
-14
-15
-17
-18
-19
-19
-18
-17
-15
-14
-14
-15
-16
-18
-19
-18
-17
-15
-12
-10
-10
-11
-13
-15
-18
-19
-18
-16
-14
-11
-8
-7
-6
-7
-8
-8
-8
-8
-7
-6
-6
-6
-8
-9
-11
-12
-12
-11
-11
-10
-11
-12
-14
-16
-18
-20
-20
-20
-19
-19
-20
-21
-23
-25
-27
-28
-27
-26
-23
-21
-20
-20
-22
-24
-26
-27
-27
-27
-25
-24
-22
-22
-22
-23
-24
-25
-25
-25
-24
-23
-22
-22
-21
-22
-22
-22
-23
-23
-24
-24
-25
-24
-22
-18
-12
-3
10
25
42
61
82
106
130
156
180
202
217
225
221
205
178
141
98
55
14
-20
-44
-59
-65
-64
-60
-54
-48
-42
-38
-35
-32
-29
-26
-24
-22
-20
-19
-18
-18
-18
-17
-16
-15
-14
-14
-14
-14
-14
-13
-12
-10
-8
-6
-6
-6
-6
-7
-8
-8
-7
-5
-2
0
1
2
1
0
-1
-1
0
2
6
9
11
13
12
11
10
8
8
9
11
13
15
17
18
18
17
17
17
19
21
24
27
30
32
33
35
36
37
40
42
45
47
49
50
51
52
53
54
56
58
60
63
65
66
67
68
69
70
72
74
76
78
79
79
78
77
76
74
73
72
70
69
67
64
61
58
55
52
49
46
42
39
35
31
27
23
19
16
13
10
8
5
3
1
0
-1
-2
-2
-2
-3
-4
-6
-8
-10
-12
-12
-12
-12
-12
-12
-12
-13
-15
-17
-18
-18
-17
-15
-13
-11
-11
-11
-12
-14
-16
-17
-17
-16
-14
-13
-12
-12
-13
-15
-16
-16
-16
-14
-13
-11
-10
-10
-10
-12
-13
-14
-14
-13
-11
-10
-9
-9
-10
-11
-13
-14
-14
-13
-12
-11
-10
-10
-11
-12
-13
-14
-14
-14
-13
-11
-11
-10
-11
-12
-14
-15
-16
-17
-17
-17
-17
-17
-17
-18
-18
-17
-17
-16
-16
-16
-17
-18
-20
-22
-22
-22
-21
-20
-19
-18
-18
-19
-21
-23
-25
-26
-25
-24
-22
-20
-18
-18
-18
-20
-21
-22
-23
-23
-22
-21
-20
-20
-20
-21
-22
-23
-24
-24
-24
-23
-22
-22
-21
-19
-18
-17
-16
-16
-16
-17
-19
-20
-21
-21
-20
-19
-16
-14
-13
-14
-15
-18
-20
-22
-23
-23
-22
-20
-18
-17
-16
-17
-18
-19
-19
-19
-18
-17
-16
-16
-17
-18
-19
-19
-19
-17
-15
-13
-13
-13
-15
-18
-21
-23
-23
-21
-18
-15
-13
-12
-13
-16
-19
-22
-23
-22
-19
-14
-10
-6
-4
-3
-4
-5
-6
-7
-7
-6
-6
-6
-7
-9
-12
-14
-15
-16
-16
-15
-14
-14
-15
-17
-19
-21
-22
-23
-22
-21
-20
-20
-20
-22
-23
-25
-25
-24
-23
-21
-20
-19
-20
-22
-24
-27
-28
-28
-27
-25
-24
-22
-22
-23
-24
-25
-26
-26
-25
-24
-23
-22
-22
-24
-25
-28
-29
-30
-29
-26
-22
-17
-10
-2
8
21
37
56
79
104
132
160
186
208
222
228
222
204
176
140
98
55
16
-17
-42
-57
-63
-62
-58
-51
-45
-41
-38
-37
-35
-33
-30
-26
-22
-19
-17
-17
-19
-21
-23
-23
-22
-20
-17
-14
-12
-10
-11
-11
-12
-12
-11
-9
-7
-4
-3
-3
-4
-5
-7
-7
-7
-5
-2
0
2
3
3
2
0
0
0
2
5
7
10
11
12
12
11
11
11
12
14
16
18
20
22
23
25
27
29
30
32
33
33
33
33
34
36
39
43
47
51
53
55
55
54
53
53
55
58
62
66
70
72
73
72
71
69
69
70
72
74
77
79
80
80
78
76
74
72
70
68
66
63
59
55
51
47
44
42
40
39
36
33
29
25
20
15
12
9
7
5
3
2
0
-2
-3
-4
-5
-4
-4
-3
-4
-4
-6
-7
-9
-10
-11
-11
-11
-11
-11
-12
-13
-14
-14
-13
-11
-9
-7
-6
-6
-8
-10
-13
-14
-15
-14
-13
-11
-9
-8
-9
-10
-12
-13
-13
-12
-10
-7
-6
-6
-7
-9
-12
-14
-14
-13
-11
-8
-5
-4
-5
-7
-10
-12
-14
-15
-14
-11
-9
-7
-7
-7
-8
-10
-11
-11
-10
-9
-8
-8
-8
-10
-11
-13
-14
-14
-13
-12
-11
-10
-11
-12
-14
-16
-16
-16
-16
-15
-14
-14
-15
-17
-19
-21
-21
-20
-19
-17
-15
-15
-15
-17
-19
-21
-22
-22
-21
-19
-18
-17
-17
-18
-18
-19
-19
-18
-16
-15
-14
-14
-15
-17
-20
-21
-22
-21
-19
-16
-14
-13
-12
-13
-15
-17
-19
-20
-20
-19
-19
-18
-18
-18
-17
-17
-15
-14
-13
-12
-12
-12
-14
-15
-16
-17
-17
-16
-16
-15
-15
-16
-16
-17
-17
-16
-15
-13
-12
-11
-12
-14
-16
-18
-19
-18
-15
-12
-9
-8
-8
-11
-14
-18
-21
-22
-21
-18
-13
-10
-7
-6
-7
-9
-10
-11
-10
-7
-4
-2
-1
-1
-4
-7
-11
-13
-14
-14
-12
-11
-10
-10
-12
-15
-17
-19
-19
-18
-16
-15
-14
-14
-16
-18
-22
-24
-25
-25
-23
-21
-20
-19
-19
-21
-22
-24
-24
-25
-24
-24
-23
-24
-25
-26
-27
-27
-27
-27
-25
-24
-23
-22
-22
-22
-23
-24
-25
-26
-27
-28
-28
-27
-23
-17
-8
5
21
40
62
86
112
139
165
190
211
226
231
225
206
176
137
92
47
7
-25
-48
-60
-63
-61
-56
-50
-46
-44
-43
-42
-40
-37
-32
-27
-22
-19
-18
-18
-19
-21
-21
-21
-20
-18
-16
-15
-15
-15
-16
-15
-14
-12
-10
-8
-7
-6
-7
-8
-9
-10
-9
-7
-5
-4
-3
-3
-4
-5
-6
-5
-4
-1
3
6
8
8
7
5
4
3
5
8
12
16
19
20
20
18
17
17
18
21
24
28
31
33
34
33
32
32
34
36
40
44
48
50
51
52
52
53
54
56
59
62
64
65
65
64
63
63
64
67
69
72
73
74
72
70
68
65
64
64
65
65
64
63
59
55
50
45
40
37
34
32
30
27
23
19
15
11
8
6
4
3
1
-1
-3
-6
-8
-10
-11
-11
-11
-11
-12
-13
-14
-16
-17
-18
-18
-18
-18
-17
-16
-16
-17
-17
-17
-16
-16
-15
-15
-15
-15
-16
-16
-16
-16
-15
-14
-13
-12
-13
-14
-16
-18
-18
-18
-16
-14
-12
-11
-11
-12
-14
-17
-18
-18
-17
-14
-11
-8
-7
-7
-9
-12
-15
-17
-17
-16
-14
-11
-9
-8
-9
-10
-12
-13
-13
-12
-10
-8
-7
-7
-8
-10
-13
-14
-15
-15
-13
-12
-10
-9
-9
-9
-10
-11
-11
-12
-11
-11
-11
-12
-14
-16
-18
-19
-19
-19
-18
-18
-17
-18
-19
-20
-21
-21
-20
-19
-18
-17
-16
-17
-18
-20
-21
-22
-22
-21
-20
-19
-19
-19
-20
-22
-24
-25
-25
-24
-23
-21
-20
-19
-19
-18
-18
-17
-16
-15
-14
-14
-14
-16
-17
-19
-19
-19
-18
-17
-15
-15
-15
-16
-17
-19
-19
-19
-18
-16
-15
-14
-15
-16
-18
-19
-20
-19
-17
-15
-14
-13
-13
-15
-17
-18
-19
-18
-16
-14
-12
-11
-12
-14
-16
-17
-18
-18
-16
-14
-12
-11
-12
-14
-16
-18
-19
-18
-15
-11
-7
-4
-3
-3
-4
-5
-6
-7
-6
-4
-2
-2
-2
-4
-6
-9
-12
-13
-13
-12
-11
-10
-10
-11
-12
-13
-14
-14
-13
-12
-11
-11
-12
-14
-15
-16
-17
-16
-15
-14
-13
-14
-16
-19
-22
-25
-27
-27
-26
-23
-21
-19
-19
-19
-21
-23
-25
-25
-24
-22
-20
-18
-17
-17
-18
-20
-23
-25
-26
-27
-26
-23
-19
-13
-4
8
23
41
63
87
114
142
170
196
218
233
240
235
219
191
154
111
67
25
-11
-36
-52
-58
-57
-52
-46
-42
-39
-38
-38
-38
-36
-32
-27
-21
-16
-13
-12
-13
-15
-17
-17
-17
-15
-13
-11
-10
-10
-11
-12
-13
-13
-11
-8
-5
-2
-1
-1
-2
-3
-4
-4
-2
0
2
4
5
5
3
1
0
1
2
5
8
10
12
12
11
10
10
10
12
15
18
21
23
24
23
23
22
23
26
29
33
37
39
40
40
40
39
40
42
46
50
54
58
61
62
63
64
65
66
68
69
71
72
73
72
72
71
72
73
74
75
77
77
77
77
76
75
75
75
75
75
73
71
67
62
57
51
47
43
39
36
33
29
26
22
19
16
13
11
10
8
6
3
0
-3
-6
-8
-9
-9
-9
-9
-9
-10
-10
-11
-12
-12
-13
-13
-13
-13
-14
-15
-16
-16
-16
-15
-14
-12
-11
-11
-12
-13
-14
-16
-16
-16
-15
-14
-13
-13
-14
-15
-17
-18
-17
-16
-14
-11
-9
-9
-10
-13
-16
-18
-20
-20
-18
-15
-12
-11
-10
-11
-13
-15
-16
-17
-16
-14
-12
-11
-10
-11
-13
-15
-17
-18
-18
-17
-16
-15
-15
-16
-17
-18
-18
-18
-17
-16
-15
-15
-16
-18
-20
-21
-22
-22
-20
-19
-18
-18
-20
-22
-25
-27
-29
-29
-28
-26
-23
-22
-22
-23
-24
-26
-26
-26
-25
-23
-21
-21
-21
-22
-25
-27
-29
-30
-29
-28
-27
-25
-25
-25
-26
-27
-28
-28
-27
-26
-24
-23
-23
-23
-24
-25
-26
-26
-26
-25
-24
-24
-23
-23
-23
-22
-22
-22
-21
-21
-22
-23
-24
-26
-27
-27
-27
-26
-24
-23
-22
-22
-22
-23
-23
-23
-21
-20
-18
-17
-17
-18
-19
-20
-21
-20
-19
-17
-15
-14
-15
-16
-19
-21
-23
-23
-21
-18
-13
-9
-6
-5
-5
-6
-7
-9
-9
-8
-6
-5
-5
-6
-9
-12
-14
-16
-16
-15
-13
-11
-10
-9
-11
-13
-16
-19
-20
-21
-21
-19
-18
-18
-17
-17
-18
-18
-18
-17
-17
-17
-18
-20
-22
-25
-27
-28
-28
-27
-25
-23
-22
-21
-22
-24
-25
-26
-26
-25
-23
-21
-20
-21
-22
-25
-28
-30
-31
-30
-27
-22
-15
-5
6
21
40
63
90
120
152
183
210
230
241
240
228
204
171
132
89
48
10
-22
-45
-59
-66
-67
-64
-58
-53
-48
-45
-44
-43
-41
-39
-35
-30
-25
-20
-17
-14
-14
-14
-14
-15
-14
-14
-13
-12
-12
-12
-13
-14
-15
-15
-14
-12
-10
-7
-5
-3
-2
-2
-2
-2
-1
0
2
3
4
3
3
2
2
2
4
5
7
9
10
10
10
10
10
12
14
18
21
24
26
27
26
25
25
25
27
29
33
36
39
41
41
41
40
41
42
45
48
53
57
60
62
63
64
64
64
65
66
67
68
68
69
69
69
70
70
71
71
72
71
71
70
68
67
65
64
62
60
58
55
52
48
45
42
39
37
35
32
28
24
19
14
10
6
3
1
0
-1
-2
-3
-5
-7
-9
-11
-12
-12
-12
-12
-12
-13
-14
-15
-16
-16
-17
-16
-16
-16
-17
-17
-18
-19
-19
-18
-17
-16
-15
-15
-15
-15
-16
-17
-16
-15
-13
-11
-9
-9
-9
-11
-14
-16
-18
-18
-17
-15
-12
-10
-10
-10
-11
-13
-14
-14
-13
-12
-10
-9
-9
-11
-13
-15
-16
-16
-15
-13
-10
-9
-8
-9
-11
-13
-15
-15
-15
-13
-11
-9
-8
-9
-11
-14
-16
-18
-18
-16
-14
-12
-10
-10
-10
-11
-13
-14
-15
-15
-15
-14
-14
-15
-15
-16
-16
-16
-16
-16
-16
-16
-18
-20
-22
-24
-25
-24
-23
-20
-18
-17
-17
-18
-21
-24
-26
-27
-26
-24
-22
-20
-19
-19
-20
-22
-23
-23
-22
-21
-19
-17
-16
-16
-17
-19
-20
-20
-20
-18
-17
-15
-14
-14
-15
-17
-18
-20
-21
-21
-20
-19
-18
-17
-16
-15
-14
-13
-12
-12
-12
-13
-14
-16
-16
-16
-14
-12
-9
-8
-7
-8
-11
-14
-16
-17
-17
-14
-11
-8
-5
-4
-5
-6
-7
-7
-6
-4
-1
3
5
5
3
-1
-5
-9
-11
-11
-10
-8
-7
-6
-8
-11
-15
-19
-21
-22
-20
-17
-14
-12
-11
-11
-14
-17
-19
-21
-21
-20
-18
-16
-15
-16
-17
-18
-20
-21
-21
-21
-21
-21
-20
-21
-21
-21
-21
-20
-19
-19
-18
-19
-20
-22
-24
-26
-28
-28
-28
-26
-24
-22
-18
-13
-6
5
21
41
66
94
125
156
185
210
228
237
236
223
200
167
126
82
39
0
-32
-54
-66
-70
-68
-63
-57
-52
-49
-49
-49
-49
-47
-44
-39
-33
-28
-24
-21
-21
-21
-22
-23
-23
-22
-21
-19
-18
-17
-17
-17
-16
-16
-14
-13
-11
-10
-9
-9
-10
-10
-10
-9
-8
-7
-5
-4
-4
-4
-4
-3
-2
-1
1
4
5
6
6
6
6
6
8
11
14
17
20
21
20
19
18
17
18
21
25
30
34
37
38
37
36
35
35
37
40
45
50
54
57
59
59
59
60
61
63
66
69
71
72
73
73
72
72
73
74
76
78
79
79
78
77
75
74
73
72
70
69
66
62
58
53
48
44
42
40
38
36
34
30
26
20
15
10
7
4
2
1
-1
-3
-6
-9
-12
-14
-15
-15
-14
-14
-14
-14
-15
-16
-18
-18
-18
-18
-17
-17
-17
-17
-18
-19
-19
-20
-20
-19
-19
-18
-18
-18
-18
-18
-18
-16
-15
-13
-12
-12
-12
-13
-14
-15
-16
-15
-15
-14
-13
-13
-14
-15
-16
-17
-17
-16
-14
-13
-13
-13
-14
-16
-18
-18
-18
-17
-14
-12
-10
-10
-11
-14
-16
-19
-20
-19
-17
-14
-12
-11
-11
-12
-15
-17
-19
-20
-19
-17
-14
-12
-11
-11
-12
-13
-14
-15
-15
-14
-14
-13
-14
-14
-16
-17
-17
-17
-16
-15
-13
-12
-12
-13
-14
-15
-15
-16
-16
-16
-16
-17
-18
-19
-20
-21
-20
-19
-18
-17
-16
-17
-19
-21
-24
-26
-26
-25
-23
-21
-19
-18
-19
-20
-21
-23
-24
-23
-22
-21
-20
-19
-20
-20
-22
-23
-23
-23
-22
-21
-21
-21
-22
-23
-24
-25
-24
-23
-20
-18
-15
-13
-11
-11
-10
-10
-10
-9
-8
-8
-8
-9
-11
-13
-15
-16
-17
-17
-17
-16
-16
-17
-18
-19
-20
-21
-21
-20
-20
-19
-19
-20
-22
-23
-24
-24
-23
-21
-20
-19
-19
-20
-22
-25
-26
-27
-26
-23
-21
-19
-18
-18
-20
-23
-26
-28
-29
-28
-25
-22
-19
-17
-17
-18
-21
-23
-26
-27
-27
-26
-23
-18
-11
-3
9
25
44
68
95
126
158
188
215
234
244
243
229
204
169
127
82
38
0
-31
-52
-65
-69
-68
-65
-60
-57
-55
-54
-53
-52
-49
-44
-39
-33
-29
-27
-26
-27
-29
-30
-31
-30
-28
-25
-23
-22
-22
-22
-23
-24
-24
-23
-21
-19
-17
-16
-15
-15
-16
-16
-15
-14
-12
-10
-8
-7
-7
-7
-7
-7
-7
-6
-4
-2
-1
0
1
2
2
3
5
6
8
10
11
13
14
15
16
18
21
24
27
29
30
31
31
31
32
35
38
42
47
50
53
54
54
55
55
57
60
64
67
71
73
74
74
73
72
72
73
75
78
80
81
81
80
78
76
75
75
75
74
73
71
68
63
58
52
48
44
42
40
37
34
30
26
21
16
13
10
8
7
6
5
3
0
-3
-6
-8
-9
-9
-9
-8
-8
-9
-11
-12
-13
-14
-14
-14
-14
-14
-15
-17
-19
-21
-23
-23
-22
-20
-18
-16
-15
-16
-17
-19
-20
-21
-21
-21
-20
-19
-19
-20
-20
-21
-22
-21
-20
-19
-17
-17
-17
-18
-19
-21
-21
-21
-20
-19
-17
-16
-15
-15
-15
-16
-16
-15
-14
-14
-14
-14
-15
-16
-18
-18
-18
-17
-15
-14
-12
-12
-13
-15
-17
-18
-18
-18
-16
-15
-14
-14
-15
-17
-19
-20
-20
-19
-17
-15
-14
-13
-15
-17
-20
-21
-22
-21
-18
-16
-14
-13
-14
-16
-18
-20
-20
-20
-17
-15
-13
-12
-13
-15
-18
-20
-22
-22
-20
-18
-16
-14
-14
-15
-17
-19
-20
-20
-19
-18
-17
-17
-17
-18
-19
-19
-18
-16
-12
-9
-6
-4
-4
-5
-7
-9
-10
-11
-11
-10
-10
-10
-12
-14
-16
-18
-19
-19
-18
-18
-18
-19
-21
-24
-26
-28
-28
-26
-24
-22
-20
-20
-21
-23
-26
-28
-29
-28
-27
-25
-24
-23
-25
-27
-29
-30
-31
-30
-28
-25
-24
-23
-24
-26
-28
-29
-30
-29
-27
-24
-22
-21
-21
-23
-26
-28
-30
-30
-27
-23
-17
-8
3
17
34
55
80
109
139
170
198
221
236
240
233
215
186
148
106
63
21
-14
-41
-59
-67
-68
-63
-56
-49
-44
-42
-42
-44
-45
-45
-42
-37
-30
-23
-18
-15
-15
-17
-21
-24
-25
-25
-22
-19
-15
-13
-12
-12
-14
-15
-16
-15
-13
-10
-7
-6
-6
-7
-10
-12
-13
-13
-12
-9
-5
-2
0
1
1
1
1
1
2
3
4
5
5
4
4
5
6
8
10
13
15
15
15
14
13
12
14
16
20
25
29
33
35
36
36
37
39
41
44
47
50
52
53
54
54
54
56
59
62
65
68
70
70
69
68
67
67
68
69
71
72
73
72
70
67
65
63
61
60
58
56
53
49
45
40
36
32
29
26
24
21
18
14
10
6
3
1
0
-1
-2
-3
-5
-8
-10
-12
-13
-13
-12
-11
-11
-12
-14
-16
-19
-20
-20
-18
-15
-12
-9
-9
-10
-12
-15
-18
-20
-20
-19
-17
-14
-13
-12
-13
-14
-16
-16
-15
-14
-11
-10
-9
-10
-12
-15
-17
-19
-18
-16
-14
-11
-9
-9
-10
-13
-15
-18
-18
-18
-16
-14
-12
-11
-11
-12
-13
-15
-16
-16
-16
-16
-16
-17
-19
-20
-22
-23
-23
-22
-20
-18
-18
-18
-19
-20
-22
-23
-23
-22
-21
-20
-19
-19
-20
-22
-23
-23
-23
-22
-21
-20
-20
-20
-22
-23
-24
-25
-24
-22
-20
-18
-17
-17
-19
-21
-23
-24
-24
-23
-21
-20
-18
-17
-17
-18
-19
-20
-20
-20
-18
-17
-15
-13
-11
-9
-7
-6
-5
-4
-5
-6
-8
-11
-13
-14
-15
-14
-13
-12
-12
-13
-15
-18
-21
-23
-23
-22
-20
-16
-13
-12
-11
-12
-15
-17
-20
-21
-21
-21
-20
-19
-19
-20
-21
-23
-24
-24
-23
-22
-20
-19
-18
-18
-19
-20
-21
-21
-20
-19
-17
-16
-16
-16
-17
-18
-20
-21
-23
-23
-24
-24
-24
-23
-20
-15
-8
3
18
37
59
85
114
144
175
203
226
241
245
237
215
182
139
92
46
4
-29
-51
-64
-68
-66
-62
-58
-55
-54
-54
-54
-53
-51
-47
-42
-37
-33
-30
-28
-27
-27
-27
-26
-24
-22
-20
-19
-18
-18
-18
-18
-18
-18
-17
-16
-15
-14
-14
-14
-13
-12
-11
-10
-9
-9
-8
-8
-8
-7
-6
-4
-1
1
3
4
3
3
2
1
1
3
5
7
10
12
14
15
16
17
18
20
23
25
28
29
30
30
31
32
35
38
41
45
48
49
50
50
50
51
54
57
62
66
69
70
70
69
68
67
67
69
72
75
77
77
76
74
71
68
67
67
68
71
72
72
70
66
60
54
48
43
40
37
35
33
30
26
21
17
13
10
7
5
2
-1
-5
-9
-13
-16
-18
-18
-17
-15
-14
-13
-14
-16
-19
-22
-23
-24
-24
-23
-22
-21
-21
-22
-24
-26
-27
-27
-27
-25
-24
-24
-24
-24
-25
-26
-26
-26
-24
-23
-22
-21
-20
-21
-21
-21
-21
-20
-19
-18
-17
-16
-17
-17
-18
-18
-18
-18
-17
-17
-17
-18
-20
-21
-22
-22
-21
-19
-17
-16
-15
-16
-18
-20
-22
-22
-22
-20
-17
-16
-15
-15
-17
-20
-22
-23
-22
-21
-19
-17
-16
-17
-19
-21
-23
-24
-24
-22
-20
-17
-16
-17
-19
-21
-24
-25
-24
-22
-20
-17
-16
-16
-17
-20
-22
-23
-23
-22
-19
-16
-14
-14
-15
-17
-20
-21
-21
-20
-16
-13
-10
-8
-8
-9
-12
-15
-17
-18
-18
-18
-17
-17
-18
-20
-21
-23
-24
-25
-25
-25
-25
-26
-27
-28
-29
-29
-29
-28
-26
-25
-25
-26
-28
-30
-32
-33
-33
-31
-29
-27
-26
-26
-27
-29
-30
-32
-32
-31
-30
-29
-27
-27
-27
-28
-29
-29
-28
-27
-25
-24
-23
-24
-27
-30
-33
-35
-35
-33
-29
-22
-14
-3
10
25
43
66
92
121
152
182
209
229
240
239
226
201
166
124
79
36
-2
-32
-52
-63
-65
-63
-58
-52
-49
-48
-49
-51
-52
-51
-48
-42
-35
-28
-22
-19
-18
-20
-22
-25
-27
-27
-25
-22
-19
-16
-15
-15
-15
-16
-17
-16
-15
-13
-11
-10
-10
-10
-11
-12
-12
-11
-8
-5
-2
0
1
1
-1
-3
-4
-5
-4
-3
0
2
3
5
6
6
7
8
10
11
12
12
13
12
12
13
14
17
21
25
29
31
33
34
34
34
35
37
39
43
46
49
51
53
54
55
56
58
59
61
63
64
65
64
64
64
64
65
67
68
69
69
68
66
63
60
57
54
52
50
48
45
43
39
36
33
30
27
24
20
16
12
7
3
-1
-4
-5
-6
-6
-6
-7
-8
-10
-12
-14
-15
-15
-14
-13
-13
-13
-14
-16
-18
-19
-20
-19
-18
-16
-15
-15
-17
-19
-21
-23
-23
-23
-21
-18
-15
-14
-14
-15
-17
-19
-20
-20
-19
-17
-15
-13
-13
-14
-16
-17
-18
-18
-17
-15
-13
-11
-10
-10
-11
-13
-15
-16
-16
-16
-15
-15
-15
-15
-16
-16
-16
-16
-15
-15
-14
-15
-15
-17
-18
-20
-20
-20
-19
-19
-19
-19
-21
-23
-25
-26
-27
-26
-25
-23
-22
-21
-21
-22
-23
-24
-24
-23
-22
-19
-18
-17
-17
-18
-19
-21
-22
-22
-22
-20
-19
-17
-16
-16
-16
-16
-16
-16
-15
-15
-14
-13
-13
-13
-12
-11
-11
-10
-9
-10
-11
-13
-15
-17
-19
-19
-19
-18
-17
-17
-17
-18
-20
-22
-23
-23
-22
-20
-18
-17
-17
-18
-20
-22
-24
-24
-23
-21
-19
-18
-18
-19
-22
-24
-25
-25
-23
-21
-18
-16
-15
-17
-20
-24
-26
-27
-26
-23
-19
-16
-14
-14
-17
-20
-24
-26
-27
-24
-19
-11
-2
8
20
35
54
76
102
131
161
189
211
225
228
219
199
169
132
92
53
16
-14
-38
-53
-61
-63
-61
-57
-52
-48
-45
-45
-46
-47
-48
-47
-44
-40
-35
-30
-26
-25
-24
-25
-26
-25
-24
-21
-17
-14
-12
-12
-14
-16
-19
-21
-21
-19
-16
-13
-10
-8
-8
-10
-12
-13
-13
-12
-9
-5
-2
0
1
1
0
-1
-2
-1
1
4
7
9
11
11
11
11
11
12
14
16
18
19
21
23
25
27
29
32
35
38
40
41
43
44
46
49
52
56
59
61
62
61
59
58
58
60
63
68
72
77
79
80
79
76
74
73
73
74
76
77
77
76
73
69
65
62
60
58
57
56
53
49
43
37
31
26
22
20
19
18
17
14
11
6
2
-2
-5
-7
-8
-7
-7
-8
-9
-10
-12
-13
-14
-14
-14
-14
-15
-16
-18
-20
-21
-22
-22
-22
-21
-20
-19
-19
-21
-22
-23
-23
-23
-22
-20
-19
-19
-20
-21
-22
-24
-24
-24
-22
-20
-19
-18
-18
-18
-20
-21
-21
-21
-20
-18
-16
-15
-15
-16
-17
-18
-20
-21
-21
-21
-21
-21
-20
-19
-18
-17
-15
-14
-13
-13
-14
-16
-18
-19
-20
-19
-18
-16
-14
-12
-12
-13
-15
-17
-18
-18
-17
-15
-13
-12
-13
-14
-17
-21
-23
-24
-22
-19
-15
-12
-9
-8
-9
-12
-14
-16
-17
-17
-16
-14
-13
-13
-14
-15
-16
-17
-16
-14
-12
-9
-8
-8
-9
-10
-12
-14
-14
-13
-12
-10
-9
-10
-11
-13
-16
-17
-18
-18
-17
-15
-15
-15
-16
-18
-20
-22
-22
-21
-19
-17
-16
-15
-16
-17
-19
-21
-23
-23
-23
-23
-23
-23
-24
-25
-26
-26
-26
-25
-24
-22
-22
-22
-24
-26
-28
-30
-30
-29
-27
-24
-22
-20
-21
-22
-25
-28
-30
-31
-29
-25
-18
-8
5
20
38
60
84
111
140
168
194
215
229
233
225
206
176
139
97
55
17
-16
-40
-54
-61
-62
-59
-55
-51
-49
-49
-49
-49
-48
-45
-40
-34
-28
-23
-20
-19
-20
-22
-24
-24
-23
-20
-17
-14
-12
-11
-11
-12
-13
-13
-13
-12
-10
-9
-8
-8
-9
-10
-10
-10
-8
-5
-2
1
3
4
3
1
-1
-2
-2
-1
1
4
6
8
9
8
8
8
8
10
12
15
18
20
22
24
25
27
28
30
31
33
34
36
37
39
41
44
47
50
53
55
55
55
54
53
53
54
56
59
61
64
65
64
63
61
60
61
63
65
69
71
72
71
69
65
60
56
53
50
48
47
44
41
37
32
28
23
20
18
16
14
12
9
5
1
-2
-6
-9
-11
-12
-13
-14
-15
-16
-17
-17
-18
-17
-17
-17
-17
-18
-19
-20
-21
-21
-21
-20
-19
-19
-19
-20
-21
-22
-23
-23
-22
-21
-19
-18
-18
-19
-20
-22
-22
-22
-21
-19
-17
-16
-15
-17
-19
-21
-22
-23
-21
-19
-16
-14
-13
-14
-16
-18
-21
-22
-21
-20
-17
-15
-14
-14
-15
-17
-19
-21
-20
-19
-16
-14
-12
-12
-13
-15
-17
-18
-19
-18
-17
-15
-14
-14
-14
-16
-18
-19
-21
-21
-21
-21
-21
-21
-21
-22
-22
-22
-21
-21
-20
-21
-22
-23
-25
-27
-29
-29
-28
-26
-23
-21
-20
-20
-21
-23
-24
-24
-23
-22
-21
-20
-20
-21
-23
-25
-26
-27
-26
-25
-23
-21
-19
-18
-18
-17
-17
-16
-14
-13
-11
-10
-9
-9
-10
-12
-13
-13
-13
-13
-13
-14
-15
-16
-18
-20
-21
-21
-21
-20
-20
-20
-21
-22
-22
-23
-23
-21
-20
-18
-17
-17
-18
-20
-22
-23
-24
-23
-21
-19
-18
-17
-18
-20
-22
-24
-25
-24
-22
-20
-18
-17
-18
-20
-22
-24
-25
-25
-22
-19
-16
-15
-15
-17
-21
-25
-28
-29
-27
-21
-12
0
15
31
49
70
94
120
148
177
205
227
241
245
236
215
183
143
98
53
12
-21
-45
-59
-65
-63
-58
-51
-45
-41
-40
-42
-44
-45
-45
-42
-37
-31
-25
-20
-18
-19
-22
-25
-29
-31
-30
-28
-24
-20
-17
-15
-16
-18
-20
-22
-22
-21
-18
-14
-11
-8
-7
-7
-8
-9
-10
-9
-8
-6
-4
-3
-2
-2
-3
-4
-4
-3
-2
-1
1
2
4
5
6
8
10
12
14
16
17
18
19
19
20
22
24
27
30
33
36
37
38
40
41
44
47
51
54
57
59
60
60
60
60
62
65
68
72
75
76
76
75
73
71
70
70
72
73
74
74
73
70
67
64
61
59
57
55
53
50
46
40
35
30
25
22
20
18
17
15
12
8
4
1
-2
-4
-5
-6
-6
-8
-9
-11
-13
-14
-14
-14
-13
-13
-14
-16
-19
-23
-25
-26
-26
-23
-20
-17
-15
-15
-16
-20
-24
-27
-28
-28
-26
-23
-20
-18
-18
-19
-21
-23
-24
-25
-24
-22
-21
-19
-18
-19
-19
-20
-20
-20
-19
-18
-16
-16
-16
-17
-18
-19
-19
-19
-19
-18
-18
-18
-18
-18
-18
-17
-16
-14
-12
-11
-12
-13
-15
-17
-18
-19
-18
-16
-15
-13
-13
-13
-15
-16
-18
-18
-18
-17
-15
-14
-14
-15
-17
-19
-20
-20
-19
-17
-14
-12
-11
-12
-14
-17
-19
-21
-21
-19
-17
-15
-14
-14
-16
-18
-20
-21
-21
-19
-18
-16
-16
-16
-18
-20
-21
-22
-21
-19
-17
-15
-13
-13
-15
-17
-19
-21
-22
-21
-20
-18
-16
-16
-16
-16
-17
-17
-17
-17
-17
-17
-18
-20
-22
-24
-26
-26
-25
-22
-20
-18
-18
-19
-20
-23
-25
-26
-25
-23
-21
-18
-16
-15
-16
-16
-17
-17
-16
-14
-12
-10
-10
-10
-12
-15
-17
-19
-19
-19
-18
-16
-15
-15
-16
-17
-18
-19
-19
-19
-19
-19
-19
-20
-21
-22
-22
-22
-21
-19
-18
-18
-18
-19
-20
-21
-21
-21
-20
-20
-19
-19
-20
-21
-22
-22
-22
-20
-18
-16
-14
-14
-16
-18
-21
-23
-23
-21
-18
-14
-11
-10
-11
-13
-17
-20
-22
-21
-17
-10
-1
10
23
37
54
73
96
123
152
182
209
231
243
245
234
211
179
139
96
54
16
-15
-38
-53
-60
-61
-57
-51
-44
-39
-35
-32
-31
-30
-28
-26
-22
-18
-15
-12
-11
-11
-14
-16
-18
-19
-19
-17
-14
-12
-10
-10
-12
-14
-16
-17
-17
-14
-11
-8
-5
-4
-4
-5
-7
-8
-7
-6
-4
-1
1
2
1
-1
-3
-4
-3
-1
2
6
10
12
13
13
12
12
12
13
16
18
21
24
25
26
27
28
30
32
35
37
40
42
44
45
47
49
53
56
59
62
64
65
65
65
66
67
70
73
76
78
79
79
78
76
76
76
78
81
84
86
86
84
81
76
72
70
68
68
68
67
64
60
54
48
42
37
33
32
31
29
27
23
18
13
7
3
1
1
2
3
3
2
0
-4
-7
-10
-11
-10
-9
-7
-6
-5
-7
-9
-11
-13
-13
-13
-11
-10
-9
-9
-10
-11
-13
-15
-15
-15
-14
-13
-12
-13
-14
-15
-17
-17
-17
-17
-16
-15
-14
-15
-16
-17
-18
-19
-18
-17
-15
-14
-14
-15
-16
-18
-19
-19
-18
-16
-14
-12
-11
-11
-13
-15
-17
-18
-18
-17
-15
-14
-13
-13
-13
-15
-17
-18
-18
-18
-16
-14
-13
-12
-13
-13
-15
-15
-16
-16
-16
-16
-15
-15
-15
-16
-16
-16
-15
-15
-14
-14
-14
-15
-15
-15
-15
-14
-12
-11
-11
-11
-13
-15
-17
-18
-19
-18
-16
-14
-12
-12
-13
-15
-17
-18
-19
-18
-16
-13
-11
-11
-11
-13
-16
-18
-20
-20
-18
-16
-13
-12
-11
-12
-14
-16
-17
-18
-17
-15
-14
-12
-12
-13
-15
-16
-18
-18
-18
-17
-15
-14
-13
-14
-14
-15
-15
-15
-14
-14
-14
-14
-15
-17
-20
-21
-22
-23
-22
-21
-20
-20
-21
-22
-24
-25
-25
-24
-23
-21
-19
-18
-18
-18
-20
-21
-22
-22
-22
-21
-20
-19
-20
-21
-22
-23
-23
-23
-22
-21
-20
-19
-19
-20
-20
-20
-19
-18
-16
-15
-15
-15
-16
-18
-19
-20
-20
-19
-18
-17
-16
-15
-16
-17
-17
-16
-15
-13
-10
-8
-6
-5
-6
-6
-7
-8
-7
-6
-5
-5
-6
-7
-10
-13
-15
-16
-16
-15
-13
-12
-12
-14
-16
-18
-19
-20
-19
-17
-14
-12
-11
-12
-14
-17
-19
-20
-19
-18
-15
-14
-13
-13
-15
-18
-21
-22
-22
-20
-17
-14
-12
-12
-13
-15
-17
-20
-21
-21
-19
-17
-15
-13
-12
-13
-14
-16
-18
-19
-21
-22
-22
-21
-18
-11
-2
10
27
46
68
93
119
146
173
198
219
233
239
234
216
187
148
103
56
13
-22
-47
-61
-65
-63
-57
-50
-46
-43
-43
-44
-44
-42
-39
-33
-27
-22
-19
-17
-18
-20
-22
-22
-22
-20
-18
-16
-14
-13
-12
-13
-14
-14
-14
-13
-12
-11
-10
-9
-8
-8
-7
-6
-4
-3
-2
-2
-1
-1
-1
0
2
4
5
6
7
7
6
6
6
8
10
12
15
17
18
18
18
17
18
19
22
25
29
32
34
35
35
35
36
38
41
45
49
53
56
57
58
58
58
59
61
65
69
73
76
77
78
77
77
77
77
79
81
83
84
85
84
83
82
80
79
79
78
78
76
74
71
68
65
62
59
56
54
50
46
42
36
30
25
21
18
16
14
12
10
7
4
0
-3
-5
-6
-6
-6
-6
-6
-7
-8
-9
-10
-11
-11
-12
-12
-12
-13
-15
-16
-17
-18
-17
-16
-14
-13
-12
-11
-12
-13
-14
-15
-15
-14
-13
-12
-11
-11
-10
-10
-10
-10
-9
-8
-7
-6
-7
-7
-8
-9
-10
-9
-8
-7
-5
-5
-5
-7
-9
-11
-12
-12
-11
-9
-7
-6
-6
-7
-9
-11
-12
-12
-10
-8
-5
-2
-2
-2
-5
-8
-10
-12
-13
-12
-10
-8
-7
-7
-8
-10
-11
-12
-11
-10
-8
-6
-6
-6
-8
-10
-12
-14
-14
-13
-12
-10
-9
-9
-10
-11
-13
-13
-13
-12
-10
-9
-8
-8
-9
-10
-12
-13
-14
-13
-13
-12
-12
-13
-14
-15
-15
-16
-15
-14
-13
-13
-13
-14
-17
-19
-20
-21
-20
-18
-17
-15
-15
-15
-16
-18
-19
-19
-18
-16
-15
-14
-13
-15
-17
-19
-20
-21
-20
-18
-16
-14
-12
-12
-13
-15
-17
-18
-18
-17
-16
-14
-13
-13
-13
-13
-14
-14
-14
-14
-14
-15
-16
-17
-18
-18
-18
-16
-14
-12
-10
-9
-9
-10
-12
-14
-15
-15
-14
-12
-11
-11
-11
-12
-13
-13
-13
-12
-10
-9
-8
-8
-9
-11
-14
-16
-16
-14
-11
-8
-5
-4
-4
-6
-9
-12
-13
-13
-11
-8
-4
-1
1
1
0
-1
-2
-3
-2
-1
0
0
-1
-2
-5
-7
-9
-9
-9
-8
-6
-6
-6
-8
-11
-14
-16
-17
-17
-15
-13
-11
-10
-9
-10
-11
-12
-12
-12
-12
-12
-12
-13
-15
-17
-19
-21
-22
-22
-21
-20
-20
-19
-19
-19
-20
-19
-19
-19
-18
-18
-19
-19
-21
-22
-22
-22
-21
-20
-20
-20
-21
-23
-25
-25
-24
-19
-12
0
14
32
52
75
100
126
154
181
204
221
230
227
212
186
151
111
69
30
-3
-28
-44
-53
-55
-54
-51
-48
-46
-44
-43
-42
-41
-40
-38
-36
-32
-29
-25
-21
-18
-15
-14
-14
-15
-16
-17
-18
-16
-14
-11
-8
-6
-5
-6
-7
-9
-11
-11
-10
-7
-4
-2
0
1
0
-2
-3
-4
-3
-1
2
4
7
8
8
7
5
4
4
5
7
9
12
13
15
15
16
17
18
21
23
26
28
30
31
31
32
32
33
35
37
39
41
43
45
46
47
49
51
53
56
58
60
61
62
63
63
64
65
66
67
68
68
68
67
67
68
69
71
72
74
75
74
72
69
66
62
58
55
53
51
48
46
43
40
36
32
29
26
22
19
16
13
10
6
4
1
0
-2
-3
-4
-6
-8
-10
-12
-13
-13
-13
-12
-11
-11
-12
-13
-15
-18
-19
-20
-19
-18
-16
-15
-14
-14
-15
-16
-17
-18
-17
-16
-15
-15
-15
-16
-17
-18
-19
-19
-17
-15
-14
-12
-12
-13
-15
-17
-18
-18
-17
-15
-12
-10
-9
-10
-11
-14
-16
-17
-17
-16
-13
-11
-9
-9
-10
-12
-15
-17
-18
-18
-18
-16
-15
-13
-13
-13
-13
-13
-13
-13
-13
-12
-13
-13
-14
-16
-17
-18
-18
-19
-19
-20
-21
-23
-24
-26
-27
-27
-26
-25
-23
-23
-23
-24
-26
-28
-29
-29
-29
-27
-26
-24
-23
-23
-24
-25
-27
-28
-28
-29
-28
-28
-28
-28
-28
-28
-27
-25
-23
-22
-21
-20
-21
-23
-25
-26
-28
-28
-28
-27
-25
-25
-24
-25
-25
-26
-26
-26
-25
-24
-24
-23
-24
-25
-26
-26
-26
-25
-24
-22
-21
-21
-21
-22
-23
-24
-25
-24
-23
-22
-22
-22
-24
-25
-27
-27
-27
-25
-22
-20
-18
-18
-19
-20
-23
-24
-25
-24
-22
-20
-17
-16
-16
-16
-17
-17
-17
-17
-15
-15
-14
-15
-17
-20
-23
-24
-25
-25
-24
-22
-22
-23
-25
-27
-30
-31
-31
-29
-26
-23
-21
-21
-22
-25
-29
-31
-33
-33
-33
-31
-30
-30
-31
-32
-34
-36
-36
-35
-33
-31
-30
-30
-31
-33
-36
-38
-39
-39
-38
-36
-35
-34
-33
-34
-35
-37
-38
-39
-39
-39
-38
-37
-34
-29
-22
-11
3
22
44
69
95
122
148
171
189
201
204
197
180
152
116
75
33
-6
-38
-61
-74
-79
-77
-72
-67
-64
-63
-64
-65
-66
-66
-62
-57
-51
-45
-41
-38
-37
-38
-38
-38
-37
-35
-33
-32
-31
-31
-32
-33
-34
-33
-32
-30
-28
-26
-26
-26
-27
-28
-28
-28
-26
-24
-21
-20
-20
-21
-22
-24
-25
-24
-23
-20
-18
-16
-16
-16
-17
-19
-19
-18
-16
-12
-9
-6
-4
-3
-4
-5
-6
-6
-4
-2
1
5
7
9
11
12
12
13
15
17
19
21
24
26
28
31
33
36
39
41
42
42
41
39
36
34
34
35
37
40
43
45
45
43
41
38
35
34
33
34
34
33
31
27
21
15
8
3
-1
-4
-5
-6
-8
-11
-16
-22
-28
-34
-38
-38
-34
-27
-16
-3
13
