0
0
-1
-1
-1
-1
-1
-1
-2
-2
-2
-2
-2
-2
-1
0
1
3
5
6
7
8
9
9
9
8
8
8
8
8
8
8
8
8
8
8
8
7
6
6
5
4
3
2
1
-1
-3
-5
-7
-9
-10
-11
-12
-12
-11
-9
-8
-6
-5
-4
-5
-5
-6
-7
-7
-5
-1
5
14
26
41
58
75
93
110
124
133
137
134
122
103
77
46
12
-22
-53
-79
-97
-107
-109
-105
-96
-84
-73
-62
-54
-49
-45
-43
-42
-40
-37
-34
-30
-25
-21
-18
-16
-14
-13
-13
-13
-13
-13
-13
-13
-12
-12
-11
-11
-11
-11
-11
-10
-9
-8
-7
-5
-4
-3
-2
-1
-1
-2
-3
-4
-4
-4
-4
-3
-1
1
3
4
5
5
5
5
4
3
3
3
4
5
7
8
10
12
13
15
16
16
17
17
17
17
18
18
19
20
21
22
24
25
26
27
28
28
28
27
26
25
24
23
22
21
19
18
17
15
14
13
12
12
11
11
11
11
11
11
11
11
10
8
7
5
3
2
1
0
0
-1
-1
-1
-1
-2
-2
-3
-4
-5
-5
-5
-6
-6
-6
-5
-5
-5
-5
-6
-6
-6
-6
-6
-6
-6
-6
-5
-4
-4
-3
-3
-3
-3
-4
-5
-6
-7
-8
-9
-9
-9
-8
-7
-6
-5
-4
-4
-4
-4
-5
-5
-5
-6
-6
-6
-6
-6
-6
-6
-7
-7
-7
-7
-7
-6
-6
-6
-6
-6
-5
-5
-5
-4
-4
-3
-2
-1
0
0
1
2
2
3
3
4
4
4
4
3
3
3
3
3
3
3
3
2
1
0
-1
-3
-4
-6
-6
-7
-8
-9
-10
-11
-13
-14
-15
-15
-14
-13
-11
-9
-8
-8
-8
-10
-11
-12
-10
-7
-1
9
21
35
50
67
83
98
112
122
128
129
123
109
87
59
27
-7
-40
-68
-89
-102
-106
-103
-94
-84
-72
-63
-57
-53
-52
-51
-50
-48
-45
-40
-34
-28
-23
-19
-16
-15
-15
-15
-15
-15
-15
-14
-14
-13
-13
-13
-12
-12
-11
-10
-8
-6
-4
-3
-2
-3
-3
-4
-6
-6
-7
-6
-6
-4
-3
-1
0
1
2
2
2
2
2
3
3
4
4
5
5
6
6
7
8
9
10
11
13
14
16
17
19
20
22
23
24
25
26
26
26
25
24
24
23
22
22
22
22
22
22
22
21
20
19
17
16
15
14
14
14
14
14
14
14
13
13
12
11
11
10
10
9
8
6
4
2
0
-2
-3
-4
-4
-3
-2
-1
0
1
1
1
0
-1
-3
-4
-4
-4
-4
-4
-4
-4
-4
-5
-5
-6
-7
-8
-8
-8
-8
-8
-8
-8
-8
-8
-8
-9
-9
-9
-9
-9
-9
-8
-7
-6
-6
-5
-5
-4
-5
-5
-6
-6
-6
-7
-7
-7
-6
-6
-7
-7
-8
-8
-9
-10
-10
-9
-8
-7
-6
-5
-4
-4
-4
-4
-5
-5
-5
-4
-3
-1
2
4
5
6
6
6
5
3
2
1
0
0
1
1
2
2
2
2
0
-1
-3
-4
-6
-7
-9
-10
-12
-13
-15
-16
-16
-16
-16
-15
-13
-12
-12
-12
-13
-15
-17
-18
-19
-18
-15
-10
-2
8
21
35
51
68
85
102
117
129
135
134
125
107
81
48
12
-25
-59
-87
-106
-118
-120
-116
-107
-96
-84
-74
-66
-60
-56
-53
-50
-48
-45
-41
-38
-34
-31
-28
-25
-23
-21
-19
-17
-15
-14
-13
-12
-11
-11
-11
-12
-12
-12
-12
-11
-11
-10
-9
-8
-8
-7
-7
-6
-6
-5
-5
-4
-2
-1
1
2
3
4
4
3
3
2
2
2
2
3
5
6
7
8
9
10
10
10
11
12
14
15
17
19
21
23
24
24
24
24
24
24
25
25
25
25
25
25
24
23
22
21
20
20
20
20
21
21
21
21
20
19
18
17
16
16
16
17
17
17
17
16
15
13
11
8
6
5
3
2
1
1
0
0
-1
-2
-2
-3
-4
-4
-5
-5
-5
-5
-5
-4
-4
-4
-4
-4
-4
-5
-6
-6
-7
-7
-7
-6
-5
-4
-3
-3
-3
-4
-5
-7
-8
-9
-10
-9
-8
-7
-5
-3
-1
0
0
0
0
-1
-2
-3
-4
-4
-5
-6
-7
-7
-8
-8
-7
-7
-7
-7
-7
-7
-8
-9
-9
-10
-9
-9
-8
-6
-4
-2
-1
0
1
1
1
1
0
0
0
-1
0
0
0
1
2
3
4
5
5
5
4
3
1
-1
-3
-6
-7
-9
-10
-10
-11
-11
-11
-11
-11
-11
-11
-10
-10
-9
-9
-9
-9
-9
-9
-9
-8
-5
0
8
18
31
46
63
82
100
117
131
141
144
139
125
102
73
37
0
-37
-70
-96
-114
-122
-123
-116
-105
-92
-80
-69
-61
-56
-52
-50
-48
-45
-42
-39
-34
-30
-26
-22
-20
-17
-16
-15
-14
-13
-12
-11
-10
-10
-9
-9
-8
-7
-7
-6
-6
-5
-5
-5
-5
-4
-4
-4
-4
-3
-3
-3
-2
-2
-1
-1
0
1
2
3
3
4
5
6
7
8
9
10
11
12
13
14
14
14
14
14
15
15
17
18
20
22
24
26
27
28
29
29
28
27
26
25
24
23
22
22
22
23
23
24
24
25
25
25
25
24
23
22
21
20
19
18
17
16
15
14
14
13
12
11
10
9
8
6
4
2
1
-1
-3
-4
-4
-4
-4
-4
-4
-4
-4
-5
-7
-8
-9
-10
-9
-8
-7
-5
-3
-1
0
0
0
-2
-3
-5
-6
-7
-6
-6
-4
-3
-2
-2
-3
-4
-5
-6
-7
-7
-7
-6
-5
-4
-3
-2
-2
-3
-4
-4
-5
-5
-5
-4
-3
-3
-3
-3
-4
-5
-7
-9
-11
-13
-13
-13
-12
-10
-8
-6
-3
-1
1
3
4
5
5
4
4
3
2
1
0
-1
-1
-2
-2
-2
-1
0
1
2
3
3
3
3
2
0
-2
-4
-7
-9
-11
-12
-13
-14
-14
-14
-14
-13
-12
-11
-10
-9
-8
-7
-6
-6
-6
-6
-5
-1
4
12
23
37
53
71
89
106
120
130
134
132
121
103
78
48
14
-21
-54
-82
-103
-116
-120
-117
-109
-97
-84
-71
-61
-54
-49
-47
-46
-45
-43
-40
-36
-31
-26
-22
-19
-17
-17
-17
-17
-18
-17
-17
-15
-14
-12
-11
-10
-10
-10
-10
-9
-9
-8
-7
-5
-4
-2
-1
-1
-1
-1
-1
-2
-2
-3
-3
-3
-2
-2
-1
0
1
2
3
4
5
6
6
7
7
8
8
9
9
10
11
12
13
14
15
16
18
19
21
22
23
23
23
23
22
21
20
19
18
18
18
18
19
20
20
21
21
22
22
21
20
19
18
17
15
14
13
12
11
10
10
10
10
11
11
11
10
9
7
5
2
-1
-3
-6
-8
-9
-10
-10
-9
-9
-9
-9
-9
-9
-9
-9
-9
-9
-9
-8
-8
-7
-7
-7
-7
-8
-8
-8
-8
-8
-8
-8
-8
-8
-8
-9
-8
-8
-8
-7
-6
-5
-4
-3
-3
-2
-2
-3
-3
-3
-4
-4
-4
-5
-5
-6
-6
-7
-7
-8
-8
-8
-8
-8
-8
-7
-7
-6
-5
-4
-4
-3
-3
-3
-3
-3
-3
-3
-3
-3
-2
-1
0
1
3
4
5
6
7
7
7
6
6
5
3
2
0
-2
-4
-7
-10
-12
-15
-17
-19
-20
-19
-19
-17
-15
-13
-11
-9
-9
-8
-9
-9
-9
-8
-7
-4
1
8
16
26
38
52
67
83
98
112
122
127
124
114
95
68
36
0
-35
-67
-92
-109
-117
-117
-110
-98
-85
-72
-61
-53
-48
-45
-44
-43
-41
-39
-35
-31
-27
-22
-19
-16
-14
-13
-12
-12
-12
-12
-12
-12
-12
-12
-12
-12
-11
-10
-9
-8
-7
-7
-7
-7
-8
-9
-9
-9
-8
-7
-5
-4
-2
-1
-1
-1
-1
-2
-2
-1
0
1
3
5
7
9
10
11
12
13
14
14
15
15
15
15
14
15
15
16
17
19
22
24
26
27
28
27
26
25
23
22
21
21
21
22
22
23
23
22
22
21
19
18
17
17
16
15
15
14
13
12
11
10
10
9
9
9
8
8
7
6
4
3
1
0
-1
-2
-2
-3
-3
-4
-4
-5
-7
-8
-9
-10
-10
-10
-9
-7
-6
-4
-3
-3
-3
-4
-6
-8
-10
-11
-12
-12
-11
-10
-8
-7
-5
-4
-3
-3
-3
-4
-5
-5
-6
-6
-7
-7
-6
-6
-6
-5
-4
-4
-3
-3
-4
-4
-5
-6
-7
-8
-9
-10
-10
-10
-10
-10
-10
-9
-8
-6
-4
-2
0
1
2
3
3
2
1
1
0
0
1
2
3
5
6
7
7
7
5
4
2
0
-1
-2
-3
-3
-3
-4
-5
-6
-7
-9
-11
-13
-14
-14
-14
-14
-13
-12
-11
-11
-10
-10
-10
-9
-7
-4
1
8
17
28
41
55
71
88
103
116
125
127
122
108
87
58
23
-13
-47
-77
-100
-114
-120
-117
-108
-96
-83
-71
-61
-55
-50
-48
-46
-44
-41
-37
-32
-27
-23
-20
-17
-16
-16
-16
-16
-16
-15
-14
-13
-11
-10
-9
-8
-8
-7
-7
-6
-6
-5
-4
-4
-3
-3
-3
-3
-2
-2
-1
0
1
1
2
2
2
1
1
0
0
0
1
3
4
6
8
10
11
11
11
11
11
11
12
12
14
16
18
19
21
22
22
23
23
23
23
24
25
26
27
28
28
28
27
25
24
23
22
22
22
22
22
21
20
19
17
16
14
13
13
13
14
15
15
15
14
13
11
8
6
4
3
2
3
3
4
5
5
4
3
1
0
-2
-4
-5
-6
-6
-6
-6
-5
-5
-5
-5
-6
-6
-6
-5
-5
-4
-4
-3
-3
-4
-5
-6
-7
-7
-7
-7
-6
-4
-3
-1
0
0
0
0
-1
-3
-3
-4
-4
-4
-3
-3
-2
-1
-1
-1
-1
-1
-1
-2
-2
-3
-4
-5
-6
-6
-7
-6
-6
-5
-4
-2
-1
0
2
2
3
3
3
4
4
4
5
5
6
6
7
7
6
6
5
5
4
3
3
2
2
2
1
0
-1
-2
-4
-5
-7
-9
-10
-11
-12
-12
-11
-11
-10
-9
-8
-8
-8
-8
-9
-9
-9
-8
-6
-1
6
16
28
44
61
79
98
114
126
133
133
124
107
81
50
15
-21
-54
-82
-103
-116
-120
-117
-108
-96
-84
-72
-62
-55
-50
-48
-47
-46
-44
-41
-37
-32
-26
-21
-17
-14
-11
-10
-10
-11
-12
-13
-13
-14
-14
-14
-14
-14
-14
-13
-13
-11
-9
-7
-4
-2
0
1
2
2
0
-1
-3
-4
-5
-6
-5
-4
-3
-2
0
1
3
4
5
6
8
9
10
10
11
11
11
11
11
11
12
13
14
16
19
21
24
26
27
28
28
28
27
26
25
25
24
24
23
23
23
24
24
24
24
24
24
24
23
23
22
22
21
20
19
17
16
15
14
13
12
12
11
10
9
9
8
8
7
6
6
5
4
3
1
0
-1
-2
-2
-1
-1
1
2
2
2
1
0
-2
-4
-6
-8
-9
-10
-10
-9
-8
-6
-5
-4
-3
-2
-1
-1
-1
-2
-2
-3
-3
-4
-4
-4
-4
-4
-3
-2
-1
0
0
1
1
1
0
-1
-3
-4
-6
-7
-9
-10
-10
-10
-10
-9
-8
-8
-7
-7
-7
-7
-8
-8
-9
-9
-9
-8
-7
-6
-5
-4
-3
-2
-1
0
0
1
1
2
3
4
5
6
7
8
8
8
7
5
3
1
-1
-4
-6
-7
-9
-10
-11
-11
-12
-13
-13
-14
-14
-14
-13
-13
-12
-12
-12
-13
-13
-13
-13
-11
-8
-3
4
13
25
39
54
71
88
104
118
128
132
128
116
95
67
34
-2
-36
-65
-88
-103
-109
-107
-100
-90
-78
-68
-60
-54
-51
-48
-46
-44
-42
-38
-35
-32
-29
-27
-26
-25
-24
-23
-22
-20
-18
-16
-14
-13
-13
-13
-13
-13
-13
-13
-13
-13
-13
-13
-13
-12
-11
-10
-9
-6
-4
-2
0
2
2
3
3
3
2
2
3
3
4
5
5
6
6
6
6
6
7
7
8
9
10
12
13
14
16
17
18
19
20
21
21
22
22
22
22
22
21
21
20
19
17
16
15
14
13
13
13
13
14
14
15
15
15
14
14
13
12
12
12
11
11
11
11
10
9
9
8
7
6
5
4
3
1
0
-2
-4
-5
-7
-8
-8
-8
-7
-6
-4
-3
-2
-1
-1
-1
-2
-3
-4
-5
-6
-6
-6
-6
-6
-5
-4
-3
-3
-2
-2
-2
-2
-2
-3
-3
-4
-4
-4
-4
-4
-4
-3
-3
-3
-3
-3
-3
-3
-3
-3
-3
-3
-3
-3
-4
-5
-6
-7
-7
-8
-8
-8
-8
-8
-8
-7
-7
-7
-6
-6
-4
-3
-2
0
1
2
2
3
3
3
4
5
6
7
8
9
9
9
8
7
6
5
4
3
2
1
0
-1
-2
-5
-7
-9
-11
-13
-14
-14
-13
-11
-10
-9
-8
-8
-9
-11
-13
-15
-16
-17
-16
-13
-9
-4
3
13
24
37
52
69
87
104
120
132
138
137
127
108
82
50
15
-19
-51
-76
-94
-104
-107
-103
-95
-85
-75
-66
-59
-53
-50
-48
-46
-44
-42
-39
-35
-31
-27
-23
-20
-18
-16
-15
-14
-13
-13
-13
-13
-12
-12
-12
-12
-11
-11
-10
-9
-8
-6
-5
-4
-3
-3
-3
-3
-4
-4
-5
-4
-4
-3
-2
-1
1
1
2
2
2
2
2
3
4
5
6
7
9
10
11
12
13
13
13
14
14
14
15
15
15
15
15
15
16
16
17
18
19
20
21
22
22
22
21
20
19
17
17
16
16
17
18
20
21
21
21
21
20
18
17
15
14
13
13
12
12
12
12
10
9
7
4
2
0
-1
-2
-2
-2
-2
-1
-2
-2
-4
-5
-7
-8
-10
-10
-11
-10
-10
-9
-8
-7
-6
-6
-5
-5
-5
-4
-4
-4
-4
-4
-4
-4
-4
-5
-5
-5
-6
-6
-6
-6
-6
-6
-6
-6
-7
-7
-7
-8
-8
-9
-9
-10
-10
-10
-10
-9
-7
-6
-4
-3
-3
-3
-4
-6
-8
-11
-13
-15
-15
-15
-14
-12
-10
-7
-5
-3
-2
-1
-1
-1
-1
0
1
1
2
3
4
4
4
4
4
4
4
4
4
4
3
2
1
0
-2
-4
-6
-8
-10
-12
-13
-14
-15
-15
-15
-14
-14
-13
-12
-12
-12
-12
-13
-14
-15
-15
-13
-9
-3
5
15
27
41
56
72
89
104
118
129
134
132
123
104
78
44
7
-31
-66
-94
-114
-124
-125
-119
-107
-93
-80
-69
-61
-57
-54
-54
-53
-51
-48
-44
-38
-33
-28
-24
-21
-19
-18
-18
-17
-17
-16
-16
-15
-15
-15
-15
-14
-14
-13
-12
-11
-10
-9
-8
-8
-8
-7
-7
-7
-7
-6
-5
-5
-4
-3
-3
-2
-2
-1
0
1
2
3
3
4
5
6
7
9
11
13
15
17
18
18
18
18
17
17
17
18
19
21
23
25
26
27
27
26
25
24
24
23
23
24
25
25
25
25
25
24
22
21
20
20
19
19
19
19
19
19
19
19
19
18
18
19
19
19
19
18
18
16
15
13
11
9
6
4
2
1
0
-1
-1
-1
-1
-1
0
0
1
1
1
1
0
0
0
-1
-1
-1
-2
-2
-3
-3
-4
-4
-4
-4
-3
-2
-1
0
2
2
3
3
3
3
2
2
2
3
3
3
3
3
1
-1
-4
-7
-9
-11
-11
-10
-9
-6
-4
-1
1
1
1
1
-1
-2
-4
-5
-5
-5
-5
-4
-3
-2
-2
-1
0
1
1
2
2
3
3
3
3
3
3
3
4
5
6
7
7
7
7
6
4
2
0
-3
-5
-7
-8
-10
-11
-11
-12
-11
-11
-10
-9
-8
-7
-6
-6
-7
-8
-10
-11
-11
-11
-9
-5
2
10
21
34
49
66
84
102
120
134
144
146
140
125
101
69
31
-8
-45
-77
-101
-115
-121
-118
-109
-97
-83
-71
-61
-54
-50
-47
-46
-44
-42
-39
-36
-32
-28
-25
-22
-20
-19
-17
-16
-15
-14
-12
-11
-10
-9
-8
-7
-7
-6
-6
-6
-7
-7
-7
-7
-7
-7
-7
-7
-6
-6
-6
-6
-6
-6
-6
-5
-4
-3
-1
1
3
5
7
8
9
9
9
9
9
10
10
10
11
12
13
14
15
16
18
19
20
21
22
22
22
21
21
20
19
19
19
19
19
20
20
20
20
19
18
17
17
16
16
16
16
16
16
16
15
14
13
12
11
10
9
9
8
8
8
8
7
7
6
5
4
2
1
0
-1
-2
-2
-3
-3
-4
-5
-6
-6
-7
-8
-9
-9
-9
-9
-8
-7
-6
-5
-5
-5
-6
-6
-7
-8
-9
-9
-9
-9
-9
-9
-9
-9
-8
-8
-8
-7
-6
-6
-5
-5
-5
-5
-6
-7
-7
-7
-7
-7
-7
-6
-6
-6
-6
-6
-7
-8
-9
-10
-10
-10
-10
-10
-9
-9
-9
-8
-8
-7
-7
-6
-5
-4
-3
-2
0
1
2
3
4
5
6
7
7
7
6
6
5
4
4
3
3
3
2
1
0
-1
-3
-6
-8
-11
-13
-14
-15
-15
-14
-13
-11
-10
-9
-9
-9
-10
-10
-11
-11
-9
-6
-2
5
13
23
34
47
61
77
92
107
119
128
130
126
113
93
65
32
-3
-38
-68
-93
-109
-116
-115
-109
-98
-85
-73
-63
-55
-50
-47
-46
-44
-43
-40
-36
-32
-28
-24
-20
-18
-17
-16
-15
-15
-15
-14
-14
-13
-12
-11
-11
-10
-10
-9
-9
-8
-8
-7
-6
-5
-4
-3
-3
-2
-1
-1
0
0
-1
-1
-2
-3
-3
-4
-4
-4
-4
-3
-2
0
2
4
6
9
10
12
13
14
14
14
14
14
14
15
15
16
16
17
18
20
21
22
23
23
24
24
23
23
22
21
20
19
18
17
16
15
15
14
13
13
13
13
13
13
13
13
13
12
11
11
10
9
9
9
8
8
8
7
7
6
5
4
2
1
-1
-2
-4
-5
-6
-7
-8
-9
-9
-9
-9
-9
-8
-7
-6
-5
-4
-4
-3
-3
-4
-5
-6
-7
-9
-10
-11
-12
-11
-10
-8
-5
-3
-1
1
2
2
2
0
-1
-3
-5
-6
-7
-7
-6
-5
-4
-3
-2
-2
-2
-3
-4
-4
-5
-5
-5
-5
-5
-5
-6
-6
-6
-6
-6
-5
-4
-3
-3
-2
-1
-1
-1
0
0
1
1
2
3
4
5
5
5
5
4
4
3
3
3
3
2
2
1
-1
-3
-5
-8
-10
-12
-13
-14
-14
-13
-11
-9
-8
-7
-6
-6
-8
-9
-11
-13
-14
-13
-10
-5
2
12
25
39
55
72
89
105
119
129
133
130
119
100
73
40
4
-32
-65
-91
-109
-118
-118
-111
-99
-86
-73
-63
-55
-51
-49
-47
-46
-44
-41
-37
-32
-28
-24
-22
-21
-21
-21
-21
-21
-20
-18
-16
-14
-12
-10
-9
-8
-8
-7
-6
-5
-4
-4
-3
-3
-3
-3
-3
-4
-4
-4
-4
-3
-3
-3
-3
-2
-2
-2
-1
0
1
2
3
3
4
4
5
5
6
7
9
10
11
13
13
14
14
14
14
15
15
16
18
19
21
22
23
23
23
22
21
21
20
20
20
20
20
20
20
20
19
18
17
16
15
14
13
12
11
11
10
10
9
8
7
7
6
5
4
4
4
4
4
5
5
4
4
3
1
-1
-2
-4
-5
-6
-6
-6
-5
-5
-4
-4
-5
-5
-6
-6
-6
-6
-6
-6
-5
-5
-4
-4
-4
-4
-4
-4
-4
-4
-4
-4
-5
-5
-5
-5
-6
-6
-6
-6
-6
-6
-6
-5
-6
-6
-6
-6
-6
-5
-5
-4
-3
-2
-1
0
1
1
1
0
-1
-2
-3
-4
-5
-5
-5
-4
-3
-1
0
1
2
2
3
2
2
3
3
3
4
5
5
6
7
7
8
8
9
9
9
8
7
5
3
0
-2
-4
-6
-7
-8
-9
-9
-10
-11
-12
-12
-12
-12
-11
-9
-7
-5
-5
-5
-6
-7
-9
-9
-8
-4
2
12
24
39
55
71
88
103
116
124
128
125
114
95
70
38
4
-32
-64
-90
-108
-117
-118
-112
-101
-88
-76
-66
-58
-53
-50
-48
-45
-42
-38
-33
-28
-24
-20
-18
-17
-17
-17
-17
-16
-14
-13
-11
-9
-9
-8
-8
-8
-7
-7
-6
-5
-4
-3
-2
-2
-3
-4
-5
-5
-6
-6
-6
-5
-5
-4
-4
-3
-3
-2
-2
-2
-1
-1
-1
0
1
2
3
5
6
7
9
10
11
12
12
13
14
15
16
17
18
19
20
21
21
22
22
22
22
22
22
22
21
21
20
20
20
20
20
21
21
21
20
19
17
15
13
11
10
10
9
10
10
11
11
11
10
10
8
7
6
4
3
1
0
-1
-1
-2
-2
-2
-2
-2
-2
-2
-2
-2
-3
-3
-4
-4
-5
-6
-6
-7
-7
-8
-8
-8
-8
-8
-7
-7
-6
-6
-5
-4
-4
-4
-4
-5
-6
-7
-7
-8
-7
-7
-5
-4
-2
-1
-1
-1
-3
-5
-6
-8
-8
-8
-7
-5
-3
-1
0
-1
-2
-4
-6
-9
-11
-12
-12
-12
-10
-9
-7
-6
-5
-4
-3
-3
-3
-2
-2
-1
-1
0
1
2
2
3
4
5
6
6
7
8
8
8
8
8
7
6
5
3
1
-1
-3
-5
-6
-7
-8
-9
-9
-9
-10
-10
-10
-10
-10
-10
-10
-10
-9
-9
-8
-8
-8
-8
-8
-6
-2
3
11
22
36
52
70
88
106
121
132
137
134
122
102
75
42
6
-29
-61
-86
-103
-111
-111
-104
-93
-80
-68
-59
-53
-49
-48
-47
-47
-45
-42
-38
-33
-28
-23
-20
-19
-18
-18
-17
-17
-15
-13
-11
-9
-7
-6
-6
-7
-7
-8
-8
-8
-8
-6
-5
-4
-3
-3
-3
-3
-4
-4
-4
-4
-3
-2
-1
0
1
3
4
5
6
7
7
7
7
6
6
5
5
6
7
8
10
12
15
17
19
20
21
21
21
20
19
18
17
16
16
16
17
17
18
19
20
20
21
22
22
22
22
22
21
21
20
18
17
16
15
15
15
15
16
16
16
16
14
12
10
8
5
4
3
3
3
4
5
6
6
5
4
3
1
-1
-3
-4
-6
-7
-7
-8
-8
-8
-8
-8
-7
-6
-5
-4
-3
-3
-3
-3
-3
-4
-5
-5
-6
-6
-6
-5
-5
-5
-5
-5
-4
-4
-4
-3
-3
-2
-2
-2
-2
-2
-2
-3
-4
-4
-5
-5
-5
-5
-5
-5
-5
-5
-5
-6
-6
-6
-6
-6
-6
-6
-6
-6
-6
-6
-6
-7
-7
-8
-9
-11
-11
-12
-12
-11
-10
-8
-6
-4
-2
0
2
3
4
4
4
3
3
2
2
2
2
2
3
4
5
6
7
7
6
4
2
-1
-4
-8
-10
-12
-14
-15
-15
-15
-15
-15
-15
-15
-14
-14
-14
-14
-13
-13
-13
-13
-13
-11
-8
-3
3
12
23
36
50
65
81
97
112
123
131
132
127
113
91
63
30
-5
-39
-68
-90
-103
-108
-105
-97
-85
-74
-63
-56
-51
-49
-48
-47
-45
-43
-38
-33
-27
-22
-18
-16
-15
-15
-16
-18
-19
-20
-20
-20
-18
-16
-14
-12
-10
-8
-7
-6
-7
-8
-9
-10
-11
-12
-11
-10
-9
-7
-5
-4
-3
-3
-4
-5
-5
-5
-4
-3
-1
1
3
4
5
6
6
6
5
5
5
6
7
9
10
12
14
15
16
17
17
18
18
17
17
16
16
16
17
18
19
21
22
23
23
23
22
20
18
16
15
15
15
15
16
17
17
18
18
18
17
16
16
15
14
13
13
12
10
9
8
7
6
6
5
5
4
4
3
1
0
-2
-3
-4
-5
-6
-6
-6
-6
-7
-8
-8
-9
-9
-9
-9
-8
-6
-5
-4
-2
-2
-1
-1
-1
-2
-2
-2
-3
-4
-5
-6
-7
-8
-9
-10
-10
-9
-8
-7
-6
-5
-4
-4
-4
-5
-5
-6
-6
-5
-5
-4
-3
-2
-2
-2
-2
-2
-3
-3
-3
-3
-3
-3
-4
-5
-7
-8
-10
-11
-11
-10
-8
-6
-4
-1
1
2
3
3
3
3
2
2
2
3
3
4
4
4
4
4
5
5
6
7
8
8
8
7
5
2
0
-3
-5
-7
-8
-9
-9
-10
-10
-10
-11
-11
-11
-10
-9
-8
-7
-6
-6
-6
-7
-7
-7
-5
-2
5
13
25
40
56
74
93
110
126
137
143
142
133
115
90
58
22
-15
-50
-80
-103
-117
-122
-120
-112
-100
-87
-74
-64
-57
-52
-50
-48
-46
-44
-42
-38
-34
-30
-26
-23
-22
-20
-20
-20
-19
-19
-17
-15
-13
-11
-9
-7
-5
-5
-4
-4
-5
-5
-5
-5
-5
-4
-4
-3
-2
-1
-1
-2
-2
-3
-4
-4
-5
-5
-4
-3
-2
-1
0
2
3
5
6
8
9
11
12
13
14
14
15
15
15
16
17
18
20
21
23
24
25
25
24
24
23
22
21
21
22
22
23
24
25
25
25
25
24
23
21
20
19
18
17
16
15
15
15
15
15
16
16
16
16
15
15
14
12
11
10
9
8
7
6
5
4
3
1
0
-2
-3
-4
-5
-6
-6
-7
-7
-7
-7
-7
-7
-6
-6
-6
-5
-5
-5
-4
-4
-4
-5
-5
-6
-7
-7
-8
-8
-8
-8
-8
-7
-6
-5
-4
-3
-2
-2
-2
-2
-3
-3
-4
-4
-5
-5
-5
-6
-6
-6
-7
-8
-9
-10
-10
-11
-11
-10
-9
-8
-7
-6
-6
-7
-8
-11
-13
-14
-15
-15
-14
-12
-9
-6
-2
1
3
5
6
6
5
4
3
3
2
2
1
2
2
3
3
4
4
3
2
1
0
-2
-3
-3
-4
-4
-5
-6
-7
-9
-11
-13
-15
-16
-16
-15
-14
-12
-10
-9
-8
-8
-9
-9
-9
-6
-2
6
17
31
47
65
84
102
118
131
139
141
135
120
98
68
33
-4
-41
-74
-100
-117
-125
-125
-117
-105
-92
-78
-67
-59
-54
-51
-50
-48
-46
-43
-39
-34
-29
-24
-20
-17
-15
-13
-12
-12
-11
-10
-9
-9
-8
-8
-8
-8
-8
-8
-7
-6
-6
-5
-4
-4
-3
-4
-4
-5
-5
-5
-6
-5
-5
-4
-2
-1
1
3
5
6
8
9
10
10
11
11
12
12
13
13
13
13
13
13
13
13
13
14
15
17
18
19
20
21
21
21
21
20
20
21
21
22
23
23
24
23
23
22
21
20
19
18
17
16
15
15
14
13
13
13
12
12
13
13
13
14
14
14
13
13
11
10
8
5
3
1
-1
-3
-4
-5
-5
-5
-6
-6
-7
-7
-8
-9
-9
-9
-9
-9
-9
-8
-8
-8
-7
-7
-7
-7
-7
-7
-7
-7
-7
-7
-7
-7
-6
-6
-6
-5
-5
-5
-5
-5
-6
-6
-7
-8
-8
-8
-7
-6
-5
-5
-4
-5
-6
-7
-8
-9
-10
-10
-10
-9
-8
-6
-5
-4
-4
-4
-5
-6
-6
-7
-7
-6
-6
-5
-4
-3
-2
-2
-1
0
1
2
3
4
4
4
4
4
3
3
2
2
2
2
1
1
1
0
-2
-3
-5
-7
-9
-11
-12
-13
-14
-14
-14
-13
-12
-11
-10
-10
-10
-10
-11
-12
-12
-12
-11
-8
-2
5
14
26
39
53
68
83
98
111
121
127
125
116
99
74
42
6
-31
-65
-94
-114
-125
-127
-121
-110
-96
-82
-70
-60
-54
-50
-48
-47
-45
-42
-39
-35
-31
-27
-24
-22
-21
-20
-19
-18
-17
-16
-15
-14
-13
-13
-13
-13
-13
-12
-12
-11
-9
-8
-7
-6
-5
-5
-5
-4
-4
-4
-4
-4
-5
-5
-5
-4
-4
-3
-2
-1
1
2
3
3
4
4
3
3
4
4
5
7
8
10
12
13
14
15
15
16
16
16
17
18
18
19
20
20
20
21
20
20
20
20
21
21
21
21
20
20
19
17
16
15
13
12
11
11
10
10
9
9
9
8
8
8
8
8
8
8
8
7
6
5
4
2
1
0
0
-1
-1
-1
-2
-2
-3
-4
-6
-7
-7
-8
-8
-9
-9
-9
-9
-10
-10
-11
-11
-10
-9
-8
-6
-4
-2
-1
0
1
0
0
-1
-2
-2
-3
-3
-3
-3
-4
-4
-5
-5
-5
-5
-5
-4
-3
-3
-2
-2
-2
-2
-2
-2
-3
-2
-2
-1
-1
0
0
0
-1
-2
-3
-4
-4
-4
-3
-2
0
2
4
5
5
5
5
4
4
3
3
4
5
7
9
10
11
11
11
10
8
5
2
0
-3
-5
-6
-7
-8
-9
-9
-9
-9
-10
-10
-9
-9
-9
-9
-8
-9
-9
-10
-10
-10
-9
-6
-3
3
10
20
31
44
58
74
90
105
118
127
130
126
114
93
65
31
-6
-41
-73
-97
-113
-120
-118
-109
-97
-82
-69
-58
-50
-45
-43
-42
-42
-40
-38
-34
-29
-24
-19
-16
-13
-11
-11
-11
-11
-11
-11
-11
-11
-10
-10
-9
-9
-8
-8
-6
-5
-4
-2
-1
1
2
2
3
3
2
1
0
-1
-2
-2
-3
-2
-2
0
2
4
6
9
10
12
12
12
12
11
10
10
10
11
12
14
15
17
19
20
20
21
21
21
21
21
21
21
21
22
22
23
23
23
24
24
24
23
22
22
21
20
19
18
17
17
17
16
16
16
16
16
16
16
16
15
15
15
14
13
12
11
9
7
6
4
3
2
1
0
-1
-1
-2
-3
-3
-4
-5
-5
-6
-6
-6
-6
-6
-6
-5
-5
-4
-4
-3
-3
-3
-2
-2
-2
-2
-2
-2
-2
-2
-3
-3
-4
-5
-5
-6
-6
-5
-4
-4
-3
-2
-1
-1
-1
-2
-3
-4
-5
-5
-6
-5
-5
-4
-4
-3
-2
-2
-2
-2
-2
-3
-4
-4
-5
-5
-5
-4
-4
-2
0
2
4
6
7
8
8
8
7
6
4
4
4
5
6
8
9
10
10
9
7
4
0
-4
-7
-9
-11
-11
-11
-11
-10
-10
-9
-9
-8
-8
-7
-6
-5
-5
-5
-6
-8
-10
-12
-13
-12
-10
-4
4
14
26
40
55
71
87
102
115
124
127
124
113
94
68
35
0
-35
-66
-91
-108
-116
-116
-109
-98
-85
-73
-64
-57
-53
-51
-49
-48
-46
-42
-38
-33
-27
-23
-19
-16
-15
-14
-14
-14
-13
-13
-13
-12
-12
-11
-10
-9
-8
-7
-6
-5
-4
-4
-3
-4
-5
-6
-6
-7
-7
-7
-6
-4
-3
-2
-1
0
0
-1
-1
-2
-2
-1
-1
1
2
3
4
5
5
6
6
6
7
8
10
11
13
15
16
17
17
17
17
17
17
18
18
19
19
19
20
20
20
20
20
20
20
20
21
21
20
20
18
17
15
13
12
11
10
10
11
11
12
13
13
12
12
11
9
8
7
6
5
4
4
3
2
1
-1
-2
-4
-6
-8
-9
-10
-10
-10
-9
-8
-7
-6
-4
-4
-3
-3
-2
-3
-3
-3
-3
-4
-4
-5
-5
-5
-5
-5
-5
-5
-5
-5
-5
-5
-5
-5
-5
-6
-6
-7
-8
-8
-8
-8
-8
-7
-6
-5
-4
-3
-3
-2
-2
-2
-2
-2
-2
-2
-3
-4
-5
-6
-7
-8
-8
-8
-6
-5
-2
0
2
4
5
5
5
5
5
5
5
6
7
8
9
9
9
9
8
7
6
5
4
4
3
2
2
0
-1
-3
-6
-8
-11
-13
-14
-15
-15
-14
-13
-12
-11
-11
-11
-12
-12
-13
-14
-13
-11
-7
0
9
20
33
49
65
82
98
112
122
127
125
115
97
71
39
4
-31
-63
-89
-108
-117
-119
-113
-103
-91
-79
-69
-61
-56
-53
-50
-48
-45
-42
-37
-33
-29
-26
-24
-23
-23
-23
-23
-22
-21
-19
-16
-14
-12
-11
-10
-9
-9
-8
-7
-6
-6
-5
-5
-5
-5
-5
-5
-5
-5
-4
-4
-2
-1
-1
0
0
1
1
1
2
2
3
4
5
6
6
7
7
8
8
8
8
9
9
9
10
10
11
12
13
15
16
18
19
20
20
21
21
21
21
20
20
20
20
20
20
20
19
19
18
17
16
15
14
13
13
13
14
14
15
16
16
17
16
16
15
14
13
12
10
9
8
6
5
3
1
0
-1
-2
-2
-2
-2
-1
-1
-2
-2
-4
-6
-8
-10
-12
-13
-14
-14
-13
-11
-9
-7
-5
-3
-2
-1
-1
-2
-2
-3
-4
-5
-6
-6
-6
-6
-6
-6
-6
-6
-6
-6
-5
-5
-4
-4
-3
-3
-3
-3
-2
-2
-2
-3
-3
-3
-3
-4
-4
-5
-6
-7
-7
-7
-7
-7
-7
-6
-5
-4
-3
-3
-2
-2
-1
-1
0
1
2
4
5
5
6
6
6
6
6
6
6
6
6
6
5
4
2
0
-2
-4
-6
-8
-9
-10
-10
-10
-11
-11
-11
-11
-11
-12
-12
-12
-12
-12
-12
-12
-12
-12
-11
-9
-6
-1
6
15
26
39
53
69
85
100
113
122
126
123
111
92
65
34
-1
-35
-65
-89
-105
-112
-110
-103
-93
-81
-70
-62
-56
-53
-52
-51
-49
-45
-40
-35
-28
-23
-18
-16
-15
-15
-16
-18
-18
-18
-17
-15
-14
-12
-11
-10
-10
-11
-12
-12
-12
-12
-12
-10
-9
-8
-6
-5
-5
-4
-4
-5
-5
-5
-6
-6
-6
-6
-5
-4
-3
-1
1
2
4
6
7
8
8
8
8
8
8
8
8
9
10
11
12
14
15
16
18
19
20
21
21
22
22
21
21
20
20
20
20
20
19
19
18
17
16
14
13
12
11
11
11
12
13
13
13
13
13
12
11
11
11
10
10
9
9
7
6
4
1
-1
-2
-3
-3
-3
-2
-1
0
0
0
0
-1
-1
-2
-3
-3
-4
-4
-5
-5
-6
-6
-7
-8
-8
-8
-8
-7
-7
-6
-6
-6
-5
-5
-5
-4
-3
-2
-2
-1
-1
-1
-1
-1
-2
-3
-3
-4
-5
-5
-5
-6
-6
-6
-5
-5
-4
-4
-3
-3
-3
-3
-4
-6
-8
-10
-12
-13
-13
-12
-11
-8
-5
-2
1
3
4
5
5
5
4
3
2
1
1
2
3
3
4
5
6
7
8
8
8
8
8
7
6
4
2
0
-2
-5
-7
-8
-10
-11
-11
-12
-12
-11
-11
-10
-10
-9
-9
-8
-9
-9
-10
-10
-10
-8
-5
0
8
18
31
46
64
82
100
116
129
137
138
130
115
91
62
28
-7
-40
-68
-89
-102
-107
-104
-96
-86
-74
-64
-56
-51
-49
-48
-47
-45
-43
-39
-34
-28
-23
-18
-15
-13
-12
-12
-12
-13
-13
-12
-11
-9
-7
-6
-5
-5
-5
-6
-7
-8
-9
-9
-9
-8
-7
-5
-3
-1
1
2
3
3
3
2
1
0
0
-1
-1
0
1
2
4
6
8
10
12
13
14
15
15
15
14
14
15
16
17
18
19
21
21
21
21
21
20
20
20
20
21
22
23
23
23
22
21
19
18
17
16
16
17
18
19
19
20
20
20
20
19
18
17
16
15
14
12
11
10
9
8
8
8
8
8
7
6
5
4
2
1
0
-1
-1
-1
0
0
0
0
-1
-2
-4
-5
-6
-7
-7
-7
-6
-5
-4
-3
-2
-2
-2
-3
-3
-4
-4
-4
-4
-4
-4
-4
-3
-3
-2
-2
-2
-2
-2
-2
-3
-4
-5
-6
-7
-7
-8
-7
-7
-6
-5
-4
-3
-2
-2
-2
-2
-3
-5
-6
-8
-9
-11
-12
-12
-13
-13
-12
-11
-10
-8
-5
-3
0
2
4
6
7
8
8
7
7
7
6
6
6
6
6
7
7
7
6
5
4
2
0
-2
-5
-7
-10
-12
-14
-16
-17
-17
-17
-17
-15
-14
-12
-10
-9
-8
-7
-8
-9
-10
-11
-12
-11
-8
-2
7
19
34
51
70
89
107
123
134
139
136
125
106
80
47
11
-26
-60
-88
-110
-122
-127
-123
-114
-101
-88
-75
-65
-57
-53
-51
-49
-48
-47
-45
-41
-37
-32
-28
-24
-20
-18
-16
-15
-15
-14
-14
-13
-12
-11
-10
-10
-10
-10
-11
-12
-12
-13
-12
-11
-10
-8
-5
-3
-1
0
1
1
0
0
-1
-1
-1
0
0
1
2
2
3
3
3
4
4
5
7
9
10
12
13
14
14
14
14
14
13
13
13
14
15
16
18
19
21
22
23
23
23
22
21
19
18
16
15
15
15
15
16
17
18
18
19
20
20
20
19
18
17
16
14
13
11
10
9
9
8
8
7
6
5
4
3
2
1
0
0
0
0
0
0
-1
-2
-3
-4
-4
-5
-5
-4
-4
-4
-5
-6
-7
-9
-11
-12
-13
-12
-10
-7
-4
-1
1
2
1
0
-2
-5
-6
-8
-8
-7
-6
-5
-4
-3
-3
-3
-4
-4
-4
-4
-4
-3
-2
-1
-1
-1
-2
-3
-5
-6
-7
-8
-9
-9
-9
-9
-8
-8
-6
-5
-3
-2
0
2
3
4
4
5
5
4
4
4
3
3
3
3
3
4
5
6
7
8
9
8
7
5
2
-1
-5
-7
-10
-11
-11
-11
-10
-10
-9
-9
-9
-10
-11
-12
-13
-13
-13
-13
-13
-13
-12
-11
-9
-6
-2
4
13
25
39
55
73
91
109
124
134
138
135
123
103
76
42
6
-31
-64
-92
-111
-123
-126
-121
-112
-100
-86
-74
-64
-56
-51
-47
-45
-42
-40
-37
-34
-31
-28
-26
-24
-22
-21
-19
-18
-17
-15
-13
-11
-10
-9
-8
-8
-8
-8
-9
-9
-9
-9
-8
-8
-7
-6
-6
-6
-6
-6
-6
-6
-6
-5
-4
-2
0
2
4
6
7
7
6
6
6
6
6
7
8
10
11
12
12
11
11
10
9
9
10
12
14
16
19
21
22
23
23
23
23
22
22
22
21
20
20
19
18
17
16
16
16
17
17
17
17
16
15
13
11
10
10
10
10
11
12
12
12
11
10
8
6
5
4
4
4
4
4
3
2
0
-3
-5
-8
-10
-11
-11
-10
-9
-7
-6
-5
-4
-4
-5
-5
-6
-7
-7
-8
-8
-8
-9
-9
-9
-10
-10
-9
-8
-7
-5
-3
-2
0
0
0
-1
-3
-4
-6
-7
-8
-8
-7
-6
-4
-3
-2
-1
0
0
0
-1
-2
-3
-5
-6
-8
-9
-10
-10
-10
-9
-7
-5
-4
-2
-1
0
1
1
1
1
2
2
3
3
3
3
3
2
1
1
1
1
2
3
3
4
4
3
2
1
-1
-2
-3
-4
-5
-5
-6
-7
-8
-9
-10
-11
-11
-11
-11
-10
-9
-9
-9
-9
-9
-9
-8
-5
0
8
18
32
47
65
83
101
116
129
136
137
130
114
90
60
25
-11
-46
-76
-99
-113
-119
-117
-109
-98
-85
-73
-63
-56
-51
-49
-47
-45
-42
-39
-35
-31
-27
-23
-20
-17
-16
-15
-14
-14
-13
-13
-12
-11
-11
-10
-9
-8
-7
-6
-6
-6
-6
-7
-7
-7
-6
-5
-4
-3
-2
-1
0
0
-1
-1
-2
-2
-2
-1
1
2
4
5
6
7
7
7
7
7
7
7
8
9
9
10
11
11
12
13
15
16
18
20
22
23
24
25
25
25
24
24
23
23
22
21
20
19
18
18
17
17
17
17
17
18
18
18
17
16
14
12
10
9
7
6
6
6
7
7
8
8
7
5
3
1
-2
-4
-6
-7
-7
-6
-5
-5
-4
-4
-4
-5
-6
-7
-8
-9
-8
-8
-7
-6
-5
-5
-5
-5
-6
-6
-6
-6
-6
-5
-5
-4
-4
-4
-3
-4
-4
-4
-4
-5
-5
-6
-6
-7
-7
-6
-6
-5
-4
-3
-3
-2
-2
-2
-3
-3
-4
-5
-5
-5
-5
-6
-6
-7
-8
-9
-9
-9
-9
-7
-5
-3
0
2
4
4
4
3
2
0
0
-1
-1
0
2
3
5
6
6
6
6
5
3
2
0
-1
-3
-4
-4
-5
-6
-7
-9
-10
-12
-13
-13
-13
-12
-11
-9
-8
-7
-7
-8
-10
-12
-13
-13
-11
-6
1
11
23
37
51
66
81
96
109
119
126
126
120
106
83
54
20
-16
-50
-79
-100
-111
-114
-109
-98
-85
-72
-61
-54
-50
-48
-48
-47
-45
-42
-37
-31
-25
-20
-16
-14
-14
-14
-15
-16
-16
-16
-15
-14
-13
-12
-12
-12
-12
-12
-12
-11
-10
-9
-7
-5
-4
-2
-2
-1
-1
-1
-2
-2
-3
-3
-3
-3
-2
-1
1
3
4
5
7
7
8
8
8
8
8
9
9
10
11
12
12
13
13
13
13
13
14
15
16
18
20
21
23
23
24
24
24
23
22
21
20
20
19
18
17
17
16
16
16
16
16
16
15
15
15
14
14
13
13
12
12
11
10
9
8
7
6
5
4
3
2
1
0
-1
-1
-2
-3
-3
-3
-3
-3
-3
-3
-3
-3
-3
-4
-5
-7
-8
-8
-8
-8
-8
-7
-6
-6
-6
-6
-6
-6
-6
-6
-6
-5
-3
-2
-2
-1
-1
-2
-3
-4
-5
-6
-6
-6
-5
-3
-2
-1
1
1
1
1
0
-1
-2
-3
-4
-4
-4
-3
-3
-2
-2
-2
-2
-3
-3
-4
-4
-5
-5
-5
-5
-4
-4
-3
-3
-2
-2
-1
0
0
1
1
2
3
4
5
7
9
11
12
12
12
10
8
4
1
-3
-5
-7
-8
-8
-8
-8
-7
-7
-8
-9
-10
-11
-11
-11
-10
-9
-8
-8
-7
-8
-8
-9
-8
-7
-3
4
13
24
38
53
70
86
102
114
123
127
123
113
94
69
38
4
-30
-62
-88
-106
-115
-117
-111
-101
-88
-76
-64
-56
-50
-47
-45
-43
-41
-39
-35
-31
-27
-24
-21
-19
-17
-17
-16
-16
-16
-16
-15
-14
-13
-13
-12
-12
-11
-11
-10
-10
-10
-9
-8
-8
-7
-6
-4
-3
-2
-1
-1
-1
-2
-2
-2
-2
-2
-1
0
2
3
4
4
4
4
3
2
2
3
4
6
8
11
13
15
17
18
18
18
18
18
18
19
19
20
21
22
22
22
21
20
19
19
18
18
18
19
19
19
19
18
17
16
14
13
13
12
12
13
13
13
13
12
11
10
9
9
8
8
8
8
8
8
6
5
3
1
-1
-2
-3
-3
-3
-3
-3
-4
-5
-6
-7
-9
-10
-10
-10
-9
-8
-6
-5
-4
-3
-3
-3
-3
-4
-5
-5
-5
-5
-5
-4
-4
-3
-3
-3
-3
-3
-3
-3
-4
-4
-4
-4
-4
-4
-3
-3
-3
-4
-5
-5
-6
-7
-7
-7
-7
-6
-4
-3
-2
-1
-1
-2
-3
-5
-6
-7
-8
-8
-8
-7
-6
-4
-3
-2
-1
-1
0
0
1
1
2
3
3
4
4
4
4
4
4
4
4
4
5
6
7
7
7
5
3
1
-2
-6
-9
-11
-13
-14
-15
-16
-16
-16
-16
-16
-16
-15
-15
-14
-13
-12
-11
-11
-10
-9
-7
-5
0
6
16
27
42
58
76
93
109
121
129
129
122
107
84
55
21
-14
-46
-75
-96
-110
-115
-113
-106
-96
-84
-73
-65
-58
-54
-51
-49
-47
-44
-41
-37
-33
-30
-27
-24
-23
-21
-19
-18
-16
-14
-12
-10
-9
-9
-9
-9
-10
-10
-10
-9
-8
-8
-7
-6
-6
-6
-6
-6
-5
-5
-5
-4
-3
-3
-3
-2
-2
-2
-2
-1
0
1
2
4
5
7
8
8
9
9
9
9
9
9
10
11
13
14
16
17
19
20
22
23
23
24
24
23
23
22
21
20
20
20
20
21
22
23
23
23
22
21
18
16
14
12
10
10
10
11
12
13
14
14
14
14
13
12
10
9
8
7
6
5
4
3
2
1
0
-1
-2
-3
-4
-4
-4
-4
-4
-4
-4
-4
-4
-4
-4
-4
-4
-4
-3
-3
-3
-3
-3
-3
-3
-3
-3
-3
-3
-2
-2
-1
0
1
1
2
2
2
1
0
-1
-3
-3
-4
-3
-3
-2
-1
-1
-1
-1
-2
-4
-5
-6
-6
-6
-5
-3
-2
-1
0
0
-1
-3
-5
-6
-8
-9
-9
-9
-8
-7
-6
-5
-4
-3
-2
-2
-2
-2
-2
-2
-2
-1
0
1
2
4
5
6
7
8
8
8
7
7
6
6
6
6
6
6
5
3
1
-2
-5
-8
-11
-13
-14
-14
-13
-12
-11
-10
-9
-8
-8
-8
-8
-9
-9
-10
-11
-10
-9
-6
-2
3
11
21
33
47
62
79
95
111
124
133
136
132
119
99
72
39
5
-28
-58
-81
-96
-103
-102
-97
-88
-78
-68
-61
-55
-51
-48
-45
-42
-38
-34
-29
-24
-21
-18
-17
-17
-17
-18
-18
-17
-16
-14
-12
-10
-8
-6
-5
-5
-5
-5
-5
-5
-5
-4
-4
-4
-4
-4
-4
-4
-5
-5
-6
-6
-5
-5
-4
-2
0
1
3
5
6
6
7
7
7
7
7
7
7
8
9
10
12
14
15
17
19
20
20
20
20
19
18
17
16
16
16
18
19
21
23
24
24
24
23
22
20
19
17
16
16
16
16
16
17
18
18
19
19
19
19
18
18
16
15
13
11
9
7
6
5
4
4
4
3
3
2
1
-1
-2
-4
-5
-5
-6
-5
-5
-4
-4
-4
-4
-4
-5
-6
-7
-8
-8
-8
-8
-8
-7
-6
-5
-5
-5
-6
-6
-7
-8
-9
-9
-8
-7
-6
-5
-3
-2
-2
-2
-3
-4
-5
-6
-7
-7
-7
-7
-6
-5
-4
-4
-3
-3
-3
-3
-4
-4
-4
-4
-4
-4
-4
-5
-5
-6
-7
-8
-9
-10
-11
-12
-13
-12
-11
-10
-9
-7
-5
-4
-3
-2
-2
-1
0
0
1
3
4
5
6
7
7
7
7
6
6
5
5
5
5
5
4
3
2
-1
-3
-5
-8
-9
-11
-12
-13
-14
-14
-13
-13
-12
-11
-10
-9
-8
-8
-9
-10
-11
-12
-11
-9
-5
2
11
22
36
51
67
84
100
115
127
134
135
129
114
91
62
28
-8
-42
-72
-94
-108
-113
-111
-103
-91
-79
-67
-58
-52
-48
-47
-46
-45
-43
-40
-36
-32
-27
-23
-19
-17
-15
-14
-14
-14
-14
-14
-14
-14
-13
-13
-12
-11
-10
-8
-7
-5
-4
-4
-4
-4
-4
-5
-5
-6
-6
-5
-5
-4
-2
-1
0
0
1
1
1
2
2
3
4
5
7
7
8
8
9
9
9
9
10
11
13
15
18
20
21
21
21
20
19
18
17
17
18
19
21
23
25
26
27
27
27
26
25
24
23
22
21
20
19
18
18
17
16
15
15
15
15
15
16
16
16
16
15
15
13
12
11
10
8
7
6
5
4
3
2
1
-1
-2
-4
-5
-5
-6
-5
-5
-4
-4
-4
-4
-4
-5
-5
-6
-6
-7
-7
-7
-6
-6
-6
-6
-6
-6
-6
-5
-5
-4
-4
-3
-3
-3
-3
-3
-4
-4
-5
-5
-6
-5
-5
-5
-5
-5
-5
-6
-7
-9
-9
-10
-10
-9
-9
-8
-7
-6
-6
-6
-6
-7
-8
-8
-9
-9
-9
-9
-9
-9
-10
-11
-12
-12
-13
-13
-12
-11
-10
-8
-7
-5
-4
-3
-2
-2
-1
0
0
0
0
0
0
-1
-1
-1
-1
-1
0
0
0
0
-1
-2
-3
-5
-6
-7
-8
-9
-9
-10
-11
-13
-15
-16
-17
-18
-18
-18
-17
-16
-16
-17
-17
-18
-18
-16
-12
-6
3
15
28
43
59
76
92
106
119
129
133
132
122
105
79
46
9
-29
-65
-95
-117
-130
-133
-127
-117
-103
-89
-77
-68
-62
-58
-56
-54
-52
-48
-44
-38
-33
-28
-24
-22
-20
-20
-19
-19
-19
-19
-18
-17
-16
-15
-14
-14
-13
-13
-12
-12
-11
-10
-9
-9
-8
-7
-6
-6
-5
-3
-2
-1
0
1
1
1
1
1
1
1
1
1
2
3
5
6
7
9
9
10
10
10
10
11
11
12
13
14
16
17
18
19
19
19
19
19
19
19
19
20
20
20
21
21
21
20
20
19
19
19
19
18
18
18
18
17
17
17
16
16
16
16
16
16
15
14
13
11
10
8
7
6
6
6
6
5
5
3
1
-1
-3
-5
-7
-8
-9
-9
-9
-8
-7
-6
-5
-4
-3
-3
-2
-2
-3
-4
-5
-6
-7
-8
-8
-9
-9
-8
-8
-8
-8
-8
-8
-8
-8
-8
-7
-6
-5
-4
-3
-2
-3
-3
-4
-5
-5
-6
-7
-7
-7
-7
-7
-7
-8
-8
-9
-9
-10
-10
-10
-9
-9
-9
-8
-8
-7
-7
-7
-7
-7
-7
-7
-7
-8
-8
-7
-7
-6
-5
-4
-3
-2
-2
-2
-2
-2
-2
-2
-2
-1
0
1
2
4
5
5
6
5
4
2
0
-2
-5
-8
-10
-12
-14
-15
-15
-15
-15
-15
-15
-14
-14
-14
-14
-14
-14
-14
-13
-13
-12
-10
-8
-4
1
8
17
27
40
55
70
87
103
118
129
135
134
125
107
82
49
13
-25
-60
-90
-111
-124
-126
-121
-110
-95
-80
-67
-58
-52
-49
-48
-48
-48
-46
-43
-38
-32
-27
-22
-18
-16
-15
-15
-16
-16
-16
-15
-14
-13
-11
-10
-9
-9
-8
-8
-7
-7
-6
-6
-5
-4
-3
-3
-3
-3
-4
-4
-5
-5
-6
-6
-6
-5
-4
-3
-2
0
1
3
4
5
6
7
7
7
8
9
9
11
12
13
14
15
15
16
16
17
17
18
19
20
21
22
22
22
22
20
19
18
17
16
15
15
15
15
16
16
16
16
15
15
14
13
12
12
11
10
10
9
8
8
7
7
7
6
5
5
3
2
1
-1
-3
-4
-5
-5
-5
-4
-3
-3
-2
-2
-2
-2
-3
-4
-5
-6
-6
-7
-7
-7
-7
-7
-8
-8
-9
-9
-10
-10
-11
-10
-9
-8
-7
-6
-5
-4
-3
-3
-3
-4
-4
-5
-5
-5
-6
-6
-5
-5
-5
-5
-4
-4
-3
-3
-3
-2
-2
-2
-2
-3
-4
-5
-6
-7
-8
-8
-7
-7
-6
-5
-4
-4
-4
-4
-5
-6
-7
-7
-8
-7
-7
-5
-3
-1
1
3
4
5
5
5
5
4
4
4
4
4
4
5
4
4
3
1
0
-2
-4
-6
-8
-9
-10
-11
-12
-12
-12
-12
-11
-11
-10
-9
-8
-7
-7
-8
-8
-9
-10
-10
-9
-6
-1
6
15
26
39
54
70
86
102
116
127
133
132
123
106
81
49
13
-23
-58
-86
-107
-118
-120
-115
-104
-90
-77
-64
-55
-50
-47
-45
-45
-43
-41
-37
-33
-28
-23
-20
-17
-16
-15
-15
-15
-15
-14
-13
-12
-10
-9
-8
-8
-8
-8
-8
-8
-8
-8
-7
-6
-5
-4
-4
-3
-3
-3
-3
-3
-3
-3
-3
-2
-2
-2
-2
-2
-1
0
1
3
5
6
8
9
11
12
12
13
14
14
14
14
14
14
14
15
15
16
17
19
20
21
22
23
24
24
24
24
24
25
25
25
25
25
24
22
20
19
17
16
15
14
14
14
14
13
13
12
12
12
12
12
12
12
11
10
9
7
5
3
2
0
0
-1
-1
0
0
0
0
-1
-2
-3
-3
-4
-5
-6
-7
-7
-7
-7
-7
-6
-5
-4
-2
-1
0
1
1
1
0
-1
-1
-2
-3
-3
-4
-4
-4
-5
-5
-5
-4
-3
-1
0
2
4
5
5
5
4
2
1
-1
-1
-2
-1
-1
0
0
0
-1
-2
-3
-4
-5
-5
-5
-4
-3
-2
-2
-1
-2
-2
-2
-3
-3
-3
-3
-2
0
1
3
5
7
8
9
9
9
9
9
8
8
8
9
9
10
10
10
10
9
7
5
2
0
-3
-4
-6
-6
-6
-6
-6
-5
-4
-4
-3
-2
-2
-1
-1
-1
-1
-1
-1
-1
1
4
9
15
25
36
50
65
82
99
115
128
138
141
137
125
104
76
42
6
-30
-61
-85
-100
-107
-105
-96
-84
-71
-58
-48
-42
-38
-37
-36
-35
-33
-30
-26
-21
-16
-12
-8
-6
-5
-4
-4
-4
-4
-3
-2
0
1
2
2
3
3
2
2
2
2
3
4
5
6
7
8
10
10
11
11
11
11
10
10
11
11
12
13
15
16
17
17
17
17
18
18
19
20
21
23
25
26
28
29
29
29
29
30
30
31
32
34
36
38
39
41
41
41
41
40
40
39
39
39
38
38
38
38
38
37
36
34
33
32
31
31
31
31
31
31
31
31
30
29
28
28
27
27
26
26
26
26
26
25
24
23
22
21
20
18
17
16
16
15
15
15
15
15
15
15
15
15
14
13
13
12
12
12
13
13
14
14
14
15
15
16
16
17
18
20
21
22
23
24
25
26
26
26
27
27
28
28
28
28
28
28
27
26
25
24
24
23
23
23
23
23
23
23
23
22
22
21
21
20
20
20
20
20
20
21
21
22
24
25
27
28
30
31
32
33
34
34
35
35
35
35
35
34
34
34
34
34
35
37
38
38
39
38
36
33
30
27
24
21
19
19
19
21
22
25
27
29
31
32
33
33
33
32
31
31
32
34
38
44
53
65
79
95
112
129
145
158
167
170
165
153
133
106
74
39
4
-27
-52
-68
-74
-72
-66
-50
