0
-2
-3
-3
-3
-2
-1
1
2
3
3
2
1
0
-2
-3
-5
-6
-7
-8
-8
-8
-7
-6
-5
-3
-1
0
2
2
3
3
3
4
4
5
6
7
7
7
5
3
-1
-6
-11
-16
-20
-23
-26
-27
-26
-25
-23
-21
-18
-16
-15
-14
-14
-15
-16
-17
-18
-19
-20
-20
-20
-20
-20
-21
-21
-21
-21
-21
-21
-21
-21
-22
-23
-24
-26
-27
-27
-25
-22
-17
-11
-5
1
7
13
20
30
43
60
78
96
111
117
112
94
61
16
-37
-92
-145
-188
-220
-237
-242
-237
-225
-210
-196
-183
-172
-162
-153
-142
-129
-114
-99
-83
-68
-56
-46
-39
-33
-28
-23
-17
-12
-6
-1
2
4
5
4
3
2
1
1
2
2
3
3
3
3
4
6
8
11
14
17
18
18
17
14
11
9
7
8
11
15
20
25
29
32
33
33
33
33
33
35
38
41
45
49
52
55
56
57
58
60
63
66
71
75
80
84
87
90
91
92
93
94
96
98
100
101
101
100
98
95
91
86
82
78
75
72
69
65
61
56
51
45
39
34
29
26
23
21
19
16
13
10
6
3
0
-3
-4
-5
-6
-6
-6
-6
-7
-8
-9
-9
-9
-9
-8
-8
-7
-7
-8
-8
-9
-9
-9
-9
-9
-8
-8
-9
-11
-14
-17
-20
-23
-25
-25
-24
-22
-19
-16
-13
-10
-9
-8
-7
-7
-7
-8
-8
-8
-8
-8
-8
-8
-8
-7
-7
-7
-7
-7
-8
-8
-8
-7
-7
-6
-4
-3
-2
-2
-2
-3
-4
-5
-5
-5
-4
-2
0
2
3
3
2
1
-1
-3
-4
-4
-2
1
4
7
10
11
11
10
8
6
5
5
5
6
7
8
9
8
6
4
1
-1
-3
-3
-3
-2
-2
-2
-2
-4
-6
-9
-11
-13
-15
-15
-14
-12
-10
-8
-7
-6
-5
-6
-7
-9
-10
-11
-12
-12
-11
-9
-8
-6
-6
-6
-7
-8
-10
-12
-13
-13
-12
-11
-8
-6
-3
0
3
9
17
30
46
67
89
111
129
138
136
121
92
51
1
-53
-105
-152
-189
-214
-227
-229
-222
-209
-193
-177
-161
-147
-134
-121
-109
-96
-83
-70
-57
-45
-35
-27
-21
-17
-15
-13
-12
-10
-8
-4
-1
3
6
9
10
11
11
10
10
10
10
11
13
14
15
15
15
14
13
12
12
12
14
16
18
21
23
25
27
28
30
31
31
32
32
31
30
30
30
31
34
39
45
52
59
65
70
73
75
74
73
72
71
72
74
77
80
84
87
90
92
94
96
98
100
102
103
103
101
98
93
88
82
76
72
68
66
65
63
60
56
51
45
38
32
26
21
18
16
15
13
11
9
6
3
-1
-4
-6
-8
-9
-10
-11
-12
-14
-17
-19
-21
-22
-21
-19
-16
-12
-9
-6
-5
-5
-7
-10
-14
-18
-20
-22
-22
-21
-19
-18
-17
-16
-16
-16
-17
-17
-16
-15
-14
-12
-11
-10
-10
-11
-12
-12
-12
-12
-11
-10
-9
-9
-9
-10
-12
-14
-15
-15
-14
-13
-10
-8
-6
-6
-7
-9
-12
-14
-17
-18
-17
-14
-10
-6
-2
2
5
6
5
4
2
-1
-3
-5
-7
-8
-9
-10
-10
-10
-10
-8
-7
-4
-1
3
6
9
10
10
9
7
4
1
-2
-4
-5
-5
-5
-4
-3
-3
-3
-5
-8
-11
-15
-17
-19
-20
-21
-20
-18
-17
-15
-14
-13
-12
-12
-11
-10
-10
-10
-10
-11
-12
-14
-16
-18
-18
-18
-17
-14
-11
-8
-5
-3
-2
-3
-4
-6
-8
-9
-10
-10
-9
-8
-5
0
8
18
33
52
73
95
115
129
134
127
106
72
26
-28
-83
-136
-181
-215
-237
-245
-243
-234
-220
-204
-188
-174
-161
-149
-137
-125
-111
-98
-85
-73
-63
-56
-50
-46
-41
-36
-30
-22
-14
-5
2
8
11
12
10
7
4
2
0
-1
-1
0
1
1
1
0
0
1
2
4
8
12
17
21
25
27
28
28
27
26
25
25
25
27
29
32
36
39
43
46
48
50
53
55
57
59
61
63
65
67
68
70
72
74
77
80
83
87
92
96
99
102
104
105
105
105
104
103
101
98
96
93
90
86
82
78
73
68
63
57
52
46
40
34
29
24
20
17
15
14
12
11
8
5
0
-5
-11
-17
-22
-26
-28
-28
-26
-23
-19
-16
-13
-11
-11
-11
-13
-15
-17
-19
-21
-22
-24
-26
-29
-31
-33
-35
-35
-35
-34
-32
-30
-28
-26
-25
-25
-26
-26
-27
-27
-26
-25
-23
-21
-20
-19
-19
-20
-21
-22
-23
-24
-24
-24
-24
-24
-24
-24
-24
-25
-24
-23
-22
-19
-17
-15
-14
-14
-16
-18
-21
-23
-24
-24
-22
-19
-16
-13
-12
-12
-13
-15
-17
-19
-19
-18
-16
-13
-10
-8
-7
-7
-8
-9
-10
-10
-9
-7
-5
-2
-1
-1
-1
-2
-4
-5
-5
-5
-4
-4
-4
-4
-6
-9
-13
-16
-19
-20
-20
-18
-16
-14
-13
-13
-14
-16
-19
-21
-22
-22
-21
-19
-16
-13
-12
-12
-13
-16
-19
-21
-22
-21
-19
-16
-12
-9
-8
-9
-12
-16
-20
-22
-22
-20
-15
-9
-3
3
6
9
12
17
25
38
54
74
93
108
115
109
90
57
13
-38
-91
-139
-178
-206
-220
-224
-218
-206
-192
-179
-167
-157
-148
-140
-130
-119
-106
-91
-75
-60
-47
-37
-29
-24
-20
-18
-15
-12
-9
-5
0
4
7
9
10
11
11
11
12
13
14
15
15
15
15
13
12
12
13
15
18
22
26
30
31
31
29
26
22
19
18
19
23
28
35
42
48
53
56
56
55
53
50
48
47
47
49
53
58
64
71
77
83
88
91
94
96
97
97
98
98
99
100
101
103
104
105
106
106
106
105
104
101
97
92
85
78
70
63
57
53
50
49
49
49
48
47
44
40
34
28
22
17
13
11
9
8
8
7
6
4
2
0
-2
-3
-3
-1
1
3
5
7
8
8
7
6
4
3
1
1
1
1
2
2
3
3
3
2
0
-1
-3
-5
-6
-6
-5
-4
-2
1
3
4
5
4
3
1
0
-2
-2
-1
1
3
5
7
8
8
6
4
1
-1
-2
-2
0
2
5
7
9
10
10
10
9
9
8
8
7
7
6
5
4
3
2
1
1
1
1
2
2
3
4
4
5
7
8
10
12
14
15
16
16
16
15
13
12
9
7
4
1
-2
-5
-7
-9
-10
-11
-10
-9
-8
-8
-7
-7
-8
-8
-7
-6
-5
-2
0
3
4
5
5
3
0
-4
-7
-10
-13
-14
-14
-14
-13
-12
-11
-9
-7
-4
-1
3
5
7
8
8
8
9
11
18
29
45
64
85
105
119
124
117
97
65
23
-25
-73
-118
-155
-182
-197
-203
-200
-192
-181
-169
-158
-148
-139
-130
-121
-111
-99
-86
-72
-58
-44
-31
-21
-13
-8
-6
-6
-8
-11
-13
-15
-16
-14
-12
-8
-3
1
4
5
6
5
3
1
-1
-3
-4
-5
-4
-3
-1
1
4
6
9
10
12
12
12
11
11
10
11
12
14
16
18
19
20
20
19
19
19
19
22
25
30
37
43
50
55
58
60
60
58
56
54
53
53
56
60
65
71
76
79
81
81
78
75
71
66
63
60
58
57
55
52
49
44
38
32
26
21
17
14
12
10
8
7
5
2
0
-3
-5
-7
-10
-12
-15
-19
-23
-27
-30
-33
-34
-33
-32
-30
-28
-26
-25
-26
-27
-29
-31
-32
-31
-30
-28
-25
-23
-22
-22
-23
-25
-27
-28
-28
-28
-26
-25
-23
-23
-23
-25
-27
-29
-31
-32
-31
-29
-26
-23
-20
-18
-17
-17
-18
-19
-20
-20
-19
-17
-15
-13
-12
-12
-12
-14
-15
-17
-18
-18
-18
-18
-18
-17
-17
-17
-17
-17
-15
-13
-10
-6
-2
1
3
4
4
2
0
-2
-4
-4
-4
-4
-3
-2
-2
-3
-4
-6
-9
-11
-13
-13
-13
-12
-10
-9
-9
-10
-12
-16
-19
-23
-25
-27
-27
-26
-24
-22
-20
-19
-18
-18
-19
-20
-20
-20
-18
-16
-14
-12
-11
-11
-13
-16
-19
-24
-27
-30
-32
-33
-32
-32
-31
-30
-30
-30
-30
-30
-30
-28
-26
-23
-20
-17
-13
-9
-4
3
13
26
43
61
79
94
103
102
88
63
26
-20
-69
-118
-160
-193
-215
-225
-224
-216
-204
-189
-175
-162
-150
-138
-127
-115
-103
-91
-80
-70
-63
-57
-53
-48
-43
-36
-28
-20
-11
-5
-1
1
-1
-4
-7
-10
-12
-12
-9
-6
-3
-1
0
0
-2
-4
-6
-7
-7
-6
-4
-2
0
2
4
6
7
8
10
11
12
13
13
13
13
13
14
17
20
24
29
34
38
41
44
45
47
48
50
52
55
58
61
63
65
66
66
67
68
69
72
75
78
82
85
88
90
90
90
89
87
84
81
77
72
68
63
59
55
51
48
44
40
35
29
22
15
8
2
-4
-8
-10
-11
-10
-9
-8
-7
-6
-6
-7
-8
-9
-10
-10
-10
-10
-10
-10
-11
-12
-13
-13
-13
-12
-11
-9
-7
-6
-6
-7
-8
-10
-12
-14
-14
-14
-14
-13
-13
-14
-15
-16
-17
-18
-19
-18
-16
-13
-10
-6
-3
-1
1
3
5
6
8
9
10
9
8
6
3
0
-3
-6
-6
-5
-3
0
4
6
8
8
7
4
2
0
0
2
4
9
13
18
21
23
23
21
19
16
13
12
12
13
16
18
21
23
24
24
24
24
23
24
25
26
28
30
31
30
29
26
23
20
18
16
15
15
16
16
17
16
16
14
12
10
8
7
5
5
4
4
3
4
4
5
6
8
9
9
9
8
7
5
4
3
3
3
4
6
7
8
8
7
6
4
3
3
4
6
9
12
15
20
26
36
49
66
86
109
130
148
157
156
142
115
77
30
-19
-68
-110
-144
-167
-178
-180
-173
-161
-146
-131
-116
-101
-88
-76
-65
-53
-42
-30
-19
-7
4
14
24
33
41
48
54
58
62
64
65
65
64
64
63
62
62
62
61
61
61
61
60
59
58
56
55
53
52
51
51
50
50
49
49
48
47
46
46
46
47
48
49
50
52
53
53
53
53
52
51
50
50
50
50
51
52
54
55
56
57
58
59
60
61
62
63
64
65
66
66
67
67
68
68
68
68
67
65
63
60
57
52
47
42
36
31
25
19
13
8
3
-1
-5
-9
-12
-15
-19
-22
-26
-29
-33
-36
-40
-43
-46
-48
-50
-51
-51
-50
-49
-47
-46
-45
-45
-45
-47
-49
-52
-55
-58
-60
-61
-62
-62
-61
-60
-59
-58
-57
-57
-57
-57
-57
-58
-58
-59
-59
-59
-59
-59
-57
-56
-54
-52
-50
-49
-48
-48
-49
-50
-51
-52
-52
-51
-49
-47
-44
-41
-39
-38
-37
-37
-37
-37
-36
-35
-33
-31
-28
-26
-24
-24
-24
-24
-26
-27
-27
-27
-26
-24
-22
-20
-18
-17
-16
-15
-15
-15
-15
-14
-13
-11
-10
-9
-9
-10
-11
-12
-13
-13
-12
-10
-7
-3
0
4
6
7
7
6
5
3
2
1
0
0
-1
-1
-2
-3
-4
-5
-6
-7
-8
-9
-10
-12
-14
-16
-17
-18
-18
-17
-16
-13
-9
-6
-3
0
1
0
-2
-5
-10
-14
-17
-19
-20
-19
-17
-14
-12
-10
-10
-11
-13
-15
-17
-18
-17
-15
-11
-7
-4
-2
0
2
7
15
28
48
72
99
124
143
151
146
124
88
40
-16
-72
-124
-166
-196
-214
-219
-215
-206
-193
-180
-168
-157
-147
-136
-123
-110
-95
-80
-65
-52
-40
-30
-21
-14
-8
-2
4
10
15
19
21
21
19
17
15
12
11
11
13
15
18
21
22
23
22
20
17
14
11
9
9
10
12
16
20
24
28
31
34
35
36
36
36
35
35
35
35
37
39
41
45
49
53
57
61
64
66
68
68
68
68
68
69
71
75
80
85
91
97
103
107
109
110
108
106
103
99
95
92
89
87
85
83
81
79
77
74
71
67
63
59
53
48
42
35
29
22
16
11
7
3
0
-3
-5
-8
-10
-12
-13
-15
-15
-15
-15
-14
-13
-12
-12
-12
-12
-12
-12
-12
-12
-12
-11
-11
-12
-13
-14
-16
-17
-19
-19
-20
-19
-18
-16
-15
-14
-14
-15
-16
-18
-20
-22
-24
-25
-24
-23
-21
-18
-16
-14
-12
-12
-13
-15
-17
-18
-19
-20
-19
-18
-16
-14
-13
-12
-13
-13
-14
-15
-16
-16
-16
-15
-14
-13
-12
-12
-13
-14
-15
-17
-18
-18
-18
-17
-14
-11
-7
-4
-1
1
2
1
0
-2
-4
-6
-7
-7
-7
-6
-6
-6
-6
-7
-7
-8
-8
-7
-5
-2
1
3
5
6
6
4
2
-1
-3
-5
-6
-6
-6
-5
-5
-5
-6
-8
-10
-12
-14
-15
-16
-16
-16
-15
-14
-14
-14
-15
-16
-17
-17
-18
-19
-19
-19
-19
-18
-18
-18
-19
-19
-19
-18
-18
-17
-15
-14
-13
-13
-13
-14
-15
-15
-14
-12
-10
-7
-4
-2
-1
1
4
10
20
35
54
77
99
116
125
122
104
71
25
-29
-85
-139
-184
-218
-239
-248
-246
-238
-227
-214
-202
-190
-179
-167
-154
-139
-122
-104
-86
-70
-56
-46
-38
-33
-29
-26
-23
-19
-15
-11
-7
-4
-2
0
0
1
2
3
4
6
7
9
10
11
11
12
13
14
15
16
17
18
18
19
19
19
20
21
23
26
28
31
34
36
37
37
37
37
36
36
36
37
39
40
43
46
49
53
58
63
69
75
80
85
90
93
95
97
98
98
99
99
100
101
102
103
104
104
104
103
102
101
99
97
94
90
84
78
71
64
56
49
43
38
34
31
28
24
21
17
12
8
4
0
-3
-5
-6
-7
-7
-8
-10
-12
-14
-17
-19
-21
-22
-23
-23
-23
-22
-21
-21
-20
-20
-19
-19
-19
-19
-19
-20
-21
-22
-23
-23
-23
-22
-21
-19
-17
-15
-14
-14
-15
-17
-20
-23
-26
-28
-30
-31
-30
-29
-27
-25
-22
-19
-17
-15
-14
-15
-16
-18
-20
-23
-25
-26
-26
-25
-23
-21
-18
-15
-14
-13
-14
-15
-16
-17
-18
-17
-15
-12
-9
-7
-6
-7
-9
-12
-15
-18
-20
-19
-18
-14
-9
-4
0
4
6
6
6
4
2
0
-1
-3
-4
-5
-5
-5
-5
-4
-2
0
3
5
7
9
9
7
5
1
-3
-6
-9
-12
-13
-13
-13
-13
-12
-13
-13
-14
-16
-17
-17
-17
-17
-16
-16
-15
-14
-14
-14
-15
-16
-17
-18
-19
-20
-20
-19
-18
-17
-16
-15
-15
-15
-15
-16
-16
-16
-15
-13
-10
-7
-4
-2
1
4
8
16
28
45
66
90
114
134
144
142
125
93
47
-8
-67
-124
-175
-214
-239
-252
-253
-245
-231
-215
-198
-181
-164
-148
-132
-115
-99
-83
-69
-57
-47
-39
-33
-28
-23
-18
-12
-7
-1
3
5
6
6
6
5
5
5
7
8
10
12
13
13
13
13
13
14
16
18
21
24
27
29
30
31
31
31
32
33
34
37
39
41
43
44
45
46
47
48
50
53
57
61
66
70
73
76
78
79
80
81
83
85
88
91
93
96
98
100
101
102
104
106
109
111
113
114
114
113
110
106
101
98
95
93
92
91
90
88
84
80
73
66
59
53
47
42
39
35
31
27
22
16
11
5
1
-1
-2
-2
-2
-1
0
-1
-2
-4
-7
-9
-12
-13
-14
-14
-14
-14
-14
-14
-15
-15
-16
-16
-16
-15
-13
-12
-10
-9
-8
-8
-8
-9
-10
-12
-14
-16
-18
-19
-20
-19
-17
-15
-11
-8
-6
-5
-5
-6
-8
-11
-13
-15
-16
-16
-14
-13
-11
-10
-10
-10
-10
-12
-12
-13
-13
-13
-12
-11
-10
-9
-8
-8
-8
-7
-7
-6
-5
-4
-4
-4
-4
-5
-7
-8
-8
-8
-7
-5
-3
-1
1
2
2
2
1
-1
-2
-3
-3
-2
0
3
5
8
10
10
10
9
6
3
0
-4
-7
-10
-13
-14
-14
-14
-13
-12
-11
-10
-10
-11
-13
-15
-17
-19
-20
-20
-19
-18
-16
-15
-14
-14
-14
-15
-15
-16
-16
-16
-16
-16
-16
-18
-21
-23
-26
-27
-26
-23
-19
-13
-8
-3
0
2
5
9
17
30
48
71
96
118
134
140
131
107
68
18
-39
-96
-148
-192
-223
-241
-247
-243
-233
-219
-204
-188
-174
-160
-147
-133
-118
-102
-85
-70
-55
-42
-32
-25
-20
-17
-15
-14
-13
-11
-8
-5
-2
1
4
6
7
7
7
7
7
7
8
9
10
12
13
14
15
15
15
15
14
14
14
14
15
16
18
20
22
24
26
28
30
32
33
34
36
37
40
42
45
48
51
54
57
60
63
67
70
73
76
79
82
84
85
87
87
89
90
92
95
98
102
105
107
108
109
108
105
102
99
95
91
88
84
81
78
74
70
65
59
53
47
40
33
26
20
15
11
9
7
6
5
4
3
1
-2
-5
-8
-10
-13
-14
-14
-14
-13
-11
-9
-8
-7
-6
-6
-7
-8
-9
-11
-12
-14
-15
-17
-17
-18
-18
-18
-17
-16
-15
-15
-14
-14
-15
-17
-19
-21
-23
-25
-26
-27
-27
-26
-24
-22
-19
-17
-16
-14
-14
-13
-13
-13
-13
-13
-12
-12
-11
-11
-10
-10
-10
-10
-10
-10
-9
-8
-7
-7
-6
-6
-6
-6
-7
-7
-8
-9
-9
-9
-8
-8
-7
-7
-7
-7
-7
-7
-7
-7
-7
-6
-5
-4
-3
-3
-2
-2
-2
-1
-1
0
0
0
0
-1
-3
-5
-9
-13
-16
-19
-21
-22
-21
-20
-18
-17
-16
-16
-16
-17
-18
-19
-19
-18
-17
-14
-11
-9
-8
-8
-10
-14
-18
-23
-27
-30
-31
-31
-29
-27
-25
-24
-23
-23
-23
-23
-22
-19
-16
-13
-9
-6
-4
-1
4
11
22
37
57
79
100
117
124
118
98
62
15
-41
-99
-153
-198
-231
-250
-255
-251
-239
-224
-208
-194
-182
-172
-162
-152
-140
-126
-110
-94
-79
-65
-54
-45
-39
-34
-29
-25
-20
-15
-10
-5
-2
0
0
0
-1
-2
-2
-1
0
2
5
7
8
9
9
9
8
7
7
7
8
9
10
11
12
13
14
16
18
19
21
23
25
26
26
27
27
27
28
30
33
36
40
45
49
53
57
60
63
66
69
72
76
79
83
87
90
93
95
97
98
98
99
100
101
102
103
103
102
101
99
96
92
87
82
77
71
65
60
54
49
44
39
35
32
28
25
22
18
15
11
7
4
0
-3
-5
-8
-9
-11
-11
-12
-12
-12
-12
-12
-12
-13
-15
-17
-18
-20
-21
-21
-21
-19
-17
-14
-12
-11
-11
-12
-14
-16
-19
-21
-22
-23
-22
-20
-18
-16
-15
-15
-15
-16
-18
-19
-20
-20
-19
-18
-16
-15
-14
-14
-14
-15
-15
-15
-14
-13
-12
-11
-10
-10
-11
-13
-15
-17
-18
-19
-18
-16
-14
-11
-9
-6
-4
-2
-1
-1
-1
-1
-2
-3
-4
-4
-5
-5
-4
-3
-2
-1
0
1
1
2
2
1
1
1
1
1
0
0
0
0
0
1
1
2
2
2
1
-1
-3
-6
-8
-10
-11
-11
-10
-9
-8
-8
-8
-9
-11
-14
-16
-17
-18
-18
-17
-16
-15
-15
-16
-17
-19
-20
-21
-21
-20
-19
-18
-16
-15
-14
-13
-12
-11
-10
-8
-7
-6
-5
-4
-2
2
10
23
41
64
88
112
131
141
138
121
89
46
-7
-62
-115
-162
-198
-222
-234
-235
-229
-218
-205
-191
-178
-165
-152
-140
-126
-111
-96
-80
-65
-50
-38
-28
-20
-14
-9
-6
-5
-4
-3
-3
-3
-3
-3
-2
0
2
4
6
9
11
12
13
14
13
13
12
10
9
8
7
6
6
7
8
11
14
18
22
26
30
32
34
34
34
33
32
31
32
33
36
39
42
46
49
51
54
55
57
60
62
66
69
73
78
82
85
88
91
94
96
98
100
102
103
104
103
102
99
97
93
90
87
85
83
82
80
79
77
75
71
67
61
55
49
42
35
28
22
16
12
7
4
2
0
0
-1
0
0
0
0
-1
-2
-3
-4
-6
-7
-8
-9
-9
-10
-11
-11
-12
-13
-13
-13
-12
-11
-10
-9
-9
-9
-11
-14
-17
-21
-23
-24
-23
-20
-17
-13
-9
-6
-5
-5
-6
-8
-11
-12
-13
-14
-13
-13
-12
-12
-13
-15
-16
-17
-17
-15
-13
-10
-6
-3
-1
0
-1
-3
-6
-8
-11
-12
-12
-11
-9
-6
-4
-3
-3
-3
-4
-4
-5
-5
-4
-2
0
2
4
6
6
7
6
6
6
6
6
7
8
8
9
8
8
6
5
4
2
1
0
-2
-3
-5
-7
-9
-12
-15
-17
-19
-20
-20
-20
-19
-18
-16
-15
-14
-13
-12
-11
-10
-10
-10
-10
-11
-12
-13
-14
-16
-16
-16
-15
-15
-14
-14
-14
-16
-18
-21
-22
-23
-22
-19
-15
-11
-7
-3
1
4
9
18
30
48
70
94
116
132
139
131
109
73
24
-31
-88
-140
-184
-216
-234
-241
-239
-230
-217
-204
-190
-178
-165
-152
-138
-123
-107
-90
-75
-61
-49
-39
-31
-25
-19
-14
-10
-5
-2
1
3
4
4
4
3
2
2
2
3
3
4
4
4
5
5
7
8
11
13
16
18
19
20
19
19
18
17
17
18
19
20
22
24
25
27
29
30
32
35
37
40
43
46
50
52
55
58
60
63
66
69
72
75
78
81
84
87
90
94
97
100
102
104
105
105
104
102
100
98
95
92
90
88
85
83
80
77
74
70
65
61
57
52
47
43
38
33
27
22
17
12
8
5
2
1
0
0
0
0
-1
-3
-5
-7
-10
-12
-14
-15
-16
-15
-14
-13
-12
-12
-12
-12
-13
-14
-15
-16
-16
-16
-15
-14
-14
-13
-13
-13
-13
-13
-13
-13
-14
-16
-17
-20
-22
-24
-25
-25
-23
-21
-17
-14
-11
-9
-9
-10
-12
-14
-16
-18
-18
-17
-15
-13
-10
-9
-7
-7
-7
-8
-8
-9
-8
-8
-8
-7
-7
-7
-7
-7
-8
-8
-7
-6
-5
-4
-3
-3
-4
-6
-8
-10
-11
-12
-12
-11
-9
-6
-2
1
3
5
5
5
5
3
2
1
1
0
0
-1
-2
-4
-6
-8
-10
-13
-14
-15
-15
-14
-13
-11
-10
-9
-9
-11
-12
-14
-17
-19
-20
-21
-21
-21
-20
-20
-20
-21
-23
-24
-25
-26
-25
-24
-22
-19
-18
-17
-17
-18
-20
-21
-22
-21
-19
-16
-13
-9
-4
1
7
17
29
46
66
88
109
125
132
126
107
73
27
-27
-84
-139
-185
-221
-243
-252
-249
-239
-224
-207
-190
-175
-161
-148
-136
-124
-111
-97
-83
-69
-56
-44
-33
-24
-17
-11
-8
-6
-6
-7
-8
-8
-9
-8
-6
-3
0
3
5
6
5
4
3
1
0
1
2
5
9
13
17
20
21
22
22
21
20
18
17
17
17
18
20
23
26
28
31
33
35
37
38
40
42
45
48
52
56
60
63
66
69
71
73
76
78
82
86
90
94
97
100
101
101
101
100
100
99
99
99
99
99
98
96
93
89
84
80
75
70
66
61
57
52
47
42
37
32
27
23
19
16
13
10
8
5
2
-1
-3
-5
-6
-6
-7
-7
-7
-7
-8
-10
-11
-13
-15
-16
-18
-18
-19
-19
-19
-18
-18
-17
-16
-15
-15
-16
-18
-19
-22
-24
-25
-25
-24
-22
-18
-15
-11
-8
-7
-6
-7
-9
-11
-12
-13
-13
-13
-12
-11
-10
-10
-10
-11
-12
-14
-15
-15
-16
-16
-15
-14
-14
-13
-13
-12
-12
-12
-12
-11
-10
-10
-9
-8
-8
-8
-8
-9
-10
-10
-10
-10
-8
-7
-4
-2
0
1
2
1
1
0
-2
-3
-3
-3
-2
-1
1
2
3
3
3
2
0
-1
-3
-5
-6
-7
-7
-8
-9
-10
-11
-13
-14
-15
-16
-16
-15
-14
-12
-11
-10
-10
-10
-12
-13
-16
-17
-19
-20
-20
-20
-19
-19
-18
-18
-18
-18
-17
-17
-16
-15
-14
-14
-15
-16
-18
-20
-22
-22
-21
-19
-16
-11
-6
1
9
20
34
50
70
90
109
124
130
124
105
72
28
-24
-80
-134
-181
-218
-242
-254
-255
-248
-236
-221
-206
-191
-177
-163
-148
-133
-116
-99
-82
-66
-52
-41
-32
-25
-21
-17
-15
-12
-10
-7
-5
-3
-2
-2
-2
-2
-3
-2
-1
2
4
7
10
11
12
11
9
7
6
4
5
6
8
12
15
18
20
21
22
23
23
24
26
29
32
35
37
39
41
42
42
43
44
46
49
52
57
62
66
70
73
76
78
79
81
83
86
90
94
98
102
105
106
107
106
105
103
101
99
97
97
96
95
94
93
91
88
84
80
76
71
66
60
55
49
42
36
30
24
19
15
12
10
8
8
7
7
6
4
2
0
-3
-6
-8
-11
-12
-13
-13
-12
-10
-8
-6
-5
-5
-5
-7
-10
-13
-16
-18
-19
-19
-17
-16
-13
-11
-10
-10
-10
-12
-14
-16
-17
-18
-18
-18
-16
-14
-12
-9
-7
-6
-5
-5
-6
-7
-9
-10
-12
-13
-14
-14
-14
-13
-12
-11
-10
-9
-9
-8
-8
-7
-6
-5
-3
-2
-1
-1
-1
-2
-3
-4
-6
-7
-7
-7
-6
-5
-3
-2
-1
-1
-1
-2
-2
-3
-4
-3
-3
-2
0
1
3
4
5
5
5
4
4
3
2
1
0
-1
-2
-4
-6
-8
-11
-14
-16
-18
-19
-20
-19
-18
-17
-15
-13
-12
-11
-11
-12
-13
-14
-15
-16
-16
-17
-17
-18
-18
-18
-18
-17
-16
-15
-14
-14
-14
-14
-15
-17
-18
-19
-19
-18
-17
-16
-14
-11
-7
-1
8
22
39
61
84
105
122
130
126
109
77
34
-18
-73
-126
-172
-208
-231
-243
-244
-238
-226
-213
-200
-187
-175
-162
-149
-135
-120
-103
-87
-72
-58
-47
-37
-30
-24
-19
-15
-11
-8
-6
-5
-4
-4
-5
-5
-5
-4
-3
0
3
5
8
9
10
11
11
11
12
12
13
13
13
14
13
13
13
13
14
16
19
22
25
28
30
32
34
34
35
35
35
36
36
37
38
40
43
46
50
55
61
66
72
77
81
84
86
87
89
90
91
92
94
96
97
98
99
99
99
98
97
96
95
94
92
90
86
81
75
68
61
53
46
40
35
32
29
28
26
26
24
23
21
18
15
12
8
5
1
-1
-4
-5
-6
-7
-7
-8
-8
-9
-11
-12
-14
-16
-17
-18
-18
-18
-18
-17
-16
-16
-15
-15
-14
-14
-15
-15
-15
-16
-17
-17
-18
-18
-18
-17
-16
-15
-13
-12
-11
-10
-10
-10
-11
-13
-15
-16
-18
-19
-19
-19
-18
-16
-15
-13
-11
-10
-9
-9
-9
-10
-11
-11
-11
-11
-10
-9
-8
-6
-4
-3
-1
-1
0
-1
-1
-3
-5
-6
-8
-9
-10
-9
-8
-5
-2
1
4
5
6
5
4
1
-1
-2
-3
-2
-1
1
2
4
4
3
2
0
-3
-4
-6
-6
-7
-7
-8
-9
-10
-12
-14
-16
-16
-16
-15
-13
-12
-10
-9
-9
-10
-11
-12
-13
-13
-13
-13
-13
-13
-13
-14
-16
-17
-19
-20
-20
-19
-18
-17
-16
-16
-15
-15
-14
-14
-13
-11
-10
-8
-5
0
7
18
33
52
74
96
116
130
132
122
97
59
10
-45
-101
-152
-193
-222
-238
-241
-234
-221
-205
-188
-173
-159
-147
-135
-123
-110
-96
-80
-65
-52
-40
-30
-23
-18
-15
-12
-9
-6
-4
-1
1
2
3
2
1
0
-1
-1
0
2
4
6
8
10
11
12
13
13
14
15
15
16
17
16
16
15
14
14
14
15
17
20
24
28
33
37
41
43
46
47
48
48
48
49
49
51
52
55
58
62
66
71
76
81
85
89
92
94
96
96
96
96
95
94
93
92
92
92
92
93
94
95
95
94
92
88
83
77
71
64
58
53
48
43
39
36
32
28
24
20
16
13
10
8
6
4
1
-1
-5
-7
-10
-12
-13
-13
-12
-11
-10
-10
-10
-11
-12
-14
-16
-17
-18
-18
-17
-16
-14
-13
-12
-11
-11
-11
-11
-12
-13
-14
-16
-17
-19
-20
-21
-22
-21
-20
-18
-16
-14
-12
-11
-11
-11
-12
-14
-16
-17
-19
-20
-19
-18
-16
-14
-11
-8
-5
-4
-3
-4
-6
-9
-12
-14
-17
-18
-18
-17
-15
-12
-9
-6
-3
-1
0
0
0
-1
-2
-4
-5
-6
-7
-8
-8
-8
-8
-7
-7
-6
-5
-5
-5
-5
-5
-6
-6
-6
-5
-5
-4
-3
-2
-2
-2
-3
-5
-7
-9
-12
-14
-17
-19
-21
-23
-24
-25
-25
-25
-24
-22
-20
-19
-17
-16
-16
-17
-18
-20
-22
-25
-27
-29
-30
-30
-30
-29
-27
-25
-23
-22
-21
-21
-23
-24
-26
-27
-28
-27
-26
-23
-21
-18
-15
-11
-6
4
17
36
58
83
107
126
136
133
115
82
37
-16
-72
-126
-173
-208
-231
-241
-241
-234
-223
-209
-195
-181
-168
-154
-139
-124
-107
-91
-74
-59
-46
-35
-27
-20
-15
-10
-7
-4
-2
-1
0
0
1
2
3
4
6
7
9
10
10
10
9
8
8
8
9
10
12
14
16
18
19
21
22
24
26
28
30
32
33
34
34
32
31
29
28
28
29
31
35
40
45
51
56
60
64
67
69
71
73
75
77
79
81
84
87
89
92
95
97
100
102
104
105
106
107
107
106
104
103
100
98
95
91
87
82
77
72
67
61
57
52
48
43
39
34
29
23
18
13
9
6
4
2
1
0
-2
-5
-8
-12
-15
-17
-18
-17
-16
-13
-10
-7
-6
-6
-8
-11
-15
-18
-21
-23
-24
-24
-23
-21
-19
-18
-17
-17
-18
-20
-22
-23
-24
-25
-24
-23
-22
-20
-19
-17
-16
-15
-15
-15
-16
-17
-17
-18
-19
-19
-19
-19
-19
-18
-17
-16
-15
-14
-13
-12
-12
-12
-12
-14
-15
-17
-18
-19
-20
-20
-19
-18
-16
-14
-13
-11
-11
-11
-11
-12
-13
-13
-13
-11
-9
-6
-4
-1
1
2
1
0
-2
-4
-6
-7
-7
-7
-5
-4
-1
1
3
4
6
7
8
9
9
8
6
4
0
-4
-8
-12
-15
-17
-18
-18
-17
-15
-12
-9
-7
-6
-6
-6
-8
-10
-13
-15
-17
-18
-18
-17
-16
-14
-12
-10
-10
-10
-11
-12
-13
-15
-16
-16
-17
-18
-19
-21
-23
-25
-25
-24
-22
-17
-12
-6
-1
3
6
8
10
15
25
39
59
82
105
124
134
131
112
77
29
-29
-89
-145
-193
-227
-247
-254
-249
-237
-221
-205
-190
-176
-165
-153
-142
-128
-113
-97
-80
-64
-50
-39
-30
-23
-18
-14
-11
-9
-6
-4
-3
-2
-1
-1
-1
-1
0
1
2
4
6
8
9
10
10
11
11
11
13
14
17
19
22
24
26
26
26
26
24
23
22
22
22
23
25
27
30
32
35
38
41
44
48
52
55
59
62
65
67
69
70
71
73
76
79
83
87
92
97
100
103
104
104
103
101
99
98
97
96
97
97
98
98
97
95
91
86
80
73
66
60
55
50
46
43
39
35
31
26
21
17
12
8
5
3
1
0
0
-2
-3
-5
-7
-9
-10
-10
-10
-9
-8
-7
-7
-7
-8
-10
-13
-16
-18
-19
-19
-17
-15
-12
-9
-7
-6
-6
-8
-10
-13
-16
-17
-18
-17
-16
-14
-11
-10
-9
-9
-10
-11
-13
-14
-15
-15
-15
-14
-12
-11
-10
-9
-9
-9
-9
-9
-8
-8
-7
-6
-5
-5
-5
-6
-7
-8
-10
-10
-11
-10
-10
-9
-8
-8
-8
-9
-10
-11
-11
-11
-9
-7
-5
-2
0
1
2
1
-1
-3
-5
-6
-6
-6
-4
-2
0
2
3
4
4
3
3
2
1
1
1
1
1
1
0
0
-1
-2
-2
-3
-3
-4
-5
-6
-7
-9
-11
-13
-15
-16
-16
-16
-15
-14
-13
-11
-10
-8
-6
-5
-4
-3
-3
-3
-4
-7
-9
-12
-15
-17
-19
-19
-18
-17
-16
-15
-14
-14
-14
-14
-13
-12
-10
-8
-5
-3
0
3
8
16
27
43
63
85
106
121
129
125
108
78
36
-13
-65
-115
-158
-193
-216
-228
-231
-226
-216
-203
-188
-173
-158
-143
-127
-112
-97
-82
-68
-55
-43
-34
-26
-19
-14
-10
-7
-5
-3
-1
0
2
3
4
5
6
7
7
7
7
7
7
7
7
7
7
7
8
9
10
11
13
15
17
19
20
21
21
22
22
22
23
24
26
28
30
32
33
34
34
35
36
38
40
43
47
51
55
58
62
64
67
70
73
76
79
82
85
87
89
89
89
88
87
87
88
89
91
93
95
96
96
95
93
89
85
79
73
67
61
54
48
43
38
33
29
25
21
18
14
10
6
2
-1
-4
-6
-7
-6
-5
-3
-1
0
1
0
-1
-3
-6
-8
-10
-10
-10
-10
-10
-9
-10
-11
-12
-13
-15
-15
-15
-15
-14
-13
-13
-13
-14
-16
-18
-19
-21
-21
-20
-19
-17
-15
-14
-12
-12
-11
-12
-12
-12
-12
-12
-12
-11
-11
-11
-11
-11
-11
-11
-11
-11
-10
-9
-8
-7
-6
-6
-7
-8
-9
-10
-10
-11
-12
-12
-12
-12
-12
-12
-11
-10
-9
-8
-7
-6
-6
-6
-7
-8
-8
-9
-9
-8
-7
-6
-4
-3
-2
-2
-2
-3
-4
-4
-4
-4
-3
-1
1
3
5
7
8
10
10
11
10
9
7
5
2
-1
-4
-6
-7
-8
-8
-8
-7
-7
-7
-7
-8
-9
-10
-12
-13
-14
-14
-15
-15
-15
-14
-13
-13
-12
-11
-10
-10
-10
-10
-11
-12
-13
-13
-14
-14
-14
-14
-14
-14
-15
-17
-19
-20
-21
-22
-21
-19
-16
-12
-9
-6
-2
4
12
24
40
61
83
105
122
130
126
109
77
33
-19
-75
-128
-173
-208
-230
-239
-238
-230
-216
-201
-186
-171
-157
-144
-131
-117
-103
-88
-74
-61
-50
-40
-32
-25
-19
-14
-9
-6
-4
-2
-2
-2
-2
-3
-3
-2
-1
0
2
3
3
4
3
3
4
5
7
10
13
15
17
18
18
18
17
16
15
15
17
18
21
24
26
29
31
33
34
36
37
39
41
43
44
46
48
50
53
55
58
61
64
67
69
71
73
74
76
78
81
85
89
94
98
101
103
102
101
98
95
92
90
89
89
89
88
87
85
81
76
69
62
56
50
44
40
36
32
28
24
20
16
12
8
5
3
2
1
0
-1
-2
-3
-5
-7
-9
-11
-11
-11
-11
-11
-11
-11
-12
-14
-17
-19
-21
-23
-24
-23
-22
-19
-16
-13
-10
-9
-8
-8
-9
-11
-12
-13
-14
-15
-15
-16
-16
-16
-17
-18
-19
-20
-21
-21
-20
-20
-19
-18
-17
-16
-16
-15
-15
-14
-13
-12
-12
-11
-11
-11
-12
-13
-14
-15
-17
-17
-18
-19
-19
-19
-19
-18
-17
-16
-14
-12
-10
-8
-6
-5
-5
-6
-8
-10
-12
-15
-16
-17
-17
-16
-15
-13
-12
-11
-9
-9
-8
-8
-8
-7
-7
-6
-6
-5
-4
-4
-3
-2
-2
-2
-1
-1
-1
-1
-1
-1
0
1
1
2
2
1
0
-2
-5
-8
-12
-15
-18
-20
-22
-22
-22
-21
-19
-17
-16
-14
-13
-13
-14
-16
-18
-20
-22
-24
-25
-25
-25
-24
-22
-21
-19
-18
-17
-16
-15
-15
-15
-16
-17
-18
-18
-18
-18
-16
-14
-12
-10
-9
-9
-9
-9
-6
1
14
32
55
81
105
124
132
128
107
72
24
-33
-91
-146
-193
-227
-248
-255
-252
-240
-223
-206
-188
-173
-159
-147
-136
-124
-112
-99
-85
-71
-57
-45
-34
-25
-17
-12
-8
-6
-5
-5
-6
-7
-7
-8
-8
-8
-7
-6
-4
-2
1
3
6
9
11
13
15
16
16
16
15
15
14
14
14
15
17
19
22
25
28
31
33
34
35
35
34
33
33
33
33
35
37
41
45
50
54
59
64
68
71
75
78
81
84
87
90
92
95
96
98
99
100
100
101
102
104
105
105
105
104
102
99
96
92
88
84
80
76
72
68
63
58
52
45
39
34
29
25
22
20
19
18
16
15
13
10
7
5
2
0
-2
-3
-5
-6
-8
-9
-11
-12
-13
-14
-15
-15
-15
-15
-14
-14
-13
-11
-10
-9
-9
-9
-9
-10
-11
-12
-13
-13
-13
-12
-11
-10
-9
-9
-9
-9
-10
-11
-12
-13
-13
-12
-12
-11
-11
-10
-10
-11
-11
-12
-12
-12
-11
-10
-10
-9
-9
-8
-9
-9
-9
-9
-9
-8
-7
-6
-5
-4
-4
-4
-5
-7
-8
-10
-11
-12
-12
-11
-9
-7
-6
-4
-4
-4
-5
-6
-8
-10
-11
-11
-10
-8
-6
-3
-1
1
1
0
-1
-3
-6
-8
-9
-9
-7
-5
-2
2
5
9
11
13
13
13
11
9
6
3
-1
-4
-7
-10
-12
-13
-14
-14
-13
-13
-12
-12
-11
-11
-11
-11
-11
-12
-13
-15
-16
-17
-18
-18
-18
-17
-15
-14
-13
-12
-13
-14
-15
-17
-19
-20
-19
-18
-16
-14
-13
-11
-11
-11
-12
-13
-13
-13
-11
-9
-7
-3
1
8
17
30
47
68
90
110
126
132
125
103
67
18
-39
-99
-154
-201
-234
-252
-257
-250
-237
-221
-204
-190
-178
-169
-159
-148
-135
-118
-100
-81
-63
-48
-36
-28
-23
-21
-20
-18
-15
-12
-8
-4
0
2
4
4
3
2
2
3
4
7
10
13
15
18
19
20
21
22
22
23
23
23
23
22
22
21
21
21
21
23
25
27
30
32
35
38
41
44
46
48
50
52
54
57
59
63
66
70
74
78
81
84
87
89
90
91
92
93
94
96
99
102
105
109
112
114
115
116
115
113
110
107
103
99
95
90
86
81
76
71
66
60
55
51
47
43
40
37
34
31
27
22
17
12
8
4
1
-2
-3
-3
-3
-3
-4
-5
-7
-9
-12
-15
-17
-19
-19
-19
-17
-15
-12
-9
-7
-4
-3
-2
-3
-3
-4
-5
-6
-7
-8
-8
-9
-10
-11
-12
-12
-12
-12
-11
-10
-10
-9
-9
-11
-12
-14
-16
-18
-17
-16
-13
-10
-6
-2
0
1
0
-2
-5
-8
-10
-11
-11
-10
-9
-7
-6
-6
-7
-8
-10
-11
-12
-12
-10
-8
-5
-2
1
2
3
3
2
0
-2
-3
-4
-4
-4
-3
-1
0
1
1
1
1
1
0
0
0
0
1
2
3
5
5
6
5
4
2
0
-3
-7
-10
-13
-15
-17
-17
-16
-15
-12
-10
-8
-6
-6
-7
-8
-11
-13
-16
-17
-18
-17
-16
-14
-13
-12
-12
-13
-15
-17
-19
-20
-21
-20
-19
-18
-17
-18
-20
-23
-26
-28
-30
-29
-25
-20
-13
-7
-1
3
5
8
12
20
33
51
73
96
116
129
130
116
88
45
-6
-62
-117
-164
-201
-226
-239
-243
-240
-233
-224
-214
-204
-191
-176
-158
-137
-115
-93
-74
-57
-45
-38
-33
-31
-29
-27
-23
-19
-14
-9
-6
-4
-4
-5
-6
-7
-7
-5
-3
1
5
8
11
12
12
11
9
8
7
7
7
9
10
12
14
15
16
16
15
15
15
16
17
19
22
25
28
30
32
34
36
37
39
41
44
47
50
53
56
58
60
62
64
67
70
73
77
80
83
85
86
86
86
85
85
85
85
87
88
90
92
93
94
93
91
88
84
79
73
67
60
54
48
42
37
33
29
25
22
19
15
12
8
4
0
-4
-7
-10
-12
-13
-14
-13
-12
-11
-10
-9
-9
-9
-11
-13
-15
-18
-19
-21
-21
-20
-19
-17
-15
-14
-14
-15
-18
-20
-23
-25
-27
-27
-26
-25
-22
-19
-16
-13
-11
-10
-9
-8
-8
-8
-9
-10
-11
-12
-14
-16
-17
-18
-18
-17
-16
-14
-12
-9
-7
-6
-6
-6
-7
-8
-9
-10
-11
-11
-10
-9
-8
-7
-5
-4
-3
-3
-3
-3
-3
-3
-3
-3
-3
-3
-3
-3
-3
-3
-3
-2
-1
1
3
4
6
8
9
10
10
10
9
8
8
7
7
7
7
6
6
4
2
0
-3
-6
-9
-11
-13
-15
-15
-16
-16
-16
-16
-17
-18
-20
-23
-25
-28
-29
-30
-30
-29
-26
-24
-21
-18
-17
-16
-16
-16
-18
-19
-21
-22
-24
-26
-27
-28
-29
-28
-27
-25
-22
-19
-16
-14
-11
-8
-3
4
16
33
55
80
105
126
140
141
129
101
59
7
-50
-107
-158
-201
-231
-250
-257
-255
-246
-234
-219
-204
-188
-172
-155
-137
-120
-102
-86
-72
-59
-49
-41
-34
-28
-22
-17
-12
-7
-3
0
1
2
1
0
-1
-1
-1
0
2
4
7
9
12
13
15
16
18
19
21
23
25
27
29
31
32
32
33
34
34
36
38
40
43
45
48
50
52
53
54
55
57
59
62
65
69
73
77
81
84
86
88
90
92
95
97
101
104
108
111
114
116
117
118
118
117
117
117
117
118
120
121
122
122
120
116
111
104
97
89
82
75
70
65
61
56
52
47
41
35
30
25
21
18
16
15
13
11
8
5
0
-4
-8
-11
-12
-11
-9
-5
-1
3
6
8
8
6
4
1
-2
-5
-6
-7
-7
-7
-6
-6
-6
-6
-7
-8
-9
-10
-11
-12
-13
-14
-14
-14
-13
-12
-10
-8
-5
-3
-1
0
0
-1
-3
-5
-7
-10
-11
-12
-13
-13
-13
-12
-12
-12
-13
-13
-12
-12
-11
-10
-8
-7
-6
-5
-5
-6
-7
-9
-11
-13
-15
-16
-17
-17
-16
-15
-14
-12
-10
-8
-7
-5
-4
-3
-1
0
1
1
2
1
1
0
-1
-2
-3
-3
-3
-2
-1
-1
-1
-1
-3
-6
-9
-13
-16
-18
-19
-20
-19
-17
-15
-13
-12
-12
-12
-14
-16
-18
-21
-22
-24
-24
-24
-23
-22
-22
-21
-21
-22
-22
-22
-23
-22
-22
-21
-21
-21
-22
-23
-24
-25
-25
-25
-23
-21
-18
-15
-11
-7
0
11
25
44
66
90
112
128
134
127
105
68
18
-40
-101
-159
-209
-246
-269
-279
-277
-267
-251
-233
-214
-196
-179
-163
-147
-131
-116
-100
-86
-72
-61
-51
-43
-36
-29
-23
-18
-13
-9
-7
-5
-5
-6
-7
-8
-8
-7
-6
-3
0
3
5
8
10
11
13
14
15
16
17
17
16
15
14
14
15
17
21
26
32
38
43
48
50
50
48
45
42
39
38
39
42
47
53
59
65
70
74
76
77
78
79
81
83
87
91
96
101
104
106
107
107
106
105
105
105
107
109
111
112
112
111
107
101
93
84
74
66
58
52
48
45
42
40
38
35
32
29
24
20
16
12
8
4
0
-4
-7
-10
-13
-15
-16
-17
-17
-18
-18
-18
-19
-20
-21
-23
-24
-25
-26
-26
-26
-26
-25
-25
-25
-25
-26
-27
-27
-28
-28
-28
-27
-25
-23
-21
-18
-16
-14
-13
-13
-13
-14
-15
-17
-20
-22
-25
-26
-28
-28
-27
-26
-24
-21
-19
-17
-17
-17
-19
-21
-24
-27
-30
-31
-31
-30
-27
-22
-18
-13
-9
-6
-5
-5
-8
-11
-15
-18
-21
-22
-22
-21
-20
-19
-18
-18
-18
-19
-19
-19
-18
-17
-14
-11
-9
-7
-7
-9
-12
-16
-21
-25
-28
-31
-32
-33
-33
-33
-32
-32
-32
-31
-30
-28
-27
-25
-23
-22
-21
-22
-23
-25
-27
-28
-29
-30
-30
-29
-28
-27
-26
-24
-23
-22
-21
-21
-21
-23
-25
-27
-29
-31
-32
-32
-30
-27
-23
-20
-16
-11
-5
3
15
32
54
80
108
133
152
160
154
132
93
42
-19
-83
-145
-198
-240
-267
-280
-281
-272
-257
-239
-220
-202
-185
-169
-154
-140
-125
-110
-96
-82
-70
-59
-51
-45
-41
-38
-35
-33
-30
-28
-25
-21
-18
-14
-12
-9
-7
-6
-5
-5
-5
-6
-7
-7
-7
-7
-5
-3
0
4
8
11
15
17
19
19
20
20
20
21
22
24
26
29
31
33
35
38
40
42
45
47
49
51
52
54
55
58
61
66
73
80
88
96
104
109
114
116
118
118
118
119
120
122
124
125
126
126
124
121
117
113
108
103
99
94
90
85
80
73
67
59
52
44
37
30
23
17
11
6
1
-3
-7
-10
-12
-14
-15
-15
-16
-16
-16
-16
-16
-15
-15
-15
-15
-15
-16
-18
-20
-22
-25
-27
-28
-29
-29
-29
-29
-29
-29
-28
-28
-27
-25
-24
-22
-21
-20
-20
-21
-23
-25
-28
-29
-30
-30
-29
-28
-25
-23
-21
-19
-17
-15
-14
-12
-10
-8
-6
-5
-4
-4
-4
-5
-6
-6
-6
-5
-4
-2
1
4
6
8
9
9
7
5
2
-1
-3
-5
-5
-5
-4
-2
-1
0
0
-2
-4
-7
-11
-15
-18
-20
-21
-20
-19
-16
-14
-12
-10
-10
-11
-14
-17
-21
-25
-29
-32
-33
-32
-31
-28
-26
-24
-23
-24
-27
-30
-34
-38
-41
-42
-41
-38
-34
-30
-25
-21
-18
-16
-15
-15
-16
-18
-20
-22
-23
-24
-25
-24
-22
-19
-16
-12
-9
-6
-3
2
9
21
38
60
86
115
141
161
169
163
141
102
50
-10
-73
-133
-183
-221
-245
-254
-251
-240
-222
-203
-183
-163
-145
-128
-111
-94
-77
-61
-46
-34
-25
-18
-13
-11
-9
-7
-4
-2
1
4
6
8
8
7
7
6
7
8
10
12
14
16
16
16
15
13
13
13
14
16
19
23
26
29
31
33
35
36
38
39
42
43
45
46
47
47
47
47
48
49
52
56
61
66
71
76
81
85
88
91
94
97
100
103
105
108
111
113
116
119
123
126
130
133
135
137
139
139
138
137
135
132
129
126
122
118
113
108
103
98
92
87
81
76
70
64
58
51
44
37
30
24
18
13
9
6
3
0
-3
-5
-7
-9
-10
-10
-10
-9
-8
-7
-6
-6
-6
-7
-9
-11
-13
-15
-16
-18
-19
-19
-20
-21
-21
-21
-20
-19
-17
-15
-13
-12
-11
-11
-12
-14
-15
-16
-16
-16
-14
-12
-10
-8
-7
-6
-6
-6
-6
-6
-5
-3
-1
1
4
7
9
11
13
15
15
16
16
15
14
12
10
9
7
7
8
10
14
18
23
27
32
35
37
37
37
35
33
30
28
25
22
20
17
15
13
10
7
4
1
-3
-7
-10
-14
-16
-18
-18
-16
-13
-9
-5
-2
0
0
-2
-6
-11
-17
-22
-25
-27
-27
-25
-22
-19
-16
-13
-12
-12
-13
-15
-17
-19
-20
-21
-21
-21
-19
-15
-12
-8
-4
0
2
4
7
12
21
35
55
80
107
133
153
161
154
129
87
32
-32
-98
-158
-206
-240
-257
-258
-248
-230
-210
-190
-172
-157
-145
-134
-123
-109
-94
-76
-59
-42
-26
-14
-4
3
9
13
17
19
22
23
24
23
22
21
20
19
18
18
19
20
21
21
21
21
20
19
18
17
16
16
16
16
16
16
17
18
20
22
24
26
28
30
31
33
34
35
36
38
40
43
46
49
53
56
59
62
64
66
67
69
71
74
77
80
84
87
91
94
97
99
101
103
104
106
107
109
110
110
110
109
107
104
101
97
92
87
82
76
71
65
59
54
48
42
36
30
25
20
16
12
9
7
4
1
-2
-5
-8
-12
-15
-17
-19
-19
-19
-19
-18
-18
-19
-20
-22
-25
-27
-28
-28
-27
-25
-23
-21
-18
-17
-17
-17
-18
-19
-21
-22
-23
-24
-26
-27
-28
-29
-30
-30
-29
-28
-27
-25
-23
-22
-21
-20
-20
-20
-20
-20
-20
-20
-20
-19
-19
-18
-18
-17
-16
-15
-13
-11
-9
-8
-7
-8
-9
-10
-12
-14
-16
-16
-16
-16
-14
-13
-12
-11
-10
-10
-10
-11
-12
-13
-13
-14
-14
-14
-13
-12
-12
-11
-11
-11
-13
-15
-18
-21
-25
-28
-30
-31
-31
-30
-29
-26
-25
-24
-24
-25
-27
-29
-32
-33
-34
-33
-31
-29
-28
-27
-27
-29
-32
-36
-39
-42
-44
-45
-44
-43
-41
-39
-37
-36
-35
-34
-32
-31
-30
-28
-27
-27
-25
-23
-18
-8
7
27
51
76
99
116
122
113
89
51
0
-56
-114
-167
-211
-243
-262
-269
-268
-260
-249
-237
-226
-214
-202
-189
-173
-156
-137
-118
-100
-84
-72
-63
-57
-54
-52
-50
-49
-46
-44
-42
-39
-37
-36
-34
-32
-30
-26
-23
-19
-16
-13
-12
-12
-13
-15
-18
-20
-21
-22
-22
-21
-19
-17
-15
-14
-12
-11
-9
-8
-7
-6
-5
-4
-4
-4
-3
-3
-2
0
3
6
10
15
19
23
27
31
33
36
39
41
44
47
51
54
58
62
65
69
72
75
77
79
80
80
80
78
77
75
73
71
69
67
64
60
56
50
44
37
31
24
18
14
10
7
4
1
-1
-5
-8
-11
-15
-18
-20
-22
-23
-24
-25
-26
-27
-28
-29
-30
-32
-33
-35
-37
-39
-41
-43
-44
-45
-44
-43
-42
-41
-39
-39
-39
-40
-42
-43
-45
-45
-45
-44
-43
-41
-40
-38
-38
-38
-38
-39
-40
-40
-41
-41
-41
-41
-41
-42
-42
-41
-41
-39
-38
-37
-35
-35
-34
-34
-34
-34
-34
-34
-33
-32
-31
-31
-30
-30
-30
-31
-31
-31
-29
-28
-25
-22
-19
-17
-15
-13
-13
-12
-12
-12
-13
-13
-13
-13
-14
-13
-13
-13
-12
-11
-10
-9
-9
-10
-11
-13
-14
-16
-18
-19
-19
-18
-17
-16
-14
-13
-12
-11
-10
-9
-7
-5
-2
1
3
6
7
7
7
6
5
4
4
5
7
10
13
16
19
20
21
21
21
21
23
26
30
34
38
41
43
44
45
47
53
63
80
102
127
152
173
184
182
165
133
88
34
-23
-79
-128
-166
-192
-206
-209
-203
-192
-178
-162
-147
-131
-115
-100
-84
-69
-55
-42
-30
-21
-13
-7
-2
3
9
14
20
26
32
38
42
45
46
47
47
46
45
44
44
43
44
45
46
48
50
52
54
55
57
58
58
58
57
57
56
55
54
54
55
56
58
61
65
69
74
79
84
88
93
97
101
103
104
104
103
101
98
96
96
96
99
104
110
117
124
130
133
135
134
132
129
126
123
121
120
120
120
120
120
118
115
111
106
100
92
84
76
68
61
54
49
45
42
40
38
37
35
32
28
24
19
14
10
6
3
1
1
0
1
1
2
2
2
1
0
-1
-2
-4
-5
-6
-6
-7
-8
-9
-10
-12
-14
-15
-17
-18
-18
-18
-17
-16
-15
-14
-14
-14
-15
-17
-18
-19
-20
-19
-17
-15
-13
-11
-9
-9
-10
-11
-13
-15
-17
-18
-18
-18
-17
-15
-14
-12
-10
-8
-6
-4
-1
1
4
6
7
7
5
3
0
-4
-7
-10
-12
-13
-13
-13
-13
-13
-14
-16
-18
-21
-23
-24
-25
-23
-21
-17
-13
-10
-7
-6
-6
-7
-9
-10
-12
-12
-13
-12
-13
-13
-14
-16
-18
-20
-21
-22
-22
-22
-21
-20
-19
-19
-19
-19
-19
-19
-18
-18
-17
-16
-15
-15
-16
-16
-16
-16
-16
-17
-17
-18
-20
-22
-24
-26
-28
-29
-29
-28
-27
-26
-26
-26
-27
-27
-27
-26
-24
-20
-16
-12
-8
-4
2
10
21
37
57
81
106
127
141
144
131
103
60
6
-54
-113
-167
-211
-242
-259
-264
-259
-248
-234
-218
-202
-187
-171
-156
-140
-124
-108
-93
-80
-69
-60
-52
-45
-39
-33
-27
-21
-15
-11
-9
-8
-9
-11
-12
-13
-13
-11
-9
-6
-3
-1
0
1
1
1
2
3
5
8
11
14
16
17
17
17
17
18
18
20
22
25
28
31
34
36
38
39
40
41
42
44
47
51
55
60
65
71
76
81
85
89
93
96
99
101
104
106
108
110
113
115
118
121
124
128
131
135
137
138
137
135
131
126
120
114
109
103
99
94
89
84
77
70
61
52
43
34
26
20
15
11
9
7
5
3
1
-1
-4
-7
-10
-12
-15
-17
-19
-20
-21
-21
-21
-21
-20
-19
-18
-17
-16
-16
-16
-16
-16
-16
-17
-17
-18
-18
-18
-18
-17
-16
-15
-15
-14
-14
-14
-14
-15
-16
-17
-17
-17
-17
-17
-17
-16
-16
-16
-15
-15
-15
-15
-14
-13
-12
-11
-11
-11
-11
-11
-12
-12
-12
-12
-11
-10
-9
-8
-7
-7
-7
-7
-7
-8
-8
-8
-7
-7
-6
-5
-4
-4
-3
-2
-2
-1
0
0
-1
-2
-3
-4
-6
-7
-8
-8
-6
-4
-1
2
4
6
7
7
6
4
1
-1
-3
-4
-4
-4
-4
-4
-5
-7
-10
-13
-16
-19
-21
-22
-22
-20
-18
-16
-14
-12
-12
-12
-13
-14
-16
-16
-16
-16
-14
-13
-11
-9
-8
-8
-8
-8
-9
-10
-10
-9
-9
-9
-9
-10
-12
-14
-16
-18
-19
-19
-18
-16
-13
-10
-7
-2
4
15
29
49
73
100
125
145
154
150
130
94
44
-15
-77
-136
-186
-223
-246
-254
-251
-240
-225
-208
-192
-178
-165
-153
-139
-124
-107
-90
-72
-56
-42
-31
-23
-17
-14
-11
-8
-6
-3
-1
0
1
1
0
-1
-2
-2
-1
0
2
4
5
