18
5
-2
-8
-9
-5
1
8
15
18
19
16
11
5
0
-3
-3
-1
3
7
10
12
12
11
8
5
2
1
1
3
5
8
10
11
12
11
10
9
8
7
6
5
4
3
3
2
1
1
1
1
1
2
4
5
7
8
9
9
9
7
5
3
1
0
0
1
3
5
8
8
8
5
2
-3
-8
-12
-14
-15
-14
-12
-10
-7
-6
-6
-7
-9
-11
-13
-14
-15
-14
-13
-12
-11
-11
-12
-14
-17
-19
-20
-20
-19
-15
-10
-4
3
9
13
16
17
16
13
9
5
1
-3
-7
-10
-12
-15
-16
-18
-19
-20
-20
-20
-20
-20
-20
-21
-21
-22
-22
-22
-21
-20
-19
-18
-18
-19
-20
-23
-26
-31
-35
-40
-45
-48
-51
-52
-52
-50
-46
-40
-31
-19
-4
14
35
57
81
104
125
143
156
163
163
155
142
123
101
79
57
38
22
10
2
-4
-8
-12
-15
-18
-22
-25
-27
-29
-31
-31
-32
-33
-34
-35
-37
-39
-41
-42
-43
-42
-41
-40
-39
-37
-36
-35
-35
-36
-36
-37
-38
-39
-39
-39
-38
-37
-36
-35
-35
-35
-36
-37
-38
-39
-39
-39
-38
-38
-37
-37
-38
-40
-42
-45
-48
-50
-51
-51
-51
-49
-47
-45
-43
-41
-38
-34
-30
-25
-20
-16
-12
-9
-7
-7
-8
-9
-10
-11
-10
-8
-5
-1
4
8
12
15
17
18
19
21
22
24
26
28
30
31
31
30
29
27
25
24
24
25
28
31
35
38
41
42
42
41
38
34
30
26
22
19
16
14
12
11
9
8
7
6
5
4
3
2
0
-1
-3
-5
-7
-8
-9
-9
-8
-7
-6
-5
-5
-5
-6
-7
-8
-9
-10
-10
-10
-9
-8
-6
-5
-4
-4
-5
-6
-7
-9
-10
-10
-10
-8
-6
-4
-1
0
1
1
0
-2
-4
-6
-6
-6
-5
-3
-1
0
0
-1
-3
-5
-8
-9
-10
-11
-10
-9
-8
-7
-6
-6
-5
-5
-4
-3
-2
-1
-1
0
0
0
0
0
0
0
0
-1
-2
-4
-7
-9
-10
-11
-11
-10
-8
-7
-6
-5
-6
-8
-9
-11
-12
-11
-10
-7
-5
-3
-2
-3
-5
-8
-11
-13
-14
-13
-10
-6
-1
2
5
5
4
1
-2
-6
-8
-9
-9
-9
-8
-8
-8
-9
-11
-12
-13
-13
-11
-8
-5
-3
-2
-3
-6
-9
-13
-16
-17
-15
-11
-5
3
10
16
20
21
21
20
18
17
15
14
14
13
11
8
4
0
-4
-6
-8
-8
-7
-5
-4
-3
-4
-5
-8
-11
-13
-14
-14
-12
-10
-8
-6
-5
-6
-8
-11
-14
-18
-21
-24
-26
-28
-29
-30
-30
-28
-25
-20
-12
-2
11
27
45
64
84
104
123
141
157
169
176
177
171
159
141
119
95
72
50
32
19
11
6
3
2
0
-3
-7
-12
-16
-18
-19
-18
-16
-12
-10
-8
-8
-11
-15
-20
-25
-29
-31
-31
-30
-28
-25
-22
-19
-17
-16
-16
-16
-17
-17
-17
-17
-17
-16
-15
-15
-14
-14
-14
-14
-15
-16
-17
-17
-17
-17
-16
-14
-13
-12
-11
-11
-11
-11
-12
-12
-12
-11
-9
-7
-6
-4
-3
-2
-2
-2
-2
-2
-2
-1
1
3
6
8
11
14
16
17
18
18
18
18
18
19
21
23
26
29
32
33
34
34
33
33
32
32
33
34
36
38
40
40
40
39
38
37
36
36
36
36
35
33
30
27
23
19
16
14
14
15
17
18
18
16
12
7
1
-5
-10
-14
-16
-15
-13
-11
-8
-5
-4
-4
-5
-6
-8
-10
-12
-13
-15
-16
-17
-17
-18
-17
-16
-15
-14
-13
-13
-13
-14
-15
-16
-16
-15
-14
-12
-11
-10
-10
-11
-13
-16
-18
-20
-20
-19
-17
-14
-12
-10
-9
-10
-12
-14
-16
-18
-19
-20
-20
-20
-20
-20
-19
-19
-18
-16
-14
-12
-10
-9
-10
-12
-15
-19
-22
-25
-26
-25
-22
-18
-13
-8
-5
-3
-4
-7
-11
-16
-21
-25
-28
-28
-27
-24
-20
-16
-12
-10
-10
-12
-15
-20
-24
-27
-29
-29
-27
-24
-19
-15
-12
-9
-9
-9
-10
-12
-14
-15
-16
-17
-17
-17
-17
-16
-16
-15
-14
-13
-12
-11
-11
-12
-12
-13
-13
-13
-12
-11
-9
-6
-3
0
2
4
5
6
6
6
5
4
3
2
0
-2
-4
-6
-9
-11
-13
-15
-15
-15
-15
-14
-14
-13
-13
-14
-16
-18
-20
-22
-23
-22
-21
-18
-15
-12
-11
-11
-13
-17
-23
-30
-36
-41
-44
-43
-39
-31
-20
-6
10
28
47
68
88
108
126
141
152
157
156
148
134
115
93
70
48
29
14
4
-2
-4
-4
-3
-2
-2
-3
-6
-9
-13
-16
-18
-19
-20
-20
-19
-20
-21
-23
-26
-29
-30
-31
-31
-29
-26
-22
-18
-15
-13
-12
-11
-10
-10
-10
-10
-10
-11
-12
-14
-17
-19
-21
-21
-21
-19
-17
-14
-11
-9
-8
-8
-9
-10
-11
-11
-10
-8
-7
-5
-4
-5
-6
-8
-10
-11
-11
-10
-7
-4
0
4
6
7
7
7
6
6
8
11
15
20
25
29
32
33
32
29
25
22
19
18
18
21
24
28
32
36
38
39
40
40
40
40
40
41
42
43
43
42
40
38
36
34
32
31
31
31
31
32
32
31
30
27
24
20
15
10
5
0
-5
-8
-10
-11
-11
-9
-8
-7
-7
-7
-9
-11
-14
-16
-18
-19
-19
-19
-17
-16
-14
-13
-11
-11
-11
-11
-12
-14
-16
-18
-20
-21
-22
-22
-21
-20
-17
-14
-11
-8
-7
-6
-6
-7
-9
-12
-14
-16
-18
-19
-19
-19
-19
-19
-19
-19
-18
-17
-16
-13
-10
-6
-2
0
2
1
-2
-6
-11
-16
-20
-23
-24
-23
-20
-16
-11
-7
-4
-2
-2
-3
-5
-8
-12
-15
-17
-18
-19
-18
-17
-16
-14
-12
-11
-9
-8
-7
-7
-8
-9
-11
-14
-17
-19
-21
-22
-22
-20
-17
-12
-8
-3
0
2
3
1
-2
-7
-12
-16
-20
-22
-23
-23
-22
-20
-17
-15
-12
-11
-9
-8
-7
-6
-6
-5
-3
-1
1
4
6
9
10
11
11
10
8
5
3
1
-1
-1
-1
-1
0
0
-1
-2
-4
-7
-10
-12
-14
-16
-16
-16
-15
-14
-14
-13
-13
-13
-14
-15
-16
-17
-18
-19
-20
-21
-23
-26
-28
-31
-33
-34
-32
-28
-20
-9
5
22
40
61
82
103
123
141
157
168
175
175
169
155
136
113
88
63
41
24
11
4
1
1
1
1
0
-4
-8
-13
-17
-19
-20
-20
-19
-18
-18
-19
-21
-24
-27
-28
-29
-28
-26
-23
-20
-18
-17
-17
-18
-19
-19
-18
-17
-16
-14
-13
-13
-14
-16
-18
-21
-22
-23
-21
-19
-15
-12
-9
-6
-5
-6
-7
-9
-11
-12
-14
-14
-15
-14
-14
-13
-12
-10
-9
-8
-6
-5
-3
-2
-1
1
2
3
4
4
5
5
5
5
4
4
4
5
8
11
16
21
26
31
35
37
37
37
35
33
31
29
29
29
31
33
36
39
41
42
42
41
39
36
34
32
30
29
29
29
30
30
28
26
22
18
13
8
4
1
0
1
2
3
4
3
2
-1
-4
-7
-9
-10
-10
-8
-6
-5
-4
-5
-7
-10
-13
-15
-17
-17
-17
-15
-13
-11
-9
-8
-8
-8
-9
-10
-11
-12
-14
-15
-16
-17
-18
-18
-18
-18
-17
-16
-15
-14
-13
-12
-11
-9
-8
-8
-7
-7
-8
-10
-12
-14
-15
-17
-17
-16
-15
-14
-12
-12
-12
-12
-14
-15
-16
-16
-16
-16
-17
-17
-18
-19
-20
-21
-21
-21
-20
-18
-16
-14
-12
-11
-10
-11
-11
-12
-14
-15
-16
-17
-17
-18
-17
-17
-16
-15
-15
-15
-15
-15
-16
-17
-18
-19
-18
-18
-17
-16
-15
-16
-17
-18
-20
-22
-23
-24
-23
-22
-20
-18
-16
-14
-13
-13
-12
-12
-11
-10
-10
-10
-10
-11
-12
-14
-14
-14
-13
-10
-6
-1
4
8
11
13
13
11
9
6
3
0
-1
-2
-3
-3
-4
-5
-7
-9
-11
-13
-15
-17
-17
-18
-18
-17
-17
-17
-17
-18
-18
-18
-19
-18
-18
-18
-17
-18
-19
-21
-24
-28
-31
-35
-37
-37
-35
-30
-23
-13
-1
14
31
50
70
91
112
133
153
168
179
183
179
168
150
127
100
74
49
28
12
2
-4
-5
-5
-4
-4
-5
-8
-12
-17
-21
-24
-25
-24
-23
-20
-17
-15
-13
-13
-13
-14
-15
-16
-17
-18
-19
-20
-20
-20
-20
-21
-21
-21
-21
-21
-21
-21
-20
-19
-18
-16
-14
-13
-11
-11
-11
-12
-14
-16
-18
-20
-21
-21
-19
-17
-15
-12
-9
-7
-6
-6
-6
-7
-8
-9
-10
-11
-10
-9
-8
-5
-2
2
5
7
9
9
9
8
7
6
7
7
9
11
13
15
17
18
18
19
20
22
24
27
31
35
38
42
45
47
48
48
47
44
41
37
33
30
27
26
26
28
30
33
36
37
37
36
32
28
22
17
12
8
3
0
-3
-5
-7
-8
-7
-6
-3
-1
1
1
0
-2
-6
-10
-13
-15
-14
-12
-8
-4
-1
0
-1
-4
-8
-13
-18
-21
-22
-21
-18
-15
-13
-11
-11
-12
-14
-16
-16
-16
-13
-10
-6
-2
0
1
0
-3
-8
-12
-16
-19
-21
-21
-20
-19
-17
-15
-14
-12
-11
-9
-6
-4
-2
-1
-2
-3
-7
-11
-16
-20
-23
-24
-23
-21
-18
-15
-12
-11
-10
-10
-11
-11
-12
-11
-11
-10
-11
-12
-13
-16
-18
-19
-19
-18
-15
-12
-9
-6
-6
-7
-9
-13
-16
-19
-20
-19
-16
-12
-8
-5
-3
-3
-5
-9
-14
-18
-23
-25
-26
-26
-24
-22
-19
-17
-15
-14
-13
-12
-11
-11
-10
-9
-8
-8
-9
-10
-12
-15
-17
-18
-19
-18
-16
-13
-9
-6
-3
-1
-1
-1
-3
-4
-6
-6
-6
-4
-1
2
6
9
11
11
11
9
7
4
2
0
-1
-1
-1
0
1
1
1
-1
-3
-6
-9
-12
-16
-19
-21
-22
-23
-22
-21
-19
-17
-16
-15
-15
-17
-20
-24
-29
-34
-38
-41
-41
-39
-35
-29
-20
-10
2
17
33
51
71
93
115
136
155
169
178
181
176
164
146
124
99
75
52
33
18
8
3
0
1
2
2
1
-1
-5
-11
-17
-23
-27
-29
-29
-27
-24
-20
-16
-13
-11
-11
-12
-13
-15
-17
-18
-18
-19
-20
-20
-21
-22
-22
-22
-20
-18
-15
-12
-9
-8
-7
-8
-11
-14
-17
-20
-22
-23
-23
-22
-21
-19
-18
-17
-15
-14
-12
-10
-7
-5
-3
-2
-2
-2
-3
-5
-6
-7
-8
-7
-5
-2
1
5
9
12
14
15
15
14
12
11
10
9
10
12
15
18
22
26
30
32
34
35
35
35
35
34
33
32
32
31
31
32
33
35
38
41
44
46
47
47
46
43
40
37
33
31
28
26
24
23
20
18
15
12
9
7
5
3
1
0
-1
-2
-3
-4
-5
-6
-7
-8
-9
-10
-11
-13
-15
-16
-17
-18
-17
-16
-13
-10
-8
-5
-3
-2
-3
-4
-6
-9
-12
-14
-16
-18
-18
-18
-17
-15
-13
-11
-9
-9
-8
-9
-10
-12
-13
-15
-16
-17
-17
-18
-18
-17
-17
-16
-14
-13
-12
-10
-10
-9
-10
-11
-12
-14
-15
-16
-17
-17
-16
-15
-14
-13
-13
-12
-13
-13
-14
-15
-16
-16
-16
-15
-14
-13
-12
-10
-9
-9
-9
-10
-12
-14
-15
-17
-18
-18
-18
-18
-17
-17
-17
-17
-17
-18
-18
-18
-18
-18
-17
-16
-16
-15
-15
-15
-15
-15
-14
-14
-14
-14
-14
-15
-17
-18
-20
-21
-20
-19
-18
-16
-14
-13
-12
-13
-14
-16
-17
-17
-17
-16
-14
-13
-12
-11
-11
-11
-11
-10
-9
-6
-3
1
4
6
8
9
9
9
8
8
7
6
4
2
-1
-4
-7
-9
-12
-13
-14
-15
-15
-16
-17
-18
-19
-20
-21
-21
-20
-19
-17
-15
-14
-13
-13
-14
-15
-17
-19
-22
-26
-29
-33
-36
-38
-38
-36
-31
-23
-11
2
18
36
55
74
94
112
129
144
154
159
158
150
136
117
94
70
48
28
14
5
1
0
2
3
3
0
-4
-11
-18
-24
-28
-29
-27
-23
-19
-15
-14
-14
-17
-21
-26
-29
-30
-29
-25
-19
-14
-9
-7
-7
-9
-13
-18
-21
-23
-23
-21
-19
-16
-14
-13
-12
-12
-13
-13
-12
-11
-10
-9
-9
-10
-12
-14
-16
-17
-17
-14
-11
-6
-2
1
3
3
2
1
-1
-2
-3
-2
0
2
4
5
6
6
7
7
8
9
11
14
17
19
22
23
24
23
23
22
22
23
24
27
31
35
39
43
45
46
45
43
41
39
38
38
40
43
46
48
49
49
46
42
38
33
30
29
29
30
32
33
32
29
24
18
11
6
1
-2
-2
-2
0
1
2
2
0
-2
-4
-7
-8
-10
-10
-11
-11
-13
-14
-16
-18
-20
-20
-20
-18
-16
-13
-10
-8
-7
-7
-7
-8
-10
-12
-14
-16
-17
-18
-19
-20
-20
-20
-19
-17
-15
-13
-11
-10
-9
-9
-10
-11
-13
-15
-16
-17
-16
-15
-14
-12
-11
-10
-11
-11
-13
-14
-14
-14
-13
-11
-9
-8
-7
-7
-8
-11
-13
-16
-19
-20
-19
-18
-15
-12
-9
-7
-7
-7
-9
-11
-14
-17
-19
-20
-20
-19
-18
-16
-15
-14
-13
-13
-12
-12
-10
-8
-6
-5
-3
-3
-4
-7
-11
-15
-18
-21
-22
-23
-21
-20
-17
-16
-15
-14
-14
-14
-13
-12
-11
-10
-9
-9
-10
-12
-16
-19
-22
-24
-23
-22
-18
-14
-10
-6
-2
0
2
4
6
8
11
14
16
16
16
13
9
4
-1
-5
-8
-10
-10
-9
-8
-6
-6
-7
-9
-11
-14
-17
-19
-20
-20
-20
-19
-17
-16
-15
-14
-13
-13
-13
-14
-15
-17
-20
-23
-27
-31
-33
-34
-33
-30
-23
-13
-1
14
31
49
68
88
106
124
139
151
158
160
156
146
130
110
88
65
44
26
12
2
-3
-4
-3
-1
1
2
2
0
-3
-7
-11
-15
-17
-19
-20
-19
-18
-17
-16
-16
-16
-16
-18
-19
-21
-22
-23
-24
-25
-25
-25
-24
-23
-21
-18
-15
-12
-10
-8
-7
-7
-9
-11
-13
-15
-17
-17
-17
-16
-14
-13
-12
-10
-10
-9
-8
-7
-6
-4
-3
-2
-3
-3
-5
-8
-10
-12
-13
-13
-11
-8
-5
-2
1
4
5
5
4
4
4
4
6
9
12
15
18
21
23
24
25
26
27
27
28
29
30
32
33
35
36
38
40
41
42
42
41
40
38
37
35
34
34
34
35
36
36
35
32
29
25
21
16
12
9
6
4
2
1
0
-1
-2
-3
-3
-4
-4
-4
-5
-6
-7
-9
-11
-13
-15
-17
-18
-19
-19
-19
-18
-17
-16
-15
-14
-13
-12
-12
-11
-11
-12
-13
-14
-15
-16
-17
-18
-19
-19
-18
-17
-15
-12
-10
-8
-6
-6
-8
-10
-14
-17
-21
-22
-23
-22
-20
-17
-14
-12
-11
-11
-12
-14
-16
-17
-18
-18
-17
-16
-15
-15
-15
-15
-15
-15
-15
-14
-13
-11
-10
-9
-9
-10
-12
-15
-18
-20
-22
-23
-23
-21
-19
-16
-13
-11
-9
-9
-10
-12
-15
-17
-20
-21
-21
-20
-18
-15
-13
-10
-9
-9
-10
-12
-14
-15
-17
-17
-18
-17
-17
-16
-16
-15
-14
-14
-13
-13
-13
-12
-13
-13
-13
-13
-13
-12
-11
-9
-7
-6
-4
-3
-1
0
2
4
6
9
11
11
11
8
5
0
-5
-8
-11
-11
-9
-6
-3
-1
0
-2
-5
-10
-15
-20
-23
-23
-22
-20
-17
-14
-13
-12
-13
-15
-17
-18
-19
-19
-18
-18
-19
-21
-24
-29
-34
-38
-40
-40
-35
-26
-14
3
21
41
63
85
106
127
147
164
177
184
185
179
165
144
118
91
64
41
24
13
8
8
11
13
14
11
5
-4
-14
-23
-30
-33
-33
-30
-25
-20
-15
-11
-10
-11
-13
-16
-19
-23
-26
-28
-29
-29
-27
-25
-22
-18
-15
-12
-10
-10
-11
-13
-16
-19
-20
-21
-20
-18
-15
-12
-9
-8
-8
-9
-10
-13
-15
-16
-16
-14
-12
-8
-4
-1
2
3
2
0
-4
-8
-11
-13
-13
-11
-7
-2
4
9
13
15
15
14
11
9
7
6
6
8
10
13
17
20
23
26
28
31
34
36
37
38
38
37
35
34
33
33
34
36
39
42
44
45
45
44
41
38
35
32
30
29
29
29
30
30
29
28
27
25
22
20
17
14
11
8
4
1
-2
-4
-6
-7
-7
-6
-6
-5
-5
-6
-7
-8
-10
-11
-12
-13
-13
-12
-11
-11
-10
-11
-11
-13
-14
-14
-15
-14
-13
-12
-10
-8
-6
-5
-4
-3
-4
-5
-6
-8
-10
-12
-14
-16
-18
-18
-18
-16
-14
-10
-7
-4
-2
-1
-2
-4
-7
-10
-12
-13
-13
-12
-9
-6
-4
-3
-4
-6
-10
-14
-18
-20
-21
-20
-17
-14
-11
-8
-7
-7
-9
-11
-14
-16
-18
-19
-18
-17
-16
-15
-14
-13
-12
-12
-12
-12
-12
-12
-13
-13
-14
-14
-13
-13
-12
-10
-9
-8
-9
-10
-13
-16
-19
-21
-23
-23
-22
-20
-17
-14
-12
-10
-10
-10
-11
-13
-14
-16
-17
-18
-19
-19
-18
-16
-12
-6
0
6
12
16
18
17
14
11
6
3
1
0
1
2
3
3
0
-4
-10
-16
-22
-27
-29
-29
-26
-23
-18
-15
-13
-12
-14
-16
-19
-21
-22
-22
-20
-18
-16
-14
-14
-16
-20
-25
-31
-36
-38
-38
-33
-25
-13
1
18
36
54
73
92
111
129
145
159
169
173
171
162
146
126
102
77
53
32
16
5
-1
-4
-5
-4
-4
-5
-7
-10
-13
-17
-20
-23
-25
-26
-26
-25
-23
-21
-19
-17
-16
-17
-19
-22
-25
-28
-31
-33
-33
-32
-30
-27
-24
-21
-19
-18
-18
-18
-20
-21
-23
-24
-25
-24
-23
-21
-19
-17
-15
-13
-13
-14
-15
-17
-19
-20
-20
-18
-15
-11
-8
-5
-4
-4
-6
-8
-11
-13
-14
-14
-12
-10
-7
-4
-2
1
2
4
5
6
7
8
8
9
9
9
9
10
12
15
19
23
28
33
36
38
39
38
36
33
31
29
28
27
28
29
31
32
33
34
35
36
36
36
35
34
32
29
25
21
17
13
11
9
8
8
7
6
4
0
-4
-8
-12
-15
-16
-15
-14
-12
-9
-8
-8
-8
-10
-12
-13
-14
-15
-15
-16
-17
-18
-20
-21
-22
-21
-19
-16
-12
-8
-5
-4
-5
-8
-11
-15
-17
-18
-17
-14
-11
-8
-7
-6
-7
-10
-13
-15
-17
-18
-19
-18
-17
-17
-16
-15
-15
-14
-13
-12
-10
-9
-9
-10
-12
-15
-18
-20
-22
-23
-23
-22
-20
-18
-16
-15
-16
-16
-17
-18
-18
-17
-16
-13
-11
-9
-7
-7
-8
-11
-14
-18
-21
-23
-25
-24
-23
-21
-18
-15
-13
-11
-10
-10
-10
-10
-11
-12
-13
-15
-17
-19
-20
-20
-20
-18
-17
-15
-14
-14
-16
-18
-21
-23
-24
-23
-22
-19
-15
-12
-10
-9
-9
-10
-11
-12
-11
-9
-6
-3
0
2
3
3
2
1
1
1
3
6
8
10
11
9
6
2
-3
-8
-12
-15
-17
-17
-17
-16
-16
-16
-17
-17
-18
-19
-19
-18
-18
-17
-16
-15
-15
-15
-16
-18
-21
-23
-26
-29
-31
-33
-35
-35
-34
-32
-29
-22
-14
-2
14
32
53
76
100
123
143
160
171
176
174
166
151
132
111
88
66
46
30
17
9
4
1
-1
-3
-5
-8
-12
-17
-21
-25
-27
-28
-28
-26
-24
-22
-21
-21
-21
-21
-22
-23
-23
-23
-23
-22
-21
-21
-20
-20
-20
-20
-20
-20
-20
-20
-19
-20
-20
-21
-22
-23
-24
-23
-22
-20
-18
-15
-13
-12
-11
-12
-13
-14
-15
-15
-15
-13
-11
-9
-8
-6
-6
-7
-8
-8
-8
-7
-5
-2
2
5
8
10
10
9
8
6
5
5
6
8
11
14
17
19
21
21
22
22
23
25
27
29
30
31
31
31
31
31
31
32
34
36
38
39
39
38
36
34
31
30
30
32
34
37
39
41
40
37
32
26
19
13
7
3
0
-1
-1
0
0
-1
-2
-3
-5
-7
-9
-11
-12
-12
-12
-13
-13
-13
-14
-14
-14
-14
-13
-11
-10
-8
-7
-6
-6
-6
-7
-8
-9
-10
-12
-13
-15
-16
-18
-19
-20
-19
-18
-17
-14
-12
-11
-10
-10
-11
-13
-14
-16
-17
-16
-15
-13
-11
-9
-8
-8
-8
-9
-11
-14
-16
-17
-18
-18
-18
-17
-15
-13
-11
-10
-9
-8
-8
-9
-11
-12
-13
-14
-14
-14
-14
-13
-12
-12
-13
-14
-15
-16
-17
-17
-17
-17
-16
-14
-12
-11
-10
-9
-10
-10
-12
-14
-16
-17
-18
-18
-17
-15
-13
-11
-10
-9
-10
-11
-13
-15
-16
-16
-15
-13
-11
-8
-6
-4
-4
-3
-3
-3
-3
-3
-2
0
1
2
3
5
6
7
8
8
8
6
4
1
-3
-6
-9
-10
-9
-8
-5
-2
-1
-1
-2
-5
-10
-14
-18
-21
-22
-22
-21
-19
-17
-15
-13
-12
-12
-11
-12
-13
-15
-19
-24
-29
-35
-39
-40
-38
-32
-22
-8
9
27
47
67
86
104
120
135
147
156
160
158
151
138
120
99
76
54
34
18
6
-1
-5
-6
-5
-4
-3
-4
-5
-7
-10
-14
-17
-19
-21
-22
-22
-20
-18
-16
-13
-11
-9
-9
-9
-11
-13
-16
-18
-20
-21
-21
-20
-17
-15
-12
-10
-9
-8
-9
-10
-12
-13
-14
-14
-14
-12
-11
-10
-10
-11
-13
-14
-15
-15
-13
-9
-4
2
7
10
11
10
6
2
-3
-7
-8
-8
-5
-1
3
7
9
11
11
11
10
10
11
12
14
16
19
21
22
24
26
28
30
33
35
37
38
38
37
36
35
34
34
35
37
40
44
47
50
52
53
52
51
48
44
41
37
34
31
30
30
30
31
32
32
32
29
26
21
16
11
7
4
3
2
2
2
2
1
-1
-4
-6
-8
-9
-9
-9
-8
-7
-6
-7
-8
-10
-12
-13
-13
-12
-10
-8
-7
-6
-7
-10
-14
-18
-21
-22
-22
-20
-16
-12
-7
-4
-2
-2
-3
-5
-6
-8
-9
-10
-11
-12
-12
-13
-13
-13
-12
-10
-7
-3
0
3
4
4
3
0
-3
-7
-10
-13
-14
-14
-12
-10
-7
-5
-3
-2
-2
-4
-8
-12
-15
-18
-19
-19
-16
-11
-7
-3
0
0
-1
-4
-8
-12
-14
-14
-13
-11
-8
-6
-4
-4
-5
-6
-6
-6
-5
-2
0
2
3
1
-2
-7
-13
-18
-21
-21
-20
-16
-11
-7
-3
-1
-1
-2
-3
-5
-7
-7
-6
-5
-2
0
3
5
7
9
10
12
14
15
16
16
15
13
10
6
2
-2
-6
-9
-11
-13
-13
-13
-11
-9
-6
-3
-1
0
0
-2
-6
-11
-16
-20
-23
-24
-22
-19
-15
-12
-10
-11
-14
-19
-24
-27
-28
-25
-17
-5
11
29
48
67
86
105
123
140
155
167
175
176
170
157
136
111
83
57
35
19
10
6
7
10
12
12
10
5
-2
-9
-14
-18
-18
-17
-14
-11
-8
-6
-6
-7
-8
-10
-11
-12
-12
-12
-12
-13
-14
-15
-17
-17
-18
-17
-16
-15
-13
-12
-11
-11
-10
-10
-10
-9
-8
-7
-6
-5
-5
-6
-8
-10
-13
-15
-15
-14
-11
-7
-2
2
6
8
8
7
4
2
-1
-2
-1
0
2
4
5
5
5
3
2
1
1
2
4
6
7
8
7
5
3
1
-1
-1
0
3
5
8
9
10
9
7
5
3
2
2
2
3
4
5
4
2
-1
-5
-9
-12
-14
-15
-15
-15
-14
-14
-14
-16
-19
-23
-28
-33
-37
-41
-43
-43
-42
-40
-37
-35
-33
-32
-33
-36
-39
-42
-44
-46
-45
-44
-42
-39
-37
-37
-37
-38
-40
-41
-42
-41
-39
-37
-34
-32
-31
-31
-32
-33
-34
-35
-34
-32
-30
-28
-27
-27
-28
-31
-34
-37
-38
-39
-37
-35
-31
-28
-25
-23
-23
-24
-26
-28
-31
-32
-32
-32
-31
-29
-27
-26
-24
-22
-21
-21
-21
-21
-23
-25
-27
-28
-29
-29
-27
-25
-21
-18
-15
-14
-14
-17
-21
-25
-29
-32
-32
-31
-27
-23
-18
-14
-11
-10
-11
-13
-15
-17
-19
-20
-20
-20
-20
-20
-21
-22
-23
-23
-23
-22
-21
-19
-16
-14
-13
-13
-13
-14
-16
-17
-19
-19
-20
-19
-17
-15
-13
-10
-7
-4
-1
1
3
4
4
5
5
6
7
8
8
8
8
5
2
-2
-7
-11
-13
-14
-13
-11
-8
-6
-4
-5
-7
-10
-14
-18
-20
-20
-18
-15
-12
-9
-8
-8
-10
-13
-17
-21
-24
-27
-29
-31
-32
-33
-33
-31
-28
-21
-11
2
19
39
60
82
104
125
145
161
174
181
183
178
166
147
124
98
73
49
31
19
13
12
14
16
17
15
10
2
-8
-16
-22
-25
-24
-21
-16
-12
-9
-9
-11
-14
-18
-21
-22
-20
-17
-13
-9
-7
-7
-9
-13
-18
-22
-25
-25
-23
-18
-13
-9
-5
-4
-4
-7
-10
-14
-17
-19
-19
-17
-14
-11
-8
-5
-4
-3
-4
-4
-5
-5
-4
-2
0
2
4
4
4
3
1
-1
-3
-3
-2
1
6
11
15
19
22
22
21
19
17
15
15
17
20
23
27
29
30
30
28
25
23
23
24
27
32
37
43
48
52
53
52
50
47
44
42
40
40
40
41
42
42
41
39
36
33
29
25
22
20
19
19
18
18
17
15
12
9
6
4
2
1
0
0
0
0
-1
-3
-5
-7
-9
-10
-11
-10
-9
-8
-7
-6
-5
-4
-4
-5
-5
-6
-6
-6
-6
-7
-7
-7
-7
-7
-7
-7
-6
-6
-6
-5
-6
-6
-7
-7
-8
-8
-8
-8
-7
-7
-7
-7
-8
-9
-9
-9
-9
-8
-7
-6
-5
-5
-6
-8
-10
-12
-13
-14
-13
-12
-9
-7
-5
-3
-3
-3
-4
-6
-7
-8
-8
-8
-7
-7
-7
-7
-8
-9
-10
-11
-11
-12
-12
-11
-11
-10
-9
-8
-8
-7
-6
-5
-5
-4
-5
-5
-6
-7
-8
-9
-10
-11
-11
-11
-11
-10
-10
-10
-9
-9
-8
-8
-8
-9
-9
-10
-10
-9
-7
-4
-2
1
2
2
1
-1
-4
-6
-6
-5
-2
3
9
15
19
22
23
21
18
13
8
4
1
-2
-4
-7
-9
-11
-13
-14
-14
-14
-12
-10
-8
-6
-6
-6
-8
-10
-12
-14
-14
-14
-13
-12
-11
-11
-13
-16
-21
-26
-31
-35
-37
-37
-33
-25
-15
-1
15
33
53
73
94
115
134
153
168
179
184
183
174
159
139
114
89
64
42
26
14
8
6
6
7
6
4
0
-5
-11
-17
-22
-24
-25
-24
-22
-20
-19
-18
-18
-18
-18
-18
-17
-16
-14
-13
-12
-11
-12
-13
-14
-15
-15
-14
-13
-11
-9
-8
-9
-10
-12
-15
-17
-19
-19
-18
-16
-13
-10
-9
-8
-8
-9
-10
-12
-13
-13
-12
-10
-8
-7
-5
-3
-2
0
2
3
5
6
7
6
6
4
2
0
-3
-4
-6
-7
-9
-10
-11
-12
-12
-11
-10
-7
-4
-2
1
2
1
0
-3
-6
-8
-8
-7
-4
0
5
10
14
18
20
20
20
19
18
17
15
14
12
11
10
8
8
7
7
7
6
5
4
2
1
-1
-2
-2
-2
-2
-1
-2
-3
-6
-10
-14
-17
-20
-21
-20
-18
-16
-13
-12
-12
-14
-17
-21
-24
-26
-26
-24
-21
-16
-12
-9
-7
-8
-10
-13
-16
-19
-21
-22
-22
-20
-19
-17
-16
-16
-17
-17
-18
-17
-16
-14
-11
-9
-7
-6
-7
-9
-12
-16
-19
-21
-22
-21
-18
-15
-12
-10
-8
-8
-8
-10
-12
-13
-15
-15
-16
-16
-16
-16
-16
-17
-18
-19
-20
-20
-20
-19
-17
-15
-12
-10
-9
-9
-9
-10
-11
-12
-13
-14
-14
-14
-13
-12
-11
-11
-11
-12
-13
-15
-16
-17
-18
-18
-18
-17
-17
-16
-15
-14
-13
-13
-13
-12
-13
-13
-14
-15
-16
-17
-18
-18
-18
-17
-15
-14
-12
-10
-8
-7
-6
-5
-4
-3
-3
-2
-1
-1
0
2
4
6
8
10
12
13
14
13
12
9
6
3
0
-4
-6
-8
-10
-11
-11
-11
-10
-9
-8
-8
-8
-9
-10
-13
-16
-19
-21
-23
-23
-21
-19
-16
-13
-12
-13
-16
-21
-27
-33
-38
-40
-38
-32
-21
-7
11
31
52
75
97
119
139
157
172
181
184
179
167
148
124
98
73
50
33
21
14
11
11
11
9
6
0
-7
-14
-20
-25
-27
-26
-24
-21
-18
-16
-15
-16
-18
-20
-22
-23
-24
-23
-20
-17
-14
-12
-10
-9
-10
-11
-14
-17
-19
-22
-24
-24
-24
-23
-21
-18
-15
-12
-10
-8
-7
-7
-8
-9
-10
-12
-13
-13
-13
-13
-11
-9
-7
-6
-4
-4
-5
-7
-9
-11
-12
-12
-11
-8
-4
1
6
10
13
14
13
12
9
7
5
4
5
7
10
14
19
23
27
30
32
32
32
32
31
30
30
30
31
34
36
38
39
39
38
37
34
33
32
32
35
38
41
44
45
44
41
37
31
25
20
16
14
12
11
10
8
6
3
0
-3
-4
-5
-5
-4
-3
-2
-2
-2
-4
-6
-8
-11
-14
-16
-17
-17
-17
-16
-15
-13
-11
-10
-10
-10
-11
-12
-14
-15
-16
-17
-17
-17
-17
-17
-17
-17
-17
-16
-15
-13
-11
-10
-10
-11
-13
-16
-19
-21
-21
-19
-15
-11
-6
-2
-1
-3
-7
-13
-20
-25
-29
-30
-28
-24
-20
-15
-12
-10
-10
-11
-12
-14
-15
-15
-15
-15
-15
-15
-16
-17
-17
-18
-18
-17
-16
-15
-14
-13
-13
-13
-13
-14
-14
-15
-15
-16
-16
-17
-18
-19
-19
-20
-19
-18
-16
-14
-12
-10
-9
-8
-9
-10
-12
-14
-17
-19
-20
-21
-21
-20
-20
-19
-19
-19
-20
-20
-21
-20
-19
-17
-15
-12
-10
-8
-8
-8
-9
-10
-10
-9
-7
-3
2
7
11
15
16
16
14
11
8
5
3
0
-2
-5
-8
-12
-15
-19
-22
-24
-25
-25
-24
-22
-21
-19
-18
-18
-18
-17
-17
-16
-14
-13
-12
-11
-12
-15
-19
-25
-31
-37
-41
-44
-43
-39
-32
-21
-7
9
26
44
63
82
101
119
135
150
160
166
167
161
148
130
107
82
56
33
15
2
-6
-8
-6
-2
2
5
6
4
0
-5
-12
-17
-22
-24
-26
-25
-24
-22
-19
-17
-15
-13
-12
-12
-13
-14
-16
-18
-21
-22
-24
-23
-22
-20
-17
-14
-12
-11
-10
-10
-11
-12
-12
-12
-11
-10
-9
-8
-7
-7
-8
-9
-9
-8
-7
-5
-2
1
3
4
5
5
4
3
2
1
1
2
2
3
3
3
3
3
4
5
7
10
13
17
20
22
23
23
23
22
22
21
22
23
25
28
32
36
40
44
47
48
48
47
45
43
40
38
38
38
39
40
42
43
43
43
41
38
35
33
31
29
29
29
29
28
26
24
21
17
13
9
6
4
3
4
4
4
4
3
1
-2
-6
-10
-13
-15
-16
-15
-14
-12
-10
-9
-9
-11
-13
-15
-17
-18
-18
-16
-14
-12
-10
-9
-9
-11
-13
-14
-15
-15
-14
-12
-10
-9
-9
-10
-13
-16
-19
-21
-21
-20
-17
-13
-10
-8
-7
-9
-11
-14
-18
-20
-20
-19
-16
-13
-9
-6
-5
-6
-8
-12
-16
-19
-22
-23
-22
-19
-16
-13
-10
-9
-9
-11
-13
-16
-18
-19
-18
-16
-13
-10
-7
-5
-5
-6
-9
-12
-16
-19
-21
-21
-21
-20
-18
-17
-15
-15
-15
-15
-16
-16
-17
-17
-16
-15
-14
-13
-12
-11
-12
-13
-15
-18
-21
-24
-26
-26
-24
-21
-17
-12
-9
-6
-5
-5
-5
-5
-5
-4
-1
2
6
9
10
11
9
7
4
1
-2
-5
-7
-9
-12
-15
-18
-21
-24
-25
-24
-22
-19
-16
-13
-12
-13
-15
-18
-21
-23
-24
-24
-22
-19
-17
-16
-17
-21
-27
-34
-41
-47
-50
-50
-46
-38
-27
-13
2
17
33
49
65
82
98
114
130
143
153
158
156
148
133
112
87
62
37
17
2
-6
-9
-7
-2
2
5
5
1
-5
-13
-20
-26
-29
-29
-27
-23
-20
-17
-16
-18
-21
-24
-27
-29
-29
-28
-26
-25
-24
-24
-25
-26
-27
-27
-26
-23
-19
-15
-12
-11
-12
-14
-17
-20
-22
-21
-20
-16
-13
-10
-8
-7
-9
-11
-13
-14
-14
-12
-10
-7
-5
-5
-6
-8
-11
-14
-15
-14
-12
-7
-3
2
5
6
6
4
2
0
0
0
3
6
11
15
18
21
22
23
22
21
21
21
21
22
24
27
31
34
37
38
38
37
34
30
27
24
22
23
25
29
34
37
40
40
38
35
30
25
22
19
19
19
19
20
19
16
12
7
2
-3
-7
-9
-10
-10
-10
-9
-9
-9
-10
-12
-13
-15
-18
-20
-22
-23
-24
-24
-22
-20
-17
-13
-10
-8
-8
-10
-12
-15
-18
-20
-21
-20
-17
-15
-12
-11
-12
-14
-17
-20
-22
-23
-21
-18
-14
-11
-8
-7
-8
-11
-14
-18
-21
-22
-23
-21
-19
-17
-15
-13
-13
-12
-12
-12
-11
-10
-10
-10
-10
-12
-15
-19
-22
-25
-25
-24
-20
-15
-10
-5
-2
-1
-2
-5
-9
-14
-17
-18
-18
-16
-12
-9
-6
-5
-6
-8
-11
-16
-19
-22
-23
-23
-20
-17
-12
-8
-5
-3
-3
-5
-8
-11
-14
-17
-18
-19
-17
-16
-14
-12
-11
-11
-12
-13
-13
-13
-10
-7
-2
3
8
13
15
16
16
14
11
8
6
5
4
4
4
4
2
0
-4
-9
-14
-19
-23
-26
-26
-24
-21
-16
-11
-7
-5
-5
-7
-10
-14
-17
-20
-20
-20
-19
-19
-20
-23
-28
-34
-39
-42
-41
-34
-23
-8
9
28
46
63
79
94
109
125
140
155
167
174
174
166
149
126
99
72
47
28
15
9
8
10
12
12
9
4
-2
-9
-16
-20
-22
-21
-19
-17
-15
-14
-14
-14
-14
-14
-14
-14
-14
-15
-16
-19
-22
-26
-29
-30
-31
-29
-26
-22
-17
-13
-10
-8
-7
-8
-11
-14
-17
-19
-21
-21
-20
-17
-14
-11
-8
-6
-5
-4
-4
-5
-5
-5
-5
-5
-5
-4
-5
-6
-6
-7
-8
-7
-6
-4
-2
1
3
4
5
4
3
2
2
2
4
6
10
14
18
21
25
27
28
29
29
29
29
30
30
31
32
33
34
34
35
36
36
37
38
39
40
40
40
38
36
34
31
30
29
29
29
30
30
30
29
26
22
17
11
6
2
-1
-3
-4
-3
-3
-2
-2
-2
-3
-5
-7
-9
-11
-13
-14
-15
-15
-16
-16
-16
-16
-15
-15
-14
-14
-15
-15
-16
-18
-19
-21
-21
-21
-19
-16
-13
-9
-5
-2
0
-1
-3
-7
-11
-16
-19
-21
-21
-19
-17
-13
-10
-8
-7
-7
-9
-11
-14
-15
-17
-17
-16
-15
-14
-14
-15
-17
-20
-22
-24
-25
-24
-21
-17
-13
-9
-5
-4
-4
-6
-9
-13
-16
-17
-18
-16
-14
-11
-8
-6
-5
-6
-8
-11
-14
-17
-20
-22
-22
-22
-21
-19
-17
-14
-12
-11
-10
-10
-11
-12
-14
-15
-16
-16
-15
-14
-12
-11
-10
-10
-10
-11
-12
-13
-12
-10
-7
-4
0
4
7
10
11
12
12
12
11
10
8
6
3
-1
-4
-7
-10
-12
-12
-12
-11
-10
-10
-10
-11
-12
-14
-15
-16
-16
-15
-15
-14
-14
-14
-15
-16
-16
-16
-16
-16
-15
-16
-18
-21
-26
-31
-36
-40
-41
-39
-33
-23
-10
6
23
42
61
81
102
123
143
161
174
182
183
175
160
139
114
88
63
42
26
15
8
4
2
0
-3
-7
-11
-15
-17
-18
-17
-15
-14
-13
-14
-17
-21
-25
-28
-29
-28
-25
-20
-16
-12
-11
-13
-16
-21
-25
-29
-30
-28
-25
-20
-16
-13
-13
-13
-16
-18
-20
-20
-18
-15
-11
-8
-6
-6
-8
-12
-17
-21
-24
-24
-23
-19
-14
-8
-3
1
5
6
6
5
2
-1
-4
-8
-11
-13
-13
-13
-10
-7
-3
1
6
9
11
13
14
14
15
16
18
19
21
23
25
27
28
29
30
31
32
34
34
35
36
36
36
36
36
37
38
38
39
39
39
37
36
34
32
31
30
29
29
29
28
27
25
22
19
15
11
7
3
0
-3
-5
-7
-8
-9
-10
-10
-10
-10
-10
-9
-9
-9
-9
-10
-10
-11
-12
-13
-13
-14
-14
-15
-15
-14
-14
-13
-12
-11
-11
-10
-10
-10
-11
-12
-14
-15
-16
-18
-18
-19
-18
-17
-16
-14
-11
-9
-8
-8
-8
-10
-13
-16
-18
-20
-21
-21
-21
-19
-17
-16
-15
-15
-15
-16
-17
-18
-18
-19
-18
-18
-17
-15
-14
-12
-11
-10
-10
-10
-12
-14
-16
-18
-20
-21
-20
-19
-18
-16
-15
-14
-14
-15
-15
-16
-16
-16
-15
-15
-14
-15
-16
-18
-21
-23
-24
-24
-22
-20
-17
-14
-11
-8
-7
-7
-7
-9
-10
-12
-13
-15
-17
-19
-21
-22
-23
-23
-21
-19
-16
-11
-7
-1
4
9
13
15
17
17
16
14
10
6
1
-4
-8
-12
-14
-16
-17
-18
-18
-18
-17
-16
-14
-13
-12
-12
-13
-15
-18
-22
-25
-29
-30
-31
-30
-28
-26
-23
-22
-23
-25
-28
-31
-35
-36
-36
-33
-27
-19
-8
4
17
32
49
66
85
105
126
145
162
173
178
175
164
146
122
96
70
46
27
13
4
0
-2
-3
-5
-7
-11
-15
-19
-22
-24
-23
-21
-18
-16
-14
-15
-17
-21
-25
-28
-31
-32
-31
-29
-26
-23
-21
-20
-19
-20
-21
-21
-22
-21
-20
-19
-18
-17
-16
-16
-17
-18
-19
-19
-18
-17
-16
-14
-13
-11
-10
-10
-10
-11
-11
-11
-11
-11
-10
-9
-8
-7
-7
-6
-7
-7
-6
-5
-3
-1
1
3
5
5
5
3
2
1
0
1
4
7
11
15
19
21
21
21
20
19
19
20
22
25
29
33
35
37
37
36
34
32
30
30
30
32
35
38
41
42
43
42
40
37
35
32
29
27
25
23
21
19
16
13
10
7
4
2
0
-2
-3
-4
-6
-7
-8
-9
-10
-11
-12
-13
-14
-14
-14
-14
-13
-11
-9
-7
-5
-5
-6
-8
-12
-16
-19
-21
-22
-21
-18
-14
-11
-8
-7
-7
-9
-12
-15
-16
-17
-16
-15
-13
-11
-11
-12
-13
-15
-16
-16
-15
-13
-9
-6
-4
-4
-5
-8
-13
-17
-22
-25
-26
-25
-23
-20
-17
-13
-10
-8
-7
-7
-7
-9
-10
-12
-14
-16
-18
-19
-20
-20
-20
-19
-17
-16
-15
-15
-14
-15
-15
-16
-16
-15
-15
-14
-13
-12
-11
-11
-11
-12
-13
-14
-15
-17
-17
-18
-18
-18
-18
-17
-16
-16
-15
-15
-15
-15
-15
-16
-16
-16
-17
-17
-17
-16
-16
-15
-15
-14
-14
-14
-13
-13
-11
-10
-7
-5
-2
0
1
2
2
1
1
1
2
4
7
10
13
14
14
11
7
3
-2
-6
-9
-10
-9
-8
-7
-7
-8
-10
-13
-16
-19
-20
-21
-20
-19
-17
-16
-15
-14
-14
-14
-14
-14
-14
-15
-17
-21
-26
-32
-38
-43
-45
-44
-38
-29
-16
0
18
36
55
73
92
110
128
144
159
169
173
171
162
145
123
97
71
46
26
12
3
-1
-1
1
3
4
3
0
-4
-9
-14
-18
-21
-23
-24
-24
-24
-25
-25
-25
-26
-25
-25
-24
-23
-22
-22
-21
-21
-21
-21
-20
-19
-17
-15
-13
-12
-11
-12
-13
-15
-16
-18
-19
-19
-18
-17
-16
-15
-14
-14
-14
-14
-14
-14
-14
-14
-13
-13
-12
-11
-10
-9
-9
-8
-6
-5
-5
-4
-3
-3
-2
-1
0
1
2
3
4
5
6
7
9
11
14
18
23
27
32
35
37
38
37
35
33
30
28
27
27
28
29
30
31
32
33
33
34
36
38
40
42
43
43
42
40
36
33
29
26
23
22
22
22
22
21
20
18
15
12
8
5
2
0
-2
-3
-4
-5
-6
-7
-8
-8
-9
-9
-8
-8
-8
-9
-9
-10
-12
-13
-14
-16
-17
-18
-18
-19
-19
-19
-19
-19
-18
-17
-17
-15
-14
-13
-12
-11
-10
-10
-10
-10
-10
-10
-10
-10
-9
-9
-9
-9
-9
-11
-13
-15
-18
-20
-20
-20
-18
-16
-13
-10
-8
-7
-8
-10
-12
-15
-17
-18
-18
-17
-15
-13
-12
-10
-10
-10
-10
-10
-11
-11
-11
-11
-11
-11
-12
-13
-13
-13
-13
-12
-11
-10
-8
-8
-8
-8
-9
-10
-11
-12
-13
-14
-14
-14
-15
-15
-16
-17
-18
-20
-20
-20
-20
-18
-15
-12
-9
-6
-4
-4
-4
-6
-8
-10
-12
-12
-11
-8
-3
2
7
10
12
13
11
8
5
2
1
0
1
2
3
3
2
0
-3
-7
-10
-14
-16
-18
-19
-19
-19
-19
-19
-18
-18
-17
-15
-13
-11
-9
-8
-7
-8
-10
-13
-18
-22
-27
-32
-35
-37
-37
-35
-31
-25
-17
-6
6
21
37
55
75
95
115
133
148
159
164
164
157
143
125
104
80
56
35
17
3
-5
-9
-9
-7
-3
1
3
3
1
-4
-9
-15
-20
-23
-25
-26
-25
-24
-22
-21
-20
-20
-20
-19
-18
-16
-15
-13
-13
-14
-15
-18
-20
-21
-22
-20
-18
-15
-11
-8
-6
-6
-6
-7
-8
-9
-10
-10
-10
-11
-12
-14
-16
-17
-18
-18
-16
-13
-9
-5
-2
-1
0
-1
-3
-4
-5
-4
-2
0
3
5
6
7
7
6
6
6
7
9
12
16
19
22
24
25
26
27
27
28
28
29
30
31
31
31
31
31
32
33
35
38
41
43
44
44
42
40
37
34
31
30
30
31
33
34
35
35
34
32
28
24
20
16
12
9
6
4
3
2
1
1
1
0
0
-2
-4
-7
-10
-13
-16
-17
-17
-15
-13
-11
-9
-9
-9
-11
-14
-17
-18
-19
-17
-15
-12
-10
-9
-9
-11
-14
-17
-19
-20
-20
-18
-15
-12
-10
-10
-10
-12
-15
-16
-17
-17
-15
-12
-9
-6
-5
-5
-6
-9
-12
-14
-16
-16
-16
-15
-13
-12
-10
-9
-9
-9
-9
-10
-11
-11
-12
-12
-13
-14
-14
-14
-14
-14
-14
-13
-13
-12
-12
-12
-11
-10
-10
-10
-10
-11
-12
-14
-17
-19
-21
-22
-22
-21
-20
-18
-17
-15
-14
-13
-12
-12
-12
-12
-12
-12
-12
-12
-13
-13
-13
-13
-13
-12
-11
-10
-10
-10
-11
-12
-13
-14
-15
-14
-13
-10
-6
-2
3
6
9
10
10
8
6
2
-1
-4
-6
-8
-10
-11
-12
-14
-15
-18
-20
-23
-26
-28
-30
-31
-31
-31
-30
-30
-30
-30
-31
-31
-32
-31
-30
-28
-27
-26
-26
-28
-31
-36
-42
-47
-50
-50
-46
-38
-26
-11
6
24
43
61
80
98
116
133
148
161
168
169
163
149
129
105
79
54
32
16
5
-1
-3
-2
-2
-2
-4
-7
-12
-16
-20
-23
-24
-24
-23
-22
-22
-22
-23
-24
-25
-26
-27
-26
-26
-25
-24
-24
-24
-25
-26
-27
-28
-28
-27
-26
-25
-23
-20
-18
-16
-15
-14
-14
-15
-17
-19
-21
-23
-24
-23
-21
-18
-15
-12
-9
-7
-7
-9
-11
-14
-16
-17
-18
-16
-14
-11
-8
-5
-2
-1
0
1
1
1
2
3
5
7
8
10
10
11
11
10
11
12
14
17
20
25
29
33
35
37
38
37
35
33
30
28
26
25
25
27
29
33
37
42
45
47
47
44
40
35
29
24
20
17
16
17
18
20
21
21
19
17
13
8
4
0
-4
-6
-8
-9
-9
-9
-9
-8
-8
-8
-9
-10
-12
-14
-16
-17
-17
-16
-15
-13
-11
-10
-10
-11
-12
-13
-14
-13
-13
-11
-9
-7
-6
-6
-7
-9
-11
-13
-14
-15
-14
-13
-11
-10
-9
-10
-11
-12
-14
-15
-16
-16
-15
-13
-12
-10
-9
-8
-8
-9
-10
-12
-14
-15
-16
-16
-15
-13
-10
-7
-4
-2
-1
-1
-2
-4
-6
-9
-11
-13
-14
-15
-15
-14
-13
-11
-10
-9
-8
-8
-8
-9
-10
-11
-12
-13
-13
-12
-12
-11
-10
-10
-11
-12
-13
-14
-14
-14
-14
-14
-14
-13
-13
-13
-14
-14
-13
-12
-11
-10
-9
-8
-7
-7
-8
-8
-9
-9
-9
-8
-8
-9
-9
-11
-12
-13
-14
-13
-10
-6
-1
5
10
14
17
18
17
15
12
8
6
3
2
2
2
3
3
2
0
-2
-6
-9
-13
-16
-17
-17
-15
-13
-10
-7
-6
-6
-8
-12
-16
-20
-23
-24
-23
-20
-16
-12
-10
-11
-13
-18
-24
-30
-33
-33
-29
-20
-7
9
28
47
68
88
108
127
144
160
172
179
180
174
161
141
117
90
64
40
22
9
2
-1
-1
0
1
0
-2
-6
-10
-14
-17
-19
-19
-19
-18
-18
-19
-20
-22
-23
-24
-24
-22
-20
-17
-15
-13
-13
-14
-16
-18
-19
-19
-19
-17
-15
-13
-12
-12
-12
-13
-15
-17
-18
-18
-18
-18
-17
-16
-14
-13
-11
-9
-8
-7
-6
-7
-8
-10
-12
-14
-15
-15
-13
-11
-7
-4
-1
1
1
0
-1
-2
-2
-1
2
6
10
14
17
18
18
17
14
12
10
9
11
14
18
22
27
30
32
33
33
32
32
33
34
35
37
37
37
36
34
31
29
28
28
30
34
38
42
44
45
43
39
33
26
19
14
10
8
7
6
6
5
4
3
1
-1
-3
-4
-4
-4
-4
-5
-6
-7
-9
-11
-13
-14
-15
-15
-15
-14
-13
-12
-11
-11
-10
-10
-10
-10
-11
-12
-12
-13
-14
-14
-14
-14
-13
-13
-12
-12
-12
-13
-14
-14
-15
-15
-14
-14
-13
-12
-12
-12
-12
-13
-14
-15
-16
-17
-17
-17
-17
-16
-15
-14
-13
-13
-13
-14
-16
-18
-20
-21
-21
-20
-18
-15
-11
-8
-7
-6
-7
-9
-11
-14
-15
-16
-16
-15
-14
-12
-11
-11
-11
-12
-13
-14
-15
-16
-16
-16
-16
-16
-15
-15
-14
-13
-12
-11
-11
-11
-12
-14
-16
-18
-19
-19
-18
-16
-14
-11
-9
-8
-8
-9
-11
-13
-15
-17
-17
-17
-16
-16
-15
-14
-14
-14
-15
-15
-16
-16
-17
-17
-17
-17
-17
-16
-14
-12
-8
-4
0
4
7
9
10
11
10
10
9
9
8
7
6
4
1
-2
-6
-8
-11
-12
-13
-13
-13
-13
-13
-14
-15
-16
-17
-18
-19
-19
-20
-21
-22
-23
-24
-24
-24
-23
-22
-22
-23
-25
-28
-32
-34
-35
-33
-28
-18
-4
14
35
57
81
104
126
146
163
174
180
178
170
154
134
110
85
62
42
26
15
8
4
1
-1
-4
-7
-10
-13
-16
-17
-17
-17
-16
-16
-17
-19
-21
-24
-25
-26
-25
-24
-22
-19
-17
-17
-17
-18
-20
-22
-24
-25
-25
-24
-23
-21
-19
-16
-14
-13
-12
-11
-11
-12
-12
-13
-14
-15
-16
-16
-16
-16
-16
-16
-15
-14
-13
-12
-10
-8
-7
-6
-5
-5
-6
-7
-9
-10
-10
-10
-9
-8
-6
-5
-3
-2
0
2
5
8
11
15
17
19
19
19
18
17
17
17
19
22
25
28
31
32
32
31
31
30
30
32
33
36
38
39
40
40
39
38
37
37
38
38
38
38
36
33
29
25
21
17
14
12
10
10
9
8
7
5
3
0
-3
-5
-7
-9
-11
-12
-12
-13
-13
-13
-12
-12
-11
-11
-11
-11
-12
-12
-13
-14
-15
-15
-15
-14
-14
-14
-15
-16
-17
-18
-18
-18
-17
-15
-13
-11
-9
-9
-9
-11
-13
-15
-17
-18
-19
-18
-16
-14
-13
-12
-12
-12
-13
-14
-14
-15
-14
-14
-14
-14
-15
-16
-18
-19
-21
-21
-20
-19
-16
-13
-11
-9
-8
-8
-9
-11
-13
-14
-15
-15
-14
-12
-10
-8
-7
-7
-8
-10
-13
-16
-19
-21
-21
-21
-19
-16
-13
-11
-9
-8
-9
-10
-12
-14
-16
-17
-18
-18
-18
-17
-17
-16
-16
-15
-15
-14
-13
-12
-11
-10
-10
-11
-12
-14
-15
-16
-17
-16
-16
-15
-14
-13
-13
-13
-13
-13
-13
-13
-13
-12
-12
-12
-12
-13
-13
-13
-12
-11
-9
-7
-4
-2
0
1
2
3
4
6
9
12
14
16
16
15
11
7
2
-3
-7
-10
-11
-12
-12
-12
-12
-12
-13
-14
-14
-13
-12
-11
-9
-9
-9
-11
-13
-17
-20
-22
-22
-21
-18
-15
-13
-12
-14
-18
-24
-31
-37
-40
-40
-34
-24
-9
10
31
53
76
97
117
135
151
163
171
173
169
159
142
120
95
70
46
26
11
1
-3
-4
-3
-2
-2
-2
-4
-7
-9
-10
-11
-11
-11
-12
-14
-17
-22
-26
-30
-33
-33
-32
-28
-24
-19
-15
-13
-13
-14
-16
-18
-21
-23
-23
-24
-23
-22
-21
-20
-18
-17
-16
-14
-14
-14
-14
-15
-16
-17
-17
-15
-12
-8
-4
0
2
3
1
-3
-8
-13
-18
-20
-20
-17
-12
-6
-1
3
5
5
4
1
-1
-2
-1
1
6
11
15
19
21
21
19
17
15
15
15
18
23
28
33
38
41
42
41
40
38
36
36
36
37
38
40
41
41
41
39
38
36
35
34
34
35
35
36
35
33
30
26
22
17
14
11
10
10
10
11
11
10
7
4
-1
-5
-8
-9
-9
-7
-5
-3
-2
-3
-5
-9
-14
-18
-21
-22
-21
-18
-14
-11
-8
-7
-7
-9
-12
-14
-16
-17
-17
-15
-14
-13
-12
-12
-13
-13
-13
-13
-11
-9
-7
-6
-5
-6
-7
-10
-12
-14
-15
-15
-13
-11
-9
-8
-7
-8
-10
-12
-14
-16
-17
-17
-16
-14
-11
-9
-7
-6
-6
-6
-8
-10
-13
-15
-17
-18
-19
-19
-18
-16
-14
-12
-10
-8
-7
-6
-6
-7
-9
-11
-13
-15
-16
-17
-18
-18
-17
-17
-16
-16
-15
-15
-15
-15
-15
-14
-13
-12
-10
-9
-8
-8
-9
-10
-12
-14
-16
-17
-17
-16
-15
-14
-13
-13
-13
-14
-15
-17
-18
-18
-18
-17
-16
-14
-14
-13
-14
-15
-17
-18
-18
-18
-16
-13
-10
-6
-3
0
2
3
3
3
4
5
7
9
11
12
13
12
10
6
3
-2
-5
-9
-11
-13
-14
-14
-14
-14
-13
-12
-11
-11
-10
-11
-12
-13
-16
-18
-21
-22
-22
-22
-20
-18
-16
-16
-16
-19
-23
-28
-32
-35
-36
-33
-27
-17
-5
11
27
45
64
82
100
117
131
143
151
154
151
142
127
107
85
61
40
22
9
0
-4
-5
-4
-3
-3
-4
-7
-11
-16
-19
-21
-22
-21
-20
-18
-17
-17
-17
-18
-20
-21
-22
-23
-22
-21
-20
-19
-19
-18
-18
-17
-17
-16
-15
-14
-14
-14
-14
-15
-16
-17
-17
-17
-16
-15
-14
-14
-13
-14
-15
-16
-16
-16
-16
-15
-13
-11
-9
-6
-4
-3
-2
-1
-1
-2
-3
-4
-5
-5
-4
-3
0
3
6
8
9
9
8
6
5
5
7
11
15
21
25
29
31
31
30
28
27
27
28
31
35
38
41
42
41
40
38
37
37
38
41
43
46
47
47
45
41
36
31
27
24
22
22
22
23
24
24
23
22
19
17
13
10
6
3
-1
-4
-6
-7
-8
-7
-7
-6
-6
-6
-7
-8
-9
-10
-11
-12
-12
-12
-12
-13
-13
-14
-15
-16
-17
-17
-17
-17
-16
-15
-15
-16
-17
-18
-19
-19
-19
-18
-17
-15
-13
-12
-11
-12
-13
-15
-16
-17
-17
-16
-14
-12
-11
-10
-10
-11
-12
-13
-14
-13
-12
-10
-7
-6
-5
-6
-7
-9
-12
-14
-15
-15
-14
-13
-12
-11
-11
-12
-13
-14
-14
-14
-13
-11
-8
-6
-4
-4
-6
-8
-12
-16
-19
-21
-21
-20
-17
-14
-11
-8
-7
-7
-9
-12
-16
-19
-22
-23
-23
-22
-20
-19
-17
-16
-16
-16
-17
-17
-18
-18
-18
-17
-17
-17
-16
-17
-17
-17
-17
-17
-17
-16
-14
-12
-9
-7
-3
0
3
6
7
9
9
8
7
5
4
2
0
-1
-2
-4
-5
-6
-7
-7
-7
-7
-7
-6
-6
-7
-8
-10
-13
-16
-19
-20
-20
-19
-17
-14
-12
-10
-10
-12
-15
-20
-25
-29
-33
-35
-35
-33
-29
-23
-15
-5
6
20
36
54
74
95
116
135
152
165
172
173
168
156
139
118
95
72
51
33
19
10
5
2
2
3
3
2
0
-4
-8
-13
-18
-21
-24
-25
-24
-23
-20
-17
-14
-12
-10
-9
-9
-10
-11
-13
-14
-16
-17
-17
-17
-17
-16
-15
-14
-13
-12
-11
-11
-10
-10
-10
-10
-10
-10
-10
-10
-10
-10
-9
-9
-8
-7
-6
-5
-4
-3
-3
-3
-3
-3
-3
-3
-2
-1
0
2
4
6
7
9
10
11
12
13
13
13
13
13
13
13
13
14
15
17
20
22
25
27
30
31
32
33
34
35
36
37
38
39
39
39
39
39
39
39
39
41
43
45
48
49
50
50
48
46
43
40
38
36
34
33
32
30
27
23
18
12
7
2
-1
-3
-2
-1
2
4
7
8
8
7
5
3
0
-2
-3
-4
-4
-3
-3
-3
-2
-2
-2
-2
-3
-3
-3
-3
-4
-4
-4
-5
-5
-5
-5
-4
-4
-3
-2
-1
-1
-1
-2
-2
-3
-4
-5
-5
-6
-5
-5
-5
-4
-4
-4
-3
-3
-3
-2
-1
0
2
3
3
3
3
1
-1
-3
-5
-5
-4
-3
0
3
5
7
7
6
4
1
-2
-5
-7
-9
-9
-8
-7
-5
-4
-3
-2
-1
-1
-1
-1
-1
-2
-2
-3
-3
-4
-5
-5
