-7
-9
-9
-9
-8
-6
-3
-1
1
1
1
-1
-2
-4
-5
-6
-6
-5
-4
-3
-3
-3
-3
-3
-4
-4
-4
-3
-3
-3
-3
-4
-5
-6
-7
-7
-8
-8
-8
-7
-7
-7
-7
-7
-7
-7
-6
-6
-6
-6
-6
-6
-7
-8
-9
-10
-12
-12
-13
-13
-12
-11
-10
-9
-9
-8
-8
-7
-7
-7
-6
-6
-5
-5
-5
-5
-5
-6
-6
-6
-6
-5
-4
-3
-2
-1
0
1
1
1
1
0
-1
-3
-5
-7
-10
-12
-15
-17
-18
-18
-18
-17
-16
-16
-16
-16
-17
-18
-19
-19
-20
-19
-19
-18
-17
-17
-17
-17
-17
-18
-19
-19
-19
-19
-18
-18
-17
-17
-17
-17
-18
-19
-20
-21
-22
-22
-23
-23
-24
-25
-25
-26
-25
-23
-19
-11
-1
14
31
51
73
95
116
135
150
159
161
156
143
123
97
68
38
11
-13
-30
-40
-43
-41
-34
-26
-17
-11
-7
-6
-8
-10
-13
-15
-16
-16
-14
-12
-11
-9
-9
-9
-9
-10
-11
-12
-12
-13
-13
-13
-13
-14
-14
-13
-13
-11
-10
-9
-8
-7
-7
-7
-7
-7
-7
-6
-5
-4
-2
0
2
3
3
3
2
1
0
-1
-1
0
0
2
3
5
6
7
8
9
10
10
10
10
10
10
11
11
12
14
15
17
19
22
24
26
29
31
33
35
37
39
41
43
45
47
49
51
53
54
56
57
58
58
58
58
58
57
56
55
54
52
51
49
48
46
45
45
44
42
40
38
35
31
27
23
20
17
15
13
12
11
10
9
7
6
4
2
0
-1
-2
-3
-4
-6
-8
-11
-15
-17
-19
-20
-19
-17
-14
-12
-9
-8
-8
-10
-12
-14
-16
-18
-18
-17
-15
-13
-12
-12
-13
-14
-17
-19
-21
-22
-22
-20
-18
-15
-13
-11
-10
-10
-10
-11
-13
-13
-14
-13
-13
-12
-11
-11
-12
-13
-15
-17
-18
-19
-19
-17
-16
-13
-11
-9
-7
-7
-7
-7
-7
-7
-7
-7
-7
-7
-7
-7
-8
-9
-11
-13
-14
-15
-15
-14
-12
-9
-7
-4
-3
-2
-2
-3
-5
-8
-10
-12
-14
-15
-15
-15
-15
-15
-15
-16
-17
-18
-18
-19
-19
-18
-18
-17
-17
-17
-18
-20
-22
-24
-26
-26
-27
-26
-25
-24
-23
-23
-24
-25
-27
-28
-29
-30
-29
-28
-26
-24
-23
-21
-20
-20
-20
-20
-21
-22
-24
-26
-29
-32
-34
-37
-38
-38
-35
-30
-22
-12
2
18
36
55
75
94
112
126
136
140
136
126
109
86
60
33
7
-15
-32
-43
-49
-49
-45
-39
-33
-28
-24
-21
-19
-19
-19
-19
-20
-20
-21
-22
-23
-23
-23
-23
-21
-19
-16
-13
-10
-8
-8
-8
-10
-12
-15
-17
-19
-20
-20
-19
-17
-14
-11
-8
-5
-3
-1
0
0
-1
-2
-4
-5
-6
-6
-5
-4
-1
1
3
5
6
6
5
3
1
0
-1
-1
1
3
6
9
12
14
15
16
16
16
16
16
17
19
21
24
26
29
32
34
36
38
39
39
40
40
41
41
42
43
44
45
47
48
48
47
46
45
43
42
41
41
42
43
44
44
44
42
39
35
31
27
24
21
19
17
16
15
13
11
9
7
6
4
4
3
2
2
1
-1
-3
-5
-7
-9
-10
-10
-10
-10
-9
-9
-10
-11
-12
-14
-15
-16
-17
-17
-16
-16
-15
-15
-15
-15
-15
-16
-16
-16
-16
-16
-16
-17
-17
-17
-17
-18
-18
-18
-17
-17
-16
-16
-15
-15
-14
-13
-13
-12
-11
-10
-10
-9
-9
-10
-11
-13
-15
-16
-17
-17
-17
-16
-14
-13
-12
-12
-13
-14
-16
-17
-18
-19
-19
-19
-18
-17
-16
-16
-16
-16
-17
-17
-17
-17
-17
-16
-15
-14
-12
-11
-11
-11
-11
-11
-12
-13
-14
-14
-15
-14
-13
-11
-8
-6
-3
-2
-1
0
-1
-2
-3
-4
-5
-5
-5
-5
-5
-5
-6
-7
-9
-11
-13
-15
-16
-17
-18
-17
-17
-16
-15
-14
-13
-13
-13
-14
-15
-17
-18
-19
-20
-21
-21
-21
-20
-20
-20
-19
-19
-19
-20
-20
-21
-21
-21
-21
-21
-21
-21
-20
-20
-20
-20
-21
-23
-24
-26
-27
-28
-27
-26
-23
-19
-12
-4
7
21
37
56
77
98
118
134
145
150
147
136
118
94
68
41
17
-4
-20
-30
-34
-34
-32
-28
-23
-19
-17
-15
-14
-14
-14
-13
-12
-11
-10
-9
-9
-9
-10
-11
-12
-13
-13
-12
-11
-9
-7
-5
-4
-3
-4
-4
-5
-6
-7
-8
-8
-7
-7
-6
-5
-4
-4
-3
-3
-3
-4
-4
-5
-6
-7
-7
-7
-7
-6
-5
-3
-1
0
2
2
2
2
2
2
2
3
5
6
8
10
12
13
14
15
16
16
18
19
21
23
24
26
26
26
26
25
25
25
26
28
32
35
39
41
43
43
42
41
39
38
37
38
41
43
46
48
49
48
45
41
37
32
28
26
24
23
22
22
21
19
16
13
10
6
4
1
-1
-2
-4
-5
-6
-7
-9
-10
-11
-12
-13
-14
-14
-14
-14
-14
-14
-14
-13
-13
-13
-14
-14
-15
-16
-18
-19
-20
-21
-21
-21
-21
-19
-18
-17
-16
-15
-14
-15
-15
-16
-17
-19
-19
-20
-20
-19
-18
-17
-16
-15
-13
-12
-12
-12
-12
-12
-12
-13
-14
-15
-16
-16
-17
-17
-16
-15
-14
-13
-12
-12
-12
-12
-13
-14
-14
-14
-14
-13
-12
-10
-10
-9
-10
-11
-12
-14
-16
-17
-17
-17
-16
-15
-14
-13
-12
-12
-12
-12
-12
-13
-13
-12
-12
-11
-10
-9
-8
-7
-5
-4
-3
-1
0
1
1
1
1
0
-1
-3
-4
-6
-8
-10
-12
-14
-16
-17
-18
-18
-19
-18
-18
-17
-17
-16
-16
-15
-15
-16
-16
-17
-17
-17
-17
-18
-18
-18
-19
-20
-21
-22
-23
-24
-25
-25
-26
-26
-26
-26
-26
-25
-25
-25
-24
-24
-23
-23
-23
-23
-24
-25
-26
-27
-27
-26
-24
-20
-13
-4
8
24
42
63
84
105
122
135
141
140
130
113
90
63
36
10
-13
-29
-40
-45
-44
-40
-35
-28
-23
-19
-16
-15
-14
-14
-14
-15
-15
-15
-16
-17
-18
-19
-20
-20
-21
-20
-20
-19
-18
-18
-17
-17
-17
-17
-17
-17
-16
-15
-14
-13
-12
-10
-9
-8
-7
-7
-7
-7
-8
-8
-9
-9
-9
-8
-7
-6
-5
-4
-4
-3
-3
-2
-1
0
1
2
4
5
6
6
6
6
6
7
9
11
13
16
18
21
23
25
26
27
28
29
31
32
34
35
36
37
38
38
39
39
40
42
43
45
46
48
49
50
50
51
52
52
52
52
51
50
49
46
44
40
37
34
31
28
26
24
22
21
19
18
15
13
11
8
6
4
3
2
1
1
0
0
-1
-2
-3
-4
-5
-6
-7
-7
-8
-8
-9
-10
-11
-12
-13
-14
-14
-15
-15
-14
-14
-14
-13
-13
-12
-12
-12
-11
-11
-11
-11
-11
-11
-11
-11
-11
-11
-11
-10
-9
-8
-8
-7
-7
-7
-7
-7
-7
-7
-7
-7
-7
-7
-7
-8
-9
-10
-10
-11
-11
-11
-10
-10
-9
-10
-10
-10
-11
-12
-12
-11
-10
-9
-7
-6
-5
-4
-5
-5
-6
-8
-8
-9
-9
-9
-9
-9
-9
-10
-11
-12
-13
-13
-13
-12
-11
-9
-7
-5
-4
-3
-3
-4
-4
-5
-5
-5
-5
-4
-3
-2
-2
-1
0
1
1
2
3
4
4
5
4
3
1
-1
-4
-6
-8
-10
-11
-11
-11
-12
-11
-11
-12
-12
-12
-12
-13
-13
-14
-14
-15
-15
-16
-16
-17
-17
-17
-17
-18
-18
-18
-19
-19
-19
-19
-18
-18
-17
-16
-15
-15
-15
-15
-16
-18
-19
-20
-21
-21
-22
-21
-21
-20
-18
-16
-12
-5
4
17
33
53
75
97
118
135
147
152
149
138
120
96
69
41
15
-7
-24
-35
-40
-40
-37
-31
-24
-18
-14
-11
-10
-11
-12
-14
-15
-16
-16
-16
-16
-15
-15
-14
-14
-15
-15
-15
-14
-13
-12
-11
-10
-9
-9
-9
-9
-9
-10
-10
-10
-9
-9
-8
-7
-6
-6
-6
-5
-5
-5
-5
-5
-4
-4
-3
-3
-2
-2
-2
-2
-2
-2
-2
-2
-2
-2
-1
0
1
2
4
6
8
10
11
13
14
15
16
17
17
18
19
20
22
23
25
27
29
31
32
34
35
37
38
39
40
41
41
42
43
44
46
47
48
49
49
50
50
49
49
48
46
45
44
42
41
39
37
35
33
30
27
24
21
18
16
13
11
10
8
7
5
3
1
-1
-3
-5
-6
-8
-8
-9
-9
-9
-9
-9
-9
-10
-11
-12
-13
-14
-15
-15
-16
-16
-16
-16
-16
-16
-16
-16
-16
-16
-15
-15
-15
-14
-13
-12
-12
-11
-10
-10
-10
-9
-9
-10
-10
-11
-12
-12
-13
-14
-15
-16
-16
-16
-15
-15
-14
-13
-12
-11
-10
-9
-8
-8
-7
-7
-8
-8
-9
-10
-11
-12
-13
-13
-13
-13
-13
-13
-14
-14
-14
-15
-16
-16
-16
-16
-16
-16
-15
-15
-14
-14
-14
-14
-14
-14
-15
-15
-14
-14
-14
-14
-13
-13
-13
-12
-12
-12
-11
-11
-10
-10
-10
-10
-11
-11
-12
-12
-13
-13
-13
-13
-13
-12
-11
-10
-9
-7
-5
-4
-3
-2
-2
-2
-3
-4
-5
-7
-8
-9
-10
-11
-12
-13
-14
-15
-16
-18
-19
-20
-21
-21
-21
-21
-21
-21
-21
-22
-22
-22
-22
-23
-23
-23
-23
-23
-23
-23
-24
-24
-25
-25
-25
-25
-25
-24
-24
-23
-23
-23
-23
-24
-24
-25
-26
-26
-27
-27
-28
-29
-30
-30
-30
-29
-25
-19
-10
3
20
39
61
83
105
125
141
151
153
148
135
115
89
60
31
3
-19
-36
-45
-48
-46
-40
-32
-25
-19
-15
-14
-14
-15
-17
-18
-18
-17
-17
-16
-15
-15
-15
-16
-17
-17
-17
-17
-17
-17
-16
-16
-16
-15
-15
-14
-13
-12
-11
-10
-9
-8
-8
-8
-9
-9
-9
-9
-8
-8
-7
-6
-6
-5
-5
-5
-4
-4
-3
-2
-2
-1
-1
0
0
0
1
1
2
3
5
6
7
8
9
10
11
11
12
14
15
17
18
20
22
23
25
27
28
30
32
34
35
37
38
40
41
42
43
44
45
45
46
46
46
46
46
46
46
46
47
47
47
47
46
45
43
41
38
35
31
28
26
24
22
20
18
17
15
13
10
8
6
4
2
1
0
-2
-3
-5
-6
-8
-10
-11
-13
-13
-13
-13
-13
-13
-13
-13
-13
-14
-14
-15
-15
-14
-14
-13
-12
-11
-10
-10
-11
-11
-12
-13
-13
-13
-12
-11
-10
-9
-9
-9
-9
-11
-12
-13
-14
-13
-13
-11
-9
-8
-6
-5
-5
-5
-7
-9
-11
-12
-14
-14
-14
-14
-13
-12
-11
-10
-10
-10
-11
-12
-13
-14
-14
-14
-14
-13
-12
-12
-11
-11
-12
-12
-13
-14
-14
-14
-14
-14
-13
-13
-13
-13
-14
-15
-15
-16
-16
-16
-16
-15
-15
-15
-14
-14
-14
-14
-14
-15
-15
-15
-15
-16
-16
-17
-17
-17
-18
-17
-17
-17
-17
-17
-17
-18
-19
-19
-20
-19
-19
-18
-17
-15
-14
-13
-12
-11
-11
-11
-11
-11
-11
-11
-11
-11
-11
-11
-11
-11
-10
-10
-9
-9
-9
-8
-8
-7
-6
-6
-5
-4
-3
-2
-1
-2
-3
-4
-6
-9
-11
-14
-15
-17
-17
-17
-16
-15
-14
-14
-14
-14
-15
-16
-17
-17
-18
-18
-18
-17
-17
-16
-16
-16
-17
-18
-19
-20
-21
-22
-23
-22
-22
-21
-21
-20
-19
-19
-19
-19
-19
-20
-21
-21
-23
-24
-25
-26
-27
-27
-26
-23
-17
-9
3
18
36
56
79
101
123
141
154
160
159
149
132
109
82
53
24
0
-20
-33
-39
-40
-36
-30
-23
-16
-12
-9
-9
-10
-13
-15
-16
-17
-16
-15
-14
-12
-11
-10
-9
-8
-8
-8
-8
-8
-9
-9
-8
-8
-8
-7
-6
-6
-5
-5
-5
-5
-6
-6
-7
-7
-6
-6
-5
-4
-3
-3
-3
-3
-3
-4
-4
-3
-3
-2
0
1
3
5
6
7
8
9
10
10
10
10
10
11
12
13
15
17
19
20
22
23
24
24
25
26
27
29
32
35
38
41
42
44
44
44
45
46
48
51
54
56
57
56
54
50
46
42
39
38
40
42
46
48
49
47
43
36
29
23
18
15
15
16
18
20
20
18
15
10
5
0
-3
-5
-5
-4
-2
-1
0
0
-1
-3
-4
-6
-7
-8
-9
-9
-8
-8
-8
-7
-7
-6
-6
-5
-4
-4
-4
-5
-5
-7
-8
-9
-10
-11
-12
-12
-12
-11
-10
-10
-9
-8
-7
-6
-5
-4
-4
-3
-3
-3
-3
-4
-5
-6
-6
-7
-7
-7
-7
-7
-6
-6
-5
-4
-3
-3
-2
-2
-2
-2
-3
-4
-5
-6
-6
-7
-7
-8
-7
-7
-7
-6
-6
-5
-5
-5
-5
-5
-6
-7
-8
-9
-9
-9
-9
-8
-8
-7
-7
-7
-7
-8
-10
-11
-13
-14
-14
-14
-13
-12
-11
-10
-10
-10
-10
-10
-11
-12
-13
-13
-14
-14
-14
-14
-14
-13
-13
-13
-12
-12
-12
-12
-13
-13
-14
-14
-14
-13
-13
-12
-12
-11
-11
-11
-12
-12
-13
-13
-13
-13
-13
-13
-12
-12
-12
-13
-13
-14
-14
-14
-13
-12
-11
-10
-9
-8
-7
-7
-7
-7
-8
-8
-8
-8
-7
-7
-6
-6
-6
-7
-7
-7
-8
-8
-8
-8
-7
-7
-6
-6
-5
-4
-4
-3
-3
-2
-1
-1
-1
-1
-2
-4
-5
-7
-9
-11
-12
-13
-14
-15
-15
-15
-16
-16
-17
-17
-18
-18
-18
-17
-17
-16
-15
-15
-15
-15
-15
-15
-15
-15
-15
-15
-14
-14
-14
-15
-15
-16
-17
-17
-17
-17
-16
-16
-16
-17
-18
-20
-22
-24
-26
-27
-26
-24
-19
-13
-3
9
24
43
64
87
110
132
149
161
165
160
146
125
98
69
39
13
-9
-25
-35
-39
-39
-36
-32
-27
-22
-19
-16
-15
-14
-13
-13
-14
-14
-15
-16
-17
-17
-17
-16
-15
-13
-12
-10
-9
-9
-9
-10
-10
-11
-12
-12
-12
-11
-10
-9
-8
-7
-6
-6
-6
-6
-7
-7
-7
-7
-7
-6
-5
-3
-2
0
1
2
2
2
2
2
1
1
1
1
2
2
3
4
5
7
8
10
11
13
14
16
17
18
19
20
21
22
23
24
26
27
29
31
33
35
38
40
42
43
44
45
45
46
46
47
47
48
50
51
52
53
54
54
54
54
53
52
50
49
47
46
44
42
41
39
36
34
31
28
25
22
19
16
13
11
8
6
4
3
1
0
-2
-3
-5
-6
-7
-8
-9
-9
-10
-10
-10
-9
-9
-9
-9
-9
-9
-10
-10
-11
-12
-13
-13
-13
-14
-14
-13
-13
-13
-13
-13
-12
-12
-12
-11
-11
-11
-10
-10
-9
-9
-8
-8
-8
-8
-8
-8
-8
-8
-9
-9
-10
-10
-10
-10
-9
-9
-8
-8
-8
-8
-8
-8
-9
-10
-10
-11
-11
-12
-12
-12
-13
-14
-14
-15
-15
-15
-15
-15
-15
-14
-14
-14
-13
-13
-13
-13
-14
-14
-15
-15
-16
-16
-16
-16
-15
-14
-14
-14
-14
-14
-15
-16
-17
-18
-18
-18
-17
-16
-15
-14
-13
-12
-12
-12
-13
-14
-14
-15
-15
-15
-15
-15
-15
-15
-15
-15
-15
-15
-15
-15
-15
-15
-15
-15
-15
-15
-15
-16
-16
-16
-16
-16
-16
-15
-15
-15
-15
-15
-16
-16
-17
-18
-18
-19
-19
-18
-18
-17
-16
-16
-15
-15
-15
-16
-17
-17
-18
-18
-18
-18
-17
-16
-16
-15
-15
-15
-14
-14
-14
-14
-14
-13
-13
-13
-12
-12
-12
-11
-11
-10
-9
-8
-6
-5
-4
-3
-3
-2
-3
-3
-4
-5
-6
-7
-7
-8
-8
-8
-9
-10
-11
-13
-14
-16
-18
-19
-19
-19
-19
-18
-17
-16
-15
-15
-15
-15
-16
-17
-18
-19
-20
-21
-22
-22
-22
-22
-21
-20
-18
-17
-16
-16
-16
-16
-17
-18
-19
-19
-20
-20
-20
-20
-21
-21
-22
-22
-22
-21
-17
-12
-4
8
23
41
62
84
106
127
144
156
162
159
149
131
107
79
50
22
-3
-22
-34
-40
-40
-36
-30
-23
-16
-11
-8
-7
-7
-9
-10
-11
-11
-11
-11
-11
-11
-11
-10
-10
-9
-9
-8
-6
-5
-5
-4
-4
-4
-5
-5
-6
-6
-6
-5
-4
-3
-3
-2
-2
-2
-1
-1
-1
-1
-1
0
0
0
1
1
2
2
2
3
4
4
5
6
7
9
10
11
13
14
15
16
16
17
17
16
16
17
17
18
20
21
23
25
27
28
30
31
32
34
35
37
40
42
44
45
47
48
48
49
49
50
51
53
55
57
59
60
60
60
59
57
56
54
52
51
50
50
49
49
48
46
44
41
38
34
31
27
24
21
19
17
15
13
11
9
7
5
3
2
0
-1
-2
-3
-3
-4
-4
-4
-5
-5
-6
-6
-7
-7
-8
-8
-9
-9
-9
-9
-9
-9
-8
-8
-7
-7
-7
-8
-9
-9
-10
-11
-11
-11
-10
-9
-8
-6
-5
-4
-4
-3
-4
-4
-4
-5
-5
-5
-5
-5
-5
-5
-5
-5
-5
-5
-5
-6
-5
-5
-5
-5
-6
-6
-6
-7
-7
-7
-7
-7
-7
-7
-6
-7
-7
-8
-8
-9
-10
-10
-10
-11
-11
-11
-11
-11
-11
-12
-12
-11
-11
-11
-10
-10
-10
-11
-11
-12
-13
-13
-13
-12
-11
-9
-8
-8
-8
-8
-10
-11
-12
-13
-14
-14
-13
-13
-12
-11
-11
-12
-13
-14
-15
-16
-17
-17
-17
-16
-16
-15
-15
-15
-16
-16
-16
-16
-15
-15
-14
-14
-13
-13
-13
-13
-14
-15
-15
-16
-17
-17
-18
-18
-18
-18
-18
-17
-17
-16
-16
-15
-16
-16
-16
-17
-17
-17
-17
-17
-16
-16
-15
-15
-15
-14
-14
-14
-13
-13
-12
-11
-10
-9
-8
-9
-9
-10
-11
-12
-13
-13
-13
-12
-11
-10
-9
-7
-6
-5
-4
-3
-3
-3
-2
-2
-2
-2
-1
-2
-2
-3
-4
-6
-7
-9
-10
-12
-12
-13
-14
-14
-15
-15
-16
-16
-17
-17
-17
-17
-17
-16
-16
-16
-16
-16
-16
-16
-16
-16
-16
-17
-17
-18
-19
-20
-21
-22
-22
-22
-21
-20
-19
-18
-17
-17
-18
-20
-22
-24
-26
-27
-26
-24
-20
-13
-4
9
23
41
60
80
100
118
133
142
145
140
128
110
86
58
31
4
-18
-34
-45
-50
-49
-45
-40
-33
-27
-23
-20
-18
-17
-17
-16
-16
-15
-13
-13
-12
-12
-12
-12
-13
-13
-14
-13
-13
-13
-13
-13
-13
-13
-13
-13
-13
-12
-11
-10
-8
-6
-5
-4
-3
-3
-3
-3
-4
-4
-4
-5
-5
-5
-4
-4
-3
-3
-2
-1
0
0
1
1
2
2
2
2
3
3
4
5
6
7
8
9
11
12
13
14
15
16
17
19
21
24
26
28
30
31
32
33
34
34
35
37
38
40
42
44
45
46
47
48
48
49
49
50
50
51
51
51
50
49
48
46
45
43
41
39
37
35
33
31
29
27
25
23
20
18
16
14
12
10
8
5
3
2
0
-2
-3
-4
-5
-7
-8
-8
-9
-10
-11
-11
-12
-12
-13
-13
-14
-14
-14
-14
-13
-13
-12
-11
-11
-10
-10
-10
-10
-11
-11
-12
-12
-13
-13
-14
-14
-15
-15
-15
-14
-14
-13
-11
-10
-8
-6
-5
-4
-4
-4
-5
-6
-7
-9
-10
-12
-12
-13
-13
-12
-12
-11
-11
-11
-11
-11
-11
-11
-11
-11
-11
-11
-11
-11
-11
-11
-11
-11
-11
-11
-10
-10
-10
-9
-9
-9
-10
-10
-11
-11
-11
-11
-11
-11
-10
-9
-9
-9
-9
-10
-10
-11
-12
-13
-13
-13
-13
-13
-13
-13
-13
-13
-14
-15
-15
-15
-15
-15
-14
-13
-11
-10
-9
-9
-10
-11
-13
-15
-17
-18
-19
-19
-18
-16
-14
-12
-11
-10
-10
-11
-12
-13
-14
-15
-15
-15
-15
-14
-13
-12
-12
-11
-11
-11
-11
-11
-12
-12
-13
-14
-14
-15
-15
-15
-15
-14
-14
-13
-13
-13
-13
-12
-12
-11
-11
-10
-9
-9
-8
-8
-9
-9
-10
-11
-11
-11
-10
-9
-8
-6
-5
-4
-4
-3
-3
-3
-3
-3
-3
-3
-3
-4
-5
-6
-7
-8
-9
-10
-11
-11
-12
-12
-13
-13
-14
-15
-15
-16
-16
-17
-17
-17
-17
-18
-18
-19
-19
-20
-20
-20
-19
-19
-18
-17
-16
-16
-15
-15
-16
-16
-16
-17
-17
-18
-18
-18
-18
-19
-19
-20
-20
-21
-21
-20
-18
-14
-7
3
16
32
51
72
93
114
131
145
152
152
144
128
106
80
52
25
1
-18
-31
-37
-38
-35
-30
-23
-17
-13
-10
-9
-9
-10
-11
-11
-11
-11
-10
-10
-10
-10
-11
-12
-12
-12
-11
-11
-10
-9
-8
-8
-7
-7
-7
-7
-7
-6
-5
-5
-4
-3
-3
-3
-3
-3
-3
-3
-3
-2
-2
-1
-1
0
0
0
0
0
0
1
1
2
4
5
7
8
9
10
10
10
10
9
9
10
11
12
14
16
18
19
20
21
22
23
24
25
27
29
31
33
36
38
39
41
43
44
46
47
48
50
51
52
54
55
56
57
58
59
59
59
59
58
58
57
56
55
53
52
51
49
46
44
41
38
35
32
30
28
26
24
22
19
16
13
10
7
5
3
3
2
2
1
1
-1
-2
-4
-6
-8
-8
-8
-8
-7
-6
-6
-6
-7
-8
-9
-11
-12
-12
-12
-12
-11
-10
-10
-9
-9
-10
-10
-10
-10
-10
-10
-9
-9
-9
-9
-10
-10
-12
-12
-13
-12
-11
-10
-7
-5
-4
-3
-2
-3
-4
-6
-8
-10
-11
-12
-12
-11
-10
-9
-7
-7
-6
-6
-7
-8
-8
-9
-9
-9
-9
-8
-8
-8
-8
-9
-10
-11
-12
-12
-13
-13
-13
-13
-13
-13
-12
-12
-12
-11
-11
-11
-11
-11
-11
-12
-12
-13
-14
-15
-16
-16
-17
-17
-17
-17
-17
-16
-15
-15
-14
-13
-12
-12
-12
-12
-13
-14
-14
-15
-16
-16
-16
-16
-16
-16
-15
-15
-15
-14
-14
-13
-13
-12
-12
-11
-11
-12
-12
-13
-14
-14
-14
-14
-14
-13
-12
-12
-11
-11
-12
-12
-12
-12
-12
-12
-11
-11
-10
-9
-8
-8
-8
-8
-7
-7
-6
-5
-4
-3
-2
-2
-1
-1
-2
-3
-4
-5
-7
-9
-11
-13
-15
-16
-18
-18
-19
-19
-19
-19
-19
-19
-19
-20
-20
-21
-21
-21
-21
-21
-20
-20
-19
-19
-19
-19
-19
-20
-20
-21
-21
-21
-21
-21
-21
-21
-21
-20
-20
-19
-19
-19
-19
-20
-22
-24
-25
-26
-25
-22
-17
-8
5
21
39
60
82
103
122
138
147
151
146
135
116
92
65
37
11
-10
-27
-37
-41
-41
-36
-30
-24
-19
-15
-13
-13
-14
-15
-16
-16
-16
-15
-15
-14
-14
-14
-14
-14
-14
-14
-13
-13
-12
-11
-10
-10
-10
-10
-11
-11
-11
-11
-11
-10
-9
-7
-6
-5
-5
-4
-5
-5
-5
-6
-6
-5
-5
-4
-3
-2
-1
-1
0
0
1
1
2
2
3
4
5
5
6
6
7
7
8
9
10
12
14
15
17
19
20
21
23
24
25
27
30
32
34
37
39
40
41
42
43
43
44
45
47
49
52
54
56
58
58
59
58
58
57
56
55
55
55
54
54
53
51
49
47
44
41
38
35
32
30
27
25
23
20
18
15
13
10
8
6
5
3
2
1
0
-2
-3
-4
-6
-8
-9
-10
-11
-12
-12
-12
-11
-11
-11
-11
-12
-13
-14
-16
-17
-18
-19
-19
-18
-17
-16
-14
-14
-13
-14
-14
-15
-16
-17
-18
-18
-17
-16
-15
-14
-13
-13
-13
-13
-13
-13
-13
-13
-13
-13
-12
-12
-12
-13
-13
-13
-14
-13
-13
-12
-11
-10
-9
-9
-9
-9
-10
-11
-13
-14
-15
-15
-15
-15
-15
-15
-15
-15
-16
-16
-16
-16
-16
-16
-16
-15
-15
-15
-15
-15
-16
-16
-17
-17
-17
-17
-17
-17
-17
-17
-18
-19
-20
-21
-21
-20
-20
-18
-17
-16
-16
-16
-17
-18
-20
-22
-23
-25
-25
-25
-25
-24
-23
-23
-22
-22
-21
-21
-20
-20
-20
-19
-19
-18
-18
-17
-16
-16
-14
-13
-12
-11
-11
-10
-10
-10
-9
-9
-8
-8
-7
-6
-5
-4
-4
-4
-4
-5
-6
-7
-8
-9
-11
-12
-14
-15
-17
-18
-19
-19
-20
-20
-21
-21
-21
-21
-21
-21
-21
-21
-20
-21
-21
-22
-23
-24
-25
-25
-26
-25
-25
-24
-24
-24
-24
-24
-25
-25
-25
-25
-25
-24
-24
-23
-23
-23
-24
-26
-27
-29
-31
-31
-30
-26
-20
-10
3
19
38
59
82
104
125
141
152
156
151
138
118
92
63
33
6
-17
-34
-43
-47
-45
-40
-34
-27
-22
-19
-18
-18
-19
-20
-21
-21
-21
-21
-20
-19
-18
-18
-17
-16
-15
-14
-13
-12
-12
-12
-13
-14
-16
-17
-17
-18
-17
-16
-14
-13
-11
-10
-9
-8
-8
-8
-8
-8
-8
-8
-8
-8
-8
-8
-7
-6
-5
-4
-3
-2
-1
-1
0
0
0
0
1
2
3
4
5
7
8
10
11
13
14
16
18
19
21
22
23
25
26
27
28
30
31
33
34
36
38
40
42
44
46
47
49
51
52
53
54
55
56
57
57
57
57
57
57
56
55
54
52
50
48
47
45
42
40
38
35
32
29
26
23
20
17
14
12
9
8
6
5
4
2
1
-1
-3
-5
-7
-8
-10
-11
-12
-12
-12
-13
-13
-13
-14
-14
-15
-15
-15
-15
-14
-13
-12
-12
-11
-11
-12
-13
-14
-15
-16
-17
-17
-16
-15
-13
-11
-10
-8
-8
-8
-8
-9
-10
-11
-11
-11
-11
-11
-10
-10
-9
-9
-9
-9
-9
-10
-11
-12
-13
-13
-14
-14
-13
-12
-11
-10
-9
-8
-8
-8
-9
-10
-10
-11
-11
-11
-10
-9
-9
-8
-8
-8
-9
-9
-10
-11
-11
-12
-12
-13
-13
-14
-14
-15
-15
-15
-14
-14
-13
-13
-13
-13
-14
-14
-15
-16
-16
-15
-15
-13
-12
-12
-12
-12
-12
-13
-14
-15
-15
-14
-13
-12
-10
-9
-8
-8
-8
-8
-8
-9
-9
-9
-8
-8
-7
-7
-7
-6
-6
-5
-4
-3
-2
-1
0
1
1
1
0
-2
-3
-5
-7
-9
-10
-11
-12
-12
-12
-12
-13
-13
-14
-15
-17
-18
-19
-20
-21
-21
-21
-21
-20
-20
-20
-19
-19
-19
-18
-18
-18
-18
-18
-17
-17
-17
-17
-18
-18
-19
-20
-21
-22
-22
-23
-23
-23
-24
-24
-24
-25
-25
-25
-24
-21
-15
-5
8
25
45
68
91
114
133
148
156
157
150
135
114
89
61
34
8
-13
-29
-39
-43
-43
-38
-32
-25
-19
-15
-12
-11
-12
-13
-14
-15
-16
-15
-14
-13
-12
-12
-12
-12
-13
-14
-15
-15
-15
-14
-13
-11
-10
-9
-8
-8
-8
-9
-9
-9
-9
-8
-7
-7
-6
-6
-6
-6
-7
-7
-6
-5
-4
-2
0
2
3
4
4
3
3
2
2
2
3
4
5
7
7
8
9
9
10
11
12
14
16
18
20
21
22
23
24
24
26
28
30
32
35
37
39
40
41
42
42
43
45
46
48
50
52
54
54
55
55
55
54
55
55
55
56
55
55
53
51
49
45
42
39
36
34
31
29
27
24
22
19
16
13
11
8
6
5
4
3
2
1
1
-1
-2
-4
-6
-8
-10
-12
-12
-13
-13
-12
-12
-11
-11
-12
-13
-14
-15
-16
-17
-16
-15
-14
-12
-10
-9
-8
-9
-10
-11
-13
-14
-15
-16
-16
-15
-14
-12
-11
-10
-10
-9
-9
-9
-9
-9
-9
-9
-9
-9
-8
-8
-8
-8
-8
-8
-9
-10
-10
-11
-11
-11
-11
-11
-10
-10
-10
-10
-10
-10
-10
-10
-10
-10
-10
-10
-10
-10
-11
-11
-12
-13
-14
-14
-14
-14
-13
-12
-12
-12
-12
-12
-13
-14
-14
-15
-15
-14
-14
-13
-12
-12
-11
-12
-12
-13
-14
-15
-16
-17
-17
-17
-18
-18
-18
-18
-18
-18
-17
-17
-16
-15
-14
-14
-13
-14
-14
-14
-15
-15
-15
-15
-14
-13
-12
-11
-10
-9
-8
-8
-8
-7
-7
-6
-5
-4
-4
-4
-4
-4
-5
-6
-7
-8
-8
-9
-9
-10
-10
-11
-12
-12
-13
-14
-14
-14
-15
-15
-16
-17
-18
-20
-21
-23
-24
-24
-24
-23
-22
-20
-19
-19
-18
-19
-20
-21
-22
-22
-23
-22
-22
-21
-20
-19
-18
-18
-19
-20
-21
-22
-24
-25
-26
-27
-28
-28
-27
-26
-23
-19
-12
-1
12
30
50
73
97
120
139
153
160
159
149
132
108
80
51
23
-2
-21
-35
-42
-44
-42
-37
-31
-25
-20
-17
-15
-14
-14
-15
-15
-16
-16
-16
-15
-15
-15
-15
-14
-14
-13
-13
-12
-11
-10
-10
-10
-11
-12
-13
-14
-14
-14
-13
-12
-11
-10
-8
-7
-7
-7
-7
-7
-7
-7
-7
-7
-6
-5
-4
-3
-2
-1
0
1
1
1
1
1
1
2
2
3
3
4
5
6
7
8
9
11
12
13
15
17
18
19
21
21
22
23
24
26
28
31
34
37
40
42
44
45
46
46
47
48
49
51
53
55
57
58
58
58
57
55
54
52
51
49
48
47
46
44
42
40
38
36
33
31
29
27
24
22
19
16
12
9
6
3
1
-1
-3
-4
-4
-4
-4
-4
-4
-5
-6
-7
-9
-10
-11
-12
-13
-13
-13
-12
-11
-11
-11
-11
-11
-12
-12
-13
-13
-13
-13
-12
-12
-12
-12
-11
-12
-12
-12
-12
-12
-13
-13
-13
-13
-13
-13
-13
-13
-13
-13
-13
-13
-13
-13
-13
-13
-13
-12
-12
-11
-11
-10
-10
-9
-10
-10
-10
-11
-12
-13
-13
-14
-14
-14
-13
-13
-13
-13
-14
-14
-15
-15
-16
-16
-16
-16
-16
-16
-16
-16
-16
-16
-16
-16
-16
-15
-15
-15
-14
-14
-15
-15
-15
-15
-15
-15
-15
-15
-15
-15
-16
-17
-17
-18
-19
-19
-19
-18
-18
-17
-17
-17
-17
-17
-18
-18
-18
-18
-18
-18
-18
-19
-19
-20
-20
-21
-21
-20
-19
-18
-17
-16
-15
-15
-15
-15
-16
-17
-17
-17
-17
-16
-15
-14
-13
-12
-11
-11
-11
-11
-11
-11
-12
-12
-12
-11
-10
-10
-9
-8
-7
-6
-6
-5
-5
-5
-5
-5
-5
-6
-7
-8
-9
-11
-13
-15
-17
-18
-19
-19
-19
-18
-17
-17
-17
-17
-18
-19
-20
-21
-21
-21
-20
-19
-18
-18
-17
-17
-16
-17
-17
-17
-17
-17
-17
-17
-17
-17
-18
-18
-19
-20
-20
-21
-21
-21
-22
-23
-24
-24
-24
-23
-21
-16
-9
2
17
34
55
77
100
121
140
153
160
159
149
132
108
80
50
22
-3
-22
-35
-41
-42
-39
-32
-26
-19
-14
-11
-10
-10
-11
-12
-13
-14
-14
-15
-15
-15
-16
-15
-15
-14
-13
-12
-11
-10
-9
-9
-9
-9
-9
-9
-9
-9
-8
-8
-8
-8
-8
-8
-7
-7
-6
-6
-5
-4
-3
-2
-1
-1
0
0
1
1
1
2
2
2
2
3
4
4
6
7
8
9
10
11
12
12
13
13
14
16
17
18
20
21
23
24
25
26
27
28
30
31
33
35
38
40
41
43
45
46
47
48
49
50
51
52
52
53
53
53
54
54
54
55
55
55
54
53
52
50
47
44
41
38
35
32
30
28
26
24
22
20
18
16
15
13
11
9
7
6
4
2
1
-1
-3
-4
-6
-7
-8
-8
-9
-9
-9
-9
-9
-10
-10
-10
-10
-11
-11
-11
-11
-11
-11
-11
-11
-11
-11
-11
-12
-13
-14
-15
-15
-15
-15
-14
-13
-12
-10
-9
-8
-7
-7
-8
-8
-9
-9
-9
-9
-9
-9
-8
-8
-8
-8
-9
-10
-10
-11
-12
-12
-12
-12
-11
-10
-9
-9
-8
-8
-7
-8
-8
-8
-9
-10
-10
-10
-10
-10
-10
-10
-9
-9
-9
-9
-9
-10
-10
-10
-11
-11
-11
-11
-11
-11
-11
-11
-11
-11
-11
-11
-12
-12
-12
-13
-14
-14
-14
-14
-14
-13
-12
-11
-10
-10
-10
-10
-11
-13
-14
-14
-15
-15
-14
-13
-13
-12
-13
-13
-14
-15
-15
-16
-16
-16
-16
-15
-15
-15
-15
-15
-16
-17
-17
-17
-17
-16
-15
-14
-13
-12
-11
-11
-11
-10
-10
-10
-10
-10
-10
-10
-10
-10
-11
-11
-12
-12
-12
-12
-11
-9
-8
-6
-5
-4
-3
-2
-1
-1
-1
-1
-1
-2
-2
-4
-5
-7
-9
-12
-14
-15
-17
-17
-18
-18
-18
-17
-17
-16
-16
-15
-15
-15
-15
-16
-16
-16
-17
-17
-17
-17
-17
-17
-17
-17
-17
-17
-18
-18
-19
-19
-20
-20
-21
-21
-20
-20
-20
-19
-19
-19
-19
-20
-21
-23
-24
-26
-27
-27
-25
-21
-14
-4
9
25
45
66
88
109
128
143
153
156
151
139
119
94
65
36
9
-15
-32
-43
-47
-45
-39
-31
-23
-16
-11
-8
-8
-10
-12
-14
-15
-15
-15
-14
-13
-12
-12
-12
-12
-13
-13
-14
-13
-12
-11
-10
-9
-9
-9
-9
-10
-10
-10
-10
-9
-8
-7
-6
-4
-4
-3
-3
-4
-4
-4
-3
-2
-1
0
2
3
4
4
5
4
4
3
3
3
3
3
4
5
6
7
8
9
10
11
12
14
15
17
18
20
21
22
23
24
25
27
28
30
32
35
37
40
43
46
48
49
50
50
50
49
49
49
49
50
51
52
53
54
54
55
55
54
54
53
52
50
48
46
44
42
39
37
34
32
29
28
26
24
22
19
17
14
12
9
7
6
5
4
4
3
2
1
-1
-3
-5
-8
-10
-11
-12
-12
-12
-12
-11
-12
-12
-13
-13
-14
-14
-14
-14
-13
-12
-11
-11
-10
-10
-11
-11
-11
-11
-11
-11
-10
-10
-9
-9
-9
-10
-10
-10
-10
-9
-9
-9
-9
-9
-10
-11
-11
-11
-11
-11
-10
-9
-7
-6
-5
-5
-5
-6
-8
-9
-10
-11
-12
-12
-11
-11
-11
-10
-11
-11
-12
-12
-13
-14
-14
-15
-14
-14
-13
-12
-12
-11
-11
-11
-11
-12
-12
-12
-13
-13
-13
-13
-14
-14
-14
-14
-14
-14
-14
-13
-13
-13
-13
-13
-13
-14
-15
-17
-17
-18
-18
-17
-16
-15
-14
-13
-13
-13
-13
-14
-15
-16
-16
-16
-16
-16
-16
-16
-15
-15
-16
-16
-16
-16
-17
-17
-17
-17
-17
-17
-17
-17
-17
-17
-16
-16
-16
-16
-16
-17
-17
-18
-18
-18
-18
-18
-18
-18
-19
-19
-20
-20
-21
-20
-20
-18
-16
-15
-13
-11
-11
-10
-11
-11
-12
-12
-12
-12
-11
-10
-9
-8
-7
-6
-6
-5
-5
-5
-4
-4
-3
-1
0
0
1
1
0
-1
-2
-4
-5
-7
-8
-10
-11
-12
-14
-15
-16
-17
-17
-17
-15
-14
-13
-11
-10
-10
-11
-12
-13
-14
-16
-16
-17
-17
-17
-17
-17
-17
-18
-19
-19
-20
-20
-20
-19
-18
-18
-17
-17
-17
-17
-18
-18
-19
-20
-20
-21
-22
-24
-25
-26
-25
-23
-19
-11
-1
14
31
52
73
95
116
134
147
154
155
148
134
113
88
60
31
5
-16
-31
-40
-43
-40
-34
-26
-19
-13
-10
-9
-10
-12
-13
-15
-15
-15
-13
-12
-11
-10
-10
-10
-11
-11
-12
-12
-11
-10
-9
-8
-8
-8
-8
-8
-9
-9
-9
-9
-9
-9
-8
-8
-7
-7
-6
-6
-5
-4
-3
-2
-1
0
0
0
0
0
-1
-1
-1
0
1
3
5
6
7
8
9
9
9
10
10
11
12
13
14
16
17
19
20
21
22
24
25
27
28
30
32
34
36
38
40
42
44
46
47
49
51
52
53
55
56
57
57
58
58
58
58
57
56
55
53
53
52
52
51
51
50
49
47
44
40
37
33
30
27
25
24
22
21
19
17
14
12
9
7
6
5
4
3
2
1
-1
-4
-6
-9
-11
-12
-12
-11
-10
-9
-8
-7
-8
-9
-10
-12
-13
-14
-14
-14
-13
-12
-11
-11
-11
-10
-11
-11
-11
-11
-11
-11
-11
-11
-10
-10
-10
-11
-11
-11
-11
-11
-11
-11
-10
-9
-8
-7
-6
-6
-5
-6
-6
-7
-8
-9
-10
-11
-11
-10
-9
-8
-7
-6
-6
-6
-6
-7
-7
-8
-9
-9
-9
-8
-8
-8
-8
-8
-8
-8
-8
-8
-8
-8
-8
-7
-8
-8
-9
-10
-12
-13
-15
-15
-15
-15
-14
-13
-12
-11
-11
-11
-12
-13
-13
-14
-14
-14
-14
-14
-14
-14
-15
-15
-15
-15
-15
-15
-15
-15
-15
-15
-15
-15
-15
-15
-15
-14
-14
-13
-13
-13
-13
-13
-14
-14
-15
-15
-16
-16
-15
-15
-15
-15
-15
-15
-15
-15
-15
-15
-15
-14
-14
-14
-13
-13
-14
-14
-15
-15
-16
-16
-16
-16
-16
-16
-15
-15
-15
-15
-14
-14
-15
-15
-15
-16
-17
-17
-18
-19
-19
-19
-18
-16
-15
-13
-11
-11
-10
-11
-12
-13
-13
-14
-13
-12
-11
-10
-9
-8
-8
-9
-10
-12
-13
-13
-13
-12
-10
-8
-7
-5
-4
-3
-2
-1
-1
0
0
0
0
-1
-2
-4
-6
-9
-11
-13
-14
-15
-16
-16
-15
-15
-14
-14
-14
-14
-15
-16
-17
-18
-19
-20
-20
-20
-20
-19
-18
-17
-16
-16
-16
-16
-17
-18
-18
-18
-18
-18
-17
-16
-16
-16
-16
-17
-18
-18
-19
-19
-20
-20
-21
-22
-24
-24
-24
-22
-17
-9
2
17
35
55
77
98
118
135
148
155
155
148
134
113
87
58
29
3
-19
-35
-43
-44
-40
-32
-23
-15
-9
-6
-6
-8
-11
-14
-15
-16
-15
-13
-11
-9
-8
-8
-9
-10
-11
-11
-10
-9
-8
-7
-6
-6
-7
-8
-8
-8
-8
-7
-6
-5
-4
-3
-3
-3
-3
-3
-3
-3
-2
-1
0
0
0
0
0
0
0
1
2
4
6
8
9
10
10
10
10
10
10
10
10
11
12
12
13
14
15
16
18
20
22
25
27
29
31
32
33
34
35
36
37
39
41
44
46
48
50
52
54
55
56
57
58
59
60
60
59
59
58
57
56
56
56
56
57
57
56
54
52
49
46
42
38
34
31
28
26
24
22
20
18
17
15
12
10
7
5
2
0
-2
-3
-4
-5
-5
-4
-4
-4
-5
-5
-6
-7
-9
-10
-11
-11
-11
-12
-12
-12
-12
-13
-13
-13
-12
-12
-11
-10
-9
-9
-8
-9
-9
-10
-10
-10
-10
-10
-9
-9
-8
-7
-7
-7
-7
-8
-9
-9
-10
-10
-10
-9
-9
-8
-7
-6
-6
-5
-5
-5
-5
-5
-5
-5
-5
-5
-5
-5
-5
-5
-5
-6
-7
-8
-9
-11
-12
-13
-13
-13
-12
-11
-10
-9
-8
-8
-8
-9
-10
-11
-12
-13
-14
-15
-14
-14
-14
-13
-13
-13
-13
-13
-13
-13
-12
-12
-11
-11
-11
-11
-12
-12
-13
-13
-14
-14
-14
-13
-13
-12
-12
-12
-12
-13
-13
-14
-14
-14
-14
-14
-14
-14
-14
-14
-14
-13
-13
-12
-12
-11
-11
-11
-11
-12
-13
-14
-15
-15
-15
-15
-14
-13
-13
-12
-12
-12
-13
-14
-14
-15
-15
-16
-16
-16
-16
-16
-16
-16
-15
-14
-14
-13
-13
-13
-14
-14
-15
-15
-16
-15
-15
-14
-13
-12
-11
-11
-11
-12
-12
-12
-11
-11
-10
-9
-8
-8
-8
-9
-11
-12
-13
-14
-14
-14
-12
-10
-8
-6
-4
-3
-2
-1
-1
-1
-2
-2
-3
-4
-5
-6
-7
-8
-9
-10
-11
-12
-13
-13
-13
-14
-14
-15
-15
-16
-17
-17
-18
-19
-20
-20
-20
-20
-20
-20
-20
-20
-20
-20
-20
-20
-19
-19
-20
-20
-20
-20
-21
-21
-22
-22
-23
-23
-23
-22
-22
-22
-22
-23
-24
-24
-24
-22
-19
-13
-4
9
25
44
66
88
110
130
145
155
157
152
139
119
93
65
36
10
-13
-30
-41
-45
-44
-40
-33
-26
-20
-15
-12
-12
-12
-13
-15
-16
-16
-16
-15
-13
-12
-11
-10
-10
-10
-10
-11
-11
-12
-12
-12
-12
-12
-11
-11
-10
-10
-9
-9
-9
-9
-8
-8
-7
-7
-6
-5
-4
-4
-4
-4
-4
-3
-3
-3
-2
-1
-1
0
0
1
1
2
2
3
4
5
6
7
8
9
10
10
11
12
13
14
15
17
18
19
20
21
22
23
25
27
30
33
36
39
42
44
46
47
48
48
49
49
50
50
51
53
54
55
57
58
59
60
60
60
59
58
57
56
55
54
52
50
49
46
43
40
37
33
30
27
24
22
20
18
16
14
12
10
7
4
2
-1
-3
-4
-5
-6
-6
-7
-7
-8
-9
-10
-11
-12
-12
-13
-13
-13
-13
-13
-13
-13
-12
-12
-13
-13
-13
-14
-14
-15
-15
-14
-14
-13
-12
-12
-11
-11
-11
-12
-12
-12
-12
-12
-11
-10
-10
-10
-10
-10
-11
-11
-12
-12
-11
-11
-10
-9
-9
-9
-9
-10
-11
-12
-12
-12
-11
-10
-9
-8
-7
-7
-8
-9
-10
-11
-12
-12
-11
-11
-10
-10
-10
-10
-10
-11
-11
-12
-12
-12
-13
-13
-13
-14
-14
-15
-16
-16
-17
-17
-17
-17
-17
-17
-17
-17
-16
-16
-15
-15
-14
-14
-14
-14
-15
-16
-17
-17
-17
-17
-17
-16
-16
-15
-15
-15
-16
-16
-16
-16
-16
-16
-16
-16
-17
-17
-17
-17
-18
-17
-17
-17
-17
-16
-16
-16
-17
-17
-17
-18
-17
-17
-16
-16
-16
-16
-16
-17
-18
-19
-20
-20
-20
-19
-18
-17
-17
-16
-16
-17
-17
-18
-19
-19
-19
-18
-17
-16
-14
-13
-12
-12
-12
-12
-13
-13
-13
-12
-11
-11
-11
-10
-11
-11
-11
-12
-12
-11
-9
-8
-6
-4
-2
-1
0
-1
-1
-2
-4
-5
-6
-7
-8
-8
-9
-11
-12
-14
-16
-17
-19
-20
-21
-22
-22
-21
-21
-21
-20
-20
-20
-20
-21
-21
-21
-20
-19
-18
-17
-16
-15
-15
-15
-16
-17
-18
-20
-21
-22
-22
-22
-21
-21
-20
-20
-21
-22
-23
-25
-26
-27
-28
-27
-24
-20
-14
-5
7
22
40
60
82
104
124
142
155
161
159
149
132
109
81
52
24
0
-19
-32
-39
-40
-37
-31
-25
-19
-14
-11
-10
-10
-11
-12
-12
-12
-12
-11
-11
-10
-10
-11
-11
-12
-12
-11
-10
-9
-7
-6
-5
-5
-5
-5
-6
-7
-8
-8
-8
-8
-7
-7
-6
-5
-4
-3
-2
-1
-1
-1
0
0
0
0
0
1
2
3
4
5
6
7
7
7
6
6
6
7
8
9
11
13
15
16
17
18
18
19
20
22
23
26
28
30
32
34
36
37
38
39
41
42
44
45
47
49
51
53
55
57
58
60
61
62
62
62
61
60
59
58
58
58
57
57
57
56
55
53
51
48
45
42
40
37
34
32
30
27
24
21
18
15
13
10
8
6
4
3
2
0
-1
-2
-3
-4
-5
-6
-7
-7
-8
-9
-9
-9
-9
-9
-9
-8
-8
-8
-9
-9
-10
-11
-12
-12
-12
-11
-10
-9
-8
-8
-8
-8
-9
-10
-10
-11
-11
-11
-10
-10
-10
-10
-10
-11
-12
-12
-12
-12
-11
-10
-9
-9
-8
-8
-9
-9
-10
-10
-10
-10
-10
-9
-9
-8
-7
-7
-6
-6
-6
-6
-6
-7
-7
-8
-8
-9
-9
-9
-9
-9
-8
-9
-9
-9
-10
-11
-12
-13
-13
-14
-14
-14
-15
-15
-15
-15
-15
-15
-14
-14
-14
-13
-13
-13
-12
-12
-12
-12
-13
-13
-14
-14
-14
-15
-15
-15
-14
-13
-12
-11
-10
-9
-9
-10
-11
-13
-14
-16
-17
-17
-17
-17
-16
-16
-15
-15
-15
-15
-15
-15
-15
-14
-13
-12
-12
-11
-12
-12
-14
-15
-16
-17
-17
-17
-17
-16
-15
-14
-14
-14
-14
-14
-14
-15
-15
-16
-16
-16
-16
-16
-15
-14
-12
-11
-10
-10
-9
-10
-10
-11
-12
-12
-12
-12
-12
-11
-9
-8
-7
-6
-5
-4
-3
-2
-1
0
1
2
2
2
1
0
-2
-4
-6
-7
-9
-10
-11
-12
-12
-12
-13
-13
-13
-14
-14
-15
-16
-16
-17
-17
-18
-18
-18
-18
-18
-18
-18
-17
-17
-17
-17
-17
-17
-17
-18
-18
-18
-19
-18
-18
-18
-18
-17
-17
-17
-18
-18
-19
-19
-20
-21
-21
-22
-21
-18
-14
-7
3
16
34
54
76
99
121
140
154
162
162
153
137
115
88
59
31
5
-16
-31
-39
-42
-39
-34
-27
-21
-15
-12
-10
-10
-11
-13
-14
-15
-14
-14
-12
-11
-10
-9
-9
-8
-8
-7
-6
-6
-5
-5
-5
-6
-7
-9
-9
-10
-10
-9
-8
-6
-5
-4
-3
-3
-3
-4
-4
-4
-3
-3
-2
-1
0
1
1
1
0
0
0
0
0
1
2
4
5
6
7
7
8
8
9
9
10
11
12
13
15
16
17
18
19
20
22
24
25
27
29
31
33
35
37
39
41
43
44
46
47
49
50
51
52
52
53
54
54
55
55
55
55
55
55
55
55
55
55
55
54
53
50
47
44
40
36
32
29
26
24
22
20
19
17
14
12
9
6
4
2
0
-1
-2
-3
-5
-6
-7
-9
-10
-11
-12
-12
-11
-11
-10
-9
-9
-9
-9
-10
-12
-13
-15
-16
-17
-18
-18
-18
-17
-17
-16
-15
-14
-14
-13
-13
-13
-13
-13
-13
-13
-14
-14
-14
-14
-13
-13
-12
-12
-11
-11
-11
-11
-11
-11
-12
-12
-12
-12
-12
-12
-11
-11
-11
-10
-10
-10
-11
-11
-11
-11
-11
-12
-12
-12
-12
-13
-13
-13
-13
-13
-12
-12
-11
-11
-11
-11
-11
-11
-11
-12
-13
-14
-15
-16
-17
-18
-18
-18
-18
-18
-17
-17
-16
-15
-15
-15
-15
-15
-16
-17
-18
-18
-19
-19
-20
-19
-19
-18
-17
-16
-15
-15
-15
-15
-15
-16
-16
-17
-17
-17
-17
-17
-16
-16
-16
-16
-17
-17
-18
-19
-19
-19
-19
-19
-18
-17
-17
-16
-16
-16
-17
-17
-18
-19
-20
-20
-20
-21
-21
-21
-21
-21
-20
-19
-18
-16
-14
-12
-11
-10
-10
-10
-11
-11
-12
-12
-13
-12
-12
-12
-12
-12
-12
-12
-11
-10
-9
-7
-4
-2
0
1
1
0
-1
-3
-5
-6
-7
-8
-8
-9
-9
-10
-11
-12
-14
-15
-17
-17
-18
-18
-18
-17
-17
-17
-18
-18
-19
-19
-19
-19
-20
-20
-20
-20
-19
-19
-19
-19
-19
-19
-18
-18
-19
-19
-20
-20
-21
-21
-20
-19
-18
-17
-17
-17
-18
-20
-22
-24
-25
-24
-21
-14
-4
10
26
46
67
89
111
131
148
160
165
162
151
132
107
78
47
18
-7
-25
-36
-41
-40
-34
-28
-21
-16
-13
-12
-13
-14
-15
-15
-14
-13
-11
-9
-9
-9
-10
-11
-12
-13
-14
-14
-13
-12
-11
-9
-8
-8
-8
-8
-8
-8
-9
-9
-9
-9
-8
-7
-6
-5
-4
-2
-2
-1
-1
-1
-1
-2
-2
-2
-1
-1
0
1
2
2
3
4
4
5
5
5
6
6
7
8
9
10
10
11
12
12
13
14
15
16
18
21
24
27
29
32
35
37
38
40
41
43
44
46
48
49
50
51
52
52
52
53
54
55
57
58
60
61
61
61
60
59
57
55
53
52
50
49
47
45
43
40
37
33
29
26
23
21
19
18
16
14
13
10
8
6
4
2
0
-1
-3
-4
-5
-6
-7
-9
-10
-11
-12
-12
-12
-13
-13
-13
-14
-14
-15
-15
-15
-15
-15
-14
-14
-14
-14
-14
-15
-15
-16
-16
-16
-16
-15
-15
-14
-13
-12
-12
-11
-11
-10
-10
-9
-9
-8
-8
-9
-9
-10
-11
-12
-13
-13
-13
-13
-12
-12
-12
-13
-13
-13
-14
-13
-13
-11
-10
-9
-8
-7
-7
-8
-9
-11
-12
-13
-13
-14
-13
-13
-13
-12
-12
-13
-13
-13
-14
-14
-14
-14
-14
-13
-13
-13
-14
-14
-14
-14
-14
-14
-13
-13
-13
-12
-12
-13
-13
-14
-15
-15
-16
-16
-16
-15
-15
-15
-14
-14
-14
-14
-14
-14
-14
-14
-14
-14
-15
-16
-16
-17
-18
-19
-19
-18
-17
-16
-14
-13
-13
-12
-13
-14
-15
-16
-17
-18
-17
-17
-16
-16
-15
-15
-15
-15
-16
-16
-17
-17
-16
-16
-15
-14
-13
-12
-11
-11
-10
-10
-9
-9
-9
-8
-8
-8
-8
-9
-9
-8
-8
-8
-7
-6
-5
-4
-3
-2
-1
-1
-1
-2
-3
-4
-6
-8
-10
-12
-13
-15
-16
-17
-17
-17
-16
-16
-15
-14
-14
-14
-14
-15
-15
-16
-16
-17
-17
-17
-18
-17
-17
-17
-17
-18
-18
-19
-20
-21
-22
-22
-23
-22
-22
-21
-21
-20
-20
-20
-20
-20
-21
-21
-22
-23
-24
-25
-26
-25
-24
-20
-13
-3
10
27
48
70
93
116
137
153
163
166
161
148
128
102
73
43
15
-8
-26
-37
-41
-41
-36
-30
-23
-18
-14
-12
-12
-12
-13
-13
-13
-12
-12
-11
-11
-11
-12
-12
-13
-13
-12
-11
-10
-9
-8
-8
-9
-9
-10
-11
-11
-11
-11
-10
-10
-9
-8
-7
-6
-6
-5
-4
-3
-2
-2
-2
-2
-2
-2
-2
-1
-1
0
1
2
3
4
4
5
5
5
6
7
8
9
10
11
12
13
13
14
15
16
17
19
20
22
24
26
28
31
32
34
36
38
39
41
42
44
46
48
50
52
54
55
57
58
59
60
61
61
61
62
62
62
62
62
61
60
58
56
54
52
50
48
45
43
40
37
34
30
27
24
21
19
17
15
13
12
10
8
5
3
2
0
-2
-3
-4
-5
-7
-8
-10
-11
-13
-13
-14
-14
-14
-14
-14
-14
-15
-16
-16
-16
-16
-15
-14
-13
-12
-11
-11
-12
-13
-14
-15
-16
-16
-15
-14
-12
-11
-10
-10
-10
-10
-11
-12
-12
-12
-11
-11
-10
-9
-9
-9
-9
-9
-10
-10
-10
-10
-10
-9
-8
-8
-8
-9
-9
-10
-11
-11
-12
-12
-12
-12
-12
-12
-12
-12
-12
-11
-11
-10
-10
-10
-9
-10
-10
-11
-12
-13
-14
-14
-13
-12
-11
-10
-9
-9
-9
-9
-10
-11
-12
-13
-13
-14
-14
-13
-13
-12
-12
-12
-11
-11
-11
-11
-11
-12
-12
-12
-12
-12
-12
-12
-12
-12
-13
-13
-13
-14
-14
-15
-16
-16
-17
-18
-18
-18
-17
-16
-14
-13
-12
-11
-11
-12
-12
-13
-15
-15
-16
-16
-16
-15
-13
-12
-10
-9
-8
-8
-8
-8
-9
-9
-9
-8
-8
-6
-5
-3
-2
-1
0
0
-1
-2
-4
-5
-7
-8
-10
-12
-13
-15
-16
-17
-18
-19
-19
-19
-19
-18
-18
-18
-19
-19
-21
-22
-23
-24
-25
-25
-25
-24
-23
-22
-21
-21
-20
-20
-21
-21
-22
-23
-24
-25
-25
-25
-24
-23
-23
-22
-22
-22
-23
-25
-27
-29
-30
-31
-30
-28
-22
-14
-3
11
28
48
69
92
113
132
148
157
159
153
140
119
93
64
34
8
-15
-31
-41
-45
-44
-40
-34
-29
-24
-21
-19
-18
-18
-18
-18
-17
-16
-15
-13
-13
-12
-12
-12
-12
-12
-12
-12
-12
-13
-13
-13
-13
-13
-12
-12
-11
-10
-10
-9
-10
-10
-10
-11
-11
-10
-10
-9
-8
-7
-6
-6
-5
-5
-5
-5
-5
-5
-5
-4
-3
-3
-1
0
1
2
4
5
7
8
9
10
11
11
12
12
13
14
15
16
18
20
22
24
26
27
29
30
32
33
35
37
39
42
44
47
49
51
52
53
54
56
57
58
59
61
62
62
62
62
60
59
57
56
55
54
53
53
52
50
47
43
39
34
30
26
22
20
18
17
16
15
14
12
10
7
4
1
-1
-3
-4
-5
-6
-6
-7
-8
-10
-11
-12
-13
-14
-15
-15
-15
-14
-14
-14
-14
-14
-14
-14
-14
-14
-14
-13
-13
-13
-13
-13
-13
-13
-13
-13
-12
-11
-10
-10
-9
-9
-9
-9
-10
-10
-11
-12
-12
-13
-13
-14
-14
-14
-13
-13
-12
-11
-10
-9
-8
-8
-7
-8
-8
-9
-10
-11
-12
-12
-13
-13
-12
-11
-11
-10
-10
-9
-10
-10
-11
-12
-13
-13
-13
-13
-13
-13
-13
-13
-14
-14
-15
-15
-15
-15
-15
-14
-13
-13
-13
-13
-13
-13
-14
-14
-15
-15
-15
-15
-15
-15
-15
-15
-15
-15
-15
-15
-15
-16
-16
-16
-17
-17
-17
-17
-17
-17
-17
-17
-18
-18
-18
-18
-17
-16
-15
-14
-13
-13
-12
-13
-14
-15
-16
-17
-18
-19
-19
-18
-17
-16
-15
-14
-14
-14
-14
-14
-15
-15
-15
-15
-15
-14
-13
-12
-11
-10
-9
-8
-8
-7
-7
-7
-8
-8
-9
-9
-10
-9
-9
-8
-6
-5
-4
-3
-2
-1
-1
-1
-1
-1
-1
-1
-1
-2
-3
-5
-6
-9
-11
-13
-15
-16
-17
-17
-17
-16
-16
-16
-15
-15
-15
-15
-15
-15
-16
-17
-17
-18
-19
-19
-19
-19
-19
-18
-17
-16
-16
-15
-15
-16
-17
-17
-18
-19
-20
-20
-20
-20
-20
-20
-21
-22
-23
-25
-25
-25
-23
-18
-10
2
18
36
58
80
103
125
143
156
162
161
152
135
113
86
57
28
3
-17
-31
-38
-40
-38
-33
-27
-21
-17
-15
-14
-15
-16
-16
-17
-16
-15
-14
-12
-11
-10
-9
-9
-9
-9
-9
-9
-9
-9
-9
-9
-10
-10
-11
-11
-10
-10
-10
-9
-9
-10
-10
-11
-11
-11
-11
-10
-9
-8
-7
-7
-6
-7
-7
-7
-7
-6
-5
-3
-2
-1
0
0
0
0
-1
-1
0
1
3
6
8
10
12
13
14
14
14
15
16
17
19
21
24
26
28
29
31
32
34
36
38
40
43
44
46
47
47
47
48
48
50
51
54
56
58
60
61
62
61
60
59
57
55
54
52
50
48
46
43
40
37
34
31
28
25
23
20
18
15
12
9
6
4
2
-1
-2
